I II V1 V2 V3 V4 V5 V6
-16 -21 19 -7 -41 -38 -34 -29
-14 -22 19 -8 -39 -37 -34 -26
-18 -22 20 -4 -36 -35 -32 -19
-17 -21 22 -3 -34 -31 -30 -24
-17 -21 23 -2 -34 -32 -30 -21
-18 -22 24 -1 -34 -32 -30 -21
-16 -21 23 2 -34 -32 -30 -26
-16 -21 24 5 -34 -32 -30 -21
-14 -21 26 9 -29 -30 -28 -16
-14 -19 26 11 -27 -30 -30 -20
-12 -18 26 13 -25 -28 -30 -19
-12 -18 29 16 -20 -25 -28 -21
-14 -17 31 19 -15 -23 -26 -22
-15 -17 34 23 -12 -19 -23 -21
-15 -17 37 27 -10 -17 -22 -16
-15 -19 39 30 -8 -15 -21 -15
-13 -16 39 35 -7 -15 -21 -15
-12 -15 42 42 -4 -12 -20 -12
-12 -16 45 48 2 -11 -17 -8
-9 -12 45 53 7 -7 -18 -13
-9 -11 48 57 10 -6 -19 -16
-9 -10 52 64 19 -1 -16 -11
-11 -9 57 72 28 5 -11 -8
-12 -7 60 78 32 10 -8 -17
-8 -4 63 86 36 14 -6 -17
-4 -3 67 94 42 16 -6 -13
-4 -4 71 103 48 21 -2 -6
-1 -2 76 114 56 28 1 -6
-1 -1 78 122 63 31 3 -6
-2 -1 83 133 72 36 5 -4
-1 2 86 143 83 44 10 -2
1 3 91 153 91 51 14 -8
5 8 94 161 101 58 19 2
6 11 98 171 110 68 25 10
6 12 102 178 117 75 29 7
9 15 104 185 124 80 33 10
10 16 105 191 130 84 36 22
14 20 104 196 133 89 39 19
16 24 103 200 138 92 41 16
15 24 105 205 144 97 44 21
11 28 106 208 152 104 50 24
7 28 107 212 158 109 55 34
11 32 104 211 161 112 57 32
13 37 104 210 160 115 59 37
15 39 102 206 158 114 59 37
18 41 99 203 156 113 58 34
20 40 99 202 154 113 60 39
21 39 96 198 149 111 58 41
21 39 94 195 147 107 58 45
21 36 91 189 145 106 56 36
19 38 89 185 141 104 55 36
20 40 86 179 138 101 54 36
18 39 85 173 136 99 54 30
18 40 83 168 131 98 52 24
17 40 79 161 127 95 52 28
17 36 78 156 122 91 50 28
17 37 76 150 116 88 49 29
16 39 70 141 108 82 46 21
14 37 65 134 102 76 43 24
15 35 62 126 96 71 39 31
13 32 57 118 89 66 38 23
12 34 52 109 82 61 34 23
10 35 49 100 77 57 34 23
9 32 46 92 69 53 31 19
10 29 43 85 64 51 32 22
11 25 40 78 58 46 30 22
14 24 36 70 50 41 26 22
13 24 33 64 44 37 24 17
11 21 30 57 38 31 21 16
11 19 25 52 34 28 19 20
9 16 22 45 28 25 17 20
9 14 19 39 24 22 14 10
7 13 19 34 22 20 14 6
7 13 15 27 15 16 9 5
3 16 12 21 10 13 8 4
5 12 11 18 6 9 7 10
4 6 11 16 2 9 7 12
7 7 8 11 -2 5 4 6
6 6 6 7 -4 1 1 7
5 3 3 4 -8 -2 -1 0
5 4 2 1 -9 -4 -1 1
5 4 0 -3 -11 -6 -3 -2
4 1 -1 -6 -11 -7 -4 -5
2 0 0 -8 -13 -7 -4 0
1 -1 -1 -9 -17 -9 -5 9
3 -2 0 -11 -19 -10 -6 0
3 -3 -2 -11 -22 -13 -8 -9
3 -3 -3 -13 -24 -14 -9 -8
0 -2 -2 -11 -22 -16 -8 -3
-1 -5 -3 -13 -23 -16 -10 -2
1 -4 -3 -13 -24 -17 -10 -3
5 -2 -4 -15 -23 -17 -11 -4
1 -2 -3 -15 -24 -17 -10 -13
0 -3 -2 -15 -24 -14 -10 -9
0 -6 -1 -15 -26 -15 -10 -5
0 -8 -1 -14 -26 -15 -9 -5
-2 -10 0 -13 -25 -15 -10 -4
-4 -10 -2 -14 -29 -17 -11 2
-7 -9 -2 -11 -27 -19 -10 -7
-6 -10 -1 -10 -26 -17 -10 -11
-4 -6 -4 -13 -28 -20 -13 -12
-4 -3 -2 -12 -26 -18 -12 -7
-3 -7 -1 -11 -23 -17 -11 -6
-5 -10 1 -10 -22 -15 -10 -5
-3 -8 0 -9 -24 -15 -9 -7
0 -9 0 -10 -25 -16 -11 -14
2 -8 1 -9 -25 -17 -11 -14
1 -8 1 -7 -26 -17 -12 -12
1 -9 -1 -8 -27 -18 -12 -7
3 -9 1 -8 -25 -17 -12 -8
-3 -9 2 -5 -21 -15 -10 -8
-1 -9 1 -6 -22 -15 -10 -11
3 -6 2 -6 -19 -15 -10 -10
1 -3 1 -8 -21 -15 -11 -3
-4 0 2 -5 -20 -13 -8 -8
1 -2 3 -6 -19 -13 -9 -7
-2 -8 5 -3 -19 -11 -8 -4
-2 -8 5 -1 -19 -11 -7 -8
-3 -7 4 -2 -19 -13 -8 -8
-3 -3 3 -3 -20 -15 -11 -12
-2 -1 2 -3 -18 -14 -10 -5
-1 -3 2 -5 -18 -14 -10 -5
-1 -1 2 -4 -16 -14 -9 -10
-2 1 1 -6 -16 -13 -9 -13
0 1 0 -7 -18 -15 -10 -9
-1 -1 4 -5 -17 -14 -9 -8
-3 -2 4 -3 -16 -13 -10 -9
1 -3 2 -5 -19 -14 -11 -13
2 -4 1 -6 -20 -16 -12 2
0 -8 1 -8 -21 -18 -14 6
0 -6 1 -7 -19 -16 -12 0
-1 -3 1 -9 -21 -17 -12 -6
-6 -5 2 -9 -20 -17 -12 -6
-5 -6 2 -10 -21 -16 -12 -4
-5 -6 1 -10 -23 -17 -11 -8
-3 -4 2 -10 -24 -18 -12 -1
1 -4 2 -10 -25 -18 -13 1
-1 -9 2 -11 -27 -19 -13 -8
-3 -10 2 -10 -26 -20 -12 -15
-7 -10 1 -11 -27 -21 -14 -14
-5 -10 -1 -12 -29 -20 -15 -11
-2 -10 -2 -14 -29 -21 -15 -11
-4 -11 0 -13 -29 -21 -15 -9
-2 -8 -2 -17 -31 -22 -17 -8
-2 -9 -2 -17 -30 -22 -16 -12
-2 -9 -2 -18 -31 -24 -16 -13
-1 -6 -1 -18 -30 -24 -17 -9
1 -8 -2 -18 -32 -24 -17 -13
-1 -7 -1 -18 -31 -24 -17 -13
-3 -6 1 -15 -28 -22 -16 -12
-4 -7 0 -15 -27 -21 -16 -8
-1 -5 0 -16 -27 -22 -15 -14
-1 0 0 -17 -28 -23 -16 -18
-4 1 1 -17 -28 -21 -16 -15
-2 1 3 -16 -27 -19 -13 -14
-2 2 6 -14 -24 -18 -11 -2
-2 6 7 -12 -23 -17 -11 -2
-1 9 7 -12 -23 -17 -10 -4
1 7 5 -13 -23 -18 -11 -9
4 8 4 -13 -24 -20 -13 -6
6 7 4 -13 -23 -19 -14 -9
2 5 5 -12 -23 -18 -13 -7
5 6 6 -13 -22 -19 -13 -9
5 6 5 -13 -23 -18 -13 -4
6 4 4 -14 -24 -18 -11 -3
10 5 3 -15 -24 -18 -10 -4
10 5 0 -15 -25 -18 -11 -13
10 4 -2 -15 -27 -17 -11 -12
12 6 -4 -15 -25 -18 -10 -4
9 8 -5 -15 -24 -18 -11 -10
12 8 -8 -15 -23 -17 -12 -10
11 3 -8 -16 -22 -16 -11 -3
11 -1 -9 -17 -24 -17 -12 0
13 0 -11 -18 -26 -18 -14 -12
12 0 -12 -19 -28 -19 -13 -8
9 -2 -10 -20 -30 -20 -14 -8
8 -2 -10 -21 -32 -22 -17 -6
7 -5 -15 -26 -37 -25 -19 -9
7 -5 -17 -29 -38 -28 -21 -12
3 -8 -17 -29 -38 -30 -22 -14
5 -12 -16 -30 -38 -31 -23 -12
8 -15 -15 -31 -37 -31 -24 -13
5 -17 -14 -30 -36 -31 -24 -19
3 -17 -14 -32 -36 -31 -25 -18
1 -14 -12 -31 -34 -31 -24 -15
0 -11 -12 -33 -37 -34 -26 -14
-1 -9 -12 -33 -37 -34 -28 -19
-1 -11 -14 -34 -41 -36 -29 -23
-4 -12 -14 -34 -40 -37 -29 -27
-10 -15 -10 -31 -36 -35 -27 -23
-14 -16 -9 -29 -34 -32 -28 -21
-12 -15 -10 -31 -35 -33 -27 -19
-7 -17 -12 -34 -37 -36 -29 -23
-6 -19 -13 -37 -39 -36 -30 -15
-8 -16 -13 -36 -41 -36 -29 -22
-10 -18 -11 -37 -41 -37 -30 -25
-11 -18 -12 -37 -41 -37 -31 -28
-13 -17 -11 -34 -41 -35 -30 -26
-19 -19 -10 -33 -39 -35 -27 -22
-15 -21 -10 -32 -39 -36 -30 -19
-10 -23 -11 -34 -38 -35 -31 -23
-7 -24 -12 -36 -40 -37 -31 -27
-12 -22 -10 -33 -37 -34 -29 -17
-16 -20 -9 -32 -35 -32 -28 -12
-17 -19 -8 -32 -35 -31 -26 -13
-15 -19 -7 -31 -35 -33 -26 -16
-16 -18 -9 -33 -37 -34 -29 -26
-14 -18 -9 -33 -37 -34 -29 -22
-16 -19 -10 -33 -36 -34 -28 -13
-16 -21 -10 -33 -36 -35 -31 -23
-13 -20 -11 -33 -35 -34 -31 -23
-14 -19 -12 -35 -36 -36 -32 -23
-17 -21 -10 -33 -34 -36 -32 -27
-17 -24 -7 -30 -31 -33 -31 -27
-15 -27 -7 -26 -31 -35 -33 -31
-14 -29 1 -15 -26 -35 -36 -21
-14 -28 12 4 -15 -32 -38 -31
-20 -24 28 27 1 -23 -34 -31
-22 -16 49 53 23 -9 -26 -19
-20 -12 70 84 48 8 -18 -27
-17 -6 89 111 73 28 -6 -22
-14 5 113 137 102 52 12 -5
-7 14 133 162 133 79 30 8
8 27 132 174 160 111 55 22
27 39 109 159 173 138 82 47
54 57 68 129 179 163 110 72
82 88 18 96 190 201 150 102
101 117 -38 58 201 236 188 140
117 140 -104 4 192 257 219 165
134 169 -170 -44 190 284 255 196
149 187 -231 -82 193 314 292 231
157 198 -283 -137 171 315 306 259
163 185 -327 -195 121 275 288 252
165 151 -347 -246 46 199 235 215
159 105 -350 -278 -26 113 164 166
146 59 -340 -285 -74 44 101 119
131 27 -319 -288 -118 -17 50 84
105 11 -286 -281 -155 -68 10 52
69 2 -244 -271 -186 -115 -26 25
42 -3 -204 -253 -202 -143 -51 4
28 -4 -173 -227 -193 -143 -59 -11
14 -7 -144 -193 -167 -126 -57 -16
6 -9 -119 -162 -142 -112 -56 -14
-2 -11 -95 -138 -123 -98 -54 -22
-5 -12 -77 -122 -110 -90 -52 -28
-7 -17 -64 -109 -101 -85 -52 -29
-11 -21 -54 -97 -94 -80 -51 -34
-12 -19 -43 -86 -88 -76 -51 -32
-18 -20 -36 -75 -80 -72 -49 -27
-25 -21 -27 -63 -69 -65 -47 -31
-29 -23 -19 -54 -61 -59 -45 -26
-28 -26 -14 -49 -56 -56 -45 -29
-26 -29 -10 -44 -49 -53 -42 -29
-27 -25 -6 -42 -48 -50 -42 -26
-29 -25 -5 -42 -49 -50 -41 -31
-29 -26 -1 -39 -49 -49 -41 -36
-31 -27 1 -38 -50 -50 -43 -32
-33 -30 2 -34 -51 -50 -42 -35
-31 -32 4 -31 -50 -50 -41 -32
-27 -33 3 -31 -49 -51 -45 -35
-24 -29 2 -31 -49 -50 -45 -36
-26 -28 2 -31 -47 -50 -45 -31
-29 -28 4 -31 -45 -48 -44 -34
-31 -24 6 -31 -43 -44 -41 -29
-31 -25 8 -29 -42 -43 -38 -31
-29 -27 7 -29 -44 -44 -38 -24
-28 -26 8 -28 -44 -44 -39 -12
-30 -26 8 -25 -46 -46 -40 -25
-31 -28 10 -22 -44 -46 -38 -22
-31 -28 9 -22 -42 -47 -40 -31
-31 -30 7 -22 -42 -47 -42 -35
-29 -28 7 -22 -39 -45 -40 -34
-30 -29 9 -21 -34 -42 -38 -26
-28 -27 9 -21 -35 -40 -39 -34
-26 -24 10 -21 -35 -40 -37 -34
-26 -25 11 -21 -35 -41 -36 -32
-25 -26 12 -19 -35 -39 -36 -31
-26 -27 12 -16 -35 -40 -36 -33
-26 -25 10 -15 -36 -41 -38 -33
-27 -26 12 -13 -32 -39 -37 -22
-28 -27 10 -13 -33 -39 -38 -27
-29 -25 11 -12 -31 -37 -36 -24
-26 -23 12 -13 -29 -36 -37 -18
-25 -23 13 -11 -27 -32 -36 -28
-21 -22 15 -10 -26 -31 -34 -20
-20 -22 17 -8 -25 -31 -32 -25
-22 -21 19 -5 -25 -30 -32 -26
-20 -21 19 -1 -24 -30 -32 -17
-16 -23 17 1 -24 -31 -33 -25
-16 -23 18 3 -21 -30 -34 -31
-14 -24 18 6 -19 -28 -34 -26
-16 -26 18 8 -17 -26 -32 -25
-19 -21 20 10 -14 -24 -31 -19
-23 -16 23 13 -11 -20 -29 -19
-25 -17 26 17 -8 -17 -26 -15
-24 -17 30 23 -2 -14 -23 -13
-20 -16 29 24 -2 -16 -24 -25
-15 -15 30 30 -1 -14 -23 -25
-14 -16 33 36 5 -12 -21 -18
-16 -16 34 40 11 -8 -21 -19
-15 -13 34 45 15 -6 -20 -22
-14 -13 36 50 20 -2 -18 -15
-15 -12 39 56 26 2 -16 -10
-14 -10 44 62 33 8 -12 -21
-15 -8 47 67 37 12 -9 -21
-16 -9 50 78 44 17 -6 -14
-12 -8 55 86 50 21 -4 -8
-12 -7 58 96 55 24 -3 -8
-9 -5 61 107 62 28 -1 -10
-5 -3 63 115 71 33 1 -10
-4 -4 66 125 79 39 5 -5
-1 -2 70 134 88 46 10 -7
-1 -1 72 141 97 52 13 -3
0 2 78 152 107 63 20 6
2 5 80 160 115 70 25 3
1 6 83 168 122 75 28 4
1 11 88 177 131 83 34 13
5 16 86 184 136 87 37 20
9 21 85 189 142 91 39 17
12 25 84 192 146 95 40 15
12 26 83 195 152 99 44 19
12 29 83 195 155 104 47 26
11 33 83 196 159 108 49 26
13 34 83 194 160 111 52 29
15 33 84 195 160 114 57 28
15 31 83 194 158 113 58 31
15 34 80 190 154 112 57 32
15 40 78 187 150 109 57 27
17 40 75 183 147 107 56 31
17 41 73 180 147 106 54 30
14 40 71 177 145 105 55 40
11 36 70 173 143 105 56 41
15 37 66 165 139 101 54 33
17 39 63 157 134 99 52 30
12 40 61 150 128 95 52 31
13 36 60 145 123 92 51 41
11 33 58 141 116 87 49 42
12 32 57 136 110 84 47 34
9 33 55 131 105 79 45 31
6 32 50 123 99 73 40 29
6 30 48 116 94 70 38 29
6 28 44 108 89 66 37 19
8 26 42 100 86 64 37 24
9 25 41 93 81 63 36 24
9 25 37 84 73 57 34 21
9 24 34 76 67 52 31 24
4 21 33 72 62 50 31 29
5 20 29 65 54 45 28 24
5 20 25 59 49 39 24 18
2 18 21 52 46 35 20 14
2 16 18 45 40 31 17 9
3 15 17 40 37 27 15 11
1 13 13 34 35 25 15 9
1 14 12 30 31 24 14 7
0 12 11 24 26 21 13 7
-2 9 11 19 23 18 11 5
-3 10 9 15 18 14 9 7
-1 11 7 12 13 11 8 8
3 14 5 10 9 7 6 5
7 15 5 8 8 7 5 2
11 15 2 3 4 3 2 0
12 18 0 0 3 2 2 4
9 16 0 -4 2 1 1 -3
7 12 3 -5 0 1 1 -5
7 13 1 -8 -2 -1 -1 -3
6 11 -1 -10 -5 -3 -3 -1
7 9 0 -11 -8 -5 -4 -1
4 8 1 -11 -11 -6 -4 0
-3 9 -1 -11 -12 -9 -6 2
-5 7 -1 -11 -13 -9 -7 -7
-1 4 -4 -14 -15 -11 -8 4
-1 -2 -2 -13 -14 -9 -6 0
-2 -5 -1 -13 -12 -8 -5 -2
-4 -3 -1 -14 -13 -10 -6 -10
-4 1 -4 -16 -16 -11 -7 -11
-3 3 -2 -15 -16 -11 -7 -6
-2 -1 -1 -13 -16 -11 -6 -3
-4 -1 1 -11 -16 -11 -5 1
-4 1 -2 -11 -15 -12 -7 3
-3 1 -2 -10 -14 -12 -8 -6
-3 -1 -4 -11 -15 -12 -9 -9
-4 -4 -3 -10 -13 -11 -9 -13
-5 -3 -3 -9 -10 -10 -8 -11
-5 -2 -2 -10 -11 -9 -7 -8
-7 -2 -2 -10 -11 -8 -5 -2
-6 -2 0 -7 -9 -6 -4 2
-3 -1 -1 -8 -11 -9 -5 -3
-6 -1 1 -7 -12 -9 -5 3
-4 -2 1 -5 -10 -9 -4 4
-1 -1 0 -4 -9 -10 -7 -4
3 0 -3 -5 -9 -11 -8 -3
3 1 -2 -5 -7 -10 -8 -2
-6 0 0 -4 -4 -8 -7 0
-6 -1 4 -3 -3 -6 -5 -2
-7 -3 4 -3 -4 -5 -4 -10
-14 -3 7 0 -1 -3 -1 -4
-11 0 7 -1 -3 -5 -2 1
-8 3 4 -2 -5 -7 -4 -1
-6 5 1 -2 -7 -9 -6 -6
-3 2 2 -1 -6 -9 -7 -7
-4 -1 2 -1 -5 -7 -5 -4
-5 1 1 -2 -4 -7 -6 0
-7 1 2 -2 -2 -5 -5 -6
-6 2 3 -4 -3 -5 -6 -5
-6 4 2 -5 -3 -6 -4 -5
-8 1 2 -5 -5 -7 -5 -10
-7 0 3 -5 -5 -8 -5 -7
-7 2 4 -5 -5 -8 -5 5
-7 0 0 -7 -8 -10 -7 -4
-6 -1 2 -6 -8 -10 -8 -8
-9 -3 3 -4 -6 -8 -5 -8
-7 -4 2 -4 -4 -7 -5 -6
-5 -1 1 -7 -5 -8 -6 -3
-7 -3 1 -9 -6 -7 -6 -4
-8 -4 2 -10 -6 -8 -5 -5
-8 -2 1 -12 -8 -11 -8 -10
-10 -1 1 -11 -9 -11 -7 -4
-8 -2 0 -12 -10 -12 -8 -6
-9 -3 -2 -12 -11 -14 -9 -10
-8 -3 0 -11 -12 -16 -9 -8
-8 -1 -1 -12 -11 -16 -9 -4
-9 -2 0 -12 -11 -15 -9 -5
-7 -4 0 -12 -8 -14 -8 -3
-9 -4 0 -14 -9 -14 -8 -6
-10 -2 1 -14 -9 -13 -7 -2
-9 1 2 -14 -9 -13 -8 -4
-9 -1 1 -15 -10 -14 -9 -9
-6 -3 3 -14 -11 -14 -8 -5
-5 0 4 -13 -11 -15 -8 -11
-4 0 2 -14 -13 -18 -11 -13
-4 4 2 -14 -12 -17 -10 -7
-4 6 3 -13 -9 -15 -10 -7
-1 7 4 -13 -7 -13 -8 -7
1 8 6 -13 -5 -11 -6 -8
-2 9 7 -13 -5 -10 -3 -5
-5 11 8 -11 -4 -9 -1 -1
-10 12 11 -9 -3 -8 1 1
-11 11 11 -9 -5 -10 -1 0
-9 11 11 -10 -6 -12 -3 -3
-9 9 11 -7 -6 -11 -4 -3
-11 7 10 -8 -7 -11 -4 1
-6 9 8 -8 -5 -9 -3 1
-2 6 5 -9 -6 -10 -3 -4
-1 4 5 -10 -5 -8 -1 -2
-1 7 3 -11 -5 -7 0 1
-2 8 2 -11 -6 -8 -1 0
2 8 1 -12 -8 -9 -1 4
4 6 0 -12 -8 -9 -1 3
3 4 -3 -12 -10 -10 -2 2
-1 5 -3 -11 -11 -11 -3 -4
-3 3 -6 -14 -12 -13 -6 -4
-3 -1 -6 -13 -12 -11 -5 1
0 -2 -8 -17 -13 -13 -6 0
0 -5 -7 -18 -16 -15 -7 -10
1 -4 -10 -23 -20 -17 -9 -7
0 -6 -11 -25 -24 -19 -10 -2
1 -5 -11 -27 -27 -22 -12 -9
1 -5 -12 -27 -28 -24 -13 -14
-3 -9 -10 -25 -28 -25 -14 -9
-4 -16 -8 -24 -27 -24 -15 -10
-4 -17 -8 -24 -29 -25 -16 -16
-9 -16 -8 -26 -29 -26 -17 -13
-14 -14 -6 -25 -28 -24 -16 -12
-19 -16 -3 -24 -26 -21 -14 -13
-14 -19 -7 -28 -30 -24 -14 -9
-12 -17 -5 -27 -33 -25 -16 -11
-14 -18 -4 -27 -33 -26 -15 -14
-14 -18 -3 -26 -34 -26 -15 -17
-14 -19 -5 -28 -37 -30 -18 -12
-16 -20 -6 -29 -39 -32 -20 -9
-17 -18 -7 -28 -39 -32 -19 -15
-18 -14 -8 -31 -40 -33 -21 -17
-18 -16 -9 -32 -39 -33 -21 -17
-19 -18 -7 -32 -38 -31 -20 -18
-22 -20 -7 -32 -39 -30 -19 -20
-21 -22 -4 -30 -39 -29 -18 -12
-19 -22 -4 -30 -39 -30 -18 -16
-17 -22 -6 -30 -42 -31 -19 -19
-20 -20 -4 -27 -41 -31 -19 -9
-21 -21 -4 -27 -40 -31 -19 -11
-23 -19 -5 -28 -39 -31 -19 -23
-23 -17 -5 -27 -37 -29 -19 -17
-21 -19 -5 -28 -37 -29 -19 -8
-21 -19 -4 -31 -38 -29 -18 -15
-24 -19 -5 -31 -39 -29 -17 -19
-23 -21 -5 -30 -37 -29 -17 -19
-21 -20 -4 -29 -37 -29 -16 -13
-23 -22 -5 -30 -38 -30 -18 -5
-25 -24 -6 -30 -40 -32 -20 -17
-23 -25 -6 -29 -40 -34 -22 -23
-23 -26 -6 -27 -40 -34 -24 -14
-19 -26 -4 -23 -37 -33 -26 -10
-19 -27 0 -14 -32 -34 -31 -29
-20 -30 10 4 -20 -30 -33 -29
-20 -28 26 26 -1 -20 -29 -21
-25 -22 45 48 17 -7 -23 -23
-27 -16 66 81 42 10 -11 -18
-24 -11 84 108 67 31 2 -11
-18 -2 101 129 93 53 17 3
-11 9 122 157 124 82 35 10
4 19 126 172 153 114 59 27
23 32 109 162 170 142 88 48
45 48 80 139 179 172 121 71
66 71 42 107 188 207 161 105
82 98 -1 70 197 246 205 146
95 125 -58 14 186 271 240 184
105 154 -126 -46 170 294 277 215
120 185 -189 -92 168 327 318 249
123 203 -248 -152 142 331 339 285
123 196 -296 -214 91 298 326 283
128 164 -324 -258 28 232 280 253
122 116 -330 -281 -31 153 214 211
118 68 -324 -287 -77 82 145 155
109 41 -313 -292 -123 14 87 115
88 24 -286 -287 -163 -49 40 81
55 15 -242 -273 -198 -107 -5 49
29 3 -203 -252 -217 -145 -37 18
15 -6 -171 -222 -211 -151 -51 -2
5 -11 -141 -188 -184 -138 -53 -10
-3 -15 -116 -160 -158 -122 -54 -19
-10 -13 -94 -133 -133 -105 -51 -21
-14 -15 -74 -113 -115 -94 -49 -24
-15 -21 -61 -99 -103 -86 -48 -17
-15 -22 -49 -88 -94 -78 -46 -22
-17 -23 -38 -78 -88 -74 -44 -28
-19 -22 -30 -68 -82 -71 -44 -29
-22 -23 -21 -58 -72 -65 -42 -26
-28 -26 -15 -49 -64 -58 -40 -27
-25 -28 -10 -43 -58 -56 -39 -25
-23 -30 -6 -40 -52 -53 -39 -30
-27 -31 -3 -38 -49 -51 -38 -32
-28 -28 -1 -36 -49 -49 -37 -27
-29 -26 -1 -37 -49 -51 -39 -33
-31 -28 3 -36 -50 -50 -39 -29
-31 -32 6 -33 -49 -48 -37 -31
-30 -32 8 -30 -49 -49 -36 -23
-31 -30 9 -26 -47 -48 -36 -19
-33 -30 8 -27 -47 -48 -37 -23
-31 -33 8 -26 -46 -47 -36 -22
-24 -30 5 -28 -46 -48 -39 -19
-27 -32 7 -27 -44 -46 -37 -29
-25 -30 7 -29 -45 -47 -38 -27
-29 -27 8 -28 -45 -47 -37 -27
-29 -28 7 -28 -46 -47 -38 -29
-25 -29 9 -28 -46 -47 -36 -31
-26 -27 10 -26 -47 -47 -37 -35
-26 -31 9 -24 -45 -47 -38 -27
-26 -31 10 -23 -43 -45 -37 -24
-25 -31 10 -23 -42 -47 -37 -31
-27 -28 8 -23 -39 -45 -38 -28
-29 -27 10 -21 -36 -41 -34 -25
-31 -28 12 -20 -33 -38 -33 -22
-29 -28 12 -20 -33 -38 -33 -20
-27 -29 12 -19 -34 -37 -34 -15
-24 -30 14 -18 -35 -39 -32 -25
-22 -27 14 -16 -33 -39 -32 -28
-25 -27 13 -14 -32 -39 -33 -27
-25 -24 12 -14 -32 -39 -35 -22
-24 -27 13 -12 -30 -38 -33 -25
-22 -28 11 -12 -28 -37 -35 -25
-23 -25 12 -11 -27 -35 -34 -22
-21 -24 12 -11 -25 -34 -34 -23
-18 -25 15 -8 -23 -31 -31 -31
-20 -22 16 -7 -21 -28 -30 -25
-22 -24 19 -5 -21 -28 -28 -23
-21 -25 21 -1 -20 -26 -28 -21
-23 -26 22 4 -17 -25 -26 -25
-22 -26 21 5 -18 -25 -26 -22
-18 -25 19 6 -16 -26 -27 -15
-19 -23 20 9 -10 -21 -25 -11
-20 -24 22 11 -7 -19 -23 -17
-19 -23 24 14 -5 -17 -22 -18
-20 -22 26 17 0 -15 -19 -17
-20 -20 26 20 1 -13 -20 -12
-17 -18 29 24 5 -11 -18 -5
-17 -19 32 29 8 -9 -16 -3
-16 -19 32 34 11 -8 -16 -11
-14 -19 32 38 14 -5 -15 -17
-15 -20 34 43 18 -2 -15 -11
-14 -16 36 49 26 3 -13 -15
-13 -18 40 55 33 8 -10 -19
-13 -17 42 61 38 12 -8 -10
-14 -14 47 69 46 18 -3 -6
-16 -14 51 77 54 24 0 -4
-12 -11 55 84 59 28 3 -4
-12 -5 57 92 64 30 5 -8
-8 -5 58 102 72 35 7 -9
-8 -5 61 111 81 42 11 -2
-5 -6 63 118 90 48 13 -2
-2 -1 64 126 100 54 16 1
1 1 67 135 110 63 21 11
1 3 70 143 117 71 28 11
3 6 73 150 125 79 33 19
4 10 76 159 134 87 38 18
9 15 78 164 139 93 43 23
8 20 81 172 146 99 48 30
5 18 81 178 153 104 50 28
11 21 80 180 157 107 53 27
16 24 78 181 160 110 54 28
10 26 79 181 164 114 57 35
6 29 80 181 168 118 60 39
8 30 78 179 166 118 61 34
11 33 75 175 164 117 62 31
9 35 75 173 163 119 63 37
12 34 73 170 158 117 62 36
17 35 70 166 154 113 61 39
17 33 69 163 152 112 60 36
14 34 66 159 147 109 58 35
15 37 63 154 143 107 57 31
16 35 62 150 141 105 57 32
18 34 59 143 136 102 56 35
17 35 56 136 130 99 53 32
15 35 52 128 122 93 49 33
13 36 52 125 119 91 50 35
11 36 50 118 112 87 49 30
9 35 46 112 107 80 46 32
9 32 45 106 102 77 43 26
8 29 43 100 96 72 40 28
7 27 41 94 91 68 40 29
7 24 39 90 89 66 40 28
6 22 36 83 85 64 38 29
9 23 31 73 77 58 35 25
7 21 29 67 71 55 32 27
5 19 27 62 64 51 31 20
4 19 26 56 57 46 28 21
2 16 23 50 51 41 25 24
3 16 21 45 45 35 22 18
2 15 18 39 38 30 18 23
2 14 14 35 35 27 18 14
5 13 12 30 32 24 16 9
2 9 9 25 31 23 15 4
0 8 9 19 26 20 14 10
0 9 8 16 23 17 13 15
-1 8 7 12 20 14 12 9
-4 4 6 9 15 13 10 11
-4 3 6 7 12 11 7 10
-6 0 5 4 9 7 5 10
-4 -2 3 1 5 3 2 7
-3 -2 1 -2 2 1 0 5
-4 -2 -1 -5 1 -1 -1 1
-3 1 -2 -9 -1 -3 -4 7
-3 -2 -3 -12 -5 -4 -4 2
-5 -6 -2 -11 -4 -4 -3 9
-2 -6 -2 -12 -6 -6 -3 3
-3 -6 -4 -14 -9 -7 -4 -2
-4 -3 -4 -14 -13 -10 -7 -6
-6 -4 -4 -14 -12 -12 -8 -10
-6 -7 -5 -14 -13 -12 -8 -6
-8 -7 -4 -13 -11 -10 -7 -5
-8 -8 -6 -14 -12 -11 -8 -10
-10 -10 -5 -13 -10 -8 -6 0
-10 -10 -4 -11 -8 -6 -4 -1
-6 -8 -6 -15 -11 -8 -6 -3
-2 -6 -5 -15 -11 -9 -6 -4
-8 -6 -3 -13 -9 -8 -5 3
-6 -6 -4 -14 -13 -11 -8 5
-4 -6 -4 -13 -13 -11 -8 1
-2 -8 -5 -13 -13 -13 -8 -6
2 -7 -5 -12 -11 -12 -9 -4
1 -6 -5 -11 -9 -11 -8 -2
-3 -7 -5 -12 -8 -9 -8 -1
-5 -9 -3 -9 -7 -6 -5 -4
-5 -9 -2 -8 -5 -4 -3 1
-3 -10 -2 -8 -4 -4 -3 8
-1 -8 -1 -6 -4 -4 -1 3
-1 -7 -2 -6 -6 -5 -2 -2
-1 -3 -3 -6 -6 -7 -5 -4
-1 -1 -2 -4 -5 -6 -5 -8
-2 0 -4 -6 -6 -8 -7 -11
-1 0 -5 -6 -6 -9 -7 -11
-1 -4 -4 -5 -2 -6 -5 -5
-1 -7 -3 -4 -2 -4 -3 -6
-2 -4 -1 -5 -3 -4 -4 -1
1 -3 -2 -5 -5 -5 -4 -1
2 -2 -2 -4 -4 -4 -2 2
-4 -1 -1 -3 -5 -5 -1 -1
-6 -2 1 -2 -5 -5 -2 -1
-8 -3 2 -1 -4 -4 -2 2
-6 -3 0 -1 -3 -5 -3 6
-5 -2 -2 -4 -4 -7 -6 3
-4 -3 -2 -5 -4 -6 -6 4
-4 -4 -3 -7 -6 -7 -6 -1
-3 -3 -1 -6 -6 -7 -3 -6
-4 -1 -2 -8 -8 -8 -5 -5
-8 -3 -2 -8 -10 -8 -4 2
-3 -1 -2 -8 -12 -11 -5 2
-4 1 -1 -7 -11 -12 -6 -2
-10 -2 2 -4 -7 -9 -4 -8
-5 -4 1 -6 -8 -10 -5 -2
-3 -4 -3 -9 -11 -14 -9 -8
-6 -4 -2 -9 -10 -11 -8 -2
-6 -4 -4 -11 -12 -11 -8 3
-8 -4 -3 -11 -11 -12 -8 3
-6 -3 -1 -12 -12 -11 -8 1
-5 -5 -2 -14 -14 -13 -8 2
-6 -8 -2 -12 -15 -13 -7 0
-4 -6 -1 -12 -15 -13 -7 -3
-2 -5 -3 -14 -17 -16 -9 -2
-1 -6 -3 -13 -16 -16 -9 -3
-1 -5 -3 -13 -16 -16 -10 -4
-2 -4 -4 -15 -16 -15 -9 2
-2 -3 -3 -15 -16 -14 -8 -1
-1 -1 -2 -16 -16 -15 -8 -4
-1 2 -2 -17 -18 -16 -9 -7
-1 5 0 -16 -17 -13 -8 -3
-2 5 0 -14 -16 -13 -6 -6
-2 10 1 -14 -16 -13 -6 -6
-2 12 2 -13 -17 -13 -6 -6
-1 11 4 -11 -15 -12 -5 -3
2 11 3 -12 -14 -13 -7 -3
1 7 3 -12 -13 -11 -8 -5
0 6 5 -11 -11 -10 -6 0
1 7 6 -11 -11 -9 -5 -2
3 7 6 -12 -14 -11 -6 -7
4 8 7 -13 -15 -12 -7 9
3 8 5 -13 -17 -14 -7 6
2 8 3 -14 -17 -14 -7 3
5 8 0 -14 -17 -13 -6 -1
6 6 0 -13 -15 -13 -6 -6
6 5 -3 -14 -15 -12 -6 -6
8 7 -5 -14 -14 -10 -5 -6
8 5 -7 -16 -15 -10 -5 -2
10 6 -9 -17 -15 -12 -5 4
10 6 -10 -19 -17 -12 -6 1
10 6 -12 -20 -19 -13 -7 0
11 3 -13 -19 -18 -15 -8 0
4 -2 -11 -17 -17 -14 -7 1
5 -3 -10 -16 -17 -13 -6 -2
8 -4 -13 -20 -20 -18 -10 -5
6 -6 -15 -24 -23 -20 -13 -3
6 -7 -15 -26 -26 -21 -14 -3
7 -7 -16 -28 -27 -22 -14 1
7 -9 -14 -28 -26 -23 -14 2
8 -11 -13 -28 -26 -23 -15 -5
5 -12 -12 -29 -29 -25 -17 -10
5 -12 -12 -27 -29 -26 -17 -10
5 -10 -12 -27 -31 -27 -17 -8
2 -10 -11 -27 -31 -28 -18 -12
2 -12 -12 -29 -33 -30 -21 -18
-3 -13 -12 -30 -33 -30 -21 -21
-6 -16 -11 -31 -34 -29 -21 -18
-4 -16 -11 -30 -32 -28 -20 -17
-7 -14 -11 -32 -33 -30 -21 -16
-7 -10 -11 -33 -35 -31 -23 -13
-8 -9 -11 -34 -36 -33 -23 -15
-8 -14 -12 -35 -37 -35 -24 -16
-5 -16 -11 -33 -36 -34 -24 -20
-4 -14 -12 -34 -38 -35 -27 -21
-7 -12 -13 -35 -38 -37 -27 -22
-7 -11 -13 -35 -37 -37 -28 -25
-10 -14 -13 -35 -37 -35 -27 -20
-10 -19 -11 -33 -36 -32 -24 -16
-6 -19 -10 -32 -33 -31 -22 -10
-7 -19 -11 -34 -35 -32 -23 -15
-8 -17 -10 -33 -34 -32 -22 -19
-6 -15 -11 -33 -35 -33 -23 -13
-5 -13 -13 -34 -35 -35 -25 -15
-5 -13 -11 -33 -36 -34 -25 -18
-9 -18 -11 -32 -34 -34 -24 -19
-8 -18 -12 -33 -34 -33 -26 -12
-7 -19 -13 -35 -36 -34 -26 -14
-7 -20 -11 -35 -36 -33 -25 -20
-7 -18 -11 -35 -35 -34 -24 -14
-9 -19 -11 -35 -35 -34 -25 -22
-11 -22 -9 -32 -33 -34 -24 -17
-10 -26 -7 -25 -30 -34 -25 -7
-9 -31 -3 -15 -27 -34 -29 -10
-8 -31 8 4 -15 -31 -32 -26
-12 -29 20 22 -1 -27 -34 -35
-17 -22 37 43 18 -16 -30 -29
-15 -13 58 72 42 2 -21 -21
-9 -10 78 99 69 24 -7 -16
-5 -1 96 119 93 47 7 -11
-5 9 121 147 124 76 29 13
6 19 127 167 154 110 55 26
26 37 112 162 170 138 80 53
48 54 85 142 177 163 110 79
72 74 48 112 183 196 148 105
91 104 1 74 193 238 195 140
102 125 -54 23 188 266 229 169
114 152 -117 -39 169 284 264 196
128 185 -181 -89 165 315 305 241
135 208 -243 -143 148 331 334 270
138 211 -292 -208 102 310 333 279
143 181 -325 -253 44 255 299 264
142 139 -337 -282 -20 177 238 231
137 91 -333 -290 -70 100 165 188
129 52 -324 -293 -116 28 99 134
107 28 -298 -288 -153 -33 53 96
72 17 -259 -276 -186 -91 6 67
43 8 -217 -260 -210 -137 -32 33
29 1 -182 -235 -211 -151 -50 14
20 -3 -155 -203 -188 -141 -56 -1
12 -5 -128 -173 -163 -126 -55 -11
6 -4 -106 -146 -139 -111 -54 -14
-1 -11 -83 -122 -120 -97 -50 -19
-7 -16 -65 -103 -103 -88 -47 -20
-8 -17 -55 -93 -96 -84 -49 -19
-11 -19 -47 -84 -90 -79 -48 -18
-9 -22 -36 -73 -81 -73 -46 -28
-11 -22 -29 -65 -73 -69 -46 -32
-12 -23 -22 -56 -65 -63 -43 -36
-14 -24 -16 -49 -57 -57 -41 -38
-19 -25 -10 -45 -50 -54 -40 -33
-19 -25 -7 -42 -47 -52 -39 -28
-15 -22 -5 -42 -48 -52 -40 -33
-17 -25 -4 -41 -49 -53 -41 -36
-16 -27 -1 -37 -47 -51 -40 -34
-17 -28 -1 -36 -47 -53 -41 -30
-19 -27 1 -34 -46 -52 -42 -27
-18 -25 0 -34 -46 -54 -42 -32
-20 -24 2 -33 -44 -52 -41 -29
-17 -24 3 -32 -42 -49 -40 -33
-15 -24 1 -34 -42 -50 -42 -32
-15 -24 2 -33 -43 -50 -41 -37
-15 -26 6 -31 -39 -46 -38 -39
-14 -27 7 -31 -41 -47 -38 -37
-14 -25 5 -32 -43 -48 -40 -34
-17 -23 5 -28 -42 -47 -38 -27
-17 -26 5 -27 -41 -48 -39 -31
-14 -26 4 -28 -41 -49 -39 -28
-17 -25 5 -27 -39 -48 -39 -32
-16 -25 5 -27 -39 -48 -39 -25
-16 -24 6 -24 -36 -44 -37 -23
-15 -26 7 -23 -35 -43 -35 -33
-14 -25 8 -24 -35 -42 -35 -26
-16 -24 11 -21 -33 -39 -32 -15
-19 -24 11 -20 -33 -39 -33 -23
-16 -22 10 -19 -33 -40 -33 -26
-14 -23 9 -18 -32 -41 -35 -30
-14 -23 9 -18 -32 -41 -36 -32
-13 -21 9 -17 -29 -40 -36 -36
-13 -21 10 -17 -28 -40 -35 -32
-14 -22 11 -16 -27 -37 -35 -31
-13 -27 15 -12 -23 -34 -30 -29
-13 -27 15 -11 -22 -32 -29 -26
-11 -23 16 -9 -22 -33 -31 -26
-13 -23 16 -7 -21 -31 -31 -27
-14 -24 17 -5 -20 -32 -29 -24
-14 -23 18 -1 -16 -30 -29 -16
-12 -22 18 0 -14 -28 -29 -16
-10 -22 17 2 -13 -27 -28 -19
-10 -22 19 3 -10 -25 -27 -25
-12 -24 21 5 -8 -24 -26 -18
-8 -24 23 8 -5 -21 -23 -17
-9 -23 24 12 -3 -18 -22 -21
-9 -21 26 14 -2 -20 -23 -18
-10 -19 28 19 1 -16 -22 -13
-11 -16 30 23 3 -16 -22 -18
-10 -15 30 28 8 -13 -21 -19
-8 -11 31 31 11 -12 -20 -22
-11 -10 32 36 16 -7 -18 -17
-9 -10 35 41 21 -3 -16 -18
-9 -11 38 46 26 0 -13 -18
-8 -11 40 51 29 4 -11 -19
-5 -9 44 58 35 10 -8 -15
-2 -9 46 64 40 13 -7 -8
-1 -8 50 73 45 17 -5 -9
3 -5 53 82 53 21 -2 -14
0 -6 56 92 62 28 2 -3
3 -3 61 100 72 33 3 -1
2 1 64 109 80 40 7 0
2 4 67 117 90 46 12 -9
-1 5 72 129 100 56 18 1
2 6 74 135 107 62 21 7
8 10 77 143 113 69 25 12
11 12 78 150 122 75 30 14
10 13 81 159 129 84 34 14
12 15 84 168 137 90 40 16
14 18 84 174 144 95 43 17
17 22 85 179 150 100 47 20
18 27 86 182 156 106 49 22
17 27 87 183 159 109 52 27
17 28 87 186 163 113 56 31
18 31 86 185 165 116 60 31
18 31 87 184 164 119 62 34
20 32 86 183 164 118 63 38
18 34 83 180 162 117 62 42
21 35 80 176 156 113 61 34
25 38 77 172 154 111 60 40
23 38 75 169 152 110 58 38
20 34 76 168 153 112 61 35
21 33 74 162 149 108 60 36
20 34 71 155 145 106 58 39
22 36 69 150 141 103 57 34
22 35 65 143 134 99 55 31
22 34 63 136 126 93 52 29
21 34 61 131 121 90 51 26
17 31 59 128 114 86 49 33
17 30 56 122 110 82 47 35
15 29 54 116 105 78 45 25
10 26 52 110 100 75 44 28
8 28 49 103 97 71 42 24
10 25 46 94 91 67 39 24
11 26 44 86 85 62 36 22
13 27 41 80 78 58 34 18
8 23 40 75 74 55 35 20
9 21 36 68 67 49 32 20
11 20 32 60 58 43 27 22
15 19 27 53 51 37 23 15
11 16 26 50 49 36 23 19
6 15 24 46 46 33 22 19
8 13 20 39 42 29 20 13
8 11 19 33 39 28 18 10
5 12 18 26 33 23 15 6
5 12 16 23 29 23 15 10
6 13 13 18 24 17 12 5
7 10 10 12 18 13 9 3
8 9 10 9 16 11 9 7
6 5 9 8 13 8 6 11
5 1 7 6 11 7 4 12
0 1 7 4 11 6 4 6
-4 -1 7 1 8 4 4 0
-5 -1 6 -2 8 3 3 -1
-6 1 5 -5 6 1 1 2
-4 3 2 -9 1 -2 -1 8
-2 3 2 -10 0 -3 -1 2
-5 -1 2 -10 -2 -5 -2 -3
-3 0 2 -12 -4 -6 -3 -5
0 1 0 -14 -4 -8 -5 -6
0 0 -1 -15 -5 -11 -8 -10
2 0 -3 -16 -5 -10 -8 -10
1 3 -3 -18 -7 -11 -8 -8
-1 1 -4 -19 -7 -11 -8 -9
-1 0 -3 -18 -6 -10 -6 -9
-1 -3 -3 -18 -5 -9 -5 -4
1 -6 -2 -17 -6 -9 -4 -4
2 -6 -3 -17 -6 -10 -5 3
2 -4 -3 -16 -6 -10 -5 -3
1 -2 -3 -14 -5 -9 -6 -7
1 -3 -3 -12 -4 -8 -5 -3
-2 -2 -5 -12 -3 -7 -6 7
-4 -2 -1 -11 -1 -5 -4 -3
-7 -5 -1 -11 1 -4 -4 -2
-4 -2 -1 -10 0 -5 -3 -3
-1 0 -2 -12 -2 -6 -6 -6
-3 -5 0 -9 0 -6 -2 -1
-4 -6 1 -7 3 -3 -1 -3
-2 -1 0 -7 1 -4 -2 -1
-2 0 0 -6 2 -3 -2 -8
0 1 1 -5 3 -4 -1 -6
-1 0 -1 -5 3 -4 -3 -6
-3 1 1 -4 4 -2 -2 -1
-4 3 0 -4 6 -2 -2 -7
-4 1 1 -5 5 -2 -2 -7
-3 -2 4 -3 8 0 1 -5
-4 -5 5 -2 7 0 1 -3
-5 -5 4 0 7 1 2 1
-10 -4 8 3 9 3 5 6
-8 -2 4 2 6 1 2 2
0 0 3 0 5 -1 1 -3
0 0 1 0 7 -1 0 -3
-1 -2 3 0 6 0 1 -3
-1 0 3 -2 7 0 1 4
-2 2 2 -2 7 -1 1 -5
0 1 1 -3 5 -1 1 -5
-1 -1 2 -3 4 -2 1 1
-4 0 1 -5 2 -4 0 -9
-3 -1 3 -4 1 -4 0 -3
-4 -3 3 -4 2 -4 -2 -6
-7 -5 4 -3 2 -4 -1 -7
-5 -5 3 -3 3 -4 -1 -1
-4 -4 4 -4 3 -5 -1 -6
-2 -1 2 -7 2 -6 -3 -7
-3 0 3 -7 3 -6 -2 -1
-5 -3 3 -7 3 -4 -2 2
-4 -1 3 -8 1 -6 -2 5
-6 -2 3 -8 0 -7 -3 -1
-7 -7 5 -5 0 -7 -2 -4
-6 -6 5 -7 0 -7 -2 1
-6 -5 4 -8 -1 -9 -4 0
-7 -3 3 -9 -3 -10 -6 -5
-4 -2 3 -10 -3 -11 -5 -6
-2 -2 2 -12 -4 -11 -6 -4
-1 -3 5 -10 -1 -9 -3 -9
1 -1 4 -11 -1 -8 -3 -9
7 1 2 -13 -3 -10 -5 -9
8 5 4 -12 -2 -8 -4 -5
0 6 8 -8 0 -7 -2 2
-7 10 10 -6 1 -6 -1 -1
-3 14 9 -7 0 -7 -1 4
-4 13 10 -6 0 -5 -1 5
-4 10 12 -6 1 -4 1 3
0 8 13 -8 0 -5 0 -2
2 11 13 -8 0 -6 -1 1
-4 12 16 -6 1 -4 0 5
-1 10 14 -7 -1 -6 0 -3
4 14 12 -9 -4 -8 -3 -5
0 17 13 -7 -5 -7 -2 3
-4 14 13 -7 -4 -6 -1 1
-1 12 11 -7 -3 -6 0 -2
1 13 7 -8 -4 -6 -2 -2
0 11 6 -8 -5 -4 -1 -3
1 11 6 -8 -4 -3 0 1
1 11 3 -9 -4 -4 0 6
2 10 0 -11 -5 -4 0 7
5 10 -1 -13 -6 -7 0 0
5 5 -1 -12 -6 -6 -1 -3
7 5 -2 -12 -8 -6 -2 8
8 4 -3 -14 -9 -8 -5 1
7 1 -3 -14 -9 -10 -4 -5
3 -3 -2 -13 -9 -9 -4 1
2 -6 -4 -18 -14 -13 -5 -3
1 -7 -4 -20 -15 -13 -7 -6
-2 -10 -4 -21 -15 -14 -7 1
0 -13 -7 -25 -21 -17 -10 -9
-1 -12 -7 -25 -21 -20 -10 -11
-1 -14 -5 -25 -22 -21 -11 -11
-3 -16 -3 -23 -22 -20 -11 -8
-4 -13 -2 -22 -20 -18 -11 -2
-4 -13 -4 -23 -22 -21 -13 0
-3 -14 -3 -24 -23 -21 -14 -9
-5 -13 -2 -24 -22 -21 -14 -13
-11 -12 0 -25 -22 -20 -14 -14
-12 -14 0 -25 -22 -21 -14 -15
-13 -14 0 -27 -25 -22 -17 -13
-15 -16 1 -27 -26 -23 -16 -8
-13 -18 0 -28 -27 -25 -16 -10
-16 -19 -2 -29 -29 -25 -17 -11
-12 -17 -1 -29 -29 -25 -18 -20
-14 -17 -1 -28 -29 -26 -18 -20
-16 -18 -1 -28 -29 -26 -17 -18
-14 -17 1 -27 -28 -25 -16 -17
-14 -15 0 -29 -29 -25 -18 -15
-16 -16 0 -30 -29 -25 -16 -17
-13 -19 1 -29 -28 -22 -17 -13
-16 -17 0 -30 -31 -26 -17 -13
-15 -13 -3 -33 -33 -27 -20 -20
-15 -13 -3 -31 -33 -28 -20 -20
-17 -14 -2 -30 -33 -27 -20 -18
-19 -16 -1 -28 -31 -26 -18 -16
-18 -16 -1 -29 -30 -24 -19 -6
-17 -17 0 -28 -29 -25 -18 -6
-13 -19 -1 -30 -29 -25 -18 -10
-16 -21 1 -29 -29 -24 -18 -12
-19 -22 1 -29 -30 -22 -16 -14
-20 -22 0 -30 -31 -26 -17 -18
-20 -24 2 -29 -33 -26 -19 -17
-16 -26 3 -25 -34 -28 -21 -16
-16 -31 6 -17 -30 -28 -22 -23
-18 -33 14 -1 -22 -30 -27 -22
-18 -28 26 21 -9 -25 -29 -31
-23 -26 45 42 8 -14 -25 -31
-22 -15 69 69 30 1 -17 -23
-21 -10 89 98 56 20 -6 -19
-23 -4 111 123 83 45 10 -8
-17 8 134 147 110 69 27 7
-5 20 144 168 140 99 48 17
11 30 133 170 164 131 74 46
34 47 105 153 175 159 102 60
57 65 62 122 183 189 137 85
85 97 9 87 193 230 180 122
101 126 -48 44 200 264 218 158
114 148 -111 -12 188 287 250 186
130 176 -175 -57 187 317 290 220
137 199 -234 -100 184 345 326 252
134 209 -282 -158 153 341 337 275
141 194 -320 -212 98 297 315 271
146 156 -338 -259 20 213 256 230
142 106 -337 -277 -41 131 185 181
135 55 -323 -275 -83 61 118 136
122 24 -300 -274 -127 -5 65 95
95 12 -266 -268 -167 -63 22 72
60 3 -222 -257 -199 -114 -16 40
34 -4 -186 -237 -212 -138 -39 17
20 -6 -156 -207 -196 -131 -43 15
9 -6 -128 -175 -170 -117 -44 3
8 -3 -106 -151 -149 -106 -47 -12
0 -4 -83 -127 -130 -94 -47 -14
-12 -10 -64 -108 -114 -83 -43 -14
-14 -17 -51 -95 -104 -78 -43 -23
-11 -19 -43 -88 -100 -76 -46 -23
-13 -19 -34 -77 -93 -71 -44 -18
-16 -20 -25 -67 -84 -68 -43 -23
-22 -23 -17 -59 -77 -62 -42 -29
-23 -25 -9 -51 -69 -56 -39 -26
-24 -28 -3 -45 -61 -51 -37 -28
-25 -28 0 -40 -58 -49 -36 -30
-23 -26 2 -39 -57 -49 -38 -29
-22 -28 4 -39 -56 -48 -37 -30
-22 -27 6 -35 -54 -48 -37 -26
-21 -22 7 -34 -53 -47 -37 -28
-24 -25 9 -31 -52 -46 -37 -31
-24 -28 10 -28 -49 -46 -36 -27
-25 -30 11 -28 -48 -45 -37 -32
-27 -30 11 -26 -48 -44 -37 -33
-28 -31 12 -25 -44 -42 -35 -22
-29 -33 14 -24 -42 -42 -34 -26
-27 -31 16 -24 -40 -40 -34 -29
-27 -27 16 -24 -43 -41 -33 -20
-26 -28 15 -23 -42 -42 -34 -24
-24 -28 18 -20 -40 -40 -32 -25
-24 -28 18 -20 -40 -40 -33 -28
-24 -28 17 -19 -39 -41 -33 -30
-23 -27 16 -20 -38 -41 -34 -29
-22 -27 15 -20 -38 -41 -35 -31
-21 -26 14 -20 -37 -40 -36 -30
-23 -26 16 -18 -34 -39 -34 -25
-28 -26 17 -18 -35 -38 -34 -32
-29 -25 20 -15 -33 -37 -30 -29
-30 -27 21 -12 -30 -35 -29 -23
-25 -28 22 -11 -32 -34 -29 -23
-23 -27 22 -10 -30 -33 -29 -24
-25 -27 23 -7 -28 -33 -29 -21
-24 -25 23 -7 -27 -32 -30 -24
-23 -24 21 -7 -28 -32 -32 -28
-21 -26 22 -6 -27 -31 -30 -27
-22 -26 23 -4 -25 -31 -29 -24
-21 -26 23 -5 -25 -30 -30 -23
-20 -24 23 -4 -25 -29 -28 -25
-18 -22 24 -2 -23 -30 -28 -26
-20 -24 27 1 -21 -27 -26 -21
-18 -22 28 5 -18 -25 -26 -21
-19 -20 27 7 -16 -26 -27 -21
-21 -21 29 10 -13 -24 -26 -23
-19 -19 30 12 -10 -21 -25 -21
-19 -20 31 14 -6 -19 -25 -18
-20 -18 32 17 -4 -19 -24 -19
-18 -17 33 19 -2 -17 -24 -24
-21 -19 39 24 0 -12 -21 -20
-19 -19 39 28 3 -12 -19 -20
-16 -18 41 32 7 -10 -18 -2
-13 -17 42 37 8 -7 -17 -9
-13 -16 45 44 14 -5 -15 -18
-13 -16 47 48 18 -2 -14 -5
-11 -14 48 54 22 0 -15 -9
-10 -13 52 60 29 4 -12 -15
-10 -13 53 65 35 7 -10 -10
-10 -10 57 72 40 12 -8 -12
-12 -8 62 79 46 17 -4 -7
-13 -9 65 88 52 21 -3 -6
-11 -4 70 97 59 25 0 -12
-9 0 72 105 64 29 2 -12
-9 -1 76 116 72 34 5 -10
-7 1 81 126 81 41 8 -5
-6 1 85 137 90 49 12 -5
-1 5 88 145 98 55 16 5
-1 7 91 155 107 61 20 3
1 7 95 163 113 69 24 4
3 11 98 171 121 76 30 17
2 12 100 179 128 82 34 14
6 15 103 186 135 89 38 13
6 19 104 193 140 95 43 21
8 20 103 198 146 98 46 27
14 24 101 199 149 101 47 21
13 28 102 203 154 106 50 22
12 30 103 204 158 112 55 28
12 33 103 205 161 115 57 32
13 34 102 204 160 115 58 38
16 38 100 201 160 116 61 41
19 39 98 200 159 115 61 42
17 38 99 198 158 116 63 34
16 39 97 196 156 117 63 36
16 38 94 191 153 114 61 35
15 37 91 188 151 112 60 31
12 38 89 183 149 111 60 39
8 37 88 179 147 110 60 39
13 39 84 173 143 105 58 31
17 38 80 167 138 102 55 31
13 38 78 161 132 99 55 31
13 38 77 156 128 95 54 31
14 37 73 150 121 91 51 27
14 34 71 144 116 88 50 31
15 31 68 137 111 84 48 31
11 28 64 130 105 80 45 35
13 30 60 121 99 74 42 29
15 30 55 113 91 70 39 23
9 28 52 105 86 65 37 27
6 27 50 97 81 63 36 29
4 26 48 91 75 60 35 19
7 24 44 83 70 55 34 20
11 24 39 75 62 50 30 19
11 24 34 67 55 44 27 16
9 22 33 62 52 41 27 18
3 19 30 57 47 39 25 21
3 18 27 50 41 34 22 16
5 16 24 44 37 32 20 16
4 14 21 37 33 27 18 15
6 15 17 29 26 23 14 9
9 13 15 24 22 20 13 10
7 10 13 19 17 16 11 14
6 9 13 17 14 14 10 12
4 10 10 12 9 11 8 10
3 11 8 8 4 6 5 4
3 11 5 6 3 5 3 4
-3 6 6 4 1 4 3 1
-5 3 5 2 -2 4 2 3
-3 5 2 -3 -4 1 1 0
-5 5 0 -7 -9 -1 -2 -1
-4 4 1 -8 -11 -3 -2 -2
-6 1 2 -7 -10 -3 -1 -4
-4 0 2 -8 -13 -4 -2 1
-5 -1 3 -9 -14 -5 -2 1
-10 -1 2 -9 -15 -6 -3 -3
-6 -1 -1 -11 -17 -8 -6 -8
-1 0 -3 -14 -19 -9 -8 -6
-4 0 -3 -14 -19 -10 -8 -4
-3 -1 -3 -14 -18 -11 -8 -5
-1 -3 -3 -16 -21 -11 -9 -10
-2 -2 -3 -16 -22 -11 -8 -6
-2 -1 -3 -16 -22 -12 -7 -9
-6 -2 -2 -15 -22 -11 -8 -8
-6 -3 -1 -13 -22 -10 -7 -6
-5 -3 0 -11 -20 -10 -6 -2
-2 -5 -1 -11 -20 -10 -7 -5
1 -3 -1 -12 -20 -10 -8 -7
0 -4 -1 -11 -19 -10 -8 -6
-1 -5 -1 -11 -18 -10 -8 -6
-1 -5 1 -11 -19 -8 -7 6
-4 -6 1 -9 -19 -7 -6 4
-4 -6 2 -8 -17 -6 -4 -3
-5 -6 2 -6 -15 -5 -4 1
-5 -5 1 -6 -18 -6 -5 1
-3 -2 0 -5 -18 -8 -5 -1
-1 -4 0 -5 -17 -8 -6 -1
-1 -3 0 -5 -16 -7 -6 -6
-1 -2 1 -4 -13 -5 -4 -8
-5 -1 0 -4 -14 -7 -6 4
-5 1 1 -5 -16 -7 -7 4
-2 -1 3 -4 -14 -5 -6 -1
-1 -6 3 -3 -13 -6 -5 -3
-1 -4 4 -2 -13 -5 -4 -2
-3 -3 3 -3 -15 -6 -5 0
-2 -2 2 -4 -15 -8 -6 -2
-2 -2 2 -2 -14 -6 -6 -3
-5 -2 2 -2 -13 -5 -6 8
-4 1 2 -2 -13 -5 -5 -1
-2 2 1 -5 -14 -7 -7 1
-3 2 1 -6 -15 -7 -7 2
-5 1 3 -3 -13 -5 -4 -4
-5 -1 4 -3 -13 -4 -4 -6
-7 -1 4 -3 -13 -4 -4 -3
-5 1 3 -5 -16 -6 -6 0
-5 -2 2 -6 -17 -8 -6 5
-4 -2 2 -5 -16 -7 -6 5
-2 -1 1 -7 -17 -8 -8 -6
-3 -1 -1 -9 -19 -10 -9 -5
-4 -2 1 -9 -18 -10 -8 -7
-2 -3 0 -10 -19 -9 -8 -10
1 0 -2 -13 -22 -12 -9 -8
2 1 -2 -12 -22 -13 -10 0
-4 1 -1 -12 -22 -12 -9 0
-7 1 1 -11 -22 -10 -8 1
-13 -3 2 -9 -20 -10 -6 6
-15 -3 2 -9 -20 -10 -7 3
-4 -2 -1 -12 -22 -12 -9 -3
-3 -2 -1 -13 -24 -13 -10 -4
-5 -1 -1 -14 -24 -14 -10 -4
-2 1 -2 -16 -25 -13 -11 -4
-1 4 -1 -16 -25 -13 -9 -7
4 7 -2 -16 -25 -15 -10 -9
4 10 -2 -17 -26 -16 -11 -3
5 12 -2 -16 -27 -16 -10 -2
3 10 4 -10 -20 -11 -7 -5
1 14 5 -10 -19 -10 -7 -2
4 15 4 -11 -21 -9 -6 1
3 16 4 -11 -20 -10 -7 1
2 14 3 -13 -21 -11 -9 -1
5 13 2 -14 -21 -12 -10 -3
5 10 4 -13 -21 -11 -8 -2
6 12 5 -12 -21 -12 -8 -4
6 14 7 -10 -20 -11 -8 -5
4 12 6 -10 -21 -11 -7 -6
5 12 4 -10 -19 -10 -6 -2
8 14 0 -11 -20 -10 -7 -1
7 14 -2 -13 -21 -10 -8 -6
6 15 -4 -13 -20 -10 -6 1
7 14 -6 -14 -19 -9 -7 4
5 11 -6 -13 -18 -7 -5 6
4 11 -6 -13 -18 -7 -4 0
9 6 -9 -16 -21 -11 -7 -2
12 4 -12 -18 -23 -14 -10 -6
13 4 -12 -17 -24 -13 -9 -5
13 3 -12 -17 -25 -14 -9 -4
12 2 -9 -16 -23 -14 -9 1
10 2 -12 -21 -27 -18 -13 -5
10 1 -15 -25 -30 -20 -15 -6
9 -3 -17 -28 -30 -23 -16 -4
9 -7 -18 -29 -33 -23 -18 -6
9 -6 -18 -31 -36 -25 -19 -7
7 -6 -19 -31 -35 -25 -20 -9
3 -12 -18 -31 -37 -27 -20 -10
4 -13 -16 -29 -38 -27 -19 -10
3 -12 -17 -29 -39 -28 -21 -10
4 -12 -17 -30 -38 -28 -20 -5
3 -9 -16 -30 -39 -28 -21 -3
-6 -10 -14 -29 -37 -26 -19 -4
-11 -12 -10 -27 -34 -25 -18 -9
-11 -12 -9 -27 -34 -24 -19 -11
-9 -13 -11 -29 -37 -27 -20 -13
-4 -12 -14 -32 -40 -30 -23 -13
-5 -14 -15 -33 -42 -32 -25 -12
-8 -13 -16 -33 -44 -33 -25 -14
-9 -10 -14 -33 -43 -32 -24 -11
-8 -14 -14 -34 -42 -32 -24 -9
-5 -14 -14 -33 -42 -33 -26 -19
-5 -14 -15 -34 -41 -33 -26 -18
-10 -13 -14 -33 -39 -32 -25 -16
-9 -10 -15 -35 -39 -32 -26 -9
-8 -11 -15 -36 -40 -33 -26 -3
-7 -15 -14 -34 -38 -31 -24 -17
-10 -15 -13 -33 -35 -30 -23 -16
-13 -15 -14 -33 -36 -32 -24 -11
-9 -14 -13 -33 -36 -33 -24 -17
-10 -14 -13 -33 -34 -32 -24 -18
-11 -14 -14 -33 -36 -34 -26 -18
-10 -13 -13 -33 -35 -33 -25 -17
-10 -13 -14 -34 -33 -33 -26 -20
-11 -13 -15 -35 -34 -32 -27 -22
-9 -14 -14 -35 -34 -33 -26 -22
-11 -14 -15 -36 -35 -36 -29 -18
-10 -13 -15 -36 -34 -36 -28 -19
-11 -20 -13 -31 -33 -34 -29 -16
-13 -21 -10 -25 -31 -35 -30 -21
-12 -18 -6 -15 -26 -36 -35 -27
-13 -22 6 6 -13 -32 -36 -32
-19 -18 22 28 3 -22 -32 -30
-22 -9 44 55 26 -7 -23 -25
-18 -7 64 84 50 10 -15 -20
-11 -2 87 113 77 33 0 -13
-9 6 110 139 106 57 17 2
-2 14 130 166 138 87 37 17
14 28 129 176 164 116 61 34
35 44 104 159 175 140 85 54
56 64 67 130 182 167 115 82
86 92 16 93 189 200 153 117
108 117 -39 51 197 232 189 150
120 141 -101 -4 186 253 220 179
137 171 -169 -56 179 278 256 202
152 196 -229 -95 181 306 293 239
159 208 -284 -152 155 304 304 258
161 192 -326 -208 103 263 284 254
159 157 -344 -255 32 188 232 228
155 111 -347 -283 -35 105 164 177
147 61 -338 -291 -82 36 100 131
133 29 -320 -292 -124 -25 50 94
104 16 -289 -286 -156 -74 9 62
65 8 -245 -274 -185 -118 -24 30
40 2 -206 -256 -198 -144 -48 14
24 0 -175 -226 -185 -142 -54 9
18 0 -147 -194 -162 -129 -55 -8
8 0 -124 -165 -138 -116 -55 -18
3 -2 -101 -141 -118 -103 -55 -24
1 -3 -83 -122 -102 -94 -53 -18
-5 -8 -68 -106 -89 -86 -52 -16
-11 -11 -56 -94 -80 -80 -50 -28
-14 -15 -45 -83 -72 -75 -50 -23
-18 -20 -36 -74 -66 -72 -48 -19
-16 -22 -29 -64 -57 -65 -47 -23
-17 -22 -22 -56 -50 -61 -45 -26
-22 -26 -16 -49 -44 -56 -43 -26
-22 -27 -13 -45 -39 -53 -42 -28
-22 -26 -9 -43 -37 -51 -41 -26
-22 -27 -6 -40 -36 -50 -39 -24
-20 -26 -4 -37 -36 -51 -40 -23
-20 -28 -3 -36 -36 -52 -39 -28
-23 -27 0 -34 -34 -50 -38 -27
-20 -24 -1 -33 -33 -51 -40 -31
-22 -26 -1 -33 -33 -51 -44 -30
-21 -27 0 -31 -31 -50 -43 -31
-24 -26 1 -31 -30 -48 -43 -32
-24 -25 0 -31 -30 -48 -44 -30
-21 -22 0 -32 -30 -49 -44 -32
-22 -25 3 -29 -29 -47 -39 -26
-23 -25 5 -28 -27 -46 -38 -32
-22 -27 5 -27 -27 -46 -37 -26
-21 -27 5 -26 -27 -45 -38 -23
-19 -25 7 -23 -24 -44 -36 -22
-21 -27 6 -24 -22 -43 -38 -23
-22 -29 7 -22 -21 -42 -36 -19
-25 -30 7 -21 -18 -40 -35 -18
-25 -27 5 -22 -19 -42 -36 -20
-23 -25 7 -22 -19 -41 -36 -25
-26 -23 6 -22 -19 -43 -35 -27
-28 -21 5 -24 -20 -43 -36 -27
-19 -22 6 -21 -18 -42 -35 -27
-17 -22 7 -19 -17 -41 -36 -30
-22 -24 10 -15 -14 -38 -33 -28
-25 -22 12 -12 -10 -35 -33 -26
-21 -21 9 -13 -12 -37 -35 -27
-20 -19 7 -15 -12 -38 -37 -30
-20 -19 7 -13 -11 -39 -37 -31
-19 -20 9 -11 -10 -36 -37 -31
-16 -24 12 -8 -8 -34 -32 -26
-19 -25 13 -5 -5 -32 -30 -24
-20 -23 14 -3 -6 -32 -30 -27
-20 -22 16 -1 -6 -30 -29 -19
-21 -25 16 2 -5 -30 -28 -16
-22 -22 17 5 -2 -28 -27 -21
-20 -18 17 7 -2 -28 -28 -29
-23 -17 18 8 0 -25 -28 -22
-22 -19 20 12 5 -22 -24 -20
-16 -18 21 14 6 -20 -25 -21
-12 -17 20 15 5 -20 -24 -15
-15 -18 24 21 10 -17 -22 -14
-15 -20 26 25 12 -15 -21 -21
-16 -18 28 30 15 -12 -21 -22
-18 -17 30 36 19 -9 -19 -19
-17 -15 32 41 24 -7 -19 -20
-12 -14 35 46 28 -5 -19 -15
-12 -15 36 50 31 -3 -18 -16
-11 -14 40 57 38 3 -15 -19
-11 -11 44 63 44 8 -13 -17
-11 -11 47 71 50 13 -8 -14
-8 -9 49 79 55 16 -7 -11
-6 -10 52 87 59 20 -4 -9
-7 -9 56 96 66 27 -1 -3
-6 -7 59 106 75 32 4 -8
-7 -6 63 118 84 39 7 -8
-7 -4 67 128 93 46 12 1
-2 -1 68 135 100 51 14 1
0 -1 71 143 109 57 18 2
1 3 76 154 119 67 22 7
4 7 77 160 126 72 27 10
5 9 78 168 134 79 30 15
8 12 80 175 139 85 35 14
8 14 82 181 145 91 40 19
12 17 82 188 152 97 44 22
14 21 83 190 157 101 45 19
13 22 83 192 161 104 48 25
14 26 82 193 164 108 52 27
13 29 83 192 167 111 54 34
13 31 84 192 169 116 57 30
12 32 83 193 170 118 62 30
10 33 82 191 169 117 62 34
10 33 82 189 168 117 63 40
14 37 78 183 164 114 60 38
18 36 73 178 159 109 58 29
16 35 72 174 157 108 57 37
16 32 71 169 154 105 56 40
13 32 68 164 152 103 55 30
14 35 66 158 148 101 54 27
12 35 64 153 144 98 53 28
12 35 63 148 140 97 53 33
11 34 59 141 133 93 50 31
9 33 57 135 127 89 49 34
9 32 57 132 123 86 48 32
11 32 50 123 116 79 44 23
9 34 46 114 109 74 39 22
8 32 44 107 103 71 37 22
7 27 40 100 97 67 36 22
9 24 39 94 93 64 36 26
8 26 35 86 87 59 32 22
3 24 33 80 82 56 32 22
0 23 32 74 76 53 30 22
2 24 28 66 69 47 27 24
3 23 28 61 64 44 26 18
5 21 24 55 60 38 24 20
4 15 21 50 57 35 21 16
8 13 19 43 52 32 19 15
7 12 13 36 45 27 16 15
4 11 13 32 42 25 15 7
0 14 12 27 39 23 13 10
-2 17 7 21 34 18 11 9
-4 12 7 17 31 16 10 4
-4 8 7 16 29 15 10 4
-2 8 5 11 23 11 7 1
-7 7 6 10 23 10 8 4
-12 7 5 7 21 8 5 0
-9 3 4 3 17 5 3 0
-5 6 1 0 14 2 1 0
-3 5 -2 -3 12 0 -1 -2
-3 3 -3 -6 9 -3 -4 -6
-2 4 -4 -9 6 -6 -5 2
-3 1 -5 -12 2 -8 -8 -4
-3 0 -4 -12 2 -9 -7 -4
-2 4 -3 -11 0 -10 -6 0
-1 8 -5 -12 -1 -12 -8 -3
-9 3 -3 -12 2 -11 -9 -7
-13 -2 -2 -11 3 -10 -8 -4
-5 0 -4 -12 3 -9 -8 -7
0 4 -3 -11 6 -8 -7 0
-7 1 -4 -13 3 -10 -8 -4
-9 -3 -4 -13 2 -10 -8 -8
-9 -5 -4 -12 2 -9 -8 -11
-8 -4 -3 -11 1 -10 -9 -7
-9 -1 -3 -10 2 -9 -8 -7
-10 0 -5 -11 0 -11 -8 -8
-7 0 -7 -11 1 -11 -10 -13
-5 -1 -6 -11 2 -10 -10 -13
-8 -4 -6 -11 3 -10 -9 -14
-11 1 -3 -7 6 -7 -7 -13
-14 0 -2 -8 6 -7 -6 -6
-10 -3 0 -5 7 -5 -4 -4
-6 -3 -2 -7 5 -7 -6 -3
-7 -4 -1 -5 5 -7 -6 -4
-7 -3 -1 -4 5 -6 -6 -7
-6 -2 -1 -4 4 -8 -6 -13
-13 -2 -2 -3 5 -7 -6 -11
-14 0 1 -2 7 -6 -5 -8
-11 0 -1 -3 5 -7 -7 -12
-11 -2 0 -2 6 -8 -6 -13
-7 3 0 -2 9 -3 -5 -8
-3 3 -2 -3 7 -6 -6 -6
-4 3 0 -1 7 -5 -5 -12
-1 4 -1 -2 6 -6 -8 -18
-2 6 -1 -3 5 -6 -7 -14
-5 3 -3 -4 4 -7 -7 -10
-5 1 -3 -3 4 -7 -6 -7
-1 0 -2 -4 3 -8 -8 -13
1 1 -3 -6 3 -8 -8 -15
-7 2 -2 -4 5 -6 -6 -15
-9 5 0 -3 7 -4 -4 -11
-10 6 2 -3 7 -4 -3 -5
-7 6 -1 -5 4 -6 -5 -4
-6 6 -2 -6 3 -6 -5 -4
-11 5 1 -4 5 -5 -4 -9
-13 2 1 -5 3 -7 -4 -5
-12 2 1 -5 3 -7 -6 -15
-14 2 0 -7 2 -9 -7 -15
-9 2 0 -7 1 -8 -6 -13
-11 0 -1 -8 1 -8 -6 -8
-17 -3 1 -7 0 -7 -5 -12
-13 0 -1 -8 -1 -9 -5 -10
-11 4 -2 -10 -4 -11 -9 -11
-8 8 -5 -14 -8 -15 -12 -11
-8 9 -3 -13 -6 -14 -11 -8
-10 6 -3 -12 -7 -15 -11 -11
-9 6 -5 -13 -8 -16 -13 -14
-8 1 -3 -13 -7 -16 -12 -14
-6 1 -3 -13 -7 -15 -11 -17
-4 3 -3 -13 -7 -15 -11 -18
-5 1 -2 -15 -8 -16 -12 -16
-7 1 0 -14 -8 -15 -10 -12
-8 6 0 -12 -6 -13 -9 -15
-7 8 1 -12 -6 -14 -8 -16
-3 12 2 -11 -5 -14 -8 -8
-1 13 3 -10 -5 -14 -7 -7
-4 13 6 -9 -3 -13 -6 -7
-3 16 7 -8 -1 -11 -4 2
-2 19 7 -7 -2 -12 -5 -9
-5 19 7 -8 0 -12 -4 -8
-6 19 7 -9 -1 -13 -5 -8
-6 16 7 -10 -3 -14 -6 -10
-4 19 6 -10 -4 -14 -7 -4
1 20 7 -10 -6 -16 -10 -12
-2 17 10 -8 -4 -14 -8 -10
-2 16 10 -6 -3 -13 -5 -12
-1 16 4 -8 -4 -14 -7 -7
2 17 2 -8 -3 -13 -7 -12
2 18 3 -9 -3 -12 -6 -10
4 16 1 -10 -4 -13 -7 -8
5 19 -2 -12 -6 -14 -7 -8
7 18 -5 -14 -8 -15 -8 -5
7 16 -6 -15 -9 -15 -7 -6
6 17 -7 -14 -9 -16 -8 -4
3 16 -9 -16 -11 -17 -10 -4
2 9 -7 -14 -11 -16 -8 -11
4 7 -6 -14 -10 -17 -9 -9
6 4 -9 -16 -12 -19 -11 -7
7 4 -10 -19 -13 -20 -11 -10
5 3 -11 -21 -16 -21 -13 -15
4 0 -12 -25 -19 -24 -16 -18
4 0 -13 -26 -22 -27 -17 -16
-1 -3 -12 -26 -22 -27 -18 -18
0 -2 -12 -27 -24 -29 -19 -21
0 -3 -12 -27 -26 -30 -20 -20
-4 -5 -11 -27 -26 -30 -20 -21
-2 -3 -10 -26 -26 -30 -19 -22
-6 -2 -9 -26 -25 -31 -20 -18
-13 -3 -6 -25 -23 -29 -17 -10
-13 -4 -6 -26 -24 -30 -18 -10
-12 -3 -7 -29 -27 -33 -21 -17
-12 -1 -6 -29 -27 -33 -21 -20
-10 0 -7 -29 -29 -34 -23 -24
-12 -7 -5 -28 -30 -35 -24 -22
-12 -8 -6 -28 -30 -36 -24 -23
-13 -9 -7 -29 -31 -37 -24 -29
-13 -11 -8 -31 -34 -38 -26 -24
-11 -11 -6 -30 -32 -37 -25 -17
-13 -11 -8 -32 -33 -38 -27 -17
-12 -9 -7 -31 -32 -37 -25 -25
-12 -6 -7 -33 -33 -38 -27 -24
-12 -6 -8 -33 -34 -39 -27 -24
-14 -7 -6 -31 -31 -37 -26 -21
-12 -7 -5 -30 -32 -37 -25 -27
-11 -8 -6 -30 -32 -37 -25 -21
-12 -8 -6 -30 -32 -38 -25 -23
-14 -7 -7 -32 -35 -40 -28 -30
-13 -4 -7 -32 -35 -40 -28 -34
-13 -2 -9 -34 -36 -41 -29 -31
-16 -5 -9 -34 -36 -40 -28 -29
-15 -7 -7 -33 -35 -38 -26 -26
-14 -9 -6 -32 -34 -38 -24 -28
-14 -11 -5 -30 -34 -36 -23 -21
-13 -10 -4 -29 -33 -37 -24 -22
-14 -12 -4 -29 -35 -38 -25 -28
-11 -13 -4 -25 -35 -40 -28 -28
-13 -19 1 -15 -31 -39 -31 -33
-12 -24 12 3 -21 -38 -33 -39
-15 -20 25 22 -8 -33 -35 -40
-20 -12 42 45 9 -22 -32 -41
-20 -7 65 77 34 -4 -23 -36
-15 -4 87 107 62 18 -9 -29
-10 5 104 128 85 39 5 -15
-4 17 126 152 114 65 25 0
6 30 131 170 143 96 48 17
24 43 116 163 158 124 74 34
49 58 85 139 166 151 102 64
67 81 43 106 174 187 146 96
88 113 -12 63 181 224 187 130
100 135 -68 11 177 251 220 159
112 159 -134 -50 160 270 252 186
127 187 -196 -95 158 301 293 224
135 206 -250 -145 145 319 321 255
142 211 -300 -209 103 301 324 263
150 189 -331 -258 45 247 292 251
145 149 -340 -292 -24 165 231 212
142 98 -334 -298 -73 93 161 163
132 61 -320 -294 -113 27 100 117
108 39 -293 -287 -151 -33 52 86
73 25 -252 -274 -185 -89 9 51
43 10 -208 -257 -210 -134 -27 24
28 0 -176 -235 -215 -151 -44 8
17 -2 -147 -202 -192 -139 -48 3
10 -4 -123 -171 -167 -125 -49 -10
6 -3 -99 -144 -146 -112 -49 -19
2 -4 -79 -121 -127 -101 -48 -24
-2 -7 -65 -108 -117 -94 -49 -29
-5 -9 -52 -94 -107 -87 -47 -33
-9 -13 -42 -84 -101 -82 -47 -34
-13 -15 -33 -73 -92 -76 -44 -33
-13 -16 -26 -65 -85 -74 -45 -33
-14 -18 -20 -57 -80 -70 -44 -36
-15 -19 -12 -49 -71 -64 -43 -36
-18 -21 -8 -43 -65 -60 -41 -33
-21 -24 -4 -40 -60 -58 -41 -31
-19 -25 -1 -37 -60 -56 -40 -31
-20 -24 1 -36 -59 -56 -39 -36
-22 -23 3 -33 -59 -54 -38 -35
-20 -23 4 -32 -58 -55 -38 -32
-21 -23 4 -32 -58 -55 -39 -39
-20 -21 3 -30 -58 -56 -40 -31
-19 -22 5 -28 -55 -54 -39 -26
-20 -23 6 -27 -53 -52 -40 -29
-18 -22 5 -28 -52 -52 -40 -35
-21 -25 7 -26 -50 -51 -38 -36
-21 -26 9 -25 -51 -51 -38 -34
-19 -26 10 -25 -52 -51 -38 -36
-18 -25 10 -23 -53 -50 -37 -38
-15 -23 10 -22 -53 -50 -38 -33
-16 -23 10 -21 -53 -49 -37 -34
-20 -23 11 -18 -51 -47 -36 -30
-23 -22 12 -17 -48 -45 -35 -29
-19 -22 11 -18 -47 -45 -37 -32
-20 -24 12 -17 -46 -44 -36 -35
-22 -25 12 -15 -45 -43 -35 -29
-24 -24 13 -15 -46 -43 -35 -35
-19 -23 12 -16 -47 -44 -35 -39
-20 -23 15 -13 -44 -42 -32 -37
-18 -24 13 -13 -47 -42 -35 -35
-16 -25 15 -11 -45 -40 -33 -26
-13 -24 13 -11 -45 -40 -33 -28
-12 -23 13 -9 -43 -39 -33 -25
-12 -22 15 -7 -39 -37 -33 -26
-14 -25 15 -6 -38 -36 -32 -23
-11 -26 16 -4 -36 -34 -31 -28
-13 -25 17 -3 -35 -34 -30 -31
-15 -22 18 -2 -35 -33 -29 -25
-13 -18 18 -1 -35 -33 -28 -26
-13 -19 19 1 -36 -32 -29 -30
-15 -25 23 6 -32 -29 -25 -25
-14 -25 23 8 -30 -27 -26 -25
-12 -25 23 11 -28 -26 -24 -28
-10 -22 24 13 -24 -24 -24 -30
-10 -19 24 14 -22 -23 -25 -27
-10 -19 26 16 -20 -22 -24 -26
-10 -16 27 19 -17 -21 -22 -28
-7 -16 29 23 -16 -20 -22 -22
-7 -16 31 27 -14 -18 -20 -22
-9 -17 33 33 -11 -15 -19 -25
-10 -20 37 39 -7 -12 -16 -25
-7 -17 36 43 -5 -10 -17 -22
-11 -15 40 49 2 -5 -15 -19
-12 -17 44 56 10 0 -12 -19
-10 -17 48 63 17 4 -10 -16
-12 -16 52 70 22 8 -7 -14
-11 -12 55 76 27 13 -5 -14
-11 -11 61 86 36 17 -1 -8
-10 -10 63 94 41 22 1 -7
-9 -6 66 102 45 25 2 -6
-7 -7 69 111 51 30 5 -8
-2 -6 71 119 58 34 8 -4
4 -5 75 128 66 40 10 -4
3 -7 79 139 76 48 14 -4
0 -3 82 148 84 54 18 -2
3 4 86 155 93 60 21 -3
3 6 89 165 102 68 27 3
7 13 92 174 110 75 30 10
11 18 94 179 116 79 33 9
12 20 95 185 121 84 36 7
14 23 96 191 126 89 39 14
12 24 96 194 132 93 43 17
14 26 97 198 138 98 46 19
19 28 96 198 140 100 48 20
22 31 92 195 141 102 48 22
22 34 92 197 144 105 52 23
18 35 92 198 147 108 55 26
19 37 92 195 146 107 55 27
20 41 91 196 146 109 57 30
20 42 88 192 140 107 56 28
16 44 88 189 139 107 58 32
22 45 84 184 137 104 56 30
20 43 81 179 132 102 54 26
15 43 81 176 131 101 55 27
17 42 77 168 126 97 52 29
14 41 76 164 123 96 52 27
10 40 76 158 119 94 52 29
12 40 73 152 113 89 50 27
17 43 67 144 106 84 46 27
19 41 65 138 99 80 44 26
17 39 60 132 93 76 42 24
18 41 57 125 88 72 39 30
19 41 53 117 82 68 37 23
15 38 50 110 77 65 34 15
12 36 48 103 73 61 35 19
11 35 45 96 65 56 33 19
11 35 43 88 58 54 32 15
10 32 40 81 52 50 30 16
8 30 35 73 43 45 28 16
8 30 34 67 36 41 27 17
8 27 29 61 30 37 24 13
10 25 26 56 25 34 22 8
13 27 23 50 21 31 21 7
10 24 20 44 16 28 18 9
13 24 16 37 10 23 15 5
8 22 13 32 7 21 14 2
3 21 13 26 2 19 14 4
4 19 11 23 -1 17 13 4
4 17 8 19 -6 13 11 3
4 14 8 15 -10 10 10 8
4 13 6 12 -14 8 7 5
5 12 4 8 -18 4 4 2
6 15 2 4 -20 2 2 5
7 13 -1 -1 -23 -2 -3 4
7 9 -2 -3 -25 -4 -2 1
7 10 -3 -6 -26 -5 -3 -10
2 12 -2 -8 -29 -6 -4 -7
2 13 -3 -11 -31 -8 -6 4
-1 13 -4 -11 -32 -9 -5 2
-3 12 -5 -12 -35 -11 -6 -4
-6 13 -5 -11 -35 -10 -4 -3
-5 10 -5 -12 -35 -11 -6 -12
-2 7 -5 -12 -34 -10 -5 -9
2 6 -5 -12 -33 -9 -5 -11
0 4 -5 -12 -31 -8 -5 -8
0 5 -5 -13 -32 -9 -7 1
2 9 -5 -12 -32 -10 -8 -5
3 9 -5 -14 -34 -12 -9 -10
2 9 -5 -13 -34 -12 -8 -11
3 7 -4 -12 -35 -12 -7 -9
2 5 -4 -10 -34 -11 -6 -11
1 7 -4 -10 -35 -12 -7 -5
0 6 -4 -9 -33 -11 -7 -11
-1 4 -2 -8 -31 -11 -6 -12
-3 5 -2 -7 -28 -9 -6 -12
-2 4 -2 -7 -28 -8 -6 -10
-2 5 0 -5 -26 -7 -5 -11
-3 4 2 -5 -25 -7 -4 -10
4 4 -1 -6 -28 -9 -7 -9
1 4 1 -4 -26 -8 -5 -3
1 3 0 -3 -27 -9 -5 -7
4 4 -1 -4 -28 -10 -7 -7
1 4 -1 -3 -27 -9 -7 -10
0 3 0 -3 -26 -9 -7 -7
0 5 0 -3 -24 -8 -6 -2
-1 5 2 -2 -21 -7 -5 -7
-1 2 4 0 -20 -5 -4 -6
1 2 5 0 -19 -5 -3 -3
0 4 3 -1 -20 -6 -4 -6
-1 3 4 0 -19 -6 -4 -6
0 5 3 0 -19 -6 -4 -4
0 6 3 0 -20 -7 -5 3
1 6 3 1 -21 -7 -5 0
1 2 3 -1 -22 -7 -5 -4
-1 3 1 -2 -22 -8 -6 -5
-2 5 3 -1 -20 -7 -6 -3
-4 3 4 0 -20 -6 -5 0
-4 3 6 0 -18 -5 -2 2
-2 5 3 -2 -21 -7 -5 -8
-3 4 4 -2 -22 -8 -5 -7
0 7 2 -2 -22 -9 -7 -6
-1 9 0 -5 -23 -11 -9 -4
2 7 -1 -6 -23 -12 -10 -9
4 5 0 -7 -22 -12 -9 -10
-1 2 0 -7 -21 -10 -8 -4
-5 3 2 -6 -20 -9 -5 7
-4 3 1 -7 -21 -10 -7 2
-5 0 2 -9 -21 -10 -6 -2
-3 0 1 -9 -22 -11 -6 -5
-1 0 0 -9 -23 -13 -8 -4
-1 0 1 -9 -22 -13 -9 -3
-4 2 3 -8 -19 -12 -8 0
-4 0 0 -9 -21 -12 -9 -9
0 0 2 -10 -20 -13 -9 -9
-1 0 0 -10 -20 -13 -11 -9
-5 1 2 -9 -19 -12 -8 -7
-5 0 3 -8 -18 -10 -6 -6
-3 1 3 -10 -19 -11 -8 -5
-1 10 -1 -12 -22 -14 -10 0
2 14 1 -11 -21 -14 -9 3
3 15 1 -11 -21 -14 -9 2
3 20 0 -11 -20 -14 -8 -7
4 19 2 -9 -18 -11 -7 -6
5 17 5 -7 -15 -8 -4 4
6 14 8 -6 -13 -6 -2 0
6 13 8 -5 -12 -6 -2 2
5 12 8 -6 -13 -6 -3 7
5 13 9 -6 -14 -7 -3 -2
5 11 10 -5 -16 -7 -4 -3
7 12 10 -5 -16 -7 -4 -4
5 14 9 -5 -16 -7 -4 0
5 15 7 -6 -16 -8 -4 3
8 15 5 -6 -15 -7 -4 4
9 12 3 -7 -15 -7 -2 0
10 11 1 -7 -16 -6 -2 1
11 11 2 -7 -14 -4 -1 5
8 10 0 -7 -15 -4 1 3
12 12 -3 -9 -16 -7 -1 -2
8 12 -5 -9 -17 -7 -2 1
13 5 -5 -9 -20 -8 -2 7
21 2 -8 -11 -23 -10 -4 5
13 0 -6 -8 -20 -9 -2 1
7 0 -5 -7 -19 -8 -2 0
9 0 -7 -10 -20 -9 -3 -2
12 -1 -11 -16 -24 -15 -8 -5
11 -3 -10 -17 -24 -15 -8 -1
10 -6 -10 -19 -25 -15 -8 2
9 -9 -11 -21 -26 -18 -10 -1
9 -10 -12 -22 -28 -20 -11 1
5 -11 -11 -22 -29 -21 -13 -1
4 -13 -10 -22 -30 -21 -12 -6
3 -14 -8 -21 -30 -21 -12 -2
2 -15 -10 -22 -31 -23 -13 -11
3 -15 -9 -22 -30 -23 -14 -10
0 -15 -8 -24 -30 -24 -14 -5
-1 -13 -7 -23 -29 -24 -14 -9
-3 -11 -5 -23 -28 -23 -14 -8
-5 -16 -5 -24 -28 -24 -14 -6
-5 -16 -4 -24 -29 -24 -15 -9
-6 -16 -5 -23 -29 -25 -15 -11
-10 -19 -4 -23 -29 -24 -14 -14
-9 -19 -4 -22 -29 -25 -14 -8
-9 -20 -6 -23 -32 -25 -15 0
-8 -19 -8 -26 -34 -27 -18 -8
-5 -16 -7 -27 -35 -28 -18 -9
-3 -18 -7 -27 -36 -28 -20 -15
-5 -17 -6 -26 -34 -26 -18 -14
-8 -17 -5 -26 -33 -26 -17 -13
-6 -18 -7 -25 -35 -26 -17 -11
-5 -17 -6 -24 -34 -25 -16 -10
-5 -18 -5 -23 -33 -24 -15 3
-7 -17 -6 -24 -33 -26 -16 -5
-9 -19 -5 -22 -31 -24 -16 -10
-10 -20 -5 -24 -32 -26 -17 -10
-11 -20 -4 -23 -30 -23 -15 -9
-11 -19 -5 -26 -31 -26 -16 -14
-10 -20 -6 -27 -32 -26 -17 -15
-7 -18 -6 -29 -33 -27 -18 -10
-6 -17 -8 -28 -34 -28 -18 -6
-5 -18 -7 -27 -33 -28 -18 -12
-6 -20 -5 -25 -31 -28 -17 -15
-10 -20 -5 -22 -31 -28 -20 -12
-6 -20 -5 -17 -32 -30 -23 -22
-6 -24 3 -5 -27 -31 -27 -20
-8 -27 16 16 -14 -25 -27 -20
-9 -22 32 37 5 -16 -23 -22
-12 -12 51 61 23 -3 -18 -18
-10 -6 72 93 48 13 -9 -13
-7 -1 95 122 75 37 7 -9
-1 8 117 147 103 60 24 5
6 20 136 176 137 91 45 17
16 30 134 184 164 122 72 36
34 42 110 168 177 149 97 61
62 63 69 136 182 177 128 93
87 90 18 101 194 212 169 128
106 119 -38 57 199 243 203 154
121 140 -103 -2 184 263 235 182
136 164 -169 -52 178 287 272 225
151 187 -228 -91 178 314 307 253
155 198 -280 -148 150 310 316 266
162 185 -322 -204 97 267 294 261
168 151 -342 -252 23 187 239 223
160 102 -343 -278 -42 106 170 174
150 56 -331 -283 -87 39 108 137
136 27 -310 -284 -127 -20 59 97
104 11 -276 -276 -161 -70 20 67
69 4 -231 -264 -190 -114 -14 39
43 0 -195 -245 -206 -140 -40 21
26 -4 -165 -216 -191 -136 -44 3
17 -4 -136 -181 -165 -122 -44 1
7 -8 -111 -149 -138 -106 -41 1
4 -10 -89 -126 -119 -94 -40 -9
-3 -10 -71 -109 -103 -86 -38 -16
-10 -13 -58 -97 -93 -79 -38 -12
-7 -13 -49 -87 -85 -76 -38 -15
-9 -15 -39 -76 -78 -71 -37 -13
-14 -17 -30 -66 -73 -68 -37 -11
-13 -21 -23 -57 -65 -63 -37 -23
-15 -26 -17 -49 -60 -59 -35 -24
-15 -26 -11 -44 -54 -56 -35 -26
-15 -25 -10 -40 -50 -54 -34 -23
-19 -27 -5 -37 -47 -51 -33 -20
-16 -27 -2 -35 -45 -51 -32 -23
-17 -27 -1 -33 -43 -50 -31 -20
-19 -28 2 -30 -41 -48 -29 -20
-15 -27 2 -28 -43 -49 -30 -26
-15 -26 4 -28 -43 -51 -33 -27
-16 -23 2 -27 -44 -51 -36 -29
-17 -20 4 -26 -42 -50 -35 -27
-16 -25 4 -25 -39 -48 -35 -22
-18 -28 6 -24 -37 -47 -32 -28
-19 -26 7 -23 -37 -47 -33 -27
-20 -24 7 -24 -37 -46 -31 -26
-20 -22 7 -23 -36 -45 -31 -25
-22 -23 9 -20 -34 -44 -29 -28
-18 -19 9 -20 -35 -44 -32 -22
-17 -21 8 -20 -34 -45 -32 -26
-19 -23 8 -18 -32 -45 -32 -28
-18 -21 9 -18 -31 -44 -32 -31
-20 -23 10 -16 -28 -41 -31 -26
-20 -24 10 -15 -27 -41 -29 -27
-18 -24 10 -16 -29 -41 -30 -23
-17 -25 9 -17 -31 -41 -31 -24
-16 -21 9 -15 -30 -40 -29 -19
-18 -20 12 -13 -28 -39 -28 -19
-21 -23 13 -10 -27 -38 -27 -17
-23 -20 13 -8 -25 -37 -26 -21
-21 -21 12 -7 -24 -38 -27 -21
-20 -23 14 -4 -20 -35 -25 -22
-14 -22 12 -6 -20 -36 -27 -14
-15 -22 13 -5 -19 -35 -26 -19
-14 -21 15 -3 -18 -33 -25 -16
-13 -20 14 -3 -19 -34 -25 -21
-14 -21 15 -1 -18 -31 -23 -22
-12 -20 16 2 -16 -30 -22 -14
-14 -21 17 5 -15 -30 -22 -15
-16 -20 18 7 -13 -29 -21 -16
-11 -20 19 10 -11 -28 -22 -15
-9 -22 20 12 -9 -28 -21 -16
-13 -18 22 17 -5 -23 -19 -12
-14 -16 23 18 -2 -23 -18 -14
-17 -18 26 23 1 -18 -16 -11
-13 -15 28 27 3 -15 -14 -14
-11 -15 29 29 3 -15 -14 -17
-11 -17 32 34 6 -12 -11 -16
-10 -17 33 39 7 -11 -13 -12
-12 -18 35 44 10 -10 -11 -6
-10 -15 36 49 14 -8 -12 -12
-10 -12 38 55 18 -5 -11 -19
-7 -10 40 60 23 -2 -8 -17
-3 -9 43 67 30 2 -5 -15
-3 -11 47 73 35 7 -3 -11
-3 -10 52 82 39 12 0 -9
-6 -6 57 92 48 18 4 -2
-8 -5 61 100 55 22 6 -1
-4 -4 65 110 61 27 9 -4
-3 -2 67 118 66 30 10 3
-2 -1 71 129 74 35 12 -1
2 2 74 139 82 41 17 0
2 3 76 147 90 48 19 7
3 5 79 156 99 55 23 3
6 9 83 165 108 63 27 10
9 13 85 172 116 68 31 14
11 20 87 178 122 75 35 22
10 21 90 188 131 82 41 21
14 21 91 193 136 86 44 21
15 24 91 198 141 90 47 25
14 22 92 203 145 95 49 26
16 24 93 205 150 101 54 26
18 28 92 207 153 102 55 26
19 30 89 206 154 103 56 29
21 32 88 204 154 105 57 28
20 35 87 204 154 107 60 35
20 38 86 200 153 107 61 37
23 39 84 197 151 105 61 32
25 40 81 193 144 102 58 31
22 41 80 190 143 101 59 31
18 38 80 188 144 102 60 33
19 38 77 183 140 98 58 35
19 40 74 177 137 96 57 33
21 37 72 170 133 93 55 37
20 35 70 165 129 92 55 35
19 36 69 160 126 91 56 35
21 36 64 152 120 87 53 33
23 37 61 145 114 82 50 35
17 38 60 139 109 78 49 37
13 36 56 134 105 76 48 33
13 35 53 127 101 72 45 30
13 34 51 121 95 68 43 28
14 35 45 111 86 62 40 25
13 34 43 103 83 60 40 32
11 29 40 96 78 58 38 29
13 28 38 89 71 54 38 27
13 30 33 80 63 47 33 25
11 29 29 73 54 43 30 21
13 27 27 66 48 39 29 30
11 25 25 64 45 38 28 32
9 22 23 58 41 35 25 23
11 21 21 53 37 32 23 18
9 20 16 46 29 28 20 14
9 22 12 38 24 24 18 15
8 21 9 32 20 22 16 19
7 19 7 26 15 19 15 15
6 17 7 22 11 16 14 15
3 15 5 18 7 14 13 13
6 13 4 13 1 10 11 6
7 11 2 11 -1 8 10 13
7 7 0 7 -3 5 7 8
8 7 -1 6 -4 3 6 7
6 6 -2 3 -6 1 4 6
5 4 -3 -1 -10 -1 2 2
4 5 -2 -3 -10 -1 2 7
2 4 -2 -5 -11 -2 2 1
2 3 -4 -7 -14 -5 -1 1
1 3 -5 -8 -16 -6 -1 -1
0 0 -4 -8 -18 -7 -2 -3
1 0 -6 -9 -20 -9 -4 -5
1 0 -7 -10 -20 -10 -5 -4
0 0 -5 -8 -20 -9 -4 -6
-4 0 -4 -7 -18 -7 -1 -1
-1 1 -6 -9 -20 -8 -3 0
0 3 -5 -10 -21 -8 -3 -1
-1 2 -4 -9 -22 -8 -2 5
-3 -1 -4 -9 -22 -7 -3 3
-3 -2 -3 -8 -23 -8 -2 3
-1 -1 -5 -8 -25 -9 -4 2
-1 2 -7 -9 -27 -11 -5 -4
0 1 -6 -7 -25 -10 -6 -6
-2 -2 -5 -5 -23 -10 -6 -7
-2 -3 -7 -7 -23 -10 -6 -3
1 -1 -7 -7 -21 -10 -6 -3
2 0 -7 -7 -21 -10 -7 -7
0 4 -5 -5 -19 -8 -5 -3
-1 2 -4 -5 -18 -7 -5 6
0 1 -4 -4 -19 -9 -6 -4
1 2 -3 -4 -19 -9 -6 -7
-1 -1 -4 -3 -20 -11 -6 -1
-2 -4 -2 -1 -16 -8 -5 -2
1 -3 -2 -1 -18 -9 -6 -1
-1 -4 -3 -1 -19 -9 -6 0
-4 -2 -1 0 -15 -7 -3 3
-5 1 -1 0 -15 -7 -4 -5
-4 3 -1 0 -17 -7 -4 -7
-4 6 -1 -1 -17 -7 -4 -6
-5 6 -2 -1 -18 -8 -5 -3
0 4 -1 -2 -20 -8 -6 -7
2 3 -1 -1 -19 -9 -6 -1
-3 0 0 0 -18 -8 -6 -6
-6 0 1 2 -15 -5 -4 -5
-3 0 -1 0 -17 -7 -6 -7
-7 0 -1 -1 -16 -7 -5 -4
-5 -1 1 0 -16 -5 -4 -6
-4 -1 -1 -2 -17 -7 -5 -7
-5 0 1 -2 -16 -7 -4 -5
-4 0 0 -3 -17 -8 -5 -1
-2 -1 -1 -4 -19 -8 -6 -3
-3 1 -2 -4 -18 -10 -6 -2
-5 0 -1 -4 -19 -10 -6 -1
-3 0 -3 -4 -20 -10 -7 -3
-1 1 -4 -6 -21 -11 -8 -1
-2 0 -6 -9 -24 -12 -9 1
-1 0 -4 -10 -25 -11 -9 -1
-3 -2 -3 -9 -24 -11 -8 -7
-7 -5 -1 -9 -25 -12 -6 -5
-4 -2 -2 -11 -26 -13 -8 -4
-2 1 -3 -13 -29 -15 -11 -5
-1 1 -6 -13 -28 -16 -11 -8
-6 1 -5 -12 -26 -16 -12 -8
-10 -2 -3 -11 -24 -15 -10 -5
-9 -1 -2 -12 -24 -15 -11 -7
-5 -3 -5 -14 -25 -16 -12 -10
-3 -4 -4 -14 -23 -15 -11 -6
-2 0 -4 -15 -24 -15 -11 -3
-2 -1 -4 -16 -24 -16 -11 -5
-3 1 -2 -14 -22 -14 -9 2
0 5 -1 -13 -20 -13 -9 1
2 6 -2 -13 -19 -14 -8 -3
4 9 -1 -13 -19 -13 -8 -4
5 10 0 -12 -18 -11 -7 0
3 13 2 -11 -17 -10 -6 2
2 14 3 -11 -15 -9 -4 -3
3 14 4 -11 -15 -9 -5 2
-1 13 6 -8 -14 -7 -2 6
1 13 5 -8 -15 -8 -6 3
1 10 5 -9 -16 -9 -5 -1
3 12 7 -8 -16 -9 -5 -4
2 13 6 -10 -16 -11 -6 -5
5 13 5 -10 -16 -11 -6 -2
7 17 2 -10 -14 -10 -6 5
4 15 -1 -10 -13 -9 -5 7
6 12 -2 -11 -11 -7 -4 8
10 14 -4 -13 -12 -7 -4 2
9 13 -6 -13 -11 -7 -4 7
10 13 -7 -14 -11 -7 -3 12
10 12 -10 -14 -12 -8 -3 8
9 10 -11 -14 -13 -9 -3 5
10 10 -11 -15 -14 -11 -5 6
7 5 -11 -15 -13 -10 -4 5
4 2 -10 -15 -13 -9 -4 4
11 3 -14 -19 -16 -14 -7 0
11 1 -15 -22 -19 -15 -9 -3
9 2 -16 -25 -21 -17 -11 -6
8 -2 -17 -26 -22 -18 -12 0
9 -4 -18 -31 -27 -23 -15 -4
8 -6 -17 -30 -28 -23 -16 -8
4 -11 -16 -30 -30 -23 -16 -9
3 -12 -14 -28 -31 -24 -16 -8
1 -12 -14 -29 -30 -24 -18 -9
3 -12 -15 -31 -32 -26 -19 -13
2 -11 -15 -30 -33 -27 -20 -13
0 -13 -15 -31 -32 -27 -19 -15
-5 -14 -12 -30 -30 -25 -18 -11
-8 -11 -9 -29 -28 -23 -17 -6
-7 -10 -13 -32 -31 -27 -20 -11
-11 -9 -13 -32 -32 -27 -19 -12
-11 -8 -12 -32 -32 -27 -20 -15
-10 -12 -12 -33 -33 -29 -21 -17
-9 -14 -13 -34 -34 -30 -21 -13
-9 -14 -12 -35 -35 -30 -22 -18
-9 -14 -13 -35 -36 -32 -23 -15
-10 -15 -12 -34 -35 -31 -22 -14
-13 -17 -10 -33 -34 -30 -21 -14
-11 -15 -10 -32 -33 -28 -20 -16
-13 -15 -10 -33 -34 -29 -21 -6
-12 -13 -11 -34 -35 -29 -22 -3
-12 -11 -11 -33 -34 -28 -22 -14
-12 -12 -10 -32 -33 -28 -21 -14
-13 -12 -11 -33 -34 -29 -22 -14
-11 -11 -12 -34 -35 -30 -22 -13
-10 -14 -12 -34 -35 -30 -23 -7
-10 -15 -10 -33 -34 -28 -20 -10
-10 -16 -12 -35 -34 -28 -21 -18
-15 -17 -11 -34 -34 -28 -20 -18
-16 -15 -10 -33 -33 -27 -19 -14
-14 -14 -11 -34 -33 -27 -20 -11
-13 -14 -10 -34 -33 -28 -20 -11
-14 -15 -10 -33 -32 -29 -21 -8
-13 -19 -11 -32 -32 -31 -23 -20
-8 -22 -9 -26 -29 -31 -26 -17
-10 -25 -4 -16 -25 -32 -30 -17
-18 -25 7 3 -13 -27 -30 -26
-20 -20 20 24 2 -18 -29 -30
-20 -12 35 46 21 -7 -23 -23
-18 -6 57 77 44 10 -13 -19
-10 0 78 108 72 32 2 -3
-7 9 98 131 98 53 17 1
1 19 122 162 131 83 37 20
12 27 129 181 164 115 60 34
29 38 114 171 179 143 86 55
52 55 83 145 186 171 117 82
76 80 41 111 193 203 155 113
98 108 -10 68 200 238 193 142
112 132 -69 10 189 260 225 172
123 156 -134 -50 174 282 260 213
140 186 -197 -95 173 311 300 245
147 205 -254 -151 153 319 322 277
152 198 -302 -213 102 284 308 278
152 166 -328 -259 37 216 262 246
150 121 -336 -291 -30 133 193 200
145 76 -332 -302 -82 61 125 151
133 41 -319 -307 -124 -2 74 110
104 21 -288 -300 -158 -55 32 76
64 15 -244 -284 -189 -105 -8 43
32 6 -204 -264 -206 -138 -38 20
18 2 -175 -236 -199 -144 -51 7
13 0 -147 -202 -177 -132 -52 -6
7 -6 -124 -171 -150 -116 -52 -15
2 -8 -100 -143 -128 -101 -50 -17
-1 -10 -81 -123 -111 -90 -47 -21
-6 -12 -66 -107 -99 -82 -47 -22
-9 -12 -54 -95 -88 -76 -45 -19
-14 -15 -44 -82 -80 -71 -44 -23
-19 -18 -33 -73 -72 -66 -42 -23
-17 -21 -26 -64 -63 -62 -41 -25
-16 -24 -22 -57 -60 -60 -43 -26
-19 -24 -16 -49 -53 -55 -41 -28
-24 -27 -9 -42 -46 -50 -38 -29
-23 -30 -7 -40 -45 -48 -38 -28
-22 -25 -6 -40 -47 -49 -38 -26
-21 -24 -5 -41 -48 -50 -38 -24
-19 -24 -3 -39 -47 -49 -38 -29
-17 -25 1 -35 -47 -47 -36 -29
-19 -27 1 -33 -47 -48 -36 -24
-21 -27 1 -30 -45 -47 -36 -24
-22 -27 4 -29 -42 -46 -35 -20
-21 -29 4 -29 -42 -46 -35 -23
-20 -28 4 -29 -41 -45 -35 -25
-25 -27 4 -29 -41 -45 -36 -24
-24 -26 5 -28 -41 -44 -35 -26
-22 -25 5 -27 -41 -42 -34 -28
-24 -26 5 -27 -40 -41 -33 -24
-23 -27 8 -24 -39 -39 -32 -21
-22 -28 9 -23 -39 -41 -32 -29
-22 -27 6 -22 -39 -43 -35 -31
-21 -25 6 -22 -37 -42 -35 -27
-21 -25 6 -22 -37 -42 -34 -22
-19 -25 5 -22 -35 -42 -34 -19
-14 -27 5 -23 -35 -41 -35 -20
-24 -28 7 -21 -34 -40 -33 -16
-23 -26 8 -20 -34 -39 -32 -19
-18 -26 9 -19 -33 -38 -32 -28
-24 -27 11 -16 -34 -36 -31 -25
-23 -26 11 -14 -33 -36 -30 -19
-17 -27 11 -14 -33 -37 -32 -26
-15 -26 11 -13 -31 -35 -32 -24
-19 -24 12 -11 -29 -34 -32 -26
-20 -21 11 -11 -27 -33 -32 -27
-20 -21 13 -8 -25 -31 -31 -23
-21 -21 12 -8 -25 -29 -29 -20
-19 -23 13 -6 -25 -28 -28 -20
-16 -27 15 -3 -21 -26 -26 -18
-16 -27 16 -1 -23 -25 -25 -21
-16 -24 14 0 -23 -26 -24 -24
-14 -20 14 2 -23 -26 -25 -22
-12 -22 14 4 -20 -25 -25 -22
-12 -24 18 9 -15 -21 -22 -12
-12 -23 18 11 -12 -18 -21 -17
-13 -22 20 13 -11 -16 -22 -21
-13 -17 21 16 -10 -13 -19 -12
-13 -16 24 19 -7 -11 -18 -10
-15 -18 26 25 -1 -8 -16 -6
-12 -18 28 30 0 -6 -17 -12
-10 -18 29 33 1 -7 -18 -16
-12 -17 31 40 7 -3 -16 -14
-9 -16 32 44 11 -1 -16 -13
-6 -16 34 49 16 3 -14 -11
-8 -15 38 56 24 9 -10 -10
-14 -16 43 64 32 16 -5 -8
-12 -14 45 72 36 21 0 -5
-10 -11 48 79 43 25 2 0
-5 -8 51 85 47 27 2 3
3 -5 51 92 50 31 3 1
3 -3 55 101 58 35 7 -1
3 -3 58 112 66 40 10 2
1 -2 63 125 78 47 15 2
-1 0 67 133 88 55 18 10
2 2 67 142 98 61 21 13
8 4 71 150 108 69 25 10
8 5 73 159 116 77 31 14
6 7 80 168 127 86 37 17
9 10 81 174 133 90 41 19
13 12 81 179 137 94 43 20
14 19 82 184 142 98 47 22
15 19 81 186 146 102 49 24
17 20 81 190 152 108 52 25
20 22 80 190 156 111 55 29
21 23 77 191 157 112 56 28
22 25 78 191 159 115 58 30
16 29 78 190 160 118 62 38
15 32 77 187 160 118 64 42
18 33 76 186 161 119 65 41
18 32 75 183 157 117 66 37
18 34 72 179 154 115 65 43
20 36 70 175 151 113 64 42
19 35 68 170 148 111 62 42
19 32 68 165 144 109 61 40
18 31 64 157 137 104 59 36
16 31 62 152 134 102 57 36
17 34 60 147 130 99 55 39
14 34 58 140 123 95 53 39
16 34 55 135 120 91 53 33
17 32 53 127 113 86 50 33
17 32 49 121 106 82 49 32
16 31 48 116 103 79 46 30
14 30 45 109 99 75 44 34
13 28 43 103 93 71 42 29
12 25 39 94 87 66 39 23
9 25 34 85 80 62 35 26
10 34 29 76 73 57 31 21
9 33 28 70 68 54 31 21
7 24 26 65 63 51 30 22
7 25 23 60 57 48 30 22
8 26 20 54 52 43 29 17
8 26 18 49 48 39 25 19
10 23 17 44 44 37 24 16
8 20 13 38 39 34 21 14
7 19 11 32 36 31 20 18
4 13 10 28 32 29 19 16
4 11 9 23 29 26 18 15
4 13 8 20 25 23 17 14
2 11 5 15 21 20 14 16
4 10 3 10 15 16 12 17
4 11 3 8 13 14 11 8
4 9 1 5 11 10 7 8
3 9 1 3 10 9 7 7
2 9 -2 0 7 5 3 3
1 8 -3 -4 5 2 2 2
0 7 -2 -6 4 1 0 -4
-2 1 -1 -6 3 1 0 -4
1 1 -3 -9 -1 -3 -2 -3
-2 4 -4 -11 -3 -3 -3 -4
-6 1 -3 -11 -6 -4 -3 -3
-6 3 -2 -10 -6 -4 -1 -4
-5 3 -3 -11 -8 -6 -5 1
-2 2 -3 -10 -5 -5 -2 -1
0 3 -4 -10 -5 -5 -2 0
0 3 -7 -13 -7 -8 -5 4
0 3 -6 -13 -6 -6 -5 1
-3 3 -3 -9 -3 -3 -1 6
-3 2 -4 -10 -5 -5 -3 7
-2 2 -3 -10 -6 -5 -3 -2
-1 0 -4 -10 -6 -5 -4 0
-2 0 -5 -10 -6 -6 -2 -5
-1 -1 -4 -9 -6 -6 -3 -2
-3 0 -4 -8 -5 -6 -4 -3
-3 1 -5 -9 -7 -8 -6 -9
-2 0 -5 -8 -5 -7 -6 -5
-1 -4 -4 -6 -4 -6 -5 1
1 -3 -2 -5 -2 -5 -3 -4
-1 -2 -1 -4 -1 -4 -2 -1
0 -3 -1 -4 -1 -3 -2 4
0 -2 -1 -3 -1 -4 -3 -3
-1 -1 -2 -4 -3 -6 -3 -4
-1 -1 -1 -2 -2 -4 -3 -3
0 -2 -1 -1 0 -3 -2 1
-1 -3 -2 0 0 -2 -1 4
-1 -2 -1 0 2 -1 0 3
0 -2 -1 0 2 -1 -2 -3
1 0 -1 -1 4 0 -1 -4
2 2 0 1 5 0 0 2
0 -1 1 1 4 1 0 3
-1 -1 2 2 4 1 0 -1
1 1 2 3 4 0 1 4
-3 -2 3 3 5 0 1 6
-4 -1 3 3 5 0 0 0
-4 -1 4 2 4 -1 0 -2
-4 0 3 1 3 -1 1 4
-2 3 0 -1 1 -4 -2 1
2 2 -1 -4 -1 -5 -4 -3
6 2 0 -3 0 -4 -2 0
5 5 -1 -4 0 -5 -2 -5
-2 2 1 0 2 -3 0 -3
0 1 2 -2 1 -4 -1 -2
-1 0 2 -1 2 -4 -2 -4
-4 -1 2 -1 1 -5 -2 -3
-4 1 2 -2 0 -6 -2 -1
-7 -1 1 -5 -2 -7 -3 1
-6 -3 3 -3 -1 -5 -3 -5
-3 -3 2 -5 -1 -5 -3 -4
-3 -5 0 -7 -4 -7 -3 -4
1 -1 -1 -8 -7 -8 -4 -5
0 -1 0 -7 -7 -8 -3 -1
0 -1 2 -7 -8 -9 -3 -6
-2 -2 4 -5 -6 -9 -4 -8
-2 -4 3 -5 -5 -8 -3 -8
-1 -3 3 -5 -5 -8 -3 -7
-1 -2 2 -6 -6 -9 -3 -7
-5 -2 2 -6 -6 -8 -2 -6
-3 4 2 -8 -7 -8 -2 -1
0 8 1 -10 -10 -10 -4 0
1 8 2 -9 -10 -10 -3 -1
4 8 5 -5 -6 -6 0 -1
4 9 7 -5 -5 -5 0 1
5 10 9 -3 -3 -4 2 5
3 11 8 -3 -2 -5 1 1
1 9 8 -2 -2 -4 2 2
3 9 9 -2 1 -4 4 3
5 10 7 -3 -2 -6 2 5
5 12 7 -4 -5 -7 -1 -4
1 11 12 -3 -4 -7 -1 -3
0 8 12 -4 -6 -7 -1 -4
3 9 11 -2 -5 -6 1 -4
4 9 9 -3 -4 -5 2 -3
5 8 7 -3 -4 -5 2 0
8 9 5 -3 -3 -4 2 1
11 8 2 -5 -5 -5 2 1
13 8 1 -5 -3 -4 4 2
8 10 0 -3 -1 -2 5 2
8 6 -2 -5 0 -1 5 6
12 3 -3 -7 -3 -3 3 3
12 1 -6 -9 -5 -6 0 1
13 1 -6 -9 -8 -8 -1 0
11 1 -5 -9 -8 -8 0 4
9 -5 -6 -10 -10 -10 -2 1
9 -8 -8 -12 -13 -12 -4 -4
9 -6 -8 -13 -15 -13 -4 1
5 -10 -7 -15 -16 -15 -5 1
9 -13 -8 -15 -18 -16 -7 -7
11 -12 -8 -18 -20 -18 -8 -3
8 -12 -8 -19 -23 -20 -10 -10
9 -14 -7 -19 -23 -21 -10 -11
4 -16 -6 -18 -22 -20 -9 -11
-1 -16 -4 -16 -21 -19 -9 -11
0 -15 -5 -18 -24 -22 -11 -7
0 -17 -7 -20 -27 -24 -13 -15
-3 -16 -5 -22 -28 -24 -14 -15
-6 -15 -4 -21 -26 -24 -13 -8
-8 -14 -5 -21 -26 -24 -13 -3
-8 -10 -5 -22 -27 -25 -14 -10
-8 -12 -7 -24 -31 -28 -15 -10
-6 -17 -6 -22 -30 -27 -15 -13
-7 -19 -3 -21 -28 -24 -13 -15
-11 -23 -1 -20 -28 -25 -14 -13
-12 -18 -2 -20 -29 -27 -16 -15
-7 -15 -6 -24 -32 -30 -20 -15
-8 -19 -5 -23 -32 -29 -19 -19
-10 -21 -2 -22 -30 -28 -17 -17
-6 -21 -5 -23 -31 -29 -17 -21
-3 -20 -5 -23 -32 -30 -17 -20
-7 -20 -2 -22 -30 -28 -14 -11
-9 -20 -1 -20 -29 -26 -13 -5
-8 -18 -1 -19 -29 -26 -12 -12
-5 -17 -3 -22 -32 -29 -15 -13
-4 -18 -5 -22 -33 -30 -15 -10
-11 -17 -4 -20 -32 -29 -14 -16
-11 -19 -5 -22 -33 -31 -16 -19
-8 -18 -4 -21 -33 -29 -16 -17
-9 -20 -2 -21 -31 -28 -14 -13
-12 -23 -2 -22 -32 -27 -15 -6
-13 -24 -1 -22 -32 -28 -15 -8
-11 -23 -2 -21 -32 -29 -17 -21
-8 -24 -2 -17 -31 -30 -18 -22
-5 -28 2 -9 -28 -31 -21 -23
-9 -31 9 6 -20 -31 -25 -21
-10 -30 21 26 -5 -24 -26 -25
-15 -26 37 47 13 -12 -21 -22
-16 -18 57 73 34 2 -14 -20
-10 -12 76 102 60 21 -3 -19
-7 -4 93 124 85 44 11 -13
-6 4 115 149 113 70 30 6
4 17 132 175 148 103 54 20
21 29 126 180 172 134 80 40
44 44 103 164 182 161 108 63
65 61 69 137 189 191 142 99
86 88 25 102 197 230 185 130
103 115 -25 59 200 264 223 164
113 138 -89 -4 182 283 256 190
123 171 -155 -59 173 312 298 230
131 195 -215 -107 169 341 340 267
135 206 -270 -171 131 332 350 291
141 189 -309 -226 76 288 326 284
141 152 -328 -263 10 213 271 245
139 104 -329 -279 -45 135 201 198
136 60 -319 -280 -88 64 133 155
118 32 -301 -280 -132 -2 78 114
88 19 -265 -272 -170 -65 31 76
54 11 -221 -256 -199 -120 -11 44
31 3 -186 -234 -209 -146 -39 18
22 -4 -155 -203 -192 -142 -48 0
14 -6 -129 -170 -165 -126 -49 5
5 -7 -106 -141 -140 -112 -47 -4
0 -9 -83 -116 -119 -96 -45 -18
-1 -16 -66 -99 -103 -87 -41 -19
-6 -21 -50 -83 -90 -79 -40 -22
-9 -18 -40 -73 -84 -74 -40 -28
-5 -18 -35 -66 -81 -72 -42 -31
-2 -20 -27 -57 -71 -68 -40 -26
-8 -22 -19 -48 -61 -62 -40 -29
-12 -22 -13 -42 -55 -56 -38 -31
-11 -22 -9 -37 -51 -53 -37 -27
-15 -25 -4 -32 -45 -50 -36 -34
-18 -26 0 -29 -45 -47 -34 -31
-18 -26 2 -28 -43 -46 -30 -27
-21 -29 4 -25 -41 -44 -31 -30
-15 -29 4 -24 -43 -45 -33 -30
-16 -30 7 -22 -41 -44 -32 -24
-17 -33 8 -18 -38 -45 -31 -26
-17 -29 8 -19 -36 -45 -33 -26
-18 -26 7 -20 -37 -45 -34 -24
-18 -25 8 -21 -35 -45 -33 -29
-19 -25 9 -19 -33 -45 -32 -29
-18 -25 10 -20 -35 -44 -32 -26
-12 -24 9 -20 -36 -44 -32 -23
-15 -25 10 -20 -35 -44 -32 -28
-15 -27 11 -17 -35 -42 -31 -28
-13 -28 11 -16 -35 -41 -31 -25
-14 -31 13 -13 -31 -41 -29 -25
-16 -29 14 -13 -29 -39 -29 -19
-16 -30 14 -12 -28 -38 -30 -21
-15 -30 12 -14 -28 -39 -31 -26
-12 -31 13 -12 -24 -37 -29 -22
-12 -29 13 -14 -26 -36 -30 -28
-15 -26 14 -13 -26 -37 -28 -30
-12 -25 13 -13 -25 -38 -28 -27
-13 -25 12 -12 -27 -38 -29 -29
-15 -25 16 -8 -25 -35 -27 -29
-15 -28 15 -5 -22 -36 -27 -23
-17 -28 14 -5 -22 -35 -28 -19
-14 -26 14 -4 -20 -32 -28 -24
-13 -25 14 -5 -19 -33 -28 -29
-9 -24 14 -4 -17 -32 -29 -25
-8 -24 17 -3 -15 -28 -27 -24
-9 -25 16 -2 -15 -29 -26 -21
-9 -22 19 1 -13 -27 -25 -18
-11 -24 21 5 -12 -26 -24 -18
-15 -23 23 8 -10 -24 -21 -19
-14 -26 24 11 -7 -24 -20 -24
-14 -27 24 13 -4 -22 -20 -22
-12 -26 23 14 -4 -22 -22 -23
-9 -21 23 15 -1 -21 -23 -25
-11 -21 25 18 3 -18 -20 -25
-8 -21 28 22 6 -14 -18 -15
-7 -19 29 25 8 -13 -16 -18
-7 -18 30 27 11 -12 -16 -23
-6 -18 33 34 14 -8 -15 -15
-7 -16 34 37 15 -8 -14 -15
-5 -17 34 42 20 -6 -14 -15
-6 -19 37 48 27 -2 -13 -16
-4 -19 37 52 28 0 -13 -18
1 -15 38 56 33 4 -11 -14
-6 -15 44 65 42 11 -6 -9
-10 -13 49 73 48 18 -3 -8
-8 -7 53 79 54 21 1 -5
-1 -5 52 84 57 21 0 -7
-2 -4 56 94 65 28 4 -5
-1 -2 59 103 72 33 7 -3
-4 -4 64 112 80 38 11 -5
1 -4 68 122 91 44 13 -1
7 -3 69 129 97 51 15 -2
9 1 70 136 104 58 18 -2
10 5 73 145 116 67 24 3
7 7 76 153 123 75 29 14
8 10 80 161 131 81 34 18
16 15 80 166 136 86 38 14
17 17 82 174 144 92 42 16
20 18 85 180 151 99 47 19
19 20 85 186 158 103 50 24
20 24 83 187 161 105 51 26
20 26 83 188 165 110 54 24
17 28 82 189 166 113 57 26
19 31 81 188 169 115 59 32
19 33 82 190 170 119 62 37
21 31 83 188 170 121 65 37
22 33 82 186 169 120 67 39
22 35 81 183 165 118 65 33
24 35 78 180 161 117 64 32
26 36 74 176 158 114 64 31
20 35 73 173 158 112 63 33
21 39 70 166 153 110 61 30
22 40 68 160 150 106 59 32
20 34 67 156 148 104 59 33
20 34 66 149 142 101 57 32
21 34 63 143 133 97 55 31
20 34 59 136 127 91 53 34
20 34 58 130 120 86 51 30
19 31 56 124 113 82 48 26
23 30 53 118 109 78 46 24
23 28 48 111 103 75 43 23
19 27 45 104 98 72 42 23
19 29 43 97 92 67 41 24
15 27 41 92 88 64 40 23
17 25 38 84 81 60 37 20
11 24 38 80 75 58 38 23
3 22 36 75 69 53 35 25
6 21 34 70 64 48 33 25
9 21 30 63 58 44 30 20
10 18 25 57 53 39 28 18
10 15 24 53 50 37 25 17
11 16 19 45 44 31 22 14
11 18 17 39 41 29 21 10
10 18 15 35 38 27 19 14
10 13 14 29 34 25 16 16
12 12 13 25 28 22 17 14
9 10 11 21 24 18 14 16
7 7 10 18 20 15 13 11
9 7 8 15 16 12 11 9
8 5 6 12 13 8 9 10
5 3 5 8 10 7 6 8
8 3 4 5 9 5 4 5
8 3 3 2 6 3 3 0
8 3 2 0 5 0 1 0
5 1 1 -3 3 -2 0 3
5 0 2 -3 1 -1 1 3
9 1 0 -4 0 -3 -1 4
5 0 2 -4 -1 -2 0 3
2 1 1 -4 -4 -4 -1 2
2 0 0 -4 -3 -4 -1 -3
2 -2 -3 -6 -5 -7 -4 7
5 -2 -3 -7 -6 -8 -4 8
3 -1 -3 -7 -4 -7 -4 0
4 -2 -3 -7 -3 -7 -4 -5
6 -2 -3 -8 -3 -6 -6 -4
5 -2 -2 -8 -5 -7 -5 -7
5 0 -1 -6 -4 -6 -4 -5
6 1 -1 -6 -5 -6 -4 -3
4 0 -1 -5 -6 -6 -3 -1
4 2 -2 -6 -5 -8 -4 -4
2 1 -3 -4 -4 -7 -5 -5
3 1 -2 -4 -4 -5 -3 -6
5 2 -3 -3 -1 -4 -3 -2
4 -2 -2 -3 0 -3 -2 4
4 -2 -1 -2 -1 -2 -2 5
4 3 0 -2 -2 -3 -2 -2
4 4 -1 -3 -3 -5 -4 -2
6 6 0 0 -3 -5 -4 -10
9 6 -2 -1 -3 -5 -5 -7
2 3 0 2 0 -3 -2 -1
3 1 0 4 2 -3 -4 -4
1 -3 1 4 1 -2 -2 -6
1 -1 0 4 3 -2 -2 -5
6 0 -1 3 3 0 -2 2
0 -1 2 5 5 1 -1 1
1 -1 3 5 4 3 2 -1
1 1 2 5 5 2 1 -2
4 2 3 4 2 0 0 1
3 2 4 6 3 1 2 6
4 0 3 5 2 -1 0 1
5 1 2 4 2 -3 -2 -3
5 2 3 5 3 -1 -1 -3
2 0 3 6 4 0 0 1
-1 2 3 5 4 0 0 -2
-2 3 3 3 3 0 -2 -3
3 4 2 1 -1 -2 -2 -3
4 4 3 1 -1 -2 -3 1
4 4 3 1 -2 -3 -3 -5
4 5 3 2 -2 -4 -3 -1
0 3 4 3 -1 -3 -2 2
-1 3 3 3 -1 -4 -3 -2
2 2 4 2 -3 -4 -3 -3
4 3 1 -1 -3 -6 -5 -7
6 3 -1 -4 -5 -9 -7 -6
6 6 0 -5 -7 -8 -8 -4
3 3 0 -5 -8 -7 -6 2
5 3 0 -5 -7 -8 -6 4
5 0 3 -4 -8 -8 -4 -1
3 -1 2 -4 -9 -8 -5 -1
3 -1 3 -3 -8 -7 -4 2
4 2 1 -4 -9 -9 -7 -1
7 3 1 -6 -8 -9 -6 -4
10 6 0 -7 -9 -10 -7 -5
10 5 0 -7 -7 -9 -6 -9
6 8 3 -5 -6 -6 -4 -2
5 9 5 -5 -6 -5 -2 0
7 13 5 -4 -7 -6 -4 -5
11 19 4 -5 -8 -6 -4 -5
11 19 5 -4 -9 -6 -4 -4
4 15 8 -1 -5 -4 0 1
-1 15 10 3 -1 -1 1 3
0 14 10 3 -2 0 2 1
9 14 8 0 -3 -1 -1 -3
12 15 7 -4 -6 -5 -4 -4
10 17 8 -3 -6 -4 -4 1
10 19 10 -2 -6 -3 -2 3
13 17 7 -3 -7 -6 -4 -2
15 17 7 -5 -8 -6 -3 -5
15 16 4 -5 -8 -6 -3 -3
10 16 3 -5 -8 -5 -2 5
11 17 1 -5 -7 -5 -3 0
12 17 0 -6 -6 -3 -2 1
14 16 -4 -6 -7 -3 -2 1
12 14 -2 -5 -4 -1 1 2
8 11 -3 -6 -6 -1 1 0
9 11 -4 -6 -6 -1 3 1
19 12 -6 -9 -8 -5 -2 -1
20 11 -8 -11 -10 -8 -4 0
19 9 -9 -10 -12 -9 -5 3
19 6 -11 -13 -15 -11 -7 -3
17 3 -12 -16 -17 -14 -9 -10
19 0 -12 -19 -19 -16 -11 -8
16 -4 -13 -20 -19 -17 -12 -6
15 -5 -11 -20 -19 -18 -13 -3
13 -3 -10 -21 -21 -19 -15 -12
12 0 -13 -24 -25 -21 -17 -18
13 1 -9 -21 -22 -19 -15 -14
12 1 -10 -22 -25 -21 -16 -14
8 -4 -9 -20 -24 -21 -16 -11
7 -6 -8 -21 -24 -21 -16 -11
2 -7 -8 -22 -24 -22 -17 -5
0 -6 -6 -21 -23 -20 -15 -9
-5 -6 -4 -20 -21 -19 -15 -11
-8 -5 -5 -23 -23 -21 -16 -15
-7 -6 -5 -21 -24 -20 -15 -12
-8 -7 -6 -23 -26 -23 -15 -12
0 -6 -8 -26 -29 -27 -19 -15
0 -6 -8 -25 -29 -26 -19 -15
0 -6 -10 -26 -30 -28 -21 -20
1 -5 -8 -26 -29 -27 -21 -19
-3 -6 -7 -25 -27 -27 -21 -15
-5 -9 -6 -23 -26 -25 -19 -13
-2 -6 -8 -25 -27 -26 -21 -17
1 -5 -9 -27 -29 -27 -23 -17
0 -7 -8 -25 -28 -25 -20 -13
1 -8 -6 -26 -27 -23 -18 -7
2 -9 -7 -26 -28 -25 -20 -8
1 -8 -7 -25 -27 -25 -18 -16
-3 -7 -6 -24 -26 -24 -18 -17
-6 -5 -7 -24 -27 -25 -18 -19
-6 -6 -6 -24 -25 -24 -19 -20
-3 -9 -7 -24 -25 -25 -19 -19
-1 -11 -8 -26 -26 -26 -20 -17
-1 -8 -9 -28 -27 -26 -21 -14
-4 -8 -9 -27 -28 -27 -22 -20
-7 -9 -7 -23 -25 -25 -18 -17
-6 -12 -6 -22 -26 -26 -21 -16
-4 -19 -4 -16 -24 -27 -23 -16
-1 -21 3 -3 -17 -27 -26 -25
-2 -19 12 15 -6 -24 -29 -27
-3 -12 25 33 9 -17 -30 -25
-5 -5 48 61 33 0 -20 -22
-2 -2 68 92 60 19 -10 -20
1 6 87 120 86 41 4 -15
1 14 109 142 113 66 22 2
6 25 130 170 144 97 45 14
21 37 129 181 171 129 69 35
39 49 111 169 184 156 96 56
64 65 78 141 187 182 128 80
87 89 36 109 197 218 169 117
102 119 -16 66 203 253 207 152
117 146 -78 6 188 274 239 184
129 173 -145 -52 176 298 278 217
136 199 -206 -95 177 333 320 257
138 216 -260 -152 153 337 342 284
143 208 -304 -211 102 302 329 283
150 174 -328 -253 35 231 278 258
148 127 -333 -278 -27 150 211 211
141 79 -327 -282 -75 76 140 158
130 49 -313 -285 -117 9 82 116
107 32 -283 -277 -153 -50 36 80
73 23 -240 -263 -185 -106 -6 49
49 16 -202 -246 -202 -141 -38 24
34 9 -171 -217 -191 -142 -49 3
25 7 -143 -186 -167 -128 -52 -3
18 6 -118 -155 -141 -113 -50 -9
11 4 -94 -129 -120 -98 -48 -13
9 2 -76 -111 -105 -88 -46 -19
4 -4 -62 -96 -94 -81 -44 -25
-2 -8 -49 -83 -83 -75 -44 -24
-3 -10 -39 -72 -76 -70 -43 -23
-9 -13 -29 -61 -68 -64 -40 -25
-11 -17 -21 -52 -59 -59 -39 -22
-14 -19 -14 -43 -50 -51 -37 -22
-13 -17 -11 -39 -47 -49 -38 -28
-9 -14 -7 -36 -42 -47 -36 -31
-9 -16 -3 -33 -41 -45 -37 -32
-9 -18 -1 -33 -41 -46 -37 -26
-6 -17 -2 -32 -44 -47 -38 -28
-9 -19 0 -29 -41 -46 -37 -25
-12 -20 4 -25 -40 -44 -34 -22
-11 -19 3 -25 -41 -46 -35 -24
-11 -22 3 -24 -39 -46 -38 -25
-11 -21 3 -24 -37 -45 -38 -22
-10 -19 3 -25 -37 -44 -38 -33
-10 -18 3 -23 -35 -43 -36 -31
-9 -19 5 -22 -33 -40 -35 -31
-12 -20 8 -21 -33 -39 -33 -24
-13 -18 9 -20 -33 -40 -34 -19
-11 -17 9 -18 -32 -41 -34 -27
-11 -21 10 -16 -31 -40 -33 -26
-10 -23 11 -15 -30 -40 -32 -20
-11 -23 10 -14 -29 -40 -34 -24
-12 -23 10 -13 -28 -39 -34 -24
-11 -20 9 -15 -28 -39 -35 -26
-9 -18 8 -16 -27 -39 -34 -29
-8 -16 9 -16 -26 -38 -34 -22
-8 -16 10 -15 -27 -38 -32 -26
-6 -18 11 -14 -27 -38 -33 -27
-6 -16 12 -11 -25 -38 -32 -28
-13 -18 16 -7 -22 -35 -30 -26
-17 -19 17 -4 -20 -34 -27 -26
-14 -21 17 -3 -18 -34 -29 -30
-14 -21 15 -3 -17 -33 -30 -26
-12 -19 14 -4 -16 -32 -30 -20
-13 -18 14 -2 -14 -30 -28 -19
-15 -19 16 -1 -13 -27 -27 -20
-11 -16 16 -1 -14 -27 -27 -23
-11 -16 18 2 -13 -26 -25 -21
-10 -17 20 5 -11 -26 -24 -24
-8 -15 21 8 -9 -25 -26 -22
-9 -14 20 9 -9 -25 -25 -17
-7 -14 19 11 -6 -25 -26 -17
-9 -13 18 12 -4 -23 -26 -19
-8 -11 18 14 -1 -22 -26 -23
-5 -12 21 17 3 -18 -23 -20
-8 -14 24 20 7 -14 -20 -15
-12 -16 28 27 11 -9 -16 -8
-13 -15 32 32 14 -6 -13 -4
-10 -13 32 35 16 -6 -13 -11
-4 -10 32 38 18 -5 -15 -14
-5 -9 34 44 23 -2 -13 -11
3 -11 34 46 26 -3 -15 -16
5 -9 37 52 33 2 -13 -16
0 -9 41 60 40 8 -10 -17
0 -7 42 63 44 10 -8 -12
2 -6 46 70 48 14 -6 -8
3 -5 48 77 53 18 -5 -11
3 -3 53 86 60 24 0 -5
4 1 56 94 66 27 2 -2
6 2 60 104 72 32 5 -6
6 5 63 113 81 38 9 -5
8 7 65 121 89 41 10 -3
11 11 66 130 97 48 11 0
12 12 71 141 108 57 17 3
11 11 74 149 116 63 22 8
12 15 79 158 125 71 27 9
14 16 82 166 132 78 32 7
17 16 84 174 138 84 36 15
17 21 86 182 145 89 40 26
19 22 88 187 151 95 44 22
21 26 87 191 155 99 48 21
23 29 87 195 162 104 51 26
24 30 87 197 167 108 53 30
24 33 88 200 171 115 59 30
26 37 87 198 172 115 61 31
23 38 86 197 172 118 62 40
20 39 86 197 172 121 66 43
20 38 85 194 169 119 65 35
23 38 84 192 167 117 65 33
24 39 83 189 164 115 64 33
25 38 78 184 159 112 63 32
28 42 74 178 156 107 58 32
27 44 71 172 153 108 57 32
26 43 69 168 150 107 58 33
23 44 69 165 149 106 60 39
19 44 67 159 144 102 58 35
18 44 65 152 137 100 56 37
18 43 65 149 134 97 57 42
19 41 61 141 127 91 54 34
22 39 57 135 119 86 49 32
21 36 54 128 113 80 47 32
13 35 53 123 110 78 47 27
13 34 49 115 105 74 44 27
18 32 45 106 97 69 40 28
17 33 42 100 94 67 40 26
14 31 41 93 88 63 39 24
15 30 38 86 81 59 37 25
16 29 36 79 75 56 36 25
18 27 32 73 69 51 33 30
19 26 28 67 62 46 28 19
19 27 25 61 58 40 26 15
15 25 23 54 52 36 24 15
15 27 18 49 48 33 21 14
12 26 16 43 45 32 19 14
9 22 15 39 42 30 19 17
11 18 14 34 37 27 17 19
9 18 13 29 33 24 17 12
8 17 12 26 30 22 17 11
8 16 11 23 26 19 14 9
11 12 7 18 19 14 10 4
12 12 5 15 17 11 9 6
6 9 5 13 15 9 9 4
6 8 3 11 13 8 6 5
3 6 4 9 12 8 6 3
4 5 2 5 9 5 5 -1
10 4 -1 0 5 3 2 -1
6 7 0 -1 3 2 3 3
6 7 1 -1 1 1 3 2
11 7 -1 -3 -2 -1 0 1
8 5 -2 -3 -3 -3 -2 -1
6 4 -3 -5 -6 -5 -3 -3
6 5 -4 -6 -5 -6 -5 -4
5 5 -5 -6 -5 -6 -5 -6
2 4 -3 -5 -4 -4 -4 -4
3 4 -3 -6 -3 -4 -4 -7
1 3 -3 -6 -3 -3 -3 -5
2 2 -2 -6 -2 -2 -1 -3
5 0 -2 -5 -4 -4 -1 -5
7 1 -2 -4 -4 -4 -1 -1
7 3 -1 -3 -2 -3 -1 -2
4 5 -2 -3 -3 -3 -2 -6
0 4 1 0 1 -1 0 -5
1 2 1 1 3 0 0 -5
-2 3 1 1 2 0 1 -6
2 7 -1 -2 -1 -3 -1 -8
3 4 -1 -2 0 -3 -2 -6
6 2 -3 -2 -2 -3 -2 -6
6 3 -1 0 -1 -2 -1 -6
3 5 -2 1 0 -2 -2 -8
5 5 -1 2 -1 -2 -2 -4
8 7 -2 2 -2 -3 -3 -3
8 8 -2 2 0 -3 -3 -6
7 8 0 4 2 -1 -3 -2
1 6 3 6 4 2 1 0
3 2 2 6 6 2 2 -1
4 0 4 8 8 4 3 2
2 0 3 7 6 3 3 3
1 2 5 7 7 5 4 1
3 3 4 8 6 4 3 0
3 3 2 7 3 2 1 1
5 5 1 6 3 2 -1 -3
2 5 3 8 6 3 1 -2
1 4 3 9 7 4 0 -3
7 4 2 6 7 4 1 5
8 3 2 5 6 3 1 0
5 2 4 8 9 6 3 3
2 6 4 7 8 6 4 2
5 10 2 4 5 2 2 0
5 10 2 4 4 2 1 -5
3 9 2 4 2 0 -1 -7
5 6 1 3 2 -1 0 -5
6 5 2 3 4 0 -1 -5
2 4 2 4 5 1 -1 -5
2 4 3 4 6 1 0 0
3 3 3 3 5 0 -2 -3
2 4 1 1 3 -2 -4 -4
2 7 1 1 3 -2 -3 2
1 5 3 1 2 -2 -2 1
5 3 1 0 1 -4 -4 -2
0 4 2 1 1 -3 -3 -5
-5 2 2 1 0 -2 -2 -4
-3 1 4 1 2 -2 -1 -3
-3 0 3 0 1 -3 -3 -8
-3 -1 2 -2 0 -3 -2 -5
3 3 2 -3 0 -4 -3 -3
3 3 1 -3 0 -4 -3 -5
2 6 1 -4 0 -4 -2 -8
4 11 1 -5 -1 -4 -3 -2
9 10 1 -4 -2 -5 -4 1
9 9 2 -3 -2 -4 -2 -1
6 9 5 -1 1 -3 -1 3
3 10 7 1 3 0 1 5
4 13 8 2 5 0 2 -1
3 15 8 1 4 0 1 -4
4 16 6 -2 2 -1 1 -6
7 17 7 0 3 -1 1 -5
8 16 7 0 2 -1 1 -3
3 14 10 2 4 1 3 -1
4 13 12 3 4 0 1 3
3 11 13 3 3 -1 1 3
6 14 12 2 3 -2 2 3
6 13 10 2 4 0 2 6
7 13 7 1 4 0 3 2
9 13 4 0 4 0 3 2
6 14 2 -1 4 1 2 6
9 16 1 0 4 1 4 1
11 14 -1 -1 3 1 3 -2
13 12 -3 -2 2 0 3 1
14 11 -4 -2 2 0 2 0
10 10 -5 -4 -1 -3 1 1
12 11 -7 -6 -2 -4 0 -2
16 11 -8 -7 -3 -5 -3 -6
14 8 -8 -7 -4 -5 -2 -2
13 6 -9 -9 -6 -6 -3 -5
13 4 -11 -14 -9 -9 -7 -6
12 -1 -12 -15 -12 -10 -7 -1
13 -5 -11 -15 -12 -11 -7 -8
14 -6 -13 -17 -16 -13 -9 -11
13 -7 -11 -18 -15 -14 -10 -13
4 -10 -7 -15 -14 -13 -9 -9
0 -10 -6 -13 -14 -13 -9 -10
-1 -9 -5 -14 -12 -12 -9 -2
-3 -8 -5 -14 -13 -12 -10 1
-3 -8 -5 -17 -15 -15 -11 -10
-1 -7 -7 -20 -17 -16 -14 -12
-3 -9 -7 -21 -19 -18 -15 -11
-3 -9 -6 -21 -19 -18 -14 -12
-6 -9 -4 -20 -19 -18 -15 -15
-10 -10 -6 -20 -20 -19 -15 -17
-9 -10 -6 -21 -22 -20 -16 -15
-9 -11 -6 -21 -20 -20 -16 -10
-9 -12 -5 -22 -19 -20 -16 -13
-8 -11 -6 -21 -18 -19 -17 -17
-9 -11 -7 -23 -19 -20 -16 -19
-12 -9 -5 -23 -18 -19 -16 -8
-8 -9 -5 -23 -19 -21 -17 -12
-6 -12 -7 -24 -20 -22 -17 -17
-4 -9 -7 -25 -22 -23 -19 -12
-9 -3 -8 -25 -22 -24 -20 -18
-9 -6 -7 -24 -23 -24 -19 -13
-8 -10 -6 -23 -20 -22 -18 -8
-8 -11 -6 -23 -21 -24 -19 -13
-6 -10 -7 -23 -20 -23 -20 -17
-11 -11 -4 -21 -17 -20 -16 -16
-10 -10 -5 -23 -18 -21 -18 -19
-5 -9 -6 -24 -21 -22 -18 -10
-14 -10 -4 -22 -20 -19 -15 -12
-10 -9 -6 -25 -23 -22 -18 -14
-7 -8 -7 -24 -24 -23 -19 -14
-11 -12 -5 -23 -24 -23 -18 -15
-8 -13 -6 -23 -25 -25 -21 -17
-10 -14 -4 -18 -23 -25 -22 -17
-13 -18 0 -7 -17 -23 -23 -20
-13 -21 11 10 -6 -20 -25 -26
-13 -20 23 30 8 -14 -26 -25
-16 -10 41 53 27 -2 -21 -23
-11 -2 62 83 50 14 -12 -22
-8 0 84 113 77 36 2 -13
-6 9 104 138 105 61 19 0
-5 18 127 166 135 88 39 15
2 30 135 188 165 120 63 32
21 43 122 184 185 151 89 50
47 57 90 156 190 175 115 74
72 80 48 122 194 205 151 104
93 108 0 84 204 243 195 140
109 131 -57 31 197 269 227 168
124 158 -122 -29 182 289 263 198
136 188 -185 -75 181 319 303 234
143 211 -243 -123 168 335 330 264
147 213 -292 -183 126 315 329 280
150 185 -324 -231 68 258 293 260
150 141 -335 -269 -2 175 228 213
143 90 -330 -278 -53 102 159 165
138 50 -321 -283 -98 33 96 121
118 28 -294 -278 -136 -25 50 93
81 18 -252 -266 -170 -77 11 62
48 10 -212 -250 -195 -121 -23 31
30 5 -178 -227 -197 -134 -40 17
22 1 -151 -196 -177 -127 -45 2
16 1 -127 -167 -152 -113 -47 -7
11 3 -105 -140 -131 -100 -47 -14
8 1 -85 -118 -112 -88 -46 -16
4 -4 -69 -100 -97 -79 -44 -16
-1 -9 -56 -90 -88 -75 -45 -20
-8 -11 -46 -79 -80 -70 -43 -20
-14 -10 -35 -66 -71 -63 -40 -27
-13 -10 -28 -59 -64 -59 -40 -31
-14 -12 -21 -51 -59 -56 -41 -32
-17 -13 -14 -42 -49 -50 -38 -31
-22 -17 -9 -36 -44 -45 -36 -28
-22 -18 -3 -30 -39 -42 -33 -30
-22 -19 -1 -30 -39 -40 -34 -33
-22 -21 -1 -29 -41 -42 -33 -33
-20 -19 0 -29 -41 -41 -33 -26
-19 -19 0 -27 -42 -42 -33 -24
-19 -19 4 -23 -39 -40 -32 -23
-20 -19 5 -22 -39 -40 -31 -27
-20 -21 4 -22 -39 -41 -33 -28
-20 -24 6 -20 -37 -41 -33 -29
-22 -23 7 -19 -35 -40 -33 -23
-22 -22 7 -19 -33 -40 -32 -22
-19 -21 6 -21 -34 -40 -35 -31
-18 -22 7 -19 -33 -39 -34 -33
-17 -24 9 -17 -31 -37 -33 -29
-19 -19 9 -16 -31 -37 -32 -24
-21 -20 10 -14 -31 -36 -31 -19
-22 -20 11 -13 -31 -36 -30 -27
-23 -20 9 -14 -32 -37 -31 -24
-20 -21 9 -14 -32 -36 -31 -21
-20 -18 9 -12 -29 -35 -31 -25
-22 -18 9 -13 -28 -35 -31 -25
-20 -19 11 -11 -26 -33 -30 -25
-16 -22 13 -10 -25 -33 -29 -28
-15 -21 12 -10 -26 -33 -30 -19
-16 -19 15 -7 -25 -31 -27 -21
-16 -17 14 -6 -25 -32 -29 -20
-15 -17 13 -5 -23 -30 -28 -20
-12 -19 12 -5 -23 -32 -30 -23
-12 -21 13 -3 -23 -30 -28 -25
-16 -19 14 -2 -20 -28 -28 -21
-24 -18 16 0 -16 -26 -26 -25
-19 -19 15 0 -16 -26 -27 -29
-13 -17 14 2 -15 -25 -25 -24
-16 -14 15 4 -12 -23 -24 -23
-18 -12 17 6 -11 -22 -22 -19
-15 -14 19 9 -9 -21 -22 -16
-11 -18 19 11 -8 -21 -21 -20
-10 -17 21 15 -4 -18 -20 -19
-8 -17 20 15 -3 -19 -22 -21
-8 -17 21 18 -1 -17 -22 -13
-9 -17 22 22 4 -14 -20 -16
-13 -18 24 25 8 -11 -18 -18
-16 -18 28 29 12 -9 -13 -9
-14 -15 31 31 14 -9 -14 -8
-11 -13 32 36 16 -8 -12 -15
-10 -9 33 40 18 -6 -13 -17
-10 -9 34 45 21 -5 -13 -9
-10 -13 37 51 26 -1 -12 -13
-6 -10 39 57 32 4 -9 -4
-4 -8 40 62 36 7 -8 -11
-4 -8 41 68 43 10 -6 -12
-3 -7 46 76 50 16 -3 -3
-5 -7 50 84 56 21 1 -6
-7 -2 55 91 64 26 5 -5
-2 -1 59 99 68 30 7 1
-1 0 64 111 78 38 11 0
-2 2 67 120 86 43 14 -3
0 3 70 130 94 48 15 1
-2 4 76 141 107 57 22 5
2 5 76 150 117 65 26 3
7 6 79 158 126 70 27 6
10 10 81 164 133 77 31 12
10 15 81 169 138 82 33 12
10 19 85 176 145 90 39 22
16 20 87 183 153 97 46 23
15 19 89 191 160 104 51 27
12 22 90 196 167 109 55 31
12 29 90 198 169 111 57 32
10 32 89 198 173 115 59 31
21 34 84 196 172 115 59 31
20 36 84 196 175 116 60 35
15 40 84 194 175 120 63 32
19 42 82 191 175 119 63 31
19 39 79 189 173 119 64 33
23 39 78 187 172 119 66 36
24 40 76 182 167 117 64 37
24 39 73 177 163 114 62 40
23 40 72 173 161 113 62 42
21 40 69 168 155 109 60 35
21 38 67 162 153 107 60 33
24 37 65 156 150 104 58 32
17 35 65 153 147 103 57 35
19 36 63 148 143 99 56 37
18 39 61 142 138 97 56 35
15 40 58 134 130 91 53 31
17 37 55 128 124 86 51 29
13 33 53 122 118 81 49 31
14 33 50 116 111 76 46 27
13 32 47 109 107 73 45 28
12 32 42 99 101 69 42 27
11 35 38 92 96 64 39 25
12 33 36 84 89 60 36 21
14 27 34 78 84 56 35 25
16 26 32 73 79 54 35 29
13 24 29 66 72 49 32 22
10 23 27 60 66 46 30 20
8 24 23 55 61 42 27 19
6 22 19 49 55 38 24 19
8 20 16 45 52 36 24 21
8 18 15 40 50 33 24 19
7 17 12 35 46 30 22 18
12 18 9 29 40 27 20 20
10 17 7 24 37 24 19 11
11 16 6 21 33 21 16 8
10 14 6 18 31 19 15 10
0 11 8 18 29 19 17 10
0 11 7 15 24 16 16 15
5 7 4 9 18 11 11 12
5 4 3 7 15 9 10 7
5 4 2 5 15 9 9 2
5 3 -1 0 12 6 6 2
5 3 -2 -2 9 5 5 -2
7 4 -2 -4 7 2 2 2
5 3 -4 -6 4 -1 1 4
4 6 -3 -6 5 -1 2 6
1 6 -3 -6 4 -2 1 0
1 2 -2 -6 4 -2 0 -1
0 0 -1 -4 5 -2 0 -4
-4 -1 -1 -6 6 -2 -1 -3
0 -3 -3 -7 5 -3 0 -3
-1 -3 -3 -7 5 -3 0 2
-1 -3 -4 -8 5 -2 0 5
0 -2 -3 -8 5 -3 1 -2
2 -2 -3 -7 5 -3 0 -2
5 0 -3 -7 4 -4 -2 -7
9 0 -2 -5 6 -2 -3 -3
6 -1 -2 -5 7 -1 -2 -4
4 -1 -2 -3 6 -2 -2 -5
4 -1 0 -2 9 -2 -1 -2
1 -1 -1 -1 8 -2 0 0
1 -1 -1 -1 8 -2 1 3
-1 -2 0 -2 7 -1 1 3
-2 0 -1 -2 8 0 3 -4
-1 2 -1 -2 6 -1 1 -4
0 4 0 0 6 -1 0 2
2 3 -2 -1 4 -2 -1 -4
3 3 -2 0 6 -1 1 0
4 2 -2 2 6 -1 1 -4
6 3 -1 2 8 -1 0 -7
5 2 0 3 9 0 0 -7
2 2 1 4 10 1 0 -3
-1 1 4 6 13 4 3 -3
-2 1 2 4 11 2 3 -3
1 3 0 3 10 1 2 0
0 5 2 4 10 1 1 1
1 6 0 3 8 0 0 -5
0 5 2 5 9 1 1 1
1 0 3 6 10 3 2 2
2 -1 3 6 12 4 3 -2
2 0 3 6 12 6 4 -1
0 -2 4 5 13 5 3 -1
2 -3 4 5 13 6 3 2
1 0 5 4 12 6 3 4
-1 1 5 4 12 6 5 -1
1 5 1 3 10 4 2 -1
5 7 -2 0 6 1 -1 -4
-1 5 1 1 6 1 2 -2
-4 0 5 4 9 4 5 3
-3 -4 4 3 10 4 4 1
-4 0 3 2 10 3 3 3
0 0 2 -1 8 1 1 -2
0 -1 2 0 8 2 1 -1
-1 4 2 -1 8 3 1 3
-4 7 1 -3 6 2 0 -2
-3 6 2 -3 5 0 -1 1
0 3 0 -4 4 0 -1 -3
1 1 -1 -5 0 -3 -2 -5
2 2 -1 -5 -1 -4 -3 -7
3 3 0 -5 2 -4 -3 -4
2 0 -1 -6 2 -4 -3 -8
3 2 -2 -8 1 -5 -4 -8
4 5 0 -8 -1 -4 -3 -8
0 8 4 -6 1 -1 0 -3
4 10 5 -5 2 -2 1 -1
3 12 5 -3 2 -1 1 -2
2 16 6 -3 3 2 4 5
3 16 6 -3 2 1 4 6
0 17 7 -1 3 1 5 6
2 17 7 -1 4 1 4 4
2 16 7 -2 3 1 3 0
-1 13 7 -2 3 1 3 -2
4 14 7 -2 3 1 3 -5
4 12 8 -3 3 1 3 -4
4 13 10 -2 3 2 4 3
4 12 9 -2 3 2 4 2
6 13 6 -6 2 1 4 2
11 14 2 -6 1 1 4 2
11 15 0 -6 0 1 4 -1
14 14 -1 -7 1 0 4 -1
14 16 -2 -7 2 1 4 5
11 13 -5 -8 1 0 3 3
10 11 -5 -7 2 2 4 2
9 6 -4 -6 3 3 6 0
14 7 -7 -11 -1 0 2 -6
16 8 -8 -11 -2 -2 0 -4
9 6 -5 -10 -3 -1 2 -3
10 7 -8 -12 -5 -4 0 -5
15 9 -11 -14 -7 -7 -3 -6
12 7 -13 -17 -11 -10 -6 -6
12 2 -12 -19 -12 -11 -6 1
11 -2 -12 -19 -13 -11 -6 -1
10 -5 -12 -19 -13 -13 -7 -8
5 -7 -10 -19 -14 -12 -6 -10
3 -8 -9 -19 -15 -13 -7 -4
4 -6 -10 -20 -16 -14 -8 -11
1 -7 -9 -20 -16 -14 -7 -4
-3 -10 -7 -19 -16 -14 -7 2
1 -5 -9 -21 -19 -17 -9 -8
-5 -2 -10 -23 -21 -19 -11 -13
-7 -1 -10 -25 -21 -20 -13 -15
-6 -3 -9 -24 -20 -21 -14 -14
-6 -10 -8 -24 -20 -19 -14 -15
-6 -11 -8 -25 -21 -20 -13 -16
-8 -10 -8 -25 -22 -20 -13 -15
-11 -15 -7 -25 -22 -20 -11 -2
-10 -16 -6 -25 -22 -19 -11 -6
-11 -14 -7 -26 -25 -22 -14 -11
-7 -11 -8 -26 -26 -24 -15 -15
-1 -8 -11 -28 -27 -25 -17 -20
-4 -11 -9 -26 -23 -22 -15 -16
-4 -13 -9 -26 -24 -23 -16 -16
-4 -11 -8 -26 -21 -21 -14 -14
-7 -12 -8 -26 -21 -20 -12 -11
-7 -11 -7 -25 -20 -19 -11 -14
-9 -8 -9 -26 -24 -21 -14 -13
-7 -8 -9 -27 -26 -22 -14 -13
-5 -13 -8 -25 -24 -21 -12 -9
-8 -16 -7 -23 -23 -20 -12 -9
-7 -11 -8 -25 -22 -21 -14 -13
-1 -10 -11 -29 -25 -24 -18 -18
-8 -12 -8 -25 -23 -22 -17 -16
-7 -8 -8 -27 -25 -24 -18 -16
-8 -8 -9 -28 -25 -24 -19 -19
-8 -11 -8 -26 -23 -23 -18 -17
-6 -12 -8 -22 -22 -23 -19 -17
-5 -19 -6 -18 -21 -23 -20 -18
-2 -23 -1 -6 -14 -22 -23 -20
-2 -23 9 14 -2 -19 -25 -24
-11 -22 24 34 14 -10 -24 -23
-15 -16 45 59 37 5 -15 -23
-12 -11 66 89 64 24 -4 -17
-6 -3 85 115 91 48 11 -8
-4 10 105 139 120 74 28 5
6 24 122 163 149 101 46 17
17 40 123 177 179 135 74 38
32 52 106 168 192 165 103 56
54 63 79 144 197 193 135 90
79 85 42 113 205 230 178 123
93 112 -5 73 209 267 220 150
102 136 -63 18 197 289 253 182
111 167 -127 -43 181 312 292 221
122 198 -191 -93 175 344 335 261
129 217 -248 -152 149 351 358 283
131 211 -294 -212 98 322 350 294
135 182 -322 -254 35 256 306 268
135 142 -332 -279 -29 173 238 224
131 92 -324 -281 -72 99 166 172
120 55 -310 -279 -113 31 105 135
98 37 -282 -273 -151 -32 54 97
63 24 -241 -261 -185 -92 7 57
39 11 -202 -240 -201 -132 -26 29
27 3 -171 -214 -195 -139 -43 7
19 2 -143 -182 -169 -127 -46 -1
14 4 -120 -154 -143 -112 -46 -8
13 0 -98 -128 -122 -99 -45 -18
8 -3 -78 -107 -105 -87 -43 -25
4 -5 -63 -91 -90 -78 -40 -27
-3 -9 -52 -80 -80 -70 -39 -28
-7 -12 -41 -68 -72 -63 -37 -26
-9 -13 -33 -60 -66 -60 -38 -31
-13 -16 -24 -51 -56 -55 -35 -30
-16 -17 -16 -42 -48 -47 -33 -27
-17 -21 -11 -37 -43 -44 -32 -28
-8 -22 -10 -36 -41 -44 -33 -27
-6 -20 -8 -35 -39 -44 -35 -25
-9 -22 -4 -31 -38 -41 -32 -25
-15 -21 0 -27 -34 -39 -29 -26
-14 -21 0 -27 -35 -39 -31 -28
-9 -21 1 -27 -37 -40 -32 -29
-13 -18 2 -24 -34 -40 -31 -24
-21 -19 3 -22 -32 -39 -31 -29
-17 -17 2 -22 -32 -39 -34 -31
-15 -21 3 -22 -30 -38 -33 -32
-18 -25 5 -21 -27 -36 -31 -28
-15 -24 5 -21 -26 -34 -29 -29
-17 -26 8 -19 -26 -33 -27 -28
-17 -23 8 -20 -27 -35 -27 -29
-15 -20 7 -19 -27 -35 -27 -32
-15 -23 8 -18 -29 -36 -31 -28
-13 -22 8 -16 -27 -36 -30 -30
-13 -21 9 -14 -24 -35 -30 -30
-16 -23 9 -14 -22 -33 -31 -29
-15 -21 9 -14 -21 -33 -31 -28
-13 -21 7 -16 -20 -31 -30 -29
-11 -21 7 -15 -20 -30 -29 -29
-14 -20 9 -15 -19 -28 -26 -24
-15 -22 11 -14 -18 -27 -23 -23
-12 -22 12 -11 -18 -26 -23 -24
-11 -22 13 -10 -18 -26 -24 -26
-11 -22 12 -7 -16 -26 -25 -17
-9 -19 12 -7 -16 -28 -27 -21
-8 -17 10 -8 -15 -28 -29 -28
-11 -18 12 -6 -13 -27 -29 -30
-13 -20 14 -4 -10 -23 -26 -24
-14 -23 15 -3 -8 -21 -25 -25
-11 -21 16 -1 -9 -19 -23 -23
-8 -19 15 0 -8 -19 -23 -18
-11 -19 15 1 -9 -19 -21 -22
-12 -18 18 5 -6 -16 -19 -21
-10 -18 17 6 -4 -16 -19 -23
-9 -19 18 9 -1 -16 -20 -23
-8 -18 18 11 3 -14 -20 -20
-12 -17 20 14 6 -12 -18 -23
-10 -15 22 17 10 -8 -17 -24
-8 -15 22 17 10 -8 -19 -24
-10 -12 24 20 10 -6 -17 -26
-8 -12 26 24 13 -4 -15 -22
-11 -13 29 29 16 -1 -12 -19
-10 -12 31 35 19 2 -11 -16
-7 -12 31 40 24 4 -10 -16
-7 -13 33 44 28 5 -10 -18
-3 -11 34 49 34 10 -9 -21
-1 -12 36 53 39 12 -7 -20
-3 -12 39 58 45 18 -4 -16
1 -8 42 64 51 23 -1 -16
1 -6 45 71 57 28 2 -10
1 -5 48 78 62 31 6 -8
2 0 51 86 69 35 8 -6
-1 -2 55 93 73 39 9 -2
1 2 58 102 81 44 12 -3
4 3 59 111 91 50 15 -1
1 4 63 121 101 59 20 0
8 6 67 128 110 64 22 0
7 5 71 137 120 72 27 1
2 8 76 147 131 84 34 6
3 16 79 156 138 91 39 8
9 21 78 160 144 94 42 19
12 22 80 167 151 100 45 22
11 22 82 174 156 106 49 22
10 23 83 179 161 111 52 20
12 27 82 183 168 115 54 23
12 28 82 184 170 119 56 25
15 28 81 184 175 122 60 27
20 30 80 184 178 126 63 30
17 32 80 184 178 129 66 33
17 35 81 183 178 131 70 32
18 37 80 181 176 130 70 35
21 38 76 176 173 127 68 31
22 38 73 173 168 124 67 31
19 38 72 171 166 123 67 34
15 40 72 168 164 120 66 36
17 40 68 162 159 116 62 32
17 38 66 157 156 114 62 32
16 39 64 152 153 113 62 33
18 39 61 146 147 110 59 37
20 40 59 139 140 106 58 35
19 40 58 134 136 102 56 32
15 36 56 129 130 98 54 29
13 36 56 125 124 94 54 30
14 38 51 118 119 89 50 30
13 35 46 110 111 82 47 28
12 33 44 104 107 80 46 23
8 29 42 98 102 77 45 24
8 27 39 92 96 72 43 21
12 27 35 82 89 67 38 20
9 27 36 77 81 64 38 23
10 28 33 73 78 60 37 23
8 27 31 68 72 57 34 20
10 24 27 62 64 51 31 21
13 24 24 56 60 47 29 19
15 21 20 50 56 43 27 17
12 21 17 44 50 39 24 13
12 22 15 37 43 34 21 11
8 16 12 32 40 31 19 7
5 14 14 31 38 32 20 11
6 15 12 26 36 31 19 8
4 15 9 21 31 25 16 8
4 16 7 19 26 23 14 9
6 14 6 16 22 19 13 3
6 11 6 15 21 19 12 3
5 9 5 12 18 15 10 8
6 8 3 8 15 12 8 4
5 10 0 5 13 10 7 -2
4 7 0 2 10 9 6 -3
2 3 1 1 9 9 6 1
6 5 0 -2 5 7 5 4
5 3 -1 -3 4 5 5 7
3 0 -1 -3 2 4 4 2
1 0 0 -2 1 3 4 -2
-2 -1 -1 -3 1 1 2 2
2 0 -1 -3 2 0 1 7
3 -1 -2 -5 1 0 -1 -4
1 -1 -3 -6 2 -1 -1 -5
1 0 -1 -5 3 0 0 -3
1 0 -2 -6 3 1 1 0
0 0 -1 -5 2 2 1 0
0 0 -1 -4 2 2 1 1
-1 0 -1 -5 0 0 1 -4
-3 1 -1 -3 1 0 2 1
-3 2 0 -2 3 1 2 1
-2 0 0 0 5 0 2 -1
0 2 2 0 6 2 2 -1
-2 1 0 0 7 2 2 -1
1 -2 2 1 8 5 4 -3
4 -4 2 2 9 5 4 -3
6 0 1 1 8 5 4 -1
6 4 -1 2 8 4 4 -1
6 5 1 3 8 4 3 1
3 4 0 4 9 5 3 -2
1 5 1 5 11 5 4 -2
-2 2 1 6 12 5 5 0
-1 1 3 7 12 5 4 -2
4 5 0 5 11 2 1 -1
1 6 1 6 13 6 3 7
4 6 3 8 16 8 6 3
5 5 3 8 15 8 5 5
1 3 6 10 16 8 7 3
1 1 8 11 16 9 8 6
3 0 4 10 14 7 5 5
4 4 5 10 14 8 5 4
4 6 4 9 13 5 3 3
4 3 3 8 13 6 3 9
5 1 5 7 15 8 6 6
-1 1 6 7 16 9 7 3
-4 4 6 8 18 10 10 2
-4 8 7 8 17 10 9 8
-6 8 7 8 16 10 10 6
0 4 7 8 15 10 10 6
11 5 3 5 12 5 6 0
10 6 2 4 10 3 4 -1
8 6 2 4 10 2 3 0
4 6 3 2 9 1 2 0
1 7 5 3 10 4 4 -1
3 6 4 1 9 4 3 -1
2 1 5 3 10 6 5 2
4 3 6 3 10 5 5 3
2 5 5 2 9 3 4 -1
1 4 5 2 7 4 4 3
0 7 6 3 7 2 4 7
0 8 6 3 6 1 3 1
2 7 5 1 5 -1 2 -1
1 8 4 1 6 2 2 0
-1 8 4 0 6 0 2 -2
5 9 6 -1 6 0 4 -3
4 9 7 -1 7 2 4 1
3 11 8 1 7 4 6 4
5 12 11 1 7 3 7 4
3 15 11 3 7 4 8 7
3 19 13 6 9 4 9 12
6 22 13 5 8 4 7 11
4 20 11 4 7 4 6 9
4 20 11 4 7 5 5 9
7 22 11 3 6 3 4 3
5 20 12 2 4 2 5 -1
4 20 14 2 5 3 7 5
4 17 16 2 5 3 7 7
7 15 13 2 3 2 7 12
10 16 10 1 4 4 9 9
11 16 7 1 3 2 8 7
9 17 7 3 6 5 10 9
9 18 5 1 5 4 8 5
7 19 5 0 5 4 9 4
8 20 3 0 5 5 9 9
9 20 0 -3 3 3 7 6
9 15 0 -4 2 2 6 2
11 11 -1 -4 1 3 6 -1
12 12 -4 -7 -3 -2 3 -3
15 10 -4 -7 -3 -2 4 3
11 6 -2 -3 -1 1 7 5
7 5 -2 -4 -3 0 5 5
13 6 -6 -8 -6 -5 2 3
13 3 -6 -11 -8 -7 0 -3
12 1 -5 -11 -9 -8 -1 2
9 -4 -1 -9 -6 -6 1 6
7 -7 -2 -12 -9 -9 -1 -2
8 -2 -3 -13 -12 -10 -3 -4
7 -1 -4 -15 -14 -13 -5 -8
4 -4 -3 -14 -15 -11 -4 -9
3 -3 -1 -13 -16 -13 -5 -7
-1 -5 -1 -14 -18 -15 -7 -9
-8 -6 0 -14 -17 -15 -5 -9
-5 -6 0 -15 -17 -14 -6 -9
-4 -7 1 -15 -17 -15 -7 -6
-3 -6 1 -17 -17 -15 -8 -5
-2 -5 -1 -18 -18 -17 -8 -11
-3 -6 -1 -19 -20 -18 -9 -9
-7 -5 -2 -19 -20 -18 -9 -6
-11 -6 -1 -20 -22 -17 -10 -8
-8 -7 0 -19 -22 -18 -10 -8
-3 -10 0 -18 -22 -18 -11 -13
-2 -14 -1 -18 -23 -19 -11 -13
-1 -14 0 -18 -22 -19 -11 -13
-8 -12 2 -15 -19 -16 -9 -12
-8 -10 3 -15 -17 -14 -8 -7
-7 -8 2 -17 -18 -16 -8 -9
-8 -10 2 -16 -19 -16 -9 -8
-6 -10 1 -17 -20 -16 -9 -3
-7 -7 1 -17 -20 -16 -9 -3
-10 -7 1 -17 -22 -18 -11 -8
-6 -5 0 -18 -23 -19 -13 -9
-7 -9 0 -18 -23 -18 -12 -8
-8 -11 1 -17 -22 -17 -11 -10
-6 -13 1 -18 -23 -17 -11 -9
-10 -15 3 -18 -21 -16 -10 -5
-7 -14 4 -16 -20 -15 -9 -10
-8 -16 5 -14 -19 -15 -9 -3
-8 -16 4 -11 -20 -17 -11 -8
-7 -16 6 -3 -15 -16 -14 -17
-3 -16 14 13 -8 -17 -19 -22
-5 -17 27 33 5 -12 -20 -17
-9 -9 41 52 22 -2 -18 -14
-12 -3 63 79 44 14 -10 -10
-9 3 84 107 72 35 4 -2
-6 9 104 131 100 61 21 4
-4 17 125 156 128 88 40 21
6 30 138 180 161 123 66 38
22 45 130 182 185 154 92 49
40 60 106 165 195 183 123 76
67 80 70 136 198 212 160 108
89 108 23 99 205 250 203 142
101 135 -29 51 205 281 240 175
107 157 -92 -8 187 302 274 212
116 184 -156 -60 180 332 316 251
125 208 -217 -110 170 358 351 281
128 216 -269 -176 128 343 358 290
134 198 -308 -226 71 296 333 282
135 163 -323 -260 4 215 276 252
134 114 -321 -274 -53 135 203 203
127 68 -309 -270 -93 67 138 157
114 43 -292 -270 -134 -1 82 121
86 30 -257 -260 -169 -61 36 85
58 21 -214 -244 -196 -113 -5 49
39 12 -180 -223 -204 -136 -31 31
26 7 -151 -193 -186 -131 -40 16
16 3 -123 -162 -158 -115 -40 2
9 -1 -101 -135 -135 -100 -39 -9
5 -2 -78 -109 -113 -85 -36 -10
1 -6 -61 -92 -99 -76 -36 -14
0 -8 -49 -80 -90 -70 -35 -14
-5 -9 -36 -68 -79 -65 -33 -20
-7 -12 -28 -60 -73 -61 -33 -16
-9 -13 -20 -50 -64 -56 -31 -17
-12 -12 -13 -40 -54 -49 -30 -18
-13 -14 -8 -35 -48 -44 -29 -22
-13 -17 -3 -30 -41 -40 -28 -19
-12 -21 1 -28 -39 -38 -27 -22
-13 -23 4 -25 -39 -37 -27 -24
-12 -21 6 -25 -39 -38 -27 -24
-16 -21 8 -22 -38 -36 -27 -21
-17 -20 10 -19 -38 -36 -26 -22
-14 -19 10 -19 -38 -38 -27 -22
-18 -23 12 -15 -33 -36 -24 -16
-17 -24 13 -14 -31 -35 -25 -21
-14 -24 13 -14 -30 -35 -26 -22
-17 -22 13 -15 -30 -35 -27 -24
-18 -20 13 -15 -29 -33 -28 -16
-22 -21 16 -14 -28 -30 -26 -21
-20 -22 17 -13 -29 -31 -25 -19
-18 -22 18 -12 -29 -31 -25 -18
-18 -20 16 -13 -31 -34 -26 -23
-13 -17 14 -15 -33 -38 -30 -25
-12 -17 12 -13 -31 -37 -28 -27
-12 -19 14 -10 -26 -34 -27 -26
-7 -22 14 -10 -24 -33 -27 -27
-9 -23 14 -10 -23 -31 -26 -25
-11 -21 15 -9 -22 -28 -23 -18
-13 -20 18 -8 -21 -27 -23 -21
-16 -22 20 -6 -21 -26 -21 -22
-14 -22 20 -6 -23 -27 -23 -18
-13 -22 19 -4 -23 -27 -23 -17
-16 -21 21 -2 -22 -27 -23 -17
-16 -20 20 0 -21 -28 -23 -15
-20 -20 20 2 -18 -25 -23 -15
-19 -18 22 2 -15 -24 -22 -14
-17 -17 21 2 -13 -22 -22 -15
-15 -19 21 3 -13 -20 -21 -19
-14 -18 24 5 -12 -18 -20 -22
-15 -17 25 6 -12 -17 -18 -20
-13 -17 23 7 -13 -18 -19 -20
-9 -12 22 7 -14 -21 -20 -15
-9 -16 23 9 -14 -21 -22 -13
-10 -17 25 14 -10 -18 -20 -15
-15 -18 28 19 -4 -15 -19 -18
-17 -21 29 21 -1 -11 -17 -20
-15 -20 29 23 2 -9 -16 -18
-14 -19 30 25 5 -6 -14 -15
-16 -16 34 30 9 -2 -11 -12
-12 -13 35 31 10 -2 -9 -9
-11 -11 34 34 9 -2 -11 -14
-14 -10 37 40 14 1 -8 -12
-12 -11 41 45 16 3 -7 -12
-9 -13 39 50 20 4 -7 -15
-6 -11 41 54 26 7 -7 -11
-7 -12 42 58 30 9 -6 -12
-10 -12 45 63 37 15 -3 -10
-8 -10 48 71 43 21 1 -10
-7 -9 52 76 48 25 2 -5
-6 -5 56 83 56 29 7 -1
-6 -5 61 91 61 34 9 3
-3 -2 62 99 66 37 11 -2
-2 4 67 108 73 41 12 -2
-3 3 70 118 82 48 16 1
0 1 73 126 91 53 18 4
1 3 76 134 100 61 22 5
0 7 78 142 108 67 26 4
7 10 80 149 116 74 29 5
8 12 84 158 124 82 33 13
10 14 88 166 133 89 40 14
11 18 90 174 141 98 45 23
12 20 91 181 147 104 49 25
13 23 94 187 153 110 54 27
17 25 93 191 159 114 57 28
14 26 93 193 165 118 60 29
16 28 92 194 169 122 63 37
15 31 90 194 170 124 64 37
14 33 90 192 171 126 66 40
13 36 91 192 171 128 70 35
13 37 89 190 170 129 72 38
16 38 86 187 166 126 71 38
16 41 85 187 165 126 71 44
15 40 83 184 162 124 70 44
16 40 81 180 160 123 70 42
23 38 78 176 156 119 67 39
22 37 76 170 152 116 65 36
17 39 74 164 148 114 64 37
18 38 70 157 143 112 63 40
17 37 70 153 139 110 63 38
10 34 71 150 135 109 66 43
11 33 68 143 126 103 62 40
10 37 64 136 119 98 59 38
11 38 60 130 113 93 56 38
17 37 55 122 105 86 52 36
16 37 52 115 100 83 49 35
13 32 50 111 96 79 48 29
8 29 49 105 93 78 48 29
9 28 47 98 89 75 48 32
14 27 42 88 79 67 41 27
11 26 41 83 72 65 42 27
8 23 39 78 66 60 39 24
7 23 35 70 58 54 36 29
7 22 33 66 54 50 34 25
10 19 29 60 48 45 31 21
12 21 25 53 43 41 27 19
10 20 21 49 40 38 26 19
4 18 21 44 37 36 25 19
2 22 18 38 33 34 24 13
1 19 18 34 29 31 23 14
-3 14 17 31 26 30 23 16
0 13 16 28 21 26 20 13
6 11 11 20 13 19 14 13
9 9 9 18 10 16 13 10
7 8 8 16 9 14 12 8
4 7 4 12 5 10 8 10
4 8 3 9 4 10 7 10
1 9 2 6 3 8 5 7
2 5 3 6 4 10 7 4
3 5 4 4 2 8 5 3
2 4 3 1 -2 6 6 2
3 4 3 0 -4 4 4 3
2 3 1 -2 -6 1 2 -1
-1 1 1 -1 -8 -1 1 -2
0 0 1 -2 -8 -1 0 -1
-1 -1 1 -1 -6 -2 -1 0
3 -1 -2 -4 -8 -2 -2 -2
7 0 -2 -5 -7 -2 0 -4
5 -2 -1 -5 -5 0 1 0
2 -1 1 -3 -3 3 3 6
1 -2 1 -2 -3 4 6 10
0 -2 1 -1 -3 3 6 5
-1 0 1 0 -3 2 5 5
-1 0 1 1 -3 1 4 4
-2 -3 3 3 -1 3 6 3
-2 -3 2 3 1 3 4 2
-1 -2 -1 0 -1 2 1 2
3 0 -2 -1 -1 3 2 -2
4 1 -1 -1 0 3 2 -4
4 3 1 0 1 4 2 -2
5 5 0 0 1 3 2 -1
2 6 0 1 -1 2 2 1
4 7 0 1 -2 1 0 4
4 5 1 5 1 4 2 2
-2 1 3 7 4 6 5 6
1 2 3 9 5 7 4 6
1 1 2 7 6 8 4 -1
2 2 2 7 6 9 6 2
2 4 3 7 8 10 6 2
-1 2 5 8 9 10 7 6
2 1 3 6 6 8 6 5
6 3 4 7 5 8 6 3
4 1 5 10 7 8 7 7
6 2 3 10 8 9 7 9
4 3 4 11 9 9 8 7
-2 6 5 13 10 10 8 2
-4 4 5 13 12 11 8 2
-3 2 3 10 10 10 7 3
-2 4 4 9 9 10 7 5
-1 6 3 8 8 9 5 8
0 3 2 7 6 8 5 6
4 4 3 6 4 7 6 3
5 4 3 7 5 6 5 2
5 5 3 7 5 5 5 5
4 4 4 7 5 5 5 5
3 1 4 8 7 7 4 1
0 2 3 8 8 8 4 3
1 6 3 7 8 8 5 4
-1 6 3 4 7 5 4 5
-3 5 5 6 8 7 4 13
-3 3 4 5 6 6 3 6
0 5 3 3 3 3 1 1
0 7 5 4 3 4 1 2
-1 6 4 5 4 2 1 6
3 7 4 5 4 3 2 4
3 7 2 3 5 3 0 -2
4 9 1 3 4 3 0 -2
4 15 2 2 6 3 2 1
4 16 3 2 6 3 3 3
5 13 6 4 8 6 5 3
3 15 8 6 9 8 9 10
-1 16 11 7 10 10 11 13
4 18 10 8 8 9 9 7
9 17 6 5 6 6 5 8
9 15 6 4 5 4 5 9
7 14 8 5 6 5 5 12
7 12 10 7 7 6 6 11
10 11 11 7 8 7 6 9
6 15 12 6 10 7 7 6
3 15 13 6 9 8 7 7
6 16 9 5 9 8 7 9
4 15 7 4 8 8 9 9
8 13 4 3 6 6 7 7
9 15 2 3 7 9 8 13
8 16 -1 3 7 7 8 9
8 16 -2 2 7 8 8 8
10 14 -5 1 7 8 8 7
14 12 -9 -3 4 6 6 10
14 9 -8 -3 5 7 7 10
13 10 -8 -3 4 6 6 10
12 9 -8 -4 3 5 5 5
16 9 -8 -5 2 4 4 5
14 8 -8 -8 -2 1 0 5
9 7 -9 -9 -3 -2 0 7
11 3 -11 -11 -7 -5 -2 0
10 -1 -12 -13 -8 -6 -4 1
9 -4 -12 -12 -8 -6 -4 -1
6 -3 -10 -13 -7 -6 -5 2
5 -3 -9 -14 -8 -7 -5 0
3 -3 -5 -12 -5 -5 -5 1
-1 -4 -4 -12 -5 -5 -4 0
-4 -4 -3 -11 -6 -4 -3 0
-1 -5 -4 -13 -9 -9 -6 -2
-1 -4 -6 -16 -11 -13 -9 -7
-3 -4 -5 -15 -11 -13 -9 -10
-8 -4 -5 -14 -10 -11 -9 -6
-9 -6 -7 -15 -11 -13 -11 -5
-4 -7 -9 -17 -13 -14 -12 -6
-6 -9 -7 -19 -14 -15 -13 -5
-5 -10 -8 -20 -16 -15 -14 -11
-3 -8 -9 -21 -16 -16 -14 -11
-3 -9 -8 -20 -18 -16 -13 -6
-2 -11 -6 -19 -16 -16 -13 -7
1 -8 -10 -21 -18 -17 -16 -10
-2 -4 -10 -19 -18 -19 -15 -3
-1 -4 -10 -21 -18 -19 -16 -8
-4 -9 -8 -19 -17 -18 -16 -7
-8 -11 -5 -15 -13 -13 -11 -5
-11 -11 -3 -14 -11 -12 -9 -7
-13 -12 -3 -16 -14 -13 -11 -7
-13 -11 -5 -17 -16 -15 -12 -8
-9 -11 -6 -18 -17 -15 -12 -12
-6 -9 -5 -18 -16 -16 -13 -6
-8 -7 -6 -18 -15 -15 -13 -10
-9 -10 -7 -17 -15 -16 -13 -12
-8 -11 -5 -18 -15 -16 -12 -4
-5 -12 -5 -17 -14 -15 -13 -1
-6 -13 -6 -17 -14 -15 -13 -8
-5 -13 -6 -17 -15 -16 -14 -11
-6 -14 -5 -14 -15 -16 -16 -11
-9 -16 -1 -5 -10 -15 -16 -9
-8 -20 8 11 -2 -12 -17 -10
-7 -26 21 31 12 -8 -19 -19
-13 -20 38 53 31 4 -15 -19
-15 -8 58 81 53 18 -8 -14
-12 -1 78 111 79 37 2 -3
-6 9 97 134 108 62 17 4
-4 22 118 157 136 88 36 19
7 34 128 177 166 117 57 33
23 42 122 181 189 151 84 52
38 55 101 166 201 179 115 73
63 74 64 137 204 208 150 106
86 103 17 102 212 246 194 139
102 129 -35 56 214 279 232 174
111 152 -100 -4 197 298 265 208
121 181 -163 -54 190 328 306 244
134 205 -225 -102 185 354 341 279
136 216 -275 -163 149 347 352 293
141 200 -314 -216 98 304 330 283
144 163 -333 -256 27 226 276 254
146 112 -335 -274 -33 143 203 202
137 62 -321 -271 -74 75 137 157
122 33 -301 -271 -117 9 84 121
88 21 -265 -261 -154 -52 38 92
54 15 -225 -248 -185 -107 -4 57
35 10 -189 -227 -194 -132 -31 32
23 6 -162 -198 -177 -128 -40 18
19 5 -135 -166 -148 -112 -41 4
11 2 -112 -139 -122 -97 -41 -3
3 -1 -89 -114 -103 -82 -39 -11
-1 -4 -69 -96 -87 -72 -36 -11
-6 -8 -54 -82 -76 -64 -34 -10
-3 -9 -45 -73 -72 -63 -36 -18
-5 -11 -36 -63 -66 -59 -36 -16
-9 -15 -29 -54 -57 -57 -36 -20
-9 -20 -21 -44 -48 -51 -35 -17
-8 -23 -16 -38 -41 -45 -34 -20
-15 -23 -9 -30 -30 -38 -31 -23
-21 -23 -3 -25 -24 -35 -28 -24
-18 -22 -2 -25 -26 -34 -28 -21
-12 -17 -2 -26 -29 -36 -30 -21
-14 -19 3 -23 -27 -34 -27 -23
-17 -22 6 -19 -26 -33 -27 -22
-15 -22 6 -18 -28 -34 -29 -18
-16 -19 4 -18 -29 -37 -31 -21
-20 -19 5 -15 -26 -35 -31 -20
-20 -21 6 -14 -23 -32 -30 -26
-19 -24 5 -14 -22 -31 -30 -24
-19 -24 5 -16 -21 -31 -30 -24
-17 -23 7 -16 -20 -28 -29 -25
-20 -19 9 -15 -20 -27 -26 -22
-23 -18 12 -12 -19 -26 -24 -16
-23 -20 14 -10 -19 -26 -23 -18
-20 -21 13 -9 -22 -29 -25 -20
-19 -22 11 -8 -21 -30 -26 -20
-18 -26 11 -6 -20 -30 -27 -21
-16 -22 9 -7 -21 -30 -29 -22
-18 -20 10 -8 -18 -28 -28 -22
-17 -21 8 -10 -18 -28 -28 -23
-15 -22 11 -8 -17 -25 -26 -13
-17 -21 12 -8 -17 -24 -25 -18
-15 -21 14 -5 -16 -23 -23 -8
-17 -20 16 -2 -14 -22 -22 -8
-16 -21 16 0 -16 -22 -23 -17
-14 -21 15 0 -16 -24 -25 -20
-18 -22 18 4 -10 -20 -23 -15
-19 -21 17 4 -10 -21 -24 -17
-15 -20 15 3 -8 -21 -24 -25
-15 -20 14 2 -7 -20 -23 -22
-15 -19 16 3 -7 -17 -21 -21
-13 -18 16 4 -7 -16 -21 -17
-16 -20 22 8 -4 -13 -17 -10
-12 -14 20 10 -5 -14 -19 -12
-9 -15 21 13 -6 -15 -20 -17
-12 -18 21 16 -3 -15 -21 -14
-11 -17 23 20 1 -12 -19 -14
-13 -14 24 23 5 -9 -20 -18
-11 -13 23 23 7 -8 -19 -21
-10 -10 23 23 9 -8 -19 -17
-7 -14 25 25 10 -3 -16 -15
-8 -14 28 30 12 1 -11 -11
-17 -13 33 36 16 4 -7 -3
-18 -12 34 40 18 5 -7 -7
-14 -13 37 47 21 7 -6 -10
-11 -13 37 52 26 8 -6 -5
-10 -15 40 58 32 14 -5 -4
-8 -12 42 62 38 16 -5 -10
-6 -11 43 65 42 20 -4 -4
-2 -7 43 68 48 23 -3 -8
-5 -7 49 76 54 30 2 -7
-6 -3 52 83 59 35 6 -7
-4 -1 56 92 66 39 10 -2
-5 1 60 102 73 44 12 6
-8 1 66 112 81 50 16 7
2 3 66 120 87 53 16 8
2 4 68 129 96 60 18 7
2 6 73 139 108 67 24 7
3 9 75 147 118 74 26 5
2 15 77 154 126 81 30 8
2 18 82 162 136 92 37 14
7 17 85 170 143 99 42 22
8 17 88 178 150 103 47 25
10 20 90 184 154 108 50 30
14 21 91 188 157 113 53 34
17 25 89 192 163 115 55 28
17 30 89 196 169 121 57 26
19 37 86 195 171 123 58 31
22 40 86 195 176 126 60 32
23 39 84 193 178 130 63 32
23 40 83 193 179 134 67 34
20 44 84 192 179 136 70 40
20 45 84 191 176 134 72 40
16 45 84 189 175 133 72 43
15 44 82 187 172 132 72 44
14 41 81 184 169 128 72 45
16 40 78 180 166 128 70 51
17 40 73 173 162 125 68 47
17 40 71 168 158 122 66 41
16 42 69 161 156 119 65 41
15 40 68 155 150 117 64 37
19 41 66 150 145 114 63 40
19 40 64 145 140 110 62 41
18 40 60 138 132 104 59 37
15 39 57 133 125 100 57 38
14 34 53 127 118 93 53 39
14 33 52 121 114 91 51 37
12 33 48 113 109 86 48 30
9 30 45 105 102 81 45 31
8 29 44 100 98 79 46 34
7 28 41 92 92 76 45 33
9 28 38 85 83 70 42 28
9 30 35 77 77 65 40 28
11 28 31 70 67 59 35 29
14 24 29 67 62 56 34 23
13 23 26 61 58 50 30 27
13 21 22 55 53 45 26 27
11 21 21 51 50 43 26 21
7 19 19 45 47 41 24 16
6 16 16 39 42 38 24 16
6 15 15 34 38 35 23 19
0 12 16 32 34 34 24 16
-1 14 16 29 32 32 24 21
0 18 12 23 26 25 19 20
0 20 9 20 20 21 16 14
4 16 7 17 19 17 14 13
6 11 6 15 16 17 12 14
4 6 6 13 16 16 12 11
4 6 3 9 13 14 8 11
2 9 0 5 9 11 7 9
5 8 1 1 6 11 7 4
6 5 2 0 5 10 7 7
1 4 2 -1 2 8 6 7
1 4 1 -1 -1 6 5 1
3 3 1 -1 -3 4 4 1
3 2 2 0 -2 3 4 4
3 3 0 -1 -2 3 2 6
3 1 -2 -2 -2 2 2 11
6 3 -4 -4 -3 1 0 2
3 2 -3 -5 -3 3 1 2
1 1 -1 -5 -4 4 2 2
2 2 0 -4 -4 4 2 1
0 0 1 -3 -4 4 2 0
-1 0 1 -3 -5 3 3 7
3 2 0 -2 -7 1 1 4
4 2 -1 -2 -7 -1 -1 3
3 3 -1 0 -4 1 0 1
-1 4 0 0 -1 2 1 -1
-2 2 1 1 1 4 2 1
1 1 2 3 4 7 5 4
1 2 1 1 4 7 5 2
3 7 0 0 2 6 5 6
2 8 1 2 0 6 4 4
-1 7 1 3 -1 6 5 1
1 5 3 6 1 5 6 3
4 4 4 7 2 4 5 7
4 5 3 6 2 4 3 4
1 7 4 8 6 6 5 9
-2 5 3 8 8 7 4 7
-3 8 4 8 10 8 5 2
-1 8 3 9 9 9 5 0
0 7 4 8 9 9 5 1
5 9 4 7 7 8 5 3
3 7 4 7 6 7 5 1
-1 6 6 12 8 9 7 3
-1 6 7 14 9 10 7 6
-3 6 6 12 8 8 5 6
-4 6 5 12 10 10 7 5
1 5 4 10 11 9 6 5
3 5 4 8 10 8 5 9
1 10 4 9 11 10 7 6
-2 13 4 8 11 11 9 5
-2 10 5 9 10 9 8 8
-2 7 7 10 10 10 9 9
-5 5 8 12 9 10 9 5
-5 7 6 11 8 8 7 5
-2 7 5 10 8 7 5 8
2 5 3 8 6 6 3 4
5 4 4 8 6 6 4 4
1 4 3 6 8 7 5 7
2 7 3 5 7 7 5 4
2 9 4 5 7 7 7 4
3 7 3 4 3 3 5 7
3 8 4 4 2 4 5 8
-1 10 7 7 3 4 6 4
-6 9 8 8 4 5 6 4
-1 6 5 7 2 3 4 2
3 6 3 4 1 2 3 1
1 9 3 3 2 2 3 1
3 12 3 3 3 3 5 3
5 14 5 2 1 2 4 4
7 20 6 3 1 4 7 10
6 20 9 5 3 4 8 6
7 22 10 5 2 5 8 3
10 24 9 6 1 4 7 9
10 22 8 5 2 3 6 15
4 20 10 8 4 5 7 11
-1 20 10 8 5 6 7 5
1 18 10 6 3 3 4 1
0 19 13 8 5 5 6 1
0 20 14 8 6 6 7 2
2 21 11 5 3 5 6 6
4 22 10 5 2 5 7 6
7 21 8 3 1 4 7 6
9 19 7 4 1 5 9 4
6 18 8 7 5 7 11 13
8 17 4 6 4 5 9 10
11 17 0 3 3 6 9 8
12 13 -1 3 4 5 8 11
11 11 -2 2 3 4 7 9
15 12 -5 -1 1 3 6 4
18 14 -8 -5 -4 0 3 4
17 14 -7 -3 -5 -2 3 8
13 12 -4 -2 -4 -1 6 14
8 7 -3 -3 -7 -2 5 8
9 8 -6 -4 -8 -5 3 13
9 5 -7 -6 -9 -7 1 6
9 2 -8 -8 -10 -8 -1 -1
7 2 -6 -7 -8 -8 -1 1
4 1 -6 -9 -8 -9 -2 -2
3 -1 -4 -9 -10 -8 -2 2
5 2 -4 -11 -12 -9 -2 3
3 3 -7 -13 -16 -13 -5 -3
3 1 -4 -12 -16 -12 -5 -4
3 -1 -4 -13 -19 -15 -6 -3
-2 -3 -2 -11 -18 -15 -5 -2
0 -3 -2 -11 -18 -16 -9 -3
-4 -3 -3 -13 -18 -17 -10 -12
-7 -3 -3 -12 -16 -15 -9 -6
-5 -2 -4 -14 -17 -16 -10 -12
-5 -3 -4 -16 -18 -16 -10 -10
-5 -3 -3 -17 -19 -15 -9 -8
-6 -5 -4 -17 -21 -18 -10 -7
-5 -7 -3 -17 -22 -18 -11 -4
-5 -5 -3 -18 -24 -19 -11 -1
-8 -3 -4 -17 -24 -20 -12 -7
-7 -7 -3 -16 -23 -20 -12 -11
-5 -11 -1 -14 -21 -16 -10 -11
-4 -8 -5 -16 -22 -18 -11 -7
-5 -5 -4 -16 -20 -17 -11 -9
-7 -7 -1 -15 -19 -14 -8 -9
-7 -9 -1 -16 -21 -15 -8 -10
-10 -5 -2 -16 -23 -18 -9 -10
-10 -5 -3 -18 -26 -19 -11 -9
-9 -7 0 -15 -24 -18 -9 -3
-8 -6 -3 -15 -23 -19 -10 -5
-5 -7 -5 -17 -25 -22 -13 -15
0 -7 -6 -19 -27 -22 -16 -15
-6 -9 -5 -17 -23 -19 -12 -12
-9 -11 -3 -14 -20 -17 -11 -12
-8 -9 0 -14 -20 -16 -10 -7
-7 -11 0 -12 -21 -18 -12 -4
-8 -13 3 -3 -17 -19 -14 -5
-8 -16 12 13 -7 -16 -17 -11
-9 -14 24 34 6 -10 -18 -21
-11 -10 41 56 24 0 -15 -20
-15 -5 63 86 49 17 -6 -6
-13 3 82 114 74 37 5 -3
-2 14 98 136 101 61 21 -1
-3 21 122 161 132 88 40 15
3 33 136 185 164 123 66 30
15 47 128 186 187 155 94 52
41 62 101 165 194 181 121 77
68 82 63 137 198 211 157 107
90 110 16 100 206 249 200 149
106 134 -37 53 203 278 236 177
117 160 -103 -9 186 298 267 205
128 188 -168 -60 178 327 308 241
135 211 -226 -106 172 352 344 273
141 220 -277 -169 133 340 349 286
143 202 -315 -222 75 292 324 275
142 163 -329 -258 6 213 268 244
133 115 -326 -270 -47 135 197 199
128 69 -314 -270 -90 65 131 153
119 43 -293 -268 -134 -2 77 116
89 30 -259 -260 -171 -64 31 80
54 20 -216 -243 -197 -113 -7 55
29 12 -180 -220 -201 -132 -30 32
20 10 -154 -191 -183 -125 -38 11
18 9 -131 -162 -157 -111 -40 0
12 5 -107 -134 -132 -95 -39 -6
2 3 -82 -109 -112 -81 -35 -13
-1 0 -64 -91 -96 -72 -34 -15
-2 -4 -53 -80 -89 -68 -36 -18
-6 -4 -41 -69 -81 -62 -34 -22
-8 -6 -33 -60 -73 -60 -34 -20
-11 -7 -24 -51 -64 -56 -33 -18
-11 -7 -17 -41 -55 -49 -32 -18
-11 -11 -12 -35 -47 -44 -31 -25
-12 -14 -8 -31 -42 -40 -30 -25
-11 -15 -5 -28 -39 -37 -29 -27
-15 -18 0 -25 -36 -34 -26 -24
-15 -16 2 -23 -36 -33 -24 -25
-15 -16 5 -21 -36 -34 -25 -23
-15 -16 7 -18 -37 -33 -25 -23
-12 -15 8 -15 -37 -35 -27 -23
-10 -15 5 -16 -37 -38 -31 -26
-11 -14 5 -14 -34 -36 -32 -29
-10 -17 7 -13 -31 -32 -29 -29
-13 -19 6 -13 -29 -31 -29 -24
-18 -17 9 -13 -26 -28 -26 -24
-19 -17 10 -13 -27 -26 -25 -22
-16 -17 12 -12 -29 -27 -24 -18
-16 -17 13 -11 -29 -28 -24 -21
-17 -20 14 -10 -29 -28 -24 -18
-16 -20 14 -8 -30 -30 -26 -22
-14 -19 11 -7 -29 -31 -27 -27
-14 -20 12 -6 -27 -30 -28 -25
-11 -18 12 -7 -26 -29 -28 -22
-14 -17 13 -5 -22 -27 -26 -20
-15 -16 13 -6 -20 -23 -25 -20
-16 -15 15 -6 -20 -21 -23 -19
-23 -19 17 -3 -20 -20 -20 -17
-20 -19 18 -1 -20 -20 -19 -21
-19 -16 19 0 -21 -20 -20 -18
-20 -15 18 2 -21 -21 -21 -19
-16 -13 16 3 -21 -23 -23 -23
-15 -13 16 3 -18 -21 -24 -14
-11 -15 16 3 -17 -20 -24 -14
-9 -15 16 5 -12 -18 -22 -17
-12 -14 17 4 -11 -16 -20 -20
-10 -11 18 4 -11 -15 -20 -20
-11 -9 21 8 -9 -13 -17 -19
-13 -12 22 11 -8 -12 -16 -16
-12 -14 25 15 -6 -11 -16 -14
-11 -17 25 17 -6 -13 -17 -16
-14 -18 25 21 -3 -12 -16 -17
-13 -15 26 23 1 -9 -16 -17
-14 -15 26 24 3 -7 -15 -13
-13 -12 27 28 8 -3 -13 -14
-7 -9 27 26 8 -4 -14 -18
-9 -11 30 30 10 1 -11 -18
-8 -7 32 32 12 1 -10 -17
-8 -6 34 37 14 2 -10 -16
-7 -7 37 42 16 4 -9 -15
-6 -7 38 47 19 5 -9 -10
-6 -10 39 53 23 7 -8 -9
-6 -8 41 58 29 10 -8 -12
-5 -6 42 62 34 13 -7 -12
-5 -4 44 67 39 18 -5 -7
-3 -2 47 72 46 23 -1 -2
0 -2 51 80 51 27 3 -8
0 -3 56 89 59 35 8 -5
-2 -1 61 99 66 39 12 -2
-2 2 64 107 70 42 12 3
1 7 66 115 75 45 12 3
6 5 67 123 83 49 14 4
6 5 71 133 92 56 17 1
7 9 74 142 103 64 23 9
7 11 77 149 112 71 25 10
4 14 82 159 123 81 31 12
9 17 85 166 131 89 37 16
8 19 89 174 139 96 44 21
9 22 92 183 147 102 49 24
14 24 93 189 150 106 50 24
17 27 92 194 155 110 54 32
20 30 91 199 163 115 56 32
19 31 93 203 168 119 58 36
21 34 91 203 172 124 62 36
20 38 90 202 174 128 65 36
20 39 87 200 174 129 65 39
24 39 90 199 175 133 69 40
21 39 91 198 176 134 73 44
23 42 88 195 173 131 72 44
22 47 88 194 171 131 72 41
23 46 86 192 167 127 70 42
22 44 83 188 166 125 70 43
17 44 84 187 166 127 71 48
18 45 78 180 162 123 69 41
24 49 73 172 157 119 64 43
22 51 69 163 152 114 62 42
23 51 68 157 145 111 62 38
22 47 67 153 140 108 61 41
16 41 68 150 136 106 63 43
15 39 67 145 131 102 63 48
16 38 64 139 125 97 59 44
13 36 61 134 121 93 57 45
13 37 57 128 116 90 55 37
10 35 54 120 111 86 52 37
11 34 50 111 105 81 49 35
11 37 45 102 98 75 47 35
11 38 41 93 88 71 44 34
14 36 39 88 81 67 43 32
13 30 38 83 76 62 41 37
11 26 35 78 69 57 38 32
14 27 32 72 63 52 36 25
13 28 29 66 58 47 32 23
13 23 26 61 54 45 30 22
14 23 23 56 51 42 29 22
13 22 20 50 48 40 27 26
12 23 17 44 44 38 26 23
12 24 17 38 39 35 25 21
8 22 15 34 32 30 23 18
3 18 16 33 31 28 23 17
3 16 13 28 25 24 19 14
5 16 10 24 19 20 16 11
5 14 9 23 19 18 14 12
6 13 7 20 16 15 11 11
4 14 6 18 16 15 11 9
12 10 3 12 12 11 8 3
11 6 3 10 12 11 9 3
12 8 4 9 11 11 10 6
8 8 2 6 7 9 9 7
9 6 2 5 4 6 8 4
7 5 2 3 1 5 8 6
5 4 1 3 -1 2 4 2
-5 4 4 7 4 5 6 3
-3 3 2 7 3 4 5 4
0 1 0 3 1 2 4 -1
1 2 -1 1 1 2 3 1
5 4 -1 0 2 2 3 5
5 5 0 1 2 4 4 3
4 7 0 1 1 4 6 3
4 6 0 1 1 4 4 7
6 7 0 2 -1 3 3 5
0 4 1 5 1 4 5 -1
0 2 1 6 2 5 5 4
3 2 2 7 4 5 4 7
4 2 -1 5 2 4 3 8
3 1 0 7 5 5 6 -1
-1 2 2 8 8 9 8 0
0 2 3 9 9 10 9 4
3 4 3 9 8 10 9 6
4 6 3 10 9 10 9 3
6 8 3 10 5 8 7 9
10 8 2 11 6 6 6 14
9 7 2 12 8 6 5 9
3 6 3 14 10 7 5 10
4 7 3 13 9 9 6 0
2 7 2 13 10 8 6 -1
3 7 3 14 11 10 7 3
5 7 3 12 11 10 8 5
8 10 2 12 9 10 8 -1
6 14 3 13 11 10 9 2
3 13 4 14 10 10 8 7
3 9 6 19 13 13 11 4
6 9 6 18 14 12 11 6
5 9 7 18 14 11 9 6
4 8 6 18 15 13 9 4
-1 6 6 19 17 15 10 6
0 5 7 18 17 16 11 9
2 7 7 16 16 16 11 11
5 5 6 14 13 14 10 11
3 5 8 15 13 13 11 11
6 6 7 14 10 11 9 9
5 9 6 13 9 10 9 3
4 13 5 14 10 8 7 0
5 11 4 14 11 8 6 4
5 10 2 11 9 8 5 5
1 9 3 12 10 10 7 4
-5 7 5 12 11 11 9 3
2 7 4 10 9 10 8 6
6 9 2 8 6 8 7 3
1 7 5 10 7 8 9 7
0 5 7 11 7 9 10 10
7 5 4 8 3 6 7 13
9 8 3 9 3 4 4 6
8 9 4 9 4 4 4 -1
5 10 2 8 4 4 3 -1
7 10 3 8 5 6 5 5
9 13 2 6 5 5 3 -1
6 13 4 6 5 6 3 -2
5 14 8 7 8 8 8 6
4 13 10 10 8 10 10 11
1 15 11 11 8 11 10 11
5 19 9 11 6 10 9 9
4 21 12 12 7 9 9 9
6 24 12 13 9 10 9 7
8 21 12 13 10 12 10 4
9 17 12 13 11 12 10 4
9 19 14 12 11 12 10 5
9 18 14 11 11 13 11 8
5 18 18 12 12 15 13 25
4 17 18 13 11 13 13 16
8 15 15 12 8 12 12 12
10 17 12 11 7 11 12 13
9 16 10 12 8 10 12 16
11 14 8 11 6 10 10 23
15 17 4 8 6 9 9 11
16 17 2 8 7 10 10 8
18 14 2 8 9 11 11 8
12 15 3 10 11 15 14 10
11 17 0 7 7 12 12 9
13 14 0 8 8 10 12 11
19 12 -4 4 3 6 7 8
19 13 -5 5 1 5 7 9
15 15 -5 6 1 4 6 8
15 9 -6 4 0 3 4 4
15 3 -6 1 -2 3 3 8
18 2 -8 -2 -4 -1 1 5
15 1 -8 -4 -6 -1 -1 4
12 1 -6 -3 -6 0 0 1
13 3 -7 -5 -8 -1 0 -1
12 3 -4 -4 -9 -3 0 -4
12 2 -2 -2 -8 -2 -1 -2
10 -1 -2 -2 -8 -3 -1 1
9 -4 -3 -2 -10 -5 -3 6
7 -6 -4 -3 -10 -6 -5 2
4 -5 -5 -6 -12 -6 -5 -7
3 -3 -4 -6 -11 -6 -4 -2
2 -5 -3 -8 -11 -7 -5 -2
2 -6 -2 -9 -13 -7 -7 -5
1 -5 -2 -10 -13 -7 -5 -4
-3 -6 0 -9 -13 -8 -6 -1
-1 -7 -2 -10 -16 -11 -8 -4
2 -10 -1 -9 -17 -11 -8 -7
-5 -13 1 -6 -14 -10 -7 2
-7 -9 0 -7 -15 -11 -9 -1
-6 -6 -4 -10 -17 -12 -11 -9
-4 -8 -4 -10 -17 -12 -11 -10
-2 -9 -2 -9 -14 -9 -9 -12
-4 -10 -1 -10 -13 -8 -8 -11
-5 -8 -2 -11 -16 -9 -8 -6
-3 -10 0 -9 -15 -9 -7 -6
-3 -13 0 -8 -15 -9 -7 -7
0 -9 0 -8 -16 -10 -7 -9
-4 -7 0 -6 -14 -10 -7 -4
-3 -9 -2 -8 -15 -11 -9 -7
-6 -8 -1 -8 -14 -9 -8 -4
-8 -10 -2 -8 -15 -10 -8 -7
-9 -11 0 -8 -12 -8 -7 -7
-6 -12 0 -10 -13 -8 -7 -2
-6 -13 -1 -11 -16 -10 -9 -7
-3 -14 1 -7 -15 -11 -9 -9
3 -16 0 -5 -17 -15 -14 -7
2 -18 3 4 -13 -14 -16 -13
0 -21 13 23 -1 -11 -18 -19
0 -21 26 43 14 -6 -20 -23
-5 -15 43 65 32 7 -14 -23
-10 -8 67 97 59 26 -3 -14
-7 0 86 122 84 44 8 -1
-2 11 106 145 110 69 24 3
3 23 126 167 136 94 43 13
12 34 136 188 166 125 66 37
29 44 127 190 189 158 93 52
47 58 101 173 200 185 123 74
74 79 60 142 205 216 158 104
93 107 12 107 217 258 202 144
104 134 -43 58 216 288 238 174
119 159 -108 -1 202 310 272 212
128 188 -171 -50 198 341 313 252
135 212 -227 -95 190 365 348 278
140 219 -277 -157 152 354 356 288
145 196 -312 -206 96 306 330 283
146 158 -327 -243 23 224 270 250
141 108 -325 -256 -32 142 198 201
134 61 -312 -254 -74 72 131 154
121 37 -293 -256 -119 5 76 114
92 24 -257 -248 -155 -55 32 82
58 14 -214 -232 -182 -104 -5 55
39 11 -180 -212 -188 -124 -28 30
26 12 -152 -184 -172 -118 -35 15
20 11 -127 -152 -146 -103 -36 6
15 8 -104 -125 -124 -92 -38 -6
8 5 -81 -102 -105 -78 -36 -10
3 3 -66 -84 -91 -71 -35 -4
-2 -4 -52 -71 -80 -64 -34 -12
-4 -10 -41 -59 -71 -59 -34 -19
0 -11 -32 -51 -64 -55 -34 -22
-2 -14 -25 -43 -55 -51 -33 -22
-9 -13 -15 -32 -44 -42 -30 -22
-11 -15 -8 -25 -38 -36 -28 -22
-13 -21 -2 -20 -32 -32 -25 -21
-18 -23 5 -13 -25 -27 -21 -15
-13 -22 7 -13 -27 -28 -23 -14
-9 -19 5 -13 -30 -31 -24 -16
-10 -17 5 -12 -29 -32 -26 -17
-13 -19 7 -11 -30 -32 -27 -18
-11 -16 7 -10 -30 -33 -28 -22
-12 -14 7 -8 -28 -33 -29 -23
-12 -18 9 -7 -25 -31 -29 -21
-12 -18 11 -5 -23 -29 -28 -26
-14 -19 11 -5 -23 -28 -27 -23
-12 -18 11 -5 -22 -28 -26 -20
-9 -16 13 -3 -21 -26 -25 -21
-10 -17 13 -4 -23 -27 -25 -23
-8 -16 13 -3 -22 -28 -25 -24
-9 -16 13 -2 -23 -28 -25 -22
-8 -16 12 -2 -25 -28 -27 -23
-16 -18 17 4 -18 -25 -22 -17
-19 -22 18 5 -16 -23 -22 -19
-18 -21 17 4 -17 -23 -23 -16
-14 -19 17 3 -16 -23 -24 -21
-16 -19 18 3 -15 -22 -22 -20
-14 -15 19 4 -15 -21 -22 -17
-10 -14 18 3 -17 -23 -23 -16
-6 -17 18 4 -16 -23 -24 -13
-7 -16 19 6 -16 -23 -23 -19
-10 -17 18 8 -16 -22 -24 -21
-9 -16 19 10 -14 -22 -23 -16
-11 -15 19 12 -11 -19 -23 -14
-12 -18 19 12 -11 -18 -22 -16
-9 -19 21 15 -7 -14 -18 -16
-9 -19 23 16 -5 -13 -16 -16
-13 -18 26 19 -1 -9 -14 -16
-13 -15 26 20 0 -9 -12 -14
-11 -14 26 22 1 -10 -13 -12
-8 -13 26 24 1 -10 -14 -7
-6 -13 27 28 4 -8 -13 -3
-5 -10 25 27 3 -10 -15 -12
-4 -6 25 28 5 -9 -16 -15
-8 -6 26 30 7 -7 -16 -11
-13 -10 30 36 12 -2 -13 -11
-11 -13 32 38 16 0 -10 -12
-7 -12 34 41 16 2 -9 -11
-7 -7 35 45 19 3 -8 -10
-9 -6 39 49 23 5 -7 -10
-1 -6 39 51 23 4 -9 -8
-1 -6 42 57 27 8 -8 -9
-2 -8 44 63 34 12 -4 -5
-2 -8 46 68 39 17 -3 -8
-3 -6 48 72 44 20 -1 -4
-4 -7 51 78 48 23 2 -4
-6 -4 55 87 56 29 6 -4
-7 -3 60 93 62 35 10 4
-1 -3 61 99 65 36 10 3
5 -1 64 107 72 40 12 -1
5 0 67 115 78 43 13 1
3 3 72 126 87 50 17 7
5 5 75 136 98 56 22 9
7 5 78 144 107 62 24 9
9 8 83 154 114 69 28 13
9 10 86 161 121 74 32 12
8 13 89 171 130 82 37 14
10 14 92 180 140 92 42 23
11 16 94 187 146 98 46 29
13 19 96 194 154 103 49 28
15 23 98 202 161 109 53 28
16 26 99 206 166 115 58 31
18 30 99 211 174 121 62 36
18 31 100 214 181 126 64 38
19 34 99 215 182 130 66 37
22 37 98 215 185 132 69 40
24 36 98 215 187 134 71 41
23 36 98 215 186 137 74 45
23 41 97 212 185 136 75 44
21 42 96 210 183 135 74 44
23 47 93 207 180 133 73 45
21 47 91 205 177 132 72 47
23 46 89 201 175 131 72 45
27 45 86 196 174 129 70 45
26 44 83 191 170 127 69 45
28 43 81 186 168 125 70 44
29 43 80 180 165 123 70 51
25 44 77 174 159 120 69 45
21 47 75 169 153 116 67 48
15 45 74 165 150 113 65 43
17 44 70 158 143 108 62 44
21 42 67 151 136 104 60 44
16 40 64 145 131 99 58 39
19 41 58 136 122 93 53 37
20 42 55 128 116 89 52 34
17 37 54 122 113 88 51 34
18 35 52 115 109 85 51 41
19 34 50 108 103 80 50 39
17 36 46 100 96 75 48 32
15 35 43 95 90 68 44 29
12 30 39 88 83 64 41 28
13 29 37 83 80 62 40 29
13 28 34 77 75 56 38 27
12 21 32 72 72 55 37 27
13 21 29 65 66 52 35 32
11 22 26 60 60 48 34 34
11 24 23 53 55 45 31 30
12 24 22 49 52 44 30 22
9 21 21 46 49 42 30 22
10 21 17 41 45 36 27 26
14 24 14 35 39 33 22 19
15 23 9 30 34 28 18 12
14 22 9 27 33 26 18 11
9 14 8 25 32 25 16 12
4 12 8 23 30 24 16 11
9 11 8 21 28 23 16 8
9 9 7 17 25 21 15 10
7 10 8 16 22 20 14 11
6 11 5 14 18 18 13 14
5 12 4 12 15 15 11 11
8 13 6 12 15 14 10 9
6 9 7 11 16 14 11 9
8 8 4 10 14 11 9 6
9 9 2 8 15 10 7 3
6 6 1 7 14 10 9 9
5 6 3 8 16 12 10 6
6 7 2 6 16 11 9 1
-1 4 6 9 17 14 11 6
0 5 6 9 17 14 12 10
9 6 3 8 15 12 9 7
11 6 4 8 13 10 8 0
9 9 5 10 13 12 9 2
6 8 4 11 14 12 8 4
6 7 3 11 15 12 9 0
4 7 4 12 16 13 10 1
4 6 5 12 17 13 9 2
6 6 6 13 19 15 11 3
2 5 6 12 19 16 12 4
0 5 7 14 19 17 13 10
1 10 7 15 20 17 12 7
5 15 4 13 16 13 9 4
8 16 6 14 18 14 9 3
14 13 3 15 19 13 9 7
16 12 2 14 18 12 8 5
13 12 5 15 20 15 10 2
9 11 7 17 24 17 12 6
9 11 6 17 25 17 12 2
8 13 7 18 24 17 12 3
0 13 8 18 23 18 13 13
1 13 9 20 23 19 13 9
4 11 11 22 23 20 15 8
7 10 10 22 22 19 14 7
12 11 8 21 22 18 12 6
11 12 6 20 21 17 12 10
9 13 6 20 21 18 13 5
9 18 8 19 22 19 13 6
5 16 8 19 23 19 13 2
0 13 11 22 25 22 17 8
1 13 11 21 24 22 17 7
3 13 11 20 22 20 15 10
2 12 10 21 23 19 15 16
-3 9 10 21 23 20 16 19
-3 8 10 21 23 20 16 18
-1 11 9 20 24 20 15 18
5 10 9 18 23 19 15 14
7 11 8 17 23 19 14 12
5 14 7 14 21 17 12 6
9 13 5 12 17 14 9 5
10 8 7 13 17 15 10 6
6 7 6 13 18 14 10 3
7 12 4 11 16 12 9 4
5 11 4 11 17 13 9 4
3 10 5 11 17 12 9 5
7 12 3 10 16 11 7 4
6 12 4 11 17 13 9 5
3 12 6 11 20 15 10 4
6 13 5 10 19 14 9 2
3 11 8 11 19 15 10 7
4 14 8 9 18 15 11 17
7 18 7 9 18 14 10 12
6 19 9 10 17 14 11 8
6 19 11 12 17 16 12 11
4 23 10 13 17 16 13 11
12 24 8 12 16 15 11 8
14 26 10 11 16 15 12 7
8 28 12 12 18 17 14 9
8 28 13 13 20 19 15 11
6 27 13 14 21 20 16 18
10 25 13 13 19 18 15 23
14 24 15 13 20 17 14 12
14 24 14 12 20 15 12 5
14 24 13 12 19 14 12 7
17 25 10 11 20 14 12 10
14 24 7 11 21 15 13 9
9 25 9 12 24 18 15 14
13 24 6 10 24 18 15 11
18 23 1 8 22 16 13 6
16 23 2 10 23 18 15 13
14 24 2 9 23 18 17 10
17 23 -1 8 22 17 16 17
15 22 0 9 22 16 16 16
12 18 0 10 22 17 16 13
15 17 -1 8 22 15 15 12
13 14 -1 9 23 16 15 12
15 10 -4 6 20 14 13 11
14 8 -3 5 18 13 13 9
13 6 -4 1 16 10 10 9
13 4 -6 -2 12 9 8 8
15 5 -7 -5 9 6 6 7
12 5 -6 -4 9 4 4 4
11 8 -7 -5 7 2 3 1
9 7 -7 -4 6 1 1 2
9 3 -5 -4 8 2 2 4
7 3 -4 -3 10 4 4 3
3 0 0 -2 10 5 4 2
0 3 -2 -5 7 3 4 -1
-1 8 -5 -9 3 0 0 4
-3 5 -4 -9 0 0 0 0
0 2 -2 -9 -1 0 1 -2
1 -1 -2 -8 -2 0 1 -2
-1 -1 -3 -8 -4 -2 1 -5
-1 0 -2 -9 -6 -2 -1 -3
3 -3 -3 -11 -8 -5 -3 -1
0 -1 -4 -11 -7 -5 -3 1
-1 -1 -2 -10 -7 -3 -3 -3
2 -1 -4 -13 -10 -6 -4 -5
4 3 -6 -14 -12 -7 -6 -6
-2 -1 -3 -11 -9 -4 -3 -6
-4 -2 -1 -10 -10 -3 -1 -5
-4 -3 -1 -9 -9 -3 -1 -2
-7 -4 1 -7 -7 -2 1 0
-8 -3 0 -8 -9 -3 1 -4
-5 -2 -1 -9 -9 -4 -1 0
-5 -1 -2 -9 -8 -4 -2 -2
-5 3 -3 -10 -10 -5 -3 0
-7 4 -2 -10 -9 -5 -3 -6
-7 -1 0 -9 -8 -3 -2 -4
-2 -6 -1 -10 -9 -4 -2 -3
-6 -7 -1 -10 -11 -4 -3 -2
-7 -5 -1 -10 -10 -4 -2 0
-7 -4 -1 -9 -10 -4 -1 -3
-8 -6 0 -7 -10 -5 -3 -4
-5 -10 1 -4 -9 -6 -4 -6
-4 -13 4 4 -4 -5 -6 -7
-4 -16 13 20 5 -3 -9 -7
-6 -15 28 41 20 2 -8 -6
-10 -7 44 62 37 14 -3 -7
-9 1 65 91 60 31 6 -7
-7 9 86 121 85 49 17 6
-5 17 106 146 112 71 31 8
-4 27 130 174 141 99 49 18
4 38 142 197 172 130 73 36
27 48 130 195 192 157 96 54
48 64 102 174 201 183 122 76
72 84 61 142 207 213 158 106
96 114 11 106 218 252 200 146
110 139 -44 59 218 281 235 179
124 164 -110 -2 202 299 267 209
137 193 -173 -46 200 329 308 243
148 214 -230 -91 193 350 338 274
151 218 -280 -151 155 336 339 286
156 194 -315 -201 98 285 310 270
157 150 -331 -244 23 198 246 234
150 102 -328 -258 -32 120 176 187
141 59 -316 -261 -76 53 114 139
122 33 -293 -261 -118 -7 68 108
88 23 -256 -252 -151 -57 30 73
58 17 -214 -238 -179 -101 -6 48
47 15 -182 -220 -186 -121 -27 29
33 17 -153 -188 -166 -112 -30 15
20 13 -126 -155 -140 -96 -30 4
17 11 -105 -127 -116 -83 -30 -1
9 8 -82 -103 -96 -68 -27 -2
-2 4 -63 -86 -80 -58 -24 -2
-1 2 -51 -73 -72 -54 -25 -7
-3 -3 -40 -63 -65 -49 -24 -9
-4 -6 -31 -54 -59 -46 -24 -11
-6 -7 -22 -45 -52 -42 -24 -14
-10 -10 -14 -35 -43 -36 -22 -16
-10 -9 -8 -27 -36 -32 -20 -14
-9 -8 -5 -22 -33 -31 -22 -17
-14 -12 -1 -17 -26 -27 -18 -14
-13 -12 3 -16 -23 -23 -17 -12
-12 -11 3 -17 -24 -24 -17 -13
-16 -13 8 -13 -22 -23 -15 -8
-15 -14 9 -12 -22 -23 -15 -16
