I II V1 V2 V3 V4 V5 V6
3 -6 -15 0 34 18 15 15
0 2 -18 -3 30 14 10 9
-3 11 -20 -5 26 11 7 5
-3 4 -22 -8 23 10 5 4
-6 -4 -20 -5 25 11 7 5
-6 -4 -18 -3 25 12 6 6
-10 -3 -18 -4 24 11 6 4
-14 -7 -20 -4 24 10 5 4
-3 -6 -19 -2 25 11 6 4
-3 -5 -23 -4 21 10 4 1
0 -5 -23 -8 18 6 3 0
7 -10 -23 -7 17 8 3 0
5 -9 -21 -6 17 8 3 0
1 -7 -25 -10 14 6 1 0
0 -6 -18 -6 17 9 5 4
-2 -9 -18 -4 19 10 4 3
-1 -3 -22 -8 17 7 1 -1
-11 -4 -23 -7 15 6 0 1
-8 -11 -21 -3 18 10 2 3
-10 -6 -22 -6 15 7 -1 -1
-9 -3 -24 -8 14 5 -2 -2
-7 -2 -24 -8 13 6 -3 -3
-9 -10 -20 -2 16 9 2 0
-7 -11 -24 -7 12 6 -2 -1
-6 -10 -24 -5 16 8 1 1
-4 -6 -24 -4 16 8 0 3
4 -2 -29 -10 10 2 -5 -4
7 -5 -28 -11 8 0 -7 -5
1 -10 -20 -4 13 6 -1 -2
-4 -10 -18 -2 13 8 -1 -2
-7 -12 -23 -2 13 7 0 -6
-7 -11 -27 -4 11 6 -2 -8
-9 -10 -23 -3 11 7 -2 -10
-11 -14 -23 -4 12 7 -1 -9
-16 -12 -22 0 16 11 5 -6
-6 -13 -22 -2 14 11 2 -7
1 -10 -26 -4 9 7 -2 -13
-3 -1 -26 -6 8 4 -4 -13
-1 -4 -23 -2 11 8 -3 -13
1 -11 -22 -5 8 6 -6 -16
2 -9 -20 -4 8 7 -5 -15
4 -13 -23 -4 8 7 -4 -14
4 -12 -23 -4 7 7 -5 -16
-3 -9 -25 -6 6 5 -6 -16
-13 -12 -12 0 12 11 1 -10
-9 -9 -12 1 12 11 1 -9
-10 -10 -11 2 11 12 1 -10
-12 -12 -14 1 11 12 0 -12
-8 -7 -8 7 14 14 1 -12
-3 -12 -7 9 13 13 -3 -17
1 -19 -9 13 13 12 -5 -20
0 -23 -5 20 18 15 -5 -22
-1 -26 1 26 23 19 -5 -26
5 -29 4 31 29 25 -1 -27
13 -26 3 40 41 38 8 -23
18 -21 6 54 59 55 21 -15
23 -23 20 73 77 76 40 -5
21 -22 25 93 101 104 64 8
24 -12 32 122 136 143 95 29
33 -12 36 140 162 175 127 48
40 -1 31 148 183 208 163 74
57 0 31 155 202 252 218 115
76 15 17 143 204 276 254 146
77 31 1 119 194 283 274 169
60 45 2 104 193 285 286 194
34 60 3 74 163 236 252 195
11 75 -6 24 94 137 172 174
-2 88 -19 -37 13 31 86 142
-10 87 -25 -78 -50 -53 12 106
-9 75 -32 -104 -101 -117 -51 65
-17 61 -27 -106 -118 -145 -88 35
-24 50 -15 -91 -110 -148 -100 21
-28 52 -11 -81 -107 -146 -107 8
-36 32 -4 -70 -100 -146 -117 -11
-43 29 4 -51 -81 -135 -120 -27
-47 30 12 -35 -69 -126 -124 -44
-55 22 21 -20 -57 -117 -124 -59
-55 7 37 -3 -45 -108 -122 -67
-47 0 46 16 -31 -98 -120 -73
-40 -12 53 31 -21 -92 -119 -81
-46 -17 65 50 -7 -80 -112 -85
-51 -19 77 72 11 -64 -101 -82
-45 -16 82 87 22 -52 -93 -83
-43 -27 93 103 33 -40 -84 -82
-46 -29 103 119 45 -30 -75 -79
-46 -30 114 135 57 -20 -67 -75
-42 -39 124 140 59 -13 -62 -73
-42 -39 129 137 58 -13 -61 -72
-38 -33 136 140 64 -8 -59 -72
-40 -36 140 135 60 -9 -60 -74
-40 -29 139 131 57 -12 -62 -76
-47 -34 149 136 56 -10 -59 -72
-48 -40 156 137 55 -8 -59 -73
-39 -42 158 129 46 -14 -63 -77
-38 -41 164 121 42 -16 -63 -76
-44 -40 169 117 37 -16 -63 -75
-47 -41 169 113 35 -16 -62 -76
-46 -44 173 109 32 -18 -61 -75
-41 -37 181 107 32 -18 -61 -75
-46 -36 183 101 27 -22 -64 -76
-57 -31 183 89 21 -26 -66 -77
-59 -33 185 83 16 -28 -68 -74
-63 -27 186 72 10 -30 -68 -75
-67 -33 180 58 6 -31 -67 -73
-67 -27 169 48 3 -27 -61 -67
-61 -22 155 34 -3 -29 -61 -66
-59 -19 141 23 -10 -28 -60 -65
-58 -15 126 7 -22 -34 -61 -63
-51 -15 115 -4 -28 -34 -60 -61
-47 -16 102 -10 -33 -33 -57 -58
-48 -11 87 -18 -38 -34 -55 -55
-44 -9 75 -24 -42 -35 -53 -51
-37 -10 59 -26 -42 -30 -48 -49
-34 -13 43 -31 -45 -31 -46 -49
-29 -3 35 -32 -44 -28 -43 -47
-29 -6 33 -28 -38 -22 -37 -41
-31 -12 29 -27 -35 -18 -32 -39
-20 -1 19 -30 -39 -21 -33 -41
-15 -1 18 -23 -32 -15 -28 -36
-16 -8 16 -19 -30 -11 -25 -34
-14 -10 7 -19 -29 -9 -22 -31
-12 -17 5 -15 -27 -7 -19 -28
-8 -12 0 -16 -27 -8 -20 -31
-6 -13 -5 -19 -29 -10 -19 -32
-3 -5 -7 -18 -27 -9 -19 -31
2 9 -12 -17 -28 -11 -22 -35
1 -4 -11 -13 -24 -5 -17 -32
0 -12 -9 -9 -20 -1 -11 -26
3 -7 -6 -4 -17 2 -8 -22
-3 -5 -11 -6 -22 -2 -10 -25
-7 -4 -11 -7 -22 -2 -9 -23
-3 -9 -16 -8 -24 -3 -10 -22
-3 -12 -17 -7 -24 -1 -9 -23
-3 -15 -20 -9 -26 -4 -9 -23
1 -4 -26 -13 -31 -8 -13 -26
-1 -8 -24 -10 -31 -6 -12 -24
0 -15 -21 -7 -28 -2 -8 -23
-1 -17 -21 -8 -28 -3 -7 -21
-3 -7 -18 -4 -28 -2 -5 -20
-1 -13 -19 -7 -31 -3 -7 -21
2 -16 -20 -9 -32 -4 -7 -22
6 -17 -21 -10 -33 -6 -8 -21
2 -15 -21 -9 -34 -6 -8 -23
-11 -6 -18 -11 -36 -8 -8 -23
-12 -7 -13 -8 -33 -5 -5 -20
-7 -14 -16 -9 -35 -7 -7 -21
-4 -18 -16 -9 -35 -6 -6 -23
1 -10 -20 -14 -39 -11 -9 -26
0 2 -20 -14 -39 -11 -9 -28
3 -6 -17 -11 -37 -8 -7 -25
3 -9 -17 -11 -37 -8 -6 -26
0 -8 -17 -10 -36 -8 -6 -24
-5 -12 -12 -5 -31 -3 -2 -20
-2 -16 -17 -10 -37 -7 -6 -24
3 -8 -19 -13 -39 -11 -9 -27
-1 -7 -14 -13 -38 -10 -9 -26
3 -14 -16 -13 -39 -10 -9 -27
7 -12 -19 -16 -40 -12 -10 -29
3 -12 -8 -10 -35 -8 -6 -26
-1 -15 -1 -8 -33 -5 -2 -22
-4 -12 -6 -9 -31 -4 -1 -21
1 -11 -11 -12 -35 -8 -4 -24
6 -9 -12 -13 -36 -10 -7 -26
3 -11 -15 -15 -37 -10 -7 -26
4 -11 -19 -15 -36 -10 -6 -24
9 -8 -20 -16 -37 -11 -7 -27
7 -14 -19 -17 -37 -10 -6 -27
3 -15 -17 -18 -39 -10 -6 -26
-1 -5 -17 -14 -35 -10 -4 -26
0 -6 -20 -18 -39 -11 -6 -27
4 -14 -18 -16 -36 -8 -2 -23
4 -9 -22 -20 -40 -13 -6 -26
6 -7 -19 -18 -39 -13 -6 -26
12 -7 -23 -20 -41 -13 -6 -26
8 -11 -23 -20 -38 -11 -4 -24
-1 -11 -16 -15 -33 -7 0 -20
-5 -9 -20 -16 -34 -6 0 -21
-4 -13 -23 -20 -35 -8 -1 -21
2 -8 -23 -18 -34 -8 -1 -22
6 -13 -25 -19 -36 -9 -2 -23
9 -12 -29 -24 -40 -13 -5 -27
4 -12 -28 -22 -39 -12 -2 -24
7 -7 -29 -23 -41 -13 -4 -25
8 0 -30 -28 -46 -16 -6 -27
8 -4 -27 -25 -43 -13 -3 -22
3 -7 -29 -22 -40 -11 -1 -20
6 -1 -31 -25 -42 -12 -2 -22
17 2 -38 -32 -48 -17 -6 -26
14 4 -36 -29 -45 -15 -4 -24
6 3 -36 -28 -46 -13 -2 -23
4 -3 -36 -29 -45 -13 0 -20
7 -5 -37 -29 -45 -14 1 -19
12 -1 -39 -30 -47 -14 0 -19
16 -4 -45 -35 -53 -18 -3 -21
16 0 -43 -35 -49 -15 0 -17
14 7 -47 -36 -51 -16 -1 -18
9 2 -44 -34 -46 -10 5 -13
7 5 -45 -34 -46 -8 7 -10
13 9 -45 -33 -45 -8 8 -9
11 9 -45 -34 -48 -9 8 -9
15 8 -53 -40 -51 -11 7 -9
17 4 -55 -41 -52 -11 9 -7
13 9 -50 -36 -49 -8 13 -4
19 11 -61 -46 -59 -14 7 -9
23 13 -62 -47 -58 -14 8 -7
26 10 -58 -44 -55 -10 12 -2
27 6 -60 -44 -53 -7 15 0
31 8 -61 -45 -53 -6 17 3
29 19 -62 -44 -52 -6 18 3
31 17 -64 -46 -54 -7 18 3
34 12 -64 -47 -54 -7 19 5
34 9 -66 -48 -55 -8 20 7
33 13 -60 -47 -54 -6 20 7
24 10 -66 -46 -54 -4 24 11
13 17 -65 -42 -49 0 29 17
20 19 -65 -40 -48 3 31 18
21 21 -65 -42 -48 3 30 17
24 20 -66 -42 -47 4 32 19
26 23 -59 -33 -39 11 38 24
23 24 -62 -36 -42 9 37 22
28 23 -62 -36 -41 10 38 23
36 27 -64 -35 -40 10 38 24
31 28 -64 -34 -38 12 38 23
31 26 -67 -36 -39 10 38 22
35 23 -65 -35 -38 12 39 24
40 21 -65 -33 -38 12 40 23
38 23 -62 -31 -35 14 41 23
17 22 -54 -24 -27 22 47 29
8 25 -46 -13 -18 30 54 35
16 27 -48 -15 -20 27 50 30
14 25 -45 -14 -18 27 50 29
14 24 -43 -10 -15 28 51 29
17 19 -43 -7 -13 30 50 28
23 16 -47 -12 -14 26 45 23
25 15 -45 -7 -9 29 48 24
22 17 -45 -6 -13 28 45 21
23 14 -43 -4 -11 30 46 20
24 14 -37 -1 -8 31 47 20
22 17 -36 3 -6 30 45 18
24 14 -33 3 -6 29 42 14
28 18 -35 1 -7 26 37 10
36 11 -32 5 -5 26 37 10
26 18 -29 11 -2 28 39 11
18 11 -25 13 -2 29 39 12
10 8 -18 18 5 34 43 16
5 15 -18 18 6 32 40 14
2 9 -14 21 9 34 42 15
-1 6 -10 22 8 35 43 16
7 14 -14 21 4 30 37 9
13 4 -11 21 3 28 36 7
15 6 -12 20 2 26 33 5
10 4 -7 23 5 27 34 8
2 12 -4 27 8 29 36 9
3 4 -4 24 5 27 34 6
3 2 0 26 7 27 34 6
0 7 2 26 7 27 33 6
1 12 -2 22 4 24 29 1
1 4 3 23 5 25 31 3
0 9 4 26 6 24 30 2
-2 0 4 24 4 21 27 1
2 0 5 22 4 19 25 1
-3 2 5 21 4 17 25 1
0 -4 6 24 5 19 27 2
8 -4 5 17 0 13 22 -2
7 -2 6 17 2 13 22 -2
3 1 4 17 3 13 21 -5
-2 -3 9 20 7 16 24 -2
-1 4 6 16 4 12 20 -5
8 5 7 17 5 12 21 -4
11 2 5 13 2 8 17 -8
5 -1 6 12 2 6 17 -8
-3 2 9 14 3 7 17 -5
-4 -1 9 16 4 9 19 -3
-6 -4 5 11 1 6 16 -5
-4 1 6 12 4 7 17 -3
-6 -2 8 13 4 7 17 -3
-1 -5 11 14 5 8 17 -1
7 -3 10 10 2 5 14 -4
7 -5 10 12 4 6 13 -4
4 -4 10 12 2 5 11 -6
6 -8 7 9 0 3 9 -7
0 -2 8 11 2 4 10 -4
-9 1 9 14 5 8 12 -1
-4 -7 4 7 -1 3 7 -6
-4 -7 6 8 1 4 8 -3
-7 -5 7 12 2 5 9 -4
-2 -1 6 8 0 4 6 -7
0 -3 5 10 1 5 7 -5
-1 -2 7 13 5 6 8 -3
2 -3 8 15 6 7 9 -3
8 1 8 12 4 5 7 -5
4 0 9 12 3 4 6 -4
-7 1 11 16 7 8 10 0
-9 2 7 9 3 3 5 -5
0 -6 4 9 5 2 4 -5
3 -7 5 11 3 4 5 -2
2 -6 5 11 3 4 4 -3
1 1 5 11 2 3 4 -3
-4 4 9 15 7 6 7 -2
-4 1 8 15 6 3 6 -3
1 -1 10 14 5 4 6 -2
1 -1 10 15 6 5 7 0
2 6 7 13 6 4 6 -2
4 -1 3 8 0 1 2 -4
6 -4 8 8 2 2 2 -3
6 -1 8 10 4 1 4 -2
4 -3 9 11 6 4 5 -1
0 -2 6 9 4 2 3 -2
-6 0 13 16 12 9 9 4
-8 -1 12 15 10 6 9 3
-2 -8 13 15 11 8 10 5
-2 -2 13 15 11 8 10 6
1 1 9 14 11 6 8 3
8 -4 4 9 6 4 6 2
7 -4 6 9 8 6 6 3
7 -6 4 8 7 3 6 1
9 -6 6 9 8 5 7 2
0 -5 8 9 9 5 6 2
-2 0 12 12 12 7 7 2
-2 -3 13 13 13 7 9 3
-4 -1 13 11 13 6 6 1
7 3 10 8 12 1 4 1
11 0 10 10 10 3 6 2
10 1 5 4 5 -1 1 -1
8 11 5 3 6 -1 1 0
4 5 10 7 10 3 4 3
1 5 12 7 12 5 6 3
-3 3 17 9 14 7 9 7
-8 1 20 13 17 9 11 9
-7 -1 14 10 13 6 8 7
-3 -2 13 9 13 6 9 8
3 2 15 7 12 3 6 7
9 4 14 7 11 2 6 5
6 0 9 3 6 -1 3 3
6 -2 13 4 10 1 5 5
11 -2 12 6 12 3 6 6
8 -2 10 5 11 2 5 4
6 2 13 3 9 -1 4 3
4 4 16 7 12 1 5 5
7 -2 12 6 10 0 4 3
9 -6 14 6 12 1 7 7
6 -4 12 4 10 -2 4 5
3 -7 13 6 10 0 5 6
6 -4 7 0 5 -5 2 3
5 -1 7 -1 6 -4 2 4
5 -3 11 4 9 0 5 6
1 1 12 5 10 1 6 7
-1 0 13 4 11 0 5 7
2 0 15 6 13 1 6 8
4 -1 13 4 9 -3 3 5
6 -5 11 2 8 -3 3 6
5 -1 10 1 7 -5 2 5
8 0 8 -1 4 -7 0 3
10 -1 8 -5 2 -9 -1 2
6 1 11 -3 4 -6 2 5
7 6 8 -3 3 -7 0 2
10 0 8 -2 5 -6 2 4
6 -1 10 -1 5 -5 2 5
0 8 13 3 9 -2 5 6
4 5 18 2 7 -4 5 5
0 9 15 0 7 -3 4 6
1 9 15 0 7 -3 4 7
3 0 12 1 6 -3 4 6
1 -3 8 -4 2 -8 1 4
3 5 8 -3 4 -6 2 6
4 3 10 -1 5 -6 3 6
6 3 12 -1 5 -5 3 6
-1 -1 16 2 8 -3 6 9
0 1 24 5 11 0 8 11
14 5 18 -1 4 -9 2 4
12 2 14 -2 6 -6 2 6
2 2 21 0 9 -5 5 10
0 1 16 1 9 -4 6 10
2 -1 7 -6 5 -10 0 5
9 1 8 -7 2 -10 0 6
12 1 8 -7 2 -10 1 5
10 -3 8 -7 2 -9 2 5
9 0 9 -6 5 -8 4 7
8 4 15 1 12 -4 8 10
11 7 16 0 10 -6 5 7
10 10 17 0 10 -5 6 8
2 8 18 4 15 -1 11 13
-1 17 16 4 13 -1 12 12
1 14 9 -2 9 -4 9 10
3 14 9 -2 10 -4 11 12
9 17 9 -2 10 -5 11 12
9 21 16 -2 9 -4 10 11
11 20 17 -3 10 -5 10 11
14 22 16 3 15 -2 12 14
15 16 17 6 16 -2 12 13
18 15 15 4 13 -3 11 12
16 18 15 3 11 -4 10 12
8 15 13 5 15 -1 12 14
7 11 11 1 14 0 13 16
4 13 14 3 14 2 16 18
5 15 8 2 13 0 15 16
7 13 12 3 12 1 16 15
5 12 9 1 12 0 16 16
6 22 14 6 16 2 17 17
9 20 16 7 16 1 16 17
14 23 15 5 15 1 15 17
15 21 17 7 16 2 18 20
11 21 13 5 16 2 17 19
12 19 5 -2 10 0 17 20
14 32 2 -5 8 -1 16 20
12 40 -1 -10 4 -4 13 17
13 31 4 -7 8 0 16 21
9 32 1 -7 10 1 19 23
10 43 -1 -5 11 2 18 24
14 36 3 0 15 7 21 27
18 39 1 0 14 7 22 28
22 37 1 -1 13 7 23 30
27 37 -6 -3 11 7 22 29
27 32 -12 -6 9 6 24 30
26 36 -13 -6 11 8 26 33
27 35 -13 -6 11 8 26 32
28 28 -13 -6 8 8 24 31
26 27 -13 -8 8 7 25 32
28 32 -13 -8 8 4 21 30
29 28 -8 -7 5 2 19 28
24 28 -8 -8 3 1 16 27
19 27 -9 -10 2 -1 15 27
22 22 -8 -12 1 -1 14 26
26 19 -18 -20 -8 -8 9 22
24 21 -20 -21 -6 -7 11 23
24 18 -15 -17 -4 -5 13 23
17 14 -15 -16 -4 -6 12 22
13 19 -11 -17 -5 -7 10 19
17 22 -3 -10 0 -4 11 20
10 10 5 -3 5 -1 14 22
3 12 6 -3 3 -2 13 21
1 18 2 -6 1 -5 10 18
1 9 2 -8 0 -5 10 19
6 9 -9 -18 -8 -12 5 14
9 11 -10 -21 -10 -12 3 15
12 11 -9 -19 -10 -11 5 15
9 8 -9 -18 -9 -11 5 16
11 2 -8 -19 -9 -12 4 14
9 7 3 -10 -3 -7 8 16
11 11 4 -9 -4 -10 4 10
17 9 2 -12 -7 -12 2 8
14 13 -2 -17 -10 -15 0 6
3 11 -3 -17 -10 -14 0 6
6 4 -8 -23 -14 -17 -1 4
9 5 -13 -26 -16 -17 -1 6
12 2 -13 -27 -18 -19 -4 2
17 3 -13 -28 -20 -20 -7 0
19 6 -12 -27 -18 -20 -8 0
11 10 -2 -18 -11 -14 -4 4
5 9 7 -11 -5 -11 -1 7
7 11 4 -14 -8 -13 -3 4
13 18 -1 -19 -13 -17 -7 2
12 9 -1 -19 -14 -16 -7 2
10 6 -10 -26 -20 -20 -9 -1
9 5 -13 -27 -20 -17 -6 3
5 5 -11 -25 -16 -17 -6 5
2 4 -8 -24 -14 -17 -7 4
6 5 -5 -22 -15 -16 -6 4
7 5 2 -16 -7 -13 -6 5
13 9 4 -16 -9 -15 -9 2
17 9 4 -17 -12 -15 -9 1
13 4 6 -15 -11 -15 -7 5
14 16 2 -20 -17 -19 -13 -1
17 7 -7 -25 -20 -23 -12 -4
15 2 -10 -25 -18 -17 -8 1
9 3 -10 -25 -16 -16 -9 1
6 3 -4 -24 -16 -16 -9 0
15 10 -6 -27 -20 -21 -13 -5
20 21 -3 -23 -18 -19 -15 -7
17 16 3 -17 -13 -17 -14 -5
8 19 8 -14 -10 -15 -10 -2
6 9 9 -13 -8 -11 -7 2
10 11 4 -15 -12 -13 -9 0
12 7 1 -18 -15 -14 -9 0
10 5 0 -19 -14 -14 -9 -2
15 1 1 -15 -13 -12 -11 -6
13 -3 5 -9 -12 -13 -15 -12
12 -2 13 -2 -6 -10 -14 -15
14 2 21 13 9 0 -10 -15
16 3 24 23 19 9 -3 -13
21 -3 30 37 36 28 13 -2
27 -1 37 52 52 46 29 6
31 -3 41 70 74 70 48 15
39 1 40 87 97 99 75 30
47 11 36 102 120 130 105 50
59 12 37 117 142 165 141 74
78 15 36 126 166 205 190 112
92 28 24 119 174 233 234 145
91 47 28 110 176 252 264 175
76 68 33 96 177 257 279 197
56 85 19 66 149 217 250 199
40 102 9 16 85 128 176 178
17 108 -2 -37 13 28 91 149
2 106 -18 -88 -55 -58 18 117
-1 90 -25 -114 -104 -121 -42 79
-7 75 -22 -121 -127 -155 -83 44
-20 69 -6 -107 -123 -157 -100 29
-21 67 -1 -95 -115 -155 -104 21
-12 63 9 -83 -109 -157 -117 -2
-11 56 21 -66 -97 -152 -125 -23
-18 52 25 -52 -84 -144 -128 -38
-16 41 29 -42 -77 -138 -131 -52
-27 29 41 -24 -65 -128 -128 -60
-33 23 42 -17 -59 -123 -127 -68
-35 17 51 1 -45 -112 -120 -70
-43 10 65 20 -31 -101 -115 -73
-40 9 75 39 -18 -90 -108 -75
-38 4 86 59 -1 -73 -96 -72
-37 1 101 82 23 -58 -85 -70
-31 -11 112 97 27 -50 -80 -71
-23 -13 119 107 30 -45 -77 -71
-18 -12 122 112 35 -42 -75 -72
-22 -21 128 116 36 -36 -69 -68
-28 -22 130 110 35 -37 -66 -66
-37 -12 130 105 34 -36 -64 -66
-41 -13 138 107 36 -34 -61 -63
-39 -16 143 109 36 -34 -62 -65
-37 -16 152 112 36 -33 -63 -63
-39 -16 167 122 42 -27 -60 -60
-43 -18 173 117 38 -30 -61 -62
-40 -23 177 109 31 -34 -64 -63
-36 -24 178 103 26 -37 -65 -65
-29 -21 173 97 21 -39 -66 -68
-30 -24 172 88 17 -41 -68 -70
-39 -24 178 87 17 -38 -65 -65
-41 -22 180 82 12 -42 -65 -66
-42 -21 185 74 7 -43 -69 -66
-47 -19 186 63 1 -48 -70 -65
-48 -14 191 58 2 -46 -67 -62
-51 -12 184 46 -1 -46 -65 -60
-52 -13 170 35 -5 -44 -62 -54
-47 -9 156 23 -11 -44 -59 -53
-45 -4 142 8 -17 -46 -57 -51
-35 2 115 -19 -39 -58 -64 -56
-29 5 100 -31 -46 -58 -63 -53
-32 -1 89 -33 -45 -54 -57 -46
-36 -3 82 -36 -46 -51 -53 -42
-29 5 62 -43 -52 -52 -54 -42
-24 9 50 -41 -48 -48 -48 -38
-19 4 47 -37 -44 -44 -43 -35
-14 6 38 -39 -46 -43 -42 -34
-7 10 30 -41 -45 -42 -40 -33
3 11 19 -44 -46 -40 -39 -33
4 11 4 -49 -50 -41 -37 -33
1 10 -1 -46 -46 -35 -31 -26
0 7 -6 -44 -46 -33 -30 -24
3 8 -10 -41 -45 -32 -30 -23
5 8 -9 -36 -39 -28 -27 -21
5 8 -4 -26 -31 -22 -22 -17
5 13 -7 -25 -31 -23 -22 -18
8 8 -8 -23 -27 -20 -19 -15
14 9 -14 -24 -28 -18 -19 -15
13 7 -14 -21 -28 -15 -15 -12
15 7 -25 -28 -37 -20 -18 -15
21 14 -33 -35 -40 -22 -20 -16
16 20 -32 -32 -39 -20 -17 -13
10 7 -30 -29 -38 -18 -15 -12
9 13 -33 -29 -42 -21 -19 -15
8 10 -24 -19 -32 -12 -12 -9
9 10 -28 -21 -38 -17 -17 -14
8 10 -27 -21 -39 -15 -15 -12
14 6 -30 -23 -42 -15 -16 -13
19 10 -34 -25 -46 -18 -17 -15
21 13 -39 -30 -53 -20 -20 -17
23 11 -38 -31 -52 -18 -18 -14
20 8 -39 -30 -52 -18 -18 -14
12 15 -34 -28 -51 -18 -17 -13
11 24 -36 -27 -52 -18 -19 -14
15 26 -30 -23 -49 -16 -20 -13
20 18 -27 -22 -50 -18 -21 -15
11 11 -22 -20 -50 -15 -19 -11
6 17 -21 -19 -51 -12 -17 -11
9 18 -27 -24 -57 -15 -18 -14
24 10 -34 -32 -65 -22 -24 -18
29 11 -37 -34 -68 -21 -25 -18
21 14 -37 -31 -66 -19 -24 -17
18 16 -35 -29 -66 -20 -23 -15
18 17 -33 -29 -66 -20 -24 -15
17 16 -27 -23 -61 -16 -23 -15
22 20 -27 -24 -66 -21 -26 -20
21 11 -27 -24 -66 -19 -25 -18
21 10 -27 -26 -65 -17 -24 -17
21 15 -29 -30 -70 -20 -25 -19
21 13 -38 -38 -77 -26 -29 -21
15 10 -34 -35 -71 -21 -24 -15
12 6 -31 -32 -67 -18 -21 -12
15 7 -29 -31 -66 -19 -21 -11
19 9 -28 -30 -65 -19 -22 -13
23 13 -25 -27 -64 -19 -25 -15
20 11 -22 -26 -64 -20 -25 -16
13 6 -15 -24 -62 -18 -24 -14
16 7 -19 -26 -64 -19 -27 -17
18 11 -24 -29 -66 -21 -27 -19
14 8 -30 -36 -71 -25 -29 -19
16 11 -38 -39 -74 -26 -31 -20
16 12 -36 -38 -72 -25 -30 -18
14 10 -34 -37 -71 -25 -29 -16
15 13 -33 -35 -72 -24 -29 -16
17 13 -27 -26 -66 -19 -25 -13
20 16 -27 -27 -67 -22 -27 -16
21 19 -29 -31 -71 -25 -29 -17
18 16 -26 -30 -70 -23 -28 -17
18 9 -28 -29 -69 -22 -25 -15
18 7 -34 -35 -72 -25 -27 -15
13 14 -39 -39 -76 -26 -28 -16
15 16 -38 -37 -75 -26 -28 -15
23 14 -40 -41 -78 -30 -30 -15
29 13 -38 -42 -79 -31 -31 -16
28 17 -31 -33 -73 -26 -26 -14
23 14 -32 -33 -73 -27 -26 -16
17 19 -34 -37 -74 -29 -27 -17
19 29 -35 -39 -76 -28 -26 -18
18 24 -33 -37 -76 -28 -24 -16
21 17 -41 -45 -80 -30 -26 -17
28 23 -48 -52 -86 -36 -32 -20
26 20 -48 -50 -84 -34 -28 -17
24 16 -48 -47 -83 -33 -25 -13
22 15 -48 -47 -83 -32 -24 -12
24 14 -43 -44 -81 -31 -24 -12
28 13 -45 -44 -83 -32 -24 -12
30 15 -48 -47 -85 -34 -24 -11
26 22 -49 -48 -81 -30 -19 -8
22 28 -50 -46 -80 -30 -17 -7
29 20 -59 -54 -87 -34 -20 -8
31 28 -63 -58 -88 -35 -20 -8
30 23 -64 -57 -88 -34 -18 -6
33 27 -67 -59 -92 -38 -20 -7
31 26 -64 -57 -89 -35 -15 -3
32 24 -61 -52 -84 -32 -13 1
31 22 -61 -51 -86 -31 -12 1
28 26 -65 -52 -87 -31 -10 3
28 37 -69 -56 -88 -33 -11 3
36 29 -66 -56 -87 -30 -8 4
38 24 -74 -62 -92 -32 -9 4
36 27 -76 -60 -89 -28 -4 10
38 30 -77 -58 -89 -27 -3 11
37 33 -76 -60 -90 -29 -6 11
37 32 -74 -58 -88 -27 -3 14
38 38 -73 -53 -85 -26 -2 13
40 41 -78 -56 -87 -29 -4 11
41 43 -79 -57 -86 -27 -1 14
44 39 -77 -54 -83 -24 3 18
47 40 -80 -52 -82 -22 5 20
37 43 -84 -56 -83 -22 5 20
36 46 -83 -56 -81 -19 8 23
41 48 -79 -52 -77 -16 11 24
45 50 -82 -51 -77 -16 10 23
43 44 -80 -48 -73 -13 13 25
45 52 -78 -44 -70 -12 13 25
42 44 -75 -41 -67 -10 14 26
46 40 -73 -40 -63 -8 15 27
47 47 -72 -40 -62 -8 14 23
43 46 -72 -39 -62 -7 13 21
37 51 -75 -42 -63 -9 13 20
32 46 -69 -32 -52 1 21 28
32 43 -65 -28 -47 4 23 29
41 44 -63 -29 -47 4 23 27
43 46 -65 -28 -46 2 21 23
38 53 -53 -19 -36 7 23 25
35 44 -52 -16 -34 8 23 21
34 39 -53 -14 -34 8 23 20
31 44 -49 -12 -30 9 24 19
27 42 -47 -9 -27 10 23 17
34 36 -51 -15 -32 4 17 11
38 37 -47 -11 -27 6 17 9
35 37 -42 -7 -21 8 18 9
36 35 -38 -3 -20 10 19 9
34 35 -36 1 -17 9 18 9
28 45 -31 7 -12 11 18 7
28 41 -26 10 -7 13 20 8
30 35 -26 10 -8 12 18 6
25 32 -20 14 -4 14 20 7
29 35 -24 12 -9 10 15 2
30 30 -27 6 -13 5 10 -2
27 31 -23 10 -10 7 11 -1
24 36 -17 11 -8 6 10 -1
27 38 -18 11 -11 4 8 -4
23 31 -12 17 -4 8 13 2
20 30 -8 24 1 11 11 1
22 30 -8 18 -2 5 7 -3
21 29 -5 19 -3 5 8 -3
19 27 -6 20 0 6 9 -3
17 26 -4 20 -1 4 8 -4
16 22 -7 13 -8 -2 5 -7
14 26 -7 13 -8 -2 4 -7
13 25 -2 16 -3 0 6 -5
11 24 -1 15 -4 -2 5 -6
15 26 -4 10 -7 -6 1 -11
21 26 2 13 -3 -5 2 -10
22 24 3 11 -5 -7 -1 -13
21 25 1 11 -3 -8 -1 -13
16 22 4 13 0 -6 2 -12
19 23 3 8 -2 -10 -2 -17
23 15 2 6 -3 -11 -2 -17
11 23 4 6 0 -10 -2 -16
7 21 9 9 4 -7 1 -12
7 20 8 8 3 -9 0 -13
4 20 8 7 2 -10 -1 -13
10 20 13 11 6 -9 0 -12
16 13 12 10 4 -10 -2 -13
17 13 7 8 3 -12 -3 -13
16 19 8 10 7 -8 0 -13
13 19 8 7 5 -10 -2 -15
12 16 5 4 1 -12 -3 -15
13 22 9 8 6 -8 0 -12
7 17 12 10 8 -8 2 -11
11 20 10 8 5 -11 0 -11
14 19 9 6 2 -12 -1 -12
10 18 11 12 8 -7 2 -10
12 16 8 10 5 -9 2 -10
10 12 6 9 3 -11 1 -10
10 21 6 9 2 -11 0 -10
13 23 6 7 1 -11 -1 -11
15 18 1 3 -3 -14 -3 -13
18 17 6 7 2 -10 0 -10
17 21 8 8 3 -10 -1 -12
15 21 6 6 1 -12 -2 -12
13 22 7 8 2 -12 -1 -12
4 20 16 14 6 -8 3 -9
5 21 11 11 0 -10 -1 -12
4 17 11 12 1 -9 1 -10
0 17 11 11 2 -8 1 -11
5 14 14 9 2 -8 1 -12
6 7 14 6 -1 -9 2 -11
16 15 9 5 -2 -11 -1 -13
23 15 9 5 0 -11 -1 -13
16 12 9 6 1 -10 -1 -11
15 17 5 4 -3 -13 -3 -13
13 24 8 7 0 -9 -2 -13
8 16 8 8 0 -8 0 -12
4 12 11 11 3 -5 2 -9
2 15 7 9 2 -7 1 -11
4 10 7 8 3 -6 2 -11
13 6 8 6 -1 -8 1 -12
13 15 5 4 -1 -8 -1 -13
15 20 4 5 0 -8 -1 -13
18 15 9 6 1 -7 2 -12
15 16 7 7 2 -6 3 -11
14 18 10 10 7 -3 4 -10
15 15 9 10 6 -3 5 -10
16 13 9 9 6 -3 5 -9
9 12 10 11 10 -1 8 -6
6 10 9 8 8 -2 7 -10
0 10 10 6 7 -3 8 -10
4 11 15 9 11 0 12 -7
10 16 15 8 10 -2 8 -10
10 19 15 8 9 -3 8 -12
9 11 14 9 12 0 9 -10
9 12 17 13 14 1 10 -10
1 14 21 13 14 1 10 -10
6 15 15 7 10 -2 7 -13
8 17 14 7 11 -2 8 -13
6 13 13 7 12 -2 9 -12
7 11 8 1 6 -5 6 -14
11 13 11 4 9 -3 8 -11
10 10 11 4 9 -4 7 -12
10 6 10 3 6 -5 6 -12
14 10 8 1 6 -6 4 -13
12 10 12 8 11 -1 9 -10
12 9 12 7 10 -1 9 -10
9 12 11 5 9 -2 9 -9
7 16 9 5 9 -1 9 -9
10 11 8 3 9 -3 7 -12
4 2 7 1 9 -4 8 -11
-5 5 13 6 14 2 12 -6
-4 5 13 6 13 0 11 -8
3 5 8 0 7 -5 6 -12
9 8 6 -2 6 -6 6 -11
8 11 9 4 11 -1 10 -9
3 9 13 4 10 -1 9 -7
3 9 15 4 11 1 12 -5
10 9 16 2 10 -1 11 -8
8 6 15 4 13 2 12 -8
10 8 10 0 8 -2 9 -8
13 15 8 -2 8 -4 9 -11
15 12 9 -2 7 -4 7 -12
15 13 7 -5 4 -7 5 -13
15 10 9 -5 6 -6 5 -11
8 11 16 3 12 1 10 -8
1 7 17 4 12 2 11 -7
0 12 14 4 13 1 11 -6
-5 12 16 5 14 3 13 -5
-5 9 20 5 15 2 12 -6
-1 11 17 1 11 -1 9 -8
-1 10 16 4 15 3 12 -5
4 9 15 1 11 0 9 -9
6 19 14 -3 6 -4 5 -13
5 10 14 -3 6 -4 5 -11
4 22 11 -3 7 -4 5 -13
0 10 14 3 10 0 10 -6
1 8 12 0 9 0 9 -5
2 12 10 -2 9 0 9 -7
4 8 10 -2 10 1 9 -8
4 6 10 -4 9 -1 8 -7
1 10 13 -2 13 2 10 -6
0 9 13 -1 12 2 10 -6
4 5 14 -2 10 1 9 -7
4 2 14 -1 11 2 10 -6
2 4 16 2 15 4 12 -6
4 10 15 -1 11 0 8 -10
3 12 10 -3 8 -2 8 -11
2 11 10 -4 9 -1 8 -11
6 8 10 -4 10 0 8 -12
4 11 10 -6 8 -1 7 -11
2 14 17 -1 14 5 13 -5
8 18 16 1 18 5 14 -6
7 23 15 -1 16 4 13 -7
3 25 19 5 21 10 17 -2
4 27 21 8 24 11 18 -2
10 19 23 4 20 8 14 -7
8 16 23 6 21 10 17 -4
-8 19 25 9 23 12 18 -3
0 20 22 5 22 9 14 -6
2 14 16 3 20 10 15 -5
5 17 18 6 23 10 15 -4
6 28 17 6 22 10 15 -4
0 18 20 7 25 12 17 -2
0 15 20 9 28 13 19 -1
1 27 20 12 30 14 17 -3
-4 18 19 10 29 14 18 -3
-2 20 16 9 29 13 17 -4
2 20 17 9 28 12 16 -6
13 16 19 7 28 12 15 -8
8 20 21 5 27 11 16 -6
-2 22 21 7 30 13 18 -5
-8 22 23 8 31 16 20 -2
-6 21 21 5 32 16 20 -1
-3 23 19 2 30 15 20 0
-5 33 21 5 32 17 22 2
-7 30 18 2 34 18 22 2
3 32 15 -3 29 15 19 -1
6 31 12 -2 29 17 21 0
-1 35 12 0 31 19 23 0
7 28 11 0 34 20 25 2
10 33 13 1 34 20 24 2
6 37 11 1 32 20 23 1
9 33 16 2 34 23 25 4
8 32 20 4 36 25 27 7
7 27 22 9 39 27 27 7
9 27 15 4 34 24 25 4
3 29 13 1 33 23 24 3
0 23 18 2 34 25 25 5
2 22 21 0 32 23 24 5
7 21 12 -8 25 18 21 1
8 27 13 -7 25 18 19 0
6 17 15 -4 25 19 19 1
7 8 13 -7 24 17 17 1
7 9 14 -8 23 18 15 -1
3 10 17 -4 25 19 16 -2
7 14 13 -9 19 15 12 -7
7 13 11 -11 15 12 8 -10
2 5 14 -8 18 13 9 -10
-10 2 23 -1 25 19 13 -7
-17 6 24 -3 22 17 11 -8
-18 9 26 -2 22 17 11 -8
-14 8 24 -1 20 16 8 -10
-11 2 19 -6 15 11 4 -16
-8 -1 18 -6 15 12 3 -15
2 -1 21 -6 14 12 4 -15
6 -7 13 -12 8 8 0 -18
-9 4 14 -11 9 9 2 -16
-29 -1 20 -3 18 18 11 -7
-24 -5 20 -3 17 17 9 -8
-14 -4 14 -9 11 13 4 -12
-14 0 15 -9 12 13 3 -12
-14 -6 21 -6 13 16 5 -11
-15 -6 14 -10 9 12 2 -14
-18 -6 12 -10 8 12 3 -14
-13 -2 13 -8 10 13 3 -13
-11 -13 10 -8 8 14 3 -13
-17 -15 8 -10 8 14 3 -12
-17 -10 10 -8 10 16 5 -10
-21 -6 8 -8 9 15 3 -12
-19 -11 5 -8 9 16 4 -12
-15 -7 5 -7 11 18 3 -14
-14 -3 0 -9 8 15 1 -16
-16 -8 1 -8 9 17 2 -13
-17 -11 1 -5 11 20 5 -11
-15 -2 -4 -6 10 19 2 -13
-14 -8 -7 -7 8 19 1 -13
-15 -7 -14 -11 5 16 -2 -14
-12 -3 -17 -12 5 16 -2 -14
-13 -9 -17 -11 5 16 -2 -14
-14 -6 -21 -14 0 12 -5 -19
-16 -4 -16 -8 6 19 -1 -14
-18 -4 -16 -5 8 20 0 -13
-17 -5 -19 -7 5 18 -2 -15
-11 -6 -21 -5 6 19 -1 -13
-15 -3 -18 0 11 23 3 -9
-20 -3 -20 -2 9 22 2 -9
-29 -10 -17 -1 11 23 4 -6
-25 -8 -19 -2 8 22 2 -8
-20 -6 -14 -4 6 19 -1 -11
-13 -9 -22 -11 1 13 -6 -16
-5 -3 -27 -13 -1 11 -9 -17
-8 -2 -22 -6 4 14 -5 -14
-18 -12 -21 -2 8 18 -2 -12
-18 -11 -17 3 12 21 -1 -12
-15 -10 -13 11 16 21 -2 -14
-9 -14 -16 11 15 18 -7 -22
-2 -11 -17 15 19 20 -8 -27
-6 -13 -6 25 32 31 -2 -25
-14 -18 -1 38 47 48 14 -15
-5 -23 -2 46 59 63 26 -9
2 -17 2 61 77 82 41 -2
12 -13 8 84 103 110 64 11
21 -14 13 105 130 140 92 29
28 -12 16 122 157 176 129 54
40 3 16 135 181 213 171 87
49 9 9 136 194 250 220 128
52 22 -3 127 200 274 261 164
49 43 -10 109 200 285 284 194
39 60 -15 87 188 275 284 208
23 72 -19 52 149 218 237 204
1 93 -28 5 84 120 155 179
-20 101 -37 -48 11 18 67 144
-33 92 -40 -82 -46 -60 -5 109
-34 80 -39 -103 -88 -115 -62 69
-39 78 -32 -100 -99 -137 -95 39
-48 70 -32 -91 -96 -140 -108 25
-44 60 -35 -87 -94 -141 -116 10
-46 56 -29 -72 -82 -137 -123 -7
-62 46 -16 -50 -60 -122 -122 -21
-62 35 -9 -37 -48 -114 -125 -38
-58 32 2 -20 -36 -104 -124 -52
-60 23 12 -5 -26 -96 -123 -62
-64 14 20 10 -15 -89 -119 -67
-75 0 35 30 2 -76 -111 -68
-82 -4 47 50 17 -62 -104 -70
-71 -10 53 65 30 -52 -97 -71
-67 -18 57 80 42 -39 -88 -69
-59 -23 66 97 51 -28 -80 -69
-45 -27 72 108 56 -24 -77 -73
-38 -30 78 117 60 -21 -77 -75
-32 -30 92 126 68 -14 -71 -72
-36 -33 96 130 71 -11 -68 -70
-45 -38 101 133 75 -6 -64 -66
-54 -34 107 134 78 -2 -58 -59
-58 -31 112 134 79 0 -56 -57
-60 -32 111 131 73 -5 -60 -61
-59 -36 121 133 73 -2 -58 -60
-58 -35 127 131 70 -4 -59 -61
-60 -35 130 124 63 -7 -59 -60
-65 -34 128 114 54 -12 -62 -59
-60 -37 137 113 54 -11 -59 -59
-58 -35 145 115 54 -8 -56 -57
-61 -28 152 113 51 -10 -58 -64
-66 -30 156 109 51 -9 -57 -65
-60 -31 160 105 48 -10 -58 -68
-64 -36 165 95 40 -16 -61 -69
-73 -34 168 83 34 -18 -63 -69
-74 -26 162 68 26 -24 -64 -71
-67 -28 148 53 19 -25 -62 -70
-60 -19 133 35 9 -29 -64 -71
-65 -14 127 27 7 -27 -58 -69
-67 -8 114 12 -3 -30 -60 -68
-64 -11 103 -2 -11 -33 -57 -64
-60 -8 90 -11 -15 -32 -54 -60
-50 -6 76 -16 -16 -28 -51 -57
-43 -5 59 -28 -24 -32 -53 -57
-39 0 40 -39 -29 -34 -53 -57
-37 -1 26 -40 -26 -29 -47 -52
-34 -2 17 -42 -26 -29 -46 -52
-32 -9 12 -44 -25 -28 -45 -52
-36 -5 14 -38 -18 -20 -38 -48
-32 -2 7 -37 -16 -19 -36 -47
-27 2 1 -35 -14 -16 -34 -46
-25 -4 -3 -32 -9 -11 -28 -41
-25 -2 -11 -26 -4 -6 -23 -36
-25 -4 -16 -26 -4 -5 -21 -34
-32 -12 -17 -22 -1 -1 -17 -29
-29 -11 -19 -19 1 2 -15 -29
-17 -6 -27 -25 -5 -4 -20 -36
-13 -12 -34 -28 -10 -6 -22 -37
-14 -1 -33 -24 -7 -2 -18 -34
-17 -3 -31 -20 -6 0 -15 -30
-16 -8 -34 -20 -8 -1 -16 -30
-17 -3 -33 -19 -8 2 -15 -27
-15 1 -34 -17 -9 1 -15 -28
-10 1 -41 -22 -15 -3 -20 -31
-2 -5 -42 -21 -15 -3 -18 -31
-1 -7 -39 -20 -16 -3 -19 -31
-8 -9 -35 -16 -15 -1 -18 -31
-16 -2 -42 -23 -21 -7 -23 -35
-20 -2 -37 -18 -16 -4 -18 -32
-17 -7 -29 -16 -15 -2 -17 -29
-14 -8 -27 -19 -19 -6 -19 -30
-8 -2 -32 -22 -23 -8 -22 -31
-5 1 -32 -20 -23 -8 -22 -32
-9 -3 -32 -21 -24 -10 -22 -31
-12 -4 -30 -20 -21 -8 -20 -30
-13 0 -25 -18 -18 -5 -19 -29
-11 -1 -23 -18 -18 -7 -19 -31
-11 -7 -22 -22 -22 -9 -20 -32
-11 0 -24 -22 -20 -9 -19 -34
-10 -3 -19 -21 -17 -7 -18 -31
-10 -10 -14 -21 -17 -8 -18 -31
-12 -2 -21 -24 -17 -9 -21 -33
-13 -1 -18 -20 -11 -5 -18 -30
-11 -9 -19 -23 -12 -8 -21 -31
-7 -8 -19 -24 -13 -8 -22 -34
-6 -3 -17 -22 -10 -8 -22 -34
-9 -8 -15 -21 -9 -7 -22 -35
-9 -10 -13 -24 -9 -10 -24 -36
-10 -3 -14 -23 -6 -9 -24 -37
-16 -7 -11 -22 -4 -8 -22 -34
-15 -10 -9 -21 -2 -8 -20 -31
-11 -9 -11 -24 -4 -11 -22 -31
-7 -8 -12 -25 -2 -12 -23 -32
-8 -8 -8 -26 -2 -13 -23 -33
-10 -3 -11 -27 -2 -13 -23 -32
-11 -2 -8 -23 3 -10 -20 -29
-8 -2 -10 -25 0 -12 -22 -33
-10 -5 -11 -29 -5 -16 -25 -35
-4 -6 -3 -24 1 -12 -19 -30
-1 -2 -9 -26 0 -13 -21 -32
-9 -3 -11 -27 0 -13 -20 -31
-9 -6 -4 -26 2 -13 -19 -29
-8 -1 -11 -28 2 -14 -21 -32
-7 -3 -15 -31 -2 -17 -24 -33
-10 -7 -13 -28 0 -15 -21 -31
-14 7 -12 -30 0 -17 -22 -31
-14 -1 -8 -25 4 -13 -18 -28
-13 -5 -14 -29 -2 -17 -22 -31
-5 -2 -15 -30 -2 -18 -23 -32
-9 -3 -12 -26 2 -13 -18 -27
-15 -2 -14 -29 -2 -17 -21 -29
-7 2 -18 -34 -6 -21 -25 -30
-2 4 -21 -32 -5 -20 -24 -29
0 -2 -26 -36 -10 -24 -27 -31
1 -2 -27 -36 -11 -24 -26 -30
-6 2 -28 -36 -11 -26 -27 -29
-6 -4 -28 -35 -13 -26 -26 -29
-1 -6 -29 -38 -17 -27 -27 -28
-4 -5 -21 -37 -13 -24 -24 -26
-9 1 -25 -36 -13 -22 -21 -22
-5 0 -29 -37 -15 -23 -20 -22
-6 0 -26 -37 -14 -21 -18 -19
-6 8 -31 -36 -16 -20 -17 -18
-1 7 -40 -43 -24 -26 -21 -19
6 8 -44 -47 -30 -29 -23 -20
6 1 -42 -43 -27 -25 -19 -17
1 -6 -41 -42 -28 -24 -17 -16
7 -4 -45 -48 -35 -29 -21 -17
5 9 -45 -49 -35 -29 -19 -16
0 9 -43 -47 -33 -25 -16 -12
-5 5 -40 -45 -33 -21 -11 -8
-7 4 -43 -44 -34 -20 -9 -4
1 14 -47 -46 -37 -22 -10 -6
3 16 -52 -51 -42 -25 -12 -7
5 15 -54 -53 -43 -25 -12 -4
7 23 -55 -52 -42 -24 -11 -2
4 15 -55 -50 -43 -23 -8 -1
6 9 -59 -54 -47 -26 -10 1
11 11 -55 -53 -47 -23 -8 3
16 11 -55 -53 -48 -23 -7 4
19 12 -61 -57 -53 -24 -8 5
17 17 -62 -58 -54 -24 -7 7
15 21 -60 -54 -53 -21 -5 9
10 20 -58 -52 -50 -19 -1 11
0 29 -57 -52 -50 -19 1 13
-1 30 -56 -49 -47 -15 4 17
11 30 -60 -52 -50 -17 2 13
14 23 -64 -58 -54 -20 1 12
18 24 -60 -54 -51 -15 5 15
13 25 -57 -51 -46 -11 9 19
9 28 -61 -57 -49 -14 7 16
12 34 -59 -55 -45 -11 10 20
13 34 -54 -48 -38 -5 16 23
16 30 -57 -49 -40 -7 15 22
17 32 -56 -46 -36 -4 17 24
14 31 -56 -44 -33 -1 19 25
17 28 -56 -42 -32 0 19 25
22 27 -59 -46 -34 -3 15 20
18 26 -52 -40 -28 2 20 23
11 27 -45 -35 -22 7 24 26
11 31 -52 -39 -25 3 21 20
11 31 -49 -36 -23 4 22 22
16 33 -46 -29 -19 7 24 22
15 32 -49 -31 -21 6 21 19
15 31 -48 -28 -19 7 22 20
6 31 -42 -20 -11 13 26 24
3 32 -41 -18 -11 12 25 20
10 31 -43 -20 -13 11 22 19
13 34 -40 -16 -9 12 23 18
11 34 -38 -13 -7 13 22 17
5 28 -33 -7 -2 15 24 20
3 28 -35 -7 -4 13 21 18
7 24 -30 -2 0 15 22 17
9 23 -33 -3 -2 13 19 15
11 23 -33 -3 -3 11 16 11
15 26 -30 1 1 12 16 9
11 21 -28 4 2 13 14 7
5 22 -26 4 3 13 14 8
-1 24 -18 12 11 18 17 12
-1 17 -16 13 11 17 15 9
3 22 -20 9 7 11 9 2
-1 19 -16 12 10 14 11 4
-8 16 -11 16 15 16 12 6
-5 15 -7 13 14 14 8 3
-5 12 -12 13 13 12 8 3
-8 16 -13 12 12 11 6 1
-2 18 -16 9 11 9 2 -3
2 15 -16 6 7 5 -2 -7
4 13 -10 12 13 8 0 -6
-2 15 -7 14 18 11 2 -2
-4 15 -7 11 15 8 0 -4
-1 15 -1 9 15 7 -1 -6
-2 9 2 12 19 9 0 -5
1 7 -7 6 17 6 -3 -9
-2 15 -10 4 16 3 -6 -11
-9 8 -7 7 22 6 -4 -7
-12 5 -2 10 25 7 -2 -6
-15 2 -2 7 22 4 -4 -6
-13 6 -1 9 26 6 -2 -5
-12 16 0 10 28 5 -3 -8
-13 11 -4 7 27 3 -5 -8
-12 6 -2 9 31 6 -1 -4
-8 11 0 10 34 7 -1 -4
-9 9 -4 5 28 3 -5 -9
-3 6 -8 4 26 0 -7 -10
-1 3 -7 5 29 0 -7 -10
-14 1 -3 8 31 4 -4 -6
-15 4 -5 4 28 -1 -7 -10
-8 3 -4 3 28 -1 -7 -12
-7 9 -4 4 27 -1 -7 -12
-10 9 -5 3 26 -3 -8 -12
-8 1 -3 5 29 0 -4 -8
-3 12 -5 6 30 1 -5 -8
-7 13 -6 2 27 -1 -6 -9
-14 10 -3 4 29 -1 -5 -8
-14 8 -4 6 30 1 -4 -8
-10 3 -5 5 28 -1 -6 -10
-7 2 -5 2 26 -4 -9 -12
-2 2 -4 5 27 -4 -7 -11
-1 5 -5 2 24 -7 -11 -15
-2 3 -7 1 23 -7 -10 -13
-7 5 -2 3 26 -4 -6 -9
-13 10 2 8 28 -1 -4 -5
-14 4 -2 9 30 1 -2 -3
-10 3 -5 7 28 -1 -3 -3
-1 12 -5 3 25 -4 -7 -7
1 5 -7 4 25 -5 -8 -8
2 -3 -9 -1 21 -9 -11 -10
4 8 -4 1 25 -7 -9 -8
0 4 2 5 28 -4 -8 -6
-8 -2 5 6 30 -3 -6 -3
-16 3 4 6 34 1 -3 0
-16 6 7 10 38 5 0 2
-7 7 1 4 34 0 -6 -3
0 -1 0 4 32 1 -6 -3
2 7 1 2 33 0 -7 -5
-3 8 6 4 37 3 -4 -3
-12 2 9 8 43 8 1 3
-11 2 13 10 45 10 3 4
-7 0 12 10 45 9 0 3
-9 -3 10 6 40 4 -4 0
-8 4 7 3 42 3 -5 -2
-7 11 5 6 45 6 -3 -2
-3 9 1 5 43 5 -4 -3
-1 6 3 4 44 6 -3 1
-1 12 4 3 44 7 -3 1
-4 3 9 6 46 10 1 4
-7 0 7 6 46 9 1 5
-6 3 9 10 48 11 2 7
-1 4 8 9 46 12 4 5
1 2 3 5 42 9 1 3
2 5 1 2 41 8 0 3
3 7 3 5 45 12 3 4
1 1 1 4 45 12 3 3
-5 -1 4 4 45 12 4 6
-4 6 4 4 40 13 3 4
-5 5 4 5 34 12 1 2
-4 6 4 3 30 9 0 2
-1 3 8 6 31 12 3 4
3 -1 7 5 28 12 1 3
-9 2 6 5 27 12 2 4
-7 0 4 4 28 13 3 6
-1 8 1 2 25 12 0 4
-5 0 3 4 25 13 3 6
-8 2 1 1 23 11 1 6
-7 -2 5 5 27 16 5 9
-4 4 2 2 23 13 2 6
-4 12 -2 -4 17 8 -1 3
0 10 5 0 21 12 2 7
3 5 9 -1 18 11 0 5
0 0 8 0 19 10 1 5
5 7 1 0 17 10 1 4
6 7 3 2 19 12 2 6
2 -3 3 1 17 13 3 8
-3 2 3 -3 14 11 1 6
-3 4 6 -1 17 13 4 7
-5 2 7 1 17 14 4 9
-11 -1 8 0 15 15 6 10
-6 -1 11 4 18 17 7 12
-5 0 10 4 16 18 7 11
-1 2 5 -1 11 13 4 9
3 6 5 -1 12 13 4 8
2 1 9 4 15 17 8 11
-3 2 4 1 11 14 6 10
-8 1 6 0 11 14 6 13
-9 -2 7 0 11 15 7 12
-8 -3 7 1 12 15 8 13
-5 1 8 -2 8 12 6 11
-3 3 7 -4 7 11 4 9
3 1 7 -4 7 12 5 10
2 -3 6 -4 7 11 5 11
-1 -2 8 -2 10 13 7 12
-4 -2 13 3 16 19 11 14
-8 -6 10 0 13 17 11 13
-6 -8 9 -1 13 15 11 12
-1 -7 8 -1 13 16 10 10
-2 -6 9 -1 12 14 9 9
-4 -6 10 -1 11 14 8 9
-6 -3 13 -1 13 14 9 9
-3 -6 10 -2 11 13 10 9
4 -4 7 -6 7 10 6 6
2 -4 5 -6 9 12 7 9
-1 4 9 -2 12 15 9 11
2 6 7 -5 9 11 5 8
2 5 4 -4 8 10 4 7
3 3 9 1 13 17 8 10
-1 4 13 3 15 18 10 12
0 12 8 -4 8 12 5 7
2 9 12 -1 13 14 7 10
-1 5 13 1 12 15 10 12
-2 6 12 1 12 17 11 14
-6 11 14 5 15 20 14 17
-3 16 15 8 19 23 16 19
2 13 13 7 17 23 16 20
5 12 10 4 15 21 13 18
5 11 15 7 17 23 15 20
-4 10 22 9 20 27 16 19
-6 10 17 7 17 22 12 14
-3 15 18 8 18 23 13 15
0 9 20 9 18 22 13 13
3 8 11 3 11 15 8 8
3 11 12 3 11 15 8 8
-1 20 10 4 12 16 9 9
0 15 7 0 11 13 7 7
-1 7 12 3 16 18 12 13
-1 6 14 9 22 24 17 18
1 16 13 7 20 22 16 14
-1 12 14 6 21 20 15 14
0 16 14 6 21 20 15 15
3 15 10 5 20 20 16 14
-1 12 6 1 16 17 14 14
0 18 4 -2 15 16 14 15
-1 19 4 1 20 20 18 18
1 14 -3 -5 17 17 16 16
7 21 -9 -10 14 15 13 14
9 22 -7 -6 19 16 16 17
14 23 -6 -3 19 18 18 18
13 27 -7 -3 20 18 20 19
9 30 -3 1 24 21 23 21
3 24 1 6 29 26 28 26
1 21 0 7 30 30 29 27
8 19 -3 4 26 28 27 25
10 22 -5 4 27 26 26 24
10 21 -10 -1 21 22 22 22
8 16 -13 -2 18 21 22 23
8 13 -10 0 20 21 23 24
10 14 -15 -5 14 15 18 19
15 9 -11 -8 9 12 16 18
12 5 -2 -2 15 15 19 20
10 7 -10 -4 13 13 17 18
5 5 -9 -4 13 14 17 20
0 9 -7 -2 13 14 17 20
-1 2 -5 1 13 15 17 20
-1 3 -7 -3 9 12 14 16
0 -4 -7 -5 8 11 11 14
1 -8 -5 -3 9 11 11 16
-1 -13 -3 -2 9 12 12 14
-5 -14 -3 -4 7 9 10 13
-2 -10 -3 -2 9 10 10 12
1 -11 -1 -5 5 6 6 7
-1 -14 -5 -7 3 5 5 7
0 -10 -5 -6 5 6 7 10
-4 -9 -4 -4 5 8 8 11
4 -17 -6 -7 1 6 7 9
7 -17 -9 -9 -1 3 5 7
3 -11 -7 -9 0 3 5 8
-6 -15 -4 -7 3 6 7 10
-11 -14 -8 -9 0 3 5 9
-4 -16 -8 -8 1 3 4 9
-1 -15 -7 -7 2 3 5 10
-5 -22 -6 -7 1 4 7 10
-5 -19 -5 -4 4 6 9 13
-3 -19 -4 -1 4 8 10 14
0 -22 -7 -5 0 5 7 12
0 -22 -8 -5 1 5 8 13
0 -20 -7 -3 3 6 11 14
-4 -19 -8 -4 2 4 9 11
-6 -21 -8 -6 0 2 8 10
-4 -13 -11 -7 -2 0 5 6
1 -10 -13 -9 -4 -3 2 3
2 -21 -12 -8 -4 0 4 5
0 -19 -8 -6 0 3 7 9
0 -13 -7 -2 2 6 9 10
-2 -14 -13 -5 -1 4 7 8
-2 -18 -12 -4 0 5 8 10
0 -9 -13 -4 -1 4 7 10
6 -12 -14 -7 -3 2 5 8
10 -16 -15 -9 -5 -1 3 8
7 -18 -12 -4 -1 3 7 11
0 -18 -9 -3 -1 3 8 12
-3 -21 -3 -2 1 5 10 13
-8 -20 -4 0 2 7 12 17
-13 -10 -9 -2 0 6 11 16
-11 -19 -8 -2 0 7 12 18
0 -15 -13 -6 -4 3 7 13
6 -4 -13 -7 -6 2 6 12
5 -12 -5 -2 1 6 9 14
6 -20 -7 -3 -1 3 9 14
9 -20 -6 0 0 5 10 13
7 -23 -3 2 1 5 9 11
3 -27 -2 4 2 5 10 10
-6 -30 2 10 6 10 13 12
-4 -28 6 17 11 11 12 8
0 -31 7 21 16 14 12 5
1 -34 11 31 27 25 17 6
4 -24 15 41 39 38 26 9
10 -26 19 51 53 51 38 14
16 -27 24 63 70 69 52 22
25 -31 35 88 100 98 75 36
39 -24 39 110 127 128 101 48
50 -26 43 125 152 159 129 65
52 -25 51 141 182 199 171 98
64 -16 41 149 203 239 222 138
69 -3 29 140 208 268 263 174
63 13 24 125 208 283 292 205
54 38 18 104 199 280 301 227
43 55 14 76 171 240 272 229
23 69 6 29 109 148 201 213
4 87 1 -23 34 42 113 183
-11 94 -6 -69 -37 -49 36 147
-21 82 -12 -94 -89 -115 -27 108
-32 65 -6 -97 -108 -144 -64 76
-46 50 7 -82 -105 -151 -83 55
-51 39 7 -77 -102 -152 -91 43
-47 31 12 -68 -94 -150 -101 23
-42 27 19 -50 -77 -142 -108 2
-49 14 28 -32 -60 -132 -112 -18
-53 5 38 -17 -47 -121 -111 -30
-57 -1 52 1 -34 -113 -110 -43
-58 -9 61 17 -22 -102 -106 -50
-62 -19 72 33 -9 -95 -104 -56
-65 -24 82 51 5 -84 -99 -60
-64 -33 95 76 24 -67 -85 -58
-59 -40 99 86 33 -58 -79 -59
-52 -50 106 98 42 -47 -72 -58
-46 -50 115 112 54 -38 -65 -57
-43 -59 125 127 62 -31 -59 -56
-43 -67 134 136 68 -26 -55 -53
-38 -65 139 136 69 -25 -52 -54
-46 -65 146 138 71 -20 -47 -51
-43 -66 151 133 69 -20 -47 -50
-43 -61 157 129 66 -21 -47 -50
-44 -58 161 130 65 -22 -47 -50
-46 -62 164 129 63 -23 -50 -52
-49 -65 165 125 59 -24 -51 -52
-51 -62 170 121 54 -26 -52 -52
-59 -62 173 112 48 -27 -51 -52
-60 -69 174 105 44 -29 -52 -52
-58 -62 178 103 43 -28 -50 -49
-54 -67 184 102 42 -27 -49 -48
-57 -66 185 95 38 -30 -50 -49
-64 -62 187 90 38 -26 -48 -44
-63 -62 190 84 33 -29 -49 -44
-60 -60 187 68 21 -37 -57 -48
-65 -57 184 54 14 -41 -57 -47
-76 -55 180 48 15 -36 -51 -40
-70 -44 163 32 8 -38 -52 -41
-60 -47 143 16 -1 -41 -54 -42
-58 -52 130 7 -5 -38 -49 -37
-54 -40 115 -8 -14 -42 -50 -37
-50 -38 103 -20 -22 -46 -51 -36
-46 -37 89 -25 -22 -41 -46 -29
-48 -31 75 -24 -19 -37 -40 -22
-54 -40 64 -26 -18 -33 -36 -17
-48 -43 50 -27 -17 -28 -30 -13
-43 -42 40 -26 -14 -23 -27 -13
-38 -35 26 -32 -19 -27 -30 -18
-38 -40 21 -31 -17 -23 -25 -13
-42 -40 19 -26 -10 -17 -19 -9
-35 -40 14 -22 -9 -15 -16 -6
-29 -42 6 -23 -10 -14 -16 -6
-27 -45 1 -20 -7 -10 -12 -1
-21 -42 -4 -17 -6 -8 -10 1
-18 -43 -12 -20 -10 -10 -13 -1
-23 -47 -10 -14 -6 -3 -7 4
-24 -41 -10 -8 -1 1 -3 5
-21 -45 -15 -9 -3 -1 -4 2
-15 -41 -20 -13 -8 -4 -7 0
-13 -34 -18 -8 -4 2 -5 3
-15 -38 -15 -4 -2 4 -3 4
-13 -45 -17 -6 -6 3 -2 4
-14 -37 -27 -9 -10 1 -4 3
-14 -39 -27 -5 -9 3 -1 6
-13 -46 -28 -5 -9 5 0 8
-13 -44 -29 -8 -14 1 -1 7
-7 -34 -32 -7 -15 2 -1 5
-9 -41 -32 -5 -16 2 -1 3
-11 -46 -31 -6 -17 2 -1 3
-8 -40 -25 -2 -15 8 3 6
-8 -41 -27 -3 -17 7 2 5
-8 -42 -31 -7 -22 3 -1 3
-16 -37 -31 -5 -21 5 1 6
-19 -41 -26 -3 -21 5 2 6
-19 -43 -29 -5 -23 4 1 7
-11 -40 -32 -7 -26 1 -2 5
-6 -33 -35 -10 -31 -2 -5 2
-12 -41 -29 -7 -27 2 -2 4
-14 -41 -28 -8 -26 3 0 5
-8 -33 -26 -9 -28 1 -1 3
0 -24 -27 -14 -33 -4 -7 -2
-5 -34 -27 -15 -34 -4 -6 0
-7 -36 -25 -11 -30 1 -1 5
-4 -39 -24 -8 -27 2 -1 6
-3 -42 -28 -13 -31 -1 -4 5
-12 -41 -24 -11 -28 2 -1 7
-17 -42 -15 -5 -23 5 3 10
-20 -48 -8 -6 -23 5 3 8
-20 -46 -15 -11 -25 2 1 6
-17 -39 -18 -9 -23 3 2 3
-19 -36 -13 -7 -22 4 3 5
-21 -35 -20 -11 -25 2 0 3
-14 -36 -21 -13 -25 1 -2 4
-13 -39 -19 -7 -21 6 2 7
-14 -41 -22 -9 -23 4 0 6
-13 -36 -26 -12 -26 0 -3 4
-11 -34 -26 -11 -25 1 -3 4
-9 -32 -29 -18 -30 -5 -8 -3
-6 -44 -29 -18 -30 -3 -7 -2
-6 -37 -25 -15 -28 -2 -6 -1
-1 -42 -21 -13 -26 1 -3 1
-3 -42 -23 -15 -28 2 -3 4
-11 -39 -23 -12 -26 4 0 7
-6 -32 -22 -11 -25 3 1 6
-2 -36 -26 -14 -29 2 -2 4
-4 -39 -26 -16 -31 1 -4 3
-1 -34 -24 -14 -30 1 -3 2
-2 -37 -24 -16 -32 0 -4 0
-7 -33 -31 -19 -34 -1 -7 -2
-11 -25 -26 -14 -31 2 -2 2
-12 -37 -24 -10 -27 5 3 6
-10 -42 -24 -13 -32 3 1 5
-2 -39 -29 -17 -35 2 -1 6
-2 -36 -31 -15 -35 2 0 5
-3 -30 -35 -19 -38 2 -1 5
1 -27 -38 -23 -41 -2 -3 2
5 -33 -33 -21 -37 1 -1 3
5 -34 -32 -21 -37 -1 -2 2
-2 -37 -35 -23 -38 -1 -2 4
0 -31 -35 -23 -38 -2 -2 3
5 -34 -36 -23 -37 0 0 4
3 -33 -39 -28 -42 -3 -2 4
0 -28 -41 -28 -41 -1 0 7
0 -19 -42 -28 -40 -1 1 7
3 -26 -41 -29 -40 -1 0 8
3 -30 -40 -25 -35 4 6 14
2 -29 -42 -26 -37 4 6 13
8 -20 -50 -32 -45 -2 0 8
10 -18 -50 -34 -45 -2 1 9
7 -16 -46 -33 -42 0 4 11
2 -19 -44 -29 -38 4 9 17
-5 -22 -48 -30 -40 4 11 19
-1 -23 -51 -31 -39 6 13 22
8 -16 -54 -32 -39 6 14 22
5 -11 -59 -38 -45 3 12 21
10 -13 -58 -38 -42 6 16 26
10 -16 -53 -35 -38 10 20 28
6 -17 -60 -36 -41 9 20 28
10 -16 -60 -36 -41 10 21 31
9 -13 -59 -36 -39 10 24 33
8 -5 -63 -38 -41 9 23 32
11 -12 -64 -39 -42 10 23 33
13 -11 -67 -40 -42 11 25 36
14 -5 -67 -38 -40 13 28 39
19 -9 -69 -39 -42 13 27 39
20 -13 -71 -41 -40 14 28 41
18 -10 -69 -38 -38 17 32 42
16 -4 -71 -39 -39 15 31 40
13 -6 -67 -38 -36 20 35 44
17 0 -64 -35 -31 22 38 47
17 -5 -62 -32 -29 24 40 48
24 -3 -63 -36 -33 22 37 46
27 6 -69 -39 -34 21 36 47
25 8 -68 -36 -32 23 41 49
26 0 -65 -32 -29 27 44 52
24 2 -66 -34 -29 27 42 53
21 2 -62 -28 -23 32 46 54
18 -4 -57 -24 -19 34 48 54
17 0 -56 -25 -20 35 46 52
16 5 -54 -20 -14 39 49 54
18 2 -48 -15 -11 41 50 54
23 -1 -54 -19 -13 38 46 51
16 3 -51 -13 -6 44 51 57
9 2 -46 -5 1 49 57 61
8 -1 -47 -7 -2 46 52 56
13 -1 -48 -7 -1 44 49 53
11 -2 -44 -2 4 46 50 52
14 -5 -41 0 4 45 49 50
13 -7 -40 2 7 46 49 50
9 -3 -36 6 11 48 50 50
7 -6 -30 13 16 53 51 50
9 -9 -30 11 14 48 46 46
16 -5 -30 13 16 49 46 46
16 0 -29 15 19 50 45 45
16 1 -30 14 15 46 40 40
15 0 -26 15 17 45 40 38
13 -7 -23 20 21 48 42 39
7 -8 -21 22 21 46 41 36
3 -10 -18 24 23 49 41 38
2 -8 -17 24 25 47 38 36
4 -4 -17 24 22 44 35 31
8 -13 -16 25 23 44 35 32
9 -9 -17 23 23 43 33 30
10 -9 -10 27 26 43 34 30
9 -3 -16 24 21 39 28 26
6 -2 -18 22 20 37 25 24
2 -6 -10 28 26 42 29 28
-4 -17 -6 28 26 41 29 28
-3 -10 -10 23 19 35 22 23
7 -12 -9 24 22 34 21 23
10 -14 -8 24 19 32 21 22
8 -10 -8 18 15 26 17 17
6 -12 -5 20 17 30 19 20
5 -11 -4 22 19 31 19 20
6 -15 -3 20 16 29 17 18
1 -22 -3 20 17 30 18 18
2 -20 0 23 19 32 19 19
7 -18 1 20 17 26 15 16
5 -17 -3 16 15 23 12 14
5 -14 -3 17 17 24 12 15
0 -18 2 20 20 26 14 17
-3 -15 1 15 16 21 10 14
-5 -8 -1 16 17 22 12 16
-11 -7 7 19 18 23 12 16
-12 -12 6 20 20 24 13 19
-10 -14 1 16 20 22 12 18
-7 -8 2 15 18 20 10 15
-3 -12 -2 13 18 18 8 13
-3 -9 -3 12 17 16 7 13
-8 -6 0 14 20 18 9 14
-4 -13 1 16 20 19 8 14
-2 -14 -5 9 15 12 2 9
0 -13 -5 10 16 14 5 10
-1 -11 0 13 18 14 6 11
-6 -15 1 10 17 13 4 11
-8 -10 -3 8 17 13 5 11
1 -7 -7 11 18 13 5 10
7 -10 -9 8 15 9 1 5
9 -13 -8 7 14 8 0 5
3 -10 -5 10 16 10 1 6
-2 -11 0 14 19 12 5 10
-6 -13 -4 12 19 13 6 12
-3 -11 -6 12 18 12 4 10
-4 -11 -2 15 21 15 5 12
-4 -12 -8 12 19 12 5 10
-2 -12 -9 10 18 12 4 10
1 -5 -9 12 19 12 3 9
0 -6 -9 10 17 9 1 6
-3 -10 -6 11 20 10 3 9
-4 -5 -4 14 23 13 4 10
2 -6 -6 11 21 11 1 6
4 -10 -5 10 20 10 1 6
0 -4 -5 12 21 12 1 6
0 -7 -4 14 23 14 2 8
1 -6 -5 14 23 14 3 9
5 -9 -8 10 20 10 -1 6
3 -9 -5 13 24 12 1 9
-3 -9 -4 13 25 12 2 9
-4 -14 -3 12 26 14 4 10
-3 -8 1 15 29 17 5 11
-6 -8 2 15 30 17 6 11
0 -7 0 10 25 13 3 8
3 -6 -1 12 28 16 4 10
-4 -7 1 16 29 17 5 10
1 -11 -1 12 27 14 4 9
2 -14 0 12 26 15 4 10
0 -11 0 14 29 16 5 11
2 -6 -3 10 25 13 3 8
1 -10 0 8 24 11 2 8
2 -15 1 9 26 13 3 10
1 -15 1 10 28 14 5 12
-1 -13 4 7 26 13 4 10
-8 -3 6 11 31 15 7 14
-3 -1 0 12 31 15 8 14
4 -7 -4 8 27 12 5 12
2 -4 -7 5 25 11 3 10
3 -4 -4 8 27 12 3 11
5 -14 -4 7 27 12 5 11
3 -13 -5 4 26 11 4 11
0 -14 2 8 29 12 7 13
5 -11 0 8 30 12 7 13
8 -13 -5 4 25 10 4 10
-1 -7 -2 8 29 12 7 12
-5 -2 3 12 31 16 9 14
-2 1 -5 7 26 10 4 9
7 -4 -5 4 23 8 1 6
9 -4 -4 7 26 10 4 9
7 -9 -5 6 24 11 4 9
5 -8 -3 4 23 9 5 9
3 -3 -4 4 24 8 4 8
5 -6 -5 4 23 7 3 7
6 -7 -5 2 21 6 3 7
6 -6 -5 3 24 7 4 8
11 -6 0 5 25 9 5 9
11 -4 -4 3 22 8 4 8
0 1 -3 4 23 9 5 10
0 -2 3 10 29 14 8 14
3 -8 2 9 27 11 6 9
6 -12 1 5 24 9 4 8
5 -1 -1 4 24 7 4 6
2 1 -3 1 22 5 2 4
0 -4 -1 1 19 4 1 4
-3 -1 6 4 23 8 5 7
-9 2 -1 3 23 7 3 6
-7 0 -4 -1 18 3 -1 4
-2 -7 -1 1 20 4 1 4
2 -5 1 4 24 6 3 6
4 1 2 2 21 4 2 3
3 -6 4 1 20 4 1 4
5 -4 3 2 22 4 2 5
5 -10 3 3 23 5 4 6
7 -10 -3 -2 17 0 -1 1
10 -6 -1 0 21 4 2 5
6 -3 1 2 21 4 3 7
0 -7 2 1 20 2 3 7
1 -4 0 0 20 1 1 5
-1 -4 3 4 25 6 4 8
2 -6 3 4 23 4 3 6
0 2 0 0 19 1 -1 3
-3 2 3 3 23 3 1 4
3 3 4 4 25 4 3 6
9 3 0 1 22 2 1 4
7 2 3 3 25 6 3 6
8 6 3 4 26 4 4 6
9 8 -1 2 21 2 3 5
13 7 0 3 22 4 4 8
13 10 3 5 25 6 6 8
13 12 3 4 23 6 4 6
9 9 10 7 26 9 7 9
10 16 10 6 25 6 5 7
5 15 7 8 27 7 5 8
0 10 12 10 29 9 7 11
1 3 14 12 31 11 9 13
5 7 8 11 30 10 9 12
3 6 3 8 26 7 6 9
5 9 0 4 20 2 1 5
11 14 1 7 24 5 3 5
13 11 -1 4 21 2 1 2
9 -1 1 6 23 5 3 5
2 8 6 10 29 10 8 10
1 14 5 10 28 10 7 10
3 12 5 9 27 9 6 9
4 10 5 10 30 10 9 12
7 18 0 8 27 8 6 9
11 20 -6 2 22 5 4 8
12 13 -7 1 21 5 4 10
9 15 -5 3 22 8 7 13
9 12 -7 2 21 8 8 12
8 15 -10 -3 18 5 6 11
10 23 -12 -3 19 6 5 12
11 25 -14 -2 21 7 8 14
20 27 -16 -3 20 6 7 12
24 35 -15 -1 24 9 10 15
29 26 -15 3 26 11 12 15
24 25 -12 4 27 13 14 17
16 28 -10 8 30 17 16 22
14 31 -11 9 31 17 16 21
12 18 -10 8 33 18 15 21
12 16 -13 4 27 15 12 19
11 15 -14 3 23 13 12 18
9 18 -11 1 20 10 10 17
10 12 -18 -2 19 7 8 15
16 13 -19 -1 19 7 9 15
15 15 -20 -1 15 5 6 12
17 6 -21 -3 13 3 2 10
19 7 -21 -5 12 2 3 10
26 7 -20 -3 11 1 2 8
27 2 -21 -6 8 -2 -2 4
20 4 -21 -8 9 -3 -3 3
7 2 -15 -3 12 0 0 5
4 -3 -12 -2 11 0 0 4
14 -8 -16 -7 6 -5 -5 -1
4 -4 -13 -4 8 -3 -3 1
-8 -3 -8 3 14 2 1 3
-5 -13 -9 3 13 1 0 4
-2 -7 -11 -1 9 -2 -2 1
4 -4 -7 2 10 0 0 2
11 -9 -12 -5 3 -6 -7 -5
14 4 -22 -13 -3 -14 -14 -10
17 3 -20 -13 -4 -15 -16 -11
18 -9 -15 -11 -2 -12 -13 -10
15 -7 -21 -14 -5 -15 -16 -12
10 -7 -19 -11 -2 -12 -12 -8
6 -2 -19 -9 -3 -11 -11 -8
2 -2 -20 -10 -3 -12 -13 -6
2 -11 -18 -9 -1 -10 -10 -4
1 -6 -13 -4 2 -7 -6 0
6 -9 -16 -7 -3 -11 -11 -5
15 -8 -23 -14 -9 -16 -17 -11
18 -1 -20 -11 -8 -14 -16 -10
17 -9 -19 -9 -5 -12 -14 -10
18 -11 -25 -14 -10 -16 -17 -14
13 -11 -21 -9 -6 -12 -13 -9
11 -10 -21 -9 -8 -12 -15 -10
12 -9 -23 -11 -9 -13 -16 -10
6 -10 -20 -9 -7 -11 -13 -7
6 -2 -20 -10 -9 -12 -13 -9
4 -9 -18 -8 -7 -9 -11 -6
2 -14 -17 -8 -5 -9 -10 -6
6 -10 -17 -8 -6 -9 -12 -7
14 -1 -21 -11 -10 -13 -15 -12
15 -10 -23 -13 -12 -14 -16 -12
12 -8 -21 -10 -9 -11 -13 -9
7 -9 -18 -5 -7 -10 -12 -8
8 -13 -21 -7 -9 -12 -13 -9
1 -9 -17 -5 -4 -8 -11 -6
2 -5 -11 -3 -2 -7 -12 -6
8 -13 -17 -9 -9 -12 -17 -12
7 -10 -20 -11 -11 -14 -17 -11
6 -12 -16 -6 -6 -9 -13 -7
7 -10 -12 -5 -6 -8 -13 -8
8 -7 -15 -10 -11 -12 -17 -10
7 -10 -15 -6 -6 -9 -12 -6
8 -12 -12 0 -2 -5 -11 -5
12 -15 -17 -5 -7 -11 -15 -10
19 -16 -17 -5 -9 -13 -19 -14
23 -16 -13 0 -6 -13 -21 -17
20 -26 -9 8 -1 -10 -21 -22
14 -29 -4 17 8 -5 -17 -20
17 -25 6 28 20 7 -10 -18
23 -22 6 37 31 19 -1 -13
26 -19 5 46 42 32 8 -10
26 -20 15 67 67 57 30 3
33 -18 23 91 95 85 52 15
35 -11 29 112 120 116 79 30
42 -7 31 128 146 149 109 48
59 -9 36 144 172 188 151 80
74 -1 26 143 185 222 196 115
81 15 13 132 193 249 234 148
76 31 12 119 199 266 263 180
64 46 6 100 185 263 271 200
51 71 -2 61 143 206 230 196
32 88 -13 12 76 111 156 176
13 98 -24 -43 -2 9 73 148
4 94 -31 -86 -67 -76 3 115
1 72 -33 -108 -113 -133 -53 78
0 62 -26 -107 -131 -161 -91 47
-9 51 -19 -98 -132 -170 -111 27
-21 49 -17 -92 -129 -171 -119 15
-32 44 -3 -74 -114 -164 -123 0
-44 40 11 -53 -96 -151 -126 -16
-41 24 14 -39 -85 -145 -131 -35
-39 23 24 -23 -72 -136 -131 -49
-43 14 37 -3 -58 -124 -129 -60
-42 3 46 11 -47 -116 -127 -67
-41 0 55 27 -36 -109 -125 -75
-43 -9 69 50 -19 -94 -116 -76
-39 -20 79 72 -5 -80 -108 -76
-37 -27 86 84 6 -68 -100 -74
-36 -27 96 100 16 -57 -93 -75
-32 -27 106 115 26 -48 -87 -73
-29 -39 114 124 32 -42 -81 -71
-33 -40 123 132 39 -34 -73 -65
-27 -36 126 131 37 -34 -73 -68
-29 -40 131 130 37 -30 -70 -65
-26 -35 135 127 37 -28 -66 -63
-28 -39 146 132 40 -23 -63 -57
-35 -42 150 130 36 -28 -67 -61
-29 -42 153 125 32 -31 -69 -64
-26 -43 153 124 30 -31 -69 -66
-30 -46 155 115 23 -33 -70 -66
-32 -48 157 106 16 -38 -72 -67
-35 -44 158 102 15 -36 -70 -66
-26 -42 162 99 12 -37 -71 -68
-35 -43 166 96 13 -36 -70 -64
-51 -36 171 90 13 -36 -68 -60
-47 -29 172 85 9 -35 -68 -59
-43 -28 166 69 -5 -46 -76 -66
-46 -30 162 54 -12 -51 -77 -65
-46 -26 156 43 -15 -50 -74 -63
-50 -24 145 31 -20 -50 -73 -60
-43 -25 126 18 -29 -51 -72 -58
-35 -22 108 5 -35 -51 -70 -56
-40 -18 96 -6 -40 -51 -67 -52
-44 -15 83 -16 -45 -52 -65 -49
-40 -10 69 -23 -49 -51 -62 -46
-33 -12 58 -24 -49 -48 -57 -42
-26 -14 44 -30 -55 -49 -59 -42
-23 -17 28 -34 -55 -47 -57 -37
-23 -5 17 -33 -53 -42 -51 -34
-26 -9 13 -30 -49 -36 -46 -31
-23 -11 4 -33 -50 -37 -46 -32
-13 -7 -1 -33 -51 -35 -43 -31
-3 -14 -8 -31 -50 -31 -41 -30
-7 -12 -14 -29 -47 -29 -38 -26
-16 -16 -15 -21 -39 -20 -29 -17
-12 -18 -19 -20 -37 -17 -25 -15
-7 -19 -24 -20 -39 -19 -27 -17
-2 -19 -29 -22 -42 -19 -28 -16
2 -20 -27 -18 -37 -15 -24 -15
4 -19 -25 -14 -35 -12 -23 -14
6 -17 -36 -19 -38 -16 -26 -17
8 -14 -36 -14 -34 -10 -20 -13
9 -16 -36 -9 -31 -6 -16 -10
8 -16 -42 -12 -35 -9 -19 -13
9 -9 -46 -16 -39 -11 -23 -15
10 -12 -47 -12 -37 -9 -20 -14
9 -18 -49 -12 -38 -10 -21 -14
7 -9 -58 -16 -42 -13 -24 -15
10 -7 -56 -14 -43 -11 -24 -17
14 -7 -57 -14 -45 -12 -25 -18
13 -9 -62 -16 -46 -14 -26 -19
17 -11 -63 -15 -46 -11 -22 -16
14 -12 -60 -10 -43 -7 -19 -14
17 -9 -62 -15 -50 -12 -24 -17
17 -11 -60 -16 -49 -11 -23 -16
10 -15 -59 -8 -43 -5 -16 -10
-4 -17 -59 -8 -45 -5 -16 -9
-5 -14 -61 -11 -47 -5 -18 -9
1 -16 -54 -8 -45 -4 -16 -10
3 -16 -57 -11 -50 -10 -20 -17
9 -17 -66 -18 -57 -15 -26 -21
11 -18 -60 -14 -52 -10 -22 -18
11 -7 -60 -13 -53 -12 -22 -21
15 -14 -59 -12 -53 -10 -20 -18
16 -18 -61 -15 -54 -10 -21 -19
19 -12 -58 -13 -53 -9 -20 -19
12 -15 -59 -14 -55 -10 -21 -19
0 -21 -57 -14 -54 -6 -18 -13
0 -17 -54 -11 -51 -5 -17 -13
-8 -20 -53 -8 -50 -3 -15 -12
-16 -22 -55 -11 -52 -5 -16 -13
-6 -11 -57 -13 -53 -6 -17 -15
11 -18 -56 -14 -54 -9 -20 -19
20 -17 -61 -19 -59 -13 -23 -22
20 -19 -62 -20 -58 -12 -22 -20
16 -14 -59 -16 -55 -8 -19 -18
14 -18 -57 -15 -56 -9 -18 -18
7 -17 -57 -17 -56 -9 -17 -16
9 -13 -55 -16 -54 -9 -18 -18
18 -15 -60 -18 -58 -12 -22 -22
19 -18 -67 -25 -64 -18 -26 -27
17 -14 -65 -22 -59 -14 -23 -24
13 -10 -63 -21 -56 -13 -22 -24
3 -10 -58 -18 -54 -10 -18 -18
4 -9 -60 -17 -53 -9 -16 -16
6 -9 -59 -16 -52 -7 -16 -16
4 -11 -63 -20 -57 -13 -20 -19
4 -9 -64 -22 -58 -12 -19 -19
4 -9 -62 -20 -55 -11 -19 -20
7 -9 -63 -19 -55 -11 -19 -22
6 -18 -65 -21 -57 -13 -19 -23
1 -14 -62 -19 -51 -8 -14 -17
4 -15 -61 -17 -49 -7 -12 -16
8 -14 -67 -22 -54 -12 -16 -18
13 -2 -76 -30 -62 -18 -22 -24
12 -6 -70 -24 -56 -11 -16 -18
4 -12 -69 -22 -56 -12 -17 -18
10 -11 -70 -25 -59 -12 -18 -18
17 -3 -74 -29 -60 -15 -21 -22
15 -5 -75 -27 -60 -14 -20 -23
16 -11 -78 -31 -62 -16 -20 -22
15 -10 -79 -31 -60 -12 -17 -19
15 -8 -78 -28 -59 -11 -15 -19
12 -8 -74 -28 -60 -11 -14 -16
11 -12 -75 -31 -61 -11 -14 -15
12 -11 -75 -29 -58 -9 -12 -13
10 -11 -79 -31 -60 -12 -12 -13
3 -9 -79 -31 -60 -10 -9 -8
6 -5 -80 -31 -57 -8 -6 -9
10 -8 -80 -31 -58 -8 -6 -9
17 -3 -84 -37 -64 -13 -10 -12
27 6 -88 -38 -64 -12 -9 -12
26 0 -88 -37 -61 -11 -6 -10
21 -3 -88 -37 -62 -10 -4 -6
22 -5 -92 -40 -62 -9 -3 -4
24 2 -95 -41 -62 -9 -2 -6
24 1 -95 -44 -65 -12 -2 -6
21 0 -93 -44 -64 -9 0 -1
23 7 -95 -43 -61 -6 3 0
22 3 -97 -41 -61 -6 4 1
20 -2 -101 -43 -62 -5 5 3
28 6 -102 -43 -61 -3 6 4
28 6 -98 -41 -61 -2 8 4
26 4 -95 -43 -62 -3 8 7
30 11 -107 -47 -63 -4 9 9
26 10 -106 -42 -59 0 13 13
18 10 -106 -42 -58 2 16 15
15 8 -105 -42 -56 4 18 19
20 13 -108 -43 -56 3 17 17
28 17 -112 -45 -59 1 16 16
32 13 -110 -47 -59 0 14 14
30 18 -109 -42 -53 6 18 19
30 20 -109 -39 -50 9 22 22
29 18 -110 -40 -50 8 23 22
29 20 -111 -39 -49 11 25 25
29 21 -110 -36 -47 13 27 24
33 25 -114 -41 -50 8 24 21
37 18 -112 -38 -47 12 27 26
29 21 -108 -35 -42 16 29 29
28 24 -107 -33 -42 17 29 32
29 19 -106 -33 -41 17 29 34
27 19 -102 -29 -35 21 33 38
31 22 -97 -26 -33 24 35 38
35 22 -98 -27 -34 21 32 37
34 21 -100 -26 -32 22 32 38
35 18 -92 -17 -23 28 38 43
27 14 -88 -14 -22 30 39 45
17 14 -87 -12 -18 32 39 48
20 22 -80 -8 -15 32 38 44
23 18 -80 -6 -15 32 36 42
20 16 -82 -6 -14 31 35 41
21 19 -79 -2 -9 33 36 41
21 22 -75 1 -7 33 35 38
22 20 -70 5 -5 33 35 39
19 22 -72 4 -4 33 33 38
21 14 -65 11 2 37 37 43
29 13 -68 9 -2 33 31 38
30 15 -71 6 -5 29 25 33
24 10 -63 15 2 35 28 35
20 6 -59 17 4 35 28 35
10 6 -58 17 4 34 27 34
6 15 -53 22 9 36 28 33
9 12 -49 24 8 36 27 32
11 7 -48 21 5 34 24 32
13 7 -49 21 6 32 23 31
12 7 -45 26 10 35 24 33
15 10 -47 23 5 29 21 28
18 10 -47 23 5 28 17 27
15 12 -42 23 5 28 15 24
13 9 -38 25 5 27 15 25
13 8 -45 19 1 21 11 19
10 6 -36 23 7 28 16 24
14 3 -38 23 5 27 14 22
8 -4 -36 22 4 26 15 25
3 -1 -31 22 5 26 16 26
2 2 -28 25 6 29 16 27
8 0 -35 19 0 22 10 22
18 1 -36 17 -2 20 8 21
18 1 -36 17 -2 19 8 19
14 -3 -33 18 -1 20 8 20
12 -2 -32 15 -3 18 7 19
8 -1 -29 17 1 20 9 21
5 1 -27 18 1 21 10 21
1 -6 -27 17 1 20 10 22
0 -6 -28 14 0 18 8 21
0 3 -26 15 2 20 8 22
0 3 -29 12 -2 16 5 18
6 0 -29 11 -3 15 3 18
2 2 -27 13 -2 15 5 18
-1 2 -23 14 0 15 4 16
2 -4 -20 13 0 15 5 17
6 0 -24 14 1 15 5 17
9 0 -26 13 -2 13 3 14
9 2 -27 10 -5 10 -1 11
9 6 -28 5 -8 7 -4 9
10 4 -23 9 -3 11 -1 14
8 2 -26 8 -6 9 -2 12
2 -7 -28 9 -3 10 0 14
0 -1 -22 10 -2 11 1 15
-1 7 -26 8 -3 9 -2 12
5 4 -28 7 -5 7 -2 12
8 1 -22 12 1 13 3 17
3 -3 -16 16 3 15 5 17
3 -2 -19 14 0 12 2 17
1 -1 -18 11 -2 11 1 16
-1 -3 -10 13 2 14 3 17
-1 -2 -17 14 -1 12 2 15
-1 -6 -17 10 0 10 -1 14
3 0 -23 7 -2 6 -4 9
13 -5 -24 6 -3 6 -4 9
15 -5 -25 5 -6 4 -5 8
15 1 -20 8 0 8 -3 10
7 2 -16 11 1 10 -1 10
-2 -5 -13 12 3 12 2 14
2 -2 -14 11 3 12 2 15
6 5 -16 11 3 13 0 13
2 -2 -15 13 2 13 2 14
-7 -3 -11 13 6 15 4 19
-9 -4 -12 15 8 17 6 19
0 -2 -12 13 5 14 3 16
8 2 -18 7 -1 8 -2 10
9 -1 -17 8 4 12 2 13
10 -1 -10 13 6 15 4 14
9 -6 -13 11 4 14 3 14
5 -5 -14 11 6 16 5 16
2 0 -7 15 11 20 8 20
3 -1 -11 12 6 15 4 16
-5 -1 -11 14 8 17 6 19
-6 5 -10 13 9 16 5 17
-4 0 -8 13 8 15 4 17
8 -6 -13 9 4 13 2 15
7 -1 -12 6 5 13 2 15
4 10 -16 5 2 9 -1 10
12 5 -19 3 0 8 -1 11
14 0 -18 3 1 8 0 12
9 8 -16 7 4 12 3 14
2 1 -14 8 5 15 4 18
0 -4 -13 9 6 14 4 20
7 0 -13 9 6 15 4 17
10 -5 -11 6 4 11 1 14
12 -4 -15 1 -1 8 -2 11
-1 -1 -10 9 7 16 6 17
-11 -3 -8 12 9 19 8 19
-5 0 -13 7 5 13 3 16
-6 -4 -11 10 7 15 6 19
-8 3 -9 12 10 18 8 21
-8 2 -8 8 5 15 5 19
-1 -8 -12 7 5 14 4 18
5 -2 -14 6 4 13 3 16
6 2 -14 7 5 13 3 16
5 0 -18 2 1 9 -1 11
11 -1 -17 5 3 12 0 10
10 -4 -16 5 3 11 0 8
5 -1 -14 2 0 10 -2 8
2 -3 -15 3 2 13 2 12
2 -1 -15 6 5 15 5 13
-4 4 -17 3 2 13 2 11
-9 -1 -15 5 4 15 3 14
-8 -4 -13 6 5 16 5 15
1 -2 -15 4 3 14 2 12
7 -6 -15 4 3 13 0 10
3 -4 -12 5 5 15 2 10
0 1 -12 7 5 13 3 9
-1 5 -18 0 0 9 -2 5
-4 -1 -13 5 4 14 3 10
-7 1 -12 8 7 17 6 13
-5 -9 -15 5 4 14 3 13
-6 -5 -15 4 4 14 3 12
-2 -6 -15 4 4 13 4 12
2 -2 -13 1 1 11 1 7
5 -7 -14 1 2 12 1 8
-2 -6 -12 4 5 16 5 11
-9 -3 -8 8 7 17 7 13
-5 -5 -13 2 3 13 2 9
2 -3 -20 -2 -2 8 -1 5
1 1 -16 2 2 12 1 7
1 -10 -13 1 2 12 1 9
-6 -10 -13 -2 2 12 1 10
-4 -2 -16 -1 2 11 1 9
0 -1 -17 -2 0 9 -1 5
2 -4 -17 -3 0 9 -1 6
1 -2 -13 0 5 13 3 9
-2 -3 -11 5 9 15 5 12
-3 1 -12 4 7 16 5 12
-3 9 -14 3 5 14 4 12
5 6 -11 4 7 15 5 11
2 2 -10 5 8 16 5 12
-6 5 -9 2 6 15 5 12
-1 6 -5 4 9 17 7 13
5 7 -8 4 9 17 6 12
-4 9 -9 2 9 17 6 12
-5 17 -3 7 13 22 10 14
4 13 -3 6 12 19 7 10
6 7 -6 6 12 20 8 12
3 7 -3 10 15 25 12 16
-1 8 0 15 19 28 16 19
-1 7 -4 11 14 24 11 16
-3 12 -9 6 12 20 7 13
1 10 -10 5 10 19 6 12
2 5 -6 8 14 22 10 15
-3 4 -8 6 12 21 8 13
-3 5 -7 7 15 23 11 14
0 2 1 10 16 24 12 15
5 1 -5 7 15 22 9 13
4 12 -6 8 16 22 9 13
-7 15 -1 13 21 29 13 17
-4 8 -5 10 18 26 12 16
4 11 -12 2 12 19 7 13
-1 15 -13 1 12 20 7 13
-1 19 -12 1 13 21 8 14
-1 17 -13 -4 9 17 7 13
-9 19 -10 -2 14 22 11 15
-9 23 -15 1 15 26 12 16
-9 28 -18 0 14 25 13 17
-2 29 -18 -2 14 25 14 18
5 31 -11 3 19 31 17 22
4 24 -16 4 18 30 17 22
13 29 -21 -2 14 26 14 20
22 40 -24 -1 13 25 12 17
17 28 -16 4 17 29 18 21
13 21 -16 1 15 28 18 22
11 20 -16 2 17 29 18 23
10 21 -20 -1 12 26 14 18
3 18 -21 -4 10 24 14 18
0 13 -21 -5 9 24 14 18
4 17 -18 -4 10 25 13 17
11 16 -23 -11 3 17 7 10
16 15 -24 -13 0 14 3 7
17 15 -15 -10 3 15 4 7
10 12 -16 -9 5 17 5 7
5 7 -15 -11 2 16 3 6
-1 6 -10 -7 7 20 6 8
-7 2 -12 -6 6 19 5 6
-12 3 -13 -7 4 17 4 5
-12 4 -10 -7 4 17 4 4
-11 5 -8 -7 4 16 2 2
-5 -5 -13 -11 0 12 -2 -2
-1 -6 -14 -13 -2 10 -5 -3
-4 -3 -8 -10 0 11 -4 -3
-7 -3 -10 -8 2 13 -2 -1
-8 -6 -15 -15 -5 8 -6 -4
-13 -4 -10 -11 3 14 -2 0
-11 -8 -11 -10 2 13 -3 -3
-8 -11 -14 -15 -1 10 -5 -4
-13 -9 -9 -12 1 12 -3 -2
-12 -1 -12 -13 -2 9 -7 -5
-5 -9 -19 -18 -8 6 -11 -10
-4 -11 -17 -18 -5 8 -9 -7
-13 -9 -13 -16 -3 9 -8 -7
-14 -6 -11 -15 -2 10 -7 -7
-7 -7 -15 -19 -8 6 -10 -10
-13 -1 -15 -19 -5 9 -8 -7
-17 -7 -9 -10 2 15 -3 -3
-15 -10 -11 -12 1 14 -3 -3
-2 -9 -15 -18 -6 7 -10 -9
7 -7 -18 -20 -8 5 -13 -13
-2 -8 -19 -22 -10 3 -15 -14
-5 -10 -14 -21 -7 5 -11 -8
-10 -1 -16 -20 -7 5 -11 -9
-8 -5 -16 -19 -6 7 -10 -10
-9 -10 -15 -21 -7 7 -10 -10
-9 -9 -12 -16 -3 12 -7 -7
-5 -12 -12 -15 -3 12 -8 -9
-5 -11 -12 -15 -4 11 -8 -7
-11 -8 -10 -16 -4 12 -7 -8
-15 -1 -7 -13 -1 14 -6 -6
-17 -6 -11 -15 -4 11 -8 -8
-17 -11 -10 -17 -4 11 -7 -5
-17 -12 -5 -13 -2 14 -5 -5
-16 -10 -4 -14 -3 11 -7 -7
-8 -11 -13 -20 -8 7 -11 -11
-10 -12 -6 -15 -2 13 -6 -6
-14 -13 -1 -12 0 15 -5 -7
-20 -11 1 -10 2 17 -3 -5
-19 -7 -2 -12 -1 15 -4 -7
-12 -4 -4 -11 -1 15 -5 -8
-7 -13 -4 -13 -2 13 -7 -11
-6 -16 -4 -15 -4 11 -8 -10
-9 -14 -4 -11 -2 12 -8 -12
-11 -10 1 -9 -1 10 -12 -16
-10 -18 0 -6 0 10 -14 -22
-7 -21 6 5 11 19 -9 -20
-4 -27 13 19 22 28 -4 -20
6 -25 15 22 28 37 1 -20
9 -19 17 32 41 52 14 -14
10 -18 21 50 61 71 29 -6
17 -27 27 68 81 93 48 4
31 -25 36 89 110 123 75 19
39 -20 43 109 137 156 104 36
40 -8 40 123 159 190 140 63
47 -2 35 128 178 229 190 102
52 9 33 128 194 264 238 142
50 26 24 115 193 281 267 169
44 39 16 94 184 283 279 192
36 60 12 67 158 245 253 197
21 81 4 21 99 158 181 177
-4 85 -9 -38 22 51 93 146
-15 90 -19 -85 -46 -35 19 114
-17 73 -20 -109 -93 -97 -42 74
-24 56 -15 -114 -117 -131 -83 42
-37 49 -11 -105 -117 -140 -103 21
-37 52 -6 -100 -113 -140 -110 9
-36 41 2 -86 -106 -137 -119 -7
-42 33 7 -71 -93 -132 -125 -24
-49 31 14 -55 -80 -123 -128 -41
-54 35 23 -38 -66 -111 -127 -53
-58 14 38 -21 -54 -103 -126 -63
-61 10 49 -8 -44 -96 -124 -71
-58 2 61 11 -29 -85 -120 -77
-54 -3 71 27 -20 -78 -118 -84
-46 -16 76 42 -8 -68 -111 -84
-51 -17 86 64 12 -50 -98 -78
-59 -24 100 84 28 -34 -85 -73
-62 -35 111 100 38 -23 -75 -68
-60 -35 121 112 45 -17 -70 -67
-53 -33 130 121 53 -9 -65 -67
-43 -38 130 117 49 -13 -67 -71
-39 -30 134 112 48 -13 -68 -72
-36 -24 140 115 49 -10 -66 -69
-43 -32 148 119 52 -5 -61 -65
-51 -35 151 119 51 -7 -60 -63
-52 -29 159 122 54 -5 -59 -62
-51 -29 162 122 52 -6 -60 -64
-57 -35 164 112 47 -9 -59 -65
-56 -29 166 101 37 -15 -64 -69
-49 -23 166 99 35 -15 -66 -70
-45 -24 169 94 31 -16 -66 -70
-46 -24 177 91 32 -16 -65 -67
-53 -20 179 91 33 -14 -63 -65
-63 -24 186 88 34 -13 -60 -62
-66 -25 186 75 25 -21 -64 -63
-67 -23 188 66 20 -22 -65 -62
-61 -18 183 53 15 -25 -66 -62
-50 -17 166 33 5 -30 -70 -64
-54 -8 152 20 0 -30 -68 -60
-69 -1 144 14 1 -25 -61 -54
-69 -5 127 -3 -11 -28 -60 -52
-62 -4 111 -18 -19 -32 -60 -48
-53 -3 100 -25 -22 -31 -58 -46
-44 -2 81 -36 -29 -34 -60 -48
-39 -4 69 -44 -35 -37 -60 -47
-38 2 58 -44 -33 -31 -54 -41
-36 10 43 -46 -32 -27 -51 -39
-37 11 35 -48 -32 -26 -48 -38
-37 4 30 -47 -29 -22 -44 -33
-35 4 28 -42 -23 -16 -39 -31
-36 -2 19 -44 -25 -17 -37 -30
-30 -4 11 -44 -23 -14 -33 -25
-21 -2 8 -39 -19 -11 -31 -24
-21 2 0 -42 -21 -12 -31 -26
-21 -2 -4 -42 -21 -12 -28 -23
-18 0 -4 -36 -17 -8 -26 -21
-12 6 -9 -37 -19 -8 -27 -24
-11 0 -7 -32 -14 -3 -22 -19
-13 -2 -10 -30 -12 -2 -20 -16
-8 6 -12 -28 -10 1 -19 -20
-6 4 -16 -29 -12 0 -19 -25
-10 2 -19 -31 -12 0 -18 -27
-6 5 -21 -29 -11 1 -19 -29
-1 6 -26 -32 -15 -1 -21 -36
-4 4 -30 -35 -19 -5 -23 -37
-12 6 -20 -26 -10 3 -17 -31
-8 1 -20 -24 -9 4 -15 -32
-8 3 -22 -24 -12 3 -16 -34
-13 7 -26 -25 -13 2 -17 -36
-10 9 -28 -23 -12 5 -16 -38
-5 5 -31 -27 -17 1 -17 -41
-2 3 -32 -27 -17 2 -17 -38
-2 1 -28 -27 -17 3 -16 -38
-2 3 -30 -28 -19 2 -18 -41
-5 1 -31 -32 -23 -2 -20 -43
-6 2 -22 -28 -19 3 -17 -40
-5 1 -25 -26 -19 2 -17 -44
-4 3 -31 -31 -22 -2 -21 -47
-2 -1 -29 -31 -23 -1 -21 -46
-6 6 -25 -28 -20 4 -19 -46
-7 3 -26 -31 -22 0 -20 -48
-10 0 -24 -29 -21 2 -18 -44
-15 4 -18 -27 -19 3 -16 -43
-7 4 -22 -27 -19 3 -18 -45
0 0 -27 -34 -27 -4 -24 -49
4 8 -27 -36 -29 -6 -26 -51
1 7 -23 -31 -24 -3 -23 -49
-3 0 -24 -34 -25 -3 -23 -49
-3 -1 -22 -32 -25 -2 -22 -47
-7 -2 -17 -27 -20 2 -18 -44
-4 -4 -21 -32 -24 -2 -22 -47
-1 1 -17 -32 -25 -2 -22 -45
-7 9 -16 -30 -21 -1 -22 -45
-15 8 -17 -29 -20 1 -20 -45
-11 0 -17 -31 -22 0 -21 -45
-5 7 -15 -31 -21 -3 -21 -48
-4 3 -16 -30 -21 -3 -20 -49
-6 -3 -16 -31 -20 -1 -18 -48
-8 2 -18 -33 -22 -4 -20 -50
-3 7 -18 -32 -20 -2 -19 -50
-1 -2 -18 -33 -21 -3 -18 -49
-2 2 -14 -36 -22 -5 -20 -50
-7 11 -13 -33 -20 -5 -18 -49
-11 7 -18 -33 -18 -3 -16 -48
-7 4 -19 -37 -21 -6 -18 -47
-1 4 -14 -31 -15 0 -13 -43
-7 2 -14 -28 -14 0 -11 -43
-5 -2 -15 -31 -16 -1 -13 -44
-2 2 -18 -35 -19 -5 -16 -45
-1 1 -16 -32 -17 -3 -13 -45
5 -2 -19 -35 -21 -7 -15 -47
4 -3 -19 -39 -25 -9 -16 -46
2 4 -18 -38 -24 -9 -16 -46
1 7 -21 -39 -23 -8 -16 -46
4 8 -26 -45 -29 -13 -20 -48
13 8 -22 -40 -25 -10 -17 -46
9 10 -23 -39 -24 -10 -18 -47
2 7 -22 -40 -23 -8 -15 -43
0 5 -21 -40 -22 -8 -13 -41
-3 6 -19 -38 -20 -5 -12 -41
-5 3 -19 -41 -23 -8 -13 -42
-5 5 -21 -40 -22 -7 -10 -38
-4 6 -25 -43 -24 -10 -12 -40
6 13 -28 -49 -29 -13 -15 -43
7 5 -26 -51 -30 -14 -15 -41
5 5 -22 -45 -25 -9 -10 -36
6 5 -22 -43 -23 -6 -8 -35
11 4 -27 -49 -28 -11 -10 -37
4 10 -27 -49 -27 -10 -9 -34
2 15 -24 -43 -21 -3 -2 -28
3 16 -31 -50 -27 -8 -6 -31
5 22 -34 -54 -30 -9 -5 -29
7 13 -30 -51 -27 -5 -2 -26
10 11 -32 -52 -27 -4 0 -24
10 12 -36 -56 -30 -8 -1 -24
11 19 -36 -54 -27 -4 1 -22
15 22 -37 -54 -29 -4 1 -21
18 15 -38 -55 -27 -1 4 -20
19 18 -40 -57 -29 -4 3 -21
24 20 -39 -54 -25 1 7 -20
24 13 -44 -58 -30 -2 5 -21
17 20 -42 -60 -29 -2 7 -17
17 22 -42 -57 -26 2 10 -12
20 20 -46 -60 -29 0 9 -14
19 21 -48 -62 -31 -2 10 -13
16 24 -40 -56 -24 5 16 -6
16 24 -40 -56 -27 4 16 -9
21 28 -47 -59 -30 3 17 -9
23 33 -50 -60 -31 3 16 -7
23 38 -46 -57 -29 8 21 -4
25 34 -46 -58 -30 7 21 -4
30 28 -49 -58 -30 8 23 -2
33 38 -49 -57 -31 9 22 -3
33 41 -50 -57 -30 8 22 -3
20 32 -47 -54 -26 12 27 4
13 32 -39 -44 -16 22 35 12
18 28 -36 -41 -14 23 35 11
28 28 -42 -48 -18 19 31 8
31 28 -40 -47 -16 19 32 9
24 33 -35 -41 -9 24 36 11
13 39 -35 -39 -8 26 38 13
11 34 -32 -37 -4 29 41 17
19 33 -30 -33 -1 31 40 15
21 34 -27 -30 2 32 41 15
13 31 -22 -26 5 35 45 17
12 36 -23 -22 10 38 45 18
16 40 -24 -22 8 34 40 12
19 28 -22 -21 8 34 39 10
23 26 -22 -20 10 32 39 11
18 30 -15 -13 18 37 43 13
19 31 -17 -15 15 34 41 10
21 32 -14 -13 18 36 42 11
18 28 -8 -8 21 38 42 11
15 31 -6 -4 24 40 42 10
14 31 -5 -4 21 37 39 8
9 30 1 3 30 42 42 11
10 26 5 6 30 42 40 8
13 20 6 5 30 40 40 5
13 20 6 5 31 39 38 6
10 26 9 9 34 39 38 5
10 24 8 6 30 34 34 0
10 21 9 6 32 35 33 1
9 18 13 10 34 35 33 1
6 17 18 11 34 36 32 1
6 16 17 10 32 34 30 1
6 21 21 14 36 37 30 1
8 17 23 15 35 36 28 -3
8 17 18 12 33 33 25 -4
11 11 17 9 32 30 22 -6
11 13 20 13 34 32 25 -6
9 20 17 7 28 26 20 -10
1 23 17 5 28 25 19 -10
-1 12 25 11 35 31 24 -4
-2 11 24 10 34 30 22 -7
1 7 23 7 31 26 22 -8
2 22 24 9 34 28 22 -6
3 20 23 7 32 26 18 -9
0 14 23 6 34 26 19 -8
-4 19 24 6 33 26 18 -8
-6 17 27 9 36 26 19 -7
-4 10 29 7 35 23 18 -9
0 9 25 3 33 21 16 -11
6 11 23 1 30 19 12 -13
1 10 27 6 35 22 16 -9
-9 5 29 5 37 24 18 -7
-3 10 30 8 38 25 18 -6
-4 7 32 8 38 24 17 -8
-6 8 29 5 37 22 14 -9
-4 11 32 5 37 21 13 -9
-6 9 36 9 42 24 16 -7
-8 5 34 6 40 20 15 -9
-6 5 30 4 39 20 16 -8
-6 11 28 2 37 17 13 -13
-2 12 28 3 36 16 12 -14
3 5 25 -1 35 14 10 -15
1 13 26 1 36 15 9 -14
-5 4 31 6 41 21 13 -11
-1 1 29 4 39 19 11 -13
2 2 31 4 40 18 11 -12
-1 12 36 8 43 20 14 -10
-1 1 37 3 39 16 11 -12
0 5 32 4 42 16 12 -10
-4 9 32 5 44 17 13 -10
-5 11 29 4 43 16 12 -11
-1 5 30 1 42 15 12 -11
0 11 30 3 44 15 11 -11
1 7 32 5 45 17 10 -11
-1 5 32 5 44 18 12 -9
-4 7 34 4 46 17 13 -10
-1 11 39 8 49 19 15 -8
-5 2 36 6 48 18 15 -8
-11 2 38 8 50 20 19 -4
-10 4 42 11 54 23 21 -2
-2 8 38 8 51 19 17 -6
3 3 35 3 47 16 14 -9
6 12 38 5 49 16 14 -9
1 10 37 5 49 17 12 -11
-3 2 40 6 51 19 16 -6
5 5 36 4 48 16 13 -7
5 8 39 6 52 18 15 -6
-4 6 41 6 53 20 18 -3
-10 4 42 9 55 22 21 2
-7 5 41 8 58 22 21 0
-2 8 41 10 58 20 20 -1
-3 6 39 6 54 18 17 -1
-5 12 41 10 60 21 20 0
-6 8 43 10 61 22 19 -1
0 7 38 4 56 16 14 -4
8 4 40 5 58 17 15 -2
1 14 38 6 62 18 16 -3
-4 7 36 3 60 16 16 -2
-4 3 42 5 64 18 19 2
0 5 40 3 64 17 17 1
-2 5 43 6 66 19 19 2
-2 4 38 3 64 16 17 1
1 15 35 4 65 16 15 -1
-3 14 40 6 66 16 16 1
-4 1 42 6 67 16 18 2
3 -2 36 3 66 14 15 0
1 -1 42 7 72 18 19 2
1 -2 37 0 66 13 16 -2
4 -2 34 0 65 12 18 -1
5 -1 34 2 68 13 17 0
4 0 36 4 69 14 18 1
-1 1 38 4 70 14 19 4
3 2 38 5 71 14 18 3
4 3 38 6 73 14 17 1
1 3 39 5 74 15 19 3
-3 3 39 6 75 16 20 6
-6 1 44 10 79 18 21 6
-12 -6 44 7 77 17 21 6
-10 -3 38 4 74 13 19 6
-3 11 36 3 72 10 15 2
-2 9 33 1 71 8 14 1
2 7 33 -2 69 6 12 2
5 13 30 0 73 8 13 1
6 2 32 4 75 10 16 2
-1 2 36 5 77 12 18 5
-8 6 38 6 79 14 20 7
-8 5 37 9 82 17 22 7
-5 6 31 2 76 10 16 2
1 7 27 -4 71 4 12 0
6 -1 31 1 75 8 16 3
4 -2 32 2 77 8 17 4
-4 -5 32 -1 75 7 17 5
-6 4 33 1 78 9 17 6
1 2 32 1 76 7 15 4
2 -1 31 1 78 8 15 4
-2 0 40 3 80 10 17 7
-6 3 39 6 82 11 19 7
-2 -1 36 1 78 7 17 5
-2 -3 40 -1 76 6 16 6
-7 -1 37 2 79 8 18 8
-4 0 36 2 81 9 19 9
-3 2 30 -5 77 3 14 5
-5 5 30 0 80 7 16 7
-5 1 33 4 81 8 17 7
6 -2 32 -2 77 3 13 4
20 0 24 -7 74 -1 9 2
18 -5 29 -1 79 4 13 4
5 -8 30 0 82 6 16 7
2 -2 32 2 86 10 19 11
-10 6 37 7 91 13 21 14
-14 10 37 10 92 14 23 16
-10 4 39 8 91 14 23 19
-6 9 39 9 93 13 22 18
-6 11 36 10 92 14 23 16
-6 3 37 11 95 16 25 19
-3 4 36 10 94 17 24 19
0 11 37 12 96 18 26 19
-1 10 32 6 91 12 22 15
4 10 31 5 92 13 21 17
3 15 34 9 94 14 22 16
-6 4 44 15 100 18 27 23
-9 9 34 10 96 15 24 22
-7 11 36 12 98 18 26 24
-3 2 35 15 99 18 27 22
-2 11 28 11 95 15 25 21
-2 16 24 8 93 12 21 17
0 10 26 10 95 13 23 18
2 8 25 8 93 13 24 18
3 9 27 7 93 12 25 19
0 10 30 14 99 17 30 23
2 8 27 13 98 16 30 23
7 16 17 3 92 9 22 18
5 14 19 7 96 15 26 22
3 9 18 6 93 13 25 20
5 6 17 5 93 13 27 22
0 9 16 5 96 15 30 25
1 14 15 7 96 16 33 26
10 17 6 -1 90 12 29 24
10 20 11 1 94 16 33 30
13 28 10 3 96 16 33 29
17 28 7 6 97 18 35 30
7 17 9 10 100 23 43 36
4 21 16 17 107 29 48 42
9 24 15 17 104 26 46 41
16 16 11 12 99 22 42 36
13 13 9 12 99 20 41 35
7 14 7 11 97 19 40 34
13 6 2 2 88 11 32 27
17 3 3 -2 85 8 30 27
16 5 -3 -2 84 7 28 26
18 6 -2 -1 84 6 28 26
15 3 -1 -3 82 3 27 25
11 11 2 0 84 6 27 25
6 6 5 4 85 9 29 27
-2 1 6 4 84 9 28 26
1 3 3 2 81 6 26 23
5 0 -1 4 80 5 25 21
5 -7 -7 -4 72 -2 19 15
-6 -7 -2 0 76 1 24 20
-13 -6 2 6 80 5 27 23
-12 -8 1 4 75 3 24 21
-11 -15 2 2 73 2 23 20
-9 -10 3 5 72 4 25 21
-6 -8 -1 3 68 1 21 18
-2 -14 -3 2 66 2 21 20
-5 -15 -4 1 63 0 20 20
-6 -11 -1 2 62 -1 19 19
1 -18 -5 -4 55 -7 15 15
1 -13 -10 -9 50 -10 13 13
-4 -11 -8 -4 52 -6 16 16
-5 -19 -5 -2 52 -5 17 17
-3 -18 -3 -7 45 -10 12 13
5 -13 -5 -4 46 -11 13 12
9 -16 -7 -6 43 -13 10 8
2 -17 -1 -4 44 -9 13 11
-10 -15 4 1 48 -3 19 17
-14 -12 3 4 50 -2 19 18
-9 -17 0 0 44 -6 16 16
-6 -19 -4 -1 42 -6 16 15
-2 -18 -4 -2 39 -9 13 13
0 -14 -7 -5 33 -13 10 9
-1 -20 -4 -8 30 -14 10 9
-10 -16 5 1 37 -6 17 15
-17 -16 1 5 39 -5 18 17
-7 -17 -2 -2 32 -10 14 14
1 -8 -4 -6 27 -15 9 9
0 -9 -6 -1 32 -12 12 12
0 -18 -8 -4 27 -15 12 12
-1 -13 -8 -3 27 -14 14 14
-6 -18 -1 2 29 -10 16 16
-6 -15 -3 1 26 -11 15 15
-3 -15 -10 -4 21 -16 12 12
-3 -12 -7 -1 23 -13 14 13
-4 -10 -4 1 23 -11 15 14
-2 -16 -5 -1 21 -11 15 14
0 -22 7 -3 18 -14 12 12
-1 -15 2 -1 20 -12 13 13
-7 -19 0 -2 16 -13 13 13
-5 -19 -1 -1 19 -11 15 17
-4 -17 1 2 20 -10 15 16
-6 -18 3 3 20 -9 16 16
-8 -14 -1 0 16 -13 13 13
-6 -10 0 4 18 -12 13 12
0 -17 2 6 19 -13 9 8
-1 -27 5 11 21 -12 8 6
0 -29 10 17 26 -11 6 2
8 -29 12 26 34 -3 10 1
9 -35 12 31 39 3 13 0
13 -28 18 39 51 17 26 8
19 -27 26 56 69 35 41 15
22 -30 26 72 87 55 57 23
33 -26 30 90 108 80 78 35
46 -18 37 115 136 114 110 52
51 -20 43 133 158 145 141 75
58 -13 38 139 176 179 183 107
66 2 28 136 187 211 230 144
67 10 23 129 191 235 266 177
63 25 14 109 184 241 285 202
48 42 13 89 173 224 278 218
32 62 10 54 133 160 223 208
15 76 0 4 67 63 139 181
-2 85 -13 -50 -3 -29 59 147
-12 84 -12 -76 -50 -93 -5 111
-18 61 -8 -88 -84 -138 -53 74
-28 47 6 -82 -90 -152 -79 49
-29 52 1 -73 -84 -151 -87 39
-35 40 7 -61 -78 -148 -93 27
-42 29 13 -52 -72 -147 -102 7
-38 30 20 -40 -62 -141 -108 -10
-38 25 26 -26 -52 -133 -110 -25
-46 20 38 -9 -41 -127 -108 -37
-54 8 48 6 -29 -117 -106 -44
-49 -1 64 27 -12 -103 -98 -46
-44 -5 75 41 -6 -100 -99 -56
-52 -8 83 57 8 -88 -93 -57
-51 -15 89 75 21 -76 -83 -55
-46 -23 98 92 34 -63 -74 -55
-47 -31 100 103 37 -58 -71 -58
-46 -36 112 118 48 -47 -61 -53
-41 -32 124 127 53 -41 -58 -54
-39 -37 130 133 56 -37 -53 -52
-39 -45 133 137 61 -32 -47 -47
-39 -40 138 143 67 -26 -43 -42
-41 -44 147 144 67 -23 -39 -41
-39 -43 150 142 63 -27 -41 -42
-39 -42 150 143 59 -29 -45 -43
-40 -36 157 145 59 -29 -44 -43
-40 -40 156 136 48 -35 -50 -48
-38 -40 156 128 39 -40 -53 -49
-39 -37 163 126 36 -40 -53 -52
-37 -45 167 123 34 -39 -51 -52
-37 -45 169 121 30 -41 -51 -51
-44 -38 183 127 34 -37 -48 -48
-48 -38 185 122 30 -39 -50 -48
-52 -33 187 115 24 -41 -50 -48
-54 -32 190 105 17 -45 -52 -47
-63 -35 193 98 15 -43 -47 -43
-63 -33 185 80 3 -47 -49 -43
-59 -31 170 62 -4 -50 -48 -41
-61 -29 159 52 -9 -49 -46 -38
-56 -28 148 36 -19 -51 -43 -37
-51 -25 130 14 -33 -60 -47 -37
-51 -16 120 6 -37 -58 -43 -33
-50 -17 104 -2 -42 -60 -43 -31
-44 -17 86 -13 -49 -63 -43 -31
-38 -12 77 -21 -53 -65 -43 -30
-33 -19 61 -23 -51 -58 -36 -24
-30 -19 48 -28 -54 -57 -34 -24
-25 -17 36 -31 -53 -57 -32 -23
-24 -16 34 -26 -47 -54 -30 -21
-28 -13 32 -27 -47 -52 -27 -19
-25 -20 21 -28 -47 -51 -24 -16
-21 -14 15 -20 -38 -43 -19 -10
-14 -14 6 -21 -40 -43 -20 -12
-6 -13 -6 -28 -46 -49 -24 -15
0 -18 -11 -25 -44 -46 -21 -13
0 -14 -12 -22 -41 -43 -18 -12
1 -16 -15 -23 -43 -43 -17 -13
4 -19 -15 -19 -39 -39 -13 -8
5 -17 -14 -16 -38 -36 -12 -8
3 -15 -14 -14 -38 -35 -10 -7
-1 -12 -15 -14 -39 -34 -8 -5
-7 -9 -14 -6 -35 -28 -4 0
-8 -10 -19 -6 -37 -28 -5 -1
-10 -14 -24 -9 -42 -31 -7 -2
-14 -18 -24 -7 -43 -31 -7 -1
-9 -17 -23 -5 -44 -30 -6 -4
1 -21 -29 -12 -55 -37 -12 -11
3 -17 -32 -15 -55 -37 -12 -10
6 -16 -30 -13 -55 -36 -12 -10
7 -18 -28 -15 -58 -38 -13 -11
6 -19 -29 -18 -61 -41 -15 -10
4 -12 -27 -15 -60 -38 -15 -9
-1 -14 -25 -12 -59 -37 -13 -11
-4 -7 -28 -15 -63 -40 -16 -13
-1 -7 -28 -15 -63 -43 -17 -12
-2 -8 -25 -12 -62 -40 -15 -11
-8 -13 -25 -15 -65 -42 -14 -13
-3 -16 -25 -16 -65 -42 -13 -12
1 -9 -27 -18 -66 -45 -16 -16
-7 -15 -18 -14 -62 -39 -10 -10
0 -14 -20 -18 -67 -44 -13 -12
6 -15 -17 -16 -64 -42 -13 -13
5 -12 -21 -17 -66 -45 -16 -16
1 -15 -17 -19 -67 -45 -15 -15
-1 -20 -15 -17 -63 -43 -13 -13
5 -18 -18 -16 -63 -45 -14 -16
9 -18 -24 -24 -70 -53 -20 -23
6 -15 -20 -24 -69 -51 -19 -21
1 -16 -18 -21 -62 -47 -18 -19
1 -13 -19 -23 -62 -47 -17 -20
0 -13 -20 -24 -62 -48 -18 -19
4 -9 -16 -18 -56 -44 -15 -16
2 -13 -14 -16 -54 -43 -15 -17
3 -13 -17 -21 -56 -46 -16 -19
8 -10 -16 -21 -55 -47 -18 -20
9 -14 -12 -17 -52 -45 -17 -20
1 -20 -12 -21 -55 -46 -18 -23
-4 -19 -9 -20 -52 -45 -17 -20
-4 -18 -6 -19 -50 -45 -17 -20
0 -16 -7 -20 -49 -45 -17 -21
0 -20 -15 -24 -50 -46 -16 -19
3 -13 -14 -22 -48 -45 -16 -20
6 -12 -12 -20 -47 -44 -15 -20
0 -13 -13 -21 -47 -45 -14 -19
-1 -7 -16 -24 -49 -47 -16 -19
5 -9 -13 -20 -47 -44 -16 -20
6 -18 -17 -25 -52 -48 -19 -23
3 -13 -17 -26 -51 -47 -16 -22
-1 -13 -15 -23 -50 -45 -15 -21
0 -12 -14 -26 -52 -47 -16 -22
4 -12 -16 -30 -57 -51 -19 -23
4 -9 -15 -27 -53 -47 -16 -20
-3 -13 -19 -26 -53 -47 -14 -18
-3 -14 -19 -27 -53 -47 -14 -17
2 -12 -18 -28 -54 -47 -16 -18
7 -7 -23 -26 -53 -46 -17 -20
9 -10 -27 -32 -61 -52 -21 -24
12 -13 -30 -34 -61 -52 -21 -24
4 -10 -29 -30 -58 -50 -18 -22
1 -15 -27 -30 -57 -47 -17 -21
5 -16 -32 -34 -62 -50 -18 -20
8 -12 -29 -31 -58 -46 -16 -16
12 -16 -33 -34 -63 -49 -18 -19
16 -9 -38 -41 -68 -54 -23 -22
15 -2 -39 -42 -70 -53 -21 -21
10 -2 -32 -37 -65 -47 -16 -16
10 -9 -36 -41 -67 -49 -16 -15
15 -7 -42 -43 -67 -49 -15 -14
12 -1 -39 -41 -65 -47 -14 -13
17 -1 -40 -43 -66 -47 -13 -13
20 -7 -44 -46 -66 -49 -12 -12
18 -3 -37 -41 -61 -41 -7 -6
18 -5 -42 -42 -66 -41 -7 -5
13 -4 -47 -47 -69 -44 -8 -3
23 1 -51 -50 -71 -47 -10 -3
24 3 -52 -49 -71 -45 -8 -5
19 -1 -54 -51 -72 -43 -6 -2
14 0 -47 -48 -66 -38 0 7
15 4 -49 -47 -67 -38 -1 6
22 7 -50 -49 -69 -39 -1 5
26 6 -52 -53 -70 -41 -3 5
31 8 -55 -51 -68 -40 -2 8
31 7 -53 -52 -69 -40 -2 7
29 7 -60 -56 -71 -42 -4 7
19 7 -53 -51 -66 -37 2 15
13 15 -52 -46 -62 -32 5 18
16 13 -59 -54 -67 -37 3 14
17 16 -56 -54 -66 -35 6 19
20 14 -54 -49 -61 -29 10 22
27 19 -59 -52 -64 -31 8 20
26 14 -56 -49 -60 -28 13 25
23 18 -52 -43 -55 -23 17 28
23 14 -49 -42 -54 -21 18 30
26 14 -54 -44 -54 -23 17 29
23 18 -54 -43 -54 -22 17 30
20 22 -46 -38 -48 -15 23 34
25 15 -49 -43 -51 -17 22 31
28 14 -36 -43 -48 -17 22 33
33 16 -37 -37 -43 -13 25 34
29 21 -47 -38 -44 -12 24 34
25 26 -44 -37 -41 -11 25 35
22 23 -34 -25 -29 -2 34 43
25 15 -34 -23 -28 -1 33 41
28 18 -36 -23 -28 -2 32 40
29 20 -34 -21 -26 -2 31 40
28 25 -29 -20 -23 0 28 37
28 17 -32 -19 -23 0 26 35
25 16 -27 -17 -18 3 27 35
21 14 -19 -9 -10 9 32 37
21 11 -12 -5 -6 12 33 38
24 10 -17 -7 -8 8 30 34
25 16 -12 1 -1 13 32 35
29 9 -8 1 -2 11 28 29
24 8 -7 3 2 12 28 30
21 12 -5 7 5 14 29 31
14 17 2 11 7 16 27 32
13 13 -3 9 6 12 23 27
12 11 1 10 8 14 23 26
11 7 5 13 8 15 23 24
9 7 5 16 12 17 24 25
4 5 4 12 10 13 21 23
8 9 11 16 12 15 20 23
11 8 11 17 11 13 18 19
13 12 10 13 8 9 13 15
5 8 14 18 14 12 17 19
8 11 15 20 15 10 15 17
11 7 11 12 8 3 9 10
7 8 16 16 13 8 13 15
10 5 17 16 12 5 11 12
15 4 15 13 10 2 9 10
7 -1 20 14 13 4 12 14
-1 2 23 19 18 7 14 17
-2 2 21 18 17 3 11 13
2 -1 19 14 15 2 8 11
1 0 22 15 16 1 7 10
-4 -1 27 19 21 4 11 13
1 -5 22 13 16 -1 5 8
6 0 20 11 16 -2 4 7
8 5 20 11 15 -2 2 3
9 -2 22 12 18 -1 3 4
8 -5 23 10 18 -2 3 4
6 -3 29 13 20 0 2 6
1 -7 31 12 20 -1 2 4
-1 -9 29 12 23 1 4 6
4 -6 22 7 19 -4 0 1
7 -7 25 11 22 0 3 3
6 -11 23 7 19 -3 1 1
2 -7 22 7 20 -2 1 3
-2 -6 35 11 24 2 3 5
-1 -3 29 10 21 1 1 2
-3 -4 27 8 18 -2 -1 1
-5 -4 31 13 23 3 2 6
-4 -4 27 8 17 -3 -3 -1
-5 -2 23 8 15 -4 -3 0
-8 -2 24 10 16 -2 -2 1
1 -7 23 9 17 -3 -4 -3
13 -6 14 1 7 -10 -11 -10
18 -4 13 0 7 -10 -11 -8
19 -5 21 3 11 -6 -7 -5
11 -4 28 8 16 -3 -3 -2
5 -7 24 8 14 -2 -3 -1
5 -3 24 11 19 2 -1 3
-7 -9 29 13 21 2 2 5
-15 -9 28 14 23 3 4 8
-11 -6 27 13 21 3 3 7
-10 -6 31 13 23 4 4 7
-10 -8 27 8 18 -1 1 3
-5 -4 23 7 19 -1 0 3
4 -2 24 7 19 -1 -1 1
10 -4 27 6 19 -3 -3 1
6 -12 37 8 20 -1 -1 2
8 -6 34 11 24 2 1 4
8 -2 28 10 22 1 0 3
-2 -8 31 13 24 4 4 7
-2 -11 31 11 21 3 2 7
5 -9 30 10 21 3 1 5
2 -12 30 5 16 0 -1 0
1 -8 32 6 19 3 0 4
2 -6 31 7 21 4 1 4
-2 -9 36 10 23 6 5 6
-4 -10 36 10 23 6 5 6
-1 -5 37 12 26 7 6 7
-1 -5 35 11 24 7 4 3
1 -7 32 11 23 6 6 5
1 -9 31 10 22 6 4 4
0 -4 32 9 25 6 5 4
0 -9 31 4 19 3 2 0
4 -3 28 2 19 2 0 1
8 3 28 3 19 2 0 -2
6 -1 30 3 20 2 2 1
1 -7 34 5 21 4 3 3
-3 -1 37 12 28 9 8 7
0 -3 34 8 24 7 6 3
5 -6 35 9 25 8 7 4
5 5 33 4 20 5 3 1
6 -2 36 6 23 7 5 1
5 -9 31 4 20 5 3 0
7 -10 31 2 19 4 1 1
11 -9 32 4 19 5 2 -1
9 -10 31 3 20 5 2 -1
5 -13 29 1 17 3 1 -3
9 -3 29 2 18 3 0 -3
6 -7 32 6 20 6 3 -2
-3 -12 35 8 22 9 6 2
-7 -3 36 9 23 11 6 3
-10 -3 38 10 24 11 6 3
-1 -13 33 4 16 6 2 -4
-2 -8 35 5 19 8 4 1
-7 -8 36 8 21 11 7 2
1 -6 35 4 18 9 5 0
4 -9 29 -1 13 5 1 -2
1 -4 33 3 17 7 3 -1
-3 -4 34 5 17 6 3 -3
-3 -10 39 4 16 6 2 -1
6 -9 33 4 16 6 1 -3
8 -1 29 3 14 4 -1 -7
7 -2 23 -3 8 -2 -6 -13
6 -4 31 1 12 4 -1 -5
6 -4 34 5 17 7 3 -3
-3 -7 33 7 17 7 4 -1
-12 -11 33 6 16 8 3 -1
-6 -9 35 8 18 10 5 0
3 -5 30 3 13 4 -1 -7
9 -9 26 0 11 1 -3 -8
8 -8 24 -2 9 -1 -5 -9
7 -8 29 0 9 2 -4 -9
10 -13 27 -5 6 -1 -6 -12
11 -10 27 -4 9 2 -4 -8
13 -6 25 -2 10 4 -3 -8
13 -6 24 -3 10 1 -3 -9
6 -9 26 -2 11 3 -1 -6
-8 -5 33 5 18 12 5 1
-7 -9 32 4 16 10 3 -4
-1 -3 27 -1 12 5 -1 -8
1 -9 27 -1 12 5 -1 -8
1 -6 28 1 13 6 -2 -9
0 -9 26 -2 10 6 -2 -9
0 -7 29 0 14 10 2 -6
6 -2 30 1 15 10 0 -7
9 -7 32 2 16 10 1 -8
10 -5 28 -1 14 9 1 -7
12 4 33 5 21 15 4 -3
-1 4 39 9 24 17 7 -2
-10 4 38 10 25 18 10 1
-8 2 35 10 25 19 10 2
0 8 33 6 21 14 3 -5
5 3 31 2 17 10 2 -7
3 3 30 5 21 15 5 -4
2 8 33 6 22 16 6 -5
3 1 36 9 25 18 8 -2
6 -4 30 7 23 16 7 -3
11 0 34 10 27 19 8 -3
12 -3 33 8 25 17 8 -5
10 -6 26 7 24 17 8 -6
10 -2 25 8 27 18 8 -6
4 0 30 11 29 21 9 -5
-1 -6 28 7 25 18 8 -6
6 -1 34 8 26 19 8 -6
9 0 29 9 27 21 8 -9
0 1 28 11 28 21 10 -7
5 3 29 7 28 20 9 -6
8 7 25 9 30 21 10 -6
13 7 21 6 27 20 11 -6
5 9 21 3 25 19 12 -5
4 16 19 0 23 19 9 -6
8 26 19 -2 21 18 7 -8
4 12 14 -7 19 16 6 -8
13 13 6 -5 22 19 10 -5
19 18 7 -1 27 23 12 -4
16 23 8 -1 27 23 13 -4
18 19 4 -5 28 24 14 -3
20 16 9 5 35 30 21 4
22 16 6 4 35 30 20 3
22 16 4 6 38 33 23 6
17 13 5 7 40 34 23 6
14 12 7 9 40 35 23 5
8 10 1 3 36 31 20 3
9 16 -7 -2 30 25 15 -1
15 9 -4 -3 30 25 14 -2
14 4 -3 -3 28 23 12 -4
13 1 -10 -6 26 21 10 -6
12 0 -3 1 30 26 14 -4
14 -5 -4 -1 27 23 10 -7
16 1 -8 -7 21 17 5 -10
14 2 -6 -8 20 15 4 -11
8 -5 2 -2 24 20 6 -9
5 -14 -1 -3 23 20 4 -11
3 -6 -3 -3 23 21 4 -12
-1 -10 0 -1 24 23 4 -12
-6 -14 4 2 28 25 7 -10
-4 -17 -1 -3 24 21 4 -13
-2 -15 3 2 27 24 7 -11
-2 -19 3 1 25 22 4 -15
-5 -22 0 -2 22 20 2 -15
0 -20 -1 -5 19 17 -1 -17
3 -18 -5 -7 17 17 -2 -20
3 -20 -7 -12 12 13 -5 -24
2 -14 0 -9 16 16 -1 -21
3 -19 -7 -8 17 18 -2 -21
0 -17 -9 -10 12 15 -6 -25
4 -17 -13 -14 8 11 -10 -30
6 -18 -9 -10 13 14 -7 -27
6 -20 -6 -8 13 15 -7 -27
2 -20 -12 -9 11 14 -7 -26
3 -16 -13 -13 7 11 -10 -28
6 -22 -8 -10 12 17 -6 -25
4 -28 -14 -11 10 15 -7 -26
-3 -23 -9 -8 13 19 -3 -22
1 -17 -7 -8 11 17 -5 -24
10 -22 -11 -12 5 14 -8 -28
6 -17 -7 -10 7 15 -7 -27
-2 -17 -1 -2 15 24 -1 -20
-3 -23 -6 -2 14 23 -3 -22
3 -21 -7 -6 9 19 -6 -26
5 -24 -12 -9 5 16 -12 -28
2 -23 -10 -5 7 21 -8 -26
-2 -30 -11 -8 4 18 -10 -27
-8 -27 -2 -5 9 23 -5 -22
-5 -14 1 -5 8 24 -6 -25
1 -18 -11 -8 3 22 -8 -28
6 -23 -12 -10 2 20 -8 -28
9 -13 -10 -5 7 24 -5 -24
7 -22 -9 -5 5 23 -6 -26
3 -26 -5 -4 6 23 -4 -25
3 -25 -8 -4 7 23 -5 -24
3 -23 -4 -2 6 24 -5 -25
-3 -26 0 -5 3 21 -5 -25
-3 -24 1 -6 5 21 -4 -24
-4 -26 -4 -4 5 22 -5 -23
-12 -25 -2 0 7 25 -2 -20
-9 -24 -5 -4 4 21 -4 -23
-4 -15 -2 0 8 25 -2 -20
-6 -24 0 5 10 27 -1 -21
-1 -23 -4 3 6 22 -5 -27
1 -28 0 9 9 22 -6 -29
0 -31 6 17 16 27 -6 -30
10 -37 3 19 17 27 -7 -36
21 -36 9 26 28 38 -1 -36
25 -34 9 34 40 51 9 -32
28 -34 10 48 56 69 25 -24
33 -41 19 64 75 90 45 -13
45 -32 27 90 106 123 72 4
51 -34 31 111 133 157 103 23
50 -30 32 126 156 190 138 48
58 -16 29 134 174 225 183 85
73 -4 22 134 185 260 230 124
74 2 9 115 179 273 260 152
61 23 6 100 176 282 280 184
41 42 8 82 163 263 272 198
25 67 1 39 113 186 208 181
13 76 -12 -14 41 82 119 153
-4 87 -19 -58 -25 -9 39 119
-12 79 -26 -90 -85 -85 -33 75
-15 64 -28 -108 -120 -129 -82 38
-29 54 -14 -97 -121 -143 -105 15
-36 53 -8 -85 -115 -140 -112 4
-37 36 -6 -79 -114 -140 -121 -15
-45 32 9 -58 -95 -130 -124 -30
-51 31 14 -38 -77 -116 -124 -47
-47 22 17 -26 -70 -108 -126 -64
-47 13 29 -13 -61 -102 -125 -77
-45 6 42 7 -45 -89 -118 -80
-48 -1 48 20 -38 -84 -119 -89
-50 -11 57 36 -29 -76 -113 -94
-44 -18 68 54 -15 -65 -106 -95
-38 -30 75 74 0 -49 -95 -93
-34 -39 82 87 9 -38 -88 -93
-32 -43 89 102 19 -30 -80 -91
-30 -42 101 118 29 -21 -73 -89
-37 -47 113 133 39 -11 -64 -83
-45 -51 119 137 43 -6 -57 -80
-47 -41 126 141 47 1 -52 -74
-42 -47 127 139 44 -1 -53 -75
-35 -48 123 131 39 -4 -55 -79
-29 -43 125 128 34 -8 -59 -80
-26 -48 132 132 32 -8 -61 -80
-33 -53 134 130 26 -9 -61 -81
-43 -53 140 130 26 -8 -58 -78
-44 -47 141 120 16 -12 -61 -79
-37 -45 144 115 10 -14 -62 -82
-32 -47 147 112 7 -15 -60 -80
-35 -43 154 115 11 -10 -56 -77
-42 -48 158 114 10 -9 -55 -75
-48 -47 157 104 4 -13 -59 -77
-47 -44 158 95 -4 -17 -61 -77
-52 -43 163 91 -7 -18 -62 -77
-57 -34 154 70 -23 -27 -67 -81
-56 -33 150 61 -24 -26 -63 -75
-45 -32 134 43 -31 -27 -63 -73
-44 -27 124 32 -36 -26 -59 -70
-43 -23 111 19 -43 -26 -55 -66
-46 -20 101 8 -48 -26 -52 -60
-44 -18 87 -4 -57 -30 -54 -58
-39 -18 68 -17 -65 -33 -55 -58
-37 -18 56 -23 -68 -32 -53 -55
-36 -16 50 -23 -66 -28 -47 -49
-33 -17 28 -35 -74 -31 -47 -51
-27 -22 14 -39 -73 -29 -44 -48
-19 -17 7 -36 -71 -27 -42 -46
-16 -14 2 -37 -72 -26 -41 -47
-10 -13 -9 -38 -69 -24 -38 -45
-10 -15 -8 -29 -60 -16 -31 -38
-17 -18 -12 -26 -58 -11 -27 -33
-13 -19 -22 -27 -58 -11 -25 -32
-6 -23 -31 -28 -61 -11 -26 -31
-4 -17 -36 -25 -59 -10 -26 -30
-7 -12 -42 -28 -63 -12 -27 -34
-6 -14 -40 -25 -60 -8 -24 -32
-7 -10 -39 -20 -58 -5 -22 -30
3 -11 -49 -21 -59 -5 -22 -32
9 -11 -52 -22 -60 -4 -20 -29
5 -13 -46 -12 -52 3 -14 -22
-1 -14 -45 -12 -55 5 -12 -21
-2 -14 -50 -14 -58 4 -13 -21
0 -11 -51 -13 -59 6 -12 -19
-2 -14 -51 -10 -57 7 -11 -18
1 -18 -61 -17 -67 1 -16 -21
2 -13 -61 -16 -66 2 -16 -22
2 -19 -57 -13 -64 4 -15 -20
7 -17 -58 -14 -69 0 -17 -24
8 -14 -62 -21 -77 -3 -19 -27
6 -10 -54 -11 -68 5 -13 -21
3 -13 -52 -11 -70 4 -15 -22
0 -13 -52 -14 -75 1 -16 -23
-3 -7 -45 -13 -74 2 -15 -20
-5 -10 -44 -10 -72 3 -15 -20
3 -15 -54 -20 -82 -5 -22 -25
7 -15 -46 -16 -78 0 -18 -21
7 -15 -40 -14 -77 -2 -19 -22
10 -14 -48 -18 -80 -5 -22 -24
8 -12 -48 -22 -82 -5 -21 -24
1 -6 -39 -17 -78 -1 -18 -22
2 -10 -35 -18 -79 -2 -18 -21
5 -9 -39 -21 -79 -3 -20 -21
5 -7 -38 -19 -77 -2 -18 -17
1 -8 -32 -14 -73 0 -17 -16
-6 -16 -32 -18 -76 -3 -18 -16
-9 -14 -33 -16 -72 1 -15 -14
-8 -14 -32 -16 -72 -1 -18 -16
5 -16 -33 -21 -76 -6 -23 -22
8 -11 -36 -27 -78 -10 -23 -24
0 -8 -32 -20 -70 -4 -19 -20
3 -13 -28 -21 -72 -7 -22 -22
10 -16 -29 -24 -73 -9 -23 -23
10 -17 -33 -23 -69 -8 -21 -19
9 -13 -29 -18 -64 -3 -19 -18
1 -17 -32 -23 -66 -7 -21 -19
-1 -10 -34 -23 -66 -7 -21 -19
7 -12 -31 -21 -64 -7 -20 -17
7 -11 -31 -21 -65 -6 -20 -19
3 -5 -36 -27 -68 -11 -21 -19
10 -2 -33 -23 -64 -8 -19 -18
13 -5 -38 -27 -70 -16 -27 -24
5 -13 -35 -26 -68 -13 -23 -20
4 -8 -34 -28 -67 -13 -22 -21
6 -5 -36 -26 -67 -12 -22 -21
6 -4 -41 -30 -71 -15 -25 -23
3 -3 -41 -30 -67 -13 -22 -21
0 -3 -37 -26 -64 -10 -21 -19
-2 -6 -32 -23 -63 -9 -19 -18
-1 -9 -38 -28 -65 -10 -19 -18
5 -3 -36 -25 -63 -8 -18 -14
7 -5 -40 -26 -67 -11 -21 -17
7 -8 -36 -29 -69 -12 -21 -17
2 -8 -38 -30 -70 -11 -19 -13
4 -9 -43 -29 -71 -12 -20 -14
7 -10 -53 -38 -79 -19 -24 -18
11 -6 -52 -36 -76 -15 -22 -16
12 2 -52 -37 -77 -17 -24 -18
9 -3 -44 -35 -75 -15 -21 -17
10 -4 -45 -37 -77 -15 -20 -17
12 -1 -43 -33 -73 -12 -17 -14
9 -5 -45 -36 -76 -13 -17 -14
7 -4 -55 -39 -80 -15 -20 -14
3 -4 -55 -38 -78 -12 -18 -9
-6 -5 -49 -33 -74 -9 -16 -6
1 -7 -56 -42 -83 -15 -21 -11
4 4 -60 -42 -85 -15 -19 -7
5 4 -57 -43 -85 -14 -20 -7
12 10 -61 -46 -88 -17 -22 -10
19 5 -64 -46 -88 -15 -18 -7
18 6 -63 -41 -85 -11 -15 -4
19 5 -67 -44 -89 -13 -15 -2
20 5 -65 -46 -91 -11 -12 1
21 10 -68 -48 -92 -13 -12 2
21 18 -65 -48 -93 -13 -13 2
20 6 -67 -53 -95 -14 -14 3
20 16 -81 -56 -95 -17 -15 3
26 19 -82 -57 -97 -18 -15 3
26 15 -81 -57 -97 -17 -14 3
23 13 -80 -53 -91 -11 -7 10
21 21 -76 -47 -86 -5 -1 16
21 24 -81 -49 -89 -8 -2 16
18 23 -80 -51 -89 -6 2 21
15 25 -81 -52 -89 -5 3 22
19 20 -79 -48 -87 -2 5 24
23 15 -87 -55 -91 -7 1 20
22 18 -86 -54 -89 -6 3 22
27 26 -86 -54 -89 -8 2 21
30 31 -90 -55 -90 -7 1 18
31 30 -90 -57 -91 -9 2 19
23 30 -79 -47 -80 2 12 28
23 26 -82 -48 -79 4 14 30
26 29 -84 -49 -80 5 16 32
28 30 -78 -45 -73 9 22 40
21 35 -75 -41 -70 11 22 39
25 32 -84 -48 -76 5 17 34
31 34 -82 -45 -73 8 19 35
27 35 -78 -40 -68 12 21 37
24 30 -68 -36 -65 15 24 40
24 33 -71 -40 -65 12 23 37
26 41 -67 -37 -60 14 22 36
23 38 -65 -35 -58 16 23 35
17 38 -65 -32 -56 17 24 36
22 39 -63 -30 -54 18 24 35
27 34 -59 -24 -49 20 23 35
22 28 -57 -25 -48 18 22 32
20 33 -49 -20 -42 24 25 35
19 37 -46 -15 -37 26 26 34
22 32 -42 -16 -37 25 23 28
27 28 -50 -18 -38 22 20 26
23 29 -39 -10 -32 26 23 29
19 27 -34 -9 -30 24 20 25
21 31 -40 -10 -30 22 17 21
14 33 -35 -4 -25 26 20 25
11 33 -34 0 -22 28 19 27
14 28 -38 -7 -28 20 11 19
17 32 -36 -4 -25 20 12 17
15 28 -26 4 -17 24 15 19
15 26 -25 5 -16 24 13 16
15 32 -20 2 -18 19 9 13
16 41 -17 4 -16 19 8 10
16 28 -22 5 -17 17 6 9
16 19 -18 5 -16 18 8 10
13 24 -15 6 -14 18 9 11
12 30 -19 5 -15 16 5 8
9 16 -17 5 -15 14 5 8
6 15 -14 9 -11 16 7 10
7 19 -11 10 -9 16 7 11
13 19 -7 9 -9 14 3 7
8 19 -9 7 -9 13 4 8
2 27 -4 11 -4 16 6 11
-2 18 -2 8 -7 12 2 8
2 12 -4 6 -8 9 0 7
2 13 -1 4 -8 6 0 6
3 13 -3 3 -9 4 -3 4
4 9 -6 -1 -13 1 -6 2
2 11 -3 2 -8 3 -3 6
5 8 2 3 -6 3 -3 4
6 7 -2 3 -4 4 -4 4
-1 10 2 3 -3 3 -3 6
-2 17 8 8 3 6 -1 9
1 10 6 6 1 6 -1 9
6 7 4 1 -2 2 -5 7
7 7 4 3 -2 2 -5 7
3 11 0 0 -3 2 -7 5
2 13 -7 -8 -9 -5 -13 0
4 7 4 -1 0 1 -7 7
0 8 10 -3 -3 0 -9 4
-2 12 4 -3 -2 0 -9 5
-13 5 11 0 3 4 -3 10
-10 10 10 3 7 6 -3 10
3 8 5 0 1 3 -7 7
4 5 6 -2 -4 -1 -10 5
2 4 5 -3 -5 -1 -8 6
3 7 2 -2 -4 0 -9 5
9 8 -7 -12 -14 -7 -16 -1
8 8 -5 -7 -10 -3 -12 6
4 5 3 -4 -8 -1 -10 5
1 5 1 -6 -9 -3 -13 5
-3 7 0 -5 -8 -1 -9 7
-5 12 6 2 -3 4 -6 9
-3 15 2 -4 -9 -2 -11 4
0 14 0 -3 -9 -2 -10 7
-1 6 0 -2 -6 -1 -8 8
0 5 5 0 -5 2 -8 8
2 -1 -1 -6 -9 -3 -12 5
-4 3 0 -3 -5 0 -8 9
-7 9 3 0 -3 3 -7 12
-9 6 5 1 -2 3 -8 12
-6 4 -1 -3 -3 3 -7 11
-3 7 3 4 3 7 -3 14
-1 1 0 0 -2 3 -7 10
0 3 -2 -1 -2 3 -6 14
-2 12 -2 -2 0 4 -5 13
1 9 -3 0 1 4 -6 13
7 7 -7 -6 -5 -1 -10 8
3 12 -5 -4 -1 3 -5 12
-6 9 -1 1 6 9 0 17
-6 7 0 2 6 10 1 17
-2 4 -1 -2 1 6 -2 14
1 9 -1 3 5 8 0 16
5 7 -4 0 2 5 -3 12
3 11 -5 -2 0 3 -4 12
-1 9 -1 1 4 7 -1 15
-2 7 -3 2 4 6 -3 14
-1 4 -6 -3 0 3 -6 11
1 13 -3 2 6 7 0 16
1 17 -2 1 5 8 -1 13
7 14 -3 -2 3 5 -4 13
10 10 -6 -5 1 3 -5 12
4 11 -1 3 10 10 2 18
3 6 -1 2 8 10 3 19
-4 11 -4 -2 6 7 0 17
-9 15 -4 -3 5 7 1 17
-7 11 -2 2 9 9 2 18
-1 8 -7 -4 2 4 -3 13
6 8 -4 -2 6 5 -1 16
6 12 -2 0 6 6 0 14
-2 16 -2 -3 4 4 -2 14
1 13 -4 -3 5 7 0 17
-2 12 0 2 10 9 4 20
-4 12 -4 -1 4 6 1 18
0 19 -10 -7 0 2 -3 16
-2 11 -6 -3 3 6 1 18
-4 9 -4 0 6 7 3 22
-5 3 -8 -6 2 6 1 21
-5 6 -5 -2 6 8 4 25
-3 9 -3 1 9 10 5 23
-1 12 -9 -6 3 3 -1 18
-1 11 -8 -8 2 3 -1 18
-1 19 -3 -1 8 6 1 21
1 13 -5 -3 3 3 0 18
3 12 -7 -5 5 2 1 19
-1 14 -8 -6 3 0 -1 17
-2 11 -7 -5 4 0 -1 17
10 9 -15 -15 -5 -6 -8 11
5 10 -9 -11 1 -3 -4 15
3 10 -10 -8 4 -1 -3 16
2 18 -13 -10 4 -3 -4 14
2 16 -11 -10 5 -2 -1 16
6 15 -1 -3 10 3 2 21
6 16 -7 -8 6 -1 -1 18
4 8 -5 -7 9 0 1 20
-1 13 -7 -7 8 -1 0 20
-4 12 -8 -7 8 -2 -1 19
-9 9 -9 -9 9 -1 1 22
-10 12 -7 -6 13 3 5 26
-11 10 -7 -5 12 3 3 25
-5 10 -7 -9 10 0 0 22
-1 6 -6 -10 10 -2 1 22
1 19 -9 -8 12 -2 0 21
4 15 -9 -7 13 0 1 21
5 7 -9 -8 14 -1 2 22
7 10 -9 -9 14 0 1 23
2 12 -8 -7 15 0 2 22
-2 11 -10 -11 14 -2 2 22
2 13 -6 -6 20 3 6 25
1 15 -6 -4 20 5 6 26
2 17 -8 -6 19 2 5 23
-1 24 -7 -8 18 0 4 23
-6 27 1 1 28 8 10 29
-5 21 8 3 29 10 14 32
-4 22 4 1 27 7 13 31
-3 22 2 4 29 10 15 33
-1 25 5 5 30 10 14 31
1 19 1 0 25 5 10 27
5 17 2 1 28 7 13 28
-2 16 4 5 30 9 14 28
-5 19 0 1 27 4 12 26
0 22 -2 -2 25 3 12 25
-1 15 5 6 34 10 18 30
-4 12 4 6 33 9 17 28
-1 13 6 5 33 8 18 28
4 24 0 1 30 4 13 25
5 21 -2 2 31 4 12 24
7 19 -3 1 29 2 12 22
5 31 -3 1 32 4 14 21
8 33 -2 1 33 6 14 21
-1 27 0 2 34 7 16 22
-6 27 -1 1 35 9 18 25
0 34 -3 0 36 10 18 25
-3 30 -9 -4 32 7 16 22
-6 32 -11 -8 33 4 17 22
-4 30 -11 -5 37 9 22 26
1 29 -13 -6 37 9 21 25
10 32 -18 -9 32 6 19 22
10 39 -16 -5 37 10 22 24
7 42 -16 -4 36 10 21 23
14 36 -16 -3 38 10 23 24
19 33 -18 -5 36 9 23 23
15 35 -13 2 43 14 29 28
5 36 -11 0 40 12 27 26
-5 30 -12 -2 40 11 28 28
4 28 -13 -3 38 10 25 26
11 26 -20 -8 33 5 19 19
16 19 -24 -14 25 -3 15 16
11 23 -15 -9 30 3 20 23
2 23 -19 -5 32 4 22 24
-3 16 -15 -5 34 6 24 26
-7 23 -16 -5 33 6 24 26
0 19 -15 -2 36 7 24 24
4 13 -17 -4 30 4 21 21
-3 11 -16 -6 29 1 19 20
-3 8 -17 -6 31 1 19 19
-2 6 -15 -3 32 1 20 17
1 -2 -18 -9 24 -5 14 11
4 2 -16 -6 26 -3 14 11
4 0 -15 -4 27 -4 13 10
-1 -3 -15 -5 26 -4 14 11
-4 -2 -14 -6 26 -3 15 12
-4 4 -11 -1 28 -1 16 13
-5 -2 -15 -5 22 -5 12 8
-7 -5 -15 -5 24 -4 13 10
-8 -5 -11 -6 24 -5 12 10
-7 1 -10 -7 21 -6 10 9
-4 1 -22 -12 16 -10 5 4
-8 -2 -18 -10 17 -9 6 5
-8 -5 -16 -6 19 -9 8 6
-6 -8 -20 -9 19 -7 9 6
-9 -2 -21 -11 18 -8 8 7
-8 4 -15 -5 22 -4 11 10
-8 4 -20 -9 17 -8 8 6
-4 6 -22 -13 15 -10 6 4
-1 -3 -23 -12 18 -9 8 6
1 -6 -25 -12 17 -11 6 3
-2 2 -29 -18 11 -15 4 -1
-7 1 -23 -14 17 -10 7 5
-8 -5 -23 -11 20 -7 9 7
-8 -6 -19 -11 21 -6 10 8
-10 -5 -24 -11 20 -7 10 7
-7 1 -19 -4 25 -3 13 11
-5 -6 -24 -6 22 -5 11 8
-5 -4 -26 -9 20 -8 12 8
-7 2 -16 -8 20 -8 11 8
-11 -1 -17 -5 20 -6 12 8
-17 -8 -23 -8 17 -8 11 8
-14 2 -26 -6 19 -6 12 9
-11 1 -29 -9 15 -9 9 4
-9 -4 -28 -9 16 -8 10 5
-4 -9 -25 -7 18 -6 12 7
0 -1 -23 -2 20 -3 13 9
1 -2 -26 -5 16 -6 11 6
0 -8 -27 -9 14 -9 10 5
1 -10 -28 -6 17 -6 12 8
-1 -9 -25 -3 17 -4 13 10
-8 -12 -27 -5 13 -6 13 9
-8 -7 -24 -2 17 -3 15 11
-6 -6 -26 -1 16 -3 12 7
-2 -9 -29 -4 12 -6 9 1
1 -17 -24 0 15 -4 11 3
-2 -18 -19 12 22 3 13 3
-3 -27 -14 20 25 5 13 0
6 -28 -9 25 32 9 14 -3
7 -25 -8 33 44 20 20 0
5 -25 -8 46 59 37 35 7
10 -24 -11 51 67 49 44 10
21 -20 -8 69 86 69 59 16
28 -26 3 94 115 101 84 31
30 -29 11 115 143 132 111 48
33 -10 13 126 166 162 143 67
47 3 11 141 191 202 186 101
57 7 0 138 202 238 231 139
51 17 -6 131 208 263 269 175
36 35 -5 117 208 275 293 207
31 57 -9 93 190 257 284 218
19 71 -20 50 140 188 234 209
-6 91 -26 1 70 86 152 185
-21 101 -37 -52 -6 -11 73 155
-30 90 -40 -83 -65 -86 7 120
-32 75 -42 -100 -102 -135 -43 84
-37 71 -29 -92 -109 -152 -73 55
-41 59 -25 -84 -110 -160 -89 38
-35 50 -26 -78 -106 -159 -98 23
-35 49 -19 -65 -94 -155 -108 3
-43 35 -6 -42 -75 -143 -110 -15
-48 22 3 -26 -60 -131 -109 -31
-52 17 16 -5 -44 -120 -107 -43
-59 6 28 12 -33 -112 -107 -53
-55 -4 42 28 -23 -105 -104 -61
-51 -11 49 42 -12 -98 -101 -68
-54 -11 61 65 4 -83 -92 -66
-56 -25 71 83 19 -69 -82 -62
-52 -31 79 95 28 -60 -74 -62
-40 -29 83 106 34 -54 -70 -63
-35 -34 95 123 44 -44 -64 -62
-41 -48 103 130 49 -38 -59 -59
-41 -36 107 133 52 -34 -54 -59
-44 -33 113 133 55 -31 -50 -57
-46 -47 122 136 58 -25 -43 -51
-42 -42 124 130 56 -25 -41 -48
-39 -40 132 132 56 -24 -40 -48
-34 -45 136 129 48 -30 -45 -51
-32 -46 137 122 41 -34 -50 -56
-41 -41 141 118 37 -34 -50 -56
-49 -43 146 113 33 -34 -49 -52
-48 -51 144 99 22 -39 -53 -55
-53 -47 150 98 24 -36 -48 -52
-50 -43 155 95 22 -36 -47 -51
-44 -42 157 88 15 -40 -52 -55
-50 -39 161 84 16 -39 -48 -50
-63 -36 170 84 19 -34 -42 -43
-69 -38 167 72 8 -41 -48 -47
-75 -35 167 57 0 -44 -48 -46
-74 -29 162 45 -4 -45 -47 -45
-64 -26 142 31 -10 -46 -48 -46
-51 -29 122 14 -19 -50 -49 -46
-47 -17 105 2 -25 -50 -46 -42
-45 -17 91 -10 -33 -52 -44 -39
-46 -18 80 -19 -37 -51 -42 -36
-45 -9 65 -25 -39 -49 -37 -32
-41 -2 57 -22 -36 -44 -31 -26
-39 -15 47 -25 -38 -44 -28 -23
-36 -16 29 -28 -38 -40 -23 -18
-32 -13 18 -27 -35 -36 -18 -14
-29 -12 10 -27 -34 -35 -18 -15
-27 -11 1 -34 -38 -38 -20 -18
-27 -10 1 -31 -34 -33 -15 -13
-20 -14 -5 -25 -30 -29 -11 -10
-16 -13 -9 -24 -28 -27 -8 -8
-14 -15 -11 -24 -26 -26 -6 -7
-8 -15 -10 -15 -20 -20 -2 -4
-2 -17 -17 -15 -23 -21 -3 -5
-3 -14 -26 -16 -24 -21 -4 -5
-7 -13 -19 -9 -17 -12 5 2
-9 -14 -18 -4 -15 -10 7 2
-10 -14 -29 -10 -22 -15 2 -2
-9 -9 -29 -8 -19 -11 5 1
-4 -19 -29 -4 -19 -10 7 2
2 -20 -33 -9 -24 -13 4 -1
1 -15 -36 -9 -24 -11 6 1
4 -11 -35 -6 -25 -10 7 2
6 -17 -36 -6 -29 -12 5 0
-3 -18 -35 -5 -28 -8 9 4
-6 -15 -35 -2 -28 -6 12 6
-7 -12 -37 0 -31 -6 9 5
-10 -14 -41 -5 -36 -10 7 4
-5 -14 -41 -3 -36 -7 10 5
-3 -13 -42 0 -36 -6 11 5
-3 -12 -44 -3 -41 -9 9 3
1 -14 -39 -5 -42 -9 9 4
0 -8 -38 -1 -40 -8 9 3
-3 -17 -44 -3 -43 -11 6 1
-1 -14 -46 -5 -46 -13 4 0
1 -11 -46 -7 -46 -12 4 0
-6 -11 -41 -2 -45 -9 6 2
-12 -16 -42 -5 -46 -11 7 2
-1 -9 -44 -8 -48 -12 3 -1
6 -1 -45 -10 -50 -14 2 -3
2 -9 -40 -8 -48 -13 3 0
-1 -12 -34 -8 -46 -12 6 2
1 -8 -35 -3 -41 -10 7 3
1 -16 -38 -7 -46 -15 4 0
-1 -8 -37 -10 -48 -17 0 -3
-5 -9 -36 -8 -43 -14 2 -1
-1 -14 -37 -9 -45 -15 1 -2
4 -20 -42 -16 -49 -20 -2 -4
0 -9 -41 -13 -46 -16 2 -1
1 -9 -39 -14 -45 -18 1 -2
4 -13 -38 -13 -45 -18 1 -2
-4 -14 -35 -10 -41 -14 6 2
-4 -10 -30 -3 -35 -11 8 4
-2 -14 -31 -9 -40 -17 3 0
-3 -13 -38 -13 -42 -18 0 -2
1 -12 -38 -14 -41 -16 1 -3
4 -16 -38 -13 -40 -18 -2 -6
9 -18 -44 -20 -45 -22 -5 -8
7 -10 -45 -18 -44 -21 -4 -8
-2 -11 -40 -15 -42 -20 -2 -5
2 -13 -38 -15 -42 -18 -1 -3
3 -4 -37 -17 -42 -19 0 -2
6 -4 -34 -12 -37 -17 2 -1
9 -14 -41 -13 -39 -18 1 -2
3 -15 -41 -13 -39 -16 2 -1
-1 -14 -34 -12 -36 -14 3 1
-1 -11 -40 -12 -38 -15 2 -1
0 -16 -46 -21 -47 -21 -4 -5
-2 -8 -47 -21 -48 -20 -2 -5
-3 -5 -48 -19 -48 -19 -2 -4
-5 -13 -45 -17 -47 -17 3 0
-5 -9 -40 -17 -46 -14 6 5
-2 -8 -39 -11 -40 -11 9 8
2 -9 -42 -15 -45 -16 5 4
0 -6 -45 -17 -46 -16 5 4
3 -6 -49 -19 -46 -16 3 2
1 -8 -47 -18 -47 -15 4 3
3 -15 -49 -26 -54 -21 1 0
9 -11 -51 -27 -53 -19 2 2
12 -7 -54 -24 -52 -18 4 3
9 -4 -57 -30 -56 -21 1 2
7 -5 -57 -31 -54 -20 2 5
10 -3 -54 -25 -50 -15 7 9
8 -9 -58 -26 -51 -15 6 10
8 -6 -58 -27 -52 -14 7 12
11 -4 -57 -26 -53 -13 9 13
6 2 -61 -29 -55 -16 8 11
10 -4 -68 -35 -61 -20 6 9
13 -6 -69 -34 -58 -16 10 12
8 -4 -66 -30 -55 -13 13 16
10 1 -71 -36 -59 -16 11 15
16 1 -77 -41 -63 -19 9 15
22 11 -76 -40 -62 -17 9 14
20 6 -74 -40 -63 -16 11 17
14 8 -76 -41 -62 -14 15 20
9 12 -75 -35 -57 -6 22 27
10 16 -77 -36 -60 -8 20 24
19 3 -82 -43 -65 -11 18 24
21 10 -78 -39 -62 -6 23 28
22 8 -78 -40 -64 -7 25 28
22 10 -82 -42 -65 -7 24 29
20 12 -86 -43 -65 -7 26 31
22 19 -83 -38 -64 -4 28 32
19 15 -83 -38 -64 -3 30 35
12 11 -78 -36 -62 0 35 40
21 15 -84 -36 -61 1 34 40
20 18 -83 -37 -61 1 35 40
17 15 -88 -41 -65 -1 35 40
20 17 -85 -36 -61 5 41 44
16 18 -80 -32 -57 9 45 48
15 20 -79 -32 -58 9 45 47
21 24 -82 -35 -58 7 45 47
26 23 -78 -31 -55 10 46 48
34 20 -80 -32 -55 9 48 49
31 23 -84 -31 -54 11 47 51
22 24 -82 -28 -50 13 49 52
12 20 -75 -22 -45 18 52 55
11 16 -75 -24 -46 16 52 54
24 21 -75 -23 -44 18 52 51
25 21 -73 -19 -40 21 54 50
28 25 -78 -23 -44 17 48 45
27 29 -77 -20 -41 17 48 46
30 28 -70 -12 -34 22 50 47
30 22 -71 -14 -36 18 46 44
25 20 -63 -10 -32 22 50 46
19 22 -62 -7 -28 23 50 47
13 19 -59 -4 -26 24 49 45
16 25 -60 -8 -29 19 45 39
21 18 -55 -1 -22 24 49 40
21 18 -48 4 -19 26 47 40
23 25 -52 1 -22 22 43 34
21 18 -48 5 -17 23 45 36
17 22 -38 14 -9 28 47 37
13 27 -39 12 -11 25 41 32
13 18 -38 12 -12 24 40 31
9 14 -25 19 -5 29 44 36
8 14 -29 19 -7 26 40 31
10 9 -32 14 -11 21 36 28
8 9 -25 22 -3 27 39 32
14 10 -24 21 -4 24 36 31
14 10 -22 21 -5 22 34 29
7 7 -17 25 -3 24 36 30
3 12 -11 30 2 26 37 31
-6 12 -9 29 2 25 34 31
-7 11 -14 26 -1 22 31 29
-6 13 -13 27 1 21 30 28
-3 14 -13 25 -2 17 25 23
5 12 -19 15 -10 9 19 18
10 16 -16 15 -9 8 18 17
11 11 -14 16 -7 8 18 17
11 6 -11 13 -9 6 18 15
7 2 -6 17 -4 10 21 19
0 6 5 20 0 12 24 20
2 5 -5 18 -2 10 20 17
5 7 -6 16 -2 9 19 16
7 5 -6 16 0 8 19 18
-1 1 -4 15 1 9 20 17
-3 -3 -10 8 -5 3 15 15
7 -1 -9 10 -3 3 15 14
11 1 -8 9 -5 -1 11 11
6 -4 -6 6 -7 -3 9 10
-1 -4 1 7 -3 -1 13 13
-8 0 5 17 6 6 17 18
0 2 -2 12 1 2 13 13
7 4 -5 10 -2 -1 11 11
11 3 -7 8 -2 -2 9 10
9 0 -4 8 0 0 10 11
2 0 -6 6 -1 -2 9 11
-4 4 -2 9 3 1 13 14
-8 1 4 12 5 1 12 14
-10 1 1 9 3 -1 10 11
-4 -4 -3 8 3 -2 10 11
-1 -2 3 15 8 2 12 14
2 -2 -2 9 3 -4 7 9
2 1 -2 8 2 -5 7 10
-1 1 1 11 5 -3 8 12
-4 -4 2 10 5 -2 7 10
-1 -3 0 6 3 -6 6 8
-3 -1 1 11 8 -1 10 10
-4 1 1 11 9 -2 10 10
-4 -2 4 9 7 -3 9 8
-4 0 0 8 7 -5 7 9
-6 6 3 14 12 0 10 11
-5 -1 2 12 12 -2 9 10
-6 -1 0 8 11 -5 7 9
3 2 -1 7 11 -6 6 8
-5 -3 2 9 13 -4 7 6
-12 -6 2 6 11 -7 6 6
-4 0 3 9 16 -3 8 8
0 2 3 9 16 -4 7 6
5 3 2 4 10 -9 2 2
3 -1 0 3 13 -8 4 4
1 4 1 7 16 -5 5 4
0 0 2 8 17 -5 7 5
1 -4 1 5 16 -5 6 5
8 -1 -2 3 15 -7 3 3
4 2 1 5 17 -5 4 2
1 3 -4 0 14 -9 2 -1
-3 -4 4 7 22 0 10 7
-5 -5 8 10 25 2 13 9
-7 -7 5 9 24 2 13 8
-7 1 7 8 26 2 14 10
-5 4 8 12 31 6 14 11
3 0 2 7 26 -1 10 6
4 -1 5 6 25 0 10 6
2 2 4 6 27 0 10 7
8 5 -1 0 22 -4 5 2
10 -4 -4 -3 20 -6 4 0
11 -4 2 -1 26 -2 7 3
11 1 5 2 27 0 8 4
3 1 3 0 26 -1 7 3
-2 0 6 3 30 2 11 6
-4 10 9 10 36 7 15 10
-6 6 7 7 33 5 12 10
-3 2 6 5 32 4 12 9
-4 -1 9 7 35 6 14 11
-7 3 15 4 32 3 10 8
-8 1 7 0 29 1 9 8
-6 1 6 1 33 3 12 8
-7 -3 7 3 34 4 12 8
-5 -1 2 0 30 2 9 6
-2 -1 1 0 32 2 10 7
-5 5 9 9 38 7 14 10
-3 -2 8 7 35 5 11 9
2 -1 3 1 31 1 8 4
2 7 3 0 31 1 6 3
4 3 0 -4 27 -3 1 -2
6 0 -4 -9 24 -6 0 -2
0 -2 3 -2 32 0 7 4
-2 -4 4 -2 31 -1 5 3
-2 -8 1 -5 28 -3 3 0
9 -1 -2 -7 26 -4 2 -1
14 5 1 -2 29 0 4 0
3 -1 6 0 32 2 6 3
-9 0 8 3 35 6 10 7
-10 7 7 3 35 6 10 7
-11 3 9 2 34 5 9 6
-12 -4 5 -1 31 2 6 4
-7 0 5 -1 32 2 7 4
2 2 2 -6 27 -2 2 -2
9 0 -1 -9 23 -6 -1 -5
-1 4 10 -6 27 -2 3 -2
-7 4 25 2 33 5 7 3
-3 -1 9 -1 30 2 3 2
-2 3 8 -4 29 -1 2 0
1 7 8 -3 29 0 2 0
4 7 5 -5 27 -1 1 -3
4 2 3 -8 24 -4 -1 -4
0 3 6 -5 29 0 3 0
-4 5 9 -2 31 4 4 2
1 5 5 -7 27 -2 0 -1
4 7 6 -5 30 2 4 2
1 11 22 2 37 9 8 6
-3 8 23 0 34 7 8 5
-4 14 14 -1 35 7 8 5
-6 17 15 1 39 10 10 7
-7 15 17 2 39 10 10 6
-5 12 14 0 36 7 7 5
2 20 11 -1 37 6 6 4
2 18 14 1 38 9 7 4
1 13 13 -2 35 6 4 2
4 14 12 -3 35 6 2 1
7 19 15 3 39 10 5 4
4 18 13 -1 35 6 3 2
1 14 15 -1 35 7 3 4
1 17 18 1 38 8 4 4
2 13 14 0 37 6 2 1
2 7 14 -1 36 6 2 4
-6 13 18 4 41 12 7 7
-6 19 20 4 41 10 5 6
-3 23 16 2 38 8 4 4
-2 19 17 4 41 11 5 6
2 21 19 8 44 13 6 6
5 19 15 3 40 10 1 4
-1 26 14 -1 36 7 0 3
-13 27 20 2 42 12 5 8
-12 27 23 0 40 11 4 7
-6 25 18 -7 35 7 1 6
-3 26 18 -4 40 10 5 10
0 29 8 -6 38 9 3 8
3 28 2 -7 36 7 3 8
9 28 3 -4 41 11 6 13
19 35 3 -2 42 12 5 9
17 30 3 -3 41 13 7 11
5 30 5 1 45 19 13 17
5 36 4 1 46 19 12 17
11 38 4 -2 42 16 10 14
12 23 8 -7 37 12 6 11
14 22 2 -4 39 12 8 10
15 20 -1 -5 37 11 6 9
8 17 -4 -10 34 9 4 8
6 21 -4 -9 34 10 4 10
5 22 1 -3 38 11 6 11
4 13 0 -6 35 9 3 9
6 10 -2 -9 32 5 -1 7
4 11 -2 -8 31 4 -1 5
0 11 -1 -9 30 3 -3 2
7 5 -2 -17 22 -3 -9 -5
9 2 -2 -15 23 -3 -11 -5
8 8 -5 -19 20 -6 -15 -9
4 3 4 -16 20 -5 -13 -8
-2 -1 8 -11 26 -2 -9 -4
-8 4 12 -3 31 3 -5 -2
-7 -1 11 -5 28 1 -9 -3
-11 -1 10 -7 27 0 -9 -3
-11 4 12 -5 29 2 -7 -2
-7 0 11 -8 26 -1 -11 -6
-5 -9 10 -14 20 -6 -14 -8
-1 -6 12 -13 20 -6 -14 -9
0 -3 4 -15 16 -9 -19 -13
-2 1 3 -19 13 -11 -21 -15
-7 -1 5 -17 16 -8 -18 -12
-9 -1 12 -9 22 -2 -13 -9
-9 -5 10 -12 19 -6 -16 -10
-3 -6 6 -16 17 -9 -19 -12
-5 -3 16 -12 21 -4 -16 -10
-5 -7 14 -12 18 -6 -19 -13
-4 -9 7 -19 13 -9 -21 -14
-8 -2 8 -14 18 -5 -16 -11
-5 -6 7 -16 16 -7 -19 -13
2 -10 5 -22 11 -11 -21 -17
0 -5 7 -20 15 -7 -19 -13
1 -3 9 -16 16 -5 -18 -15
-3 -8 9 -19 12 -9 -21 -15
-3 -4 4 -21 12 -10 -21 -17
-1 -2 5 -18 15 -8 -19 -16
2 -5 5 -15 15 -7 -19 -16
-2 -13 2 -19 13 -10 -22 -16
0 -7 2 -19 14 -9 -22 -20
-1 -7 2 -18 13 -10 -23 -21
-2 -11 4 -23 9 -12 -26 -22
-6 -6 2 -18 15 -8 -21 -17
-6 -3 5 -14 17 -6 -21 -18
-4 -6 1 -18 11 -10 -25 -20
1 -8 2 -20 11 -11 -25 -20
0 -5 1 -16 13 -7 -22 -17
2 -6 0 -15 12 -8 -23 -18
-1 -11 -2 -18 9 -11 -24 -18
-7 -2 0 -17 11 -9 -23 -18
-6 0 11 -14 11 -6 -21 -17
-6 -7 4 -15 11 -6 -21 -16
-4 -4 1 -16 11 -6 -20 -15
2 1 8 -13 12 -6 -22 -17
3 -7 2 -16 8 -9 -25 -20
0 -4 1 -14 9 -8 -25 -20
-12 0 8 -5 16 -3 -21 -17
-7 -6 9 -3 16 -6 -25 -23
0 -17 11 0 17 -6 -25 -25
2 -16 19 10 28 1 -23 -27
5 -15 19 19 37 8 -20 -29
10 -16 20 25 47 20 -9 -25
13 -17 27 38 62 38 5 -18
21 -16 36 58 84 61 22 -8
26 -21 38 76 107 84 41 2
33 -13 45 95 131 112 65 15
37 -8 54 115 161 147 99 38
39 -8 50 132 187 188 141 70
55 2 38 128 200 223 187 106
59 21 34 124 211 254 228 143
51 39 28 108 209 266 254 171
43 55 22 84 196 258 257 188
32 77 15 49 157 204 218 188
20 96 5 -1 90 107 141 166
7 107 -3 -62 7 1 56 134
-5 100 -10 -103 -59 -80 -13 100
-9 80 -11 -118 -98 -132 -63 67
-25 67 -8 -114 -113 -157 -97 37
-25 59 -6 -113 -119 -169 -120 14
-20 55 2 -103 -111 -166 -125 3
-29 47 10 -87 -100 -161 -132 -15
-42 39 22 -63 -81 -148 -133 -30
-51 39 34 -40 -60 -131 -130 -40
-56 36 50 -21 -46 -120 -129 -54
-55 20 60 -9 -39 -116 -133 -67
-43 11 68 5 -29 -110 -132 -77
-41 8 81 21 -18 -104 -131 -84
-47 -4 94 45 -3 -90 -123 -85
-56 -7 101 59 9 -78 -115 -84
-58 -10 111 77 25 -62 -102 -80
-50 -21 122 94 36 -50 -93 -79
-45 -26 127 105 41 -47 -90 -80
-38 -21 134 116 49 -39 -85 -77
-36 -21 146 125 55 -33 -79 -76
-41 -27 151 123 54 -31 -77 -75
-42 -30 155 125 60 -25 -71 -68
-40 -26 158 124 61 -22 -68 -66
-35 -25 159 117 52 -28 -76 -73
-35 -23 159 111 43 -36 -81 -76
-34 -27 163 110 41 -36 -82 -77
-34 -33 168 108 39 -36 -80 -77
-39 -36 170 96 30 -39 -82 -77
-47 -29 174 91 28 -39 -80 -75
-50 -23 183 95 32 -33 -75 -72
-52 -32 184 95 30 -32 -73 -69
-52 -31 186 87 26 -34 -74 -68
-50 -25 191 81 23 -36 -74 -66
-50 -26 188 70 14 -42 -79 -71
-56 -21 185 53 2 -50 -84 -72
-61 -18 182 40 -6 -52 -85 -71
-57 -18 174 28 -11 -54 -85 -71
-56 -15 157 13 -17 -55 -84 -69
-55 -11 146 4 -20 -52 -80 -63
-48 -9 133 -3 -22 -50 -76 -61
-43 0 114 -23 -37 -57 -79 -63
-39 0 102 -32 -42 -57 -77 -58
-37 2 93 -31 -38 -50 -67 -49
-30 4 77 -39 -45 -53 -71 -53
-24 -1 62 -48 -53 -57 -72 -53
-23 3 50 -45 -48 -49 -64 -46
-30 7 42 -43 -45 -44 -58 -42
-29 9 32 -47 -49 -46 -59 -44
-24 12 27 -45 -46 -43 -55 -42
-22 12 26 -39 -41 -37 -50 -39
-18 8 18 -39 -42 -37 -48 -38
-10 10 10 -42 -44 -37 -50 -37
-5 11 7 -37 -40 -30 -45 -33
-5 14 5 -34 -39 -28 -43 -33
-5 10 -3 -37 -43 -29 -43 -32
-4 9 -2 -32 -37 -25 -37 -27
1 7 -2 -28 -34 -21 -34 -25
3 5 -8 -29 -37 -24 -36 -27
-1 8 -7 -25 -33 -19 -32 -23
1 11 -8 -21 -30 -16 -30 -23
5 4 -10 -22 -35 -19 -32 -25
11 13 -13 -29 -42 -24 -36 -27
9 14 -13 -25 -40 -20 -32 -24
5 1 -16 -22 -40 -18 -30 -24
8 -2 -23 -28 -46 -23 -34 -25
5 4 -23 -26 -48 -22 -34 -24
3 11 -23 -23 -48 -20 -34 -25
7 11 -26 -28 -56 -25 -38 -30
9 6 -26 -26 -56 -22 -35 -27
8 6 -25 -18 -52 -17 -30 -24
1 4 -27 -22 -57 -20 -32 -26
9 4 -30 -26 -62 -22 -34 -25
9 6 -24 -23 -60 -20 -31 -23
7 -2 -23 -23 -64 -21 -32 -25
8 -4 -27 -28 -68 -24 -33 -25
4 1 -27 -24 -67 -21 -31 -23
5 2 -21 -21 -65 -20 -29 -24
8 4 -16 -23 -68 -20 -31 -25
4 4 -20 -20 -65 -19 -28 -22
6 3 -18 -17 -63 -17 -25 -22
10 4 -19 -19 -68 -19 -25 -23
9 7 -22 -23 -71 -21 -27 -23
10 9 -20 -21 -70 -21 -25 -22
9 2 -18 -21 -72 -22 -27 -23
11 -3 -20 -28 -78 -27 -31 -24
16 7 -20 -29 -78 -28 -33 -26
17 9 -15 -29 -80 -30 -35 -30
19 1 -17 -28 -80 -28 -33 -28
16 5 -19 -28 -77 -29 -33 -27
2 10 -12 -20 -70 -23 -27 -23
-3 6 -6 -19 -70 -22 -24 -19
0 4 -9 -21 -70 -22 -25 -18
0 10 -12 -19 -67 -21 -23 -17
3 12 -17 -25 -72 -25 -29 -23
2 -1 -18 -29 -75 -28 -30 -24
2 -1 -13 -26 -72 -26 -29 -23
4 1 -16 -26 -72 -28 -30 -25
6 -4 -21 -30 -75 -30 -33 -28
13 1 -21 -30 -74 -30 -32 -26
11 3 -14 -23 -67 -24 -28 -24
13 1 -17 -27 -73 -30 -31 -27
10 3 -20 -27 -74 -31 -31 -25
6 11 -18 -24 -72 -30 -30 -24
9 8 -22 -27 -75 -31 -33 -26
9 4 -30 -35 -81 -37 -37 -28
8 8 -27 -33 -80 -36 -37 -27
7 5 -29 -29 -78 -33 -33 -26
9 0 -33 -34 -82 -35 -34 -28
8 5 -33 -33 -80 -34 -32 -26
6 9 -27 -27 -75 -28 -28 -23
5 -1 -22 -28 -76 -27 -25 -21
15 1 -26 -31 -79 -30 -27 -22
20 11 -35 -33 -81 -31 -28 -24
16 12 -39 -36 -84 -35 -31 -27
16 3 -38 -37 -86 -35 -29 -24
15 5 -35 -33 -81 -31 -27 -21
12 9 -35 -34 -82 -31 -27 -22
10 3 -37 -35 -83 -32 -27 -22
5 9 -38 -37 -84 -31 -26 -21
11 10 -34 -32 -81 -27 -24 -20
18 6 -42 -37 -88 -32 -27 -24
16 11 -45 -38 -88 -32 -26 -22
14 18 -44 -34 -84 -28 -22 -18
13 14 -46 -37 -88 -30 -23 -20
13 6 -49 -41 -92 -32 -22 -20
17 10 -46 -38 -89 -29 -21 -18
22 10 -54 -42 -93 -31 -23 -20
20 10 -56 -45 -94 -32 -22 -19
14 11 -55 -42 -90 -27 -18 -12
11 20 -55 -41 -89 -27 -16 -12
17 21 -60 -45 -94 -28 -17 -13
21 14 -61 -46 -96 -28 -16 -10
23 12 -62 -45 -93 -24 -11 -6
27 10 -65 -46 -93 -25 -11 -6
22 7 -69 -50 -97 -27 -11 -3
23 14 -64 -46 -93 -24 -8 -1
24 16 -66 -45 -91 -20 -6 0
18 13 -70 -49 -95 -23 -6 0
14 17 -70 -48 -93 -21 -2 5
19 19 -69 -47 -92 -21 -2 4
29 16 -71 -52 -97 -24 -4 3
27 19 -71 -52 -98 -23 -3 4
23 22 -70 -51 -96 -20 1 7
26 26 -74 -54 -99 -23 0 5
32 22 -78 -55 -100 -22 1 9
29 26 -74 -50 -94 -18 5 13
28 26 -72 -48 -91 -15 8 16
27 22 -73 -49 -94 -15 9 17
28 27 -72 -47 -90 -11 13 20
33 32 -67 -40 -84 -8 17 22
37 27 -72 -44 -87 -11 15 20
37 31 -73 -45 -84 -10 15 20
33 37 -70 -42 -79 -8 19 23
37 37 -75 -43 -80 -8 17 21
38 40 -78 -47 -81 -11 16 22
34 48 -77 -45 -78 -9 17 22
36 41 -69 -38 -71 -4 22 24
33 32 -66 -36 -68 -1 24 25
23 31 -57 -30 -58 7 31 32
20 36 -55 -22 -51 13 35 33
22 42 -62 -26 -55 9 32 29
30 41 -66 -29 -56 8 29 26
33 37 -57 -22 -49 13 33 28
28 35 -56 -23 -50 10 29 24
25 28 -54 -21 -46 14 33 29
29 29 -54 -17 -42 16 32 26
33 29 -54 -17 -42 13 28 22
38 30 -54 -20 -43 10 24 18
35 30 -48 -13 -36 15 28 20
37 28 -45 -5 -29 19 29 19
36 30 -46 -7 -29 17 26 16
32 27 -41 -4 -26 18 26 16
33 27 -36 2 -21 19 27 18
23 23 -32 6 -18 19 27 18
9 18 -30 6 -17 21 26 20
7 25 -23 15 -10 26 28 21
6 29 -21 15 -9 24 26 18
8 18 -18 13 -13 20 23 15
10 19 -15 17 -9 22 23 16
15 23 -14 20 -6 22 21 12
16 26 -5 17 -10 19 19 9
19 17 -7 18 -7 20 19 11
21 19 -9 21 -4 19 18 9
19 21 -7 22 -4 18 16 8
16 18 -7 18 -8 16 13 7
15 19 -4 20 -6 15 13 5
16 21 -2 21 -6 14 11 3
13 12 -6 17 -9 12 8 2
13 19 -7 16 -9 10 6 1
16 16 -3 20 -5 12 9 0
18 12 -3 17 -8 9 6 -2
21 15 -1 13 -8 6 5 -3
20 13 2 19 -3 10 7 0
12 14 4 17 -4 8 6 -3
2 15 5 14 -5 6 4 -2
2 16 3 17 -3 6 3 -4
6 9 8 19 0 8 5 -3
2 5 6 15 0 7 5 -5
4 7 6 13 0 5 4 -6
11 9 5 15 2 5 3 -8
11 5 4 12 0 3 1 -9
12 5 7 8 -2 -2 -1 -11
16 11 6 10 1 -1 -1 -11
13 8 3 9 1 -2 -1 -12
13 10 0 5 -2 -4 -3 -12
16 12 2 7 0 -3 -3 -13
17 10 2 7 0 -3 -3 -14
12 9 0 2 -3 -6 -6 -17
17 13 -3 0 -5 -8 -9 -19
15 7 4 10 4 -2 -2 -14
6 6 6 10 5 1 1 -10
1 7 3 8 5 0 -1 -11
-2 7 7 13 10 3 3 -7
-5 2 17 14 10 2 4 -7
-3 7 14 7 4 -3 -1 -9
2 7 18 11 9 -1 1 -9
5 6 14 9 7 -2 -1 -13
8 4 8 6 3 -5 -5 -16
5 6 8 10 8 -1 -1 -11
4 7 9 15 12 3 1 -10
7 5 7 12 10 1 1 -9
7 1 5 9 8 0 -1 -11
11 7 4 9 8 -1 -3 -11
13 11 3 6 6 -4 -3 -15
10 7 1 4 4 -5 -3 -12
7 8 8 9 9 0 -1 -10
7 3 8 12 11 3 1 -9
2 1 7 9 8 1 0 -11
2 4 7 11 12 5 2 -7
6 9 9 14 14 6 2 -9
9 5 15 10 13 3 0 -10
6 3 11 14 15 7 4 -8
-2 7 9 14 17 7 4 -6
-1 7 7 12 13 3 1 -11
1 0 6 10 13 4 2 -8
0 0 8 12 15 5 2 -8
7 0 9 10 15 6 1 -10
10 0 5 6 9 2 -2 -15
12 4 3 7 11 4 0 -12
21 8 5 11 14 6 1 -13
19 3 4 10 14 6 2 -12
14 5 4 9 15 7 4 -10
13 8 5 11 17 8 5 -9
14 1 5 9 15 6 3 -13
18 -1 3 5 14 5 3 -12
16 7 3 6 14 5 2 -14
9 12 3 6 14 6 2 -14
13 2 3 4 14 6 4 -14
9 2 6 8 19 10 6 -12
6 11 13 14 22 13 8 -12
12 7 9 8 18 9 5 -14
2 6 10 10 22 12 10 -9
1 13 13 14 27 15 12 -6
5 9 10 10 23 11 8 -11
10 2 7 5 19 9 7 -12
7 6 10 7 21 10 7 -14
4 5 8 9 24 11 6 -13
8 7 2 3 18 5 3 -17
4 6 7 6 22 7 6 -15
8 10 9 11 25 8 7 -16
13 8 5 9 25 8 8 -14
12 3 4 9 25 8 10 -12
13 9 5 9 28 10 11 -12
10 4 6 9 26 8 11 -12
6 0 2 6 23 7 9 -13
10 1 3 7 25 8 9 -13
9 2 2 7 24 7 7 -14
9 6 -1 0 18 0 2 -20
8 9 -1 2 22 5 5 -17
8 4 3 9 27 9 8 -15
11 -1 -1 5 22 5 6 -19
11 -2 0 5 22 4 7 -17
10 -1 2 9 24 7 9 -14
7 1 2 7 23 8 9 -16
3 2 -2 4 21 5 8 -16
8 -1 -1 6 24 7 9 -16
9 2 1 8 25 9 9 -15
10 -5 -3 2 20 4 6 -19
13 0 -4 1 20 4 5 -19
12 5 0 6 24 8 9 -19
9 2 -3 3 22 6 7 -19
17 -2 -4 1 20 6 7 -20
19 3 1 3 21 6 8 -19
16 1 0 2 20 6 8 -18
11 -4 2 3 21 8 10 -15
8 -2 5 6 25 10 13 -15
9 6 5 4 23 8 9 -17
15 -1 -2 2 21 6 8 -20
15 0 -1 3 23 7 9 -18
11 2 8 10 28 11 12 -16
10 1 9 4 23 8 8 -19
4 6 -1 3 23 8 8 -19
-3 8 6 9 28 13 15 -14
-1 3 5 4 24 10 13 -17
11 0 -1 1 21 9 12 -16
15 5 0 3 24 10 14 -16
13 4 6 4 24 11 15 -16
16 3 7 2 23 10 14 -18
14 8 6 8 28 14 18 -14
12 12 11 12 32 17 22 -14
7 9 12 12 33 19 25 -10
7 9 11 11 32 19 24 -11
12 14 15 12 34 20 25 -9
17 12 15 9 32 16 22 -13
18 9 4 5 28 13 19 -13
15 15 6 7 30 15 21 -12
10 14 8 10 32 16 23 -11
9 7 9 9 31 18 23 -12
13 11 13 12 33 19 24 -10
18 10 11 15 35 21 25 -10
18 8 10 11 33 19 22 -11
11 11 5 11 33 19 22 -12
7 15 9 15 37 21 23 -9
10 6 7 13 35 19 23 -11
16 6 3 7 31 14 20 -15
21 9 9 9 32 17 20 -15
18 9 11 13 37 21 22 -11
13 6 9 12 35 21 22 -12
11 16 7 14 37 23 23 -9
10 20 8 16 39 25 24 -9
17 16 1 8 34 21 22 -11
27 25 0 2 29 16 19 -13
26 29 2 3 33 18 19 -12
22 21 -3 1 31 17 19 -13
14 13 2 0 31 19 22 -8
12 17 -1 3 33 22 24 -7
13 22 -4 5 36 25 26 -4
20 23 -6 2 32 23 26 -8
25 25 -5 5 36 27 29 -3
26 24 5 12 42 34 35 -1
22 25 1 11 42 35 36 2
30 24 -4 11 42 34 36 1
36 25 0 11 41 33 34 0
27 24 -5 9 35 30 31 -3
26 15 -8 4 32 27 29 -2
27 17 -8 3 29 23 27 -6
28 16 -11 0 26 20 22 -10
24 6 -11 0 25 20 23 -8
12 3 -6 5 30 26 29 -3
16 5 -3 6 29 25 26 -6
26 2 -11 0 23 20 22 -12
24 0 -9 -1 25 21 22 -10
24 5 -3 3 27 23 23 -10
13 -2 -2 2 26 23 23 -12
8 -5 -5 0 24 21 22 -12
13 -9 -5 0 24 19 21 -15
15 -12 -5 1 22 18 18 -17
10 -15 -4 -1 21 15 18 -18
9 -12 -1 2 25 18 19 -17
10 -12 -1 2 23 16 16 -21
14 -17 -2 -1 21 14 15 -23
16 -14 -5 -5 18 11 13 -23
16 -11 -1 -1 21 14 16 -20
19 -11 -2 -3 17 12 13 -22
12 -13 -6 -6 15 10 13 -22
14 -11 4 -4 17 11 14 -21
17 -3 -2 -5 14 10 11 -25
11 -2 -10 -11 9 4 5 -29
11 -9 1 -4 15 10 12 -24
11 -12 5 -1 18 12 14 -24
12 -9 -7 -7 11 7 10 -28
17 -6 -9 -9 11 5 8 -28
25 -9 -6 -5 14 7 10 -27
28 -13 -9 -7 10 5 7 -30
24 -9 -12 -12 6 3 4 -30
19 -7 -12 -9 9 5 7 -27
14 -12 -3 -4 14 10 13 -21
6 -9 -5 -7 12 9 12 -21
8 -9 -2 -4 14 10 13 -19
11 -11 8 0 15 12 15 -19
8 -16 -3 -1 12 10 12 -19
8 -9 -10 -4 9 7 10 -21
11 -9 -4 0 12 10 13 -17
15 -20 -5 -3 7 8 12 -19
14 -22 -9 -7 7 7 12 -18
11 -17 -6 -5 9 9 14 -17
10 -20 -6 -1 11 11 15 -14
14 -21 -8 -5 7 8 13 -17
17 -18 -6 -2 9 9 14 -16
12 -17 0 5 16 15 18 -11
9 -21 1 2 12 15 18 -12
12 -21 -2 -3 8 11 16 -14
8 -17 4 4 13 15 19 -9
2 -23 7 3 11 15 19 -10
7 -24 -3 -3 6 11 16 -13
12 -20 3 -1 7 11 15 -13
20 -17 1 -5 3 7 10 -18
22 -20 -7 -7 0 6 8 -20
17 -18 -3 -2 6 11 13 -15
12 -18 6 5 11 15 16 -13
4 -22 10 9 14 18 17 -11
3 -22 10 11 14 17 14 -15
8 -27 18 21 21 20 15 -16
12 -32 18 23 23 20 13 -22
19 -33 12 25 24 21 11 -26
36 -31 11 32 31 29 16 -27
41 -35 17 44 45 45 28 -19
39 -38 24 57 60 63 43 -13
44 -30 36 81 87 90 65 0
40 -24 40 108 117 123 93 16
47 -27 48 128 143 156 125 36
54 -16 49 140 167 189 161 63
64 -6 45 148 187 230 209 100
74 -3 36 145 196 260 252 138
70 3 30 128 194 277 282 169
59 25 26 108 186 277 293 190
49 49 18 79 160 240 268 192
31 57 7 30 98 151 197 175
17 77 -3 -26 22 47 110 145
7 85 -14 -70 -45 -41 36 111
5 57 -19 -96 -96 -103 -23 75
7 44 -20 -105 -123 -138 -65 42
-6 42 -2 -89 -116 -143 -79 24
-14 35 3 -82 -112 -141 -87 13
-24 28 5 -72 -106 -140 -94 -2
-35 24 12 -53 -89 -130 -99 -19
-37 19 21 -34 -74 -119 -101 -35
-39 6 33 -21 -64 -110 -101 -49
-38 1 42 -6 -52 -102 -100 -61
-36 3 49 10 -41 -94 -99 -71
-40 -12 67 28 -28 -84 -93 -73
-46 -22 78 47 -15 -74 -86 -74
-43 -25 89 72 7 -54 -72 -71
-37 -36 94 86 17 -45 -67 -72
-34 -43 103 97 25 -37 -61 -73
-36 -43 117 116 38 -23 -51 -69
-32 -46 123 129 46 -18 -47 -70
-20 -48 129 130 45 -18 -47 -74
-23 -49 137 135 50 -14 -42 -69
-22 -49 140 139 55 -8 -38 -66
-20 -51 140 134 53 -7 -37 -66
-24 -51 145 133 51 -7 -36 -64
-23 -47 154 137 52 -4 -33 -60
-21 -49 155 134 45 -9 -38 -64
-22 -46 156 126 38 -14 -41 -68
-30 -50 164 126 39 -9 -36 -62
-32 -53 166 119 32 -12 -38 -64
-33 -56 171 111 25 -15 -41 -65
-32 -51 171 111 25 -13 -37 -62
-36 -52 175 111 24 -12 -36 -62
-41 -47 176 104 20 -14 -37 -62
-46 -46 179 97 15 -15 -36 -60
-52 -47 185 94 13 -16 -34 -56
-56 -45 186 78 0 -21 -39 -59
-52 -44 173 59 -14 -30 -43 -61
-41 -34 158 43 -21 -33 -45 -62
-39 -34 147 34 -23 -32 -40 -57
-38 -40 132 20 -31 -34 -40 -56
-40 -31 122 10 -34 -31 -34 -49
-46 -28 113 3 -38 -29 -30 -44
-41 -28 96 -11 -48 -33 -31 -44
-34 -20 80 -20 -54 -35 -32 -42
-27 -20 72 -22 -54 -33 -28 -39
-19 -29 49 -31 -61 -36 -31 -41
-22 -27 34 -36 -63 -33 -26 -35
-22 -26 29 -31 -58 -27 -20 -30
-18 -24 27 -27 -55 -22 -16 -27
-18 -23 20 -31 -58 -22 -16 -27
-11 -19 11 -27 -55 -18 -11 -24
1 -15 2 -25 -55 -17 -12 -25
-3 -16 -1 -24 -54 -14 -8 -22
-9 -20 -5 -20 -51 -8 -3 -16
-1 -20 -4 -13 -46 -5 2 -12
2 -24 -12 -16 -51 -8 -1 -16
4 -21 -16 -19 -53 -7 -2 -13
3 -23 -13 -12 -50 -2 2 -11
9 -23 -16 -11 -52 -3 2 -13
12 -21 -21 -12 -54 -2 1 -13
11 -22 -23 -6 -51 3 7 -8
16 -21 -24 -3 -51 4 7 -8
13 -20 -27 -3 -53 4 8 -8
15 -22 -27 -6 -56 2 6 -8
19 -21 -31 -3 -56 3 6 -7
16 -27 -37 -5 -62 0 3 -8
14 -26 -40 -9 -68 -1 3 -7
13 -19 -37 -7 -68 0 3 -7
6 -23 -30 -4 -67 3 6 -5
0 -20 -36 -7 -73 0 4 -7
10 -18 -30 -6 -70 3 7 -5
13 -19 -30 -3 -70 3 6 -6
14 -23 -31 -6 -73 2 6 -5
18 -23 -31 -7 -75 2 4 -5
19 -16 -33 -6 -72 3 5 -4
18 -19 -37 -10 -77 -1 1 -7
15 -22 -33 -14 -79 -2 1 -5
15 -15 -31 -12 -77 -1 1 -6
17 -18 -32 -11 -76 -2 2 -7
11 -28 -27 -13 -78 -3 0 -7
10 -24 -21 -10 -74 1 3 -3
14 -21 -20 -8 -72 1 3 -4
14 -24 -22 -10 -73 0 3 -3
12 -20 -23 -9 -71 1 4 -1
9 -18 -20 -5 -66 4 7 1
9 -24 -17 -5 -66 2 4 1
8 -21 -11 -7 -66 3 6 5
10 -18 -19 -6 -64 3 5 4
12 -13 -18 -6 -64 3 4 2
9 -22 -18 -11 -64 -1 2 1
8 -21 -15 -9 -60 1 4 3
13 -14 -15 -9 -59 0 2 3
19 -19 -22 -13 -61 -3 1 1
22 -17 -21 -14 -58 -3 0 2
18 -16 -14 -7 -52 1 4 6
14 -21 -18 -10 -55 -4 -1 2
18 -21 -20 -12 -54 -4 1 3
20 -14 -22 -12 -53 -4 -1 2
13 -16 -18 -13 -53 -4 -2 2
12 -20 -17 -14 -53 -6 -2 2
13 -17 -20 -14 -50 -3 0 5
6 -11 -16 -11 -46 -2 1 5
12 -16 -22 -15 -49 -5 0 4
14 -19 -25 -18 -51 -7 -2 5
12 -9 -22 -16 -48 -6 -1 6
15 -17 -23 -18 -49 -7 -2 5
18 -19 -24 -19 -49 -7 -2 6
19 -16 -23 -17 -45 -5 0 6
18 -15 -23 -17 -43 -6 -1 6
18 -18 -28 -20 -46 -8 -3 4
14 -18 -26 -17 -42 -4 1 9
12 -19 -24 -16 -41 -4 1 8
19 -21 -25 -18 -42 -5 1 9
20 -21 -26 -21 -42 -7 0 9
17 -14 -22 -19 -43 -6 2 11
20 -13 -28 -22 -46 -11 -1 9
13 -20 -27 -23 -44 -7 2 14
14 -16 -25 -21 -40 -5 2 15
16 -17 -23 -20 -39 -6 3 14
14 -20 -25 -24 -43 -8 1 12
14 -12 -21 -21 -38 -2 7 18
15 -9 -24 -19 -37 -3 6 15
20 -13 -25 -23 -38 -5 5 8
25 -10 -29 -28 -43 -9 2 2
23 2 -33 -29 -44 -10 1 -2
25 -7 -33 -30 -45 -10 1 -3
19 -10 -37 -30 -42 -7 6 2
14 -5 -33 -29 -39 -5 7 3
17 -3 -33 -29 -39 -6 7 0
27 -9 -41 -38 -47 -12 1 -6
31 -2 -45 -38 -45 -10 5 -4
33 5 -46 -34 -44 -7 7 -3
28 -5 -45 -35 -44 -6 10 0
31 -4 -48 -37 -46 -7 8 1
25 0 -45 -33 -40 -3 14 6
20 -6 -52 -35 -43 -4 14 6
20 2 -56 -41 -46 -8 12 5
19 4 -55 -38 -43 -4 15 7
20 4 -57 -39 -44 -5 16 5
28 0 -54 -45 -50 -8 14 3
28 3 -54 -42 -46 -5 18 6
28 5 -55 -37 -45 -1 21 9
31 9 -63 -43 -50 -4 18 5
27 12 -65 -42 -48 -2 21 10
23 15 -62 -39 -43 1 25 13
30 7 -66 -43 -48 -2 21 11
36 7 -68 -47 -50 -5 21 11
34 9 -67 -45 -46 -2 24 13
35 8 -66 -44 -45 -1 27 13
36 10 -71 -47 -48 -1 27 14
34 15 -67 -42 -41 4 34 19
34 18 -61 -36 -36 8 37 22
33 13 -59 -35 -34 11 40 25
34 14 -60 -35 -33 11 40 25
31 20 -59 -30 -29 14 42 29
35 15 -61 -31 -31 14 41 28
42 16 -60 -36 -33 11 39 25
42 18 -57 -31 -28 15 42 26
38 18 -56 -29 -26 15 42 25
36 16 -64 -31 -30 14 41 23
30 19 -55 -23 -20 21 47 28
31 15 -46 -17 -15 25 51 29
42 15 -49 -21 -15 22 48 26
41 22 -53 -21 -14 21 46 26
39 22 -50 -15 -8 24 48 27
36 19 -50 -13 -8 25 47 26
24 19 -42 -9 -3 29 52 30
20 22 -32 -4 1 31 52 30
20 24 -32 -3 1 31 50 26
19 11 -33 -5 1 30 49 25
21 17 -35 0 6 32 50 25
27 17 -33 4 8 34 50 22
29 8 -33 2 7 30 46 19
29 8 -30 5 10 30 45 19
20 12 -22 13 16 34 49 24
18 13 -21 13 14 32 45 22
20 24 -21 9 12 28 41 19
18 27 -21 15 15 29 41 18
22 14 -18 16 16 29 40 15
23 9 -21 11 12 25 35 11
18 13 -16 17 18 29 39 13
16 10 -8 25 24 33 40 14
17 9 -10 22 20 28 36 11
13 12 -6 20 17 25 33 10
19 11 -1 24 21 28 35 11
15 6 -4 22 20 24 32 8
12 12 -4 20 19 22 30 7
15 15 0 20 20 22 29 4
17 11 1 19 17 19 26 0
18 7 -6 16 16 17 23 -1
16 9 -2 20 21 19 26 1
14 5 3 23 22 20 27 2
9 2 7 22 23 19 28 4
5 2 5 19 21 17 26 8
9 8 8 20 23 17 25 10
9 2 4 17 21 16 23 11
6 6 5 16 21 14 23 13
1 3 11 20 26 18 26 17
0 1 8 19 24 16 23 16
4 5 7 12 19 10 18 12
7 8 13 16 25 14 22 16
7 8 15 18 24 14 21 16
6 4 14 14 23 11 20 18
7 0 15 13 23 11 19 19
7 5 11 14 24 13 20 21
5 0 9 10 20 9 17 18
2 -3 7 7 20 8 15 19
1 0 8 9 22 9 15 19
3 1 9 11 20 8 15 18
-1 0 8 7 18 5 12 16
-4 7 15 14 25 12 18 23
-2 4 17 17 28 14 18 24
6 3 15 14 24 11 17 24
-5 4 15 17 26 14 19 28
-8 2 16 20 29 16 21 29
-3 -2 13 15 23 12 16 27
3 -2 7 9 17 7 10 22
6 1 8 8 18 4 9 20
5 -2 11 12 21 7 12 22
8 -2 5 6 16 3 9 20
12 6 7 9 20 6 11 22
13 3 10 14 24 10 14 24
7 1 9 11 23 10 16 24
5 5 9 11 22 9 14 26
2 9 14 16 27 14 19 30
2 4 11 13 22 11 16 27
10 1 8 9 20 9 15 27
6 1 10 12 24 11 17 28
4 4 12 9 23 9 14 26
5 2 10 6 21 8 13 26
4 0 13 11 28 14 19 31
5 4 15 14 30 15 17 31
2 0 13 12 29 15 18 32
-2 4 11 11 28 15 17 33
3 9 19 15 32 16 20 34
5 0 15 13 29 14 18 33
2 -2 15 11 31 16 19 35
-2 3 14 15 33 18 21 37
-5 6 14 13 31 16 20 33
-2 -2 12 11 30 15 19 34
6 1 10 11 31 16 20 34
7 1 9 9 29 14 17 31
17 3 5 5 26 11 15 29
22 4 3 3 24 9 13 29
18 5 11 8 29 14 18 33
9 3 12 9 30 16 20 36
-5 0 14 10 34 19 24 41
-8 2 17 15 37 21 25 44
-3 2 12 12 36 18 22 39
1 0 7 5 30 14 18 35
7 2 10 7 33 15 19 36
4 3 13 10 34 17 19 36
6 1 10 5 31 13 17 34
12 8 9 1 27 9 14 32
8 8 10 7 32 14 19 36
-1 3 16 9 33 17 19 39
-4 1 14 10 37 18 22 43
0 1 10 10 35 17 20 40
4 0 15 9 35 17 20 37
8 0 5 3 30 11 16 28
7 6 8 6 33 13 19 25
1 3 12 12 37 16 21 24
-10 -3 13 10 37 18 22 25
-11 3 10 9 37 16 20 22
-9 5 13 12 41 19 23 22
-5 3 6 6 34 14 19 16
-1 6 4 3 33 12 18 15
-6 4 13 8 38 16 21 18
-5 3 10 9 38 16 21 17
4 2 4 3 32 11 17 12
9 3 4 5 35 11 18 13
6 3 6 8 36 13 18 12
-3 0 7 8 36 14 20 14
-10 3 16 7 37 15 20 16
-9 13 12 7 36 14 19 14
-3 1 4 1 30 8 14 9
0 -4 3 -2 31 7 14 9
6 6 1 -1 31 7 12 6
7 7 -2 1 32 7 12 5
-4 0 4 3 37 11 16 10
-9 10 6 7 42 14 19 12
-16 4 8 11 43 16 20 13
-12 0 6 9 39 15 19 13
-4 -1 1 4 37 11 16 11
-2 6 1 6 38 12 16 10
-3 -1 4 3 35 9 13 8
-9 1 2 -1 33 6 11 7
-6 1 -3 0 34 8 11 7
-2 4 -2 0 32 7 9 5
0 1 -5 -5 30 4 8 4
3 4 -2 1 35 8 12 6
3 1 1 2 35 8 11 5
-6 1 0 2 37 9 13 8
-15 4 2 6 41 14 16 12
-20 9 2 9 44 16 16 12
-14 1 -2 3 40 12 12 9
-7 1 -6 1 38 9 11 9
-8 6 2 3 38 9 11 7
-8 5 8 4 40 11 12 7
-10 4 0 0 36 7 10 5
-4 13 3 4 40 11 13 7
-2 12 1 7 43 13 14 6
-4 12 5 5 42 11 13 7
2 16 0 6 43 11 13 7
6 18 -2 6 44 13 14 7
-3 19 3 4 43 11 12 6
-3 18 1 5 45 12 16 10
-4 17 4 7 47 13 17 9
-5 21 -1 5 44 9 14 7
-9 21 -5 1 41 7 10 6
-10 16 2 9 48 13 16 11
0 16 8 10 48 13 16 10
9 14 0 4 42 8 13 7
9 14 -5 4 42 9 12 8
12 20 -5 7 46 10 13 9
15 14 -10 1 40 5 7 5
11 17 -9 1 40 5 9 7
-1 17 0 6 45 10 13 9
-16 16 5 11 51 13 17 13
-15 13 3 10 51 14 17 13
-7 17 3 10 51 14 17 14
-4 14 1 9 49 13 16 12
-2 15 -3 5 46 11 14 12
-3 17 -7 2 44 10 15 13
-2 29 -7 3 46 11 15 15
-5 25 -10 -2 40 7 12 12
1 25 -9 -6 35 4 11 12
3 27 -5 0 38 10 17 16
-1 31 -3 0 39 12 18 18
0 30 -14 -2 37 11 19 17
5 38 -10 2 41 16 22 22
15 32 -9 2 38 15 19 18
19 36 -18 -4 33 11 18 18
15 34 -17 -1 36 14 22 22
18 35 -13 2 39 16 24 24
16 32 -13 0 34 13 22 21
3 25 -11 1 35 16 24 25
-1 28 -7 3 36 18 26 25
1 23 -3 4 36 18 23 25
7 18 -19 -6 27 9 16 17
11 23 -19 -5 26 7 14 15
6 25 -18 -6 24 4 12 12
0 18 -17 -7 24 7 13 16
3 20 -19 -8 21 5 13 14
3 26 -20 -7 20 3 10 12
4 13 -19 -11 17 0 7 12
5 15 -21 -14 15 -2 5 11
4 12 -19 -13 15 -2 3 8
4 8 -15 -9 17 -1 5 7
1 2 -17 -12 15 -3 3 6
-5 6 -12 -8 18 -1 5 7
-5 5 -10 -4 19 -1 5 6
-6 0 -14 -9 14 -4 2 4
-11 1 -13 -8 13 -3 4 5
-11 1 -3 -3 17 0 7 9
-8 -1 -12 -12 9 -7 1 4
-11 5 -16 -15 6 -8 0 4
-13 7 -17 -14 7 -7 -1 3
-10 1 -15 -12 7 -8 0 2
-9 0 -15 -15 5 -10 -1 3
-9 3 -10 -12 8 -7 -1 4
-5 0 -12 -9 9 -8 1 4
-4 2 -12 -11 7 -8 1 6
-11 3 -12 -12 5 -8 0 5
-16 0 -9 -6 8 -5 3 8
-17 -5 -13 -12 3 -9 0 6
-12 -4 -14 -18 -3 -13 -4 2
-8 1 -15 -16 0 -12 -6 2
-12 -2 -13 -13 3 -10 -3 4
-10 -4 -19 -14 0 -12 -4 2
-8 0 -12 -11 3 -8 -2 3
-8 -3 -16 -12 0 -11 -4 -1
-5 -2 -19 -16 -2 -13 -5 -1
-11 -2 -18 -14 -1 -10 -1 2
-19 1 -7 -8 4 -5 2 8
-15 -1 -19 -14 -4 -11 -4 2
-16 4 -20 -19 -9 -14 -7 0
-15 2 -14 -15 -5 -12 -5 1
-15 1 -19 -15 -5 -11 -5 1
-11 -7 -22 -20 -12 -15 -9 -2
-15 0 -21 -13 -6 -10 -4 3
-19 3 -16 -9 -6 -9 -4 3
-17 -1 -20 -12 -8 -10 -5 4
-17 -1 -19 -10 -7 -8 -2 5
-15 2 -14 -8 -5 -5 -1 5
-11 -3 -23 -14 -12 -10 -7 0
-7 0 -27 -17 -14 -13 -8 0
-11 0 -20 -14 -12 -12 -6 1
-7 -2 -16 -14 -11 -12 -7 2
-5 2 -25 -22 -19 -19 -14 -5
-11 1 -17 -13 -9 -11 -7 2
-24 -2 -9 -6 -1 -3 0 7
-28 -4 -3 -7 -1 -4 -2 7
-18 -1 -7 -8 -2 -5 -3 3
-16 1 -8 -1 3 -5 -4 2
-13 -12 -10 -2 0 -8 -10 -5
-9 -11 -9 5 5 -4 -10 -6
-11 -8 -3 16 15 4 -5 -7
-14 -13 5 25 26 15 1 -3
-8 -15 8 32 37 28 11 1
-1 -12 10 49 56 46 26 9
11 -9 13 66 70 64 41 14
12 -8 20 88 97 93 64 30
19 -9 27 110 126 127 94 49
34 -5 33 128 151 161 130 73
43 -2 27 131 167 194 171 102
50 11 20 130 182 230 220 145
53 31 12 120 183 250 251 174
49 51 6 99 175 255 267 194
42 64 -1 70 156 228 252 203
20 79 -5 35 113 158 195 194
-3 87 -15 -17 40 58 112 166
-17 96 -27 -72 -31 -35 33 135
-23 84 -33 -104 -85 -104 -31 96
-28 69 -30 -113 -115 -141 -74 64
-34 68 -23 -108 -120 -157 -100 39
-43 64 -16 -96 -111 -155 -105 33
-48 60 -8 -83 -106 -152 -111 18
-50 48 0 -66 -93 -146 -118 0
-51 36 4 -54 -81 -138 -123 -18
-50 36 15 -35 -64 -124 -120 -28
-55 24 27 -18 -54 -118 -120 -43
-59 15 36 -4 -43 -110 -120 -49
-64 7 47 12 -29 -99 -115 -52
-61 4 59 28 -18 -92 -113 -58
-56 1 64 39 -12 -86 -111 -65
-55 -5 70 58 4 -70 -101 -61
-55 -9 84 77 19 -56 -88 -58
-57 -12 96 96 31 -45 -80 -55
-60 -17 103 106 37 -39 -76 -55
-56 -16 118 124 51 -26 -65 -48
-54 -21 125 130 55 -21 -60 -48
-52 -25 131 126 52 -21 -61 -48
-47 -20 129 123 53 -20 -60 -46
-51 -14 129 122 51 -19 -60 -46
-51 -17 127 114 42 -27 -66 -51
-54 -26 137 120 45 -21 -61 -43
-59 -22 146 123 47 -16 -57 -41
-60 -14 150 120 41 -20 -60 -45
-59 -21 152 108 31 -25 -62 -46
-59 -23 166 109 31 -23 -60 -43
-51 -20 164 106 27 -25 -61 -45
-47 -20 158 100 21 -29 -65 -47
-49 -23 163 98 18 -27 -65 -45
-55 -19 169 97 19 -25 -62 -42
-65 -23 167 85 7 -32 -67 -46
-67 -20 167 73 -1 -37 -70 -44
-69 -16 166 62 -6 -38 -70 -44
-71 -19 157 48 -14 -39 -68 -42
-74 -15 139 29 -24 -43 -69 -42
-72 -10 134 25 -24 -37 -63 -34
-66 -7 123 13 -31 -38 -61 -33
-61 -8 106 -1 -40 -40 -59 -28
-55 -6 87 -15 -49 -44 -61 -27
-52 -1 76 -16 -49 -40 -55 -22
-55 -1 60 -28 -57 -45 -57 -25
-55 -1 47 -33 -58 -43 -54 -20
-40 1 32 -36 -62 -42 -52 -19
-33 -1 20 -39 -64 -42 -51 -19
-32 -4 7 -44 -64 -41 -52 -19
-39 2 14 -34 -53 -31 -43 -10
-37 -1 11 -30 -51 -28 -39 -9
-25 -2 -5 -33 -53 -29 -38 -9
-21 -1 -11 -32 -51 -27 -36 -7
-20 1 -13 -27 -47 -22 -33 -5
-13 -9 -20 -28 -49 -22 -32 -4
-17 -7 -17 -25 -46 -18 -28 1
-20 -5 -23 -20 -42 -13 -24 4
-16 -2 -25 -20 -41 -13 -25 2
-14 -5 -27 -21 -44 -12 -25 3
-10 -1 -26 -15 -39 -6 -21 7
-8 -5 -28 -13 -39 -5 -20 7
-4 -6 -35 -16 -43 -7 -21 8
-8 3 -35 -17 -45 -7 -22 10
-11 3 -37 -11 -42 -4 -19 12
-7 -7 -43 -15 -48 -6 -21 9
-8 -2 -43 -13 -48 -4 -19 12
-10 1 -40 -12 -49 -5 -22 10
-17 -3 -36 -8 -49 -3 -19 12
-17 -8 -35 -12 -54 -4 -21 11
-13 -5 -37 -9 -52 -2 -21 12
-9 -5 -39 -9 -55 -5 -22 9
-6 -10 -35 -12 -59 -8 -24 8
-5 -9 -38 -14 -61 -9 -25 9
-12 -4 -34 -8 -55 -6 -20 12
-17 -13 -36 -11 -61 -7 -22 12
-14 -11 -39 -12 -65 -8 -24 13
-9 -6 -38 -11 -66 -8 -24 11
-9 -8 -39 -10 -67 -9 -25 8
-10 -12 -37 -15 -70 -12 -28 7
-13 -9 -30 -8 -67 -7 -24 11
-9 -10 -30 -9 -71 -8 -24 7
-3 -8 -37 -15 -74 -13 -28 5
3 -5 -43 -21 -80 -18 -33 1
3 -4 -38 -13 -77 -15 -29 5
0 -11 -35 -16 -79 -15 -30 5
-6 -7 -32 -15 -75 -13 -28 8
-9 -8 -29 -9 -68 -9 -24 11
-11 -9 -23 -10 -69 -10 -27 9
-11 -7 -26 -16 -73 -15 -31 6
1 -6 -27 -13 -67 -12 -29 7
1 -10 -25 -11 -66 -12 -29 4
-1 -13 -25 -13 -67 -14 -29 4
1 -13 -26 -18 -68 -17 -30 2
-8 -11 -20 -12 -61 -12 -27 6
-14 -11 -21 -15 -62 -13 -27 5
-6 -11 -20 -16 -62 -15 -28 5
-4 -7 -14 -11 -58 -13 -25 7
-10 -7 -15 -11 -54 -12 -24 6
-14 -9 -23 -16 -56 -14 -25 6
-13 -5 -17 -11 -50 -9 -21 9
-8 -7 -18 -11 -51 -11 -22 7
-4 -12 -21 -15 -53 -13 -24 7
-3 -9 -17 -17 -51 -14 -25 8
-5 -9 -18 -15 -50 -15 -25 8
-6 -14 -24 -19 -53 -17 -27 7
-6 -6 -24 -21 -52 -19 -28 8
-4 -4 -26 -23 -53 -22 -32 2
-6 -12 -25 -17 -46 -18 -28 5
-5 -17 -26 -21 -50 -20 -29 4
-5 -12 -21 -16 -42 -15 -25 7
-8 -12 -16 -13 -38 -14 -23 9
-11 -13 -21 -15 -40 -16 -24 9
-13 -12 -21 -16 -38 -17 -25 10
-7 -13 -22 -16 -36 -16 -26 9
-4 -18 -28 -23 -43 -22 -30 5
-4 -11 -29 -24 -42 -22 -31 6
-6 -7 -28 -22 -38 -21 -30 5
-5 -12 -29 -23 -39 -21 -30 4
3 -13 -30 -28 -43 -25 -32 3
2 -8 -30 -24 -40 -20 -29 6
1 -5 -29 -22 -39 -19 -27 8
3 -6 -33 -25 -41 -21 -29 7
8 -9 -35 -27 -42 -23 -29 7
6 -9 -26 -23 -38 -19 -26 10
3 -15 -29 -26 -42 -20 -27 11
1 -11 -35 -28 -42 -21 -27 13
2 -9 -36 -27 -40 -19 -24 14
-2 -9 -37 -29 -42 -20 -25 14
-2 -7 -38 -32 -45 -22 -25 13
0 -3 -35 -29 -42 -18 -22 15
5 -8 -31 -29 -43 -18 -21 14
11 -4 -36 -33 -49 -21 -24 14
11 -1 -44 -38 -51 -23 -24 14
12 0 -46 -34 -49 -20 -22 16
16 0 -50 -39 -56 -22 -25 15
22 1 -51 -41 -58 -24 -24 16
18 6 -50 -38 -57 -21 -20 17
8 4 -54 -37 -58 -18 -17 19
6 0 -56 -41 -61 -19 -17 20
8 6 -49 -36 -56 -13 -11 25
11 7 -51 -39 -62 -16 -13 22
13 2 -51 -42 -65 -17 -14 24
11 3 -46 -40 -65 -13 -9 30
10 9 -56 -38 -65 -12 -8 31
13 5 -57 -41 -69 -12 -9 33
19 15 -58 -43 -70 -14 -10 33
25 11 -58 -42 -70 -13 -9 31
21 6 -60 -40 -68 -11 -5 34
14 3 -60 -41 -67 -9 -3 37
13 14 -57 -35 -62 -3 4 42
14 11 -55 -33 -60 0 7 42
13 6 -58 -36 -63 -1 7 44
12 10 -59 -35 -60 1 10 47
11 16 -56 -29 -56 5 14 50
20 10 -59 -35 -57 3 12 48
27 16 -59 -36 -56 1 11 47
25 17 -60 -30 -54 6 14 49
22 17 -57 -28 -51 8 17 50
23 16 -54 -27 -49 10 19 51
24 26 -50 -22 -44 13 21 50
27 26 -50 -21 -43 12 19 47
22 15 -44 -21 -42 12 20 47
18 11 -43 -18 -38 13 23 49
19 17 -42 -11 -33 16 24 50
18 12 -45 -14 -35 14 22 46
19 18 -43 -12 -31 14 22 47
18 24 -41 -6 -26 18 24 47
14 25 -38 -3 -22 19 25 48
17 20 -36 -2 -21 20 26 50
15 17 -23 9 -11 29 31 53
