I II V1 V2 V3 V4 V5 V6
-7 11 25 -3 5 6 2 -3
-6 11 25 -4 5 6 2 -4
-5 12 24 -5 4 5 1 -6
-4 13 23 -6 4 5 0 -8
-3 14 22 -7 3 4 -2 -10
-2 15 22 -8 3 4 -2 -12
0 16 21 -8 3 4 -2 -12
0 16 21 -7 4 5 1 -10
0 16 20 -5 5 7 2 -9
0 16 20 -4 6 8 4 -7
0 16 20 -3 7 9 5 -6
1 14 18 -3 7 9 6 -6
2 12 16 -5 5 8 5 -7
4 10 14 -7 3 6 5 -9
5 8 12 -9 1 5 4 -10
6 7 10 -11 -2 4 4 -11
7 6 9 -12 -3 3 3 -12
6 7 9 -12 -2 3 3 -12
5 7 10 -12 0 4 3 -12
4 8 10 -12 1 4 3 -12
4 8 10 -12 1 4 3 -12
3 9 11 -11 2 5 4 -12
3 9 11 -11 2 5 4 -13
3 8 11 -11 1 5 3 -14
3 8 11 -11 1 5 3 -15
3 8 11 -11 1 5 3 -16
1 5 11 -11 0 4 2 -17
-2 3 10 -12 -2 3 1 -18
-3 1 9 -12 -3 2 1 -19
-5 -2 8 -13 -4 1 0 -20
-6 -4 7 -13 -4 0 0 -20
-7 -5 6 -14 -5 -2 -2 -21
-7 -4 7 -14 -5 -3 -3 -21
-8 -4 8 -14 -5 -3 -4 -21
-8 -3 9 -14 -5 -4 -5 -21
-8 -3 10 -14 -5 -4 -5 -21
-10 -3 11 -14 -5 -5 -6 -18
-11 -5 11 -14 -5 -5 -6 -16
-13 -7 10 -14 -5 -5 -6 -14
-14 -9 10 -14 -5 -5 -6 -12
-15 -11 10 -14 -5 -5 -6 -10
-16 -12 9 -10 -6 -5 -5 -9
-15 -12 9 -6 -6 -5 -5 -9
-14 -11 9 -2 -6 -4 -5 -9
-13 -11 9 3 -6 -4 -5 -9
-12 -11 9 6 -6 -4 -5 -9
-11 -8 8 7 -5 -3 -6 -8
-10 -6 7 7 -6 -4 -7 -8
-9 -4 6 8 -6 -5 -8 -8
-8 -2 5 8 -7 -6 -9 -8
-7 1 5 8 -7 -7 -10 -8
-6 0 4 9 -8 -8 -11 -7
-7 -4 5 9 -8 -8 -10 -5
-8 -6 6 9 -8 -8 -10 -3
-9 -9 7 9 -8 -8 -9 0
-10 -11 7 9 -8 -8 -9 2
-11 -12 9 10 -8 -7 -8 3
-11 -11 10 11 -7 -7 -8 3
-12 -11 12 12 -7 -7 -8 3
-12 -10 13 13 -6 -7 -8 3
-12 -10 14 13 -6 -7 -8 3
-14 -6 21 21 1 -2 -6 7
-16 0 27 29 8 4 -3 12
-18 4 33 38 14 9 1 16
-20 8 40 47 20 13 4 20
-21 12 47 55 26 18 6 24
-6 26 49 67 42 33 20 35
13 42 50 80 57 49 35 47
31 56 51 93 73 65 51 58
50 70 52 105 89 80 65 69
68 86 53 118 105 97 80 80
88 96 24 113 109 103 92 86
107 106 -8 106 112 109 103 91
128 116 -39 98 116 115 114 96
147 127 -71 91 119 121 126 101
167 137 -104 84 122 128 137 106
165 113 -114 62 99 105 115 91
162 88 -124 40 73 79 91 72
159 61 -134 18 47 55 66 54
156 35 -144 -5 21 29 42 35
153 9 -153 -26 -6 4 17 17
128 -2 -140 -33 -16 -7 7 10
100 -11 -123 -39 -26 -15 -4 4
72 -20 -108 -46 -35 -24 -14 -4
46 -29 -92 -52 -45 -32 -23 -10
18 -38 -76 -58 -55 -41 -33 -16
13 -39 -63 -49 -53 -40 -33 -17
8 -38 -51 -36 -49 -38 -32 -16
4 -37 -37 -25 -45 -36 -31 -15
0 -36 -25 -13 -41 -34 -30 -14
-5 -35 -12 0 -37 -32 -29 -14
-6 -31 -9 3 -33 -29 -27 -13
-7 -26 -7 6 -30 -26 -25 -12
-7 -22 -5 9 -27 -23 -23 -11
-8 -18 -3 11 -23 -20 -21 -10
-8 -14 0 14 -20 -17 -19 -9
-10 -13 2 15 -18 -15 -18 -8
-12 -14 4 16 -16 -14 -17 -8
-14 -15 6 16 -14 -13 -16 -8
-16 -16 8 17 -12 -12 -15 -8
-17 -16 10 17 -11 -11 -15 -8
-18 -16 11 18 -10 -10 -14 -7
-17 -15 12 18 -10 -10 -14 -7
-16 -14 13 19 -10 -9 -14 -7
-15 -13 14 19 -10 -9 -14 -7
-15 -12 14 19 -10 -9 -14 -7
-13 -11 15 20 -11 -8 -15 -7
-11 -12 15 20 -10 -7 -14 -7
-10 -13 15 20 -9 -7 -13 -8
-8 -14 15 20 -8 -6 -12 -8
-7 -14 15 20 -7 -6 -12 -8
-8 -14 14 19 -6 -5 -10 -9
-10 -13 14 19 -6 -5 -9 -10
-12 -11 14 19 -6 -5 -8 -10
-15 -10 14 19 -6 -5 -7 -11
-17 -9 14 19 -6 -5 -6 -11
-17 -8 13 18 -7 -6 -4 -12
-16 -9 13 18 -7 -6 -3 -12
-14 -10 13 18 -6 -5 -2 -12
-13 -11 13 18 -6 -5 0 -12
-12 -11 13 18 -6 -5 1 -12
-12 -11 13 17 -5 -4 2 -11
-14 -10 13 16 -6 -4 1 -12
-15 -9 13 14 -7 -5 0 -12
-17 -8 13 13 -8 -5 -2 -13
-18 -7 13 12 -8 -5 -3 -13
-18 -6 12 12 -8 -6 -4 -14
-16 -6 12 13 -6 -5 -3 -14
-15 -6 13 14 -5 -4 -2 -15
-13 -6 13 15 -3 -3 0 -15
-12 -6 13 16 -2 -2 0 -15
-10 -7 14 17 0 0 1 -16
-8 -6 14 17 -2 -2 1 -16
-7 -5 15 17 -2 -2 1 -16
-5 -4 15 17 -3 -3 1 -16
-4 -4 15 17 -3 -3 1 -16
-5 -3 16 16 -4 -4 0 -17
-7 -3 15 16 -5 -4 0 -17
-9 -4 14 16 -5 -4 1 -17
-12 -4 13 16 -6 -4 1 -17
-14 -4 13 16 -6 -4 1 -17
-15 -5 12 15 -7 -4 2 -18
-15 -5 12 14 -7 -4 2 -19
-14 -5 12 14 -8 -5 2 -19
-14 -5 12 13 -8 -5 2 -20
-14 -5 12 13 -8 -5 2 -20
-13 -6 11 12 -9 -6 1 -19
-13 -7 11 13 -8 -5 2 -16
-12 -8 11 13 -7 -4 3 -13
-12 -9 11 14 -6 -3 4 -10
-12 -10 11 14 -6 -3 4 -7
-11 -10 12 15 -5 -2 5 -5
-10 -9 12 16 -5 -2 5 -3
-9 -7 12 16 -5 -2 5 0
-8 -6 12 17 -5 -2 5 1
-7 -5 12 17 -5 -2 5 3
-5 -3 11 18 -5 -3 5 4
-3 1 10 17 -5 -3 5 5
0 3 8 17 -5 -3 5 6
2 5 6 16 -5 -3 5 7
4 7 5 16 -5 -3 5 8
5 7 4 15 -5 -2 5 9
4 6 4 15 -5 -2 6 10
3 4 4 15 -5 0 6 11
2 3 4 15 -5 0 7 12
1 2 4 15 -5 0 7 13
2 2 2 15 -4 2 9 14
6 4 1 15 -3 3 10 14
9 6 0 15 0 5 12 15
13 8 -2 15 1 6 14 15
16 10 -3 15 2 7 15 15
17 12 -5 16 3 8 16 16
17 13 -6 17 3 8 16 16
17 15 -7 17 3 8 16 16
17 17 -8 18 3 8 16 16
17 18 -9 18 3 8 16 16
18 18 -11 19 2 8 17 15
19 17 -12 18 2 8 18 15
20 16 -14 18 2 9 19 15
21 15 -16 17 2 9 20 15
21 14 -17 17 2 9 20 15
23 14 -19 18 2 10 20 15
25 17 -21 21 1 9 19 14
27 19 -23 23 0 9 18 13
29 21 -25 26 -2 8 17 11
31 23 -27 29 -3 8 16 10
32 24 -28 35 -3 7 16 9
32 25 -27 42 -2 8 17 9
32 25 -27 49 0 9 19 10
32 26 -26 55 2 10 21 10
32 26 -26 62 3 11 22 10
33 26 -24 63 4 12 22 10
33 25 -22 63 3 11 21 9
34 23 -20 63 2 10 20 8
34 21 -19 63 1 9 19 7
34 20 -17 63 1 8 18 6
34 18 -16 62 0 7 16 4
33 17 -15 63 0 6 15 1
31 16 -14 63 0 5 14 -2
29 15 -13 64 0 4 13 -4
28 14 -13 64 0 3 12 -6
26 13 -10 65 -2 2 11 -7
23 12 -6 66 -2 2 11 -8
21 11 -3 67 0 2 10 -8
19 10 2 68 0 2 10 -9
17 9 5 68 0 2 10 -9
15 8 7 70 1 2 9 -10
14 8 9 71 2 2 9 -11
13 8 11 72 3 2 9 -12
11 8 13 73 4 2 9 -13
10 8 15 74 4 2 9 -13
8 7 17 75 5 3 8 -14
5 6 19 75 5 3 7 -15
3 4 21 75 5 2 7 -15
0 2 22 75 5 2 6 -16
-3 1 24 75 5 2 6 -16
-5 -2 25 76 5 1 5 -17
-7 -3 25 75 5 1 5 -18
-9 -5 24 74 5 0 4 -19
-10 -7 24 73 5 0 4 -20
-12 -8 24 73 5 0 4 -20
-12 -8 23 72 4 -2 3 -21
-11 -7 24 72 4 -2 2 -22
-10 -5 24 72 4 0 1 -22
-8 -3 25 72 4 0 0 -23
-7 -2 25 72 4 0 0 -23
-6 0 26 70 5 1 -2 -24
-6 0 26 69 5 0 -2 -23
-6 0 25 68 4 -2 -2 -23
-6 0 25 66 4 -3 -2 -22
-6 0 25 65 4 -4 -2 -22
-8 -2 24 64 3 -5 -3 -20
-10 -3 24 63 3 -5 -3 -19
-12 -5 24 63 3 -5 -2 -18
-14 -7 24 62 3 -5 -2 -16
-16 -8 24 62 3 -5 -2 -15
-16 -9 24 61 2 -4 0 -14
-14 -8 24 61 2 -4 0 -13
-11 -7 24 60 2 -3 0 -12
-9 -6 24 60 2 -3 0 -11
-7 -5 24 60 2 -3 0 -10
-6 -5 24 59 3 -2 1 -9
-7 -6 24 58 3 -3 1 -8
-8 -8 24 58 2 -3 0 -8
-9 -10 24 57 2 -4 0 -7
-9 -11 24 57 2 -4 0 -7
-10 -11 23 56 1 -5 -2 -6
-10 -10 23 55 2 -5 -2 -4
-9 -8 23 55 2 -4 -2 -3
-9 -6 23 54 3 -4 -2 -2
-9 -5 23 54 3 -4 -2 0
-8 -4 22 53 4 -3 0 1
-8 -4 22 52 4 -3 0 2
-9 -3 23 52 4 -3 0 2
-9 -3 23 51 4 -3 0 3
-9 -3 23 51 4 -3 0 3
-10 -2 24 50 3 -2 0 5
-10 -2 24 50 4 -2 0 7
-10 -2 24 49 4 -2 0 9
-10 -2 24 49 5 -2 0 11
-10 -2 24 49 5 -2 0 13
-11 -3 23 48 6 0 1 14
-10 -2 23 47 6 -2 1 14
-10 -2 22 46 5 -2 1 14
-9 0 22 45 5 -3 1 14
-9 0 22 44 5 -3 1 14
-8 1 21 43 4 -4 1 15
-8 2 21 43 5 -3 2 17
-9 2 21 43 6 -2 2 20
-9 3 21 43 7 0 3 22
-9 3 21 43 7 1 3 24
-10 4 22 42 8 2 4 25
-10 2 23 42 8 2 4 26
-10 1 23 42 9 2 4 26
-10 0 24 42 9 2 4 27
-10 -2 24 42 9 2 4 27
-11 -3 25 40 10 3 4 28
-12 -3 24 38 10 3 4 29
-13 -3 24 37 9 3 4 30
-14 -3 23 36 9 3 4 31
-15 -3 23 35 9 3 4 31
-16 -3 22 34 8 2 4 32
-16 0 22 34 8 2 4 33
-15 1 22 34 8 2 4 34
-15 2 22 34 8 2 4 35
-15 3 22 34 8 2 4 36
-14 3 23 33 8 3 4 37
-14 1 22 32 7 2 3 37
-14 0 21 31 7 1 3 37
-14 -3 20 29 6 0 2 37
-14 -5 19 28 6 0 2 37
-13 -6 18 27 5 -2 1 37
-12 -4 18 28 5 -2 1 36
-11 -3 18 28 5 -2 1 35
-10 -2 18 29 5 -2 1 34
-10 0 18 29 5 -2 1 34
-10 1 18 30 5 0 1 33
-11 1 18 30 5 0 1 33
-12 1 17 30 5 0 0 33
-14 1 17 30 5 0 0 33
-15 1 17 30 5 0 0 33
-15 0 16 29 5 0 -2 33
-14 0 16 29 5 0 -2 32
-12 0 16 29 5 0 -2 31
-10 0 16 29 5 0 -2 30
-9 0 16 29 5 0 -2 30
-8 -2 16 29 5 0 -2 29
-8 -2 16 29 5 0 -2 29
-8 0 16 28 5 0 -2 29
-8 0 16 28 5 0 -2 29
-8 0 16 28 5 0 -2 29
-9 1 16 27 5 -2 -3 28
-9 1 16 27 5 -2 -2 28
-9 1 16 27 5 -2 -2 28
-9 1 16 27 5 -2 0 28
-9 1 16 27 5 -2 0 28
-8 1 16 26 6 0 1 28
-9 1 16 25 6 0 1 27
-10 0 16 25 5 -2 0 27
-10 0 16 24 5 -2 0 26
-11 0 16 24 5 -2 0 26
-12 -2 15 23 4 -3 -2 25
-12 -2 14 22 4 -3 -2 24
-12 -2 14 21 4 -3 -3 23
-12 -2 13 21 4 -3 -3 23
-12 -2 13 20 4 -3 -3 22
-11 0 12 19 3 -2 -4 21
-11 -2 12 19 3 -2 -4 20
-12 -3 12 19 2 -2 -4 19
-12 -3 12 19 2 -2 -4 19
-12 -4 12 19 2 -2 -4 18
-13 -5 12 18 1 -2 -5 17
-12 -5 12 17 1 -2 -6 16
-11 -5 12 17 1 -2 -7 15
-10 -5 12 16 1 -2 -7 15
-9 -5 12 16 1 -2 -8 14
-8 -4 13 15 0 -3 -8 13
-9 -2 15 16 1 -3 -7 14
-10 0 16 16 1 -3 -6 15
-11 1 17 17 2 -3 -4 16
-12 2 18 17 2 -3 -3 17
-12 4 19 18 3 -2 -2 18
-10 6 19 18 4 1 -2 18
-8 8 19 18 5 2 -2 18
-5 11 19 18 5 3 -2 18
-3 13 19 18 6 4 -2 18
-3 14 19 17 7 5 -2 18
-5 14 21 18 9 6 0 18
-6 14 22 18 10 7 1 19
-8 14 23 19 11 7 3 19
-10 14 24 19 12 8 4 19
-9 13 25 20 13 9 5 20
-5 13 25 20 12 9 5 19
-2 14 24 20 12 9 5 18
3 14 24 20 11 9 5 17
6 14 24 20 11 9 5 16
8 15 21 21 10 9 4 15
7 16 19 19 11 9 4 16
7 16 16 18 11 9 5 16
6 17 13 17 12 9 5 17
6 17 10 16 12 9 5 17
4 17 9 15 12 9 6 17
3 15 9 13 11 8 5 15
1 14 9 12 9 7 5 13
0 12 9 10 8 7 4 11
-3 10 9 9 6 6 4 9
-4 8 8 7 5 5 3 8
-3 7 7 5 4 3 1 6
-2 5 5 3 3 2 0 5
-2 4 4 1 3 1 -3 4
0 2 2 -2 2 0 -4 3
1 1 1 -3 1 -2 -5 2
0 1 2 -3 1 -2 -5 2
-2 1 2 -3 1 -2 -5 1
-2 1 3 -3 1 -2 -5 1
-3 1 3 -3 1 -2 -5 1
-4 2 4 -3 0 0 -5 -2
-5 2 4 -4 -2 0 -6 -3
-5 3 4 -5 -3 -2 -6 -5
-6 3 4 -5 -3 -2 -7 -6
-6 3 4 -6 -4 -2 -7 -8
-7 3 4 -7 -5 -3 -8 -9
-7 2 4 -7 -5 -4 -8 -9
-8 0 4 -8 -6 -4 -8 -10
-8 -2 4 -8 -6 -5 -8 -10
-8 -4 4 -8 -6 -5 -8 -10
-9 -5 3 -9 -7 -6 -7 -11
-9 -6 3 -9 -7 -6 -7 -11
-10 -7 4 -9 -7 -6 -7 -11
-10 -8 4 -9 -7 -6 -7 -11
-10 -9 4 -9 -7 -6 -7 -11
-11 -10 5 -9 -6 -5 -6 -11
-11 -10 5 -10 -6 -5 -6 -10
-11 -10 5 -11 -6 -5 -6 -8
-11 -10 5 -12 -6 -5 -6 -7
-11 -10 5 -13 -6 -5 -6 -5
-12 -9 4 -14 -7 -6 -7 -4
-12 -8 3 -14 -7 -6 -7 -3
-13 -7 3 -15 -7 -6 -7 -3
-13 -6 2 -15 -7 -6 -7 -2
-13 -5 2 -15 -7 -6 -7 -2
-14 -4 2 -16 -6 -6 -8 1
-14 -4 3 -14 -6 -6 -8 3
-14 -5 5 -13 -5 -5 -7 5
-14 -5 6 -12 -5 -5 -7 8
-14 -5 8 -11 -5 -5 -7 10
-14 -5 12 -9 -3 -3 -6 11
-16 -3 17 -7 1 0 -5 12
-17 0 22 -5 3 1 -5 13
-18 3 27 -2 6 3 -4 14
-19 5 32 1 9 5 -4 15
-15 10 35 9 17 13 4 22
-6 17 37 21 29 24 14 31
4 24 38 33 42 35 24 40
13 30 40 46 54 47 33 50
22 37 43 58 66 58 44 59
40 51 31 59 74 68 55 66
64 66 11 54 79 78 67 74
89 82 -9 49 86 90 78 81
112 99 -29 43 92 100 91 90
137 114 -49 37 98 110 103 97
149 115 -68 26 95 108 103 96
156 107 -89 11 85 99 96 89
164 98 -109 -4 74 89 89 81
172 90 -129 -19 64 79 81 74
179 80 -149 -34 54 70 74 67
164 64 -150 -48 35 52 58 54
138 42 -141 -61 13 29 36 38
111 20 -132 -74 -10 8 15 23
85 -2 -122 -88 -33 -15 -7 8
58 -23 -113 -101 -56 -37 -27 -8
43 -31 -100 -100 -62 -45 -35 -14
33 -31 -86 -91 -58 -44 -35 -15
25 -31 -71 -80 -54 -41 -36 -16
16 -31 -57 -70 -50 -40 -37 -17
7 -31 -41 -61 -46 -38 -37 -18
2 -30 -33 -54 -41 -35 -36 -18
-2 -27 -28 -49 -37 -31 -33 -15
-6 -24 -22 -44 -32 -27 -29 -13
-9 -21 -17 -38 -28 -24 -26 -10
-12 -18 -11 -33 -24 -20 -23 -7
-15 -17 -8 -30 -22 -18 -21 -6
-17 -17 -7 -29 -21 -16 -21 -6
-19 -16 -5 -27 -19 -15 -21 -6
-22 -15 -3 -25 -18 -13 -21 -6
-24 -15 0 -23 -17 -12 -21 -6
-24 -14 1 -22 -16 -11 -20 -6
-21 -14 1 -22 -17 -12 -20 -6
-18 -13 1 -22 -18 -13 -20 -7
-15 -13 1 -22 -18 -13 -20 -7
-12 -13 1 -22 -19 -14 -20 -7
-11 -12 2 -23 -20 -15 -20 -8
-14 -12 2 -21 -19 -14 -19 -8
-16 -12 3 -20 -17 -12 -17 -8
-19 -12 3 -18 -16 -11 -16 -8
-22 -12 3 -17 -15 -10 -15 -8
-23 -11 4 -16 -14 -9 -14 -9
-24 -11 4 -16 -14 -9 -14 -10
-25 -10 5 -16 -15 -9 -15 -11
-26 -10 5 -16 -15 -9 -15 -11
-27 -10 5 -16 -15 -9 -15 -12
-27 -9 6 -17 -16 -10 -16 -13
-24 -8 6 -16 -16 -10 -16 -13
-21 -7 6 -15 -16 -9 -15 -13
-18 -6 6 -14 -16 -9 -15 -13
-15 -5 6 -13 -16 -9 -15 -13
-13 -4 7 -13 -15 -8 -14 -14
-12 -5 6 -14 -15 -9 -15 -15
-10 -6 5 -16 -15 -10 -16 -17
-9 -6 4 -17 -15 -11 -17 -19
-8 -7 3 -19 -15 -12 -18 -21
-9 -8 2 -20 -15 -13 -19 -21
-13 -9 2 -19 -15 -13 -19 -18
-17 -11 3 -18 -15 -12 -19 -15
-21 -12 3 -18 -15 -12 -19 -12
-25 -13 3 -17 -15 -12 -19 -10
-26 -13 4 -16 -15 -11 -18 -8
-23 -11 4 -17 -15 -11 -18 -7
-20 -9 3 -18 -16 -12 -18 -6
-17 -7 2 -18 -16 -12 -18 -6
-14 -5 2 -19 -16 -12 -18 -5
-13 -4 1 -20 -17 -13 -19 -4
-17 -5 1 -20 -17 -13 -19 -2
-20 -6 1 -20 -17 -12 -18 0
-23 -6 1 -20 -17 -11 -18 2
-26 -7 1 -20 -17 -11 -18 3
-25 -8 2 -20 -17 -10 -17 5
-20 -8 2 -20 -17 -10 -17 6
-15 -7 2 -20 -17 -10 -16 8
-10 -6 2 -20 -17 -10 -15 10
-5 -6 2 -20 -17 -10 -15 12
-4 -5 3 -19 -16 -9 -14 13
-6 -7 2 -19 -16 -9 -14 13
-9 -9 1 -19 -17 -10 -15 13
-11 -10 0 -19 -18 -11 -16 13
-14 -12 -2 -19 -18 -11 -16 13
-15 -12 -3 -20 -19 -12 -17 12
-14 -9 -3 -21 -19 -12 -17 13
-13 -7 -4 -22 -20 -12 -17 15
-13 -4 -5 -22 -20 -12 -17 16
-12 -2 -5 -23 -20 -12 -17 17
-11 1 -6 -24 -21 -11 -16 19
-11 1 -6 -22 -21 -11 -15 21
-11 1 -6 -20 -20 -10 -14 24
-11 1 -6 -19 -19 -9 -14 26
-11 1 -6 -17 -19 -9 -13 29
-9 1 -6 -16 -18 -8 -12 30
-6 1 -7 -17 -18 -8 -12 30
-3 0 -9 -18 -18 -8 -12 30
1 0 -10 -19 -18 -8 -12 30
3 0 -11 -20 -18 -8 -12 30
5 0 -12 -21 -18 -9 -11 32
4 2 -12 -21 -17 -8 -10 33
3 4 -13 -20 -16 -7 -9 35
3 6 -14 -20 -16 -6 -8 37
2 8 -14 -20 -15 -5 -7 39
2 9 -16 -19 -14 -4 -6 40
3 9 -17 -20 -15 -4 -6 39
5 10 -19 -21 -16 -4 -6 38
7 11 -21 -22 -16 -4 -6 38
9 11 -23 -23 -17 -4 -6 37
10 12 -24 -24 -18 -4 -7 36
10 12 -26 -24 -18 -4 -7 36
11 13 -28 -24 -17 -4 -6 36
12 14 -29 -24 -17 -4 -5 36
12 14 -31 -24 -17 -4 -5 36
14 15 -32 -24 -16 -3 -4 37
16 15 -33 -26 -16 -3 -4 37
18 16 -35 -28 -17 -3 -4 37
20 16 -36 -29 -18 -3 -4 37
22 16 -37 -31 -18 -3 -4 37
23 17 -38 -32 -19 -3 -3 37
25 17 -38 -32 -19 -2 -3 37
27 18 -38 -33 -19 0 -2 37
28 18 -38 -34 -19 0 -2 37
30 18 -38 -34 -19 1 -2 37
31 19 -37 -35 -18 2 0 37
31 19 -37 -35 -18 2 0 36
30 18 -36 -34 -18 1 0 34
30 17 -35 -34 -18 0 0 33
30 17 -35 -34 -18 0 0 32
29 15 -33 -32 -17 -2 -2 31
27 14 -32 -30 -16 -2 -2 30
25 12 -30 -27 -15 -2 -2 29
24 10 -28 -25 -15 -2 -2 28
22 8 -26 -23 -14 -2 -2 27
21 7 -25 -21 -13 0 -2 26
20 6 -23 -20 -13 0 -3 25
19 5 -21 -19 -13 -2 -4 24
19 5 -20 -19 -13 -3 -5 23
18 4 -18 -18 -13 -3 -6 22
17 3 -16 -16 -13 -4 -7 21
15 3 -13 -14 -13 -5 -9 19
13 3 -10 -11 -12 -6 -11 17
12 3 -7 -9 -12 -7 -12 16
10 3 -4 -7 -12 -8 -14 14
8 2 -2 -5 -11 -9 -15 13
4 1 1 -4 -11 -8 -14 13
1 -2 3 -3 -10 -7 -13 13
-4 -3 4 -3 -10 -7 -13 13
-7 -4 6 -2 -10 -6 -12 13
-9 -5 7 0 -9 -5 -11 12
-9 -5 8 1 -9 -5 -11 11
-9 -6 9 2 -9 -5 -11 10
-9 -6 10 2 -9 -5 -11 9
-9 -6 11 3 -9 -5 -11 8
-10 -7 12 4 -10 -5 -11 7
-10 -7 12 4 -10 -5 -11 7
-10 -7 13 5 -10 -6 -12 6
-10 -7 14 5 -10 -7 -13 5
-10 -7 14 5 -10 -7 -13 5
-9 -7 15 6 -11 -8 -14 4
-10 -7 15 6 -11 -8 -14 3
-11 -7 14 6 -11 -9 -15 2
-12 -7 13 6 -11 -9 -15 1
-13 -7 13 6 -11 -9 -15 0
-14 -8 12 6 -12 -10 -16 -2
-14 -8 12 6 -12 -10 -16 -2
-15 -7 12 7 -12 -9 -15 -3
-15 -7 12 7 -12 -9 -15 -3
-15 -7 12 7 -12 -9 -15 -3
-16 -6 13 8 -11 -8 -14 -4
-15 -6 12 7 -12 -8 -14 -5
-14 -7 11 6 -13 -9 -15 -6
-13 -8 11 5 -13 -10 -16 -7
-12 -8 10 4 -14 -10 -16 -8
-11 -9 9 3 -15 -11 -17 -9
-11 -9 10 5 -13 -10 -16 -8
-12 -8 11 7 -12 -9 -14 -7
-12 -8 12 9 -11 -9 -13 -6
-12 -8 13 11 -9 -8 -12 -5
-14 -7 14 12 -8 -7 -11 -4
-16 -8 14 11 -8 -7 -11 -5
-18 -9 13 10 -9 -8 -11 -6
-20 -10 13 10 -10 -9 -11 -7
-22 -11 13 9 -10 -9 -11 -8
-22 -12 12 8 -11 -10 -12 -9
-20 -12 12 8 -11 -10 -12 -9
-17 -11 12 8 -10 -9 -11 -9
-15 -10 12 8 -9 -8 -11 -9
-13 -10 12 8 -9 -8 -11 -9
-11 -9 12 9 -8 -7 -10 -10
-11 -9 12 9 -8 -7 -10 -11
-10 -8 12 9 -8 -8 -10 -12
-9 -7 12 9 -8 -8 -10 -12
-9 -7 12 9 -8 -8 -10 -13
-8 -6 12 9 -9 -9 -11 -14
-9 -5 13 10 -8 -9 -10 -14
-10 -4 15 11 -7 -8 -9 -13
-11 -4 16 12 -6 -7 -9 -12
-12 -3 17 13 -5 -7 -8 -12
-13 -2 18 14 -4 -6 -7 -11
-13 -2 18 14 -4 -6 -7 -10
-13 -3 17 13 -5 -7 -8 -8
-13 -3 17 12 -5 -7 -8 -7
-13 -3 17 12 -5 -7 -8 -6
-12 -4 16 11 -6 -8 -9 -5
-13 -5 16 11 -6 -8 -9 -3
-14 -6 17 12 -5 -7 -8 -2
-14 -6 17 13 -5 -6 -8 0
-15 -7 17 13 -5 -6 -8 2
-16 -8 18 14 -4 -5 -7 3
-15 -7 18 14 -4 -5 -7 4
-14 -6 18 15 -3 -5 -6 5
-14 -6 18 15 -3 -5 -6 5
-13 -5 18 15 -3 -5 -6 6
-12 -4 19 16 -2 -4 -5 7
-13 -4 19 16 -2 -4 -4 9
-13 -4 19 17 -2 -4 -4 10
-14 -4 19 18 -2 -4 -3 12
-15 -4 19 18 -2 -4 -2 14
-16 -5 19 19 -2 -5 0 15
-16 -5 19 19 -2 -5 0 15
-16 -5 19 19 -2 -5 0 15
-16 -5 19 19 -2 -5 0 16
-16 -5 19 19 -2 -5 0 16
-15 -5 18 19 0 -5 -2 17
-15 -5 17 19 -2 -6 -3 18
-15 -5 16 19 -3 -6 -4 18
-14 -5 15 18 -4 -7 -5 19
-14 -5 14 18 -5 -8 -6 20
-13 -4 13 17 -6 -9 -7 21
-13 -4 13 18 -5 -9 -7 21
-13 -3 14 18 -5 -8 -7 21
-12 -2 15 19 -4 -7 -6 21
-12 -2 15 20 -3 -7 -6 21
-11 0 16 21 -2 -6 -5 22
-12 -2 16 21 -2 -6 -5 21
-13 -2 16 21 -2 -6 -5 20
-14 -3 15 20 -3 -6 -5 18
-15 -4 15 20 -3 -6 -5 17
-16 -5 14 19 -4 -6 -6 16
-15 -5 13 19 -4 -6 -6 16
-14 -5 13 19 -4 -6 -6 15
-13 -6 12 19 -4 -7 -6 14
-12 -6 11 19 -4 -7 -6 14
-11 -7 10 19 -4 -8 -7 13
-12 -7 10 19 -3 -8 -7 13
-13 -7 9 19 -2 -8 -6 13
-15 -6 8 20 0 -8 -5 14
-16 -6 8 20 1 -8 -5 14
-17 -5 7 21 2 -7 -4 15
-16 -6 7 21 2 -7 -4 14
-16 -7 7 21 2 -7 -4 13
-15 -8 8 21 1 -6 -4 11
-14 -9 8 21 1 -6 -4 10
-13 -10 9 21 0 -5 -5 9
-14 -10 8 20 -2 -5 -5 8
-15 -10 8 19 -2 -6 -5 8
-16 -10 7 18 -3 -7 -5 7
-17 -10 6 17 -4 -7 -5 6
-18 -11 5 16 -5 -8 -5 5
-16 -11 5 16 -5 -8 -5 5
-15 -10 5 17 -5 -8 -5 5
-14 -9 5 18 -5 -8 -5 5
-12 -9 5 18 -5 -8 -5 5
-11 -8 6 19 -4 -8 -5 4
-13 -8 6 19 -4 -8 -5 4
-14 -8 6 19 -4 -8 -5 4
-15 -8 7 19 -3 -8 -5 5
-17 -8 7 19 -3 -8 -5 5
-18 -8 8 19 -2 -7 -4 6
-18 -7 8 19 -2 -7 -4 7
-18 -6 8 19 -2 -7 -4 8
-18 -5 8 19 -2 -7 -4 9
-18 -4 8 19 -2 -7 -4 10
-17 -3 7 20 -3 -7 -4 11
-15 -3 7 20 -3 -7 -4 11
-14 -4 7 19 -3 -7 -4 11
-13 -5 7 18 -3 -7 -4 11
-11 -5 7 18 -3 -7 -4 11
-11 -6 7 17 -4 -8 -4 10
-14 -6 8 18 -3 -7 -4 12
-17 -6 9 19 -2 -6 -3 13
-21 -6 11 21 0 -4 -2 14
-24 -6 12 22 1 -3 -2 16
-25 -5 13 23 2 -2 0 17
-21 -3 15 25 2 -2 0 17
-18 -2 16 26 3 -2 0 17
-14 1 17 28 4 0 1 17
-11 3 19 30 4 0 1 17
-8 4 20 31 5 1 2 17
-8 5 20 31 5 1 2 17
-8 6 21 31 6 1 2 17
-8 8 22 31 7 2 2 17
-8 9 22 31 7 2 2 17
-7 10 23 32 8 3 1 18
-7 10 23 32 8 3 1 18
-7 10 23 33 9 3 1 17
-7 10 24 34 10 4 1 16
-7 10 24 34 10 4 1 16
-8 9 25 35 11 5 2 15
-6 10 23 35 11 5 3 15
-5 10 22 35 11 6 4 15
-3 11 21 34 11 7 5 15
0 12 19 34 11 7 6 15
1 13 18 32 12 8 7 16
0 13 16 29 11 8 7 16
0 12 15 25 11 7 6 15
-2 11 13 22 10 6 5 14
-3 11 11 18 9 6 5 14
-4 10 10 15 8 5 4 13
-5 8 10 13 7 5 4 12
-6 7 10 11 6 4 3 11
-7 5 10 8 4 3 2 10
-8 3 10 6 3 3 2 9
-9 2 9 4 2 2 1 8
-8 2 9 4 2 1 1 7
-8 2 9 4 2 1 1 7
-7 2 10 4 2 0 0 6
-6 2 10 4 2 -2 0 5
-6 1 11 3 3 -3 -2 4
-10 -2 11 3 3 -3 -2 3
-13 -4 11 3 3 -3 -2 2
-17 -6 11 2 2 -3 -3 1
-20 -7 11 2 2 -3 -3 0
-23 -9 12 1 1 -2 -4 -2
-23 -9 12 1 0 -3 -4 -3
-22 -10 12 0 0 -3 -5 -4
-21 -11 11 -2 -2 -4 -6 -5
-21 -11 11 -2 -3 -5 -6 -6
-20 -12 10 -3 -4 -6 -7 -7
-19 -12 10 -3 -4 -6 -7 -7
-19 -13 10 -3 -4 -6 -7 -7
-18 -14 10 -4 -4 -6 -7 -8
-17 -14 10 -4 -4 -6 -7 -8
-16 -15 10 -5 -3 -7 -7 -9
-18 -15 10 -5 -3 -7 -7 -9
-20 -16 11 -5 -3 -7 -7 -8
-22 -17 12 -6 -2 -7 -6 -7
-23 -17 12 -6 -2 -7 -6 -7
-25 -18 13 -7 0 -6 -5 -6
-24 -17 13 -6 0 -6 -5 -4
-23 -16 13 -5 0 -5 -5 -2
-21 -14 13 -4 0 -4 -5 1
-20 -13 13 -3 0 -4 -5 3
-19 -12 13 -2 0 -3 -4 5
-20 -12 13 -3 0 -3 -4 5
-21 -12 13 -5 0 -3 -4 6
-22 -12 13 -6 1 -3 -3 7
-23 -12 13 -8 1 -3 -3 7
-24 -12 14 -9 2 -3 -2 8
-25 -11 18 -8 2 -3 -2 9
-25 -10 22 -7 2 -2 -2 10
-26 -9 26 -5 3 0 -2 11
-27 -8 30 -4 3 0 -2 12
-27 -5 34 2 7 4 1 15
-23 2 37 12 18 13 9 22
-19 7 42 23 28 21 16 29
-15 13 45 34 38 30 24 36
-11 19 48 46 49 39 31 44
1 27 49 55 58 49 40 51
22 39 40 60 66 59 51 57
45 52 32 65 74 69 62 63
67 63 25 71 82 79 72 69
89 75 17 76 91 89 84 76
109 84 3 77 95 96 91 80
128 87 -24 68 91 95 92 80
145 89 -51 58 87 93 93 79
163 92 -77 49 81 92 95 78
182 94 -103 38 77 90 96 78
185 88 -120 26 65 79 89 71
163 63 -122 9 40 55 65 54
141 38 -123 -10 15 30 43 37
118 14 -126 -27 -10 6 19 20
96 -11 -127 -46 -35 -19 -4 3
75 -27 -122 -55 -52 -35 -19 -9
57 -30 -106 -48 -50 -35 -20 -10
38 -33 -90 -40 -48 -35 -21 -12
20 -36 -72 -33 -46 -35 -22 -13
2 -39 -56 -26 -45 -35 -23 -15
-11 -41 -43 -19 -41 -35 -24 -16
-12 -37 -34 -11 -36 -30 -23 -13
-13 -34 -26 -4 -31 -26 -22 -11
-15 -30 -18 4 -26 -22 -20 -8
-16 -26 -10 12 -21 -17 -19 -6
-17 -23 -5 18 -17 -14 -18 -4
-17 -21 -2 20 -15 -12 -15 -4
-17 -18 1 23 -13 -10 -13 -4
-17 -16 4 26 -11 -8 -10 -4
-17 -14 6 29 -10 -6 -8 -4
-18 -12 8 31 -8 -4 -6 -3
-19 -12 8 32 -7 -4 -6 -2
-19 -12 8 33 -6 -4 -6 0
-20 -13 8 34 -5 -4 -6 1
-21 -13 8 35 -4 -4 -6 2
-22 -14 8 36 -3 -3 -5 3
-22 -13 8 39 -3 -3 -5 3
-22 -13 8 43 -3 -3 -5 2
-22 -12 9 46 -2 -2 -4 1
-22 -11 9 49 -2 -2 -4 1
-22 -10 10 51 0 0 -3 0
-21 -10 9 50 -2 -2 -4 -2
-21 -10 8 49 -4 -3 -5 -2
-20 -10 6 48 -5 -4 -7 -3
-19 -10 5 47 -7 -5 -8 -4
-18 -11 4 46 -8 -6 -9 -5
-20 -11 5 47 -7 -5 -8 -5
-22 -11 5 48 -7 -5 -8 -4
-24 -11 6 49 -6 -4 -7 -3
-25 -11 7 50 -5 -3 -6 -3
-27 -10 8 51 -4 -2 -5 -2
-28 -10 8 51 -4 -2 -4 -2
-28 -10 8 51 -4 -2 -4 -3
-29 -10 8 51 -4 0 -3 -4
-30 -10 8 51 -4 0 -2 -4
-30 -10 7 51 -3 1 0 -5
-27 -9 7 51 -3 1 0 -5
-24 -8 7 51 -3 2 1 -5
-21 -7 7 52 -2 3 2 -5
-18 -6 7 52 -2 3 2 -5
-16 -5 8 53 0 4 3 -4
-17 -6 8 53 0 4 3 -4
-17 -7 7 53 -2 3 3 -4
-18 -8 7 53 -2 3 3 -5
-19 -9 6 53 -3 2 3 -5
-20 -10 5 52 -4 1 3 -6
-20 -10 4 52 -4 1 3 -7
-20 -10 4 51 -5 1 2 -8
-21 -10 3 51 -5 1 2 -9
-21 -10 2 50 -6 1 1 -10
-22 -11 1 49 -7 0 0 -11
-22 -11 1 49 -7 0 0 -11
-22 -11 1 49 -7 0 0 -11
-21 -11 0 49 -8 0 0 -11
-21 -11 0 49 -8 0 0 -11
-20 -11 -2 50 -9 -2 0 -12
-19 -10 -2 51 -9 -2 1 -12
-17 -9 -2 52 -8 0 2 -12
-16 -8 0 53 -8 0 3 -12
-14 -6 0 55 -7 1 4 -12
-13 -5 1 56 -6 2 5 -12
-13 -5 1 55 -6 2 5 -12
-13 -6 1 55 -6 2 5 -12
-14 -6 0 54 -6 2 5 -12
-14 -7 0 53 -6 2 5 -12
-15 -8 -2 52 -7 2 5 -13
-12 -7 -4 52 -7 2 5 -13
-9 -5 -5 52 -7 2 5 -13
-7 -4 -7 52 -7 3 6 -14
-4 -2 -8 52 -7 3 6 -14
-2 0 -10 52 -8 4 7 -15
-5 0 -10 52 -8 4 8 -15
-8 0 -10 52 -8 4 8 -14
-10 0 -10 52 -8 5 9 -14
-13 0 -10 52 -8 5 10 -13
-14 0 -9 53 -7 6 11 -12
-10 1 -10 52 -7 6 11 -9
-6 3 -10 50 -7 6 11 -6
-2 4 -11 49 -7 6 12 -3
3 6 -12 47 -7 6 12 1
6 7 -13 46 -8 6 13 3
6 7 -16 44 -8 6 13 4
6 8 -18 40 -8 6 13 4
7 8 -20 38 -9 6 13 5
7 9 -23 36 -9 6 13 6
8 10 -25 34 -10 7 14 7
8 10 -26 32 -10 8 14 7
9 10 -28 30 -10 9 15 6
9 11 -29 29 -10 10 15 6
10 11 -31 27 -10 11 16 5
11 12 -32 25 -11 12 17 4
13 12 -33 24 -11 11 18 4
15 13 -34 22 -11 10 19 4
16 13 -35 21 -11 9 20 4
18 14 -37 19 -11 8 21 4
20 15 -38 18 -12 7 22 3
21 16 -38 18 -12 8 22 3
22 16 -38 18 -11 9 22 3
23 17 -38 17 -11 10 23 3
25 18 -38 17 -10 12 23 3
26 19 -37 16 -9 13 24 4
26 19 -39 19 -9 13 24 3
26 19 -40 21 -9 12 24 1
27 18 -43 24 -9 12 23 0
27 18 -44 27 -9 11 23 -2
28 17 -46 29 -10 10 22 -4
28 16 -44 32 -10 10 22 -5
28 15 -41 34 -10 9 22 -5
28 14 -40 37 -11 9 21 -6
28 12 -38 40 -11 8 21 -7
28 11 -36 43 -12 7 20 -8
28 10 -35 43 -12 6 19 -10
28 9 -35 44 -13 5 17 -13
27 8 -34 44 -13 4 16 -15
27 7 -33 45 -14 2 15 -17
25 6 -31 46 -15 1 13 -19
20 5 -27 48 -13 3 14 -19
14 3 -22 50 -10 5 15 -18
9 2 -18 51 -8 6 16 -18
3 1 -14 53 -6 8 18 -17
-2 -2 -10 55 -4 10 19 -16
-2 -3 -10 55 -4 9 18 -18
-2 -3 -10 54 -4 8 17 -20
0 -4 -9 54 -4 7 16 -22
0 -5 -9 53 -4 5 15 -24
1 -6 -8 52 -5 4 14 -26
-2 -7 -7 51 -5 4 14 -25
-4 -7 -6 51 -5 4 14 -23
-6 -8 -5 50 -5 4 15 -22
-8 -9 -3 49 -5 4 15 -21
-10 -10 -2 48 -4 4 16 -19
-10 -10 -2 46 -4 4 16 -19
-10 -10 -2 44 -4 4 16 -19
-10 -10 -3 43 -5 3 16 -19
-10 -10 -3 40 -5 3 16 -19
-9 -11 -4 38 -6 2 16 -18
-11 -11 -3 38 -6 2 16 -17
-13 -12 -2 37 -6 2 17 -16
-16 -12 0 37 -5 2 17 -15
-18 -13 1 36 -5 2 18 -14
-20 -14 2 35 -4 3 19 -13
-18 -13 2 34 -4 3 19 -11
-16 -12 2 33 -4 3 19 -10
-14 -11 2 32 -4 3 18 -8
-12 -9 2 30 -4 3 18 -7
-10 -8 1 29 -5 2 17 -5
-10 -8 1 27 -5 2 17 -5
-9 -8 1 26 -5 2 18 -5
-9 -8 1 24 -5 3 18 -4
-8 -8 1 23 -5 3 19 -4
-7 -8 0 21 -5 4 20 -3
-7 -8 0 20 -5 4 19 -2
-7 -9 -2 18 -5 3 18 0
-6 -10 -2 16 -5 3 17 1
-6 -11 -3 15 -5 2 16 2
-5 -12 -4 13 -5 1 15 3
-6 -12 -4 12 -5 1 15 3
-8 -11 -4 11 -5 1 16 3
-10 -10 -4 10 -5 1 16 3
-11 -9 -4 8 -5 1 17 3
-13 -8 -4 7 -4 0 18 2
-13 -8 -4 7 -4 0 18 4
-13 -9 -4 7 -4 1 18 6
-13 -10 -4 6 -4 2 18 8
-13 -11 -4 6 -4 3 18 10
-14 -12 -3 5 -3 4 19 12
-14 -12 -3 4 -3 4 19 13
-13 -11 -3 3 -3 4 19 14
-13 -11 -2 2 -4 4 19 15
-12 -10 -2 1 -4 4 19 17
-11 -9 0 0 -5 5 19 18
-11 -9 0 0 -5 5 19 18
-10 -8 0 0 -5 5 19 18
-10 -8 0 1 -4 5 20 19
-9 -7 0 1 -4 5 20 19
-8 -6 1 2 -3 5 21 20
-8 -5 1 2 -3 5 21 21
-8 -4 1 2 -2 5 22 23
-8 -3 1 2 0 6 22 24
-8 0 1 2 1 6 23 25
-8 1 1 2 2 7 24 27
-8 0 1 1 2 7 23 27
-8 -2 1 0 1 6 21 27
-8 -3 0 -2 0 6 19 28
-8 -5 0 -4 -2 5 18 28
-9 -6 -2 -5 -3 4 16 29
-9 -6 -2 -5 -3 4 16 28
-9 -6 -2 -5 -3 4 16 26
-8 -6 -2 -6 -3 4 16 25
-8 -6 -2 -6 -3 4 16 24
-7 -7 -2 -7 -4 3 16 22
-8 -7 -2 -7 -4 3 16 22
-9 -7 -2 -6 -4 3 17 22
-10 -6 -2 -6 -4 4 18 22
-12 -6 -2 -5 -4 4 19 22
-13 -5 0 -4 -3 5 20 21
-13 -4 1 -3 -3 5 20 21
-13 -3 3 0 -3 6 20 21
-12 -2 5 1 -3 6 20 21
-12 0 6 2 -3 7 20 21
-11 1 8 4 -2 8 21 21
-11 -2 8 4 -2 8 21 21
-11 -3 8 4 -2 7 21 21
-11 -5 9 3 -2 7 20 20
-11 -7 9 3 -2 6 20 20
-12 -9 10 2 -2 5 19 19
-12 -9 10 2 -2 5 19 19
-13 -8 10 2 -2 5 18 18
-13 -8 10 2 -2 5 18 18
-14 -7 10 2 -2 5 17 17
-15 -6 9 1 0 6 16 16
-13 -6 9 1 0 6 13 16
-12 -5 9 1 0 6 10 15
-10 -5 9 1 0 6 7 15
-8 -4 9 1 0 6 4 14
-6 -3 9 0 -2 5 1 13
-7 -3 9 -2 -2 5 1 13
-8 -3 9 -3 -3 5 1 13
-9 -3 9 -4 -3 4 1 13
-11 -3 9 -6 -4 4 1 13
-12 -3 10 -7 -5 3 0 12
-12 -3 10 -8 -5 3 0 11
-12 -3 10 -9 -5 3 -2 10
-11 -3 10 -10 -5 3 -3 9
-11 -3 10 -12 -5 3 -4 8
-10 -2 9 -13 -5 3 -5 7
-10 -2 9 -13 -5 3 -5 7
-11 -2 9 -13 -5 3 -5 7
-12 -2 10 -13 -4 3 -5 7
-13 -2 10 -13 -4 3 -5 7
-14 -3 11 -14 -3 4 -5 6
-12 -3 11 -15 -3 4 -5 6
-10 -3 11 -16 -4 4 -5 5
-8 -3 11 -17 -5 3 -5 5
-6 -3 11 -18 -6 3 -5 4
-4 -2 12 -19 -7 2 -4 3
-7 -4 12 -19 -7 1 -5 1
-10 -6 11 -19 -7 0 -7 0
-12 -8 10 -20 -8 -2 -8 -3
-15 -11 9 -20 -8 -3 -9 -5
-18 -13 8 -21 -9 -4 -11 -7
-17 -11 8 -21 -8 -3 -11 -7
-15 -8 9 -20 -7 0 -10 -7
-13 -6 9 -20 -6 1 -10 -7
-12 -3 10 -19 -5 2 -9 -7
-10 0 11 -18 -4 4 -8 -7
-9 0 13 -17 -3 4 -7 -6
-7 0 14 -16 -2 5 -5 -4
-6 1 16 -15 0 6 -4 -3
-5 1 18 -14 2 7 -3 -2
-3 2 20 -13 3 8 0 1
-6 2 20 -13 3 8 0 0
-8 3 20 -13 3 8 0 -2
-11 3 20 -13 3 8 0 -3
-13 4 20 -13 3 8 0 -4
-16 5 19 -14 4 9 1 -6
-15 5 19 -14 4 9 1 -6
-13 5 20 -14 4 9 1 -6
-11 5 20 -14 4 9 1 -6
-10 5 21 -14 4 9 1 -6
-8 6 22 -14 3 10 1 -7
-5 8 21 -14 3 10 1 -7
-2 11 20 -14 3 10 2 -7
1 13 19 -14 4 10 2 -7
4 15 18 -14 4 10 3 -7
7 18 17 -13 5 11 4 -7
7 17 14 -14 4 10 3 -8
8 15 12 -16 2 9 1 -10
8 14 9 -17 0 8 0 -12
9 13 7 -18 -2 7 -2 -13
10 11 4 -20 -4 5 -4 -15
8 8 4 -20 -4 5 -4 -15
5 5 4 -20 -5 5 -4 -16
3 3 4 -19 -6 4 -4 -17
1 0 4 -19 -7 4 -4 -18
-3 -4 4 -18 -8 3 -3 -19
-3 -4 5 -17 -8 3 -3 -19
-3 -3 6 -16 -7 3 -3 -20
-3 -2 7 -15 -7 3 -3 -20
-3 0 8 -14 -6 3 -3 -21
-3 1 9 -13 -5 2 -4 -22
-4 1 9 -13 -5 2 -4 -22
-5 0 9 -13 -5 2 -5 -22
-6 0 9 -13 -6 2 -6 -21
-7 -2 9 -13 -6 2 -7 -21
-9 -3 9 -12 -7 1 -8 -20
-9 -3 9 -12 -7 0 -8 -19
-9 -3 8 -12 -7 -2 -8 -18
-8 -4 8 -13 -8 -3 -9 -17
-8 -4 7 -13 -8 -4 -9 -16
-7 -5 6 -14 -9 -5 -10 -15
-8 -6 6 -14 -9 -5 -10 -15
-10 -7 6 -14 -9 -5 -10 -15
-12 -9 6 -14 -9 -5 -10 -14
-13 -10 6 -14 -9 -5 -10 -14
-15 -12 5 -14 -9 -6 -10 -13
-13 -12 5 -13 -9 -6 -10 -13
-11 -12 5 -12 -9 -6 -10 -12
-9 -11 6 -11 -9 -5 -10 -11
-7 -11 6 -10 -9 -5 -10 -10
-5 -10 7 -9 -9 -4 -9 -9
-6 -8 7 -8 -9 -4 -8 -7
-7 -6 7 -7 -8 -4 -7 -6
-8 -4 7 -5 -8 -4 -6 -4
-9 -2 7 -4 -7 -4 -5 -2
-10 1 7 -2 -6 -3 -3 1
-10 0 7 -2 -6 -3 -3 2
-10 -2 7 -2 -6 -3 -3 3
-10 -3 6 -2 -7 -2 -4 4
-10 -4 6 -2 -7 -2 -4 5
-10 -5 5 -2 -8 0 -5 6
-10 -4 10 4 -7 0 -5 7
-11 -3 14 8 -5 0 -4 8
-11 -2 19 13 -4 0 -4 9
-12 0 23 17 -2 0 -3 10
-13 2 28 22 1 1 -2 11
-13 5 31 30 7 5 2 14
-13 8 34 38 13 10 5 17
-13 11 37 47 19 14 8 20
-13 14 42 55 24 19 12 23
-10 18 45 62 31 24 16 26
10 31 37 69 44 37 29 35
30 45 31 75 57 51 43 44
50 57 24 82 69 64 56 53
70 70 17 90 81 77 69 61
90 82 9 95 94 90 81 69
109 91 -16 86 94 93 89 73
129 98 -40 75 94 97 97 77
147 105 -65 66 94 101 104 82
167 113 -90 56 94 104 111 87
183 118 -112 45 92 106 116 89
168 92 -118 24 64 78 91 69
152 66 -124 4 36 51 65 49
137 39 -131 -18 9 23 40 29
121 14 -137 -38 -19 -5 15 9
106 -11 -142 -58 -45 -30 -9 -10
86 -14 -126 -54 -47 -32 -13 -12
66 -16 -110 -50 -49 -35 -17 -15
47 -19 -94 -45 -51 -37 -21 -18
27 -22 -78 -40 -54 -39 -25 -20
9 -25 -63 -36 -56 -43 -29 -23
8 -26 -53 -26 -52 -40 -26 -21
6 -27 -43 -17 -48 -38 -23 -19
4 -29 -33 -8 -44 -36 -20 -17
2 -30 -23 2 -38 -33 -16 -15
0 -32 -14 11 -34 -31 -13 -13
0 -29 -11 14 -29 -27 -12 -13
-2 -26 -7 17 -25 -24 -11 -13
-3 -23 -3 20 -20 -20 -10 -12
-4 -19 1 23 -16 -16 -9 -12
-5 -16 5 26 -11 -12 -8 -11
-6 -16 5 28 -10 -11 -7 -11
-7 -15 6 31 -9 -10 -6 -11
-9 -15 7 33 -8 -9 -5 -11
-10 -14 8 35 -7 -8 -4 -11
-12 -13 9 38 -6 -6 -2 -10
-12 -13 9 37 -6 -7 -2 -11
-12 -13 8 35 -7 -8 -3 -13
-13 -13 8 33 -7 -9 -4 -14
-13 -13 7 31 -8 -10 -5 -16
-14 -12 6 29 -9 -11 -6 -18
-14 -12 6 26 -9 -11 -5 -18
-15 -11 6 23 -8 -10 -4 -18
-15 -11 7 20 -7 -10 -3 -17
-16 -10 7 17 -6 -9 -2 -17
-17 -9 8 14 -5 -8 0 -16
-16 -9 8 14 -5 -8 0 -16
-15 -9 8 15 -5 -8 0 -16
-14 -9 8 16 -4 -8 0 -17
-13 -9 8 17 -4 -8 0 -17
-11 -8 8 18 -3 -7 0 -18
-12 -8 8 18 -3 -7 1 -18
-14 -8 8 19 -2 -6 2 -18
-15 -8 8 20 -2 -6 3 -19
-17 -8 8 21 0 -5 4 -19
-19 -8 7 22 1 -4 5 -20
-18 -7 7 22 1 -5 5 -21
-16 -6 7 22 0 -6 4 -22
-15 -5 7 22 -2 -7 3 -23
-13 -4 7 22 -3 -8 2 -24
-11 -2 6 21 -4 -9 1 -26
-11 -2 6 21 -4 -9 1 -26
-11 -2 6 22 -4 -9 1 -26
-10 -2 6 22 -4 -8 2 -26
-10 -2 6 23 -4 -8 2 -26
-9 -3 5 24 -3 -7 3 -27
-9 -4 5 24 -3 -7 3 -27
-10 -5 5 24 -3 -7 3 -27
-11 -7 4 24 -4 -7 3 -26
-12 -8 4 24 -4 -7 3 -26
-13 -10 3 24 -5 -8 3 -25
-11 -9 3 25 -5 -8 4 -23
-9 -7 3 26 -5 -8 5 -20
-7 -5 4 28 -4 -7 6 -18
-5 -3 4 29 -4 -7 7 -15
-2 0 5 31 -3 -6 9 -12
-3 0 5 31 -3 -7 8 -12
-4 0 5 30 -4 -8 7 -12
-5 0 5 29 -5 -9 6 -13
-6 0 5 28 -6 -10 5 -13
-7 -2 4 27 -7 -11 4 -14
-7 -2 4 27 -7 -11 4 -12
-7 -2 3 28 -7 -10 4 -10
-7 -2 3 28 -7 -9 4 -8
-7 -2 2 29 -7 -8 4 -6
-6 0 1 30 -6 -7 5 -4
-6 0 1 29 -6 -7 5 -4
-6 1 1 28 -6 -7 6 -4
-6 1 0 27 -5 -7 7 -3
-6 2 0 26 -5 -7 8 -3
-6 3 -2 25 -4 -6 9 -2
-2 4 -2 22 -4 -6 7 0
3 5 -3 19 -4 -6 5 1
7 6 -3 16 -4 -5 2 2
11 7 -4 13 -4 -5 0 3
15 8 -5 9 -3 -4 -4 5
12 8 -7 6 -3 -4 -6 6
8 7 -9 2 -3 -4 -8 7
5 7 -12 -2 -3 -3 -10 9
1 6 -14 -6 -3 -3 -12 10
-4 5 -17 -10 -4 -2 -14 12
2 7 -18 -13 -4 -2 -14 13
7 9 -19 -16 -4 -2 -14 15
12 12 -20 -19 -4 -2 -14 16
17 14 -21 -22 -4 -2 -14 18
22 17 -22 -26 -3 0 -15 20
21 16 -23 -27 -3 1 -14 21
20 15 -24 -28 -2 2 -12 22
19 14 -26 -30 -2 3 -11 23
18 13 -27 -31 0 4 -9 24
17 11 -29 -33 1 6 -7 25
18 11 -31 -34 0 6 -7 24
19 12 -33 -36 -2 6 -7 23
20 12 -35 -37 -3 6 -6 21
21 13 -37 -39 -4 6 -6 20
22 14 -39 -41 -5 6 -5 18
25 16 -39 -41 -5 6 -5 18
29 18 -39 -41 -5 6 -5 18
32 20 -39 -43 -5 6 -5 18
36 22 -39 -43 -5 6 -5 18
40 24 -40 -44 -6 6 -5 17
38 23 -40 -44 -6 6 -5 16
36 21 -41 -43 -6 6 -5 15
34 19 -41 -43 -6 6 -4 14
32 17 -43 -41 -6 6 -4 13
30 15 -44 -40 -5 7 -3 12
31 15 -43 -39 -5 7 -4 11
32 15 -40 -38 -5 6 -5 9
33 15 -39 -37 -5 6 -6 7
34 15 -37 -36 -5 5 -7 5
36 15 -35 -34 -5 4 -9 3
36 14 -33 -33 -4 4 -9 2
36 13 -31 -32 -3 4 -9 0
36 12 -28 -31 -2 4 -8 -2
36 11 -26 -30 0 4 -8 -4
35 9 -23 -29 1 4 -7 -6
31 9 -20 -28 1 4 -7 -7
26 9 -17 -27 1 3 -8 -8
22 8 -14 -25 1 3 -9 -9
17 8 -12 -24 1 2 -10 -9
13 8 -9 -23 1 2 -10 -10
11 7 -7 -22 0 1 -12 -12
9 6 -5 -21 0 0 -13 -14
8 5 -4 -20 0 0 -14 -16
6 4 -2 -19 0 -2 -15 -18
5 3 0 -18 0 -2 -16 -20
4 2 1 -18 0 -3 -17 -21
4 2 2 -19 1 -2 -17 -21
3 2 3 -21 1 -2 -16 -21
3 2 4 -22 2 0 -16 -21
3 2 4 -23 2 0 -16 -21
2 2 5 -24 3 1 -15 -22
1 1 5 -25 3 0 -15 -23
0 0 4 -26 3 0 -16 -24
-2 -2 4 -27 3 -2 -16 -25
-3 -2 4 -28 3 -2 -16 -26
-5 -4 3 -29 2 -3 -17 -27
-7 -5 4 -29 1 -3 -17 -27
-9 -7 5 -29 0 -4 -17 -26
-11 -8 6 -29 -2 -4 -17 -26
-12 -9 7 -29 -2 -4 -17 -26
-11 -9 8 -30 -2 -5 -16 -24
-9 -7 8 -29 0 -4 -15 -22
-6 -5 7 -28 1 -3 -15 -20
-4 -3 7 -27 2 -2 -14 -18
-2 0 7 -26 3 0 -14 -17
0 1 6 -25 4 1 -13 -16
-2 0 7 -25 3 0 -13 -15
-2 -2 8 -25 3 -2 -13 -15
-3 -3 9 -25 2 -3 -13 -14
-3 -3 9 -25 2 -3 -13 -14
-4 -4 10 -25 1 -4 -14 -13
-4 -4 9 -24 1 -4 -14 -13
-5 -4 9 -24 1 -4 -14 -12
-5 -4 8 -23 1 -4 -14 -12
-5 -4 8 -23 1 -4 -14 -12
-6 -5 7 -22 2 -3 -13 -11
-7 -6 8 -22 2 -3 -13 -11
-8 -7 9 -22 2 -3 -14 -10
-9 -8 10 -22 2 -3 -14 -10
-10 -9 10 -22 2 -3 -14 -10
-10 -10 11 -21 1 -4 -15 -7
-9 -9 11 -21 2 -3 -14 -5
-7 -9 10 -20 2 -3 -13 -3
-6 -8 10 -20 3 -2 -12 0
-5 -8 10 -20 3 -2 -12 2
-4 -7 9 -20 4 0 -11 3
-4 -6 10 -21 4 0 -11 4
-4 -5 11 -22 5 0 -11 5
-4 -4 12 -23 5 0 -11 6
-4 -3 12 -24 5 0 -11 7
-4 -2 13 -26 6 1 -10 8
-6 0 13 -28 6 1 -10 9
-8 0 13 -29 5 1 -10 10
-10 1 13 -31 5 1 -10 11
-12 1 13 -32 5 1 -10 11
-13 2 14 -33 5 2 -9 14
-12 2 14 -33 6 3 -8 16
-11 1 15 -33 8 4 -7 19
-10 1 15 -33 9 5 -6 21
-10 1 15 -33 10 6 -5 23
-9 0 16 -34 11 7 -4 24
-9 0 16 -33 11 7 -4 24
-9 0 16 -33 10 6 -4 25
-9 0 16 -32 10 6 -4 25
-9 0 16 -32 10 6 -4 25
-8 1 16 -31 9 5 -4 26
-7 1 15 -32 8 5 -4 26
-6 1 13 -33 7 4 -5 27
-5 1 12 -34 6 4 -5 27
-4 1 11 -34 6 4 -5 27
-3 1 11 -34 6 4 -5 30
-3 3 12 -33 7 6 -4 33
-4 4 13 -31 9 7 -2 36
-4 6 14 -30 10 9 0 39
-4 7 15 -29 11 10 1 42
-6 7 16 -28 11 10 1 40
-7 5 16 -29 9 8 0 37
-8 3 15 -29 8 6 -2 34
-9 1 15 -30 6 4 -3 31
-10 -2 15 -30 5 2 -4 29
-11 -3 14 -30 5 1 -4 28
-11 -2 14 -28 6 2 -3 29
-10 0 14 -26 8 3 0 29
-10 1 14 -24 9 4 1 30
-10 2 14 -22 10 4 2 30
-9 3 13 -21 11 5 3 31
-9 3 14 -21 10 5 3 31
-9 3 14 -21 10 5 3 31
-9 3 15 -21 9 5 3 31
-9 3 15 -21 9 5 3 31
-9 3 16 -20 8 6 3 31
-8 3 16 -20 8 6 3 30
-7 3 16 -19 8 6 3 30
-6 3 16 -19 8 6 3 29
-6 3 16 -19 8 6 3 29
-5 2 16 -18 8 6 1 27
-5 1 16 -18 7 5 0 25
-5 -2 15 -19 5 4 -2 24
-5 -3 15 -19 4 3 -3 22
-5 -4 15 -19 3 2 -4 21
-5 -5 14 -20 2 1 -5 20
-6 -5 14 -20 3 2 -5 20
-7 -4 13 -20 3 2 -5 20
-8 -4 13 -20 4 3 -5 20
-8 -4 13 -20 4 3 -5 20
-10 -3 12 -20 5 4 -4 20
-12 -4 12 -20 4 3 -4 19
-13 -4 12 -20 3 2 -4 18
-15 -5 12 -20 2 1 -4 17
-16 -5 12 -20 2 1 -4 16
-15 -6 12 -20 1 0 -3 15
-13 -5 12 -19 2 1 -3 16
-10 -4 13 -18 2 1 -3 16
-7 -3 13 -17 3 2 -3 17
-5 -2 13 -17 3 2 -3 17
-5 0 14 -16 4 3 -3 18
-8 0 14 -16 4 3 -3 17
-10 0 14 -16 4 3 -3 17
-12 0 14 -16 4 3 -3 16
-14 0 14 -16 4 3 -3 16
-14 1 15 -15 4 3 -3 15
-12 3 16 -14 5 4 -2 15
-11 5 17 -13 6 5 0 16
-9 8 18 -12 7 6 1 16
-8 10 19 -11 8 6 2 16
-7 11 21 -9 9 8 4 17
-7 12 22 -8 10 9 5 18
-6 12 24 -6 11 10 7 19
-6 13 25 -5 12 11 8 20
-6 13 26 -4 13 12 9 20
-5 14 26 -3 14 13 10 21
-6 13 25 -3 14 12 9 20
-6 13 24 -3 13 12 9 19
-7 12 23 -3 13 11 8 18
-7 12 22 -3 13 11 8 18
-6 12 21 -2 12 10 7 17
-4 14 21 1 13 11 8 17
-2 16 21 3 14 12 9 18
2 18 21 5 15 13 10 18
4 20 21 7 16 13 10 18
5 19 20 7 16 14 11 19
4 16 18 6 15 13 10 18
3 13 17 4 13 12 10 17
2 11 15 3 12 11 9 16
1 8 14 2 11 10 9 16
0 7 12 0 9 8 8 15
-2 6 11 -2 7 7 7 14
-3 6 10 -4 6 5 6 13
-4 5 9 -5 4 4 5 12
-4 5 8 -6 3 3 4 11
-4 5 7 -7 2 2 3 10
-3 6 7 -6 3 3 4 9
-2 8 8 -5 3 3 4 9
0 9 8 -4 4 4 5 8
1 10 8 -3 4 4 5 8
-2 9 9 -2 5 5 5 6
-6 6 9 -2 4 4 4 4
-9 3 9 -2 3 4 2 2
-13 1 9 -2 2 3 1 0
-17 -3 9 -2 1 3 0 -3
-17 -5 8 -3 0 2 -2 -4
-15 -6 8 -4 0 1 -2 -4
-13 -7 8 -5 -2 0 -2 -3
-11 -8 8 -6 -2 -2 -2 -3
-9 -9 8 -6 -2 -2 -2 -3
-8 -10 9 -7 -3 -3 -3 -2
-8 -10 9 -7 -3 -3 -3 -3
-8 -10 9 -7 -4 -3 -3 -4
-8 -10 9 -7 -4 -3 -3 -5
-8 -10 9 -7 -4 -3 -3 -5
-11 -8 10 -6 -5 -4 -4 -6
-13 -7 10 -6 -5 -4 -4 -6
-15 -5 10 -7 -5 -4 -4 -6
-18 -3 10 -7 -5 -4 -4 -6
-20 -2 10 -7 -5 -4 -4 -6
-20 0 9 -8 -5 -5 -5 -7
-18 -2 10 -8 -4 -4 -4 -7
-16 -3 10 -7 -3 -3 -3 -7
-15 -4 11 -7 -2 -2 -2 -7
-13 -4 11 -7 -2 0 0 -7
-12 -5 12 -7 0 1 1 -7
-12 -4 12 -8 0 1 1 -7
-12 -4 12 -9 0 1 1 -6
-12 -3 12 -10 0 1 1 -6
-12 -3 12 -11 0 1 1 -6
-14 -2 13 -12 1 2 0 -4
-16 -3 16 -11 1 2 -2 -3
-18 -3 18 -11 1 1 -3 -2
-19 -4 21 -10 1 1 -4 1
-21 -4 24 -10 1 1 -4 2
-21 -3 28 -4 7 3 -2 7
-20 2 33 4 14 7 3 11
-18 5 37 11 22 11 7 16
-16 9 42 18 29 16 12 21
-15 12 47 25 36 20 16 26
2 26 45 33 51 35 29 35
20 43 39 40 66 53 45 47
38 60 35 49 81 70 60 57
57 76 31 57 96 89 74 67
75 93 26 64 111 106 90 78
95 105 2 59 116 116 102 87
114 117 -27 50 119 127 113 96
134 129 -55 39 122 136 126 104
153 141 -83 30 126 146 137 112
173 153 -112 21 129 155 149 120
164 131 -121 0 104 130 127 103
149 100 -128 -25 72 97 98 79
133 69 -133 -49 42 64 68 56
117 38 -139 -73 10 30 38 32
102 9 -145 -98 -21 -3 9 9
85 -4 -133 -103 -30 -13 -2 2
67 -11 -115 -104 -35 -18 -9 -3
49 -18 -98 -106 -40 -23 -15 -7
31 -26 -80 -108 -45 -28 -22 -11
14 -33 -63 -109 -50 -34 -28 -15
9 -33 -52 -102 -49 -32 -29 -15
7 -29 -41 -92 -46 -28 -26 -13
5 -25 -30 -80 -41 -24 -24 -11
3 -22 -20 -70 -38 -20 -22 -9
1 -18 -9 -59 -35 -16 -20 -7
-2 -17 -5 -56 -30 -14 -19 -6
-3 -16 -2 -55 -25 -12 -18 -5
-5 -15 2 -53 -20 -10 -17 -4
-7 -14 5 -51 -15 -9 -16 -3
-8 -13 8 -50 -9 -7 -15 -3
-10 -12 9 -49 -8 -6 -14 -2
-12 -12 9 -49 -9 -7 -15 -3
-14 -12 9 -50 -9 -8 -15 -4
-15 -12 9 -50 -10 -9 -16 -5
-17 -12 9 -50 -10 -9 -16 -5
-18 -10 9 -51 -11 -10 -17 -6
-17 -9 10 -51 -10 -9 -17 -6
-17 -8 11 -51 -10 -9 -16 -5
-16 -6 12 -51 -9 -8 -16 -5
-16 -5 13 -51 -9 -8 -16 -5
-15 -4 14 -52 -8 -7 -15 -4
-15 -4 12 -53 -8 -7 -15 -4
-16 -5 11 -54 -8 -7 -15 -4
-16 -5 10 -56 -8 -7 -15 -4
-16 -5 9 -57 -8 -7 -15 -4
-17 -6 8 -58 -9 -6 -15 -5
-17 -6 10 -58 -9 -6 -15 -5
-17 -6 11 -57 -8 -6 -15 -5
-17 -6 12 -57 -8 -6 -15 -5
-17 -6 13 -57 -8 -6 -15 -5
-16 -5 14 -56 -7 -5 -14 -5
-15 -5 14 -56 -7 -5 -13 -5
-14 -6 14 -56 -6 -4 -13 -5
-13 -6 14 -56 -6 -4 -12 -5
-12 -6 14 -56 -6 -4 -12 -5
-10 -7 13 -57 -5 -3 -11 -6
-8 -6 13 -57 -5 -4 -12 -7
-5 -5 13 -56 -5 -4 -13 -7
-3 -4 13 -56 -5 -5 -14 -8
0 -3 13 -56 -5 -5 -15 -8
-2 -3 12 -55 -6 -6 -16 -9
-5 -4 13 -54 -5 -4 -15 -9
-7 -5 13 -53 -5 -3 -15 -9
-10 -7 14 -52 -4 -2 -14 -9
-13 -8 14 -51 -4 0 -14 -9
-14 -9 15 -50 -3 1 -13 -8
-13 -8 15 -48 -3 1 -13 -8
-13 -8 14 -47 -3 1 -13 -8
-12 -7 14 -46 -3 1 -13 -8
-12 -7 14 -45 -3 1 -13 -8
-11 -6 13 -44 -2 0 -13 -9
-10 -5 12 -43 -3 -2 -13 -9
-10 -4 11 -41 -4 -3 -14 -9
-9 -3 10 -40 -5 -4 -14 -9
-9 -2 10 -39 -5 -4 -14 -9
-8 0 9 -38 -6 -5 -15 -10
-8 0 9 -38 -6 -4 -14 -10
-8 0 9 -37 -6 -3 -14 -9
-8 0 9 -37 -6 -2 -13 -9
-8 0 9 -37 -6 -2 -13 -9
-9 0 9 -36 -5 0 -12 -8
-8 -2 8 -37 -5 0 -12 -7
-7 -3 7 -38 -6 0 -13 -6
-6 -5 6 -39 -6 0 -13 -5
-6 -6 5 -39 -6 0 -13 -4
-5 -7 4 -40 -7 -2 -14 -3
-3 -6 3 -41 -7 -3 -15 0
-2 -5 2 -41 -8 -4 -15 1
0 -4 1 -43 -8 -5 -16 2
1 -3 0 -43 -8 -5 -16 3
2 0 -2 -41 -9 -6 -17 5
1 2 -2 -38 -7 -4 -16 8
0 4 -2 -35 -6 -3 -15 10
-2 6 -2 -32 -5 -2 -14 13
-3 8 -2 -29 -4 0 -14 15
-4 9 -3 -26 -3 1 -13 16
-3 9 -4 -22 -3 1 -13 16
-2 9 -5 -19 -4 1 -13 15
0 9 -7 -15 -4 1 -13 15
1 9 -8 -11 -4 1 -13 15
4 9 -10 -10 -5 1 -12 14
7 11 -11 -10 -4 2 -11 15
11 13 -13 -9 -4 2 -11 16
14 15 -15 -9 -3 3 -10 17
18 17 -16 -9 -3 3 -10 17
19 18 -18 -8 -2 4 -9 18
21 18 -20 -9 -2 5 -8 18
22 18 -21 -9 -2 6 -7 18
23 18 -23 -10 -2 7 -6 18
24 18 -25 -10 -2 7 -5 18
25 19 -26 -11 -3 8 -4 18
26 20 -27 -12 -3 8 -4 19
27 20 -27 -12 -2 9 -3 20
28 21 -28 -13 -2 9 -3 21
29 21 -28 -13 -2 9 -3 22
30 22 -29 -14 0 10 -2 23
31 22 -30 -15 0 10 -2 23
32 23 -31 -16 0 10 0 22
32 23 -31 -16 0 10 0 22
33 23 -32 -17 0 10 0 22
34 24 -33 -18 -2 11 1 21
34 24 -33 -20 -2 11 0 20
34 24 -34 -21 -2 11 0 20
34 24 -34 -22 -2 11 -2 19
34 24 -34 -23 -2 11 -2 19
34 24 -34 -24 -3 10 -3 18
34 23 -32 -24 -3 9 -4 17
33 22 -31 -24 -3 9 -4 16
33 20 -29 -24 -3 8 -5 16
33 19 -27 -24 -3 8 -5 15
31 18 -25 -23 -2 7 -6 14
29 17 -23 -23 -2 7 -6 12
26 16 -20 -23 0 7 -6 11
24 15 -18 -23 0 7 -6 10
22 14 -16 -23 0 7 -6 9
20 12 -13 -22 1 6 -6 8
18 11 -11 -21 1 6 -7 7
17 9 -8 -21 1 5 -7 6
15 8 -5 -20 1 5 -8 5
13 6 -2 -20 1 5 -8 4
12 5 0 -19 0 4 -10 3
12 5 1 -19 0 3 -11 1
12 6 1 -19 0 3 -13 0
12 6 2 -19 0 2 -14 -2
12 6 2 -19 0 2 -16 -3
10 6 4 -18 -2 1 -17 -4
8 5 5 -18 0 1 -17 -4
6 3 7 -18 1 1 -17 -4
3 2 8 -18 1 1 -17 -4
1 0 10 -18 2 1 -17 -4
0 -2 11 -18 3 2 -17 -5
0 0 12 -17 1 0 -18 -6
0 1 12 -17 0 -2 -20 -7
0 1 13 -16 -2 -3 -21 -9
0 2 13 -16 -3 -4 -23 -10
-3 2 14 -15 -4 -5 -24 -11
-6 1 15 -15 -3 -3 -23 -10
-9 0 16 -14 -2 -2 -22 -10
-12 -3 16 -14 0 0 -22 -9
-15 -4 17 -14 1 1 -21 -9
-16 -5 18 -13 2 2 -20 -8
-15 -5 17 -14 2 1 -20 -8
-14 -6 17 -15 1 1 -21 -8
-13 -6 16 -15 1 0 -21 -8
-12 -6 16 -16 1 0 -21 -8
-11 -7 15 -17 0 -2 -22 -9
-11 -6 15 -17 0 -2 -22 -9
-11 -6 15 -17 0 -2 -22 -9
-11 -5 15 -17 0 -2 -22 -9
-11 -5 15 -17 0 -2 -22 -9
-12 -4 15 -17 -2 0 -22 -8
-12 -5 15 -18 -2 0 -22 -8
-11 -5 15 -19 -2 0 -22 -9
-11 -6 15 -19 -2 0 -22 -9
-11 -6 15 -20 -2 0 -22 -9
-10 -7 14 -21 -2 -2 -23 -10
-10 -7 14 -21 -2 -2 -23 -11
-11 -6 14 -21 -2 -2 -24 -11
-11 -6 14 -21 -2 -2 -24 -12
-11 -6 14 -21 -2 -2 -24 -12
-12 -5 14 -21 -3 -2 -25 -13
-12 -5 14 -22 -3 -2 -25 -13
-12 -4 14 -23 -2 -2 -25 -14
-12 -4 14 -24 -2 -2 -25 -14
-12 -4 14 -25 -2 -2 -25 -14
-11 -3 15 -26 0 -3 -26 -15
-10 -2 16 -26 0 -2 -25 -15
-9 0 17 -25 1 0 -24 -15
-9 0 17 -25 1 1 -24 -15
-8 1 18 -25 1 2 -23 -15
-7 2 19 -24 2 3 -22 -14
-8 1 19 -24 2 3 -22 -13
-9 1 18 -25 2 3 -22 -12
-10 0 18 -25 2 3 -22 -12
-11 0 18 -25 2 3 -22 -11
-12 -2 17 -26 3 4 -23 -9
-11 -2 17 -28 2 3 -24 -7
-10 -2 16 -29 2 2 -25 -6
-9 -2 16 -30 1 2 -25 -4
-8 -2 16 -31 1 1 -26 -2
-7 0 15 -32 0 0 -27 1
-9 1 16 -32 1 1 -26 3
-10 1 16 -32 2 2 -25 4
-12 2 17 -32 3 2 -25 6
-13 2 17 -32 4 3 -24 8
-14 3 18 -32 5 4 -23 9
-13 2 18 -33 5 4 -23 10
-12 1 18 -33 5 4 -23 10
-12 1 18 -34 5 4 -23 11
-11 0 18 -34 5 4 -23 11
-10 -2 17 -35 4 4 -22 12
-11 -2 17 -36 4 3 -22 12
-12 -2 16 -36 3 3 -23 13
-12 -2 16 -37 3 2 -23 13
-13 -2 16 -37 3 2 -23 13
-14 0 15 -38 2 1 -24 14
-14 1 16 -38 3 2 -23 14
-14 1 16 -39 4 3 -22 14
-14 2 17 -39 5 4 -22 14
-14 2 17 -39 6 5 -21 14
-15 3 18 -40 7 6 -20 13
-15 3 17 -39 6 6 -20 12
-14 3 16 -38 5 5 -21 10
-13 3 15 -37 4 4 -21 9
-13 3 14 -36 3 4 -21 8
-12 3 13 -33 2 3 -22 7
-11 3 13 -29 2 3 -22 7
-9 2 13 -24 2 3 -22 7
-8 2 13 -20 2 3 -22 7
-7 2 13 -16 2 3 -22 7
-6 2 14 -13 2 3 -23 7
-5 4 14 -10 2 3 -23 7
-3 6 15 -7 2 3 -23 7
-2 8 15 -4 2 3 -23 7
0 10 15 0 2 3 -23 7
0 10 16 1 3 2 -24 6
-3 7 16 1 2 1 -24 5
-6 4 15 1 1 -2 -25 4
-8 1 14 1 0 -3 -25 3
-11 -3 14 1 -2 -5 -25 2
-12 -4 13 1 -3 -6 -26 1
-12 -4 12 1 -3 -5 -26 1
-13 -5 11 2 -2 -4 -26 0
-13 -5 10 2 -2 -3 -26 -2
-13 -5 9 2 -2 -2 -26 -2
-14 -6 8 3 0 0 -27 -3
-13 -5 8 3 0 0 -27 -4
-11 -4 8 3 -2 0 -28 -6
-10 -3 8 3 -3 0 -28 -7
-9 -2 8 3 -3 0 -28 -8
-8 0 8 2 -4 -2 -29 -9
-8 0 8 2 -4 -2 -29 -9
-9 0 8 2 -4 -2 -29 -8
-9 0 8 2 -4 -2 -29 -7
-9 0 8 2 -4 -2 -29 -7
-10 0 8 2 -4 0 -29 -5
-10 0 8 2 -4 0 -29 -3
-9 0 8 3 -3 0 -28 0
-9 0 8 3 -3 0 -28 2
-9 0 8 3 -3 0 -28 5
-8 1 9 4 -2 1 -27 6
-9 1 9 3 -2 1 -27 6
-10 2 9 2 -3 1 -28 6
-10 3 9 2 -3 1 -29 6
-11 3 9 1 -3 1 -29 6
-12 4 9 0 -4 0 -30 5
-12 4 9 2 -4 0 -30 5
-12 3 10 3 -4 0 -30 5
-12 3 10 5 -4 0 -30 5
-12 3 10 6 -4 0 -30 5
-11 2 11 8 -3 0 -30 4
-11 3 12 9 0 2 -29 5
-11 5 13 11 1 3 -28 7
-11 6 14 13 3 5 -27 8
-11 7 15 15 4 6 -26 9
-11 9 17 16 5 7 -25 10
-7 10 19 18 5 8 -25 10
-4 12 21 19 6 9 -24 10
0 14 23 21 7 9 -23 10
3 16 25 22 7 10 -23 10
4 17 26 23 8 11 -22 11
2 17 26 24 8 11 -22 11
0 17 25 25 9 11 -21 11
-3 17 24 25 9 11 -21 11
-6 17 24 26 9 11 -21 11
-7 17 22 27 10 12 -20 12
-6 16 19 25 9 11 -20 12
-4 15 16 23 8 10 -21 11
-3 15 13 22 8 10 -21 10
-2 14 11 20 7 9 -21 10
0 13 9 19 6 8 -22 9
2 13 9 18 6 8 -22 8
4 13 9 16 5 7 -23 7
5 13 9 15 4 7 -23 7
7 13 9 14 4 7 -23 6
8 12 8 13 3 6 -23 5
7 12 8 13 3 6 -19 5
5 12 8 12 3 6 -16 4
4 12 8 12 3 6 -13 4
3 12 8 12 3 6 -10 4
2 11 8 11 2 6 -8 3
0 9 8 10 2 6 -8 2
-3 7 7 8 1 5 -7 1
-4 5 7 7 0 4 -7 0
-6 2 7 6 0 4 -7 -2
-7 1 6 5 -2 3 -6 -3
-7 1 6 5 -2 3 -6 -3
-8 0 7 5 -2 3 -6 -4
-9 0 8 5 -2 3 -6 -5
-9 0 8 5 -2 3 -6 -5
-10 -2 9 4 -2 2 -5 -6
-12 -4 8 2 -3 0 -6 -7
-13 -5 7 0 -5 -2 -7 -8
-15 -7 7 -2 -6 -4 -7 -8
-16 -8 6 -4 -7 -5 -8 -9
-17 -9 5 -5 -8 -6 -9 -10
-16 -9 5 -5 -8 -6 -9 -10
-15 -9 6 -4 -8 -5 -8 -10
-14 -9 6 -4 -8 -4 -8 -10
-13 -9 6 -4 -8 -4 -8 -10
-12 -8 7 -3 -7 -3 -7 -11
-12 -8 7 -3 -7 -3 -7 -11
-12 -8 7 -4 -7 -3 -7 -11
-12 -8 7 -4 -7 -3 -7 -11
-12 -8 7 -4 -7 -3 -7 -11
-13 -7 7 -5 -6 -3 -6 -12
-13 -7 7 -6 -6 -3 -6 -12
-14 -8 7 -7 -6 -2 -6 -13
-15 -8 7 -7 -6 -2 -6 -14
-15 -8 7 -8 -6 -2 -6 -14
-16 -9 8 -9 -7 0 -6 -15
-14 -8 8 -9 -7 0 -6 -15
-13 -7 8 -10 -7 0 -6 -14
-11 -6 8 -10 -7 0 -6 -14
-10 -5 8 -10 -7 0 -6 -14
-10 -4 9 -11 -6 0 -6 -12
-13 -4 12 -9 -6 0 -6 -10
-15 -4 14 -7 -5 -2 -6 -8
-18 -4 17 -6 -4 -2 -6 -6
-20 -4 19 -4 -4 -2 -6 -4
-21 0 24 3 3 3 -4 -2
-17 5 30 14 13 11 1 3
-14 10 35 24 22 20 6 6
-11 15 42 35 32 29 10 10
-8 20 48 46 42 38 15 13
6 31 47 53 53 49 25 21
26 48 39 57 63 61 40 31
47 64 32 62 74 73 56 43
67 80 25 66 86 86 72 53
89 97 18 71 97 98 88 64
108 105 -2 68 102 105 97 70
127 108 -29 59 101 107 103 73
145 111 -57 49 99 109 108 75
163 114 -85 38 98 111 113 78
182 117 -112 29 97 114 118 80
182 105 -124 13 80 100 107 72
163 79 -127 -9 52 71 81 52
146 54 -129 -30 23 43 56 31
129 27 -130 -52 -5 15 30 12
110 2 -132 -73 -33 -14 5 -9
92 -13 -124 -82 -47 -28 -10 -19
73 -19 -107 -79 -49 -31 -14 -21
54 -24 -91 -75 -51 -34 -18 -24
34 -29 -74 -72 -53 -36 -22 -26
16 -34 -58 -69 -55 -39 -27 -28
6 -35 -46 -63 -53 -39 -27 -29
4 -32 -36 -56 -46 -34 -24 -27
2 -28 -27 -48 -38 -29 -20 -25
0 -24 -18 -40 -31 -24 -16 -23
-4 -20 -9 -32 -25 -20 -12 -20
-5 -18 -4 -27 -21 -17 -10 -19
-7 -16 -2 -24 -19 -15 -9 -19
-9 -14 1 -22 -17 -14 -8 -18
-10 -13 3 -19 -16 -13 -7 -17
-12 -11 5 -17 -14 -11 -6 -17
-13 -10 6 -15 -13 -10 -5 -16
-14 -10 7 -15 -13 -10 -5 -16
-16 -11 8 -14 -13 -10 -6 -17
-17 -12 9 -14 -13 -10 -7 -17
-18 -12 10 -14 -13 -10 -7 -17
-19 -13 11 -13 -12 -11 -8 -18
-19 -13 11 -12 -12 -11 -8 -18
-18 -13 11 -11 -12 -11 -8 -18
-17 -13 11 -10 -12 -11 -8 -18
-17 -13 11 -9 -12 -11 -8 -18
-16 -12 12 -8 -13 -11 -7 -18
-16 -12 12 -8 -13 -11 -7 -18
-17 -13 12 -8 -13 -11 -7 -18
-17 -13 12 -8 -13 -11 -7 -18
-17 -13 12 -8 -13 -11 -7 -18
-18 -14 11 -7 -13 -12 -6 -19
-17 -13 11 -5 -13 -12 -6 -19
-15 -12 11 -3 -12 -11 -7 -19
-14 -12 11 0 -11 -11 -8 -19
-13 -11 11 2 -11 -11 -8 -19
-12 -10 12 3 -10 -10 -9 -20
-12 -9 12 5 -10 -10 -9 -20
-13 -8 13 6 -9 -9 -8 -20
-13 -8 13 7 -9 -9 -8 -20
-13 -7 13 9 -9 -9 -8 -20
-14 -6 14 10 -8 -8 -7 -21
-14 -6 14 11 -8 -8 -9 -20
-14 -6 14 12 -8 -8 -11 -19
-14 -6 14 12 -8 -8 -12 -19
-14 -6 14 13 -8 -8 -14 -18
-13 -7 15 14 -7 -8 -15 -17
-13 -7 15 14 -7 -8 -16 -17
-13 -8 14 14 -7 -8 -17 -18
-13 -8 14 14 -7 -8 -18 -18
-13 -8 14 14 -7 -8 -19 -18
-12 -9 13 14 -8 -9 -20 -19
-12 -9 13 14 -8 -9 -20 -19
-12 -9 13 14 -8 -9 -20 -20
-12 -9 13 14 -8 -9 -20 -21
-12 -9 13 14 -8 -9 -20 -21
-11 -9 12 14 -8 -10 -20 -22
-12 -9 12 14 -8 -10 -20 -22
-13 -9 11 14 -9 -9 -19 -21
-13 -9 11 14 -9 -9 -18 -20
-14 -9 11 14 -9 -9 -18 -20
-14 -9 10 15 -10 -8 -17 -19
-12 -7 9 15 -10 -9 -18 -20
-10 -6 8 14 -11 -10 -19 -21
-8 -5 8 14 -11 -11 -19 -22
-6 -3 7 14 -11 -12 -20 -23
-6 -2 6 13 -12 -13 -21 -23
-8 -3 6 13 -12 -13 -20 -19
-11 -4 7 14 -11 -12 -19 -16
-13 -5 8 15 -10 -11 -18 -13
-15 -6 8 15 -10 -11 -17 -9
-17 -7 9 16 -9 -10 -16 -7
-15 -7 8 16 -9 -9 -15 -7
-14 -7 7 15 -8 -9 -14 -7
-13 -6 6 14 -7 -8 -12 -7
-11 -6 5 14 -7 -7 -11 -7
-9 -5 4 13 -6 -6 -10 -5
-6 -3 4 13 -6 -6 -10 -3
-4 -2 4 13 -6 -6 -10 0
0 1 3 14 -6 -6 -10 2
3 3 3 14 -6 -6 -10 4
5 4 2 15 -7 -6 -10 6
5 6 2 15 -7 -6 -9 6
5 8 2 15 -7 -6 -9 7
5 10 1 15 -7 -5 -8 8
5 12 1 15 -7 -5 -7 8
6 13 0 14 -6 -4 -6 9
7 12 -3 14 -6 -4 -6 9
8 12 -4 13 -6 -4 -5 8
10 11 -6 12 -6 -4 -4 7
11 10 -8 12 -6 -4 -4 7
12 9 -10 11 -6 -4 -3 6
13 11 -12 10 -6 -4 -3 6
14 13 -14 10 -6 -4 -3 7
16 15 -17 9 -7 -3 -2 8
17 17 -19 8 -7 -3 -2 8
18 18 -21 7 -8 -2 0 9
19 18 -21 7 -7 0 1 11
20 18 -21 7 -7 1 2 12
21 18 -21 7 -6 3 3 13
22 18 -21 7 -5 4 4 15
24 18 -22 6 -4 5 5 16
26 18 -23 6 -4 5 5 15
29 18 -24 5 -5 4 5 15
32 18 -25 4 -6 3 4 14
34 18 -26 4 -6 3 4 13
36 19 -27 3 -7 2 3 12
36 19 -27 3 -7 2 3 10
36 19 -27 3 -7 1 3 9
36 20 -27 3 -8 0 3 7
36 20 -27 3 -8 0 3 5
36 21 -27 3 -9 -2 2 4
34 20 -26 3 -9 -2 2 4
33 19 -25 4 -9 -2 2 4
32 17 -24 5 -9 -3 1 4
30 16 -23 5 -9 -3 1 4
29 15 -22 6 -8 -4 0 3
27 14 -20 7 -8 -4 0 3
25 13 -18 7 -8 -4 0 3
23 11 -16 8 -8 -4 0 2
21 10 -14 9 -8 -4 0 2
20 9 -12 11 -7 -3 0 1
19 9 -9 13 -6 -3 -2 1
19 9 -5 15 -6 -3 -2 0
18 9 -2 18 -5 -3 -3 -2
17 9 3 20 -4 -3 -4 -2
15 8 5 22 -3 -4 -5 -3
12 6 8 23 -3 -4 -5 -4
9 4 10 24 -3 -4 -5 -4
6 2 12 25 -3 -4 -5 -5
3 0 14 26 -3 -4 -5 -6
1 -3 16 27 -2 -5 -5 -7
0 -3 16 27 -2 -5 -5 -9
-2 -2 17 27 -2 -5 -5 -10
-3 0 18 28 -2 -6 -6 -11
-4 0 18 28 -2 -6 -6 -13
-5 1 19 29 0 -7 -7 -14
-7 0 20 29 0 -7 -7 -14
-8 -2 21 29 0 -8 -7 -14
-9 -3 22 28 -2 -9 -7 -14
-11 -4 23 28 -2 -9 -7 -14
-12 -5 24 27 -3 -10 -8 -15
-11 -7 24 27 -3 -10 -8 -15
-11 -8 24 27 -3 -10 -8 -16
-10 -9 23 27 -3 -10 -8 -17
-9 -11 23 27 -3 -10 -8 -17
-8 -12 22 28 -3 -10 -8 -18
-10 -10 22 27 -3 -10 -8 -18
-11 -8 22 27 -3 -10 -8 -18
-12 -6 22 26 -3 -9 -8 -18
-14 -4 22 25 -3 -9 -8 -18
-15 -2 21 24 -3 -8 -8 -18
-14 -2 20 23 -4 -8 -9 -19
-13 -2 19 22 -4 -8 -10 -20
-12 -3 17 21 -5 -9 -11 -21
-11 -3 16 20 -6 -9 -12 -22
-10 -4 15 19 -7 -10 -13 -23
-10 -4 16 19 -6 -10 -12 -23
-10 -4 17 19 -5 -9 -11 -23
-11 -4 18 18 -3 -8 -10 -23
-11 -4 19 18 -2 -8 -9 -23
-13 -4 20 17 0 -7 -8 -22
-15 -5 20 17 0 -7 -8 -22
-17 -6 21 18 0 -8 -8 -22
-20 -7 22 19 0 -9 -8 -23
-22 -8 22 19 0 -9 -8 -23
-22 -9 23 20 -2 -10 -7 -24
-17 -8 23 20 -2 -10 -6 -24
-12 -7 23 19 -2 -10 -6 -24
-7 -6 23 18 -2 -10 -5 -24
-2 -5 23 18 -2 -10 -4 -24
1 -4 24 17 0 -9 -3 -25
-4 -4 24 17 0 -9 -3 -23
-9 -5 24 16 0 -9 -4 -22
-13 -6 23 15 -2 -9 -5 -20
-17 -6 23 15 -2 -9 -5 -18
-20 -7 22 14 -3 -9 -6 -17
-18 -7 22 14 -3 -9 -6 -16
-17 -7 22 14 -2 -9 -6 -14
-15 -7 22 14 0 -9 -6 -13
-13 -7 22 14 0 -9 -6 -11
-12 -6 23 13 1 -8 -6 -10
-14 -6 23 13 1 -8 -6 -10
-15 -6 23 12 1 -8 -6 -9
-17 -6 23 11 1 -8 -6 -8
-19 -6 23 11 1 -8 -6 -8
-20 -6 22 10 0 -9 -6 -7
-18 -5 22 10 0 -9 -6 -6
-16 -4 22 10 0 -9 -6 -4
-14 -3 22 9 0 -9 -5 -3
-12 -2 22 9 0 -9 -5 0
-10 0 22 8 0 -8 -4 1
-10 0 22 8 0 -8 -4 3
-10 0 23 8 1 -8 -4 4
-11 0 24 8 2 -7 -4 6
-11 0 24 8 2 -7 -4 8
-12 0 25 8 3 -6 -4 9
-12 0 25 8 3 -6 -3 9
-11 0 25 8 3 -6 -3 10
-10 0 26 8 4 -5 -2 11
-10 0 26 8 4 -5 0 11
-9 0 27 9 5 -4 1 12
-9 0 26 8 4 -4 1 11
-8 0 26 6 3 -4 1 10
-7 0 25 5 2 -5 1 9
-7 0 24 3 1 -5 1 8
-6 0 23 2 0 -6 0 7
-8 -3 22 2 0 -6 0 7
-9 -4 22 2 0 -6 0 7
-11 -6 21 3 0 -6 0 6
-13 -8 20 3 0 -6 0 6
-14 -9 19 4 0 -6 -2 5
-14 -7 20 5 1 -6 0 5
-14 -6 20 6 1 -6 1 5
-15 -4 21 7 2 -5 3 6
-15 -2 22 8 3 -5 4 6
-16 0 23 9 4 -4 5 7
-15 0 23 8 3 -4 5 7
-14 0 23 8 3 -4 4 7
-12 0 24 7 2 -3 3 7
-11 0 24 6 1 -3 3 7
-10 0 25 5 0 -2 2 6
-10 -3 25 5 0 -2 2 6
-10 -4 25 5 0 0 2 6
-10 -6 25 5 -2 1 1 5
-10 -7 25 5 -2 1 1 5
-11 -9 26 5 -3 2 0 4
-12 -8 26 5 -3 2 0 4
-12 -7 26 5 -3 2 0 3
-13 -6 26 5 -2 2 0 2
-14 -5 26 5 -2 2 0 2
-15 -4 25 5 0 3 0 1
-15 -5 25 5 0 3 0 1
-15 -5 25 5 -2 3 0 0
-15 -6 24 4 -3 2 -2 -2
-15 -7 24 4 -3 2 -2 -2
-15 -8 23 3 -4 1 -3 -3
-13 -6 24 3 -4 1 -2 -3
-11 -5 25 4 -4 1 1 -2
-9 -3 27 5 -3 2 2 0
-8 -2 28 5 -3 2 4 0
-6 1 29 6 -2 3 5 1
-8 -2 28 5 -2 3 4 0
-10 -4 28 5 -3 3 3 -3
-12 -6 27 4 -4 2 1 -4
-13 -7 26 3 -4 2 0 -6
-15 -9 25 2 -5 1 -2 -7
-15 -9 25 2 -5 1 -2 -7
-14 -9 25 2 -5 1 -2 -7
-13 -8 25 2 -5 1 0 -7
-13 -8 25 2 -5 1 0 -7
-12 -7 24 3 -4 0 1 -6
-13 -7 25 3 -4 0 1 -6
-13 -7 27 3 -4 0 1 -6
-14 -7 28 3 -4 1 1 -6
-15 -7 30 3 -4 1 1 -6
-16 -7 31 4 -4 2 0 -6
-13 -6 31 4 -3 3 1 -5
-10 -4 31 4 -3 5 3 -4
-8 -3 32 5 -2 6 4 -3
-5 0 32 5 0 8 6 -2
-3 1 33 6 1 9 7 0
-5 1 34 7 2 9 7 0
-6 2 34 7 3 9 7 0
-8 3 35 8 4 9 8 0
-9 3 36 9 5 9 8 0
-11 4 37 10 6 10 9 0
-11 5 36 10 6 10 9 0
-11 5 34 9 6 10 9 0
-10 6 33 8 5 9 8 -2
-10 7 31 8 5 9 8 -2
-9 8 30 7 4 8 7 -3
-9 7 27 7 4 8 7 -3
-8 7 24 7 4 8 7 -3
-7 6 22 6 4 8 7 -4
-7 5 19 6 4 8 7 -4
-5 4 17 5 3 8 8 -5
0 5 16 5 3 8 8 -5
4 6 15 4 3 8 8 -5
8 7 14 4 3 8 8 -6
13 9 12 3 3 8 8 -6
15 10 11 2 2 7 9 -7
12 9 11 2 2 7 9 -7
9 8 11 2 2 7 9 -7
6 7 11 1 1 7 10 -7
3 5 11 1 1 7 10 -7
0 4 11 0 0 6 11 -8
0 3 10 -2 0 5 10 -10
0 3 10 -4 -2 5 9 -11
-2 2 9 -5 -2 4 8 -13
-2 1 8 -7 -3 3 7 -14
-3 0 7 -8 -4 2 6 -16
-5 -4 7 -8 -4 2 6 -16
-7 -6 7 -8 -4 2 6 -16
-8 -8 8 -8 -5 1 6 -17
-10 -11 8 -8 -5 1 6 -17
-12 -13 9 -7 -6 0 5 -18
-12 -13 9 -7 -7 -2 4 -18
-13 -13 9 -7 -8 -3 2 -17
-13 -13 8 -7 -9 -4 1 -17
-14 -13 8 -7 -10 -6 -2 -16
-15 -14 7 -8 -11 -7 -3 -15
-14 -13 7 -8 -11 -7 -3 -13
-13 -12 7 -9 -10 -7 -3 -12
-12 -11 7 -9 -10 -7 -2 -10
-11 -9 7 -10 -9 -7 -2 -9
-10 -8 7 -11 -8 -6 0 -7
-13 -9 8 -11 -8 -6 -3 -7
-16 -11 8 -10 -8 -6 -4 -6
-18 -12 9 -10 -8 -6 -6 -6
-21 -14 10 -9 -8 -6 -7 -5
-23 -15 11 -8 -8 -5 -9 -4
-22 -15 11 -8 -8 -5 -11 -3
-20 -16 11 -9 -8 -5 -12 0
-19 -16 11 -9 -8 -5 -14 1
-17 -17 11 -10 -8 -5 -15 3
-16 -18 10 -11 -9 -6 -17 4
-16 -16 10 -11 -9 -6 -17 5
-16 -13 10 -11 -9 -6 -17 7
-15 -11 10 -10 -8 -5 -17 8
-15 -9 10 -10 -8 -5 -17 10
-14 -7 9 -9 -7 -4 -16 11
-13 -7 12 -7 -6 -3 -16 12
-13 -7 14 -5 -5 -3 -16 13
-12 -6 17 -4 -4 -2 -15 14
-11 -6 20 -2 -3 0 -15 16
-11 -5 23 2 -2 1 -14 17
-15 -3 27 6 2 4 -13 18
-19 0 32 10 5 6 -11 19
-23 2 37 14 8 8 -10 20
-28 4 42 19 11 11 -8 21
-26 9 46 25 18 17 -4 24
-9 23 45 39 32 31 10 33
10 37 44 53 47 46 23 43
28 51 43 66 62 60 36 52
47 65 42 79 76 74 50 61
67 78 34 88 88 86 62 69
93 90 9 76 89 92 71 76
119 101 -16 66 91 99 80 82
145 112 -40 55 92 105 89 90
171 123 -65 45 93 111 98 96
188 125 -87 31 88 109 99 95
181 96 -100 10 61 81 73 73
173 67 -112 -11 34 55 49 52
164 37 -126 -32 8 27 23 29
156 9 -138 -54 -20 1 -2 8
143 -14 -144 -69 -40 -21 -21 -9
116 -18 -129 -72 -45 -24 -25 -10
90 -22 -112 -74 -49 -28 -29 -11
63 -26 -97 -76 -53 -32 -33 -12
36 -30 -81 -79 -57 -36 -37 -13
16 -34 -67 -79 -59 -39 -41 -14
11 -34 -56 -68 -55 -36 -40 -14
6 -34 -45 -58 -51 -34 -39 -14
0 -34 -34 -47 -46 -31 -38 -14
-6 -34 -23 -36 -41 -28 -37 -14
-10 -33 -14 -27 -36 -26 -36 -15
-10 -29 -10 -23 -32 -22 -33 -13
-11 -25 -6 -19 -28 -19 -31 -11
-11 -22 -2 -15 -24 -15 -29 -10
-12 -18 3 -11 -20 -12 -26 -8
-13 -15 7 -7 -17 -9 -24 -6
-13 -15 7 -7 -16 -9 -24 -6
-13 -15 8 -6 -16 -9 -24 -6
-13 -16 8 -6 -15 -8 -24 -6
-13 -16 9 -5 -14 -8 -24 -6
-14 -17 10 -4 -13 -7 -23 -6
-15 -17 10 -4 -13 -7 -23 -6
-15 -17 10 -4 -13 -7 -23 -6
-16 -16 10 -5 -13 -8 -23 -6
-17 -16 10 -5 -13 -8 -23 -6
-18 -15 10 -6 -14 -9 -24 -6
-18 -15 10 -6 -13 -8 -23 -6
-18 -15 10 -5 -13 -8 -23 -6
-18 -16 10 -5 -12 -7 -22 -6
-18 -16 10 -4 -11 -6 -21 -6
-19 -17 11 -3 -10 -5 -20 -5
-20 -16 11 -3 -10 -5 -20 -5
-20 -15 11 -3 -10 -5 -20 -5
-21 -14 11 -3 -10 -5 -21 -5
-22 -12 11 -3 -10 -5 -21 -5
-23 -11 10 -2 -11 -4 -22 -6
-22 -11 10 -2 -11 -4 -22 -6
-21 -10 10 0 -10 -4 -21 -6
-20 -10 10 0 -9 -3 -20 -6
-19 -9 10 1 -8 -3 -19 -6
-18 -8 11 2 -7 -2 -18 -5
-18 -9 11 2 -7 -2 -19 -6
-18 -11 10 1 -8 -2 -20 -7
-18 -12 10 1 -9 -3 -21 -8
-18 -13 9 0 -10 -3 -23 -10
-18 -15 8 -2 -11 -4 -24 -11
-17 -15 8 -2 -11 -4 -23 -11
-16 -14 8 -2 -10 -3 -21 -11
-15 -13 8 0 -10 -3 -20 -11
-14 -12 8 0 -9 -2 -19 -11
-13 -11 9 1 -8 0 -17 -10
-13 -11 9 1 -8 0 -17 -10
-14 -12 9 1 -8 0 -17 -10
-14 -13 9 2 -8 0 -16 -10
-15 -14 9 2 -8 0 -16 -10
-16 -15 10 3 -8 0 -15 -9
-16 -14 9 3 -8 0 -15 -9
-16 -12 8 2 -9 0 -15 -10
-15 -10 7 2 -9 0 -15 -11
-15 -9 6 1 -10 0 -15 -12
-14 -7 5 0 -11 -2 -16 -13
-13 -9 4 -2 -12 -2 -16 -13
-11 -11 3 -3 -13 -3 -17 -14
-9 -13 2 -4 -14 -4 -17 -15
-8 -15 1 -5 -15 -5 -18 -16
-6 -17 0 -6 -16 -6 -19 -17
-9 -16 0 -6 -15 -5 -18 -17
-11 -14 0 -5 -14 -4 -17 -16
-14 -12 0 -4 -13 -3 -16 -16
-16 -11 0 -3 -12 0 -15 -15
-19 -9 0 -2 -11 1 -14 -14
-17 -8 0 -2 -11 1 -14 -14
-14 -7 0 0 -11 1 -13 -14
-12 -6 0 0 -10 2 -12 -13
-9 -5 0 1 -10 2 -11 -13
-7 -4 1 2 -9 3 -10 -12
-7 -4 0 2 -9 3 -10 -12
-7 -4 -2 2 -9 3 -10 -12
-6 -3 -3 2 -10 3 -10 -11
-6 -3 -5 2 -10 3 -10 -11
-5 -2 -6 2 -11 4 -9 -10
-5 -2 -7 2 -11 4 -9 -10
-5 -2 -8 1 -11 3 -10 -11
-5 -3 -9 0 -11 3 -11 -12
-5 -3 -11 -2 -11 2 -12 -13
-6 -4 -12 -3 -12 1 -13 -14
-2 -2 -13 -3 -12 2 -11 -13
2 1 -15 -3 -12 4 -10 -12
5 4 -17 -3 -11 6 -8 -11
9 6 -18 -3 -11 7 -6 -10
12 8 -20 -3 -10 9 -4 -9
12 8 -21 -3 -10 9 -4 -9
13 9 -23 -4 -10 9 -4 -8
13 9 -24 -4 -11 9 -3 -7
14 10 -25 -5 -11 9 -3 -6
15 11 -27 -6 -12 9 -2 -5
16 12 -27 -6 -11 10 0 -5
18 13 -28 -6 -10 11 2 -5
19 14 -29 -5 -9 12 4 -4
20 15 -30 -5 -8 14 5 -4
22 16 -31 -4 -7 15 7 -3
24 16 -32 -5 -8 14 6 -3
26 16 -33 -6 -10 13 5 -4
28 16 -34 -7 -11 12 4 -5
30 16 -36 -8 -12 11 3 -6
32 16 -37 -9 -14 10 2 -7
32 17 -38 -9 -14 10 2 -7
33 18 -40 -10 -14 10 2 -7
34 19 -43 -11 -14 10 2 -7
35 20 -44 -12 -14 10 2 -7
36 21 -46 -13 -14 10 3 -7
35 20 -45 -13 -14 10 3 -7
33 18 -43 -13 -14 10 3 -8
31 17 -41 -13 -14 9 3 -9
30 16 -40 -13 -14 9 3 -10
28 14 -38 -12 -14 8 2 -11
28 15 -36 -11 -14 8 2 -11
28 17 -34 -9 -13 9 2 -12
28 18 -32 -7 -12 10 2 -13
28 19 -30 -6 -11 11 2 -14
28 21 -28 -4 -10 12 1 -15
24 17 -26 -3 -10 12 0 -16
20 14 -25 -2 -10 11 -2 -18
16 11 -23 0 -10 11 -3 -20
13 7 -21 1 -10 10 -5 -21
9 4 -19 2 -9 9 -6 -23
9 4 -18 3 -9 9 -6 -23
9 3 -16 4 -9 9 -7 -24
8 2 -15 5 -9 8 -7 -25
8 1 -14 7 -9 8 -8 -26
7 0 -12 8 -8 7 -9 -27
6 1 -10 8 -8 7 -9 -27
5 2 -9 9 -7 7 -9 -27
4 3 -7 9 -7 7 -9 -27
2 4 -5 10 -6 7 -9 -27
1 5 -3 11 -5 8 -10 -27
-4 4 -3 11 -5 8 -10 -27
-8 3 -2 11 -6 7 -10 -27
-12 2 0 11 -6 7 -10 -28
-15 0 1 11 -7 6 -10 -28
-19 -2 2 11 -8 5 -10 -29
-16 -2 2 11 -8 5 -11 -30
-14 -2 2 11 -8 5 -12 -31
-11 -2 2 10 -8 5 -13 -32
-9 -2 2 10 -8 5 -14 -33
-6 -3 1 9 -8 4 -15 -34
-7 -3 2 10 -8 4 -15 -34
-9 -3 3 11 -7 5 -14 -34
-10 -3 4 12 -7 5 -13 -33
-11 -3 5 13 -6 6 -12 -33
-13 -3 6 14 -5 7 -11 -32
-16 -5 5 14 -6 7 -11 -33
-18 -6 4 14 -7 6 -12 -34
-21 -8 3 14 -8 5 -12 -35
-23 -10 2 14 -9 4 -13 -36
-26 -12 1 13 -10 3 -14 -38
-22 -10 1 14 -10 3 -14 -36
-17 -8 2 15 -9 4 -13 -34
-13 -6 2 16 -9 4 -12 -32
-9 -3 3 17 -8 5 -11 -30
-5 0 4 19 -7 6 -10 -28
-6 0 4 19 -7 6 -10 -27
-7 0 4 19 -7 6 -10 -26
-8 -2 4 19 -7 6 -10 -25
-9 -2 4 19 -7 6 -10 -24
-10 -3 4 19 -7 6 -9 -23
-10 -3 4 20 -7 6 -9 -22
-11 -3 4 21 -7 7 -9 -21
-12 -3 4 22 -7 7 -9 -20
-13 -3 4 23 -7 8 -9 -19
-14 -4 5 24 -6 9 -8 -18
-13 -4 5 24 -6 9 -8 -18
-12 -4 5 24 -6 8 -8 -18
-11 -4 5 24 -6 7 -9 -17
-10 -4 5 24 -6 6 -9 -17
-9 -4 5 24 -7 5 -10 -16
-9 -4 5 24 -7 6 -10 -15
-10 -4 5 24 -6 7 -10 -14
-10 -3 5 24 -5 8 -10 -13
-11 -3 5 24 -4 9 -10 -12
-12 -2 6 25 -3 10 -9 -11
-13 -3 6 25 -3 10 -9 -10
-14 -4 6 25 -3 10 -9 -9
-15 -5 6 25 -3 9 -8 -7
-16 -6 6 25 -3 9 -8 -6
-17 -7 6 25 -4 8 -7 -4
-16 -6 6 25 -4 8 -7 -4
-15 -4 6 25 -4 8 -7 -4
-13 -2 5 25 -4 8 -7 -4
-12 0 5 25 -4 8 -7 -4
-10 2 4 26 -4 8 -8 -3
-10 2 4 26 -4 8 -7 -2
-10 2 5 26 -4 8 -6 0
-9 1 5 27 -4 8 -4 1
-9 1 6 27 -4 8 -3 2
-8 0 7 28 -4 8 0 3
-8 -2 7 28 -4 8 0 4
-9 -3 7 28 -4 8 0 6
-10 -5 6 27 -4 8 -2 7
-11 -6 6 27 -4 8 -2 9
-12 -8 5 26 -3 8 -3 11
-12 -6 5 26 -3 8 -3 10
-12 -5 6 26 -3 8 -3 9
-13 -3 7 27 -3 8 -3 8
-13 0 8 27 -3 8 -3 7
-14 2 9 28 -2 9 -2 6
-13 2 8 28 -2 9 -2 6
-12 1 7 27 -3 9 -2 6
-11 1 6 26 -4 9 -2 5
-10 0 5 25 -5 9 -2 5
-8 -2 3 24 -6 8 -3 4
-8 -2 3 24 -6 8 -3 4
-8 -2 3 24 -6 7 -4 3
-9 0 3 23 -7 6 -4 2
-9 0 3 23 -7 5 -5 1
-10 1 4 22 -8 4 -6 0
-11 0 4 22 -8 4 -6 0
-13 -2 4 22 -8 4 -6 -2
-15 -3 4 22 -7 5 -6 -3
-17 -4 4 22 -7 5 -6 -4
-19 -6 5 22 -6 6 -5 -5
-19 -6 5 22 -6 6 -5 -5
-19 -6 6 22 -5 6 -5 -5
-18 -5 6 22 -5 7 -4 -5
-18 -5 7 22 -4 7 -4 -5
-17 -4 8 21 -3 8 -3 -4
-16 -4 7 20 -4 7 -4 -5
-15 -4 6 18 -5 6 -5 -7
-14 -4 4 17 -7 5 -6 -9
-13 -4 3 15 -8 4 -7 -11
-12 -3 1 13 -10 2 -9 -13
-12 -3 2 13 -10 2 -9 -13
-13 -3 3 13 -9 3 -8 -12
-14 -3 4 13 -9 4 -7 -12
-15 -3 5 13 -8 5 -6 -11
-16 -4 6 13 -7 6 -5 -10
-16 -4 6 13 -8 5 -5 -11
-17 -4 5 12 -9 4 -5 -12
-17 -4 4 11 -10 3 -6 -13
-18 -4 3 10 -11 2 -6 -14
-19 -3 2 9 -12 0 -7 -15
-18 -4 2 9 -12 0 -7 -16
-16 -5 2 9 -12 0 -7 -17
-14 -6 3 9 -12 0 -8 -18
-12 -7 3 9 -12 0 -8 -19
-10 -8 4 9 -12 0 -9 -20
-10 -8 4 9 -12 0 -9 -20
-10 -7 4 8 -12 0 -9 -20
-9 -6 4 8 -12 0 -9 -21
-9 -5 4 7 -12 0 -9 -21
-8 -4 4 6 -12 -2 -8 -22
-9 -4 4 6 -11 0 -8 -19
-11 -4 5 6 -10 1 -7 -17
-13 -4 5 6 -9 2 -6 -14
-15 -4 6 6 -8 3 -5 -11
-17 -5 7 7 -6 5 -4 -8
-17 -5 7 7 -6 5 -4 -8
-16 -5 7 7 -6 5 -4 -8
-15 -5 7 6 -6 4 -5 -8
-14 -5 7 6 -6 4 -5 -8
-13 -4 7 5 -7 3 -6 -7
-12 -3 7 5 -7 3 -6 -7
-11 -2 7 5 -7 3 -6 -7
-9 0 8 5 -7 4 -6 -8
-8 1 8 5 -7 4 -6 -8
-6 2 9 4 -7 5 -7 -9
-7 2 11 5 -5 6 -6 -9
-8 3 13 7 -3 7 -4 -9
-9 3 16 8 0 8 -3 -8
-10 4 18 10 2 9 0 -8
-11 5 21 12 4 11 2 -7
-11 5 20 12 4 11 2 -7
-11 6 19 11 3 10 2 -8
-11 7 18 11 3 10 1 -9
-11 8 17 10 2 9 1 -10
-10 9 16 9 1 8 0 -11
-9 9 16 9 1 8 0 -11
-7 9 15 9 1 8 0 -11
-5 9 14 8 1 8 0 -11
-3 9 13 8 1 8 0 -11
0 9 12 7 2 8 0 -11
0 9 12 6 2 8 0 -11
0 8 11 4 1 8 -2 -12
0 8 10 3 0 7 -2 -13
0 7 9 1 -2 7 -3 -14
1 6 8 -2 -3 6 -4 -15
0 4 8 -3 -3 6 -4 -16
-3 1 7 -5 -4 5 -5 -18
-4 -2 7 -7 -4 4 -5 -20
-6 -5 6 -9 -5 3 -6 -22
-8 -8 5 -11 -6 2 -7 -24
-7 -8 5 -11 -6 2 -7 -23
-6 -7 5 -11 -6 2 -7 -22
-5 -6 5 -11 -6 2 -7 -21
-4 -5 5 -11 -6 2 -7 -20
-2 -4 6 -11 -6 1 -7 -18
-3 -4 6 -11 -6 1 -7 -18
-4 -4 7 -11 -6 1 -7 -18
-6 -4 8 -11 -7 1 -7 -17
-7 -4 9 -11 -7 1 -7 -17
-9 -5 10 -11 -8 1 -6 -16
-9 -6 10 -11 -8 1 -6 -16
-9 -8 10 -11 -8 0 -6 -15
-9 -9 10 -12 -8 -2 -6 -15
-9 -11 10 -12 -8 -3 -6 -14
-8 -13 9 -13 -9 -4 -7 -13
-9 -13 9 -13 -9 -4 -7 -13
-11 -12 9 -13 -9 -4 -7 -12
-12 -11 9 -12 -8 -4 -7 -12
-14 -10 9 -12 -8 -4 -7 -11
-16 -9 9 -11 -7 -4 -7 -10
-16 -10 9 -11 -7 -4 -7 -10
-16 -11 9 -12 -7 -5 -7 -9
-15 -12 9 -12 -8 -5 -7 -9
-15 -13 9 -13 -8 -6 -7 -8
-14 -15 8 -14 -9 -7 -8 -7
-14 -14 8 -13 -9 -7 -8 -7
-13 -13 9 -12 -8 -6 -8 -7
-13 -12 10 -10 -8 -6 -8 -7
-12 -11 11 -9 -7 -5 -8 -7
-11 -9 12 -7 -6 -4 -8 -8
-11 -9 12 -7 -6 -4 -8 -8
-11 -9 12 -7 -6 -4 -8 -8
-12 -9 13 -7 -6 -4 -9 -7
-12 -9 13 -7 -6 -4 -9 -7
-13 -8 14 -6 -6 -5 -10 -6
-14 -8 16 -4 -5 -5 -10 -4
-16 -9 19 -2 -4 -4 -9 0
-17 -10 22 2 -3 -3 -8 2
-19 -11 25 4 -2 -2 -7 5
-21 -12 28 7 0 0 -6 8
-18 -6 33 17 8 6 -2 11
-15 2 38 27 16 13 3 15
-12 8 44 37 25 19 7 19
-9 15 49 48 33 26 11 23
-6 22 54 58 43 33 15 27
14 33 49 63 53 45 27 33
33 46 43 69 63 56 40 40
53 58 37 74 73 67 54 47
72 70 31 80 84 78 67 54
93 82 25 87 94 91 80 61
113 86 1 75 94 91 82 62
135 89 -24 64 94 90 86 64
155 92 -49 53 95 90 89 65
177 95 -73 42 95 89 92 67
198 99 -99 29 96 88 95 69
178 74 -104 9 66 62 70 51
157 49 -109 -13 36 36 46 31
138 24 -115 -33 7 12 22 12
117 -2 -120 -55 -23 -14 -3 -8
97 -26 -126 -75 -53 -39 -27 -26
78 -28 -110 -70 -53 -40 -29 -27
60 -30 -93 -64 -52 -40 -30 -28
42 -32 -76 -58 -50 -40 -31 -29
23 -34 -59 -52 -49 -40 -32 -30
5 -35 -43 -46 -48 -40 -33 -31
2 -34 -33 -36 -41 -36 -33 -32
0 -32 -24 -27 -35 -32 -31 -31
-3 -29 -15 -19 -29 -27 -29 -31
-5 -27 -6 -10 -23 -23 -27 -30
-7 -25 4 -2 -17 -19 -26 -30
-9 -24 7 2 -15 -17 -24 -28
-11 -23 10 5 -14 -16 -22 -27
-12 -22 13 8 -12 -14 -20 -25
-14 -21 16 11 -11 -13 -18 -24
-15 -20 18 13 -10 -12 -17 -23
-16 -19 19 14 -9 -11 -16 -22
-16 -18 20 14 -9 -11 -15 -23
-16 -17 20 14 -9 -11 -15 -23
-16 -16 21 14 -9 -11 -14 -24
-16 -16 21 14 -9 -11 -14 -24
-17 -15 22 13 -8 -11 -13 -25
-19 -16 22 12 -7 -11 -13 -25
-21 -16 22 11 -6 -10 -12 -25
-23 -17 22 10 -5 -10 -12 -25
-24 -17 22 9 -5 -10 -12 -25
-24 -17 23 8 -4 -8 -11 -25
-23 -15 23 9 -4 -7 -10 -25
-22 -14 24 10 -3 -5 -10 -24
-21 -12 24 11 -3 -4 -9 -24
-20 -11 24 12 -3 -3 -9 -24
-19 -10 25 13 -2 -3 -8 -24
-19 -11 25 14 -3 -4 -9 -26
-20 -11 25 15 -3 -6 -9 -27
-20 -12 25 16 -4 -7 -10 -29
-20 -12 25 16 -4 -8 -10 -30
-19 -13 26 19 -4 -8 -11 -31
-17 -13 27 21 -3 -7 -10 -30
-15 -13 28 23 0 -6 -9 -29
-13 -13 29 25 1 -5 -8 -28
-11 -13 30 27 2 -4 -8 -28
-11 -14 31 28 3 -3 -7 -27
-13 -14 30 28 2 -4 -7 -28
-15 -15 29 28 2 -5 -8 -29
-17 -15 28 28 1 -6 -8 -30
-19 -15 28 28 1 -6 -8 -31
-18 -15 27 28 0 -7 -9 -32
-15 -14 26 28 0 -7 -9 -32
-12 -12 26 29 1 -7 -8 -32
-9 -11 25 29 1 -7 -8 -32
-7 -10 25 29 1 -7 -8 -32
-7 -9 24 30 2 -8 -7 -31
-9 -8 24 31 1 -9 -7 -29
-11 -8 25 31 1 -9 -8 -27
-13 -7 25 32 0 -10 -8 -25
-15 -7 25 32 0 -10 -8 -24
-15 -6 26 31 -2 -11 -9 -22
-13 -7 26 28 -2 -11 -9 -21
-11 -7 25 25 -2 -11 -8 -20
-9 -8 25 22 -2 -11 -8 -19
-8 -8 25 19 -2 -11 -8 -18
-8 -9 24 13 0 -11 -7 -17
-10 -10 24 7 -2 -11 -7 -16
-12 -11 23 1 -2 -11 -7 -15
-14 -12 23 -6 -3 -11 -7 -14
-15 -13 23 -12 -3 -11 -7 -13
-15 -14 22 -14 -4 -11 -7 -12
-14 -14 22 -15 -3 -10 -6 -11
-12 -13 23 -16 -2 -10 -5 -11
-11 -13 23 -17 0 -9 -4 -10
-10 -13 23 -18 1 -9 -4 -10
-9 -11 24 -19 2 -8 -3 -8
-9 -10 23 -20 2 -8 -3 -6
-9 -8 22 -21 1 -8 -3 -5
-9 -7 21 -22 1 -8 -3 -3
-9 -6 21 -23 1 -8 -3 -2
-8 -4 20 -26 0 -9 -3 2
-7 -3 20 -28 0 -8 -2 4
-6 -2 20 -30 0 -7 0 6
-5 0 20 -32 0 -6 1 8
-4 1 20 -34 0 -6 2 10
-3 2 19 -37 1 -5 2 11
-3 1 18 -40 1 -5 0 12
-2 1 16 -43 1 -5 -2 12
-2 0 15 -46 1 -5 -4 13
-2 0 14 -48 1 -5 -5 13
1 1 11 -51 1 -5 -6 15
3 3 9 -53 1 -5 -6 17
4 5 6 -56 1 -4 -6 18
6 7 4 -58 1 -4 -6 20
7 9 2 -60 1 -4 -6 21
9 10 1 -62 1 -3 -6 22
11 11 1 -63 1 -3 -5 22
13 12 1 -65 1 -2 -5 22
15 13 1 -66 1 -2 -4 22
16 13 1 -67 1 -2 -4 22
18 14 -2 -68 1 0 -3 22
20 14 -3 -67 2 1 -2 22
21 15 -5 -66 2 1 0 22
23 15 -6 -65 3 2 1 22
24 15 -7 -64 3 2 2 22
26 16 -10 -63 4 3 3 22
27 17 -12 -62 3 3 3 21
28 17 -14 -61 2 3 3 21
29 18 -17 -60 1 3 3 20
30 18 -19 -59 0 3 3 20
31 19 -19 -55 -2 4 2 19
31 18 -18 -51 0 4 2 19
31 18 -16 -47 1 4 2 19
31 17 -15 -44 2 4 2 19
31 17 -14 -39 2 4 2 19
30 13 -13 -36 3 4 2 17
31 9 -13 -33 2 3 1 15
32 5 -12 -30 2 1 1 13
33 1 -12 -27 1 0 0 11
34 -4 -12 -24 1 -2 0 10
33 -3 -9 -21 0 -3 -2 9
30 0 -7 -18 1 -2 -2 9
27 2 -4 -15 2 0 0 8
24 5 0 -13 3 1 0 8
21 7 2 -10 3 2 0 8
20 8 4 -7 4 3 1 6
20 8 7 -5 4 3 0 4
20 7 9 -2 4 2 -2 2
20 7 11 2 4 2 -3 0
20 7 13 4 4 2 -4 -2
18 6 16 7 5 1 -5 -3
15 5 18 11 6 1 -5 -3
12 4 21 14 8 1 -5 -4
10 3 24 17 9 1 -5 -4
7 3 26 20 10 1 -5 -4
6 1 27 21 10 0 -6 -7
6 -2 28 22 9 -2 -7 -9
5 -3 28 23 8 -3 -8 -11
5 -5 29 24 7 -4 -9 -14
5 -6 29 25 6 -5 -10 -16
2 -7 30 27 5 -6 -11 -17
0 -7 31 29 6 -5 -11 -17
-3 -7 31 30 6 -4 -10 -17
-6 -7 32 32 7 -3 -10 -17
-8 -7 32 33 7 -3 -10 -17
-9 -6 33 34 8 -2 -9 -18
-9 -5 34 35 8 -2 -9 -19
-9 -5 34 36 8 -2 -9 -20
-9 -4 35 37 8 -2 -9 -21
-9 -4 35 37 8 -2 -9 -21
-10 -3 36 38 8 0 -9 -23
-9 -3 36 39 8 0 -10 -24
-8 -3 36 40 8 0 -10 -25
-7 -3 36 42 8 0 -11 -26
-7 -3 36 43 8 0 -11 -27
-7 -3 35 44 9 0 -12 -28
-8 -5 34 44 8 -2 -13 -29
-10 -6 33 44 7 -3 -14 -29
-11 -8 32 44 6 -4 -15 -30
-12 -9 31 44 5 -4 -15 -30
-13 -10 30 44 5 -5 -15 -29
-12 -9 31 46 6 -4 -14 -26
-12 -8 32 48 7 -3 -12 -23
-11 -7 33 50 8 -2 -11 -20
-11 -6 34 52 9 0 -10 -17
-10 -5 35 53 10 1 -9 -16
-11 -6 35 53 9 1 -9 -16
-12 -7 35 53 9 1 -10 -16
-13 -8 35 53 8 1 -10 -16
-13 -8 35 53 8 1 -10 -16
-14 -9 35 53 7 0 -11 -15
-13 -8 35 54 7 0 -11 -14
-13 -8 35 54 7 0 -10 -13
-12 -7 35 55 7 0 -10 -12
-12 -7 35 55 7 0 -10 -11
-11 -6 34 56 7 1 -9 -10
-11 -6 34 56 7 1 -9 -10
-10 -6 35 57 7 1 -9 -10
-10 -6 35 57 7 1 -9 -10
-10 -6 35 57 7 1 -9 -10
-9 -6 36 59 6 1 -7 -8
-9 -5 36 60 7 2 -6 -6
-9 -4 36 61 8 2 -5 -4
-9 -3 36 63 9 3 -3 0
-9 -2 36 64 9 3 -2 2
-9 0 36 65 10 4 0 3
-9 0 36 65 10 4 -2 3
-9 0 36 65 10 4 -2 3
-9 0 36 65 10 4 -3 3
-9 0 36 65 10 4 -3 3
-10 -2 35 66 9 4 -4 2
-10 -3 33 65 8 3 -5 3
-11 -3 31 64 7 2 -5 3
-11 -4 29 63 6 1 -6 4
-11 -4 27 62 5 1 -6 4
-12 -4 27 63 5 0 -6 6
-11 -3 29 65 6 1 -5 8
-10 -2 31 67 7 2 -4 10
-9 0 32 70 8 3 -2 12
-8 1 34 72 9 4 0 14
-7 2 34 73 10 5 1 15
-7 2 33 73 10 5 1 15
-7 2 32 73 9 5 1 15
-7 2 31 73 9 5 1 15
-7 2 30 73 9 5 1 15
-7 3 29 73 8 4 0 14
-6 3 29 74 8 4 0 15
-5 2 29 75 8 4 0 16
-3 2 29 76 8 4 0 17
-2 2 29 77 8 4 0 17
-2 1 30 78 7 5 -2 18
-3 1 30 79 8 5 -2 20
-4 2 30 80 9 4 0 21
-6 2 30 81 10 4 0 22
-7 2 30 81 10 4 0 23
-8 3 31 82 11 3 1 24
-8 2 31 82 11 3 1 24
-8 1 31 82 10 3 1 24
-8 0 31 82 10 3 1 24
-8 0 31 82 10 3 1 24
-9 -2 29 82 9 3 1 24
-11 -3 26 81 8 3 1 25
-12 -4 24 79 7 2 1 26
-13 -5 22 77 6 2 1 27
-14 -6 20 76 5 2 1 27
-14 -7 20 75 4 1 0 28
-13 -5 21 76 5 1 0 29
-11 -4 23 77 5 1 1 30
-9 -3 25 78 6 1 1 31
-8 -2 26 78 6 1 1 32
-7 -2 26 78 7 2 2 32
-8 -3 25 77 6 1 1 30
-8 -5 23 76 5 0 0 27
-9 -7 21 74 4 -2 -2 25
-9 -8 20 73 3 -3 -3 23
-9 -8 19 72 2 -4 -4 22
-8 -6 21 72 3 -3 -3 22
-7 -3 22 72 3 -3 -3 22
-5 0 23 72 4 -2 -2 22
-4 2 24 72 4 -2 -2 22
-3 3 25 72 5 0 0 23
-3 3 25 72 6 1 1 23
-3 3 25 72 7 1 2 22
-3 3 25 72 8 2 3 22
-3 3 25 72 8 2 3 22
-4 5 26 73 10 4 5 21
-4 8 28 74 11 6 7 21
-3 10 29 75 13 8 9 22
-3 13 30 76 15 9 11 22
-3 16 31 77 16 11 13 22
-2 16 32 78 17 12 14 23
-3 15 31 77 16 12 14 22
-4 13 31 76 15 11 13 22
-5 11 30 75 14 11 13 21
-5 10 30 75 13 11 13 21
-6 10 29 74 12 10 12 20
-5 12 29 74 12 10 12 20
-4 14 28 75 13 10 13 20
-3 15 28 75 13 10 13 20
-2 17 28 75 13 10 13 20
0 18 25 74 14 11 12 21
1 17 21 70 13 10 9 20
1 16 18 66 12 10 7 19
2 15 15 63 11 9 4 18
2 15 11 59 11 9 1 18
3 14 10 58 10 8 0 16
3 12 10 56 8 6 -2 14
4 11 11 55 7 5 -2 12
4 10 11 54 6 4 -3 11
4 9 11 53 5 3 -3 9
5 7 12 51 4 2 -4 8
4 6 12 49 4 1 -4 8
4 4 12 46 4 0 -4 7
3 2 12 44 4 -2 -4 7
3 1 12 42 4 -2 -4 7
1 0 13 37 3 -3 -4 6
-2 0 13 32 3 -3 -4 5
-4 0 13 27 4 -2 -4 4
-5 0 13 22 4 -2 -4 3
-7 0 13 17 4 -2 -4 3
-8 0 14 15 5 0 -4 2
-8 -4 13 13 4 -2 -4 0
-9 -6 12 12 3 -2 -5 -2
-9 -9 11 11 2 -3 -5 -3
-9 -11 11 10 1 -3 -5 -4
-10 -12 10 7 0 -4 -6 -5
-10 -10 10 4 -2 -4 -6 -5
-11 -9 10 1 -2 -4 -6 -5
-11 -8 10 -3 -3 -4 -6 -5
-11 -7 10 -6 -3 -4 -6 -5
-12 -6 10 -9 -4 -5 -5 -6
-12 -6 9 -12 -5 -5 -5 -7
-12 -6 8 -15 -5 -5 -6 -8
-12 -6 6 -18 -6 -5 -6 -9
-12 -6 5 -21 -6 -5 -6 -9
-12 -7 4 -23 -7 -5 -7 -10
-11 -6 5 -24 -6 -5 -7 -8
-10 -5 6 -25 -5 -5 -6 -7
-9 -4 7 -27 -4 -5 -6 -6
-8 -4 7 -28 -3 -5 -6 -5
-8 -4 8 -31 -2 -5 -5 -3
-9 -6 8 -35 -3 -6 -5 -2
-10 -8 7 -39 -3 -7 -6 0
-12 -10 7 -44 -4 -8 -6 2
-13 -12 7 -48 -4 -8 -6 3
-13 -12 6 -49 -6 -9 -8 4
-11 -11 6 -50 -7 -9 -10 4
-10 -9 6 -51 -8 -9 -11 5
-8 -7 6 -52 -10 -9 -13 5
-6 -6 6 -52 -11 -9 -15 5
-8 -5 11 -49 -8 -7 -13 9
-13 -3 19 -41 0 -2 -9 13
-18 -2 27 -34 7 4 -5 17
-23 0 35 -28 13 9 0 21
-27 1 44 -21 20 13 4 25
-18 11 47 -12 32 24 14 33
-3 25 46 -2 46 37 25 42
14 38 45 8 59 51 37 51
29 52 44 18 73 64 49 59
46 65 43 28 87 77 61 67
66 77 22 25 94 89 73 76
90 89 -5 16 100 99 86 86
113 100 -31 8 105 108 98 95
136 111 -58 -2 110 118 110 103
159 123 -85 -10 115 129 122 112
163 109 -101 -27 99 113 110 101
159 85 -115 -47 73 87 87 81
155 60 -129 -67 48 60 63 62
151 35 -143 -87 22 34 39 43
147 11 -156 -106 -4 8 16 23
128 0 -150 -117 -18 -6 4 14
102 -7 -137 -126 -27 -14 -5 9
77 -12 -122 -134 -37 -22 -14 4
52 -18 -108 -142 -47 -31 -23 -2
27 -24 -94 -149 -57 -39 -31 -7
17 -27 -81 -145 -58 -43 -34 -9
11 -28 -69 -136 -54 -40 -34 -9
6 -29 -58 -126 -51 -39 -34 -10
0 -31 -46 -115 -47 -38 -34 -10
-6 -32 -34 -105 -43 -37 -34 -10
-8 -30 -27 -99 -38 -34 -32 -10
-7 -25 -22 -94 -34 -30 -29 -8
-6 -20 -17 -89 -29 -27 -27 -6
-6 -16 -13 -85 -25 -23 -25 -4
-5 -11 -8 -79 -21 -19 -22 -2
-5 -9 -6 -77 -19 -18 -21 0
-7 -10 -6 -77 -18 -18 -21 0
-9 -11 -6 -77 -18 -18 -21 -2
-11 -11 -6 -77 -17 -18 -21 -2
-13 -12 -6 -77 -17 -18 -21 -2
-14 -13 -5 -76 -16 -18 -22 -3
-14 -12 -5 -77 -16 -17 -22 -3
-14 -11 -5 -77 -16 -16 -21 -3
-14 -11 -5 -78 -16 -16 -21 -3
-14 -10 -5 -78 -16 -15 -21 -3
-13 -9 -5 -78 -17 -14 -20 -4
-13 -9 -3 -77 -15 -14 -19 -4
-13 -9 -2 -75 -14 -14 -19 -4
-13 -9 0 -74 -13 -14 -18 -4
-13 -9 1 -72 -12 -14 -18 -4
-12 -8 2 -71 -11 -13 -17 -3
-12 -8 1 -73 -12 -14 -18 -4
-12 -8 0 -74 -12 -15 -19 -5
-12 -8 -2 -75 -13 -15 -19 -5
-12 -8 -3 -76 -13 -16 -20 -6
-13 -8 -4 -78 -14 -17 -21 -7
-12 -8 -4 -81 -13 -16 -20 -7
-12 -8 -4 -85 -12 -16 -19 -7
-11 -8 -4 -88 -11 -15 -19 -7
-11 -8 -4 -91 -10 -15 -18 -7
-10 -8 -4 -92 -9 -14 -17 -8
-11 -8 -4 -92 -9 -14 -17 -8
-11 -7 -5 -93 -10 -15 -17 -8
-12 -7 -5 -93 -10 -15 -17 -8
-12 -7 -5 -93 -10 -15 -17 -8
-13 -6 -6 -94 -11 -16 -18 -7
-12 -7 -6 -95 -11 -16 -18 -8
-12 -8 -6 -96 -12 -16 -18 -9
-11 -9 -6 -97 -12 -16 -18 -9
-11 -10 -6 -98 -12 -16 -18 -10
-10 -11 -5 -99 -13 -16 -18 -11
-10 -11 -5 -100 -13 -16 -18 -11
-11 -10 -6 -101 -12 -16 -17 -11
-11 -10 -6 -101 -12 -16 -17 -11
-11 -10 -6 -102 -12 -16 -17 -11
-12 -9 -7 -103 -11 -17 -16 -12
-12 -10 -8 -103 -11 -17 -16 -12
-12 -11 -8 -104 -12 -17 -17 -12
-12 -12 -9 -104 -12 -17 -17 -12
-12 -13 -9 -104 -12 -17 -17 -12
-13 -14 -10 -105 -13 -16 -18 -11
-11 -12 -10 -105 -13 -16 -18 -11
-10 -11 -11 -106 -14 -17 -17 -10
-8 -9 -11 -106 -14 -17 -17 -10
-7 -8 -11 -106 -14 -17 -17 -10
-6 -7 -13 -107 -15 -18 -16 -8
-7 -7 -14 -107 -14 -17 -16 -7
-7 -8 -16 -107 -14 -17 -15 -5
-8 -8 -17 -107 -13 -16 -15 -4
-8 -8 -19 -107 -13 -16 -15 -2
-9 -9 -20 -106 -12 -15 -14 1
-9 -9 -21 -106 -12 -15 -14 4
-9 -9 -21 -105 -12 -15 -13 6
-9 -9 -22 -105 -12 -15 -13 9
-9 -9 -22 -105 -12 -15 -13 12
-8 -7 -23 -104 -13 -16 -12 14
-6 -4 -25 -103 -12 -15 -12 16
-5 -2 -26 -103 -12 -14 -11 17
-3 1 -27 -102 -11 -14 -11 19
0 4 -28 -102 -11 -13 -11 21
1 5 -29 -101 -10 -12 -10 22
1 5 -31 -101 -10 -13 -10 20
2 5 -32 -102 -11 -13 -10 19
2 5 -33 -102 -11 -14 -10 18
2 5 -34 -102 -11 -14 -10 17
5 6 -35 -103 -12 -15 -9 16
8 7 -35 -102 -11 -13 -7 17
11 7 -35 -102 -10 -12 -6 18
14 8 -35 -101 -10 -11 -4 19
17 8 -35 -101 -9 -10 -2 20
19 9 -37 -100 -8 -9 0 21
18 8 -39 -100 -8 -9 0 21
17 7 -41 -101 -9 -8 1 21
16 6 -44 -101 -9 -8 2 21
15 5 -46 -101 -9 -8 2 21
14 4 -48 -102 -10 -7 3 20
15 4 -51 -103 -10 -7 3 20
16 4 -54 -104 -11 -8 2 20
16 4 -57 -104 -12 -8 1 20
17 4 -60 -105 -12 -8 1 20
20 4 -61 -106 -12 -9 -2 20
24 6 -61 -105 -11 -8 -3 21
28 7 -61 -104 -9 -6 -5 23
31 9 -61 -104 -7 -5 -7 25
35 10 -61 -103 -5 -4 -9 27
36 11 -60 -102 -4 -3 -10 28
35 11 -60 -102 -4 -3 -11 27
33 12 -61 -101 -5 -3 -12 26
32 13 -61 -101 -5 -3 -12 25
30 13 -61 -101 -5 -3 -13 24
29 14 -62 -100 -6 -2 -14 23
29 13 -62 -100 -6 -2 -14 22
29 12 -61 -100 -6 -2 -14 20
29 11 -60 -100 -6 -2 -14 19
29 10 -60 -100 -6 -2 -14 18
30 9 -58 -98 -7 -3 -14 17
29 9 -55 -97 -7 -5 -15 16
28 8 -53 -95 -8 -6 -16 14
28 8 -50 -93 -8 -8 -16 13
27 8 -47 -91 -8 -9 -17 12
25 6 -45 -90 -9 -10 -18 11
22 5 -41 -90 -9 -10 -18 11
19 3 -39 -90 -9 -9 -18 10
16 1 -36 -90 -9 -8 -18 10
14 -2 -33 -90 -9 -8 -18 10
12 -3 -32 -88 -8 -7 -19 9
11 -2 -30 -87 -8 -8 -20 8
10 0 -29 -85 -7 -9 -21 7
9 0 -27 -82 -6 -9 -21 6
8 1 -26 -80 -6 -10 -22 5
7 2 -24 -79 -5 -11 -23 4
6 0 -22 -79 -5 -11 -23 4
5 -2 -19 -79 -5 -11 -23 3
5 -4 -17 -79 -5 -11 -23 2
4 -5 -14 -79 -5 -11 -23 2
2 -6 -12 -78 -5 -12 -23 1
-2 -6 -11 -76 -5 -11 -23 1
-4 -6 -9 -75 -4 -9 -23 2
-7 -6 -8 -73 -3 -8 -23 3
-10 -6 -6 -72 -3 -7 -23 3
-11 -5 -5 -71 -2 -6 -22 4
-11 -5 -5 -72 -2 -7 -23 2
-10 -5 -6 -73 -3 -8 -24 1
-9 -5 -6 -73 -4 -9 -25 -2
-9 -5 -6 -74 -4 -10 -26 -3
-8 -5 -7 -75 -5 -11 -27 -4
-9 -7 -7 -75 -5 -11 -27 -4
-10 -9 -7 -74 -5 -12 -28 -5
-11 -10 -7 -74 -5 -12 -29 -5
-12 -12 -7 -74 -5 -12 -29 -5
-13 -13 -7 -73 -6 -13 -30 -6
-13 -12 -6 -72 -6 -13 -29 -6
-13 -11 -4 -71 -5 -12 -27 -5
-13 -11 -3 -70 -4 -12 -26 -5
-13 -10 -2 -69 -4 -12 -25 -5
-13 -9 0 -68 -3 -11 -24 -4
-14 -9 0 -68 -3 -11 -24 -4
-15 -10 0 -69 -3 -11 -25 -5
-15 -11 0 -69 -3 -11 -25 -5
-16 -11 0 -69 -3 -11 -25 -5
-17 -12 -2 -70 -4 -10 -26 -6
-17 -12 -2 -70 -4 -10 -26 -6
-16 -11 -2 -70 -3 -10 -25 -6
-16 -10 -2 -70 -3 -10 -25 -6
-16 -10 -2 -70 -3 -10 -25 -6
-15 -9 -2 -69 -2 -10 -24 -5
-14 -9 -2 -69 -2 -10 -25 -5
-12 -9 -2 -69 -2 -10 -26 -5
-11 -9 -2 -69 -2 -10 -26 -5
-10 -9 -2 -69 -2 -10 -27 -5
-10 -9 -2 -69 -3 -11 -28 -6
-11 -9 -2 -68 -2 -10 -27 -6
-13 -9 0 -67 0 -9 -26 -6
-15 -9 0 -67 1 -8 -25 -6
-17 -9 0 -66 2 -7 -24 -6
-18 -10 1 -65 3 -6 -23 -5
-18 -10 3 -63 4 -6 -23 -5
-18 -9 4 -61 5 -5 -22 -5
-18 -9 6 -60 5 -4 -21 -5
-18 -9 7 -58 6 -4 -21 -5
-17 -8 8 -57 7 -3 -20 -4
-17 -8 8 -57 6 -3 -20 -4
-17 -7 7 -58 5 -4 -20 -5
-17 -6 6 -59 5 -4 -20 -5
-17 -6 6 -59 4 -4 -20 -5
-16 -5 5 -60 3 -5 -20 -6
-15 -5 5 -60 3 -5 -20 -6
-14 -4 4 -59 3 -5 -20 -7
-14 -4 3 -59 3 -5 -20 -7
-13 -4 3 -59 3 -5 -20 -7
-12 -3 2 -57 3 -6 -20 -8
-12 -2 2 -55 3 -5 -20 -8
-12 0 3 -53 4 -4 -19 -8
-12 0 4 -51 5 -4 -18 -8
-12 1 4 -48 5 -3 -18 -8
-11 2 5 -47 6 -2 -17 -7
-12 2 5 -47 6 -2 -17 -7
-13 1 5 -47 6 -3 -18 -7
-14 0 5 -47 6 -4 -19 -7
-15 0 5 -47 6 -4 -19 -7
-16 -2 5 -46 6 -5 -20 -8
-15 -2 5 -44 6 -5 -20 -8
-14 -2 6 -43 6 -4 -19 -8
-14 -2 7 -40 6 -4 -18 -8
-13 -2 7 -39 6 -4 -18 -8
-12 -3 8 -38 7 -3 -17 -8
-12 -4 7 -38 7 -3 -17 -8
-12 -5 6 -37 7 -3 -17 -8
-12 -5 6 -37 7 -3 -17 -8
-12 -6 5 -37 7 -3 -17 -8
-12 -7 4 -36 6 -3 -17 -9
-14 -6 4 -36 6 -3 -18 -9
-16 -4 4 -35 5 -4 -19 -9
-17 -3 4 -35 4 -5 -20 -9
-19 -2 4 -35 4 -5 -21 -9
-19 0 4 -34 3 -6 -22 -9
-17 0 4 -34 3 -6 -22 -8
-15 -2 4 -34 4 -6 -21 -6
-13 -2 4 -34 4 -6 -20 -4
-11 -2 4 -34 4 -6 -20 -2
-10 -3 4 -33 5 -6 -19 0
-10 -3 4 -33 5 -6 -19 2
-10 -4 5 -32 5 -6 -20 4
-10 -4 6 -32 5 -6 -21 5
-10 -4 6 -32 5 -6 -21 7
-10 -5 7 -31 4 -6 -22 8
-9 -3 7 -30 4 -6 -21 7
-8 0 8 -28 5 -6 -20 6
-7 1 8 -27 5 -6 -20 6
-6 3 8 -26 5 -6 -19 5
-5 4 9 -25 6 -5 -18 4
-6 4 9 -25 6 -5 -16 4
-7 5 10 -26 7 -5 -14 4
-7 6 10 -26 7 -5 -12 4
-8 6 10 -26 7 -5 -10 4
-9 7 11 -25 8 -5 -8 5
-9 7 12 -20 9 -3 -6 6
-9 8 13 -16 11 -2 -3 7
-9 9 14 -11 12 0 0 7
-9 9 15 -7 13 2 2 8
-10 10 16 -4 14 3 4 9
-10 10 18 -4 14 3 5 9
-9 11 19 -4 15 4 7 9
-8 12 20 -4 15 4 8 9
-8 12 22 -4 15 4 9 9
-7 13 23 -3 16 5 10 8
-7 13 22 -3 16 5 11 8
-8 13 21 -3 16 6 12 9
-9 13 20 -3 16 6 12 9
-9 13 19 -3 16 6 13 9
-9 12 18 -4 16 7 14 10
-7 12 16 -5 16 7 14 10
-5 12 14 -6 15 7 14 10
-3 12 13 -6 14 7 14 10
0 12 11 -7 14 7 14 10
0 11 10 -8 13 6 14 9
-3 9 9 -8 12 5 13 7
-5 7 8 -9 10 4 11 5
-7 5 8 -9 9 4 10 4
-9 3 7 -9 8 3 9 2
-11 2 6 -10 7 2 8 1
-9 2 6 -10 6 1 8 0
-7 2 5 -10 5 0 7 -2
-6 2 4 -10 4 -2 6 -2
-4 2 4 -10 3 -3 6 -3
-3 2 3 -10 2 -4 5 -4
-4 2 4 -10 2 -4 5 -4
-5 2 5 -9 2 -3 5 -4
-5 2 6 -8 2 -2 5 -4
-6 2 7 -8 2 -2 5 -4
-8 0 8 -7 2 0 5 -4
-10 -3 8 -7 1 0 4 -5
-12 -5 8 -8 -2 0 3 -6
-14 -7 8 -8 -3 0 2 -6
-16 -9 8 -8 -4 0 1 -7
-18 -11 7 -9 -5 -2 0 -8
-18 -11 7 -8 -5 -2 0 -8
-18 -10 7 -7 -4 -2 0 -8
-18 -9 7 -7 -4 -2 0 -8
-18 -9 7 -6 -4 -2 0 -8
-17 -8 6 -5 -3 -2 1 -8
-18 -9 6 -5 -3 -2 1 -8
-19 -10 7 -4 -3 -3 1 -9
-20 -10 8 -3 -3 -3 1 -9
-21 -11 8 -3 -3 -3 1 -9
-22 -12 9 -2 -3 -4 1 -10
-21 -12 9 -2 -3 -3 2 -10
-19 -12 9 0 -2 -2 3 -9
-18 -12 9 0 0 -2 3 -9
-17 -12 9 0 0 0 4 -9
-16 -11 10 1 1 1 5 -8
-17 -11 10 0 1 1 5 -8
-18 -12 10 -2 1 1 4 -9
-18 -13 10 -2 1 1 3 -10
-19 -13 10 -3 1 1 3 -10
-20 -14 10 -4 0 0 2 -11
-20 -13 11 -4 0 0 1 -11
-20 -13 12 -4 0 0 1 -11
-21 -12 14 -4 0 0 0 -11
-21 -11 15 -4 0 0 -2 -11
-22 -9 19 1 3 1 -2 -11
-23 -5 26 9 9 5 3 -9
-23 -2 33 16 14 9 6 -7
-24 2 42 24 20 13 9 -5
-25 6 49 32 26 17 13 -3
-20 14 53 42 36 25 21 4
-7 27 51 53 51 39 34 15
8 40 50 64 65 54 48 25
21 54 49 76 80 68 61 36
35 67 47 88 95 82 74 48
55 79 32 91 105 95 87 58
80 93 5 82 111 105 99 66
106 105 -24 75 116 114 111 74
132 117 -52 68 121 125 123 84
157 130 -79 60 128 135 136 92
168 126 -101 47 119 129 133 88
160 101 -114 27 94 103 111 69
153 76 -129 7 69 77 89 50
146 52 -142 -13 45 53 67 31
139 27 -156 -32 19 27 46 12
125 10 -156 -48 1 10 29 0
103 1 -140 -57 -11 0 20 -6
81 -9 -123 -65 -22 -11 10 -10
60 -19 -108 -74 -33 -21 1 -15
38 -28 -92 -83 -46 -31 -10 -20
24 -33 -77 -83 -50 -37 -15 -23
17 -33 -65 -72 -46 -35 -15 -23
11 -33 -54 -61 -41 -34 -16 -23
5 -34 -41 -50 -37 -32 -17 -24
-2 -34 -30 -38 -33 -30 -17 -24
-7 -34 -21 -31 -28 -28 -17 -24
-9 -30 -17 -27 -24 -24 -14 -21
-12 -26 -13 -23 -19 -20 -11 -19
-15 -22 -8 -19 -15 -16 -7 -16
-17 -19 -4 -15 -10 -13 -4 -13
-19 -16 0 -12 -7 -10 -2 -11
-20 -16 0 -11 -7 -10 -2 -11
-21 -16 0 -11 -7 -10 -2 -11
-23 -16 0 -10 -6 -9 -2 -11
-24 -16 0 -9 -6 -9 -2 -11
-25 -15 1 -8 -5 -8 -2 -11
-23 -15 1 -8 -5 -8 -2 -11
-22 -15 1 -9 -5 -8 -2 -11
-21 -15 1 -10 -6 -8 -3 -12
-19 -15 1 -10 -6 -8 -3 -12
-18 -14 2 -11 -7 -8 -4 -13
-17 -14 2 -10 -6 -7 -4 -13
-17 -14 2 -9 -6 -7 -4 -13
-16 -13 2 -8 -5 -6 -3 -13
-15 -13 2 -7 -4 -5 -3 -13
-14 -12 2 -6 -3 -4 0 -12
-15 -11 3 -6 -3 -4 3 -12
-16 -10 3 -6 -3 -4 5 -12
-17 -9 4 -6 -3 -4 8 -11
-18 -8 5 -6 -3 -4 11 -11
-19 -7 6 -6 -3 -5 13 -10
-19 -8 6 -6 -3 -5 15 -10
-19 -9 6 -6 -3 -5 17 -10
-18 -11 5 -6 -3 -4 19 -10
-18 -12 5 -6 -3 -4 21 -10
-17 -13 4 -4 -2 -3 22 -9
-17 -11 4 2 0 -3 23 -9
-17 -10 5 6 0 -2 23 -8
-18 -9 6 10 1 0 24 -7
-18 -7 6 14 2 0 25 -7
-19 -6 7 17 3 1 26 -6
-19 -7 6 17 3 0 26 -7
-19 -7 5 17 2 0 25 -8
-19 -8 4 17 1 -2 24 -9
-19 -9 3 17 1 -3 24 -10
-20 -10 2 18 0 -4 23 -11
-19 -11 2 18 0 -4 23 -11
-19 -11 3 18 0 -4 23 -11
-18 -12 4 18 0 -4 24 -11
-17 -13 4 18 0 -4 24 -11
-16 -14 5 18 -2 -5 25 -11
-16 -14 4 18 -2 -5 25 -11
-16 -14 4 18 -2 -5 25 -11
-16 -14 3 17 -3 -5 25 -10
-16 -14 2 17 -3 -5 25 -10
-16 -13 1 16 -4 -5 24 -9
-14 -12 1 15 -5 -5 23 -10
-13 -12 1 15 -5 -5 23 -10
-12 -11 0 14 -6 -6 22 -11
-10 -10 0 13 -7 -6 21 -12
-9 -9 -2 12 -8 -7 20 -13
-12 -9 -2 14 -7 -7 20 -12
-14 -9 -2 15 -7 -6 21 -11
-16 -9 0 17 -6 -5 22 -10
-18 -9 0 19 -5 -5 22 -9
-20 -9 1 20 -4 -4 23 -8
-19 -9 0 22 -4 -3 24 -8
-18 -9 -3 24 -3 -3 25 -8
-16 -10 -4 26 -2 -2 26 -7
-15 -10 -6 27 -2 0 27 -7
-14 -11 -8 29 0 1 28 -6
-14 -10 -12 28 -2 0 28 -6
-14 -8 -16 27 -3 0 28 -6
-14 -7 -19 26 -5 -2 27 -6
-14 -5 -23 25 -6 -3 27 -6
-14 -4 -26 24 -7 -4 26 -7
-11 -2 -26 25 -7 -4 27 -6
-8 1 -26 25 -6 -3 27 -5
-5 3 -26 26 -5 -2 28 -3
-2 4 -26 27 -5 -2 29 -2
1 6 -25 28 -4 0 30 0
2 6 -26 28 -3 1 32 1
3 6 -28 28 -3 2 33 2
5 6 -29 28 -2 3 35 3
6 6 -31 28 0 4 37 4
7 6 -32 29 1 5 38 5
8 7 -33 28 1 5 38 5
9 9 -35 27 1 5 37 5
10 10 -36 26 0 5 36 5
11 12 -38 25 0 5 36 5
12 13 -39 24 -2 4 35 4
14 13 -41 24 -2 4 36 5
15 13 -44 24 0 5 38 5
17 12 -46 23 1 6 39 6
19 12 -48 23 1 6 42 7
20 11 -50 22 2 7 43 8
22 12 -50 21 2 7 43 8
23 13 -50 19 2 8 43 8
25 15 -51 18 2 9 43 8
27 16 -51 16 2 9 43 8
28 17 -52 15 2 10 43 9
27 17 -51 16 3 10 43 9
27 17 -50 18 3 11 43 10
26 17 -48 19 4 12 43 11
25 17 -47 21 5 12 43 11
24 18 -46 22 6 13 43 12
24 17 -46 21 5 12 42 11
23 15 -46 20 4 10 39 10
22 14 -46 18 2 9 38 8
22 12 -46 17 1 7 36 7
21 11 -46 16 0 6 35 6
19 10 -43 18 1 7 35 6
17 9 -39 19 2 7 35 6
15 8 -36 21 3 8 35 6
14 7 -32 23 4 9 35 6
12 6 -30 24 5 10 34 6
12 6 -28 24 5 9 33 5
13 6 -26 24 5 8 32 4
14 6 -24 24 4 7 31 3
14 6 -23 24 4 6 30 2
14 6 -21 23 3 5 29 1
11 5 -18 24 3 5 28 1
8 5 -16 24 3 5 28 1
5 4 -13 25 3 5 27 0
2 3 -11 26 3 5 26 0
0 2 -9 27 4 5 25 -2
-2 2 -9 27 4 4 23 -3
-3 2 -8 27 4 3 21 -4
-5 2 -7 28 5 2 19 -5
-6 2 -7 28 5 1 18 -6
-7 2 -6 29 6 0 16 -7
-8 0 -6 29 5 0 19 -6
-9 -2 -6 28 4 1 22 -6
-10 -4 -5 27 3 2 24 -5
-11 -5 -5 27 2 2 27 -4
-12 -7 -4 26 1 3 29 -3
-12 -8 -4 25 1 2 28 -4
-13 -8 -4 24 0 1 27 -5
-14 -9 -4 22 -2 -2 26 -6
-14 -10 -4 21 -2 -3 25 -7
-15 -11 -4 20 -3 -4 24 -8
-16 -10 -4 20 -3 -4 24 -8
-17 -9 -4 20 -3 -3 24 -7
-19 -7 -3 20 -2 -2 25 -6
-20 -6 -3 20 -2 -2 25 -6
-20 -5 -2 20 0 0 26 -5
-17 -6 -2 19 -2 -2 26 -6
-14 -7 -2 18 -3 -2 26 -6
-11 -9 0 17 -4 -3 26 -7
-8 -10 0 16 -5 -4 26 -8
-7 -11 1 15 -6 -5 25 -9
-10 -11 1 15 -4 -4 26 -9
-13 -10 1 16 -2 -2 26 -9
-16 -9 1 17 1 0 27 -8
-19 -9 1 17 2 2 28 -8
-22 -8 1 18 4 3 29 -7
-20 -8 1 17 3 2 28 -7
-18 -8 1 16 2 1 26 -8
-16 -9 1 15 1 -2 25 -9
-15 -9 1 14 0 -3 23 -9
-13 -10 1 13 -2 -4 22 -10
-13 -10 1 13 -2 -4 22 -9
-14 -10 1 13 -2 -3 23 -9
-15 -10 0 13 -2 -2 24 -8
-15 -10 0 13 -2 -2 24 -7
-16 -11 -2 12 0 0 25 -6
-16 -9 0 12 0 1 25 -6
-16 -7 0 12 0 1 25 -6
-15 -5 1 12 0 2 24 -7
-15 -3 2 12 0 3 24 -7
-14 0 3 11 1 4 23 -8
-14 0 3 11 1 3 23 -8
-13 0 3 11 1 3 23 -8
-12 0 3 11 1 2 22 -8
-12 0 3 11 1 1 22 -8
-12 0 2 10 0 0 21 -8
-15 -2 2 9 0 0 22 -8
-18 -3 2 8 0 0 22 -7
-21 -5 2 6 0 1 23 -6
-24 -6 2 5 0 1 24 -6
-26 -7 3 4 0 2 25 -5
-23 -7 3 4 0 2 25 -5
-20 -7 3 4 0 2 24 -5
-17 -8 3 3 0 2 24 -6
-14 -8 3 3 0 2 23 -6
-12 -9 2 2 0 1 22 -7
-13 -8 3 2 0 1 22 -7
-14 -6 4 2 1 1 22 -7
-15 -5 5 3 1 1 22 -7
-16 -3 6 3 2 1 22 -7
-17 -2 7 4 3 2 23 -6
-18 -3 7 4 3 2 23 -6
-18 -4 7 4 3 2 23 -6
-19 -5 7 4 3 2 22 -6
-20 -6 7 4 3 2 22 -6
-21 -7 6 3 2 2 21 -6
-20 -5 6 3 2 2 21 -6
-18 -2 6 3 2 2 21 -6
-17 1 6 3 3 1 21 -6
-15 3 6 3 3 1 21 -6
-14 5 7 2 4 0 21 -6
-14 3 7 2 4 0 21 -6
-14 2 7 2 3 1 21 -5
-15 0 7 3 3 1 21 -5
-15 -2 7 3 2 2 21 -4
-16 -4 7 4 1 3 20 -3
-16 -4 7 3 1 2 19 -3
-17 -4 6 1 0 0 18 -4
-17 -4 6 0 0 -2 17 -4
-18 -4 5 -3 -2 -4 16 -5
-19 -5 4 -4 -3 -5 15 -6
-18 -5 4 -4 -2 -4 15 -6
-17 -5 4 -3 -2 -4 15 -5
-16 -5 5 -3 0 -3 15 -5
-15 -5 5 -2 1 -2 15 -4
-14 -5 6 0 2 0 16 -3
-14 -5 5 -3 2 -2 14 -4
-14 -6 4 -6 1 -2 13 -4
-14 -6 3 -8 1 -3 11 -5
-14 -7 1 -10 0 -4 10 -6
-15 -8 0 -12 -2 -5 8 -7
-15 -8 1 -11 -2 -5 9 -7
-15 -7 1 -10 -2 -5 9 -7
-14 -7 2 -9 -2 -4 10 -7
-14 -6 3 -8 -2 -4 11 -7
-13 -5 4 -7 0 -3 12 -6
-14 -5 5 -5 0 -3 12 -6
-14 -5 5 -3 0 -3 11 -6
-15 -5 6 -2 0 -3 11 -6
-16 -5 7 1 0 -3 10 -6
-17 -4 8 3 0 -2 9 -5
-17 -5 7 3 0 -2 9 -6
-17 -6 6 3 0 -2 8 -7
-17 -7 5 3 -2 -3 8 -8
-17 -8 4 3 -2 -3 7 -9
-18 -9 3 2 -3 -4 6 -10
-17 -8 4 4 -2 -3 7 -9
-17 -6 6 6 0 -3 7 -8
-16 -5 7 7 1 -2 8 -7
-15 -3 9 9 2 0 9 -5
-14 -2 10 11 3 1 10 -4
-12 0 12 13 4 2 11 -3
-11 1 13 15 5 4 12 -2
-9 2 15 16 6 5 13 0
-8 3 16 18 8 6 14 2
-6 4 18 20 9 8 15 3
-8 4 18 20 9 8 15 2
-10 5 19 20 9 8 15 2
-12 5 19 20 9 8 15 1
-14 6 20 20 9 8 15 0
-16 7 21 21 9 8 16 -2
-15 8 21 21 9 8 16 0
-14 9 21 22 10 9 16 1
-13 10 20 22 10 9 17 2
-12 11 20 23 11 10 17 4
-11 12 19 24 12 11 18 5
-10 11 16 22 11 11 17 5
-8 11 14 21 11 11 16 5
-7 10 11 19 10 10 15 5
-6 9 8 18 9 10 14 5
-4 8 6 16 8 9 13 4
-5 6 6 15 7 8 12 3
-6 4 5 13 5 6 10 1
-7 3 5 12 4 5 9 0
-9 1 4 11 3 4 8 -2
-10 -2 3 9 1 2 6 -4
-7 -2 3 8 0 2 6 -4
-5 -2 3 7 -2 1 6 -4
-3 0 2 6 -3 1 5 -5
1 0 2 5 -4 0 5 -5
2 1 1 4 -5 -2 4 -6
-3 0 2 4 -5 -2 4 -6
-7 0 3 5 -4 -2 4 -6
-11 -2 4 5 -4 -2 4 -6
-15 -3 5 6 -3 -2 4 -6
-18 -4 6 7 -2 -2 3 -7
-19 -5 6 7 -2 -2 3 -7
-20 -7 6 7 -2 -2 3 -7
-21 -8 7 6 -2 -2 2 -7
-22 -9 7 6 -2 -2 2 -7
-23 -11 8 5 -2 -3 1 -8
-20 -9 8 4 -2 -3 1 -8
-18 -8 8 4 -3 -3 0 -8
-15 -6 8 3 -3 -4 0 -8
-12 -5 8 2 -4 -4 -2 -8
-10 -3 9 1 -5 -5 -3 -8
-11 -6 9 1 -5 -5 -3 -8
-13 -8 9 0 -5 -5 -3 -8
-14 -11 9 0 -5 -5 -4 -8
-15 -14 9 -2 -5 -5 -4 -8
-17 -16 8 -3 -5 -6 -5 -9
-18 -16 8 -3 -5 -6 -5 -9
-19 -15 8 -4 -5 -7 -5 -9
-20 -14 8 -5 -6 -7 -5 -9
-22 -13 8 -6 -6 -8 -5 -9
-23 -12 7 -7 -7 -9 -5 -8
-23 -12 7 -7 -7 -9 -5 -8
-22 -12 8 -7 -7 -9 -5 -8
-21 -13 8 -7 -6 -8 -5 -8
-20 -13 9 -7 -6 -8 -5 -8
-19 -14 10 -8 -5 -7 -5 -8
-19 -14 10 -8 -5 -7 -5 -8
-18 -14 10 -8 -4 -7 -5 -8
-18 -14 10 -8 -4 -7 -5 -8
-17 -14 10 -8 -3 -7 -5 -8
-16 -14 10 -7 -2 -7 -4 -9
-20 -12 16 -3 2 -6 -3 -9
-24 -10 22 2 5 -4 0 -9
-27 -8 28 6 8 -2 1 -8
-31 -6 34 10 10 0 2 -8
-32 -2 39 15 15 4 5 -6
-24 8 43 25 26 14 14 0
-15 17 46 35 37 25 23 5
-6 26 49 46 48 35 31 10
4 35 51 57 59 46 40 15
15 46 51 65 69 57 50 21
35 58 34 65 76 66 61 31
56 70 19 64 85 76 72 42
76 82 3 64 92 87 84 52
97 94 -13 63 99 97 95 63
116 104 -30 60 104 104 104 71
131 101 -53 47 97 100 102 68
145 98 -75 34 90 95 100 65
160 95 -98 22 84 90 98 62
175 92 -119 9 76 85 96 59
182 85 -137 -5 65 76 90 53
156 62 -132 -23 42 53 69 38
130 39 -127 -41 17 29 49 24
104 17 -121 -60 -8 6 28 10
77 -6 -116 -78 -32 -18 7 -4
55 -24 -108 -92 -52 -37 -10 -16
45 -26 -93 -79 -49 -37 -12 -18
34 -28 -76 -68 -46 -38 -14 -20
24 -31 -60 -56 -44 -39 -17 -22
14 -33 -45 -45 -40 -40 -19 -24
5 -35 -30 -33 -36 -41 -21 -26
3 -33 -23 -25 -32 -36 -18 -25
0 -32 -16 -17 -27 -31 -16 -24
-3 -30 -10 -9 -22 -27 -13 -23
-6 -28 -3 0 -17 -22 -11 -21
-8 -26 4 7 -13 -18 -8 -20
-10 -23 6 9 -11 -17 -7 -18
-12 -21 8 10 -9 -15 -6 -16
-14 -18 10 12 -7 -14 -5 -13
-16 -16 12 14 -5 -13 -3 -11
-18 -13 14 16 -3 -11 -2 -9
-18 -13 14 16 -3 -11 -2 -9
-17 -13 15 16 -3 -11 -2 -9
-16 -13 16 16 -3 -11 -2 -8
-15 -13 17 16 -3 -11 -2 -8
-14 -14 18 15 -4 -11 -2 -7
-16 -14 18 15 -4 -11 -2 -7
-18 -14 18 15 -4 -11 -2 -7
-21 -14 18 15 -3 -11 -3 -7
-23 -14 18 15 -3 -11 -3 -7
-25 -15 17 15 -2 -10 -4 -7
-23 -14 17 15 -2 -10 -4 -7
-21 -12 17 14 -2 -10 -4 -7
-18 -11 17 14 0 -10 -4 -7
-16 -10 17 13 0 -10 -4 -7
-14 -8 17 12 1 -9 -3 -8
-15 -8 17 12 1 -9 -3 -8
-16 -9 17 12 1 -9 -3 -8
-17 -9 17 12 1 -9 -3 -7
-18 -10 17 12 1 -9 -3 -7
-19 -11 17 11 1 -10 -3 -6
-17 -11 17 10 1 -10 -3 -6
-16 -11 17 9 1 -10 -3 -7
-14 -12 18 8 1 -10 -3 -8
-12 -12 18 7 1 -10 -3 -9
-10 -13 19 6 1 -10 -4 -10
-10 -12 19 6 1 -10 -4 -10
-10 -11 18 5 1 -10 -4 -10
-10 -10 18 5 0 -11 -5 -10
-10 -9 17 4 0 -11 -5 -10
-11 -8 16 3 -2 -12 -6 -9
-12 -7 17 3 -2 -11 -5 -8
-14 -6 18 3 0 -10 -3 -6
-16 -5 19 4 0 -9 0 -5
-17 -4 21 4 1 -8 1 -4
-19 -3 22 5 2 -7 3 -2
-19 -5 22 5 2 -7 3 -2
-19 -6 22 4 1 -8 2 -3
-18 -8 21 4 0 -8 2 -3
-18 -10 21 3 -2 -9 1 -4
-17 -12 20 2 -3 -10 0 -5
-16 -12 20 2 -3 -10 0 -5
-15 -11 20 2 -3 -10 0 -5
-14 -10 19 2 -2 -10 1 -5
-13 -9 19 2 -2 -10 1 -5
-11 -8 18 2 0 -9 2 -4
-11 -8 18 2 0 -9 2 -4
-11 -8 18 2 0 -9 2 -4
-10 -7 17 2 0 -9 2 -5
-10 -7 17 2 0 -9 2 -5
-9 -6 16 3 0 -9 3 -6
-9 -6 16 3 0 -9 3 -5
-9 -6 16 3 0 -9 4 -4
-9 -6 16 4 1 -8 5 -3
-9 -6 16 4 1 -8 6 -2
-9 -7 16 5 2 -7 7 1
-9 -7 14 5 2 -7 7 0
-9 -7 13 4 2 -7 7 -2
-9 -6 11 3 1 -8 6 -3
-9 -6 9 2 1 -8 6 -4
-10 -5 7 1 0 -9 5 -6
-8 -4 7 1 0 -9 5 -4
-7 -3 8 0 0 -9 5 -2
-5 -2 8 0 0 -9 5 1
-3 0 9 -2 0 -9 5 3
0 2 10 -3 0 -9 5 5
2 4 10 -2 1 -8 7 5
4 6 9 1 2 -6 8 5
6 8 8 2 3 -5 10 6
9 10 7 3 4 -4 12 6
11 12 6 5 5 -2 14 7
11 11 4 5 5 -2 14 7
11 10 2 5 5 -2 14 7
11 9 0 5 5 -3 14 8
11 8 -3 5 5 -3 14 8
11 7 -5 4 4 -4 14 9
12 8 -5 5 4 -4 15 9
14 9 -5 7 5 -3 17 10
16 11 -6 9 6 -2 19 10
17 12 -6 10 7 0 20 11
19 14 -7 12 8 1 22 12
20 14 -8 12 8 1 23 12
21 14 -9 11 8 1 24 12
23 14 -11 11 7 0 25 13
24 14 -12 10 7 0 26 13
26 15 -14 9 6 -2 27 14
28 17 -14 9 6 -2 27 14
29 18 -14 9 6 0 28 14
31 20 -14 9 6 0 28 15
33 22 -14 9 6 1 29 15
35 24 -14 9 7 2 30 16
34 22 -14 9 7 2 30 16
32 21 -14 9 7 2 29 16
30 19 -15 9 7 1 29 15
29 17 -15 9 7 1 28 15
27 15 -16 10 7 0 27 14
27 15 -15 10 7 0 27 14
27 15 -14 10 7 0 27 14
27 15 -13 11 7 -2 27 13
27 15 -12 11 7 -2 27 13
28 14 -10 12 7 -3 26 12
28 13 -8 13 7 -3 26 12
27 12 -5 14 7 -3 26 12
27 11 -2 15 8 -3 26 12
26 10 1 16 8 -3 26 12
25 8 4 17 9 -3 25 13
24 8 7 19 10 -3 25 12
22 7 9 21 11 -2 24 11
21 7 12 23 12 0 24 9
19 6 15 25 13 1 23 8
17 5 18 27 14 2 22 6
17 4 19 27 14 1 21 5
16 3 21 27 13 0 20 4
15 2 22 27 13 -2 19 3
14 1 24 27 12 -3 18 2
13 0 26 26 11 -4 16 0
11 0 26 26 11 -4 16 1
9 0 26 27 11 -3 16 2
7 0 27 27 11 -3 16 3
5 0 27 28 11 -2 16 4
3 1 28 29 12 0 17 5
2 1 28 31 12 0 17 5
1 1 29 34 12 0 17 5
0 0 29 36 13 0 17 5
-2 0 30 38 13 0 17 5
-4 -2 31 42 14 0 17 4
-6 -2 31 43 14 0 17 4
-9 -2 31 45 14 0 17 3
-12 -3 30 46 14 0 16 3
-14 -3 30 48 14 0 16 2
-17 -4 29 50 14 1 15 1
-16 -4 29 50 14 1 15 1
-15 -4 29 50 14 1 15 1
-14 -3 29 49 14 0 15 1
-13 -3 29 49 14 0 15 1
-12 -2 28 48 13 -2 16 0
-12 -3 28 48 13 -2 16 0
-13 -4 28 48 13 -2 16 0
-13 -6 28 48 13 -2 16 1
-14 -7 28 48 13 -2 16 1
-15 -9 29 48 14 -3 16 2
-13 -8 29 48 14 -3 16 2
-11 -7 30 49 14 -2 17 2
-9 -6 30 50 15 0 18 2
-7 -5 31 51 15 1 19 2
-5 -4 32 52 16 2 20 2
-5 -4 32 52 16 2 20 2
-5 -4 31 52 16 2 20 2
-5 -4 30 52 16 1 20 2
-5 -4 29 52 16 1 20 2
-4 -4 28 51 16 0 21 1
-4 -4 28 51 16 1 21 1
-5 -3 29 51 16 2 22 2
-5 -2 30 52 17 3 22 3
-6 0 31 52 17 4 23 4
-7 1 32 53 18 5 24 5
-6 1 31 52 18 4 23 5
-5 2 30 51 18 3 22 5
-4 3 29 50 18 2 21 4
-3 4 28 49 18 1 20 4
-2 5 27 47 17 0 19 3
-2 4 27 47 17 0 19 3
-3 3 27 47 17 1 20 4
-3 2 27 47 18 2 20 4
-4 1 27 47 18 3 21 5
-5 0 28 46 19 4 22 6
-5 1 27 46 19 4 22 6
-5 2 25 46 19 3 22 5
-6 3 23 47 19 3 21 5
-6 4 21 47 19 2 21 4
-7 6 19 48 19 1 20 3
-7 5 20 51 19 2 21 3
-7 4 22 54 20 3 23 3
-7 3 23 57 21 4 24 4
-7 2 25 60 22 5 26 4
-6 1 27 63 23 7 28 5
-6 1 27 64 23 7 28 5
-7 1 27 65 23 7 28 5
-7 1 27 66 23 7 28 6
-8 1 27 67 23 7 28 6
-9 0 26 68 23 6 29 7
-9 0 25 68 23 6 29 7
-8 0 24 68 22 6 29 6
-8 0 23 69 22 5 28 6
-7 0 22 69 21 5 28 5
-6 1 20 70 20 4 27 4
-7 1 20 70 20 4 27 4
-8 1 20 70 20 4 27 4
-9 2 20 71 21 5 27 4
-10 2 20 71 21 5 27 4
-11 3 21 72 22 6 28 5
-11 2 20 71 21 5 27 4
-11 1 19 70 19 4 26 3
-10 0 18 69 18 3 25 2
-10 -2 17 68 16 2 24 1
-9 -4 16 66 14 0 22 -2
-8 -4 16 66 14 0 22 -2
-7 -4 16 66 14 0 22 0
-6 -3 16 66 14 0 22 1
-5 -3 16 66 14 0 22 2
-3 -2 16 67 15 1 23 3
-3 -2 16 67 15 1 23 3
-3 -2 15 67 15 1 22 2
-4 -2 14 67 14 1 21 1
-4 -2 13 67 14 1 20 0
-5 0 12 66 13 2 19 -2
-5 -2 12 66 13 2 19 -2
-5 -3 12 66 13 2 19 -2
-5 -4 13 66 13 1 19 -2
-5 -5 13 66 13 1 19 -2
-5 -6 14 66 12 0 20 0
-5 -5 14 65 12 0 20 0
-5 -4 14 64 12 0 19 0
-6 -2 14 63 12 1 18 1
-6 0 14 62 12 1 17 1
-7 2 14 61 11 2 16 2
-7 1 13 60 11 1 15 1
-6 0 12 59 10 -2 14 -2
-6 -2 11 58 9 -3 13 -3
-5 -3 10 57 8 -5 12 -5
-4 -4 9 56 7 -7 10 -7
-5 -4 10 56 7 -6 11 -7
-7 -4 11 56 8 -5 12 -6
-8 -4 12 56 9 -4 13 -5
-10 -4 13 56 10 -3 14 -4
-12 -5 14 57 11 -2 15 -3
-12 -5 14 57 11 -2 15 -3
-12 -5 14 57 11 0 16 -3
-12 -5 13 57 10 0 16 -3
-12 -5 13 57 10 1 17 -3
-11 -4 12 58 9 2 18 -2
-9 -3 13 58 10 2 18 -2
-7 -2 14 58 11 2 17 -2
-5 0 15 58 12 2 17 -2
-3 1 16 58 13 2 16 -2
1 2 17 57 14 3 15 0
0 3 17 57 14 3 15 0
-2 4 17 56 14 3 15 1
-3 6 18 55 14 4 15 1
-4 7 18 54 14 4 15 2
-5 9 19 53 15 5 14 3
-5 9 20 53 16 6 14 3
-5 9 21 53 17 7 15 4
-5 8 22 52 18 8 15 5
-5 8 23 52 19 9 16 6
-5 7 25 51 20 11 17 7
-4 9 25 51 20 11 17 7
-2 11 25 51 20 11 17 8
0 13 25 50 20 11 18 8
2 15 25 50 20 11 18 9
4 18 25 49 19 10 19 10
5 17 22 45 19 10 19 10
7 17 19 42 18 9 18 9
8 16 15 37 17 9 17 9
10 15 12 33 16 8 16 8
11 14 9 29 16 8 16 8
11 13 8 25 14 6 14 6
9 12 7 22 12 5 13 4
8 11 6 19 10 3 12 3
6 10 5 16 8 2 11 1
5 9 5 13 7 1 10 0
4 8 4 11 6 0 9 -2
4 7 4 9 6 0 9 -2
5 6 3 7 6 0 9 -2
5 5 3 5 6 0 9 -2
5 5 3 4 6 0 9 -2
5 4 3 3 6 1 9 -3
3 3 4 3 6 1 9 -4
2 2 6 3 6 0 8 -5
0 1 7 3 6 0 8 -6
-2 0 8 3 6 0 8 -6
-3 -2 9 3 4 -3 7 -7
-3 -3 8 2 3 -4 6 -8
-4 -4 7 0 1 -5 5 -9
-4 -5 6 -2 0 -6 4 -10
-4 -6 5 -3 -2 -7 3 -10
-6 -7 4 -4 -3 -8 2 -11
-8 -7 4 -4 -2 -7 2 -11
-10 -8 5 -3 -2 -7 2 -10
-12 -8 5 -3 0 -6 2 -10
-13 -8 5 -3 0 -6 2 -10
-14 -9 6 -3 1 -5 3 -9
-13 -10 6 -4 0 -5 2 -9
-12 -11 5 -6 0 -5 2 -9
-11 -12 5 -7 -2 -5 1 -9
-11 -12 5 -8 -2 -5 1 -9
-10 -13 4 -10 -3 -6 -2 -10
-11 -13 3 -11 -4 -7 -3 -11
-12 -13 3 -13 -4 -8 -5 -12
-13 -13 2 -14 -5 -9 -6 -13
-14 -13 2 -15 -5 -10 -7 -14
-15 -13 1 -16 -6 -10 -7 -15
-14 -12 1 -16 -5 -8 -5 -14
-13 -12 1 -15 -5 -6 -4 -14
-12 -11 1 -15 -4 -4 -2 -13
-11 -11 1 -15 -4 -3 0 -13
-10 -10 1 -14 -3 -2 1 -12
-10 -9 1 -14 -4 -3 0 -11
-9 -9 2 -14 -4 -4 -2 -11
-9 -8 2 -14 -5 -5 -3 -10
-9 -8 2 -14 -5 -6 -4 -10
-11 -7 8 -9 -4 -5 -5 -9
-15 -6 14 -4 0 -3 -4 -10
-19 -6 20 1 3 0 -3 -10
-23 -5 26 6 6 2 -2 -11
-27 -5 32 10 9 4 0 -11
-20 2 33 20 19 14 9 -6
-10 7 34 30 29 24 17 1
0 12 35 39 40 33 26 8
10 18 36 50 51 44 35 15
19 23 37 60 61 54 44 21
43 39 30 61 67 63 54 29
66 57 21 60 72 71 65 36
90 74 13 60 77 80 75 44
113 92 4 59 84 89 87 52
137 109 -6 59 89 98 97 59
149 103 -32 43 80 92 94 55
160 96 -60 25 71 85 88 50
173 89 -87 9 61 76 82 44
184 80 -114 -9 52 69 77 37
195 73 -142 -26 42 61 72 32
172 54 -143 -44 19 39 52 18
145 33 -141 -61 -6 17 30 3
118 14 -139 -78 -29 -6 9 -12
92 -7 -137 -96 -53 -28 -12 -27
65 -26 -135 -113 -76 -51 -33 -43
52 -30 -118 -106 -76 -52 -35 -44
39 -33 -101 -96 -73 -50 -36 -44
27 -36 -85 -86 -70 -49 -37 -45
15 -39 -67 -75 -67 -47 -38 -45
3 -41 -51 -65 -65 -46 -38 -45
1 -38 -43 -59 -58 -39 -37 -44
0 -33 -36 -52 -51 -34 -33 -39
-2 -28 -29 -46 -44 -29 -30 -36
-3 -23 -23 -38 -36 -23 -27 -33
-4 -18 -16 -32 -29 -18 -24 -30
-6 -17 -14 -31 -27 -16 -22 -29
-8 -16 -13 -30 -26 -14 -21 -28
-10 -15 -11 -29 -25 -13 -19 -28
-12 -14 -10 -28 -24 -11 -18 -27
-13 -14 -9 -27 -23 -10 -17 -27
-14 -13 -8 -27 -22 -9 -17 -26
-15 -14 -8 -29 -23 -10 -18 -26
-16 -15 -7 -31 -23 -10 -19 -26
-17 -16 -7 -33 -24 -11 -20 -26
-18 -17 -7 -34 -24 -11 -21 -26
-19 -18 -6 -35 -25 -12 -22 -27
-18 -17 -6 -36 -25 -12 -22 -28
-18 -16 -6 -37 -25 -11 -22 -28
-17 -15 -6 -38 -25 -11 -22 -29
-17 -15 -6 -39 -25 -11 -22 -29
-16 -14 -7 -40 -24 -10 -23 -30
-16 -14 -7 -40 -24 -10 -23 -30
-15 -14 -7 -40 -24 -9 -22 -30
-15 -14 -7 -40 -24 -9 -22 -30
-15 -14 -7 -40 -24 -9 -22 -30
-14 -14 -7 -39 -23 -8 -21 -30
-13 -12 -7 -39 -23 -8 -21 -30
-12 -11 -7 -39 -23 -8 -21 -30
-11 -9 -7 -39 -23 -8 -21 -30
-10 -8 -7 -39 -23 -8 -21 -30
-9 -8 -7 -39 -23 -8 -22 -31
-9 -9 -7 -39 -23 -8 -22 -31
-9 -10 -7 -40 -23 -8 -23 -31
-9 -11 -7 -40 -23 -8 -23 -31
-9 -12 -7 -40 -23 -8 -23 -31
-9 -13 -7 -41 -22 -7 -24 -30
-10 -12 -8 -41 -22 -7 -24 -30
-10 -11 -9 -43 -22 -7 -24 -31
-11 -10 -10 -43 -22 -7 -24 -31
-11 -9 -10 -43 -22 -7 -24 -31
-12 -8 -11 -44 -23 -6 -24 -32
-12 -8 -11 -44 -24 -6 -24 -32
-12 -9 -11 -45 -24 -7 -24 -32
-12 -9 -11 -45 -25 -7 -24 -32
-12 -9 -11 -45 -25 -7 -24 -32
-12 -10 -10 -47 -26 -8 -25 -33
-11 -10 -11 -48 -26 -8 -26 -33
-9 -10 -12 -49 -26 -8 -26 -33
-8 -10 -13 -50 -26 -8 -27 -33
-7 -10 -13 -51 -26 -8 -27 -33
-7 -11 -14 -52 -27 -7 -28 -33
-9 -11 -14 -53 -27 -7 -28 -33
-11 -12 -15 -53 -28 -7 -28 -32
-13 -12 -15 -54 -28 -7 -28 -32
-14 -12 -15 -54 -28 -7 -28 -32
-14 -13 -16 -55 -29 -7 -28 -31
-12 -12 -16 -55 -29 -7 -29 -31
-10 -11 -17 -55 -29 -8 -30 -31
-8 -10 -17 -55 -29 -8 -31 -31
-7 -10 -17 -55 -29 -8 -32 -31
-6 -9 -18 -55 -30 -9 -32 -32
-5 -9 -18 -54 -30 -9 -31 -32
-4 -10 -18 -53 -30 -9 -30 -32
-3 -10 -18 -52 -30 -9 -29 -32
-3 -10 -18 -51 -30 -9 -28 -32
-3 -10 -18 -50 -29 -8 -27 -32
-5 -9 -19 -50 -28 -7 -27 -31
-6 -7 -19 -50 -27 -6 -27 -30
-8 -6 -20 -50 -26 -5 -27 -29
-9 -5 -20 -50 -25 -4 -27 -28
-9 -3 -22 -53 -25 -3 -28 -26
-7 -2 -23 -55 -26 -4 -28 -24
-5 0 -25 -57 -28 -5 -29 -22
-4 1 -26 -60 -29 -6 -29 -20
-2 2 -27 -62 -30 -6 -29 -18
1 5 -28 -63 -31 -7 -29 -15
2 9 -28 -62 -30 -6 -27 -12
4 12 -28 -61 -29 -5 -26 -9
5 16 -28 -60 -28 -4 -24 -6
6 19 -28 -59 -27 -4 -23 -3
8 18 -30 -58 -26 -3 -22 0
9 16 -31 -59 -26 -4 -22 1
11 13 -33 -60 -27 -5 -23 2
12 10 -34 -61 -27 -6 -23 3
13 8 -35 -61 -27 -6 -23 4
14 7 -37 -62 -28 -7 -24 5
15 7 -38 -61 -28 -7 -23 4
16 8 -39 -60 -27 -7 -22 3
17 8 -40 -59 -27 -7 -21 2
18 8 -41 -59 -27 -7 -21 2
20 10 -44 -59 -26 -7 -20 1
23 11 -45 -61 -27 -7 -20 1
25 13 -46 -63 -27 -7 -21 1
27 14 -47 -64 -28 -7 -21 1
29 15 -48 -66 -28 -7 -21 1
30 16 -49 -67 -29 -7 -23 2
31 15 -49 -67 -29 -7 -25 2
32 14 -49 -68 -29 -7 -27 2
33 13 -49 -68 -29 -7 -28 2
33 13 -49 -68 -29 -7 -30 2
34 13 -50 -69 -30 -7 -31 1
35 14 -50 -69 -30 -7 -31 1
36 15 -50 -69 -30 -7 -32 0
37 16 -50 -69 -30 -7 -32 0
37 17 -50 -69 -30 -7 -32 0
37 16 -50 -69 -29 -6 -33 -2
34 14 -49 -68 -28 -6 -34 -2
32 12 -48 -67 -28 -6 -34 -2
30 9 -47 -66 -27 -6 -35 -2
28 7 -46 -66 -27 -6 -35 -2
26 6 -44 -64 -26 -7 -37 -3
25 6 -43 -63 -27 -8 -38 -4
24 6 -41 -62 -27 -9 -40 -5
23 6 -40 -61 -28 -11 -43 -7
22 6 -39 -60 -28 -12 -44 -8
20 4 -35 -57 -28 -13 -45 -9
19 3 -30 -55 -26 -12 -45 -9
18 1 -26 -53 -24 -11 -44 -10
16 -2 -22 -50 -22 -10 -44 -10
15 -3 -17 -48 -20 -9 -44 -10
13 -4 -16 -47 -19 -8 -44 -11
11 -5 -15 -47 -19 -8 -45 -12
9 -6 -14 -46 -19 -8 -46 -12
7 -7 -13 -46 -19 -8 -47 -13
5 -7 -13 -46 -19 -8 -48 -13
3 -7 -11 -45 -18 -8 -49 -14
2 -5 -10 -45 -17 -7 -48 -14
0 -3 -8 -44 -16 -6 -47 -14
-3 -2 -6 -44 -15 -5 -46 -14
-4 1 -5 -44 -15 -5 -46 -14
-5 2 -4 -43 -14 -4 -45 -13
-4 2 -4 -41 -14 -4 -46 -13
-4 2 -4 -40 -14 -5 -46 -14
-3 2 -4 -39 -14 -5 -47 -14
-3 2 -4 -39 -14 -5 -47 -14
-3 0 -5 -38 -15 -6 -48 -15
-5 -4 -5 -38 -15 -6 -48 -15
-7 -6 -4 -39 -15 -7 -48 -16
-8 -8 -4 -39 -15 -7 -48 -16
-10 -10 -4 -39 -15 -7 -48 -16
-11 -11 -3 -40 -15 -8 -48 -17
-9 -9 -3 -40 -15 -7 -48 -17
-8 -8 -3 -40 -15 -6 -48 -17
-7 -7 -3 -40 -15 -5 -48 -17
-6 -6 -3 -40 -15 -4 -48 -17
-5 -5 -4 -40 -14 -4 -47 -18
-7 -6 -5 -40 -14 -5 -47 -18
-8 -6 -6 -40 -14 -6 -48 -17
-9 -7 -7 -40 -14 -8 -48 -17
-10 -7 -7 -40 -14 -9 -48 -17
-11 -8 -8 -40 -15 -10 -49 -15
-10 -9 -8 -40 -15 -10 -48 -12
-10 -9 -8 -39 -15 -9 -48 -10
-9 -10 -8 -39 -15 -9 -47 -7
-9 -10 -8 -39 -15 -9 -47 -5
-9 -11 -9 -38 -14 -8 -46 -4
-11 -11 -9 -37 -13 -8 -46 -2
-13 -11 -9 -37 -12 -9 -46 0
-14 -11 -9 -36 -11 -9 -46 1
-16 -11 -9 -36 -11 -9 -46 2
-17 -11 -10 -35 -10 -10 -46 3
-17 -11 -9 -35 -10 -10 -46 4
-17 -10 -8 -35 -10 -9 -46 5
-17 -10 -7 -35 -10 -9 -46 6
-17 -10 -7 -35 -10 -9 -46 7
-16 -9 -6 -35 -9 -8 -46 10
-16 -9 -6 -33 -8 -7 -45 12
-16 -9 -5 -32 -7 -6 -44 15
-16 -9 -5 -31 -5 -5 -43 17
-16 -9 -5 -30 -4 -4 -43 20
-14 -9 -4 -29 -3 -3 -41 20
-12 -8 -4 -30 -4 -4 -41 19
-10 -6 -4 -31 -5 -4 -43 17
-8 -4 -4 -32 -6 -5 -43 15
-6 -3 -4 -32 -6 -5 -43 14
-5 -2 -5 -33 -7 -6 -44 13
-6 -2 -5 -32 -6 -5 -43 14
-7 -2 -5 -31 -5 -4 -41 14
-8 -2 -5 -30 -4 -3 -40 15
-9 -2 -5 -30 -4 -3 -40 15
-10 -2 -6 -29 -3 -2 -39 16
-11 -3 -6 -29 -3 -2 -39 15
-12 -4 -5 -28 -3 -2 -39 15
-13 -5 -5 -28 -3 -2 -39 14
-13 -6 -5 -28 -3 -2 -39 14
-14 -7 -4 -27 -3 -3 -40 13
-14 -7 -4 -26 -3 -4 -40 13
-14 -7 -5 -26 -4 -4 -40 13
-14 -7 -5 -25 -4 -5 -40 13
-14 -7 -5 -25 -4 -5 -40 13
-14 -6 -6 -24 -5 -6 -41 12
-13 -5 -6 -23 -5 -6 -40 12
-12 -4 -5 -23 -5 -6 -40 12
-11 -2 -5 -22 -5 -6 -39 12
-11 0 -5 -22 -5 -6 -39 12
-10 0 -4 -20 -5 -5 -38 11
-11 -2 -4 -19 -4 -5 -38 11
-11 -3 -4 -17 -4 -5 -37 11
-12 -5 -4 -15 -3 -5 -37 11
-12 -6 -4 -14 -3 -5 -37 11
-13 -7 -3 -13 -2 -4 -36 11
-13 -7 -3 -13 -2 -4 -36 11
-14 -7 -3 -12 -3 -5 -36 12
-14 -7 -3 -12 -3 -5 -36 12
-14 -7 -3 -12 -3 -5 -36 12
-14 -6 -3 -11 -4 -6 -35 12
-12 -6 -3 -11 -4 -6 -35 10
-11 -7 -4 -11 -4 -6 -36 8
-9 -7 -4 -11 -4 -6 -36 6
-7 -7 -4 -11 -4 -6 -36 4
-8 -8 -5 -10 -5 -6 -37 3
-11 -8 -4 -9 -4 -5 -36 5
-14 -8 -3 -8 -4 -5 -35 6
-18 -8 -2 -6 -3 -4 -34 7
-21 -8 -2 -5 -3 -4 -34 8
-21 -7 0 -4 -2 -3 -33 9
-19 -6 0 -4 -3 -3 -33 10
-17 -5 1 -4 -3 -2 -32 10
-15 -4 1 -4 -4 -2 -32 11
-13 -4 1 -4 -4 -2 -32 11
-13 -4 2 -5 -5 0 -31 12
-14 -5 2 -4 -4 -2 -31 10
-16 -6 2 -3 -4 -2 -31 9
-18 -8 2 -2 -3 -3 -31 8
-19 -9 2 -2 -3 -3 -31 7
-18 -9 1 0 -2 -4 -31 6
-15 -7 2 0 0 -2 -30 6
-12 -6 3 0 0 0 -29 7
-8 -4 4 0 1 1 -28 7
-5 -2 5 0 1 2 -28 7
-5 0 7 1 2 3 -27 8
-6 1 8 2 3 3 -25 9
-8 2 9 2 3 3 -24 10
-9 2 11 3 4 3 -23 10
-11 3 12 3 4 3 -22 11
-12 4 13 4 5 4 -21 12
-12 5 13 4 6 4 -21 11
-12 6 13 4 6 5 -21 11
-12 6 13 4 7 5 -21 10
-12 7 13 4 7 5 -21 10
-11 8 14 5 8 6 -20 9
-10 8 14 5 9 8 -18 10
-9 9 14 5 10 9 -16 10
-7 9 14 5 11 10 -14 11
-6 9 14 5 12 11 -12 11
-5 10 14 4 13 12 -11 12
-5 10 11 3 12 10 -11 12
-4 10 8 2 11 9 -12 12
-4 10 6 2 11 8 -12 12
-4 10 3 1 10 7 -12 12
-3 10 2 -2 8 5 -13 11
-3 9 1 -5 6 4 -14 9
-2 8 0 -7 3 3 -15 6
-2 6 0 -9 1 1 -16 4
-2 5 -2 -12 -2 0 -17 2
0 4 -3 -13 -3 -2 -18 1
-2 3 -3 -12 -2 -2 -16 1
-2 3 -2 -11 0 -2 -15 2
-3 2 -2 -10 1 -2 -14 2
-3 2 -2 -9 2 -2 -13 2
-6 -2 0 -8 3 0 -12 3
-9 -4 1 -8 3 0 -12 2
-12 -7 2 -9 2 -2 -13 1
-15 -10 3 -9 2 -2 -13 1
-18 -13 4 -9 2 -2 -13 0
-19 -14 5 -10 1 -3 -14 -2
-18 -13 5 -9 1 -3 -14 -2
-17 -13 5 -8 1 -3 -13 -2
-16 -12 5 -7 1 -3 -13 -2
-15 -12 5 -6 1 -3 -13 -2
-14 -11 5 -5 1 -4 -12 -3
-15 -10 5 -6 1 -4 -12 -3
-15 -9 5 -7 0 -5 -12 -4
-16 -9 5 -7 0 -5 -12 -4
-16 -8 5 -8 0 -5 -12 -4
-17 -7 6 -9 -2 -6 -11 -5
-17 -7 7 -8 -2 -5 -10 -5
-16 -7 7 -8 0 -5 -8 -6
-16 -7 8 -7 0 -4 -7 -6
-16 -7 8 -7 0 -4 -5 -6
-15 -8 9 -6 1 -3 -4 -7
-17 -10 9 -6 1 -3 -4 -7
-18 -11 10 -5 1 -3 -3 -7
-20 -13 10 -5 1 -3 -3 -7
-21 -14 10 -5 1 -3 -3 -7
-22 -15 11 -4 2 -3 -2 -6
-23 -15 10 -5 0 -4 -4 -8
-24 -15 10 -6 -2 -5 -5 -9
-24 -15 9 -7 -3 -6 -7 -10
-25 -15 9 -8 -4 -7 -8 -11
-25 -15 8 -9 -5 -8 -9 -12
-23 -14 8 -9 -5 -8 -9 -12
-21 -12 9 -9 -4 -8 -9 -12
-18 -11 9 -9 -4 -8 -9 -12
-16 -9 9 -9 -4 -8 -9 -12
-16 -8 15 -5 0 -6 -10 -12
-19 -8 22 1 3 -4 -9 -11
-22 -8 29 6 7 -2 -8 -11
-25 -8 36 11 10 2 -7 -10
-28 -8 44 16 13 4 -6 -10
-25 -5 47 24 22 12 1 -5
-19 2 47 33 33 22 10 2
-13 8 46 43 45 33 19 8
-7 13 46 52 56 44 27 14
1 19 46 61 67 54 36 21
20 31 33 64 75 64 47 28
46 48 15 62 81 74 59 36
71 63 -3 61 88 85 70 46
97 78 -20 60 94 95 82 54
122 95 -37 59 100 104 94 62
134 94 -56 47 95 102 93 61
140 86 -75 28 85 93 85 55
146 76 -94 11 73 82 75 49
152 67 -112 -7 62 73 67 43
158 58 -132 -24 52 63 59 36
144 46 -136 -40 34 46 43 26
118 32 -132 -55 13 25 22 14
94 18 -128 -70 -8 4 2 2
69 4 -124 -86 -28 -17 -19 -11
44 -10 -120 -101 -49 -38 -39 -24
30 -19 -107 -100 -56 -46 -47 -29
21 -26 -90 -90 -55 -46 -49 -32
12 -33 -73 -80 -54 -45 -50 -34
4 -40 -56 -70 -53 -45 -51 -37
-6 -47 -38 -61 -52 -45 -52 -40
-9 -46 -28 -53 -47 -40 -51 -40
-9 -38 -22 -47 -39 -35 -47 -37
-9 -31 -16 -39 -32 -30 -44 -35
-9 -25 -10 -33 -26 -25 -39 -33
-9 -18 -4 -27 -19 -20 -36 -30
-10 -15 0 -24 -16 -18 -34 -29
-13 -17 2 -22 -14 -17 -33 -29
-16 -18 4 -21 -13 -17 -32 -28
-19 -20 7 -19 -12 -16 -32 -28
-22 -21 9 -18 -11 -16 -31 -28
-23 -22 10 -17 -10 -15 -27 -27
-23 -21 11 -16 -9 -14 -22 -26
-23 -20 12 -15 -8 -13 -18 -26
-23 -20 13 -14 -8 -12 -13 -25
-23 -19 14 -13 -7 -11 -8 -25
-23 -18 15 -12 -6 -10 -6 -24
-25 -18 15 -12 -6 -10 -5 -24
-26 -18 15 -12 -6 -10 -3 -25
-28 -18 15 -12 -6 -10 -2 -25
-29 -18 15 -12 -6 -10 0 -25
-29 -17 14 -13 -7 -11 1 -26
-27 -17 14 -15 -7 -11 1 -27
-25 -17 13 -16 -7 -11 2 -28
-22 -17 13 -18 -7 -11 2 -29
-20 -17 13 -19 -7 -11 2 -30
-19 -17 12 -21 -6 -12 3 -31
-19 -16 12 -23 -6 -12 3 -31
-19 -14 13 -25 -6 -12 3 -31
-19 -13 13 -28 -6 -12 3 -31
-19 -12 13 -30 -6 -12 3 -31
-20 -11 14 -31 -5 -12 2 -30
-19 -12 14 -32 -5 -12 2 -30
-18 -13 14 -34 -4 -11 2 -29
-18 -13 14 -35 -4 -10 2 -28
-17 -14 14 -36 -4 -10 2 -28
-16 -15 12 -37 -3 -9 3 -27
-14 -15 9 -39 -3 -9 2 -27
-13 -15 6 -40 -4 -10 1 -26
-11 -15 3 -43 -5 -11 0 -26
-10 -15 0 -44 -5 -11 -2 -26
-9 -16 -3 -45 -6 -12 -3 -24
-10 -16 -4 -45 -6 -12 -3 -23
-12 -15 -5 -46 -6 -11 -3 -21
-13 -14 -6 -47 -6 -11 -3 -20
-14 -14 -7 -47 -6 -11 -3 -18
-15 -13 -8 -48 -5 -10 -2 -16
-15 -13 -8 -48 -5 -10 -2 -15
-15 -13 -8 -48 -6 -10 -3 -13
-15 -13 -8 -48 -6 -10 -3 -12
-15 -13 -8 -48 -6 -10 -3 -10
-16 -14 -9 -49 -7 -9 -4 -9
-16 -14 -9 -49 -6 -9 -4 -7
-15 -13 -9 -48 -5 -8 -4 -6
-14 -12 -9 -48 -5 -8 -4 -4
-14 -12 -9 -48 -4 -8 -4 -3
-13 -11 -11 -47 -3 -7 -6 -2
-12 -11 -13 -49 -4 -8 -10 0
-11 -11 -15 -50 -5 -9 -14 1
-10 -11 -17 -52 -5 -9 -18 1
-9 -11 -19 -53 -6 -10 -22 2
-8 -12 -20 -54 -7 -11 -25 3
-8 -12 -20 -55 -7 -11 -27 3
-9 -11 -21 -56 -6 -10 -30 4
-9 -10 -22 -56 -6 -10 -32 4
-9 -10 -22 -57 -6 -10 -35 4
-10 -9 -23 -58 -5 -9 -36 5
-9 -9 -23 -56 -4 -8 -35 5
-8 -9 -24 -55 -3 -7 -34 6
-7 -9 -24 -53 -3 -7 -34 6
-6 -9 -24 -52 -2 -6 -33 6
-5 -10 -25 -51 0 -5 -32 7
-5 -8 -26 -52 0 -5 -32 7
-4 -6 -28 -53 -2 -5 -33 7
-4 -5 -29 -54 -3 -5 -33 7
-4 -3 -30 -55 -3 -5 -33 7
-3 -2 -32 -56 -4 -6 -34 7
-2 -2 -34 -57 -4 -6 -34 7
0 0 -36 -59 -4 -5 -34 7
1 1 -38 -60 -4 -4 -34 7
2 1 -41 -61 -4 -4 -34 7
3 2 -43 -62 -5 -3 -33 7
3 1 -45 -62 -5 -4 -33 7
3 -2 -46 -63 -6 -5 -34 7
3 -3 -48 -63 -6 -5 -35 7
3 -4 -49 -63 -6 -6 -35 7
5 -3 -50 -66 -7 -7 -36 8
10 1 -50 -69 -7 -6 -35 9
14 5 -50 -73 -6 -5 -34 10
18 8 -50 -76 -6 -5 -34 10
23 12 -50 -80 -6 -4 -33 11
25 13 -52 -83 -5 -3 -32 12
25 12 -54 -87 -5 -3 -32 12
25 10 -57 -89 -5 -2 -33 12
25 8 -59 -92 -5 -2 -34 12
25 6 -62 -94 -5 -2 -34 12
26 5 -63 -96 -4 0 -35 12
25 5 -61 -95 -4 0 -34 12
24 6 -59 -93 -3 1 -33 13
24 7 -58 -92 -3 1 -32 14
23 7 -56 -91 -3 1 -31 14
22 8 -55 -90 -2 2 -30 15
22 8 -55 -90 -2 2 -30 15
22 8 -54 -90 -2 2 -30 14
22 8 -54 -90 -2 2 -30 13
22 8 -54 -90 -2 2 -30 13
23 7 -53 -90 -2 1 -31 12
23 6 -53 -90 -2 1 -32 11
23 4 -53 -90 -3 0 -33 10
23 2 -53 -90 -4 -2 -34 10
23 0 -53 -90 -4 -2 -35 9
22 -2 -50 -89 -5 -3 -36 8
19 -3 -45 -86 -5 -3 -37 7
17 -4 -40 -83 -4 -3 -38 6
14 -4 -35 -80 -4 -3 -38 6
12 -5 -30 -78 -4 -3 -39 5
10 -6 -27 -76 -3 -4 -41 4
8 -6 -26 -75 -3 -4 -43 3
6 -6 -24 -74 -3 -5 -45 1
5 -6 -22 -73 -3 -5 -47 0
3 -6 -20 -72 -3 -5 -49 -2
2 -5 -18 -71 -3 -6 -50 -3
2 -5 -15 -69 -2 -6 -50 -3
2 -4 -12 -67 1 -5 -50 -3
2 -4 -9 -66 2 -5 -50 -3
2 -4 -6 -64 3 -5 -50 -3
2 -3 -4 -63 4 -4 -49 -2
1 -5 -4 -63 4 -4 -51 -3
-2 -6 -4 -64 3 -5 -52 -4
-4 -8 -4 -65 2 -6 -54 -4
-6 -9 -4 -65 2 -6 -55 -5
-7 -10 -5 -66 1 -7 -56 -6
-8 -11 -4 -65 1 -7 -57 -6
-10 -12 -3 -64 1 -7 -58 -7
-11 -13 -2 -63 1 -7 -58 -7
-12 -14 0 -62 1 -7 -59 -7
-13 -15 1 -61 0 -8 -60 -8
-13 -14 2 -61 1 -8 -59 -8
-13 -12 4 -60 2 -7 -58 -7
-13 -11 5 -59 2 -6 -57 -7
-13 -10 6 -59 3 -6 -56 -7
-13 -9 7 -58 4 -5 -55 -6
-13 -9 6 -59 4 -6 -56 -6
-12 -9 5 -60 3 -7 -57 -7
-11 -9 5 -60 2 -7 -58 -7
-11 -9 4 -61 2 -8 -59 -7
-10 -10 3 -62 1 -9 -60 -8
-11 -10 3 -62 1 -9 -60 -8
-12 -11 3 -62 1 -9 -60 -7
-13 -12 3 -62 1 -9 -60 -7
-14 -12 3 -62 1 -9 -60 -7
-15 -13 4 -61 2 -9 -60 -6
-15 -12 5 -61 3 -8 -60 -6
-14 -11 6 -60 4 -7 -60 -6
-14 -11 6 -59 4 -7 -60 -6
-14 -10 7 -59 5 -6 -60 -6
-13 -9 8 -58 6 -5 -59 -5
-13 -9 8 -58 6 -5 -60 -5
-13 -10 7 -59 5 -6 -61 -5
-13 -10 6 -59 5 -7 -61 -5
-13 -10 6 -59 5 -7 -62 -5
-13 -11 5 -60 4 -8 -63 -6
-13 -10 7 -58 5 -8 -62 -5
-12 -8 9 -57 6 -7 -61 -4
-12 -7 10 -56 6 -6 -61 -4
-12 -6 12 -54 7 -6 -60 -3
-11 -5 13 -53 8 -5 -59 -2
-11 -5 13 -53 8 -5 -59 -2
-11 -4 12 -53 8 -5 -59 -2
-11 -3 11 -53 8 -5 -59 -2
-11 -3 11 -53 8 -5 -59 -2
-10 -2 10 -54 8 -5 -60 -2
-11 -3 10 -53 8 -5 -60 -2
-12 -4 11 -51 9 -4 -59 0
-13 -4 12 -50 9 -3 -59 0
-14 -5 12 -49 9 -3 -59 0
-15 -6 13 -48 10 -2 -58 1
-15 -6 13 -48 10 -2 -59 0
-14 -7 12 -48 9 -3 -60 -3
-14 -7 12 -48 8 -4 -60 -4
-14 -7 12 -48 8 -4 -61 -5
-13 -7 11 -48 7 -5 -62 -6
-13 -5 12 -46 7 -4 -62 -5
-12 -3 13 -44 8 -3 -61 -3
-11 0 13 -41 9 -3 -61 -2
-11 2 14 -39 9 -2 -61 0
-10 4 15 -38 10 0 -60 1
-10 3 14 -38 10 0 -60 0
-9 2 13 -38 10 -2 -61 -2
-9 2 13 -38 10 -3 -61 -2
-9 1 12 -38 10 -3 -61 -3
-8 0 11 -37 9 -4 -62 -4
-9 0 11 -35 9 -4 -62 -4
-10 -2 12 -34 10 -3 -62 -4
-11 -2 13 -33 10 -3 -62 -4
-12 -2 13 -31 10 -3 -62 -4
-13 -3 14 -30 11 -2 -64 -3
-13 -4 13 -30 11 -2 -66 -3
-13 -6 11 -30 10 -3 -68 -4
-13 -7 10 -30 9 -3 -70 -4
-13 -8 9 -30 9 -3 -72 -4
-13 -9 8 -30 8 -4 -74 -5
-13 -7 8 -30 8 -4 -73 -5
-14 -6 8 -29 8 -4 -72 -5
-15 -5 8 -28 8 -4 -72 -5
-15 -3 8 -28 8 -4 -71 -5
-16 -2 7 -27 7 -3 -70 -5
-15 -2 7 -26 7 -3 -69 -5
-14 -2 6 -25 6 -3 -68 -5
-13 -2 5 -25 6 -3 -67 -5
-12 -2 5 -24 6 -3 -66 -5
-11 -3 4 -23 5 -3 -65 -6
-11 -3 4 -23 5 -3 -65 -5
-10 -3 5 -22 5 -3 -64 -4
-10 -3 6 -22 5 -3 -63 -4
-10 -3 6 -22 5 -3 -63 -3
-9 -3 7 -21 5 -2 -62 -2
-9 -2 7 -21 5 -2 -61 -2
-10 0 6 -20 5 -2 -59 -3
-10 1 6 -19 5 -2 -58 -4
-10 2 6 -19 5 -2 -57 -4
-11 3 6 -18 5 0 -56 -5
-11 4 9 -18 7 0 -55 -3
-12 5 12 -18 8 1 -54 -2
-13 7 15 -18 9 2 -52 0
-13 8 18 -18 11 2 -51 2
-14 9 20 -17 12 3 -49 3
-12 10 20 -15 12 5 -46 3
-11 10 21 -13 13 6 -43 4
-10 11 22 -11 14 7 -39 5
-8 12 22 -9 14 9 -36 5
-7 13 23 -7 15 10 -34 6
-7 13 23 -7 15 10 -32 6
-7 13 23 -7 15 10 -31 6
-7 12 22 -6 15 10 -29 6
-7 12 22 -6 15 10 -27 6
-6 11 21 -5 14 9 -26 5
-5 12 19 -4 14 9 -26 5
-4 13 18 -3 14 10 -26 6
-3 14 16 0 14 11 -25 7
-2 15 14 1 14 11 -25 7
0 15 13 2 13 11 -24 8
0 13 12 1 11 9 -25 7
0 11 11 0 9 6 -26 6
0 8 9 -2 6 3 -27 4
0 6 8 -3 4 1 -28 3
1 4 7 -4 2 -2 -29 2
0 4 7 -3 3 1 -27 2
-2 4 7 -2 3 2 -25 2
-4 4 7 0 4 3 -23 3
-5 4 7 1 5 5 -21 3
-7 4 8 2 6 6 -19 4
-9 2 8 1 5 4 -19 3
-11 1 8 1 4 3 -19 2
-14 -2 9 0 3 2 -20 0
-16 -4 9 -2 2 0 -20 -2
-18 -5 10 -3 1 -2 -21 -3
-18 -5 10 -3 1 -2 -21 -3
-18 -5 10 -3 1 -2 -20 -3
-18 -5 9 -3 1 -2 -19 -3
-18 -5 9 -3 1 -2 -19 -3
-19 -5 8 -3 2 0 -18 -4
-17 -7 8 -3 1 0 -17 -4
-15 -9 8 -3 0 -2 -16 -5
-13 -11 8 -3 -2 -3 -15 -6
-11 -13 8 -3 -3 -3 -14 -6
-10 -15 9 -2 -4 -4 -13 -7
-10 -13 9 -2 -4 -4 -12 -7
-11 -12 9 -2 -4 -4 -11 -7
-12 -10 8 -2 -4 -4 -9 -8
-12 -8 8 -2 -4 -4 -8 -8
-13 -7 7 -3 -4 -4 -7 -9
-13 -7 7 -3 -4 -4 -5 -9
-13 -7 7 -3 -4 -4 -3 -9
-13 -7 8 -3 -4 -4 0 -9
-13 -7 8 -3 -4 -4 2 -9
-14 -8 9 -3 -5 -5 4 -9
-14 -8 9 -3 -4 -5 6 -9
-14 -9 9 -3 -4 -5 8 -8
-15 -10 10 -3 -3 -4 10 -7
-15 -10 10 -3 -2 -4 12 -7
-16 -11 11 -4 0 -3 15 -6
-16 -11 11 -4 0 -3 18 -6
-15 -11 12 -4 0 -3 20 -6
-14 -11 13 -5 0 -3 23 -6
-14 -11 13 -5 0 -3 26 -6
-15 -10 16 -5 0 -4 28 -6
-19 -10 21 -3 2 -4 29 -6
-24 -10 26 1 4 -4 29 -7
-29 -10 31 3 6 -3 30 -8
-34 -10 36 6 8 -3 31 -8
-34 -6 40 12 14 3 32 -6
-27 4 43 22 25 13 34 1
-20 13 45 31 36 23 35 8
-13 22 48 42 48 34 36 15
-6 31 50 52 58 45 38 22
7 43 48 58 69 56 45 30
28 55 37 60 79 69 58 39
49 68 27 61 90 82 71 49
69 80 17 63 101 96 85 59
90 94 7 65 111 108 98 68
108 100 -12 61 115 115 106 74
125 98 -39 48 110 112 107 73
141 96 -68 33 105 110 107 72
157 93 -96 20 100 107 108 70
174 91 -124 7 95 104 109 69
173 80 -140 -11 80 91 101 62
149 59 -137 -34 52 65 77 46
126 38 -135 -57 23 38 55 29
101 18 -132 -79 -5 12 32 13
77 -4 -129 -103 -33 -15 9 -3
58 -18 -119 -113 -50 -30 -6 -14
44 -24 -103 -106 -50 -31 -10 -18
29 -31 -86 -98 -49 -32 -14 -22
15 -37 -69 -90 -48 -33 -18 -26
1 -44 -52 -82 -48 -34 -21 -29
-8 -46 -38 -74 -45 -34 -23 -31
-8 -39 -29 -67 -37 -29 -18 -27
-8 -32 -20 -59 -31 -25 -13 -24
-8 -26 -11 -51 -25 -20 -9 -20
-8 -20 -3 -44 -18 -16 -4 -17
-8 -16 4 -38 -14 -13 0 -14
-11 -17 5 -37 -13 -13 1 -14
-14 -18 5 -37 -13 -12 2 -14
-17 -20 6 -36 -12 -11 3 -14
-21 -21 7 -35 -11 -11 4 -14
-23 -22 8 -34 -10 -10 5 -14
-20 -19 10 -31 -10 -10 6 -14
-18 -17 12 -29 -9 -10 8 -14
-15 -15 14 -27 -8 -9 9 -14
-13 -13 15 -25 -8 -9 11 -14
-11 -11 17 -23 -7 -8 12 -14
-12 -12 17 -20 -7 -8 13 -14
-14 -12 17 -18 -7 -8 14 -13
-15 -13 16 -15 -7 -7 15 -12
-17 -14 16 -13 -7 -7 16 -12
-18 -15 15 -11 -6 -6 17 -11
-19 -15 15 -10 -6 -6 17 -11
-20 -16 16 -9 -6 -7 17 -11
-22 -17 17 -8 -6 -8 17 -11
-23 -17 17 -7 -6 -8 17 -11
-24 -18 18 -6 -5 -9 18 -12
-23 -17 18 -6 -5 -9 20 -12
-22 -17 18 -6 -5 -8 22 -12
-20 -16 18 -6 -5 -7 24 -12
-19 -15 18 -6 -5 -7 25 -12
-18 -14 17 -6 -4 -6 27 -13
-18 -14 17 -6 -4 -6 27 -13
-17 -15 17 -6 -4 -6 27 -13
-16 -16 17 -6 -4 -6 27 -13
-16 -16 17 -6 -4 -6 27 -13
-15 -17 16 -5 -4 -6 27 -14
-16 -16 16 -3 -4 -6 28 -13
-18 -15 17 -2 -4 -6 29 -13
-19 -13 18 1 -4 -6 31 -12
-21 -12 18 3 -4 -6 32 -11
-22 -11 19 4 -3 -7 33 -10
-21 -11 19 5 -3 -7 34 -10
-20 -11 18 6 -3 -7 35 -10
-19 -11 17 7 -3 -6 36 -11
-18 -11 17 8 -3 -6 37 -11
-17 -12 16 9 -4 -5 38 -12
-16 -12 16 9 -4 -5 38 -12
-15 -12 16 9 -5 -5 38 -12
-13 -12 15 9 -6 -5 38 -12
-12 -12 15 9 -6 -5 38 -12
-12 -13 14 8 -7 -6 39 -11
-15 -13 14 8 -7 -6 43 -11
-19 -13 14 8 -7 -6 45 -11
-23 -13 14 8 -7 -5 47 -10
-26 -13 14 8 -7 -5 49 -10
-28 -13 15 7 -6 -4 51 -9
-26 -13 14 7 -6 -5 51 -10
-23 -13 14 6 -7 -5 52 -10
-20 -13 13 5 -8 -6 53 -11
-17 -13 12 5 -8 -7 53 -12
-15 -14 11 4 -9 -8 54 -13
-13 -13 11 4 -9 -7 56 -12
-11 -12 11 5 -8 -7 58 -10
-9 -11 11 6 -7 -6 60 -9
-8 -10 11 6 -7 -5 62 -7
-6 -9 11 7 -6 -4 64 -6
-8 -9 10 9 -6 -4 64 -6
-9 -9 9 11 -6 -4 65 -6
-11 -9 8 13 -6 -4 66 -6
-12 -9 7 14 -6 -4 66 -6
-14 -10 6 16 -6 -5 67 -7
-12 -10 6 19 -6 -4 68 -6
-10 -9 6 21 -5 -4 70 -6
-8 -8 6 24 -4 -3 71 -5
-7 -8 6 26 -4 -2 73 -4
-5 -7 5 28 -3 0 74 -3
-4 -6 4 29 -3 0 75 -3
-4 -5 3 30 -3 0 77 -3
-3 -3 2 31 -3 0 78 -3
-2 -2 1 32 -3 0 80 -3
0 0 0 33 -2 0 81 -2
2 1 -3 33 -2 0 82 -2
5 1 -5 33 -2 1 85 0
7 2 -7 33 -2 2 86 1
9 3 -9 33 -2 2 88 1
11 4 -11 32 -3 3 89 2
11 4 -13 31 -3 3 90 2
10 4 -14 31 -3 3 91 2
9 4 -16 30 -4 3 93 3
9 4 -17 29 -4 3 94 3
9 5 -19 28 -5 2 95 4
12 6 -21 28 -5 2 98 4
15 8 -24 28 -5 3 100 4
18 9 -26 27 -4 4 103 5
21 11 -28 27 -4 4 105 5
23 12 -30 26 -3 5 107 6
24 12 -30 24 -3 5 109 6
25 11 -31 23 -3 6 110 6
26 10 -32 21 -4 7 112 6
27 10 -32 20 -4 7 113 6
28 9 -33 18 -5 8 115 6
27 8 -33 18 -5 8 114 6
26 7 -33 18 -5 7 113 6
25 5 -33 17 -6 6 111 6
24 4 -33 17 -6 6 110 6
23 3 -33 16 -7 5 109 5
23 3 -32 16 -7 4 107 4
23 3 -30 16 -7 4 105 3
23 3 -29 16 -7 3 103 2
23 3 -27 16 -7 2 101 1
24 3 -25 15 -8 1 99 0
21 2 -22 16 -7 1 98 0
18 2 -19 16 -7 1 97 0
16 1 -16 17 -6 2 96 0
13 0 -14 18 -5 2 95 0
11 -2 -11 19 -4 3 94 -2
8 -3 -9 19 -4 3 92 -2
5 -4 -8 20 -4 3 90 -2
2 -5 -6 20 -4 3 89 -2
-2 -6 -5 21 -4 3 87 -2
-4 -7 -3 22 -3 2 85 -3
-6 -9 1 22 -3 1 84 -4
-8 -12 4 22 -3 1 82 -4
-9 -14 6 21 -3 0 81 -5
-11 -16 9 21 -3 -2 79 -6
-13 -18 11 20 -4 -3 78 -7
-13 -16 11 20 -4 -3 76 -7
-13 -15 12 20 -4 -3 75 -7
-12 -13 12 20 -4 -4 73 -8
-12 -12 13 20 -4 -4 72 -8
-11 -10 14 20 -5 -5 70 -9
-11 -10 14 20 -5 -5 69 -9
-11 -10 15 20 -5 -5 68 -9
-10 -10 15 20 -5 -5 67 -9
-10 -10 16 20 -5 -5 66 -9
-9 -11 17 21 -5 -6 65 -10
-11 -11 15 20 -6 -7 62 -11
-12 -12 14 20 -7 -7 59 -13
-14 -12 12 19 -8 -8 57 -14
-15 -13 11 18 -10 -9 54 -16
-17 -14 9 17 -11 -10 52 -17
-18 -15 9 17 -11 -9 52 -16
-19 -16 9 17 -10 -9 53 -15
-20 -17 10 16 -10 -8 53 -14
-21 -18 10 16 -9 -7 54 -12
-22 -19 11 15 -8 -6 55 -11
-21 -18 11 14 -8 -6 54 -11
-20 -16 12 14 -8 -6 52 -11
-19 -15 12 13 -8 -6 51 -12
-18 -13 13 12 -8 -6 49 -12
-17 -12 14 11 -8 -6 48 -13
-17 -12 13 10 -8 -6 47 -13
-16 -12 13 8 -8 -6 47 -13
-16 -13 12 7 -8 -7 46 -14
-15 -13 11 5 -8 -7 45 -14
-14 -14 10 4 -9 -8 44 -15
-14 -14 11 4 -9 -8 43 -14
-13 -14 11 4 -9 -8 43 -13
-13 -15 12 4 -9 -8 42 -12
-12 -15 13 4 -9 -8 40 -11
-11 -16 14 4 -8 -8 39 -10
-13 -17 14 4 -8 -8 38 -10
-15 -18 14 4 -7 -8 37 -10
-16 -19 14 4 -7 -8 36 -10
-18 -21 14 4 -6 -8 34 -10
-20 -22 13 5 -5 -7 33 -10
-20 -20 13 5 -5 -7 33 -10
-20 -18 13 6 -5 -6 33 -9
-20 -17 13 6 -5 -6 33 -9
-20 -15 13 7 -5 -5 33 -8
-19 -13 14 8 -4 -4 33 -7
-19 -13 14 9 -4 -4 33 -7
-19 -12 14 11 -4 -4 32 -7
-19 -12 14 12 -4 -3 32 -7
-19 -11 14 13 -4 -3 31 -7
-18 -10 13 15 -3 -2 30 -8
-19 -11 13 15 -3 -2 28 -8
-20 -12 13 15 -3 -2 26 -8
-21 -13 12 14 -4 -3 25 -8
-23 -14 12 14 -4 -3 23 -8
-24 -15 11 13 -5 -4 21 -9
-22 -13 12 13 -5 -4 21 -9
-21 -11 12 13 -5 -4 21 -8
-19 -10 13 14 -4 -3 21 -8
-18 -8 14 14 -4 -3 21 -7
-16 -6 15 15 -3 -2 21 -6
-16 -8 14 15 -3 -2 20 -7
-16 -10 13 14 -3 -2 18 -8
-16 -12 12 14 -3 -3 17 -9
-16 -14 11 13 -3 -3 16 -11
-16 -16 10 12 -4 -4 14 -12
-16 -15 10 12 -4 -4 13 -12
-16 -15 10 12 -4 -4 13 -11
-15 -14 10 12 -4 -4 12 -11
-15 -13 10 12 -4 -4 11 -10
-14 -12 9 11 -4 -4 10 -9
-14 -12 9 10 -4 -4 9 -9
-14 -12 9 8 -4 -4 8 -8
-14 -13 8 7 -3 -4 7 -8
-14 -13 8 6 -3 -4 6 -7
-14 -14 7 4 -2 -3 5 -6
-14 -13 7 3 -2 -3 5 -6
-15 -13 7 2 -2 -3 4 -6
-15 -12 7 1 -2 -3 4 -6
-16 -11 7 -2 -2 -3 3 -6
-17 -10 8 -3 -2 -3 2 -7
-16 -10 8 -2 -2 -3 0 -7
-16 -10 9 -2 -2 -3 -3 -7
-15 -11 9 0 -3 -3 -4 -7
-14 -11 10 1 -3 -3 -6 -7
-13 -12 11 2 -4 -4 -8 -7
-13 -12 10 2 -4 -4 -8 -6
-13 -12 9 2 -4 -4 -9 -6
-13 -12 8 1 -4 -4 -9 -5
-13 -12 7 1 -4 -4 -10 -4
-13 -13 6 0 -4 -4 -11 -3
-14 -14 5 0 -4 -4 -11 -4
-15 -15 4 0 -4 -5 -11 -5
-16 -16 3 0 -5 -5 -11 -6
-18 -17 1 0 -5 -6 -11 -7
-19 -18 0 -2 -6 -7 -11 -8
-18 -17 0 -2 -6 -7 -11 -8
-17 -15 0 -2 -5 -7 -11 -8
-16 -13 0 -2 -5 -6 -11 -8
-15 -12 0 -2 -4 -6 -11 -8
-14 -10 1 1 -3 -5 -10 -8
-14 -10 1 6 -2 -4 -10 -8
-14 -10 1 11 0 -2 -9 -7
-14 -9 1 16 1 0 -8 -7
-14 -9 1 21 3 1 -7 -6
-15 -8 2 26 4 3 -6 -5
-15 -7 3 30 5 3 -6 -4
-14 -5 4 35 6 3 -5 -3
-13 -4 5 39 7 3 -4 -2
-12 -3 7 45 8 3 -3 0
-11 0 8 49 9 4 -2 1
-11 0 8 49 9 4 -2 1
-12 -2 8 49 9 4 -3 1
-13 -2 8 50 9 4 -3 1
-14 -3 8 50 9 4 -4 1
-15 -4 7 51 9 3 -5 2
-12 0 7 51 10 4 -4 2
-10 2 6 52 11 6 -3 3
-7 5 6 53 12 7 -2 4
-5 7 5 54 14 8 0 5
-2 10 4 55 15 10 1 6
-2 7 1 53 12 8 -2 4
-2 3 -3 51 10 6 -4 2
-2 0 -6 49 7 3 -5 1
-2 -4 -8 47 5 1 -7 -2
-2 -7 -11 45 2 -2 -9 -4
-2 -7 -11 45 2 -2 -9 -4
-3 -7 -11 45 2 -2 -10 -4
-4 -6 -11 45 2 -3 -10 -5
-5 -6 -11 45 2 -3 -11 -5
-6 -5 -10 44 1 -4 -12 -6
-6 -6 -10 45 2 -4 -11 -6
-6 -7 -9 47 3 -3 -10 -6
-6 -8 -8 49 4 -2 -9 -5
-6 -10 -7 50 5 0 -8 -5
-7 -11 -6 52 6 1 -7 -4
-9 -13 -6 51 5 0 -8 -5
-11 -15 -7 50 4 -3 -10 -7
-13 -17 -7 49 3 -4 -11 -8
-15 -19 -8 48 1 -5 -12 -9
-17 -21 -9 47 0 -7 -14 -11
-17 -21 -9 47 0 -7 -14 -11
-17 -20 -9 47 0 -7 -14 -11
-18 -19 -9 47 0 -7 -14 -11
-18 -18 -9 47 0 -7 -14 -11
-19 -17 -9 48 0 -6 -13 -10
-19 -17 -9 49 0 -6 -13 -10
-18 -17 -9 50 0 -6 -13 -11
-18 -17 -9 51 1 -6 -12 -11
-17 -17 -9 53 1 -6 -12 -12
-16 -17 -10 54 2 -7 -11 -13
-16 -17 -10 54 2 -7 -11 -13
-17 -17 -10 54 2 -7 -11 -13
-17 -18 -10 54 2 -7 -11 -13
-18 -18 -10 54 2 -7 -11 -13
-19 -19 -10 54 2 -8 -12 -13
-19 -19 -10 54 2 -8 -12 -12
-19 -19 -9 54 2 -8 -11 -11
-20 -20 -9 55 2 -7 -11 -10
-20 -20 -8 55 2 -7 -10 -9
-21 -21 -7 56 3 -6 -9 -8
-19 -21 -7 56 3 -6 -9 -8
-16 -21 -8 56 3 -6 -9 -9
-14 -21 -9 56 3 -6 -9 -9
-11 -21 -10 56 3 -6 -9 -10
-10 -21 -11 55 2 -6 -10 -11
-17 -21 -7 57 3 -6 -10 -11
-23 -20 -4 59 4 -6 -10 -11
-30 -20 1 61 5 -5 -10 -11
-37 -19 5 63 7 -5 -10 -11
-43 -17 8 66 9 -3 -8 -10
-36 -12 13 75 16 4 -3 -6
-30 -6 18 86 23 10 3 -3
-23 1 22 95 30 16 9 1
-17 7 27 104 38 22 14 5
-9 14 31 113 47 30 21 9
7 26 27 120 59 44 33 19
21 39 22 128 71 57 47 29
36 53 18 135 84 70 60 39
52 65 14 143 97 84 72 49
68 77 6 148 107 96 85 59
91 88 -23 137 108 103 95 66
114 98 -51 127 109 110 104 72
137 108 -78 116 110 117 114 79
160 118 -106 106 111 126 125 87
178 122 -131 94 108 127 129 90
163 93 -137 71 79 96 100 67
149 63 -143 50 51 65 71 45
135 33 -149 28 22 34 44 22
120 4 -155 6 -7 4 15 1
105 -22 -158 -13 -31 -22 -9 -19
87 -25 -142 -14 -35 -27 -15 -23
68 -29 -127 -15 -39 -32 -21 -26
49 -32 -111 -16 -44 -37 -26 -30
30 -36 -95 -17 -47 -43 -32 -34
14 -39 -80 -16 -50 -47 -37 -37
9 -39 -69 -4 -43 -40 -34 -34
5 -39 -58 8 -34 -35 -30 -31
1 -39 -47 20 -26 -30 -27 -27
-5 -39 -35 32 -19 -25 -23 -24
-9 -39 -25 44 -12 -20 -20 -21
-11 -37 -23 46 -12 -19 -20 -21
-13 -34 -21 48 -11 -18 -19 -20
-15 -32 -19 50 -10 -17 -19 -20
-18 -30 -16 52 -9 -16 -18 -19
-20 -27 -14 54 -8 -15 -17 -18
-19 -25 -14 54 -7 -15 -17 -18
-17 -24 -14 54 -6 -14 -17 -17
-15 -22 -13 55 -5 -14 -16 -16
-14 -20 -13 55 -4 -13 -16 -15
-12 -18 -12 56 -2 -12 -15 -14
-13 -19 -12 57 -2 -12 -15 -14
-15 -20 -12 58 -2 -12 -15 -14
-17 -21 -12 59 -2 -12 -15 -14
-18 -22 -12 60 -2 -12 -15 -14
-20 -23 -11 61 0 -12 -15 -15
-20 -23 -12 61 0 -12 -15 -15
-20 -23 -13 61 0 -12 -15 -15
-21 -23 -14 61 0 -13 -15 -15
-21 -23 -15 61 0 -13 -15 -15
-22 -23 -16 61 0 -14 -15 -16
-21 -22 -16 62 0 -14 -14 -16
-19 -21 -15 63 0 -13 -13 -16
-18 -20 -14 64 0 -13 -12 -15
-17 -19 -13 65 0 -12 -11 -15
-15 -17 -12 67 1 -11 -9 -14
-15 -17 -12 67 1 -11 -9 -14
-14 -16 -12 66 1 -11 -9 -14
-14 -15 -13 66 2 -11 -9 -14
-13 -14 -13 65 2 -11 -9 -14
-12 -13 -14 64 3 -11 -10 -15
-12 -13 -14 63 3 -11 -10 -15
-13 -14 -14 62 3 -10 -10 -15
-14 -15 -14 61 3 -10 -9 -14
-15 -16 -14 60 3 -9 -9 -14
-16 -17 -14 59 3 -8 -8 -13
-16 -17 -14 58 3 -8 -8 -13
-17 -17 -14 56 3 -8 -8 -13
-17 -18 -14 54 3 -8 -7 -14
-18 -18 -14 53 3 -8 -7 -14
-19 -19 -13 51 3 -9 -6 -15
-19 -18 -13 51 3 -9 -6 -15
-18 -17 -13 51 3 -9 -6 -15
-18 -16 -13 51 3 -9 -5 -15
-17 -15 -13 51 3 -9 -5 -15
-16 -13 -12 50 4 -10 -4 -14
-16 -13 -13 49 4 -10 -4 -14
-16 -14 -14 47 4 -10 -5 -14
-16 -15 -15 45 3 -10 -6 -14
-16 -16 -16 44 3 -10 -7 -14
-15 -17 -17 42 2 -11 -8 -14
-15 -17 -17 42 2 -11 -8 -14
-14 -17 -17 40 2 -11 -8 -14
-13 -16 -18 40 1 -11 -7 -15
-12 -16 -18 39 1 -11 -7 -15
-11 -15 -19 38 0 -12 -6 -16
-11 -15 -19 38 0 -12 -6 -16
-11 -15 -19 38 1 -11 -6 -15
-11 -14 -19 38 1 -11 -6 -14
-11 -14 -19 38 2 -10 -6 -13
-11 -13 -19 38 3 -9 -6 -12
-11 -13 -19 38 3 -9 -6 -12
-11 -13 -19 38 3 -9 -5 -12
-11 -13 -19 38 3 -9 -4 -12
-11 -13 -19 38 3 -9 -3 -12
-12 -13 -20 37 2 -10 -2 -12
-10 -12 -20 37 2 -10 -2 -12
-9 -11 -21 37 3 -10 -2 -12
-7 -9 -22 37 3 -10 0 -12
-5 -8 -23 37 4 -10 0 -12
-3 -6 -24 36 5 -9 1 -12
-3 -6 -24 36 5 -9 1 -11
-2 -6 -25 36 5 -8 2 -10
-2 -5 -25 35 5 -8 2 -9
0 -5 -26 35 5 -7 3 -8
1 -4 -27 34 5 -6 4 -7
1 -4 -28 33 5 -6 4 -7
2 -3 -29 31 5 -6 5 -7
3 -3 -30 30 5 -6 5 -6
4 -2 -31 28 5 -6 6 -6
5 0 -32 26 5 -6 7 -5
6 1 -33 26 5 -6 7 -5
8 2 -34 25 5 -6 8 -5
10 3 -36 25 5 -6 8 -5
12 4 -37 24 5 -6 9 -5
14 5 -39 23 5 -5 10 -4
14 5 -40 22 5 -4 10 -3
14 6 -41 20 5 -3 10 -2
15 6 -43 19 5 -2 10 1
15 7 -44 17 5 0 10 2
16 8 -46 15 4 1 9 4
17 8 -47 14 4 1 9 4
18 8 -48 13 4 0 9 4
