I II V1 V2 V3 V4 V5 V6
-5 10 11 8 8 10 5 -8
-5 11 11 8 8 10 5 -8
-5 12 11 8 9 11 6 -7
-4 13 11 9 10 11 6 -7
-4 14 11 9 11 12 7 -6
-4 15 11 9 12 12 7 -6
-3 16 11 10 13 13 8 -5
-3 16 10 10 13 14 8 -5
-3 17 10 10 13 14 9 -4
-3 17 9 10 13 15 9 -4
-3 17 9 10 13 15 9 -4
-4 18 7 10 14 16 10 -3
-4 19 6 9 14 16 10 -3
-4 20 5 8 14 16 11 -3
-4 21 4 7 14 16 11 -3
-4 21 3 7 14 16 11 -3
-3 22 2 6 12 17 12 -2
-2 22 1 5 11 16 11 -2
1 21 0 4 10 15 11 -3
2 21 -2 3 9 14 10 -3
3 21 -3 2 8 13 10 -3
4 20 -4 1 7 12 9 -4
4 20 -4 1 7 12 9 -4
4 19 -4 1 7 12 9 -5
4 19 -4 1 7 12 9 -5
4 19 -4 1 7 12 9 -5
4 17 -4 1 6 11 9 -6
4 15 -4 1 5 10 9 -6
4 13 -4 1 5 10 9 -6
4 11 -4 1 4 9 9 -6
4 10 -4 1 4 9 9 -6
3 9 -5 0 3 8 8 -6
3 9 -5 0 3 8 8 -6
4 9 -4 0 2 8 8 -6
4 9 -4 0 2 8 8 -6
4 9 -4 0 2 8 8 -6
4 9 -3 -2 1 7 6 -7
2 8 -3 -2 0 6 5 -9
1 7 -3 -2 -2 5 4 -10
-2 6 -3 -2 -3 4 3 -12
-3 5 -3 -2 -4 3 2 -13
-4 4 -3 -3 -5 2 1 -14
-4 4 -3 -3 -5 1 1 -14
-4 3 -2 -3 -6 1 1 -14
-4 3 -2 -3 -6 0 1 -14
-4 3 -2 -3 -6 0 1 -14
-4 2 0 -4 -7 -2 1 -15
-5 2 0 -4 -7 -2 0 -15
-5 1 0 -4 -7 -3 -2 -16
-6 1 0 -4 -7 -3 -3 -16
-6 1 0 -4 -7 -3 -4 -16
-7 0 0 -5 -8 -4 -5 -17
-7 0 0 -5 -8 -4 -5 -18
-7 0 0 -5 -9 -4 -5 -18
-7 0 0 -5 -9 -4 -5 -19
-7 0 0 -5 -9 -4 -5 -19
-8 -2 0 -5 -10 -5 -5 -20
-8 -3 0 -5 -10 -5 -5 -20
-9 -3 1 -5 -10 -6 -5 -20
-9 -4 1 -5 -10 -6 -5 -20
-9 -4 1 -5 -10 -6 -5 -20
-10 -5 2 -6 -10 -7 -6 -19
-10 -5 1 -6 -11 -7 -6 -19
-11 -5 1 -7 -11 -7 -6 -19
-11 -5 0 -7 -12 -7 -6 -19
-11 -5 0 -7 -12 -7 -6 -19
-12 -6 -2 -8 -13 -7 -7 -20
-11 -6 0 -7 -13 -7 -7 -20
-10 -6 1 -7 -12 -8 -7 -21
-9 -6 2 -6 -12 -8 -7 -21
-9 -6 2 -6 -12 -8 -7 -21
-8 -5 3 -5 -11 -9 -8 -22
-8 -5 3 -5 -11 -9 -7 -22
-8 -4 2 -6 -11 -8 -7 -21
-8 -4 2 -6 -11 -8 -6 -21
-8 -4 2 -6 -11 -8 -6 -21
-8 -3 1 -7 -12 -7 -5 -20
-9 -4 1 -7 -12 -8 -6 -20
-9 -5 1 -7 -13 -9 -7 -21
-10 -6 1 -7 -13 -10 -8 -21
-10 -6 1 -7 -13 -10 -9 -21
-10 -6 0 -8 -14 -10 -9 -22
-9 -5 1 -7 -13 -9 -8 -22
-7 -3 1 -7 -12 -8 -7 -21
-6 -2 2 -6 -11 -7 -6 -21
-5 0 2 -6 -10 -6 -5 -21
-4 1 3 -5 -9 -5 -4 -20
-5 0 3 -5 -9 -5 -4 -20
-6 -2 2 -5 -10 -6 -5 -20
-7 -3 2 -5 -10 -6 -5 -20
-7 -4 2 -5 -10 -6 -5 -20
-8 -5 1 -6 -11 -7 -6 -21
-8 -5 1 -6 -11 -6 -6 -21
-8 -5 1 -6 -11 -6 -5 -21
-8 -5 1 -6 -11 -5 -5 -21
-8 -5 1 -6 -11 -5 -5 -21
-7 -5 1 -5 -10 -4 -4 -20
-7 -4 2 -5 -10 -4 -4 -20
-6 -3 2 -4 -10 -5 -4 -20
-6 -2 3 -4 -10 -5 -4 -20
-6 0 3 -4 -10 -5 -4 -20
-5 1 4 -3 -10 -6 -5 -20
-6 0 4 -3 -10 -6 -4 -20
-7 -2 4 -3 -10 -5 -4 -19
-8 -3 4 -3 -10 -5 -3 -19
-8 -3 4 -3 -10 -5 -3 -19
-8 -3 5 1 -8 -4 -2 -18
-7 -2 6 3 -6 -3 -2 -18
-5 0 7 5 -4 -2 -2 -18
-4 1 8 8 -2 0 -2 -18
-3 2 9 10 1 0 -2 -18
2 4 11 16 9 11 8 -11
7 6 12 22 17 22 18 -4
11 7 13 29 25 33 27 4
15 9 14 35 34 44 37 11
19 10 15 42 43 55 48 18
25 16 19 55 64 81 68 32
30 21 23 68 88 109 90 48
36 27 27 81 111 136 111 63
42 32 31 96 135 163 133 78
48 38 35 109 157 191 154 94
52 50 29 97 160 205 175 110
56 62 22 80 159 219 194 128
60 74 14 64 159 232 215 145
63 87 6 48 158 245 234 161
67 98 -3 31 158 259 255 179
59 98 -16 -4 118 224 227 163
49 96 -31 -41 73 182 194 144
38 93 -46 -78 29 140 161 125
28 90 -61 -115 -15 99 128 105
18 88 -75 -153 -59 57 95 85
6 72 -85 -175 -96 12 56 57
-6 56 -93 -195 -133 -33 17 28
-18 39 -101 -215 -170 -78 -22 -2
-30 22 -109 -235 -205 -124 -61 -30
-41 6 -117 -255 -242 -170 -100 -59
-44 3 -110 -239 -232 -171 -103 -63
-43 2 -101 -219 -215 -164 -101 -64
-43 1 -92 -197 -198 -159 -99 -64
-41 0 -83 -176 -181 -154 -96 -65
-41 -2 -74 -155 -163 -148 -94 -65
-37 -2 -64 -134 -143 -130 -81 -59
-32 1 -54 -112 -122 -108 -68 -51
-28 3 -45 -91 -102 -88 -56 -43
-23 4 -34 -70 -80 -67 -43 -34
-19 6 -25 -49 -60 -47 -29 -25
-16 7 -20 -40 -51 -39 -25 -23
-14 6 -17 -33 -44 -33 -22 -22
-12 5 -13 -27 -36 -27 -19 -21
-9 4 -10 -21 -29 -22 -16 -20
-7 4 -6 -14 -21 -16 -13 -19
-6 3 -5 -11 -19 -15 -12 -18
-6 3 -4 -9 -17 -14 -11 -17
-5 2 -3 -7 -15 -13 -10 -16
-5 2 -2 -4 -14 -12 -9 -15
-5 2 0 -2 -12 -11 -9 -15
-4 1 1 0 -11 -10 -8 -14
-4 1 2 1 -10 -9 -7 -13
-4 0 3 1 -9 -9 -6 -13
-4 0 4 2 -8 -8 -5 -12
-4 0 4 2 -8 -8 -5 -12
-5 -2 5 4 -7 -7 -4 -11
-5 -2 5 5 -6 -6 -4 -11
-5 -2 5 7 -5 -6 -4 -11
-5 -2 5 8 -4 -5 -4 -11
-5 -2 5 9 -4 -5 -4 -11
-4 -3 6 10 -3 -4 -3 -10
-4 -3 7 10 -3 -4 -2 -9
-4 -3 7 10 -2 -3 -2 -9
-4 -3 8 10 -2 -3 0 -8
-4 -3 8 10 -2 -3 0 -8
-4 -3 9 10 0 -2 1 -7
-4 -3 9 11 0 -2 1 -8
-4 -4 9 11 0 -2 0 -8
-4 -4 9 12 0 -2 0 -9
-4 -4 9 12 0 -2 0 -9
-3 -5 8 13 -2 -3 -2 -10
-3 -5 8 13 -2 -3 -2 -9
-3 -5 8 12 -2 -3 0 -9
-3 -5 8 12 -2 -3 0 -8
-3 -5 8 12 -2 -3 0 -8
-3 -4 8 11 0 -2 1 -7
-2 -4 8 11 0 -2 1 -7
0 -3 8 11 0 -3 1 -7
1 -3 8 11 0 -3 1 -7
1 -3 8 11 0 -3 1 -7
2 -2 8 12 -2 -4 0 -7
2 0 8 12 -2 -3 0 -7
2 0 8 12 0 -3 0 -7
2 1 8 12 0 -2 0 -7
2 1 8 12 0 -2 0 -7
1 1 7 12 1 0 0 -7
0 0 6 12 1 0 0 -7
-2 -3 6 11 0 0 0 -7
-3 -5 5 11 0 0 0 -7
-4 -6 5 11 0 0 0 -7
-4 -6 4 10 -2 -2 1 -7
-2 -4 4 11 0 -2 2 -6
1 -2 5 11 0 0 3 -5
3 0 5 12 1 0 4 -4
5 2 5 12 1 0 5 -3
6 3 6 13 2 1 6 -2
5 3 6 13 2 1 6 -2
5 3 6 13 2 2 6 -2
4 3 6 13 2 2 6 -2
4 3 6 13 2 2 6 -2
3 4 6 13 3 3 5 -2
3 4 5 13 3 3 6 -2
3 3 5 13 4 4 6 -2
3 3 4 13 4 4 7 -2
3 3 4 13 4 4 7 -2
2 2 3 13 5 5 8 0
3 2 3 13 5 5 8 0
3 2 3 13 5 6 9 1
4 2 3 13 5 6 9 1
4 2 3 13 5 6 9 1
5 3 2 13 6 7 10 2
4 3 2 13 6 8 11 3
3 4 2 14 6 9 12 4
2 4 2 14 6 10 13 5
2 4 2 14 6 11 13 6
2 5 1 15 7 12 14 7
4 6 1 15 7 12 14 7
6 6 1 15 8 12 15 7
7 7 1 15 8 12 15 7
9 7 1 15 8 12 15 7
10 8 0 15 9 14 17 8
10 9 0 15 10 15 18 9
10 9 0 16 11 17 19 11
10 10 0 16 12 19 21 13
10 10 0 16 12 20 22 14
9 11 -2 17 13 21 23 15
10 11 -3 17 13 22 24 15
11 11 -4 17 13 23 24 16
12 11 -5 17 13 24 25 16
12 11 -6 17 13 24 25 16
13 12 -7 16 13 27 28 18
13 13 -7 17 14 29 31 19
13 13 -7 17 15 32 34 21
13 14 -7 18 16 34 37 23
13 14 -7 18 17 37 40 24
14 15 -7 19 18 38 42 25
16 16 -8 19 18 38 42 27
17 17 -9 19 19 38 43 28
18 18 -10 19 19 38 43 29
19 19 -11 19 19 38 43 30
20 20 -12 19 20 40 46 32
20 21 -13 19 21 43 48 34
20 22 -14 19 22 45 51 36
20 23 -15 19 23 46 53 37
20 23 -15 19 24 48 56 39
21 24 -16 18 25 49 57 40
22 25 -16 18 25 50 58 42
22 25 -17 18 26 51 59 43
23 26 -17 18 26 52 60 44
23 26 -17 18 26 52 60 44
25 27 -18 18 27 53 61 45
26 29 -18 18 27 54 62 46
27 30 -19 18 27 55 63 47
29 31 -19 18 27 56 64 48
30 32 -19 18 27 57 65 49
31 33 -20 17 27 58 66 50
31 33 -20 17 27 58 66 50
30 33 -20 16 27 58 66 50
30 33 -20 16 27 58 66 50
30 33 -20 16 27 58 66 50
29 33 -20 15 27 58 66 51
28 33 -20 15 27 58 66 51
27 33 -20 15 27 59 66 51
26 33 -20 15 27 59 66 51
26 33 -20 15 27 59 66 51
25 34 -21 13 26 59 66 50
25 34 -21 12 24 57 64 49
25 33 -22 10 22 54 63 48
25 33 -22 8 21 52 62 46
25 33 -22 7 19 50 61 45
24 32 -22 7 19 50 60 44
23 31 -20 9 22 51 60 45
22 30 -17 11 24 53 60 46
21 29 -15 13 27 55 60 47
21 29 -13 15 29 56 60 48
19 28 -12 15 29 55 58 47
18 27 -11 14 27 51 53 44
17 26 -10 13 25 48 48 40
15 25 -9 11 23 44 43 36
14 25 -9 10 21 39 38 33
12 23 -8 9 20 36 35 30
11 21 -7 8 18 33 33 28
9 18 -6 8 17 30 31 25
7 16 -5 7 16 27 29 23
6 14 -5 7 15 24 27 20
5 13 -4 6 14 22 25 18
5 13 -3 6 13 20 22 16
5 13 -2 6 12 17 20 14
5 13 0 6 11 15 17 12
5 13 0 6 11 13 15 10
5 13 1 7 10 11 13 8
3 11 1 6 8 9 12 7
2 9 1 5 7 8 10 5
1 7 1 4 6 6 8 3
0 5 1 3 5 4 7 2
-2 4 2 2 4 2 5 1
-2 3 2 2 3 1 4 0
-2 3 2 1 2 0 3 -2
-2 2 2 1 1 -3 1 -3
-2 2 2 1 0 -4 0 -4
0 1 2 0 -2 -5 -2 -5
-2 0 2 0 -2 -5 -3 -5
-3 -2 3 0 -2 -6 -4 -6
-4 -3 3 0 -2 -6 -5 -6
-4 -3 3 0 -2 -6 -5 -6
-5 -4 4 -2 -3 -7 -6 -7
-6 -5 4 -2 -4 -8 -7 -8
-6 -5 4 -2 -5 -8 -8 -9
-7 -6 4 -2 -5 -9 -8 -9
-7 -6 4 -2 -6 -9 -9 -10
-8 -7 4 -3 -7 -10 -10 -11
-7 -7 4 -3 -7 -11 -10 -11
-7 -7 4 -3 -7 -11 -10 -11
-6 -7 4 -3 -7 -12 -10 -11
-6 -7 4 -3 -7 -12 -10 -11
-5 -8 4 -4 -8 -13 -11 -12
-5 -8 4 -4 -8 -14 -11 -12
-5 -8 4 -4 -8 -14 -11 -12
-5 -8 4 -4 -8 -15 -11 -12
-5 -8 4 -4 -8 -15 -11 -12
-6 -9 4 -5 -9 -16 -12 -13
-6 -9 4 -5 -9 -16 -12 -13
-6 -9 4 -5 -9 -16 -13 -14
-6 -9 4 -5 -9 -16 -13 -14
-6 -9 4 -5 -9 -16 -13 -14
-6 -8 4 -5 -10 -15 -14 -15
-7 -9 4 -5 -10 -15 -14 -15
-7 -10 4 -5 -10 -15 -14 -15
-8 -10 4 -5 -10 -15 -14 -15
-8 -11 4 -5 -10 -15 -14 -15
-9 -12 5 -6 -11 -16 -15 -16
-9 -12 5 -6 -11 -16 -15 -16
-9 -11 5 -6 -10 -16 -15 -16
-9 -11 5 -6 -10 -16 -15 -16
-9 -11 5 -6 -10 -16 -15 -16
-8 -10 6 -5 -9 -16 -15 -17
-9 -10 6 -5 -9 -16 -15 -17
-10 -10 6 -5 -9 -16 -15 -17
-10 -10 6 -5 -9 -16 -15 -17
-11 -10 6 -5 -9 -16 -15 -17
-12 -11 6 -6 -9 -17 -16 -17
-11 -10 6 -6 -9 -17 -16 -17
-11 -10 6 -6 -10 -17 -16 -17
-10 -9 6 -6 -10 -17 -16 -17
-10 -9 6 -6 -10 -17 -16 -17
-9 -8 6 -7 -11 -18 -17 -18
-9 -8 6 -6 -11 -18 -17 -18
-9 -9 6 -6 -11 -18 -17 -18
-9 -9 6 -5 -11 -18 -17 -18
-9 -9 6 -5 -11 -18 -17 -18
-8 -10 7 -4 -10 -17 -17 -17
-8 -10 6 -4 -10 -17 -17 -17
-7 -10 6 -5 -10 -17 -16 -17
-7 -10 5 -5 -10 -17 -16 -17
-7 -10 5 -5 -10 -17 -16 -17
-6 -9 4 -6 -9 -16 -15 -17
-7 -10 4 -6 -9 -16 -15 -17
-8 -10 4 -6 -9 -16 -16 -17
-9 -11 4 -6 -9 -16 -16 -17
-10 -11 4 -6 -9 -16 -16 -17
-11 -12 3 -7 -10 -17 -17 -16
-10 -11 3 -7 -10 -17 -17 -16
-10 -11 3 -7 -10 -17 -17 -16
-9 -10 3 -7 -10 -17 -17 -16
-9 -10 3 -7 -10 -17 -17 -16
-8 -9 4 -6 -9 -16 -16 -16
-8 -9 4 -6 -9 -15 -16 -15
-8 -9 4 -6 -8 -15 -16 -15
-8 -9 4 -6 -8 -14 -16 -14
-8 -9 4 -6 -8 -14 -16 -14
-8 -10 4 -6 -7 -13 -15 -13
-9 -11 3 -6 -7 -14 -15 -13
-10 -13 3 -6 -8 -14 -15 -13
-11 -14 2 -6 -8 -15 -15 -13
-12 -16 2 -6 -8 -15 -15 -13
-11 -16 1 -7 -9 -16 -14 -14
-8 -13 2 -6 -9 -15 -13 -14
-5 -11 2 -6 -8 -14 -12 -14
-2 -9 3 -5 -8 -14 -12 -14
2 -6 3 -5 -8 -13 -11 -14
3 -5 4 -4 -7 -12 -10 -13
1 -6 4 -4 -7 -12 -10 -12
0 -7 3 -4 -6 -11 -10 -12
-3 -8 3 -4 -6 -11 -10 -11
-4 -9 3 -4 -6 -11 -10 -11
-5 -10 2 -4 -5 -10 -10 -10
-5 -10 2 -4 -5 -10 -10 -10
-5 -9 2 -4 -5 -10 -10 -10
-5 -9 2 -4 -5 -10 -10 -10
-5 -9 2 -4 -5 -10 -10 -10
-6 -8 3 -5 -5 -11 -10 -10
-6 -9 3 -5 -5 -11 -10 -10
-6 -9 3 -5 -5 -11 -10 -10
-6 -10 3 -5 -5 -11 -10 -10
-6 -10 3 -5 -5 -11 -10 -10
-5 -11 3 -5 -6 -10 -9 -10
-6 -11 3 -5 -6 -10 -9 -10
-6 -10 3 -5 -6 -10 -9 -10
-7 -10 3 -5 -6 -10 -9 -10
-7 -10 3 -5 -6 -10 -9 -10
-8 -9 4 -5 -6 -11 -10 -10
-8 -9 4 -5 -6 -11 -10 -10
-8 -9 4 -5 -6 -10 -10 -9
-8 -9 4 -5 -6 -10 -10 -9
-8 -9 4 -5 -6 -10 -10 -9
-8 -8 5 -6 -6 -9 -9 -8
-7 -8 4 -6 -6 -10 -9 -9
-6 -9 4 -7 -7 -11 -10 -9
-5 -9 3 -7 -7 -11 -10 -10
-4 -9 3 -7 -7 -12 -10 -10
-3 -10 2 -8 -8 -13 -11 -11
-3 -10 2 -8 -8 -13 -11 -11
-4 -10 2 -8 -8 -13 -11 -11
-4 -10 2 -8 -8 -13 -11 -11
-4 -10 2 -8 -8 -13 -11 -11
-6 -10 3 -7 -8 -12 -11 -11
-7 -10 3 -7 -8 -13 -11 -11
-9 -11 3 -7 -8 -14 -12 -11
-10 -11 3 -7 -8 -14 -12 -11
-12 -11 3 -7 -8 -15 -12 -11
-12 -12 4 -7 -9 -16 -13 -12
-11 -12 4 -7 -9 -16 -13 -12
-9 -12 4 -8 -10 -16 -13 -12
-8 -12 4 -8 -11 -16 -13 -12
-6 -12 4 -8 -11 -16 -13 -12
-5 -13 3 -9 -12 -16 -14 -13
-5 -13 3 -9 -12 -16 -14 -13
-5 -13 3 -9 -12 -16 -15 -13
-5 -13 3 -9 -12 -16 -15 -13
-5 -13 3 -9 -12 -16 -15 -13
-6 -12 2 -10 -11 -17 -16 -14
-6 -12 2 -10 -11 -17 -16 -14
-7 -12 3 -10 -11 -17 -15 -13
-8 -12 3 -10 -11 -17 -14 -12
-8 -12 3 -10 -11 -17 -14 -12
-9 -13 4 -9 -10 -16 -14 -12
-11 -14 3 -9 -11 -17 -15 -13
-12 -16 2 -10 -12 -18 -17 -15
-14 -17 2 -10 -12 -18 -18 -16
-15 -19 1 -10 -13 -19 -20 -18
-15 -19 0 -11 -14 -20 -21 -19
-13 -17 1 -11 -13 -20 -19 -18
-11 -15 2 -10 -12 -19 -18 -17
-8 -13 2 -9 -12 -18 -16 -16
-6 -11 3 -9 -11 -18 -15 -15
-5 -10 4 -8 -10 -17 -14 -14
-5 -10 4 -8 -10 -17 -14 -14
-5 -11 4 -9 -10 -17 -15 -14
-5 -12 4 -9 -10 -17 -15 -14
-5 -12 4 -9 -10 -17 -15 -14
-4 -13 3 -10 -11 -18 -16 -14
-4 -13 3 -10 -11 -18 -16 -14
-5 -13 3 -10 -10 -18 -15 -13
-5 -13 3 -10 -10 -18 -15 -13
-5 -13 3 -10 -10 -18 -15 -13
-6 -12 4 -9 -9 -17 -14 -12
-7 -12 4 -9 -9 -17 -14 -12
-9 -13 4 -9 -10 -17 -14 -12
-10 -14 4 -9 -10 -17 -14 -12
-11 -14 4 -9 -10 -17 -14 -12
-12 -15 4 -9 -11 -18 -15 -13
-12 -15 4 -9 -11 -18 -15 -13
-11 -15 4 -9 -11 -18 -16 -13
-10 -15 4 -9 -11 -18 -16 -13
-10 -15 4 -9 -11 -18 -16 -13
-9 -15 4 -10 -11 -18 -17 -14
-7 -15 4 -10 -11 -18 -17 -14
-6 -15 4 -10 -11 -18 -17 -14
-4 -15 4 -10 -11 -18 -17 -14
-3 -15 4 -10 -11 -18 -17 -14
-2 -14 5 -9 -11 -18 -16 -14
-4 -14 5 -9 -11 -18 -16 -14
-5 -14 5 -9 -11 -18 -16 -14
-7 -14 5 -9 -11 -18 -16 -14
-8 -14 5 -9 -11 -18 -16 -14
-9 -13 4 -10 -11 -18 -15 -13
-9 -13 4 -10 -11 -18 -15 -13
-8 -13 5 -9 -11 -18 -15 -12
-7 -13 5 -8 -11 -18 -15 -12
-7 -13 5 -8 -11 -18 -15 -12
-6 -13 6 -7 -10 -17 -15 -11
-6 -13 6 -8 -10 -17 -15 -11
-6 -13 5 -9 -10 -18 -15 -12
-6 -13 5 -9 -10 -18 -15 -12
-6 -13 5 -10 -10 -18 -15 -12
-7 -13 4 -11 -11 -19 -16 -13
-9 -14 4 -11 -11 -19 -16 -13
-10 -15 3 -11 -11 -19 -16 -13
-12 -16 3 -11 -11 -19 -16 -13
-13 -17 3 -11 -11 -19 -16 -13
-14 -18 2 -10 -12 -19 -17 -13
-12 -16 3 -9 -11 -18 -16 -13
-10 -15 4 -8 -10 -17 -15 -12
-9 -13 4 -8 -10 -17 -15 -12
-7 -12 5 -7 -9 -16 -14 -12
-6 -11 6 -6 -8 -15 -13 -11
-7 -12 6 -6 -8 -15 -13 -11
-8 -13 6 -6 -8 -15 -13 -11
-8 -13 6 -6 -8 -15 -13 -11
-9 -14 6 -6 -8 -15 -13 -11
-10 -15 6 -6 -9 -16 -14 -11
-9 -15 6 -6 -9 -16 -14 -11
-8 -14 5 -7 -9 -16 -14 -11
-7 -13 4 -7 -9 -16 -14 -11
-6 -13 4 -7 -9 -16 -14 -11
-5 -12 3 -8 -9 -17 -15 -12
-6 -12 3 -8 -9 -17 -15 -12
-7 -13 3 -8 -10 -17 -15 -12
-8 -14 3 -8 -11 -17 -15 -12
-9 -14 3 -8 -11 -17 -15 -12
-10 -15 3 -9 -12 -17 -16 -12
-10 -15 3 -9 -12 -17 -16 -12
-9 -14 3 -8 -11 -17 -16 -11
-9 -14 3 -8 -11 -17 -16 -11
-9 -14 3 -8 -11 -17 -16 -11
-8 -13 4 -7 -10 -16 -15 -10
-8 -13 4 -7 -10 -16 -15 -10
-7 -13 4 -7 -10 -16 -15 -10
-7 -13 4 -7 -10 -16 -15 -10
-7 -13 4 -7 -10 -16 -15 -10
-6 -13 4 -6 -9 -16 -16 -11
-6 -13 4 -6 -9 -16 -16 -11
-6 -13 4 -6 -9 -16 -16 -11
-6 -13 4 -6 -9 -16 -16 -11
-6 -13 4 -6 -9 -16 -16 -11
-7 -12 3 -6 -9 -15 -15 -10
-7 -12 3 -6 -9 -15 -15 -10
-8 -12 3 -6 -9 -15 -15 -10
-9 -12 3 -6 -9 -15 -15 -10
-9 -12 3 -6 -9 -15 -15 -10
-10 -13 4 -6 -9 -15 -15 -9
-8 -13 4 -6 -9 -15 -15 -9
-7 -13 4 -6 -9 -15 -14 -9
-6 -13 4 -6 -9 -15 -14 -9
-4 -13 4 -6 -9 -15 -14 -9
-3 -12 5 -6 -8 -14 -13 -9
-4 -12 5 -6 -8 -14 -13 -9
-6 -12 5 -6 -8 -14 -13 -9
-7 -12 5 -6 -8 -14 -13 -9
-8 -12 5 -6 -8 -14 -13 -9
-9 -13 4 -6 -8 -15 -13 -8
-9 -13 4 -6 -8 -15 -13 -8
-9 -13 4 -5 -8 -15 -13 -8
-9 -13 4 -5 -8 -15 -13 -8
-9 -13 4 -5 -8 -15 -13 -8
-8 -12 5 -4 -7 -14 -13 -8
-9 -13 5 -4 -7 -14 -13 -8
-10 -14 4 -5 -8 -14 -14 -8
-10 -15 3 -6 -9 -14 -15 -8
-11 -16 3 -6 -9 -14 -15 -8
-12 -17 2 -7 -10 -15 -16 -9
-10 -15 2 -7 -10 -15 -16 -9
-8 -13 3 -6 -9 -15 -15 -8
-7 -12 3 -6 -8 -15 -15 -8
-5 -10 3 -6 -8 -15 -15 -8
-4 -9 4 -5 -7 -14 -14 -7
-5 -9 5 -4 -6 -14 -14 -7
-6 -9 6 -3 -5 -13 -13 -6
-7 -9 7 -3 -5 -12 -12 -5
-8 -9 8 -2 -4 -12 -12 -5
-9 -8 9 0 -3 -11 -11 -4
-9 -9 8 -2 -4 -11 -11 -4
-8 -10 6 -3 -5 -11 -12 -5
-8 -11 5 -3 -5 -11 -13 -6
-8 -12 4 -4 -6 -11 -13 -6
-7 -13 3 -5 -7 -12 -14 -7
-7 -11 3 -5 -7 -12 -14 -7
-6 -10 3 -5 -7 -12 -14 -7
-5 -9 3 -5 -7 -12 -14 -7
-5 -7 3 -5 -7 -12 -14 -7
-4 -6 4 -4 -6 -13 -13 -6
-4 -6 5 -4 -5 -12 -13 -6
-3 -5 6 -3 -4 -11 -12 -5
-3 -4 6 -2 -4 -11 -11 -4
-3 -4 7 -2 -3 -10 -11 -4
-2 -3 8 0 -2 -9 -10 -3
-2 -2 9 1 0 -8 -10 -3
-2 0 10 2 1 -7 -9 -2
-2 1 10 2 2 -7 -8 -2
-2 2 11 3 3 -6 -8 -2
-2 3 12 4 4 -5 -7 0
-2 5 12 4 5 -4 -6 1
-2 7 12 5 6 -2 -4 3
-2 9 12 5 7 0 -3 4
-2 11 12 5 8 1 -2 5
0 12 11 6 9 2 0 6
0 12 10 6 9 2 0 6
0 11 9 6 9 2 0 6
0 10 8 6 9 2 0 6
0 10 7 6 9 2 0 6
0 9 6 5 9 2 0 5
0 10 5 5 9 3 0 6
1 11 4 4 9 4 1 7
2 12 4 4 9 4 2 7
2 13 3 4 9 5 2 8
3 14 2 3 10 6 3 9
3 12 0 1 8 4 1 9
2 11 -3 -2 6 2 0 8
2 10 -4 -4 4 0 -2 7
2 8 -6 -6 2 -3 -4 7
1 7 -7 -7 1 -4 -5 6
3 9 -5 -5 2 -3 -4 7
4 10 -4 -4 4 0 -2 8
5 11 -3 -3 5 1 0 8
7 13 0 0 6 2 1 9
8 14 1 1 7 3 2 10
8 12 0 1 5 3 2 9
8 10 -2 0 4 2 1 7
8 9 -2 0 3 1 0 6
8 7 -3 0 1 1 0 5
8 6 -4 -2 0 0 -2 4
8 5 -4 -2 0 0 -2 4
7 3 -4 -3 -2 -2 -3 4
6 2 -4 -3 -3 -3 -3 4
6 1 -4 -3 -3 -3 -3 4
5 0 -3 -4 -4 -4 -4 4
4 -3 -3 -4 -4 -5 -5 3
3 -4 -2 -4 -4 -6 -6 2
2 -5 0 -4 -4 -6 -6 2
1 -7 0 -4 -4 -7 -7 1
0 -8 1 -5 -5 -8 -8 0
-2 -8 1 -5 -5 -8 -8 0
-2 -8 1 -5 -5 -8 -9 -2
-3 -9 1 -5 -6 -9 -10 -3
-4 -9 1 -5 -6 -9 -10 -3
-5 -10 1 -6 -7 -10 -11 -4
-6 -10 1 -6 -7 -10 -11 -4
-6 -10 2 -6 -7 -11 -11 -4
-7 -10 3 -6 -8 -12 -12 -5
-8 -10 3 -6 -8 -12 -12 -5
-9 -11 4 -7 -9 -13 -13 -6
-9 -11 4 -7 -9 -13 -13 -6
-9 -11 4 -7 -9 -13 -13 -6
-8 -11 3 -8 -9 -13 -13 -6
-8 -11 3 -8 -9 -13 -13 -6
-7 -12 2 -9 -10 -14 -14 -7
-7 -12 2 -9 -10 -14 -14 -7
-7 -12 2 -9 -10 -14 -14 -7
-7 -12 2 -9 -10 -14 -14 -7
-7 -12 2 -9 -10 -14 -14 -7
-8 -13 2 -8 -11 -15 -15 -8
-9 -13 2 -8 -11 -15 -15 -8
-9 -13 2 -8 -11 -15 -15 -8
-10 -12 2 -8 -11 -15 -15 -8
-11 -12 2 -8 -11 -15 -15 -8
-12 -11 3 -8 -12 -16 -16 -9
-12 -11 3 -8 -12 -16 -16 -9
-12 -11 3 -8 -12 -16 -16 -9
-12 -11 3 -8 -12 -16 -16 -9
-12 -11 3 -8 -12 -16 -16 -9
-11 -12 4 -8 -11 -16 -16 -9
-11 -12 4 -8 -11 -16 -16 -9
-10 -12 4 -8 -11 -16 -16 -9
-9 -12 4 -8 -11 -16 -16 -10
-9 -12 4 -8 -11 -16 -16 -10
-8 -13 4 -8 -12 -16 -17 -11
-8 -13 4 -8 -12 -16 -17 -11
-9 -13 4 -8 -12 -16 -17 -11
-10 -13 4 -8 -12 -16 -17 -11
-10 -13 4 -8 -12 -16 -17 -11
-11 -13 3 -9 -13 -17 -18 -11
-11 -13 3 -9 -13 -17 -18 -11
-11 -13 3 -9 -13 -17 -18 -11
-10 -13 3 -9 -13 -17 -18 -11
-10 -13 3 -9 -13 -17 -18 -11
-9 -14 3 -8 -12 -16 -17 -11
-10 -15 2 -8 -13 -16 -18 -12
-10 -16 1 -8 -14 -16 -18 -13
-11 -17 0 -8 -16 -17 -19 -14
-12 -18 -2 -8 -17 -17 -20 -15
-13 -19 -3 -9 -18 -18 -21 -16
-11 -17 0 -9 -16 -18 -19 -15
-10 -15 1 -9 -15 -18 -18 -14
-9 -13 2 -9 -13 -18 -17 -12
-7 -11 4 -9 -11 -18 -15 -11
-6 -9 5 -9 -10 -17 -14 -10
-6 -9 5 -8 -10 -16 -14 -10
-6 -9 5 -7 -9 -16 -14 -10
-6 -9 5 -6 -8 -15 -14 -10
-6 -9 5 -5 -8 -14 -14 -10
-7 -8 6 -4 -7 -13 -13 -9
-7 -8 6 -4 -7 -13 -13 -9
-7 -8 6 -4 -7 -13 -13 -9
-7 -8 6 -4 -8 -13 -14 -9
-7 -8 6 -4 -8 -13 -14 -9
-6 -7 5 -4 -9 -12 -15 -10
-6 -7 6 -2 -7 -11 -15 -10
-6 -7 7 1 -6 -10 -14 -10
-6 -7 9 3 -4 -9 -13 -10
-6 -7 10 5 -2 -8 -13 -10
-5 -8 11 10 3 -4 -10 -9
-3 -7 13 16 10 5 -3 -5
1 -6 15 23 18 13 5 1
3 -5 17 30 25 21 11 5
6 -4 18 37 32 29 18 10
11 0 21 48 47 46 30 19
18 6 25 61 69 72 51 32
26 11 29 75 93 98 71 47
33 17 33 90 115 125 92 61
40 22 36 104 138 151 111 75
47 31 36 106 152 175 133 91
51 45 29 92 155 194 155 109
55 57 22 77 159 214 179 128
59 70 15 63 162 233 201 146
63 82 8 49 167 254 224 163
65 91 -6 22 151 250 228 171
61 90 -25 -19 109 214 204 158
57 89 -46 -60 68 178 181 147
53 87 -65 -101 26 142 157 135
49 86 -85 -142 -15 106 134 123
39 78 -100 -175 -55 65 103 104
24 63 -107 -197 -94 17 62 74
8 47 -114 -219 -132 -31 21 46
-8 31 -122 -241 -170 -78 -19 16
-24 15 -130 -264 -207 -127 -60 -14
-33 5 -131 -268 -225 -154 -83 -32
-31 2 -119 -244 -212 -153 -86 -36
-29 -2 -109 -221 -198 -151 -87 -41
-27 -5 -98 -197 -184 -150 -89 -46
-26 -9 -88 -174 -171 -148 -91 -50
-24 -10 -76 -151 -154 -139 -88 -51
-23 -8 -65 -129 -133 -119 -76 -44
-21 -6 -55 -107 -111 -100 -64 -37
-20 -3 -44 -86 -90 -80 -53 -31
-18 0 -33 -64 -69 -61 -41 -24
-17 2 -25 -48 -53 -47 -33 -20
-15 2 -20 -39 -46 -40 -29 -18
-13 2 -16 -32 -37 -34 -26 -16
-11 2 -11 -24 -30 -28 -22 -14
-10 2 -7 -16 -22 -22 -19 -13
-8 2 -4 -11 -17 -18 -16 -11
-8 0 -3 -9 -16 -17 -16 -11
-8 -3 -2 -7 -15 -16 -16 -11
-7 -5 0 -5 -13 -15 -15 -11
-7 -6 1 -4 -12 -14 -15 -11
-6 -8 2 -2 -11 -13 -14 -12
-6 -6 3 1 -9 -12 -13 -12
-6 -4 4 2 -7 -10 -12 -12
-6 -2 6 4 -5 -9 -10 -11
-6 0 7 6 -4 -7 -9 -11
-7 2 8 7 -2 -6 -8 -10
-6 1 8 8 -2 -6 -8 -10
-6 1 8 8 -2 -6 -8 -10
-5 0 8 9 0 -6 -8 -10
-4 -2 8 10 0 -6 -8 -10
-3 -3 9 11 1 -7 -9 -11
-3 -3 9 11 1 -7 -9 -11
-3 -3 9 11 1 -7 -8 -11
-3 -3 9 11 1 -6 -7 -11
-3 -3 9 11 1 -6 -7 -11
-4 -4 9 12 2 -5 -6 -10
-4 -4 9 13 2 -5 -6 -10
-4 -4 9 13 3 -5 -6 -10
-4 -4 9 14 4 -5 -6 -10
-4 -4 9 15 4 -5 -6 -10
-5 -4 9 16 5 -4 -7 -9
-5 -4 9 16 5 -4 -7 -9
-5 -4 9 16 5 -3 -7 -9
-4 -4 9 16 5 -2 -6 -9
-4 -4 9 16 5 -2 -6 -9
-3 -4 10 15 5 0 -5 -9
-3 -4 10 15 5 0 -5 -9
-3 -4 10 15 5 0 -5 -9
-3 -4 10 15 5 -2 -5 -9
-3 -4 10 15 5 -2 -5 -9
-3 -4 10 16 6 -3 -5 -10
-3 -4 10 16 6 -3 -5 -10
-3 -4 10 16 6 -3 -5 -10
-3 -3 10 16 6 -2 -5 -10
-3 -3 10 16 6 -2 -5 -10
-3 -2 10 17 7 0 -4 -9
-2 -2 10 17 7 0 -4 -9
1 -2 9 17 7 0 -4 -9
2 -2 8 16 6 0 -4 -9
4 -2 8 16 6 0 -4 -9
5 0 7 15 5 -2 -5 -10
5 1 7 15 6 0 -4 -10
5 2 7 15 7 1 -4 -9
6 4 7 16 9 2 -3 -8
6 5 7 16 10 3 -2 -8
7 6 8 17 11 4 0 -7
6 3 8 17 11 4 0 -7
5 1 8 17 10 3 0 -7
3 -2 7 16 9 2 0 -7
2 -4 7 16 9 2 0 -7
1 -6 6 15 8 1 -2 -8
2 -3 6 16 9 2 0 -8
2 0 6 16 10 4 1 -7
3 3 6 17 12 5 2 -6
4 5 6 18 13 7 3 -6
5 7 7 19 14 8 4 -5
5 7 7 19 14 8 4 -5
5 6 7 19 14 8 4 -5
5 5 7 19 13 8 4 -5
5 5 7 19 13 8 4 -5
6 4 6 20 12 7 3 -5
6 5 6 20 13 9 5 -4
6 6 6 20 13 11 6 -3
6 7 6 20 14 13 8 0
6 8 6 20 15 14 9 1
5 9 5 21 16 16 11 2
6 9 5 21 16 16 11 2
7 9 4 21 17 16 11 2
8 9 3 20 18 16 11 2
9 9 3 20 18 16 11 2
10 9 2 19 19 15 12 3
10 10 2 20 20 17 13 4
11 11 2 20 21 19 15 5
12 13 2 21 22 21 16 6
12 14 2 22 23 22 18 7
13 15 1 23 24 24 19 8
15 16 1 23 24 25 20 8
16 17 1 23 24 25 21 9
18 18 1 23 24 26 23 10
19 19 1 23 24 27 24 10
21 20 0 23 25 28 25 11
21 20 -2 23 26 30 27 13
21 20 -2 24 28 32 28 15
20 20 -3 25 29 34 30 17
20 20 -4 25 31 35 31 18
19 20 -5 26 32 37 33 20
21 22 -5 26 32 38 35 21
23 24 -5 26 32 40 36 22
25 26 -6 26 32 42 38 24
26 27 -6 26 32 44 39 25
28 29 -7 27 33 45 42 26
28 30 -7 27 34 47 44 28
28 30 -7 27 35 49 46 29
28 31 -8 27 36 50 48 31
28 32 -8 27 37 52 50 32
27 33 -9 28 38 54 52 34
28 33 -10 28 38 54 53 34
28 33 -11 28 38 55 53 35
29 34 -12 28 39 55 54 35
30 34 -14 28 39 56 55 36
31 35 -15 27 40 57 56 37
32 36 -15 27 40 58 57 38
33 37 -15 27 40 58 57 38
34 38 -15 27 42 59 58 39
35 40 -15 27 42 60 59 40
36 42 -15 27 43 61 60 42
35 42 -15 27 43 61 61 42
34 42 -15 27 43 62 62 42
33 43 -16 27 43 62 63 43
32 43 -16 27 43 63 64 43
31 44 -17 26 43 64 65 44
31 44 -17 26 43 64 65 44
31 44 -17 26 43 64 65 44
31 45 -17 26 44 64 65 44
31 45 -17 26 44 64 65 44
31 46 -17 26 45 64 66 45
30 46 -17 26 45 64 66 45
30 46 -17 26 45 64 66 45
29 45 -16 25 45 64 66 45
28 45 -16 25 45 64 66 45
27 44 -15 24 45 64 65 46
27 44 -15 24 45 62 63 44
27 44 -15 24 44 61 61 42
27 43 -15 23 44 59 60 40
27 43 -15 23 43 58 58 38
28 42 -14 22 42 56 56 36
27 40 -13 22 42 54 53 34
26 39 -12 21 42 51 51 32
25 38 -11 21 40 49 49 30
23 36 -9 20 40 47 46 28
22 35 -8 19 39 45 44 26
21 34 -6 19 38 43 42 25
20 33 -5 18 37 40 39 23
19 32 -3 18 36 38 38 22
17 30 -2 17 34 36 36 20
16 29 1 16 33 34 34 19
16 28 1 16 31 32 31 17
15 27 1 15 30 29 29 15
15 26 1 15 28 27 26 14
14 24 1 14 27 25 23 12
13 23 2 13 25 23 21 10
13 22 2 13 24 21 20 8
13 22 3 12 23 20 19 6
13 21 3 12 22 18 18 5
13 20 4 11 20 17 16 3
12 19 5 10 19 15 15 1
11 18 5 10 18 13 13 0
11 17 5 9 17 11 11 -3
10 16 5 9 16 10 9 -4
9 15 5 8 14 8 7 -6
8 14 5 7 13 6 5 -7
8 14 5 7 13 6 5 -7
8 14 5 7 13 6 6 -7
7 14 6 8 13 6 6 -7
7 14 6 8 13 6 7 -7
6 13 7 9 13 6 8 -7
6 13 7 8 12 5 7 -8
6 12 7 8 12 4 6 -8
6 12 7 7 11 3 5 -9
6 11 7 6 10 2 3 -10
5 10 6 5 9 1 2 -11
5 10 6 5 9 1 2 -11
5 10 6 5 9 1 2 -11
6 10 6 4 8 0 2 -11
6 10 6 4 8 0 2 -11
7 10 6 3 7 -2 1 -12
7 10 6 3 7 -2 1 -12
7 10 6 3 7 -2 1 -12
7 10 6 3 7 -2 1 -12
7 10 6 3 7 -2 1 -12
6 10 7 4 8 -2 0 -12
6 10 7 4 8 -2 0 -12
7 10 7 4 8 -2 0 -12
7 10 7 4 8 -2 0 -12
8 10 7 4 8 -2 0 -12
9 10 7 5 7 -2 1 -11
9 10 7 5 7 -2 1 -11
9 10 7 5 7 -2 1 -12
9 10 7 5 7 -3 0 -12
9 10 7 5 7 -3 0 -13
8 10 7 4 6 -4 -2 -14
7 9 6 4 6 -4 -2 -14
7 8 6 4 6 -4 -2 -14
6 7 5 4 6 -4 -2 -14
5 5 4 4 6 -4 -2 -14
4 4 3 3 6 -5 -3 -13
5 6 4 3 6 -5 -3 -13
7 7 5 3 6 -5 -3 -13
8 9 6 3 6 -5 -2 -12
9 10 7 3 6 -5 -2 -12
11 12 8 4 7 -4 0 -11
10 12 8 4 7 -4 0 -11
10 11 8 4 7 -4 0 -11
9 11 8 4 7 -3 1 -11
8 10 8 4 7 -3 1 -11
7 9 7 5 8 -2 2 -11
7 9 7 5 8 -2 1 -12
7 9 7 5 8 -2 1 -12
8 9 7 5 8 -3 0 -13
8 9 7 5 8 -3 -2 -14
9 10 6 4 7 -4 -3 -15
9 10 6 4 7 -3 -3 -15
9 10 6 4 8 -2 -2 -14
9 10 7 5 9 0 0 -13
9 10 7 5 10 1 1 -12
9 11 8 6 11 2 2 -11
9 10 8 6 11 2 2 -11
8 9 8 6 10 1 2 -11
8 8 8 5 10 0 1 -11
7 6 8 5 9 -2 1 -11
6 5 7 4 8 -3 0 -12
6 6 7 4 8 -3 0 -12
6 7 7 4 8 -2 1 -12
6 8 7 5 9 -2 1 -11
6 9 7 5 9 0 2 -11
7 10 8 6 10 1 3 -10
7 10 8 6 10 1 3 -10
6 9 8 6 10 1 3 -10
5 9 8 7 10 1 3 -10
4 8 8 7 10 1 3 -10
3 7 8 8 10 1 2 -10
3 7 8 8 10 1 2 -10
3 6 7 8 10 1 2 -10
3 6 7 7 10 1 2 -11
3 5 6 7 10 1 2 -11
3 4 5 6 9 0 1 -12
5 6 5 6 9 0 1 -12
8 8 5 7 9 0 1 -12
10 9 6 7 10 0 2 -11
13 11 6 8 10 0 2 -11
15 13 7 9 11 1 3 -10
14 13 7 9 11 1 3 -10
12 12 7 9 11 1 4 -10
11 12 7 9 11 2 4 -10
10 11 7 9 11 2 5 -10
8 10 7 8 12 3 6 -9
8 10 7 8 12 3 6 -9
8 10 6 8 12 3 5 -9
8 10 6 8 11 3 5 -9
8 10 5 8 11 3 4 -9
9 9 4 7 10 3 3 -10
9 9 4 7 10 3 3 -10
8 9 4 7 10 3 3 -10
8 9 4 7 10 3 4 -10
7 9 4 7 10 3 4 -10
6 8 5 7 11 3 5 -9
6 8 5 7 11 3 5 -9
6 8 5 7 11 3 5 -9
6 8 5 7 11 3 5 -9
6 8 5 7 11 3 5 -9
6 9 5 7 12 4 5 -8
6 9 5 7 12 4 5 -8
6 9 5 7 12 4 5 -8
7 8 5 7 12 4 5 -8
7 8 5 7 12 4 5 -8
8 7 5 6 12 3 5 -8
7 6 5 6 12 3 5 -8
6 5 4 6 11 3 5 -9
5 4 4 6 11 2 4 -9
3 3 3 6 10 2 4 -10
2 2 2 5 9 1 3 -11
5 4 2 5 9 1 3 -11
7 6 3 6 9 1 4 -10
10 9 3 6 9 1 4 -9
12 11 4 7 9 1 5 -8
15 13 5 8 8 2 6 -7
14 12 5 8 8 2 6 -7
13 11 5 7 8 2 5 -7
12 10 4 7 8 1 5 -8
10 9 4 6 8 1 4 -8
9 8 3 5 7 0 3 -9
9 8 3 5 7 0 3 -9
8 8 3 5 7 0 3 -9
7 7 3 5 7 0 3 -9
6 7 3 5 7 0 3 -9
5 6 3 4 7 1 3 -10
5 6 3 4 7 1 3 -10
5 6 3 4 7 1 3 -10
5 6 3 4 6 0 3 -10
5 6 3 4 6 0 3 -10
6 7 3 4 5 -2 2 -11
6 7 3 4 5 -2 2 -11
6 7 3 4 5 -2 2 -11
6 7 3 4 5 -2 2 -11
6 7 3 4 5 -2 2 -11
7 6 3 3 5 -3 1 -10
7 6 3 3 5 -3 1 -10
6 6 3 3 5 -3 1 -10
5 5 3 3 5 -3 1 -10
4 5 3 3 5 -3 1 -10
3 4 4 3 5 -3 2 -9
3 4 4 3 5 -3 2 -9
3 5 4 3 6 -3 2 -9
2 6 5 3 7 -2 2 -9
2 7 5 3 8 -2 2 -9
1 8 6 4 9 0 3 -9
2 7 6 4 8 0 3 -9
4 6 5 4 7 -2 3 -10
6 5 4 3 6 -3 2 -10
7 4 3 3 5 -4 2 -11
9 3 2 2 4 -5 1 -12
8 3 2 2 4 -5 1 -12
6 3 2 2 4 -5 0 -12
4 3 2 2 4 -5 0 -11
3 3 2 2 4 -5 -2 -11
1 2 2 1 3 -6 -3 -10
1 2 2 1 3 -6 -3 -10
1 2 3 2 4 -5 -3 -10
2 2 3 2 4 -5 -3 -10
2 2 4 3 5 -4 -3 -10
3 3 5 4 6 -3 -3 -11
3 3 5 4 6 -3 -3 -11
4 3 5 4 6 -3 -3 -11
4 3 5 4 6 -3 -4 -11
5 3 5 4 6 -3 -4 -11
6 3 4 3 5 -4 -5 -11
6 3 4 3 5 -4 -5 -11
5 3 4 3 5 -4 -5 -11
4 3 4 3 5 -3 -5 -11
3 3 4 3 5 -3 -5 -11
2 2 3 3 6 -2 -4 -10
2 2 3 3 6 -2 -4 -10
2 2 3 3 6 -3 -4 -10
2 2 3 3 5 -3 -4 -11
2 2 3 3 5 -4 -4 -11
3 3 2 2 4 -5 -5 -12
3 3 2 2 4 -5 -5 -12
3 2 2 2 4 -5 -5 -12
3 1 2 2 4 -5 -6 -12
3 0 2 2 4 -5 -6 -12
2 -2 2 1 4 -4 -7 -12
2 -2 2 1 4 -4 -7 -12
2 0 2 1 4 -4 -7 -12
2 1 2 1 4 -4 -7 -12
2 2 2 1 4 -4 -7 -12
3 3 2 2 4 -5 -6 -12
2 3 2 2 4 -5 -6 -12
1 2 2 2 4 -5 -7 -12
0 2 2 2 4 -5 -7 -12
-2 1 2 2 4 -5 -8 -12
-4 0 2 1 4 -6 -9 -13
-3 0 2 1 4 -6 -9 -13
-2 0 2 2 4 -6 -8 -13
0 0 3 2 4 -5 -8 -12
1 0 3 3 4 -5 -7 -12
3 1 4 4 4 -4 -6 -11
3 1 4 4 4 -5 -6 -11
3 1 4 3 4 -6 -7 -11
4 2 4 3 3 -7 -8 -12
4 2 4 2 3 -8 -9 -12
5 3 3 1 2 -9 -10 -13
4 3 3 1 2 -9 -10 -13
3 2 3 1 2 -8 -10 -13
2 2 3 2 2 -8 -9 -12
1 1 3 2 2 -7 -9 -12
0 0 3 3 3 -6 -8 -11
1 0 3 3 3 -6 -8 -11
2 1 3 3 3 -6 -8 -11
3 1 3 3 3 -6 -8 -11
4 2 3 3 3 -6 -8 -11
6 3 3 3 3 -6 -7 -10
5 3 3 3 3 -6 -7 -10
4 3 3 3 3 -6 -7 -10
3 3 3 3 2 -6 -8 -11
2 3 3 3 2 -6 -8 -11
1 3 2 2 1 -7 -9 -12
1 3 2 2 1 -7 -9 -12
1 3 2 2 1 -7 -9 -12
1 3 2 2 1 -7 -9 -12
1 3 2 2 1 -7 -9 -12
2 3 3 3 1 -6 -10 -11
2 3 3 3 1 -6 -10 -11
2 3 3 3 1 -6 -10 -11
2 3 3 3 2 -6 -10 -10
2 3 3 3 2 -6 -10 -10
3 2 3 2 3 -5 -9 -9
3 2 3 2 3 -5 -9 -9
3 2 3 2 3 -5 -9 -9
3 2 3 2 2 -6 -9 -9
3 2 3 2 2 -6 -9 -9
2 1 2 2 1 -7 -8 -10
2 1 2 2 1 -7 -8 -10
2 1 2 2 1 -7 -8 -10
2 2 2 2 1 -7 -8 -10
2 2 2 2 1 -7 -8 -10
3 3 3 3 2 -6 -8 -9
3 3 3 3 2 -6 -8 -9
3 3 3 3 2 -6 -8 -9
3 3 3 3 2 -6 -8 -8
3 3 3 3 2 -6 -8 -8
2 3 3 4 2 -5 -8 -7
2 3 3 4 2 -5 -8 -7
3 3 3 4 2 -5 -8 -7
4 3 3 4 2 -5 -8 -7
5 3 3 4 2 -5 -8 -7
6 4 2 4 2 -6 -8 -8
6 4 2 4 2 -6 -8 -8
5 4 2 4 2 -6 -8 -8
5 3 2 3 1 -6 -9 -8
4 3 2 3 1 -6 -9 -8
3 2 1 2 0 -7 -10 -9
3 2 1 2 0 -7 -10 -9
3 2 2 3 1 -7 -9 -9
3 2 2 3 1 -7 -9 -8
3 2 3 4 2 -7 -8 -8
3 2 4 5 3 -6 -7 -7
3 2 4 5 3 -6 -7 -7
2 2 4 5 3 -6 -7 -7
2 2 4 5 2 -6 -7 -7
1 2 4 5 2 -6 -7 -7
0 2 4 5 1 -6 -7 -6
0 2 4 5 1 -6 -7 -6
1 2 4 5 1 -6 -7 -6
1 3 3 5 1 -6 -7 -6
2 3 3 5 1 -6 -7 -6
3 4 2 4 2 -5 -8 -5
3 4 2 4 2 -5 -8 -5
3 4 2 4 2 -5 -8 -5
3 4 2 4 2 -6 -9 -5
3 4 2 4 2 -6 -9 -5
3 4 2 4 2 -7 -10 -6
3 4 2 4 2 -7 -10 -6
3 4 2 4 2 -7 -9 -6
3 3 2 4 2 -7 -9 -6
3 3 2 4 2 -7 -8 -6
4 2 2 5 1 -6 -7 -5
4 2 2 5 1 -6 -7 -5
4 2 2 5 1 -6 -7 -5
4 2 2 5 1 -6 -8 -5
4 2 2 5 1 -6 -8 -5
4 3 2 4 1 -7 -9 -5
4 3 2 4 1 -7 -9 -5
5 4 2 4 1 -7 -9 -5
6 5 2 4 1 -6 -9 -5
7 6 2 4 1 -6 -9 -5
8 7 3 5 2 -5 -8 -5
7 7 3 5 2 -5 -8 -5
6 7 3 5 3 -4 -8 -4
4 7 4 6 4 -4 -7 -4
3 7 4 6 5 -3 -7 -3
1 7 5 7 6 -2 -6 -2
1 8 5 8 7 -2 -5 0
2 9 6 9 8 0 -4 1
2 10 7 10 9 1 -3 2
3 11 8 11 10 2 -2 3
4 12 9 12 11 3 0 4
4 13 9 12 12 3 0 4
5 15 9 13 13 4 1 5
6 17 9 13 14 5 2 5
7 19 9 14 15 6 3 6
8 21 9 15 16 7 4 7
7 20 8 15 16 7 4 7
6 19 7 15 16 7 4 7
5 18 6 14 16 7 3 6
4 17 5 14 16 7 3 6
3 15 3 13 15 6 2 5
4 16 3 13 15 6 2 5
5 17 3 13 16 7 3 6
7 19 4 13 16 7 3 7
8 20 4 13 17 8 4 8
10 22 5 14 18 9 5 9
10 22 4 13 17 9 5 9
11 22 2 11 16 9 5 9
12 22 0 10 15 8 5 10
13 22 -3 8 14 8 5 10
14 23 -5 6 13 7 6 11
14 23 -5 6 13 7 6 11
14 22 -5 7 13 7 6 11
14 21 -5 7 12 6 5 10
14 20 -5 8 12 6 5 10
15 19 -4 9 11 5 4 9
15 18 -4 9 11 5 4 9
15 17 -4 9 11 5 4 9
15 16 -4 9 11 5 4 9
15 15 -4 9 11 5 4 9
15 13 -5 8 10 4 4 9
14 12 -5 8 10 4 4 9
13 11 -5 8 9 4 4 9
12 10 -5 7 9 3 3 9
11 9 -5 7 8 3 3 9
10 7 -4 6 7 2 2 9
10 7 -4 6 6 1 1 9
10 6 -4 5 5 0 0 8
10 6 -4 4 4 -2 -2 8
10 5 -4 3 3 -3 -3 7
11 4 -5 2 1 -4 -5 6
10 4 -4 2 1 -4 -5 6
9 4 -3 3 1 -4 -5 5
8 3 -2 3 1 -4 -5 4
7 3 0 4 1 -4 -5 3
5 2 1 5 2 -5 -6 2
5 2 1 5 2 -5 -6 2
4 2 1 5 1 -6 -7 2
4 1 0 4 0 -6 -7 1
3 1 0 4 -2 -7 -8 1
2 0 -2 3 -3 -8 -9 0
2 0 -2 3 -3 -8 -9 0
1 -2 -2 3 -3 -9 -9 0
1 -3 -2 2 -3 -9 -9 -2
0 -4 -2 2 -3 -10 -9 -2
-2 -5 -3 1 -4 -11 -10 -3
-2 -5 -3 1 -4 -11 -10 -3
-3 -5 -2 1 -4 -11 -10 -3
-4 -5 0 1 -4 -11 -10 -3
-5 -5 1 1 -4 -11 -10 -3
-6 -5 2 2 -5 -10 -10 -2
-5 -5 2 2 -5 -10 -10 -2
-3 -5 2 2 -6 -11 -11 -3
-2 -5 1 1 -6 -12 -12 -3
1 -5 1 1 -7 -13 -13 -4
2 -5 1 1 -7 -13 -13 -4
3 -4 0 0 -8 -14 -14 -5
2 -4 0 0 -8 -14 -14 -5
2 -5 0 0 -8 -14 -13 -4
1 -5 0 0 -8 -14 -13 -4
1 -5 0 0 -8 -14 -13 -4
0 -6 -2 0 -9 -13 -12 -3
0 -6 -2 0 -9 -13 -13 -4
1 -7 -2 0 -9 -14 -13 -4
1 -7 -2 0 -9 -14 -14 -5
1 -7 -2 0 -9 -14 -14 -5
2 -8 0 0 -8 -15 -15 -6
1 -8 0 0 -8 -15 -15 -5
0 -8 0 1 -8 -14 -14 -5
-2 -8 0 1 -8 -14 -14 -4
-2 -8 0 1 -8 -14 -14 -4
-3 -7 1 2 -8 -13 -13 -3
-3 -7 1 2 -8 -13 -13 -3
-2 -7 1 2 -8 -13 -13 -3
-2 -7 1 2 -8 -13 -13 -3
-2 -7 1 2 -8 -13 -13 -3
0 -6 0 1 -8 -13 -14 -3
0 -6 0 1 -8 -13 -13 -3
-2 -6 0 1 -8 -13 -13 -3
-2 -6 0 1 -8 -13 -12 -3
-2 -6 0 1 -8 -13 -12 -3
-3 -7 0 1 -9 -13 -11 -2
-3 -7 0 1 -9 -13 -12 -2
-4 -7 0 1 -9 -13 -12 -2
-4 -7 0 1 -9 -13 -13 -2
-4 -7 0 1 -9 -13 -13 -2
-4 -7 -2 2 -9 -14 -13 0
-3 -5 0 3 -8 -13 -12 1
0 -4 1 4 -7 -12 -10 1
1 -2 2 5 -6 -11 -9 2
2 0 3 6 -5 -10 -8 2
3 1 4 7 -4 -9 -8 3
4 0 3 7 -5 -10 -9 3
5 -2 2 6 -6 -11 -10 2
6 -3 1 6 -7 -12 -11 2
7 -3 0 6 -8 -13 -12 2
7 -4 0 5 -8 -14 -13 1
6 -4 1 5 -7 -13 -13 1
4 -5 2 5 -6 -12 -13 2
3 -5 3 5 -5 -11 -13 2
2 -5 4 5 -4 -11 -13 2
2 -5 6 12 3 -5 -10 5
4 -4 8 18 8 1 -6 7
6 -2 10 24 14 6 -2 10
8 0 12 31 20 11 3 12
9 1 14 37 25 16 6 14
15 5 17 50 44 37 23 26
22 8 20 61 61 59 39 38
28 11 22 73 79 80 57 50
34 14 25 85 98 102 74 62
40 17 27 97 116 125 92 74
47 29 28 98 130 148 114 92
53 40 27 98 143 173 138 109
59 53 26 98 156 197 161 128
65 64 25 98 170 222 185 145
71 76 25 98 183 245 207 163
70 80 7 59 155 227 204 164
68 85 -12 19 125 205 198 164
66 89 -30 -20 93 184 192 164
64 93 -49 -60 62 162 187 164
62 96 -67 -100 31 141 181 164
46 82 -80 -133 -14 91 136 134
29 67 -94 -164 -60 40 89 101
12 52 -107 -196 -105 -11 42 68
-5 36 -121 -228 -151 -62 -6 36
-22 21 -135 -260 -197 -113 -53 4
-25 16 -130 -249 -201 -124 -64 -7
-27 11 -122 -236 -202 -134 -73 -16
-29 6 -114 -223 -203 -144 -83 -26
-31 2 -107 -210 -204 -153 -93 -35
-33 -4 -100 -196 -205 -162 -102 -45
-30 -5 -88 -172 -182 -145 -93 -40
-25 -4 -75 -145 -155 -126 -82 -35
-20 -3 -63 -119 -129 -106 -71 -30
-16 -2 -51 -94 -102 -87 -60 -24
-11 0 -38 -67 -75 -67 -49 -19
-10 1 -32 -56 -64 -58 -44 -15
-10 2 -26 -45 -54 -50 -37 -12
-9 2 -20 -34 -44 -41 -32 -9
-9 3 -15 -24 -32 -33 -27 -5
-9 3 -9 -13 -22 -25 -22 -2
-8 3 -8 -11 -20 -23 -21 0
-7 2 -7 -9 -18 -22 -20 0
-6 0 -6 -7 -17 -20 -20 0
-5 -2 -5 -5 -15 -19 -19 0
-4 -3 -4 -4 -14 -18 -19 0
-3 -4 -3 -2 -12 -17 -18 0
-2 -4 -2 1 -10 -16 -18 -2
0 -4 0 3 -9 -15 -18 -2
1 -4 1 5 -7 -14 -18 -3
1 -4 1 7 -6 -13 -18 -3
2 -5 2 8 -5 -12 -19 -4
2 -5 2 9 -5 -12 -18 -4
2 -5 2 10 -5 -12 -17 -3
2 -5 2 11 -5 -12 -16 -3
2 -5 2 12 -5 -12 -16 -3
2 -6 2 13 -6 -11 -15 -2
2 -6 3 14 -5 -10 -15 -2
2 -6 4 14 -4 -9 -15 -2
2 -6 5 15 -3 -8 -15 -2
2 -6 6 15 -2 -8 -15 -2
1 -6 7 16 0 -7 -14 0
1 -6 6 16 -2 -8 -14 0
1 -6 6 16 -2 -9 -14 -2
1 -6 5 16 -3 -10 -14 -2
1 -6 5 16 -3 -10 -14 -2
0 -7 4 15 -4 -11 -15 -3
0 -7 5 15 -4 -10 -15 -3
1 -7 6 15 -3 -9 -15 -2
1 -7 7 15 -3 -8 -15 -2
1 -7 7 15 -3 -8 -15 -2
2 -6 8 16 -2 -7 -14 0
1 -6 8 16 -2 -7 -14 0
1 -6 8 16 -2 -7 -14 0
0 -6 8 16 -2 -7 -14 0
0 -6 8 16 -2 -7 -14 0
-2 -6 7 17 -2 -7 -13 0
-2 -6 7 17 0 -7 -13 0
-2 -5 7 18 0 -7 -13 0
-2 -5 7 18 1 -7 -13 0
-2 -5 7 18 1 -7 -13 0
-2 -4 8 19 2 -6 -13 -2
0 -4 7 19 1 -7 -13 -2
0 -4 6 18 1 -7 -14 -2
1 -4 5 18 0 -8 -14 -2
1 -4 5 18 0 -8 -14 -2
1 -3 4 17 -2 -9 -15 -2
0 -4 4 17 0 -8 -14 -2
-3 -4 4 17 1 -7 -14 -2
-4 -5 4 17 2 -6 -13 -2
-5 -5 4 17 2 -6 -13 -2
-4 -5 4 17 3 -5 -12 -2
0 -4 4 17 3 -5 -11 -2
3 -3 4 17 3 -4 -11 0
5 -2 4 17 3 -4 -10 0
8 0 4 17 3 -4 -10 0
8 1 3 18 2 -3 -9 1
7 0 3 18 2 -3 -9 1
6 0 3 18 2 -3 -9 0
5 -2 3 18 2 -3 -9 0
4 -2 3 18 2 -3 -9 0
3 -3 3 17 2 -2 -9 -2
3 -3 3 17 2 -2 -9 0
3 -3 2 17 3 -2 -9 1
3 -3 2 17 3 -2 -9 2
3 -3 2 17 3 -2 -9 2
2 -3 1 18 4 1 -8 3
3 -2 1 18 5 2 -7 3
3 0 1 19 5 3 -6 4
4 1 1 19 6 4 -5 4
4 1 1 19 6 5 -5 4
5 2 2 20 7 6 -4 5
5 2 1 20 7 6 -3 6
6 3 1 20 8 6 -3 7
6 3 0 20 8 6 -2 8
6 3 0 20 8 6 -2 8
7 4 -2 20 9 7 0 9
7 4 -2 20 9 8 1 9
7 5 -2 20 9 8 1 9
7 5 -2 20 9 9 2 9
7 5 -2 20 9 9 2 9
8 6 -2 20 10 11 4 11
9 7 -3 20 10 12 6 12
10 8 -4 21 11 14 8 14
11 9 -5 21 11 15 9 16
12 10 -5 21 11 16 11 17
13 11 -6 22 12 18 13 18
13 11 -7 22 13 19 14 19
13 11 -8 22 14 21 15 20
13 11 -9 22 15 23 16 21
13 11 -10 22 15 24 17 21
15 11 -11 23 16 25 19 23
16 13 -11 23 16 26 20 24
17 15 -11 23 17 27 21 25
18 17 -11 23 17 28 23 27
19 19 -11 23 17 29 24 28
20 21 -10 24 19 32 27 30
21 22 -11 24 20 34 29 31
22 23 -11 25 21 37 31 33
23 25 -12 25 23 40 34 35
24 26 -12 25 24 43 36 36
25 27 -13 26 25 44 37 37
25 27 -13 25 25 44 38 38
25 26 -14 24 25 44 39 38
25 26 -14 23 25 44 40 39
25 26 -14 23 25 44 40 39
24 26 -15 22 24 46 43 42
25 27 -16 22 25 48 45 43
26 28 -17 23 25 50 47 44
27 30 -18 23 26 51 48 46
27 31 -18 23 26 53 50 47
28 32 -19 24 27 54 51 48
28 32 -19 23 27 54 51 48
28 33 -19 22 27 53 51 48
28 33 -19 21 27 53 51 48
28 33 -19 21 27 53 51 48
29 34 -20 20 27 52 52 49
29 34 -20 20 28 53 52 49
28 34 -20 20 28 53 52 49
28 34 -20 20 29 54 52 49
28 34 -20 20 29 54 52 49
27 33 -20 21 30 55 52 50
27 33 -20 20 30 54 52 50
26 33 -20 19 30 53 52 50
26 33 -20 18 30 52 52 50
26 33 -20 18 30 52 52 50
24 33 -21 17 29 51 50 49
21 31 -20 17 28 49 49 47
19 29 -20 16 27 48 47 45
17 27 -19 16 26 47 45 43
15 25 -19 16 26 46 44 40
14 24 -17 15 25 45 42 39
16 25 -15 15 25 44 40 38
17 26 -13 15 25 43 39 38
18 27 -12 15 25 42 37 37
19 28 -10 15 25 40 36 37
19 28 -9 15 26 38 33 35
18 27 -8 15 25 35 31 32
16 26 -7 15 24 33 28 30
14 24 -6 15 23 30 26 27
13 23 -6 15 23 28 23 25
11 21 -5 14 21 25 20 22
9 19 -5 13 20 22 17 20
6 17 -4 13 19 20 14 17
4 16 -4 12 17 17 11 15
2 14 -4 12 16 14 8 12
1 12 -3 11 14 12 6 10
0 9 -2 10 13 10 4 8
-2 7 -2 9 11 8 2 6
-3 4 0 8 9 7 0 5
-3 2 0 8 8 5 -3 3
-4 1 1 7 6 3 -5 2
-4 1 1 7 5 2 -6 1
-5 1 2 6 4 0 -8 0
-5 1 2 6 2 -3 -10 -2
-5 1 2 6 1 -4 -11 -2
-6 0 3 5 0 -5 -12 -3
-6 -2 3 5 -2 -6 -13 -4
-6 -3 3 4 -2 -6 -13 -5
-6 -4 3 4 -3 -7 -14 -6
-6 -4 3 4 -3 -7 -14 -6
-6 -5 3 3 -4 -8 -15 -7
-7 -6 3 2 -6 -10 -16 -9
-8 -7 2 1 -7 -11 -17 -10
-9 -8 2 0 -8 -12 -18 -11
-9 -8 2 -2 -9 -13 -19 -12
-10 -9 1 -3 -10 -14 -20 -13
-9 -8 2 -3 -10 -15 -20 -13
-8 -7 2 -3 -10 -15 -21 -14
-7 -6 3 -3 -10 -16 -21 -14
-7 -6 3 -3 -10 -16 -21 -14
-6 -5 4 -3 -9 -17 -22 -15
-6 -6 3 -4 -10 -17 -22 -15
-7 -7 3 -4 -10 -17 -22 -15
-7 -8 2 -5 -11 -17 -22 -15
-7 -8 2 -5 -11 -17 -22 -15
-8 -9 1 -6 -12 -18 -22 -14
-8 -8 1 -6 -12 -18 -22 -14
-7 -7 2 -5 -12 -18 -22 -14
-7 -6 2 -5 -12 -18 -22 -14
-7 -6 2 -5 -12 -18 -22 -14
-7 -6 3 -4 -11 -18 -22 -15
-8 -8 3 -5 -11 -18 -22 -15
-10 -10 2 -5 -12 -18 -22 -16
-12 -12 2 -6 -12 -18 -22 -16
-13 -14 2 -6 -12 -18 -22 -16
-14 -15 1 -7 -13 -19 -23 -17
-14 -14 1 -7 -13 -19 -23 -17
-14 -14 1 -7 -13 -19 -23 -17
-14 -13 1 -7 -13 -19 -23 -17
-14 -13 1 -7 -13 -19 -23 -17
-13 -12 2 -8 -12 -20 -24 -18
-12 -12 2 -8 -12 -20 -24 -18
-11 -12 2 -8 -13 -21 -24 -18
-10 -12 2 -8 -13 -21 -24 -18
-10 -12 2 -8 -13 -21 -24 -18
-9 -11 3 -7 -14 -22 -24 -17
-11 -12 3 -7 -14 -22 -24 -17
-12 -13 3 -7 -14 -22 -24 -18
-13 -14 3 -7 -14 -22 -24 -18
-14 -15 3 -7 -14 -22 -24 -18
-15 -16 4 -8 -13 -22 -25 -19
-15 -16 4 -8 -13 -22 -25 -19
-14 -16 4 -8 -13 -22 -26 -20
-14 -16 4 -8 -13 -22 -26 -20
-14 -16 4 -8 -13 -22 -26 -20
-13 -15 3 -8 -14 -23 -27 -21
-13 -16 3 -8 -14 -23 -27 -21
-14 -16 3 -8 -14 -23 -27 -21
-14 -17 3 -8 -14 -23 -27 -21
-14 -17 3 -8 -14 -23 -27 -21
-15 -17 3 -8 -15 -23 -27 -20
-13 -15 3 -8 -15 -22 -26 -19
-12 -14 3 -8 -14 -21 -25 -18
-11 -12 3 -8 -14 -20 -24 -17
-10 -10 3 -8 -14 -20 -23 -17
-9 -10 3 -8 -13 -19 -22 -16
-10 -11 3 -8 -13 -20 -22 -16
-10 -12 3 -8 -14 -21 -23 -17
-11 -14 3 -8 -14 -22 -23 -17
-11 -15 3 -8 -14 -22 -23 -17
-12 -16 3 -7 -15 -23 -24 -18
-12 -15 3 -7 -15 -23 -24 -18
-13 -15 3 -7 -15 -22 -24 -18
-13 -14 3 -7 -15 -22 -24 -18
-13 -14 3 -7 -15 -22 -24 -18
-14 -13 2 -8 -14 -21 -25 -17
-14 -13 2 -8 -14 -21 -24 -17
-14 -14 2 -7 -14 -20 -24 -17
-14 -14 2 -7 -14 -20 -23 -17
-14 -14 2 -7 -14 -20 -23 -17
-14 -15 3 -6 -15 -19 -22 -17
-14 -15 3 -6 -15 -19 -22 -16
-14 -15 3 -6 -15 -19 -22 -16
-14 -15 3 -6 -15 -19 -22 -15
-14 -15 3 -6 -15 -19 -22 -15
-14 -14 3 -7 -15 -18 -21 -14
-14 -14 3 -7 -15 -18 -21 -14
-14 -14 3 -7 -15 -18 -21 -15
-14 -14 3 -7 -15 -18 -21 -15
-14 -14 3 -7 -15 -18 -21 -15
-13 -13 2 -8 -15 -17 -21 -16
-13 -14 2 -8 -15 -17 -22 -16
-13 -14 1 -8 -15 -18 -22 -16
-13 -15 1 -8 -15 -18 -23 -16
-13 -15 1 -8 -15 -18 -23 -16
-13 -16 0 -9 -16 -19 -24 -17
-14 -16 0 -9 -16 -19 -23 -17
-15 -16 0 -9 -16 -19 -23 -17
-16 -16 0 -9 -16 -19 -22 -17
-17 -16 0 -9 -16 -19 -22 -17
-17 -17 0 -9 -15 -18 -21 -16
-15 -15 0 -9 -15 -18 -20 -15
-14 -14 1 -9 -15 -17 -20 -14
-12 -13 1 -9 -15 -17 -19 -14
-10 -12 1 -9 -15 -17 -19 -13
-9 -11 2 -10 -15 -16 -18 -12
-9 -11 2 -10 -13 -16 -18 -12
-9 -11 2 -10 -12 -16 -18 -12
-9 -11 2 -10 -11 -16 -18 -12
-9 -11 2 -10 -10 -16 -18 -12
-8 -12 2 -9 -9 -16 -18 -13
-9 -12 2 -9 -9 -16 -18 -13
-9 -12 2 -9 -9 -16 -19 -13
-10 -12 2 -9 -9 -16 -19 -13
-10 -12 2 -9 -9 -16 -19 -13
-11 -13 2 -10 -10 -17 -20 -14
-11 -13 2 -10 -10 -17 -20 -14
-11 -14 2 -10 -11 -17 -20 -14
-11 -14 2 -10 -11 -17 -20 -14
-11 -14 2 -10 -11 -17 -20 -14
-12 -15 2 -10 -12 -18 -19 -13
-14 -16 2 -10 -12 -18 -19 -13
-15 -16 2 -10 -12 -18 -19 -13
-17 -17 2 -10 -12 -18 -19 -13
-18 -17 2 -10 -12 -18 -19 -13
-18 -18 2 -9 -12 -18 -20 -14
-17 -17 2 -9 -12 -18 -20 -14
-15 -16 2 -9 -12 -18 -20 -14
-14 -16 2 -9 -12 -18 -20 -14
-12 -15 2 -9 -12 -18 -20 -14
-11 -14 3 -8 -12 -18 -20 -14
-12 -15 3 -8 -12 -18 -20 -14
-13 -15 3 -8 -13 -19 -20 -14
-13 -16 3 -8 -13 -19 -20 -14
-14 -16 3 -8 -13 -19 -20 -14
-15 -17 2 -9 -14 -20 -20 -14
-16 -18 2 -10 -14 -20 -20 -14
-16 -19 2 -10 -14 -20 -20 -14
-17 -19 2 -11 -14 -20 -20 -14
-17 -20 2 -11 -14 -20 -20 -14
-18 -20 2 -12 -15 -20 -20 -15
-16 -17 2 -11 -14 -19 -20 -14
-15 -15 2 -10 -14 -19 -19 -13
-14 -13 2 -9 -13 -18 -19 -12
-13 -10 2 -8 -13 -18 -19 -11
-12 -9 2 -7 -12 -17 -18 -10
-12 -11 2 -8 -13 -18 -19 -11
-11 -12 2 -8 -13 -18 -19 -12
-11 -14 2 -9 -14 -19 -20 -12
-11 -15 2 -9 -14 -19 -20 -13
-11 -16 2 -10 -15 -20 -21 -14
-12 -17 2 -10 -15 -20 -21 -14
-14 -17 2 -10 -15 -20 -22 -14
-15 -18 2 -10 -15 -20 -22 -14
-17 -18 2 -10 -15 -20 -22 -14
-18 -19 2 -10 -16 -20 -23 -14
-16 -19 2 -10 -16 -20 -22 -14
-15 -18 2 -10 -15 -20 -21 -13
-14 -18 2 -10 -15 -20 -21 -13
-13 -18 2 -10 -15 -20 -20 -13
-12 -17 3 -9 -14 -19 -19 -12
-12 -17 2 -10 -14 -19 -19 -12
-12 -18 2 -10 -15 -19 -19 -13
-12 -18 1 -11 -15 -19 -19 -13
-12 -18 1 -11 -15 -19 -19 -13
-13 -19 0 -12 -16 -20 -19 -14
-14 -18 1 -11 -16 -20 -19 -14
-14 -18 2 -10 -16 -19 -19 -13
-15 -17 2 -10 -16 -19 -19 -13
-15 -17 3 -9 -16 -19 -19 -13
-16 -16 4 -8 -15 -18 -18 -12
-17 -17 4 -9 -15 -20 -19 -12
-17 -17 3 -9 -16 -21 -20 -13
-18 -18 3 -10 -16 -22 -20 -13
-18 -18 3 -10 -16 -23 -21 -13
-18 -19 2 -11 -17 -24 -22 -14
-15 -17 2 -10 -16 -23 -22 -14
-13 -16 3 -10 -16 -22 -21 -13
-10 -14 3 -9 -15 -21 -21 -13
-7 -13 3 -9 -15 -20 -21 -13
-6 -12 4 -8 -14 -19 -20 -12
-7 -13 4 -8 -14 -19 -20 -12
-8 -14 3 -9 -14 -19 -20 -12
-8 -14 3 -9 -14 -19 -20 -12
-9 -15 3 -9 -14 -19 -20 -12
-10 -16 2 -10 -15 -19 -19 -12
-10 -16 2 -10 -15 -19 -19 -12
-10 -16 2 -10 -15 -19 -19 -13
-10 -16 2 -10 -15 -19 -19 -13
-10 -16 2 -10 -15 -19 -19 -13
-11 -15 2 -9 -15 -19 -20 -14
-11 -15 2 -9 -15 -19 -20 -14
-11 -16 2 -9 -15 -19 -20 -13
-11 -17 2 -9 -15 -19 -20 -13
-11 -17 2 -9 -15 -19 -20 -13
-12 -18 2 -9 -16 -20 -20 -12
-12 -18 2 -9 -16 -19 -20 -12
-12 -17 3 -8 -15 -18 -19 -11
-12 -16 3 -8 -15 -18 -18 -11
-12 -16 3 -8 -15 -17 -18 -11
-13 -15 4 -7 -14 -16 -17 -10
-13 -16 4 -7 -14 -16 -17 -10
-13 -17 3 -7 -14 -17 -18 -11
-13 -17 3 -7 -14 -18 -18 -11
-13 -18 3 -7 -14 -18 -18 -11
-12 -19 2 -8 -15 -19 -19 -12
-12 -19 2 -8 -15 -19 -19 -12
-12 -18 3 -8 -14 -18 -18 -11
-12 -17 3 -8 -13 -18 -17 -10
-12 -17 3 -8 -13 -18 -17 -10
-12 -16 4 -9 -12 -17 -16 -9
-12 -16 4 -9 -12 -17 -16 -9
-12 -16 4 -8 -12 -17 -16 -9
-12 -16 4 -8 -12 -17 -16 -9
-12 -16 4 -8 -12 -17 -16 -9
-12 -16 4 -7 -12 -17 -16 -8
-12 -17 4 -7 -12 -17 -16 -9
-13 -19 4 -8 -13 -18 -17 -10
-14 -20 4 -8 -13 -19 -18 -10
-14 -22 4 -8 -13 -19 -18 -11
-14 -22 3 -9 -14 -20 -19 -12
-13 -20 3 -9 -14 -19 -19 -12
-11 -18 4 -8 -13 -18 -18 -11
-10 -16 4 -7 -12 -18 -17 -10
-8 -14 4 -7 -12 -17 -17 -10
-7 -13 5 -6 -11 -16 -16 -9
-7 -13 5 -6 -11 -16 -16 -9
-7 -14 4 -6 -11 -17 -16 -9
-7 -15 4 -6 -11 -17 -16 -9
-7 -15 4 -6 -11 -17 -16 -9
-8 -16 3 -7 -12 -18 -15 -10
-8 -16 3 -7 -12 -18 -15 -10
-9 -16 3 -7 -12 -17 -15 -10
-9 -16 3 -7 -12 -17 -15 -10
-9 -16 3 -7 -12 -17 -15 -10
-10 -16 3 -7 -12 -16 -16 -9
-10 -16 3 -7 -12 -16 -16 -9
-11 -15 3 -7 -12 -16 -16 -9
-11 -15 3 -7 -12 -16 -16 -9
-11 -15 3 -7 -12 -16 -16 -9
-12 -14 4 -6 -12 -16 -17 -9
-12 -14 4 -6 -12 -16 -17 -9
-12 -14 4 -6 -12 -16 -17 -9
-12 -14 4 -6 -12 -16 -17 -9
-12 -14 4 -6 -12 -16 -17 -9
-11 -14 3 -7 -12 -17 -17 -9
-11 -13 3 -7 -12 -17 -17 -9
-11 -12 4 -6 -11 -16 -17 -9
-11 -11 4 -5 -11 -15 -17 -9
-11 -10 4 -5 -11 -15 -17 -9
-10 -9 5 -4 -10 -14 -16 -9
-10 -7 5 -4 -9 -14 -15 -8
-10 -5 6 -3 -7 -13 -14 -6
-10 -4 6 -3 -6 -12 -13 -5
-10 -2 6 -3 -5 -12 -12 -4
-10 0 7 -2 -4 -11 -11 -3
-11 -2 7 -2 -4 -11 -11 -3
-12 -4 7 0 -4 -10 -10 -3
-13 -5 7 0 -4 -9 -10 -3
-14 -6 7 0 -4 -9 -10 -3
-14 -5 7 1 -4 -8 -9 -3
-12 -2 7 2 -2 -8 -8 -2
-10 3 8 3 1 -7 -6 0
-8 6 8 3 2 -7 -5 1
-5 10 8 4 4 -7 -4 2
-4 12 9 5 5 -6 -3 3
-4 12 8 4 5 -6 -3 3
-3 11 7 3 4 -5 -3 2
-3 10 6 3 4 -4 -3 2
-3 10 5 2 4 -4 -3 2
-2 9 3 1 3 -3 -4 1
-2 9 2 1 3 -3 -4 1
-2 10 0 0 3 -3 -3 1
-2 10 -3 -2 3 -3 -2 1
-2 10 -5 -2 3 -3 -2 1
-3 11 -6 -3 2 -3 0 2
-3 11 -5 -3 2 -3 0 2
-2 11 -4 -3 2 -3 0 3
-2 11 -4 -3 2 -3 0 4
-2 11 -3 -3 2 -3 0 4
0 12 -2 -2 2 -3 -2 5
0 11 -3 -3 1 -3 -2 5
1 9 -4 -4 0 -3 -2 4
2 8 -4 -4 0 -3 -2 3
2 7 -5 -5 -2 -3 -2 3
3 6 -6 -6 -3 -4 -3 2
3 5 -6 -6 -3 -4 -3 2
2 3 -5 -6 -3 -5 -3 2
1 2 -5 -6 -3 -5 -3 2
1 1 -5 -6 -3 -5 -3 2
0 0 -4 -5 -4 -6 -4 1
0 0 -4 -6 -5 -7 -5 0
0 -2 -4 -7 -7 -8 -6 -2
0 -2 -4 -7 -8 -9 -7 -2
0 -2 -4 -8 -9 -10 -8 -3
-2 -4 -5 -9 -10 -11 -9 -4
-5 -6 -5 -9 -10 -11 -10 -5
-8 -8 -4 -9 -10 -12 -11 -6
-11 -10 -4 -9 -10 -13 -11 -6
-14 -13 -4 -9 -10 -13 -12 -7
-15 -14 -3 -8 -9 -14 -13 -8
-13 -12 -2 -8 -9 -14 -13 -8
-11 -11 0 -8 -9 -14 -13 -8
-9 -10 0 -8 -9 -14 -13 -8
-7 -8 1 -8 -9 -14 -13 -8
-6 -7 2 -8 -9 -14 -12 -8
-6 -8 2 -8 -10 -15 -13 -9
-7 -9 1 -9 -11 -16 -14 -11
-8 -10 0 -9 -12 -16 -14 -12
-8 -11 0 -9 -13 -17 -15 -13
-9 -12 -2 -10 -14 -18 -16 -14
-10 -12 -2 -10 -14 -18 -16 -14
-11 -12 0 -10 -14 -18 -16 -14
-12 -12 1 -10 -14 -18 -16 -14
-13 -12 1 -10 -14 -18 -16 -14
-14 -11 2 -10 -13 -18 -16 -13
-13 -11 2 -10 -13 -18 -16 -13
-12 -12 2 -10 -13 -18 -17 -13
-12 -12 2 -10 -13 -18 -17 -13
-11 -12 2 -10 -13 -18 -17 -13
-10 -13 2 -11 -13 -18 -18 -13
-10 -13 2 -11 -13 -18 -18 -14
-10 -14 1 -11 -14 -18 -18 -15
-10 -15 1 -11 -15 -18 -18 -15
-10 -15 1 -11 -15 -18 -18 -16
-11 -16 0 -12 -16 -19 -19 -17
-11 -15 0 -12 -16 -19 -19 -17
-11 -14 1 -12 -16 -19 -19 -16
-11 -14 1 -12 -16 -19 -19 -16
-11 -13 1 -12 -16 -19 -19 -16
-10 -12 2 -11 -15 -19 -18 -15
-12 -13 2 -11 -15 -19 -18 -15
-14 -14 2 -11 -15 -19 -18 -15
-15 -15 2 -11 -15 -19 -18 -15
-17 -16 2 -11 -15 -19 -18 -15
-18 -17 1 -11 -16 -20 -18 -15
-17 -17 1 -11 -16 -20 -18 -15
-16 -17 1 -11 -16 -20 -18 -15
-16 -17 1 -11 -16 -20 -18 -15
-15 -17 1 -11 -16 -20 -18 -15
-14 -16 2 -10 -15 -19 -17 -15
-14 -16 2 -10 -15 -19 -17 -15
-14 -16 2 -10 -15 -18 -16 -15
-14 -16 2 -10 -15 -18 -16 -15
-14 -16 2 -10 -15 -18 -16 -15
-14 -16 3 -9 -14 -17 -15 -14
-13 -16 3 -9 -14 -17 -15 -14
-12 -15 3 -9 -14 -18 -16 -15
-12 -15 3 -9 -14 -18 -17 -15
-11 -15 3 -9 -14 -18 -17 -15
-10 -14 2 -10 -15 -19 -18 -16
-10 -14 2 -10 -15 -19 -18 -16
-9 -14 2 -9 -15 -18 -17 -15
-8 -14 2 -9 -15 -18 -17 -15
-8 -14 2 -9 -15 -18 -17 -15
-7 -13 3 -8 -14 -17 -16 -14
-7 -13 3 -8 -14 -17 -16 -14
-8 -13 3 -8 -13 -16 -15 -13
-8 -13 3 -8 -13 -16 -15 -13
-8 -13 3 -8 -13 -16 -15 -13
-9 -14 3 -7 -12 -15 -14 -12
-9 -13 3 -7 -12 -15 -14 -12
-9 -12 3 -6 -11 -14 -13 -12
-9 -12 3 -6 -11 -14 -13 -12
-9 -11 3 -6 -11 -14 -13 -12
-10 -10 4 -4 -9 -12 -12 -11
-10 -10 6 0 -6 -10 -12 -11
-9 -10 8 4 -3 -8 -11 -10
-8 -10 9 7 0 -6 -10 -10
-8 -10 11 10 3 -4 -10 -10
-5 -10 12 16 10 5 -3 -4
2 -7 13 24 22 20 11 6
8 -4 14 32 34 34 25 16
13 0 14 40 46 50 38 26
19 3 15 49 58 64 52 36
24 7 17 59 75 87 70 49
28 13 20 71 99 115 93 64
33 19 24 85 121 144 116 80
37 25 27 97 145 173 139 96
42 31 30 109 168 202 161 111
46 40 27 104 174 219 180 126
50 55 17 78 161 223 193 140
54 68 7 54 149 228 206 153
58 81 -4 28 137 233 220 167
62 96 -14 4 125 237 233 181
58 100 -26 -28 95 215 220 175
46 93 -43 -67 48 163 177 147
32 86 -59 -106 0 112 134 118
20 79 -75 -144 -49 62 91 91
8 72 -92 -183 -96 11 48 63
-3 61 -101 -206 -133 -33 12 37
-11 46 -105 -217 -158 -68 -17 15
-18 31 -109 -227 -183 -104 -46 -8
-26 16 -113 -237 -208 -139 -74 -30
-34 1 -117 -247 -234 -175 -103 -53
-38 -8 -114 -240 -236 -185 -114 -63
-36 -8 -102 -214 -213 -168 -105 -59
-35 -8 -91 -187 -189 -151 -96 -55
-34 -8 -79 -160 -164 -134 -87 -50
-32 -8 -67 -135 -141 -116 -77 -46
-30 -8 -57 -112 -120 -101 -68 -40
-27 -7 -49 -96 -103 -88 -60 -35
-24 -6 -40 -79 -87 -74 -52 -30
-20 -4 -31 -62 -69 -60 -43 -24
-17 -3 -23 -46 -52 -47 -34 -19
-15 -2 -17 -34 -40 -37 -28 -16
-13 -2 -14 -28 -35 -33 -25 -14
-12 0 -11 -23 -30 -29 -22 -13
-10 1 -8 -17 -24 -24 -19 -11
-8 1 -5 -11 -19 -20 -16 -9
-7 2 -3 -8 -16 -17 -14 -8
-7 1 -3 -6 -14 -17 -14 -9
-7 0 -3 -4 -13 -17 -14 -9
-6 -3 -3 -2 -12 -17 -15 -10
-6 -4 -3 1 -10 -17 -15 -11
-5 -5 -2 2 -9 -16 -16 -12
-6 -5 -2 2 -9 -16 -16 -12
-6 -5 -2 2 -9 -15 -16 -11
-7 -5 -2 2 -9 -14 -16 -10
-8 -5 -2 2 -9 -14 -16 -10
-9 -4 0 3 -9 -13 -15 -9
-7 -4 2 5 -7 -11 -13 -9
-5 -4 3 6 -5 -10 -12 -8
-3 -4 4 8 -3 -9 -11 -7
0 -4 6 10 0 -7 -9 -7
2 -4 7 11 1 -6 -8 -6
2 -4 7 11 1 -6 -8 -6
2 -4 7 11 1 -6 -8 -6
1 -4 7 10 0 -6 -8 -6
1 -4 7 10 0 -6 -8 -6
0 -3 6 9 -2 -6 -9 -7
0 -4 6 10 -2 -6 -9 -7
0 -4 6 10 -2 -6 -9 -7
0 -5 6 11 0 -6 -9 -8
0 -6 6 12 0 -6 -9 -8
-2 -7 6 13 1 -7 -10 -9
-2 -7 6 13 1 -7 -10 -8
-2 -6 6 13 1 -6 -9 -8
-2 -5 7 13 1 -5 -8 -7
-2 -5 7 13 1 -5 -8 -6
-2 -4 8 14 2 -4 -7 -5
-2 -4 8 14 2 -4 -7 -5
0 -4 8 14 2 -4 -7 -5
1 -4 8 14 2 -4 -7 -6
1 -4 8 14 2 -4 -7 -6
2 -3 7 14 3 -5 -8 -7
2 -3 7 14 3 -4 -7 -7
2 -3 7 14 3 -4 -7 -6
2 -3 7 14 3 -3 -6 -5
2 -3 7 14 3 -2 -5 -5
2 -3 6 13 2 0 -4 -4
1 -3 6 13 2 0 -4 -4
0 -3 6 14 2 0 -4 -5
-2 -2 6 15 2 0 -4 -6
-3 -2 6 15 2 0 -4 -6
-4 0 6 16 3 0 -5 -7
-4 -2 6 16 3 0 -4 -6
-3 -3 6 16 3 0 -4 -5
-2 -5 6 16 3 0 -3 -3
-2 -6 6 16 3 0 -2 -2
0 -7 5 16 4 1 0 0
1 -5 5 16 5 2 0 0
2 -3 5 16 6 2 0 0
3 0 6 17 7 3 0 0
4 1 6 17 8 4 0 0
5 3 7 18 9 5 1 0
5 3 7 18 9 6 1 0
5 3 7 18 9 6 2 0
4 3 7 18 9 7 3 0
4 3 7 18 9 8 3 0
3 3 6 17 8 9 4 1
3 3 6 18 8 9 4 1
2 3 6 19 8 10 4 2
1 2 5 21 9 11 4 3
1 2 5 22 9 11 4 3
1 1 4 23 10 12 5 4
3 3 4 23 10 13 6 4
6 5 4 22 10 14 7 4
8 7 4 21 11 15 8 5
11 9 4 21 11 16 9 5
13 11 3 20 12 17 10 6
13 11 2 20 12 17 10 6
13 11 1 20 12 17 10 7
13 10 0 20 12 17 10 8
13 10 -2 20 12 17 10 8
13 9 -3 21 13 18 11 9
13 9 -3 21 13 19 13 10
13 10 -3 21 14 21 15 12
13 11 -3 21 15 22 17 13
13 11 -3 21 15 24 18 15
12 12 -4 21 16 25 20 16
12 12 -5 21 16 25 20 16
12 12 -5 21 16 26 21 17
12 12 -6 22 17 27 22 18
12 12 -7 22 17 27 22 18
13 13 -8 23 18 29 24 20
15 16 -8 24 20 32 26 22
17 19 -8 25 22 35 29 25
19 22 -7 26 24 38 32 28
21 25 -7 27 26 42 35 31
23 27 -6 28 28 44 37 33
23 26 -8 28 28 44 38 33
23 26 -9 28 28 45 39 34
24 25 -11 28 28 46 42 35
24 24 -13 28 28 46 43 35
25 23 -14 28 27 47 45 36
26 25 -14 28 28 50 47 39
27 26 -14 28 29 52 50 42
28 28 -14 28 30 54 52 44
29 30 -14 28 31 56 55 46
30 31 -15 28 32 58 57 48
30 32 -16 28 32 58 58 48
31 32 -16 28 32 58 58 48
32 33 -17 28 32 58 59 48
32 34 -18 28 32 58 60 48
33 35 -19 27 33 59 61 49
33 35 -19 27 33 60 62 50
33 36 -19 27 34 61 63 51
33 37 -19 28 35 63 64 53
33 37 -19 28 35 64 65 54
34 38 -20 29 36 65 66 55
34 38 -20 28 36 65 66 55
34 38 -21 27 35 65 66 55
34 38 -22 26 34 65 66 55
34 38 -22 25 34 65 66 55
34 39 -23 24 33 64 65 55
33 39 -23 24 33 64 65 55
32 39 -23 24 33 64 65 55
30 40 -22 24 34 64 65 55
29 40 -22 24 34 64 65 55
28 42 -21 24 35 65 66 56
28 42 -20 24 35 64 65 55
28 42 -20 24 35 64 64 55
28 42 -19 24 35 63 62 54
28 42 -18 24 35 62 61 53
27 40 -17 23 34 61 60 52
27 40 -16 23 34 59 59 51
26 39 -14 23 34 58 58 50
25 38 -13 23 33 56 56 48
25 38 -11 23 33 54 55 47
24 37 -10 22 32 53 53 46
22 35 -10 22 31 50 50 43
21 33 -9 22 31 48 47 39
19 31 -8 22 30 45 44 37
18 30 -8 22 29 43 40 34
16 28 -7 22 28 40 37 32
15 28 -6 22 27 38 34 30
14 27 -4 22 26 36 32 28
12 26 -3 21 25 34 29 26
11 26 0 21 24 32 27 25
10 25 1 20 23 30 25 23
9 23 1 20 22 27 22 21
8 22 2 20 21 25 20 19
7 20 3 20 19 23 18 17
6 19 3 20 18 21 16 15
5 17 4 20 17 19 14 13
4 16 4 19 17 17 13 12
4 15 4 18 17 16 11 12
3 13 4 17 16 14 10 11
2 12 4 16 16 13 8 10
1 11 5 15 15 11 7 9
1 11 5 15 14 10 6 7
1 11 5 15 13 9 4 5
0 10 5 15 11 8 3 3
0 10 5 15 10 7 1 2
-2 9 6 14 9 6 0 0
0 8 6 14 8 5 0 0
1 7 6 13 8 5 -2 0
2 5 5 12 7 4 -3 -2
3 4 5 12 6 3 -3 -2
4 3 4 11 5 2 -4 -3
3 3 4 11 5 2 -4 -3
1 3 5 11 5 2 -4 -3
0 3 6 12 5 2 -4 -3
-3 3 6 12 5 2 -4 -3
-4 2 7 13 5 1 -5 -4
-4 0 7 12 5 1 -5 -4
-5 -3 6 10 4 0 -6 -5
-6 -5 5 9 3 -2 -7 -6
-6 -6 5 7 3 -2 -7 -6
-7 -8 4 6 2 -3 -8 -7
-5 -6 4 7 2 -3 -8 -7
-2 -3 4 8 2 -3 -8 -7
1 0 4 9 2 -3 -8 -7
3 2 4 10 2 -3 -8 -7
5 4 5 11 3 -4 -9 -7
4 3 5 11 3 -4 -8 -7
3 3 5 11 4 -3 -8 -7
1 2 6 11 5 -2 -7 -6
0 1 6 11 5 -2 -6 -6
-2 0 7 11 6 0 -5 -5
-2 0 7 11 6 0 -5 -5
-2 0 7 11 6 0 -6 -5
-2 0 7 11 6 -2 -7 -6
-2 0 7 11 6 -2 -7 -6
-3 0 6 12 5 -3 -8 -7
-3 0 6 12 5 -3 -8 -7
-3 0 6 12 5 -3 -8 -7
-3 0 6 12 5 -3 -8 -7
-3 0 6 12 5 -3 -8 -7
-2 1 7 12 5 -3 -8 -6
-2 0 6 12 4 -4 -9 -7
-2 -2 6 11 3 -5 -10 -8
-3 -3 5 11 2 -6 -11 -9
-3 -4 4 10 1 -7 -12 -10
-4 -5 3 9 0 -8 -13 -11
-4 -4 3 9 1 -7 -13 -11
-4 -3 3 9 2 -6 -13 -11
-3 -2 4 10 3 -5 -13 -10
-3 1 4 10 4 -4 -13 -10
-2 2 5 11 5 -3 -12 -9
-2 2 5 11 5 -3 -12 -9
-2 2 5 11 5 -3 -12 -9
-2 1 5 11 5 -3 -12 -9
-2 1 5 11 5 -3 -12 -9
-2 0 5 11 4 -4 -11 -9
-3 0 5 11 4 -4 -11 -9
-3 0 5 11 4 -4 -11 -9
-4 0 5 11 4 -4 -11 -9
-5 0 5 11 4 -4 -11 -9
-6 -2 4 11 5 -4 -11 -9
-6 -2 4 11 5 -4 -11 -9
-6 -2 4 11 5 -4 -11 -9
-5 -2 4 11 5 -4 -11 -9
-5 -2 4 11 5 -4 -11 -9
-4 -2 4 12 5 -5 -11 -9
-4 -2 4 12 5 -5 -11 -9
-4 -2 4 12 5 -5 -11 -9
-4 0 4 12 5 -5 -11 -9
-4 0 4 12 5 -5 -11 -9
-4 1 5 11 5 -5 -10 -9
-3 2 5 11 5 -5 -10 -9
-3 2 5 11 5 -4 -10 -8
-2 3 4 11 5 -4 -10 -8
0 4 4 11 5 -3 -10 -7
1 5 3 12 5 -2 -9 -6
1 5 3 12 5 -2 -9 -6
1 5 3 12 5 -2 -9 -6
1 5 3 12 5 -2 -9 -6
1 5 3 12 5 -2 -9 -6
1 6 3 12 5 0 -8 -5
1 6 3 12 5 0 -8 -5
1 6 3 12 5 0 -8 -5
0 6 3 12 5 0 -8 -5
0 6 3 12 5 0 -8 -5
-2 5 2 13 6 -2 -8 -5
-2 6 2 13 6 -2 -8 -5
0 6 2 13 6 0 -8 -5
0 7 2 13 7 0 -7 -5
1 8 2 13 7 1 -7 -5
2 9 3 13 8 2 -6 -5
2 9 3 13 8 2 -6 -5
1 9 3 13 8 2 -6 -5
1 10 2 13 7 2 -6 -5
0 10 2 13 7 2 -6 -5
-2 11 1 14 6 1 -6 -5
-2 11 1 14 6 1 -6 -5
-2 11 1 14 6 1 -6 -5
-2 10 1 14 6 1 -6 -5
-2 10 1 14 6 1 -6 -5
0 9 0 13 6 2 -6 -5
-2 8 0 13 6 2 -6 -5
-2 8 0 13 6 2 -6 -5
-3 7 0 12 6 2 -6 -5
-4 6 0 12 6 2 -6 -5
-5 5 0 11 5 1 -7 -5
-4 7 0 11 5 1 -7 -5
-3 9 0 12 6 1 -6 -4
-2 10 1 12 6 2 -6 -4
1 12 1 13 7 2 -5 -3
2 14 2 14 8 3 -4 -2
2 14 2 14 8 3 -4 -2
2 14 2 14 8 2 -4 -3
2 13 2 14 7 2 -5 -3
2 13 2 14 7 1 -5 -4
3 12 1 13 6 0 -6 -5
3 12 1 13 6 0 -6 -5
3 12 1 12 6 0 -6 -5
2 12 1 12 6 0 -6 -5
2 12 1 11 6 0 -6 -5
1 11 1 10 5 0 -6 -6
0 11 1 10 5 0 -6 -6
-2 11 1 11 5 0 -6 -6
-3 11 2 11 5 0 -6 -6
-5 11 2 12 5 0 -6 -6
-6 12 3 13 6 1 -5 -5
-5 11 2 12 5 0 -6 -6
-4 11 1 11 4 -2 -7 -7
-3 10 0 10 3 -3 -8 -8
0 9 -3 8 2 -4 -10 -10
1 8 -4 7 1 -5 -11 -11
0 8 -3 8 1 -5 -11 -11
0 8 -3 8 2 -5 -11 -11
-2 8 -2 9 2 -4 -10 -10
-3 8 0 10 3 -4 -10 -10
-4 8 1 11 4 -3 -9 -9
-4 8 1 11 4 -3 -9 -9
-4 8 1 11 4 -3 -9 -9
-4 7 1 10 4 -3 -9 -9
-4 7 1 10 4 -3 -9 -9
-5 6 1 9 3 -4 -9 -9
-4 7 1 9 3 -4 -9 -9
-3 8 1 9 3 -4 -9 -9
-2 9 1 10 3 -4 -9 -8
1 11 1 10 3 -4 -9 -8
2 12 2 11 4 -3 -8 -7
2 11 2 11 4 -3 -8 -7
1 10 2 11 4 -3 -8 -7
0 9 2 11 4 -3 -8 -8
-2 8 2 11 4 -3 -8 -8
-3 7 1 11 4 -4 -9 -9
-3 7 1 11 4 -4 -9 -9
-3 7 1 11 4 -4 -9 -9
-3 6 1 11 4 -4 -10 -9
-3 6 1 11 4 -4 -10 -9
-3 5 1 10 3 -5 -11 -10
-3 5 2 10 3 -5 -10 -9
-4 6 3 11 4 -4 -9 -8
-4 6 4 11 4 -3 -8 -7
-5 7 5 12 5 -2 -6 -6
-6 8 6 13 6 0 -5 -5
-6 8 5 13 6 0 -6 -6
-5 7 4 12 5 -2 -7 -8
-5 7 3 11 4 -3 -8 -9
-4 6 2 10 3 -4 -10 -10
-3 5 1 9 2 -5 -11 -12
-3 5 1 9 2 -5 -11 -12
-4 4 1 9 2 -5 -11 -12
-4 4 1 9 2 -5 -11 -12
-5 3 1 9 2 -5 -11 -12
-6 2 1 9 2 -6 -10 -11
-5 3 1 9 2 -6 -10 -11
-3 4 2 9 2 -5 -10 -11
-2 5 2 10 2 -5 -10 -10
0 7 3 10 2 -4 -10 -10
2 8 4 11 3 -3 -9 -9
2 8 4 11 3 -3 -9 -9
1 7 4 11 3 -3 -9 -9
1 7 4 11 3 -3 -9 -9
0 6 4 11 3 -3 -9 -9
-2 5 4 12 3 -4 -9 -9
-2 5 4 12 3 -4 -9 -9
-2 4 4 12 3 -4 -9 -9
-3 4 4 13 3 -4 -9 -9
-3 3 4 13 3 -4 -9 -9
-4 2 4 14 2 -4 -9 -8
-4 2 4 14 2 -4 -9 -8
-4 2 3 13 2 -4 -9 -8
-3 2 3 12 2 -5 -9 -8
-3 2 2 11 2 -5 -9 -8
-2 1 1 10 2 -6 -10 -9
-2 1 1 10 2 -6 -10 -9
-2 1 1 10 2 -6 -10 -9
-2 1 2 10 2 -6 -10 -9
-2 1 2 10 2 -6 -10 -9
-3 1 3 10 2 -6 -10 -10
-3 1 3 10 2 -6 -10 -10
-4 1 3 10 2 -5 -10 -10
-4 1 3 11 2 -5 -10 -10
-5 1 3 11 2 -4 -10 -10
-6 0 4 12 2 -3 -9 -9
-6 0 4 12 2 -3 -9 -9
-6 0 4 12 2 -3 -9 -9
-6 0 4 12 2 -3 -9 -9
-6 0 4 12 2 -3 -9 -9
-6 1 4 13 2 -3 -8 -8
-6 1 4 13 2 -3 -8 -8
-5 1 3 12 2 -4 -8 -8
-4 1 3 11 2 -4 -9 -8
-3 1 2 10 2 -5 -9 -8
-2 1 1 9 1 -6 -10 -9
-2 1 1 9 1 -6 -10 -9
0 1 2 10 1 -6 -10 -9
0 1 2 11 1 -5 -9 -9
1 1 3 12 1 -5 -9 -9
2 2 4 13 2 -4 -8 -9
1 2 4 13 2 -4 -8 -9
0 2 4 13 2 -4 -8 -9
-2 2 4 14 3 -3 -7 -8
-3 2 4 14 3 -3 -7 -8
-4 1 5 15 4 -2 -6 -7
-4 1 5 15 4 -2 -6 -7
-4 0 5 15 3 -3 -7 -7
-4 -2 4 14 3 -3 -7 -8
-4 -3 4 14 2 -4 -8 -8
-5 -4 3 13 1 -5 -9 -9
-5 -4 3 13 1 -5 -9 -9
-5 -4 3 13 1 -5 -9 -9
-4 -3 3 13 2 -5 -9 -9
-4 -3 3 13 2 -5 -9 -9
-3 -2 4 14 3 -4 -8 -8
-3 -2 4 14 3 -4 -8 -8
-3 -2 4 14 3 -4 -8 -8
-3 -2 4 14 3 -4 -8 -8
-3 -2 4 14 3 -4 -8 -8
-4 -2 5 14 2 -3 -8 -8
-4 -2 5 14 2 -3 -8 -8
-4 -2 5 14 2 -3 -8 -8
-4 -2 4 13 2 -4 -8 -8
-4 -2 4 13 2 -4 -8 -8
-5 -3 3 12 2 -5 -9 -9
-5 -3 3 12 2 -5 -9 -9
-5 -3 4 13 2 -5 -9 -9
-4 -3 5 14 2 -4 -8 -9
-4 -3 6 15 2 -4 -8 -9
-3 -3 7 16 3 -3 -7 -8
-3 -4 7 16 3 -3 -7 -8
-3 -5 6 16 3 -3 -7 -8
-4 -6 5 15 3 -3 -8 -8
-4 -7 4 15 3 -3 -8 -8
-5 -8 3 14 2 -4 -9 -9
-5 -7 3 14 2 -4 -9 -9
-4 -5 4 15 2 -4 -9 -9
-3 -3 4 15 3 -3 -8 -8
-2 -2 5 16 3 -3 -8 -8
0 1 6 17 4 -2 -7 -7
0 1 6 17 4 -2 -7 -7
0 0 6 17 4 -2 -7 -7
0 0 6 17 4 -2 -6 -7
0 -2 6 17 4 -2 -6 -7
1 -3 6 17 5 -2 -5 -6
1 -3 6 17 5 -2 -5 -6
0 -2 7 18 5 0 -5 -6
0 0 7 18 5 0 -5 -6
-2 1 8 19 5 1 -5 -6
-3 2 9 20 6 2 -4 -5
-3 3 9 21 7 3 -3 -4
-3 4 10 22 9 4 -2 -3
-3 5 10 23 10 5 0 -2
-3 6 11 24 11 6 1 0
-4 8 12 25 13 8 3 1
-3 8 12 25 13 8 3 1
-2 9 12 25 13 8 3 1
0 10 12 25 13 8 3 1
1 11 12 25 13 8 3 1
2 12 11 24 14 8 3 0
2 12 11 24 15 8 3 0
2 13 11 24 16 9 4 0
2 14 11 24 17 10 4 1
2 15 11 24 18 11 5 1
2 16 11 25 20 12 6 2
2 16 11 25 20 12 6 2
2 16 10 25 20 12 6 2
3 15 9 25 20 12 6 3
3 15 8 25 20 12 6 3
4 14 7 26 19 13 5 4
5 14 5 25 19 13 5 4
7 14 4 24 18 13 5 4
9 14 2 22 18 13 6 5
10 14 0 21 17 13 6 5
12 14 -3 19 16 12 7 6
12 14 -3 19 16 12 7 6
11 14 -3 19 16 12 7 6
11 14 -2 19 15 12 8 6
10 14 -2 19 15 12 8 6
9 13 0 19 14 11 9 5
9 13 0 19 14 11 9 5
9 14 0 19 13 10 9 5
10 14 0 19 13 10 8 5
10 15 0 19 12 9 8 5
11 16 -2 18 11 8 7 4
11 14 -2 18 11 8 7 4
11 12 -2 18 10 8 6 4
11 10 -2 18 10 7 5 4
11 8 -2 18 9 7 4 4
11 6 0 18 8 6 3 3
11 6 0 17 8 6 3 3
11 5 0 16 7 5 2 2
10 5 0 15 6 4 2 1
10 4 0 14 5 3 1 0
9 3 0 13 4 2 0 -2
7 2 1 13 4 2 0 -2
5 1 2 14 5 2 0 -2
3 -2 3 15 5 2 -2 -3
1 -3 4 16 6 2 -2 -3
-2 -5 5 17 7 1 -3 -4
-2 -5 5 17 7 1 -3 -4
-2 -5 5 16 6 1 -3 -5
0 -5 5 16 5 0 -3 -5
0 -5 5 15 4 0 -3 -6
1 -6 5 14 3 -2 -4 -7
1 -6 5 14 3 -2 -4 -7
1 -6 5 14 3 -3 -4 -7
0 -6 5 14 2 -3 -5 -7
0 -6 5 14 2 -4 -5 -7
-2 -7 5 13 1 -5 -6 -8
-2 -7 5 13 1 -5 -6 -8
-2 -8 5 13 1 -5 -7 -8
-2 -8 5 13 0 -5 -7 -8
-2 -9 5 13 0 -5 -8 -8
0 -10 5 12 -2 -6 -9 -9
0 -10 5 12 -2 -6 -9 -9
0 -10 5 12 -2 -6 -9 -9
-2 -10 5 12 -2 -6 -9 -9
-2 -10 5 12 -2 -6 -9 -9
-3 -11 6 12 0 -7 -10 -10
-4 -11 6 12 0 -7 -10 -10
-5 -11 6 12 0 -7 -10 -10
-6 -12 7 12 0 -7 -10 -10
-7 -12 7 12 0 -7 -10 -10
-8 -13 8 13 1 -6 -9 -10
-8 -13 8 13 1 -6 -9 -10
-8 -13 8 13 1 -6 -9 -10
-8 -13 7 13 1 -6 -9 -10
-8 -13 7 13 1 -6 -9 -10
-7 -13 6 14 0 -7 -10 -11
-6 -13 6 14 0 -7 -10 -11
-4 -13 6 14 0 -7 -10 -11
-3 -12 7 14 0 -7 -9 -11
0 -12 7 14 0 -7 -9 -11
2 -11 8 14 1 -6 -8 -10
2 -11 8 12 1 -6 -8 -10
2 -11 8 10 1 -6 -8 -10
1 -12 8 7 1 -6 -9 -10
1 -12 8 5 1 -6 -9 -10
0 -13 7 2 0 -7 -10 -11
1 -13 7 2 0 -7 -10 -11
2 -13 7 1 0 -7 -10 -11
3 -12 7 1 0 -7 -10 -11
4 -12 7 0 0 -7 -10 -11
5 -11 8 -2 0 -6 -9 -11
4 -11 8 -2 0 -6 -9 -11
2 -11 8 0 1 -6 -9 -11
1 -12 8 1 2 -6 -9 -11
-2 -12 8 2 3 -6 -9 -11
-4 -13 9 3 4 -5 -9 -11
-3 -13 9 3 4 -5 -9 -11
-2 -13 9 3 4 -5 -8 -11
0 -12 9 3 4 -5 -7 -10
1 -12 9 3 4 -5 -6 -10
3 -11 8 2 3 -4 -5 -9
3 -11 8 2 3 -4 -5 -9
3 -11 8 2 3 -4 -5 -9
3 -12 8 2 3 -4 -5 -9
3 -12 8 2 3 -4 -5 -9
2 -13 7 2 2 -4 -6 -9
2 -13 7 2 2 -4 -6 -9
2 -13 8 3 2 -4 -6 -9
3 -12 8 4 3 -3 -6 -9
3 -12 9 5 3 -3 -6 -9
4 -11 10 6 4 -2 -5 -9
4 -11 12 10 8 1 -4 -8
4 -11 14 14 12 4 -3 -7
4 -10 16 18 16 7 0 -6
4 -10 18 23 20 10 1 -5
3 -9 20 27 24 13 3 -4
9 -6 22 38 40 32 19 8
15 -2 25 50 56 51 35 19
21 2 27 60 71 70 52 31
27 6 30 71 87 89 68 43
33 10 33 82 102 108 85 54
39 19 34 89 122 136 107 70
47 28 35 95 143 163 130 87
53 36 36 101 163 191 152 103
59 46 37 107 184 219 175 118
66 55 38 112 202 245 196 135
67 65 20 76 180 241 202 143
69 75 3 40 156 237 207 152
70 85 -16 5 134 233 214 161
72 95 -34 -31 110 229 220 170
74 105 -52 -67 86 223 225 178
60 90 -69 -105 37 168 180 149
46 75 -87 -143 -12 112 136 120
30 60 -104 -180 -61 57 92 91
16 46 -120 -218 -110 2 47 62
2 30 -138 -255 -157 -52 4 33
-3 21 -134 -252 -170 -75 -18 15
-8 13 -129 -248 -181 -99 -39 -3
-13 4 -123 -245 -193 -121 -61 -20
-18 -6 -118 -242 -204 -145 -81 -38
-23 -15 -113 -238 -217 -168 -103 -56
-21 -14 -99 -208 -190 -148 -93 -51
-18 -13 -85 -178 -164 -130 -81 -46
-16 -12 -71 -147 -138 -111 -70 -40
-13 -11 -57 -116 -112 -92 -60 -35
-10 -10 -43 -86 -87 -73 -49 -29
-8 -8 -36 -73 -73 -63 -43 -26
-6 -6 -29 -60 -61 -53 -35 -22
-4 -3 -22 -47 -48 -43 -29 -19
-2 0 -15 -34 -34 -31 -22 -15
2 3 -8 -21 -21 -21 -15 -11
2 2 -6 -17 -18 -19 -14 -11
2 1 -4 -13 -15 -16 -13 -10
2 0 0 -9 -11 -14 -12 -10
2 -2 2 -5 -8 -11 -11 -9
1 -3 5 1 -4 -8 -9 -8
1 -3 6 2 -3 -7 -9 -8
1 -4 7 3 0 -6 -9 -8
2 -5 8 5 1 -5 -8 -8
2 -6 9 6 3 -4 -8 -8
3 -7 10 8 5 -3 -7 -9
3 -7 10 8 5 -3 -7 -9
3 -7 10 8 5 -3 -7 -9
2 -7 10 8 5 -3 -7 -9
2 -7 10 8 5 -3 -7 -9
1 -6 9 9 6 -3 -6 -8
1 -6 9 9 6 -3 -6 -8
1 -7 10 10 6 -3 -6 -8
1 -7 10 11 7 -3 -5 -9
1 -8 11 12 7 -3 -5 -9
2 -9 12 13 8 -3 -4 -10
2 -9 12 13 8 -3 -4 -10
2 -9 12 13 8 -3 -4 -10
2 -9 12 13 8 -2 -4 -10
2 -9 12 13 8 -2 -4 -10
3 -8 11 13 8 0 -5 -9
2 -9 11 13 8 0 -5 -9
1 -10 11 13 8 0 -6 -9
0 -12 11 13 7 -2 -7 -10
-2 -13 11 13 7 -2 -8 -10
-4 -15 10 14 6 -3 -9 -11
-3 -13 10 14 7 -2 -8 -10
0 -11 11 15 8 0 -7 -9
2 -10 11 15 8 0 -7 -8
4 -8 12 16 9 1 -6 -7
5 -6 12 16 10 2 -5 -6
6 -5 13 17 11 3 -4 -5
6 -5 13 17 11 3 -4 -5
7 -5 13 17 12 3 -4 -6
7 -5 13 17 12 3 -4 -6
7 -5 13 17 12 3 -4 -6
8 -4 14 18 13 3 -4 -7
8 -4 14 18 13 3 -4 -7
7 -4 13 18 12 3 -4 -6
7 -4 13 18 12 3 -4 -6
7 -4 13 18 12 3 -4 -6
6 -5 12 17 11 3 -4 -5
6 -5 12 17 11 3 -4 -5
5 -5 12 17 11 3 -4 -5
5 -5 12 17 11 3 -4 -5
5 -5 12 17 11 3 -4 -5
4 -6 12 18 10 3 -5 -6
5 -6 11 17 10 3 -5 -6
5 -6 11 16 10 3 -5 -6
6 -6 10 15 10 3 -5 -6
6 -6 10 15 10 3 -5 -6
7 -6 9 14 9 2 -5 -7
6 -6 9 15 10 3 -4 -6
6 -5 10 16 11 4 -3 -6
5 -5 10 17 12 5 -2 -5
5 -5 10 18 12 5 -2 -5
4 -4 11 19 13 6 0 -4
3 -4 11 19 13 6 0 -4
3 -4 11 18 13 7 1 -3
2 -4 11 18 13 7 1 -3
2 -4 11 18 13 7 1 -3
1 -4 10 17 13 8 2 -2
1 -4 9 17 13 8 2 -2
1 -4 8 17 13 8 2 -2
1 -4 7 17 13 8 2 -2
1 -4 7 17 13 8 2 -2
3 -3 6 18 14 9 2 -2
4 -2 6 18 15 10 3 0
6 -2 7 18 16 10 3 1
7 0 7 18 17 11 4 2
8 0 7 18 17 11 4 3
9 1 8 17 18 13 6 4
10 2 7 18 19 14 7 5
11 3 7 18 20 15 9 5
12 4 6 19 21 16 10 6
12 4 6 19 21 17 11 6
13 5 5 20 22 18 13 8
12 6 4 20 22 19 14 9
12 6 4 20 22 20 15 10
11 7 3 20 22 21 16 11
11 7 3 20 22 22 17 12
10 8 2 21 23 24 19 13
11 9 1 21 24 25 20 14
12 9 1 21 24 26 21 15
13 10 0 21 25 27 22 16
13 10 0 21 25 28 23 16
15 11 -2 22 26 30 25 18
16 12 -2 22 27 32 27 20
18 13 -3 22 28 34 29 22
19 14 -3 22 29 36 31 24
20 14 -3 22 30 37 32 25
21 16 -4 22 31 39 34 27
22 17 -4 22 32 40 36 28
23 18 -4 23 32 42 38 30
24 19 -4 23 33 43 40 31
24 20 -4 23 33 44 42 32
25 21 -5 24 34 46 44 33
25 22 -6 24 35 48 45 34
25 22 -7 24 35 49 47 35
25 23 -8 24 36 51 48 36
25 23 -8 24 36 52 49 37
25 24 -9 24 37 54 51 38
26 25 -10 24 38 55 52 39
26 26 -11 24 39 56 53 40
27 27 -12 24 40 57 54 42
27 27 -12 24 40 58 55 43
27 28 -13 22 42 59 56 44
26 28 -14 21 40 59 56 44
25 27 -15 20 39 59 56 44
24 27 -16 19 38 59 56 44
23 27 -16 18 38 59 56 44
24 28 -17 18 37 59 57 45
26 31 -16 19 38 60 58 46
29 34 -15 20 39 61 59 47
31 37 -14 21 40 62 60 48
33 39 -14 22 42 63 61 49
33 40 -13 22 43 64 62 50
32 39 -14 21 43 64 62 50
30 38 -14 19 42 63 61 50
29 37 -15 18 42 63 61 50
28 36 -15 17 42 63 61 50
27 35 -16 16 40 61 60 49
27 35 -15 16 40 60 59 48
27 35 -14 16 39 59 58 48
27 35 -13 16 39 58 57 47
27 35 -12 16 39 57 56 47
26 34 -11 17 38 54 53 45
25 33 -10 17 38 52 51 44
24 32 -10 16 37 50 49 43
23 31 -9 16 37 48 47 42
22 31 -9 16 37 46 45 40
21 29 -7 15 35 43 42 37
20 27 -6 15 33 40 39 34
19 26 -5 14 32 38 36 31
18 24 -4 14 30 36 33 28
17 23 -3 14 29 34 31 25
15 21 -2 13 27 31 29 23
13 19 0 12 26 29 27 21
12 18 1 12 24 27 25 20
10 16 2 11 23 25 23 18
9 15 3 11 22 23 21 17
8 13 4 10 20 20 18 14
7 12 4 9 19 18 16 12
6 10 5 9 18 16 14 10
5 9 5 8 17 13 11 8
5 8 5 8 16 11 9 6
4 6 6 7 14 9 7 4
3 5 6 6 12 7 5 3
2 3 6 5 11 5 4 2
1 2 6 4 9 3 2 1
0 1 6 3 8 2 1 0
-2 0 6 2 7 1 -2 -3
-2 -2 6 2 6 0 -3 -4
-2 -3 6 1 5 -2 -4 -5
-2 -4 6 1 4 -3 -5 -6
-2 -4 6 1 4 -4 -6 -7
-2 -5 5 0 3 -5 -7 -8
-2 -5 6 0 2 -6 -8 -8
-3 -5 6 -2 1 -7 -8 -8
-3 -5 7 -2 0 -8 -9 -8
-3 -5 7 -2 0 -8 -9 -8
-4 -6 8 -3 -2 -9 -10 -8
-5 -7 8 -3 -2 -9 -11 -8
-5 -7 7 -3 -3 -9 -12 -9
-6 -8 7 -3 -3 -9 -13 -9
-6 -8 7 -3 -3 -9 -13 -9
-7 -9 6 -3 -4 -10 -14 -10
-7 -8 6 -4 -4 -10 -14 -10
-6 -8 6 -5 -4 -11 -14 -11
-6 -7 6 -6 -4 -11 -14 -11
-6 -7 6 -6 -4 -11 -14 -11
-5 -6 7 -7 -5 -12 -14 -12
-4 -6 7 -7 -5 -13 -14 -12
-4 -7 6 -7 -6 -13 -15 -12
-3 -7 6 -7 -6 -14 -15 -12
-3 -7 6 -7 -6 -14 -15 -12
-2 -8 5 -7 -7 -15 -16 -13
-3 -9 5 -7 -7 -15 -16 -13
-4 -10 5 -8 -8 -16 -16 -13
-5 -11 5 -8 -8 -16 -16 -13
-6 -12 5 -8 -8 -16 -16 -13
-7 -13 5 -9 -9 -17 -16 -14
-7 -13 5 -9 -9 -17 -16 -14
-7 -12 6 -9 -9 -16 -16 -14
-7 -12 6 -9 -9 -16 -16 -14
-7 -12 6 -9 -9 -16 -16 -14
-7 -11 7 -9 -10 -15 -17 -15
-6 -10 7 -9 -10 -15 -17 -15
-5 -10 6 -10 -10 -16 -17 -15
-4 -9 6 -10 -10 -16 -17 -15
-4 -9 6 -10 -10 -16 -17 -15
-4 -8 5 -11 -11 -17 -16 -14
-5 -9 4 -11 -12 -18 -16 -15
-7 -10 4 -11 -12 -19 -17 -15
-8 -11 3 -11 -13 -20 -17 -16
-9 -11 3 -11 -13 -20 -17 -16
-10 -12 2 -12 -14 -21 -18 -17
-9 -12 3 -11 -13 -20 -18 -16
-8 -11 4 -10 -12 -19 -18 -15
-7 -11 5 -9 -11 -18 -18 -14
-7 -11 5 -9 -10 -17 -18 -14
-6 -10 6 -8 -9 -16 -18 -13
-6 -10 6 -8 -9 -16 -18 -13
-6 -10 6 -9 -10 -17 -18 -13
-6 -10 6 -9 -10 -17 -18 -13
-6 -10 6 -9 -10 -17 -18 -13
-6 -10 6 -10 -11 -18 -19 -14
-6 -10 6 -10 -11 -18 -19 -14
-7 -11 5 -10 -12 -18 -19 -14
-7 -11 5 -10 -12 -18 -19 -14
-7 -11 5 -10 -12 -18 -19 -14
-8 -12 4 -10 -13 -18 -19 -14
-8 -12 4 -9 -13 -18 -19 -14
-8 -11 4 -8 -12 -18 -19 -14
-8 -11 4 -7 -12 -18 -19 -14
-8 -11 4 -7 -12 -18 -19 -14
-7 -10 5 -6 -11 -17 -20 -14
-8 -10 5 -6 -11 -17 -20 -14
-9 -10 5 -6 -11 -17 -19 -14
-10 -10 5 -6 -11 -17 -19 -14
-10 -10 5 -6 -11 -17 -19 -14
-11 -10 4 -7 -12 -18 -18 -13
-10 -10 4 -7 -12 -18 -18 -13
-9 -11 4 -7 -12 -18 -18 -13
-8 -11 4 -7 -12 -18 -18 -13
-8 -11 4 -7 -12 -18 -18 -13
-7 -12 4 -6 -12 -17 -18 -13
-7 -11 4 -6 -12 -17 -18 -13
-7 -11 4 -6 -12 -17 -18 -13
-7 -10 4 -6 -12 -17 -18 -13
-7 -10 4 -6 -12 -17 -18 -13
-6 -9 5 -6 -12 -17 -18 -12
-6 -9 4 -6 -12 -17 -18 -12
-6 -10 4 -6 -12 -18 -18 -13
-6 -10 3 -6 -12 -18 -18 -13
-6 -10 3 -6 -12 -18 -18 -13
-5 -11 2 -6 -13 -19 -19 -14
-5 -11 2 -7 -13 -19 -19 -13
-5 -10 2 -8 -13 -18 -19 -13
-5 -10 2 -9 -13 -18 -19 -12
-5 -10 2 -9 -13 -18 -19 -12
-5 -9 3 -10 -13 -17 -18 -11
-6 -9 3 -10 -13 -17 -18 -11
-7 -10 3 -10 -12 -17 -18 -11
-8 -10 3 -10 -12 -17 -18 -11
-8 -10 3 -10 -12 -17 -18 -11
-9 -11 3 -10 -11 -16 -18 -11
-9 -11 3 -10 -11 -16 -18 -11
-8 -11 3 -9 -11 -16 -18 -11
-8 -11 3 -9 -11 -16 -18 -11
-8 -11 3 -9 -11 -16 -18 -11
-7 -10 2 -8 -12 -16 -17 -10
-8 -10 3 -8 -12 -16 -17 -10
-9 -10 4 -7 -11 -16 -17 -9
-10 -10 5 -7 -11 -16 -17 -9
-10 -10 5 -7 -11 -16 -17 -9
-11 -11 6 -6 -10 -15 -16 -8
-10 -11 5 -6 -10 -15 -16 -8
-9 -11 5 -7 -11 -15 -16 -8
-8 -11 4 -7 -11 -15 -16 -8
-8 -11 4 -7 -11 -15 -16 -8
-7 -11 3 -8 -12 -16 -16 -9
-8 -11 3 -8 -12 -16 -16 -9
-9 -12 3 -8 -12 -17 -17 -9
-10 -12 3 -8 -12 -17 -17 -9
-10 -12 3 -8 -12 -17 -17 -9
-11 -13 3 -8 -13 -18 -18 -10
-11 -14 3 -8 -13 -18 -18 -10
-11 -15 3 -8 -14 -18 -18 -10
-11 -16 3 -8 -14 -18 -18 -10
-11 -16 3 -8 -14 -18 -18 -10
-12 -17 2 -9 -15 -18 -19 -10
-12 -15 2 -9 -15 -18 -19 -10
-12 -14 2 -9 -14 -18 -18 -10
-12 -13 2 -9 -14 -18 -18 -10
-12 -12 2 -9 -14 -18 -18 -10
-11 -11 3 -8 -13 -18 -17 -10
-11 -11 3 -8 -13 -18 -17 -10
-11 -12 3 -8 -13 -18 -17 -10
-11 -12 3 -8 -13 -18 -17 -10
-11 -12 3 -8 -13 -18 -17 -10
-11 -13 2 -9 -14 -18 -17 -10
-11 -13 2 -9 -14 -18 -17 -10
-12 -14 2 -9 -14 -18 -17 -10
-12 -14 2 -9 -14 -18 -17 -10
-12 -14 2 -9 -14 -18 -17 -10
-13 -15 2 -9 -14 -18 -17 -10
-13 -15 2 -9 -14 -18 -17 -10
-13 -14 2 -9 -14 -18 -18 -10
-13 -14 2 -9 -14 -18 -18 -10
-13 -14 2 -9 -14 -18 -18 -10
-12 -13 2 -10 -15 -19 -19 -11
-12 -13 2 -10 -15 -19 -19 -11
-12 -13 2 -10 -15 -19 -19 -11
-12 -13 2 -10 -15 -19 -19 -11
-12 -13 2 -10 -15 -19 -19 -11
-13 -14 2 -9 -16 -19 -19 -12
-13 -14 2 -9 -16 -19 -19 -12
-13 -14 2 -9 -16 -19 -19 -12
-13 -14 2 -9 -16 -19 -19 -12
-13 -14 2 -9 -16 -19 -19 -12
-14 -14 2 -9 -15 -18 -18 -12
-14 -16 1 -10 -16 -20 -19 -12
-15 -18 1 -11 -17 -21 -19 -13
-15 -20 0 -12 -18 -22 -20 -13
-15 -22 0 -12 -19 -23 -20 -13
-16 -22 -2 -13 -20 -24 -21 -14
-14 -20 0 -12 -19 -23 -21 -14
-13 -18 0 -11 -19 -23 -20 -14
-12 -16 1 -10 -18 -22 -20 -14
-11 -14 1 -10 -18 -22 -20 -14
-10 -13 2 -9 -17 -21 -19 -13
-10 -13 2 -9 -16 -21 -19 -13
-10 -13 2 -8 -16 -20 -19 -13
-10 -13 2 -8 -15 -20 -19 -13
-10 -13 2 -8 -15 -20 -19 -13
-11 -13 3 -7 -14 -19 -19 -12
-13 -14 3 -7 -14 -19 -19 -12
-14 -14 2 -8 -15 -19 -19 -12
-15 -15 2 -8 -15 -19 -19 -12
-16 -15 2 -8 -15 -19 -19 -12
-17 -16 1 -9 -16 -20 -19 -12
-16 -16 1 -9 -16 -20 -20 -13
-16 -16 1 -9 -17 -20 -20 -14
-15 -16 1 -9 -17 -20 -21 -15
-15 -16 1 -9 -17 -20 -21 -15
-14 -17 0 -10 -18 -21 -22 -16
-14 -16 0 -10 -18 -21 -22 -16
-13 -16 0 -10 -18 -21 -21 -16
-13 -15 0 -10 -18 -21 -21 -16
-13 -15 0 -10 -18 -21 -21 -16
-12 -14 -2 -11 -18 -21 -20 -15
-12 -14 -2 -10 -17 -21 -20 -15
-12 -15 0 -10 -17 -20 -20 -15
-12 -15 0 -9 -16 -20 -20 -15
-12 -15 0 -9 -16 -20 -20 -15
-12 -16 1 -8 -15 -19 -21 -14
-13 -17 1 -9 -16 -19 -21 -14
-14 -18 0 -9 -16 -20 -21 -15
-15 -19 0 -10 -17 -20 -21 -15
-16 -19 0 -10 -17 -20 -21 -15
-17 -20 -2 -11 -18 -21 -22 -16
-18 -20 -2 -11 -17 -21 -22 -16
-18 -19 -2 -11 -17 -21 -22 -15
-19 -19 -2 -11 -16 -21 -22 -15
-19 -19 -2 -11 -16 -21 -22 -15
-20 -18 0 -10 -15 -20 -21 -14
-18 -18 0 -10 -15 -20 -21 -14
-17 -18 0 -10 -15 -20 -21 -14
-16 -18 0 -10 -15 -20 -21 -14
-15 -18 0 -10 -15 -20 -21 -14
-14 -18 0 -10 -15 -20 -21 -15
-14 -18 0 -10 -15 -20 -20 -15
-14 -18 0 -9 -15 -20 -20 -15
-14 -18 0 -9 -15 -20 -19 -15
-14 -18 0 -9 -15 -20 -19 -15
-14 -17 1 -8 -14 -19 -18 -14
-14 -17 1 -8 -14 -19 -18 -14
-14 -17 1 -9 -14 -19 -18 -14
-14 -17 1 -9 -14 -19 -18 -14
-14 -17 1 -9 -14 -19 -18 -14
-15 -18 0 -10 -15 -20 -19 -14
-15 -18 0 -10 -15 -20 -19 -14
-15 -18 0 -10 -15 -20 -19 -15
-15 -18 0 -10 -15 -20 -19 -15
-15 -18 0 -10 -15 -20 -19 -15
-15 -18 1 -10 -15 -19 -20 -16
-15 -17 1 -10 -15 -19 -20 -15
-15 -16 1 -10 -14 -19 -20 -15
-15 -15 1 -10 -14 -19 -20 -14
-15 -14 1 -10 -14 -19 -20 -14
-14 -14 0 -9 -13 -19 -19 -13
-14 -16 0 -9 -13 -19 -19 -13
-15 -18 0 -9 -13 -19 -19 -14
-15 -20 0 -9 -13 -19 -19 -14
-15 -22 0 -9 -13 -19 -19 -14
-16 -23 1 -10 -14 -18 -20 -15
-16 -22 1 -10 -14 -18 -20 -15
-16 -21 1 -10 -14 -18 -20 -15
-16 -20 1 -10 -14 -18 -20 -15
-16 -19 1 -10 -14 -18 -20 -15
-17 -18 0 -10 -14 -19 -20 -15
-17 -18 0 -10 -14 -19 -20 -16
-17 -18 0 -11 -14 -20 -21 -16
-17 -18 0 -11 -14 -20 -21 -17
-17 -18 0 -11 -14 -20 -21 -17
-17 -17 -2 -12 -15 -21 -22 -18
-17 -17 -2 -12 -15 -20 -21 -17
-17 -17 0 -11 -14 -20 -21 -17
-17 -17 0 -11 -14 -19 -20 -16
-17 -17 0 -11 -14 -19 -20 -16
-17 -17 1 -10 -13 -18 -19 -15
-17 -18 1 -10 -13 -18 -19 -15
-17 -18 1 -10 -13 -18 -19 -15
-17 -19 1 -10 -13 -18 -19 -15
-17 -19 1 -10 -13 -18 -19 -15
-18 -20 2 -10 -13 -17 -20 -16
-18 -20 2 -10 -13 -17 -20 -16
-18 -20 1 -10 -12 -17 -20 -16
-18 -20 1 -10 -12 -17 -20 -16
-18 -20 1 -10 -12 -17 -20 -16
-19 -19 0 -9 -11 -17 -20 -15
-20 -20 0 -9 -11 -17 -20 -15
-20 -20 0 -9 -12 -17 -20 -15
-21 -21 0 -9 -12 -17 -20 -15
-21 -21 0 -9 -12 -17 -20 -15
-22 -22 1 -10 -13 -18 -21 -16
-21 -22 1 -10 -13 -18 -21 -16
-20 -22 0 -10 -13 -18 -20 -16
-20 -22 0 -10 -13 -18 -20 -16
-19 -22 0 -10 -13 -18 -20 -16
-18 -21 -2 -11 -13 -18 -19 -16
-18 -20 -2 -11 -13 -18 -19 -16
-18 -20 -2 -10 -13 -18 -19 -15
-18 -19 -2 -10 -13 -18 -19 -15
-18 -19 -2 -10 -13 -18 -19 -15
-18 -18 0 -9 -12 -17 -20 -14
-18 -18 0 -10 -12 -17 -20 -15
-18 -19 -2 -10 -13 -17 -20 -15
-18 -19 -2 -11 -13 -17 -20 -16
-18 -19 -2 -11 -13 -17 -20 -16
-18 -20 -2 -11 -13 -17 -20 -16
-19 -18 1 -9 -11 -14 -18 -14
-19 -17 3 -7 -9 -12 -16 -12
-20 -15 5 -5 -6 -10 -14 -9
-20 -14 7 -3 -4 -7 -12 -7
-21 -13 8 -2 -3 -6 -11 -6
-19 -12 8 -2 -3 -7 -11 -6
-18 -11 8 -3 -3 -7 -11 -6
-17 -10 8 -3 -3 -8 -11 -6
-16 -9 8 -3 -3 -8 -11 -6
-15 -8 7 -4 -4 -9 -12 -7
-16 -7 7 -3 -2 -7 -11 -7
-16 -6 7 -2 0 -6 -10 -7
-17 -6 7 0 2 -4 -10 -7
-17 -5 7 1 3 -3 -9 -7
-18 -4 7 2 4 -2 -8 -6
-18 -4 6 2 4 -2 -8 -6
-17 -4 5 2 3 -3 -8 -6
-17 -4 4 2 3 -3 -8 -6
-17 -4 3 2 3 -3 -8 -6
-16 -4 2 1 2 -4 -9 -6
-14 -4 0 0 2 -4 -9 -5
-13 -4 -2 0 2 -4 -8 -4
-12 -4 -4 -2 2 -4 -8 -4
-11 -4 -5 -2 2 -4 -8 -3
-10 -3 -6 -3 2 -3 -7 -2
-9 -2 -6 -4 2 -3 -7 -2
-8 0 -7 -5 1 -4 -7 -2
-8 1 -7 -6 1 -4 -7 -2
-7 2 -7 -7 1 -4 -7 -2
-6 3 -8 -8 0 -5 -7 -3
-6 3 -8 -8 0 -5 -6 -3
-5 3 -7 -7 0 -4 -5 -2
-4 3 -6 -7 0 -4 -5 0
-4 3 -6 -7 0 -4 -4 0
-3 2 -5 -6 0 -3 -3 1
-3 1 -5 -6 -2 -3 -3 1
-3 -2 -6 -6 -3 -4 -4 0
-3 -4 -6 -6 -3 -5 -5 0
-3 -6 -6 -6 -4 -5 -5 0
-4 -7 -7 -7 -5 -6 -6 -2
-4 -8 -7 -8 -6 -7 -7 -3
-4 -9 -7 -9 -7 -8 -9 -4
-4 -9 -7 -9 -7 -9 -10 -4
-4 -10 -7 -10 -8 -10 -11 -5
-4 -11 -7 -11 -9 -11 -12 -6
-5 -10 -6 -11 -9 -11 -12 -6
-7 -8 -5 -10 -9 -11 -12 -6
-8 -7 -5 -9 -9 -11 -12 -6
-9 -6 -4 -9 -9 -11 -12 -6
-10 -6 -3 -8 -8 -11 -13 -7
-11 -7 -3 -8 -8 -11 -14 -8
-12 -9 -2 -8 -9 -12 -15 -9
-13 -11 0 -8 -10 -13 -15 -10
-14 -13 0 -8 -10 -13 -16 -11
-15 -14 1 -9 -11 -14 -17 -12
-14 -14 1 -9 -11 -14 -17 -12
-13 -13 1 -9 -12 -14 -17 -12
-13 -12 1 -9 -12 -14 -17 -12
-12 -12 1 -9 -12 -14 -17 -12
-11 -11 0 -10 -13 -15 -18 -12
-11 -10 0 -10 -13 -15 -18 -12
-10 -9 1 -10 -13 -14 -18 -11
-9 -9 1 -10 -13 -14 -18 -11
-9 -8 1 -10 -13 -14 -18 -11
-8 -7 2 -9 -12 -13 -17 -10
-8 -8 2 -9 -12 -14 -17 -11
-9 -10 1 -10 -13 -15 -18 -12
-10 -11 1 -10 -14 -16 -19 -12
-10 -12 1 -10 -14 -17 -19 -13
-11 -13 0 -11 -15 -18 -20 -14
-11 -13 0 -11 -15 -18 -20 -14
-10 -13 1 -11 -14 -18 -20 -14
-9 -13 1 -11 -14 -18 -20 -14
-9 -13 1 -11 -14 -18 -20 -14
-8 -12 2 -11 -13 -17 -19 -13
-9 -12 2 -11 -13 -17 -19 -13
-11 -13 2 -11 -14 -17 -19 -14
-12 -13 2 -11 -14 -17 -19 -14
-13 -13 2 -11 -14 -17 -19 -14
-13 -14 1 -12 -15 -18 -19 -15
-11 -13 1 -12 -15 -18 -19 -14
-9 -12 2 -11 -14 -17 -19 -13
-7 -11 2 -10 -14 -17 -19 -13
-5 -10 2 -10 -14 -17 -19 -12
-4 -9 3 -9 -13 -16 -18 -11
-6 -9 3 -9 -13 -16 -18 -11
-8 -10 3 -10 -13 -16 -18 -11
-9 -10 3 -10 -13 -16 -18 -11
-11 -10 3 -10 -13 -16 -18 -11
-12 -11 2 -11 -13 -15 -17 -11
-12 -11 2 -11 -13 -15 -17 -11
-12 -12 2 -11 -13 -16 -18 -12
-12 -13 2 -11 -13 -16 -18 -12
-12 -13 2 -11 -13 -16 -18 -12
-12 -14 2 -10 -14 -17 -19 -13
-11 -13 2 -10 -13 -17 -19 -13
-10 -12 3 -10 -12 -16 -18 -12
-9 -11 3 -10 -12 -15 -17 -11
-8 -10 3 -10 -11 -15 -17 -11
-7 -9 4 -9 -10 -14 -16 -10
-8 -10 4 -9 -11 -15 -16 -11
-10 -12 3 -10 -12 -16 -17 -12
-11 -13 2 -10 -12 -16 -18 -12
-12 -14 2 -10 -13 -17 -18 -13
-13 -15 1 -11 -14 -18 -19 -14
-12 -14 1 -11 -14 -17 -19 -13
-10 -13 2 -10 -13 -16 -18 -12
-9 -12 3 -9 -12 -16 -18 -12
-8 -11 3 -9 -12 -15 -18 -11
-7 -10 4 -8 -11 -14 -17 -10
-7 -10 4 -8 -11 -14 -17 -10
-7 -11 4 -8 -11 -14 -17 -10
-7 -11 4 -8 -11 -14 -17 -10
-7 -11 4 -8 -11 -14 -17 -10
-8 -12 4 -7 -11 -15 -17 -11
-8 -12 5 -5 -9 -14 -16 -11
-8 -12 6 -3 -7 -12 -15 -10
-8 -12 7 0 -6 -11 -15 -10
-8 -12 8 2 -4 -10 -14 -10
-7 -11 10 8 5 0 -9 -6
-3 -9 13 18 17 13 1 1
1 -7 15 28 29 27 9 7
4 -6 18 38 42 42 17 13
7 -4 20 49 54 56 25 19
14 2 24 61 72 77 44 32
23 10 28 74 95 105 68 50
32 18 31 89 117 132 94 68
42 26 35 102 141 159 119 87
52 34 39 115 163 186 144 104
58 46 35 107 170 201 164 120
62 58 23 82 160 209 181 136
65 71 12 57 151 216 197 150
69 85 1 31 143 222 214 165
73 97 -12 7 134 229 230 180
68 98 -26 -27 103 205 215 174
55 88 -45 -68 57 158 176 149
42 77 -62 -109 10 111 137 125
28 67 -79 -150 -37 63 97 100
15 58 -97 -191 -83 16 58 76
4 47 -106 -215 -119 -24 24 53
-7 36 -110 -226 -147 -58 -5 30
-17 25 -113 -237 -174 -92 -33 7
-26 15 -116 -248 -201 -127 -61 -16
-36 4 -119 -260 -229 -160 -90 -38
-40 -2 -115 -251 -229 -169 -100 -49
-37 -3 -103 -223 -207 -155 -95 -49
-34 -5 -91 -196 -185 -143 -89 -48
-32 -6 -78 -170 -162 -130 -83 -47
-29 -7 -67 -143 -141 -116 -77 -47
-26 -8 -57 -121 -121 -103 -70 -43
-24 -8 -48 -103 -104 -89 -63 -36
-22 -7 -39 -86 -87 -75 -56 -30
-20 -7 -31 -68 -70 -61 -49 -23
-18 -7 -22 -50 -53 -47 -41 -17
-15 -6 -16 -38 -41 -38 -36 -14
-12 -5 -13 -32 -35 -33 -35 -12
-8 -4 -9 -26 -29 -28 -33 -10
-5 -4 -5 -19 -23 -23 -31 -9
0 -3 0 -13 -17 -18 -29 -7
2 -2 2 -9 -14 -15 -28 -6
2 -2 2 -7 -12 -14 -29 -6
2 -2 3 -5 -10 -13 -30 -6
2 -2 4 -3 -9 -13 -30 -6
2 -2 4 1 -7 -12 -31 -6
1 -3 5 2 -6 -11 -32 -5
0 -4 5 2 -6 -11 -34 -5
-2 -5 5 3 -5 -10 -36 -5
-3 -6 5 3 -5 -10 -37 -5
-4 -7 5 3 -5 -10 -39 -5
-5 -8 6 4 -4 -9 -40 -5
-4 -8 6 5 -4 -9 -41 -5
-2 -7 7 6 -4 -9 -43 -6
0 -6 8 7 -4 -9 -43 -6
1 -6 8 8 -4 -9 -44 -6
2 -5 9 9 -4 -8 -45 -7
1 -5 9 9 -4 -8 -45 -7
0 -5 9 9 -3 -7 -45 -7
0 -5 9 9 -2 -6 -45 -7
-2 -5 9 9 -2 -6 -45 -7
-3 -6 9 9 0 -5 -46 -6
-2 -6 9 9 0 -5 -46 -6
0 -7 9 10 0 -6 -47 -6
0 -7 9 10 0 -7 -48 -6
1 -7 9 10 0 -7 -48 -6
2 -8 8 11 -2 -8 -49 -6
1 -8 8 11 -2 -8 -49 -6
0 -7 8 11 0 -7 -49 -5
0 -7 8 11 1 -7 -49 -5
-2 -7 8 11 1 -7 -49 -5
-3 -6 9 11 2 -6 -49 -4
-3 -7 9 11 2 -6 -49 -4
-4 -8 9 12 1 -6 -50 -5
-4 -8 9 13 1 -6 -50 -6
-4 -9 9 13 1 -6 -50 -6
-5 -10 10 14 0 -7 -51 -7
-4 -10 10 14 0 -7 -50 -7
-3 -10 9 13 0 -6 -49 -6
-2 -10 9 13 0 -6 -49 -5
0 -10 9 13 0 -6 -48 -5
1 -10 8 12 0 -5 -47 -4
1 -9 8 12 0 -5 -47 -4
2 -7 8 13 1 -5 -47 -4
2 -6 8 14 2 -5 -47 -4
2 -5 8 14 2 -5 -47 -4
3 -4 7 15 3 -5 -46 -3
3 -4 7 15 3 -4 -46 -3
3 -4 8 15 3 -3 -45 -2
3 -4 8 15 3 -2 -44 -2
3 -4 8 15 3 0 -44 -2
3 -4 9 15 4 1 -43 0
2 -4 9 15 4 1 -43 0
0 -5 9 16 4 1 -43 0
-2 -5 9 17 4 1 -43 0
-3 -5 9 17 4 1 -43 0
-4 -6 8 18 4 0 -41 1
-4 -6 7 17 4 0 -41 1
-3 -6 6 16 4 1 -41 1
-2 -6 6 16 4 2 -41 1
-2 -6 5 15 4 2 -41 1
0 -6 4 14 5 3 -40 1
1 -6 4 15 5 3 -40 1
2 -5 4 16 5 4 -41 0
2 -4 4 16 5 5 -43 0
3 -4 4 17 5 5 -43 0
4 -3 5 18 6 6 -43 0
4 -3 5 18 7 7 -40 2
4 -2 5 18 8 9 -37 4
4 0 5 18 8 10 -34 6
4 0 5 18 9 11 -32 8
5 1 4 18 10 12 -30 10
5 1 4 19 10 12 -30 10
5 1 3 20 10 12 -30 10
5 1 2 21 11 12 -30 11
5 1 2 22 11 12 -30 11
5 0 1 23 12 13 -29 12
5 2 1 23 12 14 -28 13
5 3 1 24 13 15 -27 14
5 4 1 25 14 17 -25 15
5 6 1 25 14 18 -24 16
6 7 2 26 15 19 -23 17
8 7 1 27 15 20 -22 18
10 8 1 27 15 20 -21 19
12 9 0 28 15 21 -19 21
14 9 -2 29 15 22 -18 22
15 10 -3 30 16 24 -16 23
16 12 -4 30 17 26 -14 25
17 13 -4 30 17 28 -12 27
18 14 -5 31 18 31 -9 29
19 16 -6 31 19 33 -7 31
20 17 -7 32 20 35 -5 32
20 17 -7 32 21 36 -4 33
20 17 -8 32 21 37 -3 33
20 17 -9 32 22 38 0 34
20 17 -9 32 23 39 1 35
19 18 -10 32 24 40 3 37
20 20 -11 32 24 43 5 39
21 21 -12 32 25 45 8 42
23 22 -14 32 26 47 11 45
24 24 -15 32 26 49 13 47
25 25 -16 32 27 50 15 49
25 25 -16 32 28 52 17 50
26 26 -16 32 29 53 18 51
27 27 -16 32 30 54 19 52
27 27 -16 32 31 56 21 53
28 28 -16 33 32 57 22 54
28 28 -17 33 32 57 22 54
28 28 -18 33 32 57 23 54
29 28 -20 32 31 57 24 55
29 28 -21 32 31 57 24 55
30 29 -22 31 30 58 25 56
30 29 -22 31 30 58 25 56
30 30 -21 31 30 58 25 56
31 31 -20 31 31 59 25 57
31 31 -20 31 31 59 25 57
32 32 -19 32 32 60 24 58
32 32 -19 32 32 60 25 58
31 32 -19 32 32 60 26 58
30 32 -19 32 32 61 28 59
30 32 -19 32 32 61 29 59
29 32 -19 31 33 62 30 60
29 32 -19 31 33 61 30 59
29 32 -19 31 33 61 29 58
29 32 -18 31 33 60 28 56
29 32 -18 31 33 59 28 55
28 33 -17 30 32 58 27 54
26 32 -16 30 32 56 25 52
25 32 -16 30 32 55 23 51
23 31 -15 29 31 53 21 50
21 30 -14 29 31 51 19 48
19 29 -13 28 30 49 17 47
17 26 -11 28 29 47 15 45
15 24 -9 28 28 45 13 44
12 22 -7 28 27 42 10 43
10 20 -5 28 26 39 8 40
8 18 -4 27 25 37 5 38
8 18 -4 27 25 35 3 36
8 17 -4 27 24 33 0 33
8 16 -3 26 23 31 -3 31
8 16 -3 26 23 29 -6 28
9 15 -2 25 22 26 -9 25
8 13 0 25 20 24 -11 23
8 11 0 25 19 22 -14 20
7 9 1 25 17 19 -16 18
6 7 2 25 15 17 -19 15
5 5 3 24 14 15 -21 13
4 5 3 23 13 13 -22 12
3 5 3 22 12 12 -22 12
1 4 3 21 10 11 -23 11
0 4 3 20 9 9 -24 10
-2 3 3 19 8 8 -25 9
-2 3 3 19 8 7 -27 8
-2 3 3 19 7 6 -28 7
-2 2 4 18 6 4 -29 6
-2 2 4 18 6 3 -31 5
-2 1 5 17 5 2 -32 4
-2 0 5 17 4 1 -33 3
-3 -2 5 17 3 0 -34 2
-4 -3 5 16 2 -2 -36 1
-4 -4 5 16 1 -3 -37 0
-5 -5 5 15 0 -4 -38 -2
-5 -5 5 15 0 -4 -38 -2
-5 -5 5 15 0 -4 -38 -2
-5 -5 5 15 0 -5 -38 -2
-5 -5 5 15 0 -5 -38 -2
-5 -6 5 16 -2 -6 -37 -2
-5 -6 5 16 -2 -6 -37 -2
-5 -6 5 16 -2 -6 -37 -2
-5 -6 6 16 -2 -6 -37 -2
-5 -6 6 16 -2 -6 -37 -2
-6 -7 7 15 0 -5 -36 -2
-6 -7 7 14 0 -6 -37 -3
-6 -7 6 14 0 -6 -37 -3
-5 -6 5 13 -2 -7 -38 -4
-5 -6 5 12 -2 -8 -39 -5
-4 -5 4 11 -3 -9 -40 -6
-4 -5 4 11 -3 -9 -40 -6
-4 -5 4 11 -3 -9 -40 -6
-3 -5 4 11 -3 -9 -39 -6
-3 -5 4 11 -3 -9 -39 -6
-2 -6 5 12 -3 -8 -38 -5
-2 -7 5 12 -3 -8 -38 -5
-3 -8 5 12 -3 -8 -38 -5
-4 -9 5 12 -4 -9 -39 -5
-4 -10 5 12 -4 -9 -39 -5
-5 -11 6 13 -5 -10 -40 -6
-5 -11 6 13 -5 -10 -40 -6
-5 -11 6 13 -5 -10 -40 -6
-5 -11 6 13 -5 -9 -39 -6
-5 -11 6 13 -5 -9 -39 -6
-4 -10 5 12 -4 -8 -38 -5
-4 -10 5 12 -4 -8 -38 -5
-4 -10 5 12 -4 -8 -38 -5
-4 -10 5 12 -4 -8 -38 -6
-4 -10 5 12 -4 -8 -38 -6
-4 -9 6 13 -4 -9 -39 -7
-4 -9 6 13 -4 -9 -39 -7
-4 -9 6 12 -5 -9 -39 -7
-5 -9 5 11 -6 -9 -39 -7
-5 -9 5 11 -6 -9 -39 -7
-6 -10 4 10 -7 -10 -38 -6
-6 -10 4 10 -7 -10 -38 -6
-6 -10 4 10 -6 -10 -38 -7
-6 -10 5 11 -5 -10 -38 -8
-6 -10 5 11 -5 -10 -38 -8
-6 -9 6 12 -4 -11 -38 -9
-6 -9 6 12 -4 -11 -38 -8
-6 -9 6 12 -4 -11 -37 -7
-6 -9 6 12 -4 -10 -36 -5
-6 -9 6 12 -4 -10 -36 -4
-7 -9 7 12 -4 -9 -35 -3
-7 -9 7 12 -4 -9 -35 -4
-7 -9 7 12 -4 -9 -35 -4
-6 -9 7 12 -4 -9 -36 -5
-6 -9 7 12 -4 -9 -36 -6
-5 -9 6 13 -4 -10 -37 -7
-5 -9 6 13 -4 -10 -37 -7
-5 -9 6 13 -4 -10 -37 -6
-5 -9 6 12 -4 -10 -37 -5
-5 -9 6 12 -4 -10 -37 -5
-4 -9 5 11 -4 -9 -36 -4
-4 -9 5 12 -4 -9 -36 -4
-4 -9 5 12 -3 -9 -35 -4
-4 -8 6 13 -2 -8 -34 -3
-4 -8 6 14 -2 -8 -34 -3
-4 -7 7 15 0 -7 -33 -2
-4 -7 7 15 0 -7 -33 -2
-5 -7 7 15 0 -7 -33 -2
-6 -8 7 14 0 -7 -32 -2
-6 -8 7 14 0 -7 -32 -2
-7 -9 6 13 0 -6 -31 -2
-6 -8 6 13 0 -5 -31 -2
-5 -7 6 13 0 -5 -31 -2
-3 -6 5 14 0 -4 -30 -2
-2 -5 5 14 0 -3 -30 -2
0 -4 4 15 -2 -2 -29 -2
0 -4 4 14 -2 -2 -29 -2
0 -4 4 13 -2 -3 -29 -2
0 -5 5 12 0 -4 -29 0
0 -5 5 11 0 -4 -29 0
1 -6 6 10 1 -5 -28 1
0 -6 6 10 1 -5 -28 1
0 -6 6 11 1 -5 -28 1
-2 -6 6 12 1 -5 -28 0
-3 -6 6 12 1 -5 -28 0
-4 -7 5 13 2 -6 -27 -2
-4 -7 5 13 2 -6 -27 -2
-4 -7 5 13 2 -6 -27 -2
-3 -6 5 12 2 -5 -27 0
-3 -6 5 12 2 -5 -27 0
-2 -5 4 11 2 -4 -26 1
-2 -5 4 11 2 -4 -26 1
-2 -5 4 11 2 -4 -25 1
-2 -5 5 11 2 -4 -24 2
-2 -5 5 11 2 -4 -24 2
0 -6 6 12 3 -3 -23 3
0 -6 6 12 3 -3 -23 3
0 -6 6 12 3 -3 -23 3
0 -6 6 12 2 -3 -23 4
0 -6 6 12 2 -3 -23 4
0 -7 6 11 1 -2 -22 5
0 -7 6 11 1 -2 -22 4
0 -8 6 11 1 -3 -23 3
1 -9 6 11 1 -4 -24 2
1 -9 6 11 1 -4 -24 1
2 -10 5 10 1 -5 -25 0
0 -10 5 10 1 -5 -25 0
-3 -10 4 10 1 -5 -25 0
-5 -10 3 10 0 -5 -24 0
-6 -10 3 10 0 -5 -24 0
-8 -11 2 10 -2 -5 -23 1
-6 -10 2 10 -2 -5 -23 1
-4 -9 3 10 0 -5 -23 1
-2 -8 4 11 1 -5 -23 1
1 -7 4 11 1 -5 -23 1
3 -6 5 12 2 -5 -23 1
3 -7 5 12 2 -5 -23 1
2 -7 5 11 1 -5 -23 1
1 -8 5 10 0 -5 -22 2
1 -9 5 10 0 -5 -22 2
0 -10 4 9 -2 -6 -21 3
-2 -10 4 9 -2 -6 -21 3
-3 -10 4 9 -2 -6 -21 2
-4 -11 4 9 -2 -7 -22 2
-6 -11 4 9 -2 -7 -22 1
-7 -12 5 8 -2 -8 -23 0
-7 -12 5 8 -2 -8 -23 0
-7 -12 5 8 -2 -8 -23 0
-7 -11 5 8 -2 -8 -23 0
-7 -11 5 8 -2 -8 -23 0
-6 -10 5 8 -2 -7 -22 0
-6 -10 5 8 -2 -7 -22 0
-6 -10 5 8 -2 -7 -22 0
-5 -10 5 8 -3 -8 -22 -2
-5 -10 5 8 -3 -8 -22 -2
-4 -11 5 8 -4 -9 -23 -3
-5 -11 5 8 -4 -9 -23 -3
-5 -12 5 8 -4 -9 -23 -3
-6 -12 5 7 -4 -9 -23 -3
-7 -13 5 7 -4 -9 -23 -3
-8 -14 5 6 -5 -9 -22 -3
-8 -14 5 6 -5 -9 -22 -3
-7 -14 5 6 -5 -9 -22 -3
-7 -13 5 6 -5 -10 -22 -4
-6 -13 5 6 -5 -10 -22 -4
-5 -12 5 6 -6 -11 -23 -5
-4 -11 5 6 -6 -11 -23 -5
-4 -11 5 6 -6 -11 -23 -5
-3 -10 5 6 -5 -10 -23 -4
-2 -9 5 6 -5 -10 -23 -4
0 -8 5 6 -4 -9 -23 -3
-2 -9 5 6 -4 -9 -23 -3
-3 -11 5 6 -4 -9 -22 -3
-4 -12 5 6 -4 -10 -22 -3
-6 -14 5 6 -4 -10 -21 -3
-7 -15 5 6 -5 -11 -20 -4
-7 -15 5 6 -5 -11 -20 -4
-7 -15 5 6 -5 -11 -20 -4
-6 -15 5 6 -5 -11 -20 -4
-6 -15 5 6 -5 -11 -20 -4
-5 -14 4 5 -4 -12 -21 -3
-5 -14 4 5 -4 -12 -21 -3
-5 -13 4 5 -4 -12 -21 -4
-5 -13 4 5 -4 -12 -21 -4
-5 -12 4 5 -4 -12 -21 -5
-5 -11 5 6 -4 -12 -21 -6
-5 -11 5 6 -4 -12 -21 -6
-5 -11 5 6 -4 -12 -21 -6
-5 -11 5 6 -4 -12 -21 -5
-5 -11 5 6 -4 -12 -21 -5
-5 -12 4 5 -4 -12 -22 -4
-5 -12 4 5 -4 -12 -22 -4
-5 -12 4 5 -4 -12 -21 -4
-5 -13 4 5 -4 -12 -21 -4
-5 -13 4 5 -4 -12 -20 -4
-6 -14 5 4 -4 -11 -19 -4
-6 -13 5 5 -4 -11 -19 -4
-7 -13 6 5 -3 -10 -19 -4
-7 -12 6 6 -3 -10 -18 -3
-8 -11 7 7 -2 -9 -18 -3
-9 -10 8 8 0 -8 -17 -2
-9 -10 8 8 0 -8 -17 -2
-8 -10 8 8 0 -9 -17 -2
-8 -10 7 7 -2 -9 -17 -2
-7 -10 7 7 -2 -10 -17 -2
-6 -11 6 6 -3 -11 -17 -2
-6 -11 6 6 -3 -11 -17 -2
-6 -12 6 6 -3 -11 -17 -2
-6 -12 6 6 -3 -11 -17 -3
-6 -13 6 6 -3 -11 -17 -3
-7 -14 5 5 -4 -11 -16 -4
-7 -14 5 5 -4 -11 -16 -4
-7 -14 5 5 -4 -11 -16 -4
-8 -14 5 5 -4 -12 -16 -4
-8 -14 5 5 -4 -12 -16 -4
-9 -13 5 6 -3 -13 -17 -3
-9 -13 5 6 -3 -13 -17 -3
-9 -13 5 6 -3 -13 -17 -3
-8 -13 5 5 -4 -13 -16 -3
-8 -13 5 5 -4 -13 -16 -3
-7 -14 5 4 -5 -13 -15 -3
-7 -14 5 4 -5 -13 -15 -3
-7 -14 5 4 -5 -13 -15 -3
-7 -14 5 5 -5 -13 -15 -3
-7 -14 5 5 -5 -13 -15 -3
-7 -14 6 6 -4 -13 -15 -3
-7 -14 6 6 -4 -13 -15 -3
-7 -14 6 5 -4 -13 -15 -3
-8 -15 6 5 -5 -13 -15 -3
-8 -15 6 4 -5 -13 -15 -3
-9 -16 5 3 -6 -13 -15 -4
-9 -15 5 3 -6 -13 -15 -4
-8 -15 5 3 -6 -13 -15 -4
-8 -14 5 3 -6 -13 -15 -5
-7 -13 5 3 -6 -13 -15 -5
-6 -12 5 3 -6 -14 -15 -6
-6 -12 5 3 -6 -13 -14 -5
-6 -12 5 4 -5 -13 -13 -4
-7 -12 6 4 -5 -12 -12 -3
-7 -12 6 5 -4 -11 -11 -2
-8 -12 7 6 -3 -10 -10 0
-8 -12 7 6 -3 -10 -10 0
-8 -12 7 6 -3 -10 -10 -2
-8 -13 7 5 -4 -11 -10 -2
-8 -13 7 5 -4 -11 -10 -3
-9 -14 6 4 -5 -12 -11 -4
-9 -14 6 4 -5 -11 -11 -4
-9 -13 6 4 -4 -10 -10 -4
-9 -13 7 5 -4 -9 -10 -3
-9 -12 7 5 -3 -8 -9 -3
-9 -11 8 6 -2 -7 -8 -2
-9 -11 8 6 0 -7 -8 -2
-9 -10 9 7 1 -7 -7 0
-9 -9 10 8 2 -7 -6 0
-9 -8 11 9 4 -7 -5 1
-8 -7 12 10 5 -6 -4 2
-8 -7 12 10 5 -6 -4 2
-8 -6 12 10 5 -6 -4 2
-8 -5 11 10 6 -6 -4 2
-8 -4 11 10 6 -6 -4 2
-7 -3 10 10 7 -5 -4 2
-7 -2 10 10 7 -4 -3 2
-7 0 10 10 8 -3 -2 3
-7 1 10 10 9 -2 0 4
-7 2 10 10 10 0 1 5
-7 3 9 11 11 1 2 6
-7 3 8 10 11 1 2 6
-7 3 7 9 11 1 3 6
-7 3 6 8 10 1 3 6
-7 3 5 7 10 1 4 6
-7 2 4 6 9 1 5 6
-5 2 3 6 9 1 5 6
-3 3 2 6 9 1 5 6
-2 4 1 5 8 0 4 6
1 5 0 5 8 0 4 6
3 6 -2 4 7 -2 3 5
2 5 -2 4 7 -2 3 5
0 3 -2 4 6 -2 3 5
-3 2 -2 4 6 -3 4 5
-4 1 -2 4 5 -3 4 5
-6 -2 -2 3 4 -4 5 6
-5 -2 -2 3 4 -4 5 6
-4 -2 -2 3 4 -4 5 5
-3 -2 -2 3 4 -4 5 5
0 -2 -2 3 4 -4 5 4
1 -3 -2 4 3 -5 4 3
1 -3 -2 4 3 -5 4 3
1 -4 -2 4 2 -5 4 3
0 -4 0 3 2 -5 4 3
0 -5 0 3 1 -5 4 3
-2 -6 1 2 0 -6 4 2
-2 -6 1 2 -2 -7 3 2
-3 -7 1 1 -3 -8 2 1
-3 -7 1 1 -4 -9 1 1
-4 -8 1 0 -6 -11 -2 0
-5 -9 0 -2 -7 -12 -3 -2
-6 -11 0 -2 -7 -12 -3 -3
-7 -13 1 -2 -7 -12 -3 -5
-8 -15 1 -3 -8 -13 -4 -6
-10 -17 2 -3 -8 -13 -4 -7
-11 -19 3 -4 -9 -14 -5 -9
-11 -19 3 -4 -9 -14 -5 -9
-11 -19 3 -4 -9 -14 -5 -9
-12 -19 3 -4 -10 -15 -6 -10
-12 -19 3 -4 -10 -15 -6 -10
-13 -20 4 -5 -11 -16 -7 -11
-13 -20 4 -5 -11 -16 -7 -11
-13 -20 4 -5 -12 -17 -7 -11
-13 -21 3 -6 -13 -17 -7 -12
-13 -21 3 -6 -14 -18 -7 -12
-12 -22 2 -7 -15 -19 -8 -13
-12 -22 2 -7 -15 -19 -8 -13
-12 -22 2 -7 -15 -19 -8 -13
-12 -23 3 -7 -15 -19 -9 -14
-12 -23 3 -7 -15 -19 -9 -14
-13 -24 4 -6 -15 -20 -10 -15
-13 -24 4 -6 -15 -20 -10 -15
-14 -25 4 -7 -15 -20 -10 -16
-15 -26 4 -7 -15 -21 -10 -16
-16 -27 4 -8 -15 -21 -10 -17
-17 -28 3 -9 -16 -22 -10 -18
-16 -27 3 -9 -16 -22 -10 -18
-15 -26 4 -8 -16 -22 -10 -18
-14 -25 4 -8 -16 -21 -9 -17
-12 -23 5 -7 -16 -21 -9 -17
-11 -22 6 -6 -15 -20 -8 -16
-11 -22 6 -6 -15 -20 -8 -16
-11 -22 6 -6 -15 -20 -8 -16
-11 -22 5 -7 -15 -20 -8 -16
-11 -22 5 -7 -15 -20 -8 -16
-11 -22 4 -8 -16 -19 -7 -16
-11 -22 4 -8 -16 -19 -7 -16
-12 -22 4 -8 -16 -20 -7 -16
-13 -22 4 -7 -16 -20 -7 -16
-14 -22 4 -7 -16 -21 -7 -16
-15 -23 5 -6 -17 -22 -8 -17
-15 -23 5 -6 -17 -22 -8 -17
-15 -24 5 -6 -17 -22 -8 -17
-15 -25 5 -7 -17 -22 -7 -17
-15 -26 5 -7 -17 -22 -7 -17
-16 -27 5 -8 -16 -21 -6 -18
-16 -27 5 -8 -16 -21 -6 -18
-16 -27 5 -8 -16 -21 -6 -18
-16 -26 5 -7 -16 -21 -6 -18
-16 -26 5 -7 -16 -21 -6 -18
-17 -25 6 -6 -16 -20 -6 -17
-17 -25 6 -6 -16 -20 -6 -17
-16 -25 6 -6 -16 -20 -6 -17
-16 -25 6 -7 -16 -20 -5 -17
-15 -25 6 -7 -16 -20 -5 -17
-14 -24 5 -8 -17 -20 -4 -18
-14 -24 5 -8 -17 -20 -4 -18
-14 -24 5 -7 -16 -20 -4 -18
-14 -24 6 -7 -16 -19 -3 -18
-14 -24 6 -6 -15 -19 -3 -18
-14 -24 7 -5 -14 -18 -2 -17
-15 -24 7 -5 -14 -18 -2 -17
-16 -24 7 -5 -14 -18 -2 -17
-17 -24 7 -5 -14 -18 -2 -17
-18 -24 7 -5 -14 -18 -2 -17
-19 -25 6 -6 -14 -18 -3 -17
-18 -25 6 -6 -14 -18 -3 -17
-16 -25 6 -5 -14 -18 -3 -17
-15 -25 6 -4 -13 -18 -3 -17
-14 -25 6 -3 -13 -18 -3 -17
-12 -24 7 -2 -12 -17 -2 -17
-11 -23 9 5 -6 -11 3 -15
-9 -22 11 10 1 -5 6 -12
-8 -21 13 16 6 1 10 -9
-7 -20 16 21 12 7 13 -7
-4 -19 18 27 19 15 19 -3
3 -15 20 39 37 37 38 12
10 -11 23 51 57 60 58 25
17 -8 26 62 75 82 77 39
24 -4 28 74 94 106 97 53
30 2 31 85 112 129 117 67
36 13 31 86 127 155 143 87
42 24 30 88 141 183 169 105
47 35 30 89 155 210 194 125
53 47 29 90 170 236 220 144
58 57 26 87 179 257 241 160
56 61 10 50 147 234 234 159
53 65 -7 12 115 211 227 158
50 70 -23 -25 84 187 219 156
48 74 -39 -63 51 163 212 155
43 76 -55 -100 17 136 198 149
27 61 -68 -132 -30 81 146 113
11 46 -81 -163 -76 27 95 78
-6 29 -95 -195 -123 -27 44 43
-22 14 -107 -227 -171 -81 -8 7
-36 0 -119 -255 -212 -130 -54 -25
-40 -6 -114 -245 -214 -139 -63 -34
-44 -11 -109 -235 -215 -149 -72 -44
-48 -16 -104 -225 -217 -158 -81 -53
-51 -21 -99 -216 -219 -168 -91 -62
-55 -26 -93 -203 -218 -175 -98 -70
-50 -25 -80 -178 -191 -154 -86 -63
-44 -24 -69 -151 -164 -134 -73 -56
-38 -22 -57 -124 -138 -114 -62 -49
-33 -21 -46 -99 -110 -94 -50 -41
-28 -19 -34 -74 -86 -74 -38 -34
-27 -19 -28 -64 -74 -65 -32 -31
-25 -18 -23 -53 -63 -56 -27 -27
-24 -18 -17 -43 -52 -47 -22 -24
-22 -17 -11 -32 -40 -37 -16 -20
-20 -16 -6 -22 -30 -29 -11 -17
-20 -17 -5 -19 -28 -27 -11 -17
-20 -19 -4 -15 -25 -25 -10 -17
-19 -20 -3 -12 -22 -23 -9 -17
-19 -22 -2 -8 -20 -20 -8 -17
-18 -24 1 -5 -17 -18 -7 -16
-18 -25 1 -5 -17 -18 -7 -16
-17 -26 2 -5 -16 -18 -7 -16
-17 -27 3 -4 -15 -18 -7 -16
-16 -28 4 -4 -14 -18 -7 -16
-15 -30 5 -3 -13 -17 -6 -17
-15 -29 5 -3 -13 -17 -6 -17
-15 -28 5 -3 -13 -17 -5 -17
-15 -27 5 -2 -12 -16 -5 -17
-15 -26 5 -2 -12 -16 -4 -17
-14 -25 4 0 -11 -15 -3 -16
-14 -25 4 1 -11 -15 -3 -16
-14 -25 5 2 -10 -15 -3 -16
-14 -25 5 3 -9 -15 -3 -16
-14 -25 6 4 -8 -15 -3 -16
-14 -26 7 6 -7 -14 -3 -15
-14 -26 7 6 -7 -14 -3 -15
-14 -26 7 6 -7 -14 -3 -15
-14 -26 7 6 -7 -14 -3 -15
-14 -26 7 6 -7 -14 -3 -15
-15 -26 6 6 -8 -14 -3 -14
-15 -26 6 6 -7 -14 -3 -14
-15 -26 6 6 -6 -13 -3 -14
-15 -26 7 7 -5 -13 -3 -14
-15 -26 7 7 -4 -12 -3 -14
-15 -27 8 8 -3 -11 -2 -14
-15 -27 8 8 -3 -11 -2 -14
-15 -27 8 8 -3 -11 -2 -14
-14 -26 7 8 -4 -11 -2 -14
-14 -26 7 8 -4 -11 -2 -14
-13 -25 6 8 -5 -12 0 -13
-13 -25 6 8 -5 -12 0 -13
-14 -25 6 8 -5 -12 0 -13
-15 -25 6 8 -5 -11 0 -13
-16 -25 6 8 -5 -11 0 -13
-17 -26 7 9 -5 -10 0 -13
-17 -27 7 9 -5 -10 0 -13
-18 -28 6 8 -5 -10 0 -13
-19 -29 5 8 -6 -10 0 -13
-20 -30 4 7 -6 -10 0 -13
-21 -31 3 6 -7 -11 -2 -13
-19 -29 4 7 -6 -11 0 -13
-16 -27 5 8 -5 -10 1 -12
-13 -25 6 10 -3 -9 2 -12
-11 -23 7 11 -2 -8 3 -11
-8 -20 8 13 1 -7 4 -10
-8 -20 8 13 1 -7 4 -10
-8 -20 7 12 1 -7 4 -10
-9 -20 7 11 0 -7 3 -10
-9 -20 6 10 0 -7 3 -10
-10 -21 5 9 -2 -7 2 -9
-10 -21 5 9 -2 -7 2 -9
-10 -22 5 9 -2 -6 2 -9
-10 -23 5 9 0 -6 3 -9
-10 -24 5 9 0 -5 3 -9
-11 -25 4 9 1 -4 4 -9
-11 -24 4 9 1 -4 4 -9
-10 -23 4 9 1 -3 5 -8
-9 -22 4 9 1 -3 5 -8
-8 -21 4 9 1 -2 6 -7
-7 -19 4 10 2 0 7 -6
-7 -19 4 10 2 0 7 -6
-8 -19 4 10 3 1 8 -6
-8 -19 4 10 3 2 9 -5
-9 -19 4 10 4 3 10 -5
-10 -20 3 11 5 4 11 -4
-10 -19 3 11 5 5 12 -3
-10 -18 3 11 5 6 13 -2
-10 -17 3 12 6 7 14 0
-10 -16 3 12 6 8 15 1
-9 -14 3 13 7 10 17 3
-9 -15 3 13 7 10 17 3
-9 -16 3 13 7 10 17 3
-8 -17 2 13 7 10 17 4
-8 -18 2 13 7 10 17 4
-7 -19 1 13 8 11 18 5
-7 -17 1 13 8 12 19 6
-6 -14 0 13 8 13 21 7
-5 -12 -2 14 8 15 22 9
-4 -9 -3 14 8 16 24 10
-3 -6 -4 15 9 18 26 12
-2 -6 -4 15 10 19 27 13
0 -5 -5 15 11 21 28 14
2 -5 -5 16 12 22 30 16
3 -4 -6 16 13 24 31 17
5 -3 -7 17 14 26 33 19
5 -3 -7 17 14 27 34 20
6 -2 -8 17 15 28 36 21
7 0 -9 17 16 30 37 23
8 1 -10 17 17 31 39 24
9 2 -11 16 18 33 42 26
10 3 -11 16 18 34 43 27
11 4 -12 16 19 36 45 29
12 5 -13 16 20 37 47 30
13 6 -14 16 21 39 49 32
15 7 -15 17 22 42 51 34
15 8 -15 17 22 43 53 35
15 9 -16 16 22 44 55 36
15 10 -16 16 22 46 57 37
15 11 -17 15 22 47 59 38
15 13 -18 14 23 49 61 39
16 14 -18 14 23 49 61 39
17 15 -19 14 24 50 61 40
18 16 -19 14 24 50 61 42
19 17 -20 14 25 51 61 43
21 19 -21 15 26 52 62 44
20 19 -21 15 26 52 62 45
19 19 -21 15 26 52 63 46
18 19 -22 14 26 53 64 47
17 19 -22 14 26 53 65 48
16 18 -23 13 25 54 66 49
16 18 -23 13 25 54 66 49
16 19 -23 14 26 55 66 49
17 20 -23 14 26 55 66 49
17 21 -23 15 27 56 66 49
18 22 -22 16 28 57 67 50
17 22 -22 16 28 57 67 50
16 22 -22 15 27 57 67 50
14 21 -21 15 27 57 67 50
13 21 -21 14 26 57 67 50
11 20 -20 13 25 56 66 49
11 20 -20 13 25 55 66 49
11 20 -20 13 25 53 65 48
11 20 -19 13 26 52 64 48
11 20 -19 13 26 50 63 47
12 19 -18 13 27 48 62 46
11 18 -18 13 26 46 59 44
10 16 -17 12 25 44 55 42
9 15 -16 12 23 40 51 38
8 13 -15 11 22 38 47 36
7 11 -14 10 20 35 43 33
6 11 -12 10 20 33 40 31
5 10 -10 10 20 31 38 28
3 10 -8 10 20 29 35 26
2 9 -6 10 20 27 33 23
0 8 -4 11 19 25 30 20
0 6 -4 11 18 23 28 18
-2 4 -4 10 16 20 25 16
-2 2 -4 9 14 18 23 14
-3 0 -4 8 12 15 20 12
-4 -3 -4 7 10 12 17 10
-5 -3 -3 7 9 11 15 9
-6 -4 -2 7 8 9 13 7
-8 -4 0 6 7 7 11 5
-9 -5 1 6 6 5 9 3
-11 -6 2 5 5 3 7 1
-11 -7 2 4 4 2 5 0
-11 -9 2 3 3 0 4 -3
-11 -10 2 2 1 -3 2 -5
-11 -12 2 1 0 -5 0 -7
-11 -13 2 0 -2 -6 -3 -8
-10 -14 1 -2 -3 -7 -4 -9
-11 -14 2 0 -3 -7 -4 -9
-12 -14 3 0 -3 -7 -5 -9
-13 -14 4 1 -3 -7 -5 -9
-13 -14 4 1 -3 -7 -5 -9
-15 -13 5 2 -3 -8 -6 -9
-16 -14 4 1 -4 -9 -7 -10
-18 -15 4 0 -5 -10 -8 -11
-19 -16 3 -2 -6 -11 -9 -12
-20 -16 3 -2 -7 -12 -9 -13
-20 -17 2 -3 -8 -13 -10 -14
-18 -17 2 -3 -8 -13 -10 -14
-16 -17 3 -3 -8 -13 -10 -14
-14 -17 3 -3 -8 -13 -10 -14
-13 -17 3 -3 -8 -13 -10 -14
-12 -16 4 -3 -8 -13 -11 -13
-12 -16 4 -3 -8 -13 -11 -13
-12 -16 4 -4 -9 -14 -12 -13
-12 -16 4 -4 -9 -14 -12 -13
-12 -16 4 -4 -9 -14 -12 -13
-13 -16 3 -5 -10 -15 -13 -14
-14 -17 3 -5 -10 -15 -13 -14
-15 -18 3 -5 -10 -15 -14 -15
-16 -19 3 -5 -10 -15 -14 -15
-16 -20 3 -5 -10 -15 -14 -15
-17 -21 2 -5 -11 -16 -15 -16
-16 -20 2 -5 -11 -16 -15 -16
-15 -19 2 -5 -12 -17 -15 -16
-14 -18 2 -5 -12 -17 -15 -16
-14 -18 2 -5 -12 -17 -15 -16
-13 -17 3 -6 -13 -18 -16 -16
-14 -17 3 -6 -13 -18 -16 -16
-15 -17 3 -6 -13 -18 -17 -17
-16 -17 3 -6 -13 -18 -17 -17
-16 -17 3 -6 -13 -18 -17 -17
-17 -18 3 -6 -12 -17 -18 -18
-17 -18 3 -6 -12 -17 -18 -18
-17 -17 3 -6 -12 -17 -18 -18
-17 -17 3 -6 -12 -17 -18 -18
-17 -17 3 -6 -12 -17 -18 -18
-16 -16 2 -7 -11 -18 -17 -17
-16 -17 2 -7 -11 -18 -17 -17
-16 -18 2 -7 -11 -18 -18 -17
-16 -19 2 -7 -11 -18 -18 -17
-16 -20 2 -7 -11 -18 -18 -17
-16 -21 2 -6 -12 -19 -19 -18
-17 -21 2 -6 -12 -19 -19 -18
-17 -21 1 -7 -12 -19 -19 -18
-18 -21 1 -7 -12 -19 -19 -18
-18 -21 1 -7 -12 -19 -19 -18
-18 -20 0 -8 -13 -20 -19 -19
-16 -18 1 -7 -12 -19 -19 -19
-15 -16 2 -6 -12 -19 -19 -18
-13 -14 3 -5 -11 -18 -19 -18
-12 -12 3 -4 -11 -18 -19 -18
-11 -12 4 -3 -10 -17 -18 -17
-12 -14 3 -4 -11 -17 -18 -17
-13 -15 3 -4 -11 -18 -19 -17
-14 -17 2 -5 -12 -18 -19 -17
-15 -18 2 -5 -12 -18 -19 -17
-16 -19 1 -6 -13 -19 -20 -18
-16 -19 1 -6 -13 -19 -20 -18
-16 -19 1 -5 -12 -18 -20 -18
-16 -19 1 -5 -12 -18 -20 -18
-16 -19 1 -5 -12 -18 -20 -18
-15 -18 2 -4 -11 -17 -19 -18
-14 -17 2 -5 -11 -17 -19 -17
-13 -16 2 -5 -11 -17 -18 -17
-12 -15 2 -6 -11 -17 -18 -16
-11 -15 2 -6 -11 -17 -18 -16
-10 -14 2 -7 -11 -16 -17 -15
-10 -14 2 -7 -11 -16 -17 -15
-11 -15 2 -7 -11 -16 -17 -15
-11 -15 2 -7 -11 -16 -17 -15
-11 -15 2 -7 -11 -16 -17 -15
-12 -16 2 -6 -12 -17 -18 -16
-12 -16 2 -6 -12 -17 -18 -16
-12 -15 2 -6 -12 -16 -18 -15
-12 -15 2 -6 -12 -16 -18 -15
-12 -15 2 -6 -12 -16 -18 -15
-12 -14 1 -6 -12 -15 -17 -14
-12 -14 1 -6 -11 -15 -17 -14
-12 -14 1 -5 -11 -15 -17 -14
-12 -14 1 -5 -10 -15 -17 -14
-12 -14 1 -5 -10 -15 -17 -14
-13 -15 2 -4 -9 -15 -15 -13
-13 -15 2 -4 -9 -15 -14 -13
-13 -15 1 -4 -9 -14 -13 -13
-13 -15 1 -4 -9 -14 -12 -13
-13 -15 1 -4 -9 -14 -11 -13
-13 -15 0 -4 -9 -13 -10 -12
-12 -14 0 -4 -9 -13 -11 -12
-11 -14 1 -4 -9 -13 -11 -12
-10 -13 1 -4 -9 -13 -12 -12
-10 -13 1 -4 -9 -13 -12 -12
-9 -12 2 -4 -9 -12 -13 -12
-9 -12 2 -4 -9 -12 -13 -12
-9 -13 1 -5 -10 -12 -13 -12
-9 -13 1 -5 -10 -12 -13 -12
-9 -13 1 -5 -10 -12 -13 -12
-10 -14 0 -6 -11 -11 -14 -13
-10 -14 0 -6 -10 -11 -14 -13
-10 -14 1 -5 -10 -11 -14 -13
-10 -14 1 -5 -9 -11 -14 -13
-10 -14 1 -5 -9 -11 -14 -13
-11 -14 2 -4 -8 -12 -14 -12
-11 -14 2 -4 -9 -12 -14 -12
-11 -14 2 -4 -9 -12 -14 -12
-11 -14 2 -4 -10 -12 -14 -12
-11 -14 2 -4 -10 -12 -14 -12
-12 -14 1 -5 -11 -11 -13 -13
-12 -14 1 -5 -11 -12 -13 -13
-12 -14 1 -6 -11 -12 -14 -13
-12 -14 1 -6 -11 -13 -14 -13
-12 -14 1 -6 -11 -13 -14 -13
-11 -14 1 -7 -11 -14 -15 -14
-11 -14 1 -7 -11 -14 -15 -14
-11 -13 1 -7 -11 -14 -15 -13
-11 -13 1 -7 -11 -14 -15 -13
-11 -13 1 -7 -11 -14 -15 -13
-10 -12 1 -8 -12 -14 -15 -12
-10 -12 1 -8 -12 -14 -15 -12
-10 -12 1 -7 -12 -14 -15 -12
-10 -12 1 -7 -12 -14 -15 -12
-10 -12 1 -7 -12 -14 -15 -12
-11 -12 1 -6 -11 -14 -15 -13
-11 -13 1 -7 -12 -14 -16 -14
-11 -13 0 -7 -12 -15 -16 -14
-11 -14 0 -8 -13 -15 -17 -15
-11 -14 0 -8 -13 -15 -17 -15
-11 -15 -2 -9 -14 -16 -18 -16
-11 -15 -2 -9 -14 -16 -18 -16
-11 -15 -2 -9 -14 -16 -18 -16
-11 -15 -2 -9 -14 -16 -18 -16
-11 -15 -2 -9 -14 -16 -18 -16
-11 -15 0 -9 -14 -17 -18 -17
-11 -15 0 -9 -14 -17 -18 -16
-10 -15 0 -9 -14 -17 -18 -16
-10 -15 0 -9 -14 -17 -18 -15
-10 -15 0 -9 -14 -17 -18 -15
-9 -15 1 -9 -14 -17 -17 -14
-10 -15 1 -9 -14 -17 -17 -14
-11 -15 1 -9 -14 -17 -17 -14
-12 -15 1 -9 -14 -17 -17 -14
-13 -15 1 -9 -14 -17 -17 -14
-14 -16 1 -9 -14 -17 -17 -15
-13 -16 1 -9 -14 -17 -17 -15
-12 -16 1 -9 -14 -18 -17 -15
-11 -16 1 -9 -14 -18 -17 -15
-11 -16 1 -9 -14 -18 -17 -15
-10 -16 0 -10 -14 -19 -18 -16
-10 -16 0 -10 -14 -19 -18 -16
-10 -15 0 -10 -14 -19 -19 -16
-10 -15 0 -10 -14 -19 -19 -16
-10 -15 0 -10 -14 -19 -19 -16
-10 -14 1 -9 -15 -19 -20 -17
-10 -14 1 -9 -15 -19 -20 -17
-9 -14 1 -10 -15 -19 -20 -17
-9 -14 1 -10 -15 -19 -20 -17
-9 -14 1 -10 -15 -19 -20 -17
-8 -13 0 -11 -16 -18 -19 -18
-9 -14 0 -11 -16 -18 -19 -18
-10 -15 0 -11 -16 -19 -20 -18
-11 -16 0 -11 -16 -19 -20 -18
-11 -16 0 -11 -16 -19 -20 -18
-12 -17 -2 -11 -17 -20 -21 -19
-12 -16 -2 -11 -17 -20 -21 -18
-11 -15 0 -11 -17 -20 -20 -17
-11 -14 0 -11 -17 -20 -20 -16
-11 -13 0 -11 -17 -20 -20 -16
-10 -12 1 -11 -16 -20 -19 -15
-10 -13 1 -11 -16 -20 -19 -16
-10 -14 1 -11 -16 -20 -20 -16
-10 -15 1 -11 -16 -20 -20 -17
-10 -15 1 -11 -16 -20 -20 -17
-11 -16 0 -11 -17 -20 -21 -18
-11 -16 0 -11 -17 -20 -21 -18
-11 -16 0 -12 -17 -20 -21 -18
-11 -16 0 -12 -17 -20 -21 -18
-11 -16 0 -12 -17 -20 -21 -18
-12 -17 -2 -13 -18 -21 -22 -18
-12 -17 -2 -13 -18 -21 -22 -18
-12 -17 0 -13 -18 -21 -22 -18
-12 -17 0 -13 -18 -21 -22 -18
-12 -17 0 -13 -18 -21 -22 -18
-11 -16 1 -12 -17 -20 -23 -18
-10 -15 1 -12 -17 -20 -23 -18
-9 -15 0 -12 -17 -20 -23 -18
-8 -14 0 -12 -17 -20 -23 -18
-8 -14 0 -12 -17 -20 -23 -18
-7 -13 -2 -12 -18 -21 -22 -18
-8 -13 -2 -12 -18 -21 -22 -18
-8 -13 -2 -12 -17 -21 -22 -18
-9 -13 -2 -12 -17 -21 -22 -18
-9 -13 -2 -12 -17 -21 -22 -18
-10 -14 0 -11 -16 -20 -21 -18
-10 -14 0 -11 -16 -20 -21 -18
-10 -14 0 -11 -17 -20 -21 -18
-10 -14 0 -11 -17 -20 -21 -18
-10 -14 0 -11 -17 -20 -21 -18
-10 -15 0 -12 -18 -21 -21 -19
-9 -15 0 -12 -18 -21 -21 -19
-8 -14 0 -12 -17 -21 -21 -19
-6 -14 0 -12 -17 -21 -21 -19
-5 -14 0 -12 -17 -21 -21 -19
-5 -13 0 -11 -16 -20 -20 -18
-6 -13 0 -11 -16 -20 -20 -18
-7 -13 0 -11 -16 -20 -20 -18
-9 -13 0 -11 -16 -20 -20 -18
-10 -13 0 -11 -16 -20 -20 -18
-11 -13 0 -11 -16 -20 -21 -17
-11 -14 0 -11 -16 -20 -21 -17
-11 -14 0 -11 -16 -20 -21 -17
-11 -15 0 -11 -16 -20 -21 -17
-11 -15 0 -11 -16 -20 -21 -17
-11 -16 0 -11 -17 -21 -22 -18
-10 -15 0 -11 -17 -21 -22 -18
-10 -15 0 -11 -17 -21 -22 -18
-9 -14 0 -11 -17 -21 -22 -18
-9 -14 0 -11 -17 -21 -22 -18
-8 -13 -2 -12 -17 -21 -21 -19
-8 -13 -2 -11 -17 -20 -21 -18
-8 -12 0 -11 -16 -20 -20 -18
-8 -12 0 -10 -16 -19 -20 -17
-8 -12 0 -10 -16 -19 -20 -17
-9 -11 1 -9 -15 -18 -19 -16
-9 -11 1 -9 -15 -18 -19 -16
-9 -11 1 -9 -15 -18 -19 -16
-9 -11 1 -9 -15 -18 -19 -16
-9 -11 1 -9 -15 -18 -19 -16
-8 -11 1 -9 -14 -18 -18 -15
-9 -11 2 -8 -13 -17 -17 -14
-10 -10 3 -7 -12 -16 -16 -13
-11 -10 4 -6 -11 -14 -15 -12
-11 -10 5 -5 -10 -13 -15 -12
-11 -8 6 -4 -9 -12 -14 -11
-10 -6 6 -4 -7 -11 -13 -10
-9 -3 7 -3 -6 -10 -12 -9
-7 0 7 -3 -5 -9 -11 -8
-6 2 7 -3 -4 -8 -11 -8
-5 3 8 -2 -3 -7 -10 -7
-5 4 8 0 -2 -7 -9 -6
-5 5 8 0 0 -6 -9 -6
-5 6 8 1 1 -6 -8 -5
-5 7 8 1 1 -6 -8 -5
-5 8 8 2 2 -5 -7 -4
-5 8 7 2 2 -5 -7 -4
-5 8 6 2 2 -5 -7 -5
-5 8 5 2 2 -5 -7 -5
-5 8 5 2 2 -5 -7 -5
-4 8 4 1 1 -5 -8 -6
-4 8 3 1 1 -4 -7 -5
-5 9 3 1 2 -3 -6 -4
-5 9 2 1 2 -2 -5 -3
-5 9 2 1 2 -2 -4 -2
-5 10 0 0 3 0 -3 0
-4 10 -3 -3 1 -2 -3 0
-2 10 -5 -5 0 -3 -3 -2
1 10 -6 -6 -2 -4 -3 -2
2 10 -8 -8 -3 -5 -3 -2
3 9 -9 -9 -4 -6 -4 -3
4 9 -8 -7 -3 -5 -4 -2
5 9 -7 -6 -2 -4 -4 -2
6 9 -6 -5 0 -3 -4 0
7 9 -5 -4 0 -3 -4 0
8 10 -4 -3 1 -2 -5 1
6 9 -4 -3 0 -3 -5 1
5 8 -4 -4 -2 -3 -5 1
4 7 -4 -4 -3 -4 -5 1
3 7 -4 -4 -3 -4 -5 1
2 5 -4 -5 -4 -5 -4 0
2 4 -4 -5 -5 -6 -5 -2
2 2 -4 -6 -6 -6 -6 -2
2 0 -4 -6 -7 -7 -7 -3
2 -2 -4 -6 -7 -7 -7 -3
2 -3 -4 -7 -8 -8 -8 -4
2 -3 -4 -7 -8 -9 -9 -4
2 -3 -4 -7 -9 -10 -9 -4
2 -3 -4 -7 -9 -11 -10 -4
2 -3 -4 -7 -9 -11 -10 -4
1 -4 -4 -8 -10 -12 -11 -5
-2 -5 -3 -8 -10 -12 -12 -6
-3 -6 -2 -8 -10 -12 -13 -7
-5 -8 0 -8 -10 -12 -14 -8
-7 -9 0 -8 -10 -12 -14 -9
-8 -10 1 -8 -11 -13 -15 -10
-8 -10 1 -8 -11 -13 -15 -10
-7 -10 1 -8 -11 -13 -15 -10
-7 -10 1 -8 -11 -13 -15 -10
-7 -10 1 -8 -11 -13 -15 -10
-6 -10 1 -8 -11 -14 -15 -11
-6 -11 1 -9 -12 -15 -16 -12
-7 -12 1 -9 -13 -16 -17 -12
-7 -13 1 -10 -14 -17 -18 -13
-7 -13 1 -10 -15 -18 -18 -13
-8 -14 0 -11 -16 -19 -19 -14
-9 -14 0 -11 -16 -19 -18 -13
-10 -14 1 -11 -15 -18 -18 -13
-11 -14 1 -11 -15 -18 -17 -12
-12 -14 1 -11 -15 -18 -17 -12
-13 -14 2 -10 -14 -17 -16 -11
-11 -14 1 -10 -14 -18 -17 -12
-10 -14 1 -11 -15 -18 -18 -13
-9 -14 0 -11 -15 -19 -19 -14
-8 -14 0 -11 -15 -19 -20 -15
-7 -15 -2 -12 -16 -20 -21 -16
-7 -14 -2 -12 -16 -20 -20 -16
-7 -14 0 -12 -15 -19 -20 -15
-7 -13 0 -12 -15 -19 -19 -15
-7 -13 0 -12 -15 -19 -19 -15
-8 -12 1 -11 -14 -18 -18 -14
-9 -13 1 -11 -14 -18 -18 -14
-9 -13 1 -10 -14 -18 -18 -14
-10 -14 1 -10 -14 -18 -18 -14
-10 -14 1 -10 -14 -18 -18 -14
-11 -15 2 -9 -14 -18 -19 -14
-11 -15 2 -9 -14 -18 -19 -14
-10 -14 2 -9 -14 -18 -19 -14
-10 -14 2 -9 -14 -18 -19 -14
-10 -14 2 -9 -14 -18 -19 -14
-9 -13 1 -10 -14 -18 -19 -14
-9 -12 2 -10 -14 -18 -19 -14
-8 -11 2 -9 -14 -18 -19 -14
-8 -11 3 -9 -14 -18 -19 -14
-8 -10 3 -9 -14 -18 -19 -14
-7 -9 4 -8 -13 -17 -18 -14
-8 -10 4 -8 -13 -17 -18 -14
-9 -11 3 -9 -13 -18 -18 -14
-10 -12 3 -9 -13 -18 -18 -14
-11 -13 3 -9 -13 -18 -18 -14
-12 -14 2 -10 -14 -19 -18 -14
-12 -14 2 -10 -14 -19 -18 -14
-12 -14 2 -9 -13 -18 -18 -14
-12 -14 2 -9 -13 -18 -18 -14
-12 -14 2 -9 -13 -18 -18 -14
-11 -14 3 -8 -12 -17 -17 -13
-10 -13 3 -8 -12 -17 -17 -13
-9 -12 3 -8 -12 -16 -17 -13
-8 -12 3 -8 -12 -16 -17 -13
-7 -11 3 -8 -12 -16 -17 -13
-6 -11 3 -7 -11 -15 -16 -12
-7 -12 3 -7 -11 -15 -16 -12
-8 -13 3 -7 -11 -15 -16 -12
-9 -15 3 -7 -11 -15 -16 -12
-10 -16 3 -7 -11 -15 -16 -12
-10 -16 2 -6 -11 -14 -16 -13
-8 -14 3 -6 -10 -13 -16 -13
-6 -12 3 -5 -10 -13 -15 -12
-3 -9 4 -5 -9 -12 -15 -12
0 -7 4 -5 -9 -12 -15 -12
1 -6 6 1 -5 -8 -12 -10
1 -6 9 6 1 -4 -9 -9
1 -5 11 12 7 1 -6 -8
1 -5 13 18 12 5 -3 -6
1 -5 16 24 17 9 1 -5
4 -2 18 34 31 25 13 5
11 2 21 47 49 47 30 17
18 6 24 58 66 68 48 30
25 9 26 70 84 90 65 43
32 13 29 82 101 110 82 55
38 21 30 88 118 136 105 71
44 31 29 89 135 163 130 90
50 43 29 91 151 190 154 108
56 53 28 92 168 218 179 127
62 63 28 94 184 245 203 145
64 71 13 66 169 242 211 152
64 77 -8 25 138 225 207 155
64 84 -28 -16 108 209 205 157
64 90 -49 -57 77 191 203 159
64 96 -69 -98 47 174 200 162
53 88 -86 -133 5 132 167 142
38 73 -100 -165 -43 77 119 109
23 58 -114 -198 -91 23 71 77
9 44 -130 -232 -138 -31 24 46
-7 28 -144 -265 -185 -85 -23 14
-15 18 -143 -266 -201 -110 -47 -5
-19 11 -135 -253 -204 -123 -59 -17
-23 4 -126 -239 -207 -136 -71 -29
-28 -5 -116 -226 -210 -149 -83 -43
-32 -12 -107 -213 -213 -162 -96 -55
-33 -15 -96 -190 -196 -153 -93 -55
-31 -15 -83 -163 -170 -134 -81 -49
-29 -15 -70 -138 -143 -114 -70 -41
-27 -15 -58 -111 -116 -95 -60 -35
-25 -15 -45 -85 -90 -74 -49 -28
-22 -12 -36 -69 -73 -63 -41 -25
-18 -8 -30 -58 -62 -54 -35 -22
-14 -5 -24 -47 -51 -46 -29 -19
-10 0 -18 -35 -39 -37 -24 -16
-7 3 -11 -24 -28 -28 -18 -13
-5 5 -8 -18 -22 -24 -16 -12
-5 4 -6 -14 -19 -21 -15 -12
-4 3 -4 -11 -16 -19 -14 -11
-4 2 -2 -7 -13 -17 -13 -11
-4 1 1 -4 -10 -14 -12 -11
-4 0 2 -2 -9 -13 -11 -10
-5 -2 2 0 -8 -13 -11 -10
-7 -3 2 1 -7 -13 -11 -11
-8 -3 2 1 -7 -13 -11 -11
-10 -4 2 2 -6 -13 -11 -11
-11 -5 3 3 -5 -13 -11 -12
-10 -6 3 4 -4 -12 -10 -12
-10 -7 3 4 -4 -11 -10 -12
-9 -7 3 5 -3 -11 -9 -12
-9 -8 3 5 -3 -10 -9 -12
-8 -9 4 6 -2 -9 -8 -11
-8 -9 5 7 0 -8 -7 -11
-7 -9 5 7 1 -7 -7 -11
-7 -9 6 8 1 -6 -6 -11
-7 -9 6 8 2 -5 -6 -11
-6 -8 7 9 3 -4 -5 -11
-4 -7 7 9 3 -4 -5 -11
-3 -6 7 9 3 -5 -5 -11
-2 -6 7 9 3 -5 -5 -11
0 -5 7 9 3 -5 -5 -11
0 -5 6 10 2 -6 -5 -11
-3 -8 6 10 2 -6 -6 -11
-6 -10 6 10 2 -6 -7 -11
-8 -13 6 10 2 -6 -8 -11
-11 -16 6 10 2 -6 -9 -11
-11 -16 6 9 2 -7 -10 -12
-9 -13 6 10 2 -7 -8 -11
-7 -10 7 11 3 -6 -7 -10
-5 -7 7 11 4 -5 -5 -9
-3 -4 7 12 4 -5 -4 -8
-2 -2 8 13 5 -4 -3 -7
-2 -3 8 13 5 -4 -3 -7
-3 -4 8 14 5 -4 -3 -8
-3 -4 8 14 5 -4 -3 -8
-3 -5 8 14 5 -4 -3 -8
-4 -6 9 15 6 -4 -4 -9
-4 -5 9 15 6 -4 -4 -9
-4 -4 8 14 6 -3 -3 -9
-4 -4 7 14 6 -3 -2 -9
-4 -3 7 14 6 -3 -2 -9
-4 -2 6 13 7 -2 0 -8
-4 -2 6 13 7 -2 0 -8
-4 -2 6 14 7 -2 0 -9
-4 -2 6 15 7 -2 0 -9
-4 -2 6 15 7 -2 0 -9
-3 -2 7 16 7 -2 0 -10
-3 -2 7 16 7 -2 0 -10
-3 -3 6 15 8 0 1 -9
-3 -4 6 14 8 1 2 -9
-3 -4 6 14 8 1 2 -9
-2 -5 5 13 9 2 3 -8
0 -4 5 13 9 2 3 -8
2 -3 5 14 9 2 3 -8
3 -2 5 15 9 2 3 -8
4 0 5 15 9 2 3 -8
5 1 5 16 10 1 4 -9
4 1 5 16 10 2 4 -8
3 1 4 16 11 3 5 -7
3 1 4 16 11 3 6 -7
2 1 4 16 11 4 6 -6
1 2 3 16 12 5 7 -5
1 2 3 16 13 6 8 -5
2 3 3 17 14 8 9 -5
3 3 3 18 15 9 9 -5
3 3 3 18 16 10 10 -5
4 4 4 19 17 11 11 -4
3 3 3 19 17 11 11 -4
2 2 2 18 16 11 12 -3
2 2 2 17 15 11 12 -3
1 1 1 17 15 11 12 -3
0 1 0 16 15 12 13 -2
2 4 0 17 16 14 15 0
4 7 1 19 18 15 16 2
5 10 2 20 20 17 18 3
7 12 2 21 22 18 19 4
8 14 3 22 23 19 20 5
10 15 2 22 23 20 22 6
11 16 0 21 23 22 23 8
13 16 -2 21 23 23 25 9
14 17 -3 21 23 24 26 10
15 18 -4 20 22 26 28 11
15 18 -4 21 24 27 29 12
14 19 -4 22 26 29 31 14
14 19 -4 23 27 31 33 15
14 19 -4 24 29 33 35 16
13 20 -5 25 30 34 36 17
14 21 -6 25 30 36 38 19
15 22 -7 25 31 37 40 21
16 23 -7 25 31 39 42 22
17 24 -8 25 31 40 44 24
18 25 -9 24 32 42 46 25
19 25 -10 24 33 44 47 27
20 25 -11 24 34 46 49 28
20 25 -12 24 35 47 51 30
21 25 -13 24 36 49 53 31
22 26 -14 25 37 50 54 32
22 27 -15 25 37 52 56 33
23 28 -16 25 37 53 58 34
24 28 -16 25 37 55 59 35
24 29 -17 25 37 56 61 36
25 30 -18 26 37 57 62 37
27 32 -18 26 38 58 63 38
28 33 -18 26 39 59 64 39
30 35 -18 26 39 59 64 39
31 36 -18 26 40 60 65 40
32 37 -19 25 42 61 66 42
31 37 -19 25 42 62 67 42
30 37 -20 24 42 63 68 43
30 37 -21 23 42 63 69 43
29 37 -21 23 42 64 70 43
28 37 -22 22 43 65 71 44
28 38 -22 22 43 65 71 45
29 39 -22 22 44 66 72 46
30 40 -22 22 44 67 73 47
30 42 -22 22 44 67 73 48
31 43 -22 23 45 68 74 49
31 43 -22 23 45 68 74 49
31 43 -22 22 45 68 74 49
31 43 -22 22 45 68 74 49
31 43 -22 22 45 68 74 49
32 43 -21 21 45 67 74 48
31 42 -20 21 45 66 73 47
29 39 -19 21 44 65 71 45
28 38 -18 21 43 64 70 44
27 37 -17 21 43 63 69 43
26 36 -16 20 42 61 67 40
24 36 -15 20 40 58 64 38
22 36 -14 19 39 56 62 36
21 36 -14 18 38 53 59 34
19 36 -13 18 37 51 57 32
18 36 -12 17 36 48 54 30
17 34 -10 17 35 46 52 29
16 33 -9 17 34 44 50 27
16 31 -7 17 34 42 48 25
15 30 -6 17 33 38 45 23
14 28 -5 18 32 36 43 21
13 26 -5 17 30 33 39 19
11 24 -5 16 29 31 37 17
10 22 -5 16 28 28 34 15
9 19 -5 15 26 26 32 12
8 18 -4 14 25 24 29 11
7 17 -3 14 24 23 27 10
6 16 -2 13 23 21 25 8
5 15 -2 12 23 20 23 7
4 14 0 12 22 19 21 6
3 13 1 11 21 17 20 4
3 11 1 10 19 15 18 3
3 9 0 9 17 12 17 1
3 8 0 9 16 10 16 -2
3 6 0 8 14 8 14 -4
4 5 -2 7 13 6 13 -5
4 7 0 7 13 5 13 -5
3 8 1 7 13 4 12 -6
3 9 2 7 13 4 11 -7
3 11 3 7 13 3 11 -7
2 12 4 7 12 2 10 -8
1 11 4 6 11 1 9 -8
0 9 3 5 9 0 8 -9
-2 8 2 4 8 -2 8 -10
-3 7 2 3 7 -3 7 -10
-4 6 1 2 6 -4 6 -11
-4 5 1 2 6 -4 6 -11
-4 4 2 2 6 -4 5 -12
-4 4 2 2 6 -4 5 -12
-4 3 2 2 6 -4 5 -12
-5 2 3 3 6 -4 4 -13
-4 2 3 3 6 -4 4 -13
-3 2 2 2 5 -4 4 -13
-2 2 2 2 4 -4 4 -13
0 2 2 2 4 -4 4 -13
1 3 1 1 3 -5 4 -13
1 3 1 1 3 -5 4 -13
1 2 1 1 3 -5 4 -14
1 2 1 1 3 -5 4 -14
1 2 1 1 3 -5 4 -14
0 1 1 0 4 -6 3 -15
0 1 2 1 4 -6 3 -15
-2 2 3 2 5 -5 4 -14
-2 3 3 2 6 -4 5 -13
-2 3 4 3 6 -4 5 -13
-3 4 5 4 7 -3 6 -12
-3 4 5 4 7 -3 6 -12
-4 3 5 4 6 -4 5 -13
-4 2 5 4 5 -4 5 -13
-4 2 5 4 5 -4 5 -13
-5 1 4 3 4 -5 4 -14
-5 0 4 3 4 -5 4 -14
-5 -2 3 2 3 -6 4 -14
-5 -3 3 1 2 -6 4 -14
-5 -4 3 1 2 -6 4 -14
-5 -5 2 0 1 -7 3 -15
-5 -5 3 1 3 -7 3 -15
-5 -4 4 2 4 -7 3 -15
-5 -3 5 3 5 -7 3 -15
-5 -3 6 4 7 -7 3 -15
-4 -2 7 5 8 -6 3 -14
-4 -2 6 4 7 -6 3 -14
-4 -2 5 3 5 -7 3 -14
-4 -2 4 3 4 -7 3 -14
-4 -2 3 2 3 -7 3 -14
-3 -3 2 1 2 -8 2 -15
-3 -3 2 1 2 -8 2 -15
-2 -3 2 1 2 -7 3 -15
0 -3 2 1 2 -7 3 -15
0 -3 2 1 2 -7 3 -15
1 -2 2 1 2 -6 4 -15
0 -2 2 1 2 -6 4 -15
-2 -2 3 2 2 -6 4 -14
-3 -2 3 2 2 -6 4 -14
-4 -2 3 2 2 -6 4 -14
-5 -2 4 3 2 -6 4 -13
-5 -2 4 3 2 -6 4 -13
-4 -2 4 3 2 -6 4 -13
-4 -2 4 3 2 -6 4 -13
-4 -2 4 3 2 -6 4 -13
-3 -2 3 3 2 -6 4 -14
-3 -2 3 3 2 -6 4 -14
-3 0 3 3 3 -6 4 -14
-3 0 3 3 3 -6 4 -14
-3 0 3 3 3 -6 4 -14
-2 1 2 2 4 -6 4 -13
-2 1 2 2 4 -6 4 -13
-3 1 2 2 4 -6 4 -13
-3 1 2 2 4 -6 4 -13
-3 1 2 2 4 -6 4 -13
-4 0 1 3 3 -5 4 -14
-3 1 1 3 3 -5 4 -14
-3 2 1 3 3 -5 5 -13
-2 3 2 3 3 -4 6 -12
0 4 2 3 3 -4 6 -12
1 5 3 3 4 -3 7 -11
1 4 3 3 4 -3 7 -11
1 4 3 3 4 -3 7 -11
0 3 2 3 4 -4 6 -12
0 2 2 3 4 -4 6 -12
-2 1 1 2 3 -5 5 -13
-2 2 1 2 3 -5 5 -13
-2 3 1 2 3 -5 5 -13
0 4 1 3 3 -4 6 -13
0 5 1 3 3 -4 6 -13
1 6 2 4 4 -3 7 -14
1 6 2 4 4 -3 7 -14
1 6 2 4 4 -3 7 -14
0 5 2 4 4 -3 7 -14
0 5 2 4 4 -3 7 -14
-2 4 2 5 5 -3 7 -15
-2 4 2 5 5 -3 7 -15
-2 4 2 5 5 -3 7 -15
-2 4 2 5 5 -3 7 -15
-2 4 2 5 5 -3 7 -15
-3 4 2 4 4 -3 7 -15
-3 3 2 4 4 -3 7 -15
-3 3 2 4 4 -3 7 -15
-3 2 2 4 4 -3 7 -15
-3 1 2 4 4 -3 7 -15
-3 0 2 4 3 -2 8 -14
-3 1 2 4 3 -2 8 -14
-3 2 2 4 3 -2 8 -14
-3 3 2 4 3 -2 9 -13
-3 4 2 4 3 -2 9 -13
-3 5 3 5 4 0 10 -12
-2 5 3 5 4 0 10 -12
0 5 3 5 4 0 10 -12
2 5 2 5 4 -2 10 -12
3 5 2 5 4 -2 10 -12
4 6 1 4 3 -3 9 -12
2 5 1 3 3 -3 9 -12
1 5 1 3 3 -3 9 -12
0 4 1 2 2 -3 8 -13
-3 3 1 1 2 -3 8 -13
-4 2 1 0 1 -4 7 -14
-4 2 1 0 1 -4 7 -14
-3 2 1 0 1 -4 7 -14
-2 2 1 1 1 -4 7 -14
-2 2 1 1 1 -4 7 -14
0 2 2 2 1 -3 8 -13
0 2 2 2 1 -3 8 -13
0 2 2 2 1 -3 8 -13
0 2 2 2 1 -3 8 -13
0 2 2 2 1 -3 8 -13
0 2 2 2 1 -4 9 -13
0 2 2 2 1 -4 9 -13
0 2 2 2 1 -4 9 -13
0 2 2 2 1 -4 9 -13
0 2 2 2 1 -4 9 -13
-2 2 2 2 1 -3 9 -13
-2 2 2 2 1 -3 9 -13
-3 2 2 2 1 -3 9 -13
-4 1 2 2 1 -4 9 -13
-4 1 2 2 1 -4 9 -13
-5 0 2 2 2 -5 9 -12
-5 0 2 2 2 -5 9 -12
-5 0 2 2 2 -5 9 -12
-4 0 2 2 2 -5 9 -12
-4 0 2 2 2 -5 9 -12
-3 -2 1 1 2 -5 8 -12
-3 -2 1 1 2 -5 8 -12
-2 -2 1 1 2 -5 8 -12
0 0 2 1 2 -5 8 -12
0 0 2 1 2 -5 8 -12
1 1 3 2 2 -5 8 -12
1 1 3 2 2 -5 8 -12
0 1 3 2 2 -5 8 -12
-2 1 3 2 2 -5 8 -12
-2 1 3 2 2 -5 8 -12
-3 0 2 2 3 -6 8 -12
-3 0 2 2 3 -6 8 -12
-3 0 2 2 3 -6 8 -12
-3 0 2 2 3 -6 8 -12
-3 0 2 2 3 -6 8 -12
-3 0 2 1 2 -6 8 -12
-4 -2 2 1 2 -6 8 -12
-5 -3 2 0 2 -6 8 -12
-6 -5 2 -2 1 -6 8 -12
-7 -6 2 -2 1 -6 8 -12
-7 -7 1 -3 0 -7 7 -13
-5 -4 1 -3 0 -7 7 -13
-2 -2 1 -3 0 -7 7 -13
1 1 1 -2 1 -6 8 -12
4 3 1 -2 1 -6 8 -12
6 5 0 0 2 -5 9 -11
4 3 0 0 2 -5 9 -11
3 2 0 0 2 -5 9 -11
1 0 0 0 2 -5 9 -11
-2 -3 0 0 2 -5 9 -11
-3 -4 1 0 1 -6 8 -12
-3 -4 1 0 1 -6 8 -12
-4 -3 1 0 1 -6 8 -11
-5 -2 1 0 2 -6 9 -10
-5 -2 1 0 2 -6 9 -10
-6 0 2 1 3 -5 10 -9
-5 0 2 1 3 -5 10 -9
-4 0 2 1 3 -6 9 -9
-3 -2 2 0 2 -7 8 -10
-2 -2 2 0 2 -7 8 -10
0 -3 2 -2 1 -8 7 -11
0 -3 2 -2 1 -8 7 -11
0 -2 2 -2 1 -8 8 -11
0 0 2 -2 1 -8 9 -10
0 0 2 -2 1 -8 9 -10
0 1 2 0 2 -7 10 -9
0 1 2 0 2 -7 10 -9
0 0 1 0 2 -7 10 -9
0 -2 0 0 2 -7 9 -10
0 -2 0 0 2 -7 9 -10
0 -3 -2 -2 2 -7 8 -11
0 -3 -2 -2 2 -7 8 -11
0 -3 0 -2 2 -7 8 -10
-2 -3 1 -2 2 -7 9 -9
-2 -3 1 -2 2 -7 9 -9
-3 -4 2 0 3 -7 10 -8
-3 -5 2 0 3 -7 9 -8
-4 -5 2 0 3 -7 9 -9
-5 -6 2 0 3 -7 8 -10
-5 -7 2 0 3 -7 7 -10
-6 -8 1 1 3 -8 6 -11
-5 -6 1 1 3 -8 6 -11
-3 -5 1 1 3 -7 7 -10
-2 -3 1 1 3 -6 8 -9
1 0 1 1 3 -6 8 -9
2 1 2 1 3 -5 9 -8
1 0 2 1 3 -5 9 -8
1 0 2 1 3 -6 9 -8
0 -2 2 1 3 -7 9 -8
-2 -3 2 1 3 -7 9 -8
-3 -4 1 0 3 -8 9 -9
-2 -4 1 0 3 -8 9 -9
0 -4 1 0 3 -8 9 -9
1 -4 1 0 3 -7 9 -9
2 -4 1 0 3 -7 9 -9
3 -5 1 0 3 -6 10 -8
3 -5 1 0 3 -6 10 -8
3 -5 1 0 3 -6 10 -8
2 -4 1 0 3 -7 10 -8
2 -4 1 0 3 -7 10 -8
1 -3 1 0 3 -8 9 -8
0 -3 1 0 3 -8 9 -8
0 -3 1 0 3 -8 9 -8
-2 -3 2 0 3 -8 9 -7
-3 -3 2 0 3 -8 9 -7
-4 -4 3 -2 3 -8 9 -6
-4 -4 3 -2 3 -8 9 -6
-4 -4 2 -2 3 -8 9 -6
-4 -4 1 0 3 -8 10 -6
-4 -4 1 0 3 -8 10 -6
-5 -5 0 1 4 -7 11 -5
-4 -5 0 1 4 -7 11 -6
-3 -5 0 0 4 -7 11 -6
-2 -5 0 -2 3 -7 10 -7
0 -5 0 -2 3 -7 10 -8
1 -5 0 -3 2 -8 9 -9
-3 -5 0 -3 2 -8 9 -9
-6 -6 0 -2 2 -8 9 -9
-8 -7 0 0 2 -8 9 -9
-11 -7 0 0 2 -8 9 -9
-12 -7 1 1 3 -7 10 -9
-9 -4 2 2 5 -5 12 -7
-6 1 4 4 6 -4 13 -5
-3 4 5 5 8 -2 15 -3
1 7 7 7 9 0 16 -2
4 10 8 8 11 2 18 1
4 10 8 8 11 2 18 1
4 10 8 8 12 2 18 1
5 10 8 8 13 2 18 1
5 10 8 8 13 2 18 1
6 10 8 8 14 3 18 0
6 10 8 8 14 3 18 1
5 11 8 8 14 4 19 2
4 12 7 9 15 5 20 3
4 12 7 9 15 5 20 4
3 13 6 10 16 6 21 5
3 13 6 10 16 6 21 5
4 13 6 10 16 6 21 5
5 12 6 10 16 6 21 5
5 12 6 10 16 6 21 5
6 11 5 11 17 6 22 5
7 12 2 9 17 6 22 5
8 13 0 7 17 6 22 5
10 14 -4 5 16 6 22 6
11 15 -6 3 16 6 22 6
12 16 -8 1 15 6 23 7
12 15 -8 1 15 6 23 7
11 15 -8 1 14 6 22 6
10 14 -8 1 13 5 21 5
10 13 -8 1 13 5 21 5
9 12 -7 2 12 4 20 4
9 11 -7 2 12 4 20 4
9 11 -7 2 12 4 20 4
9 10 -7 2 12 4 20 5
9 9 -7 2 12 4 20 5
8 8 -6 3 11 4 20 6
8 7 -6 3 10 4 20 6
8 5 -6 3 10 3 20 6
9 4 -6 3 9 2 19 6
9 2 -6 3 8 2 19 6
10 1 -6 2 7 1 18 6
9 0 -6 1 6 0 17 5
8 -2 -6 -2 4 -3 16 4
7 -3 -6 -3 3 -4 15 3
6 -5 -6 -5 1 -6 14 1
5 -6 -7 -6 0 -7 13 0
5 -5 -6 -5 1 -7 13 0
5 -5 -5 -4 1 -7 13 0
4 -4 -4 -3 2 -6 13 0
4 -3 -3 0 3 -6 13 0
3 -2 -2 1 4 -5 13 0
2 -3 -2 1 3 -6 12 0
1 -5 -2 0 2 -6 11 0
0 -6 -2 0 1 -7 10 -2
-3 -8 -2 -2 0 -8 9 -2
-4 -9 -2 -3 -2 -9 8 -3
-3 -9 -2 -3 -2 -10 5 -3
-3 -9 -2 -3 -2 -10 3 -3
-2 -9 -2 -3 -3 -11 1 -4
0 -9 -2 -3 -3 -12 -3 -4
1 -9 -3 -4 -4 -13 -5 -5
0 -9 -3 -4 -4 -13 -5 -5
0 -10 -3 -4 -4 -13 -5 -5
-2 -10 -3 -5 -5 -13 -6 -5
-3 -11 -3 -5 -5 -13 -6 -5
-4 -12 -2 -6 -6 -13 -7 -5
-4 -12 -2 -6 -6 -13 -8 -5
-4 -12 -2 -6 -6 -13 -9 -5
-4 -12 -2 -6 -6 -13 -10 -6
-4 -12 -2 -6 -6 -13 -12 -6
-5 -13 -2 -7 -7 -14 -13 -7
-5 -13 -2 -7 -7 -14 -13 -7
-5 -13 -2 -7 -7 -14 -13 -7
-5 -13 -2 -7 -7 -14 -13 -7
-5 -13 -2 -7 -7 -14 -13 -7
-6 -13 -2 -6 -6 -14 -13 -7
-6 -13 -2 -6 -6 -14 -13 -7
-6 -13 -2 -6 -6 -14 -13 -7
-7 -13 -2 -6 -6 -14 -14 -7
-7 -13 -2 -6 -6 -14 -14 -7
-8 -14 -2 -6 -6 -14 -15 -7
-8 -14 -2 -6 -6 -14 -15 -7
-8 -14 -2 -6 -6 -14 -15 -7
-8 -14 -2 -5 -6 -14 -15 -6
-8 -14 -2 -5 -6 -14 -15 -6
-7 -14 0 -4 -6 -14 -14 -5
-7 -14 0 -4 -6 -14 -15 -5
-7 -15 0 -4 -6 -14 -15 -6
-7 -15 -2 -5 -6 -15 -16 -6
-7 -16 -2 -5 -6 -15 -17 -7
-8 -17 -3 -6 -7 -16 -18 -8
-7 -16 -3 -6 -7 -16 -18 -8
-5 -15 -3 -6 -7 -16 -18 -8
-4 -14 -3 -6 -7 -16 -18 -8
-2 -13 -3 -6 -7 -16 -18 -8
0 -12 -2 -7 -6 -15 -18 -8
-2 -12 -2 -7 -5 -15 -18 -8
-3 -12 -2 -7 -5 -14 -17 -8
-4 -12 0 -6 -4 -14 -17 -7
-5 -12 0 -6 -3 -13 -16 -7
-6 -13 1 -5 -2 -12 -15 -6
-6 -13 1 -5 -3 -12 -15 -6
-6 -13 1 -5 -3 -12 -15 -6
-6 -13 0 -5 -4 -12 -16 -6
-6 -13 0 -5 -5 -12 -16 -6
-5 -14 -2 -5 -6 -13 -17 -6
-5 -14 -2 -5 -6 -13 -17 -6
-5 -14 -2 -5 -6 -13 -17 -6
-4 -14 -2 -5 -5 -13 -17 -6
-4 -14 -2 -5 -5 -13 -17 -6
-3 -13 -2 -4 -4 -13 -18 -6
-3 -13 -2 -4 -4 -13 -17 -5
-3 -13 0 -3 -3 -12 -17 -5
-3 -13 0 -3 -3 -12 -16 -4
-3 -13 1 -2 -2 -11 -15 -3
-2 -13 2 1 0 -10 -14 -2
-2 -12 4 4 4 -7 -12 0
-2 -10 6 8 7 -5 -11 0
0 -9 8 12 11 -2 -9 1
0 -8 10 16 14 2 -8 2
2 -6 12 21 20 8 -3 5
7 -6 13 30 32 23 11 14
13 -5 14 39 45 39 25 24
18 -5 15 50 57 55 38 33
24 -4 17 59 70 71 53 44
30 0 18 68 85 91 68 55
37 10 21 79 108 118 92 71
46 21 24 90 131 147 114 89
54 31 27 101 153 176 138 105
62 42 30 112 176 203 160 121
68 51 30 113 189 225 179 137
66 59 16 81 172 223 186 146
64 66 2 50 153 221 192 154
63 74 -13 19 136 219 198 163
61 81 -27 -13 117 217 205 173
58 87 -43 -46 92 201 200 173
51 80 -59 -86 43 148 157 144
44 74 -75 -126 -6 96 114 115
36 68 -92 -165 -55 43 71 87
29 62 -108 -205 -104 -11 28 58
20 54 -121 -235 -145 -57 -10 32
7 40 -121 -239 -161 -83 -32 14
-7 27 -121 -242 -179 -110 -54 -4
-20 14 -120 -245 -195 -138 -76 -22
-33 0 -120 -248 -213 -164 -98 -39
-43 -11 -116 -244 -221 -181 -113 -53
-38 -11 -104 -216 -196 -162 -104 -49
-33 -11 -91 -186 -172 -144 -94 -44
-29 -10 -78 -157 -147 -124 -83 -39
-24 -10 -65 -128 -122 -106 -74 -34
-20 -9 -54 -102 -100 -90 -65 -29
-18 -7 -47 -87 -86 -77 -57 -25
-15 -5 -38 -72 -71 -65 -49 -21
-13 -4 -31 -57 -56 -54 -41 -16
-10 -2 -24 -43 -41 -41 -33 -12
-8 1 -18 -29 -29 -32 -27 -8
-8 0 -15 -24 -25 -28 -25 -7
-7 -2 -12 -19 -20 -24 -23 -6
-6 -3 -9 -14 -16 -21 -20 -5
-5 -5 -6 -9 -11 -17 -18 -4
-4 -6 -3 -5 -7 -14 -16 -3
-4 -6 -3 -4 -7 -14 -16 -4
-4 -6 -2 -3 -6 -14 -17 -5
-4 -6 -2 -2 -6 -14 -17 -6
-4 -6 0 1 -5 -14 -18 -7
-3 -7 1 2 -4 -15 -19 -8
-3 -7 1 2 -4 -14 -19 -8
-3 -8 1 2 -3 -13 -18 -7
-3 -8 1 3 -3 -12 -17 -6
-3 -9 1 3 -2 -10 -16 -5
-4 -10 1 4 0 -9 -15 -4
-4 -10 1 5 1 -9 -15 -4
-4 -10 2 6 2 -9 -14 -4
-4 -10 3 7 3 -8 -14 -4
-4 -10 4 9 4 -8 -13 -4
-3 -11 5 10 5 -7 -12 -3
-3 -11 5 10 5 -7 -12 -3
-3 -11 5 10 5 -7 -12 -3
-3 -11 5 10 5 -7 -12 -3
-3 -11 5 10 5 -7 -12 -3
-3 -10 5 9 5 -6 -11 -2
-3 -11 5 9 5 -6 -11 -2
-4 -12 4 9 4 -7 -12 -3
-4 -13 4 9 4 -7 -12 -3
-5 -14 3 9 3 -8 -13 -4
-6 -15 2 8 2 -9 -14 -5
-5 -14 3 9 3 -8 -14 -5
-4 -12 4 10 4 -7 -13 -4
-3 -10 5 11 5 -6 -13 -4
-2 -9 6 12 7 -4 -12 -3
0 -7 7 13 8 -3 -11 -2
0 -7 7 13 8 -3 -11 -2
1 -7 7 13 8 -4 -11 -2
1 -7 7 13 7 -4 -11 -2
2 -7 7 13 7 -5 -11 -2
3 -8 7 13 6 -6 -12 -3
3 -8 7 13 6 -6 -12 -3
3 -8 6 13 6 -6 -12 -3
3 -8 5 12 6 -5 -12 -3
3 -8 4 12 6 -5 -12 -3
3 -8 3 11 5 -4 -11 -3
1 -8 3 11 5 -4 -11 -3
0 -8 3 12 5 -4 -11 -3
-3 -9 4 13 6 -4 -11 -3
-5 -9 4 14 6 -4 -11 -3
-7 -10 5 15 7 -4 -12 -2
-6 -10 5 15 7 -4 -12 -2
-4 -9 4 14 7 -3 -11 -2
-2 -9 4 13 7 -3 -10 0
0 -8 3 12 7 -2 -9 0
2 -7 2 11 7 0 -8 1
2 -7 2 11 7 0 -8 1
2 -7 2 12 7 0 -8 1
2 -6 3 13 7 1 -8 1
2 -6 3 14 7 1 -8 1
3 -5 4 15 7 2 -7 0
3 -5 3 15 7 2 -7 0
3 -5 2 15 7 3 -6 1
3 -5 1 14 7 3 -6 2
3 -5 -2 14 7 4 -5 3
2 -6 -3 13 8 5 -4 4
2 -6 -3 13 8 5 -4 4
2 -6 -3 14 9 5 -4 4
2 -6 -2 15 10 5 -3 4
2 -6 -2 16 11 5 -3 4
2 -7 0 17 12 6 -2 3
2 -7 0 17 12 7 -2 4
2 -6 0 17 12 8 0 5
2 -5 0 16 12 9 0 6
2 -4 0 16 12 10 1 7
2 -3 -2 15 12 11 2 8
3 -2 -2 15 12 11 3 8
4 0 -2 15 12 12 4 9
5 1 -3 16 13 13 5 10
6 2 -3 16 13 14 6 11
7 3 -4 17 14 15 7 12
7 3 -4 17 14 16 8 13
8 4 -4 17 14 17 9 14
9 4 -4 17 14 18 10 15
10 5 -4 17 14 19 12 16
11 6 -5 16 15 20 13 17
11 6 -5 16 16 21 15 18
11 7 -6 17 17 23 16 20
12 8 -6 18 18 25 18 21
12 9 -7 19 20 26 20 22
13 10 -8 20 21 28 22 24
15 12 -8 20 21 29 24 26
17 14 -9 20 22 31 25 27
19 16 -9 20 22 32 27 29
21 18 -10 20 23 33 29 31
23 20 -11 20 24 35 31 33
23 20 -11 20 24 36 33 33
22 20 -12 20 24 38 34 34
22 19 -12 20 25 40 36 34
21 19 -13 20 25 42 38 35
20 18 -14 21 26 44 40 36
21 19 -15 21 26 45 43 38
22 21 -16 20 27 47 44 39
23 22 -17 19 27 49 46 42
24 23 -18 18 28 50 48 44
26 25 -20 17 29 52 50 46
28 26 -20 17 29 53 51 47
29 28 -20 17 30 54 52 48
31 29 -20 18 30 55 53 49
33 30 -20 18 31 56 54 50
35 32 -21 19 32 57 55 51
34 32 -21 19 32 57 56 52
33 32 -21 18 32 58 57 53
32 31 -21 18 32 59 58 54
31 31 -21 17 32 60 59 55
30 30 -22 16 33 61 61 56
29 30 -22 16 33 61 61 56
28 29 -22 16 33 61 61 56
27 29 -23 16 33 61 61 56
26 28 -23 16 33 61 61 56
25 27 -24 16 32 60 61 56
26 29 -24 16 32 60 61 56
27 32 -24 16 32 60 61 56
29 35 -23 16 32 61 61 57
30 37 -23 16 32 61 61 57
32 40 -22 15 33 62 62 58
30 39 -22 15 33 61 61 57
29 38 -21 15 33 60 60 56
27 36 -21 15 33 59 59 54
25 35 -20 15 33 58 58 53
23 33 -19 15 32 57 56 51
23 33 -18 15 31 55 54 49
23 32 -17 14 30 53 52 48
23 31 -16 13 29 51 50 46
23 30 -15 12 28 49 47 44
22 29 -14 11 26 47 45 42
21 28 -13 11 26 45 42 39
20 26 -11 11 25 42 39 36
19 24 -9 11 24 38 36 34
18 23 -8 11 23 36 33 32
17 21 -6 12 22 33 30 29
15 21 -6 12 22 31 28 28
14 20 -6 12 21 28 25 27
12 19 -5 11 21 26 22 25
10 18 -5 11 20 24 20 24
8 17 -4 10 19 21 17 22
7 15 -3 10 18 19 15 20
5 13 -2 10 17 18 13 17
4 11 0 10 16 16 11 14
2 9 1 10 15 14 8 12
0 7 2 9 13 12 6 9
0 7 2 8 12 10 5 8
0 6 2 7 11 9 3 6
-2 5 2 6 9 7 2 5
-2 4 2 5 8 5 0 3
-3 3 2 3 6 3 -3 1
-3 2 2 3 5 2 -4 0
-3 1 2 3 4 1 -6 -2
-4 0 2 3 3 0 -7 -3
-4 -2 2 3 2 -2 -9 -4
-5 -3 2 3 0 -4 -11 -6
-5 -3 2 2 -2 -5 -11 -6
-5 -4 2 1 -3 -6 -12 -7
-5 -5 2 0 -4 -7 -13 -7
-5 -6 2 -2 -5 -8 -14 -8
-5 -7 2 -3 -6 -9 -15 -9
-6 -7 2 -3 -6 -9 -15 -9
-7 -7 2 -2 -6 -9 -15 -10
-8 -7 3 -2 -5 -9 -15 -10
-9 -7 3 0 -5 -9 -15 -11
-10 -7 4 1 -4 -9 -16 -12
-10 -7 4 1 -4 -9 -16 -12
-10 -7 4 0 -5 -9 -16 -12
-10 -7 4 0 -5 -10 -16 -11
-10 -7 4 -2 -6 -10 -16 -11
-9 -8 3 -3 -7 -11 -15 -10
-9 -8 3 -3 -7 -11 -15 -10
-9 -8 3 -3 -7 -11 -16 -10
-9 -8 3 -2 -7 -11 -16 -10
-9 -8 3 -2 -7 -11 -17 -10
-9 -7 4 0 -8 -11 -18 -11
-9 -7 4 0 -8 -11 -18 -11
-9 -7 4 -2 -8 -11 -18 -11
-10 -7 4 -3 -8 -11 -17 -11
-10 -7 4 -4 -8 -11 -17 -11
-11 -8 3 -5 -8 -12 -16 -11
-10 -8 3 -5 -8 -12 -16 -11
-9 -8 3 -5 -8 -12 -17 -12
-8 -7 3 -5 -8 -13 -17 -12
-7 -7 3 -5 -8 -13 -18 -13
-5 -6 3 -4 -9 -14 -19 -14
-6 -6 3 -4 -9 -14 -19 -14
-7 -7 3 -4 -9 -14 -19 -14
-9 -8 3 -5 -9 -14 -19 -14
-10 -9 3 -5 -9 -14 -19 -14
-12 -10 4 -6 -9 -15 -19 -15
-12 -10 4 -6 -9 -15 -19 -15
-12 -10 4 -6 -10 -15 -20 -16
-12 -10 4 -6 -10 -16 -21 -17
-12 -10 4 -6 -11 -16 -22 -18
-12 -9 4 -5 -12 -17 -23 -19
-12 -9 4 -5 -12 -17 -23 -19
-12 -9 4 -5 -12 -17 -23 -18
-12 -10 4 -5 -12 -17 -23 -18
-12 -10 4 -5 -12 -17 -23 -17
-13 -11 3 -6 -11 -17 -22 -16
-13 -11 3 -6 -11 -17 -22 -16
-13 -12 3 -6 -11 -17 -22 -16
-13 -12 3 -7 -11 -17 -22 -16
-13 -13 3 -7 -11 -17 -22 -16
-14 -14 2 -8 -11 -17 -22 -17
-14 -14 2 -8 -11 -17 -22 -17
-14 -13 2 -7 -11 -17 -22 -17
-13 -12 3 -7 -11 -17 -21 -16
-13 -11 3 -6 -11 -17 -21 -16
-12 -10 4 -5 -10 -16 -20 -15
-12 -10 4 -5 -10 -16 -20 -15
-12 -11 4 -5 -10 -16 -20 -15
-12 -11 4 -5 -10 -16 -20 -15
-12 -12 4 -5 -10 -16 -20 -15
-13 -13 4 -5 -10 -16 -20 -15
-13 -13 4 -5 -10 -16 -20 -15
-13 -13 4 -5 -10 -16 -20 -15
-14 -13 4 -5 -10 -16 -20 -15
-14 -13 4 -5 -10 -16 -20 -15
-15 -13 4 -5 -10 -15 -20 -14
-15 -13 4 -5 -10 -15 -20 -14
-15 -13 4 -5 -10 -15 -21 -14
