I II V1 V2 V3 V4 V5 V6
17 -2 5 23 -12 -4 -7 -8
16 -2 4 22 -13 -5 -8 -8
18 1 5 24 -12 -2 -6 -5
19 4 5 26 -11 0 -3 -4
17 3 5 26 -11 1 -3 -3
14 0 4 26 -11 2 -2 -2
15 0 4 28 -11 3 -2 0
17 1 6 28 -10 3 -2 0
20 1 6 29 -10 2 -2 -2
22 1 5 29 -10 1 -3 -3
23 1 6 30 -10 1 -2 -3
22 3 7 31 -9 2 0 -2
20 4 8 31 -9 3 0 1
20 5 7 32 -9 3 0 1
21 4 6 31 -9 4 1 1
20 4 5 30 -9 5 1 0
19 5 5 32 -9 5 1 0
19 5 7 34 -7 6 2 1
20 5 8 36 -5 7 3 3
19 6 8 37 -5 7 3 4
19 5 7 35 -6 6 2 3
19 3 6 34 -7 5 2 2
19 4 6 34 -8 5 2 3
19 6 7 35 -7 6 3 5
19 7 6 34 -7 6 3 5
19 11 6 34 -8 7 4 5
19 13 7 36 -8 7 4 5
18 11 9 38 -7 9 6 7
18 7 10 40 -5 10 8 9
20 7 9 38 -7 8 6 8
21 8 6 36 -9 6 4 6
21 9 5 34 -9 6 3 6
20 10 6 35 -9 6 4 7
20 12 5 35 -10 6 4 7
21 10 5 34 -11 6 5 8
22 9 2 31 -13 5 4 7
21 10 1 30 -16 3 2 6
21 11 1 29 -17 2 1 5
19 11 4 31 -15 3 3 8
17 11 5 31 -17 3 4 8
14 10 3 29 -19 1 3 7
14 8 3 28 -18 1 4 9
16 10 2 27 -19 1 3 10
18 12 1 25 -21 0 2 10
18 12 -2 22 -23 -3 1 9
17 12 -2 20 -25 -3 0 9
20 12 -3 19 -27 -5 -2 9
22 12 -3 18 -29 -6 -3 7
21 12 -3 17 -30 -8 -4 6
19 13 -4 16 -32 -9 -5 6
17 14 -4 15 -33 -10 -6 5
14 13 -5 14 -34 -12 -7 5
14 14 -4 14 -34 -11 -6 6
16 16 -5 12 -36 -13 -6 6
18 14 -5 10 -38 -13 -6 6
17 12 -4 9 -39 -13 -6 8
15 12 -4 10 -40 -13 -6 10
12 10 -4 9 -43 -15 -8 9
9 7 -4 8 -46 -18 -11 4
10 7 -5 7 -47 -18 -12 2
13 9 -2 9 -45 -17 -10 3
15 11 -2 9 -45 -18 -10 3
13 11 -3 9 -45 -18 -10 3
11 7 -4 8 -46 -17 -10 3
11 5 -3 7 -45 -17 -10 3
12 5 -3 7 -46 -17 -10 3
12 6 -2 9 -46 -16 -9 3
11 7 -2 10 -46 -16 -9 2
10 6 0 12 -45 -15 -9 2
10 7 1 11 -45 -17 -10 2
13 10 0 10 -46 -18 -11 0
16 12 0 10 -46 -17 -11 -2
16 12 1 10 -45 -16 -10 0
15 9 2 11 -43 -15 -9 2
13 4 2 12 -41 -14 -8 1
11 2 1 12 -40 -13 -7 1
10 4 0 11 -43 -13 -8 1
11 3 0 11 -41 -12 -8 1
12 1 2 13 -40 -11 -7 1
12 -3 2 13 -39 -10 -6 1
13 -2 1 12 -40 -10 -7 0
13 1 1 12 -40 -11 -8 -3
12 2 0 11 -41 -11 -8 -4
10 0 1 11 -39 -9 -6 -2
11 -4 0 9 -39 -8 -6 -2
12 -5 -2 8 -39 -8 -6 -3
12 -4 -3 8 -40 -8 -7 -4
11 -3 -2 8 -40 -8 -6 -4
11 -6 1 10 -38 -6 -4 -2
11 -7 1 10 -39 -6 -4 0
10 -5 1 9 -39 -6 -5 -2
7 -5 1 8 -39 -7 -5 -3
7 -9 0 7 -40 -7 -6 -3
11 -8 0 6 -40 -7 -7 -3
13 -4 -3 4 -41 -8 -8 -5
12 -3 -3 3 -43 -10 -8 -5
11 -2 -4 2 -45 -11 -9 -6
10 -2 -5 1 -46 -11 -11 -7
8 -4 -5 1 -47 -11 -11 -8
8 -7 -4 2 -46 -10 -10 -6
8 -9 -3 2 -46 -10 -10 -6
7 -11 -4 2 -47 -10 -10 -7
8 -9 -4 2 -46 -10 -9 -7
11 -7 -4 1 -47 -10 -9 -8
11 -8 -4 1 -47 -10 -9 -8
9 -8 -5 -2 -49 -11 -11 -9
7 -8 -5 -2 -49 -11 -11 -8
6 -9 -5 -2 -49 -10 -10 -8
5 -10 -5 -3 -50 -11 -11 -7
5 -11 -3 0 -50 -10 -10 -6
7 -10 -2 1 -50 -10 -10 -6
8 -8 -2 2 -50 -11 -10 -6
6 -8 -3 1 -52 -11 -11 -8
4 -10 -3 0 -52 -11 -12 -8
3 -10 -4 -2 -52 -12 -12 -10
4 -9 -4 -2 -53 -12 -12 -10
5 -8 -2 0 -52 -11 -11 -9
6 -7 -2 0 -52 -12 -12 -10
4 -8 -2 0 -52 -12 -12 -9
2 -10 -2 1 -52 -11 -11 -8
4 -8 0 2 -52 -11 -11 -8
6 -7 0 2 -52 -11 -12 -9
6 -7 -2 1 -53 -11 -12 -10
4 -8 -2 1 -52 -10 -12 -9
4 -8 -2 2 -51 -10 -11 -9
4 -7 0 3 -52 -10 -11 -9
3 -7 1 3 -52 -10 -11 -9
5 -8 1 2 -51 -10 -11 -9
6 -9 0 2 -52 -10 -12 -10
3 -11 0 2 -57 -11 -13 -11
1 -11 2 3 -66 -10 -12 -10
1 -10 3 6 -67 -9 -10 -8
2 -9 2 5 -67 -9 -10 -8
0 -9 3 5 -66 -8 -10 -8
-2 -7 2 4 -65 -9 -11 -9
1 -7 2 5 -63 -9 -10 -7
4 -7 2 5 -62 -10 -11 -7
6 -7 3 6 -59 -8 -10 -7
3 -7 5 8 -55 -6 -7 -6
0 -8 6 10 -53 -6 -7 -7
0 -6 5 10 -53 -7 -8 -8
2 -5 4 9 -51 -7 -9 -8
1 -7 5 10 -49 -5 -8 -7
-2 -8 5 10 -47 -4 -7 -6
-3 -6 4 9 -46 -5 -8 -8
0 -3 4 9 -45 -5 -8 -8
3 -3 3 9 -44 -5 -8 -8
4 -4 3 10 -41 -4 -8 -8
3 -6 4 12 -39 -3 -7 -7
2 -6 4 12 -37 -3 -6 -5
2 -3 3 11 -36 -4 -7 -5
2 -3 3 11 -33 -4 -7 -5
1 -5 3 10 -32 -4 -8 -6
-2 -6 3 9 -31 -5 -7 -6
-2 -5 2 9 -31 -3 -6 -6
0 -4 3 9 -29 0 -5 -5
1 -3 3 10 -28 0 -5 -5
2 -4 3 10 -26 0 -5 -5
2 -3 3 11 -24 1 -5 -4
3 -3 4 10 -23 2 -4 -3
3 -5 4 10 -21 2 -4 -2
3 -8 5 12 -18 3 -2 0
4 -6 4 12 -17 3 -2 0
5 0 2 11 -17 3 -3 -3
6 1 2 10 -15 3 -3 -4
3 1 3 10 -15 3 -3 -4
2 3 1 7 -16 1 -5 -5
4 3 1 7 -15 2 -4 -3
5 -2 2 8 -13 3 -2 -2
2 -3 3 9 -12 4 0 0
1 2 2 9 -10 4 0 0
3 5 4 10 -6 5 2 2
4 4 4 11 -3 7 4 4
3 -3 3 9 -3 6 3 4
3 -6 0 5 -5 4 0 1
5 -5 -2 5 -4 4 0 0
5 -3 0 6 -3 4 0 0
2 -2 2 7 1 6 2 1
2 -2 2 7 1 6 2 0
3 -3 2 6 5 5 1 0
4 0 1 5 16 4 0 -2
5 1 1 4 20 4 -2 -2
6 2 1 4 21 4 0 0
6 3 2 5 22 5 2 2
7 5 2 5 22 6 2 2
6 5 0 2 20 5 1 1
4 1 -2 1 19 3 0 0
4 -2 -2 1 19 3 0 0
6 0 0 2 18 4 0 1
3 1 -2 1 17 3 -2 0
-3 -2 -2 0 16 2 -2 0
-3 0 -2 -2 16 3 -2 1
3 2 -2 -2 15 3 -2 1
5 0 0 0 15 3 1 1
3 -5 -2 0 16 5 2 1
2 -4 -2 -2 15 4 1 -2
4 -2 -4 -3 13 2 -2 -2
3 -3 -4 -3 13 2 -2 0
0 -5 -4 -3 13 2 -2 0
1 -5 -3 -3 12 2 -2 1
4 -3 -4 -5 10 1 -3 0
4 -2 -4 -6 11 1 -3 -2
2 2 -4 -6 11 1 -2 -2
1 5 -4 -6 11 1 -2 0
2 4 -3 -5 12 2 0 1
3 2 -3 -6 11 2 0 1
4 1 -4 -7 8 2 -2 1
4 -3 -4 -8 7 1 -3 0
2 -3 -4 -7 7 0 -3 0
2 1 -4 -6 7 0 -4 -2
4 3 -2 -4 9 2 -2 0
4 3 0 -3 10 3 1 2
2 3 -2 -5 9 2 0 2
2 0 -3 -6 9 2 0 2
2 -4 -3 -6 9 3 0 2
0 -5 -4 -6 9 4 1 2
1 -3 -4 -6 9 3 0 2
3 -2 -4 -6 8 2 -2 3
3 -2 -4 -8 7 1 0 3
3 -2 -5 -9 6 0 0 2
5 2 -4 -9 5 1 1 2
5 3 -4 -10 4 1 0 1
3 3 -4 -11 3 0 -3 -2
2 1 -5 -12 2 -3 -4 -3
1 2 -5 -12 2 -2 -3 -3
1 3 -3 -10 4 0 -2 0
1 3 -3 -9 4 1 0 1
1 2 -4 -9 4 2 0 1
3 2 -6 -10 3 1 -2 1
4 -2 -6 -10 3 1 -2 2
1 -4 -4 -9 4 2 0 4
-3 -2 -3 -9 5 3 1 4
-2 1 -4 -9 4 2 0 3
2 1 -5 -11 3 1 -2 2
5 1 -5 -11 3 2 0 1
7 4 -4 -9 4 2 0 2
8 6 -3 -8 4 2 0 3
5 3 -3 -9 3 2 1 3
3 1 -3 -9 2 3 1 3
3 3 -4 -9 2 3 2 3
5 5 -5 -9 2 3 2 4
5 3 -7 -10 1 2 0 2
3 1 -7 -11 1 2 0 2
2 1 -6 -11 1 2 0 3
3 2 -5 -10 2 3 1 4
2 0 -5 -11 1 3 1 3
0 -3 -5 -10 1 2 1 3
0 1 -4 -11 0 1 0 2
1 3 -4 -11 0 1 1 2
0 1 -4 -9 0 2 1 3
0 2 -4 -10 0 3 1 2
3 6 -5 -11 0 2 1 2
6 6 -5 -11 0 2 0 2
6 3 -3 -8 1 3 1 3
2 5 0 -5 4 6 4 5
1 12 0 -5 4 6 4 6
3 16 0 -5 4 7 4 6
5 16 0 -4 4 8 5 7
6 14 2 -3 6 10 7 9
5 14 5 1 9 12 10 11
5 16 6 2 9 12 10 11
4 16 7 4 10 13 11 11
5 16 8 5 10 14 12 12
8 19 7 4 9 13 11 11
10 23 6 3 9 13 10 11
10 24 7 4 11 15 11 12
10 23 9 6 12 16 13 13
11 23 10 7 13 16 13 14
10 21 10 8 13 16 14 13
11 20 11 9 13 16 14 14
15 19 11 10 14 18 16 16
15 20 9 10 15 19 17 17
13 21 5 8 15 19 17 18
15 24 1 6 13 18 16 17
17 26 0 6 15 20 18 17
17 24 0 6 15 21 19 19
17 20 1 8 17 23 21 21
16 20 2 8 17 24 20 21
13 20 1 8 17 24 20 20
15 20 -2 6 14 22 19 19
19 22 -3 2 11 19 17 17
18 21 -5 -4 7 16 15 16
14 17 -8 -8 3 13 12 13
12 15 -9 -10 1 11 10 12
14 15 -9 -9 1 12 10 12
15 15 -8 -9 2 13 12 13
14 14 -9 -9 1 13 11 14
14 12 -11 -11 -3 10 9 12
14 10 -11 -11 -5 9 8 12
14 10 -11 -11 -5 8 8 12
12 11 -11 -12 -5 7 8 11
10 11 -11 -14 -6 7 8 10
8 10 -11 -14 -7 6 7 9
9 10 -10 -14 -7 6 6 8
10 9 -10 -15 -8 5 6 7
7 6 -9 -15 -7 6 7 7
4 6 -9 -13 -7 7 6 7
1 7 -9 -13 -7 6 5 6
-2 4 -8 -13 -7 5 5 7
-5 0 -8 -14 -9 3 4 6
-6 -3 -8 -15 -10 3 2 6
-5 0 -10 -18 -12 1 0 3
-4 -2 -11 -19 -13 1 0 2
-3 -2 -11 -19 -14 -2 -2 1
-5 2 -11 -20 -15 -3 -4 1
-6 1 -11 -20 -15 -3 -3 1
-4 -5 -10 -19 -14 -2 -2 2
-2 -10 -9 -19 -14 0 -2 2
-3 -10 -10 -18 -14 -2 -2 2
-7 -9 -10 -18 -15 -3 -3 2
-9 -8 -10 -19 -16 -3 -3 2
-9 -7 -10 -19 -16 -3 -3 2
-7 -7 -11 -20 -17 -4 -4 0
-7 -7 -11 -20 -16 -4 -4 0
-7 -7 -10 -19 -15 -3 -3 0
-7 -5 -10 -20 -16 -4 -3 0
-7 -5 -12 -21 -18 -6 -6 -3
-7 -7 -12 -21 -20 -6 -7 -4
-7 -9 -10 -20 -18 -5 -5 -2
-7 -7 -10 -21 -19 -6 -5 0
-7 -5 -11 -22 -20 -6 -5 -3
-6 -5 -10 -20 -19 -5 -4 0
-6 -6 -9 -19 -17 -3 -3 2
-7 -7 -9 -19 -17 -3 -3 2
-9 -8 -10 -19 -18 -5 -4 0
-8 -5 -10 -20 -18 -6 -5 -3
-5 -2 -10 -19 -18 -5 -5 -2
-4 -2 -10 -18 -18 -5 -5 -3
-6 -6 -10 -18 -18 -6 -6 -4
-7 -7 -11 -20 -19 -7 -6 -4
-7 -8 -11 -21 -20 -7 -6 -4
-7 -10 -10 -20 -19 -7 -6 -4
-8 -11 -10 -20 -19 -7 -7 -5
-9 -11 -10 -20 -19 -6 -6 -5
-9 -11 -8 -17 -17 -7 -6 -4
-10 -9 -4 -12 -15 -6 -5 -3
-11 -4 1 -8 -14 -5 -5 -3
-12 1 7 1 -9 -3 -4 -2
-13 4 17 15 1 2 0 1
-10 6 25 32 11 8 3 1
-5 6 34 54 29 20 12 5
5 7 44 80 54 42 29 13
19 10 49 109 85 71 53 24
37 14 57 146 122 107 80 39
58 22 68 188 161 144 109 54
78 29 80 227 198 179 136 68
95 33 87 250 224 206 159 82
106 38 87 254 238 228 179 94
115 50 81 242 251 250 200 110
123 68 69 215 258 275 227 133
126 90 46 167 255 296 252 156
116 107 17 107 240 301 261 170
92 109 0 52 213 275 237 158
56 80 -4 1 156 202 167 109
21 20 -5 -54 67 80 53 29
-11 -41 -14 -114 -36 -51 -64 -49
-43 -73 -33 -180 -131 -148 -140 -94
-62 -82 -60 -242 -206 -205 -177 -112
-72 -91 -83 -282 -254 -233 -189 -117
-78 -98 -100 -290 -264 -232 -186 -115
-79 -98 -109 -277 -248 -213 -172 -107
-73 -92 -114 -259 -228 -192 -155 -97
-63 -81 -115 -237 -206 -172 -139 -87
-52 -70 -107 -207 -181 -149 -118 -73
-45 -59 -95 -179 -155 -128 -100 -61
-41 -47 -81 -155 -135 -111 -87 -52
-40 -32 -69 -132 -113 -94 -73 -43
-36 -19 -58 -108 -93 -76 -60 -33
-30 -11 -49 -91 -78 -64 -49 -27
-25 -10 -39 -74 -67 -55 -43 -23
-22 -9 -32 -62 -58 -49 -38 -22
-21 -9 -25 -50 -49 -43 -34 -20
-21 -12 -18 -38 -39 -36 -29 -17
-20 -15 -13 -30 -32 -31 -25 -15
-16 -12 -10 -24 -28 -27 -21 -12
-12 -9 -9 -19 -24 -23 -17 -10
-11 -10 -9 -19 -23 -22 -17 -10
-13 -13 -9 -18 -23 -23 -18 -10
-13 -14 -7 -16 -22 -22 -17 -9
-11 -13 -8 -15 -22 -22 -17 -9
-10 -13 -7 -14 -21 -23 -18 -11
-10 -13 -4 -12 -19 -21 -17 -10
-11 -11 -2 -10 -16 -19 -15 -9
-12 -11 -4 -10 -17 -19 -15 -10
-13 -12 -4 -10 -17 -20 -14 -10
-11 -11 -4 -10 -16 -20 -14 -10
-9 -10 -4 -9 -14 -19 -13 -9
-9 -10 -4 -7 -14 -19 -13 -8
-9 -11 -3 -6 -13 -18 -13 -7
-8 -11 0 -5 -13 -17 -12 -7
-7 -11 1 -3 -13 -18 -12 -8
-6 -9 1 -4 -14 -19 -13 -9
-7 -7 1 -4 -13 -19 -13 -9
-10 -9 0 -4 -13 -18 -14 -9
-10 -11 -2 -5 -12 -18 -14 -9
-7 -13 -4 -7 -13 -18 -14 -10
-7 -13 -4 -6 -13 -18 -14 -10
-9 -12 -4 -4 -12 -17 -12 -9
-7 -11 -3 -4 -12 -17 -11 -9
-5 -11 -2 0 -9 -16 -9 -9
-5 -10 0 1 -10 -17 -11 -9
-5 -10 0 1 -10 -18 -12 -9
-6 -11 1 2 -8 -17 -11 -8
-7 -11 1 1 -8 -16 -12 -9
-7 -11 0 1 -8 -16 -12 -9
-6 -11 0 1 -9 -16 -12 -9
-7 -11 -2 0 -9 -17 -13 -11
-8 -11 0 1 -9 -17 -12 -11
-5 -11 3 6 -5 -14 -8 -7
-2 -9 5 8 -3 -13 -8 -7
-5 -8 7 10 -2 -13 -8 -6
-8 -11 5 8 -5 -16 -10 -10
-8 -14 4 7 -5 -16 -10 -10
-6 -13 5 8 -4 -15 -9 -9
-4 -11 5 9 -2 -14 -8 -7
-5 -11 5 11 0 -13 -7 -6
-7 -11 3 10 -2 -14 -8 -6
-6 -10 2 10 -3 -15 -10 -7
-5 -9 0 8 -5 -18 -11 -9
-5 -10 1 10 -4 -17 -10 -9
-3 -9 3 12 -2 -16 -10 -7
-3 -10 5 15 1 -15 -9 -6
-5 -11 5 15 2 -15 -9 -7
-7 -10 5 15 3 -14 -8 -7
-7 -10 5 16 4 -14 -8 -6
-7 -12 4 15 3 -15 -9 -7
-7 -12 3 15 3 -15 -9 -7
-6 -8 2 14 1 -16 -9 -7
-4 -6 1 14 0 -17 -9 -7
-3 -8 2 16 2 -17 -9 -8
-3 -10 4 19 5 -15 -8 -6
-5 -11 6 21 7 -13 -6 -5
-7 -11 7 22 8 -13 -6 -4
-5 -10 7 22 7 -13 -7 -4
-4 -9 7 23 8 -12 -6 -3
-2 -8 7 22 10 -11 -5 -2
-2 -7 6 22 11 -11 -8 -2
-2 -6 6 21 10 -12 -16 -2
-4 -7 6 21 9 -12 -18 0
-5 -8 5 22 10 -11 -16 1
-5 -8 6 23 10 -11 -15 1
-4 -7 7 24 10 -12 -14 1
-3 -8 8 25 12 -11 -11 1
-2 -6 7 25 12 -11 -10 1
0 -2 6 24 11 -12 -9 0
2 2 5 24 12 -12 -8 0
2 1 4 23 12 -13 -7 0
-2 -2 5 24 14 -11 -4 3
-3 -2 5 25 15 -10 0 5
-2 0 6 28 16 -9 2 5
-3 -2 7 30 16 -10 2 4
-5 -3 7 28 14 -11 2 3
-4 -3 7 27 14 -11 4 4
2 2 6 26 13 -12 5 4
6 7 5 25 12 -14 6 3
6 7 5 25 13 -14 8 5
3 3 3 23 13 -14 9 4
-2 1 3 22 11 -15 10 4
-2 2 4 23 10 -15 13 6
2 4 5 23 11 -15 17 8
5 4 4 22 9 -16 26 7
5 5 3 21 7 -18 29 6
4 9 2 19 6 -20 29 5
2 11 2 18 6 -20 29 6
1 9 2 16 5 -21 29 8
1 6 1 14 4 -22 28 8
1 5 0 12 1 -24 26 6
1 5 -2 11 -2 -25 24 5
3 5 -2 10 -4 -28 24 5
3 7 0 10 -4 -28 24 5
1 9 1 10 -4 -29 23 6
0 9 1 9 -6 -30 22 5
0 8 0 7 -8 -32 22 5
1 9 0 6 -9 -33 22 5
3 9 -2 4 -11 -34 21 7
2 7 -2 4 -11 -34 22 7
-2 6 -5 0 -13 -36 19 4
-4 7 -6 -3 -15 -37 18 3
-4 7 -5 -3 -16 -38 18 4
-3 5 -4 -2 -17 -39 17 4
-3 6 -3 -2 -17 -40 16 4
1 8 -5 -3 -19 -44 14 2
3 8 -5 -3 -19 -45 13 1
1 5 -3 0 -16 -43 14 2
-4 4 -2 1 -15 -43 15 3
-7 4 -3 0 -16 -43 15 3
-6 4 -4 -4 -17 -45 14 2
-4 4 -4 -4 -18 -46 13 1
-4 5 -5 -4 -19 -47 12 0
0 8 -3 -3 -18 -46 12 0
4 13 -2 -2 -17 -46 11 -2
4 11 1 1 -16 -45 13 0
0 2 2 3 -14 -43 15 1
-3 -5 4 4 -11 -41 16 2
-4 -4 3 4 -11 -43 14 2
-4 -2 2 3 -11 -43 14 2
-2 0 1 2 -10 -43 15 2
2 2 1 3 -10 -41 16 2
2 4 1 4 -9 -40 16 2
0 3 2 4 -7 -39 17 1
-4 2 1 4 -8 -40 16 0
-4 1 2 5 -6 -39 17 1
-3 -2 4 5 -5 -38 17 0
-3 -6 4 4 -4 -38 17 0
-2 -7 2 3 -5 -38 16 -2
-2 -6 1 4 -4 -36 18 -2
-4 -4 1 3 -4 -37 18 -2
-3 -3 -2 1 -5 -39 16 -4
1 -4 0 2 -4 -37 17 -3
1 -5 0 3 -4 -36 18 -3
-3 -7 1 4 -3 -36 17 -2
-6 -8 1 2 -3 -37 16 -3
-7 -8 0 1 -3 -38 15 -4
-5 -8 0 0 -3 -38 14 -5
-3 -9 -2 -2 -4 -39 14 -6
-4 -9 0 -2 -3 -39 15 -5
-7 -9 1 -2 -3 -40 14 -5
-8 -9 0 -3 -4 -41 13 -6
-7 -7 1 -3 -5 -41 13 -7
-5 -4 0 -2 -6 -43 12 -8
-4 -5 1 -2 -6 -44 11 -8
-6 -8 2 -2 -6 -45 10 -9
-9 -11 0 -4 -8 -48 8 -11
-11 -12 -2 -6 -7 -49 7 -11
-9 -11 -2 -6 -7 -49 7 -10
-5 -10 -2 -6 -7 -48 7 -9
-4 -9 -2 -6 -7 -48 8 -9
-6 -8 -2 -6 -8 -48 8 -9
-7 -8 -2 -6 -8 -48 8 -9
-8 -9 0 -3 -7 -47 10 -8
-9 -12 0 -4 -7 -48 8 -8
-10 -14 0 -5 -8 -50 6 -9
-8 -12 -2 -6 -10 -51 4 -11
-6 -10 1 -4 -8 -49 6 -10
-7 -10 1 -4 -7 -49 7 -9
-8 -13 0 -4 -7 -50 7 -11
-10 -16 -2 -5 -8 -51 6 -12
-11 -15 -3 -7 -9 -53 6 -12
-13 -11 -4 -8 -10 -54 5 -13
-15 -10 -3 -7 -9 -54 3 -13
-14 -12 0 -5 -8 -53 4 -12
-12 -16 2 -4 -6 -51 6 -11
-12 -17 2 -4 -7 -52 4 -13
-13 -15 1 -4 -7 -52 3 -14
-12 -13 2 -4 -6 -51 4 -13
-13 -14 4 -2 -3 -50 6 -10
-13 -15 4 0 -4 -51 6 -10
-11 -14 4 -2 -5 -52 5 -11
-9 -12 4 -2 -5 -53 5 -11
-10 -12 5 0 -4 -51 6 -10
-10 -11 6 2 -2 -50 7 -8
-7 -10 6 2 0 -49 8 -8
-7 -11 5 2 -2 -51 6 -9
-9 -11 3 -2 -4 -54 3 -11
-13 -11 4 1 0 -51 4 -9
-13 -11 4 2 0 -50 5 -9
-12 -11 2 0 -3 -53 3 -12
-11 -11 0 -2 -4 -54 2 -13
-9 -11 -3 -3 -7 -56 1 -15
-9 -13 0 0 -4 -55 2 -13
-10 -14 4 2 0 -54 4 -11
-12 -11 4 3 0 -54 3 -12
-12 -8 4 3 1 -54 2 -13
-10 -5 3 2 1 -54 2 -14
-9 -5 3 2 0 -54 3 -14
-11 -6 2 2 0 -54 3 -14
-10 -6 3 3 2 -52 5 -12
-8 -7 4 4 4 -50 6 -10
-8 -11 5 5 5 -49 7 -8
-10 -11 5 6 6 -49 8 -9
-9 -8 4 6 5 -50 7 -9
-6 -5 4 5 4 -51 6 -10
-5 -7 5 5 5 -51 6 -8
-7 -9 5 6 7 -49 8 -5
-10 -9 3 6 6 -50 7 -6
-9 -8 4 5 7 -50 8 -6
-8 -9 4 5 8 -49 8 -6
-7 -8 4 5 7 -50 8 -6
-7 -6 4 6 7 -50 8 -6
-9 -5 4 6 7 -50 8 -7
-11 -5 6 6 7 -48 9 -5
-9 -5 6 6 7 -49 10 -5
-7 -6 6 6 8 -51 11 -4
-5 -7 5 4 8 -62 9 -4
-3 -6 4 4 8 -64 10 -4
-3 -5 4 5 10 -61 12 -3
-7 -5 4 5 10 -60 13 -3
-9 -5 3 5 9 -60 12 -3
-7 -4 1 4 8 -61 10 -3
-4 -6 3 4 9 -58 11 -2
-4 -8 4 4 9 -56 11 -3
-5 -5 3 4 8 -56 10 -4
-7 -3 3 3 8 -55 9 -5
-7 -4 2 3 8 -53 9 -6
-7 -5 2 3 8 -50 10 -6
-7 -3 3 3 9 -48 12 -4
-6 0 3 2 8 -48 12 -3
-6 -2 1 0 7 -49 10 -3
-6 -6 2 1 8 -47 11 -2
-6 -8 4 2 8 -44 12 0
-6 -8 4 1 7 -44 10 0
-6 -7 2 0 6 -43 10 -2
-6 -7 2 -2 6 -41 10 0
-5 -5 2 -3 6 -40 9 0
-4 -3 1 -3 6 -38 10 0
-4 -3 1 -3 6 -36 11 0
-5 -3 1 -4 4 -36 10 0
-5 -3 0 -5 3 -36 9 -2
-2 -3 0 -4 3 -35 9 -2
0 0 0 -4 4 -34 8 -2
-3 -2 1 -5 4 -33 7 -3
-6 -4 2 -4 5 -31 8 -2
-6 -3 3 -3 5 -28 8 -2
-6 0 3 -3 5 -28 8 0
-8 -2 0 -6 3 -29 7 -3
-8 -3 -3 -8 1 -30 5 -5
-5 -3 -3 -7 2 -28 5 -4
0 -3 -2 -6 3 -26 6 -4
4 -2 -2 -6 2 -25 5 -5
5 0 -2 -6 2 -24 5 -6
3 -3 0 -6 2 -23 5 -6
0 -5 -3 -8 0 -24 3 -7
-4 -5 -3 -9 0 -22 4 -6
-6 -6 -2 -9 0 -19 5 -5
-6 -7 -3 -10 0 -18 6 -4
-5 -7 -6 -12 -2 -18 4 -5
-3 -4 -6 -11 0 -16 4 -3
-3 -4 -4 -10 1 -15 5 -2
-3 -4 -3 -9 2 -13 6 -2
0 -2 -3 -9 2 -13 5 -2
-2 -2 0 -8 3 -11 5 0
-6 -4 0 -9 1 -10 4 -2
-5 -5 -2 -11 -3 -11 3 -3
0 -3 -3 -12 -3 -10 3 -3
1 -2 -3 -12 -3 -11 2 -5
0 -4 -3 -12 -3 -9 2 -5
0 -4 -2 -11 0 -6 3 -4
2 -3 -2 -11 -2 0 3 -4
1 -5 -3 -12 -3 9 2 -6
-2 -4 -4 -13 -5 12 1 -7
-2 1 -2 -12 -5 12 1 -6
0 2 -3 -13 -5 10 -2 -7
-2 -4 -5 -14 -6 9 -3 -8
-6 -6 -3 -13 -4 10 0 -6
-7 -5 0 -11 -2 13 2 -3
-5 -4 -3 -12 -3 11 1 -3
-3 -4 -4 -13 -4 10 0 -4
0 -3 -5 -13 -5 10 0 -4
2 -3 -5 -14 -5 9 0 -4
1 -5 -4 -13 -5 10 1 -4
-3 -7 -2 -12 -4 11 2 -3
-4 -7 -2 -11 -3 11 3 -3
-2 -6 -2 -12 -3 11 2 -3
1 -4 -3 -13 -4 10 1 -4
-2 -2 -3 -13 -5 9 -2 -5
-3 -3 -4 -13 -5 9 0 -5
-4 -4 -3 -12 -3 9 1 -4
-7 -5 -3 -12 -3 9 0 -5
-6 -5 -4 -14 -5 8 -2 -7
-2 -3 -5 -15 -6 6 -3 -7
0 -2 -4 -15 -6 5 -3 -7
-3 -4 -3 -14 -5 7 -2 -6
-4 -7 -3 -14 -6 7 -2 -4
-4 -7 -2 -14 -4 9 1 0
-2 -5 -2 -12 -4 10 3 1
0 -4 -4 -13 -4 9 2 0
0 -4 -5 -15 -6 6 0 -4
-2 -2 -5 -16 -7 6 -2 -5
0 2 -5 -16 -7 5 -3 -5
0 3 -4 -14 -6 6 -3 -5
-3 2 -3 -13 -6 5 -3 -5
-4 2 -3 -14 -7 3 -4 -6
-2 1 -2 -14 -7 4 -4 -6
1 0 1 -13 -5 5 -2 -5
1 2 2 -12 -3 6 0 -5
1 3 4 -10 0 9 3 -2
3 4 5 -10 1 10 4 1
5 4 4 -10 1 10 4 2
4 3 5 -9 2 10 5 3
3 5 6 -7 2 10 5 3
2 9 8 -6 2 11 6 4
1 13 8 -6 3 11 4 4
4 13 9 -4 4 11 4 4
9 16 11 0 7 13 6 6
11 18 12 1 8 15 8 6
8 17 13 2 10 17 10 8
7 16 13 2 10 16 9 9
6 17 12 2 9 15 9 9
6 17 12 3 10 14 9 8
6 15 14 4 11 16 10 8
8 12 14 5 12 16 10 8
11 12 12 5 11 14 9 7
12 16 12 5 13 16 10 9
13 20 10 3 13 17 10 9
15 21 7 2 11 17 11 9
17 18 6 1 11 17 12 9
18 18 5 3 13 18 13 10
18 21 3 1 11 17 12 10
18 20 1 0 11 16 11 10
16 18 3 2 13 18 14 13
15 18 3 2 13 18 14 13
18 15 2 1 12 17 13 13
20 13 1 -3 9 15 11 11
19 13 -3 -7 6 13 9 9
17 13 -4 -10 5 12 8 9
17 14 -5 -11 3 11 8 10
18 14 -7 -12 1 10 7 10
16 14 -7 -13 0 9 8 9
14 10 -7 -13 1 8 7 8
16 8 -8 -15 -2 6 3 6
18 8 -10 -17 -5 3 1 3
17 7 -9 -17 -5 2 0 3
13 4 -7 -16 -5 3 0 4
12 3 -6 -14 -3 5 2 6
13 6 -5 -14 -2 5 3 6
12 5 -7 -16 -5 2 1 5
9 2 -8 -18 -7 1 0 4
9 1 -6 -17 -5 2 2 5
10 4 -5 -16 -5 1 1 4
9 5 -4 -15 -5 0 0 3
8 4 -4 -16 -6 -2 -3 2
5 2 -4 -16 -8 -4 -5 0
2 0 -5 -18 -10 -7 -8 -5
1 -2 -5 -20 -10 -8 -9 -8
3 -2 -7 -21 -10 -8 -10 -9
3 -3 -7 -20 -11 -8 -9 -8
2 -4 -9 -24 -15 -11 -12 -10
4 -3 -11 -26 -17 -13 -13 -11
4 0 -10 -25 -15 -12 -12 -8
0 -5 -9 -24 -14 -10 -11 -6
-3 -10 -7 -21 -13 -9 -8 -3
-2 -10 -6 -22 -13 -9 -9 -3
0 -8 -6 -22 -14 -9 -10 -4
-2 -7 -7 -22 -14 -10 -10 -5
0 -8 -8 -23 -14 -10 -10 -6
0 -10 -7 -22 -13 -10 -9 -5
-3 -9 -7 -22 -13 -10 -9 -5
-3 -7 -6 -22 -13 -10 -9 -5
-3 -6 -7 -23 -15 -12 -11 -7
-3 -6 -7 -23 -15 -13 -12 -8
-3 -6 -7 -22 -15 -14 -12 -7
-4 -7 -6 -21 -14 -13 -11 -6
-5 -8 -5 -20 -13 -12 -11 -5
-4 -7 -6 -21 -14 -13 -12 -7
-2 -7 -7 -22 -15 -14 -12 -7
-2 -7 -7 -23 -15 -14 -12 -7
-4 -9 -5 -21 -13 -12 -11 -5
-5 -10 -5 -20 -14 -11 -11 -6
-5 -8 -3 -19 -12 -11 -9 -4
-4 -6 -3 -20 -13 -11 -9 -5
-4 -5 -5 -22 -15 -13 -12 -8
-3 -6 -6 -23 -16 -14 -13 -8
-3 -7 -9 -22 -16 -14 -12 -7
-3 -9 -20 -22 -16 -14 -12 -6
-2 -11 -23 -21 -17 -12 -11 -5
-2 -10 -21 -21 -29 -13 -12 -6
-4 -8 -19 -19 -31 -14 -13 -7
-6 -7 -14 -16 -29 -13 -13 -8
-8 -6 -9 -12 -26 -13 -12 -7
-10 -4 0 -5 -21 -11 -11 -6
-12 2 9 8 -13 -8 -9 -6
-9 6 21 27 1 0 -5 -3
-4 10 33 50 18 11 4 2
7 9 43 75 43 31 20 9
21 10 54 105 73 60 44 21
37 17 76 143 116 96 72 36
58 27 93 186 170 132 100 51
78 32 104 226 211 164 126 63
96 33 111 252 239 194 149 77
110 40 113 261 258 219 171 94
122 56 111 254 271 241 193 111
134 74 98 228 278 265 217 131
140 96 72 183 277 285 240 152
137 115 44 126 267 294 253 168
115 120 24 67 242 275 237 162
78 95 17 9 187 209 175 121
40 36 14 -53 93 91 64 44
4 -29 3 -120 -18 -45 -57 -41
-33 -71 -16 -185 -114 -145 -139 -93
-60 -87 -41 -244 -187 -202 -177 -111
-69 -92 -69 -285 -236 -233 -193 -119
-71 -96 -87 -294 -248 -235 -192 -119
-70 -96 -93 -279 -234 -217 -176 -109
-65 -91 -93 -256 -211 -193 -156 -97
-55 -82 -92 -232 -188 -173 -140 -87
-46 -68 -85 -204 -163 -151 -121 -75
-39 -51 -70 -174 -137 -127 -101 -61
-35 -36 -53 -144 -111 -105 -83 -48
-32 -25 -39 -119 -90 -87 -68 -36
-29 -16 -31 -98 -71 -71 -55 -28
-25 -11 -23 -80 -57 -59 -45 -22
-21 -7 -16 -67 -47 -52 -39 -19
-16 -4 -10 -56 -39 -46 -35 -17
-13 -5 -2 -44 -30 -38 -29 -13
-11 -9 4 -33 -23 -33 -26 -12
-8 -10 10 -25 -17 -28 -23 -11
-7 -8 13 -20 -14 -25 -22 -10
-8 -8 14 -15 -11 -23 -19 -8
-9 -8 14 -12 -8 -21 -17 -7
-8 -6 15 -11 -7 -20 -16 -6
-7 -6 16 -9 -7 -19 -14 -6
-6 -9 17 -7 -10 -18 -14 -5
-6 -8 18 -6 -20 -17 -14 -4
-5 -3 17 -6 -24 -19 -16 -6
-5 0 17 -6 -22 -19 -17 -7
-6 -6 18 -5 -18 -18 -15 -6
-7 -9 18 -4 -16 -16 -12 -5
-6 -8 18 -4 -15 -15 -11 -4
-5 -7 17 -3 -14 -13 -10 -3
-3 -7 17 0 -11 -12 -9 -2
-3 -8 19 3 -8 -12 -9 -2
-2 -6 19 4 -8 -13 -10 -2
-3 -5 21 5 -7 -12 -10 0
-3 -4 23 7 -4 -12 -9 1
-2 -5 23 7 -2 -12 -8 1
0 -5 19 2 -3 -14 -11 -3
-4 -6 18 0 0 -13 -9 -3
-4 -5 18 1 1 -12 -9 -2
-2 -4 19 4 5 -11 -7 0
-2 -5 19 6 7 -9 -6 1
0 -5 18 5 7 -11 -8 0
0 -4 18 6 8 -11 -9 0
-4 -6 19 7 10 -11 -8 0
-4 -5 19 7 11 -12 -9 -2
0 -2 20 9 13 -11 -9 -3
1 -2 20 9 15 -11 -9 -2
-2 -5 19 8 16 -10 -8 -2
0 -5 17 7 17 -11 -8 -2
1 -3 18 9 24 -11 -7 0
0 -2 19 10 37 -10 -6 1
-3 -2 20 11 43 -9 -6 1
-2 -3 20 11 43 -9 -7 0
1 -3 21 12 43 -9 -7 1
3 1 22 15 44 -7 -5 2
3 4 23 15 45 -8 -6 1
2 4 21 13 44 -10 -7 0
2 4 20 12 43 -10 -8 -2
5 3 19 13 43 -9 -7 -3
8 1 20 14 44 -8 -6 -2
10 -2 20 14 45 -8 -5 1
9 0 20 17 45 -8 -6 2
5 1 20 18 45 -8 -6 2
1 0 21 19 45 -7 -5 3
1 -3 23 20 46 -5 -3 4
2 0 24 22 48 -5 -3 4
4 1 23 21 47 -6 -4 2
4 1 22 19 46 -7 -5 0
2 1 21 20 46 -5 -4 0
2 1 21 21 47 -4 -3 3
3 3 21 21 48 -4 -2 4
1 3 22 24 50 0 2 7
-2 2 23 27 51 1 4 9
-2 1 23 27 50 1 3 9
0 1 23 26 49 0 1 7
1 2 22 26 49 -3 0 5
4 3 23 26 50 -2 1 7
6 4 23 27 51 0 2 8
4 8 22 26 50 -2 1 8
3 8 21 25 49 -3 0 8
6 6 21 25 48 -2 1 8
9 7 21 27 48 -2 0 7
10 8 21 28 49 -2 0 7
9 6 23 30 51 2 3 10
8 4 25 32 53 4 5 12
6 4 25 33 54 3 5 13
7 7 22 30 52 2 4 11
10 10 22 31 53 3 5 11
11 12 23 32 55 5 6 12
9 9 23 33 55 5 7 12
6 6 21 32 54 5 7 12
6 7 20 32 52 4 7 13
9 11 19 31 51 3 6 13
10 12 22 33 52 4 7 14
9 12 22 32 51 3 7 13
8 11 22 32 51 4 7 14
11 11 23 32 52 5 8 16
13 13 22 32 53 5 8 16
12 15 21 32 52 4 8 16
11 16 19 30 50 3 7 16
12 17 18 28 48 2 7 16
12 15 17 27 47 1 6 16
9 13 18 28 46 2 6 16
8 14 20 29 47 2 7 17
10 16 19 27 45 1 6 16
10 15 19 25 45 0 5 17
9 16 17 23 43 0 4 17
10 17 17 23 42 0 5 17
10 17 17 23 40 0 7 19
10 17 15 20 38 -3 5 18
9 17 13 16 34 -6 3 16
9 17 12 15 32 -8 1 15
10 20 11 15 31 -9 0 15
9 23 12 14 29 -11 -2 15
9 23 11 12 26 -13 -3 13
9 19 12 11 25 -13 -4 13
9 17 11 9 23 -15 -5 13
8 16 11 8 23 -15 -5 14
8 17 10 7 22 -15 -5 14
10 18 9 5 21 -16 -6 14
9 17 9 5 19 -17 -6 14
4 15 11 6 20 -17 -6 14
3 15 11 5 18 -18 -8 13
5 16 12 6 18 -18 -7 13
6 17 12 7 18 -19 -8 13
4 19 11 6 16 -20 -9 11
4 22 10 4 15 -22 -10 10
6 22 10 5 16 -21 -8 11
7 17 11 6 17 -20 -8 11
5 13 12 8 18 -18 -8 12
7 13 12 8 17 -18 -8 10
10 15 14 10 18 -17 -6 11
10 18 15 12 19 -17 -5 13
8 18 15 11 18 -18 -6 13
7 20 14 10 17 -20 -8 11
8 21 13 8 16 -20 -9 10
8 18 15 9 17 -18 -7 11
7 12 16 11 20 -15 -6 13
6 10 16 12 21 -15 -6 12
7 12 15 11 21 -14 -6 11
7 11 14 11 22 -13 -5 12
8 10 14 11 23 -12 -5 12
8 11 16 13 24 -11 -4 12
9 13 16 14 24 -11 -4 10
9 14 16 13 24 -11 -5 9
7 11 16 14 26 -10 -3 10
7 8 15 14 28 -8 -2 10
8 9 14 13 26 -9 -3 9
9 11 13 11 25 -10 -4 7
8 9 13 11 26 -8 -2 6
7 7 15 11 27 -6 0 8
7 7 15 11 27 -6 -2 8
9 7 14 10 26 -7 -3 8
9 8 14 9 25 -8 -3 8
8 8 15 11 26 -6 -2 10
8 6 14 10 26 -6 -3 10
8 4 14 9 25 -7 -3 9
9 5 12 7 24 -9 -3 7
11 9 11 7 23 -9 -4 7
12 9 11 7 24 -8 -3 7
9 5 11 6 23 -8 -4 6
6 2 12 7 24 -7 -4 6
5 3 12 8 23 -7 -4 5
3 4 13 7 23 -7 -4 5
1 4 13 7 22 -9 -5 5
3 4 14 7 23 -8 -5 5
7 5 12 4 21 -10 -7 3
8 5 10 2 19 -11 -8 2
5 2 10 2 19 -11 -7 2
4 1 10 2 20 -11 -7 3
5 6 11 3 19 -10 -6 4
7 8 11 4 19 -10 -6 4
7 4 12 4 19 -9 -6 4
5 -2 13 6 20 -8 -5 5
4 -2 12 5 18 -10 -6 3
5 1 11 4 18 -10 -7 2
8 5 11 5 19 -9 -7 3
8 6 13 6 20 -9 -6 4
7 5 12 6 19 -10 -7 4
7 4 10 3 16 -13 -10 1
6 1 9 1 15 -13 -11 0
4 -2 9 0 13 -13 -11 -2
4 2 10 2 15 -12 -10 0
6 3 12 4 17 -10 -8 1
7 -2 14 7 18 -8 -7 1
6 -3 15 8 19 -9 -8 0
4 1 13 6 17 -11 -10 -3
2 1 13 6 18 -10 -9 -2
2 1 12 6 18 -9 -9 -2
2 3 10 6 17 -10 -11 -3
2 2 11 7 17 -9 -9 -3
1 -3 12 8 18 -9 -8 -2
0 -5 13 9 19 -8 -7 1
0 -2 13 8 18 -9 -8 1
2 2 14 9 18 -9 -9 1
4 5 13 8 17 -11 -10 0
4 3 14 9 19 -10 -8 0
4 1 13 9 19 -9 -7 2
3 2 14 11 21 -6 -5 4
2 4 15 12 22 -5 -4 4
4 5 15 11 21 -5 -4 3
6 4 15 12 21 -4 -4 4
6 4 16 13 21 -3 -5 4
5 4 16 14 22 -4 -5 2
5 4 15 14 21 -4 -5 0
4 4 14 13 21 -5 -6 -2
0 4 15 13 22 -4 -6 0
-4 4 15 13 22 -4 -6 0
-3 3 15 14 23 -3 -5 1
2 4 15 14 23 -2 -4 3
5 4 16 15 25 1 -3 4
4 5 16 16 25 1 -3 3
4 5 16 16 24 0 -3 2
6 5 14 15 23 0 -4 2
7 6 14 16 23 1 -3 3
4 6 16 17 25 3 1 6
2 7 16 17 25 3 1 6
4 8 16 16 25 3 1 6
8 10 14 14 23 1 -2 4
9 10 14 15 24 1 -2 5
8 9 13 14 23 1 -2 4
6 7 14 16 24 3 0 5
4 7 14 15 24 3 0 4
3 8 14 15 24 3 1 4
4 9 15 15 24 4 1 5
5 9 14 14 23 3 0 4
6 9 16 15 25 5 1 5
5 10 16 16 26 7 3 5
4 10 14 15 25 5 2 5
3 8 12 13 24 4 1 6
6 7 13 13 24 4 1 6
9 10 11 13 23 4 2 5
8 14 10 12 22 4 1 5
5 14 11 13 23 5 2 7
5 11 12 14 24 6 4 8
5 9 12 14 23 6 4 7
6 10 11 13 23 7 4 8
6 12 11 12 23 6 4 7
6 14 10 11 21 6 3 6
6 12 10 10 20 6 4 7
6 10 10 9 21 6 4 8
7 8 10 10 20 6 4 8
8 7 10 10 20 6 4 7
9 9 10 9 19 5 3 5
9 11 9 9 18 4 2 5
7 10 8 7 17 2 1 4
5 7 7 5 17 2 0 3
6 4 7 5 18 3 1 4
7 5 8 6 18 3 2 4
5 8 7 6 18 3 2 4
3 7 7 7 17 4 2 4
4 3 7 7 17 4 2 5
6 2 6 6 16 3 1 4
9 5 6 4 14 2 1 4
11 8 6 3 13 1 0 4
9 8 4 0 12 -2 -4 2
7 7 5 0 12 0 -3 2
7 9 7 2 14 2 0 5
7 11 8 3 15 3 2 6
5 9 7 2 14 4 2 7
5 8 6 1 13 3 2 7
6 10 5 1 12 2 1 5
4 11 4 1 12 2 1 5
1 8 4 0 12 3 2 6
4 5 5 0 10 1 1 5
9 4 5 0 11 2 1 5
10 5 5 0 11 2 1 4
8 5 6 -2 11 2 1 4
5 3 6 -3 10 1 0 3
5 4 4 -3 10 0 0 2
6 7 4 -3 9 1 1 3
5 10 3 -3 8 0 0 4
3 9 3 -3 8 0 0 3
3 6 3 -4 7 2 0 3
6 6 4 -4 7 2 0 3
7 7 4 -5 7 1 1 4
6 8 3 -5 7 1 1 4
5 8 3 -5 6 1 1 3
6 7 1 -7 5 0 -2 1
6 6 1 -7 5 0 -2 2
6 5 1 -8 4 -2 -2 2
5 4 2 -8 4 -2 -2 3
7 6 1 -8 3 -2 -3 2
6 7 1 -7 4 -2 -3 2
5 6 1 -7 3 -2 -3 1
4 4 0 -7 4 0 -2 2
3 3 1 -7 4 0 0 2
3 4 1 -7 3 -2 0 2
5 4 0 -8 2 0 0 1
8 5 1 -7 3 2 1 3
9 6 2 -7 4 1 1 4
7 6 2 -7 3 1 1 4
5 5 1 -7 2 0 0 4
4 5 0 -8 2 0 0 3
6 6 0 -7 2 0 0 3
8 6 0 -8 1 -2 0 2
7 4 0 -9 2 0 0 2
5 3 0 -10 1 -2 0 2
4 1 -2 -10 0 -2 -2 2
3 0 -2 -9 0 -2 -2 2
4 1 -2 -9 0 -2 -2 2
6 5 -3 -10 -2 -3 -3 0
7 5 -3 -9 -2 -3 -4 -2
4 4 -3 -10 -3 -3 -5 -3
3 5 -4 -10 -4 -4 -5 -3
4 6 -2 -9 -2 -3 -3 0
6 5 0 -10 -2 -2 -3 0
5 6 -2 -10 0 0 -2 1
4 8 -3 -9 0 1 -2 2
3 7 -3 -8 0 1 0 2
2 4 -3 -8 -2 0 0 2
3 6 0 -6 -2 1 1 2
6 11 1 -6 0 2 1 3
9 14 2 -6 1 3 2 5
10 15 4 -5 2 4 3 5
7 15 5 -3 3 6 5 6
7 16 5 -2 5 6 6 7
9 18 6 0 6 8 7 8
12 19 7 2 7 9 7 8
12 20 5 1 7 8 6 6
9 19 6 1 7 8 7 6
6 17 6 2 6 9 7 7
8 17 8 5 8 11 9 10
11 20 8 5 9 11 9 10
12 22 8 6 10 11 9 9
12 20 8 6 9 10 8 8
13 18 8 6 9 11 9 9
12 20 9 7 10 12 11 11
14 23 9 8 11 14 13 12
17 24 7 7 11 13 12 11
17 24 4 6 10 13 12 11
15 23 1 5 10 14 13 12
16 22 0 6 10 15 14 13
16 21 0 8 12 16 15 15
17 19 -2 6 12 16 15 14
17 20 0 6 14 17 17 16
18 24 1 6 14 17 17 17
18 26 -2 4 11 17 16 16
17 24 -5 0 7 14 13 15
18 18 -7 -5 4 12 13 14
18 15 -10 -7 2 11 13 13
18 16 -12 -9 0 10 11 12
17 16 -13 -11 -2 8 9 10
17 14 -12 -11 -2 7 8 9
18 13 -12 -11 -3 6 6 8
18 12 -12 -11 -4 5 5 6
16 10 -13 -13 -6 4 4 5
14 8 -14 -14 -6 5 5 6
13 8 -13 -13 -7 6 5 7
12 8 -12 -13 -7 5 5 7
12 5 -11 -13 -6 5 5 7
12 6 -10 -12 -6 6 5 7
12 9 -10 -13 -7 5 5 7
10 8 -11 -14 -9 3 4 6
7 6 -12 -15 -10 2 3 4
4 5 -12 -15 -10 2 3 4
3 4 -12 -15 -9 1 2 4
4 1 -14 -17 -11 -3 0 2
2 -2 -13 -17 -12 -4 -2 1
0 -2 -14 -19 -15 -6 -4 -3
0 0 -14 -20 -17 -7 -5 -4
2 1 -14 -19 -17 -6 -5 -4
3 1 -12 -18 -15 -5 -4 -2
0 -4 -11 -18 -15 -5 -5 -2
-4 -6 -12 -19 -15 -6 -6 -4
-3 -5 -13 -20 -17 -7 -7 -6
-3 -4 -13 -21 -17 -8 -8 -5
-4 -5 -15 -22 -19 -9 -9 -7
-6 -7 -14 -21 -19 -7 -8 -6
-7 -9 -14 -20 -18 -6 -6 -5
-6 -11 -13 -19 -16 -6 -5 -5
-4 -9 -13 -19 -17 -6 -6 -5
-3 -6 -15 -21 -20 -8 -8 -7
-2 -4 -16 -23 -21 -10 -8 -8
-3 -3 -16 -23 -22 -10 -9 -9
-4 -3 -14 -23 -21 -8 -8 -8
-6 -5 -12 -21 -18 -6 -6 -6
-7 -8 -11 -18 -16 -4 -4 -4
-6 -8 -10 -17 -15 -3 -3 -3
-4 -5 -12 -19 -16 -4 -5 -5
-4 -5 -13 -20 -17 -5 -6 -6
-5 -8 -12 -20 -18 -6 -6 -6
-4 -9 -14 -21 -19 -7 -8 -7
-5 -9 -14 -21 -19 -7 -8 -7
-6 -9 -14 -21 -20 -8 -9 -8
-7 -8 -15 -22 -22 -10 -11 -8
-6 -7 -14 -22 -21 -9 -11 -8
-6 -5 -13 -22 -20 -8 -10 -7
-6 -5 -12 -22 -19 -8 -9 -7
-7 -6 -11 -21 -19 -7 -8 -5
-7 -8 -12 -20 -20 -8 -8 -6
-8 -8 -11 -19 -20 -7 -8 -6
-9 -6 -11 -18 -19 -8 -9 -8
-9 -6 -9 -16 -17 -7 -9 -9
-10 -6 -5 -12 -13 -6 -7 -7
-11 -3 1 -6 -11 -5 -7 -6
-11 2 10 9 -2 1 -4 -4
-10 3 22 29 12 10 2 -2
-5 5 32 53 29 23 11 4
6 9 37 75 50 43 26 10
21 12 43 104 79 71 50 22
37 18 51 141 116 107 78 36
56 24 63 182 157 144 107 52
75 27 74 221 193 179 134 65
93 29 82 247 221 207 158 79
105 36 87 257 239 230 180 95
116 50 85 248 252 254 202 112
129 68 71 221 257 277 227 133
132 88 46 170 250 295 250 154
123 105 15 109 234 299 258 168
99 107 -3 54 209 277 237 159
64 81 -5 3 155 205 169 113
29 25 -4 -52 68 87 56 33
-6 -32 -13 -114 -36 -47 -64 -49
-38 -66 -33 -180 -132 -145 -143 -97
-62 -80 -60 -241 -207 -202 -179 -114
-73 -87 -85 -283 -256 -230 -192 -120
-76 -91 -104 -296 -271 -231 -190 -120
-76 -91 -114 -284 -256 -213 -176 -113
-71 -85 -118 -264 -234 -191 -158 -103
-60 -74 -119 -243 -215 -172 -142 -93
-50 -63 -113 -216 -190 -150 -123 -79
-45 -55 -100 -185 -162 -129 -106 -67
-43 -46 -82 -156 -137 -109 -90 -56
-39 -31 -68 -132 -116 -91 -75 -47
-35 -17 -58 -109 -97 -73 -62 -38
-33 -12 -47 -89 -80 -59 -50 -29
-31 -13 -38 -74 -68 -50 -43 -24
-27 -11 -32 -63 -59 -43 -36 -21
-23 -10 -26 -52 -51 -36 -31 -18
-21 -10 -23 -43 -45 -32 -29 -17
-18 -11 -17 -33 -37 -26 -25 -15
-13 -9 -13 -25 -31 -21 -21 -12
-11 -7 -11 -20 -27 -18 -18 -10
-11 -7 -10 -18 -24 -15 -15 -11
-10 -8 -8 -16 -21 -12 -13 -10
-10 -10 -7 -15 -21 -12 -13 -9
-10 -12 -8 -15 -22 -13 -14 -9
-10 -12 -7 -14 -22 -13 -14 -9
-10 -11 -6 -13 -22 -13 -14 -9
-11 -10 -7 -13 -21 -14 -15 -10
-11 -10 -8 -13 -21 -14 -15 -11
-11 -9 -7 -11 -20 -13 -14 -10
-8 -9 -4 -8 -16 -9 -11 -7
-8 -9 -4 -8 -16 -9 -10 -7
-11 -12 -7 -11 -20 -12 -12 -10
-13 -14 -7 -11 -20 -11 -12 -11
-10 -11 -6 -10 -18 -10 -12 -10
-7 -9 -3 -7 -15 -7 -10 -7
-7 -10 -2 -4 -13 -6 -8 -5
-7 -9 0 -2 -12 -6 -8 -5
-6 -7 -2 -3 -13 -6 -8 -6
-6 -7 -2 -3 -13 -6 -8 -6
-6 -6 -3 -4 -14 -6 -9 -8
-5 -3 -3 -4 -14 -6 -9 -8
-5 -4 -3 -4 -14 -7 -10 -8
-6 -7 -3 -3 -14 -7 -8 -8
-4 -7 -4 -4 -14 -8 -10 -10
-3 -4 -2 -2 -13 -7 -9 -8
-4 -5 -2 0 -13 -6 -8 -8
-7 -9 1 1 -10 -4 -6 -5
-7 -9 1 2 -9 -3 -6 -5
-7 -7 0 1 -11 -4 -7 -6
-6 -9 1 1 -12 -6 -8 -7
-4 -10 1 2 -11 -5 -8 -7
-2 -10 0 1 -11 -6 -9 -7
-3 -9 -2 1 -13 -6 -9 -7
-6 -11 0 3 -10 -4 -7 -5
-7 -11 1 4 -9 -3 -6 -5
-6 -9 1 5 -9 -3 -6 -6
-3 -7 0 5 -9 -4 -7 -7
-3 -7 0 7 -9 -4 -7 -7
-6 -7 2 9 -7 -2 -6 -6
-5 -3 1 8 -6 -2 -5 -5
-2 -2 1 8 -5 0 -4 -4
-2 -5 1 8 -5 0 -4 -5
-3 -8 1 8 -6 0 -5 -6
-3 -7 1 9 -5 1 -5 -5
-2 -4 1 10 -5 -2 -6 -6
-2 -3 1 11 -6 -3 -7 -6
-5 -5 2 12 -5 -2 -6 -5
-6 -8 2 12 -5 -2 -5 -4
-6 -8 3 13 -3 1 -4 -3
-5 -7 3 13 -3 2 -3 -3
-3 -6 2 13 -3 3 -4 -3
1 -5 1 12 -3 2 -4 -4
1 -6 1 12 -2 2 -4 -4
-2 -6 2 14 0 3 -2 -3
-2 -6 3 16 1 5 -2 0
3 -3 2 15 1 4 -3 -2
5 -3 2 15 0 3 -2 -2
3 -4 3 16 1 4 0 0
0 -5 3 17 2 5 1 1
1 -4 2 18 4 6 1 1
4 1 1 17 3 5 0 0
4 4 2 18 3 5 0 0
-2 2 3 21 5 7 2 1
-3 -2 3 21 6 7 2 1
2 -2 4 22 7 8 3 2
7 -2 4 22 7 9 3 3
7 0 4 23 7 8 3 3
2 2 2 21 6 6 2 3
0 4 2 20 5 6 3 4
4 5 3 21 7 8 5 5
8 4 2 22 7 9 5 5
6 3 1 21 5 9 4 5
3 4 1 21 6 9 4 6
4 3 1 22 7 9 4 6
5 3 2 23 7 8 4 6
6 8 2 23 8 8 5 6
5 10 3 25 10 11 7 9
5 7 3 25 10 11 7 9
5 5 2 24 8 9 6 8
4 5 2 22 7 9 6 9
5 7 3 22 8 11 7 11
8 8 3 22 8 10 6 11
7 8 1 21 5 8 6 11
6 7 0 20 6 8 6 12
7 8 0 20 5 8 7 12
8 9 1 19 4 8 7 12
4 8 1 18 3 7 6 13
0 7 -2 15 1 5 5 12
1 8 -5 11 -3 3 3 10
5 10 -4 10 -4 3 4 11
7 10 -3 11 -4 2 5 13
6 9 -3 10 -5 1 4 13
5 9 -5 8 -8 -2 2 11
2 8 -4 9 -8 -2 2 12
1 8 -5 8 -10 -4 0 11
3 10 -5 6 -13 -6 -2 10
5 12 -5 5 -14 -6 -2 11
7 12 -3 6 -13 -6 0 13
7 12 -5 3 -16 -10 -4 11
7 12 -7 -2 -20 -13 -6 8
6 13 -8 -3 -21 -13 -7 8
4 13 -8 -4 -21 -13 -7 9
2 11 -6 -3 -20 -12 -6 11
3 8 -6 -4 -21 -13 -7 10
3 7 -5 -3 -21 -13 -6 10
1 9 -5 -4 -22 -15 -8 8
3 10 -7 -6 -24 -17 -10 7
6 9 -7 -6 -24 -17 -10 6
5 8 -6 -6 -24 -17 -10 5
3 6 -6 -6 -25 -18 -11 5
3 7 -6 -5 -24 -16 -10 6
3 9 -4 -3 -23 -15 -8 7
2 11 -2 -2 -22 -14 -7 9
3 12 -3 -4 -23 -15 -7 8
4 12 -3 -4 -23 -16 -8 8
3 10 -3 -2 -22 -15 -7 8
1 7 -2 -2 -20 -14 -7 8
2 6 -3 -2 -20 -14 -8 6
1 6 -2 1 -19 -13 -8 6
0 6 0 1 -18 -13 -7 6
2 6 -3 0 -19 -14 -8 5
4 7 -5 -2 -21 -15 -10 2
5 8 -3 1 -19 -14 -9 3
5 5 1 4 -16 -11 -6 4
4 -2 2 5 -15 -9 -5 4
3 -2 1 3 -14 -9 -6 3
3 3 1 2 -12 -9 -6 3
3 1 0 3 -10 -7 -4 4
1 -7 1 4 -10 -7 -4 5
-2 -9 1 3 -10 -7 -4 5
1 -7 1 3 -10 -6 -2 6
2 -4 0 2 -11 -6 -2 6
2 -4 -2 1 -11 -6 -3 5
2 -4 -3 0 -11 -7 -5 4
2 -5 -3 1 -12 -7 -6 3
-2 -7 -3 0 -13 -9 -7 2
-4 -10 -3 -2 -13 -8 -7 2
-3 -11 -2 -2 -13 -9 -8 1
-2 -9 -2 -4 -14 -11 -9 -3
-3 -9 -5 -6 -14 -12 -9 -5
-4 -10 -5 -5 -13 -10 -8 -3
-5 -9 -3 -5 -13 -9 -8 -3
-5 -8 -3 -5 -13 -10 -9 -3
-5 -11 -2 -4 -13 -11 -10 -4
-6 -12 -3 -4 -13 -11 -11 -5
-6 -11 0 -3 -13 -11 -11 -4
-7 -10 0 -3 -13 -11 -10 -3
-7 -11 -2 -5 -16 -14 -12 -5
-7 -10 -3 -7 -18 -15 -13 -6
-4 -8 -4 -9 -17 -15 -12 -7
-4 -10 -3 -8 -16 -14 -12 -6
-7 -13 -4 -10 -18 -17 -14 -8
-9 -15 -4 -10 -19 -17 -14 -8
-8 -15 -4 -10 -20 -16 -14 -7
-7 -15 -3 -9 -19 -15 -14 -7
-7 -15 -3 -10 -21 -17 -15 -9
-7 -12 -4 -10 -21 -18 -17 -11
-7 -10 -3 -9 -20 -17 -16 -10
-7 -10 -3 -8 -19 -18 -17 -10
-6 -12 -4 -9 -19 -18 -17 -10
-5 -15 -4 -9 -18 -17 -16 -10
-7 -18 -4 -8 -17 -16 -15 -10
-12 -18 -3 -8 -16 -16 -15 -9
-14 -15 -2 -9 -17 -16 -15 -9
-11 -13 0 -7 -18 -15 -15 -8
-9 -13 0 -8 -19 -17 -15 -8
-9 -15 0 -8 -18 -18 -15 -6
-7 -14 0 -7 -18 -18 -16 -6
-7 -11 -2 -7 -18 -17 -16 -7
-10 -12 -2 -6 -17 -17 -15 -6
-13 -14 0 -5 -16 -16 -14 -6
-12 -16 -2 -7 -17 -17 -15 -8
-11 -14 -4 -9 -19 -18 -17 -11
-10 -11 -5 -9 -19 -19 -18 -12
-9 -11 -3 -6 -17 -18 -18 -11
-9 -14 1 -4 -15 -16 -16 -10
-10 -17 2 -3 -15 -16 -16 -10
-12 -16 0 -4 -16 -17 -16 -10
-14 -15 0 -4 -15 -17 -16 -9
-14 -14 1 -4 -14 -15 -15 -8
-12 -14 1 -3 -13 -15 -14 -8
-9 -14 1 -2 -13 -14 -13 -7
-10 -13 2 -2 -13 -13 -14 -7
-11 -14 2 0 -13 -13 -14 -7
-10 -16 0 -2 -14 -14 -15 -8
-8 -17 0 -2 -14 -14 -15 -9
-9 -15 1 0 -11 -13 -14 -9
-11 -13 3 1 -10 -11 -12 -8
-10 -11 3 1 -10 -12 -12 -8
-8 -10 2 0 -10 -13 -12 -8
-8 -11 1 -2 -11 -12 -12 -8
-11 -11 1 0 -11 -12 -12 -8
-12 -13 0 0 -11 -11 -12 -7
-12 -14 0 2 -9 -10 -11 -5
-11 -15 1 3 -8 -9 -9 -3
-10 -16 0 2 -9 -11 -11 -4
-12 -16 0 1 -9 -12 -11 -5
-13 -12 1 2 -8 -11 -10 -5
-11 -8 1 2 -7 -9 -9 -5
-9 -8 1 3 -7 -8 -8 -3
-11 -13 1 2 -8 -8 -8 -3
-10 -15 1 1 -8 -8 -8 -3
-7 -13 1 1 -7 -8 -8 -4
-8 -12 -2 0 -8 -8 -8 -5
-12 -12 0 0 -7 -8 -7 -4
-11 -12 -2 0 -7 -8 -8 -4
-8 -13 0 1 -5 -6 -7 -3
-8 -14 0 0 -5 -7 -8 -3
-11 -15 0 0 -5 -6 -8 -3
-9 -12 0 0 -5 -5 -7 -3
-7 -10 -2 0 -4 -5 -7 -3
-7 -10 -3 -2 -6 -6 -7 -4
-9 -11 -3 -3 -7 -7 -7 -5
-10 -12 0 -2 -6 -6 -6 -3
-9 -11 0 -2 -6 -6 -7 -2
-7 -6 0 0 -6 -5 -7 -2
-5 -5 -2 -2 -6 -5 -6 -2
-7 -11 -2 -3 -6 -5 -6 -2
-10 -14 -3 -4 -6 -5 -5 -2
-10 -13 -4 -5 -7 -6 -6 -3
-7 -11 -5 -7 -9 -7 -7 -3
-7 -10 -5 -7 -10 -8 -7 -4
-7 -9 -4 -6 -8 -7 -7 -4
-8 -11 -3 -5 -7 -6 -7 -3
-9 -13 -2 -4 -7 -5 -6 -2
-8 -11 -4 -6 -9 -7 -7 -3
-7 -9 -5 -7 -9 -7 -7 -2
-8 -8 -4 -7 -8 -7 -7 -2
-8 -10 -3 -6 -8 -6 -7 -2
-7 -11 -3 -7 -8 -6 -6 -2
-7 -13 -4 -9 -9 -6 -6 -3
-7 -12 -5 -9 -10 -6 -7 -2
-8 -11 -6 -10 -10 -6 -7 0
-8 -11 -7 -11 -10 -6 -7 -2
-9 -13 -7 -11 -10 -6 -7 -2
-9 -14 -7 -10 -11 -7 -8 -2
-7 -10 -5 -8 -9 -6 -7 0
-6 -4 -3 -8 -8 -6 -6 1
-6 -4 -4 -9 -9 -7 -6 -2
-8 -7 -8 -13 -13 -10 -9 -6
-9 -9 -9 -15 -13 -10 -10 -6
-7 -11 -7 -15 -12 -9 -8 -5
-7 -14 -7 -14 -12 -8 -7 -3
-6 -15 -6 -11 -12 -7 -6 -3
-4 -13 -4 -10 -10 -6 -5 -2
-4 -12 -5 -11 -11 -7 -5 0
-8 -14 -7 -13 -13 -9 -7 -3
-9 -15 -6 -13 -12 -7 -7 -3
-8 -13 -5 -13 -12 -7 -7 -3
-9 -13 -7 -13 -12 -8 -8 -3
-10 -13 -9 -16 -12 -9 -9 -4
-12 -13 -8 -15 -12 -9 -9 -3
-11 -13 -7 -14 -12 -8 -8 -3
-8 -13 -7 -15 -13 -9 -7 -3
-7 -13 -9 -17 -14 -9 -7 -5
-8 -12 -7 -16 -13 -8 -6 -4
-5 -11 -5 -14 -12 -7 -5 -3
-5 -11 -6 -15 -13 -9 -7 -5
-7 -11 -8 -18 -16 -12 -10 -7
-7 -11 -8 -18 -16 -11 -10 -6
-5 -9 -8 -16 -14 -9 -8 -4
-7 -8 -8 -17 -14 -9 -8 -4
-10 -13 -10 -19 -15 -12 -11 -6
-10 -17 -11 -20 -16 -13 -12 -6
-8 -17 -12 -21 -16 -14 -12 -5
-8 -16 -10 -19 -17 -13 -10 -4
-8 -15 -9 -19 -17 -12 -10 -5
-7 -12 -8 -17 -15 -10 -9 -5
-7 -10 -7 -17 -13 -9 -7 -3
-7 -11 -8 -18 -13 -9 -7 -4
-6 -11 -9 -18 -14 -9 -7 -5
-5 -11 -10 -19 -14 -10 -8 -5
-6 -11 -10 -20 -15 -11 -9 -5
-7 -8 -11 -21 -16 -12 -10 -6
-10 -7 -9 -20 -14 -11 -9 -5
-11 -11 -9 -19 -14 -11 -9 -6
-8 -12 -9 -20 -15 -11 -10 -5
-5 -11 -6 -18 -13 -9 -7 -3
-6 -11 -6 -19 -14 -10 -7 -3
-7 -11 -9 -20 -17 -11 -8 -5
-7 -8 -10 -21 -17 -11 -8 -5
-7 -7 -10 -20 -16 -9 -8 -5
-7 -11 -9 -19 -14 -9 -6 -5
-7 -12 -9 -19 -14 -9 -6 -5
-6 -10 -7 -18 -13 -8 -5 -5
-4 -7 -6 -18 -13 -9 -7 -5
-2 -5 -5 -16 -11 -9 -6 -3
-4 -4 -4 -15 -10 -7 -4 1
-7 -4 -4 -15 -9 -7 -4 1
-7 -5 -5 -15 -9 -8 -5 0
-7 -4 -4 -14 -9 -7 -4 0
-7 0 -2 -13 -8 -5 -3 1
-4 4 2 -9 -4 0 1 4
-2 7 6 -6 0 3 4 7
2 10 6 -6 0 2 3 7
3 13 5 -7 -2 1 1 5
3 14 4 -8 -3 -2 0 3
4 14 4 -7 -2 1 2 3
5 13 5 -5 2 4 4 4
5 11 7 -2 5 7 6 6
5 10 6 -3 4 6 5 6
4 8 5 -2 4 5 5 6
4 8 4 0 5 7 7 7
5 11 3 1 6 8 8 9
5 12 2 -2 5 7 8 10
5 11 2 -2 6 8 10 13
7 11 0 -2 7 10 11 13
12 11 -3 -3 7 10 12 12
17 12 -5 -3 7 10 11 12
15 14 -6 -2 9 12 12 12
8 15 -6 -2 9 13 13 13
4 14 -7 -2 9 13 14 13
6 12 -10 -4 7 9 12 12
6 9 -12 -8 4 6 9 10
4 6 -12 -11 2 5 8 10
9 8 -13 -14 -2 3 6 9
17 12 -14 -15 -3 2 6 7
17 10 -13 -15 -3 3 6 7
12 7 -14 -15 -4 2 6 8
11 3 -15 -16 -6 1 6 7
12 2 -15 -16 -6 2 5 5
11 2 -15 -15 -4 3 6 5
8 3 -15 -15 -3 3 6 6
7 5 -14 -15 -3 3 5 6
9 6 -15 -16 -5 -2 1 2
7 4 -15 -17 -7 -5 -3 -2
4 1 -15 -18 -9 -6 -4 -2
3 2 -15 -19 -9 -5 -3 -2
2 3 -15 -17 -8 -3 0 0
2 2 -12 -15 -6 0 2 1
2 1 -11 -17 -8 -2 1 0
2 0 -12 -19 -10 -4 -3 -3
2 -4 -13 -21 -11 -7 -5 -5
1 -11 -12 -21 -11 -7 -5 -5
-2 -13 -13 -22 -12 -7 -7 -6
-4 -11 -13 -22 -12 -7 -7 -7
-7 -8 -13 -21 -12 -8 -8 -8
-7 -6 -13 -21 -12 -8 -8 -8
-7 -7 -14 -22 -12 -8 -7 -6
-7 -10 -14 -22 -12 -7 -6 -5
-7 -12 -14 -23 -13 -8 -7 -5
-6 -14 -14 -23 -13 -8 -7 -5
-6 -11 -13 -22 -13 -9 -7 -6
-7 -8 -13 -22 -13 -10 -9 -8
-6 -10 -12 -20 -11 -8 -7 -5
-6 -14 -12 -20 -11 -9 -7 -6
-6 -16 -13 -22 -13 -11 -9 -8
-5 -14 -14 -25 -15 -13 -10 -9
-4 -12 -12 -23 -13 -10 -7 -6
-4 -13 -10 -20 -11 -9 -7 -6
-7 -14 -10 -20 -11 -9 -7 -7
-8 -15 -12 -22 -12 -11 -9 -9
-9 -15 -10 -21 -11 -10 -8 -8
-8 -14 -10 -21 -12 -10 -9 -8
-8 -13 -11 -21 -12 -10 -8 -8
-9 -13 -13 -22 -12 -10 -10 -10
-10 -14 -15 -22 -13 -11 -11 -10
-11 -16 -15 -22 -13 -11 -11 -10
-11 -16 -14 -22 -12 -11 -10 -10
-9 -16 -13 -22 -11 -11 -10 -10
-7 -16 -13 -22 -12 -11 -11 -11
-8 -14 -13 -22 -12 -10 -11 -11
-8 -12 -14 -22 -12 -10 -11 -11
-7 -10 -14 -21 -11 -10 -10 -11
-7 -11 -14 -22 -12 -11 -11 -11
-9 -15 -12 -20 -10 -9 -9 -10
-11 -16 -8 -17 -7 -7 -7 -9
-12 -13 -6 -12 -5 -6 -7 -9
-12 -9 -3 -9 -4 -7 -9 -11
-12 -7 1 -4 -2 -8 -10 -12
-14 -5 9 8 6 -6 -8 -12
-14 -4 21 28 19 4 -4 -8
-9 0 33 54 39 18 6 -4
1 3 43 80 65 39 22 4
15 7 49 110 98 70 47 15
33 11 56 148 138 109 76 29
49 14 69 192 184 152 109 47
62 12 82 232 226 195 144 65
77 12 89 258 257 230 172 81
94 23 89 266 277 257 195 97
107 40 82 258 290 283 219 113
118 59 69 232 299 311 248 136
123 79 45 184 296 336 277 161
117 99 15 121 282 346 292 178
98 109 -6 63 258 328 276 174
68 92 -9 13 209 265 215 136
33 38 -7 -40 122 144 102 58
-2 -25 -10 -95 16 -2 -29 -29
-31 -62 -28 -160 -91 -121 -126 -88
-53 -73 -57 -230 -186 -197 -173 -109
-65 -82 -87 -282 -253 -234 -191 -118
-70 -91 -107 -299 -272 -239 -192 -121
-69 -91 -117 -286 -256 -220 -178 -115
-62 -88 -122 -267 -233 -196 -159 -105
-53 -82 -123 -247 -212 -177 -144 -96
-44 -74 -119 -222 -186 -155 -128 -86
-36 -64 -106 -190 -158 -132 -109 -73
-32 -50 -92 -163 -134 -112 -94 -64
-33 -35 -77 -140 -110 -93 -78 -54
-33 -23 -66 -116 -88 -74 -63 -45
-30 -16 -56 -95 -69 -59 -51 -35
-26 -11 -48 -77 -57 -49 -43 -30
-22 -10 -38 -63 -47 -40 -35 -25
-19 -11 -29 -50 -35 -31 -28 -19
-17 -11 -22 -38 -27 -26 -24 -17
-16 -11 -16 -28 -20 -20 -21 -17
-16 -12 -13 -22 -16 -16 -19 -17
-19 -13 -11 -18 -12 -13 -16 -17
-18 -14 -9 -15 -9 -11 -14 -15
-13 -12 -9 -14 -7 -9 -13 -13
-10 -11 -8 -12 -6 -7 -12 -12
-9 -10 -8 -11 -6 -8 -12 -13
-9 -11 -6 -9 -5 -8 -11 -14
-9 -11 -4 -6 -3 -8 -11 -14
-9 -11 -3 -5 0 -8 -10 -14
-8 -11 -2 -4 0 -7 -10 -14
-7 -11 -2 -4 1 -6 -10 -14
-7 -11 -3 -4 3 -5 -9 -14
-7 -11 -3 -3 4 -3 -8 -13
-7 -11 -4 -3 4 -3 -8 -14
-7 -11 -5 -4 4 -3 -8 -15
-7 -11 -3 0 5 -2 -8 -15
-8 -11 0 2 6 -2 -7 -14
-9 -11 0 3 6 0 -7 -13
-7 -11 2 4 8 2 -6 -11
-6 -11 3 6 9 3 -4 -10
-5 -12 1 5 8 2 -5 -10
-5 -12 -2 3 7 2 -6 -11
-5 -11 0 4 9 4 -4 -10
-6 -9 -2 4 10 4 -3 -10
-8 -10 -2 4 9 3 -3 -10
-9 -11 -2 5 9 3 -4 -10
-7 -11 1 7 10 4 -3 -10
-6 -11 4 8 11 4 -3 -9
-5 -11 5 9 11 4 -3 -9
-4 -9 4 8 11 4 -3 -10
-6 -6 2 7 9 3 -4 -11
-7 -6 2 7 11 5 -3 -9
-8 -4 2 8 12 6 -2 -9
-6 -2 3 10 14 8 0 -9
-4 -5 3 10 14 9 1 -8
-5 -11 5 13 15 10 3 -7
-6 -11 4 12 14 8 1 -9
-5 -10 5 13 15 7 0 -9
-5 -9 7 15 17 8 0 -9
-4 -9 6 15 17 8 0 -10
-4 -7 4 13 16 7 -2 -11
-5 -7 3 12 16 7 -2 -12
-5 -9 3 13 16 9 0 -11
-2 -8 4 14 17 10 1 -9
1 -8 5 15 18 11 2 -8
0 -8 4 16 18 10 2 -8
-3 -8 4 17 18 10 3 -8
-4 -10 6 19 20 11 4 -7
-5 -11 8 22 22 13 4 -6
-5 -11 8 22 24 13 4 -6
-5 -7 6 20 22 12 3 -8
-7 -7 7 21 23 14 5 -7
-7 -7 8 20 24 14 6 -6
-3 -5 7 20 23 14 6 -7
1 -3 5 20 22 13 5 -8
1 -6 6 22 24 13 6 -6
2 -6 6 23 24 13 5 -6
4 -4 6 23 23 12 5 -7
2 -4 6 23 23 12 5 -8
0 -7 8 24 24 14 6 -6
0 -5 8 25 26 16 7 -5
2 1 7 25 28 17 7 -6
5 3 5 23 26 16 6 -8
5 1 6 25 27 17 7 -7
4 1 6 27 28 18 7 -5
3 1 8 29 29 20 9 -3
3 1 8 31 30 20 9 -3
3 2 8 31 30 19 9 -4
3 1 10 32 31 19 10 -3
4 1 8 31 31 18 9 -4
5 4 8 30 31 18 9 -3
4 4 8 31 32 20 10 -2
4 4 8 32 33 21 11 0
6 6 7 32 33 21 11 0
6 8 6 31 32 20 11 0
5 6 7 33 32 21 11 1
5 5 7 34 33 22 12 2
5 6 8 35 33 22 12 2
6 9 10 35 33 22 13 3
7 10 9 35 33 21 13 3
8 11 8 34 34 22 13 4
9 11 7 33 33 22 13 4
11 14 6 32 32 22 12 4
11 17 4 31 30 21 11 4
8 15 2 29 28 19 10 3
6 10 2 29 28 19 10 4
8 11 4 31 29 20 12 7
9 14 5 31 29 20 13 8
6 13 6 30 29 19 13 9
7 12 5 29 27 18 12 7
9 14 5 28 26 17 11 6
9 16 4 26 24 16 11 6
6 15 3 23 23 15 10 4
5 16 2 21 21 13 9 3
4 17 1 19 19 12 7 2
4 15 1 19 17 11 6 2
5 13 0 18 15 9 5 2
7 14 1 17 13 8 5 3
7 18 2 17 14 6 5 3
6 18 3 15 12 5 5 3
5 14 3 14 11 5 5 4
5 11 2 12 9 4 4 3
5 10 0 10 7 2 2 2
4 9 -3 8 5 1 0 0
1 9 -3 7 4 -2 -2 -2
1 12 -3 7 3 -4 -3 -2
3 15 -4 7 1 -4 -4 -2
2 16 -3 7 0 -5 -3 0
2 16 -3 7 -2 -6 -4 -2
4 15 -2 7 -2 -5 -4 -2
6 15 -2 5 -2 -6 -5 -3
6 15 0 5 -2 -5 -4 -3
5 16 0 6 -2 -5 -4 -3
5 15 0 6 0 -4 -3 -3
5 12 0 7 2 -2 0 -2
5 10 1 9 4 0 1 0
5 10 2 10 3 0 0 -2
5 13 3 9 2 -2 -2 -2
6 12 4 10 4 -2 0 -2
4 8 4 9 4 -3 -2 -3
1 6 3 8 3 -4 -3 -4
0 8 2 6 2 -4 -4 -4
2 9 2 7 2 -2 -3 -3
3 8 1 6 3 0 -2 -2
4 7 1 6 3 0 -2 -2
5 10 1 7 5 1 -2 -3
5 12 1 8 6 1 -2 -4
3 9 1 8 5 0 -2 -5
1 5 1 7 5 0 -3 -5
2 4 2 7 6 1 -2 -5
3 6 1 7 7 2 -2 -6
3 8 0 5 7 2 -2 -6
2 8 1 6 7 4 1 -5
3 5 1 4 6 4 1 -6
2 1 0 4 8 4 0 -6
1 2 -3 2 7 2 -2 -7
1 5 -2 2 7 3 -2 -7
4 5 0 3 6 4 0 -7
5 3 -2 2 6 2 -3 -9
3 2 -3 2 5 1 -4 -10
2 0 -3 1 4 2 -4 -10
3 -3 -2 0 5 3 -3 -10
4 -3 -2 -3 3 1 -5 -11
4 -2 -3 -4 3 0 -5 -12
3 -4 -3 -3 3 1 -5 -11
1 -6 -3 0 3 1 -5 -11
-2 -3 -3 0 3 0 -6 -11
-3 1 -4 -2 1 -3 -8 -12
-3 -3 -3 -2 1 -3 -7 -12
-3 -7 0 0 2 -2 -6 -10
-3 -7 1 1 2 0 -5 -9
0 -4 0 0 1 -2 -5 -9
2 -3 -2 -3 0 -3 -7 -11
3 -4 -3 -5 -2 -4 -8 -12
0 -5 -3 -6 -2 -3 -9 -12
-4 -5 -2 -4 0 -2 -8 -11
-4 -6 1 -3 1 -2 -7 -11
-4 -7 0 -3 -2 -4 -8 -12
-4 -6 0 -2 -2 -5 -9 -12
-6 -4 0 -2 -2 -5 -9 -11
-8 -6 0 -4 -2 -5 -9 -11
-10 -8 0 -6 -2 -6 -9 -11
-10 -9 0 -6 -2 -6 -9 -12
-6 -6 -2 -6 -3 -6 -10 -14
1 -3 -4 -7 -5 -8 -12 -15
2 -2 -3 -6 -4 -7 -12 -14
0 -5 -2 -5 -4 -7 -11 -14
-5 -7 1 -4 -4 -7 -11 -14
-6 -7 2 -2 -3 -7 -12 -14
-5 -6 1 -3 -3 -8 -13 -15
-5 -7 1 -3 -3 -8 -12 -15
-7 -7 1 -2 -2 -7 -11 -13
-7 -7 2 -2 -2 -6 -10 -12
-4 -4 3 -2 0 -5 -9 -10
-4 -2 3 0 1 -5 -8 -10
-6 -3 3 0 0 -5 -9 -11
-4 -4 4 1 0 -5 -9 -11
-3 -5 5 2 0 -6 -9 -11
-5 -5 4 1 0 -6 -10 -12
-4 -3 3 0 -2 -6 -12 -14
-4 -4 2 0 -2 -7 -12 -15
-7 -8 2 0 -2 -7 -11 -15
-9 -8 2 0 0 -6 -11 -14
-7 -6 3 0 1 -5 -9 -12
-7 -5 2 1 1 -6 -9 -11
-7 -5 1 1 0 -6 -9 -11
-6 -5 2 2 1 -5 -9 -10
-3 -3 3 2 1 -5 -9 -11
0 -2 3 3 2 -5 -8 -10
-3 -4 4 4 2 -3 -8 -10
-6 -6 3 2 1 -4 -9 -10
-7 -5 3 2 2 -3 -9 -9
-5 0 3 2 4 -2 -8 -9
-4 0 4 4 4 -2 -6 -8
-3 -4 4 4 4 -2 -6 -8
-3 -2 3 4 4 0 -7 -9
-3 3 4 5 6 0 -5 -9
-3 3 4 5 6 0 -5 -8
-3 -3 3 4 6 1 -6 -9
-3 -5 2 3 6 1 -6 -9
-3 -3 2 3 6 1 -6 -9
-4 0 2 4 7 2 -5 -9
-4 -2 1 2 6 1 -6 -9
-5 0 1 1 5 0 -6 -9
-3 2 0 2 6 2 -5 -8
0 1 2 6 8 5 0 -6
2 1 3 7 9 5 1 -5
0 1 5 8 9 6 1 -4
-3 0 3 6 9 6 0 -4
-2 -2 2 3 8 5 -2 -5
-2 0 1 2 7 3 -3 -6
-4 1 2 4 9 5 -3 -5
-4 3 1 3 9 5 -4 -5
-2 5 1 3 8 5 -3 -5
0 6 0 1 7 4 -3 -5
1 4 0 1 6 4 -2 -4
2 3 1 2 7 5 -2 -4
3 5 2 3 7 4 -2 -5
3 5 2 2 8 4 -2 -5
3 2 1 2 8 5 -2 -5
3 1 1 2 8 5 -2 -5
2 2 0 0 7 6 0 -5
-2 4 -2 -3 7 6 0 -5
-4 5 -3 -2 7 5 1 -2
-3 7 -2 0 6 6 2 0
1 6 0 1 6 7 3 1
1 2 0 1 7 6 3 1
-2 0 -2 0 6 4 0 0
-2 0 0 -3 5 3 -2 -4
0 2 -2 -3 4 4 -2 -4
-2 3 -2 -3 4 4 -2 -3
-3 4 -3 -4 4 3 -3 -4
-3 2 -2 -5 4 4 -2 -3
-2 -2 0 -3 5 4 2 0
-2 -2 0 -4 5 4 2 1
0 1 -3 -6 2 2 -3 -3
1 2 -5 -8 1 0 -4 -3
2 2 -4 -7 0 0 -4 -3
2 2 -4 -7 0 1 -4 -3
2 1 -4 -7 0 1 -5 -4
-2 1 -4 -7 1 1 -5 -2
-4 0 -5 -8 0 1 -4 -2
-3 -2 -6 -10 -2 0 -4 -3
-2 0 -6 -9 0 1 -2 0
0 2 -5 -8 1 2 0 1
-2 5 -5 -8 1 2 0 0
-4 4 -4 -7 0 2 -2 0
-5 0 -5 -8 -2 1 -2 0
-3 -6 -5 -9 -3 0 -3 -2
2 -4 -6 -11 -5 -2 -5 -4
3 3 -6 -11 -4 0 -4 -3
2 5 -4 -10 -2 1 -2 -2
1 1 -6 -11 -4 0 -3 -3
0 -3 -7 -11 -4 -2 -4 -2
0 -3 -7 -11 -5 -2 -4 -2
-3 -3 -6 -10 -5 -2 -3 -2
-4 -3 -7 -11 -6 -2 -3 -2
-3 -2 -7 -12 -7 -3 -4 0
-2 0 -6 -12 -6 -2 -4 0
-4 -4 -5 -10 -4 0 -4 1
-6 -3 -6 -11 -4 -2 -5 0
-5 1 -6 -12 -5 -2 -5 -2
-2 2 -7 -13 -6 -3 -5 -3
1 3 -8 -14 -7 -4 -6 -3
1 3 -8 -14 -7 -4 -5 -3
0 1 -8 -13 -7 -4 -5 -4
-2 -2 -7 -13 -7 -4 -6 -3
-2 1 -6 -12 -6 -3 -5 -3
-2 4 -6 -12 -6 -3 -5 -2
-2 5 -5 -11 -5 -2 -4 0
0 3 -5 -11 -4 0 -3 1
2 1 -6 -11 -3 1 -3 2
0 -2 -6 -13 -5 0 -3 1
-3 -2 -7 -14 -7 -3 -4 -2
-4 -2 -8 -15 -8 -5 -6 -3
-4 0 -8 -15 -8 -4 -5 -2
-4 0 -9 -15 -8 -5 -5 -2
-4 -2 -10 -15 -9 -7 -5 -3
-4 -5 -9 -14 -9 -6 -5 -2
-3 -6 -9 -14 -8 -6 -5 -2
-2 -2 -7 -12 -7 -3 -3 1
-3 2 -4 -10 -4 0 0 3
-3 3 -3 -9 -4 0 0 4
0 5 -5 -11 -6 -3 -3 2
3 9 -7 -13 -7 -4 -3 0
3 9 -7 -13 -6 -3 -4 0
2 9 -6 -13 -5 -3 -4 1
1 9 -3 -9 -3 2 1 5
1 10 0 -7 -2 3 2 6
0 11 2 -6 1 4 4 8
2 13 3 -5 2 4 4 8
4 14 4 -4 3 6 5 9
4 16 4 -3 5 8 6 10
3 16 6 0 6 10 8 12
3 16 6 -2 5 8 7 10
5 18 4 -3 5 6 5 9
6 19 5 0 7 8 7 9
7 18 5 1 7 8 7 9
7 16 4 1 6 7 7 8
7 17 6 3 8 9 8 10
8 18 6 4 9 10 9 11
10 19 5 4 10 10 10 12
12 20 2 2 9 10 10 12
12 20 0 1 9 11 12 14
13 20 -3 1 9 12 13 15
15 19 -4 1 10 13 14 16
14 19 -4 2 11 14 15 17
12 21 -4 2 11 15 15 17
11 23 -5 2 11 14 15 17
10 20 -5 2 11 14 16 17
9 16 -4 2 11 14 16 18
10 17 -7 -4 7 11 13 17
13 18 -9 -8 4 9 10 16
14 13 -9 -9 4 8 9 16
13 10 -10 -9 3 8 9 15
14 11 -11 -10 2 7 9 15
14 10 -13 -11 0 6 8 13
12 8 -13 -11 -2 4 6 12
12 9 -13 -12 -3 3 4 11
12 10 -14 -13 -4 2 3 10
11 9 -15 -15 -6 1 3 10
8 9 -14 -15 -6 1 4 11
6 8 -13 -14 -5 2 5 11
6 5 -14 -16 -8 0 3 9
6 2 -15 -18 -10 -3 1 8
7 3 -13 -16 -9 -2 3 9
6 3 -12 -15 -7 0 3 10
2 1 -11 -15 -8 0 2 9
0 -3 -11 -15 -9 -3 1 7
-2 -3 -11 -14 -8 -3 0 7
-3 -4 -11 -15 -9 -4 -2 6
-7 -6 -12 -18 -13 -7 -5 3
-7 -8 -15 -21 -15 -11 -8 0
-5 -6 -13 -20 -14 -10 -8 0
-3 -8 -13 -19 -14 -9 -7 1
-4 -12 -13 -20 -14 -10 -6 1
-5 -13 -14 -20 -15 -10 -7 0
-5 -11 -14 -20 -14 -10 -7 1
-6 -10 -13 -19 -13 -9 -6 1
-7 -10 -12 -19 -13 -9 -6 2
-7 -10 -12 -19 -13 -9 -7 1
-6 -8 -12 -20 -14 -10 -8 0
-6 -7 -12 -20 -14 -10 -8 0
-7 -7 -12 -20 -14 -10 -8 0
-8 -11 -13 -20 -14 -9 -7 0
-8 -12 -14 -20 -15 -11 -8 -2
-7 -11 -12 -19 -15 -10 -7 0
-8 -11 -10 -17 -13 -9 -7 0
-9 -13 -10 -17 -12 -9 -6 1
-9 -15 -11 -18 -14 -10 -7 0
-11 -16 -13 -19 -15 -11 -8 -2
-12 -16 -14 -21 -16 -12 -9 -2
-10 -14 -15 -23 -17 -13 -11 -3
-7 -12 -16 -23 -18 -13 -11 -5
-7 -11 -15 -21 -16 -11 -9 -4
-9 -11 -14 -21 -16 -11 -9 -3
-10 -11 -13 -19 -16 -11 -8 0
-8 -11 -14 -20 -17 -12 -8 -2
-7 -10 -13 -20 -16 -11 -8 -3
-6 -10 -13 -20 -15 -10 -9 -3
-9 -12 -14 -20 -16 -11 -9 -3
-12 -14 -14 -21 -16 -11 -10 -3
-11 -14 -14 -22 -17 -11 -9 -3
-8 -12 -15 -22 -18 -12 -10 -4
-8 -12 -13 -20 -18 -12 -10 -3
-11 -14 -9 -15 -14 -11 -9 -2
-13 -13 -6 -12 -12 -12 -10 -3
-15 -9 0 -5 -10 -11 -10 -2
-18 -4 7 7 -4 -8 -8 0
-18 0 18 25 9 0 -4 2
-15 2 30 49 27 13 7 7
-7 4 40 76 52 34 23 15
11 9 46 106 84 65 46 25
30 15 57 146 127 106 77 40
48 21 71 192 172 147 109 57
63 25 86 235 214 186 140 73
80 28 93 262 245 219 165 88
97 34 93 269 264 244 188 103
107 49 86 260 276 268 209 118
114 70 72 233 286 294 235 139
119 92 49 186 286 317 262 162
117 110 19 128 276 330 279 182
101 120 -6 67 254 315 266 178
67 105 -14 12 205 255 210 142
31 50 -14 -44 120 140 104 70
-2 -19 -18 -100 13 2 -19 -14
-31 -62 -37 -166 -96 -118 -117 -74
-54 -79 -66 -237 -191 -196 -171 -101
-66 -92 -94 -289 -256 -236 -191 -111
-71 -98 -113 -305 -277 -244 -193 -113
-71 -97 -121 -293 -263 -226 -180 -108
-68 -94 -123 -270 -239 -201 -161 -98
-63 -89 -123 -247 -217 -181 -145 -88
-55 -79 -116 -218 -189 -156 -124 -74
-48 -65 -101 -186 -159 -130 -103 -59
-43 -50 -85 -156 -134 -108 -86 -46
-39 -34 -71 -132 -111 -91 -71 -36
-34 -22 -61 -109 -92 -74 -59 -29
-30 -14 -51 -89 -75 -61 -48 -22
-28 -12 -40 -73 -62 -50 -38 -16
-26 -11 -33 -62 -54 -44 -33 -14
-22 -11 -26 -51 -46 -37 -29 -13
-21 -11 -20 -39 -37 -31 -25 -12
-20 -12 -15 -29 -29 -25 -21 -10
-18 -12 -11 -23 -25 -21 -18 -8
-17 -12 -11 -19 -24 -20 -18 -8
-17 -13 -9 -16 -21 -18 -16 -7
-16 -13 -8 -16 -20 -17 -16 -7
-15 -13 -7 -14 -19 -17 -15 -7
-13 -13 -6 -13 -18 -17 -15 -7
-11 -13 -4 -11 -16 -16 -14 -6
-10 -11 -4 -9 -15 -15 -13 -5
-10 -8 -5 -9 -15 -15 -14 -7
-10 -9 -6 -9 -15 -15 -14 -8
-12 -12 -5 -8 -14 -14 -12 -6
-15 -12 -5 -8 -12 -12 -11 -5
-15 -11 -6 -8 -12 -12 -11 -5
-12 -10 -7 -7 -12 -11 -10 -4
-11 -12 -6 -7 -12 -11 -10 -5
-11 -12 -5 -7 -12 -11 -10 -6
-10 -9 -4 -5 -12 -11 -10 -6
-9 -7 -2 -2 -11 -10 -9 -4
-11 -11 -2 -2 -10 -10 -9 -4
-12 -16 -2 -2 -9 -8 -7 -2
-12 -16 -2 0 -9 -8 -7 -2
-10 -11 -2 1 -8 -7 -6 -2
-8 -11 -2 1 -7 -6 -6 -2
-9 -12 -3 1 -7 -7 -6 -2
-9 -13 -4 1 -8 -8 -7 -4
-7 -10 -2 3 -7 -7 -7 -5
-6 -6 1 5 -6 -7 -7 -4
-5 -4 2 7 -5 -6 -6 -3
-7 -7 2 7 -5 -6 -6 -2
-10 -11 2 5 -5 -6 -6 -4
-10 -12 1 4 -5 -6 -6 -4
-7 -9 2 5 -4 -6 -6 -3
-7 -8 1 5 -4 -6 -5 -3
-7 -10 2 6 -3 -4 -4 0
-7 -11 3 7 -4 -4 -3 0
-5 -9 3 8 -4 -5 -4 0
-4 -7 3 8 -4 -6 -5 -2
-4 -5 3 8 -4 -6 -6 -3
-6 -7 5 11 0 -4 -3 0
-7 -9 6 12 2 -2 -2 1
-7 -8 4 11 2 -3 -3 0
-7 -6 3 11 1 -3 -3 -2
-7 -5 1 9 0 -4 -5 -4
-6 -5 2 11 1 -2 -5 -2
-5 -5 4 14 3 0 -3 1
-4 -7 6 15 4 1 -2 0
-6 -8 5 15 3 0 -2 -2
-7 -6 5 17 3 0 -2 0
-7 -5 5 17 4 1 -2 0
-6 -7 7 19 7 3 1 2
-4 -6 5 18 6 3 1 1
-3 -3 4 17 5 2 -2 0
-5 -3 5 19 7 4 1 1
-6 -5 6 20 8 4 1 2
-6 -5 5 20 8 3 0 1
-6 -4 5 20 9 3 0 0
-6 -5 7 22 10 5 1 2
-3 -3 8 24 10 5 2 3
1 0 9 26 12 6 3 4
1 -2 9 25 13 7 3 4
-3 -3 8 25 12 8 2 4
-3 -2 8 25 13 9 3 4
0 1 7 25 14 9 4 4
2 4 6 25 13 8 4 3
3 6 7 26 14 9 4 5
3 7 8 28 15 11 5 7
0 5 8 28 15 10 4 6
1 3 7 29 15 9 4 5
5 2 7 28 15 9 3 4
5 1 8 28 17 9 4 5
0 1 10 31 19 12 6 8
0 3 10 31 19 12 7 9
5 5 9 32 19 13 8 9
4 6 10 34 21 15 10 12
1 6 11 36 23 17 13 14
0 6 10 35 22 16 12 13
2 7 9 34 20 14 9 11
2 9 7 33 17 13 8 10
2 10 8 33 18 14 9 11
5 9 7 32 19 13 9 11
7 10 6 30 17 12 9 10
7 12 6 29 17 12 9 10
5 14 7 29 18 14 11 12
6 15 7 30 18 15 11 12
7 13 4 29 16 13 9 11
5 10 2 26 14 10 6 9
5 10 2 25 13 8 5 9
7 12 5 29 15 10 8 13
6 14 6 31 17 12 10 15
3 13 7 31 18 13 11 17
3 13 6 28 16 11 11 18
7 15 5 26 13 10 11 17
10 16 2 23 11 8 8 16
9 16 1 22 9 8 7 16
7 17 0 22 6 8 7 16
6 20 0 20 5 6 7 15
6 22 0 18 4 4 5 15
6 20 0 16 2 1 2 12
5 17 1 16 2 2 3 12
5 16 0 14 2 0 2 11
5 16 -2 12 -2 -2 2 11
5 17 0 11 -3 -3 2 13
5 18 -2 10 -4 -4 2 13
4 19 -4 9 -6 -4 1 13
3 16 -4 9 -7 -4 1 14
3 13 -3 8 -7 -5 0 14
3 13 -2 8 -7 -6 0 14
2 14 -2 7 -8 -6 0 13
1 15 -2 7 -9 -7 0 11
0 16 -2 6 -9 -7 -3 10
-2 16 -3 5 -11 -9 -5 9
1 15 -2 5 -10 -8 -4 9
5 16 0 7 -9 -7 -2 11
8 16 1 9 -7 -5 0 12
6 14 0 9 -7 -6 -2 10
4 11 0 9 -7 -7 -3 9
2 13 0 8 -8 -8 -3 8
3 17 -2 8 -9 -9 -5 6
4 17 0 9 -8 -8 -5 6
5 16 0 8 -8 -9 -6 6
3 13 1 9 -6 -7 -4 7
0 11 1 8 -6 -7 -4 5
0 9 1 7 -5 -6 -3 6
2 10 1 7 -6 -6 -3 6
3 9 2 8 -5 -5 -3 6
1 8 4 10 -3 -3 -2 7
1 9 4 11 -3 -3 -2 6
2 11 3 10 -3 -3 -3 5
3 9 3 10 -2 -2 -3 4
4 7 3 10 -2 -2 -3 3
3 9 2 9 -2 -2 -3 3
2 13 1 8 0 -2 -3 3
1 11 2 9 2 1 0 4
1 3 3 10 3 3 2 6
-2 -4 3 8 1 2 1 5
-3 -2 2 6 0 0 -2 3
0 4 2 6 0 -2 -3 1
4 5 1 5 -2 -2 -3 1
2 2 2 5 0 0 -3 1
1 1 0 2 -3 -4 -5 0
3 4 0 2 -3 -4 -5 -2
2 4 1 4 -2 -3 -4 0
-2 3 2 4 -2 -2 -4 0
-2 3 1 3 -4 -2 -5 -2
-2 3 0 2 -4 -2 -5 -3
-2 1 1 3 -3 0 -5 -3
-2 1 1 3 -3 -2 -5 -4
-2 4 -2 2 -5 -4 -7 -6
-2 6 -3 -2 -7 -6 -9 -8
-2 5 -2 -2 -6 -5 -8 -7
0 1 0 -2 -5 -5 -7 -5
-2 -2 0 0 -4 -4 -7 -4
-3 0 -2 -2 -5 -4 -7 -3
-3 -3 -3 -3 -6 -5 -7 -4
-4 -5 -2 -3 -7 -6 -7 -4
-5 -5 1 -2 -5 -5 -6 -3
-5 -6 2 1 -4 -3 -6 0
-5 -6 2 1 -5 -3 -6 -2
-6 -7 2 1 -5 -5 -7 -3
-5 -4 0 -2 -6 -7 -8 -4
-4 2 0 -2 -7 -7 -9 -5
-6 3 -2 -3 -8 -8 -10 -6
-7 -2 -3 -4 -9 -9 -10 -7
-5 -5 0 -3 -7 -7 -9 -5
-2 -4 1 -2 -7 -6 -8 -5
-2 -2 2 0 -6 -6 -8 -6
-4 -3 1 -2 -6 -6 -9 -6
-5 -4 0 -3 -8 -8 -9 -6
-6 -6 1 -2 -7 -7 -9 -6
-5 -6 1 -2 -7 -7 -9 -6
-4 -4 1 0 -6 -7 -8 -5
-3 -2 1 1 -5 -6 -7 -5
-5 -3 1 1 -5 -6 -7 -6
-7 -5 0 -2 -7 -7 -9 -8
-8 -6 0 -2 -8 -7 -9 -7
-6 -7 2 0 -6 -6 -8 -7
-2 -6 2 1 -6 -7 -10 -8
3 -3 2 1 -5 -7 -11 -10
2 1 3 1 -5 -7 -10 -10
-2 1 5 2 -4 -7 -10 -10
-5 1 4 2 -5 -7 -10 -9
-5 3 2 1 -7 -8 -12 -11
-4 2 1 0 -7 -8 -11 -10
-5 -2 3 2 -4 -5 -8 -7
-6 -2 4 3 -4 -5 -8 -6
-6 0 4 3 -3 -5 -7 -6
-7 -3 5 5 -3 -4 -7 -5
-8 -5 6 6 -3 -3 -7 -4
-7 -3 5 5 -2 -4 -7 -5
-7 -2 4 5 0 -5 -7 -6
-7 0 4 4 -2 -5 -7 -7
-8 -2 5 5 -2 -4 -6 -6
-7 -2 4 4 0 -4 -7 -7
-7 0 4 4 1 -4 -7 -7
-7 -2 3 4 0 -3 -8 -8
-7 -3 5 6 2 0 -7 -7
-4 -3 5 7 2 -2 -7 -7
-3 -4 6 7 3 -2 -6 -6
-3 -4 6 6 3 -2 -6 -6
-4 0 5 5 2 -3 -8 -8
-2 2 5 6 2 -3 -8 -8
0 1 5 7 3 -2 -7 -8
-4 -3 5 8 5 1 -5 -7
-7 -2 5 8 5 2 -3 -6
-5 4 6 8 6 3 0 -4
-3 5 6 9 6 4 0 -3
-5 2 7 9 7 4 -2 -3
-8 0 5 9 5 2 -3 -5
-9 1 6 9 6 3 -3 -5
-7 4 6 8 6 3 -3 -6
-6 5 5 7 7 4 -3 -6
-4 3 6 8 8 5 -2 -5
-3 0 7 10 10 6 1 -2
-3 0 8 11 10 6 2 0
-3 3 7 10 8 6 1 -2
-4 3 6 9 8 7 1 -3
-5 3 5 8 7 6 0 -4
-6 3 5 8 6 5 -2 -4
-6 2 6 8 8 7 0 -5
-5 3 7 8 8 7 1 -4
-3 6 6 7 7 6 1 -3
-3 6 4 6 6 5 -2 -4
-5 4 3 5 6 5 0 -5
-4 4 2 3 5 4 -2 -5
-5 4 0 1 3 3 -2 -5
-4 5 0 0 2 3 -4 -7
-2 3 2 2 3 4 -3 -5
0 -2 4 5 6 6 1 -2
-2 0 5 6 8 8 3 0
-4 4 5 7 9 9 4 1
-5 4 4 6 8 8 3 0
-4 2 0 2 5 4 0 -4
0 3 -3 -2 3 2 -2 -6
1 5 -2 -3 2 2 -2 -6
-3 4 0 -2 2 3 -2 -5
-4 2 1 -2 3 4 0 -5
-3 1 2 0 4 4 1 -4
0 1 3 1 5 5 1 -3
0 0 3 2 5 5 1 -3
0 1 2 1 5 5 0 -3
-2 2 1 -2 3 4 0 -3
-3 1 0 -4 1 2 -2 -3
0 0 0 -3 2 3 0 -3
4 1 -2 -5 1 1 -3 -6
4 1 -2 -6 -2 1 -3 -7
1 1 -2 -6 0 1 -3 -7
0 4 -2 -6 -2 1 -3 -5
0 5 -2 -6 -3 0 -3 -5
1 3 1 -4 1 3 1 -3
3 2 0 -5 1 3 0 -4
0 1 -2 -5 0 3 0 -4
-5 0 -3 -6 -2 2 0 -4
-4 0 -2 -5 1 3 1 -3
-2 0 0 -5 1 3 1 -3
-2 0 -2 -6 0 2 -2 -4
0 0 -3 -7 -3 1 -2 -5
3 2 -3 -7 -3 1 -2 -5
2 0 0 -6 -2 3 1 -3
-3 -3 -2 -7 -2 3 0 -3
-4 -3 -2 -8 -2 2 0 -5
-2 0 -3 -10 -4 0 -3 -7
-3 -2 -4 -10 -3 1 -3 -6
-5 -3 -5 -11 -4 0 -4 -7
-4 -2 -5 -11 -5 0 -4 -7
-2 1 -2 -8 -4 2 -2 -5
-2 2 1 -6 -2 3 0 -4
-2 3 -2 -8 -4 1 -3 -7
0 4 0 -8 -3 2 -2 -6
1 3 1 -7 -2 3 0 -5
1 1 -2 -8 -4 1 -3 -5
1 0 -2 -9 -4 1 -3 -5
2 0 -2 -10 -4 1 -4 -6
3 1 -2 -10 -2 2 -3 -6
2 2 -4 -11 -4 0 -4 -7
1 1 -5 -13 -6 -3 -5 -9
-2 0 -5 -13 -6 -2 -5 -8
-3 2 -5 -13 -6 -2 -5 -8
-3 0 -3 -11 -5 1 -3 -6
-2 -3 -3 -11 -4 1 -3 -5
0 -2 -4 -12 -5 1 -3 -5
0 4 -5 -12 -5 0 -4 -6
-2 5 -5 -12 -6 2 -3 -6
-4 2 -5 -13 -6 1 -4 -7
-7 -3 -3 -13 -5 1 -4 -6
-5 -2 -3 -13 -5 1 -3 -6
1 4 -2 -12 -4 2 -3 -6
2 9 1 -10 -3 4 -2 -5
0 9 3 -9 -2 5 1 -3
0 9 2 -9 0 5 1 -3
2 7 2 -9 1 5 2 -3
4 7 2 -9 0 5 2 -3
3 10 3 -8 2 7 3 -2
4 16 3 -8 2 7 3 -3
6 18 6 -6 4 8 4 -2
7 18 8 -4 6 10 6 1
5 19 9 -3 7 12 7 3
4 20 9 -2 7 11 7 3
5 22 7 -3 6 9 6 2
6 23 6 -2 6 9 6 2
5 21 6 -2 7 11 7 3
5 18 5 -2 7 11 7 3
9 20 5 -2 7 11 7 2
12 22 6 -2 8 11 8 2
12 21 6 0 9 12 8 2
13 19 5 0 9 12 8 2
12 19 4 2 10 14 9 3
12 22 2 1 9 14 9 3
13 22 3 3 12 16 13 7
16 22 4 5 14 18 16 10
16 23 3 4 15 19 16 10
15 24 1 2 13 18 16 9
15 25 -2 0 14 18 15 9
18 23 -4 -3 13 17 13 7
18 21 -5 -5 10 16 11 6
16 18 -5 -7 8 14 9 5
16 17 -6 -10 5 12 8 4
16 16 -8 -12 3 11 7 3
14 16 -8 -13 2 10 6 3
13 15 -7 -13 1 10 7 4
14 13 -7 -14 2 10 7 4
15 11 -7 -14 2 9 6 4
15 9 -7 -13 1 10 7 3
12 7 -7 -14 1 10 7 3
11 7 -9 -17 0 9 6 2
11 10 -9 -18 -2 7 4 1
10 9 -8 -17 -2 7 4 2
9 7 -7 -17 -2 6 4 1
8 7 -8 -19 -4 4 2 -2
7 10 -9 -20 -6 2 0 -3
8 11 -7 -19 -5 4 1 -3
8 9 -6 -19 -5 3 1 -4
4 5 -6 -19 -5 3 0 -5
-3 1 -6 -19 -6 2 0 -5
-5 -3 -5 -19 -6 2 -2 -5
-4 -3 -5 -20 -7 1 -3 -7
-4 -2 -6 -22 -8 -2 -5 -8
-6 -5 -5 -20 -7 0 -4 -7
-5 -6 -6 -21 -8 -2 -5 -9
-2 -4 -9 -24 -12 -6 -8 -13
-2 -4 -10 -25 -13 -7 -9 -14
-3 -5 -10 -26 -13 -7 -9 -14
0 -3 -8 -25 -12 -6 -8 -12
1 0 -7 -24 -11 -5 -7 -10
0 -3 -7 -24 -12 -6 -8 -10
-3 -8 -8 -25 -14 -7 -9 -12
-5 -10 -8 -25 -13 -7 -8 -11
-3 -8 -7 -25 -12 -6 -7 -9
-2 -7 -7 -25 -12 -6 -8 -9
-4 -7 -8 -26 -14 -7 -9 -11
-7 -7 -9 -27 -14 -7 -9 -12
-7 -8 -8 -26 -14 -6 -8 -11
-7 -9 -6 -24 -12 -6 -7 -10
-6 -7 -5 -23 -12 -6 -8 -10
-3 -3 -5 -24 -12 -6 -9 -12
-2 0 -5 -24 -13 -6 -9 -12
-5 0 -6 -24 -14 -7 -10 -13
-7 -2 -7 -25 -14 -8 -10 -13
-7 -3 -7 -24 -13 -7 -9 -13
-7 -5 -10 -27 -15 -9 -11 -16
-9 -9 -10 -28 -16 -9 -11 -15
-8 -11 -9 -27 -15 -9 -10 -14
-7 -8 -8 -25 -14 -8 -10 -13
-10 -5 -8 -25 -14 -8 -10 -13
-12 -6 -8 -25 -13 -8 -9 -13
-12 -9 -8 -24 -13 -8 -8 -12
-8 -11 -9 -25 -14 -9 -9 -13
-7 -10 -8 -25 -14 -9 -9 -13
-8 -9 -7 -23 -15 -8 -10 -13
-13 -11 -4 -19 -13 -8 -11 -13
-16 -11 0 -16 -11 -8 -10 -13
-14 -4 4 -11 -10 -7 -10 -13
-14 4 11 -3 -6 -6 -9 -11
-15 4 21 11 3 0 -6 -10
-13 6 32 30 15 7 -2 -9
-6 11 42 54 32 19 7 -6
6 14 47 80 57 40 24 2
21 16 55 115 93 74 51 16
39 23 66 157 133 111 78 29
56 29 81 203 176 149 108 45
75 32 93 240 214 185 136 59
96 38 98 262 240 215 160 75
112 51 100 267 260 241 185 94
122 65 95 255 274 267 210 113
129 81 75 221 279 289 234 134
131 100 47 170 275 307 255 155
121 113 16 109 261 308 259 163
93 109 1 53 229 276 231 149
54 75 -4 -7 160 191 150 95
18 11 -10 -73 55 59 29 10
-13 -47 -23 -143 -56 -71 -83 -67
-41 -73 -46 -211 -150 -161 -152 -107
-62 -86 -73 -270 -224 -214 -184 -122
-72 -96 -98 -303 -266 -236 -196 -128
-73 -96 -112 -303 -268 -231 -190 -126
-68 -87 -117 -284 -248 -211 -175 -118
-61 -79 -116 -259 -224 -187 -156 -107
-53 -73 -111 -231 -200 -165 -139 -95
-46 -63 -100 -197 -171 -141 -117 -79
-41 -51 -81 -163 -140 -115 -95 -64
-36 -34 -66 -139 -116 -95 -78 -52
-30 -19 -56 -117 -97 -78 -65 -41
-27 -12 -47 -96 -79 -63 -52 -33
-27 -11 -38 -80 -67 -53 -44 -28
-28 -11 -29 -67 -56 -44 -36 -24
-26 -9 -23 -54 -49 -38 -32 -20
-22 -9 -15 -40 -39 -31 -27 -18
-19 -9 -8 -29 -30 -24 -22 -17
-17 -9 -5 -22 -25 -21 -20 -16
-16 -10 -4 -18 -23 -20 -20 -16
-15 -11 -6 -18 -22 -20 -20 -17
-13 -11 -5 -18 -21 -19 -20 -17
-11 -8 -6 -17 -21 -19 -20 -18
-10 -4 -3 -14 -19 -17 -17 -15
-9 -2 0 -12 -18 -15 -15 -13
-9 -5 2 -9 -17 -14 -14 -11
-8 -7 4 -7 -16 -14 -14 -11
-7 -7 6 -5 -14 -12 -11 -11
-8 -7 4 -5 -14 -11 -11 -11
-10 -9 3 -5 -14 -12 -12 -13
-10 -11 3 -4 -12 -10 -10 -11
-11 -10 3 -4 -12 -9 -9 -10
-11 -9 1 -5 -13 -11 -11 -12
-10 -7 1 -4 -14 -11 -11 -12
-7 -7 3 -3 -13 -10 -11 -11
-6 -7 5 1 -11 -9 -10 -8
-7 -8 6 4 -10 -9 -10 -8
-7 -8 7 3 -10 -9 -10 -9
-7 -7 6 1 -10 -9 -10 -9
-8 -6 5 1 -11 -9 -10 -9
-11 -7 4 1 -10 -8 -9 -8
-12 -5 3 0 -11 -7 -8 -8
-9 0 2 0 -12 -8 -10 -9
-8 -4 3 3 -11 -8 -9 -10
-9 -10 5 5 -9 -6 -7 -8
-8 -13 7 7 -8 -5 -6 -7
-7 -11 8 9 -7 -5 -6 -7
-5 -7 8 9 -7 -6 -7 -7
-5 -4 7 8 -7 -6 -8 -8
-7 -6 9 9 -5 -5 -6 -6
-8 -8 8 9 -4 -5 -6 -5
-7 -8 6 7 -6 -6 -7 -7
-5 -6 4 7 -6 -7 -8 -7
-4 -4 5 10 -6 -6 -7 -7
-5 -5 7 12 -3 -4 -5 -5
-3 -4 7 12 -5 -6 -6 -6
-4 -3 6 11 -7 -9 -9 -8
-10 -5 6 12 -7 -9 -8 -10
-11 -7 6 12 -6 -9 -7 -10
-7 -6 7 13 -6 -7 -7 -8
-4 -5 6 13 -5 -7 -6 -8
-5 -5 8 15 -4 -4 -4 -6
-5 -5 8 16 -4 -4 -3 -5
-4 -4 7 16 -4 -5 -4 -6
-3 -3 8 17 -3 -4 -5 -6
-2 -3 11 20 0 -2 -3 -4
-4 -3 12 23 3 0 -2 -3
-4 -3 11 23 3 -2 -3 -4
-2 -3 9 21 2 -2 -4 -6
0 -3 9 22 2 0 -3 -5
-3 -3 10 22 4 1 -2 -3
-6 -2 11 23 4 2 0 -2
-7 1 9 23 2 1 -2 -4
-6 2 7 21 1 -2 -3 -6
-2 2 8 23 2 0 -2 -5
1 2 9 24 3 1 0 -4
2 3 10 25 4 1 0 -3
1 4 10 25 5 2 0 -2
-2 2 12 27 7 4 1 1
0 -2 11 26 6 2 0 1
3 -2 9 26 5 2 -2 0
4 0 9 27 7 3 0 1
2 3 9 28 7 3 1 1
2 4 10 30 8 4 3 3
2 3 10 31 9 5 4 4
0 2 12 33 10 7 6 6
1 4 13 33 11 7 6 6
3 5 13 33 11 6 6 5
2 5 12 33 11 6 6 5
3 7 10 33 12 6 6 5
4 8 11 33 13 7 6 6
4 7 10 32 11 6 5 6
3 8 9 32 11 6 5 6
4 11 9 33 11 7 6 7
4 12 11 34 13 10 9 10
3 13 12 35 13 10 9 11
4 14 12 36 13 9 8 10
5 14 13 35 13 9 9 10
3 12 12 35 12 8 9 11
1 10 11 34 12 7 8 11
2 9 10 33 11 7 9 11
5 9 8 31 9 7 9 11
5 13 7 31 9 8 9 12
4 16 7 31 9 8 10 13
5 15 8 30 9 8 10 13
6 14 7 28 6 6 9 12
6 15 6 27 4 4 8 11
6 16 7 26 5 5 8 13
8 17 7 25 4 5 7 14
8 18 6 24 3 3 7 14
8 18 5 22 2 2 6 15
7 16 4 20 0 2 7 16
6 16 4 19 -2 2 7 16
4 17 4 19 -2 1 7 16
6 17 4 17 -4 -2 7 16
7 18 4 17 -5 -2 6 15
5 19 3 17 -7 -4 4 14
3 16 4 15 -8 -5 4 15
3 15 2 12 -10 -8 2 14
5 17 1 10 -13 -10 1 13
6 19 -2 7 -13 -11 -2 12
7 18 -3 6 -14 -12 -2 11
4 15 -2 6 -14 -12 -2 12
1 14 -2 6 -16 -13 -2 12
1 13 -2 4 -17 -15 -3 11
3 11 0 5 -18 -15 -4 11
4 9 3 7 -17 -14 -3 12
3 10 4 6 -17 -13 -3 13
2 14 4 6 -16 -13 -3 12
3 17 3 5 -17 -14 -4 11
3 18 2 6 -17 -13 -3 11
4 18 3 6 -16 -12 -2 11
4 17 4 7 -15 -12 -2 11
2 15 4 7 -16 -13 -3 10
1 12 5 8 -15 -12 -3 10
3 12 5 8 -14 -12 -4 10
5 12 5 9 -13 -12 -5 8
2 12 6 9 -13 -12 -5 8
-3 11 7 9 -13 -11 -4 8
-2 10 7 10 -13 -11 -4 8
3 10 7 10 -12 -10 -3 8
6 12 5 9 -12 -10 -3 7
7 11 4 9 -12 -11 -3 6
7 8 5 10 -12 -10 -3 6
7 10 7 10 -11 -9 -2 6
5 12 7 11 -9 -8 -2 6
2 7 7 11 -8 -8 -2 5
-2 0 8 12 -7 -6 1 6
-2 0 9 12 -7 -5 1 6
0 3 8 11 -8 -6 0 5
-2 4 6 8 -10 -7 -4 3
-2 2 5 6 -10 -7 -3 2
0 -2 3 6 -10 -7 -3 4
1 -2 5 7 -9 -6 -2 5
0 0 6 7 -8 -6 -2 6
-2 1 6 7 -8 -6 -2 6
1 1 6 6 -9 -7 -3 4
3 0 6 6 -9 -7 -4 2
2 -3 6 5 -9 -7 -5 1
-3 -5 5 4 -9 -8 -5 1
-4 -5 4 3 -10 -8 -5 2
-3 0 4 3 -10 -7 -3 4
-4 2 4 3 -11 -9 -4 2
-5 -2 4 3 -11 -9 -5 1
-4 -6 3 2 -12 -10 -5 1
0 -6 3 1 -13 -12 -7 1
0 -3 3 1 -14 -12 -8 0
-3 -3 2 0 -14 -12 -9 -2
-5 -5 3 0 -13 -11 -8 -2
-6 -5 4 0 -12 -10 -7 -2
-5 -2 3 -2 -12 -10 -7 -3
-4 -2 2 -4 -14 -11 -8 -4
-4 -4 3 -3 -15 -11 -8 -3
-4 -5 3 -2 -15 -11 -8 -4
-5 -5 3 0 -14 -10 -8 -4
-5 -4 1 -3 -16 -13 -10 -6
-5 -5 2 -3 -16 -13 -9 -5
-5 -5 1 -4 -16 -13 -9 -4
-6 -5 0 -5 -16 -13 -10 -4
-7 -6 1 -4 -15 -13 -9 -3
-7 -11 4 -3 -14 -12 -9 -3
-7 -14 4 -3 -14 -11 -8 -2
-7 -14 3 -4 -15 -12 -9 -2
-7 -12 3 -3 -16 -13 -10 -2
-5 -10 4 0 -14 -12 -9 -2
-6 -9 5 0 -14 -12 -9 -3
-8 -9 6 1 -13 -11 -9 -4
-8 -6 7 1 -14 -12 -10 -4
-5 -4 6 -2 -16 -13 -11 -6
-4 -4 4 -2 -16 -14 -11 -7
-4 -6 3 -2 -15 -14 -11 -7
-6 -6 1 -3 -15 -15 -11 -7
-8 -6 1 -2 -14 -14 -10 -6
-9 -8 4 1 -13 -13 -9 -4
-7 -10 6 2 -13 -11 -8 -4
-7 -11 7 4 -13 -10 -8 -4
-7 -11 7 3 -13 -11 -9 -5
-10 -11 5 0 -15 -14 -12 -7
-8 -11 5 0 -15 -14 -12 -8
-4 -11 7 2 -12 -11 -9 -5
-3 -11 8 3 -11 -10 -8 -4
-7 -10 6 2 -12 -11 -8 -5
-10 -8 5 2 -13 -13 -9 -5
-9 -6 4 2 -14 -14 -10 -6
-8 -7 5 2 -13 -13 -9 -6
-8 -10 6 4 -13 -12 -9 -5
-9 -11 6 4 -13 -12 -9 -5
-9 -11 6 4 -12 -11 -8 -4
-9 -9 7 6 -10 -9 -7 -3
-7 -8 8 6 -9 -9 -8 -4
-6 -8 8 6 -8 -8 -9 -5
-7 -7 7 5 -9 -8 -9 -6
-9 -5 6 5 -9 -9 -10 -6
-9 -5 7 6 -9 -9 -9 -5
-9 -7 8 7 -6 -7 -7 -3
-10 -10 8 7 -6 -7 -7 -3
-10 -10 8 8 -6 -7 -7 -3
-9 -9 8 8 -6 -6 -6 0
-8 -7 7 8 -7 -7 -6 -2
-7 -7 6 8 -6 -7 -6 -2
-7 -7 8 9 -5 -5 -4 1
-6 -7 9 10 -4 -3 -3 2
-6 -8 8 9 -3 -4 -3 0
-7 -9 9 10 -3 -4 -3 -2
-7 -10 9 9 -3 -3 -4 0
-7 -8 8 8 -4 -4 -5 -2
-8 -5 7 8 -3 -4 -4 0
-9 -4 7 8 -3 -4 -4 0
-10 -5 7 8 -4 -3 -4 0
-9 -6 8 8 -4 -3 -4 0
-8 -7 8 8 -3 0 -2 1
-8 -5 8 9 -2 1 0 2
-8 -5 8 8 -2 0 -2 1
-9 -7 8 8 -3 0 -2 1
-7 -8 6 7 -4 -2 -2 0
-5 -7 6 7 -2 0 -2 2
-4 -5 6 7 0 0 -2 1
-6 -4 7 8 1 1 0 2
-7 -4 7 8 0 1 0 2
-7 -4 6 7 -2 0 -2 2
-7 -5 4 5 -4 -2 -2 1
-6 -4 4 4 -4 -2 0 2
-7 -3 4 4 -4 -2 0 2
-7 -3 4 3 -5 -3 0 2
-7 -3 3 2 -6 -4 -3 1
-7 -5 2 1 -7 -5 -4 0
-7 -9 5 4 -5 -3 -2 2
-5 -8 7 6 -3 0 1 4
-2 -5 7 6 -2 1 1 3
-5 -4 4 3 -6 -3 -3 -2
-7 -5 1 0 -7 -4 -4 -3
-7 -5 2 -2 -7 -3 -2 -2
-7 -6 2 0 -6 -2 0 1
-6 -7 1 -2 -7 -2 -2 1
-2 -7 0 -3 -8 -2 -4 0
-2 -6 1 -2 -7 0 -3 1
-5 -4 1 -3 -8 -3 -3 0
-6 -4 2 -3 -8 -2 -2 1
-5 -4 1 -4 -8 -3 -3 1
-5 -4 2 -4 -8 -2 -2 2
-5 -4 2 -5 -8 -2 -2 2
-5 -3 1 -5 -9 -2 -2 0
-5 -6 0 -5 -9 -2 -2 -2
-6 -9 -3 -5 -10 -4 -3 -3
-7 -9 0 -5 -9 -3 -2 0
-7 -6 1 -4 -9 -3 -2 0
-4 -4 0 -5 -9 -3 -3 0
-2 -4 -2 -6 -10 -3 -3 -2
-2 -5 0 -6 -10 -3 -3 0
-2 -6 -2 -8 -12 -5 -5 -2
-2 -5 0 -7 -11 -4 -4 0
-4 -6 1 -6 -10 -3 -3 1
-6 -7 2 -6 -9 -3 -3 1
-6 -8 0 -7 -10 -3 -3 1
-7 -7 -2 -7 -10 -3 -2 1
-7 -6 -2 -7 -11 -3 -2 2
-7 -7 -2 -7 -9 -3 -2 1
-5 -8 -2 -7 -7 -4 -3 1
-5 -8 -2 -7 -6 -4 -3 0
-6 -6 -4 -10 -8 -6 -5 -3
-5 -6 -5 -12 -10 -6 -5 -3
-5 -8 -4 -12 -9 -4 -3 -2
-4 -8 -4 -11 -8 -4 -3 -2
-4 -5 -3 -11 -8 -3 -2 -2
-3 -5 -4 -11 -7 -3 -3 -2
-2 -8 -4 -12 -9 -5 -5 -3
0 -7 -4 -13 -11 -6 -6 -4
-2 -6 -2 -11 -9 -5 -4 -2
-3 -8 -2 -10 -8 -4 -3 0
-4 -8 -4 -10 -8 -4 -3 -2
-5 -5 -4 -11 -9 -4 -3 0
-6 -6 -4 -12 -9 -4 -4 0
-6 -7 -4 -12 -8 -3 -3 0
-4 -6 -4 -12 -9 -4 -4 -3
-4 -8 -3 -12 -10 -5 -5 -3
-6 -10 -2 -10 -8 -3 -3 0
-5 -10 -3 -12 -9 -5 -4 -2
-2 -8 -3 -12 -11 -5 -4 -3
0 -9 -2 -12 -11 -5 -3 -2
-3 -11 -2 -11 -10 -3 -2 0
-6 -10 -2 -10 -8 -2 -2 0
-5 -5 -3 -12 -9 -2 -2 -2
0 0 -4 -12 -10 -2 -3 -2
0 -3 -3 -12 -9 -2 -2 0
-4 -8 -3 -13 -9 -3 -3 -2
-6 -7 -2 -12 -9 -2 -3 -2
-6 -6 -3 -13 -10 -3 -5 -3
-6 -8 -2 -12 -8 -3 -3 -2
-6 -9 0 -11 -7 0 -2 0
-3 -7 1 -11 -7 0 -2 0
0 -7 0 -12 -9 0 -2 -2
-2 -7 0 -11 -8 0 0 -2
-2 -4 1 -10 -7 2 1 -2
0 -2 1 -11 -6 3 1 0
1 -2 0 -12 -6 4 2 1
1 -3 0 -10 -5 4 3 2
1 0 2 -8 -4 5 4 3
2 5 3 -8 -4 4 3 2
2 10 4 -7 -3 5 4 3
3 13 6 -5 0 8 6 5
6 15 7 -4 2 8 7 6
8 15 8 -3 3 9 7 7
8 13 9 0 5 11 9 8
7 13 8 1 6 12 9 7
9 15 9 2 6 12 10 7
11 17 10 2 6 12 10 7
10 15 10 3 7 12 10 7
8 16 9 3 7 10 10 7
8 18 8 3 7 11 10 7
11 17 8 4 8 14 11 8
13 16 6 3 8 14 10 8
13 16 5 3 9 15 11 8
14 16 4 3 9 17 14 10
17 13 3 3 11 19 16 12
17 11 3 4 13 21 17 13
16 14 1 3 12 20 16 12
15 16 1 3 12 20 17 13
14 14 1 4 12 21 17 14
16 12 1 3 11 20 16 13
17 12 -2 0 8 18 15 12
14 14 -3 -4 7 17 16 12
12 15 -5 -8 5 15 14 12
13 11 -6 -10 4 15 13 12
15 7 -8 -12 2 13 13 10
15 6 -10 -14 0 10 11 8
14 7 -9 -13 0 10 9 8
15 6 -8 -11 0 11 10 8
16 3 -8 -12 -2 10 9 6
14 2 -9 -13 -3 9 8 5
12 3 -8 -12 -2 9 8 5
13 4 -9 -14 -3 8 7 4
14 4 -9 -16 -5 7 7 4
13 4 -10 -16 -6 6 6 3
10 4 -9 -17 -6 6 5 3
6 2 -8 -17 -7 5 5 3
6 -2 -6 -15 -6 6 5 4
6 -5 -5 -14 -4 7 6 4
5 -6 -4 -13 -4 8 7 3
3 -8 -7 -17 -7 6 5 1
2 -11 -9 -19 -10 3 2 -3
1 -12 -10 -21 -12 1 -2 -6
2 -11 -8 -19 -11 1 -2 -5
0 -11 -9 -20 -11 1 0 -6
-3 -14 -9 -20 -9 2 0 -5
-4 -14 -8 -19 -10 2 -2 -5
-4 -13 -7 -19 -11 1 -3 -6
-3 -11 -9 -21 -14 -3 -4 -8
-2 -11 -9 -21 -14 -3 -4 -9
-3 -13 -7 -21 -13 -2 -3 -7
-4 -13 -7 -21 -13 -3 -3 -7
-4 -12 -8 -21 -13 -3 -3 -7
-4 -11 -11 -23 -13 -5 -5 -9
-3 -12 -11 -23 -14 -4 -5 -10
-3 -12 -10 -23 -14 -3 -5 -10
-4 -12 -10 -23 -15 -3 -5 -10
-5 -14 -12 -24 -16 -5 -6 -11
-4 -15 -11 -23 -15 -4 -6 -10
-4 -16 -10 -22 -16 -5 -6 -10
-6 -15 -10 -23 -15 -4 -6 -10
-6 -14 -10 -23 -14 -3 -5 -9
-5 -13 -8 -21 -12 0 -3 -8
-6 -15 -8 -21 -12 1 -3 -9
-7 -17 -8 -21 -11 1 -3 -9
-5 -16 -8 -22 -12 1 -4 -9
-4 -13 -8 -23 -13 0 -4 -9
-4 -14 -9 -23 -13 0 -4 -9
-5 -16 -9 -22 -12 0 -4 -9
-7 -18 -8 -22 -12 0 -4 -9
-7 -19 -8 -23 -13 -2 -4 -10
-6 -19 -8 -23 -13 -2 -4 -10
-4 -18 -8 -23 -13 -3 -5 -11
-7 -18 -8 -22 -12 -2 -4 -9
-9 -18 -7 -22 -12 0 -4 -9
-11 -17 -7 -22 -12 -2 -5 -9
-8 -15 -8 -20 -11 -2 -6 -11
-7 -16 -4 -16 -8 0 -5 -10
-7 -14 1 -11 -6 -2 -6 -11
-9 -8 8 -3 -2 2 -5 -9
-7 0 19 14 10 10 2 -7
-3 2 31 35 25 20 9 -3
0 -2 39 58 45 34 20 2
9 -3 45 82 69 58 37 9
27 1 49 114 101 90 62 22
46 8 58 153 140 127 91 36
62 15 73 196 182 165 122 53
81 20 85 231 218 201 150 68
98 24 90 253 242 230 175 85
108 31 91 256 260 254 197 100
117 46 87 244 274 280 224 119
128 67 69 210 278 304 251 142
131 89 40 154 269 321 272 163
118 103 13 95 252 322 277 173
90 99 0 40 219 287 243 154
54 61 1 -10 156 201 160 98
19 -3 3 -62 63 72 38 14
-15 -52 -7 -121 -39 -56 -74 -60
-43 -73 -28 -187 -132 -145 -142 -98
-59 -82 -58 -249 -207 -198 -173 -112
-64 -90 -85 -288 -254 -224 -186 -119
-66 -92 -102 -294 -259 -219 -180 -117
-65 -89 -110 -277 -238 -195 -162 -107
-60 -82 -114 -258 -217 -174 -144 -98
-51 -73 -114 -237 -197 -155 -128 -88
-45 -67 -107 -208 -172 -133 -108 -74
-40 -64 -92 -178 -144 -110 -90 -61
-34 -53 -77 -152 -121 -93 -76 -52
-31 -34 -63 -129 -100 -74 -62 -41
-27 -19 -53 -105 -80 -58 -48 -33
-24 -14 -44 -86 -65 -46 -38 -28
-22 -14 -34 -70 -53 -36 -31 -23
-20 -13 -26 -58 -43 -29 -25 -20
-15 -12 -19 -48 -34 -23 -21 -18
-12 -14 -14 -37 -28 -18 -18 -18
-11 -14 -11 -31 -23 -15 -16 -18
-9 -12 -8 -25 -18 -11 -14 -16
-7 -11 -4 -20 -13 -7 -10 -13
-8 -11 -3 -17 -11 -6 -9 -12
-12 -14 -3 -16 -11 -5 -9 -13
-12 -17 -4 -15 -11 -5 -10 -14
-9 -17 -4 -14 -11 -5 -10 -13
-7 -16 -2 -13 -10 -5 -9 -12
-5 -14 1 -11 -8 -5 -9 -11
-5 -12 4 -8 -6 -2 -7 -10
-6 -12 6 -6 -4 1 -5 -9
-7 -12 4 -6 -4 0 -5 -10
-8 -11 2 -7 -4 0 -5 -10
-8 -12 1 -6 -4 1 -4 -9
-8 -15 1 -5 -3 2 -3 -8
-7 -15 0 -5 -4 1 -4 -9
-4 -11 0 -5 -4 0 -5 -11
-3 -10 3 -3 -3 1 -4 -10
-4 -11 5 -2 -2 2 -4 -8
-2 -11 6 0 1 3 -3 -6
1 -11 6 -2 1 3 -3 -7
-3 -14 6 -2 1 4 -2 -6
-6 -16 6 0 2 5 0 -6
-5 -13 6 1 3 6 0 -5
-5 -13 4 0 1 5 -2 -7
-6 -16 1 -2 0 3 -4 -9
-4 -13 2 1 2 4 -3 -9
0 -10 5 3 3 5 -2 -7
1 -11 7 4 4 6 0 -7
0 -12 8 6 6 7 1 -6
-5 -11 9 7 7 9 2 -6
-6 -10 9 7 8 9 2 -5
-3 -8 9 6 8 10 3 -7
1 -7 9 7 9 11 4 -6
0 -9 8 7 8 11 4 -5
-3 -11 7 7 8 10 3 -6
-2 -12 8 9 9 11 3 -6
0 -12 10 12 10 11 3 -6
0 -12 11 12 11 11 3 -5
-3 -12 10 11 11 10 3 -6
-4 -12 10 11 11 10 4 -5
-2 -11 8 10 10 10 4 -5
0 -11 6 10 9 10 4 -5
-3 -11 7 11 11 12 6 -4
-3 -11 7 11 11 12 6 -4
2 -10 7 12 10 13 5 -5
4 -9 8 14 12 14 5 -5
2 -9 9 16 13 14 5 -5
-2 -10 10 17 13 14 5 -5
-2 -9 9 17 14 13 4 -6
1 -8 9 16 14 13 4 -6
2 -8 11 17 15 14 6 -3
3 -8 11 18 16 15 7 -2
3 -6 12 19 18 16 9 1
4 -6 10 20 17 16 8 0
4 -7 11 21 18 17 9 1
1 -9 11 21 18 17 8 1
-3 -9 10 21 18 16 7 1
0 -9 11 22 19 16 7 1
3 -7 12 24 21 17 8 1
4 -5 12 24 22 18 9 2
4 -4 11 24 23 19 9 1
6 -3 11 25 23 20 11 1
9 0 11 26 23 21 12 2
7 0 12 27 24 21 13 2
5 0 11 27 23 20 12 2
5 2 12 28 24 22 13 4
8 3 11 27 24 21 12 4
10 2 12 27 25 22 13 5
11 1 12 28 27 23 14 6
11 2 13 29 29 25 16 7
9 5 12 31 29 26 16 7
6 8 11 31 30 26 16 8
5 9 10 30 29 25 16 8
8 10 9 29 27 24 15 7
12 11 10 29 27 23 14 5
12 9 13 32 30 25 15 6
12 6 13 34 31 26 16 7
11 6 12 33 30 25 15 8
11 6 12 32 29 24 16 9
11 7 12 31 28 24 16 10
11 10 12 30 28 23 15 10
14 13 11 30 28 25 16 11
18 12 11 31 28 26 18 12
16 11 10 31 28 26 18 13
11 9 8 29 26 22 15 12
8 9 7 27 24 21 14 11
10 11 9 28 24 23 17 14
11 14 11 30 26 25 19 16
10 14 10 28 26 24 18 16
7 15 9 25 24 21 16 16
8 18 7 22 19 18 14 14
10 20 6 21 18 18 14 14
11 18 6 19 18 18 14 13
12 17 5 17 16 17 13 13
10 17 5 17 17 17 14 14
11 18 3 16 16 14 13 13
11 15 4 16 13 12 11 12
10 14 4 15 10 10 9 11
10 15 4 13 9 9 8 12
12 17 2 10 6 7 5 10
13 17 2 10 6 5 5 10
10 16 2 9 5 5 5 10
8 15 1 8 4 4 6 10
11 15 1 8 2 4 5 11
10 15 3 8 2 4 4 12
6 14 1 6 -2 1 2 10
5 14 2 6 -2 1 3 10
10 15 3 7 0 1 4 10
12 14 4 8 1 2 5 11
11 13 5 8 1 2 5 11
9 14 4 6 -2 0 3 10
6 15 3 5 0 0 4 10
6 14 4 5 0 1 4 9
7 12 5 7 1 3 4 9
7 12 6 8 1 3 3 8
7 12 6 9 1 3 2 7
10 12 6 8 1 3 3 7
10 11 6 9 2 3 4 8
8 9 7 10 3 4 4 7
7 11 6 10 4 4 4 7
9 14 6 9 3 3 4 7
12 15 7 10 5 4 5 8
13 12 8 11 6 6 5 8
11 9 8 12 6 5 4 7
9 8 10 13 7 7 5 7
8 6 11 15 9 9 6 8
8 5 12 16 11 11 8 9
8 7 11 15 11 10 7 7
9 8 10 13 10 9 5 6
8 7 9 13 11 9 6 6
8 8 9 13 11 10 6 6
7 10 7 12 11 10 6 3
6 9 6 9 10 10 5 2
7 8 5 7 8 8 3 1
8 5 7 9 10 10 5 3
7 3 8 10 12 12 7 4
6 1 9 11 12 13 7 4
5 0 8 10 10 11 5 3
3 -2 8 10 10 10 4 2
2 -3 8 9 10 10 3 2
3 -2 7 6 8 8 2 1
6 1 7 6 8 8 2 1
6 2 6 6 8 7 3 1
5 1 7 7 10 9 3 2
7 1 6 7 8 8 1 0
8 0 6 7 8 7 1 0
8 -2 7 7 8 7 2 0
7 0 8 7 9 8 2 0
4 -2 8 6 7 8 1 0
1 -4 8 5 6 6 1 -2
1 -4 7 5 5 5 1 -2
0 -4 7 5 5 5 0 -2
-2 -5 8 6 6 5 0 0
-2 -5 7 5 6 5 0 -2
0 -4 6 4 5 4 -2 -3
0 -3 6 5 5 4 -2 -2
0 -2 6 4 4 3 -3 -3
2 -2 7 4 4 2 -4 -3
5 -2 7 4 4 3 -3 -3
5 -3 8 4 4 3 -3 -4
1 -5 7 3 4 3 -3 -5
-2 -6 7 3 5 3 -3 -5
-2 -5 7 4 5 4 -3 -5
-2 -4 7 4 4 3 -4 -6
-2 -2 7 4 4 1 -4 -6
-2 -2 8 5 5 2 -3 -5
0 -5 8 7 5 3 -3 -4
0 -6 9 7 5 3 -3 -3
-2 -5 8 5 3 1 -4 -5
-3 -7 7 5 3 2 -4 -5
-3 -8 9 7 4 2 -4 -4
0 -5 9 7 6 3 -4 -5
4 -2 9 7 5 3 -6 -6
4 -3 7 6 3 1 -8 -9
1 -4 9 7 3 1 -7 -9
-3 -7 12 10 6 3 -4 -6
-3 -8 12 10 7 3 -3 -5
-3 -6 10 9 7 3 -4 -5
-2 -2 9 8 6 2 -5 -6
1 0 8 8 5 1 -5 -6
1 -4 10 10 7 3 -4 -4
1 -5 10 11 8 4 -3 -3
-2 -5 11 12 9 6 -2 -2
-3 -5 11 12 9 6 -3 0
-3 -6 10 12 8 5 -3 -3
0 -6 9 11 7 4 -4 -5
1 -4 10 12 8 5 -3 -4
2 -2 11 13 10 6 -2 -4
2 0 11 13 10 6 -2 -4
2 0 10 13 10 5 -3 -5
-2 -2 9 13 11 6 -2 -4
-5 -4 8 12 11 6 -2 -4
-3 -5 9 13 13 7 1 -2
1 0 9 13 12 8 1 0
2 4 7 12 10 6 -2 -4
1 2 8 14 11 7 -2 -4
0 -2 11 17 15 11 2 0
0 0 13 19 17 12 4 2
-2 0 11 16 15 10 3 0
-2 -4 8 14 12 8 2 -2
0 -5 9 14 14 10 4 2
0 -3 12 18 18 14 7 6
0 1 11 17 18 14 6 5
-2 0 9 15 16 12 4 4
-2 -4 10 15 17 13 6 5
1 -3 10 15 17 13 6 5
2 1 9 15 16 13 6 4
2 2 9 15 16 13 6 4
1 0 9 15 17 14 7 4
0 1 8 15 17 14 6 3
1 3 8 16 17 14 7 3
1 2 8 15 18 14 8 4
0 1 7 14 18 15 7 4
0 -2 6 13 17 14 6 3
2 0 7 13 18 15 6 3
4 1 7 14 18 16 7 4
2 -2 8 14 19 16 9 6
0 -3 7 14 18 15 9 7
0 1 7 13 16 15 8 6
1 4 6 11 15 14 7 5
2 6 5 9 14 13 6 3
3 7 4 8 13 12 5 3
3 6 3 7 12 12 4 3
1 4 3 7 12 12 5 3
0 3 3 8 13 13 6 4
-2 3 4 9 14 13 6 4
1 2 4 9 13 13 7 4
2 1 4 8 12 12 6 3
3 1 3 7 11 11 4 1
3 2 2 6 11 11 4 1
3 2 4 6 11 12 5 4
2 1 4 7 12 12 6 5
1 -2 3 7 12 12 6 6
2 0 2 5 10 10 5 5
1 1 2 4 9 10 4 4
-2 0 3 4 10 11 5 5
0 2 2 4 9 10 5 4
3 5 0 3 7 7 3 2
6 6 -2 1 6 6 2 1
6 4 0 1 8 8 2 2
4 1 0 1 8 8 3 3
4 3 -3 -2 7 7 2 2
5 5 -3 -2 7 8 2 2
5 3 -3 -2 6 7 2 2
2 -2 0 -2 6 7 2 3
-2 -3 0 -2 6 7 2 3
0 1 0 0 6 7 2 4
0 0 -2 0 6 7 2 3
-4 -5 -3 -2 5 7 2 3
-4 -4 -2 -2 5 7 2 2
1 1 -2 -2 5 7 2 0
2 1 -2 -2 4 6 3 0
-2 -2 -2 -3 3 6 2 1
-3 -2 -3 -4 3 6 0 1
0 1 -2 -4 2 5 0 0
0 0 -2 -4 2 5 0 0
-3 -3 -3 -4 2 5 0 0
-3 -3 -4 -4 2 5 0 -2
-3 1 -3 -4 2 5 0 -2
-2 3 -3 -5 2 6 1 -2
1 4 -4 -7 0 5 0 -3
2 2 -4 -7 0 4 1 0
2 -3 -4 -6 1 3 1 1
1 -5 -2 -5 2 5 1 3
0 -3 -2 -5 2 5 1 3
-3 0 -3 -7 0 4 1 3
-2 2 -5 -8 -3 2 -2 1
2 3 -6 -8 -3 1 -3 -2
1 1 -5 -7 0 3 0 0
-4 -2 -5 -8 0 3 0 1
-7 -4 -3 -6 0 4 1 3
-7 -5 -3 -6 1 5 2 3
-5 -5 -4 -6 2 4 1 3
-6 -3 -6 -8 0 2 -2 2
-5 0 -7 -10 -3 1 -4 1
-3 -3 -6 -9 -3 2 -4 1
-2 -5 -3 -6 1 5 1 4
1 -5 -3 -5 2 5 2 5
3 -2 -5 -8 0 1 -2 2
1 -2 -6 -10 -3 0 -4 0
-2 -4 -7 -11 -5 -2 -4 -2
-3 -5 -5 -9 -3 2 -2 1
-3 -4 -3 -8 0 3 1 1
-2 -3 -4 -9 0 3 0 1
-2 1 -5 -9 -2 3 -2 1
-2 2 -4 -7 0 4 -2 3
0 1 -3 -5 1 4 0 4
1 -2 -3 -5 1 4 1 5
0 0 -3 -5 1 4 1 4
1 5 -3 -6 1 5 1 3
3 11 -2 -6 2 6 2 4
5 14 0 -4 4 7 3 7
5 13 2 -2 5 9 5 7
5 14 3 0 5 10 6 7
4 15 4 0 4 9 4 7
6 12 4 0 5 8 3 6
7 12 5 2 7 10 5 8
4 15 7 4 9 12 7 10
2 16 8 5 11 13 9 11
3 16 8 6 11 14 9 12
6 16 7 5 10 14 9 11
8 17 6 5 9 13 8 11
9 18 7 6 11 14 9 12
11 18 7 7 13 15 10 14
11 16 9 10 15 18 13 16
11 17 9 11 17 20 14 17
13 18 6 10 16 20 14 17
13 16 2 8 14 18 12 15
12 14 0 6 13 16 11 14
13 16 -2 6 14 16 12 15
14 20 -2 6 15 18 13 16
13 23 -3 6 16 18 13 16
14 22 -4 6 16 18 13 16
14 19 -5 4 13 17 12 16
14 18 -7 1 10 14 10 14
14 18 -8 -2 8 13 10 14
14 16 -8 -3 7 13 10 15
15 16 -9 -5 4 12 9 15
14 18 -11 -7 3 11 8 13
12 16 -10 -6 4 11 9 14
10 10 -9 -5 4 11 8 14
10 5 -9 -5 4 10 7 14
13 5 -9 -5 4 10 7 13
12 6 -9 -6 3 9 6 11
7 4 -10 -8 1 7 5 9
5 3 -12 -10 -2 5 4 8
5 5 -11 -10 -2 5 4 9
5 6 -10 -10 -2 4 3 8
6 3 -12 -11 -4 3 1 6
8 1 -14 -14 -7 0 -3 3
7 2 -14 -13 -7 1 -3 3
5 3 -13 -13 -6 1 -3 4
2 2 -12 -13 -6 0 -4 4
0 0 -12 -14 -8 -3 -6 1
-2 -2 -12 -14 -8 -3 -6 1
0 -2 -11 -14 -8 -3 -6 0
-2 -3 -10 -13 -8 -3 -6 1
-4 -6 -10 -13 -8 -4 -7 1
-3 -9 -12 -15 -10 -6 -8 0
-5 -9 -11 -15 -10 -6 -8 -2
-7 -7 -12 -17 -12 -7 -8 -3
-9 -8 -11 -17 -12 -6 -7 -2
-7 -10 -11 -16 -11 -6 -8 1
-2 -8 -12 -17 -12 -8 -9 0
-2 -6 -13 -19 -14 -9 -10 -3
-6 -6 -13 -19 -15 -9 -11 -3
-8 -8 -12 -18 -13 -8 -10 -3
-7 -11 -11 -17 -13 -8 -10 -3
-6 -12 -10 -16 -12 -7 -9 -3
-6 -11 -10 -16 -13 -7 -9 -2
-7 -10 -11 -17 -13 -8 -10 -2
-7 -11 -13 -19 -14 -9 -11 -3
-7 -14 -13 -19 -14 -9 -10 -2
-7 -13 -14 -20 -15 -10 -11 -3
-8 -11 -13 -20 -14 -10 -11 -3
-8 -9 -12 -19 -13 -9 -10 -3
-8 -10 -12 -18 -13 -9 -11 -4
-6 -10 -11 -17 -13 -8 -11 -5
-4 -10 -11 -18 -14 -7 -11 -5
-6 -10 -10 -18 -13 -6 -10 -4
-8 -9 -13 -20 -14 -7 -13 -5
-8 -8 -12 -20 -14 -8 -13 -5
-7 -8 -12 -20 -14 -9 -13 -5
-7 -10 -10 -18 -13 -7 -11 -3
-7 -11 -10 -19 -13 -8 -12 -4
-8 -11 -13 -20 -15 -10 -14 -6
-8 -11 -14 -20 -15 -11 -15 -7
-9 -11 -13 -20 -15 -11 -15 -8
-10 -11 -10 -17 -13 -10 -14 -7
-11 -11 -7 -12 -11 -9 -13 -5
-13 -9 -2 -7 -8 -8 -12 -3
-15 -5 2 -2 -6 -7 -12 -5
-15 -2 10 10 1 -5 -9 -4
-14 -3 21 29 14 3 -5 -2
-10 -3 33 53 31 15 4 4
-2 2 43 77 55 35 19 11
15 9 48 107 87 65 42 22
33 16 59 148 128 104 72 38
49 19 73 193 173 147 105 56
65 24 86 233 213 185 135 70
86 31 92 259 243 217 160 84
101 36 93 268 264 243 185 99
108 46 89 260 279 270 210 117
114 66 74 233 287 298 235 138
119 91 51 186 286 320 262 161
118 110 20 125 275 332 278 180
101 119 -4 66 254 321 268 179
69 104 -11 13 209 265 215 145
33 55 -9 -39 128 155 113 76
0 -11 -14 -94 23 16 -12 -10
-31 -55 -30 -155 -82 -104 -112 -71
-53 -75 -56 -223 -174 -181 -163 -96
-64 -83 -87 -279 -243 -224 -187 -107
-69 -86 -110 -300 -271 -237 -194 -114
-69 -87 -118 -288 -260 -222 -182 -108
-64 -88 -121 -267 -236 -198 -163 -99
-55 -83 -121 -245 -214 -178 -147 -88
-45 -72 -116 -220 -190 -157 -130 -76
-39 -60 -104 -189 -162 -134 -110 -63
-40 -47 -90 -161 -137 -113 -94 -53
-39 -33 -75 -137 -113 -94 -78 -43
-34 -21 -62 -113 -93 -76 -64 -33
-30 -13 -51 -92 -74 -61 -52 -25
-27 -10 -41 -74 -60 -49 -41 -20
-23 -11 -31 -60 -49 -39 -33 -15
-21 -11 -25 -49 -40 -34 -29 -13
-19 -12 -19 -38 -33 -28 -27 -13
-19 -12 -14 -29 -26 -23 -24 -13
-18 -13 -11 -24 -22 -20 -22 -12
-15 -11 -10 -21 -20 -19 -20 -11
-11 -9 -10 -19 -18 -17 -19 -10
-8 -7 -8 -16 -15 -15 -17 -8
-9 -10 -7 -13 -14 -13 -15 -7
-12 -13 -7 -12 -13 -13 -14 -8
-14 -14 -6 -11 -13 -13 -15 -8
-12 -11 -5 -9 -13 -13 -15 -8
-10 -10 -3 -7 -13 -12 -15 -8
-10 -11 -3 -7 -12 -12 -14 -8
-11 -12 -5 -9 -12 -13 -15 -9
-11 -12 -5 -9 -12 -13 -15 -10
-11 -11 -4 -8 -11 -11 -13 -9
-8 -9 -3 -6 -9 -9 -12 -7
-6 -8 -3 -4 -8 -8 -11 -6
-7 -8 -3 -3 -8 -8 -12 -6
-9 -8 -2 -2 -7 -8 -12 -5
-10 -8 0 0 -6 -8 -12 -6
-10 -10 1 1 -6 -8 -11 -7
-10 -11 2 1 -5 -7 -11 -7
-9 -10 1 0 -6 -7 -11 -7
-7 -9 1 1 -5 -5 -10 -6
-7 -10 1 1 -4 -5 -9 -6
-8 -11 0 1 -4 -5 -9 -6
-8 -10 0 3 -3 -5 -8 -5
-7 -8 1 4 -3 -5 -8 -5
-5 -5 3 5 -3 -5 -8 -5
-4 0 2 5 -4 -5 -10 -6
-4 0 3 6 -3 -5 -10 -6
-6 -4 4 8 0 -4 -8 -5
-7 -5 3 6 -2 -5 -9 -6
-7 -7 3 5 -2 -5 -8 -6
-6 -11 2 4 -2 -5 -9 -7
-6 -14 0 2 -3 -6 -10 -8
-7 -11 1 4 -2 -5 -8 -6
-8 -6 3 7 1 -3 -7 -5
-7 -5 4 9 1 -2 -7 -4
-6 -6 5 10 2 -3 -7 -5
-6 -8 6 11 3 -3 -7 -6
-7 -9 7 11 3 -3 -7 -5
-9 -11 4 9 2 -3 -7 -5
-9 -11 2 7 1 -3 -7 -5
-6 -10 2 9 3 -2 -6 -5
-4 -8 1 8 2 -3 -7 -6
-7 -9 4 11 4 1 -5 -5
-9 -10 4 12 5 2 -5 -5
-7 -7 5 15 7 3 -4 -4
-5 -4 7 17 7 2 -3 -3
-6 -5 9 19 8 4 -2 -2
-8 -10 8 18 8 4 -3 -3
-8 -11 7 17 8 3 -4 -3
-7 -6 7 17 9 4 -3 -3
-8 -3 6 17 10 4 -3 -4
-8 -3 5 17 9 4 -4 -3
-7 -6 6 18 9 5 -3 -2
-6 -8 8 20 11 6 -2 0
-3 -6 7 21 11 5 -2 -2
0 -3 7 22 11 4 -2 -2
-2 -2 8 21 11 5 -2 -2
-4 -2 8 21 11 5 -2 -3
-5 -2 9 23 13 7 1 0
-4 0 7 22 13 6 1 1
-3 0 7 23 13 7 1 2
-2 0 5 21 12 6 1 1
-3 0 5 22 13 7 2 2
-4 0 5 23 13 8 2 2
-5 0 6 24 14 8 2 2
-4 0 7 26 15 9 3 3
-3 0 9 27 17 11 4 4
-2 0 8 28 18 12 5 5
-3 -2 9 30 20 14 7 7
-5 -3 9 31 21 14 7 7
-6 1 7 29 20 13 6 6
0 6 6 28 18 12 5 5
4 8 6 28 17 12 5 5
2 8 6 29 18 12 5 6
1 9 7 29 19 12 6 6
4 10 8 30 20 13 7 7
4 7 10 32 22 15 9 9
2 5 10 32 23 14 9 10
-2 7 9 30 22 14 8 10
0 9 8 29 20 13 7 9
1 11 7 27 19 13 8 10
1 12 6 26 18 12 9 11
-3 9 4 25 17 12 8 11
0 6 4 25 17 11 8 11
3 9 5 25 17 11 8 12
3 14 5 25 16 10 8 11
1 15 6 25 16 10 8 12
2 14 4 23 14 9 7 12
3 14 2 20 12 7 5 10
1 14 3 19 11 7 5 11
0 13 5 20 12 8 6 13
1 11 5 19 11 8 6 14
1 12 3 16 8 6 5 13
1 12 0 14 6 4 4 12
1 13 -2 12 3 2 2 10
1 13 0 11 2 1 1 10
1 15 0 11 1 1 1 11
4 15 -2 10 0 0 0 10
5 14 -2 9 -2 -2 0 10
4 15 -2 7 -3 -3 0 10
3 17 -4 5 -5 -5 -3 8
1 17 -4 4 -6 -6 -4 8
-2 13 -4 3 -8 -7 -4 8
-2 11 -4 2 -10 -8 -6 8
1 12 -4 1 -10 -9 -7 6
3 11 -3 1 -10 -10 -7 6
2 10 0 3 -10 -9 -6 7
1 12 0 3 -10 -9 -6 7
2 14 0 3 -9 -9 -5 8
2 14 1 3 -8 -8 -5 8
1 11 0 3 -9 -8 -4 8
-2 10 -2 2 -10 -8 -4 8
-3 11 -2 2 -11 -8 -5 7
-5 10 0 3 -10 -8 -5 6
-4 8 1 4 -10 -8 -7 4
0 8 0 4 -10 -10 -8 3
2 11 2 6 -8 -9 -6 5
3 12 2 5 -8 -9 -6 4
1 10 2 3 -8 -9 -7 4
-2 10 1 4 -8 -9 -7 3
-3 12 2 4 -7 -8 -6 4
-2 8 3 5 -5 -6 -4 5
-2 1 4 6 -4 -5 -4 5
-3 2 4 7 -3 -3 -5 4
-2 8 4 7 -3 -3 -5 3
2 10 4 6 -4 -3 -6 1
2 7 4 8 -3 -2 -4 2
0 3 4 7 -2 -2 -4 3
1 4 2 4 -4 -5 -7 1
1 5 3 4 -3 -4 -5 2
1 5 4 6 0 0 -4 3
2 5 4 6 1 1 -3 3
1 5 1 2 -2 -2 -5 1
-4 4 1 1 -3 -2 -6 0
-6 2 1 1 -3 -3 -6 -2
-6 -3 1 1 -4 -3 -6 -3
-6 -4 1 1 -4 -2 -5 -3
-6 0 2 1 -3 -3 -4 -2
-5 4 2 1 -3 -3 -4 -2
-3 8 0 0 -4 -4 -4 -3
-2 7 0 -3 -4 -3 -5 -3
-2 4 1 -3 -4 -3 -6 -2
-4 1 2 0 -3 -2 -4 0
-5 1 2 0 -3 -2 -3 0
-3 3 2 -2 -4 -2 -5 -2
0 4 1 -4 -6 -4 -7 -3
-2 1 1 -4 -6 -5 -8 -5
-5 -4 2 -4 -6 -6 -9 -6
-5 -2 2 -5 -6 -7 -8 -6
-5 1 1 -4 -5 -6 -8 -5
-5 2 1 -4 -4 -4 -7 -4
-6 1 -2 -7 -6 -5 -7 -5
-7 -2 -2 -8 -7 -6 -7 -5
-6 -3 -2 -6 -6 -6 -8 -5
-4 -3 2 -3 -5 -4 -6 -3
-5 -3 2 -4 -6 -6 -7 -4
-7 -6 2 -4 -6 -7 -8 -5
-7 -6 1 -4 -6 -7 -8 -5
-5 -5 2 -3 -5 -6 -8 -4
-4 -3 3 -3 -5 -6 -8 -4
-3 0 2 -4 -5 -6 -7 -5
-3 1 1 -5 -7 -7 -8 -6
-4 -2 2 -4 -7 -7 -8 -6
-4 -3 2 -4 -7 -8 -9 -6
-4 -4 2 -5 -8 -8 -10 -7
-6 -4 2 -5 -8 -8 -9 -6
-7 -3 2 -5 -8 -8 -10 -7
-7 -3 2 -5 -7 -8 -10 -7
-7 -3 2 -5 -7 -8 -10 -6
-7 -3 3 -5 -8 -8 -9 -6
-7 -3 3 -4 -7 -8 -9 -6
-7 -3 4 -3 -6 -7 -8 -5
-7 -2 3 -3 -6 -7 -9 -5
-7 1 4 -2 -5 -7 -9 -7
-8 0 4 -2 -4 -8 -10 -8
-9 -2 5 1 -4 -7 -9 -7
-9 1 6 2 -3 -7 -9 -8
-7 3 6 2 -3 -7 -10 -8
-6 2 5 1 -3 -7 -10 -8
-7 0 5 1 -3 -6 -9 -8
-7 1 4 0 -3 -6 -9 -9
-8 4 3 0 -3 -7 -10 -9
-8 5 4 1 -2 -7 -10 -8
-7 4 6 2 -2 -7 -10 -8
-5 4 6 3 -2 -7 -10 -9
-4 2 6 3 -2 -6 -10 -9
-6 1 7 4 0 -5 -9 -9
-9 -2 8 5 1 -4 -8 -7
-11 -3 8 5 1 -3 -7 -6
-8 1 5 4 0 -4 -8 -7
-6 5 4 3 -2 -5 -9 -8
-7 3 5 3 0 -4 -7 -8
-7 0 7 5 2 -2 -5 -5
-6 1 7 7 3 0 -5 -4
-7 3 6 8 3 0 -5 -4
-7 2 5 6 2 -3 -7 -6
-8 3 6 6 2 -2 -7 -6
-8 4 7 7 4 0 -6 -6
-7 2 8 8 6 1 -5 -5
-7 3 7 7 7 2 -4 -5
-7 3 6 7 7 1 -4 -6
-6 1 6 7 6 2 -5 -6
-3 3 7 8 7 3 -4 -5
-5 4 7 8 8 2 -4 -6
-10 -2 6 7 7 2 -4 -6
-11 -4 6 7 6 2 -4 -5
-7 1 8 9 8 4 -2 -2
-5 3 8 8 8 5 -2 -2
-4 2 8 9 9 6 1 -2
-4 2 7 8 9 6 1 -3
-7 2 7 7 10 6 1 -4
-8 1 8 8 10 7 1 -2
-7 2 7 8 9 7 1 -2
-5 3 6 7 9 6 1 -3
-3 5 6 6 8 5 0 -4
-3 6 7 7 9 6 0 -3
-3 6 8 7 9 6 0 -2
-2 6 7 6 8 5 0 -3
-2 5 6 5 8 5 1 -2
-2 4 4 3 7 5 0 -3
-3 3 3 1 7 5 0 -4
0 4 3 1 6 4 0 -3
1 5 4 2 7 5 1 -2
-2 4 5 3 7 6 1 -2
-5 3 3 3 6 6 0 -3
-7 5 3 3 6 5 1 -3
-7 9 4 3 7 5 1 -2
-5 8 4 3 8 6 2 0
-4 4 4 3 8 6 2 0
-4 2 2 1 6 6 0 -2
-4 4 2 1 7 7 1 -2
-5 6 0 -2 5 5 -2 -3
-5 6 -2 -3 3 4 -3 -4
-3 5 0 -3 2 4 -2 -3
-2 5 1 -3 2 4 -2 -3
-5 4 0 -4 1 3 -3 -5
-6 3 1 -3 3 3 -2 -5
-6 1 3 0 5 5 2 -3
-3 1 4 0 5 6 3 0
0 5 1 -3 3 4 0 -5
-2 5 0 -4 3 4 1 -6
-3 1 0 -5 2 4 1 -5
0 -2 0 -5 1 3 1 -5
2 1 -2 -6 1 2 -2 -6
0 2 0 -6 1 2 -2 -6
-2 2 2 -4 1 3 0 -4
-2 2 4 -4 3 5 2 -3
0 2 3 -5 3 4 1 -3
0 3 2 -6 1 3 0 -3
1 4 -2 -8 -2 1 -2 -5
1 2 -3 -9 -2 1 -2 -5
-3 1 -4 -10 -2 1 -2 -6
-4 2 -4 -10 -3 2 0 -4
-3 3 -2 -8 -2 4 2 -2
-5 1 -2 -8 0 4 1 0
-7 -3 -2 -8 0 3 1 1
-6 -3 -2 -8 0 2 0 -2
-3 0 1 -6 2 3 2 0
1 4 0 -7 0 2 1 -2
0 5 -3 -9 -3 1 0 -4
-3 2 -3 -10 -3 1 0 -4
-3 2 -4 -11 -4 1 0 -4
-4 1 -3 -10 -3 2 1 -3
-4 0 -3 -10 -3 2 1 -4
-3 0 -2 -10 -2 2 1 -3
-2 1 -3 -11 -3 1 0 -4
1 2 -5 -12 -5 0 -2 -5
2 2 -3 -11 -4 1 -2 -5
2 1 -2 -10 -3 1 0 -4
-2 1 -2 -10 -2 2 1 -3
-4 2 -2 -11 -3 1 0 -3
-3 3 0 -10 -2 3 1 -2
0 3 0 -10 -2 3 1 -3
1 3 0 -10 -2 2 1 -3
0 3 -2 -10 -3 1 0 -5
-3 1 -2 -10 -4 1 0 -5
-2 -3 -2 -9 -5 1 0 -5
0 -2 -3 -11 -5 0 -2 -5
0 0 -3 -12 -4 0 -3 -5
0 1 -3 -12 -4 0 -3 -5
-2 1 -5 -13 -4 0 -3 -6
-3 -2 -5 -13 -4 1 -2 -5
-2 -3 -5 -13 -5 1 0 -4
-3 -2 -4 -11 -3 2 0 -4
-4 1 -3 -11 -2 2 0 -4
-5 3 -2 -12 -3 2 0 -4
-4 5 -2 -11 -3 2 0 -3
-2 7 -2 -10 -3 2 1 -3
2 10 -3 -12 -4 1 0 -4
4 12 -4 -13 -5 0 -2 -4
2 7 -3 -12 -3 2 1 -2
-2 2 1 -9 2 5 4 1
-3 3 2 -8 3 6 5 2
2 6 1 -9 1 5 4 1
5 9 2 -9 1 5 4 0
4 14 3 -7 3 6 5 1
2 14 6 -4 6 8 7 3
2 11 9 -2 8 10 9 4
3 11 9 0 8 9 9 4
4 14 10 1 9 11 10 5
4 18 10 1 10 12 11 7
5 22 9 0 10 12 10 6
6 23 8 1 10 11 9 6
6 21 8 1 10 11 9 5
4 18 8 3 11 12 10 5
6 18 9 5 12 12 11 5
9 20 10 6 13 13 11 5
10 20 10 6 14 14 11 5
8 21 7 5 13 14 11 5
10 26 5 4 12 13 11 6
14 27 3 3 12 13 11 7
17 21 1 3 12 15 13 9
16 17 1 4 13 18 15 11
16 18 1 4 15 19 17 11
19 21 2 5 16 20 19 12
20 23 4 7 18 22 20 14
18 22 4 7 17 21 19 14
16 20 2 5 15 20 18 14
16 19 -2 0 11 17 16 12
16 19 -5 -6 7 14 14 11
18 20 -7 -9 5 11 11 8
19 20 -7 -9 5 10 11 8
17 17 -8 -9 4 10 10 7
14 14 -9 -10 3 9 9 5
15 10 -8 -10 4 10 9 5
17 9 -9 -11 3 8 7 4
17 10 -11 -12 0 6 6 3
16 9 -13 -13 -2 5 5 2
14 5 -10 -12 0 6 6 4
11 3 -9 -12 0 6 6 3
8 4 -8 -12 0 6 6 2
8 5 -9 -13 -2 5 7 1
11 5 -9 -13 -2 4 6 1
11 5 -9 -13 0 4 5 2
7 5 -8 -12 -2 4 5 1
3 4 -6 -11 -2 4 5 1
2 3 -6 -13 -3 2 3 0
4 2 -7 -15 -4 1 2 -2
5 2 -8 -15 -5 0 1 -2
2 1 -8 -16 -6 0 1 -3
-3 -2 -10 -18 -7 -3 -2 -6
-4 -4 -12 -21 -9 -5 -4 -9
-2 -5 -13 -22 -10 -6 -5 -10
1 -3 -13 -22 -11 -7 -5 -10
1 0 -11 -20 -11 -6 -4 -9
-4 -2 -12 -20 -11 -7 -5 -9
-6 -4 -11 -20 -10 -5 -5 -9
-4 -7 -10 -19 -9 -4 -4 -8
-3 -8 -9 -18 -9 -4 -3 -7
-4 -7 -10 -18 -9 -4 -3 -7
-4 -7 -11 -20 -8 -4 -3 -8
-4 -10 -10 -20 -8 -4 -3 -7
-5 -11 -10 -20 -9 -4 -3 -8
-4 -11 -11 -21 -11 -6 -5 -10
-3 -12 -11 -21 -12 -7 -6 -10
-5 -13 -10 -20 -12 -6 -5 -9
-7 -12 -11 -20 -11 -6 -6 -10
-7 -10 -10 -20 -10 -5 -5 -9
-5 -8 -9 -21 -10 -6 -5 -9
-4 -7 -10 -21 -11 -7 -5 -9
-5 -11 -9 -20 -10 -6 -4 -8
-6 -13 -10 -20 -10 -6 -4 -9
-5 -11 -8 -18 -8 -4 -2 -7
-4 -7 -7 -18 -8 -4 -2 -7
-4 -6 -8 -18 -9 -5 -3 -8
-5 -5 -10 -19 -11 -7 -5 -9
-6 -6 -10 -20 -11 -7 -6 -11
-7 -10 -9 -19 -10 -6 -4 -10
-7 -11 -10 -20 -11 -6 -5 -10
-6 -8 -10 -21 -11 -7 -5 -11
-5 -6 -10 -20 -11 -8 -6 -11
-5 -8 -9 -18 -10 -7 -5 -10
-7 -11 -8 -17 -10 -7 -6 -11
-7 -13 -7 -15 -11 -9 -8 -13
-9 -12 0 -9 -8 -7 -7 -11
-11 -8 8 1 -2 -5 -5 -8
-12 1 18 15 7 2 0 -7
-10 6 29 33 18 8 4 -5
-6 7 38 57 35 21 12 0
4 10 47 86 63 44 30 8
20 16 54 120 97 76 56 20
37 20 65 161 137 113 84 33
55 24 77 205 179 151 111 47
74 30 89 243 217 187 140 61
97 38 94 264 243 216 164 76
115 49 94 267 260 239 187 93
126 62 90 256 275 266 213 112
129 80 73 224 283 292 238 134
131 101 44 172 280 311 260 155
127 116 13 113 269 317 271 170
103 116 -6 56 240 290 247 158
64 87 -9 -3 177 212 175 111
24 23 -14 -67 75 82 57 28
-10 -40 -29 -136 -39 -54 -63 -54
-40 -75 -52 -202 -138 -151 -140 -99
-58 -89 -78 -263 -215 -208 -177 -115
-65 -97 -103 -298 -260 -236 -190 -122
-68 -99 -119 -302 -268 -235 -188 -122
-68 -96 -122 -283 -248 -213 -173 -114
-60 -90 -120 -258 -224 -189 -153 -103
-48 -80 -116 -231 -201 -168 -136 -93
-43 -66 -106 -201 -174 -144 -114 -78
-40 -50 -91 -169 -144 -118 -93 -63
-36 -35 -74 -141 -118 -97 -74 -52
-32 -26 -60 -114 -95 -77 -58 -38
-27 -18 -49 -94 -75 -62 -47 -30
-23 -12 -41 -78 -63 -52 -39 -27
-20 -10 -34 -65 -53 -44 -33 -24
-19 -10 -27 -54 -46 -38 -29 -22
-17 -10 -20 -41 -37 -31 -25 -20
-13 -9 -15 -31 -30 -27 -22 -19
-10 -8 -10 -22 -23 -21 -17 -17
-9 -7 -8 -17 -17 -18 -13 -15
-9 -7 -6 -15 -16 -16 -12 -15
-10 -10 -8 -16 -18 -18 -15 -17
-11 -14 -8 -16 -19 -18 -15 -16
-12 -15 -6 -13 -16 -15 -13 -12
-13 -13 -5 -11 -14 -13 -11 -10
-13 -11 -3 -9 -13 -13 -10 -10
-13 -11 -3 -8 -14 -13 -10 -10
-12 -11 -5 -8 -15 -14 -11 -11
-10 -11 -5 -7 -14 -13 -10 -10
-8 -11 -5 -7 -13 -12 -9 -10
-7 -11 -3 -5 -11 -10 -8 -10
-5 -10 -3 -5 -10 -10 -9 -11
-7 -11 -2 -3 -10 -10 -9 -11
-9 -12 -2 0 -10 -10 -8 -10
-10 -12 1 2 -9 -9 -6 -9
-9 -11 2 3 -9 -8 -6 -9
-8 -10 2 4 -9 -8 -6 -8
-6 -8 2 4 -8 -8 -6 -8
-4 -7 1 2 -8 -9 -7 -10
-7 -9 0 1 -9 -10 -7 -12
-8 -9 -2 0 -10 -10 -7 -13
-5 -5 1 2 -7 -8 -5 -9
-4 -5 2 3 -6 -8 -5 -8
-6 -8 2 4 -6 -8 -6 -7
-6 -10 2 5 -6 -7 -6 -8
-4 -8 2 5 -7 -8 -7 -8
-5 -10 3 8 -5 -7 -6 -8
-6 -11 3 9 -4 -6 -5 -7
-5 -6 1 7 -5 -8 -6 -9
-4 -3 0 6 -5 -9 -7 -10
-6 -7 1 6 -5 -7 -6 -9
-7 -11 2 7 -5 -6 -5 -8
-5 -11 4 10 -3 -5 -3 -6
-4 -11 5 12 -2 -4 -2 -7
-5 -11 5 13 -2 -4 -2 -7
-6 -9 4 11 -4 -6 -4 -8
-4 -8 3 9 -6 -8 -6 -10
-3 -9 4 10 -5 -8 -6 -10
-2 -7 5 12 -3 -6 -5 -8
-2 -3 5 14 -2 -5 -4 -8
-3 0 3 14 -3 -6 -4 -9
-4 -3 2 14 -3 -6 -4 -8
-3 -6 3 16 0 -5 -3 -6
-2 -8 4 19 2 -4 -3 -5
-4 -10 3 20 2 -5 -4 -6
-5 -8 3 20 0 -5 -4 -6
-3 -6 4 20 0 -5 -3 -6
-2 -5 7 21 2 -2 0 -5
-3 -5 6 22 3 -2 1 -5
-5 -5 5 23 4 0 1 -4
-4 -5 3 22 4 0 1 -4
-4 -4 4 24 5 1 2 -3
-3 -3 4 24 5 1 2 -3
0 -2 4 24 4 0 1 -3
0 -3 5 24 5 0 2 -4
-3 -4 5 25 4 0 1 -5
-4 -5 5 25 4 0 1 -5
-4 -6 7 27 7 2 3 -4
-2 -6 6 27 8 1 3 -5
0 -6 5 26 7 1 1 -5
1 -4 3 25 6 0 0 -6
0 1 4 27 8 2 3 -4
0 2 6 29 9 3 4 -2
-2 -2 7 32 10 4 4 2
1 -3 6 33 9 3 3 1
3 2 7 35 10 3 4 2
4 5 6 36 11 3 4 2
3 4 7 35 11 3 4 2
2 2 8 36 12 5 7 4
2 4 8 36 13 6 8 6
2 6 8 36 13 6 8 6
3 7 8 37 14 7 9 7
4 7 7 37 15 7 9 7
6 7 7 37 15 7 10 8
7 6 6 37 14 7 9 7
7 8 5 35 11 5 7 5
6 7 5 36 12 5 8 5
3 4 7 38 14 6 10 7
2 3 6 37 14 7 11 8
1 5 6 37 14 7 11 9
2 5 6 36 14 8 11 9
6 7 5 35 13 7 11 9
8 10 3 33 11 6 11 10
5 11 5 34 12 6 11 12
5 11 5 33 11 5 10 13
7 13 4 30 8 3 7 12
6 12 3 29 7 3 8 12
3 11 2 29 7 3 8 12
4 13 1 28 7 3 9 12
6 15 2 28 6 3 10 14
7 15 1 26 5 3 10 14
7 14 0 23 3 1 8 12
7 14 -2 22 1 -2 6 12
6 12 0 21 0 -3 6 13
4 11 1 21 -2 -3 6 12
5 14 1 20 -4 -4 4 10
7 17 0 19 -6 -7 3 10
7 17 -2 18 -7 -8 2 9
5 14 0 17 -6 -7 4 10
3 12 -2 16 -8 -8 4 11
1 9 -4 14 -8 -10 3 11
0 8 -6 12 -11 -11 1 9
-2 9 -5 12 -12 -11 1 11
1 9 -3 12 -13 -11 1 13
3 9 -3 10 -15 -13 0 12
5 10 -3 10 -16 -14 -2 10
5 11 -2 12 -15 -14 -2 11
3 12 -2 12 -14 -13 -2 10
2 15 -4 10 -16 -14 -4 8
3 14 -4 9 -17 -14 -5 8
5 10 -3 11 -15 -14 -3 9
3 8 -4 10 -14 -14 -2 10
0 8 -4 10 -14 -14 -2 10
3 8 -3 12 -14 -13 -2 10
6 8 -2 14 -12 -12 0 10
5 9 0 14 -12 -13 -2 9
3 8 0 15 -12 -13 -3 8
3 6 1 15 -12 -14 -3 7
4 6 0 14 -13 -13 -3 6
4 6 0 14 -13 -12 -2 6
3 4 2 16 -10 -10 1 7
1 5 2 16 -8 -10 1 7
-2 6 2 16 -8 -10 0 6
0 6 1 15 -9 -12 -2 5
2 3 0 16 -9 -12 0 3
3 2 1 17 -7 -10 1 5
4 2 2 17 -6 -9 0 6
2 2 3 18 -4 -8 0 5
0 2 3 17 -4 -7 1 5
2 1 3 16 -3 -7 2 5
5 1 1 14 -4 -7 1 4
7 2 -2 12 -6 -8 0 3
7 3 -2 11 -5 -8 0 4
5 1 0 11 -4 -7 1 5
2 -3 2 13 -4 -6 2 5
0 -5 3 14 -4 -6 2 4
-2 -4 2 14 -4 -7 1 4
-2 -4 2 13 -5 -7 1 3
-2 -4 1 12 -5 -7 0 3
0 -3 1 11 -6 -7 0 3
0 0 0 10 -6 -9 -2 2
1 1 -2 9 -7 -9 -2 0
1 2 0 9 -7 -8 -2 -2
-3 -4 1 10 -6 -8 -2 0
-5 -12 2 10 -5 -8 -3 0
-5 -15 2 10 -5 -7 -3 0
-4 -10 2 10 -6 -7 -2 1
-3 -7 0 8 -7 -9 -3 0
-2 -7 -2 7 -8 -9 -4 -2
-3 -7 0 8 -7 -8 -4 1
-3 -7 -2 7 -7 -8 -4 1
-2 -8 -3 8 -7 -8 -3 1
-2 -9 -2 8 -6 -8 -2 2
-2 -8 0 8 -6 -8 -3 2
1 -6 -2 6 -8 -10 -5 1
-2 -5 0 7 -8 -9 -4 1
-4 -5 0 8 -9 -9 -5 -2
-3 -4 0 8 -9 -9 -6 -2
-2 -4 -2 7 -10 -10 -7 -4
-2 -3 -2 6 -9 -10 -7 -4
-2 -4 -4 5 -10 -11 -8 -5
-3 -7 -4 5 -8 -9 -5 -3
-5 -11 0 7 -7 -7 -3 0
-5 -9 1 8 -7 -8 -3 0
-3 -8 2 7 -8 -9 -4 -2
-4 -10 2 8 -9 -8 -5 -2
-5 -10 3 9 -8 -8 -5 0
-3 -8 3 9 -7 -8 -5 0
-3 -9 3 9 -7 -8 -5 -2
-3 -9 4 9 -7 -8 -6 -2
-3 -7 4 10 -6 -8 -6 -2
-6 -8 3 9 -7 -9 -6 -3
-7 -9 1 8 -8 -9 -7 -4
-7 -8 1 8 -8 -10 -8 -4
-6 -7 2 10 -6 -9 -7 -3
-5 -6 3 11 -6 -8 -7 -3
-4 -6 4 12 -6 -9 -7 -4
-5 -4 2 9 -8 -11 -8 -5
-6 -2 1 8 -9 -11 -9 -6
-4 -2 2 7 -9 -11 -8 -5
-3 -5 4 9 -7 -9 -6 -3
-4 -8 4 10 -6 -8 -5 -2
-5 -8 5 11 -5 -7 -5 -2
-6 -9 4 11 -5 -7 -6 -3
-7 -11 4 12 -4 -7 -6 -3
-7 -11 4 12 -5 -7 -7 -4
-6 -8 5 13 -4 -7 -7 -4
-3 -6 5 14 -4 -8 -7 -5
-4 -7 5 14 -3 -7 -7 -5
-9 -8 5 13 -2 -6 -7 -5
-9 -7 5 13 0 -6 -6 -4
-5 -3 4 12 -3 -7 -5 -4
-2 -2 5 13 -3 -7 -5 -2
-4 -5 6 13 -3 -6 -4 0
-7 -6 7 16 1 -3 -2 1
-8 -3 6 17 2 -4 -2 1
-7 1 7 18 2 -5 -3 0
-7 0 6 16 0 -6 -4 -2
-7 -6 6 15 1 -4 -3 -2
-7 -11 6 17 3 -2 0 1
-6 -10 7 19 6 1 2 3
-7 -6 6 17 6 1 1 1
-7 -5 6 16 5 0 -2 -2
-5 -5 7 17 6 1 0 0
-5 -3 7 18 5 1 0 0
-5 0 6 16 4 0 0 -2
-4 0 6 17 5 1 1 0
-3 -2 6 17 5 2 1 0
-7 -6 7 17 6 3 2 1
-9 -8 6 17 6 3 2 2
-8 -4 5 16 5 2 1 2
-5 1 5 16 5 2 1 3
-2 1 4 15 5 2 1 3
0 0 5 15 5 2 2 4
0 0 5 14 5 2 2 4
-4 -3 6 16 6 3 4 5
-7 -6 7 16 7 3 4 5
-7 -6 7 16 6 3 3 3
-3 -3 6 14 5 3 3 2
1 1 5 14 4 3 3 2
-2 2 4 13 5 2 3 2
-4 2 1 11 3 0 1 0
-3 1 1 11 2 1 1 1
-2 0 3 11 4 2 3 2
-4 -3 6 13 6 4 5 4
-6 -4 5 12 5 4 5 5
-5 -3 5 11 4 3 3 5
-2 1 5 9 3 2 2 4
-3 1 4 9 3 3 3 4
-4 1 4 10 4 4 5 5
-3 3 3 9 3 4 4 4
-2 5 2 7 3 3 3 3
-3 2 2 7 2 2 3 3
-4 -3 3 8 1 2 3 4
-4 -4 2 7 0 1 1 3
0 -2 0 5 0 0 0 1
3 1 1 7 0 0 0 1
3 2 2 7 0 0 0 0
2 1 1 6 0 1 0 0
-2 -3 2 7 1 2 1 2
-4 -3 2 7 2 3 3 3
-3 -2 -2 5 0 1 2 2
-3 0 -3 4 -2 0 1 1
-3 0 -3 3 -3 0 1 2
-2 -2 -2 3 -3 1 2 3
-2 -2 0 2 -3 2 3 4
-2 -2 0 2 -3 1 2 4
-2 -3 0 2 -3 1 2 3
1 -2 -3 1 -4 0 1 2
1 1 -4 -2 -5 -3 0 1
-2 3 -3 -2 -6 -3 -2 1
-2 2 0 1 -3 1 2 3
-2 0 -3 1 -4 1 1 3
-2 -3 -4 0 -5 0 0 1
0 -2 -4 -2 -6 -2 -2 -2
-2 -3 -3 0 -5 -2 0 -2
-3 -3 -3 0 -6 -3 -2 -2
-4 -3 0 1 -5 0 1 0
-3 -4 1 1 -4 1 1 1
-2 -4 -2 -2 -5 0 0 -2
-2 -5 -2 -2 -5 0 0 0
-2 -4 -3 -3 -5 0 0 0
0 -2 -3 -2 -5 0 0 1
0 0 -2 0 -5 0 0 1
-3 0 -4 -4 -6 -3 -3 0
-6 -3 -6 -7 -8 -5 -4 -2
-6 -3 -6 -6 -9 -5 -4 0
-5 -3 -4 -4 -7 -4 -4 1
-6 -4 -4 -4 -6 -2 -3 2
-5 -4 -5 -5 -8 -2 -3 1
-4 -4 -4 -4 -7 0 -2 2
-2 -4 -5 -5 -8 0 -2 1
1 0 -6 -6 -9 -2 -2 0
1 -2 -5 -6 -9 -2 -2 -2
1 -4 -4 -5 -8 -2 -2 -3
0 -3 -4 -5 -8 -2 0 -2
-2 1 -4 -5 -8 -3 -2 0
-3 -2 -4 -4 -6 -2 0 2
-5 -5 -4 -3 -6 -2 0 1
-7 -5 -6 -7 -9 -4 -3 -2
-5 -3 -8 -8 -9 -4 -4 -3
0 1 -7 -7 -8 -3 -2 0
2 4 -6 -6 -8 -2 -2 0
0 2 -5 -6 -9 -3 -2 0
-4 -2 -4 -6 -8 -2 -2 1
-4 -5 -3 -5 -7 1 1 2
-4 -6 -2 -3 -5 3 2 3
-6 -4 -2 -3 -5 1 2 2
-5 -2 -3 -5 -6 0 1 2
-3 0 -4 -7 -8 -2 0 1
-2 1 -4 -8 -9 -3 -2 -2
0 1 -3 -7 -7 0 0 0
2 4 -3 -6 -6 2 0 1
4 7 -3 -5 -6 2 0 1
3 9 -2 -4 -5 2 1 1
2 11 1 -3 -3 4 1 2
3 11 3 0 -2 5 2 2
4 11 4 1 0 6 3 3
3 10 3 1 0 5 3 3
2 11 3 0 -2 5 3 3
4 13 4 0 0 6 5 3
3 17 5 1 2 8 7 5
2 18 5 3 4 9 8 7
1 18 7 6 6 11 10 10
2 18 7 6 6 11 11 10
5 18 7 6 6 12 11 10
7 18 7 7 6 13 12 11
9 19 8 7 7 13 12 11
11 20 8 8 7 13 11 10
10 17 8 10 9 14 11 11
10 14 8 10 11 16 13 12
11 16 6 9 12 17 14 12
13 20 4 8 11 17 14 12
14 23 2 8 11 17 15 13
15 22 2 8 11 18 15 13
15 20 1 8 11 18 15 13
15 21 2 9 12 19 17 15
16 25 1 9 12 19 17 15
17 25 2 9 12 20 18 16
14 20 1 9 12 21 18 17
11 18 -4 4 9 18 15 14
11 19 -7 -2 6 15 12 12
13 22 -10 -4 3 12 10 10
12 21 -10 -6 2 11 10 9
11 17 -10 -7 2 11 9 9
10 15 -10 -7 2 11 10 10
11 15 -10 -8 1 11 9 10
11 15 -9 -8 0 10 9 9
11 13 -8 -8 -2 10 9 9
11 13 -9 -8 -2 10 9 8
12 13 -11 -10 -3 9 8 7
12 11 -12 -12 -4 7 7 5
11 10 -12 -12 -5 7 6 4
11 9 -13 -13 -6 6 3 2
11 6 -12 -13 -7 4 2 1
10 6 -11 -14 -8 3 2 1
6 7 -10 -13 -7 4 2 2
1 5 -9 -11 -5 6 3 3
0 4 -8 -10 -5 6 3 3
2 5 -9 -13 -8 2 0 0
3 4 -9 -14 -9 0 -2 -2
1 0 -8 -13 -8 1 0 -2
0 -2 -9 -14 -10 0 -2 -4
-3 -3 -10 -15 -10 0 -3 -4
-6 -4 -10 -15 -11 0 -3 -3
-8 -3 -11 -17 -12 -3 -5 -4
-7 0 -10 -17 -12 -3 -5 -5
-3 -2 -9 -17 -11 -2 -3 -4
1 -6 -10 -18 -12 -2 -3 -4
-3 -7 -10 -19 -14 -3 -4 -5
-6 -6 -12 -21 -15 -5 -7 -7
-6 -6 -13 -20 -14 -5 -7 -7
-4 -9 -11 -19 -12 -3 -6 -6
-5 -10 -11 -19 -14 -4 -8 -9
-5 -10 -12 -20 -14 -5 -9 -11
-3 -8 -12 -20 -14 -5 -9 -11
-5 -6 -11 -20 -13 -5 -9 -10
-8 -7 -10 -20 -14 -6 -8 -9
-9 -9 -10 -20 -13 -6 -8 -8
-7 -8 -9 -18 -13 -4 -7 -7
-5 -4 -10 -18 -13 -4 -6 -6
-6 -3 -11 -19 -13 -3 -6 -5
-7 -6 -11 -18 -12 -2 -6 -6
-7 -6 -10 -17 -12 -2 -6 -6
-7 -6 -8 -16 -12 -2 -5 -6
-9 -9 -9 -17 -12 -2 -5 -6
-11 -9 -10 -19 -13 -4 -6 -7
-9 -7 -9 -19 -13 -4 -7 -8
-7 -6 -9 -19 -14 -4 -8 -9
-6 -8 -9 -18 -12 -4 -6 -8
-6 -9 -9 -17 -11 -2 -5 -6
-6 -7 -9 -17 -10 0 -5 -6
-6 -4 -11 -18 -13 -3 -8 -8
-7 -5 -11 -19 -15 -5 -9 -9
-7 -9 -8 -16 -13 -3 -7 -7
-9 -11 -5 -13 -10 -3 -7 -7
-10 -11 1 -9 -7 -2 -6 -8
-13 -5 4 -6 -6 -3 -7 -9
-14 1 10 4 0 0 -5 -6
-13 3 19 19 8 5 -2 -5
-14 2 27 38 21 14 4 -3
-9 3 36 62 40 28 14 2
6 10 43 90 68 54 33 11
25 15 50 122 102 87 59 23
42 16 61 161 142 123 88 38
60 20 75 205 183 163 119 56
79 26 86 240 219 199 148 72
96 32 90 258 242 227 172 87
107 40 89 257 258 251 193 101
116 55 81 241 270 276 218 119
126 77 65 207 275 302 245 144
128 102 37 153 269 319 268 165
116 116 11 95 252 319 270 174
87 110 -2 43 219 284 237 155
50 72 0 -11 155 195 153 97
16 11 -3 -67 57 63 30 12
-17 -39 -17 -130 -50 -67 -85 -63
-47 -62 -39 -196 -143 -156 -152 -101
-64 -72 -67 -258 -218 -207 -181 -113
-71 -79 -93 -293 -260 -230 -191 -118
-71 -81 -107 -291 -261 -222 -183 -114
-68 -82 -113 -272 -238 -197 -163 -104
-63 -82 -116 -253 -217 -176 -147 -95
-53 -74 -115 -231 -197 -158 -132 -86
-44 -60 -105 -200 -170 -135 -112 -73
-38 -49 -92 -171 -144 -114 -96 -62
-37 -39 -77 -145 -120 -96 -80 -51
-35 -27 -62 -119 -98 -76 -65 -40
-32 -14 -50 -96 -77 -58 -50 -30
-28 -10 -43 -79 -65 -48 -43 -26
-26 -11 -35 -66 -55 -40 -36 -24
-24 -9 -27 -55 -47 -35 -31 -21
-23 -7 -20 -44 -37 -29 -26 -18
-23 -10 -13 -31 -28 -21 -21 -15
-19 -10 -10 -23 -23 -17 -19 -15
-15 -8 -8 -19 -19 -15 -18 -14
-11 -8 -8 -18 -17 -15 -17 -14
-9 -8 -7 -15 -15 -13 -15 -12
-9 -6 -5 -13 -15 -11 -14 -11
-11 -6 -5 -11 -14 -10 -13 -10
-14 -9 -6 -9 -13 -10 -14 -11
-14 -10 -5 -7 -11 -9 -14 -11
-13 -11 -3 -6 -11 -8 -14 -11
-11 -11 -3 -6 -11 -8 -13 -11
-9 -11 -3 -6 -11 -7 -12 -10
-10 -11 -2 -4 -9 -5 -10 -8
-11 -10 -2 -4 -9 -5 -10 -10
-12 -11 -3 -6 -9 -5 -10 -10
-12 -12 -2 -4 -8 -4 -9 -8
-13 -14 0 -2 -7 -3 -7 -7
-12 -12 2 -2 -6 -3 -7 -7
-11 -7 3 2 -5 -3 -7 -6
-9 -6 4 4 -4 -2 -7 -6
-10 -8 4 4 -4 -3 -7 -7
-11 -10 4 4 -4 -2 -8 -7
-11 -8 3 3 -4 -2 -8 -7
-11 -6 2 4 -3 0 -7 -6
-10 -6 2 3 -3 -2 -7 -6
-10 -8 3 4 -3 0 -7 -6
-10 -10 3 5 -2 1 -6 -6
-10 -8 4 6 0 2 -5 -6
-9 -7 4 7 1 1 -6 -6
-7 -8 4 7 1 0 -7 -7
-7 -9 6 10 3 1 -6 -5
-7 -8 5 9 2 0 -6 -6
-9 -7 6 9 1 1 -6 -5
-10 -10 3 7 0 0 -7 -8
-11 -11 3 7 1 1 -6 -7
-8 -8 4 8 3 2 -4 -5
-4 -5 3 8 2 1 -5 -6
-4 -5 3 10 3 2 -4 -5
-8 -4 4 12 3 3 -3 -4
-12 -2 5 13 3 3 -3 -4
-11 -3 5 14 3 3 -4 -6
-8 -3 5 13 4 2 -4 -5
-7 -2 5 12 5 1 -4 -5
-6 -6 7 13 5 3 -2 -4
-5 -9 8 15 7 6 0 -2
-4 -7 8 17 9 7 0 1
-6 -4 8 18 9 7 -2 0
-7 -7 7 17 9 6 -3 -3
-7 -8 6 18 7 4 -4 -5
-7 -8 6 18 6 4 -4 -6
-7 -8 7 18 8 5 -4 -6
-6 -6 8 19 10 7 -2 -4
-5 -4 8 19 11 7 -2 -4
-5 -4 7 19 11 7 0 -4
-5 -5 8 20 12 8 0 -3
-6 -5 8 20 11 7 -2 -4
-7 -5 7 21 10 7 -3 -4
-8 -5 10 23 13 9 0 -2
-7 -4 10 23 12 8 0 -2
-7 -2 8 23 12 7 0 -2
-4 3 8 24 13 7 0 0
-2 4 9 25 14 9 2 3
-5 2 9 26 15 10 3 3
-5 2 6 24 15 10 2 1
-2 3 5 22 15 11 2 1
-2 1 8 24 17 13 5 4
-6 -6 9 27 19 14 8 7
-6 -6 9 29 20 14 7 7
-2 1 8 29 19 13 5 5
1 3 9 30 19 13 5 5
-2 1 11 32 20 14 6 5
-3 -2 12 33 22 15 8 5
-5 1 11 33 21 15 7 6
-6 4 9 32 21 14 6 6
-3 6 9 31 21 14 6 6
0 7 8 31 21 15 7 7
2 6 8 31 21 15 7 7
3 6 9 33 23 16 9 9
1 7 10 33 23 17 9 10
0 9 10 33 23 15 9 10
0 11 9 32 21 14 8 9
0 13 10 34 23 16 10 12
0 11 9 33 22 15 9 12
0 7 8 32 22 17 10 13
1 7 7 30 21 16 10 12
2 10 6 30 20 15 9 12
3 13 6 29 18 13 9 11
3 15 5 27 17 12 7 10
0 14 7 28 18 13 8 11
-2 13 9 30 19 14 9 13
2 15 8 29 18 13 8 13
4 18 7 27 17 11 7 13
3 17 5 25 14 9 5 13
3 15 4 23 13 9 6 13
2 16 4 21 11 8 5 13
1 17 3 20 10 7 5 12
0 17 3 19 8 5 3 12
1 17 3 18 6 4 2 12
2 18 2 16 4 2 1 12
2 19 2 14 3 1 1 12
0 20 2 13 2 -2 0 11
0 20 1 11 1 -3 -2 10
2 17 3 12 2 -2 1 13
5 12 3 12 2 -2 2 14
4 11 2 11 0 -3 1 14
3 13 0 9 -4 -5 -3 13
1 14 0 8 -6 -6 -4 12
0 14 0 7 -6 -8 -5 10
-2 14 0 6 -7 -10 -6 9
-3 14 0 5 -9 -11 -7 9
-3 14 3 7 -8 -9 -6 11
0 14 5 8 -8 -9 -5 11
1 15 5 8 -7 -9 -5 11
2 16 2 6 -8 -10 -6 9
2 16 2 6 -8 -10 -7 9
3 15 2 7 -8 -11 -7 8
3 14 2 8 -10 -11 -7 7
1 13 3 8 -10 -11 -8 6
0 12 4 8 -10 -11 -8 5
0 11 4 9 -9 -10 -8 5
0 10 5 11 -6 -7 -6 7
-3 9 5 11 -4 -7 -5 7
-4 10 4 9 -5 -9 -7 6
-4 11 3 10 -5 -9 -7 6
-3 12 6 11 -2 -5 -3 9
1 11 5 11 -2 -5 -4 9
1 9 5 11 0 -4 -3 9
-2 8 5 12 1 -4 -3 8
-2 8 5 13 2 -3 -3 6
2 9 4 11 1 -3 -5 5
2 8 6 13 3 0 -3 6
1 7 7 13 4 1 -3 5
0 8 7 12 4 0 -3 5
0 8 4 10 3 0 -3 4
2 9 3 8 2 -2 -4 2
3 11 2 7 0 -4 -5 2
3 9 3 7 1 -4 -5 1
2 4 4 7 2 -3 -4 1
0 1 5 8 3 -2 -4 2
-4 1 5 8 3 -2 -3 3
-4 1 6 8 3 0 -3 3
-5 3 5 7 1 -2 -4 2
-6 7 3 6 0 -3 -6 1
-8 8 4 7 2 -2 -6 1
-10 2 5 6 2 -2 -6 1
-8 -4 4 6 2 -3 -6 1
-4 -3 5 6 3 -3 -5 2
2 -2 4 6 1 -3 -6 1
1 -3 3 4 -2 -5 -8 -3
-2 -3 3 3 -4 -6 -9 -4
-4 0 3 2 -4 -6 -9 -4
-6 0 4 3 -3 -5 -9 -3
-7 2 2 1 -4 -8 -11 -5
-7 5 1 -2 -6 -10 -12 -7
-7 2 1 -2 -6 -9 -11 -6
-7 -5 3 2 -4 -6 -9 -3
-7 -5 3 3 -3 -5 -8 -2
-8 -2 4 3 -2 -5 -8 -2
-8 0 3 1 -3 -6 -11 -5
-6 -4 5 3 -3 -6 -10 -5
-5 -8 6 4 -3 -6 -8 -4
-7 -9 7 4 -2 -5 -8 -3
-7 -8 6 3 -4 -7 -9 -4
-7 -6 5 2 -4 -7 -9 -4
-7 -5 3 1 -5 -8 -10 -6
-7 -2 2 0 -7 -9 -12 -7
-7 1 2 1 -7 -9 -13 -7
-7 -2 2 1 -7 -9 -14 -7
-9 -5 5 3 -4 -8 -11 -6
-8 -5 6 4 -3 -8 -11 -6
-6 -4 7 4 -4 -8 -11 -6
-6 -6 7 4 -3 -8 -10 -5
-7 -6 8 4 -3 -7 -9 -4
-8 -7 4 2 -5 -8 -12 -6
-9 -7 3 2 -6 -9 -13 -7
-9 -5 3 2 -5 -8 -12 -6
-8 1 5 5 -3 -8 -11 -7
-6 2 7 7 -2 -7 -11 -7
-6 -2 8 8 0 -6 -10 -6
-6 -3 7 7 -2 -7 -10 -6
-7 -4 8 6 -2 -7 -9 -5
-9 -5 8 6 -2 -7 -10 -5
-10 -5 6 5 -3 -8 -11 -6
-10 -5 5 5 -2 -7 -11 -6
-8 -3 7 7 1 -7 -11 -5
-6 0 8 9 1 -6 -10 -2
-6 0 7 8 -2 -6 -10 -3
-8 -5 6 7 -3 -7 -11 -5
-9 -4 5 7 -2 -7 -11 -6
-7 1 6 8 1 -6 -10 -5
-7 3 6 9 2 -5 -10 -4
-7 3 7 8 2 -5 -9 -2
-7 4 7 8 2 -5 -8 0
-8 4 7 8 2 -4 -8 0
-8 4 6 7 3 -2 -7 -2
-6 4 6 7 3 -2 -6 0
-5 3 6 10 4 1 -4 2
-7 2 6 10 5 1 -5 2
-9 1 6 10 5 1 -6 1
-8 3 7 10 4 0 -7 0
-7 5 7 10 5 0 -7 -3
-7 2 8 11 7 1 -5 -3
-8 -2 7 11 7 2 -5 -2
-8 2 5 9 6 0 -6 -3
-6 5 5 9 7 2 -4 0
-4 4 7 11 9 5 -2 2
-6 0 9 13 9 6 -2 3
-7 -2 8 13 9 6 0 4
-5 -3 7 12 8 6 0 4
-5 -3 6 10 7 5 0 3
-5 0 5 9 6 4 -2 3
-6 3 5 10 8 5 0 4
-6 4 4 9 8 6 1 4
-5 5 4 8 8 6 1 4
-4 6 4 7 7 5 0 3
-6 5 5 8 7 5 0 3
-6 5 4 8 7 5 -2 2
-4 6 3 8 8 5 -2 2
-2 5 3 7 8 5 -2 2
-3 2 4 8 8 6 0 3
-4 2 4 7 8 6 1 4
-4 4 3 6 7 6 2 5
-4 4 3 5 7 6 1 5
-6 3 3 5 7 7 2 6
-5 2 3 5 7 8 3 5
-3 3 2 4 5 6 2 6
-4 4 0 3 4 5 1 5
-7 3 -2 3 5 5 2 6
-5 2 0 5 6 5 3 7
-3 0 1 4 5 5 1 6
-4 1 1 3 4 4 0 5
-4 5 0 2 3 4 -2 3
-3 7 -2 1 3 3 -3 1
-2 7 -3 0 3 3 -3 0
-2 4 0 1 4 5 0 1
-3 0 2 1 4 5 1 2
-4 -3 1 0 3 4 0 3
-4 -4 2 -2 3 6 1 4
-4 -4 2 1 4 7 2 6
-6 -3 1 0 3 5 0 4
-6 -2 0 -3 1 3 -3 3
-4 1 1 -3 1 2 -2 3
-2 4 0 -4 0 1 -3 2
-2 4 -2 -5 0 0 -4 1
-2 3 -4 -6 -2 -2 -5 -2
-2 3 -2 -4 0 1 -3 1
-2 5 0 -3 1 3 -2 3
-5 3 0 -3 1 3 -3 3
-7 2 0 -3 1 3 -2 4
-6 4 -2 -5 0 1 -2 4
-5 2 0 -5 -2 1 0 5
-5 0 -2 -7 -4 1 -2 4
-4 0 -3 -6 -3 2 0 5
-3 1 -3 -6 -2 3 1 5
-3 1 -2 -6 0 4 2 6
-5 1 0 -6 0 3 1 5
-6 1 -3 -7 -3 1 -3 3
-6 3 -3 -7 -4 0 -4 1
-3 2 -4 -9 -6 -3 -6 -2
-2 0 -5 -9 -7 -4 -7 -3
-5 -3 -3 -8 -5 -3 -5 1
-9 -2 -2 -8 -4 -2 -4 2
-7 0 -3 -9 -4 -3 -4 1
0 3 -4 -10 -5 -2 -3 1
3 4 -3 -9 -4 0 -2 2
-2 2 -2 -8 -4 1 0 3
-4 0 -3 -10 -5 0 -3 3
-4 0 -3 -9 -4 0 -2 4
-3 1 -4 -10 -5 0 -2 3
-4 0 -4 -10 -6 -2 -3 3
-4 -3 -4 -10 -5 -2 -3 3
-4 -2 -5 -11 -7 -4 -4 0
-5 0 -6 -12 -7 -4 -4 0
-6 0 -5 -12 -6 -3 -2 2
-6 1 -5 -12 -6 -2 -2 2
-5 1 -4 -10 -5 0 -2 3
-2 1 -4 -11 -5 0 -3 4
1 0 -3 -10 -4 0 -3 4
-2 -2 -3 -10 -4 0 -3 4
-4 -4 -4 -9 -4 0 -3 4
-3 -3 -5 -10 -4 -2 -3 2
-2 -2 -5 -11 -4 0 -2 2
-3 0 -5 -12 -5 -2 -3 1
-5 0 -6 -14 -7 -3 -5 -2
-4 -2 -6 -13 -8 -2 -5 -2
-4 -3 -5 -12 -6 1 -3 1
-5 -4 -5 -11 -6 0 -2 2
-6 -4 -4 -10 -4 1 1 4
-5 -4 -3 -10 -4 1 0 4
-4 -3 -2 -8 -2 2 1 5
-3 -2 -2 -8 -2 2 1 5
-3 1 -2 -8 -2 2 1 4
-4 4 1 -7 1 4 3 5
-3 9 1 -8 0 5 2 6
-3 11 0 -8 0 4 2 6
-3 11 1 -7 2 4 3 6
1 13 4 -3 4 7 5 7
3 15 8 1 8 10 7 9
2 13 8 0 8 10 7 10
0 11 8 -2 8 9 7 10
1 14 8 1 9 11 8 11
4 17 8 2 9 12 9 10
4 16 8 3 10 12 10 11
3 15 8 4 11 13 10 11
3 15 7 3 10 12 9 11
3 14 6 3 10 12 10 10
3 14 7 5 11 13 11 11
4 15 9 8 14 16 13 14
6 16 8 8 14 17 14 16
7 15 6 7 14 17 15 18
8 16 2 4 13 16 15 18
9 16 1 4 14 17 17 19
9 14 0 3 14 18 16 18
10 15 0 3 14 18 16 18
14 18 -3 2 14 18 15 17
13 18 -3 3 14 18 16 18
9 14 -5 0 10 15 14 16
6 12 -6 -3 9 15 13 16
6 13 -6 -4 9 15 14 17
7 13 -6 -5 8 15 15 17
9 12 -6 -6 8 12 13 16
12 11 -7 -8 6 10 11 14
13 11 -7 -9 6 11 11 13
10 10 -8 -11 4 10 10 12
7 9 -9 -12 3 9 9 11
8 6 -12 -12 1 7 8 10
9 5 -12 -12 0 7 7 10
6 5 -10 -12 0 7 7 11
2 5 -8 -11 1 7 8 12
3 2 -8 -12 -2 5 6 10
5 0 -8 -12 -2 4 6 10
5 0 -7 -12 -2 4 6 10
4 -2 -6 -11 1 5 8 11
2 -2 -8 -13 0 4 7 10
0 -3 -11 -16 -4 2 4 8
-3 -4 -11 -17 -5 1 2 5
-6 -7 -10 -15 -5 2 2 5
-7 -9 -9 -15 -6 1 1 4
-7 -10 -10 -17 -8 -2 -2 3
-6 -11 -9 -16 -8 -2 0 3
-5 -11 -9 -15 -8 -2 0 2
-5 -11 -10 -16 -8 -3 -2 2
-5 -9 -11 -19 -10 -5 -5 1
-5 -9 -11 -20 -11 -7 -6 0
-6 -12 -11 -20 -11 -6 -5 0
-7 -14 -10 -19 -11 -5 -4 1
-7 -12 -12 -22 -12 -7 -6 0
-8 -10 -13 -23 -13 -8 -7 -3
-10 -11 -13 -23 -12 -7 -6 -3
-10 -11 -13 -22 -12 -7 -6 -3
-8 -12 -13 -22 -12 -8 -6 -3
-7 -15 -11 -20 -10 -6 -4 0
-7 -18 -10 -20 -11 -6 -4 1
-8 -19 -9 -20 -11 -5 -4 1
-9 -17 -9 -19 -11 -5 -5 0
-9 -16 -9 -18 -11 -5 -5 -2
-10 -16 -9 -18 -11 -5 -5 -3
-11 -15 -10 -19 -11 -5 -5 -4
-11 -15 -10 -20 -11 -5 -5 -5
-11 -15 -10 -21 -10 -5 -6 -5
-11 -14 -10 -20 -11 -5 -5 -4
-9 -13 -11 -21 -12 -6 -6 -4
-10 -15 -12 -23 -12 -8 -7 -5
-13 -17 -12 -23 -12 -8 -6 -4
-15 -18 -12 -22 -12 -8 -6 -4
-14 -18 -12 -22 -12 -7 -6 -3
-11 -17 -12 -22 -11 -6 -5 -2
-9 -16 -11 -21 -11 -6 -5 -3
-9 -15 -10 -20 -11 -5 -5 -3
-10 -17 -9 -19 -10 -4 -5 -2
-8 -17 -9 -20 -10 -5 -6 -4
-7 -17 -8 -17 -8 -4 -6 -3
-10 -19 -5 -12 -6 -4 -6 -4
-15 -20 1 -7 -4 -3 -6 -5
-15 -14 7 1 1 -3 -6 -7
-11 -9 16 14 10 1 -4 -7
-9 -8 26 35 24 9 1 -5
-7 -7 35 58 43 23 10 -2
3 -2 45 86 70 49 31 12
17 5 54 121 109 88 62 29
30 8 63 160 152 129 95 46
45 13 74 202 197 173 129 63
65 17 86 239 239 214 161 81
88 19 91 261 267 246 188 97
101 25 89 263 283 272 210 110
107 39 82 250 295 298 234 127
111 64 67 217 300 325 264 150
112 89 40 162 292 346 289 175
103 106 14 101 275 353 300 190
78 111 -4 45 246 326 275 179
47 89 -5 -4 193 254 205 134
16 32 0 -49 108 131 90 56
-13 -28 -6 -100 2 -14 -38 -29
-40 -63 -26 -165 -105 -132 -131 -83
-59 -78 -58 -237 -200 -203 -175 -105
-69 -89 -88 -285 -260 -235 -191 -113
-73 -95 -106 -295 -272 -236 -190 -114
-70 -98 -113 -281 -255 -217 -175 -107
-61 -96 -117 -264 -232 -193 -156 -98
-51 -87 -119 -243 -210 -173 -139 -89
-44 -75 -114 -216 -183 -151 -121 -77
-40 -66 -102 -187 -157 -129 -104 -66
-38 -54 -89 -161 -135 -110 -89 -56
-34 -38 -74 -137 -111 -91 -73 -47
-29 -26 -63 -114 -89 -71 -58 -37
-28 -19 -52 -94 -71 -57 -47 -29
-26 -14 -43 -77 -58 -47 -38 -24
-23 -12 -34 -64 -48 -39 -33 -22
-20 -11 -26 -52 -39 -33 -28 -19
-18 -9 -19 -40 -32 -29 -26 -18
-17 -9 -16 -33 -26 -26 -24 -18
-18 -10 -11 -26 -20 -21 -20 -15
-18 -12 -7 -21 -16 -16 -16 -11
-16 -14 -6 -17 -12 -12 -13 -9
-16 -14 -7 -16 -10 -10 -11 -8
-16 -13 -8 -16 -11 -10 -11 -8
-14 -13 -7 -13 -10 -10 -10 -8
-12 -13 -6 -13 -11 -11 -11 -10
-11 -13 -4 -12 -10 -10 -10 -10
-9 -11 -3 -10 -9 -9 -10 -11
-8 -9 0 -8 -7 -8 -9 -10
-11 -11 -3 -8 -7 -9 -10 -11
-14 -14 -3 -9 -6 -8 -9 -10
-13 -14 -2 -8 -5 -7 -8 -9
-12 -11 -2 -9 -6 -6 -8 -9
-11 -11 -3 -8 -5 -6 -8 -10
-12 -12 -2 -6 -4 -5 -8 -9
-12 -13 1 -4 -4 -4 -7 -7
-10 -11 2 -2 -4 -5 -6 -7
-8 -9 3 0 -4 -5 -7 -8
-8 -7 3 -3 -4 -6 -8 -8
-8 -7 3 -4 -4 -5 -8 -8
-7 -8 4 -2 0 -4 -8 -8
-7 -11 5 -2 1 -3 -6 -7
-10 -12 4 -3 1 -3 -5 -7
-11 -11 4 -3 1 -3 -6 -8
-10 -10 5 0 2 -2 -6 -8
-7 -11 6 1 2 -2 -5 -6
-7 -11 6 3 3 -2 -3 -5
-7 -9 8 6 5 0 -3 -5
-7 -7 8 5 4 0 -4 -6
-7 -8 6 3 2 0 -5 -7
-8 -8 5 3 3 0 -4 -6
-9 -8 4 2 3 0 -5 -7
-8 -11 3 1 2 -2 -5 -8
-6 -11 5 3 3 0 -3 -5
-4 -8 7 6 4 1 -3 -6
-7 -8 9 8 5 2 -3 -6
-11 -10 10 9 6 2 -3 -5
-9 -11 9 9 6 2 -4 -6
-7 -11 10 9 7 3 -3 -5
-9 -12 9 8 6 2 -4 -5
-11 -11 8 7 7 3 -4 -5
-9 -9 8 9 9 4 -2 -5
-6 -7 7 9 9 4 -2 -5
-4 -7 5 8 7 2 -4 -7
-5 -7 7 9 9 3 -4 -7
-6 -8 10 14 11 5 -2 -6
-6 -7 11 16 12 5 0 -5
-7 -7 11 15 12 4 -2 -6
-7 -7 10 13 11 3 -4 -6
-6 -8 8 12 10 2 -5 -7
-5 -7 9 12 10 2 -4 -7
-5 -7 9 13 12 5 -2 -6
-9 -8 9 14 12 7 1 -5
-12 -6 6 14 10 5 0 -5
-8 0 6 16 11 5 0 -6
-3 0 9 19 14 7 2 -4
-3 -4 11 21 17 9 4 -2
-3 -5 12 20 17 9 4 -2
0 -3 10 19 17 8 3 -3
-2 -4 10 19 17 8 1 -3
-3 -4 11 19 18 10 3 0
-3 -2 10 19 18 10 3 0
-2 -2 10 19 18 10 4 -2
-2 -3 9 19 17 10 3 -4
-5 -5 9 21 18 11 4 -3
-7 -4 8 23 18 10 3 -3
-5 0 8 23 19 10 3 -3
-3 1 10 25 21 12 4 0
1 2 12 26 23 13 5 2
1 4 13 27 23 14 6 4
-2 3 13 27 24 15 8 5
-4 2 12 27 25 16 9 6
-3 2 12 28 26 17 10 7
0 2 10 28 25 17 10 7
2 4 10 27 24 16 9 6
2 7 11 30 26 17 11 7
2 10 13 32 27 19 12 8
2 10 14 32 27 19 12 9
2 9 12 30 26 17 11 8
2 10 11 28 24 16 10 7
5 12 8 25 22 14 7 5
6 12 7 25 22 14 7 5
4 13 7 25 22 14 8 6
4 16 7 24 21 14 8 6
4 16 6 24 20 13 7 7
3 11 6 24 19 12 8 9
2 9 7 25 19 12 8 9
3 10 9 26 20 13 10 11
3 13 10 25 20 14 10 12
3 13 9 22 19 12 9 11
3 11 6 19 16 10 7 10
4 10 4 16 15 9 7 8
4 12 3 16 14 9 7 9
4 15 4 15 12 7 6 9
3 15 5 14 11 5 5 9
3 14 5 13 9 3 4 8
3 15 5 13 9 4 4 9
3 16 6 13 9 4 5 9
4 16 5 10 7 2 3 9
5 17 4 8 4 1 3 9
5 16 2 5 2 -2 1 8
4 13 1 3 1 -3 0 8
6 11 2 4 0 -3 0 9
7 13 2 3 -4 -5 0 9
6 14 0 1 -6 -7 -4 7
4 14 1 1 -7 -8 -5 6
2 13 4 3 -6 -7 -4 7
0 10 6 6 -3 -6 -2 9
-4 9 6 6 -3 -6 -2 9
-4 12 6 6 -4 -6 -2 8
0 15 6 4 -5 -7 -3 6
2 15 4 1 -6 -8 -4 4
1 13 3 0 -6 -8 -4 4
1 11 3 0 -6 -8 -4 3
3 10 1 1 -7 -9 -6 2
4 9 1 1 -8 -9 -6 3
3 9 3 3 -7 -8 -5 5
0 6 7 7 -4 -6 -2 8
-2 4 7 7 -3 -5 -2 8
0 5 6 6 -4 -6 -3 6
1 7 5 4 -4 -6 -4 5
2 6 5 4 -3 -5 -4 5
3 6 6 4 -2 -4 -3 5
4 8 6 4 -2 -4 -4 3
2 9 7 6 1 -3 -3 3
2 10 9 8 3 -2 -3 3
2 9 9 9 3 -2 -3 3
1 9 8 9 4 0 -2 2
2 9 7 7 5 -2 -3 0
2 7 6 6 5 -2 -2 0
-2 1 4 4 3 -2 -3 -3
-3 0 3 3 2 -2 -4 -3
2 4 3 3 2 0 -4 -3
5 6 3 2 2 -2 -3 -2
3 3 2 2 2 -2 -3 -3
1 2 3 2 2 -2 -3 -3
1 4 5 2 3 0 -2 0
1 2 7 4 4 1 1 2
1 0 7 4 4 2 1 2
1 0 5 3 3 1 -2 0
1 1 3 0 1 -3 -5 -4
-3 0 4 0 2 -2 -4 -4
-6 -3 4 -2 2 -2 -5 -5
-6 -2 3 -2 1 -2 -5 -3
-3 -2 2 -2 1 -4 -5 -3
-3 -4 4 0 1 -3 -5 -2
-3 -4 4 -2 0 -3 -4 -3
-2 -2 4 -2 -2 -4 -5 -4
-2 -3 4 -3 -2 -4 -6 -4
-3 -3 4 -4 -3 -5 -7 -5
-5 -2 4 -3 -2 -5 -6 -4
-6 -2 3 -4 -3 -6 -7 -4
-6 -2 2 -5 -4 -7 -8 -5
-4 -3 3 -4 -4 -6 -8 -5
-3 -6 4 -3 -3 -6 -8 -6
-4 -5 4 -4 -4 -7 -10 -7
-5 0 2 -6 -6 -10 -12 -10
-5 2 2 -5 -6 -9 -11 -11
-3 0 4 -4 -4 -8 -10 -9
-4 -3 5 -3 -3 -8 -9 -8
-6 -3 2 -4 -5 -9 -10 -9
-8 -3 2 -4 -4 -8 -10 -9
-9 -4 5 -3 -3 -6 -8 -7
-8 -6 6 -3 -3 -6 -8 -6
-7 -7 5 -3 -4 -7 -9 -6
-6 -5 5 -3 -5 -8 -10 -7
-5 0 7 0 -4 -7 -10 -6
-6 -2 8 1 -3 -6 -9 -5
-7 -8 7 0 -2 -7 -8 -6
-7 -10 7 0 -3 -6 -7 -5
-6 -6 5 -2 -4 -7 -9 -7
-5 0 4 -3 -5 -8 -11 -7
-3 -2 5 -2 -4 -7 -10 -6
-2 -4 5 0 -3 -7 -9 -6
-4 -4 7 1 -2 -7 -8 -8
-6 -5 8 2 -2 -7 -9 -8
-6 -7 9 3 -2 -7 -9 -7
-6 -7 9 4 -2 -6 -9 -6
-6 -7 9 3 -2 -7 -9 -7
-6 -5 8 1 -3 -8 -10 -8
-3 1 6 0 -3 -8 -11 -10
-3 3 6 2 0 -5 -8 -7
-7 3 7 3 1 -5 -7 -7
-8 -2 7 3 1 -4 -6 -6
-7 -7 6 4 1 -5 -7 -6
-5 -8 7 5 2 -5 -7 -6
-6 -5 7 5 2 -5 -8 -7
-7 -2 8 5 2 -4 -8 -8
-7 2 7 4 2 -4 -10 -9
-7 3 7 3 2 -4 -10 -10
-7 2 6 4 2 -4 -9 -10
-5 2 8 5 4 -2 -8 -9
-3 1 8 5 4 -2 -8 -10
-4 -2 9 7 5 0 -6 -8
-5 -4 9 9 7 2 -4 -7
-7 -4 10 11 9 3 -3 -7
-7 -2 10 11 8 2 -4 -8
-6 1 9 10 7 1 -5 -8
-6 2 9 10 8 1 -5 -7
-7 3 8 9 7 1 -5 -7
-7 4 7 9 7 2 -4 -6
-6 3 6 8 7 2 -4 -6
-4 1 5 6 6 2 -3 -6
-4 -2 5 6 6 2 -4 -7
-5 0 6 8 7 3 -4 -5
-4 2 6 9 7 3 -4 -5
-3 2 5 8 6 2 -4 -6
-5 2 4 7 6 3 -4 -7
-7 2 5 7 7 4 -4 -6
-6 4 6 8 8 4 -3 -5
-5 4 7 9 10 5 1 -4
-6 1 8 10 11 7 2 -3
-4 -2 6 8 10 7 1 -3
1 0 5 6 9 6 0 -4
3 0 6 6 9 6 0 -4
2 0 7 8 11 7 1 -3
1 2 7 8 11 7 2 -2
-2 3 6 7 10 6 2 -3
-6 0 6 7 11 6 2 -2
-7 -2 4 5 9 5 1 -4
-4 1 4 5 9 6 1 -4
0 3 3 4 8 5 0 -4
0 4 3 4 8 5 0 -4
0 2 2 4 7 5 0 -4
1 2 3 5 8 6 1 -4
1 3 4 6 8 5 0 -5
1 2 3 3 6 4 -3 -7
1 2 2 2 5 3 -4 -7
0 2 1 1 6 3 -4 -8
-3 -2 1 0 6 3 -3 -6
-3 -4 3 1 6 5 1 -4
0 -3 2 1 6 5 1 -3
-2 -2 3 1 7 6 2 0
-3 0 3 1 6 7 2 0
-3 0 3 2 6 7 3 1
-3 0 4 3 6 7 3 0
-3 -2 4 2 6 6 2 -2
-3 -3 4 2 6 6 2 -2
0 0 3 1 6 5 1 -3
1 1 1 -3 4 3 -2 -5
-2 0 0 -4 3 3 -2 -5
-3 -2 0 -4 3 3 -2 -5
-3 -3 -2 -4 3 3 -3 -6
-3 -2 -2 -5 3 3 -3 -6
-4 -3 -2 -5 3 4 -3 -6
-5 -6 -2 -5 3 3 -3 -6
-5 -6 -2 -6 2 1 -4 -6
-4 -3 0 -5 2 2 -4 -6
-4 1 1 -4 3 3 -3 -6
-4 1 1 -6 3 2 -3 -6
-3 -2 -2 -7 1 0 -4 -6
1 0 -2 -7 1 1 -3 -5
1 1 -2 -7 0 1 -3 -4
-3 0 -2 -7 0 1 -2 -3
-4 0 -3 -7 -2 1 -3 -5
-2 2 -3 -6 0 1 -4 -5
0 1 0 -6 0 0 -4 -5
1 -2 -2 -8 -2 -2 -5 -6
1 1 -2 -8 -3 -2 -5 -8
2 2 0 -7 -2 0 -5 -6
2 0 -2 -8 0 0 -4 -5
-3 -2 -2 -9 1 2 -2 -3
-7 -2 -3 -10 1 2 0 -2
-7 -4 -4 -9 1 3 0 -2
-5 -7 -4 -9 -2 2 -2 -3
-4 -6 -4 -9 -3 1 -3 -4
-3 -5 -4 -9 -4 0 -4 -5
-3 -6 -4 -9 -3 0 -3 -5
-3 -7 -3 -8 -3 1 -3 -5
-3 -6 -4 -10 -5 -2 -5 -6
-4 -7 -4 -10 -3 -2 -5 -5
-4 -7 -4 -10 -2 -2 -5 -4
0 -3 -3 -10 -3 -2 -4 -4
3 2 -4 -11 -5 -2 -5 -6
2 0 -5 -12 -4 -2 -6 -7
-4 -5 -6 -12 -4 -3 -7 -7
-5 -7 -5 -12 -3 -2 -6 -6
-3 -5 -4 -11 -2 -2 -5 -5
0 -3 -4 -11 -2 -2 -5 -5
0 -2 -5 -12 -3 -2 -6 -5
0 0 -5 -11 -3 1 -5 -5
0 1 -3 -10 0 2 -3 -4
1 3 -2 -9 0 3 -2 -3
1 7 -2 -9 -2 2 -3 -4
0 8 1 -7 1 4 0 -2
-2 8 4 -4 4 7 3 1
0 10 6 -2 6 8 4 3
2 14 7 -2 7 7 4 3
0 14 9 1 9 9 6 4
0 13 11 3 11 12 8 6
2 14 9 2 10 11 7 4
3 16 7 1 9 10 5 2
3 18 5 -2 7 9 3 0
3 18 6 1 9 10 5 3
5 15 8 3 11 12 7 5
6 14 9 5 12 13 9 7
7 16 8 5 12 12 8 6
6 15 9 6 13 13 8 7
6 11 8 7 14 14 9 8
9 10 7 6 15 15 11 9
11 12 3 3 14 15 10 8
13 16 0 2 13 14 9 7
14 18 0 3 14 16 11 9
12 17 2 5 17 19 15 12
11 13 2 7 17 20 16 14
12 12 1 7 17 19 15 13
14 14 0 5 16 18 14 12
13 15 -3 2 13 15 12 10
11 15 -6 -3 10 12 9 7
11 16 -6 -5 9 12 9 8
12 16 -6 -7 8 13 9 8
11 13 -6 -7 7 12 9 8
8 10 -6 -8 7 12 10 8
8 9 -7 -10 5 10 9 7
11 10 -9 -11 3 8 6 6
12 7 -9 -10 3 7 5 6
10 2 -9 -9 3 8 5 6
8 0 -9 -10 3 8 5 6
8 0 -10 -11 2 7 4 6
8 1 -10 -12 1 6 3 6
9 4 -10 -12 2 6 4 5
8 5 -9 -12 1 6 4 4
3 2 -10 -14 -2 4 3 3
0 1 -10 -14 -2 3 2 2
1 2 -10 -14 -2 2 0 0
0 1 -9 -14 -2 2 -2 -2
-4 -5 -8 -13 -3 2 -2 -3
-5 -7 -8 -14 -4 0 -3 -3
-2 -9 -8 -15 -6 -3 -5 -5
1 -8 -9 -18 -7 -4 -7 -6
-2 -7 -9 -20 -8 -4 -8 -8
-6 -9 -10 -19 -8 -4 -7 -7
-7 -11 -10 -18 -8 -4 -7 -6
-7 -11 -10 -18 -8 -4 -7 -6
-7 -11 -10 -19 -9 -5 -7 -7
-7 -11 -11 -20 -10 -5 -7 -8
-4 -11 -11 -20 -10 -5 -8 -7
-2 -11 -10 -18 -9 -4 -7 -6
-3 -10 -9 -16 -8 -4 -6 -6
-5 -9 -11 -18 -9 -5 -8 -7
-7 -11 -11 -19 -11 -6 -10 -8
-9 -14 -11 -19 -11 -6 -10 -10
-10 -15 -10 -20 -11 -7 -10 -10
-11 -14 -10 -21 -11 -7 -11 -11
-9 -13 -10 -20 -12 -8 -11 -11
-7 -12 -10 -20 -11 -7 -10 -10
-7 -13 -10 -20 -11 -7 -10 -9
-8 -11 -10 -20 -11 -7 -10 -9
-7 -9 -10 -20 -10 -7 -9 -8
-6 -10 -10 -19 -8 -6 -7 -7
-5 -12 -10 -20 -8 -5 -7 -8
-6 -12 -10 -20 -9 -6 -8 -9
-7 -11 -12 -22 -10 -6 -10 -10
-10 -11 -12 -22 -11 -6 -10 -10
-10 -11 -13 -22 -11 -7 -10 -11
-10 -11 -12 -22 -11 -8 -10 -11
-10 -12 -12 -22 -11 -8 -10 -10
-9 -14 -10 -21 -10 -7 -10 -10
-9 -14 -9 -20 -10 -6 -9 -9
-8 -14 -9 -20 -10 -7 -9 -9
-7 -14 -9 -20 -11 -7 -9 -9
-7 -14 -9 -19 -10 -7 -10 -10
-8 -13 -7 -17 -8 -6 -10 -10
-12 -10 -4 -13 -7 -6 -10 -11
-16 -7 1 -8 -5 -6 -10 -10
-18 -6 10 4 2 -3 -7 -7
-17 -5 21 19 12 3 -4 -4
-15 -3 33 40 26 12 3 -2
-8 0 43 64 46 27 13 3
3 2 50 94 74 53 32 12
17 7 59 129 111 89 60 25
34 13 70 171 154 129 90 40
53 20 84 216 198 169 121 57
74 26 95 254 237 206 150 71
95 35 99 272 264 236 176 87
107 46 97 272 281 261 197 102
114 58 89 257 296 287 222 120
120 78 70 221 303 313 250 144
123 102 39 165 297 330 271 165
112 117 10 105 281 330 274 175
84 111 -8 45 245 295 240 155
47 72 -10 -16 175 205 158 101
13 7 -15 -77 68 70 35 17
-18 -48 -29 -142 -47 -65 -81 -59
-46 -75 -52 -211 -148 -161 -152 -99
-64 -90 -80 -272 -227 -217 -186 -114
-71 -100 -106 -305 -269 -239 -198 -122
-72 -102 -119 -302 -269 -231 -191 -120
-67 -96 -123 -283 -246 -208 -175 -112
-59 -88 -123 -260 -224 -186 -158 -103
-50 -78 -119 -235 -200 -165 -140 -93
-44 -65 -109 -203 -172 -140 -117 -77
-40 -52 -91 -169 -140 -113 -95 -59
-37 -40 -73 -140 -113 -92 -78 -47
-33 -29 -60 -115 -92 -74 -64 -37
-29 -21 -50 -95 -74 -59 -52 -29
-25 -17 -41 -78 -62 -49 -44 -23
-23 -15 -35 -67 -54 -44 -39 -22
-23 -14 -28 -55 -44 -36 -33 -20
-21 -15 -20 -41 -34 -28 -28 -18
-18 -14 -14 -30 -26 -22 -24 -16
-14 -13 -8 -23 -19 -18 -20 -14
-12 -14 -8 -21 -18 -16 -19 -14
-9 -14 -9 -19 -17 -15 -18 -14
-7 -11 -8 -19 -15 -13 -17 -14
-9 -10 -8 -17 -14 -12 -17 -13
-13 -11 -6 -14 -13 -11 -16 -12
-14 -13 -2 -11 -11 -9 -14 -10
-13 -12 0 -9 -11 -8 -13 -10
-12 -11 2 -7 -10 -8 -13 -9
-10 -9 2 -6 -9 -7 -12 -9
-8 -7 1 -7 -9 -7 -12 -9
-8 -9 0 -7 -8 -6 -11 -9
-9 -11 -3 -8 -9 -7 -12 -10
-9 -11 -2 -8 -8 -6 -11 -8
-8 -11 0 -5 -6 -5 -9 -6
-9 -10 0 -3 -5 -5 -9 -7
-9 -10 0 -3 -6 -6 -10 -8
-8 -8 0 -2 -6 -6 -10 -8
-7 -7 1 0 -6 -7 -11 -9
-7 -9 3 0 -5 -6 -10 -8
-8 -11 1 -4 -7 -6 -11 -10
-7 -10 1 -4 -7 -4 -10 -9
-5 -6 1 -2 -4 -2 -9 -7
-6 -6 2 0 -2 0 -7 -6
-8 -10 1 0 -3 0 -7 -5
-10 -11 1 1 -3 -2 -7 -7
-9 -11 2 2 -3 -2 -7 -7
-7 -11 4 4 -3 -2 -7 -6
-5 -11 4 6 -3 0 -8 -6
-5 -9 4 6 -3 -2 -8 -8
-6 -7 4 6 -2 0 -8 -6
-7 -7 4 7 0 1 -7 -6
-7 -9 4 8 1 2 -6 -5
-5 -9 4 7 2 2 -5 -6
-2 -7 3 8 1 2 -5 -6
-3 -6 4 11 2 3 -5 -6
-4 -6 6 13 4 4 -4 -5
-5 -6 6 13 4 4 -5 -6
-7 -7 7 13 5 5 -5 -6
-7 -9 7 14 6 6 -5 -5
-7 -9 5 13 5 5 -5 -6
-6 -8 4 13 5 5 -6 -6
-5 -7 4 13 6 6 -5 -5
-6 -9 4 13 7 6 -5 -5
-8 -11 2 12 5 4 -7 -6
-8 -9 3 14 6 4 -7 -6
-5 -7 5 16 7 5 -5 -6
-3 -5 7 18 8 6 -4 -5
-3 -3 8 19 8 7 -4 -6
-2 -2 8 19 10 7 -3 -5
-2 0 6 18 9 7 -3 -5
-4 1 5 17 9 7 -3 -5
-6 -2 4 17 8 7 -4 -6
-5 -4 2 17 8 7 -4 -7
-3 -4 4 20 10 9 -3 -5
-2 -2 5 21 11 9 -3 -5
0 -2 5 22 10 8 -3 -5
0 -3 7 24 13 11 0 -4
0 -3 8 25 14 12 1 -3
-3 -3 8 24 15 12 1 -2
-3 0 8 23 15 12 2 -2
1 2 6 22 14 11 1 -2
4 3 5 22 14 12 1 0
3 3 5 24 14 13 2 1
1 3 7 26 16 15 3 2
-2 3 9 28 18 16 4 2
1 3 11 30 20 18 6 5
2 3 11 30 20 18 6 5
1 3 10 31 20 18 6 4
-2 2 9 31 20 16 5 3
-2 2 9 30 19 16 5 4
0 3 8 30 20 17 5 4
1 3 7 31 20 18 6 4
0 4 6 30 19 17 5 4
2 7 6 30 19 17 5 4
5 10 8 33 21 18 7 6
6 11 9 33 22 19 8 6
4 10 9 33 22 18 7 6
4 10 8 32 21 17 6 5
4 12 9 33 23 20 8 7
6 16 7 32 23 20 9 9
8 18 5 30 22 19 9 9
9 15 4 29 21 19 9 10
9 11 3 27 20 19 8 10
9 10 5 29 21 20 9 11
7 13 4 28 19 18 9 10
4 16 5 27 19 18 9 10
3 16 6 28 19 18 10 11
5 13 6 28 18 18 10 12
6 14 4 26 16 17 10 13
7 17 2 24 14 15 9 12
6 17 1 22 13 14 8 12
4 15 2 22 13 14 9 13
4 15 1 21 12 15 8 13
4 16 0 19 10 13 7 12
5 15 0 18 8 11 6 12
6 15 0 17 7 10 5 12
8 17 -2 16 5 9 5 12
9 18 0 14 4 8 4 12
8 17 1 13 4 8 5 13
5 16 -2 11 3 8 5 13
3 15 -4 10 2 8 5 13
3 15 -5 9 0 6 4 13
4 16 -5 6 -3 4 2 12
7 19 -6 6 -5 2 0 10
