I II V1 V2 V3 V4 V5 V6
-12 -10 2 0 1 3 8 5
-12 -10 2 0 1 3 8 5
-12 -10 2 0 1 3 8 5
-12 -10 2 0 1 3 8 5
-12 -10 2 0 1 3 8 5
-12 -10 2 0 1 3 8 5
-11 -11 1 -2 1 2 7 4
-11 -12 1 -2 1 2 7 4
-11 -12 1 -2 1 2 7 3
-11 -13 1 -2 1 2 7 3
-11 -13 1 -2 1 2 7 3
-10 -14 0 0 2 1 6 2
-11 -14 1 0 2 1 5 2
-11 -15 1 0 2 2 5 2
-12 -15 2 0 2 2 4 2
-12 -15 2 0 2 2 4 2
-13 -16 3 1 2 3 3 1
-13 -15 3 0 1 2 3 0
-13 -14 2 0 0 1 3 -2
-13 -13 2 -2 -2 0 3 -3
-13 -13 2 -2 -2 0 3 -4
-12 -12 1 -3 -3 -2 2 -5
-11 -12 1 -3 -3 -2 2 -5
-11 -12 1 -3 -2 -2 2 -5
-10 -12 1 -3 -2 -2 2 -5
-10 -12 1 -3 -2 -2 2 -5
-9 -12 1 -3 0 -3 1 -5
-10 -13 1 -3 0 -3 1 -5
-11 -15 2 -2 0 -3 0 -5
-12 -16 2 -2 0 -3 0 -5
-13 -17 2 -2 0 -3 0 -5
-14 -18 3 0 -2 -4 -2 -4
-15 -18 3 -2 -2 -4 -3 -4
-16 -17 2 -2 -2 -5 -3 -4
-17 -17 2 -3 -2 -5 -4 -4
-17 -17 2 -3 -2 -5 -4 -4
-16 -16 1 -4 -3 -6 -5 -5
-14 -15 2 -3 -2 -5 -4 -4
-11 -14 2 -2 0 -5 -3 -3
-9 -13 3 0 1 -4 -2 -2
-7 -12 3 1 1 -4 -2 0
-6 -11 4 2 1 -3 0 0
-6 -11 3 1 0 -4 -2 -3
-6 -11 3 0 -2 -5 -3 -4
-6 -11 2 -2 -3 -6 -4 -6
-6 -11 2 -2 -4 -6 -4 -7
-8 -11 1 -3 -5 -7 -5 -8
-10 -12 1 -3 -5 -7 -6 -8
-11 -13 1 -3 -4 -7 -6 -8
-13 -14 1 -3 -4 -7 -7 -8
-14 -15 1 -3 -4 -7 -7 -8
-15 -16 1 -3 -3 -8 -8 -8
-14 -16 1 -3 -3 -8 -8 -8
-13 -15 2 -2 -3 -8 -8 -8
-12 -15 2 -2 -3 -8 -8 -8
-11 -15 2 -2 -3 -8 -8 -8
-10 -14 3 0 -3 -9 -7 -7
-11 -14 3 0 -3 -9 -7 -8
-12 -13 2 -2 -3 -9 -7 -8
-13 -13 2 -2 -3 -9 -7 -9
-14 -13 2 -2 -3 -9 -7 -9
-15 -12 1 -3 -2 -8 -8 -10
-14 -13 2 -3 -2 -8 -8 -10
-14 -13 3 -2 -2 -8 -8 -10
-13 -14 4 -2 -2 -8 -8 -10
-13 -14 4 -2 -2 -8 -8 -10
-11 -13 7 2 2 -7 -7 -8
-9 -10 10 5 4 -5 -5 -7
-7 -8 12 7 6 -3 -4 -5
-5 -5 15 10 8 0 -2 -4
-4 -3 17 12 10 1 0 -3
-3 -2 17 13 11 2 1 -2
-4 -2 16 13 11 2 1 -2
-5 -2 15 13 11 2 0 -2
-6 -2 14 13 11 2 0 -2
-6 -2 13 13 11 2 0 -2
-7 -2 12 13 10 2 -2 -3
-6 -2 11 12 10 2 -2 -3
-6 -2 10 11 10 2 -2 -2
-5 -2 9 10 10 2 -2 -2
-5 -2 8 10 10 2 -2 -2
-3 -2 6 7 8 0 -3 0
0 -2 5 5 6 -3 -4 -2
1 -3 3 3 4 -4 -5 -3
3 -3 2 1 2 -6 -6 -4
4 -3 1 -2 0 -7 -7 -4
5 -4 0 -3 -2 -8 -8 -6
4 -4 0 -3 -2 -9 -9 -8
3 -4 0 -4 -3 -9 -10 -9
2 -4 0 -4 -3 -10 -11 -11
2 -4 0 -4 -3 -10 -11 -12
0 -3 -2 -5 -4 -11 -12 -13
-3 -4 -2 -5 -4 -11 -12 -13
-4 -5 -2 -5 -4 -11 -13 -14
-6 -6 -2 -5 -4 -11 -13 -14
-7 -7 -2 -5 -4 -11 -13 -14
-9 -9 -2 -5 -4 -12 -14 -15
-10 -11 0 -5 -5 -13 -15 -15
-11 -13 1 -5 -5 -14 -16 -16
-12 -15 2 -5 -6 -15 -17 -16
-13 -17 2 -5 -6 -15 -17 -16
-15 -18 3 -4 -7 -16 -18 -17
-16 -18 3 -4 -7 -17 -19 -17
-18 -19 2 -4 -8 -17 -19 -18
-19 -19 2 -4 -8 -18 -20 -18
-20 -19 2 -4 -8 -18 -20 -18
-21 -20 1 -5 -9 -19 -21 -19
-20 -21 1 -5 -9 -19 -21 -20
-20 -22 1 -6 -9 -19 -22 -21
-19 -23 1 -6 -9 -19 -22 -22
-19 -24 1 -6 -9 -19 -22 -23
-18 -24 1 -7 -10 -20 -23 -24
-19 -23 1 -7 -10 -20 -22 -23
-20 -21 1 -7 -10 -20 -22 -22
-21 -20 1 -7 -10 -20 -21 -21
-22 -19 1 -7 -10 -20 -21 -20
-23 -18 1 -5 -9 -19 -20 -19
-22 -18 3 -4 -8 -19 -20 -19
-21 -17 4 -3 -7 -18 -20 -19
-20 -17 6 -2 -6 -18 -20 -19
-20 -17 7 0 -6 -18 -20 -19
-19 -18 13 9 1 -17 -21 -22
-20 -21 19 18 6 -16 -23 -25
-21 -24 25 27 12 -15 -26 -29
-22 -26 32 36 17 -14 -29 -33
-22 -29 38 47 23 -14 -31 -36
-14 -20 48 65 43 3 -23 -31
-4 -9 58 85 64 19 -12 -23
8 4 68 104 86 36 -2 -16
18 15 78 123 107 54 10 -9
28 26 89 144 129 71 20 0
50 48 88 146 139 88 40 18
72 70 85 147 148 105 61 37
95 93 81 148 156 121 81 57
117 114 77 149 165 138 102 76
140 137 74 150 175 155 122 96
147 165 62 132 174 171 150 127
152 195 49 108 171 185 179 157
156 225 34 86 168 200 206 189
161 255 21 62 164 216 235 220
167 284 8 39 161 231 263 252
140 262 -6 10 125 197 238 234
108 232 -19 -21 84 156 205 211
76 202 -31 -53 44 115 173 186
45 172 -45 -83 3 74 140 161
13 142 -58 -114 -38 33 107 137
0 116 -60 -119 -53 14 85 114
-11 91 -61 -121 -63 -4 63 92
-22 65 -62 -123 -73 -21 40 69
-33 39 -63 -126 -83 -38 19 46
-44 14 -64 -128 -94 -55 -3 23
-44 6 -58 -115 -88 -57 -8 15
-40 -2 -49 -99 -76 -55 -12 8
-37 -8 -40 -83 -66 -54 -15 2
-35 -14 -31 -67 -56 -52 -19 -6
-32 -21 -23 -51 -46 -51 -22 -13
-30 -22 -18 -44 -39 -46 -23 -14
-29 -22 -15 -36 -34 -41 -22 -15
-28 -22 -11 -29 -29 -36 -21 -16
-27 -22 -8 -22 -23 -32 -20 -17
-26 -22 -4 -15 -18 -27 -20 -18
-25 -21 -3 -14 -17 -26 -19 -19
-24 -21 -2 -13 -16 -25 -19 -19
-24 -21 0 -12 -16 -24 -18 -19
-23 -21 1 -11 -15 -23 -18 -19
-23 -21 1 -11 -15 -23 -18 -19
-22 -21 2 -9 -14 -22 -17 -19
-21 -22 2 -8 -14 -22 -18 -20
-20 -22 2 -7 -14 -23 -19 -21
-19 -23 2 -6 -14 -23 -20 -22
-18 -23 2 -5 -14 -23 -20 -22
-18 -24 3 -4 -14 -24 -21 -23
-19 -24 2 -5 -14 -24 -21 -23
-21 -24 1 -6 -15 -24 -21 -22
-22 -24 0 -7 -15 -24 -21 -22
-23 -24 0 -7 -15 -24 -21 -22
-24 -25 -2 -7 -16 -25 -21 -21
-24 -26 0 -6 -15 -24 -21 -21
-24 -26 1 -5 -14 -24 -20 -21
-24 -27 2 -4 -13 -23 -20 -21
-24 -27 3 -3 -12 -23 -20 -21
-23 -28 4 -2 -11 -22 -19 -21
-22 -27 4 -3 -11 -22 -18 -20
-21 -26 4 -3 -11 -22 -18 -19
-20 -25 4 -4 -11 -22 -17 -18
-20 -24 4 -4 -11 -22 -17 -18
-19 -23 4 -5 -11 -22 -16 -17
-19 -23 4 -5 -11 -22 -16 -17
-19 -22 4 -5 -12 -22 -16 -17
-19 -22 4 -5 -12 -22 -16 -17
-19 -22 4 -5 -12 -22 -16 -17
-18 -21 3 -6 -13 -22 -15 -16
-19 -22 3 -6 -12 -21 -15 -16
-19 -22 3 -6 -12 -21 -15 -16
-20 -23 3 -6 -11 -20 -15 -16
-20 -23 3 -6 -11 -20 -15 -16
-21 -24 2 -6 -10 -19 -14 -17
-20 -24 2 -6 -11 -20 -14 -17
-19 -23 2 -6 -11 -20 -15 -17
-18 -23 2 -6 -12 -21 -15 -17
-18 -23 2 -6 -12 -21 -15 -17
-17 -22 2 -5 -13 -22 -16 -17
-18 -22 1 -6 -13 -22 -16 -17
-18 -23 1 -7 -13 -23 -16 -16
-19 -23 0 -8 -13 -23 -16 -16
-19 -23 0 -8 -13 -23 -16 -16
-18 -22 -2 -8 -13 -23 -16 -14
-15 -20 0 -7 -12 -22 -15 -13
-12 -18 0 -6 -11 -20 -13 -12
-9 -15 1 -5 -9 -18 -11 -11
-6 -13 1 -4 -8 -17 -10 -10
-5 -12 2 -3 -7 -16 -9 -9
-6 -12 1 -4 -7 -15 -8 -9
-7 -12 0 -5 -7 -14 -7 -9
-8 -12 -2 -6 -7 -13 -6 -9
-8 -12 -2 -6 -7 -12 -5 -9
-8 -12 -3 -7 -8 -11 -4 -8
-7 -11 -3 -7 -8 -11 -4 -8
-5 -10 -3 -6 -8 -11 -4 -7
-3 -8 -3 -6 -8 -11 -4 -7
-2 -7 -3 -6 -8 -11 -4 -7
1 -6 -3 -6 -8 -11 -3 -6
3 -7 -4 -7 -8 -11 -2 -5
5 -7 -5 -8 -8 -10 0 -5
6 -8 -7 -10 -8 -10 1 -4
8 -8 -8 -11 -8 -10 1 -4
9 -9 -9 -12 -9 -8 3 -3
9 -7 -9 -11 -8 -7 4 -2
10 -6 -10 -11 -7 -6 6 0
10 -5 -10 -10 -6 -4 8 1
10 -4 -10 -10 -5 -3 9 1
13 1 -11 -9 -4 0 10 3
16 5 -11 -9 -3 2 11 5
18 9 -12 -10 -2 4 12 8
21 14 -12 -10 0 5 13 10
24 18 -12 -10 0 7 14 12
27 18 -13 -11 1 8 15 13
30 17 -14 -11 0 8 17 14
33 15 -14 -12 0 8 18 15
36 13 -15 -12 -2 8 19 16
39 12 -15 -12 -2 8 20 17
43 13 -16 -13 -3 7 22 18
46 17 -18 -14 -3 7 24 20
49 20 -19 -15 -4 7 26 21
52 23 -20 -16 -4 7 27 22
55 27 -21 -16 -4 7 29 23
56 28 -22 -17 -5 8 30 24
55 27 -22 -17 -5 9 30 24
55 26 -22 -17 -4 9 30 25
54 25 -22 -17 -4 10 30 25
54 24 -22 -17 -4 10 30 25
53 24 -21 -16 -3 11 31 26
54 26 -21 -16 -3 11 32 27
55 28 -20 -16 -3 12 32 27
56 30 -20 -16 -3 12 33 28
56 32 -20 -16 -3 12 33 28
56 32 -19 -14 -2 13 34 29
54 30 -17 -13 0 13 33 28
52 28 -16 -11 0 13 33 28
51 27 -15 -9 1 13 32 27
49 25 -14 -8 1 13 32 27
47 24 -13 -7 2 14 31 26
44 24 -12 -6 2 14 31 25
42 24 -11 -5 3 14 30 25
38 24 -10 -4 3 14 30 24
36 24 -10 -4 3 14 30 24
32 23 -8 -2 4 14 29 23
28 21 -6 1 6 14 28 21
24 20 -3 4 7 13 27 20
20 19 0 6 8 13 26 19
15 18 2 8 9 13 25 18
13 15 3 9 10 12 24 17
11 13 3 9 10 12 22 16
8 10 3 9 10 12 21 15
6 8 3 9 10 12 20 14
4 5 3 9 10 12 19 14
3 3 4 8 10 11 17 12
1 1 5 9 10 10 15 10
0 0 6 9 10 9 12 9
-2 -3 7 10 10 8 10 7
-3 -5 8 10 10 7 8 5
-4 -5 9 11 9 6 8 4
-3 -4 9 11 9 7 9 4
-2 -2 10 11 10 7 10 5
0 1 10 11 10 8 12 5
0 2 10 11 10 8 13 5
-2 2 11 12 11 9 14 6
-5 0 11 12 11 8 13 5
-8 -3 10 12 10 8 12 4
-11 -5 10 12 10 7 11 3
-14 -7 10 12 10 7 11 3
-15 -8 9 12 9 6 10 2
-15 -7 9 12 9 6 10 2
-16 -7 9 11 9 6 10 1
-16 -6 9 11 9 6 10 1
-16 -6 9 11 9 6 10 1
-16 -5 9 10 10 7 10 0
-14 -5 9 10 10 6 10 0
-11 -5 9 10 9 6 9 0
-9 -5 9 10 9 5 9 0
-7 -5 9 10 9 5 9 0
-7 -4 10 11 8 4 8 0
-10 -6 10 10 7 4 8 0
-12 -7 10 9 7 4 8 0
-15 -8 10 8 6 4 8 0
-17 -9 10 8 6 4 8 0
-17 -9 9 7 5 5 8 0
-15 -8 9 8 6 5 8 0
-14 -6 9 8 7 5 8 0
-12 -4 9 9 8 5 8 0
-10 -3 9 9 8 5 8 0
-9 -3 10 10 9 4 7 0
-10 -4 10 10 9 4 7 0
-11 -5 10 10 9 5 7 0
-12 -7 10 10 9 5 7 0
-13 -8 10 10 9 5 7 0
-14 -9 9 10 9 6 8 0
-14 -10 9 10 9 6 8 0
-15 -10 10 10 9 7 8 0
-15 -11 10 10 9 7 8 0
-15 -11 10 10 9 7 8 0
-16 -12 11 11 9 8 9 1
-15 -10 11 11 9 8 9 0
-14 -9 10 11 9 8 8 0
-14 -8 10 11 9 8 8 -2
-13 -7 10 11 9 8 8 -2
-12 -6 9 11 9 7 7 -3
-13 -6 9 11 9 7 6 -4
-14 -7 9 11 9 7 6 -4
-14 -7 9 11 9 7 5 -5
-15 -7 9 11 9 7 5 -5
-16 -8 8 10 10 6 4 -6
-16 -8 8 10 10 6 5 -5
-16 -8 8 10 10 6 5 -5
-16 -8 8 10 10 6 6 -4
-16 -8 8 10 10 6 6 -4
-15 -9 9 10 11 7 7 -3
-16 -8 9 10 11 7 7 -3
-16 -8 9 10 11 7 7 -3
-17 -7 9 10 11 7 7 -3
-17 -7 9 10 11 7 7 -3
-17 -6 9 10 11 7 6 -3
-16 -6 9 10 11 7 6 -3
-15 -6 9 10 11 7 6 -3
-13 -6 9 10 11 7 6 -3
-12 -6 9 10 11 7 6 -3
-11 -7 9 9 11 7 6 -3
-11 -7 9 9 11 7 5 -4
-11 -6 8 9 11 7 4 -5
-11 -6 8 9 11 7 4 -5
-11 -6 8 9 11 7 3 -6
-11 -5 7 9 10 6 2 -7
-10 -5 7 9 10 6 2 -7
-9 -5 7 9 10 6 3 -7
-8 -5 7 9 10 6 3 -7
-7 -5 7 9 10 6 3 -7
-6 -5 7 8 10 6 3 -6
-7 -5 7 8 9 5 2 -7
-8 -6 6 7 8 4 1 -8
-8 -6 6 7 8 3 -2 -8
-9 -6 6 7 7 2 -3 -9
-10 -7 5 6 6 1 -4 -10
-10 -7 5 6 6 1 -4 -10
-10 -8 5 5 6 2 -3 -9
-10 -8 5 5 6 2 -3 -9
-10 -8 5 5 6 2 -3 -9
-11 -9 5 4 7 3 -2 -8
-10 -9 5 4 7 3 0 -8
-9 -9 6 5 7 3 0 -7
-9 -9 6 5 7 3 1 -7
-8 -9 6 5 7 3 1 -7
-7 -9 7 6 7 4 2 -6
-9 -9 6 5 7 3 1 -6
-10 -8 5 4 6 3 1 -6
-12 -8 4 3 6 2 0 -6
-13 -8 3 2 6 2 0 -6
-14 -7 2 1 5 1 -2 -7
-12 -7 3 1 5 1 -2 -8
-11 -7 3 2 4 0 -2 -8
-10 -7 4 2 4 0 -2 -9
-9 -7 4 2 4 0 -2 -9
-9 -8 5 3 3 -2 0 -10
-10 -10 5 3 3 -2 -2 -10
-12 -11 5 3 3 -2 -3 -11
-13 -12 5 3 3 -2 -3 -11
-15 -13 5 3 3 -2 -4 -11
-16 -13 4 2 4 -3 -5 -12
-15 -11 4 2 3 -3 -6 -12
-14 -9 3 1 3 -4 -6 -12
-13 -7 3 1 2 -4 -7 -12
-12 -5 3 1 2 -4 -7 -12
-11 -5 2 0 1 -5 -8 -12
-12 -8 2 0 1 -5 -7 -12
-13 -11 2 0 1 -5 -7 -12
-13 -14 2 0 1 -5 -6 -12
-14 -17 2 0 1 -5 -6 -12
-15 -18 3 0 0 -5 -5 -12
-15 -18 3 0 0 -5 -6 -12
-14 -17 3 0 0 -5 -6 -12
-14 -17 3 0 0 -5 -7 -12
-14 -17 3 0 0 -5 -7 -12
-13 -16 3 0 -2 -6 -8 -13
-13 -16 2 -2 -3 -8 -9 -13
-14 -16 2 -2 -3 -9 -10 -13
-14 -16 1 -3 -4 -10 -10 -13
-14 -16 1 -3 -4 -11 -11 -13
-15 -16 0 -4 -5 -12 -12 -14
-14 -15 0 -3 -4 -11 -11 -13
-13 -15 0 -3 -3 -10 -10 -12
-12 -14 0 -2 -3 -9 -10 -11
-11 -14 0 -2 -2 -8 -9 -10
-10 -13 1 0 0 -7 -8 -9
-11 -13 2 0 0 -7 -8 -9
-11 -12 2 0 0 -7 -8 -9
-12 -12 3 0 0 -7 -8 -9
-12 -12 3 0 0 -7 -8 -9
-13 -11 4 0 0 -6 -8 -9
-13 -11 4 0 0 -6 -8 -10
-13 -12 3 0 0 -7 -9 -11
-13 -12 3 0 0 -7 -10 -11
-13 -12 3 0 0 -7 -10 -12
-14 -13 2 0 -2 -8 -11 -13
-14 -14 2 0 -2 -8 -11 -13
-15 -15 1 -2 -3 -9 -11 -14
-16 -15 1 -2 -3 -10 -11 -14
-16 -16 1 -2 -3 -10 -11 -14
-17 -17 0 -3 -4 -11 -12 -15
-17 -17 0 -3 -4 -11 -13 -15
-17 -17 0 -4 -5 -12 -14 -15
-17 -17 0 -5 -6 -13 -14 -15
-17 -17 0 -5 -6 -13 -15 -15
-16 -18 -2 -6 -7 -14 -16 -16
-16 -18 -2 -6 -7 -14 -16 -16
-17 -19 -2 -6 -7 -14 -16 -16
-18 -20 -2 -6 -7 -14 -16 -16
-18 -20 -2 -6 -7 -14 -16 -16
-19 -21 -2 -5 -7 -13 -14 -17
-18 -19 0 -4 -5 -11 -13 -15
-16 -18 2 -2 -3 -9 -11 -14
-15 -16 3 1 0 -7 -10 -12
-14 -15 5 3 2 -5 -8 -11
-13 -13 6 4 3 -4 -7 -10
-12 -12 6 4 3 -4 -8 -10
-10 -10 6 4 2 -5 -9 -11
-9 -9 6 4 2 -6 -9 -12
-8 -7 6 4 2 -6 -10 -12
-6 -6 6 4 2 -7 -11 -13
-4 -5 7 6 4 -6 -10 -13
-2 -4 9 9 6 -5 -9 -12
1 -3 10 11 8 -4 -9 -11
3 -2 12 14 10 -3 -8 -11
4 0 13 15 11 -2 -7 -10
4 0 12 15 11 -2 -7 -10
5 1 10 14 11 0 -6 -9
5 2 9 14 11 0 -6 -9
5 2 8 14 11 0 -6 -9
6 3 6 12 11 1 -5 -8
6 2 5 11 10 0 -5 -8
5 1 3 9 8 -2 -5 -7
4 0 1 8 7 -2 -5 -6
4 -2 -2 6 6 -3 -5 -6
3 -3 -3 4 5 -4 -6 -5
3 -5 -3 3 3 -5 -7 -6
4 -6 -4 1 2 -6 -8 -8
4 -8 -5 -2 0 -7 -9 -9
4 -9 -5 -4 -2 -8 -10 -10
5 -10 -6 -5 -3 -9 -11 -11
4 -10 -6 -5 -4 -10 -12 -11
3 -10 -7 -6 -5 -11 -13 -12
3 -10 -7 -7 -5 -12 -13 -13
2 -10 -7 -7 -6 -13 -14 -13
0 -11 -8 -8 -7 -14 -15 -14
-4 -12 -8 -8 -7 -14 -15 -15
-6 -14 -8 -8 -7 -15 -16 -16
-9 -16 -8 -8 -7 -15 -17 -17
-12 -18 -8 -8 -7 -15 -17 -18
-13 -19 -9 -9 -8 -16 -18 -19
-14 -19 -8 -9 -8 -16 -18 -19
-15 -19 -6 -8 -8 -16 -19 -19
-15 -19 -5 -8 -8 -16 -20 -19
-16 -19 -4 -8 -8 -16 -20 -19
-17 -19 -3 -7 -8 -17 -21 -19
-17 -19 -3 -7 -8 -17 -21 -19
-17 -19 -3 -7 -9 -17 -21 -19
-17 -19 -3 -7 -10 -17 -21 -19
-17 -19 -3 -7 -10 -17 -21 -19
-16 -19 -4 -8 -11 -18 -22 -19
-16 -19 -4 -8 -11 -18 -22 -19
-15 -20 -4 -8 -11 -19 -23 -20
-14 -21 -4 -8 -11 -19 -23 -20
-14 -21 -4 -8 -11 -19 -23 -20
-13 -22 -5 -9 -11 -20 -24 -21
-14 -21 -5 -9 -11 -20 -24 -21
-15 -19 -5 -9 -10 -20 -23 -20
-16 -18 -5 -9 -10 -20 -22 -20
-17 -17 -5 -9 -10 -20 -22 -20
-19 -17 -3 -7 -9 -19 -21 -19
-20 -19 -2 -5 -9 -19 -21 -19
-22 -21 1 -3 -8 -19 -21 -19
-24 -23 3 0 -7 -19 -21 -19
-26 -25 5 3 -7 -19 -21 -19
-26 -25 11 13 3 -17 -22 -20
-24 -22 21 29 17 -10 -21 -21
-22 -19 31 47 31 -4 -20 -22
-20 -16 42 63 47 4 -20 -23
-18 -14 52 79 61 10 -19 -24
-4 -4 57 92 75 23 -11 -19
20 12 59 102 90 40 3 -9
43 27 61 111 105 58 16 2
66 43 63 121 119 75 29 12
89 58 66 132 135 93 43 22
110 80 62 130 142 108 62 42
130 108 53 119 143 121 87 67
150 136 44 109 145 136 110 93
170 163 34 99 147 150 134 118
190 190 25 89 149 164 158 144
193 206 14 69 141 169 172 162
183 214 2 43 123 164 179 175
173 222 -11 17 106 159 186 187
162 229 -23 -10 89 155 193 199
153 236 -35 -35 71 150 200 212
130 220 -43 -55 48 130 185 200
97 185 -48 -70 21 97 153 173
64 149 -53 -86 -6 63 120 144
31 114 -58 -100 -32 30 89 115
-2 78 -63 -115 -59 -3 57 87
-18 56 -65 -118 -72 -21 35 66
-21 42 -61 -111 -73 -28 22 50
-25 28 -58 -103 -75 -35 10 34
-29 15 -55 -95 -77 -43 -4 18
-33 1 -52 -88 -79 -50 -17 3
-33 -7 -46 -77 -74 -51 -23 -6
-30 -9 -38 -65 -63 -46 -23 -8
-26 -12 -31 -54 -51 -39 -23 -11
-23 -14 -24 -41 -39 -33 -23 -13
-19 -16 -17 -29 -27 -28 -23 -15
-17 -18 -13 -23 -22 -25 -23 -17
-17 -18 -12 -21 -21 -25 -24 -18
-18 -19 -10 -19 -20 -25 -25 -19
-18 -20 -9 -17 -19 -25 -25 -20
-18 -20 -8 -15 -18 -25 -26 -21
-19 -21 -7 -14 -17 -25 -27 -22
-19 -21 -7 -14 -17 -25 -27 -22
-19 -22 -7 -14 -17 -26 -27 -23
-19 -23 -7 -14 -17 -26 -27 -24
-19 -23 -7 -14 -17 -26 -27 -24
-20 -24 -7 -15 -17 -27 -28 -25
-20 -24 -7 -14 -17 -27 -28 -25
-20 -24 -6 -13 -16 -26 -27 -24
-20 -24 -5 -12 -16 -26 -27 -24
-20 -24 -5 -11 -16 -26 -27 -24
-19 -24 -4 -10 -15 -25 -26 -23
-19 -25 -4 -10 -15 -25 -26 -23
-19 -27 -5 -11 -16 -26 -27 -24
-19 -28 -6 -12 -16 -26 -28 -24
-19 -29 -6 -12 -16 -26 -28 -24
-20 -30 -7 -13 -17 -27 -29 -25
-18 -28 -7 -12 -17 -26 -29 -24
-17 -27 -6 -11 -16 -25 -28 -23
-16 -26 -5 -11 -15 -25 -27 -23
-14 -24 -5 -10 -15 -24 -27 -22
-13 -23 -4 -9 -14 -23 -26 -21
-13 -22 -4 -9 -14 -23 -25 -20
-12 -20 -4 -9 -14 -23 -24 -19
-12 -19 -4 -9 -14 -23 -24 -19
-12 -18 -4 -9 -14 -23 -23 -18
-11 -18 -5 -8 -14 -22 -22 -17
-13 -20 -5 -8 -14 -22 -23 -18
-14 -22 -6 -8 -15 -23 -24 -19
-15 -24 -6 -8 -16 -23 -24 -19
-17 -26 -6 -8 -16 -23 -25 -20
-18 -26 -7 -9 -17 -24 -26 -21
-17 -24 -7 -9 -16 -23 -25 -21
-15 -21 -7 -9 -15 -22 -23 -20
-14 -19 -7 -9 -15 -21 -22 -19
-13 -17 -7 -9 -14 -20 -21 -19
-12 -15 -6 -10 -13 -19 -20 -18
-12 -16 -6 -10 -13 -19 -20 -18
-13 -18 -6 -9 -13 -20 -20 -18
-14 -19 -6 -9 -13 -20 -20 -18
-14 -20 -6 -9 -13 -20 -20 -18
-15 -21 -5 -8 -13 -21 -21 -18
-13 -19 -5 -9 -13 -21 -21 -18
-12 -17 -6 -10 -13 -20 -20 -17
-11 -16 -7 -11 -13 -19 -20 -16
-9 -14 -7 -12 -13 -19 -20 -16
-8 -13 -8 -13 -14 -18 -19 -15
-8 -14 -8 -12 -13 -17 -19 -15
-9 -15 -7 -10 -12 -16 -18 -14
-10 -16 -6 -9 -12 -16 -18 -14
-10 -17 -6 -8 -11 -15 -18 -14
-11 -18 -5 -7 -10 -14 -17 -13
-9 -16 -7 -9 -11 -14 -17 -13
-7 -14 -9 -11 -12 -14 -16 -13
-5 -12 -10 -12 -12 -14 -15 -13
-3 -10 -12 -14 -13 -14 -15 -13
-2 -9 -13 -15 -13 -14 -14 -12
0 -9 -12 -13 -11 -12 -13 -11
1 -9 -11 -12 -9 -10 -12 -10
2 -9 -10 -11 -7 -8 -11 -9
3 -9 -9 -9 -5 -6 -10 -8
5 -8 -8 -8 -3 -5 -9 -7
8 -7 -10 -9 -3 -5 -8 -6
11 -5 -11 -11 -4 -5 -7 -5
13 -4 -12 -12 -5 -5 -6 -5
16 -3 -14 -13 -5 -5 -5 -4
18 -2 -15 -14 -6 -4 -4 -3
20 -2 -16 -15 -6 -4 -4 -3
21 0 -17 -16 -7 -5 -4 -3
22 0 -18 -17 -8 -6 -4 -3
24 0 -19 -18 -8 -6 -4 -3
25 1 -20 -19 -9 -7 -5 -4
27 2 -21 -20 -9 -6 -3 -2
29 4 -22 -21 -9 -4 0 1
31 5 -23 -21 -9 -3 2 3
33 6 -24 -22 -9 -2 4 5
35 7 -25 -23 -9 0 5 6
37 8 -25 -23 -9 0 5 6
39 10 -26 -24 -9 0 5 6
42 11 -27 -24 -9 0 5 6
44 12 -27 -24 -9 0 5 6
46 13 -28 -25 -9 1 6 6
48 15 -28 -25 -9 2 8 8
50 17 -28 -26 -9 3 9 10
52 19 -28 -26 -9 3 10 11
54 21 -28 -26 -9 4 12 13
56 22 -29 -27 -8 5 13 14
58 22 -29 -27 -8 4 13 14
59 22 -29 -27 -8 4 12 14
60 23 -30 -27 -9 3 11 13
62 23 -30 -27 -9 2 11 13
63 24 -31 -27 -10 1 10 12
62 23 -31 -27 -10 2 10 13
61 23 -31 -27 -10 2 10 13
60 22 -31 -27 -10 3 11 14
59 21 -31 -27 -10 4 11 15
57 20 -30 -26 -9 5 12 16
54 18 -29 -24 -9 5 11 15
51 17 -28 -23 -9 5 10 14
48 16 -26 -22 -9 5 8 12
45 14 -25 -20 -9 5 7 11
43 13 -24 -19 -8 4 6 10
43 14 -22 -17 -6 5 7 10
43 15 -20 -16 -5 6 8 10
43 16 -18 -15 -4 7 9 11
43 17 -16 -13 -2 8 10 11
39 17 -14 -12 0 9 11 12
33 15 -12 -10 1 9 10 11
27 12 -11 -9 2 9 9 10
21 9 -10 -7 3 8 8 8
15 7 -8 -5 4 8 7 7
11 5 -7 -4 5 7 6 6
9 5 -6 -4 5 7 6 6
8 4 -6 -4 5 7 5 5
6 3 -5 -4 5 7 4 4
4 3 -4 -4 5 7 4 4
3 2 -3 -3 5 6 3 3
2 2 -2 -2 6 6 3 3
1 1 -2 0 6 7 3 3
0 0 0 1 7 8 3 3
-2 0 1 2 8 8 3 3
-3 -2 2 3 9 9 4 3
-4 -2 2 3 8 9 4 2
-4 -3 2 3 7 8 3 2
-5 -4 1 2 6 7 2 1
-6 -4 1 2 5 7 2 0
-7 -5 0 1 4 6 1 -2
-7 -6 0 2 4 6 1 -2
-7 -6 1 2 4 6 1 -2
-8 -7 2 3 5 6 0 -2
-8 -8 2 4 5 6 0 -2
-9 -9 3 5 6 7 -2 -2
-10 -9 3 5 6 7 -2 -2
-11 -9 3 5 6 7 -2 -2
-13 -8 4 5 6 7 -2 -2
-14 -8 4 5 6 7 -2 -2
-15 -7 5 5 7 8 0 0
-14 -7 5 5 7 8 0 -2
-13 -7 5 5 7 7 -2 -2
-12 -7 5 5 6 6 -3 -3
-11 -7 5 5 6 6 -3 -4
-10 -6 5 4 5 5 -4 -5
-10 -8 5 4 5 5 -4 -5
-11 -9 5 4 5 5 -4 -5
-12 -11 4 4 5 5 -3 -5
-12 -13 4 4 5 5 -3 -5
-13 -13 3 3 5 5 -2 -4
-11 -11 3 3 5 5 -3 -4
-10 -9 3 3 4 5 -4 -4
-9 -6 3 3 3 4 -5 -5
-7 -4 3 3 3 4 -6 -5
-6 -2 2 3 2 3 -7 -6
-8 -4 2 3 2 3 -7 -6
-9 -6 2 3 2 3 -7 -6
-10 -8 2 2 2 3 -7 -5
-12 -9 2 2 2 3 -7 -5
-13 -11 3 1 1 3 -6 -4
-13 -11 3 1 1 3 -6 -5
-13 -10 3 1 1 3 -6 -5
-12 -9 2 1 1 3 -7 -6
-12 -9 2 1 1 3 -7 -7
-11 -8 1 2 2 3 -8 -8
-11 -7 1 2 2 3 -8 -7
-11 -7 1 2 3 3 -8 -7
-10 -6 1 2 4 3 -7 -6
-10 -5 1 2 4 3 -7 -5
-9 -4 1 3 5 3 -6 -4
-9 -4 1 3 5 3 -6 -4
-9 -4 1 4 5 3 -6 -5
-9 -5 2 5 5 3 -7 -6
-9 -5 2 5 5 3 -7 -6
-8 -6 3 6 5 3 -8 -7
-8 -6 3 6 5 3 -8 -7
-8 -5 3 6 5 3 -8 -7
-8 -4 3 5 4 3 -8 -7
-8 -4 3 5 4 3 -8 -7
-8 -3 3 4 3 2 -7 -6
-8 -3 3 4 3 2 -7 -6
-8 -3 4 5 4 2 -7 -6
-8 -3 5 6 5 2 -7 -5
-8 -3 5 6 5 2 -7 -5
-9 -4 6 7 6 3 -7 -4
-9 -4 6 7 6 3 -7 -3
-9 -4 6 7 6 3 -6 -3
-8 -3 6 7 6 4 -5 -2
-8 -3 6 7 6 4 -5 0
-7 -2 5 7 6 5 -4 1
-7 -3 5 7 6 5 -4 1
-7 -3 5 7 6 5 -5 0
-6 -4 6 8 7 5 -6 -2
-6 -5 6 8 7 5 -6 -2
-5 -6 7 9 8 4 -7 -3
-7 -6 7 9 8 4 -7 -3
-8 -6 7 9 8 4 -7 -3
-10 -6 7 9 7 4 -7 -3
-12 -6 7 9 7 4 -7 -3
-13 -6 8 9 6 4 -6 -3
-13 -6 8 9 6 4 -6 -3
-12 -5 8 9 6 4 -6 -3
-11 -4 7 9 7 3 -7 -4
-11 -4 7 9 7 3 -7 -4
-10 -3 6 8 8 2 -8 -5
-11 -4 6 8 7 2 -8 -5
-11 -4 6 8 6 2 -8 -5
-12 -5 6 7 5 2 -8 -5
-13 -6 6 7 4 2 -8 -5
-14 -7 5 6 3 1 -9 -6
-14 -7 5 6 3 1 -9 -6
-13 -7 5 6 3 1 -10 -6
-12 -7 5 6 3 0 -11 -7
-12 -7 5 6 3 0 -11 -7
-11 -8 5 6 4 -2 -12 -8
-11 -8 5 6 4 -2 -12 -8
-11 -8 5 5 3 -2 -12 -8
-10 -7 4 4 2 -2 -12 -8
-10 -7 4 4 2 -2 -12 -8
-9 -6 3 3 1 0 -11 -8
-9 -6 3 3 1 0 -11 -8
-10 -6 3 4 1 0 -11 -9
-11 -7 3 5 1 -2 -12 -10
-11 -7 3 5 1 -2 -12 -10
-12 -8 4 6 1 -3 -13 -11
-12 -10 4 6 1 -3 -13 -11
-12 -11 4 6 1 -4 -13 -11
-11 -13 4 5 1 -5 -14 -11
-11 -15 4 5 1 -5 -14 -11
-10 -16 5 4 0 -6 -15 -11
-11 -16 5 4 0 -6 -15 -11
-11 -15 5 4 0 -6 -16 -11
-12 -14 5 4 0 -6 -17 -11
-13 -14 5 4 0 -6 -17 -11
-14 -13 4 4 -2 -5 -18 -12
-14 -13 4 4 -3 -6 -18 -12
-15 -13 4 4 -3 -7 -18 -12
-16 -14 4 3 -4 -8 -18 -12
-16 -14 4 3 -5 -9 -18 -12
-17 -15 3 2 -6 -10 -17 -11
-17 -15 4 3 -5 -10 -17 -11
-17 -15 4 3 -5 -9 -16 -11
-16 -15 5 4 -4 -8 -15 -11
-16 -15 6 5 -3 -8 -15 -11
-15 -16 7 6 -2 -7 -14 -11
-16 -16 6 5 -3 -7 -14 -11
-16 -16 6 4 -4 -7 -15 -12
-17 -16 5 2 -5 -7 -16 -13
-18 -16 4 1 -6 -7 -16 -13
-19 -16 3 0 -7 -8 -17 -14
-18 -15 3 0 -7 -8 -17 -14
-17 -15 3 0 -7 -8 -18 -14
-16 -14 3 0 -7 -9 -19 -14
-15 -13 3 0 -7 -9 -19 -14
-14 -12 3 1 -8 -10 -20 -14
-15 -13 3 1 -8 -10 -19 -14
-15 -14 3 1 -8 -10 -19 -14
-16 -15 3 2 -8 -10 -18 -13
-17 -16 3 2 -8 -10 -17 -13
-18 -17 4 3 -7 -9 -16 -12
-17 -15 4 3 -7 -9 -16 -12
-16 -12 4 3 -7 -8 -16 -12
-15 -10 4 3 -6 -7 -16 -12
-14 -8 4 3 -6 -7 -16 -12
-13 -6 5 4 -5 -6 -16 -11
-13 -7 5 4 -5 -7 -16 -11
-13 -8 5 4 -6 -7 -16 -11
-14 -9 5 3 -7 -8 -16 -12
-14 -10 5 3 -7 -9 -16 -12
-15 -11 4 2 -8 -10 -17 -13
-15 -11 4 2 -8 -10 -17 -13
-15 -11 4 3 -8 -10 -17 -13
-15 -11 5 4 -8 -10 -18 -13
-15 -11 5 4 -8 -10 -18 -13
-15 -11 6 5 -7 -10 -19 -12
-15 -11 6 5 -7 -10 -19 -12
-15 -10 6 5 -7 -10 -18 -12
-15 -9 6 4 -8 -10 -17 -12
-15 -9 6 4 -8 -10 -17 -12
-16 -9 5 3 -9 -11 -16 -11
-17 -12 5 3 -9 -11 -16 -11
-17 -15 5 3 -9 -11 -16 -11
-18 -18 5 4 -9 -11 -16 -11
-19 -21 5 4 -9 -11 -16 -11
-20 -23 5 5 -8 -11 -16 -11
-20 -22 6 5 -8 -11 -15 -11
-20 -21 6 5 -8 -11 -15 -11
-20 -19 7 5 -8 -11 -14 -11
-20 -18 8 5 -8 -11 -13 -11
-21 -17 9 6 -7 -10 -12 -10
-18 -16 10 8 -6 -9 -12 -9
-15 -15 10 10 -6 -8 -12 -9
-13 -13 11 12 -5 -6 -12 -8
-10 -12 12 14 -4 -5 -12 -7
-8 -11 13 16 -3 -4 -11 -6
-8 -9 13 16 -2 -3 -10 -6
-7 -7 14 16 1 -3 -10 -6
-7 -5 14 17 2 -2 -9 -6
-6 -3 15 17 4 0 -8 -6
-5 0 16 18 5 1 -7 -6
-3 2 16 18 6 1 -6 -5
0 4 16 19 6 1 -5 -5
2 5 16 19 7 1 -4 -4
4 7 16 20 8 1 -3 -3
6 9 17 21 9 2 -2 -2
5 8 14 18 7 2 -2 -2
5 8 12 15 5 1 -2 -2
4 7 10 12 3 1 -3 -2
3 6 7 9 1 0 -3 -2
2 5 5 6 -2 -2 -4 0
2 4 5 6 -2 -2 -4 0
1 3 5 6 -2 -2 -4 0
1 2 6 7 -2 -3 -4 0
0 1 6 7 -2 -3 -4 0
-2 0 7 8 -2 -4 -4 -2
-4 -3 6 6 -4 -5 -4 -3
-5 -6 6 3 -5 -6 -5 -4
-7 -8 5 1 -7 -7 -5 -5
-8 -10 4 -2 -8 -8 -6 -6
-10 -12 3 -4 -10 -9 -7 -7
-12 -12 3 -4 -10 -10 -9 -9
-14 -13 3 -4 -10 -11 -10 -10
-15 -13 3 -4 -10 -12 -12 -12
-17 -14 3 -4 -10 -14 -13 -13
-19 -15 2 -5 -11 -15 -15 -15
-19 -15 2 -4 -11 -15 -15 -15
-19 -15 3 -4 -11 -14 -15 -15
-19 -16 3 -3 -11 -14 -15 -14
-19 -16 4 -2 -11 -13 -15 -14
-19 -17 5 0 -10 -12 -14 -13
-20 -17 5 0 -10 -12 -14 -13
-21 -17 5 0 -10 -12 -14 -13
-22 -18 5 0 -10 -12 -13 -13
-23 -18 5 0 -10 -12 -13 -13
-24 -19 5 -2 -11 -12 -12 -13
-24 -19 5 -2 -11 -12 -12 -13
-24 -18 5 -2 -11 -12 -12 -13
-24 -18 5 0 -11 -12 -12 -13
-24 -17 5 0 -11 -12 -12 -13
-24 -16 6 1 -11 -12 -13 -12
-24 -16 6 1 -11 -12 -13 -12
-24 -16 6 1 -11 -12 -13 -12
-24 -16 6 1 -11 -13 -14 -13
-24 -16 6 1 -11 -13 -14 -13
-23 -15 6 2 -10 -14 -15 -14
-24 -16 7 3 -9 -14 -15 -15
-24 -17 8 5 -9 -14 -15 -15
-25 -18 9 6 -8 -14 -16 -16
-26 -20 11 8 -7 -14 -16 -17
-27 -21 14 13 -3 -12 -17 -18
-26 -20 24 27 10 -5 -15 -18
-26 -20 33 42 22 3 -14 -18
-25 -19 44 57 35 10 -12 -18
-24 -18 54 71 48 17 -11 -18
-18 -14 61 85 60 27 -7 -17
3 1 64 95 74 42 5 -9
24 15 66 104 89 55 15 -2
45 29 68 113 102 69 26 7
65 44 71 123 116 84 36 15
87 61 71 130 127 98 50 27
111 87 64 125 131 111 71 50
136 112 57 119 134 123 93 72
160 139 49 113 137 137 114 95
185 164 42 108 140 149 136 118
202 188 32 98 140 159 154 139
195 202 21 73 128 159 168 157
188 217 10 49 116 160 181 176
182 232 -2 25 104 160 193 193
175 246 -13 1 92 161 206 212
160 248 -23 -22 75 154 209 218
125 215 -28 -39 47 121 178 191
89 181 -33 -57 18 90 147 163
53 146 -38 -73 -10 58 116 137
17 112 -44 -91 -38 25 85 110
-11 82 -48 -103 -60 0 58 86
-18 64 -47 -99 -62 -11 44 69
-25 46 -46 -95 -64 -21 28 52
-32 27 -45 -91 -67 -31 13 35
-39 10 -44 -87 -69 -41 -3 19
-44 -5 -41 -80 -69 -49 -14 5
-39 -8 -33 -68 -61 -44 -15 2
-35 -10 -26 -57 -52 -39 -17 -3
-31 -13 -19 -46 -43 -34 -18 -7
-27 -16 -12 -34 -34 -29 -19 -11
-24 -18 -6 -25 -27 -25 -21 -14
-23 -18 -5 -22 -25 -25 -21 -15
-23 -18 -4 -20 -24 -25 -21 -15
-22 -17 -3 -18 -22 -25 -21 -16
-21 -17 -2 -15 -21 -25 -21 -17
-20 -16 0 -13 -19 -24 -21 -18
-21 -16 0 -13 -19 -24 -21 -18
-21 -16 1 -13 -19 -24 -21 -19
-22 -16 1 -12 -18 -23 -21 -19
-23 -16 2 -12 -18 -23 -21 -20
-24 -17 3 -11 -17 -22 -22 -21
-24 -18 3 -11 -17 -23 -22 -22
-24 -19 3 -11 -17 -23 -23 -23
-23 -20 3 -11 -17 -24 -23 -24
-23 -21 3 -11 -17 -25 -24 -25
-22 -22 4 -10 -18 -26 -25 -26
-22 -23 4 -10 -18 -26 -25 -26
-22 -24 4 -10 -18 -26 -25 -25
-23 -25 4 -10 -19 -27 -25 -25
-23 -27 4 -10 -19 -27 -25 -24
-24 -28 3 -9 -20 -28 -25 -23
-24 -29 3 -9 -20 -28 -25 -23
-24 -30 3 -8 -20 -28 -25 -23
-25 -31 3 -8 -19 -27 -25 -24
-25 -32 3 -7 -19 -27 -25 -24
-26 -33 4 -6 -18 -26 -24 -25
-24 -31 4 -7 -18 -26 -24 -25
-22 -29 4 -8 -18 -26 -24 -24
-21 -26 3 -9 -18 -25 -23 -24
-19 -24 3 -11 -18 -25 -23 -23
-17 -22 2 -12 -19 -24 -22 -22
-17 -22 2 -12 -19 -24 -22 -22
-18 -22 2 -11 -19 -24 -22 -22
-19 -21 2 -11 -19 -24 -22 -22
-20 -21 2 -10 -19 -24 -22 -22
-21 -20 2 -9 -18 -25 -21 -22
-21 -20 2 -9 -18 -25 -21 -22
-21 -21 2 -10 -18 -25 -21 -22
-20 -21 2 -10 -19 -25 -22 -22
-20 -22 2 -11 -19 -25 -22 -22
-19 -23 1 -12 -20 -25 -23 -22
-18 -23 1 -12 -20 -25 -23 -22
-17 -22 1 -12 -20 -25 -23 -21
-16 -22 1 -11 -20 -25 -22 -20
-15 -21 1 -11 -20 -25 -22 -19
-14 -20 0 -10 -19 -24 -21 -18
-15 -20 0 -10 -19 -24 -21 -18
-16 -20 0 -11 -19 -24 -20 -17
-17 -20 0 -12 -19 -24 -20 -17
-19 -20 0 -13 -19 -24 -19 -16
-20 -21 -2 -14 -20 -24 -18 -15
-19 -21 -2 -14 -20 -24 -18 -15
-18 -20 -2 -14 -19 -24 -18 -15
-17 -20 -2 -13 -19 -23 -18 -15
-16 -19 -2 -13 -18 -23 -18 -15
-15 -18 -2 -12 -17 -22 -17 -16
-13 -18 -2 -12 -17 -20 -15 -14
-11 -17 -2 -12 -17 -18 -13 -13
-8 -17 -2 -12 -17 -16 -11 -11
-6 -16 -2 -12 -17 -14 -9 -9
-4 -15 -2 -12 -16 -12 -7 -7
-3 -13 -2 -12 -16 -12 -7 -7
0 -11 -2 -12 -15 -13 -7 -7
1 -8 -2 -12 -15 -13 -7 -7
2 -6 -2 -12 -14 -14 -7 -7
4 -4 -2 -11 -13 -15 -7 -7
5 -4 -2 -11 -13 -15 -6 -6
6 -4 -3 -11 -13 -14 -5 -5
7 -5 -3 -12 -13 -13 -4 -4
9 -5 -4 -12 -13 -12 -3 -3
10 -6 -5 -13 -12 -11 -2 -2
13 -5 -6 -13 -12 -11 -2 -2
16 -3 -8 -14 -12 -10 -2 -2
19 -2 -9 -15 -12 -10 0 0
22 0 -10 -16 -12 -9 0 0
25 2 -12 -17 -11 -8 1 1
25 2 -14 -19 -12 -8 1 2
26 2 -15 -21 -14 -9 1 3
26 2 -17 -23 -15 -9 1 4
27 2 -19 -25 -16 -10 1 6
28 3 -21 -27 -18 -11 2 7
32 4 -21 -27 -18 -10 3 7
36 5 -21 -27 -18 -9 5 8
40 6 -21 -27 -18 -8 6 8
44 8 -21 -27 -18 -7 7 9
48 9 -22 -28 -17 -6 9 10
48 10 -22 -28 -17 -6 9 10
49 12 -22 -28 -17 -6 10 11
49 13 -23 -28 -17 -6 10 12
50 14 -23 -28 -17 -6 11 13
51 16 -24 -28 -16 -5 12 14
52 16 -24 -28 -16 -5 12 14
53 16 -24 -28 -17 -5 12 14
54 16 -24 -28 -17 -5 13 14
55 16 -24 -28 -18 -5 13 14
56 17 -24 -27 -19 -5 14 15
56 17 -24 -27 -19 -5 14 15
56 17 -24 -28 -19 -5 13 15
56 17 -25 -29 -19 -6 13 15
56 17 -25 -30 -19 -6 12 15
56 18 -26 -31 -18 -7 11 15
54 17 -25 -30 -18 -7 11 15
53 16 -24 -29 -18 -7 11 15
51 15 -23 -28 -18 -6 11 14
49 14 -22 -26 -18 -6 11 14
47 13 -21 -25 -17 -5 12 13
45 13 -19 -23 -15 -5 12 13
44 13 -17 -21 -14 -5 12 13
42 13 -15 -19 -12 -4 11 13
39 13 -13 -16 -10 -4 11 13
37 13 -11 -14 -8 -3 10 13
33 11 -11 -13 -8 -3 10 13
30 9 -10 -12 -8 -3 9 12
26 7 -9 -11 -7 -3 9 12
22 4 -8 -9 -7 -3 8 11
19 2 -7 -8 -6 -2 7 10
19 2 -7 -8 -6 -2 6 9
18 2 -6 -7 -6 -2 5 8
17 3 -5 -6 -7 -3 4 7
16 3 -4 -5 -7 -3 3 5
15 4 -3 -4 -8 -4 2 4
11 2 -2 -3 -7 -3 2 4
8 1 0 -2 -5 -2 2 4
4 -2 1 0 -4 0 3 4
1 -4 2 1 -3 1 3 4
-4 -6 3 2 0 2 4 3
-4 -6 4 2 0 2 4 3
-5 -6 5 3 0 2 4 2
-6 -7 6 3 1 2 4 2
-7 -7 7 4 1 2 4 1
-8 -8 8 5 2 2 3 0
-6 -8 8 5 2 2 2 -2
-4 -8 8 4 2 1 1 -4
-2 -7 7 4 1 1 0 -5
1 -7 7 3 1 0 -2 -6
3 -6 6 2 0 -2 -3 -8
-2 -6 6 2 0 -2 -3 -7
-7 -6 6 2 0 -2 -3 -6
-11 -6 7 2 0 -2 -3 -5
-15 -6 7 2 0 -2 -3 -4
-19 -7 8 3 -2 0 -2 -3
-16 -8 8 3 -2 0 -2 -3
-13 -10 8 3 -2 0 -2 -3
-10 -12 8 3 -2 0 -2 -3
-7 -13 8 3 -2 0 -2 -3
-4 -15 7 2 0 0 -3 -2
-6 -15 7 2 0 0 -3 -2
-9 -15 6 1 -2 -2 -4 -2
-11 -14 5 0 -3 -3 -5 -3
-13 -14 4 -2 -4 -4 -6 -3
-16 -13 3 -3 -5 -5 -7 -4
-16 -13 3 -3 -5 -5 -7 -4
-16 -13 3 -3 -4 -5 -7 -4
-17 -13 3 -2 -4 -5 -7 -4
-17 -13 3 -2 -3 -5 -7 -4
-18 -14 4 0 -2 -4 -6 -5
-17 -14 4 0 -2 -4 -6 -5
-16 -14 4 0 -2 -3 -6 -5
-14 -14 4 -2 -2 -3 -5 -5
-13 -14 4 -2 -2 -2 -5 -5
-11 -14 4 -3 -3 0 -4 -4
-11 -14 4 -3 -3 0 -4 -4
-12 -15 4 -2 -2 0 -5 -4
-13 -15 4 -2 -2 -2 -5 -5
-14 -16 4 0 0 -2 -6 -5
-15 -17 4 1 1 -3 -7 -6
-13 -15 4 1 1 -3 -7 -6
-10 -13 4 1 1 -2 -7 -6
-8 -11 5 1 1 -2 -6 -5
-6 -9 5 1 1 0 -6 -5
-3 -7 6 2 1 1 -5 -4
-4 -7 6 2 1 1 -5 -4
-5 -8 6 2 1 1 -5 -5
-6 -8 7 3 1 1 -6 -5
-7 -9 7 3 1 1 -6 -6
-8 -10 8 4 2 0 -7 -7
-8 -11 8 4 2 0 -7 -7
-9 -12 8 3 2 -2 -8 -7
-9 -14 7 3 1 -2 -8 -7
-10 -15 7 2 1 -3 -9 -7
-11 -17 6 1 0 -4 -10 -8
-11 -15 6 1 0 -4 -10 -8
-10 -12 6 1 0 -4 -9 -7
-10 -9 6 2 1 -3 -9 -6
-9 -7 6 2 1 -3 -8 -5
-8 -4 7 3 2 -2 -7 -4
-8 -4 7 3 2 -2 -7 -4
-8 -4 8 3 2 -2 -7 -3
-8 -4 8 3 3 -2 -7 -3
-8 -4 9 3 3 -2 -7 -2
-8 -3 10 4 4 0 -6 0
-8 -4 10 4 4 0 -6 0
-9 -5 10 4 4 1 -6 -2
-9 -7 9 4 5 1 -7 -3
-10 -8 9 4 5 2 -7 -4
-11 -10 8 5 6 3 -8 -5
-11 -10 8 5 6 3 -8 -5
-11 -10 8 5 6 3 -8 -4
-11 -9 9 5 6 2 -8 -3
-11 -9 9 5 6 2 -8 -2
-12 -8 10 5 5 1 -8 0
-12 -9 9 4 5 1 -8 -2
-12 -11 8 3 5 0 -9 -4
-12 -12 7 2 4 0 -9 -5
-12 -14 6 1 4 -2 -10 -7
-13 -16 5 0 3 -3 -11 -9
-13 -15 5 0 3 -3 -11 -9
-12 -14 5 0 3 -3 -11 -9
-12 -13 5 0 2 -4 -12 -9
-11 -12 5 0 2 -4 -12 -9
-10 -11 4 -2 1 -5 -13 -9
-10 -11 4 -2 1 -5 -13 -9
-9 -11 5 -2 1 -5 -13 -8
-8 -11 6 0 1 -5 -12 -8
-7 -11 7 0 1 -5 -12 -7
-6 -12 8 1 2 -6 -11 -6
-7 -13 8 1 2 -6 -11 -6
-8 -14 8 0 1 -6 -11 -6
-10 -15 7 -2 0 -5 -11 -5
-11 -16 7 -3 -2 -5 -11 -5
-13 -17 6 -4 -3 -4 -10 -4
-13 -17 6 -4 -3 -5 -10 -5
-13 -18 5 -4 -3 -6 -11 -7
-14 -19 5 -4 -3 -7 -12 -8
-14 -20 4 -4 -3 -8 -13 -10
-15 -21 3 -4 -3 -9 -14 -12
-15 -20 3 -4 -3 -9 -14 -11
-16 -19 4 -4 -3 -9 -13 -10
-17 -18 4 -3 -3 -8 -13 -9
-18 -17 5 -3 -3 -8 -12 -8
-19 -15 6 -2 -4 -7 -11 -6
-18 -14 6 -2 -4 -7 -11 -6
-17 -13 6 -2 -3 -7 -11 -6
-15 -11 6 -2 -3 -7 -11 -6
-14 -10 6 -2 -2 -7 -11 -6
-12 -8 6 -2 0 -6 -12 -5
-12 -10 5 -3 -2 -6 -13 -6
-12 -13 4 -4 -3 -7 -14 -8
-12 -15 2 -5 -4 -7 -15 -10
-12 -18 1 -6 -5 -8 -16 -12
-13 -21 -2 -8 -6 -9 -18 -14
-13 -20 0 -7 -6 -9 -18 -14
-13 -19 1 -6 -5 -9 -18 -13
-14 -17 3 -5 -5 -9 -18 -12
-14 -16 4 -4 -4 -9 -18 -11
-15 -14 6 -3 -3 -10 -17 -10
-15 -14 6 -3 -3 -10 -17 -10
-15 -14 6 -3 -3 -10 -16 -10
-16 -15 5 -3 -3 -10 -16 -10
-16 -15 5 -3 -3 -10 -15 -10
-17 -16 4 -3 -2 -10 -14 -11
-17 -16 4 -3 -2 -10 -14 -11
-17 -17 4 -3 -2 -10 -14 -11
-16 -18 5 -3 -2 -10 -13 -10
-16 -19 5 -3 -2 -10 -13 -10
-15 -20 6 -4 -3 -9 -12 -9
-15 -19 6 -4 -3 -9 -12 -9
-15 -18 6 -4 -3 -9 -13 -9
-15 -17 5 -4 -3 -9 -13 -10
-15 -16 5 -4 -3 -9 -14 -10
-14 -14 4 -5 -3 -9 -15 -11
-14 -14 4 -5 -3 -9 -15 -11
-15 -15 4 -5 -3 -10 -16 -12
-15 -16 3 -5 -3 -10 -16 -12
-16 -17 3 -5 -3 -11 -17 -13
-17 -18 2 -5 -4 -12 -18 -14
-17 -18 3 -5 -4 -12 -18 -14
-17 -18 4 -5 -4 -12 -17 -13
-16 -17 5 -5 -4 -12 -16 -13
-16 -17 6 -5 -4 -12 -15 -12
-15 -16 7 -6 -3 -11 -14 -11
-13 -16 6 -6 -4 -11 -15 -12
-10 -16 4 -7 -5 -12 -17 -13
-8 -16 3 -7 -6 -13 -18 -14
-5 -16 1 -8 -7 -14 -20 -15
-2 -15 -2 -9 -8 -15 -22 -17
-3 -14 1 -7 -6 -13 -20 -16
-5 -13 4 -4 -3 -11 -18 -14
-6 -12 7 0 1 -8 -16 -12
-8 -11 10 3 4 -6 -14 -10
-10 -9 13 6 7 -3 -11 -8
-8 -8 13 6 7 -3 -11 -8
-6 -7 13 7 7 -3 -11 -8
-4 -5 14 8 7 -3 -11 -9
-2 -4 14 9 7 -3 -11 -9
1 -2 15 10 8 -3 -10 -10
4 -2 14 10 8 -3 -10 -10
7 -2 13 9 8 -3 -11 -10
10 -2 12 9 7 -3 -11 -10
13 -2 11 8 7 -3 -12 -10
16 0 10 7 6 -4 -13 -11
10 0 10 7 7 -3 -12 -11
4 0 10 7 8 -2 -11 -10
-3 1 9 7 9 0 -10 -9
-9 1 9 7 10 1 -9 -8
-16 2 8 6 11 2 -7 -7
-15 1 7 5 10 1 -7 -7
-14 0 6 3 9 0 -8 -7
-13 -3 5 2 7 -2 -8 -7
-12 -4 4 0 6 -3 -9 -7
-10 -6 2 -3 4 -4 -10 -6
-9 -6 2 -3 3 -5 -10 -7
-8 -6 2 -4 2 -6 -11 -8
-7 -6 1 -4 0 -8 -12 -9
-6 -6 1 -5 -2 -9 -13 -10
-5 -5 0 -6 -4 -11 -14 -12
-6 -7 0 -6 -4 -11 -15 -12
-7 -9 0 -6 -4 -12 -16 -13
-8 -11 0 -6 -4 -12 -17 -13
-9 -13 0 -6 -4 -13 -18 -14
-10 -16 0 -7 -5 -14 -19 -15
-11 -16 0 -7 -5 -14 -19 -15
-12 -16 1 -7 -5 -14 -19 -15
-13 -16 1 -7 -6 -14 -18 -15
-14 -16 2 -7 -6 -14 -18 -15
-15 -15 3 -7 -7 -13 -17 -16
-15 -15 3 -7 -7 -14 -18 -17
-15 -15 3 -7 -7 -15 -19 -18
-15 -15 2 -7 -7 -16 -20 -19
-15 -15 2 -7 -7 -17 -21 -20
-16 -15 1 -6 -7 -18 -23 -22
-16 -16 1 -6 -7 -18 -22 -22
-16 -17 2 -5 -7 -18 -21 -21
-16 -18 3 -4 -7 -17 -20 -20
-16 -19 4 -3 -7 -17 -19 -19
-15 -20 5 -2 -7 -16 -18 -18
-15 -19 5 -2 -7 -16 -18 -18
-15 -18 5 -2 -7 -16 -18 -18
-15 -17 5 -2 -7 -16 -18 -18
-15 -17 5 -2 -7 -16 -18 -18
-15 -16 5 -2 -7 -16 -18 -18
-15 -16 4 -2 -7 -15 -18 -19
-17 -18 5 0 -7 -16 -19 -21
-19 -20 6 2 -6 -17 -21 -23
-21 -22 7 3 -6 -18 -22 -25
-22 -24 8 4 -6 -18 -23 -27
-21 -24 18 20 7 -13 -24 -28
-19 -23 28 35 19 -6 -23 -29
-16 -22 38 52 31 2 -22 -29
-14 -21 49 67 44 9 -21 -30
-12 -20 58 82 56 15 -20 -30
4 -6 64 98 76 34 -5 -20
19 9 69 112 96 54 11 -8
34 23 75 128 116 72 26 4
50 37 80 142 137 92 42 16
64 52 86 156 156 110 56 27
87 80 80 151 159 127 81 53
109 109 73 144 162 143 106 78
132 139 66 137 165 159 131 104
154 168 59 130 169 175 156 130
177 196 52 122 172 191 181 155
163 210 39 96 162 193 196 175
148 223 26 69 152 195 211 195
133 236 14 43 142 197 226 215
118 250 2 16 131 199 241 234
103 263 -11 -11 120 201 256 254
78 231 -20 -34 81 161 219 222
54 196 -29 -57 43 118 180 188
30 161 -38 -80 4 76 140 154
6 128 -47 -103 -35 33 101 120
-19 93 -56 -127 -74 -9 61 87
-24 74 -57 -124 -76 -20 46 69
-28 55 -57 -120 -78 -30 31 52
-33 36 -57 -117 -80 -40 17 35
-37 17 -57 -113 -82 -51 2 18
-41 -2 -57 -110 -85 -61 -13 1
-38 -6 -49 -94 -74 -55 -14 -2
-33 -10 -39 -76 -63 -47 -13 -4
-28 -14 -30 -60 -51 -38 -12 -6
-23 -18 -21 -43 -38 -31 -11 -8
-18 -21 -12 -26 -27 -23 -11 -10
-17 -22 -10 -22 -24 -22 -10 -12
-17 -22 -8 -18 -21 -21 -10 -13
-17 -22 -7 -14 -19 -20 -11 -14
-17 -22 -5 -10 -16 -19 -11 -15
-17 -22 -4 -6 -14 -18 -11 -16
-18 -21 -3 -5 -13 -17 -12 -17
-18 -21 -3 -5 -14 -17 -12 -17
-18 -21 -3 -5 -14 -18 -12 -18
-18 -21 -3 -5 -15 -18 -12 -18
-18 -21 -3 -5 -15 -18 -12 -18
-18 -22 -2 -5 -16 -19 -12 -19
-19 -23 -2 -4 -16 -19 -13 -20
-19 -24 0 -3 -15 -19 -14 -21
-20 -25 0 -2 -15 -19 -15 -22
-20 -25 0 0 -15 -19 -16 -23
-21 -26 1 1 -14 -19 -17 -24
-20 -26 1 0 -14 -19 -16 -23
-19 -26 1 0 -14 -18 -15 -22
-18 -26 1 -2 -14 -18 -14 -21
-18 -26 1 -2 -14 -18 -14 -21
-17 -27 0 -3 -15 -17 -13 -20
-18 -28 1 -2 -14 -17 -13 -20
-19 -29 2 -2 -13 -17 -13 -20
-20 -30 3 0 -12 -17 -13 -20
-21 -31 3 0 -12 -17 -13 -20
-22 -31 3 1 -11 -16 -12 -20
-22 -30 2 0 -12 -16 -12 -20
-22 -29 0 -2 -12 -17 -12 -20
-22 -28 -2 -3 -13 -17 -12 -20
-22 -27 -3 -3 -13 -17 -12 -20
-20 -25 -3 -3 -13 -17 -10 -19
-18 -24 0 0 -11 -15 -8 -18
-16 -23 2 2 -10 -13 -6 -17
-14 -22 4 4 -8 -11 -4 -16
-13 -21 6 5 -7 -10 -3 -15
-12 -21 6 5 -6 -9 -2 -14
-13 -22 5 4 -7 -10 -3 -14
-14 -23 3 2 -8 -11 -4 -15
-15 -24 2 1 -9 -12 -5 -15
-16 -25 1 0 -10 -12 -6 -15
-16 -26 0 -2 -11 -13 -7 -16
-15 -25 0 -2 -11 -13 -7 -16
-13 -24 1 -2 -10 -13 -7 -16
-12 -23 1 -2 -10 -13 -7 -16
-11 -23 1 -2 -10 -13 -7 -16
-10 -22 2 0 -9 -13 -5 -16
-9 -21 2 0 -9 -12 -4 -15
-8 -20 1 0 -8 -11 -2 -13
-7 -19 1 0 -8 -10 0 -12
-7 -19 1 0 -8 -9 1 -11
-7 -18 0 -2 -7 -8 2 -10
-8 -18 0 0 -7 -8 2 -10
-9 -19 1 1 -7 -8 2 -9
-10 -19 1 2 -7 -8 2 -9
-11 -19 1 2 -7 -8 2 -9
-12 -20 2 2 -7 -8 1 -8
-12 -19 1 1 -7 -7 2 -8
-12 -18 1 0 -6 -6 3 -7
-12 -17 0 -2 -6 -5 4 -7
-12 -17 0 -3 -6 -4 5 -7
-10 -16 -2 -4 -5 -3 6 -6
-8 -16 -3 -4 -5 -3 6 -6
-5 -16 -3 -4 -4 -3 6 -5
-2 -16 -4 -4 -4 -3 6 -5
1 -16 -4 -4 -4 -3 6 -5
4 -16 -5 -4 -3 0 8 -2
6 -15 -6 -4 -3 1 11 1
8 -14 -7 -5 -3 2 14 3
10 -13 -8 -5 -3 3 16 6
12 -13 -8 -5 -3 4 19 8
14 -11 -9 -6 -2 5 20 9
16 -10 -10 -7 -2 5 20 9
18 -9 -10 -7 -2 6 20 9
20 -8 -11 -8 -2 6 20 9
21 -7 -11 -8 -2 6 20 9
23 -5 -13 -9 0 7 20 10
24 -3 -14 -10 0 8 21 11
26 0 -16 -11 0 9 21 11
27 2 -17 -12 0 10 22 12
28 3 -18 -13 0 11 22 12
32 4 -19 -14 1 12 24 14
37 4 -19 -14 1 13 27 16
42 4 -19 -14 2 14 29 18
47 4 -19 -14 2 15 31 20
51 4 -19 -14 2 16 33 21
52 6 -19 -13 3 17 34 22
52 8 -20 -13 3 17 34 23
52 10 -22 -14 2 17 34 23
52 12 -23 -14 2 17 34 24
52 13 -24 -14 2 17 34 24
52 14 -25 -15 1 17 35 25
52 14 -25 -14 2 18 36 26
52 14 -24 -13 2 19 36 26
52 14 -24 -12 3 20 37 27
52 14 -24 -12 3 20 37 27
52 14 -23 -11 4 21 38 28
52 15 -23 -11 3 20 38 28
51 16 -23 -12 2 19 38 29
51 17 -23 -12 1 18 38 29
51 17 -23 -12 0 17 38 29
49 17 -21 -12 0 16 37 29
47 15 -19 -10 1 16 37 28
45 13 -18 -9 3 17 37 27
43 11 -16 -7 4 17 37 26
40 9 -15 -6 5 17 37 25
37 8 -13 -4 6 18 36 24
34 8 -11 -3 7 18 35 24
31 7 -10 0 7 19 34 24
28 7 -8 1 8 19 33 24
25 7 -7 2 8 19 33 24
23 5 -5 4 9 20 31 23
21 4 -4 6 9 19 30 21
19 2 -2 8 9 18 28 20
17 1 0 10 9 17 27 18
15 0 1 12 9 17 26 17
13 -2 2 13 9 16 25 16
12 -2 3 14 10 16 25 16
10 0 4 14 11 17 25 16
8 0 5 15 12 17 25 16
7 0 6 15 13 17 25 16
4 -2 7 16 14 18 24 15
1 -4 8 17 14 18 23 14
-3 -7 9 18 14 18 21 12
-5 -10 10 19 14 18 20 11
-8 -12 11 19 14 18 19 10
-9 -13 12 20 13 17 18 9
-9 -13 12 19 13 17 18 9
-9 -12 11 18 14 17 18 10
-9 -12 11 17 14 17 18 10
-9 -12 11 17 14 17 18 10
-9 -11 10 16 15 16 18 11
-9 -11 10 16 15 16 18 11
-9 -10 10 16 15 16 18 11
-9 -10 10 16 15 16 18 11
-9 -10 10 16 15 16 18 11
-9 -10 11 17 15 16 19 10
-10 -12 10 16 14 16 18 9
-11 -14 9 16 13 15 17 8
-12 -15 8 15 12 15 16 7
-12 -17 7 15 11 15 16 7
-13 -18 6 14 10 14 15 6
-14 -18 6 14 10 13 14 6
-15 -18 6 14 11 13 14 6
-16 -18 6 14 11 12 13 6
-16 -18 6 14 11 12 13 6
-16 -16 7 14 12 11 12 6
-15 -12 7 14 11 11 13 7
-13 -9 7 13 11 12 13 8
-11 -5 7 13 10 12 14 9
-10 -2 7 13 10 12 14 10
-9 -3 7 12 9 13 15 11
-9 -5 7 12 9 13 15 10
-9 -7 7 12 9 13 14 10
-9 -10 7 12 9 13 14 9
-9 -12 7 12 9 13 14 9
-9 -13 8 11 10 14 13 8
-10 -13 8 11 10 14 13 8
-10 -13 8 12 10 13 13 8
-11 -13 8 12 10 13 13 8
-11 -13 8 12 10 13 13 8
-12 -14 8 13 9 12 13 9
-12 -14 9 14 10 12 13 9
-13 -14 9 14 11 13 14 9
-13 -14 10 15 12 13 14 9
-13 -14 10 15 12 13 14 9
-14 -14 11 16 13 14 15 9
-14 -14 10 15 13 14 15 9
-14 -13 9 14 12 14 15 10
-14 -13 8 13 12 14 15 10
-14 -13 8 13 12 14 15 10
-13 -12 7 12 11 14 14 11
-13 -11 8 13 12 14 14 11
-12 -11 8 14 13 14 14 11
-12 -10 9 15 14 14 14 11
-12 -10 9 16 14 14 14 11
-12 -9 10 17 15 14 14 10
-13 -10 10 15 14 14 14 10
-15 -11 9 14 14 13 14 10
-17 -12 9 13 13 13 14 10
-18 -12 9 12 13 13 14 10
-19 -13 8 11 12 12 13 9
-18 -12 8 11 12 12 13 8
-17 -12 7 11 13 12 12 8
-16 -11 7 11 13 12 12 7
-15 -11 7 11 13 12 12 7
-14 -10 6 12 14 13 11 6
-13 -10 6 12 13 12 11 7
-12 -10 7 12 12 12 11 7
-11 -10 7 12 11 11 11 8
-10 -10 7 12 11 11 11 8
-9 -9 8 12 10 10 12 9
-10 -10 6 11 9 9 11 8
-10 -11 5 10 9 9 10 7
-11 -12 4 9 8 8 9 6
-11 -12 3 8 8 8 8 5
-12 -13 2 7 7 7 7 4
-12 -12 2 7 7 7 7 4
-13 -11 2 7 7 7 7 3
-13 -10 2 7 7 7 7 3
-13 -9 2 7 7 7 7 3
-14 -8 2 7 7 7 8 2
-13 -9 2 7 7 7 8 1
-12 -10 3 7 6 6 7 0
-11 -11 3 7 6 6 7 -2
-11 -12 3 7 6 6 7 -3
-10 -13 4 6 5 5 6 -4
-10 -13 4 6 5 5 7 -4
-9 -13 4 6 5 5 7 -4
-9 -13 4 6 5 5 8 -4
-9 -13 4 6 5 5 8 -4
-9 -15 3 5 5 5 9 -3
-10 -16 3 5 5 4 8 -3
-12 -18 3 5 5 3 7 -3
-14 -20 3 5 5 2 6 -3
-15 -21 3 5 5 2 6 -3
-16 -22 2 4 4 1 5 -3
-15 -20 2 3 3 1 5 -3
-15 -19 2 2 3 1 4 -3
-14 -18 2 1 2 1 4 -3
-14 -17 2 1 2 1 4 -3
-13 -16 1 0 1 1 3 -4
-13 -16 1 0 1 1 3 -4
-12 -16 1 0 1 1 3 -4
-12 -16 1 0 1 1 3 -4
-12 -16 1 0 1 1 3 -4
-11 -17 1 1 1 0 2 -4
-12 -17 1 1 1 0 2 -4
-12 -16 1 0 0 0 1 -4
-13 -16 1 0 0 0 1 -4
-13 -16 1 0 0 0 1 -4
-14 -15 0 -2 -2 -2 0 -5
-13 -15 0 -2 -2 -3 -2 -7
-13 -16 0 -3 -2 -3 -2 -8
-12 -16 0 -3 -2 -4 -3 -9
-12 -16 0 -3 -2 -4 -3 -10
-11 -17 -2 -4 -3 -5 -4 -11
-13 -18 -2 -4 -4 -5 -4 -11
-14 -19 -2 -4 -4 -5 -4 -11
-15 -20 -2 -4 -5 -5 -4 -11
-16 -20 -2 -4 -5 -5 -4 -11
-17 -21 -2 -5 -6 -6 -4 -10
-16 -20 -2 -5 -6 -6 -4 -10
-15 -20 -2 -4 -6 -6 -4 -10
-14 -19 -2 -4 -6 -6 -4 -10
-14 -19 -2 -4 -6 -6 -4 -10
-13 -18 0 -3 -7 -6 -5 -10
-13 -17 0 -3 -6 -6 -5 -10
-13 -16 0 -3 -6 -5 -5 -10
-13 -15 0 -3 -5 -5 -5 -10
-13 -14 0 -3 -5 -5 -5 -10
-13 -13 1 -2 -4 -4 -4 -10
-13 -13 1 -2 -4 -5 -6 -10
-14 -13 1 -2 -5 -6 -7 -11
-14 -13 1 -2 -5 -7 -8 -11
-14 -13 1 -2 -5 -7 -9 -11
-15 -14 0 -3 -6 -8 -10 -12
-15 -16 0 -3 -6 -8 -10 -12
-16 -17 0 -3 -6 -7 -9 -11
-16 -18 0 -3 -6 -7 -9 -11
-16 -19 0 -3 -6 -7 -9 -11
-17 -20 1 -3 -5 -6 -8 -10
-17 -20 1 -3 -5 -6 -8 -11
-17 -20 1 -3 -5 -7 -8 -11
-17 -20 1 -3 -5 -7 -8 -12
-17 -20 1 -3 -5 -7 -8 -12
-17 -19 1 -3 -5 -8 -8 -13
-15 -17 2 -2 -4 -7 -8 -13
-14 -14 3 0 -3 -7 -8 -12
-12 -12 4 1 -2 -6 -8 -12
-10 -10 5 2 -2 -6 -8 -12
-9 -9 6 3 0 -5 -8 -11
-9 -9 7 5 1 -5 -7 -10
-8 -9 8 6 1 -5 -7 -10
-8 -9 9 7 2 -5 -6 -9
-8 -9 10 8 2 -5 -6 -9
-7 -7 11 9 4 -4 -5 -8
-7 -6 12 10 5 -2 -4 -7
-7 -4 12 11 6 0 -3 -7
-7 -3 13 12 8 1 -3 -6
-7 0 13 13 9 2 -2 -6
-6 1 13 14 10 3 0 -5
-6 0 12 13 10 3 0 -4
-6 -2 10 13 10 3 0 -4
-6 -2 9 12 10 3 0 -3
-6 -3 7 12 10 3 0 -3
-6 -5 5 9 8 3 0 -2
-7 -6 3 5 6 1 -2 -3
-8 -8 1 2 3 0 -3 -4
-9 -9 -2 -3 0 -3 -5 -4
-10 -11 -4 -7 -4 -5 -6 -5
-10 -12 -5 -8 -5 -6 -7 -6
-9 -11 -4 -6 -4 -6 -7 -6
-8 -10 -4 -5 -4 -6 -7 -6
-6 -10 -3 -4 -3 -6 -7 -6
-5 -9 -3 -3 -3 -6 -7 -6
-4 -8 -2 -3 -2 -5 -7 -6
-4 -10 -3 -4 -4 -6 -8 -7
-5 -11 -4 -5 -5 -7 -9 -8
-5 -12 -4 -7 -6 -8 -10 -9
-5 -13 -5 -8 -7 -9 -11 -10
-7 -14 -6 -9 -8 -10 -13 -12
-10 -15 -6 -9 -8 -12 -15 -14
-12 -15 -6 -9 -9 -13 -16 -16
-14 -16 -6 -9 -9 -14 -18 -18
-17 -16 -6 -9 -9 -15 -20 -20
-18 -17 -6 -8 -10 -16 -21 -21
-18 -18 -5 -8 -10 -15 -20 -20
-19 -18 -4 -7 -10 -15 -19 -19
-19 -19 -3 -7 -10 -14 -19 -18
-19 -19 -2 -7 -10 -14 -18 -17
-20 -20 0 -6 -10 -13 -17 -16
-20 -21 -2 -7 -10 -14 -18 -17
-21 -21 -3 -7 -11 -14 -19 -17
-21 -22 -4 -8 -11 -15 -19 -18
-21 -22 -5 -8 -11 -15 -20 -18
-22 -23 -6 -9 -12 -16 -21 -19
-22 -23 -6 -9 -12 -16 -21 -19
-23 -22 -6 -9 -12 -16 -21 -18
-23 -22 -6 -9 -12 -16 -21 -18
-23 -22 -6 -9 -12 -16 -21 -18
-24 -21 -7 -9 -12 -16 -20 -17
-26 -23 -6 -8 -12 -17 -20 -18
-27 -24 -5 -8 -11 -17 -21 -19
-29 -26 -5 -7 -11 -18 -21 -20
-30 -27 -4 -7 -11 -18 -21 -21
-30 -28 1 0 -7 -19 -23 -23
-29 -27 7 8 -2 -17 -25 -26
-27 -26 13 17 3 -16 -27 -29
-26 -25 18 25 8 -14 -29 -32
-24 -24 24 33 13 -13 -31 -35
-17 -17 33 50 29 0 -26 -32
-8 -8 45 69 50 15 -16 -25
2 2 56 89 70 31 -7 -18
11 11 66 109 90 48 4 -11
20 20 77 129 110 64 14 -5
38 35 79 135 123 78 29 10
60 55 74 136 132 94 47 26
82 73 70 137 141 108 64 44
104 93 66 137 149 122 81 60
127 111 62 138 158 137 99 76
139 138 53 127 161 152 125 104
147 169 42 108 161 169 153 135
155 199 30 90 161 185 181 167
163 230 19 71 161 201 210 197
172 261 8 53 161 218 238 229
154 255 -6 25 134 198 229 233
123 231 -19 -7 95 162 202 223
94 206 -32 -37 55 126 175 214
63 182 -46 -69 16 90 147 203
33 158 -59 -101 -23 54 120 194
14 132 -64 -113 -44 30 97 169
1 105 -64 -116 -54 13 74 136
-13 78 -65 -119 -64 -6 53 103
-27 51 -65 -122 -75 -23 30 70
-40 24 -65 -126 -86 -40 8 38
-45 10 -62 -117 -85 -47 -3 22
-43 2 -55 -102 -77 -47 -8 14
-41 -6 -48 -88 -69 -48 -13 6
-39 -14 -40 -73 -62 -48 -18 -4
-37 -22 -33 -58 -54 -48 -23 -12
-35 -25 -28 -49 -48 -47 -25 -15
-33 -25 -24 -40 -41 -41 -25 -17
-32 -25 -21 -33 -36 -37 -25 -18
-30 -25 -17 -26 -31 -33 -25 -20
-28 -25 -14 -19 -25 -29 -25 -21
-27 -25 -12 -16 -23 -27 -25 -22
-27 -26 -10 -15 -23 -26 -25 -22
-27 -27 -9 -14 -22 -26 -25 -22
-27 -28 -8 -14 -22 -25 -25 -22
-27 -29 -7 -13 -22 -25 -25 -22
-26 -30 -6 -12 -21 -24 -25 -23
-25 -30 -6 -11 -21 -25 -26 -23
-25 -30 -6 -10 -21 -26 -27 -24
-24 -30 -6 -9 -21 -26 -27 -24
-24 -30 -6 -8 -21 -27 -28 -24
-23 -29 -6 -7 -20 -28 -29 -25
-23 -29 -6 -7 -20 -28 -29 -25
-22 -28 -6 -7 -20 -27 -28 -24
-21 -28 -6 -7 -20 -26 -27 -23
-21 -28 -6 -7 -20 -26 -27 -23
-20 -28 -5 -8 -20 -25 -26 -22
-21 -29 -5 -8 -21 -26 -27 -23
-22 -31 -6 -9 -22 -27 -28 -25
-23 -32 -7 -9 -22 -27 -29 -26
-24 -34 -7 -9 -23 -28 -30 -27
-24 -34 -8 -10 -24 -29 -31 -28
-23 -31 -8 -10 -24 -28 -30 -27
-21 -29 -8 -9 -23 -27 -28 -25
-20 -26 -8 -9 -23 -27 -27 -24
-18 -23 -8 -9 -23 -26 -26 -23
-17 -22 -7 -8 -22 -25 -25 -22
-17 -22 -7 -8 -22 -25 -25 -22
-17 -23 -7 -8 -22 -26 -26 -22
-17 -23 -7 -8 -22 -27 -27 -22
-17 -23 -7 -8 -22 -27 -27 -22
-18 -24 -6 -7 -22 -28 -28 -21
-18 -24 -6 -8 -22 -28 -28 -21
-18 -24 -7 -9 -22 -28 -28 -22
-18 -24 -7 -10 -22 -28 -28 -23
-18 -24 -7 -11 -22 -28 -28 -23
-17 -25 -8 -12 -22 -28 -27 -24
-17 -25 -8 -12 -22 -28 -27 -23
-16 -25 -8 -11 -22 -27 -26 -22
-16 -25 -8 -11 -22 -26 -26 -22
-16 -25 -8 -11 -22 -26 -26 -21
-15 -24 -7 -10 -21 -25 -25 -20
-15 -23 -7 -10 -21 -25 -24 -20
-14 -22 -7 -10 -20 -24 -23 -19
-14 -22 -7 -10 -20 -23 -23 -19
-14 -21 -7 -10 -20 -23 -22 -19
-13 -20 -8 -9 -19 -22 -21 -18
-13 -20 -8 -9 -19 -22 -21 -18
-13 -20 -8 -9 -19 -22 -21 -18
-13 -20 -8 -9 -19 -22 -21 -18
-13 -20 -8 -9 -19 -22 -21 -18
-12 -20 -9 -10 -19 -22 -20 -18
-11 -19 -9 -10 -19 -21 -19 -17
-9 -18 -9 -11 -18 -20 -18 -16
-8 -18 -9 -11 -18 -20 -18 -16
-7 -17 -9 -11 -18 -19 -17 -15
-6 -16 -10 -12 -17 -18 -16 -14
-6 -16 -10 -12 -17 -18 -15 -14
-6 -17 -11 -12 -17 -17 -14 -13
-6 -18 -11 -12 -17 -17 -14 -12
-6 -18 -11 -12 -17 -17 -13 -12
-4 -17 -12 -11 -17 -16 -12 -11
0 -14 -12 -11 -17 -14 -10 -10
3 -11 -13 -12 -16 -13 -9 -9
6 -7 -14 -13 -16 -11 -7 -8
9 -4 -14 -13 -16 -10 -6 -7
11 -2 -15 -14 -15 -9 -5 -6
13 -3 -15 -13 -14 -8 -4 -5
14 -5 -15 -12 -12 -7 -2 -4
16 -6 -15 -12 -11 -7 0 -3
17 -7 -15 -11 -10 -6 1 -2
20 -6 -14 -10 -9 -5 2 0
23 -3 -16 -12 -9 -5 3 2
26 2 -18 -13 -10 -4 4 4
30 6 -19 -15 -10 -3 5 5
33 9 -21 -16 -10 -3 6 7
35 11 -22 -17 -11 -2 7 8
36 11 -23 -17 -12 -2 7 8
38 11 -25 -18 -13 -2 7 7
39 11 -26 -18 -13 -2 7 7
40 11 -27 -18 -14 -2 7 7
43 12 -28 -19 -15 -3 7 7
44 13 -28 -20 -15 -3 9 9
46 14 -29 -21 -15 -2 11 11
48 15 -29 -22 -15 -2 12 13
50 16 -29 -23 -15 -2 14 15
51 17 -30 -24 -15 0 15 16
52 18 -30 -24 -15 0 15 16
54 20 -30 -23 -15 1 15 16
55 21 -30 -23 -15 1 15 16
56 22 -30 -23 -15 1 15 16
57 23 -30 -22 -16 2 16 17
57 23 -30 -22 -16 2 16 17
56 22 -29 -22 -16 2 17 18
55 22 -29 -22 -16 2 18 19
55 22 -29 -22 -16 2 18 19
54 21 -28 -21 -15 3 19 20
54 21 -28 -21 -15 3 19 20
54 21 -27 -20 -14 3 19 20
54 21 -27 -19 -14 3 19 20
54 21 -27 -19 -14 3 19 20
54 21 -25 -18 -13 2 19 19
51 21 -24 -16 -12 3 19 19
48 22 -22 -14 -10 4 20 20
45 23 -20 -13 -9 5 20 20
42 23 -18 -11 -8 6 20 20
36 22 -16 -9 -7 7 21 21
31 18 -15 -8 -7 7 19 20
26 15 -13 -6 -6 7 18 19
21 11 -11 -4 -5 7 16 19
16 7 -9 -2 -5 7 15 18
13 5 -8 0 -4 6 14 17
13 7 -6 2 -3 6 14 16
14 8 -4 4 0 6 13 14
15 10 -3 5 1 6 13 13
15 11 0 7 2 6 13 12
15 11 1 8 3 6 12 11
11 10 1 8 3 6 11 10
8 8 2 9 3 6 10 9
5 6 3 9 3 6 9 8
2 4 3 9 3 6 8 7
-2 3 4 10 2 6 7 6
-3 2 4 10 2 6 7 6
-5 1 3 9 2 6 8 6
-7 1 3 9 2 6 9 6
-9 0 3 9 2 6 9 6
-10 -2 2 8 3 7 10 5
-11 -2 2 8 3 7 10 5
-12 -3 3 8 2 6 9 5
-13 -4 3 8 2 5 8 5
-14 -4 3 8 2 5 8 5
-15 -5 4 8 1 4 7 4
-14 -6 4 7 1 4 6 4
-13 -8 3 6 0 3 5 3
-13 -9 3 6 0 3 5 2
-12 -10 3 5 0 3 4 2
-11 -11 2 4 -2 2 3 1
-11 -10 3 4 -2 2 3 1
-10 -8 4 4 -2 3 3 1
-9 -7 4 4 -2 3 3 1
-9 -6 5 4 -2 3 3 1
-8 -5 6 5 0 4 4 2
-8 -5 6 5 0 4 5 2
-7 -5 6 5 0 4 6 3
-7 -5 6 5 0 4 6 4
-7 -5 6 5 0 4 7 4
-6 -6 5 5 0 5 8 5
-8 -6 4 5 0 5 7 4
-10 -6 3 4 -2 4 6 3
-11 -6 3 3 -2 3 5 3
-13 -6 2 3 -2 3 4 2
-14 -7 1 2 -3 2 3 1
-14 -7 1 2 -3 2 3 1
-13 -6 1 2 -3 2 3 1
-13 -5 1 2 -3 2 3 1
-13 -5 1 2 -3 2 3 1
-12 -4 2 2 -2 3 4 0
-12 -4 2 2 -2 3 4 1
-11 -4 3 3 0 4 5 2
-11 -4 4 3 0 4 5 3
-11 -4 4 3 0 4 5 4
-10 -5 5 4 1 5 6 5
-10 -5 5 4 1 5 6 4
-11 -6 5 4 1 4 5 3
-12 -7 5 4 1 4 4 3
-12 -7 5 4 1 4 4 2
-13 -8 5 3 1 3 3 1
-13 -8 6 4 2 5 4 1
-13 -7 7 5 4 6 5 2
-13 -7 7 6 5 7 5 2
-13 -7 8 7 6 9 6 2
-12 -6 9 8 7 10 7 3
-12 -6 8 7 6 8 6 3
-12 -5 7 6 4 7 5 2
-12 -4 7 5 3 6 4 1
-12 -4 6 4 2 4 3 1
-13 -3 5 3 1 3 2 0
-13 -5 5 3 1 3 2 0
-13 -7 5 3 1 3 2 0
-13 -9 5 3 1 3 2 0
-13 -11 5 3 1 3 2 0
-14 -12 5 4 0 2 3 0
-14 -10 5 4 1 3 3 1
-14 -8 6 5 2 4 4 2
-14 -6 6 5 2 4 4 2
-14 -4 6 5 3 5 4 3
-14 -3 7 6 4 6 5 4
-14 -3 7 6 4 5 4 3
-14 -3 6 5 3 3 2 1
-14 -3 6 5 2 2 1 0
-14 -3 6 5 2 1 0 -2
-14 -4 5 4 1 0 -2 -3
-13 -4 5 4 1 0 -2 -3
-11 -4 6 4 1 1 0 -2
-10 -4 6 4 1 2 1 -2
-9 -4 6 4 1 2 1 -2
-9 -3 7 5 2 3 2 0
-11 -5 7 5 2 3 2 -2
-14 -7 6 4 1 2 1 -3
-16 -8 6 4 0 1 0 -3
-18 -10 6 4 0 1 0 -4
-20 -11 5 3 -2 0 -2 -5
-20 -10 5 3 -2 0 -2 -5
-20 -8 5 3 -2 1 0 -4
-20 -7 5 3 -2 1 0 -3
-20 -6 5 3 -2 1 0 -3
-19 -6 5 4 0 2 1 -2
-18 -8 5 3 -2 0 0 -2
-16 -10 4 2 -3 -2 -2 -3
-15 -12 4 2 -3 -3 -2 -3
-14 -14 4 1 -4 -5 -3 -3
-13 -15 3 0 -5 -6 -4 -4
-14 -14 3 0 -5 -6 -4 -4
-15 -13 2 -2 -5 -5 -4 -4
-15 -13 1 -2 -5 -4 -4 -4
-16 -12 1 -2 -5 -4 -4 -4
-17 -11 0 -3 -6 -3 -4 -5
-17 -11 1 -2 -6 -3 -4 -5
-17 -11 2 1 -5 -3 -4 -5
-17 -11 3 2 -4 -3 -4 -5
-17 -11 4 3 -4 -3 -4 -5
-17 -11 5 4 -3 -3 -3 -6
-17 -12 4 3 -4 -4 -3 -6
-17 -12 4 2 -5 -5 -3 -6
-17 -13 3 0 -7 -6 -4 -7
-17 -14 2 -2 -8 -7 -4 -7
-16 -15 1 -3 -9 -8 -5 -8
-17 -15 1 -3 -9 -8 -5 -8
-18 -15 1 -3 -8 -8 -5 -8
-19 -15 1 -2 -7 -7 -5 -8
-20 -15 1 -2 -7 -7 -5 -8
-21 -15 2 0 -6 -6 -5 -8
-21 -15 2 0 -6 -6 -5 -8
-21 -15 2 0 -6 -6 -5 -8
-20 -16 2 0 -6 -6 -5 -9
-20 -16 2 0 -6 -6 -5 -9
-19 -17 3 -2 -7 -5 -5 -10
-19 -16 3 -2 -7 -5 -5 -10
-18 -15 3 -2 -7 -6 -5 -10
-17 -14 3 -2 -7 -7 -5 -10
-17 -13 3 -2 -7 -7 -5 -10
-16 -12 3 -2 -7 -8 -6 -11
-16 -13 3 -2 -7 -8 -6 -11
-16 -14 3 -3 -7 -8 -6 -12
-17 -15 3 -4 -8 -9 -7 -13
-17 -16 3 -4 -8 -9 -7 -13
-18 -17 2 -5 -9 -10 -8 -14
-18 -17 2 -5 -9 -10 -8 -14
-18 -17 2 -5 -9 -10 -8 -14
-19 -16 3 -5 -9 -10 -8 -14
-19 -16 3 -5 -9 -10 -8 -14
-20 -15 4 -4 -8 -9 -9 -13
-20 -15 4 -4 -8 -9 -9 -13
-20 -16 4 -4 -8 -9 -9 -13
-20 -17 3 -5 -9 -9 -9 -13
-20 -17 3 -5 -9 -9 -9 -13
-20 -18 2 -6 -10 -10 -8 -13
-20 -18 2 -6 -10 -10 -8 -13
-20 -18 2 -6 -10 -10 -8 -13
-21 -18 3 -5 -10 -10 -8 -13
-21 -18 3 -5 -10 -10 -8 -13
-22 -17 4 -4 -9 -10 -9 -12
-21 -15 4 -4 -9 -10 -9 -12
-20 -14 4 -4 -9 -9 -9 -12
-19 -12 4 -4 -9 -8 -9 -11
-18 -10 4 -4 -9 -8 -9 -11
-17 -9 3 -5 -8 -7 -9 -10
-17 -10 3 -5 -8 -7 -9 -10
-17 -11 3 -4 -8 -7 -9 -10
-17 -12 4 -3 -8 -7 -9 -10
-17 -13 4 -3 -8 -7 -9 -10
-18 -14 5 -2 -7 -7 -8 -11
-18 -14 4 -3 -8 -8 -9 -11
-18 -15 3 -3 -8 -9 -10 -12
-18 -16 2 -4 -9 -10 -12 -13
-18 -16 1 -5 -10 -11 -13 -13
-17 -17 0 -6 -11 -12 -14 -14
-17 -17 0 -6 -11 -12 -14 -14
-17 -16 0 -6 -11 -12 -14 -14
-18 -15 0 -6 -12 -13 -14 -15
-18 -15 0 -6 -12 -13 -14 -15
-19 -14 1 -7 -13 -14 -15 -16
-19 -14 2 -6 -12 -13 -13 -14
-19 -14 2 -6 -11 -12 -12 -13
-18 -14 3 -5 -10 -10 -11 -12
-18 -14 4 -4 -9 -9 -9 -10
-17 -13 5 -3 -8 -8 -8 -9
-17 -13 5 -3 -8 -9 -9 -10
-17 -14 5 -3 -8 -9 -10 -11
-17 -15 4 -3 -8 -10 -11 -12
-17 -15 4 -3 -8 -11 -12 -13
-16 -16 3 -4 -9 -12 -13 -14
-13 -14 4 -3 -9 -11 -13 -14
-11 -12 5 -3 -8 -10 -13 -13
-8 -10 6 -2 -7 -8 -12 -12
-5 -9 7 0 -7 -7 -12 -12
-3 -7 8 1 -6 -6 -11 -11
-3 -7 9 3 -5 -6 -11 -11
-3 -7 10 4 -4 -6 -11 -10
-3 -7 11 6 -3 -5 -10 -9
-3 -7 12 8 -2 -5 -10 -9
-4 -8 13 9 0 -4 -9 -8
-4 -6 13 10 1 -4 -9 -7
-4 -4 13 10 2 -3 -8 -7
-4 -2 13 11 4 -2 -7 -6
-4 1 13 12 5 -2 -7 -5
-3 3 14 13 6 0 -6 -4
-4 3 12 11 5 0 -6 -4
-5 3 11 10 5 0 -6 -4
-7 3 10 9 4 0 -6 -5
-8 3 8 7 3 0 -6 -5
-9 2 7 6 2 0 -6 -6
-8 0 6 4 0 -3 -7 -6
-7 -3 4 2 -3 -4 -8 -7
-5 -5 3 0 -5 -6 -9 -8
-4 -6 1 -3 -6 -8 -10 -8
-3 -8 0 -5 -8 -9 -11 -9
-3 -7 0 -5 -8 -9 -11 -9
-3 -6 0 -5 -8 -9 -11 -9
-2 -4 1 -4 -8 -9 -11 -9
-2 -3 1 -4 -8 -9 -11 -9
0 -3 2 -3 -8 -8 -12 -10
-3 -5 2 -3 -8 -8 -12 -10
-5 -7 2 -3 -8 -9 -12 -10
-7 -10 2 -3 -9 -10 -12 -10
-8 -12 2 -3 -9 -10 -12 -10
-11 -14 1 -4 -10 -11 -13 -11
-13 -16 1 -4 -10 -12 -14 -12
-16 -17 1 -4 -10 -13 -15 -13
-18 -19 2 -4 -11 -14 -16 -14
-21 -21 2 -4 -11 -15 -17 -15
-23 -22 3 -5 -12 -16 -18 -16
-23 -22 3 -5 -12 -16 -18 -16
-23 -22 2 -6 -13 -16 -19 -17
-23 -22 1 -7 -14 -16 -20 -18
-23 -22 1 -7 -14 -16 -20 -18
-22 -21 0 -8 -15 -17 -21 -19
-23 -22 0 -8 -15 -17 -22 -19
-24 -22 0 -8 -15 -17 -23 -19
-26 -23 0 -8 -15 -18 -24 -20
-27 -24 0 -8 -15 -18 -25 -20
-28 -25 0 -7 -16 -19 -26 -21
-28 -25 0 -7 -16 -19 -26 -21
-28 -25 0 -7 -16 -19 -26 -21
-28 -25 0 -7 -16 -19 -26 -21
-28 -25 0 -7 -16 -19 -26 -21
-27 -26 -2 -8 -16 -19 -27 -21
-28 -26 2 -5 -14 -19 -27 -21
-28 -26 4 -3 -13 -19 -27 -21
-29 -26 6 1 -11 -18 -27 -21
-30 -26 8 3 -9 -18 -27 -21
-31 -25 13 9 -5 -15 -26 -20
-31 -26 21 22 6 -10 -26 -22
-30 -26 29 34 16 -4 -26 -24
-29 -27 37 48 26 2 -26 -26
-29 -28 46 60 36 8 -26 -28
-21 -23 52 72 50 17 -22 -27
-2 -8 56 86 66 32 -11 -19
19 9 61 98 84 47 1 -10
38 25 65 111 100 61 12 -2
59 42 69 123 116 76 24 7
79 61 70 131 129 91 38 21
102 85 63 127 132 104 59 43
123 109 57 121 135 117 80 65
146 134 50 117 138 131 101 88
169 158 44 113 141 144 121 109
182 180 34 102 140 154 141 133
178 196 24 77 132 158 157 156
174 214 13 54 122 162 174 181
171 231 2 30 113 167 190 204
167 247 -10 7 105 171 206 229
150 246 -19 -16 88 161 204 233
115 213 -26 -35 55 126 173 202
79 180 -33 -55 22 91 140 172
45 146 -40 -74 -10 56 107 141
9 112 -48 -94 -43 21 74 109
-16 85 -53 -106 -63 -5 49 84
-23 66 -52 -104 -66 -14 34 66
-29 47 -51 -101 -68 -23 19 50
-36 28 -49 -98 -71 -33 5 32
-43 10 -48 -95 -73 -43 -10 15
-47 -3 -45 -89 -72 -48 -20 3
-43 -5 -37 -75 -63 -45 -22 -3
-38 -7 -30 -62 -55 -40 -24 -7
-35 -9 -24 -49 -46 -36 -26 -11
-31 -11 -17 -36 -36 -33 -28 -16
-28 -13 -12 -26 -30 -30 -30 -19
-28 -16 -9 -22 -27 -28 -30 -19
-28 -19 -7 -19 -24 -27 -30 -20
-28 -21 -5 -15 -22 -25 -31 -21
-28 -24 -3 -11 -19 -24 -31 -21
-29 -26 0 -8 -17 -22 -32 -22
-26 -24 0 -8 -17 -22 -32 -22
-24 -21 0 -8 -17 -22 -31 -21
-21 -19 0 -8 -17 -22 -30 -20
-19 -17 0 -8 -17 -22 -30 -20
-17 -16 0 -9 -17 -21 -29 -19
-19 -19 0 -9 -17 -22 -31 -21
-22 -22 0 -9 -18 -23 -33 -23
-24 -25 0 -8 -19 -25 -35 -25
-26 -28 0 -8 -19 -26 -36 -26
-28 -31 1 -7 -20 -27 -38 -28
-27 -31 1 -8 -20 -26 -38 -27
-26 -31 1 -9 -19 -26 -37 -26
-25 -30 2 -10 -18 -25 -36 -24
-24 -30 2 -11 -18 -24 -36 -23
-23 -29 3 -12 -17 -23 -35 -22
-23 -28 3 -11 -17 -23 -35 -22
-23 -27 3 -10 -17 -23 -35 -22
-23 -26 3 -9 -17 -24 -35 -23
-23 -25 3 -8 -17 -24 -35 -23
-23 -24 2 -7 -17 -25 -36 -24
-22 -24 2 -7 -17 -25 -36 -24
-22 -24 2 -8 -17 -25 -36 -24
-21 -24 1 -9 -17 -25 -36 -24
-20 -24 1 -9 -17 -25 -36 -24
-19 -23 0 -10 -17 -25 -35 -24
-20 -24 0 -10 -17 -26 -35 -24
-20 -25 0 -10 -18 -26 -36 -25
-21 -26 0 -10 -19 -27 -37 -26
-22 -27 0 -10 -19 -28 -37 -26
-23 -27 -2 -9 -20 -29 -38 -27
-20 -24 -2 -9 -20 -29 -38 -26
-18 -21 -2 -9 -20 -29 -38 -24
-15 -17 -2 -9 -20 -28 -38 -23
-13 -14 -2 -9 -20 -28 -38 -21
-11 -11 -2 -8 -19 -27 -37 -20
-12 -13 -2 -8 -19 -26 -37 -20
-13 -16 -2 -8 -19 -26 -36 -20
-14 -18 0 -7 -18 -25 -36 -20
-16 -20 0 -7 -18 -24 -35 -20
-17 -22 1 -6 -17 -23 -34 -21
-15 -19 1 -6 -17 -23 -34 -21
-14 -17 1 -6 -17 -23 -34 -21
-12 -15 0 -7 -17 -23 -33 -20
-11 -12 0 -7 -17 -23 -33 -20
-9 -10 -2 -8 -16 -22 -32 -19
-9 -11 -3 -8 -16 -22 -32 -19
-9 -12 -3 -8 -16 -22 -32 -19
-9 -13 -4 -8 -16 -22 -33 -20
-9 -14 -5 -8 -16 -22 -33 -20
-9 -15 -6 -7 -16 -22 -34 -21
-9 -14 -6 -7 -15 -21 -33 -19
-8 -13 -6 -7 -14 -20 -31 -17
-8 -12 -5 -7 -13 -19 -30 -16
-7 -11 -5 -7 -12 -17 -28 -14
-6 -10 -4 -7 -11 -16 -27 -12
-4 -10 -4 -7 -11 -15 -27 -12
0 -10 -4 -7 -10 -15 -27 -11
2 -10 -4 -6 -10 -14 -26 -11
4 -10 -4 -6 -9 -13 -26 -10
6 -9 -5 -5 -8 -12 -25 -9
8 -7 -5 -6 -8 -12 -24 -8
10 -5 -6 -6 -8 -12 -24 -8
12 -3 -6 -7 -9 -12 -23 -7
14 0 -7 -8 -9 -12 -22 -6
16 2 -8 -9 -10 -11 -21 -5
17 2 -9 -9 -10 -11 -21 -5
19 2 -10 -9 -10 -11 -21 -5
20 2 -11 -9 -10 -11 -21 -6
22 2 -12 -9 -10 -11 -21 -6
23 1 -13 -9 -10 -11 -22 -7
26 4 -14 -10 -10 -10 -20 -6
29 7 -15 -11 -10 -8 -18 -4
32 10 -16 -12 -10 -7 -16 -3
35 13 -18 -14 -10 -5 -14 0
38 15 -19 -15 -9 -4 -12 1
42 16 -20 -15 -9 -5 -13 1
45 17 -21 -15 -10 -6 -14 0
48 18 -22 -15 -10 -7 -15 0
51 19 -23 -15 -11 -8 -17 -2
53 20 -24 -16 -12 -9 -18 -3
54 21 -24 -16 -12 -9 -17 0
55 22 -24 -16 -12 -8 -15 2
56 23 -24 -17 -11 -8 -14 4
58 25 -24 -17 -11 -7 -12 6
59 26 -25 -18 -10 -6 -11 8
62 26 -26 -18 -10 -6 -11 8
64 26 -26 -18 -10 -6 -11 8
67 26 -27 -18 -11 -7 -11 7
70 26 -28 -18 -11 -7 -11 7
72 27 -29 -19 -12 -8 -12 6
68 28 -29 -19 -12 -8 -12 7
65 28 -29 -19 -12 -8 -11 8
61 29 -28 -19 -12 -7 -11 9
58 30 -28 -19 -12 -7 -10 10
55 31 -27 -19 -13 -6 -9 11
55 30 -26 -17 -12 -6 -9 11
55 28 -25 -15 -11 -6 -10 11
55 27 -24 -13 -10 -6 -10 10
55 26 -23 -11 -8 -6 -11 10
56 24 -22 -9 -7 -5 -12 9
55 24 -22 -9 -7 -5 -12 8
54 24 -21 -9 -7 -5 -12 8
53 25 -21 -8 -7 -6 -13 7
51 25 -20 -8 -7 -6 -13 6
50 26 -19 -7 -7 -7 -14 5
46 24 -17 -5 -6 -7 -15 4
43 23 -15 -2 -5 -6 -15 4
39 21 -13 1 -4 -6 -16 3
36 20 -11 3 -2 -5 -17 2
32 18 -9 5 0 -4 -18 1
28 16 -8 5 1 -4 -18 1
24 15 -7 6 1 -4 -18 1
19 13 -6 6 2 -3 -18 0
15 12 -4 7 3 -3 -18 0
11 10 -3 8 4 -2 -18 -2
10 10 -2 10 4 -2 -18 -3
10 10 -2 12 5 -2 -18 -4
9 9 0 13 5 -2 -18 -5
8 9 1 15 6 -2 -18 -6
7 8 2 17 7 0 -19 -7
6 8 2 16 7 0 -19 -7
6 7 2 16 7 0 -19 -7
5 7 2 15 6 -2 -20 -7
4 6 2 14 6 -2 -20 -7
3 5 2 13 5 -3 -21 -7
3 4 2 13 5 -3 -21 -8
3 3 2 13 4 -4 -22 -8
2 2 2 13 4 -4 -22 -9
2 1 2 13 3 -5 -23 -10
1 0 1 12 2 -6 -24 -11
0 1 1 12 2 -6 -24 -11
0 2 1 12 2 -6 -24 -11
-2 3 1 12 2 -6 -24 -11
-3 5 1 12 2 -6 -24 -11
-4 6 2 13 3 -5 -25 -10
-4 6 2 13 3 -5 -25 -10
-4 5 2 13 3 -5 -25 -10
-3 5 2 13 3 -5 -25 -10
-3 4 2 13 3 -5 -25 -10
-2 3 3 14 3 -5 -25 -9
-2 3 3 14 3 -5 -25 -9
-2 3 3 13 3 -5 -25 -9
-2 3 2 13 3 -5 -25 -10
-2 3 2 12 3 -5 -25 -10
0 3 1 11 3 -5 -24 -11
0 2 1 11 3 -5 -24 -11
-2 1 1 11 2 -6 -25 -12
-2 0 1 11 2 -7 -25 -13
-3 -3 1 11 1 -8 -26 -14
-4 -4 2 12 0 -9 -27 -15
-4 -4 2 12 0 -9 -27 -15
-4 -3 2 12 0 -9 -27 -15
-4 -2 1 11 0 -9 -27 -14
-4 0 1 11 0 -9 -27 -14
-3 1 0 10 1 -9 -28 -13
-3 1 0 10 1 -9 -28 -13
-3 1 0 10 1 -9 -28 -13
-3 1 1 10 1 -9 -28 -14
-3 1 1 10 1 -9 -28 -14
-2 0 2 10 0 -9 -28 -15
-3 0 2 10 0 -9 -28 -15
-4 0 2 10 0 -9 -28 -15
-5 0 2 10 1 -9 -28 -15
-6 0 2 10 1 -9 -28 -15
-7 -2 1 11 2 -8 -29 -14
-6 0 2 12 2 -8 -29 -14
-4 2 3 13 2 -7 -28 -13
-3 4 4 14 3 -6 -28 -12
-2 5 5 15 3 -5 -27 -11
1 7 6 16 4 -4 -26 -10
1 7 6 16 4 -4 -26 -10
1 8 6 16 4 -4 -26 -10
0 8 6 17 4 -4 -25 -9
0 9 6 17 4 -4 -25 -9
-2 10 6 18 5 -4 -24 -8
-2 9 6 18 5 -4 -24 -8
0 8 6 18 5 -5 -24 -9
0 7 6 18 5 -5 -24 -9
1 6 6 18 5 -6 -24 -10
2 5 5 18 4 -7 -25 -11
1 5 5 18 4 -7 -25 -11
-2 5 5 18 4 -7 -25 -11
-3 5 5 18 3 -7 -26 -12
-4 5 5 18 3 -7 -26 -12
-6 6 4 17 2 -7 -27 -13
-6 6 4 17 2 -7 -27 -13
-6 6 4 17 2 -7 -27 -14
-6 5 4 17 2 -7 -27 -14
-6 5 4 17 2 -7 -27 -15
-5 4 3 17 3 -8 -28 -16
-5 3 3 17 3 -8 -28 -16
-6 1 3 17 3 -8 -28 -16
-7 0 3 17 2 -9 -28 -16
-8 -2 3 17 2 -9 -28 -16
-9 -4 2 17 1 -10 -28 -17
-9 -4 2 17 1 -10 -28 -18
-9 -4 2 17 1 -11 -29 -19
-9 -4 2 17 1 -12 -30 -20
-9 -4 2 17 1 -13 -31 -21
-9 -3 1 17 0 -14 -32 -22
-9 -3 1 17 0 -14 -32 -22
-9 -3 1 17 0 -14 -31 -21
-10 -4 1 17 0 -13 -31 -21
-10 -4 1 17 0 -13 -30 -20
-11 -5 2 17 0 -12 -29 -19
-9 -5 2 17 0 -12 -29 -19
-7 -5 2 17 0 -12 -29 -19
-4 -5 2 17 0 -12 -29 -20
-2 -5 2 17 0 -12 -29 -20
1 -4 2 16 0 -12 -30 -21
-2 -4 2 16 0 -12 -30 -21
-3 -4 2 16 0 -12 -30 -20
-5 -4 2 16 0 -12 -30 -20
-7 -4 2 16 0 -12 -30 -19
-9 -4 3 16 -2 -12 -29 -18
-10 -5 3 16 -2 -12 -29 -18
-11 -6 3 15 -2 -13 -29 -18
-12 -7 2 14 -2 -13 -30 -19
-14 -8 2 13 -2 -14 -30 -19
-15 -9 1 12 -2 -15 -31 -20
-13 -8 1 12 -2 -15 -31 -20
-10 -6 2 12 -2 -15 -30 -19
-8 -4 2 13 -2 -14 -30 -18
-5 -3 3 13 -2 -14 -29 -17
-3 0 4 14 0 -13 -28 -16
-5 -3 4 14 0 -13 -28 -16
-8 -4 4 14 0 -13 -28 -16
-10 -6 4 14 0 -13 -29 -17
-13 -8 4 14 0 -13 -29 -17
-15 -10 5 15 0 -13 -30 -18
-15 -10 4 13 -2 -14 -30 -18
-15 -10 3 11 -3 -15 -30 -19
-15 -11 2 9 -4 -16 -30 -19
-15 -11 1 7 -6 -17 -30 -20
-14 -12 0 5 -7 -18 -31 -21
-14 -12 1 6 -7 -18 -31 -21
-13 -12 2 7 -6 -17 -30 -20
-12 -12 3 8 -5 -17 -30 -20
-11 -12 4 9 -4 -16 -29 -19
-10 -11 5 10 -3 -15 -28 -18
-10 -11 5 10 -3 -15 -28 -18
-10 -11 4 9 -3 -15 -28 -18
-10 -10 4 8 -3 -15 -28 -18
-10 -10 3 7 -3 -15 -28 -18
-10 -9 2 6 -4 -15 -27 -18
-10 -9 2 6 -4 -15 -27 -18
-10 -9 2 6 -4 -15 -26 -17
-10 -9 2 7 -4 -14 -26 -16
-10 -9 2 7 -4 -14 -25 -15
-10 -8 3 8 -3 -13 -24 -14
-10 -8 3 8 -3 -13 -24 -14
-11 -9 3 8 -3 -13 -24 -15
-11 -9 2 7 -3 -13 -25 -16
-12 -10 2 7 -3 -13 -25 -17
-13 -11 1 6 -4 -14 -26 -18
-13 -11 1 6 -4 -14 -26 -18
-13 -12 1 6 -4 -14 -26 -18
-14 -13 1 6 -4 -14 -26 -18
-14 -14 1 6 -4 -14 -26 -18
-15 -15 2 6 -3 -15 -27 -18
-16 -15 2 6 -3 -15 -27 -18
-17 -15 3 6 -3 -15 -26 -18
-18 -15 3 6 -3 -15 -26 -17
-19 -15 4 6 -3 -15 -25 -17
-20 -16 5 7 -4 -14 -24 -16
-20 -16 5 7 -4 -14 -24 -16
-19 -17 4 6 -4 -14 -24 -16
-19 -17 3 6 -5 -15 -24 -17
-18 -18 2 5 -5 -15 -24 -17
-17 -19 1 4 -6 -16 -24 -18
-17 -19 1 5 -6 -16 -24 -18
-17 -19 2 6 -6 -15 -23 -17
-18 -18 2 7 -6 -14 -23 -17
-18 -18 3 8 -6 -13 -22 -16
-19 -17 4 9 -5 -12 -21 -15
-19 -17 4 9 -5 -12 -21 -15
-19 -17 4 8 -5 -13 -22 -15
-19 -17 3 8 -5 -13 -22 -16
-19 -17 3 7 -5 -14 -23 -16
-19 -17 2 6 -6 -15 -24 -17
-19 -17 2 6 -6 -15 -23 -17
-18 -16 2 6 -6 -14 -22 -16
-18 -15 3 6 -5 -13 -21 -16
-17 -14 3 6 -5 -12 -20 -15
-16 -13 4 6 -4 -11 -18 -14
-16 -14 4 6 -4 -11 -18 -14
-16 -16 4 6 -4 -12 -19 -15
-16 -18 3 5 -5 -13 -20 -16
-16 -19 3 5 -5 -14 -21 -17
-16 -21 2 4 -6 -15 -22 -18
-16 -19 2 4 -6 -14 -21 -17
-16 -17 3 4 -5 -13 -20 -16
-16 -15 4 5 -5 -12 -19 -14
-16 -12 5 5 -4 -11 -18 -13
-15 -10 6 6 -3 -10 -16 -11
-13 -9 7 8 -2 -9 -16 -10
-10 -8 9 9 1 -8 -15 -9
-8 -6 10 11 2 -7 -14 -8
-6 -5 12 13 4 -6 -13 -7
-3 -3 14 15 6 -5 -12 -6
-3 -3 14 15 6 -4 -11 -6
-3 -2 14 16 7 -2 -10 -5
-3 -2 14 17 8 0 -9 -4
-3 0 14 18 9 2 -8 -3
-3 1 15 19 10 4 -6 -2
-3 1 15 19 10 4 -6 -2
-3 1 15 19 10 4 -6 -2
-3 1 14 19 10 4 -5 -2
-3 1 14 19 10 4 -5 -2
-2 2 13 18 11 3 -4 -2
-2 2 11 15 9 2 -4 -2
-3 1 9 12 6 1 -5 -2
-4 1 7 9 3 -2 -6 -3
-5 0 4 5 1 -3 -7 -3
-6 -2 2 2 -3 -5 -8 -4
-6 -2 2 3 -3 -5 -8 -4
-5 -2 2 4 -3 -5 -8 -4
-4 -2 2 5 -3 -5 -8 -4
-3 -2 2 6 -3 -5 -8 -4
-2 -3 2 7 -3 -5 -8 -4
-3 -4 2 6 -3 -5 -8 -4
-5 -5 2 5 -4 -5 -8 -4
-6 -6 2 4 -5 -6 -8 -5
-8 -7 2 3 -6 -6 -8 -5
-10 -8 3 2 -7 -7 -7 -6
-12 -9 3 2 -7 -7 -8 -6
-15 -11 3 2 -7 -8 -9 -7
-17 -13 3 2 -7 -8 -10 -7
-19 -15 3 2 -7 -9 -11 -8
-22 -17 3 1 -8 -10 -12 -9
-22 -18 3 1 -8 -10 -12 -9
-22 -19 3 1 -8 -10 -12 -9
-21 -20 3 1 -8 -11 -12 -9
-21 -21 3 1 -8 -11 -12 -9
-20 -22 4 1 -7 -12 -11 -10
-20 -22 4 1 -7 -12 -11 -10
-20 -21 5 1 -7 -12 -11 -10
-20 -20 5 2 -7 -12 -11 -10
-20 -19 6 2 -7 -12 -11 -10
-20 -18 7 3 -8 -12 -11 -10
-21 -18 6 3 -9 -12 -11 -10
-23 -18 5 2 -10 -13 -12 -11
-24 -18 4 1 -11 -13 -12 -12
-26 -18 3 0 -12 -14 -13 -13
-28 -19 2 -2 -14 -15 -14 -14
-27 -19 2 -2 -14 -15 -14 -14
-26 -19 3 -2 -13 -15 -14 -14
-25 -19 3 0 -12 -15 -14 -14
-24 -19 4 0 -11 -15 -14 -14
-23 -18 5 1 -10 -14 -13 -14
-26 -20 9 7 -7 -13 -13 -15
-29 -22 14 13 -3 -12 -14 -16
-32 -24 19 20 2 -11 -14 -18
-36 -26 23 26 5 -10 -15 -19
-39 -29 28 33 10 -7 -16 -21
-29 -20 38 51 27 7 -9 -18
-19 -10 48 69 46 20 -2 -14
-9 0 57 88 63 34 5 -11
1 9 67 105 80 48 12 -8
12 19 76 122 98 61 20 -3
37 34 73 125 107 74 34 12
63 51 70 127 115 88 50 26
89 67 67 129 125 101 65 42
113 84 63 131 134 114 80 56
138 101 60 134 142 129 96 72
149 132 52 119 143 144 123 102
160 162 43 106 144 159 151 133
172 193 34 93 146 175 179 162
182 224 25 79 147 190 205 193
192 254 17 65 148 204 232 222
161 244 7 38 117 178 224 218
132 236 -4 11 87 152 215 215
102 227 -14 -16 57 126 206 211
72 219 -23 -43 26 99 197 206
43 207 -33 -68 -3 73 188 201
24 172 -34 -73 -17 54 155 171
6 136 -36 -79 -31 34 123 141
-13 100 -37 -86 -46 14 92 110
-31 64 -39 -91 -60 -6 60 79
-49 29 -41 -97 -73 -25 29 51
-49 17 -38 -89 -71 -28 21 39
-49 6 -35 -79 -69 -31 13 28
-49 -6 -31 -71 -67 -35 4 17
-49 -18 -28 -62 -65 -38 -5 7
-49 -29 -24 -54 -62 -43 -13 -5
-41 -26 -19 -45 -54 -38 -13 -6
-34 -23 -15 -35 -46 -33 -13 -7
-27 -19 -10 -26 -36 -28 -12 -8
-20 -16 -5 -17 -28 -24 -12 -9
-13 -12 1 -8 -20 -19 -11 -11
-15 -12 1 -8 -20 -19 -11 -11
-18 -13 1 -8 -20 -19 -11 -12
-20 -14 1 -8 -20 -19 -11 -13
-23 -15 1 -8 -20 -19 -11 -14
-26 -16 0 -7 -21 -20 -12 -15
-26 -17 0 -6 -21 -20 -12 -15
-26 -19 1 -5 -21 -20 -12 -15
-27 -20 1 -4 -20 -19 -12 -15
-27 -22 2 -3 -20 -19 -12 -15
-28 -24 3 -2 -19 -18 -11 -15
-27 -24 3 -2 -19 -18 -12 -15
-26 -23 3 -3 -19 -19 -13 -16
-24 -23 2 -3 -19 -19 -14 -17
-23 -22 2 -4 -19 -20 -15 -18
-21 -21 1 -5 -20 -21 -16 -19
-21 -21 1 -5 -20 -21 -15 -19
-20 -21 2 -4 -20 -21 -13 -18
-20 -21 2 -3 -20 -20 -12 -17
-19 -21 3 -2 -20 -20 -10 -16
-18 -20 4 0 -19 -19 -8 -15
-18 -20 4 0 -19 -19 -9 -15
-18 -20 4 0 -19 -19 -10 -15
-18 -20 4 0 -19 -19 -11 -16
-18 -20 4 0 -19 -19 -12 -16
-17 -20 4 -2 -18 -20 -13 -17
-18 -20 4 -2 -19 -20 -13 -17
-19 -20 3 -3 -20 -20 -13 -17
-21 -20 3 -4 -21 -21 -13 -17
-22 -20 2 -5 -22 -21 -13 -17
-24 -20 1 -6 -23 -22 -12 -17
-23 -20 1 -6 -23 -22 -12 -17
-22 -20 1 -6 -22 -22 -12 -17
-21 -20 1 -6 -21 -21 -12 -16
-20 -20 1 -6 -20 -21 -12 -16
-19 -21 1 -5 -19 -20 -12 -15
-19 -21 1 -5 -19 -20 -12 -14
-19 -20 1 -5 -19 -20 -11 -13
-18 -20 1 -5 -19 -19 -11 -12
-18 -19 1 -5 -19 -19 -10 -11
-17 -18 1 -5 -20 -18 -9 -10
-17 -18 1 -5 -20 -18 -9 -10
-17 -18 1 -5 -19 -18 -8 -10
-17 -18 1 -5 -19 -17 -8 -10
-17 -18 1 -5 -18 -17 -7 -10
-16 -18 1 -6 -17 -16 -6 -9
-16 -17 1 -6 -17 -16 -6 -9
-15 -16 1 -6 -17 -16 -6 -9
-14 -15 0 -6 -17 -16 -6 -9
-13 -14 0 -6 -17 -16 -6 -9
-12 -13 -2 -6 -18 -17 -7 -9
-11 -12 -2 -6 -18 -17 -7 -9
-9 -11 -2 -6 -18 -16 -7 -9
-8 -10 -2 -6 -18 -15 -6 -8
-6 -9 -2 -6 -18 -14 -6 -8
-4 -7 -2 -6 -17 -13 -5 -7
-4 -7 -2 -6 -17 -12 -4 -6
-4 -7 -2 -6 -17 -11 -3 -5
-4 -7 -3 -6 -17 -10 -2 -3
-4 -7 -3 -6 -17 -9 0 -2
-3 -7 -4 -6 -16 -8 2 1
-2 -7 -4 -6 -16 -8 2 2
0 -6 -4 -7 -16 -8 3 3
2 -5 -5 -7 -16 -8 3 3
3 -4 -5 -8 -16 -8 4 4
4 -4 -5 -8 -16 -8 4 5
6 -3 -6 -9 -15 -7 5 6
8 -2 -7 -9 -15 -7 5 6
10 0 -8 -10 -16 -7 5 6
12 1 -9 -10 -16 -7 5 6
14 1 -9 -10 -16 -7 5 6
16 2 -10 -11 -17 -7 8 8
17 3 -10 -11 -16 -6 10 10
18 4 -11 -11 -16 -5 12 12
19 5 -11 -11 -15 -4 14 14
20 5 -11 -11 -15 -3 16 15
25 7 -12 -12 -14 -2 17 16
29 9 -13 -13 -14 0 17 16
33 11 -14 -14 -15 0 17 16
37 13 -15 -15 -15 1 17 16
42 14 -16 -16 -15 1 17 16
44 15 -18 -18 -16 2 16 15
46 16 -20 -19 -16 2 16 15
47 17 -21 -20 -16 1 16 16
49 18 -23 -21 -16 1 16 16
50 19 -24 -22 -16 1 16 16
51 20 -25 -23 -17 0 17 18
51 20 -25 -23 -18 0 18 19
51 21 -26 -23 -19 0 19 20
51 21 -26 -23 -20 0 20 21
51 21 -26 -23 -21 0 20 22
53 23 -27 -24 -22 -2 21 23
55 24 -26 -23 -22 0 21 24
57 26 -26 -22 -21 0 21 25
59 27 -25 -21 -21 1 21 26
61 28 -25 -21 -21 1 21 26
61 29 -24 -20 -20 2 22 27
60 28 -24 -20 -20 2 22 27
58 27 -24 -20 -20 2 22 26
57 26 -24 -20 -20 2 22 26
56 26 -24 -20 -20 2 22 26
52 25 -22 -19 -19 2 22 25
49 25 -20 -17 -18 3 22 24
46 24 -19 -15 -17 3 22 23
43 24 -17 -13 -16 4 22 22
39 24 -16 -12 -15 4 22 22
35 21 -15 -11 -14 5 22 20
31 18 -15 -11 -14 5 21 18
27 15 -15 -10 -14 4 20 16
23 12 -15 -10 -14 4 19 14
19 10 -15 -10 -14 4 18 12
18 9 -12 -7 -12 3 17 11
18 10 -9 -5 -10 4 17 12
19 11 -7 -3 -9 5 17 13
19 12 -4 0 -7 6 17 14
19 13 -2 2 -6 7 17 14
16 13 0 3 -5 8 16 15
12 12 1 4 -5 8 15 14
8 10 2 5 -5 7 14 13
4 9 3 6 -5 7 13 12
0 8 3 6 -5 7 12 11
-3 7 4 7 -5 6 11 10
-4 6 4 7 -4 7 11 10
-6 5 4 7 -3 7 11 10
-7 4 4 7 -2 8 11 10
-8 3 4 7 0 8 11 10
-9 2 5 7 1 9 12 9
-10 2 5 7 0 8 11 8
-11 2 5 6 -2 7 11 7
-12 2 5 6 -3 6 10 6
-12 2 5 6 -4 6 10 5
-13 2 6 5 -5 5 9 4
-12 2 6 5 -4 6 9 4
-11 1 5 5 -4 6 9 4
-10 1 5 5 -3 7 9 4
-10 1 5 5 -3 7 9 4
-10 0 4 5 -2 8 10 5
-11 -2 4 5 -3 7 9 5
-13 -3 5 4 -3 6 9 5
-14 -4 5 4 -4 5 8 5
-15 -5 5 4 -4 5 8 5
-14 -5 6 3 -5 4 7 4
-11 -3 5 3 -5 4 7 4
-8 0 5 3 -5 5 7 4
-5 2 4 3 -5 5 7 4
-3 4 4 3 -5 5 7 4
-4 4 3 2 -5 6 8 3
-7 3 3 2 -5 6 8 4
-10 1 4 2 -4 6 8 4
-13 0 4 2 -4 6 8 5
-15 -2 4 2 -4 6 8 5
-15 -3 5 1 -3 6 7 6
-14 -3 5 1 -3 6 7 6
-13 -2 5 1 -2 7 7 5
-12 -2 5 1 -2 7 7 5
-11 -2 5 1 -2 7 7 5
-11 0 6 2 0 8 8 4
-12 -2 5 2 0 7 7 3
-14 -2 4 1 -2 7 6 2
-15 -3 3 1 -2 6 5 1
-16 -3 3 1 -2 6 5 1
-17 -4 2 0 -3 5 4 0
-16 -4 2 1 -2 6 5 0
-15 -4 3 2 0 7 6 0
-14 -4 3 3 1 8 7 0
-14 -4 3 3 2 8 7 0
-13 -4 4 4 3 9 8 0
-13 -3 4 4 2 8 7 0
-12 -2 4 4 2 8 7 0
-12 0 4 4 1 7 6 0
-12 0 4 4 1 7 6 0
-11 1 4 3 0 6 5 0
-10 1 3 2 -2 6 5 0
-9 1 2 0 -3 6 5 -2
-8 1 1 -2 -4 6 5 -2
-8 1 0 -3 -4 6 5 -2
-7 0 -2 -4 -4 5 5 -3
-7 1 0 -3 -3 5 5 -3
-7 1 1 -2 -2 5 5 -2
-7 2 2 0 0 5 5 -2
-7 2 3 1 1 5 5 -2
-7 3 4 2 2 5 6 0
-8 4 4 3 2 6 6 1
-8 4 5 3 3 7 6 1
-9 5 5 4 3 8 6 2
-9 5 5 4 3 8 6 2
-10 6 6 5 4 9 6 3
-10 5 6 4 3 8 6 2
-9 4 5 4 3 8 6 1
-9 3 5 3 2 7 6 0
-9 3 5 3 2 7 6 0
-7 3 4 2 1 6 5 -2
-5 4 3 2 1 6 5 -3
-3 6 3 2 1 5 4 -4
0 7 2 2 1 5 4 -5
1 8 2 2 1 5 4 -5
1 9 1 2 0 4 3 -6
-2 8 1 2 0 4 2 -6
-4 8 1 3 -2 4 2 -7
-6 7 1 3 -2 4 1 -7
-8 7 1 3 -2 4 1 -7
-9 5 1 4 -3 3 0 -8
-8 4 1 4 -3 3 0 -8
-7 3 2 3 -2 3 0 -7
-6 2 2 3 -2 3 0 -7
-6 1 2 3 -2 3 0 -7
-5 0 3 2 0 3 1 -6
-6 -2 3 2 0 3 1 -6
-6 -3 3 2 0 2 1 -6
-7 -4 3 2 0 2 1 -6
-7 -5 3 2 0 2 1 -6
-8 -6 2 3 0 1 2 -5
-9 -5 2 3 0 1 2 -5
-9 -4 2 3 0 1 2 -5
-10 -3 2 3 0 1 2 -5
-10 -2 2 3 0 1 2 -5
-11 0 1 2 -2 2 1 -5
-11 0 1 2 -3 1 0 -6
-11 0 1 1 -3 1 -2 -7
-11 0 1 1 -4 0 -3 -8
-11 0 1 1 -4 0 -4 -9
-9 1 0 0 -5 -2 -5 -10
-8 1 0 -2 -6 -3 -6 -11
-6 1 0 -3 -7 -4 -6 -11
-5 1 0 -4 -8 -5 -7 -12
-4 1 0 -5 -8 -5 -7 -12
-4 -2 -2 -6 -9 -6 -8 -13
-5 -3 -2 -6 -9 -6 -8 -13
-7 -4 -2 -5 -8 -6 -7 -13
-8 -5 -2 -5 -8 -6 -7 -13
-9 -6 -2 -5 -8 -6 -7 -13
-10 -7 -2 -4 -7 -5 -6 -12
-10 -7 0 -3 -6 -5 -6 -11
-9 -8 0 -3 -5 -4 -5 -10
-9 -8 1 -2 -4 -4 -5 -9
-9 -8 1 -2 -4 -4 -5 -8
-8 -9 2 0 -3 -3 -4 -7
-9 -8 1 -2 -4 -4 -5 -8
-9 -8 1 -2 -4 -5 -6 -9
-10 -7 0 -3 -5 -6 -7 -10
-10 -7 0 -3 -5 -6 -8 -11
-11 -6 -2 -4 -6 -7 -9 -12
-10 -7 0 -3 -6 -7 -8 -12
-10 -7 1 -3 -6 -7 -8 -12
-9 -8 2 -2 -6 -7 -7 -12
-9 -8 2 -2 -6 -7 -7 -12
-8 -9 3 0 -6 -6 -6 -12
-8 -8 3 0 -6 -7 -6 -12
-9 -8 2 0 -6 -7 -7 -12
-9 -7 2 0 -6 -8 -7 -12
-9 -7 2 0 -6 -8 -7 -12
-11 -7 1 1 -5 -9 -8 -12
-12 -8 1 1 -5 -8 -7 -12
-13 -9 1 1 -5 -7 -6 -11
-14 -11 1 1 -5 -6 -5 -11
-15 -12 1 1 -5 -6 -5 -11
-16 -13 2 0 -4 -5 -5 -11
-16 -13 1 -2 -5 -6 -6 -12
-16 -12 1 -3 -6 -7 -7 -13
-16 -12 0 -4 -7 -8 -8 -14
-16 -12 0 -4 -8 -9 -9 -15
-15 -11 -2 -5 -9 -10 -10 -16
-15 -11 0 -4 -8 -9 -9 -15
-15 -11 0 -4 -7 -8 -8 -15
-15 -11 1 -3 -6 -7 -7 -14
-15 -11 1 -3 -5 -6 -6 -14
-14 -9 2 -2 -4 -5 -5 -13
-13 -8 1 -3 -5 -6 -6 -13
-12 -6 1 -3 -5 -7 -7 -13
-11 -4 0 -4 -6 -8 -8 -13
-11 -3 0 -4 -6 -8 -9 -13
-10 -2 -2 -5 -7 -9 -10 -14
-10 -2 -2 -5 -7 -8 -10 -14
-10 -2 0 -5 -6 -8 -10 -15
-10 -2 0 -5 -6 -7 -10 -15
-10 -2 0 -5 -6 -7 -10 -15
-10 -4 1 -4 -5 -6 -11 -16
-11 -5 1 -4 -5 -7 -11 -16
-12 -7 0 -4 -6 -7 -11 -16
-13 -9 0 -4 -6 -8 -11 -16
-13 -10 0 -4 -6 -8 -11 -16
-14 -11 -2 -5 -7 -9 -10 -15
-14 -11 0 -4 -6 -9 -10 -15
-14 -10 1 -4 -5 -9 -9 -14
-14 -10 2 -3 -4 -9 -9 -14
-14 -10 3 -3 -4 -9 -9 -14
-13 -9 4 -2 -3 -8 -8 -13
-12 -8 4 -2 -3 -8 -8 -14
-12 -7 4 -2 -3 -8 -9 -14
-11 -6 4 -2 -3 -8 -9 -15
-11 -5 4 -2 -3 -8 -9 -15
-10 -4 4 -2 -4 -9 -10 -16
-9 -5 4 0 -4 -9 -10 -16
-9 -5 5 0 -4 -9 -10 -16
-8 -6 5 1 -4 -9 -10 -16
-8 -6 5 1 -4 -9 -10 -16
-6 -6 6 3 -2 -8 -11 -16
-5 -3 8 4 1 -6 -9 -15
-3 0 9 6 3 -5 -8 -14
0 3 10 8 4 -4 -7 -13
1 5 11 9 6 -3 -6 -13
2 6 12 10 7 -2 -5 -12
2 5 10 9 7 0 -4 -11
2 4 9 9 8 1 -4 -10
2 3 8 8 8 2 -3 -9
2 3 7 8 8 2 -3 -8
2 2 5 6 8 2 -3 -7
0 1 3 3 5 0 -4 -9
-2 0 1 1 3 -3 -5 -10
-3 -2 0 -3 0 -5 -7 -11
-4 -3 -3 -5 -3 -7 -8 -12
-5 -3 -4 -6 -4 -8 -9 -13
-4 -2 -4 -6 -4 -8 -9 -13
-3 1 -4 -6 -4 -8 -9 -13
-2 3 -4 -6 -4 -8 -9 -13
-2 4 -4 -6 -4 -8 -9 -13
0 5 -5 -7 -4 -8 -10 -13
-3 4 -5 -7 -4 -9 -10 -13
-4 3 -5 -7 -4 -10 -10 -14
-5 2 -5 -7 -4 -11 -10 -14
-6 2 -5 -7 -4 -11 -10 -14
-7 -2 -4 -8 -5 -12 -11 -15
-7 -4 -4 -8 -6 -13 -12 -16
-8 -7 -4 -8 -7 -13 -13 -17
-8 -9 -4 -8 -8 -14 -15 -18
-8 -12 -4 -8 -8 -14 -16 -19
-10 -13 -3 -9 -9 -15 -17 -20
-11 -13 -3 -9 -9 -15 -17 -20
-13 -13 -3 -9 -9 -15 -17 -21
-15 -13 -3 -9 -9 -15 -17 -21
-16 -13 -3 -9 -9 -15 -17 -21
-17 -14 -2 -9 -10 -16 -18 -22
-17 -15 -2 -9 -10 -17 -19 -22
-17 -16 -2 -9 -10 -18 -19 -23
-17 -17 -2 -9 -10 -19 -20 -23
-17 -18 -2 -9 -10 -19 -20 -23
-17 -19 -2 -9 -10 -20 -21 -24
-16 -18 -2 -9 -10 -19 -21 -24
-15 -17 0 -8 -10 -18 -20 -23
-14 -16 0 -8 -10 -17 -20 -23
-14 -15 0 -8 -10 -16 -20 -23
-13 -14 1 -7 -11 -15 -19 -22
-13 -14 1 -7 -10 -15 -19 -22
-13 -13 1 -7 -10 -15 -20 -22
-13 -13 1 -7 -9 -15 -20 -22
-13 -13 1 -7 -9 -15 -20 -22
-13 -14 4 -2 -6 -16 -21 -25
-14 -16 8 4 -3 -16 -22 -27
-15 -19 13 10 1 -16 -23 -30
-17 -21 17 16 4 -16 -24 -32
-18 -24 21 21 7 -16 -25 -35
-14 -20 31 37 21 -6 -22 -34
-7 -13 43 57 40 8 -16 -30
1 -6 53 77 59 20 -10 -27
9 3 64 97 77 33 -4 -23
16 10 75 116 96 47 3 -19
34 25 78 126 111 63 18 -7
56 44 77 132 125 80 35 9
78 62 76 139 138 99 53 24
100 80 75 145 151 116 70 39
121 99 75 151 164 134 88 55
133 128 68 143 170 152 115 84
141 158 60 129 172 171 146 115
149 189 51 114 174 189 177 148
157 221 43 101 176 207 207 181
165 252 34 87 178 226 237 214
148 255 21 58 154 218 238 219
122 246 6 25 120 199 229 215
96 239 -9 -9 87 181 219 211
69 231 -24 -41 53 162 209 206
44 223 -38 -75 20 144 199 202
26 193 -45 -91 -4 113 171 177
13 156 -49 -101 -23 78 136 145
-2 119 -53 -110 -44 43 100 113
-16 82 -57 -120 -63 8 65 80
-29 46 -61 -131 -83 -27 30 49
-33 28 -59 -124 -87 -38 15 32
-33 19 -53 -112 -83 -41 7 21
-32 9 -48 -100 -79 -45 -3 10
-32 0 -43 -88 -76 -48 -11 -2
-32 -11 -37 -75 -72 -51 -19 -13
-29 -14 -31 -64 -64 -48 -22 -16
-26 -14 -26 -54 -54 -41 -20 -17
-23 -15 -21 -44 -44 -35 -19 -17
-20 -15 -15 -33 -33 -29 -18 -18
-17 -15 -10 -23 -23 -23 -17 -18
-16 -16 -8 -19 -20 -21 -16 -19
-16 -16 -7 -18 -19 -21 -16 -19
-16 -17 -6 -16 -18 -21 -17 -19
-16 -17 -5 -15 -18 -21 -17 -19
-16 -17 -4 -13 -17 -21 -17 -19
-16 -18 -3 -12 -16 -21 -18 -20
-17 -20 -3 -12 -16 -21 -18 -21
-17 -21 -3 -12 -16 -21 -18 -22
-18 -22 -3 -12 -16 -21 -18 -23
-18 -23 -3 -12 -16 -21 -18 -24
-18 -24 -2 -11 -17 -20 -17 -25
-15 -24 -2 -10 -17 -20 -18 -25
-13 -23 -2 -9 -16 -21 -18 -26
-11 -23 -2 -9 -16 -21 -19 -26
-8 -23 -2 -8 -16 -21 -19 -26
-8 -22 0 -7 -15 -22 -20 -27
-9 -22 0 -7 -15 -22 -19 -26
-10 -23 0 -7 -15 -21 -19 -26
-12 -23 0 -7 -15 -21 -18 -25
-13 -23 0 -7 -15 -21 -18 -25
-14 -24 -2 -6 -16 -20 -17 -24
-14 -24 -2 -6 -16 -20 -17 -24
-13 -24 -2 -6 -15 -19 -17 -23
-13 -24 -2 -6 -15 -19 -17 -23
-13 -24 -2 -6 -15 -19 -17 -23
-12 -25 0 -5 -14 -18 -16 -22
-12 -24 0 -5 -14 -18 -16 -22
-12 -23 0 -5 -14 -18 -16 -22
-12 -23 0 -5 -14 -18 -16 -22
-12 -22 0 -5 -14 -18 -16 -22
-11 -21 0 -6 -14 -19 -16 -21
-11 -22 0 -6 -14 -19 -16 -21
-11 -23 0 -5 -14 -19 -16 -21
-11 -24 0 -5 -14 -19 -16 -21
-11 -25 0 -5 -14 -19 -16 -21
-12 -26 0 -4 -13 -19 -17 -22
-12 -26 -2 -5 -14 -19 -17 -22
-12 -25 -2 -5 -14 -19 -17 -21
-12 -25 -3 -6 -15 -19 -17 -21
-12 -25 -3 -6 -15 -19 -17 -21
-13 -24 -4 -7 -16 -19 -16 -20
-12 -22 -4 -7 -16 -19 -16 -20
-11 -21 -4 -7 -15 -18 -15 -20
-10 -20 -4 -7 -15 -18 -15 -20
-9 -19 -4 -7 -15 -18 -15 -20
-8 -18 -3 -6 -14 -17 -14 -20
-7 -18 -4 -6 -14 -17 -14 -19
-6 -18 -5 -6 -14 -17 -14 -19
-6 -18 -5 -6 -14 -17 -14 -18
-5 -18 -6 -6 -14 -17 -14 -18
-4 -18 -7 -7 -15 -17 -14 -17
-5 -18 -7 -7 -14 -16 -12 -17
-5 -18 -6 -7 -14 -15 -11 -17
-6 -18 -6 -7 -13 -14 -9 -17
-6 -18 -6 -7 -13 -13 -8 -17
-6 -17 -5 -6 -12 -12 -7 -15
-3 -15 -5 -6 -11 -11 -6 -13
1 -14 -5 -5 -11 -10 -5 -12
3 -12 -5 -5 -10 -10 -5 -10
6 -11 -5 -5 -10 -9 -4 -8
7 -10 -5 -4 -9 -8 -3 -7
7 -11 -6 -5 -9 -7 0 -6
6 -12 -6 -5 -9 -6 1 -5
6 -12 -7 -6 -9 -5 3 -4
6 -13 -7 -6 -9 -4 4 -3
6 -13 -8 -7 -9 -3 5 -2
9 -10 -10 -8 -9 -3 5 -2
12 -8 -11 -9 -10 -3 5 -2
15 -5 -12 -9 -10 -3 5 -2
18 -2 -13 -10 -10 -3 5 -2
20 0 -14 -11 -11 -4 6 -2
23 0 -14 -11 -9 -3 7 0
25 1 -14 -11 -8 -2 8 1
28 1 -14 -11 -7 0 8 1
31 1 -14 -11 -6 1 9 2
32 3 -16 -10 -5 2 10 3
33 4 -17 -12 -6 2 11 4
34 6 -19 -13 -7 2 12 5
35 7 -20 -14 -8 2 12 6
36 9 -22 -15 -9 2 13 7
37 10 -23 -16 -10 3 14 8
39 10 -24 -16 -9 4 16 9
40 10 -24 -17 -9 5 17 10
42 10 -25 -17 -8 6 18 11
43 10 -25 -17 -8 7 19 12
44 11 -26 -18 -7 8 20 13
46 11 -26 -18 -7 8 20 15
47 11 -26 -18 -7 8 21 16
48 11 -26 -18 -7 8 21 18
49 11 -26 -18 -7 8 21 19
51 14 -26 -19 -7 9 22 20
52 17 -26 -19 -7 9 23 21
54 20 -26 -18 -7 10 24 21
55 23 -26 -18 -7 10 24 22
57 25 -26 -18 -7 10 25 22
58 26 -27 -17 -6 11 26 23
57 25 -27 -17 -6 11 26 23
56 23 -26 -16 -6 11 26 23
56 22 -26 -15 -6 11 26 23
55 20 -26 -15 -6 11 26 23
52 19 -24 -13 -5 10 27 23
49 18 -23 -12 -5 10 27 22
46 17 -21 -10 -5 10 26 21
43 17 -20 -9 -5 10 25 20
39 16 -18 -7 -5 10 25 19
37 15 -16 -5 -4 9 24 18
36 14 -14 -3 -3 9 24 18
34 13 -12 0 -2 10 24 18
33 13 -9 3 -2 11 24 18
32 12 -7 5 0 11 24 18
29 11 -6 7 1 12 24 19
26 10 -5 8 2 12 23 18
22 9 -3 10 3 13 21 16
19 9 -2 11 4 13 20 15
16 8 0 13 5 13 18 14
13 6 1 14 6 14 17 13
11 5 1 14 6 14 17 11
9 3 1 14 6 13 16 10
6 1 1 14 6 13 15 8
4 -2 1 14 6 13 15 7
3 -3 2 13 7 12 14 6
2 -3 2 13 7 12 14 5
1 -4 3 13 7 11 13 4
0 -4 3 13 7 11 13 3
-2 -4 3 13 7 11 13 2
-3 -5 4 14 6 10 12 1
-4 -5 4 13 6 9 11 1
-5 -6 4 12 5 8 10 0
-6 -7 4 12 5 8 9 -2
-7 -7 4 11 5 7 8 -2
-8 -8 3 10 4 6 7 -3
-10 -9 4 10 4 6 7 -3
-11 -11 5 11 4 7 7 -3
-13 -12 5 12 4 7 7 -3
-14 -13 6 12 4 7 7 -3
-15 -14 7 13 5 8 8 -2
-15 -13 7 13 5 8 8 -2
-15 -12 6 12 5 8 8 -2
-15 -12 5 11 5 8 8 -2
-15 -11 5 11 5 8 8 -2
-15 -10 4 10 4 7 8 -2
-14 -10 4 10 4 7 8 -2
-13 -10 4 10 4 8 8 -2
-12 -10 4 10 4 8 8 -2
-11 -10 4 10 4 8 8 -2
-10 -10 4 10 5 9 7 -3
-11 -10 4 10 5 9 7 -3
-13 -11 4 9 4 8 7 -3
-14 -12 4 8 4 8 7 -3
-15 -12 4 8 4 8 7 -3
-16 -13 3 7 3 7 6 -2
-14 -13 3 8 4 7 6 -2
-13 -13 4 9 5 8 7 -2
-11 -13 4 9 5 8 7 -2
-10 -13 4 10 6 8 7 -2
-9 -12 5 11 7 9 8 0
-9 -11 5 11 7 9 7 0
-8 -10 4 10 7 8 6 -2
-7 -10 3 10 7 8 6 -2
-7 -9 3 10 7 8 5 -2
-6 -8 2 9 6 7 4 -3
-7 -8 3 9 7 7 5 -3
-8 -8 4 10 8 8 6 -2
-8 -8 4 11 8 9 6 0
-9 -8 5 11 9 9 7 0
-10 -8 6 12 10 10 8 1
-10 -8 6 12 10 10 8 1
-11 -9 6 12 10 10 8 0
-12 -10 6 12 10 10 8 0
-12 -10 6 12 10 10 8 0
-13 -11 6 11 9 10 8 -2
-13 -11 6 11 9 10 8 -2
-13 -10 6 11 9 9 7 -3
-13 -10 6 11 9 9 7 -4
-13 -10 6 11 9 9 7 -4
-14 -9 7 11 9 8 6 -5
-14 -9 7 11 9 8 6 -5
-13 -8 6 11 9 9 6 -4
-13 -7 6 11 9 9 6 -4
-13 -7 6 11 9 9 6 -4
-12 -6 5 11 9 10 6 -3
-11 -7 5 10 9 9 5 -4
-10 -8 4 9 8 8 4 -5
-10 -9 4 9 7 8 3 -5
-9 -10 4 8 7 7 2 -6
-8 -11 3 7 6 6 1 -7
-9 -11 3 7 6 6 1 -7
-11 -12 3 7 6 6 1 -7
-12 -12 3 7 6 6 1 -7
-13 -12 3 7 6 6 1 -7
-14 -13 2 6 6 5 1 -6
-14 -13 2 5 6 5 1 -6
-13 -12 2 4 6 5 0 -6
-13 -11 2 4 6 5 0 -6
-13 -11 2 3 6 5 0 -6
-12 -10 1 2 5 5 -2 -7
-11 -10 1 2 5 5 -2 -7
-10 -10 1 2 4 4 -2 -8
-10 -10 1 2 4 3 -2 -9
-9 -10 1 2 4 3 -2 -9
-8 -11 1 3 3 2 0 -10
-9 -12 0 3 3 2 0 -10
-10 -13 -2 3 3 1 -2 -10
-10 -13 -2 3 3 1 -3 -10
-11 -14 -3 3 3 1 -3 -10
-12 -15 -4 2 3 0 -4 -10
-12 -15 -2 3 3 1 -3 -10
-12 -15 0 4 4 2 -2 -9
-12 -15 2 5 5 3 0 -8
-12 -15 3 6 5 4 1 -8
-12 -16 4 7 6 5 2 -7
-12 -16 3 6 5 4 1 -7
-11 -15 2 4 4 3 -2 -7
-11 -14 1 3 3 2 -3 -7
-11 -14 0 2 2 1 -4 -7
-10 -13 -2 1 1 0 -5 -8
-11 -13 -2 1 1 -2 -5 -9
-12 -13 -2 0 0 -3 -6 -10
-13 -13 -2 0 -2 -3 -7 -10
-14 -13 -2 0 -2 -4 -7 -11
-15 -13 -2 -2 -3 -5 -8 -12
-15 -13 -2 -2 -3 -4 -8 -12
-14 -14 -2 0 -2 -3 -7 -12
-14 -14 -2 0 0 -3 -6 -12
-14 -14 -2 0 0 -2 -6 -12
-13 -15 0 1 1 0 -5 -12
-14 -15 0 1 0 -2 -5 -12
-15 -16 0 1 -2 -4 -6 -12
-15 -16 0 1 -3 -5 -7 -12
-16 -16 0 1 -4 -6 -7 -12
-17 -17 -2 0 -5 -7 -8 -13
-16 -17 -2 0 -5 -7 -8 -13
-15 -18 0 0 -4 -7 -8 -12
-15 -19 0 0 -3 -7 -8 -11
-14 -19 0 0 -3 -7 -8 -11
-13 -20 1 1 -2 -6 -9 -10
-13 -19 1 1 -2 -6 -9 -10
-12 -18 1 1 -3 -6 -9 -11
-12 -18 1 1 -4 -6 -9 -11
-12 -17 1 1 -4 -6 -9 -11
-11 -16 0 0 -5 -7 -8 -12
-12 -17 0 0 -4 -7 -8 -12
-13 -19 1 0 -3 -6 -8 -12
-14 -20 2 0 -3 -6 -8 -12
-15 -21 2 0 -2 -6 -8 -12
-16 -22 3 1 0 -5 -7 -12
-16 -21 2 0 -2 -6 -8 -12
-15 -20 1 -2 -3 -7 -9 -13
-15 -19 1 -2 -4 -8 -9 -13
-15 -18 0 -3 -5 -9 -10 -13
-14 -17 -2 -4 -6 -10 -11 -14
-15 -17 -2 -4 -6 -10 -11 -14
-16 -17 -3 -4 -6 -10 -11 -14
-16 -17 -4 -4 -6 -10 -11 -14
-17 -17 -4 -4 -6 -10 -11 -14
-18 -17 -5 -4 -7 -10 -11 -15
-18 -17 -4 -4 -7 -10 -11 -14
-17 -16 -3 -4 -6 -10 -10 -13
-17 -16 -3 -4 -5 -10 -9 -13
-17 -16 -2 -4 -5 -10 -9 -12
-16 -15 0 -3 -4 -9 -8 -11
-16 -16 0 -3 -4 -9 -8 -11
-16 -17 0 -2 -4 -8 -8 -12
-16 -18 0 0 -4 -8 -8 -12
-16 -19 0 0 -4 -8 -8 -12
-17 -20 0 1 -4 -7 -8 -13
-17 -20 0 1 -4 -7 -9 -14
-18 -20 0 0 -5 -8 -10 -16
-19 -20 0 -2 -6 -9 -11 -17
-19 -20 0 -2 -6 -9 -12 -18
-20 -20 -2 -3 -7 -10 -13 -19
-18 -19 1 -2 -6 -9 -12 -18
-16 -18 2 0 -5 -7 -11 -16
-15 -18 3 1 -5 -6 -10 -15
-13 -17 5 2 -4 -5 -9 -14
-12 -15 6 3 -3 -4 -8 -13
-11 -12 6 5 0 -4 -8 -13
-10 -9 6 6 1 -3 -7 -12
-9 -6 6 7 2 -3 -6 -11
-8 -3 6 9 4 -3 -6 -11
-7 0 7 10 5 -2 -5 -10
-7 0 8 12 5 -2 -5 -10
-6 0 9 13 6 0 -5 -10
-6 0 9 14 7 1 -5 -10
-6 0 10 16 7 1 -5 -10
-5 -2 11 17 8 2 -4 -9
-5 -3 10 17 8 2 -4 -8
-5 -4 9 17 9 3 -3 -7
-5 -5 9 17 9 3 -2 -7
-5 -6 8 17 9 3 -2 -6
-5 -7 6 15 9 3 0 -6
-6 -7 3 11 6 1 -3 -8
-7 -6 0 7 3 -2 -5 -10
-8 -6 -3 3 1 -4 -7 -12
-9 -6 -6 -2 -3 -6 -9 -14
-10 -5 -8 -4 -5 -7 -10 -15
-9 -5 -7 -3 -4 -7 -10 -13
-8 -6 -5 -2 -3 -6 -9 -12
-7 -6 -4 0 -2 -5 -8 -11
-6 -6 -3 1 0 -5 -8 -9
-5 -7 -2 2 1 -4 -7 -8
-5 -7 -2 1 0 -5 -7 -9
-6 -7 -2 1 -2 -5 -7 -9
-7 -7 -3 0 -4 -6 -8 -10
-7 -7 -3 -2 -5 -7 -8 -11
-8 -9 -4 -3 -6 -8 -9 -12
-10 -12 -4 -4 -7 -10 -11 -14
-11 -15 -4 -5 -8 -11 -12 -15
-12 -18 -5 -6 -9 -13 -14 -17
-14 -21 -5 -7 -10 -15 -16 -19
-15 -23 -6 -8 -11 -16 -17 -20
-15 -22 -5 -8 -11 -16 -17 -20
-16 -21 -5 -7 -11 -16 -17 -20
-17 -19 -4 -6 -10 -15 -16 -20
-17 -18 -3 -6 -10 -15 -16 -20
-18 -18 -2 -5 -9 -14 -15 -19
-20 -20 -2 -5 -9 -14 -15 -19
-22 -22 -3 -6 -9 -14 -15 -19
-24 -25 -4 -7 -9 -14 -16 -19
-26 -27 -4 -7 -9 -14 -16 -19
-27 -29 -5 -8 -10 -15 -17 -19
-27 -28 -4 -7 -10 -15 -17 -19
-27 -27 -3 -6 -10 -15 -17 -19
-26 -25 -2 -5 -10 -15 -17 -19
-26 -24 0 -4 -10 -15 -17 -19
-25 -23 1 -3 -11 -16 -16 -18
-25 -23 1 -3 -11 -16 -16 -18
-25 -23 1 -2 -11 -16 -16 -18
-25 -22 1 0 -10 -16 -17 -18
-25 -22 1 0 -10 -16 -17 -18
-24 -21 3 3 -8 -15 -18 -20
-24 -22 7 8 -5 -15 -20 -23
-24 -22 11 13 -2 -15 -21 -26
-25 -23 15 19 2 -15 -23 -29
-25 -24 19 24 5 -15 -25 -32
-24 -22 25 35 15 -10 -24 -33
-17 -16 35 54 33 4 -18 -28
-11 -10 45 72 51 18 -12 -24
-5 -3 55 91 69 31 -6 -20
2 4 64 109 88 45 1 -16
17 17 70 121 103 60 12 -7
42 36 68 126 114 75 28 8
66 56 67 130 127 91 45 23
91 75 66 135 138 106 62 37
115 95 64 139 149 121 78 52
135 119 59 136 156 137 100 73
149 148 49 120 156 152 128 104
163 177 38 106 157 168 155 135
179 206 29 91 158 183 182 165
193 235 19 75 158 198 210 195
188 248 8 54 145 199 221 212
157 239 -4 25 113 183 212 207
127 230 -16 -5 81 165 202 203
96 222 -28 -33 50 149 193 199
66 213 -39 -63 18 132 184 195
42 193 -47 -81 -6 109 165 179
23 160 -49 -88 -21 78 134 149
6 127 -50 -93 -36 49 102 119
-13 94 -51 -99 -52 18 71 90
-30 61 -53 -104 -67 -12 39 60
-40 38 -52 -104 -74 -30 19 39
-38 28 -48 -93 -70 -32 11 28
-36 17 -43 -82 -65 -35 3 18
-34 7 -37 -71 -61 -37 -6 7
-32 -4 -32 -60 -56 -40 -14 -5
-30 -10 -28 -51 -51 -41 -19 -11
-29 -12 -23 -43 -44 -38 -19 -14
-28 -13 -19 -34 -37 -35 -19 -16
-26 -14 -14 -27 -30 -31 -19 -18
-25 -16 -10 -19 -24 -28 -19 -20
-24 -17 -7 -14 -20 -26 -19 -22
-23 -17 -5 -13 -18 -24 -19 -21
-23 -17 -4 -12 -17 -23 -19 -21
-22 -16 -2 -11 -15 -22 -19 -20
-21 -16 1 -10 -13 -20 -19 -19
-20 -15 2 -9 -12 -19 -18 -18
-20 -17 2 -9 -13 -19 -18 -18
-20 -18 2 -10 -13 -19 -19 -18
-21 -20 1 -11 -14 -20 -20 -19
-21 -22 1 -11 -15 -20 -20 -19
-22 -23 0 -12 -16 -21 -21 -20
-22 -23 0 -11 -16 -21 -21 -20
-22 -23 0 -10 -15 -20 -21 -20
-22 -23 1 -9 -14 -19 -21 -20
-22 -23 1 -8 -14 -19 -21 -20
-22 -22 2 -7 -13 -18 -21 -21
-20 -21 2 -7 -14 -18 -21 -21
-19 -20 2 -7 -14 -18 -21 -21
-17 -18 2 -8 -15 -19 -21 -21
-15 -17 2 -8 -16 -19 -21 -21
-14 -16 1 -9 -17 -20 -22 -21
-14 -16 1 -9 -17 -20 -22 -21
-14 -16 1 -9 -17 -20 -22 -21
-14 -16 1 -8 -17 -20 -22 -20
-14 -16 1 -8 -17 -20 -22 -20
-14 -15 2 -7 -16 -20 -22 -19
-13 -14 2 -7 -16 -20 -22 -19
-11 -13 2 -7 -16 -20 -22 -19
-10 -12 2 -8 -16 -19 -21 -19
-8 -11 2 -8 -16 -19 -21 -19
-7 -10 2 -9 -16 -18 -20 -18
-8 -11 2 -9 -16 -18 -19 -18
-10 -12 2 -9 -16 -18 -19 -18
-11 -13 2 -9 -16 -18 -18 -18
-13 -14 2 -9 -16 -18 -17 -18
-14 -15 1 -8 -16 -18 -16 -18
-14 -15 1 -8 -16 -18 -16 -18
-14 -15 1 -8 -16 -18 -16 -17
-14 -14 1 -7 -16 -18 -16 -16
-14 -14 1 -7 -16 -18 -16 -16
-13 -13 1 -6 -15 -17 -17 -15
-12 -12 1 -6 -15 -16 -17 -15
-11 -11 1 -6 -15 -16 -17 -15
-10 -9 1 -7 -14 -15 -16 -15
-9 -8 1 -7 -14 -14 -16 -15
-8 -7 1 -8 -13 -13 -15 -15
-7 -7 0 -8 -13 -13 -15 -15
-6 -7 0 -8 -14 -13 -15 -15
-4 -7 -2 -9 -15 -14 -16 -15
-3 -7 -3 -9 -15 -14 -16 -15
-2 -7 -4 -10 -16 -15 -17 -15
-2 -7 -4 -10 -16 -15 -15 -14
-2 -7 -4 -10 -15 -14 -14 -13
0 -6 -3 -9 -14 -13 -12 -12
0 -6 -3 -9 -14 -13 -10 -11
1 -5 -2 -8 -13 -12 -9 -10
2 -4 -2 -8 -12 -11 -7 -9
4 -3 -2 -8 -12 -10 -6 -7
5 -2 -2 -7 -11 -8 -4 -6
7 0 -2 -7 -10 -7 -2 -4
9 2 -2 -6 -9 -6 0 -3
12 5 -2 -6 -8 -4 0 -2
15 8 -2 -6 -8 -3 1 0
18 11 -2 -6 -7 0 2 2
21 14 -2 -6 -6 2 2 3
23 16 -3 -6 -5 3 3 4
25 15 -4 -6 -5 3 3 4
27 15 -5 -7 -5 3 4 4
29 14 -7 -8 -6 3 5 4
30 13 -8 -8 -6 3 5 4
32 12 -9 -9 -7 2 6 5
34 15 -10 -10 -7 2 7 5
36 17 -10 -10 -7 2 7 6
38 19 -11 -11 -7 2 8 7
39 21 -12 -12 -7 2 9 7
42 23 -13 -13 -7 3 10 8
45 25 -13 -13 -7 5 12 10
47 27 -13 -13 -6 6 14 12
49 29 -13 -13 -5 8 16 14
51 30 -13 -13 -5 10 17 15
53 32 -14 -13 -4 11 19 17
56 32 -14 -13 -4 11 19 17
59 32 -14 -13 -4 11 19 18
61 32 -14 -14 -4 11 19 19
64 32 -14 -14 -4 11 19 19
66 31 -14 -15 -5 11 20 20
67 32 -15 -16 -5 11 20 20
67 33 -17 -17 -6 11 21 20
68 35 -18 -18 -7 11 22 21
69 36 -20 -19 -7 11 22 21
70 37 -21 -20 -8 12 23 22
72 37 -21 -20 -8 12 23 22
74 37 -22 -20 -8 11 23 22
76 37 -23 -20 -8 10 22 22
78 37 -23 -20 -8 10 22 22
80 36 -24 -21 -9 9 21 21
79 38 -23 -19 -9 9 22 21
77 39 -21 -18 -8 9 23 22
76 42 -20 -16 -7 10 24 23
74 43 -18 -15 -7 10 25 23
73 45 -17 -13 -6 11 26 24
70 45 -16 -12 -5 11 26 24
67 44 -15 -11 -5 12 26 24
65 43 -14 -10 -4 13 26 24
62 43 -13 -9 -3 13 26 24
60 42 -12 -8 -2 14 26 23
60 40 -10 -7 0 14 25 22
59 40 -9 -5 0 14 24 21
58 39 -7 -4 1 14 23 20
58 38 -6 -2 2 14 22 19
56 37 -4 0 3 14 21 18
52 34 -3 2 4 14 21 18
49 31 0 4 5 14 21 18
45 29 1 6 6 15 21 17
40 26 3 7 7 15 21 17
36 24 4 9 8 16 20 16
33 23 4 9 8 16 20 15
30 22 4 9 8 16 19 14
26 20 5 10 8 15 18 13
23 19 5 10 8 15 18 12
20 18 6 11 8 14 17 11
20 18 7 11 8 14 17 11
20 18 8 12 8 15 17 10
20 19 9 13 9 16 17 9
20 19 10 13 9 16 17 9
20 20 11 14 10 17 16 8
19 19 11 14 10 17 16 9
17 18 11 14 10 17 17 9
16 17 11 14 10 17 18 10
14 16 11 14 10 17 18 11
13 15 12 15 10 16 19 12
14 15 12 15 10 16 19 12
15 16 12 15 10 17 19 11
17 17 12 15 10 18 18 10
18 17 12 15 10 18 18 10
19 18 13 15 9 19 17 9
17 16 13 15 9 18 17 9
15 15 13 15 9 17 17 9
13 13 13 15 9 15 17 9
11 12 13 15 9 14 17 9
9 10 14 14 9 13 16 9
10 13 14 14 9 14 16 10
12 15 14 14 9 15 17 10
13 17 14 14 10 16 17 11
15 20 14 14 10 17 18 12
16 22 13 15 11 18 19 13
16 21 13 14 11 18 19 12
15 19 12 13 10 18 19 11
15 18 12 12 10 17 19 10
14 16 11 11 9 17 19 9
13 15 10 10 8 16 18 8
12 15 10 10 8 16 18 9
11 14 10 11 8 16 18 10
10 14 11 11 8 16 19 11
8 13 11 12 8 16 19 12
7 12 12 13 9 16 20 13
10 14 12 13 9 16 19 13
13 15 12 13 8 15 18 13
16 17 12 12 8 15 17 13
19 18 12 12 7 14 15 13
21 20 12 11 6 13 14 12
21 19 12 11 6 14 15 11
20 17 12 11 7 16 16 11
20 16 12 11 7 17 17 10
19 14 12 11 8 19 19 9
18 13 11 12 9 20 20 8
18 15 11 12 9 19 20 9
19 17 11 12 9 19 20 9
19 18 12 12 10 18 19 10
20 20 12 12 10 17 19 11
21 22 13 13 11 16 18 12
21 22 14 14 12 17 18 12
21 22 15 14 12 18 18 13
21 22 16 15 13 19 19 13
21 22 17 16 14 21 19 14
20 22 18 17 15 22 20 15
20 23 18 17 14 20 19 15
20 25 17 16 13 19 18 15
20 26 17 16 12 17 17 15
20 28 16 15 10 16 16 15
20 29 15 14 9 14 15 14
20 28 15 14 10 15 16 14
20 27 15 14 10 15 16 14
20 26 15 14 11 16 17 14
20 25 15 14 12 17 18 14
20 24 14 13 13 18 19 13
20 23 14 13 13 18 19 13
20 22 14 13 12 18 18 13
20 21 14 13 12 17 18 12
20 20 14 13 11 17 17 12
21 19 14 12 10 16 16 11
21 20 14 12 10 16 16 11
21 21 14 12 10 16 16 11
21 22 14 12 11 15 16 11
21 24 14 12 11 15 16 11
21 25 14 13 12 14 15 10
20 25 14 13 12 14 15 10
20 25 14 13 11 14 15 10
19 24 14 13 11 14 15 10
18 24 14 13 10 14 15 10
17 23 14 12 9 14 16 11
17 22 14 12 9 14 16 11
18 21 14 12 9 14 16 11
18 20 14 12 9 14 16 10
19 18 14 12 9 14 16 10
20 17 15 13 9 14 16 9
21 19 15 13 9 14 16 9
21 22 15 13 9 14 16 9
22 24 15 13 9 13 16 9
23 26 15 13 9 13 16 9
24 28 15 12 9 12 15 10
24 27 15 12 9 12 15 10
23 26 15 12 9 12 15 10
23 25 15 12 9 12 15 10
22 23 15 12 9 12 15 10
21 22 16 13 9 12 14 9
22 23 17 13 9 12 14 9
22 23 17 13 9 12 14 9
23 24 18 13 9 12 14 9
24 25 19 13 9 12 14 9
25 26 20 14 10 13 15 10
25 25 19 14 10 12 14 9
24 24 19 13 9 12 14 9
24 23 18 13 9 11 13 8
23 22 17 12 8 10 12 7
22 21 16 11 7 9 11 6
23 21 16 11 7 9 11 6
24 22 16 11 7 9 11 6
25 22 17 12 7 10 12 7
26 23 17 12 7 10 12 7
27 24 18 13 8 11 13 8
27 25 18 13 8 11 13 8
27 25 18 12 8 11 13 8
27 26 17 12 8 11 12 8
27 27 17 11 8 11 12 8
26 28 16 10 7 10 11 7
25 26 16 11 7 10 11 7
23 24 16 11 7 10 12 7
22 21 17 12 7 10 12 8
21 19 17 13 7 10 13 8
19 17 18 14 8 10 14 9
23 21 18 14 8 10 14 9
26 24 19 14 8 10 14 9
29 28 19 15 9 11 14 9
32 31 20 15 9 11 14 9
35 34 21 16 10 12 14 10
34 33 21 16 10 12 14 10
32 32 21 15 10 12 14 10
30 31 21 15 10 11 13 9
29 29 21 14 10 11 13 9
27 28 20 13 9 10 12 8
27 28 20 13 9 10 12 8
27 28 20 13 9 10 12 8
26 28 20 13 9 10 12 8
26 28 20 13 9 10 12 8
25 27 20 14 10 10 13 9
25 27 20 14 10 10 13 9
26 28 20 14 10 10 13 9
27 29 20 13 9 10 13 9
28 30 20 13 9 10 13 9
29 31 19 12 8 11 12 8
29 31 19 12 8 11 12 8
28 30 19 12 8 11 11 7
28 29 19 12 8 10 11 6
27 28 19 12 8 10 10 5
26 27 18 12 7 9 9 4
26 27 18 12 7 9 9 4
26 28 18 12 7 9 9 4
26 29 18 12 7 8 9 4
26 30 18 12 7 8 9 4
26 31 19 11 8 7 9 5
26 31 19 11 8 7 9 5
26 30 19 11 8 8 9 5
27 29 19 11 9 9 10 5
27 28 19 11 9 10 10 5
28 27 19 12 10 11 11 5
27 27 19 12 10 11 11 5
26 27 19 12 10 11 11 5
25 27 19 12 10 10 11 5
24 27 19 12 10 10 11 5
23 28 19 13 10 9 10 6
25 29 19 13 10 9 10 6
28 31 19 14 10 9 10 6
30 33 20 14 11 9 10 7
33 34 20 15 11 9 10 7
35 36 21 16 12 10 11 8
35 36 21 16 12 10 11 8
35 36 21 16 12 10 11 7
35 36 21 16 11 10 11 7
35 36 21 16 11 10 11 6
34 36 21 16 10 9 11 5
36 36 23 18 13 11 12 5
37 36 24 21 15 13 13 6
39 36 26 23 18 15 14 7
42 36 28 26 20 17 16 8
44 37 30 28 23 19 17 9
44 38 30 28 23 19 17 9
44 40 30 28 23 19 17 10
44 42 30 28 23 19 17 11
44 43 30 28 23 19 17 12
44 45 30 28 23 19 18 13
42 44 26 25 21 17 17 12
39 42 23 22 19 15 15 11
36 39 19 19 16 13 14 10
34 38 15 16 14 11 13 8
32 35 12 13 12 9 11 7
30 30 10 11 9 7 9 5
28 26 8 8 7 5 6 3
25 21 6 6 4 2 4 0
23 16 4 3 2 0 1 -3
21 11 2 1 -2 -3 -2 -5
17 10 2 1 -2 -4 -2 -5
14 8 2 0 -3 -5 -2 -5
11 7 2 0 -3 -6 -3 -5
7 6 2 -2 -4 -7 -3 -5
4 4 1 -3 -5 -8 -4 -5
4 1 1 -3 -5 -9 -5 -5
3 -3 1 -3 -6 -10 -7 -6
3 -6 1 -3 -6 -11 -8 -7
2 -9 1 -3 -7 -12 -9 -8
1 -12 0 -4 -8 -13 -11 -9
-4 -12 0 -4 -8 -13 -11 -10
-7 -12 1 -4 -8 -13 -12 -11
-11 -12 1 -4 -8 -13 -12 -12
-15 -12 2 -4 -8 -13 -13 -13
-18 -12 3 -4 -9 -13 -14 -14
-19 -14 3 -4 -9 -13 -14 -14
-21 -15 2 -5 -10 -14 -15 -14
-22 -17 2 -6 -11 -15 -16 -15
-23 -19 1 -7 -12 -16 -17 -15
-25 -21 0 -8 -13 -17 -18 -16
-25 -21 0 -8 -13 -17 -18 -16
-25 -21 0 -8 -13 -18 -18 -17
-25 -21 0 -8 -13 -18 -19 -18
-25 -21 0 -8 -13 -19 -19 -19
-25 -21 1 -8 -12 -20 -20 -20
-25 -21 1 -8 -12 -20 -20 -20
-25 -21 1 -8 -13 -20 -20 -20
-25 -21 1 -8 -13 -20 -21 -20
-25 -21 1 -8 -14 -20 -21 -20
-26 -21 0 -9 -15 -21 -22 -20
-26 -21 0 -9 -15 -21 -22 -20
-27 -21 1 -9 -15 -21 -23 -20
-27 -21 1 -8 -14 -21 -23 -20
-28 -21 2 -8 -14 -21 -24 -20
-29 -20 4 -6 -12 -22 -25 -21
-29 -20 10 5 -5 -19 -27 -23
-30 -20 17 15 3 -16 -28 -26
-30 -21 23 25 10 -14 -30 -28
-31 -21 30 35 17 -11 -32 -30
-30 -21 37 47 25 -6 -33 -32
-15 -11 44 61 44 9 -23 -26
1 1 50 76 61 24 -14 -19
17 11 56 92 78 38 -4 -13
32 21 62 106 96 53 6 -6
50 33 68 119 111 67 17 3
76 56 63 117 116 79 33 20
104 78 58 115 121 91 50 37
132 100 53 113 127 103 65 55
158 122 48 110 132 114 81 71
182 146 42 106 137 126 99 91
185 173 31 88 133 138 122 117
188 199 21 69 130 150 147 145
191 226 11 51 126 162 171 173
194 252 1 33 122 175 194 200
192 271 -10 14 114 181 211 221
154 238 -17 -10 81 145 181 197
116 206 -25 -33 49 110 151 174
79 174 -33 -56 16 74 121 151
42 141 -41 -79 -17 38 92 128
8 110 -49 -100 -46 7 64 105
-5 89 -49 -100 -52 -5 48 87
-16 67 -49 -101 -58 -16 31 67
-27 46 -49 -102 -63 -26 15 49
-39 24 -49 -103 -69 -37 -3 30
-50 6 -50 -103 -74 -48 -17 13
-46 1 -44 -91 -67 -48 -22 6
-41 -5 -37 -77 -60 -48 -26 -3
-37 -10 -32 -65 -54 -48 -31 -10
-33 -15 -26 -53 -47 -48 -36 -18
-29 -20 -21 -41 -40 -48 -40 -25
-29 -20 -18 -36 -36 -45 -40 -26
-28 -20 -15 -31 -32 -41 -40 -27
-27 -20 -12 -26 -29 -38 -40 -28
-26 -20 -9 -22 -25 -35 -40 -29
-25 -19 -6 -17 -21 -32 -39 -31
-25 -19 -6 -17 -21 -32 -39 -31
-25 -19 -5 -16 -20 -31 -39 -31
-24 -20 -4 -16 -19 -31 -39 -31
-24 -20 -3 -15 -18 -30 -39 -31
-23 -21 -2 -14 -17 -29 -38 -32
-23 -21 -2 -14 -17 -29 -38 -32
-23 -21 -2 -14 -17 -29 -39 -33
-24 -21 -2 -14 -17 -30 -39 -33
-24 -21 -2 -14 -17 -30 -40 -34
-25 -22 -2 -13 -18 -31 -41 -35
-24 -22 -2 -13 -18 -31 -41 -36
-23 -22 -2 -13 -18 -32 -43 -37
-22 -23 -2 -13 -18 -33 -44 -38
-21 -23 -2 -13 -18 -34 -45 -39
-19 -24 -3 -14 -19 -35 -46 -40
-18 -23 -3 -14 -19 -35 -46 -40
-17 -22 -3 -14 -19 -35 -46 -40
-15 -21 -3 -13 -19 -35 -45 -40
-14 -20 -3 -13 -19 -35 -45 -40
-12 -19 -2 -12 -18 -34 -44 -39
-12 -19 -2 -12 -18 -34 -44 -39
-13 -20 -2 -12 -18 -34 -44 -39
-14 -21 -3 -13 -18 -33 -44 -40
-15 -22 -3 -13 -18 -33 -44 -40
-16 -23 -4 -14 -18 -32 -45 -41
-16 -23 -4 -14 -18 -32 -45 -41
-16 -22 -4 -14 -18 -32 -45 -41
-15 -21 -5 -14 -18 -33 -46 -43
-15 -20 -5 -14 -18 -33 -46 -43
-14 -19 -6 -15 -19 -34 -47 -44
-14 -19 -6 -15 -19 -34 -47 -44
-14 -19 -7 -16 -19 -34 -47 -43
-14 -19 -7 -16 -19 -34 -46 -43
-14 -19 -8 -17 -19 -34 -46 -41
-14 -18 -9 -18 -20 -34 -45 -40
-13 -18 -9 -18 -19 -33 -44 -40
-12 -17 -8 -17 -18 -32 -43 -40
-11 -17 -8 -17 -17 -31 -41 -40
-10 -16 -7 -16 -16 -30 -40 -40
-8 -15 -6 -15 -15 -29 -38 -41
-6 -13 -6 -15 -15 -29 -38 -41
-4 -10 -6 -15 -15 -28 -38 -41
-2 -7 -6 -16 -14 -27 -38 -40
1 -5 -6 -16 -14 -26 -38 -40
3 -2 -7 -17 -13 -25 -37 -39
1 -5 -7 -17 -13 -26 -37 -39
-2 -8 -7 -17 -13 -27 -37 -39
-4 -11 -7 -16 -13 -28 -38 -39
-6 -14 -7 -16 -13 -29 -38 -39
-8 -17 -7 -15 -13 -30 -39 -38
-7 -16 -7 -15 -13 -29 -38 -37
-6 -15 -7 -15 -13 -28 -37 -36
-4 -14 -7 -16 -12 -26 -36 -34
-3 -13 -7 -16 -12 -25 -35 -33
0 -11 -7 -17 -11 -23 -33 -31
2 -11 -7 -17 -11 -23 -33 -31
4 -11 -8 -17 -11 -23 -33 -31
6 -11 -9 -17 -10 -22 -32 -31
8 -11 -10 -17 -10 -22 -32 -31
10 -11 -11 -18 -9 -21 -31 -32
10 -10 -12 -18 -9 -21 -31 -32
10 -9 -13 -18 -9 -21 -31 -31
11 -7 -14 -18 -8 -21 -30 -30
11 -6 -15 -18 -8 -21 -30 -29
12 -4 -16 -18 -7 -20 -29 -28
14 -3 -16 -18 -7 -20 -29 -28
17 -2 -16 -19 -7 -20 -28 -27
19 1 -17 -19 -7 -20 -28 -27
21 2 -17 -20 -7 -20 -27 -26
24 4 -18 -21 -6 -19 -26 -25
27 4 -19 -22 -7 -19 -26 -25
29 4 -20 -24 -8 -19 -26 -25
32 4 -22 -26 -9 -19 -26 -25
35 4 -23 -28 -10 -19 -26 -25
38 4 -25 -30 -12 -20 -26 -26
42 5 -26 -30 -12 -20 -26 -25
46 6 -27 -31 -12 -20 -25 -24
49 7 -28 -31 -12 -20 -25 -23
52 8 -29 -32 -12 -20 -24 -22
56 9 -30 -33 -13 -21 -23 -21
56 10 -31 -34 -14 -21 -23 -21
56 11 -32 -35 -15 -21 -22 -21
57 12 -33 -37 -16 -21 -22 -21
57 13 -34 -38 -17 -21 -21 -21
58 15 -36 -40 -18 -21 -20 -20
59 15 -36 -40 -18 -21 -20 -19
61 15 -35 -39 -17 -21 -20 -18
63 15 -35 -39 -17 -20 -19 -17
65 15 -34 -38 -16 -20 -19 -16
67 16 -33 -37 -15 -19 -18 -15
67 17 -33 -37 -15 -19 -18 -15
67 18 -33 -37 -15 -19 -18 -14
67 20 -33 -37 -15 -19 -17 -14
67 21 -33 -37 -15 -19 -17 -13
68 23 -34 -38 -14 -18 -16 -12
67 22 -34 -37 -14 -18 -16 -12
65 21 -33 -36 -13 -18 -16 -12
63 20 -32 -34 -12 -18 -16 -12
61 19 -31 -33 -11 -18 -16 -12
59 17 -30 -31 -10 -18 -16 -13
57 16 -29 -30 -10 -18 -16 -13
55 14 -28 -29 -10 -18 -16 -13
53 13 -27 -28 -10 -17 -16 -13
51 11 -26 -27 -10 -17 -16 -13
48 9 -24 -25 -9 -16 -15 -13
47 9 -23 -23 -8 -16 -15 -14
45 10 -21 -21 -7 -15 -15 -15
43 11 -19 -19 -6 -15 -16 -16
40 12 -17 -17 -5 -14 -16 -17
38 13 -15 -15 -3 -13 -17 -19
36 12 -14 -15 -2 -13 -17 -19
34 10 -13 -14 0 -12 -17 -19
32 9 -11 -14 1 -12 -18 -19
30 7 -10 -13 2 -11 -18 -19
28 5 -8 -12 3 -10 -19 -18
23 4 -8 -11 3 -10 -19 -18
19 3 -8 -9 4 -10 -19 -18
14 1 -7 -8 4 -10 -19 -18
9 0 -7 -6 5 -10 -19 -18
4 -3 -6 -4 6 -9 -20 -19
4 -5 -6 -4 6 -9 -20 -20
4 -7 -5 -4 6 -9 -20 -21
3 -9 -5 -5 5 -9 -21 -22
3 -11 -4 -5 5 -9 -21 -23
2 -14 -3 -6 4 -9 -22 -24
1 -14 -3 -6 4 -9 -22 -24
0 -14 -3 -6 4 -10 -23 -24
-2 -14 -3 -6 3 -10 -23 -25
-3 -14 -3 -6 3 -11 -24 -25
-5 -14 -3 -6 2 -12 -25 -26
-5 -14 -3 -6 2 -12 -24 -25
-5 -14 -2 -6 3 -11 -23 -24
-5 -14 -2 -6 4 -11 -22 -23
-5 -14 0 -6 5 -10 -21 -22
-6 -13 1 -5 6 -9 -20 -21
-6 -13 1 -5 6 -9 -20 -21
-5 -14 0 -5 5 -9 -20 -22
-4 -15 -2 -6 4 -9 -21 -22
-3 -16 -3 -6 3 -9 -21 -23
-2 -17 -4 -7 2 -10 -22 -24
-2 -16 -4 -7 2 -10 -22 -24
-2 -15 -4 -7 1 -11 -22 -24
-2 -14 -4 -7 1 -11 -22 -24
-2 -13 -4 -7 0 -12 -22 -24
-3 -12 -5 -8 -2 -13 -23 -25
-3 -13 -5 -8 -2 -13 -23 -25
-3 -14 -5 -8 -2 -13 -23 -25
-4 -15 -5 -8 -2 -13 -23 -25
-4 -16 -5 -8 -2 -13 -23 -25
-5 -17 -5 -8 -2 -12 -22 -25
-5 -16 -5 -8 -2 -12 -22 -25
-5 -15 -5 -8 -2 -12 -22 -25
-4 -14 -5 -7 0 -12 -22 -25
-4 -13 -5 -7 0 -12 -22 -25
-3 -12 -5 -6 1 -11 -22 -26
-3 -12 -5 -6 1 -11 -22 -26
-2 -12 -5 -5 1 -11 -22 -26
-2 -12 -4 -4 1 -11 -22 -26
0 -12 -4 -3 1 -11 -22 -26
1 -11 -3 -2 2 -10 -22 -25
1 -11 -3 -2 2 -10 -22 -24
0 -10 -3 -2 2 -10 -21 -23
0 -10 -2 -2 3 -9 -20 -22
-2 -9 -2 -2 3 -9 -19 -21
-3 -8 0 0 4 -8 -18 -19
0 -8 0 0 3 -8 -18 -20
3 -8 0 -2 2 -8 -19 -21
5 -8 0 -3 1 -9 -20 -22
8 -8 0 -4 0 -9 -21 -23
11 -9 -2 -5 -2 -10 -22 -25
11 -9 -3 -5 -2 -10 -22 -25
11 -10 -3 -6 -2 -11 -22 -25
10 -10 -4 -6 -2 -12 -22 -25
10 -11 -5 -7 -2 -13 -22 -25
10 -11 -6 -7 -2 -13 -22 -25
8 -12 -6 -7 -3 -14 -23 -25
7 -11 -5 -6 -3 -13 -23 -24
6 -10 -4 -5 -2 -12 -22 -23
5 -9 -3 -4 -2 -11 -22 -22
4 -9 -2 -3 -2 -11 -22 -22
1 -9 0 -2 0 -10 -21 -21
-2 -10 0 -2 1 -9 -20 -21
-4 -12 0 0 2 -9 -20 -20
-6 -13 0 0 3 -8 -19 -20
-8 -14 0 0 3 -8 -19 -20
-7 -13 1 1 4 -7 -18 -19
-5 -10 1 1 4 -7 -17 -19
-3 -8 2 1 4 -6 -16 -19
0 -5 2 1 4 -6 -15 -19
2 -3 2 1 4 -6 -15 -19
3 -2 3 1 4 -5 -14 -18
3 -3 3 1 4 -6 -15 -18
3 -4 2 1 4 -6 -15 -18
3 -5 2 1 4 -7 -16 -18
3 -6 2 1 4 -7 -16 -18
1 -8 1 0 4 -8 -17 -19
-2 -10 1 0 3 -9 -17 -20
-3 -11 1 0 3 -10 -18 -20
-5 -13 1 0 2 -11 -18 -21
-6 -14 1 0 2 -11 -18 -21
-7 -15 1 -2 1 -12 -18 -22
-7 -14 1 -2 1 -11 -17 -21
-7 -13 1 -2 2 -10 -16 -20
-7 -12 1 -2 2 -9 -15 -19
-7 -12 1 -2 2 -9 -14 -18
-8 -11 2 -2 3 -8 -13 -17
-8 -11 2 -2 3 -8 -14 -17
-8 -11 2 -2 3 -8 -14 -18
-8 -11 2 -2 3 -8 -15 -18
-8 -11 2 -2 3 -8 -15 -18
-8 -12 1 -2 2 -9 -16 -19
-6 -11 0 -3 1 -9 -16 -19
-4 -10 0 -3 0 -10 -16 -20
-2 -9 -2 -4 -2 -10 -16 -20
1 -8 -2 -4 -3 -10 -16 -20
1 -7 -3 -5 -4 -11 -17 -21
0 -8 -3 -5 -4 -11 -18 -21
-3 -9 -2 -5 -3 -12 -18 -21
-4 -10 -2 -5 -3 -12 -19 -21
-5 -11 -2 -5 -3 -12 -19 -21
-5 -12 0 -5 -2 -13 -20 -22
-3 -12 0 -6 -3 -14 -20 -22
0 -11 -2 -6 -4 -14 -21 -23
2 -11 -2 -7 -5 -15 -21 -23
3 -11 -2 -7 -5 -15 -21 -23
2 -11 -3 -8 -6 -16 -22 -24
-2 -12 -3 -7 -6 -15 -21 -23
-4 -14 -2 -6 -6 -15 -20 -22
-7 -15 -2 -5 -6 -14 -19 -21
-9 -16 -2 -5 -6 -14 -18 -20
-10 -17 0 -4 -5 -13 -17 -19
-10 -17 -2 -4 -5 -13 -17 -19
-10 -17 -2 -4 -5 -13 -17 -20
-10 -17 -3 -4 -5 -13 -17 -20
-10 -17 -3 -4 -5 -13 -17 -20
-8 -16 -4 -5 -6 -13 -17 -21
-6 -14 -3 -5 -5 -13 -16 -20
-4 -12 -2 -5 -4 -13 -16 -20
-2 -10 0 -5 -3 -13 -15 -19
0 -8 1 -5 -3 -13 -15 -19
0 -9 2 -6 -2 -12 -14 -18
-2 -11 2 -6 -2 -12 -14 -18
-3 -13 2 -5 -3 -12 -14 -17
-4 -15 2 -5 -3 -12 -14 -17
-5 -17 2 -5 -3 -12 -14 -17
-6 -18 1 -4 -4 -12 -15 -16
-6 -17 1 -4 -4 -12 -15 -17
-7 -16 1 -5 -4 -12 -15 -17
-7 -15 1 -5 -4 -12 -15 -18
-7 -15 1 -5 -4 -12 -15 -18
-7 -14 0 -6 -5 -12 -14 -19
-6 -14 -2 -7 -5 -12 -15 -19
-4 -15 -2 -7 -5 -12 -16 -20
-3 -15 -3 -8 -5 -12 -17 -20
-2 -15 -3 -8 -5 -12 -17 -20
0 -16 -4 -9 -6 -13 -18 -21
1 -15 -3 -9 -6 -13 -18 -21
1 -14 -3 -9 -6 -13 -17 -21
2 -13 -2 -9 -6 -13 -17 -21
2 -12 -2 -9 -6 -13 -17 -21
4 -11 0 -8 -6 -12 -16 -20
5 -11 0 -8 -6 -13 -16 -20
7 -11 0 -8 -6 -13 -16 -20
8 -11 0 -8 -6 -14 -16 -20
9 -11 0 -8 -6 -14 -16 -20
9 -10 0 -9 -6 -15 -16 -21
7 -11 0 -9 -6 -15 -16 -20
6 -11 0 -8 -6 -14 -15 -20
4 -12 0 -8 -6 -14 -15 -19
3 -12 0 -8 -6 -14 -15 -19
2 -13 1 -7 -7 -13 -14 -18
1 -13 0 -8 -7 -13 -15 -18
0 -13 0 -9 -8 -13 -15 -19
-2 -13 -2 -10 -8 -13 -16 -19
-2 -13 -2 -10 -8 -13 -16 -19
-2 -13 -3 -10 -9 -14 -17 -20
1 -13 -2 -9 -8 -14 -17 -20
2 -13 0 -8 -8 -13 -16 -20
4 -13 1 -7 -7 -13 -16 -20
5 -13 1 -6 -7 -13 -16 -20
6 -12 3 -4 -6 -11 -15 -19
6 -11 4 -2 -5 -10 -14 -19
6 -10 6 1 -5 -9 -13 -18
6 -9 7 3 -4 -8 -12 -18
6 -9 8 4 -4 -7 -12 -18
5 -8 9 5 -2 -6 -11 -17
4 -8 9 6 0 -6 -11 -16
4 -8 9 6 2 -6 -11 -15
3 -8 9 7 3 -6 -11 -14
3 -8 9 7 4 -6 -11 -13
3 -8 9 8 5 -5 -10 -12
4 -7 7 7 5 -5 -9 -12
5 -7 6 6 4 -4 -9 -12
6 -6 4 5 4 -4 -8 -12
7 -6 3 5 4 -4 -8 -12
8 -5 1 3 3 -3 -7 -12
8 -4 0 1 2 -4 -7 -12
8 -3 -2 0 1 -5 -7 -12
8 -2 -3 -3 0 -6 -7 -12
8 0 -4 -4 -2 -6 -7 -12
9 1 -5 -5 -3 -7 -8 -13
9 0 -4 -5 -3 -7 -8 -13
8 -2 -4 -6 -3 -7 -9 -14
8 -3 -3 -6 -3 -7 -9 -14
8 -3 -3 -6 -3 -7 -9 -14
8 -4 -2 -7 -4 -8 -10 -15
10 -4 -3 -8 -5 -8 -10 -15
11 -5 -3 -8 -6 -9 -10 -14
13 -5 -4 -9 -7 -9 -10 -14
14 -5 -4 -9 -7 -9 -10 -14
12 -6 -5 -10 -8 -10 -11 -13
7 -7 -5 -10 -8 -10 -12 -14
3 -8 -4 -10 -8 -10 -13 -15
-3 -9 -4 -10 -8 -10 -14 -16
-7 -10 -4 -10 -8 -10 -15 -16
-9 -12 -3 -9 -9 -11 -16 -17
-10 -14 -3 -9 -9 -12 -16 -17
-12 -16 -3 -8 -9 -12 -16 -17
-13 -17 -3 -8 -9 -13 -16 -17
-14 -19 -3 -8 -9 -13 -16 -17
-15 -19 -2 -7 -9 -14 -17 -18
-14 -17 -2 -7 -9 -14 -17 -18
-13 -15 -2 -7 -9 -14 -16 -18
-12 -14 -2 -7 -9 -14 -16 -18
-11 -12 -2 -7 -9 -14 -16 -18
-11 -11 -2 -7 -9 -13 -15 -18
-12 -12 -2 -7 -9 -13 -15 -18
-14 -13 0 -7 -9 -13 -15 -18
-15 -14 0 -7 -9 -13 -15 -18
-16 -15 0 -7 -9 -13 -15 -18
-18 -17 1 -6 -10 -13 -16 -18
-19 -20 1 -6 -10 -13 -15 -18
-21 -22 1 -6 -10 -13 -15 -18
-23 -24 1 -6 -10 -13 -14 -18
-24 -26 1 -6 -10 -13 -14 -18
-25 -27 4 -2 -8 -12 -14 -19
-25 -27 9 5 -4 -11 -15 -20
-26 -27 14 11 0 -11 -17 -22
-26 -27 18 16 4 -10 -19 -24
-26 -27 23 22 7 -10 -20 -25
-25 -23 32 37 21 2 -17 -25
-21 -19 42 55 38 13 -11 -24
-18 -14 51 72 55 25 -6 -22
-14 -9 61 89 71 36 0 -20
-11 -4 70 106 88 49 6 -19
10 12 71 114 101 64 19 -7
32 29 70 120 114 79 34 8
56 48 69 127 128 95 50 22
78 65 68 133 140 110 65 36
101 82 67 139 153 126 79 51
116 111 61 134 157 143 107 78
130 142 54 127 160 161 136 110
144 173 48 119 162 179 164 141
157 203 40 112 165 197 193 172
172 234 33 105 169 215 222 202
150 234 23 77 147 205 223 207
122 228 11 47 119 191 217 207
94 222 0 15 92 177 211 207
66 216 -12 -16 64 162 204 207
38 210 -24 -47 37 148 198 207
18 181 -29 -62 15 118 171 183
-2 148 -34 -75 -8 86 138 153
-21 115 -39 -89 -29 53 106 122
-40 82 -44 -102 -51 20 74 93
-60 49 -49 -115 -72 -13 42 63
-64 32 -48 -110 -75 -22 27 48
-65 18 -45 -102 -74 -27 17 34
-66 4 -41 -93 -73 -33 6 21
-68 -11 -38 -83 -71 -38 -6 8
-69 -24 -35 -75 -70 -45 -17 -6
-69 -28 -29 -64 -61 -41 -19 -9
-66 -29 -23 -54 -52 -35 -18 -10
-64 -30 -17 -43 -41 -29 -17 -11
-62 -31 -11 -31 -32 -23 -16 -12
-60 -32 -5 -20 -22 -17 -15 -13
-58 -33 -4 -17 -20 -16 -14 -14
-56 -33 -3 -16 -19 -16 -13 -14
-54 -33 -2 -15 -18 -16 -12 -14
-53 -33 0 -13 -17 -16 -11 -14
-51 -33 0 -12 -16 -16 -11 -14
-50 -33 1 -11 -15 -15 -10 -14
-51 -34 1 -11 -15 -15 -10 -14
-52 -35 2 -11 -15 -15 -11 -14
-53 -36 2 -11 -15 -15 -11 -14
-54 -36 2 -11 -15 -15 -11 -14
-55 -37 3 -11 -16 -15 -12 -15
-56 -38 3 -10 -16 -15 -12 -16
-57 -38 3 -9 -15 -15 -13 -16
-58 -39 3 -7 -15 -15 -13 -17
-58 -39 3 -6 -15 -15 -13 -17
-59 -40 4 -5 -14 -15 -14 -18
-59 -39 4 -5 -14 -14 -13 -17
-59 -38 5 -5 -13 -14 -12 -16
-59 -37 5 -5 -13 -13 -11 -15
-59 -36 5 -5 -13 -13 -10 -15
-57 -35 6 -5 -12 -12 -9 -14
-55 -36 6 -5 -12 -12 -10 -15
-53 -37 5 -5 -12 -12 -10 -15
-52 -38 5 -5 -12 -12 -11 -16
-50 -38 5 -5 -12 -12 -11 -16
-49 -39 4 -4 -13 -12 -12 -17
-50 -39 4 -5 -13 -12 -12 -16
-50 -39 4 -5 -14 -13 -11 -16
-51 -39 4 -6 -14 -13 -11 -15
-51 -39 4 -6 -14 -13 -11 -15
-53 -40 3 -7 -15 -14 -10 -14
-55 -40 2 -7 -15 -14 -10 -14
-57 -39 2 -7 -14 -14 -11 -15
-58 -39 1 -7 -14 -14 -11 -15
-60 -39 1 -7 -14 -14 -11 -15
-60 -38 0 -7 -13 -15 -12 -16
-59 -37 0 -7 -13 -15 -11 -14
-57 -36 1 -7 -13 -15 -10 -13
-55 -35 1 -7 -13 -15 -9 -12
-54 -35 1 -7 -13 -15 -9 -11
-54 -35 2 -8 -13 -14 -8 -10
-57 -36 2 -8 -12 -12 -8 -10
-59 -38 2 -8 -11 -11 -7 -10
-62 -40 2 -8 -10 -10 -7 -10
-64 -41 2 -8 -10 -9 -7 -10
-64 -41 3 -8 -9 -8 -6 -11
-62 -39 3 -8 -9 -8 -5 -10
-59 -37 3 -8 -10 -8 -4 -9
-57 -35 3 -8 -10 -8 -3 -8
-55 -33 3 -8 -10 -8 -2 -8
-54 -32 2 -8 -11 -8 0 -7
-56 -32 2 -8 -10 -7 0 -6
-57 -33 2 -8 -10 -6 0 -5
-58 -33 2 -8 -9 -5 0 -4
-59 -33 2 -8 -9 -5 0 -3
-60 -34 1 -8 -8 -4 1 -2
-58 -32 1 -8 -7 -4 2 1
-57 -31 1 -8 -7 -4 3 2
-56 -30 1 -8 -6 -4 4 3
-55 -29 1 -8 -6 -4 5 4
-52 -27 1 -8 -5 -3 6 5
-50 -26 1 -8 -5 -2 7 5
-47 -25 0 -8 -4 0 8 5
-45 -23 0 -8 -4 1 9 5
-41 -22 0 -8 -4 2 10 5
-39 -21 -2 -7 -3 3 11 6
-37 -21 -3 -8 -3 4 13 7
-35 -22 -4 -9 -3 5 14 8
-34 -22 -5 -10 -3 6 15 10
-32 -22 -5 -10 -3 7 16 11
-31 -23 -6 -11 -4 8 17 12
-30 -23 -7 -12 -4 8 17 12
-29 -22 -8 -13 -4 8 17 12
-28 -22 -9 -14 -4 8 17 12
-28 -22 -10 -14 -4 8 17 12
-27 -21 -11 -15 -4 8 18 13
-29 -19 -11 -15 -4 9 20 15
-30 -18 -11 -14 -4 10 21 17
-31 -17 -11 -14 -4 11 23 19
-32 -16 -11 -14 -4 12 25 21
-29 -14 -12 -13 -4 13 26 22
-23 -12 -13 -14 -5 13 26 22
-17 -10 -14 -15 -5 13 26 22
-12 -8 -16 -16 -6 13 26 22
-6 -6 -17 -17 -6 13 26 22
-4 -5 -18 -18 -7 12 27 21
-5 -5 -19 -19 -8 12 28 22
-5 -5 -20 -19 -8 12 29 22
-6 -5 -21 -20 -9 12 30 23
-6 -5 -22 -20 -9 12 30 23
-6 -6 -23 -21 -10 13 31 25
-4 -4 -23 -20 -10 13 32 26
-3 -3 -23 -19 -9 13 32 27
0 -2 -23 -18 -9 13 33 29
2 0 -23 -18 -9 13 33 30
3 1 -23 -17 -8 12 34 31
4 0 -23 -17 -8 12 34 30
4 0 -23 -17 -9 12 34 30
5 -2 -23 -17 -9 12 34 29
5 -2 -23 -17 -9 12 34 29
5 -4 -24 -18 -10 13 33 27
3 -6 -23 -17 -10 13 32 26
0 -9 -22 -16 -9 13 30 25
-3 -11 -21 -15 -9 13 28 23
-5 -13 -21 -15 -9 13 27 22
-7 -14 -19 -13 -8 13 26 21
-9 -14 -17 -11 -7 13 26 21
-11 -14 -15 -10 -6 12 25 20
-13 -14 -13 -8 -6 12 25 20
-15 -14 -11 -6 -5 12 25 20
-18 -15 -10 -5 -4 11 24 18
-20 -17 -8 -4 -3 11 23 17
-23 -18 -7 -3 -3 10 22 16
-26 -20 -6 -2 -2 10 22 14
-29 -22 -5 0 -2 10 21 13
-30 -23 -4 1 0 9 19 11
-30 -23 -4 1 0 9 18 10
-31 -23 -4 1 0 8 16 8
-31 -23 -4 1 0 8 15 7
-31 -23 -4 1 0 8 13 5
-32 -25 -4 0 -2 7 12 4
-33 -28 -3 1 -2 7 12 3
-34 -30 -3 2 -2 7 11 2
-34 -32 -2 2 -2 7 11 1
-35 -35 -2 3 -2 7 11 0
-36 -36 0 4 0 6 10 -2
-37 -36 -2 3 0 6 10 0
-37 -37 -2 2 0 6 10 1
-38 -37 -3 2 0 6 10 1
-38 -37 -3 1 0 6 10 2
-39 -38 -4 0 -2 5 11 3
-39 -39 -4 -2 -2 4 11 2
-38 -40 -4 -2 -2 3 10 1
-38 -40 -4 -3 -2 3 10 0
-38 -41 -4 -3 -2 2 10 -2
-38 -43 -4 -4 -3 1 9 -3
-40 -44 -5 -4 -4 1 8 -4
-43 -45 -6 -4 -4 1 7 -4
-45 -45 -6 -4 -5 1 7 -5
-47 -46 -7 -4 -5 1 6 -5
-47 -47 -8 -5 -6 1 5 -6
-46 -47 -8 -5 -6 1 4 -7
-44 -46 -8 -5 -5 1 4 -7
-43 -46 -8 -5 -5 1 3 -8
-40 -46 -8 -5 -5 1 3 -8
-39 -45 -7 -6 -4 2 2 -9
-39 -45 -8 -7 -5 1 2 -9
-39 -44 -8 -7 -5 0 2 -9
-39 -44 -9 -8 -6 0 2 -9
-39 -44 -9 -8 -6 -2 2 -9
-38 -43 -10 -9 -7 -3 2 -9
-37 -43 -10 -9 -7 -3 2 -9
-36 -43 -10 -9 -7 -3 1 -9
-36 -43 -10 -9 -7 -3 1 -9
-35 -43 -10 -9 -7 -3 1 -9
-34 -41 -9 -9 -7 -2 0 -10
-34 -41 -10 -10 -7 -2 0 -10
-33 -41 -10 -10 -7 -2 0 -10
-33 -41 -11 -11 -7 -2 0 -10
-33 -41 -11 -11 -7 -2 0 -10
-32 -41 -12 -12 -6 -2 0 -10
-32 -41 -12 -11 -6 -2 0 -10
-32 -41 -11 -11 -6 -2 0 -10
-32 -41 -11 -10 -6 -2 0 -10
-32 -41 -11 -10 -6 -2 0 -10
-32 -41 -10 -9 -5 0 0 -9
-32 -40 -10 -10 -5 0 0 -9
-32 -39 -11 -10 -6 -2 0 -10
-32 -39 -11 -11 -6 -2 0 -10
-32 -38 -11 -11 -6 -2 0 -10
-32 -38 -12 -12 -7 -3 -2 -11
-32 -41 -12 -12 -7 -3 -2 -11
-33 -44 -11 -11 -7 -3 -2 -11
-33 -46 -11 -11 -7 -3 -2 -11
-33 -49 -11 -11 -7 -3 -2 -11
-34 -49 -10 -10 -6 -2 -2 -11
-33 -47 -10 -11 -6 -2 -3 -11
-32 -45 -11 -11 -7 -3 -3 -11
-32 -41 -11 -12 -7 -3 -4 -11
-31 -39 -11 -12 -7 -3 -4 -11
-30 -38 -12 -13 -8 -4 -5 -12
-30 -39 -12 -13 -8 -4 -5 -12
-30 -40 -12 -13 -7 -4 -6 -13
-30 -41 -12 -13 -7 -4 -6 -13
-30 -43 -12 -13 -7 -4 -6 -13
-31 -44 -13 -14 -6 -5 -7 -14
-32 -43 -12 -13 -6 -5 -6 -14
-32 -43 -12 -13 -6 -4 -6 -13
-33 -41 -11 -12 -6 -4 -5 -13
-33 -41 -11 -12 -6 -4 -5 -13
-32 -40 -10 -11 -6 -3 -4 -12
-29 -40 -11 -12 -7 -5 -5 -14
-25 -40 -12 -13 -8 -6 -6 -15
-22 -40 -12 -13 -8 -7 -7 -16
-19 -40 -13 -14 -9 -8 -8 -17
-17 -39 -14 -15 -10 -8 -9 -17
-16 -36 -13 -14 -8 -6 -7 -16
-15 -33 -12 -13 -7 -5 -6 -14
-15 -30 -11 -12 -5 -3 -4 -13
-14 -27 -10 -11 -4 0 -3 -11
-13 -25 -9 -10 -3 1 -2 -10
-13 -25 -9 -10 -3 1 -2 -11
-13 -25 -9 -10 -3 1 -2 -11
-13 -25 -9 -10 -3 1 -2 -12
-13 -25 -9 -10 -3 1 -2 -12
-12 -24 -8 -9 -4 1 -3 -13
-12 -22 -8 -9 -4 1 -4 -13
-12 -20 -8 -9 -4 0 -4 -13
-12 -17 -8 -9 -4 0 -5 -13
-12 -15 -8 -9 -4 0 -5 -13
-11 -14 -7 -8 -5 -2 -6 -12
-9 -15 -7 -8 -5 -2 -5 -12
-7 -16 -6 -8 -4 -2 -4 -12
-4 -16 -6 -8 -4 -2 -4 -12
-2 -17 -6 -8 -4 -2 -3 -12
0 -18 -5 -7 -3 -3 -2 -11
1 -18 -5 -8 -4 -3 -3 -11
2 -17 -6 -9 -5 -4 -5 -12
2 -17 -7 -9 -5 -5 -6 -12
3 -17 -7 -10 -6 -5 -7 -12
2 -16 -7 -11 -7 -6 -8 -13
-2 -16 -5 -10 -6 -5 -8 -13
-5 -16 -2 -8 -4 -4 -7 -12
-8 -16 1 -7 -3 -4 -7 -12
-11 -16 4 -6 -2 -3 -7 -12
-12 -16 4 -5 0 -2 -6 -11
-10 -17 2 -6 -3 -3 -6 -11
-8 -19 0 -7 -4 -5 -7 -12
-6 -20 -4 -8 -6 -6 -7 -12
-4 -21 -6 -9 -7 -7 -7 -12
-2 -21 -7 -10 -8 -8 -8 -13
1 -18 -6 -9 -8 -7 -8 -13
3 -15 -5 -8 -7 -6 -8 -12
5 -12 -5 -7 -6 -6 -8 -12
7 -9 -4 -6 -6 -5 -8 -12
7 -7 -3 -5 -5 -4 -8 -11
4 -9 -3 -5 -5 -5 -8 -11
1 -10 -3 -6 -5 -6 -8 -11
-3 -12 -3 -6 -5 -7 -8 -11
-6 -13 -3 -6 -5 -8 -8 -11
-8 -14 -3 -7 -4 -9 -7 -10
-8 -15 -3 -7 -4 -9 -7 -11
-8 -16 -3 -6 -4 -8 -8 -12
-8 -17 -3 -6 -4 -8 -8 -12
-8 -18 -3 -6 -4 -8 -8 -13
-9 -19 -3 -5 -4 -7 -9 -14
-9 -19 -3 -5 -4 -7 -9 -13
-9 -18 -2 -5 -4 -6 -8 -12
-9 -17 0 -5 -4 -6 -8 -12
-9 -17 0 -5 -4 -6 -8 -11
-8 -16 1 -4 -3 -5 -7 -10
-8 -15 1 -4 -3 -5 -8 -11
-7 -14 0 -5 -3 -6 -10 -13
-6 -14 0 -5 -3 -7 -11 -14
-6 -13 0 -5 -3 -7 -12 -15
-5 -12 -2 -6 -4 -8 -13 -16
-5 -12 0 -4 -3 -8 -12 -15
-6 -12 1 -3 -2 -7 -11 -13
-6 -12 2 0 -2 -7 -10 -12
-6 -12 3 1 0 -7 -9 -11
-7 -11 5 2 1 -6 -8 -10
-6 -10 6 4 2 -5 -8 -10
-4 -9 8 5 4 -4 -8 -10
-3 -9 10 7 5 -3 -8 -10
-2 -8 12 8 6 -2 -8 -10
0 -7 13 9 7 0 -7 -11
0 -7 12 9 7 0 -7 -11
0 -6 10 9 7 0 -6 -10
0 -6 9 9 7 0 -6 -9
0 -6 8 9 7 0 -6 -9
-2 -5 7 10 6 0 -5 -8
-2 -5 7 10 6 1 -5 -8
-3 -4 7 11 7 2 -4 -7
-3 -3 7 11 8 3 -3 -6
-3 -3 7 11 8 4 -3 -6
-4 -2 5 11 8 4 -2 -5
-4 -4 3 8 6 3 -2 -5
-5 -6 0 5 3 1 -2 -5
-5 -7 -3 2 1 -2 -2 -5
-5 -9 -6 -2 -3 -4 -2 -5
-6 -10 -7 -4 -4 -5 -3 -4
-6 -10 -7 -4 -4 -5 -4 -4
-5 -9 -7 -4 -5 -6 -5 -5
-5 -8 -7 -4 -5 -6 -6 -6
-5 -8 -7 -4 -5 -6 -7 -6
-4 -7 -8 -4 -6 -7 -8 -7
-4 -8 -8 -5 -7 -8 -8 -8
-5 -9 -8 -6 -8 -9 -8 -9
-6 -9 -8 -6 -8 -10 -8 -10
-6 -10 -8 -7 -9 -11 -8 -11
-8 -11 -7 -8 -10 -12 -9 -12
-11 -12 -6 -7 -10 -12 -10 -12
-13 -13 -5 -6 -9 -12 -12 -13
-16 -13 -5 -6 -9 -12 -13 -14
-18 -14 -4 -5 -9 -12 -14 -14
-20 -15 -3 -4 -8 -12 -15 -15
-20 -17 -3 -4 -8 -13 -16 -16
-21 -19 -3 -5 -9 -14 -17 -17
-21 -20 -3 -5 -9 -14 -17 -17
-21 -22 -3 -5 -9 -15 -18 -18
-22 -23 -3 -6 -10 -16 -19 -19
-23 -23 -3 -6 -10 -16 -19 -19
-24 -24 -4 -7 -11 -17 -20 -19
-25 -25 -4 -8 -12 -17 -20 -19
-26 -25 -4 -8 -12 -17 -20 -19
-27 -25 -5 -9 -13 -18 -21 -19
-26 -24 -5 -9 -13 -18 -21 -19
-24 -22 -4 -8 -13 -17 -20 -19
-23 -20 -3 -7 -13 -17 -19 -19
-22 -18 -3 -7 -13 -17 -19 -19
-21 -17 -2 -6 -12 -16 -18 -18
-21 -18 0 -5 -11 -16 -18 -18
-22 -20 1 -4 -10 -15 -17 -18
-23 -21 1 -4 -10 -14 -16 -18
-23 -22 2 -3 -9 -14 -16 -18
-24 -23 6 3 -6 -13 -16 -18
-26 -25 11 11 -2 -13 -19 -22
-27 -27 16 18 3 -13 -22 -25
-29 -28 21 26 7 -13 -25 -29
-30 -30 26 33 11 -13 -28 -32
-27 -26 34 49 25 -4 -25 -31
-20 -16 45 68 47 12 -15 -25
-13 -6 55 89 68 28 -6 -19
-6 5 65 109 90 45 5 -12
2 14 75 129 111 61 14 -6
19 31 80 141 129 79 31 9
44 54 80 146 143 100 54 30
68 75 79 151 157 120 75 51
93 98 78 157 172 141 98 71
116 119 78 162 186 161 119 93
131 145 71 155 191 179 145 118
136 174 60 135 189 194 173 148
142 201 49 115 186 210 200 179
147 229 37 96 184 225 229 209
153 258 26 76 182 240 257 238
139 258 14 49 157 226 254 246
107 236 0 15 117 188 225 236
75 215 -14 -19 77 150 196 226
44 192 -28 -52 37 112 168 217
12 171 -43 -86 -3 74 140 206
-7 145 -50 -104 -28 46 113 183
-16 117 -52 -110 -43 24 89 148
-25 90 -55 -116 -58 4 65 113
-34 62 -57 -122 -73 -18 40 79
-44 33 -59 -129 -88 -38 16 45
-47 17 -58 -123 -91 -49 3 25
-45 8 -51 -108 -81 -49 -3 18
-43 0 -45 -94 -72 -49 -7 11
-40 -9 -37 -78 -64 -49 -12 4
-38 -18 -30 -63 -55 -49 -16 -4
-36 -22 -25 -52 -48 -46 -19 -9
-33 -22 -21 -43 -41 -40 -19 -11
-29 -21 -16 -34 -34 -35 -19 -13
-26 -20 -12 -26 -28 -30 -19 -15
-23 -20 -7 -17 -21 -26 -19 -17
-21 -19 -5 -13 -18 -23 -19 -18
-23 -20 -4 -12 -17 -23 -19 -18
-25 -21 -3 -11 -16 -22 -18 -17
-26 -21 -3 -10 -16 -21 -17 -16
-28 -22 -2 -9 -15 -21 -17 -16
-29 -23 0 -8 -14 -20 -16 -15
-28 -23 1 -6 -14 -20 -16 -15
-27 -24 2 -5 -13 -20 -17 -16
-27 -24 2 -4 -13 -20 -17 -16
-26 -24 3 -2 -13 -20 -17 -16
-25 -25 4 0 -12 -21 -18 -17
-25 -24 3 -2 -12 -21 -18 -17
-25 -23 2 -3 -13 -21 -18 -17
-25 -22 2 -4 -14 -21 -18 -17
-25 -21 1 -5 -14 -21 -18 -17
-24 -20 0 -6 -15 -20 -18 -18
-24 -22 1 -4 -15 -20 -18 -18
-24 -23 2 -3 -15 -20 -17 -18
-24 -24 2 -2 -15 -20 -17 -18
-24 -26 3 1 -15 -20 -17 -18
-25 -27 4 2 -14 -21 -16 -17
-26 -27 4 2 -14 -21 -16 -17
-27 -26 4 1 -13 -20 -16 -17
-28 -25 4 1 -12 -20 -16 -17
-29 -25 4 1 -12 -20 -16 -17
-30 -24 4 0 -11 -19 -15 -16
-28 -24 4 0 -11 -19 -15 -16
-27 -24 4 1 -11 -19 -15 -16
-26 -24 4 1 -11 -19 -15 -16
-24 -24 4 1 -11 -19 -15 -16
-23 -23 5 2 -11 -19 -14 -15
-24 -24 5 2 -11 -19 -14 -15
-25 -25 5 2 -11 -18 -13 -14
-26 -26 5 2 -11 -18 -12 -14
-27 -27 5 2 -11 -18 -12 -14
-27 -28 4 2 -10 -17 -11 -13
-25 -27 4 2 -10 -17 -11 -13
-23 -25 3 1 -11 -18 -12 -14
-21 -24 2 0 -11 -18 -13 -15
-19 -23 2 0 -11 -18 -13 -15
-17 -22 1 -2 -12 -19 -14 -16
-17 -21 1 -2 -12 -19 -14 -14
-16 -19 0 -2 -12 -19 -13 -13
-15 -18 0 -2 -12 -19 -13 -12
-15 -17 0 -2 -12 -19 -13 -10
-14 -16 -2 -3 -12 -18 -12 -9
-15 -16 -2 -3 -12 -18 -11 -9
-16 -16 -2 -3 -12 -17 -10 -9
-17 -16 -2 -3 -12 -16 -10 -9
-18 -16 -2 -3 -12 -16 -9 -9
-19 -16 -2 -3 -11 -15 -8 -8
-17 -16 -2 -3 -11 -15 -8 -8
-15 -17 -3 -4 -10 -14 -7 -7
-14 -17 -3 -4 -10 -14 -6 -7
-12 -17 -3 -4 -10 -14 -6 -7
-10 -17 -4 -5 -9 -13 -5 -6
-8 -15 -4 -4 -9 -12 -3 -4
-6 -13 -4 -3 -9 -11 -2 -2
-4 -11 -4 -3 -9 -10 0 0
-2 -9 -4 -2 -9 -9 2 2
0 -8 -3 0 -9 -8 3 3
-2 -8 -3 0 -8 -7 4 3
-3 -8 -3 0 -7 -6 5 4
-3 -8 -3 0 -6 -6 5 4
-4 -8 -3 0 -5 -5 6 4
-4 -9 -4 -2 -4 -4 7 5
1 -8 -6 -3 -4 -4 8 5
5 -7 -8 -3 -4 -4 8 5
9 -6 -10 -4 -5 -4 9 6
13 -5 -12 -5 -5 -4 10 6
16 -3 -13 -6 -6 -3 11 7
18 0 -13 -7 -6 -2 13 9
21 2 -13 -7 -6 0 14 10
24 5 -14 -8 -6 2 15 12
26 7 -14 -9 -6 3 17 14
28 9 -15 -10 -6 4 18 15
28 9 -16 -10 -6 4 18 15
28 9 -16 -10 -6 4 18 15
28 9 -17 -11 -6 4 19 16
28 9 -18 -11 -6 4 19 16
29 8 -19 -12 -6 5 20 17
30 10 -19 -12 -6 7 22 19
31 11 -19 -12 -6 8 24 21
33 12 -19 -12 -5 9 26 23
34 14 -19 -12 -5 11 28 25
36 15 -20 -13 -4 12 29 26
38 16 -20 -13 -4 12 29 27
42 17 -20 -13 -4 12 30 28
45 19 -20 -12 -4 12 31 29
47 20 -20 -12 -4 12 31 30
49 21 -21 -11 -3 12 32 31
48 23 -21 -11 -3 12 32 31
47 24 -21 -11 -3 12 32 31
46 25 -21 -11 -3 12 33 31
45 27 -21 -11 -3 12 33 31
44 27 -21 -12 -4 13 34 31
42 25 -20 -10 -4 13 34 31
39 23 -19 -9 -4 13 34 31
37 20 -17 -8 -4 13 34 31
35 18 -16 -6 -4 13 34 31
34 16 -15 -5 -3 14 33 30
34 17 -13 -3 0 14 33 30
34 18 -12 -2 1 14 33 30
34 19 -11 0 3 14 33 30
34 20 -9 2 5 14 33 30
32 20 -8 3 6 15 33 30
27 18 -6 5 6 15 31 29
23 15 -5 6 6 14 30 28
19 12 -3 8 7 13 29 27
15 10 0 10 7 13 27 26
12 8 1 11 8 12 26 25
11 9 2 12 9 13 26 24
10 10 3 12 9 13 26 23
9 12 4 13 10 14 26 22
8 13 5 14 11 15 26 21
6 13 6 15 12 16 26 20
3 10 6 16 12 16 25 19
-2 7 7 17 12 15 24 18
-5 4 8 18 12 14 23 17
-9 1 8 19 12 14 22 16
-11 -2 9 20 11 13 21 15
-11 0 10 20 12 13 21 15
-11 1 10 20 12 13 21 15
-11 3 11 20 13 13 20 15
-11 4 12 20 14 13 20 15
-10 5 13 21 15 12 19 15
-11 3 13 21 15 12 19 15
-12 1 13 21 14 12 19 15
-13 -2 14 22 13 11 18 14
-14 -4 14 22 13 11 18 14
-15 -6 15 23 12 10 17 13
-16 -6 15 22 12 10 17 13
-16 -6 14 22 12 10 17 12
-17 -6 13 21 12 11 16 11
-18 -6 13 20 12 11 16 11
-19 -7 12 19 11 12 15 10
-19 -6 12 19 12 12 15 11
-19 -6 12 19 12 12 16 11
-20 -5 12 19 13 12 17 12
-20 -4 12 19 14 12 17 13
-21 -3 13 20 15 12 18 14
-19 -5 12 18 13 11 17 13
-18 -6 11 16 12 10 16 12
-17 -7 9 14 11 9 15 11
-15 -9 8 13 9 8 14 10
-14 -10 7 11 8 7 13 9
-15 -10 7 11 8 7 13 9
-16 -10 8 12 8 7 13 8
-17 -10 9 13 8 7 13 7
-18 -10 9 13 8 7 13 7
-19 -9 10 14 8 8 13 6
-18 -7 10 14 9 9 13 7
-17 -6 10 14 10 10 13 8
-16 -4 10 14 11 11 14 9
-15 -2 10 14 12 12 14 10
-14 0 11 15 13 13 15 11
-14 0 11 15 13 13 15 11
-15 -2 11 15 13 13 15 11
-16 -3 11 15 13 12 15 11
-16 -3 11 15 13 12 15 11
-17 -4 12 15 12 11 14 11
-17 -4 12 15 12 11 14 11
-17 -4 12 15 12 11 14 11
-17 -5 11 15 12 11 14 11
-17 -5 11 15 12 11 14 11
-16 -6 10 16 12 10 14 10
-16 -6 10 16 12 10 13 9
-15 -5 10 16 12 10 12 9
-14 -4 10 16 12 10 11 8
-14 -4 10 16 12 10 10 7
-13 -3 10 15 12 10 9 6
-14 -3 10 15 12 10 9 6
-15 -3 10 15 12 10 9 6
-17 -4 10 16 13 10 10 7
-18 -4 10 16 13 10 10 7
-19 -5 11 17 14 11 11 8
-19 -5 11 17 14 11 11 8
-19 -5 11 17 14 10 11 7
-19 -5 11 17 14 9 10 6
-19 -5 11 17 14 9 10 6
-20 -5 10 16 13 8 9 5
-18 -5 10 16 13 8 9 6
-17 -5 10 16 13 8 9 6
-15 -4 10 16 13 8 9 7
-13 -4 10 16 13 8 9 8
-12 -3 10 16 14 8 9 9
-12 -3 10 16 14 8 9 8
-13 -4 10 16 13 8 9 8
-14 -5 10 15 12 7 9 7
-14 -5 10 15 12 7 9 6
-15 -6 9 14 11 6 8 5
-14 -6 9 13 10 6 7 5
-14 -6 9 12 10 5 6 4
-13 -5 8 11 9 4 5 3
-12 -5 8 10 8 4 4 3
-11 -4 7 9 7 3 3 2
-13 -6 7 9 7 3 3 1
-15 -8 7 8 7 2 3 0
-17 -10 6 7 6 1 3 -3
-18 -12 6 7 6 1 3 -4
-20 -14 5 6 5 0 2 -5
-19 -14 5 6 5 0 2 -5
-18 -14 5 7 6 1 2 -5
-17 -14 5 8 7 2 2 -4
-16 -14 5 8 7 2 2 -4
-15 -15 6 9 8 3 3 -3
-15 -15 6 9 8 3 3 -3
-16 -14 5 9 8 3 3 -3
-17 -13 4 8 7 3 3 -4
-17 -13 4 8 7 3 3 -4
-18 -12 3 7 6 2 3 -5
-18 -12 3 7 6 2 3 -5
-17 -12 3 7 6 2 3 -5
-16 -12 3 6 6 2 2 -5
-16 -12 3 6 6 2 2 -5
-15 -12 4 5 5 1 1 -5
-17 -12 4 5 5 1 1 -5
-19 -12 4 5 5 1 1 -6
-21 -13 4 6 5 0 0 -7
-23 -13 4 6 5 0 0 -7
-25 -14 4 7 4 -2 -2 -8
-25 -14 3 6 3 -3 -2 -9
-25 -15 3 5 2 -4 -3 -9
-24 -16 2 3 0 -5 -4 -10
-24 -16 1 2 -2 -6 -4 -11
-23 -17 0 1 -3 -7 -5 -12
-21 -17 1 1 -3 -7 -5 -11
-19 -17 2 2 -3 -7 -5 -10
-17 -17 4 3 -3 -6 -5 -8
-15 -17 5 3 -3 -6 -5 -7
-13 -16 6 4 -2 -5 -4 -6
-15 -16 6 4 -2 -5 -4 -6
-17 -16 5 4 -2 -5 -4 -7
-19 -15 4 4 -2 -6 -4 -8
-21 -15 4 4 -2 -6 -4 -8
-23 -14 3 3 -2 -7 -4 -9
-21 -14 3 3 -2 -7 -5 -10
-20 -14 3 3 -2 -7 -5 -12
-18 -14 3 3 -2 -7 -6 -13
-17 -14 3 3 -2 -7 -7 -15
-15 -14 2 2 -2 -8 -8 -16
-16 -15 2 2 -2 -8 -8 -15
-16 -15 2 2 -2 -8 -8 -14
-17 -16 3 2 -3 -7 -7 -13
-18 -17 3 2 -3 -7 -7 -12
-19 -18 4 3 -4 -6 -6 -11
-19 -17 4 3 -4 -6 -6 -11
-19 -17 4 3 -4 -7 -6 -11
-18 -16 4 3 -4 -8 -6 -12
-18 -15 4 3 -4 -8 -6 -12
-17 -14 4 3 -4 -9 -6 -13
-17 -14 5 4 -3 -8 -6 -13
-17 -13 5 4 -2 -8 -6 -13
-17 -12 6 5 0 -7 -6 -13
-17 -12 7 6 1 -6 -6 -13
-18 -11 8 7 2 -5 -5 -12
-17 -11 8 8 2 -5 -5 -12
-16 -11 9 9 3 -5 -5 -12
-15 -10 10 10 4 -4 -5 -12
-14 -10 10 11 4 -4 -5 -12
-13 -9 11 12 5 -3 -4 -11
-12 -8 11 13 6 -2 -4 -11
-11 -7 12 14 7 -2 -3 -10
-9 -6 13 15 8 0 -2 -9
-8 -5 13 16 9 1 -2 -9
-7 -4 14 17 10 2 0 -8
-7 -4 13 16 10 2 0 -8
-6 -4 13 16 10 2 0 -8
-5 -3 12 15 9 2 0 -7
-5 -3 11 14 9 2 0 -7
-4 -2 10 12 8 2 0 -6
-7 -3 8 9 7 1 0 -6
-10 -4 7 6 6 1 0 -6
-12 -5 5 3 4 0 -2 -7
-15 -6 4 0 3 -2 -2 -7
-16 -7 2 -4 2 -3 -3 -8
-13 -5 2 -3 2 -3 -3 -8
-9 -3 2 -2 1 -3 -3 -8
-6 0 1 0 1 -4 -3 -8
-2 2 1 2 0 -4 -3 -8
2 4 0 3 -2 -5 -4 -8
-2 1 0 2 -3 -5 -4 -9
-5 -3 0 2 -4 -6 -5 -9
-8 -6 0 1 -5 -6 -5 -10
-11 -9 0 0 -7 -7 -6 -11
-14 -12 0 -2 -8 -8 -7 -12
-14 -14 0 -2 -8 -9 -9 -13
-14 -16 0 -3 -8 -10 -11 -14
-15 -18 0 -3 -8 -11 -12 -15
-15 -20 0 -4 -8 -12 -14 -17
-16 -22 0 -5 -9 -13 -16 -18
-17 -22 0 -5 -9 -14 -16 -18
-19 -21 0 -5 -10 -14 -17 -18
-20 -21 0 -5 -10 -15 -17 -18
-22 -20 0 -5 -11 -16 -18 -18
-23 -19 0 -5 -12 -17 -19 -19
-23 -20 0 -5 -12 -17 -19 -19
-23 -20 0 -5 -12 -17 -19 -20
-23 -21 0 -5 -12 -17 -19 -20
-23 -22 0 -5 -12 -17 -19 -21
-24 -23 1 -5 -12 -17 -20 -22
-24 -23 1 -6 -12 -17 -20 -22
-24 -24 0 -6 -12 -17 -20 -22
-24 -24 0 -7 -13 -17 -20 -22
-24 -25 -2 -8 -13 -17 -20 -22
-25 -26 -3 -9 -14 -18 -21 -23
-24 -24 -2 -8 -13 -17 -21 -23
-23 -23 0 -7 -12 -17 -21 -23
-22 -21 1 -6 -11 -16 -21 -23
-20 -20 3 -4 -10 -15 -21 -23
-20 -19 5 -2 -9 -14 -20 -22
-23 -22 9 5 -6 -14 -21 -24
-26 -26 13 10 -3 -14 -22 -26
-30 -29 17 15 1 -14 -23 -28
-33 -33 21 21 4 -14 -25 -30
-33 -34 27 30 12 -11 -25 -31
-24 -24 37 49 29 3 -19 -27
-14 -14 48 68 48 16 -13 -23
-4 -5 59 87 66 29 -7 -19
7 6 69 106 84 43 -2 -15
21 18 77 120 100 57 8 -8
44 35 75 126 112 72 23 6
66 53 73 132 125 88 39 20
88 69 72 137 138 104 55 34
110 87 70 143 150 119 71 49
131 108 66 143 159 134 90 67
145 136 55 127 158 148 115 95
160 164 45 110 157 162 141 123
176 192 34 95 156 176 167 151
190 221 24 78 154 190 193 180
194 240 13 58 145 196 211 200
165 235 2 28 116 182 203 199
137 229 -11 -2 88 167 196 198
109 224 -23 -31 59 152 189 197
80 218 -34 -61 30 137 182 196
56 204 -44 -83 4 117 169 187
37 170 -47 -91 -14 86 136 157
20 135 -50 -98 -32 54 104 128
3 101 -53 -105 -51 22 71 98
-15 66 -56 -112 -69 -10 39 67
-28 38 -58 -116 -81 -33 14 43
-29 28 -53 -106 -77 -36 5 31
-31 18 -48 -96 -72 -39 -4 19
-32 8 -41 -86 -68 -43 -13 7
-33 -3 -36 -75 -64 -45 -21 -5
-35 -11 -31 -65 -58 -47 -28 -14
-31 -12 -25 -54 -50 -41 -27 -15
-28 -13 -19 -44 -41 -36 -27 -15
-25 -14 -14 -33 -33 -30 -26 -16
-22 -16 -8 -23 -24 -25 -25 -17
-19 -17 -3 -15 -18 -21 -24 -18
-19 -18 -3 -15 -18 -21 -25 -20
-20 -18 -3 -15 -18 -21 -26 -21
-20 -19 -3 -15 -18 -21 -27 -23
-21 -20 -3 -15 -18 -21 -28 -24
-22 -21 -3 -15 -18 -22 -29 -26
-22 -22 -3 -14 -18 -23 -29 -26
-22 -23 -3 -14 -18 -23 -30 -26
-21 -24 -2 -13 -18 -24 -30 -26
-21 -26 -2 -12 -18 -25 -31 -26
-20 -27 0 -11 -19 -26 -32 -27
-19 -26 0 -11 -18 -25 -31 -27
-19 -26 0 -11 -18 -24 -31 -26
-18 -25 0 -10 -17 -23 -30 -26
-17 -24 0 -10 -16 -21 -29 -25
-16 -23 1 -9 -15 -20 -28 -24
-17 -24 1 -9 -15 -20 -28 -24
-18 -24 1 -9 -15 -20 -28 -25
-19 -25 1 -9 -16 -21 -28 -25
-20 -26 1 -9 -16 -21 -28 -26
-21 -27 2 -9 -17 -22 -29 -27
-18 -27 2 -9 -17 -22 -30 -27
-16 -26 1 -9 -17 -22 -30 -27
-13 -26 1 -9 -17 -22 -31 -28
-10 -25 0 -9 -17 -22 -32 -28
-8 -24 -2 -10 -16 -23 -33 -29
-9 -23 -2 -10 -16 -23 -32 -28
-9 -22 -2 -10 -16 -23 -32 -27
-10 -21 0 -9 -16 -23 -31 -26
-11 -20 0 -9 -16 -23 -30 -25
-12 -19 1 -8 -17 -23 -29 -24
-12 -19 1 -8 -17 -22 -29 -24
-12 -20 1 -8 -16 -21 -28 -23
-13 -20 1 -8 -15 -20 -28 -22
-13 -21 1 -8 -14 -19 -27 -21
-14 -22 1 -8 -13 -18 -26 -20
-14 -22 1 -8 -14 -19 -27 -20
-13 -22 0 -9 -15 -21 -29 -21
-13 -22 -2 -10 -16 -22 -30 -22
-12 -22 -3 -11 -18 -23 -31 -23
-11 -22 -4 -12 -19 -25 -33 -24
-9 -21 -4 -12 -19 -25 -33 -24
-7 -20 -4 -12 -19 -25 -33 -24
-5 -19 -4 -12 -18 -24 -33 -23
