I II V1 V2 V3 V4 V5 V6
-30 -18 -45 10 0 22 26 17
-28 -17 -42 13 2 24 26 15
-26 -18 -41 13 1 21 23 11
-22 -10 -33 18 4 23 24 13
-24 -13 -31 21 6 24 23 11
-14 -4 -31 21 4 20 20 10
-23 -9 -28 21 4 18 17 7
-22 -14 -29 21 2 15 12 2
-20 -17 -25 24 2 16 13 2
-23 -21 -22 25 5 18 14 2
-27 -20 -25 19 1 15 10 -4
-20 -18 -23 19 -2 11 8 -6
-13 -14 -13 26 2 13 11 -1
-8 -7 -12 25 2 15 11 0
-7 -8 -17 18 -6 9 5 -6
-9 -4 -18 17 -4 9 4 -8
-13 -6 -16 19 -3 9 3 -10
-17 -13 -14 18 -5 7 1 -10
-7 -7 -11 20 -2 9 4 -7
0 -4 -9 21 -2 9 4 -7
-1 -5 -6 22 -3 9 4 -6
1 -3 -7 19 -5 7 1 -8
-3 -4 -11 15 -9 4 -1 -10
-12 -10 -13 13 -11 2 -2 -13
-14 -17 -14 11 -13 0 -3 -16
-2 -5 -16 8 -13 1 -3 -18
1 0 -14 9 -12 3 -2 -16
-2 0 -12 10 -12 1 -4 -16
0 1 -11 11 -13 -2 -6 -16
11 5 -9 11 -13 -1 -6 -15
11 2 -9 11 -12 0 -5 -13
7 -2 -7 10 -12 0 -6 -14
2 -4 -7 10 -13 -1 -6 -15
5 -7 -7 9 -14 -1 -5 -16
8 -5 -7 9 -14 1 -3 -16
13 4 -5 11 -12 3 -2 -15
6 0 -10 7 -17 -3 -8 -20
5 4 -9 7 -19 -7 -12 -21
5 -2 -8 6 -20 -8 -13 -22
-5 -22 -14 -1 -25 -12 -19 -27
-13 -21 -13 0 -24 -10 -16 -26
1 -5 -7 10 -14 0 -6 -17
5 -1 -9 10 -15 -2 -8 -17
16 -2 -11 5 -21 -8 -14 -21
12 -5 -11 5 -20 -7 -11 -21
-4 -10 -8 7 -17 -2 -7 -17
-9 -15 -9 9 -15 -2 -7 -18
-16 -24 -11 7 -17 -5 -10 -21
-16 -23 -11 6 -17 -6 -12 -21
-10 -10 -10 7 -16 -3 -10 -20
2 0 -9 9 -14 -1 -8 -19
6 -2 -8 8 -15 -3 -8 -19
10 1 -7 9 -14 -1 -8 -19
5 -3 -7 8 -15 -2 -9 -20
0 -9 -10 8 -15 -2 -9 -22
-2 -7 -7 9 -13 0 -7 -21
1 -9 -7 10 -12 2 -6 -19
8 -8 -7 11 -13 0 -7 -18
5 -5 -2 13 -12 1 -7 -17
2 -7 -3 10 -16 -4 -11 -19
10 -5 -4 12 -13 0 -8 -19
10 2 -4 12 -10 5 -1 -15
4 9 -6 11 -11 5 -3 -16
1 4 -5 14 -10 2 -4 -17
4 1 -3 14 -11 -1 -6 -16
-2 -7 -7 11 -14 -2 -8 -19
-9 -13 -6 12 -12 0 -8 -20
-7 -11 -6 11 -13 -1 -8 -21
-1 3 -2 13 -11 0 -6 -17
13 11 -3 14 -10 2 -4 -16
16 5 -3 15 -8 6 -1 -14
11 5 -2 19 -3 10 4 -10
6 5 -2 20 -3 11 4 -8
3 0 -5 16 -6 7 0 -13
1 -2 -8 14 -9 4 -3 -16
1 1 -7 13 -11 3 -5 -18
4 0 -6 14 -10 5 -2 -16
4 4 -4 15 -6 9 2 -12
-1 0 -3 15 -7 8 2 -12
-2 -1 -7 12 -11 5 -1 -14
7 8 -3 16 -6 7 0 -12
11 9 0 17 -5 7 0 -11
4 3 -2 14 -8 6 -1 -11
2 5 -2 13 -7 8 1 -10
16 14 0 18 1 16 8 -5
14 9 -3 18 -3 12 5 -7
-4 -9 -8 11 -13 2 -5 -16
-13 -18 -11 9 -14 0 -7 -17
-6 -10 -9 10 -13 0 -7 -17
9 13 -5 13 -8 6 -2 -15
15 21 -1 15 -6 10 3 -11
25 19 1 16 -5 10 3 -11
14 10 -1 16 -7 8 1 -10
-4 2 -4 15 -6 9 2 -9
-12 -11 -6 12 -12 3 -3 -13
-16 -20 -11 7 -16 -1 -8 -19
-7 -6 -11 8 -13 2 -5 -17
-7 -7 -7 12 -10 6 -1 -15
-7 -6 -6 13 -10 7 0 -14
-5 -3 -6 13 -7 11 2 -12
1 3 -6 12 -7 12 3 -12
0 -1 -8 10 -10 6 -2 -14
9 6 -7 11 -9 7 2 -12
8 7 -4 13 -7 8 3 -9
4 6 -7 11 -11 6 -1 -12
4 5 -8 10 -14 3 -4 -13
-1 4 -7 11 -12 4 -2 -14
-5 2 -6 11 -11 7 1 -12
-5 2 -4 15 -7 12 4 -10
-5 3 -5 15 -8 9 1 -10
-2 -2 -6 13 -11 4 -4 -14
-5 -7 -7 11 -14 1 -7 -15
-4 -7 -9 10 -16 -2 -9 -17
1 1 -6 10 -16 0 -7 -14
2 3 -5 12 -12 5 -2 -11
12 15 -2 16 -7 11 4 -5
17 18 -3 15 -7 12 3 -7
12 12 -4 14 -9 10 2 -7
5 6 -7 12 -13 5 -2 -11
-1 5 -7 11 -14 4 -4 -13
-6 0 -8 9 -14 4 -4 -14
-7 -5 -8 9 -13 4 -3 -12
-7 -2 -5 11 -11 7 -1 -9
4 4 -2 12 -11 8 0 -7
2 -4 -5 8 -14 4 -2 -10
-1 4 -5 10 -11 8 0 -8
2 18 -8 10 -11 9 1 -8
0 6 -5 12 -8 13 3 -7
0 1 -11 9 -10 10 2 -10
0 0 -10 7 -13 6 -2 -11
-4 1 -9 7 -17 0 -7 -13
-5 -1 -8 5 -19 -3 -11 -14
-9 -10 -10 4 -18 -2 -10 -15
-7 -9 -9 7 -13 3 -6 -13
-6 -6 -8 6 -14 3 -5 -11
-6 0 -8 7 -13 7 -2 -10
11 15 -3 10 -9 10 1 -6
12 19 -1 11 -6 13 4 -4
8 14 -5 13 -7 11 2 -6
0 8 -4 13 -9 8 0 -8
-3 4 -6 7 -14 3 -4 -13
-4 1 -8 5 -15 3 -5 -14
-10 -6 -7 6 -15 2 -6 -15
-14 -9 -10 6 -15 2 -7 -13
-9 -2 -9 6 -15 2 -6 -10
7 9 -6 8 -12 5 -3 -8
17 18 0 12 -6 10 3 -4
18 23 1 13 -5 12 4 -3
10 23 -1 11 -7 10 3 -4
5 11 -7 7 -9 8 0 -8
-4 2 -7 8 -8 11 2 -8
-10 5 -8 9 -8 11 2 -7
-15 5 -8 7 -10 8 -1 -10
-3 13 -4 9 -10 6 -3 -11
8 20 1 10 -8 8 -1 -9
0 15 3 11 -6 11 2 -8
1 15 2 10 -7 11 3 -8
17 29 7 15 -1 14 7 -4
12 28 11 20 3 19 10 -1
9 29 13 23 6 21 13 1
-1 25 9 19 3 19 11 0
1 29 5 15 0 15 7 -3
7 34 6 15 -2 14 6 -4
0 24 8 16 1 19 11 -1
-5 12 8 16 0 15 6 -5
-11 5 3 14 -4 11 3 -7
-5 11 0 12 -5 10 3 -9
-6 11 -1 11 -7 9 1 -10
-12 8 -5 10 -7 9 0 -9
-7 14 -4 12 -2 15 7 -3
-9 12 -7 11 -1 18 9 -1
-7 14 -9 10 -3 17 10 -2
-6 13 -14 6 -8 10 2 -7
-3 7 -19 1 -14 1 -5 -12
-6 9 -15 4 -11 5 -1 -9
-10 14 -11 8 -5 13 6 -4
0 21 -10 10 -3 16 8 -2
-3 14 -15 7 -7 10 4 -5
-11 7 -20 1 -12 6 0 -9
-19 -5 -21 -2 -15 5 -2 -11
-23 -12 -20 -5 -18 3 -4 -12
-20 -13 -21 -5 -19 3 -4 -12
-15 -9 -23 -4 -17 2 -4 -11
-14 -8 -24 -7 -19 0 -6 -14
-17 1 -19 -3 -13 8 1 -9
-8 6 -17 -2 -13 8 1 -9
-1 7 -16 1 -12 8 1 -8
-3 1 -16 1 -12 7 1 -8
-7 3 -14 0 -11 7 3 -6
-7 1 -17 -6 -18 1 -3 -11
-23 -18 -19 -8 -19 -1 -6 -13
-26 -22 -13 -5 -16 2 -4 -11
-8 -16 -12 -7 -18 -1 -7 -15
-8 -3 -8 -4 -15 -1 -6 -13
-3 10 -8 -5 -17 -3 -8 -16
1 3 -14 -11 -21 -6 -11 -19
-2 -2 -13 -11 -21 -5 -12 -18
7 5 -9 -8 -18 -2 -8 -15
13 8 -8 -6 -15 0 -5 -13
7 6 -9 -8 -16 0 -6 -13
1 1 -12 -10 -18 -3 -10 -17
-1 0 -10 -11 -19 -3 -9 -16
9 7 -4 -6 -14 2 -4 -11
7 3 -8 -10 -16 -1 -6 -13
8 7 -6 -8 -14 0 -5 -12
15 13 -4 -7 -12 2 -3 -10
10 3 -6 -10 -16 -1 -6 -15
-5 -8 -8 -14 -19 -6 -11 -20
-2 -3 -8 -10 -16 -2 -7 -18
7 4 -6 -8 -13 1 -5 -15
15 10 -5 -9 -13 0 -5 -16
15 4 -9 -12 -17 -5 -10 -19
14 0 -9 -13 -18 -8 -11 -20
6 -3 -7 -12 -15 -5 -8 -17
9 3 -6 -12 -16 -5 -8 -17
11 8 -3 -10 -15 -5 -10 -18
11 5 -3 -7 -14 -4 -10 -18
5 0 -3 -9 -16 -9 -15 -24
9 -1 4 -3 -13 -7 -15 -28
14 -2 15 5 -8 -5 -16 -32
25 3 24 11 -7 -9 -24 -41
28 10 33 21 -1 -8 -26 -44
24 9 44 35 12 2 -20 -43
18 12 55 53 32 21 -3 -32
20 22 61 73 55 45 16 -20
22 31 73 102 87 76 43 -1
16 35 86 133 120 109 74 19
8 27 93 164 154 144 104 39
-11 13 87 194 196 192 149 71
-49 1 80 225 244 249 206 117
-81 -3 73 259 298 313 272 173
-96 2 62 295 350 374 334 232
-119 -3 42 305 368 397 367 272
-147 -10 21 303 372 403 381 298
-156 -3 -1 290 362 398 391 320
-152 -1 -18 258 324 357 362 319
-146 -30 -24 215 258 275 286 274
-133 -54 -35 153 180 192 212 225
-112 -53 -45 76 98 113 144 176
-78 -33 -42 -4 6 20 57 106
-26 3 -27 -73 -78 -69 -26 34
10 33 -19 -103 -120 -115 -73 -12
18 42 -7 -91 -116 -118 -86 -36
32 34 15 -65 -99 -110 -87 -51
48 31 32 -43 -83 -97 -83 -58
45 32 44 -27 -73 -92 -82 -67
46 27 49 -16 -64 -84 -80 -73
41 29 62 -2 -51 -73 -70 -69
51 43 72 1 -48 -68 -66 -70
49 47 86 6 -45 -64 -64 -71
53 50 97 7 -43 -62 -65 -74
69 57 109 12 -36 -56 -58 -69
68 47 120 16 -33 -54 -56 -71
59 35 132 21 -30 -52 -56 -73
66 42 142 23 -28 -51 -56 -75
76 51 149 23 -28 -51 -57 -77
81 52 156 21 -30 -52 -57 -79
79 53 153 11 -37 -57 -60 -79
70 52 150 3 -39 -56 -59 -78
67 51 145 -9 -45 -59 -62 -79
63 40 135 -19 -49 -60 -62 -80
56 32 127 -29 -55 -62 -62 -77
71 40 124 -31 -53 -59 -58 -73
92 54 124 -29 -49 -55 -54 -70
89 55 124 -26 -46 -52 -52 -70
89 59 119 -28 -47 -54 -53 -71
81 58 113 -26 -44 -50 -49 -69
76 49 102 -29 -45 -49 -48 -68
69 44 88 -31 -45 -47 -45 -66
54 37 69 -33 -42 -44 -40 -61
44 31 47 -34 -42 -41 -36 -56
42 31 30 -32 -38 -36 -30 -49
41 32 19 -27 -31 -27 -22 -42
41 35 15 -19 -22 -18 -13 -35
42 41 11 -10 -13 -9 -3 -27
29 25 2 -12 -15 -12 -6 -30
19 14 -3 -13 -17 -15 -8 -32
9 7 -3 -11 -15 -14 -8 -30
7 3 -3 -8 -13 -13 -7 -27
6 5 -2 -5 -10 -11 -3 -25
8 9 -2 -3 -9 -7 1 -23
16 12 -5 -4 -10 -9 0 -25
16 14 -2 -2 -8 -6 1 -24
8 10 -3 -1 -8 -5 2 -24
9 15 -2 0 -7 -4 5 -22
8 16 -1 2 -5 -5 5 -20
9 14 -2 2 -4 -3 6 -20
23 25 -1 3 -1 0 8 -17
25 25 -4 1 -6 -2 6 -18
16 21 -6 2 -5 -1 7 -19
6 13 -7 1 -6 -2 6 -19
9 10 -5 1 -7 -4 5 -19
9 11 -2 4 -3 -1 7 -16
8 10 -4 3 -5 -3 6 -19
6 8 -5 2 -6 -3 5 -21
4 12 -5 2 -5 -2 6 -21
12 17 -7 2 -3 0 7 -21
10 14 -10 0 -7 -3 6 -21
1 9 -9 0 -7 -5 5 -20
5 10 -9 0 -7 -6 4 -19
17 18 -8 1 -7 -4 6 -17
15 19 -7 2 -6 -3 6 -15
11 19 -5 5 -4 1 10 -11
10 16 -6 5 -3 1 10 -13
9 15 -6 3 -5 -1 8 -14
6 12 -4 2 -5 -3 6 -17
5 10 -5 3 -4 -1 8 -15
1 3 -6 2 -5 -2 7 -16
1 5 -9 -1 -9 -6 2 -20
11 19 -10 -2 -10 -8 1 -21
11 15 -10 -1 -9 -5 4 -18
10 14 -6 1 -7 -3 7 -16
11 19 -6 4 -4 -1 8 -15
13 14 -8 2 -5 -1 7 -16
10 9 -8 3 -5 -1 7 -17
1 7 -7 1 -6 -3 5 -18
-2 7 -9 3 -5 -1 7 -18
2 11 -10 2 -4 1 9 -15
6 20 -7 5 -3 4 11 -11
12 21 -6 6 0 6 13 -10
4 7 -12 -1 -8 -2 7 -17
0 8 -13 -1 -9 -4 5 -17
12 19 -9 2 -7 -2 6 -15
7 18 -9 3 -6 -1 6 -14
7 27 -8 4 -5 1 8 -14
8 19 -10 4 -4 2 9 -14
12 12 -14 0 -8 -2 6 -17
6 6 -16 -2 -13 -6 2 -19
3 17 -12 4 -6 1 10 -12
2 17 -12 4 -4 3 12 -10
9 25 -17 0 -10 -1 7 -14
7 27 -15 0 -10 -3 6 -14
-4 12 -17 0 -9 -2 7 -15
-10 -3 -19 -1 -10 -3 6 -15
-8 3 -20 -2 -11 -4 6 -15
6 21 -13 3 -7 1 10 -11
8 28 -8 7 -2 7 15 -7
7 29 -9 6 -2 8 16 -5
9 25 -13 3 -6 4 13 -7
10 18 -17 1 -9 1 10 -9
9 22 -19 1 -8 2 11 -9
9 29 -17 2 -8 2 12 -7
7 26 -17 1 -10 2 13 -7
5 25 -14 4 -7 4 15 -4
7 24 -18 2 -9 2 13 -6
-11 12 -24 -5 -15 -2 9 -11
-22 3 -29 -9 -16 -4 7 -12
-12 6 -32 -12 -18 -4 6 -11
-18 1 -30 -9 -17 -3 9 -8
-21 3 -30 -10 -17 -3 10 -6
-11 18 -27 -8 -14 0 15 -1
10 36 -23 -2 -8 8 21 6
18 39 -24 -2 -9 7 21 6
13 36 -26 -3 -12 6 20 5
2 28 -28 -5 -14 5 18 5
-15 11 -37 -14 -22 -4 9 -2
-19 11 -40 -16 -22 -3 10 -2
-13 21 -39 -14 -21 -1 14 2
-14 18 -39 -15 -21 -1 14 4
-10 26 -39 -15 -21 1 17 7
-9 26 -41 -18 -21 2 20 8
-3 27 -39 -16 -20 3 20 12
2 26 -39 -17 -20 5 22 13
8 29 -41 -17 -19 5 23 14
-10 19 -46 -21 -23 3 20 12
-27 8 -55 -31 -33 -7 11 4
-22 8 -55 -30 -31 -6 14 7
-22 19 -52 -27 -28 -2 20 13
-22 21 -51 -24 -25 2 23 17
-2 28 -53 -27 -27 -1 22 17
4 36 -52 -27 -26 3 24 19
-12 24 -53 -29 -28 1 23 19
-13 18 -55 -29 -30 1 23 18
-22 9 -59 -32 -32 -1 20 17
-32 8 -59 -34 -32 0 20 19
-34 8 -60 -35 -33 -2 19 19
-26 14 -60 -33 -31 -1 21 20
-18 16 -60 -33 -31 0 22 22
-23 11 -57 -29 -28 4 26 25
-25 11 -57 -25 -23 9 29 26
-19 17 -57 -23 -21 12 31 27
-22 15 -61 -26 -23 8 28 25
-27 10 -60 -24 -23 8 26 24
-33 -3 -58 -20 -20 11 27 25
-36 -6 -53 -13 -14 16 33 29
-30 -1 -49 -9 -8 22 36 32
-27 4 -49 -7 -8 22 36 29
-30 4 -47 -4 -4 25 38 30
-22 8 -41 2 2 30 42 34
-15 12 -37 5 6 33 43 34
-22 4 -38 5 4 31 39 30
-24 -1 -39 5 2 27 34 26
-25 -2 -38 6 4 29 34 23
-17 4 -34 10 7 31 36 23
-10 11 -33 11 8 30 34 21
-14 16 -29 16 11 33 35 23
-16 11 -27 16 11 32 34 19
-17 1 -25 17 11 32 33 18
-18 -3 -22 18 11 30 31 18
-17 -4 -21 17 10 29 28 15
-8 5 -19 20 11 28 28 15
-8 3 -15 21 13 29 28 14
-15 -6 -15 19 11 27 25 9
-18 -1 -13 20 11 27 24 9
-12 7 -11 19 11 25 22 8
-8 7 -10 19 10 23 20 6
-6 6 -9 19 9 22 19 4
-4 11 -8 17 7 20 17 1
-1 14 -1 21 9 22 17 3
8 17 -2 20 9 21 15 0
13 28 -2 19 6 19 15 1
5 25 -3 15 2 15 10 -4
9 23 -1 18 6 20 13 -3
-1 3 1 19 7 19 13 -3
-8 -9 -4 12 -1 10 3 -12
-7 -2 -1 13 -1 11 5 -10
-2 7 4 16 3 15 8 -6
22 21 6 16 2 14 8 -4
31 25 6 15 2 15 7 -5
9 15 5 11 -1 11 4 -8
4 12 3 10 -3 9 2 -10
11 13 2 9 -6 7 0 -10
17 15 0 6 -9 4 -2 -14
19 20 4 8 -6 7 0 -13
9 14 4 9 -5 7 0 -11
9 13 1 7 -7 5 -3 -14
13 14 6 10 -4 7 0 -13
8 10 4 7 -6 6 -2 -14
2 5 -1 2 -10 1 -7 -18
0 2 1 2 -11 0 -8 -20
8 7 0 1 -11 1 -7 -19
11 16 3 4 -8 3 -5 -16
10 20 1 2 -10 0 -8 -18
10 9 1 1 -11 -1 -9 -19
18 13 3 4 -8 2 -8 -16
18 13 3 2 -8 3 -8 -16
13 16 5 4 -7 3 -6 -15
9 10 1 0 -12 -1 -11 -19
7 5 2 1 -11 0 -9 -17
7 7 5 3 -9 3 -7 -16
19 13 8 5 -5 6 -4 -15
20 14 8 6 -6 5 -5 -15
0 0 5 3 -8 3 -10 -18
1 3 2 -1 -11 -2 -14 -22
26 21 6 3 -5 3 -10 -19
31 31 13 11 2 10 -2 -11
15 18 11 8 -1 7 -4 -14
1 -3 1 -1 -10 -2 -13 -23
-6 -7 -1 -2 -10 -2 -14 -24
7 9 2 1 -5 4 -9 -20
14 12 5 3 -4 4 -8 -18
7 5 3 3 -4 4 -10 -18
9 6 4 5 -2 4 -10 -19
20 15 6 7 -1 5 -8 -16
19 20 10 9 0 6 -7 -15
23 23 9 7 1 8 -7 -16
20 19 9 6 1 8 -6 -17
16 18 5 5 -1 7 -6 -17
10 14 4 4 -2 4 -7 -17
3 2 3 6 0 6 -7 -18
1 -1 4 7 1 6 -8 -17
9 7 5 9 0 5 -9 -16
19 17 9 12 5 12 -3 -11
12 15 9 13 7 14 -2 -10
14 13 9 12 5 12 -3 -10
22 15 5 9 2 8 -6 -12
18 11 4 9 2 8 -6 -14
11 9 3 7 -1 6 -8 -14
16 11 2 6 -1 6 -9 -15
12 11 5 8 5 12 -5 -11
-5 4 6 11 7 15 -1 -8
-7 -2 2 7 3 11 -6 -12
3 -3 -1 4 -1 6 -9 -15
3 2 3 7 2 9 -8 -12
-2 5 7 12 6 12 -4 -9
16 11 5 10 5 11 -5 -9
35 26 10 14 12 18 2 -4
30 31 11 15 12 20 3 -3
24 30 10 16 12 19 3 -4
16 25 7 14 11 17 1 -7
17 18 4 11 7 13 -2 -9
17 12 4 10 6 12 -4 -10
3 2 1 6 2 8 -8 -12
-2 -4 -2 3 0 6 -10 -13
-4 -2 -2 4 1 5 -11 -14
-4 2 -1 3 2 6 -10 -13
-1 4 0 6 4 9 -7 -9
6 9 2 8 7 12 -5 -7
14 14 2 7 5 10 -6 -8
19 18 1 6 3 8 -7 -10
15 12 4 10 10 15 -2 -6
5 6 3 9 9 14 -2 -5
4 12 3 9 8 12 -3 -6
5 8 0 4 3 8 -7 -10
0 5 -1 3 4 8 -9 -11
0 2 -2 3 4 8 -9 -9
12 10 1 5 6 12 -5 -7
18 13 2 6 5 8 -7 -8
13 11 -1 4 3 7 -8 -9
10 12 -1 2 3 6 -10 -11
2 9 3 6 5 8 -8 -9
0 5 2 6 6 9 -7 -8
12 7 0 3 4 8 -9 -11
6 -2 -5 -2 -1 4 -14 -16
8 6 -2 1 4 8 -9 -12
10 7 1 3 5 9 -9 -9
0 -3 -4 -2 -1 4 -13 -14
-6 -5 -2 0 3 7 -10 -11
3 3 0 2 5 9 -9 -9
9 10 -3 -1 2 5 -11 -11
7 9 -2 0 3 7 -10 -9
6 10 -1 0 2 5 -11 -10
18 18 0 1 4 7 -11 -8
17 15 4 6 9 11 -6 -4
14 8 3 6 9 12 -6 -4
17 10 0 2 7 10 -8 -8
11 10 1 1 8 10 -8 -7
0 6 -1 -1 5 7 -10 -8
-2 -1 -6 -7 -1 1 -16 -14
-6 -9 -8 -9 -4 -2 -19 -16
1 -5 -4 -6 0 2 -17 -13
10 2 1 -1 5 5 -12 -9
5 7 1 -1 7 9 -10 -7
-1 1 -4 -5 2 4 -14 -12
7 2 -3 -6 3 5 -14 -12
14 7 1 -1 7 10 -9 -7
29 22 5 1 10 12 -6 -2
22 16 2 -1 8 8 -9 -4
10 7 0 -3 5 6 -10 -6
6 3 1 -2 6 7 -10 -5
1 -2 -2 -5 3 5 -13 -7
6 1 -1 -4 6 7 -11 -6
4 -2 -1 -6 4 6 -13 -7
7 2 -1 -5 4 5 -13 -6
11 3 -1 -5 4 4 -13 -7
10 5 2 -2 7 7 -11 -4
18 9 0 -5 5 5 -13 -6
15 8 0 -5 6 6 -13 -5
11 6 1 -5 7 8 -11 -3
14 12 3 -4 9 9 -9 -2
15 14 4 -2 11 11 -6 1
10 3 0 -6 7 6 -11 -3
5 -1 -3 -8 5 3 -14 -5
1 -7 -4 -9 3 2 -16 -7
2 -3 -1 -7 6 4 -14 -5
10 5 1 -7 7 5 -14 -4
10 6 -1 -9 5 2 -17 -5
7 -2 -4 -11 3 0 -19 -7
3 -3 -2 -9 5 2 -15 -6
12 6 2 -6 7 4 -14 -3
2 -2 0 -8 6 4 -14 -4
-2 -7 -1 -8 6 5 -14 -3
4 -1 1 -6 9 7 -12 -2
15 6 3 -4 10 8 -10 0
21 10 4 -4 10 8 -10 -1
20 11 3 -5 9 6 -11 0
11 9 3 -6 10 6 -11 -3
13 12 3 -6 11 7 -10 -2
13 12 6 -3 15 11 -6 2
0 6 6 -2 15 11 -6 3
-4 1 4 -4 13 9 -8 1
10 4 0 -10 7 3 -13 -4
12 10 3 -7 10 5 -10 -2
6 14 8 -3 13 9 -8 1
2 18 9 -2 14 9 -8 2
6 26 11 -1 15 10 -7 4
21 29 14 2 19 14 -3 5
27 32 17 6 21 17 1 10
29 38 21 10 26 22 6 15
18 26 18 7 23 18 4 12
-3 7 10 0 15 10 -3 4
-1 8 9 0 13 9 -3 5
8 19 12 5 20 14 1 11
10 20 10 5 21 17 4 11
5 12 6 0 19 15 2 8
-3 3 1 -1 18 14 2 8
-11 -1 -6 -6 12 11 -3 5
-5 2 -10 -9 9 8 -4 4
6 8 -8 -6 12 10 -2 7
-1 7 -8 -6 14 11 -1 7
-2 7 -9 -4 13 11 -2 7
3 8 -14 -9 9 6 -5 5
1 13 -16 -11 8 5 -5 5
-5 12 -14 -11 10 8 -4 6
1 10 -10 -8 14 11 1 12
3 10 -9 -6 13 13 2 14
-3 0 -14 -12 6 5 -5 7
-7 -4 -15 -13 5 3 -6 6
-13 -10 -13 -10 7 5 -5 8
-5 -11 -17 -13 4 3 -9 5
0 -8 -17 -17 2 2 -9 5
0 0 -12 -12 6 4 -6 11
0 1 -12 -13 5 3 -7 9
4 1 -12 -14 5 4 -5 10
-1 -3 -13 -15 5 5 -5 9
-5 -9 -15 -17 4 4 -6 8
-4 -10 -16 -18 2 1 -9 6
-6 -11 -16 -18 1 -1 -11 4
-3 -10 -11 -15 5 2 -9 8
-4 -10 -9 -12 7 3 -8 9
2 -7 -8 -11 8 4 -7 9
13 1 -8 -12 6 2 -9 8
18 1 -4 -11 7 5 -8 9
11 -7 -5 -13 5 2 -10 6
7 -7 -9 -16 2 -1 -12 3
6 1 -6 -14 4 2 -10 6
4 -3 -2 -11 7 2 -10 8
4 -11 -8 -17 1 -2 -16 3
13 -5 -11 -22 -3 -7 -21 -3
7 -6 -8 -19 -1 -6 -20 -1
6 -6 -6 -16 2 -2 -18 3
21 4 -5 -16 4 0 -16 4
17 2 -4 -15 5 1 -14 5
16 1 -6 -16 3 -1 -16 4
10 -2 -5 -15 3 -1 -16 5
-1 -16 -5 -15 3 -1 -16 3
1 -17 -8 -19 0 -5 -19 0
19 -4 -6 -16 2 -2 -17 2
16 -4 -3 -13 6 2 -13 6
12 -1 -4 -13 6 2 -11 6
22 7 -6 -17 3 1 -13 4
22 3 -7 -18 2 0 -15 4
17 -2 -6 -18 2 0 -15 2
21 -1 -5 -18 -1 -5 -19 -1
21 -2 0 -14 -1 -6 -21 -2
18 -3 8 -10 1 -7 -23 -5
11 -9 14 -8 -2 -12 -30 -13
23 -3 24 0 1 -14 -34 -20
37 4 36 11 9 -9 -33 -22
39 10 48 26 21 2 -26 -17
32 14 58 42 40 17 -13 -12
21 9 61 58 58 37 3 -4
27 21 73 88 91 71 32 15
22 28 89 123 130 108 63 36
17 29 103 163 172 148 98 58
2 28 107 205 222 202 148 96
-17 26 103 246 274 259 203 139
-45 25 92 286 327 321 262 187
-78 15 82 329 382 381 320 241
-108 0 68 354 412 413 360 287
-125 -3 53 360 418 424 382 319
-141 -5 29 348 410 420 389 339
-150 -5 3 311 367 379 363 334
-147 -25 -7 263 297 296 289 297
-135 -56 -21 194 212 206 209 247
-115 -64 -30 116 130 131 148 209
-72 -37 -33 23 33 37 66 148
-37 -22 -26 -60 -59 -54 -21 79
-4 -3 -18 -103 -115 -111 -76 29
18 9 -7 -95 -115 -115 -89 6
42 20 15 -71 -100 -109 -95 -11
41 23 32 -50 -88 -103 -98 -25
36 16 43 -34 -78 -100 -100 -38
46 18 58 -14 -62 -86 -92 -37
59 32 75 0 -48 -71 -81 -33
61 37 87 2 -45 -67 -79 -34
66 47 98 2 -44 -64 -78 -36
76 55 104 -5 -46 -66 -81 -41
82 53 112 -5 -45 -65 -80 -43
78 45 120 -5 -43 -62 -80 -48
84 49 133 -2 -40 -59 -78 -49
86 56 146 2 -37 -57 -78 -49
94 54 152 1 -38 -59 -79 -52
89 49 152 -4 -41 -61 -79 -53
99 57 151 -13 -43 -60 -78 -48
95 44 143 -21 -47 -61 -79 -50
89 37 135 -32 -50 -63 -81 -52
93 40 125 -40 -56 -64 -80 -49
95 40 116 -47 -60 -67 -82 -51
90 41 113 -45 -57 -65 -78 -47
90 37 109 -45 -55 -63 -77 -47
87 34 107 -45 -55 -62 -78 -47
80 31 103 -41 -53 -61 -76 -48
76 30 98 -39 -50 -58 -71 -45
80 33 93 -37 -46 -53 -66 -38
77 36 80 -33 -40 -46 -59 -32
61 29 58 -36 -38 -43 -54 -29
61 38 41 -33 -35 -35 -46 -20
57 33 26 -30 -29 -29 -41 -14
49 24 16 -25 -25 -25 -37 -8
44 21 14 -19 -18 -17 -29 -3
44 24 14 -11 -10 -9 -23 1
49 26 15 -6 -4 -6 -19 4
26 10 11 -4 -3 -4 -17 4
9 1 8 -2 -1 -2 -16 6
16 2 6 -3 -4 -3 -17 4
10 -3 5 -4 -4 -4 -17 4
15 3 7 -3 -3 -1 -15 6
21 4 8 0 -2 0 -14 8
14 0 4 -1 -2 -2 -15 7
16 4 5 -1 -1 -1 -13 9
22 5 5 0 -1 -1 -13 8
14 -3 5 1 0 -1 -12 9
16 0 6 2 2 1 -10 10
13 3 6 2 2 1 -11 11
19 9 7 3 1 1 -11 12
24 11 6 3 2 1 -11 12
14 2 2 -1 -4 -2 -14 8
16 6 2 0 -3 -2 -13 9
16 7 5 3 0 -1 -11 11
10 0 3 3 0 0 -11 10
5 -7 2 1 -2 -2 -12 8
7 -8 -1 0 -4 -5 -15 5
10 -5 0 0 -2 -3 -13 8
19 3 3 2 0 -2 -11 9
20 8 4 3 -1 -2 -11 10
24 13 7 5 4 4 -6 17
28 17 8 7 5 6 -3 17
27 13 6 6 3 3 -6 16
18 10 4 3 0 -1 -9 13
13 10 4 2 -1 0 -8 13
8 -2 4 4 1 2 -8 14
9 -7 3 5 3 2 -8 12
8 -3 0 3 0 1 -9 11
8 1 -3 0 -1 0 -11 11
9 7 -2 1 -1 0 -10 12
9 7 0 2 0 1 -9 13
12 8 4 4 2 3 -6 16
11 -1 1 2 -1 -3 -11 12
14 4 -1 2 -1 -1 -12 9
16 11 -1 1 -2 0 -11 10
11 0 -3 -2 -4 -3 -13 9
16 0 -1 1 0 1 -11 12
18 7 1 3 1 5 -8 13
10 4 3 4 3 5 -6 14
17 10 1 3 2 4 -7 12
28 17 -1 2 2 5 -6 13
22 10 -2 0 0 1 -8 12
8 -5 -4 -2 -3 -2 -13 8
-3 -10 -2 0 0 1 -10 9
-1 -6 -4 -2 -2 0 -11 8
13 7 -5 -3 -3 -1 -11 5
13 12 -5 -3 -2 0 -11 7
8 11 -2 2 2 5 -6 11
5 4 1 5 6 9 -2 13
18 13 1 4 6 8 -3 14
25 16 0 3 5 8 -3 13
16 9 -6 -2 -2 0 -9 7
13 5 -8 -4 -5 -1 -11 7
6 1 -8 -3 0 3 -8 9
4 2 -6 -2 -1 2 -7 8
4 2 -8 -3 -2 2 -8 8
-9 -3 -10 -5 -4 0 -9 8
-1 5 -11 -5 -3 0 -9 6
13 13 -3 1 2 6 -2 14
14 9 -2 3 4 9 1 17
15 12 -6 0 2 6 -1 14
7 11 -8 -2 -1 4 -3 12
-5 -1 -13 -8 -6 0 -8 10
0 4 -9 -5 -2 3 -3 13
-4 -3 -14 -8 -5 1 -7 10
-5 -8 -17 -11 -8 -2 -9 11
-2 -2 -14 -8 -5 2 -5 14
1 3 -16 -8 -5 2 -4 14
1 6 -17 -8 -4 3 -3 18
-4 5 -16 -9 -6 3 -2 19
-6 5 -17 -9 -4 4 0 19
-1 6 -18 -10 -6 3 -1 20
2 7 -19 -11 -8 2 -3 21
1 7 -18 -10 -4 5 2 24
-1 11 -17 -10 -4 7 4 28
-1 11 -21 -13 -8 4 2 26
-8 5 -26 -16 -12 1 -1 21
-17 -3 -28 -20 -13 -1 -2 22
-18 -2 -30 -21 -14 -1 -2 25
-10 3 -28 -19 -13 1 2 29
-2 6 -31 -20 -12 3 3 30
-7 5 -34 -24 -17 0 0 27
-18 -2 -35 -26 -19 -3 -1 27
-14 0 -35 -26 -19 -2 0 28
-8 4 -36 -26 -18 0 3 31
-1 16 -35 -24 -16 1 6 36
2 27 -30 -20 -11 7 12 42
-9 13 -36 -24 -14 5 10 39
-26 -5 -43 -32 -22 -3 4 34
-25 -2 -43 -32 -22 -1 6 38
-19 7 -43 -30 -20 0 7 40
-21 8 -46 -32 -23 -1 9 39
-22 2 -49 -37 -25 -2 7 39
-17 4 -49 -37 -26 -3 7 40
-19 6 -48 -34 -24 0 12 42
-28 -5 -52 -37 -26 -2 8 40
-29 -3 -55 -41 -29 -5 6 38
-28 3 -51 -37 -23 0 13 43
-23 2 -52 -37 -24 1 14 44
-17 0 -55 -39 -27 -1 12 42
-28 -5 -53 -36 -23 1 14 44
-36 -12 -55 -36 -25 0 13 41
-37 -9 -55 -34 -23 1 12 42
-36 -7 -52 -29 -18 6 15 43
-34 -9 -49 -26 -15 7 18 42
-30 -12 -49 -24 -13 10 20 41
-21 -10 -48 -21 -11 11 21 40
-23 -15 -48 -19 -8 13 22 39
-31 -17 -45 -16 -5 16 26 40
-31 -13 -43 -12 -1 20 28 41
-29 -11 -36 -3 5 24 32 44
-13 -2 -33 0 9 27 33 46
-26 -7 -30 3 11 29 35 44
-33 -16 -34 0 9 24 28 37
-30 -20 -40 -3 3 17 20 29
-29 -18 -36 -2 4 17 20 28
-28 -15 -33 1 7 20 22 28
-29 -11 -30 4 10 22 24 29
-25 -12 -27 7 10 23 22 27
-18 -11 -23 8 12 24 23 26
-31 -16 -18 11 17 26 25 26
-24 -10 -14 16 18 28 26 28
-7 -3 -12 16 17 25 24 26
-9 -9 -12 12 15 23 20 23
-16 -10 -11 12 13 22 18 21
-16 -6 -9 13 13 19 17 21
-13 -9 -9 12 9 15 12 17
-9 -7 -5 13 13 19 14 17
-11 -4 -4 11 15 19 15 17
-12 -4 -4 10 10 15 10 13
-12 -9 -1 10 11 15 9 13
-18 -14 3 10 10 14 10 14
-20 -13 7 13 13 17 12 15
-14 -12 3 9 10 12 7 10
1 -6 3 7 7 11 5 10
1 -2 7 9 9 13 8 13
1 -5 6 6 6 10 5 10
8 -1 5 4 4 7 4 7
12 6 8 5 6 8 3 9
2 1 7 3 3 7 4 8
-2 -5 7 2 2 5 2 7
-2 -10 6 0 1 4 1 6
-10 -13 2 -4 -4 0 -6 2
-6 -13 3 -5 -5 0 -5 2
5 -7 7 -2 -2 2 -3 5
8 -1 8 -2 -2 2 -2 5
-1 -9 5 -5 -4 0 -3 3
-9 -18 3 -9 -8 -4 -6 0
-10 -18 1 -9 -9 -5 -8 -1
-6 -10 3 -8 -9 -4 -6 0
-2 -8 2 -10 -10 -5 -8 0
4 -9 2 -10 -10 -5 -9 -2
2 -10 2 -11 -12 -7 -10 -2
1 -7 3 -10 -10 -5 -8 -1
-4 -14 5 -9 -9 -5 -9 -1
-5 -17 2 -13 -13 -8 -12 -4
-2 -16 0 -12 -13 -9 -13 -5
1 -14 2 -9 -11 -6 -10 -3
6 -3 4 -9 -11 -6 -11 -3
7 -3 4 -9 -11 -7 -10 -3
8 2 9 -4 -8 -3 -7 3
7 2 8 -4 -8 -3 -7 1
4 -5 7 -7 -11 -6 -10 -2
3 -5 7 -5 -9 -4 -8 -2
4 -5 6 -4 -7 -4 -9 -2
4 -6 5 -5 -9 -8 -11 -3
11 -5 5 -5 -7 -7 -11 -3
10 -7 5 -5 -8 -5 -10 -4
6 -4 5 -4 -8 -7 -10 -3
11 3 7 -2 -4 -4 -8 -1
2 -5 7 -1 -5 -3 -8 -3
-14 -12 6 -3 -6 -5 -10 -3
-15 -17 2 -5 -10 -11 -14 -7
-7 -12 3 -4 -9 -8 -12 -7
0 -5 8 1 -5 -5 -9 -3
3 -5 3 -3 -9 -9 -13 -7
-1 -11 3 -3 -9 -8 -12 -8
0 -11 6 0 -6 -5 -11 -8
6 -3 4 1 -6 -6 -9 -7
9 2 7 2 -4 -4 -7 -5
9 2 9 5 0 0 -5 -3
14 5 9 7 0 0 -4 -1
18 9 9 6 -1 -1 -4 -1
12 8 9 5 -1 -1 -6 -3
8 6 8 6 -1 -2 -6 -3
10 5 10 9 2 1 -3 -1
-2 -7 10 10 2 1 -3 -3
-7 -11 8 7 1 0 -4 -5
2 -4 7 5 -1 -2 -5 -6
9 5 5 5 -2 -2 -5 -6
4 3 2 3 -5 -4 -7 -9
-4 -2 1 0 -6 -6 -10 -8
-7 -9 5 4 -3 -3 -7 -4
-6 -8 5 6 -1 -2 -5 -4
3 3 7 9 2 1 -2 0
9 5 8 11 2 2 -1 2
8 3 8 10 3 1 -1 -1
8 5 6 7 0 -1 -3 -3
2 2 7 8 1 0 -2 -2
-4 -3 5 7 1 -1 -2 -2
-6 -6 6 6 1 -1 -2 -2
4 0 4 6 1 0 -2 -2
5 -2 3 5 -1 -2 -5 -3
5 -2 4 6 -1 -3 -4 -4
4 -1 5 6 -1 -2 -3 -4
0 -3 4 5 -3 -4 -4 -4
-1 -5 3 5 -2 -3 -5 -7
0 0 4 5 1 -1 -3 -5
-7 -1 0 2 -4 -6 -7 -6
-11 -5 2 2 -4 -4 -7 -5
-12 -6 5 5 0 -2 -3 -2
4 6 8 7 1 3 1 2
23 21 11 12 6 6 4 7
9 11 6 7 4 2 1 4
-3 0 3 4 0 -3 -4 0
-7 2 2 3 -1 -3 -4 -1
-1 10 3 4 1 -3 -4 0
13 8 3 5 0 -3 -3 -1
11 2 2 2 -1 -6 -7 -2
6 5 4 3 0 -3 -4 0
3 0 1 2 -2 -5 -6 -4
-5 -5 2 2 -2 -5 -5 -2
-13 -7 2 0 -2 -6 -6 -2
-5 -2 3 2 -2 -5 -4 0
8 9 6 6 3 0 0 3
16 15 4 4 2 -2 0 3
11 14 3 3 0 -4 -2 2
5 9 6 4 3 -1 0 2
9 7 4 4 2 -2 -2 1
7 3 2 2 0 -3 -3 0
-7 -6 -1 0 -4 -8 -6 -4
-8 -4 -2 -1 -3 -7 -6 -4
-13 -10 0 0 -3 -6 -6 -2
-16 -11 1 0 -1 -3 -3 -3
-4 0 0 0 -3 -6 -5 -3
-2 -2 -2 -3 -5 -7 -8 -5
-8 -9 -1 -2 -4 -6 -6 -5
-15 -10 1 0 -1 -4 -6 -4
-7 -6 0 -1 -4 -6 -7 -7
-9 -7 -2 -3 -6 -8 -9 -8
-2 -4 -1 -3 -5 -8 -8 -9
-2 -6 -1 -3 -5 -7 -7 -8
-8 -8 -3 -5 -7 -10 -8 -10
-12 -11 -1 -4 -5 -8 -8 -10
1 3 2 0 -3 -4 -4 -7
4 0 0 -2 -3 -5 -4 -7
-4 -6 0 -3 -4 -7 -7 -10
-7 -6 -2 -6 -5 -8 -9 -12
-16 -14 -4 -5 -8 -11 -10 -13
-14 -15 -6 -6 -8 -12 -10 -13
-8 -9 -3 -4 -6 -11 -8 -11
-3 -1 1 -2 -2 -7 -4 -7
2 6 1 -2 -3 -8 -5 -6
3 9 0 -3 -3 -8 -6 -8
8 0 0 -4 -6 -11 -7 -10
8 -4 -1 -3 -5 -9 -7 -10
6 2 2 -2 -2 -7 -5 -7
6 10 6 2 2 -2 0 -3
-5 -2 2 0 -1 -6 -4 -7
-16 -14 1 -2 -3 -8 -5 -9
-5 -6 -1 -4 -5 -9 -7 -11
3 7 -1 -5 -5 -10 -7 -11
0 3 0 -4 -6 -10 -7 -13
-2 -3 -1 -5 -6 -10 -7 -13
-10 -6 -1 -4 -7 -11 -7 -14
-9 -5 0 -3 -4 -10 -5 -13
-9 -9 -3 -7 -7 -13 -9 -18
-11 -12 -6 -9 -10 -14 -11 -20
-12 -13 -4 -6 -8 -14 -9 -18
-4 -4 -1 -3 -4 -10 -5 -14
2 0 -1 -3 -4 -9 -5 -14
-5 -8 -1 -3 -7 -11 -6 -14
-5 -5 1 -2 -4 -10 -5 -12
-1 2 2 -1 -1 -8 -3 -11
-2 4 1 -3 -4 -9 -4 -14
-6 5 2 -2 -4 -9 -3 -14
-6 1 2 0 -1 -6 -1 -12
-3 -2 3 -1 0 -5 -1 -10
2 4 3 0 -1 -5 -1 -8
-4 0 2 -2 -2 -8 -3 -10
-13 -9 -1 -4 -5 -10 -5 -14
0 4 3 1 -1 -6 0 -9
7 19 11 7 5 0 5 -3
4 16 11 6 7 -1 5 -4
-10 3 6 2 2 -5 0 -9
-11 6 4 -1 -2 -8 -2 -11
-5 8 4 -1 -1 -8 -1 -11
-3 -1 10 7 6 -1 6 -5
-5 4 13 7 8 1 7 -3
-4 10 10 3 2 -4 1 -8
0 8 10 3 2 -6 0 -10
-7 8 13 5 5 -2 3 -8
-13 9 16 9 8 2 7 -4
-2 21 18 11 11 3 8 -4
0 20 14 9 8 1 7 -5
-5 12 10 6 6 -1 6 -7
-14 8 8 8 6 0 7 -5
-14 10 10 11 11 5 12 -4
-10 6 5 5 8 1 8 -6
-12 0 2 4 6 0 7 -7
-21 -3 -1 3 4 -1 6 -8
-23 -4 -6 -3 1 -5 3 -11
-16 -5 -4 0 2 -4 4 -8
-15 -1 -4 2 4 -2 6 -6
-20 -2 -10 -3 -2 -6 2 -9
-19 0 -10 -4 -2 -7 1 -8
-20 -6 -8 -2 1 -5 5 -5
-19 -9 -12 -5 -1 -6 4 -8
-21 -10 -12 -6 -2 -6 3 -6
-18 -9 -11 -7 -4 -8 2 -7
-23 -9 -10 -7 -4 -9 1 -8
-31 -11 -9 -5 -2 -8 2 -7
-16 -4 -10 -9 -6 -11 -1 -8
-12 -2 -9 -7 -6 -10 0 -8
-10 -7 -13 -12 -8 -14 -3 -9
-18 -18 -13 -11 -8 -14 -5 -9
-28 -25 -13 -12 -9 -15 -5 -11
-41 -29 -15 -13 -11 -15 -5 -14
-34 -24 -15 -14 -10 -16 -5 -11
-20 -17 -10 -10 -8 -13 -2 -9
-18 -19 -11 -13 -9 -15 -4 -12
-21 -20 -9 -11 -8 -13 -3 -11
-29 -23 -8 -12 -9 -16 -5 -12
-26 -15 -8 -12 -9 -16 -5 -13
-17 -11 -4 -8 -5 -12 -1 -10
-12 -15 -4 -9 -6 -13 -3 -12
-15 -13 -5 -10 -9 -16 -6 -15
-19 -13 -4 -10 -8 -16 -6 -15
-12 -6 0 -8 -5 -12 -2 -12
-1 0 -2 -10 -7 -15 -5 -14
1 4 -2 -9 -7 -15 -3 -12
-2 -1 -3 -10 -8 -16 -5 -14
-9 -13 -6 -14 -13 -22 -11 -18
-22 -24 -8 -15 -15 -24 -13 -21
-17 -19 -7 -13 -11 -21 -9 -19
3 0 -1 -9 -7 -16 -4 -14
5 3 0 -7 -4 -15 -3 -12
-3 -5 -3 -10 -8 -18 -6 -17
-9 -12 -4 -11 -8 -19 -7 -16
-3 -8 0 -8 -6 -16 -5 -14
-13 -13 -1 -9 -7 -16 -5 -15
-16 -15 -7 -14 -10 -20 -9 -18
-5 -10 -5 -13 -10 -20 -9 -16
-2 -7 -3 -10 -7 -18 -6 -15
-4 -7 -3 -11 -7 -18 -6 -15
-15 -14 -2 -11 -7 -18 -8 -16
-5 -8 -3 -12 -10 -21 -9 -17
-7 -12 -2 -11 -10 -21 -9 -21
-16 -17 2 -10 -9 -22 -12 -23
-14 -16 9 -6 -9 -26 -17 -27
0 -12 15 -3 -10 -30 -23 -34
19 3 30 9 -5 -28 -23 -36
27 12 46 22 6 -20 -18 -34
27 15 56 37 19 -10 -12 -32
25 16 63 53 41 8 2 -25
21 20 72 75 68 33 23 -11
13 20 82 106 99 64 49 6
-5 12 93 138 133 96 74 20
-23 7 102 176 173 135 106 41
-43 5 102 218 226 190 156 76
-58 10 102 259 281 251 213 122
-71 18 101 310 346 323 281 178
-88 20 96 356 403 381 342 235
-119 7 82 375 421 402 371 272
-149 -7 61 373 423 408 386 296
-168 -16 38 355 405 395 386 309
-169 -23 22 318 357 344 349 299
-149 -35 6 260 276 252 268 257
-132 -46 -11 180 191 170 200 217
-117 -46 -28 87 100 87 132 169
-89 -45 -32 -14 -6 -12 41 100
-53 -26 -24 -88 -88 -92 -33 39
-24 -5 -15 -115 -124 -129 -71 2
-5 5 -3 -99 -116 -129 -82 -19
20 27 22 -72 -97 -120 -83 -33
38 42 41 -49 -82 -110 -82 -41
41 38 56 -28 -69 -102 -81 -49
37 34 72 -10 -53 -89 -73 -51
39 37 84 -2 -45 -82 -69 -51
53 49 96 1 -42 -79 -67 -53
61 57 105 -3 -43 -78 -68 -57
61 52 110 -10 -46 -80 -70 -63
62 55 117 -8 -43 -77 -71 -65
67 58 128 -4 -41 -75 -71 -66
65 45 137 -4 -41 -75 -72 -69
59 32 146 -3 -38 -74 -71 -69
62 30 144 -12 -46 -80 -78 -76
71 39 141 -24 -52 -82 -79 -78
73 42 138 -31 -54 -81 -76 -73
82 47 135 -36 -54 -79 -74 -71
85 50 124 -46 -59 -77 -73 -70
81 46 114 -55 -64 -81 -76 -72
79 41 107 -56 -64 -81 -77 -72
80 43 107 -54 -61 -79 -75 -71
71 42 110 -50 -57 -75 -70 -69
68 41 107 -46 -52 -70 -67 -66
68 35 95 -48 -52 -72 -68 -67
58 30 82 -46 -48 -66 -62 -63
46 26 64 -47 -47 -63 -58 -60
45 28 43 -47 -43 -59 -53 -55
40 30 29 -42 -35 -49 -43 -46
31 30 17 -33 -27 -39 -32 -36
32 29 13 -24 -18 -31 -24 -27
28 24 9 -18 -12 -27 -20 -24
20 17 5 -15 -8 -22 -16 -22
10 12 1 -14 -7 -22 -16 -23
-4 4 -1 -14 -7 -22 -17 -26
-6 -1 0 -9 -3 -19 -13 -24
4 9 7 -2 5 -11 -6 -15
6 12 6 -1 5 -11 -5 -14
-1 6 5 -2 5 -10 -5 -15
4 11 4 -3 4 -10 -4 -15
10 17 5 0 6 -8 -3 -12
5 11 3 -2 6 -11 -5 -14
4 7 0 -4 4 -12 -7 -18
3 8 2 -2 6 -10 -4 -14
4 11 1 -1 6 -9 -5 -15
3 8 -2 -4 4 -12 -6 -17
3 10 0 -2 5 -10 -4 -14
-1 10 1 -1 5 -10 -3 -14
-4 5 -2 -3 6 -12 -5 -17
-2 5 -3 -4 4 -11 -4 -17
-1 2 -2 -3 4 -11 -5 -16
5 4 0 -1 5 -11 -4 -16
-4 2 -1 0 6 -10 -2 -15
-3 4 -2 0 6 -10 -3 -14
11 13 1 2 9 -7 0 -12
15 18 3 5 12 -5 3 -11
5 12 1 2 10 -7 1 -11
1 10 -2 0 7 -10 -3 -15
-3 5 -3 0 6 -11 -3 -16
-6 -1 -5 -3 2 -14 -6 -19
-7 -5 -7 -3 1 -16 -8 -21
4 6 -5 -1 5 -14 -6 -20
5 12 -1 3 9 -8 -2 -16
6 11 0 3 8 -8 -3 -14
-1 10 1 5 10 -7 0 -13
-9 2 -1 4 10 -7 0 -14
-8 3 -2 2 7 -10 -3 -15
3 7 -5 0 6 -12 -5 -17
-1 9 -3 3 9 -9 -2 -15
-6 7 -1 3 9 -8 -2 -13
-4 4 -1 2 7 -10 -3 -13
1 9 -1 4 9 -8 0 -13
6 9 -1 3 9 -7 0 -13
-7 -2 -6 0 5 -12 -5 -17
-12 -4 -8 0 5 -11 -4 -19
0 10 -7 1 7 -8 -2 -17
4 17 -1 7 13 -3 3 -9
5 18 -1 6 12 -3 2 -9
5 15 -3 3 8 -6 0 -12
-2 14 1 7 13 -3 3 -9
-7 12 0 6 12 -4 2 -11
2 10 -6 2 8 -7 -2 -15
12 16 -6 0 8 -8 -1 -16
9 14 -1 6 15 -2 4 -12
6 12 -4 4 13 -4 1 -15
-1 5 -10 -1 7 -10 -3 -20
-5 3 -10 0 6 -10 -2 -20
-6 5 -8 1 8 -8 -1 -18
-5 7 -5 4 11 -5 4 -15
0 11 -5 5 11 -5 6 -12
4 16 -6 5 12 -3 6 -12
6 22 -9 3 10 -6 3 -16
8 28 -7 6 14 -2 5 -14
-2 16 -11 1 9 -6 3 -18
-16 -8 -14 -1 8 -7 0 -20
-24 -17 -14 0 8 -7 2 -19
-20 -7 -16 -1 6 -8 2 -17
0 10 -16 -3 6 -7 3 -18
7 19 -11 3 11 -3 6 -13
-4 17 -12 2 11 -3 8 -12
-6 20 -14 0 9 -5 5 -13
-8 18 -16 0 7 -6 5 -15
-12 7 -15 3 10 -5 7 -12
-10 4 -12 5 13 -1 10 -7
3 12 -15 3 12 0 10 -7
8 25 -15 3 12 2 12 -4
2 23 -17 0 10 -2 10 -5
4 27 -15 2 11 -1 12 -2
1 22 -17 1 10 -2 12 -3
-21 1 -23 -5 4 -7 8 -6
-22 -2 -23 -5 3 -7 7 -4
-13 7 -19 0 8 -2 12 1
-15 9 -19 2 12 1 15 4
-10 13 -23 -2 8 -1 13 2
-16 7 -26 -5 4 -5 11 0
-11 12 -26 -5 6 -2 13 3
-7 14 -28 -6 6 -2 14 7
-12 16 -28 -6 5 -2 14 9
-19 12 -28 -7 5 -1 16 10
-21 5 -34 -11 0 -5 12 7
-24 1 -36 -13 -2 -6 9 8
-14 14 -33 -10 3 -1 16 12
-4 26 -30 -8 7 3 20 18
-17 14 -35 -11 4 1 18 17
-26 5 -39 -14 0 -3 15 15
-21 11 -40 -14 0 -1 18 17
-18 6 -44 -17 -2 -3 15 16
-28 -3 -46 -21 -3 -4 15 16
-33 -4 -47 -22 -5 -6 14 16
-35 1 -49 -22 -6 -6 15 18
-16 18 -45 -19 -1 -1 20 24
-5 26 -44 -18 0 2 23 25
-22 15 -46 -19 0 2 23 26
-27 9 -47 -20 -1 0 22 24
-23 11 -51 -22 -4 -2 19 23
-39 2 -52 -22 -3 0 21 22
-38 -4 -55 -24 -4 -3 19 22
-31 3 -51 -20 -1 1 24 27
-34 7 -46 -15 4 7 29 32
-28 2 -50 -17 2 4 26 29
-24 1 -53 -17 1 3 24 26
-37 -9 -53 -16 4 5 25 25
-33 -1 -46 -7 11 12 31 31
-29 4 -43 -3 16 16 35 35
-38 -5 -44 -2 16 14 34 33
-37 -8 -44 1 19 16 35 31
-30 -5 -43 4 21 18 35 30
-34 -6 -39 9 26 22 37 32
-33 -1 -34 15 31 27 40 35
-20 7 -30 19 35 30 42 37
-22 3 -30 20 35 29 41 35
-31 -7 -28 24 36 30 41 34
-31 -12 -28 23 36 29 39 30
-32 -14 -29 24 35 27 36 26
-39 -18 -28 25 37 27 34 23
-34 -15 -27 26 38 27 34 22
-30 -11 -23 29 39 27 33 23
-26 -6 -20 30 40 28 32 22
-23 -4 -15 34 43 30 34 24
-21 -6 -14 34 42 29 33 22
-20 -6 -11 36 43 30 32 21
-21 -6 -8 37 45 31 32 21
-13 -5 -9 34 41 26 28 16
-7 1 -7 35 40 25 26 15
-12 3 0 40 46 29 30 18
-15 0 -2 37 42 25 26 14
-16 -5 -2 34 38 21 23 11
-17 -12 -4 31 35 18 19 5
-11 -7 -2 31 35 17 19 4
0 11 5 36 40 22 24 11
-9 -1 2 31 35 18 19 6
-10 -4 1 29 34 17 17 5
-6 -4 2 30 35 17 18 6
-4 -3 2 28 33 15 17 4
2 2 4 31 34 16 17 6
3 2 3 28 32 15 15 5
1 6 1 24 28 11 11 0
-1 8 -1 22 26 10 10 0
-10 -5 -3 19 24 8 8 -4
-3 -1 0 19 25 8 9 -5
4 6 0 20 25 7 8 -4
6 9 1 20 25 8 8 -4
8 10 4 23 27 10 10 -2
12 13 3 21 25 9 8 -3
8 7 0 18 23 6 4 -6
4 2 -1 17 22 5 4 -8
7 3 1 18 22 6 5 -6
0 -3 -2 15 19 4 3 -9
-11 -11 -3 13 18 2 1 -12
-3 -7 -4 12 16 0 1 -12
1 -7 -5 11 16 0 0 -14
4 -1 -3 14 18 2 2 -11
2 -4 -4 12 16 -1 -1 -13
-1 -5 -7 10 14 -3 -3 -15
3 1 -4 10 14 -2 -3 -15
6 5 -4 11 15 -2 -1 -15
-5 -8 -7 9 12 -4 -4 -17
-11 -14 -4 11 15 -2 -2 -14
0 -4 -4 10 12 -3 -3 -14
10 9 -1 13 16 0 1 -11
18 8 4 17 20 5 4 -7
19 5 1 14 18 4 1 -10
9 2 0 14 19 6 3 -11
-4 -6 -3 12 17 3 0 -14
-5 -11 -4 9 13 -1 -4 -17
-4 -12 -7 8 11 -4 -6 -18
6 -6 -7 7 9 -5 -8 -20
15 1 -2 12 14 -2 -5 -16
12 5 3 16 19 3 0 -11
8 4 2 16 19 3 2 -8
13 3 1 15 18 1 0 -12
12 8 4 20 23 6 3 -8
4 3 1 17 19 4 1 -10
4 -1 -2 14 17 1 -1 -13
8 0 -2 17 19 4 0 -12
10 1 -2 14 18 3 0 -12
7 -2 -1 15 19 3 1 -11
7 0 0 16 18 2 0 -12
8 3 -1 16 17 0 -2 -13
8 1 -2 13 15 -2 -4 -15
2 -7 -3 12 15 -3 -5 -15
5 -5 -1 15 16 -1 -3 -12
12 -2 1 17 20 3 1 -9
5 -3 1 18 20 5 3 -6
10 2 1 20 23 8 4 -4
15 5 -1 19 22 6 3 -4
16 6 2 19 22 7 3 -4
22 12 3 21 23 6 3 -2
9 12 4 24 26 9 5 -1
1 5 4 23 24 8 6 0
0 -5 -1 16 19 4 1 -7
1 -11 -5 14 17 2 -1 -10
4 -8 -5 14 18 2 -1 -10
7 -2 -5 14 18 2 -1 -9
6 2 -3 15 19 4 1 -7
22 12 0 18 21 7 4 -4
24 15 3 21 24 9 7 0
19 12 0 19 23 9 5 -1
16 7 -2 18 22 9 5 -1
6 -4 -4 15 20 5 2 -3
-4 -11 -5 15 19 3 0 -4
5 -6 -5 15 18 1 -1 -4
2 -6 -4 15 18 1 -1 -3
-3 -10 -8 12 16 -1 -4 -5
1 -11 -9 12 15 -1 -4 -6
10 -9 -8 12 17 2 -1 -4
17 -1 -7 13 18 3 1 -2
10 2 -5 16 21 5 3 1
2 -3 -4 16 21 5 4 2
-10 -19 -6 13 18 4 1 1
-8 -17 -9 12 13 0 -3 -3
-8 -12 -10 11 14 -1 -4 -5
7 -3 -8 11 15 0 -3 -4
28 18 -2 17 21 7 3 2
27 16 -1 16 22 7 4 2
12 5 -4 15 20 7 4 2
7 3 -1 20 24 11 8 7
7 0 1 20 25 11 8 8
13 -4 -5 14 18 4 2 2
11 -4 -6 13 17 3 1 1
15 4 -6 13 17 1 1 0
12 -4 -6 14 16 1 0 -1
0 -11 -8 12 15 0 -1 -2
-4 -16 -10 8 11 -4 -5 -3
8 -5 -9 9 13 -1 -2 -2
11 0 -8 11 15 2 1 1
5 -5 -10 9 14 1 1 0
5 -5 -9 9 12 0 0 -2
6 -5 -8 11 13 0 0 -2
10 5 -6 14 15 4 2 2
10 6 -5 16 17 4 3 3
13 4 -5 14 14 2 1 2
13 1 -11 8 9 -2 -4 -2
5 -5 -14 6 6 -5 -8 -5
-4 -8 -10 9 12 -1 -3 -1
8 -7 -10 9 12 0 -1 0
20 -3 -7 13 16 3 2 5
10 -6 -7 10 13 0 1 3
5 -3 -7 12 14 3 3 3
8 2 -10 10 14 2 3 3
13 2 -11 9 13 0 0 0
12 -8 -10 8 9 -3 -2 -2
10 -9 -11 8 9 -4 -4 -1
12 -3 -12 7 10 -4 -4 0
16 6 -8 10 12 -1 -1 3
13 6 -7 11 14 1 2 4
9 -2 -11 9 10 -2 -1 2
0 -15 -13 6 6 -6 -4 -1
-9 -22 -12 5 5 -5 -5 -2
2 -12 -12 6 3 -6 -5 -2
22 12 -5 11 11 1 3 6
28 13 -4 13 12 4 5 6
18 -2 -9 9 7 -1 1 1
8 -11 -12 6 3 -5 -3 -3
6 -9 -10 7 4 -5 -3 -3
11 -8 -13 5 2 -7 -4 -6
12 -5 -11 7 2 -6 -4 -5
15 -8 -13 5 -1 -9 -6 -7
9 -11 -13 3 -2 -10 -6 -7
11 -6 -11 8 2 -6 -1 -3
14 1 -11 8 2 -6 -2 -3
16 3 -10 8 3 -3 0 -3
12 -1 -9 9 3 -4 0 -3
9 -3 -10 9 3 -3 0 -2
14 -3 -11 8 3 -2 0 -3
16 -3 -12 6 1 -4 -2 -5
9 -8 -10 7 0 -6 -3 -4
8 -9 -11 5 -2 -8 -5 -6
12 -5 -9 7 0 -5 -2 -5
18 2 -6 10 3 -3 2 -2
6 -12 -15 4 -3 -9 -5 -7
5 -12 -16 3 -3 -8 -4 -9
4 -7 -15 4 -2 -7 -3 -8
8 -4 -14 4 -3 -8 -4 -8
12 -3 -12 6 -1 -8 -5 -8
4 -7 -12 8 -1 -7 -4 -8
3 -11 -12 7 -3 -10 -6 -8
9 -6 -8 9 0 -7 -3 -5
15 8 -5 11 2 -5 0 -3
14 12 -4 12 3 -3 3 -2
5 0 -5 11 3 0 4 -1
-1 -11 -7 9 2 0 3 -5
9 -5 -6 10 2 -1 2 -5
20 8 0 16 6 2 5 0
20 17 1 16 7 2 6 1
28 25 2 15 6 3 6 1
24 20 2 15 5 1 5 1
24 20 6 18 9 5 9 3
25 21 8 21 12 9 13 6
13 9 6 20 12 7 12 4
6 -1 2 16 6 2 6 0
-18 -17 -3 11 0 -4 0 -6
-17 -18 -7 10 -4 -8 -3 -9
3 0 -2 14 1 0 4 -3
9 7 0 18 7 6 10 2
15 11 -1 19 7 8 11 3
19 14 -3 19 7 8 13 6
12 9 -9 15 3 3 9 2
3 -1 -13 11 -2 -1 6 -2
-3 -3 -16 10 -2 0 7 -1
-8 -9 -18 8 -2 1 7 -3
-13 -18 -20 8 -2 1 6 -3
-4 -7 -18 9 -1 1 9 0
2 4 -19 8 -5 -2 6 0
4 3 -18 6 -7 -5 2 -2
1 0 -20 4 -8 -6 1 -3
-3 -7 -23 1 -10 -6 1 -4
-3 -10 -22 1 -10 -6 1 -4
-10 -16 -22 -1 -12 -7 0 -5
-12 -21 -25 -3 -14 -9 -2 -6
-9 -20 -26 -6 -18 -12 -6 -8
-12 -20 -27 -6 -18 -13 -6 -8
-5 -15 -23 -3 -16 -10 -3 -5
1 -15 -25 -8 -20 -13 -6 -7
-2 -16 -27 -8 -19 -12 -5 -8
-8 -21 -24 -5 -15 -9 -2 -6
-5 -24 -27 -8 -19 -12 -6 -10
-7 -17 -25 -6 -19 -12 -5 -8
-7 -21 -26 -7 -21 -17 -9 -10
2 -25 -23 -6 -20 -17 -9 -9
-5 -24 -16 -1 -17 -14 -6 -7
-4 -19 -17 -3 -18 -14 -8 -9
14 -3 -14 -1 -15 -11 -4 -7
16 -1 -12 2 -12 -8 -2 -5
7 -12 -13 0 -14 -10 -4 -9
7 -17 -16 -3 -19 -13 -7 -11
8 -16 -17 -6 -22 -16 -9 -12
7 -15 -17 -10 -25 -18 -11 -14
4 -18 -17 -9 -24 -19 -12 -16
4 -17 -15 -8 -23 -19 -12 -15
12 -11 -15 -7 -24 -19 -12 -14
23 -3 -13 -4 -22 -17 -9 -12
12 -12 -14 -6 -24 -18 -13 -13
6 -20 -15 -8 -25 -20 -13 -14
10 -16 -15 -8 -25 -20 -13 -14
11 -16 -17 -9 -25 -19 -12 -14
10 -12 -13 -7 -23 -17 -10 -12
10 -14 -11 -6 -22 -16 -9 -12
13 -11 -12 -5 -21 -14 -8 -11
21 -2 -11 -5 -20 -13 -7 -10
20 -5 -12 -6 -21 -13 -7 -10
15 -6 -10 -4 -19 -13 -7 -9
15 -8 -11 -6 -21 -14 -9 -10
4 -20 -15 -9 -24 -16 -13 -14
5 -21 -14 -8 -23 -16 -13 -15
7 -19 -15 -9 -27 -21 -17 -18
5 -20 -10 -7 -25 -21 -18 -19
11 -18 -2 -1 -24 -20 -19 -22
27 -3 9 5 -21 -21 -22 -25
34 4 22 15 -15 -17 -22 -28
27 -1 32 25 -9 -14 -22 -32
19 -10 39 38 3 -4 -17 -31
25 2 49 57 24 18 1 -22
32 10 54 75 45 38 19 -11
16 13 69 107 79 71 48 10
12 12 78 135 107 97 70 23
16 20 87 172 146 136 104 47
-2 15 90 211 196 190 155 88
-35 1 81 244 243 246 208 131
-88 -20 75 284 296 305 267 183
-124 -38 59 312 329 342 309 227
-146 -53 36 315 332 348 325 256
-154 -45 21 314 336 353 341 283
-163 -36 2 296 320 340 341 301
-166 -45 -18 256 269 289 299 286
-153 -71 -28 200 190 197 213 232
-142 -91 -47 122 107 115 140 181
-130 -95 -56 41 27 41 74 132
-95 -73 -53 -39 -55 -39 -1 67
-27 -25 -36 -90 -111 -94 -53 19
22 10 -21 -103 -130 -114 -78 -6
20 11 -8 -87 -122 -112 -87 -25
22 9 10 -66 -109 -107 -92 -43
34 14 25 -46 -96 -99 -89 -52
37 13 39 -28 -84 -90 -87 -57
38 14 51 -11 -70 -80 -80 -59
43 20 67 3 -59 -71 -73 -55
50 27 81 10 -52 -63 -66 -53
59 36 93 11 -50 -60 -66 -56
58 29 100 7 -53 -63 -71 -63
56 22 105 6 -53 -64 -74 -65
66 27 115 11 -47 -57 -69 -64
70 32 129 17 -41 -50 -64 -60
71 27 136 15 -43 -52 -66 -62
85 40 144 15 -43 -49 -64 -63
85 41 147 8 -44 -49 -62 -61
86 45 147 -2 -48 -51 -63 -60
94 42 140 -12 -55 -55 -67 -64
82 28 132 -24 -62 -60 -72 -69
73 23 119 -37 -71 -65 -75 -69
76 28 114 -41 -72 -65 -74 -67
77 29 111 -41 -70 -60 -71 -64
78 25 108 -41 -71 -60 -72 -66
73 25 108 -40 -69 -59 -71 -63
75 28 108 -36 -63 -55 -66 -59
85 38 101 -38 -63 -53 -64 -57
81 38 92 -38 -61 -50 -59 -54
68 34 75 -39 -58 -44 -54 -48
52 24 56 -40 -55 -39 -49 -42
37 11 32 -44 -56 -36 -46 -39
35 7 13 -44 -54 -33 -42 -35
38 12 5 -38 -46 -26 -35 -29
33 15 6 -26 -37 -16 -25 -20
26 13 3 -20 -32 -12 -21 -16
24 12 2 -17 -29 -10 -19 -14
14 5 -1 -15 -28 -9 -18 -13
6 -4 0 -9 -23 -4 -12 -7
16 7 -1 -9 -21 -1 -9 -4
15 11 -1 -9 -22 -2 -11 -6
2 -6 -4 -13 -26 -6 -14 -7
-3 -18 -3 -10 -24 -4 -13 -5
0 -15 -2 -7 -21 -1 -10 -3
16 -5 -1 -7 -21 -2 -11 -3
16 -5 -7 -12 -26 -6 -15 -7
6 1 -8 -11 -23 -3 -12 -7
4 2 -6 -10 -20 2 -7 -4
3 -4 -6 -8 -18 4 -6 -2
1 -6 -10 -10 -20 1 -7 -4
5 -8 -9 -11 -24 -3 -11 -6
-6 -17 -10 -12 -25 -5 -13 -7
-12 -19 -8 -9 -24 -4 -13 -6
-3 -11 -6 -7 -22 -2 -11 -4
10 4 -7 -7 -21 -1 -10 -4
14 9 -3 -3 -16 5 -4 2
15 5 -7 -9 -20 2 -8 -2
11 5 -8 -10 -21 2 -7 -2
9 6 -2 -2 -14 8 -1 4
8 1 -5 -5 -17 5 -5 0
6 -1 -7 -9 -20 2 -8 -4
2 -6 -8 -8 -20 1 -7 -3
1 -7 -9 -8 -20 0 -9 -2
1 -5 -7 -6 -19 1 -8 -1
3 -6 -9 -9 -22 -1 -11 -4
7 1 -9 -9 -21 0 -9 -2
17 6 -8 -9 -19 2 -8 -2
8 1 -9 -10 -21 0 -8 -4
-4 -4 -8 -9 -21 1 -8 -1
0 -8 -8 -9 -22 0 -8 -1
0 -5 -8 -9 -21 1 -7 -1
-3 -4 -10 -11 -24 1 -7 0
1 -7 -10 -13 -24 -1 -10 -3
2 -4 -8 -9 -21 2 -7 1
4 -3 -7 -7 -19 4 -5 3
10 6 -9 -9 -20 3 -6 3
12 10 -7 -8 -19 1 -7 2
5 3 -8 -8 -20 2 -7 3
-4 -9 -13 -13 -23 -1 -9 1
-6 -11 -12 -11 -22 3 -6 3
-5 -9 -12 -12 -22 4 -5 4
-5 -10 -12 -12 -21 3 -6 2
-13 -17 -15 -14 -26 -1 -10 -3
-12 -15 -16 -15 -26 -1 -11 -2
-3 -5 -15 -12 -22 3 -7 2
2 1 -13 -9 -20 5 -4 4
-1 -1 -13 -9 -21 3 -6 4
-4 -3 -15 -11 -22 3 -8 4
-6 -5 -16 -13 -23 3 -7 4
-7 -6 -14 -12 -22 5 -5 5
6 1 -14 -12 -20 5 -4 6
6 1 -12 -12 -20 6 -3 7
-2 3 -11 -9 -20 6 -2 11
7 6 -14 -12 -22 5 -2 9
2 -3 -19 -16 -25 2 -5 5
-5 -7 -19 -14 -23 5 -3 6
-13 -8 -18 -13 -22 7 -1 6
-13 -10 -19 -15 -23 5 -3 5
-4 -5 -16 -13 -22 6 -1 8
3 3 -12 -10 -19 8 1 13
4 7 -12 -10 -18 10 3 14
3 6 -17 -10 -19 9 2 14
-6 0 -22 -13 -23 6 0 10
-5 5 -18 -13 -25 4 -1 9
-5 5 -17 -12 -25 5 0 12
4 6 -20 -15 -25 4 -1 11
2 4 -21 -14 -22 7 1 12
2 8 -18 -11 -17 11 6 18
-4 6 -19 -13 -20 9 6 18
-14 0 -26 -21 -29 1 -1 13
-18 -7 -27 -21 -29 1 -3 12
-16 -5 -27 -19 -30 2 -1 15
-19 -4 -27 -18 -29 3 0 15
-13 -3 -29 -21 -29 3 2 16
-9 -3 -33 -22 -30 5 3 19
-2 8 -31 -20 -28 8 7 23
-3 14 -28 -17 -23 11 11 27
-6 16 -30 -18 -24 11 12 28
-14 4 -38 -25 -30 7 7 22
-17 -4 -42 -27 -33 3 4 22
-8 4 -39 -27 -34 2 5 25
-10 7 -39 -29 -34 2 5 26
-18 0 -42 -30 -35 4 5 26
-19 1 -44 -33 -37 3 5 26
-18 3 -43 -33 -37 3 6 29
-30 -3 -45 -33 -37 1 5 28
-34 -15 -50 -38 -42 -3 1 24
-31 -17 -53 -41 -44 -3 2 25
-20 -2 -53 -41 -40 2 7 31
-5 15 -49 -37 -36 6 12 37
-5 22 -46 -35 -35 8 14 40
-20 10 -52 -38 -41 1 7 35
-27 1 -53 -39 -41 0 7 35
-24 0 -53 -39 -39 1 9 36
-16 13 -55 -40 -39 3 11 38
-12 19 -60 -44 -42 0 9 37
-25 0 -61 -46 -44 -2 8 36
-33 -15 -61 -46 -43 -1 9 36
-32 -10 -59 -44 -41 2 11 39
-36 -10 -59 -45 -43 -1 10 40
-33 -9 -63 -47 -44 -2 7 37
-38 -13 -64 -46 -44 1 10 38
-39 -12 -59 -41 -37 7 15 41
-34 -8 -57 -38 -33 10 17 41
-34 -10 -58 -35 -31 12 18 40
-38 -18 -59 -33 -30 14 19 40
-38 -19 -60 -33 -32 11 15 38
-43 -20 -59 -31 -27 14 16 38
-41 -17 -52 -22 -19 21 23 42
-32 -13 -49 -17 -16 25 26 43
-39 -16 -46 -13 -14 25 27 44
-48 -25 -48 -15 -15 22 23 40
-47 -28 -49 -16 -16 20 21 36
-33 -16 -43 -9 -8 27 24 39
-28 -12 -39 -3 -4 31 27 42
-29 -9 -37 -3 -4 28 24 40
-32 -18 -34 -2 -5 26 21 35
-37 -27 -31 1 -2 29 22 37
-25 -14 -29 2 -2 28 21 35
-10 -3 -25 5 1 29 21 35
-10 -7 -23 6 1 28 20 34
-2 -4 -20 9 2 29 20 33
-2 3 -14 15 7 33 24 37
-6 7 -10 17 10 36 26 38
-15 -6 -13 14 7 34 22 32
-26 -16 -15 11 4 30 18 28
-27 -18 -15 9 3 26 13 24
-27 -20 -15 9 0 24 11 22
-23 -15 -13 8 0 21 9 20
-13 -4 -9 9 1 23 9 20
-13 -3 -4 13 5 27 14 25
-8 4 -2 14 4 26 14 25
0 2 -4 10 1 20 7 21
-1 1 -3 8 -2 18 5 18
-4 -1 -2 7 -2 18 5 17
0 -1 -2 7 -1 20 7 17
-9 -12 -1 7 -1 21 5 15
-17 -12 1 6 -2 20 5 14
-9 -1 -1 2 -6 15 1 13
10 6 0 1 -6 15 1 13
0 -3 3 3 -6 14 0 12
-16 -16 -1 -1 -12 8 -6 9
-19 -17 -2 -2 -11 8 -6 8
-7 -10 0 -1 -11 10 -5 8
-3 -7 0 -1 -12 8 -5 7
-1 -4 1 0 -10 11 -3 8
0 -7 2 -2 -12 8 -7 4
-4 -8 4 -2 -14 5 -8 2
-8 -8 7 1 -11 7 -7 6
-4 -8 3 -4 -14 5 -9 4
-2 -14 2 -6 -16 4 -11 3
-10 -14 1 -7 -18 2 -12 3
-6 -10 2 -7 -17 2 -11 5
7 -5 2 -6 -15 7 -8 4
4 -6 6 -1 -9 13 -3 7
-8 -15 3 -1 -10 10 -5 6
8 -8 1 -6 -16 3 -12 1
8 -6 6 -4 -14 7 -10 2
-3 -7 7 -2 -12 8 -7 5
-5 -9 3 -5 -14 8 -9 3
1 -10 3 -6 -14 9 -8 3
6 1 6 -3 -11 12 -5 7
2 -2 6 -1 -9 12 -7 5
4 -4 7 1 -7 13 -5 5
-1 -2 7 2 -7 11 -6 5
0 0 8 2 -7 10 -7 5
4 -2 5 -3 -10 8 -11 1
2 -1 5 -3 -10 10 -7 2
2 -2 4 -4 -10 8 -9 2
4 -1 5 -3 -10 9 -10 1
1 -3 9 -1 -8 10 -7 3
-1 -5 9 -1 -8 10 -6 4
3 -4 6 -4 -10 7 -10 0
6 -2 7 -3 -7 11 -8 0
7 0 7 1 -3 13 -6 2
0 -9 5 0 -8 8 -10 0
0 -11 7 1 -6 7 -10 1
2 -9 6 1 -6 10 -7 1
7 -4 9 2 -4 13 -5 3
3 -1 11 3 -2 16 -3 6
-1 -4 10 1 -2 16 -2 6
3 0 7 1 -2 16 -2 5
4 0 9 4 2 17 -2 6
-2 -1 11 5 1 17 -3 5
-6 -10 6 1 -1 15 -4 2
-3 -11 1 -1 -2 14 -6 0
3 -10 0 -2 -4 11 -8 -2
2 -6 3 0 -6 9 -8 -1
-4 1 7 3 -3 11 -4 4
-6 2 6 2 -2 12 -4 4
-1 -2 7 4 1 17 0 8
2 -1 12 9 5 22 5 14
7 5 12 10 7 22 6 14
9 7 13 11 10 26 8 13
11 1 11 10 7 23 5 12
-4 -16 4 3 -2 12 -6 5
-9 -16 2 2 -4 10 -7 2
-4 -9 2 0 -5 11 -7 3
-12 -18 3 -1 -4 13 -4 4
-10 -8 6 2 1 19 2 7
5 6 9 8 8 26 8 11
9 6 7 8 6 23 5 9
2 -5 5 5 0 15 -2 4
-6 -15 6 3 -4 10 -8 1
-18 -22 5 1 -4 10 -7 3
-26 -32 1 -2 -5 10 -8 0
-17 -28 -2 -5 -8 9 -8 -2
5 -2 4 0 1 20 2 6
13 10 8 7 7 25 7 9
12 7 9 8 5 23 5 9
3 4 8 5 1 18 2 7
4 8 5 4 3 17 2 7
11 10 9 6 5 20 2 8
11 7 9 7 4 20 1 8
4 -1 4 2 -1 15 -2 3
-9 -11 3 0 -2 12 -5 2
-13 -12 3 0 -2 14 -4 1
-9 -11 3 0 -2 13 -3 1
-11 -10 4 1 -1 16 -1 3
-7 -12 2 0 -2 14 -3 0
6 -7 4 0 -4 11 -6 -2
9 4 7 2 0 15 -3 2
4 0 8 4 3 18 1 4
0 -7 3 -1 -2 13 -3 -1
-3 -11 1 -3 -4 9 -7 -4
2 -6 2 0 -2 11 -5 -2
16 8 7 7 5 20 3 6
17 13 11 8 7 21 4 9
15 9 11 7 7 20 4 10
8 -2 6 2 -1 12 -4 3
-3 -14 6 -2 -4 11 -5 -1
-12 -19 4 1 0 14 -3 1
-11 -16 1 0 0 14 -3 -1
-2 -6 0 -2 -1 11 -6 -3
-3 -1 1 -4 -4 8 -8 -4
-9 -7 1 -2 -1 12 -5 -1
-9 -1 4 -1 1 17 0 3
-3 1 4 0 2 17 2 4
-5 -8 4 0 -1 13 0 1
-9 -16 2 -3 -3 10 -4 -2
-6 -9 3 -2 -3 9 -5 -5
-8 -12 1 -3 -3 7 -6 -7
-14 -22 -1 -5 -5 5 -9 -9
-10 -19 1 -5 -4 8 -6 -5
-6 -11 1 -5 -3 11 -3 -2
-3 -3 2 -1 2 14 2 2
4 1 2 -1 -2 9 -2 0
-1 -7 2 -2 -4 7 -3 -1
-3 -11 2 -2 -3 8 -3 -1
-4 -16 1 -2 -2 9 -3 0
-7 -17 2 -3 -3 10 -3 -2
-7 -10 3 -4 -1 10 -1 -2
-1 -1 5 -4 -1 11 0 -1
4 6 8 0 4 17 5 1
2 -1 6 -2 1 15 2 -2
2 -5 1 -4 -1 10 -2 -6
3 0 2 -3 -2 9 -2 -4
5 -1 2 -3 -3 9 -1 -3
-5 -11 -1 -6 -5 8 -1 -3
-12 -14 0 -3 -3 11 0 -2
-3 -7 4 0 -3 10 0 -1
1 -7 4 -2 -2 11 0 0
4 -5 3 -2 -2 10 -1 -1
3 0 4 -1 -4 7 -3 -2
10 0 5 0 -3 8 -2 0
6 -9 5 -1 -3 8 -3 -3
-8 -12 6 -2 -2 9 -2 -2
-8 -8 3 -1 0 14 4 0
-4 -5 3 -2 -1 14 4 1
-1 -5 4 -1 -2 10 2 0
5 1 5 0 -2 11 2 -1
1 -3 2 -1 -1 12 2 -1
-1 -2 3 -1 1 13 3 2
4 0 2 -2 0 12 3 1
0 -6 2 -4 -3 8 0 0
-8 -9 5 0 -2 7 -2 0
-7 -10 1 -4 -4 6 -4 -2
0 -8 0 -4 -2 10 0 -1
-2 -8 5 -1 4 15 4 1
-8 -7 1 -3 0 11 1 -2
-8 0 3 -3 -1 10 1 0
-1 5 12 3 6 17 8 7
-5 2 14 5 8 19 8 6
-11 2 11 2 4 14 4 1
-4 8 12 0 2 11 3 1
9 17 13 2 5 13 4 2
11 18 13 5 8 18 7 3
-1 4 16 6 7 15 7 2
-14 -6 16 5 5 12 4 1
-22 -7 16 4 6 13 5 2
-21 -5 16 6 8 16 7 4
-3 9 22 13 15 21 13 9
7 14 20 13 13 22 12 11
1 10 18 10 10 19 11 8
-6 2 13 6 7 15 7 5
-9 -7 7 1 2 11 4 0
-19 -4 8 4 7 17 9 4
-10 1 5 6 10 20 12 6
-11 1 2 4 8 18 10 5
-14 0 0 2 5 14 8 5
-11 1 2 3 6 15 9 8
0 4 2 4 8 16 11 10
2 9 -2 3 9 18 13 11
-11 2 -3 1 9 18 13 10
-11 1 -1 -1 7 18 12 8
-7 5 -6 -6 2 12 8 3
-14 -8 -11 -10 -5 4 1 -2
-9 -10 -10 -9 -4 4 1 2
-7 -7 -10 -8 -2 7 3 4
-15 -5 -8 -7 0 10 6 6
-19 -12 -10 -10 -5 6 2 3
-17 -16 -14 -15 -10 1 -2 0
-21 -20 -11 -12 -6 4 2 3
-24 -27 -9 -10 -7 2 -1 2
-25 -34 -13 -15 -12 -4 -6 -2
-17 -27 -13 -17 -13 -3 -5 -3
-14 -18 -8 -13 -7 3 1 0
-17 -19 -6 -10 -3 7 3 0
-17 -21 -6 -9 -4 5 1 -2
-22 -26 -7 -10 -8 -1 -3 -4
-12 -20 -4 -10 -10 -3 -6 -4
-5 -15 -4 -10 -7 -1 -5 -3
-8 -11 -2 -5 0 9 5 2
-6 -10 2 -6 1 10 7 4
3 -6 5 -4 0 7 4 5
10 -3 6 -1 2 8 5 5
9 -5 3 -5 -1 5 1 2
11 -5 3 -8 -5 1 -2 -2
8 -10 7 -5 -3 1 -1 -2
1 -16 6 -4 -3 2 0 -2
0 -17 6 -4 -4 0 -1 -3
-2 -10 3 -8 -9 -5 -8 -8
-7 -18 0 -11 -9 -4 -8 -9
-14 -30 -6 -14 -11 -7 -10 -12
-9 -28 -5 -14 -12 -9 -10 -13
-1 -19 0 -12 -10 -7 -8 -10
11 -6 3 -9 -6 -2 -4 -8
8 -8 3 -9 -5 -2 -4 -7
2 -8 4 -6 -4 -2 -2 -5
1 -8 2 -6 -6 -5 -4 -7
-1 -10 2 -8 -8 -10 -7 -8
3 -10 3 -7 -7 -9 -8 -9
3 -12 -1 -7 -8 -9 -8 -10
-2 -13 1 -6 -5 -7 -6 -8
2 -11 2 -8 -8 -9 -7 -9
-2 -16 4 -9 -8 -9 -8 -9
-4 -22 5 -7 -6 -9 -7 -11
-2 -17 10 0 -3 -8 -8 -12
12 -12 20 7 -1 -9 -11 -17
25 -4 36 18 5 -8 -13 -20
31 8 49 29 13 -4 -13 -23
30 11 57 40 20 2 -9 -25
25 8 63 52 32 12 -3 -24
19 7 67 69 51 30 11 -16
13 4 73 90 73 51 30 -5
2 -4 82 116 104 82 57 11
-13 -4 95 150 140 119 88 31
-13 7 103 188 185 168 134 66
-21 8 103 224 236 226 189 110
-53 -6 90 251 282 282 245 155
-81 -11 77 287 335 341 306 207
-119 -19 60 310 364 376 349 257
-146 -27 42 315 372 385 371 293
-165 -28 23 309 373 390 384 319
-172 -25 -5 280 344 363 371 329
-159 -31 -19 240 290 298 314 302
-143 -58 -24 187 213 210 231 248
-131 -65 -31 117 137 135 167 206
-105 -63 -38 36 50 51 90 144
-54 -36 -29 -40 -36 -39 3 68
-12 -6 -11 -87 -99 -106 -61 12
2 3 -2 -92 -113 -126 -85 -19
18 13 13 -74 -103 -123 -94 -41
29 19 30 -52 -88 -115 -96 -55
43 24 44 -31 -72 -103 -91 -60
39 18 54 -17 -63 -97 -89 -65
40 20 68 -1 -51 -87 -81 -61
50 31 81 8 -41 -78 -74 -58
54 42 94 13 -34 -69 -65 -56
61 45 104 16 -32 -66 -64 -60
56 39 113 17 -34 -68 -64 -63
48 31 122 22 -31 -66 -65 -65
66 41 135 28 -26 -64 -65 -65
75 43 148 30 -23 -62 -64 -64
65 28 154 29 -25 -64 -65 -66
60 21 158 27 -26 -61 -64 -69
70 32 162 21 -28 -62 -62 -67
79 41 161 12 -34 -68 -65 -68
75 43 158 3 -36 -66 -63 -67
78 43 153 -4 -36 -65 -62 -66
77 41 140 -17 -46 -72 -67 -67
76 36 132 -27 -51 -75 -68 -69
66 20 124 -33 -55 -77 -70 -71
55 7 117 -39 -58 -79 -72 -76
68 26 123 -30 -46 -65 -60 -66
76 41 126 -21 -38 -58 -52 -59
75 38 115 -26 -45 -69 -60 -64
66 30 107 -24 -42 -67 -59 -61
55 20 90 -26 -41 -63 -55 -57
45 25 68 -30 -39 -58 -50 -53
49 34 51 -25 -31 -49 -40 -42
36 23 35 -21 -27 -43 -32 -35
27 12 18 -23 -28 -43 -31 -37
19 3 11 -18 -24 -39 -27 -35
10 -2 6 -16 -19 -36 -24 -31
13 1 4 -12 -15 -29 -19 -29
4 6 8 -7 -10 -26 -14 -24
5 4 4 -4 -9 -29 -17 -26
5 7 6 2 -5 -25 -12 -23
10 15 9 4 -4 -22 -9 -19
12 15 10 8 3 -16 -3 -13
10 0 8 6 0 -20 -6 -15
17 2 4 1 -6 -26 -10 -19
7 1 3 0 -5 -25 -9 -18
-4 -8 1 2 -4 -24 -10 -20
-9 -11 2 3 -2 -21 -8 -20
0 -5 2 5 -1 -20 -6 -19
2 -1 0 5 -1 -22 -8 -18
9 8 1 7 0 -22 -6 -17
10 12 2 7 1 -22 -6 -16
4 6 3 7 1 -21 -5 -15
-5 0 4 8 3 -20 -4 -15
3 -2 0 6 0 -25 -7 -19
9 3 -2 5 -1 -26 -8 -19
6 8 -1 7 3 -23 -4 -16
6 4 -2 7 4 -21 -4 -16
7 2 0 7 2 -23 -4 -16
5 3 2 8 2 -24 -4 -15
-5 -9 0 7 -1 -28 -8 -18
-15 -18 -2 4 -3 -30 -11 -21
-7 -6 -1 6 0 -29 -8 -17
2 7 -4 5 0 -27 -8 -18
13 8 -3 8 3 -24 -4 -17
13 11 -1 11 4 -24 -4 -15
3 4 -5 7 0 -29 -8 -17
2 3 -6 6 1 -26 -7 -18
7 9 -3 10 5 -23 -2 -13
8 14 -3 11 6 -22 0 -10
0 4 -5 7 2 -24 -4 -13
4 -2 -5 7 2 -25 -4 -14
-1 -1 -5 7 2 -25 -4 -12
3 3 -5 7 2 -26 -4 -13
2 1 -2 10 4 -24 -2 -11
-2 0 -1 10 5 -23 -2 -11
2 3 -4 10 6 -23 -3 -11
7 5 -5 10 6 -23 -4 -10
-3 -4 -7 7 2 -27 -6 -13
-9 -9 -7 6 3 -26 -6 -14
-9 -7 -8 7 6 -22 -1 -11
-1 -6 -9 4 2 -27 -6 -13
-2 0 -7 8 2 -30 -6 -10
3 9 -3 12 8 -23 -1 -4
7 11 -3 14 10 -21 0 -2
4 9 -3 14 11 -19 2 -3
-2 6 -4 14 12 -19 2 -5
-3 4 -6 10 7 -22 -1 -7
2 7 -7 10 6 -24 -2 -8
-1 7 -8 7 4 -27 -5 -9
0 5 -7 9 4 -28 -5 -7
1 6 -10 6 3 -30 -7 -8
-5 2 -9 8 5 -29 -5 -5
-10 0 -7 13 9 -25 0 -3
-11 -3 -7 14 9 -24 -1 -2
3 4 -9 13 7 -24 1 -3
5 7 -11 11 8 -24 2 -2
-10 1 -9 14 11 -21 6 1
-6 6 -12 10 7 -25 3 -1
9 13 -12 10 7 -26 2 -1
6 13 -9 14 10 -21 8 3
0 14 -6 17 13 -18 10 7
-7 9 -12 12 8 -23 4 2
-24 -5 -20 6 2 -29 -2 -4
-20 -7 -20 8 2 -30 -2 -3
-8 -1 -16 11 4 -29 -2 -1
-5 3 -14 12 4 -29 -1 0
-7 3 -16 8 2 -30 -1 0
-4 5 -16 7 4 -28 2 0
-6 7 -16 11 7 -22 7 6
-10 12 -17 12 7 -21 9 7
-7 14 -19 8 2 -28 3 4
4 18 -20 9 3 -27 4 5
2 20 -18 12 6 -21 11 12
-5 12 -22 7 3 -25 7 9
-11 6 -25 4 -2 -29 3 7
-8 14 -24 5 -3 -30 3 8
-5 20 -28 1 -4 -31 2 8
-13 14 -29 3 -3 -29 5 11
-19 6 -29 2 -4 -28 7 13
-16 6 -34 -1 -7 -30 5 12
-14 10 -36 -5 -10 -31 5 12
-18 14 -32 0 -5 -27 11 18
-14 19 -33 0 -3 -25 13 20
-10 16 -35 -2 -7 -29 9 17
-17 11 -40 -6 -10 -31 6 14
-21 5 -42 -8 -12 -32 7 15
-30 -1 -44 -9 -10 -30 9 17
-35 -5 -45 -9 -12 -30 10 18
-43 -13 -51 -16 -19 -37 4 15
-47 -14 -52 -18 -21 -40 3 16
-34 2 -49 -14 -17 -35 8 20
-21 13 -46 -11 -15 -33 12 23
-16 18 -48 -13 -15 -32 11 24
-21 11 -53 -17 -19 -36 9 21
-35 -1 -60 -21 -26 -42 5 17
-37 -1 -59 -20 -23 -38 8 19
-27 7 -54 -16 -19 -34 12 23
-22 12 -52 -14 -16 -31 16 28
-26 15 -53 -14 -17 -32 16 28
-26 20 -51 -11 -14 -29 18 31
-24 22 -48 -7 -9 -24 23 35
-25 4 -52 -10 -13 -27 20 31
-30 -4 -53 -8 -12 -26 19 30
-36 -7 -52 -5 -10 -26 20 30
-42 -11 -53 -4 -10 -26 19 27
-38 -8 -52 -1 -6 -22 22 29
-27 0 -46 4 0 -16 26 32
-39 -4 -44 9 4 -13 29 33
-44 -7 -46 11 5 -11 30 33
-27 2 -42 15 9 -8 32 34
-23 2 -39 16 10 -8 31 34
-37 -10 -37 19 12 -7 32 32
-33 -13 -38 20 12 -8 30 27
-34 -14 -36 22 12 -8 30 28
-27 -5 -31 27 16 -4 32 30
-23 -2 -29 29 20 -2 33 31
-26 -6 -29 29 20 -3 29 27
-27 -6 -23 34 22 -1 31 27
-24 -3 -19 36 24 1 32 27
-24 -8 -19 36 24 0 30 24
-30 -10 -17 37 24 -1 28 22
-29 -8 -15 36 21 -5 26 22
-27 -10 -16 35 21 -6 23 17
-27 -15 -14 36 20 -8 20 14
-21 -9 -11 38 21 -8 19 14
-15 2 -6 42 24 -6 21 15
-10 6 -6 41 23 -6 19 12
-6 7 -3 42 25 -4 20 14
-10 3 -2 41 23 -5 20 14
-23 -3 2 41 23 -6 20 14
-16 -2 2 39 22 -8 17 12
-8 3 1 37 19 -10 15 8
-6 4 3 36 19 -9 15 7
-8 3 5 39 23 -8 15 8
-13 -4 4 36 20 -12 11 5
-16 -8 1 32 13 -21 3 -1
-9 2 6 35 15 -19 5 1
12 24 16 43 25 -8 16 11
16 23 14 39 21 -10 13 9
6 11 9 33 14 -17 6 1
0 5 5 29 11 -20 3 -2
-7 -3 5 28 11 -20 3 -2
-15 -4 6 30 11 -19 3 -1
-6 1 3 25 6 -26 -3 -7
1 -1 1 22 3 -28 -6 -8
-1 -6 6 25 6 -25 -3 -5
2 -5 6 25 6 -24 -2 -5
-2 3 8 26 9 -21 2 -3
4 11 9 26 9 -19 4 -1
-4 3 10 27 10 -18 4 0
-4 4 8 25 8 -21 1 -2
4 4 4 21 2 -28 -6 -7
3 2 3 18 -2 -32 -11 -11
0 1 4 21 1 -28 -7 -8
-2 -1 3 21 2 -28 -6 -10
8 7 5 22 4 -25 -4 -7
10 11 7 24 6 -22 -2 -7
6 5 6 23 4 -23 -2 -8
1 0 6 23 4 -25 -4 -8
-9 -6 5 22 2 -26 -6 -10
-11 -4 5 22 3 -24 -5 -9
-2 1 4 20 3 -25 -6 -9
4 4 4 19 2 -27 -8 -9
4 9 8 24 6 -21 -3 -6
4 7 8 24 6 -22 -4 -6
5 5 6 24 6 -22 -5 -7
11 8 6 25 7 -22 -5 -7
5 2 4 24 5 -23 -6 -7
4 2 5 24 7 -23 -6 -9
7 4 5 24 7 -22 -7 -8
-1 -2 5 23 6 -22 -7 -9
-8 -3 5 24 8 -20 -3 -7
2 2 6 26 10 -18 -2 -6
8 5 6 26 11 -17 -3 -5
7 10 4 24 8 -19 -4 -7
-1 4 4 25 8 -19 -4 -7
1 -1 4 24 7 -21 -5 -8
4 4 5 25 10 -18 -2 -6
-2 5 7 27 12 -15 0 -4
-4 3 5 25 10 -17 -3 -6
4 8 6 27 11 -15 0 -4
1 1 2 23 8 -18 -3 -7
7 5 1 22 8 -18 -4 -7
8 8 4 25 12 -13 0 -3
-2 -1 3 24 10 -15 0 -3
-7 0 2 23 8 -17 -3 -5
-10 1 2 22 7 -18 -4 -5
13 20 7 28 13 -11 3 0
18 22 7 28 16 -6 5 1
3 6 6 27 16 -7 5 1
-2 -2 4 25 13 -10 2 -1
-6 -2 5 26 13 -11 0 -1
3 5 6 26 14 -10 0 -1
7 8 3 24 13 -11 -1 -2
3 7 1 21 11 -13 -3 -4
-1 5 0 21 11 -12 -2 -4
-4 9 3 25 15 -8 2 1
-8 7 5 26 16 -7 2 2
3 13 7 26 16 -7 2 4
13 19 6 26 16 -7 2 5
8 17 8 27 18 -5 4 6
4 10 4 23 14 -8 1 3
3 1 3 22 13 -8 0 3
5 4 4 24 15 -6 2 4
-7 1 5 26 16 -6 3 4
-1 5 0 20 12 -9 -1 1
5 6 -2 18 11 -10 -2 -1
-6 -3 -4 15 7 -13 -5 -4
-12 -1 -2 16 7 -12 -5 -3
-5 9 0 16 9 -10 -2 -1
6 23 1 17 11 -8 0 2
6 21 3 19 12 -6 2 5
-4 2 4 23 15 -4 3 5
-11 -5 2 21 16 -3 3 4
-5 2 -2 17 11 -8 -1 0
-2 1 -2 17 10 -9 -1 1
-8 -6 0 18 11 -7 -2 2
-3 -2 1 19 12 -5 0 3
1 9 0 17 12 -6 -1 3
4 11 -3 14 8 -8 -4 0
0 9 -2 13 9 -7 -3 0
0 9 -1 16 11 -5 1 2
-3 4 0 15 10 -6 -2 1
-7 -2 0 14 8 -9 -4 -1
1 1 -2 13 7 -10 -6 -1
-4 -1 -2 12 7 -9 -5 -1
-6 0 -2 14 8 -7 -4 0
-3 -3 -5 13 7 -9 -4 -1
-5 -6 -6 11 6 -10 -5 -1
-13 -2 -2 14 9 -6 0 4
-3 7 2 19 15 -1 4 9
7 14 2 19 15 1 4 8
5 12 0 17 12 -2 2 6
-3 2 -4 14 7 -7 -3 2
-10 -8 -5 14 5 -11 -6 -2
-9 -5 -5 11 6 -10 -6 -2
0 6 -2 15 9 -6 -2 1
1 4 -2 14 9 -6 -2 1
3 3 -2 14 9 -5 -3 2
4 6 0 15 11 -2 0 5
2 5 1 17 12 0 2 7
3 6 -2 13 8 -5 -5 2
-2 1 -4 11 6 -7 -8 -2
-2 -1 -3 13 8 -4 -5 -1
0 1 -2 15 11 -1 -2 3
2 3 -3 14 10 -1 -1 5
0 2 -4 11 8 -2 -2 1
4 2 -4 11 7 -3 -4 0
2 4 -2 12 8 -2 -3 2
2 6 1 14 11 0 -1 4
-6 2 0 12 9 -1 -2 3
-4 0 -2 10 7 -3 -4 2
-7 -1 -4 9 6 -3 -5 0
-7 -4 -6 7 5 -5 -6 -3
-9 0 -5 8 5 -4 -4 -2
-9 0 -5 9 6 -2 -3 -1
-8 -4 -5 11 9 1 1 3
4 0 -4 7 7 1 1 3
6 0 -3 8 8 1 0 3
6 5 -3 10 11 4 3 5
4 9 -2 9 10 4 3 5
-9 2 -6 7 7 1 -1 4
-11 -3 -6 7 7 1 -1 4
2 -4 -8 4 5 -1 -2 1
3 -1 -9 2 4 -3 -4 0
-1 1 -5 6 7 0 -2 1
1 5 -4 8 7 0 -2 3
-3 2 -1 8 7 1 -2 4
-10 -3 -1 8 10 2 0 6
-9 -1 -4 7 9 2 -1 4
-5 0 -5 6 8 2 -1 4
-3 -3 -3 4 7 1 -1 5
-2 -2 -2 6 8 2 0 4
-9 -9 -6 2 5 -1 -4 1
-23 -19 -11 -2 1 -5 -9 -4
-20 -18 -10 -1 1 -4 -7 -3
-9 -6 -7 1 6 1 -3 2
-12 -7 -5 4 5 3 -2 4
-4 5 -3 4 8 6 2 7
2 3 -3 4 8 5 1 7
9 4 -1 5 9 7 3 7
9 7 -1 5 10 9 3 8
4 8 -2 5 10 7 4 9
9 19 0 7 11 8 4 10
2 18 -1 6 11 7 2 9
-3 12 -3 3 7 6 0 7
-9 9 -4 2 7 6 -1 6
-16 -2 -1 3 9 9 2 8
-7 6 4 8 13 13 5 12
4 17 3 5 12 12 5 11
-8 6 3 6 13 15 7 12
-5 10 8 10 17 19 9 16
-4 12 8 9 15 17 7 16
4 19 8 11 17 18 8 17
4 20 11 13 18 20 9 18
-5 17 10 14 19 21 10 19
-5 15 9 13 18 20 10 19
-6 8 5 9 16 17 6 16
-13 1 4 7 15 17 5 14
-4 14 7 11 19 22 11 20
-3 17 5 10 19 23 12 22
-11 10 2 8 18 22 10 22
-20 3 -1 7 16 21 9 20
-23 2 -3 6 16 21 8 20
-7 6 -9 4 15 19 8 20
-6 5 -11 2 15 19 7 20
-8 -3 -13 2 13 18 6 19
-12 -2 -13 0 14 20 7 19
-6 9 -12 0 13 20 8 21
-4 10 -14 -2 11 19 7 22
-9 2 -15 -4 10 18 7 22
-14 -5 -16 -5 10 17 6 20
-18 -15 -20 -9 6 14 3 16
-22 -13 -20 -9 6 14 3 17
-23 -11 -21 -12 4 11 0 15
-24 -13 -21 -13 3 11 -1 14
-19 -5 -21 -13 3 11 -1 15
-15 -7 -21 -13 4 12 0 16
-22 -16 -21 -15 2 12 -1 16
-25 -19 -21 -17 1 11 -3 15
-19 -12 -18 -15 4 12 -1 17
-26 -23 -20 -17 1 10 -4 15
-30 -27 -21 -18 -2 8 -7 13
-24 -19 -18 -16 2 11 -3 16
-25 -23 -18 -16 3 12 -3 15
-23 -25 -19 -18 1 11 -5 12
-26 -25 -17 -17 1 10 -4 13
-23 -23 -17 -18 0 10 -5 11
-10 -10 -16 -17 3 12 -4 13
-5 -8 -13 -16 5 14 -3 13
3 -5 -10 -15 4 11 -4 13
4 0 -11 -15 4 11 -5 13
-6 -8 -10 -15 5 11 -5 14
-9 -11 -8 -15 4 12 -5 12
-4 -7 -12 -19 0 9 -9 10
-8 -12 -13 -20 0 9 -9 8
-5 -12 -10 -18 2 10 -7 11
-1 -9 -10 -18 4 13 -5 10
-4 -11 -9 -17 4 13 -5 13
-6 -11 -9 -16 5 13 -3 15
-9 -12 -10 -18 2 10 -7 12
-6 -8 -11 -17 4 12 -6 12
0 -6 -11 -16 5 14 -5 14
0 -8 -13 -17 4 13 -5 12
-6 -12 -13 -17 4 13 -7 11
-9 -14 -13 -18 3 11 -8 10
-8 -11 -13 -20 0 8 -9 9
1 -3 -12 -19 3 12 -5 12
3 -4 -11 -18 3 13 -4 14
7 2 -9 -16 5 13 -4 15
7 -1 -8 -16 3 13 -5 12
0 -7 -7 -17 1 9 -9 8
-3 -12 -2 -14 0 5 -15 3
-2 -13 6 -9 1 3 -19 -4
8 -4 15 -2 4 2 -22 -8
15 3 28 8 9 4 -23 -13
20 2 37 20 17 11 -21 -15
19 -2 46 35 33 26 -9 -10
21 12 59 60 60 54 16 7
22 21 72 87 88 82 41 24
5 13 80 117 121 114 67 40
-8 3 87 147 155 147 94 58
-26 0 91 189 205 200 142 93
-50 4 92 229 260 260 200 140
-67 10 83 265 315 325 261 189
-98 6 77 310 375 392 327 248
-128 -13 58 331 400 422 364 291
-143 -16 40 335 407 431 383 321
-155 -10 22 329 406 434 397 346
-157 2 -5 295 368 398 374 345
-156 -22 -19 249 303 321 306 311
-151 -59 -27 188 223 233 227 262
-130 -58 -38 111 143 161 166 220
-92 -43 -44 18 46 66 82 158
-47 -19 -32 -59 -43 -21 2 91
-10 -1 -23 -109 -102 -82 -57 40
2 12 -13 -107 -108 -93 -76 15
20 25 8 -82 -92 -85 -80 -2
28 28 25 -62 -80 -79 -84 -16
29 21 36 -48 -74 -76 -88 -30
34 17 48 -30 -60 -66 -83 -34
36 21 64 -15 -46 -53 -73 -30
32 25 75 -10 -41 -48 -69 -31
42 30 86 -12 -41 -47 -70 -34
57 39 96 -13 -41 -45 -70 -37
70 52 107 -14 -38 -43 -68 -36
77 50 114 -14 -37 -42 -67 -37
67 42 122 -15 -37 -42 -68 -40
66 38 133 -11 -32 -39 -68 -41
66 35 143 -9 -32 -38 -66 -42
71 38 146 -13 -33 -38 -66 -43
71 36 144 -23 -41 -42 -67 -43
64 30 138 -33 -47 -46 -70 -45
74 37 131 -43 -49 -46 -70 -46
85 44 123 -51 -50 -45 -68 -43
86 44 118 -55 -52 -45 -66 -39
83 38 109 -59 -54 -45 -67 -40
81 34 104 -58 -54 -44 -67 -38
76 34 106 -55 -50 -41 -65 -37
73 32 106 -51 -47 -37 -62 -34
67 28 95 -53 -50 -39 -63 -36
59 26 84 -56 -50 -40 -62 -34
53 28 69 -55 -48 -36 -58 -30
52 34 54 -51 -39 -25 -47 -18
47 25 33 -52 -37 -21 -43 -16
33 8 14 -51 -35 -18 -40 -11
15 -2 1 -47 -30 -13 -35 -8
12 2 -2 -39 -23 -6 -26 0
23 11 -2 -31 -16 1 -19 7
29 17 -2 -26 -11 7 -14 10
23 15 -1 -21 -6 12 -10 12
16 15 -1 -18 -3 15 -6 16
11 9 -1 -15 0 16 -5 17
6 4 0 -12 2 18 -3 18
-2 -6 -3 -15 -1 15 -5 18
-3 -5 -6 -17 -3 13 -6 15
5 2 -4 -14 0 16 -5 17
2 -3 -5 -12 1 17 -3 18
-2 -11 -8 -15 -2 14 -6 17
0 -10 -10 -18 -4 13 -10 14
-6 -5 -9 -14 0 18 -5 17
5 5 -8 -14 1 18 -5 17
11 6 -9 -15 -1 15 -7 16
8 8 -10 -15 -2 15 -5 17
7 11 -4 -7 5 21 1 22
13 8 -2 -6 6 22 1 23
13 10 -4 -7 4 20 -2 21
1 -1 -7 -11 2 16 -4 18
3 -4 -8 -11 1 17 -4 16
5 -3 -8 -11 1 16 -4 17
-3 -2 -7 -11 1 16 -5 15
-4 2 -9 -12 -1 15 -5 15
4 5 -9 -11 0 14 -5 16
11 8 -8 -10 1 17 -3 18
8 5 -8 -10 2 17 -2 17
-3 0 -7 -9 2 17 -2 18
-8 -5 -5 -8 4 19 -1 17
-2 -4 -10 -11 0 13 -5 14
0 -7 -11 -12 0 15 -4 14
4 1 -7 -7 3 18 0 17
6 3 -5 -7 4 19 1 17
8 6 -8 -8 3 18 -2 17
8 2 -9 -9 2 17 -2 15
9 -2 -10 -14 -2 13 -7 12
3 6 -10 -11 1 16 -4 12
-3 10 -2 -3 8 24 5 22
7 15 -4 -4 6 23 3 21
3 4 -10 -11 0 16 -3 15
-3 -3 -15 -13 -3 14 -6 9
-6 0 -13 -12 -2 15 -6 10
0 9 -10 -9 2 19 -2 14
2 7 -12 -11 0 17 -3 15
0 3 -11 -9 1 18 -2 15
4 7 -10 -9 2 21 0 15
-4 1 -13 -12 0 20 -2 14
-9 -4 -13 -11 0 19 -3 15
-5 -1 -14 -12 -1 19 -4 12
2 6 -14 -12 -2 17 -4 11
3 12 -12 -9 2 21 -1 14
0 -2 -13 -11 0 19 -2 11
-6 -8 -16 -12 -1 17 -5 8
-12 -9 -15 -12 0 19 -3 9
-7 -1 -16 -13 -3 17 -5 8
5 13 -10 -9 3 23 1 14
13 24 -5 -3 9 30 8 20
10 18 -11 -7 4 27 5 14
5 12 -12 -7 4 25 3 11
2 9 -11 -7 6 26 5 12
2 7 -12 -8 4 25 4 10
-6 4 -14 -9 1 22 2 6
-5 8 -16 -11 -1 21 0 4
2 14 -14 -9 2 25 5 8
9 17 -14 -8 2 24 4 8
6 12 -17 -12 -2 21 2 4
7 10 -16 -9 1 23 5 7
1 10 -15 -8 3 24 5 9
-3 10 -15 -8 3 24 5 8
-2 13 -15 -8 1 26 8 8
0 10 -17 -9 1 26 8 8
-2 6 -17 -9 2 26 7 7
-3 6 -21 -13 -1 24 4 3
-2 12 -20 -12 0 25 7 6
0 9 -21 -12 0 25 6 5
-6 8 -20 -12 0 25 6 6
-5 16 -21 -12 0 26 8 8
-4 22 -22 -12 0 28 9 8
-5 15 -21 -10 2 29 11 9
-13 0 -27 -17 -5 23 6 4
-21 -4 -31 -19 -7 22 5 3
-23 1 -30 -20 -8 23 6 5
-18 4 -32 -22 -8 22 7 4
-12 9 -30 -21 -7 24 8 8
-16 6 -31 -20 -7 25 9 10
-17 9 -32 -21 -8 24 10 9
-18 12 -33 -21 -7 25 11 12
-19 9 -36 -23 -10 22 10 12
-18 4 -42 -29 -14 18 6 8
-11 12 -41 -27 -12 21 9 11
-8 17 -40 -24 -9 25 12 16
-8 15 -43 -26 -11 23 10 14
-20 4 -46 -31 -17 18 7 12
-26 -2 -49 -35 -19 17 7 11
-31 -3 -53 -38 -22 14 4 7
-23 8 -49 -36 -20 18 8 12
-15 17 -47 -33 -15 22 13 18
-7 25 -46 -32 -15 22 15 19
-16 17 -50 -36 -18 20 12 18
-22 7 -55 -39 -20 18 10 16
-26 4 -58 -42 -25 16 8 13
-28 11 -55 -40 -21 19 12 17
-24 10 -55 -39 -19 21 13 19
-25 6 -54 -37 -18 23 16 23
-29 7 -57 -40 -20 21 14 21
-36 5 -60 -42 -23 17 11 18
-42 -6 -61 -41 -21 18 12 19
-38 -5 -55 -35 -16 24 18 25
-32 -4 -56 -33 -15 24 17 24
-31 -7 -56 -32 -15 24 16 22
-22 -3 -58 -31 -13 24 17 22
-28 -3 -52 -26 -8 29 19 24
-36 -2 -49 -19 -3 34 24 28
-34 -3 -48 -17 0 36 25 28
-34 -10 -47 -16 1 36 24 25
-37 -12 -46 -12 3 37 24 25
-48 -20 -45 -10 5 39 26 25
-42 -19 -40 -5 8 41 27 24
-27 -2 -37 0 12 43 28 26
-22 5 -30 5 18 48 32 29
-35 -12 -32 5 18 46 29 23
-35 -13 -31 7 19 46 29 19
-30 -10 -27 12 23 50 31 21
-16 -4 -27 10 20 48 28 17
-8 2 -26 9 18 44 24 13
-10 5 -21 14 20 46 26 15
-16 3 -19 16 24 50 30 17
-20 -2 -16 18 27 50 28 12
-18 -1 -15 17 24 48 25 10
-17 1 -14 15 22 46 22 6
-14 2 -13 16 21 45 22 5
-8 4 -10 16 22 44 19 4
-7 8 -6 17 24 43 19 4
-11 7 -5 17 22 42 19 0
-15 3 -4 16 20 40 17 -2
-4 7 -3 15 20 39 16 -4
1 4 -5 12 16 35 12 -7
-13 -11 -5 11 14 34 10 -11
-18 -15 -5 9 11 31 9 -13
-11 -5 -1 12 15 34 13 -11
-10 2 1 13 15 35 14 -10
-8 4 3 12 14 33 13 -13
-1 7 2 9 13 31 12 -15
8 14 5 10 13 32 13 -14
4 9 4 8 12 31 12 -16
0 2 3 5 9 28 9 -20
-10 -9 -1 2 5 26 6 -21
-19 -19 -5 -3 0 19 1 -25
-14 -17 -2 0 3 22 4 -25
4 4 3 3 6 25 7 -23
7 13 2 2 5 24 6 -24
10 11 5 3 7 25 7 -24
9 7 3 0 4 21 4 -27
11 9 0 -2 3 20 1 -28
10 8 2 -1 2 21 2 -29
1 3 0 -5 -1 17 -1 -31
-2 -1 -2 -7 -2 15 -3 -33
-11 -12 -5 -9 -6 10 -8 -36
-9 -11 -4 -6 -3 14 -5 -37
1 -3 1 -2 2 18 1 -32
18 13 2 -2 4 20 2 -32
17 13 0 -5 0 15 -2 -35
-1 3 -2 -5 -2 14 -4 -38
-9 0 -1 -6 -3 14 -3 -37
8 0 -2 -6 -3 14 -3 -38
16 6 2 -1 2 18 1 -34
8 11 7 3 7 23 7 -29
7 6 5 -1 3 18 2 -33
3 -2 1 -3 1 16 -3 -38
-7 -7 1 -3 1 15 -3 -40
-3 0 2 -2 1 16 -1 -40
10 6 3 0 2 16 -2 -39
19 14 4 2 5 19 0 -38
6 2 2 0 3 17 -1 -40
-8 -8 3 1 2 15 -1 -42
-7 -6 1 -1 1 14 -4 -44
1 -2 0 -1 1 14 -3 -43
14 12 3 1 3 16 0 -41
18 17 3 1 3 16 -1 -43
3 4 3 3 5 17 0 -41
4 2 5 5 8 20 4 -38
8 6 6 5 7 20 3 -38
24 21 8 7 10 23 4 -37
29 29 8 8 10 23 5 -37
16 21 7 8 10 22 5 -38
-8 -2 1 3 6 17 -1 -43
-3 -2 -1 0 2 14 -4 -48
2 0 2 3 4 16 -1 -45
11 8 5 6 5 17 2 -41
14 13 7 9 9 21 5 -39
10 10 4 7 8 20 3 -43
7 9 3 6 8 19 2 -43
0 1 0 4 5 17 0 -45
8 11 5 9 10 21 4 -40
14 15 6 11 11 23 6 -38
11 10 3 8 9 21 4 -37
5 7 2 7 7 19 2 -37
8 14 4 10 10 21 5 -34
11 18 5 11 11 23 6 -33
8 11 3 9 9 21 5 -33
-1 0 -2 4 4 16 0 -36
-3 1 -1 5 6 17 2 -31
8 9 2 8 9 20 5 -27
22 21 5 11 11 23 7 -21
13 14 3 7 8 20 5 -21
6 6 0 6 6 18 2 -23
5 5 1 6 7 19 3 -22
-4 -4 -2 3 4 15 0 -23
-15 -7 0 4 7 18 0 -19
7 8 2 7 8 22 4 -17
13 11 1 7 8 21 3 -16
9 8 -1 6 7 19 2 -15
14 9 -1 5 6 19 2 -15
3 5 1 7 7 19 3 -12
-5 0 -1 5 5 17 0 -14
-3 1 -3 3 4 15 -1 -16
8 9 -2 4 5 15 1 -15
8 10 -2 5 6 17 2 -12
-2 2 -2 4 5 17 1 -16
-5 -3 -2 5 6 18 1 -14
7 2 -2 5 6 17 2 -12
3 8 -1 5 6 18 1 -11
-5 4 -2 4 5 17 0 -11
4 8 -4 3 4 15 -1 -13
6 11 -4 3 4 15 -1 -12
5 -2 -5 2 3 13 -2 -12
1 -4 -4 3 4 14 -1 -10
8 13 -1 7 8 17 3 -7
12 22 -1 7 8 18 3 -7
13 13 -3 4 5 14 0 -10
0 -1 -5 2 2 12 -2 -12
-3 1 -4 4 4 14 0 -11
2 7 -7 0 1 11 -3 -15
9 9 -5 2 2 12 -1 -12
13 10 -2 6 7 15 1 -10
17 12 -2 5 6 13 0 -12
5 5 -3 4 6 14 0 -12
-4 -1 -3 4 5 12 -2 -13
5 7 -3 4 5 11 -3 -16
11 16 -3 2 2 9 -4 -15
10 8 -5 1 2 9 -4 -16
8 5 -5 2 3 10 -3 -15
1 3 -5 2 2 9 -4 -14
-8 -5 -6 0 1 8 -4 -13
-3 -2 -7 -1 0 6 -7 -16
1 3 -6 0 2 8 -5 -13
6 9 -4 3 6 11 -2 -9
13 14 -4 4 7 13 0 -6
25 21 -2 5 8 14 0 -6
18 20 -3 5 5 11 -1 -7
9 14 -5 3 4 10 -3 -8
2 4 -7 0 2 8 -5 -10
6 5 -5 3 5 9 -4 -8
24 20 -2 4 6 10 -1 -6
18 14 -5 2 4 8 -3 -8
5 2 -9 -2 0 5 -7 -12
0 0 -12 -4 -2 2 -10 -14
4 8 -8 -2 0 4 -6 -12
6 4 -7 1 3 6 -6 -9
1 -6 -8 0 1 4 -7 -9
-5 -7 -11 -3 -2 2 -10 -12
1 2 -7 0 1 5 -7 -11
10 10 -4 3 5 8 -3 -7
15 12 -2 5 6 8 -2 -5
10 5 -5 2 4 6 -5 -8
-10 -9 -9 -1 0 3 -9 -12
-3 -12 -13 -4 -3 -1 -12 -15
8 -2 -8 0 2 3 -7 -12
6 2 -7 1 2 4 -7 -10
9 6 -6 2 3 6 -5 -6
19 12 -4 3 4 7 -4 -6
12 12 -2 6 6 9 -4 -2
9 8 -4 4 5 6 -5 -4
17 10 -7 0 1 3 -9 -6
17 14 -7 0 1 3 -7 -6
10 6 -11 -1 1 2 -8 -7
-5 -5 -10 -2 0 1 -9 -6
-5 -4 -9 0 2 1 -8 -5
9 5 -5 3 5 4 -5 -1
4 -2 -7 0 2 2 -9 -6
-11 -11 -14 -5 -4 -4 -15 -11
-10 -5 -14 -4 -3 -5 -15 -11
-1 -4 -11 -2 -1 -3 -13 -7
5 -1 -10 -2 2 0 -10 -4
9 6 -7 2 5 5 -6 0
21 18 -5 4 6 6 -4 2
28 20 -5 3 6 3 -5 2
20 19 -4 4 7 4 -5 1
16 15 -4 4 7 4 -4 1
12 9 -6 4 6 3 -6 0
8 2 -9 -1 1 0 -10 -3
7 3 -9 -2 1 -2 -10 -4
4 3 -8 0 2 0 -10 -4
9 10 -9 1 2 -1 -9 -4
20 20 -6 2 4 1 -7 -2
23 29 0 8 9 7 -3 3
21 33 4 13 14 10 2 7
11 20 1 10 11 8 0 5
6 9 -3 6 7 3 -7 0
6 14 -1 6 9 4 -5 0
7 16 -2 8 9 4 -5 0
7 13 -2 7 7 2 -5 -2
7 16 1 10 9 5 -3 1
3 14 3 12 10 5 -1 3
5 15 1 10 10 4 -3 1
4 13 2 10 11 5 -3 0
3 9 -1 8 8 2 -5 -2
-1 3 -4 7 6 1 -5 -2
-7 -1 -6 7 5 2 -6 -1
-13 -5 -8 6 7 3 -5 0
-7 6 -5 12 14 9 2 6
4 11 -7 10 12 6 0 6
13 14 -11 8 11 4 -1 3
7 12 -12 9 11 6 0 6
9 18 -12 8 10 6 0 7
17 16 -15 6 7 3 -3 3
6 8 -18 5 7 2 -3 4
-3 4 -17 6 8 3 -1 6
-2 0 -21 1 3 -2 -6 0
0 -2 -25 -3 -1 -6 -10 -6
-5 -3 -23 -1 1 -4 -8 -4
-11 -4 -22 -1 1 -5 -8 -3
-11 -6 -22 -1 0 -5 -8 -3
-12 -15 -25 -4 -2 -7 -11 -5
-13 -16 -28 -8 -7 -13 -16 -10
-19 -20 -28 -9 -8 -14 -17 -10
-7 -7 -28 -9 -8 -14 -15 -9
8 2 -26 -7 -6 -11 -12 -6
3 -7 -24 -4 -4 -10 -12 -6
-5 -13 -23 -2 -2 -9 -11 -6
-1 -14 -24 -5 -5 -12 -13 -6
0 -11 -22 -5 -5 -14 -15 -7
-3 -10 -21 -3 -2 -10 -12 -6
-6 -13 -22 -6 -7 -15 -16 -7
4 -7 -20 -6 -6 -14 -17 -7
11 -2 -15 0 0 -9 -13 -5
12 1 -12 4 3 -7 -9 -1
15 6 -12 2 0 -9 -11 -4
11 3 -13 1 0 -10 -14 -7
9 -5 -18 -5 -6 -17 -20 -15
2 -12 -18 -7 -8 -20 -22 -17
3 -11 -18 -7 -8 -22 -23 -17
7 -10 -18 -8 -10 -22 -24 -18
2 -15 -16 -6 -10 -22 -24 -19
9 -12 -17 -9 -13 -24 -27 -21
10 -11 -15 -6 -10 -21 -24 -18
3 -17 -16 -8 -12 -24 -27 -22
4 -17 -13 -5 -8 -22 -24 -19
17 -7 -12 -3 -7 -21 -22 -19
18 2 -9 -1 -4 -17 -19 -18
23 8 -9 -1 -4 -18 -19 -17
26 13 -7 1 -2 -17 -19 -16
22 10 -6 2 -1 -16 -17 -15
25 11 -6 1 -2 -16 -17 -14
26 6 -9 -2 -6 -21 -22 -18
21 0 -10 -4 -8 -22 -23 -20
22 0 -10 -4 -7 -21 -23 -20
15 -4 -11 -6 -9 -22 -24 -20
14 -4 -12 -5 -8 -22 -24 -20
18 -2 -12 -5 -9 -23 -25 -21
15 -9 -10 -3 -10 -25 -27 -24
8 -16 -6 -3 -11 -28 -32 -29
10 -16 1 1 -11 -31 -37 -34
13 -21 8 3 -14 -39 -43 -44
25 -10 21 11 -11 -38 -45 -46
36 12 38 32 7 -22 -35 -41
47 30 54 52 29 -3 -19 -30
43 30 59 67 46 15 -4 -22
38 23 66 90 70 39 15 -12
29 24 77 124 106 73 42 5
21 23 88 159 143 108 70 20
6 25 96 200 189 153 110 47
-11 21 98 244 244 212 164 90
-37 16 93 284 300 275 223 136
-63 15 88 332 363 341 286 189
-94 7 78 368 404 386 335 237
-126 -5 64 381 416 398 357 270
-151 -15 44 377 414 401 371 294
-160 -20 23 351 387 377 359 300
-153 -29 10 311 330 313 307 281
-134 -51 -5 243 243 219 228 234
-98 -42 -17 166 166 148 172 203
-74 -36 -27 68 67 58 95 148
-37 -19 -27 -28 -34 -38 7 77
2 3 -22 -92 -106 -108 -57 23
11 7 -18 -105 -128 -133 -88 -9
22 15 2 -81 -113 -128 -95 -26
38 26 24 -58 -98 -121 -99 -42
50 33 42 -36 -84 -112 -99 -50
58 38 61 -13 -67 -98 -92 -53
62 39 73 1 -56 -89 -85 -54
60 40 86 8 -48 -81 -78 -53
61 38 95 5 -48 -81 -80 -57
75 46 103 -2 -51 -83 -84 -64
75 45 111 -1 -50 -81 -84 -65
72 36 118 -2 -49 -80 -85 -69
78 33 126 -2 -49 -81 -87 -74
86 32 135 -2 -49 -81 -89 -76
76 29 140 -3 -50 -82 -90 -78
77 32 143 -6 -50 -82 -88 -76
97 50 142 -14 -53 -81 -84 -72
93 46 131 -27 -61 -87 -90 -77
92 40 120 -39 -67 -91 -92 -79
85 36 111 -48 -70 -90 -90 -77
85 37 107 -49 -70 -88 -88 -75
96 42 104 -48 -68 -85 -85 -75
104 44 106 -43 -63 -81 -80 -72
109 54 107 -39 -59 -77 -76 -67
100 51 100 -37 -56 -75 -74 -64
85 39 88 -39 -57 -76 -75 -66
74 33 74 -38 -55 -72 -70 -62
76 36 54 -39 -51 -67 -64 -55
63 28 36 -36 -45 -59 -56 -47
47 18 20 -30 -38 -50 -47 -37
41 20 10 -24 -31 -43 -39 -31
34 13 3 -18 -26 -39 -36 -31
30 12 4 -11 -19 -32 -30 -26
23 8 3 -4 -14 -27 -25 -22
15 0 1 -3 -12 -24 -24 -22
13 -2 3 2 -6 -20 -19 -21
11 -1 2 4 -5 -20 -18 -20
13 3 3 6 -4 -19 -17 -18
16 10 3 7 -2 -15 -13 -14
11 10 6 9 1 -12 -10 -10
24 12 4 9 -1 -15 -13 -11
25 10 2 7 -1 -15 -14 -13
18 6 1 6 -2 -15 -15 -13
15 3 1 7 -2 -16 -16 -13
13 2 0 7 -2 -16 -16 -13
14 2 1 10 1 -13 -12 -11
27 14 4 12 5 -10 -9 -7
29 18 3 11 4 -10 -10 -6
16 6 -2 6 -2 -16 -15 -10
22 13 1 9 1 -14 -12 -8
18 10 2 10 3 -11 -10 -7
7 0 -1 7 1 -14 -13 -10
-2 -5 -2 9 1 -14 -12 -9
12 1 -1 8 1 -13 -12 -9
25 10 2 11 3 -12 -9 -7
18 3 0 10 2 -13 -10 -9
18 7 2 11 4 -12 -9 -5
17 11 3 10 4 -11 -8 -6
18 13 3 11 5 -10 -7 -5
21 13 4 13 5 -10 -6 -3
27 10 -1 7 0 -16 -13 -8
15 4 0 8 1 -15 -12 -9
4 1 1 10 1 -14 -12 -10
-2 -1 0 9 1 -14 -11 -12
4 6 2 11 3 -12 -9 -9
13 6 1 11 3 -12 -9 -11
10 5 1 12 3 -12 -9 -8
19 9 2 12 4 -12 -6 -8
25 14 3 13 5 -9 -6 -7
19 14 5 12 5 -9 -5 -6
17 15 5 12 4 -9 -6 -5
16 9 0 9 1 -13 -9 -9
14 9 0 10 2 -12 -8 -9
11 4 0 9 1 -13 -9 -10
9 0 -1 9 1 -13 -9 -10
9 -1 -2 9 0 -13 -8 -11
19 1 -4 4 -2 -16 -12 -13
14 -2 -4 4 -3 -17 -13 -14
4 7 3 12 4 -10 -6 -7
12 13 4 13 6 -8 -4 -5
17 13 2 10 4 -10 -7 -4
9 9 3 10 5 -9 -6 -4
9 9 2 11 4 -11 -7 -4
10 13 0 9 3 -11 -7 -6
9 10 0 9 4 -11 -6 -6
5 0 -1 9 3 -11 -7 -7
9 3 -3 8 1 -12 -8 -8
7 3 -3 7 1 -11 -8 -9
-2 -1 -2 8 1 -12 -8 -9
2 2 -1 9 3 -10 -7 -7
8 6 -3 8 2 -12 -7 -6
8 5 -1 9 2 -11 -7 -6
9 5 -1 7 1 -12 -7 -6
16 16 3 12 7 -7 0 0
22 21 1 11 6 -7 -1 -1
12 14 -4 7 2 -10 -6 -3
4 4 -7 6 1 -12 -7 -4
6 10 -3 7 3 -11 -5 -1
14 21 0 11 7 -7 0 4
12 18 0 12 8 -4 3 4
7 11 -4 8 5 -7 0 2
2 11 -5 8 3 -7 -1 0
5 12 -5 7 2 -9 -2 -1
14 17 -4 8 5 -6 1 2
10 18 -3 10 8 -3 4 4
3 9 -7 6 2 -8 -1 -1
-2 0 -9 3 -1 -11 -3 -1
-3 3 -10 2 -1 -10 -2 1
1 12 -8 5 2 -8 0 2
-8 8 -11 3 0 -9 -1 -1
-13 6 -15 -1 -2 -13 -3 -1
-4 18 -13 1 -2 -11 -2 4
14 29 -10 3 1 -6 3 8
15 32 -9 5 3 -4 6 11
3 17 -10 4 4 -3 7 13
-4 8 -12 1 1 -5 6 10
-11 6 -15 -2 -2 -7 6 10
-20 1 -18 -3 -3 -9 4 10
-15 -1 -26 -11 -10 -15 -1 4
-10 9 -27 -12 -10 -15 0 6
-15 10 -24 -9 -7 -11 3 12
-19 3 -26 -11 -9 -14 2 10
3 13 -29 -15 -12 -15 1 8
-5 18 -26 -10 -9 -11 6 14
-16 14 -26 -11 -7 -8 7 16
-17 11 -30 -14 -11 -12 6 13
-20 6 -32 -17 -13 -14 5 13
-16 6 -32 -18 -14 -12 7 15
-15 8 -33 -19 -15 -12 8 15
-17 10 -33 -17 -14 -11 10 20
-13 12 -37 -20 -17 -13 8 19
-17 8 -36 -20 -16 -12 9 20
-17 10 -34 -18 -13 -8 13 24
-23 6 -37 -21 -16 -11 11 23
-17 21 -41 -22 -18 -12 9 21
-14 22 -42 -24 -17 -11 11 21
-21 10 -41 -24 -18 -12 11 22
-24 6 -45 -27 -21 -15 7 19
-28 7 -41 -23 -16 -10 11 23
-22 8 -41 -22 -16 -9 14 25
-14 13 -44 -22 -16 -10 13 25
-19 10 -41 -17 -11 -6 15 27
-33 3 -39 -14 -9 -3 17 28
-25 4 -38 -13 -7 -2 18 28
-20 4 -39 -10 -5 0 18 26
-28 -2 -39 -7 -3 2 20 26
-30 -5 -38 -7 -1 3 20 25
-39 -14 -37 -4 1 3 19 23
-41 -13 -32 1 5 7 23 25
-22 5 -26 7 12 13 29 30
-22 1 -25 11 14 15 29 29
-28 -4 -23 15 18 18 29 28
-34 -11 -22 17 19 18 29 27
-37 -16 -25 16 17 15 25 23
-28 -7 -18 23 23 20 28 24
-26 -5 -15 25 24 20 28 21
-31 -9 -14 24 24 19 26 17
-23 -7 -13 24 24 19 25 17
-9 6 -5 31 31 26 31 23
-7 12 -1 34 33 27 32 23
-4 13 -1 35 33 26 30 22
-9 5 -1 32 31 22 25 18
-11 3 0 33 31 21 24 16
-11 -2 -1 31 28 18 20 13
-25 -11 -3 28 24 14 15 8
-31 -13 0 27 23 14 16 8
-18 -3 3 29 23 14 17 10
-6 2 4 28 23 14 16 9
-8 1 6 28 24 13 15 6
-11 -2 7 27 22 11 12 5
1 7 10 29 22 12 14 7
2 9 10 27 20 10 13 5
-2 7 10 26 20 10 12 5
-1 6 11 26 20 9 11 3
2 8 12 26 19 10 11 2
-2 4 13 27 20 10 11 2
-4 -8 8 22 14 4 5 -4
-6 -11 5 19 10 0 2 -7
3 4 9 21 13 4 6 -4
1 6 11 20 12 3 5 -3
-12 -1 11 18 9 0 2 -5
0 2 7 15 6 -4 -2 -9
3 -3 6 13 6 -4 -3 -9
-12 -15 7 14 6 -4 -2 -8
-17 -21 3 10 2 -8 -5 -13
-9 -7 6 12 5 -5 -4 -12
0 0 8 13 6 -4 -1 -9
13 7 8 12 5 -6 -3 -11
9 5 10 13 5 -5 -3 -11
9 12 14 16 9 -2 1 -6
10 12 12 14 7 -4 -1 -8
10 8 11 13 5 -5 -3 -12
7 7 9 12 3 -6 -4 -14
1 2 8 11 4 -7 -4 -13
7 5 9 12 4 -7 -4 -13
7 2 8 10 3 -7 -4 -13
-3 1 6 8 1 -9 -7 -14
-10 -6 4 5 -2 -11 -11 -19
-18 -22 0 2 -6 -16 -15 -23
-14 -17 4 6 -2 -13 -13 -19
-10 -9 5 5 -1 -12 -12 -17
1 0 6 6 0 -10 -10 -16
12 13 11 11 5 -5 -5 -11
10 12 12 13 5 -5 -4 -12
18 15 13 15 6 -3 -3 -13
19 17 11 12 5 -5 -5 -18
7 7 7 10 1 -9 -9 -21
-6 -11 5 7 -2 -11 -12 -24
8 5 7 9 1 -9 -9 -21
10 11 10 12 3 -6 -7 -19
9 14 11 13 5 -5 -5 -17
3 7 8 8 2 -8 -10 -22
-7 -5 5 6 -1 -11 -12 -25
0 -2 6 8 1 -11 -12 -23
2 4 13 13 7 -4 -6 -18
-2 6 11 12 7 -4 -7 -18
4 2 7 9 2 -9 -11 -20
3 0 8 10 2 -9 -11 -21
2 1 10 12 5 -7 -8 -17
-2 7 14 16 9 -3 -4 -12
9 15 14 16 9 -3 -3 -9
8 10 13 15 7 -3 -5 -11
4 6 9 11 4 -6 -8 -14
2 8 8 9 5 -7 -8 -13
1 6 9 11 6 -6 -7 -11
-8 -4 8 10 6 -6 -8 -13
-8 -6 7 10 4 -8 -9 -14
4 7 7 11 6 -6 -8 -12
12 15 12 15 10 -2 -3 -6
19 22 17 21 16 4 4 1
2 7 12 15 11 -2 -3 -5
-2 -3 5 9 5 -8 -9 -11
3 10 7 11 6 -7 -8 -8
7 18 9 13 9 -4 -6 -7
5 16 9 12 10 -2 -4 -5
7 10 7 12 10 -4 -5 -7
3 5 9 13 11 -2 -3 -3
-2 2 10 14 11 -2 -2 -3
1 10 7 10 9 -4 -4 -6
4 11 8 11 9 -4 -4 -6
-1 5 9 12 9 -3 -4 -4
-3 3 9 13 11 -2 -2 -3
-3 0 5 10 7 -6 -6 -7
-12 -6 1 6 3 -10 -10 -10
-4 1 2 7 4 -9 -8 -9
4 8 7 12 11 -2 -3 -3
2 9 8 11 11 -2 -2 -1
11 14 8 10 10 -3 -2 -1
10 12 7 10 10 -2 -2 -2
4 13 9 11 12 -1 -1 1
4 16 9 10 9 -2 -3 1
-4 11 3 5 5 -6 -7 -6
-5 4 0 3 2 -10 -9 -8
-4 3 3 6 6 -7 -5 -3
7 17 8 13 11 -1 1 2
9 19 8 11 12 1 2 2
-3 6 4 8 8 -4 -2 -1
-6 2 2 6 5 -7 -5 -3
-4 8 3 6 6 -5 -4 -2
-6 3 3 5 5 -7 -5 -3
1 9 1 2 2 -10 -9 -5
4 14 3 5 5 -7 -5 -2
2 11 5 7 7 -5 -3 0
-10 -3 1 4 3 -9 -7 -4
-18 -13 -3 0 -1 -12 -10 -8
-3 -1 -2 0 0 -11 -10 -7
7 14 5 7 7 -4 -3 0
5 14 6 8 8 -4 -2 1
-6 -2 2 4 5 -7 -5 -1
-13 -6 2 4 4 -6 -5 -2
0 10 3 5 4 -7 -5 -1
11 18 0 2 2 -8 -7 -4
4 7 -1 1 2 -10 -8 -5
2 9 3 3 4 -6 -4 -1
13 19 5 4 6 -4 -2 2
7 18 4 4 6 -4 -2 1
-4 10 -1 1 3 -8 -4 -2
-7 2 -1 1 2 -9 -6 -3
-9 2 2 3 4 -8 -5 -2
-7 6 2 1 3 -9 -5 -2
-17 -4 -1 -1 -1 -12 -8 -4
-11 -5 -2 -2 -1 -13 -9 -5
-1 4 2 0 2 -9 -6 -1
-4 0 0 0 1 -11 -7 -2
-9 -7 -4 -4 -2 -14 -10 -6
-10 -6 -3 -4 -2 -12 -10 -6
-8 -3 0 -1 2 -9 -7 -3
1 7 5 4 6 -5 -2 1
1 7 5 5 7 -4 -1 1
1 4 5 4 7 -5 -1 2
-2 2 5 5 7 -5 -1 1
-3 6 4 4 6 -5 -1 -1
5 11 3 4 5 -6 -2 -2
4 10 2 2 4 -7 -2 -1
-6 -2 0 0 2 -8 -4 -2
-16 -10 1 1 4 -7 -4 -3
-14 -11 -1 -1 2 -9 -4 -6
-7 -6 -1 -2 1 -10 -5 -5
-7 -3 -2 -3 2 -8 -3 -4
-4 -1 -4 -5 -1 -10 -5 -6
3 14 3 1 6 -4 1 1
-6 17 2 1 6 -5 1 2
-11 10 1 0 4 -7 -1 1
2 9 3 4 7 -4 2 4
5 7 1 2 6 -6 -1 2
3 6 3 1 5 -6 -1 3
4 5 4 2 5 -6 0 4
-4 -6 4 2 4 -7 -2 3
-15 -14 -1 -1 1 -10 -6 0
-14 -7 2 2 5 -6 -1 4
5 12 6 5 9 -2 4 9
13 16 6 4 8 -2 4 8
8 12 5 4 9 -2 4 8
12 13 4 3 8 -2 2 7
-5 -1 -2 -4 1 -10 -4 0
-16 -8 -2 -6 -1 -12 -6 -2
-7 -1 1 -3 1 -8 -1 1
-9 0 0 -3 2 -9 -3 -1
-10 -5 -2 -4 0 -12 -5 -3
-15 -12 -4 -5 -2 -13 -6 -5
-22 -9 -3 -4 -2 -14 -8 -5
-20 -7 -3 -4 -2 -16 -9 -4
-17 -10 -2 -4 -2 -13 -6 -3
-9 3 4 2 5 -5 1 4
5 17 9 8 11 1 7 10
6 17 9 8 11 0 6 10
5 14 6 5 7 -3 3 7
5 13 6 4 6 -4 1 6
1 10 6 4 7 -3 1 7
-6 3 3 1 5 -6 -1 4
-12 -3 1 -1 3 -7 -2 3
-17 -6 3 2 5 -5 0 3
-6 7 5 3 6 -4 1 5
-4 11 7 4 6 -4 2 6
-13 8 9 8 9 -2 4 9
-13 8 10 9 11 -1 4 9
-21 0 10 8 8 -4 2 7
-21 1 9 5 5 -7 -1 3
-18 11 9 5 6 -6 0 3
-14 15 11 7 9 -4 3 5
-7 18 18 14 15 2 10 12
-5 21 18 14 15 3 9 12
2 22 14 10 11 0 6 9
-6 14 13 10 12 1 7 11
-13 4 11 10 12 1 8 10
-13 3 9 11 13 3 11 11
-10 5 7 10 13 3 11 12
-9 9 3 8 12 2 10 12
-13 12 3 9 12 2 11 13
-21 0 -3 2 5 -5 4 6
-25 -5 -4 2 6 -6 4 6
-24 -2 -1 6 9 -2 7 11
-7 4 -5 1 6 -4 6 8
-11 3 -6 -1 5 -4 5 7
-19 1 -6 0 6 -4 4 8
-23 -3 -8 -2 3 -6 2 6
-26 -1 -8 -2 2 -7 3 7
-22 -4 -12 -6 -2 -10 0 3
-28 -11 -14 -9 -4 -13 -4 -1
-24 -7 -13 -10 -7 -16 -5 -2
-23 -12 -13 -12 -9 -18 -7 -2
-26 -15 -13 -11 -7 -18 -5 -1
-22 -13 -13 -9 -7 -17 -4 0
-25 -21 -14 -10 -9 -19 -7 -2
-38 -27 -13 -10 -9 -20 -9 -3
-33 -21 -13 -11 -9 -20 -8 -2
-21 -13 -12 -10 -9 -20 -7 -2
-26 -19 -11 -11 -9 -20 -7 -3
-25 -18 -4 -3 -2 -13 0 1
-28 -17 -6 -6 -5 -17 -4 -4
-27 -28 -12 -13 -13 -25 -10 -11
-21 -23 -11 -13 -12 -23 -9 -11
-13 -13 -7 -10 -10 -21 -8 -10
-3 -4 -5 -8 -8 -19 -6 -9
-3 -2 -2 -6 -6 -18 -5 -7
-2 0 0 -5 -6 -18 -5 -7
-4 -2 0 -7 -8 -20 -7 -8
-4 -1 -3 -11 -13 -25 -12 -11
-10 -5 -5 -13 -14 -27 -14 -11
-13 -16 -5 -13 -14 -26 -12 -11
-11 -18 -3 -9 -11 -23 -10 -10
-10 -15 -2 -10 -12 -25 -11 -10
-7 -13 -5 -14 -16 -27 -13 -13
-12 -14 -2 -12 -14 -25 -12 -11
-8 -8 1 -9 -11 -26 -11 -11
4 -1 1 -10 -12 -26 -10 -12
-2 -4 0 -10 -12 -26 -11 -13
-10 -12 -2 -11 -14 -28 -14 -13
-12 -14 -2 -11 -13 -28 -12 -13
-4 -7 -1 -13 -13 -25 -10 -11
-1 -1 2 -9 -8 -20 -7 -9
-6 -4 1 -9 -9 -22 -8 -11
-5 -7 -2 -11 -13 -25 -11 -14
-4 -9 -1 -10 -13 -26 -11 -13
-11 -16 -2 -11 -16 -30 -17 -18
-11 -19 -2 -13 -17 -33 -20 -21
-12 -17 4 -10 -15 -32 -20 -23
-5 -15 12 -4 -13 -31 -21 -24
10 -3 23 5 -10 -31 -23 -28
16 1 34 12 -6 -30 -25 -32
14 1 44 23 3 -25 -22 -33
18 5 56 38 15 -16 -16 -30
15 8 63 54 34 5 1 -21
12 14 70 73 56 27 20 -9
14 28 80 101 86 57 46 7
7 24 91 134 119 87 70 22
-5 10 95 166 155 124 100 41
-34 2 99 209 208 179 152 82
-63 -3 95 247 259 237 207 129
-84 -4 92 291 316 298 266 181
-116 -14 78 327 356 340 312 227
-148 -22 66 341 367 353 336 263
-157 -24 50 341 369 358 350 289
-169 -26 26 316 344 337 342 299
-167 -30 5 273 289 279 295 281
-171 -69 -11 210 205 184 207 227
-161 -96 -27 132 123 104 139 181
-133 -87 -36 47 40 28 72 132
-94 -67 -36 -42 -49 -58 -5 68
-54 -36 -22 -99 -108 -114 -60 18
-23 -12 -13 -115 -130 -138 -88 -12
5 2 0 -97 -122 -137 -96 -30
19 9 21 -71 -106 -129 -98 -42
33 18 38 -51 -92 -120 -98 -51
37 21 53 -31 -78 -109 -94 -56
35 21 73 -9 -59 -92 -82 -52
34 24 87 2 -48 -84 -75 -51
38 23 93 2 -50 -83 -75 -56
41 25 101 1 -51 -84 -77 -58
49 32 112 1 -49 -82 -76 -59
56 35 124 7 -40 -74 -70 -57
58 37 134 11 -37 -70 -67 -56
57 30 142 8 -39 -72 -71 -61
67 28 149 6 -41 -73 -73 -62
68 29 158 6 -38 -71 -69 -60
74 32 160 -1 -41 -70 -67 -59
75 40 154 -13 -47 -72 -67 -60
65 33 147 -25 -54 -76 -73 -63
63 26 138 -33 -58 -82 -76 -65
68 27 126 -44 -65 -84 -78 -66
76 37 123 -43 -62 -79 -72 -60
92 49 121 -41 -57 -73 -67 -54
84 42 122 -40 -56 -72 -64 -53
75 32 119 -38 -55 -71 -65 -55
71 29 114 -39 -54 -68 -63 -55
58 21 99 -44 -58 -72 -67 -57
54 26 90 -41 -55 -68 -61 -51
58 34 74 -41 -50 -60 -54 -44
50 24 53 -44 -50 -57 -52 -42
36 15 37 -42 -46 -53 -47 -36
21 9 26 -34 -38 -44 -37 -28
23 13 22 -27 -29 -35 -29 -20
27 16 21 -17 -19 -27 -20 -12
14 8 18 -14 -18 -26 -19 -12
9 5 14 -13 -16 -24 -19 -11
12 8 17 -7 -11 -18 -14 -6
9 5 17 -5 -10 -17 -12 -2
-1 -5 16 -4 -8 -17 -13 -3
-3 -9 11 -8 -13 -19 -13 -5
-8 -9 8 -10 -13 -19 -13 -5
-14 -14 7 -10 -12 -18 -12 -4
-11 -14 7 -8 -11 -17 -12 -4
-8 -12 7 -8 -11 -17 -12 -4
0 -4 7 -8 -11 -16 -12 -3
1 0 8 -6 -10 -15 -10 -2
1 2 7 -7 -11 -18 -10 -3
-10 -5 10 -4 -7 -15 -8 1
-5 -5 13 -2 -4 -11 -5 5
7 0 10 -4 -6 -13 -7 3
4 -6 6 -5 -9 -16 -10 -1
-7 -10 6 -5 -8 -15 -10 0
-15 -14 8 -3 -7 -11 -6 2
-6 -14 3 -7 -12 -16 -10 -3
-6 -7 5 -5 -12 -17 -11 -3
-2 -7 7 -5 -12 -17 -10 -2
1 0 10 -2 -8 -13 -7 3
0 -1 10 -1 -9 -14 -7 2
-2 -2 8 -6 -13 -16 -9 -1
7 6 11 -2 -8 -12 -5 3
10 10 15 2 -3 -7 -2 6
3 3 17 3 -2 -6 1 6
3 1 17 3 -3 -6 1 7
-4 -8 11 -2 -8 -13 -5 2
-13 -18 6 -6 -12 -18 -11 -4
-12 -20 5 -7 -14 -19 -13 -6
-14 -18 3 -9 -16 -20 -13 -7
-8 -1 10 -3 -9 -13 -6 1
-3 -2 13 -1 -7 -9 -2 4
1 -3 14 -1 -6 -9 -2 3
1 -5 10 -4 -9 -12 -4 2
-7 -5 9 -4 -11 -13 -6 2
-8 -6 7 -4 -11 -12 -4 2
-3 -6 5 -4 -8 -11 -4 2
-1 -4 6 -4 -7 -9 -3 4
7 8 6 -3 -7 -10 -3 3
-4 3 5 -5 -11 -11 -3 1
-13 -6 6 -4 -10 -10 -3 3
-12 -10 4 -7 -10 -11 -4 3
-11 -9 2 -8 -12 -13 -5 -2
-9 -6 3 -7 -12 -12 -7 -2
-10 -5 3 -7 -12 -13 -8 -2
-14 -11 1 -8 -11 -13 -8 -2
-13 -14 1 -7 -10 -12 -6 0
-8 -4 5 -3 -7 -7 -2 4
-3 9 12 2 -1 0 5 11
8 7 8 -2 -6 -6 0 6
4 2 2 -8 -12 -12 -7 0
2 8 5 -4 -9 -8 -3 3
0 11 4 -4 -8 -7 -1 5
-5 -3 2 -6 -9 -7 -1 3
-6 -12 3 -7 -9 -8 -4 1
-18 -21 0 -10 -14 -13 -7 -3
-22 -14 -1 -8 -13 -11 -6 -1
-9 2 -1 -7 -12 -8 -3 3
0 6 3 -5 -7 -3 2 5
2 8 5 -2 -4 -2 4 7
2 8 5 -1 -4 -2 6 9
-2 8 5 0 -6 -3 5 9
-6 5 1 -5 -9 -7 2 6
1 7 0 -6 -10 -7 1 7
0 7 3 -3 -7 -4 4 9
-14 -7 -3 -7 -12 -7 0 4
-20 -9 -6 -10 -13 -7 1 6
-3 6 -4 -6 -9 -3 6 11
-3 7 -4 -7 -9 -3 6 12
-20 -6 -10 -13 -15 -9 0 7
-18 0 -9 -12 -16 -7 2 8
-11 10 -8 -9 -11 -4 5 11
-7 11 -7 -7 -8 0 9 14
-5 13 -8 -8 -9 0 8 14
-5 7 -9 -9 -12 -4 6 15
-6 0 -13 -13 -16 -10 0 11
-15 -2 -15 -15 -17 -10 1 11
-10 9 -13 -12 -14 -4 7 17
-14 6 -13 -12 -14 -2 9 20
-26 -4 -20 -19 -21 -10 3 14
-28 -14 -22 -22 -23 -10 2 12
-26 -11 -18 -21 -19 -5 7 16
-16 1 -17 -20 -19 -5 9 17
-22 6 -16 -19 -19 -3 12 21
-24 1 -21 -23 -22 -7 9 20
-21 -1 -24 -24 -25 -9 6 19
-23 -1 -27 -27 -26 -11 4 20
-13 5 -26 -26 -26 -11 6 22
-19 4 -27 -28 -27 -12 6 23
-19 4 -31 -33 -31 -12 6 23
-24 -3 -34 -35 -30 -11 7 25
-32 -7 -35 -34 -30 -10 7 26
-36 -3 -39 -38 -33 -13 4 24
-31 0 -38 -36 -32 -10 8 28
-30 -7 -40 -38 -35 -14 4 27
-38 -11 -43 -43 -39 -18 2 24
-43 -12 -44 -43 -39 -17 3 26
-27 3 -38 -37 -31 -10 10 33
-14 18 -35 -35 -29 -7 14 39
-25 8 -38 -38 -31 -7 13 36
-31 -4 -45 -43 -36 -10 9 33
-30 1 -47 -43 -35 -10 10 34
-35 4 -43 -41 -34 -9 13 38
-38 -5 -41 -38 -32 -7 14 39
-44 -15 -43 -37 -31 -6 13 38
-41 -13 -44 -36 -28 -4 14 39
-30 -5 -42 -32 -26 -1 17 42
-27 -3 -41 -29 -24 -1 17 42
-32 -13 -42 -29 -24 -1 16 39
-47 -19 -37 -23 -19 4 20 42
-48 -17 -35 -19 -14 7 23 45
-44 -18 -33 -16 -11 10 25 46
-37 -15 -32 -13 -8 15 28 46
-38 -13 -31 -9 -4 18 28 44
-50 -23 -33 -9 -5 16 24 36
-46 -24 -30 -7 -5 14 23 35
-34 -13 -25 0 -1 17 26 40
-28 -10 -23 3 3 19 25 39
-26 -9 -19 5 6 21 27 37
-29 -15 -20 3 4 20 24 36
-28 -17 -19 4 2 18 22 31
-27 -14 -12 11 7 21 24 32
-22 -7 -8 15 10 24 27 34
-26 -7 -6 15 13 26 26 33
-29 -4 -6 13 11 23 24 28
-27 -7 -5 14 11 22 23 27
-34 -20 -2 16 12 24 25 28
-30 -17 -2 16 11 21 20 23
-14 -15 -4 12 4 13 13 14
-19 -13 -2 13 6 14 14 14
-18 -3 4 16 10 19 19 18
-13 0 10 20 14 22 19 19
-13 -2 12 19 11 19 15 16
-13 -4 9 14 5 12 9 12
-13 -4 9 13 4 10 7 11
-13 -6 10 15 5 12 7 12
-3 -3 10 14 5 12 9 13
0 -1 11 13 4 13 10 14
-14 -9 13 14 4 13 10 13
-12 -10 12 10 0 9 5 9
-14 -13 12 8 -2 6 1 6
-12 -11 14 8 -3 5 0 7
0 -1 19 12 1 9 4 10
-2 1 19 12 2 10 6 11
0 3 18 10 1 9 6 11
-2 -2 17 10 0 9 5 9
-4 -9 12 5 -4 7 1 5
-7 -12 11 3 -7 3 -2 1
4 -4 14 5 -6 2 -2 3
-1 -1 18 7 -3 6 2 6
0 0 16 5 -3 5 1 4
5 5 14 3 -8 2 -2 1
3 -4 13 1 -11 -2 -5 -2
-9 -12 11 -2 -14 -5 -9 -5
-13 -11 12 0 -12 -4 -10 -5
-4 -2 14 4 -7 2 -4 -1
9 3 14 3 -8 2 -4 0
8 1 14 2 -10 -1 -7 -3
3 -6 14 2 -9 -2 -8 -3
1 -8 15 2 -10 -1 -8 -3
5 1 15 2 -8 1 -5 -3
13 11 18 6 -5 6 -1 1
20 21 23 11 1 12 5 7
21 19 21 10 2 11 4 6
11 6 17 6 -4 5 -1 0
3 -3 13 1 -10 -1 -7 -5
-4 -10 9 -1 -12 -4 -10 -8
-11 -16 6 -2 -10 -1 -8 -10
-12 -13 9 1 -7 3 -5 -8
-4 -9 12 2 -8 3 -6 -7
2 -8 14 4 -8 1 -7 -7
4 -10 12 1 -12 -4 -10 -10
3 -2 15 1 -9 -1 -9 -9
1 7 18 5 -4 3 -4 -5
6 4 16 6 -3 4 -4 -5
14 1 17 6 -3 4 -3 -8
14 8 19 9 -1 7 -2 -7
2 8 16 6 -2 5 -4 -9
-6 3 13 4 -3 5 -4 -11
3 9 13 4 -3 5 -4 -11
-2 0 13 3 -4 4 -4 -10
-7 -7 15 4 -2 6 -3 -10
9 3 17 9 1 9 0 -7
18 18 21 14 5 13 6 -1
15 24 18 12 3 10 1 -3
8 9 16 10 1 8 -1 -5
6 9 19 13 6 12 4 -2
9 11 20 13 7 12 4 -3
5 -2 15 7 -2 5 -3 -11
1 -12 10 3 -5 1 -7 -13
3 -6 12 5 -2 5 -4 -11
6 12 18 12 5 11 3 -5
18 22 19 14 7 15 5 -4
18 15 14 7 0 7 -1 -8
3 4 12 4 -2 6 -1 -11
-4 -4 11 4 -2 7 -1 -11
0 1 15 9 3 11 2 -9
7 9 18 11 7 13 4 -6
1 2 16 11 5 11 3 -10
10 4 15 9 3 9 2 -10
4 -3 11 7 -1 6 -1 -12
-6 -10 11 3 -4 2 -5 -15
1 4 18 12 4 11 3 -8
13 10 15 10 3 12 4 -7
13 17 15 11 5 15 7 -5
14 19 14 8 4 14 6 -7
5 8 11 8 3 11 4 -7
-1 -1 13 10 4 11 5 -7
-1 -2 11 8 2 9 2 -10
-6 -15 5 3 -5 2 -5 -17
-7 -14 5 -1 -9 -2 -10 -20
8 8 16 9 3 8 1 -10
5 14 21 16 8 19 9 -3
4 8 18 14 8 17 7 -6
5 4 13 10 2 10 1 -10
6 1 9 3 -5 3 -4 -13
13 9 13 6 1 9 1 -8
4 0 13 7 3 11 1 -9
4 2 12 7 2 11 2 -10
10 4 13 8 3 13 5 -7
9 8 14 9 5 17 7 -7
6 6 9 6 2 12 1 -11
0 -2 9 5 0 8 0 -12
-2 0 13 7 1 9 0 -9
5 14 14 9 4 12 2 -5
16 15 14 10 4 13 4 -4
10 4 13 8 3 12 2 -7
3 -2 12 6 1 7 -2 -10
-6 -8 9 1 -5 4 -6 -14
-3 -5 10 1 -3 7 -3 -13
2 0 14 6 2 13 4 -10
8 8 15 7 3 12 3 -9
7 8 17 8 2 10 2 -8
3 2 13 7 -1 8 0 -10
6 -1 10 5 -2 5 -3 -11
3 -1 7 2 -4 4 -6 -14
-3 2 7 -1 -6 3 -6 -14
2 5 9 2 -2 8 -3 -12
10 5 10 5 0 11 2 -10
17 11 11 8 3 14 6 -7
9 9 10 5 1 12 4 -8
8 9 12 6 0 9 1 -9
13 11 11 6 2 9 1 -10
6 5 11 5 1 8 -1 -12
7 5 11 5 0 7 -2 -13
24 14 13 8 4 11 3 -9
25 19 16 10 6 14 6 -5
14 15 18 11 6 14 6 -5
8 7 13 6 2 9 0 -9
8 0 9 3 -2 5 -3 -13
0 3 7 1 -3 3 -4 -16
-4 -3 6 1 -3 4 -3 -14
-4 -5 6 0 -2 6 -1 -13
0 3 11 4 0 7 0 -12
-3 -1 7 0 -4 2 -5 -16
2 -2 -1 -7 -10 -3 -11 -21
8 -2 1 -5 -6 2 -7 -21
5 -6 5 -1 -2 5 -4 -18
8 2 8 2 -1 8 0 -14
16 15 13 6 4 11 4 -8
20 14 10 2 0 7 -1 -12
14 10 8 0 0 7 -1 -13
0 5 12 3 3 11 2 -9
1 3 11 4 2 8 0 -11
4 -1 10 0 -2 4 -4 -16
3 3 11 1 0 5 -1 -14
9 7 10 1 -1 5 -1 -12
6 7 8 1 1 6 -2 -13
9 8 8 4 1 8 0 -11
17 15 10 5 3 9 2 -10
16 15 10 4 1 7 1 -9
11 11 8 2 0 6 0 -9
5 5 7 0 -1 4 -1 -11
3 6 8 2 0 6 -1 -10
12 14 12 5 2 7 0 -9
-4 -5 6 -1 -4 3 -4 -16
-20 -24 1 -6 -7 -2 -8 -19
-12 -18 -2 -9 -8 -2 -9 -21
14 17 2 -3 -2 5 -1 -14
25 31 12 6 9 17 10 -3
19 22 10 5 6 13 6 -8
14 17 9 4 2 8 1 -10
11 16 13 6 4 9 2 -7
9 12 13 5 5 10 3 -7
9 8 12 3 3 9 1 -9
9 19 15 5 4 9 3 -8
8 27 15 3 3 9 3 -10
10 23 18 6 7 14 8 -5
13 19 16 9 11 18 12 -3
8 17 17 10 11 16 10 -4
9 23 20 10 9 12 7 -5
10 27 20 10 8 11 6 -5
2 23 24 14 12 17 10 -1
8 26 26 16 15 20 14 2
12 19 20 10 11 17 9 -3
7 16 20 10 11 16 9 -5
9 20 19 10 9 14 8 -5
10 21 15 9 8 12 8 -3
3 12 9 5 5 10 5 -5
-3 19 15 10 11 17 11 0
-6 17 15 12 13 20 13 2
0 21 12 11 13 19 13 2
12 24 6 8 10 16 11 0
8 19 3 6 7 13 8 -1
2 8 2 5 5 12 8 -2
-3 7 2 6 10 15 11 0
-11 6 -5 -2 3 9 5 -5
-13 -3 -12 -11 -6 1 -2 -11
-12 -6 -6 -7 -2 5 1 -8
-15 -1 -2 -1 3 9 6 -3
-1 11 -3 0 2 10 7 -1
13 25 0 1 4 12 9 2
7 19 -4 -2 2 9 6 0
-1 13 -6 -5 1 6 5 -1
-6 0 -7 -7 -4 3 3 -4
-7 -5 -9 -9 -6 0 -1 -7
-14 -14 -13 -14 -10 -2 -4 -14
-13 -11 -13 -15 -11 -2 -3 -14
-4 -2 -8 -11 -6 3 0 -10
5 7 -3 -7 -1 5 4 -5
1 4 -2 -6 -2 6 3 -5
-4 -4 -8 -11 -6 0 -2 -8
-3 -9 -10 -12 -9 -4 -3 -11
-3 -14 -9 -13 -9 -4 -3 -10
0 -4 0 -8 -5 -1 -2 -8
11 7 6 -3 -1 4 1 -6
2 -5 0 -8 -6 -1 -3 -12
-7 -11 -2 -9 -7 -1 -4 -12
2 -7 -1 -9 -8 -2 -4 -14
8 4 -1 -10 -11 -5 -5 -14
19 15 0 -10 -8 -3 -4 -13
14 7 1 -8 -6 -3 -5 -13
5 -6 -1 -9 -9 -5 -7 -15
10 -3 1 -8 -9 -6 -6 -14
12 7 2 -8 -8 -5 -6 -14
18 21 2 -8 -7 -3 -5 -13
24 13 6 -5 -5 -2 -2 -11
24 10 8 -2 -4 0 -2 -10
20 9 7 -5 -7 -4 -5 -14
8 -3 -1 -12 -14 -10 -12 -19
0 -12 -5 -13 -14 -10 -10 -20
17 8 2 -7 -7 -2 -2 -13
28 21 9 -3 -4 2 1 -9
33 20 8 -2 -4 0 0 -10
32 17 7 -3 -6 -3 -4 -11
16 4 4 -8 -9 -6 -7 -16
11 -2 2 -9 -8 -6 -7 -16
0 -11 2 -12 -13 -10 -10 -20
2 -8 3 -14 -15 -13 -13 -24
20 6 5 -10 -10 -8 -8 -21
19 6 13 -3 -7 -6 -7 -21
20 -3 17 1 -7 -11 -14 -30
14 -7 23 9 -3 -12 -18 -35
16 1 38 23 6 -5 -16 -33
40 22 52 39 20 5 -9 -31
50 36 64 59 39 23 5 -24
45 34 71 76 60 45 24 -15
37 32 74 92 77 64 41 -7
24 25 83 118 104 91 63 8
20 25 94 147 137 121 88 26
3 19 101 180 175 161 125 53
-22 13 96 210 215 208 172 91
-42 9 88 240 263 264 227 138
-73 -4 81 276 313 324 288 193
-108 -17 63 298 342 357 327 237
-125 -17 40 298 345 362 345 267
-139 -17 18 286 337 360 354 287
-152 -14 -6 260 315 342 350 300
-149 -18 -19 222 264 282 299 279
-130 -44 -25 169 187 188 208 222
-110 -49 -38 99 111 112 140 174
-99 -51 -44 20 27 32 66 115
-65 -35 -36 -56 -56 -52 -15 46
0 11 -16 -97 -106 -106 -65 -1
29 41 1 -94 -110 -116 -82 -22
41 49 16 -73 -97 -110 -88 -41
47 42 29 -55 -88 -107 -93 -57
58 40 39 -37 -76 -100 -91 -68
55 34 49 -23 -66 -88 -88 -72
46 25 58 -9 -55 -79 -80 -69
50 33 73 1 -45 -71 -74 -67
56 45 86 5 -44 -68 -71 -67
63 54 101 12 -35 -61 -65 -66
75 63 111 20 -25 -51 -57 -62
80 65 125 27 -20 -47 -54 -59
85 66 135 31 -20 -48 -55 -59
82 53 143 31 -21 -51 -60 -62
69 37 148 28 -23 -55 -64 -67
65 32 153 26 -26 -56 -66 -72
78 41 161 23 -26 -55 -63 -69
98 58 162 13 -32 -56 -63 -67
91 56 161 5 -34 -56 -61 -64
83 49 157 -4 -37 -55 -58 -63
99 54 144 -20 -45 -58 -59 -63
105 63 136 -29 -47 -59 -60 -64
96 57 129 -33 -49 -60 -62 -65
87 45 126 -35 -53 -64 -67 -68
85 39 123 -37 -55 -69 -71 -71
82 42 122 -33 -50 -63 -65 -66
71 40 117 -33 -47 -59 -61 -63
77 45 108 -32 -44 -52 -55 -56
80 48 93 -33 -41 -49 -49 -51
72 49 78 -32 -36 -42 -42 -43
61 44 55 -36 -35 -39 -38 -40
55 38 36 -35 -32 -36 -34 -37
50 34 24 -31 -28 -34 -31 -32
48 32 13 -28 -26 -31 -27 -29
42 28 9 -22 -19 -25 -22 -24
32 25 8 -19 -15 -20 -19 -23
22 20 10 -14 -11 -16 -13 -19
17 13 9 -12 -9 -12 -8 -17
21 16 12 -8 -6 -12 -7 -15
22 25 11 -6 -4 -10 -5 -15
28 22 7 -7 -6 -13 -7 -17
26 14 2 -10 -9 -16 -11 -19
23 15 2 -9 -8 -16 -11 -18
12 13 7 -3 -3 -9 -6 -13
13 14 7 -3 -2 -8 -3 -13
14 14 3 -6 -3 -7 -4 -13
14 15 2 -7 -4 -9 -3 -13
15 14 3 -7 -7 -12 -6 -15
14 11 2 -7 -7 -14 -8 -16
16 8 1 -7 -7 -14 -9 -16
17 12 4 -5 -3 -8 -2 -12
13 10 3 -4 -2 -8 -3 -12
-2 -3 -4 -9 -8 -16 -10 -17
8 8 0 -5 -7 -16 -10 -15
28 26 2 -1 -1 -9 -4 -9
38 32 1 -1 2 -5 1 -5
24 23 1 -3 0 -5 3 -5
22 21 1 -3 -1 -7 3 -5
19 14 -2 -7 -4 -11 -1 -9
14 12 0 -7 -5 -10 0 -10
23 23 2 -3 -2 -7 4 -6
26 29 3 0 3 -1 8 -2
20 27 3 2 3 -2 7 -4
15 19 4 3 -1 -9 0 -6
18 19 3 0 -3 -14 -6 -9
31 27 7 1 -1 -11 -2 -6
42 26 8 3 2 -7 3 -2
33 18 4 1 0 -8 2 -3
18 9 0 -2 -1 -10 1 -5
14 11 2 -2 -2 -10 3 -4
1 2 -6 -11 -11 -20 -8 -13
-2 3 -8 -12 -12 -20 -9 -17
7 11 -4 -8 -7 -14 -3 -12
11 17 -1 -5 -4 -11 -1 -10
11 10 -5 -8 -7 -14 -4 -12
15 10 -4 -5 -3 -9 2 -8
16 20 -3 -2 2 -4 7 -4
17 23 -3 -1 3 -3 8 -1
20 20 -8 -5 -3 -10 3 -3
16 18 -9 -9 -7 -14 -1 -7
-3 7 -8 -7 -6 -15 -3 -7
6 4 -6 -5 -6 -16 -3 -6
23 16 -1 -2 -5 -15 -1 -3
21 16 0 -2 -4 -14 0 -4
18 16 -2 -4 -3 -10 2 -3
13 13 -5 -5 -2 -8 6 -3
5 9 -8 -4 -2 -9 5 -3
5 13 -7 -2 -1 -9 5 -1
6 13 -9 -5 -6 -15 -1 -6
12 14 -9 -8 -8 -16 -1 -8
13 15 -9 -6 -4 -11 4 -5
7 11 -7 -4 -2 -9 5 -4
5 11 -6 -3 -4 -11 6 -3
10 16 -4 -1 -3 -11 5 -1
27 30 0 5 4 -6 9 7
29 32 -1 4 4 -6 11 8
12 15 -11 -5 -4 -12 3 -1
4 11 -13 -4 -2 -8 7 0
14 21 -13 -2 1 -6 10 5
12 25 -11 -2 -2 -10 9 5
8 20 -16 -10 -11 -21 0 -3
10 13 -18 -11 -9 -18 0 -5
0 15 -16 -7 -4 -10 8 0
-5 14 -15 -2 -1 -8 10 3
8 22 -15 -2 -5 -14 6 3
13 25 -16 -4 -5 -13 7 5
4 16 -19 -6 -2 -8 12 8
1 15 -19 -7 -7 -13 9 6
9 25 -20 -8 -11 -20 4 2
12 29 -17 -7 -9 -19 4 5
10 26 -18 -7 -10 -19 6 7
11 24 -18 -6 -8 -14 10 10
5 16 -21 -7 -7 -12 13 11
-1 13 -25 -11 -11 -15 11 10
3 23 -24 -8 -8 -14 13 12
3 33 -23 -7 -8 -14 12 13
2 29 -30 -14 -16 -21 6 10
2 23 -30 -17 -16 -20 7 11
2 21 -29 -14 -11 -14 12 15
-3 15 -31 -13 -13 -14 13 17
4 20 -31 -15 -16 -20 10 18
1 19 -31 -18 -18 -21 8 16
-7 12 -34 -17 -20 -24 6 14
-3 17 -37 -19 -21 -25 7 12
1 25 -36 -18 -19 -22 11 17
-1 24 -41 -23 -23 -24 8 15
-13 15 -44 -28 -26 -27 7 14
-14 15 -43 -27 -26 -25 9 17
1 28 -39 -21 -22 -22 13 22
-4 21 -42 -24 -25 -25 12 22
-9 15 -47 -29 -30 -31 6 18
-12 13 -48 -29 -29 -31 6 17
-10 14 -47 -29 -29 -30 8 18
-10 9 -56 -32 -33 -32 6 16
-19 4 -57 -33 -31 -31 8 18
-28 1 -56 -33 -32 -30 8 19
-17 15 -55 -34 -33 -29 9 20
-17 24 -52 -30 -27 -24 15 25
-24 20 -52 -26 -25 -21 19 29
-18 14 -55 -28 -28 -27 15 27
-19 5 -55 -27 -29 -31 11 25
-25 -1 -54 -27 -26 -28 11 25
-22 3 -51 -23 -25 -24 14 25
-19 4 -52 -22 -23 -22 17 25
-20 9 -51 -16 -17 -16 22 30
-16 10 -47 -10 -9 -10 26 32
-22 -2 -45 -5 -7 -11 24 32
-32 -9 -48 -8 -9 -13 21 27
-17 7 -43 -2 -4 -7 27 30
-3 20 -37 7 3 -1 32 33
-2 17 -34 10 5 1 32 31
-9 9 -34 11 6 0 31 29
-20 4 -37 11 6 -1 28 24
-32 -5 -36 12 8 1 28 21
-28 -13 -31 14 8 0 28 19
-28 -14 -24 20 13 3 30 22
-23 -3 -23 24 16 4 31 25
-20 0 -27 21 12 1 26 20
-18 8 -24 20 11 -2 24 18
-7 13 -17 25 17 3 28 22
-4 15 -15 29 20 5 30 25
-11 7 -14 29 18 3 27 21
-15 3 -10 32 20 4 26 19
-10 6 -11 31 20 4 25 16
10 20 -5 34 22 5 28 17
4 17 -3 34 21 4 24 13
-1 13 -4 32 19 0 21 10
-6 7 -2 31 17 -3 17 7
-12 -2 -3 28 13 -6 14 5
-12 -1 -1 31 15 -6 13 4
-9 4 1 30 14 -7 12 4
-15 2 -1 27 12 -9 10 1
-4 -2 -2 24 8 -12 7 -4
10 10 3 29 12 -9 10 0
15 22 10 35 19 -3 15 6
20 23 9 33 16 -7 11 3
22 19 7 28 9 -14 6 -2
15 15 7 27 10 -13 6 -2
7 13 7 25 9 -13 7 -3
12 19 7 25 9 -12 7 -3
7 12 6 25 6 -16 4 -6
5 9 6 25 6 -18 1 -8
12 19 9 27 7 -17 3 -6
14 21 12 27 10 -13 6 -4
10 13 12 25 7 -16 3 -8
-1 9 9 23 6 -18 1 -10
-1 4 4 20 3 -19 0 -12
11 9 2 18 2 -19 -2 -13
18 13 4 18 1 -20 -2 -14
10 13 10 22 4 -20 0 -11
13 19 14 27 7 -16 4 -6
17 17 9 23 4 -19 -1 -12
16 11 6 18 -1 -25 -6 -16
7 11 11 22 3 -22 -4 -12
16 20 15 25 6 -18 -3 -11
14 19 17 24 7 -18 -3 -12
20 16 10 15 -2 -25 -10 -17
12 8 11 12 -3 -26 -11 -18
-1 4 14 16 1 -22 -7 -17
9 11 15 20 5 -18 -3 -13
17 15 18 24 7 -17 -1 -10
21 15 20 23 8 -20 -5 -11
22 21 24 26 9 -19 -4 -9
20 19 20 23 6 -21 -6 -12
15 13 18 23 9 -19 -4 -12
3 10 17 25 11 -16 -2 -12
11 20 18 25 12 -15 0 -9
17 22 22 28 15 -11 3 -6
13 14 21 25 13 -13 2 -10
11 3 15 21 9 -15 -1 -14
1 2 14 22 10 -16 -1 -13
8 14 17 25 14 -13 1 -10
20 20 20 26 13 -14 1 -9
19 14 16 24 10 -15 -1 -10
29 24 17 26 15 -13 2 -7
24 26 17 26 16 -11 2 -8
1 9 10 20 7 -18 -5 -15
-6 0 9 18 5 -21 -7 -17
-9 -3 13 23 11 -17 -2 -13
1 9 20 29 19 -7 6 -5
16 17 18 29 16 -9 7 -4
15 19 18 29 18 -8 6 -3
17 22 18 29 18 -9 5 -5
9 17 15 27 17 -8 4 -4
13 18 14 29 20 -5 8 -2
24 25 20 34 25 -1 12 0
21 20 18 29 20 -6 7 -3
14 12 16 27 17 -9 5 -5
1 0 12 24 15 -11 1 -8
0 1 12 24 15 -10 2 -7
4 12 13 25 15 -10 3 -6
2 9 11 24 14 -11 3 -7
-3 6 11 27 18 -7 6 -4
3 7 10 27 19 -5 8 -2
3 2 5 21 14 -11 3 -6
-2 1 7 20 14 -11 3 -8
1 10 12 25 19 -5 7 -5
-2 7 9 24 17 -7 6 -5
4 11 11 24 17 -7 7 -2
10 17 14 27 20 -4 9 0
13 21 15 28 21 -3 11 1
6 14 13 26 19 -5 9 0
8 11 12 24 18 -6 7 -3
4 5 9 23 15 -8 5 -5
-1 1 4 20 14 -9 3 -6
-5 -1 5 20 15 -10 3 -7
3 7 9 24 17 -6 7 -1
14 13 9 24 17 -5 7 1
9 11 8 24 18 -4 8 0
-3 2 6 21 14 -8 4 -4
-6 -4 7 21 12 -10 3 -4
-7 1 10 24 17 -4 8 0
9 11 8 24 18 -4 8 0
15 25 11 26 21 1 12 3
11 24 13 27 21 2 13 4
19 17 9 23 18 -3 9 -1
17 19 7 22 18 -2 9 0
5 12 6 20 17 -3 9 1
4 4 1 15 11 -10 3 -4
-1 0 3 16 12 -9 2 -6
-1 3 7 20 14 -7 4 -3
-1 6 6 19 13 -6 5 -2
4 8 9 22 17 -1 7 0
0 7 8 22 16 -3 7 0
4 8 4 17 13 -5 5 -3
8 14 8 20 15 -3 8 1
5 9 6 17 12 -5 5 -2
-2 0 1 15 8 -8 1 -6
1 1 3 16 8 -9 1 -6
6 14 9 22 14 -3 7 0
-2 9 10 22 16 -1 9 1
-6 -4 2 12 7 -8 1 -7
-2 2 7 17 12 -3 5 -3
12 14 5 21 15 1 9 0
17 21 3 19 15 2 11 1
8 16 4 19 14 0 10 2
-5 3 3 16 11 -4 6 0
1 3 2 15 8 -9 3 -1
5 6 4 15 10 -6 5 -2
3 8 6 18 15 -2 8 2
19 21 11 22 20 3 13 6
23 21 11 21 18 3 11 5
11 15 6 17 15 -2 6 0
2 9 4 16 13 -3 5 0
-1 4 2 16 14 -2 5 -1
-16 -9 -1 12 10 -5 1 -4
-12 -9 0 11 9 -4 1 -3
-1 1 2 12 10 -1 4 -1
4 10 4 13 13 1 7 2
4 12 6 16 16 4 10 5
5 11 6 16 15 3 11 5
8 9 -1 10 10 -1 4 -1
1 5 -1 11 10 -1 4 -1
-7 -5 -1 10 10 -2 3 -2
-4 -5 -1 10 10 -1 3 -2
-2 -4 1 12 12 0 3 -1
-3 -4 2 13 12 1 7 0
3 2 -3 7 9 -3 2 -3
5 11 6 15 15 4 10 4
1 14 11 20 22 11 15 9
-2 5 4 14 16 5 10 6
-2 -3 0 12 13 4 6 2
-7 -1 -2 11 10 2 5 0
-1 6 -3 9 9 -1 2 -2
-1 6 -1 9 11 0 3 -1
-7 -2 -4 5 8 -3 0 -5
-7 -2 -4 6 8 -2 0 -4
-4 1 0 8 11 2 4 1
2 5 4 11 13 5 7 4
2 7 5 13 15 6 9 5
2 14 6 13 16 7 9 7
2 11 5 11 14 6 8 5
-2 1 1 9 10 3 5 1
-1 2 2 10 12 5 7 4
1 1 -1 7 10 3 5 3
4 7 4 12 14 9 10 8
5 14 5 13 17 12 13 9
5 16 3 10 15 11 12 8
5 16 5 10 16 13 11 8
-5 7 6 11 15 11 9 5
-5 4 2 8 12 6 5 2
6 13 8 13 16 10 9 7
11 25 15 20 24 19 16 14
13 29 17 22 26 22 20 17
8 29 16 20 23 19 17 15
1 18 12 15 19 13 11 9
-9 10 12 14 19 15 12 10
-5 15 13 15 19 16 13 11
-9 19 18 17 22 19 16 14
-3 20 17 19 24 21 17 14
-6 12 14 17 22 19 14 14
-20 -2 8 14 18 16 11 8
-19 2 8 14 19 16 12 8
-12 10 11 16 22 20 15 10
-1 22 10 15 23 22 18 14
4 28 10 16 25 26 21 17
-4 19 7 16 26 26 23 18
-2 19 2 14 21 22 19 17
-1 18 -2 9 15 14 12 12
-14 7 -2 10 16 16 12 14
-19 5 -3 10 17 20 15 16
-17 6 -3 9 19 22 17 17
-19 4 -9 5 13 17 12 12
-12 4 -12 3 12 15 10 10
1 13 -13 2 10 14 10 10
-11 8 -13 0 9 14 8 9
-21 3 -12 1 11 16 11 12
-16 9 -10 4 14 19 14 17
-8 13 -10 3 13 17 13 17
-10 7 -10 1 11 16 11 13
-16 -4 -16 -5 5 11 7 10
-16 -4 -17 -7 4 10 6 10
-14 -1 -14 -6 6 12 7 13
-11 0 -10 -2 8 13 9 15
-9 0 -10 0 9 14 9 16
-7 4 -10 0 9 14 9 16
-7 3 -7 1 10 17 10 17
-11 -6 -11 -5 5 12 5 13
-26 -21 -17 -11 -1 6 -2 6
-33 -24 -20 -15 -4 3 -6 1
-29 -21 -15 -10 1 9 0 8
-18 -13 -7 -4 6 16 6 12
-3 -7 -6 -2 8 18 8 12
-6 -11 -10 -5 4 14 3 10
-18 -14 -7 -6 2 14 2 9
-15 -5 -3 -4 4 16 5 11
-3 4 -5 -5 3 15 4 10
-1 -3 -9 -10 -2 10 0 6
0 -1 -6 -9 1 14 3 8
3 3 -3 -5 3 17 5 11
-2 -2 -3 -5 3 16 4 9
0 -3 -6 -7 0 12 -1 5
0 -2 -5 -7 1 12 -2 6
5 2 -5 -5 3 14 1 8
1 -3 -3 -4 2 15 2 8
-9 -15 -6 -8 -2 10 -2 5
-9 -20 -8 -9 1 14 1 7
-6 -14 -6 -8 2 14 1 8
-5 4 -9 -12 -3 10 -2 5
-6 6 -11 -13 -3 10 -3 3
-10 -13 -9 -11 -1 13 0 6
-3 -5 -8 -10 1 15 2 8
12 12 -3 -4 6 20 7 13
12 9 -4 -7 2 14 1 9
8 -2 -6 -10 -2 11 -4 5
4 -7 -3 -8 0 11 -3 5
3 -1 7 -1 4 15 -2 5
9 4 14 5 6 14 -6 -1
20 5 22 11 7 10 -11 -9
25 8 35 22 12 13 -12 -9
25 10 45 35 22 20 -8 -11
23 9 49 43 30 26 -6 -15
19 11 56 59 48 43 9 -6
5 9 66 80 74 70 34 9
-1 9 74 107 105 101 61 25
1 14 88 140 139 133 87 45
-9 13 93 172 177 173 123 69
-26 14 94 208 225 227 175 110
-49 13 89 242 275 288 234 159
-88 -3 77 278 331 352 299 213
-115 -9 61 307 371 400 350 264
-141 -12 41 314 379 412 372 297
-155 -9 23 311 384 418 389 325
-158 -9 3 295 374 411 395 347
-165 -23 -17 258 327 361 355 333
-165 -58 -28 206 250 269 268 279
-151 -73 -40 136 171 188 197 234
-121 -63 -47 57 87 107 126 182
-78 -37 -40 -25 -5 15 41 112
-24 2 -21 -82 -74 -58 -27 54
3 20 -10 -100 -104 -90 -65 17
17 24 2 -86 -98 -93 -77 -8
31 32 21 -64 -84 -86 -80 -24
33 29 32 -47 -75 -81 -82 -34
42 30 48 -29 -62 -69 -77 -39
51 37 62 -11 -44 -53 -64 -36
58 49 79 4 -32 -42 -55 -29
59 53 89 6 -31 -41 -55 -33
55 41 92 0 -36 -47 -64 -44
41 37 105 1 -32 -44 -61 -45
45 34 110 0 -32 -44 -64 -49
55 35 120 4 -28 -40 -61 -48
55 36 131 7 -25 -35 -58 -49
59 35 140 7 -27 -38 -59 -50
80 48 152 9 -23 -34 -57 -48
84 52 158 5 -23 -33 -54 -45
73 49 156 -3 -29 -35 -56 -44
66 37 150 -14 -35 -40 -59 -47
69 35 143 -25 -40 -43 -61 -49
74 43 133 -35 -44 -42 -59 -48
62 33 125 -43 -47 -43 -58 -46
53 18 113 -51 -52 -47 -62 -53
58 19 110 -52 -52 -46 -62 -53
61 22 109 -52 -51 -44 -60 -53
76 39 113 -41 -43 -37 -52 -44
88 54 115 -35 -36 -30 -44 -37
86 54 104 -36 -37 -28 -43 -34
78 53 85 -41 -38 -27 -41 -32
59 46 66 -41 -34 -23 -36 -27
47 30 48 -40 -31 -18 -31 -21
40 22 29 -38 -27 -13 -25 -15
29 15 15 -37 -23 -8 -19 -12
19 1 6 -34 -21 -6 -18 -11
12 -3 3 -27 -14 0 -12 -7
11 -1 2 -22 -10 5 -8 -2
7 3 1 -20 -9 7 -4 0
-1 1 0 -18 -8 7 -5 1
2 2 3 -12 -3 10 -1 4
8 7 6 -8 1 16 4 9
8 9 9 -5 3 17 7 13
8 4 2 -9 -1 12 2 9
2 -5 0 -11 -3 11 1 6
0 -7 -3 -13 -4 12 2 7
-2 -5 -3 -11 -1 16 5 10
-1 1 -6 -12 -1 14 3 8
2 4 -3 -11 -1 13 4 8
0 2 -2 -11 -1 13 3 8
2 2 -3 -11 -3 11 1 7
10 9 -1 -8 0 15 4 12
15 15 3 -4 4 19 10 17
4 2 -1 -6 0 14 5 14
-3 -3 -3 -8 0 15 5 12
-5 -3 -2 -7 1 17 7 10
7 7 -1 -6 3 19 8 11
13 12 0 -5 4 18 8 13
11 13 0 -6 4 18 10 13
-1 6 0 -7 4 19 11 15
-4 4 -1 -7 2 16 7 12
1 -1 -5 -11 -3 13 5 10
1 0 -4 -9 -1 15 8 13
15 17 2 -2 6 22 14 20
26 27 2 -1 8 24 17 22
19 20 -1 -5 5 20 12 19
1 7 0 -5 4 18 10 17
-8 -4 -1 -7 1 15 8 16
-4 -6 -6 -12 -4 11 4 11
-12 -10 -4 -10 -2 13 6 14
-8 -9 -3 -10 -1 13 5 14
-4 -10 -2 -8 -1 15 8 17
-4 -8 -2 -8 0 16 10 17
1 2 -2 -9 -2 14 7 15
1 4 -2 -8 -2 15 9 16
1 8 -2 -8 0 19 12 16
0 12 -3 -7 2 19 12 17
0 4 -5 -9 0 18 9 14
-6 -6 -7 -10 -3 15 7 13
-14 -11 -9 -13 -6 12 3 11
-6 -3 -5 -9 -3 16 7 14
8 11 -3 -6 2 21 11 18
16 18 -2 -6 2 21 12 18
18 24 2 -2 6 23 16 17
9 15 -5 -7 0 20 11 11
-1 7 -10 -12 -5 14 5 5
1 5 -9 -11 -3 16 7 6
2 4 -6 -8 0 20 11 8
4 7 -5 -7 1 22 14 10
2 3 -5 -8 1 21 12 8
-8 -3 -9 -12 -3 17 9 5
-5 4 -9 -12 -3 19 10 3
-12 -8 -14 -15 -7 14 7 -1
-9 -1 -11 -10 -3 17 10 3
-4 9 -6 -5 1 22 15 6
-14 -3 -11 -10 -3 17 10 0
-2 8 -12 -11 -4 16 10 0
10 18 -7 -8 0 22 14 4
4 15 -7 -8 2 25 17 5
2 13 -10 -10 0 23 15 3
-3 9 -12 -11 -3 20 13 0
-4 5 -15 -14 -7 17 11 -2
9 16 -11 -11 -3 19 15 3
8 16 -12 -11 -3 18 15 4
-11 4 -15 -12 -4 20 15 3
-16 1 -17 -14 -5 18 13 1
-8 6 -19 -17 -9 14 10 -2
-9 4 -22 -18 -11 14 10 -3
-12 3 -17 -14 -7 18 16 2
-8 10 -16 -14 -5 20 16 5
-4 13 -20 -17 -9 17 15 3
4 15 -21 -17 -9 18 14 4
-4 15 -19 -15 -6 21 18 6
-12 7 -22 -16 -8 18 16 4
-12 6 -24 -18 -12 16 14 4
-16 4 -27 -21 -13 15 14 3
-21 -3 -33 -25 -17 12 10 -1
-28 -1 -31 -24 -15 15 12 2
-14 12 -26 -21 -13 18 17 8
-10 17 -25 -21 -12 18 18 11
-15 10 -30 -25 -17 15 15 7
-11 8 -32 -27 -18 12 13 6
-15 12 -30 -25 -16 15 17 10
-14 14 -33 -28 -18 14 14 8
-21 8 -35 -30 -20 14 15 8
-21 2 -38 -34 -22 10 14 8
-20 4 -38 -34 -23 12 15 11
-12 19 -37 -32 -20 15 18 14
-11 17 -40 -33 -21 15 19 15
-19 11 -43 -37 -24 12 16 15
-22 9 -45 -39 -26 11 16 13
-21 10 -46 -39 -27 10 16 14
-32 4 -49 -42 -30 7 15 13
-38 -6 -53 -47 -35 3 9 8
-35 -7 -52 -45 -32 5 13 12
-23 4 -51 -44 -30 9 16 15
-16 14 -51 -44 -28 11 19 18
-24 9 -53 -44 -29 11 19 18
-30 2 -56 -47 -31 9 17 15
-34 0 -55 -46 -31 10 17 17
-33 2 -55 -46 -33 9 15 17
-32 2 -56 -45 -33 8 16 18
-36 -1 -53 -42 -28 12 21 20
-38 -5 -53 -39 -25 15 22 21
-38 -10 -54 -39 -27 12 20 18
-37 -7 -53 -36 -23 17 24 21
-30 0 -51 -31 -19 21 27 23
-26 4 -52 -30 -17 23 26 22
-28 -1 -51 -27 -14 25 29 22
-37 -9 -48 -24 -12 26 30 22
-45 -16 -49 -24 -13 24 27 19
-35 -7 -43 -16 -7 31 33 25
-24 3 -37 -10 1 37 38 28
-22 -1 -37 -8 2 38 36 26
-41 -13 -38 -7 2 36 34 22
-46 -18 -35 -5 3 36 34 21
-42 -20 -36 -5 2 34 29 16
-35 -13 -34 -3 3 34 28 15
-24 -2 -29 1 7 36 31 18
-22 -8 -28 1 7 37 31 15
-23 -5 -23 5 10 39 32 17
-33 -12 -22 3 8 34 27 13
-37 -14 -15 3 6 33 26 12
-29 -10 -8 8 12 38 28 13
-34 -12 -4 9 13 38 28 13
-21 -5 -1 9 13 38 28 12
-15 0 -1 8 10 35 22 8
-6 9 4 11 12 37 24 9
-13 5 7 11 14 37 26 10
-23 -10 5 9 10 33 21 4
-25 -13 8 10 9 31 19 3
-19 -6 9 9 9 31 19 3
-11 3 12 11 9 32 21 5
-4 14 15 11 9 31 20 5
-7 10 13 7 6 27 14 1
-19 -4 12 5 4 25 11 -2
-20 -11 9 1 -1 21 6 -6
-5 -1 10 1 0 20 7 -6
4 9 16 6 4 25 13 0
-1 5 15 3 2 22 11 -3
-11 -3 13 0 -2 17 6 -6
0 9 17 3 1 21 9 -3
12 18 20 3 2 22 10 -2
-4 4 15 -2 -5 15 3 -8
-4 5 14 -3 -5 15 2 -8
8 14 18 0 -2 18 5 -6
13 17 17 -1 -4 17 4 -8
4 11 15 -4 -6 13 0 -12
-4 7 14 -6 -8 11 -2 -14
7 11 17 -4 -6 14 2 -11
12 14 19 -2 -4 16 5 -9
10 8 16 -4 -6 13 1 -12
1 3 15 -6 -8 11 -1 -13
-9 -5 13 -7 -10 8 -4 -16
-9 -5 11 -9 -13 7 -7 -16
-2 -8 11 -8 -12 7 -6 -16
-3 -9 11 -8 -12 8 -6 -17
-9 -7 13 -6 -11 8 -6 -17
-1 4 15 -4 -9 11 -2 -15
2 6 14 -5 -9 11 -3 -17
0 3 14 -5 -9 9 -4 -17
-3 0 12 -7 -11 7 -6 -21
0 3 12 -7 -10 9 -5 -22
0 0 11 -7 -10 8 -7 -22
6 2 10 -8 -12 7 -8 -24
1 -3 11 -6 -10 9 -7 -23
2 6 17 0 -3 16 1 -16
2 8 19 2 -2 16 1 -16
0 6 16 1 -3 15 0 -18
5 6 14 -1 -5 13 -2 -19
-6 -4 11 -3 -7 10 -5 -21
-3 2 13 -1 -5 11 -3 -19
5 8 16 2 -1 16 -1 -15
9 6 15 3 -1 16 0 -14
5 2 13 0 -4 12 -3 -17
-4 0 7 -5 -11 6 -9 -24
-14 -11 9 -2 -9 8 -8 -21
-11 -8 15 4 -1 13 -1 -15
8 9 19 7 3 18 3 -13
17 19 21 10 6 22 7 -7
8 10 16 6 1 17 3 -12
-12 -3 11 -2 -5 12 -4 -17
-19 -9 11 0 -5 11 -5 -17
-6 -6 8 0 -6 10 -6 -17
-5 -1 13 4 -1 14 -2 -14
-1 8 17 10 4 21 4 -8
-1 3 13 6 1 19 2 -10
-10 -7 10 4 -2 14 -3 -13
3 2 7 1 -3 14 -3 -16
9 7 10 3 0 18 1 -13
4 10 14 6 4 21 3 -9
4 11 13 6 3 20 4 -8
3 11 14 6 3 20 3 -8
-1 5 15 9 5 22 4 -6
8 6 13 7 4 20 4 -8
3 5 12 7 3 21 4 -8
-2 5 10 6 2 20 3 -9
-5 2 7 4 0 18 1 -11
-15 -6 8 5 1 17 1 -12
-1 5 9 6 2 18 2 -10
16 21 13 9 5 22 5 -6
-2 5 11 8 4 21 3 -7
-7 -3 10 7 2 19 2 -11
6 11 12 8 5 21 4 -9
4 7 9 7 2 19 1 -11
-4 0 8 6 1 16 1 -12
-4 5 10 8 4 20 4 -9
2 9 11 8 5 21 6 -8
1 7 10 8 3 20 3 -11
-6 0 7 4 0 16 0 -13
6 4 7 3 -1 15 -1 -14
3 2 3 1 -3 13 -3 -16
-10 -3 7 4 0 15 0 -12
-5 4 9 6 2 17 3 -9
1 4 10 8 3 18 4 -10
-9 -5 8 7 2 18 4 -11
-8 -2 5 5 0 15 0 -10
-2 4 6 5 0 15 -1 -11
0 7 6 5 0 16 0 -13
3 9 5 3 -2 13 -2 -15
-6 -2 7 6 0 16 1 -12
-16 -10 8 8 2 16 1 -11
-7 -3 6 6 0 14 0 -11
14 6 4 4 -1 12 0 -13
18 8 4 4 0 13 0 -14
14 4 1 2 -3 10 -4 -16
-1 1 6 5 1 15 1 -11
-6 1 7 6 1 14 0 -12
-10 -5 2 1 -4 10 -3 -14
-15 -13 -1 -1 -6 8 -5 -17
-15 -14 -3 -3 -7 7 -6 -18
-14 -10 0 0 -4 9 -4 -15
2 2 5 5 1 13 2 -8
9 8 6 7 3 16 4 -8
7 7 5 6 1 15 1 -8
8 6 6 5 0 14 0 -10
2 1 7 7 1 14 0 -11
-3 -6 2 2 -4 10 -3 -14
-6 -5 0 1 -6 8 -4 -15
-7 -4 1 1 -6 7 -3 -15
2 -3 2 3 -4 9 -3 -14
-16 -11 1 3 -4 9 -3 -14
-14 -4 5 5 -1 12 0 -11
5 10 8 8 2 14 3 -8
10 7 4 4 -2 9 -3 -12
10 10 5 6 0 12 0 -10
7 9 2 4 -2 9 -2 -12
-3 -3 1 1 -4 7 -4 -14
-3 -2 3 4 -1 11 -1 -11
8 3 2 2 -4 8 -3 -12
-1 -8 0 0 -7 4 -6 -16
-12 -14 0 0 -5 5 -6 -15
-11 -2 2 4 -1 10 -2 -12
5 8 4 7 1 12 -1 -9
6 8 6 9 3 12 1 -7
1 2 2 5 -1 9 -2 -10
1 0 2 6 -1 11 -1 -10
-3 -2 2 6 -2 11 -2 -12
2 -1 3 6 0 11 0 -12
2 2 4 7 1 12 1 -8
2 3 3 7 -1 11 -1 -9
-4 0 6 8 2 14 1 -8
-3 -4 1 4 -2 9 -3 -13
-4 -3 -2 2 -5 6 -6 -15
-13 -14 -3 0 -6 4 -9 -16
-11 -16 -5 0 -6 4 -8 -16
-1 -6 -2 5 -4 9 -4 -11
2 5 4 8 1 12 -1 -8
-1 7 6 10 4 13 1 -5
-6 -2 2 7 -1 10 -3 -10
-4 -2 2 7 -2 9 -4 -11
6 2 4 7 0 10 -2 -10
4 -4 1 6 -2 7 -3 -11
1 4 -2 4 -5 4 -7 -15
7 15 0 5 -3 7 -4 -13
0 1 1 7 -1 7 -2 -11
2 -1 4 10 0 11 1 -8
11 12 4 11 2 13 1 -8
15 11 1 8 -1 9 -2 -10
8 7 3 10 1 11 0 -9
4 5 3 10 1 10 -1 -10
8 7 2 8 0 9 -2 -10
8 4 0 7 -1 7 -3 -11
0 1 1 8 -1 8 -3 -13
-2 -3 -1 7 -2 6 -5 -15
8 6 1 9 0 8 -3 -11
20 17 5 14 4 12 1 -7
20 20 7 15 5 13 2 -5
4 6 1 10 0 7 -3 -10
-8 -5 -2 6 -5 3 -7 -13
-4 2 2 10 0 8 -2 -8
-4 0 2 10 2 10 -1 -6
-9 3 4 11 1 10 0 -5
-5 6 5 13 4 9 1 -3
-2 9 7 15 6 11 0 -3
7 17 10 17 8 14 3 2
7 20 12 20 8 17 5 4
9 20 13 22 11 17 6 5
15 23 16 24 11 18 7 7
2 18 13 20 8 16 6 6
-7 12 10 18 8 14 3 3
-4 13 14 23 12 19 7 7
1 17 13 23 12 17 5 7
3 20 10 21 10 16 4 6
2 16 9 22 12 17 5 8
-5 8 5 20 9 16 5 7
-10 4 2 18 7 14 4 6
-6 2 -2 16 5 11 2 5
-5 5 -2 19 7 14 6 9
-10 3 -7 16 5 12 4 8
-19 -3 -11 11 2 9 0 4
-13 -1 -11 12 4 10 0 6
-6 -1 -8 16 7 13 5 11
-9 -1 -10 16 7 14 5 12
-10 -3 -13 13 4 11 2 8
-11 -3 -12 15 4 13 3 9
-11 -3 -14 14 2 10 1 9
-10 -7 -16 12 0 7 -1 7
-13 -5 -13 12 0 8 1 9
-21 -7 -12 14 1 9 1 11
-19 -14 -18 8 -5 3 -4 5
-16 -16 -20 5 -7 0 -8 3
-11 -9 -16 7 -4 3 -2 8
-3 -8 -16 8 -3 4 -2 9
-7 -13 -17 7 -6 1 -5 5
-19 -15 -18 7 -7 1 -4 6
-19 -13 -19 6 -7 0 -4 7
-9 -10 -17 10 -4 1 -4 8
-9 -14 -17 8 -6 1 -4 7
-11 -18 -16 9 -4 2 -3 9
-14 -21 -13 11 -5 1 -2 9
-16 -24 -15 10 -7 -1 -5 5
-15 -16 -16 9 -8 -2 -7 4
-2 -1 -14 9 -6 -2 -6 5
6 -2 -9 13 -5 0 -4 7
18 1 -8 14 -3 1 -4 8
18 3 -9 12 -5 -1 -6 7
7 -3 -7 12 -6 -1 -5 6
7 -1 -7 13 -5 -2 -5 6
-1 -8 -11 9 -8 -5 -9 4
-2 -11 -11 8 -9 -6 -12 1
-6 -14 -12 8 -9 -4 -12 1
-1 -13 -12 8 -10 -6 -12 0
2 -11 -12 8 -10 -6 -12 0
10 -6 -9 10 -9 -6 -10 3
9 -2 -8 12 -6 -3 -8 5
23 16 -3 17 -1 1 -4 10
25 21 -2 16 -2 1 -3 11
3 -3 -7 12 -6 -3 -7 6
-6 -22 -13 6 -12 -9 -12 1
-6 -22 -13 6 -12 -9 -13 1
2 -11 -11 8 -8 -5 -10 3
9 -7 -11 10 -7 -5 -8 5
-3 -9 -8 12 -6 -3 -7 6
-3 -12 -9 10 -8 -5 -8 5
-2 -14 -8 9 -9 -6 -9 3
1 -14 -6 10 -8 -6 -10 2
8 -2 0 15 -6 -7 -12 -1
13 -4 6 19 -7 -11 -17 -7
16 -7 12 23 -8 -14 -23 -16
21 1 27 34 0 -11 -22 -15
25 7 40 44 9 -5 -19 -15
36 15 47 59 22 6 -10 -12
37 16 53 74 38 22 3 -8
21 16 65 100 66 52 31 9
9 11 74 128 97 81 56 23
11 18 88 164 133 113 83 40
3 28 98 206 181 161 125 67
-15 23 102 250 238 224 181 110
-31 24 99 291 293 285 240 158
-63 17 95 339 357 352 303 210
-100 2 83 376 399 398 352 256
-123 -4 66 389 413 414 379 291
-138 -2 49 392 419 423 398 321
-145 -4 27 370 397 405 392 329
-148 -13 14 332 346 348 349 317
-143 -44 1 272 266 257 271 272
-136 -67 -22 186 176 173 201 226
-111 -58 -35 89 81 87 127 176
-69 -45 -38 -8 -22 -12 38 106
-28 -17 -26 -73 -96 -84 -28 51
-4 3 -13 -90 -122 -113 -60 21
14 16 3 -68 -110 -108 -65 4
40 29 26 -42 -94 -100 -69 -12
50 32 45 -20 -80 -92 -68 -21
53 28 58 -2 -67 -82 -67 -30
47 28 72 14 -53 -71 -60 -33
52 38 83 21 -46 -64 -54 -34
64 49 93 20 -45 -62 -56 -36
71 55 101 14 -50 -65 -59 -43
76 57 111 14 -48 -62 -57 -44
76 59 120 17 -43 -58 -55 -45
79 58 128 17 -42 -57 -54 -48
71 36 133 16 -45 -61 -59 -52
69 29 140 14 -46 -62 -61 -55
81 38 144 11 -47 -62 -61 -56
92 50 144 1 -50 -63 -60 -54
106 62 143 -3 -49 -61 -56 -50
107 58 132 -16 -56 -65 -59 -53
92 42 118 -29 -64 -70 -63 -55
75 30 106 -39 -71 -74 -66 -59
71 28 99 -41 -74 -77 -69 -59
80 31 101 -36 -68 -71 -64 -55
85 31 102 -33 -65 -69 -62 -55
80 26 96 -30 -63 -67 -59 -54
68 26 89 -29 -59 -63 -56 -51
62 32 81 -25 -54 -56 -47 -42
59 38 65 -20 -45 -45 -38 -31
62 40 49 -18 -41 -39 -31 -23
46 26 29 -17 -37 -34 -26 -19
36 18 14 -13 -30 -27 -17 -12
37 21 7 -8 -26 -22 -14 -9
32 18 4 -2 -20 -17 -8 -4
22 6 1 3 -17 -15 -6 -1
19 6 0 6 -13 -12 -3 0
20 10 1 11 -9 -7 1 2
18 11 -1 14 -8 -5 3 2
4 5 5 20 -1 1 9 10
21 17 7 21 1 3 11 12
23 17 2 18 -4 -2 7 7
13 11 -2 16 -4 -3 6 7
17 13 0 19 -2 1 8 9
12 9 2 21 1 3 12 12
14 6 0 20 1 3 13 14
8 2 -2 18 -1 0 10 11
4 -2 -4 16 -3 -1 8 8
6 1 -3 17 -2 1 10 8
6 1 -2 19 0 1 11 10
7 5 0 21 2 2 14 12
7 3 -1 21 0 0 12 11
4 -6 -4 18 -3 -2 9 8
-1 -10 -5 15 -4 -4 8 7
10 1 -2 20 0 0 13 10
10 -3 -2 22 1 0 12 11
9 -3 -2 21 0 0 12 9
12 1 -3 21 2 2 12 10
15 6 -2 22 2 2 14 9
11 4 -4 21 0 0 11 7
7 2 -3 22 1 1 14 8
12 3 -1 24 4 3 15 11
9 1 -3 21 1 1 14 9
2 0 0 24 3 3 15 12
5 6 2 27 7 7 19 14
1 -3 -1 25 4 3 16 11
7 -3 -6 19 -3 -3 10 5
-1 -9 -5 19 -1 -1 10 5
1 -7 -5 21 0 0 12 7
11 1 -1 24 2 3 15 10
20 12 1 26 5 5 18 13
16 9 0 24 3 4 16 11
20 12 -1 25 5 5 17 12
31 21 1 26 5 6 17 15
32 25 1 27 6 7 19 15
28 23 -1 25 4 5 17 14
6 10 -4 23 3 3 15 10
-5 0 -5 20 0 1 13 8
8 0 -7 19 0 1 12 8
1 -4 -3 22 1 2 15 12
-3 -3 -5 20 0 1 14 11
-2 1 -5 21 2 2 15 12
10 11 -4 22 3 4 17 14
16 16 -6 21 1 2 14 13
14 7 -6 22 3 4 16 13
7 4 -7 20 1 2 14 13
-3 -2 -8 20 1 1 13 11
6 5 -8 20 2 3 14 11
8 11 -7 22 3 5 17 12
6 8 -4 22 3 5 17 13
2 8 -4 22 4 6 18 14
9 5 -5 21 2 4 18 15
14 11 -4 22 4 6 19 16
8 12 -5 22 5 6 18 16
1 4 -10 18 0 2 14 11
-2 4 -11 18 -1 0 13 11
3 9 -12 17 0 1 13 12
0 4 -13 18 -1 2 13 13
5 6 -11 20 1 4 17 16
1 6 -11 19 0 3 17 17
-1 5 -10 18 -1 3 17 16
6 12 -7 21 3 7 22 20
4 8 -9 19 3 6 20 22
-3 2 -10 19 2 6 19 21
-3 4 -13 18 1 6 19 21
9 16 -13 20 2 6 21 22
16 18 -12 21 5 8 24 25
8 10 -12 20 4 8 24 25
5 15 -14 17 1 6 23 24
3 14 -16 16 0 4 20 22
-4 7 -15 16 0 5 22 23
-1 8 -17 14 -2 3 22 26
3 14 -15 16 0 7 26 29
-1 9 -18 14 -2 5 23 27
3 14 -19 14 -1 6 25 28
-7 11 -20 14 -1 6 26 30
-16 2 -24 10 -4 3 22 27
-15 0 -27 8 -7 1 19 25
-11 5 -24 10 -4 4 25 31
0 15 -22 11 -3 6 27 34
7 20 -20 12 0 9 30 37
-2 13 -22 10 -2 7 30 37
-7 16 -27 7 -5 4 28 37
-3 19 -29 3 -9 2 25 35
-3 12 -33 1 -11 0 24 33
-8 10 -35 0 -11 0 24 33
-9 7 -37 -2 -13 -1 23 33
-14 3 -36 -3 -13 -1 23 35
-10 8 -37 -2 -12 0 25 37
-7 11 -35 -3 -12 2 26 39
-15 11 -36 -3 -12 1 27 41
-15 12 -38 -6 -13 0 28 41
-9 13 -40 -7 -14 -1 27 41
-4 17 -40 -8 -15 -1 28 43
-9 18 -41 -7 -14 0 29 45
-25 4 -45 -10 -18 -2 27 43
-24 -3 -48 -16 -23 -7 23 39
-19 1 -47 -14 -20 -5 24 42
-25 6 -45 -10 -15 1 30 46
-28 6 -47 -12 -17 -1 28 46
-26 7 -47 -10 -16 1 31 48
-32 -2 -49 -12 -18 -1 30 45
-26 -2 -48 -11 -17 -1 30 45
-19 5 -44 -6 -12 4 35 49
-22 6 -42 -3 -8 7 38 51
-23 -1 -46 -4 -10 5 36 49
-27 -5 -45 -2 -7 7 36 47
-27 -4 -42 2 -5 9 38 48
-22 1 -38 9 2 17 43 51
-22 3 -36 12 6 19 45 50
-22 2 -36 14 6 19 44 49
-23 2 -33 18 9 21 45 48
-19 6 -32 21 11 22 46 48
-22 -7 -33 21 12 22 45 45
-26 -9 -27 28 17 25 47 47
-31 -8 -24 32 21 29 49 48
-36 -10 -24 31 20 26 45 45
-28 -4 -24 31 21 26 45 41
-20 -4 -18 36 26 30 48 44
-19 -7 -18 37 24 29 45 42
-16 -6 -18 37 22 27 42 39
-13 -6 -13 39 24 27 42 39
-14 -1 -6 45 28 31 45 41
-17 3 -3 45 29 31 44 40
-12 6 -3 45 30 30 43 39
-5 7 -2 44 29 29 42 37
-2 7 -1 45 27 27 40 36
-6 5 1 44 28 26 38 36
-16 0 1 45 27 24 37 32
-25 -8 4 44 26 23 35 31
-15 -2 6 44 25 23 34 30
-6 5 8 43 25 23 33 32
-10 1 6 41 22 22 31 30
-7 0 6 38 20 20 29 27
-2 3 6 37 17 16 26 25
2 7 8 38 18 15 25 25
1 7 9 38 18 16 26 23
7 13 8 35 16 13 24 21
4 15 9 34 16 13 24 21
5 1 9 33 14 11 22 18
-2 -7 8 30 12 9 19 15
2 6 6 29 10 7 18 14
12 18 9 29 10 7 17 17
12 12 10 29 11 9 18 16
5 4 8 25 7 6 15 11
4 7 9 26 7 5 15 13
19 20 11 27 10 7 18 16
11 14 9 24 7 3 14 12
1 5 7 22 3 -1 10 10
0 3 4 18 0 -4 7 7
7 5 8 21 4 0 11 11
11 9 10 23 7 4 14 15
4 3 7 20 3 0 11 12
-3 -3 5 18 1 -2 8 10
-2 2 6 18 0 -2 8 10
6 5 4 18 0 -2 7 9
2 0 4 17 0 -2 6 8
2 4 6 17 -1 -5 6 9
-1 3 6 16 0 -4 7 9
-5 3 7 18 2 -3 8 10
12 10 8 16 -1 -5 6 8
13 9 7 16 0 -4 7 7
9 4 8 17 1 -3 7 7
7 5 7 18 1 -2 7 7
5 5 8 18 1 -4 6 8
-1 0 8 17 1 -3 5 7
-4 -3 7 16 0 -4 4 5
5 3 7 17 1 -4 4 5
4 2 6 15 0 -5 3 4
12 14 10 19 6 -1 9 9
27 26 13 23 8 2 12 13
25 19 10 18 5 -2 8 9
1 2 7 16 3 -4 5 5
-4 -1 8 17 3 -3 5 5
10 6 7 16 1 -6 3 3
7 -1 4 14 -1 -8 0 0
-2 -4 5 14 1 -6 2 2
-10 0 8 18 4 -2 5 6
6 12 7 16 3 -3 5 4
15 23 9 18 4 -2 7 6
17 21 11 21 8 1 9 9
10 11 11 20 8 1 9 9
3 7 11 22 9 2 10 9
14 14 13 24 10 4 11 11
9 12 13 23 10 5 11 10
10 14 11 20 8 3 9 9
2 4 6 17 4 -1 6 4
-2 -1 6 16 4 -1 5 5
-3 0 6 17 4 0 6 5
-3 7 6 16 4 -2 5 5
2 9 10 20 8 2 8 7
3 5 9 18 6 1 9 5
15 12 9 18 6 1 10 8
17 16 11 20 8 3 11 9
9 11 10 20 7 3 10 8
9 11 10 20 8 3 11 9
10 9 9 20 9 3 11 11
2 3 5 16 5 -1 6 6
-4 6 5 14 4 -2 5 6
3 8 8 17 8 2 8 11
9 16 9 19 8 1 10 15
17 24 10 18 8 4 11 16
13 17 12 20 10 4 12 16
7 9 12 21 8 5 13 17
-1 5 9 18 5 1 10 16
6 13 9 17 8 4 11 17
4 8 8 17 7 2 10 16
3 5 7 16 6 1 8 15
13 12 9 17 9 4 12 17
13 14 9 17 9 3 12 19
6 4 5 13 4 -1 7 15
6 2 3 11 2 -3 5 13
0 4 6 13 5 -1 7 16
-7 0 7 15 4 -1 8 16
-7 5 10 17 8 4 13 20
4 11 10 16 7 2 11 18
7 8 7 14 6 0 9 17
12 9 5 13 5 0 8 15
9 8 6 11 4 -1 9 16
10 9 6 12 5 0 9 17
9 12 8 14 7 2 11 17
2 1 6 10 5 1 10 15
-4 -12 1 5 -2 -6 3 12
-7 -8 4 7 1 -4 6 14
5 9 8 13 5 1 11 20
13 14 7 12 6 2 11 20
7 12 3 10 3 -1 8 16
5 9 2 11 4 -1 8 15
10 8 4 11 5 0 9 16
2 4 6 12 4 0 9 17
-1 1 5 9 2 -3 7 16
0 2 4 7 1 -3 7 15
-1 3 5 9 2 -1 9 17
-2 3 6 9 3 -1 9 17
-5 -4 5 9 1 -1 8 15
3 5 7 11 4 1 10 16
24 26 10 14 7 4 13 19
23 26 8 11 5 2 10 16
20 24 6 8 3 -1 9 15
12 16 6 8 2 -1 9 14
0 0 5 9 1 -1 8 13
-5 -2 6 9 3 0 9 14
0 -1 4 7 0 -3 7 11
-6 -6 0 2 -4 -7 3 6
-9 -8 -1 1 -5 -9 1 5
-7 -8 0 2 -3 -7 4 6
4 4 3 4 -1 -5 6 9
4 13 7 8 3 0 11 12
7 16 9 11 7 3 13 14
3 10 9 10 5 2 12 14
8 10 7 9 2 -1 10 11
13 13 2 3 -3 -6 5 6
-2 8 3 3 -2 -5 6 7
-6 5 5 5 -2 -5 5 9
1 8 5 5 -1 -3 7 10
3 13 6 6 0 -3 8 9
-2 9 2 2 -2 -6 6 6
-3 3 3 3 -2 -5 6 7
-16 -4 4 4 -1 -4 8 10
-10 -1 6 4 -1 -3 9 10
-2 -2 4 3 -2 -5 6 7
-9 -7 5 3 -1 -5 5 9
-8 -2 5 4 -1 -4 6 8
-2 5 7 4 -1 -4 6 9
-6 4 3 2 -2 -6 4 5
3 11 2 1 -3 -6 4 7
4 13 8 5 1 -3 9 12
6 14 8 6 1 -1 11 13
4 12 5 3 -1 -4 7 8
-8 -2 3 0 -5 -8 3 6
-11 -7 1 -1 -6 -9 2 3
-6 2 4 2 -3 -5 5 6
6 13 8 5 1 -2 8 10
15 20 12 6 2 0 11 14
9 15 8 4 0 -4 8 10
4 13 6 2 -3 -7 5 9
-6 10 3 0 -4 -7 3 7
-7 3 1 -2 -6 -9 1 5
-3 -1 1 -2 -6 -9 2 4
2 7 7 2 -1 -4 7 10
-2 6 5 1 -2 -6 4 8
-7 4 7 3 0 -4 7 10
-7 1 5 1 -2 -6 6 9
-5 3 4 0 -4 -7 4 7
-6 7 5 0 -3 -7 4 8
-4 8 6 1 -2 -6 5 9
11 21 11 4 2 -1 10 14
18 27 13 7 4 1 12 16
5 16 10 5 2 -1 9 14
-8 6 7 3 0 -3 7 11
-13 1 7 3 1 -4 6 11
-13 5 11 4 2 -2 7 12
-14 6 10 4 1 -3 8 13
-10 8 10 4 1 -3 7 12
-10 5 10 2 0 -3 6 11
-21 -4 9 2 0 -5 5 11
-16 3 14 6 4 0 9 13
1 17 16 7 4 0 9 12
7 23 16 7 5 1 10 14
4 31 23 15 13 8 17 22
9 29 20 13 10 6 16 21
2 24 18 10 8 4 13 18
-9 14 16 8 6 2 12 17
-6 17 13 8 6 2 11 16
-1 21 13 8 7 3 13 17
-10 13 11 8 7 3 13 18
-18 5 6 5 4 1 11 14
-6 16 4 6 7 4 14 17
-9 13 2 3 3 2 13 16
-20 4 -5 -2 -1 -2 8 13
-26 2 -6 -3 -2 -3 8 12
-27 1 -2 1 1 0 11 14
-28 -1 -5 -2 -2 -2 10 12
-17 7 -8 -7 -5 -6 5 10
-20 8 -7 -7 -5 -5 6 10
-24 0 -8 -8 -6 -7 5 9
-20 0 -10 -11 -9 -10 2 7
-19 -1 -9 -10 -9 -10 3 8
-12 7 -5 -7 -6 -6 7 10
-7 8 -7 -10 -8 -8 5 8
-10 2 -8 -10 -9 -9 4 7
-13 1 -6 -8 -8 -7 5 8
-17 1 -5 -9 -9 -7 5 9
-18 2 -5 -10 -10 -8 4 7
-22 -4 -6 -12 -12 -11 2 6
-23 -10 -9 -15 -14 -12 -2 5
-24 -8 -11 -17 -16 -14 -3 3
-32 -12 -14 -20 -20 -16 -7 -1
-29 -12 -14 -21 -20 -20 -8 -3
-27 -21 -10 -17 -17 -17 -5 -1
-32 -32 -11 -19 -19 -19 -8 -5
-29 -24 -6 -16 -16 -16 -5 -3
-8 5 -1 -13 -12 -12 1 1
-2 14 1 -12 -11 -11 0 2
-21 -9 -4 -17 -17 -16 -6 -5
-15 -3 -1 -15 -14 -14 -4 -3
-1 11 -3 -18 -17 -18 -8 -6
-7 -2 -3 -19 -19 -20 -9 -8
-20 -11 -4 -21 -20 -22 -12 -10
-4 1 0 -16 -17 -17 -7 -7
3 7 1 -15 -15 -16 -6 -5
-1 6 0 -18 -18 -19 -9 -6
3 11 -1 -19 -19 -21 -9 -7
7 11 0 -17 -17 -19 -6 -6
-2 6 0 -17 -16 -18 -6 -7
-2 8 2 -15 -13 -14 -4 -5
2 9 2 -16 -14 -14 -4 -4
-3 4 0 -18 -16 -18 -7 -6
-5 -1 -1 -19 -18 -21 -10 -9
-16 -10 -3 -21 -21 -25 -14 -11
-16 -6 -1 -19 -18 -21 -12 -9
-10 -1 2 -15 -15 -17 -8 -5
-3 5 3 -15 -15 -17 -7 -4
6 10 2 -17 -16 -18 -7 -6
5 11 5 -15 -13 -14 -5 -4
2 11 8 -12 -12 -14 -6 -6
10 15 12 -8 -12 -17 -10 -11
14 6 17 -6 -15 -22 -18 -19
14 -4 25 -2 -16 -27 -24 -26
14 3 37 6 -12 -28 -26 -30
16 15 48 19 -2 -20 -22 -32
24 24 53 32 12 -8 -14 -29
19 29 62 53 35 16 7 -15
7 25 77 83 67 48 32 3
-4 18 84 112 97 77 57 18
-17 13 92 144 130 107 80 34
-29 16 103 189 181 160 128 70
-37 20 104 231 235 220 183 113
-64 14 98 268 287 280 241 160
-92 11 93 316 348 343 303 214
-128 -5 81 340 377 374 340 255
-139 -6 63 344 380 381 357 284
-152 -2 47 340 375 379 368 308
-166 -8 22 306 336 342 342 305
-170 -35 8 258 268 263 274 271
-168 -73 -12 183 177 169 189 219
-150 -70 -25 103 99 97 130 180
-103 -50 -33 8 2 5 48 116
-64 -28 -21 -67 -78 -72 -23 58
-27 -5 -12 -110 -127 -120 -71 14
-2 5 -5 -109 -135 -132 -90 -12
8 19 19 -80 -114 -124 -89 -24
34 32 39 -56 -100 -116 -92 -37
42 27 51 -41 -90 -110 -93 -46
35 20 65 -21 -74 -97 -86 -52
48 32 82 -4 -59 -83 -77 -48
53 38 92 0 -56 -79 -74 -49
41 33 102 0 -56 -80 -77 -54
52 44 115 2 -51 -73 -70 -52
62 55 127 7 -43 -64 -62 -47
63 53 139 9 -39 -61 -60 -48
61 40 143 5 -44 -68 -68 -56
74 44 152 5 -43 -69 -71 -57
74 43 161 4 -43 -69 -71 -58
61 27 155 -11 -51 -74 -77 -64
59 23 145 -27 -62 -82 -82 -68
76 38 141 -36 -65 -83 -80 -67
78 39 133 -45 -70 -84 -81 -68
77 37 125 -52 -71 -83 -81 -66
73 38 121 -53 -69 -81 -78 -62
75 42 115 -54 -68 -78 -75 -60
79 52 113 -53 -67 -77 -74 -58
79 52 117 -45 -60 -72 -68 -52
73 42 109 -47 -60 -74 -71 -54
74 44 100 -47 -59 -69 -67 -51
79 53 90 -44 -54 -62 -59 -43
67 53 72 -44 -48 -55 -52 -38
51 39 56 -40 -41 -48 -42 -29
39 21 38 -38 -37 -43 -36 -24
27 15 22 -37 -35 -42 -35 -22
18 11 15 -34 -32 -39 -33 -20
19 11 13 -26 -22 -31 -25 -12
18 13 12 -22 -19 -28 -22 -10
10 13 12 -16 -11 -22 -17 -6
9 18 14 -9 -4 -15 -11 -1
7 12 9 -11 -5 -19 -12 -3
11 11 8 -11 -3 -18 -13 -3
3 13 10 -9 1 -16 -12 -1
2 15 8 -10 0 -18 -13 -1
1 5 8 -10 1 -18 -12 1
-2 0 9 -9 5 -14 -9 2
1 2 7 -9 6 -14 -8 2
3 5 5 -11 6 -15 -7 2
7 10 6 -9 9 -14 -6 1
3 10 6 -7 14 -11 -6 2
6 8 6 -7 15 -12 -7 3
4 10 7 -6 16 -14 -7 5
5 13 8 -7 17 -13 -7 4
6 12 7 -7 17 -12 -6 6
5 5 5 -10 16 -14 -8 5
-7 -5 3 -11 17 -14 -9 2
-22 -22 1 -11 15 -17 -12 -1
-21 -18 3 -10 15 -17 -12 0
-7 0 7 -6 20 -13 -7 6
9 13 10 -4 24 -9 -2 8
15 17 9 -3 25 -9 -1 10
9 12 7 -6 23 -11 -5 5
5 10 6 -6 23 -12 -5 5
2 11 5 -8 22 -14 -7 3
-1 11 4 -8 21 -15 -8 3
-5 0 7 -4 26 -10 -4 4
-4 -1 7 -3 28 -9 -3 7
4 9 9 -2 30 -8 -2 8
14 21 11 -2 31 -7 -1 10
9 18 10 -4 31 -9 -2 8
1 9 4 -7 28 -14 -7 5
-1 4 5 -8 29 -13 -7 6
2 5 6 -8 30 -12 -6 6
7 6 5 -8 30 -12 -6 5
-3 -2 5 -7 31 -12 -7 6
-19 -13 3 -10 28 -15 -11 1
-5 -2 1 -11 26 -16 -11 2
6 9 4 -10 30 -12 -7 6
1 4 5 -8 33 -11 -6 6
-3 2 5 -4 37 -7 -3 8
-2 5 7 -3 37 -6 -3 10
5 9 6 -5 35 -9 -4 10
2 8 7 -6 33 -10 -5 11
0 4 5 -6 32 -10 -6 10
1 3 4 -7 32 -10 -5 10
-8 3 7 -3 37 -4 1 13
0 3 6 -4 37 -3 1 12
2 8 0 -8 34 -7 -3 8
-1 10 2 -6 33 -7 -3 10
3 9 0 -7 35 -6 -3 9
-1 5 -1 -8 33 -8 -5 7
4 10 0 -6 35 -6 -3 10
-4 9 4 -4 37 -4 0 14
-7 3 1 -7 32 -8 -4 11
3 10 0 -7 32 -7 -3 12
2 11 2 -4 37 -1 2 15
1 7 1 -5 35 -3 2 15
7 9 -1 -5 32 -6 -1 14
8 6 -4 -9 28 -10 -5 11
-1 3 -5 -11 29 -9 -6 10
-11 3 -1 -8 32 -5 -1 13
-9 4 -2 -8 32 -4 0 14
-2 5 -3 -7 31 -5 0 15
-10 -3 -7 -11 27 -8 -3 11
-12 -4 -10 -13 25 -9 -4 12
-3 5 -5 -8 29 -6 0 15
-7 4 -5 -7 30 -4 2 17
-18 -1 -8 -9 28 -4 1 15
-12 7 -5 -7 30 -1 4 21
6 13 -7 -10 30 -3 4 20
3 14 -6 -11 28 -4 2 21
-7 8 -9 -11 26 -5 2 19
-7 13 -6 -8 31 -1 6 24
-8 17 -11 -12 27 -2 6 22
-8 21 -19 -22 18 -10 -2 16
-8 19 -17 -19 20 -6 4 19
-5 15 -11 -13 28 2 10 24
-4 17 -13 -14 27 2 10 24
-3 22 -14 -15 26 2 10 26
-4 20 -15 -18 22 -3 6 24
-10 15 -16 -19 18 -10 0 23
-8 13 -18 -22 17 -10 2 23
-13 10 -20 -24 19 -5 6 27
-17 7 -24 -29 15 -6 6 24
-12 11 -22 -28 17 -5 6 26
-16 9 -20 -26 18 -1 10 30
-20 6 -24 -30 15 -5 7 30
-21 7 -25 -33 12 -6 7 30
-22 9 -27 -36 11 -6 8 31
-18 10 -31 -39 9 -8 7 29
-25 9 -33 -39 9 -7 9 32
-29 5 -34 -40 9 -6 9 33
-36 1 -32 -39 9 -5 11 35
-39 0 -35 -43 7 -5 12 35
-32 4 -40 -47 5 -8 9 32
-26 8 -38 -46 6 -6 12 34
-27 7 -38 -44 6 -5 13 36
-24 9 -37 -44 6 -5 12 37
-23 11 -38 -45 3 -5 12 38
-35 5 -39 -46 1 -6 14 38
-24 16 -36 -43 4 -1 17 42
-18 14 -42 -48 -2 -7 11 37
-29 9 -40 -46 1 -4 14 38
-34 8 -38 -42 2 -1 17 40
-30 5 -41 -45 0 -2 15 39
-38 -1 -43 -46 0 -2 15 38
-43 -5 -41 -41 5 2 19 41
-51 -13 -41 -40 5 2 17 39
-46 -11 -40 -38 6 3 18 40
-30 6 -33 -30 15 11 26 45
-32 3 -33 -28 17 13 27 45
-44 -9 -32 -26 18 15 27 44
-49 -12 -33 -24 19 15 27 42
-44 -12 -29 -19 22 17 29 42
-52 -23 -27 -15 26 22 29 42
-59 -22 -28 -14 26 22 28 39
-53 -19 -26 -12 28 21 27 38
-40 -14 -21 -6 32 24 30 41
-24 5 -14 -1 36 28 33 44
-24 7 -14 -1 35 25 30 39
-27 8 -16 -2 36 26 29 36
-30 2 -11 3 40 29 31 37
-39 -7 -4 9 44 35 35 40
-35 -6 -6 8 41 31 31 36
-29 -6 -4 7 39 27 27 33
-23 -2 -2 7 39 27 26 31
-20 3 3 12 41 30 29 33
-23 1 7 14 43 31 29 34
-20 -1 8 14 43 29 25 32
-29 -11 9 13 40 25 20 27
-35 -14 11 12 36 21 19 26
-29 -10 14 13 38 22 18 23
-19 -3 14 11 36 23 18 22
-16 5 15 11 38 25 19 23
-12 9 17 12 38 25 19 23
-6 16 19 13 37 25 19 23
-4 10 18 10 33 21 16 20
-5 10 18 7 31 19 14 18
-5 5 17 6 29 16 11 15
-8 3 18 5 28 16 10 14
-19 3 17 4 26 13 7 13
-15 4 17 3 24 11 6 13
-9 -2 14 -2 19 6 1 9
-14 -3 14 -3 20 10 6 10
-16 -3 13 -4 21 13 8 12
-14 -3 15 -1 22 13 7 10
-20 -4 16 -1 19 9 3 9
-17 1 13 -3 15 5 -1 7
-8 0 11 -7 13 3 -2 4
-13 -2 16 -6 14 4 -1 4
-8 -1 17 -3 17 7 0 4
6 4 16 -4 15 6 -1 2
2 5 19 -4 15 7 0 5
0 1 18 -5 15 8 0 6
-6 2 16 -5 15 8 2 7
-9 4 16 -4 14 7 2 8
-11 0 16 -5 13 5 0 7
-6 -2 12 -8 9 4 -2 4
0 5 12 -8 12 7 0 6
-4 5 17 -4 15 12 4 10
-1 4 17 -4 16 13 3 8
-5 2 15 -5 13 9 0 4
-12 -3 14 -7 9 4 -4 1
-4 8 16 -6 10 3 -5 3
-4 3 13 -7 8 2 -7 1
-12 -8 12 -9 6 -1 -10 -3
-13 -7 15 -8 7 0 -9 -3
-5 4 19 -4 12 7 -3 2
1 6 18 -7 10 6 -3 2
3 9 17 -7 8 5 -4 2
-2 12 19 -3 14 12 1 6
5 12 20 -3 15 11 1 6
5 12 19 -4 11 8 -2 4
6 13 19 -3 12 8 0 4
7 11 19 -1 14 11 1 5
4 13 21 1 16 12 2 5
4 14 22 3 17 12 2 5
3 6 20 0 14 11 -1 2
-7 -4 19 -2 13 10 -3 3
-8 -10 20 0 13 10 -1 4
-2 -3 18 -1 12 9 -1 4
-8 -3 17 -4 11 9 -3 2
3 3 17 -4 13 11 -1 1
-2 5 19 0 15 14 2 3
