I II V1 V2 V3 V4 V5 V6
75 34 77 235 292 326 280 208
68 34 69 265 319 369 329 249
91 51 37 245 313 384 360 281
118 65 -7 197 292 392 390 321
145 86 -51 128 257 389 413 354
179 118 -84 63 216 366 411 366
190 134 -116 -5 158 312 376 357
175 123 -147 -81 81 235 318 334
147 107 -182 -170 -19 124 226 276
115 96 -194 -241 -106 22 136 220
88 78 -200 -300 -173 -58 65 177
70 70 -209 -351 -233 -125 1 128
50 62 -221 -390 -273 -177 -54 79
38 37 -232 -404 -295 -203 -96 37
25 15 -241 -410 -310 -228 -135 -8
7 14 -237 -395 -310 -239 -164 -48
-7 4 -233 -383 -306 -242 -173 -65
-16 -18 -229 -369 -301 -236 -174 -76
-22 -34 -229 -359 -301 -240 -183 -92
-21 -36 -219 -335 -287 -232 -180 -96
-27 -50 -195 -300 -266 -218 -170 -94
-19 -47 -176 -264 -243 -201 -161 -95
-19 -37 -155 -222 -218 -188 -152 -93
-19 -30 -123 -172 -183 -161 -131 -80
5 -11 -89 -126 -145 -130 -107 -65
16 8 -59 -82 -107 -100 -88 -57
-8 -12 -41 -49 -79 -79 -73 -52
-16 -36 -24 -23 -54 -54 -54 -44
-15 -31 -12 -6 -36 -38 -39 -36
-20 -29 -6 2 -25 -26 -30 -29
-32 -48 -1 6 -23 -25 -26 -28
-46 -54 2 10 -24 -24 -26 -32
-48 -45 0 9 -25 -31 -36 -39
-37 -48 2 10 -25 -35 -41 -45
-12 -39 6 18 -18 -31 -39 -44
7 -14 11 27 -12 -26 -38 -42
-1 -14 13 32 -8 -22 -38 -38
-24 -28 22 39 3 -6 -27 -27
-18 -19 21 41 5 -3 -23 -25
-9 -16 19 39 3 -8 -30 -26
0 -21 23 40 2 -7 -27 -23
1 -21 20 35 -1 -7 -28 -27
-2 -12 18 34 -2 -12 -34 -30
0 -11 18 35 -1 -12 -35 -30
9 -7 22 40 3 -8 -31 -28
13 -1 19 43 4 -7 -33 -32
7 -13 14 38 -1 -13 -39 -36
1 -23 17 41 3 -6 -29 -29
-6 -18 20 45 10 0 -22 -23
-13 -19 19 44 6 -3 -25 -25
-14 -38 12 40 1 -7 -28 -27
-16 -38 13 39 0 -8 -28 -29
-21 -27 14 41 1 -9 -31 -31
-7 -16 15 46 6 -7 -31 -29
5 -6 22 52 13 -1 -26 -25
4 5 22 53 15 2 -25 -27
-9 -6 21 53 12 0 -29 -27
-14 -23 20 51 9 0 -28 -27
-5 -18 19 50 10 0 -27 -27
5 -11 19 50 11 -1 -29 -26
15 -6 25 51 12 3 -24 -20
21 5 32 54 15 9 -18 -17
12 10 29 50 12 2 -25 -21
5 1 26 51 13 3 -24 -21
12 -6 25 52 10 0 -27 -26
11 0 21 47 7 -4 -32 -33
11 1 24 54 13 2 -27 -26
17 9 36 68 27 18 -11 -10
24 19 37 69 28 20 -8 -10
12 10 34 60 20 14 -15 -14
8 -10 29 53 13 8 -18 -18
6 -14 26 53 12 8 -18 -20
10 -2 25 52 10 5 -21 -22
12 -2 25 56 12 5 -21 -21
11 -10 27 61 14 6 -21 -22
26 6 25 64 16 8 -22 -24
20 6 27 69 22 13 -17 -19
-2 -3 34 76 30 24 -5 -10
11 2 29 73 25 21 -9 -13
19 6 26 70 24 19 -12 -16
23 0 33 74 26 20 -9 -9
22 5 35 77 25 22 -7 -7
20 13 31 75 23 18 -13 -10
15 7 30 75 22 17 -17 -15
8 1 31 79 24 19 -16 -16
9 8 30 80 24 17 -18 -20
8 0 27 76 22 14 -21 -20
1 -11 31 81 25 22 -13 -13
7 1 35 88 28 28 -6 -7
8 10 33 87 28 28 -3 -4
14 4 33 89 31 33 1 0
24 15 37 93 31 33 1 0
37 24 33 91 25 24 -6 -7
35 20 32 92 28 27 -4 -4
27 17 35 95 33 33 -1 -4
21 28 37 97 34 31 -4 -6
15 19 35 98 33 27 -7 -7
30 16 40 103 37 33 -2 -4
44 30 41 105 40 36 1 -3
46 30 36 103 38 32 -2 -6
35 8 34 100 34 28 -5 -4
24 10 38 101 36 35 0 -3
25 16 33 95 33 30 -4 -6
30 14 29 90 30 26 -9 -10
28 18 29 98 33 31 -5 -6
17 24 29 103 35 33 -3 -6
11 15 28 101 34 30 -6 -6
15 7 31 103 37 34 -2 -3
29 13 28 100 35 31 -3 -7
45 31 31 103 39 33 -2 -1
58 35 34 106 41 35 2 4
57 44 44 112 45 39 6 6
43 45 38 108 41 30 -1 0
39 27 30 98 33 23 -11 -8
42 23 28 96 30 21 -12 -11
42 39 29 96 33 22 -10 -10
28 29 30 93 35 25 -8 -5
27 22 32 94 37 30 -1 0
31 18 25 93 30 21 -4 -4
29 7 17 81 19 3 -16 -11
31 -5 13 74 11 -6 -21 -14
33 10 18 78 17 -5 -15 -13
43 32 18 79 17 -9 -19 -14
43 26 17 78 16 -13 -21 -14
21 16 19 80 17 -11 -18 -14
20 33 24 87 21 -8 -14 -10
38 43 24 86 20 -10 -14 -5
50 44 29 90 25 -2 -4 3
50 44 25 84 18 -7 -5 2
41 30 19 73 11 -16 -14 -4
45 19 13 60 3 -21 -16 -5
55 30 11 58 2 -20 -15 -6
53 39 8 54 -3 -27 -20 -8
44 33 11 54 -3 -26 -20 -5
33 22 11 56 -1 -25 -19 -7
25 26 10 58 0 -25 -20 -9
17 24 14 60 2 -23 -17 -3
24 28 23 69 11 -12 -5 5
48 45 20 64 11 -11 -4 5
52 45 18 59 6 -13 -7 3
45 31 15 53 3 -14 -5 5
51 40 14 51 2 -13 -4 2
46 40 9 47 -3 -20 -12 -5
40 34 12 49 -2 -20 -11 -4
37 32 20 53 3 -16 -5 0
32 40 21 53 3 -16 -5 -2
23 29 19 52 7 -11 -3 1
20 15 20 48 6 -8 2 3
22 16 17 44 2 -9 2 1
36 25 13 42 0 -11 0 2
33 11 14 38 -3 -11 1 4
33 13 11 35 -4 -12 0 0
36 28 10 32 -6 -16 -5 -3
20 17 15 35 -4 -13 -2 0
8 12 19 41 3 -6 6 6
19 29 24 43 6 -3 7 4
34 38 26 43 8 -1 10 9
47 33 29 46 11 5 18 14
37 21 22 37 3 -1 12 8
19 10 16 29 -1 -6 8 4
-2 -12 16 27 -4 -9 7 4
-6 -13 12 22 -9 -13 1 -3
7 11 13 26 -7 -15 0 -2
33 36 25 36 3 -5 8 6
49 54 36 43 13 6 18 13
40 53 35 41 12 5 14 7
20 23 26 32 3 -5 3 -1
14 5 25 31 -1 -6 4 0
18 9 23 28 -2 -5 5 -1
14 7 21 25 -5 -10 3 -2
14 -8 17 20 -11 -14 0 -5
18 0 18 21 -12 -16 -3 -10
16 17 20 26 -10 -17 -8 -12
22 18 24 28 -5 -12 -4 -7
28 16 25 29 -5 -12 -3 -9
41 32 23 27 -5 -12 -1 -10
28 18 21 24 -2 -7 4 -2
10 1 24 26 1 -2 10 3
7 4 24 27 -1 -4 11 1
1 7 24 28 1 -3 11 5
2 -5 22 25 -1 -2 10 6
11 0 24 23 -6 -7 7 -1
18 10 20 22 -8 -13 0 -8
17 3 17 22 -6 -14 -4 -10
21 8 23 28 -1 -8 0 -8
15 22 30 33 1 -7 1 -7
16 20 31 32 4 -4 4 -1
16 10 33 33 7 2 9 3
11 13 29 30 4 2 10 3
13 13 26 27 2 0 8 3
6 -2 25 25 0 -3 6 3
15 7 27 27 2 1 8 1
18 17 27 26 2 -3 3 -2
19 9 29 27 -3 -7 -4 -7
35 18 33 33 2 -4 0 -8
42 36 34 34 5 -1 0 -7
36 27 33 34 4 -2 -2 -7
33 15 34 35 5 2 2 -5
21 12 31 34 4 0 3 -6
6 12 37 39 10 5 6 0
-8 3 43 42 15 12 14 8
5 11 42 38 14 12 18 8
19 24 37 33 8 5 11 4
26 21 39 35 9 7 10 3
28 19 38 37 10 7 10 -1
35 29 34 36 8 4 6 -5
39 20 30 33 4 1 4 -4
17 4 35 37 7 9 11 1
13 8 35 37 11 11 14 4
19 13 34 35 9 10 11 4
11 1 37 34 8 8 10 6
11 19 44 42 14 17 15 8
18 31 44 42 13 12 8 4
25 27 44 40 12 9 5 2
21 13 37 33 6 4 1 -3
19 15 31 32 3 3 -2 -7
13 3 30 29 3 2 -2 -4
9 1 38 33 10 11 9 4
13 9 37 33 11 14 10 5
11 12 34 31 8 10 6 4
11 6 39 36 11 14 12 9
19 19 42 36 13 17 16 10
29 29 38 33 8 12 9 7
35 27 40 31 6 10 7 6
33 22 42 30 7 11 8 4
37 39 38 32 11 13 8 3
38 34 38 32 11 13 7 5
35 19 39 29 8 11 7 3
27 16 35 25 3 8 5 0
25 22 40 29 5 12 9 6
27 16 42 29 7 16 15 11
36 24 42 28 7 15 14 9
40 29 39 25 1 7 5 2
32 17 37 21 -3 2 1 -2
31 20 39 24 -1 5 4 -1
31 38 43 30 6 10 8 3
23 30 44 34 8 12 9 7
12 14 45 30 8 13 12 8
17 16 38 26 5 11 10 4
30 21 31 18 -2 6 4 3
42 21 32 18 0 9 9 6
42 32 31 21 3 13 13 8
37 35 27 18 -1 6 6 3
33 31 27 17 -2 4 2 2
34 28 23 13 -7 1 -1 -2
33 29 17 11 -12 -4 -7 -9
20 19 19 16 -11 -4 -6 -7
30 19 30 23 -4 4 2 0
25 26 37 28 1 9 9 6
21 26 37 22 -1 8 8 8
26 19 35 17 -3 9 7 8
29 25 31 14 -6 8 7 3
37 37 25 11 -7 4 3 2
36 41 31 20 0 8 7 7
31 35 36 23 2 10 10 7
40 41 32 18 -5 4 4 2
32 24 29 20 -5 3 2 3
28 9 29 16 -7 5 5 1
38 18 28 13 -8 4 5 2
28 19 29 12 -8 6 7 5
20 10 31 13 -8 6 7 6
32 25 30 12 -8 7 7 3
40 40 27 10 -10 3 3 2
44 40 32 15 -7 4 3 3
46 39 34 18 -8 3 2 0
46 41 33 16 -10 1 -2 -4
41 29 30 16 -9 1 -2 0
17 21 38 25 -1 13 10 10
16 27 39 24 0 16 12 10
27 27 33 17 -4 10 8 7
17 11 33 13 -8 7 7 7
17 18 34 13 -7 8 9 4
17 26 34 14 -8 5 3 2
25 31 41 20 -4 9 7 6
31 34 46 22 -2 11 9 8
38 41 42 18 -7 6 4 1
41 31 36 14 -9 3 0 2
42 25 37 17 -7 7 3 2
26 15 30 8 -15 0 -2 -4
18 18 36 9 -11 3 2 1
23 16 41 13 -7 7 7 8
34 33 40 13 -8 8 8 6
34 48 41 16 -4 10 9 9
32 47 47 24 3 15 12 12
45 53 49 26 4 17 13 13
41 57 46 22 -1 11 8 6
26 37 43 17 -4 9 7 6
23 28 47 19 -2 14 10 9
29 32 43 16 -5 9 7 7
36 30 36 12 -10 5 5 4
38 22 36 11 -10 8 8 7
34 33 39 14 -7 11 10 6
30 44 41 19 -2 11 9 9
35 49 46 27 1 14 11 12
43 59 54 36 7 18 15 14
53 61 46 29 1 11 5 5
42 48 45 24 -1 11 5 7
20 38 52 27 7 23 19 16
25 37 46 23 3 20 17 12
19 32 41 17 -1 18 15 14
4 18 44 18 1 23 20 18
8 32 49 23 5 25 22 16
18 47 46 23 2 18 15 12
38 51 45 23 2 19 15 14
32 42 44 22 1 18 16 12
5 41 47 24 3 22 17 12
-8 19 40 17 -3 14 9 8
-4 7 36 16 -7 12 9 8
9 19 33 14 -11 9 9 6
17 25 34 11 -14 6 6 6
17 21 38 13 -9 11 11 13
18 34 38 11 -7 15 15 13
-4 32 33 3 -11 10 11 11
-21 18 26 -1 -14 7 9 8
-10 18 23 -1 -15 8 8 6
9 41 25 2 -13 9 7 6
14 33 24 1 -14 7 8 8
14 22 21 -2 -18 6 9 5
11 18 17 -6 -23 2 6 1
23 21 10 -11 -27 -1 2 1
15 4 9 -15 -30 -4 2 0
-4 4 11 -15 -31 -6 0 -4
-13 7 6 -18 -36 -13 -7 -8
-25 1 8 -17 -33 -11 -7 -5
-15 11 12 -12 -26 -4 1 0
8 31 15 -5 -17 0 5 2
11 25 15 -1 -8 1 7 6
20 26 19 4 0 8 13 13
14 23 17 3 2 8 14 12
0 13 11 0 0 5 11 8
-12 -7 9 -6 -2 4 10 8
-3 6 11 -6 -2 4 12 8
4 14 8 -7 -5 0 8 5
-5 5 9 -8 -5 -1 8 5
-4 2 8 -5 -2 1 10 5
5 14 7 -4 -1 2 8 3
5 6 12 0 2 4 10 7
-5 -7 12 -2 0 5 11 5
-18 -20 3 -10 -9 -4 1 -4
-18 -29 -4 -15 -13 -12 -8 -12
-16 -38 -1 -13 -15 -13 -7 -11
-21 -22 7 -6 -7 -5 0 -7
-9 0 10 -3 -5 -6 -2 -6
-8 4 17 1 2 1 4 -1
-11 8 19 4 7 6 9 1
-7 11 12 -1 1 -1 1 -5
-14 -11 7 -8 -4 -6 -3 -8
-18 -22 9 -7 -3 -3 0 -8
-16 -16 9 -7 -3 -4 1 -8
-20 -12 11 -3 -2 -4 1 -6
-27 -20 18 4 3 1 7 -1
-27 -11 19 4 2 -1 5 -6
-26 -16 13 -4 -4 -10 -5 -14
-24 -23 16 -1 -2 -8 -6 -15
-27 -19 23 8 5 -3 -3 -16
-28 -3 32 20 14 1 -4 -17
-25 -12 42 33 25 7 -3 -17
-19 -12 58 55 44 22 7 -15
-18 1 72 77 66 41 21 -6
-22 5 78 95 90 66 42 10
-21 3 83 116 117 97 71 34
-22 19 87 134 144 129 101 56
-14 33 88 150 171 162 131 81
-3 35 92 174 208 208 174 113
11 49 98 212 256 265 231 155
38 78 100 250 307 328 292 206
58 84 100 268 342 378 348 257
81 99 84 258 356 416 400 305
99 115 36 211 337 426 432 342
115 123 -26 130 289 413 444 367
125 122 -67 58 247 398 452 388
126 145 -98 -6 195 355 429 383
123 163 -131 -80 121 280 373 361
115 164 -159 -157 32 182 298 324
98 162 -176 -231 -58 77 209 267
71 154 -189 -299 -141 -21 122 212
36 120 -202 -359 -213 -102 46 160
16 96 -211 -398 -260 -154 -8 112
9 85 -223 -419 -285 -186 -53 67
-3 55 -238 -429 -310 -220 -101 17
-14 33 -235 -419 -313 -235 -129 -19
-22 43 -226 -401 -301 -233 -140 -41
-28 43 -225 -389 -297 -233 -149 -56
-32 23 -222 -377 -297 -239 -160 -73
-37 16 -210 -350 -283 -229 -156 -79
-43 29 -187 -317 -261 -215 -149 -79
-34 27 -165 -281 -237 -196 -137 -70
-5 38 -140 -236 -203 -166 -111 -54
2 43 -119 -196 -177 -146 -97 -48
-15 26 -100 -164 -154 -132 -91 -49
-30 4 -74 -124 -124 -110 -75 -44
-29 14 -46 -86 -92 -83 -60 -41
-26 20 -29 -59 -68 -65 -50 -36
-27 20 -10 -34 -42 -41 -29 -24
-28 21 2 -19 -27 -26 -18 -17
-32 23 4 -13 -23 -25 -18 -20
-41 6 6 -9 -22 -22 -17 -16
-50 -4 10 -3 -17 -17 -10 -11
-47 5 14 1 -13 -15 -10 -10
-37 10 18 8 -9 -12 -8 -9
-42 1 23 14 -3 -8 -3 -5
-40 18 29 17 1 -4 -1 -6
-37 18 22 12 -5 -11 -10 -15
-39 6 17 7 -9 -16 -14 -21
-40 2 15 7 -8 -14 -12 -20
-30 16 14 9 -6 -13 -12 -18
-21 16 18 17 -4 -8 -8 -11
-21 15 25 24 2 -3 1 -5
-23 24 31 26 7 2 5 0
-19 30 33 32 12 5 6 2
-21 16 32 31 13 4 7 1
-22 17 29 29 11 2 4 -5
-30 22 30 30 13 2 2 -3
-33 15 30 30 13 1 4 -5
-42 10 30 36 17 4 5 -4
-51 16 30 37 19 5 4 -5
-58 6 29 33 17 4 3 -2
-52 2 29 30 18 4 7 -2
-45 8 28 27 16 3 4 -4
-46 14 33 36 21 6 6 0
-52 3 36 42 27 9 10 3
-50 10 35 40 29 8 8 -3
-44 14 30 35 23 3 -1 -9
-30 22 32 39 27 7 4 -5
-19 28 33 42 30 11 8 -1
-30 28 28 40 27 7 3 -5
-37 13 27 39 26 7 4 0
-31 12 30 41 30 12 12 5
-33 19 31 41 30 12 11 6
-41 14 29 42 29 12 10 6
-47 -1 28 43 29 11 10 5
-55 6 30 47 33 14 11 4
-58 12 24 44 30 11 4 1
-44 19 25 48 35 16 11 4
-38 24 29 56 42 23 19 9
-30 34 24 53 38 19 13 6
-33 22 21 52 36 18 14 8
-38 9 24 51 37 19 17 9
-48 3 22 44 32 15 13 5
-43 -1 17 42 29 11 8 2
-40 -14 14 42 28 10 8 0
-34 5 18 47 32 12 9 -2
-32 17 21 55 36 14 7 1
-24 16 23 60 38 16 9 1
-17 27 27 62 42 21 15 6
-32 35 27 62 43 22 16 8
-40 20 29 63 43 23 18 14
-29 16 29 62 44 24 19 10
-34 14 25 60 41 20 14 5
-39 12 27 62 43 22 14 5
-52 -6 26 60 44 22 15 5
-46 7 27 64 49 26 17 3
-36 24 28 70 51 25 16 5
-34 20 31 70 52 27 18 6
-19 33 32 75 58 32 23 13
-3 48 28 70 55 29 18 8
-3 25 19 64 44 18 10 2
-4 14 18 62 43 18 8 -1
-20 9 18 62 43 16 6 -1
-34 2 18 65 44 17 5 -1
-33 1 25 74 54 24 14 7
-25 29 36 87 66 35 23 13
-11 44 35 86 68 35 21 13
-3 36 31 84 66 33 20 11
-16 26 28 82 67 32 19 9
-23 33 25 82 63 28 16 7
-26 23 27 85 64 31 19 13
-16 20 27 85 64 32 22 13
-12 17 22 79 58 25 12 5
-18 6 17 76 53 17 3 -2
-43 -10 23 86 58 22 10 3
-43 3 25 87 59 23 8 0
-17 21 22 82 56 18 4 -2
2 41 33 94 66 29 16 9
-4 43 37 96 72 35 22 16
-2 48 31 91 66 29 15 10
0 35 31 88 61 26 14 12
-9 27 33 96 65 31 19 16
-11 27 30 94 61 27 16 13
-10 17 24 86 51 17 6 4
-11 2 23 83 47 13 4 2
-14 14 24 82 48 13 2 -2
-23 15 19 75 43 7 -4 -6
-8 12 13 65 38 3 -6 -9
3 22 16 67 42 6 -2 -4
3 44 24 78 47 12 4 3
4 42 28 81 48 16 9 11
0 37 30 83 50 17 11 13
-8 33 26 77 45 13 5 10
-14 23 23 70 37 5 -1 6
-10 14 22 68 34 4 -2 6
-8 25 21 66 33 1 -4 2
-14 27 17 62 28 -4 -11 -1
-23 17 16 61 27 -7 -11 -2
-15 18 10 58 21 -10 -13 -4
-8 28 5 51 16 -15 -18 -8
-4 21 5 48 12 -16 -17 -4
-12 22 13 53 20 -8 -7 4
-22 22 13 47 17 -9 -8 5
-25 16 9 41 10 -13 -12 3
-21 11 12 45 13 -9 -7 8
-7 33 12 47 17 -7 -5 8
5 43 9 42 14 -10 -9 6
1 29 4 38 9 -13 -12 3
-7 22 2 35 8 -13 -12 2
-4 31 2 32 6 -16 -17 -1
-15 12 5 31 4 -16 -17 0
-23 7 8 33 8 -10 -8 6
-17 13 4 30 5 -13 -11 5
-20 7 3 27 1 -16 -15 1
-27 -4 7 30 6 -10 -9 5
-9 25 9 33 10 -6 -7 4
-2 41 13 35 15 -3 -4 9
-14 31 15 34 17 0 1 11
-23 21 9 31 13 -2 -1 9
-20 26 3 26 8 -8 -7 4
-19 13 2 23 5 -9 -7 7
-28 6 8 28 10 -4 -1 10
-27 10 8 28 10 -4 -3 10
-21 4 5 23 5 -10 -9 5
-27 -1 9 24 8 -4 -3 9
-13 20 10 23 12 0 0 8
1 29 4 19 10 -3 -3 6
-1 25 6 22 12 0 2 11
-32 17 10 24 14 4 7 14
-51 8 2 15 7 -3 -1 7
-43 -5 -3 8 3 -6 -2 8
-32 0 2 15 7 0 4 12
-24 13 4 15 8 -1 2 11
-23 16 6 17 8 -1 1 12
-30 -5 2 13 4 -5 -2 6
-13 12 1 13 3 -7 -5 0
-22 16 -1 11 2 -9 -8 -1
-35 6 0 12 4 -7 -5 1
-34 14 7 17 8 -2 0 6
-38 19 6 17 7 -3 -2 4
-37 10 8 20 9 -1 1 9
-36 7 8 21 10 2 5 10
-26 17 10 18 10 2 3 10
-23 14 7 16 6 -1 0 7
-25 -3 5 14 4 -2 0 5
-22 7 2 13 3 -5 -3 -1
-27 10 1 12 2 -7 -6 -3
-22 8 1 13 1 -7 -5 -5
-33 5 3 14 5 -2 -2 -3
-39 14 4 14 5 -4 -3 -3
-40 3 2 15 3 -5 -3 -1
-41 -2 3 15 4 -1 1 -1
-45 -2 1 11 2 -3 -3 -4
-41 -4 -1 10 1 -6 -6 -8
-35 -10 3 13 2 -3 -3 -7
-32 2 4 15 3 -3 -5 -11
-27 5 2 11 -1 -6 -9 -14
-31 0 1 11 1 -3 -6 -14
-23 3 0 12 2 -2 -6 -17
-16 15 1 13 1 -4 -9 -19
-27 -6 1 12 -1 -4 -9 -16
-15 -1 3 16 4 0 -3 -14
-15 9 8 20 8 4 -1 -11
-23 2 6 17 5 1 -3 -13
-27 -2 12 23 12 8 5 -8
-34 10 14 25 15 9 4 -12
-43 3 8 17 9 3 -4 -18
-56 -6 9 18 10 5 0 -16
-59 -7 9 17 11 8 3 -15
-55 2 7 19 10 7 -1 -17
-42 -3 11 23 14 10 3 -10
-28 0 12 22 13 12 6 -9
-27 -3 7 15 7 4 -1 -16
-34 -13 5 15 4 0 -7 -20
-33 -16 9 20 8 4 -3 -17
-33 2 13 25 12 7 0 -17
-39 6 14 24 12 6 -4 -18
-34 2 14 22 12 7 -2 -18
-32 -2 12 20 10 4 -4 -22
-48 -4 9 19 8 1 -8 -24
-58 -20 11 18 8 3 -7 -20
-56 -13 19 26 16 14 7 -9
-47 -5 15 23 15 13 5 -9
-35 -5 9 17 9 7 -2 -15
-38 -22 7 14 7 4 -4 -18
-45 -18 4 13 6 3 -7 -23
-53 -9 8 17 10 5 -6 -21
-51 -11 10 18 11 6 -4 -20
-43 -9 8 16 9 5 -4 -22
-52 -6 3 14 6 1 -8 -24
-68 -29 3 12 3 -1 -8 -22
-60 -32 2 7 1 -1 -6 -22
-56 -22 5 8 2 -1 -7 -22
-48 -17 7 10 3 -2 -7 -20
-32 -18 9 9 6 2 -4 -20
-33 -10 7 7 4 -1 -8 -26
-42 -9 4 7 2 -4 -11 -28
-63 -24 5 10 5 -2 -9 -25
-72 -34 2 7 1 -5 -11 -29
-73 -32 -4 1 -6 -12 -18 -35
-62 -36 -2 0 -5 -11 -14 -28
-54 -30 4 2 -1 -4 -6 -22
-45 -14 6 4 0 0 -3 -16
-39 -13 6 6 1 0 -4 -15
-38 -24 4 5 -1 0 -4 -16
-30 -9 8 6 1 -2 -6 -21
-25 -5 3 3 -4 -7 -12 -25
-28 -12 3 3 -4 -7 -12 -26
-39 -16 3 2 -3 -6 -11 -27
-52 -21 -2 -2 -7 -11 -18 -30
-49 -35 -4 -5 -11 -15 -19 -30
-53 -40 -3 -6 -11 -14 -16 -28
-69 -38 -2 -8 -10 -11 -14 -26
-83 -46 -3 -10 -11 -12 -15 -25
-69 -45 -2 -7 -10 -10 -12 -25
-46 -28 -9 -11 -14 -14 -19 -33
-45 -21 -8 -10 -12 -15 -20 -31
-47 -25 -6 -10 -11 -13 -18 -30
-51 -35 -9 -12 -14 -16 -20 -35
-48 -32 -14 -19 -21 -24 -28 -40
-59 -39 -8 -13 -12 -15 -18 -29
-69 -32 4 -3 -1 -3 -6 -18
-64 -30 0 -10 -5 -7 -11 -22
-58 -34 -3 -14 -10 -11 -15 -23
-58 -41 0 -10 -5 -6 -9 -20
-53 -33 -6 -13 -8 -12 -18 -29
-55 -34 -11 -15 -13 -18 -25 -34
-51 -40 -11 -17 -15 -21 -25 -35
-45 -34 -11 -19 -14 -19 -24 -36
-41 -15 -8 -17 -10 -15 -21 -32
-55 -29 -6 -15 -8 -12 -15 -24
-64 -38 -6 -11 -8 -11 -13 -24
-67 -43 -11 -14 -15 -19 -22 -32
-63 -49 -12 -18 -19 -23 -28 -35
-67 -64 -12 -20 -19 -23 -28 -37
-52 -43 -13 -23 -20 -24 -29 -39
-45 -21 -3 -14 -10 -14 -21 -28
-47 -24 -2 -11 -5 -10 -15 -24
-41 -24 -6 -15 -7 -12 -17 -28
-42 -18 -9 -19 -10 -16 -21 -30
-44 -38 -10 -22 -13 -18 -23 -29
-44 -46 -13 -21 -15 -19 -23 -31
-50 -43 -11 -20 -14 -19 -24 -32
-60 -49 -9 -19 -15 -19 -23 -30
-62 -54 -4 -12 -9 -15 -18 -26
-55 -32 -2 -6 -6 -13 -17 -29
-45 -25 -4 -10 -9 -19 -24 -32
-41 -25 -1 -10 -7 -16 -20 -30
-48 -34 -6 -17 -14 -22 -25 -36
-41 -23 -8 -25 -15 -22 -26 -37
-42 -32 -5 -23 -14 -17 -21 -29
-44 -40 -8 -24 -16 -17 -19 -31
-51 -39 -11 -25 -16 -19 -21 -32
-56 -49 -14 -28 -19 -21 -24 -34
-36 -46 -11 -22 -17 -19 -22 -33
-27 -17 -5 -14 -8 -13 -18 -30
-36 -13 -2 -10 -4 -12 -18 -26
-43 -25 1 -6 -3 -9 -14 -23
-48 -25 1 -11 -5 -10 -15 -25
-47 -21 -3 -15 -8 -13 -19 -27
-44 -32 -2 -16 -8 -12 -16 -23
-41 -38 -3 -18 -8 -12 -15 -23
-27 -29 -6 -20 -12 -16 -21 -27
-18 -25 -5 -19 -12 -17 -22 -29
-22 -28 1 -12 -8 -13 -16 -27
-34 -14 5 -6 0 -7 -13 -24
-40 -13 2 -7 -3 -10 -15 -26
-45 -18 5 -7 1 -6 -9 -23
-54 -18 6 -5 4 -1 -7 -19
-40 -2 4 -4 4 -2 -8 -19
-32 -13 2 -1 3 -3 -6 -16
-31 -19 3 -3 3 -1 -4 -15
-34 -22 -4 -10 -3 -5 -9 -20
-33 -18 -2 -10 0 -4 -8 -17
-17 -13 4 -5 5 1 -2 -12
-14 1 3 -6 5 1 -4 -16
-32 -7 0 -9 3 -3 -9 -18
-31 -13 -1 -11 3 -2 -7 -19
-21 0 -3 -9 4 0 -6 -18
-14 12 -7 -11 2 -3 -9 -20
-16 -8 -8 -13 -2 -7 -10 -18
-18 -14 -10 -17 -5 -9 -12 -21
-30 -13 -11 -18 -6 -9 -11 -18
-31 -9 -8 -19 -4 -6 -7 -13
-21 -7 -7 -16 -1 -2 -2 -9
-8 13 -11 -17 -1 -4 -5 -13
-15 9 -18 -19 -6 -12 -11 -18
-24 0 -18 -25 -6 -11 -10 -17
-14 9 -18 -27 -7 -12 -10 -19
-5 18 -21 -32 -13 -17 -15 -21
-3 0 -25 -35 -18 -21 -17 -21
-5 -3 -26 -35 -18 -19 -14 -18
-16 1 -23 -32 -14 -17 -10 -14
-16 -4 -23 -31 -15 -18 -11 -14
-7 -11 -23 -31 -15 -19 -11 -16
3 7 -24 -31 -17 -21 -14 -19
4 4 -27 -36 -21 -25 -19 -23
8 -6 -29 -37 -21 -25 -19 -22
5 -4 -28 -36 -18 -22 -16 -21
-8 0 -25 -33 -17 -20 -15 -20
-12 -18 -24 -33 -16 -17 -12 -15
-16 -17 -17 -24 -9 -10 -5 -9
-8 -1 -12 -21 -6 -9 -2 -6
-3 1 -10 -25 -8 -10 -2 -5
-4 -10 -9 -24 -6 -8 0 -2
0 -2 -15 -29 -11 -14 -6 -11
-2 -6 -21 -33 -16 -20 -12 -18
0 -16 -21 -34 -18 -22 -15 -21
7 -13 -21 -35 -19 -24 -17 -24
1 -6 -19 -33 -18 -24 -18 -24
-21 -20 -11 -26 -10 -16 -10 -15
-21 -20 -7 -23 -7 -12 -5 -12
-26 -19 -6 -24 -10 -15 -9 -15
-33 -27 -7 -24 -13 -18 -11 -17
-25 -40 -11 -29 -19 -23 -16 -22
-13 -30 -18 -35 -26 -31 -25 -32
-25 -32 -17 -34 -27 -32 -27 -33
-33 -43 -21 -40 -31 -36 -30 -36
-25 -30 -19 -37 -26 -30 -25 -31
-3 -2 -12 -29 -18 -23 -18 -24
9 -2 -6 -24 -15 -19 -12 -18
11 -13 -7 -27 -18 -22 -15 -22
8 -13 -7 -28 -22 -27 -20 -28
10 -17 -6 -26 -22 -29 -24 -30
-1 -29 -2 -20 -19 -26 -21 -31
-11 -16 3 -15 -12 -22 -20 -33
-19 -12 6 -13 -9 -21 -22 -33
-25 -18 14 -3 -1 -15 -20 -34
-31 -16 23 11 11 -7 -17 -36
-31 -7 32 30 25 1 -12 -34
-23 -13 46 53 49 22 5 -21
-9 -2 57 81 79 51 29 -2
-2 5 56 96 97 73 47 12
3 -2 50 105 115 94 68 29
17 -5 51 121 139 127 104 54
46 23 51 144 172 170 143 83
66 54 64 188 225 232 203 134
85 76 74 226 279 299 273 192
111 95 67 237 308 344 324 233
132 102 31 206 300 360 354 267
149 89 -19 144 272 362 381 303
170 99 -68 66 231 354 401 334
171 115 -99 6 197 342 408 356
165 122 -127 -52 151 303 386 358
165 126 -156 -117 87 235 339 338
152 133 -190 -203 -7 133 250 285
135 124 -212 -288 -101 24 153 223
130 115 -221 -350 -175 -63 77 175
104 103 -233 -408 -241 -136 9 124
76 93 -243 -447 -287 -190 -48 78
57 60 -249 -455 -306 -212 -82 47
47 32 -260 -463 -329 -242 -121 3
44 22 -267 -465 -339 -264 -159 -43
37 23 -257 -445 -331 -264 -172 -62
19 5 -248 -425 -318 -255 -172 -71
6 8 -238 -402 -307 -252 -174 -82
10 14 -227 -375 -292 -243 -171 -84
7 4 -208 -341 -271 -230 -166 -86
12 2 -191 -303 -250 -214 -157 -88
10 4 -170 -263 -224 -199 -145 -81
0 -21 -145 -223 -197 -178 -129 -70
3 -20 -116 -179 -164 -151 -111 -63
11 -8 -86 -134 -129 -124 -93 -55
15 -13 -64 -99 -100 -101 -78 -49
3 -23 -39 -66 -68 -72 -55 -38
-6 -10 -25 -44 -48 -55 -43 -33
-4 -7 -21 -36 -43 -50 -42 -32
-9 -24 -18 -34 -40 -49 -40 -34
-14 -27 -17 -33 -41 -47 -40 -38
-21 -27 -17 -35 -41 -49 -42 -38
-18 -35 -13 -28 -38 -45 -39 -30
-2 -30 -10 -21 -33 -43 -36 -30
11 -13 -5 -13 -28 -39 -33 -29
-3 -21 -1 -9 -23 -35 -30 -25
-24 -41 1 -8 -20 -31 -27 -25
-34 -39 -5 -12 -24 -35 -32 -32
-40 -40 -8 -15 -26 -38 -35 -32
-34 -38 -1 -7 -19 -32 -27 -27
-17 -15 7 2 -12 -24 -19 -20
9 14 12 9 -7 -20 -15 -13
22 -1 8 5 -13 -25 -21 -17
11 -16 8 5 -15 -28 -22 -23
0 -20 8 1 -18 -30 -27 -27
-21 -28 12 3 -13 -25 -23 -21
-29 -33 17 10 -5 -16 -14 -15
-15 -18 13 9 -8 -19 -19 -21
-6 -9 11 8 -9 -20 -21 -22
-1 -7 15 11 -4 -17 -17 -18
9 0 13 11 -9 -20 -19 -21
9 0 8 8 -12 -24 -24 -24
-10 -19 14 15 -9 -21 -20 -18
-21 -24 18 22 -4 -19 -17 -17
-28 -23 18 23 -4 -19 -19 -18
-32 -29 20 24 -2 -17 -19 -17
-19 -25 24 26 2 -12 -14 -16
-4 2 28 31 5 -9 -12 -14
0 9 26 28 4 -8 -13 -13
-3 -6 19 20 -2 -13 -15 -14
6 -9 13 14 -9 -19 -20 -21
1 -6 12 16 -8 -19 -20 -19
-5 -15 17 23 -3 -11 -14 -12
-7 -12 19 29 1 -7 -10 -11
-8 -14 17 28 -1 -11 -15 -15
-1 -20 11 25 -5 -16 -22 -20
3 -29 10 25 -6 -17 -24 -24
-5 -12 13 30 -1 -13 -21 -24
-5 -4 16 29 2 -9 -17 -17
-3 -9 14 27 3 -6 -14 -14
4 -4 10 25 0 -8 -15 -17
-5 -1 9 29 0 -9 -14 -14
-6 -15 12 31 2 -5 -11 -7
4 -6 18 35 7 3 -5 -4
17 12 21 41 13 7 -2 -1
12 4 20 47 14 8 -1 1
10 -4 20 48 16 10 0 -1
10 11 18 49 17 9 -2 -4
9 11 15 47 14 6 -6 -5
12 6 14 44 14 5 -5 -5
13 10 12 46 13 5 -5 -5
13 7 5 41 8 -2 -12 -10
17 -8 4 41 5 -2 -13 -10
11 -7 13 50 12 4 -6 -6
0 4 18 57 20 10 -2 -1
4 -1 17 58 21 9 -5 0
9 -2 19 61 23 14 0 1
15 17 17 62 24 13 -1 -2
14 17 16 60 23 11 -3 -1
14 15 17 63 25 16 1 2
0 9 15 63 23 16 1 1
-3 12 12 59 21 12 -1 -1
6 1 14 60 20 11 -2 0
24 7 15 65 22 15 1 0
30 17 14 67 26 17 1 2
28 11 14 66 27 15 1 2
16 -1 17 70 28 19 4 3
19 16 16 72 30 20 2 -1
22 27 17 74 34 21 3 5
32 34 18 78 39 27 10 10
36 37 16 79 39 28 11 9
37 38 13 75 33 21 4 5
24 21 17 78 33 23 5 9
7 14 19 82 37 26 9 10
6 10 15 80 34 20 3 5
-5 -6 11 78 29 14 -4 1
-2 -5 14 79 32 19 -1 2
15 28 18 84 38 23 5 7
29 36 15 81 37 22 3 9
29 28 12 79 35 20 1 7
27 30 12 80 32 17 -1 3
31 32 6 74 26 9 -8 -1
30 19 8 73 25 10 -9 2
35 27 15 83 30 14 -3 5
29 30 18 85 33 15 -4 7
6 15 17 83 32 13 -5 7
4 8 18 82 31 15 -3 8
23 24 11 75 23 5 -11 -2
30 29 6 68 18 1 -15 -1
31 37 12 73 24 7 -6 7
39 46 12 75 23 6 -7 6
37 43 4 67 16 -3 -17 0
20 18 5 64 12 -6 -19 0
10 11 6 66 12 -4 -16 -2
7 11 1 57 6 -9 -22 -5
4 1 -6 48 1 -15 -25 -7
11 -1 -5 52 3 -9 -21 -5
14 18 -4 52 3 -12 -23 -9
11 21 -7 48 -1 -17 -26 -7
17 24 -5 46 -3 -17 -26 -5
22 32 -5 46 -3 -15 -24 -3
30 44 -5 47 -1 -16 -23 0
38 38 -1 47 -1 -12 -19 5
36 30 -4 43 -4 -14 -20 3
22 29 -5 41 -3 -14 -21 3
12 22 -4 42 0 -11 -18 6
18 17 -5 39 -2 -11 -17 5
22 30 -10 36 -5 -13 -20 2
24 33 -11 31 -7 -15 -21 3
36 33 -12 29 -8 -15 -19 3
28 35 -9 30 -8 -13 -18 3
28 38 -8 29 -9 -16 -20 4
23 25 -6 29 -7 -13 -17 7
14 16 -8 27 -6 -12 -15 5
10 14 -12 20 -9 -16 -20 0
11 6 -15 17 -11 -17 -22 -1
15 9 -12 20 -7 -11 -16 3
32 34 -11 19 -6 -10 -15 1
44 48 -9 21 -3 -7 -12 7
30 43 -6 23 2 -1 -6 11
19 46 -2 27 4 0 -4 13
14 47 -2 27 2 -2 -5 13
12 30 -1 25 1 -2 -6 14
15 23 -4 20 -3 -6 -9 9
4 13 -12 11 -9 -13 -16 2
3 6 -14 8 -9 -12 -16 2
16 16 -8 14 -3 -5 -8 9
26 34 -13 9 -5 -6 -10 5
39 42 -11 8 -5 -5 -10 8
36 34 -12 10 -8 -6 -9 7
17 29 -12 11 -8 -6 -8 7
-2 22 -16 4 -10 -12 -12 4
-19 -4 -15 3 -13 -10 -13 6
-20 -7 -17 4 -14 -12 -13 3
-4 2 -20 2 -16 -16 -18 -1
7 6 -17 3 -13 -13 -16 2
21 19 -8 12 -5 -4 -7 9
24 37 -7 13 -3 -3 -6 9
9 28 -13 7 -9 -8 -11 6
9 19 -16 4 -11 -8 -11 5
14 28 -15 3 -10 -6 -9 5
4 29 -15 3 -10 -8 -11 6
-4 5 -16 2 -13 -10 -11 5
10 8 -17 5 -14 -10 -12 3
17 22 -14 6 -9 -6 -8 7
15 14 -16 3 -10 -7 -10 6
11 2 -19 -2 -14 -9 -11 2
4 9 -23 -4 -16 -12 -15 -3
-9 3 -24 -6 -18 -15 -18 -2
-3 4 -23 -3 -16 -12 -14 -1
10 21 -19 1 -13 -9 -10 1
6 28 -15 5 -9 -7 -9 4
3 18 -10 10 -5 -2 -4 9
5 17 -11 8 -8 -2 -6 6
-1 17 -12 6 -7 -4 -9 3
-9 8 -8 8 -6 -4 -9 4
-4 0 -6 11 -6 -3 -10 2
16 20 -10 5 -10 -9 -16 -5
19 26 -9 8 -7 -8 -15 -3
17 25 -2 13 -2 -2 -7 4
12 34 -1 12 -1 1 -5 5
-4 23 -7 5 -7 -5 -10 1
-3 6 -8 3 -7 -4 -9 3
0 14 -3 16 0 3 -3 8
7 23 -2 17 -1 0 -7 5
14 20 -1 18 -1 1 -7 7
19 18 1 18 0 4 -4 6
29 39 -1 17 -1 2 -6 2
40 43 -3 17 0 0 -8 2
39 39 -2 20 2 3 -5 3
24 39 0 20 2 3 -6 2
13 37 -2 17 0 0 -8 1
7 23 4 22 5 6 -3 9
10 24 6 26 6 6 -4 5
12 33 7 25 6 6 -4 4
8 27 9 26 10 9 0 9
20 24 6 25 8 9 -1 5
18 32 -2 20 4 4 -7 -1
21 28 -6 15 1 0 -11 -4
18 16 -8 14 -2 -2 -12 -6
12 26 -4 16 0 0 -9 -5
5 33 0 21 1 1 -7 -1
6 25 9 25 8 8 -1 6
6 25 14 28 10 10 2 7
-2 20 10 23 6 6 -3 3
5 14 6 20 3 4 -5 2
21 32 14 28 12 15 6 13
21 49 14 29 14 16 8 13
7 33 10 23 7 11 3 9
6 22 7 20 5 9 1 7
6 22 1 18 1 6 -2 4
7 24 -2 13 -6 -1 -10 1
14 17 2 16 -5 2 -8 4
29 25 3 19 -2 3 -5 4
38 31 -1 15 -5 0 -10 0
25 27 7 19 2 7 -2 7
15 30 14 25 9 17 8 14
26 42 8 21 4 12 2 7
14 32 2 15 -2 5 -5 3
6 20 0 14 -6 3 -6 1
13 31 0 13 -6 2 -6 1
8 41 5 15 -2 5 -2 6
4 31 12 19 1 10 6 14
0 31 10 16 -1 11 6 12
-9 29 9 16 -3 9 2 9
-14 9 3 12 -8 3 -3 4
7 12 3 13 -9 4 -3 2
15 40 7 17 -4 7 -1 4
11 47 14 21 1 11 3 10
9 36 12 18 -2 8 3 9
10 36 6 11 -9 5 -1 3
11 35 2 5 -13 0 -6 2
12 26 5 8 -10 3 -2 7
1 22 4 9 -10 6 -1 7
-11 13 -1 4 -13 2 -7 3
-20 -2 1 3 -14 -2 -9 0
-23 -8 0 6 -14 0 -7 -2
-19 12 -1 9 -12 2 -9 -4
-2 37 9 18 -3 8 -1 6
21 51 17 23 2 13 6 13
25 59 17 21 0 13 5 11
12 49 10 12 -8 5 -2 5
8 31 7 6 -11 4 -2 7
7 29 5 5 -12 4 -2 5
9 29 -1 4 -14 1 -6 1
4 20 -2 2 -15 0 -8 0
4 13 -1 4 -15 0 -8 -3
4 26 -9 1 -20 -5 -14 -11
-6 30 -5 9 -13 3 -7 -1
-5 32 1 11 -10 6 -1 3
3 42 1 10 -11 6 -2 1
12 47 -2 5 -12 4 -5 2
20 38 2 6 -11 8 1 7
21 34 0 5 -13 5 0 4
21 28 -6 0 -20 -3 -10 -5
8 18 -4 1 -17 -1 -9 -3
9 23 3 7 -10 8 0 3
17 44 3 6 -9 7 -1 1
-2 32 -1 1 -13 3 -5 -2
-6 23 -2 1 -15 3 -5 -3
6 40 1 7 -12 6 -2 -3
8 43 1 6 -12 3 -6 -1
17 32 1 5 -13 4 -5 -1
15 36 4 10 -10 8 1 2
-1 31 3 8 -10 8 0 3
-4 18 -1 1 -15 2 -5 0
-16 1 -4 -1 -19 3 -6 -5
-5 18 -11 -7 -22 -2 -12 -11
-4 19 -10 -6 -21 -1 -10 -9
0 14 -13 -6 -23 -4 -11 -9
9 27 -11 -4 -22 -4 -10 -10
3 32 -9 -3 -22 -5 -12 -11
-2 18 -4 -1 -20 -2 -8 -6
2 23 0 3 -16 1 -3 -5
-8 15 -2 -1 -20 -2 -7 -8
-20 0 -3 -4 -21 -4 -10 -7
-22 -2 -2 -2 -18 1 -4 -6
-10 13 -8 -5 -23 -4 -10 -13
2 20 -8 -7 -22 -4 -8 -11
0 20 -4 -6 -21 -1 -6 -8
7 37 3 1 -15 2 -2 -6
11 43 4 2 -16 1 -3 -7
0 21 6 0 -15 2 -2 -6
0 25 11 5 -11 5 1 -4
0 36 13 8 -8 7 5 -3
-10 20 11 5 -9 8 5 0
-21 12 15 10 -5 13 9 2
-19 29 11 9 -4 12 8 -1
-19 25 6 5 -9 8 5 -3
-23 18 5 5 -8 9 7 -2
-27 20 0 3 -11 4 3 -6
-26 18 -6 -4 -16 -2 -3 -10
-22 5 -4 -3 -14 1 0 -6
-4 19 0 3 -10 6 2 -6
5 42 8 10 -2 13 10 0
4 41 14 16 6 19 15 7
20 44 14 18 8 20 16 7
7 48 9 13 3 15 8 -2
0 39 3 5 -2 9 4 -3
-3 32 -3 -2 -8 6 2 -5
-12 37 -6 -4 -10 7 4 -5
-24 32 -9 -7 -14 2 -2 -6
-19 16 -10 -9 -17 -1 -3 -6
-13 21 -10 -9 -16 1 -1 -5
-3 29 -13 -12 -18 -2 -4 -7
1 32 -7 -6 -11 5 2 1
11 45 -5 0 -6 12 11 6
9 55 -10 -3 -9 9 7 1
-17 29 -19 -14 -20 -3 -5 -7
-26 12 -23 -22 -27 -8 -8 -12
-32 20 -24 -24 -27 -4 -5 -10
-29 26 -23 -23 -27 -6 -5 -7
-7 22 -24 -26 -31 -7 -3 -4
8 35 -21 -21 -24 -1 1 0
20 44 -20 -19 -25 -5 -2 -3
16 31 -19 -20 -29 -8 -6 -5
10 20 -20 -22 -29 -9 -8 -8
9 29 -23 -27 -31 -12 -13 -13
6 40 -15 -20 -23 -4 -3 -3
13 42 -15 -19 -21 -1 0 0
18 41 -19 -24 -24 -5 -3 -5
22 34 -25 -29 -32 -13 -11 -11
6 13 -22 -26 -28 -9 -8 -7
-3 17 -13 -17 -23 -3 -3 -4
-6 16 -13 -19 -24 -6 -6 -6
-20 0 -13 -22 -26 -8 -7 -5
-2 12 -8 -19 -21 -1 -1 -2
18 37 -2 -15 -17 2 0 -2
15 34 -5 -15 -20 -2 -5 -5
7 29 -3 -14 -20 -3 -4 -4
-1 29 -1 -14 -19 0 -2 -5
-5 23 -7 -20 -26 -9 -11 -12
-19 -4 -10 -27 -31 -14 -17 -18
-18 -6 -8 -25 -32 -15 -18 -20
-6 3 -9 -26 -33 -17 -23 -24
-14 -8 -6 -23 -31 -17 -23 -23
-14 -4 3 -17 -24 -10 -16 -18
-6 21 5 -14 -20 -9 -15 -18
-3 21 5 -16 -20 -9 -15 -18
2 13 2 -20 -25 -13 -17 -21
4 21 1 -22 -26 -15 -19 -23
-5 17 0 -26 -29 -18 -21 -23
-5 5 5 -23 -26 -12 -15 -18
-10 7 8 -17 -21 -10 -13 -17
-13 5 9 -14 -22 -11 -16 -20
-15 -6 14 -10 -21 -11 -18 -20
-19 -10 18 -6 -16 -8 -16 -23
-7 10 18 -7 -16 -12 -23 -31
-3 17 27 5 -7 -5 -20 -28
-9 20 42 29 12 8 -11 -23
-9 31 59 53 32 23 -1 -20
2 37 69 74 54 42 11 -10
5 27 75 92 76 67 34 8
14 39 81 109 100 96 61 28
29 50 79 121 121 122 88 49
31 46 82 142 150 159 124 79
38 48 87 172 191 208 174 117
68 81 88 206 232 258 224 155
93 96 85 230 272 312 280 202
101 94 74 233 290 347 325 240
115 106 43 205 286 364 359 276
141 119 -4 141 254 361 381 310
167 119 -50 61 213 351 398 340
192 140 -79 1 177 334 399 353
211 169 -103 -54 132 290 370 349
206 169 -132 -125 64 215 313 325
174 148 -164 -209 -30 111 224 267
130 141 -180 -281 -113 11 131 206
112 133 -187 -343 -183 -70 58 161
95 125 -194 -399 -241 -133 -3 117
76 110 -208 -437 -282 -180 -54 69
63 85 -225 -453 -309 -213 -98 26
41 40 -237 -460 -328 -239 -136 -16
19 27 -235 -452 -328 -251 -163 -52
2 30 -228 -430 -317 -245 -168 -66
-9 13 -223 -414 -309 -242 -173 -76
-2 11 -213 -392 -298 -235 -169 -82
6 42 -194 -354 -276 -219 -159 -79
-6 40 -169 -316 -251 -203 -149 -75
-10 25 -152 -282 -229 -186 -137 -74
6 34 -134 -243 -207 -170 -124 -69
8 31 -115 -207 -183 -156 -115 -64
5 12 -85 -161 -149 -129 -93 -53
4 11 -57 -119 -116 -100 -74 -45
7 14 -36 -85 -85 -76 -58 -39
-5 0 -18 -57 -59 -53 -42 -29
-22 -10 -9 -37 -44 -39 -29 -26
-27 -1 -4 -30 -36 -35 -29 -28
-30 -4 3 -20 -29 -32 -28 -26
-30 -12 8 -18 -28 -31 -28 -29
-17 -1 8 -18 -29 -32 -29 -32
-7 6 8 -19 -29 -33 -31 -31
-17 -11 12 -16 -25 -29 -27 -29
-28 -17 13 -12 -23 -25 -26 -30
-19 -3 17 -5 -16 -20 -24 -27
-5 6 25 5 -6 -11 -15 -17
-9 1 24 7 -4 -10 -12 -19
-20 1 16 -1 -10 -17 -21 -27
-19 3 15 1 -12 -18 -20 -26
-6 7 17 0 -11 -14 -17 -22
3 16 19 2 -10 -14 -17 -22
-27 3 23 9 -8 -14 -18 -20
-33 -15 27 14 -5 -10 -13 -17
-39 -20 25 12 -6 -10 -15 -21
-47 -22 22 8 -7 -13 -19 -24
-32 -25 18 4 -8 -13 -19 -23
-5 -12 20 9 -2 -7 -14 -21
5 15 22 15 3 -3 -12 -18
7 18 26 18 5 -2 -10 -14
3 17 30 24 9 3 -5 -8
-11 19 34 27 11 3 -3 -9
-15 7 29 24 7 -5 -11 -14
-11 -13 25 20 2 -9 -16 -19
-18 -19 23 22 4 -8 -15 -21
-39 -18 29 27 10 -4 -12 -16
-53 -27 33 26 12 1 -8 -11
-37 -23 28 21 11 3 -5 -13
-20 -5 23 20 8 -1 -9 -15
-9 -3 21 19 5 -4 -12 -16
-5 1 25 24 9 1 -6 -11
-12 9 27 27 11 2 -5 -11
-16 4 25 27 8 -3 -13 -14
-15 -20 23 30 6 -5 -14 -17
-14 -24 19 27 3 -9 -18 -24
-10 -19 20 26 4 -9 -19 -24
-9 -13 30 36 15 3 -9 -12
-18 -6 38 44 23 11 2 -6
-21 2 35 40 21 7 -2 -8
-14 -3 30 35 14 2 -7 -10
-13 -6 31 36 14 4 -5 -7
-16 -1 28 34 13 2 -6 -10
-19 -10 20 29 6 -4 -14 -14
-10 -20 23 35 9 -1 -10 -12
1 -8 30 41 15 6 -5 -8
-7 -8 31 44 18 6 -5 -8
-22 -20 34 49 21 9 -3 -5
-19 -23 32 48 20 9 -3 -9
-2 -3 26 44 16 3 -9 -12
1 1 27 43 17 4 -6 -7
-12 -8 29 42 19 8 -1 -3
-11 6 31 48 23 11 2 -2
-25 -4 29 52 20 8 -2 -3
-21 -18 31 53 20 9 0 -3
-13 -18 27 52 18 7 -5 -9
-3 -12 24 52 19 5 -6 -12
-11 -17 29 57 25 13 1 -4
-9 -14 32 61 30 17 5 -3
9 0 24 53 23 9 -5 -11
14 3 21 50 23 8 -5 -9
6 0 26 56 28 14 2 -1
-13 6 32 70 36 20 10 5
-2 13 34 72 35 19 8 6
-11 -7 36 71 37 20 10 7
-17 -15 35 72 35 21 8 3
-23 -23 30 68 32 16 1 -3
-32 -35 29 67 33 16 2 -2
-18 -28 31 71 37 20 8 -1
4 2 29 69 38 21 7 -1
15 12 30 69 40 22 9 2
13 9 31 71 42 24 13 5
12 15 28 71 42 22 11 2
10 10 28 72 41 18 5 0
4 -8 32 79 43 20 8 4
8 -5 31 79 44 21 7 1
13 -3 29 79 43 18 2 -2
19 -11 28 77 41 16 1 -2
30 1 32 84 46 22 9 3
26 20 36 87 51 25 11 6
5 10 36 85 50 25 10 9
-13 -2 35 82 49 26 11 8
-6 4 28 74 43 20 6 3
-1 2 25 74 40 15 -1 1
4 -16 26 77 41 15 0 0
16 -13 23 73 39 10 -5 -5
19 -11 23 74 38 9 -8 -6
19 -21 24 74 37 9 -7 -4
18 -15 31 78 42 15 -1 1
20 -5 28 76 38 10 -6 -2
24 -13 25 71 34 6 -9 -2
4 -24 29 74 37 11 -3 4
-3 -19 29 71 36 9 -3 3
-7 -32 21 64 28 1 -13 -3
-7 -53 21 65 26 1 -13 -2
-9 -48 25 71 32 5 -9 0
-12 -39 30 74 36 8 -7 6
11 -32 34 75 38 11 -2 11
28 -21 34 71 35 11 0 11
20 -21 26 63 27 3 -9 4
22 -27 23 59 24 -1 -11 4
31 -29 22 53 21 -1 -12 4
32 -23 19 48 16 -7 -15 -1
26 -31 16 45 14 -9 -19 -2
10 -54 22 48 16 -5 -13 2
-11 -60 23 50 17 -2 -11 4
-6 -60 22 45 13 -6 -14 0
-3 -69 20 41 14 -5 -13 3
-7 -62 21 43 18 1 -5 8
2 -35 23 44 22 5 -2 12
9 -34 22 42 20 2 -2 12
13 -46 17 39 14 -1 -5 8
25 -38 14 35 11 -6 -9 2
44 -23 19 37 15 -3 -7 7
23 -40 32 44 24 9 5 17
10 -43 29 44 26 10 7 16
17 -42 26 40 25 9 4 14
8 -58 24 38 23 8 4 15
4 -59 22 34 23 10 7 14
7 -45 16 28 18 5 1 8
2 -52 13 24 16 2 0 8
14 -48 19 28 17 6 4 11
11 -37 22 30 21 7 7 11
-7 -51 17 24 15 2 0 7
-1 -68 16 23 14 2 1 6
0 -59 21 26 17 6 4 9
-7 -61 20 23 18 6 3 7
-9 -69 19 20 17 7 3 8
4 -57 22 24 24 12 10 11
25 -33 21 22 21 9 6 9
28 -32 20 22 20 7 6 10
19 -41 19 20 17 7 6 10
19 -36 19 20 16 6 5 8
3 -53 13 17 9 -2 -4 3
1 -67 16 17 11 1 0 6
14 -46 26 26 20 11 10 12
19 -33 29 32 24 14 12 16
17 -48 27 27 23 14 13 16
11 -55 23 20 18 10 10 11
7 -41 15 13 14 5 5 7
1 -49 15 15 14 5 3 8
-7 -58 16 18 12 3 3 5
-5 -53 15 16 8 -2 -1 1
-6 -57 12 12 6 -5 -5 -1
-23 -82 12 12 6 -4 -3 1
-13 -72 11 13 8 -2 -1 1
8 -53 11 15 8 -3 -2 0
20 -54 13 18 12 1 1 5
26 -42 19 22 17 6 9 7
14 -37 12 15 12 0 0 1
1 -43 12 18 12 -1 0 3
9 -40 13 20 10 -1 1 3
21 -20 15 21 12 -1 3 1
29 -13 18 24 15 2 3 4
23 -31 20 24 17 4 5 4
20 -36 19 22 15 2 3 0
18 -35 15 18 11 -1 -1 -4
5 -47 15 18 14 1 0 0
1 -49 14 19 13 2 4 -2
7 -34 9 14 9 -2 -3 -6
5 -35 9 14 11 -1 -1 -2
10 -36 10 16 11 0 1 -1
15 -30 6 13 6 -5 -5 -7
27 -29 2 11 3 -10 -11 -11
26 -37 10 17 9 -3 -3 -5
12 -30 18 22 14 3 3 -1
14 -27 18 23 17 3 -1 -3
14 -35 19 25 20 4 1 0
17 -34 18 26 21 6 3 -1
20 -18 12 22 17 3 -2 -3
12 -26 10 18 15 0 -3 -4
13 -33 6 15 11 -2 -5 -5
12 -23 7 18 15 -1 -4 -6
8 -31 6 18 13 -2 -8 -5
9 -42 10 22 15 0 -3 -4
13 -36 11 23 16 2 -3 -5
16 -32 10 21 16 0 -5 -8
23 -38 11 21 17 2 -4 -5
23 -36 13 23 20 4 -1 -6
28 -23 8 21 18 0 -6 -8
25 -22 12 24 20 2 -3 -3
15 -23 17 28 23 7 4 3
8 -22 13 24 20 3 1 -3
-8 -40 7 17 12 -5 -8 -8
-16 -61 6 17 10 -5 -8 -10
-12 -56 8 18 13 -2 -6 -9
-14 -53 7 17 13 -3 -8 -8
-10 -58 8 18 12 -2 -6 -7
20 -31 16 25 19 6 2 -2
41 -6 13 26 19 4 0 -3
43 -8 12 23 15 1 -3 -4
37 -20 7 16 8 -4 -6 -7
38 -14 2 11 4 -8 -11 -13
26 -20 2 14 5 -7 -10 -11
6 -47 5 17 7 -5 -6 -9
-3 -43 6 19 9 -2 -5 -8
-6 -41 8 23 12 0 -2 -5
-3 -51 5 20 9 -2 -3 -5
4 -43 7 21 10 1 1 -4
19 -28 5 12 5 -4 -5 -8
27 -27 2 11 4 -5 -5 -7
21 -32 1 12 3 -3 -4 -5
19 -22 1 14 3 -4 -4 -7
13 -28 1 13 1 -6 -8 -9
15 -39 4 15 3 -2 -2 -5
22 -31 3 14 4 -2 -1 -6
27 -27 1 14 4 -4 -4 -8
0 -48 4 13 5 -3 -3 -4
-18 -57 3 13 4 -4 -2 -8
-12 -48 -6 4 -4 -12 -11 -14
-9 -55 -13 -2 -9 -16 -15 -17
7 -44 -8 3 -7 -10 -10 -13
35 -13 -4 5 -2 -7 -5 -11
34 -13 -2 7 -4 -9 -8 -8
18 -39 0 9 -3 -8 -7 -7
18 -45 -3 4 -7 -11 -10 -12
13 -50 -8 -2 -11 -16 -16 -17
-5 -63 -5 0 -8 -13 -12 -13
-11 -59 0 6 -3 -6 -5 -9
-6 -38 0 6 -2 -6 -7 -10
-5 -36 1 5 -3 -6 -6 -7
-5 -41 2 5 -3 -4 -5 -6
3 -31 -3 2 -5 -7 -8 -10
13 -28 -4 0 -8 -10 -11 -11
20 -26 4 12 0 -1 -1 -2
9 -36 0 10 -3 -5 -5 -7
9 -50 -11 1 -11 -16 -15 -18
19 -55 -11 -2 -13 -17 -16 -18
9 -50 -8 1 -9 -10 -8 -14
-17 -49 -11 0 -7 -10 -9 -13
-13 -47 -10 0 -7 -7 -6 -9
-2 -47 -13 -2 -10 -8 -6 -10
0 -40 -16 -5 -12 -10 -9 -14
-3 -47 -19 -5 -14 -14 -14 -15
2 -54 -16 -2 -12 -12 -10 -14
9 -40 -13 0 -7 -8 -6 -13
-5 -35 -10 7 -1 -2 -2 -9
-11 -47 -6 10 1 0 0 -6
-5 -43 -6 11 0 2 3 -6
-4 -35 -12 3 -6 -6 -6 -11
0 -55 -24 -12 -19 -19 -19 -24
-2 -64 -28 -15 -24 -23 -22 -27
-7 -46 -23 -6 -17 -18 -16 -21
-7 -32 -10 6 -5 -6 -6 -8
7 -33 -8 4 -5 -3 -2 -8
14 -25 -9 2 -5 -2 -1 -9
12 -20 -10 5 -3 0 -1 -7
7 -37 -13 5 -3 1 1 -5
3 -40 -16 3 -7 -2 -1 -10
-2 -30 -17 0 -9 -7 -7 -14
-5 -35 -17 1 -12 -8 -8 -13
4 -30 -12 5 -9 -3 -3 -10
-2 -18 -9 8 -6 -1 -1 -9
-11 -29 -8 9 -5 -3 -2 -9
-9 -37 -1 15 0 4 5 -3
-6 -31 2 19 2 7 7 -2
0 -21 4 21 6 9 8 0
-3 -23 8 25 11 15 15 6
4 -14 10 24 13 17 18 6
13 4 7 21 13 15 15 6
8 2 6 22 13 16 15 7
-10 -10 5 23 12 18 17 7
-19 -7 5 20 11 15 15 3
-17 -6 6 22 10 13 12 4
-17 -23 7 22 11 14 13 4
-6 -26 -1 14 4 7 4 -5
-9 -28 -3 12 2 2 0 -8
1 -22 2 20 7 9 7 -2
6 -6 9 26 14 17 15 3
0 2 4 20 11 13 10 0
4 -2 0 18 8 11 7 -1
11 3 -1 19 10 14 11 2
17 20 1 22 15 17 14 5
13 17 4 26 16 17 13 7
2 -4 5 28 19 19 16 10
0 -1 6 32 24 22 18 10
11 3 4 29 24 19 14 7
15 -8 2 25 22 16 11 5
8 -11 -1 22 20 14 12 2
-11 -6 -7 16 18 11 8 -1
-21 -5 -4 19 27 18 14 6
-12 -2 -6 15 24 16 16 5
3 11 -11 6 17 9 9 -2
5 14 -13 6 18 9 10 2
-2 -2 -12 9 20 13 14 3
-7 -5 -16 6 16 11 11 -1
3 2 -16 7 18 10 11 0
12 3 -15 7 20 14 14 4
14 8 -16 5 20 14 15 2
12 10 -26 -4 13 4 4 -6
5 0 -28 -7 8 -1 0 -7
6 1 -26 -6 10 1 4 -5
8 15 -27 -7 9 1 5 -4
13 11 -31 -12 5 -4 2 -4
18 -9 -35 -20 -3 -9 -3 -12
19 -6 -35 -17 -3 -10 -5 -14
6 -1 -27 -7 7 -3 2 -6
-2 -7 -21 0 14 5 11 2
-2 1 -17 2 17 10 17 5
3 7 -22 -7 11 5 11 -1
7 -3 -28 -14 2 -1 5 -5
0 -13 -32 -13 -1 -3 5 -7
-1 -9 -31 -12 -2 -5 2 -11
-4 -18 -31 -13 -5 -9 -2 -12
1 -23 -25 -9 -3 -5 3 -8
16 -10 -25 -9 -3 -4 4 -9
28 1 -23 -8 0 -2 5 -6
13 -14 -20 -4 3 1 9 -2
-2 -21 -18 -2 5 3 11 -3
-7 -15 -20 -6 3 -2 4 -7
2 -18 -23 -8 -1 -5 1 -9
-1 -24 -23 -8 -2 -5 0 -12
0 -14 -23 -10 -3 -9 -5 -17
2 -17 -22 -11 -6 -12 -9 -18
8 -26 -16 -7 -4 -9 -5 -15
8 -26 -16 -8 -5 -9 -7 -19
7 -24 -22 -10 -6 -12 -10 -22
-2 -36 -19 -5 -3 -10 -8 -20
-5 -33 -19 -8 -4 -11 -10 -24
-5 -32 -30 -22 -15 -24 -22 -34
-1 -30 -29 -21 -15 -22 -21 -31
1 -17 -20 -12 -3 -10 -10 -23
-2 -7 -19 -7 3 -8 -9 -22
-10 -19 -17 -4 2 -11 -13 -23
-13 -26 -9 5 7 -6 -8 -19
-12 -23 -7 7 8 -6 -9 -22
-16 -24 -7 9 11 -6 -10 -23
-31 -38 -2 16 17 -2 -7 -22
-24 -21 12 32 30 10 2 -18
-12 -8 18 46 39 13 -1 -24
-12 -14 26 62 55 27 6 -21
-6 -15 33 83 74 45 20 -13
6 8 39 104 100 72 44 5
12 14 44 119 123 103 74 32
16 11 49 140 153 142 113 64
31 27 52 163 185 182 155 95
50 37 54 194 223 229 201 132
65 32 54 226 262 281 255 175
87 49 50 244 294 328 308 218
130 77 26 230 298 348 341 251
164 94 -8 186 286 362 375 294
183 104 -52 115 252 358 399 328
190 115 -96 37 206 337 401 343
199 117 -129 -28 156 296 378 344
206 130 -150 -87 103 245 341 336
170 125 -178 -164 23 156 271 296
135 109 -202 -244 -66 54 178 237
123 90 -216 -315 -143 -37 93 180
105 89 -222 -365 -201 -104 28 131
86 94 -229 -410 -251 -163 -33 83
75 78 -237 -431 -277 -194 -74 45
64 56 -247 -439 -298 -219 -110 2
47 48 -254 -438 -310 -242 -148 -43
12 29 -247 -422 -301 -243 -163 -63
1 17 -238 -406 -290 -234 -160 -71
-5 8 -236 -394 -288 -234 -165 -85
-7 -4 -234 -380 -285 -234 -169 -95
-16 -22 -218 -349 -267 -222 -163 -96
-27 -33 -204 -314 -252 -211 -158 -103
-13 -22 -192 -278 -230 -200 -152 -100
2 -15 -164 -232 -202 -178 -136 -89
-15 -20 -133 -187 -168 -152 -115 -79
-17 -5 -101 -137 -130 -122 -94 -70
-13 -10 -74 -97 -99 -97 -79 -59
-4 -22 -53 -64 -72 -72 -60 -51
-8 -22 -38 -45 -52 -52 -44 -45
-6 -17 -29 -34 -36 -39 -33 -38
7 -15 -19 -24 -24 -26 -24 -28
7 -9 -15 -16 -20 -22 -19 -29
-1 -9 -20 -19 -26 -31 -29 -38
-4 -17 -19 -15 -26 -33 -33 -39
-9 -19 -15 -11 -21 -30 -29 -38
-1 -5 -15 -7 -17 -27 -29 -39
7 -2 -8 3 -11 -23 -24 -33
4 -13 -1 14 -5 -16 -18 -29
1 -14 0 12 -4 -15 -17 -32
1 -15 1 9 -3 -15 -18 -29
6 -30 -5 0 -10 -19 -20 -32
18 -17 -7 1 -10 -16 -19 -33
9 -5 -9 5 -7 -16 -20 -32
-17 -17 -4 11 -3 -14 -19 -28
-33 -26 1 14 -2 -13 -16 -28
-22 -13 -3 11 -4 -14 -19 -32
-12 -14 -3 12 -5 -15 -20 -30
-2 -12 7 17 3 -5 -11 -25
2 -1 7 22 5 -3 -7 -24
2 1 7 20 5 -3 -9 -21
4 -8 8 20 7 -1 -6 -18
-6 -10 7 22 8 0 -5 -20
-11 -6 1 22 6 -4 -12 -23
-2 -4 1 21 4 -7 -15 -23
11 2 3 24 4 -6 -14 -24
11 10 2 25 4 -7 -16 -28
-4 -10 -1 19 2 -10 -21 -31
-5 -23 2 21 4 -8 -18 -31
-10 -22 2 25 6 -6 -17 -31
-21 -33 -3 22 2 -12 -23 -34
-18 -39 -1 22 3 -10 -20 -32
0 -14 6 28 8 -5 -14 -28
13 11 10 31 11 -5 -14 -24
6 11 14 31 15 -1 -10 -19
2 3 12 32 13 -2 -12 -21
6 7 5 29 9 -7 -18 -27
-6 -7 1 25 6 -10 -21 -28
-9 -16 5 29 11 -3 -13 -24
-3 -15 2 28 9 -5 -14 -27
-3 -13 0 27 10 -8 -16 -26
-1 -8 10 38 20 4 -3 -13
1 4 14 42 23 7 1 -12
1 4 6 34 14 -3 -10 -20
0 -6 4 32 11 -8 -16 -23
-6 -3 9 40 17 0 -8 -18
-4 7 11 43 20 0 -10 -19
0 1 9 40 17 -5 -14 -22
0 -10 11 42 21 1 -10 -20
0 -4 10 42 21 2 -8 -22
-6 1 12 45 26 6 -6 -17
-3 -2 15 50 30 10 1 -10
20 15 16 52 30 12 3 -11
33 27 12 45 24 3 -4 -16
40 27 12 45 23 2 -6 -15
35 27 14 51 28 7 1 -11
27 33 17 55 32 9 1 -11
24 28 21 60 36 12 4 -6
18 13 25 63 42 20 11 -1
12 8 23 61 42 21 12 -2
4 -1 18 59 37 17 8 -5
2 -21 13 56 33 13 4 -6
-2 -22 11 56 34 14 4 -10
-9 -17 12 57 32 11 2 -9
-4 -13 18 62 38 16 7 -4
14 4 27 72 47 22 15 3
39 33 30 79 52 24 17 5
38 22 30 80 53 23 15 7
32 3 29 78 51 25 16 4
29 -4 22 73 46 20 11 -5
31 -6 17 70 42 15 6 -8
27 -13 19 73 45 19 11 -3
25 0 24 78 49 24 16 -1
36 26 25 79 50 24 16 3
37 25 30 83 56 30 21 11
32 17 33 89 60 32 24 11
19 12 29 89 57 28 17 6
15 -3 27 84 50 21 9 3
24 -6 31 87 52 25 13 2
36 6 30 86 53 25 13 1
25 5 30 86 52 25 14 3
8 -13 30 87 53 27 16 6
16 0 32 93 54 29 18 5
23 8 28 90 46 18 8 -1
28 8 31 89 46 17 6 0
27 7 33 91 49 19 9 1
30 8 26 87 41 13 3 -6
30 -3 22 82 35 7 -1 -6
14 -16 28 83 38 13 6 -1
7 -3 33 89 44 19 13 5
23 12 34 88 46 20 14 9
25 -4 28 80 38 15 9 4
22 0 27 77 37 14 7 0
19 10 23 73 31 5 -1 -3
22 7 21 71 26 2 -3 -3
26 7 21 70 23 0 -4 -5
21 7 15 62 17 -8 -11 -11
11 -12 14 60 16 -11 -16 -12
9 -17 21 66 20 -6 -10 -8
17 -2 23 67 22 -3 -7 -5
22 1 21 63 20 -3 -7 -4
19 -8 22 59 17 -4 -5 0
21 -1 19 55 14 -6 -7 -3
24 10 12 47 8 -15 -16 -8
33 10 14 48 7 -16 -17 -7
36 7 15 47 6 -17 -18 -9
33 17 15 48 7 -16 -17 -8
8 0 17 48 9 -15 -14 -2
0 -11 22 49 11 -8 -5 4
10 -4 21 47 9 -7 -4 4
21 6 21 47 10 -5 -2 7
28 0 20 41 9 -3 1 9
33 6 18 37 9 -2 1 7
31 9 13 31 2 -10 -7 1
17 -3 12 29 -2 -13 -9 0
7 -13 11 25 -4 -15 -12 -3
-2 -8 11 25 -3 -17 -15 -6
1 -7 19 29 1 -12 -12 0
20 -5 26 35 5 -6 -5 3
28 -4 20 30 1 -9 -10 -3
18 -6 21 27 3 -8 -10 -3
37 2 30 31 9 -1 -3 6
49 22 39 36 14 5 6 10
28 17 34 28 7 0 -1 6
13 4 31 25 6 -1 -4 5
16 0 30 25 9 -1 -3 3
17 7 29 22 7 -3 -4 1
18 -4 24 16 1 -9 -10 0
13 -7 34 25 9 2 1 8
1 0 40 31 16 9 7 13
-3 -5 35 27 14 8 5 12
-4 -27 30 20 8 2 1 8
5 -19 30 19 5 2 0 4
10 -9 23 19 1 -3 -5 2
-1 -22 19 14 -2 -7 -9 1
-5 -25 20 11 -5 -8 -10 -1
-4 -15 21 10 -6 -9 -11 -3
1 -15 27 13 -3 -6 -9 3
11 -12 37 21 5 3 0 9
17 2 41 26 10 7 3 11
16 0 39 23 9 4 0 8
8 -21 34 15 2 1 -4 6
16 -6 35 15 2 2 -3 3
38 24 39 20 5 3 -5 5
24 17 42 27 8 3 -4 8
10 0 38 23 4 -1 -9 0
9 -5 30 15 -6 -11 -20 -11
2 -23 26 11 -8 -12 -24 -11
4 -29 32 14 -3 -5 -17 -6
-1 -16 37 21 4 4 -9 3
-7 -14 38 22 9 7 -4 8
-9 -29 34 19 6 6 -4 8
8 -15 35 20 3 5 -7 5
25 7 35 26 1 0 -12 4
32 6 37 29 2 -1 -12 3
21 -3 39 28 2 -2 -14 0
14 3 42 29 2 -3 -17 -2
5 -6 45 31 6 2 -11 5
-2 -16 47 34 12 11 -4 10
-12 -23 41 30 7 8 -8 3
-11 -25 38 26 3 2 -14 -1
-1 -28 40 27 4 5 -10 3
17 -10 41 30 6 9 -8 3
30 1 33 24 0 2 -15 -4
15 -9 34 24 -1 2 -15 -3
-4 -15 42 28 2 5 -11 0
-8 -11 39 27 -2 0 -15 -5
-2 -13 41 31 0 2 -14 -1
2 -12 48 39 8 10 -5 5
7 -3 50 40 11 13 -3 6
14 -5 44 35 6 8 -7 2
17 -19 40 34 3 7 -8 0
25 6 48 43 12 16 1 6
18 13 49 45 10 12 -4 5
13 0 45 38 6 9 -7 3
7 -5 45 36 3 10 -7 1
4 -2 42 33 0 4 -13 -5
7 -15 41 31 -2 2 -15 -5
-7 -27 49 38 6 11 -5 1
-14 -18 52 43 11 17 2 6
-7 -7 55 46 15 21 4 10
-4 -17 54 46 15 22 7 13
12 -5 50 43 9 17 3 7
12 7 50 44 7 13 -1 7
6 -4 49 45 8 11 -3 7
17 -7 46 42 2 5 -7 1
28 9 45 38 3 3 -8 -1
31 11 51 43 12 10 0 8
34 5 55 48 16 15 7 10
26 2 53 48 16 15 10 6
20 3 52 47 16 16 12 10
11 -9 51 47 17 19 16 12
7 -6 47 44 15 19 16 8
8 2 42 36 13 13 10 6
5 -7 37 32 10 9 5 3
2 -10 40 34 9 8 4 0
-3 5 45 40 12 10 6 2
-7 -9 45 41 13 9 4 3
-3 -16 47 46 16 13 9 5
-1 -17 44 44 12 9 4 0
13 -12 39 35 8 4 0 -2
27 -5 47 39 13 10 8 6
11 6 53 47 19 17 14 9
-1 7 53 46 20 14 11 9
14 14 55 47 22 15 11 12
20 20 58 50 26 19 16 14
14 23 56 51 22 15 10 8
7 -4 48 41 10 1 -3 -3
11 -15 44 34 7 1 -5 -7
16 -8 45 28 7 1 -3 -7
20 -3 44 29 9 4 -2 -4
17 -7 50 37 15 12 8 6
14 8 53 42 19 17 13 10
8 9 45 37 13 10 6 7
0 -8 42 34 8 7 3 5
-1 -13 42 32 7 7 1 4
13 2 40 30 5 2 -3 1
8 -3 41 32 5 1 -2 4
8 -2 51 42 14 11 8 12
23 12 53 43 15 11 8 11
17 4 49 39 11 7 2 8
5 -18 48 36 8 5 1 7
10 -9 46 31 5 3 -2 2
15 2 42 25 1 -3 -9 -3
12 3 47 31 8 3 -3 4
9 6 54 39 15 10 5 9
17 22 51 38 14 9 2 7
20 5 43 31 6 0 -6 2
11 -17 40 31 3 0 -7 -2
-1 -19 36 29 0 -2 -9 -6
-3 -19 31 24 -1 -4 -12 -8
-8 -34 28 19 -5 -7 -13 -10
-3 -15 32 22 -1 -4 -10 -10
23 12 34 27 2 -3 -9 -7
30 20 39 34 6 1 -4 0
26 20 45 40 10 6 2 3
23 23 42 40 8 3 -2 0
29 11 37 33 1 -3 -8 -3
25 -3 37 33 2 0 -5 -2
15 -7 30 28 1 -1 -8 -5
16 -8 26 25 0 -1 -7 -3
6 -19 28 28 4 3 0 3
6 -5 28 33 6 7 2 2
-1 3 25 32 2 1 -3 0
3 3 26 31 1 1 -4 0
13 7 28 28 -1 1 -5 -2
12 15 26 29 -2 -2 -8 -5
-1 -5 25 30 -2 -4 -10 -5
3 -14 24 29 -1 -2 -6 -5
9 -6 21 27 -3 -2 -6 -5
0 -8 24 29 -1 0 -4 -2
-5 -22 24 27 -5 -1 -3 -2
5 -10 22 27 -5 -1 -5 -6
1 -5 19 27 -6 -5 -9 -8
6 -6 19 30 -7 -7 -9 -7
13 2 25 30 -2 -3 -6 -4
16 20 29 33 2 0 -3 -1
20 19 32 38 5 5 2 6
10 5 33 44 7 10 8 7
3 5 36 43 8 9 7 4
-10 -4 32 39 5 6 3 1
-16 -22 28 37 3 4 2 0
-7 -13 23 33 0 0 -2 -6
-4 -4 19 29 -4 -7 -7 -9
8 1 22 31 -2 -5 -4 -6
22 17 29 39 7 5 6 2
29 36 31 42 10 8 7 4
26 24 31 42 9 7 6 6
22 16 33 43 13 11 10 7
13 15 33 42 12 8 8 4
-7 7 31 43 13 8 8 4
-9 -2 31 46 16 12 10 7
21 26 35 48 19 14 11 5
34 35 33 42 12 6 2 -1
24 30 33 44 15 8 4 2
13 24 33 45 16 10 6 4
7 24 28 42 14 7 3 0
8 18 27 43 15 9 5 5
-7 -1 25 41 15 10 9 5
-12 -1 18 35 10 4 5 1
7 17 19 37 12 7 7 4
28 20 17 36 13 8 9 5
33 29 13 30 8 3 5 -1
25 32 10 25 2 -3 -1 -3
13 27 10 29 2 -2 1 0
18 33 12 32 5 2 3 2
18 36 8 27 2 -2 -1 -2
14 20 5 22 -1 -4 -2 -1
17 17 9 25 4 3 4 2
23 23 6 22 2 0 2 0
3 13 0 19 -2 -5 -2 -2
-11 -4 1 19 -3 -2 1 2
9 12 -1 17 -5 -4 -1 -1
23 23 -5 12 -11 -12 -9 -6
23 30 0 15 -8 -10 -7 -3
14 29 4 20 -4 -6 -2 -1
12 32 1 21 -7 -8 -4 -2
15 18 -2 17 -9 -10 -6 -1
17 8 -1 21 -6 -6 -3 1
29 17 1 24 -4 -3 0 3
29 19 3 26 -4 -4 -1 4
21 4 8 23 -4 -3 1 5
13 13 10 22 -4 -2 1 2
5 6 4 14 -13 -12 -8 -4
-5 -6 0 10 -15 -14 -11 -5
-18 -17 1 12 -14 -13 -8 -5
-8 -9 -4 9 -19 -18 -14 -10
11 -8 -1 9 -18 -16 -13 -8
26 5 8 17 -8 -8 -6 -3
24 18 15 24 -1 -2 0 1
12 14 17 24 -2 -3 -2 0
-7 -10 16 22 -8 -6 -4 -4
-5 -6 16 19 -12 -10 -9 -11
-10 -6 14 20 -14 -16 -16 -14
-12 -14 14 18 -15 -18 -17 -15
-11 -16 15 21 -16 -18 -17 -17
-2 -8 12 18 -18 -21 -21 -21
4 -15 11 19 -20 -22 -21 -20
-7 -20 18 24 -14 -14 -12 -13
-15 -12 21 24 -11 -9 -9 -11
-7 -11 19 19 -14 -12 -12 -12
-9 -29 14 13 -18 -16 -15 -15
-12 -20 12 13 -18 -15 -16 -20
-25 -13 16 18 -14 -14 -16 -18
-20 -16 18 18 -15 -17 -17 -19
-29 -13 27 25 -10 -10 -13 -17
-31 -3 32 31 -6 -8 -14 -18
-27 -17 35 36 -3 -10 -18 -21
-18 -21 43 49 6 -3 -16 -24
-8 -9 54 65 21 6 -13 -25
-16 -8 66 87 42 23 -2 -16
-31 -14 81 113 72 52 23 1
-11 3 79 125 89 72 39 9
0 10 69 129 102 88 54 21
14 18 75 153 133 126 92 51
45 41 85 178 170 174 138 88
62 67 89 209 213 225 188 127
66 55 90 244 259 283 247 177
85 65 92 268 301 339 309 227
107 84 76 264 312 370 351 266
118 90 35 222 301 387 386 308
128 90 -9 156 272 390 418 348
157 121 -54 79 226 374 426 367
171 138 -89 8 173 332 402 368
164 139 -118 -60 108 265 354 351
156 145 -147 -137 25 175 282 314
153 162 -167 -212 -64 72 194 262
127 136 -180 -284 -146 -25 107 208
98 108 -189 -341 -212 -100 35 156
67 91 -201 -389 -267 -164 -32 101
43 80 -205 -404 -287 -194 -73 65
33 50 -213 -412 -307 -218 -111 23
17 40 -220 -415 -322 -243 -150 -26
-2 26 -222 -408 -323 -254 -176 -59
-6 12 -220 -395 -317 -252 -184 -75
-11 5 -214 -377 -311 -248 -187 -88
-18 7 -208 -359 -304 -247 -189 -97
-19 -4 -191 -328 -284 -232 -181 -92
-14 -7 -165 -290 -258 -212 -165 -87
-17 -11 -147 -253 -236 -196 -154 -83
-17 -13 -128 -216 -209 -179 -142 -75
-5 -17 -102 -174 -180 -155 -124 -66
6 0 -75 -132 -150 -130 -108 -63
7 7 -52 -99 -119 -108 -95 -57
2 -4 -31 -65 -86 -81 -76 -47
5 0 -12 -36 -60 -57 -56 -37
5 8 -5 -23 -48 -47 -51 -34
-11 -15 -1 -18 -44 -43 -48 -31
-14 -22 7 -9 -37 -36 -41 -28
-19 -22 12 -5 -34 -35 -39 -28
-16 -22 11 -3 -34 -36 -41 -28
-16 -29 15 1 -30 -31 -38 -25
-13 -15 16 5 -29 -31 -38 -31
-11 -8 16 4 -29 -32 -41 -33
0 -4 19 8 -24 -27 -37 -29
4 -1 22 12 -20 -22 -33 -27
-14 -5 17 8 -22 -25 -37 -32
-27 -28 17 7 -22 -26 -36 -27
-26 -28 23 15 -17 -20 -28 -22
-22 -16 25 20 -17 -18 -29 -21
-24 -19 24 15 -18 -21 -31 -20
-21 -33 21 15 -18 -21 -32 -24
-13 -15 23 19 -15 -19 -31 -27
-15 -8 26 21 -14 -21 -34 -26
-5 -12 27 20 -13 -20 -33 -27
-8 -11 27 27 -10 -16 -30 -28
-16 2 30 31 -5 -13 -25 -21
-22 -14 29 25 -6 -14 -26 -18
-15 -24 28 22 -7 -13 -24 -19
-4 -14 26 18 -11 -16 -28 -22
1 -13 25 14 -13 -18 -31 -21
-11 -26 28 19 -8 -14 -25 -19
-17 -17 27 22 -5 -10 -25 -22
-29 -18 24 20 -4 -11 -28 -24
-26 -18 29 23 2 -6 -23 -19
-16 -7 33 30 7 -2 -18 -16
-4 7 28 26 4 -7 -25 -21
-1 -8 26 21 -1 -10 -28 -19
1 -17 26 22 -1 -8 -27 -20
2 -8 28 27 1 -7 -26 -20
1 -1 32 28 5 -5 -25 -15
-12 -18 36 31 7 -2 -20 -12
-15 -12 36 29 7 -2 -21 -17
-13 -8 32 27 5 -6 -25 -21
-19 -19 28 26 5 -6 -25 -20
-16 -13 29 26 7 -4 -21 -18
-3 10 31 27 11 0 -18 -14
-12 -1 35 29 15 5 -12 -5
-2 -5 37 32 17 8 -9 -4
-6 -10 32 31 13 4 -14 -8
-12 -16 29 26 9 -2 -21 -11
-5 -26 30 27 10 -3 -21 -12
-4 -9 34 30 14 1 -19 -14
-17 3 38 35 19 5 -16 -10
-11 1 38 38 22 9 -12 -8
-8 -4 34 36 21 7 -14 -11
-14 0 31 35 19 4 -18 -15
-17 -14 32 32 17 1 -18 -11
-6 -18 31 31 15 2 -18 -12
-7 -12 30 31 14 2 -18 -11
-13 -19 28 29 12 -1 -22 -13
-7 -24 32 32 15 2 -18 -11
8 0 36 33 18 6 -16 -12
7 4 31 34 20 4 -19 -13
-9 -8 32 39 26 8 -16 -11
-11 -11 34 37 25 9 -15 -13
-1 -1 28 33 21 5 -19 -17
17 0 26 30 21 4 -18 -12
30 10 34 38 29 14 -8 -4
13 12 37 47 35 19 -4 1
7 10 39 46 34 15 -8 0
10 4 42 51 35 17 -7 0
13 9 39 51 34 14 -10 -6
-1 0 33 46 31 9 -16 -10
-2 -5 33 49 35 13 -13 -8
-2 2 36 54 40 18 -7 -6
-7 9 34 51 40 18 -8 -5
-3 5 37 51 44 24 -1 5
6 4 39 53 45 28 4 10
10 5 33 47 41 22 -2 3
7 0 32 44 39 19 -6 4
6 -6 37 50 45 24 0 9
15 12 39 55 45 25 -1 4
14 11 35 53 42 18 -8 -2
6 4 35 55 43 20 -8 -1
5 9 42 62 49 26 -1 3
5 19 39 62 47 24 -4 1
6 6 40 57 45 21 -5 3
10 3 40 56 44 23 -2 5
4 1 38 51 40 18 -6 1
2 -3 31 45 35 13 -13 0
11 -11 29 44 32 11 -14 -4
11 0 27 41 30 9 -16 -9
14 3 24 38 28 4 -22 -12
7 0 26 40 29 7 -20 -10
13 7 28 44 32 10 -15 -8
25 19 23 38 25 3 -22 -12
21 0 19 32 19 -3 -25 -12
20 0 24 36 22 3 -18 -6
29 14 25 32 20 1 -20 -5
8 2 23 28 17 -2 -23 -6
-13 -10 27 32 19 3 -18 -1
-13 -5 22 24 13 -4 -25 -10
2 0 16 15 8 -12 -34 -16
6 -6 13 13 3 -15 -37 -18
6 -4 13 15 3 -13 -34 -17
13 13 13 15 4 -15 -34 -15
19 14 18 17 8 -9 -27 -4
21 13 23 17 7 -6 -22 0
18 14 20 9 3 -10 -25 -2
3 8 19 5 2 -11 -26 0
5 -1 20 7 1 -9 -24 1
13 10 16 5 -2 -12 -28 -7
5 4 9 -5 -7 -19 -35 -11
14 3 10 -6 -6 -18 -33 -10
23 16 14 -3 -2 -12 -27 -6
14 25 14 -3 1 -11 -25 -4
1 4 12 -10 -3 -11 -26 -1
-11 -13 10 -13 -4 -9 -24 -1
-10 -11 5 -17 -8 -12 -26 -3
-1 -16 0 -25 -14 -22 -35 -9
2 -26 0 -23 -14 -20 -32 -8
14 4 7 -18 -8 -14 -29 -6
10 19 15 -10 1 -6 -21 3
12 20 19 -9 5 -2 -16 8
13 22 17 -15 4 -1 -14 6
8 20 9 -21 -1 -5 -20 2
5 8 9 -24 1 -4 -17 6
10 6 9 -24 1 -1 -14 7
11 4 3 -28 -4 -8 -20 0
-7 -13 -2 -35 -10 -13 -26 -5
-25 -29 0 -32 -8 -11 -22 -3
-15 -5 5 -27 -3 -4 -19 -2
-7 8 4 -29 -4 -7 -23 -4
-23 -4 7 -25 -1 -4 -20 -1
-17 0 10 -25 1 -1 -16 0
5 20 6 -27 -1 -4 -18 -1
5 9 6 -30 -1 -3 -17 5
-4 6 12 -30 1 3 -11 8
-5 9 10 -32 -1 -1 -15 5
0 4 3 -38 -6 -8 -22 1
1 -2 7 -37 -2 -5 -19 2
4 8 3 -42 -5 -8 -22 -6
0 0 -7 -54 -16 -19 -34 -12
7 0 -7 -51 -14 -16 -31 -11
10 7 -3 -49 -10 -10 -24 -8
-7 2 -8 -52 -14 -13 -27 -10
-25 -21 -8 -54 -15 -13 -28 -7
-29 -25 -3 -50 -11 -8 -21 -4
-28 -22 -4 -53 -13 -10 -23 -5
-21 -16 0 -51 -11 -10 -24 -3
-6 -9 7 -45 -5 -2 -17 2
-7 5 10 -42 -3 -2 -18 -2
-9 9 9 -44 -4 -7 -23 -3
-9 1 9 -43 -6 -8 -24 -5
-10 -2 9 -45 -7 -8 -25 -8
0 13 9 -49 -7 -10 -26 -7
4 5 14 -47 -4 -6 -21 0
-13 -6 16 -44 -2 -1 -16 2
-16 -10 10 -51 -8 -9 -24 -5
-19 -23 5 -58 -15 -16 -33 -10
-31 -40 4 -58 -16 -17 -33 -13
-26 -23 7 -57 -15 -16 -33 -16
-23 -16 9 -56 -12 -16 -34 -15
-26 -19 11 -57 -9 -12 -30 -12
-18 -3 17 -48 -1 -3 -22 -7
-14 15 19 -47 2 -1 -20 -2
-15 1 20 -49 3 0 -19 2
-15 -4 20 -47 2 2 -17 3
-15 -5 17 -49 -2 -3 -22 -2
-20 -16 16 -54 -6 -8 -27 -5
-32 -32 14 -55 -6 -8 -27 -7
-31 -19 10 -56 -8 -12 -32 -14
-9 -3 10 -58 -9 -15 -36 -16
7 11 19 -50 -1 -6 -28 -9
5 13 24 -44 4 -1 -22 -7
1 15 21 -46 3 -3 -24 -7
-3 -6 19 -52 1 -4 -26 -6
-1 -8 21 -51 1 0 -21 -4
-8 -6 17 -56 -2 -3 -23 -7
-19 -14 15 -56 -4 -5 -27 -7
-28 -25 20 -53 1 -1 -22 -4
-28 -3 24 -47 7 4 -19 -3
-17 4 21 -49 6 2 -22 -5
-16 -3 21 -49 7 3 -22 -6
-10 6 25 -46 9 5 -18 -4
0 23 24 -47 9 6 -19 -3
-11 0 23 -51 9 5 -18 1
-26 -14 21 -51 8 6 -16 0
-22 -9 18 -54 4 2 -18 -2
-10 -8 16 -59 1 -2 -23 -3
-10 -14 18 -54 4 0 -20 -2
-14 -8 14 -54 1 -4 -26 -11
-10 -6 11 -58 -3 -9 -31 -15
-14 -10 15 -57 0 -6 -28 -12
-12 0 18 -53 3 0 -22 -10
-12 14 20 -51 7 3 -19 -5
-15 -1 20 -52 8 5 -15 2
-20 -11 21 -54 7 5 -14 1
-30 -13 18 -60 2 2 -17 -2
-28 -20 12 -68 -5 -5 -24 -6
-23 -22 13 -64 -2 -1 -19 -4
-23 -4 17 -60 0 1 -19 -6
-26 -4 15 -61 0 -3 -23 -8
-32 -14 15 -59 0 -2 -23 -9
-27 -11 14 -59 1 -1 -22 -10
-11 2 13 -64 -4 -7 -27 -13
-10 -6 15 -65 -3 -5 -24 -6
-15 -10 18 -61 -1 0 -20 -3
-22 -8 16 -62 -2 -1 -22 -3
-14 -3 19 -59 -1 0 -20 1
-15 -11 19 -62 0 2 -18 1
-20 -1 18 -65 -2 1 -20 -3
-18 -2 14 -70 -6 -5 -27 -7
-14 -9 12 -74 -9 -8 -29 -9
-11 1 13 -73 -5 -2 -22 -7
-16 11 16 -68 -2 0 -20 -2
-22 -8 14 -68 -3 -2 -21 -1
-10 -7 13 -68 -5 -1 -20 -2
6 3 11 -73 -10 -6 -24 -7
4 -2 9 -79 -14 -11 -30 -8
4 -6 12 -77 -11 -7 -25 -6
-12 -4 7 -78 -14 -11 -30 -14
-26 -3 9 -75 -11 -10 -30 -12
-28 -9 9 -75 -11 -10 -29 -12
-26 -1 12 -68 -8 -6 -22 -12
-17 13 14 -70 -7 -6 -22 -10
-19 -5 14 -70 -7 -5 -20 -7
-22 -13 13 -72 -9 -5 -18 -7
-23 -8 12 -79 -11 -6 -20 -7
-25 -14 11 -82 -13 -9 -21 -5
-23 -25 6 -84 -16 -11 -20 -8
-27 -15 3 -84 -17 -12 -23 -13
-34 -17 3 -85 -17 -15 -26 -14
-32 -22 4 -83 -17 -16 -27 -15
-21 -12 7 -82 -15 -13 -26 -16
-7 4 6 -84 -17 -16 -29 -17
-9 -16 4 -91 -21 -19 -29 -15
-13 -23 3 -90 -21 -17 -27 -14
-13 -11 6 -88 -17 -13 -23 -9
-16 -6 11 -84 -13 -10 -20 -4
-20 -9 18 -79 -6 -3 -11 1
-25 5 20 -76 -4 -1 -10 -1
-34 -4 13 -81 -11 -10 -19 -7
-32 -15 10 -84 -14 -14 -22 -11
-23 -9 8 -86 -14 -14 -22 -14
-23 -6 4 -89 -16 -18 -26 -16
-21 -20 4 -91 -16 -19 -25 -13
-14 -17 8 -89 -13 -13 -20 -9
-16 -3 10 -87 -9 -11 -17 -5
-18 -9 11 -88 -11 -12 -19 -5
-12 -14 12 -86 -10 -11 -17 -4
-9 -3 9 -86 -12 -15 -22 -12
-3 6 8 -88 -12 -16 -25 -13
-4 7 13 -83 -7 -10 -20 -8
-8 8 11 -84 -7 -10 -20 -11
-19 2 6 -89 -12 -16 -26 -17
-34 -22 6 -89 -14 -17 -27 -14
-42 -29 7 -87 -13 -16 -25 -14
-51 -33 2 -93 -17 -19 -28 -17
-41 -28 3 -92 -17 -18 -27 -14
-33 -23 10 -85 -10 -11 -19 -9
-8 11 16 -81 -5 -7 -16 -8
15 28 16 -79 -5 -8 -17 -6
-1 12 17 -79 -4 -7 -15 -6
-11 7 15 -80 -6 -6 -16 -9
-7 16 11 -82 -8 -10 -20 -11
-5 1 10 -84 -11 -12 -21 -10
-8 -5 12 -77 -9 -9 -19 -10
-17 -6 9 -77 -11 -11 -21 -11
-22 -12 8 -55 -12 -12 -21 -10
-13 -13 12 -5 -8 -6 -15 -6
-9 3 7 31 -9 -8 -19 -11
-16 7 8 63 -7 -7 -17 -8
-2 17 15 82 -2 0 -9 -1
11 24 15 91 -1 1 -7 -2
5 23 10 94 -3 -1 -11 -5
-9 2 10 94 -5 -2 -12 -3
-21 0 13 95 0 4 -7 0
-16 12 14 95 1 4 -8 -1
-11 8 12 91 -3 0 -12 -3
-2 8 15 94 1 4 -7 0
7 28 15 95 2 2 -10 -5
0 18 6 86 -5 -6 -17 -10
1 10 4 79 -8 -8 -19 -12
1 14 4 77 -5 -3 -14 -10
-17 13 -1 70 -7 -5 -17 -11
-21 -2 -2 68 -7 -5 -14 -6
-14 -2 -4 62 -10 -5 -15 -8
-20 3 -3 59 -9 -6 -14 -7
-13 10 2 58 -6 -1 -9 0
1 17 5 60 0 7 -1 5
2 33 1 57 -1 4 -3 1
-4 31 -4 51 -5 -1 -9 -3
-8 23 -6 47 -6 -2 -11 -4
-17 18 -7 42 -8 -2 -11 -7
-26 16 -13 36 -13 -10 -17 -10
-18 -3 -18 24 -22 -16 -23 -13
2 8 -16 23 -20 -13 -18 -10
17 26 -13 23 -17 -10 -14 -4
20 27 -12 18 -17 -11 -14 -1
13 14 -14 13 -19 -12 -14 -3
14 22 -16 10 -21 -15 -18 -9
22 29 -15 7 -23 -16 -20 -9
9 14 -16 6 -24 -17 -20 -10
-8 8 -14 8 -21 -14 -18 -11
-13 13 -12 8 -20 -15 -20 -11
-10 4 -10 8 -17 -13 -17 -4
-3 5 -8 7 -17 -11 -13 -4
-16 -1 -12 0 -20 -14 -15 -6
-23 -13 -15 -5 -23 -17 -19 -7
-17 -16 -13 -7 -23 -16 -16 -8
0 9 -12 -6 -21 -14 -16 -9
6 12 -14 -9 -22 -16 -18 -9
15 14 -12 -8 -20 -14 -15 -8
15 18 -10 -8 -17 -12 -12 -10
11 18 -12 -13 -21 -17 -19 -15
10 -1 -12 -17 -24 -19 -20 -14
5 -6 -11 -16 -24 -18 -19 -15
-19 -3 0 -6 -15 -11 -13 -9
-37 -11 3 -3 -14 -12 -15 -9
-41 -24 3 -6 -15 -13 -15 -12
-33 -16 -4 -13 -22 -21 -24 -23
-23 -8 -5 -13 -21 -22 -24 -22
-15 -1 -1 -10 -16 -15 -18 -16
-1 6 -5 -14 -19 -18 -23 -24
-1 -3 -16 -24 -30 -31 -37 -36
-17 -21 -12 -21 -27 -28 -33 -30
-32 -21 -5 -12 -20 -21 -24 -24
-21 -5 -1 -9 -16 -17 -21 -21
-21 -13 -1 -15 -17 -19 -22 -21
-22 -21 0 -16 -19 -20 -22 -22
-12 2 4 -8 -14 -19 -24 -25
-15 3 9 -6 -11 -19 -25 -27
-11 0 13 -3 -7 -17 -25 -27
-18 2 21 5 0 -11 -22 -29
-28 3 29 19 11 -4 -20 -30
-36 -12 43 42 31 12 -7 -22
-36 -10 54 63 55 35 9 -13
-22 2 58 82 76 56 26 -2
-9 10 61 97 99 81 51 19
5 15 67 116 127 115 85 46
21 37 67 132 152 147 115 67
46 53 66 157 187 191 158 103
61 60 72 194 234 247 215 147
81 81 70 222 275 305 276 194
98 88 57 222 293 338 317 231
115 83 32 195 292 362 357 275
134 92 -12 136 267 368 388 312
152 105 -65 57 223 353 400 336
162 109 -95 -7 185 331 397 351
170 120 -120 -67 137 288 371 347
173 148 -156 -139 65 212 312 317
166 146 -188 -225 -27 108 223 268
139 135 -197 -294 -105 14 139 214
108 122 -207 -356 -178 -68 65 162
87 111 -223 -416 -246 -145 -10 109
64 76 -230 -448 -287 -192 -61 68
38 47 -241 -460 -306 -218 -96 29
18 23 -255 -465 -328 -248 -138 -18
7 14 -249 -456 -327 -259 -165 -49
7 14 -242 -438 -315 -252 -169 -64
5 20 -243 -427 -311 -252 -178 -84
2 18 -235 -407 -302 -251 -182 -93
5 19 -212 -369 -277 -232 -170 -86
4 15 -193 -334 -256 -217 -162 -89
4 17 -178 -297 -235 -204 -154 -86
-1 -3 -154 -256 -209 -185 -139 -75
7 -5 -130 -217 -184 -164 -124 -71
-1 -8 -108 -178 -155 -144 -111 -70
-5 -19 -82 -141 -123 -120 -97 -63
-6 -19 -51 -97 -84 -87 -70 -48
-5 0 -31 -60 -55 -61 -54 -40
-3 1 -22 -47 -40 -50 -46 -36
-4 -5 -13 -36 -29 -39 -37 -30
-16 -8 -8 -31 -26 -33 -32 -32
-27 -19 -15 -40 -33 -41 -42 -39
-35 -47 -17 -45 -36 -47 -46 -41
-41 -49 -10 -38 -31 -42 -43 -39
-31 -31 -4 -28 -24 -38 -39 -38
-27 -27 4 -20 -15 -32 -34 -32
-30 -33 6 -16 -11 -28 -29 -32
-28 -15 8 -9 -7 -23 -29 -34
-25 -11 11 -7 -4 -22 -27 -32
-26 -18 12 -10 -3 -18 -23 -27
-24 -18 8 -13 -7 -22 -25 -32
-23 -19 -1 -18 -14 -29 -34 -36
-25 -37 0 -17 -15 -29 -32 -33
-14 -27 7 -10 -9 -23 -27 -29
-25 -22 10 -7 -6 -21 -26 -28
-46 -37 13 -6 -4 -21 -26 -28
-51 -46 16 -2 2 -16 -20 -25
-40 -28 16 1 3 -15 -22 -29
-28 -24 12 -3 0 -19 -27 -31
-23 -31 11 -6 -2 -19 -27 -31
-11 -12 12 -4 3 -13 -20 -26
-9 -3 10 -4 2 -14 -21 -24
-20 -28 8 -4 1 -17 -21 -25
-18 -29 11 2 2 -15 -20 -24
-29 -29 12 3 2 -14 -21 -27
-35 -38 14 1 5 -16 -21 -26
-30 -39 16 -1 8 -13 -18 -26
-34 -26 14 2 8 -11 -18 -28
-34 -24 13 4 10 -9 -16 -23
-19 -24 12 2 11 -8 -14 -22
-13 -16 10 3 10 -7 -12 -23
-17 -17 4 0 5 -13 -17 -25
-27 -41 5 -1 4 -14 -17 -23
-29 -45 5 0 4 -14 -18 -27
-32 -33 10 8 8 -11 -16 -25
-38 -39 16 8 13 -8 -14 -20
-31 -37 21 14 20 -2 -8 -17
-18 -15 19 13 20 -2 -11 -22
-11 -9 16 13 21 -1 -10 -20
-6 -5 18 16 26 4 -5 -14
-10 -3 19 18 26 6 -3 -14
-25 -16 9 10 16 -3 -10 -19
-35 -41 8 7 15 -4 -10 -16
-25 -38 8 8 16 -3 -9 -17
-21 -31 7 10 16 -4 -11 -19
-31 -41 9 11 18 -4 -13 -18
-28 -41 16 21 24 2 -6 -16
-32 -26 15 25 27 2 -8 -20
-35 -34 12 18 24 -2 -12 -23
-36 -47 6 13 22 -4 -13 -25
-18 -21 12 20 28 4 -6 -20
-8 -1 16 28 32 7 1 -13
-4 -5 24 34 40 15 12 0
-15 -9 27 35 42 19 15 2
-23 -15 21 31 37 13 10 -4
-22 -24 19 31 36 13 8 -4
-17 -32 17 32 37 13 9 -6
-6 -19 10 29 34 9 1 -15
-3 -18 9 26 34 8 0 -15
-16 -26 10 27 34 10 2 -13
-26 -22 11 29 37 14 7 -11
-18 -14 11 27 37 13 6 -10
-12 -20 18 32 43 18 13 -2
3 -5 24 40 48 23 17 1
-2 -7 21 39 46 18 12 -4
-2 -19 19 37 45 13 10 -6
1 -17 24 43 52 20 17 -2
4 5 25 49 55 20 17 -2
-3 3 26 51 58 19 17 -1
-15 -16 21 46 55 17 15 -3
-12 -17 15 39 46 10 9 -10
-9 -11 11 43 44 6 7 -11
-6 -22 16 45 49 8 11 -4
3 -14 20 48 51 12 14 -4
8 -5 21 52 54 12 13 -5
-1 -16 22 54 55 11 12 -4
3 -13 28 58 61 18 18 0
-6 -3 23 56 57 15 14 -8
-21 -13 16 51 52 9 10 -9
-19 -19 12 45 49 9 10 -9
-19 -13 9 43 46 7 8 -13
-14 -8 3 38 40 -1 3 -16
-6 -12 5 39 42 0 6 -11
-11 -14 9 41 41 4 8 -11
-17 -10 9 44 42 3 7 -12
-17 -13 14 48 46 6 8 -7
-4 -8 16 47 49 6 11 -6
14 17 14 47 46 5 8 -12
11 18 13 44 43 2 6 -10
0 9 14 43 43 4 9 -7
-5 15 15 44 44 5 13 -6
-3 12 9 37 35 -5 4 -10
5 3 11 36 33 -6 5 -7
0 1 8 34 33 -7 4 -9
-7 -4 1 25 25 -15 -3 -15
-3 -9 -3 22 23 -19 -6 -15
-7 -16 0 22 23 -17 -5 -16
-12 -6 -4 17 18 -21 -11 -22
-10 1 -3 18 20 -19 -7 -17
-4 7 2 20 24 -15 -2 -12
-7 11 -3 15 19 -19 -4 -17
1 12 -9 7 10 -28 -13 -21
9 -7 -13 1 4 -33 -16 -20
12 -10 -15 1 2 -35 -17 -23
14 -3 -16 -3 -2 -39 -21 -25
7 -9 -13 -6 0 -38 -18 -20
-7 -9 -3 2 11 -26 -7 -12
-8 10 -1 6 14 -24 -4 -13
2 21 2 7 15 -21 -1 -9
12 18 -4 2 14 -21 1 -8
12 20 -10 -5 9 -23 -1 -12
-6 14 -15 -9 6 -26 -4 -11
-24 -10 -14 -10 6 -23 0 -6
-32 -17 -14 -11 6 -23 -1 -8
-29 -7 -12 -10 7 -23 1 -9
-22 -9 -10 -12 6 -22 0 -7
-8 -3 -6 -11 11 -16 7 -5
16 26 -9 -15 9 -18 4 -10
11 20 -15 -20 9 -20 1 -13
-11 -2 -17 -22 8 -21 1 -13
-17 0 -18 -22 8 -20 3 -13
2 23 -14 -16 12 -16 9 -5
9 17 -10 -13 17 -11 16 4
-2 4 -13 -19 11 -14 13 -1
-7 3 -16 -24 9 -17 9 -5
-11 -6 -12 -25 10 -14 11 -3
-4 -1 -9 -22 15 -9 16 -2
7 20 -11 -21 14 -10 14 -6
6 15 -16 -26 9 -16 9 -10
2 2 -19 -32 4 -19 6 -13
2 7 -22 -31 4 -19 7 -16
-6 13 -21 -30 3 -20 6 -13
-25 -6 -16 -31 7 -17 12 -7
-30 -12 -14 -31 7 -15 13 -7
-14 -2 -19 -34 3 -21 9 -13
1 -6 -23 -37 0 -24 4 -15
-1 -5 -17 -29 8 -16 12 -9
-3 17 -13 -24 12 -11 14 -7
-6 12 -14 -27 10 -13 13 -6
-9 2 -18 -33 6 -16 10 -9
-6 8 -21 -34 3 -18 11 -11
-15 4 -23 -38 -2 -22 7 -12
-20 -13 -19 -35 4 -18 13 -5
-23 -9 -15 -30 7 -15 16 -4
-31 -13 -19 -30 2 -20 11 -8
-21 -17 -19 -30 2 -21 8 -8
-2 -6 -15 -29 7 -14 14 -5
3 9 -19 -32 4 -17 10 -12
-3 2 -21 -32 4 -19 9 -12
-21 -10 -20 -30 6 -18 11 -9
-28 -5 -19 -30 3 -17 10 -11
-20 7 -16 -28 3 -18 11 -10
-4 2 -16 -27 6 -13 18 -4
14 10 -15 -26 8 -10 20 -4
12 5 -18 -28 4 -17 14 -11
-13 -20 -19 -30 3 -20 10 -12
-18 -26 -18 -29 6 -17 12 -12
-23 -10 -18 -27 8 -14 13 -13
-20 2 -11 -19 17 -8 19 -6
-5 12 -7 -15 23 -3 25 0
-2 16 -12 -19 19 -7 23 -3
-19 2 -22 -28 10 -15 15 -9
-26 -15 -17 -23 13 -11 21 -2
-18 -10 -14 -20 16 -7 24 -1
2 5 -15 -18 16 -7 22 -3
-7 -7 -15 -16 16 -9 20 -2
-16 -12 -10 -11 21 -4 25 0
-20 4 -10 -13 21 -3 24 -4
-18 4 -13 -18 19 -5 22 -5
-4 7 -14 -18 19 -5 24 -4
-4 8 -16 -19 16 -8 22 -9
-15 2 -18 -19 13 -12 18 -10
-15 -7 -13 -16 16 -8 22 -5
-18 -14 -17 -21 12 -12 18 -10
-22 -17 -19 -23 10 -15 14 -14
-20 -17 -14 -16 15 -11 18 -7
-17 -9 -8 -9 23 -2 27 -1
1 20 -9 -3 24 0 27 -3
10 26 -9 -5 26 -1 29 -1
-8 13 -4 -5 28 5 34 3
-17 10 -7 -11 23 0 29 -5
-10 9 -13 -16 14 -9 21 -10
-12 -10 -12 -17 13 -8 22 -9
-8 -14 -14 -20 9 -12 17 -14
-5 -15 -17 -27 2 -19 9 -19
-11 -18 -13 -21 9 -14 15 -13
-31 -16 0 -7 23 0 27 -3
-21 9 1 -3 26 1 28 -4
6 27 3 -3 28 3 31 1
11 26 6 -6 29 5 35 4
18 29 0 -10 24 2 31 -1
4 17 -7 -14 17 -6 24 -6
-23 -13 -3 -12 17 -4 26 -2
-24 -12 -2 -12 17 -4 26 -2
-26 -10 -2 -11 17 -4 24 -4
-29 -17 -2 -13 17 -5 23 -3
-7 -8 3 -12 17 -4 26 -3
3 9 3 -15 15 -6 23 -8
10 10 4 -18 14 -8 23 -8
19 12 5 -18 15 -5 27 -5
9 14 5 -20 11 -7 25 -8
3 9 -1 -24 5 -13 19 -10
-12 -6 7 -18 12 -5 29 -1
-23 -10 10 -13 15 -2 30 -2
-23 -5 10 -12 13 -6 26 -5
-24 -13 10 -13 11 -6 25 -4
-17 -13 11 -12 13 -3 29 -3
-3 3 5 -17 6 -7 22 -10
-5 -5 1 -23 3 -12 18 -11
-7 -12 2 -22 3 -11 18 -10
-9 -1 2 -20 5 -8 21 -9
-4 12 3 -20 6 -8 22 -5
1 6 10 -14 11 -2 30 4
1 4 9 -16 7 -4 27 1
3 5 5 -20 3 -10 21 -5
-7 -7 6 -19 6 -8 22 -2
-11 -16 4 -20 5 -10 22 -6
-9 -1 0 -21 3 -12 16 -10
-16 -5 -1 -22 1 -15 15 -12
-12 -6 2 -21 1 -10 18 -9
-12 5 5 -20 3 -8 20 -11
-17 2 2 -23 1 -11 18 -10
-12 -9 5 -21 1 -8 23 -4
-20 -9 8 -19 3 -5 27 -2
-15 -3 11 -18 3 -5 26 -2
-2 -2 10 -17 3 -6 26 0
17 1 8 -18 3 -7 25 -4
23 16 2 -21 -1 -11 18 -10
18 5 -3 -27 -5 -17 12 -14
4 -2 1 -24 -2 -12 19 -8
-5 10 7 -16 4 -6 25 -5
-10 8 3 -17 1 -10 19 -5
-17 -14 3 -16 1 -10 22 -3
-16 -15 4 -19 -3 -12 20 -6
-4 -9 1 -24 -5 -12 17 -9
2 -14 -2 -24 -4 -13 16 -7
0 -17 2 -19 0 -8 22 -6
2 6 1 -20 -1 -10 17 -9
-9 8 3 -19 3 -7 18 -5
-11 -2 1 -19 3 -5 16 -3
-16 -4 -3 -21 -3 -11 6 -10
-14 -11 -8 -26 -10 -18 -4 -14
-13 -23 -3 -24 -8 -15 1 -8
-6 -15 -2 -22 -5 -12 3 -7
-5 -1 4 -17 -2 -8 5 -4
-2 0 7 -11 5 -2 11 4
-1 -1 6 -6 9 1 13 3
-1 9 2 -10 6 -4 7 -4
-8 -6 -4 -19 -2 -11 0 -9
-10 -20 -9 -23 -6 -14 -2 -12
-4 -9 -9 -25 -7 -14 -3 -14
9 3 -7 -22 -7 -15 -5 -12
12 -10 -3 -18 -4 -12 0 -8
3 -13 -1 -14 -1 -10 1 -9
-1 -8 -1 -16 -2 -11 -1 -11
-15 -20 1 -15 0 -10 1 -6
-14 -15 6 -10 8 -1 9 -1
-8 13 10 -3 12 3 11 1
-18 3 10 -4 10 0 9 1
-21 -11 2 -8 6 -4 5 -2
-6 1 1 -11 4 -5 5 -6
4 13 3 -9 5 -4 7 -2
11 3 5 -8 7 -2 11 2
6 4 5 -7 9 1 13 2
4 13 10 -1 13 5 17 7
4 3 10 0 13 5 17 7
-3 -5 8 2 16 7 17 3
6 11 5 -1 12 2 11 -4
10 8 3 -4 9 0 9 -4
14 10 7 -2 12 3 13 0
16 15 3 -4 10 0 12 -4
8 7 -5 -10 4 -5 6 -7
7 -9 -2 -9 7 -2 10 -3
4 -6 -1 -6 11 2 13 -1
-9 8 9 8 22 11 22 8
9 13 11 10 24 13 25 12
18 14 7 6 23 14 25 9
-2 20 2 5 20 13 23 7
-4 17 -2 1 19 10 21 8
11 24 0 3 22 12 25 12
16 33 -2 5 22 12 25 11
12 23 -10 -3 14 5 18 7
10 2 -12 -9 11 2 19 8
7 1 -15 -13 8 2 17 6
11 7 -15 -13 7 2 15 4
14 3 -16 -10 5 0 13 5
15 7 -7 -4 11 4 17 6
-3 16 -10 -6 9 1 12 2
3 22 -10 -7 9 3 14 5
20 29 -6 -8 12 6 19 10
23 28 -10 -11 7 3 16 6
15 19 -16 -12 5 0 14 8
18 5 -17 -12 5 -1 18 10
19 -1 -22 -16 0 -3 14 6
16 -5 -27 -20 -5 -8 7 1
11 -17 -26 -22 -5 -10 6 1
13 -15 -21 -17 -1 -4 11 3
28 7 -22 -17 -2 -7 5 -1
22 5 -21 -15 -1 -6 7 2
-7 -6 -13 -11 6 1 14 8
-7 -4 -18 -13 1 -2 13 4
0 -9 -25 -18 -5 -9 6 2
3 -28 -25 -17 -6 -8 8 3
0 -26 -24 -16 -5 -6 9 2
-1 -25 -24 -16 -7 -9 5 -1
15 -19 -18 -14 -2 -5 8 3
26 0 -6 -5 10 5 18 8
13 9 -5 -4 10 2 12 3
-7 -6 -10 -4 7 -2 8 -1
-8 -12 -10 -11 5 -2 7 -2
-10 -8 -10 -12 4 -2 7 -5
-15 -12 -13 -19 -1 -6 3 -5
-11 -21 -10 -18 0 -3 8 -1
-6 -17 -8 -19 2 -2 10 0
-10 -17 -8 -21 0 -4 8 -2
-17 -33 -11 -26 -3 -7 5 -4
-6 -32 -10 -26 -4 -7 5 -5
5 -7 -10 -24 -1 -6 2 -7
5 2 -5 -19 6 -1 8 -2
-4 -5 -2 -18 7 0 8 -1
-8 -7 -5 -19 3 -4 3 -8
-7 -14 -9 -23 -2 -10 -6 -16
-8 -27 -1 -15 3 -7 -1 -12
-10 -19 9 -4 12 -1 0 -11
-7 -7 20 6 23 7 3 -9
-15 -19 28 20 35 15 6 -10
-23 -23 38 39 52 29 15 -10
-19 -6 40 56 70 45 24 -5
-8 3 46 75 96 71 47 12
-15 -4 47 91 119 101 74 32
0 14 46 107 144 131 105 57
18 28 51 132 174 169 147 91
34 29 57 163 217 222 199 134
69 54 60 200 260 276 256 179
94 71 56 223 295 325 308 224
114 63 37 215 303 351 345 259
133 65 0 171 288 363 378 292
156 93 -49 100 255 358 397 325
186 112 -91 24 216 347 411 352
209 130 -116 -32 180 324 405 362
210 158 -140 -91 132 276 373 354
207 170 -170 -165 59 196 308 327
171 141 -192 -244 -27 99 222 276
133 118 -209 -317 -112 0 130 212
104 97 -224 -383 -185 -82 51 158
66 71 -232 -435 -241 -145 -11 110
52 55 -243 -462 -273 -182 -54 67
44 46 -262 -477 -298 -214 -99 19
29 25 -270 -479 -314 -240 -137 -22
18 14 -264 -465 -311 -246 -157 -51
7 23 -258 -446 -300 -238 -160 -63
-14 12 -250 -427 -293 -236 -165 -72
-29 -9 -234 -402 -277 -225 -156 -70
-12 -1 -216 -372 -260 -213 -149 -71
-2 9 -198 -335 -237 -197 -141 -71
0 -6 -180 -297 -216 -182 -132 -66
7 -12 -162 -259 -192 -168 -119 -64
1 -7 -142 -222 -169 -152 -113 -65
-12 -19 -114 -178 -136 -128 -97 -57
-27 -30 -85 -139 -101 -98 -76 -47
-26 -17 -58 -100 -65 -68 -54 -36
-15 -16 -45 -78 -46 -51 -44 -29
-16 -34 -36 -66 -34 -39 -32 -23
-14 -29 -28 -56 -25 -29 -23 -18
-14 -23 -23 -49 -19 -26 -21 -17
-13 -35 -24 -51 -22 -28 -24 -19
-7 -31 -22 -44 -20 -28 -23 -22
-7 -11 -18 -40 -16 -26 -26 -23
-14 -18 -16 -36 -13 -25 -27 -25
-14 -20 -11 -32 -8 -19 -22 -22
-9 -10 -12 -29 -5 -17 -21 -24
-18 -20 -12 -29 -6 -17 -22 -23
-15 -32 -7 -25 -2 -15 -15 -18
-4 -26 -9 -27 -5 -16 -15 -19
-22 -29 -5 -21 -3 -14 -14 -16
-47 -45 1 -15 3 -9 -10 -9
-41 -42 2 -16 2 -9 -8 -12
-35 -24 2 -14 3 -10 -12 -15
-16 -14 4 -11 6 -9 -10 -14
1 -6 4 -9 11 -3 -6 -11
3 1 1 -12 10 -5 -10 -16
-7 -13 -6 -19 4 -11 -14 -18
-9 -30 -4 -19 4 -8 -8 -14
-19 -30 0 -12 9 -3 -5 -10
-29 -27 1 -11 9 -3 -7 -10
-28 -33 3 -9 10 -3 -4 -5
-12 -23 4 -8 10 -2 -3 -7
-7 -9 1 -9 8 -6 -9 -12
-11 -18 -2 -10 8 -9 -12 -18
-12 -25 -3 -12 9 -7 -11 -18
-26 -20 -1 -8 12 -3 -8 -18
-35 -21 1 -5 16 1 -6 -13
-28 -33 3 -5 18 4 -2 -9
-24 -33 1 -8 15 2 -4 -11
-25 -29 3 -3 16 3 -4 -9
-22 -35 3 -2 16 3 -3 -7
0 -23 4 -1 16 2 -2 -9
8 -10 -1 -5 10 -4 -12 -17
9 -9 2 -3 14 -1 -10 -16
1 -12 7 -1 18 4 -4 -11
-8 -5 7 4 22 6 -3 -11
-15 -10 5 2 20 6 -5 -10
-15 -23 8 4 23 13 3 -3
-11 -21 6 5 23 13 3 -2
-21 -27 3 5 20 9 0 -5
-33 -43 3 2 18 7 0 -3
-20 -33 5 5 20 9 2 -5
-17 -19 4 5 18 5 -6 -11
-17 -18 9 11 22 8 -4 -10
-5 -7 17 18 31 15 2 -3
7 10 18 21 34 18 5 -3
2 0 11 21 33 16 1 -2
-1 -20 8 19 30 15 5 0
9 -13 6 14 27 15 4 0
10 -11 7 14 25 13 3 -1
0 -24 7 14 24 12 1 -1
-6 -17 16 21 33 21 11 5
-4 -1 17 25 35 21 9 5
-6 -4 16 31 37 21 10 5
-6 -9 15 29 39 20 9 4
-6 -4 11 28 38 18 7 -1
-9 -11 9 25 34 17 4 -2
-3 -17 15 27 40 24 13 5
-5 -17 14 26 39 25 13 5
-1 -14 9 25 36 20 9 1
3 -20 11 25 37 20 9 4
8 -21 9 23 36 18 7 -1
5 -14 1 22 31 10 -3 -11
0 -9 7 32 39 14 0 -6
-2 -1 17 44 50 26 11 3
6 14 17 47 52 28 12 1
-1 5 14 45 49 27 8 3
-9 -14 16 45 51 30 14 7
-10 -19 11 38 47 28 13 5
-6 -19 5 31 42 22 9 3
0 -26 4 33 42 23 11 6
3 -16 9 41 47 27 16 7
1 2 12 45 50 29 15 7
2 9 18 54 58 34 19 12
6 8 19 57 61 36 21 13
15 19 17 58 58 34 17 9
15 16 12 54 55 31 14 8
19 7 12 55 56 33 19 11
19 8 10 53 53 32 19 11
19 -1 1 44 43 21 9 2
14 -17 -2 41 38 16 5 -1
5 -15 4 48 41 20 8 0
-5 0 6 51 42 20 5 0
-8 -5 4 47 42 17 1 -3
3 1 6 49 45 19 5 0
14 16 4 49 45 21 6 0
21 13 -1 47 40 18 2 -1
21 -3 -4 45 37 17 6 2
20 -3 -7 40 34 15 4 0
30 5 -9 39 31 12 1 0
26 -7 -11 34 26 8 -3 -2
3 -8 -4 38 30 13 4 1
5 10 -2 37 28 8 -2 -3
12 14 -4 38 27 6 -4 -2
10 5 -6 34 25 5 -5 -4
3 0 -13 27 17 -2 -12 -13
-2 -6 -17 21 11 -8 -17 -14
-1 -14 -14 21 14 -2 -9 -6
7 -5 -16 19 14 -2 -8 -5
18 1 -21 16 8 -8 -11 -7
8 -13 -21 14 6 -9 -10 -4
1 -11 -16 15 10 -6 -4 -2
9 7 -18 11 5 -11 -14 -7
21 9 -15 12 5 -12 -14 -7
23 7 -11 13 6 -9 -12 -6
13 7 -14 8 0 -14 -15 -11
7 3 -13 9 0 -13 -14 -7
-4 -15 -12 8 2 -7 -5 -2
-10 -16 -15 2 1 -8 -5 -5
6 0 -12 1 1 -5 -3 -2
26 7 -8 1 2 -3 -1 2
18 3 -8 2 3 -3 1 -1
-5 1 -11 0 -1 -8 -7 -8
-6 -4 -11 -2 0 -9 -8 -9
7 -4 -10 -8 -1 -8 -8 -9
20 7 -14 -13 -4 -11 -9 -13
2 -2 -11 -9 -1 -7 -6 -7
3 -16 -8 -7 3 -2 1 -3
10 -4 -6 -6 4 2 6 1
8 8 1 1 10 11 13 10
6 -1 2 1 10 11 15 12
9 -3 -2 -2 8 7 13 5
8 5 -5 -7 3 1 4 -1
-5 -5 -4 -8 3 1 5 -2
-8 -11 -2 -9 5 5 7 -1
-4 1 -4 -12 6 5 7 -3
-5 -10 -10 -18 0 0 2 -5
-12 -33 -13 -21 -2 0 5 -4
-6 -31 -18 -27 -7 -3 1 -8
-1 -25 -18 -27 -8 -6 -1 -9
12 -22 -9 -22 -4 -1 5 -1
27 -2 -3 -17 1 4 11 1
16 12 -5 -18 1 3 7 -1
5 7 -3 -15 2 5 9 1
-4 -4 -1 -14 5 7 9 -1
-6 1 -3 -16 3 4 7 -5
1 -6 -9 -25 -4 -2 2 -8
-13 -26 -7 -25 -3 1 5 -4
-27 -30 -7 -23 -3 2 7 -4
-24 -25 -6 -21 -3 2 8 -3
-11 -30 -6 -22 -3 3 10 2
3 -17 -3 -22 -1 6 12 1
4 -4 -6 -23 -5 -1 6 -4
-13 -15 -6 -22 -5 0 5 -5
-3 -12 -3 -19 -2 2 7 -3
9 1 -6 -22 -5 -1 3 -9
0 -10 -9 -25 -9 -4 -2 -11
-8 -24 -2 -20 -3 3 8 -4
-15 -19 1 -16 1 5 9 -2
-8 -11 2 -16 -1 2 7 -3
3 -15 3 -17 -1 3 8 -1
4 -9 4 -17 1 4 9 -3
4 -1 0 -21 -3 -2 1 -10
-2 -17 -7 -25 -11 -8 -6 -17
-4 -26 -7 -24 -9 -8 -4 -17
4 -6 -4 -23 -6 -5 0 -15
-5 -7 0 -19 -1 2 5 -6
-10 -13 6 -11 8 13 16 4
-6 -13 3 -15 3 7 10 -2
-10 -19 0 -16 -1 1 5 -7
-13 -29 5 -11 3 5 8 -3
-9 -24 7 -10 4 6 10 -4
-10 -16 1 -17 -2 -4 0 -13
-16 -23 1 -16 -1 -2 1 -12
-8 -15 5 -11 6 5 6 -6
-1 6 10 -5 12 11 11 -3
-13 -8 8 -5 10 11 9 -2
-14 -24 6 -9 7 10 11 -1
-11 -14 13 -7 13 14 16 2
-9 -12 13 -7 11 12 13 0
-11 -28 8 -11 7 8 9 -3
-2 -23 7 -13 7 6 8 -7
-6 -20 -1 -21 -1 -2 -1 -16
-21 -30 0 -16 2 1 2 -11
-20 -25 6 -8 11 9 9 -5
-2 2 12 0 15 13 12 -2
2 0 10 -1 15 12 12 -1
-5 -18 12 -2 16 14 15 3
3 -5 15 -1 17 16 16 3
10 4 19 2 18 16 18 4
3 -13 17 -2 15 12 15 4
-7 -14 17 -3 16 13 16 2
-11 -6 11 -7 9 7 8 -4
0 -11 7 -12 4 2 2 -8
10 -14 7 -14 4 1 3 -9
0 1 11 -8 11 8 8 -5
-3 8 19 -1 18 16 16 5
-10 -9 23 2 21 20 22 9
-13 -15 19 -3 16 15 18 6
-14 -16 15 -6 11 8 11 1
-24 -34 15 -9 8 7 12 3
-22 -31 12 -11 7 6 11 -1
-6 -6 15 -7 7 4 7 -3
-8 -15 11 -10 4 0 3 -8
-7 -15 12 -7 5 3 6 -7
2 8 19 -1 12 10 12 -2
-5 -2 18 -4 11 7 9 -1
-6 -12 22 0 15 12 15 3
-15 -9 24 1 16 14 18 7
-25 -9 23 -1 15 13 17 8
-24 -20 21 -7 11 11 17 8
-12 -16 19 -11 10 11 17 5
-6 -10 12 -15 6 3 7 -2
-6 -20 8 -18 0 -4 0 -9
-9 -30 7 -23 -3 -6 -2 -12
4 -18 4 -26 -7 -10 -6 -17
11 -16 3 -26 -8 -9 -6 -14
8 -16 13 -15 2 3 8 -2
9 -2 19 -7 9 9 13 3
-11 -2 23 -6 11 10 16 7
-20 -18 24 -8 10 9 16 9
-10 -18 20 -15 4 4 11 1
-7 -11 13 -20 -3 -5 0 -6
1 -10 14 -13 0 -5 1 -6
9 -12 15 -14 0 -4 -2 -7
8 -3 14 -18 -3 -7 -5 -11
-22 -14 20 -12 3 -1 3 -2
-28 -23 24 -10 8 6 13 6
-13 -12 22 -14 5 7 13 8
1 0 20 -17 3 4 11 7
-4 -17 19 -17 3 3 9 8
-9 -15 17 -18 2 3 8 3
-12 -7 15 -20 -2 -4 0 -3
-13 -12 16 -17 -2 -7 -1 -5
-14 -14 18 -16 1 -3 0 -4
-11 -1 18 -16 2 -2 0 -5
-5 -7 17 -17 -1 -5 -3 -4
-9 -22 17 -19 -1 -3 1 -4
-11 -17 16 -22 -3 -4 -1 -5
-4 -10 16 -20 -3 -4 -1 -5
-3 -23 15 -18 -4 -7 -2 -6
0 -13 17 -18 -5 -7 -1 -9
-4 -2 17 -21 -5 -9 -6 -10
-4 -12 13 -23 -7 -11 -8 -12
7 -13 11 -24 -9 -12 -7 -13
8 -2 9 -27 -10 -13 -8 -14
-16 -6 17 -21 -2 -3 2 -1
-22 -12 23 -15 7 8 16 8
-28 -16 20 -15 6 5 11 5
-19 -15 14 -19 -1 -3 3 -2
-11 -27 12 -26 -6 -6 1 -4
-11 -22 15 -26 -4 -6 2 -6
-14 -6 15 -22 -4 -8 -2 -7
-10 -6 19 -16 -1 -6 1 -5
3 -1 20 -19 1 -4 3 -2
10 10 20 -20 1 -5 1 -4
6 -1 18 -23 -2 -7 -1 -4
0 -16 21 -22 0 -5 4 -1
5 -14 16 -23 -4 -9 0 -6
-1 -17 14 -26 -5 -11 -2 -7
-15 -33 18 -25 -5 -8 -1 -4
-26 -27 19 -24 -2 -4 2 -3
-25 -10 17 -22 -1 -6 -1 -4
-20 -17 17 -20 -2 -8 -2 -6
-22 -26 17 -23 -5 -10 -4 -8
-21 -18 15 -27 -6 -12 -6 -12
-13 -24 12 -31 -9 -13 -9 -11
-5 -27 17 -25 -2 -6 -2 -6
10 -7 22 -21 2 -2 3 -2
7 5 29 -13 9 4 8 5
-12 -10 33 -9 13 6 12 10
-12 -12 28 -12 9 1 7 0
-14 -9 20 -19 0 -7 -4 -8
-10 -6 25 -17 3 -3 -1 -5
-2 1 31 -13 9 3 6 0
0 9 28 -14 9 2 3 -4
-10 -1 30 -11 10 3 4 0
-9 0 39 -5 17 12 15 10
-6 5 37 -7 17 15 18 11
-3 2 30 -14 10 8 11 5
2 -9 27 -16 7 5 9 2
7 3 29 -12 9 5 9 -1
3 16 32 -5 13 6 9 0
-1 8 32 -4 12 4 6 0
5 4 31 -5 12 4 6 -1
4 12 29 -9 11 4 6 -2
-7 0 29 -11 12 5 8 3
-1 -1 34 -5 20 14 19 12
-6 5 32 -2 22 16 20 14
-5 6 28 -4 20 12 16 13
0 -4 24 -9 16 9 15 11
1 3 19 -13 15 9 16 10
11 18 11 -18 11 6 11 6
8 16 8 -17 12 6 12 8
9 18 7 -14 14 9 14 10
11 28 7 -16 11 6 11 7
6 17 7 -18 8 2 8 8
-10 2 9 -15 11 7 16 14
-9 1 3 -22 5 4 13 10
-3 4 -3 -25 1 0 8 7
-1 -7 -3 -25 -1 -3 6 6
-10 -14 -7 -29 -4 -6 4 0
-13 -9 -14 -32 -10 -13 -4 -6
-9 -13 -10 -27 -6 -10 -1 -3
0 -5 -6 -22 -2 -5 3 0
7 6 -4 -23 -3 -6 1 -3
-9 -6 -1 -23 -3 -7 2 3
-4 -7 4 -21 1 -1 11 8
-1 -3 1 -25 0 -2 9 6
-4 -10 -5 -32 -7 -9 2 0
-7 -22 -5 -33 -8 -10 2 4
6 -9 -6 -32 -8 -10 1 1
13 0 -8 -35 -12 -16 -7 -4
4 -9 -5 -29 -9 -16 -5 -3
-5 -15 0 -25 -5 -11 -2 -4
5 1 2 -21 -5 -10 -4 -8
7 -4 3 -22 -5 -10 -7 -5
-12 -24 5 -23 -4 -8 -2 -4
-21 -28 3 -28 -8 -14 -6 -9
-1 -24 -3 -32 -14 -20 -14 -15
-8 -39 -5 -33 -15 -20 -14 -14
-22 -31 0 -29 -10 -16 -9 -13
-36 -19 3 -26 -7 -13 -9 -10
-29 -18 5 -24 -5 -12 -7 -7
-21 -18 5 -24 -6 -12 -6 -8
-13 -2 9 -19 -3 -10 -5 -7
1 -2 8 -19 -5 -11 -7 -6
0 -21 9 -22 -8 -12 -6 -8
-20 -33 5 -28 -10 -14 -10 -12
-21 -30 3 -28 -8 -15 -11 -11
-31 -36 10 -20 -3 -9 -5 -6
-22 -20 14 -16 -1 -7 -6 -9
-19 -11 14 -17 -2 -14 -16 -18
-30 -20 22 -8 4 -12 -17 -19
-34 -22 30 5 13 -4 -16 -21
-36 -16 36 20 24 0 -16 -27
-31 -26 44 37 40 12 -10 -22
-29 -27 58 63 70 44 19 -2
-38 -23 61 80 92 69 41 14
-33 -17 63 95 113 94 66 36
-15 -12 67 115 140 129 102 65
27 25 74 144 177 174 146 98
61 61 78 173 214 220 192 136
74 64 78 204 254 271 244 176
87 63 72 221 286 318 296 218
110 79 56 215 298 346 333 253
134 81 23 177 284 358 366 293
164 87 -21 112 252 355 390 328
186 114 -58 39 215 345 403 355
200 137 -85 -20 177 317 393 364
194 136 -115 -89 119 261 354 350
176 135 -149 -169 41 176 286 312
147 120 -185 -259 -57 66 183 245
115 104 -195 -324 -130 -25 100 191
107 105 -198 -377 -192 -95 33 147
99 108 -207 -423 -246 -156 -30 97
83 82 -219 -456 -280 -195 -76 57
50 38 -233 -467 -300 -220 -109 18
11 21 -238 -465 -311 -237 -140 -20
-7 16 -233 -452 -308 -243 -161 -49
-8 4 -231 -442 -303 -241 -167 -62
-2 14 -223 -422 -293 -234 -165 -73
5 26 -218 -401 -285 -231 -170 -79
5 21 -201 -370 -265 -220 -161 -80
1 11 -181 -335 -246 -206 -155 -82
-6 9 -166 -297 -226 -193 -148 -82
-17 -6 -141 -255 -197 -174 -132 -70
-24 -24 -115 -213 -171 -151 -115 -64
-26 -26 -91 -174 -143 -130 -101 -60
-14 -21 -65 -135 -110 -104 -83 -52
-15 -34 -42 -104 -81 -79 -66 -43
-15 -20 -23 -74 -52 -51 -44 -32
-17 -16 -24 -64 -42 -46 -43 -33
-6 -14 -17 -51 -32 -39 -37 -30
10 -3 -9 -42 -25 -33 -31 -29
12 1 -10 -40 -29 -36 -34 -35
-9 -24 -9 -44 -32 -40 -39 -36
-20 -29 1 -34 -22 -29 -25 -28
-29 -22 5 -27 -17 -24 -20 -23
-24 -21 3 -30 -18 -25 -23 -24
-15 -30 4 -28 -15 -21 -20 -23
-4 -10 9 -20 -7 -13 -15 -22
7 4 8 -21 -7 -17 -20 -25
-19 -18 6 -21 -7 -17 -21 -27
-42 -32 10 -17 -5 -14 -18 -25
-49 -28 9 -20 -9 -20 -26 -31
-35 -31 10 -21 -12 -23 -27 -29
-7 -16 20 -11 -2 -13 -15 -20
1 -3 24 -7 2 -10 -13 -19
-7 -10 23 -8 1 -12 -15 -21
-24 -36 23 -7 1 -11 -16 -21
-26 -29 26 -6 4 -10 -14 -24
-19 -19 20 -11 -1 -15 -22 -28
-23 -30 17 -11 -2 -18 -22 -29
-27 -32 17 -13 -3 -16 -20 -28
-12 -6 21 -9 0 -14 -18 -26
-5 -9 22 -8 -1 -15 -19 -24
-5 -19 27 -2 4 -11 -13 -22
-9 -17 29 0 5 -10 -15 -23
-20 -22 28 0 3 -10 -16 -23
-30 -29 35 5 12 -2 -6 -14
-34 -23 37 4 14 1 -2 -14
-22 -18 25 -10 5 -7 -12 -20
-5 -22 21 -14 1 -12 -15 -23
-4 -26 19 -11 1 -10 -14 -24
-19 -17 21 -6 4 -7 -14 -22
-32 -35 17 -10 -1 -13 -19 -24
-46 -53 21 -8 0 -11 -17 -23
-48 -50 24 -6 1 -10 -17 -24
-41 -40 25 -6 2 -9 -17 -24
-22 -36 29 -4 9 -1 -8 -18
13 -4 31 0 15 6 -1 -15
29 14 30 0 14 4 -6 -16
7 -2 29 1 13 4 -6 -15
-20 -14 32 5 17 7 -2 -12
-29 -8 34 7 18 6 -2 -13
-34 -21 32 6 14 2 -6 -11
-33 -35 34 7 17 6 -2 -11
-24 -28 32 7 16 4 -6 -16
-19 -24 33 8 15 2 -9 -19
-18 -33 36 9 17 5 -5 -16
1 -8 39 14 23 12 2 -13
17 10 37 12 22 11 -1 -12
3 0 37 12 23 12 1 -11
-11 -4 41 14 24 16 6 -6
-12 2 36 11 22 13 1 -11
-14 -16 29 6 17 7 -4 -13
-12 -22 31 12 21 10 0 -12
-6 -17 32 13 22 12 0 -13
-9 -13 35 16 24 14 0 -11
-2 -15 42 21 29 19 7 -4
8 -1 41 21 30 21 6 -7
-6 1 38 20 29 17 -1 -10
-18 -13 38 17 29 16 -1 -11
-12 -12 39 21 31 20 2 -9
11 14 41 26 31 21 1 -7
24 12 41 24 31 20 1 -3
24 6 44 27 35 25 7 -1
0 0 42 25 37 27 8 -1
-13 -7 41 26 38 26 6 -2
-16 -17 46 33 44 31 10 2
1 9 50 37 50 35 13 0
17 22 46 36 46 29 6 -3
15 13 44 34 44 28 4 -4
18 14 44 34 44 29 7 -3
27 27 40 28 38 23 2 -7
28 16 38 25 37 21 0 -5
17 0 42 28 40 25 5 -4
8 4 43 32 46 30 7 -1
6 5 43 33 46 29 5 -2
-10 -10 45 36 51 32 9 2
-3 6 44 38 53 33 10 -1
14 17 38 35 49 25 2 -4
12 13 41 38 50 26 3 -3
11 11 44 40 50 27 7 -2
12 21 40 33 46 23 3 -6
7 3 35 25 39 16 -5 -9
12 -6 35 25 38 16 -4 -11
13 3 33 26 38 15 -5 -11
15 15 39 33 44 19 0 -4
3 9 47 38 50 27 8 5
4 16 45 35 48 24 5 -1
18 19 34 21 37 12 -8 -11
36 21 33 21 36 11 -8 -11
44 31 41 28 39 15 -3 -6
48 48 41 28 38 13 -4 -6
13 26 43 25 39 15 -3 1
-7 7 43 23 39 17 1 2
-2 3 34 8 26 5 -11 -11
7 -1 29 2 18 -3 -17 -15
14 -6 28 5 21 0 -13 -10
21 14 29 9 25 4 -9 -9
25 26 22 1 17 -5 -18 -13
17 19 23 -2 16 -6 -18 -9
9 11 21 -6 13 -8 -18 -10
9 21 22 -9 9 -13 -22 -13
11 10 24 -11 6 -15 -23 -10
17 7 28 -6 11 -9 -17 -7
25 19 31 -4 13 -7 -17 -8
26 15 27 -9 8 -12 -21 -11
24 -1 26 -14 7 -11 -18 -9
18 20 34 -9 15 0 -7 -2
18 29 28 -18 9 -5 -13 -3
22 21 19 -25 4 -9 -15 -4
22 15 14 -30 0 -10 -17 -7
28 29 10 -34 -2 -13 -20 -10
0 18 25 -24 9 -4 -11 2
-14 3 31 -17 13 0 -7 3
-6 6 26 -21 9 -4 -12 -4
-8 1 24 -27 7 -6 -14 -6
-2 -9 22 -34 4 -6 -14 -5
23 13 22 -33 9 -2 -8 -5
36 27 18 -38 7 -5 -12 -5
32 21 18 -40 6 -4 -12 -4
18 21 20 -30 9 0 -7 0
11 30 20 57 10 0 -7 0
12 23 21 156 11 2 -4 6
8 12 24 202 13 4 -1 6
4 7 19 221 7 -4 -9 -4
2 -1 16 230 5 -5 -14 -8
-1 -10 20 238 9 1 -7 -4
4 7 23 240 11 5 -3 -4
7 17 19 239 6 0 -8 -4
16 18 19 237 7 5 -4 0
12 17 22 241 12 9 1 4
8 24 19 239 8 3 -3 0
-5 4 17 234 4 -2 -8 0
-8 -8 19 236 4 0 -4 -1
-6 -7 15 232 -1 -4 -11 -7
1 -11 9 224 -7 -11 -18 -12
15 -20 8 221 -8 -12 -17 -13
22 5 12 227 -2 -6 -11 -12
19 21 16 228 3 -2 -9 -6
3 12 18 228 4 1 -5 -2
0 10 20 227 6 3 -4 -2
-1 21 17 227 3 0 -8 -6
-7 6 17 225 2 -3 -9 -3
-13 -6 17 220 1 -3 -8 -4
-3 9 20 222 4 0 -8 -3
13 15 17 219 2 -4 -12 -5
17 -2 13 211 -2 -7 -12 -6
4 0 12 206 -1 -6 -12 -10
-3 6 10 203 -1 -5 -12 -9
-1 7 15 212 6 0 -5 -2
0 10 20 216 10 5 -1 2
10 26 21 214 9 3 -1 2
11 15 20 208 6 3 -3 3
11 1 19 205 5 1 -2 -2
7 -1 13 199 0 -5 -11 -8
0 -3 13 194 0 -7 -14 -11
-1 -13 16 194 2 -4 -12 -11
-11 -8 14 193 2 -4 -13 -16
-6 2 11 191 -2 -9 -18 -18
8 3 12 190 -1 -9 -16 -17
17 7 12 189 -1 -8 -15 -16
14 18 14 186 1 -7 -15 -15
0 3 19 189 4 -4 -10 -6
2 -1 24 191 7 3 -2 -1
-5 -3 17 188 6 1 -6 -4
-8 -6 15 184 3 -2 -9 -7
-6 -13 18 185 8 2 -6 -4
12 8 18 189 13 5 -4 -7
20 25 21 188 12 1 -9 -7
13 19 24 187 14 2 -8 -5
13 10 19 182 10 -1 -11 -10
2 12 14 175 7 -4 -14 -14
-15 -4 18 173 9 -2 -11 -7
-21 -12 22 171 13 3 -6 -5
-15 -5 19 171 12 3 -7 -6
-1 0 16 167 12 3 -9 -6
-5 -11 17 169 15 6 -6 -4
-12 -3 16 170 18 6 -4 -7
-17 2 15 165 16 4 -9 -9
-17 -2 16 164 16 2 -10 -9
-11 -1 19 164 17 4 -6 -7
-5 7 16 152 11 -3 -13 -14
3 -3 15 146 7 -4 -14 -12
12 -3 17 143 10 0 -9 -9
13 3 11 139 7 -2 -14 -13
10 -3 8 132 3 -8 -20 -17
13 -12 11 134 8 -4 -15 -13
7 3 18 139 13 1 -8 -10
-2 15 24 140 18 6 -4 -3
5 19 32 141 23 11 3 5
9 24 33 137 24 14 7 6
11 31 24 129 20 10 2 2
5 0 14 117 7 -2 -11 -7
2 -11 13 117 7 -2 -10 -8
-2 0 17 117 11 2 -6 -4
-18 -8 16 109 11 3 -6 -2
-20 -22 14 105 12 3 -6 -3
-3 0 17 107 10 2 -8 -7
13 22 21 110 15 5 -6 -2
16 22 25 112 20 10 -2 1
11 24 30 113 21 12 2 4
12 29 26 107 18 9 -2 3
18 6 13 93 6 -1 -11 -5
16 -3 6 88 2 -3 -12 -10
10 5 12 94 6 1 -9 -6
3 3 16 95 6 -1 -11 -6
1 -6 19 96 6 -2 -9 -5
6 6 17 94 6 -2 -9 -9
2 4 9 81 0 -9 -17 -16
3 -5 7 80 -1 -10 -19 -15
0 1 9 82 3 -5 -13 -10
-12 13 13 84 5 -1 -9 -5
-15 -3 11 79 2 -2 -7 0
-1 1 18 86 11 8 4 7
10 14 19 84 10 6 3 8
12 12 16 80 8 3 -2 6
22 3 13 75 2 -1 -4 3
23 9 9 70 -2 -6 -9 -5
14 14 12 72 0 -5 -10 -4
11 3 10 68 -3 -9 -12 -6
8 -4 5 60 -8 -11 -15 -10
2 1 3 54 -6 -11 -14 -10
-19 -19 5 56 -4 -8 -11 -4
-22 -20 12 61 0 -3 -4 0
-8 -8 11 60 -3 -3 -6 -3
6 -4 7 59 -3 -4 -8 -3
8 -7 15 64 -1 0 -5 -1
0 -5 11 59 -4 -5 -11 -10
-1 -1 7 53 -8 -9 -15 -11
11 3 5 48 -10 -10 -14 -10
10 6 8 51 -6 -4 -10 -6
2 14 7 49 -6 -5 -12 -6
-11 -3 7 47 -10 -11 -15 -6
-22 -16 9 44 -14 -11 -15 -9
-6 -10 5 39 -18 -15 -20 -15
3 -11 1 36 -18 -18 -24 -16
10 -11 7 42 -13 -12 -17 -9
18 14 12 48 -6 -6 -10 -6
12 20 13 46 -6 -9 -13 -6
-1 6 11 43 -6 -8 -12 -5
-9 1 8 39 -6 -7 -10 -5
-1 5 0 32 -14 -16 -19 -15
-4 -14 -3 28 -17 -19 -22 -13
-15 -23 5 34 -12 -12 -14 -9
-22 -14 7 38 -7 -8 -9 -6
-17 -18 0 32 -13 -15 -17 -11
-12 -27 -2 28 -14 -14 -16 -12
2 -2 -4 28 -10 -12 -16 -14
5 11 -4 29 -12 -14 -19 -14
-9 -3 -2 27 -14 -17 -21 -16
-21 -20 -7 23 -16 -20 -23 -21
-16 -12 -9 18 -22 -25 -29 -25
-25 -33 -6 18 -23 -25 -29 -20
-30 -41 -2 23 -17 -19 -21 -17
-20 -22 2 30 -12 -16 -18 -14
-4 -5 5 31 -9 -13 -16 -11
7 -11 4 25 -9 -10 -12 -9
7 8 3 22 -8 -7 -9 -9
-9 3 -3 16 -11 -13 -15 -13
-14 -8 -8 15 -12 -15 -17 -16
-9 -5 -8 19 -13 -13 -16 -16
-3 10 -6 21 -11 -14 -19 -16
-3 3 1 24 -7 -10 -15 -10
-7 -4 2 26 -5 -6 -11 -9
-21 -14 -3 22 -10 -11 -14 -12
-26 -24 -8 18 -12 -15 -17 -13
-18 -30 -3 18 -10 -11 -12 -10
3 -6 -4 18 -9 -10 -12 -13
26 14 -4 17 -5 -8 -12 -9
24 8 -4 16 -5 -8 -12 -8
8 18 2 25 1 -2 -5 -2
-10 33 9 31 7 3 -1 3
-21 12 10 31 7 3 0 5
-17 2 10 30 5 2 -1 3
-14 4 7 29 3 1 -2 -2
-12 0 7 26 3 1 -3 -3
-18 -11 9 26 3 3 0 1
-19 4 8 28 4 5 2 -2
-7 14 6 25 1 1 -4 -5
3 18 10 31 7 4 -1 -1
12 22 5 30 5 3 -2 -4
10 29 1 25 3 1 -4 -6
-3 16 1 20 3 3 0 2
-3 13 -3 16 3 4 2 3
-7 15 -13 12 -1 2 0 -1
-16 8 -20 8 -5 -1 -3 -1
-13 -1 -18 9 -5 -2 -1 0
-4 9 -21 1 -12 -8 -9 -8
-2 15 -21 -2 -13 -10 -12 -9
2 12 -18 1 -10 -8 -10 -7
-6 11 -17 -1 -13 -9 -11 -9
0 22 -21 -3 -16 -13 -15 -11
19 24 -19 1 -14 -10 -10 -3
17 15 -21 0 -13 -8 -6 -3
14 15 -20 -6 -17 -11 -10 -5
29 24 -19 -3 -14 -8 -7 -1
32 12 -17 -1 -15 -7 -5 -3
25 13 -23 -9 -21 -14 -13 -16
20 14 -28 -12 -21 -15 -16 -17
9 10 -23 -4 -16 -11 -10 -11
10 22 -11 4 -10 -5 -3 -4
-2 30 -9 5 -9 -3 -3 -3
-14 5 -15 -2 -13 -5 -4 -2
1 4 -20 -10 -16 -7 -5 -7
4 3 -26 -17 -24 -15 -13 -15
-11 -11 -26 -16 -23 -14 -15 -16
-13 -22 -19 -12 -22 -11 -13 -14
-6 -5 -19 -11 -24 -15 -17 -21
0 0 -20 -16 -28 -23 -25 -25
1 -3 -13 -12 -26 -21 -23 -23
0 11 -7 -6 -15 -10 -13 -15
4 22 -9 -7 -16 -12 -15 -16
-11 -4 -9 -8 -21 -17 -18 -18
-15 -13 -9 -8 -19 -13 -13 -16
-6 -7 -12 -13 -23 -14 -16 -19
-7 -12 -16 -17 -24 -19 -20 -22
-17 -23 -14 -15 -25 -18 -18 -20
-20 -16 -17 -20 -30 -21 -22 -26
-16 -12 -22 -26 -36 -30 -31 -32
-19 -18 -21 -21 -33 -28 -29 -32
-23 -19 -16 -15 -28 -26 -28 -34
-11 0 -8 -10 -24 -20 -24 -31
9 5 1 -1 -13 -10 -16 -23
6 3 10 11 -6 -9 -16 -26
2 11 21 19 -3 -8 -20 -30
-5 9 32 32 9 -3 -19 -29
-14 -3 46 52 30 14 -8 -24
-14 12 53 69 49 33 3 -20
-5 19 53 84 70 51 16 -10
-5 22 59 105 97 83 47 14
-8 32 67 130 133 125 90 48
5 45 67 146 158 160 124 74
25 36 65 165 192 205 168 113
40 40 68 200 234 257 221 152
61 56 68 229 272 309 275 193
78 65 62 243 302 351 322 235
106 72 41 230 312 385 369 278
136 106 5 184 298 400 406 319
159 123 -51 105 253 387 420 349
183 132 -93 30 207 366 422 365
199 157 -117 -30 155 322 400 367
193 178 -144 -101 80 245 342 344
169 156 -174 -187 -13 141 259 299
141 137 -191 -261 -103 34 163 236
110 127 -202 -330 -182 -60 77 178
85 112 -209 -381 -244 -134 5 127
68 87 -217 -419 -286 -186 -49 80
51 81 -228 -432 -309 -213 -91 37
30 59 -240 -438 -332 -244 -136 -9
17 33 -241 -431 -334 -258 -166 -49
6 19 -240 -420 -331 -260 -180 -76
-13 12 -237 -409 -327 -259 -189 -92
-21 -9 -231 -387 -317 -255 -187 -97
-16 -10 -216 -359 -301 -243 -181 -100
-3 4 -194 -326 -280 -229 -176 -104
5 13 -167 -286 -252 -208 -160 -93
15 14 -138 -241 -218 -181 -136 -77
4 15 -120 -205 -194 -163 -126 -76
-16 0 -105 -174 -174 -151 -119 -74
-13 -9 -81 -136 -142 -125 -100 -66
-10 -7 -58 -98 -104 -94 -78 -56
-4 7 -37 -69 -79 -71 -64 -48
0 -5 -19 -45 -58 -50 -47 -33
9 -5 -8 -29 -40 -34 -34 -26
0 -1 2 -20 -34 -34 -32 -28
-14 -13 2 -18 -34 -33 -33 -29
-5 -17 4 -13 -30 -31 -30 -28
-4 -2 6 -13 -31 -31 -32 -33
-1 0 6 -12 -26 -28 -32 -33
0 -7 8 -1 -19 -21 -29 -30
8 -1 12 5 -19 -25 -32 -33
6 6 13 4 -21 -26 -38 -35
-3 -11 15 2 -22 -23 -34 -31
-3 -20 13 0 -20 -22 -31 -31
-5 -7 13 0 -20 -21 -30 -30
-15 -13 16 4 -18 -19 -28 -27
-22 -25 17 8 -13 -14 -22 -22
-19 -14 16 8 -14 -18 -28 -29
-16 -19 12 4 -21 -27 -38 -36
-15 -27 12 5 -18 -25 -36 -35
-5 -18 14 4 -18 -22 -33 -35
-10 -11 15 4 -16 -20 -33 -36
-12 -17 20 13 -8 -13 -25 -26
-1 -16 21 15 -8 -10 -19 -21
-2 -10 20 15 -7 -9 -20 -21
-12 -13 24 19 -5 -10 -22 -19
-15 -26 27 18 -6 -11 -21 -19
-3 -5 26 17 -5 -8 -23 -22
4 8 25 21 -4 -10 -23 -23
-4 3 28 24 0 -7 -20 -21
-5 2 31 26 4 -5 -17 -21
-5 2 27 23 1 -8 -24 -27
-13 -25 26 23 -2 -8 -23 -25
-11 -36 25 22 -1 -6 -20 -24
-8 -36 18 15 -8 -12 -26 -27
-7 -32 19 14 -5 -7 -20 -21
-12 -28 29 21 4 3 -8 -11
-34 -17 29 24 6 5 -10 -13
-33 -15 25 20 0 -5 -22 -24
-27 -15 24 21 -2 -8 -24 -28
-24 -11 23 20 -2 -6 -23 -29
-17 -6 18 18 -2 -8 -29 -33
-14 -25 19 20 -1 -6 -26 -28
-10 -31 18 19 -4 -7 -25 -26
-6 -22 19 15 -6 -9 -26 -24
8 -10 27 23 1 1 -18 -13
-5 -17 31 31 10 10 -5 -5
-12 -10 27 30 11 9 -8 -9
-10 -10 22 28 7 5 -13 -12
-22 -22 23 31 11 10 -8 -12
-30 -24 22 29 11 10 -9 -17
-24 -20 16 24 4 -1 -21 -26
-15 -28 16 24 1 -3 -21 -22
-12 -28 21 28 9 8 -11 -15
-2 -11 30 36 16 15 -8 -11
1 -13 35 41 14 11 -10 -9
2 -18 41 48 18 18 -3 -5
1 1 42 50 23 20 -5 -9
-8 2 39 51 21 17 -9 -11
-16 -8 39 50 24 20 -8 -10
-13 -9 37 45 23 19 -9 -13
-7 -7 31 36 13 9 -19 -20
-19 -35 23 32 8 3 -21 -22
-10 -32 21 35 15 12 -12 -15
5 -14 24 40 20 17 -8 -11
17 -6 29 42 15 13 -10 -10
29 12 39 55 32 27 5 2
32 31 40 61 36 28 3 -1
24 17 35 59 30 18 -8 -9
11 -2 33 58 27 15 -12 -14
-11 -5 36 60 34 22 -8 -12
-28 -6 36 54 30 17 -14 -18
-25 -24 30 55 30 17 -11 -16
-20 -27 29 59 36 24 -4 -11
-14 -16 30 60 37 28 -1 -7
-17 -20 34 60 36 26 0 -3
-14 -20 44 69 43 32 8 5
5 7 43 67 45 32 6 2
13 11 39 62 38 26 -2 -2
12 6 40 66 40 27 0 -4
23 10 36 66 41 26 -1 -7
14 16 32 63 37 24 -5 -9
0 -7 36 65 38 25 -2 -2
-1 -7 40 69 45 31 6 5
-1 3 40 70 47 34 9 7
-4 -3 36 67 39 25 -1 1
2 -2 43 69 38 24 -1 -1
14 22 43 68 39 25 -1 -4
8 11 36 61 34 19 -9 -8
3 -4 38 56 30 16 -11 -9
9 1 40 58 33 18 -10 -9
9 7 33 56 32 20 -8 -8
-7 -13 32 52 31 20 -6 -3
-2 -11 33 52 32 21 -3 -2
10 -3 25 47 20 8 -14 -10
6 -10 20 42 18 4 -18 -11
-6 -19 22 44 21 7 -13 -7
-3 -4 22 41 15 2 -19 -13
13 5 20 39 11 -4 -25 -15
17 4 19 41 12 -2 -22 -12
-1 2 23 45 15 2 -19 -10
-10 5 19 35 10 0 -23 -12
-7 -11 11 26 7 -2 -24 -11
-6 -12 11 24 3 -6 -25 -13
-14 -7 12 24 -3 -14 -30 -16
-1 -5 9 21 -3 -14 -28 -13
10 -8 9 19 -1 -10 -24 -10
-6 -8 5 15 -4 -13 -28 -15
-8 -6 1 12 -7 -16 -31 -18
3 7 12 20 -2 -11 -24 -9
10 21 18 23 1 -3 -16 -4
9 18 8 14 -6 -9 -22 -10
12 -7 0 3 -15 -15 -25 -10
15 -18 -3 -6 -19 -17 -26 -12
-2 -21 -5 -9 -19 -18 -28 -13
-18 -33 -7 -9 -22 -17 -27 -10
-22 -36 -6 -7 -18 -14 -24 -9
-24 -21 -9 -9 -20 -16 -29 -16
-25 -12 -3 -4 -16 -14 -27 -13
-15 -4 4 2 -9 -6 -20 -5
6 12 6 1 -7 -2 -16 -4
12 19 5 -1 -8 -3 -18 -5
4 0 8 -2 -5 4 -11 2
0 -9 4 -4 -6 5 -8 3
-14 -5 4 -3 -3 6 -7 1
-8 2 9 2 -3 6 -8 6
-7 0 12 5 1 10 -3 8
-13 6 6 4 -2 7 -8 0
-16 -3 3 1 -7 1 -14 -3
-15 -10 6 0 -6 4 -15 -6
-20 -10 4 -6 -8 2 -19 -15
-11 -3 -1 -13 -19 -8 -28 -21
-2 -8 1 -16 -20 -7 -23 -14
15 5 6 -13 -13 3 -13 -4
28 20 9 -10 -10 10 -8 2
15 13 11 -10 -12 8 -12 0
-7 -6 10 -5 -12 9 -10 -1
-14 2 3 -12 -15 6 -12 -2
-16 -1 2 -14 -15 5 -12 -2
-20 -10 5 -10 -13 5 -11 -1
-13 -3 4 -10 -11 7 -9 -2
-22 -5 -5 -19 -19 2 -17 -7
-21 -23 -6 -23 -23 1 -17 -7
-27 -26 -6 -22 -20 4 -15 -7
-23 -15 -1 -18 -19 -1 -17 -8
-18 -15 1 -16 -25 -6 -22 -10
-6 -19 3 -14 -21 -1 -15 -6
1 1 2 -16 -17 4 -15 -8
-2 1 2 -17 -18 2 -17 -8
-6 -6 2 -13 -19 -1 -21 -13
-4 -2 0 -17 -24 -10 -29 -21
-9 2 1 -21 -30 -15 -34 -25
-18 -10 6 -12 -20 -4 -21 -13
-15 -10 5 -13 -15 3 -14 -8
-25 -20 1 -21 -23 -4 -20 -14
-38 -36 -2 -23 -29 -8 -24 -16
-29 -38 -2 -25 -31 -9 -25 -17
-16 -9 -3 -22 -26 -5 -24 -19
-1 4 -4 -17 -20 -3 -23 -18
1 2 0 -15 -20 -5 -24 -19
2 12 4 -13 -19 -6 -25 -22
13 18 3 -14 -21 -6 -26 -21
5 6 16 -1 -10 7 -11 -5
7 7 19 3 -7 11 -6 -1
10 6 13 -2 -15 3 -14 -6
-4 -5 14 -6 -13 4 -14 -7
-18 -17 11 -6 -9 8 -8 -5
-19 -6 4 -9 -15 3 -15 -12
-17 -9 0 -9 -14 1 -19 -15
-8 -12 -1 -9 -12 1 -20 -16
-5 2 5 -4 -9 4 -16 -13
1 16 10 2 -5 8 -12 -6
0 -2 12 3 -2 13 -5 1
5 -4 7 0 -2 14 -3 2
2 1 1 -7 -8 7 -9 -5
-2 -7 0 -8 -12 1 -15 -8
-2 -14 7 -3 -8 3 -12 -9
0 -1 7 0 -7 1 -17 -16
5 5 7 -1 -12 -3 -22 -21
12 13 8 7 -3 5 -16 -16
9 20 7 7 0 10 -12 -16
4 18 3 -1 -9 0 -21 -20
0 0 9 0 -7 6 -14 -12
6 2 14 5 3 16 -5 -6
11 20 15 9 4 16 -6 -6
8 19 15 10 0 12 -10 -6
9 13 15 11 -1 11 -9 -8
19 26 8 4 -4 6 -15 -16
13 17 5 1 -6 5 -17 -16
-2 6 11 10 -4 8 -12 -8
-10 10 16 14 0 13 -6 -3
-9 16 13 12 -1 15 -5 0
-11 0 15 12 1 17 -1 4
-2 2 10 7 0 13 -3 1
4 4 4 -1 -3 11 -6 -3
2 1 4 0 -7 8 -10 -4
0 -1 6 4 -7 8 -9 -5
-4 17 11 3 -10 5 -13 -8
-9 15 9 4 -4 8 -11 -6
-9 3 8 5 -2 10 -9 -3
-1 6 10 4 -4 10 -8 -6
1 13 5 3 -3 12 -9 -5
6 4 8 5 -2 13 -7 -2
11 1 9 6 -6 7 -13 -7
9 4 11 6 -12 1 -16 -8
1 -1 12 6 -10 5 -13 -1
-5 -8 15 13 -2 11 -4 3
-6 6 10 10 -3 10 -8 0
0 9 5 6 -8 5 -11 -2
3 4 3 5 -9 5 -12 -1
0 10 5 6 -3 10 -8 -3
3 25 7 7 -2 12 -12 -5
4 17 9 7 -3 11 -11 -3
15 19 10 6 -4 9 -10 -4
22 20 6 5 -8 4 -14 -10
10 1 7 0 -14 -4 -25 -16
7 -7 10 5 -12 -3 -22 -17
18 11 4 3 -16 -11 -29 -21
26 18 3 1 -13 -7 -26 -14
17 14 5 2 -6 4 -15 -4
-1 16 7 1 -1 12 -9 -1
-11 16 8 2 -5 9 -10 -2
5 11 13 6 -7 10 -6 4
13 12 11 6 -1 18 -1 6
13 13 1 -1 -4 12 -7 1
3 1 1 2 -7 6 -11 1
0 -6 6 2 -8 5 -12 -2
-1 12 4 0 -10 0 -19 -9
5 16 6 -3 -12 -4 -20 -8
12 15 7 -3 -8 2 -14 -4
15 30 13 2 -1 10 -8 0
5 26 11 1 -5 5 -13 -3
-7 2 9 1 -1 9 -8 3
-9 -2 4 0 -4 10 -9 -1
-8 2 4 -2 -11 0 -18 -9
-11 -9 5 -5 -12 0 -18 -9
-13 -24 5 -6 -9 5 -15 -8
-18 -8 7 -2 -10 1 -16 -8
-15 -3 8 -2 -11 0 -16 -5
-2 -3 4 -9 -12 1 -16 -7
15 10 3 -9 -13 0 -17 -10
18 16 -4 -3 -9 3 -19 -11
4 -5 0 -2 -12 -1 -16 -8
4 -1 4 -4 -12 2 -12 -7
8 8 2 -6 -9 2 -11 -6
8 5 5 0 -5 4 -9 -1
3 -2 12 -1 -7 6 -8 -1
1 10 3 -7 -9 2 -15 -10
11 18 -1 -10 -12 -5 -23 -16
7 9 1 -9 -18 -12 -29 -24
1 9 3 -5 -12 -6 -26 -25
-10 -1 6 -3 -9 -5 -25 -23
-1 -19 4 -8 -14 -8 -21 -18
22 -2 3 -10 -8 2 -12 -10
26 13 -1 -12 -9 0 -12 -6
5 0 -2 -8 -12 -5 -14 -3
-18 -13 6 -3 -4 5 -5 2
-27 0 3 -3 -3 4 -8 -4
-27 3 -4 -6 -8 -3 -16 -11
-27 -3 -5 -8 -5 -4 -16 -13
-20 2 -5 -15 -8 -8 -21 -20
-10 7 -6 -13 -10 -12 -27 -21
-14 -12 1 -6 -9 -9 -20 -15
0 3 7 0 3 1 -9 -6
14 24 9 2 9 11 -1 4
1 1 6 -1 8 9 -2 6
-3 -12 5 0 6 5 -3 3
7 8 2 0 0 -4 -15 -6
8 13 3 0 0 -3 -16 -7
12 8 0 2 2 -2 -18 -11
22 19 0 1 2 -5 -22 -19
16 22 3 0 -2 -6 -23 -18
13 6 5 -1 -5 -8 -23 -16
7 10 8 1 -1 -3 -16 -13
-1 11 5 2 2 0 -12 -8
-17 -4 10 7 3 0 -8 -2
-22 -10 10 10 8 7 -2 3
-2 17 5 6 8 8 -4 0
1 23 6 7 5 3 -10 -3
3 19 12 9 1 -5 -13 -7
7 27 9 8 6 0 -9 -6
19 38 6 7 3 0 -10 -5
26 34 10 15 13 11 0 3
26 39 17 22 18 17 6 5
22 42 16 22 21 19 8 6
11 28 17 21 20 17 8 10
4 15 19 22 18 12 6 8
9 34 9 14 14 9 2 6
9 34 -3 -1 3 1 -6 0
13 26 -7 -3 0 -2 -8 -2
19 38 -3 4 1 -3 -8 -2
6 33 -9 6 2 0 -5 1
-7 1 -15 1 2 2 -4 0
-8 1 -16 -9 1 2 -6 -6
-12 4 -14 -16 -13 -14 -17 -12
-4 3 -11 -11 -15 -14 -16 -8
30 21 -6 -3 -7 -5 -8 -2
51 45 -5 -4 -7 -7 -11 -7
35 33 -11 -8 -12 -13 -16 -12
10 20 -8 -6 -8 -6 -10 -7
12 30 -6 3 -2 -1 -4 -5
25 27 -12 -5 -10 -7 -8 -5
18 -3 -11 -13 -15 -11 -8 -2
4 -9 -3 -10 -9 -4 -2 6
0 3 0 -5 -1 4 5 12
0 -1 0 -6 -6 0 4 14
11 -1 -3 -10 -6 3 6 11
21 14 -9 -18 -11 -6 -6 -3
33 20 -15 -20 -10 -6 -10 -7
34 21 -7 -16 -11 -9 -10 -9
18 24 -1 -17 -17 -17 -17 -18
13 17 -8 -20 -16 -16 -21 -21
3 -9 -8 -16 -9 -11 -14 -14
-6 -12 -1 -14 -7 -8 -9 -12
-13 -6 5 -10 -6 -7 -7 -8
-20 -18 3 -14 -9 -8 -7 -4
-14 -23 6 -13 -8 -7 -4 -4
-4 -2 0 -14 -10 -11 -11 -12
-5 -5 -3 -17 -17 -18 -19 -19
-11 -9 0 -19 -20 -22 -25 -27
-5 4 6 -16 -19 -23 -27 -33
-9 -1 1 -14 -18 -23 -29 -35
-9 -22 -1 -14 -17 -21 -25 -31
5 -21 -2 -19 -19 -22 -25 -33
2 -11 0 -21 -17 -20 -24 -30
-1 -12 7 -13 -12 -14 -20 -22
-4 -21 20 0 -5 -14 -18 -22
-4 -3 29 17 9 -8 -19 -26
4 -7 31 27 16 -6 -23 -34
-8 -12 42 46 37 13 -11 -29
-10 5 54 72 65 41 11 -16
-1 19 61 91 93 71 38 6
1 8 63 108 120 106 73 35
5 13 69 127 150 144 109 63
10 23 72 147 183 188 151 97
22 27 72 170 226 245 205 137
42 34 74 203 280 311 269 182
72 71 69 223 323 367 324 227
113 103 58 225 344 409 376 276
137 121 25 193 339 434 418 321
154 142 -32 125 301 431 443 353
152 143 -83 50 252 417 452 377
137 128 -106 -8 205 390 448 391
138 147 -128 -68 138 323 406 379
124 144 -165 -152 38 215 322 334
94 108 -194 -238 -70 92 218 267
75 97 -200 -303 -164 -21 121 199
62 105 -211 -353 -243 -119 28 135
52 82 -216 -388 -301 -192 -43 78
42 54 -217 -400 -324 -225 -84 39
15 35 -219 -400 -331 -242 -117 -2
-5 9 -227 -401 -345 -268 -159 -45
-19 -11 -215 -381 -331 -259 -161 -58
-25 -14 -207 -367 -316 -245 -158 -66
-11 -14 -211 -363 -313 -245 -169 -88
-13 -31 -208 -345 -307 -250 -177 -97
-11 -35 -192 -315 -288 -238 -170 -100
6 -10 -176 -287 -264 -219 -163 -99
-1 -22 -163 -258 -243 -203 -153 -97
-13 -31 -143 -225 -221 -188 -143 -93
-17 -17 -118 -185 -189 -164 -123 -86
-25 -22 -97 -150 -160 -145 -114 -80
-28 -46 -74 -117 -128 -121 -96 -73
-13 -33 -47 -82 -91 -87 -70 -58
-8 -22 -26 -52 -59 -57 -46 -41
-12 -39 -18 -37 -42 -42 -36 -34
-26 -55 -12 -28 -35 -36 -32 -37
-34 -50 -11 -26 -38 -43 -40 -46
-28 -50 -11 -24 -41 -47 -45 -50
-14 -39 -4 -16 -33 -39 -36 -43
-1 -20 2 -11 -27 -33 -31 -43
3 -5 5 -6 -18 -25 -24 -37
6 -12 15 3 -9 -14 -13 -24
2 -23 11 4 -12 -16 -17 -28
-9 -27 4 -4 -15 -17 -19 -31
-12 -34 2 -8 -16 -16 -18 -29
-20 -39 9 -5 -15 -17 -18 -34
-26 -26 10 -2 -16 -19 -22 -37
-26 -33 7 -3 -17 -21 -25 -40
-17 -44 5 -4 -18 -24 -29 -44
-19 -45 0 -4 -20 -27 -34 -52
-33 -45 -1 1 -19 -24 -32 -50
-26 -48 9 10 -6 -11 -19 -37
-5 -38 15 14 -5 -10 -15 -35
-8 -39 12 8 -11 -16 -19 -36
-16 -49 11 9 -10 -14 -17 -29
-10 -44 13 8 -5 -8 -10 -28
-13 -29 7 4 -9 -15 -19 -37
-34 -40 3 2 -14 -19 -25 -39
-41 -47 4 2 -11 -13 -20 -35
-39 -43 2 1 -9 -12 -18 -37
-19 -30 10 9 -9 -15 -19 -33
-6 -37 19 17 1 -7 -12 -26
-1 -31 22 19 8 1 -6 -25
-6 -24 24 22 10 3 -5 -25
-23 -39 17 17 3 -1 -8 -25
-18 -40 19 17 5 0 -6 -25
-4 -21 16 16 0 -4 -10 -29
1 -19 16 16 1 -6 -10 -25
1 -28 17 16 2 -4 -10 -24
4 -27 14 13 2 -4 -13 -32
-14 -34 11 16 2 -8 -17 -35
-27 -54 11 19 2 -8 -17 -35
-20 -50 12 19 3 -7 -18 -37
-10 -33 20 22 8 -2 -12 -31
-5 -30 24 26 15 5 -4 -20
-5 -30 23 27 21 13 5 -13
-2 -15 18 26 16 6 -2 -21
-1 -18 14 24 14 3 -7 -24
-1 -21 20 28 17 3 -7 -25
-1 -12 27 32 20 6 -7 -28
-10 -17 21 27 13 1 -11 -30
-17 -34 28 32 19 6 -2 -21
-24 -43 30 35 23 12 3 -19
-34 -55 23 29 16 8 -2 -24
-41 -74 16 23 13 7 -4 -23
-26 -62 22 32 24 16 6 -17
3 -22 24 35 22 11 0 -21
19 -13 21 31 18 4 -5 -24
17 -15 25 34 23 9 -1 -20
9 -8 31 43 31 16 5 -18
-9 -14 31 46 35 19 5 -16
-27 -42 32 48 39 21 7 -15
-24 -42 30 49 38 22 6 -17
-13 -32 29 52 39 23 7 -17
-9 -34 28 51 40 23 8 -12
-4 -28 32 55 47 31 16 -7
-6 -18 24 46 37 22 7 -16
-8 -24 20 39 32 14 0 -21
-15 -31 24 42 34 16 3 -18
-14 -26 25 51 39 22 7 -18
3 -13 29 59 43 24 7 -15
6 -29 30 57 47 28 9 -13
2 -30 33 61 50 32 11 -13
-1 -30 32 65 51 29 10 -16
-6 -37 29 64 52 31 12 -10
4 -23 35 71 61 41 22 -2
9 -6 33 69 58 37 18 -7
13 -10 28 63 51 30 12 -10
12 -19 28 64 52 31 13 -8
11 -10 33 70 53 30 13 -10
12 -6 33 73 55 32 12 -8
7 -18 36 75 66 42 22 -1
13 -19 33 72 62 38 17 -6
14 -21 26 68 53 31 10 -13
3 -39 24 65 44 28 7 -13
-1 -44 25 65 38 26 7 -15
13 -13 25 66 34 24 3 -17
19 -1 32 73 35 25 5 -14
16 -2 38 80 38 29 10 -8
22 7 34 80 35 25 8 -13
16 0 30 74 31 21 4 -14
11 -18 31 73 29 22 6 -11
14 -13 28 68 28 23 7 -12
12 -7 20 57 22 18 2 -17
6 -12 12 48 15 9 -5 -20
5 -6 13 48 13 8 -4 -21
3 15 14 51 12 5 -7 -21
11 25 14 52 11 2 -7 -19
4 17 12 49 9 1 -8 -18
-5 20 15 50 7 -1 -9 -21
-3 17 11 44 2 -6 -15 -25
8 4 9 37 -1 -7 -15 -25
10 6 6 35 -3 -8 -15 -25
1 6 2 34 -6 -12 -18 -28
-3 0 2 35 -8 -15 -20 -25
-3 8 5 33 -8 -12 -16 -23
0 27 1 25 -13 -16 -21 -27
9 24 -1 18 -17 -20 -22 -28
5 10 -5 13 -22 -24 -25 -31
23 33 -2 20 -18 -22 -24 -32
34 43 1 23 -18 -21 -26 -28
22 20 6 23 -16 -20 -27 -27
9 16 5 20 -19 -20 -32 -27
-2 8 2 13 -21 -21 -35 -26
-4 -6 -2 8 -23 -21 -36 -25
5 0 -5 3 -25 -20 -33 -25
10 27 -8 4 -22 -18 -31 -21
22 38 3 11 -17 -13 -30 -17
28 31 1 10 -18 -14 -32 -21
20 34 -2 10 -17 -12 -32 -27
8 29 -2 6 -18 -12 -34 -26
1 8 1 4 -17 -10 -28 -23
4 5 -3 -1 -22 -15 -29 -23
8 12 -4 -4 -20 -12 -27 -21
5 -4 -5 -6 -21 -11 -25 -16
4 -12 -7 -8 -19 -8 -21 -16
7 4 -11 -13 -26 -15 -31 -25
7 0 -12 -15 -31 -22 -39 -33
10 5 -3 -5 -20 -13 -32 -26
10 25 3 -3 -14 -6 -27 -24
3 18 -1 -6 -20 -13 -33 -26
2 0 1 -3 -15 -6 -25 -20
1 4 3 1 -9 2 -19 -15
-7 0 1 -6 -17 -6 -23 -19
-10 -18 -2 -12 -19 -8 -23 -16
-9 -11 5 -9 -13 1 -14 -11
1 16 3 -11 -15 -2 -18 -14
2 13 0 -13 -20 -8 -23 -18
3 2 -2 -14 -23 -14 -29 -24
8 10 -3 -12 -21 -13 -30 -29
6 6 -3 -11 -20 -12 -31 -27
-1 -17 -1 -14 -19 -9 -27 -27
9 -17 -5 -15 -22 -11 -30 -31
8 -15 -10 -22 -33 -21 -38 -37
2 -27 -10 -25 -37 -23 -39 -35
-2 -21 -5 -21 -29 -13 -25 -27
-14 -8 -10 -22 -31 -15 -28 -26
-10 -6 -11 -22 -32 -16 -27 -25
2 1 -5 -17 -26 -11 -21 -21
-4 3 -8 -18 -26 -13 -23 -27
-20 -16 -12 -19 -31 -19 -31 -32
-12 -30 -7 -17 -29 -16 -26 -29
-9 -27 -3 -14 -27 -12 -23 -27
-16 -32 -7 -18 -30 -16 -26 -29
-18 -44 -6 -17 -31 -16 -25 -26
-7 -31 2 -11 -22 -7 -15 -22
8 -1 1 -11 -22 -9 -20 -25
9 1 2 -11 -20 -9 -19 -23
10 -3 2 -13 -23 -12 -21 -25
9 -1 0 -11 -24 -14 -24 -29
-7 -13 -1 -7 -21 -13 -25 -26
-19 -33 1 -5 -19 -11 -22 -26
-22 -35 0 -7 -19 -11 -22 -28
-6 -19 2 -7 -17 -9 -19 -25
4 -21 4 -8 -16 -6 -14 -19
-2 -24 4 -8 -16 -6 -10 -21
-3 -15 -2 -12 -20 -11 -17 -28
-2 -16 -4 -10 -21 -12 -19 -28
4 -13 3 -4 -14 -7 -13 -22
7 -4 5 -3 -10 -3 -11 -23
0 -7 7 0 -8 -3 -11 -21
-12 -26 7 3 -8 -3 -9 -20
-12 -26 3 1 -7 -2 -11 -24
-10 -21 2 -3 -11 -6 -16 -30
-20 -36 5 -4 -9 -3 -13 -26
-27 -42 6 -3 -8 -3 -10 -27
-11 -19 2 -4 -12 -9 -17 -30
-6 -17 2 -3 -12 -10 -17 -28
0 -16 3 -5 -11 -8 -13 -24
12 6 9 -2 -6 -3 -11 -25
9 7 9 5 -1 1 -9 -20
1 -10 14 10 8 10 0 -14
0 -13 11 10 5 5 -6 -21
-11 -22 7 4 1 0 -9 -25
-10 -29 10 7 4 5 -2 -15
-13 -25 13 8 9 10 4 -11
-7 -14 6 3 2 3 -4 -17
8 -11 3 1 -2 -2 -8 -18
16 -9 3 1 -2 -3 -9 -19
11 -2 4 3 1 -2 -9 -23
4 -3 6 4 0 -1 -10 -22
-2 -18 9 6 5 4 -5 -19
-8 -17 9 5 4 3 -6 -23
2 -7 9 4 0 -1 -9 -25
14 -12 10 5 1 -1 -7 -20
22 -12 9 4 2 1 -4 -21
15 -3 4 4 -3 -3 -9 -23
-2 -9 10 9 4 3 -2 -14
-14 -11 16 8 10 9 4 -9
-17 -7 9 2 5 5 -2 -17
-24 -18 3 -1 0 0 -7 -19
-24 -32 5 6 3 3 -1 -16
-14 -26 5 5 2 3 -2 -18
-10 -24 2 1 1 1 -5 -22
-3 -26 5 -2 -1 0 -5 -20
16 -11 5 -3 -3 0 -4 -21
13 4 1 -3 -3 -2 -9 -25
-3 -6 2 -3 -5 -7 -10 -24
-13 -17 -1 -5 -7 -9 -12 -25
-8 -5 -5 -8 -6 -6 -9 -25
2 1 -3 -5 -3 -4 -7 -20
2 -9 6 2 4 6 2 -11
10 -10 3 -1 2 4 0 -14
11 -9 2 -1 -1 -1 -4 -16
-3 -29 2 -6 -5 -5 -4 -15
-19 -41 0 -7 -8 -7 -5 -19
-16 -20 -2 -7 -7 -7 -9 -23
2 -4 5 -2 0 -3 -5 -17
15 1 10 1 2 0 -2 -16
17 17 14 5 4 2 0 -17
9 4 8 2 1 -2 -2 -15
6 -18 6 -1 -2 -6 -2 -14
3 -19 3 -5 -6 -9 -6 -19
5 -17 2 -8 -9 -12 -8 -22
0 -28 6 -5 -5 -7 -2 -14
0 -19 8 -2 -1 -1 3 -12
7 3 7 -3 -3 -5 -4 -16
-8 -10 6 -5 -5 -10 -8 -18
-14 -28 0 -11 -12 -16 -14 -24
-4 -11 -4 -12 -12 -17 -15 -27
-7 -7 2 -8 -8 -12 -12 -21
-14 -28 6 -9 -7 -10 -7 -19
-2 -24 4 -11 -7 -9 -7 -19
21 -5 4 -9 -5 -6 -4 -17
33 2 6 -7 -1 -2 1 -10
10 -3 10 -2 3 3 6 -9
-1 -1 2 -8 -6 -8 -7 -19
7 0 0 -11 -10 -13 -12 -22
11 2 5 -7 -6 -9 -8 -19
19 11 3 -8 -8 -11 -12 -24
17 3 -1 -11 -11 -16 -17 -26
0 -17 5 -9 -6 -10 -9 -20
-7 -15 8 -6 -5 -9 -9 -20
-9 -14 5 -4 -4 -9 -10 -22
-9 -30 1 -11 -8 -14 -14 -26
-1 -25 -1 -16 -10 -12 -12 -26
-4 -11 -5 -20 -12 -15 -13 -26
3 -16 -10 -24 -17 -19 -17 -25
21 -13 -8 -18 -10 -12 -12 -20
23 3 0 -10 -3 -6 -7 -20
14 -1 3 -8 -6 -12 -12 -20
13 -8 8 -3 2 -2 -1 -12
8 1 13 0 7 2 4 -8
0 -3 10 -3 3 -1 0 -12
-9 -21 8 -5 -1 -5 -3 -12
-3 -15 8 -7 -1 -4 -2 -15
4 1 1 -15 -7 -11 -12 -21
-5 -9 -2 -19 -9 -14 -15 -22
-12 -17 1 -14 -8 -12 -12 -19
-8 -9 1 -12 -10 -16 -17 -24
-1 -11 -2 -15 -15 -21 -23 -25
7 -16 2 -13 -12 -15 -14 -20
14 -11 2 -13 -11 -10 -10 -19
5 -13 -2 -15 -11 -10 -12 -18
-6 -28 1 -16 -14 -11 -11 -17
1 -17 4 -11 -9 -7 -7 -16
12 11 6 -6 -6 -5 -6 -14
17 11 5 -7 -6 -4 -6 -13
13 1 3 -9 -8 -7 -8 -15
16 4 -1 -13 -12 -13 -15 -24
4 -10 -3 -16 -16 -18 -20 -27
0 -24 1 -11 -11 -13 -14 -24
6 -13 5 -7 -6 -8 -10 -21
7 -1 11 -2 -1 -4 -7 -17
-5 -10 16 1 2 1 0 -8
4 -1 18 6 8 7 5 -5
13 21 15 3 2 -2 -4 -11
5 4 9 -4 -5 -10 -11 -16
9 -1 9 -7 -7 -10 -11 -18
22 16 12 -3 -4 -9 -10 -19
8 4 11 -3 -5 -8 -11 -19
-16 -12 21 10 8 4 3 -7
-6 2 27 14 12 9 6 -4
8 17 28 13 12 7 5 -4
10 8 28 12 13 7 7 0
19 13 24 11 15 11 12 2
21 29 21 10 14 13 12 4
14 23 21 13 15 14 15 8
16 19 17 9 13 13 13 5
21 37 18 10 16 15 14 3
11 34 19 12 17 13 11 4
12 15 20 10 14 12 12 3
19 19 15 6 10 8 8 -1
14 17 10 3 8 5 6 -3
15 1 4 -3 2 0 2 -3
30 11 2 -7 -2 -2 3 -4
34 28 -5 -12 -4 -5 -1 -6
29 20 -7 -16 -4 -6 0 -5
21 11 -9 -16 -7 -6 2 -4
28 15 -15 -16 -8 -7 -2 -11
24 4 -14 -14 -10 -10 -6 -14
9 -14 -5 -8 -2 -2 4 -5
9 -7 -2 -7 0 2 8 -2
1 -2 2 -7 0 1 7 -2
-14 -14 8 -4 1 2 11 5
-6 -8 6 -7 1 2 12 1
4 3 0 -11 -4 -6 3 -5
2 -8 -3 -15 -9 -11 -2 -9
7 -12 -2 -14 -9 -11 -1 -8
17 -1 -6 -16 -12 -14 -5 -14
20 -6 -5 -15 -13 -16 -7 -13
16 -14 5 -9 -6 -9 1 -8
17 6 15 1 6 2 10 -1
6 12 21 4 6 1 9 0
1 -9 20 1 0 -7 4 -5
-2 -15 17 1 -3 -8 4 -10
-2 -7 8 -7 -8 -15 -5 -15
7 -3 10 -8 -8 -14 -4 -12
3 -9 11 -10 -6 -12 -2 -12
7 8 13 -10 -7 -11 -2 -14
10 4 10 -10 -10 -13 -5 -15
6 -12 14 -6 -4 -9 2 -10
5 -12 12 -8 -6 -12 -1 -15
0 -24 5 -14 -15 -21 -12 -24
0 -43 3 -17 -18 -25 -14 -26
-15 -38 10 -8 -11 -19 -9 -24
-29 -26 14 -2 -8 -19 -11 -24
-18 -19 17 2 -3 -14 -9 -20
-13 -14 26 12 5 -9 -4 -19
-8 1 36 25 17 -2 -2 -19
12 4 44 38 28 4 -1 -18
6 -8 58 58 49 22 11 -12
-4 -7 64 75 71 42 23 -7
5 -4 61 86 86 59 36 -1
15 -8 62 98 110 86 61 21
11 9 74 123 145 130 104 52
13 43 85 153 186 176 147 89
32 62 96 189 238 236 203 133
61 79 98 226 286 297 262 177
79 98 91 243 327 355 318 221
102 98 73 238 344 390 362 262
127 99 38 204 342 417 407 306
137 116 -10 142 315 426 440 346
142 122 -65 63 266 414 451 370
136 109 -102 -4 218 387 445 379
141 129 -129 -63 161 335 415 372
141 157 -161 -136 76 245 350 344
131 149 -187 -213 -25 131 259 292
127 142 -196 -284 -116 23 168 236
112 145 -201 -340 -194 -68 86 180
78 111 -213 -386 -265 -152 6 123
59 72 -215 -402 -297 -191 -38 81
57 52 -226 -409 -314 -218 -78 39
49 27 -234 -412 -329 -244 -118 -7
41 15 -225 -400 -321 -249 -139 -35
26 13 -220 -386 -312 -244 -145 -53
-6 -2 -221 -376 -311 -250 -159 -73
4 -2 -213 -355 -297 -243 -160 -79
14 2 -193 -320 -273 -225 -148 -75
10 9 -177 -288 -251 -211 -142 -78
-1 -13 -168 -259 -237 -205 -140 -79
-16 -32 -138 -217 -204 -178 -119 -66
-15 -25 -114 -181 -174 -155 -105 -60
0 -13 -88 -145 -143 -132 -89 -55
19 -11 -60 -102 -104 -101 -68 -43
25 -4 -34 -68 -70 -71 -47 -37
15 -3 -20 -46 -52 -56 -40 -36
12 -5 -9 -28 -36 -42 -27 -28
17 -1 1 -19 -23 -30 -19 -24
1 -2 3 -15 -21 -27 -19 -26
-14 -22 1 -15 -23 -31 -24 -28
-20 -45 0 -15 -24 -33 -24 -31
-29 -48 2 -11 -23 -32 -26 -34
-27 -50 -1 -13 -26 -36 -32 -41
-14 -46 10 -3 -14 -26 -23 -32
7 -18 18 6 -4 -16 -14 -29
8 -3 18 9 -2 -15 -16 -29
0 -6 23 14 2 -12 -10 -23
3 -4 25 16 5 -8 -6 -18
16 12 26 17 5 -6 -6 -19
13 -3 22 10 -3 -13 -13 -22
-2 -28 24 11 -2 -13 -8 -19
-8 -28 24 14 0 -12 -8 -20
-11 -27 22 18 1 -12 -11 -24
-10 -38 24 19 4 -10 -8 -22
-8 -27 27 21 9 -4 -5 -22
-8 -8 28 24 13 -2 -5 -21
4 -8 26 23 9 -7 -7 -22
17 -10 21 18 4 -13 -12 -25
7 -10 20 18 3 -12 -13 -26
-11 -24 21 14 3 -11 -11 -20
-9 -23 29 18 10 -2 -1 -13
-11 -16 32 23 12 -1 -2 -16
-23 -24 29 25 12 -2 -4 -19
-15 -37 27 28 13 0 -2 -15
4 -18 34 37 21 6 5 -11
6 -7 28 32 19 4 0 -15
13 -8 23 27 15 1 -1 -17
8 -13 24 27 16 3 -1 -16
-6 -8 25 29 14 3 -2 -18
-13 -15 27 31 15 2 -2 -14
-13 -32 26 31 14 1 -1 -17
-6 -24 26 30 14 1 -4 -19
-6 -12 33 37 20 6 -1 -16
-13 -26 34 34 22 6 2 -14
2 -19 33 34 23 9 5 -16
16 -5 27 30 18 3 -2 -21
6 -9 30 33 21 8 2 -16
-4 -11 33 36 27 13 7 -11
-8 -8 26 34 23 9 1 -18
-17 -25 22 31 18 2 -6 -21
-21 -33 29 35 22 8 2 -15
-19 -22 35 42 29 13 7 -9
-14 -12 38 47 33 18 12 -5
-10 -24 39 48 34 19 14 -2
11 -11 37 46 36 19 14 -7
18 3 33 46 35 17 8 -10
7 -4 36 50 39 21 11 -8
-7 -8 36 51 41 24 15 -5
-11 -4 32 51 36 19 11 -8
-8 -9 30 48 32 15 7 -7
2 -9 37 56 41 24 19 2
-5 -10 36 55 40 23 15 -2
-6 -13 33 52 39 20 11 -6
-13 -27 35 53 40 23 13 -4
-10 -19 37 55 45 27 16 -4
-8 -9 31 55 42 23 11 -8
-9 -15 30 58 43 23 12 -7
5 1 37 67 51 30 22 0
22 26 41 72 57 36 28 5
10 17 40 71 56 36 28 9
2 0 43 70 57 37 31 9
-2 -7 39 70 54 33 25 3
2 -10 34 70 51 27 17 -4
11 -13 36 72 56 31 20 -1
8 -3 38 76 62 37 25 1
5 3 31 69 54 32 17 -5
-4 -14 27 67 53 29 15 -7
-20 -21 32 73 57 34 22 -1
-12 -4 34 77 57 33 20 -2
-9 -5 37 77 58 34 22 3
0 2 47 85 68 45 34 14
9 15 47 86 69 46 34 14
1 13 48 89 70 46 31 13
-1 6 54 94 75 50 35 16
2 10 57 97 77 51 34 12
5 21 54 94 71 42 25 3
7 9 48 90 66 36 19 -1
4 3 48 90 66 37 21 1
3 20 52 94 67 41 24 5
1 13 53 93 67 40 24 11
-6 -2 56 94 68 42 27 14
-24 -7 57 93 68 41 26 11
-30 -9 54 92 67 38 23 9
-33 -16 59 95 68 40 26 13
-36 0 66 100 73 47 33 15
-29 12 59 95 66 41 25 11
-18 11 54 90 63 39 25 12
-10 14 52 87 62 38 27 14
-15 21 51 84 57 34 22 10
-22 11 51 84 53 29 17 11
-10 8 53 85 55 32 22 13
-6 9 49 80 50 28 15 6
-7 7 48 77 44 21 8 0
-7 -8 48 75 41 18 8 0
-13 -3 48 75 44 22 12 1
-44 -1 48 74 43 22 11 4
-57 -10 47 73 40 18 12 7
-50 -13 43 64 35 14 9 6
-34 1 39 58 31 12 6 4
-28 -1 37 54 27 8 3 4
-25 -3 43 54 30 12 11 8
-29 0 45 52 30 14 12 9
-32 -8 37 45 21 6 4 1
-41 -35 30 38 16 1 0 -4
-45 -33 29 38 16 3 1 -6
-23 -7 28 38 16 0 -4 -6
-7 -1 32 43 17 2 0 -1
-31 -7 36 46 21 8 8 5
-43 3 39 42 22 9 8 5
-36 0 36 37 18 5 5 6
-27 -6 38 38 21 10 13 11
-35 -6 39 38 22 11 13 10
-39 -7 38 39 22 11 12 10
-41 -24 33 34 18 9 9 6
-37 -20 31 31 18 9 8 1
-49 -11 34 34 21 12 9 3
-69 -23 35 34 23 16 13 7
-72 -32 32 28 17 12 12 5
-52 -10 29 22 15 11 11 3
-30 -5 28 19 11 8 9 6
-23 -12 33 23 18 16 17 11
-27 -12 30 20 15 12 13 6
-36 -20 27 15 12 8 8 3
-49 -39 27 15 12 9 11 4
-54 -31 27 17 16 13 13 3
-53 -14 30 20 18 11 10 2
-44 -11 31 23 17 11 11 3
-37 -8 31 23 18 15 14 5
-35 -2 29 17 13 12 11 2
-33 -7 33 16 14 14 13 8
-40 -16 37 20 21 22 22 15
-53 -23 31 19 18 19 20 11
-53 -31 23 13 10 11 10 3
-58 -46 27 11 10 10 11 4
-56 -37 27 12 12 14 12 2
-52 -21 24 13 13 14 10 2
-48 -15 29 15 15 15 12 6
-45 -14 30 12 16 16 15 8
-35 -4 28 10 12 14 12 4
-36 -19 24 7 7 8 6 1
-40 -35 25 8 7 7 7 -2
-35 -26 26 9 7 7 5 -3
-45 -16 35 20 16 15 11 5
-51 -18 44 28 26 23 20 13
-42 -15 37 21 18 17 11 3
-47 -16 26 11 10 9 2 -5
-48 -25 24 4 7 7 3 -3
-42 -24 24 3 6 8 6 -1
-33 -11 20 2 5 7 4 -3
-37 -18 19 2 8 10 7 2
-53 -32 24 8 12 16 14 6
-59 -33 21 7 10 12 8 2
-56 -34 21 6 7 8 3 -3
-43 -34 26 11 10 11 7 0
-38 -15 31 18 16 17 11 0
-46 -5 34 20 19 19 10 2
-56 -15 32 20 17 17 10 1
-56 -25 27 13 12 14 9 -1
-54 -18 22 9 7 8 4 -6
-63 -30 23 10 7 7 3 -3
-55 -30 29 17 14 15 10 2
-39 -12 33 19 18 18 13 3
-42 -15 34 20 20 20 12 3
-47 -31 36 23 23 22 16 5
-37 -14 37 26 26 25 19 6
-41 -13 29 17 19 15 9 -2
-42 -20 28 19 17 14 10 -2
-43 -14 33 23 21 19 14 3
-46 -6 32 22 19 17 11 0
-55 -26 28 18 14 11 6 -3
-42 -35 28 15 14 12 8 -4
-22 -19 25 13 15 13 7 -5
-27 -19 25 15 18 14 7 -7
-41 -34 28 17 21 15 11 -5
-44 -21 33 22 25 21 16 -3
-47 -5 35 26 28 24 17 -1
-49 -12 37 28 29 25 19 2
-51 -12 38 28 31 27 22 5
-51 -9 30 22 22 18 13 -3
-54 -32 24 14 13 9 5 -8
-49 -36 29 16 14 13 10 -6
-48 -21 36 25 22 19 13 -2
-40 -16 35 25 21 18 11 -3
-56 -30 39 30 28 24 20 3
-58 -16 43 36 34 31 27 9
-40 4 35 27 29 26 21 4
-43 -7 31 24 26 24 20 4
-43 -7 29 26 27 25 21 4
-40 1 26 20 20 17 12 -3
-44 -19 22 15 13 10 6 -6
-44 -28 27 18 18 14 12 -3
-37 -20 29 20 19 15 13 -3
-44 -12 35 27 27 23 19 4
-48 -13 43 33 34 32 29 13
-44 -4 41 32 34 31 27 9
-48 0 35 27 28 25 19 5
-49 -8 33 26 26 25 18 5
-49 -13 32 22 23 22 16 3
-42 -4 28 18 19 17 13 -1
-43 -18 20 12 11 11 8 -2
-38 -27 17 8 10 12 10 -3
-50 -28 18 6 10 11 8 -6
-55 -26 23 9 13 11 6 -5
-51 -26 29 16 19 17 12 1
-49 -10 33 21 23 21 16 2
-43 -7 23 14 14 11 6 -6
-32 -10 19 10 11 9 5 -7
-35 -15 21 12 13 12 9 -4
-45 -5 25 14 15 14 11 -2
-39 -8 28 13 14 14 10 2
-42 -19 30 13 15 17 16 4
-50 -16 27 14 13 15 14 1
-45 -16 26 15 12 13 12 0
-40 -23 27 13 15 14 14 3
-45 -14 28 14 19 18 17 2
-57 -11 27 13 16 14 12 0
-49 -8 27 14 16 16 13 2
-44 -5 31 16 18 19 17 4
-44 1 26 13 14 15 13 1
-49 -14 22 9 11 13 11 1
-50 -28 22 8 10 13 14 1
-44 -24 17 3 5 7 8 -4
-38 -28 10 -5 -3 -1 0 -11
-52 -41 15 -1 3 5 4 -7
-56 -26 21 7 9 12 11 -4
-47 -4 22 7 10 11 9 -4
-37 -2 24 11 12 12 12 1
-27 0 23 9 13 14 13 2
-35 3 17 5 7 8 7 -5
-26 -4 18 5 7 7 8 -1
-22 -14 19 7 8 9 10 -1
-27 -20 15 -1 2 5 4 -7
-36 -22 14 0 4 5 4 -5
-51 -32 19 5 10 11 10 0
-34 -14 21 6 9 10 10 -5
-21 -2 18 5 4 4 3 -7
-26 -15 16 4 2 0 0 -10
-27 -17 15 3 2 1 1 -11
-37 -4 18 3 6 5 5 -7
-51 -15 21 4 7 6 7 -2
-38 -18 21 3 7 8 11 -1
-32 -9 19 3 6 9 11 -1
-25 -9 18 3 5 7 7 -2
-24 -18 18 2 6 8 6 -3
-23 -10 16 2 4 6 4 -9
-29 -3 14 1 2 2 -1 -11
-35 -9 17 5 4 4 4 -8
-39 -14 17 2 4 4 4 -9
-37 -5 13 -1 0 -1 -2 -15
-31 -7 16 3 2 2 -1 -10
-30 -9 25 8 9 11 9 -2
-33 -7 22 5 6 8 6 -5
-34 -13 14 2 2 5 2 -6
-43 -34 13 2 2 6 3 -5
-43 -21 12 3 2 6 4 -8
-34 -8 11 -2 -1 2 -2 -9
-16 1 15 3 3 8 3 -3
-10 -4 11 -2 -2 4 1 -6
-23 -4 9 -4 -4 1 -2 -9
-25 -11 11 -1 -1 4 0 -2
-19 -20 9 -2 -2 4 2 -2
-23 -20 4 -4 -7 -1 -4 -8
-19 -14 8 -1 -4 1 -3 -6
-17 -15 15 5 3 8 2 -1
-9 4 16 7 3 8 3 -4
-22 5 15 5 2 6 -2 -6
-28 0 18 7 5 7 -1 -4
-18 -1 17 5 4 7 0 -5
-27 6 20 8 6 9 3 -3
-42 -9 21 8 7 11 3 3
-40 -16 22 10 8 14 7 3
-41 -22 15 4 0 5 -2 -6
-50 -31 11 0 -2 1 -6 -10
-31 -27 16 4 3 6 -2 -5
-11 9 30 13 13 16 8 0
-10 30 39 19 20 22 12 8
-19 15 36 19 19 21 12 5
-19 13 36 19 19 22 12 6
-20 26 34 22 16 19 8 4
-35 5 31 21 16 18 8 6
-30 -1 34 24 19 21 12 8
-6 20 36 24 21 22 13 7
6 25 34 18 19 21 11 8
2 6 29 13 16 20 10 6
-13 6 27 14 17 21 9 2
-30 10 24 16 15 19 6 1
-33 12 27 19 22 25 14 9
-36 21 32 21 26 30 20 16
-30 33 27 17 21 26 17 14
-20 22 20 13 15 23 14 15
-9 13 18 11 15 23 17 16
-7 12 12 5 9 17 10 10
-5 14 13 7 9 16 10 11
-12 0 11 5 7 16 11 12
-11 7 6 4 6 16 9 9
-12 8 0 -2 0 8 0 3
-11 1 0 -2 1 9 2 3
-11 4 4 1 5 14 7 8
-11 23 8 6 8 17 9 10
-15 13 9 4 6 15 9 11
-15 3 10 3 4 16 11 11
-10 1 4 -1 -4 9 1 4
-29 -11 3 -3 -7 6 0 4
-45 -29 5 -2 -4 7 2 5
-31 -6 11 4 4 14 9 10
-26 -1 4 -1 -3 7 0 4
-17 -8 2 -3 -6 4 -2 1
-8 -4 4 -6 -8 4 -4 -1
-11 4 1 -10 -10 0 -8 -6
-25 -19 -1 -16 -14 -4 -12 -8
-24 -26 2 -14 -13 -1 -10 -9
-4 -12 1 -14 -14 -4 -14 -13
6 -5 2 -11 -13 -5 -15 -12
5 -16 6 -9 -11 -1 -14 -10
-6 -13 4 -8 -11 -3 -15 -15
-12 -7 2 -7 -13 -5 -18 -14
-7 -7 3 -12 -14 -6 -16 -15
2 -5 2 -17 -15 -6 -17 -16
4 1 -2 -19 -19 -11 -22 -22
-3 -24 -3 -18 -24 -17 -28 -23
-9 -40 0 -14 -24 -17 -27 -25
-28 -28 8 -7 -18 -11 -24 -21
-43 -26 13 -6 -12 -8 -20 -17
-23 -23 19 -5 -6 1 -13 -11
4 10 23 3 4 9 -8 -10
-3 9 21 4 0 1 -18 -20
-4 -1 24 14 6 1 -20 -25
-4 -4 36 30 19 11 -16 -25
-7 5 44 51 37 24 -10 -24
-14 -8 55 72 60 45 6 -10
-11 -8 61 92 85 73 30 7
2 16 68 111 115 105 62 32
20 36 75 133 144 143 96 60
25 33 80 157 178 185 139 93
46 51 81 186 221 236 187 126
66 68 78 214 263 290 239 168
76 76 76 234 304 349 301 220
90 84 55 223 319 384 349 262
113 105 13 183 307 402 385 301
138 118 -33 113 274 403 411 342
167 131 -72 42 235 396 428 369
181 143 -109 -22 188 363 416 372
176 155 -137 -82 132 308 379 361
163 155 -160 -153 55 224 318 336
142 162 -182 -232 -40 115 225 276
121 146 -203 -309 -137 1 122 208
105 122 -220 -374 -218 -91 39 150
83 100 -230 -425 -282 -163 -30 94
66 84 -240 -445 -314 -203 -77 52
41 47 -248 -444 -330 -225 -108 24
26 20 -246 -435 -336 -240 -137 -12
25 24 -240 -423 -330 -246 -158 -45
14 14 -239 -412 -326 -247 -168 -61
-5 -17 -235 -398 -320 -247 -175 -77
7 -3 -224 -376 -310 -241 -177 -89
15 5 -210 -349 -294 -233 -178 -94
19 1 -190 -313 -270 -216 -169 -94
31 16 -164 -268 -238 -191 -148 -84
35 33 -139 -225 -207 -170 -133 -75
25 9 -115 -186 -179 -150 -120 -68
20 -3 -86 -144 -144 -122 -100 -61
8 -3 -58 -104 -111 -97 -84 -55
-11 -15 -36 -73 -82 -73 -69 -48
-22 -34 -22 -47 -60 -54 -54 -43
-24 -18 -12 -31 -42 -39 -41 -38
-12 6 -2 -24 -32 -28 -34 -31
-11 -4 3 -22 -31 -25 -31 -28
0 -1 6 -20 -30 -25 -29 -28
10 6 1 -22 -32 -29 -36 -36
6 -14 0 -19 -34 -31 -38 -34
5 -22 4 -13 -29 -26 -33 -33
-2 -18 6 -6 -25 -23 -34 -34
-21 -25 10 -4 -21 -21 -33 -33
-21 -31 14 0 -18 -16 -27 -30
-20 -22 13 -2 -16 -14 -25 -32
-17 -17 10 -5 -19 -18 -32 -34
3 -6 15 1 -16 -13 -26 -29
18 13 25 8 -8 -4 -17 -21
23 25 24 8 -8 -8 -20 -23
18 2 21 7 -13 -12 -25 -23
18 -9 20 8 -13 -12 -24 -26
13 -10 20 10 -11 -13 -25 -29
6 -13 20 11 -10 -12 -27 -29
-6 -22 26 17 -3 -4 -19 -23
-7 -8 25 15 -2 -4 -18 -22
-14 -7 21 9 -5 -9 -24 -17
-20 -21 19 7 -9 -11 -25 -15
-20 -26 14 5 -14 -16 -29 -20
-14 -15 12 5 -15 -18 -32 -22
-7 -22 18 11 -12 -16 -31 -16
1 -18 26 19 -5 -8 -23 -9
9 5 33 23 2 -1 -17 -6
17 18 35 27 6 3 -13 -2
9 6 32 26 5 4 -12 -1
5 13 26 21 2 0 -16 -5
9 17 21 16 -3 -7 -24 -7
-1 -1 16 11 -9 -9 -27 -9
-6 -1 13 5 -10 -11 -25 -10
-1 16 13 5 -10 -14 -28 -11
-6 4 17 13 -7 -11 -25 -6
2 9 22 21 1 -2 -17 -1
9 23 24 24 4 0 -18 -2
12 17 24 25 3 -2 -21 -5
11 -3 18 22 -1 -6 -24 -10
27 19 17 22 1 -5 -24 -14
19 34 20 24 5 -3 -21 -8
1 27 24 27 6 2 -15 -2
-6 28 26 27 8 6 -11 1
-2 32 21 26 5 1 -17 -4
-1 12 17 25 0 -3 -21 -6
-6 1 18 29 4 0 -17 -4
-7 2 17 27 5 0 -20 -6
10 5 14 22 2 -2 -23 -7
7 -1 18 28 7 5 -14 -1
14 26 23 38 18 14 -6 4
16 37 25 40 18 12 -8 5
13 32 26 40 17 11 -6 7
14 35 25 38 16 12 -7 5
12 39 20 33 11 5 -15 -2
2 15 18 31 8 4 -17 -1
-2 9 23 38 14 9 -10 2
-1 13 21 38 15 9 -12 -2
5 14 23 41 18 11 -11 0
13 14 31 47 24 19 -3 7
27 36 30 51 27 21 -1 4
13 34 27 51 25 18 -5 3
8 26 28 48 24 17 -4 4
26 35 26 48 25 18 -3 5
24 44 25 48 27 16 -5 4
14 28 30 53 29 17 -5 6
11 21 33 57 31 20 -3 6
10 25 32 60 32 19 -6 3
16 22 30 61 32 16 -8 4
12 5 26 59 32 17 -7 3
24 28 27 57 32 19 -6 2
35 42 28 59 35 20 -3 7
32 33 28 58 34 20 -3 8
33 38 30 60 35 21 -1 7
25 48 30 63 36 20 -4 5
13 32 33 68 38 20 -1 10
12 29 39 76 45 27 5 15
12 35 42 78 49 29 6 16
9 34 44 81 53 31 7 18
9 24 45 82 55 32 12 20
16 37 41 76 51 29 7 13
15 38 35 73 47 25 3 12
14 26 32 72 42 21 0 10
14 22 29 65 37 15 -3 4
9 26 28 65 34 11 -8 1
10 16 30 67 33 9 -9 4
11 21 37 75 41 17 -2 8
19 31 38 75 41 15 -5 5
26 29 36 69 37 10 -9 3
30 22 37 68 37 13 -5 7
34 32 29 59 33 8 -8 1
35 32 24 56 28 4 -12 1
39 35 26 58 30 7 -7 8
30 37 26 59 29 7 -5 9
21 47 29 60 29 5 -7 8
26 38 32 60 29 6 -6 11
29 38 38 62 32 9 -2 14
18 36 38 61 31 7 -4 11
21 31 31 53 23 -2 -12 6
16 14 28 50 20 -3 -11 6
14 23 20 40 13 -10 -18 -3
22 27 14 34 6 -16 -24 -5
20 27 17 39 9 -13 -21 0
4 17 17 36 6 -16 -22 -3
-2 18 10 29 -1 -22 -30 -8
1 5 10 27 -2 -23 -28 -3
7 5 11 28 -1 -20 -23 0
42 39 16 33 8 -11 -14 9
49 44 15 33 9 -8 -12 13
43 35 16 37 14 -2 -5 17
41 49 14 34 14 -2 -5 14
32 42 5 25 6 -11 -14 7
23 29 0 17 1 -14 -16 6
16 25 -4 10 -3 -16 -16 4
10 31 -9 7 -6 -20 -20 1
10 19 -5 12 -3 -16 -17 7
6 13 -1 17 3 -10 -11 9
-5 9 -4 15 1 -11 -11 6
-8 2 -3 17 4 -10 -10 8
8 8 3 22 10 -1 1 16
25 39 5 22 15 6 6 19
25 47 2 16 13 4 5 19
13 28 -2 10 8 2 3 18
10 20 -11 1 1 -4 -1 12
9 30 -15 0 -1 -7 -5 9
6 18 -9 5 4 -3 -2 15
10 13 -8 6 4 -2 0 13
15 15 -12 1 2 -6 -5 8
8 8 -14 -1 1 -6 -6 8
-6 -7 -15 -1 2 -4 -2 9
-5 9 -17 -3 2 -4 -3 5
3 18 -19 -5 2 -4 -4 6
8 15 -21 -8 0 -5 -4 4
7 13 -22 -11 -3 -7 -6 2
9 24 -23 -10 -3 -9 -7 2
8 14 -15 0 3 -1 1 12
12 17 -7 3 9 5 9 19
18 24 -8 1 10 5 9 18
13 11 -14 -6 2 -2 2 13
11 -1 -15 -8 1 -1 3 11
7 15 -14 -7 3 -2 4 9
3 18 -13 -10 1 -3 1 8
3 12 -13 -12 -2 -5 -1 7
9 15 -12 -14 -2 -6 -1 6
3 24 -12 -11 -1 -7 -3 7
2 4 -11 -12 -5 -9 -5 7
3 1 -8 -11 -3 -8 -4 5
-6 7 -4 -7 1 -3 -2 6
-10 2 0 -3 5 -1 0 10
-2 0 2 -3 6 3 4 11
0 20 4 0 8 3 6 11
-1 15 -2 -6 2 -3 -3 6
15 6 -9 -14 -6 -11 -8 2
21 10 -10 -18 -7 -12 -7 0
15 18 -8 -16 -4 -11 -9 3
4 6 -3 -12 -1 -6 -4 8
-7 -1 2 -7 4 -1 2 11
-2 6 2 -6 5 -2 -1 7
3 0 -1 -6 3 -6 -6 3
-3 -15 -3 -7 1 -5 -5 0
-2 0 -4 -9 1 -7 -7 -4
4 5 -8 -12 -2 -10 -12 -5
3 7 -5 -6 3 -4 -5 2
6 22 2 2 11 5 6 9
4 27 -2 -2 10 2 2 8
-8 2 -1 -2 11 4 5 14
-12 2 4 5 17 11 13 18
-7 7 1 5 16 9 8 13
-1 0 -9 -3 8 2 0 5
1 -9 -9 -1 8 5 3 5
-5 1 -12 -4 6 1 0 -2
-6 7 -13 -5 8 0 -3 -2
-1 10 -8 4 13 5 2 4
3 18 -5 8 14 7 5 5
2 24 -7 4 11 3 0 2
-3 2 -9 0 10 1 -2 4
-6 -4 -6 6 13 4 2 4
-16 -4 -5 7 13 5 2 3
-19 -7 -5 5 15 5 2 6
-12 -10 -4 4 14 8 7 7
-8 4 -7 -3 12 6 5 0
-1 6 -14 -8 8 1 -3 -3
10 11 -12 -1 12 4 3 4
4 20 -5 10 21 12 11 11
-4 21 -5 9 21 8 6 8
-1 4 -7 8 19 5 3 10
-11 -5 -5 10 19 8 5 8
-10 -2 -7 5 16 7 3 5
-6 -8 -10 2 13 4 1 3
-8 -15 -10 1 11 5 2 0
-7 -1 -11 0 8 1 0 -4
-7 3 -12 -1 10 1 -3 -4
1 -1 -12 -1 11 2 0 0
-3 0 -12 1 12 2 1 0
-17 4 -12 5 14 2 -2 2
-9 -2 -6 9 19 7 5 11
-4 1 -3 11 21 11 8 11
0 8 -6 9 18 7 4 5
-4 -2 -8 7 13 2 -1 3
-12 -20 -12 1 5 -2 -2 -3
-2 2 -14 0 6 -1 -3 -5
-4 8 -15 -2 7 -1 -4 -3
2 8 -15 -3 8 -1 -3 -1
9 16 -13 -1 12 2 1 1
4 21 -12 1 13 -1 -2 1
-2 2 -11 4 14 1 -1 5
-5 -7 -12 4 13 1 0 3
-15 -17 -20 -3 5 -7 -8 -6
-23 -26 -21 -6 0 -10 -11 -8
-36 -35 -16 -4 2 -5 -4 -5
-25 -12 -18 -6 1 -5 -4 -6
5 7 -20 -10 2 -4 -2 -1
15 8 -18 -7 6 -2 1 3
-1 11 -12 0 12 1 6 7
-10 16 -11 3 15 1 4 7
-13 -1 -9 5 17 2 5 11
-21 -19 -15 -5 8 -4 0 1
-32 -28 -21 -11 1 -10 -7 -6
-24 -24 -23 -11 1 -11 -7 -5
3 -8 -14 -7 4 -2 2 1
8 12 -15 -8 4 -2 2 -3
-1 5 -19 -11 1 -7 -4 -4
4 8 -14 -6 6 -2 1 1
10 19 -11 -3 10 2 5 4
1 17 -16 -4 11 -3 0 3
-10 -11 -18 -4 10 -5 -2 5
-10 -16 -15 -5 8 -5 2 3
-6 -4 -12 -6 7 -3 2 2
-14 -9 -10 -6 6 -4 2 3
-18 -21 -12 -9 -1 -6 1 -2
-16 -9 -16 -13 -5 -10 -3 -8
-3 0 -20 -14 -5 -13 -8 -8
4 -4 -21 -14 -3 -13 -7 -6
2 -3 -21 -13 -1 -12 -6 -6
-2 3 -24 -13 5 -12 -8 -4
-11 -16 -21 -9 11 -9 -5 2
-12 -17 -18 -6 11 -7 0 2
-9 -8 -14 -5 9 -6 0 0
-6 -13 -14 -6 6 -6 -2 -1
-8 -21 -14 -13 -2 -7 2 -3
-8 -9 -19 -19 -10 -10 -1 -11
-7 -9 -22 -19 -9 -13 -5 -9
-10 -12 -19 -14 -2 -8 -1 -3
-22 -10 -17 -10 4 -5 1 -1
-23 -1 -17 -2 15 -5 -1 3
-21 -9 -11 8 22 0 4 12
-13 -12 -12 4 16 -2 3 8
-10 -9 -14 -4 7 -7 -4 2
-13 -19 -17 -11 0 -11 -7 -1
-13 -28 -18 -20 -10 -11 -7 -7
-11 -13 -22 -26 -17 -15 -11 -14
-17 -14 -24 -19 -14 -16 -14 -13
-19 -25 -23 -19 -10 -16 -14 -11
-16 -21 -22 -17 -7 -15 -13 -10
-11 -11 -22 -9 3 -13 -14 -5
-7 -20 -19 -4 11 -10 -10 4
-8 -20 -15 -2 11 -5 -6 5
-3 -8 -12 0 11 -2 -3 6
8 -1 -6 0 9 -1 -1 8
0 -12 -9 -9 -4 -2 -1 1
-7 -4 -15 -17 -15 -8 -8 -10
-5 -5 -20 -20 -15 -14 -15 -14
-7 -14 -20 -18 -14 -14 -15 -14
-1 -5 -17 -14 -7 -11 -12 -12
9 9 -16 -9 3 -11 -14 -8
-4 -16 -13 -2 10 -11 -14 -2
-10 -30 -14 -6 2 -16 -18 -8
-6 -22 -14 -8 -2 -17 -19 -10
-10 -19 -8 -5 0 -10 -11 -1
-12 -20 -3 -6 -4 -3 -2 2
-20 -4 -4 -11 -9 -4 -2 -1
-27 -9 -10 -14 -10 -9 -6 -3
-26 -15 -9 -13 -5 -6 -5 -1
-19 -8 -7 -7 0 -5 -4 -1
-19 0 -3 1 10 -6 -8 2
-8 -9 2 8 17 -2 -6 10
11 0 6 11 19 1 1 11
18 14 11 9 17 0 0 9
8 2 14 6 12 -1 -2 8
-9 -13 16 3 6 3 5 7
-1 7 13 0 0 1 3 1
2 12 11 0 2 -1 -1 0
-8 5 13 3 8 3 4 6
-7 16 19 12 18 10 12 12
-7 17 15 15 25 6 5 11
9 3 14 16 28 7 4 15
21 9 15 16 27 9 8 16
16 16 17 17 26 12 10 16
6 2 11 10 16 5 4 12
-4 -6 14 6 7 9 10 10
-9 15 16 6 5 10 11 6
-7 20 12 5 7 7 8 6
5 13 8 4 8 4 5 3
10 25 10 8 13 7 8 7
13 33 6 13 22 6 6 12
10 9 5 17 27 6 7 17
4 -4 3 13 19 3 6 13
-7 -7 -1 3 10 -1 4 10
-6 -6 -3 -2 6 -1 6 12
-5 -9 -1 -7 -2 3 11 9
0 2 -9 -16 -12 -5 3 -3
2 -3 -14 -19 -14 -12 -5 -8
-12 -15 -11 -14 -9 -10 -3 -5
-2 -2 -7 -7 -2 -7 0 -2
17 13 -7 -2 7 -9 -4 2
18 -6 -7 0 10 -11 -4 6
13 -7 -2 1 8 -7 0 8
17 1 0 -3 3 -8 1 8
19 -3 -1 -8 -2 -9 1 6
8 -11 2 -12 -8 -5 8 7
-7 -8 -4 -19 -16 -9 1 -3
-16 -13 -5 -17 -13 -13 -4 -6
-9 -12 -3 -12 -9 -12 -3 -4
-7 -7 0 -8 -6 -11 -4 -6
-11 -7 -2 -4 0 -16 -12 -9
-9 -17 5 4 9 -12 -8 0
6 -10 5 1 6 -9 -5 -1
4 -7 5 -1 1 -11 -8 -5
-4 -12 9 -1 -1 -11 -7 -2
-7 -22 8 -8 -12 -12 -6 -8
-14 -17 2 -15 -21 -19 -11 -17
-14 -16 0 -14 -19 -21 -15 -16
-15 -21 1 -11 -14 -20 -13 -14
-6 -23 -4 -14 -18 -27 -21 -22
0 -24 -11 -14 -15 -34 -31 -26
-11 -32 3 1 1 -21 -19 -10
-12 -18 16 11 9 -9 -7 -4
-7 -4 21 12 7 -8 -7 -5
-21 -16 22 11 5 -9 -10 -9
-25 -27 24 9 0 -9 -11 -18
-30 -15 25 13 2 -9 -15 -28
-36 -16 31 29 17 -6 -19 -28
-35 -18 45 57 42 13 -6 -20
-34 -13 54 80 68 33 11 -10
-21 -10 52 100 93 50 22 3
5 -3 60 126 126 85 53 32
35 27 73 151 156 126 95 65
42 47 86 176 188 170 139 100
52 51 87 199 223 218 188 136
