I II V1 V2 V3 V4 V5 V6
4 -20 28 19 26 23 4 -43
3 -29 29 20 26 24 6 -42
4 -29 30 20 27 27 8 -43
7 -28 32 22 28 28 10 -41
1 -29 29 16 24 24 6 -47
0 -27 28 16 22 24 7 -48
1 -22 26 15 20 21 6 -52
2 -24 27 16 21 22 7 -51
3 -26 29 17 23 23 9 -51
7 -18 28 17 23 23 8 -52
8 -19 27 15 22 21 7 -54
7 -23 30 18 24 23 9 -51
6 -28 30 16 23 23 7 -50
6 -29 29 15 21 22 6 -51
8 -27 31 15 23 24 8 -51
8 -36 35 20 26 27 12 -47
4 -32 36 19 26 27 12 -49
0 -27 35 19 25 26 11 -51
1 -32 34 18 26 25 10 -52
3 -28 32 18 25 24 8 -53
5 -25 31 17 24 23 7 -55
6 -29 34 19 24 24 9 -54
5 -40 38 22 29 29 11 -53
-1 -43 38 22 28 29 11 -56
0 -33 37 17 25 27 9 -62
5 -26 33 15 22 23 6 -64
12 -24 30 12 19 21 4 -66
9 -24 25 8 15 17 1 -70
1 -28 24 6 15 15 1 -71
5 -28 26 9 18 18 3 -67
8 -29 29 12 21 22 8 -62
6 -26 28 11 20 22 7 -64
7 -24 29 11 21 22 7 -67
7 -24 31 11 22 25 9 -68
7 -28 33 12 23 26 10 -69
9 -30 35 15 25 28 10 -67
12 -30 36 15 27 29 9 -67
14 -28 36 17 28 30 6 -67
15 -18 35 16 27 25 2 -65
9 -17 30 12 24 22 -1 -67
5 -19 30 10 24 21 0 -69
1 -21 29 9 23 22 -1 -69
-4 -24 30 9 24 22 0 -68
1 -20 29 7 22 21 -2 -70
3 -21 28 5 21 20 -4 -73
1 -32 30 6 23 22 -1 -72
-4 -43 31 8 24 24 1 -66
-7 -47 28 8 23 23 1 -64
-3 -43 33 10 28 26 5 -60
-3 -42 32 10 28 26 4 -60
-4 -41 31 10 28 25 4 -60
-4 -39 33 11 28 28 6 -60
-4 -32 32 8 27 26 5 -62
1 -27 29 6 24 24 2 -63
6 -31 30 6 24 25 2 -63
5 -33 30 6 25 25 2 -61
3 -29 29 5 24 25 2 -59
-1 -24 26 3 22 24 0 -60
3 -15 25 2 23 23 0 -60
5 -13 26 5 25 24 1 -59
0 -27 28 6 27 26 3 -57
-3 -32 33 10 30 31 7 -53
-1 -31 35 11 31 31 7 -54
6 -30 31 8 28 28 3 -58
13 -30 29 4 25 25 1 -58
10 -36 29 3 25 27 2 -56
9 -37 32 7 28 30 6 -52
13 -29 33 9 30 31 8 -50
13 -18 27 5 27 28 4 -54
14 -12 24 3 25 25 1 -55
14 -13 25 4 25 26 2 -54
9 -19 26 5 24 26 1 -56
1 -25 23 2 22 23 -2 -58
-4 -26 21 0 19 21 -5 -59
-8 -28 20 -2 17 20 -5 -61
-5 -27 22 0 18 23 -2 -57
-5 -23 23 1 19 23 0 -55
-5 -24 22 0 18 22 -1 -56
-1 -29 20 1 17 22 -1 -54
1 -27 19 1 18 20 -2 -55
2 -32 22 4 21 23 1 -51
3 -31 24 6 21 25 3 -50
3 -30 24 6 21 27 2 -49
5 -26 24 6 20 26 2 -48
6 -23 25 5 19 26 3 -47
10 -17 22 1 18 24 2 -48
5 -10 20 1 16 22 0 -48
3 -9 16 -3 12 17 -4 -52
2 -16 17 0 15 20 -3 -49
1 -28 19 2 17 21 -2 -51
0 -34 20 3 18 22 -2 -50
1 -34 19 3 16 21 -3 -49
0 -36 22 4 17 24 -2 -46
2 -32 22 4 17 23 -1 -46
2 -28 22 3 16 23 -1 -46
-1 -29 22 3 15 23 -2 -47
0 -24 20 2 14 21 -2 -44
3 -23 19 3 14 22 0 -42
2 -26 20 3 15 22 1 -41
2 -23 18 4 16 19 0 -43
-1 -26 18 3 14 15 -2 -43
7 -24 17 2 12 14 -4 -44
11 -21 17 3 13 16 -3 -43
5 -27 16 3 12 14 -3 -43
5 -23 15 2 11 14 -3 -42
7 -19 15 2 11 12 -3 -41
7 -19 14 2 11 12 -2 -40
4 -22 12 1 10 11 -3 -40
-2 -26 9 -2 8 9 -5 -44
0 -23 9 0 9 9 -5 -44
1 -20 8 -1 9 8 -6 -44
-1 -20 7 -2 7 7 -8 -43
-1 -24 10 0 9 11 -5 -41
-2 -25 11 1 10 11 -4 -41
-2 -23 10 0 8 9 -4 -41
-2 -20 8 -2 5 7 -6 -41
-3 -24 10 0 6 9 -3 -38
0 -26 12 3 8 11 0 -35
1 -24 11 2 7 10 -2 -35
-1 -23 7 0 4 7 -4 -37
2 -21 7 1 4 9 -3 -38
2 -18 7 1 3 8 -4 -40
-2 -24 8 0 2 8 -5 -39
-7 -31 8 0 2 7 -6 -37
-8 -32 8 -1 1 6 -6 -36
-3 -23 9 0 2 8 -5 -36
-1 -16 8 -1 1 8 -5 -37
-2 -23 8 0 1 6 -5 -35
-1 -18 6 -1 1 5 -6 -37
-5 -19 2 -3 -1 3 -9 -40
-9 -29 4 1 2 5 -5 -35
-8 -25 5 1 2 6 -6 -36
-10 -27 6 1 2 8 -5 -35
-11 -27 7 2 3 8 -4 -33
-13 -31 10 3 4 11 -2 -30
-7 -29 7 2 2 7 -4 -32
-1 -30 6 0 0 6 -5 -31
0 -26 6 1 0 5 -4 -30
-3 -25 6 1 -1 6 -4 -30
-5 -25 5 2 2 5 -4 -29
-5 -19 4 0 0 5 -5 -31
-4 -7 1 -3 -2 1 -9 -34
-3 -3 0 -5 -4 -1 -11 -35
3 -3 1 -5 -4 0 -10 -35
4 -2 2 -5 -5 0 -10 -34
2 -5 3 -2 -4 1 -8 -31
0 -14 9 2 0 6 -4 -26
0 -22 8 3 1 4 -3 -24
-5 -24 9 4 2 6 -3 -22
-9 -22 7 3 1 5 -4 -23
-11 -21 8 3 1 4 -4 -22
-10 -9 6 2 0 2 -6 -24
-11 -13 8 3 1 2 -5 -23
-7 -27 4 -1 -3 -1 -8 -25
2 -26 3 -3 -5 -3 -9 -25
2 -15 3 -4 -6 -4 -9 -26
-2 -17 4 -3 -5 -2 -7 -23
-1 -20 6 0 -2 0 -5 -20
0 -20 5 0 -3 -1 -6 -19
1 -23 5 1 -2 0 -5 -20
4 -18 8 3 0 1 -4 -19
5 -10 3 -1 -4 -4 -8 -24
5 -9 5 0 -2 -2 -7 -23
3 -16 7 2 0 -1 -5 -19
1 -13 7 1 -3 -2 -6 -19
6 -1 6 1 -3 -4 -7 -20
6 7 6 0 -5 -4 -8 -19
0 2 5 0 -5 -5 -9 -20
-2 -7 4 1 -4 -5 -9 -19
0 -9 3 3 -2 -4 -7 -18
-1 -4 1 1 -4 -6 -10 -20
-2 -8 3 2 -2 -6 -8 -17
-4 -15 5 4 0 -3 -6 -15
-3 -13 5 3 0 -2 -7 -15
-1 -7 3 1 -3 -5 -6 -15
-1 -16 6 5 1 -1 -2 -10
-1 -15 6 4 1 0 -2 -9
1 -4 3 3 -1 -5 -4 -9
7 5 1 1 -3 -6 -6 -12
9 6 0 1 -3 -6 -7 -14
8 3 0 0 -3 -7 -8 -15
9 -2 2 2 -1 -5 -6 -12
11 0 4 3 1 -2 -4 -8
10 -1 5 3 2 -2 -2 -7
4 0 2 1 -1 -4 -5 -8
-2 -1 -1 -1 -3 -6 -8 -10
-1 -11 0 0 -2 -4 -5 -8
1 -13 1 2 0 -3 -3 -6
2 -11 0 1 0 -4 -4 -7
3 -10 -1 0 0 -5 -4 -5
6 -6 0 1 1 -4 -2 -3
9 0 -2 -2 -2 -7 -6 -6
10 0 -3 -5 -5 -9 -9 -8
11 4 -4 -6 -7 -11 -10 -9
14 7 -4 -5 -6 -10 -8 -7
12 8 -3 -5 -6 -11 -10 -7
10 4 0 -3 -4 -8 -7 -5
12 9 0 -2 -3 -8 -6 -5
8 6 -2 -4 -4 -10 -7 -6
6 9 -1 -4 -4 -10 -9 -7
8 7 3 0 0 -6 -5 -4
3 -1 3 1 1 -6 -7 -5
-2 1 4 -1 -1 -7 -8 -8
-3 -2 5 1 1 -7 -7 -7
-8 -9 5 0 1 -7 -7 -5
-10 -11 5 0 0 -6 -7 -5
-9 -5 5 -2 -1 -7 -8 -5
-10 -3 5 -2 -2 -8 -7 -5
-8 -2 5 -2 -2 -8 -8 -4
-6 0 4 -2 -2 -8 -8 -3
-2 9 3 -3 -3 -8 -9 -3
1 15 1 -4 -2 -9 -8 -4
0 20 0 -5 -4 -10 -9 -6
-8 11 -1 -6 -4 -10 -10 -6
-19 -3 -3 -9 -7 -12 -13 -8
-18 4 -3 -9 -7 -12 -12 -7
-12 12 -3 -8 -7 -12 -13 -8
-12 8 -2 -8 -6 -10 -13 -9
-10 4 1 -5 -3 -8 -11 -10
-11 1 1 -3 -3 -7 -9 -7
-6 -8 6 2 4 -1 -5 -3
-2 -7 9 4 6 2 -1 -1
-2 -3 7 2 4 -1 -4 -3
-3 2 6 0 3 -1 -5 -3
-4 1 6 -1 2 -1 -6 -4
-14 -7 4 -2 -1 -4 -8 -6
-15 -8 9 5 3 -4 -10 -9
-17 -7 20 24 15 0 -11 -11
-24 -13 44 53 34 6 -13 -14
-31 -6 62 76 49 9 -17 -24
-36 -1 74 93 62 13 -21 -30
-31 -13 83 107 74 21 -17 -29
-24 -16 84 113 81 26 -15 -30
-21 -8 85 118 95 40 -5 -23
-14 9 81 123 110 59 12 -11
-1 28 77 127 127 82 37 12
18 54 64 120 139 105 64 38
35 76 44 102 140 121 86 59
54 92 20 72 129 132 108 83
81 114 -17 17 97 139 136 114
109 137 -64 -48 52 141 161 143
137 151 -113 -107 15 150 193 177
169 173 -157 -151 -11 165 224 209
193 190 -188 -184 -34 171 245 233
196 210 -213 -221 -67 164 251 247
180 231 -233 -269 -114 142 247 257
158 249 -239 -308 -159 111 226 258
139 247 -218 -320 -194 63 180 229
102 221 -184 -334 -238 -11 109 182
58 191 -150 -343 -284 -89 35 129
38 158 -126 -326 -291 -130 -11 85
29 115 -113 -294 -276 -151 -45 47
21 71 -103 -254 -248 -158 -70 15
16 39 -106 -229 -224 -153 -84 -13
14 14 -115 -213 -204 -141 -85 -30
12 -7 -118 -199 -185 -128 -80 -34
11 -28 -108 -177 -163 -111 -74 -30
2 -41 -93 -149 -138 -93 -65 -25
0 -41 -76 -122 -113 -77 -55 -22
1 -36 -60 -98 -94 -65 -49 -20
-3 -26 -52 -81 -79 -57 -48 -25
-8 -17 -43 -67 -65 -50 -44 -25
-7 -10 -31 -52 -50 -39 -38 -21
-7 -7 -22 -40 -38 -30 -33 -18
-13 -6 -15 -32 -29 -23 -29 -17
-14 -11 -7 -22 -20 -14 -22 -13
-15 -25 2 -12 -10 -5 -14 -7
-18 -23 3 -9 -10 -3 -14 -10
-17 -19 3 -6 -7 -3 -14 -10
-14 -16 5 -2 -5 -2 -13 -8
-14 -11 3 0 -3 -1 -13 -7
-15 -10 2 2 0 -2 -14 -8
-16 -12 3 3 2 -2 -14 -8
-17 -7 4 3 3 -1 -16 -11
-14 3 5 1 2 -2 -16 -13
-13 3 8 2 3 0 -13 -10
-12 -2 10 5 5 3 -12 -8
-12 -4 10 5 4 5 -10 -8
-15 -5 8 6 3 4 -10 -8
-11 -5 11 9 6 7 -7 -4
-12 -8 10 10 7 7 -7 -5
-15 -14 10 11 10 8 -8 -5
-16 -15 12 13 12 8 -8 -4
-17 -9 9 9 10 5 -12 -8
-15 -4 10 10 10 6 -11 -10
-18 -3 9 7 8 5 -12 -11
-19 1 6 6 3 4 -13 -12
-18 5 5 5 2 5 -12 -12
-18 3 5 7 2 4 -11 -11
-17 -4 6 9 5 6 -9 -8
-14 -4 8 14 9 10 -7 -3
-12 -9 11 16 13 12 -4 0
-12 -6 10 16 14 9 -6 -3
-10 -7 13 16 16 12 -5 -2
-10 -2 14 16 18 12 -4 -2
-8 5 13 14 15 10 -6 -6
-7 11 12 13 14 10 -7 -9
-5 19 9 11 11 11 -7 -12
-5 20 7 11 10 7 -8 -12
-19 1 4 9 7 4 -13 -11
-26 -9 2 8 6 2 -16 -16
-22 -17 7 14 13 8 -10 -12
-18 -23 13 19 18 11 -7 -9
-15 -24 18 21 22 17 -3 -5
-13 -25 18 22 23 18 -2 -6
-13 -18 17 20 21 18 -3 -6
-10 -11 16 18 19 17 -4 -7
-10 -9 17 19 19 19 -3 -7
-8 -3 13 18 17 17 -3 -9
-12 -5 10 16 14 14 -6 -10
-19 -8 4 13 11 9 -11 -16
-23 -7 4 13 11 8 -12 -17
-22 -2 3 12 11 7 -13 -18
-21 4 4 11 12 8 -13 -19
-19 1 7 14 13 11 -11 -17
-18 -11 13 18 17 17 -5 -11
-14 -8 13 18 17 17 -4 -10
-13 -11 13 20 17 19 -3 -8
-12 -12 13 21 17 19 -2 -7
-8 -6 10 19 15 16 -3 -9
-4 1 8 19 16 14 -6 -12
-6 1 10 20 17 15 -5 -11
-8 1 8 19 16 13 -7 -12
-9 3 7 18 17 13 -8 -16
-9 2 8 18 18 14 -8 -16
-10 -1 8 18 16 15 -8 -14
-11 -4 9 19 17 17 -6 -11
-9 -2 9 21 17 18 -4 -10
-9 -7 10 23 18 19 -3 -7
-13 -11 8 22 18 18 -4 -8
-11 -7 7 23 19 16 -4 -9
-11 -3 5 21 18 14 -7 -11
-13 -3 5 19 18 13 -8 -12
-14 5 1 15 16 10 -12 -17
-13 1 4 18 18 12 -10 -16
-12 -15 10 23 22 18 -4 -10
-10 -17 10 25 24 21 -2 -8
-6 -12 10 26 24 23 0 -7
-2 -8 10 27 24 24 1 -5
1 -4 8 27 24 22 1 -6
3 2 7 28 25 22 0 -7
4 2 7 28 25 22 1 -8
4 0 7 27 25 21 0 -7
-2 -4 4 25 24 19 -4 -11
-3 -10 6 25 25 21 -2 -11
1 -7 6 25 24 21 -2 -10
-2 -13 4 26 23 21 0 -8
-6 -18 1 24 21 20 -1 -11
-3 -16 0 23 20 20 0 -8
2 -13 0 26 21 21 2 -7
6 -10 0 27 22 21 2 -7
6 -14 1 27 25 23 5 -5
5 -15 -2 26 24 21 3 -7
7 -7 -3 23 21 18 0 -10
9 2 -6 19 18 16 -3 -13
10 4 -8 17 15 14 -2 -14
10 2 -9 17 14 15 -2 -13
8 -2 -10 17 12 15 -2 -12
12 8 -12 15 9 13 -2 -13
16 13 -13 14 8 12 -1 -12
16 8 -12 16 11 15 1 -9
18 11 -13 15 11 13 1 -10
21 3 -9 20 16 17 7 -6
17 -6 -7 20 15 17 6 -6
8 -19 -9 17 14 16 4 -8
4 -21 -10 15 11 14 5 -8
6 -10 -12 13 7 13 3 -8
12 -1 -12 11 5 12 4 -9
14 4 -17 7 0 8 0 -11
19 5 -18 7 -2 7 1 -10
20 -3 -16 8 1 9 2 -6
18 -7 -15 10 1 8 4 -6
19 -2 -15 10 2 8 3 -6
19 -1 -13 8 2 8 4 -5
19 -4 -10 10 3 11 4 -5
19 -3 -9 10 2 11 5 -5
20 3 -12 7 -2 9 2 -9
21 9 -11 6 -3 9 3 -9
24 16 -12 6 -4 8 2 -8
20 17 -15 4 -7 5 1 -11
17 17 -15 4 -6 5 -2 -13
16 19 -14 4 -6 5 -1 -14
14 10 -10 8 -1 8 2 -10
15 -2 -1 15 7 17 8 -4
15 -10 5 20 13 23 12 -1
15 -2 5 19 11 22 11 -5
9 -3 2 15 7 20 8 -8
6 -6 3 14 5 20 7 -10
8 -2 2 15 6 20 7 -9
8 3 2 15 6 20 7 -10
8 11 0 12 4 17 3 -13
4 14 -2 9 2 14 -1 -18
-1 13 -2 9 2 14 -3 -20
1 14 0 10 4 16 -1 -19
3 6 6 13 9 22 2 -15
1 0 9 15 12 25 6 -13
0 5 9 15 11 27 6 -13
-3 1 9 14 11 28 6 -14
-3 -5 12 17 14 31 9 -11
-3 -5 13 18 15 33 10 -12
-5 -2 12 16 15 32 8 -13
-5 0 13 17 16 32 8 -14
-4 4 12 16 16 31 7 -15
0 4 14 16 18 34 8 -15
0 3 15 15 17 35 7 -16
-5 2 12 11 14 33 6 -18
-7 1 12 11 14 35 6 -17
-7 -1 14 11 15 36 8 -15
-6 -2 14 13 16 38 10 -13
-3 4 12 12 16 37 10 -13
-5 6 9 10 13 34 6 -17
-11 2 7 8 12 32 4 -19
-9 0 10 9 16 35 8 -16
-6 2 11 10 17 36 8 -17
-6 9 10 7 13 34 4 -21
-6 13 9 5 12 32 4 -22
-5 7 11 7 13 36 6 -17
-3 7 12 7 13 38 8 -16
-5 10 8 5 10 36 7 -18
-8 11 2 0 5 30 3 -22
-7 15 2 0 5 29 1 -22
-8 15 5 3 8 31 4 -20
-7 15 7 5 11 32 6 -18
-10 -1 11 8 14 36 9 -15
-17 -17 15 10 17 40 10 -14
-12 -11 11 5 13 35 6 -19
-7 -2 9 2 9 32 2 -22
-7 -1 9 3 9 35 4 -21
-5 -2 10 5 10 36 5 -19
-4 -3 10 6 11 36 7 -18
-3 6 9 6 10 35 5 -20
-7 7 7 3 9 33 4 -21
-11 3 5 1 7 30 1 -24
-10 3 6 2 10 31 1 -23
-11 -1 9 4 13 34 3 -21
-12 -12 13 8 16 37 7 -18
-12 -16 15 10 17 40 9 -16
-12 -9 11 6 14 38 7 -19
-11 -3 10 6 14 37 7 -21
-9 1 9 7 14 37 7 -24
-9 -4 12 9 16 39 6 -23
-13 -11 11 8 16 37 6 -25
-14 -11 10 8 16 35 4 -29
-13 -10 11 8 17 36 2 -28
-9 -1 12 9 18 38 3 -24
-9 1 11 8 18 39 4 -22
-9 4 11 8 17 39 4 -24
-7 11 10 8 17 39 4 -23
-7 11 9 10 17 40 5 -21
-7 3 9 12 19 40 7 -19
-9 -5 11 13 21 41 7 -20
-8 -7 13 15 24 42 8 -20
-7 -8 15 18 26 42 8 -20
-10 -6 15 17 26 43 6 -25
-12 -7 16 17 26 42 7 -27
-9 -3 17 18 27 42 6 -26
-5 2 19 19 27 45 8 -23
-5 5 20 19 27 46 9 -21
-7 3 17 19 25 44 9 -23
-3 8 14 18 25 43 7 -22
3 13 14 18 25 43 8 -23
-1 9 14 18 25 42 7 -23
-8 0 13 17 25 40 6 -24
-21 -11 10 12 21 38 2 -28
-21 -9 9 10 20 35 0 -31
-18 -6 12 14 23 40 4 -26
-16 -3 13 16 24 41 6 -25
-16 -9 17 20 27 45 9 -25
-16 -15 18 23 30 47 13 -23
-18 -14 18 24 30 47 12 -23
-15 -9 17 24 31 46 11 -22
-14 -7 15 22 30 44 10 -24
-11 -5 17 24 31 44 11 -22
-10 -1 18 23 31 44 10 -24
-7 -4 15 19 29 41 8 -26
-4 -10 14 18 26 41 6 -28
-3 -5 13 19 28 43 7 -26
-5 0 13 19 28 44 10 -23
-2 -1 13 20 29 44 12 -23
-3 -2 14 23 28 45 11 -22
-4 -2 14 22 28 43 11 -23
-3 1 16 23 29 43 12 -21
-8 -7 16 23 29 41 10 -22
-9 -11 18 23 30 41 8 -23
-7 -8 17 20 29 39 7 -25
-11 -7 16 18 26 38 5 -29
-12 -4 15 16 25 37 4 -30
-13 -2 13 15 23 37 4 -30
-9 0 12 15 24 37 7 -27
-8 0 13 17 24 37 8 -27
-7 1 11 15 23 36 7 -29
-6 3 11 16 24 36 7 -27
-8 -3 12 16 26 36 9 -26
-9 -7 14 17 26 36 8 -26
-10 -5 13 15 26 35 8 -26
-10 -7 14 16 27 37 10 -23
-8 -12 16 18 29 39 12 -20
-6 -11 17 20 29 40 14 -17
-5 -5 16 19 28 38 14 -17
-5 -4 15 18 26 36 12 -18
-2 0 15 18 26 35 11 -20
-2 5 12 14 23 31 6 -24
-1 7 13 15 25 30 6 -24
-9 -9 15 15 25 30 6 -24
-16 -17 13 14 24 29 4 -25
-15 -7 12 11 21 27 3 -27
-17 -7 10 10 19 25 3 -30
-15 -8 10 12 19 27 4 -29
-17 -6 9 11 19 27 4 -28
-17 -9 10 11 19 25 4 -27
-9 -9 11 12 21 26 4 -26
-3 -3 10 10 19 25 3 -27
-1 9 9 8 19 24 2 -28
0 11 10 9 19 24 3 -28
-2 8 11 9 19 25 3 -29
-2 1 12 9 19 27 6 -26
-5 -7 13 11 21 28 9 -23
-14 -17 11 10 19 27 6 -25
-12 -13 11 9 18 26 7 -27
-8 -8 11 11 18 26 6 -27
-8 -12 12 13 20 27 7 -24
-9 -11 13 13 20 26 5 -24
-12 -9 11 10 19 24 3 -25
-13 -5 9 8 17 23 2 -28
-12 -5 11 7 18 22 3 -28
-13 -10 11 8 17 24 3 -28
-14 -14 11 9 18 26 7 -25
-11 -8 10 9 17 25 6 -26
-8 -8 12 11 18 26 8 -24
-9 -7 13 12 19 26 8 -23
-14 -11 12 13 19 25 7 -25
-18 -11 12 11 18 23 4 -27
-21 -9 9 6 15 19 1 -28
-20 -7 9 6 14 19 1 -29
-16 2 9 5 14 19 0 -29
-11 2 8 5 14 20 0 -28
-5 -2 9 5 14 20 1 -28
2 1 7 5 13 18 0 -28
0 -5 11 8 16 21 4 -22
-5 -15 13 9 16 21 5 -20
-10 -15 10 7 14 18 2 -24
-11 -8 8 5 11 14 -2 -27
-17 -11 7 3 10 13 -3 -29
-18 -17 9 4 10 14 -1 -28
-14 -11 9 5 12 15 -1 -29
-17 -13 9 3 11 15 -1 -30
-18 -15 8 4 12 16 0 -30
-14 -12 8 5 10 16 -1 -28
-14 -14 9 5 11 16 0 -27
-12 -14 11 6 11 17 2 -25
-13 -14 10 7 12 16 1 -24
-11 -14 11 8 13 16 1 -25
-9 -6 9 5 12 13 -1 -28
-10 -9 11 8 13 16 1 -25
-9 -10 12 7 14 17 2 -23
-7 1 8 4 11 15 0 -26
-11 2 7 2 10 14 1 -25
-12 -1 9 6 14 19 3 -21
-8 -4 11 7 15 19 5 -18
-9 -13 12 7 15 18 5 -18
-12 -22 12 9 16 19 5 -18
-9 -21 11 8 14 18 2 -19
-11 -25 10 7 15 18 3 -19
-9 -21 12 8 15 20 3 -19
-8 -16 11 7 16 20 2 -21
-12 -16 10 5 13 18 0 -23
-13 -14 9 3 12 17 -1 -24
-16 -13 7 3 10 16 -1 -23
-14 -6 5 1 8 13 -3 -25
-11 -5 7 3 9 14 -1 -22
-15 -6 2 1 6 11 -5 -27
-16 -11 2 2 8 12 -5 -27
-14 -19 7 6 13 18 1 -22
-10 -18 9 7 13 18 1 -20
-9 -22 12 9 16 19 2 -18
-10 -22 13 8 15 20 3 -18
-12 -19 10 5 13 18 2 -19
-13 -15 8 4 10 16 1 -19
-18 -13 2 -1 5 11 -3 -24
-22 -17 0 -3 3 9 -4 -25
-20 -18 0 -1 4 10 -3 -24
-15 -14 0 0 5 11 -2 -22
-12 -18 4 3 9 14 1 -20
-12 -21 5 3 9 13 0 -19
-13 -19 4 1 7 12 -1 -21
-14 -18 4 1 8 13 -1 -20
-12 -20 5 3 9 14 0 -20
-10 -14 5 4 8 14 0 -19
-9 -8 4 5 9 16 2 -17
-6 -6 4 7 11 15 2 -17
-5 -5 3 6 9 13 -1 -20
-8 1 -1 3 6 10 -4 -23
-4 3 -1 4 9 12 -3 -21
-3 -1 0 6 10 13 0 -20
-5 -8 1 8 11 15 1 -19
-2 -12 5 11 15 19 6 -15
-1 -16 6 13 18 22 7 -13
-5 -24 5 13 17 21 7 -13
-10 -30 2 8 14 19 5 -13
-19 -40 1 7 13 18 5 -13
-17 -39 2 9 14 18 6 -12
-14 -29 0 7 12 16 3 -16
-11 -23 -3 3 9 13 1 -19
-6 -16 -4 2 9 13 0 -19
-7 -12 -2 3 9 13 2 -18
-9 -11 0 5 12 16 5 -15
-3 -7 0 5 11 18 7 -12
6 -7 -3 2 8 15 5 -13
5 -16 -3 4 10 18 7 -11
2 -19 -3 7 13 20 9 -12
2 -16 -5 5 11 20 8 -13
2 -13 -7 4 11 18 6 -16
-1 -15 -9 2 8 14 1 -18
-3 -16 -10 -1 6 10 -1 -20
0 -17 -8 0 8 12 1 -17
-3 -17 -9 -1 7 11 1 -17
-3 -21 -9 -1 7 14 2 -15
-3 -23 -6 2 9 17 6 -13
-3 -18 -7 0 8 16 3 -14
-1 -12 -8 -1 6 14 2 -16
-2 -8 -8 -2 5 12 0 -17
-4 -5 -10 -3 6 13 0 -18
-4 -6 -9 -2 6 15 0 -17
-9 -16 -5 1 8 17 1 -17
-12 -18 -3 1 9 18 0 -17
-12 -17 -1 3 10 18 2 -17
-11 -15 -1 3 8 18 2 -16
-11 -9 -2 1 6 18 2 -16
-15 -10 -3 -1 5 17 1 -16
-13 -11 -3 1 6 17 3 -16
-10 -8 -2 3 7 17 4 -15
-10 -6 -3 2 5 15 2 -16
-11 -6 -3 1 6 15 0 -17
-11 -7 -2 2 6 15 -1 -19
-11 -13 -1 2 7 18 1 -18
-12 -10 -2 0 6 17 -1 -22
-18 -13 -4 -1 5 15 -3 -24
-21 -20 -4 -1 4 16 -2 -23
-19 -20 -5 -1 4 17 -1 -20
-21 -29 -2 4 8 20 4 -15
-22 -28 -4 3 7 19 4 -15
-25 -27 -6 -1 3 14 1 -17
-27 -26 -6 -2 3 14 0 -17
-24 -23 -6 -2 4 15 1 -16
-25 -21 -6 -3 3 15 0 -18
-25 -17 -6 -2 3 16 0 -17
-23 -12 -6 -3 2 16 -1 -17
-21 -11 -4 -2 4 16 -1 -17
-22 -13 -2 4 5 16 -2 -16
-27 -19 7 18 15 17 -3 -17
-28 -21 24 41 31 20 -5 -23
-32 -30 49 71 54 27 -5 -27
-38 -37 69 97 73 35 -5 -29
-40 -37 80 113 86 39 -7 -35
-36 -35 83 121 90 41 -9 -39
-31 -30 83 123 96 47 -3 -36
-26 -13 80 125 109 63 9 -26
-21 9 74 125 122 80 27 -13
-7 31 63 130 142 106 55 13
12 50 51 134 159 134 86 43
31 65 29 117 160 149 111 68
58 93 1 84 149 164 142 99
86 118 -42 24 112 169 172 132
118 129 -96 -44 65 175 203 166
156 149 -145 -95 34 189 239 200
180 163 -178 -136 5 200 266 230
188 181 -201 -170 -23 200 279 250
178 202 -211 -203 -58 180 273 256
153 217 -224 -248 -112 137 246 250
131 220 -227 -283 -162 85 196 222
97 213 -205 -307 -212 16 129 179
52 198 -165 -321 -261 -59 58 133
23 164 -128 -310 -273 -99 17 97
9 115 -98 -278 -260 -114 -8 66
5 72 -77 -238 -234 -122 -30 38
0 25 -60 -195 -202 -127 -55 6
-5 -7 -66 -176 -185 -127 -69 -19
-10 -22 -85 -171 -174 -120 -72 -30
-19 -27 -104 -166 -164 -111 -69 -29
-24 -25 -103 -154 -149 -98 -65 -32
-23 -18 -94 -134 -130 -88 -62 -35
-16 -23 -86 -115 -113 -77 -60 -38
-17 -41 -71 -90 -91 -64 -52 -36
-20 -43 -60 -73 -74 -55 -48 -37
-24 -43 -48 -55 -57 -42 -40 -32
-21 -41 -33 -38 -41 -28 -32 -26
-19 -35 -24 -28 -28 -18 -24 -21
-20 -34 -18 -21 -21 -12 -21 -18
-16 -31 -13 -15 -16 -7 -18 -17
-16 -37 -7 -7 -9 -1 -12 -11
-17 -36 -3 -3 -5 3 -7 -7
-19 -28 -3 -1 -5 3 -6 -5
-20 -20 -6 -1 -5 2 -8 -6
-21 -18 -6 2 -2 2 -9 -4
-23 -18 -6 3 0 1 -8 -4
-22 -17 -6 5 3 3 -8 -5
-18 -13 -3 7 5 4 -7 -5
-17 -18 -1 9 8 8 -4 -4
-19 -22 0 10 8 10 -4 -5
-20 -23 2 11 8 13 -3 -8
-17 -18 1 10 6 9 -6 -11
-16 -12 0 10 5 7 -10 -10
-17 -15 -1 11 6 7 -10 -9
-19 -16 -3 10 6 5 -10 -9
-24 -21 -5 10 5 3 -12 -10
-29 -25 -5 9 5 3 -14 -10
-27 -17 -5 9 6 4 -13 -9
-23 -17 -1 11 9 8 -9 -5
-18 -19 0 12 8 12 -6 -2
-17 -18 0 12 7 13 -5 -2
-22 -28 1 15 9 13 -4 0
-21 -34 3 18 10 14 -3 2
-18 -27 1 17 8 12 -5 1
-19 -24 0 16 10 10 -6 0
-20 -27 2 19 13 13 -4 1
-20 -32 5 22 17 15 -1 3
-23 -32 4 21 17 13 -3 4
-27 -32 3 18 16 11 -3 3
-30 -33 3 18 13 12 -4 4
-31 -26 3 18 13 12 -4 6
-26 -17 2 17 13 12 -4 6
-15 -11 -2 15 10 9 -6 3
-7 -9 -5 13 7 4 -10 0
-9 -10 -5 14 10 6 -8 1
-13 -18 -1 19 14 11 -4 5
-16 -19 -2 19 15 12 -5 4
-20 -22 -2 16 13 11 -8 2
-22 -24 -3 14 12 11 -10 0
-19 -21 -3 14 11 11 -10 -2
-17 -20 -2 14 12 12 -9 -2
-17 -22 0 16 13 14 -7 1
-18 -26 -1 18 12 14 -6 2
-17 -23 -1 20 11 13 -6 6
-15 -19 0 20 14 16 -4 9
-15 -21 2 22 17 19 -2 10
-20 -24 1 21 17 16 -5 7
-21 -32 6 24 20 20 -3 10
-20 -32 7 24 22 22 -1 11
-16 -19 6 24 21 22 -1 11
-13 -16 3 23 19 22 -3 11
-7 -13 -1 18 13 17 -6 8
-2 -3 -4 17 10 15 -7 8
-4 -4 -2 20 12 14 -7 10
-3 -11 2 24 17 19 -3 14
-3 -8 0 24 18 19 -3 11
-9 -13 -2 22 18 17 -7 5
-11 -21 1 24 19 18 -6 4
-14 -30 2 25 20 20 -3 9
-17 -35 1 25 20 18 -2 12
-17 -32 -1 21 16 15 -5 11
-21 -34 -4 18 13 12 -8 8
-23 -30 -8 17 10 10 -10 6
-20 -25 -8 18 11 10 -8 9
-15 -19 -8 18 13 11 -10 9
-11 -17 -7 20 17 12 -9 12
-12 -19 -6 22 18 12 -8 13
-11 -20 -6 22 19 12 -7 14
-8 -22 -4 23 21 13 -5 16
-8 -21 -5 23 21 13 -7 17
-8 -23 -5 24 21 15 -8 18
-6 -23 -5 23 19 13 -6 18
-8 -31 -3 26 22 17 -1 23
-7 -33 -4 28 24 18 0 25
-5 -27 -6 26 24 18 1 25
-5 -25 -7 27 25 18 2 26
-5 -23 -9 25 24 16 0 24
-5 -24 -10 24 24 16 -2 21
-4 -22 -11 22 24 17 -2 20
-2 -24 -11 23 23 15 -2 21
-2 -26 -12 23 22 15 -2 21
2 -22 -13 22 20 14 -2 22
4 -25 -12 24 22 16 1 26
7 -28 -11 25 22 19 3 29
10 -24 -14 25 22 17 3 28
13 -23 -14 25 24 16 3 29
10 -28 -15 25 24 17 3 30
7 -31 -16 24 24 16 3 29
9 -31 -18 22 22 15 3 29
7 -29 -19 21 20 15 4 31
2 -33 -23 17 15 11 2 27
3 -30 -26 14 11 7 0 25
7 -23 -28 13 9 5 0 26
8 -20 -28 12 9 5 0 27
13 -15 -31 11 8 2 -1 26
16 -16 -32 11 8 1 -2 27
14 -19 -29 13 9 3 -2 29
16 -18 -29 12 9 3 0 29
17 -21 -28 11 9 5 2 32
16 -28 -26 13 9 5 5 37
17 -27 -26 12 7 5 6 38
16 -25 -27 11 5 3 7 40
15 -28 -22 16 8 7 13 46
15 -30 -21 19 9 9 13 47
15 -25 -24 15 7 5 9 40
19 -10 -29 11 4 -2 3 36
12 -7 -29 9 1 -4 0 36
12 -7 -30 7 -1 -8 -4 34
23 -3 -32 4 -5 -11 -6 30
27 -3 -34 1 -9 -13 -8 29
29 -7 -26 8 -3 -5 0 34
24 -16 -23 12 1 -3 5 37
20 -18 -23 12 -1 -4 4 35
15 -24 -22 12 -1 -5 3 36
12 -23 -21 14 0 -5 4 37
11 -23 -18 17 4 -3 5 39
13 -23 -12 22 8 2 9 43
15 -15 -14 19 5 -2 4 38
16 -12 -16 14 2 -6 0 32
11 -14 -16 14 1 -5 -1 32
8 -16 -14 14 0 -4 0 30
8 -14 -12 17 4 -1 3 33
8 -8 -12 16 2 -2 1 30
5 -6 -14 16 0 -5 -3 28
4 -8 -11 17 3 -3 -3 27
1 -10 -10 17 4 -5 -4 26
2 -7 -8 18 5 -2 -3 26
2 -7 -6 18 7 -1 -3 25
2 -15 0 20 10 5 1 27
2 -18 3 22 12 8 3 30
-1 -19 4 21 9 8 3 29
-6 -20 3 19 8 5 1 28
-5 -19 4 19 7 6 2 28
-5 -17 3 21 7 6 2 27
-4 -12 3 20 7 6 3 25
-6 -12 3 18 7 5 0 23
-8 -13 2 18 7 5 -1 21
-5 -10 2 17 7 4 -2 19
-4 -8 1 14 5 2 -3 17
-5 -2 -1 11 2 2 -5 16
-10 -7 -2 10 0 1 -4 14
-15 -35 3 15 5 6 1 19
-10 -26 1 12 1 4 -1 17
-8 -14 -1 11 -1 2 -2 16
-9 -13 -1 10 -1 0 -3 16
-9 -14 0 11 1 0 -3 17
-10 -13 -1 10 0 -2 -5 15
-11 -16 1 11 1 0 -4 17
-9 -10 2 9 0 0 -4 16
-8 -7 0 8 -1 0 -4 16
-6 -3 0 8 -3 -1 -3 15
-4 -1 1 7 -3 -1 -2 15
-2 -3 2 8 -2 0 -1 16
1 -5 3 11 -1 0 -1 18
1 -8 4 12 2 -1 0 18
-5 -14 4 11 1 -1 -2 17
-15 -25 0 7 -3 -4 -4 14
-17 -23 -1 7 -2 -5 -5 13
-11 -11 -1 6 -4 -6 -6 13
-13 -13 0 5 -5 -6 -6 12
-15 -13 0 4 -6 -7 -8 11
-12 -9 1 4 -6 -6 -6 12
-10 -8 -1 4 -8 -8 -6 12
-9 -10 -1 4 -8 -9 -7 12
-8 -11 0 6 -6 -8 -6 14
-9 -17 2 8 -3 -6 -4 16
-7 -14 1 7 -4 -8 -5 15
-7 -14 3 9 -2 -8 -5 14
-8 -16 4 9 -2 -7 -6 10
-10 -16 2 7 -4 -8 -9 5
-12 -19 4 9 -3 -7 -7 6
-9 -16 7 12 1 -4 -4 11
-7 -12 7 14 2 -1 -2 15
-9 -8 5 10 1 -1 -5 12
-11 -4 4 11 1 0 -5 11
-14 -1 4 13 3 1 -4 11
-16 -5 5 12 3 1 -6 9
-14 -24 7 14 6 2 -5 9
-10 -25 5 11 4 1 -6 7
-7 -16 3 10 3 2 -7 7
-3 -8 4 10 2 3 -5 6
-2 -8 4 11 4 3 -4 7
-1 -14 9 17 9 8 1 11
0 -16 9 19 11 8 1 13
-6 -17 6 17 10 5 -4 10
-8 -21 6 17 12 5 -4 10
-10 -26 6 18 12 7 -4 9
-10 -19 6 17 12 5 -7 7
-11 -14 6 16 12 5 -7 5
-12 -11 5 15 10 4 -8 4
-11 -10 5 16 10 5 -6 3
-9 1 3 14 8 2 -8 2
-7 7 2 14 7 2 -10 1
-6 -2 7 18 12 4 -5 6
-6 -17 10 23 17 9 -2 10
-5 -23 14 27 22 11 3 15
-5 -18 12 25 21 9 0 12
-5 -12 12 24 20 8 -2 11
-5 -13 10 22 19 7 -3 10
-9 -17 11 21 19 7 -1 9
-7 -14 11 22 17 9 0 9
-5 -12 11 23 19 8 1 11
-5 -11 10 23 18 7 2 10
-1 -6 11 23 19 7 2 9
2 -2 11 24 20 8 2 11
4 -2 12 26 22 8 4 13
6 9 10 24 20 7 2 10
5 2 13 26 23 8 2 11
-2 -6 12 23 21 4 0 8
-8 -10 10 20 18 3 -1 6
-9 -11 10 18 17 3 -1 6
-9 -6 8 18 15 2 -2 5
-7 -5 9 19 16 4 0 7
-8 -13 11 22 19 6 3 10
-11 -19 12 23 21 5 4 12
-10 -17 9 21 18 1 0 8
-5 -7 8 19 17 -1 -1 7
-3 -2 10 19 17 -1 -1 8
-3 -4 11 19 19 0 0 10
-1 -1 13 21 19 2 3 13
-2 -8 15 22 21 4 7 15
-3 -13 17 25 23 6 10 17
-4 -15 17 26 24 7 11 17
-5 -9 15 23 21 2 7 14
-4 -2 12 21 21 0 4 14
-7 -3 9 19 18 -4 1 10
-6 1 4 13 13 -9 -5 2
2 -5 7 14 15 -8 -3 3
4 -14 13 19 21 -1 2 8
3 -9 14 19 20 -1 4 10
6 -6 14 18 19 1 5 10
3 -2 14 17 18 -1 5 9
2 -1 10 14 15 -4 3 6
0 -2 9 13 15 -5 2 4
-5 -3 5 10 13 -9 -2 2
-6 -4 5 10 13 -10 -4 2
-6 -6 6 12 15 -8 -2 3
-6 -3 8 12 15 -6 -1 3
-5 -2 8 12 15 -6 -2 3
-5 -5 8 10 14 -8 -1 3
-5 -2 9 10 13 -7 -1 4
-6 -1 10 12 15 -4 2 7
-5 0 9 12 14 -5 2 8
1 4 5 7 10 -8 -2 2
3 4 4 6 10 -9 -3 -1
1 -5 7 10 13 -8 -2 2
0 -10 8 12 15 -6 -1 4
-1 -12 10 12 17 -4 -1 5
-1 -7 11 12 16 -4 0 5
2 -10 14 14 17 -1 2 7
3 -4 12 11 15 -2 1 6
7 6 12 11 14 -2 1 6
8 8 12 11 13 -4 1 6
2 1 10 9 11 -7 -2 4
-4 -5 9 8 10 -8 -3 4
-5 -8 10 9 12 -7 -2 5
-4 -12 11 10 12 -6 -1 6
-3 -8 11 10 13 -5 -1 6
-1 -6 12 10 14 -6 1 6
3 -1 12 9 13 -4 2 7
2 -1 12 9 11 -4 1 7
2 -7 12 8 11 -5 2 8
-1 -11 11 9 10 -5 2 9
-6 -19 11 9 11 -4 1 10
-6 -18 9 7 8 -8 -1 8
-6 -13 9 7 9 -9 -1 8
-6 -7 7 5 7 -10 -3 6
-3 -3 8 4 7 -9 -4 4
-5 -1 8 5 6 -9 -4 3
-1 -4 11 6 9 -7 -2 4
3 -4 12 6 8 -7 -2 5
0 -6 12 6 8 -7 -1 4
-2 -10 11 6 6 -8 -2 5
-5 -9 9 3 5 -10 -3 3
-8 -7 6 1 3 -13 -5 1
-6 -5 6 2 5 -12 -4 2
-1 2 7 3 5 -11 -4 2
0 1 9 3 7 -10 -4 2
-2 0 10 4 7 -9 -3 4
-2 -1 9 3 5 -8 -3 4
0 2 9 3 5 -8 -3 4
-4 -5 12 5 7 -6 -1 6
-6 -12 14 7 8 -5 1 9
-8 -14 12 6 8 -7 0 8
-9 -11 9 3 6 -8 -3 5
-6 -5 9 2 5 -7 -3 5
-6 -4 11 4 8 -3 -2 7
-8 -4 12 5 9 -1 -1 6
-2 -6 14 6 9 0 0 8
3 -9 13 5 7 -2 -1 7
7 -7 11 3 6 -3 -3 4
7 -2 9 1 4 -5 -5 1
3 -1 7 0 2 -7 -6 0
5 5 7 -2 1 -8 -7 0
6 5 8 0 3 -7 -6 1
1 -4 8 1 4 -7 -5 2
-3 -7 6 -1 1 -8 -8 -1
-1 -4 8 0 2 -7 -8 -1
0 -10 11 3 5 -4 -5 3
2 -13 15 7 8 0 -2 6
2 -17 18 9 10 2 1 8
6 -19 21 14 14 5 6 13
9 -15 21 14 13 4 5 15
1 -15 15 9 9 -1 1 10
1 -12 12 8 9 -1 0 10
3 -10 10 7 8 -1 0 9
3 -10 10 8 10 0 -1 8
3 -4 8 5 7 -2 -2 4
3 7 6 3 4 -4 -6 1
4 8 7 2 3 -4 -5 1
5 8 8 3 5 -1 -3 3
6 7 6 2 3 -2 -2 5
5 3 7 5 4 -3 -2 7
2 -4 9 7 6 -2 0 8
9 -7 8 6 7 -4 0 7
19 -3 7 5 7 -4 0 7
17 0 9 6 7 -3 1 9
14 1 9 5 8 -2 2 9
8 2 5 1 3 -6 -3 6
1 2 -1 -5 -3 -12 -8 1
1 1 1 -3 -1 -9 -5 3
3 -4 5 2 3 -4 1 9
7 -6 6 3 4 -2 1 11
13 -6 2 0 2 -5 -1 8
12 -3 1 -1 0 -6 -1 7
12 -2 2 0 2 -5 0 10
12 -7 3 -1 1 -6 0 11
11 -7 2 -2 1 -7 0 10
14 -5 3 -2 0 -7 -1 10
13 -2 3 -3 1 -6 -1 10
10 -1 4 -3 0 -5 0 10
7 0 4 -3 0 -6 1 10
6 -3 3 -4 -2 -9 -2 9
9 -5 4 -2 0 -7 0 10
9 1 3 -2 -1 -7 0 8
7 3 5 -1 0 -7 -1 7
4 -2 8 0 1 -5 0 9
0 -3 8 -1 0 -6 -1 6
-2 -3 10 0 1 -6 -2 8
-2 -6 11 1 1 -5 -1 8
-4 -6 11 -1 -1 -6 -2 8
-3 1 9 -2 -2 -9 -2 8
-1 10 7 -6 -5 -11 -5 5
0 20 4 -9 -8 -14 -8 2
1 21 3 -9 -9 -16 -7 1
-3 12 4 -7 -6 -14 -6 3
-4 -3 7 -5 -4 -11 -4 5
-6 -9 7 -4 -3 -9 -2 5
-6 -12 9 -3 -2 -8 -2 7
-5 -8 10 -3 0 -7 -1 8
-4 -10 10 -2 0 -6 0 8
-5 -7 9 -3 -2 -6 0 8
-7 -7 7 -4 -4 -7 -1 7
-7 -7 8 -4 -2 -6 0 9
-5 -4 7 -3 -3 -6 0 10
-3 0 5 -3 -2 -6 1 9
-1 6 5 -5 -3 -7 0 9
2 12 5 -5 -4 -7 0 9
6 8 7 -3 -2 -4 3 13
7 17 7 -5 -3 -4 3 12
4 18 8 -3 -3 -6 0 9
-1 6 13 8 3 -4 -1 5
-3 -7 33 34 22 4 1 6
-8 -22 62 69 48 16 3 2
-20 -22 77 90 62 17 -6 -10
-21 -19 87 107 74 22 -8 -16
-27 -28 87 113 75 20 -15 -24
-25 -24 83 112 78 23 -15 -28
-17 -4 83 114 91 39 -1 -18
-12 17 78 115 105 59 18 -3
3 45 69 119 123 84 45 22
20 75 54 115 136 109 72 46
39 85 38 100 141 125 99 72
66 99 16 72 133 143 131 104
94 124 -22 18 99 152 161 138
126 142 -71 -47 54 155 188 169
161 161 -123 -100 21 168 222 203
186 181 -161 -142 -6 184 252 234
201 199 -187 -175 -33 186 268 253
197 215 -204 -211 -69 172 267 262
169 231 -223 -262 -124 135 247 261
146 246 -232 -304 -177 89 213 246
120 239 -212 -321 -219 29 159 212
77 220 -175 -337 -271 -51 83 164
39 186 -138 -335 -298 -110 25 121
25 142 -108 -305 -290 -133 -5 86
23 96 -90 -267 -267 -145 -31 54
20 41 -74 -222 -234 -147 -55 22
15 1 -75 -199 -211 -144 -69 0
14 -14 -89 -189 -195 -134 -70 -9
14 -14 -106 -183 -183 -123 -69 -12
7 -19 -102 -170 -167 -113 -64 -15
1 -22 -92 -149 -147 -100 -60 -21
4 -24 -77 -122 -123 -84 -53 -22
3 -23 -61 -98 -102 -70 -46 -22
-1 -22 -50 -79 -85 -59 -41 -22
-3 -20 -35 -59 -67 -48 -34 -15
-2 -12 -27 -46 -53 -38 -30 -11
-6 -16 -17 -35 -41 -29 -23 -8
-11 -17 -12 -30 -35 -25 -22 -9
-11 -14 -6 -26 -30 -19 -18 -9
-12 -16 -1 -20 -24 -15 -15 -6
-7 -12 1 -15 -21 -16 -12 -4
-5 -11 3 -10 -17 -16 -10 -3
-5 -14 6 -4 -14 -14 -8 -1
-3 -12 8 0 -9 -13 -6 -1
-5 -12 8 3 -6 -14 -6 -1
-8 -9 7 2 -6 -15 -9 -4
-11 -3 5 -2 -7 -16 -11 -8
-10 1 6 -2 -8 -16 -12 -8
-7 -2 10 1 -5 -11 -8 -5
-5 -9 11 3 -4 -9 -4 -1
-7 -8 11 5 -4 -8 -3 1
-4 -3 10 6 -5 -8 -3 2
-5 -10 12 9 -4 -6 -2 2
-6 -13 12 11 -1 -7 0 4
-5 -11 12 12 0 -8 -1 3
-8 -9 12 11 1 -8 -2 2
-6 0 11 8 -1 -9 -4 -2
-6 -5 12 7 -1 -9 -5 -3
-8 -14 11 7 -2 -7 -4 -3
-5 -9 13 8 -1 -5 -2 1
-4 1 12 8 -4 -7 -3 0
-1 7 10 8 -5 -9 -3 0
0 5 11 11 -3 -7 0 2
1 -8 16 17 3 -4 4 8
-1 -8 16 16 5 -4 1 6
-4 -4 12 12 2 -9 -3 1
-12 -13 12 9 0 -9 -4 -3
-16 -25 14 10 2 -7 -3 -2
-16 -25 15 10 2 -5 -3 0
-13 -18 12 10 1 -6 -3 0
-9 -14 14 12 4 -5 0 4
-8 -12 14 12 3 -4 1 5
-6 -8 12 14 4 -3 1 4
-5 0 8 11 1 -8 -2 -1
-4 -1 9 12 4 -8 -3 -1
-3 -5 12 15 7 -6 -2 0
-5 -9 13 14 8 -5 -2 0
-5 -6 14 14 8 -4 -2 -1
-5 -10 16 14 9 -2 -2 1
-7 -12 16 13 7 -3 -2 0
-5 -3 13 12 3 -6 -3 -1
-5 2 11 12 2 -6 -3 0
-4 4 8 11 1 -7 -5 -2
-4 13 5 10 -1 -10 -6 -4
-3 6 7 13 2 -8 -3 -2
0 -4 13 17 8 -3 0 2
1 -8 16 19 12 0 2 4
0 -15 20 21 14 3 6 6
0 -19 21 23 14 4 7 7
-6 -24 19 21 12 4 5 6
-6 -27 19 22 12 5 7 9
2 -12 16 21 8 3 5 9
4 -1 12 19 6 0 3 5
3 0 12 18 7 -1 4 5
0 0 10 16 7 -3 1 3
1 6 8 15 6 -5 -2 -1
-2 -3 10 14 8 -6 -2 -2
-9 -17 14 17 10 -3 1 1
-6 -19 16 19 11 0 3 4
-5 -20 16 18 10 -1 4 4
-3 -20 13 16 7 -3 2 3
2 -12 10 16 5 -4 0 4
3 -11 10 18 8 -3 2 8
3 -8 10 18 9 -5 1 6
5 -4 10 20 11 -5 2 7
3 -8 10 19 11 -6 0 5
1 -13 11 18 13 -5 0 4
3 -11 13 21 14 -4 3 5
3 -8 11 18 11 -4 2 5
3 -8 10 17 10 -3 2 4
2 -7 8 17 8 -4 3 4
3 -3 6 18 7 -5 3 4
6 4 2 15 6 -7 -1 4
4 3 1 15 6 -9 -2 3
6 1 2 18 9 -10 0 4
7 -2 5 21 12 -6 2 6
7 -9 5 20 13 -6 3 6
10 -22 10 25 16 -1 8 10
12 -29 11 25 17 1 10 12
8 -23 6 19 11 -2 6 8
10 -15 2 18 9 -5 7 9
12 -6 -1 17 7 -6 7 10
17 1 -4 16 6 -7 6 10
19 -1 -3 19 8 -7 9 13
20 0 -4 18 8 -9 7 11
25 10 -5 17 8 -9 5 9
24 14 -8 13 5 -12 3 5
24 12 -8 13 4 -12 3 4
26 1 -4 16 6 -7 7 7
18 -15 -6 14 4 -6 7 8
15 -19 -9 12 1 -9 8 8
20 -14 -9 14 2 -8 10 11
21 -4 -12 11 -1 -12 9 12
24 5 -14 11 -1 -14 9 11
24 3 -14 11 -1 -16 10 12
22 2 -13 11 -1 -15 9 14
21 1 -13 10 -2 -14 10 12
19 -1 -14 7 -4 -16 9 10
26 0 -17 4 -9 -18 7 8
28 2 -16 2 -11 -17 7 10
30 3 -16 3 -11 -17 10 12
35 8 -17 4 -11 -17 10 14
37 11 -17 4 -11 -18 11 14
35 10 -16 5 -11 -20 10 16
29 3 -17 5 -12 -22 9 13
25 -8 -16 4 -12 -22 8 13
30 -10 -12 7 -10 -19 10 16
31 -9 -13 6 -12 -20 9 15
27 -8 -13 4 -14 -21 9 13
27 4 -13 0 -17 -23 7 13
27 9 -13 1 -17 -24 8 14
26 14 -15 1 -18 -26 7 12
30 16 -11 6 -13 -22 11 16
30 13 -8 9 -11 -20 13 19
18 13 -11 5 -14 -25 8 14
13 3 -11 4 -16 -26 5 11
17 1 -9 3 -15 -25 5 11
20 0 -6 5 -13 -22 6 12
14 2 -7 2 -15 -23 4 8
10 3 -5 3 -15 -21 3 6
11 -3 -1 6 -11 -19 7 8
13 -7 3 11 -7 -16 11 13
15 -1 3 12 -6 -16 11 14
14 0 3 13 -5 -16 12 14
13 4 3 11 -6 -17 10 11
15 13 4 12 -5 -16 9 8
16 19 6 10 -5 -15 8 5
12 18 6 8 -6 -15 5 4
7 15 5 5 -9 -16 3 3
6 14 6 6 -7 -13 4 4
11 17 8 8 -6 -11 7 5
10 18 7 8 -6 -11 7 4
8 9 8 9 -4 -10 8 4
6 5 9 9 -4 -10 8 5
2 2 8 6 -5 -12 5 2
3 6 9 7 -3 -10 5 2
8 12 10 7 -3 -10 5 2
7 7 12 7 -1 -7 7 4
3 5 12 6 -2 -6 7 3
1 2 12 5 -4 -6 6 3
1 0 11 4 -5 -7 7 3
2 4 10 4 -5 -7 7 4
0 4 7 1 -8 -10 5 2
-2 3 5 0 -10 -12 2 0
-2 2 6 2 -8 -11 4 2
-1 2 8 3 -6 -9 4 2
0 7 8 2 -6 -9 4 1
0 9 9 2 -6 -7 4 0
-2 11 11 2 -5 -6 5 1
-1 22 11 1 -8 -8 4 1
-2 24 10 0 -9 -8 5 1
-2 16 9 1 -9 -7 5 3
2 2 8 1 -9 -7 6 3
10 0 6 0 -11 -10 3 1
10 0 7 -1 -11 -11 3 2
6 -5 8 1 -9 -10 3 5
1 -4 8 -2 -10 -12 2 2
0 -5 10 -2 -10 -10 2 1
-1 -6 10 -1 -10 -10 4 1
3 -4 10 0 -10 -8 6 2
5 1 10 -2 -10 -8 6 1
4 8 7 -3 -15 -12 2 -2
1 6 6 -4 -15 -13 2 -3
-3 -7 7 -2 -12 -11 4 -2
-5 -12 7 -1 -12 -12 3 -2
-2 -6 8 0 -10 -12 1 -4
0 2 6 -4 -14 -14 -3 -8
-1 9 5 -7 -15 -15 -6 -10
0 12 7 -6 -15 -15 -4 -8
3 16 5 -5 -16 -14 -3 -9
3 14 5 -5 -16 -14 -2 -8
0 10 5 -3 -15 -14 -2 -5
-1 6 5 -3 -14 -13 -3 -6
4 -2 9 3 -9 -9 1 -1
0 -8 11 5 -7 -8 1 0
1 -7 10 5 -5 -7 1 1
5 -7 14 8 -2 -3 5 2
7 -1 14 6 -2 -4 4 2
5 4 13 5 -4 -5 2 -1
2 4 12 3 -5 -6 1 -3
1 1 12 4 -7 -6 3 -3
0 2 9 4 -6 -7 1 -2
-4 4 6 2 -8 -10 -2 -4
-10 3 3 0 -10 -14 -6 -8
-9 9 1 -1 -11 -15 -7 -9
-3 3 5 3 -5 -10 -5 -7
-3 -2 10 7 0 -4 0 -4
-7 -7 11 9 2 -3 1 -4
-6 -10 12 9 2 -2 3 -3
-6 -7 13 10 2 0 4 -2
-8 -3 14 10 2 1 5 -1
-4 2 12 11 2 -1 3 -3
2 4 11 11 2 -1 3 -4
4 2 10 11 2 -2 2 -5
2 3 10 12 3 -2 1 -6
1 6 9 12 4 -3 0 -6
2 5 12 13 6 0 2 -5
3 -1 13 14 9 2 5 -3
2 -2 15 16 9 5 7 -1
3 2 14 14 8 5 6 -1
0 1 11 12 4 2 4 -4
0 1 9 12 3 0 3 -4
1 8 11 13 5 1 4 -3
3 12 10 14 6 2 5 -2
8 17 10 15 8 2 5 -2
11 19 12 17 10 4 6 1
6 11 13 16 10 5 6 -1
-1 3 10 13 7 1 3 -6
-1 3 10 13 7 2 4 -6
5 8 12 15 8 4 5 -4
3 6 11 14 7 3 6 -2
-7 0 6 10 3 -2 1 -5
-9 -2 7 11 5 0 2 -3
-2 0 10 14 7 1 4 -2
2 0 9 14 8 1 4 -3
7 6 11 15 11 3 5 -2
9 7 14 17 12 5 7 -1
9 4 16 19 14 7 9 0
8 2 17 19 14 8 11 4
5 -1 15 17 12 7 11 5
0 0 10 13 8 2 7 0
-5 0 9 11 5 1 5 1
-9 -3 9 11 5 0 4 0
-6 0 10 12 6 -1 4 -1
-2 -1 7 11 6 -2 2 -4
3 -3 7 9 5 -3 1 -2
5 -2 9 10 6 -2 3 -1
4 1 11 9 6 -1 4 0
6 6 11 10 7 -1 4 0
10 17 7 5 2 -5 0 -4
11 17 6 6 1 -6 0 -7
10 15 6 7 2 -5 1 -5
8 8 7 9 4 -3 2 -3
4 2 7 8 3 -5 2 -2
-2 -1 5 7 1 -7 0 -3
-3 1 4 6 1 -7 -1 -3
1 6 5 6 2 -6 -1 -6
3 8 5 4 0 -6 -2 -6
3 8 5 4 0 -6 -1 -6
5 2 10 7 3 -2 3 -3
7 2 10 8 4 0 4 0
9 9 8 8 2 -1 3 0
10 16 7 7 2 -3 1 -2
7 18 6 5 0 -6 -1 -5
4 16 4 4 -2 -7 -3 -6
0 8 5 4 -1 -8 -4 -6
-6 -2 6 4 0 -7 -3 -6
-9 -8 7 3 1 -6 -2 -5
-6 -3 6 3 -1 -6 -2 -6
-1 -9 8 5 0 -4 -1 -4
1 -13 8 5 0 -3 -1 -4
1 -5 5 4 -2 -5 -2 -6
1 3 4 2 -4 -6 -3 -6
3 10 3 2 -4 -7 -4 -7
2 7 3 3 -4 -7 -4 -6
3 -4 8 7 2 -2 1 -2
3 -9 9 7 3 0 3 -2
4 -5 9 7 3 0 2 -2
6 -1 10 6 3 2 3 -1
4 4 7 3 0 0 -2 -5
2 6 6 4 -2 -1 -3 -7
2 5 4 3 -2 -2 -3 -5
4 3 7 6 0 0 -1 -3
7 5 7 7 1 1 -1 -3
3 3 3 4 -2 -2 -5 -5
1 0 2 1 -3 -4 -8 -7
3 6 3 1 -2 -3 -7 -8
-1 6 1 0 -3 -5 -9 -10
-3 1 2 0 -3 -4 -9 -9
0 4 3 -1 -3 -5 -9 -10
-2 0 2 -1 -4 -5 -8 -8
3 -5 7 4 0 -1 -2 -1
6 -6 9 7 3 2 0 2
7 5 6 5 1 0 -2 -2
5 5 4 4 -1 -2 -4 -6
1 2 2 1 -1 -4 -7 -8
0 1 5 3 1 -1 -6 -10
4 -7 6 6 4 2 -3 -6
8 0 7 5 3 2 -4 -5
5 4 4 2 0 0 -6 -7
3 0 3 1 -2 -3 -7 -9
3 0 2 2 -3 -3 -7 -9
-2 -2 0 1 -4 -4 -9 -10
-2 1 -2 -1 -5 -5 -10 -11
2 10 -1 0 -3 -4 -8 -10
1 2 2 2 1 -2 -7 -7
-1 -4 6 5 3 1 -7 -6
1 -4 4 5 4 2 -7 -6
-5 -13 2 1 1 0 -8 -7
-5 -11 1 0 -2 0 -9 -8
-5 -2 -1 -3 -5 -3 -11 -10
-6 3 -5 -6 -9 -8 -14 -12
-4 7 -5 -4 -7 -7 -14 -11
-4 8 -3 -1 -5 -5 -11 -10
-2 10 -2 -1 -3 -4 -10 -9
0 13 0 2 0 -2 -10 -6
-1 6 3 4 3 0 -8 -5
0 -2 7 8 5 5 -4 -1
-6 -12 9 9 7 8 -2 0
-14 -21 6 6 3 5 -5 -5
-5 -18 1 1 -1 1 -9 -10
5 -14 -3 -2 -4 -2 -12 -11
1 -5 -6 -4 -6 -6 -14 -13
-1 2 -5 -3 -5 -5 -14 -12
-1 3 -7 -4 -6 -6 -16 -12
-1 -1 -4 -2 -4 -3 -14 -11
0 2 -6 -3 -5 -5 -15 -12
1 1 -6 -3 -5 -4 -14 -11
1 -9 -1 1 -1 2 -9 -7
1 -11 0 2 -1 3 -9 -8
1 -10 -1 1 -2 2 -9 -8
3 -10 -1 2 -1 2 -9 -7
3 -11 -3 4 0 3 -8 -6
3 -11 -2 5 1 2 -8 -5
3 -7 -2 4 1 1 -10 -7
9 10 -3 4 0 0 -12 -9
12 18 -2 5 1 1 -11 -9
7 5 -1 6 2 3 -10 -10
7 0 0 8 5 7 -8 -9
6 0 -2 7 3 6 -8 -8
4 -4 -4 6 2 4 -8 -7
7 0 -4 6 2 5 -8 -7
10 -3 -5 9 4 7 -7 -5
9 -3 -6 7 3 6 -8 -7
8 -5 -5 7 4 5 -8 -7
7 -3 -5 7 5 5 -8 -8
10 -1 -6 6 3 5 -9 -7
8 -2 -8 3 2 3 -11 -8
8 -1 -9 2 1 3 -11 -11
12 5 -7 4 2 5 -10 -9
14 8 -7 5 3 7 -8 -7
14 9 -9 3 2 6 -9 -7
15 2 -9 6 4 8 -7 -5
12 -3 -10 4 3 6 -8 -8
12 2 -13 2 1 5 -11 -10
4 -7 -14 0 0 3 -12 -11
4 -13 -13 2 2 5 -10 -9
10 -10 -10 3 4 6 -8 -6
13 -10 -11 3 4 8 -8 -6
14 -5 -12 1 2 5 -10 -8
16 -2 -11 1 2 7 -8 -7
14 -8 -15 -1 0 5 -10 -7
13 -1 -18 -4 -3 1 -12 -10
15 5 -20 -4 -5 0 -14 -12
11 3 -22 -6 -6 -1 -15 -14
9 5 -22 -6 -7 -2 -17 -15
7 3 -20 -4 -4 0 -15 -13
8 2 -18 -4 -4 0 -14 -12
9 2 -16 -3 -2 3 -14 -13
8 1 -14 -1 -1 4 -13 -11
5 1 -14 0 -1 3 -13 -10
3 0 -12 1 0 5 -12 -9
0 -5 -11 3 2 6 -11 -8
3 1 -12 1 0 5 -11 -8
1 5 -14 -1 -2 4 -12 -11
0 10 -15 -3 -4 2 -15 -13
-3 5 -14 -3 -2 2 -16 -13
-3 -2 -12 -1 -1 4 -15 -11
-5 -3 -12 -3 -1 3 -16 -11
-8 -12 -11 0 1 4 -14 -10
-7 -17 -11 1 2 5 -13 -13
-5 -14 -10 3 3 8 -11 -14
-4 -8 -13 0 -1 4 -16 -16
-2 -5 -13 0 -1 3 -15 -15
-2 -5 -13 0 0 4 -15 -13
-4 0 -15 -1 -2 2 -17 -14
-2 1 -14 -1 -2 3 -16 -14
2 2 -13 0 0 5 -15 -13
4 4 -13 -1 0 5 -15 -13
5 10 -13 0 0 6 -13 -12
5 13 -15 -1 0 6 -13 -12
6 17 -18 -2 -1 6 -13 -11
-1 4 -18 -1 0 6 -12 -10
-12 -14 -22 -2 -2 3 -14 -12
-11 -12 -23 -2 -2 4 -14 -12
-8 -6 -20 1 -1 3 -15 -12
-9 -6 -17 8 3 2 -19 -18
-12 -9 0 29 18 8 -18 -19
-17 -15 25 61 41 17 -17 -21
-28 -19 44 85 57 24 -19 -26
-30 -14 56 103 70 27 -22 -33
-26 -17 59 112 76 28 -25 -36
-16 -20 59 117 81 32 -22 -37
-15 -15 56 119 92 46 -11 -30
-15 3 52 121 105 63 5 -16
-1 30 44 125 121 85 28 4
16 58 32 121 135 107 53 26
38 78 16 107 140 125 78 49
63 92 -3 82 135 143 108 79
89 111 -42 28 104 152 138 111
122 131 -91 -39 58 154 165 143
159 154 -141 -95 25 166 199 179
188 176 -181 -137 0 180 230 213
201 186 -211 -172 -25 185 251 234
198 194 -228 -205 -55 177 256 247
184 222 -242 -249 -100 152 245 252
170 251 -253 -293 -151 113 215 241
149 252 -236 -313 -192 57 161 206
106 234 -205 -335 -248 -22 84 153
54 197 -174 -344 -290 -95 14 101
32 148 -146 -322 -290 -127 -23 64
24 94 -125 -281 -268 -141 -48 33
14 30 -108 -235 -236 -145 -71 3
6 -9 -108 -209 -210 -142 -83 -22
4 -26 -124 -199 -196 -135 -87 -34
1 -34 -135 -189 -181 -123 -85 -38
-5 -44 -131 -176 -164 -111 -81 -40
-9 -43 -120 -154 -143 -97 -75 -44
-6 -40 -105 -128 -123 -83 -69 -42
-3 -36 -88 -102 -102 -68 -60 -40
-3 -32 -74 -79 -81 -55 -52 -36
-6 -26 -64 -63 -65 -46 -46 -33
-5 -18 -53 -48 -50 -36 -41 -29
-7 -15 -42 -36 -37 -27 -35 -26
-6 -12 -33 -25 -26 -21 -30 -25
-8 -10 -27 -18 -20 -15 -27 -24
-10 -13 -22 -13 -15 -10 -24 -21
-12 -15 -16 -7 -9 -5 -19 -18
-14 -16 -13 -3 -6 -2 -16 -13
-18 -12 -15 -1 -7 -4 -18 -16
-13 -11 -15 1 -5 -4 -18 -16
-3 -5 -19 0 -5 -8 -21 -18
0 -1 -17 4 -1 -6 -21 -16
-3 -5 -13 8 4 -1 -18 -17
-8 -14 -11 9 5 0 -17 -16
-11 -16 -10 9 4 -1 -18 -16
-12 -17 -10 8 5 1 -16 -14
-15 -22 -11 6 3 2 -16 -15
-17 -19 -12 6 0 0 -17 -14
-18 -12 -15 5 -2 -1 -19 -17
-14 -12 -14 8 1 1 -15 -16
-10 -8 -11 12 4 2 -13 -13
-7 2 -13 12 3 0 -16 -13
-3 8 -12 11 3 -1 -17 -16
-5 1 -12 11 4 1 -16 -16
-5 -7 -5 16 8 6 -12 -14
-4 -5 -5 16 9 6 -11 -14
-5 -3 -8 12 5 4 -14 -15
-6 -8 -8 13 4 5 -14 -11
-8 -9 -10 13 2 4 -15 -14
-13 -13 -11 12 3 3 -14 -15
-14 -24 -10 15 6 4 -13 -12
-21 -35 -9 17 7 4 -13 -12
-23 -31 -10 15 7 2 -16 -15
-19 -20 -10 13 6 1 -16 -16
-15 -14 -11 11 5 1 -18 -18
-12 -10 -9 12 5 3 -16 -17
-14 -14 -8 12 5 4 -14 -16
-13 -14 -9 12 4 3 -14 -14
-13 -16 -10 13 3 4 -15 -15
-13 -16 -10 15 5 5 -13 -13
-11 -18 -9 18 8 8 -11 -11
-11 -15 -10 17 9 5 -13 -12
-13 -13 -10 16 9 5 -14 -16
-11 -13 -6 18 13 8 -11 -12
-10 -10 -8 17 11 7 -13 -15
-11 -10 -7 16 10 8 -13 -16
-9 -8 -8 14 9 8 -12 -17
-9 -6 -10 14 7 7 -12 -16
-5 1 -11 14 6 6 -14 -17
-3 -4 -8 18 11 10 -9 -12
-7 -19 -6 22 14 12 -6 -10
-6 -22 -4 24 17 13 -6 -8
-6 -17 -4 22 16 12 -8 -11
-5 -14 -3 22 17 13 -7 -12
-3 -10 -3 23 17 14 -8 -12
-3 -8 -2 22 16 14 -7 -13
-7 -10 -4 19 14 13 -8 -14
-15 -17 -9 16 8 8 -11 -15
-14 -17 -12 15 5 6 -13 -17
-8 -5 -14 13 5 5 -14 -17
-8 0 -15 14 6 3 -15 -17
-8 -5 -13 18 10 5 -14 -14
-6 -13 -9 22 15 8 -10 -12
-9 -18 -7 21 16 9 -10 -11
-7 -13 -9 19 13 8 -13 -13
-4 -15 -6 23 16 12 -9 -10
-4 -19 -5 21 15 11 -7 -9
-5 -16 -8 20 14 10 -8 -8
-2 -10 -9 21 12 9 -8 -9
1 -10 -7 25 15 11 -5 -6
0 -9 -10 23 15 9 -7 -6
-7 -14 -14 22 13 6 -11 -9
-11 -17 -13 22 13 6 -11 -11
-9 -20 -11 22 15 6 -10 -9
-6 -16 -11 22 14 6 -10 -9
-3 -13 -11 22 14 7 -10 -8
-3 -17 -10 21 13 8 -7 -7
-3 -24 -11 22 13 9 -6 -3
-2 -25 -11 24 14 10 -4 -3
1 -21 -11 24 14 9 -4 -2
3 -16 -12 25 16 7 -5 -2
5 -12 -15 25 17 5 -7 -3
6 -8 -14 25 18 6 -6 -5
10 -9 -13 25 20 7 -5 -5
10 -8 -13 25 19 6 -5 -9
11 -5 -16 22 16 5 -6 -11
8 -10 -17 19 14 3 -7 -10
0 -15 -23 14 9 -1 -10 -12
2 -7 -27 14 6 -3 -11 -12
4 -5 -29 13 5 -5 -11 -11
3 -13 -28 15 8 -4 -8 -10
5 -19 -28 17 10 -2 -7 -8
6 -24 -25 18 11 0 -4 -7
8 -24 -25 19 13 1 -3 -5
10 -18 -27 16 11 -2 -4 -6
10 -18 -28 15 8 -2 -5 -6
13 -14 -28 13 6 -3 -2 -5
15 -18 -28 15 7 -2 -1 -2
15 -14 -31 13 4 -3 -2 -3
17 -7 -34 11 1 -6 -2 -2
18 -6 -35 9 1 -9 -3 -3
20 -9 -33 11 1 -8 -2 -1
21 -11 -32 12 2 -6 -1 1
21 -15 -30 12 4 -6 1 1
23 -16 -28 11 4 -4 3 2
20 -16 -31 8 0 -7 1 0
17 -9 -36 1 -7 -12 -3 -3
22 -7 -35 3 -6 -11 -2 0
24 -6 -35 3 -8 -11 -1 1
27 -11 -31 7 -5 -7 3 7
27 -7 -32 5 -5 -12 1 5
24 -1 -36 3 -10 -15 -2 2
24 -1 -34 3 -8 -14 -1 3
20 -13 -31 5 -6 -12 1 4
19 -15 -30 4 -6 -12 1 4
24 -4 -29 4 -8 -12 0 2
23 -3 -29 1 -9 -14 -1 1
23 -2 -29 4 -9 -12 0 3
24 -1 -29 4 -10 -13 0 3
13 -7 -32 1 -13 -15 -3 -1
7 -12 -32 1 -14 -18 -4 -1
5 -13 -29 4 -13 -17 -4 -1
9 -5 -28 4 -10 -16 -4 -2
12 3 -24 6 -8 -15 -3 -1
15 1 -20 9 -4 -11 -1 0
18 0 -16 11 -2 -10 1 2
14 -2 -15 10 -3 -8 1 0
12 -1 -16 9 -4 -8 0 -1
11 -8 -13 12 -2 -4 2 1
7 -11 -12 14 0 -2 3 1
2 -3 -15 10 -4 -6 -1 -3
1 6 -17 7 -6 -10 -6 -7
-2 3 -15 7 -4 -8 -5 -8
0 -1 -9 12 2 -4 -1 -4
0 -4 -7 12 4 -1 0 -4
-3 -7 -6 11 3 -2 -1 -5
-1 -7 -4 11 5 2 2 -3
4 -6 -5 11 4 1 1 -3
2 -2 -7 8 2 0 0 -5
-1 6 -9 7 0 -2 -3 -7
-5 1 -8 8 1 1 -1 -7
-5 0 -7 9 3 0 -1 -6
-8 -5 -4 10 6 3 0 -5
-8 -7 -2 11 8 5 1 -4
-11 -6 1 11 9 7 2 -4
-12 -7 2 12 10 9 2 -3
-6 -5 1 9 8 9 2 -4
5 -1 -2 6 5 6 0 -6
10 -2 -1 7 4 8 1 -4
10 0 0 9 6 9 2 -2
7 -1 -1 7 6 9 2 -2
4 1 -2 7 5 6 0 -4
-2 0 -5 3 3 3 -4 -9
-6 -8 -7 1 2 2 -5 -10
-5 -5 -5 2 4 4 -2 -7
0 1 -4 2 4 4 -3 -8
-3 2 -5 -1 0 2 -4 -10
-1 9 -5 -2 -1 2 -3 -10
2 9 -5 1 0 4 -1 -7
-4 -9 -3 2 1 6 0 -6
-14 -26 -5 1 1 4 -1 -7
-18 -26 -6 1 0 1 -4 -9
-15 -19 -6 1 2 1 -5 -9
-12 -13 -5 0 2 2 -5 -10
-13 -15 -5 0 3 1 -5 -10
-13 -13 -5 -1 1 0 -5 -10
-13 -9 -6 -2 0 0 -5 -10
-12 -5 -9 -4 -4 -2 -6 -11
-11 3 -11 -7 -6 -6 -8 -13
-9 4 -10 -6 -6 -5 -9 -12
-7 8 -10 -4 -4 -5 -8 -11
-6 3 -7 -1 0 -4 -6 -9
-8 -6 -4 1 3 -2 -6 -8
-9 -10 -2 3 5 1 -3 -8
-11 -15 -1 2 6 1 -3 -8
-12 -9 -2 0 5 0 -5 -10
-12 -8 -2 -1 3 0 -4 -12
-16 -9 -3 -1 3 0 -4 -12
-16 -6 -3 1 2 -1 -5 -10
-16 -13 0 4 5 3 -2 -8
-9 -13 -1 4 6 2 -1 -8
-3 -9 -3 3 4 -3 -5 -11
-3 -14 0 6 7 0 -5 -9
-5 -10 1 5 9 2 -4 -9
-6 -4 0 5 9 1 -4 -9
-7 -5 -2 4 7 -1 -6 -12
-7 -3 -1 3 6 0 -5 -10
-9 -3 -2 4 6 -1 -5 -11
-11 -6 -3 4 6 0 -6 -12
-9 -9 -2 5 9 1 -5 -10
-9 -13 2 10 13 4 -2 -7
-10 -7 0 10 12 1 -4 -10
-10 -3 -2 7 11 -1 -7 -12
-8 -2 0 8 14 1 -5 -11
-6 0 1 9 14 2 -4 -11
-7 -7 5 13 18 7 -1 -8
-4 -10 8 16 20 10 3 -4
2 -3 6 15 20 9 3 -5
5 -1 8 16 19 10 4 -3
5 -2 8 17 21 10 4 -3
-5 -10 5 15 18 8 2 -6
-13 -18 3 14 18 5 0 -7
-13 -16 2 13 18 4 -2 -9
-13 -16 2 12 18 5 -2 -10
-12 -15 4 14 19 7 -1 -9
-8 -12 6 15 21 9 0 -9
-6 -2 5 13 18 8 -1 -12
-8 2 1 11 14 3 -5 -16
-12 1 -1 9 13 2 -5 -16
-12 3 -2 9 12 1 -5 -15
-7 -4 4 17 19 7 1 -7
-6 -20 10 23 26 12 7 -2
-9 -19 9 20 25 10 4 -6
-15 -23 6 17 21 8 1 -10
-18 -31 6 17 22 9 1 -9
-16 -29 7 17 22 8 3 -9
-12 -19 7 16 21 9 3 -8
-11 -8 2 12 17 5 0 -11
-9 0 1 11 15 3 -3 -13
-8 -2 2 13 17 4 0 -10
-6 1 2 14 18 3 0 -8
-2 3 4 16 20 5 2 -6
0 0 6 17 21 7 2 -6
2 -1 9 20 24 10 7 -2
1 -4 9 19 25 10 6 -4
-8 -12 7 15 21 7 3 -6
-13 -14 4 12 16 4 0 -8
-14 -20 4 14 18 5 4 -6
-11 -23 7 16 21 7 6 -2
-10 -22 8 17 21 7 6 -1
-9 -13 5 14 19 3 3 -3
-9 3 0 8 13 -2 -2 -10
-7 8 1 8 13 -1 -3 -9
-6 4 2 9 16 0 -2 -9
-6 -7 6 12 19 3 3 -5
-8 -11 7 12 19 4 3 -5
-7 -5 5 10 16 1 1 -7
-5 -11 8 12 19 4 5 -4
-7 -15 7 12 17 3 5 -3
-9 -14 3 8 15 1 2 -5
-9 -12 2 8 13 -2 1 -5
-13 -16 2 8 14 -2 1 -6
-11 -16 3 8 13 -2 0 -6
-8 -9 4 8 14 -2 0 -7
-8 -2 2 6 12 -4 0 -8
-6 2 1 5 11 -5 -2 -10
-5 1 1 4 10 -3 -2 -9
-2 -8 6 9 16 2 5 -3
-2 -7 6 9 15 2 5 -3
-1 -8 6 9 15 2 4 -2
-5 -6 3 6 12 -1 2 -4
-13 -6 -2 1 8 -7 -3 -10
-14 -6 -2 -1 7 -8 -6 -11
-12 -11 2 3 12 -3 -2 -8
-8 -14 5 6 15 -1 1 -5
-9 -13 5 4 15 -1 1 -6
-6 -9 5 3 13 -1 0 -6
-5 -4 4 3 12 -2 0 -5
-11 -8 3 1 9 -4 -2 -7
-17 -16 0 -1 7 -8 -4 -9
-16 -16 0 0 7 -6 -4 -8
-15 -14 1 1 8 -7 -3 -7
-16 -21 3 3 11 -4 -1 -7
-16 -20 3 2 11 -4 -1 -6
-18 -20 3 1 10 -6 -2 -6
-16 -18 4 1 11 -5 -2 -7
-12 -16 5 2 12 -3 1 -6
-12 -9 3 -1 8 -5 -1 -6
-12 3 0 -2 5 -9 -4 -8
-11 2 2 -1 7 -7 -2 -7
-8 -4 3 0 8 -6 -1 -4
-5 -5 3 1 9 -7 -2 -5
-11 -17 3 1 9 -7 -2 -7
-15 -20 3 1 9 -8 -2 -6
-13 -21 4 2 10 -6 -1 -6
-15 -25 5 2 12 -6 0 -6
-12 -17 4 -1 9 -7 -2 -6
-11 -11 3 -1 7 -7 -2 -6
-12 -11 1 -2 7 -9 -3 -7
-13 -12 1 -2 7 -9 -2 -6
-11 -13 1 -1 7 -9 -2 -6
-10 -9 2 1 9 -9 -2 -6
-10 -6 2 0 9 -8 -2 -6
-16 -12 1 -2 7 -11 -4 -9
-17 -20 2 -2 7 -10 -4 -9
-16 -27 6 0 10 -6 -1 -5
-12 -22 6 -1 9 -7 0 -5
-8 -11 4 -1 8 -9 0 -5
-7 -10 2 -2 8 -9 -1 -6
-7 -8 3 -1 8 -9 0 -6
-3 -5 4 1 9 -7 1 -5
-9 -9 1 -2 8 -9 -2 -7
-17 -12 -3 -5 4 -13 -7 -11
-19 -16 -1 -4 4 -12 -6 -10
-19 -16 -2 -6 4 -13 -8 -12
-17 -11 -1 -6 3 -12 -8 -13
-15 -14 2 -4 5 -9 -5 -10
-16 -24 2 -4 6 -11 -4 -8
-15 -25 3 -2 6 -9 -2 -7
-17 -20 0 -4 4 -12 -4 -8
-19 -22 1 -2 6 -11 -3 -7
-15 -22 2 -3 7 -11 -2 -6
-15 -17 2 -2 6 -10 -3 -7
-13 -9 0 -4 4 -13 -6 -10
-14 -7 -2 -6 3 -13 -8 -12
-14 -8 -2 -7 3 -13 -7 -10
-11 -5 -2 -7 2 -13 -7 -10
-10 -6 -1 -7 2 -14 -6 -10
-12 -5 -2 -7 2 -14 -6 -9
-11 0 -2 -7 1 -15 -6 -9
-8 3 -3 -7 1 -15 -6 -9
-15 -13 -3 -6 2 -15 -5 -8
-19 -32 2 -2 7 -10 -1 -5
-19 -35 6 0 9 -7 1 -3
-20 -33 4 -2 8 -8 -1 -6
-20 -28 2 -4 5 -11 -4 -8
-19 -20 0 -5 4 -13 -4 -7
-18 -19 -1 -8 2 -14 -5 -8
-20 -19 0 -6 3 -12 -4 -7
-16 -17 3 -4 4 -10 -2 -6
-14 -13 3 -3 5 -11 -2 -6
-11 -14 3 -3 6 -11 -2 -6
-9 -12 7 1 10 -7 1 -4
-9 -11 7 1 10 -7 1 -3
-13 -11 5 -3 7 -9 -1 -5
-13 -13 3 -4 5 -11 -2 -7
-15 -16 1 -6 2 -13 -4 -9
-15 -15 0 -7 1 -14 -4 -8
-15 -11 -3 -10 -2 -16 -6 -10
-18 -14 -5 -11 -4 -19 -8 -12
-20 -23 -4 -9 -1 -17 -6 -10
-19 -18 -7 -10 -3 -19 -8 -14
-18 -19 -3 -7 1 -15 -6 -12
-16 -18 -2 -8 2 -15 -6 -11
-16 -15 -3 -8 0 -16 -7 -13
-13 -9 -2 -9 0 -16 -7 -13
-14 -9 0 -7 0 -14 -6 -13
-12 -10 0 -7 -1 -14 -6 -12
-9 -12 3 -2 3 -11 -3 -10
-8 -12 5 0 6 -8 1 -6
-7 -14 6 3 8 -6 3 -5
-7 -19 6 3 9 -5 3 -5
-7 -20 7 6 11 -4 3 -5
-3 -15 8 7 13 -4 5 -3
-2 -13 5 4 11 -5 4 -4
-1 -15 4 2 9 -4 3 -5
-3 -17 4 3 8 -3 4 -4
-9 -18 -1 -1 3 -8 0 -8
-8 -12 -3 -4 2 -10 0 -8
-4 -15 -1 -3 5 -8 2 -6
-1 -9 0 -1 6 -8 3 -5
3 -4 1 0 8 -7 4 -5
1 -5 1 -1 8 -7 4 -3
0 -8 1 -1 8 -6 4 -3
-6 -15 0 -2 5 -7 2 -6
-9 -20 -2 -6 3 -9 2 -6
-2 -15 1 -2 5 -5 5 -3
-1 -9 -2 -3 3 -9 3 -4
0 -3 -4 -4 2 -8 3 -4
4 7 -5 -5 2 -8 4 -3
4 10 -7 -8 0 -10 1 -6
6 11 -8 -7 0 -11 1 -6
4 5 -7 -7 -1 -10 1 -5
0 -11 -5 -8 1 -9 2 -5
-1 -16 -6 -9 0 -9 2 -3
-2 -20 -6 -9 -1 -9 1 -4
0 -14 -3 -7 1 -7 3 -2
1 -7 -5 -8 0 -9 2 -3
0 -5 -5 -9 -2 -9 1 -4
-1 -6 -4 -7 -1 -8 2 -3
-2 -8 -2 -7 0 -9 2 -2
-4 -9 -1 -4 2 -9 3 -2
-3 -9 2 -3 3 -7 5 0
-6 -9 3 -3 3 -7 4 0
-8 -8 3 -5 2 -8 3 -2
-11 -9 2 -5 1 -8 3 -3
-15 -11 0 -8 -3 -10 0 -5
-15 -10 1 -7 -1 -10 1 -4
-13 -9 4 -6 0 -8 4 -2
-11 -6 2 -6 -1 -9 3 -3
-8 -11 6 -3 3 -6 6 0
-10 -14 8 -1 3 -5 6 2
-13 -13 5 -5 0 -9 3 -2
-20 -21 3 -8 -1 -10 1 -3
-22 -18 2 -9 -3 -12 0 -5
-17 -9 0 -9 -5 -13 -1 -8
-18 -9 2 -9 -3 -11 1 -5
-21 -6 0 -10 -4 -12 0 -6
-19 -6 0 -8 -5 -12 0 -5
-19 -3 0 -7 -5 -12 0 -6
-18 -4 2 -7 -4 -11 0 -5
-15 -5 2 -6 -3 -10 1 -3
-12 -9 3 -5 -1 -8 3 -2
-7 -10 6 -3 3 -5 6 0
-7 -6 8 -1 4 -5 7 2
-5 -2 6 -3 2 -6 6 1
-6 -3 5 -4 1 -6 5 0
-11 -6 4 -4 0 -7 5 -2
-15 -13 8 1 2 -7 2 -4
-19 -17 19 17 12 -3 2 -6
-30 -26 37 41 28 0 -3 -13
-34 -25 59 69 46 5 -5 -18
-34 -22 77 91 63 13 -5 -22
-33 -15 83 103 72 15 -7 -28
-27 -18 85 108 76 17 -8 -30
-23 -16 85 113 86 28 0 -26
-21 -2 81 116 100 48 14 -15
-17 18 74 118 111 69 32 2
0 43 64 120 129 94 60 28
20 64 48 112 138 115 87 52
37 73 28 92 137 130 112 77
64 97 -6 46 115 139 138 104
97 127 -53 -21 72 142 162 133
132 146 -103 -85 32 146 191 164
165 161 -147 -132 7 164 226 200
189 170 -175 -165 -14 179 255 231
198 185 -196 -196 -38 180 269 250
189 208 -211 -238 -80 162 264 260
166 228 -225 -285 -131 130 244 259
138 226 -220 -314 -174 82 198 230
102 204 -189 -328 -219 16 133 186
59 179 -154 -343 -269 -61 57 131
31 143 -123 -330 -283 -108 9 90
21 98 -106 -300 -272 -132 -24 52
13 52 -90 -258 -246 -144 -51 19
6 11 -86 -227 -220 -144 -71 -11
-1 -20 -97 -213 -202 -137 -76 -27
-1 -31 -110 -203 -189 -126 -74 -31
-1 -33 -110 -189 -173 -114 -67 -32
-5 -39 -97 -166 -151 -98 -61 -31
-8 -39 -83 -139 -128 -83 -54 -32
-11 -34 -70 -117 -110 -72 -51 -34
-13 -28 -56 -95 -90 -62 -45 -32
-10 -24 -44 -74 -72 -51 -38 -29
-15 -16 -33 -60 -59 -43 -34 -27
-17 -10 -24 -49 -47 -33 -30 -26
-16 -14 -14 -36 -34 -23 -21 -21
-17 -25 -4 -25 -25 -15 -15 -16
-18 -21 0 -20 -21 -10 -12 -13
-17 -20 5 -14 -16 -5 -9 -11
-19 -23 8 -9 -11 -2 -5 -8
-17 -24 10 -3 -7 0 -2 -5
-18 -25 12 1 -4 2 -1 -5
-16 -20 11 2 -2 2 -2 -5
-15 -15 14 5 1 2 -1 -4
-20 -14 12 4 1 2 -4 -7
-20 -17 13 4 2 2 -4 -8
-16 -11 13 3 2 2 -4 -8
-13 -10 14 4 0 3 -4 -7
-10 -7 13 4 0 4 -3 -8
-22 -10 8 0 -5 -2 -7 -11
-29 -13 2 -3 -10 -7 -12 -16
-29 -14 3 0 -8 -6 -10 -14
-25 -18 6 3 -3 -2 -8 -11
-22 -20 9 7 0 0 -6 -9
-21 -23 12 10 2 2 -4 -6
-21 -28 15 11 4 5 -2 -6
-20 -24 15 10 3 5 -2 -6
-21 -21 14 10 1 4 -2 -6
-19 -12 12 8 -1 4 -3 -8
-16 -8 10 7 -3 2 -2 -7
-19 -13 9 9 -3 2 -2 -6
-19 -17 10 10 -1 2 -1 -7
-17 -17 11 11 2 3 -1 -9
-20 -20 12 13 3 2 -2 -9
-18 -24 12 13 3 3 -3 -9
-19 -28 16 14 6 5 0 -6
-18 -29 17 13 6 6 1 -5
-18 -27 16 13 4 5 0 -6
-20 -23 13 10 1 4 -1 -7
-19 -18 12 10 1 4 1 -5
-16 -12 11 11 0 3 0 -7
-14 -5 9 11 -1 1 -2 -8
-12 4 6 8 -2 -2 -5 -11
-13 -1 9 10 0 0 -4 -9
-12 -10 13 14 5 4 -2 -7
-11 -10 14 14 4 6 -1 -8
-11 -16 17 16 6 8 1 -7
-10 -19 20 19 7 11 3 -5
-10 -12 17 16 5 10 1 -8
-11 -15 17 16 3 8 3 -6
-11 -13 13 15 1 7 1 -6
-15 -15 10 14 -1 4 -2 -9
-18 -19 9 12 0 3 -3 -10
-21 -21 10 13 1 3 -3 -9
-15 -20 11 14 3 5 -3 -10
-12 -13 11 12 2 5 -3 -12
-15 -16 10 11 1 4 -3 -13
-15 -17 11 13 1 6 -2 -11
-12 -17 13 14 3 9 1 -8
-11 -20 14 16 4 9 3 -5
-10 -17 13 17 4 8 3 -5
-8 -11 11 16 2 5 0 -8
-11 -11 8 13 0 3 -3 -10
-11 -4 6 13 -1 0 -6 -13
-16 -20 8 14 2 2 -5 -11
-21 -32 10 15 5 4 -2 -9
-16 -23 11 16 5 4 -2 -7
-15 -16 9 15 2 4 -3 -7
-13 -15 10 15 2 5 -1 -7
-10 -14 11 17 3 5 1 -4
-9 -13 10 18 2 4 1 -4
-7 -7 8 18 2 3 0 -5
-9 -8 7 16 2 1 -1 -6
-13 -15 5 16 1 -1 -3 -7
-11 -15 6 17 3 0 -3 -7
-11 -17 9 19 6 2 -2 -5
-8 -26 13 21 9 6 1 0
-7 -26 13 22 9 7 3 1
-8 -24 11 21 7 7 3 0
-5 -22 12 23 8 8 5 2
-3 -17 8 20 5 4 2 1
-8 -19 6 21 4 3 2 1
-9 -14 3 17 2 -1 -2 -4
-11 -14 1 17 1 -4 -4 -5
-12 -14 0 16 0 -3 -5 -8
-7 -11 2 18 3 -2 -2 -7
-5 -14 2 17 3 -1 -1 -7
0 -6 0 16 0 -2 -2 -7
4 -5 0 16 1 0 1 -4
5 -12 2 20 3 2 4 0
7 -19 4 23 5 6 8 5
6 -22 2 24 5 5 9 5
7 -17 -1 20 2 1 6 3
1 -18 -6 16 -2 -3 1 -1
-2 -21 -8 14 -4 -5 0 -2
3 -18 -6 15 -1 -3 2 -2
6 -15 -6 14 -2 -3 3 -1
10 -12 -6 14 -3 -2 4 1
13 -11 -7 13 -3 -2 5 2
11 -10 -11 10 -8 -5 5 0
7 -15 -14 8 -11 -7 3 2
4 -16 -16 7 -12 -9 2 0
7 -11 -18 4 -13 -11 -1 -1
11 -6 -18 4 -14 -13 -1 0
10 -5 -19 2 -16 -14 -3 -2
10 -22 -12 8 -10 -8 5 5
13 -27 -11 7 -10 -6 6 8
11 -20 -15 3 -16 -9 4 5
13 -13 -16 1 -18 -10 3 5
14 -10 -17 0 -20 -11 5 6
14 -8 -20 -2 -22 -13 2 4
17 -2 -19 -2 -23 -14 3 4
19 -3 -19 -3 -23 -16 2 3
19 -14 -15 2 -20 -13 6 7
17 -18 -12 3 -17 -11 6 9
17 -14 -11 2 -18 -12 6 8
16 -11 -12 0 -21 -13 6 8
14 -7 -13 -3 -26 -15 2 6
15 -5 -13 -4 -26 -16 2 6
18 -7 -10 0 -25 -13 7 9
19 -2 -10 1 -25 -12 6 11
22 4 -11 1 -25 -15 4 9
25 11 -10 1 -24 -16 5 9
23 9 -9 4 -24 -15 5 8
18 -2 -5 6 -21 -13 5 8
10 -9 -4 5 -21 -14 4 6
13 -9 0 8 -18 -10 7 7
13 -4 1 8 -17 -8 7 8
7 -4 1 6 -18 -9 7 6
3 -8 2 7 -19 -9 6 6
8 4 4 9 -17 -7 6 6
11 4 5 11 -15 -7 7 8
6 -8 4 10 -14 -7 6 6
-2 -6 1 6 -18 -10 1 1
-5 1 0 5 -18 -11 -1 -1
-1 14 0 3 -18 -12 -2 -3
-2 12 3 4 -17 -9 0 -3
-3 6 8 7 -13 -4 2 1
-2 7 9 6 -13 -3 2 -1
-4 3 9 6 -13 -3 4 -1
-4 6 9 7 -13 -3 3 -2
-3 3 10 10 -10 -1 5 1
-1 -6 14 13 -5 3 8 4
-1 -14 19 18 -1 8 12 8
-4 -10 17 14 -3 7 9 6
-5 -8 17 13 -3 6 8 3
-2 -3 16 11 -5 5 7 1
-6 -2 14 8 -8 3 4 -1
-11 -4 11 5 -10 1 3 -3
-10 -5 11 5 -10 0 3 -2
-9 -1 12 5 -11 0 3 -2
-6 6 11 5 -11 0 2 -2
-6 7 11 4 -10 0 1 -3
-8 4 14 7 -7 3 4 0
-7 2 15 7 -6 4 3 0
-17 -8 12 3 -9 0 0 -3
-16 -4 13 2 -10 1 1 -3
-15 2 11 0 -12 0 -1 -5
-11 -4 13 3 -11 0 1 -2
-5 -5 12 2 -12 -1 2 -1
-5 -7 12 3 -11 0 3 0
-6 -12 14 6 -9 3 5 2
-7 -6 12 4 -11 1 2 0
-10 -7 14 5 -7 2 3 2
-4 -4 16 7 -5 4 4 3
-2 -3 12 2 -9 1 1 -2
-4 -6 13 1 -10 0 2 -2
-4 -4 13 1 -12 -1 2 -2
-7 -3 13 1 -12 -1 2 -2
-6 -3 12 0 -13 -2 1 -2
-10 -5 10 -1 -15 -4 0 -3
-10 -1 9 -1 -15 -4 -1 -5
-9 3 8 -2 -15 -6 -5 -6
-11 2 7 -2 -16 -7 -5 -7
-10 3 8 -1 -16 -7 -5 -7
-9 2 9 -1 -14 -6 -3 -6
-8 7 10 -1 -15 -6 -3 -6
-4 16 10 -1 -17 -6 -4 -6
-4 17 9 -2 -18 -7 -4 -7
-4 12 11 1 -15 -4 -1 -4
-3 12 12 4 -14 -2 0 -2
-4 9 12 4 -13 -3 -1 -3
-7 6 11 3 -12 -4 -2 -5
-14 -7 11 4 -11 -3 -3 -5
-16 -16 14 7 -8 0 -1 -2
-13 -10 13 5 -9 -1 -2 -3
-11 -5 13 4 -9 -3 -2 -4
-9 -4 14 5 -9 -2 -3 -3
-6 -4 16 9 -5 2 0 0
-7 -8 16 9 -6 2 2 0
-9 -11 16 10 -6 1 2 1
-9 -10 15 12 -5 2 1 1
-10 -8 13 10 -6 -1 -1 -2
-12 -6 11 8 -7 -3 -4 -5
-14 -1 9 6 -8 -4 -5 -8
-13 -2 11 7 -6 -3 -5 -7
-12 0 12 8 -5 -2 -4 -6
-12 0 12 9 -5 -1 -4 -7
-10 -2 14 10 -2 2 -1 -5
-5 5 14 11 -2 1 0 -4
-5 5 14 12 -2 2 0 -3
-2 5 15 14 1 4 2 -3
-6 2 16 15 2 4 2 -3
-13 -5 14 15 2 2 -1 -5
-12 -6 16 15 2 3 -1 -4
-14 -12 17 15 3 4 1 -5
-16 -15 19 18 4 6 2 -3
-15 -12 18 17 4 5 2 -4
-13 -9 16 14 1 4 -1 -6
-8 -3 14 14 0 3 -1 -8
-7 1 12 14 -1 2 -1 -7
-4 5 15 16 0 4 1 -5
-2 10 16 18 1 4 1 -4
-2 11 14 16 1 1 0 -6
0 17 15 17 2 2 0 -6
-1 19 14 14 1 2 -1 -8
-8 13 13 13 0 1 -2 -8
-9 13 12 12 -1 0 -3 -8
-6 17 12 13 -2 0 -3 -7
-4 16 12 12 -3 0 -3 -8
-5 13 12 13 -2 0 -3 -8
-4 12 13 15 -1 2 -1 -8
-2 5 17 20 3 5 2 -4
0 -1 19 22 6 7 6 0
-4 -8 20 23 7 8 5 1
-5 -15 21 22 7 8 7 1
-9 -17 21 21 6 8 4 2
-13 -16 16 17 2 5 2 -1
-10 -9 15 15 -1 3 1 -2
-8 -8 15 15 -1 3 1 -1
-8 -6 14 14 -2 2 0 -1
-9 -6 15 16 -1 3 3 0
-7 -2 13 15 -3 1 1 -2
-3 12 10 12 -5 -2 -3 -4
-1 23 9 11 -7 -4 -4 -7
0 24 8 9 -8 -5 -4 -8
-6 11 10 9 -7 -4 -4 -6
-7 3 12 11 -6 -2 -2 -3
-8 2 12 11 -7 -2 -1 -6
-7 -1 13 12 -7 -1 -1 -6
-6 -5 15 14 -5 0 2 -2
-3 -2 15 16 -4 2 2 0
-7 -3 13 15 -5 -1 0 -1
-10 -1 11 10 -8 -4 -3 -4
-6 5 10 9 -8 -5 -5 -5
-2 5 10 9 -7 -4 -4 -6
3 10 11 9 -7 -3 -3 -5
2 12 13 10 -7 -1 -1 -5
1 9 14 11 -6 0 1 -4
4 17 11 9 -9 -3 -2 -4
-1 23 7 6 -14 -8 -6 -7
-9 18 2 1 -18 -12 -11 -13
-10 15 4 3 -18 -12 -11 -13
-9 7 5 4 -15 -10 -9 -12
-7 -1 10 10 -9 -4 -4 -6
-8 -7 13 11 -7 -2 -3 -4
-12 -12 12 9 -8 -3 -3 -4
-8 -11 13 9 -8 -2 -1 -3
-6 -10 16 12 -6 -1 0 0
-6 -5 12 9 -9 -3 -2 -4
-5 0 10 7 -11 -5 -4 -6
-8 0 10 7 -11 -5 -4 -5
-10 -1 10 8 -11 -6 -6 -5
-9 -1 9 6 -12 -7 -7 -8
-8 -1 8 5 -12 -8 -8 -10
-4 7 7 4 -12 -8 -7 -10
-8 -2 10 5 -11 -6 -6 -7
-12 -6 10 6 -12 -6 -5 -7
-12 -3 9 5 -13 -6 -6 -6
-9 -1 9 5 -14 -7 -6 -7
-6 1 9 5 -14 -7 -6 -4
-4 10 5 2 -17 -10 -10 -9
-6 14 5 2 -17 -11 -11 -10
-2 10 8 5 -13 -8 -7 -7
-2 9 7 5 -13 -7 -8 -8
-3 7 8 5 -13 -7 -7 -8
-5 3 10 5 -12 -8 -7 -5
-6 1 9 4 -13 -8 -7 -6
-8 3 8 3 -15 -9 -10 -9
-10 3 5 0 -18 -12 -11 -11
-5 6 6 2 -17 -11 -11 -9
-4 12 6 4 -15 -10 -9 -7
-4 7 8 5 -12 -9 -9 -6
1 11 10 7 -11 -7 -7 -4
-4 6 11 9 -9 -5 -5 -3
-6 -6 15 11 -6 -3 -2 0
-15 -8 14 9 -8 -5 -4 -2
-19 -8 10 5 -13 -9 -9 -7
-9 4 6 0 -17 -12 -12 -12
1 15 2 -2 -20 -16 -15 -15
-2 16 -2 -5 -23 -18 -17 -15
-6 9 1 -2 -20 -16 -14 -12
-6 4 4 1 -15 -13 -11 -9
-5 3 6 3 -13 -11 -11 -6
-1 5 9 4 -11 -10 -10 -6
-5 -4 8 5 -13 -12 -11 -7
-6 -3 7 3 -14 -13 -12 -8
-6 2 8 4 -13 -11 -10 -7
-7 0 7 3 -16 -12 -11 -8
-6 3 7 3 -16 -12 -11 -8
-7 -2 10 5 -12 -9 -9 -3
-9 -6 10 7 -12 -9 -7 -5
-5 0 7 4 -12 -10 -9 -7
-10 -1 7 4 -13 -13 -12 -10
-9 -1 8 3 -12 -12 -11 -10
-6 6 5 1 -15 -15 -13 -11
-5 12 4 -1 -16 -16 -16 -13
-3 4 8 3 -13 -12 -10 -7
-5 -3 10 6 -11 -9 -8 -6
-8 -4 9 6 -12 -10 -9 -6
-6 5 7 3 -14 -12 -11 -8
-7 8 6 3 -15 -12 -11 -8
-5 6 7 4 -13 -13 -10 -7
-3 11 8 5 -13 -13 -11 -6
-4 9 8 4 -12 -13 -12 -8
1 5 10 6 -10 -10 -10 -8
-2 1 10 5 -9 -11 -10 -7
-14 -10 7 2 -12 -13 -12 -8
-16 -4 3 -2 -17 -17 -15 -13
-15 3 2 -2 -18 -19 -18 -13
-11 13 0 -4 -18 -18 -18 -14
-11 6 2 0 -15 -16 -16 -11
-11 -8 5 6 -10 -13 -11 -7
-10 -3 5 5 -10 -14 -13 -7
-9 0 3 2 -11 -15 -15 -10
-10 5 1 1 -14 -18 -16 -12
-11 7 2 1 -13 -17 -15 -11
-10 6 3 2 -13 -14 -13 -10
-6 6 3 3 -11 -11 -11 -10
-4 8 5 7 -8 -7 -7 -6
-7 11 3 5 -8 -7 -9 -6
-4 12 3 6 -8 -7 -7 -4
-4 10 1 4 -9 -10 -9 -5
-4 7 0 3 -10 -11 -11 -5
-4 11 -1 0 -11 -12 -11 -7
-7 4 -3 0 -13 -13 -14 -8
-10 3 -4 -2 -14 -14 -16 -9
-8 7 -5 -3 -17 -15 -17 -11
-8 0 -4 -1 -15 -14 -16 -11
-7 -4 -1 3 -10 -12 -13 -10
-5 -4 2 5 -6 -9 -11 -9
-1 0 3 7 -4 -8 -9 -10
3 6 3 6 -4 -10 -11 -12
2 5 4 9 -2 -8 -10 -8
4 7 6 10 0 -6 -9 -7
2 6 5 9 -1 -7 -9 -8
0 9 2 7 -2 -9 -11 -10
0 6 3 8 -1 -6 -10 -8
-1 2 3 9 -2 -8 -8 -8
0 3 3 11 1 -7 -7 -7
-3 1 1 9 0 -8 -9 -9
-2 -1 0 8 -1 -9 -12 -9
3 6 1 9 1 -9 -10 -7
4 6 2 10 2 -7 -9 -7
2 4 0 6 -1 -10 -13 -11
6 9 0 7 0 -9 -13 -10
9 13 1 7 1 -9 -12 -10
7 14 0 5 -1 -9 -12 -10
0 9 -4 2 -3 -12 -14 -11
-4 3 -4 2 -3 -11 -13 -10
0 1 -2 4 -1 -8 -11 -7
5 8 -2 6 -1 -8 -11 -7
6 11 -4 5 -1 -8 -11 -7
8 17 -4 4 -1 -7 -11 -7
6 15 -5 2 -2 -9 -14 -10
6 14 -3 4 0 -8 -11 -8
11 16 -3 3 1 -6 -10 -7
6 17 -6 0 -3 -9 -12 -10
5 14 -7 -1 -4 -9 -13 -9
7 9 -4 0 -2 -8 -10 -7
7 8 -7 -2 -5 -9 -12 -9
6 12 -8 -3 -6 -12 -14 -9
6 19 -9 -4 -6 -13 -15 -12
4 21 -8 -5 -8 -14 -16 -14
3 20 -6 -2 -6 -13 -17 -14
0 17 -4 0 -4 -12 -17 -13
1 17 -3 0 -3 -11 -16 -13
6 19 0 1 -2 -9 -14 -11
2 15 2 4 0 -7 -12 -9
-2 6 6 6 3 -6 -9 -7
-1 2 8 8 4 -3 -8 -6
-2 1 7 9 3 -4 -8 -7
-4 5 4 5 1 -8 -11 -10
-9 5 2 2 -2 -11 -15 -13
-12 3 0 -1 -4 -14 -18 -15
-11 3 3 1 -2 -13 -16 -14
-11 4 3 1 -2 -13 -16 -13
-12 3 3 1 -3 -11 -16 -14
-12 8 2 -1 -5 -13 -17 -14
-10 12 1 0 -5 -14 -17 -15
-9 14 2 0 -3 -13 -16 -14
-10 10 2 1 -2 -14 -15 -13
-7 6 5 4 3 -11 -13 -11
-5 6 6 4 6 -9 -12 -11
-5 5 7 5 10 -8 -11 -9
-2 9 9 6 12 -7 -10 -9
-3 12 8 3 12 -7 -11 -10
-6 10 7 3 11 -8 -12 -11
-7 13 4 2 10 -9 -14 -14
-6 20 5 2 11 -11 -13 -14
-5 16 5 2 11 -10 -13 -12
-9 14 3 1 9 -11 -14 -13
-9 11 4 2 10 -12 -14 -15
-8 6 8 7 15 -9 -13 -15
-9 6 16 18 22 -8 -14 -18
-15 3 33 42 38 -3 -17 -22
-23 2 57 70 57 2 -19 -27
-32 -1 74 91 72 9 -21 -33
-32 -4 84 108 86 13 -21 -36
-24 -4 85 115 91 14 -23 -40
-18 -1 84 119 96 20 -19 -39
-11 14 84 125 112 38 -6 -29
-10 32 79 128 125 55 11 -15
4 57 71 132 144 78 37 7
27 83 60 127 158 104 66 34
48 100 41 109 159 118 89 56
67 108 15 74 146 131 116 84
91 126 -30 11 107 133 140 112
124 149 -80 -57 61 134 164 140
161 166 -126 -110 32 148 198 178
184 184 -164 -150 7 159 226 209
198 204 -189 -183 -17 161 242 228
195 225 -208 -224 -53 148 243 239
176 246 -224 -274 -99 123 231 244
156 256 -223 -307 -137 84 195 224
118 241 -201 -326 -182 18 131 178
74 209 -167 -343 -233 -61 56 127
44 168 -131 -335 -258 -116 1 86
29 110 -107 -305 -249 -141 -31 51
19 59 -90 -265 -224 -155 -59 17
12 25 -83 -228 -198 -159 -81 -13
7 0 -96 -212 -179 -153 -91 -33
8 -12 -110 -203 -163 -145 -92 -43
3 -21 -112 -189 -147 -133 -88 -44
-1 -25 -102 -171 -130 -120 -82 -45
-5 -25 -87 -143 -106 -103 -75 -46
-9 -23 -74 -121 -87 -92 -72 -49
-6 -14 -57 -95 -66 -80 -64 -45
-4 -7 -44 -73 -48 -66 -57 -42
-6 1 -33 -58 -32 -57 -51 -40
-7 6 -21 -42 -16 -46 -44 -34
-9 -1 -9 -27 0 -35 -35 -28
-5 -5 4 -13 15 -24 -26 -21
-7 -2 6 -8 19 -21 -26 -23
-15 -4 6 -8 19 -20 -27 -25
-14 -4 9 -3 22 -17 -23 -23
-16 -1 8 -2 22 -17 -25 -23
-18 -5 9 1 25 -16 -22 -21
-16 2 9 2 26 -16 -24 -22
-17 3 6 2 26 -17 -24 -23
-17 -1 11 8 32 -14 -23 -21
-16 -3 14 10 35 -12 -21 -20
-19 -6 14 10 35 -12 -22 -19
-20 -4 14 10 34 -13 -22 -21
-20 -3 13 8 32 -12 -23 -24
-18 -3 14 9 33 -11 -20 -24
-17 -1 13 11 32 -10 -19 -25
-18 0 12 11 32 -11 -20 -25
-17 1 12 14 35 -10 -20 -22
-14 -3 14 16 38 -8 -17 -18
-16 -2 14 18 39 -7 -18 -19
-13 -3 18 19 41 -6 -17 -19
-11 -3 20 20 42 -4 -16 -17
-10 -6 23 22 45 -2 -13 -15
-8 -2 23 22 43 -2 -13 -15
-11 -3 18 17 38 -6 -13 -18
-17 -8 16 17 36 -6 -15 -18
-15 -5 17 18 37 -5 -13 -15
-15 -4 15 20 37 -5 -14 -17
-16 -5 14 19 37 -7 -15 -16
-18 -1 13 19 38 -7 -17 -18
-18 -4 15 18 39 -6 -17 -20
-15 -2 16 17 39 -7 -17 -21
-16 0 16 16 38 -8 -17 -20
-15 3 16 16 36 -8 -18 -22
-10 7 16 16 36 -7 -16 -20
-7 12 16 17 35 -6 -15 -18
-2 18 16 20 37 -4 -14 -16
-1 16 18 22 39 -2 -13 -16
-6 10 16 21 39 -5 -14 -16
-22 -10 12 18 35 -9 -19 -21
-25 -17 12 17 36 -9 -19 -23
-22 -16 15 19 38 -7 -17 -21
-20 -11 17 21 40 -6 -15 -19
-20 -15 16 20 39 -4 -16 -18
-18 -12 15 19 37 -3 -15 -18
-15 -9 15 20 37 -3 -14 -18
-14 -2 14 21 37 -2 -14 -19
-13 1 11 19 34 -4 -16 -21
-12 4 11 21 36 -4 -16 -20
-12 4 13 22 37 -4 -17 -20
-12 2 14 22 39 -2 -16 -18
-15 -2 13 22 38 -4 -16 -19
-16 -4 15 21 39 -2 -16 -19
-14 -1 16 21 38 0 -16 -18
-12 1 15 20 37 -2 -14 -17
-9 7 13 19 33 -4 -16 -19
-9 -2 15 22 37 -1 -13 -16
-7 -8 17 25 39 1 -10 -11
-4 -6 19 29 42 4 -8 -12
-5 -9 21 31 44 4 -9 -12
-6 -9 20 29 45 4 -9 -12
-5 -4 19 27 42 2 -11 -15
-3 2 17 26 41 1 -12 -16
-5 -4 18 26 41 3 -12 -15
-13 -12 16 24 38 1 -11 -15
-12 -10 15 25 36 0 -12 -15
-11 -4 12 23 34 -3 -14 -16
-12 -1 10 23 33 -4 -15 -17
-10 -11 14 29 38 0 -9 -11
-8 -7 15 29 39 2 -10 -10
-5 0 14 28 39 0 -12 -13
-4 -3 16 30 41 1 -10 -10
0 -4 18 32 43 4 -7 -7
3 -3 18 30 42 4 -6 -6
8 8 14 29 39 2 -7 -7
10 17 12 27 36 0 -8 -8
1 4 9 26 34 -1 -11 -10
-13 -9 3 20 29 -7 -16 -16
-11 -2 2 21 28 -10 -17 -17
-7 -3 5 25 33 -6 -15 -14
-5 -4 6 26 35 -4 -13 -15
-2 -10 9 28 36 -2 -10 -13
-1 -12 8 27 36 -2 -11 -12
-2 -9 6 25 33 -2 -11 -13
1 -6 6 24 32 -2 -8 -10
4 -2 0 23 28 -5 -11 -11
5 -4 2 24 31 -3 -8 -9
7 -6 1 26 32 -3 -8 -8
6 -14 2 28 32 -2 -6 -6
8 -9 0 27 30 -4 -9 -7
8 -5 -1 25 31 -5 -8 -8
8 -10 0 25 30 -4 -7 -6
12 -5 0 23 29 -3 -5 -4
12 -7 -2 22 27 -4 -5 -4
10 -10 -3 20 25 -4 -4 -4
12 -4 -5 19 22 -5 -5 -4
9 -4 -7 18 22 -7 -6 -4
11 -4 -8 19 23 -8 -5 -2
12 -1 -10 16 20 -11 -7 -3
15 2 -12 15 18 -14 -9 -5
17 1 -11 14 21 -13 -6 -4
14 -3 -11 13 18 -14 -6 -3
12 -5 -10 12 17 -14 -7 -4
15 -5 -9 12 18 -13 -6 -1
20 3 -10 11 16 -14 -4 0
24 7 -11 11 14 -14 -3 2
21 7 -12 8 12 -16 -6 1
23 9 -11 9 11 -17 -5 1
26 12 -10 10 12 -16 -3 3
28 15 -8 12 14 -17 -3 6
29 10 -6 11 15 -16 -1 6
24 -1 -5 12 15 -15 0 7
9 -12 -11 4 8 -21 -6 0
1 -17 -11 2 6 -22 -8 -3
6 -10 -10 3 5 -21 -6 -2
12 0 -8 5 6 -20 -5 2
14 4 -7 6 7 -20 -4 2
14 3 -5 7 7 -19 -4 3
15 14 -5 8 8 -21 -4 1
16 12 -2 12 13 -16 -2 4
14 3 1 14 15 -15 -1 4
11 -2 4 14 16 -15 -1 3
4 -8 3 13 14 -17 -4 -1
3 -11 7 13 16 -14 -3 0
6 1 6 13 13 -15 -3 0
3 6 4 11 12 -16 -5 -2
2 7 6 12 13 -14 -4 -2
3 7 10 14 15 -11 -2 0
2 5 11 18 19 -10 -1 2
2 9 14 18 21 -8 -1 2
4 11 15 19 22 -6 0 0
3 10 17 21 25 -4 1 1
2 3 20 21 27 -2 2 2
1 2 21 20 26 0 3 2
1 11 20 18 23 -2 1 -1
0 15 19 17 24 -2 1 -2
-1 19 18 16 22 -3 -1 -6
-3 17 18 15 23 -4 -2 -5
-8 19 16 14 22 -6 -4 -6
-5 18 20 16 26 -2 -2 -4
-5 2 21 18 28 -1 -1 -4
-11 -11 20 15 27 -2 -3 -6
-14 -4 16 10 22 -5 -7 -9
-13 5 16 9 21 -4 -7 -10
-10 2 18 10 23 -1 -4 -8
-9 -2 20 12 24 1 -2 -4
-8 -3 20 12 23 0 -1 -3
-5 2 20 12 23 0 -1 -3
-3 2 22 13 26 1 0 0
-2 0 23 15 28 3 1 0
-1 5 23 14 25 2 -1 -2
-3 6 23 13 25 1 -2 -4
3 14 23 11 24 0 -3 -5
5 16 24 12 23 2 -1 -3
-4 4 22 10 21 0 -1 -5
-12 -4 19 7 19 -3 -4 -5
-11 1 18 6 17 -4 -5 -6
-11 2 16 5 15 -5 -5 -7
-12 -4 19 9 19 -4 -4 -3
-13 -7 18 7 19 -6 -5 -3
-14 -15 21 8 20 -3 -3 -3
-13 -11 22 7 21 -4 -3 -4
-11 -6 21 6 18 -5 -4 -4
-8 0 21 4 17 -6 -6 -6
-10 -4 21 4 17 -5 -4 -5
-13 -8 20 3 15 -7 -4 -6
-12 -3 18 4 15 -7 -5 -6
-12 -3 18 3 15 -8 -6 -5
-12 -7 22 9 19 -4 -1 -1
-7 -2 23 10 21 -3 -2 -3
-8 5 20 6 17 -6 -6 -6
-7 7 20 4 18 -9 -6 -6
-7 6 21 6 17 -7 -6 -6
-10 -3 24 7 20 -5 -4 -4
-8 -5 26 8 20 -3 -2 -1
-5 -2 28 10 22 -1 0 1
-6 3 26 11 22 -2 -2 0
-10 0 24 8 20 -5 -3 -1
-12 -5 21 8 19 -7 -4 -1
-12 -8 20 8 20 -8 -6 -5
-11 1 21 7 18 -10 -8 -11
-11 2 21 7 18 -11 -10 -13
-11 0 23 9 20 -8 -8 -10
-7 7 23 8 20 -8 -7 -9
-4 7 23 9 20 -8 -6 -7
-4 1 26 12 23 -5 -3 -3
-7 -10 28 15 26 -3 -1 -1
-7 -3 27 14 25 -6 -2 -3
-3 9 25 13 24 -7 -4 -5
-5 6 25 13 27 -6 -5 -5
-9 2 23 12 26 -7 -6 -7
-9 4 23 11 26 -9 -7 -8
-5 10 24 12 26 -7 -7 -9
-3 3 29 16 32 -1 -2 -4
-2 -4 31 18 32 0 0 -3
1 -6 34 21 36 3 3 0
-4 -7 30 18 33 1 1 -3
-17 -12 23 12 28 -7 -6 -9
-17 -9 23 13 26 -8 -6 -9
-14 -6 26 15 29 -6 -6 -8
-13 -7 27 16 31 -5 -5 -9
-13 -8 28 17 31 -5 -4 -9
-14 -11 30 17 32 -3 -3 -7
-12 -6 28 16 33 -3 -4 -8
-13 -6 29 16 33 -3 -1 -6
-11 -11 30 18 34 -1 1 -4
-8 -6 30 19 34 0 1 -3
-9 -4 31 21 37 2 2 -4
-7 -2 32 21 36 0 1 -5
-6 1 33 22 38 1 1 -4
-4 1 33 22 38 0 0 -4
-1 -1 34 23 40 1 1 -2
0 2 36 23 38 2 1 -4
-3 4 35 21 38 2 1 -4
-7 -1 31 18 34 -2 -2 -8
-7 -6 28 15 30 -4 -4 -8
-7 -6 27 15 29 -3 -3 -8
-9 -9 28 16 32 -3 -1 -7
-6 -10 30 19 34 -2 2 -3
-4 -5 30 18 34 -3 0 -4
-5 -4 31 18 34 -2 1 -4
-4 0 31 16 33 -3 0 -6
-3 2 30 16 32 -4 0 -6
-4 -2 32 17 32 -1 1 -5
-5 -4 32 16 30 -3 1 -6
-3 4 30 14 28 -4 -1 -6
1 5 30 16 29 -3 1 -2
1 4 30 15 29 -3 1 -2
-2 4 28 14 27 -6 0 -3
-4 -3 27 12 27 -7 -1 -3
-4 -7 31 15 29 -4 2 -1
-5 -10 33 16 30 -4 2 -2
-3 -5 31 14 28 -5 2 -2
-3 -3 30 12 27 -6 0 -2
-2 -1 30 12 24 -6 1 -3
1 5 29 10 22 -8 -1 -6
-10 -3 25 7 20 -11 -5 -8
-16 -7 22 4 17 -15 -9 -10
-11 -3 23 5 17 -15 -7 -8
-9 -12 27 9 21 -12 -4 -3
-9 -13 29 11 25 -9 -1 -2
-7 -9 29 9 23 -10 -3 -3
-8 -10 28 6 21 -12 -3 -6
-6 -5 26 5 19 -12 -5 -8
-6 -3 24 4 17 -13 -5 -8
-3 -8 28 8 20 -10 -1 -3
-1 -5 28 9 21 -9 0 -2
-3 -5 29 9 21 -9 0 -1
-6 -8 30 11 22 -9 1 -1
-9 -9 31 12 22 -9 0 -2
-11 -8 32 12 22 -9 1 -1
-9 -2 32 11 21 -10 0 -1
-15 -1 30 7 19 -13 -2 -3
-18 -4 30 7 18 -12 -3 -4
-12 -3 27 5 14 -14 -5 -6
-2 -7 24 0 11 -17 -8 -9
1 -9 23 0 11 -18 -8 -8
-2 -10 25 2 11 -15 -6 -7
-5 -8 26 3 12 -15 -5 -5
-3 -10 28 6 16 -13 -3 -3
-2 -13 29 8 18 -12 -1 -1
0 -12 32 8 18 -10 -1 0
4 -3 32 8 19 -10 -1 0
7 -1 30 6 17 -10 -2 -1
5 1 28 3 14 -13 -3 -2
2 0 26 1 11 -15 -6 -4
-4 -4 23 1 8 -17 -9 -7
-11 -10 20 -3 6 -21 -12 -10
-14 -21 22 -1 8 -19 -9 -7
-12 -16 21 -2 7 -21 -11 -7
-10 -12 22 -2 8 -21 -10 -8
-10 -6 22 -3 8 -22 -11 -8
-6 -3 22 -2 9 -20 -10 -7
-5 -10 26 0 10 -16 -7 -3
-10 -20 26 0 9 -16 -5 -3
-12 -20 23 0 8 -18 -6 -4
-12 -19 22 0 8 -19 -7 -5
-10 -12 21 -2 7 -20 -9 -8
-6 -1 19 -3 5 -22 -10 -8
-6 1 18 -5 4 -23 -12 -9
-5 -8 22 -1 7 -20 -9 -6
-4 -15 27 1 11 -17 -5 -2
-4 -15 27 1 11 -17 -5 -2
-3 -12 27 1 10 -18 -6 -3
-3 -13 26 1 9 -18 -5 -4
-5 -19 28 2 10 -16 -4 0
-5 -15 26 2 9 -17 -6 -1
-2 -10 26 1 7 -18 -7 -1
-7 -12 22 -1 5 -22 -9 -4
-9 -15 22 -1 7 -21 -10 -3
-8 -14 21 -3 6 -23 -10 -5
-8 -11 21 -4 3 -23 -11 -5
-9 -20 23 -2 6 -22 -8 0
-12 -27 22 -2 5 -21 -8 0
-14 -25 20 -4 3 -22 -10 -2
-13 -17 17 -6 1 -23 -11 -4
-8 -15 18 -3 2 -21 -9 -3
-9 -17 19 -2 3 -20 -9 -3
-9 -20 19 -2 4 -20 -9 -3
-6 -17 20 -1 6 -19 -9 -1
-5 -9 19 -2 5 -20 -9 -2
-5 -7 20 -3 4 -20 -9 -2
-2 -5 20 -4 4 -20 -9 -4
-2 -7 22 -2 4 -19 -8 -3
1 -8 20 -3 4 -19 -8 -5
-2 -12 19 -4 2 -20 -9 -4
-2 -10 17 -4 1 -22 -10 -4
2 -8 17 -3 2 -21 -10 -3
-2 -6 13 -5 0 -24 -12 -4
-2 -13 15 -2 3 -20 -10 -2
-2 -19 18 1 6 -17 -8 0
-3 -20 19 2 6 -17 -6 2
-5 -18 18 1 5 -18 -8 0
-7 -14 16 -2 2 -20 -11 -3
-4 -9 17 -2 2 -18 -10 -3
-1 -5 16 -3 2 -18 -10 -1
0 -5 10 -5 -2 -20 -12 -4
-3 -8 9 -6 -3 -21 -12 -3
-2 -14 12 -4 0 -20 -10 -1
-2 -20 13 -2 2 -18 -9 2
1 -16 13 -1 3 -18 -9 0
1 -14 13 -1 3 -18 -9 -1
7 -12 14 1 5 -16 -6 2
5 -13 12 -1 2 -17 -8 1
4 -20 12 -1 2 -16 -6 2
4 -26 13 0 4 -14 -4 5
6 -24 12 1 4 -14 -4 4
8 -24 12 2 4 -12 -3 5
8 -19 12 1 5 -12 -3 6
7 -10 7 -2 1 -16 -7 3
6 -9 6 -3 0 -17 -9 0
6 -12 5 -5 -2 -18 -9 0
3 -9 2 -9 -6 -22 -12 -3
5 -3 0 -11 -8 -21 -13 -3
8 3 0 -13 -8 -22 -12 -3
10 3 0 -13 -8 -22 -11 -2
13 2 1 -10 -7 -20 -9 0
10 -9 1 -11 -6 -20 -10 -2
8 -15 0 -10 -6 -20 -9 1
10 -14 0 -10 -6 -20 -9 0
10 -18 1 -9 -5 -19 -8 2
12 -21 5 -7 -2 -16 -5 4
6 -26 5 -6 -3 -15 -5 5
3 -28 3 -8 -5 -18 -7 3
5 -20 5 -8 -6 -17 -6 2
5 -16 5 -9 -5 -15 -7 3
1 -17 6 -7 -5 -14 -7 2
-3 -15 5 -9 -8 -16 -11 -2
-7 -17 3 -10 -8 -18 -13 -6
-5 -10 3 -10 -8 -18 -14 -9
-5 -6 5 -10 -8 -17 -14 -7
-8 -14 5 -11 -10 -18 -14 -5
-10 -15 4 -12 -11 -19 -14 -7
-10 -14 4 -12 -11 -17 -15 -7
-8 -17 5 -12 -11 -17 -13 -6
-9 -18 3 -13 -12 -17 -13 -5
-11 -20 2 -12 -12 -17 -13 -5
-7 -21 4 -9 -10 -15 -11 -3
-5 -28 7 -6 -6 -12 -8 -1
-6 -22 4 -9 -8 -14 -11 -3
-6 -15 4 -9 -8 -15 -12 -4
-6 -18 4 -10 -8 -13 -11 -4
-9 -21 4 -10 -8 -12 -11 -4
-12 -20 4 -10 -8 -12 -13 -5
-13 -20 4 -11 -9 -12 -11 -5
-12 -25 6 -8 -6 -9 -8 0
-15 -25 6 -7 -6 -7 -9 -1
-19 -19 1 -10 -9 -9 -10 -4
-20 -10 -1 -12 -9 -12 -12 -5
-15 -8 -1 -12 -9 -12 -12 -5
-5 -13 -1 -11 -8 -11 -12 -4
-1 -14 -1 -11 -9 -11 -13 -5
-6 -16 2 -7 -8 -12 -14 -8
-10 -25 15 11 6 -5 -12 -8
-16 -29 38 37 25 3 -11 -10
-16 -30 64 69 46 13 -11 -12
-21 -29 81 92 63 20 -12 -18
-34 -43 85 102 70 20 -17 -27
-34 -48 83 106 72 18 -21 -32
-26 -33 80 109 80 26 -16 -30
-23 -15 78 112 93 42 -2 -19
-13 6 74 117 109 62 20 -1
5 30 63 123 127 87 47 25
23 54 48 117 137 106 71 46
50 75 29 100 139 123 98 71
79 97 -3 62 123 135 125 102
109 116 -49 -1 83 138 152 134
146 137 -102 -71 41 143 179 166
180 159 -150 -124 12 154 211 196
198 170 -184 -165 -15 161 232 222
197 170 -202 -196 -40 162 244 242
189 193 -214 -236 -77 144 240 249
174 216 -222 -281 -125 115 224 247
151 212 -217 -309 -166 74 180 219
118 202 -188 -329 -214 7 116 175
75 178 -153 -343 -262 -66 44 125
47 138 -123 -329 -276 -108 1 88
34 90 -102 -297 -265 -129 -29 55
24 37 -84 -254 -239 -140 -55 21
14 -7 -78 -221 -214 -145 -77 -11
6 -24 -95 -212 -203 -145 -89 -33
5 -29 -112 -205 -190 -135 -91 -39
4 -35 -115 -193 -176 -123 -84 -38
0 -35 -103 -172 -153 -108 -76 -40
-4 -40 -90 -146 -131 -92 -67 -38
-10 -50 -80 -122 -111 -80 -63 -40
-9 -43 -65 -98 -91 -66 -55 -36
-6 -34 -51 -77 -73 -54 -48 -32
-7 -33 -38 -59 -53 -42 -41 -28
-6 -26 -28 -45 -40 -33 -36 -25
-7 -27 -18 -32 -27 -22 -28 -22
-11 -34 -11 -24 -20 -17 -25 -20
-11 -28 -8 -21 -18 -13 -24 -21
-13 -23 -6 -18 -15 -10 -22 -18
-26 -44 -5 -15 -13 -7 -18 -15
-26 -46 -6 -11 -11 -6 -17 -14
-19 -37 -4 -6 -7 -3 -15 -13
-17 -29 -6 -5 -6 -4 -16 -12
-14 -25 -4 -1 -2 -2 -15 -11
-13 -26 -1 3 3 0 -14 -11
-13 -26 0 2 4 0 -14 -14
-17 -31 -1 1 3 0 -16 -16
-22 -38 0 1 2 1 -15 -15
-18 -29 0 1 2 4 -14 -15
-16 -20 -1 1 0 3 -14 -13
-13 -15 -2 2 0 4 -13 -13
-9 -8 -2 3 0 2 -13 -13
-10 -9 -3 4 0 2 -13 -12
-11 -8 -2 6 3 2 -14 -14
-8 -8 1 8 7 4 -12 -13
-10 -16 3 8 8 5 -11 -12
-15 -28 4 9 10 8 -10 -12
-20 -35 3 7 7 7 -12 -14
-20 -34 3 7 7 9 -11 -12
-17 -24 0 6 5 8 -9 -9
-19 -27 1 9 7 11 -8 -8
-21 -35 3 12 8 12 -5 -5
-16 -26 0 12 8 10 -5 -7
-16 -14 0 11 9 6 -9 -9
-18 -14 0 13 12 9 -9 -9
-18 -17 5 14 14 12 -6 -7
-20 -23 5 14 15 13 -6 -6
-14 -25 5 13 14 13 -6 -7
-8 -23 2 10 11 13 -9 -10
-1 -18 3 11 11 13 -6 -7
7 -5 1 11 10 12 -6 -7
2 -3 -2 11 8 9 -8 -10
-7 -11 -6 9 6 7 -12 -12
-10 -12 -6 9 8 6 -12 -12
-17 -20 -9 8 6 4 -17 -17
-20 -25 -7 9 9 7 -16 -17
-15 -23 -4 11 11 11 -13 -15
-13 -22 -3 11 12 13 -11 -15
-9 -23 -1 14 13 16 -8 -11
-11 -30 0 15 15 19 -5 -8
-15 -36 -2 15 13 17 -6 -8
-15 -34 -4 14 11 16 -6 -10
-12 -25 -6 13 10 14 -8 -11
-10 -19 -5 14 13 15 -8 -10
-9 -18 -5 15 16 14 -9 -12
-8 -15 -3 16 16 17 -8 -13
-9 -15 -3 16 16 16 -8 -11
-8 -14 -3 15 15 16 -8 -11
-7 -11 -5 13 12 16 -9 -12
-9 -14 -5 13 12 18 -6 -9
-9 -15 -6 14 12 17 -5 -8
-7 -16 -6 17 13 18 -4 -8
-6 -18 -7 17 14 18 -4 -9
-8 -20 -8 17 15 18 -6 -9
-7 -17 -6 18 17 17 -8 -10
-9 -25 -2 20 20 20 -5 -9
-7 -26 -1 20 21 22 -3 -6
-8 -21 -2 18 20 22 -4 -8
-10 -18 -7 15 15 18 -8 -15
-9 -11 -8 14 13 18 -7 -13
-6 -7 -10 14 12 15 -8 -13
-8 -14 -9 17 14 18 -7 -9
-5 -9 -10 17 14 17 -7 -9
-4 -7 -10 18 16 17 -7 -8
0 -13 -5 22 21 20 -4 -4
2 -19 2 28 28 28 3 1
1 -19 1 26 27 27 2 1
-1 -30 4 30 31 31 6 6
0 -26 4 28 29 32 7 6
-3 -23 0 24 26 30 5 4
-11 -26 -9 18 17 21 -2 -2
-14 -27 -13 16 13 18 -5 -6
-6 -25 -12 19 15 20 -4 -6
1 -18 -13 19 16 20 -5 -8
0 -16 -14 18 16 17 -7 -11
5 -19 -9 21 21 21 -3 -6
5 -23 -7 22 23 24 0 -2
6 -20 -7 21 22 25 0 -3
10 -16 -9 19 19 25 0 -4
9 -19 -11 18 18 25 2 -2
13 -15 -12 19 18 26 3 -1
14 -12 -15 19 16 24 2 -2
8 -19 -18 17 14 20 0 -2
5 -26 -18 16 14 18 -1 -3
9 -27 -16 19 17 22 0 -1
10 -29 -16 18 18 22 1 -1
12 -23 -16 15 16 21 0 -2
12 -14 -20 10 10 17 -2 -6
13 -13 -20 11 10 19 1 -5
16 -9 -23 8 6 16 1 -4
18 -10 -25 9 6 16 2 -1
21 -8 -24 10 6 16 3 0
23 -9 -23 12 8 19 6 3
24 -16 -21 14 9 19 7 5
20 -23 -21 14 10 20 8 6
18 -19 -24 9 6 16 4 2
20 -12 -24 6 4 15 3 0
18 -13 -24 3 0 14 3 1
20 -14 -24 3 0 15 6 3
23 -11 -23 4 -1 16 9 5
27 2 -27 0 -5 12 5 4
28 5 -25 1 -5 13 6 5
29 3 -25 2 -5 13 6 6
30 5 -24 2 -4 11 6 5
33 -4 -19 7 -1 16 9 8
29 -12 -17 7 1 16 8 8
27 -8 -17 4 -1 14 7 6
23 -7 -18 2 -2 14 5 5
19 -12 -16 4 -2 16 7 6
16 -11 -16 3 -4 16 9 7
14 -11 -15 6 -3 17 11 11
11 -7 -13 9 -1 19 12 12
5 -2 -10 13 3 22 14 13
-3 -4 -6 16 7 24 15 16
-1 -6 -5 15 7 25 13 14
19 -2 -12 8 0 18 6 3
30 -12 -14 3 -3 14 1 -4
22 -13 -10 6 -1 17 2 -3
17 -7 -8 8 0 19 4 -2
13 1 -10 5 -3 18 3 -5
16 1 -6 8 -1 21 5 -2
15 -3 -3 12 3 24 8 0
12 0 -3 12 4 25 7 -1
14 0 1 15 8 27 8 0
14 -4 4 15 10 29 9 0
11 -3 6 16 13 31 9 0
8 -2 6 16 14 32 9 -1
2 -2 4 13 10 31 7 -4
2 -3 6 12 11 34 9 -3
1 -8 8 14 12 36 11 -1
2 -4 7 13 11 36 10 -2
6 4 7 14 13 37 11 -3
7 5 8 14 15 38 11 -3
5 -1 10 16 18 40 13 -1
4 -3 11 15 18 40 11 -3
3 -4 11 15 19 42 11 -4
2 -4 12 14 20 43 11 -4
-2 -3 10 12 18 42 10 -6
-6 -4 8 9 15 39 7 -8
-6 -1 7 8 14 39 8 -7
-6 -4 6 7 12 38 8 -6
-5 -5 8 9 14 41 10 -5
-5 -8 8 9 16 39 8 -4
-8 -12 10 11 18 40 9 -3
-7 -14 11 11 20 41 9 -4
-6 -9 10 9 18 40 8 -6
-6 -5 11 7 17 41 8 -6
-5 -3 10 7 17 40 9 -7
-4 -2 10 5 15 41 9 -7
0 -1 11 7 16 43 12 -3
0 -2 11 7 14 42 12 -2
-1 0 9 6 14 39 9 -5
1 0 9 5 15 40 8 -5
2 1 10 8 18 40 10 -2
2 4 10 5 16 38 8 -5
-3 -2 9 5 16 38 7 -7
-4 -7 13 6 18 41 8 -7
-3 -4 13 5 17 41 8 -9
-2 -5 14 6 18 43 9 -9
1 -5 15 8 18 45 12 -4
-3 -11 16 9 17 44 14 -1
-5 -16 15 11 18 45 15 0
-5 -10 10 6 14 40 10 -4
-2 1 6 4 11 35 5 -10
-5 0 5 3 11 34 2 -12
-6 -3 7 4 13 37 5 -11
-8 -7 9 5 14 37 5 -13
-5 -5 9 6 14 39 7 -12
0 -6 12 9 17 42 9 -10
-1 -10 15 11 18 44 12 -6
1 -3 13 9 14 42 9 -9
4 4 13 11 15 42 10 -7
6 3 15 12 18 42 10 -6
0 0 13 12 18 39 8 -10
-6 -6 12 10 16 39 6 -11
-6 -7 11 9 17 38 5 -12
-2 -3 12 10 19 39 7 -12
-2 -3 14 12 18 42 8 -11
-1 -2 13 11 16 42 7 -11
-7 -6 11 11 16 39 6 -11
-8 -8 10 10 14 39 6 -13
-8 -1 9 9 12 38 5 -14
-6 -3 11 12 16 39 7 -11
-5 -9 15 17 20 42 10 -9
-2 -11 15 16 22 42 8 -10
-6 -12 15 16 21 43 6 -11
-7 -10 15 15 22 42 5 -13
-7 -4 15 15 21 42 6 -13
-5 -3 14 13 18 42 6 -14
-3 -3 15 16 21 43 8 -15
-3 -6 15 17 22 44 10 -15
-1 -5 15 19 21 45 11 -13
2 5 14 18 22 45 10 -12
2 5 14 19 23 44 10 -14
2 6 15 20 24 45 9 -15
-1 2 15 19 23 44 7 -16
-3 -12 19 22 28 46 10 -13
1 -8 20 24 28 48 13 -13
3 -2 19 23 27 48 12 -12
9 -1 20 25 27 50 16 -9
6 1 19 23 27 48 15 -11
4 0 17 23 25 47 12 -12
8 4 19 25 28 49 15 -8
12 12 20 27 29 49 16 -9
8 12 18 24 27 47 12 -13
0 4 17 21 26 44 10 -16
-8 0 14 16 22 41 6 -22
-4 3 14 17 22 42 8 -20
3 2 17 21 23 44 10 -17
1 -3 18 21 23 44 11 -15
-2 -4 15 21 22 43 12 -15
-2 -5 16 21 23 44 11 -15
0 -4 17 23 24 42 12 -12
3 -3 20 25 26 44 15 -9
2 -3 21 25 26 45 14 -9
3 -3 20 23 25 43 12 -10
-1 5 13 16 19 37 7 -17
-4 12 10 13 14 35 3 -22
-2 12 9 13 12 34 1 -25
0 7 9 14 13 34 4 -21
0 9 9 14 13 36 7 -18
0 7 10 15 14 36 8 -17
1 -4 14 20 19 39 12 -13
1 -6 16 20 20 41 12 -13
1 -7 18 22 22 42 13 -11
2 1 17 20 20 42 12 -13
2 4 18 19 22 41 13 -13
4 0 19 19 21 42 14 -13
5 -1 17 19 18 41 14 -14
6 1 16 18 17 40 15 -11
3 3 15 16 15 38 13 -12
0 5 12 16 13 36 9 -13
0 4 12 16 14 33 7 -15
1 6 10 13 13 31 5 -17
4 8 9 12 11 29 3 -21
5 14 5 9 8 27 2 -24
9 23 7 7 9 27 3 -22
9 19 9 10 11 31 4 -20
6 3 14 14 14 35 8 -15
3 -4 15 14 14 35 10 -14
3 -4 14 13 13 35 10 -14
3 -6 14 15 14 36 10 -12
3 0 13 14 14 34 11 -13
4 4 12 12 13 31 9 -14
5 4 13 13 13 32 8 -14
7 5 14 15 15 33 8 -12
8 2 15 13 14 33 10 -12
6 3 14 13 13 33 8 -12
6 6 14 12 12 32 7 -13
0 0 14 11 11 31 9 -12
-2 2 10 8 7 27 6 -15
-2 11 7 7 5 26 3 -16
-5 12 6 7 5 25 3 -17
-5 15 7 6 7 25 3 -17
-4 9 11 10 11 30 4 -17
-3 5 13 10 12 29 4 -16
6 11 14 11 10 29 5 -16
7 4 15 11 11 30 6 -14
7 -3 14 9 9 28 5 -15
0 -10 14 7 7 25 3 -16
-2 -8 11 6 4 22 1 -18
0 0 10 7 4 24 2 -16
1 5 9 6 4 23 1 -18
1 3 10 7 6 24 3 -17
2 2 13 9 8 24 3 -15
2 2 13 7 7 24 3 -16
6 7 13 8 7 25 2 -16
6 9 15 9 7 27 5 -13
5 9 14 9 7 28 5 -12
4 13 11 6 5 25 4 -14
2 8 9 5 3 23 3 -16
-1 -2 11 7 6 26 7 -16
0 -5 10 6 6 25 5 -17
1 -7 12 8 7 26 6 -14
2 0 12 7 6 24 3 -15
4 8 11 7 5 22 1 -16
3 9 12 7 6 23 1 -15
6 10 14 7 5 24 1 -16
3 8 14 6 3 24 2 -15
1 4 13 6 2 23 3 -14
0 1 12 6 3 24 4 -14
0 3 13 7 3 25 5 -13
4 5 13 8 5 26 5 -11
6 9 11 7 4 23 5 -13
3 4 13 10 6 26 7 -10
1 -1 15 12 8 25 7 -8
-2 -1 15 11 8 25 5 -8
1 4 14 7 4 23 3 -11
-1 2 12 5 1 22 1 -13
3 2 12 5 1 21 1 -11
5 2 14 9 4 25 5 -7
5 3 13 8 4 23 7 -6
6 8 10 6 3 20 4 -7
8 19 7 4 0 16 1 -11
12 24 8 5 1 17 -1 -13
12 13 14 9 7 24 4 -8
3 4 12 6 4 22 3 -12
-2 8 9 3 0 19 -1 -15
3 8 11 4 2 22 3 -12
4 4 11 5 5 23 6 -8
4 8 10 6 3 23 6 -6
4 10 9 5 1 20 3 -8
0 4 9 5 3 19 2 -8
-3 2 9 5 4 19 1 -7
-6 3 7 3 1 16 -2 -10
-10 1 5 1 0 14 -3 -14
-9 -1 9 4 2 17 0 -10
-8 1 9 2 1 16 -1 -10
-8 -1 12 4 2 18 1 -8
0 -3 15 7 5 21 6 -4
6 -3 14 7 4 22 8 -3
8 5 12 8 4 21 7 -5
6 11 10 6 2 19 5 -10
8 16 9 5 2 17 2 -11
13 20 10 7 3 17 2 -11
9 15 12 6 4 18 1 -11
-3 1 10 3 1 17 0 -13
-5 5 8 0 -1 14 -1 -16
0 12 8 1 -1 15 1 -16
5 16 9 1 1 17 5 -12
7 16 10 5 1 17 5 -11
9 19 12 7 2 19 6 -9
11 20 13 8 3 19 7 -7
11 21 13 8 3 18 6 -7
13 25 14 9 4 19 7 -6
12 18 16 9 5 19 9 -5
3 -5 14 6 3 18 7 -6
-4 -12 8 2 -2 14 2 -12
-2 -3 8 3 -2 14 3 -11
1 1 10 5 0 16 3 -9
2 2 11 8 2 19 5 -5
3 2 10 7 2 19 6 -5
7 9 12 9 3 19 6 -5
10 15 12 9 3 18 7 -6
6 15 10 6 2 14 4 -8
8 10 12 8 4 17 6 -6
8 7 13 10 5 20 10 -2
8 8 12 9 5 21 11 -1
10 14 10 7 2 19 8 -4
11 17 10 7 1 18 8 -4
14 13 11 10 3 20 9 -3
14 13 9 10 4 19 7 -4
12 16 7 8 2 17 5 -4
14 22 5 6 0 16 2 -4
14 20 3 5 -1 15 3 -5
10 15 3 5 0 15 4 -6
12 16 4 6 1 17 7 -4
15 15 6 7 2 19 10 0
18 20 7 8 3 21 12 1
18 22 9 9 2 21 13 1
18 19 7 9 1 19 13 1
16 13 5 7 1 20 12 1
12 10 5 7 0 19 12 0
12 4 7 8 2 20 13 3
15 5 7 9 2 20 11 3
15 13 8 8 0 19 10 2
17 24 6 6 -1 17 9 0
19 31 2 1 -5 16 7 -3
24 33 1 0 -7 14 8 -2
30 37 4 3 -6 16 9 1
26 37 6 5 -5 16 10 2
27 32 11 8 -1 20 13 6
28 23 13 13 3 22 16 9
21 17 7 7 -5 17 10 3
18 13 8 6 -4 18 11 1
5 6 6 4 -5 15 7 -2
-3 3 6 3 -8 12 4 -6
-1 9 7 3 -8 14 3 -5
2 13 8 3 -8 13 4 -2
4 16 5 1 -10 11 4 -1
2 19 6 0 -13 10 2 -3
0 17 6 1 -15 8 2 -5
4 13 9 3 -11 12 5 0
4 6 11 6 -10 15 7 3
1 4 11 5 -10 15 8 3
2 14 8 5 -11 13 6 1
0 19 8 2 -13 13 5 -1
5 25 10 3 -13 13 6 -1
10 31 11 4 -10 14 7 2
13 28 14 6 -8 16 10 7
17 29 15 9 -8 19 12 9
9 21 11 5 -13 15 9 5
-4 11 7 -1 -15 11 4 -1
-5 7 8 2 -14 12 5 1
-1 14 9 3 -12 12 6 3
1 17 10 4 -12 11 6 3
2 15 12 5 -8 14 8 5
1 8 15 6 -7 16 10 6
0 9 14 6 -9 17 12 6
1 13 11 3 -11 17 10 6
3 14 10 4 -10 16 10 7
2 9 17 12 -6 18 11 7
1 5 27 28 5 20 9 4
-3 2 48 55 25 27 8 -1
-8 6 71 84 47 35 6 -8
-16 4 89 105 62 42 3 -13
-14 8 96 118 73 44 -1 -21
-11 8 99 126 76 47 -4 -27
-8 17 95 125 81 54 1 -24
-12 29 89 122 91 67 13 -15
-6 40 84 125 107 89 37 7
15 63 74 135 129 119 69 36
36 85 59 137 146 142 99 63
58 103 39 120 148 157 126 91
90 131 11 84 134 172 158 125
121 159 -35 20 93 178 187 158
152 176 -93 -50 44 181 217 190
180 187 -138 -97 16 196 253 224
192 198 -170 -139 -16 204 276 250
198 213 -188 -171 -45 202 286 266
184 229 -195 -205 -82 176 274 271
162 239 -203 -248 -132 136 245 263
145 234 -199 -278 -179 81 194 231
108 230 -172 -302 -236 5 123 187
64 218 -133 -313 -278 -63 57 144
43 190 -99 -297 -282 -93 23 110
30 149 -72 -267 -268 -109 -3 78
22 104 -53 -226 -243 -118 -28 44
17 58 -42 -189 -217 -126 -54 8
9 30 -51 -175 -203 -126 -68 -13
1 7 -71 -170 -190 -118 -68 -18
-3 -4 -86 -163 -177 -105 -63 -19
-3 -2 -86 -152 -162 -97 -61 -24
-3 -6 -75 -130 -141 -83 -55 -25
-6 -20 -61 -104 -117 -66 -45 -20
-4 -25 -46 -81 -96 -50 -37 -16
1 -17 -32 -61 -77 -40 -32 -13
2 -7 -24 -48 -65 -33 -29 -14
2 -1 -14 -35 -51 -21 -20 -9
2 8 -7 -26 -41 -14 -16 -7
2 8 0 -18 -35 -9 -13 -6
2 5 4 -15 -32 -5 -10 -4
0 5 5 -12 -29 -3 -9 -5
-3 2 11 -5 -23 1 -4 1
-6 -5 13 0 -18 4 -3 4
-6 -2 13 3 -16 3 -4 4
-6 4 13 4 -14 2 -5 3
-5 6 14 6 -11 4 -4 4
-6 2 15 8 -8 6 -3 3
-6 1 16 9 -8 8 -3 3
-5 -2 18 10 -6 9 -2 5
-4 0 18 10 -7 9 -4 5
-4 8 15 8 -9 7 -3 3
-2 13 15 8 -11 7 -3 4
-2 9 17 13 -7 12 1 6
-3 10 17 15 -6 12 2 5
0 11 18 16 -4 12 5 9
3 16 20 18 -2 16 7 14
2 13 18 17 -2 15 6 11
-1 10 19 17 -2 14 4 9
-4 12 15 12 -6 9 -1 3
-6 3 18 13 -7 11 -2 3
0 5 21 15 -5 14 1 5
3 7 23 18 -4 15 4 9
-4 -5 21 18 -4 14 3 11
-4 -1 20 18 -6 12 2 9
-2 0 19 19 -4 10 1 9
-6 -4 18 19 -3 9 -1 8
-4 -2 19 18 -2 11 -1 7
-3 2 20 17 -2 11 0 6
-1 6 18 17 0 12 1 7
0 7 19 17 -1 15 2 9
2 10 20 18 -2 15 5 11
3 16 21 19 -3 15 5 12
0 21 16 16 -5 13 2 9
-2 24 14 15 -6 11 -1 8
1 17 15 19 -2 12 1 11
-2 8 18 21 -1 13 1 12
-6 -1 24 23 4 16 4 12
-11 -8 24 22 4 16 2 10
-12 -12 23 21 2 16 1 9
-6 -10 25 23 5 21 4 13
-2 -11 24 22 4 20 5 14
3 -4 21 19 -1 16 3 13
2 2 17 17 -4 13 2 12
3 7 17 19 -3 15 2 13
1 12 16 19 -2 14 1 11
-6 3 16 19 -2 14 -1 10
-5 -3 19 21 2 18 2 10
-3 0 19 20 1 17 2 9
-2 5 18 18 -1 14 -1 8
-1 7 19 19 -2 15 0 8
-3 4 19 18 -2 15 0 10
-1 3 18 18 -4 14 0 11
0 -1 19 20 -3 14 1 11
-1 3 17 18 -5 12 -1 9
-2 8 16 18 -2 10 -3 9
-2 5 17 21 -1 11 -4 10
-2 0 19 23 2 15 -1 12
0 2 19 22 3 14 -1 11
0 2 19 21 1 13 -1 12
1 -2 20 23 2 16 3 14
0 -6 21 23 2 17 5 18
0 -11 21 25 3 18 7 21
5 -8 19 26 5 19 8 23
9 -4 19 27 6 19 7 25
12 7 18 27 7 16 5 23
13 11 17 26 5 15 3 19
12 14 16 23 5 13 1 16
12 16 18 24 5 14 1 16
11 10 18 24 7 14 3 19
1 -1 13 20 2 9 0 17
-6 -6 7 15 -3 1 -4 14
0 -5 11 20 1 3 -1 18
2 -9 13 23 4 4 2 22
4 -7 12 22 3 2 1 22
5 -10 13 24 6 1 3 26
10 -12 14 27 10 3 6 30
12 -13 15 28 11 4 8 29
11 -13 15 28 11 3 8 28
16 -3 13 25 10 1 7 24
17 1 11 23 7 0 5 20
16 -3 11 24 8 2 7 21
16 -4 7 22 6 -1 8 25
14 -4 4 22 4 -1 8 26
9 -8 1 19 2 -5 5 26
14 -1 -2 18 2 -8 5 25
15 4 -4 17 0 -9 4 22
15 4 -3 17 0 -8 3 21
17 3 -2 17 1 -8 4 23
19 -4 -1 18 2 -7 8 26
20 -6 -1 18 1 -5 10 27
18 -8 -2 17 1 -4 13 29
21 -5 -4 14 -3 -4 12 29
27 -4 -8 11 -7 -8 9 28
31 -4 -9 12 -6 -10 8 28
34 -5 -7 14 -3 -8 11 34
34 -6 -5 16 -2 -6 13 37
34 0 -6 14 -4 -8 11 34
33 5 -8 11 -7 -12 8 32
30 4 -10 8 -10 -14 7 31
27 -5 -9 8 -11 -13 9 34
22 -11 -10 6 -13 -15 9 33
24 -9 -13 5 -15 -16 9 35
31 -8 -14 5 -17 -17 9 35
31 1 -15 4 -18 -17 9 36
32 3 -13 5 -16 -16 11 38
36 1 -12 7 -14 -15 13 41
38 1 -12 7 -15 -14 13 40
39 -2 -10 9 -13 -15 13 40
36 -3 -10 6 -16 -17 11 39
34 -1 -11 5 -18 -17 9 39
31 -1 -13 2 -20 -19 7 35
25 0 -19 -1 -24 -24 3 32
25 6 -19 0 -26 -26 1 31
24 0 -15 4 -21 -23 5 35
24 -5 -10 9 -16 -18 10 39
26 -1 -10 9 -16 -18 9 39
23 -1 -7 10 -15 -15 10 39
23 -4 -3 12 -11 -12 12 39
25 -5 1 16 -9 -11 13 41
22 -1 2 15 -11 -13 10 40
20 4 1 13 -12 -14 8 36
22 6 3 15 -10 -12 10 36
18 9 1 15 -11 -12 8 33
18 9 3 17 -10 -11 8 33
18 17 4 16 -8 -13 7 32
17 16 5 17 -7 -12 6 34
13 8 10 20 -3 -7 9 37
10 6 10 18 -3 -7 10 34
8 6 11 18 -3 -6 9 32
8 10 13 18 -4 -4 9 31
11 11 16 19 -2 -1 10 33
14 10 17 22 2 1 14 35
15 6 21 26 5 4 14 38
11 13 17 23 2 1 11 34
8 20 15 20 1 -3 8 30
8 14 15 21 2 -2 8 29
6 7 17 22 3 1 8 28
5 3 15 19 1 -1 7 26
2 0 16 17 2 -1 7 27
0 -5 18 18 1 2 8 27
3 -2 17 16 -1 1 8 26
1 -3 15 14 -2 -2 6 26
1 -1 16 14 -3 -2 5 26
2 3 16 15 -2 -2 5 26
3 8 16 14 -2 -4 4 24
4 7 16 14 -2 -4 4 24
2 8 17 13 1 0 5 25
5 12 17 13 0 1 6 26
4 7 18 13 2 1 6 26
2 -1 18 12 0 1 5 25
0 -1 17 11 -1 0 4 24
0 4 14 9 -4 -4 4 23
0 8 13 9 -4 -2 2 23
3 8 12 9 -5 -3 2 24
-1 8 10 7 -7 -7 0 22
-1 10 9 6 -9 -8 0 22
0 1 13 10 -3 -2 3 25
3 -1 17 12 -1 -1 6 25
3 5 16 10 -4 -4 2 22
2 -2 16 9 -4 -4 0 20
2 -3 18 9 -4 -3 1 22
2 0 15 9 -6 -4 2 21
0 1 14 9 -7 -6 0 21
-3 3 10 5 -9 -8 -2 17
-1 6 11 7 -6 -7 0 19
3 7 13 9 -5 -6 0 19
5 10 14 9 -3 -5 -2 20
5 5 15 11 -2 -5 -1 20
4 0 18 12 0 -3 1 21
7 -1 19 13 0 0 3 21
9 4 21 14 2 2 5 24
10 12 20 14 1 -1 6 23
7 13 17 13 0 -2 4 22
2 8 13 10 -2 -5 1 19
-2 7 11 9 -3 -8 -3 17
-9 0 10 9 -4 -9 -5 15
-16 -11 10 8 -4 -8 -5 15
-9 -9 13 12 2 -4 0 20
-7 -9 15 15 4 -2 1 21
-4 -10 18 16 5 0 2 22
-2 -11 18 15 6 1 2 21
-6 -10 16 13 3 -1 -1 19
-6 -4 15 14 3 -1 -1 18
-6 5 14 15 2 -1 -3 16
-8 11 13 14 4 -3 -3 16
-11 4 16 17 8 1 0 20
-8 -9 19 20 10 5 4 23
-5 -7 19 20 10 4 3 20
-5 -10 20 20 12 6 5 19
0 -8 21 20 12 7 4 19
4 -6 21 21 12 6 3 19
1 -4 19 19 10 3 -1 17
1 1 17 19 10 2 -1 14
3 8 16 20 10 2 -2 12
2 10 16 19 10 2 -1 12
1 14 15 18 10 2 -3 12
-3 5 17 20 13 5 0 15
-3 -7 23 26 19 11 6 21
-1 -7 24 27 21 10 7 22
0 -10 23 25 18 10 6 21
-1 -7 19 21 14 6 3 16
-4 -8 19 21 14 6 2 17
-3 -4 19 22 16 8 4 19
3 3 21 25 17 8 4 20
3 2 21 24 17 7 4 20
0 3 19 23 15 5 2 17
0 5 19 22 15 4 1 16
0 5 20 22 16 5 2 18
2 4 22 24 18 8 6 22
6 5 25 27 20 11 9 26
6 0 27 27 21 11 11 26
3 -5 27 28 22 12 12 27
2 -6 26 27 20 10 11 25
-2 -5 20 24 17 7 7 21
-6 1 16 20 14 3 2 17
-11 -3 17 19 14 2 2 18
-11 1 15 18 12 1 1 17
-10 0 14 16 12 0 -1 14
-8 -1 15 15 11 -2 -2 13
-5 -3 18 18 13 1 1 16
-7 -7 20 18 14 3 3 18
-9 -11 20 18 15 2 2 19
-8 -10 20 19 15 3 4 20
-5 -7 20 20 15 4 5 21
-3 2 18 18 15 3 3 18
-6 -2 20 20 17 4 5 20
-5 -7 20 20 17 3 4 20
-2 -4 21 20 17 3 5 21
-2 -4 21 18 18 4 5 21
-1 2 20 16 14 2 3 19
0 11 16 13 11 -1 1 14
-1 8 17 12 11 -1 0 13
-3 -2 18 15 14 1 2 16
-3 -4 19 17 15 2 4 19
-1 -2 19 17 16 1 3 19
-1 -5 21 18 18 4 5 21
-2 -5 21 18 18 4 5 19
-2 -2 21 17 17 3 4 18
-1 -3 21 14 16 2 3 17
-1 -6 21 14 16 4 3 17
-1 -3 19 12 15 3 3 15
-6 -9 19 12 14 2 1 16
-8 -9 18 11 13 1 1 15
-4 -8 18 13 15 2 2 17
-3 -2 17 12 16 2 1 17
-4 -2 17 12 15 1 0 16
-2 -4 18 14 17 3 3 16
-1 -7 20 15 19 5 4 18
1 -5 23 15 21 6 5 18
3 -3 23 16 20 7 6 19
3 4 21 13 17 5 4 16
-2 -4 19 12 15 3 1 16
-4 -7 17 10 14 1 -1 16
-2 3 15 8 12 -2 -3 13
-1 5 14 8 12 -2 -3 14
-3 0 14 8 13 -2 -3 16
-4 -3 14 8 14 -1 -1 17
-6 -3 13 6 13 -1 -2 15
-5 -2 15 7 15 1 -1 17
-6 -3 15 6 13 0 -1 13
-9 -10 16 7 15 2 -1 10
-6 -14 17 8 16 3 1 11
-6 -16 18 10 16 3 2 14
-9 -13 16 8 14 1 0 13
-8 -12 15 9 16 2 0 13
-7 -17 18 11 19 4 1 16
-6 -7 16 9 17 2 0 13
-4 -2 12 5 13 0 -3 8
-7 -9 13 6 15 0 -4 8
-6 -9 15 6 15 1 -2 10
-2 -10 18 9 17 4 0 12
0 -9 19 11 18 6 2 14
2 -7 19 12 21 7 4 16
2 -7 20 12 21 7 4 16
0 -7 16 10 20 6 2 13
-4 -10 12 6 16 1 -2 8
-12 -12 8 3 13 -2 -8 3
-11 -14 11 4 16 0 -5 6
-7 -12 13 6 18 2 -3 8
-8 -7 9 2 13 -1 -7 4
-8 -8 11 4 15 1 -5 5
-4 -6 13 6 17 4 -1 8
-1 -4 13 7 19 5 0 9
2 5 12 7 18 5 -1 8
3 4 14 9 20 6 0 7
-1 -6 17 12 25 9 3 9
-6 -10 17 12 25 11 3 10
-6 -8 18 12 25 11 2 10
-5 -6 16 10 24 9 1 9
-5 -4 14 7 21 8 -1 7
-8 -6 14 7 21 8 0 7
-10 -6 15 9 23 9 2 11
-8 1 13 9 22 9 2 10
0 4 10 8 21 7 0 7
0 -7 7 6 21 6 -1 5
-2 -7 4 4 19 4 -3 2
3 -6 3 3 18 4 -3 1
7 -12 9 8 23 9 2 6
7 -16 9 7 25 10 3 7
8 -16 8 7 24 12 3 7
8 -18 10 10 26 13 5 7
10 -17 12 11 27 14 6 9
9 -16 11 10 27 14 5 8
9 -6 7 8 23 10 2 5
10 3 4 5 22 8 0 4
9 0 4 6 22 8 0 5
6 -8 4 5 21 9 0 4
6 -5 3 3 20 8 0 2
9 -2 4 4 20 8 0 2
12 -3 6 4 21 11 2 4
11 -4 4 2 19 10 2 2
6 -8 4 2 19 9 2 3
4 -11 3 1 18 10 2 3
3 -12 3 1 18 9 2 1
0 -15 2 2 18 9 1 -1
-3 -15 1 2 17 6 -2 -1
-4 -5 -1 -1 16 3 -4 -4
-5 -3 1 0 17 4 -5 -5
-8 0 0 -4 15 1 -8 -9
-10 -1 2 -3 14 2 -9 -11
-10 -3 5 0 15 4 -8 -10
-9 -2 5 -1 15 3 -8 -11
-8 0 4 -1 15 3 -8 -11
-11 -10 7 0 17 6 -5 -9
-11 -12 7 2 18 7 -4 -7
-10 -12 8 3 19 8 -3 -5
-9 -18 10 6 22 11 0 -4
-9 -18 11 6 21 10 0 -5
-13 -16 9 3 19 8 -2 -10
-15 -17 8 2 18 7 -4 -11
-11 -17 9 4 19 9 -2 -11
-10 -13 9 5 19 10 -1 -9
-12 -13 6 3 16 8 -3 -11
-12 -10 6 3 16 8 -3 -11
-15 -5 4 2 16 6 -3 -12
-15 -1 1 -1 13 4 -6 -16
-11 0 0 -1 13 4 -6 -16
-8 -2 3 1 15 5 -4 -14
-7 -11 8 6 21 10 1 -9
-8 -19 10 7 21 13 2 -8
-8 -23 12 9 23 15 4 -6
-8 -24 12 9 23 16 6 -4
-12 -19 8 6 20 11 1 -9
-14 -16 10 10 21 10 -2 -15
-18 -16 16 22 29 10 -6 -22
-28 -28 36 48 48 16 -6 -24
-36 -33 61 79 70 25 -7 -28
-36 -31 78 100 86 31 -10 -35
-33 -34 87 115 98 36 -12 -41
-25 -36 91 123 104 39 -12 -44
-20 -29 89 125 110 48 -7 -41
-18 -12 87 126 121 63 9 -30
-12 18 81 124 134 82 27 -13
-2 46 68 127 152 105 52 10
18 75 53 126 167 128 79 33
37 91 34 108 167 144 106 59
60 114 6 71 152 159 137 89
89 134 -35 13 115 170 170 125
121 140 -86 -50 71 178 204 160
153 152 -130 -94 46 198 245 198
169 165 -163 -134 18 211 272 227
174 178 -186 -165 -11 211 284 246
172 200 -202 -205 -55 182 270 247
159 224 -221 -260 -117 129 234 233
138 224 -221 -292 -165 77 189 208
102 218 -193 -314 -216 3 122 167
53 206 -156 -330 -264 -77 47 117
27 168 -121 -316 -273 -117 5 81
16 120 -92 -283 -258 -131 -18 54
6 77 -74 -244 -234 -140 -42 22
0 24 -60 -201 -201 -140 -64 -9
-2 -11 -64 -182 -183 -137 -74 -29
0 -21 -85 -177 -170 -130 -76 -39
0 -24 -103 -172 -158 -118 -73 -43
-4 -25 -101 -159 -141 -106 -69 -47
-5 -25 -88 -135 -118 -90 -62 -46
-9 -34 -75 -110 -96 -76 -56 -45
-8 -35 -59 -88 -75 -63 -49 -44
-6 -29 -46 -67 -57 -50 -41 -41
-9 -30 -34 -51 -41 -40 -35 -39
-13 -31 -25 -38 -28 -30 -31 -36
-15 -33 -15 -27 -15 -21 -23 -31
-19 -34 -12 -21 -10 -17 -21 -31
-17 -33 -6 -16 -5 -11 -19 -29
-15 -32 0 -10 1 -7 -15 -26
-15 -29 3 -6 4 -4 -13 -25
-15 -25 3 -2 8 -4 -12 -27
-16 -29 5 2 12 -1 -10 -27
-15 -27 6 6 15 0 -9 -25
-16 -19 3 4 14 -2 -13 -26
-17 -17 4 5 16 -1 -13 -28
-13 -9 6 9 19 1 -11 -26
-15 -8 5 7 17 0 -13 -28
-16 -9 6 8 18 1 -12 -28
-17 -17 10 12 21 5 -8 -25
-20 -20 10 13 21 6 -6 -22
-18 -20 13 16 24 9 -4 -20
-16 -26 14 19 26 11 -2 -19
-21 -33 11 16 23 7 -5 -22
-18 -32 8 15 23 6 -6 -23
-14 -22 9 15 25 6 -6 -23
-18 -24 8 14 23 5 -6 -23
-17 -24 9 14 22 6 -5 -21
-18 -22 10 15 23 8 -4 -20
-18 -22 12 16 23 10 -2 -19
-13 -20 11 15 23 8 -1 -19
-11 -13 7 12 20 5 -6 -23
-6 0 6 13 20 4 -7 -23
-10 -3 6 14 20 3 -8 -24
-15 -10 5 13 22 2 -9 -24
-18 -8 4 12 21 1 -12 -27
-20 -11 3 12 20 1 -11 -29
-18 -14 4 11 21 2 -10 -29
-14 -21 9 16 25 8 -6 -24
-15 -30 12 19 27 12 -1 -20
-11 -26 9 17 26 9 -3 -22
-11 -24 10 17 25 10 -2 -21
-12 -24 10 19 27 11 -1 -20
-10 -20 8 18 25 9 -3 -21
-10 -18 6 18 26 7 -4 -22
-13 -17 7 18 27 8 -4 -24
-10 -13 5 17 25 6 -7 -27
-8 -10 8 17 25 6 -6 -25
-5 -6 9 18 26 9 -4 -23
-7 -9 11 19 26 11 -3 -23
-11 -17 9 19 25 11 -2 -23
-15 -28 11 20 27 13 -1 -20
-18 -31 10 22 27 14 0 -20
-19 -36 12 23 29 14 1 -18
-20 -36 10 23 29 12 0 -18
-21 -31 8 21 27 11 -3 -20
-14 -26 6 20 25 9 -3 -22
-15 -21 5 17 22 7 -6 -25
-17 -19 4 16 22 7 -6 -24
-16 -16 5 17 22 9 -4 -24
-18 -18 4 17 20 7 -5 -24
-19 -18 4 18 22 6 -5 -23
-15 -20 5 21 24 7 -3 -21
-10 -21 4 21 23 7 -3 -21
-9 -26 5 23 25 8 -3 -20
-12 -21 4 22 25 7 -3 -21
-9 -16 5 24 26 8 -2 -19
-6 -15 7 24 27 9 -1 -17
-5 -18 7 26 28 9 0 -18
-3 -10 6 25 26 9 -1 -18
0 -9 5 24 25 7 -1 -17
0 -13 5 26 29 10 0 -17
-3 -14 2 25 27 8 -2 -21
-9 -19 0 25 27 5 -3 -20
-8 -13 -2 23 24 3 -6 -20
-6 -9 -3 22 25 1 -7 -21
-13 -15 -3 22 24 1 -7 -22
-15 -27 -1 23 26 3 -5 -19
-10 -25 1 24 27 6 -2 -17
-9 -26 1 25 28 7 -1 -16
-9 -29 2 28 29 9 2 -14
-6 -28 0 28 29 9 1 -12
-5 -28 -1 29 30 7 2 -12
-2 -24 -3 28 31 7 2 -12
-4 -26 -4 29 31 6 1 -13
-7 -28 -6 27 32 6 1 -12
-5 -23 -7 27 31 6 1 -14
-4 -16 -7 25 29 6 1 -13
-4 -18 -5 28 33 10 5 -9
-8 -16 -8 24 30 7 4 -11
-2 -11 -11 24 27 5 2 -12
9 -10 -14 21 25 3 0 -14
14 -19 -13 24 27 5 3 -12
14 -20 -13 25 28 5 4 -9
15 -13 -14 25 28 5 5 -10
12 -19 -16 24 27 5 4 -11
9 -26 -18 21 25 2 3 -14
10 -26 -23 18 20 1 2 -15
9 -32 -20 21 23 4 6 -10
13 -25 -20 21 22 5 10 -9
17 -18 -22 19 20 3 9 -10
19 -15 -22 20 19 4 11 -6
22 -16 -21 21 20 5 13 -4
25 -20 -21 22 20 4 14 -2
22 -18 -24 18 17 0 11 -4
17 -16 -29 14 12 -4 6 -7
17 -15 -29 12 12 -5 6 -9
22 -14 -27 14 13 -3 7 -8
20 -25 -26 14 14 -1 10 -5
17 -23 -28 13 9 -3 9 -6
13 -25 -31 10 5 -6 7 -8
12 -27 -33 8 2 -9 6 -8
16 -16 -35 6 -1 -13 3 -9
18 -10 -38 4 -3 -17 0 -11
20 -10 -34 7 0 -14 3 -6
23 -16 -30 12 5 -8 8 -2
25 -11 -31 9 2 -11 6 -4
27 -2 -31 7 0 -11 6 -5
23 -14 -27 11 4 -8 10 -1
21 -21 -25 12 3 -7 12 0
20 -18 -26 11 1 -9 11 -1
17 -17 -24 12 2 -9 10 0
17 -19 -24 14 3 -8 12 1
17 -12 -26 12 0 -11 8 -3
13 -8 -26 11 0 -12 5 -4
14 -9 -24 13 1 -11 7 -4
16 -9 -19 17 5 -7 9 -1
16 -5 -18 15 5 -6 8 -1
17 -5 -15 18 7 -3 11 0
10 -9 -16 16 4 -5 9 -2
1 -12 -20 11 0 -9 4 -8
0 -12 -18 13 1 -8 4 -9
1 -13 -16 16 4 -6 6 -8
4 -12 -14 18 7 -5 7 -6
2 -10 -12 19 9 -2 8 -4
2 -12 -8 21 13 2 11 -2
-1 -12 -6 22 14 4 11 -3
-4 -10 -5 20 13 4 9 -6
-4 -6 -4 21 13 6 11 -6
0 -2 -6 17 10 3 9 -8
5 -3 -9 13 7 0 6 -11
3 -2 -8 14 9 2 7 -10
1 0 -8 15 8 3 8 -10
2 -4 -6 16 10 4 9 -8
3 -6 -4 18 12 7 9 -6
3 -3 -3 18 12 7 9 -7
3 -1 -3 16 11 7 9 -8
4 -5 0 19 14 9 12 -5
1 -4 0 18 12 10 11 -6
1 2 -2 15 10 9 10 -8
2 4 -3 15 9 8 10 -7
-2 5 -5 13 7 6 8 -9
-10 -3 -7 12 6 5 6 -11
-10 -7 -10 10 5 2 3 -11
-4 -4 -8 11 6 2 4 -10
0 -4 -7 12 7 4 5 -12
-6 -12 -7 12 7 5 6 -13
-8 -12 -7 9 6 5 5 -13
-5 -8 -6 8 6 7 6 -13
-4 -13 -4 12 8 8 8 -10
-4 -14 -4 11 7 8 8 -8
-5 -10 -5 10 6 6 7 -9
-5 -11 -6 11 6 6 7 -7
-4 -9 -6 12 7 5 7 -8
-7 -13 -6 11 7 4 6 -9
-9 -13 -6 10 5 5 6 -10
-11 -13 -9 8 3 3 3 -13
-13 -13 -9 6 2 1 2 -14
-11 -8 -11 2 -2 -1 -1 -17
-9 -10 -10 4 -1 0 0 -16
-7 -13 -8 6 1 3 4 -11
-9 -10 -9 7 1 4 4 -10
-9 -6 -10 7 0 3 3 -11
-9 0 -10 5 1 1 3 -12
-12 -2 -9 6 1 1 2 -12
-14 -1 -8 7 2 1 1 -13
-13 -1 -8 8 2 1 1 -12
-10 0 -9 5 0 -1 -2 -14
-3 -2 -9 5 -1 0 -1 -14
1 -10 -8 6 1 1 0 -11
-1 -17 -6 8 2 3 2 -9
-2 -12 -4 9 4 5 4 -7
-2 -9 -5 11 4 5 4 -8
-1 -4 -6 11 4 2 2 -11
-3 1 -9 8 2 0 -2 -17
-6 -5 -9 8 1 0 -2 -17
-3 -7 -5 12 5 4 2 -13
0 -5 -2 13 6 7 3 -11
0 1 -3 13 5 6 3 -10
3 2 -2 15 6 7 3 -10
-1 -9 1 19 10 9 6 -7
1 -12 3 21 12 10 7 -4
-3 -13 1 20 11 9 5 -6
-8 -15 -2 18 9 7 2 -10
-7 -12 -3 18 10 8 3 -9
-10 -14 -4 19 10 9 2 -9
-10 -13 -1 19 11 9 3 -9
-8 -6 0 20 13 9 4 -8
-13 -7 1 21 13 11 4 -9
-12 -3 -1 19 11 11 2 -12
-2 -3 0 19 11 11 3 -11
0 -9 -2 18 11 10 3 -11
-4 -8 -3 18 9 9 2 -13
-3 -8 -2 21 13 11 3 -11
-1 -7 0 23 15 11 6 -7
0 -9 1 25 16 13 5 -7
-2 -14 4 27 18 14 7 -7
-2 -15 4 26 19 15 7 -6
-4 -11 1 24 16 14 5 -7
-5 -10 1 24 14 14 5 -7
-4 -12 5 27 18 18 10 -4
-6 -9 1 25 15 16 7 -6
-11 -3 -3 22 12 12 3 -9
-7 9 -5 20 11 10 1 -11
-7 9 -3 22 13 11 4 -8
-6 7 -2 22 14 11 4 -7
-4 1 -1 24 14 12 4 -6
0 -11 1 25 17 15 7 -4
0 -12 4 28 19 19 10 -1
-3 -16 6 29 20 19 12 0
-3 -15 5 28 19 19 12 1
-4 -6 0 25 16 16 9 -1
-6 2 -3 23 12 12 6 -3
-2 9 -2 23 14 12 6 -3
-3 1 2 25 16 13 9 -1
-4 -11 3 28 18 16 10 1
4 -6 3 27 17 14 9 -2
8 1 3 26 18 14 9 0
9 4 4 26 17 14 10 2
8 -3 8 30 20 18 15 6
6 -4 6 28 18 16 12 5
5 4 2 24 14 12 9 5
1 0 -1 22 12 10 7 3
-4 -3 -3 20 10 8 5 0
1 0 0 22 12 8 7 2
2 0 -1 22 12 8 5 3
4 3 1 23 14 10 7 2
5 4 3 23 14 11 8 0
2 -1 4 22 12 11 8 1
-1 -2 2 21 10 11 6 2
-5 -10 2 20 10 10 7 2
-9 -17 2 20 10 9 7 2
-7 -15 1 19 10 8 6 1
-5 -9 1 21 12 9 7 5
-3 -10 1 20 12 8 6 3
-2 -9 2 21 13 10 7 4
-2 -8 0 19 11 9 5 1
-3 -6 1 20 12 9 6 2
-2 -2 1 18 11 8 5 -1
-3 -1 2 19 11 10 5 1
-3 2 2 19 10 9 5 2
0 4 2 19 10 10 6 4
4 4 4 21 11 10 7 6
-1 -4 0 18 7 6 3 3
-7 -11 -4 13 4 3 0 -1
-6 -6 -4 13 4 4 0 -1
-5 -4 -3 13 5 3 1 -1
-6 -11 2 17 9 7 5 3
-6 -7 0 14 5 5 3 0
-7 -5 1 13 5 5 2 2
-6 1 0 12 4 4 2 1
-4 2 2 15 6 7 5 4
1 6 1 15 6 6 4 5
6 4 3 17 7 6 5 5
5 -4 3 18 8 6 6 5
5 -5 6 18 10 8 7 8
5 -2 8 18 9 9 7 8
-2 -6 5 15 7 6 5 6
-7 -7 2 12 4 3 2 3
-7 -6 2 10 3 3 1 2
-6 -3 2 10 3 2 1 2
-3 1 2 11 3 2 1 3
1 3 2 12 3 2 1 5
1 4 3 13 5 5 2 7
-5 -7 3 13 4 4 2 7
-13 -18 4 14 4 4 1 7
-11 -11 4 14 4 3 1 5
-4 -9 6 14 5 4 2 6
-3 -11 7 14 5 4 3 8
-3 -6 5 12 2 3 2 8
-4 -9 6 13 3 4 4 9
-5 -8 5 12 3 4 4 9
-3 2 1 10 0 1 1 5
-3 10 -3 5 -4 -5 -5 0
1 15 -3 5 -4 -5 -6 -1
0 9 1 8 0 -2 -3 3
-2 -3 4 11 2 1 -1 6
-2 -12 9 15 7 6 4 10
-5 -19 11 16 7 8 5 11
-3 -17 12 17 8 8 5 12
1 -9 11 16 7 8 6 11
2 -7 9 15 5 6 4 10
6 -4 10 16 6 8 5 13
1 -9 9 15 6 6 4 13
-3 -6 6 11 2 2 1 9
-1 8 2 7 -1 -2 -4 5
0 11 3 7 -2 -1 -4 4
0 6 6 8 1 0 -2 4
-4 6 5 7 -2 0 -4 1
-10 -1 3 5 -3 -2 -6 1
-7 -13 9 10 2 2 1 9
-1 -9 10 13 4 5 3 11
1 -3 11 16 5 6 4 12
2 0 11 16 7 6 4 13
-5 -5 10 15 6 5 2 12
-7 -5 9 14 5 5 2 11
-2 -3 10 13 4 5 1 11
-5 -7 9 10 2 4 -1 10
-9 -6 7 8 1 2 -1 8
-5 3 7 8 -1 1 -1 7
-1 3 8 9 0 2 -1 8
2 4 6 8 0 1 -1 9
1 5 6 8 0 0 -2 9
-2 -4 8 11 2 2 -1 11
-4 -9 10 12 4 4 0 12
-4 -8 9 11 3 2 -1 11
-1 -6 8 9 2 2 -2 9
-1 -5 11 12 3 4 0 10
-2 -6 14 15 7 8 3 15
3 1 11 13 4 6 2 14
7 8 10 10 2 4 1 12
8 10 10 10 2 4 0 12
5 8 10 10 3 3 0 12
5 9 9 11 3 3 1 13
9 13 10 11 5 5 3 15
11 9 13 13 7 9 4 18
9 4 14 13 7 8 3 18
5 -2 14 14 7 8 3 18
3 -1 13 12 6 7 1 15
4 6 10 12 3 5 0 12
6 -2 12 14 6 8 4 15
2 -9 9 13 6 6 3 14
1 -10 8 12 5 6 2 14
4 -13 9 13 6 8 4 17
6 -9 10 14 8 9 5 19
9 -2 9 14 8 10 5 19
11 5 8 11 6 8 3 16
13 12 7 8 4 5 0 13
12 13 7 8 3 4 1 13
13 16 7 7 1 4 2 14
17 18 7 7 1 4 1 16
16 14 8 7 2 5 2 17
21 15 7 9 2 7 3 18
18 8 6 7 1 5 2 17
10 2 3 3 -1 2 0 14
12 3 3 2 -1 1 -2 13
16 3 6 5 2 4 0 16
18 1 9 7 4 8 3 18
18 -1 12 8 6 10 5 20
18 10 11 7 3 8 2 17
17 8 10 6 2 6 4 17
11 -2 10 6 3 8 4 19
0 -6 6 1 -1 1 -1 14
-4 -2 3 -1 -4 -3 -5 11
-2 8 5 1 -4 -3 -5 11
-1 16 6 1 -4 -2 -6 12
0 18 9 2 -3 -2 -5 11
-4 11 10 3 -1 0 -3 13
-5 5 11 3 -1 2 -1 15
-5 -2 15 5 2 5 1 18
-5 -7 15 6 1 4 2 17
2 1 15 6 1 4 2 15
5 3 15 7 1 5 2 16
5 -2 17 9 3 6 2 18
5 -5 18 9 4 6 3 20
1 -9 18 10 4 7 2 19
5 0 17 8 2 5 0 18
6 7 19 9 4 7 2 18
2 2 18 7 2 5 1 18
0 -7 18 8 4 8 4 20
-1 -7 16 5 2 5 1 16
-4 1 10 0 -3 -1 -3 12
-4 5 10 1 -4 -1 -4 13
-2 11 7 -1 -4 -2 -6 10
-2 7 9 1 -1 -1 -4 12
-2 5 12 3 0 2 -3 14
3 12 11 1 0 1 -3 12
7 13 12 3 2 3 -2 15
4 12 13 3 1 2 -2 15
-4 -2 14 5 1 2 -3 13
-11 -23 25 20 12 7 0 13
-17 -24 42 45 27 11 -2 8
-21 -18 64 73 45 16 -6 1
-23 -11 83 96 64 23 -7 -2
-22 -10 94 112 76 27 -8 -7
-15 -14 96 119 82 29 -10 -13
-10 -8 93 120 87 35 -6 -12
-6 10 92 124 100 51 7 -2
-2 31 88 126 114 70 25 14
12 58 77 126 132 95 51 39
29 81 64 120 143 116 80 65
50 94 47 103 145 133 105 90
73 115 20 66 130 145 132 118
102 143 -21 8 92 153 162 151
131 153 -72 -58 47 156 188 181
160 155 -125 -114 12 166 218 210
189 164 -161 -152 -12 179 249 241
202 183 -188 -183 -36 181 263 261
198 208 -206 -222 -73 167 263 271
179 239 -220 -270 -125 136 246 273
157 247 -221 -302 -169 94 211 256
126 230 -195 -316 -211 32 152 218
76 205 -161 -337 -264 -52 73 166
41 170 -126 -330 -288 -108 19 124
29 130 -102 -302 -278 -131 -12 89
23 83 -85 -263 -255 -147 -41 53
19 29 -74 -223 -226 -149 -64 20
15 3 -85 -206 -208 -145 -75 -3
13 -5 -103 -199 -194 -139 -79 -13
12 -5 -110 -188 -180 -128 -74 -15
6 -13 -100 -169 -161 -113 -68 -15
3 -24 -83 -142 -136 -94 -58 -14
4 -31 -70 -117 -114 -81 -53 -15
5 -30 -55 -93 -94 -69 -48 -13
3 -26 -41 -70 -73 -57 -41 -8
0 -30 -27 -53 -55 -45 -33 -3
-5 -25 -18 -41 -43 -36 -29 -1
-3 -18 -8 -30 -31 -27 -23 1
-3 -19 1 -20 -21 -20 -18 4
-1 -15 5 -14 -16 -14 -15 7
-6 -13 7 -11 -13 -12 -14 7
-8 -8 7 -9 -15 -13 -13 6
-6 0 7 -5 -12 -11 -13 8
-3 5 8 0 -9 -8 -9 10
-5 5 7 2 -7 -10 -12 9
-6 6 6 0 -6 -13 -14 6
-5 -7 12 8 2 -7 -9 11
-8 -21 17 12 6 -3 -6 12
-7 -19 19 12 7 -1 -5 9
-6 -11 17 10 4 -1 -7 5
-3 -6 20 12 4 1 -4 8
-5 -7 20 14 5 0 -3 11
-7 -5 16 11 2 -2 -6 10
-6 2 12 9 0 -5 -7 9
-2 11 10 10 1 -6 -7 6
-5 3 11 12 4 -5 -7 8
-10 -10 13 14 7 -4 -7 10
-10 -17 16 16 10 -1 -3 11
-12 -26 18 16 12 1 -2 12
-10 -24 20 17 12 3 0 14
-5 -15 20 18 10 3 0 14
-6 -9 17 15 8 2 0 12
-9 -6 13 12 4 -4 -4 10
-5 -1 11 12 3 -5 -6 10
-6 0 13 15 6 -4 -4 11
-7 -1 15 16 8 -2 -3 11
-4 1 16 17 10 -2 -3 11
-4 4 17 17 11 0 -4 10
-7 -2 20 19 14 2 -1 12
-9 -6 23 21 16 5 2 15
-9 -9 20 19 11 3 0 12
0 -12 16 16 8 0 -2 8
5 -15 16 15 7 0 -3 10
-1 -18 16 17 8 0 -1 11
0 -5 14 17 8 -1 -3 8
1 -2 13 17 10 -2 -4 8
-1 -4 14 16 10 -3 -7 8
-3 -5 14 16 10 -3 -7 5
-6 -6 15 16 11 -1 -7 5
-3 -7 16 16 11 0 -5 6
-6 -11 16 17 8 0 -5 6
-6 -5 15 17 7 0 -4 6
0 -1 16 18 8 1 -3 9
2 4 14 18 8 -1 -4 8
-1 1 12 18 8 -2 -4 6
-7 -11 13 19 11 -2 -4 8
-9 -11 12 16 10 -5 -7 6
-8 -7 13 17 11 -4 -7 4
-6 -5 14 16 10 -5 -8 4
-7 -15 16 18 12 0 -5 8
-2 -14 19 21 13 3 0 12
1 -7 19 20 12 2 0 11
2 -1 15 18 9 -2 -2 10
4 7 15 20 10 -1 -3 8
7 8 15 22 12 -2 -3 9
5 4 14 22 14 -2 -3 10
1 -1 14 21 13 -4 -5 9
-8 -17 15 22 14 -4 -5 8
-8 -26 19 24 17 0 -1 12
-5 -23 20 24 17 1 0 13
-3 -15 19 23 15 0 -1 12
-3 -17 18 24 14 1 0 13
-1 -17 18 25 15 0 2 15
3 -8 16 26 15 0 2 13
6 3 13 26 15 -2 -1 13
6 5 12 24 14 -4 -2 13
9 3 12 23 16 -4 -3 12
5 0 12 23 16 -5 -4 11
3 -2 11 21 15 -6 -5 10
1 -7 12 21 14 -5 -3 12
-4 -18 11 23 14 -4 -2 13
-3 -17 10 24 12 -4 -2 12
3 -12 13 26 15 -3 1 15
4 -17 14 29 17 -1 4 18
7 -16 14 29 19 0 4 20
9 -8 9 28 17 -4 2 17
12 3 5 23 15 -8 -2 13
14 2 6 23 16 -6 -1 13
9 -1 5 21 14 -9 -5 9
7 -3 4 19 11 -10 -5 6
8 -10 5 20 11 -7 -3 9
8 -22 7 24 13 -4 2 12
10 -28 7 26 17 -2 6 17
13 -19 4 26 15 -5 6 17
18 -9 0 23 13 -8 3 15
19 -11 0 25 15 -8 4 16
17 -16 -1 24 15 -9 3 16
18 -8 -2 22 13 -9 2 14
22 2 -5 17 10 -12 0 11
24 -2 -4 18 8 -12 1 12
26 -3 -2 18 8 -10 3 15
27 -2 -5 17 6 -12 4 15
26 0 -9 14 1 -16 3 15
23 -3 -11 14 0 -17 2 15
22 -6 -13 13 0 -20 2 15
26 -1 -14 14 0 -20 3 14
28 3 -14 12 0 -20 2 13
32 3 -11 13 1 -19 3 16
33 -2 -9 13 1 -18 5 19
32 -8 -6 15 2 -16 9 23
33 -14 -4 14 1 -15 10 25
26 -20 -7 12 -3 -18 10 24
25 -18 -11 8 -7 -22 8 23
28 -10 -11 9 -7 -22 9 25
27 -4 -13 7 -9 -24 6 23
28 1 -14 6 -11 -28 4 18
34 7 -14 5 -11 -29 3 18
38 12 -13 3 -11 -29 3 18
39 16 -13 4 -12 -28 3 18
37 19 -13 2 -13 -28 4 19
29 15 -15 -1 -17 -32 2 17
28 8 -11 2 -16 -29 5 19
20 -10 -11 4 -16 -29 5 21
19 -11 -13 2 -18 -33 3 19
25 -6 -12 5 -16 -32 4 20
28 -6 -7 9 -11 -29 7 23
26 0 -6 9 -10 -30 4 21
23 0 -4 9 -9 -29 5 20
22 0 -2 8 -10 -28 4 18
21 -2 -2 7 -11 -27 4 16
17 -6 -2 7 -11 -28 4 17
19 3 -2 6 -14 -29 2 13
21 8 -1 9 -12 -28 3 15
19 8 0 10 -11 -28 3 14
18 5 3 13 -9 -27 4 16
17 0 8 16 -3 -22 8 18
16 -8 11 20 1 -19 11 20
18 -5 12 19 1 -18 10 18
18 -4 14 19 1 -16 9 16
18 3 13 15 -1 -16 8 14
16 19 9 10 -6 -20 2 10
16 19 9 9 -7 -22 3 9
15 19 7 9 -7 -21 4 10
12 12 9 10 -5 -20 5 10
12 11 10 12 -4 -19 5 9
12 9 13 13 0 -17 7 11
8 2 12 12 0 -18 5 10
7 0 14 11 1 -17 5 7
9 6 15 10 1 -16 5 8
8 2 13 9 1 -15 6 8
8 -3 16 13 2 -12 9 12
13 -3 19 14 4 -10 12 13
14 7 17 12 2 -12 11 12
13 10 14 10 -1 -14 9 10
11 11 13 10 -3 -17 6 9
14 16 13 9 -1 -15 7 10
11 15 11 8 -3 -17 3 7
3 10 8 3 -6 -22 0 0
4 13 9 3 -6 -19 0 -1
-3 5 7 0 -8 -13 -1 -2
-12 -7 5 -1 -11 -10 -3 -2
-7 -4 7 2 -8 -6 2 1
-5 -2 9 3 -7 -5 3 2
-5 -8 11 6 -5 -2 4 4
-1 -6 12 7 -4 -2 4 5
2 -9 12 6 -2 -2 4 7
4 -3 8 3 -5 -5 1 2
8 4 6 0 -7 -5 -1 0
7 1 7 0 -8 -5 -1 -1
4 1 8 0 -8 -4 0 0
4 3 7 -3 -13 -5 -1 -1
6 -3 11 0 -9 -3 3 2
9 -6 11 4 -7 -1 6 6
10 -3 10 4 -7 -2 5 5
13 -1 13 7 -5 -1 7 8
10 -5 13 7 -4 -2 5 7
7 -6 11 5 -6 -5 2 3
8 3 11 3 -8 -6 0 -1
8 9 8 1 -10 -8 -2 -3
6 10 6 -1 -12 -8 -3 -5
4 6 7 -1 -13 -7 -2 -4
0 3 6 -2 -14 -9 -3 -5
-1 2 6 -1 -14 -10 -3 -4
3 5 6 1 -12 -9 -1 -2
2 5 4 0 -13 -11 -3 -4
2 4 7 3 -9 -9 -1 -1
4 -3 10 6 -7 -8 1 1
6 -1 13 7 -6 -7 2 1
7 3 13 7 -6 -5 1 0
6 6 13 6 -6 -4 2 0
10 6 14 6 -6 -3 3 1
11 8 13 6 -6 -5 3 0
5 10 8 4 -10 -8 -1 -2
6 4 9 7 -7 -7 1 -1
9 7 11 9 -4 -5 3 1
12 11 12 12 -1 -3 4 4
13 8 14 14 2 -2 6 5
11 -3 18 15 5 0 7 6
2 -14 17 13 3 0 6 3
-7 -18 11 8 -2 -5 1 -1
-3 -9 10 7 -5 -7 -1 -2
1 -2 8 7 -5 -8 -1 -3
1 4 7 7 -6 -8 -2 -4
2 0 9 10 -3 -6 1 -1
5 -2 12 13 0 -4 3 1
2 -1 10 13 0 -6 2 -1
2 2 11 12 1 -6 1 -1
1 4 12 13 1 -6 1 -2
-1 1 15 16 4 -2 3 0
-3 -5 18 18 6 1 6 3
-5 -11 17 17 5 1 6 3
-6 -8 17 19 6 0 7 2
-2 1 14 18 5 -2 6 2
5 6 11 17 3 -5 4 1
9 2 11 15 3 -6 3 0
8 4 10 16 3 -7 2 -2
13 4 11 16 5 -6 2 1
16 4 13 18 6 -4 4 1
12 0 13 18 7 -3 4 2
5 -1 10 14 2 -6 2 -1
2 1 10 12 0 -7 0 -3
2 -3 12 15 1 -6 3 -1
5 0 10 14 1 -6 3 0
6 0 13 17 4 -4 6 3
8 8 10 16 3 -6 4 1
10 15 9 15 3 -7 4 2
7 11 11 16 4 -7 3 3
0 1 10 15 3 -9 2 1
-3 -4 8 13 2 -10 1 0
-1 4 7 11 1 -11 1 -1
1 8 9 14 2 -9 2 3
2 6 8 14 2 -8 4 4
8 1 9 15 2 -6 6 6
11 -3 10 16 3 -6 7 9
9 -10 12 19 5 -5 8 11
9 -10 11 19 6 -6 8 9
10 -4 10 17 5 -7 6 7
7 -1 10 14 5 -9 4 4
13 8 11 14 3 -9 4 2
12 13 9 10 0 -11 2 1
12 15 7 10 -1 -12 3 2
15 15 9 11 0 -11 5 6
13 11 8 11 -2 -11 4 4
9 7 8 11 -2 -12 4 2
9 -2 11 14 1 -10 6 6
4 -11 9 12 1 -12 5 6
-1 -14 7 10 -1 -13 3 5
0 -8 7 10 -1 -14 2 2
6 -3 8 11 0 -12 3 3
9 1 8 10 -1 -12 4 3
8 4 9 9 -2 -11 5 5
8 6 7 9 -5 -13 4 3
9 10 5 7 -6 -15 2 3
7 6 3 7 -6 -16 2 3
0 1 2 5 -4 -19 0 1
-1 0 1 6 0 -19 0 0
1 6 -1 4 1 -21 -3 -1
-2 1 1 4 2 -19 -3 -3
-5 -3 1 4 2 -19 -3 -3
-2 -3 3 3 2 -18 -2 -1
-2 -2 4 3 1 -17 0 0
-1 -7 7 7 4 -14 4 4
-1 -13 7 9 6 -12 5 7
-3 -11 6 8 6 -13 4 7
-3 -5 6 7 5 -14 4 5
-2 3 2 4 2 -18 0 0
-4 6 1 2 2 -18 -2 1
-3 10 1 2 2 -18 -2 -1
-6 4 3 2 2 -19 -1 0
-6 2 3 2 2 -18 -1 0
-5 -2 8 6 5 -14 2 4
-3 -4 8 6 4 -14 3 5
-1 -8 6 7 5 -13 4 8
-2 -10 7 8 6 -14 4 7
-5 -4 4 6 2 -17 2 4
-3 -5 6 8 5 -15 3 6
-1 -9 9 10 8 -11 5 8
-2 -1 7 9 6 -13 4 6
-3 3 5 6 4 -15 4 7
-5 1 3 4 3 -15 2 5
-8 -2 4 4 2 -15 2 5
-3 3 5 3 2 -15 3 6
-1 3 2 2 -1 -17 2 4
2 10 0 2 -1 -17 1 6
1 13 1 2 0 -17 1 5
-1 5 2 3 1 -16 2 4
-3 2 2 3 1 -16 0 3
-8 -6 3 3 1 -16 -1 1
-11 -7 1 1 -1 -18 -2 1
-8 -7 3 2 0 -16 -1 3
-5 -11 4 4 1 -13 2 5
-3 -5 3 4 -1 -15 2 3
-6 -4 0 2 -3 -17 0 1
-7 -8 -1 2 -3 -16 0 2
-7 -3 -2 2 -3 -17 -2 1
-9 0 -5 -1 -6 -21 -4 -2
-11 -2 -7 -3 -8 -23 -7 -3
-10 -5 -3 -1 -4 -20 -4 -1
-7 -1 -2 0 -3 -20 -3 1
-3 3 -1 0 -3 -19 -1 2
-5 -6 1 3 -2 -16 1 5
-5 -8 0 3 -4 -17 0 4
-4 -6 1 3 -3 -16 2 5
-8 -13 -1 3 -3 -16 1 4
-8 -9 -1 2 -4 -17 -1 2
-5 -6 -1 2 -2 -16 0 2
-6 -11 2 3 1 -12 1 6
-7 -11 0 2 -1 -11 -1 5
-8 -6 -3 -1 -5 -13 -3 1
-6 -1 -5 -3 -7 -15 -5 -1
-2 4 -3 -1 -6 -12 -3 1
-4 4 -4 -2 -7 -13 -3 1
-4 4 -5 -2 -7 -13 -2 2
-6 -5 -5 -1 -7 -12 -2 3
-7 -9 -4 1 -5 -11 0 4
-4 -2 -4 0 -5 -10 -1 2
-6 1 -3 1 -4 -10 -1 3
-10 -5 -3 1 -4 -10 -1 2
-11 -15 1 4 0 -6 3 6
-10 -16 2 6 1 -4 4 7
-11 -14 3 7 1 -2 6 9
-13 -8 3 7 1 -2 6 10
-12 -1 -2 3 -3 -6 1 4
0 5 -10 -3 -10 -13 -5 -1
7 3 -9 -3 -9 -13 -5 -1
3 -3 -4 1 -5 -8 -1 3
-4 -7 -4 2 -3 -8 -2 1
-5 -6 -6 -1 -6 -10 -4 -1
-4 -5 -8 -3 -7 -12 -5 -2
-9 -11 -9 -4 -8 -12 -5 -3
-11 -10 -10 -4 -9 -12 -6 -3
-9 -3 -12 -5 -10 -13 -6 -3
-8 -1 -11 -4 -11 -13 -5 -2
-10 -3 -12 -4 -10 -13 -4 -2
-10 -2 -13 -5 -10 -13 -5 -3
-10 2 -13 -5 -11 -14 -6 -5
-9 3 -13 -5 -10 -13 -5 -4
-8 2 -11 -4 -8 -12 -3 -2
-7 -3 -9 -2 -7 -10 -2 0
-5 -6 -7 1 -5 -7 0 1
-2 -15 -2 6 -1 -3 5 7
-4 -16 -4 5 -2 -5 4 7
-8 -10 -9 0 -9 -11 -1 2
-10 -13 -11 0 -8 -11 -1 1
-8 -8 -11 -1 -7 -11 -1 1
-5 -5 -11 -1 -6 -11 -1 -1
-4 3 -12 -3 -7 -13 -3 -3
0 15 -13 -4 -8 -14 -4 -4
-3 14 -16 -6 -9 -16 -6 -6
0 9 -12 -3 -7 -12 -2 -3
1 5 -9 0 -5 -10 -1 1
-5 -6 -10 0 -6 -10 -1 0
-8 -12 -12 0 -6 -10 0 0
-10 -15 -13 -1 -8 -11 -2 -1
-12 -17 -14 -1 -8 -13 -3 -1
-10 -14 -13 -1 -7 -12 -2 0
-10 -14 -14 -1 -7 -11 -2 -2
-8 -6 -13 -2 -9 -12 -4 -3
-5 -10 -10 2 -4 -9 0 1
-5 -8 -11 0 -6 -10 -3 -2
-6 -6 -12 -1 -7 -11 -2 -3
-10 -10 -13 -2 -8 -12 -3 -2
-13 -9 -17 -5 -11 -15 -5 -6
-12 -4 -18 -6 -13 -15 -6 -6
-12 -5 -15 -4 -10 -13 -4 -3
-10 -8 -14 -2 -8 -12 -3 -2
-10 -10 -12 -2 -6 -10 -2 -1
-10 -10 -11 -1 -6 -10 -2 0
-8 -8 -9 -1 -4 -9 -1 0
-7 -7 -8 1 -3 -8 -1 -1
-6 -5 -9 1 -3 -7 0 -2
-7 -2 -12 -4 -7 -11 -5 -7
-6 6 -15 -5 -9 -13 -6 -9
-3 14 -15 -4 -10 -14 -7 -6
0 7 -13 -1 -5 -11 -3 -3
0 4 -12 -1 -6 -11 -4 -3
-1 3 -10 1 -3 -10 -2 -3
-7 -2 -11 -1 -5 -9 -4 -4
-8 -2 -11 0 -3 -9 -2 -3
-5 -1 -6 2 -1 -5 0 1
-8 -6 -6 2 -2 -5 2 1
-8 -2 -8 1 -4 -7 -1 0
-8 5 -7 1 -3 -8 0 -1
-9 1 -7 2 -3 -7 -1 0
-4 -8 -3 6 1 -2 3 4
-3 -9 -6 3 -2 -5 -1 0
0 1 -6 1 -3 -7 -2 0
-3 1 -8 0 -4 -8 -4 -1
-13 -9 -12 -4 -8 -12 -7 -5
-12 -11 -10 -5 -8 -13 -7 -6
-9 -15 -10 -4 -7 -12 -6 -6
-4 -13 -7 -1 -5 -9 -2 -2
-2 -5 -9 -2 -5 -9 -3 -2
-2 -4 -8 -1 -6 -8 -2 0
-1 -7 -5 4 0 -5 1 4
-1 -12 -5 4 1 -4 2 4
-6 -12 -7 2 -2 -6 -1 2
-6 -9 -6 1 -2 -6 -1 2
-6 -3 -7 0 -2 -7 -3 -1
-6 -3 -9 -3 -4 -9 -4 -6
-6 -2 -8 -1 -4 -8 -4 -5
-4 0 -8 -1 -4 -7 -3 -4
-4 -3 -7 1 0 -5 -1 -1
-3 -2 -6 1 -1 -3 1 0
-4 -6 -7 0 -1 -5 -1 -1
-2 -2 -7 0 -2 -5 -1 -2
-4 -8 -7 2 -1 -4 -1 0
-4 -14 -3 4 2 -2 2 2
1 -8 -2 4 3 -2 1 2
4 -3 -3 3 1 -3 0 -2
2 -2 -5 2 0 -3 -1 -3
-2 -5 -6 0 -1 -6 -3 -5
-3 -7 -5 1 -1 -5 -4 -4
2 1 -3 3 -1 -5 -2 -3
1 6 -5 1 -2 -7 -5 -5
2 8 -4 2 0 -5 -4 -5
4 6 -3 5 3 -2 -1 -1
6 4 -2 7 5 0 0 0
5 0 1 9 8 3 4 3
3 -6 0 8 7 2 3 2
-3 -14 -1 9 7 2 3 2
0 -15 0 9 7 3 5 2
3 -12 -1 7 6 3 4 1
2 -10 -1 8 6 3 4 4
4 -8 -1 10 8 4 5 6
1 -8 -3 8 7 2 4 4
-1 -11 -5 5 4 -1 0 1
5 -9 -5 4 3 -3 -2 -2
9 -3 -6 2 1 -3 -2 -1
14 5 -6 2 3 -1 0 0
12 3 -3 5 6 3 3 5
9 1 -3 3 4 2 3 4
8 -1 -3 3 5 2 4 6
10 -3 -3 5 5 3 4 6
10 3 -4 5 4 2 3 6
11 9 -4 4 5 1 2 4
11 12 -5 3 3 0 1 2
14 11 -4 5 6 2 4 5
16 7 -5 5 6 2 4 6
19 5 -7 1 3 0 2 3
18 -7 -6 1 2 1 2 4
13 -12 -7 0 1 -1 2 3
16 -4 -6 1 2 -1 3 5
17 0 -5 1 3 0 3 4
14 3 -5 0 2 -1 1 3
15 6 -3 2 4 0 3 4
14 4 -3 3 4 1 3 4
12 1 -1 3 4 1 3 3
11 -1 2 5 6 3 6 6
7 2 1 2 4 1 3 3
5 9 1 1 3 -1 0 1
-2 4 0 0 0 -2 -1 -2
-6 -3 0 0 1 -2 -1 1
-3 3 0 -1 0 -3 -2 -1
-4 -2 1 1 1 -1 -1 0
-5 -7 2 1 3 -1 0 1
-4 -2 1 1 3 -1 -2 0
0 -6 3 3 4 0 0 2
5 -5 8 7 8 4 5 7
8 -5 10 9 10 7 6 9
7 -5 12 10 10 7 7 9
7 -5 12 10 9 8 7 8
1 -4 8 6 6 5 5 8
0 -2 5 6 4 2 2 7
2 -4 6 7 6 4 5 8
-8 -15 5 6 5 3 3 6
-10 -13 1 2 2 -2 -2 3
-6 2 -1 0 0 -4 -4 -2
-3 7 0 -1 0 -3 -4 -2
-6 2 2 2 1 -1 -2 0
-10 -4 -1 0 1 -2 -3 0
-9 -2 0 0 1 -1 -3 2
-5 12 -2 -2 -1 -2 -3 -1
-5 11 -1 0 0 -1 -3 -1
-6 -5 8 10 8 6 4 5
-6 -18 16 21 16 10 5 5
-8 -16 29 39 28 12 2 0
-12 -15 52 68 47 18 -2 -6
-17 -13 72 92 64 24 -3 -12
-20 -13 83 108 77 29 -6 -18
-19 -17 82 115 80 28 -10 -24
-16 -19 79 115 81 28 -11 -28
-12 -9 80 121 94 44 1 -19
-8 11 76 126 109 61 17 -5
3 38 68 129 127 85 41 17
20 63 55 123 140 108 69 43
37 79 39 107 142 124 91 64
61 91 18 78 132 139 121 94
89 111 -19 23 100 149 151 126
120 133 -70 -46 54 149 176 154
156 152 -122 -105 17 158 207 187
185 174 -166 -150 -10 170 235 219
205 194 -193 -180 -33 175 255 242
208 216 -214 -215 -63 168 263 258
191 232 -229 -258 -105 149 258 269
171 248 -232 -295 -148 116 235 265
151 248 -211 -309 -186 61 181 225
112 226 -178 -325 -234 -16 106 171
67 186 -142 -330 -272 -87 36 121
40 137 -121 -312 -279 -125 -8 80
26 79 -105 -275 -259 -143 -38 45
19 28 -93 -234 -229 -147 -59 15
13 1 -100 -213 -210 -145 -75 -10
16 -6 -116 -201 -196 -136 -79 -22
15 -13 -123 -189 -179 -126 -76 -27
8 -19 -116 -175 -163 -115 -73 -29
6 -28 -98 -145 -137 -94 -60 -26
5 -44 -77 -113 -108 -74 -48 -21
2 -37 -64 -91 -90 -63 -45 -22
-2 -33 -53 -72 -74 -54 -41 -24
-6 -29 -43 -58 -60 -46 -36 -22
-8 -19 -34 -44 -46 -37 -31 -20
-4 -10 -23 -31 -33 -27 -26 -16
-4 -2 -14 -19 -21 -19 -20 -12
-9 -6 -9 -12 -15 -13 -17 -11
-17 -8 -7 -10 -13 -14 -18 -12
-24 -12 -2 -5 -8 -8 -14 -9
-25 -21 2 1 -4 -5 -9 -5
-17 -22 2 5 -2 -2 -8 -5
0 -14 -2 5 -3 -5 -10 -7
-1 -8 -2 6 -1 -6 -11 -8
-6 -8 1 9 2 -4 -11 -7
-5 -6 5 11 5 -2 -10 -6
-4 -4 6 12 7 0 -9 -6
-3 -6 8 14 8 2 -7 -6
-8 -17 9 15 8 4 -6 -4
-10 -26 11 19 10 8 -2 -1
-8 -17 10 17 9 5 -2 -2
-6 -11 7 17 7 4 -4 -3
-7 -8 7 17 8 4 -3 -2
-5 -8 9 20 10 6 -2 -2
-3 -8 11 21 13 6 -3 0
0 1 11 22 13 6 -4 -3
-2 -1 12 22 14 7 -3 -2
-10 -8 8 19 11 4 -6 -5
-10 -8 8 18 10 4 -7 -4
-6 -6 9 21 11 7 -4 -3
-5 -6 9 21 12 7 -3 -1
-6 -5 7 20 10 5 -5 -3
-12 -5 3 18 8 3 -7 -6
-9 -6 5 21 11 5 -4 -4
-2 0 8 23 14 6 -4 -2
-1 -8 10 26 16 9 -2 0
-7 -15 10 25 17 10 -2 -2
-7 -14 10 24 15 8 -3 -3
-5 -12 11 24 16 9 -3 -2
-6 -13 10 24 15 11 -2 -1
-14 -15 5 20 8 4 -6 -5
-15 -15 2 18 5 1 -9 -9
-10 -14 6 22 9 5 -5 -4
-11 -13 5 22 10 4 -7 -5
-11 -6 5 21 10 2 -9 -7
-8 -7 6 23 12 5 -7 -8
-8 -13 9 26 15 9 -4 -5
-7 -12 10 26 15 10 -3 -4
-8 -12 9 25 14 11 -2 -4
-5 0 6 22 10 8 -5 -8
-5 3 5 22 10 8 -5 -6
-3 0 5 23 10 8 -5 -6
-2 1 4 23 10 7 -4 -5
-3 -18 9 30 17 12 2 1
-5 -16 8 29 16 12 0 0
-7 -15 7 28 16 11 -2 -2
-12 -22 8 28 17 11 -1 0
-14 -13 3 23 12 6 -6 -6
-13 -6 3 23 12 8 -5 -5
-10 -10 5 26 13 10 -2 -1
-8 -12 5 26 14 10 0 2
-5 -7 2 25 11 9 -2 0
-5 -1 1 25 10 8 -2 -2
-3 -5 1 27 12 8 -2 -3
1 -7 3 29 15 8 -2 -5
4 -5 5 30 17 11 -2 -3
7 -3 8 32 20 12 0 2
5 -7 9 32 20 13 1 3
-1 -12 5 30 18 11 -2 2
-4 -13 2 28 14 10 -3 -1
-4 -15 0 27 14 9 -3 0
-7 -20 0 28 14 8 -4 -2
-8 -23 -1 30 16 9 -2 1
-5 -18 0 31 17 10 -1 3
0 -9 0 31 16 8 -3 1
-1 -11 1 32 19 9 -2 1
0 -11 2 33 21 11 0 3
1 -5 0 32 20 11 -1 2
5 0 -1 31 18 10 -2 2
6 -3 2 34 21 14 3 5
9 1 1 35 20 13 3 7
9 -3 -2 33 18 11 1 5
-3 -13 -9 27 12 5 -5 0
-4 -10 -12 26 11 2 -6 -2
3 -3 -9 29 15 5 -5 0
5 -4 -10 29 14 5 -5 -1
3 -7 -9 29 16 5 -4 -1
1 -15 -10 28 15 6 -3 -1
-3 -24 -11 28 15 6 -2 -1
1 -22 -10 30 15 8 0 0
8 -13 -12 29 15 7 2 1
12 -7 -13 29 14 7 1 2
12 -10 -13 31 14 7 2 3
12 -12 -14 30 14 5 2 3
14 -4 -17 28 13 4 0 3
13 -3 -20 26 10 2 -2 0
12 -6 -20 26 11 1 -2 1
15 -7 -20 25 10 2 -1 1
16 -6 -21 24 8 1 0 2
16 -7 -21 24 7 2 2 3
22 -1 -23 22 6 1 2 3
25 3 -24 22 4 1 3 5
24 1 -23 23 5 0 5 7
19 -4 -26 21 3 -3 2 5
12 -18 -30 18 -2 -6 -1 3
16 -21 -27 20 2 -4 2 6
20 -22 -24 23 5 0 6 9
23 -10 -26 20 2 -2 4 8
26 -6 -27 18 -2 -4 3 8
27 -5 -27 18 -3 -3 5 10
29 2 -29 15 -6 -5 4 10
31 8 -31 13 -10 -8 3 9
30 4 -29 15 -9 -6 5 12
31 -1 -29 15 -7 -7 6 12
21 -5 -34 10 -13 -13 1 8
20 2 -38 6 -17 -16 -3 4
20 1 -37 6 -16 -16 -3 5
17 -8 -36 6 -17 -16 -3 5
18 -12 -33 8 -16 -13 0 8
23 -12 -30 10 -15 -11 3 12
20 -9 -34 7 -17 -14 1 10
16 -12 -33 9 -17 -13 2 12
16 -9 -32 9 -17 -13 3 11
16 -1 -32 8 -18 -15 2 9
21 6 -33 7 -18 -16 0 9
21 4 -31 9 -17 -15 0 8
19 0 -27 11 -13 -12 3 9
19 6 -27 10 -12 -13 1 6
16 8 -28 8 -13 -14 -1 4
16 3 -23 13 -9 -9 5 8
12 -9 -18 17 -4 -4 8 13
11 -7 -18 17 -6 -6 7 12
10 -4 -17 17 -6 -6 6 12
11 3 -16 19 -4 -5 7 11
12 7 -12 22 1 -2 9 13
12 13 -15 19 -2 -4 4 7
12 7 -16 17 -3 -5 3 5
12 3 -13 18 -1 -3 5 6
14 3 -11 20 1 0 6 5
14 10 -9 21 1 2 8 4
10 12 -8 21 2 3 8 5
7 5 -8 22 3 4 9 8
6 6 -5 24 5 6 10 9
10 13 -4 25 8 8 11 9
7 10 -6 23 7 6 8 7
5 12 -8 20 5 4 4 4
8 9 -7 20 7 7 5 4
9 5 -5 21 8 8 7 4
4 5 -7 18 6 7 4 3
0 9 -10 15 2 5 1 0
-3 5 -12 14 2 4 1 0
-6 -6 -9 16 4 6 4 3
-4 -9 -6 20 7 11 6 6
0 -5 -6 19 9 11 7 7
3 6 -7 17 7 9 5 4
3 9 -8 15 7 9 4 3
3 6 -6 17 8 10 5 4
1 3 -7 16 7 10 5 3
-2 -1 -6 16 6 10 5 3
-4 1 -7 13 4 9 4 0
-6 -1 -8 11 3 8 3 1
-5 -1 -9 11 1 7 3 1
-4 2 -8 11 2 7 2 0
-4 7 -9 10 2 6 1 0
-1 13 -10 10 1 5 0 0
-4 12 -10 9 2 4 0 -2
-3 6 -9 10 2 4 1 -1
-2 7 -9 8 1 4 -1 -3
-2 1 -6 10 3 6 2 -1
0 -5 -2 13 7 9 6 2
-5 -12 -3 13 5 8 6 3
-7 -15 -4 13 6 9 7 4
-4 -12 -2 14 7 10 8 5
-2 -4 -5 12 5 8 5 3
1 5 -4 13 6 7 4 1
1 14 -5 10 5 6 2 -2
2 20 -5 10 3 4 1 -3
5 21 -5 11 3 7 1 -2
-2 11 -6 11 4 6 2 -3
-9 -2 -6 10 4 6 2 -3
-8 -7 -7 11 2 5 2 -3
-4 0 -8 10 2 5 1 -3
-1 3 -6 11 3 5 1 -1
0 6 -5 13 4 6 2 -1
-2 3 -5 14 5 7 2 -1
-7 -2 -4 14 6 7 1 -2
-6 -11 0 18 10 10 4 1
-3 -12 1 17 11 12 5 1
1 -2 -1 17 10 10 4 1
-1 1 -3 15 8 10 3 -2
-3 1 -4 15 7 10 2 -1
-8 0 -6 14 6 8 0 -4
-10 2 -6 13 6 7 -1 -7
-5 12 -7 12 4 6 -2 -8
-5 10 -5 14 6 6 -3 -6
-5 4 -2 16 9 9 -1 -5
-4 -1 2 20 14 13 3 -2
-2 0 2 20 14 14 3 -5
-1 -1 5 23 18 17 6 -1
0 0 4 23 17 17 6 -1
-1 2 3 22 16 17 6 -2
0 9 2 22 15 16 5 -3
0 12 3 23 17 16 5 -3
-4 7 1 22 16 14 4 -4
-7 3 2 23 18 15 3 -3
-2 8 2 22 17 15 2 -5
2 11 3 23 17 14 1 -6
1 8 3 21 17 14 0 -7
-2 -1 6 24 20 17 3 -6
-5 -10 6 25 20 17 5 -5
-4 -9 7 27 22 19 7 -3
-4 -5 5 26 20 18 5 -4
-4 -6 7 29 23 20 8 -3
-4 -7 8 28 22 19 7 -1
-6 -4 8 28 22 19 6 -1
-11 0 5 25 20 15 3 -7
-7 3 5 23 20 16 3 -7
0 6 5 23 19 16 2 -7
0 5 5 23 19 16 2 -7
3 15 5 21 18 15 1 -10
3 23 2 20 16 12 0 -11
3 26 1 18 14 11 -1 -12
5 25 3 21 16 12 1 -9
2 10 6 24 19 15 5 -5
0 0 8 26 22 18 6 -2
-1 -9 13 29 27 22 10 1
-5 -21 14 30 27 22 10 1
-7 -19 11 29 24 20 8 -2
-5 -9 10 26 22 19 6 -3
-5 -4 7 22 17 15 4 -5
-4 0 7 23 18 15 5 -3
-2 5 5 21 16 14 4 -5
1 8 6 22 17 15 4 -3
3 14 4 21 15 13 2 -5
1 12 5 21 14 13 3 -4
-1 12 4 18 13 11 2 -7
-5 14 1 15 11 8 -2 -9
-4 13 3 17 12 9 0 -8
-1 7 7 20 17 13 4 -3
-3 -3 9 21 18 15 6 -3
-1 -1 10 22 18 15 6 -1
1 1 9 21 17 16 7 -1
1 6 9 21 18 16 6 -2
4 7 10 21 18 16 6 -3
8 11 10 20 17 15 6 -2
10 14 8 18 16 13 4 -4
2 7 7 16 14 11 1 -7
-7 -4 5 15 13 10 1 -7
-7 -6 6 15 13 11 1 -7
-3 -2 7 16 14 12 2 -7
-3 2 5 14 12 11 2 -7
-2 10 2 11 9 8 0 -9
2 17 3 12 9 8 0 -9
3 10 5 14 12 10 2 -7
2 0 8 16 15 12 5 -4
-1 2 8 15 15 11 3 -5
0 2 7 15 15 11 3 -5
2 3 9 15 14 12 4 -4
4 -2 12 17 16 15 7 -2
-3 -2 8 14 13 13 4 -4
-7 1 4 9 9 8 -1 -8
-5 5 4 9 8 8 -1 -8
-2 7 3 9 6 6 -2 -11
-5 1 4 10 9 8 0 -8
-4 -4 6 11 10 8 1 -6
-8 -2 5 9 7 5 -3 -9
-10 -6 5 9 7 5 -3 -10
-5 -6 8 11 11 9 1 -7
-4 -9 11 13 12 12 2 -4
-2 -6 10 12 11 12 2 -5
-2 0 7 9 8 10 0 -7
-4 7 3 5 4 6 -3 -10
0 12 4 6 5 6 -3 -10
0 11 4 6 6 6 -3 -10
-3 4 6 8 7 8 -2 -8
-2 5 7 9 8 9 -1 -8
-1 1 10 11 11 10 1 -5
-1 1 9 10 11 10 1 -5
1 3 9 10 11 11 2 -3
3 8 9 10 10 10 1 -3
3 9 7 9 9 10 1 -3
2 3 6 8 8 10 1 -4
1 2 7 8 7 9 0 -6
2 6 6 7 8 8 -2 -8
1 4 7 7 7 8 -1 -8
-7 -5 7 7 7 7 -2 -10
-13 -14 7 6 5 5 -4 -9
-12 -11 5 5 5 5 -4 -9
-8 -9 7 6 7 7 -2 -7
-6 -9 7 6 7 7 -2 -8
-7 -8 6 6 6 6 -3 -8
-3 0 6 5 6 6 -3 -8
-4 6 3 3 2 4 -5 -12
-5 10 1 1 1 2 -7 -14
-3 3 6 5 6 7 -3 -10
-4 2 7 6 6 7 -3 -9
-4 7 6 4 5 5 -4 -12
-4 4 8 5 6 6 -3 -10
-2 2 8 6 7 8 -1 -7
0 2 9 8 8 10 1 -4
2 4 9 7 8 8 0 -5
2 1 7 5 6 6 -2 -6
1 3 5 4 5 5 -1 -8
-4 -5 6 5 6 6 -1 -8
-7 -12 7 6 8 6 0 -5
-8 -13 6 4 6 4 -2 -8
-7 -13 10 7 9 7 1 -7
-4 -8 10 5 9 5 0 -7
-3 -1 9 5 7 4 -1 -8
0 4 7 3 7 3 -2 -10
-2 8 5 2 4 1 -5 -11
-5 5 2 -2 0 -3 -8 -12
-4 5 3 0 0 -1 -6 -13
-8 -3 5 1 2 -1 -5 -12
-8 -6 6 4 3 0 -4 -9
-4 2 5 2 4 -1 -4 -11
-6 5 4 0 1 -2 -5 -13
-4 3 5 0 2 -2 -5 -11
-2 4 6 2 4 0 -4 -10
-4 0 7 2 5 2 -2 -9
-6 -5 7 3 4 2 -2 -8
-4 -2 6 2 4 1 -3 -9
-2 3 6 3 4 2 -3 -9
0 7 7 3 5 1 -2 -9
1 8 6 3 4 0 -3 -8
0 3 7 2 4 1 -2 -9
-4 -4 9 4 6 3 0 -8
-5 -5 9 3 6 2 -2 -8
-5 -3 7 3 5 1 -3 -9
-6 -6 8 3 5 1 -2 -9
-5 -9 10 5 7 3 0 -7
-7 -14 10 5 8 3 0 -7
-10 -14 8 4 6 2 -1 -9
-6 -7 8 3 6 2 -1 -9
-4 1 4 -1 3 -1 -4 -11
-3 12 2 -3 1 -2 -5 -14
-1 14 4 -1 2 0 -4 -14
0 6 5 0 5 1 -2 -11
0 7 4 0 4 1 -2 -11
2 6 5 0 4 1 -2 -10
1 5 6 1 4 1 -2 -11
1 5 4 0 3 0 -3 -10
-2 -5 6 2 4 3 -1 -10
-8 -14 6 2 5 3 0 -10
-9 -10 6 2 4 2 -1 -9
-8 -8 7 3 5 2 -1 -10
-10 -11 7 3 5 2 -1 -12
-5 -7 7 3 6 2 -1 -11
0 4 6 4 5 2 -2 -12
3 3 8 5 7 4 1 -10
6 -2 10 10 10 8 4 -6
10 3 9 9 10 7 3 -7
11 8 10 9 11 7 3 -7
9 8 7 7 9 5 1 -8
11 8 7 8 10 6 2 -6
6 -1 5 4 7 4 0 -9
2 0 1 0 4 0 -4 -13
5 2 5 3 7 4 -1 -11
8 4 4 4 7 5 0 -10
7 3 3 2 5 4 0 -12
6 -4 4 2 5 4 1 -12
4 -4 3 2 4 3 -1 -12
5 -1 3 2 5 4 0 -10
5 4 3 0 5 2 -2 -11
3 4 2 -1 4 1 -2 -11
5 4 1 -2 5 1 -2 -13
9 8 1 -2 4 1 -2 -14
9 8 2 -1 5 1 -2 -12
10 3 4 2 7 4 2 -9
12 -6 7 4 9 8 5 -6
13 -2 5 3 7 6 4 -6
13 3 4 0 5 5 3 -8
11 7 -1 -4 0 1 0 -11
9 14 -5 -9 -4 -4 -5 -15
9 11 -5 -8 -2 -3 -6 -14
12 10 -1 -4 2 1 -1 -11
15 11 0 -4 3 1 0 -11
14 13 0 -4 3 1 -1 -14
8 14 -1 -7 0 0 -2 -14
7 9 1 -6 -1 0 -2 -14
6 6 3 -5 0 1 -1 -12
6 3 5 -2 4 3 1 -11
9 2 11 2 8 7 4 -8
4 1 10 2 6 5 2 -9
0 -3 12 3 8 6 3 -8
1 0 13 3 9 6 4 -9
2 8 12 2 7 5 3 -10
0 15 10 -2 5 2 -1 -14
-2 18 9 -5 2 0 -2 -15
-2 8 11 -2 3 2 -1 -14
-9 -5 10 -2 2 1 -1 -14
-12 -9 6 -6 -1 -3 -5 -17
-11 -7 6 -6 -1 -3 -5 -17
-8 0 9 -5 1 -2 -3 -15
-5 4 8 -3 2 -1 -3 -13
-4 0 11 -2 4 2 -1 -12
-6 -8 13 1 6 4 1 -11
-9 -12 12 0 4 3 1 -10
-6 -4 12 -2 3 2 -1 -12
-3 5 10 -4 1 0 -2 -13
-8 4 11 -2 2 1 0 -12
-10 -2 11 -2 3 1 0 -10
-6 -1 13 0 6 5 3 -7
-2 7 10 -2 3 2 1 -9
-5 9 5 -6 0 -3 -3 -14
-6 9 5 -8 -1 -3 -4 -15
-7 2 10 -4 3 3 1 -12
-8 -9 13 -1 5 5 2 -9
-10 -13 17 3 8 6 2 -12
-13 -12 23 14 12 6 -2 -20
-15 -10 42 41 31 12 -3 -22
-21 -11 64 69 49 17 -7 -27
-28 -12 82 91 65 23 -8 -33
-26 -13 91 106 77 28 -8 -35
-21 -7 91 111 81 28 -11 -41
-15 2 89 113 87 35 -7 -40
-7 15 91 120 105 55 10 -26
2 30 90 127 121 76 32 -7
16 56 80 131 140 101 58 17
35 81 65 121 146 119 82 40
53 95 43 102 143 132 104 62
77 114 13 62 125 144 131 91
101 132 -35 -5 84 145 155 118
137 149 -87 -72 39 149 183 149
176 172 -132 -120 15 166 220 188
196 188 -168 -161 -11 174 244 214
206 202 -191 -193 -37 174 257 231
198 224 -207 -233 -74 158 255 242
175 240 -219 -279 -122 130 239 243
153 241 -216 -309 -164 88 201 221
122 224 -186 -323 -207 24 139 180
80 196 -148 -337 -256 -52 66 131
49 162 -116 -328 -277 -103 16 90
33 117 -96 -303 -271 -129 -19 52
26 68 -78 -258 -244 -142 -43 21
18 21 -69 -221 -216 -143 -64 -9
9 -6 -81 -208 -199 -140 -74 -30
8 -18 -98 -200 -186 -131 -76 -39
-2 -26 -106 -192 -175 -122 -74 -41
-6 -30 -99 -174 -158 -109 -70 -43
-6 -27 -84 -147 -134 -93 -60 -42
-8 -21 -70 -124 -116 -82 -56 -42
-7 -17 -55 -100 -94 -69 -48 -40
-6 -14 -42 -78 -74 -57 -41 -37
-6 -13 -28 -60 -56 -45 -34 -30
-7 -19 -12 -41 -38 -30 -24 -22
-6 -15 -2 -28 -25 -20 -17 -18
-8 -10 4 -22 -19 -15 -13 -18
-12 -6 5 -20 -18 -14 -15 -21
-13 -2 7 -18 -16 -12 -15 -22
-15 -5 6 -15 -15 -11 -12 -19
-15 -4 6 -13 -15 -11 -13 -19
-13 -3 8 -7 -11 -8 -11 -16
-9 -3 10 -2 -5 -6 -8 -15
-8 -9 13 2 0 -4 -6 -12
-8 -12 15 6 4 0 -4 -13
-7 -10 16 7 7 2 -3 -12
-8 -14 18 9 9 5 -1 -11
-4 -5 18 8 5 5 -1 -11
-1 4 18 8 5 6 -1 -11
-7 0 15 6 1 3 -2 -15
-15 -11 12 5 -2 2 -3 -15
-17 -13 10 6 -3 -1 -5 -15
-15 -10 11 8 1 1 -2 -13
-12 -4 11 10 2 0 -3 -14
-14 -2 11 10 3 -1 -6 -16
-15 -8 13 9 4 -2 -6 -16
-19 -16 14 9 4 -1 -6 -16
-18 -16 15 10 4 2 -5 -15
-14 -8 15 9 3 3 -3 -15
-12 -8 13 8 1 3 -2 -13
-12 -10 14 12 2 5 0 -9
-7 -10 16 15 5 6 3 -7
-6 -8 14 15 6 5 2 -8
-6 -10 17 18 10 6 3 -6
-8 -8 18 17 10 6 0 -8
-8 -2 15 13 9 4 -3 -13
-9 -1 15 13 9 4 -3 -13
-10 -3 15 12 7 5 -3 -13
-7 -1 16 12 7 7 -2 -12
0 4 17 14 8 8 1 -10
-2 4 14 13 6 6 0 -10
-7 2 11 12 3 5 -2 -11
-11 1 9 10 2 1 -4 -14
-16 -5 6 10 1 -2 -6 -17
-17 -10 8 12 4 1 -6 -16
-16 -11 11 13 8 4 -5 -16
