I II V1 V2 V3 V4 V5 V6
-23 -19 -26 -79 -112 -109 -91 -68
-19 -42 -19 -75 -109 -105 -84 -65
-13 -23 -21 -73 -106 -98 -76 -69
-20 -31 -24 -85 -112 -107 -94 -69
-35 -35 -20 -83 -119 -92 -87 -66
-42 -28 -15 -72 -111 -100 -77 -60
-41 -9 -25 -80 -121 -112 -90 -68
-35 -25 -25 -88 -128 -121 -103 -68
-37 -18 -20 -82 -122 -109 -86 -67
-42 -12 -16 -75 -109 -118 -86 -65
-44 -18 -16 -74 -109 -104 -88 -63
-41 -41 -11 -66 -101 -95 -76 -56
-35 -21 -12 -64 -99 -87 -66 -58
-25 -26 -19 -76 -109 -101 -86 -61
-22 -32 -24 -86 -123 -95 -88 -66
-24 -28 -22 -82 -120 -106 -84 -66
-32 -10 -28 -89 -125 -113 -94 -71
-43 -26 -23 -87 -126 -117 -100 -65
-46 -15 -16 -73 -115 -101 -78 -61
-36 -12 -20 -66 -105 -114 -81 -61
-32 -20 -22 -68 -109 -105 -87 -65
-33 -38 -11 -54 -95 -89 -71 -55
-32 -17 -7 -43 -79 -70 -53 -51
-26 -14 -7 -41 -66 -65 -56 -43
-28 -11 0 -34 -51 -31 -37 -30
-25 2 6 -22 -25 -19 -14 -18
-14 29 6 -15 -3 4 1 -6
-5 19 11 -6 19 29 21 17
10 37 14 8 46 70 64 38
31 51 10 19 76 87 89 57
46 53 0 14 91 129 116 83
52 46 3 23 116 173 163 121
57 78 -10 23 134 213 208 151
66 86 -24 17 146 236 226 179
76 87 -32 15 155 284 260 203
87 88 -48 13 163 301 291 222
91 102 -82 -12 148 311 302 232
104 89 -117 -51 117 306 302 246
113 97 -146 -93 74 287 303 239
113 101 -176 -145 22 224 262 217
92 70 -195 -195 -45 171 205 181
71 17 -198 -225 -105 103 152 144
55 12 -208 -256 -162 33 97 99
27 -17 -208 -283 -223 -58 10 47
-5 -45 -189 -296 -299 -142 -68 -9
-37 -53 -165 -293 -356 -245 -134 -59
-54 -46 -146 -275 -361 -273 -171 -91
-55 -70 -122 -244 -339 -268 -180 -98
-61 -73 -95 -205 -304 -238 -157 -100
-59 -70 -72 -170 -260 -227 -150 -101
-58 -76 -53 -144 -232 -196 -146 -100
-59 -93 -35 -117 -201 -172 -128 -91
-51 -72 -23 -95 -174 -145 -104 -85
-49 -72 -14 -82 -159 -140 -110 -79
-54 -76 -3 -70 -151 -116 -101 -74
-47 -65 2 -53 -133 -118 -89 -72
-38 -43 -7 -56 -132 -119 -99 -80
-39 -57 -9 -53 -130 -125 -106 -76
-42 -48 -5 -40 -113 -106 -85 -71
-40 -42 -5 -38 -97 -113 -83 -70
-45 -44 -4 -40 -96 -96 -86 -65
-52 -59 8 -30 -84 -84 -69 -54
-50 -47 3 -29 -81 -79 -63 -61
-48 -50 -5 -39 -90 -93 -84 -65
-44 -50 -5 -44 -101 -83 -84 -64
-41 -43 -2 -42 -95 -93 -79 -64
-38 -25 -10 -50 -99 -101 -90 -73
-37 -38 -9 -54 -103 -107 -99 -69
-44 -29 0 -40 -91 -90 -75 -62
-45 -24 1 -33 -75 -94 -73 -59
-42 -29 -1 -40 -79 -86 -78 -59
-48 -45 12 -28 -69 -74 -64 -47
-51 -31 11 -24 -65 -66 -54 -50
-46 -35 4 -30 -74 -79 -75 -54
-47 -41 3 -36 -87 -73 -76 -53
-50 -38 2 -33 -84 -84 -70 -54
-45 -21 -4 -38 -87 -89 -79 -61
-43 -36 -6 -41 -90 -96 -91 -60
-43 -32 -5 -35 -84 -87 -75 -60
-33 -25 -6 -33 -73 -96 -78 -63
-32 -34 -7 -36 -76 -87 -84 -64
-36 -50 1 -28 -70 -78 -72 -57
-35 -35 2 -24 -65 -69 -61 -58
-44 -40 -2 -30 -70 -79 -76 -58
-51 -41 1 -33 -78 -69 -74 -54
-51 -33 5 -28 -71 -75 -65 -51
-48 -18 -1 -35 -76 -83 -76 -59
-44 -34 -4 -39 -81 -91 -87 -57
-46 -30 1 -32 -74 -78 -69 -54
-44 -24 0 -26 -61 -85 -67 -53
-39 -27 0 -26 -63 -75 -71 -50
-36 -42 7 -19 -57 -68 -62 -46
-31 -26 9 -15 -51 -59 -50 -47
-32 -32 3 -25 -61 -72 -69 -50
-39 -38 6 -29 -71 -65 -70 -50
-41 -30 9 -21 -63 -70 -59 -47
-41 -13 3 -27 -68 -76 -69 -55
-39 -28 -4 -32 -74 -87 -83 -57
-35 -25 -4 -23 -64 -75 -65 -56
-32 -20 -5 -18 -53 -82 -65 -57
-33 -26 -2 -22 -56 -74 -70 -56
-39 -41 9 -13 -47 -64 -58 -47
-42 -29 12 -7 -38 -53 -45 -46
-34 -32 6 -13 -47 -63 -61 -49
-35 -37 3 -22 -60 -59 -67 -52
-24 -31 0 -19 -58 -70 -61 -54
-11 -13 -10 -24 -63 -77 -71 -61
-27 -28 -6 -21 -61 -78 -76 -56
-35 -23 1 -10 -49 -64 -55 -51
-44 -21 2 -1 -35 -68 -52 -50
-54 -32 4 0 -37 -57 -59 -48
-40 -43 9 9 -31 -50 -49 -43
-32 -28 5 14 -27 -43 -40 -46
-29 -32 0 6 -36 -56 -58 -50
-30 -39 1 0 -47 -48 -61 -50
-31 -33 6 7 -38 -51 -49 -46
-26 -15 -2 2 -42 -56 -58 -51
-32 -29 -1 -1 -43 -62 -65 -46
-38 -24 9 12 -29 -44 -44 -40
-32 -14 9 20 -15 -49 -42 -41
-29 -23 7 16 -20 -44 -53 -41
-19 -32 17 25 -13 -36 -43 -35
-14 -18 18 32 -5 -26 -32 -37
-21 -26 13 24 -12 -39 -47 -40
-26 -33 14 19 -22 -33 -50 -39
-29 -29 16 28 -14 -37 -39 -37
-23 -10 10 25 -16 -39 -47 -42
-21 -22 8 22 -19 -45 -56 -41
-18 -18 13 36 -8 -33 -39 -39
-5 -6 12 41 5 -37 -36 -41
-1 -12 11 36 0 -33 -45 -42
-3 -30 18 45 7 -26 -35 -36
-14 -19 24 54 19 -12 -19 -32
-19 -23 22 51 15 -19 -32 -31
-22 -33 23 47 5 -13 -36 -31
-17 -26 24 56 15 -15 -23 -27
-9 -7 16 49 12 -21 -35 -35
-6 -16 15 50 11 -27 -45 -33
-9 -12 20 57 18 -16 -27 -32
-7 -7 19 62 30 -22 -25 -34
1 -15 18 59 27 -13 -33 -33
-6 -27 30 74 40 1 -16 -20
-8 -14 32 83 49 12 -4 -20
-6 -18 25 78 45 3 -18 -22
-12 -27 27 76 36 9 -21 -21
-9 -24 28 85 43 5 -11 -21
-7 -9 22 79 39 -1 -21 -28
-10 -20 22 76 36 -7 -30 -26
-7 -18 29 86 45 6 -13 -24
3 -11 27 88 56 0 -12 -27
4 -16 23 80 49 0 -25 -30
5 -29 29 87 53 7 -16 -25
2 -15 33 93 60 15 -5 -24
-8 -17 30 91 57 8 -17 -23
-10 -26 27 84 43 11 -24 -24
0 -16 29 90 49 5 -17 -26
3 1 24 84 46 1 -23 -31
-2 -12 22 81 41 -7 -34 -30
-4 -14 28 88 49 5 -18 -27
-3 -10 28 95 62 1 -14 -27
-4 -18 25 88 55 3 -25 -26
5 -31 31 94 59 9 -14 -20
1 -25 32 97 62 16 -6 -21
-3 -28 28 87 54 3 -23 -24
4 -32 27 79 41 4 -28 -23
8 -25 28 81 45 1 -17 -24
3 -14 20 72 38 -7 -29 -30
-7 -28 21 70 35 -14 -37 -27
-16 -27 27 77 43 0 -20 -22
-8 -17 25 81 51 -6 -17 -25
3 -27 15 67 38 -10 -34 -31
2 -41 20 71 41 -5 -24 -24
2 -20 23 77 47 7 -10 -22
-2 -21 16 66 37 -8 -29 -26
5 -30 10 51 17 -13 -39 -30
7 -23 12 51 18 -18 -29 -31
-5 -10 8 41 12 -24 -38 -34
-5 -18 6 32 4 -34 -49 -33
-5 -17 11 37 9 -24 -34 -28
2 -10 6 37 14 -31 -31 -32
3 -15 0 25 2 -31 -45 -33
1 -31 0 27 2 -29 -40 -30
-7 -22 0 27 4 -21 -30 -29
-12 -23 -6 15 -5 -33 -44 -32
-8 -30 -13 4 -23 -37 -54 -33
-5 -25 -14 5 -22 -41 -43 -34
-11 -11 -20 -3 -29 -48 -54 -39
-18 -19 -16 -9 -34 -56 -64 -35
-20 -15 -7 -5 -26 -44 -45 -28
-25 -10 -8 -2 -16 -47 -40 -28
-25 -12 -14 -19 -29 -49 -55 -29
-22 -24 -11 -16 -27 -44 -47 -26
-16 -16 -15 -17 -29 -41 -40 -31
-12 -18 -25 -25 -40 -54 -57 -36
-11 -26 -27 -34 -56 -56 -65 -37
-11 -20 -25 -31 -50 -57 -51 -35
-15 -8 -29 -37 -52 -60 -58 -38
-19 -21 -30 -43 -57 -69 -68 -36
-27 -18 -22 -33 -48 -55 -49 -28
-31 -10 -24 -26 -36 -56 -41 -27
-31 -17 -29 -31 -43 -54 -55 -28
-26 -31 -25 -29 -40 -51 -47 -25
-23 -21 -24 -29 -40 -47 -41 -27
-17 -19 -32 -41 -50 -60 -57 -31
-17 -25 -34 -45 -62 -60 -64 -31
-29 -23 -28 -36 -54 -59 -50 -29
-28 -12 -35 -48 -61 -69 -61 -38
-22 -18 -38 -53 -67 -75 -72 -36
-27 -18 -32 -48 -59 -65 -56 -32
-28 -6 -29 -41 -43 -63 -45 -29
-22 -12 -33 -47 -49 -61 -57 -30
-21 -29 -32 -47 -51 -62 -55 -32
-14 -20 -32 -46 -50 -58 -49 -35
-16 -23 -37 -56 -59 -68 -65 -40
-21 -30 -34 -60 -70 -69 -71 -40
-32 -22 -27 -52 -61 -66 -56 -36
-37 -7 -29 -56 -63 -69 -62 -35
-31 -18 -32 -61 -68 -76 -73 -35
-30 -21 -29 -56 -63 -69 -61 -36
-20 -10 -30 -50 -51 -70 -54 -38
-17 -17 -34 -55 -56 -68 -65 -40
-14 -30 -31 -51 -54 -64 -59 -34
-18 -15 -29 -43 -47 -53 -44 -30
-24 -17 -31 -46 -49 -60 -56 -30
-28 -26 -32 -53 -62 -60 -64 -30
-25 -22 -31 -46 -57 -61 -53 -29
-24 -9 -35 -49 -60 -67 -61 -34
-30 -21 -37 -54 -63 -75 -73 -37
-35 -24 -32 -49 -57 -67 -58 -35
-23 -13 -33 -44 -45 -69 -51 -35
-20 -16 -36 -50 -50 -69 -63 -36
-28 -28 -28 -42 -45 -61 -54 -30
-34 -16 -24 -33 -37 -51 -40 -26
-27 -14 -29 -37 -40 -58 -52 -28
-25 -25 -32 -46 -55 -60 -64 -31
-25 -22 -28 -41 -50 -62 -52 -31
-26 -9 -33 -48 -54 -68 -61 -35
-26 -16 -35 -51 -57 -73 -69 -34
-22 -16 -32 -45 -51 -65 -56 -32
-19 -5 -30 -34 -36 -62 -45 -30
-22 -10 -31 -38 -38 -60 -58 -28
-21 -27 -26 -35 -36 -55 -51 -26
-23 -15 -24 -33 -32 -48 -41 -26
-26 -8 -25 -39 -34 -54 -52 -27
-29 -21 -24 -45 -46 -52 -58 -26
-28 -22 -22 -39 -39 -52 -45 -24
-21 -9 -34 -47 -47 -62 -56 -33
-11 -16 -38 -53 -54 -75 -70 -38
-6 -16 -35 -50 -53 -70 -62 -40
-8 -6 -32 -43 -38 -67 -52 -38
-10 -10 -35 -49 -45 -67 -65 -38
-26 -23 -24 -38 -34 -54 -51 -26
-45 -17 -15 -27 -25 -40 -34 -18
-41 -15 -20 -32 -31 -49 -47 -22
-40 -26 -23 -44 -45 -52 -58 -26
-37 -22 -21 -40 -39 -53 -45 -24
-32 -8 -29 -45 -46 -60 -57 -32
-29 -15 -30 -46 -48 -66 -67 -33
-18 -15 -28 -43 -46 -62 -58 -34
-7 -2 -27 -38 -33 -61 -51 -35
-4 -4 -33 -47 -42 -64 -67 -38
-22 -16 -21 -35 -32 -51 -54 -25
-35 -8 -16 -27 -24 -42 -40 -21
-27 -9 -24 -38 -34 -55 -56 -27
-26 -18 -22 -46 -47 -57 -65 -25
-29 -12 -16 -39 -37 -51 -46 -19
-26 0 -23 -48 -41 -57 -56 -24
-21 -9 -27 -53 -47 -66 -67 -25
-25 -12 -21 -45 -41 -56 -53 -22
-29 -3 -22 -34 -27 -55 -45 -23
-24 -6 -27 -38 -36 -58 -62 -25
-19 -21 -23 -37 -35 -54 -55 -24
-21 -17 -21 -37 -32 -49 -48 -25
-14 -13 -28 -48 -42 -62 -62 -30
-13 -22 -31 -60 -59 -67 -71 -31
-19 -13 -25 -48 -48 -59 -53 -27
-30 1 -26 -44 -44 -57 -55 -25
-29 -6 -29 -50 -48 -64 -65 -25
-18 -7 -26 -47 -45 -57 -55 -25
-11 4 -28 -43 -33 -56 -47 -26
-12 -3 -33 -53 -42 -61 -64 -27
-19 -16 -26 -46 -37 -53 -55 -21
-28 -13 -22 -42 -32 -45 -44 -20
-25 -10 -29 -49 -39 -55 -57 -25
-21 -20 -34 -59 -56 -63 -70 -26
-20 -17 -32 -53 -52 -61 -57 -27
-12 -4 -37 -58 -56 -66 -66 -34
-5 -13 -43 -67 -63 -78 -80 -38
-11 -16 -37 -61 -56 -66 -65 -33
-17 -1 -29 -47 -36 -56 -49 -27
-27 -5 -32 -53 -42 -58 -62 -27
-33 -17 -26 -47 -38 -53 -54 -22
-33 -11 -25 -44 -36 -47 -46 -22
-29 -10 -34 -50 -42 -56 -58 -25
-25 -17 -35 -58 -54 -60 -66 -23
-25 -15 -31 -50 -49 -55 -50 -21
-27 -5 -37 -56 -54 -62 -61 -27
-22 -15 -41 -61 -60 -70 -73 -30
-18 -14 -37 -58 -56 -64 -61 -30
-7 -1 -36 -51 -43 -62 -51 -31
-9 -8 -39 -57 -51 -65 -66 -34
-21 -21 -32 -51 -47 -59 -58 -28
-24 -9 -28 -45 -40 -49 -45 -25
-21 -9 -35 -53 -46 -58 -56 -30
-24 -21 -40 -63 -61 -64 -69 -30
-22 -14 -36 -56 -55 -59 -52 -25
-24 -4 -40 -62 -59 -63 -59 -30
-22 -10 -40 -63 -61 -68 -65 -27
-19 -9 -33 -55 -51 -56 -49 -22
-15 4 -32 -50 -38 -52 -39 -22
-15 -2 -37 -56 -45 -55 -55 -26
-17 -15 -35 -50 -43 -51 -48 -22
-12 -7 -33 -46 -40 -44 -39 -23
-11 -6 -38 -53 -44 -54 -51 -28
-8 -19 -39 -67 -61 -62 -66 -31
-7 -18 -37 -65 -57 -62 -55 -31
-18 -10 -41 -72 -62 -67 -62 -35
-20 -15 -40 -72 -60 -68 -67 -29
-22 -10 -31 -60 -50 -53 -46 -20
-28 -1 -27 -45 -33 -44 -30 -15
-25 -5 -35 -55 -44 -52 -52 -24
-16 -17 -33 -52 -43 -51 -49 -24
-10 -9 -34 -50 -42 -46 -42 -28
-11 -2 -37 -53 -44 -51 -50 -29
-17 -17 -37 -63 -56 -57 -62 -30
-16 -16 -35 -59 -51 -56 -50 -29
-21 -9 -39 -65 -54 -59 -57 -33
-26 -14 -37 -65 -57 -64 -64 -31
-20 -15 -33 -62 -54 -58 -53 -30
-14 -6 -34 -60 -43 -54 -44 -34
-17 -8 -37 -65 -51 -58 -60 -33
-19 -14 -31 -59 -45 -51 -51 -27
-25 -8 -29 -52 -40 -42 -39 -25
-22 -7 -33 -58 -43 -46 -47 -28
-17 -16 -36 -66 -56 -53 -60 -31
-14 -14 -32 -58 -48 -49 -44 -27
-18 -5 -39 -62 -51 -52 -51 -31
-23 -10 -37 -62 -53 -55 -57 -27
-19 -8 -33 -57 -47 -49 -47 -24
-9 5 -33 -51 -35 -44 -36 -25
-16 -4 -38 -59 -44 -51 -53 -27
-18 -14 -34 -57 -42 -48 -48 -23
-7 -3 -31 -54 -36 -39 -36 -22
-8 -1 -36 -61 -40 -46 -46 -25
-12 -9 -34 -65 -50 -49 -55 -22
-15 -3 -27 -55 -39 -41 -35 -17
-16 9 -30 -58 -41 -44 -42 -20
-12 4 -30 -61 -45 -51 -50 -20
-9 3 -28 -56 -42 -47 -42 -20
-10 13 -25 -47 -27 -40 -29 -19
-12 10 -30 -55 -34 -42 -44 -20
-13 3 -26 -53 -32 -39 -38 -14
-16 11 -21 -48 -26 -29 -26 -10
-16 15 -28 -53 -30 -35 -35 -14
-11 2 -32 -62 -45 -43 -50 -17
-4 5 -27 -52 -39 -39 -34 -15
-2 13 -33 -58 -44 -44 -42 -22
-3 8 -32 -60 -46 -50 -51 -22
0 8 -28 -54 -41 -44 -43 -21
-1 18 -28 -47 -27 -38 -29 -20
-11 16 -29 -53 -30 -38 -42 -19
-16 7 -26 -50 -26 -34 -33 -13
-13 19 -25 -48 -22 -26 -23 -10
-2 27 -29 -49 -23 -28 -29 -10
-1 17 -33 -57 -35 -35 -42 -8
-4 17 -30 -54 -28 -30 -25 -6
1 33 -35 -60 -31 -32 -29 -9
3 32 -37 -64 -37 -40 -39 -9
5 30 -35 -58 -34 -35 -30 -9
1 39 -32 -45 -17 -24 -12 -6
-4 36 -37 -56 -26 -29 -31 -7
0 25 -34 -53 -25 -26 -25 -5
5 32 -34 -48 -21 -20 -15 -4
4 35 -39 -53 -27 -28 -26 -8
7 23 -46 -66 -46 -41 -43 -11
1 22 -43 -57 -39 -36 -26 -9
-9 31 -45 -57 -36 -35 -30 -9
-1 22 -48 -64 -43 -44 -41 -12
7 14 -49 -65 -46 -44 -36 -13
18 23 -52 -56 -35 -39 -24 -16
24 22 -55 -64 -40 -44 -43 -20
17 12 -44 -54 -34 -36 -32 -12
0 19 -35 -46 -27 -25 -18 -5
-8 15 -38 -49 -30 -31 -26 -8
-7 0 -40 -59 -45 -40 -43 -10
-17 0 -34 -50 -36 -33 -23 -7
-18 13 -36 -52 -36 -33 -27 -9
-7 11 -35 -56 -39 -40 -37 -12
-5 6 -30 -53 -35 -37 -30 -13
-4 11 -28 -45 -24 -32 -18 -15
-1 5 -33 -56 -34 -40 -38 -20
-5 -8 -29 -54 -32 -37 -34 -17
-8 -3 -28 -51 -29 -31 -25 -17
-13 -1 -30 -53 -30 -34 -31 -15
-22 -13 -28 -58 -43 -40 -44 -13
-12 -8 -27 -55 -40 -38 -30 -14
-3 3 -35 -63 -46 -45 -40 -21
-11 1 -32 -62 -44 -47 -44 -18
-14 -4 -28 -56 -41 -41 -34 -16
-14 1 -25 -47 -28 -33 -20 -16
-7 -3 -31 -57 -37 -42 -41 -23
-5 -14 -28 -53 -37 -40 -39 -22
-10 -10 -27 -50 -35 -34 -30 -22
-18 -5 -28 -51 -34 -35 -35 -21
-16 -17 -31 -63 -49 -46 -52 -23
-9 -11 -26 -56 -42 -40 -33 -22
-12 -1 -28 -58 -43 -40 -38 -24
-18 -9 -31 -64 -48 -49 -49 -27
-13 -11 -28 -61 -46 -45 -40 -25
-12 2 -25 -52 -31 -36 -26 -24
-10 1 -31 -62 -41 -45 -46 -29
-18 -8 -23 -55 -34 -37 -35 -21
-16 -5 -24 -54 -33 -31 -25 -19
-8 1 -28 -58 -34 -34 -30 -20
-7 -9 -29 -66 -48 -41 -44 -19
-12 -10 -24 -57 -40 -35 -25 -16
-11 2 -30 -62 -45 -38 -32 -21
-15 -3 -32 -64 -48 -46 -40 -23
-11 -11 -29 -63 -45 -42 -34 -25
-3 2 -27 -53 -31 -34 -19 -24
-4 -2 -33 -64 -42 -42 -39 -29
-9 -14 -28 -59 -39 -38 -32 -26
-9 -9 -26 -54 -34 -31 -21 -24
-5 -5 -31 -61 -36 -34 -27 -26
0 -14 -32 -72 -51 -44 -45 -29
-4 -13 -23 -63 -44 -36 -27 -26
-7 -6 -26 -69 -47 -39 -32 -31
-14 -7 -23 -70 -46 -42 -37 -28
-16 -7 -16 -67 -43 -37 -28 -24
-15 3 -15 -58 -30 -27 -14 -24
-16 -6 -22 -64 -38 -34 -32 -28
-18 -17 -17 -54 -27 -25 -21 -20
-11 -6 -13 -42 -11 -6 -4 -13
-2 8 -15 -37 4 4 -2 -7
3 5 -14 -37 12 14 -4 2
6 20 -1 -16 47 46 35 19
11 36 3 -2 73 76 57 35
14 40 10 13 102 105 80 56
22 45 14 25 127 140 118 80
37 69 15 42 162 179 163 103
49 80 5 36 176 207 179 129
62 85 0 36 194 244 220 160
76 107 -9 34 211 281 258 188
92 127 -24 27 221 306 284 212
101 120 -34 19 222 329 300 233
115 117 -45 24 236 366 348 254
131 124 -80 -1 221 376 363 263
147 127 -118 -43 193 374 366 276
151 127 -144 -85 153 359 366 276
142 130 -176 -132 103 318 346 255
123 111 -202 -185 36 253 280 224
105 79 -208 -215 -22 187 230 191
83 62 -219 -248 -82 115 172 148
48 39 -216 -270 -136 35 97 97
16 2 -206 -289 -216 -70 -1 40
-8 -7 -175 -281 -273 -161 -59 -9
-21 -6 -150 -257 -278 -189 -89 -37
-37 -21 -123 -227 -254 -181 -99 -47
-38 -34 -105 -200 -229 -167 -92 -54
-32 -30 -84 -162 -188 -140 -73 -58
-28 -38 -71 -149 -169 -133 -87 -65
-27 -46 -50 -121 -138 -111 -69 -57
-19 -37 -42 -103 -116 -92 -53 -55
-6 -30 -37 -87 -97 -81 -52 -56
-9 -38 -27 -75 -90 -76 -57 -49
-14 -35 -15 -53 -67 -60 -33 -43
-21 -21 -15 -49 -59 -55 -31 -42
-24 -22 -16 -48 -55 -56 -38 -40
-16 -21 -14 -46 -48 -51 -30 -34
-7 -3 -11 -35 -26 -37 -11 -33
-2 -1 -16 -42 -29 -41 -27 -33
-2 -7 -9 -33 -21 -32 -17 -25
-8 -4 -6 -28 -16 -22 -4 -22
-14 0 -11 -31 -17 -24 -10 -25
-17 -10 -10 -36 -29 -33 -25 -24
-12 -3 -4 -24 -17 -23 -5 -20
-12 9 -7 -24 -16 -25 -10 -25
-14 6 -8 -28 -17 -29 -17 -27
-17 -1 -6 -26 -16 -28 -14 -26
-12 11 -2 -17 -1 -20 2 -28
-4 10 -8 -26 -11 -28 -18 -30
-1 -2 -4 -27 -10 -27 -13 -26
1 2 -1 -24 -6 -20 -3 -23
-4 4 -3 -25 -8 -24 -10 -26
-7 -9 -4 -34 -23 -35 -27 -25
-15 -6 4 -21 -9 -22 -3 -19
-16 6 1 -24 -11 -24 -8 -23
-16 2 0 -30 -14 -30 -18 -24
-18 -3 2 -26 -11 -26 -11 -21
-17 6 5 -17 6 -13 8 -20
-11 2 -5 -29 -6 -25 -16 -27
-2 -9 -3 -24 -6 -24 -14 -27
5 -2 -4 -18 -3 -20 -7 -27
4 2 -6 -19 -4 -22 -12 -29
-15 -13 -2 -25 -16 -30 -27 -25
-23 -8 8 -12 -2 -17 -4 -19
-14 7 2 -16 -5 -21 -8 -24
-11 4 0 -19 -8 -28 -18 -29
-7 0 3 -16 -6 -24 -12 -26
-10 12 6 -3 13 -10 7 -22
-12 11 4 -8 7 -15 -8 -21
-6 3 8 -6 8 -11 -4 -18
-4 4 7 -3 9 -6 3 -18
-2 3 3 -5 7 -11 -5 -22
-6 -7 4 -9 -7 -20 -22 -21
-10 -6 12 4 4 -8 1 -16
-5 6 10 -1 4 -10 -4 -22
-3 2 8 -4 1 -16 -15 -23
-8 -1 12 0 3 -12 -8 -19
-11 13 19 15 25 7 17 -12
-8 13 10 7 15 -2 -3 -17
-5 -1 11 7 14 -3 -3 -15
-4 2 14 11 17 3 6 -15
-3 6 11 8 15 -2 -3 -19
-8 -5 12 2 2 -11 -19 -17
-13 -4 21 15 15 1 3 -12
-8 7 16 14 14 -1 -1 -16
-7 5 14 12 13 -6 -8 -16
-8 1 19 16 14 -2 -3 -12
-5 15 25 30 35 13 19 -8
2 15 21 22 27 5 0 -7
4 0 21 21 26 4 1 -5
6 4 22 25 29 12 9 -5
2 11 22 25 31 12 8 -4
1 -2 19 14 14 -4 -13 -7
6 -1 22 30 25 6 8 -5
16 10 15 29 23 2 2 -10
23 8 13 26 20 -4 -8 -13
20 2 18 31 25 -1 -1 -11
2 14 28 49 50 20 27 -3
-8 15 30 44 49 15 10 -3
-13 2 34 45 51 17 14 0
-6 4 34 45 51 18 19 -4
9 14 30 42 48 15 13 -9
18 1 24 33 30 0 -9 -13
22 -2 29 47 41 11 13 -10
14 8 29 52 48 14 14 -11
5 9 31 55 53 16 10 -4
-1 9 39 63 62 26 22 4
-7 18 45 82 84 43 47 10
3 18 40 75 76 33 27 6
12 12 43 76 78 35 30 7
8 12 44 79 81 41 38 7
6 16 43 80 82 40 33 5
7 6 42 70 68 30 16 6
8 4 49 84 79 41 38 11
15 13 44 88 79 41 34 6
19 10 42 90 81 38 26 5
18 4 46 95 84 42 30 7
16 19 55 114 107 60 53 12
16 18 49 104 100 52 33 8
16 8 53 107 102 55 36 11
17 9 55 112 107 60 43 10
23 12 51 110 105 56 37 5
26 2 49 104 91 45 18 5
29 5 57 116 104 57 42 12
30 11 51 111 101 54 36 6
32 9 51 110 100 50 27 5
27 6 57 112 104 55 34 10
28 19 61 126 125 74 58 14
21 16 60 125 120 71 45 14
11 1 62 131 122 74 48 18
17 3 63 133 122 78 54 16
22 13 62 135 125 78 52 13
23 3 60 125 108 64 31 11
24 3 66 135 117 75 54 15
24 12 63 133 116 73 49 11
23 8 60 130 112 67 40 9
24 -2 61 130 110 64 39 9
25 7 62 141 123 75 56 6
32 11 57 133 115 66 37 3
32 3 61 132 114 66 40 6
30 6 64 137 117 71 48 7
29 13 63 138 119 72 47 7
36 0 56 124 99 54 23 4
36 -3 65 135 107 62 44 9
29 4 64 132 107 61 42 7
24 0 63 127 104 55 34 8
29 -3 64 127 101 55 35 8
39 11 63 133 112 65 53 7
41 8 54 121 100 53 29 1
29 -3 61 121 100 53 31 5
18 -1 64 118 100 55 37 5
17 4 60 112 95 52 34 2
20 -7 53 98 74 36 12 0
16 -5 61 109 82 46 36 7
15 5 55 108 79 44 36 4
12 1 48 101 70 34 23 1
19 0 47 97 66 33 23 3
24 11 49 104 81 48 47 4
16 6 40 92 67 33 25 -1
18 0 39 88 63 32 24 2
25 3 37 82 57 30 27 -2
28 8 32 74 48 21 18 -8
25 0 30 59 29 6 -3 -8
12 -3 40 68 36 17 19 -1
-3 6 37 64 33 17 18 -1
-8 3 31 59 27 12 10 -2
-3 -5 29 58 23 9 10 -1
1 8 30 68 37 23 32 -1
12 9 19 56 26 11 10 -6
13 2 23 56 25 12 11 -1
6 4 25 54 24 15 19 0
8 8 20 49 21 12 17 -2
7 -7 15 37 1 -5 -3 -2
1 -8 22 45 7 3 17 1
-5 4 19 43 7 0 17 -2
-6 2 19 39 4 -5 11 -2
-1 -3 19 37 0 -6 10 -1
4 11 22 47 15 8 32 0
6 12 14 34 5 -3 12 -5
6 1 12 31 1 -5 11 -5
2 2 13 34 0 -1 20 -4
1 9 15 35 1 -1 23 -6
6 -5 7 22 -17 -19 -2 -10
15 -3 14 30 -11 -9 18 -7
15 3 8 25 -15 -14 14 -12
7 -2 6 21 -18 -20 4 -13
-8 -9 12 26 -14 -16 11 -7
-10 4 19 40 6 4 36 -2
0 7 10 33 -4 -6 15 -8
7 -1 10 34 -3 -5 15 -5
1 -1 11 34 -3 -1 22 -5
5 4 8 34 -3 -3 21 -8
11 -10 -1 20 -24 -23 -6 -14
4 -13 8 31 -16 -13 14 -10
2 -3 6 26 -16 -13 14 -11
8 -3 4 21 -20 -19 3 -15
8 -7 6 20 -21 -20 3 -12
-1 4 13 35 -2 -1 28 -7
-12 4 5 29 -8 -9 10 -9
-7 -4 6 31 -8 -8 10 -7
-5 -4 5 36 -5 -3 19 -7
-2 4 4 43 -1 1 20 -6
2 -6 0 30 -17 -15 -1 -8
-6 -9 7 36 -10 -7 17 -3
-4 -2 3 34 -11 -10 15 -8
4 -8 1 26 -17 -18 3 -13
9 -15 0 23 -20 -21 2 -12
4 -5 4 38 -3 -3 25 -9
-4 -4 -4 35 -8 -9 9 -10
-5 -8 -1 40 -4 -5 11 -3
-1 -3 3 45 2 3 22 -2
2 4 4 46 5 5 22 -3
6 -4 1 35 -12 -11 -1 -6
2 -8 7 44 -5 0 19 -2
-3 0 4 45 -4 1 19 -4
-2 1 3 42 -8 -5 9 -6
2 -6 3 40 -9 -8 9 -5
9 3 5 53 6 8 31 -5
16 8 -2 45 -3 -4 10 -10
13 -2 2 45 -3 -4 11 -7
10 1 4 49 2 2 19 -6
13 10 3 50 4 3 18 -7
6 -1 0 38 -11 -12 -3 -8
-4 -4 10 47 0 1 20 0
0 6 7 50 0 0 19 -3
6 3 2 44 -6 -8 8 -7
12 -5 -1 40 -10 -10 5 -10
9 7 4 54 9 7 29 -7
10 12 0 48 3 0 11 -9
4 2 3 49 3 1 13 -3
-5 4 5 55 7 8 22 0
-2 15 4 57 10 10 24 -2
1 0 -2 42 -10 -7 -2 -7
4 -4 4 48 -4 1 16 -4
12 6 -1 47 -6 -1 13 -9
14 6 -3 43 -10 -9 5 -11
13 0 -1 43 -11 -10 4 -10
16 9 2 52 3 4 24 -10
18 11 -7 40 -6 -7 4 -14
11 3 -1 46 -3 -3 9 -7
-4 6 4 52 4 6 20 -1
-6 17 3 53 8 8 22 -2
-5 4 -1 40 -11 -9 -1 -4
-5 -6 3 46 -8 -3 14 -3
-1 1 -3 45 -10 -4 11 -8
-1 2 -5 44 -14 -10 5 -8
-2 -2 -1 45 -13 -9 6 -4
-2 10 4 57 4 9 30 -1
-2 13 -3 51 -3 -1 10 -5
7 10 1 53 -4 -1 10 -3
14 10 1 56 -2 3 18 -1
15 16 -2 57 -3 4 17 -4
12 5 -8 41 -23 -16 -10 -10
10 2 -1 48 -16 -6 8 -5
3 13 0 50 -12 -1 13 -3
2 10 -2 48 -16 -7 4 -6
2 3 -3 47 -20 -10 2 -7
1 14 3 58 -3 7 25 -3
-4 12 -4 47 -11 -2 7 -7
-2 4 -2 47 -12 -4 7 -3
11 12 -1 50 -11 2 15 -1
15 21 -4 50 -11 2 15 -4
10 9 -9 40 -27 -13 -8 -5
6 5 -2 47 -20 -5 11 0
9 12 -8 41 -23 -8 9 -5
12 11 -10 32 -29 -16 -5 -9
17 2 -10 25 -33 -20 -8 -9
19 13 -6 29 -20 -8 12 -9
19 15 -11 17 -25 -17 -6 -13
14 6 -8 15 -24 -16 -4 -8
9 9 -1 16 -19 -7 8 -3
6 14 -2 12 -16 -4 10 -4
5 -3 -12 -7 -36 -22 -16 -9
2 -6 -5 1 -29 -12 5 -3
-1 3 -9 4 -27 -10 6 -4
3 2 -11 1 -31 -16 -2 -6
11 -1 -10 -1 -32 -18 -4 -5
7 9 -4 10 -16 -2 17 -3
9 10 -12 -4 -26 -14 -5 -11
12 5 -10 -5 -27 -16 -6 -10
16 8 -9 -7 -27 -13 -1 -10
24 15 -10 -6 -26 -11 2 -12
24 -1 -15 -21 -44 -30 -23 -15
13 -7 -8 -16 -37 -21 -6 -8
2 3 -4 -13 -33 -15 1 -5
-5 0 -6 -15 -33 -16 -4 -4
-2 -5 -4 -15 -34 -18 -6 -1
6 9 0 -5 -18 -3 17 1
-4 9 -5 -14 -23 -11 -2 -2
-3 -1 -5 -16 -24 -13 -4 -2
7 0 -7 -14 -27 -12 0 -4
11 10 -12 -9 -23 -8 5 -5
14 8 -17 -16 -36 -21 -17 -5
15 5 -6 -6 -28 -11 3 2
15 15 -10 -7 -28 -12 2 -2
10 14 -9 -9 -29 -15 -6 -3
7 9 -6 -11 -30 -16 -6 2
3 20 2 0 -10 4 22 8
4 25 -7 -10 -16 -6 2 2
8 16 -6 -12 -19 -11 -3 4
13 19 -4 -9 -17 -5 5 5
15 24 -7 -12 -16 -4 5 0
20 14 -15 -28 -35 -22 -20 -3
19 10 -9 -19 -29 -13 -2 1
16 18 -12 -20 -30 -14 -2 -1
16 19 -11 -21 -31 -16 -8 -2
7 9 -7 -20 -32 -18 -11 1
4 17 0 -9 -15 -1 13 2
7 22 -9 -19 -22 -12 -7 -2
7 14 -8 -19 -22 -12 -8 1
7 16 -7 -15 -19 -6 2 4
7 27 -11 -14 -16 -2 6 3
3 18 -16 -27 -30 -18 -16 3
8 18 -11 -17 -23 -7 2 9
6 29 -14 -16 -19 -2 6 9
7 31 -18 -21 -22 -8 -4 8
11 26 -21 -26 -26 -12 -7 10
15 37 -18 -16 -11 5 15 11
17 42 -23 -23 -17 -3 -3 7
18 33 -20 -23 -17 -4 -3 10
18 32 -21 -22 -18 -1 3 9
21 38 -23 -22 -17 1 5 5
20 27 -30 -36 -36 -17 -21 3
24 22 -25 -33 -35 -14 -9 4
17 29 -28 -34 -36 -14 -8 0
5 25 -26 -33 -36 -15 -13 2
-1 19 -21 -28 -35 -13 -11 10
3 30 -18 -15 -20 2 12 12
9 31 -28 -25 -29 -10 -9 4
8 20 -25 -25 -28 -11 -9 6
7 16 -22 -25 -28 -8 -4 7
16 24 -23 -25 -27 -7 -3 4
15 12 -25 -37 -43 -23 -25 2
6 0 -16 -29 -38 -15 -9 7
6 5 -16 -28 -38 -14 -9 5
11 4 -18 -32 -40 -18 -15 3
10 1 -16 -34 -40 -19 -17 7
-1 10 -10 -21 -22 -1 6 10
2 13 -14 -25 -27 -10 -12 4
1 1 -11 -20 -27 -11 -13 5
4 0 -14 -14 -26 -9 -8 2
7 5 -17 -13 -25 -8 -7 -2
1 -4 -20 -26 -42 -24 -31 -5
-5 -13 -12 -20 -37 -18 -15 -2
1 -8 -16 -22 -40 -22 -19 -7
8 -8 -19 -26 -45 -28 -30 -12
2 -18 -18 -28 -49 -33 -34 -10
-3 -10 -11 -17 -33 -16 -10 -7
-5 -6 -17 -25 -38 -23 -25 -10
-9 -16 -14 -24 -40 -23 -26 -7
-9 -15 -10 -18 -38 -18 -18 -6
-15 -11 -11 -16 -33 -13 -13 -5
-8 -20 -18 -28 -50 -31 -38 -8
-3 -22 -9 -17 -43 -23 -23 -3
-8 -15 -10 -17 -42 -22 -22 -6
-5 -20 -13 -21 -46 -30 -33 -9
-6 -29 -15 -26 -53 -35 -41 -11
-6 -18 -10 -18 -38 -19 -17 -7
-4 -14 -15 -27 -44 -25 -33 -10
-12 -27 -12 -27 -43 -25 -33 -7
-15 -26 -10 -23 -39 -18 -24 -6
-10 -18 -13 -18 -35 -14 -22 -8
-14 -29 -17 -26 -48 -29 -45 -9
-15 -33 -8 -16 -41 -21 -28 -5
-11 -25 -12 -18 -42 -21 -29 -10
-9 -26 -15 -23 -46 -27 -38 -12
-5 -33 -15 -27 -52 -33 -42 -10
-2 -27 -12 -17 -37 -19 -23 -10
4 -19 -20 -27 -44 -29 -42 -14
1 -25 -15 -24 -44 -28 -41 -9
-11 -27 -9 -18 -38 -17 -29 -2
-18 -20 -6 -14 -31 -8 -20 1
-20 -31 -12 -25 -47 -22 -42 0
-20 -36 -5 -18 -42 -15 -26 3
-17 -25 -9 -16 -40 -12 -24 1
-8 -25 -14 -22 -45 -17 -34 -3
-10 -37 -16 -26 -50 -24 -41 -5
-14 -29 -8 -11 -33 -6 -17 -3
-11 -24 -15 -19 -41 -17 -37 -10
1 -30 -14 -22 -45 -22 -42 -11
3 -33 -12 -16 -41 -15 -32 -10
-3 -28 -10 -9 -29 -4 -21 -6
-12 -32 -9 -12 -29 -7 -34 2
-13 -27 5 7 -3 20 -3 17
-8 -7 5 18 20 41 14 24
-2 4 8 21 40 60 23 35
3 3 16 34 66 88 45 56
13 23 30 66 115 141 101 84
33 44 22 69 135 167 115 103
44 45 21 75 153 194 142 127
56 54 13 77 174 230 180 153
70 73 7 80 195 269 220 180
79 79 -6 65 192 284 230 206
92 93 -6 71 215 326 280 239
108 108 -14 73 232 361 313 260
123 103 -32 61 233 380 328 273
130 92 -60 34 214 388 339 289
134 99 -92 8 199 402 370 301
128 103 -134 -47 143 363 335 287
128 94 -165 -104 77 308 293 266
119 75 -181 -144 19 252 253 235
101 52 -190 -175 -38 185 199 191
75 22 -203 -221 -112 93 110 144
49 -8 -192 -230 -163 23 57 97
14 -26 -175 -236 -224 -69 -19 40
-18 -44 -152 -234 -282 -162 -95 -6
-27 -59 -126 -214 -284 -184 -124 -30
-30 -60 -100 -173 -243 -156 -102 -41
-27 -58 -86 -154 -220 -147 -113 -52
-23 -68 -66 -130 -194 -133 -113 -57
-26 -71 -47 -102 -162 -110 -97 -56
-27 -63 -32 -75 -127 -82 -74 -48
-26 -67 -28 -68 -120 -82 -87 -44
-23 -69 -10 -38 -92 -57 -59 -33
-17 -56 -3 -19 -73 -42 -47 -30
-19 -55 -1 -11 -62 -38 -50 -29
-20 -62 -2 -8 -58 -38 -55 -26
-15 -46 3 6 -34 -15 -25 -21
-15 -35 -6 -3 -33 -20 -40 -24
-9 -38 -5 -4 -30 -18 -41 -21
-11 -35 0 3 -21 -8 -26 -15
-11 -24 1 5 -12 0 -18 -13
-8 -30 -2 -9 -27 -17 -42 -17
-2 -34 4 -3 -24 -12 -27 -14
-1 -23 4 -4 -21 -9 -25 -15
-10 -23 4 -5 -19 -13 -33 -17
-16 -32 3 -10 -22 -19 -42 -18
-9 -23 6 5 -4 -1 -17 -17
-5 -15 0 -2 -6 -8 -33 -22
-5 -20 5 0 -3 -7 -32 -16
-13 -21 10 3 1 2 -20 -12
-16 -18 9 4 5 6 -13 -12
-14 -29 2 -12 -15 -13 -41 -16
-14 -36 9 -6 -12 -6 -24 -11
-13 -28 7 -4 -10 -3 -20 -13
-7 -23 1 -7 -13 -12 -31 -16
-7 -32 -1 -12 -20 -21 -43 -20
-13 -24 9 5 1 1 -13 -15
-10 -15 5 2 3 -1 -25 -15
-10 -25 5 1 2 -4 -28 -12
-10 -25 8 2 3 2 -19 -10
-9 -16 9 4 9 9 -10 -11
-20 -30 4 -9 -9 -10 -36 -15
-23 -38 10 -3 -7 -6 -22 -12
-18 -28 10 -1 -3 -2 -18 -13
-11 -23 8 -2 -4 -7 -27 -15
-10 -31 10 -4 -7 -12 -35 -14
-7 -20 14 7 10 6 -10 -11
-7 -11 9 1 9 1 -23 -13
-10 -21 10 3 10 1 -25 -9
-6 -21 9 2 9 3 -17 -8
4 -16 5 4 10 5 -13 -13
1 -25 -2 -7 -6 -12 -38 -16
1 -31 5 1 -2 -3 -23 -10
-7 -22 10 4 3 4 -14 -8
-19 -20 13 6 7 3 -19 -6
-16 -26 12 1 2 -4 -28 -7
-11 -16 14 17 19 14 -3 -5
-3 -12 3 13 17 7 -20 -11
-1 -22 2 12 15 4 -24 -11
-4 -23 5 14 18 10 -15 -8
-10 -14 9 20 27 20 -4 -4
-16 -26 5 8 12 3 -28 -8
-17 -34 8 15 13 8 -16 -6
-10 -22 7 19 16 10 -12 -8
-8 -21 8 19 18 7 -18 -9
-1 -28 9 16 13 0 -27 -10
2 -19 14 27 32 20 -1 -6
0 -12 8 23 32 16 -13 -10
-9 -21 12 23 32 16 -14 -5
-6 -16 14 25 34 23 -6 -4
-7 -9 16 29 40 29 2 -4
3 -16 8 15 21 5 -27 -11
13 -26 13 18 23 8 -16 -10
5 -20 13 22 27 12 -12 -10
1 -14 15 25 30 11 -18 -9
-10 -22 21 28 34 11 -19 -4
-12 -20 26 41 52 30 7 0
-12 -13 21 38 50 27 -4 -2
-11 -21 23 35 50 26 -7 -1
-3 -18 26 38 51 31 1 0
2 -7 27 45 60 38 9 0
8 -14 20 33 46 20 -18 -5
9 -17 28 46 51 28 -3 1
-3 -11 30 49 56 34 4 2
-10 -14 29 45 56 31 -3 2
-4 -16 31 42 55 28 -8 5
-2 -7 37 59 74 49 19 9
3 0 30 57 74 46 8 3
9 -11 27 59 74 44 3 3
11 -16 29 65 78 51 12 6
12 -6 32 73 87 61 23 8
10 -12 29 63 73 46 0 7
7 -20 37 69 78 53 12 12
-1 -15 41 78 86 61 20 14
0 -13 40 77 85 55 11 11
10 -17 40 74 82 48 1 10
8 -12 45 89 100 67 26 9
17 -4 39 86 101 63 15 5
24 -10 41 86 101 61 10 4
26 -10 44 90 105 67 19 7
24 -2 48 97 114 78 32 10
16 -11 46 92 104 66 13 14
8 -22 56 100 109 77 30 23
10 -17 53 100 110 80 34 20
12 -19 49 98 107 73 23 15
9 -29 48 96 103 65 12 13
13 -17 54 112 122 86 40 16
19 -6 48 110 125 81 29 14
25 -12 49 109 123 77 22 16
34 -12 48 109 123 81 30 15
37 -5 52 114 128 88 40 15
21 -11 54 108 121 77 23 19
11 -22 64 117 125 84 38 27
16 -16 61 116 122 85 40 22
22 -15 59 113 119 78 30 18
23 -23 53 105 111 68 16 14
24 -17 58 119 127 84 40 18
19 -8 53 118 128 81 30 15
8 -17 57 120 129 81 28 18
18 -16 58 120 128 84 33 19
31 -7 58 123 133 89 42 16
29 -16 52 109 116 71 16 11
21 -29 58 114 117 76 28 16
18 -21 56 116 116 78 33 14
15 -21 56 112 114 71 24 13
24 -28 52 103 103 60 11 9
20 -26 56 112 117 76 34 10
21 -16 49 106 113 69 20 5
19 -25 51 101 110 62 12 5
21 -23 50 99 108 66 19 8
20 -12 52 99 110 72 28 8
13 -21 47 84 90 53 4 6
15 -30 48 87 87 55 14 10
11 -20 46 90 89 58 21 10
17 -16 41 83 83 49 10 9
17 -25 36 72 71 39 -3 6
17 -20 38 79 81 52 19 5
20 -13 28 70 74 44 4 1
15 -17 29 64 70 39 0 6
4 -15 31 66 69 43 10 10
1 -8 29 66 70 46 17 8
6 -16 19 48 47 23 -12 1
8 -24 23 46 42 23 -4 4
4 -15 23 48 42 26 3 4
-3 -17 20 42 38 20 -6 2
-10 -25 19 31 28 12 -16 2
-8 -20 22 39 38 28 7 4
-4 -9 10 27 31 17 -7 -3
-6 -14 12 24 25 11 -12 0
-9 -16 10 24 22 13 -7 0
-2 -6 11 25 27 20 2 1
-5 -11 5 10 11 1 -22 0
-9 -24 11 13 10 5 -10 5
-8 -17 7 11 8 5 -8 1
-4 -18 1 6 3 -3 -19 -4
-6 -27 -1 -1 -7 -14 -30 -5
-6 -16 7 10 7 4 -4 -2
-1 -4 -3 0 3 -3 -19 -9
-6 -15 -1 -4 -2 -10 -25 -7
-9 -18 2 -1 -1 -3 -14 -4
-7 -9 2 2 4 3 -3 -4
-7 -16 -6 -8 -10 -14 -27 -6
-8 -27 -1 -1 -7 -8 -15 0
-11 -20 -3 0 -7 -5 -11 -3
-4 -17 -6 -3 -11 -12 -22 -7
-6 -23 -7 -8 -17 -19 -32 -8
-10 -16 -1 6 -3 -1 -7 -6
-5 -7 -9 2 -5 -8 -19 -12
-5 -20 -11 -7 -11 -15 -31 -16
-12 -24 -8 -4 -8 -10 -21 -13
-18 -14 -3 2 1 1 -7 -9
-20 -17 -10 -14 -14 -16 -30 -9
-20 -28 -2 -11 -14 -13 -19 -3
-14 -20 -5 -13 -16 -11 -16 -7
-12 -19 -7 -17 -19 -17 -26 -10
-11 -24 -7 -21 -23 -24 -34 -8
-7 -19 -4 -13 -11 -9 -12 -7
-14 -12 -7 -17 -9 -10 -20 -9
-10 -18 -6 -18 -12 -14 -26 -7
-9 -19 -8 -17 -12 -10 -18 -6
-7 -11 -6 -11 -4 1 -5 -5
-5 -20 -14 -26 -21 -19 -30 -10
-6 -34 -10 -23 -23 -17 -23 -8
-12 -28 -9 -16 -17 -9 -13 -6
-23 -25 -7 -15 -16 -11 -19 -5
-28 -27 -5 -18 -20 -17 -27 -3
-21 -22 -1 -7 -4 -1 -3 -2
-15 -14 -9 -10 -6 -6 -16 -9
-12 -24 -9 -13 -10 -15 -26 -10
-8 -23 -5 -11 -7 -9 -17 -8
-3 -14 -3 -8 -2 -2 -8 -8
-10 -20 -7 -19 -15 -16 -30 -10
-20 -31 1 -13 -12 -10 -18 -4
-15 -22 -2 -11 -9 -6 -12 -6
-9 -21 -7 -17 -15 -14 -23 -12
-17 -28 -8 -20 -19 -21 -31 -9
-24 -19 5 -1 3 2 -1 1
-22 -9 -1 -5 3 -1 -10 -2
-19 -18 0 -9 -2 -8 -20 -3
-16 -20 -1 -7 -2 -6 -15 -5
-15 -15 -1 -2 3 2 -4 -5
-17 -21 -5 -13 -11 -15 -28 -8
-20 -33 2 -9 -10 -14 -18 -4
-18 -22 1 -5 -7 -9 -10 -3
-14 -16 0 -10 -9 -13 -17 -5
-17 -23 0 -15 -15 -19 -27 -4
-18 -16 5 -1 2 1 -1 0
-12 -7 -3 -4 2 -2 -10 -5
-11 -16 -3 -7 -1 -9 -19 -4
-18 -19 -2 -3 0 -6 -13 -4
-20 -8 4 5 12 5 2 -1
-18 -18 -2 -9 -5 -14 -23 -5
-18 -32 1 -8 -8 -12 -16 -2
-17 -24 1 -6 -5 -8 -9 -4
-12 -19 0 -9 -7 -12 -17 -6
-13 -26 -1 -15 -14 -20 -28 -5
-16 -19 4 -6 0 -5 -6 -2
-13 -4 -1 -10 1 -8 -14 -5
-13 -13 -2 -13 -3 -15 -24 -6
-10 -15 -1 -11 -3 -12 -18 -5
-4 -7 -1 -7 3 -4 -6 -5
-12 -16 -4 -16 -8 -18 -29 -5
-24 -29 4 -12 -9 -14 -19 0
-25 -22 4 -11 -7 -10 -11 0
-24 -19 3 -13 -8 -13 -17 -1
-26 -23 2 -12 -11 -16 -25 1
-15 -14 6 3 3 1 -1 4
-8 -4 -4 -4 1 -5 -14 -5
4 -10 -8 -13 -7 -16 -26 -10
18 -12 -12 -14 -10 -14 -21 -10
2 -6 -3 -2 3 1 -4 -2
-25 -11 -1 -8 -5 -10 -19 0
-32 -21 5 -5 -7 -9 -13 3
-25 -10 5 -2 -5 -4 -5 2
-20 -5 3 -6 -8 -10 -16 -3
-17 -13 -2 -16 -19 -22 -31 -7
-15 -9 3 -6 -7 -8 -10 -7
-17 0 -2 -13 -6 -9 -17 -10
-24 -5 -1 -15 -6 -13 -22 -6
-22 -5 0 -14 -5 -8 -13 -4
-20 0 -1 -12 -1 -2 -3 -6
-16 -5 -8 -22 -16 -18 -26 -8
-18 -14 -2 -14 -16 -15 -18 -2
-21 -9 -4 -10 -15 -10 -10 -4
-18 -9 -6 -13 -16 -17 -20 -7
-19 -16 -8 -22 -24 -27 -34 -8
-23 -10 -1 -10 -10 -9 -7 -1
-25 3 -5 -11 -7 -9 -11 -3
-26 -6 -7 -16 -11 -16 -22 -4
-24 -8 -5 -15 -10 -11 -14 -2
-24 -1 -3 -11 -5 -3 -4 -4
-19 -3 -11 -24 -21 -23 -29 -8
-19 -15 -5 -22 -23 -22 -24 -5
-17 -6 -6 -20 -21 -18 -16 -5
-14 2 -8 -23 -23 -23 -23 -7
-18 -9 -11 -30 -30 -31 -35 -8
-17 -7 -7 -21 -18 -17 -13 -7
-14 7 -12 -24 -17 -19 -19 -10
-15 2 -11 -27 -21 -23 -25 -8
-24 -4 -7 -24 -18 -16 -16 -5
-24 4 -5 -19 -13 -10 -5 -6
-24 -3 -10 -34 -28 -28 -30 -11
-20 -10 -4 -34 -30 -27 -24 -8
-15 0 -4 -31 -26 -22 -16 -10
-11 -1 -8 -36 -32 -29 -27 -16
-8 -11 -14 -44 -42 -42 -43 -20
-9 -9 -10 -32 -29 -27 -21 -17
-13 2 -11 -31 -24 -26 -25 -20
-22 -5 -9 -28 -25 -30 -30 -15
-25 -8 -5 -27 -22 -25 -21 -12
-19 0 -4 -23 -16 -15 -9 -12
-20 -4 -11 -36 -31 -32 -30 -15
-27 -11 -5 -32 -32 -30 -23 -8
-25 -2 -7 -29 -28 -22 -14 -8
-23 -2 -12 -31 -32 -28 -24 -13
-26 -11 -10 -33 -36 -37 -37 -14
-18 -5 -7 -26 -24 -25 -17 -12
-11 7 -15 -31 -25 -29 -26 -18
-9 1 -16 -34 -30 -37 -36 -21
-15 -1 -11 -31 -26 -31 -25 -16
-26 3 -6 -22 -18 -19 -10 -12
-25 -4 -12 -35 -32 -34 -32 -16
-16 -15 -9 -34 -35 -33 -27 -14
-21 -6 -8 -30 -29 -26 -16 -14
-25 -3 -7 -28 -28 -27 -21 -13
-24 -7 -10 -33 -34 -35 -31 -13
-23 1 -3 -17 -18 -17 -7 -7
-22 10 -9 -19 -17 -19 -13 -12
-22 5 -10 -23 -22 -25 -23 -12
-19 6 -6 -21 -17 -19 -14 -9
-15 13 -4 -19 -14 -12 -4 -10
-10 9 -12 -34 -31 -32 -31 -16
-11 -1 -7 -32 -33 -33 -25 -12
-19 8 -4 -26 -26 -22 -12 -9
-17 13 -5 -24 -25 -24 -18 -11
-20 8 -7 -29 -31 -33 -29 -11
-15 12 -4 -20 -19 -20 -9 -8
-14 28 -7 -21 -15 -17 -10 -10
-20 21 -9 -24 -17 -22 -18 -7
-19 20 -7 -23 -16 -19 -10 -5
-15 25 -7 -17 -11 -11 0 -7
-13 18 -16 -30 -27 -30 -27 -14
-11 8 -13 -30 -30 -32 -25 -11
-10 13 -14 -29 -29 -28 -17 -16
-9 15 -16 -33 -32 -34 -28 -21
-7 15 -17 -37 -37 -40 -38 -20
-17 19 -11 -25 -21 -22 -12 -12
-18 36 -15 -24 -16 -17 -12 -11
-6 35 -17 -29 -18 -23 -19 -8
0 35 -18 -26 -16 -19 -11 -6
-2 41 -18 -22 -10 -9 1 -6
-6 38 -27 -34 -22 -24 -20 -8
-11 27 -22 -33 -25 -24 -15 -1
-14 37 -19 -26 -18 -14 -2 1
-17 38 -25 -30 -23 -21 -12 -3
-15 31 -28 -35 -29 -30 -25 -4
-3 37 -24 -25 -18 -18 -5 -3
2 49 -31 -26 -18 -21 -12 -11
12 44 -33 -34 -26 -31 -24 -13
11 39 -31 -33 -25 -27 -17 -11
-3 46 -24 -27 -17 -17 -2 -7
-15 40 -27 -38 -28 -31 -23 -8
-15 22 -24 -38 -35 -34 -21 -5
-7 29 -27 -36 -36 -30 -15 -9
-2 31 -34 -41 -41 -37 -24 -13
-9 20 -35 -45 -46 -44 -35 -11
-7 24 -23 -29 -30 -26 -11 -6
-8 36 -27 -29 -25 -26 -14 -12
-9 27 -28 -33 -30 -32 -23 -12
-21 20 -24 -28 -27 -25 -14 -9
-22 25 -19 -22 -22 -15 -1 -7
-14 25 -25 -34 -34 -30 -23 -11
-14 13 -21 -31 -37 -31 -21 -8
-13 14 -22 -29 -35 -27 -13 -11
-14 13 -22 -32 -37 -33 -21 -13
-20 2 -22 -36 -44 -43 -35 -15
-20 8 -14 -25 -33 -27 -12 -12
-21 22 -17 -24 -27 -24 -14 -14
-28 12 -18 -30 -31 -33 -26 -15
-23 7 -18 -27 -31 -29 -20 -16
-21 10 -17 -24 -27 -22 -11 -18
-20 5 -25 -36 -42 -41 -36 -26
-24 -6 -19 -35 -47 -42 -32 -22
-31 -2 -19 -30 -44 -35 -22 -22
-35 -3 -21 -31 -47 -39 -29 -22
-33 -7 -23 -35 -53 -47 -42 -24
-32 -5 -18 -25 -42 -35 -23 -23
-22 12 -22 -26 -37 -34 -25 -25
-26 5 -19 -29 -39 -38 -32 -23
-31 -1 -18 -26 -38 -34 -26 -22
-27 7 -19 -23 -35 -30 -17 -25
-24 2 -25 -34 -49 -46 -40 -31
-19 -10 -22 -34 -54 -49 -40 -29
-13 -1 -22 -28 -50 -42 -29 -30
-15 0 -25 -33 -54 -48 -38 -33
-28 -9 -23 -37 -56 -53 -46 -29
-40 -7 -13 -22 -41 -34 -21 -23
-34 7 -18 -24 -38 -34 -26 -27
-17 4 -22 -31 -46 -44 -39 -29
-21 -4 -22 -28 -43 -39 -31 -27
-29 0 -18 -21 -37 -29 -18 -23
-29 0 -23 -32 -51 -45 -39 -27
-32 -13 -18 -30 -56 -47 -37 -24
-27 -7 -19 -27 -53 -40 -26 -25
-27 -5 -22 -29 -55 -45 -34 -28
-29 -13 -24 -34 -60 -55 -47 -30
-35 -8 -14 -19 -43 -34 -23 -24
-33 6 -18 -21 -39 -33 -25 -28
-30 -4 -23 -31 -47 -45 -42 -32
-24 -8 -19 -28 -45 -40 -33 -30
-21 1 -17 -24 -38 -31 -20 -29
-19 0 -24 -34 -52 -46 -42 -33
-19 -12 -18 -31 -55 -47 -40 -29
-26 -8 -16 -25 -49 -39 -28 -29
-24 -7 -21 -34 -56 -48 -40 -36
-23 -17 -24 -40 -63 -58 -54 -37
-32 -11 -11 -22 -41 -34 -24 -26
-29 6 -10 -15 -23 -20 -14 -23
-17 8 -11 -10 -14 -15 -19 -19
-10 13 -6 10 13 13 6 -6
-7 29 3 31 45 46 37 9
0 37 6 35 63 61 41 24
9 34 17 49 87 92 71 50
24 50 18 64 115 133 112 74
34 60 12 67 135 158 132 94
42 67 7 67 151 184 154 122
47 80 7 81 185 237 214 156
57 108 -7 82 207 273 248 182
79 122 -23 75 218 297 268 209
95 127 -32 77 236 335 306 234
109 127 -43 77 249 372 344 253
126 116 -79 44 226 371 338 259
143 106 -113 9 197 375 351 276
141 118 -143 -29 165 370 359 280
133 116 -180 -88 101 315 315 257
121 97 -205 -142 31 248 258 227
103 72 -212 -170 -18 192 221 190
81 62 -226 -206 -76 119 158 146
52 31 -224 -234 -134 35 81 99
22 3 -208 -241 -192 -47 13 47
-13 -9 -179 -239 -249 -133 -51 -2
-34 -23 -159 -231 -280 -188 -112 -38
-48 -47 -127 -197 -264 -184 -116 -48
-50 -46 -102 -162 -231 -157 -98 -51
-45 -48 -88 -138 -207 -146 -104 -59
-39 -56 -72 -117 -186 -140 -112 -64
-36 -51 -52 -83 -147 -109 -83 -58
-25 -30 -44 -65 -120 -88 -74 -57
-19 -30 -31 -46 -100 -80 -74 -48
-23 -30 -14 -24 -75 -58 -55 -38
-33 -25 -5 -5 -54 -40 -35 -34
-26 -23 -8 -7 -57 -47 -53 -36
-23 -30 -3 -4 -54 -46 -49 -29
-21 -20 -5 3 -43 -34 -35 -28
-19 -13 -8 4 -38 -36 -42 -30
-15 -14 -12 -5 -45 -45 -58 -33
-15 -9 -5 4 -31 -30 -36 -30
-27 2 -4 6 -22 -23 -30 -29
-23 -4 -3 -1 -29 -34 -44 -31
-19 -9 4 -1 -27 -29 -36 -31
-28 -3 11 7 -15 -18 -21 -28
-28 0 8 -4 -26 -32 -41 -31
-20 -6 13 -5 -32 -35 -41 -26
-12 1 16 1 -26 -25 -26 -26
-10 3 12 -2 -29 -31 -36 -29
-20 -4 14 -4 -33 -37 -44 -26
-29 -2 25 11 -18 -20 -18 -19
-28 14 26 13 -11 -13 -15 -22
-29 5 28 11 -14 -21 -28 -20
-28 0 32 14 -12 -17 -22 -19
-25 8 37 21 -4 -9 -9 -18
-27 2 30 7 -19 -27 -35 -26
-21 -13 34 5 -25 -31 -37 -25
-9 -3 33 9 -21 -23 -23 -27
-12 2 29 8 -21 -25 -29 -26
-20 -2 32 6 -24 -30 -37 -23
-23 -3 39 18 -11 -12 -13 -17
-25 10 38 22 -4 -7 -11 -20
-23 7 39 18 -8 -17 -24 -19
-21 3 42 20 -7 -14 -18 -18
-25 10 47 27 1 -5 -6 -17
-27 5 42 17 -11 -20 -27 -24
-28 -8 46 18 -14 -22 -28 -20
-22 -1 47 22 -9 -12 -13 -21
-20 -1 46 18 -10 -17 -22 -23
-25 -7 44 12 -16 -25 -33 -22
-26 -8 50 25 -3 -10 -11 -16
-27 2 47 24 1 -9 -11 -20
-19 0 45 18 -6 -21 -25 -22
-15 2 50 24 -2 -14 -16 -19
-12 4 54 28 4 -7 -6 -20
-9 1 47 22 -8 -21 -27 -26
-9 -12 52 23 -13 -23 -27 -21
-6 -3 58 28 -5 -11 -13 -20
-8 1 57 24 -5 -15 -18 -21
-16 -4 57 21 -6 -20 -27 -18
-24 1 68 35 11 1 0 -8
-29 16 70 40 21 10 6 -8
-28 9 67 34 14 -1 -9 -9
-23 2 66 38 15 2 -2 -8
-21 3 66 44 21 11 7 -9
-14 3 57 37 9 -5 -16 -15
-15 -11 61 37 5 -9 -20 -14
-13 -8 60 42 10 -1 -7 -16
-9 -1 55 37 8 -6 -14 -19
-13 -6 54 33 5 -11 -23 -16
-17 -2 64 44 20 6 1 -8
-12 13 59 47 27 12 4 -11
-12 6 59 42 23 2 -11 -14
-18 2 65 49 29 11 -1 -7
-15 9 67 57 37 23 15 -5
-14 6 60 53 28 10 -6 -9
-13 -8 63 53 24 6 -8 -6
-15 -4 63 56 30 16 5 -5
-18 -3 58 50 27 9 -5 -10
-9 -3 54 45 20 1 -17 -12
-2 -2 63 56 32 16 4 -6
4 14 63 61 41 24 8 -9
3 7 62 59 40 16 -3 -11
-2 3 65 66 46 24 7 -6
-5 9 69 77 56 35 21 -3
-8 7 63 74 51 25 5 -5
-11 -8 63 74 46 21 1 -3
-10 0 64 84 55 33 17 0
-6 9 60 81 53 27 9 -5
-8 7 59 75 48 19 -2 -4
-11 7 69 90 63 38 24 4
-6 22 66 91 71 42 26 0
4 16 61 82 63 28 6 -7
9 8 64 86 63 34 11 -7
8 19 71 99 76 47 28 -4
11 23 66 94 71 37 11 -5
-6 7 73 97 70 38 13 5
-10 15 80 110 85 56 35 12
0 17 75 106 82 51 26 8
4 12 71 97 75 40 12 6
4 13 80 109 88 55 33 10
8 24 79 115 97 62 37 6
6 14 77 107 92 52 20 4
3 8 80 112 93 56 27 6
12 15 82 119 102 65 39 4
30 20 76 112 94 52 19 -1
36 5 75 104 84 44 13 0
31 10 77 110 92 56 30 3
23 14 79 111 94 56 27 4
13 6 79 109 91 51 18 7
11 5 88 124 105 68 41 15
6 19 90 133 117 78 50 14
0 6 88 126 110 65 31 10
4 0 90 124 108 67 35 10
8 7 93 129 114 74 46 8
12 9 90 121 106 62 27 5
11 -2 93 119 99 58 23 10
10 5 95 128 107 69 39 13
19 8 90 128 106 65 32 11
21 3 85 122 97 55 18 8
18 0 89 129 105 67 33 11
15 11 85 128 108 70 35 5
16 4 83 120 100 58 16 3
19 6 89 120 103 62 23 7
21 14 93 116 110 71 35 8
16 8 85 97 99 57 16 3
9 -7 85 85 90 49 9 6
8 0 86 91 95 61 26 8
15 4 81 84 91 55 17 4
18 -1 75 72 79 43 1 1
16 -3 81 74 87 54 18 4
9 9 77 70 91 57 22 0
8 4 74 60 81 44 6 -1
5 -4 73 57 77 44 10 -1
5 2 75 60 80 51 22 0
10 4 63 51 67 35 1 -5
10 -8 60 45 55 25 -6 -3
13 1 61 46 59 35 10 -1
17 8 57 38 52 28 1 -3
12 3 51 25 40 15 -12 -5
9 -1 53 27 44 23 4 -4
13 13 47 24 47 25 6 -7
14 10 44 13 35 12 -11 -9
12 4 47 12 34 15 -5 -6
6 6 51 15 38 23 7 -4
-12 5 49 8 33 16 -5 -1
-20 -8 49 4 21 9 -10 3
-10 2 47 3 20 14 3 3
0 9 37 -11 11 3 -10 -4
1 2 29 -23 -2 -10 -26 -8
-3 0 37 -20 5 1 -7 -3
-8 16 36 -18 12 9 0 -3
-7 13 34 -22 4 -3 -17 -5
-4 8 33 -24 2 -2 -12 -6
-10 9 35 -20 5 5 0 -6
-18 8 29 -28 -3 -7 -17 -8
-19 -6 28 -33 -13 -14 -23 -5
-19 -3 27 -30 -9 -3 -8 -4
-19 -1 23 -34 -11 -9 -17 -8
-14 -6 19 -44 -21 -19 -30 -10
-9 -7 24 -42 -17 -13 -15 -8
-7 12 25 -38 -6 -4 -5 -7
-14 6 23 -47 -14 -17 -23 -9
-9 4 26 -45 -13 -14 -17 -7
-1 10 26 -42 -9 -8 -6 -8
-10 6 21 -48 -16 -17 -20 -8
-25 -8 26 -46 -22 -20 -23 -2
-28 -7 28 -40 -15 -9 -5 -1
-8 1 19 -49 -22 -19 -17 -9
-9 -2 17 -56 -30 -27 -29 -11
-18 -7 24 -48 -20 -15 -10 -6
-14 9 22 -45 -11 -9 -5 -7
-11 1 18 -55 -22 -24 -26 -13
-12 -8 18 -53 -22 -21 -21 -11
-5 -1 22 -46 -13 -12 -7 -8
-5 1 17 -54 -21 -21 -22 -12
-8 -14 18 -58 -29 -29 -29 -10
-10 -9 20 -50 -22 -18 -13 -9
-11 -6 17 -54 -25 -22 -20 -13
-13 -10 16 -60 -31 -30 -32 -14
-8 -8 22 -53 -22 -18 -15 -8
-2 7 17 -52 -16 -14 -12 -13
3 3 14 -61 -25 -29 -30 -18
0 -4 17 -58 -23 -25 -25 -16
-6 3 25 -48 -13 -12 -8 -10
-7 8 22 -51 -19 -19 -21 -10
-16 -8 23 -55 -27 -26 -27 -8
-24 -7 26 -45 -17 -12 -8 -4
-24 -3 21 -45 -18 -17 -14 -8
-12 -7 14 -52 -28 -30 -29 -14
-7 -9 19 -43 -19 -20 -14 -11
-10 6 22 -39 -8 -11 -4 -11
-14 -2 19 -46 -16 -24 -23 -13
-13 -3 22 -42 -13 -18 -16 -10
-19 2 24 -35 -3 -7 -1 -5
-17 0 16 -44 -14 -19 -19 -11
-12 -13 15 -48 -25 -28 -27 -9
-8 -5 19 -37 -15 -15 -8 -7
-4 3 18 -34 -14 -17 -12 -9
-7 -4 15 -41 -22 -25 -25 -13
-14 -9 21 -31 -10 -12 -6 -6
-21 2 22 -23 3 -1 5 -5
-13 -3 15 -31 -7 -16 -15 -8
-6 -3 18 -26 -6 -13 -10 -7
-7 1 20 -20 1 -5 2 -7
-4 1 14 -28 -8 -17 -17 -14
-2 -12 15 -35 -17 -27 -27 -12
-7 -7 18 -27 -9 -14 -8 -9
-10 -1 17 -29 -9 -16 -12 -8
-14 -4 17 -35 -12 -21 -20 -8
-14 -9 20 -31 -7 -13 -6 -6
-8 4 20 -27 2 -4 4 -7
-5 -2 18 -35 -5 -16 -14 -10
0 -7 18 -36 -6 -15 -9 -9
5 -5 19 -32 -2 -8 0 -7
-5 -4 17 -36 -6 -15 -12 -9
-20 -21 20 -37 -12 -20 -16 -3
-21 -13 23 -27 -4 -7 2 -1
-20 -10 19 -31 -6 -12 -6 -5
-13 -14 14 -37 -14 -21 -19 -8
-7 -12 20 -31 -7 -12 -5 -5
-3 4 19 -28 1 -5 2 -9
3 3 16 -34 -5 -18 -19 -11
3 0 19 -32 -5 -16 -14 -9
1 1 20 -29 -3 -11 -6 -11
-1 0 14 -36 -10 -21 -21 -14
-17 -14 18 -36 -18 -28 -27 -9
-17 -9 20 -26 -9 -15 -8 -5
-12 -6 15 -30 -10 -19 -14 -7
-16 -11 14 -33 -15 -27 -26 -8
-15 -10 20 -26 -7 -15 -9 -2
-12 0 17 -24 1 -6 1 -3
-8 -8 12 -34 -8 -20 -19 -6
1 -6 16 -27 -4 -13 -10 -1
-1 -7 16 -22 0 -7 1 -2
-3 -10 6 -30 -10 -19 -15 -8
-9 -27 5 -37 -21 -30 -26 -8
-8 -20 9 -31 -16 -19 -9 -7
-1 -12 7 -35 -18 -23 -17 -11
-3 -16 4 -43 -26 -34 -31 -14
-5 -19 9 -40 -22 -27 -20 -12
-1 -1 12 -30 -7 -13 -6 -9
-5 -2 15 -33 -11 -21 -19 -7
-6 -7 21 -27 -7 -14 -10 -2
-10 -8 19 -24 -4 -9 -2 -4
-5 -9 9 -31 -12 -22 -18 -10
-4 -23 10 -37 -24 -33 -31 -10
-9 -22 14 -31 -16 -21 -11 -8
-7 -14 12 -32 -16 -24 -17 -9
-4 -14 10 -37 -21 -29 -25 -8
3 -18 12 -34 -19 -25 -15 -9
10 -3 10 -28 -10 -17 -7 -14
21 -7 0 -36 -22 -34 -31 -20
11 -12 5 -29 -19 -28 -23 -15
-5 -12 14 -16 -6 -15 -7 -9
-15 -11 12 -23 -12 -22 -21 -11
-19 -24 13 -29 -20 -30 -29 -5
-13 -19 15 -23 -14 -18 -9 -2
-9 -15 10 -27 -17 -23 -17 -5
-3 -17 6 -33 -25 -32 -29 -7
0 -23 8 -30 -22 -27 -18 -6
5 -9 6 -28 -15 -21 -12 -10
6 -14 3 -34 -22 -32 -31 -12
-2 -22 5 -32 -20 -29 -24 -8
-12 -21 11 -22 -11 -18 -10 -4
-13 -16 8 -25 -14 -24 -19 -5
-5 -29 5 -34 -29 -37 -35 -8
-1 -20 8 -28 -22 -26 -18 -8
-4 -18 5 -31 -24 -32 -24 -12
-5 -21 4 -32 -28 -36 -33 -12
-9 -24 9 -23 -20 -26 -18 -7
-9 -7 10 -20 -10 -17 -7 -8
-3 -11 7 -30 -18 -29 -24 -11
-5 -18 7 -32 -20 -28 -20 -10
-12 -19 8 -27 -17 -21 -10 -9
-12 -14 5 -30 -19 -27 -20 -10
0 -27 1 -35 -30 -38 -31 -9
4 -19 6 -24 -20 -23 -11 -6
9 -12 4 -25 -20 -25 -15 -8
9 -13 1 -34 -26 -35 -27 -10
8 -17 8 -26 -20 -27 -15 -6
8 0 8 -19 -6 -14 -1 -8
6 -5 4 -27 -14 -27 -19 -9
2 -8 12 -21 -10 -20 -11 -3
-7 -6 16 -13 0 -10 3 2
-1 0 9 -21 -8 -21 -12 -2
5 -11 9 -27 -19 -31 -24 -2
9 -9 12 -19 -14 -21 -7 -4
12 -5 8 -23 -17 -28 -15 -10
0 -11 9 -28 -22 -35 -25 -9
-2 -16 14 -23 -17 -27 -11 -6
3 1 13 -16 -7 -15 2 -6
9 -2 6 -27 -16 -27 -17 -9
9 -6 6 -29 -15 -26 -12 -7
5 -1 10 -23 -7 -16 3 -2
-4 5 8 -25 -8 -17 -4 0
0 -5 6 -29 -17 -27 -15 3
11 -1 5 -17 -10 -14 4 4
12 2 0 -19 -10 -16 0 2
12 1 -6 -30 -17 -24 -11 2
13 2 2 -23 -8 -14 4 10
8 19 5 -12 7 2 21 12
4 15 0 -19 -1 -10 2 10
2 9 1 -16 -1 -8 6 12
8 15 2 -7 6 -1 16 15
12 17 -6 -13 -2 -12 1 8
13 1 -10 -24 -18 -29 -17 6
14 3 -5 -19 -14 -18 2 6
18 6 -8 -25 -19 -25 -7 0
21 5 -13 -31 -25 -33 -19 -2
13 -2 -8 -26 -20 -26 -7 2
8 7 -10 -21 -12 -16 4 -1
16 4 -16 -31 -22 -31 -18 -7
18 -1 -13 -27 -22 -29 -14 -4
20 -2 -12 -25 -20 -25 -8 -7
23 1 -17 -31 -26 -33 -20 -11
14 -14 -15 -38 -35 -42 -29 -6
1 -11 -9 -27 -25 -27 -7 0
-4 -3 -6 -28 -22 -27 -8 1
1 -5 -8 -32 -27 -35 -20 -2
7 -10 -6 -28 -25 -32 -13 -2
8 2 -5 -21 -15 -20 0 -4
4 -4 -8 -29 -21 -33 -20 -7
-3 -12 -3 -25 -21 -30 -15 -5
-7 -11 -2 -21 -19 -25 -8 -7
-7 -9 -8 -27 -27 -35 -22 -15
-6 -29 -10 -38 -41 -50 -37 -16
-2 -28 -7 -34 -36 -39 -18 -14
7 -17 -10 -38 -38 -43 -24 -16
16 -17 -15 -45 -46 -54 -37 -20
12 -22 -12 -41 -41 -49 -28 -18
1 -11 -9 -32 -29 -37 -14 -18
-11 -19 -11 -39 -34 -49 -34 -21
-14 -26 -8 -37 -33 -47 -29 -18
-17 -21 -3 -30 -26 -37 -15 -13
-13 -17 -9 -36 -32 -44 -25 -16
-9 -30 -10 -47 -44 -56 -40 -18
-7 -24 -5 -39 -35 -42 -18 -14
-5 -21 -7 -40 -38 -46 -23 -17
-3 -26 -12 -48 -47 -57 -38 -21
-1 -30 -10 -47 -45 -56 -29 -20
3 -14 -9 -37 -32 -42 -13 -18
2 -20 -14 -46 -40 -57 -35 -22
4 -25 -12 -44 -42 -55 -33 -22
2 -22 -10 -34 -34 -48 -22 -21
-8 -21 -15 -33 -36 -52 -29 -24
-11 -36 -14 -39 -44 -60 -41 -20
-13 -30 -8 -30 -34 -43 -18 -14
-12 -24 -12 -36 -36 -47 -23 -18
-8 -28 -17 -42 -42 -55 -36 -22
-9 -34 -12 -35 -36 -48 -24 -19
-9 -18 -11 -26 -24 -34 -9 -20
-9 -24 -16 -35 -33 -49 -29 -22
-9 -33 -15 -33 -34 -47 -26 -21
-8 -31 -15 -32 -32 -44 -20 -22
-5 -28 -21 -38 -36 -51 -30 -27
-9 -40 -20 -43 -47 -61 -44 -23
-10 -32 -12 -32 -36 -44 -20 -16
-10 -25 -15 -33 -38 -46 -23 -18
-12 -30 -16 -39 -41 -51 -30 -17
-7 -34 -12 -35 -38 -47 -23 -16
-1 -21 -12 -30 -29 -39 -12 -21
2 -24 -17 -39 -39 -54 -34 -26
3 -29 -10 -32 -34 -49 -27 -22
1 -28 -3 -24 -24 -36 -14 -17
6 -21 -6 -25 -16 -31 -16 -16
7 -25 -4 -26 -10 -28 -18 -7
8 -11 8 -11 22 7 18 9
19 10 14 -4 47 31 37 24
20 12 22 7 74 60 59 46
30 17 32 27 108 100 96 70
45 45 37 45 145 142 138 93
50 52 31 45 160 159 147 114
64 58 28 52 183 197 187 143
83 70 21 48 196 232 227 168
100 92 4 39 200 256 249 193
108 92 -9 36 206 280 272 222
116 98 -11 50 233 330 324 250
128 96 -30 38 233 352 343 263
143 92 -64 3 210 356 349 276
155 92 -97 -33 186 358 362 287
157 108 -131 -77 147 336 356 276
145 99 -168 -144 73 267 293 247
131 73 -184 -190 12 205 245 216
102 52 -187 -222 -46 143 199 178
77 39 -201 -255 -106 69 132 135
40 1 -194 -273 -167 -12 57 92
-1 -22 -170 -269 -226 -96 0 43
-27 -36 -151 -267 -280 -181 -72 -8
-31 -48 -131 -241 -278 -198 -103 -35
-30 -59 -105 -202 -246 -179 -91 -42
-27 -48 -83 -166 -207 -149 -72 -48
-29 -57 -69 -147 -188 -146 -89 -57
-28 -65 -48 -121 -160 -128 -78 -55
-20 -62 -32 -96 -129 -105 -58 -51
-6 -55 -30 -84 -112 -95 -60 -51
2 -67 -23 -76 -106 -95 -68 -46
7 -60 -7 -51 -78 -68 -36 -34
-3 -56 -3 -43 -64 -59 -34 -31
-13 -52 0 -39 -56 -57 -38 -26
-9 -48 5 -31 -44 -45 -21 -18
-10 -35 5 -23 -26 -28 -5 -18
-11 -34 1 -30 -29 -38 -25 -22
-10 -32 5 -28 -23 -31 -17 -17
-6 -27 7 -24 -16 -24 -8 -17
-1 -21 2 -29 -19 -28 -17 -22
-3 -35 -1 -41 -34 -44 -38 -24
-8 -33 6 -32 -24 -30 -16 -21
-9 -25 5 -31 -23 -30 -18 -22
-6 -28 4 -35 -25 -36 -27 -22
-4 -29 9 -29 -19 -28 -16 -16
-10 -16 13 -17 0 -9 7 -13
-5 -16 6 -28 -10 -25 -17 -17
2 -18 7 -27 -11 -24 -14 -16
-2 -17 8 -23 -9 -20 -7 -17
-1 -12 4 -29 -12 -24 -16 -21
2 -26 2 -39 -29 -41 -35 -23
-1 -31 8 -29 -20 -28 -15 -20
-1 -23 7 -29 -17 -28 -16 -21
-16 -23 12 -27 -13 -26 -18 -14
-14 -30 15 -23 -9 -20 -10 -12
-3 -16 14 -18 4 -7 4 -16
3 -18 7 -29 -7 -24 -20 -21
9 -23 9 -28 -8 -24 -17 -18
3 -18 13 -23 -3 -15 -5 -15
-7 -10 12 -23 -2 -15 -9 -13
-14 -27 13 -30 -15 -28 -24 -12
-9 -26 17 -23 -10 -18 -6 -11
0 -18 10 -29 -13 -24 -15 -18
3 -19 7 -34 -17 -31 -25 -20
-8 -26 11 -25 -10 -22 -12 -15
-19 -16 17 -12 9 -3 9 -12
-10 -14 11 -25 0 -17 -15 -18
-2 -18 14 -21 1 -16 -11 -15
1 -16 15 -18 4 -13 -5 -17
-2 -11 14 -21 2 -16 -13 -20
-6 -28 11 -31 -14 -33 -33 -21
1 -25 16 -24 -8 -21 -13 -19
8 -17 11 -26 -8 -23 -18 -23
2 -16 13 -23 -6 -24 -22 -18
-1 -19 16 -15 0 -13 -8 -10
-2 -3 18 -1 19 6 16 -7
-8 -6 16 -4 15 -4 -3 -7
-6 -12 18 -3 14 -2 -1 -6
-4 -8 18 0 18 4 8 -6
-4 -6 16 -2 16 0 1 -11
-3 -22 14 -11 0 -16 -20 -13
0 -23 15 -4 8 -3 0 -11
2 -14 14 -4 11 -3 -1 -12
-1 -14 15 -6 9 -8 -8 -11
-1 -17 22 1 16 1 4 -4
-2 -2 25 11 32 19 23 -2
4 -4 18 2 22 3 -3 -7
11 -11 18 3 20 4 -2 -6
10 -10 18 9 26 12 9 -3
-2 -4 19 12 28 12 6 -2
-8 -19 18 5 17 -1 -12 -2
-3 -21 21 13 24 11 5 -2
1 -10 20 16 27 11 2 -4
5 -9 18 12 23 6 -9 -7
6 -15 22 15 26 9 -1 -5
6 2 27 29 45 30 21 -3
3 0 25 25 41 19 1 -3
2 -5 29 31 45 24 7 1
2 -4 30 35 50 30 18 2
-2 -1 27 33 48 27 11 -1
-2 -18 25 22 34 11 -9 -3
2 -15 33 33 43 27 14 2
5 -8 30 34 45 27 12 0
9 -7 31 36 46 26 6 2
8 -14 37 46 52 33 17 6
9 1 37 56 68 49 35 6
17 0 29 48 63 38 14 2
26 -2 33 54 66 42 19 6
25 -2 35 58 71 47 27 5
28 0 30 54 69 43 19 -1
30 -13 32 46 57 29 3 0
19 -11 41 59 69 47 28 7
17 -5 39 58 71 47 25 3
18 -7 38 61 73 45 19 4
12 -13 45 74 82 54 30 10
12 -1 48 86 100 71 50 10
16 -3 42 75 93 59 28 7
21 -10 43 76 93 60 31 8
22 -4 49 81 100 70 42 11
24 6 49 83 102 72 39 10
23 -8 46 74 88 56 19 8
23 -5 53 87 101 72 43 15
22 2 54 89 105 74 42 14
20 -1 52 88 103 69 33 14
19 -7 54 93 105 73 41 17
19 1 55 106 120 92 61 18
19 -1 49 102 116 82 43 17
21 -6 55 108 119 89 50 22
27 -3 55 112 122 96 59 21
33 4 54 113 122 95 55 20
33 -11 49 101 105 76 34 16
35 -12 53 109 110 88 53 17
40 -5 50 105 109 87 49 13
47 -4 50 102 106 82 40 12
41 -9 54 107 111 86 47 15
23 2 61 122 130 106 71 20
16 -1 56 110 119 92 49 17
21 -7 59 111 118 92 51 19
19 -8 59 113 119 96 58 19
23 -4 54 108 114 91 49 15
28 -17 51 98 98 73 28 13
27 -16 56 109 105 86 50 16
31 -7 48 105 99 82 45 11
34 -10 44 103 95 75 34 8
25 -17 47 105 96 78 41 12
22 -2 51 110 109 92 61 14
21 -5 43 96 96 75 35 8
20 -13 45 94 91 73 36 9
19 -10 46 96 93 79 44 8
21 -7 39 87 85 77 35 3
29 -22 34 71 64 57 11 -1
33 -20 39 76 68 63 32 2
28 -11 39 70 64 54 30 2
19 -9 40 64 61 46 25 6
8 -15 44 64 60 44 32 11
11 1 42 67 69 51 50 10
10 0 32 55 58 31 26 6
5 -8 31 56 53 27 28 8
7 -7 28 60 52 25 35 8
9 -4 20 54 44 17 27 3
6 -23 11 37 19 -8 1 -1
-2 -20 19 44 26 4 24 4
-2 -11 15 38 23 -2 20 1
5 -10 10 29 15 -15 6 -3
7 -17 12 27 11 -17 9 -3
13 -2 13 31 21 -5 27 -2
10 1 8 19 11 -20 7 -3
-4 -2 15 22 13 -16 14 4
-8 -2 16 20 12 -14 21 5
1 0 6 11 2 -23 10 -3
-2 -14 1 -1 -16 -43 -11 -5
-14 -18 7 8 -9 -31 11 0
-12 -12 2 5 -9 -35 6 -6
-8 -12 -2 -1 -16 -43 -5 -8
-10 -17 1 1 -16 -42 0 -5
-7 0 4 11 0 -24 23 -2
-4 1 -3 -3 -10 -41 -1 -9
-1 -4 -4 -6 -13 -43 0 -9
-1 1 -2 -5 -14 -40 8 -7
-6 7 -2 -5 -15 -42 4 -7
-3 -10 -7 -16 -32 -59 -19 -10
-4 -17 -6 -8 -27 -52 1 -8
-5 -11 -6 -9 -28 -52 -1 -9
-5 -10 -9 -11 -31 -58 -9 -11
-13 -20 -8 -11 -30 -57 -6 -10
-4 -7 -7 0 -16 -41 14 -10
7 -3 -13 -12 -26 -56 -10 -17
9 -7 -10 -12 -26 -55 -8 -14
3 -10 -7 -8 -21 -48 3 -10
-7 -6 -7 -9 -22 -49 1 -12
-21 -20 -7 -16 -34 -60 -15 -8
-25 -19 0 -5 -24 -46 8 -3
-16 -12 -6 -8 -28 -52 2 -9
-15 -15 -9 -13 -32 -58 -8 -11
-19 -22 -8 -12 -31 -57 -5 -9
-19 -8 -5 -3 -17 -41 14 -10
-8 0 -9 -10 -23 -53 -8 -13
-8 -6 -8 -10 -22 -54 -6 -10
-9 -8 -6 -4 -19 -49 3 -9
-5 -2 -8 -6 -20 -50 0 -13
-6 -16 -11 -16 -36 -67 -21 -14
-12 -19 -3 -7 -28 -54 2 -7
-10 -16 -7 -9 -29 -55 -2 -11
-4 -16 -11 -15 -34 -64 -15 -17
-2 -21 -8 -13 -34 -64 -13 -15
-4 -8 -4 -2 -18 -49 8 -15
-2 -3 -10 -14 -25 -61 -14 -19
-13 -10 -5 -13 -23 -59 -11 -14
-21 -12 -1 -9 -19 -52 0 -9
-17 -6 -6 -10 -20 -53 -5 -12
-18 -18 -8 -16 -32 -67 -22 -11
-13 -15 -5 -6 -24 -55 -2 -8
-4 -8 -10 -6 -25 -58 -6 -13
-5 -9 -11 -9 -29 -65 -17 -16
-9 -16 -5 -5 -26 -62 -11 -11
-15 -5 -2 5 -11 -45 11 -9
-10 -2 -7 -3 -18 -57 -12 -15
-4 -6 -6 -2 -16 -55 -9 -13
-5 -11 -8 -1 -18 -53 -3 -14
-1 -5 -11 -3 -17 -56 -8 -17
8 -13 -15 -15 -31 -71 -27 -17
-4 -15 -6 -3 -20 -54 -2 -9
-14 -9 -4 1 -16 -50 -1 -8
-17 -11 -6 -3 -19 -56 -9 -10
-23 -18 -2 0 -16 -54 -5 -5
-21 -5 0 8 -3 -40 14 -5
-16 5 -6 -4 -9 -54 -8 -11
-17 0 -4 -4 -10 -52 -5 -7
-14 -3 -4 -5 -10 -48 1 -7
-12 1 -9 -8 -14 -50 -2 -12
-9 -11 -13 -18 -29 -66 -23 -12
-10 -11 -4 -10 -20 -50 1 -6
-8 -3 -7 -11 -17 -49 0 -7
-10 -4 -7 -12 -18 -53 -7 -8
-11 -15 -7 -11 -21 -54 -6 -7
-2 -2 -8 -2 -8 -40 13 -9
1 -1 -17 -11 -16 -54 -10 -15
2 -7 -17 -14 -18 -55 -10 -14
1 -6 -15 -11 -16 -50 -3 -11
0 0 -15 -12 -16 -51 -5 -14
-9 -13 -16 -21 -30 -67 -25 -13
-18 -10 -4 -10 -16 -47 2 -1
-17 -4 -6 -10 -15 -48 0 -3
-13 -7 -13 -18 -22 -57 -12 -9
-13 -15 -13 -18 -25 -58 -11 -6
-11 -3 -11 -8 -10 -42 10 -6
-4 -2 -18 -19 -19 -55 -13 -13
0 -12 -18 -22 -22 -56 -15 -16
-6 -10 -12 -16 -16 -50 -7 -12
-19 3 -9 -12 -10 -45 -2 -7
-21 -9 -15 -24 -27 -64 -26 -7
-17 -12 -11 -16 -22 -51 -6 -4
-11 -7 -14 -19 -24 -54 -9 -10
-12 -8 -16 -24 -27 -60 -18 -12
-14 -15 -15 -24 -29 -61 -17 -9
-12 -4 -11 -12 -13 -44 5 -7
-7 -2 -20 -23 -23 -57 -18 -13
-2 -8 -21 -20 -23 -56 -16 -10
-5 -5 -18 -15 -19 -50 -6 -8
-3 5 -19 -15 -19 -49 -6 -9
-2 -8 -23 -28 -35 -68 -30 -12
3 -12 -20 -25 -32 -58 -12 -11
2 -5 -21 -27 -32 -57 -14 -12
-13 -5 -20 -26 -32 -58 -19 -9
-24 -15 -17 -19 -29 -56 -15 -5
-22 -4 -14 -6 -12 -39 7 -5
-13 -1 -23 -18 -22 -54 -19 -12
-8 -8 -22 -22 -24 -55 -18 -13
-6 -7 -20 -21 -23 -53 -12 -13
-4 2 -21 -25 -25 -56 -16 -16
-6 -10 -21 -34 -39 -69 -34 -15
-4 -12 -14 -26 -32 -55 -15 -11
0 -7 -21 -30 -35 -58 -17 -15
-6 -8 -20 -28 -35 -60 -21 -12
-17 -17 -20 -26 -36 -60 -19 -9
-19 -2 -16 -14 -19 -41 4 -6
-19 -2 -23 -25 -28 -54 -17 -12
-12 -12 -25 -29 -33 -59 -22 -15
-10 -11 -22 -25 -31 -56 -14 -14
-4 -3 -23 -26 -30 -56 -16 -17
-6 -19 -28 -38 -46 -73 -39 -19
-10 -19 -20 -30 -38 -59 -17 -12
-14 -11 -23 -32 -36 -59 -16 -12
-13 -4 -21 -31 -35 -58 -18 -7
-10 -6 -20 -31 -38 -60 -18 -5
-10 7 -16 -16 -22 -41 5 -4
-3 11 -24 -26 -27 -52 -15 -9
-3 5 -23 -25 -27 -51 -14 -6
-4 5 -20 -22 -25 -48 -8 -6
-2 13 -19 -21 -23 -46 -8 -9
-2 -1 -26 -33 -39 -63 -31 -11
-8 -3 -17 -23 -30 -49 -8 -4
-9 2 -18 -24 -29 -49 -7 -5
-5 3 -21 -27 -32 -55 -15 -6
-2 2 -19 -27 -35 -54 -16 -3
-1 19 -13 -13 -18 -35 8 1
2 23 -21 -25 -26 -49 -14 -5
-3 16 -15 -25 -25 -47 -13 -1
-2 12 -15 -25 -26 -45 -8 -2
3 19 -15 -22 -23 -42 -8 -6
7 10 -21 -29 -39 -60 -31 -10
7 7 -16 -19 -31 -50 -12 -6
5 14 -17 -18 -29 -48 -11 -8
0 13 -22 -21 -33 -54 -18 -8
-5 7 -22 -24 -33 -52 -17 -3
-3 22 -18 -16 -16 -33 8 1
2 27 -26 -28 -24 -46 -13 -4
4 20 -26 -31 -25 -47 -12 -3
8 23 -28 -29 -23 -40 -4 0
17 36 -31 -29 -22 -40 -4 -2
19 31 -35 -38 -35 -55 -25 -3
8 28 -26 -26 -23 -40 -1 6
0 35 -25 -25 -20 -37 1 7
-5 32 -25 -30 -25 -41 -6 7
0 25 -23 -30 -28 -43 -5 9
9 38 -21 -18 -15 -26 17 10
7 40 -28 -29 -23 -39 -6 6
9 30 -30 -32 -30 -44 -11 3
5 25 -30 -29 -31 -43 -6 3
4 29 -33 -26 -30 -41 -6 1
7 16 -37 -35 -45 -58 -28 -1
6 14 -30 -23 -37 -46 -6 5
3 14 -34 -29 -42 -48 -10 0
2 10 -35 -34 -46 -55 -20 -4
6 2 -36 -38 -50 -59 -24 -7
11 16 -27 -27 -33 -43 -2 -6
10 21 -30 -34 -38 -52 -20 -9
0 10 -26 -34 -39 -53 -19 -6
-7 6 -23 -30 -35 -46 -11 -3
-4 15 -23 -26 -31 -42 -8 -4
0 1 -28 -37 -49 -61 -33 -9
2 -5 -22 -28 -44 -49 -13 -6
0 -2 -23 -29 -44 -49 -13 -7
-4 -4 -25 -34 -48 -56 -24 -8
-9 -15 -20 -33 -47 -58 -24 -6
-10 0 -12 -20 -32 -39 0 -3
-2 4 -22 -30 -40 -53 -23 -12
0 -4 -23 -29 -44 -56 -27 -13
-3 -6 -19 -27 -44 -53 -20 -11
-3 3 -19 -27 -41 -49 -17 -10
-3 -5 -22 -37 -56 -63 -38 -9
-6 -8 -15 -31 -53 -54 -22 -6
-9 -7 -18 -33 -53 -56 -24 -12
-5 -11 -22 -37 -58 -64 -36 -15
2 -15 -21 -38 -60 -67 -38 -14
2 -4 -18 -27 -47 -52 -17 -15
-3 -6 -24 -35 -54 -62 -37 -20
-4 -10 -22 -34 -54 -62 -37 -17
-17 -14 -16 -26 -48 -53 -26 -12
-17 -7 -17 -25 -46 -50 -24 -14
-17 -17 -19 -34 -60 -66 -44 -13
-17 -21 -12 -27 -54 -55 -26 -8
-14 -12 -16 -30 -54 -55 -25 -10
-22 -15 -17 -33 -56 -59 -33 -12
-21 -23 -15 -35 -60 -64 -37 -12
-11 -9 -12 -23 -44 -48 -15 -12
-8 -4 -20 -30 -50 -58 -36 -18
-12 -11 -19 -31 -53 -60 -38 -16
-17 -8 -16 -27 -50 -53 -30 -14
-18 -3 -17 -29 -49 -53 -29 -17
-13 -21 -23 -44 -68 -73 -55 -22
-2 -20 -18 -35 -63 -63 -39 -19
-3 -10 -20 -33 -59 -60 -36 -19
-9 -7 -19 -32 -57 -60 -39 -15
-13 -15 -16 -31 -56 -61 -40 -11
-11 -8 -15 -23 -43 -45 -20 -13
-13 -2 -21 -30 -50 -56 -39 -18
-20 -10 -18 -30 -49 -56 -39 -13
-17 -12 -17 -26 -48 -51 -31 -12
-10 -7 -20 -27 -50 -50 -30 -17
-9 -19 -24 -37 -67 -68 -55 -22
-10 -19 -14 -23 -56 -52 -31 -13
-16 -11 -15 -21 -52 -49 -28 -13
-16 -11 -16 -24 -52 -51 -33 -13
-10 -16 -13 -20 -48 -49 -32 -9
-4 -1 -6 -3 -22 -22 -3 -3
5 12 -10 -1 -8 -16 -10 -1
3 14 -4 11 16 5 4 12
2 20 5 24 43 35 31 27
16 35 12 41 75 71 63 47
23 32 12 43 88 87 71 67
32 39 17 60 116 129 118 95
45 59 12 68 139 163 149 117
57 70 2 67 156 193 176 145
63 83 0 70 175 230 214 182
76 112 -5 77 206 280 271 213
90 130 -20 67 216 300 282 233
103 125 -26 66 229 329 308 254
117 115 -44 57 228 354 334 267
130 121 -78 33 214 369 354 280
139 113 -120 -16 169 349 336 287
134 109 -147 -56 122 323 332 280
123 110 -176 -110 56 270 293 255
109 87 -194 -156 -9 204 233 219
88 53 -200 -193 -73 128 170 181
65 44 -201 -208 -111 75 134 141
36 22 -199 -227 -168 -12 46 85
7 -10 -181 -237 -240 -116 -40 27
-12 -25 -156 -228 -289 -190 -94 -16
-27 -31 -131 -198 -275 -192 -107 -38
-32 -49 -113 -181 -267 -198 -131 -49
-30 -61 -91 -150 -238 -174 -112 -52
-32 -58 -73 -120 -207 -152 -102 -55
-32 -59 -58 -97 -181 -139 -100 -55
-31 -63 -46 -81 -158 -125 -95 -50
-18 -41 -28 -48 -116 -86 -57 -40
-3 -32 -25 -39 -102 -82 -66 -42
1 -39 -15 -25 -87 -72 -63 -38
-10 -36 -3 -7 -67 -54 -44 -28
-17 -25 -1 5 -50 -41 -31 -23
-18 -30 -6 -5 -59 -55 -53 -24
-13 -33 -2 -3 -53 -45 -37 -21
-1 -23 -9 -8 -53 -44 -39 -25
10 -12 -9 -10 -52 -43 -43 -25
3 -15 -5 -7 -46 -41 -41 -17
-12 -5 4 12 -23 -16 -11 -11
-20 1 0 9 -24 -21 -26 -13
-10 -4 -1 7 -26 -25 -31 -12
-5 -4 1 10 -23 -21 -25 -13
-11 0 3 13 -17 -16 -17 -13
-19 -14 -3 -2 -34 -35 -43 -17
-16 -15 3 5 -27 -23 -26 -11
-16 -9 2 6 -25 -19 -22 -10
-12 -8 -1 0 -30 -25 -31 -12
-7 -13 1 0 -34 -28 -34 -11
-13 -6 5 14 -17 -8 -9 -8
-16 0 0 12 -20 -14 -25 -11
-15 -7 0 13 -19 -16 -28 -10
-18 -8 1 18 -15 -9 -19 -8
-11 1 0 23 -11 -3 -14 -11
-10 -8 -3 13 -25 -23 -38 -14
-13 -15 2 19 -20 -12 -21 -11
-10 -5 1 19 -18 -8 -16 -12
-14 -6 2 18 -20 -11 -22 -11
-17 -12 4 16 -22 -13 -26 -8
-12 0 8 27 -7 3 -4 -7
-11 3 2 19 -15 -7 -23 -13
-8 -3 6 20 -15 -10 -26 -11
-6 -3 8 22 -12 -4 -18 -10
-9 3 8 26 -6 4 -11 -10
-11 -6 5 16 -20 -12 -32 -9
-9 -11 11 22 -14 -1 -15 -5
-6 -4 8 21 -12 2 -13 -8
0 -4 5 21 -17 -4 -21 -11
3 -12 3 16 -23 -8 -28 -12
2 -1 9 27 -7 10 -3 -9
-6 5 4 23 -10 2 -19 -11
-13 -2 8 27 -7 2 -22 -10
-10 -3 10 32 -4 7 -15 -11
-5 6 10 35 1 11 -12 -14
-3 -7 3 20 -17 -10 -41 -19
4 -11 8 27 -12 -1 -23 -15
10 -1 6 28 -11 3 -19 -15
1 1 7 27 -13 3 -22 -14
-8 -9 8 22 -16 2 -24 -10
-16 0 16 37 3 23 2 -6
-15 7 12 35 1 14 -14 -9
-9 3 11 35 -1 11 -18 -10
-8 9 16 41 5 21 -8 -6
-6 14 14 43 9 27 -3 -8
-1 2 8 28 -7 7 -30 -12
0 0 15 38 0 19 -11 -6
4 5 11 40 2 22 -8 -8
1 3 9 39 1 20 -15 -8
-4 -6 13 42 2 20 -17 -3
-8 3 23 57 20 39 9 -1
-6 12 21 53 20 33 -6 -3
1 14 25 54 22 33 -7 0
1 11 27 58 25 38 -1 -1
7 17 25 59 28 43 3 -5
9 7 19 46 12 26 -21 -9
9 1 26 55 20 36 -5 -5
9 12 26 60 25 45 1 -4
11 13 23 57 24 41 -5 -4
15 8 25 57 23 40 -8 0
8 18 34 73 45 65 22 7
1 25 32 73 45 61 8 6
5 17 34 73 44 58 4 6
6 13 34 75 47 61 10 5
9 21 34 76 53 67 16 2
7 12 31 68 41 52 -6 3
7 6 38 73 46 63 9 7
22 15 33 74 47 65 12 3
29 14 27 72 43 60 2 -3
30 7 30 74 43 58 -2 0
26 19 39 89 63 81 26 5
21 24 36 86 61 77 13 3
8 17 46 93 69 82 16 11
13 16 48 98 74 88 23 10
19 23 44 102 79 92 27 5
13 19 45 99 73 82 10 8
11 14 52 109 82 96 28 16
11 20 49 110 86 100 32 15
15 20 47 109 85 99 27 15
19 12 48 107 81 94 19 17
29 21 55 119 95 111 41 17
33 29 50 116 94 105 27 13
26 19 52 115 95 103 24 13
29 21 56 118 100 110 32 16
29 28 55 119 105 115 39 13
17 17 52 112 93 104 17 12
14 9 59 126 102 117 37 22
27 20 58 129 106 121 42 20
33 25 57 131 105 117 35 17
29 12 56 127 98 112 26 18
27 16 60 134 111 128 48 17
31 26 55 129 107 120 32 11
29 17 56 131 107 117 28 12
29 14 58 134 111 122 34 13
32 24 58 138 115 127 39 9
40 17 53 126 99 109 14 7
38 6 58 130 102 116 29 11
34 10 55 127 103 119 32 10
32 11 54 123 99 116 26 11
28 7 56 122 96 112 20 15
19 12 64 133 110 131 45 18
20 18 57 125 103 120 27 12
24 15 60 125 104 121 25 17
27 11 58 123 103 121 29 15
29 15 58 124 105 127 36 14
26 4 50 111 88 109 12 11
25 -3 52 113 87 115 25 14
32 9 49 114 89 119 30 12
38 12 46 108 83 112 21 8
29 2 45 101 74 102 9 6
18 6 49 107 84 116 31 6
20 16 41 96 74 106 12 0
22 13 45 92 71 103 8 4
19 10 44 90 68 105 15 5
23 15 40 85 66 106 19 1
20 9 34 72 48 88 -5 1
21 3 38 74 48 95 9 6
19 12 36 70 48 101 15 8
12 12 33 65 43 97 10 7
8 1 31 57 32 88 0 7
4 7 34 64 41 102 23 9
4 14 25 52 31 91 6 2
16 9 19 41 20 81 -4 -3
21 8 17 41 19 83 1 -3
15 14 17 44 21 88 7 -4
7 8 10 30 2 70 -17 -6
-5 2 17 37 7 80 0 2
-5 10 16 36 8 84 6 2
2 15 10 27 0 77 -3 -2
0 5 9 19 -8 69 -12 -2
-6 12 15 27 3 84 10 0
-1 20 6 19 -4 75 -6 -6
1 14 5 15 -10 67 -13 -5
3 11 6 16 -9 71 -7 -4
4 14 5 15 -8 76 0 -7
2 5 -3 1 -24 58 -26 -9
5 -2 2 5 -23 64 -13 -6
-3 3 0 7 -20 69 -6 -7
-12 3 -2 3 -24 65 -11 -5
-8 -2 -3 0 -29 60 -18 -3
-3 5 3 10 -17 77 4 -2
-2 11 -6 3 -22 69 -11 -8
-6 3 -5 3 -24 66 -15 -7
-8 3 -4 8 -19 71 -9 -6
-8 13 -3 12 -13 78 0 -7
-9 1 -10 -3 -31 57 -27 -13
-11 -10 -3 0 -29 64 -15 -8
-7 2 -3 1 -26 71 -8 -9
-7 2 -6 -6 -31 67 -15 -10
-9 -8 -7 -12 -39 60 -25 -9
-11 -1 0 1 -22 80 1 -4
-7 10 -7 -3 -24 76 -10 -7
-10 2 -6 -2 -26 71 -15 -6
-13 1 -4 4 -22 78 -6 -4
-9 10 -4 7 -15 85 1 -4
1 4 -13 -9 -34 64 -26 -12
-3 -7 -7 -5 -32 70 -15 -9
3 3 -9 -4 -29 76 -10 -11
7 4 -11 -7 -33 69 -19 -14
-3 -8 -11 -13 -39 63 -29 -15
-10 0 -2 2 -21 83 -4 -12
-11 10 -4 -1 -22 79 -13 -15
-10 2 -2 -4 -24 74 -20 -15
-6 1 0 -1 -22 80 -13 -13
-6 6 0 2 -16 89 -4 -13
-13 2 -1 -8 -27 74 -24 -12
-11 -1 7 -3 -22 84 -8 -5
-8 3 3 -5 -22 87 -4 -9
-7 1 -2 -10 -27 80 -14 -11
-6 -7 -4 -14 -34 75 -23 -11
0 5 2 1 -18 93 1 -8
2 14 -6 -3 -20 87 -13 -15
-2 5 -3 -4 -22 84 -19 -14
-3 3 0 0 -17 90 -10 -10
-8 10 3 9 -7 102 2 -8
-11 2 -4 -2 -20 86 -22 -11
-3 -6 -1 3 -21 92 -10 -7
-1 4 -1 6 -17 98 -3 -7
-3 7 -4 -2 -22 91 -13 -11
-6 -2 -7 -10 -31 84 -24 -14
-9 0 -1 -1 -17 95 -1 -12
0 14 -6 -6 -19 65 -14 -16
10 8 -6 -9 -22 30 -21 -16
-2 3 -3 -7 -18 11 -14 -15
-14 9 2 1 -7 6 0 -10
-14 3 -4 -9 -20 -23 -22 -12
-12 -2 2 -5 -16 -28 -8 -6
-15 6 2 -2 -11 -29 1 -4
-12 4 -4 -6 -18 -46 -10 -9
-5 -4 -6 -9 -24 -61 -21 -10
-5 8 2 4 -8 -46 5 -5
-8 16 -5 -1 -11 -58 -9 -11
-9 7 -5 -3 -14 -65 -16 -10
-7 5 -5 -2 -12 -64 -10 -10
-9 12 -3 1 -6 -60 -1 -9
-13 5 -9 -10 -20 -80 -24 -11
-15 -4 -3 -9 -19 -78 -13 -7
-9 4 -4 -7 -16 -74 -7 -8
-9 6 -5 -7 -18 -78 -13 -9
-7 0 -7 -16 -28 -88 -24 -10
-2 8 -1 -4 -15 -72 -1 -7
-3 15 -7 -7 -15 -75 -12 -11
-8 8 -6 -9 -17 -82 -18 -10
-18 5 -2 -6 -13 -76 -10 -7
-21 9 -2 -3 -9 -71 -4 -10
-22 -1 -8 -16 -25 -90 -29 -15
-20 -12 -4 -14 -25 -87 -18 -11
-16 -8 -7 -16 -23 -83 -12 -13
-12 -5 -11 -22 -28 -92 -21 -17
-11 -13 -13 -30 -38 -101 -33 -19
-6 -2 -6 -16 -24 -83 -9 -15
-8 10 -9 -14 -19 -83 -14 -16
-16 2 -10 -16 -22 -85 -21 -16
-19 1 -8 -13 -19 -79 -13 -14
-17 8 -10 -11 -15 -75 -5 -16
-17 1 -16 -21 -28 -91 -27 -17
-16 -13 -12 -18 -28 -88 -18 -14
-11 -9 -15 -18 -29 -85 -14 -17
-16 -7 -16 -27 -33 -91 -23 -17
-18 -12 -15 -29 -38 -97 -31 -16
-20 -5 -8 -15 -22 -79 -7 -11
-22 6 -10 -17 -21 -80 -14 -12
-25 -6 -12 -21 -26 -87 -23 -13
-23 -6 -12 -17 -23 -82 -16 -12
-18 7 -11 -10 -15 -71 -5 -11
-21 -6 -19 -21 -32 -91 -29 -15
-24 -19 -14 -22 -32 -86 -21 -12
-18 -8 -16 -21 -30 -81 -13 -13
-14 -6 -19 -27 -36 -89 -24 -16
-8 -9 -21 -31 -43 -96 -35 -16
-12 -4 -14 -19 -28 -78 -11 -14
-16 4 -19 -20 -29 -83 -21 -19
-19 -2 -16 -22 -30 -86 -27 -17
-17 -5 -15 -20 -29 -84 -22 -16
-17 -1 -14 -17 -24 -77 -13 -18
-11 -6 -21 -29 -40 -93 -36 -22
-12 -15 -16 -30 -41 -90 -30 -18
-18 -3 -11 -25 -35 -81 -19 -16
-23 -3 -12 -30 -39 -86 -26 -17
-19 -13 -16 -38 -47 -97 -40 -20
-21 -10 -10 -26 -32 -80 -17 -17
-25 -1 -13 -24 -30 -80 -24 -18
-30 -6 -12 -25 -31 -84 -30 -16
-27 -4 -11 -24 -31 -81 -25 -16
-22 3 -12 -23 -27 -74 -18 -19
-14 -2 -20 -33 -42 -91 -39 -23
-12 -15 -17 -33 -42 -88 -33 -21
-12 -8 -19 -34 -40 -83 -28 -23
-8 -7 -21 -40 -43 -88 -37 -25
-13 -15 -22 -45 -51 -97 -49 -26
-18 -9 -13 -33 -36 -78 -23 -21
-18 1 -17 -33 -34 -79 -31 -24
-19 -5 -14 -32 -34 -81 -37 -22
-18 -6 -13 -31 -34 -79 -32 -24
-9 3 -14 -31 -30 -74 -25 -27
-8 0 -20 -42 -45 -89 -46 -29
-17 -8 -10 -33 -40 -77 -30 -18
-21 0 -10 -29 -36 -69 -20 -15
-19 4 -15 -33 -39 -73 -29 -17
-21 -2 -16 -38 -44 -79 -38 -16
-19 5 -9 -28 -30 -62 -14 -15
-18 13 -17 -31 -30 -67 -26 -21
-18 3 -19 -33 -34 -72 -35 -23
-13 3 -17 -26 -30 -67 -29 -21
-12 11 -14 -19 -21 -57 -17 -20
-15 7 -19 -29 -33 -73 -38 -22
-13 -2 -15 -28 -36 -67 -29 -18
-17 3 -14 -26 -31 -60 -20 -18
-11 10 -15 -28 -32 -62 -26 -17
-6 5 -17 -34 -40 -70 -37 -18
-8 7 -14 -24 -28 -55 -17 -18
-7 18 -16 -26 -26 -56 -23 -18
-6 12 -15 -30 -28 -61 -31 -18
-1 5 -18 -33 -32 -62 -30 -21
2 12 -14 -29 -25 -53 -19 -21
-7 3 -15 -34 -33 -65 -36 -19
-17 -9 -6 -27 -30 -58 -27 -12
-17 2 -1 -20 -23 -46 -14 -8
-12 7 -5 -24 -24 -49 -20 -8
-7 1 -10 -30 -32 -58 -30 -7
0 10 -7 -21 -19 -41 -8 -4
8 22 -15 -28 -21 -45 -18 -10
13 14 -17 -31 -25 -52 -28 -13
5 12 -15 -27 -21 -44 -19 -8
-1 21 -13 -20 -10 -32 -4 -3
-2 14 -20 -31 -23 -46 -25 -5
-2 3 -17 -28 -26 -44 -17 0
-2 12 -19 -27 -22 -36 -8 0
-3 15 -18 -29 -22 -38 -13 1
1 11 -17 -33 -29 -44 -21 3
0 20 -9 -21 -16 -27 2 7
2 28 -16 -29 -19 -32 -8 2
1 15 -19 -35 -28 -42 -20 -3
1 11 -16 -31 -27 -40 -16 -4
6 16 -15 -27 -22 -34 -8 -7
15 14 -20 -41 -36 -53 -31 -12
9 -2 -14 -41 -37 -52 -25 -8
1 -3 -14 -44 -37 -47 -19 -10
-9 2 -12 -44 -35 -45 -21 -6
-10 -8 -13 -45 -41 -51 -29 -5
-5 -6 -12 -28 -30 -37 -9 -6
4 4 -21 -24 -28 -39 -16 -12
3 -1 -19 -26 -30 -43 -24 -11
-8 -7 -12 -23 -26 -37 -15 -9
-7 -2 -7 -17 -18 -27 -4 -9
1 -9 -13 -31 -33 -45 -29 -15
2 -17 -9 -31 -36 -45 -25 -13
3 -15 -10 -29 -35 -41 -19 -14
-2 -20 -14 -36 -40 -48 -29 -17
-5 -29 -14 -43 -49 -56 -40 -18
-12 -26 -7 -31 -35 -38 -16 -14
-19 -12 -9 -29 -30 -34 -19 -15
-23 -18 -6 -26 -31 -36 -26 -13
-20 -22 -5 -28 -30 -34 -22 -15
-14 -15 -5 -26 -28 -29 -13 -18
-19 -23 -13 -36 -42 -44 -34 -21
-19 -31 -8 -34 -43 -42 -30 -16
-20 -27 -7 -30 -40 -34 -20 -15
-28 -28 -8 -33 -43 -37 -26 -15
-23 -34 -10 -39 -49 -45 -37 -16
-14 -31 -6 -32 -41 -35 -19 -17
-5 -22 -15 -39 -45 -43 -33 -28
4 -25 -16 -45 -52 -52 -44 -30
-2 -25 -8 -40 -45 -42 -35 -27
-15 -16 0 -28 -32 -26 -16 -20
-26 -21 -4 -35 -41 -38 -33 -21
-26 -34 -1 -36 -45 -38 -30 -18
-27 -27 -1 -32 -41 -31 -21 -20
-26 -26 -6 -37 -46 -37 -30 -25
-25 -36 -10 -44 -54 -48 -44 -27
-25 -29 -3 -31 -41 -29 -22 -22
-24 -17 -6 -33 -37 -28 -27 -25
-18 -19 -6 -35 -43 -35 -38 -24
-10 -17 -5 -30 -41 -31 -32 -25
-8 -12 -6 -23 -33 -24 -21 -26
-9 -19 -11 -36 -47 -41 -43 -31
-12 -29 -5 -35 -48 -37 -36 -25
-17 -24 -3 -32 -44 -28 -25 -24
-19 -22 -6 -36 -47 -32 -32 -25
-12 -32 -9 -44 -55 -42 -46 -27
-4 -33 -9 -37 -48 -32 -32 -32
4 -23 -15 -40 -49 -36 -40 -40
-1 -21 -13 -42 -51 -41 -47 -36
-9 -21 -7 -35 -45 -33 -37 -31
-21 -15 0 -26 -34 -20 -22 -27
-30 -21 -5 -38 -46 -36 -44 -30
-31 -34 1 -38 -49 -37 -41 -26
-28 -32 -2 -36 -47 -30 -31 -28
-17 -25 -6 -34 -49 -33 -37 -29
-11 -29 -6 -29 -49 -36 -44 -25
-6 -22 3 -11 -28 -13 -17 -19
-2 -6 1 -9 -13 -2 -15 -18
3 -5 5 -4 4 11 -11 -10
4 3 16 13 35 42 15 7
6 16 27 39 75 82 55 27
14 19 24 46 90 100 62 46
10 18 31 61 114 135 100 75
20 39 33 75 145 178 143 103
42 53 23 74 160 203 165 125
58 60 16 69 172 231 190 154
71 81 12 78 201 279 247 185
85 107 -5 72 219 311 274 209
104 107 -18 67 230 334 292 229
118 100 -29 67 243 369 326 248
120 98 -50 59 247 400 359 266
134 95 -95 14 213 391 352 278
145 88 -129 -32 169 373 348 280
140 93 -160 -83 113 334 325 265
126 84 -185 -135 48 271 274 235
109 47 -199 -183 -25 191 202 192
93 28 -204 -210 -77 128 160 153
61 15 -208 -232 -129 54 90 103
31 -14 -192 -247 -190 -39 6 50
-1 -32 -166 -251 -255 -130 -65 0
-29 -36 -135 -228 -269 -166 -91 -31
-37 -47 -113 -206 -260 -174 -120 -49
-33 -68 -93 -181 -243 -163 -120 -58
-29 -67 -74 -148 -210 -138 -102 -61
-28 -63 -55 -116 -179 -123 -99 -60
-31 -71 -45 -98 -161 -117 -105 -60
-27 -61 -25 -67 -123 -82 -70 -50
-25 -45 -14 -44 -94 -61 -60 -46
-22 -48 -4 -30 -78 -55 -61 -42
-14 -47 5 -15 -61 -42 -50 -40
-14 -39 11 -2 -43 -25 -32 -37
-12 -36 3 -12 -50 -39 -54 -41
-12 -44 6 -11 -47 -36 -49 -36
-14 -34 6 -8 -38 -26 -37 -34
-13 -26 5 -11 -38 -25 -41 -33
-10 -28 5 -19 -43 -32 -51 -30
-13 -25 14 -9 -28 -14 -27 -24
-18 -12 11 -6 -21 -12 -28 -26
-22 -15 15 -5 -22 -17 -37 -24
-23 -17 19 2 -17 -11 -30 -23
-16 -12 18 11 -9 -2 -16 -24
-15 -17 9 1 -22 -17 -39 -30
-17 -26 13 -1 -21 -16 -35 -25
-11 -17 14 3 -15 -7 -24 -25
-17 -16 12 -3 -19 -13 -31 -26
-14 -19 14 -10 -25 -20 -42 -23
-19 -14 22 2 -12 -3 -18 -16
-22 -4 21 7 -7 0 -19 -19
-15 -13 20 5 -13 -10 -31 -21
-11 -18 20 7 -10 -7 -27 -22
-17 -8 26 21 4 8 -9 -17
-16 -10 20 9 -8 -6 -30 -21
-6 -24 19 0 -17 -14 -34 -24
-3 -20 16 1 -14 -7 -25 -27
-12 -16 16 2 -14 -7 -28 -24
-23 -22 17 0 -18 -12 -36 -19
-18 -16 22 8 -7 0 -16 -15
-12 -5 17 6 -5 0 -19 -19
-8 -9 18 4 -10 -7 -30 -20
-7 -10 21 8 -4 -1 -22 -18
-14 -1 24 19 7 10 -7 -14
-21 -1 23 16 1 0 -24 -13
-19 -13 26 16 -2 0 -21 -10
-13 -9 21 15 0 6 -14 -15
-9 -3 20 14 -1 3 -19 -15
-16 -13 19 8 -9 -7 -31 -14
-20 -9 29 22 7 12 -6 -9
-16 1 22 19 7 10 -13 -16
-10 -7 20 15 0 -2 -27 -19
-10 -11 23 18 4 1 -21 -19
-9 -5 25 24 11 10 -10 -21
-5 -6 19 13 -1 -5 -32 -25
-4 -12 24 14 -2 -4 -29 -21
-8 -4 26 19 7 9 -11 -15
-14 -5 23 16 6 6 -16 -17
-19 -17 22 12 -1 -1 -26 -16
-19 -11 29 25 12 15 -5 -10
-19 1 26 27 18 17 -5 -12
-18 -5 26 25 13 9 -18 -13
-10 -6 28 28 15 12 -13 -13
-5 0 31 36 25 22 0 -14
-9 -6 25 27 13 8 -22 -16
-10 -16 30 29 12 11 -17 -10
-12 -9 30 36 19 21 -3 -9
-4 -3 24 32 14 13 -13 -14
0 -10 21 24 5 3 -26 -17
-4 -11 29 36 18 19 -5 -14
-6 2 28 38 25 23 -7 -16
-6 1 33 43 28 22 -11 -11
-2 1 36 48 34 27 -3 -8
8 11 37 56 44 37 10 -7
4 5 30 44 31 20 -13 -13
7 -8 32 39 24 13 -16 -13
4 -2 34 43 33 26 -1 -10
-10 1 37 46 36 28 -2 -6
-7 -4 36 42 29 21 -13 -6
-5 -3 43 58 42 36 8 -2
-1 9 38 67 49 40 7 -7
-2 3 39 70 49 35 -3 -6
-6 0 44 76 56 44 9 -1
-5 7 48 85 68 55 22 2
0 3 40 74 57 40 2 -3
5 -7 41 71 51 36 1 -2
19 3 41 75 58 45 13 -3
23 5 38 69 57 41 5 -6
15 -3 38 68 52 34 -5 -5
9 -1 49 82 68 53 19 3
2 14 51 91 78 62 24 4
2 12 52 94 79 57 14 5
8 8 55 99 84 62 22 6
8 13 58 103 93 70 33 5
13 10 51 95 83 54 11 -1
15 -5 54 97 82 56 14 3
18 6 56 106 90 67 29 7
20 15 57 107 90 68 27 8
16 5 57 104 85 59 15 8
19 8 65 113 98 73 34 10
33 22 60 115 102 73 31 3
36 19 58 110 97 65 19 2
36 17 62 116 104 72 28 6
25 21 65 130 116 86 45 10
22 18 58 125 109 73 26 6
22 3 62 125 104 72 25 8
24 7 61 128 109 77 36 6
26 16 59 125 106 75 30 5
22 8 59 121 100 67 19 6
22 7 65 129 110 79 36 9
28 22 62 130 115 79 37 5
33 15 60 125 107 69 23 2
37 12 62 127 109 70 27 2
37 17 65 133 117 81 39 1
34 12 59 124 107 67 20 -3
33 2 66 129 107 69 24 6
27 9 69 135 115 80 41 8
27 9 65 130 109 75 32 4
26 5 64 126 102 65 21 5
30 10 68 134 111 79 39 8
42 27 62 132 112 77 35 2
49 18 61 124 103 63 18 -3
50 10 61 122 101 61 21 -6
48 16 64 126 107 69 31 -6
41 15 59 116 99 59 15 -7
27 1 62 114 93 55 15 -1
27 9 64 119 98 67 31 3
30 15 61 115 93 63 24 2
27 6 55 107 83 53 11 1
31 9 58 116 91 63 28 2
34 21 54 108 91 60 25 -5
32 16 50 94 79 47 8 -9
28 10 50 94 78 49 13 -7
23 11 48 95 80 53 24 -7
18 12 42 81 66 39 4 -10
20 4 44 77 59 36 4 -6
22 13 42 76 59 43 16 -6
17 16 38 66 51 35 8 -9
20 10 31 50 36 21 -9 -12
26 14 36 53 42 30 9 -9
29 28 31 49 42 31 8 -14
20 19 28 40 32 18 -8 -15
18 14 31 41 32 19 -2 -13
23 20 30 43 34 27 8 -14
24 19 21 30 22 11 -12 -17
12 6 24 24 15 7 -13 -12
1 13 28 29 22 19 5 -4
3 15 21 22 14 11 -3 -9
7 9 14 14 1 -2 -16 -12
14 9 17 17 6 8 0 -11
25 23 10 13 6 7 -2 -18
29 18 9 6 -4 -6 -20 -23
30 15 9 1 -8 -10 -19 -27
24 23 14 7 0 1 -6 -23
18 25 8 -2 -7 -7 -21 -21
14 13 11 -3 -12 -10 -20 -16
-1 15 16 5 -3 4 -1 -10
-10 17 12 1 -7 0 -7 -11
-5 13 5 -7 -16 -11 -20 -15
-1 13 8 -2 -9 -2 -5 -13
3 22 5 -1 -5 0 -5 -17
7 15 0 -8 -14 -13 -21 -22
8 11 1 -8 -13 -11 -18 -23
11 18 3 -3 -7 -4 -7 -24
14 20 -2 -13 -16 -15 -24 -26
-1 5 2 -15 -20 -16 -23 -19
-3 15 7 -10 -12 -3 -6 -11
2 18 3 -17 -18 -11 -14 -14
11 13 -1 -25 -27 -22 -29 -18
11 13 4 -16 -18 -11 -10 -14
5 25 2 -13 -11 -6 -7 -17
3 20 1 -15 -15 -14 -19 -19
5 17 3 -13 -12 -10 -13 -17
7 22 6 -7 -4 -1 -2 -16
13 18 -3 -18 -17 -17 -23 -24
16 2 -5 -24 -27 -25 -30 -26
21 12 -4 -19 -20 -16 -16 -25
22 17 -5 -23 -23 -21 -22 -26
8 9 -3 -30 -29 -30 -33 -25
-6 9 8 -20 -16 -14 -12 -16
-1 21 3 -22 -12 -12 -11 -22
4 18 -2 -28 -20 -26 -30 -26
4 14 2 -23 -14 -20 -22 -23
2 12 1 -13 -6 -11 -10 -24
-1 13 -7 -19 -15 -21 -25 -25
-3 3 -3 -18 -18 -22 -26 -19
2 10 -4 -13 -13 -11 -11 -17
11 17 -7 -13 -16 -14 -17 -21
9 13 -6 -17 -20 -20 -28 -19
11 16 0 -9 -12 -9 -10 -16
12 31 -3 -6 -8 -4 -8 -19
4 22 -4 -12 -11 -14 -22 -20
7 16 -3 -7 -8 -11 -18 -20
6 22 0 -2 1 -3 -5 -19
5 21 -7 -13 -9 -15 -24 -23
-2 7 -2 -13 -12 -17 -25 -18
-7 13 2 -6 -5 -5 -7 -17
0 19 -2 -12 -9 -12 -15 -18
1 16 -4 -19 -16 -20 -26 -19
4 13 -1 -11 -8 -9 -10 -17
9 27 -3 -11 -3 -7 -8 -23
8 22 -4 -17 -10 -18 -25 -25
5 18 -1 -15 -9 -17 -21 -25
8 23 2 -4 -1 -7 -9 -24
1 21 -1 -10 -8 -17 -24 -26
-6 5 2 -15 -13 -21 -29 -23
-5 11 5 -9 -6 -9 -12 -22
0 18 4 -12 -7 -11 -17 -23
6 17 2 -19 -15 -21 -29 -22
2 15 7 -11 -5 -8 -10 -19
-1 27 3 -9 1 -3 -6 -21
0 21 -2 -13 -5 -14 -20 -20
1 18 -1 -10 -3 -10 -14 -17
1 20 1 -7 2 -3 -3 -18
8 22 -5 -15 -7 -14 -20 -23
20 11 -5 -18 -15 -22 -27 -20
18 17 -5 -13 -9 -12 -15 -20
12 20 -5 -15 -11 -15 -20 -23
2 13 -6 -23 -17 -24 -33 -24
0 16 3 -13 -6 -11 -14 -18
0 31 1 -11 0 -6 -9 -21
5 26 -1 -18 -9 -17 -23 -23
5 23 0 -15 -6 -12 -16 -21
4 27 0 -11 -1 -6 -7 -22
4 28 -3 -19 -8 -16 -21 -23
-3 13 0 -23 -14 -20 -25 -18
-5 15 1 -18 -10 -11 -11 -17
-2 22 -1 -18 -10 -13 -15 -17
3 18 -5 -22 -16 -21 -26 -17
3 14 -2 -16 -9 -12 -13 -17
13 27 -9 -16 -6 -11 -10 -26
13 23 -14 -19 -13 -23 -28 -29
5 20 -9 -14 -11 -18 -23 -26
-2 24 -4 -7 -1 -8 -8 -22
-6 23 -9 -16 -9 -16 -20 -21
-5 12 -8 -20 -16 -21 -24 -17
-12 16 -5 -13 -8 -10 -8 -15
-8 22 -8 -13 -11 -13 -13 -15
-9 16 -11 -18 -17 -21 -24 -16
-9 12 -7 -11 -9 -11 -9 -15
-1 26 -9 -9 -4 -8 -6 -21
4 21 -11 -17 -13 -21 -24 -24
-3 14 -8 -16 -12 -19 -20 -24
-3 19 -4 -10 -6 -10 -8 -23
6 22 -11 -19 -16 -23 -24 -27
3 9 -10 -22 -23 -29 -30 -24
0 13 -10 -18 -19 -20 -16 -25
0 14 -14 -23 -24 -26 -24 -28
-1 10 -16 -28 -30 -36 -37 -30
-5 10 -11 -22 -21 -23 -19 -25
-7 24 -10 -16 -11 -15 -12 -25
-7 18 -12 -22 -17 -26 -27 -26
-9 13 -10 -18 -14 -22 -20 -23
-12 19 -8 -13 -9 -14 -9 -23
-7 19 -15 -21 -18 -24 -23 -26
-5 1 -18 -29 -30 -35 -35 -30
0 8 -17 -25 -26 -26 -21 -29
2 13 -20 -27 -28 -29 -25 -29
-4 8 -22 -33 -34 -38 -36 -29
-14 6 -15 -24 -25 -27 -18 -24
-11 21 -15 -19 -17 -20 -12 -26
-7 19 -16 -24 -22 -29 -29 -27
-1 15 -15 -22 -21 -27 -24 -27
0 17 -16 -18 -16 -21 -14 -28
-2 16 -21 -25 -24 -31 -28 -29
-7 0 -18 -28 -31 -37 -34 -26
-7 6 -17 -24 -27 -29 -20 -26
-8 12 -20 -26 -31 -33 -27 -31
-7 4 -23 -31 -39 -41 -40 -34
-8 4 -18 -25 -31 -32 -24 -31
-9 17 -18 -20 -24 -25 -17 -31
-9 12 -22 -32 -32 -38 -37 -35
-4 8 -20 -31 -30 -36 -33 -35
-5 12 -17 -26 -23 -27 -20 -34
-8 13 -21 -32 -30 -37 -32 -35
-6 3 -19 -38 -37 -43 -38 -30
-11 9 -15 -30 -28 -29 -18 -25
-19 13 -15 -30 -28 -29 -20 -22
-8 13 -21 -35 -35 -38 -32 -24
-7 15 -14 -24 -25 -26 -17 -20
-5 26 -17 -19 -16 -21 -9 -24
-2 22 -23 -24 -22 -31 -27 -26
3 23 -18 -17 -16 -26 -20 -23
-1 25 -12 -9 -8 -15 -6 -21
-5 24 -19 -20 -19 -30 -24 -27
-7 12 -19 -23 -27 -36 -31 -23
-10 19 -17 -14 -19 -21 -11 -20
-9 21 -21 -18 -23 -26 -17 -22
2 20 -27 -29 -34 -38 -33 -26
-1 22 -21 -23 -26 -27 -17 -20
-4 39 -18 -16 -14 -16 -6 -19
-3 35 -18 -22 -19 -26 -22 -19
-1 30 -17 -23 -19 -27 -21 -23
1 37 -11 -15 -10 -16 -7 -21
1 37 -16 -19 -16 -25 -21 -22
2 21 -22 -26 -28 -35 -32 -22
6 28 -21 -20 -22 -22 -15 -19
5 34 -24 -25 -23 -22 -16 -17
0 33 -25 -30 -25 -26 -23 -14
0 39 -20 -23 -16 -13 -5 -7
-1 50 -20 -16 -4 -2 6 -7
-1 49 -24 -22 -10 -12 -10 -8
6 48 -26 -21 -10 -9 -6 -9
8 52 -25 -19 -6 -3 3 -10
13 53 -32 -29 -14 -15 -13 -13
8 37 -33 -35 -22 -22 -20 -9
2 36 -30 -29 -15 -13 -4 -6
4 44 -32 -36 -20 -18 -11 -9
7 43 -36 -43 -29 -31 -24 -12
13 45 -33 -34 -23 -22 -9 -10
14 55 -38 -27 -16 -15 -3 -12
9 48 -40 -33 -24 -25 -19 -15
2 44 -34 -26 -20 -22 -13 -11
0 44 -32 -23 -15 -16 -3 -12
5 43 -42 -32 -26 -29 -22 -19
3 31 -39 -38 -34 -36 -28 -14
3 32 -36 -33 -28 -25 -12 -11
6 35 -37 -38 -30 -27 -17 -14
5 30 -37 -41 -36 -35 -29 -15
-3 22 -32 -35 -31 -30 -17 -14
-2 34 -32 -30 -22 -20 -8 -16
-1 32 -34 -36 -26 -29 -23 -17
0 25 -29 -31 -21 -26 -18 -16
0 26 -27 -26 -15 -18 -8 -20
1 21 -34 -35 -26 -31 -27 -29
9 7 -37 -43 -39 -43 -38 -31
13 9 -39 -41 -38 -39 -26 -31
9 13 -41 -49 -43 -43 -33 -33
6 8 -39 -51 -48 -49 -42 -33
-17 1 -28 -40 -36 -36 -23 -26
-24 12 -25 -31 -24 -26 -14 -26
-15 9 -31 -41 -35 -42 -34 -33
-8 8 -31 -37 -32 -38 -29 -30
-9 16 -29 -28 -25 -29 -16 -27
-21 15 -30 -28 -27 -34 -25 -26
-17 3 -31 -34 -37 -45 -36 -26
-8 7 -30 -28 -32 -38 -18 -26
-12 7 -34 -33 -36 -41 -24 -29
-14 4 -36 -39 -43 -50 -35 -29
-10 6 -30 -33 -37 -42 -21 -27
-17 15 -31 -26 -26 -34 -12 -28
-25 7 -33 -31 -32 -45 -28 -29
-26 0 -30 -29 -28 -44 -23 -27
-16 9 -30 -27 -26 -40 -16 -29
-13 12 -36 -33 -32 -47 -30 -32
-15 -5 -38 -39 -44 -57 -42 -32
-12 -1 -34 -35 -38 -47 -25 -31
-7 6 -35 -36 -39 -49 -28 -32
-7 2 -37 -42 -45 -58 -39 -33
-11 0 -33 -37 -38 -51 -25 -29
-9 15 -33 -32 -30 -44 -17 -29
-8 8 -38 -40 -37 -56 -37 -33
-20 2 -33 -35 -31 -50 -28 -27
-23 4 -31 -30 -25 -42 -17 -26
-18 7 -39 -37 -34 -53 -33 -33
-16 -6 -38 -38 -43 -62 -42 -32
-13 0 -35 -33 -37 -49 -24 -30
-10 8 -38 -34 -39 -51 -27 -32
-9 5 -43 -42 -46 -60 -39 -37
-11 4 -35 -35 -40 -51 -25 -32
-17 17 -31 -26 -28 -40 -13 -30
-18 12 -34 -36 -36 -52 -33 -32
-12 9 -32 -33 -35 -51 -29 -31
-8 9 -31 -32 -33 -44 -20 -33
2 10 -40 -41 -42 -56 -37 -38
7 -5 -42 -46 -51 -66 -48 -37
-2 0 -35 -33 -39 -48 -23 -29
-13 7 -32 -26 -30 -38 -18 -21
-18 6 -29 -18 -19 -32 -16 -14
-10 9 -24 -6 1 -12 6 -7
2 30 -20 8 31 14 26 -1
11 36 -19 11 46 23 24 7
23 40 -9 25 73 53 51 25
30 53 2 47 111 96 93 52
38 64 -1 51 129 120 111 71
44 62 -3 53 141 143 129 98
53 77 -4 66 171 189 182 127
59 91 -12 68 191 225 217 157
69 107 -20 67 203 252 241 185
86 123 -26 68 221 289 285 215
102 144 -36 74 247 332 324 234
115 137 -52 63 247 349 333 250
133 128 -79 44 237 365 355 263
147 133 -116 12 217 377 376 278
146 137 -156 -36 170 352 356 273
132 118 -186 -98 98 294 310 257
118 107 -205 -136 42 249 282 231
103 87 -216 -177 -21 175 221 189
80 63 -228 -220 -87 92 146 147
52 39 -222 -237 -137 24 90 101
25 29 -207 -239 -187 -56 24 43
-1 9 -189 -251 -260 -168 -74 -13
-13 -6 -160 -229 -271 -199 -102 -41
-25 -16 -132 -191 -241 -181 -93 -52
-32 -21 -118 -167 -222 -172 -102 -61
-32 -43 -103 -147 -207 -167 -110 -64
-41 -45 -77 -109 -170 -134 -81 -62
-34 -37 -64 -88 -143 -117 -74 -59
-15 -34 -60 -78 -127 -111 -76 -57
-6 -33 -44 -49 -100 -86 -53 -46
-6 -17 -33 -23 -67 -60 -32 -43
-10 -18 -28 -17 -60 -63 -44 -42
-17 -20 -20 -5 -46 -52 -33 -37
-18 -11 -16 5 -30 -38 -18 -33
-11 -2 -21 1 -29 -40 -29 -34
-10 -12 -20 -4 -34 -45 -37 -31
-7 -2 -17 2 -24 -30 -16 -26
-6 6 -19 -2 -23 -29 -18 -25
-4 1 -21 -10 -28 -37 -30 -27
1 -2 -17 -8 -26 -35 -21 -30
-3 14 -17 0 -13 -23 -10 -32
-4 13 -20 -5 -17 -33 -27 -32
-9 9 -15 3 -10 -23 -17 -25
-12 13 -13 12 -2 -13 -4 -23
-14 14 -16 9 -4 -19 -14 -23
-10 2 -16 4 -14 -29 -25 -22
-5 5 -13 11 -8 -14 -4 -18
-2 11 -17 6 -13 -18 -10 -20
1 9 -19 2 -19 -27 -23 -21
-6 4 -13 5 -13 -20 -10 -18
-11 11 -11 14 1 -7 3 -18
-7 8 -18 8 -8 -25 -22 -26
-5 4 -18 12 -6 -22 -19 -25
-1 9 -16 18 0 -16 -8 -24
2 16 -18 17 0 -17 -15 -22
-12 3 -14 11 -9 -24 -24 -16
-18 6 -8 21 2 -7 2 -10
-17 14 -11 18 1 -9 -2 -12
-15 10 -12 15 -5 -18 -15 -13
-13 5 -8 20 -1 -13 -4 -13
-10 18 -10 29 9 -4 7 -16
-9 14 -15 25 2 -18 -13 -20
-16 5 -12 29 4 -15 -9 -20
-9 10 -13 32 8 -9 -1 -21
3 17 -18 27 3 -14 -10 -23
3 1 -19 17 -9 -26 -23 -22
7 4 -17 18 -3 -12 -2 -17
12 13 -20 3 -3 -13 -3 -17
0 9 -18 -10 -4 -19 -9 -13
-8 5 -9 -9 3 -11 4 -9
-2 17 -9 -5 13 0 16 -13
-9 12 -10 -13 8 -12 -2 -14
-17 10 -3 -10 14 -5 5 -8
-23 14 1 -3 21 2 16 -7
-17 19 -3 -9 18 -3 6 -8
-9 7 -6 -19 5 -17 -9 -10
-6 8 -5 -13 13 -5 9 -10
-7 11 -7 -17 13 -7 6 -11
-7 10 -10 -24 7 -17 -3 -9
-4 6 -6 -20 10 -12 6 -7
-3 19 -8 -16 20 -2 18 -11
2 13 -13 -23 13 -14 -2 -14
0 9 -8 -18 19 -12 3 -12
-4 12 -3 -11 29 1 17 -8
1 18 -7 -13 28 -2 7 -10
7 3 -11 -24 14 -16 -9 -12
6 9 -6 -16 23 -1 13 -7
0 11 -9 -20 21 -4 9 -8
-2 11 -7 -22 20 -8 2 -4
0 11 0 -17 26 1 15 1
1 25 2 -7 40 14 29 -1
-1 22 1 -12 36 4 11 -3
-3 15 4 -10 40 5 14 -2
-2 19 7 -3 48 14 25 -2
3 23 1 -7 44 8 13 -6
8 8 -3 -17 31 -6 -4 -8
4 9 5 -9 38 8 16 -5
-3 12 5 -11 38 8 14 -5
-5 12 5 -17 34 1 5 -6
-2 8 14 -12 42 11 19 0
4 23 14 -2 55 24 33 0
3 22 9 -2 53 14 17 0
2 14 12 5 57 18 23 1
-1 16 19 13 68 29 35 4
0 18 15 11 68 26 28 3
0 3 12 2 56 15 14 3
0 8 19 14 66 30 37 8
11 17 14 15 64 28 34 6
10 13 12 13 61 21 23 4
7 6 21 19 66 27 32 6
4 21 27 31 82 44 52 9
0 23 29 29 83 38 37 10
4 17 34 37 89 45 44 12
-1 13 33 43 95 53 53 11
-1 18 28 44 95 49 43 7
5 9 30 43 89 41 34 11
5 10 34 51 101 59 56 17
14 15 31 49 98 56 52 15
18 10 27 41 91 45 39 11
19 6 33 46 94 50 48 13
9 19 41 63 114 68 69 19
1 12 39 58 111 58 50 19
11 11 39 57 110 58 51 17
17 17 42 64 116 67 62 19
16 20 38 61 114 63 52 17
17 6 38 55 103 52 39 17
19 8 41 63 111 66 60 19
14 12 40 62 110 66 58 20
6 8 42 60 106 60 50 20
5 4 47 66 110 65 58 23
10 21 50 75 122 80 73 22
17 16 45 67 115 65 50 17
23 12 48 71 117 65 52 16
28 18 49 74 122 75 62 18
25 21 46 73 119 70 56 18
16 3 47 67 110 60 43 22
14 6 54 78 120 77 67 29
17 9 51 72 115 73 61 25
25 7 47 63 107 60 46 19
39 6 46 62 104 59 49 16
40 18 45 70 115 70 62 13
24 18 46 65 111 60 45 16
11 8 51 70 115 64 51 21
9 10 53 75 118 71 62 22
9 17 49 72 116 66 56 20
6 1 47 62 101 54 40 20
4 1 52 66 106 67 61 24
7 7 48 60 99 61 58 22
8 7 41 52 90 49 45 20
8 6 45 56 93 56 55 26
10 15 42 61 99 64 67 23
10 10 34 46 83 43 40 15
9 3 33 43 80 40 40 13
6 3 33 42 80 44 47 13
9 7 26 32 71 34 36 10
12 -5 23 21 55 18 19 10
6 0 28 26 62 34 41 17
7 10 23 19 55 29 38 17
5 4 19 8 43 17 22 12
5 -1 22 6 38 19 30 14
12 15 23 11 47 31 47 15
3 15 19 4 37 16 26 14
-6 10 21 5 36 17 27 15
-4 9 19 9 38 21 35 15
-1 12 11 0 30 13 23 10
2 -3 6 -17 12 -3 4 8
4 -3 6 -18 11 4 21 8
-4 1 2 -24 5 0 18 7
-7 4 3 -27 0 -6 10 8
-16 1 10 -21 3 1 21 15
-16 17 12 -12 15 14 38 16
-10 14 5 -23 3 -3 14 9
-9 1 3 -25 0 -6 11 5
-9 5 7 -21 4 2 22 7
-18 10 3 -23 2 -1 18 8
-22 -5 1 -35 -12 -16 2 9
-17 1 5 -28 -4 -2 24 13
-11 5 0 -34 -12 -10 16 8
-4 2 -6 -43 -23 -21 2 2
-6 -7 -3 -40 -22 -17 7 6
-5 8 -2 -29 -11 -6 21 4
-2 8 -5 -38 -20 -20 0 -1
-12 0 -2 -35 -16 -16 5 3
-23 0 6 -29 -8 -5 18 8
-19 11 3 -30 -9 -7 12 7
-19 -2 2 -40 -23 -21 -4 8
-16 1 5 -39 -17 -12 13 9
-11 5 1 -43 -21 -18 8 4
-15 2 -1 -48 -25 -23 -2 4
-18 -5 4 -44 -24 -20 6 7
-23 3 2 -32 -12 -5 20 5
-18 3 -4 -35 -19 -18 -1 1
-15 0 -1 -34 -17 -15 2 2
-7 3 1 -32 -13 -9 11 4
-3 10 -5 -36 -18 -14 3 -1
-11 -8 -7 -46 -28 -26 -13 0
-21 -8 1 -36 -20 -11 9 6
-17 2 0 -35 -19 -11 9 7
-9 2 -3 -36 -23 -18 -2 6
-7 -5 0 -33 -22 -16 5 7
-13 6 6 -24 -10 -1 22 7
-20 1 2 -31 -18 -15 0 3
-19 -5 4 -30 -16 -12 2 4
-18 -6 4 -27 -12 -7 10 4
-13 2 -1 -30 -15 -11 0 -1
-14 -11 2 -37 -23 -21 -14 1
-15 -13 6 -31 -18 -10 6 5
-16 -5 6 -33 -18 -10 5 5
-14 -4 6 -35 -20 -14 0 8
-15 -8 10 -28 -19 -9 9 13
-21 10 13 -13 -4 6 27 15
-23 9 6 -23 -13 -9 3 9
-17 0 8 -22 -13 -8 4 10
-16 -2 11 -18 -7 0 13 10
-13 2 6 -22 -11 -2 6 8
-10 -7 4 -26 -21 -13 -8 10
-9 -3 8 -18 -12 0 12 12
-4 2 4 -22 -17 -6 4 6
-7 -2 2 -24 -21 -12 -5 3
-18 -7 9 -17 -14 -4 5 10
-16 9 13 -7 -2 10 21 13
-15 10 8 -15 -8 -4 0 9
-28 2 12 -12 -6 -3 3 12
-19 4 11 -10 -4 1 9 11
-5 8 5 -16 -10 -4 2 8
-4 -6 1 -26 -23 -17 -14 9
-12 -5 8 -14 -14 -1 10 15
-9 2 6 -14 -14 -2 8 15
-12 1 8 -12 -14 -3 3 17
-13 -1 13 -8 -10 3 11 22
-16 11 16 1 4 16 29 22
-15 8 11 -7 -5 0 5 18
-17 -1 12 -5 -5 1 6 20
-13 0 9 -3 -4 4 10 16
-7 7 4 -4 -7 1 2 12
-11 -10 -1 -18 -23 -15 -17 10
-12 -7 5 -8 -14 -2 6 16
-7 7 6 -7 -12 0 6 17
-12 2 4 -10 -16 -7 -3 16
-7 -1 6 -8 -16 -4 2 17
-4 14 10 3 -2 12 20 18
-7 11 7 -5 -11 -3 -2 14
-11 3 6 -5 -12 -3 -1 15
-8 4 4 -5 -11 -1 5 13
-6 10 1 -7 -13 -3 -1 10
-5 -4 -2 -16 -26 -16 -19 10
-10 -5 5 -5 -16 -2 4 17
-4 1 2 -6 -18 -3 2 15
-6 0 2 -11 -20 -7 -6 16
-17 -3 11 -5 -16 -2 3 23
-16 12 14 4 -4 11 18 22
-8 12 8 -7 -13 -4 -4 17
-10 7 9 -5 -13 -4 -3 17
-13 5 9 1 -9 4 7 13
-9 7 3 -1 -11 -1 -1 3
0 -2 -2 -15 -27 -17 -21 -1
1 -4 4 -7 -21 -5 0 3
-4 -4 3 -5 -22 -6 -2 0
-10 -6 4 -6 -24 -9 -9 0
-7 -9 8 -6 -22 -5 -3 2
-9 7 10 5 -8 9 14 3
-10 5 4 -3 -16 -6 -8 -4
-9 -2 5 -3 -16 -7 -8 -6
-4 3 4 2 -13 -2 0 -6
-5 10 -1 5 -15 -4 -4 -7
0 -3 -4 -7 -29 -19 -24 -8
-2 -2 3 -3 -21 -5 -2 -4
-11 2 2 -2 -23 -6 -3 -4
-13 0 1 -7 -26 -12 -12 -5
-16 -7 6 -5 -25 -10 -6 -3
-15 5 6 2 -16 1 9 -5
-15 2 -1 -8 -23 -13 -12 -9
-10 -4 3 -6 -21 -14 -11 -6
-10 -1 6 -2 -17 -9 -3 -6
-2 6 0 -6 -20 -10 -7 -10
3 -6 -6 -20 -36 -28 -30 -15
3 -5 -1 -14 -30 -16 -11 -13
4 2 -1 -16 -30 -17 -11 -15
-2 -2 -1 -18 -31 -22 -18 -13
-14 -9 5 -16 -28 -20 -13 -8
-23 1 9 -7 -15 -5 4 -6
-19 3 3 -16 -25 -20 -18 -10
-5 2 3 -17 -26 -21 -16 -9
-6 1 4 -14 -22 -14 -8 -8
-12 5 0 -15 -22 -13 -9 -10
-17 -9 -2 -23 -32 -27 -25 -9
-14 -5 4 -12 -23 -12 -5 -4
-6 7 4 -13 -23 -13 -5 -4
-9 6 3 -18 -26 -19 -12 -5
-9 1 9 -14 -24 -17 -9 -1
-4 14 12 -5 -12 -3 8 -3
-1 15 6 -16 -20 -17 -14 -7
-2 8 8 -16 -19 -17 -12 -5
-11 7 10 -10 -14 -11 -4 -2
-16 13 6 -11 -14 -11 -7 -3
-7 4 0 -22 -30 -28 -28 -3
-5 6 6 -12 -21 -14 -6 2
-6 13 6 -12 -21 -12 -5 3
-9 12 5 -18 -23 -17 -13 2
-11 1 8 -20 -26 -18 -12 2
-6 15 9 -12 -13 -5 4 -1
-1 13 0 -18 -22 -21 -19 -9
4 8 2 -15 -21 -22 -19 -7
2 14 6 -10 -15 -12 -8 -2
-2 24 2 -9 -13 -12 -7 1
-14 12 0 -18 -21 -23 -21 7
-8 15 6 -13 -12 -8 1 13
-8 26 4 -12 -11 -4 4 15
-7 26 1 -14 -13 -9 -4 16
1 24 1 -18 -14 -8 -1 17
4 41 1 -12 -4 5 17 16
5 43 -4 -21 -12 -8 -4 12
6 33 -4 -19 -13 -9 -5 10
11 28 -6 -14 -11 -4 1 8
8 32 -10 -12 -10 -5 -1 8
1 18 -12 -23 -23 -20 -20 10
5 21 -8 -18 -19 -11 -2 13
6 30 -9 -19 -21 -11 -2 14
3 29 -9 -24 -24 -17 -10 14
6 23 -6 -25 -26 -16 -8 16
2 32 -2 -11 -13 -2 11 16
1 31 -9 -17 -21 -15 -10 11
6 24 -8 -17 -23 -17 -11 11
5 20 -7 -16 -21 -14 -5 10
2 24 -9 -19 -21 -15 -7 10
0 7 -13 -30 -37 -33 -30 6
-1 0 -7 -24 -31 -22 -12 8
-4 6 -6 -22 -29 -19 -10 9
-4 4 -9 -26 -34 -27 -21 5
-2 -6 -6 -27 -37 -29 -21 3
-2 7 0 -16 -23 -13 -1 5
-3 9 -6 -20 -28 -24 -19 3
-4 2 -2 -17 -26 -23 -17 5
-10 -1 1 -15 -24 -18 -9 5
-10 2 -3 -18 -25 -20 -15 2
-13 -13 -7 -30 -40 -38 -34 1
-19 -18 -1 -23 -35 -26 -15 6
-22 -16 -4 -21 -36 -27 -17 3
-23 -18 -10 -22 -41 -35 -28 1
-21 -22 -9 -24 -45 -39 -28 1
-18 -6 -4 -15 -32 -25 -10 2
-13 -8 -9 -21 -40 -38 -31 -3
-7 -12 -6 -22 -39 -39 -31 -3
-1 -8 -5 -21 -36 -33 -23 -3
2 -2 -6 -21 -39 -34 -25 -6
-2 -15 -9 -29 -52 -49 -45 -5
-11 -16 -2 -22 -43 -35 -23 1
-24 -10 -1 -15 -39 -30 -20 5
-31 -15 0 -16 -40 -35 -27 5
-28 -25 -2 -15 -42 -39 -30 2
-23 -13 0 -5 -32 -27 -14 1
-18 -8 -5 -10 -37 -37 -31 -1
-17 -16 -4 -12 -37 -39 -32 -1
-24 -18 -1 -9 -35 -33 -23 1
-27 -11 0 -8 -32 -31 -21 2
-22 -20 -3 -19 -46 -46 -40 2
-20 -22 4 -11 -39 -35 -21 7
-20 -19 0 -14 -41 -36 -23 5
-18 -23 -3 -19 -46 -44 -35 2
-11 -27 -4 -20 -49 -46 -37 2
-7 -12 -1 -11 -37 -32 -19 1
-15 -11 -2 -12 -38 -40 -34 1
-19 -16 1 -10 -37 -39 -32 3
-18 -18 2 -7 -35 -35 -25 5
-16 -13 1 -7 -33 -33 -24 2
-15 -24 -2 -17 -47 -49 -43 1
-12 -23 5 -5 -38 -36 -22 6
-10 -19 1 -8 -40 -37 -25 2
-10 -22 -1 -14 -44 -44 -35 0
-13 -26 3 -13 -43 -44 -32 3
-17 -17 7 -5 -31 -30 -13 3
-18 -16 0 -14 -40 -44 -35 -2
-15 -20 5 -11 -39 -42 -33 2
-10 -24 4 -8 -38 -39 -27 1
-5 -20 3 -7 -33 -34 -26 0
-1 -22 4 -12 -35 -38 -36 6
-1 -15 15 6 -10 -9 -5 19
5 2 18 15 12 11 9 26
2 11 24 24 35 29 19 37
0 13 34 42 63 58 47 59
11 34 48 73 112 111 99 85
20 45 45 77 132 131 108 102
37 49 43 84 153 161 136 127
51 57 37 91 175 196 174 149
61 72 27 87 192 230 206 175
73 79 15 71 193 244 218 201
84 98 8 74 211 288 271 233
92 116 -1 73 230 322 304 257
108 116 -12 73 239 348 324 276
130 106 -36 60 230 365 344 292
136 119 -66 40 226 388 379 309
143 122 -108 -13 178 357 349 302
141 113 -139 -68 115 309 316 286
121 100 -159 -113 57 257 280 260
100 78 -172 -152 -4 190 223 220
87 44 -188 -200 -84 94 136 175
65 20 -184 -214 -130 34 92 134
27 0 -171 -223 -185 -47 23 82
-4 -20 -151 -232 -257 -153 -65 28
-17 -37 -124 -218 -281 -200 -107 -4
-23 -34 -96 -179 -247 -179 -92 -19
-20 -40 -83 -161 -229 -178 -112 -32
-25 -50 -61 -134 -201 -161 -107 -35
-23 -53 -39 -102 -167 -135 -90 -34
-17 -43 -28 -80 -140 -118 -82 -34
-19 -53 -23 -76 -131 -120 -93 -28
-21 -51 -4 -46 -100 -87 -58 -14
-17 -39 8 -27 -77 -68 -43 -8
-8 -38 11 -21 -66 -67 -48 -9
-3 -41 16 -15 -58 -63 -45 -6
-3 -25 21 -1 -35 -41 -21 -3
-4 -16 16 -1 -34 -48 -37 -4
-8 -18 19 2 -23 -41 -33 1
-9 -15 20 1 -18 -33 -23 3
-2 -5 15 1 -14 -30 -21 2
-6 -16 12 -10 -28 -46 -42 1
-10 -20 19 2 -18 -30 -20 6
-4 -7 18 4 -16 -29 -18 7
1 -7 15 -2 -19 -37 -30 3
1 -18 16 -6 -24 -41 -34 0
7 -4 20 6 -8 -24 -12 1
5 1 15 1 -10 -35 -32 -2
-8 -4 23 6 -4 -30 -25 4
-21 -4 26 9 0 -22 -15 7
-17 4 22 5 0 -21 -15 6
-11 -6 20 -8 -15 -37 -37 5
-10 -9 26 1 -10 -26 -16 10
-16 -5 25 2 -10 -25 -15 8
-17 -9 20 -2 -14 -33 -26 4
-13 -20 18 -5 -17 -38 -32 1
-8 -4 24 8 1 -20 -9 3
0 3 19 2 -4 -30 -28 -1
2 -4 20 2 -4 -32 -29 0
0 -2 19 6 1 -24 -18 2
-4 4 18 8 4 -20 -16 2
-2 -9 12 -5 -13 -39 -39 -2
-2 -12 20 3 -7 -26 -20 2
-8 -5 21 5 -5 -23 -16 3
-8 -6 21 5 -8 -29 -25 1
-6 -13 21 4 -7 -30 -26 1
-8 -1 26 18 11 -9 -3 3
-8 2 21 13 9 -19 -20 1
-10 -6 23 13 8 -21 -23 2
-11 -6 25 17 12 -14 -13 5
-5 1 23 15 12 -12 -11 4
-3 -15 18 0 -4 -31 -36 1
9 -14 23 5 0 -21 -17 2
22 -3 21 4 -2 -22 -17 -2
25 1 22 0 -3 -29 -26 -4
9 -7 27 2 -1 -27 -25 -3
-10 0 35 15 18 -6 0 1
-15 3 31 9 15 -17 -17 0
-15 -2 33 10 18 -15 -17 3
-9 0 35 13 21 -8 -7 6
-1 10 34 15 25 -5 -3 8
0 -1 29 6 10 -20 -24 7
0 -4 36 18 18 -6 -4 11
2 1 34 16 17 -6 -4 8
1 0 32 11 13 -15 -14 6
6 -5 31 13 13 -16 -17 5
3 6 38 32 32 5 9 9
-4 8 32 23 27 -4 -11 4
-4 2 35 24 30 -4 -12 5
-5 0 36 27 33 2 -4 6
-4 7 35 27 34 3 -2 5
-1 -2 32 16 20 -12 -22 5
1 -7 37 24 26 2 -3 9
3 -3 34 24 25 2 -3 6
6 -2 33 22 24 -4 -12 4
9 -9 33 23 24 -6 -14 4
7 4 39 36 42 13 10 7
3 3 35 30 37 1 -9 2
0 -5 38 30 41 2 -10 3
-6 -5 43 40 47 12 2 8
-5 2 42 43 50 16 5 7
0 -3 39 34 41 2 -13 8
-1 -5 47 46 50 19 9 15
0 -1 44 47 49 19 8 13
0 1 44 48 51 17 2 14
-1 -4 46 53 53 17 2 16
4 6 50 67 69 35 23 15
17 11 44 59 63 23 3 9
17 5 48 60 66 24 3 11
15 4 51 65 69 31 12 14
19 12 52 72 77 39 20 15
13 1 52 68 67 26 2 18
8 -1 61 80 77 41 23 25
8 5 60 83 78 42 22 23
9 6 61 86 80 40 17 25
8 1 67 86 83 42 18 28
14 13 70 99 100 59 39 27
22 18 63 91 94 47 19 19
25 7 62 90 93 46 17 17
21 2 63 97 97 53 26 18
17 11 67 104 107 63 35 22
16 4 65 96 96 50 17 24
14 -1 73 104 104 64 36 29
18 5 72 104 105 64 36 28
24 5 71 100 100 56 23 23
29 2 75 101 100 54 20 23
19 14 85 120 123 79 50 31
17 15 76 111 116 65 28 24
24 8 75 106 114 61 25 22
33 7 76 111 115 65 32 22
38 13 73 116 119 69 37 20
37 1 70 106 105 54 16 19
28 -2 79 119 115 70 39 29
27 6 81 124 119 73 44 33
18 4 83 123 117 68 36 33
22 -1 82 121 114 64 32 32
31 9 83 132 127 81 52 32
30 10 74 125 120 67 32 25
24 1 76 123 120 64 29 25
18 3 79 126 123 71 38 28
14 8 75 125 123 74 40 25
19 -5 70 112 104 53 15 21
22 -11 76 117 106 62 32 24
24 -4 75 115 104 61 31 22
23 -2 76 108 102 55 22 20
20 -14 75 102 96 49 16 19
17 -8 77 110 108 63 38 19
16 -4 70 102 101 51 20 15
10 -10 68 101 100 48 17 15
10 -11 64 106 100 53 25 16
20 1 60 108 101 55 28 15
20 -7 55 94 81 35 2 11
15 -11 61 95 81 43 19 14
15 -4 57 88 76 40 17 11
11 -5 54 82 71 33 8 9
9 -12 54 75 63 26 4 10
6 -5 56 83 74 41 25 13
3 -3 47 75 65 27 6 8
-1 -11 45 68 60 24 3 9
-1 -11 45 64 57 25 8 10
2 -4 41 63 53 25 9 7
-1 -18 33 46 32 3 -16 3
1 -17 37 49 32 12 0 10
-1 -6 37 47 32 12 1 7
-10 -7 35 40 27 4 -7 6
-8 -15 33 33 19 -2 -13 5
-7 -6 33 38 28 10 6 4
-6 -7 22 26 16 -5 -17 -5
0 -14 19 24 10 -11 -23 -8
-2 -13 18 18 7 -8 -17 -8
-9 -3 17 20 10 -2 -9 -3
-18 -14 14 6 -6 -18 -29 -2
-17 -17 19 9 -6 -10 -12 3
-15 -7 17 8 -9 -9 -9 2
-12 -3 11 6 -12 -16 -18 0
-12 -11 11 4 -16 -21 -22 1
-15 -1 16 17 -1 -1 1 3
-17 2 9 7 -8 -13 -19 -3
-16 -2 10 7 -10 -15 -21 -1
-18 0 13 8 -8 -9 -12 2
-22 3 10 7 -8 -7 -9 -1
-17 -7 4 -9 -27 -30 -35 -6
-14 -11 8 -4 -25 -22 -18 -2
-19 -4 9 -2 -24 -22 -15 -3
-19 1 8 2 -25 -26 -21 -3
-15 -4 8 1 -29 -30 -26 -3
-10 7 10 8 -16 -17 -5 -4
-7 12 4 -2 -21 -27 -23 -9
-10 4 6 -5 -23 -30 -26 -7
-6 1 7 -3 -23 -26 -18 -6
-10 8 5 -1 -20 -21 -12 -5
-13 -2 -3 -13 -36 -39 -36 -8
-20 -11 3 0 -30 -28 -18 -4
-17 -9 -2 -1 -33 -29 -20 -10
-15 -7 -2 -1 -33 -34 -26 -10
-13 -9 3 2 -32 -35 -29 -6
-16 1 8 11 -17 -18 -6 -2
-12 8 3 4 -21 -28 -21 -6
-14 -1 4 4 -22 -31 -25 -6
-14 -2 6 8 -19 -25 -17 -5
-13 6 5 10 -16 -20 -10 -5
-13 -7 0 -4 -32 -39 -35 -11
-15 -11 7 1 -30 -31 -20 -6
-18 -6 5 0 -31 -29 -18 -8
-18 -6 5 -4 -35 -36 -28 -11
-21 -16 7 -6 -37 -42 -33 -12
-22 -8 10 5 -23 -25 -11 -9
-22 0 3 1 -26 -33 -27 -13
-18 -4 5 4 -23 -34 -28 -11
-20 -8 7 7 -20 -28 -20 -11
-23 -1 8 10 -16 -22 -12 -10
-23 -7 4 0 -30 -38 -32 -9
-20 -10 10 6 -26 -30 -17 -4
-16 0 10 8 -25 -28 -13 -6
-16 -1 7 3 -28 -35 -23 -8
-20 -11 9 -1 -33 -40 -29 -7
-19 -4 13 9 -19 -25 -8 -7
-17 0 5 3 -25 -34 -26 -13
-14 -3 5 3 -23 -36 -28 -11
-16 -3 7 7 -19 -30 -19 -9
-17 7 6 9 -16 -27 -12 -11
-14 -2 0 -2 -30 -42 -34 -12
-10 -11 4 2 -29 -35 -20 -10
-13 -7 6 0 -30 -34 -19 -13
-21 -5 7 -3 -31 -37 -25 -13
-19 -9 8 -6 -33 -40 -32 -13
-15 -1 9 4 -21 -27 -13 -14
-12 5 -1 1 -26 -36 -29 -19
-1 2 -7 2 -26 -39 -32 -17
2 4 -7 7 -22 -33 -24 -17
-10 9 -2 13 -15 -23 -13 -13
-11 -2 -7 0 -30 -41 -35 -14
-18 -9 -2 6 -26 -30 -17 -6
-35 -4 -1 11 -22 -24 -12 -4
-28 0 -2 11 -21 -28 -20 -5
-19 -7 -4 8 -27 -35 -30 -8
-16 3 2 17 -13 -18 -9 -7
-17 10 -3 9 -18 -26 -25 -12
-11 2 -3 6 -21 -31 -30 -12
-11 1 -2 8 -19 -24 -22 -10
-15 10 -1 16 -11 -15 -12 -8
-19 1 -8 6 -26 -32 -34 -9
-15 -5 -2 12 -23 -25 -20 -3
-19 -2 -3 15 -21 -21 -16 -4
-24 -2 -4 13 -21 -25 -22 -4
-22 -8 -2 11 -26 -28 -28 -3
-23 1 3 22 -12 -11 -6 -1
-18 10 -3 18 -15 -20 -22 -7
-9 3 -5 13 -20 -25 -27 -10
-5 4 -6 14 -20 -21 -21 -9
-17 11 -5 21 -13 -13 -11 -5
-25 -1 -9 9 -27 -29 -33 -7
-19 -7 -5 10 -28 -23 -21 -4
-18 2 -6 12 -27 -20 -18 -6
-21 0 -6 9 -29 -28 -26 -8
-18 -9 -8 5 -34 -34 -33 -9
-13 -2 -6 14 -22 -18 -14 -10
-18 2 -13 9 -26 -28 -31 -17
-21 -2 -6 12 -22 -25 -30 -14
-17 -3 -5 13 -21 -20 -21 -12
-14 4 -5 14 -19 -16 -16 -13
-13 -6 -10 1 -35 -34 -39 -16
-17 -17 -5 3 -34 -28 -28 -12
-24 -10 -4 4 -31 -23 -21 -10
-31 -10 -5 2 -33 -27 -29 -10
-25 -19 -8 -2 -41 -35 -37 -12
-18 -7 -4 12 -26 -17 -15 -9
-10 5 -11 7 -29 -26 -30 -14
-8 -1 -8 7 -30 -28 -32 -12
-20 -5 -5 10 -26 -23 -23 -12
-24 2 -5 14 -21 -17 -16 -11
-20 -5 -10 2 -37 -33 -40 -15
-20 -14 -5 5 -36 -26 -27 -11
-18 -6 -6 3 -38 -24 -24 -13
-13 -3 -9 0 -41 -31 -32 -16
-16 -12 -9 0 -45 -37 -41 -17
-14 -7 -4 8 -32 -24 -21 -17
-6 -1 -12 2 -37 -34 -36 -24
-4 -6 -11 4 -38 -34 -40 -23
-4 -3 -7 5 -35 -29 -31 -21
-18 5 -2 9 -30 -18 -17 -15
-29 -7 -5 -3 -42 -33 -38 -16
-26 -16 -1 1 -41 -26 -25 -13
-24 -11 -4 2 -42 -26 -21 -15
-22 -11 -8 2 -44 -31 -31 -19
-16 -16 -7 4 -45 -36 -37 -18
-13 -11 -5 14 -33 -20 -16 -17
-8 -4 -12 8 -37 -30 -34 -24
-12 -11 -8 9 -37 -31 -36 -21
-22 -10 -1 11 -32 -22 -24 -15
-19 -2 -1 15 -27 -14 -14 -14
-18 -8 -5 2 -41 -32 -35 -16
-21 -15 1 7 -39 -24 -23 -11
-21 -9 -2 8 -38 -23 -19 -13
-25 -9 -5 5 -41 -28 -28 -15
-23 -20 -6 1 -48 -37 -38 -17
-16 -10 -1 10 -34 -21 -18 -14
-10 1 -8 5 -37 -31 -33 -20
-11 -8 -6 3 -38 -32 -37 -19
-18 -12 -3 5 -35 -25 -27 -15
-21 -7 -4 5 -31 -21 -21 -17
-21 -14 -10 -8 -46 -38 -43 -22
-23 -21 -5 -4 -45 -31 -28 -17
-24 -13 -6 -1 -43 -28 -24 -17
-30 -14 -9 -4 -43 -33 -31 -19
-28 -24 -10 -8 -49 -41 -42 -21
-14 -12 -7 1 -40 -28 -24 -24
-8 -4 -15 -7 -46 -37 -41 -31
-14 -13 -11 -8 -45 -38 -43 -27
-31 -15 -4 -1 -38 -29 -30 -21
-41 -12 -3 2 -31 -21 -20 -19
-32 -21 -12 -12 -46 -40 -45 -22
-25 -29 -10 -8 -47 -36 -32 -20
-19 -16 -10 -3 -45 -30 -25 -19
-17 -14 -12 -4 -46 -34 -32 -20
-32 -30 -12 -8 -51 -41 -40 -19
-38 -27 -7 2 -38 -25 -19 -19
-34 -19 -13 -5 -41 -32 -31 -23
-33 -26 -11 -8 -44 -36 -37 -24
-36 -28 -9 -6 -42 -33 -31 -25
-37 -20 -11 -2 -37 -27 -24 -26
-37 -26 -17 -14 -50 -43 -46 -26
-38 -32 -10 -8 -49 -35 -33 -20
-39 -25 -10 -5 -47 -31 -26 -19
-37 -18 -8 -5 -46 -33 -31 -18
-37 -23 -9 -8 -49 -38 -37 -17
-31 -17 -6 5 -35 -22 -16 -16
-23 -8 -12 0 -36 -27 -28 -20
-26 -14 -10 1 -37 -28 -30 -17
-28 -17 -8 5 -35 -23 -22 -16
-27 -7 -6 11 -29 -16 -12 -13
-39 -13 -8 1 -39 -30 -32 -13
-38 -18 -1 5 -37 -23 -20 -10
-33 -10 -2 4 -36 -20 -16 -12
-30 -11 -6 -2 -41 -27 -25 -15
-33 -20 -7 -4 -44 -33 -33 -14
-35 -12 -2 10 -29 -15 -9 -11
-33 3 -7 8 -29 -19 -20 -13
-31 -1 -4 8 -29 -20 -21 -10
-27 0 -2 8 -28 -17 -14 -9
-26 9 2 15 -21 -7 -3 -7
-23 5 -4 7 -34 -22 -24 -8
-22 -3 1 13 -32 -15 -13 -3
-20 4 -1 12 -32 -14 -9 -7
-13 11 -5 9 -34 -19 -19 -9
-10 6 -8 4 -38 -25 -27 -9
-11 13 -3 13 -25 -9 -5 -8
-5 26 -11 10 -26 -14 -17 -14
6 24 -11 7 -28 -17 -22 -13
0 24 -8 8 -24 -10 -11 -8
-14 32 -6 14 -15 0 2 -3
-16 27 -9 5 -27 -14 -15 -1
-13 17 -7 6 -29 -10 -5 0
-7 20 -11 5 -32 -10 -4 -4
-8 19 -13 5 -34 -15 -12 -7
-15 11 -12 4 -37 -20 -20 -6
-6 20 -11 12 -27 -7 -1 -6
-3 28 -20 5 -33 -16 -14 -12
-15 18 -17 5 -34 -18 -18 -9
-23 18 -8 9 -29 -8 -6 -4
-19 26 -7 14 -26 0 4 -2
-11 18 -13 3 -40 -19 -19 -6
-6 7 -10 6 -40 -16 -11 -4
-14 5 -13 7 -43 -16 -8 -9
-10 5 -13 6 -45 -22 -17 -11
-8 -1 -11 1 -50 -29 -26 -13
-15 2 -2 12 -35 -11 -3 -9
-16 7 -8 10 -36 -16 -11 -12
-21 -4 -7 10 -39 -18 -16 -11
-23 -6 -4 12 -38 -14 -9 -9
-17 1 -4 14 -33 -8 0 -10
-19 -8 -6 4 -45 -22 -22 -12
-22 -12 3 12 -40 -12 -9 -5
-25 -6 6 14 -37 -8 -1 -4
-25 -7 3 8 -42 -15 -12 -9
-25 -20 0 0 -53 -25 -25 -14
-24 -17 3 10 -44 -13 -6 -14
-25 -12 -4 11 -45 -18 -16 -19
-26 -17 -2 16 -45 -19 -19 -17
-22 -18 1 15 -44 -16 -14 -16
-17 -10 1 18 -40 -11 -8 -19
-14 -17 -3 7 -54 -28 -31 -23
-21 -26 3 9 -53 -23 -21 -19
-32 -19 6 15 -48 -16 -10 -16
-32 -20 4 11 -52 -24 -21 -20
-33 -31 2 4 -61 -32 -32 -22
-34 -25 9 14 -47 -15 -9 -19
-25 -16 1 8 -49 -22 -22 -26
-23 -23 0 3 -54 -28 -30 -28
-23 -26 3 3 -52 -24 -23 -28
-24 -19 5 10 -45 -17 -13 -26
-28 -24 4 6 -53 -29 -31 -26
-31 -30 11 7 -53 -23 -21 -22
-29 -23 10 3 -52 -20 -15 -24
-29 -27 5 -1 -57 -26 -25 -28
-24 -32 4 -3 -60 -32 -32 -27
-24 -22 14 12 -44 -10 -6 -20
-32 -16 9 9 -42 -12 -15 -22
-32 -23 10 2 -45 -18 -22 -24
-28 -22 14 1 -43 -12 -14 -22
-17 -13 14 3 -38 -7 -8 -23
-16 -22 5 -8 -52 -24 -31 -28
-16 -30 9 -5 -53 -19 -20 -24
-16 -22 8 -6 -52 -14 -14 -24
-25 -20 11 -6 -50 -14 -16 -21
-35 -29 9 -11 -56 -21 -26 -21
-28 -20 14 2 -45 -6 -4 -20
-23 -10 9 1 -42 -9 -13 -22
-27 -18 10 2 -42 -11 -18 -20
-28 -19 13 2 -40 -6 -10 -16
-27 -13 13 6 -34 1 1 -15
-27 -20 7 -5 -47 -16 -24 -18
-21 -28 12 -5 -51 -14 -16 -18
-20 -25 10 -4 -51 -12 -12 -20
-22 -25 11 -3 -48 -14 -17 -20
-20 -31 13 0 -43 -14 -20 -16
-17 -18 22 18 -15 14 9 -8
-10 -3 21 23 8 29 12 -5
-5 -1 25 33 29 46 22 7
2 3 33 46 54 75 50 23
16 16 39 61 88 114 87 43
29 20 35 60 99 130 95 64
30 23 40 72 123 168 136 93
24 40 39 88 154 212 180 123
31 51 31 88 173 242 208 151
50 62 20 79 181 266 230 178
71 86 12 84 210 313 284 207
91 109 1 83 230 343 307 231
104 103 -11 79 239 370 331 252
120 95 -35 63 233 393 356 265
137 102 -71 34 219 409 378 278
150 100 -113 -19 170 380 354 278
141 83 -140 -73 109 340 331 264
128 76 -166 -123 47 287 293 237
112 55 -180 -164 -14 217 231 200
81 19 -193 -205 -82 133 158 157
53 2 -192 -218 -123 74 115 114
29 -12 -187 -229 -178 -11 34 59
-10 -38 -160 -232 -244 -109 -46 9
-35 -50 -131 -216 -273 -159 -86 -23
-48 -53 -102 -181 -248 -150 -84 -40
-49 -65 -89 -165 -239 -153 -106 -51
-46 -80 -64 -136 -215 -133 -92 -53
-45 -80 -48 -111 -187 -115 -82 -59
-40 -76 -36 -92 -164 -104 -84 -59
-38 -80 -25 -75 -146 -95 -84 -53
-38 -69 -4 -41 -106 -59 -48 -43
-38 -55 4 -23 -82 -45 -45 -40
-35 -62 11 -11 -71 -42 -47 -38
-33 -63 16 3 -55 -27 -34 -33
-31 -53 17 11 -41 -14 -20 -31
-29 -53 11 0 -49 -27 -41 -32
-29 -56 15 2 -46 -22 -29 -26
-27 -48 14 3 -41 -14 -19 -26
-20 -42 10 -2 -43 -20 -28 -28
-14 -45 13 -6 -45 -26 -36 -26
-18 -32 23 8 -26 -4 -9 -19
-23 -18 21 8 -22 -4 -15 -22
-30 -25 22 8 -23 -8 -22 -21
-39 -30 25 12 -17 -2 -14 -19
-41 -25 24 18 -11 6 -4 -20
-39 -32 16 2 -25 -11 -28 -24
-37 -39 23 6 -22 -4 -16 -18
-33 -31 23 10 -18 3 -8 -17
-31 -33 19 4 -23 -4 -17 -20
-33 -41 18 -3 -29 -14 -29 -22
-36 -38 22 6 -17 0 -9 -21
-33 -29 17 6 -17 -4 -17 -24
-26 -30 20 5 -17 -6 -22 -22
-24 -31 21 6 -15 -4 -18 -23
-20 -22 22 12 -8 7 -5 -22
-19 -28 17 1 -19 -9 -27 -25
-28 -37 23 2 -18 -4 -17 -19
-24 -27 23 5 -15 2 -9 -16
-18 -25 17 0 -21 -5 -19 -22
-18 -36 15 -6 -28 -15 -33 -25
-20 -32 21 4 -15 1 -12 -25
-21 -21 16 3 -13 -4 -19 -29
-24 -28 19 2 -14 -8 -26 -27
-25 -31 20 3 -10 -3 -19 -26
-23 -24 21 9 -3 6 -7 -25
-27 -27 20 4 -10 -5 -23 -22
-28 -37 25 4 -10 -1 -14 -17
-19 -26 24 5 -6 5 -6 -15
-24 -22 25 5 -7 3 -9 -14
-31 -29 25 3 -11 -2 -17 -11
-21 -23 28 14 0 12 3 -10
-21 -17 20 15 0 6 -7 -17
-15 -25 19 11 -5 -4 -20 -20
-11 -23 22 15 1 2 -13 -17
-18 -17 25 24 9 15 1 -16
-23 -23 21 15 -2 1 -19 -17
-24 -36 24 17 -3 4 -12 -15
-26 -29 21 15 0 10 -4 -16
-22 -26 18 12 -4 5 -11 -18
-22 -30 16 9 -8 -3 -24 -19
-16 -25 19 19 4 11 -4 -18
-3 -12 11 21 4 8 -12 -23
-12 -20 13 22 5 4 -19 -22
-25 -22 20 31 13 14 -8 -15
-24 -13 24 42 25 26 8 -12
-21 -18 19 32 12 12 -14 -15
-18 -29 22 31 10 13 -9 -13
-22 -23 23 35 15 22 2 -10
-27 -20 25 33 16 20 -2 -7
-23 -25 22 25 7 11 -15 -8
-21 -22 26 35 21 26 5 -6
-22 -11 25 37 26 27 1 -7
-17 -15 26 35 24 19 -6 -6
-19 -18 28 37 26 24 0 -4
-13 -10 28 43 35 33 12 -5
-10 -16 22 32 23 19 -9 -10
-10 -26 29 36 26 24 -2 -5
-10 -20 27 40 30 31 7 -4
-8 -20 25 35 28 26 -1 -6
-3 -27 23 29 21 15 -14 -9
-1 -22 28 38 33 32 5 -7
-11 -7 28 43 42 35 3 -5
-15 -12 32 44 42 32 -2 -5
-8 -15 33 46 44 37 3 -5
-2 -6 34 53 54 48 16 -5
0 -7 31 48 46 35 0 -5
-3 -19 37 49 48 40 8 0
2 -14 35 50 53 47 15 -1
8 -10 33 46 52 42 8 -2
3 -19 35 42 48 35 -3 -2
-4 -15 43 55 64 52 20 3
-11 0 45 57 73 56 18 4
-12 -8 45 54 72 51 11 3
-7 -9 47 57 76 58 18 5
-3 -2 48 60 84 68 30 4
1 -5 43 51 75 55 11 1
2 -17 45 53 73 56 14 2
1 -11 44 58 77 64 24 3
7 -8 42 54 77 59 16 1
6 -14 41 51 72 50 5 -1
5 -15 49 66 87 68 25 2
9 -5 46 66 89 66 17 -2
9 -12 47 63 87 57 6 -5
6 -15 49 64 91 63 13 -5
13 -8 50 70 99 72 24 -5
16 -11 43 57 85 56 2 -10
15 -24 47 57 83 58 7 -8
6 -16 53 64 93 70 22 -2
8 -7 55 65 98 71 18 2
9 -13 56 64 95 67 12 6
1 -15 60 78 107 81 34 10
5 -6 53 79 108 80 28 7
7 -12 52 74 106 74 18 6
8 -16 55 75 107 76 24 7
13 -11 55 80 114 85 34 6
17 -13 46 68 101 68 14 2
18 -24 51 69 97 69 17 6
23 -15 50 72 101 77 28 6
13 -11 52 73 101 76 23 8
14 -18 49 69 95 67 11 6
9 -17 54 81 108 82 34 11
12 -7 50 77 107 77 27 5
16 -11 49 73 104 69 16 3
13 -16 51 75 105 72 22 4
15 -9 52 76 111 78 31 4
24 -8 45 64 96 62 10 1
26 -19 46 60 90 59 10 4
22 -16 44 58 90 62 17 3
14 -12 42 53 86 59 12 4
17 -15 39 44 77 50 2 3
19 -10 43 49 86 62 21 5
12 -4 37 46 85 61 16 1
8 -6 39 42 81 54 8 2
11 -9 37 40 79 56 12 2
11 -6 35 40 81 61 19 0
12 -7 27 26 67 43 -1 -3
9 -19 28 21 60 41 1 1
10 -13 23 16 57 43 7 0
17 -6 18 7 49 35 -2 -2
27 -7 13 -4 38 24 -15 -3
26 -5 16 0 46 35 3 -2
20 4 10 -5 44 30 -4 -8
6 -1 14 -9 40 24 -11 -8
-3 -2 18 -7 43 31 -2 -3
-2 3 15 -8 44 36 8 -4
-2 -1 6 -26 28 19 -16 -8
6 -12 5 -33 18 13 -14 -5
10 -6 4 -35 17 17 -6 -3
12 -1 0 -38 13 12 -13 -3
12 -6 -6 -44 2 1 -24 -4
-8 -8 1 -32 16 20 -1 3
-8 4 2 -33 20 21 -3 2
-4 2 1 -41 13 12 -14 -1
-3 -1 -2 -45 12 13 -11 -2
1 6 -3 -44 15 19 1 -3
6 5 -11 -55 2 3 -21 -7
0 -8 -9 -56 -1 2 -18 -4
-8 -2 -9 -47 2 11 -5 -1
-11 0 -14 -47 -2 4 -14 -2
-6 -8 -17 -56 -12 -7 -27 -3
-4 -4 -12 -49 -2 7 -9 -1
-2 8 -19 -52 -1 4 -15 -7
-3 1 -18 -56 -5 -3 -25 -7
0 -4 -19 -56 -4 -1 -21 -8
9 5 -18 -51 1 6 -11 -10
11 0 -26 -64 -12 -10 -31 -15
8 -11 -24 -65 -17 -12 -30 -12
3 -1 -20 -59 -11 0 -14 -5
-9 -2 -20 -59 -12 -2 -18 -3
-11 -11 -23 -66 -21 -13 -32 -7
-6 -6 -18 -57 -11 -2 -14 -6
4 7 -24 -59 -9 -4 -19 -10
11 4 -26 -63 -14 -12 -31 -13
10 1 -24 -63 -12 -7 -24 -11
1 5 -19 -58 -4 3 -9 -7
-9 4 -20 -62 -9 -4 -23 -5
-10 -8 -18 -62 -13 -4 -21 -1
-1 -4 -22 -63 -14 -2 -14 -4
2 -6 -25 -65 -18 -8 -22 -8
3 -13 -29 -70 -26 -17 -37 -12
8 -5 -22 -59 -13 -3 -18 -8
4 7 -23 -57 -6 -1 -19 -8
-11 -1 -20 -58 -7 -4 -25 -6
-13 -1 -17 -50 -3 3 -16 -2
-9 5 -16 -44 3 11 -5 -2
-4 2 -24 -55 -9 -4 -28 -6
1 -5 -20 -51 -9 -4 -25 -1
0 -2 -19 -50 -7 3 -14 -2
-1 -1 -19 -55 -10 -3 -21 -4
-1 -4 -21 -61 -16 -11 -33 -3
-7 -1 -14 -48 -3 5 -11 2
-8 12 -15 -45 3 5 -13 -2
-6 0 -18 -51 -4 -6 -25 -7
-3 -4 -17 -48 -3 -3 -22 -7
-4 2 -13 -40 6 8 -9 -5
-3 -1 -20 -50 -5 -5 -29 -7
-5 -14 -15 -51 -7 -6 -26 -4
-4 -6 -15 -50 -5 0 -17 -6
-4 -3 -17 -53 -10 -6 -24 -8
1 -7 -22 -59 -18 -15 -37 -10
-5 -10 -16 -48 -7 -1 -17 -7
-2 1 -22 -46 -1 0 -19 -9
-2 -6 -22 -50 -3 -7 -28 -9
-5 -7 -19 -45 1 -2 -22 -6
-3 5 -15 -33 13 11 -5 0
-7 0 -22 -42 1 -3 -25 -4
-10 -14 -18 -42 -3 -5 -24 -1
0 -3 -17 -38 2 4 -12 -1
2 -1 -19 -41 -1 -1 -20 -4
4 -7 -22 -50 -11 -14 -36 -10
8 -5 -17 -41 -3 -3 -20 -10
10 9 -20 -41 1 -2 -24 -13
7 5 -19 -42 0 -7 -31 -10
1 3 -17 -38 5 0 -22 -6
1 9 -17 -31 11 8 -9 -5
0 6 -22 -41 1 -4 -27 -8
4 -6 -21 -43 -5 -9 -28 -6
9 -1 -21 -40 0 -1 -18 -6
9 6 -23 -45 -4 -6 -25 -9
5 -2 -26 -51 -12 -16 -38 -10
-6 -2 -15 -36 4 3 -15 -2
-7 11 -16 -33 10 5 -15 -5
-3 8 -17 -39 5 -4 -27 -5
3 8 -17 -37 6 0 -21 -3
0 12 -15 -32 12 7 -9 0
1 11 -20 -42 1 -4 -26 -3
-2 -1 -19 -41 -2 -5 -23 2
-5 4 -20 -38 3 4 -11 4
-3 7 -22 -42 0 -2 -18 2
1 2 -26 -50 -11 -13 -34 -2
3 3 -22 -44 -3 -3 -18 -1
6 17 -24 -42 2 0 -18 -4
6 8 -26 -45 -1 -8 -30 -6
10 6 -23 -42 1 -3 -25 -5
7 12 -18 -36 7 6 -12 -1
6 11 -22 -45 -3 -7 -30 -5
4 -2 -21 -47 -9 -11 -31 -3
2 5 -19 -42 -3 -1 -18 -2
-1 7 -21 -43 -5 -5 -25 -3
-2 -1 -24 -47 -10 -14 -37 -4
-5 1 -20 -36 -1 -2 -20 0
5 13 -27 -39 -1 -3 -24 -8
5 7 -29 -45 -5 -12 -35 -9
-1 0 -28 -44 -3 -8 -32 -9
-1 3 -27 -37 1 -3 -23 -11
3 5 -32 -47 -8 -16 -41 -15
5 -5 -27 -48 -14 -19 -41 -10
4 3 -24 -42 -7 -9 -26 -6
4 7 -26 -45 -10 -13 -32 -7
5 1 -31 -51 -19 -24 -46 -9
-6 -1 -24 -42 -7 -9 -24 -3
-7 10 -28 -44 -2 -7 -27 -6
-4 6 -27 -45 -4 -13 -36 -5
-5 2 -28 -45 -5 -12 -32 -6
-3 7 -27 -42 -1 -6 -23 -6
3 8 -31 -51 -11 -17 -41 -9
5 -3 -28 -52 -17 -22 -42 -7
10 3 -29 -51 -14 -15 -31 -7
13 6 -32 -56 -18 -19 -39 -8
10 -1 -35 -58 -25 -26 -49 -10
6 -1 -28 -44 -12 -11 -29 -6
11 12 -30 -43 -7 -9 -30 -9
16 9 -31 -51 -14 -20 -43 -12
12 5 -29 -47 -10 -15 -36 -9
4 8 -28 -45 -5 -9 -26 -10
-1 5 -32 -54 -14 -22 -46 -13
1 -5 -29 -54 -19 -24 -44 -9
0 3 -27 -50 -15 -15 -32 -7
-8 9 -23 -51 -14 -15 -34 -4
-4 7 -26 -57 -20 -23 -46 -7
5 9 -23 -50 -14 -13 -31 -7
8 20 -27 -46 -10 -11 -32 -11
3 9 -31 -50 -15 -21 -45 -13
4 1 -32 -45 -12 -17 -39 -12
2 5 -30 -41 -6 -10 -28 -10
0 5 -34 -50 -16 -23 -45 -10
6 -7 -34 -55 -25 -28 -47 -9
2 -1 -33 -50 -20 -18 -33 -6
1 6 -35 -51 -22 -21 -38 -6
0 4 -34 -55 -26 -27 -48 -6
-2 5 -30 -47 -17 -14 -30 -2
-2 19 -31 -42 -9 -8 -25 -1
-4 13 -32 -46 -13 -16 -37 -3
-2 4 -32 -45 -12 -14 -33 -5
1 9 -30 -43 -9 -9 -24 -7
0 8 -37 -51 -19 -22 -41 -8
-1 2 -30 -49 -21 -23 -41 -3
1 9 -27 -43 -15 -13 -27 -2
7 14 -32 -50 -19 -19 -36 -6
3 9 -30 -53 -24 -26 -46 -6
-5 10 -24 -43 -13 -13 -27 -3
0 24 -26 -41 -8 -11 -27 -8
7 23 -27 -46 -14 -20 -41 -9
12 20 -23 -43 -10 -16 -32 -7
16 27 -22 -37 -4 -7 -18 -6
21 26 -29 -48 -13 -19 -31 -9
18 12 -28 -52 -20 -24 -31 -7
18 19 -30 -46 -19 -19 -20 -9
20 23 -34 -51 -21 -24 -27 -12
25 17 -37 -58 -30 -35 -39 -16
26 20 -29 -48 -19 -22 -20 -10
6 32 -21 -37 -7 -10 -9 -5
-13 28 -14 -35 -4 -12 -15 1
-7 24 -14 -37 -6 -12 -11 -1
3 31 -15 -35 -1 -8 -3 -2
17 32 -22 -45 -11 -21 -21 -7
20 20 -21 -48 -16 -25 -23 -5
17 31 -18 -46 -9 -14 -6 0
10 39 -21 -48 -9 -14 -9 3
7 34 -25 -53 -15 -22 -18 3
14 39 -22 -41 -5 -7 2 8
17 54 -29 -37 2 -1 6 8
15 50 -33 -40 -2 -8 -4 9
15 49 -31 -38 0 -4 1 10
20 53 -30 -33 7 2 10 7
18 50 -33 -40 -4 -10 -7 3
17 39 -30 -41 -10 -14 -9 5
11 44 -31 -37 -7 -5 5 9
13 47 -36 -44 -11 -11 -4 8
13 39 -39 -53 -22 -23 -17 4
12 38 -35 -46 -14 -14 -2 6
19 50 -37 -44 -8 -9 0 3
19 44 -37 -48 -13 -18 -13 2
15 39 -35 -47 -13 -18 -9 3
14 44 -32 -40 -7 -10 2 4
13 40 -40 -51 -17 -22 -15 0
18 28 -37 -53 -24 -28 -19 2
23 31 -37 -49 -21 -20 -7 0
23 31 -37 -53 -24 -25 -16 -2
17 24 -35 -55 -27 -30 -23 -2
11 22 -29 -47 -16 -18 -5 1
12 36 -33 -44 -10 -14 -4 -1
9 26 -34 -48 -15 -24 -18 -5
4 17 -32 -46 -14 -23 -13 -5
7 20 -28 -41 -9 -15 -4 -7
11 18 -34 -50 -19 -30 -22 -11
11 6 -32 -54 -25 -36 -26 -10
8 12 -29 -49 -22 -27 -14 -8
8 16 -31 -53 -24 -34 -21 -11
3 8 -31 -59 -31 -43 -32 -11
4 6 -26 -54 -23 -34 -17 -11
3 16 -30 -52 -20 -33 -18 -16
-5 7 -31 -55 -24 -42 -30 -17
-8 -3 -31 -53 -23 -42 -27 -18
-9 -2 -30 -49 -20 -36 -20 -21
-12 -5 -34 -56 -29 -46 -35 -24
-16 -18 -29 -56 -34 -49 -36 -19
-20 -11 -26 -51 -28 -38 -22 -15
-21 -8 -26 -53 -28 -41 -27 -16
-18 -16 -30 -62 -39 -53 -41 -22
-18 -21 -26 -54 -33 -46 -28 -22
-13 -9 -31 -56 -31 -47 -28 -28
-12 -13 -31 -61 -35 -56 -41 -29
-21 -17 -27 -56 -28 -50 -32 -24
-22 -12 -25 -53 -24 -43 -23 -24
-15 -9 -30 -65 -34 -56 -40 -28
-12 -18 -26 -70 -40 -60 -43 -27
-13 -12 -23 -65 -37 -51 -30 -24
-17 -9 -23 -60 -35 -53 -33 -24
-18 -13 -23 -57 -37 -56 -39 -20
-17 -13 -16 -47 -27 -45 -22 -16
-16 -1 -18 -42 -19 -38 -17 -17
-17 -5 -21 -47 -24 -46 -29 -18
-11 -3 -20 -41 -20 -41 -22 -15
0 7 -19 -30 -13 -32 -10 -13
-2 6 -24 -36 -20 -41 -24 -17
-9 -5 -19 -38 -25 -44 -27 -14
-9 -3 -17 -35 -22 -37 -15 -14
-6 -4 -24 -44 -29 -45 -26 -20
-4 -6 -25 -47 -34 -52 -35 -19
-4 -3 -19 -40 -26 -41 -19 -15
-4 9 -21 -37 -20 -36 -14 -18
0 3 -25 -41 -26 -46 -29 -22
-2 -4 -22 -37 -25 -44 -24 -22
5 6 -16 -28 -17 -34 -12 -19
6 9 -19 -36 -22 -42 -23 -20
2 -3 -14 -34 -26 -44 -27 -16
-1 3 -7 -22 -13 -28 -8 -10
6 7 -10 -24 -8 -25 -11 -11
10 10 -9 -18 5 -17 -9 -3
11 17 1 4 36 14 22 11
13 39 7 20 69 45 47 23
25 48 15 32 95 69 63 42
35 50 26 51 127 108 99 67
41 61 28 64 157 149 140 90
48 71 23 68 172 171 156 113
56 66 19 66 183 199 185 142
63 80 14 73 206 243 233 172
73 98 -1 64 217 268 260 199
91 106 -18 54 225 289 278 221
106 106 -20 61 246 331 324 246
122 111 -39 52 253 357 348 256
138 102 -71 21 232 359 347 266
141 98 -105 -12 208 367 363 280
133 102 -136 -56 169 349 360 276
117 102 -169 -115 100 290 310 255
99 69 -185 -163 34 226 260 229
84 45 -196 -196 -25 162 212 187
61 30 -210 -234 -87 82 140 142
32 0 -210 -260 -149 -5 57 90
0 -27 -192 -264 -209 -91 -8 35
-27 -33 -170 -260 -264 -180 -79 -18
-48 -52 -145 -242 -274 -212 -121 -45
-56 -63 -114 -206 -244 -195 -114 -53
-53 -52 -84 -166 -206 -166 -93 -52
-49 -48 -65 -141 -181 -154 -98 -54
-41 -61 -46 -120 -163 -141 -95 -53
-32 -52 -33 -89 -130 -112 -68 -47
-22 -40 -27 -66 -106 -95 -62 -41
-15 -38 -14 -44 -87 -84 -59 -34
-1 -28 3 -19 -59 -60 -34 -25
8 -6 10 -4 -37 -45 -23 -24
12 -7 9 -6 -34 -49 -35 -25
16 -5 11 0 -25 -41 -27 -21
11 1 15 10 -11 -27 -11 -18
10 2 8 5 -14 -34 -25 -21
17 -5 9 2 -19 -39 -29 -16
17 3 15 10 -10 -24 -9 -10
10 6 16 8 -10 -24 -12 -10
11 7 16 6 -14 -29 -20 -9
8 6 24 15 -3 -18 -3 -6
11 23 23 22 7 -11 2 -9
14 19 22 16 3 -20 -12 -9
10 12 24 19 6 -15 -6 -7
10 15 26 23 14 -7 6 -5
10 18 21 17 7 -15 -6 -7
7 4 22 14 -3 -22 -13 -3
13 8 22 17 0 -14 0 -4
14 12 20 13 -3 -20 -7 -7
15 13 22 11 -10 -26 -17 -8
23 12 27 17 -4 -18 -5 -9
25 26 24 20 4 -15 -3 -13
15 21 26 18 2 -24 -18 -14
7 17 30 22 9 -15 -8 -9
-3 16 35 31 20 -1 8 -4
0 21 28 25 14 -8 -5 -5
9 10 23 23 3 -16 -13 -4
16 12 23 30 7 -8 0 -4
17 17 24 29 4 -11 -6 -5
18 13 24 23 -2 -19 -17 -4
18 14 31 32 8 -7 -1 0
11 27 33 42 21 4 9 0
18 26 31 36 15 -8 -8 -1
19 23 35 38 19 -3 0 1
12 27 40 43 28 8 14 4
8 27 38 35 22 0 0 1
9 12 37 29 10 -9 -10 1
12 14 38 31 13 -1 4 1
13 19 35 28 10 -6 -3 -2
17 15 33 26 4 -14 -14 -4
22 14 35 36 11 -7 -3 -3
25 28 34 44 21 1 3 -6
18 23 34 44 21 -6 -10 -6
13 19 39 48 28 2 -1 -2
18 23 38 51 34 10 11 -1
14 21 33 43 27 3 0 -2
15 10 31 40 17 -3 -6 2
16 15 35 48 23 8 10 5
18 19 32 45 23 5 5 4
24 20 34 45 19 0 -3 5
23 19 40 53 28 10 11 8
32 34 39 56 36 15 17 2
35 34 39 55 35 7 4 3
24 26 44 62 40 14 10 4
19 30 49 69 50 25 24 7
22 35 44 62 45 17 11 4
24 19 41 57 33 8 2 5
29 22 42 63 37 19 19 7
27 26 40 59 39 18 17 8
17 15 43 54 34 11 7 7
9 9 50 61 42 21 19 9
15 24 48 69 53 28 26 6
16 20 45 62 49 19 11 3
10 17 50 70 57 29 22 11
15 23 51 74 66 38 34 13
23 24 44 69 60 31 22 10
23 11 44 66 52 25 14 13
23 17 50 74 60 38 31 17
26 23 50 72 60 35 27 15
24 16 49 68 54 29 17 13
18 12 57 77 62 38 32 16
20 27 59 87 76 49 40 16
26 28 57 86 76 40 25 14
30 27 59 91 80 46 31 15
29 30 59 97 88 55 42 16
37 32 53 89 81 47 27 10
40 15 54 85 72 40 19 12
42 18 56 94 79 51 36 12
49 24 56 96 79 49 31 12
48 21 58 96 77 45 21 11
39 18 68 109 89 59 40 18
38 30 69 118 102 70 51 19
27 26 72 119 104 66 40 23
19 24 79 131 113 78 53 29
25 29 78 139 122 87 64 30
30 27 68 132 116 77 48 23
31 12 70 127 106 69 38 24
35 17 74 137 115 83 56 27
41 21 70 136 112 77 49 22
50 21 68 134 108 70 38 20
43 16 74 140 117 80 52 23
36 29 78 149 130 91 64 23
41 27 77 148 128 84 48 23
42 18 78 152 131 91 54 24
47 22 78 159 137 98 64 24
46 24 74 156 133 92 52 22
45 11 74 151 126 85 44 26
52 16 77 155 131 95 61 27
54 19 73 152 126 87 54 23
50 17 76 152 123 84 46 24
41 13 84 160 132 93 60 28
43 26 84 166 141 100 68 25
49 26 84 159 135 89 52 24
46 20 88 162 139 95 61 28
44 25 90 171 148 106 74 34
46 24 82 167 142 97 60 31
45 10 81 162 131 88 52 33
44 13 86 170 138 100 71 35
41 16 82 168 134 93 64 29
42 13 78 162 127 84 51 25
43 12 84 170 133 92 64 29
43 24 85 174 142 99 72 28
44 18 79 163 133 82 50 22
46 13 78 161 132 83 54 21
50 16 79 162 133 87 62 20
52 15 72 148 123 73 48 14
54 0 69 137 107 59 36 14
57 8 73 142 110 67 52 18
54 16 72 141 106 63 47 18
49 15 73 133 100 56 38 18
46 12 77 136 103 62 51 23
46 21 77 139 110 69 60 21
43 15 71 126 100 53 40 18
38 16 72 127 101 57 47 21
33 19 73 125 101 63 55 22
40 21 62 112 88 48 38 13
46 10 61 102 73 36 28 14
42 13 62 103 75 44 47 17
35 19 61 97 69 40 42 18
29 17 57 90 60 32 33 18
28 15 58 92 61 36 43 22
33 31 55 94 67 41 50 18
35 25 49 85 56 27 33 15
36 21 47 80 53 26 34 12
38 24 45 76 53 30 42 11
31 25 38 66 45 21 30 9
25 12 40 59 33 13 22 14
23 19 41 65 37 22 39 17
23 24 37 60 31 16 33 16
29 23 35 51 22 6 21 13
26 18 37 53 22 9 29 15
22 29 35 57 30 16 39 12
23 26 30 45 22 3 20 8
25 20 29 44 21 3 23 8
21 17 29 45 24 9 32 10
21 19 23 35 15 1 21 6
18 2 21 26 2 -13 8 6
17 5 23 30 4 -3 24 6
15 6 19 24 -1 -9 17 3
18 0 16 17 -10 -20 4 -3
21 -4 19 24 -7 -14 12 -2
21 8 16 29 1 -8 19 -7
19 6 14 19 -4 -19 0 -9
11 2 19 25 1 -12 9 -4
4 5 21 28 5 -5 19 -2
5 9 20 23 2 -11 9 -4
8 -5 17 12 -12 -24 -6 -5
10 0 22 18 -6 -12 14 0
13 10 23 15 -6 -12 12 1
15 6 19 7 -15 -23 1 -3
16 2 22 15 -10 -14 12 1
19 13 21 23 2 -3 23 -1
14 9 16 20 -4 -12 7 -3
14 6 18 25 0 -9 12 1
19 8 17 28 4 -4 19 1
22 10 13 22 0 -9 9 -2
20 -4 14 17 -11 -19 -1 0
13 -5 19 25 -4 -8 17 3
16 0 15 20 -8 -13 7 -4
23 -5 9 13 -18 -26 -9 -11
24 -7 15 14 -13 -21 1 -9
19 10 21 21 1 -7 17 -6
0 5 22 17 -1 -12 6 -2
-1 -1 22 18 -1 -10 11 -1
4 4 22 24 4 -3 20 0
3 4 15 22 -1 -9 9 -4
5 -8 13 22 -10 -19 -4 -3
12 -3 17 30 -3 -7 15 0
8 -1 17 23 -6 -11 9 -1
4 -4 18 20 -8 -16 3 0
3 -7 21 23 -5 -11 11 1
6 9 23 30 7 1 24 1
17 13 20 24 3 -9 8 -1
19 7 19 26 4 -7 11 1
13 7 20 29 8 0 20 0
6 8 17 25 5 -5 12 0
9 -1 19 19 -6 -15 1 2
13 2 21 25 2 -4 20 3
12 2 16 18 -3 -10 12 -2
-1 -10 14 13 -9 -20 2 -4
-11 -19 17 16 -7 -17 9 -4
-11 -11 14 20 1 -10 16 -9
-12 -15 10 13 -5 -20 -2 -12
-11 -22 8 12 -6 -19 2 -13
-17 -20 9 15 0 -12 13 -11
-27 -22 6 11 -5 -16 4 -13
-33 -41 3 0 -19 -29 -11 -15
-35 -43 4 4 -14 -19 4 -14
-37 -40 -3 -2 -18 -25 -2 -18
-45 -45 -2 -4 -24 -30 -11 -17
-42 -47 2 0 -19 -26 0 -14
-32 -31 1 7 -7 -15 10 -17
-33 -37 -2 -1 -15 -27 -10 -21
-37 -45 0 0 -13 -26 -6 -20
-43 -46 0 1 -9 -20 0 -19
-47 -44 -2 -3 -12 -24 -6 -20
-49 -56 -3 -11 -24 -33 -15 -18
-49 -53 0 -4 -19 -19 3 -14
-47 -49 -5 -5 -23 -21 -1 -16
-46 -54 -11 -7 -29 -30 -12 -20
-41 -58 -10 -6 -29 -29 -7 -21
-36 -43 -10 -1 -19 -19 4 -24
-42 -48 -13 -7 -24 -32 -14 -27
-60 -55 -10 -2 -18 -26 -6 -22
-66 -52 -5 4 -12 -17 6 -18
-62 -51 -12 -4 -20 -26 -6 -24
-58 -64 -15 -14 -32 -37 -20 -24
-56 -61 -10 -5 -23 -24 1 -18
-56 -56 -15 -11 -27 -29 -7 -22
-53 -60 -17 -17 -34 -40 -19 -26
-56 -63 -9 -11 -30 -35 -10 -21
-53 -47 -7 -4 -19 -23 5 -22
-51 -53 -13 -13 -26 -34 -15 -26
-47 -62 -14 -13 -27 -37 -16 -28
-42 -60 -14 -13 -25 -32 -10 -31
-47 -57 -16 -17 -27 -36 -16 -31
-53 -68 -16 -24 -37 -45 -26 -26
-58 -65 -10 -15 -28 -29 -3 -19
-66 -62 -13 -19 -33 -34 -8 -22
-68 -66 -15 -24 -39 -41 -19 -24
-72 -72 -13 -20 -36 -35 -10 -22
-71 -59 -11 -10 -22 -23 3 -23
-65 -61 -17 -20 -31 -37 -18 -28
-62 -67 -16 -19 -31 -37 -17 -29
-63 -64 -15 -14 -24 -29 -8 -26
-60 -57 -17 -17 -26 -33 -15 -27
-56 -68 -21 -26 -40 -46 -28 -26
-54 -66 -15 -19 -33 -33 -9 -23
-45 -58 -15 -24 -36 -38 -15 -28
-45 -59 -16 -29 -41 -44 -25 -29
-47 -63 -11 -25 -37 -40 -15 -26
-37 -46 -11 -17 -26 -29 -1 -29
-30 -41 -14 -20 -31 -38 -20 -29
-30 -41 -8 -13 -28 -33 -12 -22
-24 -35 -7 -14 -25 -29 -5 -23
-21 -27 -7 -18 -27 -34 -12 -24
-23 -36 -4 -24 -36 -42 -21 -19
-28 -35 1 -15 -27 -27 0 -14
-28 -29 0 -13 -26 -26 -2 -13
-24 -30 -2 -13 -29 -31 -8 -12
-17 -35 -2 -8 -28 -29 -3 -12
-14 -24 0 -1 -16 -16 12 -13
-19 -27 -3 -8 -22 -26 -5 -15
-20 -28 -1 -4 -20 -23 -1 -12
-16 -26 0 -5 -15 -19 6 -12
-10 -18 -4 -10 -20 -25 -3 -15
-14 -28 -1 -17 -29 -34 -14 -11
-18 -25 2 -9 -23 -22 5 -7
-12 -18 0 -12 -26 -26 -3 -11
-11 -21 -2 -19 -33 -34 -13 -14
-11 -30 -1 -17 -33 -33 -8 -15
-12 -14 4 -6 -16 -18 10 -12
-8 -12 -1 -16 -24 -31 -10 -16
-6 -17 0 -14 -24 -30 -6 -13
-6 -16 1 -7 -17 -20 5 -11
-9 -15 -2 -6 -18 -21 -1 -12
-6 -30 -5 -16 -31 -35 -16 -13
-11 -28 1 -9 -26 -23 3 -8
-12 -22 0 -12 -28 -26 -3 -11
-10 -21 0 -17 -32 -34 -13 -12
-8 -23 5 -14 -29 -28 -5 -9
-10 -7 7 -5 -15 -16 10 -11
-6 -7 4 -12 -21 -27 -8 -14
-4 -14 2 -13 -23 -27 -7 -16
2 -13 0 -14 -24 -24 -2 -18
9 -4 -3 -14 -24 -27 -7 -18
5 -18 -3 -20 -35 -37 -21 -16
-1 -17 1 -11 -29 -24 -1 -12
0 -10 1 -10 -30 -26 -4 -14
2 -6 2 -15 -32 -30 -12 -13
0 -6 6 -12 -29 -27 -4 -9
-5 6 9 -3 -15 -14 13 -9
-4 7 5 -11 -21 -26 -6 -12
3 8 7 -9 -19 -23 -3 -9
9 11 8 -7 -16 -18 6 -9
13 19 4 -11 -17 -19 1 -11
13 8 3 -18 -30 -29 -13 -9
11 8 7 -11 -24 -18 4 -8
10 15 4 -13 -26 -21 -1 -12
8 14 2 -19 -31 -28 -11 -13
10 13 6 -16 -29 -24 -4 -10
12 27 8 -6 -16 -11 11 -11
18 23 1 -16 -26 -28 -12 -18
27 18 1 -15 -26 -28 -12 -19
30 21 2 -12 -21 -22 -4 -19
22 24 -1 -16 -23 -23 -9 -19
5 14 5 -17 -27 -27 -14 -10
-2 15 10 -9 -18 -12 8 -4
8 25 6 -14 -21 -13 5 -4
6 30 6 -15 -21 -15 0 -2
9 28 8 -15 -17 -13 6 1
12 42 5 -8 -6 -3 20 -1
13 40 -4 -15 -13 -15 1 -4
18 36 -6 -16 -14 -14 2 -2
20 38 -7 -12 -10 -8 11 -2
14 42 -13 -14 -12 -10 6 -4
14 32 -13 -18 -19 -18 -5 0
10 35 -6 -9 -13 -4 15 3
12 42 -7 -12 -17 -7 12 0
23 41 -11 -21 -26 -20 -2 -6
23 33 -11 -24 -29 -22 -1 -8
15 39 -10 -20 -23 -14 10 -11
7 35 -10 -25 -27 -25 -7 -12
3 30 -7 -23 -24 -21 -3 -7
6 30 -7 -23 -21 -15 5 -7
11 33 -14 -24 -27 -19 -3 -11
10 18 -17 -33 -40 -33 -19 -12
7 19 -12 -26 -34 -20 1 -8
7 23 -11 -26 -33 -22 -1 -9
4 18 -9 -27 -35 -25 -10 -8
8 10 -9 -24 -35 -25 -7 -10
18 19 -11 -15 -24 -14 7 -13
14 21 -12 -19 -26 -22 -10 -14
2 12 -7 -17 -22 -18 -7 -11
0 13 -5 -15 -22 -15 0 -10
-1 16 -7 -18 -24 -18 -8 -14
1 -1 -11 -27 -39 -34 -26 -19
10 -2 -8 -27 -37 -26 -12 -20
12 1 -10 -29 -40 -30 -17 -25
11 -2 -13 -35 -45 -37 -28 -28
5 -4 -7 -31 -41 -31 -19 -23
-6 8 -2 -21 -25 -17 -1 -21
-11 4 -7 -28 -34 -30 -21 -25
-15 -2 -4 -25 -32 -28 -18 -22
-15 -3 -4 -25 -30 -25 -10 -22
-13 -3 -11 -30 -33 -30 -17 -27
-15 -18 -14 -39 -49 -44 -34 -29
-16 -21 -10 -34 -45 -35 -19 -28
-6 -15 -14 -38 -50 -40 -26 -35
-6 -15 -14 -43 -53 -46 -34 -36
-11 -20 -9 -43 -52 -44 -29 -33
-13 -7 -6 -36 -40 -30 -13 -33
-11 -8 -11 -42 -47 -41 -32 -36
2 -11 -13 -40 -48 -42 -31 -37
5 -9 -13 -34 -43 -36 -23 -38
2 -5 -14 -33 -43 -37 -26 -37
-7 -12 -8 -35 -47 -43 -32 -27
-23 -15 2 -24 -37 -27 -10 -20
-23 -11 -1 -26 -37 -29 -14 -22
-19 -15 -5 -33 -43 -37 -24 -26
-17 -21 -2 -32 -43 -36 -21 -25
-13 -8 -2 -27 -31 -25 -8 -26
-11 -9 -10 -36 -40 -40 -29 -32
-15 -17 -9 -35 -41 -38 -26 -31
-12 -15 -7 -29 -36 -33 -18 -30
-12 -11 -12 -35 -39 -36 -24 -34
-11 -26 -14 -45 -52 -49 -42 -36
-9 -25 -9 -37 -46 -37 -24 -33
-11 -19 -11 -39 -46 -40 -29 -37
-16 -21 -11 -41 -49 -43 -35 -37
-28 -24 -5 -37 -44 -38 -26 -32
-30 -13 -3 -30 -32 -26 -11 -33
-25 -18 -12 -38 -41 -38 -32 -38
-20 -23 -12 -32 -40 -36 -29 -36
-18 -23 -11 -28 -36 -31 -20 -34
-20 -19 -15 -32 -38 -34 -25 -38
-20 -31 -14 -40 -51 -47 -42 -36
-19 -30 -6 -26 -41 -31 -20 -30
-13 -23 -8 -26 -35 -27 -20 -31
-11 -20 -7 -24 -29 -23 -22 -28
-11 -17 2 -11 -8 -5 -6 -18
-8 5 11 8 30 29 25 -7
2 14 9 7 44 37 22 0
9 16 20 23 77 73 55 25
16 28 28 42 110 113 94 51
30 44 23 50 132 144 120 74
39 39 18 48 140 161 134 98
53 53 16 58 168 206 186 130
65 74 7 58 184 241 219 157
79 94 -1 53 196 268 244 184
90 103 -5 53 213 301 279 213
106 118 -12 59 237 344 324 230
127 110 -36 39 230 352 322 240
141 104 -65 16 219 369 343 255
144 107 -97 -15 201 380 364 271
136 114 -132 -65 151 349 341 261
126 99 -162 -127 72 283 288 241
110 81 -177 -162 20 237 263 216
91 60 -190 -198 -43 164 200 173
68 40 -197 -229 -102 86 132 132
34 8 -189 -242 -153 12 67 86
6 -3 -171 -237 -202 -68 6 30
-15 -20 -155 -248 -271 -175 -89 -25
-31 -37 -126 -223 -269 -193 -110 -47
-36 -42 -100 -191 -242 -174 -101 -56
-37 -43 -85 -167 -217 -159 -101 -63
-32 -64 -71 -155 -206 -159 -118 -70
-25 -67 -55 -123 -176 -132 -92 -71
-11 -57 -47 -101 -150 -116 -86 -70
-3 -51 -37 -79 -124 -101 -81 -65
-19 -53 -15 -48 -95 -77 -60 -50
-32 -37 3 -18 -59 -45 -30 -42
-20 -32 3 -15 -53 -49 -44 -42
-15 -32 7 -10 -43 -43 -40 -39
-11 -29 7 -7 -35 -34 -29 -36
-11 -23 1 -12 -32 -35 -31 -39
-17 -38 -3 -24 -43 -47 -49 -37
-16 -34 0 -19 -35 -31 -27 -32
-17 -29 -2 -17 -33 -28 -26 -32
-21 -26 2 -17 -30 -29 -31 -29
-22 -32 7 -13 -28 -27 -27 -28
-22 -18 8 -5 -13 -14 -12 -32
-17 -13 4 -11 -18 -27 -32 -36
-16 -17 7 -8 -14 -25 -29 -35
-19 -23 7 -5 -12 -21 -22 -35
-12 -14 2 -9 -12 -21 -26 -35
-11 -28 -2 -22 -27 -38 -45 -36
-10 -29 2 -19 -23 -27 -27 -33
-10 -22 3 -18 -24 -27 -28 -34
-16 -22 7 -19 -24 -31 -34 -34
-19 -28 12 -14 -23 -28 -30 -31
-22 -15 14 -3 -7 -13 -12 -33
-21 -17 7 -12 -15 -28 -35 -41
-15 -20 7 -10 -13 -26 -34 -39
-14 -20 7 -6 -10 -20 -24 -37
-12 -14 3 -7 -10 -20 -27 -38
-17 -27 1 -17 -22 -34 -43 -36
-17 -27 7 -11 -16 -21 -22 -29
-14 -19 6 -10 -16 -21 -22 -29
-15 -19 6 -13 -17 -27 -29 -31
-15 -28 7 -14 -20 -29 -30 -32
-7 -14 8 -3 -7 -16 -14 -34
-7 -9 5 -6 -11 -25 -33 -37
-22 -13 10 1 -2 -19 -25 -30
-26 -12 11 8 3 -10 -14 -27
