I II V1 V2 V3 V4 V5 V6
-5 -4 1 -4 -3 -5 -9 -8
-8 -6 0 -5 -3 -8 -11 -9
-5 -3 1 -5 -3 -7 -11 -8
-3 -2 0 -5 -4 -7 -11 -9
-8 -8 -2 -5 -5 -8 -12 -9
-7 -6 -2 -7 -5 -8 -11 -7
-4 -3 -1 -5 -4 -6 -10 -3
1 -3 -4 -7 -5 -7 -10 -3
1 -2 -2 -5 -3 -5 -8 -1
-4 -2 1 -3 -1 -3 -5 0
-7 -1 2 -1 1 -1 -4 -1
-7 -2 1 -1 2 -2 -5 -6
-7 -3 0 -2 1 -5 -7 -13
-4 -1 2 -1 2 -3 -5 -12
-6 -4 1 -2 0 -3 -5 -10
-4 -5 -1 -4 -1 -4 -6 -10
-1 -3 -1 -4 -1 -4 -5 -10
-4 -4 0 -2 0 -3 -4 -10
-3 -2 1 -1 2 -2 -4 -6
1 2 3 1 4 -1 -4 -2
-2 -1 3 2 4 -1 -4 -1
-3 -2 1 0 4 -1 -5 -4
2 3 0 1 4 -1 -4 -4
3 4 0 0 3 -1 -4 -5
1 3 3 3 6 2 -1 -3
-1 -1 2 2 6 3 -1 -5
-4 -2 4 4 6 4 1 -3
-2 -1 5 6 7 5 1 -1
2 2 4 3 6 2 -1 -2
3 3 5 5 8 3 0 -1
1 2 5 5 9 4 0 0
3 4 5 5 8 3 0 -2
5 7 5 5 8 3 0 -3
4 6 5 5 7 3 -2 -5
5 4 7 6 9 6 1 -4
1 0 4 4 8 5 0 -4
-1 -1 3 3 7 4 0 -4
2 -1 4 5 6 5 2 -4
-2 -3 4 5 7 4 3 -4
-7 -4 6 6 8 5 3 -4
-5 -4 8 8 10 6 4 -3
-5 -6 8 7 10 6 2 -4
-1 1 9 9 12 8 3 -3
2 3 10 10 12 8 3 -2
-1 2 6 7 9 5 1 -3
-4 -3 5 6 8 4 0 -4
-5 -9 5 6 7 4 0 -3
-5 -6 6 7 7 5 1 -1
-1 -1 7 8 9 7 3 1
-5 -3 5 6 8 4 1 -2
-3 -3 6 7 8 3 2 -4
-2 -3 5 4 6 1 -1 -11
3 -3 5 5 7 2 -1 -14
4 -2 6 4 7 3 -2 -12
0 -3 5 4 5 1 -3 -9
1 -2 6 4 5 1 -2 -5
4 -1 7 6 7 2 -1 -1
0 -3 9 7 7 2 -1 -1
1 -3 6 5 5 0 -3 -3
3 -5 5 3 4 -2 -5 -4
0 -4 5 3 3 -1 -4 -3
-2 -3 5 5 3 -2 -4 -4
-2 -7 6 4 4 -2 -4 -3
-1 -8 7 5 4 -2 -4 -1
4 -6 5 3 2 -3 -6 -2
5 -6 5 3 1 -4 -7 -3
5 -3 5 2 0 -4 -6 -3
4 -2 6 4 2 -3 -5 -5
3 -3 7 4 2 -4 -5 -11
5 -2 6 3 1 -4 -7 -15
-1 -8 6 3 1 -5 -8 -14
-3 -7 6 3 0 -5 -8 -9
-1 -5 5 1 0 -6 -9 -7
3 -7 3 -1 -2 -8 -11 -9
3 -10 4 2 -1 -5 -9 -7
4 -9 3 0 -2 -8 -11 -10
4 -9 3 -3 -5 -9 -12 -11
5 -8 3 -1 -4 -9 -11 -10
3 -11 3 -1 -3 -8 -9 -9
1 -10 7 3 0 -5 -6 -7
-2 -9 6 2 -2 -6 -8 -9
-6 -11 6 2 -1 -6 -8 -8
-3 -11 5 2 0 -7 -9 -8
-2 -9 6 2 -1 -7 -11 -9
-4 -10 6 3 -1 -7 -10 -10
-4 -10 6 3 -1 -6 -8 -11
-4 -10 5 1 -2 -7 -9 -14
5 -9 3 0 -4 -8 -10 -14
7 -9 3 0 -5 -9 -11 -12
2 -11 4 1 -3 -8 -10 -11
0 -8 5 1 -2 -8 -11 -9
2 -7 6 2 -1 -7 -10 -8
2 -9 7 3 0 -6 -10 -8
3 -9 8 3 0 -6 -10 -9
2 -10 6 2 -2 -8 -12 -11
4 -7 8 4 -1 -6 -10 -11
0 -6 9 5 0 -5 -9 -11
-1 -4 9 6 0 -4 -8 -12
1 -1 10 8 3 -2 -7 -11
1 1 11 8 5 -1 -6 -9
6 5 13 9 6 1 -5 -7
10 10 14 9 7 1 -3 -3
9 11 14 8 7 -1 -5 -4
7 9 17 9 7 0 -4 -5
0 5 18 8 8 1 -4 -5
0 7 16 7 6 1 -4 -6
3 11 17 8 7 3 -3 -4
2 9 16 7 6 1 -3 -4
2 8 13 5 6 0 -3 -5
5 9 13 5 6 0 -3 -5
7 8 10 4 5 0 -2 -2
13 8 6 3 4 0 -1 -1
14 8 3 3 7 2 1 0
14 9 5 7 10 6 3 3
17 10 4 10 11 9 5 5
16 11 2 10 11 9 5 2
17 13 2 10 12 10 5 2
13 13 4 10 12 12 7 4
9 9 4 11 13 12 7 2
12 9 5 10 12 10 6 3
13 12 5 9 11 9 5 6
12 13 3 4 7 6 3 7
11 15 3 2 6 4 3 8
9 13 3 -1 3 1 0 7
9 9 -1 -3 -1 -2 -2 7
16 8 -1 -5 -2 -3 -2 5
18 12 1 -3 0 -1 0 3
17 11 1 -3 -1 -1 -1 -4
13 8 1 -2 0 -1 0 -7
15 7 0 -2 -2 -3 -3 -11
11 2 2 -1 -2 -4 -6 -8
6 -4 4 1 -1 -3 -6 -5
7 -6 5 2 0 -4 -8 -5
5 -10 5 0 -3 -6 -11 -10
5 -11 3 -1 -5 -9 -12 -14
9 -6 5 -1 -5 -8 -12 -13
6 -9 7 -2 -5 -7 -11 -12
8 -12 4 -3 -7 -10 -14 -14
6 -12 4 -4 -8 -12 -16 -14
-1 -17 2 -5 -10 -14 -17 -15
0 -16 4 -5 -9 -14 -16 -15
0 -16 5 -4 -8 -12 -15 -14
-3 -19 4 -4 -7 -11 -14 -15
-6 -19 4 -4 -9 -12 -15 -16
-4 -16 3 -4 -9 -13 -16 -16
-2 -13 5 -2 -6 -10 -13 -15
0 -12 7 -1 -6 -9 -11 -15
-2 -13 6 -2 -8 -10 -12 -17
-1 -13 5 -3 -9 -11 -14 -17
0 -14 4 -3 -10 -13 -15 -14
1 -16 4 -4 -9 -13 -17 -13
1 -16 4 -3 -8 -13 -17 -14
-2 -17 4 -2 -8 -12 -16 -16
-3 -18 5 -2 -7 -11 -15 -15
-2 -17 4 -4 -9 -12 -16 -16
-2 -18 2 -6 -11 -15 -17 -18
0 -16 3 -7 -12 -15 -18 -18
1 -17 4 -4 -10 -13 -16 -18
-2 -17 10 2 -4 -10 -17 -20
-3 -18 18 14 7 -3 -16 -20
-3 -20 31 31 25 10 -15 -21
-6 -22 42 53 43 22 -17 -28
-9 -27 58 78 65 36 -19 -36
-12 -36 70 99 82 46 -23 -48
-7 -36 79 116 97 57 -21 -52
3 -21 80 123 104 66 -12 -46
9 -3 71 115 98 68 2 -30
15 17 59 98 87 70 22 -5
22 31 52 94 87 77 44 21
29 47 48 96 92 87 71 47
36 67 42 93 99 99 99 71
45 89 24 75 97 112 134 97
63 116 -4 40 82 125 178 133
74 140 -33 -3 47 124 220 176
84 161 -69 -50 4 116 258 220
96 185 -111 -106 -48 109 308 264
100 202 -139 -150 -79 122 364 303
99 204 -155 -177 -93 142 414 320
95 192 -157 -190 -108 153 439 316
86 171 -156 -192 -118 146 422 292
84 146 -161 -194 -137 114 365 257
71 130 -157 -199 -166 58 284 215
49 111 -145 -198 -194 -18 165 156
30 85 -139 -194 -213 -87 51 97
14 57 -137 -176 -212 -119 -16 55
8 34 -131 -157 -206 -135 -49 26
1 9 -123 -145 -204 -145 -67 1
-7 -14 -118 -132 -197 -152 -80 -20
-4 -26 -113 -107 -175 -143 -79 -33
1 -33 -104 -82 -145 -122 -71 -36
4 -37 -92 -63 -123 -105 -65 -37
10 -37 -76 -50 -105 -92 -60 -37
8 -39 -59 -32 -85 -78 -54 -36
9 -39 -44 -17 -68 -66 -50 -36
13 -40 -28 -5 -52 -54 -46 -35
9 -44 -18 1 -41 -47 -43 -35
5 -43 -10 3 -31 -38 -41 -34
0 -40 -3 1 -25 -31 -34 -32
0 -37 -1 -3 -21 -26 -31 -30
5 -28 1 -2 -18 -24 -27 -27
5 -26 2 -2 -17 -21 -26 -24
3 -24 3 -1 -14 -18 -21 -21
0 -19 3 -2 -13 -19 -21 -22
-1 -20 5 -1 -11 -17 -21 -21
1 -18 6 -1 -8 -17 -21 -20
2 -17 5 -2 -7 -16 -20 -20
-1 -19 6 -2 -6 -16 -22 -20
0 -18 8 -1 -4 -13 -20 -18
1 -21 8 -2 -5 -13 -21 -18
1 -23 9 -1 -5 -12 -19 -18
1 -23 8 -1 -6 -12 -19 -18
-2 -24 7 -2 -7 -14 -19 -18
1 -20 7 -1 -7 -14 -20 -19
3 -19 7 -1 -5 -13 -19 -22
0 -19 10 2 -1 -12 -18 -22
3 -17 10 3 1 -11 -18 -21
6 -19 11 4 1 -9 -18 -19
4 -22 10 2 -1 -10 -19 -19
4 -22 9 1 -2 -11 -20 -17
3 -20 10 1 -3 -9 -19 -16
2 -17 12 5 0 -6 -15 -13
-4 -18 13 6 2 -4 -11 -13
-7 -19 11 4 -1 -8 -15 -19
-1 -17 10 5 -1 -8 -16 -25
-2 -18 11 6 2 -7 -16 -25
-1 -17 12 6 3 -7 -17 -23
-1 -18 13 6 4 -7 -19 -21
-2 -21 13 6 4 -6 -18 -19
4 -19 12 4 2 -8 -19 -17
6 -17 10 3 -1 -8 -19 -17
7 -18 11 4 0 -7 -18 -22
5 -17 12 5 0 -5 -15 -24
-1 -19 12 6 1 -5 -16 -26
3 -16 12 8 3 -3 -14 -24
4 -17 14 8 5 -3 -14 -20
0 -18 13 8 6 -3 -14 -19
2 -14 13 10 9 0 -14 -17
1 -17 14 10 9 1 -12 -16
0 -17 14 9 9 0 -12 -17
5 -14 14 8 8 1 -11 -16
7 -16 14 8 7 2 -10 -17
6 -15 14 9 8 2 -8 -18
2 -12 11 7 7 0 -11 -22
7 -11 7 5 4 -2 -13 -27
11 -13 11 8 8 0 -12 -25
3 -17 13 11 11 4 -11 -21
0 -21 14 11 12 3 -13 -21
0 -23 14 13 14 6 -11 -20
2 -21 13 11 12 5 -11 -22
3 -16 11 12 12 7 -9 -20
5 -16 14 15 14 10 -7 -19
7 -16 14 16 15 11 -3 -17
5 -18 13 15 14 9 -5 -18
4 -21 11 15 14 8 -6 -20
6 -18 13 18 18 10 -6 -20
4 -16 15 20 21 13 -4 -19
-5 -20 15 21 24 15 -4 -19
-5 -24 14 21 24 15 -4 -20
1 -23 15 21 24 16 -3 -19
6 -18 14 22 22 17 -1 -17
8 -17 14 23 23 19 -1 -17
8 -18 14 23 24 18 0 -16
9 -16 14 24 25 19 0 -15
13 -12 14 27 28 21 3 -14
11 -16 17 30 32 23 4 -13
11 -15 16 28 32 23 4 -13
10 -16 14 27 32 22 2 -15
12 -16 14 28 33 23 3 -16
13 -14 15 29 34 24 5 -14
10 -14 16 31 35 26 6 -12
11 -12 18 34 37 30 9 -10
11 -13 18 37 39 31 10 -7
11 -13 18 37 41 30 9 -5
15 -7 17 39 41 31 8 -5
16 -4 17 40 43 31 8 -8
14 -6 16 40 44 31 8 -11
11 -10 17 43 47 33 8 -10
9 -10 16 44 47 33 7 -8
11 -7 18 45 48 34 8 -4
11 -8 17 46 48 34 9 -3
10 -12 16 46 47 35 9 -2
12 -10 15 46 46 34 11 -2
14 -9 15 46 46 34 11 -4
17 -7 15 48 47 34 10 -8
18 -2 18 51 51 35 13 -3
16 -6 19 52 54 36 14 1
19 -4 17 51 51 34 12 2
17 -6 15 49 48 32 10 1
16 -7 15 47 46 29 8 0
16 -6 15 48 46 30 7 -1
16 -6 14 47 44 29 8 -4
15 -7 12 46 42 25 6 -6
17 -5 14 47 42 25 6 -4
17 -4 15 49 43 25 6 0
15 -2 17 50 44 26 6 4
15 -2 18 52 46 24 5 5
16 -3 14 48 43 20 1 0
16 -4 12 45 39 17 -3 -2
16 -2 11 42 35 13 -6 -4
14 -4 11 42 32 11 -8 -5
14 -3 10 41 29 9 -8 -4
11 -2 11 42 30 10 -6 -1
13 -1 12 42 29 9 -6 -1
17 -4 9 39 26 5 -9 -3
17 -4 8 38 25 4 -11 -3
18 -1 10 38 26 3 -11 -2
13 -2 10 39 26 1 -13 -3
12 -4 9 36 24 -1 -15 -4
16 -1 9 34 22 -3 -16 -4
15 -2 8 33 19 -4 -17 -3
15 -2 6 30 16 -6 -19 -5
17 -2 4 27 11 -10 -20 -6
14 -2 5 26 10 -10 -20 -6
13 -1 5 26 11 -10 -20 -6
10 -5 3 22 7 -13 -22 -8
12 -10 0 19 5 -15 -24 -10
13 -7 0 18 4 -15 -23 -11
13 -2 2 19 6 -14 -21 -9
13 0 5 19 8 -12 -18 -6
15 1 4 18 6 -11 -18 -5
10 -1 1 14 3 -12 -20 -7
6 -2 3 15 2 -12 -18 -4
3 -2 3 15 2 -12 -18 -2
5 2 3 15 3 -11 -18 -2
4 3 3 14 3 -11 -17 -3
1 -4 2 12 1 -13 -19 -6
0 -4 1 9 0 -14 -21 -11
3 -1 1 7 -3 -14 -22 -13
3 0 3 7 -1 -14 -20 -11
4 2 5 8 -1 -11 -18 -8
1 0 3 5 -3 -13 -18 -9
1 1 3 3 -4 -12 -16 -8
2 2 5 6 -2 -10 -13 -5
0 1 4 5 -2 -10 -15 -5
-3 -1 4 4 -2 -10 -14 -5
-1 -1 3 3 -3 -11 -15 -6
-1 -1 4 2 -2 -10 -17 -7
2 0 4 1 -4 -11 -18 -8
1 -3 2 -2 -7 -13 -19 -8
1 1 0 -2 -9 -15 -20 -10
4 3 -1 -3 -9 -14 -18 -11
0 0 1 -3 -9 -13 -17 -13
2 3 1 -4 -8 -14 -16 -14
6 3 -1 -6 -10 -17 -19 -16
4 0 0 -6 -10 -17 -19 -12
1 -3 2 -4 -8 -15 -17 -5
-2 -4 1 -6 -8 -16 -19 -7
1 -4 0 -7 -8 -16 -19 -7
3 -6 0 -7 -10 -17 -18 -7
-5 -12 -1 -8 -11 -17 -18 -9
-4 -10 -1 -8 -11 -17 -17 -11
-7 -7 1 -7 -10 -15 -17 -12
-5 -3 3 -4 -7 -13 -15 -15
-1 0 3 -3 -5 -12 -15 -17
-1 -1 3 -3 -6 -12 -15 -15
1 -1 1 -5 -7 -14 -18 -12
1 -2 0 -6 -6 -14 -20 -10
-1 -4 0 -6 -6 -14 -19 -10
-1 -5 0 -7 -8 -14 -19 -11
0 -8 0 -7 -7 -14 -19 -13
-1 -6 -1 -8 -9 -15 -20 -15
-2 -3 0 -6 -7 -15 -18 -13
-5 -5 2 -4 -6 -13 -16 -11
-5 -2 3 -2 -3 -11 -15 -8
-7 -1 5 0 -1 -8 -12 -7
-9 -2 6 1 1 -7 -11 -5
-6 -2 7 2 3 -4 -10 -5
-4 -1 6 1 3 -5 -11 -5
-4 -1 5 0 2 -5 -12 -5
-1 2 6 0 2 -4 -10 -4
-4 2 3 -3 0 -7 -13 -7
-1 2 3 -2 0 -7 -13 -7
0 2 3 -2 0 -8 -13 -7
1 2 3 -1 0 -7 -12 -6
2 4 3 0 1 -6 -10 -5
0 -1 5 1 4 -5 -9 -4
1 0 8 3 7 -2 -9 -4
4 2 7 3 5 -2 -9 -5
2 3 6 1 4 -4 -11 -8
3 4 6 2 5 -3 -10 -7
-3 1 6 1 5 -2 -10 -7
-5 0 6 2 5 -3 -10 -5
-3 2 8 4 6 -3 -9 -5
-6 0 9 5 6 0 -8 -3
-9 -1 9 5 7 0 -8 -4
-11 -3 11 7 9 1 -8 -4
-9 -3 10 6 8 0 -9 -6
1 1 9 5 6 -1 -10 -7
5 3 9 5 7 0 -10 -7
3 4 9 4 7 0 -9 -8
3 4 6 4 7 1 -9 -8
-3 -1 3 1 3 -3 -11 -10
-6 -2 4 2 4 -3 -9 -8
-6 -3 4 1 4 -3 -9 -8
-9 -9 4 1 2 -4 -11 -11
-8 -8 5 1 3 -5 -14 -10
-6 -3 7 3 5 -3 -14 -8
2 2 9 4 6 -1 -13 -6
2 5 10 7 7 0 -11 -3
-1 5 9 6 5 0 -11 -3
1 5 7 4 4 -2 -13 -5
1 4 7 3 4 -2 -12 -4
-7 1 9 5 5 -2 -10 -3
-6 2 9 6 5 0 -10 -2
-1 6 10 6 7 0 -9 -1
-4 3 7 4 4 -2 -11 1
-5 1 8 3 4 -3 -12 1
-7 -2 9 4 4 -1 -11 -2
-2 1 8 2 3 -3 -13 -8
-1 2 7 3 3 -3 -14 -10
-4 0 6 0 1 -5 -15 -9
-3 3 6 0 0 -6 -15 -4
0 4 7 1 0 -6 -16 -3
-2 2 6 1 -1 -7 -18 -6
-2 2 6 0 0 -8 -17 -8
-4 1 5 0 -1 -9 -19 -9
-6 0 5 0 -2 -10 -20 -9
-6 0 3 -1 -3 -9 -20 -8
-6 -2 5 -2 -3 -10 -19 -7
-7 -1 6 -1 -3 -8 -18 -6
-8 0 7 -1 -2 -8 -17 -6
-9 0 7 0 -2 -9 -17 -4
-5 -1 7 1 -2 -9 -17 -3
-6 -1 5 -2 -4 -10 -20 -5
-6 1 7 -1 -2 -10 -19 -4
-8 -2 5 -2 -3 -11 -21 -6
-13 -4 5 -2 -4 -11 -21 -8
-12 -5 6 -1 -4 -10 -20 -7
-11 -5 5 -4 -6 -12 -21 -8
-8 -4 3 -5 -7 -12 -22 -10
-4 0 4 -4 -7 -11 -21 -10
-5 -2 2 -5 -8 -13 -22 -9
-2 0 3 -4 -7 -13 -20 -8
-1 -1 4 -4 -7 -12 -19 -7
-2 -1 4 -4 -7 -12 -21 -8
0 1 5 -3 -6 -11 -21 -8
4 1 4 -4 -7 -12 -23 -10
2 -2 4 -4 -8 -12 -23 -10
0 -1 5 -4 -8 -12 -22 -10
-8 -4 6 -4 -7 -11 -22 -10
-12 -2 6 -3 -6 -10 -20 -9
-12 -1 5 -3 -7 -11 -19 -8
-8 1 5 -3 -7 -11 -19 -8
-3 5 6 -3 -7 -11 -19 -7
-2 6 6 -2 -5 -11 -20 -6
-3 9 9 1 -3 -8 -16 -5
-2 15 12 3 1 -4 -14 -2
-2 16 12 2 -1 -5 -15 -1
0 15 12 2 -1 -5 -14 -1
-7 11 13 2 -1 -5 -13 -1
-13 11 15 2 0 -3 -12 -3
-11 16 15 2 0 -2 -12 -5
-8 19 14 2 -1 -4 -14 -9
-8 19 14 2 -1 -4 -15 -9
-7 22 14 2 1 -3 -12 -1
-7 21 12 -1 0 -4 -13 1
-6 22 12 0 2 -3 -12 -1
-3 24 10 -1 1 -1 -12 -1
0 21 6 -3 -1 -3 -13 -2
3 22 2 -3 -1 -2 -11 1
4 19 -2 -5 -3 -4 -13 3
6 21 0 -2 0 0 -9 8
13 29 -2 -2 0 0 -6 9
10 27 -2 -1 2 3 -5 12
10 24 -2 0 3 4 -3 10
10 21 -2 0 4 3 -3 6
9 24 -1 -1 2 2 -5 0
10 29 0 -2 0 1 -6 0
6 28 1 -3 0 2 -6 2
3 29 1 -4 -1 1 -5 7
5 30 1 -5 -3 -1 -6 9
6 27 -1 -9 -7 -5 -9 9
2 24 -2 -9 -8 -6 -11 7
-4 21 -2 -9 -8 -6 -11 6
-5 18 -2 -9 -8 -6 -12 5
-3 18 -2 -10 -9 -9 -14 3
-6 14 -2 -12 -10 -10 -17 -2
-5 11 0 -9 -10 -10 -18 -3
-5 9 1 -9 -11 -12 -18 -4
-7 8 1 -8 -12 -12 -19 -4
-8 10 1 -8 -11 -13 -19 -5
-8 4 -2 -12 -16 -17 -22 -9
-8 2 -3 -14 -17 -18 -24 -11
-8 6 -2 -13 -17 -18 -23 -9
-12 2 -4 -15 -19 -20 -27 -11
-13 1 -3 -14 -19 -20 -26 -12
-14 1 -1 -13 -16 -18 -24 -12
-15 -2 -1 -13 -18 -19 -24 -13
-16 -6 -1 -14 -19 -19 -23 -12
-18 -6 -2 -14 -19 -20 -24 -14
-15 -4 -2 -15 -20 -21 -24 -16
-6 0 -1 -15 -20 -20 -23 -16
-6 1 -3 -16 -21 -22 -25 -18
-6 3 -4 -17 -22 -23 -26 -17
-9 0 -4 -16 -22 -23 -27 -16
-14 -3 -4 -16 -21 -22 -27 -17
-8 3 -5 -17 -23 -24 -30 -19
-11 -1 -5 -17 -23 -24 -31 -18
-21 -10 -4 -16 -22 -21 -29 -17
-21 -11 -3 -16 -21 -22 -26 -15
-17 -9 -5 -16 -22 -23 -26 -15
-14 -7 -5 -18 -22 -23 -24 -11
-10 -3 -4 -18 -23 -24 -24 -10
-12 -2 -3 -16 -20 -23 -24 -10
-12 1 4 -8 -12 -16 -23 -10
-12 1 10 1 -4 -11 -24 -14
-17 -7 19 14 8 -4 -26 -24
-22 -9 34 38 30 12 -25 -28
-18 -12 47 62 51 25 -29 -35
-14 -15 62 86 71 38 -30 -42
-14 -16 70 104 85 48 -32 -49
-10 -11 72 113 92 56 -25 -48
-4 2 65 108 88 58 -16 -37
-2 22 53 90 77 58 2 -18
3 38 46 81 74 63 24 7
16 55 42 81 80 75 49 35
25 71 34 78 82 83 73 61
32 91 21 64 83 96 108 90
44 119 -4 37 77 114 153 130
56 145 -32 -4 49 117 198 171
70 172 -62 -46 13 114 240 216
80 194 -101 -97 -36 106 287 258
83 216 -135 -149 -77 110 340 299
86 225 -151 -177 -92 132 394 323
78 209 -156 -193 -107 143 425 319
73 190 -151 -195 -114 146 424 301
67 166 -154 -196 -130 122 376 268
52 146 -160 -207 -163 68 298 231
34 130 -150 -209 -193 -5 187 177
15 104 -140 -206 -216 -78 66 115
2 82 -136 -190 -220 -115 -8 72
-2 60 -136 -175 -217 -137 -51 36
-7 32 -132 -163 -215 -149 -72 8
-14 8 -123 -147 -207 -156 -83 -13
-15 -10 -117 -125 -190 -152 -89 -29
-14 -21 -113 -101 -163 -135 -83 -35
-9 -22 -105 -82 -140 -119 -78 -35
-6 -25 -91 -67 -120 -104 -72 -35
-4 -25 -72 -50 -102 -89 -64 -34
-4 -25 -57 -33 -83 -76 -56 -32
-7 -29 -42 -21 -68 -64 -52 -32
-5 -30 -28 -11 -54 -56 -48 -34
-5 -31 -18 -6 -42 -47 -44 -33
-4 -29 -13 -9 -37 -43 -41 -31
-4 -24 -9 -13 -32 -38 -39 -27
-7 -24 -8 -16 -31 -36 -38 -25
-2 -17 -7 -14 -28 -31 -36 -22
-1 -13 -6 -14 -26 -29 -31 -20
-8 -13 -6 -14 -23 -28 -29 -16
-7 -8 -6 -14 -21 -27 -29 -15
-7 -7 -3 -13 -18 -24 -27 -12
-11 -7 -2 -13 -16 -23 -24 -12
-13 -8 0 -12 -15 -24 -26 -15
-15 -11 -1 -13 -13 -23 -26 -18
-13 -9 2 -11 -10 -19 -24 -18
-8 -7 0 -14 -12 -21 -25 -21
-8 -10 0 -14 -15 -20 -27 -21
-11 -14 0 -14 -15 -19 -25 -17
-10 -12 -1 -14 -15 -20 -26 -15
-7 -11 -3 -16 -19 -22 -28 -18
-3 -9 -2 -15 -17 -22 -28 -22
-4 -9 0 -12 -13 -21 -24 -23
-4 -8 2 -10 -12 -20 -24 -24
-7 -10 4 -8 -9 -19 -25 -20
-14 -11 6 -8 -8 -17 -25 -16
-14 -10 7 -5 -6 -14 -21 -13
-17 -13 8 -5 -6 -13 -21 -13
-18 -16 5 -8 -9 -15 -22 -17
-15 -12 6 -5 -7 -12 -19 -16
-13 -9 6 -5 -6 -11 -17 -14
-11 -9 7 -3 -5 -10 -16 -11
-10 -11 8 -3 -3 -11 -15 -10
-9 -11 5 -6 -6 -14 -20 -13
-7 -10 7 -6 -4 -12 -19 -12
-7 -11 9 -4 -3 -11 -19 -13
-6 -11 8 -5 -4 -11 -19 -15
-4 -10 7 -6 -6 -12 -20 -18
-9 -14 6 -7 -7 -11 -19 -20
-10 -12 6 -5 -5 -10 -17 -19
-13 -14 5 -6 -5 -11 -18 -15
-12 -12 8 -3 -3 -9 -16 -11
-9 -9 8 -2 0 -8 -15 -11
-11 -12 8 -2 0 -9 -18 -13
-11 -10 10 -2 3 -7 -17 -14
-8 -8 10 -1 3 -5 -14 -13
-2 -7 7 -4 0 -6 -15 -17
-3 -8 7 -3 1 -5 -14 -18
-5 -11 6 -5 0 -5 -13 -18
-7 -12 4 -4 -1 -5 -13 -18
-3 -10 3 -4 0 -5 -12 -18
-2 -9 5 -2 2 -4 -12 -16
-5 -11 6 1 5 -1 -10 -15
-4 -13 6 1 6 -1 -10 -16
-7 -12 7 1 8 0 -9 -18
-9 -11 9 4 11 3 -8 -17
-8 -12 10 5 11 5 -6 -16
-5 -11 9 5 10 5 -7 -16
-3 -10 9 5 10 6 -7 -15
-5 -14 6 5 8 4 -7 -17
-4 -13 6 4 8 4 -7 -18
-7 -14 8 8 12 7 -4 -16
-10 -15 8 9 15 7 -4 -15
-9 -15 8 9 15 7 -5 -15
-6 -16 8 8 17 8 -7 -17
-7 -17 11 12 20 12 -3 -14
-5 -12 11 13 21 13 -1 -14
-5 -13 10 13 21 13 -1 -14
-1 -13 11 13 21 15 1 -13
2 -11 9 13 20 14 1 -12
-1 -11 7 12 19 12 1 -13
1 -7 6 13 21 12 0 -12
3 -7 9 16 26 15 3 -7
6 -10 11 19 29 18 2 -5
2 -9 14 21 34 22 5 -1
-3 -12 13 23 35 23 5 -2
0 -8 14 23 35 24 6 -5
2 -6 14 24 34 24 6 -10
1 -9 14 26 35 26 7 -13
3 -7 15 30 38 28 9 -11
5 -4 13 30 37 28 10 -6
4 -4 14 31 40 30 11 1
7 -4 15 32 42 30 11 2
4 -10 13 32 41 27 9 -4
6 -9 14 33 43 28 9 -6
6 -8 14 35 45 30 10 -3
4 -7 13 34 43 29 9 -4
6 -7 13 35 42 29 10 -1
7 -10 13 36 43 31 11 2
7 -9 14 39 44 31 12 5
6 -6 16 40 46 31 14 6
6 -5 15 42 46 31 14 5
11 -4 13 40 45 29 12 3
13 -2 12 40 44 27 11 3
8 -3 14 41 46 27 11 3
8 -5 14 42 46 27 10 3
6 -3 13 40 43 26 8 1
2 -6 13 39 41 25 7 1
5 -3 13 40 41 25 7 2
7 -2 13 42 41 24 8 5
5 -1 12 40 40 22 7 4
6 -4 12 40 39 20 5 4
6 -7 13 41 40 20 7 6
10 -3 12 40 39 18 5 5
13 -2 14 40 38 18 4 6
10 -4 10 38 35 14 0 4
10 -3 11 36 33 12 -1 4
8 -8 8 33 29 8 -5 2
8 -6 7 32 26 7 -5 1
10 -5 9 33 26 5 -5 2
9 -6 9 32 24 3 -6 2
10 -4 9 32 24 2 -7 4
8 -8 8 29 22 -3 -9 3
7 -7 9 29 23 -3 -11 4
9 -2 9 28 21 -3 -11 3
8 -5 8 26 19 -5 -12 1
6 -6 8 25 17 -7 -13 -1
5 -9 6 22 13 -9 -16 -2
4 -9 4 21 10 -11 -17 -2
6 -6 3 18 7 -14 -19 -1
6 -8 2 16 5 -15 -17 1
5 -11 1 14 4 -17 -20 -1
5 -8 1 14 3 -18 -19 1
4 -7 2 13 4 -17 -19 2
3 -6 2 12 5 -15 -17 2
-1 -5 4 12 7 -14 -17 3
-4 -4 6 13 7 -13 -16 4
-4 -4 5 11 4 -14 -17 4
-6 -9 3 8 0 -15 -16 2
-6 -8 3 7 0 -15 -14 6
0 -4 1 5 -2 -17 -15 7
-2 -5 0 2 -3 -18 -15 7
-4 -5 2 3 -1 -15 -13 9
-2 -7 2 2 -1 -16 -15 8
-1 -7 2 1 -1 -15 -15 4
3 -4 4 2 0 -13 -13 1
1 -6 3 1 -2 -15 -13 -8
-1 -3 4 0 -3 -12 -12 -11
0 0 4 1 -2 -9 -8 -6
-3 -2 5 1 -1 -8 -8 3
-2 -1 4 0 -3 -9 -9 5
-3 -2 2 -3 -5 -11 -11 0
-5 -8 2 -3 -5 -13 -11 -2
-4 -4 3 -4 -5 -13 -11 -2
-7 -5 3 -5 -6 -12 -11 -1
-7 -3 5 -2 -3 -9 -8 1
-6 -2 4 -5 -5 -11 -9 0
-3 -4 3 -6 -7 -11 -10 -1
0 -1 4 -4 -6 -9 -8 2
-2 -2 4 -5 -7 -11 -9 3
-2 -4 4 -6 -9 -12 -9 2
-3 -2 3 -7 -9 -11 -9 2
-8 -6 3 -7 -8 -12 -8 2
-6 -7 3 -8 -7 -12 -9 0
-7 -8 2 -8 -8 -13 -10 -1
-7 -10 3 -9 -8 -12 -9 -3
-9 -10 5 -7 -6 -10 -6 -1
-7 -9 4 -7 -7 -9 -6 -2
-5 -5 4 -9 -8 -11 -8 -2
-6 -3 3 -8 -8 -11 -8 0
-10 -6 3 -8 -8 -10 -7 3
-8 -5 4 -6 -7 -9 -5 2
-7 -4 3 -7 -6 -10 -5 2
-5 -5 2 -6 -6 -10 -6 2
-5 -4 2 -8 -7 -11 -7 -1
-5 -4 0 -10 -8 -13 -10 -3
-8 -5 0 -10 -9 -13 -11 -3
-5 -4 -2 -11 -11 -13 -11 -4
-6 -4 -1 -9 -9 -12 -8 -4
-4 -2 -1 -9 -9 -11 -7 -4
-2 -1 1 -7 -7 -8 -4 -1
-1 -1 2 -5 -5 -6 -3 -1
-2 -5 4 -3 -1 -4 0 1
-3 -5 3 -3 0 -4 -1 2
-2 -4 3 -2 0 -3 0 2
-2 -2 6 1 3 0 3 4
-5 -5 5 -1 1 -1 0 1
-6 -6 4 -2 -1 -2 -3 -1
-5 -5 5 0 0 0 -1 1
-3 -2 5 1 1 0 1 2
-5 0 6 3 4 1 3 6
-6 -1 5 1 3 0 0 5
-3 2 5 3 5 1 2 5
0 3 4 1 5 0 0 4
0 0 4 1 5 0 1 4
0 0 5 2 5 1 1 3
-4 0 6 3 7 3 5 3
-6 1 7 4 8 4 6 3
-3 0 5 4 6 5 7 4
-1 3 5 4 6 3 5 3
-3 0 6 4 6 3 6 4
-5 0 7 6 8 5 6 6
-6 0 6 5 8 5 7 5
-3 1 7 6 10 6 8 6
-2 -1 6 6 10 6 8 5
-1 -4 6 6 10 6 7 4
1 -3 5 4 7 5 7 3
-4 -4 5 4 6 4 7 3
-3 -1 6 5 7 5 10 5
-1 0 5 4 6 3 8 6
-5 -2 5 6 5 3 6 10
-4 -1 5 6 7 3 6 12
-3 -2 5 6 7 4 8 14
-2 -2 6 6 9 3 8 11
0 1 6 6 9 3 8 5
-3 0 7 6 9 4 7 -4
-5 -1 8 6 8 3 6 -10
-2 2 8 6 8 2 5 -7
-5 1 7 7 7 3 6 1
-5 1 7 6 6 3 6 6
-3 0 4 4 4 1 4 4
-5 -6 4 4 5 0 2 6
-5 -6 6 6 8 1 4 8
-2 -3 6 4 6 -1 1 5
0 0 7 5 8 1 3 5
1 2 8 5 6 0 2 5
-1 -1 7 4 5 -1 0 2
-1 0 8 5 6 0 1 4
-2 0 6 4 4 -2 1 5
-2 0 6 4 4 -2 0 4
4 2 3 1 1 -5 -2 2
-2 -3 2 0 0 -6 -4 -1
-4 -8 4 1 1 -5 -3 -1
-3 -6 4 0 1 -6 -4 -2
-4 -5 4 0 2 -6 -4 -3
-5 -5 7 1 3 -4 -3 -1
-3 -8 7 2 3 -4 -3 0
-2 -5 6 3 1 -4 -4 1
3 -1 7 4 0 -5 -3 1
5 -1 6 2 -1 -6 -5 0
4 -2 6 3 0 -6 -5 0
-3 -6 5 2 0 -5 -5 0
-7 -9 6 2 0 -5 -5 0
-6 -9 7 4 1 -5 -4 0
-11 -12 8 4 1 -6 -5 1
-11 -14 6 2 -1 -7 -7 0
-7 -13 6 0 -2 -8 -7 -1
-8 -15 5 0 -3 -7 -7 -1
-6 -14 6 -1 -3 -7 -7 -1
-3 -12 6 0 -2 -6 -6 -1
2 -8 8 2 -1 -4 -5 1
5 -3 9 4 2 -3 -3 3
2 -3 10 4 2 -4 -4 1
-1 -3 8 3 3 -3 -5 0
-3 -2 9 5 3 -3 -5 1
-2 1 11 6 5 -1 -4 2
-2 2 13 7 6 1 -1 4
-4 1 13 6 6 1 -3 4
-7 1 15 7 6 2 0 6
-4 5 17 8 7 3 1 6
-3 4 18 7 7 3 0 6
-1 10 18 8 8 3 1 7
0 15 20 8 10 4 1 9
-1 13 18 8 8 2 -1 8
3 16 20 10 11 3 0 10
4 17 16 7 10 4 0 9
5 14 14 5 9 5 1 9
6 13 13 3 9 6 2 10
6 11 10 4 8 6 4 10
8 12 7 2 6 5 4 7
13 14 5 2 7 7 4 8
13 16 6 6 10 7 5 15
13 18 5 7 11 9 8 20
17 20 4 6 12 10 7 18
17 17 2 5 12 9 6 14
17 20 4 6 13 10 7 15
10 17 5 4 12 10 7 16
6 18 7 5 12 11 8 16
7 21 9 6 12 12 8 14
4 19 9 5 11 10 7 13
4 15 6 2 8 6 4 13
2 10 4 0 5 3 2 15
0 10 4 -1 3 1 1 15
2 9 5 -1 4 1 1 15
2 6 6 0 6 4 3 16
6 6 5 -2 4 2 1 13
9 5 5 -2 3 0 -2 11
5 -2 4 -3 0 -2 -6 7
0 -7 7 -1 0 -2 -7 4
-4 -11 7 -1 -2 -4 -9 1
-9 -13 9 0 -1 -4 -9 0
-7 -11 6 -3 -4 -7 -12 -1
-6 -13 5 -3 -5 -8 -11 -1
-4 -13 7 -2 -3 -6 -11 -1
-1 -12 6 -3 -3 -6 -13 -2
1 -13 6 -6 -6 -10 -15 -5
1 -12 6 -6 -6 -10 -16 -3
-1 -9 6 -5 -7 -8 -16 -2
-1 -10 5 -6 -8 -10 -17 -2
-3 -11 5 -7 -9 -10 -17 -1
-8 -13 6 -6 -8 -9 -16 -1
-12 -16 8 -4 -7 -7 -14 -1
-11 -17 8 -4 -6 -8 -13 -1
-12 -18 6 -6 -8 -8 -14 -3
-7 -16 5 -7 -7 -9 -14 -2
-5 -14 6 -6 -6 -8 -14 0
-6 -15 7 -6 -6 -7 -12 2
-5 -14 6 -6 -7 -6 -12 3
-8 -16 5 -6 -8 -8 -12 3
-9 -18 5 -7 -9 -8 -14 1
-8 -17 2 -9 -12 -11 -16 -3
-9 -16 2 -10 -12 -11 -16 -4
-5 -15 6 -7 -8 -9 -13 -3
-6 -16 8 -4 -6 -7 -13 -4
-10 -19 12 1 0 -6 -17 -8
-13 -18 22 11 9 0 -17 -11
-13 -19 31 26 24 10 -18 -16
-10 -22 43 47 41 25 -19 -23
-12 -27 59 73 66 40 -19 -29
-14 -34 74 99 87 54 -20 -34
-15 -31 82 118 103 66 -15 -32
-11 -22 82 124 109 73 -10 -25
-1 -5 70 112 99 70 -1 -13
9 16 60 96 89 72 18 12
12 29 52 90 89 79 41 35
17 43 48 91 94 91 68 59
24 63 40 84 95 100 94 84
34 88 26 69 95 114 130 115
50 116 2 40 84 133 180 156
62 142 -25 0 52 132 225 197
73 166 -57 -42 13 127 268 238
86 190 -98 -96 -37 119 319 281
94 208 -130 -144 -74 126 375 313
95 206 -146 -170 -89 146 426 330
88 186 -153 -187 -107 154 449 325
82 163 -151 -188 -116 149 436 304
78 143 -157 -191 -138 117 382 274
61 128 -157 -201 -173 55 298 233
39 112 -145 -199 -202 -23 175 174
24 92 -136 -193 -220 -93 55 117
12 67 -136 -175 -220 -127 -18 73
6 44 -132 -158 -213 -140 -54 40
0 19 -125 -144 -207 -148 -70 16
-10 -6 -114 -125 -194 -150 -77 -3
-10 -22 -106 -100 -171 -138 -76 -15
-9 -31 -101 -77 -145 -119 -70 -23
-7 -35 -89 -60 -123 -102 -65 -23
-6 -34 -75 -47 -106 -87 -59 -24
-7 -33 -59 -32 -87 -73 -53 -21
-5 -35 -46 -17 -71 -61 -49 -21
-6 -40 -31 -5 -55 -51 -45 -21
-5 -40 -17 2 -41 -41 -40 -22
-4 -38 -9 4 -31 -33 -36 -22
-8 -39 -5 -1 -29 -30 -36 -23
-6 -32 -2 -6 -25 -27 -32 -20
-3 -24 0 -7 -21 -22 -28 -16
-4 -24 0 -7 -20 -18 -27 -12
-3 -21 0 -5 -18 -15 -21 -8
-7 -21 0 -7 -17 -14 -20 -7
-8 -21 1 -7 -16 -14 -19 -9
-8 -19 3 -5 -12 -13 -18 -5
-13 -19 4 -5 -9 -11 -17 -3
-9 -13 7 -4 -7 -9 -16 -4
-10 -13 8 -3 -6 -9 -18 -6
-8 -16 7 -5 -6 -9 -19 -8
-6 -16 7 -6 -7 -8 -19 -9
-6 -15 7 -6 -7 -8 -18 -8
-3 -13 6 -5 -8 -7 -16 -9
-2 -12 5 -7 -9 -8 -15 -11
-4 -14 5 -7 -10 -9 -17 -13
-5 -14 8 -3 -6 -7 -15 -8
-5 -13 7 -4 -5 -8 -17 -8
-11 -14 10 -3 -3 -7 -17 -7
-12 -16 12 -1 0 -5 -15 -6
-9 -15 12 0 0 -3 -13 -5
-9 -14 11 -1 -2 -3 -12 -6
-8 -12 12 0 -2 -2 -12 -4
-8 -13 11 0 -3 -1 -13 -4
-6 -15 11 -1 -5 -2 -12 -4
-7 -15 10 -1 -5 -3 -13 -6
-9 -15 12 0 -3 -3 -11 -8
-9 -13 12 2 0 -2 -12 -12
-11 -15 13 2 2 -1 -12 -14
-10 -18 13 2 3 -1 -13 -12
-10 -17 12 0 2 -1 -13 -11
-11 -17 12 0 0 -1 -12 -9
-9 -16 14 1 -1 1 -11 -8
-7 -14 12 2 0 3 -11 -5
-7 -12 11 0 -1 1 -10 -7
-4 -9 12 3 2 2 -9 -5
-2 -8 13 3 4 3 -9 -4
-6 -10 11 3 6 2 -9 -3
-7 -11 10 1 7 1 -9 -5
-9 -15 12 3 9 3 -10 -6
-9 -18 12 2 10 6 -8 -8
-8 -17 12 3 9 7 -7 -10
-3 -13 14 4 10 7 -6 -10
0 -6 14 4 10 9 -5 -11
0 -7 12 4 11 9 -5 -11
0 -7 12 5 11 9 -4 -9
4 -6 10 4 12 8 -6 -7
1 -7 9 4 13 7 -7 -9
2 -8 10 3 12 5 -10 -12
0 -13 12 5 14 8 -9 -12
-2 -16 11 4 14 8 -10 -14
-3 -15 12 6 16 12 -7 -13
1 -15 11 6 15 11 -6 -13
0 -14 10 7 15 14 -4 -11
-3 -10 13 11 20 18 1 -6
-5 -8 12 11 20 19 1 -7
-5 -9 10 10 21 18 1 -6
-4 -11 11 11 22 18 0 -7
-1 -9 13 13 26 19 0 -8
0 -7 14 15 28 22 1 -8
-3 -12 13 14 28 22 -1 -10
-3 -12 12 13 27 23 -1 -10
-2 -12 12 13 27 22 1 -9
-2 -14 11 14 26 25 4 -9
-3 -13 11 15 27 25 5 -9
-4 -10 11 15 28 26 4 -10
0 -7 13 19 33 29 5 -7
3 -5 12 20 36 30 7 -5
3 -6 14 21 38 30 6 -5
2 -7 16 23 41 34 7 -5
6 -3 16 24 44 36 9 -5
6 -5 16 25 41 36 8 -3
7 -4 16 27 42 38 9 0
3 -3 15 29 44 39 10 2
0 -2 14 29 44 38 10 2
3 1 13 29 44 36 9 1
2 -1 13 30 46 36 10 -1
3 0 14 31 49 38 11 -4
6 2 16 34 52 41 14 -5
4 0 15 35 54 42 14 -7
6 1 17 37 56 44 16 -3
7 1 17 38 56 46 18 4
7 -2 17 39 56 46 18 7
5 -3 16 39 55 46 17 7
3 -8 13 38 53 44 15 5
9 -6 13 38 52 41 14 2
9 -3 14 40 54 42 15 1
5 -3 13 39 54 41 15 -1
8 -2 14 41 57 41 15 3
11 -4 16 42 60 43 16 8
13 -2 17 44 60 45 17 10
13 0 17 44 59 45 17 9
9 -3 16 43 57 42 16 10
13 -1 16 42 53 40 15 10
13 -2 14 42 52 38 13 11
7 -5 13 42 52 36 12 11
9 -4 12 41 51 33 10 11
7 -6 12 40 52 32 8 9
5 -8 13 39 52 28 7 5
6 -7 14 39 52 28 5 3
8 -8 12 38 48 26 3 4
14 -5 11 37 46 25 2 4
14 -9 11 36 44 24 2 5
13 -11 11 35 42 20 0 7
13 -7 10 33 39 18 -2 7
11 -3 11 33 39 16 -4 7
10 -4 11 33 39 14 -6 7
11 -5 10 31 38 11 -9 6
9 -8 8 29 35 7 -11 4
6 -7 10 28 34 7 -10 6
3 -8 9 27 34 6 -12 4
1 -9 9 25 31 5 -12 4
3 -7 9 24 29 5 -12 4
6 -7 7 22 27 3 -13 5
8 -7 5 19 25 -1 -15 3
8 -7 5 20 23 -2 -16 3
11 -7 5 17 20 -5 -19 2
13 -4 4 14 19 -6 -20 2
8 -5 5 14 20 -6 -21 2
0 -7 7 15 21 -5 -19 3
1 -4 7 16 22 -2 -15 4
0 -4 6 14 21 -1 -14 4
-1 -6 5 12 17 -3 -16 3
5 -3 4 10 15 -4 -15 3
4 -5 1 6 11 -8 -17 1
2 -3 2 7 12 -7 -15 2
5 -1 3 6 12 -6 -15 5
4 -3 3 5 12 -6 -15 4
5 2 5 7 14 -4 -13 5
1 0 4 6 12 -4 -14 4
0 -2 4 4 10 -5 -14 3
-4 -4 5 5 11 -2 -11 4
-7 -5 4 4 10 -2 -11 3
-5 -5 3 4 8 -2 -11 1
-5 -4 2 3 7 -2 -12 -2
-6 -3 2 1 6 -5 -12 -1
-4 -1 3 2 7 -5 -11 3
-1 0 4 1 7 -5 -10 3
-3 0 4 -1 6 -5 -12 1
-3 -1 5 0 6 -5 -11 0
-2 -4 5 -1 6 -5 -12 -1
-3 -4 6 -1 6 -5 -12 -1
-4 -5 5 -2 3 -6 -12 -2
-2 -7 2 -4 1 -8 -12 -3
-2 -7 2 -5 -1 -9 -12 -3
-2 -4 -1 -7 -4 -11 -15 -6
0 -5 0 -6 -2 -10 -16 -5
-2 -7 2 -5 1 -10 -16 -4
-2 -7 2 -7 0 -12 -18 -7
-5 -6 2 -7 0 -10 -17 -6
-5 -5 4 -5 1 -8 -14 -3
-4 -2 3 -6 -1 -9 -15 -4
-1 -3 5 -4 0 -7 -12 -1
-5 -5 3 -4 -1 -7 -11 -2
-5 -5 2 -5 -2 -7 -11 -2
-3 -5 0 -5 -2 -8 -11 -3
-6 -7 1 -5 -1 -8 -11 -2
-5 -6 2 -5 0 -8 -13 -4
-4 -4 1 -5 0 -8 -14 -5
-4 -4 1 -5 1 -9 -14 -6
-3 -4 3 -2 3 -5 -12 -3
-3 -3 2 -4 0 -7 -13 -5
-1 -2 1 -4 -1 -7 -14 -4
-5 -3 1 -4 -1 -6 -12 -4
-8 -3 1 -4 -1 -7 -12 -5
-6 -2 1 -4 -1 -6 -10 -4
-5 -3 2 -2 1 -4 -8 -2
-6 -5 2 -3 2 -3 -8 -3
-3 -4 2 -3 3 -3 -8 -4
-3 -7 -1 -4 2 -3 -9 -6
-2 -6 0 -3 4 -3 -8 -5
-2 -4 1 -3 3 -3 -8 -5
-2 -4 -2 -5 1 -4 -10 -5
5 2 -2 -5 0 -4 -9 -4
6 4 2 -1 4 1 -5 -1
-1 2 3 1 5 1 -3 -2
0 5 2 0 5 0 -6 -3
1 2 1 -2 4 -2 -8 -6
2 0 0 -2 5 -2 -8 -7
0 -1 0 -1 4 -2 -8 -6
-2 1 3 1 7 1 -5 -1
0 5 4 2 8 5 -1 3
-1 4 2 2 6 4 -2 4
-2 4 3 3 7 5 -1 7
-2 5 4 2 8 5 0 8
-3 5 5 3 8 5 1 5
0 6 4 4 9 5 1 2
0 5 5 5 9 6 2 0
-1 3 4 4 9 4 0 -2
1 5 4 4 7 3 -3 -1
3 4 4 3 7 3 -2 -2
1 3 3 2 6 3 -3 -6
0 5 4 4 7 4 -1 -5
-3 2 1 3 5 4 -1 -3
0 3 0 0 3 2 -3 -4
3 5 2 3 4 4 -2 -1
3 7 3 4 6 4 -2 -1
0 6 3 3 6 3 -4 -2
-2 2 2 2 6 2 -7 -3
-3 3 3 3 5 2 -8 -4
-4 2 4 3 6 2 -7 -4
-7 0 4 4 6 3 -6 -3
-7 1 3 3 4 3 -5 -3
-5 3 1 2 2 1 -4 -2
-1 4 -2 -1 0 -1 -7 -3
-1 4 -2 0 0 -2 -7 -3
-4 1 -2 -1 -1 -3 -8 -3
0 3 -1 -1 0 -3 -8 -5
9 7 2 1 2 -1 -6 -5
5 5 2 1 2 0 -7 -5
1 5 1 1 1 -2 -8 -6
2 1 -1 -1 -2 -4 -10 -9
-1 -1 -2 -2 -5 -6 -12 -9
0 1 -2 -2 -4 -5 -11 -7
2 1 -1 -2 -6 -6 -11 -4
7 6 -1 -2 -6 -6 -11 -4
7 8 0 -1 -4 -4 -10 -5
4 4 -1 -1 -4 -5 -12 -9
1 3 1 0 -3 -6 -12 -11
0 4 1 0 -2 -5 -12 -12
1 4 3 3 -1 -3 -11 -11
2 7 2 1 -2 -4 -11 -11
0 8 4 2 -2 -3 -10 -9
2 11 4 2 -2 -2 -9 -6
4 14 3 3 -3 -2 -7 -2
3 14 3 1 -4 -3 -7 -2
1 14 6 2 -1 -3 -6 -2
3 15 8 4 1 -1 -6 -3
4 16 12 6 2 1 -7 -4
0 19 13 7 5 3 -6 -5
-4 17 14 8 6 4 -4 -9
-3 19 14 6 5 3 -4 -13
0 23 12 5 1 2 -5 -14
1 23 10 4 1 4 -4 -9
2 26 11 7 2 3 -3 -2
1 32 10 6 3 5 0 2
0 31 6 3 2 3 0 1
6 35 2 0 1 3 1 3
6 34 0 -1 1 4 1 3
8 34 0 -1 1 5 2 4
8 36 1 1 3 8 5 5
7 37 1 2 3 9 7 2
7 41 1 3 4 11 9 3
9 43 0 3 4 10 8 5
8 39 0 1 1 6 5 6
11 38 -4 -2 -3 3 2 5
9 35 -7 -3 -4 1 0 5
11 33 -7 -3 -5 0 -1 5
13 33 -5 -2 -4 1 -1 2
18 37 -6 -2 -5 1 -2 -1
17 38 -4 0 -2 3 0 0
10 34 -3 1 -2 4 0 0
8 31 -4 1 -4 4 0 0
11 28 -3 0 -5 1 -1 0
9 27 -3 -1 -9 -3 -5 -3
9 24 -4 -3 -12 -7 -9 -6
2 16 -4 -3 -15 -10 -13 -10
0 10 -4 -6 -16 -13 -16 -15
4 8 -4 -6 -17 -14 -19 -19
4 7 -5 -7 -17 -14 -21 -21
3 3 -6 -8 -19 -15 -24 -25
5 1 -7 -9 -21 -17 -25 -24
3 0 -6 -8 -19 -15 -24 -21
0 1 -2 -5 -19 -12 -18 -16
2 2 -4 -7 -21 -15 -19 -19
2 2 -6 -9 -24 -19 -21 -23
-5 -2 -5 -8 -23 -19 -22 -25
-5 -3 -4 -8 -23 -20 -23 -25
-2 -3 -4 -8 -23 -20 -24 -21
-3 -4 -3 -7 -22 -19 -24 -22
-6 -6 -6 -9 -23 -20 -26 -26
-3 -3 -4 -8 -23 -19 -24 -27
-1 -1 -6 -9 -24 -18 -25 -26
0 -2 -8 -10 -27 -20 -26 -26
0 -1 -7 -11 -27 -20 -24 -27
-1 -2 -8 -11 -27 -21 -26 -31
-1 -2 -7 -10 -25 -19 -25 -31
1 2 -2 -6 -21 -17 -21 -25
1 1 -2 -7 -20 -16 -23 -21
1 -2 -4 -9 -23 -18 -26 -23
0 -6 -8 -12 -26 -21 -29 -24
-1 -7 -8 -14 -27 -24 -29 -28
1 -3 -6 -12 -26 -20 -28 -29
1 -1 0 -4 -19 -15 -26 -27
-1 -3 9 7 -8 -8 -25 -27
-4 -5 19 23 7 1 -27 -33
-13 -13 35 46 30 15 -28 -41
-14 -17 52 72 53 30 -29 -51
-8 -18 66 97 73 42 -32 -61
-9 -21 75 116 89 55 -31 -62
-3 -10 76 122 95 63 -24 -55
0 5 66 111 86 63 -13 -41
7 27 52 93 73 62 4 -19
15 43 45 88 71 70 28 5
21 58 39 87 76 79 54 30
28 78 33 83 82 91 85 58
35 99 15 65 80 106 124 91
48 126 -13 32 66 121 174 133
61 150 -41 -6 35 123 222 176
72 173 -75 -50 -4 118 267 216
80 196 -117 -103 -55 112 319 260
82 214 -149 -149 -90 125 377 297
86 217 -164 -172 -105 149 432 318
87 206 -166 -183 -119 161 464 313
79 182 -162 -182 -128 156 454 292
73 158 -166 -184 -150 120 398 257
62 145 -167 -192 -184 51 308 216
41 127 -155 -190 -214 -37 178 158
29 106 -149 -184 -233 -110 50 99
20 79 -147 -168 -231 -144 -26 53
8 51 -144 -151 -224 -159 -66 18
5 28 -135 -138 -220 -166 -84 -8
1 6 -126 -120 -208 -165 -92 -29
4 -9 -119 -95 -182 -150 -89 -41
9 -14 -112 -71 -154 -127 -81 -45
5 -20 -100 -56 -131 -110 -74 -46
1 -22 -81 -39 -111 -93 -66 -41
1 -22 -64 -24 -92 -81 -59 -38
5 -24 -49 -10 -75 -68 -54 -37
7 -27 -31 2 -56 -54 -48 -38
6 -29 -20 7 -46 -47 -45 -42
6 -28 -14 6 -39 -41 -43 -43
5 -22 -11 -1 -37 -36 -42 -40
3 -21 -9 -6 -35 -31 -39 -34
8 -15 -9 -9 -34 -29 -37 -34
4 -12 -7 -8 -32 -28 -36 -36
2 -15 -7 -7 -30 -25 -32 -38
0 -14 -5 -7 -26 -23 -29 -35
-3 -14 -4 -7 -23 -23 -30 -32
-7 -16 -4 -8 -22 -22 -31 -30
-4 -15 -1 -6 -19 -21 -28 -28
-2 -13 0 -7 -18 -19 -27 -28
-4 -13 1 -5 -16 -15 -25 -27
-2 -10 3 -6 -15 -15 -22 -26
-5 -12 2 -6 -16 -15 -23 -24
-3 -9 0 -7 -18 -15 -25 -25
-1 -7 1 -6 -18 -15 -23 -25
2 -7 2 -5 -16 -16 -22 -27
6 -8 1 -4 -15 -16 -24 -31
3 -12 1 -5 -14 -15 -25 -33
1 -13 2 -5 -13 -15 -25 -32
-4 -14 3 -5 -12 -13 -24 -31
-5 -12 4 -4 -12 -11 -23 -31
-2 -8 5 -2 -11 -10 -20 -29
-3 -9 6 -3 -12 -10 -19 -30
-7 -9 6 -3 -13 -8 -20 -29
-1 -4 7 0 -11 -7 -18 -25
1 -4 6 0 -10 -9 -20 -25
0 -6 7 2 -8 -8 -20 -25
0 -8 8 1 -8 -8 -22 -24
0 -11 7 0 -8 -11 -23 -29
-1 -11 7 -1 -8 -10 -24 -30
-3 -12 7 -1 -8 -8 -22 -30
-1 -10 7 -1 -9 -7 -19 -29
1 -10 5 -3 -11 -9 -20 -31
-1 -11 3 -3 -12 -9 -20 -31
2 -9 8 2 -8 -6 -15 -26
5 -4 9 3 -4 -4 -14 -22
4 -4 7 3 -4 -6 -16 -24
3 -4 7 3 -3 -4 -16 -24
-7 -9 9 5 0 -3 -14 -24
-10 -12 11 7 2 0 -13 -23
-8 -13 10 5 1 0 -14 -24
-9 -17 10 5 1 0 -13 -26
-7 -14 9 4 -1 0 -14 -26
-3 -10 7 3 -2 0 -15 -26
-2 -5 8 5 -1 0 -14 -27
2 -2 9 7 2 1 -11 -30
-1 -4 12 10 5 4 -10 -29
-3 -9 11 10 5 3 -12 -29
0 -12 9 8 4 1 -14 -29
5 -11 7 6 4 2 -16 -29
8 -9 8 6 5 5 -14 -27
6 -10 8 7 5 5 -12 -27
2 -10 8 8 6 7 -9 -26
-3 -9 7 9 7 10 -8 -25
-8 -12 10 12 9 11 -5 -23
-2 -9 10 11 9 10 -7 -24
0 -8 10 12 10 11 -8 -25
-1 -7 9 13 13 11 -9 -26
3 -5 11 16 17 13 -5 -26
2 -11 12 16 18 16 -5 -26
1 -12 11 15 18 16 -6 -27
2 -11 11 16 18 17 -4 -27
3 -11 12 18 20 21 -1 -24
5 -3 12 19 19 22 -1 -22
7 -2 10 19 19 20 -1 -21
6 -5 10 20 21 20 0 -20
9 -4 12 22 23 22 1 -18
7 -4 13 25 27 24 2 -17
4 -6 14 26 30 25 3 -17
6 -2 16 28 34 30 4 -17
6 -3 17 30 37 33 6 -18
6 -2 16 29 36 32 8 -20
8 -4 12 27 32 31 6 -23
9 -5 11 28 31 31 6 -23
11 -5 12 30 33 31 8 -19
9 -7 12 30 35 31 8 -15
6 -6 12 32 37 33 7 -13
1 -4 13 35 41 35 8 -11
2 -5 14 35 44 35 10 -11
10 -3 15 37 45 37 10 -11
12 -2 15 38 44 38 10 -13
12 0 15 38 44 38 11 -16
13 2 15 39 44 37 12 -17
11 3 13 40 44 39 12 -15
8 2 16 44 46 41 16 -8
2 0 15 44 48 41 15 -7
1 -1 13 43 47 38 12 -10
8 1 13 43 46 37 9 -11
11 0 14 44 48 36 10 -12
9 -4 13 43 47 36 8 -11
12 -4 13 43 46 36 8 -9
14 -1 13 43 44 35 8 -8
16 3 13 42 43 33 9 -8
20 5 13 45 43 35 10 -3
19 5 13 45 42 33 11 -2
16 8 13 45 42 30 10 -1
9 6 16 49 46 32 10 3
8 6 16 49 46 31 7 1
13 7 17 47 43 28 5 -5
10 3 15 44 41 25 1 -13
12 1 15 44 39 26 2 -18
12 4 14 43 38 25 2 -16
11 3 14 42 37 22 1 -9
11 6 13 41 33 19 -1 -4
9 7 14 43 33 19 -1 -1
12 7 13 42 32 15 -3 -2
12 4 11 40 29 12 -7 -2
8 -2 10 37 26 6 -13 -8
6 -2 10 35 24 5 -14 -9
7 -2 8 32 23 3 -16 -13
3 -5 9 32 22 4 -15 -13
7 -3 8 31 20 3 -15 -12
9 0 7 29 18 1 -16 -12
11 1 6 27 14 -1 -14 -9
14 6 7 28 13 -1 -13 -6
12 5 7 27 14 -2 -12 -6
14 7 6 25 12 -4 -14 -6
14 3 5 22 11 -5 -16 -7
11 1 6 22 10 -6 -15 -8
12 2 6 19 10 -6 -16 -11
8 2 5 18 8 -5 -17 -11
3 0 3 15 5 -7 -17 -10
2 1 4 15 4 -6 -15 -10
-1 2 4 14 2 -5 -15 -9
-1 3 4 13 2 -5 -13 -8
2 6 3 12 0 -7 -13 -6
3 4 3 10 0 -8 -15 -8
12 8 3 10 -1 -8 -14 -9
12 8 4 9 0 -7 -13 -7
6 5 4 8 0 -7 -13 -8
6 5 4 7 -1 -5 -14 -8
-2 0 3 5 -2 -6 -13 -7
-6 -1 2 3 -5 -7 -12 -9
-2 3 4 4 -4 -5 -11 -9
2 6 2 1 -7 -6 -12 -11
6 7 3 3 -5 -6 -10 -8
3 4 2 2 -6 -7 -11 -12
4 6 3 3 -5 -8 -11 -12
1 9 6 5 -3 -5 -9 -8
-9 4 8 6 -1 -3 -8 -4
-9 3 7 3 -3 -3 -10 -6
-7 1 6 1 -5 -4 -9 -8
-9 0 5 -1 -8 -5 -10 -10
-5 3 5 0 -7 -4 -10 -7
-4 5 3 -1 -9 -6 -10 -5
-4 5 1 -3 -10 -9 -11 -7
-4 4 0 -4 -12 -10 -11 -11
-3 3 0 -4 -11 -12 -13 -12
0 4 0 -5 -11 -11 -13 -14
0 1 1 -5 -10 -10 -13 -14
-4 -2 2 -4 -10 -8 -13 -14
-1 -1 0 -6 -12 -10 -14 -13
-1 -2 -1 -8 -15 -12 -15 -13
-2 -2 -2 -7 -15 -11 -14 -9
-8 -3 -1 -6 -14 -9 -11 -5
-11 -4 -2 -6 -14 -11 -11 -5
-12 -3 1 -4 -11 -8 -8 -2
-8 -3 2 -2 -7 -6 -7 -1
-7 -4 3 -1 -7 -6 -6 -2
-5 0 3 -2 -6 -5 -7 -7
-2 4 2 -3 -8 -4 -9 -14
1 7 1 -4 -8 -5 -9 -19
-1 5 2 -4 -8 -3 -6 -19
-5 -1 2 -3 -8 -3 -6 -14
-1 0 0 -4 -10 -5 -5 -8
7 4 -1 -5 -10 -7 -6 -6
4 2 0 -4 -8 -5 -6 -6
1 2 2 -1 -4 -2 -5 -5
-2 3 2 0 -3 -3 -4 -6
-1 3 4 0 -2 -2 -4 -4
1 5 4 1 -1 1 -5 -3
0 3 4 1 -1 1 -2 -4
2 8 5 1 0 4 0 -2
0 8 4 3 0 4 0 -2
-7 5 4 4 2 5 2 0
-7 5 3 3 1 3 2 -1
-5 3 2 2 -1 1 -1 -2
-1 5 2 2 0 1 -2 -3
0 6 1 0 0 1 -2 -5
-5 1 3 0 1 1 -2 -4
-2 1 3 1 1 2 -2 -5
-1 4 3 1 0 2 -1 -6
1 5 4 2 1 3 1 -6
0 4 7 5 5 8 4 -1
-5 4 5 5 4 8 4 -1
-4 3 4 4 4 6 4 0
-5 3 4 4 5 6 4 1
-4 3 5 6 7 8 5 1
-2 6 7 7 8 9 7 2
-8 3 7 7 8 8 6 -2
-11 0 7 6 7 9 6 -5
-8 1 6 6 6 9 5 -7
-8 1 3 2 2 5 3 -8
-5 1 2 2 1 4 1 -8
-4 4 2 3 2 5 3 -4
-6 1 3 2 4 5 2 -2
2 2 3 3 4 5 3 -1
2 5 6 7 9 8 5 0
-4 3 7 6 8 7 6 -1
-1 4 7 6 9 7 5 -1
-7 -1 7 6 8 8 5 -1
-8 -2 8 5 8 8 5 0
-3 2 6 4 5 9 3 1
-1 1 6 4 4 8 1 0
-3 3 6 5 5 6 2 0
-4 3 5 3 3 3 0 -3
-2 6 4 3 3 3 0 -4
2 5 6 4 7 7 2 -3
1 2 6 4 7 6 1 -3
1 1 6 3 6 5 1 -3
3 1 6 3 6 6 1 -2
2 -1 5 2 4 5 0 -4
1 1 3 0 2 4 -1 -4
-4 -1 4 1 1 3 -1 -3
-8 -4 3 0 1 2 -1 -3
-4 -3 3 0 1 1 -1 -4
-4 -3 3 -1 0 1 -2 -5
-4 -4 6 1 4 3 0 -2
-2 -1 6 1 4 2 0 -2
-3 -4 6 0 4 3 -3 -3
-2 -4 6 0 4 3 -3 -3
-6 -4 5 -1 2 3 -2 -2
-3 -1 4 -1 1 1 -2 -2
-2 0 4 -1 1 3 -2 -1
-4 -1 3 0 2 3 -1 -1
-6 -2 4 1 3 3 1 0
-4 0 4 1 4 3 1 0
-4 3 6 3 7 5 2 0
-2 6 9 4 10 8 5 4
-1 9 11 4 10 8 7 5
-2 12 13 5 12 9 7 6
-2 13 15 4 11 10 6 6
0 13 14 4 11 10 6 6
-1 14 14 4 10 11 6 7
-5 13 12 3 9 9 7 7
-8 11 11 2 9 9 6 6
-6 13 13 4 12 10 6 8
-6 14 13 4 13 12 7 8
-3 20 16 7 17 15 12 11
-1 22 15 7 18 18 13 12
5 26 9 1 14 14 11 12
9 30 5 -1 11 14 13 16
9 31 3 -1 12 16 15 19
6 32 3 -1 13 19 16 17
0 32 4 2 17 21 20 17
-1 32 1 1 16 20 20 16
6 33 0 0 16 18 18 17
6 31 2 0 17 18 17 20
4 23 -1 -3 14 15 14 17
4 21 -2 -5 12 14 12 15
3 19 -4 -6 10 12 11 14
6 20 -3 -7 8 11 11 13
9 23 -2 -4 9 13 15 14
4 22 -1 -3 12 16 16 16
4 26 0 -2 14 17 17 17
3 22 0 -2 12 16 15 17
2 17 -4 -5 9 11 10 13
-1 11 -1 -5 10 11 9 12
-3 5 0 -5 9 10 8 11
-8 -2 2 -6 7 7 6 8
-10 -3 3 -5 7 6 4 7
-13 -7 4 -4 7 7 3 8
-8 -6 4 -4 6 6 2 6
-8 -5 4 -3 6 6 2 6
-8 -7 1 -6 4 3 0 2
-7 -6 1 -7 3 2 -1 1
-7 -11 0 -7 2 0 -3 -1
-8 -14 -1 -10 0 -2 -7 -4
-7 -12 -1 -10 0 -3 -7 -3
-7 -13 -1 -11 0 -4 -9 -3
-8 -14 0 -10 0 -3 -9 -3
-11 -14 0 -11 -1 -3 -9 -5
-13 -17 1 -10 -1 -2 -8 -4
-12 -15 2 -9 0 -1 -5 0
-10 -17 0 -10 -2 -2 -5 0
-10 -16 0 -10 -1 -2 -4 0
-9 -14 0 -10 0 -1 -3 1
-10 -15 -1 -11 1 -2 -5 -1
-10 -17 -1 -12 0 -2 -6 -3
-9 -20 -1 -12 -1 -3 -7 -3
-9 -18 -1 -12 -3 -3 -7 -4
-9 -15 1 -12 -2 -2 -6 -4
-10 -18 0 -12 -3 -3 -6 -4
-9 -18 -2 -13 -5 -5 -8 -6
-8 -17 -2 -12 -3 -4 -7 -5
-12 -19 -2 -12 -4 -6 -9 -6
-12 -18 2 -8 0 -4 -11 -8
-13 -18 11 2 10 3 -11 -7
-18 -20 22 17 26 13 -10 -9
-16 -24 37 39 47 27 -10 -13
-14 -30 50 61 67 40 -14 -22
-17 -33 66 87 88 53 -16 -32
-16 -31 74 106 102 63 -14 -39
-19 -32 77 115 110 72 -9 -40
-13 -20 68 109 105 73 1 -31
-3 3 56 93 94 73 19 -8
9 20 48 84 91 80 42 19
14 35 46 86 99 93 69 47
18 52 39 85 106 106 97 72
32 76 24 71 106 119 131 100
53 103 -5 38 94 135 177 138
57 130 -33 -4 62 139 224 182
64 160 -65 -47 23 134 269 228
77 181 -111 -102 -30 126 316 271
87 201 -146 -151 -68 137 374 308
91 209 -165 -180 -84 161 429 333
82 197 -169 -200 -101 175 465 335
79 180 -166 -202 -110 176 462 315
75 154 -170 -202 -125 150 414 283
63 133 -175 -211 -158 91 332 240
44 116 -163 -210 -188 13 222 188
24 90 -154 -204 -211 -68 92 126
9 60 -153 -189 -214 -114 6 77
3 36 -149 -170 -210 -137 -42 42
-8 8 -139 -154 -205 -147 -64 16
-12 -12 -127 -135 -192 -147 -71 -1
-6 -24 -120 -109 -166 -135 -70 -12
-5 -34 -111 -83 -138 -114 -63 -20
-2 -39 -100 -67 -117 -99 -61 -26
-3 -41 -86 -55 -100 -86 -57 -27
-7 -42 -64 -34 -78 -68 -46 -22
-7 -40 -47 -18 -59 -55 -40 -22
-11 -43 -31 -7 -44 -44 -35 -23
-9 -44 -20 -2 -32 -36 -31 -24
-7 -45 -13 -3 -25 -30 -30 -26
-11 -46 -10 -7 -22 -26 -27 -24
-11 -43 -7 -12 -19 -22 -25 -22
-5 -36 -6 -14 -16 -21 -23 -20
-7 -33 -3 -13 -14 -17 -23 -20
-12 -30 -1 -12 -11 -13 -19 -16
-15 -26 -1 -12 -10 -12 -18 -14
-11 -21 0 -12 -7 -9 -16 -12
-6 -17 1 -12 -6 -10 -14 -12
-7 -20 1 -12 -4 -9 -13 -11
-8 -20 2 -11 -2 -7 -12 -12
-10 -22 4 -11 -1 -6 -11 -12
-12 -25 5 -10 0 -5 -10 -12
-8 -23 4 -12 -1 -7 -12 -13
-7 -24 2 -14 -4 -7 -14 -16
-8 -26 3 -14 -4 -6 -13 -14
-9 -24 2 -14 -4 -7 -12 -13
-11 -26 3 -13 -2 -6 -12 -12
-13 -23 7 -8 3 -2 -8 -10
-10 -19 7 -7 4 -2 -7 -10
-10 -18 8 -5 5 -2 -8 -11
-9 -16 10 -5 7 0 -9 -9
-13 -22 9 -7 6 -1 -10 -10
-11 -23 9 -6 5 -2 -9 -7
-8 -23 8 -7 3 -1 -10 -7
-8 -21 9 -7 3 0 -9 -5
-7 -19 8 -7 2 -2 -10 -5
-11 -23 7 -7 2 -2 -10 -6
-11 -25 9 -6 4 -1 -9 -11
-9 -24 10 -5 5 0 -8 -19
-9 -28 7 -7 4 -3 -9 -27
-10 -28 9 -6 6 -1 -8 -25
-10 -24 12 -2 9 2 -5 -16
-9 -21 12 -2 9 3 -4 -7
-7 -18 12 -2 10 4 -5 -8
-7 -19 12 -3 8 2 -6 -10
-12 -22 12 -2 9 4 -5 -8
-11 -21 11 -1 9 3 -5 -7
-15 -22 11 -2 10 3 -4 -8
-13 -20 12 -1 12 4 -3 -7
-8 -22 11 -1 12 4 -5 -9
-8 -23 11 -2 13 4 -4 -12
-7 -19 12 1 15 7 -2 -11
-9 -19 11 0 14 8 -3 -12
-11 -21 11 0 14 7 -4 -13
-8 -20 14 1 16 10 -3 -11
-5 -16 12 3 16 11 -2 -8
-5 -15 10 3 16 10 -2 -10
-11 -18 13 3 18 11 0 -9
-11 -20 14 4 19 13 0 -9
-11 -23 14 5 21 14 1 -9
-10 -24 14 5 21 14 1 -10
-5 -20 15 7 22 16 2 -10
-5 -17 14 6 21 16 1 -12
-6 -18 15 8 23 19 3 -11
-2 -14 16 9 24 21 6 -8
-3 -14 16 10 24 22 7 -7
-3 -15 15 10 25 21 6 -7
-3 -16 15 10 26 21 8 -6
-3 -18 13 9 26 20 7 -9
-3 -21 14 11 28 21 6 -10
-1 -19 14 12 30 22 7 -11
2 -20 13 11 29 22 5 -12
2 -18 12 11 29 23 6 -14
-2 -17 15 16 33 26 9 -13
-5 -18 16 18 35 29 10 -14
-5 -18 16 20 35 30 10 -12
-5 -16 16 21 38 31 11 -9
-4 -15 17 23 40 32 13 -5
-3 -16 17 23 41 33 12 -4
0 -16 18 23 41 33 11 -6
1 -16 19 26 44 35 14 -6
-2 -17 18 27 46 36 14 -5
-5 -19 16 25 44 36 12 -9
-7 -18 19 30 48 40 15 -7
-2 -17 21 32 50 42 17 -5
5 -14 20 33 50 43 17 -4
5 -14 19 33 51 43 16 -5
4 -14 19 33 51 42 15 -2
6 -11 21 36 54 44 17 0
6 -11 22 38 57 45 18 2
6 -10 21 39 58 45 18 -1
6 -9 21 40 59 45 18 -2
3 -15 18 39 57 43 17 -4
8 -9 18 40 58 45 17 -3
10 -6 20 43 60 47 19 0
11 -3 19 43 58 45 19 -1
13 -2 20 45 60 47 19 2
8 -6 18 45 60 45 17 2
7 -5 20 46 60 45 18 2
13 0 21 47 61 45 18 2
10 -2 21 46 60 43 17 1
7 -2 22 47 61 44 18 3
12 -3 19 44 57 41 16 2
11 -7 17 44 55 40 15 2
12 -5 19 45 55 40 16 5
12 -3 17 45 53 38 14 5
7 -5 17 44 53 37 14 6
-1 -5 19 46 54 38 15 9
0 -7 20 45 54 35 13 6
3 -7 19 44 52 33 10 6
2 -9 20 44 52 31 8 4
5 -6 20 43 49 29 7 3
7 -4 20 43 47 27 6 1
7 -4 17 42 44 24 3 0
7 -6 18 42 43 22 3 1
8 -6 15 39 39 20 1 2
7 -8 14 37 38 17 -1 1
7 -9 13 35 35 14 -4 1
5 -8 14 34 34 11 -5 0
6 -8 14 34 33 10 -5 1
8 -7 15 33 32 9 -6 1
4 -9 14 32 30 8 -7 -1
1 -8 14 30 29 6 -9 -4
6 -2 15 31 29 8 -6 -2
6 -2 15 29 27 8 -6 0
5 -4 12 26 23 5 -8 2
5 -7 10 22 20 1 -11 2
1 -9 10 21 20 0 -12 2
5 -4 9 19 18 -1 -12 0
4 -4 9 18 17 -2 -12 -2
3 -4 11 18 19 1 -9 -2
0 -3 12 17 18 2 -7 2
-5 -4 12 18 18 3 -7 5
-4 -1 12 17 17 3 -7 9
-2 -1 11 15 14 2 -7 11
-4 -5 9 13 12 1 -7 10
-1 -4 7 10 10 -2 -8 6
-2 -6 6 9 8 -3 -9 1
-2 -3 8 8 9 -1 -5 -5
-6 -5 8 7 9 0 -5 -8
-9 -8 9 6 8 -1 -6 -7
-6 -7 9 5 7 -1 -7 -2
-4 -6 8 5 6 0 -7 0
-3 -4 10 4 7 2 -4 2
1 4 9 4 5 2 -4 5
-2 2 6 1 1 0 -6 3
-2 -1 6 -1 2 -1 -6 3
-4 0 6 -2 1 -2 -5 3
-6 -2 6 -2 0 -2 -5 1
-10 -5 7 -3 0 -3 -5 1
-11 -6 6 -4 0 -3 -6 -2
-13 -10 9 -2 1 0 -3 -3
-12 -6 7 -2 0 -1 -4 -5
-11 -7 7 -5 -2 -3 -6 -6
-6 -4 5 -6 -6 -3 -7 -4
-4 -2 4 -6 -6 -4 -5 -3
-5 -5 4 -8 -7 -4 -5 -2
-3 -5 5 -6 -5 -2 -5 0
-1 -3 4 -8 -6 -4 -7 0
-2 -3 6 -7 -5 -4 -5 1
-3 -3 5 -8 -5 -4 -7 -1
-5 -5 3 -8 -7 -6 -8 -5
-11 -6 5 -7 -6 -3 -5 -3
-11 -4 5 -7 -5 -3 -4 -1
-9 -1 4 -8 -6 -2 -4 -2
-6 -1 5 -6 -5 -2 -1 0
-8 -4 5 -6 -4 0 0 2
-7 -3 4 -7 -5 -2 -1 1
-7 -3 5 -6 -3 -1 0 3
-5 -3 6 -6 -2 -1 1 2
-4 -2 3 -8 -3 -1 -2 -2
-7 -4 5 -5 -3 0 0 -3
-12 -8 5 -5 -3 1 1 -3
-7 -2 4 -5 -3 0 -1 -3
-5 2 4 -6 -3 0 -2 -1
-8 -3 4 -6 -4 0 -1 0
-8 -4 4 -6 -3 1 -1 2
-5 -1 5 -4 -1 1 0 2
-5 0 6 -4 -1 2 1 1
-3 1 8 -2 1 3 2 2
-1 2 7 -3 3 5 2 0
1 3 7 -3 2 3 3 -1
-3 1 6 -2 2 4 3 0
-7 -2 7 -2 2 4 4 2
-7 -3 6 -3 1 4 2 2
-8 -4 5 -3 2 4 4 2
-10 1 5 -2 2 5 5 4
-11 0 8 0 4 6 7 5
-11 -2 8 1 4 6 7 3
-5 1 8 2 4 6 8 1
-4 0 8 1 4 6 7 0
-3 1 9 3 6 7 7 0
-4 2 9 4 6 8 7 1
-3 0 9 4 5 8 6 0
-4 -2 8 4 4 8 6 -2
-6 -4 7 4 4 8 6 0
-9 -5 9 6 6 10 7 3
-8 -1 10 7 7 10 7 5
-11 -2 9 6 6 9 6 4
-10 -1 11 7 8 9 7 5
-3 1 10 7 7 9 7 4
-5 -1 10 6 7 9 7 3
-1 1 11 8 8 9 8 4
2 4 10 7 7 8 7 2
-1 4 9 7 5 8 6 1
0 6 10 7 6 10 8 2
-2 2 9 7 5 8 7 2
-4 2 9 8 5 8 6 1
-1 4 8 7 4 6 4 -1
-3 0 8 6 5 5 4 -1
-3 -5 10 6 5 6 3 -1
-3 -6 10 5 5 5 2 -4
-2 -6 9 4 3 4 1 -4
2 0 10 5 4 5 1 -2
2 1 11 7 5 6 2 -1
-1 0 10 7 5 5 2 -1
-3 -2 10 6 4 5 2 -1
-7 -3 9 6 3 4 0 -3
-7 -3 9 6 3 4 1 -2
-8 -5 10 5 3 4 1 -2
-9 -2 10 6 3 4 1 -2
-12 -4 10 7 4 4 1 -3
-11 -7 9 5 2 3 1 -3
-4 -4 9 4 1 2 0 -2
-2 -3 9 6 2 3 0 -1
-5 -3 10 7 1 1 0 -1
-1 -1 10 6 1 1 0 0
-3 -5 11 6 1 0 -2 -1
-5 -7 10 6 0 -1 -2 -2
-7 -7 11 6 1 -1 -1 -2
-10 -8 9 4 0 -1 -4 -4
-6 -6 10 5 1 -2 -3 -4
-5 -2 9 4 0 -2 -3 -3
-9 -4 8 2 -3 -4 -7 -4
-5 -1 9 4 -2 -2 -5 -1
-5 -1 9 4 -4 -3 -5 1
-4 2 8 4 -2 -1 -4 2
-1 5 11 7 1 0 -2 2
-2 6 12 7 2 1 -1 -2
-3 10 14 9 5 3 2 -2
-5 6 15 8 4 4 1 -4
-8 2 16 8 3 2 0 -2
-5 5 16 9 3 3 0 1
0 9 17 8 4 2 0 1
0 11 17 7 2 2 -2 -1
2 17 19 9 5 4 2 0
2 19 18 9 5 5 2 -2
2 18 20 10 6 5 2 -2
1 15 22 13 10 8 5 4
0 18 22 13 10 9 7 8
0 23 18 10 10 9 5 9
0 21 13 5 5 7 3 8
0 21 9 2 3 7 5 8
2 23 6 1 2 6 7 10
7 25 4 1 2 7 7 8
7 27 8 5 6 11 11 13
6 28 8 6 7 13 13 15
9 29 5 6 6 11 12 15
10 26 7 6 7 11 12 14
6 23 6 6 6 10 12 14
7 25 6 4 4 9 10 13
8 25 6 4 4 9 10 14
7 23 7 4 4 8 10 16
8 24 7 4 3 8 10 17
10 24 5 4 2 8 9 15
5 23 7 6 4 8 10 14
3 19 7 6 2 7 7 11
1 16 5 4 -2 3 2 8
0 14 5 1 -3 0 -1 4
1 11 6 2 -3 -2 -2 3
-1 4 5 0 -7 -3 -6 0
1 3 6 1 -7 -5 -8 -2
0 0 7 1 -7 -5 -9 -3
-6 -6 8 3 -6 -4 -10 -4
-2 -4 6 1 -8 -5 -11 -5
-4 -9 5 -2 -11 -9 -13 -6
-3 -7 6 0 -11 -10 -14 -6
-4 -5 7 0 -11 -9 -14 -5
-10 -10 8 0 -12 -9 -14 -6
-10 -13 6 -1 -13 -12 -17 -9
-10 -14 6 -2 -14 -12 -18 -9
-7 -10 5 -2 -14 -13 -18 -10
-2 -10 6 -1 -13 -12 -16 -9
-5 -11 5 -3 -15 -14 -18 -11
-6 -12 6 -2 -14 -13 -18 -11
-7 -13 6 -3 -14 -14 -18 -11
-7 -16 5 -2 -16 -14 -17 -12
-5 -15 4 -3 -17 -14 -18 -12
-4 -17 4 -5 -18 -16 -20 -14
-10 -18 5 -4 -16 -15 -19 -13
-11 -17 6 -3 -14 -13 -19 -13
-10 -17 6 -3 -16 -13 -18 -12
-7 -16 7 -2 -15 -13 -17 -11
-7 -15 6 -2 -16 -14 -17 -10
-5 -15 4 -4 -18 -15 -18 -9
-1 -10 5 -4 -18 -15 -16 -7
-2 -12 5 -3 -16 -14 -16 -6
-5 -13 8 1 -14 -13 -18 -9
-7 -15 16 9 -5 -8 -19 -12
-10 -18 23 20 5 -3 -22 -19
-12 -19 37 41 26 10 -21 -25
-16 -23 54 67 50 27 -22 -29
-20 -32 71 92 70 40 -25 -38
-15 -32 82 114 87 51 -25 -42
-14 -27 88 127 98 62 -19 -39
-4 -11 79 122 94 62 -11 -33
7 11 67 106 83 64 7 -15
9 25 56 94 78 69 29 3
14 35 52 96 86 81 55 28
22 53 47 96 92 93 80 54
29 73 34 85 95 106 112 86
44 100 10 58 88 127 158 129
57 127 -21 14 59 130 203 171
69 152 -52 -30 19 125 246 211
85 179 -95 -85 -32 117 292 253
98 199 -135 -138 -75 121 345 292
101 209 -157 -170 -93 144 402 320
93 200 -163 -187 -106 162 442 322
82 182 -158 -190 -115 167 444 307
80 159 -162 -189 -130 144 399 273
73 138 -166 -198 -160 92 323 236
51 120 -159 -202 -193 17 217 185
27 97 -146 -198 -219 -65 92 121
16 69 -143 -183 -226 -115 4 72
11 45 -141 -165 -221 -139 -46 36
8 19 -135 -152 -217 -151 -69 10
1 -4 -124 -134 -208 -156 -81 -9
-4 -20 -115 -107 -184 -145 -81 -20
-4 -29 -107 -82 -155 -125 -73 -28
-1 -35 -96 -62 -131 -108 -69 -32
4 -33 -81 -48 -113 -95 -64 -32
2 -34 -63 -31 -94 -81 -57 -31
1 -34 -47 -14 -76 -68 -51 -30
1 -39 -33 -3 -61 -57 -48 -31
-3 -45 -22 3 -49 -51 -44 -32
0 -40 -11 7 -39 -41 -38 -31
2 -35 -5 5 -32 -35 -34 -29
0 -32 -2 -1 -28 -30 -32 -27
-2 -30 -1 -3 -26 -29 -31 -25
-5 -32 -1 -3 -25 -26 -30 -24
-2 -24 1 -2 -23 -23 -26 -20
0 -19 3 -1 -18 -19 -22 -17
2 -15 2 -3 -18 -19 -21 -16
-4 -16 3 -2 -15 -18 -21 -17
-8 -18 3 -3 -14 -18 -21 -17
-6 -19 4 -2 -12 -17 -21 -18
-1 -18 6 -2 -11 -16 -20 -17
-3 -18 6 -1 -10 -14 -19 -17
-3 -20 7 0 -9 -12 -18 -16
-3 -20 6 -1 -12 -14 -20 -18
-3 -18 6 -2 -14 -14 -20 -18
-2 -13 4 -3 -13 -16 -20 -18
-1 -15 5 -3 -14 -16 -20 -18
0 -17 5 -3 -13 -16 -20 -20
2 -18 5 -1 -11 -15 -19 -19
2 -19 6 -1 -9 -15 -19 -22
6 -15 8 -1 -8 -14 -20 -21
2 -15 8 1 -7 -13 -18 -20
-8 -21 10 2 -6 -10 -16 -19
-10 -18 11 4 -4 -8 -13 -17
-8 -16 9 4 -6 -8 -13 -16
-8 -17 11 5 -5 -7 -11 -14
-11 -18 12 5 -3 -6 -11 -13
-12 -15 15 7 -1 -5 -11 -12
-8 -12 15 8 0 -5 -11 -10
-5 -13 16 9 2 -5 -10 -10
-4 -15 15 8 1 -5 -11 -15
-2 -16 14 7 0 -6 -12 -18
-7 -17 12 6 0 -6 -13 -18
-6 -17 13 6 -1 -6 -12 -17
-4 -16 12 6 -3 -6 -11 -15
0 -14 11 6 -3 -7 -11 -14
3 -12 11 5 -3 -6 -12 -14
3 -14 12 6 -1 -5 -12 -14
3 -13 13 7 2 -5 -9 -13
1 -13 12 6 3 -6 -11 -15
1 -13 11 6 2 -4 -13 -14
2 -12 13 8 4 -1 -10 -13
-2 -16 13 9 5 0 -8 -12
0 -17 13 10 6 2 -8 -15
0 -14 13 9 5 3 -6 -18
0 -12 11 8 3 1 -7 -22
-4 -17 12 9 6 3 -5 -20
-2 -16 13 11 7 5 -4 -19
-1 -13 12 11 8 5 -4 -19
0 -10 15 14 13 7 -3 -16
2 -11 14 14 12 8 -4 -15
3 -15 14 14 13 8 -4 -14
2 -15 15 16 15 11 -1 -11
-3 -19 14 15 14 11 -2 -12
-1 -20 14 15 12 11 -1 -13
-1 -22 12 14 11 9 -1 -14
-6 -23 11 14 14 10 -1 -13
-6 -19 14 17 18 13 2 -12
0 -15 13 17 19 13 2 -12
7 -10 14 19 22 15 2 -15
8 -8 16 21 24 18 2 -16
1 -14 17 24 27 20 4 -16
3 -12 15 22 24 19 1 -18
8 -12 17 25 27 21 3 -16
6 -11 15 23 26 21 1 -15
6 -12 13 22 24 20 3 -14
5 -13 13 24 28 20 4 -13
8 -14 16 27 30 23 7 -13
6 -13 17 29 32 24 8 -11
4 -13 17 32 35 25 8 -12
4 -16 20 35 39 28 10 -8
4 -17 21 35 39 30 11 -7
5 -14 20 36 39 30 10 -7
10 -8 21 38 41 31 9 -7
12 -7 20 38 41 33 10 -6
11 -9 20 39 42 34 13 -6
10 -11 20 41 44 34 13 -6
7 -14 20 42 44 33 13 -7
10 -12 21 43 48 36 14 -6
12 -9 22 45 49 36 14 -7
12 -8 22 46 50 37 12 -7
12 -9 21 45 50 37 12 -7
16 -9 20 46 50 37 13 -4
16 -13 19 46 50 36 12 -5
16 -10 22 50 53 39 15 -1
13 -11 22 51 52 39 16 -1
7 -10 23 54 54 40 18 1
7 -12 21 53 52 38 16 -1
9 -13 18 49 50 34 13 -3
10 -10 20 51 52 34 14 -2
11 -9 20 52 52 35 13 -2
11 -12 21 53 51 35 13 -1
15 -10 21 52 51 34 13 0
14 -10 21 53 49 33 12 -1
15 -9 19 51 47 32 11 0
15 -8 18 49 44 28 10 -2
17 -4 17 49 43 25 8 -2
19 -2 18 50 44 25 8 -1
16 -5 21 52 46 26 10 3
17 -7 20 51 44 24 7 1
18 -8 19 49 43 20 3 -1
11 -11 19 48 40 19 3 -1
7 -13 21 49 41 20 3 1
8 -11 21 47 39 17 1 0
11 -8 19 45 35 15 -1 1
12 -6 18 44 33 11 -2 -1
6 -10 17 42 31 8 -4 0
9 -8 18 43 33 8 -4 1
14 -2 18 42 31 6 -4 2
10 -7 17 40 29 3 -7 0
11 -7 17 38 28 1 -9 -1
12 -7 16 35 25 -2 -12 -3
6 -10 14 33 22 -3 -13 -4
4 -13 13 31 20 -4 -13 -6
4 -15 12 31 18 -2 -11 -4
3 -13 10 28 16 -5 -11 -5
8 -8 10 28 16 -6 -11 -1
7 -8 9 26 14 -8 -12 0
8 -10 9 24 14 -7 -10 1
7 -11 10 24 15 -8 -11 1
10 -5 11 24 14 -7 -11 1
13 -2 8 20 12 -8 -12 -3
8 -7 6 18 9 -10 -12 -5
13 -4 5 15 7 -10 -13 -8
14 -1 6 15 7 -7 -10 -6
11 -2 7 16 8 -5 -7 -5
9 -1 8 16 8 -6 -6 -2
2 -4 9 17 10 -3 -4 1
0 -3 10 16 9 -2 -2 4
7 1 9 14 8 -3 -3 4
4 -2 9 13 8 -2 -3 6
3 -3 8 12 9 -1 -2 7
4 0 9 11 8 -1 -1 6
2 -3 8 9 6 -3 -4 -1
5 -3 8 8 5 -2 -2 -5
6 0 8 7 5 -1 0 -9
6 1 6 7 4 -2 0 -11
8 0 5 4 2 -4 -2 -9
6 -2 5 3 0 -5 -3 -3
4 -2 7 3 2 -5 -3 0
3 -1 6 3 1 -3 -3 -1
1 -3 6 2 2 -2 -1 -1
2 -1 7 2 1 -2 0 0
2 0 7 1 0 -1 0 2
3 1 7 2 1 0 3 2
3 0 6 0 -1 -2 3 0
1 -3 4 -2 -2 -4 1 -3
1 -3 3 -2 -3 -4 0 -5
4 -4 1 -5 -5 -6 -1 -5
5 -5 0 -7 -7 -8 -4 -8
7 -4 0 -7 -7 -7 -5 -8
6 -4 -2 -8 -7 -8 -6 -8
4 -3 2 -5 -5 -5 -2 -5
5 -1 5 -2 -2 -2 1 -2
3 2 4 -2 -2 -1 3 -1
4 3 5 -1 -1 0 4 1
4 2 4 -2 0 -1 4 -2
3 2 3 -2 -1 -1 2 -3
1 1 4 -1 0 0 5 -2
-4 -4 5 0 2 1 5 -2
-7 -7 5 0 3 2 6 -3
-4 -5 5 0 2 2 5 -2
-2 -6 3 -2 0 0 4 -3
1 -4 3 -2 1 1 3 -3
1 -5 2 -2 1 2 5 -1
2 -4 2 -2 0 1 5 -2
5 2 3 -1 2 2 8 -1
3 3 4 0 3 3 8 -1
4 0 5 1 5 4 11 3
4 3 7 4 7 6 12 3
0 2 7 4 8 7 13 4
2 4 8 6 9 8 12 4
8 4 5 3 8 6 10 0
8 4 6 2 6 6 9 -1
6 5 6 3 7 7 10 1
5 4 7 5 8 8 12 2
6 4 7 5 9 9 14 4
8 6 8 6 9 9 13 6
6 3 8 7 10 10 14 7
3 2 7 6 10 8 13 3
3 1 6 5 10 9 13 0
4 0 5 3 7 7 10 -3
3 2 7 5 10 8 12 -3
2 2 8 6 12 10 15 -1
3 0 7 5 11 11 14 -1
5 2 8 6 11 11 15 2
4 1 8 7 12 11 16 5
5 2 9 9 14 13 16 6
4 2 8 9 14 12 15 5
4 3 7 9 13 11 14 2
7 6 9 9 16 13 16 2
7 4 9 9 15 13 16 0
6 3 9 9 15 12 16 1
7 5 8 7 12 11 14 3
5 2 7 6 10 10 12 6
6 3 6 5 9 8 10 3
6 2 5 5 9 7 10 1
5 0 8 7 11 9 11 1
10 5 10 9 13 10 13 0
7 3 9 8 12 8 12 -3
7 3 8 7 11 8 12 -4
7 4 7 6 10 7 10 -3
8 2 8 6 11 8 13 0
11 3 8 6 10 7 12 2
9 3 8 6 10 7 11 2
4 1 8 6 9 5 10 0
1 0 9 6 9 6 11 1
2 -1 8 5 8 5 10 -1
7 1 7 4 7 4 9 -2
6 -1 6 3 6 2 7 -3
10 3 7 3 6 3 6 -3
14 8 9 2 6 3 6 -2
10 8 8 3 7 2 7 0
5 3 9 4 8 3 7 2
8 3 8 3 6 2 6 1
5 2 8 3 6 1 6 1
5 1 8 4 6 1 6 1
5 2 7 3 5 0 4 -2
3 1 6 2 3 -3 1 -7
1 -1 7 1 2 -3 1 -6
0 -3 7 1 3 -2 1 -3
4 1 7 0 4 -3 1 -2
9 8 8 1 3 -2 2 1
7 5 9 2 4 -1 2 4
5 3 8 0 3 -2 3 4
5 0 5 -2 0 -4 1 0
5 -6 2 -4 -4 -8 -1 -6
7 -3 4 -4 -2 -7 -1 -10
9 0 3 -4 -2 -7 0 -11
12 -1 3 -4 -3 -8 -1 -13
15 5 5 -3 -1 -6 0 -11
12 4 6 -1 2 -3 3 -8
15 14 8 0 3 -1 3 -2
11 18 12 4 8 3 4 7
3 18 15 5 9 5 7 12
4 21 18 8 12 8 11 15
7 21 19 9 12 8 10 16
7 17 17 7 9 6 7 12
5 16 16 4 9 4 6 9
3 15 15 3 9 2 4 1
5 20 16 4 10 3 5 -5
5 19 18 5 10 5 5 -6
8 20 19 5 13 6 7 2
10 29 18 7 13 9 10 11
13 34 16 3 11 8 10 14
18 38 10 -2 8 6 9 12
21 40 6 -4 7 7 10 11
19 39 5 -2 8 7 12 12
18 39 7 -2 10 9 13 13
17 37 7 -1 13 10 13 14
16 36 6 0 13 11 13 15
17 35 4 0 12 11 12 15
17 33 4 -2 10 10 12 13
18 32 3 -3 8 10 11 12
20 32 2 -4 6 8 10 12
20 31 1 -7 4 5 8 12
24 32 0 -7 3 4 7 11
19 32 1 -6 3 4 6 12
14 33 3 -5 5 5 8 15
16 33 5 -2 7 6 8 16
12 25 4 -3 5 5 6 14
12 23 4 -6 2 2 2 11
12 18 3 -8 0 -1 0 9
8 10 1 -10 -5 -5 -5 5
7 6 1 -12 -7 -8 -7 1
9 6 1 -12 -8 -8 -8 1
8 4 2 -10 -7 -8 -7 -2
12 6 4 -8 -5 -5 -7 -2
12 5 3 -9 -6 -7 -9 -4
12 2 2 -11 -8 -10 -11 -7
11 0 1 -11 -9 -11 -12 -8
9 -2 -1 -14 -11 -15 -16 -9
8 -2 4 -12 -10 -13 -15 -7
2 -3 4 -11 -10 -12 -14 -5
2 -3 3 -12 -10 -11 -14 -7
6 -1 1 -14 -11 -13 -16 -9
1 -7 -1 -15 -12 -14 -17 -11
5 -6 0 -14 -12 -13 -17 -10
4 -2 3 -11 -11 -12 -16 -9
0 -2 4 -11 -10 -13 -16 -10
-1 -2 6 -9 -9 -12 -16 -8
-1 -5 5 -11 -9 -13 -18 -6
2 -5 4 -11 -10 -12 -17 -5
5 -4 2 -13 -13 -14 -18 -5
4 -5 1 -14 -13 -15 -18 -3
6 -4 1 -15 -13 -15 -17 -1
5 -2 3 -12 -13 -13 -14 1
4 -3 1 -13 -13 -13 -14 -2
3 -6 1 -14 -14 -13 -15 -5
3 -8 1 -15 -15 -15 -17 -13
2 -8 4 -11 -11 -13 -17 -18
3 -7 8 -5 -6 -11 -20 -22
-1 -9 17 6 4 -4 -20 -23
1 -10 30 23 22 9 -20 -21
0 -12 44 45 42 22 -21 -23
-2 -16 59 71 63 36 -24 -31
-5 -21 75 97 82 48 -25 -37
-3 -22 78 111 93 55 -28 -41
-1 -13 77 114 97 59 -22 -36
8 3 68 104 92 63 -6 -18
9 19 59 90 83 66 15 4
12 30 53 86 85 77 40 29
23 49 47 86 91 88 68 53
35 72 39 81 94 100 95 79
49 99 21 63 94 117 136 113
66 127 -6 29 78 132 183 155
78 150 -37 -15 42 129 228 195
88 172 -73 -62 -2 120 272 237
95 190 -116 -119 -53 116 322 279
103 206 -144 -159 -80 133 379 313
104 203 -158 -184 -96 153 426 325
98 189 -160 -198 -111 163 446 318
98 176 -158 -196 -119 155 425 295
86 151 -163 -200 -144 118 365 258
69 136 -161 -208 -176 54 277 216
53 124 -148 -205 -204 -26 152 160
31 97 -142 -197 -221 -95 41 104
22 70 -139 -178 -218 -127 -23 64
16 44 -135 -161 -213 -142 -55 31
7 16 -127 -148 -209 -151 -72 6
2 -4 -118 -129 -196 -151 -81 -11
6 -21 -115 -105 -173 -140 -80 -24
10 -29 -106 -82 -146 -121 -74 -30
11 -30 -94 -68 -128 -107 -72 -32
9 -31 -77 -52 -109 -92 -63 -30
14 -26 -58 -32 -87 -74 -52 -25
14 -25 -42 -18 -70 -62 -47 -24
12 -29 -28 -7 -55 -52 -43 -23
10 -31 -14 2 -39 -41 -35 -20
3 -37 -5 3 -29 -32 -31 -18
1 -35 -3 -3 -27 -28 -28 -19
0 -27 -1 -9 -25 -25 -27 -21
-2 -26 1 -10 -24 -24 -25 -21
-1 -22 2 -9 -22 -19 -25 -19
-1 -19 2 -8 -20 -16 -20 -14
-1 -17 3 -8 -18 -15 -18 -10
-2 -11 6 -6 -15 -13 -16 -8
-3 -12 6 -7 -13 -14 -19 -10
0 -12 7 -7 -10 -15 -19 -11
2 -12 7 -7 -9 -14 -22 -9
2 -13 8 -9 -10 -12 -20 -8
1 -14 7 -10 -10 -11 -19 -7
2 -15 7 -11 -13 -12 -19 -8
2 -19 4 -10 -15 -11 -18 -8
5 -13 6 -8 -13 -10 -14 -6
1 -10 7 -6 -11 -7 -13 -4
2 -10 8 -6 -10 -9 -14 -6
5 -9 10 -3 -7 -7 -13 -7
6 -11 10 -3 -5 -8 -13 -13
6 -12 13 -1 -1 -5 -13 -15
6 -12 14 0 -1 -4 -13 -15
0 -14 13 -2 -3 -5 -14 -11
2 -13 12 -4 -5 -6 -16 -8
1 -10 11 -4 -7 -5 -16 -6
2 -10 11 -3 -8 -5 -12 -5
0 -13 12 -2 -6 -4 -11 -3
-5 -18 11 -2 -6 -7 -13 -5
-1 -17 10 -3 -7 -8 -14 -7
0 -17 12 -1 -4 -7 -14 -8
-1 -18 13 -2 -2 -7 -17 -8
2 -13 13 -2 -2 -7 -15 -8
3 -10 11 -3 -3 -6 -15 -8
4 -12 11 -3 -3 -5 -13 -10
1 -13 12 -2 -3 -1 -11 -10
-2 -14 12 0 -3 0 -8 -8
-3 -12 13 2 0 3 -5 -5
-3 -13 12 0 -1 0 -6 -7
-1 -12 13 2 1 1 -6 -5
4 -15 14 3 3 1 -6 -5
-2 -20 15 3 5 1 -10 -6
2 -18 16 2 5 2 -9 -8
2 -19 16 3 6 4 -7 -7
2 -18 13 0 3 3 -9 -10
6 -13 12 0 2 5 -8 -9
7 -11 12 2 2 4 -6 -7
5 -11 13 4 4 6 -4 -5
8 -8 15 7 7 8 -3 -5
5 -12 12 5 6 6 -5 -9
0 -20 10 4 6 5 -6 -11
1 -20 11 5 10 6 -6 -11
3 -15 15 8 14 12 -1 -8
5 -11 17 10 16 15 3 -6
1 -14 15 9 14 15 2 -6
1 -12 14 9 14 16 2 -5
6 -10 18 14 16 18 6 0
5 -10 17 14 16 17 5 0
6 -10 17 14 17 18 5 -1
4 -15 15 14 17 18 3 -3
3 -20 17 14 20 16 3 -6
5 -19 14 12 20 16 -1 -10
5 -19 15 14 21 18 -1 -11
5 -19 15 14 22 20 1 -11
5 -14 18 18 25 25 6 -8
5 -10 17 20 26 26 7 -6
10 -8 15 21 26 27 8 -4
10 -7 14 20 25 25 7 -3
8 -8 15 22 27 26 7 -1
5 -10 16 24 30 27 9 1
3 -10 17 24 32 26 8 -2
2 -14 16 24 34 28 6 -2
5 -19 19 27 37 32 9 -4
7 -18 18 27 38 33 10 -6
7 -13 18 29 39 33 11 -6
5 -11 18 29 39 35 11 -1
9 -8 18 31 39 37 13 3
11 -8 21 35 43 40 16 7
13 -7 20 34 42 36 14 6
12 -7 20 35 44 37 16 6
10 -4 22 38 49 38 18 7
4 -9 20 38 50 38 15 5
6 -12 20 39 50 41 15 3
5 -15 21 41 51 41 16 2
6 -15 22 42 51 41 16 2
11 -5 23 43 51 45 16 5
11 -5 23 46 52 46 18 9
15 -1 23 47 53 44 19 13
17 0 22 47 53 43 18 14
16 -4 21 48 53 42 17 14
16 -6 22 48 54 41 18 16
12 -5 22 47 55 41 14 15
11 -5 22 47 54 38 13 12
18 -6 20 46 52 37 11 6
15 -6 19 44 49 36 12 4
14 -1 19 46 50 39 14 5
14 0 21 47 51 37 15 9
10 -3 21 48 51 36 14 13
10 -3 21 47 48 32 11 11
12 -7 19 45 45 28 7 9
10 -10 17 44 44 24 6 9
11 -9 16 42 43 22 1 7
7 -13 18 44 44 23 1 7
11 -11 20 44 43 22 2 8
11 -9 20 42 40 20 0 9
13 -7 19 42 38 18 -2 8
16 -4 18 41 35 15 -4 9
14 -4 19 40 34 14 -4 9
10 -6 18 39 32 10 -7 6
8 -9 16 39 31 9 -8 5
6 -11 17 37 31 5 -8 3
5 -10 16 36 31 5 -11 3
4 -12 14 33 27 2 -14 1
5 -13 12 30 24 -1 -17 -1
10 -7 11 27 20 -3 -19 0
12 -4 12 27 18 -4 -19 2
12 -1 11 25 17 -6 -19 3
11 -4 11 25 16 -5 -17 5
0 -12 11 25 16 -4 -15 7
0 -12 11 23 15 -7 -15 4
5 -10 10 20 13 -10 -15 4
7 -9 9 21 14 -9 -16 3
8 -7 11 20 14 -7 -15 4
4 -8 10 18 13 -7 -15 5
5 -7 13 19 14 -5 -11 9
9 1 13 20 14 -2 -7 12
10 5 10 19 13 -3 -8 13
13 8 8 15 10 -4 -10 11
7 2 8 14 9 -6 -11 6
1 -4 9 14 10 -5 -9 4
-1 -6 10 14 12 -4 -8 3
-3 -6 10 13 11 -2 -8 5
-4 -5 8 11 9 -4 -9 5
-6 -6 8 9 9 -5 -10 5
-6 -8 8 8 8 -3 -7 7
-2 -4 9 10 7 -1 -5 11
-1 0 10 8 6 -1 -3 14
1 4 10 8 6 0 -2 15
5 4 8 8 6 -2 -2 14
2 -1 8 7 6 -3 -3 10
-2 -3 7 6 6 -3 -4 5
-4 -8 6 4 6 -3 -5 -3
-9 -14 7 4 6 -2 -5 -8
-8 -13 8 2 4 -5 -6 -8
-4 -10 7 1 1 -5 -7 0
-3 -9 6 2 0 -4 -7 7
1 -4 6 1 0 -4 -5 6
2 -2 7 2 1 -4 -4 6
-1 -2 7 4 2 -2 -1 6
0 -3 7 4 3 -2 0 6
-4 -5 6 3 3 -4 -3 4
-7 -9 6 2 3 -4 -5 4
-6 -9 4 0 1 -6 -7 1
-4 -10 5 0 2 -5 -6 1
0 -6 5 1 2 -3 -3 2
-1 -6 5 1 2 -2 -4 2
1 -3 7 3 3 0 -1 4
3 -1 6 4 3 0 0 5
1 -3 6 6 4 1 1 6
-1 -2 6 5 5 1 0 6
-4 -3 5 5 4 -1 -2 5
-3 -6 4 3 4 -2 -4 4
-3 -6 7 4 6 -1 -2 4
-4 -7 9 5 7 0 0 5
-4 -5 7 5 7 0 0 4
-7 -4 7 5 7 2 0 4
-8 -4 8 6 6 4 3 2
-5 -1 8 8 9 5 6 3
-4 -2 7 7 9 5 5 3
-2 -3 6 6 9 4 3 4
2 -1 7 7 10 4 5 7
2 -2 5 7 9 2 2 8
4 0 5 6 9 2 2 8
2 -2 5 7 10 4 4 8
1 0 6 8 10 5 5 9
-2 4 7 9 12 8 7 10
-6 1 8 12 13 10 9 9
-9 -1 6 11 12 8 8 8
-7 3 6 11 13 8 8 9
-7 1 8 12 16 11 10 7
-8 0 10 15 18 12 12 2
-7 0 9 15 19 11 9 0
-7 0 9 13 18 10 7 2
-5 0 9 13 17 10 7 8
-2 3 8 13 16 10 7 11
0 2 7 12 15 11 6 9
-2 4 8 13 15 12 9 11
-3 2 6 14 15 10 9 11
-4 0 5 13 14 8 9 10
-3 -2 5 12 14 8 7 10
-3 4 6 12 14 7 7 10
0 9 8 13 16 9 7 10
0 9 9 13 18 10 7 7
1 6 10 15 19 11 9 5
2 6 10 16 20 12 9 3
0 5 11 17 21 15 11 5
-1 3 11 17 19 15 12 8
-1 5 8 14 14 10 8 8
-3 4 7 14 14 8 6 7
-3 1 9 15 16 9 7 6
-2 -1 8 14 17 8 6 4
-5 -3 7 12 15 7 4 1
-7 -4 7 13 16 8 4 2
-11 -5 8 13 15 7 4 3
-10 -3 7 11 13 5 3 3
-8 -2 6 12 12 6 4 2
-2 6 8 15 15 9 6 5
0 9 8 16 15 9 7 7
-2 4 4 12 11 4 1 1
0 3 6 12 13 6 1 1
-1 2 8 13 14 5 2 2
-4 -2 6 11 13 3 0 1
-7 -7 7 11 12 3 0 1
-9 -6 6 10 10 3 0 1
-5 -2 5 9 9 2 1 0
-2 0 7 11 11 3 2 2
-3 0 8 11 10 2 2 1
-1 3 6 10 9 2 1 0
5 6 5 12 9 1 0 0
4 2 6 11 11 2 0 0
2 2 5 12 11 0 -2 -1
-4 -3 2 9 9 -4 -7 -3
-9 -6 3 9 9 -3 -5 -2
-6 -3 3 8 9 -1 -5 -1
-2 0 4 9 8 -1 -4 0
0 2 5 9 7 -1 -3 1
2 5 5 10 7 0 -1 1
1 4 4 9 6 0 -3 1
3 0 6 11 8 -1 -3 1
5 -1 5 10 8 -3 -5 0
4 -2 2 8 5 -6 -7 -5
3 -1 3 8 6 -5 -7 -5
-2 -3 5 10 9 -2 -4 -2
-3 0 6 11 10 1 -4 3
-3 6 9 14 13 4 1 9
-8 9 10 16 16 7 3 11
-7 13 11 17 16 7 4 9
-7 15 13 17 16 7 4 2
-10 13 15 18 17 7 3 -3
-9 15 18 19 19 8 3 -2
-10 13 16 17 18 6 1 2
-8 12 14 16 18 5 1 5
-7 13 13 15 18 5 1 7
-7 17 15 17 19 8 2 8
1 24 14 17 19 8 2 5
-1 27 13 16 20 11 4 6
2 31 10 14 17 9 5 7
2 34 8 11 16 10 6 10
-4 30 3 9 15 7 5 10
-4 28 1 9 15 9 4 10
-1 31 1 10 18 9 6 11
-1 33 3 12 20 12 8 11
-1 33 4 14 23 15 11 11
-2 32 4 16 22 16 12 11
3 33 2 13 20 14 12 10
8 34 0 10 16 12 11 14
8 33 -5 7 13 8 8 16
7 31 -5 7 12 8 8 16
7 29 -4 11 15 9 8 15
7 30 -2 11 15 9 8 13
7 32 0 13 18 10 10 14
4 32 2 12 17 11 9 11
3 30 1 13 16 9 7 9
2 25 1 12 14 7 4 8
-3 16 1 12 13 4 0 6
-1 13 0 10 8 1 -4 4
-1 10 0 10 7 -1 -6 4
-3 7 0 9 5 -3 -7 1
-2 5 0 9 4 -4 -9 -2
-5 3 1 10 6 -4 -10 -3
-9 -3 -1 9 3 -6 -13 -7
-11 -7 -1 8 4 -6 -13 -8
-9 -8 -1 8 3 -8 -15 -8
-8 -7 -1 6 3 -7 -16 -9
-7 -4 -1 8 3 -8 -17 -9
-5 -2 -2 6 -1 -10 -18 -13
-6 -3 -3 7 -1 -10 -17 -12
-9 -6 -3 5 -3 -11 -18 -14
-4 -3 -4 4 -3 -13 -19 -16
-5 -7 -4 5 -2 -12 -20 -14
-13 -14 -5 4 -2 -14 -20 -14
-15 -15 -5 4 -2 -13 -20 -15
-15 -15 -4 5 -2 -13 -20 -15
-13 -12 -3 5 -2 -11 -19 -14
-9 -7 -2 6 -2 -10 -18 -12
-8 -7 -3 5 -4 -11 -19 -15
-8 -9 -4 4 -3 -11 -19 -16
-3 -6 -5 5 -3 -12 -17 -15
0 -7 -6 3 -5 -13 -19 -16
-4 -8 -4 5 -3 -11 -18 -12
-9 -10 -4 4 -2 -12 -18 -12
-12 -12 -4 4 -3 -12 -20 -15
-11 -11 -5 4 -2 -12 -21 -17
-12 -10 -2 9 1 -8 -22 -19
-13 -8 10 21 13 1 -18 -19
-18 -8 22 36 27 12 -18 -22
-24 -11 36 57 49 25 -19 -27
-24 -17 51 82 71 39 -20 -29
-21 -22 64 106 92 51 -25 -38
-20 -25 74 126 108 61 -27 -46
-18 -20 79 136 119 72 -22 -42
-12 -10 71 130 114 71 -15 -33
-8 10 58 112 99 70 2 -11
0 27 47 100 92 74 25 11
8 41 41 98 95 86 51 34
20 65 36 95 99 96 81 56
29 86 25 85 102 110 117 85
37 114 0 58 94 130 163 121
48 140 -28 21 69 135 213 167
54 157 -59 -18 34 133 259 213
63 181 -98 -65 -12 126 309 259
70 198 -135 -115 -57 129 363 299
75 206 -155 -145 -74 153 421 324
76 199 -161 -160 -87 170 462 325
73 177 -158 -161 -99 171 467 310
69 153 -161 -163 -118 143 423 277
61 142 -167 -174 -154 79 342 240
42 130 -157 -174 -185 -2 225 187
25 109 -149 -172 -211 -87 88 124
13 89 -146 -159 -213 -129 -1 75
5 64 -145 -143 -206 -148 -51 37
-1 39 -137 -127 -198 -153 -72 10
-5 11 -128 -113 -192 -155 -83 -10
-5 -12 -118 -89 -170 -144 -84 -25
-2 -22 -110 -63 -140 -122 -78 -32
-3 -27 -101 -44 -116 -103 -71 -35
-3 -27 -86 -30 -98 -87 -62 -33
-4 -27 -70 -17 -80 -72 -54 -30
-4 -24 -53 -1 -62 -58 -45 -27
-1 -29 -38 12 -45 -46 -41 -26
-5 -37 -26 17 -33 -39 -38 -26
-7 -36 -16 21 -22 -31 -35 -25
-7 -32 -9 18 -17 -24 -32 -23
-9 -32 -9 8 -16 -22 -31 -24
-7 -27 -8 2 -16 -20 -29 -26
-5 -21 -8 1 -17 -16 -28 -27
-6 -15 -5 5 -13 -10 -21 -23
-4 -12 -5 4 -11 -9 -19 -22
-5 -13 -5 3 -10 -8 -18 -18
-10 -16 -5 1 -9 -9 -20 -17
-11 -16 -4 2 -4 -8 -19 -14
-11 -15 -3 2 -3 -7 -20 -16
-10 -12 0 4 0 -3 -19 -15
-8 -12 1 4 -1 -2 -19 -16
-5 -12 1 2 -3 -2 -20 -16
-5 -12 0 2 -3 0 -18 -15
-9 -12 -1 3 -4 1 -15 -12
-10 -12 0 2 -3 1 -14 -10
-7 -10 -1 2 -5 0 -14 -11
-5 -10 1 3 -3 0 -16 -15
-8 -14 0 2 -3 -2 -16 -19
-10 -18 2 3 0 -1 -17 -22
-7 -16 2 3 0 1 -17 -20
-6 -14 4 4 2 3 -16 -17
-12 -16 5 6 1 6 -12 -14
-11 -13 6 7 3 10 -8 -12
-2 -6 5 7 1 10 -8 -9
-2 -7 3 6 0 8 -8 -9
-7 -7 4 8 2 9 -6 -7
-9 -9 5 9 4 8 -8 -7
-12 -14 5 8 5 7 -10 -9
-11 -15 6 8 7 8 -11 -9
-15 -17 8 8 7 10 -12 -10
-8 -16 10 10 9 11 -10 -9
-8 -15 8 8 6 10 -10 -9
-7 -13 7 6 5 11 -10 -10
-2 -7 5 6 2 13 -8 -10
-3 -8 4 6 3 11 -7 -9
-4 -14 4 6 3 12 -7 -11
-2 -13 5 7 6 12 -7 -13
-5 -14 5 7 7 11 -6 -13
-5 -14 7 8 10 13 -7 -11
-6 -16 8 8 10 14 -8 -10
-7 -19 6 7 9 14 -8 -13
-3 -16 6 8 10 17 -7 -12
-3 -16 7 9 10 21 -5 -11
-2 -15 6 9 9 20 -3 -9
-1 -11 6 11 10 20 -1 -7
-5 -14 7 13 13 22 0 -4
-3 -12 9 16 16 24 1 -4
-4 -15 8 15 17 23 0 -7
-7 -18 7 13 16 24 -3 -9
-6 -20 8 13 18 26 -2 -10
-7 -25 7 11 17 25 -2 -11
-5 -25 6 10 15 26 -1 -10
1 -20 8 12 15 30 1 -8
0 -18 8 14 17 33 5 -4
-4 -15 6 15 18 33 6 -2
-3 -14 5 14 17 33 6 -3
-1 -11 6 16 20 32 6 -4
2 -10 8 19 24 35 8 -4
1 -14 8 18 25 36 6 -8
2 -18 10 19 26 37 6 -12
0 -18 12 21 29 38 7 -10
-3 -21 12 21 30 34 7 -6
1 -17 9 20 28 31 6 -3
2 -17 8 21 28 30 10 0
1 -14 8 23 29 29 11 3
4 -8 8 25 32 29 13 4
4 -11 9 27 36 27 14 4
7 -15 9 25 38 27 13 3
8 -13 10 26 42 28 14 1
5 -11 12 26 44 30 14 -5
3 -12 14 28 47 32 17 -8
2 -12 14 29 48 34 17 -8
0 -10 12 29 47 34 16 -3
0 -9 13 32 50 36 18 5
1 -9 12 34 53 35 19 6
1 -8 12 35 55 35 20 5
3 -7 11 35 56 34 20 5
2 -8 11 34 57 34 19 4
6 -9 12 36 61 35 19 5
4 -12 14 37 62 36 19 5
-1 -13 15 38 64 36 20 5
0 -11 15 40 65 38 21 6
1 -10 12 39 61 36 19 4
3 -8 15 41 63 39 24 8
7 -8 13 41 65 39 26 11
8 -6 12 41 65 37 26 12
6 -5 13 43 67 36 25 13
2 -9 15 45 70 37 25 15
4 -7 13 43 68 34 21 12
9 -7 13 44 67 33 19 10
8 -10 11 40 65 31 15 3
11 -6 12 41 64 32 15 1
16 -2 12 42 63 31 15 1
13 -4 10 41 60 28 16 5
14 -4 10 41 60 27 16 10
10 -5 11 42 60 26 16 12
9 -6 10 42 60 23 14 10
8 -6 13 43 63 23 14 16
4 -10 12 42 62 20 10 14
6 -11 12 41 61 19 9 13
8 -10 12 39 58 17 8 11
6 -13 11 37 55 14 5 10
9 -5 11 38 53 13 5 9
9 -5 11 36 50 9 4 4
11 -5 8 34 48 7 1 1
12 -6 7 34 46 3 -1 1
8 -10 5 30 43 -1 -4 0
11 -10 4 28 42 -5 -7 2
11 -12 4 27 41 -8 -11 1
14 -13 3 24 39 -10 -13 -1
12 -15 3 23 37 -11 -13 -2
6 -16 4 24 37 -11 -13 0
3 -15 7 25 37 -7 -10 3
4 -10 7 25 36 -8 -8 6
1 -10 6 23 34 -10 -8 6
3 -6 4 22 32 -12 -8 6
4 -6 4 20 33 -13 -8 6
0 -11 5 20 34 -12 -7 6
0 -11 5 19 35 -12 -9 6
1 -8 4 17 31 -13 -11 5
2 -7 3 14 29 -14 -11 7
2 -7 4 14 29 -12 -7 10
2 -7 3 12 26 -12 -8 10
4 -4 2 12 24 -12 -6 10
6 -2 2 10 23 -13 -5 9
9 -1 1 9 20 -14 -5 4
9 1 3 11 23 -12 -2 0
2 -3 3 10 26 -11 -2 0
-3 -3 4 10 27 -10 -2 0
-1 0 5 11 27 -8 -4 1
-2 -3 4 9 25 -8 -5 3
-4 -4 4 8 25 -5 -2 4
-4 -5 5 8 23 -3 -1 5
-1 -5 3 7 20 -5 1 5
3 -2 3 6 21 -4 3 7
2 -2 1 4 18 -6 2 7
-5 -4 2 5 20 -5 3 9
-4 -1 5 7 23 -3 7 13
-1 -3 3 4 23 -4 4 9
7 -2 2 2 20 -5 1 5
5 -3 2 1 18 -6 1 5
1 -6 3 1 18 -5 2 4
0 -4 1 0 14 -6 0 3
-3 -5 0 -1 12 -6 0 3
-3 -6 -2 -4 10 -7 -1 2
-2 -7 -1 -2 13 -6 1 3
-4 -9 0 -1 13 -6 0 2
-5 -10 2 -1 16 -6 1 2
-4 -9 2 0 17 -5 2 2
-1 -5 3 0 17 -5 2 0
1 -5 1 -1 15 -5 1 -1
0 -7 1 -2 14 -3 3 0
-2 -7 2 0 14 -1 5 3
-1 -3 2 -1 14 -1 6 3
-3 -4 0 -2 12 -3 4 3
-4 -8 0 -1 13 -3 4 4
-4 -9 1 0 13 -3 3 4
-2 -5 2 0 15 -3 5 4
0 0 4 4 19 1 6 5
-3 -4 3 3 19 1 6 1
-4 -5 5 3 18 1 5 -1
4 -1 4 1 17 2 6 0
5 -2 2 -1 14 1 4 2
6 -1 0 -1 13 1 6 -1
6 0 2 0 13 2 7 -1
3 -1 0 -1 15 2 7 -1
2 -2 1 1 17 2 9 3
3 -1 2 2 18 2 8 4
3 1 4 4 21 6 9 7
4 1 5 4 22 7 9 7
-1 -1 4 5 21 7 9 7
-1 0 3 4 19 7 10 6
-2 -1 5 6 20 9 11 8
0 2 4 6 19 10 13 8
3 5 4 7 19 10 13 10
2 5 3 6 19 10 12 10
2 5 4 6 21 10 13 12
1 2 2 4 19 6 11 11
0 -1 0 3 18 6 9 10
2 1 2 4 21 9 10 9
4 2 3 5 21 10 12 7
2 3 2 5 20 12 12 4
4 6 4 7 20 13 12 3
4 7 2 5 18 12 12 1
3 6 6 9 21 13 16 5
-1 4 5 9 21 13 15 6
-4 1 4 9 22 13 15 7
3 6 4 9 22 11 14 6
1 4 2 6 20 10 10 3
-2 0 4 7 21 11 10 1
-4 0 3 5 19 11 11 0
-2 -2 3 6 18 10 10 1
3 2 5 8 20 15 11 4
3 5 5 8 19 15 12 5
4 8 3 6 16 13 12 5
6 9 4 8 18 12 12 6
6 6 4 9 17 13 13 8
4 4 5 9 18 12 12 8
3 4 6 9 19 12 12 9
-2 0 5 8 18 11 10 6
-1 -2 4 6 15 10 10 4
4 0 4 5 15 9 9 4
4 4 4 5 14 9 9 2
5 7 6 7 14 10 10 4
5 3 4 3 11 9 9 2
7 5 2 2 10 6 4 -1
11 8 3 4 11 7 5 3
6 6 4 5 14 7 6 5
6 4 6 5 14 7 6 5
2 1 5 5 15 8 5 3
-1 0 3 3 11 7 4 1
2 3 3 2 10 6 3 -1
3 1 4 4 9 7 5 -1
2 0 3 1 7 5 2 -3
4 3 3 1 8 5 4 -1
5 3 2 1 7 3 2 -1
7 2 2 2 8 4 2 0
6 1 3 3 10 4 2 1
2 1 4 2 9 4 1 -1
4 0 5 2 10 5 1 -4
5 0 3 -1 7 4 0 -7
3 -1 2 -2 5 2 -2 -8
1 -2 1 -3 3 1 -3 -7
-1 -3 1 -2 3 1 -4 -5
3 3 1 -2 4 1 -2 -2
0 4 3 0 5 1 -3 0
-1 1 3 1 5 1 -1 1
-1 1 5 2 8 2 0 2
-1 0 5 2 7 2 -2 0
1 0 5 1 7 2 -3 -1
4 1 5 0 5 2 -3 -4
5 1 4 -2 5 1 -3 -6
4 3 4 -1 4 2 -3 -8
3 1 3 -3 2 1 -3 -6
2 1 1 -3 0 -1 -4 -5
4 3 3 -2 2 -1 -4 -2
7 3 4 -1 3 0 -3 -2
10 6 6 0 6 1 -2 -1
4 9 9 2 9 3 -1 -1
3 9 12 4 11 8 2 1
9 15 13 5 13 11 4 3
8 17 14 5 13 11 5 4
6 16 14 5 9 10 4 4
6 18 14 4 8 10 4 3
4 20 15 3 10 10 5 1
4 21 15 4 10 11 5 -2
3 22 16 4 11 10 5 -3
-1 20 15 3 11 8 4 -2
1 20 16 4 12 8 4 1
6 22 14 2 12 9 4 3
10 29 12 1 12 12 6 7
13 36 10 -2 10 13 8 9
11 39 5 -4 6 12 9 10
12 38 1 -5 5 12 9 11
11 37 -1 -5 6 12 9 9
12 40 -1 -4 7 13 9 8
15 42 1 -2 9 15 11 8
14 40 1 -3 10 15 11 7
13 36 1 -3 10 13 10 7
16 33 0 -5 8 12 10 7
15 31 -1 -5 6 11 9 7
17 34 -1 -5 4 13 9 8
17 37 -1 -5 3 13 9 8
14 35 0 -5 3 12 8 7
11 37 1 -4 4 13 10 8
10 38 1 -3 5 12 10 8
14 34 0 -4 4 11 8 5
17 30 0 -5 3 8 5 4
14 21 -1 -7 0 4 1 0
11 17 -2 -9 -3 2 -3 -6
7 12 -1 -11 -5 0 -6 -7
4 10 1 -10 -6 1 -7 -9
10 11 2 -8 -6 1 -8 -9
6 9 3 -7 -5 4 -6 -7
9 10 3 -8 -4 3 -6 -5
13 10 4 -7 -5 2 -6 -6
7 5 1 -9 -8 -1 -8 -11
4 2 2 -10 -8 -3 -10 -13
4 -2 1 -11 -9 -8 -14 -16
4 -4 1 -11 -10 -8 -15 -17
5 2 2 -11 -11 -6 -15 -14
1 -1 1 -13 -13 -8 -18 -16
-3 -4 2 -13 -13 -7 -16 -16
1 -5 0 -13 -14 -7 -16 -17
5 -5 -3 -16 -17 -10 -18 -19
8 -2 -3 -15 -17 -10 -18 -18
4 -5 -2 -14 -16 -9 -18 -17
2 -5 -2 -16 -16 -10 -18 -18
4 -2 1 -14 -12 -8 -15 -16
0 -6 0 -15 -14 -9 -17 -20
2 -5 0 -15 -13 -8 -16 -20
3 -6 -1 -17 -14 -8 -17 -22
0 -9 -4 -18 -17 -9 -18 -24
2 -6 -2 -16 -15 -7 -16 -20
2 -5 -3 -17 -16 -8 -17 -19
4 -3 -2 -17 -16 -10 -17 -17
6 0 0 -14 -13 -9 -17 -16
2 -3 6 -7 -6 -5 -17 -18
2 -5 14 2 3 0 -18 -21
0 -5 27 19 20 12 -20 -24
-6 -10 41 40 40 26 -20 -32
-8 -18 56 63 61 40 -23 -41
-10 -22 68 88 79 51 -26 -51
-6 -21 79 108 95 65 -23 -53
1 -12 80 115 101 72 -16 -48
6 4 67 103 92 69 -8 -33
13 29 55 87 81 70 11 -9
19 44 50 82 82 79 37 14
23 55 46 85 90 93 64 35
32 75 40 83 97 106 95 60
40 95 24 65 95 120 131 96
52 122 -5 32 81 136 180 139
64 149 -35 -9 46 137 226 180
76 171 -71 -54 5 130 269 221
89 197 -114 -107 -47 124 320 262
97 219 -146 -152 -80 136 378 302
94 219 -164 -179 -96 158 430 320
88 203 -168 -193 -112 168 459 316
84 181 -164 -193 -121 165 448 292
77 152 -167 -193 -140 133 395 257
67 137 -169 -201 -175 65 309 218
48 120 -160 -202 -208 -22 185 160
31 95 -155 -197 -230 -98 58 101
17 68 -155 -181 -229 -135 -19 57
9 41 -148 -162 -221 -151 -59 22
5 18 -137 -146 -214 -157 -75 -1
1 -2 -127 -127 -199 -156 -84 -18
5 -16 -121 -103 -174 -143 -84 -31
8 -24 -111 -79 -146 -120 -77 -37
6 -29 -97 -61 -122 -103 -72 -38
9 -27 -79 -46 -102 -87 -65 -37
13 -26 -62 -31 -84 -73 -58 -36
11 -30 -46 -16 -68 -60 -52 -37
10 -31 -32 -5 -53 -49 -47 -35
9 -32 -18 3 -40 -40 -40 -32
8 -32 -11 3 -32 -33 -37 -33
3 -29 -6 -1 -27 -27 -33 -31
-5 -27 -2 -6 -23 -23 -31 -29
-3 -25 -3 -10 -24 -22 -31 -32
-2 -24 -4 -11 -24 -21 -32 -33
-1 -23 -3 -11 -21 -17 -27 -29
2 -18 -1 -11 -19 -16 -24 -26
2 -15 0 -11 -18 -15 -25 -22
6 -12 0 -12 -18 -16 -26 -21
6 -12 0 -12 -16 -16 -26 -20
4 -9 2 -10 -14 -13 -26 -21
4 -10 4 -9 -12 -11 -25 -24
0 -16 4 -10 -12 -11 -26 -26
-1 -17 3 -11 -12 -11 -27 -27
4 -13 3 -10 -13 -11 -27 -24
2 -13 3 -10 -13 -10 -25 -22
-2 -16 3 -11 -15 -11 -25 -23
0 -13 5 -9 -13 -8 -22 -22
2 -14 4 -9 -14 -11 -24 -22
3 -12 6 -8 -11 -10 -22 -22
1 -14 7 -7 -10 -10 -24 -23
1 -16 6 -6 -9 -10 -25 -24
0 -16 8 -6 -8 -9 -24 -21
-5 -17 8 -6 -7 -8 -23 -21
-2 -12 8 -4 -8 -6 -22 -19
1 -10 5 -6 -9 -6 -22 -20
-1 -11 5 -6 -11 -8 -23 -21
-4 -11 7 -5 -9 -7 -20 -21
-10 -15 10 -2 -6 -4 -17 -19
-5 -15 9 -4 -6 -6 -18 -22
0 -11 8 -4 -6 -6 -21 -23
-2 -13 8 -4 -5 -7 -22 -24
-2 -15 10 -3 -4 -5 -21 -22
1 -11 9 -4 -3 -5 -20 -22
0 -8 9 -3 -4 -3 -19 -21
-1 -8 8 -4 -5 -4 -18 -21
-4 -14 8 -5 -6 -5 -18 -22
-4 -12 7 -4 -4 -3 -17 -23
-2 -11 8 -2 -2 -3 -18 -21
-2 -15 8 -4 -3 -4 -20 -22
0 -13 9 -2 -1 -3 -20 -21
2 -13 9 -1 2 -2 -19 -23
3 -12 9 -1 2 -1 -20 -26
8 -8 10 0 2 1 -18 -25
7 -7 10 1 3 2 -18 -21
2 -11 10 1 4 2 -15 -19
4 -10 8 0 3 2 -16 -21
3 -10 8 -1 2 2 -16 -20
2 -10 8 2 5 3 -15 -18
-1 -12 8 1 5 4 -13 -18
-4 -15 8 2 6 5 -14 -19
-1 -15 11 5 10 8 -11 -17
1 -14 13 8 13 11 -7 -15
2 -13 12 7 12 11 -8 -18
7 -8 12 8 13 13 -7 -19
8 -7 10 7 11 11 -7 -22
6 -9 11 9 12 12 -6 -21
7 -11 10 8 12 12 -7 -21
6 -14 9 7 12 10 -9 -21
6 -14 9 8 13 10 -10 -20
5 -15 11 10 16 13 -11 -18
3 -15 12 12 19 15 -9 -18
4 -13 14 15 22 17 -8 -17
5 -11 15 15 23 20 -5 -17
4 -10 15 16 24 21 -5 -16
3 -10 14 17 25 21 -4 -17
4 -10 12 15 23 21 -5 -20
7 -7 12 17 25 23 -5 -21
7 -9 14 21 29 25 -2 -19
6 -6 16 24 32 28 1 -19
3 -5 16 24 34 28 0 -19
4 -7 17 26 36 28 1 -18
8 -4 18 27 37 30 2 -16
11 -5 18 28 38 32 2 -12
12 -6 17 29 37 32 2 -11
12 -3 17 30 39 33 4 -11
12 -6 17 30 39 33 4 -10
14 -7 17 31 40 34 5 -10
14 -4 18 34 43 34 6 -8
12 -2 17 35 43 33 6 -9
8 -4 19 37 45 35 5 -9
7 -3 19 39 48 36 5 -9
9 -5 19 40 49 37 6 -8
13 -3 19 40 47 37 6 -10
13 -2 20 42 48 39 6 -8
11 -2 19 42 49 39 8 -8
9 -3 19 42 48 39 8 -8
6 -5 18 42 47 37 6 -9
8 -3 17 43 47 34 4 -7
11 -1 18 43 46 32 3 -7
11 -3 19 44 48 33 3 -7
12 -2 18 45 50 33 3 -8
15 0 18 45 50 33 4 -7
15 -1 18 44 48 32 4 -8
11 -4 18 45 47 32 3 -5
9 -3 17 44 45 30 4 -3
14 1 15 42 41 26 1 -5
19 3 14 42 38 24 -1 -4
18 0 16 43 41 24 1 -3
18 -2 15 41 40 22 -1 -8
15 -1 16 42 39 20 -4 -11
13 -2 19 45 41 21 -3 -11
11 1 21 45 43 21 -2 -8
11 0 18 42 39 18 -6 -6
11 0 17 42 37 17 -7 -1
11 0 15 40 35 14 -7 -1
8 -5 13 37 31 10 -12 -5
8 -7 12 35 27 6 -15 -9
9 -6 12 34 26 4 -16 -10
8 -5 13 34 26 2 -17 -12
8 -5 14 34 26 1 -19 -10
8 -4 13 31 23 -2 -20 -9
5 -3 13 31 23 -3 -20 -7
6 -2 13 29 21 -5 -21 -8
8 -2 13 28 19 -4 -21 -6
12 1 11 26 16 -5 -21 -7
7 -1 9 24 15 -7 -22 -7
6 -1 8 23 12 -9 -22 -9
6 0 8 21 11 -10 -22 -7
5 1 7 18 9 -12 -23 -7
8 3 7 17 8 -13 -25 -7
5 1 7 17 10 -11 -23 -6
5 2 7 15 9 -12 -23 -6
9 5 9 17 10 -10 -20 -5
10 5 7 14 8 -8 -20 -5
9 5 5 13 5 -10 -19 -7
5 1 4 10 4 -11 -19 -8
3 0 3 9 2 -12 -19 -8
6 3 3 9 2 -11 -18 -5
8 4 3 9 3 -11 -17 -5
1 -1 4 8 2 -11 -18 -6
-3 0 5 8 4 -8 -15 -4
-3 2 6 7 4 -7 -15 -3
2 7 6 8 5 -6 -13 -3
1 6 4 5 2 -6 -14 -4
0 2 2 2 -1 -7 -13 -5
3 5 2 1 -1 -8 -14 -7
-1 4 2 1 -3 -7 -14 -8
-3 3 1 0 -3 -8 -13 -9
-4 1 2 0 -2 -9 -12 -9
-6 -1 2 -2 -2 -9 -14 -8
-3 3 3 -2 -3 -8 -13 -8
3 6 2 -4 -3 -9 -13 -8
5 9 1 -5 -3 -9 -13 -9
8 10 1 -5 -3 -7 -12 -8
5 8 0 -6 -6 -9 -13 -7
3 5 1 -6 -5 -7 -11 -7
2 3 1 -6 -6 -8 -12 -7
1 3 -1 -7 -7 -9 -12 -8
-1 4 3 -4 -5 -7 -9 -5
-5 0 3 -6 -5 -8 -9 -7
-4 2 2 -7 -6 -8 -11 -9
-3 5 3 -5 -5 -7 -10 -8
-5 5 4 -5 -4 -6 -9 -9
-6 3 3 -5 -6 -5 -10 -9
0 5 2 -6 -7 -6 -10 -9
0 3 1 -7 -7 -7 -11 -8
1 2 0 -7 -8 -8 -12 -8
1 4 -1 -8 -9 -8 -13 -8
2 4 -1 -8 -8 -8 -11 -8
5 8 -1 -8 -5 -8 -11 -7
1 7 0 -6 -5 -6 -10 -7
1 6 0 -8 -5 -6 -10 -6
0 6 2 -4 -2 -2 -6 -3
-8 2 2 -5 -3 -1 -5 -3
-9 3 2 -5 -2 0 -3 -5
-9 2 3 -3 0 2 -1 -8
-8 2 2 -2 0 2 -1 -10
-3 6 4 -2 0 3 1 -6
-2 6 2 -2 1 3 1 -2
-1 6 4 -1 2 2 1 -1
2 10 5 0 4 4 0 0
0 9 5 0 4 3 -2 1
1 10 4 0 3 3 -2 0
0 10 3 -2 2 3 -3 -1
-4 6 3 0 3 5 -1 0
-3 8 4 0 2 5 1 0
-1 8 3 1 3 5 0 -3
2 9 4 1 4 7 1 -4
0 10 3 2 5 7 1 -6
0 9 5 3 6 6 1 -5
-1 9 4 3 7 8 2 -2
-5 6 6 4 7 8 3 2
-1 6 4 5 8 10 4 3
7 9 3 3 7 9 2 0
5 9 3 3 7 8 3 0
2 10 6 5 8 10 4 -1
-1 10 6 4 9 11 5 -1
-8 4 6 4 8 10 4 -1
-4 4 5 4 8 9 5 1
0 6 5 4 8 8 4 0
0 2 5 3 7 7 2 -1
3 3 5 4 7 7 2 -2
4 6 4 5 8 8 2 -2
7 10 5 4 7 9 2 -3
1 8 4 5 7 9 2 -3
-6 5 4 6 7 9 4 -2
-5 4 4 6 8 9 4 -1
-9 4 5 6 7 9 5 1
-8 2 2 4 6 6 2 -2
-6 3 3 4 6 6 1 -2
-9 3 4 5 7 7 3 -2
-6 6 9 8 10 11 6 -1
-2 7 7 8 9 10 5 -3
-6 2 6 5 7 8 2 -5
-3 4 4 6 7 8 2 -3
1 7 3 6 6 6 2 0
0 6 3 5 5 6 1 -1
-4 2 3 4 5 4 0 -2
-10 -2 0 1 3 1 -3 -4
-8 0 3 2 4 1 -2 -5
-4 2 4 4 5 3 -2 -4
-1 3 4 2 4 3 -3 -4
2 5 4 3 4 4 -2 -4
-1 3 3 2 4 4 -2 -5
-3 4 5 4 5 4 0 -3
-1 6 4 3 4 4 0 -2
-3 2 2 1 1 2 -2 -2
-5 1 1 0 0 0 -3 -3
-7 -1 2 0 1 0 -3 -2
-7 -1 1 0 2 -1 -4 -3
-4 2 2 1 1 -1 -5 -2
-6 2 1 -2 0 -3 -7 -4
-7 -2 1 -2 -1 -3 -8 -5
0 -2 0 -3 -2 -3 -9 -8
-2 0 0 -3 -3 -5 -9 -11
-2 0 -1 -3 -2 -4 -8 -12
-1 1 0 0 -1 -2 -6 -11
-3 1 2 0 1 -1 -3 -4
-6 -1 2 0 0 -3 -5 -1
-11 -3 2 -2 0 -3 -7 -2
-10 -4 2 -1 0 -4 -9 -1
-11 -4 1 -2 0 -4 -9 -1
-10 -6 1 -2 -1 -3 -9 -3
-10 -6 0 -3 -1 -3 -8 -6
-5 -3 0 -4 -3 -4 -8 -7
-2 0 1 -3 -2 -3 -7 -7
0 3 -1 -3 -3 -4 -8 -9
1 -2 -2 -5 -4 -7 -10 -10
1 1 -1 -6 -4 -7 -11 -13
-1 2 0 -3 -1 -4 -9 -9
-3 0 0 -3 -2 -5 -10 -7
1 2 1 -3 0 -4 -9 -6
1 4 1 -2 -1 -4 -9 -5
-3 6 3 -1 0 -1 -9 -4
-6 10 6 3 4 3 -3 2
-10 8 8 4 7 5 0 4
-9 13 8 4 6 5 -1 5
-10 15 10 4 7 4 -1 5
-9 15 11 3 8 4 -2 5
-7 20 12 4 10 5 -1 5
-6 21 13 5 11 6 -1 6
-4 17 15 5 11 9 1 6
-2 23 13 4 11 7 1 3
-3 22 15 6 11 10 1 4
-2 26 13 6 13 11 3 5
-3 28 10 3 11 11 4 5
-5 25 4 -2 6 8 2 3
0 28 1 -5 5 7 3 5
1 29 -2 -6 6 6 3 8
4 33 -2 -4 8 8 5 9
10 38 0 -1 10 10 6 11
6 36 1 0 12 12 8 13
10 38 1 1 13 14 10 13
7 33 -2 0 11 13 8 11
5 30 -6 -5 5 8 4 8
5 29 -6 -6 5 8 5 9
4 26 -7 -7 4 8 4 8
5 28 -6 -6 5 8 5 10
5 30 -5 -7 4 6 3 11
2 27 -4 -6 7 9 3 12
5 29 -1 -2 10 12 7 15
8 29 -2 -2 10 11 6 14
10 28 -5 -5 4 7 1 10
6 25 -3 -4 4 7 0 10
0 20 -3 -6 0 3 -3 7
-4 12 -6 -8 -3 0 -7 3
-6 8 -6 -10 -5 -3 -10 -1
-11 1 -6 -10 -6 -5 -12 -4
-9 0 -4 -10 -4 -5 -12 -5
-6 2 -4 -10 -5 -5 -12 -5
-3 1 -4 -10 -4 -5 -13 -6
0 3 -5 -10 -4 -5 -15 -8
-5 0 -5 -12 -5 -6 -16 -6
-4 1 -5 -12 -7 -6 -16 -6
0 2 -5 -12 -8 -9 -18 -6
-3 -2 -4 -11 -7 -8 -17 -5
-5 -4 -4 -12 -9 -8 -18 -6
-7 -8 -6 -14 -9 -10 -17 -9
-8 -8 -4 -12 -7 -9 -16 -10
-8 -6 -6 -14 -7 -10 -19 -15
-10 -7 -7 -15 -9 -12 -21 -17
-7 -6 -7 -15 -10 -12 -22 -19
-5 -8 -7 -15 -10 -12 -23 -16
-3 -7 -8 -16 -11 -12 -23 -13
-4 -6 -7 -16 -11 -12 -21 -10
-7 -8 -7 -14 -9 -10 -18 -9
-8 -7 -7 -14 -9 -10 -18 -11
-8 -6 -6 -12 -7 -9 -16 -11
-14 -10 -6 -13 -7 -9 -16 -12
-15 -10 -5 -12 -5 -7 -15 -7
-12 -7 -3 -11 -4 -7 -16 -4
-10 -8 -5 -12 -6 -9 -20 -8
-9 -8 0 -8 -2 -6 -21 -10
-8 -6 6 2 6 0 -20 -13
-13 -7 19 17 21 9 -19 -16
-14 -11 33 41 43 24 -19 -21
-18 -17 48 63 62 36 -22 -33
-19 -21 62 89 82 46 -26 -45
-14 -21 72 109 98 58 -25 -46
-9 -14 74 118 106 67 -19 -38
-1 1 64 111 102 68 -10 -24
4 20 54 96 90 69 9 -3
9 35 45 86 88 76 31 18
20 49 40 86 93 87 56 41
24 65 32 83 97 99 83 66
33 86 19 71 99 113 119 98
45 117 -6 44 92 132 168 139
59 144 -34 4 63 137 215 183
74 170 -67 -42 23 131 259 224
90 195 -110 -97 -27 125 307 265
102 218 -144 -145 -64 136 362 304
101 225 -165 -177 -83 158 414 324
94 212 -171 -197 -102 168 443 320
86 193 -170 -200 -110 169 436 300
81 167 -174 -200 -129 142 385 267
63 144 -178 -209 -162 83 304 230
41 128 -167 -210 -193 5 193 176
27 103 -158 -204 -215 -72 72 118
17 76 -157 -187 -217 -115 -6 73
12 52 -152 -168 -212 -137 -49 41
9 31 -143 -153 -207 -146 -71 14
9 11 -132 -136 -196 -148 -78 -5
10 -6 -127 -113 -174 -139 -81 -22
10 -17 -119 -89 -145 -119 -75 -32
10 -20 -107 -70 -123 -101 -69 -34
7 -24 -91 -56 -105 -88 -65 -35
1 -29 -71 -37 -85 -73 -57 -32
4 -29 -54 -19 -67 -60 -49 -27
2 -29 -39 -7 -50 -49 -44 -26
4 -27 -25 1 -36 -40 -39 -24
3 -27 -14 5 -23 -28 -33 -19
3 -23 -10 -1 -19 -24 -31 -18
6 -14 -8 -6 -16 -20 -28 -17
1 -12 -7 -7 -16 -16 -25 -18
-3 -15 -6 -5 -12 -11 -20 -14
0 -11 -6 -7 -12 -10 -19 -13
1 -12 -9 -9 -13 -11 -20 -12
2 -10 -8 -9 -10 -11 -21 -10
2 -9 -5 -7 -6 -9 -19 -11
2 -5 -2 -7 -2 -8 -18 -12
1 -2 1 -4 3 -5 -17 -12
3 -3 -1 -6 1 -6 -20 -14
5 -1 1 -4 3 -4 -19 -12
3 1 3 -4 3 0 -17 -10
2 2 3 -4 1 0 -15 -7
3 3 -1 -6 -3 -3 -16 -10
1 -1 -3 -7 -4 -6 -18 -13
3 -3 -3 -6 -3 -4 -17 -13
4 -2 1 -3 1 -2 -14 -10
5 0 2 -3 3 -3 -15 -10
3 -1 2 -3 4 -3 -16 -12
4 1 4 -1 6 0 -15 -12
2 -3 4 0 7 1 -15 -12
6 0 4 -2 5 1 -14 -12
9 1 4 -1 4 2 -14 -10
6 3 3 -2 2 1 -13 -9
1 1 6 2 5 5 -10 -9
-2 -4 5 0 3 1 -12 -12
-2 -5 5 1 5 0 -12 -10
-1 -4 6 1 7 0 -13 -8
-2 -7 6 1 8 0 -14 -11
-1 -4 7 1 8 2 -13 -11
4 -2 6 1 8 1 -13 -15
6 -1 7 2 8 4 -11 -13
9 3 7 2 7 5 -11 -12
7 1 5 0 4 4 -12 -11
4 -3 6 2 6 4 -10 -10
10 2 6 2 7 5 -10 -11
9 1 6 2 9 5 -10 -11
5 -2 8 4 13 6 -9 -7
3 -4 9 6 16 7 -9 -7
-1 -7 10 7 16 10 -8 -9
2 -2 11 8 17 11 -7 -7
5 2 9 7 16 12 -6 -8
6 5 9 7 14 14 -5 -7
3 4 7 6 13 12 -4 -7
1 -1 5 5 11 9 -7 -9
7 -1 6 7 15 13 -4 -8
10 2 6 9 17 13 -3 -8
7 2 7 8 19 13 -4 -10
6 -1 8 11 22 15 -5 -11
3 -7 10 11 22 17 -4 -11
8 -4 9 11 22 17 -4 -12
6 -2 8 11 21 18 -3 -11
3 -6 6 10 19 18 -4 -9
5 -5 6 9 19 18 -1 -9
1 -5 6 12 21 19 0 -8
-2 -7 6 12 21 20 1 -12
3 -3 8 15 25 22 2 -11
5 -2 11 18 31 24 4 -8
6 -2 13 22 34 28 4 -8
6 -2 12 20 34 28 4 -9
5 -3 13 21 35 29 5 -9
6 -1 15 24 37 33 8 -6
5 -2 13 23 35 34 6 -8
3 -4 12 23 36 34 8 -9
7 -2 12 23 35 33 7 -8
9 -1 9 25 36 32 8 -7
9 0 11 26 39 33 8 -3
10 1 14 30 45 36 11 1
12 1 15 31 44 36 9 -3
14 1 15 32 47 37 11 -3
15 3 16 32 48 39 12 -4
13 2 15 31 47 40 12 -6
13 1 15 33 48 42 11 -4
10 -2 14 35 48 42 12 -4
10 -1 14 35 46 40 11 -3
6 -1 14 39 49 42 13 -1
8 2 15 39 52 43 13 1
14 6 18 43 56 43 14 1
13 5 17 43 57 43 12 0
13 2 16 44 59 44 14 0
17 3 20 45 61 47 16 3
19 5 20 48 61 48 16 5
21 8 19 49 61 50 18 8
18 6 16 48 57 47 17 5
14 3 16 48 57 47 18 2
14 5 15 50 58 46 18 0
15 3 14 48 58 44 15 -2
13 0 16 49 59 42 15 0
15 2 17 51 60 43 15 2
23 5 16 51 59 41 13 3
26 10 18 50 58 42 13 1
24 11 19 53 59 42 13 3
18 11 18 53 58 42 13 4
10 6 19 54 57 41 16 10
4 3 17 52 54 40 14 11
4 2 16 51 54 37 12 11
7 3 16 53 54 35 11 11
5 0 17 52 54 33 11 10
6 1 18 52 53 31 8 8
8 1 15 48 49 28 5 5
11 1 16 46 47 28 3 4
16 3 16 45 45 27 2 5
13 3 13 44 41 24 0 3
12 2 13 42 40 21 0 5
14 6 15 43 38 19 -1 3
12 4 13 43 36 15 -5 1
9 2 11 42 36 13 -7 2
6 0 13 42 37 12 -5 5
6 -1 15 43 37 13 -6 4
9 1 15 41 36 12 -5 5
10 1 12 37 32 8 -8 2
10 2 11 33 28 7 -11 5
11 4 10 32 25 5 -11 5
8 2 8 29 22 1 -12 5
9 2 6 27 20 -1 -13 4
7 3 5 26 18 -3 -14 4
3 -2 5 25 19 -3 -13 6
7 -3 6 24 19 -3 -13 5
9 -1 4 21 17 -3 -14 3
8 3 6 22 18 -2 -12 3
8 3 6 20 17 -1 -11 0
6 0 5 18 13 -3 -11 0
8 2 3 14 10 -4 -11 0
8 2 1 14 10 -3 -9 4
7 4 2 13 10 -2 -9 6
3 7 3 14 10 -2 -8 8
-3 6 4 13 12 -2 -5 7
-2 3 3 12 12 -1 -6 3
0 2 3 11 13 0 -5 0
0 1 3 11 12 1 -5 1
4 2 3 9 11 2 -5 3
2 2 2 6 7 2 -5 2
-2 -1 1 5 5 0 -6 2
-2 -4 1 4 6 1 -4 4
2 1 2 4 6 3 -2 5
3 5 2 5 7 4 0 7
1 3 2 4 7 4 2 8
-2 0 1 3 6 4 2 7
-2 5 2 4 10 6 3 8
-4 6 5 5 10 7 5 9
0 6 4 3 9 8 5 9
2 6 3 0 6 7 6 8
-6 1 2 -1 3 5 3 6
-6 3 3 0 3 6 6 7
0 4 1 -4 2 4 4 4
0 1 0 -3 1 2 3 4
2 4 1 -2 3 3 4 7
1 2 -1 -4 2 3 1 6
-2 1 -1 -3 4 4 1 6
0 3 2 -1 6 6 4 6
-2 2 1 -1 5 7 4 3
-6 2 1 -1 5 8 6 1
-13 2 3 1 5 10 9 5
-9 3 3 1 4 8 9 6
-2 4 -1 -2 2 6 7 7
-5 -3 -1 -3 1 5 6 6
-8 -5 -2 -3 3 5 7 7
-7 -1 -1 -3 5 7 7 6
-7 0 0 -2 8 9 8 5
-3 2 1 -1 9 9 8 4
-2 0 1 -1 9 10 8 4
-7 -1 2 -1 8 11 8 4
-3 2 2 1 9 12 10 8
-4 -2 1 1 6 10 9 6
-8 -4 0 1 8 11 10 8
-8 -4 -1 0 7 10 10 7
-8 -6 -1 0 8 9 9 7
-8 -6 0 0 10 10 10 5
-7 -2 0 3 12 11 10 6
-5 1 1 3 12 12 12 7
-2 3 3 4 15 15 13 9
-4 0 2 4 14 16 14 8
-2 1 1 4 12 15 15 10
-1 2 0 4 12 16 15 11
-2 1 1 5 13 17 16 12
-1 2 1 4 14 15 16 10
-4 -1 1 5 13 15 16 7
-9 -2 2 7 16 16 17 9
-12 0 5 10 20 20 20 12
-13 -3 6 9 21 20 19 8
-7 4 6 10 20 21 19 3
-3 5 7 11 20 22 19 3
-3 5 6 9 18 21 20 5
-5 3 5 10 18 21 22 11
-6 -2 3 9 17 20 20 13
-7 -2 1 8 16 17 18 11
-7 -1 3 9 18 19 18 11
-8 0 3 10 19 19 18 10
-4 3 4 10 19 20 19 8
-2 3 7 12 22 22 22 8
-7 1 6 11 20 22 21 8
-7 -2 5 10 19 21 19 7
-8 0 6 11 18 23 21 9
-9 1 5 11 17 23 22 11
-4 3 5 11 18 21 21 12
-5 1 7 12 20 21 23 12
-7 1 8 14 21 22 23 10
-8 -2 7 13 20 20 21 11
-10 -5 7 13 21 21 21 9
-7 -2 7 12 21 21 21 9
-10 -3 7 13 20 21 21 9
-15 -7 6 11 18 19 19 7
-11 -4 7 11 17 20 21 8
-7 -4 5 10 15 18 19 9
-4 -2 4 9 14 16 17 8
-4 -1 3 8 13 14 16 8
-4 -3 2 7 12 12 14 6
0 -2 3 7 13 12 13 5
2 2 5 9 15 14 15 4
-2 1 6 10 17 15 15 5
-6 0 7 10 17 16 16 8
-7 -5 6 10 16 15 15 8
-9 -6 5 7 13 13 14 8
-14 -8 4 6 10 11 13 9
-12 -7 3 6 10 11 12 8
-6 -4 2 6 10 9 12 7
-3 -4 3 6 10 9 12 6
-4 -2 6 9 14 10 12 7
-3 2 8 11 16 12 14 9
-2 1 8 10 16 12 13 7
0 0 5 6 11 8 9 4
-5 -2 4 6 11 8 7 6
-6 -2 4 5 8 7 9 5
-5 -3 4 5 7 6 8 7
-7 -4 2 3 6 5 7 6
-12 -8 2 5 8 6 8 6
-13 -8 5 7 10 7 10 9
-12 -7 5 6 10 6 9 8
-8 -5 6 7 12 7 9 9
-4 -3 7 7 12 8 9 9
-3 -5 4 5 10 6 7 6
-3 -10 2 2 7 4 5 3
-4 -8 1 2 4 4 6 0
0 -3 3 4 6 4 7 -3
-1 -4 3 5 7 5 8 -1
-7 -10 2 4 6 4 6 1
-5 -10 3 4 6 3 5 4
-5 -12 2 3 6 2 3 5
-5 -8 4 5 9 5 6 8
-5 -6 5 6 9 5 6 7
-5 -6 5 5 10 5 5 6
-6 -5 6 6 11 7 7 6
-6 -3 7 9 10 8 9 7
-7 -2 7 8 10 6 8 6
-5 -1 6 8 10 7 9 4
-7 0 8 9 12 10 11 5
-8 1 8 9 13 9 10 3
-4 8 8 10 16 9 9 5
-4 8 9 9 16 10 9 5
1 9 13 10 17 10 11 8
1 15 16 14 20 12 12 13
-4 15 19 15 22 16 15 16
-2 19 18 15 22 17 15 16
-4 17 19 14 20 17 14 18
-8 15 18 14 20 16 15 18
-4 19 18 13 19 15 13 16
0 19 16 13 21 15 15 15
0 23 14 12 22 16 15 14
1 25 9 7 18 14 14 13
2 27 5 4 15 12 12 12
3 25 2 4 16 11 13 13
5 25 3 5 17 14 15 16
8 26 5 8 19 19 20 20
7 29 5 9 20 18 21 22
7 30 3 8 19 18 21 23
9 31 5 10 21 20 23 25
5 26 5 10 21 18 21 25
3 23 3 9 21 16 20 23
5 27 2 10 21 17 20 23
8 28 2 8 20 16 20 21
7 26 3 8 19 15 19 20
6 29 3 8 20 17 19 21
3 27 4 9 20 19 20 23
5 28 4 10 20 17 20 24
8 25 1 7 16 13 15 22
5 18 2 5 13 10 12 19
6 15 1 3 10 6 8 14
9 12 1 3 10 3 5 10
5 7 2 3 9 2 3 6
0 3 3 3 10 2 2 3
-6 0 6 6 13 4 2 2
-1 1 5 5 11 4 1 2
3 1 6 5 10 4 3 2
-1 -2 3 4 8 3 1 2
2 0 3 4 7 1 0 3
4 0 1 1 4 -3 -2 1
3 -4 1 2 4 -3 -4 -1
5 -3 2 3 6 -3 -5 0
1 -4 3 3 6 -5 -5 -1
4 -4 3 2 6 -5 -6 -2
5 -3 4 2 6 -4 -5 -1
4 -2 3 2 4 -4 -6 -1
5 -5 2 0 3 -6 -7 -2
2 -7 1 0 2 -6 -7 -1
-4 -8 2 2 4 -4 -5 2
-2 -5 3 4 5 -3 -3 2
1 -6 2 3 4 -5 -5 -1
0 -6 2 3 5 -5 -6 -4
-3 -8 5 6 7 -2 -3 -3
-3 -6 5 4 7 -3 -4 -3
1 -3 4 3 7 -3 -4 -1
1 -6 3 2 6 -3 -5 1
0 -8 3 1 4 -5 -4 3
0 -8 2 1 3 -6 -5 4
-5 -11 5 7 7 -5 -7 2
-5 -9 11 14 13 -2 -10 -5
-6 -10 23 29 26 7 -11 -12
-8 -11 37 51 48 21 -10 -22
-5 -12 53 77 72 36 -10 -32
-7 -18 69 102 93 49 -12 -41
-4 -19 81 122 109 59 -12 -40
-2 -13 85 135 119 71 -6 -30
2 -1 76 128 114 72 3 -13
10 20 62 110 101 72 19 7
14 31 52 100 95 77 39 25
19 41 48 101 101 87 62 47
31 65 42 100 109 100 90 72
44 90 28 89 111 111 123 98
59 118 3 61 104 129 166 134
72 143 -25 20 77 135 212 176
85 166 -59 -28 36 129 251 215
101 191 -99 -85 -16 121 298 260
110 215 -134 -134 -54 131 353 303
110 221 -156 -166 -73 152 404 329
102 206 -164 -188 -92 162 431 326
95 190 -166 -196 -105 158 421 302
86 163 -167 -196 -118 134 373 268
73 146 -168 -202 -148 82 299 229
55 128 -158 -204 -179 9 194 175
38 104 -149 -199 -202 -65 79 117
28 80 -146 -182 -205 -106 3 75
21 51 -142 -163 -201 -129 -38 43
14 26 -133 -148 -197 -138 -57 19
8 5 -127 -133 -191 -147 -69 -1
4 -13 -120 -108 -168 -138 -69 -11
4 -20 -113 -80 -140 -118 -64 -17
4 -26 -98 -61 -116 -102 -62 -21
12 -26 -83 -48 -100 -93 -61 -24
13 -27 -66 -31 -80 -80 -55 -26
11 -26 -49 -12 -61 -64 -47 -25
10 -30 -32 1 -43 -50 -42 -24
6 -33 -22 8 -33 -44 -39 -26
4 -33 -13 9 -25 -37 -36 -25
5 -28 -8 5 -20 -32 -32 -23
4 -26 -6 1 -18 -29 -31 -21
5 -20 -6 0 -16 -28 -30 -20
7 -17 -4 1 -13 -26 -30 -19
7 -15 -5 1 -12 -24 -28 -17
10 -12 -4 1 -9 -20 -26 -15
7 -11 -4 -1 -8 -21 -25 -16
6 -8 -2 2 -4 -19 -24 -16
2 -10 3 5 -1 -15 -21 -13
2 -10 3 5 1 -15 -22 -14
1 -9 5 6 2 -13 -21 -13
0 -10 5 6 2 -13 -20 -14
-3 -13 5 6 1 -12 -20 -12
-2 -12 4 5 1 -11 -20 -9
5 -7 4 6 1 -12 -19 -6
9 -3 6 7 3 -12 -18 -5
5 -3 6 7 3 -12 -20 -9
4 -5 6 8 3 -11 -22 -13
4 -6 8 11 5 -11 -21 -15
4 -8 7 9 4 -13 -24 -17
1 -11 8 9 4 -10 -23 -16
0 -12 5 7 3 -12 -26 -17
2 -8 5 7 3 -12 -24 -16
9 -4 5 8 3 -10 -23 -15
9 -2 7 9 4 -9 -22 -13
8 -2 7 9 4 -11 -22 -13
9 -1 8 9 4 -12 -22 -11
8 -1 9 10 4 -11 -23 -11
5 -3 9 11 5 -12 -24 -12
2 -7 8 11 6 -11 -24 -12
0 -8 10 12 8 -9 -22 -10
-2 -9 11 13 8 -7 -21 -10
-4 -10 9 11 5 -9 -21 -11
-2 -10 9 11 5 -10 -22 -12
2 -6 10 11 5 -9 -21 -12
2 -5 9 11 5 -10 -23 -14
4 -3 10 12 9 -8 -22 -11
7 -2 9 12 8 -10 -23 -12
5 -6 8 12 7 -10 -23 -15
4 -7 9 13 10 -7 -22 -15
3 -7 8 11 8 -7 -24 -19
1 -8 8 11 9 -7 -23 -21
2 -5 11 14 13 -2 -19 -16
0 -9 10 13 11 -2 -20 -13
2 -6 9 13 10 -2 -18 -13
4 -3 10 15 12 -3 -17 -12
1 -7 9 16 12 -3 -17 -13
1 -5 11 17 15 0 -14 -12
7 -3 11 18 17 0 -12 -12
8 -3 10 17 17 0 -15 -14
7 -4 11 18 19 3 -16 -14
4 -6 10 18 18 5 -15 -15
4 -7 10 19 17 4 -15 -13
3 -9 10 19 18 6 -15 -12
1 -9 9 18 17 5 -16 -13
3 -7 9 20 19 5 -16 -14
0 -6 11 23 22 6 -15 -13
1 -3 13 25 24 10 -13 -12
7 1 13 26 25 10 -12 -13
11 -1 12 27 27 12 -13 -16
5 -3 13 28 28 14 -10 -15
0 -6 13 27 30 16 -8 -14
1 -8 11 25 28 14 -9 -15
8 -5 14 29 30 17 -8 -12
9 -5 12 29 29 18 -7 -11
7 -6 11 28 30 16 -8 -12
13 -5 10 30 31 17 -8 -11
10 -6 13 33 35 20 -5 -10
11 -5 14 35 37 20 -6 -10
10 -5 14 36 39 20 -8 -11
7 -7 15 37 38 23 -7 -11
5 -4 16 39 40 24 -4 -11
9 -2 16 40 41 25 -3 -10
8 -4 16 41 42 26 -4 -11
9 -4 14 41 42 26 -3 -11
11 -3 15 42 45 26 -1 -9
16 2 17 45 47 29 1 -6
14 2 18 48 49 31 1 -5
15 1 18 47 49 29 0 -7
16 0 19 50 52 31 0 -5
12 -1 20 52 52 33 0 -3
9 -1 19 52 53 32 1 -1
11 1 19 52 52 31 -1 -1
15 2 17 52 49 30 -3 -2
20 4 16 53 51 31 0 -1
17 3 17 55 53 31 1 -1
18 4 17 57 54 31 0 -1
20 6 16 56 53 29 -1 -4
19 8 14 55 54 28 -1 -4
14 5 16 57 53 28 -1 -2
12 2 17 58 54 29 0 -1
11 0 17 58 53 29 -1 2
16 6 19 61 55 31 1 4
17 9 20 62 55 31 1 5
14 6 17 59 52 28 -1 4
14 5 17 59 50 25 -3 6
11 5 17 60 48 25 -3 6
12 8 17 60 49 22 -4 6
14 6 15 56 46 18 -8 4
8 -1 16 57 45 17 -10 5
9 0 15 54 43 15 -13 0
16 2 13 52 39 11 -15 -4
16 1 12 50 37 8 -16 -7
16 4 12 50 37 9 -16 -4
14 3 12 50 35 8 -15 -2
14 4 13 50 35 5 -17 0
16 4 13 49 33 4 -19 -2
12 1 13 49 33 3 -20 -2
11 6 12 46 31 -2 -21 -3
10 5 11 45 28 -4 -24 -3
10 -1 8 42 24 -6 -27 -5
15 -1 5 38 20 -11 -30 -6
12 -3 6 36 20 -11 -29 -5
15 1 6 35 18 -10 -29 -5
14 1 5 33 15 -13 -30 -6
10 1 6 33 14 -14 -30 -5
13 4 5 32 13 -14 -30 -4
11 5 8 32 14 -14 -28 -2
9 2 7 31 15 -15 -28 0
8 -2 6 29 12 -16 -28 0
4 -4 4 26 10 -15 -29 -2
3 -1 5 26 11 -15 -27 -2
5 1 6 26 10 -15 -24 -1
3 0 6 25 7 -16 -26 -2
2 1 3 20 4 -17 -28 -3
2 2 2 20 4 -17 -27 -3
2 4 2 19 4 -16 -27 -4
4 6 3 20 6 -14 -26 -2
0 2 2 18 6 -14 -25 -1
1 2 3 17 5 -13 -25 1
1 3 4 16 4 -12 -22 2
-1 1 3 13 1 -14 -21 1
0 3 2 13 1 -12 -20 1
-2 1 1 12 -2 -13 -20 -2
-3 -1 -1 9 -5 -15 -21 -3
-1 3 1 9 -3 -13 -18 -2
-2 4 1 10 -2 -10 -18 -1
-1 5 2 10 -1 -10 -17 -1
3 8 2 9 -2 -11 -16 -3
1 7 1 7 -4 -13 -18 -5
-1 7 1 7 -4 -9 -16 -3
-2 4 1 5 -3 -11 -17 -3
-2 2 1 4 -7 -12 -17 -3
0 3 0 3 -9 -13 -16 -3
-3 0 -3 1 -11 -15 -17 -4
-1 1 -4 -1 -12 -17 -19 -8
-4 2 -4 -1 -12 -16 -19 -8
-5 1 -2 2 -9 -13 -16 -5
-8 1 1 4 -7 -11 -13 -1
-9 2 0 1 -8 -11 -15 -4
-8 4 1 3 -8 -9 -15 -1
-8 1 -1 2 -8 -10 -15 1
-7 0 -3 -1 -10 -13 -16 0
-2 2 0 2 -9 -10 -13 3
-3 -1 0 3 -8 -8 -13 5
-4 -1 -1 2 -9 -10 -13 2
-5 2 0 2 -9 -11 -13 -1
-7 1 -2 2 -9 -10 -13 -4
-10 -1 -2 1 -8 -11 -13 -6
-9 -1 -1 2 -8 -11 -14 -6
-13 -4 -1 1 -9 -10 -14 -7
-11 -5 1 2 -8 -9 -12 -5
-7 -2 -2 1 -9 -9 -12 -6
-7 -2 0 3 -8 -8 -12 -3
-7 -2 -1 2 -7 -7 -12 -2
-7 -4 0 3 -8 -7 -11 -3
-4 2 0 5 -6 -5 -8 -2
-6 2 1 6 -4 -5 -6 0
-7 -3 2 4 -4 -5 -8 0
-7 -5 0 4 -5 -6 -10 -2
-8 -6 1 5 -4 -4 -8 -1
-7 -5 2 5 -3 -4 -6 -1
-4 1 3 6 -3 -2 -6 -2
-5 1 3 6 -4 -2 -6 -3
-7 2 3 6 -2 -1 -3 -3
-2 5 4 10 0 0 -1 1
1 8 3 11 1 1 0 5
-3 11 4 13 3 3 2 7
-8 4 4 11 2 1 3 4
-7 0 3 9 1 1 0 2
-4 1 4 10 3 4 2 2
-3 1 5 11 4 5 3 2
-3 5 6 11 2 6 3 1
-4 6 6 14 4 8 5 2
-6 8 6 13 4 7 5 2
-3 9 8 16 7 10 8 5
-2 9 7 16 7 9 6 4
-1 7 7 16 8 8 5 3
1 11 8 15 7 8 6 4
1 8 7 13 6 7 4 2
2 7 6 13 4 7 5 1
-1 3 6 12 4 6 4 1
-6 1 4 10 2 6 4 1
-5 3 5 11 2 8 6 2
-4 4 5 12 3 8 7 2
-1 6 5 12 3 6 5 4
5 7 6 13 4 7 6 6
3 4 8 14 5 7 7 6
4 6 10 15 6 8 7 6
1 4 9 14 3 5 4 3
-7 -1 8 13 3 6 3 2
-4 2 9 13 3 6 2 2
-2 4 8 12 3 6 2 4
-3 2 7 11 2 4 2 3
-3 2 6 11 0 5 1 2
-1 2 7 11 -1 3 1 -2
1 5 6 10 -1 2 2 -5
4 9 6 11 2 4 4 -4
5 8 5 11 2 5 3 0
5 10 4 10 0 1 0 1
5 8 4 8 -2 2 -1 0
4 6 6 9 -1 3 -1 1
2 6 6 9 0 2 0 1
-1 3 5 7 -2 -1 -2 0
3 2 4 7 -4 -1 -3 0
3 3 4 6 -4 -2 -4 2
6 4 3 6 -4 -2 -2 3
11 5 5 8 -3 -1 -1 3
8 2 5 8 -2 -1 -2 0
5 3 3 4 -4 -4 -5 -5
7 5 4 5 -5 -3 -5 -5
4 7 5 6 -3 -4 -3 -2
2 7 6 7 -2 -2 -2 0
0 2 4 6 -2 -2 -4 -3
0 -1 1 4 -5 -5 -7 -6
-1 1 3 3 -5 -6 -7 -7
-1 3 3 5 -5 -5 -5 -6
0 1 4 5 -4 -5 -6 -4
2 -1 4 6 -4 -4 -6 0
-1 -2 4 3 -4 -6 -7 -2
0 -1 5 4 -4 -5 -7 -3
-1 0 5 4 -5 -5 -7 -5
-6 -1 6 5 -3 -3 -7 -2
-8 -2 7 6 -1 -3 -5 -1
-7 -4 5 5 -4 -4 -5 -2
-7 -3 5 6 -2 -4 -3 -2
-6 -3 4 4 -5 -4 -4 -4
-3 -4 2 3 -5 -6 -6 -5
-4 -3 4 4 -4 -6 -6 -4
-4 -4 5 3 -3 -6 -7 -8
-3 -5 4 2 -4 -5 -7 -9
-4 -5 4 3 -4 -5 -6 -10
-8 -8 4 3 -4 -5 -6 -10
-11 -6 4 2 -5 -6 -6 -9
-6 -4 4 4 -5 -5 -5 -5
-4 -2 3 1 -6 -8 -8 -6
-1 5 6 5 -3 -5 -5 -5
1 5 7 6 -2 -3 -5 -7
-2 0 9 6 1 -1 -2 -6
-1 5 11 7 4 1 0 -3
1 11 10 7 3 1 -1 -2
1 14 9 6 3 1 -3 -2
-2 12 10 6 1 1 -2 -1
-1 13 12 6 2 2 -3 -1
4 16 15 8 3 3 -2 3
3 17 14 7 3 3 0 3
3 17 14 6 3 2 -2 0
3 17 14 6 2 1 -3 0
-1 18 14 7 4 4 0 3
-4 22 18 10 9 8 4 8
-2 23 15 8 8 8 5 10
-5 22 11 3 5 5 2 9
1 25 8 0 2 6 3 10
4 26 4 -1 1 4 3 10
2 26 3 -1 1 6 6 11
8 31 3 0 4 9 9 10
10 34 3 1 4 9 9 7
10 34 5 4 7 12 12 7
12 35 4 4 8 13 13 8
9 29 2 1 6 9 10 7
10 27 2 1 4 9 10 10
9 24 1 -1 3 8 7 11
9 22 -1 -3 0 5 7 12
10 24 0 -2 1 6 8 13
10 24 1 -1 1 7 9 14
9 25 1 0 3 8 11 16
8 24 -1 -1 3 8 9 15
6 21 0 0 2 7 8 14
3 19 4 2 2 7 8 14
0 14 1 -2 -2 2 2 6
-2 9 -2 -6 -7 -3 -5 -4
-5 4 -2 -7 -8 -6 -8 -10
-3 0 0 -6 -8 -6 -8 -9
-2 -1 2 -5 -9 -6 -9 -7
0 -3 1 -5 -10 -7 -9 -5
-1 -5 0 -7 -9 -8 -10 -5
1 -4 1 -4 -7 -7 -9 -7
-6 -7 2 -4 -7 -6 -8 -8
-4 -9 1 -5 -9 -9 -9 -10
-2 -6 1 -6 -9 -8 -10 -8
-5 -7 3 -4 -8 -6 -8 -8
-6 -7 3 -4 -7 -7 -9 -8
-6 -10 2 -6 -9 -7 -9 -7
-6 -13 1 -7 -12 -7 -9 -9
-4 -12 1 -8 -13 -9 -9 -9
-4 -12 0 -8 -12 -10 -11 -9
-7 -16 -1 -9 -13 -12 -14 -11
-9 -18 -1 -10 -14 -13 -15 -13
-4 -13 1 -9 -13 -12 -13 -13
2 -7 1 -8 -11 -10 -11 -12
-5 -14 0 -9 -12 -10 -10 -12
-7 -14 0 -10 -13 -11 -10 -13
-6 -12 1 -7 -11 -9 -9 -10
-14 -15 2 -6 -10 -7 -8 -9
-13 -16 3 -6 -11 -8 -8 -9
-10 -18 2 -8 -12 -11 -10 -9
-11 -23 -1 -10 -14 -12 -13 -12
-15 -23 4 -4 -8 -8 -13 -14
-17 -24 11 4 0 -4 -14 -16
-16 -18 20 16 13 6 -16 -19
-9 -14 35 37 34 20 -17 -24
-11 -21 49 60 54 33 -20 -33
-14 -29 65 85 76 47 -21 -41
-12 -34 78 108 94 59 -22 -46
-7 -27 82 119 105 67 -17 -43
-1 -14 76 116 101 68 -11 -33
4 0 61 98 88 66 3 -15
6 19 51 86 82 72 27 10
15 36 47 86 86 83 55 35
20 53 42 84 91 93 82 58
27 74 32 72 92 104 112 86
38 100 9 51 90 125 159 124
49 122 -17 17 69 136 211 164
61 146 -45 -21 35 135 256 205
73 173 -85 -68 -10 126 303 245
81 196 -124 -123 -59 125 358 290
88 209 -146 -153 -77 148 419 327
85 197 -154 -170 -93 163 457 331
82 177 -153 -176 -107 164 465 313
77 153 -153 -176 -120 144 426 283
62 131 -160 -187 -154 86 349 243
40 117 -153 -191 -188 7 236 190
21 98 -142 -189 -215 -76 102 128
15 81 -138 -177 -219 -120 13 82
9 60 -136 -158 -212 -140 -36 47
-2 34 -132 -146 -208 -151 -62 18
-2 12 -124 -133 -202 -156 -75 -6
-2 -9 -113 -107 -182 -147 -78 -23
-3 -26 -106 -82 -155 -129 -74 -34
-2 -32 -97 -61 -128 -108 -68 -38
-5 -37 -83 -47 -108 -91 -59 -33
-6 -37 -68 -33 -92 -77 -53 -30
-3 -34 -52 -19 -74 -64 -46 -28
0 -36 -39 -7 -58 -52 -43 -27
4 -37 -25 3 -43 -43 -37 -27
6 -36 -14 6 -33 -34 -33 -28
1 -39 -10 3 -29 -28 -32 -28
-2 -33 -7 -4 -26 -24 -29 -28
1 -28 -5 -10 -24 -22 -26 -24
2 -25 -3 -10 -21 -18 -23 -21
1 -22 -3 -10 -19 -15 -20 -16
-4 -24 -3 -11 -19 -15 -19 -15
-6 -22 -2 -11 -16 -13 -17 -13
-8 -20 -2 -11 -14 -13 -18 -14
-9 -15 0 -9 -11 -10 -15 -13
-7 -10 2 -6 -7 -7 -15 -13
-9 -11 2 -8 -7 -8 -18 -14
-9 -12 4 -8 -5 -6 -17 -13
-7 -11 4 -9 -6 -5 -16 -14
-8 -15 4 -8 -7 -4 -15 -14
-8 -14 5 -9 -7 -4 -13 -12
-6 -12 4 -10 -8 -4 -11 -12
-4 -14 3 -10 -9 -5 -12 -14
-3 -14 2 -9 -8 -5 -11 -13
-3 -12 2 -11 -8 -6 -12 -13
-4 -11 2 -11 -8 -8 -15 -16
-6 -12 6 -8 -3 -4 -13 -16
-8 -14 6 -7 -2 -3 -11 -15
-6 -9 7 -7 -3 -2 -14 -15
-3 -9 7 -6 -3 -2 -15 -14
-1 -12 6 -7 -4 -2 -15 -11
1 -10 4 -8 -5 -4 -14 -11
-6 -13 4 -9 -6 -4 -14 -12
-6 -12 5 -7 -4 -4 -12 -10
-6 -10 5 -7 -3 -4 -11 -9
-9 -14 5 -6 -2 -3 -14 -13
-6 -13 5 -8 -3 -5 -16 -16
-7 -12 4 -9 -4 -5 -16 -16
-10 -14 8 -6 -1 -1 -13 -13
-7 -11 7 -6 0 1 -12 -12
-5 -11 6 -8 -2 -2 -11 -10
-5 -10 5 -8 -3 -2 -10 -8
-1 -6 6 -7 -1 -2 -10 -8
-1 -7 8 -5 1 -1 -10 -6
1 -5 8 -4 2 -2 -9 -8
-1 -7 8 -4 4 0 -9 -9
-5 -11 7 -4 5 0 -11 -14
-6 -12 8 -5 6 1 -10 -17
-4 -12 7 -6 5 2 -10 -21
-2 -12 7 -5 5 3 -8 -19
-1 -11 8 -5 5 3 -6 -12
0 -8 7 -4 6 4 -4 -8
7 -2 7 -3 9 6 -2 -7
8 0 10 -1 9 6 -2 -7
1 -4 10 0 11 7 -1 -9
-6 -7 10 3 15 11 1 -7
-8 -8 10 3 16 11 -1 -4
-3 -7 11 2 17 12 0 -3
-2 -9 10 2 17 14 1 -3
-5 -11 7 2 15 12 -1 -6
-4 -12 7 2 15 14 1 -7
-5 -12 7 2 15 15 2 -11
-5 -7 6 2 15 14 1 -16
0 -3 7 4 19 15 3 -14
1 -3 9 6 22 18 5 -8
0 -8 8 5 23 19 4 -6
0 -11 7 5 25 18 2 -9
-2 -12 8 6 26 19 1 -13
0 -10 10 7 26 21 4 -11
1 -7 9 6 26 21 3 -12
1 -7 8 7 26 22 3 -11
-2 -7 9 10 27 24 6 -9
-4 -7 8 10 28 24 5 -9
1 -5 9 12 32 27 8 -7
2 -5 10 12 34 28 8 -6
4 -5 9 14 36 29 7 -6
5 -2 12 16 39 31 8 -4
5 -3 12 17 40 33 10 -3
6 -4 10 15 39 33 10 -3
5 -4 9 15 39 33 11 -3
6 -4 8 15 38 33 10 -3
3 -5 8 17 40 34 13 -2
-3 -5 13 21 45 38 17 2
0 -2 11 22 46 37 16 1
6 3 14 25 51 40 19 4
6 5 14 25 51 39 19 2
7 4 15 26 51 39 16 2
12 5 14 27 53 39 16 1
15 4 12 25 51 38 14 -1
16 4 11 25 50 38 13 -3
13 2 11 26 50 39 13 1
12 2 10 26 49 37 13 2
12 4 9 26 49 36 12 2
8 3 10 29 52 37 14 4
4 3 12 32 56 39 17 7
4 3 13 32 56 39 17 5
3 1 12 32 56 39 15 5
6 5 14 34 57 39 15 6
7 8 16 35 56 40 14 8
8 10 16 34 55 39 13 7
8 8 13 32 52 35 10 6
4 5 13 32 50 33 11 8
3 2 11 30 49 30 10 7
7 4 10 30 47 28 7 7
6 2 9 29 46 25 4 5
11 3 9 28 45 22 3 2
11 1 11 29 46 23 1 4
11 3 10 29 44 21 -1 3
14 5 11 28 43 18 -3 3
6 1 9 27 41 17 -5 1
4 2 11 27 40 16 -5 -1
8 3 11 25 38 14 -6 -3
8 3 9 22 33 8 -10 -5
7 4 9 24 34 8 -11 -1
3 0 10 24 34 7 -12 0
5 0 8 21 32 3 -15 -3
5 2 9 21 31 1 -16 -2
2 -1 8 21 29 -1 -18 -1
5 0 7 18 26 -4 -19 -1
11 -1 5 16 22 -5 -20 1
12 3 5 15 20 -7 -20 1
10 7 4 13 18 -9 -20 2
11 7 4 12 17 -10 -20 1
9 7 1 10 15 -12 -21 3
9 7 3 10 16 -11 -19 5
5 3 1 9 18 -11 -18 3
6 4 2 8 17 -10 -19 0
7 8 3 9 17 -10 -16 -2
0 2 1 5 14 -12 -18 -5
0 3 -1 4 12 -11 -19 -5
2 5 -1 3 11 -11 -18 1
3 7 0 2 10 -10 -15 3
3 10 0 2 10 -9 -13 5
2 9 1 2 11 -9 -11 6
6 13 0 0 10 -9 -12 5
2 12 0 0 11 -7 -11 4
-6 9 0 1 11 -5 -11 5
-8 7 1 2 12 -4 -9 5
-2 6 -1 -2 8 -6 -10 3
2 7 0 -2 8 -4 -7 1
-1 8 0 -2 8 -3 -5 3
-1 9 -2 -3 7 -4 -4 3
1 12 -2 -4 6 -3 -3 5
1 13 1 -1 8 -2 -2 7
-2 11 2 -1 9 -1 -2 8
-2 14 3 -1 11 1 -1 8
-2 14 3 -1 11 1 0 8
-6 11 3 -1 11 2 1 6
-5 10 4 -2 11 3 2 7
-4 8 1 -6 6 0 -1 2
-4 7 0 -6 4 1 -1 3
-5 9 0 -6 5 -1 1 3
-2 11 2 -5 7 2 3 7
-4 11 1 -5 7 1 2 6
-4 9 0 -5 6 0 1 4
-1 11 0 -6 6 -1 0 1
1 15 2 -3 8 3 2 3
-1 13 4 -1 11 5 4 3
-5 11 4 -2 9 4 2 2
-8 8 5 -1 9 5 2 2
-7 7 3 -1 8 5 3 2
-8 8 3 -2 8 4 5 3
-8 7 0 -3 6 3 5 3
-4 10 0 -1 8 3 6 4
-1 10 2 0 10 3 7 6
-1 8 2 -1 10 2 6 6
3 12 4 1 12 5 8 9
1 11 4 1 13 6 9 10
-1 8 4 0 12 7 9 11
-1 8 2 -1 10 6 9 10
-2 6 0 -2 9 6 8 8
-2 11 2 0 10 8 12 8
-8 11 4 2 13 11 15 8
-15 7 4 4 15 11 15 7
-10 8 3 3 17 10 14 7
-5 9 4 3 18 10 14 6
-6 10 4 4 19 12 14 6
-3 11 3 3 19 12 14 8
-4 8 4 3 19 13 15 10
-3 8 6 4 19 14 17 12
-2 11 5 6 20 15 18 14
2 12 3 5 19 14 18 14
3 12 4 5 20 14 19 14
3 15 3 6 20 13 18 12
0 13 4 5 20 12 17 9
0 12 3 5 21 12 18 6
-3 7 2 5 21 14 17 6
-5 9 4 7 24 16 19 8
-5 9 5 8 25 18 21 11
-2 11 6 10 26 20 24 13
1 13 7 11 25 20 25 17
5 12 7 10 24 19 25 18
3 13 4 7 21 17 23 18
-2 12 4 9 24 18 23 20
-3 13 4 8 23 17 22 20
-4 14 7 11 26 19 24 19
-6 15 9 14 28 22 26 18
-9 9 8 12 28 21 25 11
-7 10 7 10 25 19 22 7
0 12 4 8 22 17 20 6
2 12 3 7 21 14 19 9
1 13 4 9 21 15 19 10
-1 10 4 9 20 14 19 11
-2 11 5 11 23 15 21 12
-3 11 5 12 24 15 20 13
-2 8 5 12 25 16 20 12
-1 9 5 12 24 16 20 13
0 11 6 12 24 16 18 12
-1 9 6 10 23 16 18 12
0 7 6 10 21 15 18 13
0 6 7 11 21 15 19 14
-2 9 7 11 20 14 19 13
-4 8 6 11 20 14 19 13
-2 7 6 12 20 15 20 11
0 11 7 12 20 14 19 9
-3 9 9 14 22 17 19 11
-5 8 8 13 22 15 18 10
-6 6 8 13 22 14 16 9
-5 6 4 8 17 11 12 6
-2 7 4 8 16 10 13 7
1 8 5 9 17 10 14 10
-1 8 6 10 16 10 14 10
-3 9 8 13 18 13 16 12
-3 7 7 13 18 11 15 10
-1 7 6 11 17 9 14 9
0 7 6 10 15 9 12 7
1 5 6 10 16 8 10 6
2 4 7 11 17 9 10 5
-1 5 6 10 15 9 9 5
-4 3 8 11 16 10 9 8
-2 6 7 11 16 10 9 7
-6 4 5 9 14 8 8 7
-7 3 3 7 11 5 6 6
-6 5 4 9 13 6 7 8
-5 4 5 10 15 7 9 10
-3 3 7 11 15 8 9 10
-3 2 6 9 13 6 5 6
-5 -2 5 7 12 4 5 2
-5 1 5 8 12 4 6 -1
-4 0 4 7 10 5 3 -3
-2 -1 1 6 7 2 1 -4
-5 -1 2 7 7 2 1 -1
-3 0 2 6 7 1 1 1
-1 1 4 9 10 2 2 4
-1 3 5 11 12 4 4 5
-1 3 7 13 14 5 6 7
-2 5 8 13 15 6 5 5
-6 1 7 13 14 6 5 3
-6 3 9 13 15 8 8 4
-1 6 8 12 13 7 6 3
-1 11 8 12 13 7 6 6
0 15 11 15 16 10 11 10
-2 16 13 18 18 12 10 13
-5 14 14 18 18 12 10 12
-3 17 14 17 19 11 11 12
1 19 15 16 18 11 10 11
4 22 14 15 18 10 9 10
3 21 16 17 21 13 11 11
3 22 14 15 18 12 10 8
1 25 17 16 20 14 10 8
-1 29 18 19 22 16 11 7
-2 32 18 19 22 16 12 9
1 34 15 17 21 16 13 13
-1 31 11 14 18 14 13 16
4 35 5 10 16 13 13 16
7 37 2 8 14 11 13 15
2 34 4 11 17 14 15 17
0 39 7 14 21 17 17 19
1 39 6 12 20 17 17 20
1 38 5 13 18 17 18 21
6 44 5 13 19 18 19 21
5 41 4 12 16 16 18 22
4 37 2 11 15 16 19 23
3 31 0 10 14 14 18 19
2 32 0 9 14 12 17 17
5 40 1 10 15 14 18 19
3 37 3 13 17 16 19 20
1 34 2 12 15 15 18 18
1 36 5 14 18 16 19 22
-3 28 3 13 14 14 15 15
-3 21 1 9 9 8 11 11
1 19 2 9 7 6 9 10
1 18 1 6 5 3 6 7
5 19 1 7 3 2 1 4
7 20 2 7 4 0 0 4
2 15 0 7 3 -2 -2 1
0 9 2 8 4 0 -2 2
-2 5 1 5 1 -2 -4 0
-1 5 1 6 2 -3 -3 1
-3 1 1 6 1 -2 -3 2
-10 0 1 7 1 -3 -2 3
-10 3 3 8 1 -3 -2 3
-6 4 1 6 -1 -5 -4 -1
-4 5 0 5 -3 -6 -5 -4
-6 2 0 6 -1 -7 -4 -4
-5 -1 1 6 -2 -9 -6 -5
-1 0 -1 5 -4 -10 -9 -6
0 -1 -2 4 -5 -11 -9 -6
-2 -2 -3 1 -7 -13 -12 -7
-2 -2 -4 1 -8 -13 -13 -7
-2 -3 -5 0 -9 -14 -14 -6
-8 -7 -5 1 -9 -14 -12 -5
-13 -5 -1 5 -5 -10 -8 -1
-7 1 0 6 -5 -9 -7 -2
-2 3 0 5 -3 -10 -6 -4
-6 0 1 5 -2 -9 -7 -5
-11 -2 2 6 -2 -9 -7 -4
-11 -5 0 3 -5 -11 -8 -5
-13 -5 -3 0 -7 -16 -11 -6
-12 -4 2 5 -3 -11 -11 -5
-11 -4 8 13 4 -6 -10 -6
-14 -6 18 26 17 2 -11 -10
-17 -7 32 45 36 15 -12 -16
-14 -9 47 69 58 30 -12 -20
-14 -12 62 96 81 44 -14 -29
-10 -12 74 117 98 54 -17 -35
-10 -12 80 130 111 65 -13 -33
-7 -5 76 129 110 68 -5 -24
-3 15 62 111 96 64 7 -6
2 35 49 97 85 66 27 15
11 51 46 98 89 78 54 38
13 66 41 97 95 91 83 64
18 90 33 89 99 105 116 96
30 118 10 64 94 123 160 132
47 145 -17 29 72 133 212 176
64 171 -49 -11 37 130 254 216
75 192 -88 -59 -11 121 300 258
81 214 -129 -114 -59 120 355 298
86 229 -154 -149 -82 141 413 330
81 221 -163 -171 -102 156 455 337
72 203 -162 -176 -116 158 469 323
69 174 -162 -173 -127 140 437 291
58 148 -167 -179 -159 84 362 249
42 134 -162 -181 -189 5 254 197
24 109 -155 -180 -218 -83 117 138
11 82 -155 -170 -227 -136 14 88
8 58 -153 -153 -221 -159 -43 50
5 35 -143 -136 -212 -166 -68 21
3 15 -134 -121 -203 -169 -80 2
4 -1 -124 -98 -181 -157 -79 -9
-1 -17 -114 -69 -151 -133 -72 -15
0 -20 -103 -49 -123 -111 -63 -18
-1 -20 -86 -32 -102 -92 -54 -16
-5 -21 -67 -17 -81 -77 -46 -15
-2 -24 -50 -1 -64 -64 -38 -15
-1 -28 -36 11 -49 -55 -36 -22
-4 -34 -23 18 -35 -46 -32 -26
-5 -35 -14 21 -24 -38 -28 -26
-7 -35 -8 17 -19 -31 -26 -20
-1 -28 -6 10 -17 -27 -23 -15
2 -23 -6 4 -16 -25 -20 -12
-2 -21 -7 4 -16 -21 -20 -13
-2 -14 -4 6 -13 -18 -17 -10
-6 -13 -2 6 -9 -15 -13 -6
-8 -9 -1 7 -6 -13 -11 -3
-8 -6 1 8 -2 -12 -11 -2
-10 -11 0 7 -2 -13 -12 -3
-11 -12 3 7 1 -11 -10 -5
-13 -14 6 9 3 -8 -9 -3
-15 -14 4 7 4 -8 -10 -4
-8 -10 4 7 1 -7 -8 -6
-5 -8 3 5 -1 -7 -9 -9
-2 -3 3 6 -1 -7 -9 -7
1 3 3 7 0 -6 -8 -6
-1 0 4 9 2 -6 -7 -1
-3 -4 5 10 5 -5 -6 0
-4 -9 6 11 6 -5 -7 -2
-14 -16 7 10 7 -6 -9 -4
-14 -16 7 10 6 -5 -10 -4
-11 -15 5 8 4 -7 -13 -7
-11 -17 6 8 2 -6 -11 -9
-9 -12 7 9 3 -4 -8 -5
-10 -11 5 9 2 -4 -9 -7
-7 -6 5 9 2 -5 -9 -6
-3 -5 7 11 4 -4 -8 -4
-7 -10 5 10 3 -6 -10 -6
-10 -10 7 10 6 -6 -10 -7
-12 -13 8 12 8 -4 -8 -6
-8 -11 9 13 9 -2 -9 -6
-7 -8 9 13 9 -1 -8 -6
-7 -8 9 11 7 -2 -9 -8
-8 -7 8 10 5 -3 -10 -9
-6 -7 6 9 4 -3 -10 -8
-1 -4 5 9 4 -4 -10 -8
1 -2 7 11 7 -3 -7 -6
1 -4 5 10 8 -4 -9 -7
6 -4 7 11 10 -3 -8 -6
1 -6 7 11 11 -3 -8 -9
-6 -9 8 12 13 0 -6 -7
-6 -5 8 13 13 1 -6 -8
-6 -5 9 13 14 4 -5 -7
-8 -7 9 14 15 6 -2 -6
-12 -9 10 16 15 8 0 -5
-11 -9 9 16 15 7 1 -5
-3 -5 9 17 18 9 2 -3
-2 -6 9 18 20 10 2 -3
-4 -8 12 19 22 11 3 -2
-5 -7 12 20 24 12 3 -2
-3 -9 12 19 23 13 2 -2
1 -10 8 16 19 10 0 -7
6 -7 7 16 19 11 1 -6
4 -8 6 15 19 13 1 -9
1 -10 5 15 17 13 1 -10
2 -4 7 18 21 16 4 -8
0 -4 10 22 27 19 9 -9
1 -4 10 23 28 20 8 -9
-4 -8 12 24 31 21 8 -5
-8 -11 12 25 34 22 8 -7
-8 -10 14 27 36 25 9 -5
-3 -11 13 26 35 25 9 -5
-1 -8 16 28 37 28 13 -2
-5 -8 14 29 35 29 13 -1
-4 -7 16 31 37 32 15 1
3 -4 15 32 38 33 17 0
3 -3 14 31 39 32 15 -3
-1 -6 16 33 41 34 16 -2
-1 -6 18 35 45 35 16 0
-2 -10 18 36 46 36 16 -5
2 -6 19 36 47 37 14 -2
3 -4 20 38 47 39 15 -2
1 -4 18 36 46 38 15 -2
3 -4 16 37 45 38 16 -2
1 -4 18 39 48 40 18 0
0 -8 18 41 49 42 20 2
3 -11 19 42 51 43 22 3
1 -11 18 43 53 42 20 0
4 -5 18 44 56 43 20 1
6 -1 20 46 58 44 21 2
10 2 23 49 61 47 21 4
10 1 22 51 62 48 22 4
8 -1 22 51 62 48 23 3
8 1 20 50 59 47 22 4
9 2 21 51 60 49 23 5
13 2 20 52 59 47 21 6
10 4 20 53 61 46 22 5
10 2 21 55 63 46 22 4
12 -2 21 55 63 45 20 5
9 -1 20 54 62 43 19 3
9 -2 21 55 61 43 18 2
9 -1 20 55 61 42 17 2
10 -2 22 56 61 43 19 4
10 -1 19 55 58 41 17 3
11 1 18 55 57 40 17 5
13 3 18 56 58 38 17 6
12 -1 18 54 56 35 15 7
15 1 19 56 56 34 14 8
14 0 19 54 56 31 12 7
12 -1 17 53 53 28 9 4
11 -2 19 53 52 28 8 4
4 -8 19 53 52 27 8 5
1 -7 20 53 49 26 7 5
4 -5 19 53 48 25 7 4
5 -2 21 53 47 23 6 4
4 -2 20 53 45 21 6 3
3 -5 20 52 44 18 5 3
8 -2 19 51 43 16 3 5
11 0 19 49 41 13 0 8
6 -3 18 47 38 10 -2 9
7 -6 18 45 37 8 -5 7
4 -8 15 41 33 4 -7 4
7 -6 15 40 31 4 -7 2
7 -5 12 36 27 1 -9 -3
3 -6 13 37 27 2 -8 -4
6 1 16 40 29 3 -5 -2
4 0 14 37 26 0 -6 3
4 -1 12 34 24 -2 -9 6
6 -1 13 34 24 -3 -10 7
5 1 13 33 26 -1 -8 7
6 2 12 31 23 -2 -10 6
3 0 12 30 22 0 -10 6
0 -2 11 28 21 0 -7 5
1 1 10 26 18 -1 -7 5
-1 0 9 24 15 -2 -7 5
-1 1 6 22 14 -4 -6 1
-3 2 6 22 14 -4 -5 2
-6 0 7 22 14 -4 -5 2
0 2 6 20 14 -5 -5 3
5 2 7 19 15 -4 -3 3
7 7 7 18 15 -3 -6 2
8 9 8 19 16 -1 -4 4
3 6 9 18 15 2 -2 5
-1 5 6 16 13 2 -3 5
0 9 5 14 10 0 -3 4
1 8 3 12 8 -3 -3 3
0 3 3 11 8 -1 -4 2
1 3 4 13 9 -1 -2 3
3 2 4 10 8 -2 -4 1
6 2 2 9 7 -3 -4 -1
7 4 4 10 9 0 -3 1
7 6 5 11 9 1 -2 1
5 7 5 9 8 2 -1 2
4 5 5 9 7 2 -2 5
-2 3 5 9 5 1 0 5
-5 6 5 9 5 0 2 6
-4 4 4 7 4 -1 1 5
-2 4 4 7 5 -1 1 3
-5 4 6 10 6 1 4 3
-5 5 5 8 6 0 3 2
-1 5 4 7 5 0 1 2
-2 4 4 8 5 1 1 1
-1 5 4 7 3 2 2 2
3 7 5 7 3 4 2 4
1 4 4 6 2 3 1 3
-2 5 3 6 1 1 1 2
-1 5 4 8 2 3 3 1
-1 7 5 9 4 3 3 2
-2 8 6 10 5 4 5 2
-6 4 5 9 5 4 3 2
-8 1 4 9 4 3 2 1
-6 2 5 10 5 4 3 3
-2 0 4 9 5 4 3 5
2 2 5 9 5 5 4 7
4 7 5 10 5 6 4 6
5 9 6 10 6 5 5 7
6 8 5 10 6 5 5 8
0 5 6 11 7 6 5 8
-3 5 7 13 10 9 7 8
-1 6 6 12 11 9 6 4
-1 4 5 11 9 7 4 -1
-1 6 7 13 11 11 7 1
-4 4 7 13 9 11 8 4
-2 2 7 13 10 11 8 8
2 7 7 14 10 12 9 11
1 7 5 14 11 10 11 12
3 9 7 14 11 11 11 13
2 11 8 16 14 11 12 14
-2 8 8 16 15 11 11 11
-1 7 6 14 14 11 10 8
-2 7 6 14 15 12 9 6
-1 11 7 16 16 14 11 4
1 14 8 15 15 14 11 5
-1 9 7 15 14 14 11 8
5 11 8 17 14 15 13 13
10 14 7 16 14 15 14 14
9 12 6 14 13 14 13 13
11 13 5 14 13 14 12 11
8 13 7 15 15 15 13 10
3 11 9 17 18 17 14 13
4 12 9 17 17 17 14 13
2 7 8 15 17 16 11 11
4 8 8 14 16 16 11 6
6 11 8 14 16 15 11 6
2 11 7 13 13 13 11 6
0 10 6 14 14 14 11 8
5 8 7 14 13 13 10 9
9 8 7 14 13 12 11 10
7 11 10 16 16 14 13 10
7 14 10 17 18 17 15 11
10 13 11 17 18 16 13 11
6 7 10 16 17 16 13 14
0 4 10 15 16 15 13 12
-3 6 10 16 15 16 13 11
-4 5 10 15 13 16 12 9
-1 3 9 15 13 14 12 7
2 4 6 12 11 12 10 4
1 5 7 13 12 11 10 3
4 10 10 16 15 13 11 4
5 7 10 15 15 11 9 4
2 3 7 13 12 10 5 1
2 3 7 13 12 10 5 3
5 5 8 13 11 11 5 5
2 4 7 12 11 11 5 5
4 5 8 12 10 12 6 4
3 3 7 10 8 10 5 3
3 5 9 12 9 11 7 3
7 5 8 12 8 9 6 2
8 6 9 12 11 9 6 1
5 8 8 12 11 7 4 0
-1 4 8 11 10 8 2 -1
2 6 10 12 11 9 3 0
8 10 10 12 10 9 3 1
10 8 8 11 9 8 2 1
7 4 9 12 9 9 5 3
6 2 9 12 9 8 4 2
4 4 9 12 9 9 5 3
5 3 10 14 11 9 4 4
4 0 9 12 9 7 2 0
1 -3 9 12 10 8 2 2
1 -3 10 12 11 10 3 2
2 -1 9 12 10 9 2 2
2 1 9 11 10 9 1 1
2 0 10 12 10 9 3 6
-1 -2 10 13 10 9 5 5
-3 -2 10 13 10 10 5 5
3 -2 7 8 6 5 2 1
11 1 5 8 6 3 0 1
10 -1 7 9 8 4 1 0
6 -4 7 8 8 4 1 -2
4 -4 8 8 8 5 0 -2
-2 -6 9 10 9 6 0 0
-3 -4 12 13 11 10 3 1
2 -1 13 14 12 11 4 2
4 -5 10 11 10 9 4 1
5 -5 9 9 7 6 0 0
11 -1 9 10 8 7 3 0
11 1 8 9 9 6 2 1
8 -1 8 10 10 7 2 2
4 -8 9 10 11 7 2 0
1 -12 8 8 9 6 0 -3
0 -11 7 9 9 5 2 -2
1 -8 9 9 9 6 2 -2
5 -5 10 11 11 9 4 1
7 -2 11 12 11 9 4 1
7 3 12 13 12 10 3 6
7 5 13 13 12 10 3 7
8 3 15 16 16 12 5 4
8 3 16 18 19 15 8 3
6 9 20 20 24 20 12 6
8 9 21 18 22 17 9 4
6 8 22 18 22 19 10 6
3 8 22 16 21 17 10 8
1 5 19 14 18 15 6 4
9 12 18 14 17 15 10 3
8 15 21 15 19 17 11 5
6 18 21 16 20 17 10 8
5 21 25 21 25 21 14 12
4 23 23 20 26 22 15 14
10 29 21 17 26 22 16 17
11 26 17 13 23 20 14 18
13 27 14 9 20 19 14 18
17 27 10 7 18 17 13 19
20 25 7 6 17 18 14 18
19 27 9 9 21 22 18 19
19 32 10 11 21 23 20 19
15 33 11 13 24 26 22 19
13 33 13 15 25 26 22 16
15 29 13 16 25 25 21 18
15 26 11 14 24 23 20 20
18 28 12 14 24 24 20 23
22 30 11 13 24 25 20 23
19 29 9 11 22 23 19 21
17 29 10 11 21 24 19 21
19 28 10 11 21 24 22 22
18 29 11 12 22 24 23 22
17 24 10 12 20 21 21 19
15 17 9 8 17 18 17 17
16 14 10 7 16 15 14 15
13 6 9 6 13 12 8 11
12 2 10 8 15 14 9 10
12 2 13 9 16 13 9 12
12 0 12 7 14 12 5 6
15 0 9 5 11 10 4 5
11 -5 9 4 9 7 2 2
12 -5 9 5 10 8 2 7
13 -6 8 5 9 8 1 5
9 -12 6 2 6 4 -1 1
6 -16 6 1 6 3 -2 0
6 -15 9 4 8 4 0 2
3 -18 10 4 9 5 0 1
9 -11 11 5 10 7 2 2
11 -10 12 4 9 7 2 3
12 -13 11 4 9 6 1 3
12 -12 9 3 7 4 0 1
8 -14 8 3 7 3 1 3
11 -13 8 2 6 2 0 1
12 -14 9 3 7 4 0 2
9 -21 10 3 8 5 1 1
8 -18 6 0 6 2 -2 -3
8 -17 8 0 7 3 -1 -3
8 -19 8 1 8 5 1 -1
8 -17 12 3 10 8 5 2
10 -14 9 1 7 5 2 2
10 -15 9 0 5 3 2 1
8 -13 11 5 9 6 3 3
8 -13 15 11 15 8 2 2
5 -14 26 23 28 17 3 0
-1 -19 39 41 45 27 1 -6
-3 -24 54 64 66 41 0 -13
-3 -30 68 90 89 54 -4 -21
-3 -34 81 111 107 65 -7 -29
6 -29 87 129 120 76 -5 -32
11 -18 85 130 122 80 0 -27
15 -1 73 118 112 81 12 -10
22 24 63 103 103 84 34 15
31 40 57 101 106 95 59 39
39 56 52 102 115 109 86 61
44 76 42 97 120 123 119 87
46 96 22 72 115 140 160 120
55 128 -8 32 91 152 210 162
64 152 -39 -13 52 150 256 206
76 175 -80 -65 2 141 300 250
91 203 -122 -121 -48 141 349 291
96 226 -153 -163 -79 155 406 326
92 229 -171 -198 -109 165 448 338
85 215 -172 -210 -125 172 468 326
78 184 -170 -203 -133 163 448 297
74 151 -173 -203 -153 120 386 260
56 125 -170 -208 -188 43 290 217
39 99 -161 -201 -211 -40 165 163
32 71 -156 -186 -224 -110 48 107
23 41 -150 -164 -219 -142 -22 63
14 13 -137 -144 -210 -153 -56 25
13 -7 -128 -124 -195 -152 -68 3
13 -23 -124 -103 -174 -140 -67 -10
17 -31 -115 -78 -144 -120 -60 -16
15 -37 -98 -58 -117 -97 -54 -19
11 -38 -80 -41 -93 -80 -48 -18
14 -37 -58 -20 -70 -63 -39 -15
14 -37 -41 -3 -50 -48 -31 -13
13 -39 -26 8 -34 -36 -25 -14
11 -42 -14 14 -23 -26 -22 -12
9 -43 -6 13 -13 -19 -17 -14
10 -39 -1 10 -7 -12 -13 -11
13 -34 -3 2 -6 -11 -13 -14
14 -32 -1 0 -4 -9 -12 -14
15 -25 3 4 0 -3 -7 -9
9 -23 4 4 3 1 -5 -6
10 -21 5 5 6 2 -2 -4
14 -15 7 7 10 4 1 -3
10 -15 7 5 11 6 -1 -2
9 -17 8 5 12 5 -1 -1
6 -18 9 6 13 6 -1 -4
5 -19 9 4 13 7 -2 -5
8 -16 10 4 13 8 -1 -5
7 -17 9 4 13 8 -1 -5
7 -16 7 4 11 7 -2 -7
4 -16 7 3 12 7 -4 -7
2 -17 6 2 11 6 -2 -7
7 -18 11 8 17 10 2 -3
8 -16 12 8 20 12 4 -2
4 -15 13 9 19 12 3 -3
0 -16 15 10 22 14 5 -4
-2 -19 14 9 20 14 3 -6
2 -19 13 8 20 13 2 -8
6 -15 12 6 18 12 1 -8
5 -16 9 6 17 11 1 -7
4 -20 9 7 18 11 0 -4
3 -20 11 9 19 11 3 -1
4 -18 13 12 21 12 4 1
5 -15 15 13 24 15 7 1
5 -16 15 12 25 14 5 0
8 -17 13 11 24 13 5 -4
10 -16 14 11 26 14 5 -7
5 -20 15 11 25 14 5 -10
1 -21 16 11 25 14 4 -9
5 -17 14 12 24 14 3 -6
10 -15 14 11 24 13 1 -7
7 -15 14 11 23 12 3 -4
8 -13 15 14 26 14 4 -3
12 -9 14 14 27 14 3 -5
6 -12 17 15 29 15 5 -3
1 -15 16 17 31 18 7 -3
9 -10 14 15 31 17 4 -5
8 -12 16 16 32 20 6 -4
8 -15 16 15 32 20 8 -3
9 -13 15 15 33 21 7 -5
6 -13 14 14 32 21 7 -6
5 -15 15 16 32 21 9 -2
6 -16 16 18 33 22 12 -1
2 -15 16 18 34 23 12 -2
1 -16 15 18 37 23 13 -1
3 -18 15 18 36 23 13 -3
7 -16 17 19 39 26 12 -1
13 -12 17 18 37 27 12 -2
13 -13 16 19 38 28 13 -2
11 -13 15 20 38 29 12 -4
7 -16 15 21 39 29 11 -3
10 -14 14 21 39 28 12 -5
8 -13 17 25 44 34 17 -3
2 -15 16 23 43 32 16 -5
-1 -17 19 25 46 33 17 -5
3 -16 20 28 50 37 18 -3
3 -15 21 28 50 38 18 -2
7 -14 21 28 50 38 19 -2
8 -16 23 30 53 40 20 -1
6 -18 21 30 51 39 18 -3
9 -16 21 31 52 38 19 -2
14 -15 20 32 53 39 20 -3
13 -13 18 32 54 40 19 -2
10 -14 21 35 59 42 22 0
8 -13 23 36 62 43 23 -1
11 -14 24 41 65 48 27 3
11 -14 27 43 68 50 27 3
7 -15 27 44 68 50 27 4
4 -14 27 44 70 52 28 4
7 -14 25 44 69 50 26 1
10 -13 29 47 69 51 27 2
17 -8 27 47 71 52 27 4
15 -10 28 51 72 53 28 6
10 -13 30 53 75 54 29 5
8 -14 29 53 76 53 27 5
14 -11 27 54 75 54 26 1
16 -10 28 55 77 55 27 3
14 -12 29 56 77 56 27 2
17 -12 30 56 78 56 27 4
16 -12 29 60 80 58 30 6
13 -12 31 62 80 58 30 7
15 -9 31 62 81 58 31 9
17 -10 30 64 83 58 32 11
16 -9 32 67 85 60 33 12
11 -11 34 69 88 61 34 14
9 -12 34 68 86 59 31 11
3 -11 36 70 88 60 33 13
2 -12 34 70 86 58 32 11
5 -14 32 68 83 56 30 10
6 -13 31 68 82 55 28 13
11 -11 32 70 82 55 29 17
14 -8 34 70 82 54 30 18
16 -5 34 70 81 53 29 18
18 -5 29 66 78 48 23 12
19 -5 31 65 78 46 23 12
16 -6 31 67 78 47 22 12
13 -9 29 64 75 44 18 9
14 -10 28 62 70 40 14 4
15 -10 26 60 68 37 14 1
18 -11 25 59 66 35 12 2
20 -12 28 60 65 34 12 6
16 -13 26 58 63 31 12 9
12 -11 27 58 63 29 11 11
14 -11 27 58 62 28 9 13
13 -14 29 58 62 27 10 12
12 -10 27 56 60 24 7 12
12 -9 29 56 58 23 6 12
12 -10 26 53 55 20 2 12
9 -11 25 51 52 18 2 11
7 -13 25 50 50 17 0 11
9 -11 26 48 49 16 0 10
11 -8 25 48 47 15 1 12
9 -11 21 44 45 12 0 9
5 -13 21 41 43 10 -2 10
4 -14 20 40 41 8 -2 11
8 -11 20 38 41 8 -2 13
10 -7 22 39 43 11 0 14
4 -10 21 37 41 9 0 15
6 -6 20 35 40 8 1 14
11 -4 17 32 36 7 -1 14
12 -4 14 28 34 5 -2 12
9 -4 14 28 33 6 1 12
4 -4 14 27 33 7 2 11
-2 -7 13 25 32 7 2 12
-1 -4 15 26 33 8 5 14
4 0 15 23 32 8 5 13
6 0 15 23 31 9 5 12
4 0 12 20 28 7 1 11
3 0 13 20 30 10 5 15
5 3 15 21 30 13 7 17
6 2 13 19 27 12 7 17
6 2 10 15 25 10 5 17
7 6 9 13 24 8 6 16
6 5 7 10 21 7 4 14
9 1 8 11 21 9 6 15
5 -3 6 9 21 8 6 15
4 1 7 8 20 9 6 12
6 8 9 10 21 9 8 14
5 4 6 7 19 7 7 12
1 4 5 6 18 6 6 11
-1 5 8 9 20 10 11 16
-4 5 8 8 19 10 11 18
2 3 5 4 16 7 9 14
2 5 6 4 16 7 8 15
2 6 6 3 16 7 8 14
4 6 5 3 15 7 8 12
3 3 4 2 14 7 8 10
1 1 3 2 13 7 8 11
2 4 3 2 16 9 11 11
2 6 3 3 15 8 11 13
2 7 5 4 16 11 13 14
1 7 4 4 16 11 12 13
1 5 4 5 17 12 11 12
0 7 6 7 17 12 11 12
-2 3 5 3 16 11 10 12
1 3 4 2 16 10 11 9
2 4 4 2 15 10 9 9
0 3 4 2 15 11 10 10
4 6 4 3 16 12 12 9
1 8 5 5 17 13 13 10
1 10 4 5 17 13 13 12
4 12 7 7 19 14 17 14
3 11 5 6 19 13 14 12
0 10 5 7 20 14 15 13
0 9 6 7 20 14 14 13
-4 5 7 7 21 14 15 14
1 8 7 6 22 15 14 11
2 9 8 8 22 16 15 11
0 9 7 7 21 17 17 9
-2 9 7 8 22 18 19 13
0 11 6 8 21 18 17 15
2 13 7 9 21 18 18 16
-1 12 6 8 22 18 18 15
3 13 6 9 23 18 17 16
9 17 8 10 24 19 19 15
7 18 9 11 25 19 20 12
1 15 8 9 25 20 18 12
3 15 8 8 24 19 17 10
3 13 7 8 24 19 17 11
4 17 7 9 23 21 19 14
3 15 6 9 23 20 18 14
1 12 5 8 21 18 17 12
3 13 4 9 23 20 19 13
-3 14 6 10 24 20 19 15
-4 16 7 11 25 21 20 17
0 18 8 11 26 21 21 19
-2 14 8 9 25 21 19 18
-2 16 8 10 25 22 20 20
-6 16 9 12 26 23 23 20
-4 15 7 9 24 20 20 18
-1 14 5 7 20 18 18 16
-3 11 5 8 21 19 20 15
-4 13 6 9 22 19 21 14
1 16 6 8 21 19 19 14
3 15 4 7 20 16 18 11
4 18 6 9 22 18 19 15
2 20 7 8 22 19 18 16
-2 17 7 8 22 18 18 17
-1 16 9 9 22 19 20 17
-2 16 7 9 22 19 20 15
-6 13 7 8 21 20 20 16
-4 13 7 9 20 19 20 18
0 12 7 8 19 18 19 17
5 14 7 7 17 16 17 15
5 16 6 7 17 15 18 15
2 15 6 7 18 15 18 15
-2 14 8 8 19 17 18 16
-4 10 7 6 18 16 17 15
0 13 4 5 17 15 16 15
0 15 6 6 18 16 17 16
-4 12 6 6 17 15 16 16
1 15 6 6 18 15 18 16
3 15 7 6 16 15 17 14
0 13 7 7 16 15 16 14
-1 11 5 5 15 14 15 12
1 10 0 0 11 9 11 7
-1 9 3 1 11 10 11 9
-3 10 4 2 12 11 13 10
-4 9 3 0 10 9 10 9
1 14 4 2 12 10 12 12
0 15 6 4 13 12 14 13
-2 12 6 4 14 10 13 11
-3 11 6 4 13 10 11 11
-2 13 3 1 10 8 9 8
-2 11 3 0 9 7 9 8
-2 8 3 0 9 7 9 6
-5 8 1 -1 8 5 7 7
-5 9 1 -2 7 5 6 8
-3 9 0 -2 7 5 6 9
-3 7 1 -1 8 5 8 11
-6 7 2 0 9 8 9 12
-6 10 2 1 9 7 10 9
-7 13 4 2 9 7 10 9
-5 17 6 3 11 9 12 7
-3 18 5 2 10 8 11 4
-2 18 5 1 10 7 9 3
-9 15 3 -1 8 6 7 6
-9 10 2 -2 7 5 8 6
-7 10 3 0 9 7 10 7
-6 9 2 0 8 8 10 6
-5 13 4 1 10 9 11 8
-6 12 4 2 9 8 11 8
-6 12 3 1 8 8 9 9
-3 13 3 0 8 6 9 6
-6 12 2 -1 7 4 9 3
-5 14 3 1 8 6 10 3
0 16 4 0 8 7 10 5
-6 12 2 -2 7 4 7 6
-6 10 4 -1 7 6 9 7
-5 11 3 -1 7 7 9 6
-13 8 3 1 8 8 11 7
-9 13 5 3 10 10 15 6
-1 27 7 5 13 13 16 9
9 34 7 5 14 14 18 9
8 32 9 5 15 15 20 11
-1 27 10 5 16 15 19 9
-6 28 12 6 16 14 17 8
-7 28 11 5 15 14 17 8
-4 32 11 5 14 14 18 10
1 37 10 4 14 16 18 9
-3 35 9 5 15 17 19 9
-9 30 10 6 16 17 21 9
-10 33 11 8 18 18 21 10
-9 37 10 5 18 19 23 12
-6 43 6 3 17 18 24 13
-3 44 4 1 17 19 24 15
-2 45 4 2 17 21 26 19
1 48 4 3 18 22 29 19
4 50 4 4 18 22 30 21
7 50 2 2 17 22 28 22
6 51 0 2 16 22 28 22
9 51 -2 1 16 22 28 22
10 49 -1 1 16 21 28 20
10 49 -3 -1 14 19 27 20
10 48 -4 0 14 18 27 22
9 48 -4 -1 14 20 27 22
4 47 -2 0 14 20 27 23
3 49 -1 1 15 20 28 22
2 49 -1 2 15 21 29 23
2 44 -1 1 14 21 27 21
3 45 -1 0 12 18 25 21
0 42 -3 -1 11 15 22 18
-10 32 -2 -2 8 13 20 16
-11 29 -1 -3 7 10 16 13
-11 25 -3 -4 5 6 13 8
-13 21 -4 -6 3 5 9 5
-13 18 -2 -5 3 5 8 4
-12 20 -1 -4 4 5 9 3
-12 23 2 -1 6 8 11 5
-10 18 0 -5 3 4 8 2
-7 16 -4 -8 -1 1 3 0
-7 16 -4 -7 -1 1 4 1
-8 16 -6 -10 -6 -3 0 -3
-7 15 -6 -10 -6 -5 -2 -5
-9 14 -6 -10 -5 -4 -1 -4
-11 10 -7 -10 -5 -6 -3 -4
-8 9 -7 -11 -7 -6 -4 -6
-10 9 -8 -13 -8 -8 -3 -7
-10 10 -8 -12 -7 -7 -3 -5
-8 14 -6 -11 -6 -6 -2 -2
-9 13 -7 -12 -7 -6 -3 -1
-11 12 -7 -13 -8 -7 -2 -2
-11 13 -6 -11 -9 -7 -2 -4
-11 13 -6 -11 -7 -8 -1 -5
-12 13 -5 -10 -6 -7 -2 -5
-12 10 -6 -10 -6 -9 -1 -3
-12 11 -6 -10 -4 -8 -1 -5
-10 11 -6 -11 -6 -8 -1 -4
-11 11 -7 -11 -6 -9 -1 -3
-9 13 -6 -9 -4 -9 -1 -3
-10 13 -1 -4 0 -5 -3 -4
-12 10 8 5 9 -1 -3 -6
-12 12 19 22 26 9 -3 -10
-12 7 33 44 46 22 -3 -16
-17 -1 46 65 64 32 -8 -30
-18 -8 62 90 84 43 -10 -40
-19 -11 68 108 97 52 -12 -44
-11 -2 68 113 103 59 -7 -37
-5 15 59 103 96 60 3 -21
0 36 48 88 86 63 21 1
9 49 43 85 89 75 47 24
8 63 40 87 97 88 72 48
14 82 33 88 105 99 98 74
32 109 17 74 105 114 133 104
46 136 -10 43 95 130 179 143
56 160 -36 2 67 136 225 184
65 184 -70 -44 26 130 265 221
71 207 -111 -99 -25 126 313 263
81 228 -142 -144 -57 140 366 301
86 227 -164 -179 -81 155 408 316
74 209 -173 -201 -103 162 428 305
68 189 -171 -203 -112 158 412 283
67 165 -177 -204 -133 122 355 249
55 150 -176 -212 -166 59 274 209
37 134 -163 -212 -196 -19 162 156
19 106 -158 -205 -216 -90 52 102
9 77 -156 -186 -216 -127 -12 62
3 49 -149 -168 -211 -145 -47 30
-2 24 -141 -153 -206 -154 -63 6
-6 0 -135 -135 -192 -154 -71 -11
-4 -6 -127 -108 -165 -136 -65 -18
-1 -8 -116 -84 -137 -116 -59 -24
-1 -13 -102 -67 -116 -100 -55 -26
0 -16 -83 -48 -94 -86 -47 -26
2 -14 -66 -31 -76 -73 -43 -24
0 -19 -50 -16 -59 -60 -38 -23
-2 -22 -38 -6 -44 -50 -35 -24
2 -19 -25 -1 -31 -41 -28 -23
0 -18 -17 0 -23 -33 -24 -21
-4 -14 -11 -3 -17 -26 -20 -17
-4 -11 -10 -6 -13 -23 -17 -15
-8 -11 -9 -6 -12 -21 -15 -14
-5 -8 -10 -6 -11 -21 -15 -13
-3 -4 -10 -8 -11 -20 -14 -13
-9 -4 -9 -7 -9 -19 -13 -9
-9 0 -8 -6 -7 -18 -13 -9
-7 -3 -7 -6 -4 -17 -13 -8
-6 -4 -5 -5 -2 -18 -14 -8
-10 -6 -5 -6 -1 -17 -16 -11
-12 -5 -3 -4 1 -14 -14 -10
-6 -3 -3 -5 0 -13 -14 -11
-3 -2 -4 -6 -2 -13 -15 -12
0 -1 -4 -7 -3 -14 -15 -12
-1 0 -5 -6 -4 -15 -15 -9
-7 -3 -5 -5 -2 -14 -14 -9
-7 -4 -3 -4 0 -14 -13 -8
-6 -3 -3 -3 2 -14 -14 -10
-5 -2 -2 -2 4 -13 -14 -10
-5 0 -2 -3 4 -13 -15 -11
-6 0 -1 -2 2 -13 -16 -11
-2 0 0 -1 3 -11 -14 -12
-3 -1 1 0 3 -11 -14 -11
-11 -6 2 0 3 -10 -12 -11
-10 -1 3 2 4 -9 -9 -9
-7 0 2 2 6 -10 -8 -10
-3 1 0 0 3 -14 -11 -13
-2 -1 2 1 6 -12 -11 -14
-10 -6 3 4 8 -13 -10 -14
-11 -5 5 5 11 -10 -9 -14
-7 -1 5 5 9 -9 -11 -14
-6 -3 5 5 9 -8 -13 -14
-7 1 4 5 8 -7 -11 -13
-12 0 3 4 7 -8 -11 -13
-13 -3 5 6 9 -6 -9 -10
-10 1 2 5 9 -7 -10 -10
-8 2 2 5 9 -8 -11 -12
-8 1 5 8 13 -6 -10 -11
-10 -1 5 8 15 -6 -10 -11
-14 -4 5 6 13 -7 -11 -14
-12 -5 5 6 12 -6 -12 -12
-8 -3 3 4 11 -7 -14 -15
-4 1 2 4 12 -8 -13 -14
-2 3 4 5 11 -5 -10 -11
-5 0 4 7 13 -4 -8 -12
-5 -1 3 8 14 -2 -8 -13
-4 -3 2 7 14 -4 -7 -15
-3 -4 3 8 16 -2 -7 -18
-4 -5 3 10 19 0 -6 -15
-5 -7 3 9 19 -1 -8 -16
-7 -8 3 11 19 1 -9 -17
-6 -7 4 11 20 3 -8 -16
-3 -4 6 13 22 5 -5 -14
-1 1 7 15 22 6 -4 -12
-3 -1 5 15 21 6 -4 -13
-3 -1 4 15 22 5 -4 -13
1 3 5 15 23 5 -2 -13
6 3 5 16 25 6 -3 -13
7 -1 3 17 26 6 -4 -16
5 -2 4 19 28 8 -4 -15
-4 -5 7 20 30 12 -3 -15
-7 -6 7 20 31 13 -2 -16
-5 -4 6 20 31 13 -2 -17
-3 -3 6 21 30 14 -2 -15
0 -4 8 24 33 16 0 -14
8 -1 5 25 33 15 -1 -14
13 3 7 27 37 16 2 -14
