I II V1 V2 V3 V4 V5 V6
-9 36 2 -16 -27 -42 -23 -24
-15 27 -5 -18 -32 -46 -34 -31
-15 15 -5 -17 -33 -47 -37 -32
-12 10 -3 -16 -34 -46 -37 -32
-16 0 -8 -15 -31 -43 -58 -38
-15 -2 -12 -25 -40 -45 -48 -36
-11 4 -4 -19 -38 -41 -38 -31
-10 4 -1 -18 -36 -42 -33 -30
-12 1 -4 -23 -39 -45 -37 -33
-7 0 -3 -29 -45 -51 -20 -29
-11 6 5 -16 -34 -50 -25 -28
-20 6 -2 -21 -41 -56 -39 -35
-18 3 -1 -24 -43 -56 -43 -38
-19 -1 2 -22 -39 -53 -39 -35
-21 -3 -2 -20 -37 -51 -60 -43
-22 -2 -8 -31 -48 -54 -55 -43
-18 1 -5 -30 -50 -57 -49 -43
-19 1 -3 -26 -49 -58 -47 -43
-15 -6 0 -24 -49 -59 -49 -44
-15 -13 2 -30 -53 -61 -29 -37
-20 -3 9 -20 -41 -59 -35 -37
-20 -2 4 -23 -45 -61 -45 -43
-20 -5 0 -26 -47 -62 -50 -46
-22 -2 1 -18 -46 -59 -49 -46
-32 -6 -1 -20 -43 -58 -68 -51
-28 -15 -10 -33 -55 -60 -64 -52
-22 -16 1 -25 -46 -54 -48 -43
-21 -10 8 -20 -42 -55 -43 -39
-24 -13 3 -22 -47 -58 -49 -44
-23 -17 3 -27 -53 -61 -33 -37
-16 -10 10 -20 -42 -60 -35 -36
-15 -8 5 -22 -47 -63 -48 -44
-19 -10 5 -24 -47 -62 -50 -46
-25 -19 5 -21 -45 -60 -49 -45
-30 -18 2 -17 -42 -57 -66 -50
-31 -19 -5 -29 -53 -59 -61 -52
-30 -19 5 -25 -45 -55 -48 -43
-34 -19 9 -21 -42 -53 -43 -38
-32 -18 6 -22 -45 -56 -46 -41
-28 -12 10 -23 -47 -57 -26 -35
-30 -3 19 -11 -33 -54 -28 -31
-35 -8 9 -18 -41 -60 -42 -39
-30 -9 6 -20 -44 -62 -47 -43
-22 -11 1 -22 -48 -63 -51 -47
-19 -12 0 -21 -45 -61 -68 -53
-26 -18 -6 -32 -54 -62 -63 -53
-29 -20 4 -23 -46 -56 -48 -44
-26 -18 9 -17 -41 -56 -43 -39
-26 -23 7 -20 -44 -58 -46 -42
-26 -23 7 -23 -47 -60 -29 -37
-30 -11 20 -8 -32 -56 -29 -32
-32 -9 12 -13 -39 -59 -40 -38
-29 -8 10 -16 -42 -58 -44 -42
-29 -11 9 -18 -42 -60 -44 -42
-33 -12 4 -20 -43 -61 -65 -51
-29 -18 -4 -28 -53 -62 -60 -52
-23 -18 0 -24 -49 -61 -54 -50
-23 -12 3 -14 -47 -64 -54 -52
-21 -18 7 -10 -44 -65 -57 -54
-16 -30 13 0 -40 -64 -42 -51
-18 -33 28 25 -17 -57 -41 -47
-20 -36 26 36 -11 -58 -49 -51
-15 -40 23 43 -7 -55 -53 -55
-6 -37 22 55 4 -49 -47 -51
3 -34 8 57 14 -37 -55 -50
22 -27 -18 40 12 -16 -37 -38
47 -6 -30 33 25 11 -1 -11
62 19 -51 3 33 41 32 17
72 44 -78 -46 30 70 60 41
84 73 -99 -90 37 110 116 81
97 119 -118 -132 59 158 163 122
112 156 -155 -200 54 197 199 158
125 189 -193 -271 40 230 233 192
132 226 -223 -324 37 270 277 231
133 265 -247 -366 47 313 302 261
126 289 -271 -406 40 348 341 288
112 307 -276 -423 49 389 388 323
106 328 -279 -435 60 429 428 355
101 339 -281 -438 69 460 452 367
100 331 -266 -422 85 487 484 375
100 304 -236 -368 122 511 492 369
100 261 -213 -324 137 508 474 345
87 205 -189 -285 134 471 436 310
76 163 -163 -250 114 405 379 266
63 135 -138 -208 99 337 300 213
46 108 -117 -180 74 267 240 165
33 87 -91 -147 57 202 186 125
23 71 -70 -115 44 144 138 89
15 55 -59 -93 23 91 89 56
12 41 -43 -77 5 51 72 39
4 33 -21 -51 12 32 53 30
3 27 -24 -46 6 20 31 16
6 25 -20 -37 7 22 26 12
2 27 -11 -26 11 22 27 13
-8 21 -7 -14 15 20 7 7
-9 8 -9 -19 6 14 8 3
-11 5 -1 -13 7 10 10 1
-11 5 6 -6 8 4 9 -1
-11 -1 5 -4 2 -2 0 -9
-8 -1 5 -8 -5 -10 8 -9
-12 11 14 4 5 -11 5 -6
-11 10 7 -3 -6 -21 -12 -17
-5 0 3 -6 -13 -27 -22 -22
-7 -6 8 -1 -10 -27 -20 -20
-9 -10 6 1 -6 -30 -38 -27
-7 -18 1 -2 -17 -31 -37 -31
-10 -18 10 7 -11 -28 -25 -24
-12 -13 15 11 -9 -31 -23 -22
-7 -7 12 5 -15 -36 -30 -28
0 -8 11 4 -20 -41 -16 -24
-5 -3 18 13 -12 -42 -19 -23
-10 1 12 5 -17 -47 -29 -28
-14 -6 13 7 -16 -44 -33 -29
-13 -14 14 12 -12 -41 -32 -27
-10 -16 14 15 -9 -41 -45 -33
-12 -25 8 5 -18 -42 -43 -34
-14 -23 19 14 -10 -37 -30 -26
-8 -17 19 17 -11 -40 -33 -28
-2 -19 16 14 -17 -44 -38 -33
-1 -16 19 12 -17 -44 -20 -26
-7 -9 27 23 -5 -42 -20 -23
-12 -4 21 17 -10 -45 -30 -28
-7 -3 15 11 -14 -46 -34 -28
-6 -10 11 9 -15 -47 -36 -30
-12 -15 11 15 -10 -45 -47 -32
-12 -21 2 4 -21 -48 -50 -40
-7 -16 10 8 -17 -42 -41 -37
-5 -12 16 16 -11 -40 -33 -31
-4 -9 12 11 -14 -43 -37 -33
-4 -6 16 17 -10 -38 -16 -24
-14 -9 31 31 6 -33 -11 -15
-20 -14 23 24 -1 -38 -23 -22
-18 -21 19 22 -2 -39 -27 -26
-14 -20 15 19 -4 -42 -29 -27
-11 -15 17 29 0 -39 -42 -30
-14 -22 10 21 -7 -41 -40 -31
-16 -31 16 23 1 -33 -30 -25
-10 -32 20 29 4 -34 -26 -23
-14 -30 20 27 0 -39 -32 -28
-16 -31 18 22 -6 -43 -21 -26
-8 -20 25 33 3 -43 -18 -22
-2 -12 17 24 -2 -45 -27 -28
-2 -17 14 26 0 -40 -29 -30
-6 -18 23 39 14 -30 -17 -18
-5 -12 23 43 19 -29 -27 -18
-2 -15 14 35 8 -31 -30 -23
-2 -20 18 38 9 -30 -25 -20
-7 -19 24 40 14 -27 -18 -14
-2 -15 23 39 15 -25 -18 -16
9 -14 21 35 10 -26 -7 -12
5 -13 33 48 20 -27 -5 -6
-5 -23 31 47 18 -31 -11 -8
-10 -29 26 44 16 -31 -15 -10
-6 -22 27 49 19 -28 -14 -10
-7 -20 29 56 26 -28 -26 -13
-10 -29 23 48 23 -25 -23 -14
-4 -29 32 58 35 -15 -9 -5
1 -27 34 59 36 -15 -8 -4
13 -22 28 57 33 -16 -13 -7
17 -19 25 57 30 -17 0 -4
11 -13 33 72 38 -13 1 2
0 -15 29 69 34 -15 -5 0
-5 -25 33 75 41 -7 1 6
-10 -36 39 80 52 1 9 13
-12 -36 42 82 61 4 -2 13
-7 -36 33 78 54 1 -6 6
-2 -30 38 88 63 4 2 12
-1 -27 38 92 63 1 5 15
5 -26 32 92 56 -3 -1 8
16 -25 28 84 49 -5 12 12
15 -17 38 97 60 2 18 21
9 -14 30 94 56 -1 6 14
7 -24 28 99 58 2 6 12
12 -27 31 101 67 6 9 15
8 -19 34 105 77 11 1 14
12 -26 28 104 73 11 2 13
18 -32 35 112 82 18 14 19
19 -24 41 118 88 23 23 27
12 -26 41 121 89 25 26 29
9 -26 40 121 84 26 38 31
10 -15 51 132 97 32 46 40
11 -17 43 128 92 30 34 33
13 -29 37 126 90 28 28 27
19 -29 38 129 95 30 31 30
21 -26 41 134 100 34 21 28
26 -26 33 127 94 32 21 27
21 -22 38 131 102 38 32 32
14 -13 46 138 106 43 40 39
12 -13 47 142 107 43 43 41
14 -21 46 137 104 42 55 45
13 -23 53 145 112 44 60 50
15 -23 46 140 106 39 49 44
20 -25 39 132 103 39 41 38
21 -24 42 134 108 41 43 41
16 -22 43 139 113 43 32 36
13 -24 31 126 101 38 26 28
8 -22 37 129 107 42 36 35
6 -14 41 130 105 40 39 37
12 -17 41 131 103 43 41 38
12 -22 40 124 96 40 52 40
15 -14 47 126 99 39 54 44
23 -12 39 114 90 32 44 40
25 -19 33 104 85 30 37 35
26 -22 36 103 85 32 39 38
20 -18 37 100 85 29 26 34
17 -26 26 84 71 24 18 25
18 -28 31 88 71 25 25 30
15 -26 37 90 71 23 31 35
8 -27 38 85 67 22 30 33
3 -26 39 82 60 18 40 35
3 -20 46 81 62 15 40 38
9 -21 37 68 49 3 24 27
20 -19 35 61 44 -2 16 22
18 -19 32 57 38 -9 11 18
19 -12 31 55 38 -11 -1 12
19 -22 23 41 28 -13 -5 9
12 -30 29 42 32 -9 3 16
6 -25 33 43 31 -10 8 19
3 -22 30 46 23 -16 3 15
2 -24 33 40 18 -15 13 19
2 -20 42 47 24 -16 16 23
3 -18 34 36 15 -24 5 18
3 -15 32 34 15 -24 1 15
-5 -15 38 42 22 -20 7 20
-4 -19 36 42 22 -24 -6 14
-4 -30 23 22 10 -28 -15 3
1 -33 27 24 11 -27 -9 7
4 -27 29 27 9 -29 -7 8
0 -27 28 26 5 -30 -9 6
0 -24 22 16 -5 -35 -5 3
-4 -15 32 28 3 -31 -1 9
-14 -16 29 24 1 -34 -7 7
-14 -18 26 19 -1 -34 -11 5
-7 -15 29 20 1 -34 -8 7
-6 -19 28 21 6 -36 -17 4
-2 -23 17 11 -2 -37 -22 -3
-1 -25 22 16 1 -32 -14 2
-4 -23 24 18 0 -34 -13 3
-3 -15 22 17 -5 -37 -18 -1
-7 -17 21 11 -12 -39 -10 0
-10 -20 30 20 -4 -35 -5 8
-4 -20 24 13 -9 -39 -14 1
1 -22 19 8 -12 -41 -20 -3
0 -24 20 9 -9 -41 -18 -1
-3 -23 21 14 -1 -41 -24 -1
-3 -26 13 13 -8 -39 -26 -5
5 -28 21 19 -2 -32 -15 3
5 -26 27 20 2 -32 -8 8
-2 -31 24 22 -2 -33 -12 4
-1 -29 21 13 -10 -37 -7 4
-2 -18 25 17 -5 -37 -6 6
-5 -12 18 10 -11 -43 -17 -2
-2 -14 14 6 -16 -45 -23 -4
3 -17 18 12 -11 -42 -20 -2
-1 -20 24 21 0 -38 -23 2
-4 -24 13 8 -12 -42 -29 -6
-8 -28 16 14 -9 -38 -22 -3
-13 -31 24 17 -3 -34 -14 2
-11 -31 24 19 -4 -33 -14 3
-10 -29 21 16 -9 -33 -6 4
-9 -22 26 27 -2 -33 -3 9
-14 -25 21 22 -9 -39 -14 1
-13 -28 17 11 -11 -38 -20 -1
-13 -30 20 13 -8 -36 -16 3
-9 -27 17 13 -6 -38 -26 -2
-8 -28 8 6 -14 -39 -30 -7
-7 -31 14 14 -8 -34 -21 -1
-2 -26 22 18 -2 -32 -12 4
-10 -24 19 19 -7 -33 -16 2
-17 -29 16 12 -15 -34 -10 2
-18 -23 28 26 -3 -31 -2 12
-16 -24 21 22 -9 -37 -13 4
-10 -26 15 13 -12 -39 -19 -1
-12 -33 15 10 -12 -39 -19 0
-15 -34 14 13 -10 -41 -29 -3
-14 -39 5 4 -18 -40 -33 -9
-17 -36 10 12 -12 -34 -22 -2
-22 -25 16 19 -9 -32 -16 2
-21 -20 18 20 -10 -33 -16 2
-14 -21 13 8 -18 -37 -14 0
-11 -17 21 15 -9 -37 -10 6
-9 -16 18 14 -11 -39 -15 3
-6 -26 15 11 -14 -40 -19 -1
-8 -34 18 14 -10 -35 -16 2
-10 -38 21 19 -4 -32 -20 4
-11 -42 10 8 -13 -33 -27 -3
-14 -38 14 13 -9 -29 -21 1
-17 -32 18 18 -8 -30 -17 4
-16 -34 18 17 -11 -33 -19 3
-13 -37 17 16 -14 -33 -11 4
-14 -28 27 29 -4 -30 -4 12
-15 -28 26 26 -6 -32 -10 10
-17 -33 22 17 -8 -35 -16 6
-19 -36 19 16 -10 -36 -17 4
-16 -32 19 20 -6 -35 -23 3
-13 -36 6 8 -18 -38 -30 -7
-10 -35 8 10 -17 -34 -25 -4
-20 -36 16 18 -13 -31 -16 3
-25 -37 14 17 -14 -32 -20 1
-21 -41 12 13 -18 -32 -16 1
-16 -40 23 21 -10 -31 -11 7
-15 -37 19 16 -11 -34 -16 5
-18 -32 14 13 -15 -34 -20 2
-24 -26 14 17 -14 -34 -18 2
-25 -28 18 24 -8 -33 -22 4
-21 -43 6 13 -20 -35 -30 -4
-11 -42 7 7 -20 -32 -25 -3
-1 -32 14 13 -16 -32 -17 3
-5 -38 8 10 -22 -37 -26 -4
-4 -38 4 3 -27 -35 -22 -5
-11 -32 18 21 -13 -30 -14 6
-18 -34 16 17 -16 -33 -20 2
-14 -39 13 15 -17 -33 -22 1
-17 -37 16 15 -14 -30 -18 5
-23 -33 18 22 -10 -32 -24 3
-19 -35 8 10 -21 -34 -30 -4
-14 -34 11 10 -19 -31 -24 0
-11 -32 14 10 -19 -31 -22 1
-9 -27 11 8 -22 -35 -26 -2
-8 -30 4 0 -32 -39 -25 -4
-6 -26 14 11 -20 -36 -18 3
-19 -36 15 11 -20 -35 -21 2
-25 -45 17 17 -14 -30 -19 6
-19 -43 19 20 -12 -28 -17 7
-16 -40 19 17 -9 -31 -24 4
-14 -45 6 6 -23 -35 -30 -3
-10 -42 9 10 -21 -30 -23 2
-16 -42 15 14 -16 -27 -16 7
-28 -41 17 14 -15 -26 -15 8
-29 -43 15 9 -19 -26 -12 8
-23 -38 24 16 -8 -23 -8 12
-9 -33 17 9 -16 -32 -18 5
-3 -32 11 7 -22 -34 -25 0
-10 -35 8 9 -24 -35 -27 -3
-13 -36 11 15 -19 -35 -33 -5
-9 -38 0 -1 -32 -39 -41 -12
-7 -38 5 3 -27 -34 -31 -5
-8 -42 13 12 -18 -28 -21 3
-8 -48 14 11 -17 -27 -21 3
-10 -48 8 2 -25 -30 -18 0
-8 -42 15 6 -19 -31 -17 4
-3 -35 11 3 -23 -36 -25 -2
-7 -39 7 2 -23 -36 -28 -4
-13 -42 8 3 -22 -31 -26 -2
-13 -39 13 9 -15 -30 -29 -2
-12 -43 3 0 -26 -32 -34 -9
-7 -41 3 -2 -26 -33 -31 -9
-6 -37 8 1 -23 -33 -25 -4
-9 -42 8 3 -23 -32 -25 -6
-9 -45 5 1 -27 -32 -22 -6
-7 -37 18 9 -15 -29 -12 4
-9 -40 15 8 -19 -33 -19 -1
-3 -42 9 1 -23 -37 -25 -6
3 -39 6 -2 -23 -36 -25 -7
-6 -35 9 6 -17 -33 -28 -7
-14 -38 3 1 -27 -32 -33 -11
-12 -37 5 0 -25 -29 -27 -8
-8 -35 9 2 -22 -31 -22 -5
-8 -41 8 0 -24 -34 -25 -8
-9 -45 3 -4 -31 -34 -24 -11
-9 -39 16 8 -17 -30 -14 -1
-12 -41 15 10 -16 -31 -17 -3
-11 -46 12 4 -19 -31 -20 -7
-7 -42 14 2 -18 -29 -19 -5
-14 -43 15 8 -13 -29 -22 -6
-23 -49 8 4 -22 -27 -27 -11
-20 -50 8 1 -21 -25 -23 -8
-9 -48 7 -1 -22 -29 -23 -9
-3 -46 5 -3 -25 -33 -28 -13
-2 -45 2 -8 -31 -33 -24 -13
-4 -38 11 0 -21 -32 -17 -6
-14 -38 14 2 -18 -32 -17 -5
-17 -41 11 2 -19 -29 -19 -6
-10 -41 12 5 -18 -28 -18 -7
-9 -42 12 9 -15 -31 -24 -10
-10 -52 -2 -4 -29 -35 -34 -20
-11 -53 0 -2 -27 -32 -29 -17
-10 -51 9 0 -19 -29 -21 -11
-6 -45 4 0 -22 -27 -27 -15
-4 -41 1 -5 -26 -24 -23 -13
-7 -32 17 13 -10 -19 -9 0
-8 -28 18 12 -12 -21 -12 -3
-13 -34 17 8 -13 -21 -14 -6
-18 -38 19 7 -11 -19 -12 -4
-15 -30 24 13 -4 -17 -13 -4
-4 -35 13 4 -15 -22 -21 -11
-4 -40 13 3 -14 -20 -18 -9
-7 -38 19 10 -9 -17 -13 -4
-14 -39 13 6 -14 -20 -17 -10
-19 -41 5 -2 -22 -24 -17 -12
-21 -31 14 2 -13 -22 -9 -4
-19 -27 13 5 -9 -19 -10 -2
-15 -22 9 4 -9 -18 -11 -3
-8 -15 6 4 -10 -18 -11 -3
-8 -22 11 8 -5 -18 -11 -1
-1 -29 0 -5 -15 -20 -17 -8
4 -26 -1 -4 -16 -20 -15 -6
5 -24 4 2 -11 -17 -8 -1
0 -28 4 -2 -13 -17 -9 -1
-2 -37 -2 -5 -17 -15 -8 -3
-4 -32 12 9 -4 -12 2 7
-8 -30 9 9 -8 -17 -5 3
-5 -33 1 1 -16 -21 -15 -6
2 -31 2 -7 -17 -23 -16 -7
2 -26 6 -3 -12 -23 -17 -6
-2 -30 -3 -10 -21 -24 -22 -12
-3 -29 -1 -8 -20 -23 -17 -8
0 -27 4 -3 -16 -21 -11 -4
-1 -24 3 -4 -20 -25 -15 -9
-7 -25 -5 -10 -32 -30 -19 -14
-8 -19 3 -5 -25 -31 -16 -9
-13 -20 5 -5 -23 -32 -19 -12
-19 -25 0 -11 -28 -35 -26 -18
-19 -24 -2 -11 -30 -37 -29 -19
-18 -19 2 -9 -26 -38 -30 -20
-17 -18 -8 -18 -37 -42 -38 -29
-16 -8 -6 -14 -34 -39 -34 -27
-16 -7 3 -10 -27 -34 -25 -18
-14 -18 5 -5 -25 -33 -24 -18
-10 -29 4 -8 -30 -35 -23 -19
-10 -25 8 -8 -26 -39 -20 -18
-16 -22 6 -10 -28 -41 -25 -20
-19 -16 5 -8 -29 -36 -27 -22
-21 -15 5 -7 -28 -34 -25 -20
-18 -11 8 -4 -23 -36 -26 -21
-16 -13 -3 -13 -34 -38 -35 -29
-11 -8 1 -10 -30 -34 -27 -23
-11 -6 6 -8 -25 -34 -19 -19
-18 -8 3 -10 -28 -35 -23 -23
-14 -10 2 -16 -32 -34 -21 -23
-12 -2 11 -9 -24 -35 -15 -18
-12 2 5 -13 -30 -40 -23 -24
-14 -4 3 -13 -33 -41 -29 -27
-12 -9 2 -13 -31 -39 -29 -26
-10 -4 6 -8 -26 -38 -28 -26
-13 -15 -2 -14 -35 -40 -36 -32
-7 -14 -2 -14 -36 -39 -35 -31
-1 -8 -1 -17 -34 -39 -31 -30
-5 -8 0 -15 -34 -39 -31 -30
-11 -11 0 -17 -36 -36 -27 -28
-16 -4 13 -5 -23 -34 -17 -17
-19 -5 7 -10 -29 -41 -24 -25
-10 -12 2 -14 -34 -43 -30 -30
-3 -15 3 -16 -32 -42 -29 -29
-10 -9 7 -12 -26 -39 -29 -27
-20 -9 -1 -18 -34 -38 -33 -32
-22 -10 0 -18 -33 -36 -30 -30
-13 -10 0 -18 -34 -36 -27 -30
-7 -11 0 -16 -34 -37 -28 -30
-7 -16 -4 -17 -39 -36 -27 -31
-9 -7 9 -5 -25 -31 -16 -20
-14 -3 9 -6 -24 -33 -19 -23
-13 -5 6 -5 -27 -34 -24 -27
-12 -7 8 -4 -24 -32 -21 -24
-16 -8 16 7 -14 -30 -16 -20
-17 -15 8 5 -22 -32 -26 -28
-13 -18 13 9 -20 -31 -24 -28
-6 -23 14 15 -16 -35 -26 -32
-4 -26 15 24 -8 -32 -28 -36
-2 -31 14 32 -3 -28 -26 -37
6 -25 26 52 13 -25 -18 -31
10 -24 26 60 20 -25 -22 -33
13 -24 18 65 27 -16 -21 -34
25 -15 6 65 39 4 -2 -18
34 -4 -3 62 58 29 23 5
44 5 -34 26 50 53 39 17
63 34 -59 -13 51 84 73 47
76 63 -81 -51 55 119 111 80
88 93 -107 -91 61 161 149 112
101 129 -138 -152 59 209 196 152
110 173 -161 -212 56 247 245 197
117 220 -199 -282 31 273 272 225
116 262 -231 -338 20 308 304 255
109 294 -249 -375 20 343 336 282
99 322 -251 -392 29 374 367 310
95 333 -268 -418 23 408 392 329
88 344 -271 -424 32 443 425 353
80 346 -260 -407 48 471 448 363
74 321 -244 -377 68 496 457 357
77 278 -224 -341 87 507 455 342
78 241 -189 -291 106 490 442 324
72 191 -171 -256 92 432 386 276
62 148 -146 -218 77 364 324 227
41 120 -116 -177 69 297 264 181
22 101 -84 -132 62 227 201 137
14 80 -70 -109 41 169 145 96
10 65 -51 -80 35 125 110 72
3 54 -34 -53 29 91 86 57
-2 38 -22 -36 25 68 69 45
-4 26 -16 -31 20 60 62 40
-3 28 0 -14 34 63 70 47
-5 24 1 -10 32 56 61 38
-3 19 -3 -11 26 49 48 27
3 19 1 -7 26 42 44 24
10 16 6 2 28 34 35 19
10 6 -1 -5 15 25 21 6
1 2 4 3 18 23 22 8
-5 5 11 16 22 21 26 11
-4 6 10 16 17 14 18 4
2 2 5 8 6 8 14 0
4 5 16 18 16 8 21 8
4 4 16 17 14 3 14 4
1 -4 14 17 11 2 8 -2
1 -3 14 19 10 0 6 -4
0 -4 21 26 17 0 7 -3
-12 -18 12 16 6 -4 -4 -13
-17 -22 16 21 9 -2 0 -8
-20 -22 23 28 13 0 6 -3
-12 -18 22 26 10 -3 2 -6
-2 -12 16 21 1 -8 -1 -10
2 -4 26 30 11 -6 9 1
4 -5 26 27 10 -7 4 -3
-3 -13 24 25 8 -8 0 -7
-4 -16 21 24 8 -9 -2 -9
-2 -15 27 32 15 -7 0 -6
-8 -22 18 25 5 -10 -10 -14
-6 -24 15 22 1 -11 -12 -16
-2 -18 19 26 4 -10 -6 -12
1 -12 19 25 4 -9 -7 -11
3 -9 14 20 0 -10 -6 -11
-2 -7 27 33 13 -5 8 -1
-5 -7 24 31 12 -9 2 -5
-1 -10 20 28 10 -9 -4 -9
4 -17 24 35 15 -8 0 -6
10 -17 29 45 21 -6 1 -5
4 -25 19 33 12 -8 -7 -13
-8 -28 22 36 14 -4 -4 -10
-10 -22 27 43 17 -2 2 -4
-22 -21 33 49 21 5 6 1
-16 -20 25 39 13 2 3 -2
-3 -11 32 46 21 0 10 3
2 -17 28 38 18 -5 4 -3
3 -21 24 35 16 -5 0 -6
2 -15 29 42 22 -1 6 -2
-1 -8 33 48 29 1 9 -1
2 -17 22 40 20 -1 -2 -10
4 -27 22 40 20 2 1 -7
4 -20 24 41 22 3 5 -5
5 -14 23 43 23 4 5 -4
3 -17 19 43 18 5 6 -4
3 -8 27 54 28 8 14 4
4 -4 25 52 27 6 10 0
4 -15 21 42 24 4 5 -5
9 -12 21 43 24 3 5 -5
1 -13 28 53 34 5 10 -2
-2 -22 19 47 25 3 1 -11
4 -18 21 46 29 6 5 -6
-1 -13 23 50 31 7 9 -2
2 -16 22 50 32 10 8 -2
5 -19 16 43 25 8 6 -6
6 -14 24 51 33 9 14 1
9 -10 22 51 31 8 10 -3
10 -10 19 50 33 10 7 -5
8 -10 22 59 36 13 11 -2
9 -4 30 69 47 18 18 3
15 -7 21 60 40 17 9 -4
15 -18 23 61 42 20 13 -1
11 -22 32 71 50 23 25 8
9 -18 31 72 50 25 24 7
10 -18 22 67 44 23 20 2
13 -7 31 81 53 24 29 10
14 -13 29 77 54 25 25 7
17 -15 27 74 55 28 22 4
14 -8 29 80 60 32 26 6
13 0 37 90 72 39 32 12
12 -4 29 86 65 38 26 6
7 -13 29 88 68 41 30 10
10 -10 33 97 72 42 36 15
20 -7 33 97 72 42 35 12
25 -6 24 92 65 42 32 9
19 -3 35 103 78 46 46 20
11 -3 33 101 79 46 42 17
11 -6 32 101 78 49 40 14
11 -9 35 105 84 52 42 16
12 -7 38 110 92 53 43 18
14 -9 27 102 83 54 34 9
21 -7 27 103 84 55 37 12
25 0 30 109 89 58 44 17
22 -8 34 115 92 61 49 21
24 -16 27 111 86 61 46 19
28 -4 34 119 96 62 55 28
23 0 32 117 95 60 53 25
20 -1 26 112 91 59 46 18
28 -1 29 118 96 62 49 22
26 -8 38 127 106 67 55 28
22 -16 26 117 97 65 43 16
26 -15 28 121 99 68 47 20
26 -12 30 123 100 67 51 23
28 -11 31 124 98 67 52 24
26 -11 27 123 94 67 53 24
17 -5 39 134 105 71 65 36
19 -2 39 123 102 68 59 30
25 -2 32 118 97 64 53 25
30 0 26 112 92 59 49 21
28 0 33 118 98 60 52 26
29 -9 23 109 87 58 42 17
25 -16 25 105 87 59 44 19
20 -11 29 106 88 60 49 25
17 -8 27 103 83 56 46 23
18 -7 22 96 73 52 43 20
13 4 34 101 79 54 53 30
9 6 34 92 75 51 49 27
9 0 36 87 74 50 48 27
10 -2 37 87 72 49 46 28
12 1 41 89 74 46 48 30
11 -2 30 75 61 40 36 20
10 -6 26 66 54 36 32 18
9 -7 28 63 50 31 32 18
6 -12 25 56 42 25 27 14
3 -17 13 42 26 17 15 6
1 -11 23 46 31 15 22 13
-2 -5 21 38 25 8 16 6
-8 -5 18 31 18 4 9 0
-10 -9 23 35 20 4 12 3
-10 -8 30 40 28 5 15 7
-12 -14 25 34 20 5 6 2
-17 -22 23 31 16 4 6 1
-15 -27 26 28 15 0 9 3
-11 -31 22 25 9 -4 2 -2
-3 -27 11 12 -6 -9 -7 -10
4 -11 19 20 1 -10 1 -2
2 -15 17 13 -3 -15 -5 -9
1 -13 11 5 -8 -19 -13 -14
-4 -9 19 8 -3 -16 -7 -10
-13 -7 27 17 7 -11 0 -3
-23 -19 23 14 3 -8 -4 -7
-23 -23 27 18 5 -4 1 -1
-18 -20 26 19 3 -8 1 -1
-9 -18 23 16 -1 -12 -3 -5
-3 -17 13 6 -11 -15 -8 -10
-12 -16 21 12 -2 -12 2 -1
-20 -19 20 14 -2 -14 -1 -4
-18 -24 17 10 -5 -16 -6 -9
-16 -26 20 11 -2 -13 -4 -7
-18 -25 27 18 6 -11 2 -2
-18 -29 17 12 -4 -13 -8 -10
-18 -29 22 13 0 -7 -2 -2
-18 -25 28 17 4 -6 5 3
-19 -22 25 19 0 -9 1 -1
-20 -24 18 9 -9 -13 -5 -6
-21 -20 25 13 -2 -12 2 -1
-21 -19 25 13 -3 -14 -2 -5
-19 -24 19 11 -5 -15 -7 -8
-18 -27 15 3 -9 -19 -11 -13
-18 -23 22 13 -1 -17 -8 -9
-16 -28 12 9 -9 -19 -18 -17
-20 -31 16 6 -7 -14 -13 -12
-23 -22 26 12 0 -11 -2 -4
-22 -17 23 10 -5 -11 -5 -7
-18 -21 17 3 -12 -12 -7 -11
-22 -19 26 10 -2 -10 2 -1
-24 -16 19 6 -7 -17 -6 -9
-19 -18 16 6 -9 -16 -11 -12
-16 -19 20 10 -5 -14 -7 -9
-16 -22 25 15 3 -13 -4 -5
-17 -27 16 9 -7 -15 -14 -14
-16 -26 16 8 -8 -14 -14 -12
-12 -18 23 12 -3 -13 -5 -5
-5 -16 21 10 -7 -14 -9 -9
2 -16 10 1 -15 -16 -15 -14
-4 -10 25 12 -2 -11 0 -1
-17 -13 28 16 2 -10 2 0
-25 -19 23 11 -1 -11 -5 -5
-27 -21 21 9 -3 -13 -7 -6
-23 -22 24 12 0 -16 -7 -6
-22 -27 14 6 -9 -17 -17 -15
-22 -30 16 11 -6 -14 -12 -10
-17 -29 21 17 0 -10 -6 -2
-10 -25 21 17 -2 -11 -5 -5
-10 -31 15 9 -8 -11 -8 -7
-11 -29 26 17 2 -8 3 3
-19 -22 29 23 6 -7 4 4
-22 -27 28 19 5 -7 1 2
-19 -34 27 16 5 -7 0 1
-17 -32 33 25 10 -7 3 3
-14 -37 22 16 -1 -9 -9 -7
-10 -38 22 15 0 -7 -5 -3
-14 -40 25 16 2 -7 -1 -1
-15 -36 19 10 -4 -11 -8 -7
-13 -37 14 3 -11 -10 -10 -8
-13 -31 25 13 1 -7 3 4
-15 -28 26 16 2 -8 1 1
-17 -30 22 11 -1 -10 -4 -4
-14 -31 20 13 -1 -11 -6 -3
-13 -30 26 19 6 -12 -1 0
-10 -36 13 5 -9 -18 -17 -15
-3 -34 12 3 -11 -17 -17 -15
-8 -34 20 10 -4 -14 -8 -7
-9 -39 17 7 -8 -15 -12 -11
-11 -36 11 2 -13 -13 -17 -13
-20 -23 25 16 1 -5 1 2
-32 -21 28 20 5 -4 2 3
-30 -22 25 18 3 -5 -2 -1
-16 -26 22 13 -1 -10 -4 -4
-4 -24 22 11 0 -15 -6 -6
-6 -28 17 6 -5 -16 -13 -13
-8 -29 17 8 -4 -14 -11 -10
-3 -22 21 12 -3 -15 -7 -7
-5 -25 17 7 -8 -17 -12 -11
-7 -30 7 -5 -18 -18 -19 -17
-5 -16 19 5 -6 -15 -6 -5
-9 -14 18 5 -8 -17 -8 -8
-8 -20 17 8 -6 -14 -9 -8
-11 -23 18 9 -4 -15 -7 -8
-12 -21 22 17 -1 -18 -7 -9
-7 -23 12 2 -11 -20 -18 -18
-6 -25 16 4 -8 -18 -14 -12
-5 -22 16 4 -10 -20 -12 -12
-6 -23 15 3 -11 -20 -13 -13
-5 -25 6 -5 -20 -23 -20 -19
-3 -20 15 4 -13 -22 -12 -11
-6 -24 18 5 -10 -19 -10 -10
-9 -28 15 0 -12 -19 -15 -14
-8 -26 15 0 -11 -18 -14 -13
-8 -28 21 6 -4 -18 -10 -10
-5 -33 11 -3 -14 -22 -21 -19
-7 -31 14 0 -12 -19 -17 -15
-8 -25 15 3 -13 -23 -15 -14
3 -20 12 6 -16 -23 -18 -17
6 -25 3 -10 -26 -28 -25 -23
0 -24 9 -6 -20 -29 -19 -18
-2 -17 8 -6 -20 -31 -22 -22
-7 -18 7 -5 -22 -29 -26 -24
-13 -18 10 -5 -18 -26 -23 -22
-13 -15 14 1 -11 -25 -19 -18
-13 -26 8 -6 -18 -27 -27 -24
-11 -30 11 -2 -16 -23 -23 -18
-10 -27 15 1 -16 -25 -17 -15
-11 -25 11 -2 -19 -27 -22 -19
-12 -24 6 -5 -25 -27 -24 -20
-11 -15 17 -1 -16 -25 -12 -10
-8 -13 17 -1 -16 -25 -14 -14
-12 -17 12 -5 -19 -27 -21 -18
-15 -22 10 -7 -22 -30 -23 -21
-8 -14 16 -1 -14 -29 -19 -17
-9 -19 7 -7 -23 -31 -28 -25
-12 -22 7 -6 -23 -29 -27 -22
-10 -18 13 0 -18 -27 -19 -16
-13 -17 11 -4 -21 -29 -22 -18
-16 -25 7 -9 -26 -27 -25 -21
-12 -16 19 3 -14 -26 -13 -10
-14 -9 15 -2 -17 -30 -18 -15
-12 -11 12 -5 -19 -30 -22 -18
-3 -12 8 -10 -25 -34 -27 -22
-1 -18 12 -4 -21 -36 -25 -22
-2 -24 4 -10 -29 -39 -36 -31
2 -24 2 -12 -32 -39 -37 -30
5 -22 1 -16 -32 -41 -36 -29
0 -19 4 -11 -29 -37 -33 -27
-9 -21 1 -11 -31 -33 -34 -26
-18 -15 17 -1 -17 -25 -16 -11
-22 -9 18 0 -16 -27 -18 -13
-20 -10 12 -6 -22 -31 -26 -19
-15 -11 12 -6 -22 -31 -26 -20
-16 -11 15 -4 -20 -33 -24 -19
-15 -26 6 -5 -26 -34 -33 -26
-12 -27 8 -1 -24 -31 -30 -22
-5 -13 8 -8 -25 -33 -29 -21
-1 -9 4 -12 -28 -34 -33 -25
0 -10 -2 -18 -33 -35 -37 -28
-3 -2 9 -8 -23 -32 -24 -17
-7 0 11 -2 -20 -32 -23 -17
-10 -11 7 -6 -22 -33 -30 -22
-12 -8 8 -7 -21 -33 -30 -21
-12 4 19 5 -12 -29 -21 -14
-13 1 9 -6 -22 -32 -32 -24
-9 -5 10 -4 -21 -30 -30 -20
-10 -3 14 1 -17 -28 -25 -15
-10 -1 10 -1 -21 -31 -30 -21
-9 1 4 -10 -27 -30 -33 -24
-8 8 13 -3 -18 -30 -24 -17
-5 13 15 0 -16 -28 -23 -18
-9 3 12 -2 -16 -28 -25 -18
-19 -2 10 3 -16 -27 -23 -17
-18 7 15 5 -9 -26 -16 -11
-16 3 5 -3 -18 -27 -23 -16
-12 7 2 -6 -19 -25 -24 -14
-8 10 6 -5 -16 -24 -18 -9
-7 9 2 -11 -20 -26 -23 -13
-1 5 -7 -20 -29 -27 -29 -17
1 9 2 -11 -19 -27 -19 -9
3 16 -1 -12 -20 -28 -23 -13
2 14 -6 -17 -25 -30 -30 -18
0 12 -5 -16 -24 -30 -30 -16
-1 11 2 -10 -19 -31 -25 -13
2 9 -7 -16 -29 -36 -34 -22
3 7 -7 -15 -29 -34 -34 -19
-1 5 0 -10 -24 -31 -27 -14
-1 3 -2 -13 -26 -33 -30 -17
0 -3 -13 -24 -36 -38 -40 -25
4 4 -2 -13 -26 -34 -28 -16
-3 0 -1 -10 -25 -35 -30 -18
-9 -4 -4 -12 -27 -33 -34 -20
-12 -1 -1 -10 -27 -34 -33 -19
-13 -5 6 -8 -23 -37 -28 -17
-7 -11 -5 -19 -34 -42 -41 -28
-8 -10 -2 -16 -35 -40 -40 -24
-11 -7 2 -11 -33 -41 -36 -23
-8 -8 0 -17 -36 -44 -39 -25
-5 -14 -7 -25 -44 -47 -46 -31
-2 -9 3 -19 -35 -44 -35 -22
-2 -6 1 -20 -37 -48 -40 -28
-10 -10 -3 -21 -38 -48 -46 -32
-17 -10 4 -15 -31 -41 -40 -27
-13 -8 13 -4 -25 -42 -33 -22
-11 -12 0 -15 -39 -49 -47 -34
-10 -11 0 -17 -39 -47 -46 -32
-15 -9 6 -12 -34 -45 -38 -27
-22 -11 6 -10 -33 -44 -39 -27
-24 -10 1 -16 -37 -43 -42 -28
-25 -3 8 -11 -31 -42 -34 -21
-24 -9 11 -5 -27 -40 -33 -21
-28 -22 9 -8 -28 -38 -37 -22
-29 -25 8 -6 -28 -38 -37 -23
-28 -16 14 -2 -22 -39 -32 -18
-26 -17 3 -11 -34 -44 -46 -31
-25 -16 1 -12 -36 -41 -46 -30
-25 -11 10 -5 -28 -40 -35 -22
-23 -23 3 -14 -34 -43 -43 -29
-12 -27 -6 -25 -43 -44 -49 -33
-8 -15 7 -13 -31 -41 -34 -20
-6 -9 5 -12 -32 -44 -38 -25
-9 -8 1 -14 -35 -45 -43 -29
-13 -11 2 -17 -34 -45 -44 -29
-9 -16 7 -13 -30 -45 -41 -26
-11 -28 -1 -19 -38 -48 -51 -34
-15 -29 -3 -20 -40 -46 -51 -33
-13 -18 1 -17 -38 -46 -47 -30
-17 -15 1 -17 -38 -46 -46 -29
-20 -19 -6 -24 -44 -46 -52 -33
-18 -13 6 -13 -32 -44 -39 -23
-17 -10 5 -16 -32 -45 -41 -25
-12 -11 0 -20 -36 -46 -45 -29
-9 -14 2 -18 -33 -46 -43 -27
-10 -15 10 -9 -26 -43 -37 -22
-9 -21 1 -16 -34 -45 -46 -31
-14 -30 5 -13 -31 -39 -42 -25
-14 -25 6 -11 -29 -39 -39 -23
-18 -23 3 -12 -32 -42 -44 -28
-21 -27 -2 -14 -36 -44 -50 -34
-16 -23 13 3 -22 -43 -40 -27
-11 -20 19 21 -13 -43 -40 -30
-8 -25 18 29 -8 -40 -46 -36
-4 -28 23 41 4 -36 -42 -35
-1 -32 31 61 19 -33 -35 -31
6 -42 17 62 17 -30 -43 -39
21 -33 8 59 26 -16 -33 -31
29 -19 -7 53 36 3 -13 -14
39 -9 -27 28 40 24 5 2
54 2 -55 -13 36 51 27 23
71 29 -72 -48 43 82 67 58
89 64 -98 -95 42 114 98 84
97 104 -131 -155 40 154 133 114
95 136 -159 -213 39 198 180 155
101 180 -180 -264 38 234 225 196
111 221 -222 -329 19 267 254 222
119 253 -249 -366 20 307 290 257
111 283 -263 -392 25 339 329 289
96 298 -279 -421 26 375 356 312
95 310 -295 -443 26 412 383 333
92 328 -285 -435 47 446 421 359
87 329 -279 -423 63 472 436 362
83 302 -259 -380 96 504 449 359
76 262 -230 -325 129 519 452 348
68 222 -192 -265 150 502 436 327
52 177 -171 -225 132 446 381 281
38 140 -147 -190 113 375 321 237
28 117 -117 -153 99 303 262 195
22 91 -91 -122 81 232 200 148
19 69 -81 -103 53 169 137 102
15 59 -53 -73 46 118 103 80
4 41 -37 -54 31 77 69 54
-5 24 -27 -40 23 56 45 38
-6 19 -17 -24 26 50 41 35
0 24 -5 -7 35 48 43 36
2 19 -8 -8 28 45 33 27
-1 14 -6 -10 25 39 27 24
-3 15 -1 -4 25 33 25 23
-7 11 2 1 23 27 20 18
-8 6 -1 2 14 22 10 11
-6 4 11 12 21 17 14 16
-10 -3 13 12 16 9 7 9
-7 -8 7 5 8 3 -5 0
3 -6 7 4 5 -3 -11 -3
5 -3 9 9 6 -11 -12 -4
-3 -7 1 0 -5 -15 -24 -17
-4 -7 5 4 -3 -13 -22 -13
-6 -5 11 11 1 -11 -16 -7
-5 -6 15 16 3 -11 -15 -7
-10 -14 11 12 -4 -14 -22 -11
-8 -12 18 18 2 -17 -16 -6
-8 -13 18 19 1 -21 -17 -9
-11 -20 11 12 -6 -24 -28 -17
-17 -19 13 14 -4 -24 -28 -16
-21 -13 21 22 4 -23 -19 -9
-15 -16 8 10 -8 -27 -34 -22
-6 -13 6 7 -9 -25 -35 -22
-10 -10 12 15 -3 -23 -27 -15
-14 -11 15 21 0 -19 -26 -14
-13 -18 12 20 -4 -17 -27 -16
-14 -11 21 30 4 -17 -17 -7
-14 -5 19 29 3 -20 -20 -12
-15 -1 17 26 2 -20 -23 -15
-18 -2 17 25 4 -19 -21 -13
-19 -6 25 32 12 -17 -15 -6
-26 -21 16 24 5 -17 -24 -15
-25 -26 13 22 1 -17 -27 -16
-15 -20 19 28 4 -16 -21 -11
-10 -19 16 26 2 -19 -25 -15
-4 -20 10 22 -5 -20 -31 -20
0 -10 21 30 5 -20 -20 -9
1 0 16 30 2 -25 -26 -17
3 -3 13 27 0 -25 -30 -21
3 -7 16 26 3 -23 -28 -17
-2 -6 21 31 9 -22 -21 -12
-5 -14 12 26 5 -21 -28 -18
-4 -18 10 22 2 -19 -29 -18
-4 -13 15 30 6 -19 -24 -14
-7 -17 16 31 7 -17 -23 -15
-7 -27 11 26 1 -15 -28 -18
-9 -24 21 36 11 -13 -17 -7
-15 -19 22 41 13 -14 -17 -9
-16 -15 20 42 13 -10 -19 -11
-15 -7 24 43 19 -8 -15 -6
-12 -2 27 46 24 -11 -10 -4
-9 -6 14 36 13 -14 -22 -16
-3 -12 13 38 12 -12 -21 -14
-2 -11 18 42 18 -8 -15 -8
3 -12 15 42 15 -11 -18 -12
0 -17 7 32 6 -12 -25 -17
-5 -11 16 39 15 -11 -15 -10
-4 -8 17 44 17 -12 -17 -13
-6 -15 11 40 15 -11 -22 -17
-4 -13 17 45 23 -6 -15 -11
-7 -11 28 58 35 -1 -3 -1
-8 -18 17 54 29 -1 -12 -10
-7 -16 18 53 28 1 -11 -9
-9 -17 24 59 34 2 -3 -3
-4 -16 20 57 31 1 -7 -8
6 -10 12 50 23 -1 -15 -15
3 -8 24 62 33 3 -3 -4
-2 -10 26 67 37 4 -3 -5
-1 -9 23 68 36 5 -7 -10
1 -5 22 66 36 6 -6 -9
-2 -9 35 79 52 13 8 1
1 -18 26 74 47 15 -1 -7
4 -15 22 76 48 17 2 -5
3 -10 27 81 53 17 7 -2
3 -8 22 82 50 14 3 -7
11 -3 13 75 42 13 -6 -14
13 7 25 86 54 17 8 -2
17 4 24 87 57 18 7 -4
17 -7 24 88 58 23 7 -4
12 -13 25 93 62 27 11 -1
16 -9 28 100 69 28 16 2
18 -10 21 91 64 30 9 -5
12 -12 22 95 69 33 12 0
9 -9 29 107 77 38 22 9
8 -5 32 111 80 40 23 8
9 -6 26 108 73 40 16 3
7 -5 37 120 85 43 29 14
6 0 32 122 82 40 24 8
14 7 26 114 77 38 17 3
17 8 27 117 80 40 19 4
13 9 32 126 89 42 26 10
11 1 22 117 82 41 16 1
9 -8 24 117 85 46 20 6
6 -6 30 128 90 49 29 14
8 0 32 129 93 51 31 15
17 3 21 119 83 49 21 7
24 9 29 125 90 47 30 16
20 8 32 129 93 47 33 15
15 3 27 125 91 48 28 12
12 4 29 126 93 51 32 16
4 0 36 135 103 54 42 24
4 -12 26 127 93 54 31 15
10 -9 27 123 93 56 33 20
11 -2 31 124 95 57 38 24
14 -3 32 122 93 56 37 23
20 -8 23 109 80 51 27 17
19 -3 30 118 85 48 35 23
13 1 29 113 81 44 33 20
11 -2 25 98 74 40 26 16
12 -4 25 94 71 40 26 17
5 -1 32 96 75 38 31 21
-1 -6 21 83 63 34 19 11
-1 -5 21 78 60 35 19 15
-1 -2 26 79 60 32 23 18
-5 -8 25 76 54 29 18 15
1 -8 15 58 40 23 6 7
1 -3 24 58 43 19 15 13
-2 -8 25 60 39 14 12 9
1 -15 22 54 33 10 5 5
6 -15 18 44 27 6 1 3
4 -12 24 45 31 4 6 7
2 -19 12 33 18 -2 -8 -5
0 -20 7 22 9 -6 -14 -7
1 -12 14 24 11 -7 -8 -3
-3 -13 12 22 5 -12 -14 -8
-1 -12 1 9 -7 -15 -24 -17
2 -6 14 18 3 -12 -12 -5
-1 -4 17 17 3 -14 -12 -6
-6 -5 15 13 1 -15 -15 -9
-10 -12 18 14 3 -13 -13 -4
-15 -14 21 17 8 -14 -8 -1
-16 -14 14 12 0 -16 -16 -10
-15 -14 14 12 -1 -14 -16 -8
-8 -12 14 9 -3 -19 -16 -8
-2 -22 10 5 -7 -22 -19 -13
-3 -36 4 -1 -16 -21 -27 -18
-5 -24 14 7 -7 -19 -17 -9
-14 -17 17 8 -4 -20 -15 -8
-16 -22 11 2 -9 -22 -20 -14
-9 -24 12 3 -9 -21 -19 -11
-10 -25 20 11 -1 -20 -11 -5
-14 -28 12 4 -7 -20 -19 -13
-15 -29 16 6 -3 -15 -14 -7
-20 -26 19 11 -1 -16 -10 -3
-17 -23 16 8 -5 -18 -14 -8
-12 -24 5 -3 -16 -22 -25 -17
-12 -15 13 5 -9 -21 -17 -10
-16 -8 15 4 -7 -20 -17 -11
-24 -17 14 3 -9 -18 -18 -13
-26 -26 12 5 -9 -19 -20 -13
-26 -24 21 12 1 -16 -12 -5
-22 -27 8 -1 -11 -21 -23 -17
-13 -26 6 -2 -14 -22 -25 -17
-9 -24 11 2 -9 -22 -18 -12
-9 -28 9 -2 -13 -23 -21 -15
-8 -30 2 -8 -19 -24 -27 -20
-9 -23 11 0 -10 -21 -19 -11
-8 -15 12 0 -10 -23 -20 -15
-9 -17 8 -4 -15 -25 -26 -21
-11 -21 5 -7 -16 -28 -30 -24
-17 -17 12 3 -9 -25 -21 -18
-16 -21 5 -4 -14 -26 -28 -23
-8 -22 2 -7 -18 -26 -31 -23
0 -15 5 -4 -16 -29 -27 -20
5 -17 3 -6 -19 -31 -30 -24
8 -24 -1 -11 -24 -29 -34 -26
0 -16 17 4 -8 -21 -16 -10
-11 -12 20 7 -5 -20 -14 -10
-16 -11 16 2 -9 -20 -20 -15
-23 -10 15 4 -7 -19 -18 -13
-27 -10 17 10 -4 -21 -16 -11
-24 -13 3 -3 -16 -26 -31 -26
-14 -16 0 -8 -21 -28 -33 -27
-4 -19 7 -2 -14 -27 -25 -18
-4 -27 12 7 -12 -23 -22 -16
-10 -27 4 -4 -21 -25 -31 -22
-13 -14 17 2 -10 -21 -16 -10
-14 -13 19 6 -7 -21 -14 -11
-16 -14 11 -2 -14 -24 -23 -19
-15 -7 10 1 -12 -24 -22 -17
-17 -11 16 8 -4 -22 -16 -12
-15 -16 6 3 -10 -21 -24 -19
-12 -18 5 1 -12 -21 -25 -18
-13 -15 5 -2 -12 -23 -23 -17
-16 -13 5 -1 -15 -24 -24 -19
-15 -18 -1 -9 -22 -23 -31 -24
-11 -17 7 0 -13 -23 -20 -15
-10 -17 9 1 -11 -25 -19 -16
-13 -25 8 1 -12 -23 -22 -17
-14 -18 10 2 -9 -21 -20 -14
-13 -3 14 7 -5 -22 -16 -11
-14 -9 2 -2 -16 -24 -28 -23
-13 -15 3 -1 -16 -23 -26 -19
-14 -12 9 -1 -12 -22 -20 -15
-19 -8 5 -1 -15 -23 -24 -19
-17 -9 -2 -7 -22 -23 -32 -23
-17 -8 7 2 -16 -25 -23 -16
-9 -6 7 -1 -17 -29 -26 -19
-2 -6 4 -3 -20 -30 -29 -23
-6 -15 5 -3 -16 -27 -27 -20
-10 -15 14 2 -9 -27 -19 -14
-12 -15 6 -4 -15 -27 -25 -22
-7 -14 3 -8 -19 -27 -29 -22
-4 -6 3 -7 -20 -32 -28 -22
-8 -15 2 -8 -22 -33 -29 -25
-9 -18 -3 -13 -27 -28 -33 -27
-7 -7 8 0 -17 -26 -22 -15
-15 -5 10 1 -15 -26 -22 -17
-25 -8 11 1 -16 -25 -23 -19
-23 -11 8 1 -16 -26 -23 -18
-18 -10 16 4 -10 -27 -17 -13
-16 -14 7 0 -17 -28 -25 -21
-16 -15 4 -4 -19 -28 -26 -20
-12 -9 12 0 -13 -27 -18 -14
-11 -10 4 -8 -21 -33 -27 -24
-8 -15 -10 -22 -36 -36 -44 -35
-6 -9 2 -12 -26 -35 -29 -23
-9 -5 4 -9 -25 -37 -30 -25
-13 -7 1 -13 -28 -35 -36 -30
-17 -6 5 -9 -23 -31 -31 -25
-23 -8 15 1 -13 -27 -20 -16
-29 -18 10 -3 -17 -24 -25 -21
-27 -16 8 -3 -17 -23 -23 -17
-24 -13 9 -2 -16 -25 -20 -15
-24 -13 6 -2 -20 -29 -24 -20
-22 -14 -5 -9 -32 -32 -37 -29
-19 -10 4 -6 -24 -32 -28 -21
-15 -9 3 -6 -25 -35 -30 -24
-10 -14 -4 -13 -33 -38 -39 -32
-15 -17 -3 -15 -31 -36 -37 -29
-19 -9 6 -4 -23 -36 -27 -21
-21 -12 -3 -15 -32 -38 -39 -31
-14 -15 -3 -19 -33 -37 -38 -28
-12 -11 2 -14 -29 -35 -30 -22
-9 -12 3 -12 -28 -34 -32 -23
-6 -12 -3 -16 -34 -34 -37 -27
-12 -8 9 -7 -23 -31 -24 -16
-12 -10 8 -7 -24 -35 -27 -20
-8 -13 -1 -15 -32 -40 -37 -28
-6 -9 -2 -18 -35 -40 -40 -30
-6 -4 6 -10 -26 -39 -32 -23
-10 -11 -5 -18 -36 -42 -42 -32
-11 -13 -5 -19 -37 -39 -41 -30
-15 -9 5 -11 -29 -35 -28 -20
-13 -5 3 -12 -30 -37 -32 -22
-9 -6 -6 -19 -38 -38 -39 -28
-11 -11 6 -4 -27 -36 -25 -18
-14 -15 6 -6 -27 -38 -27 -21
-12 -14 1 -13 -32 -39 -35 -26
-14 -13 0 -16 -32 -39 -35 -26
-15 -2 5 -11 -27 -40 -30 -21
-16 0 -6 -20 -38 -44 -42 -32
-12 -2 -9 -24 -42 -44 -46 -33
-13 0 0 -17 -34 -40 -35 -24
-15 -9 -1 -17 -34 -40 -38 -26
-18 -20 -10 -25 -44 -39 -47 -33
-23 -15 6 -11 -28 -35 -29 -18
-22 -15 8 -7 -26 -37 -27 -19
-12 -14 3 -12 -32 -39 -35 -25
-13 -15 1 -17 -35 -41 -36 -27
-20 -16 7 -9 -27 -39 -30 -20
-15 -20 -3 -16 -36 -42 -39 -30
-14 -21 -5 -19 -39 -41 -41 -30
-16 -18 -3 -19 -37 -41 -39 -27
-12 -13 -5 -15 -38 -41 -40 -29
-12 -16 -10 -23 -43 -40 -45 -33
-16 -12 5 -13 -30 -34 -29 -18
-16 -13 5 -13 -31 -38 -30 -23
-17 -16 -1 -17 -35 -41 -37 -28
-16 -13 -2 -18 -36 -42 -37 -29
-12 -13 5 -10 -29 -44 -30 -22
-9 -16 -5 -20 -38 -46 -42 -33
-11 -19 -1 -17 -35 -40 -37 -26
-11 -16 1 -16 -35 -41 -35 -24
-5 -12 -4 -21 -40 -45 -41 -31
-6 -13 -9 -27 -44 -43 -46 -34
-8 -6 3 -17 -36 -40 -34 -25
-9 -3 5 -15 -34 -41 -33 -26
-8 -9 -2 -21 -40 -45 -41 -32
-7 -11 -1 -18 -39 -45 -40 -32
-13 -10 10 -8 -27 -41 -27 -22
-15 -18 0 -18 -35 -43 -37 -31
-11 -18 -2 -20 -38 -42 -38 -29
-7 -16 0 -20 -37 -44 -35 -28
-6 -15 -5 -22 -42 -47 -41 -33
-7 -14 -10 -28 -48 -46 -47 -37
-11 -9 -2 -17 -41 -47 -38 -30
-14 -6 -4 -22 -44 -50 -43 -35
-16 -14 -6 -25 -44 -48 -45 -37
-27 -20 1 -14 -35 -40 -36 -28
-27 -15 14 0 -22 -34 -24 -17
-27 -21 5 -10 -31 -38 -34 -27
-25 -24 0 -14 -37 -39 -38 -29
-22 -16 3 -12 -34 -40 -33 -26
-24 -18 0 -15 -36 -41 -37 -30
-19 -18 -11 -25 -48 -44 -48 -38
-12 -7 -1 -19 -40 -45 -36 -29
-13 -4 -3 -18 -41 -48 -40 -34
-12 -10 -8 -22 -45 -49 -46 -39
-14 -16 -7 -25 -43 -48 -45 -37
-24 -16 6 -12 -30 -41 -32 -25
-24 -16 2 -16 -34 -39 -37 -30
-23 -15 -1 -15 -36 -39 -37 -29
-18 -7 2 -12 -34 -38 -33 -25
-12 -8 4 -11 -34 -37 -32 -25
-12 -15 -3 -21 -41 -38 -40 -31
-6 -2 5 -11 -34 -38 -29 -22
-8 -3 8 -9 -31 -38 -29 -23
-9 -11 3 -13 -35 -39 -36 -29
-7 -8 2 -14 -35 -41 -37 -29
-13 -5 10 -3 -27 -39 -29 -24
-11 -4 2 -9 -33 -40 -37 -33
-8 -2 1 -15 -35 -40 -38 -31
-10 1 7 -10 -30 -37 -31 -25
-15 -4 6 -11 -31 -38 -32 -28
-13 -12 -4 -21 -40 -41 -41 -33
-14 -2 2 -15 -33 -40 -31 -24
-12 8 2 -15 -31 -40 -30 -26
-12 8 -7 -19 -37 -41 -38 -32
-10 11 -10 -23 -39 -43 -39 -32
-8 15 -3 -19 -32 -43 -31 -27
-1 4 -14 -27 -41 -42 -41 -35
5 0 -18 -27 -44 -41 -42 -33
-2 -2 -10 -20 -36 -36 -31 -23
-10 0 -9 -18 -34 -35 -30 -23
-13 0 -14 -25 -40 -35 -35 -26
-7 4 -6 -18 -34 -37 -28 -19
-8 6 -7 -18 -36 -41 -30 -24
-16 0 -11 -23 -40 -42 -37 -29
-14 -2 -11 -25 -41 -42 -37 -29
-7 5 -4 -15 -33 -42 -30 -24
-12 -4 -14 -23 -41 -44 -40 -36
-14 -9 -15 -28 -45 -42 -42 -34
-12 -4 -7 -20 -38 -38 -33 -27
-12 -6 -10 -21 -42 -41 -37 -30
-8 -11 -17 -31 -51 -44 -44 -35
-3 -12 -7 -25 -43 -45 -32 -25
-5 -10 -7 -21 -43 -48 -36 -30
-3 -9 -9 -24 -46 -49 -41 -34
-5 -8 -8 -24 -46 -50 -40 -33
-12 -9 -2 -17 -41 -51 -36 -32
-15 -15 -9 -26 -48 -51 -45 -38
-18 -18 -9 -28 -51 -50 -47 -39
-19 -15 -3 -19 -46 -49 -41 -35
-24 -17 -2 -18 -46 -49 -41 -36
-23 -16 -10 -31 -54 -51 -51 -41
-19 -6 1 -23 -47 -51 -39 -33
-19 -3 -1 -23 -50 -55 -43 -38
-16 -5 -6 -25 -52 -56 -48 -44
-14 -5 -1 -24 -48 -53 -43 -39
-8 -3 5 -17 -43 -53 -38 -35
-6 -5 -7 -24 -53 -57 -50 -46
-10 -10 -11 -29 -55 -57 -51 -44
-15 -13 -3 -25 -49 -51 -43 -37
-20 -26 -3 -24 -50 -51 -43 -38
-21 -32 -11 -33 -59 -53 -52 -43
-24 -22 -3 -25 -51 -51 -43 -36
-24 -17 -1 -23 -49 -52 -44 -40
-28 -22 -3 -24 -51 -53 -48 -42
-29 -23 -1 -24 -48 -51 -45 -39
-27 -17 6 -19 -42 -52 -38 -34
-27 -18 -7 -29 -51 -55 -50 -45
-18 -17 -11 -34 -55 -57 -53 -45
-14 -13 -8 -28 -56 -56 -48 -42
-19 -17 -7 -23 -55 -55 -48 -41
-21 -24 -15 -34 -62 -56 -55 -48
-22 -16 -8 -29 -55 -55 -47 -40
-17 -9 -7 -26 -54 -56 -50 -43
-13 -15 -12 -32 -58 -58 -57 -48
-16 -23 -6 -24 -54 -55 -52 -44
-16 -14 4 -10 -44 -51 -40 -35
-25 -19 -3 -18 -49 -53 -48 -42
-27 -20 -4 -23 -49 -49 -47 -40
-25 -12 0 -22 -47 -51 -41 -35
-24 -11 -3 -26 -51 -53 -45 -40
-20 -16 -14 -35 -61 -56 -55 -47
-19 -14 -3 -25 -51 -53 -43 -37
-20 -17 -2 -24 -50 -53 -44 -39
-20 -20 -5 -28 -52 -53 -49 -42
-20 -19 -4 -27 -51 -54 -49 -42
-11 -5 2 -20 -44 -54 -42 -39
-1 -7 -8 -25 -51 -57 -52 -49
0 -17 -8 -21 -51 -56 -54 -48
-7 -24 4 -8 -41 -52 -45 -42
-13 -27 9 5 -34 -49 -44 -43
-15 -33 5 10 -33 -47 -52 -49
-13 -29 18 28 -18 -44 -39 -41
-6 -30 14 34 -16 -47 -45 -50
0 -32 6 44 -9 -42 -49 -53
12 -27 -1 50 2 -31 -41 -45
30 -13 -14 45 16 -13 -20 -31
45 -8 -43 22 14 6 -12 -23
59 5 -65 -11 18 34 15 2
76 31 -82 -44 25 65 53 34
90 65 -102 -84 33 100 90 65
94 92 -136 -143 32 141 124 95
104 132 -156 -196 45 189 180 145
114 172 -185 -254 39 221 221 179
122 216 -222 -317 29 257 252 209
134 257 -248 -363 33 298 293 245
125 283 -259 -389 45 335 337 281
108 295 -285 -425 38 367 357 297
106 312 -294 -441 46 408 394 326
106 329 -289 -438 64 444 431 352
107 326 -279 -421 85 476 455 365
109 292 -268 -391 106 505 464 357
105 256 -237 -335 142 520 474 353
92 218 -203 -280 156 503 456 329
80 177 -175 -238 145 451 407 288
68 145 -149 -203 124 380 345 242
51 123 -119 -164 110 306 285 197
35 93 -110 -144 74 229 205 136
28 68 -91 -116 53 170 148 99
19 56 -65 -83 40 117 109 72
11 43 -49 -63 21 74 71 46
7 28 -43 -55 5 48 43 27
3 23 -23 -37 13 42 46 30
1 19 -15 -25 18 40 44 28
1 18 -13 -23 16 36 36 21
-1 16 -11 -19 13 30 31 17
-8 15 -2 -8 17 23 31 18
-13 3 -10 -16 4 13 11 1
-10 -12 -11 -15 -2 12 5 -1
-6 -11 -3 -7 0 6 6 0
-7 -10 -2 -3 -5 -1 -1 -5
-7 -10 -13 -14 -21 -10 -18 -18
-4 -3 1 -4 -10 -9 -6 -6
-5 3 3 -3 -10 -14 -10 -9
-4 1 -2 -8 -16 -19 -19 -17
-7 -8 1 -3 -14 -21 -18 -15
-14 -9 11 7 -6 -21 -11 -11
-16 -17 6 5 -12 -22 -20 -17
-7 -23 1 0 -20 -25 -27 -22
2 -23 4 2 -21 -30 -27 -22
-4 -30 7 5 -19 -29 -25 -20
-15 -28 -1 -2 -27 -28 -34 -25
-20 -14 10 7 -16 -25 -22 -13
-25 -13 12 12 -13 -26 -21 -13
-21 -20 6 8 -18 -29 -27 -19
-16 -22 8 12 -16 -29 -26 -17
-21 -24 16 20 -7 -28 -15 -11
-20 -27 10 15 -13 -27 -24 -18
-18 -25 10 14 -13 -25 -23 -16
-12 -23 16 21 -11 -28 -19 -11
-8 -16 12 19 -15 -29 -25 -17
-7 -20 -2 2 -27 -32 -38 -27
-6 -18 7 9 -18 -32 -26 -15
-6 -17 8 14 -16 -33 -25 -15
0 -18 2 9 -21 -36 -33 -23
-1 -13 5 14 -16 -32 -29 -17
-13 -9 19 30 -1 -25 -15 -7
-14 -18 12 22 -9 -25 -25 -15
-5 -21 10 20 -13 -26 -27 -14
-2 -16 13 27 -11 -28 -23 -11
-6 -22 10 22 -13 -31 -26 -15
-5 -31 1 14 -20 -32 -34 -20
-2 -23 9 18 -12 -30 -24 -11
-7 -17 11 23 -10 -29 -23 -11
-9 -19 8 17 -11 -29 -27 -13
-6 -21 6 16 -12 -28 -28 -14
-11 -18 19 28 0 -23 -16 -4
-15 -22 12 25 -6 -23 -25 -12
-13 -23 8 21 -9 -23 -27 -12
-13 -19 13 27 -4 -23 -20 -7
-13 -18 11 27 -4 -23 -21 -8
-5 -17 2 22 -13 -23 -30 -13
-6 -18 15 35 1 -17 -14 1
-9 -24 17 41 3 -17 -13 0
-7 -22 10 36 -1 -19 -20 -6
-10 -19 8 30 -2 -21 -20 -7
-11 -16 15 43 5 -19 -12 -2
-11 -27 9 38 3 -16 -19 -7
-7 -35 9 35 2 -13 -18 -5
-3 -25 16 41 7 -12 -11 2
-7 -22 18 45 11 -10 -8 4
-2 -22 9 38 2 -10 -17 -2
0 -19 19 47 12 -7 -3 9
1 -16 19 46 14 -11 -4 6
5 -16 12 44 8 -13 -13 -1
5 -16 12 48 10 -12 -11 0
2 -12 17 53 18 -12 -5 3
4 -19 6 43 8 -15 -19 -9
8 -20 4 45 7 -11 -19 -7
5 -15 19 62 22 -3 -1 6
-1 -16 21 66 26 0 -1 7
-2 -18 10 56 14 -1 -13 -2
-1 -9 21 62 27 3 4 12
3 -1 28 68 34 4 9 14
-2 -10 26 70 34 7 6 11
-7 -15 27 79 39 13 9 14
-5 -17 34 90 50 16 18 21
4 -22 20 78 36 10 2 6
15 -24 14 72 32 9 0 4
17 -22 18 78 37 11 5 9
19 -22 14 79 36 10 3 6
17 -24 8 75 32 13 -2 3
10 -17 21 88 46 19 14 18
15 -9 22 92 51 19 17 17
13 -9 20 91 52 20 14 15
9 -8 21 94 53 22 16 16
5 -5 31 107 66 27 27 25
4 -14 23 102 58 26 16 15
12 -15 18 100 55 27 13 14
22 -13 24 107 61 29 21 20
25 -21 18 104 56 25 16 14
31 -21 5 94 46 23 5 7
27 -10 15 103 58 26 18 19
17 -8 21 108 66 29 23 22
13 -9 21 108 66 31 22 22
11 -8 23 115 69 34 26 26
9 -7 33 130 79 38 37 32
17 -10 25 122 72 36 27 24
23 -15 22 117 70 36 25 24
29 -17 28 123 74 38 31 29
28 -19 28 123 74 37 30 28
20 -22 18 116 67 40 23 24
15 -12 29 129 78 45 38 37
18 -3 29 133 78 41 37 34
21 -2 25 123 74 40 31 31
20 0 26 121 74 40 33 33
19 2 32 126 81 41 40 37
21 -6 25 121 73 38 30 29
22 -11 23 117 71 39 30 31
24 -4 27 118 73 36 37 35
19 -10 24 113 68 35 31 31
20 -18 11 94 52 32 17 24
23 -7 22 100 61 36 32 38
18 -5 28 101 62 35 35 38
21 -4 18 87 52 28 22 28
23 -6 14 78 47 24 18 26
22 -7 25 83 53 23 26 31
18 -13 14 72 40 18 12 20
13 -18 13 64 36 17 12 21
9 -15 18 66 37 16 17 26
4 -14 17 62 34 13 16 24
1 -14 7 51 20 8 3 15
2 -12 16 55 25 9 12 23
3 -10 19 49 24 4 11 21
3 -18 15 39 18 1 4 16
3 -21 13 34 15 0 1 14
9 -21 22 39 20 -2 6 17
17 -23 9 26 4 -11 -12 3
16 -27 8 25 0 -10 -11 4
15 -24 15 24 3 -11 -5 11
16 -22 9 16 -5 -17 -11 4
14 -22 4 11 -13 -16 -20 0
3 -18 19 24 3 -9 -2 15
-7 -15 23 21 5 -11 0 16
-7 -19 15 13 -3 -15 -9 7
-9 -24 11 10 -5 -16 -10 5
-7 -24 17 16 -1 -18 -6 7
-3 -29 8 6 -12 -22 -17 -4
-1 -34 6 5 -14 -18 -18 -3
2 -26 14 11 -8 -16 -11 5
4 -21 9 7 -11 -22 -16 -1
9 -23 -2 -6 -25 -26 -28 -10
14 -21 11 4 -12 -23 -13 3
11 -21 13 7 -10 -25 -12 2
6 -20 9 2 -14 -24 -18 -4
0 -25 13 5 -11 -20 -14 0
-8 -19 18 13 -5 -21 -8 5
-8 -20 11 7 -11 -21 -17 -5
-8 -26 7 3 -16 -20 -21 -6
-8 -21 8 7 -15 -21 -18 -2
-9 -16 7 4 -16 -23 -19 -5
-6 -17 -2 -7 -27 -25 -29 -12
-6 -9 10 1 -16 -23 -15 0
-8 -3 14 7 -12 -24 -12 0
-3 0 6 -4 -19 -26 -22 -7
-1 -1 2 0 -19 -27 -23 -8
-3 -3 8 3 -12 -27 -16 -4
1 -4 -1 -7 -23 -29 -28 -16
-2 -9 -2 -7 -25 -27 -29 -14
-3 -7 2 -6 -21 -26 -22 -10
0 1 -2 -7 -24 -28 -26 -13
0 -6 -10 -12 -33 -29 -36 -19
0 1 3 -6 -21 -26 -21 -8
0 9 9 0 -17 -26 -19 -8
0 9 2 -3 -20 -28 -25 -13
3 10 2 -5 -20 -27 -26 -12
5 7 11 5 -11 -27 -16 -5
6 1 0 -2 -23 -32 -29 -17
14 4 -6 -10 -29 -33 -34 -20
9 8 1 -7 -24 -31 -27 -13
0 5 0 -7 -23 -31 -29 -14
3 -1 -8 -14 -30 -30 -35 -20
5 1 2 -6 -21 -28 -22 -9
4 11 5 -2 -19 -31 -22 -10
1 13 1 -6 -21 -31 -26 -14
4 10 -1 -9 -23 -31 -27 -15
6 8 9 1 -13 -30 -17 -8
7 4 4 0 -18 -29 -25 -15
7 0 -1 -7 -22 -29 -29 -16
6 7 2 -4 -20 -29 -23 -12
9 9 -3 -9 -24 -33 -28 -16
12 6 -11 -19 -33 -35 -39 -23
7 15 0 -9 -22 -31 -25 -11
-2 17 2 -6 -19 -30 -23 -12
-7 11 1 -4 -18 -24 -25 -13
-8 9 1 -4 -18 -24 -23 -12
-11 15 11 5 -9 -23 -14 -5
-3 13 1 -3 -19 -28 -26 -17
5 7 -3 -3 -24 -28 -30 -19
3 9 6 0 -18 -27 -20 -11
5 6 1 -6 -23 -31 -27 -16
12 5 -15 -21 -38 -36 -44 -29
14 17 -3 -10 -26 -33 -28 -16
10 18 -1 -5 -24 -35 -26 -15
8 15 -7 -12 -29 -35 -33 -22
4 17 -7 -13 -28 -34 -33 -22
-1 18 5 -2 -18 -30 -22 -13
2 16 -2 -9 -25 -30 -31 -20
12 16 -2 -9 -27 -31 -31 -19
17 13 1 -5 -23 -30 -27 -14
14 11 2 -3 -22 -31 -26 -13
7 8 -5 -10 -29 -31 -32 -18
1 14 5 -2 -20 -29 -20 -8
-1 20 5 -2 -19 -32 -22 -10
1 18 -1 -11 -28 -34 -31 -19
2 15 0 -12 -26 -33 -31 -18
5 17 7 -3 -19 -33 -22 -13
8 10 -2 -7 -27 -34 -32 -22
9 8 -3 -11 -30 -34 -34 -22
2 9 3 -5 -25 -33 -26 -14
4 13 2 -3 -26 -33 -27 -16
5 13 -3 -9 -32 -33 -33 -20
7 17 3 -7 -24 -33 -25 -13
6 23 4 -6 -24 -38 -25 -15
5 19 -1 -11 -30 -40 -33 -21
4 14 1 -10 -29 -36 -32 -19
6 20 9 0 -19 -33 -21 -12
6 19 -2 -9 -30 -37 -33 -25
4 20 -6 -14 -34 -34 -38 -24
5 24 1 -7 -27 -32 -29 -17
6 22 1 -5 -27 -34 -30 -19
12 15 -8 -18 -37 -37 -40 -26
10 17 4 -8 -25 -33 -25 -13
2 14 11 -1 -18 -30 -20 -10
-8 6 10 1 -20 -29 -24 -13
-14 -2 6 -3 -25 -33 -28 -16
-8 -2 12 -1 -19 -32 -22 -13
-2 1 5 -7 -26 -33 -31 -21
5 3 -3 -14 -35 -34 -37 -24
9 9 3 -3 -29 -37 -30 -18
3 11 -3 -9 -33 -40 -36 -25
2 5 -12 -22 -44 -41 -47 -32
5 10 5 -10 -29 -34 -27 -14
-2 8 9 -4 -24 -36 -23 -13
-8 4 2 -9 -29 -37 -32 -20
-10 6 3 -5 -29 -38 -31 -18
-11 5 13 -1 -18 -34 -20 -10
-9 2 4 -7 -26 -35 -32 -19
-5 -1 1 -10 -30 -33 -34 -19
-6 -1 4 -7 -27 -34 -29 -15
-2 2 1 -10 -29 -36 -31 -18
-2 -1 -9 -19 -40 -40 -42 -26
1 9 1 -11 -32 -38 -31 -17
-5 9 7 -5 -27 -39 -26 -15
-11 -1 4 -12 -29 -38 -30 -18
-13 -6 8 -8 -26 -35 -28 -16
-14 -1 17 0 -15 -33 -17 -8
-16 3 5 -9 -25 -36 -29 -18
-11 2 1 -14 -30 -35 -33 -20
-11 0 1 -15 -33 -40 -32 -19
-5 0 -3 -19 -38 -43 -36 -24
-3 -3 -9 -25 -45 -43 -45 -29
-4 5 -2 -21 -38 -42 -36 -23
-4 2 3 -15 -32 -43 -33 -22
-2 -9 1 -17 -33 -40 -37 -24
-4 -11 2 -15 -33 -40 -36 -23
-9 -4 12 -6 -22 -38 -24 -14
-13 -7 4 -12 -29 -40 -34 -22
-10 -11 2 -17 -35 -38 -39 -23
-9 -8 7 -11 -31 -39 -33 -18
-10 -11 4 -14 -33 -40 -34 -21
-6 -11 -6 -25 -44 -44 -46 -29
-5 -5 2 -18 -36 -42 -34 -19
-13 -4 5 -11 -32 -42 -31 -18
-16 -11 5 -10 -31 -38 -34 -21
-13 -16 4 -12 -32 -39 -36 -20
-14 -8 15 -6 -22 -38 -26 -14
-13 -8 7 -12 -30 -39 -36 -22
-9 -19 3 -17 -35 -38 -40 -24
-7 -19 8 -13 -31 -41 -32 -19
-12 -17 8 -13 -31 -41 -32 -19
-12 -21 -3 -23 -40 -41 -42 -27
-7 -13 6 -15 -31 -39 -30 -17
-7 -11 6 -15 -31 -43 -31 -19
-10 -13 1 -20 -36 -43 -38 -26
-14 -14 6 -17 -34 -41 -36 -24
-17 -12 14 -8 -24 -38 -26 -17
-16 -16 8 -10 -29 -38 -33 -22
-16 -20 6 -13 -31 -35 -34 -21
-18 -14 11 -6 -26 -34 -28 -16
-18 -11 12 -6 -25 -35 -27 -16
-11 -9 -1 -18 -39 -41 -42 -27
-4 -2 6 -12 -31 -41 -31 -18
-6 -10 12 -10 -28 -42 -30 -18
-8 -19 9 -12 -30 -39 -34 -22
-8 -17 10 -12 -27 -38 -33 -20
-14 -17 17 -6 -19 -37 -24 -15
-18 -25 4 -16 -31 -41 -38 -27
-19 -32 1 -15 -34 -38 -39 -26
-14 -25 6 -9 -28 -37 -32 -21
-9 -17 7 -12 -29 -36 -31 -20
-15 -22 2 -16 -34 -37 -37 -24
-21 -20 10 -11 -28 -36 -28 -16
-17 -13 13 -9 -25 -39 -27 -18
-15 -19 6 -14 -31 -40 -35 -26
-14 -23 5 -16 -33 -42 -37 -27
-15 -24 14 -5 -22 -38 -26 -19
-9 -28 4 -12 -32 -42 -40 -29
-3 -25 -4 -22 -40 -42 -46 -32
-5 -19 3 -17 -34 -42 -38 -27
-4 -14 2 -15 -34 -42 -39 -28
-4 -16 -3 -21 -39 -42 -43 -31
-6 -17 9 -11 -27 -36 -29 -19
-6 -17 14 -7 -22 -37 -26 -18
-8 -24 12 -6 -23 -35 -30 -20
-9 -24 14 -5 -22 -34 -27 -19
-13 -18 23 2 -13 -32 -18 -13
-12 -23 14 0 -22 -34 -31 -23
-13 -27 10 -8 -25 -31 -34 -23
-17 -22 17 -2 -19 -29 -24 -16
-15 -15 15 1 -19 -30 -25 -17
-10 -12 8 -4 -26 -31 -32 -22
-10 -10 20 1 -18 -29 -19 -12
-4 -9 18 -3 -18 -33 -21 -16
1 -13 13 -7 -22 -36 -30 -22
1 -18 15 -6 -22 -36 -30 -22
1 -15 22 1 -14 -34 -23 -17
1 -18 11 -8 -23 -37 -33 -26
-5 -19 6 -8 -27 -34 -35 -26
-4 -9 10 -5 -20 -30 -26 -17
2 -2 9 -3 -20 -29 -25 -17
3 -3 -5 -17 -32 -33 -38 -27
4 4 3 -14 -24 -32 -27 -17
6 12 5 -10 -21 -34 -25 -17
10 4 2 -13 -22 -34 -28 -20
8 -2 7 -8 -16 -26 -21 -13
0 -2 13 0 -9 -26 -14 -8
-1 -9 5 -7 -17 -29 -25 -18
2 -16 0 -9 -22 -29 -29 -19
3 -12 4 -9 -19 -28 -22 -14
2 -8 5 -9 -20 -28 -22 -14
3 -20 -4 -17 -30 -31 -32 -23
6 -19 4 -12 -23 -31 -23 -15
4 -17 10 -5 -19 -31 -22 -15
6 -20 5 -9 -22 -31 -28 -20
3 -23 8 -8 -19 -30 -26 -18
0 -17 18 1 -10 -30 -15 -10
-2 -20 9 -7 -20 -32 -27 -19
5 -25 4 -10 -28 -34 -33 -22
18 -21 8 -10 -26 -37 -28 -20
16 -21 7 -15 -27 -39 -31 -22
8 -30 2 -19 -34 -38 -37 -27
5 -30 9 -14 -28 -39 -29 -21
0 -26 14 -11 -25 -41 -28 -21
-5 -35 13 -12 -26 -40 -32 -24
-11 -40 17 -9 -24 -37 -30 -23
-8 -36 28 1 -13 -36 -19 -16
-6 -46 17 -7 -22 -38 -31 -26
-1 -47 13 -11 -27 -37 -35 -26
0 -37 19 -7 -22 -38 -27 -21
-3 -38 17 -8 -24 -39 -29 -23
0 -45 10 -15 -31 -38 -37 -29
3 -42 21 -6 -21 -35 -24 -18
-1 -36 23 -3 -18 -34 -24 -20
-4 -35 19 -3 -22 -35 -30 -24
-7 -35 18 -2 -23 -37 -30 -25
-12 -37 22 3 -17 -38 -25 -21
-13 -43 14 -7 -23 -40 -34 -29
-13 -49 9 -14 -29 -39 -38 -30
-6 -44 18 -7 -23 -35 -27 -21
0 -45 19 -6 -22 -36 -26 -20
1 -48 9 -16 -33 -37 -37 -28
1 -40 17 -7 -24 -34 -25 -19
-1 -36 20 -5 -21 -36 -25 -20
-3 -37 16 -8 -24 -36 -31 -25
-1 -38 17 -7 -23 -35 -29 -24
-6 -42 27 0 -13 -34 -21 -17
-8 -47 19 -4 -22 -35 -32 -27
-3 -47 14 -8 -26 -35 -35 -29
1 -40 19 0 -23 -37 -29 -23
1 -39 22 1 -20 -34 -27 -21
2 -40 11 -9 -31 -35 -37 -30
5 -33 18 -6 -24 -36 -28 -23
2 -29 26 -1 -18 -36 -23 -20
-6 -36 24 0 -19 -35 -26 -23
-7 -38 26 -2 -17 -33 -26 -23
-4 -38 34 5 -8 -33 -18 -17
2 -44 21 -4 -19 -37 -32 -28
3 -54 18 -6 -23 -33 -33 -29
1 -50 22 -4 -19 -33 -25 -21
4 -38 21 -5 -20 -34 -27 -22
4 -40 12 -13 -29 -36 -36 -30
6 -39 17 -7 -25 -37 -27 -23
12 -30 23 -2 -21 -41 -24 -23
13 -28 19 -4 -24 -41 -32 -29
15 -42 23 2 -21 -41 -31 -29
15 -50 39 25 -6 -38 -19 -20
13 -62 31 27 -10 -40 -36 -35
9 -69 31 33 -6 -35 -40 -38
0 -71 45 52 12 -27 -26 -27
3 -66 42 55 15 -25 -30 -31
17 -65 27 54 11 -24 -40 -40
28 -55 26 69 28 -13 -21 -24
41 -40 15 71 41 3 -1 -10
64 -29 -7 58 48 24 15 3
81 -11 -31 34 54 50 41 25
93 14 -47 0 66 84 82 59
108 35 -79 -46 66 119 108 82
125 70 -116 -100 70 163 145 114
147 112 -138 -155 83 215 203 165
157 152 -168 -220 75 253 246 203
167 194 -210 -291 59 290 278 235
166 244 -221 -328 74 336 336 284
148 276 -231 -357 85 373 377 318
136 294 -243 -382 86 408 409 343
131 311 -250 -400 94 447 447 371
120 322 -241 -396 111 481 483 395
115 304 -238 -389 122 507 492 392
116 269 -217 -355 145 533 503 388
115 235 -189 -304 165 536 501 374
112 188 -170 -268 158 499 466 337
103 139 -156 -240 130 436 400 285
89 112 -119 -195 122 371 350 249
73 91 -89 -155 109 297 285 200
55 68 -74 -128 83 226 212 145
42 51 -53 -99 68 166 158 106
40 39 -31 -66 60 116 122 81
38 22 -27 -56 37 77 75 49
30 6 -15 -40 30 61 58 39
28 5 -2 -23 34 54 59 42
26 4 2 -12 34 52 56 38
28 -4 -6 -18 22 46 40 25
27 -1 5 -9 27 42 44 28
22 -2 14 -2 30 34 41 25
17 -7 12 -3 22 27 27 12
17 -6 9 0 17 19 18 7
17 -10 22 15 26 15 25 12
14 -23 13 7 15 7 7 -2
14 -24 12 7 12 8 2 -2
9 -26 25 21 20 11 13 9
7 -27 28 19 20 8 10 8
6 -30 19 10 7 3 -3 -3
1 -33 27 17 13 2 5 4
4 -31 31 24 14 -2 5 2
8 -35 28 22 10 -7 -4 -7
4 -38 27 21 8 -10 -10 -12
5 -29 34 30 15 -11 -3 -7
0 -33 28 24 8 -14 -14 -16
3 -37 21 17 0 -15 -20 -20
8 -31 30 25 6 -14 -11 -11
7 -31 30 24 6 -15 -12 -12
5 -34 21 15 -5 -15 -22 -20
8 -26 33 24 7 -13 -7 -8
3 -23 38 30 11 -14 -3 -8
3 -25 30 25 5 -18 -13 -16
1 -29 30 30 6 -15 -12 -15
-6 -30 38 40 15 -14 -4 -8
-8 -39 33 37 9 -14 -14 -17
0 -44 24 25 0 -18 -22 -23
10 -31 30 30 6 -15 -14 -16
9 -24 32 31 8 -15 -12 -15
9 -30 21 20 -4 -17 -23 -24
17 -20 30 26 6 -15 -11 -14
17 -16 34 34 10 -17 -7 -13
19 -20 25 27 2 -21 -19 -24
24 -20 25 25 3 -21 -19 -23
22 -20 33 34 11 -21 -11 -17
19 -26 22 27 4 -23 -24 -27
15 -33 20 25 1 -19 -26 -27
8 -33 26 34 8 -14 -16 -17
6 -27 26 37 8 -14 -15 -17
8 -28 17 26 -1 -14 -24 -24
8 -22 27 29 7 -12 -12 -13
7 -17 34 37 14 -13 -5 -10
7 -20 27 35 10 -15 -13 -19
5 -21 26 36 10 -15 -14 -20
2 -20 37 47 20 -14 -4 -12
0 -28 27 39 14 -14 -16 -22
5 -34 26 38 13 -10 -18 -22
8 -30 31 45 18 -9 -10 -14
11 -24 25 35 12 -14 -16 -20
14 -23 14 25 1 -14 -27 -28
8 -19 26 34 12 -9 -10 -15
1 -13 32 43 20 -8 -4 -10
-1 -10 27 42 17 -9 -9 -17
1 -11 26 45 18 -8 -9 -17
1 -12 37 56 31 -5 3 -8
4 -15 30 51 25 -6 -6 -15
8 -22 23 48 21 -5 -11 -17
12 -20 27 49 26 -3 -4 -10
12 -21 26 48 26 -3 -4 -12
18 -20 15 39 16 -2 -15 -20
16 -19 28 52 28 3 2 -7
14 -15 31 62 31 1 4 -9
16 -11 29 63 32 2 0 -13
19 -14 29 60 33 3 0 -13
14 -13 41 69 44 5 11 -4
10 -21 35 68 44 7 5 -9
11 -29 31 65 41 12 3 -9
17 -29 35 71 47 14 10 -2
21 -31 32 71 44 12 8 -4
22 -41 21 63 34 12 -2 -12
28 -35 34 74 46 18 14 1
29 -27 41 83 54 19 21 5
19 -37 34 82 51 20 13 -1
16 -41 34 83 54 21 14 0
11 -35 44 93 66 26 26 9
17 -40 34 89 61 24 16 -1
25 -45 30 88 59 28 14 -1
22 -39 35 92 67 33 23 7
17 -38 35 94 70 34 25 9
24 -44 24 85 58 34 14 0
27 -35 32 96 68 39 28 11
26 -29 38 106 76 37 34 13
22 -36 34 102 72 38 27 6
17 -40 37 107 78 43 30 11
8 -39 48 120 91 45 43 21
7 -43 39 118 84 45 32 11
15 -40 35 114 84 47 30 11
15 -34 41 122 90 49 39 20
15 -35 40 120 91 50 39 19
17 -41 33 113 83 54 31 15
21 -35 41 127 90 54 44 26
31 -31 45 129 93 51 48 27
35 -40 38 121 86 48 37 15
36 -42 36 120 85 46 32 12
35 -34 45 133 95 46 42 19
30 -38 37 123 87 46 31 11
27 -42 35 124 91 52 34 15
31 -36 42 129 96 55 44 25
28 -35 40 125 93 53 43 23
28 -37 31 115 85 53 34 17
27 -37 43 126 95 57 51 31
26 -37 47 131 95 54 53 29
28 -36 39 123 89 51 43 21
30 -43 37 118 87 49 40 19
28 -41 48 125 95 50 50 27
29 -42 38 113 84 45 35 16
26 -43 29 106 78 45 29 15
18 -44 38 108 83 47 39 26
18 -46 38 104 77 46 39 24
22 -42 27 87 65 44 27 16
21 -34 38 95 70 45 41 28
9 -35 45 99 73 41 47 29
5 -39 40 89 66 37 37 21
9 -45 38 80 61 33 31 18
14 -43 41 78 61 28 34 21
10 -50 36 70 53 26 23 13
5 -56 29 61 46 24 15 11
5 -46 30 55 42 19 16 12
5 -42 32 56 40 18 17 12
4 -46 23 43 28 15 5 3
4 -43 35 51 34 17 19 14
0 -38 40 51 36 13 22 15
-4 -44 34 41 29 7 11 5
-8 -47 36 41 29 7 11 6
-8 -43 48 48 38 6 21 14
-14 -51 39 38 28 1 6 3
-15 -56 28 30 18 -3 -4 -4
-8 -52 27 26 15 -7 -3 -2
-6 -53 27 20 13 -8 -4 -3
-7 -60 20 12 4 -6 -12 -10
-6 -54 30 23 13 -3 3 2
-6 -48 37 28 18 -5 8 5
-7 -52 31 22 11 -9 -1 -5
-5 -49 28 16 8 -12 -6 -8
-4 -45 38 25 16 -13 3 0
-2 -48 29 17 8 -18 -10 -11
3 -46 21 9 -1 -18 -18 -16
-2 -42 25 15 3 -17 -11 -9
-16 -52 29 15 5 -12 -8 -6
-20 -63 24 12 0 -8 -13 -10
-21 -63 35 21 8 -4 2 2
-23 -55 37 18 8 -10 1 -2
-22 -56 32 13 3 -12 -8 -9
-14 -59 31 16 4 -12 -9 -10
-7 -56 38 22 11 -13 0 -2
-9 -58 31 15 6 -15 -9 -10
-10 -61 24 11 1 -14 -16 -14
-11 -56 29 14 5 -14 -8 -8
-11 -53 26 11 2 -14 -10 -10
-10 -53 17 8 -6 -12 -19 -15
-10 -50 26 15 2 -9 -5 -5
-18 -45 31 16 5 -12 -2 -5
-18 -46 26 14 0 -12 -9 -11
-14 -48 28 15 2 -11 -8 -11
-16 -51 38 18 11 -12 1 -3
-12 -53 32 13 6 -14 -8 -10
-10 -57 23 9 0 -13 -16 -14
-12 -52 30 17 5 -10 -7 -6
-11 -43 30 14 5 -11 -5 -5
-8 -47 19 4 -7 -13 -17 -15
-4 -46 31 15 3 -9 -3 -2
-9 -45 40 20 8 -8 2 1
-16 -51 30 15 2 -11 -7 -8
-14 -52 30 15 5 -10 -6 -8
-16 -48 40 28 14 -10 2 -1
-9 -45 32 20 8 -11 -7 -9
-9 -49 27 13 5 -10 -11 -10
-12 -47 28 13 5 -12 -7 -6
-9 -42 27 11 3 -13 -8 -7
-9 -45 17 3 -5 -12 -15 -13
-7 -42 28 12 5 -8 -1 0
-8 -36 34 19 8 -11 3 1
-13 -41 26 15 2 -13 -7 -9
-11 -51 26 16 4 -11 -7 -8
-11 -54 38 28 15 -7 5 3
-16 -60 29 20 8 -9 -7 -7
-15 -59 23 14 4 -7 -13 -9
-16 -50 29 20 8 -6 -3 -1
-17 -41 28 19 5 -7 -3 -1
-8 -40 16 5 -6 -10 -14 -10
-5 -42 25 15 1 -8 -2 1
-7 -40 31 22 6 -9 1 1
-12 -45 27 18 4 -9 -5 -5
-18 -53 28 19 5 -8 -6 -6
-16 -45 37 24 14 -8 4 2
-13 -46 26 16 5 -12 -10 -11
-15 -51 17 7 -2 -11 -18 -14
-16 -46 24 11 3 -10 -10 -7
-10 -40 22 11 1 -11 -11 -7
-2 -38 13 4 -8 -12 -20 -14
-2 -32 23 11 -2 -11 -7 -4
-3 -27 28 14 2 -14 -4 -4
-14 -31 29 16 3 -10 -5 -4
-22 -38 31 19 7 -8 -2 -1
-19 -37 36 22 11 -12 3 2
-19 -45 26 14 3 -15 -11 -9
-16 -51 20 11 -4 -14 -17 -12
-17 -47 27 16 3 -10 -7 -3
-22 -47 28 16 2 -10 -6 -2
-17 -49 15 5 -9 -10 -17 -10
-7 -38 29 11 0 -7 -1 2
-9 -33 33 16 4 -10 3 3
-12 -36 27 14 0 -11 -4 -4
-14 -37 29 19 4 -9 -2 -3
-15 -36 37 28 12 -9 6 3
-12 -39 24 15 3 -14 -8 -9
-10 -40 19 9 -4 -14 -14 -12
-7 -32 18 10 -4 -16 -12 -9
-8 -28 16 4 -8 -21 -16 -13
-6 -29 1 -9 -22 -27 -30 -25
-2 -24 8 -4 -18 -25 -20 -16
2 -17 13 3 -14 -27 -16 -15
1 -19 8 2 -18 -31 -25 -23
0 -26 13 2 -13 -26 -20 -18
-5 -29 27 15 0 -22 -4 -6
-10 -29 18 9 -8 -24 -18 -15
-16 -30 15 4 -10 -20 -20 -15
-20 -23 18 5 -8 -19 -14 -11
-13 -17 14 3 -13 -22 -18 -14
-9 -26 2 -9 -24 -26 -31 -24
-13 -23 10 -3 -17 -24 -19 -15
-13 -18 15 7 -14 -24 -15 -15
-12 -19 13 8 -17 -25 -21 -19
-10 -17 12 1 -17 -27 -23 -21
-9 -15 23 11 -7 -27 -12 -12
-13 -22 12 4 -16 -31 -25 -23
-7 -26 7 -6 -20 -30 -30 -25
0 -20 13 -1 -14 -28 -23 -17
4 -23 10 -5 -19 -31 -25 -18
4 -22 -3 -16 -32 -35 -37 -29
-7 -16 10 -6 -21 -28 -21 -15
-19 -11 17 2 -15 -25 -14 -11
-16 -12 12 -2 -19 -28 -21 -17
-18 -12 10 -2 -19 -27 -23 -19
-19 -9 22 8 -9 -26 -11 -11
-14 -12 12 1 -17 -31 -23 -21
-15 -14 4 -7 -23 -31 -31 -24
-15 -10 10 -4 -20 -30 -23 -18
-15 -12 12 -2 -20 -30 -21 -16
-14 -17 1 -11 -30 -32 -33 -24
-11 -15 10 -4 -23 -28 -20 -14
-12 -13 12 -3 -23 -32 -19 -16
-12 -12 4 -10 -29 -35 -30 -25
-7 -14 4 -9 -27 -35 -31 -26
-8 -15 13 -1 -18 -34 -21 -19
-10 -19 3 -8 -26 -38 -34 -29
-7 -21 -3 -13 -30 -36 -39 -30
-11 -13 7 -5 -21 -31 -28 -19
-17 -7 11 1 -18 -28 -22 -16
-14 -10 -2 -11 -32 -33 -36 -25
-13 -5 6 -9 -25 -31 -24 -15
-18 -7 14 -2 -19 -28 -17 -11
-21 -15 11 -5 -22 -26 -23 -16
-20 -17 8 -5 -23 -30 -26 -18
-19 -11 13 -1 -18 -34 -21 -15
-14 -8 0 -11 -30 -39 -38 -29
-11 -9 -5 -13 -35 -39 -42 -32
-15 -14 1 -10 -29 -37 -35 -24
-13 -14 4 -9 -29 -37 -32 -22
-7 -16 -6 -17 -39 -38 -42 -29
-2 -12 3 -11 -32 -36 -30 -20
-3 -6 11 -6 -25 -38 -23 -17
-5 -12 7 -5 -30 -40 -30 -23
-6 -13 5 -6 -29 -38 -30 -22
-18 -14 17 3 -16 -34 -17 -12
-28 -18 7 -5 -23 -35 -30 -21
-31 -20 3 -10 -26 -31 -34 -21
-31 -21 9 -3 -19 -28 -23 -13
-28 -23 11 -2 -19 -27 -22 -12
-24 -27 4 -9 -26 -27 -30 -18
-16 -25 15 1 -19 -23 -16 -6
-12 -22 24 11 -11 -21 -8 -2
-13 -27 22 8 -11 -20 -12 -4
-16 -33 22 10 -10 -19 -13 -5
-20 -28 32 20 -1 -17 -3 3
-22 -34 20 7 -9 -21 -17 -9
-19 -48 15 0 -12 -18 -22 -11
-15 -43 22 7 -8 -17 -12 -4
-10 -43 16 2 -13 -22 -17 -9
-12 -49 4 -6 -24 -21 -30 -17
-10 -40 16 5 -14 -16 -13 -4
-7 -34 21 8 -10 -19 -10 -3
-11 -38 20 8 -10 -19 -15 -7
-18 -42 24 11 -6 -15 -11 -5
-22 -34 33 22 3 -14 -2 4
-23 -32 23 14 -3 -16 -12 -5
-30 -43 16 7 -9 -14 -18 -7
-28 -38 17 12 -7 -14 -12 -2
-21 -30 14 8 -8 -15 -11 0
-17 -29 0 -5 -21 -17 -24 -9
-15 -23 7 -2 -14 -14 -11 0
-18 -21 15 6 -7 -12 -3 5
-19 -20 8 1 -12 -16 -14 -3
-11 -19 8 0 -12 -17 -14 -3
-13 -16 15 9 -5 -17 -5 4
-17 -21 5 1 -12 -20 -16 -4
-14 -29 1 -1 -16 -19 -20 -4
-20 -27 7 4 -11 -17 -10 3
-25 -25 7 3 -13 -18 -11 3
-25 -29 -2 -6 -23 -19 -23 -6
-21 -27 5 -2 -19 -17 -14 1
-18 -20 10 5 -16 -19 -9 1
-19 -23 3 -2 -21 -23 -20 -9
-23 -30 9 3 -16 -19 -15 -3
-20 -28 19 10 -5 -17 -3 6
-21 -29 4 -3 -17 -24 -19 -8
-16 -26 -4 -10 -26 -27 -27 -12
-12 -26 3 -4 -22 -27 -19 -6
-7 -31 2 -6 -25 -29 -22 -9
-4 -37 -8 -18 -36 -34 -34 -20
-5 -33 0 -12 -31 -33 -26 -12
-13 -27 8 -5 -26 -32 -22 -10
-20 -34 8 -8 -30 -34 -28 -16
-30 -38 7 -7 -30 -33 -30 -17
-42 -37 19 3 -15 -28 -16 -4
-45 -39 11 -5 -22 -31 -26 -14
-41 -41 4 -11 -29 -30 -33 -17
-41 -38 13 -2 -21 -27 -23 -8
-39 -37 10 -2 -23 -29 -24 -10
-37 -37 -3 -13 -36 -32 -36 -19
-33 -36 5 -9 -30 -30 -25 -11
-33 -35 10 -5 -27 -33 -24 -10
-38 -32 2 -10 -33 -37 -32 -17
-33 -29 0 -12 -34 -37 -35 -19
-29 -24 9 -4 -24 -35 -25 -12
-31 -28 1 -9 -29 -36 -34 -20
-32 -32 -4 -15 -34 -35 -40 -23
-38 -32 6 -8 -27 -32 -29 -14
-44 -33 7 -6 -27 -33 -28 -12
-42 -32 -5 -18 -38 -34 -40 -21
-32 -19 3 -10 -30 -32 -27 -12
-31 -10 6 -7 -28 -36 -24 -12
-31 -19 2 -12 -34 -38 -33 -19
-38 -28 4 -10 -32 -36 -31 -19
-44 -32 12 -2 -24 -38 -23 -13
-37 -32 1 -11 -33 -40 -36 -24
-31 -33 -5 -17 -38 -38 -42 -26
-30 -27 -1 -14 -34 -38 -35 -20
-27 -29 3 -10 -31 -36 -32 -17
-25 -32 -8 -20 -42 -40 -45 -25
-26 -25 1 -13 -34 -36 -31 -15
-27 -18 7 -7 -30 -39 -26 -14
-26 -18 0 -12 -37 -42 -36 -22
-29 -21 0 -14 -36 -41 -36 -22
-29 -17 4 -9 -29 -43 -29 -18
-26 -20 -9 -19 -40 -48 -45 -31
-26 -21 -14 -24 -43 -45 -49 -32
-27 -16 -8 -19 -38 -44 -42 -27
-26 -21 -9 -17 -40 -43 -41 -27
-25 -20 -18 -28 -49 -43 -51 -33
-25 -11 -10 -22 -43 -42 -40 -24
-22 -14 0 -13 -35 -42 -32 -20
-25 -27 2 -8 -31 -37 -32 -19
-31 -24 2 -5 -29 -36 -34 -21
-27 -22 11 9 -20 -39 -29 -18
-23 -30 1 13 -25 -45 -46 -36
-20 -37 -1 19 -19 -40 -52 -41
-22 -38 10 34 -4 -35 -42 -34
-25 -44 11 44 2 -32 -41 -34
-20 -48 0 44 -1 -30 -51 -43
-5 -36 3 59 15 -19 -33 -28
15 -18 -8 54 27 -4 -13 -16
29 -2 -29 42 32 18 1 -4
43 19 -50 17 40 48 30 21
58 44 -67 -19 51 80 72 56
72 65 -98 -66 49 114 99 79
84 95 -130 -113 55 164 139 115
99 137 -152 -166 64 216 198 165
104 175 -187 -233 49 251 236 201
107 209 -231 -311 21 281 261 227
109 255 -248 -349 25 323 312 272
100 298 -257 -375 29 354 350 301
92 323 -275 -408 22 381 370 316
86 338 -284 -424 28 418 404 343
84 351 -277 -421 46 450 438 368
78 349 -275 -414 56 477 446 364
72 316 -257 -381 82 507 458 361
68 272 -222 -329 111 518 465 355
61 221 -197 -286 115 493 438 326
53 171 -185 -260 87 429 371 272
48 146 -151 -215 78 361 319 234
38 129 -121 -174 69 289 261 187
21 100 -106 -150 47 217 186 131
6 80 -87 -119 37 165 135 95
-11 70 -56 -76 43 125 113 82
-21 54 -45 -58 29 88 74 55
-20 41 -39 -48 18 63 49 39
-23 36 -26 -32 20 51 47 38
-19 38 -23 -26 20 49 43 35
-10 32 -34 -35 5 40 24 19
-8 32 -25 -27 7 35 27 23
-8 32 -16 -17 9 27 26 20
-11 18 -15 -13 8 22 15 11
-11 11 -16 -11 5 17 6 5
-10 17 -4 1 13 10 11 10
-18 7 -11 -4 5 4 -5 -3
-17 -2 -12 -6 0 3 -12 -6
-15 6 -3 2 5 1 -3 1
-17 6 -4 0 1 -5 -9 -3
-17 -2 -14 -10 -12 -8 -23 -13
-17 2 -2 1 -4 -7 -10 -2
-17 8 2 6 -3 -14 -8 -5
-20 3 -3 4 -8 -18 -18 -14
-21 -7 -2 7 -7 -17 -20 -14
-15 -1 11 20 2 -17 -11 -6
-15 0 3 13 -4 -21 -25 -17
-16 -9 -1 8 -10 -21 -31 -19
-22 -12 5 15 -5 -22 -21 -12
-28 -9 5 13 -7 -23 -22 -12
-21 -6 -7 0 -19 -24 -34 -23
-19 5 4 8 -11 -22 -20 -10
-27 10 10 16 -4 -22 -13 -8
-28 8 6 15 -7 -21 -21 -15
-30 6 3 15 -8 -23 -25 -19
-32 11 8 24 -2 -26 -19 -13
-32 4 0 19 -8 -29 -30 -23
-20 0 -11 7 -18 -29 -41 -29
-15 4 -7 7 -16 -29 -34 -23
-13 7 -7 6 -16 -30 -33 -23
-14 5 -16 -1 -25 -28 -44 -31
-9 10 -2 11 -13 -22 -26 -15
-14 15 5 19 -6 -23 -18 -12
-19 11 0 15 -11 -24 -27 -20
-22 9 -1 18 -10 -24 -27 -21
-30 7 10 30 3 -21 -16 -11
-38 -2 5 25 -1 -20 -26 -19
-34 -3 -2 18 -8 -21 -33 -23
-27 4 -2 17 -6 -21 -28 -18
-25 11 -2 16 -6 -20 -27 -18
-19 5 -14 5 -17 -21 -38 -26
-7 9 -7 14 -11 -20 -27 -18
-6 16 1 20 -2 -22 -20 -14
-11 15 -4 17 -6 -22 -28 -22
-15 19 -2 24 -3 -19 -26 -20
-19 26 11 40 9 -18 -14 -11
-23 23 1 27 2 -23 -26 -21
-19 22 -8 16 -7 -22 -35 -26
-17 23 0 23 2 -20 -22 -16
-18 15 0 24 4 -16 -22 -16
-15 -1 -11 15 -7 -14 -35 -24
-19 0 0 26 4 -8 -17 -11
-20 8 10 36 14 -8 -6 -5
-16 4 3 32 8 -10 -15 -14
-12 1 0 30 6 -13 -20 -17
-13 7 13 44 20 -9 -5 -6
-12 10 5 36 14 -11 -17 -16
-5 9 -3 31 7 -9 -23 -19
-3 12 4 38 15 -6 -12 -10
-10 15 0 35 13 -7 -15 -12
-11 12 -10 26 2 -6 -27 -22
-9 15 4 38 14 1 -9 -8
-8 15 8 44 19 -2 -6 -8
-7 16 1 40 13 -4 -16 -18
-3 10 1 43 16 -4 -17 -19
-5 18 12 55 29 -2 -5 -9
-9 20 4 53 27 -1 -12 -16
-11 18 -3 50 24 3 -15 -17
-12 19 6 57 33 9 -3 -5
-10 19 6 60 34 11 -1 -4
-3 18 -10 45 20 8 -16 -16
-1 25 -2 49 28 11 -2 -5
-5 27 7 63 38 14 7 0
-8 24 1 62 35 15 -1 -8
-9 17 1 66 38 17 0 -7
-11 10 12 79 52 20 13 4
-9 6 7 76 51 23 7 -2
-7 9 2 71 48 25 2 -4
-3 20 5 77 55 27 10 3
-2 24 8 81 58 30 14 5
-3 23 -2 72 50 30 5 -3
-2 29 6 81 57 33 17 8
0 31 13 88 63 32 24 10
0 23 5 82 57 30 12 -1
1 23 5 87 61 34 12 0
-1 26 19 100 74 37 27 12
-1 26 8 92 67 34 14 1
3 20 3 90 65 36 9 -1
13 25 6 93 69 37 17 6
17 29 5 94 69 36 18 6
14 28 -4 87 60 36 9 -2
12 31 5 93 69 40 23 10
11 41 10 99 72 39 28 11
8 39 6 96 68 37 20 4
8 38 2 95 68 37 15 0
9 46 13 107 79 38 28 10
8 36 5 102 74 37 17 2
15 21 -1 97 70 41 12 1
19 22 4 102 74 42 20 9
13 21 5 105 73 43 22 9
19 25 -4 93 64 43 12 3
22 28 6 98 71 45 25 14
18 36 11 103 73 42 30 15
13 37 5 95 66 39 21 7
3 31 5 90 65 39 20 7
-4 35 17 98 73 39 30 17
-2 34 5 86 62 34 17 6
2 29 -4 73 51 31 6 1
-1 33 1 74 55 32 14 10
-6 31 3 74 51 30 16 10
-6 22 -8 60 38 27 3 1
3 28 -3 58 40 24 11 8
7 36 1 56 39 16 14 7
7 38 -5 48 29 13 2 -2
2 33 -1 50 30 12 3 0
-3 36 10 52 36 9 12 8
-3 33 0 38 24 3 -4 -4
-10 23 -7 31 14 1 -14 -9
-13 23 -3 32 15 0 -8 -2
-13 29 0 27 12 -1 -6 -3
-16 24 -11 17 -2 -4 -20 -11
-16 31 -1 20 2 -4 -8 -2
-16 32 4 21 4 -9 -4 -2
-16 27 -5 13 -6 -16 -18 -13
-16 30 -5 8 -9 -20 -21 -16
-14 34 5 15 -1 -22 -12 -10
-13 31 -4 4 -10 -26 -25 -20
-18 22 -9 -3 -17 -25 -32 -23
-25 16 -1 1 -11 -22 -23 -13
-20 20 -1 -1 -13 -21 -21 -13
-14 21 -12 -13 -25 -24 -35 -21
-17 27 -7 -11 -22 -23 -26 -14
-22 29 0 -4 -18 -25 -20 -12
-25 19 -4 -6 -22 -27 -29 -19
-15 13 -8 -11 -27 -32 -35 -24
-9 18 4 0 -16 -31 -23 -15
-13 15 -5 -9 -23 -34 -34 -25
-10 11 -14 -18 -30 -35 -43 -30
-15 16 -9 -14 -27 -34 -36 -24
-22 19 -9 -15 -29 -34 -36 -25
-17 16 -20 -28 -42 -37 -49 -35
-21 15 -10 -15 -33 -35 -36 -24
-25 24 -6 -12 -30 -37 -32 -24
-21 30 -13 -18 -35 -39 -42 -31
-24 24 -11 -17 -30 -36 -39 -28
-24 24 3 -3 -17 -32 -24 -17
-24 12 -3 -7 -21 -34 -34 -26
-21 2 -11 -13 -28 -34 -43 -30
-18 10 -4 -12 -23 -32 -33 -23
-15 17 -4 -13 -24 -33 -31 -22
-13 15 -18 -23 -36 -34 -44 -32
-18 21 -9 -11 -28 -29 -30 -21
-26 26 -4 -9 -24 -33 -26 -20
-30 22 -10 -14 -29 -32 -34 -26
-30 18 -9 -14 -27 -33 -35 -27
-25 24 -2 -7 -20 -34 -27 -22
-23 19 -8 -12 -24 -35 -36 -30
-21 14 -15 -19 -32 -36 -43 -34
-20 15 -6 -11 -24 -30 -31 -22
-19 12 -1 -8 -20 -28 -26 -19
-21 5 -12 -16 -31 -29 -39 -28
-19 14 -5 -13 -26 -29 -29 -21
-19 23 0 -8 -24 -33 -25 -20
-17 18 -10 -17 -31 -37 -38 -30
-15 15 -9 -17 -30 -36 -38 -30
-22 17 3 -7 -20 -34 -28 -21
-29 11 -7 -12 -24 -34 -38 -30
-27 8 -12 -17 -29 -31 -43 -32
-24 12 -8 -14 -25 -30 -34 -25
-25 17 -7 -13 -24 -30 -32 -23
-26 12 -15 -22 -33 -31 -41 -31
-21 13 -7 -13 -26 -29 -30 -22
-14 21 -1 -10 -21 -32 -25 -20
-11 17 -8 -15 -29 -37 -38 -32
-8 17 -13 -14 -33 -39 -41 -35
-10 20 0 -3 -18 -34 -28 -22
-22 12 -6 -8 -22 -33 -38 -30
-25 9 -13 -16 -30 -33 -45 -34
-15 20 -7 -13 -27 -34 -38 -27
-4 23 -10 -14 -27 -35 -38 -29
-7 15 -18 -22 -36 -36 -47 -36
-17 16 -7 -15 -26 -30 -31 -23
-28 17 4 -5 -15 -26 -20 -15
-32 12 2 -7 -17 -25 -24 -18
-29 13 1 -8 -18 -25 -26 -21
-26 18 10 2 -8 -23 -15 -12
-26 13 0 -3 -15 -27 -28 -22
-27 4 -9 -8 -22 -26 -37 -27
-27 13 -3 -4 -18 -25 -27 -19
-28 21 -7 -12 -21 -28 -29 -21
-30 18 -16 -19 -32 -30 -39 -29
-26 22 -6 -13 -24 -28 -27 -19
-18 28 -3 -11 -23 -34 -24 -20
-10 24 -10 -16 -29 -37 -34 -30
-7 16 -7 -14 -28 -37 -34 -30
-9 20 2 -6 -18 -37 -26 -23
-19 14 -3 -10 -21 -36 -33 -29
-27 5 -9 -14 -25 -32 -39 -32
-23 18 -4 -13 -22 -31 -31 -24
-20 22 -6 -10 -23 -32 -30 -23
-18 16 -21 -22 -38 -35 -46 -36
-8 23 -14 -21 -33 -34 -38 -28
-5 27 -7 -16 -26 -36 -29 -25
-12 17 -10 -14 -28 -35 -34 -31
-26 17 -2 -5 -21 -29 -28 -25
-31 21 8 2 -11 -28 -16 -15
-24 20 -1 -6 -18 -32 -29 -26
-16 13 -12 -16 -28 -34 -40 -32
-23 19 -6 -10 -25 -33 -32 -26
-36 20 -1 -5 -19 -28 -27 -21
-38 3 -12 -19 -29 -27 -39 -30
-31 8 -6 -13 -26 -26 -28 -20
-30 17 3 -6 -19 -28 -19 -17
-27 16 -4 -13 -25 -31 -30 -26
-23 19 -4 -13 -25 -30 -30 -28
-23 12 8 0 -14 -30 -18 -18
-25 0 -1 -9 -21 -33 -30 -28
-16 -5 -9 -18 -29 -35 -38 -33
-6 3 -2 -14 -24 -34 -30 -25
-5 5 -3 -15 -26 -36 -31 -25
-6 4 -14 -27 -40 -38 -43 -34
-9 9 -4 -19 -32 -33 -31 -22
-23 12 7 -5 -20 -30 -19 -16
-33 1 5 -4 -20 -28 -23 -19
-32 1 5 -3 -20 -27 -24 -20
-34 11 16 7 -9 -25 -12 -10
-32 4 5 -4 -18 -32 -26 -22
-20 -5 -5 -15 -29 -34 -38 -28
-16 -1 2 -11 -23 -33 -28 -20
-17 -2 2 -11 -23 -34 -27 -20
-14 1 -7 -19 -32 -33 -37 -28
-24 2 3 -11 -24 -27 -24 -17
-30 5 11 -4 -18 -28 -16 -13
-21 4 2 -12 -26 -34 -28 -23
-16 1 -3 -15 -31 -37 -34 -30
-16 3 8 -5 -22 -36 -24 -19
-19 0 3 -11 -24 -36 -31 -26
-25 -8 -6 -18 -32 -36 -39 -30
-26 -7 4 -6 -22 -30 -26 -18
-24 -5 8 -6 -20 -29 -22 -15
-26 -4 -4 -21 -32 -33 -35 -25
-30 -5 6 -13 -25 -27 -22 -14
-30 -6 12 -5 -19 -28 -16 -11
-20 -9 4 -11 -26 -32 -27 -21
-19 -9 2 -14 -28 -33 -31 -23
-19 -1 7 -9 -23 -37 -24 -18
-16 1 -4 -19 -32 -44 -39 -31
-15 -7 -10 -21 -39 -42 -46 -34
-16 -6 -1 -7 -28 -37 -33 -22
-17 -7 3 -7 -24 -35 -28 -20
-18 -10 -7 -22 -35 -35 -40 -28
-16 -4 3 -10 -28 -30 -27 -16
-21 0 14 0 -17 -30 -14 -9
-30 -5 12 -4 -18 -29 -20 -13
-29 0 12 -5 -20 -29 -22 -14
-27 3 17 2 -14 -32 -16 -11
-24 2 4 -9 -24 -37 -30 -24
-17 -5 -5 -18 -33 -38 -39 -29
-20 -10 0 -14 -28 -38 -30 -22
-18 -6 4 -14 -27 -37 -28 -20
-14 -9 -3 -18 -35 -35 -35 -24
-15 -7 5 -12 -28 -31 -24 -14
-17 -4 16 -2 -17 -30 -15 -9
-19 -9 9 -5 -23 -33 -24 -16
-19 -11 7 -9 -25 -35 -26 -19
-23 -6 15 -1 -15 -34 -16 -12
-25 -6 3 -11 -26 -41 -32 -24
-18 -10 -7 -22 -37 -42 -43 -30
-12 -10 3 -13 -30 -40 -31 -21
-13 -7 -1 -19 -33 -44 -36 -25
-12 -6 -8 -25 -40 -39 -44 -29
-10 1 4 -12 -28 -32 -26 -15
-10 7 11 -6 -21 -34 -20 -13
-9 3 7 -12 -25 -36 -28 -19
-12 -3 9 -12 -24 -35 -27 -18
-12 -1 18 -3 -14 -33 -17 -12
-12 -2 8 -8 -20 -36 -28 -21
-16 -6 1 -15 -27 -34 -36 -24
-22 -4 13 -5 -14 -28 -19 -10
-24 -6 13 -4 -15 -27 -20 -11
-18 -6 -6 -19 -32 -31 -40 -27
-12 -1 5 -12 -26 -28 -27 -14
-15 7 15 -5 -17 -29 -18 -10
-18 7 11 -6 -19 -30 -25 -17
-12 7 11 -8 -21 -33 -26 -19
-10 10 15 -2 -15 -34 -19 -12
-10 7 9 -9 -19 -36 -27 -19
-5 2 2 -16 -25 -34 -32 -20
4 6 2 -17 -24 -35 -26 -14
3 9 0 -19 -25 -34 -24 -14
-1 9 -11 -29 -33 -31 -33 -20
-1 11 -1 -20 -22 -24 -19 -6
-4 12 8 -9 -14 -23 -10 0
-3 10 1 -12 -18 -26 -19 -8
3 8 0 -12 -19 -29 -20 -9
3 11 10 -6 -12 -31 -12 -3
-1 10 2 -12 -21 -36 -23 -12
0 6 -5 -19 -26 -33 -28 -15
-3 5 5 -14 -20 -30 -17 -4
-5 0 9 -10 -17 -26 -13 -1
-8 -5 -3 -18 -26 -27 -25 -11
-5 3 1 -15 -22 -27 -17 -5
-8 6 9 -8 -16 -29 -11 -3
-6 3 0 -14 -25 -33 -23 -13
-4 -3 -2 -16 -28 -36 -28 -16
-4 -4 7 -8 -20 -37 -18 -9
-7 -5 -1 -15 -29 -41 -30 -17
-6 -12 -5 -22 -35 -39 -35 -19
-8 -11 7 -14 -26 -35 -21 -9
-12 -7 7 -12 -26 -35 -22 -8
-15 -7 -4 -21 -38 -38 -36 -18
-22 -10 2 -17 -34 -38 -28 -12
-22 -7 12 -9 -27 -40 -23 -9
-14 -13 4 -15 -35 -46 -35 -20
-10 -18 3 -19 -37 -47 -37 -23
-4 -12 12 -12 -27 -45 -27 -14
-6 -10 8 -14 -30 -44 -34 -20
-7 -16 2 -19 -36 -42 -39 -23
-6 -16 11 -11 -29 -41 -28 -14
-9 -16 8 -11 -30 -43 -29 -15
-11 -17 -6 -29 -44 -46 -44 -26
-8 -7 3 -22 -37 -44 -32 -16
-12 -2 12 -15 -30 -45 -24 -12
-8 -9 6 -18 -34 -45 -31 -18
-9 -13 5 -20 -36 -45 -33 -20
-16 -20 15 -9 -26 -45 -23 -12
-15 -20 9 -9 -32 -47 -33 -20
-6 -19 -4 -24 -43 -50 -46 -29
-4 -12 6 -21 -37 -47 -34 -18
-11 -13 10 -17 -33 -45 -29 -15
-14 -16 -1 -24 -44 -46 -40 -23
-12 -9 9 -18 -35 -43 -27 -12
-12 -6 17 -10 -28 -45 -19 -8
-13 -9 8 -19 -36 -48 -31 -19
-13 -8 9 -18 -36 -48 -33 -20
-13 -7 16 -10 -28 -48 -25 -13
-12 -8 7 -16 -37 -52 -37 -24
-10 -14 0 -25 -42 -51 -46 -28
-12 -15 11 -17 -35 -46 -34 -17
-15 -17 12 -18 -33 -44 -31 -14
-15 -14 1 -26 -42 -45 -43 -23
-12 -11 8 -18 -36 -43 -32 -14
-14 -6 20 -8 -26 -43 -21 -8
-19 -9 12 -13 -32 -46 -31 -17
-16 -8 10 -15 -36 -47 -34 -21
-6 -2 17 -13 -28 -49 -26 -14
-5 -6 7 -18 -36 -52 -38 -25
-8 -13 0 -25 -42 -51 -45 -27
-7 -3 6 -19 -37 -49 -34 -18
2 3 -1 -26 -42 -54 -40 -25
1 -4 -8 -30 -50 -52 -48 -30
-3 -9 4 -19 -37 -45 -35 -17
-4 -2 14 -6 -26 -45 -25 -13
-10 -10 13 -3 -28 -48 -34 -22
-9 -21 14 1 -27 -51 -40 -28
-4 -24 30 26 -7 -46 -26 -18
-3 -31 26 34 -3 -45 -33 -27
8 -34 16 31 -7 -44 -46 -36
18 -26 22 53 8 -40 -34 -27
21 -24 15 60 17 -32 -30 -25
36 -18 -13 41 12 -16 -32 -26
51 -2 -19 32 30 10 2 3
65 21 -29 13 43 34 37 29
78 42 -56 -31 40 61 58 47
92 64 -83 -74 41 92 88 73
101 97 -101 -112 51 132 137 114
104 133 -136 -175 46 173 173 145
115 173 -177 -250 26 209 201 175
128 224 -202 -304 20 245 248 220
131 258 -230 -348 17 283 286 253
126 280 -263 -395 8 318 308 274
111 307 -267 -412 20 356 353 312
98 329 -268 -423 32 390 393 342
92 337 -279 -436 35 423 410 352
88 350 -278 -430 49 451 430 360
86 337 -252 -389 86 483 456 371
85 291 -233 -341 117 507 458 356
85 243 -212 -297 129 502 437 331
77 204 -177 -247 132 460 407 306
67 169 -150 -211 116 394 352 262
57 136 -137 -188 86 319 275 205
47 117 -106 -150 73 247 217 166
33 99 -73 -109 66 186 172 130
25 77 -61 -89 45 129 114 87
15 61 -43 -67 30 86 79 64
8 52 -20 -43 29 57 67 56
8 42 -17 -37 21 40 44 39
9 36 -20 -36 13 37 31 30
13 36 -12 -26 18 34 38 36
15 33 -10 -21 16 28 32 29
13 25 -12 -21 8 24 19 19
11 20 -5 -14 10 18 21 23
6 20 5 0 15 11 24 23
6 17 1 -6 7 2 8 8
8 11 0 -5 3 -3 0 4
7 9 15 7 13 -3 11 13
0 7 9 3 6 -8 -1 3
2 5 1 -4 -4 -12 -13 -3
2 8 14 8 5 -11 1 8
0 6 12 9 2 -15 -4 3
5 1 -2 -5 -13 -18 -22 -10
5 4 11 5 -3 -15 -7 3
1 9 24 17 7 -17 3 7
-2 1 17 16 0 -20 -11 -5
-1 -2 16 14 -2 -23 -16 -8
1 4 26 23 6 -22 -6 -1
2 1 18 16 0 -27 -17 -10
-3 -8 6 5 -11 -28 -28 -17
-6 -6 14 12 -5 -24 -18 -7
-9 -2 17 15 -4 -24 -16 -4
-6 -1 7 3 -14 -26 -30 -15
-5 2 16 13 -5 -23 -15 -4
-2 5 26 24 4 -23 -6 -1
-1 -3 22 23 0 -23 -15 -7
-3 -7 19 23 -2 -26 -19 -10
2 -3 25 27 4 -26 -12 -5
3 -7 19 22 -2 -29 -21 -13
2 -5 7 10 -13 -30 -32 -19
-10 4 15 15 -6 -25 -21 -8
-20 6 19 18 -2 -22 -16 -4
-14 3 6 7 -13 -27 -30 -16
4 5 9 9 -10 -28 -23 -10
10 2 23 22 1 -27 -11 -4
3 -10 19 21 -1 -25 -19 -11
0 -15 21 25 3 -24 -20 -10
2 -9 32 37 14 -21 -6 2
3 -6 21 31 5 -26 -18 -9
4 -8 13 20 -4 -25 -26 -13
1 -6 17 24 1 -23 -17 -5
3 -3 18 25 1 -22 -17 -5
4 -5 10 16 -6 -21 -28 -13
6 -1 17 22 1 -18 -16 -4
9 8 28 36 13 -17 -4 2
6 2 21 31 8 -19 -15 -8
4 -2 21 33 9 -18 -14 -8
2 4 33 47 19 -15 1 2
-3 -2 26 40 16 -16 -8 -5
2 -8 15 34 7 -16 -19 -11
8 -3 22 39 14 -12 -7 0
10 -5 19 34 13 -14 -9 -3
10 -8 5 21 1 -14 -22 -13
12 1 16 34 11 -9 -8 0
10 9 22 39 17 -12 -2 1
7 1 19 39 16 -11 -9 -6
4 -4 19 42 19 -10 -9 -6
4 6 30 52 30 -8 3 2
5 7 24 50 26 -8 -5 -4
8 2 12 39 16 -11 -17 -12
8 9 17 42 22 -7 -6 -2
8 8 19 44 25 -5 -4 -2
12 -3 10 37 16 -3 -14 -9
15 -3 20 48 26 1 -1 2
8 0 31 62 38 5 11 8
9 -7 23 56 32 2 -2 -2
15 -9 19 55 31 -2 -6 -6
17 -1 29 66 41 0 6 2
22 1 22 61 38 -1 -2 -6
23 -6 13 54 31 1 -9 -9
21 -2 21 63 40 7 5 4
23 5 25 67 44 12 10 6
24 8 15 58 37 11 -2 -3
20 9 23 67 45 16 11 7
16 10 32 80 55 17 20 11
17 6 23 75 48 14 7 -1
21 -3 25 81 54 18 9 3
20 -4 37 95 67 24 25 15
23 -5 30 94 63 21 16 6
31 -10 19 83 54 20 5 0
38 -2 23 88 59 22 14 8
37 3 29 92 63 26 19 11
33 4 21 85 58 28 12 4
32 13 24 91 65 31 21 13
20 19 36 107 79 35 35 21
11 12 29 106 76 36 24 11
16 12 27 108 77 36 23 11
16 12 42 123 90 42 38 24
16 -2 36 119 86 40 31 15
26 -9 23 107 78 41 19 9
30 -2 30 112 84 43 31 19
24 5 30 113 86 44 33 19
24 7 20 105 77 45 22 12
27 15 30 114 86 50 35 24
27 21 39 126 97 50 46 29
23 12 32 124 91 47 35 19
25 5 32 123 92 48 34 20
22 5 45 135 105 54 50 33
20 7 35 127 97 49 38 22
27 5 21 113 84 47 24 15
37 8 24 115 87 46 33 23
34 5 23 112 86 46 33 22
36 10 14 100 75 43 20 13
37 16 21 106 80 45 32 23
33 18 31 111 86 43 42 27
36 12 27 105 80 42 32 20
36 10 27 103 78 41 33 21
28 13 37 108 86 42 44 31
21 4 32 100 79 40 35 23
14 -5 22 86 67 39 24 18
13 5 28 87 69 40 34 27
10 9 30 81 65 38 33 27
11 6 19 68 52 33 18 16
18 8 26 71 53 30 27 25
19 9 35 73 56 26 32 26
21 7 25 61 44 17 16 12
21 9 24 55 40 12 13 12
19 12 33 58 44 10 22 17
18 9 22 46 33 2 8 5
14 -3 10 33 19 1 -4 0
9 4 15 31 20 2 4 7
11 10 16 26 16 -1 2 6
10 -4 5 14 3 -6 -12 -5
7 -8 13 17 6 -6 -5 4
0 -2 24 26 14 -7 5 8
3 -4 16 19 5 -11 -9 -3
4 -4 19 19 6 -12 -7 -1
-1 2 32 28 16 -11 6 8
-10 -4 25 22 9 -15 -3 -1
-4 -9 12 7 -5 -18 -18 -9
-1 -4 14 6 -4 -19 -11 -3
3 -2 15 4 -5 -20 -12 -3
10 -8 0 -11 -20 -25 -30 -17
10 -9 5 -9 -18 -26 -22 -10
5 -1 18 6 -6 -23 -8 -3
1 -2 13 2 -11 -24 -18 -11
3 -4 12 -1 -12 -25 -21 -13
2 0 22 6 -4 -26 -10 -5
-1 -8 16 3 -8 -28 -17 -13
2 -12 4 -7 -19 -28 -29 -19
1 -10 15 1 -9 -22 -13 -6
-8 -8 19 4 -6 -18 -9 -1
-12 -5 8 -5 -16 -21 -22 -11
-8 2 10 -4 -14 -23 -17 -6
-8 9 17 2 -8 -24 -10 -4
-7 4 10 -3 -15 -28 -23 -16
-4 -6 10 -3 -14 -28 -22 -15
1 -10 25 10 -1 -22 -6 -2
-2 -12 20 6 -5 -24 -13 -10
-5 -18 7 -7 -16 -25 -26 -17
-1 -15 16 2 -7 -21 -12 -4
4 -10 15 1 -10 -24 -13 -7
8 -11 3 -11 -23 -27 -28 -18
5 -3 9 -7 -16 -23 -18 -8
-4 5 19 1 -7 -23 -9 -4
-9 1 12 -2 -13 -24 -20 -14
-10 -1 15 2 -9 -20 -16 -10
-11 -3 21 7 -2 -22 -9 -5
-11 -12 13 1 -10 -26 -20 -14
-2 -14 2 -11 -20 -26 -31 -21
1 -6 6 -6 -15 -24 -21 -12
-2 -4 13 -3 -11 -21 -16 -8
-7 -8 5 -10 -18 -21 -26 -14
-8 -2 11 -2 -11 -18 -15 -6
-5 0 20 7 -4 -20 -6 -4
-3 -7 9 -3 -15 -25 -23 -17
-1 -11 11 1 -14 -25 -23 -17
-9 -7 20 8 -3 -23 -10 -7
-11 -8 12 0 -9 -24 -20 -15
-6 -8 2 -8 -19 -24 -31 -20
-3 -6 8 -5 -14 -22 -20 -11
0 -7 11 -3 -11 -21 -18 -10
1 -14 2 -9 -19 -22 -28 -18
4 -8 9 -4 -13 -19 -18 -9
3 0 22 6 -2 -19 -6 -3
1 0 14 2 -9 -23 -19 -14
3 -2 11 1 -11 -24 -21 -15
5 0 20 10 -3 -24 -11 -7
-3 -4 12 1 -8 -26 -20 -15
-7 -9 1 -9 -17 -25 -31 -21
-14 -7 13 2 -7 -18 -15 -8
-14 -4 15 2 -6 -17 -13 -6
-12 -5 9 -1 -11 -16 -20 -11
-7 -2 15 5 -6 -14 -11 -3
-4 4 25 11 2 -15 -2 2
-3 -4 17 3 -5 -20 -14 -9
-4 -9 15 2 -7 -22 -16 -11
-4 -8 24 11 2 -20 -5 -3
-5 -11 16 3 -5 -24 -16 -13
2 -11 0 -10 -19 -26 -32 -23
5 -6 8 -3 -13 -24 -20 -12
-2 -6 7 -4 -14 -25 -20 -12
-3 -6 -3 -12 -24 -25 -32 -22
0 1 5 -6 -16 -21 -20 -11
1 2 16 4 -6 -22 -10 -6
1 -7 11 1 -9 -23 -19 -14
0 -8 12 3 -8 -22 -18 -12
-1 -4 21 12 0 -22 -8 -7
-7 -5 15 4 -6 -26 -16 -14
-10 -15 2 -8 -19 -26 -29 -22
-9 -15 11 0 -11 -20 -17 -10
-8 -14 11 1 -12 -21 -16 -11
-8 -13 -1 -11 -23 -24 -31 -21
-3 -8 4 -8 -18 -21 -22 -13
-2 -3 15 1 -9 -23 -13 -9
-6 -8 9 -2 -13 -25 -22 -18
-11 -11 14 6 -9 -21 -17 -14
-9 -9 24 11 -1 -20 -7 -6
-4 -6 15 4 -7 -24 -17 -15
-1 -10 7 -4 -17 -23 -26 -19
-4 -11 13 0 -12 -21 -15 -10
-6 -14 13 -1 -12 -21 -15 -10
-5 -22 2 -8 -21 -22 -27 -19
-8 -20 12 -1 -13 -16 -16 -9
-13 -12 25 8 -1 -15 -3 -1
-16 -11 14 0 -10 -21 -16 -13
-12 -12 14 1 -12 -21 -18 -14
-10 -10 24 8 -3 -21 -7 -6
-7 -13 15 1 -10 -25 -17 -16
-5 -22 7 -7 -19 -24 -27 -20
-8 -18 17 2 -11 -21 -13 -7
-9 -14 17 1 -11 -22 -14 -9
-10 -14 6 -9 -21 -24 -27 -17
-10 -16 10 -7 -19 -23 -21 -12
-7 -6 18 2 -11 -24 -12 -8
-6 -8 10 -5 -17 -29 -25 -19
-3 -10 5 -9 -22 -32 -30 -23
-2 -7 13 -2 -15 -32 -20 -17
-11 -16 9 -4 -17 -31 -25 -22
-16 -21 0 -13 -27 -30 -35 -26
-9 -9 9 -5 -19 -27 -21 -14
0 -1 8 -8 -21 -29 -22 -15
1 0 -3 -17 -32 -31 -36 -25
-3 0 3 -12 -26 -30 -28 -17
-8 8 12 -5 -16 -30 -19 -13
-9 8 3 -12 -25 -34 -32 -24
-11 6 1 -12 -29 -36 -35 -28
-10 7 7 -6 -24 -37 -28 -23
-11 6 0 -13 -27 -39 -35 -29
-13 1 -11 -23 -36 -38 -45 -35
-13 6 0 -12 -27 -33 -30 -22
-10 13 2 -12 -26 -34 -28 -21
-10 15 -12 -25 -39 -40 -44 -34
-8 20 -4 -20 -34 -37 -35 -26
-9 24 9 -8 -21 -37 -22 -19
-13 16 2 -13 -28 -39 -33 -29
-17 17 2 -13 -28 -38 -34 -29
-14 21 5 -10 -25 -40 -28 -26
-10 19 -3 -16 -31 -43 -37 -33
-9 16 -15 -25 -42 -44 -51 -40
-8 22 -3 -17 -33 -39 -34 -26
-8 17 1 -14 -28 -37 -30 -23
-9 5 -13 -24 -42 -41 -45 -34
-1 10 -5 -19 -37 -38 -36 -25
-3 26 8 -10 -25 -39 -23 -18
-9 27 0 -16 -31 -42 -34 -29
-10 24 0 -14 -31 -41 -36 -28
-11 25 7 -4 -25 -41 -27 -23
-16 23 -3 -12 -32 -46 -39 -34
-13 20 -15 -26 -44 -46 -52 -42
-10 22 -6 -22 -38 -44 -39 -31
-10 26 -9 -26 -40 -46 -41 -34
-5 19 -17 -31 -48 -47 -53 -41
0 11 -7 -21 -41 -43 -43 -30
2 13 8 -11 -26 -40 -29 -21
0 9 1 -14 -32 -42 -37 -29
-3 9 0 -14 -32 -42 -39 -31
-4 12 8 -4 -24 -40 -28 -23
-13 2 1 -11 -30 -43 -36 -31
-17 -3 -8 -22 -40 -41 -47 -36
-15 -2 2 -15 -30 -36 -32 -23
-15 -5 1 -15 -33 -38 -33 -25
-13 -9 -9 -23 -41 -38 -45 -33
-9 -11 0 -18 -34 -33 -34 -23
-9 -6 14 -4 -20 -31 -20 -15
-11 -11 8 -9 -26 -35 -31 -26
-10 -21 6 -10 -27 -37 -33 -28
-8 -22 17 -1 -17 -33 -22 -17
-10 -25 15 3 -15 -31 -24 -19
-6 -30 4 -9 -26 -32 -35 -25
-5 -26 11 -4 -20 -28 -24 -15
-6 -25 11 -6 -22 -30 -24 -18
-3 -33 -3 -15 -34 -33 -39 -28
1 -31 5 -6 -25 -27 -28 -18
-4 -22 18 6 -13 -25 -15 -10
-4 -27 12 1 -19 -28 -25 -18
-2 -32 12 -2 -18 -28 -25 -18
-10 -31 27 11 -5 -21 -8 -6
-14 -34 22 8 -8 -21 -14 -11
-13 -38 13 0 -17 -18 -23 -16
-12 -39 24 9 -7 -13 -9 -3
-9 -37 24 7 -8 -15 -10 -6
-8 -40 8 -7 -22 -20 -28 -19
-1 -30 11 -5 -20 -20 -23 -14
3 -20 20 2 -12 -22 -15 -9
0 -17 10 -6 -21 -28 -28 -23
2 -8 6 -9 -24 -32 -34 -27
4 -3 16 2 -14 -30 -22 -19
1 -8 12 -2 -18 -31 -28 -25
-3 -17 4 -6 -26 -28 -37 -28
-2 -14 11 0 -18 -26 -25 -17
2 -7 5 -7 -22 -29 -28 -20
-2 -9 -7 -16 -30 -29 -37 -29
-2 -3 -3 -13 -24 -23 -28 -19
3 8 10 -2 -11 -21 -14 -9
-4 3 4 -8 -15 -21 -23 -17
-9 0 1 -9 -18 -22 -26 -19
-6 3 8 2 -10 -20 -15 -11
-4 3 1 -5 -14 -24 -23 -19
-1 0 -11 -18 -28 -24 -35 -25
0 0 -4 -7 -22 -24 -23 -16
4 -1 -6 -11 -24 -26 -25 -18
7 -4 -13 -22 -33 -28 -35 -26
7 -4 -7 -17 -28 -27 -26 -17
5 -1 7 -4 -16 -26 -14 -10
0 -3 1 -8 -22 -27 -23 -20
-6 -5 -3 -9 -24 -29 -27 -22
-6 -2 4 -3 -18 -30 -19 -16
-3 -7 0 -6 -23 -33 -27 -24
2 -11 -15 -20 -38 -36 -44 -33
0 -5 -7 -17 -32 -36 -32 -23
-4 -15 -3 -16 -31 -35 -29 -20
-4 -22 -13 -24 -41 -37 -42 -32
-2 -15 -2 -12 -30 -30 -28 -19
-8 -11 14 2 -16 -27 -13 -11
-13 -17 5 -8 -25 -33 -28 -23
-16 -24 3 -11 -28 -35 -32 -26
-15 -24 10 -4 -23 -38 -27 -24
-16 -21 3 -9 -31 -43 -37 -34
-13 -22 -12 -26 -44 -45 -51 -44
-11 -23 -4 -20 -37 -41 -41 -32
-13 -26 0 -19 -35 -40 -38 -31
-10 -33 -12 -28 -46 -42 -51 -40
-4 -24 -3 -19 -38 -38 -38 -29
-6 -19 9 -7 -26 -38 -27 -23
-8 -25 1 -14 -35 -43 -40 -35
-6 -25 -1 -16 -37 -43 -42 -36
-8 -23 8 -8 -28 -41 -32 -28
-17 -28 3 -11 -30 -40 -38 -34
-18 -33 -9 -22 -41 -41 -50 -41
-17 -26 -4 -19 -37 -39 -40 -33
-14 -22 -2 -16 -36 -39 -40 -32
-15 -30 -9 -22 -43 -39 -49 -41
-17 -28 -5 -22 -39 -40 -43 -35
-16 -18 9 -10 -27 -38 -29 -26
-15 -23 2 -14 -33 -41 -39 -35
-17 -25 1 -14 -33 -40 -40 -36
-22 -20 12 -5 -24 -39 -29 -26
-26 -26 5 -9 -29 -41 -37 -34
-20 -33 -8 -21 -40 -41 -50 -42
-21 -31 0 -16 -34 -38 -38 -32
-17 -28 1 -12 -35 -37 -38 -31
-10 -31 -10 -24 -44 -40 -50 -41
-9 -28 -5 -19 -41 -39 -43 -34
-13 -25 7 -10 -30 -39 -31 -28
-10 -28 -1 -18 -39 -45 -44 -41
-5 -21 -6 -24 -43 -49 -49 -45
-15 -10 7 -11 -29 -44 -33 -31
-28 -2 1 -16 -33 -46 -41 -39
-25 -2 -16 -32 -49 -49 -58 -51
-19 5 -11 -26 -43 -48 -48 -42
-17 10 -14 -29 -48 -51 -51 -46
-15 9 -27 -40 -59 -54 -65 -59
-16 7 -16 -31 -51 -49 -54 -48
-18 13 -7 -21 -41 -50 -44 -43
-17 15 -15 -26 -48 -51 -56 -52
-17 12 -13 -22 -44 -49 -54 -50
-16 5 1 -8 -30 -46 -40 -40
-15 -4 0 -4 -30 -49 -47 -48
-12 -15 -13 -8 -41 -53 -66 -63
-16 -15 -2 11 -25 -47 -54 -54
-14 -13 2 23 -18 -45 -53 -55
-1 -9 -11 19 -24 -46 -68 -67
7 -6 -6 37 -8 -37 -56 -57
10 0 -1 50 12 -27 -36 -44
24 6 -27 38 12 -13 -34 -43
40 21 -45 21 20 10 -13 -26
51 43 -58 -2 32 36 23 4
65 58 -85 -47 31 65 47 25
82 82 -119 -97 26 100 73 50
91 124 -140 -142 36 145 125 96
105 164 -169 -207 38 188 172 135
115 200 -207 -279 18 220 200 164
123 240 -234 -332 16 261 249 209
124 278 -244 -361 33 303 303 255
115 297 -273 -397 27 335 326 271
107 323 -287 -422 29 369 354 296
102 342 -284 -430 44 407 399 329
101 351 -291 -437 53 439 420 341
104 349 -292 -433 64 471 432 345
106 327 -266 -387 101 504 458 352
99 287 -240 -335 130 516 460 338
90 238 -218 -288 132 498 430 307
82 197 -185 -245 126 443 388 273
67 167 -146 -199 122 374 341 237
48 141 -129 -169 95 296 261 176
34 118 -111 -141 70 225 192 126
22 100 -80 -96 63 168 149 96
8 83 -67 -80 41 113 96 56
4 63 -69 -80 10 73 46 25
8 58 -48 -60 9 49 38 21
7 54 -38 -47 8 39 30 15
10 45 -41 -45 2 37 17 5
9 36 -26 -30 10 39 27 14
0 32 -8 -9 23 37 36 20
-11 24 -11 -12 16 29 20 6
-16 19 -11 -9 12 24 11 0
-16 25 0 2 19 19 16 3
-16 20 -4 0 11 7 0 -11
-10 10 -20 -14 -11 -3 -25 -27
-5 16 -12 -8 -8 -7 -18 -21
-1 24 -12 -10 -11 -13 -21 -24
-4 20 -20 -19 -22 -17 -35 -35
-12 14 -4 -8 -9 -9 -19 -20
-21 15 11 5 4 -9 -5 -11
-23 11 3 1 -5 -15 -20 -25
-15 12 2 6 -6 -17 -24 -26
-12 7 9 17 2 -17 -14 -19
-8 3 0 12 -7 -25 -26 -32
-7 -3 -13 -2 -21 -29 -43 -43
-9 1 -6 4 -17 -26 -32 -32
-9 4 -2 4 -13 -24 -28 -29
-9 1 -13 -5 -24 -26 -41 -39
-10 6 -4 2 -17 -21 -30 -29
-17 17 11 15 -3 -21 -15 -20
-16 13 1 9 -12 -26 -31 -34
-8 12 0 9 -14 -29 -34 -35
-3 8 11 21 -2 -25 -20 -26
-4 -1 6 17 -7 -29 -29 -34
-6 -10 -3 8 -18 -27 -42 -40
-11 -7 6 14 -10 -22 -28 -29
-10 -2 4 12 -11 -23 -28 -30
-9 -2 -7 4 -22 -26 -41 -38
-8 -1 -3 7 -18 -24 -35 -31
-8 8 8 15 -6 -25 -24 -25
-11 0 1 11 -13 -29 -35 -35
-8 -2 2 15 -12 -27 -36 -35
-6 6 15 28 2 -22 -21 -25
-11 5 10 26 0 -23 -27 -30
-4 1 -3 12 -13 -24 -41 -39
-7 1 5 18 -6 -20 -29 -28
-13 3 4 17 -6 -19 -27 -27
-9 0 -8 6 -18 -23 -41 -37
-8 -1 -4 10 -13 -20 -33 -30
-9 4 7 22 -1 -19 -21 -23
-12 -1 0 20 -6 -23 -33 -34
-11 -5 0 21 -6 -22 -34 -36
-7 4 12 31 7 -19 -20 -26
-14 0 9 35 5 -22 -27 -32
-9 -10 -3 20 -9 -23 -41 -41
3 -5 11 29 3 -14 -24 -25
2 -7 13 31 8 -13 -18 -21
4 -9 -1 18 -7 -18 -35 -33
11 -5 1 20 -3 -17 -26 -28
6 2 13 32 10 -14 -14 -20
-2 4 7 30 6 -15 -25 -28
-10 3 9 36 8 -12 -23 -27
-13 0 22 48 23 -6 -8 -15
-11 -9 22 50 24 -5 -10 -18
-8 -20 9 39 10 -5 -25 -28
-5 -11 16 44 18 -2 -11 -17
-1 -2 17 47 22 -2 -9 -15
2 -4 6 37 12 -4 -22 -24
5 -3 10 43 18 0 -11 -15
3 5 22 55 30 -1 0 -9
4 1 12 56 22 -4 -14 -22
2 -2 12 54 24 -1 -13 -22
-3 0 21 62 34 1 -2 -15
-7 -5 17 63 31 0 -9 -22
0 -13 5 54 22 4 -21 -29
6 -11 14 63 30 8 -7 -17
9 -6 14 60 35 8 -4 -15
16 -9 3 53 24 5 -16 -24
19 -10 7 59 30 9 -7 -17
18 1 23 75 46 12 9 -7
18 1 13 71 40 11 -3 -18
9 -4 17 74 45 18 0 -14
-4 -4 29 86 58 22 14 -4
-5 -4 22 82 52 18 6 -13
7 -9 6 74 41 18 -10 -22
15 -7 10 79 47 19 1 -13
16 -6 10 78 50 21 4 -12
18 -6 2 74 44 21 -4 -18
18 -1 9 84 53 28 7 -7
17 3 26 99 68 32 24 3
22 -4 23 99 67 34 16 -3
19 -6 21 100 66 34 15 -5
11 0 34 115 82 40 31 7
6 -5 31 115 80 39 24 0
12 -14 14 103 66 38 8 -10
15 -10 21 111 74 40 21 3
12 -11 22 111 76 40 23 3
20 -10 12 104 66 39 12 -4
24 -7 21 111 75 46 24 8
21 0 34 124 88 47 39 16
22 -3 26 119 81 45 26 5
24 -4 26 123 82 45 25 4
26 0 33 130 91 46 36 10
26 -2 27 129 86 42 27 2
20 -19 15 119 76 44 16 -3
22 -19 26 121 85 49 30 9
25 -12 24 120 84 47 29 9
26 -12 12 108 71 43 14 -2
26 -7 16 111 75 46 21 6
20 1 29 123 88 48 38 17
22 -5 22 117 81 45 26 7
27 -9 24 117 81 46 26 8
23 -5 32 122 87 45 36 14
21 -8 27 116 81 41 28 6
18 -20 15 101 68 42 15 0
10 -15 22 105 74 45 28 11
12 -8 22 103 71 42 28 11
16 -12 9 83 54 36 11 -1
19 -17 12 78 53 37 16 6
20 -9 26 85 62 35 30 14
22 -9 14 71 49 26 13 -1
17 -11 16 69 48 26 13 1
13 -13 29 80 59 31 27 13
10 -18 22 69 51 22 15 2
10 -23 8 51 33 16 -3 -9
4 -23 18 55 39 18 11 3
1 -22 20 50 36 16 13 4
-2 -24 8 35 20 10 -4 -7
-9 -23 11 33 19 11 3 -1
-16 -19 27 46 31 12 16 8
-11 -29 18 34 21 5 2 -5
-2 -32 15 30 17 3 -2 -8
1 -27 27 39 27 5 10 0
-6 -33 22 32 21 -1 1 -7
-9 -45 9 18 7 -1 -12 -15
-8 -34 20 27 15 1 3 -2
-6 -30 18 25 11 -5 -1 -6
-6 -36 2 9 -6 -9 -20 -19
-5 -34 7 7 -3 -5 -11 -11
-7 -31 20 21 8 -9 2 -3
-7 -39 15 16 0 -10 -11 -14
-10 -44 16 14 2 -9 -12 -15
-13 -46 21 18 9 -10 -6 -10
-15 -46 17 16 5 -14 -14 -18
-14 -53 3 3 -9 -14 -29 -27
-8 -46 12 12 -3 -12 -15 -16
-12 -41 17 13 0 -11 -10 -13
-23 -42 8 -1 -10 -12 -21 -18
-21 -35 13 1 -5 -8 -13 -10
-15 -28 21 9 3 -10 -4 -6
-10 -35 10 5 -6 -15 -18 -19
-15 -48 12 12 -3 -12 -17 -18
-21 -50 22 22 7 -8 -5 -9
-22 -49 20 15 5 -11 -12 -15
-16 -51 4 1 -9 -13 -28 -26
-12 -47 13 6 -3 -10 -15 -14
-13 -44 15 7 0 -10 -10 -13
-15 -50 7 -2 -8 -11 -20 -18
-12 -47 12 2 -5 -5 -11 -11
-14 -40 30 20 11 -5 6 2
-15 -41 17 9 -1 -11 -11 -14
-11 -41 14 6 -4 -13 -16 -17
-14 -38 22 13 3 -11 -5 -10
-20 -43 18 12 0 -13 -13 -16
-14 -50 5 -3 -13 -14 -28 -27
-12 -52 14 5 -4 -8 -13 -14
-14 -53 21 11 2 -3 -5 -7
-18 -57 13 5 -4 -4 -14 -12
-16 -59 15 8 -2 -2 -6 -7
-12 -48 30 26 12 -1 8 3
-7 -48 22 19 3 -7 -5 -8
-6 -47 18 10 -1 -8 -12 -12
-11 -46 29 20 11 -5 3 -2
-16 -50 21 14 5 -10 -9 -13
-14 -55 3 -2 -11 -14 -27 -26
-7 -48 12 7 -3 -11 -13 -14
-2 -47 10 3 -6 -14 -15 -18
-4 -56 -3 -10 -18 -15 -30 -28
-6 -53 5 -2 -11 -11 -18 -17
-9 -42 25 14 6 -6 2 -4
-11 -40 20 10 2 -7 -8 -11
-15 -49 19 14 2 -5 -11 -11
-17 -58 30 22 13 -2 2 -1
-19 -61 26 20 10 -4 -4 -7
-18 -66 12 10 -3 -4 -19 -17
-16 -58 20 14 3 -2 -8 -7
-18 -49 19 12 1 -5 -8 -9
-15 -49 4 -2 -12 -9 -24 -20
-6 -39 8 2 -9 -7 -16 -13
-8 -35 24 18 7 -5 1 -2
-12 -47 20 14 2 -5 -9 -10
-15 -55 21 14 4 -3 -8 -9
-22 -61 31 25 15 0 5 0
-21 -59 27 22 12 -3 -2 -4
-13 -55 13 11 -3 -4 -16 -14
-14 -52 20 15 4 -2 -5 -3
-13 -54 21 15 4 -3 -3 -3
-12 -60 8 2 -9 -6 -17 -14
-12 -58 15 7 -4 -2 -9 -5
-15 -52 31 22 13 0 8 7
-15 -54 23 14 4 -4 -6 -6
-19 -55 24 15 4 -3 -6 -5
-23 -54 34 26 14 -1 6 2
-13 -53 26 19 8 -7 -4 -7
-3 -55 10 6 -7 -11 -22 -18
-4 -50 17 11 -3 -12 -11 -9
-4 -44 18 9 -4 -13 -9 -9
-8 -51 9 1 -12 -12 -19 -16
-10 -48 12 2 -9 -10 -15 -11
-10 -44 30 18 8 -5 2 1
-12 -46 21 10 -1 -10 -11 -11
-13 -48 17 8 -5 -12 -17 -16
-10 -45 24 15 4 -11 -7 -9
-8 -43 19 10 -2 -16 -15 -17
-8 -46 5 -1 -14 -16 -28 -27
-10 -43 16 7 -6 -11 -13 -12
-15 -47 19 8 -4 -10 -9 -8
-15 -48 9 0 -13 -11 -20 -17
-8 -44 6 -2 -16 -13 -18 -15
-7 -36 18 8 -6 -15 -6 -8
-13 -40 13 2 -10 -16 -16 -16
-15 -36 9 0 -13 -16 -20 -19
-11 -33 19 10 -4 -14 -8 -10
-16 -36 16 8 -6 -17 -15 -17
-23 -37 2 -6 -20 -19 -31 -28
-22 -29 12 3 -12 -15 -15 -13
-17 -24 13 0 -13 -17 -15 -14
-15 -31 2 -11 -24 -20 -29 -23
-10 -32 11 -3 -15 -13 -16 -10
-12 -20 22 8 -4 -15 -3 -3
-10 -15 11 -1 -16 -23 -21 -19
-10 -16 4 -4 -20 -27 -28 -25
-13 -24 14 1 -12 -25 -19 -17
-14 -26 11 0 -15 -28 -24 -24
-10 -25 -6 -17 -31 -30 -41 -35
-7 -13 3 -10 -24 -28 -29 -24
-19 -9 6 -6 -21 -27 -23 -19
-19 -7 -6 -15 -32 -29 -35 -28
-14 -4 2 -8 -26 -24 -26 -19
-15 3 17 2 -13 -24 -10 -9
-11 -4 5 -10 -23 -30 -26 -23
-9 -8 2 -11 -25 -33 -31 -28
-9 -4 9 -2 -19 -31 -23 -22
-10 -1 2 -8 -24 -36 -31 -30
-6 -7 -12 -23 -38 -38 -48 -42
-11 -5 -3 -15 -31 -32 -34 -30
-14 1 0 -14 -29 -31 -31 -26
-11 2 -9 -22 -38 -33 -42 -33
-6 5 -5 -19 -35 -31 -35 -26
-5 12 11 -2 -20 -31 -18 -16
-13 -1 5 -9 -26 -33 -30 -25
-17 -6 2 -9 -28 -35 -34 -29
-13 -2 9 -3 -22 -35 -26 -23
-15 -3 2 -10 -29 -40 -35 -32
-16 -10 -9 -21 -40 -38 -47 -39
-15 -8 1 -14 -32 -34 -33 -26
-15 -6 0 -17 -33 -34 -34 -26
-14 -5 -11 -27 -43 -37 -46 -35
-12 -3 -7 -25 -39 -34 -39 -28
-12 9 11 -7 -20 -32 -20 -16
-19 6 3 -12 -26 -33 -31 -26
-26 4 1 -13 -27 -32 -33 -28
-32 7 18 2 -13 -27 -18 -15
-28 4 13 1 -16 -30 -24 -22
-23 -1 -5 -14 -33 -33 -43 -35
-13 8 -2 -14 -34 -35 -35 -28
-7 10 -7 -22 -39 -41 -39 -31
-6 3 -15 -28 -45 -41 -49 -37
-7 -1 -4 -18 -36 -32 -34 -24
-12 4 12 -7 -20 -30 -18 -13
-13 3 7 -10 -25 -32 -29 -23
-19 -3 4 -14 -30 -34 -32 -27
-18 0 12 -6 -22 -33 -23 -19
-15 1 10 -3 -22 -34 -26 -23
-11 -3 -4 -19 -36 -35 -42 -33
-9 5 4 -12 -29 -32 -29 -22
-10 9 1 -16 -34 -37 -32 -23
-9 7 -12 -28 -46 -41 -47 -37
-10 8 -6 -20 -39 -36 -38 -26
-19 7 11 -8 -23 -33 -20 -16
-13 -1 -1 -19 -33 -38 -38 -29
-10 -4 -1 -17 -35 -39 -39 -32
-22 -5 11 -4 -22 -34 -25 -21
-23 -5 10 -2 -21 -34 -28 -25
-14 -6 -7 -17 -37 -38 -45 -36
-9 -1 -2 -15 -34 -38 -35 -27
-11 1 1 -11 -33 -39 -33 -26
-8 0 -12 -27 -46 -41 -48 -37
-4 1 -8 -27 -43 -38 -42 -30
-8 8 10 -8 -26 -35 -23 -18
-16 3 0 -17 -34 -39 -37 -30
-24 2 0 -16 -34 -37 -39 -30
-26 6 12 -4 -22 -32 -23 -20
-24 4 9 -6 -25 -35 -31 -26
-19 -3 -5 -20 -39 -37 -45 -35
-18 -8 6 -10 -29 -32 -30 -21
-17 -6 9 -8 -27 -32 -26 -19
-11 -3 -4 -20 -39 -38 -40 -29
-6 0 -1 -16 -38 -37 -35 -23
-7 8 13 -5 -24 -34 -19 -13
-8 6 2 -14 -34 -41 -36 -30
-11 -1 0 -15 -36 -42 -41 -33
-6 3 11 -7 -26 -39 -28 -25
-5 7 7 -10 -32 -43 -36 -33
-12 0 -5 -23 -41 -41 -48 -37
-28 -5 12 -9 -28 -31 -27 -19
-25 -4 10 -11 -29 -32 -27 -20
-11 -4 -5 -22 -40 -38 -40 -31
-6 -3 3 -13 -33 -31 -30 -19
-8 6 21 4 -17 -28 -13 -8
-12 5 9 -3 -29 -36 -29 -23
-17 -6 5 -10 -31 -37 -33 -26
-19 -4 14 -5 -21 -34 -24 -18
-20 -7 11 -3 -24 -36 -28 -22
-19 -21 -4 -19 -38 -35 -44 -33
-9 -12 3 -15 -33 -35 -34 -24
-6 -3 4 -15 -33 -36 -33 -24
-4 -2 -6 -24 -43 -39 -45 -32
1 3 -1 -19 -36 -33 -35 -22
-7 7 19 -1 -17 -30 -13 -9
-16 2 15 0 -23 -28 -24 -17
-19 1 14 -3 -22 -28 -26 -18
-11 4 18 -1 -17 -28 -20 -14
-8 3 15 -2 -19 -30 -24 -19
-10 -4 -1 -15 -34 -32 -43 -31
-9 2 5 -9 -29 -29 -33 -21
-10 4 10 -6 -27 -29 -29 -19
-10 3 -2 -14 -37 -34 -41 -28
-8 12 7 -9 -30 -27 -30 -18
-9 21 22 2 -15 -26 -13 -6
-11 15 11 -6 -23 -32 -28 -19
-13 17 8 -8 -24 -31 -29 -19
-15 20 17 3 -14 -27 -15 -8
-11 6 12 -1 -14 -27 -18 -12
-6 -6 -1 -11 -24 -23 -31 -19
-8 -3 8 -4 -15 -17 -16 -5
-5 5 7 -8 -18 -20 -18 -7
4 8 -7 -17 -30 -25 -32 -17
8 12 -4 -16 -28 -23 -25 -12
5 16 15 -1 -10 -19 -3 5
0 10 6 -5 -19 -24 -18 -8
-1 4 3 -7 -21 -25 -21 -9
2 6 15 -1 -13 -24 -11 -2
1 4 9 -5 -17 -29 -18 -10
8 -2 -7 -17 -34 -32 -35 -22
8 1 2 -9 -26 -29 -21 -10
3 3 2 -12 -28 -30 -23 -12
4 -1 -6 -17 -36 -31 -33 -18
-1 -2 1 -10 -29 -24 -23 -8
-7 7 15 0 -17 -24 -9 0
-9 2 5 -9 -27 -30 -24 -12
-9 -5 6 -9 -27 -29 -25 -12
-10 -6 17 -2 -18 -28 -14 -5
-13 -12 15 -4 -20 -32 -19 -10
-15 -19 -1 -20 -35 -34 -38 -24
-3 -13 6 -14 -31 -33 -27 -14
-2 -13 6 -16 -34 -36 -30 -17
-4 -15 -4 -24 -44 -39 -42 -25
-8 -14 4 -18 -37 -33 -31 -16
-15 -13 21 -2 -21 -31 -15 -5
-9 -20 12 -6 -29 -34 -30 -17
-1 -22 7 -12 -33 -37 -35 -23
-4 -20 15 -6 -26 -38 -25 -16
-16 -22 20 -1 -23 -37 -24 -16
-19 -26 4 -15 -38 -36 -40 -27
-18 -19 12 -9 -31 -34 -27 -15
-16 -15 18 -4 -28 -32 -22 -11
-17 -16 7 -16 -38 -36 -35 -20
-12 -12 7 -15 -37 -34 -32 -16
-17 -4 23 -3 -22 -33 -15 -5
-20 -12 13 -10 -31 -37 -30 -18
-14 -15 11 -11 -32 -38 -32 -21
-14 -14 20 -2 -23 -36 -21 -13
-13 -18 21 0 -21 -34 -22 -13
-13 -28 8 -12 -33 -33 -37 -22
-13 -23 17 -6 -25 -31 -23 -11
-10 -13 19 -5 -24 -33 -21 -10
-11 -20 7 -15 -36 -34 -34 -20
-7 -25 10 -11 -34 -33 -30 -14
-5 -12 28 4 -19 -32 -10 -1
-7 -10 15 -9 -31 -37 -29 -16
-5 -16 12 -8 -32 -37 -32 -19
-3 -21 23 8 -20 -33 -18 -8
-6 -20 21 6 -22 -34 -24 -14
-12 -29 3 -14 -39 -37 -42 -27
-16 -28 11 -11 -33 -35 -30 -16
-12 -21 15 -9 -30 -34 -26 -13
-10 -17 8 -14 -37 -34 -35 -19
-9 -19 11 -12 -34 -32 -28 -12
-14 -15 27 0 -19 -31 -12 -2
-16 -19 18 -7 -26 -34 -25 -11
-14 -21 15 -8 -28 -34 -29 -15
-7 -17 24 0 -20 -32 -18 -6
-11 -24 20 0 -22 -36 -26 -13
-4 -34 -4 -22 -44 -43 -49 -32
-2 -26 6 -14 -35 -38 -33 -19
-4 -22 13 -5 -29 -32 -24 -12
-11 -22 9 -8 -33 -30 -31 -16
-15 -23 13 -2 -28 -28 -24 -11
-17 -23 33 19 -9 -27 -10 -2
-8 -30 26 20 -14 -35 -27 -18
1 -37 25 27 -11 -36 -33 -26
6 -38 38 47 6 -30 -21 -18
6 -41 39 58 14 -27 -24 -21
5 -50 19 50 3 -27 -42 -35
15 -41 21 63 17 -17 -27 -21
32 -32 8 62 26 -4 -11 -10
56 -22 -20 44 24 14 -4 -2
79 -3 -33 27 37 43 30 28
91 25 -42 7 57 75 78 64
99 44 -73 -35 55 107 101 84
110 77 -94 -74 69 154 146 123
121 121 -114 -126 86 205 206 172
134 160 -147 -196 77 238 241 202
143 190 -197 -280 48 270 260 226
152 235 -219 -321 55 314 313 274
146 268 -232 -356 65 354 357 311
133 290 -254 -396 58 387 380 330
129 309 -262 -418 64 425 420 361
126 334 -246 -412 90 463 470 395
119 331 -247 -407 97 489 478 395
115 308 -228 -372 123 520 494 394
107 274 -192 -315 160 537 508 390
99 225 -173 -274 163 515 481 358
87 177 -167 -251 133 460 415 305
69 149 -134 -209 122 393 365 269
55 123 -108 -172 106 323 301 220
40 84 -90 -144 82 254 228 167
30 59 -66 -109 67 197 176 133
23 54 -33 -66 68 145 147 112
18 42 -32 -57 42 97 94 71
16 28 -20 -40 31 68 66 52
15 24 -1 -16 39 62 69 55
13 18 1 -12 36 54 59 46
11 9 -9 -17 24 53 40 33
-1 11 10 1 37 56 55 48
-3 13 12 7 32 46 49 42
3 6 1 -6 16 34 26 24
8 1 5 -3 16 30 25 25
3 3 23 16 29 24 37 34
1 0 15 11 17 15 18 16
0 -8 12 9 12 9 8 10
2 -4 25 21 22 10 19 18
3 -2 26 24 21 4 13 12
3 -11 8 6 0 -1 -11 -5
-2 -9 23 17 12 3 7 11
-4 -7 28 21 14 0 8 11
0 -15 12 8 -4 -8 -13 -6
9 -13 11 7 -6 -9 -11 -3
10 -2 28 25 8 -12 5 9
8 -11 21 24 0 -15 -10 -5
0 -16 21 22 -1 -15 -12 -6
-2 -13 26 25 5 -16 -5 -2
1 -11 23 23 1 -21 -13 -8
5 -21 9 9 -13 -22 -30 -19
3 -19 20 17 -3 -16 -14 -5
-5 -14 28 26 5 -10 -4 3
-12 -16 19 19 -5 -13 -16 -6
-5 -15 19 19 -5 -11 -14 -3
-4 -5 38 38 12 -10 6 9
-6 -8 25 29 0 -16 -13 -8
-5 -11 23 26 -2 -17 -18 -10
-5 -5 28 36 5 -18 -9 -5
-6 -3 21 28 -2 -25 -19 -12
-1 -16 5 12 -16 -24 -36 -25
-5 -19 18 23 -3 -17 -19 -8
-9 -12 23 28 4 -13 -11 -2
-9 -17 19 25 -1 -12 -17 -7
-10 -21 22 29 3 -7 -12 -2
-7 -11 39 46 19 -6 8 12
-2 -13 29 39 9 -12 -8 -3
-4 -17 26 34 7 -14 -12 -5
-4 -12 34 43 16 -13 -2 2
-9 -12 28 38 12 -18 -9 -4
-6 -11 10 20 -5 -16 -29 -17
-1 -17 24 35 8 -7 -9 0
-1 -15 28 40 13 -6 -3 2
-1 -11 20 31 5 -8 -13 -6
-3 -14 20 32 6 -6 -8 -2
-5 -8 38 50 24 -3 11 12
-4 -7 30 43 16 -7 -3 -1
-3 -9 28 42 15 -8 -6 -2
-1 -7 34 49 23 -6 4 6
0 -10 32 47 23 -7 1 2
5 -23 14 32 6 -7 -19 -12
8 -23 23 40 15 -3 -5 1
1 -17 25 41 16 -5 -1 2
-2 -16 16 36 7 -7 -14 -8
10 -10 15 42 5 -7 -12 -5
15 -2 28 52 19 -8 4 5
15 -3 23 44 14 -10 -7 -7
11 -6 23 47 17 -7 -6 -4
3 -11 33 59 30 0 9 7
-2 -14 35 60 34 2 8 6
-5 -23 19 47 18 2 -10 -6
0 -17 23 51 24 4 0 2
3 -15 25 54 26 3 4 3
4 -21 17 48 18 2 -7 -6
10 -22 21 54 22 9 0 1
9 -11 40 73 41 12 21 16
3 -14 30 68 35 10 8 4
1 -13 32 72 37 13 9 6
3 -10 39 83 48 16 20 13
4 -10 35 78 46 13 15 8
7 -17 21 65 35 15 1 -1
10 -14 28 72 43 19 15 10
12 -6 29 72 44 17 16 11
10 -7 18 69 37 17 6 3
9 -18 22 74 41 24 13 10
12 -17 43 96 63 31 37 27
11 -18 35 93 58 29 25 15
16 -13 33 92 57 28 21 12
18 -5 40 101 67 31 32 20
15 -7 37 103 66 29 27 16
18 -17 21 88 54 31 13 7
20 -14 32 98 64 36 29 22
23 -16 33 103 66 35 32 22
28 -16 24 99 58 34 21 14
25 -14 23 100 59 37 24 18
21 -3 42 120 77 41 44 32
17 -12 35 119 73 40 35 22
15 -15 31 115 71 40 30 19
18 -7 37 118 79 41 38 27
18 -3 35 121 80 41 34 22
18 -7 19 106 66 42 19 11
15 -6 33 118 80 48 37 28
18 -8 34 121 81 48 40 30
27 -12 27 116 73 48 30 22
34 -12 26 114 71 47 33 25
33 -6 40 126 85 46 48 35
30 -4 30 120 77 41 34 23
20 -3 29 121 77 42 31 22
15 -2 35 130 83 43 40 28
14 -1 33 125 83 42 37 25
18 -7 16 111 68 42 19 13
23 0 28 121 78 48 37 30
21 1 34 125 83 50 45 35
24 -4 24 115 72 47 32 27
31 -10 29 119 75 51 40 34
29 -3 46 129 88 49 58 47
29 -3 30 114 74 40 39 28
33 -4 25 110 69 37 34 24
25 -4 35 114 77 42 43 34
14 -8 37 111 78 42 41 32
17 -15 19 88 57 37 20 17
23 -6 26 88 59 35 28 26
22 -2 29 86 57 33 32 28
18 -3 19 73 44 28 20 18
15 -6 22 69 43 30 23 23
12 1 42 86 59 30 45 38
5 -4 31 75 47 24 29 23
3 -5 27 69 41 20 22 20
2 -4 33 67 42 17 27 24
1 -7 26 55 36 10 19 17
7 -17 11 37 19 8 0 3
13 -14 18 37 22 7 8 11
9 -15 19 36 20 4 8 9
9 -14 10 25 9 0 -4 -2
8 -14 13 25 7 2 -1 2
1 -1 33 43 24 3 19 18
-3 -2 24 36 14 -3 5 5
-5 -8 22 31 11 -5 1 3
-6 -1 29 31 16 -5 9 9
-10 -2 25 24 12 -9 1 2
-11 -13 8 8 -5 -10 -20 -11
-10 -15 17 14 3 -7 -5 1
-10 -22 21 16 5 -6 -2 4
-7 -29 14 11 -2 -6 -12 -2
-3 -21 15 9 -3 -5 -9 0
2 -2 29 20 9 -8 6 9
2 -7 20 14 0 -13 -8 -4
-5 -12 19 12 0 -13 -10 -5
-10 -12 28 21 9 -9 2 4
-8 -12 29 23 10 -12 0 2
-11 -24 13 7 -5 -12 -18 -11
-11 -22 24 18 5 -7 -3 3
-11 -19 25 16 4 -8 -2 3
-11 -19 13 3 -11 -13 -17 -9
-13 -16 17 5 -7 -8 -10 -1
-18 -9 38 22 11 -6 12 15
-13 -13 25 13 1 -10 -4 -1
-13 -19 24 13 2 -11 -5 0
-10 -21 29 18 9 -10 3 5
-8 -18 27 16 8 -14 -2 0
-7 -24 12 1 -6 -14 -20 -11
-3 -19 17 6 -1 -12 -8 -1
-4 -12 20 7 -1 -12 -6 0
-7 -17 10 -1 -10 -14 -18 -10
-4 -18 11 0 -10 -10 -15 -6
-2 -5 29 16 6 -10 4 7
-3 -9 16 5 -6 -16 -14 -10
-3 -15 13 4 -7 -15 -17 -11
-14 -15 27 22 8 -8 0 3
-18 -14 27 19 9 -11 -4 -1
-11 -19 9 5 -7 -12 -22 -15
-6 -13 13 7 -3 -12 -11 -5
-11 -13 17 7 -1 -12 -8 -3
-14 -19 10 2 -8 -13 -18 -10
-9 -17 8 -1 -11 -12 -16 -8
-11 -5 28 17 7 -9 4 7
-11 -5 17 8 -2 -13 -11 -7
-10 -12 12 4 -5 -14 -17 -11
-11 -16 22 13 6 -10 -4 0
-13 -15 22 16 7 -12 -7 -4
-9 -20 6 1 -8 -12 -25 -17
-8 -13 17 8 3 -8 -8 -1
-10 -11 20 10 4 -8 -6 0
-8 -13 12 4 -5 -10 -16 -7
-6 -10 13 3 -6 -8 -12 -4
-5 -2 28 17 8 -10 4 6
-7 -8 19 11 0 -13 -10 -5
-10 -12 13 7 -4 -13 -15 -10
-6 -11 21 13 4 -11 -4 -1
-8 -10 18 12 2 -17 -10 -7
-9 -14 1 -1 -12 -16 -28 -19
-8 -7 13 8 -2 -10 -11 -4
-10 -6 16 8 0 -11 -6 -1
-6 -1 6 0 -11 -14 -19 -11
3 2 9 1 -9 -12 -13 -6
-1 -3 30 20 10 -8 9 10
-1 -19 24 16 4 -10 -2 0
-3 -23 19 12 2 -10 -7 -4
-2 -12 23 16 5 -12 -3 0
-3 -6 20 12 2 -16 -9 -6
-3 -17 0 -9 -17 -21 -30 -22
-2 -17 9 3 -10 -18 -18 -11
-2 -10 13 6 -7 -19 -13 -8
-2 -14 2 -8 -18 -20 -27 -18
-2 -13 8 -3 -12 -13 -18 -8
-8 -8 31 19 11 -7 9 11
-12 -14 22 15 3 -10 -4 -2
-19 -16 21 15 3 -9 -7 -3
-21 -12 25 18 7 -10 -1 1
-20 -10 22 16 6 -14 -6 -5
-17 -14 2 -1 -13 -17 -29 -20
-13 -8 10 3 -7 -15 -17 -9
-14 -10 14 4 -5 -15 -13 -7
-16 -18 6 -2 -12 -15 -22 -14
-11 -17 9 -1 -10 -12 -17 -9
-4 -6 28 16 6 -11 2 5
-4 -8 14 7 -5 -18 -13 -10
-10 -10 12 5 -7 -19 -16 -12
-15 -5 23 13 4 -15 -3 -1
-16 1 24 14 6 -15 -4 -3
-14 -11 7 -3 -12 -17 -25 -17
-16 -18 15 4 -6 -15 -12 -5
-14 -15 14 4 -7 -17 -12 -6
-10 -17 7 -2 -14 -18 -22 -15
-8 -17 4 -4 -18 -20 -23 -14
-3 -7 20 7 -3 -22 -5 -3
-1 -8 10 -2 -14 -27 -19 -17
4 -10 8 -3 -14 -25 -22 -18
-1 -5 20 9 -2 -20 -9 -6
-14 -4 22 12 0 -21 -8 -7
-15 -14 3 -5 -18 -22 -29 -21
-14 -14 14 5 -8 -18 -14 -6
-14 -13 14 4 -9 -20 -12 -6
-11 -11 2 -9 -21 -24 -26 -18
-4 -8 3 -9 -21 -23 -24 -14
-9 1 19 5 -6 -22 -6 -2
-15 -4 13 0 -12 -22 -17 -13
-14 -9 11 0 -14 -22 -21 -14
-10 -10 22 9 -4 -19 -9 -4
-11 -12 23 10 -2 -22 -9 -7
-7 -23 0 -11 -23 -28 -35 -27
-3 -16 10 -4 -15 -24 -20 -12
-5 -12 14 -1 -13 -25 -16 -11
-5 -17 0 -8 -25 -28 -33 -22
0 -15 0 -14 -26 -26 -29 -18
-4 -6 20 4 -10 -26 -10 -4
-11 -8 7 -4 -21 -31 -27 -20
-13 -10 6 -8 -22 -31 -31 -21
-18 -9 15 -2 -12 -26 -19 -12
-23 -10 20 1 -7 -25 -17 -10
-20 -17 1 -14 -24 -28 -36 -24
-19 -16 9 -3 -17 -24 -23 -13
-15 -10 16 1 -11 -21 -15 -6
-12 -12 9 -4 -18 -22 -23 -14
-11 -15 8 -5 -20 -20 -21 -11
-18 -5 25 10 -3 -20 -2 2
-20 -8 12 -2 -16 -27 -20 -14
-22 -13 11 -2 -15 -23 -23 -14
-19 -11 16 1 -9 -25 -15 -9
-18 -9 15 5 -9 -28 -19 -13
-15 -12 -2 -10 -25 -31 -38 -26
-13 -7 6 -5 -19 -29 -26 -15
-10 -1 8 -5 -18 -30 -23 -13
-7 -9 3 -12 -25 -30 -31 -19
-1 -10 2 -13 -27 -29 -28 -16
0 -1 19 2 -10 -27 -9 -2
-4 -6 10 -6 -18 -31 -23 -15
-8 -11 8 -6 -19 -28 -27 -16
-13 -11 18 2 -9 -24 -16 -8
-20 -11 14 1 -12 -31 -21 -14
-18 -19 -6 -18 -31 -33 -44 -31
-12 -15 2 -12 -23 -31 -31 -17
-16 -11 7 -8 -20 -30 -25 -13
-17 -10 1 -12 -26 -30 -32 -19
-13 -9 1 -12 -26 -27 -28 -15
-11 -1 19 3 -10 -27 -9 -2
-17 -4 12 -5 -17 -30 -23 -15
-21 -11 7 -9 -21 -30 -29 -19
-18 -9 14 -3 -15 -29 -21 -12
-16 -4 13 0 -15 -34 -24 -17
-12 -8 -9 -20 -35 -38 -48 -35
-6 -7 -2 -18 -30 -35 -35 -23
-2 -3 1 -16 -28 -36 -32 -21
-9 -9 -4 -19 -32 -35 -38 -27
-12 -13 3 -11 -26 -27 -30 -17
-16 -9 23 10 -7 -24 -8 -1
-19 -15 14 -1 -15 -27 -21 -14
-19 -17 13 -1 -17 -27 -22 -14
-15 -12 18 2 -12 -28 -16 -9
-12 -6 17 1 -12 -32 -20 -13
-14 -13 -2 -18 -31 -35 -42 -30
-16 -12 2 -14 -27 -34 -32 -21
-13 -7 6 -9 -25 -35 -29 -19
-9 -12 -2 -19 -35 -39 -40 -29
0 -6 -1 -18 -35 -35 -37 -24
-1 2 21 1 -15 -31 -13 -6
-12 -8 12 -5 -22 -34 -26 -18
-13 -12 13 -4 -20 -31 -26 -19
-16 -8 20 3 -11 -28 -15 -11
-18 -9 20 2 -11 -31 -17 -13
-16 -15 1 -15 -28 -32 -38 -28
-15 -15 12 -4 -17 -25 -22 -13
-12 -11 10 -5 -18 -28 -21 -13
-14 -15 -1 -14 -30 -34 -33 -23
-14 -17 -2 -15 -32 -32 -34 -22
-14 -7 18 1 -13 -27 -12 -7
-11 -6 8 -6 -22 -33 -26 -21
-7 -9 5 -7 -23 -33 -30 -24
-4 -7 13 -4 -15 -33 -21 -17
-8 -8 11 -4 -18 -38 -25 -22
-10 -14 -8 -22 -36 -39 -45 -36
-12 -13 2 -14 -26 -32 -30 -21
-17 -11 7 -10 -23 -30 -25 -18
-16 -14 -1 -17 -32 -32 -36 -26
-12 -10 -3 -18 -34 -32 -37 -25
-12 -3 14 -2 -18 -31 -18 -12
-12 -6 7 -8 -24 -33 -29 -23
-12 -13 6 -9 -24 -31 -31 -23
-21 -6 17 0 -13 -27 -19 -12
-24 -3 19 2 -10 -27 -18 -13
-20 -8 -2 -16 -28 -33 -42 -30
-12 -4 9 -7 -19 -29 -26 -16
-10 3 13 -4 -17 -29 -20 -12
-10 -1 3 -12 -25 -30 -31 -21
-8 1 2 -13 -26 -28 -29 -18
-7 13 18 1 -13 -29 -13 -5
-2 7 7 -5 -23 -34 -28 -21
-4 -5 9 -3 -19 -29 -27 -19
-6 -6 18 4 -9 -26 -17 -11
-11 -3 21 6 -5 -26 -15 -11
-18 -6 0 -14 -25 -30 -39 -29
-20 2 7 -8 -19 -29 -27 -18
-9 12 8 -7 -17 -29 -22 -14
-2 12 -2 -11 -26 -31 -32 -21
-1 15 -4 -16 -26 -27 -29 -17
-2 21 16 2 -7 -23 -5 0
-5 16 2 -9 -19 -26 -22 -14
-1 17 -1 -11 -19 -26 -24 -14
-3 15 5 -4 -10 -23 -13 -6
-3 12 4 -4 -10 -25 -16 -10
2 6 -17 -22 -29 -28 -38 -26
-2 10 -7 -14 -21 -23 -24 -13
-2 14 -1 -10 -19 -26 -18 -10
-3 7 -10 -19 -30 -31 -29 -20
0 7 -13 -20 -34 -32 -32 -20
0 15 7 -3 -16 -29 -10 -3
1 11 -4 -14 -25 -34 -26 -17
4 9 -7 -13 -26 -31 -30 -19
5 9 1 -4 -18 -29 -20 -13
1 5 -1 -5 -20 -34 -24 -16
0 -8 -19 -27 -36 -35 -45 -30
-1 -8 -9 -20 -30 -34 -31 -18
1 -6 -5 -17 -27 -35 -27 -16
1 -7 -13 -23 -38 -38 -39 -26
0 -6 -10 -22 -35 -33 -35 -21
-3 5 15 -1 -16 -31 -11 -4
-6 0 3 -12 -28 -40 -28 -21
-5 -9 -2 -16 -33 -42 -35 -26
-7 -14 9 -8 -24 -37 -24 -18
-19 -15 12 -3 -20 -38 -23 -18
-20 -18 -10 -24 -40 -41 -48 -37
-15 -16 1 -17 -31 -36 -34 -24
-11 -16 0 -16 -31 -39 -33 -24
-10 -17 -5 -20 -38 -41 -41 -30
-5 -17 -6 -23 -39 -39 -39 -27
-6 -4 11 -9 -24 -39 -20 -15
-9 -5 5 -12 -29 -41 -30 -24
-17 -13 5 -10 -27 -37 -29 -22
-17 -18 12 -7 -20 -36 -23 -16
-18 -19 13 -6 -18 -39 -23 -19
-15 -24 -11 -27 -39 -44 -50 -39
-1 -15 -3 -22 -34 -40 -38 -28
1 -13 1 -17 -31 -42 -34 -26
-11 -16 -6 -21 -40 -42 -44 -32
-18 -16 -7 -19 -41 -37 -42 -29
-22 -4 14 0 -22 -34 -17 -12
-22 -6 5 -9 -29 -38 -31 -24
-17 -7 2 -13 -31 -39 -35 -26
-11 -7 6 -11 -27 -41 -30 -22
-10 -6 7 -10 -25 -43 -31 -24
-10 -14 -12 -27 -42 -45 -52 -40
-9 -14 -5 -22 -36 -41 -40 -29
-16 -13 3 -13 -30 -39 -33 -23
-16 -15 -8 -24 -41 -44 -44 -34
-10 -14 -12 -29 -46 -43 -47 -34
-6 -4 8 -12 -27 -41 -24 -19
-3 -9 -2 -19 -35 -45 -40 -31
0 -7 -7 -21 -38 -46 -44 -34
-7 -1 5 -8 -26 -41 -31 -23
-16 -1 8 -5 -23 -41 -29 -24
-18 -6 -10 -23 -39 -42 -49 -38
-20 -6 -1 -18 -32 -39 -37 -26
-17 -10 3 -17 -29 -40 -33 -23
-13 -23 -3 -20 -35 -40 -40 -29
-7 -22 -9 -24 -41 -40 -43 -29
-9 -7 9 -7 -24 -39 -23 -15
-13 -8 1 -12 -31 -42 -36 -27
-11 -16 0 -12 -32 -41 -38 -29
-11 -13 10 -3 -21 -39 -29 -23
-11 -17 13 5 -17 -44 -33 -28
-10 -29 -2 -2 -28 -45 -55 -46
-5 -24 13 19 -12 -38 -40 -34
0 -20 14 28 -6 -41 -41 -37
3 -27 4 29 -11 -44 -53 -47
16 -30 -1 34 -9 -39 -54 -46
27 -19 14 59 17 -30 -27 -27
34 -14 -7 52 19 -17 -27 -28
40 -7 -25 44 28 5 -9 -12
51 8 -38 32 42 34 24 15
68 33 -61 3 50 62 54 39
81 47 -103 -48 41 94 70 55
102 78 -114 -76 66 146 130 107
124 122 -141 -134 77 191 181 150
143 168 -181 -208 65 228 214 181
155 215 -213 -280 54 265 255 221
156 260 -223 -319 69 307 319 274
150 289 -248 -362 67 344 345 295
134 307 -260 -391 72 380 378 322
115 325 -261 -407 84 422 424 357
108 339 -263 -418 94 456 456 378
107 331 -275 -428 91 483 457 373
110 308 -247 -389 124 516 488 386
109 274 -216 -339 151 531 498 378
110 233 -205 -303 148 508 466 344
103 194 -183 -266 134 458 418 306
78 166 -133 -203 137 395 386 281
52 131 -117 -176 113 321 306 216
35 103 -97 -150 90 249 231 162
22 85 -72 -116 77 186 178 125
12 68 -56 -86 61 132 126 87
9 48 -57 -78 32 92 71 51
9 39 -37 -54 30 68 61 47
10 33 -24 -37 28 54 54 40
13 24 -23 -32 23 49 42 31
13 22 -22 -28 20 49 38 30
7 33 4 -3 39 47 59 44
1 31 -4 -9 27 34 38 25
-3 21 -4 -8 24 29 27 18
0 17 4 1 27 24 28 18
-4 12 3 3 24 13 18 8
-3 -3 -12 -10 4 7 -10 -11
-4 -3 -2 0 12 7 2 0
-6 -1 1 2 10 2 2 -1
-3 -1 -5 -2 0 -2 -11 -10
-1 -2 -5 -3 -2 -2 -11 -8
-2 7 16 14 14 -2 10 7
-3 4 9 10 5 -10 -6 -8
1 -5 4 7 0 -15 -16 -16
6 -5 10 14 4 -15 -10 -12
0 -1 12 18 6 -20 -12 -15
-5 -8 -9 -1 -16 -26 -41 -35
0 -1 1 7 -8 -21 -26 -21
3 1 5 11 -5 -23 -21 -18
0 -8 -2 3 -13 -24 -32 -24
-1 -12 -3 1 -15 -21 -29 -21
-6 -2 18 20 5 -18 -5 -3
-10 -6 11 18 -2 -22 -18 -15
-6 -9 8 15 -5 -24 -25 -20
3 -7 10 15 -2 -25 -21 -19
-4 -8 17 24 6 -24 -17 -15
-13 -13 2 12 -9 -25 -38 -29
-14 -9 8 19 -3 -20 -25 -18
-9 -4 11 22 -1 -21 -20 -14
-6 -10 2 13 -10 -23 -31 -22
-5 -13 0 10 -12 -20 -30 -21
-5 -1 21 28 8 -17 -6 -4
-3 -1 13 23 0 -21 -20 -16
-4 -6 12 25 1 -18 -23 -18
-9 -7 19 32 9 -16 -14 -13
-7 -8 21 32 11 -19 -15 -14
1 -16 4 17 -6 -21 -36 -30
5 -13 10 24 1 -18 -23 -17
4 -7 13 26 5 -18 -16 -15
-2 -3 4 18 -3 -21 -28 -23
-5 2 -1 14 -8 -19 -29 -22
-8 14 18 34 11 -16 -6 -6
-10 8 8 25 1 -22 -21 -22
-10 -4 5 22 1 -19 -27 -24
-5 -8 13 33 9 -17 -16 -18
-7 -9 14 37 13 -18 -15 -19
-5 -15 -2 20 -3 -18 -36 -33
-1 -11 9 31 8 -12 -19 -17
1 -11 13 33 12 -12 -13 -13
0 -10 5 27 6 -13 -21 -19
-1 -12 1 21 1 -11 -22 -18
-4 -6 22 40 22 -6 4 -1
-6 -5 12 32 12 -12 -12 -16
0 -10 7 31 10 -11 -18 -21
3 -9 12 38 17 -9 -11 -16
-2 -6 16 44 22 -11 -9 -18
-3 -18 -4 26 4 -14 -34 -35
1 -17 9 38 17 -4 -14 -15
4 -8 13 42 20 -5 -9 -12
4 -1 6 36 14 -6 -17 -18
10 3 4 37 12 -1 -14 -13
4 8 26 61 33 3 13 5
2 2 16 53 26 -1 -3 -10
2 -4 12 49 24 0 -8 -13
-6 -3 22 58 35 7 4 -5
-9 -2 26 63 40 6 5 -5
-1 -13 3 43 20 -1 -21 -25
8 -6 14 53 30 5 -5 -10
11 0 20 61 37 7 5 -4
16 -1 6 50 24 2 -11 -17
24 1 1 49 21 5 -9 -14
19 11 25 72 44 9 20 7
22 8 10 64 33 3 1 -14
20 2 12 68 37 9 1 -12
8 -4 21 79 48 16 13 -3
-3 -3 27 85 56 17 15 -3
-5 -10 10 73 43 18 -5 -16
4 -6 14 77 48 21 7 -6
13 0 14 79 50 20 10 -5
14 0 7 75 43 18 3 -11
15 0 4 74 43 23 5 -8
13 11 27 96 65 29 34 13
18 7 16 87 57 24 18 -2
22 2 13 88 56 26 13 -3
19 4 17 98 62 27 19 2
18 8 14 103 63 23 15 -3
20 -1 -3 85 50 25 -3 -17
18 -5 9 95 61 32 14 0
21 -2 12 99 65 33 20 4
22 1 7 98 60 34 14 1
20 1 7 96 61 39 17 6
20 17 25 114 76 38 39 20
19 18 13 104 66 30 22 3
13 2 13 108 68 34 20 2
12 0 23 122 79 39 32 13
6 4 28 125 84 37 34 14
12 -2 6 105 63 32 9 -5
20 1 15 114 71 38 23 8
19 4 17 112 71 37 29 13
23 4 9 106 66 37 21 7
24 7 7 102 65 41 22 11
23 18 26 119 80 41 43 26
24 12 20 112 74 37 32 15
23 7 16 109 70 36 26 11
22 11 23 116 75 38 34 18
17 15 29 118 81 37 38 19
14 3 7 97 58 31 12 1
21 8 11 95 59 31 21 10
26 14 11 91 56 26 22 10
23 11 3 81 48 24 11 4
19 6 3 76 44 28 14 9
6 14 25 91 62 30 39 27
4 9 14 76 48 23 20 9
9 7 10 69 42 20 12 3
12 10 15 70 45 19 17 7
7 6 22 72 48 15 19 8
0 -5 2 50 29 11 -5 -8
1 2 8 52 31 11 5 2
6 14 9 48 29 7 7 2
7 14 0 33 17 2 -6 -7
6 5 -2 29 13 6 -5 -3
-2 6 23 47 34 10 22 17
-7 6 11 33 19 1 2 -1
-4 7 6 24 13 -3 -8 -9
-3 16 10 26 16 -4 -3 -6
-9 20 13 27 18 -9 -4 -9
-11 2 -2 10 0 -11 -25 -23
-8 -11 8 16 8 -7 -11 -8
-6 -14 11 16 8 -8 -6 -6
-9 -9 5 7 -1 -13 -16 -13
-8 -4 -1 0 -8 -14 -19 -15
-6 10 22 21 11 -10 6 3
-7 9 10 8 -2 -19 -13 -14
-11 2 2 -1 -10 -23 -25 -23
-13 -4 14 9 2 -16 -13 -13
-13 -7 17 12 7 -19 -12 -15
-6 -16 -4 -7 -12 -24 -37 -33
-7 -12 5 1 -4 -18 -21 -19
-20 -4 11 6 0 -16 -13 -13
-17 -3 5 -1 -8 -19 -22 -19
-10 -5 1 -5 -12 -17 -22 -18
-12 3 21 15 6 -13 1 0
-11 0 10 5 -4 -20 -15 -15
-10 -8 5 -3 -8 -22 -23 -21
-13 -8 11 3 -1 -18 -16 -15
-19 -8 16 8 4 -19 -13 -15
-22 -15 -6 -9 -16 -23 -38 -33
-21 -8 3 -1 -7 -18 -24 -20
-17 -1 4 -3 -8 -20 -21 -18
-16 -3 -2 -8 -16 -22 -29 -25
-12 -5 -1 -10 -17 -17 -26 -19
-14 3 19 6 1 -17 -3 -4
-15 -1 8 -2 -8 -22 -20 -19
-14 -8 6 -3 -10 -22 -25 -23
-15 -10 11 4 -4 -19 -18 -17
-18 -6 15 6 -1 -22 -16 -18
-17 -15 -7 -11 -19 -26 -42 -37
-13 -12 0 -5 -13 -22 -29 -26
-14 0 4 -3 -8 -20 -23 -20
-17 0 -2 -10 -16 -22 -30 -25
-12 -5 -3 -12 -16 -17 -28 -21
-15 5 20 8 5 -12 -1 -1
-23 4 10 2 -4 -17 -16 -16
-16 -1 8 3 -4 -15 -19 -17
-13 1 14 7 1 -14 -12 -12
-20 5 14 8 4 -19 -13 -15
-17 1 -10 -14 -18 -26 -41 -37
-16 -10 1 -4 -9 -18 -25 -22
-9 -15 8 4 -2 -14 -16 -15
-7 -13 1 -4 -10 -16 -25 -23
-6 -10 -2 -9 -13 -13 -24 -19
-10 0 22 11 9 -10 3 1
-8 0 9 0 -4 -18 -14 -17
-9 -4 6 -2 -8 -19 -20 -21
-13 -1 13 5 0 -17 -11 -13
-17 -1 16 14 5 -18 -9 -14
-12 -11 -3 -4 -13 -21 -35 -32
-12 -12 6 1 -4 -15 -19 -17
-13 -8 8 2 -3 -14 -16 -13
-11 -8 3 -3 -8 -13 -21 -18
-14 -14 1 -4 -10 -10 -22 -14
-20 -6 19 15 6 -8 0 1
-24 -9 12 5 0 -11 -13 -12
-18 -15 6 -1 -5 -15 -21 -18
-9 -10 9 2 -1 -18 -17 -17
-8 -8 14 7 4 -20 -13 -17
-9 -15 -8 -10 -16 -24 -39 -35
-13 -13 4 2 -5 -16 -20 -17
-22 -7 9 3 -2 -14 -15 -13
-24 -5 4 -2 -8 -15 -22 -19
-21 -6 0 -6 -13 -13 -23 -17
-25 3 20 10 5 -11 -1 -1
-25 2 10 1 -5 -17 -17 -16
-21 -6 6 -2 -8 -18 -22 -20
-12 -5 9 2 -4 -20 -18 -18
-10 1 14 8 1 -22 -14 -17
-10 -9 -9 -14 -20 -26 -39 -37
-12 -9 0 -4 -12 -21 -24 -22
-11 -7 9 4 -4 -17 -14 -14
-10 -9 2 -7 -12 -21 -23 -21
-8 -5 -3 -12 -17 -20 -26 -21
-13 4 16 5 1 -17 -4 -7
-17 -2 7 -2 -9 -22 -22 -22
-20 -6 2 -5 -12 -23 -28 -26
-21 -2 9 0 -5 -21 -20 -20
-21 2 14 5 1 -21 -15 -18
-23 -11 -3 -9 -15 -22 -36 -34
-22 -10 6 -1 -8 -18 -22 -20
-13 2 9 2 -5 -20 -17 -17
-7 7 -1 -11 -16 -26 -29 -26
-1 2 -7 -17 -23 -26 -32 -27
-3 12 14 1 -4 -22 -7 -9
-16 -4 10 0 -8 -22 -18 -19
-21 -10 9 1 -7 -19 -20 -19
-18 -5 13 3 -1 -17 -14 -15
-21 -8 14 4 0 -22 -15 -17
-18 -16 -6 -13 -19 -24 -39 -33
-16 -10 2 -8 -13 -22 -25 -21
-17 -3 2 -9 -13 -25 -22 -21
-16 -2 -3 -14 -20 -28 -29 -26
-15 -1 -6 -17 -24 -26 -32 -27
-17 7 13 3 -6 -24 -9 -12
-23 3 5 -8 -14 -28 -23 -24
-22 -1 1 -12 -19 -29 -31 -30
-16 0 5 -8 -16 -31 -26 -26
-14 -3 7 -6 -11 -34 -26 -27
-14 -17 -15 -23 -31 -36 -50 -45
-17 -14 -2 -9 -20 -27 -32 -27
-21 -6 2 -6 -16 -27 -26 -24
-20 -5 -3 -12 -21 -27 -32 -27
-14 -5 -7 -13 -27 -28 -34 -27
-13 5 13 -1 -10 -25 -11 -10
-12 4 7 -10 -16 -29 -23 -22
-16 -3 4 -11 -18 -29 -27 -24
-26 -4 10 -6 -12 -27 -19 -20
-33 -1 14 -1 -6 -27 -15 -18
-31 -9 -11 -20 -27 -32 -42 -38
-19 -2 -3 -11 -20 -28 -30 -26
-17 7 1 -11 -17 -28 -24 -22
-19 2 -4 -18 -25 -31 -33 -28
-15 -5 -8 -21 -29 -32 -35 -29
-12 1 11 -5 -13 -32 -14 -14
-8 0 4 -13 -20 -34 -27 -26
-9 -4 3 -12 -20 -33 -32 -27
-18 -6 12 -5 -10 -28 -20 -18
-26 -7 16 1 -4 -29 -16 -17
-26 -19 -5 -17 -24 -31 -42 -35
-22 -12 1 -12 -18 -29 -30 -23
-22 -6 7 -8 -14 -27 -23 -19
-26 -3 1 -14 -21 -30 -32 -25
-29 -4 -6 -20 -30 -30 -37 -29
-28 4 14 -3 -13 -28 -14 -11
-24 -4 4 -16 -22 -34 -28 -25
-17 -4 0 -19 -25 -36 -35 -29
-13 -4 5 -13 -19 -34 -26 -25
-17 -13 12 -5 -10 -33 -22 -21
-20 -24 -7 -18 -27 -34 -43 -36
-20 -20 0 -12 -22 -31 -31 -24
-20 -13 6 -11 -17 -28 -23 -19
-19 -9 0 -17 -25 -31 -32 -26
-22 -10 -6 -23 -31 -30 -36 -27
-24 -3 15 -6 -12 -28 -13 -9
-23 -12 7 -12 -19 -32 -28 -23
-16 -19 2 -12 -23 -35 -34 -28
-16 -14 11 -5 -13 -31 -25 -20
-18 -11 16 -1 -9 -33 -22 -20
-17 -20 -4 -18 -26 -35 -44 -37
-22 -16 7 -9 -16 -29 -26 -20
-28 -12 11 -9 -15 -29 -22 -16
-24 -9 2 -16 -24 -32 -32 -24
-22 -11 -4 -19 -29 -30 -35 -25
-24 -3 16 -3 -12 -28 -14 -9
-24 -8 9 -10 -18 -32 -26 -21
-24 -18 4 -13 -21 -34 -32 -26
-19 -21 11 -6 -14 -31 -24 -19
-17 -16 15 1 -10 -35 -21 -19
-16 -22 -8 -21 -30 -39 -46 -38
-16 -16 1 -17 -23 -33 -30 -24
-20 -15 10 -11 -17 -30 -21 -15
-20 -17 2 -16 -24 -33 -29 -22
-16 -13 -3 -20 -29 -31 -34 -24
-18 -2 16 -3 -11 -27 -11 -7
-16 -2 7 -11 -20 -34 -29 -22
-17 -7 3 -14 -22 -34 -34 -26
-18 -7 7 -13 -19 -34 -30 -23
-20 -5 13 -4 -12 -34 -24 -21
-17 -13 -7 -19 -29 -35 -47 -38
-8 -10 1 -16 -24 -32 -34 -26
-5 -9 9 -9 -17 -31 -25 -18
-13 -13 4 -10 -21 -30 -30 -22
-12 -9 1 -14 -24 -26 -31 -21
-12 3 23 3 -3 -22 -6 -2
-17 -2 14 -5 -12 -25 -22 -16
-18 -9 10 -8 -15 -26 -27 -21
-22 -8 17 -2 -8 -25 -21 -15
-29 -4 20 3 -2 -25 -17 -15
-20 -7 -1 -14 -22 -27 -40 -32
-15 -2 6 -7 -17 -26 -28 -21
-10 0 12 -2 -12 -26 -21 -15
-13 -5 7 -10 -17 -27 -28 -20
-12 -3 -1 -16 -23 -25 -32 -21
-7 13 21 4 -1 -20 -5 1
-4 11 10 -3 -6 -22 -16 -11
-3 10 4 -9 -10 -22 -23 -16
0 8 8 -6 -6 -23 -16 -10
4 7 8 -4 -4 -26 -16 -12
9 -1 -15 -22 -24 -29 -41 -30
11 -2 -8 -16 -19 -26 -27 -17
11 4 -3 -14 -16 -27 -21 -12
4 5 -5 -16 -19 -26 -25 -16
-4 -3 -7 -17 -22 -21 -25 -14
-5 2 16 4 -2 -17 1 6
0 4 5 -3 -12 -26 -16 -10
-2 1 -4 -14 -20 -30 -27 -19
-6 0 4 -10 -13 -28 -18 -12
-6 -1 8 -6 -8 -30 -16 -14
-1 -10 -16 -25 -30 -34 -42 -34
3 -4 -7 -16 -24 -30 -28 -19
-2 2 0 -12 -19 -30 -20 -14
-9 0 -7 -21 -27 -32 -31 -21
-4 -8 -11 -25 -32 -31 -33 -19
-5 -1 12 -5 -12 -28 -9 -2
-7 -4 5 -12 -20 -34 -24 -17
-9 -10 1 -15 -23 -34 -30 -20
-10 -13 7 -11 -19 -33 -24 -16
-16 -10 13 -7 -13 -36 -21 -18
-21 -18 -12 -29 -37 -43 -50 -39
-21 -14 -4 -23 -31 -40 -39 -29
-19 -12 2 -20 -29 -41 -34 -27
-19 -16 -4 -23 -35 -42 -43 -34
-14 -15 -10 -31 -41 -41 -47 -35
-13 -14 16 -10 -18 -35 -18 -12
-11 -22 9 -15 -26 -38 -31 -24
-12 -22 5 -17 -26 -38 -34 -26
-24 -21 12 -9 -19 -36 -25 -20
-27 -15 17 -7 -14 -37 -22 -18
-20 -20 -5 -26 -34 -43 -47 -38
-16 -20 3 -19 -27 -38 -35 -25
-7 -18 7 -15 -25 -38 -29 -21
-7 -21 0 -22 -31 -40 -37 -29
-6 -22 -7 -30 -39 -40 -43 -32
-4 -8 16 -12 -20 -37 -20 -15
-10 -8 5 -21 -30 -44 -36 -30
-8 -7 0 -23 -32 -44 -42 -34
-3 -6 7 -16 -26 -43 -33 -28
-8 -14 11 -12 -20 -43 -29 -27
-7 -23 -10 -29 -38 -47 -52 -43
-8 -18 3 -19 -27 -40 -34 -27
-14 -17 11 -12 -21 -38 -25 -19
-17 -18 3 -19 -28 -39 -33 -25
-15 -18 -3 -27 -35 -38 -39 -27
-14 -5 16 -12 -18 -36 -18 -12
-19 -12 6 -17 -26 -42 -33 -25
-23 -19 0 -22 -31 -42 -40 -32
-25 -20 3 -19 -28 -41 -36 -28
-26 -19 11 -10 -19 -40 -29 -24
-26 -29 -8 -27 -35 -42 -50 -39
-23 -20 5 -15 -23 -36 -32 -23
-21 -14 9 -12 -20 -35 -27 -19
-18 -11 1 -18 -30 -39 -36 -28
-18 -9 -5 -25 -35 -38 -41 -29
-19 -3 17 -9 -16 -34 -16 -11
-25 -4 11 -12 -21 -34 -26 -20
-24 -7 4 -19 -27 -37 -35 -27
-23 -14 7 -17 -23 -37 -31 -23
-25 -14 13 -10 -16 -37 -24 -21
-25 -24 -8 -24 -33 -39 -47 -38
-19 -25 5 -11 -22 -33 -32 -24
-12 -28 12 -2 -18 -37 -29 -22
-3 -31 4 -6 -27 -48 -46 -38
8 -28 1 -1 -27 -48 -53 -43
10 -21 29 31 3 -40 -25 -22
6 -28 23 35 2 -41 -39 -36
1 -30 19 42 5 -37 -43 -40
3 -26 18 54 18 -30 -34 -34
12 -21 13 64 35 -13 -15 -20
33 -23 -26 40 27 5 -19 -22
56 1 -39 37 43 34 19 12
78 28 -56 12 57 66 59 46
99 47 -86 -34 57 98 86 69
117 79 -114 -77 63 142 123 102
130 130 -115 -106 99 196 201 165
139 172 -156 -182 90 232 230 191
150 207 -194 -258 75 264 264 223
147 242 -216 -308 80 308 314 268
138 277 -231 -344 90 346 356 301
135 297 -264 -394 73 377 367 311
128 317 -268 -414 83 417 415 350
123 338 -269 -424 95 454 455 380
123 339 -269 -425 102 482 471 386
118 311 -255 -403 119 513 485 387
109 286 -202 -334 168 536 519 398
100 241 -185 -294 170 517 489 363
89 189 -169 -261 152 464 435 317
82 158 -142 -222 134 395 378 273
54 135 -111 -180 121 322 315 223
25 104 -108 -162 85 251 223 156
16 82 -76 -125 75 195 179 128
8 65 -54 -92 62 142 137 100
6 52 -48 -76 40 99 89 67
10 48 -45 -69 20 67 56 45
10 52 -14 -38 35 57 70 55
7 44 -14 -32 31 51 54 41
1 29 -11 -23 31 49 48 36
3 22 -5 -15 32 43 47 35
1 21 4 -7 36 34 46 31
-2 6 -15 -20 14 25 14 8
1 0 -2 -6 22 28 26 20
-1 1 4 0 20 19 25 19
-2 1 -5 -7 6 8 5 5
3 4 -10 -12 -4 4 -4 0
2 17 15 9 18 4 21 18
1 13 10 4 10 -2 3 4
-2 0 7 4 6 -5 -3 -1
-6 -2 12 13 10 -7 1 2
-5 1 18 21 14 -13 2 1
1 -5 -3 -2 -8 -21 -27 -21
5 0 3 3 -5 -18 -17 -12
10 4 10 8 -2 -21 -11 -8
3 -1 4 4 -9 -22 -20 -14
-2 -2 1 4 -12 -17 -23 -13
-5 11 25 26 10 -13 5 10
-12 5 11 12 -2 -22 -15 -8
-14 -5 7 9 -4 -21 -21 -13
-9 -9 15 14 2 -19 -13 -8
-15 -5 23 22 11 -20 -7 -5
-8 -14 1 6 -10 -25 -34 -26
4 -16 6 11 -6 -23 -23 -15
2 -12 13 16 0 -22 -14 -8
-9 -8 7 16 -6 -23 -22 -13
-7 -10 -1 8 -14 -22 -29 -17
-3 5 20 26 6 -19 -3 2
-5 7 11 17 -1 -25 -20 -11
-6 1 5 12 -5 -23 -27 -17
-10 -1 13 19 4 -20 -17 -9
-15 1 19 27 10 -20 -11 -7
-7 -12 0 14 -7 -22 -34 -24
-6 -17 12 21 2 -17 -17 -10
-2 -6 12 21 1 -20 -16 -10
1 -7 8 20 -1 -20 -21 -14
3 -10 4 14 -6 -17 -24 -13
5 4 25 35 15 -14 3 7
-2 4 15 26 6 -19 -13 -8
-4 1 8 18 1 -20 -21 -15
-1 -1 12 24 6 -18 -15 -11
0 1 19 33 13 -18 -10 -8
1 -12 -2 17 -5 -23 -35 -27
6 -11 9 27 5 -16 -18 -12
10 -5 13 29 8 -16 -11 -8
11 -4 7 24 3 -18 -20 -14
14 -2 1 20 -3 -17 -23 -15
9 10 23 38 20 -13 4 4
0 10 14 33 12 -17 -10 -8
-6 2 12 33 11 -13 -13 -10
-4 3 15 35 16 -10 -8 -7
1 5 21 42 24 -11 -3 -5
4 -12 -3 22 1 -19 -32 -28
11 -16 2 28 7 -14 -20 -18
13 -6 8 35 12 -14 -13 -13
12 -7 4 36 7 -15 -19 -18
20 -1 0 35 2 -11 -22 -18
17 12 23 54 27 -4 8 5
5 13 18 45 23 -5 -1 -4
3 10 13 43 22 -1 -5 -7
5 9 15 47 28 1 2 -1
-2 7 20 54 36 -1 6 -2
-4 -5 -1 38 15 -5 -19 -22
4 -7 2 46 20 -2 -10 -12
10 -2 8 51 25 -1 -3 -7
5 -3 7 49 24 1 -6 -9
7 -5 -1 42 17 2 -12 -11
20 8 19 63 36 4 16 8
21 13 10 59 30 1 2 -6
18 14 7 55 30 3 -1 -8
17 13 16 63 40 9 8 -1
14 10 21 71 48 8 14 0
13 -2 1 58 31 8 -9 -17
11 -1 12 70 43 18 8 -1
14 4 14 74 45 17 12 1
16 2 11 73 43 17 8 -2
22 1 1 67 36 19 2 -5
28 16 23 89 58 23 29 15
27 12 17 84 54 21 19 5
25 6 11 79 50 20 13 0
28 8 14 84 56 22 19 5
26 10 23 94 67 23 28 9
29 3 1 79 49 21 2 -10
31 2 8 91 56 27 17 3
30 1 13 99 61 28 23 10
29 3 9 93 57 29 20 7
29 4 4 89 52 33 16 5
21 19 23 107 72 37 42 26
24 25 12 99 64 30 26 11
29 22 6 94 59 28 18 4
37 19 11 101 67 33 27 10
40 17 22 113 77 34 36 16
40 2 -2 97 57 27 9 -4
40 -7 9 108 68 36 26 12
28 -5 20 121 77 41 39 23
21 -2 12 111 69 40 28 15
26 -1 4 107 61 42 21 14
29 12 25 124 81 43 49 36
31 16 11 107 68 32 29 17
33 15 8 104 65 33 24 13
31 13 14 110 72 36 32 20
30 12 23 117 81 35 40 24
37 9 -1 94 57 29 11 2
41 11 4 99 60 30 21 12
43 18 10 104 62 31 30 19
42 16 5 96 57 29 24 15
38 10 -3 83 47 30 18 13
22 15 27 105 74 38 50 39
5 8 21 96 66 35 38 28
9 3 13 87 57 31 27 20
16 5 15 86 57 28 30 21
16 7 20 85 60 24 33 22
14 -2 1 67 37 19 7 3
11 -3 8 66 41 22 18 14
12 5 14 65 42 18 22 17
18 9 10 58 34 14 14 11
24 6 0 40 19 9 3 4
21 14 19 52 34 8 25 20
20 13 11 43 24 1 10 8
11 5 6 36 20 1 1 1
4 5 14 38 26 4 9 8
-3 6 21 42 31 0 13 9
-1 -13 -2 21 8 -5 -17 -12
-4 -15 9 26 15 2 -2 2
-5 -6 14 26 16 -2 3 6
1 -1 7 19 7 -8 -7 -2
4 -3 1 9 -3 -9 -13 -5
3 4 21 28 15 -6 11 13
-4 2 15 21 7 -11 -2 1
-7 -4 7 9 0 -13 -12 -7
-8 -6 12 11 5 -12 -6 -3
-9 -4 18 16 11 -15 0 -1
-6 -11 -6 -5 -11 -20 -30 -23
-4 -8 1 1 -6 -15 -18 -12
-3 -1 7 5 -2 -17 -12 -8
-2 0 1 2 -9 -19 -20 -13
1 -2 -3 -4 -16 -17 -24 -14
1 4 18 13 3 -14 2 5
5 1 10 4 -4 -20 -11 -8
-1 -2 9 3 -4 -16 -14 -9
-12 -5 16 9 3 -13 -6 -2
-16 -7 23 18 13 -13 2 1
-15 -17 0 0 -8 -18 -26 -20
-20 -17 9 7 -1 -9 -12 -6
-21 -9 16 12 2 -12 -6 -2
-11 -7 7 1 -9 -17 -17 -11
2 -7 -3 -8 -18 -20 -25 -16
1 5 21 11 3 -16 3 5
-2 3 13 5 -3 -20 -10 -7
-3 -3 10 3 -5 -18 -15 -11
-2 -1 14 5 0 -16 -9 -6
-3 0 19 10 6 -18 -4 -5
-1 -10 -5 -10 -16 -24 -32 -27
4 -14 -1 -6 -13 -21 -23 -17
7 -8 7 1 -8 -20 -15 -10
-1 -11 5 4 -11 -19 -19 -13
-6 -13 -2 -6 -17 -16 -25 -16
-9 -3 19 13 3 -12 1 4
-8 -4 11 5 -6 -19 -13 -10
-8 -11 8 3 -7 -15 -18 -12
-9 -9 15 12 3 -11 -8 -4
-13 -4 22 20 10 -14 -2 -3
-9 -11 -1 0 -11 -19 -29 -23
-6 -13 4 2 -7 -14 -19 -13
-6 -9 9 5 -3 -14 -12 -8
-3 -4 4 2 -10 -17 -19 -14
1 -8 -6 -9 -20 -18 -28 -18
0 -1 13 6 -2 -14 -3 1
-1 -1 5 1 -7 -20 -15 -11
-3 -10 0 -3 -12 -19 -23 -17
-3 -11 8 4 -2 -15 -12 -9
-9 -10 18 15 8 -14 -4 -5
-10 -18 -7 -3 -14 -21 -33 -28
-3 -8 1 2 -7 -14 -19 -14
3 -1 11 11 1 -13 -9 -6
3 -3 6 6 -7 -16 -16 -13
2 -4 -4 -4 -17 -17 -25 -17
-2 4 18 13 4 -13 0 3
-8 0 14 10 0 -15 -9 -6
-13 -7 12 9 -1 -11 -11 -7
-15 -5 16 12 5 -9 -6 -3
-10 3 20 17 8 -14 -2 -3
-7 -9 -4 -4 -15 -22 -30 -24
-4 -10 4 2 -8 -17 -18 -14
0 1 10 10 -3 -18 -10 -8
2 0 5 8 -9 -20 -17 -14
6 -5 -3 -3 -18 -19 -24 -17
0 5 22 18 5 -12 5 5
-1 2 11 11 -5 -18 -11 -10
4 -3 5 6 -9 -19 -18 -16
0 -5 9 6 -6 -18 -14 -12
-1 -1 14 13 1 -19 -9 -10
-2 -9 -4 -3 -15 -19 -31 -26
-8 -14 6 8 -5 -10 -15 -10
-10 -9 17 18 3 -7 -4 0
-8 -6 9 9 -4 -12 -12 -9
-6 -7 -2 0 -17 -15 -22 -15
-1 5 19 15 2 -12 3 5
-2 7 8 6 -8 -18 -14 -12
-1 4 0 -1 -13 -20 -23 -19
-2 3 7 5 -7 -17 -15 -12
-9 0 16 14 3 -15 -6 -8
-12 -12 -5 -4 -16 -19 -32 -27
-13 -12 2 3 -11 -15 -19 -15
-11 -4 7 10 -7 -15 -12 -9
-10 -3 6 7 -10 -16 -16 -14
-6 -6 -6 -4 -21 -19 -27 -20
0 5 17 16 -1 -13 1 1
2 3 13 9 -6 -17 -9 -9
-1 -2 5 1 -12 -22 -20 -18
2 -3 9 6 -7 -19 -12 -12
2 0 14 11 -1 -23 -9 -12
0 -11 -10 -7 -23 -27 -37 -35
-6 -8 1 1 -14 -19 -21 -19
-17 -7 11 10 -5 -15 -9 -8
-17 -10 9 6 -9 -15 -15 -14
-10 -14 1 -1 -18 -15 -21 -17
-6 0 20 14 0 -15 2 1
-2 6 12 11 -8 -21 -10 -12
-9 -1 9 13 -8 -18 -15 -14
-10 -5 13 15 -5 -17 -10 -11
-6 -1 18 15 1 -22 -6 -11
-2 -12 -10 -11 -26 -32 -38 -35
3 -6 -5 -5 -22 -27 -29 -24
-2 -2 6 5 -14 -24 -18 -14
-6 -3 0 -2 -21 -26 -27 -20
0 -4 -8 -11 -30 -26 -35 -25
4 -1 14 7 -8 -22 -7 -3
8 -1 6 2 -15 -27 -20 -16
6 -3 2 2 -17 -26 -24 -19
-11 -5 10 6 -9 -20 -15 -11
-26 -3 21 15 2 -18 -4 -4
-22 -11 -2 -3 -21 -22 -31 -25
-12 -12 -1 -2 -21 -23 -26 -19
-9 -6 6 2 -17 -23 -18 -12
-10 -3 0 0 -20 -24 -23 -17
-9 -1 -10 -10 -30 -23 -33 -22
-6 8 14 10 -8 -18 -5 0
-5 5 7 7 -16 -23 -19 -13
-6 3 1 -1 -19 -25 -26 -19
-8 6 6 1 -16 -25 -21 -15
-13 8 13 8 -7 -25 -13 -11
-13 -9 -4 -6 -23 -27 -36 -28
-11 -11 4 -1 -18 -23 -23 -15
-9 -6 8 3 -16 -24 -17 -11
-7 -1 5 1 -21 -26 -23 -15
-7 -5 -8 -14 -33 -28 -35 -24
-8 -1 14 6 -13 -23 -10 -4
-9 4 8 3 -18 -28 -22 -16
-9 8 1 -5 -22 -28 -30 -21
-15 6 9 3 -14 -25 -20 -12
-17 0 19 13 -4 -25 -10 -7
-10 -10 -4 -5 -25 -30 -38 -28
-7 -11 5 4 -17 -24 -24 -15
-13 -11 9 8 -15 -27 -18 -11
-12 -9 4 2 -21 -29 -25 -17
-6 -7 -8 -9 -30 -28 -35 -23
-10 3 16 10 -9 -22 -8 -2
-12 1 12 5 -14 -25 -18 -12
-11 -8 4 -3 -19 -28 -28 -20
-10 -11 6 0 -16 -26 -24 -17
-12 -7 15 8 -7 -27 -15 -11
-15 -16 -6 -6 -25 -30 -40 -30
-13 -12 4 2 -18 -23 -25 -15
-10 -5 12 4 -13 -23 -15 -8
-9 -6 5 -2 -23 -27 -25 -17
-5 -9 -5 -10 -32 -28 -34 -23
-6 0 14 8 -14 -25 -11 -4
-5 -2 5 0 -23 -32 -24 -18
-6 -7 0 -4 -26 -33 -32 -23
-14 -13 5 1 -18 -26 -25 -16
-19 -13 17 12 -7 -24 -15 -10
-17 -18 -5 -7 -28 -27 -40 -30
-11 -15 2 -1 -22 -24 -29 -17
-9 -11 12 9 -15 -22 -17 -10
-7 -8 6 0 -23 -28 -26 -18
0 -5 -6 -9 -35 -28 -38 -25
-2 4 16 9 -12 -24 -9 -4
-5 7 8 2 -20 -31 -22 -19
-7 2 3 -2 -24 -31 -30 -24
-9 -3 6 1 -20 -29 -26 -21
-11 -7 15 8 -11 -29 -19 -17
-13 -18 -2 -6 -25 -29 -39 -32
-16 -14 4 2 -19 -22 -26 -18
-13 -6 11 8 -14 -22 -18 -13
-10 -5 7 4 -21 -26 -24 -19
-10 -6 -4 -8 -32 -28 -35 -25
-7 4 19 10 -12 -24 -9 -5
-12 -2 15 5 -15 -27 -17 -14
-10 -5 8 -2 -23 -30 -27 -22
-4 2 7 -2 -22 -32 -27 -22
-7 0 12 5 -16 -34 -21 -20
-11 -9 -8 -8 -32 -34 -45 -36
-7 -7 1 3 -25 -27 -30 -23
-13 -4 9 6 -18 -23 -21 -15
-14 -8 8 5 -20 -22 -24 -18
-10 -14 -1 0 -27 -21 -32 -22
-13 -2 22 15 -6 -16 -5 -1
-11 -1 17 10 -11 -20 -15 -11
-9 -9 10 6 -17 -23 -24 -19
