I II V1 V2 V3 V4 V5 V6
2 4 7 14 14 1 -7 -4
2 1 4 13 12 1 -8 -5
1 2 3 12 11 0 -9 -7
0 0 4 13 12 1 -8 -3
2 -1 4 14 13 3 -7 -1
-1 -9 -1 11 11 -2 -11 -5
-4 -4 1 12 11 -3 -11 -5
-5 -1 2 14 13 0 -7 -3
-5 -2 2 14 13 0 -9 -4
5 -2 3 15 15 0 -9 -4
13 6 6 17 16 3 -6 -3
2 1 4 17 16 5 -5 -2
-2 2 4 18 17 6 -5 0
5 3 4 18 16 8 -3 1
1 0 4 19 18 8 -4 0
-2 -6 1 18 18 5 -8 -1
0 -5 1 19 19 4 -9 -3
1 -2 3 21 21 5 -6 -2
-1 -1 3 22 22 6 -8 -3
-1 -3 3 22 23 7 -7 -1
4 3 6 24 24 9 -4 0
8 2 4 22 22 9 -5 -1
4 2 4 23 23 11 -5 0
6 5 6 26 25 13 -2 4
5 3 3 25 25 11 -5 0
1 -3 0 24 25 9 -8 -2
3 1 0 25 26 10 -8 -2
3 0 1 28 28 10 -6 0
3 1 2 30 31 13 -6 0
5 1 4 33 34 15 -4 3
6 5 7 36 34 18 1 5
5 3 7 36 36 20 1 6
-2 0 6 36 35 21 -1 5
9 2 4 36 35 19 -1 4
11 3 4 37 36 19 -3 3
5 -2 0 36 37 16 -7 -1
6 4 4 41 41 19 -5 2
9 7 6 44 45 22 -2 5
9 7 6 45 46 23 -2 2
8 4 5 46 48 26 -1 3
12 9 7 49 48 27 1 3
13 9 5 49 48 28 1 6
11 7 2 49 48 29 1 7
11 6 5 51 51 31 5 10
10 6 5 53 53 34 5 11
7 0 1 51 54 32 0 6
10 5 3 55 57 34 1 5
14 8 5 59 60 35 3 7
13 7 4 59 62 36 0 7
15 8 5 61 62 37 1 7
15 12 8 64 63 40 5 10
15 7 6 62 62 39 2 9
15 9 4 60 61 38 1 8
14 8 6 63 63 40 4 9
13 6 3 62 62 39 3 7
14 1 -1 60 61 36 -2 4
14 6 1 62 63 38 -1 5
12 7 4 67 67 40 3 8
14 8 5 68 68 40 0 8
13 10 5 68 69 40 0 8
16 14 8 68 68 41 3 9
12 10 6 67 67 41 2 10
14 9 4 65 64 40 1 9
18 8 2 64 64 39 2 10
16 5 2 63 62 37 0 10
13 2 -1 62 62 34 -3 7
13 6 1 63 63 35 -2 9
15 9 1 64 63 35 -1 9
15 11 2 65 63 35 -1 9
17 11 2 64 62 34 -2 8
18 12 6 65 64 38 3 10
20 10 6 64 63 37 2 12
15 9 4 61 61 36 1 11
18 11 4 59 59 34 3 12
13 10 4 58 58 33 2 12
11 5 0 54 54 30 -2 11
16 10 3 53 53 30 0 11
14 8 2 52 52 29 1 11
9 11 5 52 53 30 2 14
9 12 5 51 51 29 4 14
17 17 6 49 49 30 7 16
19 17 4 44 45 28 7 15
15 17 4 42 41 27 6 16
13 11 2 39 37 23 6 15
6 10 3 39 36 23 7 18
5 6 1 35 34 21 4 17
5 8 2 33 32 19 4 16
2 8 4 33 32 19 7 18
1 6 1 28 26 15 4 15
2 6 1 25 25 14 5 14
6 12 4 24 21 14 6 14
4 9 3 20 21 14 7 16
9 10 1 18 17 13 5 14
-2 8 4 19 18 15 9 16
2 7 2 15 15 12 7 15
3 -2 -2 10 11 7 2 13
0 1 1 10 10 5 1 11
2 3 2 12 10 4 3 12
-2 -1 0 8 7 2 0 9
-2 -3 -1 8 6 3 0 8
2 5 3 10 7 5 3 11
0 3 2 6 6 4 2 11
2 2 0 3 2 3 -1 9
1 3 0 2 0 2 -1 8
-1 1 0 1 -1 -1 -1 8
-4 -3 0 0 -1 -2 -2 8
-1 3 1 1 -2 -3 -3 7
0 0 1 0 -1 -3 -2 8
-2 -1 2 -1 -2 -3 -3 8
-6 -5 0 -2 -4 -4 -5 6
1 1 3 0 -3 -2 -1 7
0 -2 -1 -3 -5 -3 -2 6
0 -1 0 -3 -6 -3 -2 6
3 1 1 -2 -5 -1 0 8
0 -1 3 -1 -5 -2 0 9
-4 -6 -1 -5 -6 -5 -4 6
-5 -2 0 -4 -7 -7 -5 5
-4 -5 0 -4 -6 -8 -5 4
-3 -5 1 -4 -5 -7 -5 4
4 -4 -2 -8 -9 -10 -9 -1
4 -2 2 -5 -9 -8 -7 2
-3 -4 3 -4 -6 -6 -5 4
-4 -5 2 -6 -8 -6 -7 3
-4 -7 1 -5 -9 -7 -6 3
-4 -6 2 -6 -9 -8 -6 2
-8 -11 -1 -8 -9 -9 -9 0
-6 -6 2 -4 -7 -8 -8 1
-2 -5 3 -2 -5 -7 -7 2
-3 -6 2 -4 -7 -8 -9 0
-1 -3 3 -2 -4 -5 -8 2
3 0 4 -3 -7 -6 -6 3
-2 -6 2 -4 -6 -5 -5 4
-2 -6 1 -5 -8 -7 -8 0
-3 -8 0 -5 -8 -7 -7 1
-8 -7 1 -4 -8 -8 -7 2
-10 -10 1 -3 -6 -8 -8 3
-5 -6 3 -2 -6 -8 -9 1
-4 -4 5 1 -2 -6 -6 3
-4 -3 4 0 -3 -5 -8 2
-1 -1 3 0 -4 -5 -7 1
3 4 6 3 -1 -1 -3 4
-7 -3 7 4 0 2 0 6
-3 -4 4 1 -3 -1 -2 5
-2 -5 3 1 -3 -2 -2 6
-4 -5 2 0 -3 -4 -2 6
-3 -5 0 -1 -4 -6 -5 5
-7 -2 1 -1 -4 -5 -5 2
-4 -1 3 1 -1 -3 -3 3
0 -4 4 3 1 0 -3 4
-5 -6 6 5 3 2 -2 5
4 3 6 4 3 2 -1 5
4 0 5 3 2 2 -2 5
-1 -1 4 3 0 4 -1 6
0 1 4 3 1 4 1 8
1 -1 2 2 -1 1 -1 7
-1 -5 0 2 -1 1 -3 4
1 -1 1 4 1 1 -2 5
-6 -5 3 6 3 2 -1 6
-7 -5 3 5 2 1 -2 5
-1 -2 2 4 1 2 -1 4
-1 5 5 6 4 5 3 9
1 2 5 7 4 7 4 10
1 1 3 5 2 6 4 8
7 0 1 4 2 6 2 7
-3 -2 3 6 4 7 4 9
-6 -6 0 4 1 5 0 6
0 0 0 4 1 4 0 6
-3 -1 4 6 3 6 2 7
0 -2 3 4 1 3 -1 5
0 -2 3 6 3 5 0 6
2 3 5 7 4 7 2 8
5 3 4 6 2 7 2 8
2 2 4 5 2 7 3 8
2 0 4 6 2 8 5 10
5 1 4 6 3 8 5 10
1 -3 3 5 3 7 3 9
3 -2 2 4 1 4 1 8
2 -2 2 5 3 5 3 9
-4 -4 3 6 4 5 3 8
1 0 3 6 3 5 3 8
6 5 7 8 4 7 6 11
5 1 4 4 1 5 3 8
2 3 5 5 3 7 3 8
4 2 3 3 0 6 2 8
4 2 3 3 1 5 2 8
2 1 1 2 0 3 0 7
-2 -1 3 4 3 5 2 7
3 2 5 6 4 6 3 7
0 -1 5 4 3 4 1 5
1 -1 3 3 0 4 -2 4
5 5 8 6 3 6 2 6
3 -1 7 5 2 6 2 8
-1 -4 5 2 1 5 1 6
0 -2 5 2 -1 3 2 7
-2 -4 4 1 -1 3 0 6
-2 -6 2 0 -2 1 -1 6
-2 -2 5 2 1 3 2 8
-1 -2 4 2 -1 2 0 6
-2 -2 4 2 0 3 0 5
-1 -4 3 1 -2 2 -3 3
5 1 4 2 -2 3 -1 4
-3 -2 5 2 -1 4 0 6
-7 -7 3 -1 -4 2 -2 3
-11 -9 5 1 -2 4 1 4
-7 -7 3 -1 -3 1 -2 2
-4 -9 1 -1 -4 0 -5 1
-3 -5 2 1 -2 1 -4 1
-4 -7 3 1 -4 1 -4 1
-5 -6 5 1 -2 1 -4 2
-4 -4 6 3 -1 3 -2 4
2 0 6 1 -3 3 -1 2
3 -2 5 -1 -4 1 -2 2
-4 -4 5 -1 -3 1 -2 2
-3 -3 3 -2 -5 0 -3 1
-1 -3 4 -2 -5 0 -3 2
-5 -7 1 -4 -7 -2 -6 -1
-2 -2 3 -1 -4 1 -4 1
-3 -2 4 1 -3 3 -2 2
-3 -5 4 0 -4 2 -4 1
0 -2 5 1 -2 4 -4 1
3 3 7 3 -1 5 -1 3
1 0 7 2 -2 4 -1 5
2 2 6 -1 -3 3 -3 3
2 -3 5 -1 -4 2 -2 4
1 -3 4 0 -5 2 -3 3
-2 -5 6 -1 -4 2 -4 2
-2 -2 7 -1 -3 2 -3 2
3 2 8 2 -1 4 -1 4
4 4 10 2 0 6 -1 3
7 8 10 2 1 7 0 5
11 12 12 4 2 9 2 6
7 10 12 4 2 10 2 7
6 15 12 3 2 10 2 6
2 16 14 5 4 13 6 9
6 16 13 5 3 11 5 9
11 15 12 3 2 10 2 7
2 15 13 4 3 9 3 6
3 12 12 4 2 8 2 5
4 16 14 7 5 12 6 7
5 16 12 4 3 11 5 7
9 23 15 6 5 13 9 11
11 21 15 5 4 14 9 12
9 19 13 4 3 14 9 12
13 23 12 5 4 14 11 13
18 22 10 5 5 15 11 13
10 17 10 8 8 19 11 13
7 18 11 9 9 19 11 15
9 16 5 8 7 17 10 12
8 15 6 11 10 20 13 13
13 16 5 8 8 18 10 10
17 18 6 7 6 17 10 10
16 15 5 5 3 15 8 8
11 10 4 3 0 13 7 8
12 10 4 0 -2 10 5 8
13 10 4 1 -2 9 5 8
8 6 1 -1 -2 9 4 6
11 8 1 -2 -3 7 2 3
12 5 1 0 -4 7 1 2
5 1 3 0 -4 7 0 0
6 1 4 -1 -4 8 1 0
5 2 7 0 -4 9 1 2
1 -1 6 -1 -5 9 1 1
6 -2 6 -3 -7 6 -2 1
7 -3 7 -2 -7 6 -2 0
4 -2 9 1 -5 7 -1 0
0 -9 6 -4 -9 2 -7 -5
-4 -9 6 -5 -10 0 -8 -8
-1 -8 7 -5 -11 1 -8 -9
-6 -10 9 -4 -10 3 -6 -7
-6 -8 8 -5 -11 0 -7 -8
-7 -7 9 -3 -10 1 -7 -6
-5 -12 6 -5 -13 0 -9 -10
-10 -14 8 -3 -11 3 -8 -7
-6 -11 8 -5 -14 1 -8 -9
-2 -12 6 -8 -15 -1 -11 -12
-3 -12 5 -7 -14 0 -10 -11
-6 -11 8 -5 -12 0 -9 -11
-3 -9 9 -5 -12 1 -10 -11
-2 -9 8 -5 -11 1 -9 -9
-3 -11 7 -5 -12 1 -10 -10
2 -5 9 -5 -11 1 -10 -11
-3 -9 7 -7 -12 1 -10 -12
-5 -14 9 -6 -11 1 -10 -11
-2 -12 9 -5 -11 1 -9 -11
-6 -12 8 -6 -12 1 -9 -11
-5 -12 7 -7 -13 1 -9 -12
-5 -11 7 -6 -12 0 -11 -12
-5 -11 7 -5 -13 1 -10 -13
-1 -10 6 -6 -13 0 -11 -15
-3 -8 6 -6 -12 1 -10 -16
-3 -6 8 -4 -10 2 -9 -13
-2 -7 7 -5 -11 3 -10 -14
-8 -11 7 -4 -10 4 -8 -11
-4 -10 8 -6 -12 1 -9 -12
-5 -12 7 -6 -13 1 -10 -13
-8 -16 4 -9 -14 -1 -13 -14
-7 -13 5 -8 -14 -2 -13 -14
-7 -11 5 -7 -14 1 -11 -15
-6 -12 5 -7 -13 2 -12 -15
-7 -10 7 -5 -11 4 -9 -13
-5 -8 11 -3 -9 7 -6 -10
1 -6 10 -3 -8 6 -6 -10
-4 -11 8 -5 -10 5 -8 -12
-9 -13 10 -1 -8 5 -9 -14
-8 -13 14 4 -6 5 -11 -17
-12 -18 17 10 -1 5 -15 -20
-13 -20 22 18 3 7 -16 -22
-13 -17 26 24 10 9 -15 -23
-14 -13 25 26 14 13 -11 -20
-8 -5 24 29 20 21 -3 -14
-3 5 26 35 28 32 6 -6
-3 12 25 39 36 40 14 1
-2 20 26 42 48 56 29 12
6 28 23 43 57 73 47 24
13 34 15 39 64 92 68 38
22 43 5 32 73 111 91 58
33 53 -6 19 74 129 115 76
42 61 -17 -9 62 145 141 98
52 71 -35 -56 34 154 170 121
63 75 -52 -100 2 163 195 141
73 87 -60 -137 -27 170 220 160
72 91 -71 -172 -56 173 234 170
73 98 -88 -204 -87 171 238 173
71 102 -109 -242 -124 158 232 170
62 102 -124 -273 -159 135 213 158
46 95 -131 -294 -186 102 178 140
29 88 -128 -304 -212 55 131 114
11 71 -124 -317 -243 -12 65 77
-14 39 -113 -318 -268 -88 -16 20
-36 2 -96 -307 -285 -155 -86 -34
-42 -19 -83 -288 -286 -195 -122 -65
-43 -29 -76 -264 -271 -203 -130 -77
-50 -36 -73 -239 -248 -192 -131 -84
-47 -41 -65 -211 -222 -172 -125 -86
-42 -46 -59 -186 -198 -154 -119 -86
-39 -50 -56 -168 -179 -140 -112 -84
-38 -43 -47 -146 -159 -123 -100 -76
-38 -39 -41 -128 -141 -107 -88 -70
-33 -31 -33 -108 -120 -89 -74 -61
-37 -23 -22 -90 -98 -72 -60 -50
-30 -18 -15 -74 -82 -60 -52 -45
-21 -16 -13 -60 -67 -48 -47 -42
-18 -13 -6 -43 -49 -32 -35 -33
-12 -11 -1 -30 -35 -19 -26 -28
-3 -10 3 -17 -25 -11 -20 -24
-9 -11 6 -9 -17 -2 -14 -19
-6 -7 9 -2 -11 3 -10 -16
0 -5 10 0 -9 2 -10 -16
-3 -5 10 1 -7 1 -10 -17
0 -2 10 1 -4 1 -10 -18
-1 -1 12 5 -1 4 -10 -18
-2 -5 12 5 1 5 -11 -20
3 -4 12 5 1 6 -9 -18
-1 -6 14 5 1 8 -7 -16
-1 -2 15 7 1 11 -5 -14
-2 -4 15 7 2 10 -4 -13
-1 -4 13 7 2 7 -6 -15
0 -3 14 9 2 8 -5 -14
2 -2 13 11 5 9 -5 -15
2 -1 14 12 7 10 -4 -15
1 0 15 14 10 13 -2 -15
1 -2 15 13 10 14 -3 -15
4 0 14 12 10 13 -2 -15
2 0 13 12 8 12 -2 -15
0 -2 12 11 5 11 -3 -14
-1 -7 11 11 5 11 -2 -15
0 -5 12 13 6 11 0 -13
1 -2 14 15 6 11 -1 -13
4 1 14 17 9 12 -2 -12
3 1 14 17 11 13 -1 -12
5 1 16 17 13 12 -1 -13
3 -2 15 16 12 13 -1 -13
2 -4 15 14 11 14 -2 -14
3 -1 17 16 11 15 0 -11
-3 -2 18 16 12 17 1 -10
-6 -7 14 13 8 15 -1 -12
-3 -3 15 15 9 15 0 -10
2 -1 15 15 8 14 -1 -12
4 -2 13 16 11 13 -2 -11
-3 -2 15 18 13 13 -1 -11
6 1 15 18 13 13 -1 -12
12 5 14 17 14 14 -1 -13
3 2 17 20 17 19 3 -10
3 1 16 19 15 18 1 -10
3 2 16 19 15 19 2 -9
1 -1 12 17 12 16 -2 -12
4 0 12 18 12 15 -3 -13
2 1 13 20 12 14 -3 -13
3 3 12 19 13 13 -5 -14
5 4 13 21 15 14 -4 -14
5 3 16 22 17 15 -3 -13
5 1 16 22 18 15 -4 -15
4 3 17 22 19 18 -2 -14
5 3 16 20 18 17 -1 -15
7 4 15 19 17 17 -2 -17
1 -1 13 18 15 16 -4 -18
1 -1 13 18 15 16 -3 -17
5 0 16 22 17 18 -1 -16
1 -3 16 24 20 18 0 -15
0 -2 15 24 21 17 -1 -17
5 1 15 22 20 16 -2 -19
1 -1 15 24 21 17 -1 -19
4 0 15 24 23 19 0 -18
5 1 15 25 23 21 0 -17
5 0 15 24 21 20 -1 -16
-1 0 14 25 21 20 -1 -16
-4 -1 15 26 21 20 0 -16
5 0 13 26 19 18 -2 -17
5 2 14 26 20 15 -3 -18
1 -2 14 29 23 16 -3 -19
1 1 17 31 26 19 -1 -16
3 1 16 31 26 20 -1 -17
3 0 15 31 26 21 -1 -18
10 3 15 31 27 22 -1 -17
4 1 17 31 27 24 1 -16
4 3 17 34 28 25 3 -12
7 5 16 33 27 22 2 -13
2 2 18 37 31 24 2 -13
6 3 17 37 33 23 1 -13
5 3 17 39 36 24 1 -14
9 4 17 40 36 24 1 -14
7 4 16 41 37 25 1 -15
3 4 16 41 38 27 2 -16
8 9 18 43 40 29 4 -12
10 8 19 45 41 30 5 -9
6 1 16 44 39 29 3 -11
8 5 17 47 41 30 4 -10
11 5 19 50 43 31 4 -11
6 5 20 53 46 31 5 -10
8 7 18 54 48 31 4 -11
9 7 19 55 50 32 4 -11
11 7 18 55 50 32 3 -14
11 6 19 58 53 35 4 -11
8 4 18 58 52 36 5 -10
8 7 18 59 52 38 6 -9
6 6 17 59 52 38 6 -9
10 6 17 60 53 38 6 -8
13 9 19 63 56 40 7 -7
12 10 19 66 59 39 8 -7
15 12 17 66 60 38 6 -9
17 11 17 67 62 38 6 -8
13 9 18 69 65 41 7 -8
15 11 17 69 66 44 8 -8
11 9 17 70 66 44 7 -8
6 9 18 71 65 44 6 -8
13 11 14 68 63 42 5 -8
15 10 15 70 63 41 6 -8
16 13 18 74 67 44 9 -5
18 12 15 74 66 41 7 -5
17 11 16 75 68 42 7 -5
20 13 19 78 71 45 9 -3
20 14 18 78 72 46 9 -4
22 14 16 76 70 46 7 -3
22 15 17 76 69 45 7 -2
16 13 18 76 68 45 8 -1
15 11 14 72 65 43 7 -3
12 13 15 73 66 43 7 -2
19 14 13 73 66 42 7 -3
22 16 15 75 67 41 8 -2
19 16 14 73 68 40 6 -2
18 18 15 75 69 39 7 -1
20 20 15 75 69 40 7 -3
21 18 14 72 66 38 5 -5
22 18 14 71 66 39 7 -4
19 17 15 70 63 39 7 -3
17 12 13 65 58 36 5 -5
21 16 11 63 57 34 5 -5
20 15 12 64 57 34 6 -4
14 12 13 64 57 33 8 -1
17 13 13 63 57 32 9 0
12 16 15 63 57 33 13 2
16 15 13 59 53 30 11 0
18 17 14 56 52 31 12 1
16 17 12 52 49 29 12 0
12 17 14 51 47 29 14 2
8 11 12 46 42 26 12 0
8 13 12 42 41 25 14 1
6 14 13 42 40 25 15 2
5 11 11 38 36 20 12 1
6 12 10 34 34 18 11 -1
8 12 11 33 33 19 13 0
8 11 11 30 32 18 12 1
10 15 11 28 29 16 12 1
9 13 9 23 24 14 10 -1
3 13 11 22 23 14 11 1
8 12 11 21 23 15 12 1
6 9 10 18 19 11 11 0
2 7 11 18 18 11 10 1
1 7 12 18 17 9 10 1
0 4 10 15 15 7 8 -2
2 6 12 15 15 7 11 -2
-3 2 12 15 15 7 10 -1
-1 2 10 11 12 5 8 -3
2 3 9 9 11 5 7 -3
0 2 9 7 7 4 7 -4
0 4 8 6 7 3 6 -3
-4 4 10 6 7 3 8 -2
-2 2 9 5 5 1 6 -6
0 2 9 6 6 0 8 -3
-2 2 8 3 4 -2 4 -5
-2 2 7 2 3 -5 2 -8
0 0 6 1 1 -5 1 -8
-7 -3 7 -1 0 -4 1 -7
-4 -2 6 -2 -1 -5 1 -7
-3 -1 7 -2 -1 -6 1 -8
-2 -3 6 -3 -3 -6 0 -10
0 1 5 -3 -3 -7 1 -8
-1 0 7 -3 -3 -7 1 -9
0 2 7 -1 -2 -7 2 -7
-5 2 6 -2 -1 -7 1 -8
-5 1 7 -1 -2 -8 2 -8
-5 -1 7 0 -2 -9 2 -6
-5 -3 7 -1 -2 -9 2 -6
-1 -2 6 -4 -4 -9 1 -6
-2 -2 7 -3 -4 -9 2 -5
-10 -10 6 -6 -7 -11 0 -6
-7 -4 7 -5 -6 -10 1 -5
-3 -2 7 -4 -6 -11 0 -5
-5 -3 6 -5 -7 -14 0 -6
-9 -1 9 -1 -2 -10 2 -4
-1 1 6 -4 -4 -13 -1 -8
-2 -1 5 -6 -4 -14 -3 -8
-3 -2 6 -5 -4 -13 -2 -7
-4 -6 5 -6 -5 -13 -4 -7
-9 -4 8 -3 -3 -11 0 -3
-5 -4 7 -4 -4 -12 -1 -3
-3 -2 7 -4 -4 -12 0 -4
-8 -1 8 -1 -2 -11 0 -1
-2 -2 5 -4 -5 -15 -3 -5
2 -1 5 -3 -4 -15 -3 -5
-4 0 10 3 2 -10 2 -1
-3 -1 9 4 2 -9 1 0
-2 1 9 2 2 -11 0 -2
-4 -4 7 0 -1 -11 -1 -3
-6 -4 7 -1 -2 -12 -1 -1
-7 -6 7 -1 -1 -10 1 -1
-6 -5 6 -1 -2 -13 -1 -3
-9 -5 7 0 -2 -12 -1 -2
-6 -2 7 1 -1 -12 0 -2
-7 -4 8 2 2 -12 0 -2
-2 1 9 4 3 -13 -1 -2
-5 0 8 3 4 -11 0 0
-4 -2 6 2 3 -11 -1 -1
-4 -2 6 2 4 -9 0 0
-9 -2 8 3 4 -9 0 0
-5 -3 6 1 2 -10 -1 -1
-5 -4 6 3 2 -11 -1 -1
-16 -4 8 5 5 -9 1 2
-12 -2 7 4 4 -11 0 2
-1 -1 5 2 2 -13 -3 0
0 0 7 4 4 -12 -2 0
-3 2 9 6 7 -8 1 2
-6 0 9 6 8 -7 2 2
-4 1 8 5 8 -7 2 1
-2 2 7 4 7 -8 1 0
-1 1 6 2 5 -8 2 0
-3 3 8 4 6 -7 4 2
-5 -1 5 3 5 -9 2 1
-6 -3 6 4 6 -9 2 2
-3 -1 7 5 8 -7 3 2
-5 0 8 6 9 -7 6 3
-2 2 7 5 9 -7 4 3
-4 1 7 4 8 -8 3 3
-2 0 7 4 7 -7 5 3
-2 1 9 6 9 -6 5 5
-5 2 7 4 8 -5 6 6
-3 1 7 4 7 -6 5 4
-1 0 7 5 7 -7 5 4
-4 -1 7 5 7 -6 5 4
0 -1 7 4 6 -8 4 3
-1 -1 6 4 6 -10 4 2
-5 -5 5 3 5 -10 3 2
-5 -3 6 4 5 -9 4 3
-1 -2 4 2 3 -11 4 2
0 1 5 2 3 -10 3 3
0 3 6 3 4 -9 3 4
-2 0 5 2 2 -11 3 3
-6 -2 4 2 2 -11 2 3
-10 -5 4 2 2 -12 2 2
-10 -5 4 2 2 -12 1 1
-4 1 5 3 3 -13 2 2
1 -4 3 0 1 -14 1 3
-1 -5 4 1 1 -13 2 4
-4 -3 5 1 1 -13 3 4
-7 -4 5 0 0 -13 4 6
-6 -3 4 -1 -2 -13 3 6
-4 1 5 -1 -2 -15 2 5
-2 0 5 -1 -2 -16 2 6
0 2 5 0 1 -14 3 6
0 2 5 0 2 -14 3 4
-2 -1 6 0 2 -15 3 4
-5 -4 5 0 1 -15 1 5
-10 -3 6 1 2 -15 3 5
-5 -1 3 -2 -2 -17 0 3
-5 0 3 -2 -2 -17 1 3
-3 -4 3 -3 -3 -17 0 5
-4 -1 7 1 0 -14 4 8
-3 -2 5 0 0 -15 3 6
-3 -3 4 -1 -1 -16 2 7
0 0 5 0 0 -16 2 8
-1 1 6 1 1 -15 2 7
-4 0 5 0 1 -16 2 7
-4 -3 4 -1 0 -17 1 6
-5 -2 3 -2 -1 -17 1 6
-4 -3 3 -3 -2 -18 2 6
-6 -7 2 -4 -3 -18 -1 6
-11 -5 5 -1 -2 -16 1 8
-1 -1 2 -3 -4 -21 -2 5
-1 1 3 -2 -3 -21 -2 5
1 3 4 -1 -1 -19 -1 6
-6 0 6 2 1 -17 2 10
-5 -3 4 0 0 -19 0 9
-8 -6 4 -1 -2 -20 0 8
-11 -11 2 -2 -4 -20 -1 9
-9 -8 2 -3 -5 -22 -1 8
-5 -7 0 -5 -7 -23 -2 7
-11 -7 1 -3 -6 -22 -1 8
-7 -6 2 -3 -5 -21 -1 7
-7 -5 -1 -5 -7 -25 -4 6
-9 -4 1 -2 -4 -24 -2 8
-2 0 4 -1 -2 -21 0 10
-4 -3 3 -2 -2 -22 -1 10
-5 -5 2 -4 -4 -23 -1 10
-4 -3 2 -4 -3 -21 0 10
-6 -5 2 -5 -5 -21 0 9
-5 -5 2 -4 -5 -22 -1 9
-6 -5 2 -5 -7 -23 -3 9
-7 -5 1 -5 -7 -25 -2 9
-4 -3 2 -3 -5 -23 0 10
-6 -4 5 -1 -1 -21 2 12
-1 0 7 0 1 -19 4 15
2 3 6 1 2 -19 3 15
-1 2 5 0 1 -20 2 14
-10 5 9 5 5 -15 7 19
-5 8 8 4 2 -17 7 18
-4 10 9 5 3 -15 9 21
2 11 9 4 2 -16 9 21
-1 7 7 2 -1 -19 6 18
-2 10 9 3 1 -18 6 17
-3 13 9 3 1 -17 6 19
-4 11 9 3 2 -18 6 18
-1 12 8 3 3 -17 7 18
1 13 7 1 2 -17 7 19
0 13 7 1 2 -16 9 21
1 15 8 3 3 -14 10 23
-1 14 7 4 6 -13 12 25
4 17 5 5 6 -12 13 27
4 15 4 5 7 -11 14 27
2 14 1 6 7 -11 14 28
8 16 -2 6 8 -10 14 27
9 13 -2 6 7 -11 13 26
6 11 -4 6 8 -12 12 25
5 10 -2 6 8 -12 12 25
5 9 -2 4 4 -13 11 24
5 8 -2 2 2 -16 9 23
4 5 -5 -3 -1 -20 5 19
7 5 -6 -5 -5 -21 3 18
9 8 -4 -4 -4 -19 5 21
4 6 -4 -4 -3 -20 6 19
3 2 -4 -3 -3 -19 5 18
3 0 -1 -2 -1 -18 5 19
4 -1 -2 -2 -2 -19 5 20
0 -2 -2 -3 -3 -20 4 19
-1 -5 -4 -6 -7 -23 1 16
1 -4 -4 -6 -7 -22 1 14
2 -1 -3 -5 -6 -21 1 14
0 -5 -2 -5 -7 -21 0 12
-2 -10 -2 -7 -9 -23 -2 9
-6 -8 1 -4 -7 -22 0 10
-10 -6 1 -4 -5 -20 -1 9
-8 -6 1 -5 -7 -20 -2 7
-5 -11 -1 -8 -10 -23 -4 6
-8 -14 -4 -11 -12 -26 -7 4
-11 -12 -3 -10 -13 -24 -6 4
-9 -12 -3 -9 -12 -23 -4 5
-11 -13 -4 -9 -13 -23 -5 4
-9 -12 -4 -9 -14 -23 -6 3
-11 -15 -4 -9 -13 -23 -7 3
-9 -13 -3 -8 -11 -22 -5 4
-11 -12 -3 -8 -11 -21 -6 3
-8 -12 -3 -7 -10 -21 -6 3
-9 -14 -2 -7 -10 -20 -6 4
-9 -16 -4 -10 -12 -21 -8 1
-10 -15 -5 -10 -12 -19 -7 2
-12 -15 -4 -10 -12 -20 -7 4
-12 -16 -4 -11 -13 -21 -8 3
-10 -15 -4 -10 -12 -21 -7 2
-12 -18 -3 -10 -12 -20 -6 4
-14 -16 -3 -9 -10 -19 -6 6
-7 -12 -1 -7 -8 -16 -4 6
-9 -14 -2 -7 -8 -16 -4 6
-9 -14 -2 -8 -9 -17 -6 6
-6 -14 -3 -9 -9 -17 -7 5
-8 -14 -2 -8 -8 -16 -6 5
-5 -13 -2 -8 -10 -16 -6 5
-14 -17 -2 -8 -10 -16 -6 6
-14 -18 -4 -8 -11 -17 -6 5
-9 -14 -4 -8 -12 -16 -6 5
-10 -13 -4 -9 -11 -16 -6 4
-9 -13 -3 -7 -8 -15 -3 5
-10 -15 -3 -7 -7 -14 -5 6
-9 -15 -3 -7 -7 -14 -5 5
-6 -10 -4 -8 -8 -14 -5 3
-5 -10 -4 -9 -8 -14 -5 2
-6 -12 -4 -8 -9 -13 -6 0
-10 -13 -2 -6 -7 -12 -5 2
-12 -15 1 -2 -5 -12 -7 -1
-15 -17 5 4 -2 -11 -9 -3
-11 -19 10 11 3 -9 -10 -6
-15 -22 12 17 8 -7 -12 -8
-12 -17 12 18 10 -5 -10 -8
-10 -12 13 22 17 2 -4 -3
-11 -4 15 29 26 14 8 6
-5 6 14 33 35 23 17 14
-4 13 14 37 44 35 29 23
-3 20 15 42 57 52 46 34
2 21 9 39 63 67 62 46
9 31 0 38 75 89 86 65
24 45 -9 30 80 108 108 82
38 53 -24 4 70 119 128 99
46 59 -42 -42 46 128 151 119
55 70 -58 -89 17 138 178 142
62 75 -70 -131 -13 144 199 160
71 84 -84 -171 -43 146 213 174
69 90 -96 -204 -72 144 218 178
70 95 -120 -246 -109 129 214 176
66 101 -137 -280 -144 111 201 170
54 101 -142 -303 -172 83 178 158
40 92 -144 -315 -200 39 134 132
21 77 -138 -325 -228 -18 81 102
-4 52 -130 -328 -253 -84 12 58
-27 15 -115 -321 -273 -148 -59 4
-43 -15 -99 -302 -279 -193 -106 -39
-45 -30 -91 -279 -270 -208 -124 -60
-49 -38 -85 -251 -248 -199 -124 -66
-53 -47 -79 -224 -222 -183 -120 -69
-51 -54 -72 -197 -197 -164 -114 -67
-49 -56 -63 -172 -176 -147 -104 -64
-39 -54 -59 -154 -161 -134 -98 -61
-37 -48 -53 -136 -142 -117 -86 -54
-41 -42 -43 -115 -119 -100 -72 -45
-39 -34 -33 -95 -98 -84 -59 -37
-34 -28 -30 -81 -83 -73 -55 -32
-31 -27 -24 -67 -68 -60 -47 -27
-24 -19 -19 -51 -52 -46 -37 -22
-17 -17 -12 -38 -37 -31 -27 -14
-16 -20 -7 -25 -26 -21 -19 -10
-11 -14 -3 -15 -17 -14 -13 -4
-8 -10 -2 -9 -13 -10 -9 -5
-3 -8 -3 -8 -11 -10 -10 -5
-9 -9 1 -3 -7 -8 -8 -3
-9 -14 0 0 -3 -5 -6 -4
-8 -15 1 2 0 -4 -7 -3
-10 -12 3 4 1 -2 -6 -1
-10 -14 1 3 1 -3 -7 -4
-12 -14 0 1 -1 -4 -8 -4
-9 -13 0 3 0 -2 -5 -4
-5 -8 0 4 0 0 -4 -4
-1 -7 1 6 0 1 -3 -2
-7 -9 2 9 2 1 -2 -1
-9 -9 3 11 5 3 -1 -1
-2 -7 3 11 5 2 -2 -3
1 -7 2 10 7 2 -3 -3
-5 -9 4 11 8 5 -3 -2
-5 -13 3 11 7 4 -4 -2
-8 -14 4 10 8 5 -3 -2
-5 -11 4 10 7 5 -1 -1
-5 -11 4 11 7 6 1 0
-3 -8 5 13 7 6 1 2
-2 -8 5 14 9 7 2 3
-1 -7 4 14 9 6 1 1
1 -4 4 15 10 6 0 2
-2 -3 6 17 13 8 1 3
-2 -5 6 15 12 8 0 2
-2 -7 2 12 9 6 -3 -2
-2 -9 1 11 7 4 -4 -3
-5 -7 3 12 8 7 -2 0
-8 -7 5 15 11 9 1 2
-8 -11 5 16 11 9 1 2
-3 -9 2 14 9 6 -1 1
-2 -6 2 16 11 6 0 2
-5 -7 4 17 12 7 -1 2
-7 -5 8 20 16 9 0 4
-3 -5 5 17 14 7 -1 2
4 -5 5 17 13 8 -1 4
-3 -7 5 17 14 10 1 3
-4 -9 4 15 11 10 -1 2
0 -8 3 15 10 9 -2 0
-2 -9 3 15 10 9 -1 2
-6 -10 4 17 11 9 0 2
-3 -7 4 18 13 10 0 1
-6 -7 5 20 15 9 -1 0
-6 -6 4 20 17 9 -2 0
-3 -6 3 18 16 9 -2 -3
-3 -4 5 20 18 11 -1 -1
0 -1 6 20 18 13 0 -1
3 -4 5 19 17 13 1 -2
1 -6 4 20 15 12 1 -3
-1 -6 6 22 16 14 1 -2
-4 -6 4 22 15 12 2 -3
-3 -5 5 23 16 14 2 -3
-1 -5 4 24 16 14 0 -4
-1 -3 4 24 18 15 -1 -5
1 -1 5 24 19 15 -1 -6
3 -1 5 24 19 15 -1 -8
1 -3 3 22 17 13 -3 -9
5 -1 4 22 17 14 -2 -9
4 0 5 24 18 16 0 -8
4 1 6 26 20 18 1 -7
3 -1 5 27 21 17 0 -7
2 -2 4 27 20 15 -1 -7
1 -3 6 30 23 19 1 -5
5 -2 4 28 22 17 -1 -7
4 -2 4 29 24 18 0 -7
-1 -2 5 30 26 20 1 -7
3 -3 2 28 23 17 -2 -10
5 1 3 29 24 19 -1 -9
0 3 4 33 26 22 2 -6
1 2 5 34 27 21 2 -8
3 0 6 37 30 21 1 -6
1 -3 6 37 30 21 1 -4
3 -2 6 38 31 21 -1 -6
3 1 7 41 34 23 0 -2
1 0 6 40 35 23 0 -2
1 0 6 41 36 24 -1 -3
2 -1 4 40 35 23 -2 -4
2 1 6 42 36 24 0 -1
5 5 8 45 39 28 3 0
7 3 8 48 39 28 3 0
11 3 7 50 41 29 2 -1
9 5 10 54 45 32 5 3
9 6 8 54 45 30 4 1
10 6 10 57 48 31 4 3
5 4 11 57 49 32 4 3
6 2 7 56 47 30 3 1
6 2 8 58 49 34 5 3
4 2 9 59 51 35 5 5
12 5 9 61 52 36 7 6
19 8 8 61 51 34 5 5
9 6 11 66 56 37 6 8
8 7 11 70 59 40 6 9
10 8 10 71 61 39 6 8
11 9 10 72 61 39 5 7
12 10 10 72 62 41 5 8
9 8 8 72 62 39 3 6
10 7 6 70 60 39 3 5
11 8 9 72 62 42 7 9
11 9 8 72 62 43 7 9
9 9 8 73 62 42 7 9
9 10 9 76 64 43 8 12
18 11 8 76 64 41 5 11
17 14 9 79 67 43 7 13
17 13 8 77 67 42 5 13
18 11 8 78 68 42 4 12
19 10 6 77 67 42 5 13
14 10 7 76 66 43 5 14
16 12 6 75 64 42 4 13
16 10 5 75 63 41 5 15
16 10 5 74 62 40 5 15
11 15 6 76 63 40 6 16
14 14 5 77 63 39 4 15
19 15 7 78 66 40 5 16
19 20 7 79 67 40 4 16
19 17 6 76 65 39 2 16
19 14 6 76 63 39 2 15
16 13 7 75 64 41 5 19
15 12 6 73 62 39 5 19
18 15 5 70 59 39 5 20
12 14 6 70 58 38 5 21
20 14 2 66 54 35 3 17
17 15 5 67 56 36 3 19
18 16 4 64 55 34 4 18
18 20 6 64 55 35 4 19
17 21 6 62 54 35 4 19
17 21 6 60 53 36 6 21
15 17 5 57 51 36 7 22
13 15 4 52 46 34 6 22
14 15 5 50 43 33 8 24
13 15 4 47 40 32 8 24
11 14 2 44 37 29 8 23
8 16 4 43 34 28 8 24
6 13 4 41 33 27 9 24
4 11 3 38 31 26 8 23
7 12 3 36 29 25 8 21
6 13 3 33 27 24 8 22
7 11 2 30 25 23 9 21
5 11 4 29 24 25 11 24
2 8 3 26 20 23 10 23
-3 7 5 25 19 23 10 23
0 3 1 20 15 18 6 20
4 5 1 18 14 16 5 18
1 5 2 17 13 16 5 19
-2 3 1 15 12 14 3 18
-4 3 2 15 12 15 4 18
-5 1 1 13 11 16 5 21
-4 2 1 10 8 13 3 19
-2 3 1 9 6 13 3 20
-1 2 1 8 4 11 3 20
-1 4 1 7 3 10 5 20
0 6 1 8 3 9 4 20
-1 5 1 7 2 8 2 19
1 4 1 7 3 8 3 20
-2 0 1 7 3 7 1 19
-1 -2 -2 4 -1 5 -2 16
-2 3 1 5 1 6 0 18
-3 1 0 4 0 6 0 18
-1 2 0 3 -2 5 -1 19
-1 2 1 2 -3 6 -1 19
-4 -1 1 2 -3 5 0 19
1 0 1 2 -4 3 -1 19
1 2 0 1 -4 2 -3 17
-2 1 1 2 -3 3 0 18
-6 0 2 4 -1 4 -1 19
-7 -3 1 1 -2 3 -3 19
-3 -2 0 -2 -4 0 -5 16
-3 -3 -1 -2 -6 0 -4 16
-5 -6 -1 -2 -8 1 -5 16
-6 -5 0 -2 -7 2 -4 17
-5 -4 0 -4 -9 -2 -5 17
-3 -4 0 -1 -9 -1 -3 19
-3 -1 1 -1 -7 0 -1 18
-6 0 1 0 -5 0 -4 18
-1 0 -1 -1 -5 -1 -6 16
-5 -1 -1 0 -6 0 -5 16
-5 -2 0 -1 -6 0 -5 16
-5 -3 -1 -1 -6 0 -5 16
-9 -4 0 1 -6 2 -3 17
-7 -2 -2 -1 -8 -1 -4 15
-8 -1 0 0 -6 0 -3 16
-8 -6 0 1 -6 1 -2 17
0 1 -1 0 -7 -1 -4 14
-2 2 1 2 -5 0 -3 15
-8 -1 2 2 -3 1 -3 15
-5 0 2 4 -3 3 -3 15
1 0 1 3 -2 2 -3 14
-2 -1 0 1 -3 1 -4 14
-2 0 2 2 -4 2 -3 14
-5 0 3 3 -4 3 -4 14
-3 1 2 1 -5 0 -4 13
-9 -1 2 3 -4 0 -4 14
-4 0 3 3 -4 0 -5 13
-1 1 4 5 -1 1 -4 14
-2 -1 3 5 -1 0 -5 14
-1 1 3 6 -2 0 -6 15
0 4 3 6 1 3 -3 15
-4 1 3 6 0 3 -3 14
-3 -1 4 6 0 5 -3 15
-5 1 4 8 1 7 0 17
-7 1 5 8 1 7 0 17
-3 3 4 6 -1 4 -1 17
-6 1 2 6 -1 4 -3 14
-7 0 3 7 1 4 -1 16
-3 2 4 7 2 3 -3 16
-4 0 3 6 0 3 -3 15
-1 2 2 6 1 3 -4 14
-2 2 2 5 0 3 -4 13
-4 2 3 5 -1 3 -5 15
-5 3 3 5 0 3 -3 15
-4 3 4 5 0 3 -3 14
-2 6 4 6 0 3 -2 15
-3 4 2 6 0 4 -3 13
-5 2 3 8 1 3 -3 12
-7 1 3 8 1 3 -5 11
-4 1 3 8 1 4 -3 13
-3 2 5 9 3 6 -1 14
-1 2 4 9 3 4 0 16
-5 0 3 9 1 4 -1 16
-1 2 2 8 0 4 -3 15
-2 5 3 8 1 4 -1 16
-4 4 4 10 2 5 0 18
1 5 4 9 1 6 -1 16
1 4 3 8 2 4 -1 14
-5 4 4 8 1 4 -1 15
-3 6 3 8 2 4 -1 14
-2 5 3 7 1 4 -2 13
3 6 1 5 -1 3 -3 11
-4 6 5 9 2 8 1 16
-1 5 2 6 -1 5 -1 12
0 5 2 6 -2 4 -1 12
-1 6 3 7 -2 2 0 14
-2 5 3 6 -3 0 -1 12
-3 5 4 7 -2 1 0 12
-2 4 2 5 -4 0 -3 10
-3 4 2 6 -4 2 -2 10
-3 1 3 6 -3 2 -3 9
-1 0 0 3 -5 -1 -6 7
3 1 -1 2 -8 -3 -7 7
-3 1 2 5 -6 -1 -4 10
-3 3 3 5 -5 -1 -3 12
-3 4 4 6 -5 0 -2 12
-4 3 4 6 -6 -2 -4 13
3 8 3 4 -5 -2 -2 12
-1 5 2 4 -6 -2 -2 11
-5 -2 2 4 -6 -2 -2 11
-5 0 3 4 -4 0 -2 12
-2 0 2 3 -6 -2 -3 12
-1 2 0 1 -8 -2 -4 11
-3 -1 1 2 -8 -2 -4 12
-6 -2 1 2 -9 -4 -5 12
-1 3 2 3 -9 -4 -3 13
1 6 2 3 -9 -5 -4 11
-1 7 1 2 -9 -5 -5 10
1 8 1 2 -8 -5 -6 9
3 8 1 4 -7 -3 -4 10
1 6 0 2 -9 -4 -7 8
0 4 1 2 -8 -2 -5 10
-2 4 1 2 -10 -3 -5 9
-7 3 1 1 -11 -4 -4 9
-8 2 2 1 -12 -4 -4 11
-3 3 2 2 -12 -4 -3 12
3 8 2 2 -12 -5 -5 10
-1 5 0 1 -13 -7 -7 9
1 6 1 3 -11 -6 -7 9
5 8 1 3 -10 -5 -7 9
1 5 1 1 -11 -5 -7 7
-5 4 2 2 -11 -3 -5 8
-2 2 2 2 -12 -3 -7 6
4 2 -1 0 -14 -6 -8 4
-4 2 2 2 -13 -4 -6 7
-3 2 1 2 -13 -5 -6 8
-3 3 2 3 -12 -6 -5 8
-5 4 3 3 -12 -5 -5 9
-7 2 1 3 -12 -6 -7 5
4 4 0 1 -12 -8 -8 5
2 3 1 1 -11 -5 -8 6
-2 3 1 1 -11 -7 -7 7
-6 3 3 3 -11 -5 -7 8
-4 3 1 0 -14 -7 -8 6
-1 3 0 -2 -15 -8 -8 5
-1 4 0 0 -14 -8 -8 6
-2 1 -1 -1 -15 -9 -9 4
-3 1 0 0 -14 -7 -8 4
-1 2 0 0 -13 -7 -8 3
1 3 0 -2 -14 -9 -11 1
1 1 1 -1 -14 -9 -10 1
-4 1 3 0 -14 -8 -8 4
0 5 2 -1 -16 -9 -8 4
4 11 2 0 -14 -7 -7 4
1 10 4 2 -12 -4 -5 4
4 10 5 6 -10 -4 -4 5
2 10 7 7 -9 -2 -5 6
-2 9 6 5 -8 -3 -5 6
-2 10 7 5 -7 -2 -3 8
3 13 6 4 -8 -3 -5 7
8 18 6 5 -7 -1 -4 7
9 20 6 4 -6 0 -3 8
-1 20 8 5 -5 2 -1 10
1 20 9 5 -6 0 0 9
3 19 10 6 -6 0 0 10
3 19 11 7 -5 0 0 11
8 22 10 8 -5 1 -1 10
3 22 8 5 -7 0 -2 9
3 22 8 5 -6 0 -1 10
11 25 6 7 -4 0 0 11
8 24 5 7 -4 3 0 10
3 22 4 8 -2 5 3 13
8 25 3 8 -2 5 4 14
14 28 1 10 -1 7 5 15
14 26 -1 10 0 8 5 15
11 22 -2 11 0 7 5 16
11 22 1 13 1 8 5 17
10 21 -1 8 -3 4 1 13
9 17 -2 5 -6 1 -1 11
12 14 -3 3 -8 -2 -2 11
9 9 -5 -1 -12 -6 -4 8
7 9 -7 -5 -16 -7 -6 7
3 10 -4 -2 -15 -6 -5 9
5 9 -3 -1 -14 -6 -6 10
7 10 -2 0 -13 -6 -5 9
10 10 -3 0 -13 -7 -7 9
8 9 -3 0 -14 -8 -7 7
7 8 -3 2 -13 -7 -7 7
10 7 -3 1 -14 -8 -9 5
2 5 -1 2 -13 -7 -8 6
1 4 0 1 -14 -7 -9 3
2 0 -3 -3 -18 -10 -14 -1
-3 -2 -2 -3 -18 -13 -14 -1
-3 -1 -2 -3 -19 -14 -15 -1
-5 -2 -1 -4 -20 -14 -14 -1
0 -1 -1 -5 -21 -15 -15 -1
1 -1 -3 -7 -22 -17 -16 -2
-2 0 -3 -5 -21 -15 -18 -4
2 1 -1 -5 -19 -13 -17 -3
-1 -1 -1 -4 -19 -14 -16 -2
-3 -1 0 -4 -18 -12 -14 -2
-1 -3 -2 -5 -20 -14 -17 -4
0 -4 -1 -6 -21 -14 -17 -5
-5 -3 1 -4 -21 -12 -16 -3
-6 -5 -1 -6 -23 -15 -18 -5
-4 -6 -2 -7 -23 -15 -19 -5
-8 -5 0 -5 -21 -15 -16 -5
-6 -7 -2 -4 -21 -15 -17 -5
2 -2 -2 -4 -21 -15 -17 -5
0 0 -1 -4 -20 -15 -16 -5
1 -2 -2 -6 -22 -15 -19 -7
-1 -4 -2 -4 -21 -14 -18 -5
-4 -6 -2 -5 -22 -14 -19 -6
0 -5 -4 -7 -24 -15 -19 -9
-2 -4 -1 -4 -21 -11 -17 -5
-4 -4 -3 -5 -23 -14 -20 -6
-5 -3 -2 -5 -22 -15 -19 -8
1 -2 -2 -4 -21 -14 -19 -8
-3 -4 -2 -4 -20 -14 -20 -9
-3 -5 -1 -3 -19 -12 -18 -8
-3 -6 -2 -3 -19 -12 -19 -9
-2 -5 -1 -2 -20 -11 -18 -6
0 -5 0 -2 -19 -11 -17 -5
0 -4 -3 -3 -21 -13 -18 -6
4 -1 -2 -3 -23 -13 -18 -6
-2 0 -2 -1 -21 -12 -17 -4
1 0 -3 -4 -22 -14 -19 -7
-2 -3 -1 -1 -19 -11 -18 -6
-1 -4 -2 -2 -18 -11 -17 -6
1 -1 1 0 -16 -10 -18 -7
0 0 4 4 -14 -10 -19 -8
-8 -4 9 10 -10 -9 -21 -11
-4 -5 12 15 -7 -10 -25 -15
-3 -3 15 22 -2 -7 -26 -16
-5 -4 16 26 2 -2 -23 -13
-4 0 16 29 8 4 -17 -9
-4 3 15 33 15 11 -9 -4
-1 13 17 38 23 21 1 3
0 25 19 45 35 35 14 12
3 28 15 47 44 51 27 22
7 36 9 46 53 67 47 36
17 46 1 41 61 87 70 55
29 56 -9 31 67 105 94 74
48 66 -20 13 62 122 119 94
58 76 -36 -25 42 136 148 117
65 83 -51 -72 11 147 177 141
66 87 -65 -113 -22 152 203 162
72 95 -76 -150 -52 154 220 174
77 101 -88 -182 -82 153 226 178
71 101 -106 -219 -115 144 224 178
65 104 -127 -256 -155 122 210 169
56 109 -136 -284 -187 94 183 152
41 101 -137 -302 -215 54 142 128
21 89 -130 -312 -242 0 88 102
0 65 -122 -319 -272 -73 11 54
-22 28 -110 -317 -296 -147 -69 -8
-34 2 -93 -298 -300 -198 -120 -50
-45 -12 -82 -272 -288 -217 -137 -69
-50 -22 -78 -246 -266 -208 -139 -77
-45 -29 -72 -220 -241 -194 -137 -82
-44 -37 -67 -197 -218 -177 -134 -84
-39 -40 -61 -174 -197 -160 -126 -81
-36 -39 -53 -154 -177 -143 -114 -74
-34 -35 -48 -136 -159 -128 -104 -68
-28 -25 -41 -115 -138 -109 -89 -57
-30 -16 -31 -96 -115 -92 -75 -49
-26 -12 -25 -79 -97 -76 -64 -42
-20 -7 -19 -64 -82 -64 -58 -38
-15 -4 -16 -50 -65 -52 -49 -34
-13 -3 -11 -36 -50 -37 -39 -28
-7 -2 -6 -25 -40 -27 -32 -23
-7 -1 -1 -15 -32 -18 -25 -17
-5 -2 2 -9 -26 -12 -20 -14
-3 -4 1 -7 -24 -11 -20 -13
-4 -5 2 -2 -20 -11 -18 -12
-3 -2 5 1 -16 -10 -19 -12
-2 -2 5 4 -10 -7 -17 -11
-1 0 8 9 -6 -4 -17 -10
2 0 6 10 -4 -2 -17 -12
3 0 5 8 -5 -2 -17 -12
3 0 4 5 -6 -3 -18 -13
-4 0 4 5 -6 -1 -16 -13
-3 -1 6 7 -5 1 -13 -11
4 0 5 7 -7 0 -14 -11
0 -3 5 9 -7 0 -14 -12
-2 1 7 12 -3 1 -13 -11
-1 1 9 14 1 2 -11 -9
1 -1 8 15 2 3 -12 -10
7 0 7 15 1 2 -13 -13
2 1 8 15 2 3 -10 -11
1 1 9 15 4 6 -9 -9
2 2 8 14 1 6 -11 -11
5 1 7 12 -1 4 -10 -12
6 4 7 12 -3 3 -10 -11
-3 5 8 15 0 6 -9 -10
1 5 7 14 -1 3 -11 -14
5 5 6 15 0 1 -12 -15
6 4 6 15 3 3 -14 -17
3 3 10 19 8 8 -9 -14
3 5 9 16 9 8 -8 -14
4 0 9 16 6 9 -8 -14
3 0 10 16 7 12 -6 -13
1 1 10 15 6 10 -6 -13
4 3 8 13 3 8 -8 -15
6 3 7 15 3 8 -9 -15
2 3 7 16 4 6 -10 -16
2 3 9 19 8 8 -9 -15
2 2 9 20 10 10 -10 -16
1 0 9 20 10 10 -11 -18
-1 -1 9 18 8 9 -10 -18
-1 -2 9 19 9 12 -8 -16
3 1 8 17 7 11 -8 -16
5 2 9 17 6 11 -6 -14
1 2 10 18 8 13 -5 -11
5 3 8 18 9 12 -7 -14
-3 3 11 22 13 11 -6 -12
2 3 8 21 10 8 -9 -15
5 4 7 21 12 10 -11 -15
1 5 7 21 12 10 -10 -15
1 2 8 19 12 10 -9 -13
4 1 7 18 11 12 -8 -13
5 2 7 17 10 11 -9 -12
4 4 9 19 11 14 -5 -10
3 3 9 21 12 15 -5 -8
1 0 8 22 12 13 -6 -9
4 3 9 23 14 12 -6 -9
2 5 10 26 15 13 -6 -8
2 4 10 28 17 16 -7 -7
5 4 9 27 16 15 -7 -7
3 4 8 24 14 13 -8 -10
5 3 8 25 16 16 -7 -9
4 3 8 24 17 17 -7 -8
5 4 10 25 16 18 -4 -7
8 6 9 25 16 17 -6 -8
7 4 8 26 17 18 -6 -8
5 6 10 29 20 18 -4 -6
9 9 12 32 23 20 -4 -6
7 6 10 31 24 19 -7 -9
3 6 12 34 26 22 -3 -7
7 6 10 32 25 20 -5 -9
10 4 9 30 24 22 -5 -9
7 5 10 33 26 23 -3 -7
7 1 10 31 24 22 -3 -7
3 1 8 32 24 21 -4 -8
5 4 9 34 27 24 -3 -6
4 7 11 38 30 25 -2 -6
6 9 12 41 35 28 0 -3
9 9 12 43 37 29 -1 -3
11 9 11 42 36 29 -3 -6
10 9 11 42 37 29 -2 -6
6 5 9 40 36 29 -2 -7
4 3 11 42 37 30 -2 -7
5 4 12 45 41 33 1 -4
3 1 12 45 39 31 0 -5
7 3 11 46 41 32 -1 -5
8 6 12 50 45 34 1 -4
8 6 11 51 47 33 1 -5
8 9 15 55 51 37 1 -4
11 10 14 55 52 38 0 -4
11 11 13 56 53 38 0 -6
10 12 14 59 55 41 3 -4
11 10 15 60 56 44 5 -3
16 10 14 60 56 44 5 -3
13 10 13 59 55 42 4 -3
8 8 13 62 58 44 4 -3
12 9 15 67 62 46 6 0
12 9 15 68 64 47 5 -2
16 11 14 69 65 46 2 -3
21 13 12 68 65 46 0 -5
15 12 16 72 70 49 5 -1
18 12 13 70 69 47 4 -1
17 12 12 70 68 45 4 -1
15 13 13 71 71 46 6 0
20 13 10 70 69 42 4 -1
19 13 8 69 68 40 1 -2
15 16 11 74 73 41 5 1
17 13 11 76 75 43 6 1
13 11 11 77 77 43 4 0
18 12 10 76 77 43 2 -3
15 11 13 77 79 44 4 -2
18 13 10 74 77 43 2 -3
22 14 11 74 77 44 2 -2
19 13 12 73 77 44 3 -1
16 14 13 74 76 42 4 2
14 16 12 75 77 43 4 4
21 15 11 74 76 39 2 2
21 14 11 73 76 38 3 2
17 10 9 71 75 37 -1 1
14 8 10 72 77 39 0 0
14 10 11 72 75 38 1 0
18 10 8 67 71 36 -1 -1
20 15 9 68 72 37 1 1
17 15 11 68 73 39 4 3
20 16 9 66 70 36 2 1
21 19 9 66 70 37 3 2
17 17 10 65 69 35 2 2
20 19 10 62 67 33 2 1
21 24 11 63 68 35 4 4
14 14 9 59 64 32 2 1
12 9 7 53 58 27 -1 -1
13 13 9 52 57 29 3 3
13 16 8 50 56 29 4 4
18 19 8 48 54 28 7 6
16 17 9 47 52 28 7 7
11 15 11 46 51 27 9 9
12 17 10 43 48 26 9 8
10 17 7 40 46 23 8 7
12 17 7 38 44 22 9 8
9 13 7 36 43 21 8 5
6 12 7 32 40 19 7 3
7 13 8 29 37 19 7 4
1 10 9 28 35 18 8 5
2 7 8 24 32 14 7 3
5 7 6 22 27 11 5 2
3 7 6 20 26 10 5 3
9 11 7 21 26 10 7 5
6 10 6 19 26 9 5 5
-3 8 7 18 25 7 4 3
0 6 6 15 23 5 3 0
0 7 4 11 19 1 1 -2
-1 8 5 11 19 4 3 0
0 5 5 8 16 3 3 -2
-6 -1 5 7 15 1 2 -1
-4 2 5 6 14 1 1 -2
-5 0 6 8 15 2 3 0
-3 0 6 6 14 1 3 1
-2 3 7 8 16 1 3 1
-5 2 6 6 14 -1 1 -2
0 -1 6 4 14 -1 2 -2
4 2 6 3 13 -2 1 -2
3 1 6 3 10 -3 -1 -4
1 1 5 2 8 -4 -1 -5
-2 1 4 0 8 -5 -1 -5
-4 0 5 1 7 -5 -2 -5
0 0 6 2 8 -5 -2 -4
1 -1 7 1 8 -5 -2 -3
-7 -2 8 3 11 -4 -1 -1
-2 -2 7 2 10 -6 -3 -4
1 -2 6 1 9 -6 -3 -6
0 0 6 0 7 -7 -4 -7
0 0 6 -2 6 -6 -5 -7
-2 -1 6 -2 6 -5 -2 -7
-2 0 5 -2 6 -5 -3 -7
-3 -3 3 -3 4 -8 -6 -9
1 -2 3 -2 4 -8 -6 -9
3 -1 4 -1 5 -9 -5 -9
-6 -1 5 2 8 -8 -4 -8
-7 -2 6 2 8 -8 -5 -10
-6 -6 4 0 7 -9 -6 -13
-8 -5 6 1 8 -9 -5 -12
-5 -2 7 2 8 -7 -5 -12
-4 -4 7 0 6 -8 -6 -14
-2 -5 7 0 6 -9 -5 -13
-7 -6 7 1 5 -8 -6 -14
-3 -6 6 1 5 -8 -6 -16
-10 -4 10 4 10 -5 -2 -13
-7 -6 7 3 10 -7 -6 -17
-6 -6 6 1 8 -8 -8 -18
-5 -4 5 1 9 -8 -6 -20
-5 -4 5 0 7 -9 -7 -20
-6 0 7 2 11 -6 -4 -17
-2 0 8 3 10 -5 -3 -16
-2 -3 8 2 9 -6 -4 -16
-2 -1 8 4 9 -5 -3 -15
-7 -2 9 6 11 -3 -2 -13
-3 -3 7 5 10 -6 -3 -15
-3 -3 9 7 12 -6 -1 -17
-4 -5 8 7 11 -6 -3 -17
-3 -3 7 7 12 -5 -3 -16
-4 -3 7 5 11 -4 -3 -18
-4 -2 8 6 10 -2 -2 -16
0 1 6 5 10 -2 0 -15
-1 -1 6 4 9 -3 -1 -14
-5 -1 7 5 8 -2 -1 -13
-3 0 7 6 9 -3 0 -12
-1 2 7 6 11 -3 1 -13
0 3 8 7 12 -2 1 -13
3 0 4 5 10 -3 -2 -17
-3 0 6 8 12 -1 1 -14
-3 2 9 9 14 1 3 -11
-5 -2 7 6 10 0 3 -11
-5 -3 5 5 7 -2 3 -12
-4 -1 6 7 8 -1 3 -10
-4 0 7 6 7 -2 2 -10
2 3 6 6 8 -2 3 -9
-2 1 6 7 8 -1 2 -10
-6 0 6 8 10 -1 2 -9
-4 1 7 9 12 0 3 -9
-5 -1 5 6 10 -2 2 -11
-2 0 5 6 10 -1 3 -10
-1 1 4 5 9 -2 4 -9
-4 0 4 4 8 -1 5 -8
-3 1 4 2 6 -2 4 -7
-5 0 5 3 6 -2 5 -7
-10 0 7 7 8 -1 6 -5
-3 2 7 8 8 -1 7 -5
5 2 3 5 5 -5 2 -9
1 2 5 6 7 -4 3 -8
7 4 5 5 6 -3 2 -9
-3 2 8 7 9 -1 4 -6
-4 1 7 6 7 -1 4 -6
-1 0 4 2 4 -5 2 -8
-4 -2 2 0 2 -6 1 -8
-1 -1 3 2 3 -4 3 -8
0 0 3 3 2 -5 3 -9
0 3 4 4 4 -4 3 -8
-3 1 5 5 5 -3 3 -6
-3 -1 4 4 6 -4 2 -8
3 3 5 5 6 -4 3 -7
6 3 5 3 6 -5 2 -7
2 0 5 3 5 -4 3 -7
-4 -2 5 2 5 -4 3 -5
-6 -4 4 0 2 -6 3 -5
-5 -3 4 0 1 -6 2 -7
-5 -2 5 2 2 -4 4 -6
-3 -4 3 1 0 -7 1 -8
-2 -3 3 3 1 -7 1 -7
-4 -3 4 3 2 -8 2 -8
-6 -3 5 3 2 -9 0 -7
-2 -1 3 1 1 -9 0 -8
-1 -3 3 0 -1 -9 -2 -9
-3 -2 4 0 0 -9 0 -7
-5 -4 5 0 -2 -9 0 -7
-4 -5 4 -1 -2 -11 -1 -9
-2 -4 4 0 -2 -10 0 -7
-4 -5 3 -1 -2 -11 -2 -8
-6 -6 2 -1 -1 -10 -1 -9
-2 -3 5 1 1 -9 0 -7
-4 -5 4 -1 -1 -11 -2 -9
-5 -5 4 -2 0 -12 -3 -9
-4 -5 3 -2 -1 -10 -2 -8
-2 -6 4 -3 -1 -11 -3 -10
3 -2 4 -3 -2 -9 -2 -9
-4 -3 4 -1 0 -8 0 -7
-6 -4 2 -1 -2 -9 0 -7
-1 -3 2 -2 -1 -11 -1 -8
-4 -5 1 -2 -2 -12 -2 -10
-2 -5 1 -1 -2 -12 -2 -9
-1 -6 1 -2 -2 -12 -3 -9
-7 -6 4 -1 0 -11 -1 -8
-10 -3 5 0 0 -9 0 -9
-4 -3 3 -3 -2 -12 -4 -11
-1 -3 3 -4 -4 -13 -5 -12
-1 -2 3 -4 -3 -13 -5 -12
-4 -4 5 -1 -2 -12 -3 -10
0 -2 5 -1 -1 -11 -4 -10
0 0 4 -2 -1 -12 -3 -9
-1 0 4 -2 0 -12 -2 -7
0 1 5 0 1 -11 0 -6
-6 0 7 0 3 -9 1 -5
-4 0 6 -1 2 -8 2 -5
-1 5 8 0 3 -6 3 -4
-3 3 8 1 3 -6 3 -3
0 7 8 -1 3 -6 4 -3
-2 10 11 3 5 -4 6 0
1 12 11 4 7 -4 6 0
3 10 9 3 4 -7 4 -2
1 5 7 1 3 -9 1 -4
-5 8 9 3 6 -6 4 -2
-2 10 8 2 6 -5 4 -3
-3 9 5 -2 3 -8 4 -3
-1 12 8 -1 4 -6 6 1
-2 11 7 1 6 -3 9 3
1 14 6 2 9 -1 10 5
8 16 4 3 9 -1 11 6
7 15 4 4 11 0 11 7
10 17 2 6 13 0 11 8
14 19 0 6 15 2 11 7
12 14 1 7 16 2 11 5
9 11 2 6 15 2 10 5
5 6 1 3 12 -1 9 4
2 3 -1 0 7 -6 5 2
3 4 -3 -4 3 -8 2 -1
2 4 -5 -6 1 -11 1 -1
5 6 -3 -4 3 -11 3 2
8 5 -2 -2 3 -10 2 1
8 3 -1 -1 5 -11 2 1
8 2 2 1 7 -9 3 2
8 0 0 -2 5 -12 1 0
5 -1 -1 -4 4 -13 0 -1
2 -5 0 -5 2 -13 -1 -1
1 -7 -3 -8 -2 -16 -3 -3
1 -3 -1 -5 1 -11 1 -1
-3 -6 1 -5 0 -14 -2 -4
-4 -14 -1 -8 -3 -18 -6 -6
-4 -14 1 -7 -3 -19 -7 -7
-9 -13 2 -7 -2 -19 -6 -7
-4 -13 1 -7 -3 -21 -9 -9
-8 -14 3 -6 -1 -20 -9 -9
-11 -14 1 -8 -3 -21 -10 -10
-5 -14 0 -9 -4 -21 -10 -11
-8 -15 0 -10 -6 -23 -11 -10
-8 -16 -1 -10 -5 -22 -12 -10
-9 -15 1 -9 -5 -22 -10 -8
-9 -17 0 -10 -6 -22 -10 -8
-9 -16 -1 -11 -7 -23 -12 -12
-10 -16 0 -10 -4 -23 -10 -11
-12 -19 1 -8 -2 -22 -11 -9
-10 -17 2 -8 -1 -21 -10 -7
-5 -17 1 -9 -2 -22 -10 -8
-8 -17 1 -9 -2 -21 -10 -7
-8 -17 1 -9 -3 -21 -10 -7
-7 -20 1 -8 -1 -19 -7 -6
-7 -19 1 -7 -3 -22 -9 -6
-9 -18 2 -6 -2 -22 -9 -6
-10 -19 1 -9 -3 -24 -11 -8
-11 -18 1 -8 -2 -23 -11 -9
-10 -18 2 -7 -1 -23 -10 -8
-8 -17 2 -7 0 -24 -10 -6
-6 -16 2 -7 0 -22 -9 -7
-10 -19 1 -9 -2 -22 -9 -8
-11 -18 1 -8 -2 -22 -9 -6
-2 -14 0 -9 -2 -22 -9 -7
-5 -15 -1 -10 -4 -25 -12 -9
-4 -15 1 -8 0 -23 -9 -6
-3 -15 0 -8 0 -24 -11 -7
-9 -16 0 -9 0 -24 -11 -8
-8 -17 2 -6 2 -22 -9 -6
-12 -19 2 -7 2 -22 -9 -6
-10 -20 0 -9 -1 -24 -10 -9
-8 -20 0 -8 1 -23 -9 -6
-8 -19 0 -7 1 -22 -9 -6
-5 -17 2 -5 3 -21 -8 -5
-8 -21 5 0 5 -21 -11 -8
-11 -22 9 7 8 -20 -12 -11
-10 -22 14 14 13 -20 -16 -15
-14 -24 16 18 18 -18 -17 -17
-11 -20 16 21 22 -14 -14 -14
-9 -17 16 24 29 -7 -10 -9
-10 -11 15 27 36 1 -1 -4
-10 1 17 32 45 12 10 5
-10 9 16 36 52 24 21 13
-3 15 14 38 62 40 37 22
6 24 11 38 72 61 60 41
15 31 -1 30 79 79 82 59
24 39 -10 21 85 98 108 80
36 50 -20 2 81 117 135 101
47 59 -37 -39 56 129 163 122
59 69 -53 -82 26 142 195 147
62 72 -64 -120 -6 149 221 168
63 74 -75 -158 -39 150 235 177
59 80 -85 -188 -69 152 241 183
56 85 -105 -225 -106 142 239 182
56 91 -124 -260 -143 122 225 173
44 92 -132 -284 -172 95 198 158
31 84 -132 -298 -196 54 154 134
14 73 -127 -309 -223 -6 93 101
-6 45 -121 -319 -253 -85 8 47
-30 8 -108 -316 -276 -163 -73 -14
-47 -18 -92 -298 -281 -216 -120 -52
-53 -33 -84 -275 -270 -234 -136 -69
-53 -39 -80 -248 -248 -224 -136 -75
-53 -45 -73 -222 -223 -206 -133 -77
-52 -52 -66 -197 -197 -188 -128 -78
-48 -56 -60 -175 -177 -170 -119 -75
-43 -53 -52 -152 -155 -153 -106 -68
-39 -45 -46 -133 -135 -135 -95 -59
-36 -37 -39 -114 -115 -118 -83 -51
-34 -33 -30 -96 -94 -101 -70 -43
-32 -29 -24 -82 -77 -87 -61 -39
-29 -26 -21 -68 -63 -76 -55 -34
-27 -21 -16 -53 -47 -61 -44 -26
-20 -18 -10 -38 -33 -46 -32 -18
-16 -20 -4 -26 -22 -36 -24 -15
-15 -18 0 -17 -13 -28 -19 -11
-12 -17 2 -10 -6 -23 -16 -7
-9 -15 3 -5 -2 -20 -14 -6
-9 -13 6 -1 3 -18 -11 -5
-8 -14 6 2 5 -18 -13 -4
-8 -16 4 1 6 -18 -14 -7
-8 -14 6 5 10 -15 -12 -5
-6 -13 7 6 11 -13 -10 -4
-7 -13 7 3 10 -11 -9 -4
-5 -12 7 5 10 -12 -8 -3
-5 -13 6 4 8 -12 -8 -4
-9 -12 8 7 11 -10 -5 -1
-6 -12 6 6 11 -12 -8 -1
-3 -12 5 6 10 -13 -10 -4
-4 -10 8 9 14 -11 -7 -3
-8 -12 9 9 17 -11 -7 -4
-7 -11 9 10 18 -9 -7 -2
0 -9 8 9 19 -8 -8 -4
-1 -11 9 8 18 -8 -8 -2
-2 -11 9 9 16 -7 -7 -2
-10 -12 11 12 17 -3 -4 2
-5 -11 8 9 15 -7 -5 -1
-1 -10 10 10 15 -8 -6 0
-6 -12 9 12 15 -8 -5 0
-4 -10 7 12 16 -11 -6 -2
0 -9 8 11 18 -11 -6 -2
-4 -10 9 12 19 -8 -7 -1
-7 -10 11 13 20 -6 -4 0
-1 -11 8 10 17 -8 -5 -2
2 -11 7 9 16 -8 -7 -2
0 -9 10 12 18 -3 -5 0
-7 -11 12 14 19 -3 -2 2
-5 -10 11 13 19 -5 -3 2
-3 -10 11 14 20 -5 -4 2
-5 -12 8 12 19 -8 -6 -2
-3 -11 9 13 21 -6 -6 -2
-5 -11 11 15 24 -4 -6 -1
-8 -13 10 14 22 -3 -4 1
-1 -11 9 12 21 -4 -6 -1
-4 -12 11 14 22 -1 -3 2
-2 -9 9 14 19 -3 -4 1
2 -5 10 16 20 -1 -1 3
2 -8 10 17 21 -2 -3 3
-3 -6 12 20 24 1 -2 5
-4 -7 10 18 22 -3 -4 1
0 -9 9 15 22 -3 -6 -1
-1 -9 8 16 22 -3 -7 -2
-4 -10 10 17 22 -2 -6 -2
-1 -9 11 18 24 0 -4 -1
0 -8 11 17 22 0 -6 -1
-2 -7 11 18 22 0 -4 -1
-2 -4 13 20 24 4 -2 1
4 -5 10 19 24 2 -2 0
3 -4 10 20 25 2 -2 0
-3 -5 10 20 28 1 -3 -1
-7 -13 11 22 29 1 -4 -1
-1 -8 10 21 28 1 -4 -2
-1 -7 10 20 26 1 -5 -2
-5 -10 11 22 28 4 -2 -1
-2 -10 12 23 27 5 -2 1
0 -8 10 20 24 3 -3 -1
1 -6 11 22 25 4 -2 -1
4 -3 11 24 27 4 -2 -1
1 -6 11 24 28 4 -3 0
4 -7 10 24 29 4 -4 -2
2 -9 11 25 31 5 -4 -1
-6 -9 13 27 33 7 -2 -1
-1 -6 11 27 32 7 -3 -2
2 -8 10 26 31 7 -3 -2
-2 -9 11 26 30 7 -3 -1
1 -6 11 27 33 8 -2 -2
0 -5 11 29 33 10 -2 -1
3 -5 12 31 34 9 -1 0
3 -3 13 33 37 10 -1 2
3 -4 12 33 38 10 -1 0
6 -3 13 36 42 14 0 2
3 -1 14 41 45 15 1 1
0 -3 15 42 47 17 2 3
3 -2 14 41 45 17 0 1
6 -2 10 38 40 14 -2 -1
4 -2 12 41 43 17 2 0
6 -1 13 44 46 20 3 0
6 0 14 47 49 22 4 2
7 2 15 48 50 22 3 4
6 0 14 49 52 22 2 2
6 -1 15 51 54 23 2 2
6 0 16 54 59 25 4 3
8 -1 15 54 58 26 4 2
8 -1 16 55 59 29 5 4
6 -2 15 55 59 30 5 5
8 1 15 57 60 29 5 4
11 4 16 59 62 32 7 6
9 1 15 61 63 31 6 5
9 2 15 61 63 31 5 2
10 3 14 62 66 31 5 2
9 1 13 64 67 31 3 1
14 2 13 66 70 33 4 1
10 2 15 70 73 36 7 5
9 1 14 69 71 37 7 5
12 5 13 68 70 36 6 4
10 4 12 68 70 35 5 2
14 5 12 68 69 37 4 3
16 6 12 70 71 37 4 2
12 3 13 71 72 38 4 2
14 5 12 71 74 36 3 0
16 5 12 72 74 37 3 0
17 4 12 72 76 37 3 0
19 6 13 72 77 38 4 1
13 7 12 72 77 40 5 1
17 10 11 71 75 39 4 2
20 10 12 73 76 39 5 1
19 9 13 74 75 39 5 3
19 10 13 73 75 38 5 4
17 8 13 73 76 38 4 4
16 8 11 71 74 34 3 0
17 9 12 72 75 36 3 3
20 8 10 71 73 35 3 0
17 9 10 70 72 36 3 1
19 7 10 69 70 34 3 1
21 6 10 67 68 34 4 3
16 12 14 70 71 38 9 7
18 14 13 67 68 34 6 7
20 13 12 65 67 33 6 6
21 14 11 63 64 31 4 3
19 12 10 61 63 29 2 0
13 10 13 60 63 30 5 3
13 10 14 59 63 31 7 4
12 7 11 54 58 28 5 2
13 6 9 51 54 26 5 2
13 5 10 49 53 27 8 2
11 8 10 46 50 25 8 3
9 10 12 44 48 24 10 6
8 9 10 42 44 22 10 5
8 9 10 40 43 20 9 3
6 8 8 37 40 17 8 3
5 7 9 34 37 18 8 2
6 6 10 33 37 18 7 1
7 5 8 28 33 15 7 0
2 1 8 26 30 16 8 1
3 1 10 25 29 15 9 2
4 2 9 22 26 14 8 0
2 4 11 21 27 14 11 4
2 3 9 19 24 12 10 3
1 2 9 18 22 9 7 1
5 3 8 16 22 7 5 0
2 5 9 16 22 9 6 1
-2 2 8 13 20 8 5 -2
3 -1 6 8 15 4 2 -5
1 -3 5 8 14 5 3 -3
-6 -2 9 10 14 6 6 0
-4 -3 7 7 12 4 4 -3
1 -1 7 5 7 2 4 -3
3 2 8 6 8 2 4 -4
0 0 8 6 8 1 3 -4
0 -3 9 6 9 1 3 -3
4 -1 9 6 9 1 2 -4
6 -4 8 3 7 -1 0 -8
2 -7 7 2 6 -1 0 -7
-5 -6 9 3 8 2 2 -4
-6 -6 6 -1 3 -1 0 -7
1 -5 3 -4 0 -4 -3 -11
-1 -3 5 -2 1 -3 0 -8
-6 -6 6 -3 1 -4 0 -7
-7 -8 6 -2 2 -4 -1 -8
-4 -8 5 -3 0 -7 -3 -10
1 -4 5 -3 1 -7 -5 -10
0 -6 5 -4 2 -7 -5 -12
-6 -8 6 -3 2 -5 -4 -11
-5 -7 5 -4 0 -4 -4 -10
-4 -8 4 -5 -3 -5 -5 -11
-2 -8 5 -5 -3 -5 -3 -11
-4 -8 6 -3 -2 -5 -2 -9
-3 -9 5 -5 -3 -7 -4 -10
-3 -9 5 -4 -4 -8 -4 -12
-4 -6 5 -3 -3 -8 -4 -12
-6 -7 6 -2 0 -8 -5 -12
-2 -7 6 -2 1 -7 -5 -13
-2 -4 8 -1 2 -5 -3 -12
-2 -6 6 -3 0 -6 -3 -13
-1 -3 7 -3 0 -5 -4 -12
-5 -4 9 -1 2 -3 0 -8
-3 -3 10 0 2 -4 0 -9
1 -5 8 -2 0 -6 -3 -11
-6 -9 9 -1 1 -7 -3 -12
-5 -9 8 -1 0 -7 -5 -13
-5 -8 8 -1 0 -8 -6 -14
-1 -6 7 -2 1 -8 -7 -15
-3 -4 7 0 1 -6 -5 -14
0 -3 7 -1 2 -5 -4 -12
0 -1 10 1 3 -3 -2 -10
0 -2 9 2 3 -3 -1 -11
-3 -3 8 1 1 -5 -2 -11
0 -3 8 1 2 -4 -3 -12
-6 -5 9 4 5 -3 -3 -12
-2 -5 8 4 5 -4 -3 -11
0 -4 8 2 4 -6 -4 -14
-7 -7 7 2 5 -5 -4 -15
-3 -4 6 1 3 -5 -5 -16
-2 -2 6 1 3 -5 -4 -15
-6 0 10 4 6 0 0 -12
-1 -1 9 5 7 2 2 -10
-4 -3 9 5 6 2 1 -9
-3 -3 10 5 7 2 3 -7
-1 -7 9 4 7 1 1 -9
-3 -6 7 3 6 0 0 -11
-1 -5 8 4 7 -1 0 -11
-5 -6 8 5 8 0 0 -11
-8 -6 8 5 8 3 2 -11
-4 -3 7 4 7 1 1 -11
0 -5 7 3 5 1 1 -12
-1 -1 8 5 7 2 2 -11
-3 2 8 6 7 2 3 -10
-1 3 7 5 7 0 2 -11
3 1 7 6 7 1 2 -9
6 2 5 4 6 -1 1 -11
-2 2 9 6 8 1 5 -9
-2 1 7 6 8 1 3 -11
1 -2 3 3 4 0 1 -14
1 -2 4 3 4 0 1 -13
-2 -2 6 3 5 2 3 -11
-1 -1 6 4 6 4 5 -10
5 3 6 2 4 2 5 -10
0 3 6 3 5 2 4 -10
2 3 5 3 3 2 4 -11
8 5 5 5 6 3 5 -9
5 3 6 5 7 3 5 -9
-1 2 7 5 7 4 4 -10
0 -1 3 2 2 1 2 -12
2 -1 3 1 2 0 2 -12
1 1 5 2 3 1 3 -11
1 0 4 2 1 1 3 -12
-2 -2 3 0 -2 -1 3 -12
2 0 5 1 -2 -1 1 -12
1 1 3 0 -3 -2 2 -13
3 2 4 1 -2 -1 2 -14
2 3 5 2 0 0 2 -14
2 2 5 2 0 0 1 -13
3 1 4 2 0 1 2 -12
2 0 4 1 0 0 3 -13
6 3 6 1 0 2 3 -12
5 2 4 0 -3 1 4 -11
-8 -5 3 -1 -4 -1 3 -12
-6 -3 3 -2 -4 -3 0 -15
-6 -1 3 -2 -4 -3 1 -14
-1 -5 1 -3 -6 -4 0 -16
0 -1 3 0 -2 -2 1 -13
-4 -2 4 -1 -1 0 1 -12
-3 -1 3 -2 -2 -1 2 -12
1 -1 5 -2 -4 -1 2 -12
1 -1 5 -2 -5 -1 2 -13
0 -2 6 -1 -4 0 3 -12
-3 -3 6 -1 -5 -1 4 -13
-4 -5 6 -1 -6 -1 2 -13
-1 -2 7 0 -4 -1 3 -12
1 -2 4 -2 -6 -3 1 -14
2 1 5 0 -5 -3 1 -11
2 -1 5 -1 -4 -1 2 -12
0 -3 5 -2 -5 -2 2 -12
4 0 5 -2 -6 -1 2 -13
2 2 7 -1 -5 0 3 -11
0 2 6 -3 -6 -1 2 -12
2 2 5 -2 -6 -2 1 -14
0 0 4 -4 -8 -3 0 -14
3 2 4 -4 -9 -3 -1 -14
3 2 3 -4 -8 -4 -1 -14
0 -2 4 -3 -7 -4 -1 -14
-4 -3 4 -3 -7 -2 -1 -14
0 -1 3 -4 -8 -3 -1 -16
2 -1 3 -4 -8 -3 -1 -15
1 3 5 -2 -6 -1 2 -14
1 1 2 -4 -8 -3 -1 -15
0 0 4 -2 -6 -2 3 -13
-3 0 3 -2 -6 -2 2 -13
-1 -3 1 -5 -9 -5 -1 -16
3 2 1 -4 -8 -5 -1 -15
1 1 3 -2 -6 -4 1 -15
-1 -1 3 -3 -6 -3 1 -14
-6 2 6 0 -2 0 3 -12
-6 -1 5 -2 -4 -1 2 -13
3 4 6 -1 -4 0 4 -13
6 8 3 -4 -6 -1 1 -14
2 6 5 -3 -5 -2 4 -12
9 16 7 0 -2 1 5 -10
5 19 10 4 2 4 8 -8
5 18 9 2 0 2 7 -9
4 17 10 2 0 1 6 -9
2 14 8 1 -1 1 6 -11
3 15 9 1 -1 2 6 -10
4 18 10 1 0 2 7 -9
5 21 9 0 -1 3 8 -8
8 22 8 1 0 5 11 -6
5 19 7 1 0 5 11 -5
6 20 7 1 1 6 11 -4
10 24 8 5 3 9 14 -2
11 23 5 5 4 9 14 -1
15 24 3 5 4 9 14 -1
14 23 1 5 5 10 13 -3
12 20 -1 4 4 10 12 -3
11 17 0 5 6 11 13 -2
10 15 -1 4 4 10 13 -3
11 14 -3 1 1 7 10 -5
10 12 -1 0 0 6 10 -4
9 12 -3 -3 -3 2 8 -6
10 14 -4 -4 -6 0 8 -7
10 14 -4 -5 -7 -1 5 -8
8 14 -3 -6 -6 -1 6 -9
7 10 -2 -4 -5 1 6 -6
9 8 -4 -5 -8 -2 4 -9
11 7 -4 -6 -10 -4 4 -12
10 7 -3 -6 -10 -3 5 -10
5 2 -3 -6 -12 -4 2 -11
1 2 -2 -7 -11 -5 2 -12
2 2 -2 -6 -10 -5 2 -12
2 2 -1 -5 -10 -5 2 -12
2 1 -1 -6 -11 -6 0 -15
-2 -4 -2 -9 -14 -9 -3 -18
-5 -3 0 -7 -12 -8 -2 -16
-5 -2 1 -6 -11 -7 -1 -16
-2 -4 -1 -10 -15 -11 -5 -19
-1 -2 -1 -10 -15 -10 -3 -18
-2 -3 0 -9 -15 -9 -3 -18
-7 -3 2 -8 -15 -9 -2 -17
-2 -5 -2 -11 -18 -12 -5 -20
0 -5 -5 -12 -21 -14 -6 -22
1 -2 -2 -8 -17 -10 -3 -19
-1 -1 0 -8 -15 -9 -3 -20
-4 -5 -3 -10 -17 -11 -7 -22
-2 -4 -4 -11 -18 -12 -6 -22
-4 -5 -3 -10 -18 -12 -6 -21
-2 -2 -2 -10 -18 -10 -4 -20
-1 -3 -3 -9 -18 -9 -3 -19
-7 -5 -3 -11 -19 -13 -7 -22
-7 -6 -1 -10 -17 -11 -4 -20
-5 -3 -4 -10 -20 -13 -4 -20
-7 -5 -5 -11 -20 -14 -7 -23
-5 -7 -4 -13 -21 -15 -7 -22
-8 -7 -3 -11 -19 -13 -6 -21
-5 -5 -3 -10 -19 -12 -4 -21
1 -4 -4 -12 -20 -13 -5 -22
-5 -5 -2 -10 -18 -11 -3 -19
-3 -4 -2 -10 -18 -10 -4 -20
-4 -4 -2 -11 -19 -12 -5 -21
-6 -3 -3 -11 -20 -12 -6 -22
-4 -2 -3 -10 -18 -12 -5 -22
-5 -7 -3 -9 -17 -12 -4 -20
-7 -8 -3 -9 -16 -12 -3 -20
-6 -6 -4 -10 -17 -12 -3 -20
-6 -6 -5 -10 -18 -13 -5 -21
-3 -6 -4 -10 -17 -12 -3 -21
-3 -1 -2 -8 -15 -8 -1 -19
-5 -5 -2 -8 -15 -8 -2 -18
-4 -3 -3 -7 -15 -8 -1 -18
-4 -3 -1 -5 -13 -7 -2 -19
-5 -3 2 -1 -10 -7 -4 -20
-5 -4 7 5 -7 -9 -7 -23
-9 -9 9 10 -4 -11 -10 -28
-8 -8 13 15 0 -8 -12 -32
-8 -7 14 18 5 -5 -9 -30
-6 -4 13 20 10 2 -3 -24
-5 5 14 26 19 13 7 -15
-3 13 14 32 27 22 17 -8
-2 21 16 38 38 36 30 3
2 30 16 43 50 53 47 15
9 37 10 40 58 68 64 27
21 47 3 39 69 89 88 46
29 56 -8 31 75 108 110 65
36 59 -20 10 69 122 131 81
49 67 -37 -35 45 131 157 100
58 76 -55 -82 15 141 185 124
67 83 -67 -124 -16 147 208 143
71 91 -78 -161 -47 151 225 158
69 95 -91 -195 -74 149 230 162
71 104 -111 -231 -108 140 229 163
73 108 -131 -266 -144 120 215 155
55 107 -138 -291 -173 94 192 142
38 98 -138 -305 -199 55 151 118
19 82 -136 -319 -230 -3 95 87
-5 59 -128 -325 -256 -72 24 42
-25 25 -115 -322 -280 -143 -54 -16
-41 -6 -100 -304 -287 -193 -104 -59
-49 -21 -88 -279 -279 -212 -122 -78
-49 -28 -85 -255 -259 -207 -124 -85
-50 -36 -78 -227 -232 -192 -121 -88
-46 -40 -71 -201 -207 -172 -114 -88
-44 -44 -65 -178 -186 -156 -107 -84
-38 -42 -60 -158 -168 -142 -98 -80
-35 -34 -52 -138 -149 -125 -87 -73
-35 -27 -45 -119 -129 -108 -74 -64
-32 -20 -36 -101 -108 -92 -60 -55
-32 -17 -29 -84 -90 -77 -50 -47
-24 -15 -24 -69 -75 -65 -43 -43
-19 -6 -19 -55 -59 -50 -32 -37
-17 -5 -12 -39 -44 -36 -22 -30
-12 -4 -5 -24 -29 -24 -14 -25
-5 -3 -2 -16 -22 -17 -10 -21
1 -2 -2 -12 -17 -15 -6 -19
-1 2 1 -6 -14 -11 -5 -17
-2 3 3 -1 -9 -9 -3 -15
-1 1 2 -1 -10 -10 -4 -16
-2 0 1 0 -7 -9 -2 -16
-8 -2 3 3 -4 -6 -3 -16
-4 -2 3 2 -4 -7 -4 -17
-2 -1 1 2 -5 -7 -3 -18
-7 -3 3 5 -3 -3 -1 -16
-3 0 2 5 -3 -3 1 -15
0 0 2 4 -3 -4 0 -15
-5 2 5 9 -1 -3 2 -13
-5 4 6 9 1 -1 3 -12
-3 -1 2 6 -1 -4 -1 -15
2 1 1 8 0 -4 -3 -16
0 3 3 10 3 -1 0 -13
-2 0 4 9 2 -2 0 -14
0 1 3 9 4 0 2 -14
0 -1 4 10 4 2 2 -13
-1 -2 3 9 2 1 2 -12
1 -2 5 9 3 1 3 -9
-1 1 5 12 4 1 5 -8
0 2 8 14 6 3 5 -7
-3 0 4 12 4 0 3 -10
-1 0 4 12 5 0 2 -9
1 1 5 15 7 2 3 -7
-3 2 7 16 8 5 6 -6
1 3 6 15 8 4 6 -6
5 5 6 15 7 4 5 -5
-2 1 7 15 8 5 6 -4
-3 -1 6 13 6 3 5 -5
-1 0 5 15 7 3 5 -4
1 1 6 15 7 3 3 -4
4 4 7 16 8 3 5 -3
2 2 7 16 8 3 3 -5
1 4 7 18 10 5 4 -4
4 7 7 17 11 6 5 -2
3 5 6 16 9 3 4 -3
1 5 6 16 8 4 3 -3
3 4 6 16 8 5 5 -1
0 3 6 15 7 4 6 -2
0 3 7 17 8 4 6 -3
0 1 5 16 8 3 4 -3
-2 1 6 18 9 3 4 -4
-2 1 7 19 12 5 6 -3
-2 0 7 21 14 7 5 -4
2 3 6 20 14 8 4 -3
3 6 5 19 14 6 4 -4
4 5 6 19 13 8 5 -4
2 3 7 20 15 10 6 -4
-2 2 6 17 12 7 6 -5
-4 3 8 21 14 8 7 -2
0 4 6 19 13 6 4 -5
-1 2 6 20 13 5 3 -7
-1 3 7 21 15 6 4 -4
2 2 6 22 16 7 3 -6
0 3 7 22 17 8 4 -5
2 4 7 22 18 8 5 -5
5 4 6 21 16 9 5 -6
6 9 7 23 18 10 6 -5
2 6 8 23 19 10 7 -5
-3 4 8 25 19 10 7 -4
6 6 6 24 18 10 5 -7
3 4 7 27 20 10 5 -8
4 1 6 28 22 11 5 -8
10 5 7 29 23 11 4 -7
8 9 9 31 25 14 6 -6
4 8 9 31 26 14 6 -6
1 4 8 31 25 15 6 -7
2 3 6 31 23 13 5 -7
5 7 7 32 26 13 7 -4
12 10 9 35 28 15 8 -4
8 9 9 37 29 17 9 -4
5 9 9 38 30 15 8 -4
4 6 6 37 29 13 6 -7
7 8 7 39 31 16 6 -6
5 8 10 41 35 19 10 -2
4 5 9 41 35 19 9 -3
10 6 8 41 34 20 8 -5
11 8 9 44 36 22 9 -4
9 8 10 46 38 23 13 -2
3 9 12 49 41 26 13 0
7 9 11 49 41 24 10 -3
11 11 10 51 42 21 8 -4
7 8 10 52 44 22 7 -5
7 7 11 54 46 25 8 -3
10 9 11 56 48 28 11 -3
9 8 12 58 49 29 11 -4
8 9 12 59 48 28 8 -3
11 10 12 60 50 29 11 -2
11 10 11 61 51 29 12 -3
13 12 13 64 53 31 12 0
14 12 13 65 54 33 13 1
11 12 13 67 56 32 13 0
14 15 13 69 59 34 14 0
15 12 10 69 58 33 11 -3
16 11 11 69 60 34 11 -2
16 13 11 70 61 35 12 -1
13 14 10 70 60 35 11 -1
13 14 10 71 61 35 11 0
14 16 10 71 62 35 12 -1
17 17 10 72 62 35 11 0
20 18 11 74 65 37 11 1
17 17 12 76 66 36 11 0
16 17 12 77 66 36 12 0
21 20 11 78 67 38 11 0
20 19 11 77 68 38 11 -1
24 19 10 77 67 38 12 0
21 16 10 77 66 38 11 0
20 16 9 77 65 38 10 0
16 17 11 78 66 38 13 2
17 15 9 76 64 35 10 1
20 13 6 73 61 33 7 0
20 15 8 74 64 33 11 2
18 16 9 75 63 33 10 2
21 18 8 73 62 33 9 2
23 19 8 72 63 34 9 2
19 17 7 71 62 32 9 1
17 17 8 69 61 31 9 1
21 18 5 65 57 30 6 -1
14 19 7 66 58 31 10 2
13 19 8 66 57 30 10 3
19 16 5 61 52 27 7 0
14 15 7 62 54 28 9 3
15 17 7 60 52 27 10 2
15 19 7 59 52 28 10 1
20 21 7 57 51 28 11 2
18 20 6 53 47 25 10 0
16 18 6 50 45 25 10 0
17 19 9 50 44 28 14 4
17 20 8 48 42 26 16 3
17 22 7 44 38 23 14 1
15 20 7 42 36 23 13 2
9 16 6 38 34 20 13 1
8 12 4 34 31 17 12 -2
6 14 7 35 33 20 13 1
10 16 7 33 31 19 15 1
8 17 8 31 29 19 16 1
7 16 6 26 26 17 15 1
8 17 6 24 23 16 15 1
9 16 5 21 20 15 14 1
10 15 5 19 17 11 13 0
7 15 6 19 17 13 14 1
4 12 4 15 16 10 12 -1
1 9 5 14 15 9 10 -2
-1 5 4 12 12 8 10 -3
0 6 3 11 11 7 9 -5
3 10 2 8 8 6 8 -5
4 8 3 6 7 6 8 -5
-2 7 6 7 7 8 10 -3
-2 8 7 8 8 8 11 -3
2 5 4 7 4 3 7 -6
1 6 4 6 3 4 8 -6
1 6 3 5 3 2 6 -7
3 3 1 4 2 -1 4 -8
-5 2 6 6 4 2 7 -5
-5 2 4 3 3 1 6 -5
0 1 2 0 -1 -3 3 -9
-2 2 4 0 0 -1 4 -7
-4 1 5 -1 -2 -1 4 -6
-2 4 6 0 -1 -1 5 -4
-3 3 6 1 0 -1 5 -6
-4 0 6 0 -1 -1 6 -8
1 2 5 -1 -1 -3 3 -7
3 2 3 -3 -2 -5 1 -10
-1 1 3 -1 -3 -4 2 -10
-5 2 5 -1 -1 -2 4 -8
-6 2 2 -4 -4 -6 1 -9
1 2 2 -6 -5 -7 0 -11
0 0 3 -5 -5 -6 1 -9
-2 1 3 -4 -5 -5 1 -9
1 3 3 -4 -5 -6 0 -9
-2 0 5 -3 -4 -6 1 -9
-4 2 5 -4 -3 -6 3 -6
-2 4 5 -3 -2 -4 4 -6
3 0 4 -4 -4 -7 1 -10
-4 2 5 -4 -2 -5 2 -9
-4 3 4 -4 -4 -7 2 -8
1 1 3 -5 -5 -7 1 -9
-1 2 3 -5 -4 -5 2 -8
-1 3 2 -6 -4 -6 1 -9
0 3 3 -5 -5 -8 0 -8
-3 2 5 -4 -3 -7 1 -7
-4 -1 2 -6 -5 -10 -2 -10
-3 1 2 -5 -4 -8 -1 -9
-2 0 4 -2 -2 -6 0 -9
-4 -2 7 -1 1 -4 2 -8
-3 -2 6 -1 1 -5 3 -5
-8 -5 5 -1 -1 -5 2 -7
-12 -3 7 0 0 -3 3 -5
-4 -2 6 -1 -1 -4 3 -4
-6 -4 5 -1 -3 -6 1 -5
-7 -2 6 1 0 -5 1 -5
-7 -1 5 0 -1 -4 2 -6
-6 0 6 2 1 -3 3 -5
1 4 4 0 0 -4 1 -7
0 2 5 0 1 -3 2 -7
-1 2 4 0 1 -3 1 -6
3 3 5 2 3 -2 3 -5
-3 4 6 2 4 -1 4 -5
1 5 5 2 3 -2 3 -5
-8 4 7 4 5 2 5 -3
-8 1 6 3 4 0 4 -4
0 2 5 2 3 -1 2 -4
-3 1 5 2 4 -1 2 -4
-3 3 8 5 7 2 5 -1
-4 3 9 6 8 2 6 0
-1 1 7 4 6 1 4 -2
-1 3 8 5 6 3 6 -1
-1 4 8 6 7 3 6 0
2 5 5 3 5 2 4 -2
-2 6 7 4 5 3 5 -2
-4 3 6 4 5 1 4 -3
3 2 5 3 3 0 2 -4
0 3 6 4 5 1 3 -4
-6 2 6 4 6 1 4 -4
-4 3 6 4 6 2 4 -3
-4 2 5 4 5 1 4 -4
-1 4 6 4 5 1 4 -3
1 5 6 2 4 1 5 -2
-1 2 5 3 6 2 6 -2
0 2 6 4 5 2 6 1
-1 1 6 4 6 2 6 0
2 1 5 2 4 1 5 -1
-2 -1 6 3 6 0 5 -1
-11 -4 7 5 7 2 7 -1
-7 -3 5 2 5 1 4 -2
1 0 4 1 3 -1 3 -3
1 0 5 0 4 0 4 -2
2 3 7 2 6 3 7 1
1 0 5 1 4 1 6 0
-2 0 3 -1 2 -3 2 -2
-2 3 5 2 5 0 6 0
-2 2 7 4 7 2 7 2
2 3 5 2 6 -1 4 -1
1 4 5 2 4 -2 3 -1
-2 3 3 0 3 -3 3 -2
-3 -2 4 1 4 -2 5 1
0 -1 4 1 4 -2 5 2
-1 0 4 -1 2 -2 5 1
-2 -2 5 0 4 -1 6 2
0 -2 4 -1 2 -4 3 2
-1 0 4 -2 3 -4 4 1
0 4 6 -1 4 -2 6 2
-2 3 6 0 5 -3 5 2
1 3 5 -2 3 -4 4 0
-2 2 6 -1 5 -2 6 2
-1 1 4 -1 3 -4 6 2
3 1 3 -2 2 -4 4 1
0 -2 3 -3 1 -5 4 2
-6 -3 4 -2 2 -4 5 4
-3 -1 4 -2 2 -5 5 4
-1 -2 3 -3 1 -5 3 1
1 -3 3 -4 2 -6 4 2
-3 -2 4 -2 4 -3 5 3
-5 -2 4 -1 4 -4 4 2
-4 -1 5 -1 5 -4 6 2
-7 -3 3 -2 3 -4 4 2
-4 -3 3 -3 3 -4 4 1
-4 -2 4 -3 4 -4 4 3
-6 -4 2 -4 2 -5 3 2
-6 -3 2 -4 1 -6 4 3
-3 -5 2 -5 1 -7 2 1
-4 -4 4 -4 4 -6 4 5
-9 0 8 0 8 -1 9 10
-5 -3 5 -3 4 -4 5 6
0 -4 4 -5 3 -5 4 3
1 0 5 -4 3 -6 4 5
1 -1 5 -3 3 -4 5 6
-2 -2 5 -3 3 -3 5 6
-3 -4 4 -4 2 -5 3 6
-1 -2 5 -3 1 -5 4 7
-1 -1 4 -4 2 -5 4 7
-1 -2 4 -4 2 -6 4 6
-2 -1 4 -4 3 -5 4 5
-1 0 4 -3 2 -5 4 4
0 0 4 -3 4 -5 5 8
-3 1 6 -1 5 -3 6 10
1 1 5 -4 4 -4 5 8
3 4 5 -3 3 -4 5 8
3 3 5 -4 2 -4 5 6
0 1 4 -5 0 -5 5 6
-3 3 7 -2 5 -2 8 11
-2 7 6 0 5 -2 7 10
0 6 6 -3 5 -3 6 9
3 9 8 -1 7 -1 8 11
2 11 9 0 10 1 9 12
2 12 10 1 10 1 10 12
6 18 10 1 9 2 11 13
2 17 10 1 9 2 9 14
-1 13 12 2 10 3 10 14
-1 11 11 -1 10 2 11 15
4 10 9 -2 8 0 10 14
5 14 10 -1 8 1 11 15
-2 15 11 -1 10 2 14 17
1 13 9 0 10 2 14 17
5 17 7 0 11 3 13 19
5 18 7 2 13 6 16 21
9 20 6 1 14 7 18 22
10 20 6 4 15 9 20 23
11 18 3 4 16 7 19 23
15 19 3 5 17 9 20 25
13 17 5 7 19 12 22 26
9 14 5 6 17 9 19 25
8 11 4 4 15 5 16 23
7 7 2 -1 10 1 12 19
5 5 0 -5 7 -2 9 17
6 6 0 -6 5 -2 9 17
9 7 0 -7 5 -1 10 16
10 8 1 -6 4 0 11 18
7 5 0 -7 4 -1 10 17
4 4 2 -4 6 -1 10 17
7 6 1 -6 5 -3 7 15
8 3 0 -7 2 -5 7 14
8 -1 -1 -8 1 -7 4 14
5 -2 0 -7 1 -6 4 14
-1 -3 1 -5 3 -5 6 13
-3 -3 4 -4 3 -4 7 14
-1 -7 1 -9 -2 -9 1 8
-5 -10 1 -9 -3 -9 2 9
-6 -9 2 -8 -2 -8 2 9
-8 -14 1 -10 -4 -9 1 7
-8 -12 4 -9 -3 -9 0 8
-6 -10 3 -9 -3 -9 0 8
-4 -10 2 -11 -4 -10 -2 7
-5 -10 3 -11 -3 -9 -1 7
-6 -11 2 -12 -3 -10 -1 6
-4 -9 1 -13 -6 -12 -4 4
-4 -12 1 -14 -6 -13 -4 4
-11 -14 2 -13 -6 -12 -3 4
-10 -13 4 -11 -4 -8 0 8
-7 -12 2 -11 -5 -10 -2 6
-4 -12 1 -13 -6 -11 -4 3
-4 -9 3 -11 -4 -9 0 7
-10 -13 4 -9 -3 -9 0 8
-5 -11 1 -12 -6 -10 -2 5
-3 -10 1 -11 -4 -8 -1 6
-5 -11 1 -11 -5 -10 -2 6
-4 -11 2 -10 -5 -9 -2 6
-3 -10 1 -11 -6 -11 -3 5
-5 -11 2 -11 -6 -10 -3 5
-3 -11 1 -12 -6 -10 -3 5
-9 -15 3 -10 -4 -9 -2 6
-11 -15 4 -9 -2 -8 -1 8
-6 -13 3 -10 -3 -9 -2 6
-7 -12 3 -10 -3 -10 -2 6
-5 -8 4 -9 -2 -8 0 6
-3 -10 3 -10 -2 -8 -1 6
-4 -12 3 -10 -2 -8 -2 6
-1 -10 3 -9 -1 -8 -2 7
-6 -13 4 -9 -1 -6 0 9
-12 -15 6 -8 0 -5 2 11
-7 -15 3 -9 -1 -6 1 8
-8 -18 2 -11 -2 -8 0 6
-3 -16 0 -12 -4 -11 -3 3
-7 -14 1 -9 -2 -9 -1 5
-6 -12 3 -6 0 -8 -1 6
-2 -10 6 -2 3 -8 -2 3
-7 -14 12 4 8 -6 -4 0
-12 -16 16 11 13 -5 -5 -2
-12 -18 18 17 16 -4 -6 -3
-11 -16 18 20 20 1 -2 0
-9 -9 18 25 27 9 5 5
-9 -5 17 28 35 17 12 10
-7 0 18 34 45 27 23 20
-4 10 20 38 54 40 35 29
1 17 17 39 64 55 49 38
9 28 11 38 74 73 69 53
21 39 4 38 85 94 91 72
32 49 -6 28 88 109 112 88
47 58 -19 0 79 122 134 107
56 67 -36 -45 54 130 157 128
65 74 -53 -90 25 137 180 148
74 82 -67 -134 -6 138 199 165
77 86 -79 -173 -34 139 211 175
77 93 -94 -209 -64 135 213 178
71 96 -116 -248 -101 123 208 179
66 100 -131 -281 -135 103 196 170
57 100 -137 -304 -165 71 168 155
41 90 -136 -316 -193 25 124 129
23 77 -132 -328 -223 -36 71 101
0 50 -120 -328 -247 -100 2 54
-25 10 -105 -319 -265 -160 -65 -1
-39 -16 -89 -297 -266 -195 -104 -37
-43 -31 -82 -273 -254 -205 -117 -56
-45 -42 -80 -249 -234 -197 -121 -64
-50 -49 -71 -220 -207 -179 -115 -65
-52 -54 -65 -196 -184 -161 -109 -65
-48 -57 -61 -176 -167 -147 -102 -62
-38 -49 -54 -155 -149 -132 -92 -55
-40 -47 -48 -137 -129 -117 -80 -49
-37 -38 -37 -114 -107 -97 -66 -39
-30 -28 -30 -96 -88 -82 -55 -32
-27 -23 -23 -80 -71 -70 -46 -25
-22 -21 -18 -64 -56 -57 -39 -21
-20 -18 -12 -49 -39 -43 -28 -14
-17 -14 -5 -34 -23 -30 -20 -6
-10 -13 1 -23 -14 -19 -12 -2
-8 -15 1 -17 -10 -15 -10 -1
-9 -12 4 -10 -7 -11 -4 3
-5 -12 5 -6 -4 -9 -3 4
-5 -11 4 -4 -3 -10 -5 3
-4 -9 6 0 1 -9 -5 2
-5 -10 6 0 3 -9 -6 0
-3 -10 6 2 6 -7 -5 0
-2 -8 8 5 10 -4 -2 2
-4 -8 8 4 11 -2 -1 3
-1 -7 8 2 9 -2 -1 4
0 -8 7 1 7 -2 0 5
-3 -8 7 2 7 -1 -1 6
-2 -8 7 3 8 -2 0 6
-3 -9 8 6 9 -3 0 8
-4 -3 9 10 13 0 2 9
-3 -3 9 11 15 0 1 10
-2 -5 7 10 15 -2 -1 5
3 -3 7 10 16 1 0 6
5 -3 8 9 17 3 2 7
0 -4 9 10 17 5 4 9
-3 -5 9 10 15 5 4 9
-1 -7 7 8 13 4 3 8
-1 -7 8 10 13 4 5 9
-3 -6 11 14 17 6 7 13
-4 -9 9 14 15 3 5 11
-11 -10 11 16 18 5 5 11
-4 -7 9 14 18 2 3 9
6 -3 8 13 17 2 2 7
3 -4 9 12 18 3 3 8
2 -8 9 11 18 4 3 9
7 -4 9 10 17 4 3 8
0 -2 10 11 16 4 6 11
1 -4 8 11 16 4 5 10
-2 -4 9 13 18 4 5 11
-5 -4 9 15 19 3 4 10
0 -6 8 15 20 2 2 9
4 -6 8 16 22 4 3 10
-9 -6 11 18 26 8 7 14
-6 -4 11 17 25 8 7 13
3 -3 9 14 23 7 5 13
5 -2 9 14 22 7 6 12
2 -1 9 15 22 7 6 14
2 -5 9 15 21 7 5 12
6 -2 9 17 21 7 6 13
3 -3 11 20 24 7 6 13
0 -7 8 17 22 4 2 11
0 -6 9 19 25 7 4 12
0 -4 9 19 26 7 4 12
3 -3 9 18 25 8 5 12
5 0 10 18 25 8 5 13
3 1 9 17 22 6 4 12
4 0 8 16 21 5 5 13
3 1 11 20 23 8 6 16
6 0 10 20 23 7 3 15
5 0 10 22 25 7 4 16
3 -3 10 24 27 8 5 15
0 -6 10 24 29 8 3 13
4 -3 10 25 30 9 4 12
5 -1 10 24 30 11 5 13
4 -1 11 23 29 11 5 15
4 -1 10 22 27 10 5 15
1 -3 7 22 26 10 6 15
3 0 10 26 27 13 7 16
4 -1 9 28 28 13 7 17
0 -2 9 29 29 12 7 16
4 0 8 29 31 12 6 16
3 -2 7 29 31 11 3 12
5 -2 8 29 33 13 3 12
2 1 9 29 34 14 6 14
1 0 9 29 33 15 5 14
2 0 11 30 34 17 7 16
5 -2 8 30 32 15 6 15
4 1 10 35 34 16 7 17
-1 4 14 42 41 22 11 20
6 4 11 40 39 17 7 16
11 5 10 40 39 16 7 16
11 6 10 42 42 19 7 16
7 6 10 43 45 20 7 17
10 5 11 43 47 22 9 17
9 3 13 45 47 24 9 17
6 1 10 43 45 22 9 16
5 4 12 47 46 23 11 19
6 4 11 49 48 24 10 19
9 8 13 52 49 26 10 19
10 6 12 53 51 24 9 18
10 5 13 55 54 25 9 19
10 7 13 57 58 28 10 19
15 7 12 56 57 27 8 17
14 7 13 57 60 29 10 19
13 7 14 59 61 31 10 20
8 6 14 60 62 33 11 20
14 8 13 60 60 32 10 20
12 9 12 62 61 31 10 19
9 7 11 63 61 30 8 17
9 5 11 66 64 31 9 19
12 9 13 70 69 34 11 21
14 10 14 72 72 37 12 22
19 8 14 72 72 36 10 21
13 9 14 72 73 38 12 24
10 11 16 75 76 42 16 28
16 9 13 71 72 39 13 24
16 8 13 73 71 39 12 24
17 11 11 73 69 36 12 24
15 11 10 74 69 37 10 23
16 10 10 76 71 36 11 22
17 12 11 77 74 37 11 23
15 12 12 77 76 38 9 23
19 13 12 78 76 39 9 22
18 13 12 78 77 40 11 25
17 10 11 76 75 40 11 26
20 14 9 74 71 38 10 24
16 16 12 77 75 40 13 28
21 16 11 77 73 38 11 27
23 13 9 77 71 36 9 25
16 9 9 76 71 34 8 25
16 10 10 76 73 34 8 25
21 11 9 75 74 34 6 24
18 12 9 74 74 36 8 26
17 15 10 73 72 36 10 28
21 16 9 71 69 34 9 27
24 20 9 69 67 35 10 27
24 20 10 71 67 36 12 29
16 13 9 70 66 35 12 29
17 15 9 68 64 33 11 28
19 18 8 67 63 32 11 29
18 14 7 64 62 29 10 26
21 17 8 62 62 30 11 28
18 14 7 60 59 29 12 27
13 13 7 56 56 29 12 28
14 14 9 54 56 29 14 31
16 14 7 49 50 27 12 29
15 15 8 49 49 27 16 30
14 15 7 46 47 26 16 32
12 12 7 44 44 26 14 30
11 11 6 41 42 25 15 31
7 9 6 39 42 23 16 30
5 11 8 38 41 24 17 32
10 9 5 33 37 21 15 29
5 7 5 29 32 20 16 30
5 6 6 27 29 19 17 29
6 8 5 25 26 19 16 29
3 5 5 25 25 18 17 29
4 7 6 23 24 16 15 29
1 6 8 23 24 17 16 29
3 4 5 20 20 13 13 26
8 6 6 19 20 11 13 24
1 2 7 19 20 12 12 24
1 2 6 17 19 11 12 24
2 1 4 13 14 9 11 24
-3 1 6 12 14 10 13 25
-1 4 6 11 12 10 13 26
-3 -1 4 10 10 8 13 24
0 1 4 10 10 8 11 25
0 2 4 8 9 5 9 22
0 0 3 8 9 6 10 22
1 1 4 8 9 5 10 22
3 3 2 7 8 4 7 21
1 3 4 6 9 4 8 21
0 1 4 5 7 4 9 23
-2 -4 4 4 5 2 8 20
2 -2 3 4 3 2 7 20
-2 -3 3 3 3 2 9 22
-5 -5 2 1 0 0 7 20
-3 -5 3 2 1 1 7 19
-4 -6 3 3 2 -1 6 19
-4 -5 4 4 4 0 6 21
0 -3 3 4 4 1 5 19
-1 -2 3 4 4 1 5 19
2 0 2 1 2 -1 5 20
-2 -4 2 1 1 -2 5 20
-4 -6 2 -1 -2 -2 6 20
-1 -2 3 1 -1 -2 8 22
-5 -4 3 1 -1 -2 7 22
-7 -6 2 1 -2 -3 6 19
-2 -2 1 0 -2 -4 5 17
-4 -4 2 1 -1 -4 5 16
-3 -3 2 2 1 -3 2 15
-7 0 3 2 2 -2 3 14
-2 -1 3 0 0 -2 3 14
0 -1 4 2 1 -2 3 13
-5 -2 5 4 1 0 4 15
-2 -1 4 4 0 -1 4 14
2 -1 3 4 -1 -1 5 16
-2 -5 2 4 -1 -2 3 14
-3 -4 2 4 -1 -2 3 14
-1 -3 1 4 0 -3 3 13
-3 -4 2 5 2 -2 4 12
-1 -2 4 6 4 0 4 13
2 -1 3 4 2 -1 3 12
-1 0 5 6 2 1 4 14
1 3 6 7 3 3 5 15
-3 -1 4 5 2 1 3 13
-1 -1 5 7 2 2 6 15
-3 -3 5 7 3 2 4 15
-3 -3 3 5 2 -1 1 12
-3 -2 5 8 5 1 4 14
-5 -4 4 8 5 1 4 14
-6 -4 3 7 5 1 2 11
-3 0 5 8 5 2 4 11
2 -1 3 6 3 1 3 9
-4 0 6 10 7 5 6 14
-6 -2 6 11 8 6 7 14
1 -2 4 8 3 2 4 11
2 0 5 10 5 2 5 12
-7 -3 6 11 7 3 5 15
-7 -4 6 11 8 3 4 15
-4 -3 6 10 6 2 3 13
-6 -5 5 9 6 2 2 12
-5 -4 5 9 5 3 4 13
-5 -3 7 10 5 4 5 11
-2 -1 4 9 4 4 4 11
-5 1 6 11 7 7 8 16
-4 -1 6 11 6 7 8 16
0 0 5 10 5 5 6 14
-3 1 7 12 8 7 8 15
1 0 6 12 7 6 7 14
-1 2 6 13 8 6 8 15
-1 0 4 11 7 5 5 13
3 -3 2 7 4 2 5 13
-3 -2 6 10 6 6 8 15
-3 -1 5 9 6 6 8 15
3 3 4 9 7 7 8 14
2 4 6 11 6 6 8 14
1 1 4 9 4 4 5 13
2 2 4 10 5 5 6 14
4 2 5 11 5 5 7 14
1 0 7 11 6 4 6 13
-2 0 8 12 7 5 7 15
-4 -1 5 8 3 3 5 13
-2 0 4 6 1 2 5 11
-4 -1 6 7 2 4 7 15
-3 -4 3 5 0 2 5 13
-4 -1 4 6 0 2 5 11
-3 -1 3 5 -1 0 3 9
-3 -2 4 7 0 1 4 11
0 -1 5 9 3 3 5 12
-1 -1 4 9 4 3 5 12
-1 -2 5 9 2 3 6 12
-3 -1 4 7 0 2 5 12
-3 -1 2 7 0 2 4 12
-4 -1 2 6 -2 1 4 12
-2 -3 0 4 -3 0 4 10
-4 0 0 4 -4 -1 4 11
-7 -1 3 6 0 2 5 13
-3 0 3 6 -1 0 3 10
2 2 3 6 0 -1 4 11
-2 0 4 8 2 1 5 13
-4 -3 2 4 -1 -2 1 10
0 0 3 3 -1 -1 3 11
1 0 4 5 0 0 5 13
4 4 2 3 -3 -1 3 11
2 1 1 1 -5 -3 1 10
0 -2 0 2 -5 -3 1 10
0 0 2 5 -3 -2 3 10
-1 2 4 6 -1 -1 4 11
-1 2 3 4 -2 -2 1 9
-1 -1 2 5 -2 -4 1 8
-3 -2 3 5 -1 -2 1 9
-6 0 5 6 0 0 3 12
3 2 3 4 -3 -2 2 10
1 -1 3 5 -3 -2 3 11
0 -1 3 4 -3 -2 3 11
-1 -1 2 4 -5 -3 3 11
-2 -2 1 3 -6 -5 0 9
-3 2 2 4 -5 -5 1 9
-3 0 2 5 -4 -5 1 7
0 -3 0 4 -5 -6 -2 7
0 -2 2 4 -3 -4 0 6
-3 -3 2 4 -4 -4 0 6
0 1 2 4 -5 -3 0 7
1 3 3 4 -5 -3 0 8
-1 1 4 4 -5 -4 0 7
-7 1 4 5 -5 -4 0 7
-4 -2 1 3 -7 -7 -3 5
-6 0 1 4 -6 -6 -2 5
-9 1 1 5 -4 -5 -1 7
-5 -2 -3 1 -8 -9 -4 3
-6 -5 -2 1 -6 -8 -4 3
-4 -4 0 2 -6 -7 -3 4
-2 -1 0 2 -8 -6 -2 5
-3 3 -1 2 -7 -7 -1 5
-3 1 -3 1 -8 -6 -3 3
-1 3 0 3 -6 -4 -1 5
1 4 1 5 -5 -4 -2 4
-2 1 1 4 -6 -6 -3 4
-4 2 3 5 -5 -5 -1 6
-5 3 4 5 -5 -5 -1 6
-4 1 3 6 -4 -4 0 6
1 4 2 5 -5 -4 -1 6
1 5 3 5 -4 -3 0 5
0 7 6 7 -2 -1 2 6
3 10 7 8 -2 0 3 7
-2 11 8 9 -1 2 6 9
1 12 8 9 -1 1 5 9
7 14 6 9 0 0 3 8
5 15 6 10 -1 -1 2 6
0 18 9 12 2 1 4 8
-1 18 8 10 1 0 3 7
0 17 7 10 0 0 4 8
0 17 7 10 1 2 4 9
-3 16 5 8 -2 0 4 9
1 15 4 7 -3 0 4 9
5 18 4 9 -1 2 6 11
8 23 5 11 3 6 9 13
7 24 4 13 5 7 10 13
10 23 2 13 5 7 11 14
13 22 -1 14 6 8 9 14
12 19 -2 15 8 9 10 15
10 16 -2 16 6 9 10 14
12 18 -1 15 7 9 9 14
11 15 -3 13 1 6 6 12
7 8 -4 9 -3 1 3 9
5 7 -7 7 -6 -1 2 7
5 8 -5 6 -6 -1 4 8
10 10 -7 5 -8 -3 2 9
13 9 -7 4 -9 -5 1 8
9 8 -6 5 -7 -4 0 6
14 10 -5 5 -6 -3 0 6
12 8 -4 4 -7 -3 -1 6
6 5 -4 4 -8 -4 -2 5
6 5 -5 2 -10 -6 -5 3
3 2 -4 0 -12 -8 -6 2
3 0 -3 2 -11 -8 -6 2
-2 -1 -1 5 -9 -6 -5 1
-3 -5 -1 4 -10 -8 -7 -1
1 -3 -1 4 -10 -9 -7 -2
-1 -4 -1 4 -11 -9 -7 -2
-2 -4 -2 2 -13 -10 -9 -5
3 -2 -2 2 -12 -9 -8 -5
1 -5 -3 1 -15 -10 -9 -6
2 -5 -3 0 -16 -10 -11 -4
-2 -5 -3 0 -16 -11 -11 -4
-6 -8 -2 2 -15 -10 -9 -3
-3 -9 -2 2 -16 -11 -9 -3
-3 -9 -4 -1 -16 -13 -12 -6
-8 -10 -4 0 -16 -13 -11 -5
-8 -5 -4 0 -15 -13 -12 -6
0 -5 -5 -2 -17 -14 -12 -6
1 -5 -4 -2 -16 -13 -12 -6
0 -4 -3 1 -15 -11 -12 -7
-2 -2 -3 1 -16 -11 -12 -7
-3 -4 -4 -1 -18 -13 -14 -8
-1 -8 -6 -4 -21 -16 -17 -10
-7 -8 -4 0 -18 -13 -14 -8
-6 -8 -2 2 -16 -12 -13 -7
-7 -11 -4 1 -17 -15 -15 -8
-7 -11 -4 2 -16 -14 -14 -8
-3 -10 -5 1 -18 -13 -15 -9
0 -8 -4 1 -17 -12 -13 -9
-3 -8 -1 3 -15 -10 -10 -6
-2 -9 -3 1 -16 -13 -12 -6
-3 -6 -1 1 -16 -12 -12 -6
0 -7 -2 3 -15 -12 -13 -5
-3 -7 -3 4 -16 -13 -14 -7
-1 -6 -4 3 -16 -13 -15 -7
-3 -8 -2 5 -14 -11 -13 -6
-8 -11 -2 5 -13 -10 -12 -6
-3 -8 -3 3 -15 -10 -13 -8
-2 -8 -5 1 -17 -13 -14 -10
0 -5 -4 1 -16 -11 -13 -10
-2 -6 -5 2 -15 -9 -11 -8
-3 -5 -4 3 -15 -9 -11 -8
1 0 0 7 -11 -7 -11 -6
0 -3 2 11 -10 -8 -12 -9
-2 -7 4 15 -7 -10 -17 -13
-6 -8 10 24 -2 -8 -18 -16
-8 -10 14 30 4 -5 -19 -18
-8 -9 15 33 8 -1 -16 -15
-6 -6 13 35 12 4 -12 -12
-4 -3 14 39 19 14 -3 -6
1 10 15 44 28 24 10 4
-1 16 15 51 39 38 22 13
1 21 14 53 49 53 36 23
7 29 10 54 59 71 56 37
20 39 -2 47 65 88 77 52
31 50 -10 41 72 108 101 72
42 56 -24 22 69 125 122 88
52 65 -39 -17 48 137 149 110
64 75 -55 -62 18 148 179 135
73 81 -69 -104 -16 150 203 154
75 87 -79 -143 -47 152 220 168
76 94 -92 -174 -75 152 227 173
73 99 -113 -212 -111 142 224 172
67 103 -129 -246 -147 124 213 166
55 105 -137 -272 -178 95 188 152
39 98 -138 -289 -204 54 146 128
23 87 -133 -303 -233 -2 89 96
-2 61 -123 -310 -263 -75 13 49
-29 21 -110 -308 -286 -145 -65 -11
-44 -4 -93 -290 -291 -195 -113 -53
-45 -21 -86 -269 -283 -215 -132 -75
-48 -30 -81 -242 -261 -205 -131 -79
-55 -36 -74 -214 -235 -189 -127 -80
-51 -38 -67 -189 -212 -173 -123 -81
-41 -40 -62 -168 -191 -158 -117 -81
-38 -40 -58 -148 -171 -141 -108 -76
-32 -34 -49 -127 -150 -124 -98 -70
-29 -25 -41 -107 -128 -106 -83 -60
-31 -22 -33 -89 -109 -89 -70 -52
-26 -16 -28 -74 -93 -76 -59 -43
-24 -14 -23 -60 -79 -64 -52 -38
-22 -12 -18 -46 -63 -49 -42 -33
-12 -9 -14 -32 -49 -37 -33 -26
-9 -8 -8 -18 -36 -25 -26 -22
-8 -8 -5 -10 -29 -18 -22 -19
-5 -6 -2 -2 -21 -13 -16 -15
-6 -5 1 3 -16 -10 -14 -12
-1 -3 1 5 -14 -9 -13 -12
-3 -4 1 6 -12 -8 -14 -11
-5 -5 1 7 -11 -7 -13 -13
-2 -7 3 9 -8 -5 -12 -12
-3 -7 1 9 -9 -6 -14 -13
-6 -3 3 11 -8 -3 -10 -11
-5 -4 4 13 -6 0 -7 -8
-4 -8 2 13 -5 1 -7 -8
-2 -5 1 13 -6 0 -8 -9
1 -4 0 13 -6 -1 -9 -9
-1 -1 2 16 -3 1 -7 -8
1 0 3 17 0 2 -6 -9
1 -4 3 17 1 2 -8 -9
1 -4 5 18 3 2 -7 -9
4 0 5 19 3 4 -6 -8
4 -1 4 16 2 3 -5 -8
2 -2 5 16 2 4 -4 -7
-1 -4 3 16 1 4 -4 -7
-2 -3 5 17 2 5 -4 -7
-2 -1 4 17 2 4 -5 -8
0 -3 2 17 2 3 -7 -8
2 1 4 20 4 5 -5 -7
1 0 6 21 7 6 -5 -7
4 0 4 20 6 4 -7 -9
6 2 4 20 7 6 -5 -9
5 1 6 21 9 7 -4 -8
1 0 6 20 9 8 -2 -7
3 2 4 20 7 8 -3 -8
7 2 3 19 4 6 -4 -7
6 3 5 21 7 6 -2 -4
3 1 6 22 9 8 -3 -4
1 -3 5 21 8 6 -5 -6
-3 -5 6 20 8 5 -6 -7
1 -2 4 20 10 6 -5 -8
0 -3 5 21 10 8 -6 -7
3 -1 8 22 12 9 -3 -6
5 2 6 20 10 9 -3 -4
4 4 5 20 9 8 -4 -7
0 -1 4 19 8 8 -6 -8
-2 -4 4 20 8 6 -7 -9
2 2 6 23 10 7 -6 -7
2 0 5 23 11 8 -6 -8
0 -4 3 20 9 5 -8 -9
-2 -3 6 23 13 8 -5 -7
3 -1 4 24 12 9 -6 -7
4 0 6 25 14 10 -5 -6
-1 0 6 25 15 11 -2 -4
-2 -1 7 26 15 12 -3 -5
4 1 5 25 14 11 -3 -5
5 3 4 25 13 10 -4 -5
4 2 5 25 14 10 -3 -6
3 3 7 29 18 13 -1 -3
1 3 5 27 17 12 -1 -2
2 3 5 26 16 11 -3 -4
3 0 4 25 16 11 -3 -5
5 0 3 25 16 11 -2 -4
5 4 6 28 18 14 -1 -2
6 2 5 29 18 14 -2 -3
4 2 6 31 19 16 0 0
4 4 8 31 21 15 0 -1
7 3 6 31 20 14 -2 -3
2 3 8 33 22 15 -1 -2
8 4 7 32 24 15 0 -3
6 5 6 33 24 16 -1 -4
6 3 5 32 25 17 -1 -6
5 1 6 32 24 16 0 -4
2 1 5 32 25 18 0 -4
2 0 7 34 26 20 2 -3
7 1 5 33 24 18 1 -2
10 3 6 36 28 19 2 -1
4 4 9 39 31 21 2 -2
9 4 7 40 31 20 0 -3
9 6 7 39 32 20 -2 -3
3 4 9 41 36 23 1 -1
7 5 8 41 36 24 1 -3
8 4 8 42 36 24 3 -3
4 2 8 43 36 25 2 -3
3 2 7 44 36 25 3 -4
6 4 8 46 37 26 3 -2
8 6 9 48 39 26 3 -2
11 8 9 50 42 28 3 -3
6 3 9 52 45 29 2 -4
8 6 9 53 46 31 3 -2
13 8 10 57 51 34 5 -2
12 7 10 57 52 37 5 -2
12 6 8 56 51 35 5 -3
8 5 11 59 52 37 7 -1
9 6 9 59 52 36 7 -1
14 9 7 59 52 36 5 -3
11 7 10 63 55 40 7 0
16 10 11 66 58 40 7 2
14 10 10 68 59 40 8 1
8 5 12 69 62 42 10 2
18 9 9 70 63 42 7 -1
17 12 9 71 64 44 7 0
18 12 9 71 65 44 7 0
19 13 10 72 65 45 7 1
16 9 9 72 65 45 6 -2
16 9 9 73 65 45 7 -1
16 11 9 74 65 46 7 0
14 9 8 74 65 45 7 -1
19 10 7 73 65 44 6 -2
20 10 8 75 67 44 6 -1
19 12 10 78 71 47 9 2
19 12 9 77 71 46 7 1
17 11 9 76 70 46 7 1
19 13 9 76 70 47 8 2
14 12 8 75 69 46 7 1
15 12 7 73 66 44 5 -2
16 13 8 74 67 44 6 1
19 13 6 73 66 41 3 -1
15 14 5 73 67 42 4 1
17 13 5 73 67 41 3 -2
16 13 5 73 67 41 2 1
20 17 5 73 68 41 3 0
25 15 4 71 66 41 2 0
22 14 3 70 65 40 4 -1
19 18 5 70 65 41 4 1
19 19 5 69 64 41 6 3
17 16 5 67 62 40 6 3
16 13 5 69 61 40 8 4
12 14 7 68 62 40 9 5
20 14 3 64 58 36 7 3
24 14 0 60 55 32 5 1
15 18 3 60 54 34 8 4
16 20 5 59 55 35 10 6
21 17 2 55 51 33 9 3
16 17 3 55 49 34 10 5
13 21 7 55 51 36 14 8
15 18 4 48 44 32 11 5
15 18 3 46 42 30 11 3
10 16 5 45 41 30 11 5
8 15 3 42 39 28 12 4
10 15 2 39 36 27 11 3
8 14 2 36 33 26 11 3
5 14 1 32 29 23 9 3
5 11 0 29 27 22 10 2
4 10 2 29 26 22 11 4
8 15 4 28 24 21 13 7
9 17 4 26 23 20 12 6
3 9 2 24 20 18 9 3
1 8 0 21 19 16 8 0
0 6 0 19 16 14 8 0
-2 8 1 18 15 14 9 0
-1 8 0 16 13 12 8 -1
-3 3 -1 13 10 11 6 -1
-2 3 -2 11 9 10 7 -2
-2 3 0 12 8 11 7 0
-1 5 1 12 8 10 9 1
6 6 0 10 6 8 7 -1
2 2 -1 8 4 6 4 -2
-1 2 1 9 6 7 5 -2
4 4 2 9 5 6 5 -2
1 4 2 8 4 6 5 -4
-1 5 3 8 5 7 5 -3
2 4 0 4 1 3 3 -5
-1 1 -1 3 -1 1 2 -5
0 1 -1 3 -1 2 2 -5
-5 -1 -1 3 -3 1 2 -5
-5 3 2 6 0 2 4 -2
3 3 0 4 -2 0 1 -6
3 4 0 4 -1 1 2 -7
4 7 1 4 0 0 2 -6
0 4 0 3 -2 -1 -1 -8
-2 4 1 2 -2 -1 -1 -8
-4 5 3 3 0 0 2 -5
-4 0 1 2 -3 -1 1 -6
-1 -1 0 -1 -6 -3 -1 -8
-2 -2 1 0 -4 -2 1 -6
-5 -4 -1 -1 -5 -5 -1 -8
-5 -4 -1 0 -5 -4 -2 -10
-4 -1 1 2 -2 -3 -1 -9
-6 -1 1 3 -1 -3 -1 -9
-4 0 1 4 0 -3 -1 -9
-1 -1 1 3 -1 -4 -2 -10
2 1 0 1 -3 -5 -3 -10
1 1 2 3 -3 -3 -1 -9
-1 1 2 2 -4 -4 -2 -10
-8 -2 3 3 -3 -3 -2 -11
-8 -3 1 1 -5 -5 -4 -12
-8 -2 2 3 -4 -5 -2 -11
-5 -1 1 3 -2 -4 -3 -12
-4 -1 0 3 -1 -4 -3 -14
-5 1 4 6 1 -2 -1 -11
0 1 2 4 0 -3 -3 -11
-4 0 3 5 1 -1 -2 -10
1 3 4 5 1 0 0 -9
-3 4 5 6 3 2 1 -9
-1 2 3 4 2 0 -1 -11
-1 1 1 3 1 -2 -3 -12
-7 0 3 6 3 -1 -1 -10
-2 1 1 5 2 -2 -2 -10
0 1 1 4 3 -2 -1 -11
-4 3 2 8 6 1 1 -9
-3 5 3 9 8 2 3 -7
2 4 -1 5 4 -1 -1 -10
2 5 1 5 4 -1 -1 -11
3 7 2 6 5 2 1 -8
-2 6 4 7 7 3 3 -6
-2 7 4 8 7 4 4 -6
-1 8 4 8 8 4 4 -6
0 5 3 9 8 4 4 -6
0 2 3 8 7 3 4 -8
-2 -1 2 8 8 3 2 -8
-4 1 0 7 8 3 3 -7
-3 2 2 8 8 5 4 -6
0 2 1 7 6 4 5 -6
1 4 1 7 8 6 6 -4
2 4 2 8 9 6 7 -3
2 4 1 9 9 6 6 -4
3 7 1 10 9 5 6 -5
-1 5 3 11 11 7 7 -3
1 5 2 8 9 4 6 -6
-3 4 2 7 9 3 4 -6
-9 0 2 8 9 4 5 -5
-7 0 2 8 10 6 7 -4
-1 3 0 6 9 4 5 -4
0 5 1 7 9 6 6 -3
0 8 3 8 11 7 9 0
2 5 0 5 9 4 6 -4
2 8 0 6 9 5 6 -4
5 11 2 8 11 7 7 -2
5 8 1 6 9 3 6 -2
3 7 1 5 9 4 5 -3
-7 5 3 8 12 7 8 -1
-1 6 3 7 12 6 8 0
4 7 2 5 8 4 6 -1
-1 2 0 3 6 3 5 -4
-4 3 3 5 9 5 8 -2
-3 5 4 6 10 5 8 0
-3 4 3 7 9 5 7 -2
4 7 3 7 9 4 6 -2
4 5 1 6 8 2 6 -2
3 6 2 5 7 3 5 -5
1 6 3 5 7 3 5 -3
-8 3 3 5 9 4 7 -1
-3 4 3 3 6 2 5 -3
2 5 3 2 4 1 4 -5
-2 1 2 2 4 0 4 -4
-3 2 2 2 4 0 4 -3
-1 4 2 2 3 0 4 -5
-1 4 3 3 5 1 5 -5
-4 4 5 6 8 3 6 -3
2 3 4 4 6 1 4 -6
1 4 5 5 7 2 5 -4
1 3 3 2 6 1 4 -4
-2 1 3 2 4 1 5 -5
-1 2 4 1 4 0 5 -5
-3 1 1 0 3 -1 5 -6
-3 0 1 -1 2 -2 3 -8
-3 2 2 2 4 0 4 -6
-2 1 2 1 4 -1 3 -6
4 2 1 1 4 -3 2 -7
-1 4 3 2 5 -1 3 -6
0 3 2 1 4 -2 3 -6
2 5 4 2 5 0 5 -5
-1 7 4 2 4 0 5 -6
0 4 4 1 3 -1 5 -7
-6 3 6 3 4 1 6 -4
-5 0 3 -1 1 -2 3 -6
-3 -1 3 0 3 -2 3 -6
-3 0 1 -1 1 -3 2 -8
-2 2 1 0 1 -3 2 -6
2 4 1 1 2 -2 3 -8
1 4 2 2 2 -1 4 -7
1 5 1 1 1 -2 2 -8
3 6 3 1 2 -1 3 -7
0 4 3 0 1 0 3 -8
1 4 3 0 1 -1 4 -7
4 4 2 -2 -2 -4 2 -8
-5 2 3 0 0 -4 3 -7
-4 2 4 1 2 -2 4 -10
-3 2 3 -1 1 -4 1 -12
-2 3 1 -2 -1 -6 0 -12
-2 4 3 -1 0 -4 2 -10
1 4 2 -2 -1 -4 1 -12
1 9 6 2 3 0 6 -8
-1 9 6 3 4 2 6 -7
2 10 4 0 1 0 5 -8
2 11 7 2 3 1 6 -7
0 14 9 3 5 2 8 -7
2 18 9 4 6 2 9 -5
4 20 9 3 6 2 8 -5
-1 18 10 3 6 3 8 -4
2 18 10 3 5 3 8 -6
-2 14 10 3 6 5 9 -4
-1 17 11 2 6 5 10 -2
6 22 9 1 5 4 9 -4
0 21 9 1 6 5 10 -2
2 22 7 -1 6 4 10 -4
6 26 9 3 11 8 14 0
2 27 9 5 14 11 16 2
8 27 7 4 13 9 16 1
12 26 5 5 14 11 15 1
7 23 3 7 15 13 17 1
7 20 3 8 17 14 19 4
10 18 1 7 14 12 17 3
12 21 1 9 16 14 18 2
12 22 2 7 15 12 17 2
12 19 0 2 11 7 11 -2
11 19 0 2 10 6 10 -4
12 17 -1 -1 7 3 9 -5
9 14 -3 -4 5 1 8 -5
9 16 -2 -4 5 1 8 -6
5 14 0 -5 6 3 9 -5
8 11 1 -4 5 2 7 -7
12 8 0 -5 3 0 7 -9
6 8 -1 -6 2 -2 6 -9
5 9 -2 -7 1 -4 4 -11
4 7 -1 -7 0 -3 3 -10
4 5 1 -5 2 -3 3 -10
6 8 3 -2 5 -1 5 -9
2 3 4 -3 4 -3 3 -10
-1 0 3 -5 2 -5 1 -14
-5 -2 2 -8 0 -6 0 -15
-8 -2 2 -9 -1 -7 -3 -17
-4 -3 1 -10 -2 -9 -2 -17
-4 -4 -1 -12 -5 -9 -3 -19
-7 -5 0 -13 -5 -10 -3 -19
-6 -4 2 -11 -4 -8 -2 -17
-5 -3 0 -12 -5 -10 -3 -20
-8 -2 3 -9 -1 -6 0 -18
-9 -3 3 -10 -1 -7 0 -18
1 -3 -1 -13 -5 -10 -4 -20
-2 -3 2 -10 -2 -7 -2 -18
-5 -4 3 -10 -3 -6 0 -17
-2 -3 1 -11 -5 -8 -2 -18
-3 -3 2 -11 -4 -7 -3 -18
-3 -5 2 -11 -4 -8 -2 -19
-1 -3 1 -11 -4 -8 -3 -20
-5 -4 0 -11 -5 -9 -4 -23
-5 -3 0 -10 -4 -8 -3 -21
-5 -1 1 -9 -3 -9 -2 -18
-6 -2 1 -10 -3 -9 -4 -20
-4 -1 2 -10 -3 -8 -2 -19
-5 0 4 -9 -1 -5 0 -17
-2 -5 3 -10 -3 -6 -1 -18
-1 -1 2 -11 -4 -7 -3 -19
-5 -3 2 -11 -4 -7 -2 -18
-8 -5 1 -11 -4 -7 -2 -18
-1 -2 0 -11 -4 -9 -3 -19
-5 -4 2 -10 -2 -6 -1 -19
-5 -7 0 -10 -3 -9 -3 -20
-6 -7 1 -9 -2 -8 -2 -19
-8 -7 3 -10 -2 -7 -1 -20
1 -2 2 -10 -3 -7 -2 -21
-2 -4 1 -9 -3 -7 -1 -20
-3 -3 -1 -12 -5 -8 -3 -22
-6 -2 0 -11 -4 -8 -1 -20
-8 -5 -1 -12 -5 -7 -1 -20
-5 -2 0 -10 -3 -7 0 -19
-4 -1 1 -8 -1 -7 -2 -21
-9 -7 4 -3 2 -7 -3 -22
-9 -8 10 5 7 -4 -6 -26
-10 -8 16 12 13 -2 -7 -27
-10 -8 17 17 17 1 -7 -28
-5 -3 15 16 19 3 -4 -26
-7 4 15 22 26 10 2 -21
-7 10 17 27 34 19 12 -14
-3 18 17 33 43 31 22 -5
0 25 17 37 53 44 34 3
0 31 17 40 66 63 54 17
7 37 10 37 75 82 75 32
20 47 -2 29 81 101 96 49
33 55 -12 17 84 120 121 70
48 61 -25 -12 72 134 146 88
56 75 -39 -54 47 149 177 115
62 84 -54 -94 18 159 206 138
71 87 -70 -138 -19 159 223 151
72 93 -78 -173 -47 160 235 161
69 101 -92 -203 -75 158 240 165
68 106 -115 -242 -115 144 231 160
61 109 -130 -273 -147 123 215 150
49 104 -137 -299 -177 89 179 130
31 96 -134 -309 -201 45 136 106
10 79 -127 -321 -233 -21 71 70
-16 45 -118 -325 -261 -97 -11 15
-35 11 -102 -316 -279 -164 -78 -39
-43 -9 -89 -295 -279 -204 -114 -71
-52 -22 -81 -270 -263 -209 -123 -82
-49 -27 -77 -244 -240 -199 -123 -88
-48 -34 -71 -218 -214 -182 -119 -90
-46 -37 -64 -191 -189 -163 -113 -89
-42 -40 -61 -172 -171 -148 -107 -88
-39 -37 -54 -153 -153 -132 -96 -82
-38 -31 -47 -134 -134 -115 -83 -74
-40 -29 -39 -114 -113 -97 -69 -64
-38 -21 -31 -96 -93 -80 -56 -54
-31 -15 -25 -82 -77 -69 -48 -49
-26 -12 -19 -66 -60 -55 -39 -43
-16 -3 -14 -51 -44 -42 -29 -36
-12 -3 -7 -37 -29 -29 -20 -31
-7 -6 -3 -26 -19 -20 -15 -28
-6 -1 2 -15 -10 -11 -7 -23
-11 -2 5 -9 -4 -5 -3 -18
-2 -2 3 -9 -6 -7 -6 -21
0 0 2 -7 -4 -7 -7 -21
-2 -3 2 -6 -3 -8 -7 -22
-9 -2 4 -4 1 -6 -6 -22
-6 0 5 -1 3 -4 -6 -22
-3 3 5 0 4 -2 -5 -22
-2 3 6 2 7 1 -3 -20
-1 3 6 2 9 3 -2 -19
-1 2 5 2 9 4 -1 -17
1 2 7 4 10 4 1 -15
2 2 6 4 9 3 -1 -15
2 3 6 5 9 2 -2 -16
-2 2 8 7 12 4 0 -15
-1 0 7 6 14 3 -1 -16
-3 2 9 9 16 7 2 -13
0 1 7 6 15 6 1 -15
-1 -5 5 5 13 6 0 -15
-3 -3 7 6 15 8 1 -13
-1 1 8 8 16 10 3 -12
1 3 7 6 14 7 2 -13
1 4 7 8 15 8 2 -12
-1 4 6 9 16 8 2 -13
0 3 7 10 16 7 2 -13
-1 1 7 8 15 4 -1 -16
-3 2 8 10 18 7 0 -15
2 1 6 8 17 8 0 -15
-1 -2 7 8 17 8 1 -13
-2 -1 8 8 17 9 0 -14
0 0 8 8 17 10 1 -13
4 4 7 8 16 9 1 -12
-2 6 10 11 19 11 3 -9
-5 2 8 11 19 10 1 -11
0 2 8 12 20 9 3 -11
4 4 10 14 21 10 3 -10
5 3 9 13 22 11 2 -10
4 4 9 14 23 12 4 -8
1 1 9 12 22 11 4 -8
0 1 6 9 19 10 0 -12
0 1 6 9 20 10 0 -11
0 2 7 11 20 11 2 -11
3 6 9 14 22 12 2 -11
2 6 8 15 23 11 1 -12
1 4 9 16 24 11 2 -11
4 6 10 16 24 10 1 -12
3 5 11 18 27 12 2 -11
2 2 11 17 26 13 3 -11
2 1 11 16 27 15 3 -10
0 0 11 15 26 15 2 -10
2 1 11 15 26 16 4 -9
2 1 9 14 23 14 3 -10
0 1 8 14 23 13 2 -10
1 -1 8 16 25 13 3 -11
1 -1 9 16 26 13 2 -11
-5 1 10 20 28 14 4 -10
-1 4 11 20 31 16 4 -10
8 6 7 18 29 14 2 -13
9 5 7 17 27 13 0 -15
4 1 7 17 27 15 1 -14
-8 1 10 20 31 19 5 -10
4 3 8 20 29 17 4 -10
8 2 7 19 27 15 1 -11
2 3 8 21 29 15 1 -11
2 5 8 22 30 15 2 -10
3 2 9 24 31 15 1 -12
7 7 11 25 34 16 1 -11
4 6 11 27 36 19 3 -10
7 4 10 26 35 18 3 -11
9 9 10 27 35 19 2 -10
6 8 11 27 36 21 5 -8
7 8 10 29 36 22 5 -7
5 6 10 29 36 20 4 -8
2 4 9 30 37 21 3 -8
5 4 10 32 39 21 4 -8
3 5 10 33 40 22 3 -10
1 6 10 34 42 22 3 -9
12 12 11 35 44 24 4 -10
10 11 11 36 45 26 5 -9
11 13 10 37 45 26 5 -7
10 16 13 40 49 30 8 -4
12 15 12 41 48 29 6 -7
12 11 11 41 47 28 5 -7
7 7 12 44 49 28 7 -7
8 6 11 46 50 28 5 -7
11 9 10 47 53 29 5 -8
8 8 10 49 55 30 6 -7
3 8 12 52 58 34 8 -6
7 9 13 53 59 35 8 -5
11 8 10 52 58 35 7 -7
14 10 11 54 61 37 10 -4
14 11 13 57 61 39 11 -3
12 13 12 58 62 39 9 -4
8 15 13 61 64 40 10 -2
10 10 12 61 65 39 7 -5
13 11 12 63 67 39 7 -5
11 12 13 66 70 41 9 -4
11 9 12 65 70 41 7 -5
14 8 11 63 68 39 6 -7
13 12 10 63 68 40 6 -6
13 14 11 65 70 42 8 -4
19 15 11 67 70 43 9 -3
16 14 12 69 72 44 10 -1
17 15 11 69 73 43 8 -4
21 19 12 71 74 44 10 -2
21 17 12 71 75 43 8 -3
20 16 11 72 75 44 8 -3
15 14 11 72 76 45 9 -2
15 14 10 70 74 44 8 -2
18 16 9 71 74 45 7 -3
17 16 9 70 74 44 8 -1
19 17 10 71 73 46 8 0
20 19 10 70 73 45 8 1
19 19 9 70 73 44 7 0
22 23 11 71 74 44 8 2
25 21 10 71 73 43 7 0
22 16 9 69 72 43 7 0
21 16 8 67 70 40 6 0
17 15 7 65 67 38 5 -1
20 17 7 65 66 38 6 -2
22 18 7 65 66 39 7 0
21 18 8 62 64 37 7 1
15 19 9 62 64 38 6 2
14 16 9 62 65 37 8 3
16 15 7 58 61 34 5 2
19 20 8 57 62 35 7 2
18 19 8 56 60 33 7 1
17 17 7 53 59 32 6 1
12 17 8 51 57 31 9 3
11 17 6 49 53 30 8 1
11 17 6 45 50 30 10 2
11 16 7 43 47 29 11 3
11 15 6 40 44 27 10 1
8 15 7 40 44 28 12 2
9 15 7 36 41 26 11 3
10 17 8 35 41 25 12 3
8 17 8 31 37 23 12 2
6 12 8 28 36 23 11 2
11 15 9 27 36 24 13 4
12 17 9 25 33 24 13 4
11 15 8 21 27 21 11 2
4 12 8 19 27 20 12 2
5 11 5 16 21 17 8 -2
4 10 5 17 21 15 8 -3
4 10 4 14 19 13 8 -2
1 11 3 13 19 13 7 -4
1 12 6 13 20 14 8 -3
3 8 5 10 19 12 7 -5
5 9 5 7 16 11 5 -7
7 12 5 6 14 12 6 -6
4 10 5 7 14 12 8 -3
5 10 6 5 14 11 7 -4
1 7 5 2 9 8 4 -7
-1 3 4 2 9 6 3 -7
0 5 5 1 9 5 4 -6
1 4 4 -1 7 3 1 -9
-1 3 4 -1 7 3 1 -9
-5 2 6 0 10 5 4 -7
0 1 4 -3 6 3 0 -10
1 5 4 -3 6 5 2 -10
2 3 3 -4 5 4 2 -10
2 3 2 -5 3 2 1 -10
1 3 2 -6 1 2 -1 -10
-5 2 2 -5 1 1 0 -10
1 4 1 -7 -1 -3 -1 -12
-2 2 3 -5 1 -1 0 -12
-4 -4 3 -5 1 0 -3 -12
-1 -1 3 -5 1 -1 -2 -12
0 4 5 -6 1 0 -2 -11
2 2 5 -5 2 2 0 -10
5 1 4 -5 1 1 -1 -11
-4 -1 5 -5 0 0 1 -10
-4 -3 4 -7 -2 -1 -2 -13
-2 0 4 -4 1 0 -1 -12
1 -1 4 -4 0 -1 -1 -11
0 -1 4 -4 1 -1 -1 -11
-1 -1 4 -4 1 -1 -3 -13
-3 -1 3 -6 1 -2 -3 -14
-2 0 3 -6 0 -3 -3 -12
-3 -1 2 -6 0 -3 -3 -12
-1 1 5 -3 2 0 -2 -12
3 2 4 -4 0 -2 -3 -12
-1 2 4 -3 1 -1 -2 -10
-3 3 4 -2 2 0 -2 -9
2 3 5 -2 3 -1 -2 -9
1 0 6 1 4 0 -1 -9
0 2 5 0 3 0 -3 -11
-5 -4 5 1 4 0 -3 -10
-2 0 6 0 3 0 -3 -11
-1 1 5 0 2 0 -4 -12
-4 -3 4 -2 1 -1 -5 -13
-3 -2 5 0 2 -1 -1 -10
-3 -1 5 -1 0 -1 -3 -12
0 3 6 1 3 0 -2 -11
1 5 7 1 4 0 -1 -10
1 4 5 1 3 -1 -5 -12
-2 4 5 2 4 1 -4 -12
-4 1 6 3 7 2 -2 -10
-1 1 5 1 5 2 -3 -11
3 4 4 2 5 2 -2 -13
-2 2 4 2 5 2 -2 -12
-4 2 4 2 4 1 -2 -12
-3 3 4 4 5 2 0 -11
-2 2 4 5 7 3 0 -10
0 2 4 4 7 1 -1 -10
-3 4 5 5 8 3 0 -12
-8 5 5 6 9 4 0 -11
0 6 5 6 8 3 0 -10
3 7 5 5 9 4 0 -8
1 5 4 5 8 4 0 -9
1 2 5 6 8 6 2 -7
-2 -1 5 6 8 5 1 -8
1 1 4 5 7 4 1 -9
1 4 4 5 7 4 1 -9
-1 6 5 5 8 4 2 -8
2 7 6 7 10 6 4 -9
2 7 5 7 9 5 1 -9
2 7 5 6 8 4 1 -9
7 9 5 6 8 5 1 -9
5 6 2 4 6 4 1 -12
-1 7 4 6 9 6 3 -10
1 5 4 5 8 5 3 -9
3 4 4 5 7 4 2 -9
2 6 4 5 6 4 1 -9
1 2 4 4 6 3 0 -9
3 2 3 5 6 2 0 -9
2 5 7 7 9 5 3 -7
-1 4 5 6 8 4 2 -8
1 4 3 3 5 1 0 -10
1 5 3 4 5 2 0 -10
-2 3 4 6 6 4 3 -7
1 5 4 5 6 4 3 -6
1 3 3 4 5 3 3 -8
1 4 3 5 5 3 3 -8
-1 4 3 4 4 1 2 -9
2 0 -2 0 0 -3 -3 -13
0 0 1 2 2 -1 -1 -9
-1 1 2 2 2 0 -2 -8
1 1 2 1 2 0 -2 -8
-1 3 4 4 4 2 1 -6
2 2 3 1 1 0 -1 -9
1 2 3 1 1 -1 1 -7
3 5 4 2 3 1 0 -7
7 5 1 1 1 -2 -2 -10
4 7 4 3 4 -1 -1 -8
-1 6 5 4 5 0 1 -7
-1 0 2 1 2 -2 -3 -10
-1 1 1 1 2 -3 -2 -9
-1 2 2 1 2 -3 -1 -8
3 4 3 2 3 -1 0 -7
5 2 3 2 2 -1 0 -7
5 1 3 2 1 -2 0 -6
5 5 4 4 3 0 0 -6
3 4 4 4 2 -1 0 -6
4 3 3 3 2 -3 0 -6
0 2 3 4 2 -2 0 -7
-2 -1 2 2 1 -3 -3 -9
2 2 1 2 1 -4 -2 -8
1 3 2 2 0 -4 -2 -8
-3 1 1 1 -1 -4 -2 -8
-2 1 1 0 -2 -4 -3 -7
2 2 0 0 -3 -5 -2 -7
5 5 0 0 -3 -5 -2 -8
7 5 1 1 -1 -4 -1 -8
1 4 2 3 0 -4 -2 -7
0 4 2 3 0 -4 -3 -7
-6 3 3 3 0 -3 -2 -7
0 2 1 0 -2 -7 -4 -9
6 2 0 0 -3 -8 -4 -10
3 -1 -1 0 -4 -7 -5 -10
1 0 -1 -1 -4 -7 -4 -9
-6 1 3 2 -1 -5 -1 -6
-7 0 0 0 -4 -6 -3 -8
4 1 -2 -3 -5 -9 -5 -11
0 3 0 0 -2 -7 -4 -9
-1 0 1 1 -1 -6 -3 -7
1 5 3 3 1 -4 -2 -7
5 6 2 2 1 -5 -1 -7
4 3 2 0 0 -6 -1 -7
2 4 2 0 0 -5 -3 -7
0 1 2 0 -1 -6 -3 -6
-2 -2 0 -2 -3 -8 -4 -8
-1 0 2 -1 -3 -7 -4 -8
3 0 1 -2 -3 -7 -4 -7
6 4 0 0 -1 -6 -4 -6
-2 1 0 0 -1 -7 -4 -9
-5 2 0 0 -2 -9 -4 -8
3 4 0 0 -2 -8 -3 -8
5 3 -1 -1 -3 -9 -5 -9
2 5 1 1 -1 -7 -3 -7
-1 7 1 2 -1 -6 -1 -5
1 6 2 3 0 -6 0 -4
5 9 4 4 1 -6 -1 -5
0 7 5 6 2 -4 -1 -4
-6 6 4 4 3 -4 -1 -4
3 11 3 3 2 -5 0 -3
-1 16 6 7 5 -1 2 -1
4 21 7 8 7 0 4 1
9 19 6 6 6 0 4 0
2 18 7 6 5 0 4 1
3 21 9 6 6 0 4 1
2 19 7 4 3 -1 3 0
3 19 6 3 2 -3 3 1
7 22 5 3 1 -4 3 0
2 20 6 3 4 -3 4 2
0 20 7 6 7 0 7 4
-2 19 7 9 9 3 8 5
8 20 3 7 7 2 7 4
13 25 4 8 9 4 10 7
11 24 3 10 11 6 11 7
13 23 -2 10 12 7 11 6
15 24 -2 11 13 8 12 8
11 18 -2 12 13 8 11 8
13 19 -2 12 12 5 10 7
9 14 -1 11 10 3 8 6
9 11 -3 6 6 -2 4 3
10 12 -5 2 3 -4 2 1
10 12 -5 1 1 -5 3 1
13 15 -5 1 2 -4 4 2
7 12 -3 1 2 -4 5 3
9 8 -3 2 3 -3 3 2
12 10 -2 2 3 -4 3 1
11 9 -2 1 2 -4 2 0
11 7 -4 -2 -1 -7 0 -1
10 6 -4 -2 -2 -9 -2 -2
4 2 -4 -1 -3 -9 -3 -4
5 1 -3 0 -1 -8 -1 -2
5 1 -3 0 -2 -11 -3 -4
3 -3 -3 -2 -4 -14 -7 -8
0 0 -1 0 -3 -13 -6 -6
0 0 -1 -1 -5 -13 -6 -7
-6 -6 -1 -2 -6 -13 -6 -7
-4 -4 -1 -3 -6 -13 -5 -7
-2 -5 -1 -3 -6 -14 -6 -8
-4 -4 0 -3 -6 -15 -7 -6
-4 -6 -2 -5 -8 -17 -9 -9
0 -6 -5 -7 -11 -18 -12 -12
-3 -5 -5 -6 -9 -17 -11 -12
-9 -7 -4 -6 -8 -16 -9 -11
-7 -8 -5 -7 -10 -18 -12 -10
-3 -8 -5 -7 -9 -16 -11 -10
-3 -7 -5 -7 -10 -17 -11 -11
-1 -5 -3 -6 -7 -16 -9 -9
-1 -4 -1 -4 -5 -14 -7 -7
-3 -3 -1 -4 -5 -16 -7 -7
-5 -5 -1 -4 -6 -16 -8 -8
0 -5 -3 -6 -8 -18 -11 -10
-3 -6 -3 -6 -8 -18 -10 -11
-3 -5 -3 -4 -6 -17 -10 -10
-5 -8 -2 -5 -7 -17 -11 -11
-2 -6 -4 -5 -7 -17 -11 -11
0 -6 -5 -6 -8 -18 -12 -13
-5 -6 -4 -5 -6 -16 -9 -11
-4 -3 -2 -3 -5 -15 -7 -8
0 -4 -4 -5 -7 -18 -10 -10
1 -4 -4 -5 -8 -18 -9 -9
-2 -3 -2 -2 -4 -13 -6 -7
0 -4 -3 -3 -5 -15 -7 -7
3 -3 -3 -4 -7 -17 -9 -9
1 -6 -3 -4 -8 -15 -8 -8
-9 -7 -1 -2 -5 -12 -5 -7
-8 -5 -1 -2 -5 -13 -6 -6
-4 -5 -5 -6 -8 -17 -9 -10
-7 -9 -4 -4 -7 -16 -7 -8
-4 -8 -6 -5 -9 -17 -10 -10
-6 -6 -3 -2 -6 -14 -7 -6
1 -2 -1 0 -4 -13 -7 -8
2 -5 -1 1 -4 -15 -13 -13
-7 -9 6 11 2 -13 -12 -12
-7 -12 10 17 6 -11 -13 -13
-9 -13 11 21 9 -10 -15 -19
-10 -8 12 25 14 -7 -11 -17
-5 -3 10 27 18 -2 -6 -13
-5 0 9 32 25 6 1 -7
-4 10 12 37 34 15 10 0
-4 18 14 44 47 29 25 12
1 26 13 46 57 46 39 22
11 33 8 45 68 63 58 37
19 41 0 43 77 83 80 54
34 56 -9 35 84 103 104 73
47 65 -21 13 77 117 126 91
52 72 -36 -29 55 128 152 113
65 80 -56 -78 25 135 178 135
74 85 -72 -123 -9 135 196 149
73 90 -81 -161 -37 140 213 163
75 98 -94 -196 -65 137 217 167
74 102 -117 -235 -102 126 212 164
70 108 -132 -266 -134 110 204 163
59 108 -141 -292 -164 84 179 149
44 100 -140 -306 -191 42 139 125
26 92 -135 -314 -218 -14 88 98
5 69 -127 -320 -247 -81 21 55
-14 32 -116 -317 -271 -150 -54 -3
-33 -1 -99 -298 -276 -197 -104 -46
-45 -24 -90 -274 -268 -214 -123 -68
-48 -33 -86 -249 -246 -208 -125 -76
-50 -38 -80 -221 -221 -192 -122 -78
-50 -43 -73 -198 -198 -174 -118 -80
-44 -45 -68 -177 -179 -160 -111 -77
-40 -44 -62 -155 -159 -142 -98 -70
-37 -38 -54 -135 -140 -125 -87 -64
-31 -29 -45 -115 -120 -107 -74 -54
-30 -24 -36 -95 -99 -90 -61 -46
-26 -17 -29 -80 -82 -78 -54 -42
-24 -15 -24 -63 -66 -66 -47 -36
-17 -9 -21 -50 -51 -55 -39 -31
-10 -5 -15 -36 -37 -41 -30 -26
-12 -7 -8 -23 -24 -29 -21 -21
-6 -6 -7 -16 -18 -23 -16 -17
-3 -3 -5 -9 -13 -20 -13 -14
-7 -4 -1 -4 -7 -15 -9 -11
-6 -1 2 1 -4 -13 -7 -9
-2 -1 0 3 -2 -14 -8 -11
-2 -3 0 3 1 -14 -9 -13
1 -3 1 5 3 -13 -11 -13
5 1 0 4 3 -13 -10 -13
4 2 2 7 5 -9 -7 -12
-4 0 5 10 9 -4 -3 -7
0 -3 3 7 5 -7 -6 -10
0 -2 2 7 4 -7 -4 -9
-1 -2 2 7 4 -6 -2 -8
0 0 2 10 6 -5 -1 -7
3 5 5 14 10 -3 0 -5
5 3 3 12 8 -6 -4 -9
2 -1 4 14 9 -5 -4 -9
1 -2 6 17 13 -3 -1 -8
-2 0 6 17 13 -1 -2 -9
3 2 5 15 11 0 -1 -8
5 3 4 13 10 0 0 -5
-1 0 5 14 11 2 3 -4
6 3 3 13 9 1 1 -3
5 1 2 13 8 -1 -1 -3
-3 0 4 16 10 -1 1 -4
4 4 2 16 11 -3 -1 -6
2 2 4 17 13 -2 -2 -4
0 0 4 17 15 -1 -1 -6
3 1 4 17 15 1 0 -7
2 2 4 16 13 2 -2 -7
2 4 4 14 12 1 -1 -5
0 0 3 13 11 0 0 -5
-2 3 5 16 12 2 1 -3
0 3 6 19 14 2 2 -3
-2 0 6 19 16 2 1 -3
-2 1 4 18 15 0 0 -4
3 2 4 19 15 1 -1 -5
3 3 4 19 17 0 -1 -7
3 4 6 20 19 3 0 -3
2 3 5 19 17 3 0 -4
3 2 6 20 17 4 2 -2
6 4 7 20 18 5 4 -2
2 4 6 22 16 5 4 -1
3 5 6 22 17 4 4 -1
1 2 5 22 18 3 3 -3
1 1 4 22 18 2 1 -6
2 4 5 24 19 4 0 -6
4 2 3 22 19 3 0 -8
5 4 5 22 19 4 0 -7
2 7 7 23 20 7 1 -7
4 4 7 23 21 8 3 -5
5 3 7 23 21 9 5 -4
7 5 7 24 20 8 4 -5
9 6 6 23 20 6 3 -8
2 5 8 27 23 8 5 -6
-1 1 7 27 22 6 3 -6
5 3 6 27 23 6 1 -7
8 5 6 27 25 7 2 -8
1 2 6 26 24 8 1 -8
2 1 5 25 22 8 2 -10
4 -1 5 25 21 8 2 -10
3 2 5 26 22 8 4 -7
9 9 6 29 22 8 4 -7
8 9 7 31 25 9 6 -5
6 6 7 32 26 9 5 -4
6 5 7 35 28 9 6 -5
2 3 7 35 28 9 3 -8
8 6 6 34 30 9 2 -9
7 4 7 35 31 11 3 -7
3 2 7 34 30 10 3 -10
1 4 9 36 33 13 6 -7
3 3 7 35 31 12 6 -8
7 5 7 37 32 13 6 -5
10 8 7 39 32 13 6 -5
9 9 7 41 34 15 7 -5
8 11 9 44 38 17 10 -4
11 10 9 44 38 17 6 -5
6 8 10 46 41 18 8 -4
4 6 9 47 42 20 8 -3
3 4 9 46 41 21 8 -5
8 7 8 45 40 20 7 -6
9 8 9 48 41 21 9 -4
9 10 9 49 41 21 9 -3
15 14 9 52 44 22 10 -3
13 14 8 54 47 22 8 -5
12 14 11 59 51 25 10 -2
13 15 11 60 52 25 8 -3
11 13 10 61 54 25 9 -3
11 13 11 62 55 27 9 -2
11 11 10 60 55 27 10 -4
6 12 12 63 56 30 12 -2
12 15 11 63 56 29 12 -2
16 11 10 64 56 28 10 -3
15 11 11 66 57 29 13 -1
14 12 12 70 62 31 13 0
12 12 12 73 64 32 13 1
15 11 14 74 66 33 12 0
14 13 12 73 67 33 11 -3
13 15 12 74 68 35 11 -1
16 16 13 75 70 38 13 1
15 13 10 74 67 36 10 -1
21 14 7 71 64 32 9 -2
18 15 9 74 68 35 11 0
11 13 10 77 69 36 12 2
15 15 10 78 70 35 12 1
17 15 9 79 71 35 12 2
18 17 9 80 73 36 11 2
19 19 11 81 74 36 13 2
19 17 10 81 73 36 12 2
23 18 10 80 73 37 13 3
23 21 11 81 73 39 13 3
22 20 9 79 71 36 13 3
20 20 10 80 71 37 14 5
20 20 10 80 70 36 14 5
21 20 7 78 68 32 10 2
21 17 7 78 68 32 11 3
17 18 8 78 69 32 11 4
23 23 9 78 70 32 11 4
23 20 9 77 70 33 11 4
21 20 9 75 69 35 12 4
24 23 9 74 68 36 13 6
24 23 9 74 67 35 13 7
22 24 8 72 66 34 13 6
21 23 10 73 65 34 15 7
18 18 8 69 62 30 12 5
18 16 6 67 61 30 12 3
20 20 7 66 61 30 13 3
17 17 7 64 58 27 12 3
16 16 8 61 57 27 13 4
17 19 6 57 53 27 13 3
16 19 8 56 52 28 15 6
16 21 8 55 50 27 18 7
14 20 8 53 48 27 19 6
14 21 8 51 45 25 19 6
13 20 7 48 44 23 18 5
9 18 7 46 42 21 18 5
11 18 7 43 40 20 16 3
12 18 7 40 38 19 15 2
10 16 7 37 36 19 15 2
7 16 6 33 34 21 17 2
8 11 4 29 30 18 16 2
7 13 7 29 29 18 17 2
8 14 7 27 27 17 17 3
11 13 5 24 24 15 17 3
7 14 8 26 25 16 19 3
0 14 10 26 27 17 20 4
8 15 7 23 23 13 16 1
5 13 6 21 21 12 16 -1
1 6 3 17 17 9 12 -4
6 8 3 15 15 9 13 -3
2 7 5 14 14 10 14 -2
-2 6 6 15 14 10 16 -2
3 10 6 14 13 9 16 -1
0 8 5 13 11 8 16 0
3 9 3 11 9 4 13 -4
7 11 3 10 9 4 11 -4
3 8 4 10 9 4 11 -5
3 9 4 9 9 3 10 -6
3 7 3 8 8 4 9 -7
3 6 3 7 7 7 11 -5
3 8 2 5 5 5 10 -7
3 5 1 4 3 4 9 -8
-2 3 2 4 4 4 9 -7
-3 3 4 6 6 6 13 -5
0 2 1 4 3 1 8 -8
1 4 2 4 4 0 9 -8
-3 3 4 7 7 3 10 -6
1 1 2 5 5 1 8 -8
4 4 0 2 4 0 8 -10
1 4 1 1 2 1 9 -8
0 3 2 2 2 2 10 -8
0 3 2 3 1 2 11 -8
-7 -1 2 2 0 0 10 -8
-5 -2 1 2 -2 -1 9 -10
-5 0 1 4 0 -2 8 -10
0 1 1 3 0 -3 7 -9
3 2 3 4 2 -2 8 -9
0 0 3 5 4 0 7 -9
1 3 1 3 3 -1 5 -11
1 4 2 3 3 1 8 -8
0 5 3 4 3 2 9 -5
6 8 1 3 1 2 9 -6
1 3 1 2 0 1 7 -8
-1 1 1 2 -1 0 8 -7
0 5 4 4 3 2 10 -5
0 4 2 4 3 1 8 -6
3 4 1 3 3 -1 7 -8
1 3 2 5 3 -1 6 -9
-1 1 4 5 4 1 7 -8
1 6 4 5 3 2 8 -8
3 9 5 6 4 4 10 -5
6 3 4 6 4 5 11 -3
1 2 5 7 4 4 11 -3
-2 2 5 7 2 1 9 -4
0 3 4 7 2 1 7 -6
1 4 5 8 5 3 6 -7
-5 1 5 9 6 3 6 -6
-3 0 6 10 8 4 7 -6
-3 2 5 9 8 4 5 -7
-1 2 5 8 8 4 6 -7
0 3 8 12 11 9 11 -4
-1 3 7 10 9 8 10 -5
1 5 7 10 8 7 10 -4
1 7 5 10 8 6 10 -4
-2 4 6 11 9 7 8 -6
-1 5 6 12 11 8 9 -6
-6 3 7 13 11 8 10 -5
-5 1 5 11 8 6 8 -8
-1 2 4 10 9 6 7 -8
-6 1 6 11 10 8 9 -5
-3 4 7 13 10 10 11 -4
0 3 6 11 9 9 11 -6
2 4 6 11 9 10 12 -6
5 7 7 13 10 11 14 -3
0 7 8 15 12 12 12 -4
1 7 6 13 12 10 11 -6
0 6 7 15 13 10 12 -6
-1 3 6 13 10 9 9 -8
1 2 6 12 10 9 10 -7
2 4 6 13 10 10 11 -7
1 7 7 12 9 10 12 -6
2 8 8 13 11 12 13 -4
-2 7 7 13 10 12 13 -5
2 6 6 12 9 10 12 -5
2 6 7 13 10 11 14 -3
3 7 6 13 9 10 13 -4
4 6 6 14 11 10 12 -5
2 2 5 13 10 10 11 -6
1 3 4 11 9 8 11 -6
1 7 5 10 8 10 11 -5
-1 2 5 9 7 9 11 -6
-1 1 4 8 7 10 12 -6
1 4 4 8 8 9 12 -4
2 5 3 8 6 8 9 -5
6 7 6 10 9 9 12 -4
6 7 6 11 10 11 12 -4
2 4 6 10 10 9 11 -3
2 2 3 8 7 7 8 -5
2 -1 2 7 5 5 8 -6
-4 0 7 10 8 9 11 -2
5 2 3 6 4 6 10 -3
1 1 3 7 4 7 12 -2
0 2 4 8 5 7 12 -2
0 2 4 8 4 7 11 -3
-1 -1 2 6 3 5 9 -3
4 2 3 8 5 8 11 -1
2 3 4 9 6 7 11 -1
4 3 4 8 6 8 9 -2
4 7 5 8 7 9 11 -1
3 5 4 8 4 9 10 0
4 2 4 7 4 8 12 -1
-1 -1 4 5 2 7 8 -1
-2 0 4 5 2 6 8 0
0 2 4 5 2 7 9 0
2 3 4 5 1 5 8 -1
2 3 4 7 3 5 9 1
2 2 2 7 3 5 7 -1
0 4 4 7 4 7 8 0
5 4 4 7 3 6 7 -3
3 3 4 8 3 7 8 -2
5 4 4 7 2 7 8 0
4 5 3 6 0 7 9 1
2 2 3 5 0 5 7 -1
-1 3 5 7 2 6 8 1
-1 3 5 8 3 6 8 1
0 -2 3 5 1 5 6 1
2 0 3 5 2 4 6 0
-1 0 5 7 4 8 8 2
1 2 6 8 4 9 10 3
1 3 6 6 5 8 10 4
0 1 5 5 3 7 8 3
2 1 4 5 2 8 9 4
1 1 4 4 1 6 9 3
0 1 3 3 2 5 6 3
0 2 5 5 3 6 7 4
0 0 4 4 3 7 7 4
-2 -1 3 4 3 6 6 2
-3 -2 4 4 3 7 6 4
-3 -1 4 4 3 7 8 5
0 1 4 3 1 7 7 5
-2 2 5 5 2 8 8 7
-2 2 5 4 1 8 9 6
1 4 5 5 2 8 9 7
1 1 5 5 2 8 9 8
3 1 2 2 -1 4 5 5
5 5 3 4 1 4 5 5
-3 1 3 5 2 5 5 6
-4 1 4 4 3 7 8 7
-1 2 4 5 2 6 7 8
2 2 4 3 2 6 6 7
2 6 6 5 3 10 7 8
0 3 4 4 3 10 7 9
-1 3 5 4 3 9 8 10
-2 5 6 6 4 11 10 11
-3 0 5 4 3 9 7 9
0 0 3 3 2 7 5 7
0 0 4 5 3 7 6 8
-1 -1 3 4 3 7 6 7
-3 -1 3 5 3 7 6 9
-3 0 3 4 2 7 6 9
-2 1 3 5 2 8 7 10
2 4 4 5 1 9 8 11
1 4 4 4 1 7 6 10
2 9 7 7 5 10 9 12
3 11 8 9 6 12 10 14
2 8 6 6 5 10 7 12
2 10 8 9 8 11 8 13
0 11 8 9 8 13 10 13
3 12 8 9 8 13 11 16
6 16 9 8 8 13 11 17
3 15 9 7 7 14 10 17
2 15 9 7 8 14 11 16
4 17 10 9 7 14 10 18
3 17 11 9 9 14 11 19
3 20 11 10 10 16 14 18
3 19 10 9 9 15 12 18
6 22 8 8 8 14 11 19
8 23 9 8 11 16 15 22
8 21 9 11 13 20 17 24
12 25 6 10 12 19 17 24
13 25 4 9 11 20 17 23
9 23 4 12 14 23 20 27
13 21 2 14 14 23 18 27
15 20 1 14 15 22 18 24
16 20 1 15 14 23 18 24
11 19 1 13 14 21 16 25
12 16 0 10 11 16 12 19
15 17 1 9 9 16 12 19
15 16 0 5 6 14 10 18
13 13 -1 4 5 13 9 18
12 11 -3 1 3 12 9 18
6 7 -2 1 3 12 9 19
11 7 1 3 5 14 10 20
12 6 1 4 4 13 9 18
7 3 -2 1 1 9 6 15
6 2 -1 2 2 10 6 15
7 3 -1 1 0 8 3 12
5 1 0 1 2 9 4 11
6 3 2 4 2 10 5 15
4 0 2 3 1 10 4 13
2 -1 2 1 0 8 3 11
1 -3 1 -1 -4 4 1 10
-1 -4 1 -2 -5 3 -1 7
-1 -3 1 -1 -3 4 -2 8
-4 -7 2 0 -3 6 -1 9
-4 -8 0 -2 -5 4 -3 6
-2 -7 1 -2 -4 4 -2 7
-9 -8 4 0 0 7 1 10
-3 -6 2 -2 -4 4 -3 9
1 -5 0 -5 -6 2 -5 6
-2 -4 1 -4 -5 4 -2 9
-1 -3 4 -2 -3 6 0 12
-4 -5 5 -1 -3 6 -1 14
-2 -7 2 -3 -5 4 -2 10
-1 -6 2 -3 -5 4 -1 10
-5 -8 2 -3 -6 3 -4 11
-4 -8 2 -2 -6 3 -2 10
-4 -8 1 -2 -5 5 -2 10
-1 -7 1 -3 -6 4 -4 9
0 -5 2 -2 -5 5 -3 11
-8 -7 2 -1 -4 7 -2 11
-5 -6 2 -2 -4 7 -1 13
-2 -2 2 -2 -4 8 -2 13
2 -2 1 -2 -4 6 -2 13
2 -7 -1 -4 -6 4 -4 11
-3 -8 1 -3 -4 4 -4 12
-9 -7 1 -2 -3 5 -4 10
-1 -7 -1 -2 -4 4 -5 11
0 -7 -1 -3 -5 3 -6 11
-5 -7 0 -3 -5 4 -4 11
-4 -7 1 -3 -5 6 -3 11
-7 -9 0 -4 -6 5 -4 13
1 -8 0 -5 -7 5 -5 10
-4 -7 3 0 -3 8 -2 14
-10 -8 4 1 -1 10 0 17
-5 -8 2 -2 -3 6 -3 15
-2 -7 -1 -3 -5 4 -7 12
-5 -7 1 -2 -2 6 -4 14
-7 -6 4 1 1 9 -3 16
-9 -8 7 6 1 8 -4 13
-8 -11 10 10 3 8 -6 10
-7 -14 15 17 8 8 -8 7
-9 -12 18 23 13 12 -8 8
-7 -6 19 27 17 16 -5 11
-5 -3 16 30 22 21 0 14
-6 2 19 36 32 31 8 21
0 13 19 43 42 41 18 30
2 22 19 47 52 54 32 40
3 27 17 49 62 69 46 50
8 33 12 48 69 85 63 63
18 42 4 46 79 105 84 81
32 53 -7 38 84 122 106 99
44 61 -17 15 78 136 128 117
63 72 -34 -30 53 142 149 136
71 82 -50 -76 26 149 174 161
78 88 -65 -122 -6 149 193 176
80 95 -76 -163 -34 151 206 189
81 101 -92 -201 -64 146 209 191
80 105 -114 -241 -100 133 204 189
71 110 -129 -274 -132 115 191 181
56 104 -135 -297 -164 85 167 167
46 99 -134 -310 -192 41 124 144
28 87 -131 -320 -223 -17 72 115
-1 55 -122 -324 -249 -83 3 70
-22 19 -107 -316 -267 -144 -64 16
-38 -8 -89 -294 -267 -178 -102 -22
-44 -22 -80 -268 -254 -187 -117 -39
-42 -32 -77 -244 -235 -182 -121 -48
-46 -42 -72 -217 -211 -164 -117 -50
-46 -46 -66 -191 -186 -146 -110 -50
-44 -48 -60 -169 -168 -131 -103 -46
-39 -46 -55 -150 -153 -118 -93 -42
-37 -41 -48 -131 -134 -103 -82 -36
-36 -33 -39 -112 -113 -87 -69 -28
-35 -26 -30 -92 -93 -71 -57 -18
-29 -20 -22 -75 -75 -58 -49 -13
-23 -18 -18 -60 -58 -45 -42 -8
-16 -9 -12 -43 -40 -29 -31 -1
-10 -5 -7 -31 -27 -18 -24 4
-10 -6 1 -16 -15 -6 -16 10
-2 -1 2 -10 -9 0 -12 13
0 1 5 -4 -5 5 -6 18
1 0 7 1 -2 7 -4 20
0 0 7 3 0 7 -4 20
-5 -3 6 5 0 6 -4 19
-3 -4 7 5 2 5 -6 20
-2 -6 8 8 6 8 -5 20
0 -3 8 8 9 10 -3 19
3 2 8 8 9 10 -3 21
2 3 7 8 8 12 -1 22
0 2 8 9 8 14 1 24
2 4 9 10 9 14 1 25
6 4 8 11 9 14 0 25
6 1 9 14 12 15 1 25
1 -1 9 14 12 14 0 25
0 -1 9 15 14 13 -1 22
3 4 11 16 17 16 0 25
1 3 10 15 19 17 0 24
-1 1 10 13 16 16 -1 24
4 1 9 12 15 17 -2 23
2 -2 8 11 13 16 -1 23
0 1 10 13 15 18 3 27
0 3 12 16 15 18 3 28
3 3 12 18 17 17 3 26
8 6 11 19 18 16 3 26
6 4 10 18 19 15 1 24
7 2 7 16 17 14 -4 20
3 0 8 17 20 16 -1 21
-3 -3 7 14 17 15 -2 20
2 -1 7 13 16 17 -1 20
7 1 6 12 13 18 0 21
0 4 13 19 19 23 7 27
2 6 12 19 16 21 4 25
4 5 10 19 16 18 2 23
2 6 10 20 18 17 1 22
4 8 11 22 22 18 2 24
5 6 9 20 21 18 0 23
6 5 10 20 22 20 2 23
6 2 9 18 21 20 2 22
3 1 12 20 21 22 3 23
5 1 11 18 18 20 1 24
8 2 9 15 16 18 1 23
4 6 13 21 21 22 5 27
5 6 12 22 22 20 4 27
6 4 11 21 21 18 2 27
5 7 12 24 25 19 4 27
4 5 13 25 26 20 3 27
6 5 10 23 24 19 1 25
8 6 10 22 23 20 1 24
2 3 11 22 23 21 2 25
3 5 11 22 22 22 3 26
6 4 12 22 24 23 6 26
4 3 11 22 22 22 4 26
2 3 10 24 23 21 5 27
3 2 11 26 25 22 5 28
5 3 11 27 28 22 4 27
10 6 12 29 30 23 4 29
7 6 11 28 29 23 5 28
8 5 12 27 29 23 4 27
8 5 11 27 28 24 4 27
1 4 12 27 28 25 5 28
2 7 12 28 29 26 9 31
8 6 9 26 26 22 4 27
4 6 11 30 28 23 5 29
8 5 12 31 30 24 6 29
5 2 11 32 32 24 5 27
6 4 12 35 34 26 5 28
6 6 13 34 35 27 5 28
10 5 12 32 33 26 3 26
13 7 12 33 33 27 4 24
11 8 15 37 37 31 7 31
12 11 14 37 36 31 8 31
11 10 12 37 34 27 6 28
5 7 12 38 36 27 6 27
7 9 12 40 38 27 6 29
8 11 12 41 39 26 5 27
11 12 11 41 40 26 3 25
14 14 11 41 42 29 5 24
13 12 13 42 43 32 6 26
10 13 15 46 46 35 8 29
11 12 15 47 46 36 10 30
10 12 14 46 45 36 11 29
14 15 12 47 45 34 8 28
12 13 12 50 47 34 8 28
11 13 12 51 49 35 8 30
14 16 14 54 54 37 9 31
14 13 14 56 55 37 9 30
8 11 16 58 58 40 10 32
11 12 16 58 58 40 10 32
12 11 15 58 58 40 11 29
16 12 15 61 59 42 11 32
18 15 14 60 59 42 13 32
14 15 15 65 61 43 13 33
12 16 16 69 63 43 14 33
14 14 15 69 63 42 11 31
12 15 14 69 66 42 9 29
15 14 15 73 70 44 10 30
14 13 14 71 69 44 8 29
15 16 14 72 70 45 8 29
15 18 14 72 69 47 9 30
19 20 14 73 70 49 11 32
23 22 14 74 69 49 12 33
16 20 15 75 70 50 13 35
17 20 14 78 72 51 13 35
22 21 14 78 74 48 11 35
20 20 14 78 75 47 10 34
20 19 13 80 75 48 10 33
19 18 13 80 76 49 11 34
21 19 11 78 74 48 10 33
23 20 11 77 74 50 11 33
19 19 12 78 74 52 13 36
20 23 14 78 74 51 13 37
23 23 14 79 73 49 12 37
23 22 12 78 72 47 10 35
23 25 12 79 73 47 11 36
24 26 14 81 76 47 11 36
24 24 11 79 76 47 9 35
21 25 11 78 75 48 10 35
20 22 10 74 72 46 8 34
21 22 11 74 72 46 11 35
18 23 13 75 73 47 12 37
19 21 10 71 69 44 10 36
22 21 11 71 68 43 11 37
21 21 10 71 66 43 10 36
21 22 10 69 65 42 10 35
26 24 11 69 67 42 11 36
28 24 10 66 66 41 9 36
17 22 12 66 67 44 13 38
14 19 10 62 63 42 13 36
15 18 10 58 59 41 12 35
19 22 10 56 57 41 13 37
17 20 9 54 53 39 14 37
13 18 10 51 51 38 16 37
15 19 11 51 50 37 16 39
8 17 11 49 49 36 17 40
11 23 12 49 50 37 20 42
15 26 12 46 49 36 20 42
14 24 11 43 47 35 18 40
9 18 9 37 41 32 16 37
11 17 7 32 35 29 14 35
11 18 9 30 33 30 16 38
10 17 9 28 31 28 16 36
5 12 9 26 28 26 16 35
7 11 9 24 26 25 13 34
7 11 9 23 25 23 14 36
2 12 10 23 27 24 15 35
6 13 11 21 25 23 13 32
9 13 8 18 23 21 11 31
7 15 8 14 21 20 12 30
6 14 10 14 21 23 12 32
6 14 9 12 18 21 11 33
6 13 9 12 17 20 12 35
1 10 9 11 16 19 13 35
3 8 8 10 14 17 10 33
3 8 9 11 14 16 10 32
-2 6 7 10 13 14 10 30
-2 6 5 7 12 13 7 28
5 7 4 5 11 13 6 27
3 5 6 5 10 13 6 25
5 7 7 4 9 14 7 27
6 7 7 4 9 15 8 29
6 8 7 2 7 13 7 28
3 7 8 3 7 13 8 29
-4 5 8 3 7 13 8 29
1 5 6 3 5 10 6 29
4 5 5 1 4 7 3 26
3 2 4 0 4 7 2 25
-1 3 4 2 7 9 4 26
-4 4 4 1 6 9 4 25
-2 6 4 0 3 9 4 24
5 10 3 0 3 10 5 26
3 6 5 1 3 10 6 27
-2 5 5 1 0 8 5 27
2 8 6 2 1 9 6 29
5 7 5 2 2 7 6 29
6 7 5 3 3 7 5 28
1 3 5 3 4 7 3 25
0 3 4 2 4 7 2 24
2 5 5 1 5 8 5 25
0 3 5 0 3 9 3 25
2 5 6 2 4 10 5 26
1 8 5 2 3 9 5 25
5 9 5 1 2 7 5 24
6 11 7 3 4 7 3 23
4 9 6 4 5 6 3 22
2 5 6 4 5 6 2 19
2 6 6 5 7 8 3 21
1 4 7 5 9 8 1 20
3 4 6 3 7 8 1 20
2 4 6 3 6 10 2 22
-3 1 7 4 6 9 3 22
-3 4 7 4 6 9 3 24
-3 4 8 4 4 9 3 23
0 6 8 5 5 9 2 22
2 8 8 8 8 9 4 23
0 7 9 8 9 8 3 21
0 5 8 7 9 8 2 21
3 5 8 7 9 9 2 21
-1 4 7 7 9 10 3 20
1 6 8 7 10 12 5 23
0 4 7 6 8 12 6 24
0 2 6 6 7 12 6 24
3 6 6 6 7 10 6 24
-2 6 6 7 8 12 5 25
-4 9 9 12 12 14 7 26
1 7 8 12 12 13 6 25
0 6 7 11 12 12 5 22
0 7 8 12 13 14 5 24
6 8 7 10 11 12 4 23
3 9 8 9 11 14 5 23
0 12 10 11 13 16 7 25
0 8 9 11 12 15 8 24
1 7 8 9 11 13 7 24
0 8 9 11 12 14 7 26
1 9 9 12 12 13 7 24
4 11 10 13 13 15 7 26
0 6 10 13 15 16 8 25
2 5 10 12 14 16 8 25
5 7 11 12 15 16 9 27
8 7 8 10 12 15 7 24
5 10 9 10 13 16 9 25
3 8 9 10 12 16 11 26
0 6 8 9 10 15 10 25
8 11 8 9 10 16 9 25
4 10 8 11 11 14 9 25
0 7 5 8 9 10 5 22
-2 7 7 10 11 13 7 25
0 6 5 7 11 11 5 22
5 8 6 10 13 13 7 23
5 8 7 10 13 16 8 24
4 5 6 8 11 14 7 23
3 7 6 8 9 13 8 25
-1 5 6 9 9 13 9 24
1 6 6 9 9 14 8 22
4 7 7 10 11 14 8 23
1 5 7 10 10 11 6 23
0 5 6 9 10 11 5 22
0 4 5 8 8 11 6 22
1 5 6 8 9 12 8 21
3 8 8 8 9 12 10 24
4 5 5 6 6 11 8 22
8 8 4 4 4 10 8 23
8 11 6 6 7 12 11 25
7 10 7 7 7 13 10 25
4 6 5 6 6 11 8 22
1 4 6 8 8 10 6 21
0 2 5 7 8 9 5 19
4 3 4 6 6 8 4 18
0 6 5 6 7 9 5 19
2 10 5 6 7 9 5 21
1 9 5 6 8 10 7 21
3 7 4 5 5 8 5 21
6 11 6 6 7 10 6 21
9 9 4 5 4 6 5 18
9 9 4 6 4 6 3 17
2 11 6 6 5 6 4 18
0 8 5 6 5 6 3 17
2 7 6 7 6 8 5 17
2 8 4 5 6 8 4 17
-2 5 5 5 4 7 5 16
2 7 4 4 4 8 5 16
5 7 3 3 2 6 5 18
1 6 4 4 2 7 5 18
3 9 8 7 5 8 8 20
3 7 7 7 5 6 5 19
3 5 6 6 4 5 3 19
0 4 4 5 3 2 0 15
-2 3 4 5 2 1 0 13
2 6 4 4 2 2 0 13
1 7 3 4 2 2 1 13
-2 5 3 3 1 2 2 13
-1 7 4 4 1 2 6 16
-4 5 6 5 2 3 4 16
5 8 5 5 2 2 4 16
8 12 4 6 3 1 4 14
4 11 4 7 4 2 3 13
1 5 5 5 5 2 2 13
0 4 5 5 4 2 2 12
0 6 7 5 5 3 3 13
0 6 6 5 4 3 4 13
4 6 2 2 0 0 1 8
4 8 3 4 2 1 3 11
-1 8 3 4 2 2 4 12
1 6 2 4 1 0 3 10
6 8 2 5 3 1 3 11
0 6 3 7 5 3 4 12
-2 5 4 7 5 3 3 11
5 7 3 5 3 1 3 10
3 8 3 4 3 2 2 10
2 8 5 4 3 2 3 11
2 7 5 4 2 1 4 11
-3 7 3 3 2 1 2 11
2 7 2 2 1 0 0 10
5 5 1 1 -1 -3 -2 7
3 3 1 3 -1 -1 -1 9
3 5 2 5 3 1 0 10
-5 6 4 6 5 2 1 10
2 6 1 4 3 0 1 9
4 7 0 2 2 -1 -1 9
2 11 2 3 3 1 0 10
-1 14 5 5 4 2 2 12
1 11 5 5 2 1 2 13
5 11 5 6 3 2 4 15
4 14 6 7 4 2 5 14
-2 12 5 7 3 0 3 12
3 16 7 10 7 4 5 13
7 18 8 11 9 7 7 15
6 19 9 11 10 6 6 16
4 21 11 11 10 8 8 17
1 18 9 9 9 6 8 16
4 20 11 9 9 6 9 17
8 24 9 9 9 6 9 18
9 24 9 11 9 7 9 18
9 26 9 11 10 7 10 18
9 24 8 11 11 9 11 19
7 25 5 11 10 7 9 18
5 28 7 14 15 13 13 22
7 29 6 14 16 14 15 23
14 32 4 14 16 15 15 23
14 33 3 14 17 17 17 26
21 31 -3 11 13 13 13 23
19 32 -1 14 15 15 16 26
16 28 1 16 16 15 15 27
13 22 -1 13 12 11 14 23
12 20 -1 12 11 9 12 22
11 17 -3 8 7 4 8 19
11 16 -3 7 6 4 8 18
12 17 -4 5 4 3 7 17
11 15 -6 2 2 1 4 14
8 14 -4 2 1 1 5 15
8 13 -3 3 2 3 6 15
12 15 -2 3 1 1 5 14
13 16 -4 3 1 1 4 13
14 12 -3 3 0 0 3 13
14 11 -3 4 1 0 2 12
8 9 -3 3 0 -2 0 10
4 6 -1 4 1 -1 1 11
-1 1 0 6 3 -1 2 11
0 2 -1 3 0 -4 0 8
0 1 -2 1 -2 -5 -1 7
1 0 -1 1 -2 -5 -1 7
5 1 -3 -2 -6 -8 -4 3
7 2 -2 -1 -5 -8 -4 5
0 1 0 2 -3 -7 -2 7
-1 0 -1 1 -3 -7 -3 5
5 1 0 2 -3 -6 -2 6
5 -1 -1 1 -3 -7 -2 4
0 -1 0 1 -4 -8 -3 2
0 -1 0 1 -4 -6 -3 3
0 -2 -2 0 -5 -8 -5 2
3 -1 -2 -2 -6 -9 -5 1
5 1 -2 -1 -6 -8 -5 2
6 3 -2 0 -6 -7 -5 3
3 3 -1 2 -5 -8 -4 4
-3 -2 -1 2 -4 -9 -4 4
-1 -1 -1 1 -6 -10 -6 3
7 2 -2 -1 -7 -11 -6 3
4 1 -1 0 -5 -9 -4 4
4 1 -1 0 -4 -7 -4 5
0 0 -1 0 -5 -9 -4 4
0 0 0 0 -5 -7 -4 2
3 2 -1 0 -6 -7 -5 2
2 -2 -4 -2 -8 -9 -6 0
-1 -3 -4 -2 -8 -10 -6 1
1 -2 -3 0 -6 -9 -4 3
1 -3 -3 2 -5 -9 -4 2
2 0 -3 1 -5 -9 -4 2
1 -1 -2 2 -3 -9 -3 3
3 0 -2 2 -2 -8 -3 3
5 2 -1 2 -3 -7 -2 3
2 -1 -2 1 -4 -8 -3 2
2 -1 -2 0 -6 -9 -4 1
0 -1 -3 0 -7 -9 -4 2
-1 -4 -1 2 -6 -8 -3 4
-2 -3 -1 3 -5 -9 -3 3
0 0 0 3 -5 -10 -4 3
3 -2 1 7 -1 -8 -4 1
1 -4 6 14 4 -7 -6 0
-1 -7 11 19 8 -7 -9 -5
-1 -8 14 24 11 -5 -10 -8
2 -2 15 28 16 -1 -8 -8
1 1 14 31 20 3 -4 -5
-1 7 15 38 28 14 4 2
2 14 14 40 35 22 12 8
4 23 14 47 43 32 21 16
6 29 15 53 56 47 35 25
10 31 11 54 64 63 52 37
24 41 6 51 74 82 74 53
31 49 -4 45 83 104 100 74
37 56 -14 35 84 121 124 94
58 68 -27 4 70 135 149 113
67 77 -43 -40 44 147 179 138
73 81 -59 -83 11 152 205 159
78 90 -69 -122 -19 157 225 177
78 97 -82 -158 -49 155 234 183
79 104 -100 -192 -81 148 235 183
74 107 -120 -228 -118 133 226 177
59 108 -133 -261 -153 109 206 165
49 106 -135 -283 -182 74 172 144
33 98 -133 -296 -210 27 125 117
15 80 -125 -308 -241 -38 60 81
-9 45 -115 -312 -268 -113 -23 22
-32 14 -99 -300 -280 -173 -86 -29
-40 -3 -88 -280 -279 -211 -119 -58
-48 -16 -81 -254 -260 -211 -124 -68
-49 -27 -77 -228 -236 -198 -123 -73
-47 -32 -69 -200 -209 -181 -120 -75
-42 -37 -65 -179 -189 -165 -114 -76
-37 -39 -60 -159 -172 -149 -106 -72
-33 -33 -51 -136 -150 -130 -93 -63
-35 -27 -45 -118 -130 -113 -80 -56
-29 -16 -36 -99 -110 -96 -66 -46
-24 -8 -30 -81 -91 -82 -56 -39
-21 -7 -24 -66 -75 -69 -48 -35
-15 -4 -18 -49 -57 -55 -39 -29
-12 -1 -12 -35 -41 -40 -28 -21
-7 -2 -7 -22 -26 -26 -18 -16
-2 0 -2 -12 -17 -18 -14 -14
-4 -2 1 -4 -10 -12 -7 -10
2 0 0 -1 -8 -9 -6 -10
0 1 2 3 -5 -7 -6 -9
0 1 3 7 -2 -6 -5 -7
6 5 6 11 4 -3 -2 -3
8 4 3 11 5 -4 -4 -5
4 4 4 13 7 -2 -3 -6
8 5 4 12 8 -1 -3 -6
2 4 4 12 9 0 -2 -4
4 6 5 12 9 1 -1 -4
6 5 4 12 7 1 -1 -4
4 3 5 12 7 2 1 -3
3 4 5 14 9 3 3 -1
-1 2 7 17 11 4 4 -1
2 2 5 16 10 0 1 -4
7 4 5 18 12 1 1 -4
3 3 5 20 14 3 2 -3
7 5 5 20 15 4 3 -4
9 6 6 18 15 4 1 -5
9 6 4 16 14 5 2 -4
7 7 7 19 15 8 6 -2
3 4 6 17 13 6 5 -3
-1 4 6 17 12 4 4 -3
4 6 6 20 15 6 5 -2
2 4 5 20 13 4 2 -5
4 5 5 20 15 3 2 -5
5 6 6 21 18 6 4 -4
5 6 6 22 18 7 4 -5
6 8 7 22 18 9 6 -4
5 9 5 20 16 9 5 -5
6 8 6 21 17 11 7 -5
11 9 6 21 16 9 6 -4
6 8 8 22 18 10 7 -3
8 8 7 24 19 9 6 -3
8 8 6 24 19 8 5 -5
9 8 6 23 20 8 4 -5
9 9 7 25 22 9 5 -5
3 7 9 26 25 11 6 -4
10 8 7 22 21 9 4 -7
9 6 6 20 20 9 3 -7
6 6 8 23 21 11 5 -7
10 10 9 25 23 13 8 -2
11 11 9 25 22 12 5 -3
9 9 7 24 22 10 6 -4
9 8 8 26 23 10 6 -3
8 6 8 25 23 10 4 -5
8 7 7 26 24 9 3 -6
4 5 8 26 25 10 4 -6
7 6 6 24 22 9 2 -7
9 8 6 23 23 11 4 -6
6 6 6 24 23 11 5 -5
3 5 6 26 24 13 7 -4
9 10 5 26 22 12 7 -3
12 9 6 28 24 13 7 -3
9 8 9 32 26 15 9 -1
9 8 8 30 29 15 8 -2
8 7 6 28 27 12 6 -4
10 7 7 29 29 13 7 -2
5 4 8 28 28 13 6 -3
6 3 5 26 27 12 4 -5
9 8 8 30 29 17 9 -2
8 6 8 31 30 18 9 -3
11 8 8 31 29 18 8 -4
11 8 9 33 31 18 10 -1
11 10 7 33 30 16 6 -3
13 14 8 35 34 17 7 -3
13 12 10 37 37 19 8 -2
14 8 7 36 36 18 6 -3
15 10 7 35 37 19 6 -3
7 8 9 38 38 21 8 -1
8 12 8 39 37 23 9 -1
5 10 11 41 39 23 11 0
13 8 9 39 38 22 9 -2
16 10 11 43 42 24 11 0
13 11 8 42 41 23 9 -1
14 12 9 44 45 24 9 -1
14 14 9 45 47 25 10 0
12 13 11 46 48 26 11 0
16 13 10 46 49 27 10 -1
14 8 11 48 49 29 11 -1
12 9 10 47 48 29 11 -2
14 11 11 49 50 30 12 1
14 11 10 50 50 30 11 2
14 11 10 52 51 30 13 1
14 13 11 54 53 32 12 1
15 11 10 56 57 33 12 1
16 13 10 58 59 34 12 1
18 14 12 59 60 35 13 1
13 13 12 61 62 37 13 2
15 14 12 62 63 39 14 3
16 13 11 61 62 40 14 3
17 13 11 63 62 39 13 2
12 14 13 67 65 41 16 4
11 13 10 66 66 41 15 3
17 14 8 67 67 41 12 1
19 14 7 67 68 40 11 -1
19 16 8 70 70 42 13 2
17 17 12 74 75 45 15 4
14 15 12 74 77 47 16 4
23 17 11 73 76 48 16 4
26 20 12 75 78 50 19 6
23 16 11 74 76 48 15 4
23 18 11 76 77 48 13 6
20 16 10 77 77 46 13 4
14 15 12 81 80 48 16 5
16 18 13 82 82 49 16 8
25 19 9 78 81 47 13 4
26 20 8 78 82 47 12 5
23 20 10 79 83 50 13 5
24 21 10 79 82 51 14 6
28 24 9 78 81 50 15 8
25 23 9 78 81 49 14 7
23 22 11 79 81 49 14 9
26 20 9 77 79 47 13 7
26 19 7 76 78 44 11 5
28 20 9 78 80 45 10 6
24 19 9 79 80 45 10 6
21 16 9 78 80 45 12 7
18 15 9 77 79 46 11 6
18 16 8 75 77 45 12 7
23 19 8 73 74 44 10 6
25 23 8 73 74 44 11 8
24 19 7 72 72 43 12 7
24 20 8 71 72 43 12 7
22 23 6 67 71 39 10 7
22 24 5 66 70 37 9 7
21 22 7 66 68 38 12 8
21 17 6 62 66 37 12 8
17 17 5 59 63 37 10 7
16 19 7 59 63 39 14 10
15 20 7 56 60 37 15 9
17 21 8 56 58 37 16 11
19 20 6 52 55 35 17 11
19 19 7 51 53 34 18 13
16 21 9 51 53 35 21 14
15 20 10 51 54 34 21 14
16 19 7 47 49 29 18 10
13 18 7 44 47 29 17 11
9 14 7 40 44 28 18 10
13 16 6 36 41 28 18 10
14 15 6 33 38 27 18 10
10 16 7 32 35 25 18 11
15 17 5 29 34 23 18 10
10 15 6 27 30 20 16 10
9 14 7 26 29 19 17 10
12 16 6 25 29 19 17 9
10 13 6 25 30 20 16 9
10 11 8 24 29 20 17 10
7 10 7 21 26 19 16 7
6 8 5 17 22 16 13 6
8 9 4 15 18 13 12 6
5 9 4 14 17 14 13 6
8 10 3 12 14 12 13 5
10 11 4 13 15 12 13 6
4 6 4 13 15 12 13 6
5 8 7 15 16 12 11 5
5 8 7 12 15 11 10 5
3 7 6 10 13 10 10 4
6 7 6 9 13 9 10 5
7 7 5 8 11 9 10 5
7 5 7 8 11 9 11 6
6 5 6 7 10 9 11 5
0 4 4 6 8 7 9 3
3 5 4 5 7 5 7 3
3 2 4 4 7 4 7 1
4 1 4 6 8 5 7 1
4 2 6 7 10 6 7 2
5 1 5 5 8 5 6 1
4 0 6 6 8 5 6 0
3 3 8 7 9 7 8 2
6 6 9 7 9 8 8 4
8 9 8 7 9 7 8 5
4 3 5 5 6 4 4 0
-1 1 7 6 8 5 6 2
2 0 6 5 8 3 5 1
2 -1 6 5 9 3 4 1
3 3 8 7 10 4 5 1
1 4 7 6 9 4 5 1
3 3 7 5 8 4 4 -1
6 4 7 5 8 5 4 0
5 4 9 8 8 6 6 1
4 3 8 7 8 5 5 0
3 3 11 10 9 7 6 1
1 1 8 9 8 5 4 -2
1 0 8 7 8 3 3 -2
1 0 8 8 10 5 5 0
-3 -1 7 7 9 4 3 -2
3 1 6 5 8 3 3 -2
1 2 7 7 10 6 5 -1
4 4 6 6 9 6 4 0
7 8 7 7 9 7 5 0
4 6 7 8 10 6 5 1
2 4 8 9 11 8 7 0
3 3 7 9 10 7 5 0
0 2 8 10 12 6 6 -1
1 3 9 11 14 8 7 1
2 2 8 11 13 9 6 0
3 1 7 9 12 7 5 -1
0 2 9 11 15 10 9 1
2 1 8 10 13 10 8 2
5 3 6 9 11 9 8 1
4 7 7 10 12 10 8 4
4 5 7 12 13 11 9 5
3 5 9 14 14 12 9 6
1 5 11 16 17 12 11 6
3 6 9 15 16 11 9 5
10 7 7 12 14 10 7 2
7 6 6 12 14 9 8 4
4 4 6 12 14 11 10 4
1 3 7 13 14 13 11 7
1 5 8 13 15 13 13 7
7 7 8 13 15 13 13 8
7 6 6 11 14 13 13 7
4 9 7 13 15 13 14 8
8 11 7 12 15 13 13 7
7 8 9 14 16 14 13 8
7 10 8 14 17 14 11 7
6 10 8 15 17 12 12 5
5 6 6 12 14 11 10 5
4 8 7 13 15 14 10 6
5 7 7 11 15 14 12 6
5 7 8 11 13 13 13 7
5 8 8 12 13 13 12 8
7 11 7 11 12 12 11 5
9 10 9 12 15 12 14 7
6 11 9 13 16 12 13 8
2 9 8 11 15 12 11 6
3 8 8 10 14 10 11 6
3 5 8 8 13 10 11 6
4 5 8 8 11 11 11 5
6 8 9 9 12 12 14 7
1 4 7 7 9 9 9 6
2 4 6 7 8 9 9 4
3 5 7 7 10 10 10 5
5 7 7 9 11 10 11 6
-3 10 12 13 15 14 13 11
3 7 10 10 12 10 10 6
8 8 8 8 11 8 9 4
10 9 9 9 11 10 12 7
4 10 9 9 9 10 10 7
1 8 10 8 12 11 12 8
8 8 8 7 10 9 10 6
3 7 9 8 9 11 11 6
6 9 7 6 8 9 8 3
3 5 7 5 7 7 7 2
3 7 9 8 9 8 9 4
7 6 9 8 10 8 8 4
5 6 6 6 10 6 6 2
4 9 9 7 11 8 9 4
3 8 9 8 10 9 9 3
5 7 9 7 10 8 10 4
10 9 8 7 7 8 9 5
5 5 9 8 7 9 9 5
0 5 10 8 6 8 8 6
0 4 10 7 7 7 9 5
-1 1 9 6 6 6 6 3
-1 1 9 6 7 7 7 2
2 4 7 5 6 5 6 2
2 4 9 4 7 7 7 2
3 5 8 4 5 7 7 2
2 5 9 5 6 9 7 3
5 5 8 5 5 7 6 3
1 1 7 3 3 6 5 1
-4 2 9 5 5 7 6 2
2 6 8 4 5 5 5 1
2 4 8 4 4 4 4 0
0 4 7 3 5 5 4 1
1 4 7 1 5 4 4 0
-1 4 6 1 4 3 3 -1
1 5 7 2 4 4 4 0
1 6 7 3 4 6 5 1
0 6 7 2 4 4 5 1
2 9 7 3 4 6 6 1
3 9 7 4 4 4 3 1
2 9 8 2 4 3 3 1
3 6 9 4 5 4 5 3
1 1 8 3 4 4 5 1
1 2 8 3 5 4 3 0
0 1 8 3 5 6 4 1
0 3 7 1 3 6 4 0
-2 6 10 3 5 8 7 3
0 6 9 2 3 6 5 1
1 5 8 2 2 5 4 1
4 11 11 3 5 7 6 2
4 7 10 4 6 7 7 3
3 9 11 6 6 7 7 2
0 12 13 8 8 8 7 4
0 10 13 6 7 7 5 2
2 9 11 5 5 9 6 2
2 13 13 5 6 9 6 4
-5 15 16 7 10 13 10 7
-1 18 16 6 10 11 10 8
6 17 15 5 7 9 9 6
7 19 17 6 10 10 10 8
1 20 19 9 13 12 12 10
3 20 16 7 10 9 9 7
7 23 14 5 10 9 8 6
4 24 14 4 11 10 9 6
2 24 13 5 10 12 11 9
0 25 15 5 12 13 12 11
1 21 13 4 12 14 12 11
6 22 12 6 13 16 14 12
5 23 12 8 14 19 17 16
6 26 10 8 15 18 17 16
14 27 8 9 16 20 18 16
12 24 6 11 17 19 17 15
13 22 7 12 19 20 17 15
15 24 7 11 19 20 16 14
11 20 8 11 17 19 16 14
13 17 8 7 15 16 13 12
10 14 6 3 11 13 12 9
5 11 5 2 7 10 8 9
7 11 4 0 5 10 9 8
5 12 5 -1 6 7 9 10
9 14 5 1 7 8 9 10
14 16 4 1 7 8 6 6
10 13 5 0 7 6 4 6
12 14 5 -1 5 6 5 7
9 12 5 -2 6 6 5 7
6 8 6 -2 5 5 2 3
4 6 8 -1 6 6 5 5
1 3 8 -1 4 5 3 4
-2 2 8 -3 2 4 1 0
-3 1 8 -3 2 1 0 -1
-2 -4 6 -4 -1 0 -2 -1
-5 -3 8 -4 1 1 -1 -1
-7 -3 8 -4 1 0 -3 -2
-8 -3 8 -3 1 2 -1 0
0 -1 7 -7 0 0 -3 -2
-4 -2 6 -8 -2 -1 -5 -3
-8 -4 8 -6 0 1 -2 -2
-1 -4 6 -8 -3 -2 -6 -4
-6 -3 6 -8 -4 -2 -6 -4
-6 -4 7 -5 -2 -1 -5 -3
-4 -6 5 -7 -4 -5 -6 -7
-8 -3 7 -7 -2 -4 -7 -8
-3 0 8 -6 -1 -2 -5 -6
-4 -7 6 -7 -1 -3 -6 -6
-6 -8 7 -7 -1 -2 -5 -5
-4 -6 7 -6 -1 -1 -5 -5
-7 -6 8 -7 0 -1 -3 -4
-4 -3 9 -5 1 -1 -2 -3
0 1 11 -4 1 -1 -4 -4
-5 -3 10 -4 -1 -1 -5 -5
-8 -7 8 -5 0 -1 -5 -5
-10 -8 8 -6 -2 -2 -6 -6
-7 -5 7 -5 -1 -1 -6 -7
-7 -6 8 -6 0 -2 -6 -6
-11 -5 9 -4 1 0 -5 -3
-11 -1 10 -4 2 1 -4 -3
-2 -3 7 -7 -1 -1 -6 -8
-3 -2 7 -7 -1 -2 -7 -8
-4 -4 9 -5 0 1 -5 -6
-7 -4 10 -5 0 1 -6 -4
-5 -3 9 -5 0 0 -6 -5
-6 -5 8 -4 0 -2 -6 -6
-7 -6 8 -4 1 0 -6 -6
-5 -5 9 -4 2 -1 -6 -6
-4 -7 7 -5 -2 -3 -7 -6
-8 -8 7 -5 -1 0 -5 -6
-7 -6 9 -3 1 1 -3 -4
-8 -5 12 1 3 0 -5 -6
-5 -4 14 6 4 0 -8 -9
-6 -6 19 11 9 1 -10 -13
-9 -6 24 20 16 3 -10 -13
-10 -2 25 22 19 6 -8 -12
-6 -2 22 23 22 9 -7 -13
-6 3 21 26 30 17 -1 -9
-9 10 25 35 41 30 11 3
-6 19 23 38 48 40 21 11
-1 27 22 41 57 55 34 20
2 29 19 41 67 72 52 34
12 36 11 38 77 91 75 52
27 52 3 33 85 112 101 73
35 56 -8 20 87 131 123 93
45 63 -20 -13 72 145 150 114
59 78 -38 -61 43 155 179 137
69 84 -52 -102 12 163 204 156
73 92 -62 -140 -19 165 221 171
71 96 -76 -176 -51 163 228 175
66 101 -94 -211 -84 156 228 177
63 103 -114 -248 -122 140 218 172
53 105 -125 -277 -153 116 199 160
44 105 -128 -296 -181 78 161 139
27 93 -124 -306 -207 27 111 112
1 70 -116 -317 -237 -41 42 72
-20 35 -106 -316 -261 -113 -38 14
-33 4 -91 -305 -275 -172 -97 -35
-37 -10 -81 -283 -272 -202 -124 -61
-47 -19 -74 -256 -251 -198 -125 -67
-53 -29 -70 -231 -229 -185 -125 -73
-50 -40 -65 -208 -206 -170 -124 -77
-44 -43 -61 -184 -184 -154 -117 -75
-46 -44 -53 -160 -162 -135 -105 -70
-41 -38 -45 -139 -142 -119 -92 -62
-37 -30 -38 -121 -123 -102 -79 -53
-35 -23 -30 -103 -101 -85 -67 -42
-35 -15 -20 -83 -79 -68 -54 -33
-30 -12 -16 -71 -65 -57 -48 -30
-19 -6 -12 -57 -52 -45 -39 -26
-16 -5 -7 -42 -38 -31 -29 -19
-14 -5 1 -28 -23 -18 -20 -13
-8 -4 4 -19 -14 -10 -14 -11
-8 -5 8 -11 -7 -3 -9 -7
-8 -5 10 -4 -3 0 -6 -2
-5 -4 10 -1 -1 1 -7 -3
-8 -3 9 0 2 1 -6 -5
-7 -1 12 4 6 2 -5 -3
-3 -1 13 6 10 5 -5 -3
-4 -1 14 6 10 6 -4 -2
-3 1 15 8 13 9 0 0
0 0 12 6 11 7 -3 -1
-4 0 14 8 12 9 0 1
-5 3 13 9 10 10 0 1
-2 1 10 8 8 7 -3 -2
-1 1 11 11 10 6 -3 -1
0 2 9 11 11 6 -3 -4
2 3 10 13 13 7 -3 -3
-4 4 13 16 19 11 0 0
0 3 11 13 17 10 -2 -2
1 5 11 13 16 11 -1 -2
1 8 13 13 17 14 1 2
3 8 10 11 15 12 0 0
2 6 13 13 15 14 2 1
1 4 14 14 16 13 3 3
1 6 15 16 18 14 3 5
4 7 14 17 18 12 2 4
-3 0 14 18 19 11 1 1
-3 -1 13 16 20 10 -1 1
1 2 13 16 20 13 1 1
2 1 12 15 19 14 1 1
6 3 13 14 19 15 2 3
1 5 15 16 19 18 5 5
-2 5 16 17 18 17 6 6
2 7 15 17 18 16 4 6
2 3 12 15 17 12 2 4
2 4 12 17 18 12 3 3
-1 4 16 21 21 15 4 5
-1 3 15 19 22 15 3 5
2 3 15 18 20 15 2 3
2 2 13 16 20 16 4 2
1 2 14 17 20 18 6 5
2 6 16 19 22 19 7 7
-1 4 15 19 19 18 6 7
6 7 13 18 18 16 4 5
4 9 16 22 22 18 6 8
-1 5 16 24 25 19 6 6
6 7 13 23 22 17 3 2
2 6 13 23 23 18 2 2
1 3 16 24 25 19 4 3
4 6 15 24 24 20 5 4
5 6 13 22 21 19 3 2
2 6 14 24 23 21 6 5
7 6 15 25 24 22 8 7
7 5 13 25 23 20 6 6
5 8 15 28 26 22 8 7
2 7 16 30 28 22 8 6
4 6 15 28 26 19 4 3
5 7 15 27 26 19 3 1
5 6 13 25 25 18 1 -1
5 5 15 27 26 21 3 1
6 5 14 26 25 21 4 2
1 4 14 26 26 22 5 4
2 8 15 29 28 23 7 6
2 8 15 31 28 24 7 6
2 7 12 30 28 23 7 5
6 9 13 33 30 24 8 5
7 9 13 32 31 24 7 3
7 12 12 32 31 22 3 1
5 8 14 33 32 23 5 0
2 7 14 33 32 24 5 2
2 11 15 35 33 26 6 4
8 11 13 34 30 24 4 3
9 10 11 33 29 24 4 2
8 11 11 35 31 26 6 4
5 8 13 39 34 27 8 6
12 11 13 39 36 26 9 4
8 13 14 41 38 29 8 4
6 12 15 44 40 30 8 4
10 11 14 44 41 29 7 3
9 12 14 45 42 31 8 5
9 13 15 46 43 34 9 6
9 11 16 48 44 35 11 7
9 10 15 46 43 32 10 6
12 13 15 49 43 33 9 7
10 14 16 52 47 35 12 9
4 14 16 54 50 36 12 8
12 15 15 54 51 35 10 6
12 12 15 57 52 35 8 4
11 16 16 58 55 36 10 5
14 19 18 61 59 41 13 9
13 16 18 62 60 42 14 9
14 17 17 63 59 42 14 9
16 16 17 62 59 41 13 8
12 14 17 66 61 43 14 9
15 19 17 68 64 44 15 8
13 17 16 71 66 44 13 9
14 14 14 70 64 41 10 6
14 15 15 73 67 43 11 7
12 18 15 75 70 45 13 7
16 20 16 75 71 47 13 8
19 18 16 75 71 47 13 9
16 17 16 76 70 47 14 10
16 22 16 76 71 48 15 11
16 20 14 75 68 46 12 9
19 17 15 77 70 46 13 8
19 19 15 80 73 48 14 9
14 18 16 81 74 46 13 7
16 20 15 80 74 46 11 9
19 19 13 81 74 47 12 8
22 20 12 79 72 46 11 7
24 23 13 81 73 47 13 9
18 21 12 81 73 49 14 12
21 22 12 81 73 49 15 13
25 26 13 82 74 50 15 14
23 25 13 82 74 48 15 13
27 25 11 81 73 47 12 11
24 23 12 81 74 46 12 12
21 22 13 82 74 45 11 11
22 22 11 79 73 44 10 8
19 21 11 78 70 43 9 9
25 25 12 77 68 42 10 10
22 26 11 77 69 44 11 9
21 24 11 76 68 44 12 10
24 24 13 76 67 43 13 13
22 24 11 75 66 42 13 12
21 26 12 74 66 42 13 12
22 26 10 71 64 41 12 13
18 23 10 71 63 40 11 13
20 25 9 67 60 39 11 11
19 26 9 64 58 38 13 12
19 23 8 60 53 35 12 11
17 24 11 60 54 38 15 12
17 24 13 60 53 39 17 15
18 25 12 57 49 35 16 14
18 26 10 55 48 35 17 14
15 21 10 53 46 34 17 14
14 22 11 51 45 33 16 13
12 21 9 48 41 29 12 11
10 20 8 44 39 29 14 10
8 20 11 44 40 32 18 13
8 16 9 39 34 29 17 13
8 14 8 36 31 27 16 12
5 15 10 35 31 28 19 14
9 16 8 33 28 25 17 12
14 17 8 32 28 24 17 13
8 15 10 31 27 24 18 13
3 17 10 30 27 24 17 12
9 19 8 27 25 23 14 10
7 17 8 25 24 23 15 9
4 16 9 24 22 21 14 9
7 17 7 19 18 17 11 6
4 14 7 17 15 17 12 7
5 14 8 17 15 18 14 7
3 13 7 17 13 15 11 5
4 12 7 17 13 14 10 7
6 11 9 18 14 15 12 7
6 9 7 17 14 14 11 7
9 11 8 16 13 14 9 8
8 16 8 15 13 15 10 8
8 15 8 14 12 14 9 7
4 11 6 12 9 12 7 5
0 9 5 10 6 10 6 4
1 7 5 11 6 11 8 4
2 10 6 12 5 10 6 3
1 7 6 13 6 10 7 4
2 7 6 12 6 9 7 3
4 9 7 12 8 9 6 3
1 7 7 11 8 10 6 2
3 7 7 11 8 9 6 3
3 7 6 10 6 9 6 3
5 5 5 7 4 8 5 2
7 8 5 6 2 7 6 3
1 7 5 7 2 7 7 1
0 9 4 6 1 6 5 1
0 6 6 8 3 5 5 3
-1 3 6 9 4 5 5 2
-1 5 7 10 5 6 5 1
-2 4 5 9 5 6 3 1
1 6 5 9 4 5 3 0
3 6 5 10 5 7 3 0
0 5 7 10 6 8 5 2
2 8 5 8 4 8 5 3
3 8 7 12 5 9 6 5
-1 8 6 11 5 8 4 4
3 9 5 11 4 6 3 4
2 9 6 12 5 7 4 4
0 8 6 11 5 5 2 2
0 8 7 13 6 6 3 2
2 5 7 12 6 6 3 3
5 6 7 12 8 9 4 4
4 7 8 13 8 8 4 4
0 9 7 12 6 8 5 3
2 10 6 13 6 8 5 3
4 9 6 13 7 8 5 4
4 11 6 13 7 7 4 3
4 13 6 14 9 9 4 4
1 10 6 14 9 8 3 1
2 12 5 14 10 8 3 1
2 10 5 14 10 9 3 2
1 9 6 15 11 10 4 3
1 11 6 15 11 11 4 3
-4 11 7 17 11 12 7 4
5 9 7 17 10 11 5 5
6 9 8 20 13 13 8 7
2 9 9 21 14 13 9 8
2 9 8 21 15 14 8 7
3 10 6 20 14 11 6 6
4 11 5 19 13 10 5 3
3 10 6 19 15 13 6 5
2 5 5 18 13 13 6 5
-2 7 7 19 14 14 7 7
8 10 5 17 11 12 7 5
