I II V1 V2 V3 V4 V5 V6
-8 -4 -16 -3 -14 -13 -2 -1
11 22 -11 3 -8 -6 6 -3
6 17 -11 1 -9 -4 3 -4
-5 0 -12 0 -11 -8 0 -4
-7 -3 -9 0 -10 -7 -1 -5
-7 -1 -2 9 -9 -6 2 -6
-6 6 -10 -7 -10 -8 0 -13
-8 5 -9 -5 -9 -9 -3 -14
-10 0 -9 -5 -9 -8 -2 -16
-11 3 -9 3 -10 -9 1 -18
-13 -2 -9 8 -11 -9 -3 -17
-16 -11 -4 12 -10 -10 -5 -12
-16 -16 -6 3 -10 -10 -3 -9
-21 -15 -2 -8 -13 -11 -8 -9
-19 -6 -2 -1 -14 -14 -9 -15
-9 4 -2 -8 -11 -10 -6 -11
-4 3 1 -5 -6 -4 -1 -5
-1 11 4 -4 -4 -1 3 -11
-6 5 1 -4 -8 -7 -3 -16
-9 -2 4 3 -8 -4 -2 -11
-7 -3 2 3 -8 -9 -3 -8
-5 -2 2 -5 -8 -10 -2 -9
-7 -1 0 -3 -6 -7 1 -3
-9 3 -4 1 -9 -10 -2 -14
-10 -2 1 6 -9 -8 -3 -17
-9 -6 6 11 -9 -8 -2 -16
-11 -2 5 5 -10 -7 -5 -18
-12 -5 1 5 -9 -7 1 -15
-12 -2 2 -1 -11 -8 -4 -15
-11 -7 2 -6 -9 -3 -4 -17
-6 -3 4 -9 -7 -5 -2 -9
-7 0 1 -8 -9 -4 -2 -9
-5 7 2 -3 -9 -4 -5 -13
-14 3 2 -8 -14 -12 -10 -9
-15 -6 0 -6 -15 -12 -10 -17
-13 -5 4 1 -11 -6 -6 -14
-10 -4 7 10 -8 -4 -4 -17
-13 -10 7 10 -9 -5 -3 -14
-22 -21 4 4 -11 -9 -5 -18
-25 -22 1 -6 -11 -10 -7 -14
-20 -13 5 -1 -12 -11 -7 -3
-12 -1 4 5 -11 -8 -7 -9
-14 0 1 10 -13 -10 -9 -19
-23 -7 0 10 -18 -13 -13 -20
-25 -10 0 8 -17 -13 -11 -19
-18 -16 6 8 -11 -6 -4 -2
-4 -3 12 5 -6 -2 2 -2
-1 11 12 -7 -9 -4 -3 -1
-8 -3 9 -5 -9 -1 -3 -6
-8 -4 8 0 -7 -3 -1 -9
-8 1 5 -2 -8 -5 1 -14
-9 -2 3 2 -8 -1 -3 -13
-12 9 -2 -5 -12 -9 -9 -18
-15 1 1 0 -11 -11 -9 -15
-15 -2 2 6 -10 -10 -8 -9
-15 2 3 -6 -10 -11 -9 -14
-12 1 5 -2 -8 -6 -7 -9
-15 -2 1 13 -9 -5 -5 -11
-19 -6 0 1 -9 -5 -6 -7
-14 -7 3 -5 -5 -1 -2 -6
-12 4 5 -4 -8 2 -3 -9
-12 1 6 5 -6 -2 -2 -9
-12 -4 1 7 -4 -5 1 -9
-18 -11 -1 13 -5 -4 1 -10
-18 -16 1 7 -3 -2 1 -7
-18 -10 1 7 -3 -2 1 4
-13 0 1 -1 -4 3 -2 -7
-11 6 1 -5 -5 -3 -4 -10
-11 1 -1 0 -4 -3 -2 -7
-11 5 -1 4 -4 2 -3 -11
-19 -7 -3 -6 -6 -5 0 -12
-21 -8 -1 0 -7 -8 -3 -6
-11 12 -1 7 -8 -8 -3 -10
1 18 2 3 -1 2 4 -4
0 15 2 5 0 4 2 -4
-5 11 3 1 -1 1 2 -9
-7 5 3 1 -1 -1 3 1
-7 0 3 0 0 -1 4 0
-7 2 2 15 0 1 4 3
-9 0 2 10 1 3 5 4
-7 4 4 11 -1 -1 2 -2
-6 3 -2 10 -1 2 4 5
-9 0 -2 4 1 2 5 2
-11 -6 -5 -2 -1 -1 0 -7
-12 -7 -2 0 -2 0 -1 -8
-11 4 -3 -2 -2 4 -1 -6
-6 13 -3 -3 -2 0 4 -8
-6 11 -2 0 -2 -2 5 -11
-12 11 -4 1 -3 1 -1 -11
-17 7 0 12 -3 -3 -2 -10
-18 -4 0 9 -1 -5 1 -7
-9 3 -1 9 3 4 6 -3
8 20 2 12 7 3 9 0
5 25 0 23 3 -2 4 -4
-1 10 1 13 2 -2 5 -5
3 11 3 1 3 2 6 0
6 15 2 0 4 1 6 0
-7 3 0 4 3 -2 4 -2
-11 -3 1 8 3 -4 3 -2
-9 2 1 9 3 1 4 -5
-5 5 0 7 6 2 6 -4
-2 16 -2 5 3 1 3 -4
0 15 -1 14 2 2 8 -4
-5 -2 0 16 3 -2 8 -1
-7 0 0 15 2 -4 4 1
-5 7 -3 9 0 -7 1 -7
-8 10 -3 7 -2 -6 2 -3
-10 9 -2 6 0 -3 5 -5
-12 -2 -1 6 0 -2 2 -9
-12 -3 0 6 0 -2 3 -4
-7 2 7 8 2 -1 4 2
0 12 6 13 3 -3 5 -4
2 15 1 10 2 -1 5 -6
-2 16 -2 5 -1 -5 3 -7
-10 10 -4 6 -3 -12 -3 -9
-5 4 1 4 0 -5 4 0
-1 8 4 2 2 1 10 1
-4 9 6 3 1 1 7 2
-8 3 3 7 1 -3 2 -6
-9 1 6 4 0 -9 2 -9
-10 2 2 8 -1 -9 1 -8
-5 7 1 8 0 -2 2 -4
0 8 3 11 4 1 5 0
0 11 2 3 3 3 4 4
1 9 7 10 4 -2 7 -1
1 6 11 17 4 -3 8 2
1 7 9 12 4 -4 8 0
-7 3 4 0 0 -8 1 -3
-9 -1 -2 11 -1 -5 -2 -8
-8 8 -1 4 -2 -5 0 -6
-5 9 3 -5 0 -9 5 -7
-6 1 2 -1 2 -6 3 -5
-6 11 0 6 -3 -8 1 -4
-2 20 -2 14 -3 -11 -2 -6
4 23 -1 10 1 -7 -1 -10
1 14 0 8 2 -5 1 -4
-4 -3 5 11 6 0 5 -1
-7 -3 4 11 5 -1 2 -2
-8 5 3 9 2 -7 3 -6
-6 0 4 10 5 -5 8 -5
-8 4 1 1 2 -5 4 -7
-7 6 0 6 0 -10 -1 -3
-4 10 3 8 -1 -12 -1 -8
-7 11 0 19 -1 -9 -3 -7
-8 4 4 27 1 -4 -1 -7
-9 3 7 8 1 -9 1 -9
-10 -1 10 1 0 -8 0 -8
-11 0 4 13 -1 -7 -3 -5
-14 -11 5 16 1 -5 -1 -4
-11 -4 3 3 -1 -5 0 -4
-6 14 1 -3 -2 -9 0 -5
-4 15 1 -3 -1 -12 -2 -9
-8 4 -2 1 0 -10 -1 -8
-1 5 7 5 5 -3 3 6
-2 3 9 6 5 -5 3 8
-4 2 8 5 3 -7 1 1
-3 7 5 9 5 -6 2 2
4 11 7 10 6 -4 3 6
3 10 9 10 5 0 3 7
-1 13 9 4 1 -3 2 -1
-1 9 4 8 3 -3 3 0
-1 5 4 15 5 -2 4 -1
-5 1 6 8 3 1 3 -2
-7 -1 4 11 3 0 1 -2
-7 2 2 11 2 -5 0 -5
-3 6 5 14 2 -6 0 -5
-4 -3 8 4 5 0 3 2
-6 -1 4 3 3 -4 3 -5
-4 6 5 3 1 -7 0 -7
-4 8 3 3 1 -9 -1 -5
-5 4 3 5 1 -9 1 -1
-4 1 7 4 4 -7 4 5
-4 0 4 4 2 -3 3 4
0 14 1 -5 -3 -7 -1 -9
-3 12 3 -1 0 -9 1 -1
-6 12 0 2 -2 -10 -3 -8
-6 14 -2 1 -4 -6 -6 -5
-4 9 1 -2 0 -6 -3 -4
0 -2 12 5 7 6 4 7
-1 3 7 14 3 -5 2 9
-3 4 5 11 3 -8 3 0
-4 1 6 13 3 -9 1 0
-2 -1 2 7 2 -9 -1 -2
-2 2 2 4 1 -9 -2 -4
-3 1 4 15 2 -9 0 -5
-3 3 5 15 0 -8 1 -1
-5 3 9 8 1 -9 9 -4
-4 3 5 7 1 -9 7 1
-4 3 5 5 0 -11 1 -3
-3 2 7 5 2 -7 4 1
-3 4 5 9 3 -8 6 0
0 12 6 4 2 -10 1 4
-2 29 3 -2 -3 -13 -6 0
-6 14 9 4 1 -4 -3 1
-2 16 14 10 5 -1 5 4
7 25 14 11 8 0 5 1
3 17 15 19 10 2 5 -1
0 12 14 14 9 -4 5 5
-3 5 13 24 9 -3 6 3
-1 12 13 23 8 -1 9 3
1 22 14 16 7 -4 10 8
0 14 22 16 8 -2 10 9
1 14 16 13 7 -2 6 4
2 12 19 17 10 -4 9 12
3 16 21 19 11 -1 11 16
0 10 17 26 11 3 11 4
-5 5 13 17 9 -3 9 2
-6 6 8 16 5 -9 4 4
2 13 6 15 7 -7 6 9
5 15 9 9 8 -1 8 7
7 24 4 18 6 -1 5 3
6 27 2 8 5 -5 7 7
7 13 7 9 11 -4 15 7
11 20 6 17 12 -3 14 10
13 28 4 10 11 -2 10 5
12 27 6 17 11 -1 10 6
10 19 7 24 11 -3 13 11
7 19 3 20 9 -3 10 16
8 17 7 15 10 -4 10 14
9 18 3 21 9 -7 8 12
8 15 1 9 5 -11 6 11
5 9 0 -1 5 -11 6 11
7 16 -3 -4 2 -13 5 8
8 16 0 6 2 -11 6 1
8 9 8 3 3 -10 5 4
7 14 0 -2 3 -12 4 2
7 21 0 13 2 -14 2 6
7 19 3 14 4 -13 4 6
5 2 7 8 9 -7 11 12
5 12 6 6 5 -9 5 7
2 5 10 15 5 -3 5 9
1 8 4 17 1 -10 2 11
-1 11 7 14 1 -13 4 8
0 12 6 15 2 -17 2 8
0 9 8 10 1 -15 3 9
0 8 5 6 0 -13 0 4
-2 9 7 12 -2 -14 0 4
-3 4 9 24 0 -17 0 3
-4 -4 7 16 0 -15 0 4
-5 -5 6 9 -1 -15 -1 6
-4 1 9 5 -1 -19 -1 5
-3 4 5 0 -3 -23 0 9
-3 1 7 -1 -3 -22 -2 8
-5 2 5 -1 -5 -19 -4 -4
-7 -5 8 2 -4 -16 -1 -3
-6 -3 11 12 -3 -20 -4 4
-4 0 8 11 -4 -20 -3 -1
-2 4 8 11 -4 -19 -5 1
2 2 15 8 0 -19 -1 7
2 -2 13 9 2 -17 1 10
-1 1 8 3 0 -20 -1 8
-5 -6 8 3 -1 -23 1 3
-6 -3 8 7 -3 -22 -1 6
-5 -5 9 6 -2 -21 -4 5
-6 -6 12 1 -1 -20 -3 0
-5 0 8 0 -2 -21 -3 1
-4 -1 8 5 -1 -19 0 11
-1 5 7 6 -1 -22 -1 11
3 5 11 9 2 -19 5 7
1 3 12 14 3 -17 5 10
-5 -1 7 11 0 -17 -1 5
-7 -7 8 11 1 -18 -1 3
-9 -10 5 11 1 -20 -2 13
-9 -4 7 2 -2 -22 -3 3
-11 -8 8 14 0 -16 -3 9
-7 -11 7 18 3 -14 2 4
1 3 13 7 5 -14 7 8
1 6 22 17 7 -12 6 4
-1 13 22 25 12 -7 5 5
1 30 25 31 17 -1 11 15
-8 20 25 27 21 3 14 22
-12 8 29 27 25 1 15 17
-10 16 31 29 28 5 16 11
-6 11 34 37 36 16 24 15
1 20 37 56 49 27 33 29
9 39 48 79 67 44 41 32
21 40 64 97 92 62 54 32
33 38 75 119 116 82 68 36
39 26 87 158 142 105 82 44
46 30 99 178 161 128 99 52
67 45 83 145 162 135 108 60
76 53 59 83 156 139 116 79
80 57 35 43 155 144 120 82
90 71 -8 15 158 156 127 87
106 99 -85 -25 148 153 131 101
107 96 -146 -68 116 129 114 86
99 56 -171 -94 68 74 76 66
90 19 -177 -106 19 10 30 36
64 -7 -183 -151 -53 -66 -25 0
34 -21 -187 -213 -124 -124 -59 -22
12 -29 -192 -250 -167 -146 -66 -24
0 -25 -195 -256 -187 -152 -65 -22
-8 -25 -185 -236 -185 -154 -67 -13
-17 -35 -163 -199 -166 -143 -66 -19
-22 -38 -136 -163 -141 -127 -63 -23
-23 -38 -113 -122 -120 -112 -62 -19
-20 -46 -80 -84 -91 -89 -51 -24
-18 -45 -57 -66 -69 -71 -40 -24
-16 -39 -39 -48 -51 -57 -31 -17
-8 -23 -25 -29 -37 -51 -24 -14
-3 -23 -14 -19 -24 -41 -15 -11
-2 -23 -12 -5 -17 -34 -9 -7
4 -9 -10 1 -15 -32 -11 -5
18 2 1 10 -6 -27 -2 2
24 11 6 11 -3 -20 4 8
18 13 8 5 -2 -22 0 3
9 6 6 8 -4 -23 -7 7
9 0 8 10 1 -19 -1 9
12 5 11 5 3 -18 -1 6
12 6 9 13 4 -13 -1 3
10 -1 14 20 7 -14 2 7
4 0 13 13 4 -17 4 5
2 3 14 15 3 -19 -1 -1
2 5 14 24 2 -18 -2 0
9 6 10 26 3 -17 2 6
10 12 12 23 3 -14 -2 5
9 18 11 17 3 -16 -3 0
8 15 9 18 3 -13 -1 3
6 1 18 22 7 -14 6 5
6 6 16 22 6 -14 1 5
5 10 11 20 4 -15 1 -1
8 9 15 20 5 -11 2 4
8 2 19 18 8 -11 3 10
5 0 19 19 6 -10 1 13
3 4 15 14 5 -13 0 9
5 4 13 20 3 -17 0 5
3 -2 13 26 5 -16 3 6
1 4 14 20 2 -18 -2 6
-1 5 8 18 0 -21 -3 -3
-2 -3 12 17 3 -15 -2 1
2 4 10 23 3 -20 -2 6
12 18 14 22 3 -17 0 6
21 32 18 31 7 -16 2 6
16 12 24 29 10 -6 4 15
12 8 19 26 8 -7 4 13
9 16 14 19 4 -18 0 8
7 12 12 15 3 -18 0 13
6 12 14 22 3 -16 -1 10
7 17 13 24 1 -19 -1 3
6 14 13 22 3 -14 1 1
6 9 16 28 4 -12 2 3
6 3 18 29 5 -12 3 16
5 -1 20 21 6 -13 2 19
5 1 19 25 6 -15 1 13
1 2 14 19 4 -16 -2 3
0 2 13 20 3 -16 -2 6
3 9 12 21 2 -14 -3 13
8 5 18 24 7 -8 3 13
17 16 21 25 8 -10 4 10
16 17 18 26 7 -7 3 4
6 10 16 23 3 -11 -1 6
3 2 19 25 3 -15 0 11
4 1 20 30 4 -17 0 10
5 -1 21 28 5 -14 4 8
6 -1 19 28 7 -10 5 7
6 -2 22 20 7 -9 3 14
6 2 18 26 7 -9 5 10
3 7 15 26 2 -14 1 13
5 7 15 26 1 -15 0 8
8 10 13 31 2 -14 2 -2
7 6 14 36 4 -11 4 8
5 7 13 26 0 -12 1 11
8 7 14 31 3 -16 1 13
7 7 16 28 4 -14 5 14
4 -5 17 23 5 -10 3 13
5 -5 15 30 3 -11 1 13
8 10 16 30 2 -13 2 6
12 14 15 29 1 -15 5 6
6 6 10 21 -1 -17 0 0
4 1 14 27 3 -14 0 1
5 4 13 25 3 -14 2 6
8 5 15 31 4 -13 5 10
9 5 16 39 5 -13 3 13
4 -2 19 32 5 -6 2 7
4 0 18 27 3 -9 0 15
6 3 16 31 3 -7 0 11
5 1 14 31 3 -4 0 9
5 4 13 27 2 -12 -1 4
9 10 10 24 0 -10 -1 6
8 12 11 31 0 -8 -1 11
10 6 15 37 2 -13 1 15
11 3 17 35 3 -14 3 11
10 0 10 24 0 -10 0 6
2 -12 15 33 3 -7 3 13
1 -13 16 39 2 -13 2 13
1 -5 11 36 0 -16 0 6
2 4 4 27 -5 -13 -5 7
6 12 4 34 -5 -11 0 5
18 12 8 38 2 -11 7 9
17 9 9 32 2 -11 1 9
11 2 5 27 -2 -17 0 12
10 2 4 31 -2 -16 3 10
10 -4 3 34 -4 -16 -1 6
10 2 8 25 -5 -17 -2 6
14 12 3 21 -6 -15 -1 6
17 11 1 29 -4 -14 3 10
21 15 0 28 -6 -16 5 18
16 7 1 27 -7 -16 9 20
5 -4 -5 25 -10 -20 2 17
4 -7 -8 18 -11 -21 -2 13
6 -3 -8 15 -13 -23 -2 9
11 3 -10 16 -13 -24 2 10
16 7 -8 18 -14 -24 0 15
15 5 -9 20 -13 -15 3 17
17 7 -10 25 -14 -17 2 17
18 9 -14 27 -16 -25 -1 20
14 3 -19 24 -20 -28 -3 15
12 6 -19 24 -23 -30 -5 11
16 8 -18 11 -20 -24 -1 14
12 -3 -20 18 -21 -21 7 22
8 -4 -22 9 -24 -30 -2 12
5 -4 -25 4 -28 -34 -5 7
12 8 -22 8 -26 -31 -3 13
17 15 -25 10 -29 -32 -2 10
14 10 -26 13 -29 -29 -4 12
13 3 -22 12 -27 -26 -1 17
10 -3 -23 12 -27 -27 -2 14
12 -2 -28 5 -28 -31 0 16
19 2 -27 4 -26 -30 1 17
14 3 -29 -1 -27 -28 -1 12
13 7 -29 -4 -29 -24 -3 12
11 10 -30 1 -32 -34 -4 12
8 2 -26 0 -28 -28 0 14
10 -1 -25 8 -25 -27 -1 17
7 0 -25 -3 -27 -28 -2 15
7 2 -23 -5 -28 -32 -1 14
10 0 -20 -4 -23 -27 1 17
9 3 -21 -4 -23 -20 6 14
7 3 -19 -8 -23 -23 2 13
2 -4 -21 -7 -22 -17 3 13
-1 0 -20 -4 -23 -20 -2 7
4 5 -16 10 -20 -14 0 8
4 1 -12 6 -15 -13 2 10
3 -2 -7 15 -12 -13 4 16
3 3 -6 11 -14 -10 3 18
2 -6 -1 7 -9 -3 7 22
0 -7 -2 6 -8 -7 4 19
-3 -7 -2 9 -9 -14 3 13
-3 0 0 11 -11 -17 1 6
-1 5 0 -1 -12 -19 0 7
0 -4 5 8 -9 -15 4 12
0 -8 5 10 -7 -12 2 8
-6 -7 6 16 -6 -11 3 7
2 4 11 10 -6 -9 5 13
1 11 9 5 -8 -11 4 5
-4 -1 8 8 -5 -10 2 9
-2 11 4 10 -6 -12 -2 9
1 16 6 11 -6 -12 0 11
1 -1 13 17 -1 -1 5 19
1 -3 17 19 0 -1 9 17
-5 -3 11 12 -4 -9 5 10
-9 -7 9 10 -6 -13 -1 14
-10 -12 10 16 -4 -12 1 17
-12 -7 8 10 -8 -14 0 11
-13 -7 8 11 -9 -15 -2 3
-12 -11 10 8 -6 -11 1 15
-8 -9 13 10 -5 -7 2 20
-5 -4 11 10 -5 -9 0 14
-6 -8 13 5 -3 -9 3 8
-11 -13 11 16 -4 -12 0 7
-11 -10 10 14 -6 -13 -1 10
-7 -8 10 15 -6 -13 -1 11
-8 -7 11 19 -8 -10 -2 8
-7 -6 13 12 -8 -12 -2 7
-9 -6 12 10 -8 -13 -1 8
-7 -8 13 14 -6 -12 2 3
-18 -18 12 10 -7 -14 -2 0
-21 -24 13 -3 -8 -14 -2 8
-16 -9 11 2 -11 -14 -5 4
-16 -8 7 -3 -13 -13 -7 -1
-16 -10 9 -2 -12 -16 -7 0
-12 -9 8 10 -10 -11 -4 8
-9 -1 6 6 -10 -13 -5 -1
-9 -12 11 7 -5 -10 2 4
-14 -16 10 15 -9 -13 -2 7
-16 -21 10 18 -9 -13 -3 4
-12 -12 14 7 -8 -10 0 6
-10 -13 13 0 -8 -9 1 10
-9 -5 8 2 -8 -10 -1 6
-4 1 9 17 -7 -13 -2 5
-8 -1 8 10 -10 -7 -4 9
-13 -8 7 4 -12 -9 -6 10
-16 -10 7 14 -12 -16 -5 2
-7 -10 16 24 -7 -8 4 11
-2 -5 19 18 -5 -5 2 12
-8 -5 10 10 -10 -13 -1 11
-17 -16 12 11 -11 -15 0 11
-18 -24 12 19 -9 -10 4 8
-16 -17 13 13 -9 -7 0 3
-10 -7 14 -3 -9 -9 -3 5
-16 -11 12 -1 -11 -10 -4 4
-21 -21 13 2 -10 -14 -3 5
-18 -26 12 6 -8 -11 -1 10
-18 -21 13 16 -8 -8 -1 6
-17 -11 11 5 -9 -5 -3 5
-19 -10 7 0 -10 -7 -2 1
-18 -13 12 14 -8 -11 -2 4
-15 -6 12 8 -10 -12 -3 4
-14 -4 9 7 -11 -13 -5 1
-13 -6 13 4 -8 -8 -1 7
-11 -11 13 9 -5 -7 0 8
-14 -13 17 9 -4 -8 1 9
-15 -11 11 2 -9 -6 -4 5
-17 -15 8 12 -7 -6 -2 3
-19 -14 8 7 -8 -7 0 8
-17 -15 9 16 -7 -9 1 6
-20 -16 7 10 -7 -6 -1 4
-22 -17 10 3 -7 -8 -1 2
-24 -20 11 8 -7 -11 -1 4
-15 -10 10 7 -6 -9 0 18
-7 -2 13 15 -4 0 2 15
-14 -8 13 5 -5 -1 2 10
-16 -11 10 0 -5 -9 1 0
-19 -7 10 5 -9 -10 -3 -2
-22 -10 8 2 -9 -11 -1 1
-22 -16 6 9 -7 -6 -1 13
-20 -17 6 6 -4 -1 1 11
-18 -16 7 5 -5 -5 3 10
-16 -11 8 4 -6 -5 5 7
-23 -23 5 13 -5 -6 3 11
-21 -28 6 14 -3 -6 2 12
-17 -16 12 11 -3 -7 4 7
-14 -11 12 12 -1 -6 7 12
-15 -8 7 12 -3 -8 3 7
-24 -24 10 11 -3 -6 3 8
-25 -26 7 11 -2 -3 4 10
-15 -10 6 9 -2 -4 5 9
-15 -6 4 1 -3 -7 1 9
-12 3 2 10 -6 -8 -1 5
-8 -5 5 10 -4 0 2 6
-15 -14 7 17 -3 2 3 8
-20 -14 7 9 -6 -6 2 6
-17 -9 6 2 -9 -11 -2 6
-19 -9 3 5 -8 -7 0 6
-23 -14 3 4 -9 -3 2 4
-16 -13 7 6 -4 -2 5 12
-10 0 4 7 -6 -8 2 12
-9 -3 8 2 -3 -1 3 16
-9 -4 8 7 -2 0 5 10
-12 -9 5 9 -3 -6 2 11
-21 -13 0 6 -8 -8 1 15
-26 -23 3 9 -8 -7 0 13
-23 -30 9 16 -4 -8 3 6
-18 -25 16 14 -2 -2 4 9
-14 -10 7 8 -5 -2 4 6
-11 -2 5 9 -6 -1 5 6
-12 1 4 6 -9 -10 3 8
-18 -11 2 -1 -10 -11 2 4
-27 -26 3 7 -7 -11 1 4
-27 -24 3 5 -8 -13 -3 3
-23 -15 3 3 -9 -10 0 1
-21 -14 0 4 -9 -10 1 0
-23 -22 3 9 -8 -9 -1 0
-16 -15 8 8 -5 -9 1 5
-16 -12 10 -1 -6 -7 1 12
-23 -11 -1 4 -10 -13 -2 7
-27 -10 -3 3 -15 -16 -6 0
-29 -19 0 3 -13 -12 -5 -3
-22 -21 5 7 -7 -4 1 6
-15 -9 5 11 -8 -6 1 3
-19 -13 7 8 -8 -7 -1 5
-20 -21 4 1 -6 -7 0 6
-26 -21 0 2 -9 -12 -3 7
-25 -20 2 10 -9 -10 2 7
-26 -19 6 -2 -9 -3 2 11
-26 -30 2 -1 -7 -7 0 8
-23 -24 4 2 -5 -5 2 7
-23 -16 3 -5 -8 -6 4 -1
-24 -15 1 -4 -9 -11 1 4
-22 -24 6 -6 -4 -8 -1 11
-29 -30 2 -6 -8 -6 -4 6
-32 -27 -3 -9 -14 -10 -10 -9
-37 -36 -1 0 -13 -9 -7 -3
-41 -40 -3 4 -15 -16 -10 -2
-31 -31 3 -4 -10 -8 -4 7
-17 -12 7 1 -7 -9 -1 9
-21 -15 3 4 -10 -14 2 1
-17 -20 7 11 -6 -6 6 6
-11 -9 2 6 -8 -8 -3 3
-13 -10 1 -2 -7 -11 -4 5
-24 -22 3 5 -7 -11 -3 5
-31 -28 4 -5 -10 -8 -1 -3
-29 -24 2 -2 -10 -5 -3 4
-29 -18 -1 6 -13 -12 -9 -7
-25 -29 1 13 -8 -7 -2 1
-27 -34 4 7 -6 0 -1 11
-29 -30 1 0 -11 -7 -6 6
-30 -21 -2 1 -14 -14 -8 -5
-24 -24 5 6 -8 -7 -2 4
-21 -19 1 10 -10 -8 -5 9
-24 -22 2 1 -12 -11 -4 -1
-26 -23 1 1 -12 -12 -4 1
-25 -28 1 -2 -10 -11 -1 4
-34 -33 1 -3 -11 -10 -1 -5
-36 -28 -3 -5 -15 -14 -6 -12
-35 -26 -5 -6 -15 -11 -9 -6
-33 -26 -4 -7 -13 -11 -8 -3
-31 -26 -1 -4 -13 -13 -9 -6
-35 -34 -1 3 -12 -12 -5 -3
-36 -27 -7 -4 -16 -17 -10 -5
-33 -17 -8 -9 -18 -19 -10 -5
-36 -22 -8 -11 -17 -19 -12 -6
-39 -37 -5 -4 -14 -14 -9 -6
-31 -31 -2 1 -11 -14 -8 -4
-27 -30 2 -1 -11 -12 -8 -6
-25 -25 2 1 -10 -8 -6 -3
-24 -18 3 -2 -11 -12 -6 -3
-34 -27 0 -3 -14 -13 -11 2
-34 -38 2 -2 -11 -10 -7 8
-29 -24 0 5 -12 -11 -9 -3
-32 -23 -6 1 -15 -14 -11 1
-33 -34 1 4 -10 -9 -1 1
-33 -26 -2 -3 -11 -11 -6 -3
-34 -28 0 2 -11 -11 -8 -3
-32 -25 -3 7 -11 -10 -6 -4
-35 -30 -2 2 -11 -14 -9 -1
-35 -37 -3 0 -12 -16 -10 -7
-35 -40 -2 -4 -9 -14 -9 -1
-41 -45 -3 -3 -12 -12 -7 -2
-38 -43 -4 -6 -11 -7 -5 -2
-30 -36 0 -5 -9 -6 -7 -3
-24 -18 0 -2 -8 -7 -8 -5
-32 -21 -2 -2 -10 -13 -7 -10
-36 -29 2 3 -10 -13 -10 -9
-32 -30 3 2 -8 -8 -9 -5
-33 -24 -1 -3 -10 -14 -11 -7
-26 -19 7 0 -7 -13 -5 -1
-25 -21 1 -1 -8 -13 -3 -4
-39 -38 -2 -10 -9 -12 -7 0
-42 -39 -4 -9 -9 -10 -9 7
-36 -38 -2 -1 -7 -9 -5 -6
-38 -35 -4 -6 -10 -13 -7 -10
-35 -34 -3 -4 -10 -8 -5 1
-34 -28 -5 -2 -10 -11 -6 -2
-38 -30 -5 0 -13 -14 -12 -12
-48 -42 -4 -7 -13 -18 -14 -11
-45 -36 -5 -5 -13 -16 -12 -9
-36 -27 -1 1 -11 -16 -10 -4
-33 -28 0 -4 -9 -12 -7 -2
-36 -30 0 -7 -7 -11 -7 -7
-36 -26 -5 -12 -10 -14 -11 -6
-37 -29 -5 -10 -9 -12 -10 -1
-44 -42 -6 -4 -11 -15 -11 -5
-49 -50 -4 -8 -11 -6 -11 -9
-47 -46 -4 -7 -11 -12 -11 -10
-44 -37 -5 -5 -14 -16 -12 -10
-35 -34 -1 -4 -9 -5 -6 -2
-34 -29 -2 -5 -8 -2 -5 -3
-41 -39 -3 -6 -11 -7 -7 -5
-43 -42 -6 -11 -12 -10 -8 -8
-42 -41 -5 -13 -12 -14 -11 -3
-40 -40 -5 -5 -11 -13 -11 -10
-43 -45 -4 -4 -12 -15 -10 -6
-42 -40 -4 -5 -11 -11 -7 5
-38 -35 -4 -1 -10 -10 -7 -7
-42 -43 -3 -2 -9 -7 -9 -7
-43 -43 -1 -3 -9 -7 -9 -3
-48 -47 -2 -9 -11 -13 -10 -7
-51 -53 -7 -3 -14 -18 -12 -9
-50 -44 -10 3 -18 -17 -17 -15
-54 -48 -8 -6 -18 -17 -17 -17
-51 -47 -7 -8 -13 -15 -14 -11
-46 -29 -4 -12 -15 -18 -15 -15
-43 -29 -3 -1 -12 -15 -13 -8
-31 -27 3 -3 -5 -5 -2 -1
-29 -19 4 -9 -5 -6 -3 -1
-38 -26 5 -5 -6 -7 -6 -2
-41 -26 1 -9 -9 -7 -9 -5
-43 -33 1 -10 -9 -5 -6 -4
-39 -20 -1 -7 -11 -9 -8 -8
-36 -20 1 -5 -9 -8 -4 -6
-40 -34 7 -1 -5 -6 -1 -3
-39 -31 6 4 -5 -7 -4 -9
-40 -31 5 -1 -7 -8 -8 -8
-47 -29 -2 2 -12 -7 -13 -10
-44 -29 2 4 -9 -7 -9 -7
-41 -33 3 2 -5 -5 -4 -3
-47 -31 -5 -12 -12 -10 -10 -8
-45 -35 -11 9 -12 -11 -8 -7
-34 -33 -6 11 -5 -5 -1 0
-28 -25 -7 11 -4 -5 -1 0
-26 -22 -7 -3 -4 -4 -2 -3
-27 -28 -7 1 -3 2 6 4
-33 -38 -4 -3 -2 2 4 5
-36 -27 -9 2 -8 -3 -4 -2
-23 -8 -5 6 -5 5 0 -4
-14 -5 -4 1 -2 5 7 1
-13 -3 -3 0 -1 4 2 3
-11 -2 -5 5 -1 6 2 4
-21 -13 -7 2 -5 0 0 6
-26 -25 -8 -9 -8 -4 0 3
-26 -29 -2 -3 -7 -2 0 -3
-24 -29 -4 -5 -6 -3 -3 -2
-28 -33 -10 -13 -8 -6 -4 -5
-31 -27 -15 -13 -15 -10 -8 -11
-32 -36 -10 -11 -9 -6 -6 -10
-26 -34 -6 -4 -5 5 0 -1
-26 -25 -9 -5 -7 2 -2 -7
-24 -21 -8 -4 -7 3 0 -7
-20 -13 -1 -4 -7 1 -2 -3
-23 -16 8 -6 -4 4 -1 -3
-22 -10 7 -1 -5 5 -2 -3
-24 -12 0 -3 -5 4 -4 -2
-26 -13 -3 -9 -7 -4 -6 -4
-21 -18 -1 -7 -3 -2 -3 -5
-21 -23 4 4 -3 0 1 -4
-23 -21 2 -4 -5 3 -1 -1
-23 -25 1 -1 -4 5 -2 -10
-26 -26 -3 -4 -7 -4 -5 -8
-31 -29 -3 -14 -9 -7 -4 -6
-30 -25 -3 -12 -12 -10 -5 -6
-33 -22 -8 -14 -16 -10 -8 -14
-32 -26 -5 -11 -15 -11 -11 -13
-24 -20 3 -14 -11 -10 -10 -5
-9 -6 5 0 -5 -4 -2 2
-1 5 7 -4 -4 -1 1 2
1 9 5 4 -3 -1 -2 4
-3 -3 4 -3 -1 4 1 2
-10 -7 -1 -8 -5 3 -3 -6
-17 -13 -1 -7 -8 -3 -8 -9
-18 -15 5 -7 -8 -2 -8 -7
-17 -24 6 2 -5 -2 -3 -6
-20 -11 -1 -8 -9 -7 -8 -13
-19 -13 0 -11 -7 -2 -5 -13
-20 -18 1 -8 -5 0 -2 -6
-21 -27 4 1 -3 0 0 -7
-24 -25 0 3 -6 -4 -1 -14
-21 -25 2 -4 -5 0 -2 7
-23 -27 -2 -7 -5 1 -5 0
-23 -20 -3 -7 -7 -3 -5 -9
-19 -15 2 3 -7 1 -4 -7
-23 -17 -3 -1 -7 -2 -7 -5
-29 -26 -3 -7 -7 -1 -8 -9
-31 -23 1 -10 -9 -3 -8 -16
-27 -21 -1 -10 -10 -4 -9 -15
-25 -14 -4 -8 -9 -6 -8 -18
-23 -8 1 -5 -6 -1 -5 -16
-27 -11 1 -4 -2 2 -4 0
-37 -19 8 -4 4 5 -1 -3
-35 -11 12 2 9 9 2 -7
-36 -7 21 8 11 13 8 -3
-39 -8 24 14 16 24 8 1
-39 -9 18 19 18 26 9 0
-35 -10 19 18 27 30 17 3
-24 0 28 41 45 46 30 10
-19 -4 40 68 62 59 36 11
-5 3 53 92 83 79 47 20
18 25 62 119 105 100 64 28
27 20 81 146 127 120 82 45
37 15 84 135 136 131 90 43
50 18 61 103 130 136 98 62
57 33 34 60 121 137 102 75
59 34 -3 19 120 142 108 71
66 41 -75 -14 117 146 114 75
78 51 -151 -64 98 134 112 76
81 49 -192 -98 57 92 82 59
76 24 -205 -120 5 36 35 35
58 -18 -208 -154 -47 -20 -10 1
27 -43 -216 -198 -111 -81 -48 -34
7 -51 -222 -249 -159 -118 -72 -30
-9 -51 -228 -280 -188 -133 -79 -29
-25 -53 -214 -262 -197 -141 -80 -39
-29 -53 -191 -218 -184 -131 -76 -44
-29 -54 -165 -183 -158 -113 -67 -36
-42 -63 -142 -148 -137 -98 -65 -38
-48 -64 -114 -115 -114 -81 -61 -42
-48 -64 -81 -90 -90 -65 -52 -36
-49 -73 -59 -69 -70 -43 -42 -25
-45 -58 -44 -53 -56 -37 -36 -23
-30 -43 -30 -39 -42 -28 -27 -14
-25 -35 -21 -19 -33 -17 -18 -14
-28 -35 -22 -13 -29 -19 -17 -15
-31 -45 -20 -13 -25 -17 -14 -10
-30 -43 -16 -15 -22 -13 -13 -9
-29 -30 -17 -20 -23 -13 -16 -16
-28 -26 -17 -16 -21 -14 -15 -18
-30 -31 -15 -16 -18 -10 -12 -14
-33 -37 -13 -7 -17 -8 -13 -4
-29 -29 -12 1 -17 -8 -12 -6
-27 -25 -7 -5 -13 -2 -9 -4
-26 -20 -5 1 -12 1 -8 -8
-23 -22 -2 4 -10 -2 -7 -7
-29 -30 -1 -1 -12 -3 -9 2
-36 -39 -1 8 -12 -1 -10 -8
-38 -41 -2 9 -11 -4 -8 -1
-35 -27 -6 -4 -14 -6 -11 -8
-37 -25 -7 -5 -14 -2 -11 -12
-41 -37 -6 -4 -13 3 -10 -8
-39 -42 0 -2 -9 2 -6 -1
-32 -31 1 -5 -8 1 -7 8
-31 -23 -4 -8 -12 -4 -10 1
-31 -24 -2 2 -13 -4 -12 -4
-35 -30 1 8 -9 -1 -7 -13
-37 -38 3 10 -5 -1 -5 -4
-32 -30 3 4 -4 2 -4 -2
-37 -17 -3 5 -9 -2 -10 0
-41 -16 -6 4 -12 -5 -12 -6
-37 -15 -4 5 -10 -1 -10 -9
-35 -24 0 6 -8 -2 -2 -5
-39 -34 3 9 -7 0 -2 -6
-38 -32 1 2 -9 -5 -8 -9
-37 -28 1 2 -10 -6 -10 -8
-35 -27 3 6 -7 2 -7 -7
-41 -31 1 3 -10 -1 -10 -9
-47 -41 -2 -2 -9 -2 -11 -4
-44 -30 -2 -5 -12 -7 -9 -9
-32 -14 1 2 -9 -4 -7 -6
-21 -14 7 8 -3 3 -3 3
-29 -19 2 9 -5 3 -6 -5
-33 -24 1 8 -6 5 -7 -6
-33 -30 5 4 -4 7 -4 8
-33 -30 5 18 -6 2 -5 1
-36 -32 6 19 -5 0 -4 -6
-38 -34 5 12 -6 -3 -3 -9
-38 -28 -2 4 -8 -6 -10 -7
-40 -37 -1 5 -5 -3 -6 -4
-41 -39 -1 9 -6 -3 -4 -8
-38 -30 -2 1 -7 0 -5 -7
-33 -26 0 -3 -5 5 -6 -2
-32 -27 4 -4 -4 2 -5 -4
-34 -32 6 -1 -5 -3 -5 0
-41 -38 7 3 -6 -4 -8 -7
-42 -33 0 -4 -9 -8 -11 -10
-35 -25 -1 -5 -9 -7 -10 -12
-32 -24 1 1 -6 -5 -8 -8
-34 -22 -1 -11 -6 -2 -7 -8
-30 -23 2 -7 -2 0 -1 -2
-29 -22 0 -10 -4 2 -5 -5
-30 -24 -2 -9 -6 1 -8 -5
-26 -22 0 -9 -5 -1 -7 -6
-26 -21 3 -2 -4 0 -5 -6
-21 -22 2 -8 -4 2 -5 -6
-23 -26 4 -7 -2 3 -3 -1
-28 -27 3 -11 -3 -1 -6 -3
-28 -24 3 -15 -4 -2 -6 -8
-32 -23 0 -16 -4 -3 -8 -13
-33 -27 -1 -6 -3 -1 -8 -4
-24 -18 1 -11 -1 2 -4 0
-21 -18 4 -8 0 2 -2 1
-13 -5 4 -5 1 4 -2 -1
-11 -3 5 -4 0 1 -3 -3
-24 -13 0 -5 -5 -4 -8 -7
-27 -23 1 -12 -3 -3 -5 -4
-20 -20 5 -6 2 1 -2 -4
-9 -3 10 -5 4 7 0 -4
-14 -8 7 -1 2 4 -2 -4
-26 -27 0 5 1 3 -3 -4
-27 -28 1 -3 -2 1 -5 0
-27 -22 -1 -3 -5 2 -5 0
-24 -19 -2 -2 -5 1 -5 1
-25 -22 0 -7 -5 -2 -7 -2
-32 -19 -7 -18 -9 -3 -11 -10
-25 -14 -5 -11 -5 -1 -5 5
-11 -11 3 -6 2 7 2 8
-12 -10 1 0 1 5 1 2
-17 -16 3 -6 0 0 1 4
-18 -21 1 -16 -2 -1 -2 5
-21 -27 1 -8 -1 1 -2 4
-23 -26 0 -10 -1 -2 -3 -2
-21 -19 -7 -10 -3 -4 -4 0
-19 -16 -9 -10 -6 -6 -2 5
-21 -16 -9 -16 -5 -5 -2 6
-27 -20 -11 -18 -10 -7 -10 -2
-26 -23 -4 -15 -8 -4 -8 -5
-19 -13 -10 -18 -9 -5 -8 -1
-14 -10 -12 -14 -7 -4 -4 3
-17 -13 -13 -15 -9 -6 -3 4
-24 -17 -16 -20 -13 -11 -10 -6
-17 -11 -10 -22 -11 -9 -6 1
-7 -1 -14 -9 -10 -3 -3 10
-6 -6 -16 -14 -11 -8 -3 4
-6 -4 -17 -21 -12 -12 -3 7
-6 -1 -20 -21 -15 -12 -3 17
-10 -18 -19 -19 -14 -8 -1 10
-11 -16 -20 -21 -16 -8 -2 8
-13 -16 -24 -25 -16 -12 -5 15
-15 -18 -23 -26 -19 -12 -4 11
-13 -7 -24 -29 -21 -17 -6 0
-11 7 -29 -34 -27 -20 -10 -2
-8 2 -33 -35 -25 -18 -9 2
-7 -13 -26 -29 -20 -12 -2 7
-7 -11 -26 -38 -22 -14 -4 5
-7 -1 -29 -39 -24 -17 -6 11
4 2 -26 -31 -17 -8 -1 14
7 7 -24 -25 -16 -9 3 16
6 5 -24 -22 -16 -8 4 13
-2 3 -26 -33 -21 -9 3 10
-7 3 -30 -32 -23 -14 0 14
-12 -3 -30 -40 -26 -18 -2 12
-14 -3 -32 -37 -29 -17 -6 12
-9 0 -31 -39 -25 -16 1 8
0 11 -26 -36 -21 -14 3 13
4 14 -22 -27 -19 -13 4 18
3 15 -22 -30 -22 -16 0 11
6 9 -18 -23 -16 -5 7 15
5 5 -19 -17 -14 0 12 19
2 12 -24 -29 -18 -4 5 13
1 10 -14 -35 -16 -4 2 20
2 8 -12 -31 -13 -5 5 15
-2 14 -20 -40 -17 -12 1 8
-4 11 -19 -36 -15 -9 -1 5
-5 2 -12 -26 -11 -1 2 12
-5 -6 -9 -20 -7 0 6 17
-6 -4 -9 -10 -6 0 6 14
-8 3 -9 -16 -7 -5 4 13
-12 0 -9 -14 -8 -5 1 7
-15 -6 -9 -14 -5 0 3 9
-11 -5 -4 -19 -3 3 5 14
-1 4 3 -20 1 6 9 11
1 9 2 -14 1 7 8 9
-8 7 -2 -15 -1 4 4 10
-8 14 0 -25 -2 0 3 12
-3 19 4 -17 2 4 7 8
-7 15 4 -12 3 6 7 13
-10 7 6 -7 5 10 8 10
-14 0 6 -13 3 4 9 10
-15 -3 4 -19 4 4 7 13
-19 -7 5 -24 4 6 4 6
-17 -6 7 -24 5 8 8 8
-15 0 4 -12 4 12 7 5
-18 1 3 -13 4 5 1 7
-18 1 5 -12 3 4 2 9
-19 -5 7 -12 4 4 6 9
-24 -10 6 -20 3 3 7 5
-20 -8 7 -9 5 3 6 11
-16 1 4 -20 2 0 2 9
-11 13 3 -20 1 2 4 6
-2 24 5 -16 2 11 6 5
-9 12 6 -13 2 1 7 7
-18 -2 5 -21 -1 1 2 12
-10 7 5 -27 1 6 2 21
-8 7 8 -17 3 1 5 12
-7 0 11 -9 7 7 9 7
-10 -2 11 -9 5 6 6 14
-19 -8 10 -17 1 3 0 8
-20 -11 4 -16 1 0 0 3
-19 -9 3 -13 -1 3 -2 9
-19 -13 3 -13 -1 4 2 16
-12 -1 7 -24 3 3 4 12
-2 14 13 -14 3 8 4 13
0 10 13 -13 6 9 6 9
-8 5 10 -21 1 4 4 2
-8 10 6 -17 1 -1 0 8
-3 6 10 -16 5 4 6 12
-10 -3 10 -21 4 5 5 13
-18 -7 7 -24 -1 0 2 7
-15 -6 8 -20 0 3 2 5
-12 0 2 -24 -3 -1 1 11
-12 -2 7 -20 -2 -2 0 8
-12 1 12 -14 0 0 1 6
-9 5 7 -21 -1 -2 -1 4
-10 4 8 -17 -2 -5 -2 6
-12 -4 10 -11 -1 0 1 7
-10 -7 10 -16 1 8 2 7
-1 1 11 -9 4 11 6 14
-6 4 10 -10 3 6 8 13
-9 8 8 -13 3 2 12 8
-6 13 8 -3 2 2 6 10
-6 8 9 -10 4 2 4 16
2 14 12 -14 5 5 6 13
-2 11 9 -15 5 7 7 11
-9 11 6 -8 1 5 2 7
-5 5 6 -12 1 3 2 7
-5 4 9 -18 5 4 3 15
-6 10 8 -20 2 3 1 1
-10 11 2 -19 -1 -2 -1 -3
-15 1 3 -22 -1 -1 0 2
-18 -6 3 -24 1 -3 0 8
-14 -6 6 -16 4 2 6 10
-9 4 6 -17 2 4 6 11
-5 9 6 -14 2 3 8 6
-3 7 11 -8 4 5 9 12
-1 2 13 -7 6 4 12 21
-7 5 13 -14 5 3 11 14
-11 6 10 -10 3 1 5 15
-11 -1 8 -7 5 2 6 17
-12 -1 10 -12 6 7 9 19
-9 4 10 -13 6 9 10 14
-10 5 6 -9 3 4 9 10
-16 1 5 -11 1 -1 5 4
-14 -4 8 -3 4 -1 6 5
-14 -1 5 -10 4 -1 4 8
-9 1 9 -13 6 1 6 8
-8 1 14 -10 9 6 11 14
-5 12 6 -10 6 7 7 12
2 10 11 -4 11 10 13 16
-5 6 9 -1 8 6 10 15
-12 6 0 -15 3 -2 6 12
-7 8 6 -8 5 2 10 15
-4 15 7 -3 4 -2 6 13
-3 16 6 -8 6 1 8 14
-1 22 6 -14 7 1 6 11
3 30 9 -17 7 4 7 14
5 27 12 -16 10 5 12 14
0 6 11 -8 16 12 18 22
-5 4 10 -7 13 15 16 21
-10 10 7 -13 6 5 9 11
-7 -3 6 -7 11 5 13 14
-6 0 5 12 10 8 12 11
-1 11 7 9 11 13 13 13
4 14 13 -2 11 7 12 12
3 14 11 -10 10 3 15 11
-3 10 11 -9 8 2 9 17
-3 12 10 -5 8 5 8 12
-3 9 11 2 9 9 9 13
-5 11 8 -9 7 6 8 10
-3 19 7 -14 6 4 8 16
0 18 6 -1 10 6 13 22
-5 5 6 4 9 8 13 13
-3 3 9 -2 8 4 11 19
1 11 9 -1 7 4 11 16
2 8 11 -3 9 9 12 16
2 11 13 0 7 9 12 18
0 7 10 -3 7 4 12 20
-2 8 10 -8 6 1 10 15
-5 6 10 -5 7 2 10 15
-7 -2 11 1 7 1 9 10
1 7 10 13 10 5 14 19
8 20 9 1 9 9 13 22
2 15 11 -5 7 7 11 20
-1 8 10 -1 6 3 10 18
-1 10 10 -7 3 -1 10 12
0 18 8 -7 1 1 8 6
-1 18 6 -4 4 2 8 11
-6 7 5 -3 4 4 7 17
-4 9 8 -6 6 6 8 15
-2 13 12 -6 7 4 9 15
-1 7 8 -3 7 2 10 15
6 8 9 0 9 4 16 19
0 5 12 13 8 3 15 14
-3 11 7 2 4 -1 9 15
-4 7 5 -7 3 0 6 19
-5 3 6 0 4 5 8 12
2 10 5 1 4 6 9 14
15 21 7 -4 6 5 9 13
17 25 17 -2 11 14 15 18
17 18 21 5 11 11 17 19
10 14 14 1 10 7 15 21
6 19 11 -11 6 5 14 22
2 23 5 -7 3 -1 11 9
-2 18 6 1 2 7 8 13
5 18 9 -5 5 9 9 21
10 24 12 -4 5 2 11 17
8 12 14 1 9 5 11 17
4 7 12 -1 10 5 12 18
-1 15 8 -10 2 -1 5 13
2 27 10 -7 2 1 5 19
6 30 7 0 2 0 5 20
5 20 10 3 2 -3 7 13
1 15 9 -1 0 -5 7 10
-2 14 10 -9 0 -3 7 10
3 9 17 11 5 1 12 21
8 25 10 9 5 3 10 17
10 21 15 8 8 4 13 20
13 20 18 11 12 10 16 20
14 24 19 8 10 10 13 16
11 19 18 4 12 11 15 20
14 21 18 1 14 8 19 22
10 27 11 -3 6 5 11 13
12 35 10 -7 3 4 7 12
15 30 15 4 9 6 14 17
12 21 18 9 9 9 17 20
6 11 18 -3 10 5 16 30
0 6 13 -3 9 7 12 29
-1 11 10 -3 5 8 11 21
5 15 11 -3 6 4 18 18
7 20 10 -3 6 5 19 21
7 23 9 -1 2 4 9 18
8 16 16 8 9 6 12 19
9 11 20 10 9 8 17 23
3 12 15 2 6 9 13 16
-7 6 11 4 2 3 9 12
1 6 13 7 6 6 13 14
17 23 17 16 11 16 19 26
18 27 18 7 13 14 17 22
10 13 18 16 11 7 16 19
7 13 17 13 9 7 14 18
4 20 16 1 4 4 8 17
3 14 14 -2 4 7 10 15
3 8 11 11 4 4 10 11
5 8 17 16 6 1 10 25
10 25 20 2 5 1 12 29
14 26 17 0 6 4 12 14
13 29 13 6 4 8 9 16
12 27 13 3 1 3 9 10
7 17 10 15 0 0 8 10
5 18 9 3 3 2 8 12
9 24 11 -2 4 2 8 19
8 24 11 -1 3 3 13 20
9 21 18 4 7 10 16 23
13 21 16 15 8 11 15 17
14 21 16 13 6 9 12 23
12 18 17 9 8 7 15 26
15 20 16 13 9 9 13 18
16 28 16 15 7 9 13 16
10 18 13 11 5 8 11 18
10 16 13 6 5 8 16 15
16 25 15 12 6 5 14 18
15 30 14 11 5 4 12 17
5 23 10 4 0 -1 8 15
-2 17 11 1 -1 -2 11 14
-4 2 13 4 0 0 8 13
-5 2 14 6 2 4 7 15
-1 5 11 6 3 9 7 16
10 16 13 -2 5 5 12 16
5 16 12 1 2 1 9 12
-5 6 9 0 -1 -2 4 9
2 13 10 0 -1 0 12 12
9 15 12 4 4 7 14 18
10 21 11 -1 2 3 9 15
17 37 11 3 2 2 9 14
13 30 11 4 1 1 9 17
3 15 13 6 1 5 9 22
1 8 16 11 1 8 9 15
3 5 16 10 2 11 8 13
12 20 18 6 4 12 10 14
14 19 19 10 6 10 11 19
7 12 15 2 2 7 10 18
9 27 9 0 -1 7 10 11
15 22 13 3 2 12 13 12
11 20 11 2 1 7 13 19
5 8 12 4 1 8 14 24
6 17 10 9 1 9 8 26
8 20 14 10 3 12 13 19
4 11 22 6 6 13 13 29
6 17 22 6 3 9 12 18
5 17 19 19 4 10 15 15
3 18 16 18 3 10 15 18
4 19 16 5 5 12 15 21
7 21 19 5 5 12 13 13
9 33 19 6 4 8 9 17
15 35 22 16 7 15 13 19
17 35 22 10 9 21 15 16
11 30 20 7 8 16 14 21
13 20 24 20 10 13 15 21
8 19 22 19 9 12 14 23
9 33 19 9 5 10 12 19
14 36 20 20 8 13 15 17
18 31 20 17 9 17 16 26
19 32 17 8 9 14 15 20
18 37 12 8 8 17 15 28
15 31 9 18 8 15 18 29
9 24 8 13 8 23 19 23
3 23 6 16 6 19 17 24
2 20 8 18 7 17 16 25
7 25 4 2 8 15 17 27
14 35 12 8 10 16 19 28
22 34 14 25 14 19 20 26
17 24 15 30 14 21 19 25
17 34 11 14 11 17 18 30
15 36 13 20 9 19 16 27
13 36 10 8 7 18 13 29
14 26 5 4 7 17 14 26
14 19 8 11 7 13 18 19
15 17 7 16 5 11 14 15
24 23 13 29 8 16 18 22
18 17 10 18 5 10 19 20
11 15 9 12 3 11 16 19
15 21 10 13 3 14 11 21
16 25 9 16 2 10 15 19
19 23 9 20 3 9 14 20
14 19 13 11 7 13 17 28
9 21 12 9 7 14 15 24
10 20 16 12 8 16 20 22
14 28 16 22 6 17 16 19
10 25 11 13 4 16 12 16
2 18 7 2 -1 9 8 10
0 12 6 4 -1 7 8 17
-6 7 12 5 1 12 10 19
-4 1 17 16 3 11 11 16
0 8 12 8 0 9 8 15
1 9 9 1 -3 8 6 8
-5 7 7 6 -7 8 4 3
-3 11 8 5 -6 2 2 6
2 13 9 6 -3 6 5 17
0 7 10 12 -1 7 10 18
2 7 14 8 -1 12 13 18
7 12 13 16 0 21 14 15
11 15 11 16 1 11 9 17
10 15 15 14 3 9 9 19
2 15 12 11 -3 5 3 7
-2 13 9 9 -3 5 4 5
0 2 14 20 1 15 9 10
1 2 10 16 -2 12 6 12
1 5 9 13 0 10 8 13
2 6 9 6 1 14 7 17
2 10 8 6 -2 12 5 12
4 18 8 6 -3 10 5 13
9 18 12 15 2 14 8 12
6 14 11 13 1 9 6 12
6 11 15 14 2 7 6 14
12 19 16 17 3 8 8 21
13 18 14 22 6 12 10 21
10 13 10 17 4 13 8 17
6 6 10 21 6 12 9 14
8 8 12 18 7 13 11 14
0 13 7 8 3 12 7 13
1 18 6 12 1 9 6 10
6 18 12 19 5 12 8 24
-2 19 18 14 8 13 9 21
-4 17 25 20 17 24 16 24
0 26 29 28 21 28 18 29
3 29 35 33 25 33 22 22
6 28 39 41 31 40 24 26
7 26 37 54 39 42 32 30
8 25 37 58 48 54 39 30
2 28 45 65 60 64 40 25
9 31 53 92 81 79 48 27
23 30 65 113 104 103 63 36
37 39 73 146 126 121 77 44
49 40 96 176 154 143 97 60
76 46 97 167 167 160 108 71
86 50 73 114 159 166 116 74
85 57 49 73 153 167 122 86
93 72 14 38 154 172 128 94
104 84 -50 -2 146 172 133 100
107 85 -115 -35 119 149 119 99
104 71 -151 -73 71 99 88 82
96 44 -161 -102 20 37 45 47
71 7 -162 -126 -45 -29 -9 14
39 -12 -168 -186 -112 -84 -41 -9
12 -15 -175 -237 -159 -116 -57 -21
-3 -16 -179 -254 -176 -116 -54 -16
-9 -13 -179 -235 -175 -116 -53 -14
-12 -17 -167 -203 -165 -115 -57 -23
-22 -28 -146 -168 -145 -101 -60 -24
-27 -33 -122 -133 -127 -94 -59 -24
-19 -33 -97 -97 -102 -78 -50 -20
-8 -28 -67 -66 -77 -55 -36 -17
-5 -30 -48 -47 -57 -33 -29 -17
-7 -25 -30 -36 -43 -21 -23 -8
-6 -22 -15 -19 -31 -18 -18 -6
-1 -16 -14 -16 -22 -12 -8 -3
-4 -8 -14 -13 -19 -13 -10 -7
-4 -6 -9 -4 -16 -10 -6 -4
2 -1 -4 5 -10 -3 -1 -2
7 7 -4 5 -9 1 -3 4
2 3 -3 4 -7 -2 -1 8
6 1 2 5 -4 2 -1 11
7 -1 3 10 -2 6 -1 5
7 7 3 15 -1 4 2 0
5 12 8 15 0 4 3 2
3 14 9 17 -3 4 0 1
4 7 9 25 0 7 2 7
8 7 10 24 4 8 3 13
1 -1 11 22 4 5 6 7
0 1 10 19 5 10 4 4
1 3 9 10 5 13 1 8
10 7 12 15 7 10 5 8
13 13 14 18 10 12 6 8
10 15 13 15 7 9 7 8
9 23 8 14 3 3 3 5
4 15 7 19 1 3 -1 -1
5 9 13 19 6 7 3 8
8 20 16 22 4 2 1 2
6 16 21 25 4 2 3 1
7 2 20 36 9 7 9 13
2 1 12 17 8 7 9 13
-4 -1 11 10 6 6 4 6
-1 7 9 17 2 7 -2 5
0 11 6 17 2 5 -2 4
3 7 12 24 7 9 2 4
12 10 17 35 10 16 7 8
14 13 20 36 10 16 9 10
12 12 17 30 9 12 4 13
6 4 16 23 10 10 4 6
6 6 16 14 8 9 4 8
5 7 14 16 5 9 3 1
2 8 9 16 4 6 0 -2
7 11 10 12 6 7 1 2
-1 -6 10 15 6 7 1 3
-8 -6 12 16 3 4 -4 -2
-4 6 9 18 3 5 -6 -9
0 3 13 22 5 5 -2 -9
7 2 16 28 9 10 5 3
3 4 15 30 11 14 5 6
-2 7 12 25 7 8 -2 -4
3 0 15 24 10 12 2 1
7 -5 16 24 13 15 10 8
12 8 15 24 14 13 9 3
17 13 15 22 14 15 6 4
13 15 13 22 12 11 6 5
10 9 17 30 12 8 6 12
6 1 19 37 11 9 3 8
3 -5 15 34 8 8 2 4
0 -7 15 32 9 4 0 4
-3 -7 20 28 10 8 0 5
-4 -8 12 20 9 12 0 7
-1 5 9 24 6 4 2 1
1 8 7 24 7 4 0 -4
12 15 12 31 12 7 6 -1
16 23 12 30 12 8 7 6
7 9 9 20 10 8 3 8
7 12 11 23 9 10 1 2
10 5 19 30 14 14 5 5
13 4 19 37 15 17 5 8
9 0 17 29 15 13 4 2
5 5 12 31 12 5 2 4
9 6 13 26 14 5 4 9
10 -2 14 28 18 13 5 12
4 -3 9 29 12 10 3 4
3 6 6 28 10 3 -1 1
5 8 6 46 9 3 -2 -3
8 2 6 48 10 4 -1 -6
3 -5 10 42 12 8 -2 -1
-3 -10 10 28 12 11 -2 3
0 -8 8 26 11 5 -3 1
0 -1 7 21 8 2 -4 2
3 2 13 21 11 7 -2 6
15 8 15 32 16 13 5 7
14 11 10 24 13 6 1 7
11 9 10 32 12 5 0 8
11 7 8 34 12 7 0 -2
11 5 10 31 11 4 0 -7
9 4 9 34 11 1 0 -3
10 -1 10 33 14 4 0 2
9 -8 10 40 15 7 3 1
8 -1 5 38 14 6 0 2
5 -2 2 32 11 5 -2 -4
7 -8 8 28 12 4 1 2
7 -8 5 27 13 2 3 0
7 0 0 28 9 -4 1 1
10 6 -3 27 6 -4 -2 0
12 -1 2 34 13 5 2 -1
14 6 -1 25 10 7 -2 2
12 2 -3 23 9 6 -3 -2
14 -3 -3 29 11 0 -1 -1
17 4 -6 43 9 -2 2 2
17 5 -9 27 6 -4 3 1
9 -6 -10 20 4 -6 -2 -2
12 -3 -9 23 5 -2 3 -1
22 14 -6 28 5 -1 3 -1
19 9 -8 28 4 -4 6 8
16 5 -10 29 3 -7 2 6
17 -1 -11 30 4 -8 2 8
18 5 -12 23 2 -5 0 4
24 11 -15 19 2 -5 1 6
21 4 -16 21 3 -3 1 4
20 6 -18 13 -3 -8 -2 4
19 9 -23 14 -6 -12 -2 6
17 -1 -22 17 -5 -11 1 7
21 -4 -19 30 -4 -9 1 9
18 3 -24 20 -9 -19 -5 6
15 5 -27 8 -11 -21 -8 -3
14 2 -27 6 -13 -18 -7 -1
16 -4 -26 15 -10 -13 -3 -2
16 -3 -27 15 -10 -14 -4 -2
9 -4 -29 2 -14 -17 -6 -5
4 -6 -27 -6 -16 -20 -4 -4
8 -6 -25 2 -14 -16 1 3
10 -6 -25 4 -13 -16 -3 12
11 -11 -26 5 -12 -18 -1 4
16 0 -30 2 -13 -18 0 0
20 -1 -23 2 -9 -17 0 0
23 11 -28 5 -13 -19 -3 -1
22 15 -30 8 -13 -17 -1 1
17 3 -29 8 -12 -19 -3 10
10 0 -29 -1 -14 -21 -7 6
6 0 -29 1 -16 -21 -5 3
7 -12 -22 13 -9 -13 -2 8
14 -6 -20 8 -5 -10 0 4
23 10 -20 13 -5 -5 3 8
22 9 -17 11 -2 -8 4 12
14 -3 -13 2 1 -4 6 7
8 -6 -8 8 1 -7 5 8
12 4 -8 2 3 -8 3 1
13 5 -9 2 3 -5 4 0
7 1 -11 5 3 -4 2 0
3 -4 -4 10 4 1 0 3
8 2 -1 9 6 0 0 9
10 2 0 11 7 -4 1 2
7 2 -3 9 5 -3 0 0
6 2 -1 13 5 1 0 -3
9 5 3 14 8 2 4 -2
7 6 3 16 8 -1 1 -4
4 4 6 13 8 -4 1 -6
7 0 6 14 10 5 4 1
7 3 5 19 10 4 5 5
7 11 6 8 6 -1 -2 -5
9 13 8 9 6 1 -3 -3
7 4 4 19 6 -2 -4 -7
3 2 7 22 4 -5 -3 -2
4 6 7 20 2 0 1 -6
0 -10 10 9 6 3 2 -3
-2 -8 15 12 6 1 -1 4
5 -3 12 17 9 1 4 7
6 8 11 12 5 -2 -2 -1
3 5 7 11 2 -5 -4 -16
5 10 6 9 1 -4 -7 -13
5 2 10 10 5 1 0 0
4 -3 11 9 6 0 1 0
6 4 10 8 4 -2 -1 -2
-2 0 8 0 1 -11 -5 -5
-2 1 6 1 1 -11 -7 -4
2 -4 10 5 5 -5 -3 0
0 -8 7 12 5 -6 -2 -1
2 -5 8 14 5 -5 -3 -8
2 1 10 20 4 0 -3 -5
4 0 10 10 4 -1 -1 -10
4 -7 8 6 6 1 -2 -6
4 1 9 8 5 1 -3 -8
1 8 8 8 0 -4 -4 -6
2 4 10 8 1 -5 -3 -1
5 -1 12 11 7 1 -2 -3
2 -5 15 8 4 0 -3 -10
-3 -4 7 9 1 -4 -7 -11
1 -3 7 8 4 -2 -4 -4
3 0 7 12 5 -2 -3 -12
-4 -7 8 10 3 -4 -4 -15
2 10 5 10 1 -8 -10 -12
17 17 14 18 6 -1 -2 -2
7 7 9 8 3 -5 -3 -7
-1 0 6 -4 -2 0 -5 -14
-7 -9 9 1 1 -3 -4 -12
-8 -8 6 6 -1 -4 -6 -13
0 -10 10 11 1 -5 -7 -6
5 -6 12 7 6 4 -1 2
2 1 9 3 4 2 -2 -10
0 1 6 5 2 -1 -5 -5
-2 -4 6 4 2 -2 -3 -5
0 2 6 -4 2 -7 -4 -10
-3 -6 11 -1 3 -6 -1 -10
-10 -17 5 3 0 -8 -6 -13
-5 -2 6 7 -2 -9 -9 -14
6 10 10 11 3 -4 -4 -6
10 11 15 16 6 -3 -1 -2
2 3 6 14 3 -3 -3 -13
-6 -15 9 9 4 1 -1 -8
-2 -12 7 1 5 -1 -2 -10
10 4 12 9 9 0 1 -1
9 12 6 9 7 0 -2 -4
-4 3 3 12 3 -4 -4 -15
-10 -19 11 6 7 1 -1 -5
-12 -16 6 1 2 -7 -6 -6
-8 -1 4 12 1 -8 -6 -15
-2 5 7 9 4 -5 -4 -9
2 10 6 7 4 -5 -6 -13
3 3 8 16 6 -3 -3 -7
5 9 8 11 6 -1 -1 -10
7 18 5 11 4 -4 -4 -8
6 8 4 14 6 5 2 2
10 7 12 11 11 5 8 -4
14 15 15 15 10 -1 4 1
12 18 10 12 7 -2 2 0
0 9 7 12 4 -3 -3 -6
-1 2 10 8 8 5 2 -4
1 2 5 6 9 6 1 -6
3 1 6 12 11 8 3 -3
3 3 5 5 11 1 5 -5
3 5 3 7 9 3 2 -1
3 -1 4 13 11 3 3 7
-7 -7 6 15 10 2 3 -1
-7 1 3 9 7 -2 0 -10
0 0 11 12 11 6 3 -10
0 4 9 5 10 1 2 -5
-1 3 6 5 8 -2 1 -1
-1 5 6 8 8 1 3 2
0 7 7 15 7 -3 0 -4
1 -1 5 21 10 0 4 -4
3 -6 6 12 13 3 6 3
7 4 5 6 12 3 5 -2
6 1 8 10 13 4 7 0
3 -4 10 8 11 -1 7 -2
5 2 10 13 14 1 7 0
11 11 9 10 15 2 10 4
14 10 10 7 15 6 8 8
9 8 10 8 13 4 6 14
7 5 8 12 10 4 5 11
4 8 2 3 6 -3 1 -3
3 2 0 12 7 -1 0 -4
-1 3 -1 9 6 -2 -1 -6
-3 7 2 5 4 -7 -2 -3
-3 -11 7 11 10 -4 3 7
-3 -10 8 15 11 0 4 0
4 -2 12 13 14 5 9 -2
6 6 14 14 15 1 7 0
3 8 7 11 10 -2 2 -3
-3 1 4 11 9 -4 2 -3
-8 -1 2 8 5 -6 0 -6
-6 7 3 3 3 -7 -1 -1
2 7 7 9 9 -4 3 7
14 20 9 18 11 -1 5 -2
18 16 12 21 14 -1 7 -1
8 4 11 24 13 5 5 2
9 4 11 16 15 9 10 0
0 -6 7 10 12 3 7 1
-13 -16 3 10 9 -6 1 -3
-12 -5 0 0 5 -8 -3 -10
-7 -9 2 0 6 -3 -1 -1
1 -3 8 2 9 0 2 -3
10 8 14 19 13 4 9 4
7 13 2 7 7 0 8 -1
4 4 3 14 8 1 3 -4
4 -4 5 10 10 -2 4 -2
-3 -15 10 2 7 1 6 -2
-5 -11 10 -2 6 -7 2 3
-3 -8 7 5 8 -6 2 5
-1 -12 8 9 9 -1 4 -3
0 -2 9 5 6 -4 1 -7
-3 -3 7 1 4 -8 -2 -3
-3 0 0 1 4 -10 -1 -8
-3 -2 3 8 7 -6 1 -1
1 -8 5 9 7 -1 1 -3
10 4 6 7 8 1 4 -1
20 16 10 9 11 4 6 6
12 9 8 12 11 -1 5 10
9 2 8 11 10 -3 2 -1
-1 -9 2 3 7 -6 0 -1
-10 -6 -3 4 1 -11 -6 -3
-10 -15 -1 7 4 -7 -3 2
-3 -15 5 -2 5 -3 -2 -3
3 -7 6 4 8 -4 1 -3
5 6 1 2 5 -5 -3 -4
2 5 3 1 7 -1 -1 -1
5 6 8 11 12 2 6 1
1 3 12 12 12 4 6 -6
-1 0 11 7 9 4 2 -6
-9 -7 3 -2 8 -1 1 -1
-10 -7 2 -2 6 -5 0 -2
-1 -3 7 -2 7 -5 1 -4
-2 -4 9 1 7 -3 2 -8
-3 3 2 -4 3 -3 -1 -11
1 2 2 -5 5 0 0 -4
1 -1 4 -4 6 -2 -1 7
-2 0 5 -2 8 -4 0 9
-2 3 6 -2 8 -3 0 0
-5 -5 4 -2 5 -5 -1 -2
-8 -12 3 6 7 -2 1 -7
-2 -8 5 2 7 -2 1 -2
-1 -5 7 1 7 -3 2 1
-7 -6 3 -1 4 -5 -2 1
-8 -6 0 4 3 -4 -4 -4
-8 -5 5 6 2 -8 -5 -7
-9 -11 3 3 3 -4 -2 2
-9 -9 3 2 4 -5 1 -7
-6 -12 4 3 4 0 0 -7
-7 -14 6 4 6 -2 -1 -1
-1 -6 9 11 8 -4 1 5
4 12 9 0 8 -4 0 -2
6 7 5 5 8 -3 0 -1
0 -5 2 5 6 -3 -1 -2
-7 -6 -3 2 1 -7 -5 -3
-1 -8 4 5 3 -4 -3 2
-2 -15 6 3 5 -6 -3 -4
-4 -11 3 8 6 -5 0 -4
-5 -9 2 6 3 -8 -2 -6
-5 -7 3 4 2 -9 -5 -6
1 -4 6 2 6 -3 -2 0
7 -2 9 11 11 3 2 4
4 -4 4 6 9 -1 1 6
3 1 2 2 6 -6 -1 0
3 -8 4 -3 10 -1 -1 -5
-3 -15 2 -2 8 -1 -3 -7
-5 -14 0 -9 6 -6 -5 -12
0 -5 3 -2 7 -2 -3 -2
13 19 0 2 7 -1 -2 6
12 11 3 1 9 0 0 3
1 -9 0 -6 7 -3 -3 -3
0 -8 0 -5 5 -1 -3 2
-1 -5 0 1 7 -3 -2 -1
0 -7 1 2 6 1 -3 -6
1 -4 6 -1 7 -1 -3 2
3 0 6 0 7 -4 -2 -3
8 -2 8 4 9 -2 2 -6
7 0 9 9 9 0 3 -5
11 8 6 6 7 0 2 -2
11 11 5 1 5 -2 -2 5
10 3 4 -4 5 -2 -2 6
1 -9 8 1 7 -3 1 -2
1 -6 6 7 5 -4 -1 -8
-1 1 -3 0 2 -4 -6 -10
-4 -16 3 7 6 -2 -1 -1
-6 -15 7 5 7 0 -1 7
-3 -7 9 7 8 -1 -2 1
10 13 11 -2 11 0 3 0
18 29 10 -1 11 2 3 -2
12 19 9 2 10 1 3 2
7 -4 12 4 13 6 6 4
11 0 14 9 14 7 6 3
13 17 15 12 14 8 8 5
14 14 16 8 12 5 8 1
13 12 14 4 13 5 12 4
15 13 16 16 14 4 13 6
12 9 16 15 15 6 7 0
8 12 10 9 12 7 4 5
12 16 12 12 14 9 6 15
11 6 11 9 13 7 8 6
12 6 5 2 15 8 8 9
18 14 1 -1 14 9 6 7
14 11 0 0 14 7 9 14
13 14 -2 6 11 3 4 3
20 17 3 12 14 5 6 5
18 11 -2 1 11 2 6 5
14 9 -3 2 11 2 6 6
14 9 4 0 13 5 6 7
22 10 2 7 13 4 6 4
22 11 -2 6 14 5 7 6
16 8 0 4 14 6 8 2
12 -1 3 3 12 8 7 8
13 -7 3 -2 12 9 7 8
12 -3 2 3 9 3 6 12
15 2 -4 -6 7 1 2 4
13 3 -7 2 5 1 2 -3
6 -5 -7 6 5 -2 4 2
1 -4 -9 -10 3 -8 -2 -3
7 7 -9 -10 2 -5 0 -4
12 -1 -4 -1 6 4 7 3
7 -6 -1 -1 7 3 7 2
2 -3 -5 -7 3 0 5 0
6 3 -4 -10 4 -4 5 6
4 1 -1 -7 3 -1 0 -2
-2 -4 -4 -7 3 -2 -3 1
-1 -4 -6 -11 1 -8 -2 4
-1 -17 2 -2 5 -4 4 5
6 -9 5 -8 6 -3 4 4
3 -10 2 -7 4 -5 -1 -3
2 -2 3 -2 2 -7 -1 2
4 1 4 -1 3 -4 0 2
-3 -4 1 -8 1 -8 -3 -2
-3 -5 -1 -5 1 -8 -1 -5
-1 -12 3 0 6 -1 8 4
-3 -17 5 2 8 -1 3 -3
-13 -24 2 -2 5 1 3 -1
-22 -22 -1 -8 -2 -7 -4 -6
-15 -13 -2 -12 -2 -12 -6 -6
-4 -3 0 -8 1 -10 -4 -1
-4 -10 2 -10 4 -5 -1 0
-5 -12 2 -10 3 -5 -2 -5
-10 -15 2 -11 -1 -5 -4 -6
-11 -17 2 -6 0 -9 -3 -6
-3 -15 2 -3 4 -4 0 -2
-8 -20 2 1 3 -2 -2 -4
-9 -14 2 -2 2 -7 -3 -5
-3 -5 0 -5 3 -8 -3 -4
-8 -17 1 -7 2 -7 -4 3
-15 -26 0 -12 1 -5 -2 -2
-15 -21 -5 -17 -1 -10 -4 -11
-13 -23 -4 -14 1 -8 -5 -6
-5 -20 1 -7 5 -4 -2 -2
-3 -16 5 -7 6 0 -2 0
-10 -21 0 -5 3 -2 -5 -2
-13 -16 -6 -4 0 -10 -9 -12
-13 -19 -5 -2 2 -11 -4 -9
-10 -10 -6 -2 0 -12 -6 -7
-3 -11 -1 -14 4 -7 -3 -5
-4 -15 2 -3 6 -2 1 -4
-2 -10 3 5 9 -1 2 -3
-1 -4 10 -2 16 4 6 7
-9 -1 13 -2 19 7 5 10
-12 3 14 12 23 10 9 11
-7 2 23 10 26 16 11 10
-5 1 34 12 32 21 13 8
-3 3 25 31 38 22 16 14
-3 -3 25 35 48 32 27 17
-7 -6 34 48 64 48 39 16
3 7 47 74 83 68 46 17
24 10 64 111 115 93 64 35
43 16 79 146 142 116 84 43
58 28 92 159 161 134 97 54
67 31 75 123 159 144 102 60
76 36 48 79 150 148 113 63
78 44 21 37 146 148 113 67
86 49 -22 0 145 151 116 75
96 62 -91 -31 141 159 123 88
98 58 -153 -67 113 141 112 84
101 44 -180 -97 66 82 75 56
101 29 -188 -122 16 23 29 24
79 -3 -193 -151 -52 -45 -22 0
40 -23 -200 -211 -121 -102 -57 -21
15 -38 -204 -267 -163 -129 -67 -22
3 -42 -205 -269 -179 -131 -67 -24
-14 -54 -199 -249 -180 -135 -71 -32
-22 -61 -180 -217 -163 -127 -69 -36
-22 -59 -153 -178 -141 -118 -62 -40
-25 -57 -127 -150 -120 -107 -61 -36
-33 -68 -99 -119 -98 -88 -55 -39
-33 -64 -76 -90 -76 -74 -49 -39
-20 -53 -53 -68 -56 -59 -40 -28
-13 -50 -30 -40 -34 -42 -26 -22
-9 -49 -26 -30 -25 -34 -20 -20
-10 -44 -25 -22 -18 -29 -14 -14
-9 -37 -19 -22 -14 -23 -11 -9
-10 -38 -19 -22 -14 -18 -8 -12
-15 -34 -18 -17 -12 -20 -8 -5
-17 -38 -17 -7 -11 -20 -9 -9
-14 -35 -14 0 -8 -16 -6 -15
0 -21 -5 -4 -2 -8 -4 -9
5 -15 -4 0 0 -11 -2 -3
11 -10 -2 -4 0 -12 -3 2
9 -15 -1 2 2 -12 -2 -1
-1 -16 -1 0 -1 -15 -5 -1
1 -12 6 4 1 -11 -5 -5
-2 -20 6 2 1 -7 -7 -6
-5 -16 -1 -8 -1 -13 -10 -7
-2 -7 1 -8 -2 -16 -10 -9
-2 -16 -1 5 1 -12 -6 -7
-4 -20 -2 11 1 -12 -4 -5
-7 -20 -2 -4 1 -12 -5 -1
-7 -24 3 0 3 -9 -5 -2
-1 -18 2 1 5 -9 -4 -2
-2 -18 2 4 5 -11 -2 -4
2 -13 1 12 3 -11 -5 -1
6 -12 5 8 5 -8 -3 -3
-3 -20 6 9 4 -9 -4 -3
-2 -10 5 -1 2 -11 -7 -6
0 -12 10 0 5 -10 -4 2
-1 -13 6 6 3 -11 -5 -2
-3 -16 8 3 4 -12 -2 2
-11 -23 -1 1 2 -14 -7 -12
-11 -25 -1 -3 -1 -16 -10 -16
-1 -9 3 4 2 -15 -7 -6
10 -5 7 10 5 -9 -4 2
13 -12 13 24 11 -5 5 2
2 -12 9 13 9 -10 2 -1
-3 -18 5 2 7 -6 -2 -1
3 -17 2 1 6 -10 -2 -2
-4 -16 1 2 6 -9 -2 -7
-3 -21 3 9 7 -6 -2 -4
5 -16 6 9 7 -8 -4 7
1 -10 6 9 5 -12 -6 4
-2 -19 4 22 7 -10 -5 0
-3 -24 4 18 6 -11 -6 -2
-3 -22 6 12 5 -11 -8 -5
-6 -21 4 10 4 -15 -9 -3
-17 -25 0 0 1 -17 -9 -3
-14 -20 -1 4 3 -15 -8 -1
-8 -16 4 22 7 -9 -5 -1
-5 -24 3 13 6 -10 -4 -3
-2 -17 0 8 5 -13 -4 -6
3 -3 2 12 6 -12 -5 -6
1 -11 10 14 9 -7 -1 -3
1 -12 10 22 8 -10 -1 -5
1 -12 12 23 7 -10 -4 -5
0 -18 10 11 7 -5 -3 1
-3 -15 5 8 6 -4 -3 -5
-4 -11 4 12 5 -6 -6 -1
-9 -22 4 13 5 -9 -6 3
-6 -22 5 15 6 -9 -4 -1
-8 -25 4 11 7 -5 -4 -7
-5 -21 4 7 6 -7 -6 -7
-4 -22 5 24 8 -5 -3 1
0 -14 5 29 7 -5 -4 -7
2 -9 1 16 4 -10 -9 -7
-2 -12 2 10 3 -13 -9 -4
-2 -17 5 17 6 -13 -6 -2
-3 -14 0 15 4 -10 -8 -9
-3 -18 1 9 6 -8 -4 -6
2 -12 2 5 7 -9 -1 -5
4 -21 7 15 9 -8 -2 3
3 -17 3 20 7 -7 -4 1
0 -11 0 14 5 -11 -7 0
-6 -25 6 8 5 -13 -7 -2
-1 -17 3 16 6 -12 -7 1
5 -17 5 12 7 -9 -2 1
4 -20 3 18 7 -12 -1 -1
2 -14 3 17 7 -10 -2 -2
1 -9 2 17 6 -8 -4 -4
-1 -18 0 15 6 -8 -2 -6
-1 -17 1 16 6 -12 -7 -5
-3 -19 0 14 4 -11 -8 -4
-1 -21 1 21 6 -9 -5 2
2 -21 4 24 8 -7 1 1
-2 -31 5 22 9 -5 2 1
-3 -33 8 30 7 -7 0 -3
-4 -30 4 20 5 -13 0 -5
2 -18 -4 18 4 -14 5 -1
7 -14 2 21 5 -10 1 3
-3 -19 -6 16 1 -14 -2 -2
-4 -28 -5 12 1 -13 0 2
5 -10 -4 19 1 -13 -1 2
8 -8 -6 13 1 -15 -3 -5
3 -20 -9 14 0 -14 -3 -4
0 -28 -9 20 0 -13 -3 8
6 -10 -12 12 -3 -20 -3 -3
10 -4 -11 21 -2 -17 0 -4
9 -10 -5 22 0 -15 -1 0
11 -21 -10 21 3 -11 4 3
10 -27 -14 19 1 -12 2 -4
6 -24 -19 10 -4 -18 -2 -4
-1 -24 -23 4 -7 -19 -3 3
-3 -28 -24 8 -8 -20 -3 -4
1 -23 -20 7 -10 -22 -6 -10
6 -11 -24 5 -12 -24 -6 -12
10 -17 -22 8 -8 -21 -1 -4
14 -12 -21 4 -7 -19 3 6
20 -4 -23 3 -10 -18 2 2
19 -6 -24 3 -12 -20 3 3
17 2 -28 4 -17 -26 0 -4
16 1 -29 -2 -19 -25 -1 4
16 -18 -25 14 -14 -22 5 3
13 -20 -28 15 -15 -22 -1 -3
6 -12 -37 3 -24 -29 -8 -7
4 -16 -35 -2 -25 -32 -6 -9
4 -16 -37 -7 -26 -30 -8 -12
5 -21 -37 -3 -24 -32 -7 -4
8 -14 -39 -13 -28 -36 -10 -1
16 -12 -30 -6 -24 -30 -6 1
20 -12 -31 -5 -22 -28 -1 3
18 -14 -33 -8 -21 -28 4 6
11 -17 -36 -9 -24 -30 -4 -2
6 -18 -35 -18 -26 -31 -8 -4
3 -19 -36 -15 -25 -30 -8 -3
5 -23 -33 -10 -22 -28 -6 0
9 -14 -34 -12 -21 -24 -6 -2
9 -13 -34 -17 -20 -19 -2 2
10 -22 -31 -11 -16 -19 1 11
11 -16 -31 -9 -17 -23 -3 0
3 -21 -33 -15 -19 -25 -4 -4
6 -10 -31 -9 -18 -22 -3 4
4 -17 -28 -3 -15 -17 1 5
-4 -27 -26 2 -15 -18 -2 -6
-2 -28 -22 1 -11 -18 -1 0
-4 -19 -24 -13 -13 -19 -5 -1
10 -10 -20 -2 -10 -18 -2 -2
18 -2 -11 3 -3 -9 4 6
10 -1 -12 -2 -6 -13 2 -3
1 -13 -11 -5 -8 -15 1 -2
-6 -20 -14 -2 -8 -16 -2 5
-6 -22 -10 3 -8 -13 -2 19
6 -5 -7 -3 -4 -11 1 4
11 -3 -3 -3 0 -10 7 -3
8 -13 1 -1 4 -6 8 -3
4 -10 -4 0 0 -11 3 -7
4 -8 -3 3 1 -11 2 -1
4 -3 -3 0 2 -11 2 -5
-1 -10 -3 2 2 -6 -1 -9
-2 -11 -4 1 -1 -6 -3 -5
3 -9 2 6 0 -5 -1 -4
-1 -6 -3 11 -3 -12 -3 -10
-6 -13 -5 8 -5 -15 -7 -12
-2 -13 -1 0 -3 -10 -2 -1
-1 -18 3 5 1 -8 0 -5
1 -19 5 0 1 -9 -1 -6
-1 -25 8 10 4 -3 2 1
4 -17 6 8 2 -6 2 5
8 -12 6 7 6 0 4 6
6 -12 3 3 2 -8 -2 -2
1 -22 1 6 1 -10 -2 0
-5 -18 -2 1 -1 -8 -4 0
-7 -14 -4 1 -5 -6 -6 -14
-5 -16 -2 0 -4 -5 -3 -2
-4 -19 4 3 0 -6 -1 -5
-3 -21 6 -1 0 -1 -2 -3
1 -16 9 1 0 0 -2 -7
0 -16 4 6 0 -4 -3 -2
-1 -15 5 1 -2 -8 2 -8
3 -14 6 -1 -1 -9 0 0
0 -17 0 -6 -2 -6 -3 1
-10 -24 -1 -5 -2 -7 -3 -3
-15 -32 1 -7 -2 -5 0 -6
-13 -31 3 1 -3 -8 -5 -6
-10 -26 5 6 -2 -13 -5 -7
-15 -32 -1 4 -4 -14 -5 -10
-12 -26 0 -5 -4 -13 -2 -11
3 -18 6 8 3 -4 3 -1
11 -8 5 2 2 -7 -1 2
11 -4 4 10 3 -8 0 -4
13 -3 7 14 6 -5 3 3
7 -4 1 11 -1 -10 -3 0
-5 -20 0 9 -1 -9 1 -5
-11 -27 -1 5 -3 -11 -3 -10
-7 -25 1 -8 -4 -14 -8 -15
-3 -21 -1 -8 -3 -10 -5 -10
-2 -24 5 -1 2 -5 1 -3
4 -20 10 -1 3 -3 2 -4
4 -13 6 2 1 -8 0 -5
0 -15 3 6 1 -9 -2 -8
-5 -16 2 0 -1 -11 0 -2
-10 -32 6 7 2 -5 2 -4
-10 -28 -1 14 -1 -6 1 -10
-7 -15 -2 1 -5 -14 -6 -7
0 -14 5 6 -2 -11 -4 -2
-1 -17 4 9 -2 -10 -4 2
-5 -12 -1 -4 -5 -11 -7 -4
2 -12 2 -5 0 -8 -3 -9
9 -3 2 -1 1 -4 0 -3
0 -18 5 4 1 -4 0 6
1 -14 6 0 1 -1 -2 4
5 -11 4 -2 2 -2 -2 7
8 -15 7 4 7 -1 2 4
9 -15 7 5 5 2 2 -3
5 -17 5 0 3 2 0 1
1 -14 4 2 1 -3 -2 -1
-1 -8 2 3 1 -1 -4 -4
-3 -14 5 -1 3 3 -1 -1
-1 -11 5 0 4 1 1 -1
1 -7 4 -3 3 0 1 -1
-4 -18 2 4 4 3 2 -1
-5 -22 3 11 3 3 5 -1
-1 -13 1 9 0 -4 1 -8
0 -2 -2 7 -2 -3 -2 -9
2 -3 -2 8 -1 -4 -3 -4
13 -7 8 14 6 6 7 0
21 10 14 11 9 5 8 0
12 -11 13 13 10 2 9 0
10 -11 12 12 7 2 8 2
13 -5 9 10 7 3 6 1
14 3 3 1 3 2 2 1
15 4 3 8 5 2 5 8
8 -1 4 5 3 -2 5 4
7 -4 2 7 3 -2 1 3
7 -12 3 8 7 0 5 6
4 -6 0 3 3 -4 3 2
7 -6 3 3 6 -2 8 0
13 4 4 6 8 4 7 5
18 11 5 16 10 6 7 13
8 -5 3 8 7 4 5 6
1 -14 0 7 5 3 5 -1
10 0 4 5 6 7 5 8
16 8 11 1 7 1 7 12
11 -6 5 6 8 0 10 11
10 -15 8 18 12 6 14 17
12 -7 5 11 8 3 7 5
9 -5 7 11 6 0 6 3
9 -8 8 17 7 1 7 13
19 5 8 15 9 8 10 13
28 18 10 16 11 8 13 15
24 12 7 14 11 5 12 7
24 14 3 3 7 0 8 4
20 7 6 7 7 7 8 11
20 1 8 11 9 3 10 10
14 -5 5 10 6 3 7 9
14 0 3 11 3 2 5 6
19 7 2 9 5 -1 6 9
22 5 5 7 6 2 7 5
25 8 5 8 7 5 8 9
23 6 7 15 8 7 10 7
14 1 3 4 4 -2 6 4
6 3 -4 4 1 -4 1 -2
13 7 1 9 4 -2 9 1
27 16 9 15 10 3 16 6
26 7 8 15 10 7 13 7
21 2 6 19 7 8 10 8
20 4 7 21 7 3 8 5
20 8 7 18 6 1 7 2
18 6 9 10 4 3 6 6
22 4 11 14 9 5 12 5
20 7 10 7 5 0 9 -2
18 5 6 9 4 2 6 -4
23 3 6 10 6 6 8 3
28 5 10 9 5 3 9 7
24 1 11 11 7 5 10 5
20 3 8 8 6 1 8 9
19 7 5 2 6 2 6 10
15 1 3 1 5 4 11 1
16 -2 1 9 4 2 9 -1
16 -6 3 12 5 0 5 -3
14 -7 7 6 6 0 7 0
22 1 14 9 10 6 15 8
23 5 9 18 9 5 9 6
17 1 3 12 4 2 4 7
22 -4 8 15 10 2 9 10
20 -2 12 7 9 -1 8 5
9 0 3 2 3 -5 5 -3
8 -5 2 6 4 -6 4 -2
10 -7 5 8 6 -2 5 3
13 -10 6 14 6 3 5 2
13 -8 6 11 6 0 4 4
15 3 -1 0 2 -4 0 -4
20 5 1 2 5 1 3 -2
16 -1 6 12 7 1 4 2
19 1 8 16 7 -1 5 2
21 0 10 17 8 1 7 1
22 2 10 21 8 1 11 11
20 7 7 17 6 -3 6 5
9 1 0 9 2 -3 0 1
11 9 -2 5 -2 -5 -1 5
14 1 1 4 2 -2 4 2
19 1 5 15 6 0 6 3
22 7 6 16 7 0 6 11
26 13 6 11 4 -3 3 3
21 14 0 5 0 -6 -2 4
15 3 3 1 -1 -3 2 -2
22 6 5 9 4 0 6 4
16 -11 7 15 7 2 7 11
11 -5 0 11 2 -2 2 5
11 -5 0 14 1 -1 1 2
10 -8 -1 4 1 -6 4 7
12 0 2 3 -1 -7 4 0
11 0 4 -2 0 -7 4 1
12 -9 5 7 2 -3 5 0
21 3 11 10 3 5 7 7
17 -1 8 6 4 2 6 3
18 -1 10 6 4 1 4 -5
20 0 10 9 5 1 5 -2
17 0 11 6 4 0 3 0
17 -6 9 2 5 0 4 1
13 -8 2 3 2 -4 1 2
9 -11 3 1 -2 -5 -2 4
13 -8 -1 7 -3 -2 -2 -6
4 -10 3 16 -2 -4 -1 -10
0 -13 2 -1 -4 -2 -5 -7
5 -7 -5 -6 -7 -9 -7 -8
13 12 -6 -5 -8 -10 -2 -11
20 20 -2 5 -4 -7 -1 -4
23 7 3 13 2 -2 2 -2
26 0 7 9 5 4 6 -1
21 2 3 14 3 -1 3 4
14 -7 1 6 1 -3 0 -1
11 -1 1 1 -2 -5 -1 1
11 -3 3 3 0 -5 3 -6
13 -11 6 14 2 -1 3 -6
15 -6 4 17 2 -5 1 -4
8 -11 1 9 -1 -4 2 -6
4 -17 -2 11 -3 -9 -1 -8
5 -14 -2 9 -3 -8 2 -6
5 -10 2 6 -2 -3 1 -3
9 -12 5 15 3 0 3 -3
14 -7 7 19 4 -2 6 -1
16 -2 5 7 4 -2 4 -1
17 8 3 9 1 -3 3 -2
13 3 4 9 1 0 2 -4
10 -8 1 15 -2 1 1 -4
10 -7 0 19 -1 -3 2 -5
13 0 2 13 1 -2 0 -2
18 3 1 12 2 1 1 -5
18 -6 4 7 2 0 2 0
11 -9 2 3 1 1 1 -3
11 -7 2 3 0 -3 1 -5
9 -10 2 -2 0 -3 1 0
9 -4 1 3 -1 -5 0 -3
12 -2 1 2 0 -2 3 -3
10 -7 0 2 -1 -2 -2 -3
10 -14 4 11 3 1 2 1
12 -14 5 12 2 4 1 -1
7 -14 1 13 0 -2 1 -4
4 -11 -1 9 -2 -7 -3 -5
8 -8 0 9 0 -2 -3 -8
13 -8 1 5 2 1 1 -1
13 -5 0 -1 1 -4 0 -1
8 -8 0 4 -2 -4 -3 -10
13 -4 8 10 0 -5 -4 -9
10 -9 4 8 0 -3 -3 2
6 -8 4 0 0 -3 -3 1
4 -14 0 6 -1 -6 -4 -6
2 -20 4 9 1 -2 -1 -3
7 -2 4 6 -1 -6 -1 -3
3 -11 -1 7 -1 -7 -4 -7
5 -9 1 12 -3 -4 -5 -5
9 -8 1 14 -1 1 1 -6
9 -10 4 13 -1 -5 -2 -8
19 4 6 11 2 0 -1 -3
21 -3 8 15 6 3 5 3
9 -9 3 6 2 -2 1 -2
9 2 5 5 2 -2 0 -3
17 8 8 5 7 5 4 -2
17 8 10 12 7 6 4 1
14 2 9 18 7 6 4 -3
9 4 6 13 2 5 1 -8
2 1 3 12 0 1 -2 -6
8 2 6 13 1 3 2 -3
19 5 11 14 6 9 4 -1
15 9 9 17 4 5 1 -2
9 -1 8 11 4 5 2 -3
10 8 7 12 3 0 2 0
10 -6 12 14 8 7 5 11
15 0 11 14 8 6 4 0
24 12 13 17 9 9 5 2
20 6 10 25 9 10 6 4
16 -2 6 24 7 8 8 7
19 3 9 16 7 9 6 10
20 13 7 8 5 9 3 3
20 11 8 8 6 12 5 1
22 5 4 8 7 8 5 3
25 9 -2 8 7 10 8 7
34 18 1 14 10 10 13 5
32 10 12 22 14 13 18 12
21 7 4 18 7 12 9 11
19 5 -5 9 5 10 5 10
18 9 -6 5 2 1 3 3
16 -1 -4 2 0 -2 4 -4
17 -1 0 5 -1 -3 1 -5
12 -6 -6 13 -5 -4 -4 -7
8 -4 -11 8 -7 -4 -3 -7
9 -6 -8 5 -5 -2 -1 -4
18 -4 -3 8 -1 -2 1 3
26 4 -4 10 -1 1 1 1
28 4 0 4 4 13 7 2
23 -1 -1 11 5 7 6 -1
16 0 -2 11 0 -1 1 -2
14 5 -3 3 -2 -2 -2 -5
10 1 -5 9 -3 0 1 -5
2 -9 -3 18 -1 0 4 -7
-1 -11 4 12 -1 2 4 -4
-5 -8 0 10 -3 4 -2 -6
-5 -10 0 16 -2 1 1 -5
8 -3 11 34 5 9 9 0
7 -5 11 23 6 8 6 2
-8 -15 4 13 1 2 3 0
-11 -15 4 9 -2 1 -2 -1
-4 -11 3 3 -2 0 -2 -8
-6 -11 2 2 -3 -1 -3 -8
-12 -10 4 8 -3 2 -2 0
-17 -16 6 4 -4 -1 -4 3
-20 -21 10 -1 -5 -4 -6 1
-19 -20 7 5 -4 0 -4 -4
-20 -18 4 5 -6 4 -6 -11
-13 -14 6 2 -2 5 -1 -2
-6 -4 8 3 0 6 3 6
-6 -1 4 -1 -2 -1 2 6
-11 -3 1 -2 -6 0 -5 -2
-13 -15 2 4 -4 2 -4 -3
-9 -19 7 4 1 3 2 4
-7 -18 6 5 1 2 0 -2
-13 -17 2 -9 -2 -2 -4 -2
-20 -17 -1 -12 -9 -7 -7 -7
-19 -13 -3 -10 -8 -7 -6 -10
-14 -12 -4 -11 -8 -4 -5 -8
-8 -10 -1 -7 -6 -3 -3 -4
-8 -12 0 -10 -6 -4 -6 -9
-6 -13 3 -5 -2 1 -3 -7
8 -8 8 1 5 7 4 -1
7 -1 7 -8 3 4 3 1
-1 -2 1 -11 -3 4 -2 -4
-4 -3 1 -11 -2 0 0 -7
-9 -8 -2 -16 -4 -2 -2 -7
-12 -19 2 -13 -2 6 0 2
-6 -15 4 -19 -2 3 -2 -1
-3 -3 4 -20 0 5 -1 -3
-6 8 12 -9 6 7 5 6
-11 4 23 -7 14 17 9 7
-14 13 23 -4 14 16 10 -2
-21 3 24 10 17 17 9 -2
-21 -6 33 10 25 26 15 10
-13 -1 31 8 33 33 22 17
-5 11 33 17 43 43 29 23
3 20 47 54 62 61 41 24
12 17 59 72 82 76 51 26
21 20 64 91 100 94 61 34
36 26 77 122 123 115 87 47
56 41 97 125 141 133 95 52
69 45 84 94 139 140 97 59
66 38 52 55 133 143 105 68
70 43 24 29 133 153 110 77
84 59 -31 -12 133 154 119 86
94 69 -113 -54 123 148 121 88
93 62 -170 -99 86 115 101 82
91 43 -190 -129 37 62 65 59
77 10 -201 -154 -14 3 16 22
53 -20 -195 -185 -76 -54 -28 -6
25 -35 -198 -238 -130 -94 -56 -23
16 -29 -211 -259 -166 -121 -67 -26
5 -21 -213 -269 -182 -132 -70 -32
-19 -33 -201 -267 -181 -129 -73 -33
-34 -52 -177 -237 -160 -116 -68 -34
-42 -66 -146 -194 -135 -98 -59 -34
-41 -65 -108 -154 -110 -79 -51 -31
-35 -51 -78 -123 -86 -62 -44 -23
-32 -45 -61 -95 -66 -46 -33 -20
-40 -54 -41 -69 -49 -34 -28 -19
-34 -52 -20 -48 -35 -23 -19 -14
-22 -43 -16 -31 -23 -13 -11 -5
-14 -25 -15 -31 -18 -7 -9 -8
-15 -12 -14 -31 -17 -8 -10 -7
-19 -13 -12 -22 -16 -8 -7 -1
-18 -17 -6 -18 -8 -2 -3 4
-16 -7 -5 -20 -7 6 -4 -2
-12 -5 -2 -27 -4 8 -1 2
-13 -7 2 -11 -2 3 6 2
-18 -10 3 -18 -1 9 4 9
-25 -10 3 -23 -4 3 -2 -2
-29 -16 0 -14 -5 0 -5 -2
-26 -19 6 -4 0 4 -2 -2
-20 -13 12 -4 2 6 3 1
-11 -7 14 -2 6 9 6 8
-6 6 10 -6 5 9 3 8
-11 5 6 -13 1 4 1 1
-22 -8 3 -18 -1 4 0 3
-26 -19 5 -14 1 4 -1 -2
-17 -16 10 -10 5 5 2 8
-18 -18 10 -4 4 9 2 12
-26 -18 5 -3 -1 6 -2 2
-16 -15 13 -2 3 5 3 10
-12 -9 12 1 5 11 5 7
-10 -7 15 7 6 10 4 9
-14 -14 13 1 6 10 4 4
-19 -15 11 -3 6 10 3 5
-15 -3 13 -1 5 14 4 11
-8 6 10 -2 6 14 4 2
-11 12 5 -13 1 11 -1 -3
-18 2 5 -9 1 6 -1 0
-18 -9 9 -2 3 6 2 4
-13 -14 14 -7 5 11 2 4
-17 -16 11 -3 4 9 3 0
-16 -12 13 -1 6 9 8 7
-13 -4 13 2 6 7 7 3
-10 -6 18 0 9 8 8 5
-15 -10 19 -8 7 7 5 4
-20 -6 10 -6 5 6 2 2
-15 4 8 -10 2 3 2 2
-16 -2 13 -5 2 4 4 9
-22 -4 17 -3 3 3 0 2
-17 0 14 0 2 1 -2 -1
-16 -8 15 1 5 4 1 6
-12 1 13 4 6 5 5 4
-10 -1 13 1 7 9 3 1
-10 -5 11 1 7 11 4 2
-10 -8 12 -2 7 9 5 0
-11 -7 13 -2 7 5 5 4
-19 -8 10 2 3 3 1 3
-19 -6 11 0 2 4 2 -1
-16 -5 15 -4 2 1 1 3
-13 -1 10 -4 1 6 -2 0
-13 -5 14 4 3 7 2 -3
-16 -5 10 2 2 0 -1 -5
-15 -9 8 -7 2 -1 1 2
-13 -12 12 -5 4 1 3 7
-12 -13 11 2 3 6 -1 -3
-14 -9 9 6 5 8 1 -2
-13 -9 10 0 7 2 3 1
-14 -5 8 0 4 2 5 0
-6 6 9 4 4 6 4 3
-1 3 17 10 10 14 8 13
-1 2 20 19 10 9 7 12
-8 4 15 15 6 5 3 5
-18 -7 12 17 7 4 2 2
-18 -7 14 10 6 3 1 9
-22 -12 8 8 6 2 1 3
-30 -18 8 7 4 3 -1 0
-17 -9 4 8 2 0 -2 -1
-17 -12 11 12 8 11 4 10
-18 -12 15 19 10 10 5 11
-13 -6 14 19 8 3 4 1
-14 -3 11 27 6 3 3 4
-14 -1 10 13 4 1 2 1
-15 -11 14 12 8 2 4 6
-4 6 15 18 11 8 8 10
0 7 15 18 13 11 14 15
-8 -3 12 18 9 6 9 15
-13 3 9 8 5 5 7 10
-11 1 11 9 8 8 7 18
-14 -4 13 18 7 4 4 9
-8 -3 14 16 6 1 7 12
-8 -5 12 21 7 3 6 13
-13 -6 11 18 7 3 3 10
-14 -13 11 24 8 3 5 10
-14 -9 5 27 4 1 4 1
-19 -9 6 15 2 0 1 -2
-21 -12 8 12 2 1 0 0
-20 -7 2 9 1 1 -2 1
-13 -1 1 1 0 -4 -1 4
-2 11 4 13 0 -6 0 4
-3 2 4 17 2 -4 2 10
-5 1 5 17 5 3 4 12
-2 0 5 21 5 5 4 8
-5 3 1 9 1 -1 2 2
-4 6 1 3 -2 -3 0 8
-6 1 -2 7 -3 -4 2 18
-6 3 -7 7 -4 -4 3 10
-6 1 -2 13 -3 -3 2 6
-12 -3 -7 14 -7 -7 1 9
-14 -3 -11 9 -9 -10 -1 11
-10 -6 -10 6 -10 -8 -1 1
-4 1 -9 15 -10 -11 0 7
5 3 -6 20 -7 -6 7 10
2 0 -8 19 -6 -4 8 12
-6 -2 -18 4 -12 -12 -2 6
-7 1 -18 -1 -13 -16 -3 5
7 8 -11 -1 -9 -8 2 11
10 16 -12 3 -10 -7 2 12
3 13 -19 0 -15 -13 1 10
-3 0 -18 -2 -17 -14 -2 7
-4 2 -16 -2 -21 -18 -6 7
-7 -4 -19 -4 -21 -21 -5 8
-8 -10 -21 -18 -22 -18 -3 17
-3 -9 -22 -14 -21 -17 1 18
7 1 -19 -13 -19 -17 5 15
11 12 -18 -14 -21 -15 2 13
6 1 -23 -8 -21 -19 0 15
10 3 -24 -15 -23 -17 -1 9
13 23 -22 -18 -25 -19 -6 6
11 10 -24 -6 -22 -19 -4 11
4 -6 -24 -2 -21 -15 2 12
3 -3 -23 -3 -22 -14 -1 10
-4 -2 -28 -16 -26 -21 -5 10
-6 -11 -26 -14 -25 -21 0 3
3 1 -23 -12 -22 -19 1 9
8 8 -22 -9 -20 -15 2 17
8 8 -20 -11 -18 -12 6 15
2 -4 -21 -7 -17 -15 3 10
5 0 -18 -10 -17 -13 5 12
12 5 -10 -1 -13 -11 4 13
5 -1 -8 -1 -14 -10 7 8
3 8 -13 -8 -14 -7 2 6
5 3 -9 0 -10 -9 2 7
-1 -1 -8 -10 -12 -7 1 7
1 3 -4 -5 -12 -4 1 7
2 6 -10 -5 -11 -6 0 9
1 1 -5 -10 -6 -4 3 17
2 -2 1 -7 -4 -1 6 14
0 3 1 -8 -6 -3 5 4
6 10 6 0 -2 2 11 5
9 19 6 2 -2 1 8 8
11 14 8 15 0 1 4 15
8 16 11 8 0 4 3 6
2 9 6 4 0 5 0 3
5 5 6 8 1 1 5 9
5 4 9 4 2 2 10 14
0 7 9 -5 1 -1 6 10
-1 4 11 0 -2 -2 1 11
-5 2 9 6 -4 -5 2 15
-7 -7 6 -2 -5 -5 0 5
-2 0 6 -1 -5 -3 0 1
6 8 10 7 -2 -1 2 5
4 10 9 -3 -2 -3 -1 0
-6 -2 7 -3 -3 1 -2 6
-4 -3 9 -2 -1 1 0 11
6 8 10 -1 -1 -3 1 8
9 19 11 1 -1 -4 1 5
13 16 14 10 2 4 6 10
8 16 8 7 -2 2 6 1
-3 2 8 6 -3 -4 -1 4
-6 -3 9 3 -4 1 -1 1
-2 0 8 1 -5 3 -1 0
3 1 13 7 -1 3 1 3
5 12 10 8 -3 2 0 3
0 3 9 -2 -5 0 -2 7
-2 -6 8 7 -4 -3 0 2
1 -2 10 19 -2 1 2 9
3 -1 9 2 -2 -5 0 4
4 4 8 -5 -4 -3 0 7
8 16 8 -5 -6 -3 3 3
12 8 17 4 -2 -3 5 6
0 1 10 6 -5 -7 -1 11
-1 7 5 -5 -9 -7 -7 5
4 11 6 -1 -9 -9 -6 -3
2 10 5 4 -8 -7 -4 3
1 0 8 14 -4 2 0 3
4 -4 11 3 -1 4 1 4
6 1 15 -1 1 6 2 7
4 -5 12 4 1 1 1 15
1 0 7 8 -3 -5 -3 5
0 0 5 -6 -6 -7 -6 1
-4 -2 5 -7 -8 -9 -7 -4
-5 -6 9 -4 -4 -6 -4 -2
1 1 11 -4 -3 -3 -1 2
9 2 16 1 3 6 5 12
13 9 14 4 1 6 3 9
8 7 10 2 -3 0 1 8
7 7 9 -10 -4 -6 -1 10
10 7 15 4 -2 -2 -1 4
9 5 15 4 1 1 4 4
10 3 16 2 2 1 1 12
10 2 13 1 -1 0 -3 11
4 0 14 3 0 -3 -3 6
1 -3 9 2 -2 -5 -3 1
2 0 8 0 -4 -4 -1 5
6 11 13 -2 -2 -4 0 4
8 5 14 -3 -2 -3 4 4
3 0 6 -4 -5 -6 -2 0
8 13 10 -4 -3 -4 -3 3
19 25 13 4 3 2 4 7
13 16 14 5 3 -1 3 4
7 3 9 4 1 2 -1 4
5 2 9 6 -1 1 0 5
7 7 11 6 0 -2 2 4
6 8 9 2 -2 -6 -2 8
2 -2 6 -3 -3 -5 -2 6
0 -10 7 -2 -2 -6 -1 10
0 -2 5 4 -2 -5 1 16
-1 -1 6 2 -1 -2 2 8
7 11 7 -4 -3 -1 -1 11
12 13 8 1 1 1 2 5
14 12 12 9 4 0 6 4
15 11 13 8 7 3 6 9
12 18 11 9 6 6 4 11
10 13 12 9 9 7 5 5
11 10 14 3 7 3 3 2
15 28 7 -4 2 -5 -2 0
9 11 5 -1 4 3 1 2
4 -2 6 0 3 4 1 6
8 7 6 1 1 -2 2 9
12 14 9 10 0 -4 -2 7
13 15 10 3 4 -2 2 2
9 20 5 -1 3 -5 3 3
10 16 8 -2 7 3 4 6
19 18 12 4 12 10 10 11
20 19 11 11 11 9 16 10
24 19 13 10 14 12 16 17
21 21 11 0 9 3 7 11
16 26 3 -2 1 -6 0 5
10 14 3 2 2 1 1 2
5 7 3 3 2 -1 0 1
1 1 4 7 4 -2 4 4
11 4 5 8 4 -1 5 8
17 8 11 14 8 4 6 14
19 13 12 12 9 5 7 20
17 13 10 8 6 0 5 20
16 18 10 0 4 2 8 18
22 17 3 4 4 3 10 8
20 13 4 9 6 1 9 6
13 20 3 9 4 0 6 7
18 29 4 7 3 2 4 9
19 19 9 10 5 2 8 15
16 9 11 9 6 5 7 12
11 2 11 5 6 5 5 13
13 6 9 3 5 2 3 14
20 14 7 12 6 -1 5 16
19 15 6 8 5 -1 6 11
22 17 6 6 5 1 5 8
25 25 6 0 3 -1 4 12
21 25 5 9 1 0 3 7
17 18 8 11 1 -2 0 6
17 6 10 16 5 0 4 9
18 20 6 4 2 1 3 7
16 18 7 3 1 1 8 6
11 11 9 7 0 -1 0 6
11 18 1 9 -2 -5 0 -3
13 16 3 8 0 -4 2 4
9 15 1 6 -3 -6 -4 4
13 11 7 3 0 -4 -2 12
14 5 15 6 4 0 4 14
11 6 8 11 2 5 3 5
16 16 4 7 2 3 0 6
20 20 5 3 0 -3 -2 1
14 12 3 5 -1 2 -2 1
20 18 5 2 -1 0 0 8
33 31 9 8 4 3 3 8
25 22 9 9 3 3 4 8
14 11 7 7 0 2 4 14
15 11 6 6 1 3 2 8
22 20 6 3 1 0 2 8
26 24 8 0 3 2 3 7
21 14 10 20 2 0 3 5
13 7 5 10 -1 -4 0 5
8 4 6 4 0 -4 -1 14
12 12 4 -1 -1 -2 1 14
17 11 6 7 1 -2 6 14
18 16 3 10 -3 -8 -1 2
14 12 3 0 -6 -8 -5 1
13 18 0 -5 -6 -11 -6 0
19 26 0 0 -7 -12 -5 6
23 18 6 2 -4 -6 -2 6
17 14 5 5 -3 0 0 2
22 19 6 3 -2 0 0 9
30 32 13 12 1 -1 5 8
22 13 16 7 5 1 9 5
16 3 11 14 6 6 4 8
15 11 3 11 0 3 -2 10
22 19 5 15 2 -2 0 5
29 24 6 15 3 -2 1 9
30 27 8 6 2 -1 1 14
30 30 6 16 1 -2 -1 6
30 29 6 21 1 -2 0 17
28 20 6 10 1 -2 0 10
29 24 6 3 -1 -3 -1 11
13 12 2 4 -3 -5 -6 8
8 9 -2 1 -8 -7 -6 1
13 13 -1 5 -7 -6 -5 6
13 11 4 6 -5 -4 -4 2
15 15 5 5 -4 -7 -2 3
20 15 5 8 -1 -5 -3 5
23 20 7 8 -1 1 -4 6
24 23 4 -2 -5 -4 -6 0
22 22 3 6 -4 -4 -5 1
26 29 3 7 -3 -6 -4 0
22 24 3 22 -3 -2 -5 1
18 17 5 7 -4 -5 -6 -2
21 14 12 8 0 -1 -3 2
19 12 7 13 -1 0 -1 9
17 17 0 6 -6 -7 -6 4
15 29 -3 -3 -13 -13 -13 6
22 28 6 0 -9 -9 -8 11
22 17 3 4 -8 -6 -8 9
12 11 -1 6 -9 -10 -10 2
9 16 3 5 -6 -2 -8 9
18 22 4 13 -3 -1 -7 1
17 12 3 6 -4 -5 -7 2
18 5 6 5 -2 -7 -3 6
28 21 7 8 2 -1 5 8
29 16 9 9 3 4 4 13
25 20 9 5 -2 -5 -4 12
30 29 7 5 -2 -7 0 4
28 30 11 8 0 -4 1 10
28 23 12 9 0 -1 -4 7
26 23 6 8 -2 -2 -4 4
23 27 5 18 -4 -8 -7 2
25 29 4 18 -2 -9 -6 10
19 13 4 7 -1 -6 -4 6
13 10 3 5 -4 -9 -7 -1
13 12 4 7 -1 -8 -6 -4
13 17 2 10 -3 -9 -5 1
14 21 4 9 -2 -8 -3 11
13 18 5 4 -2 -8 -5 7
17 15 4 6 -1 -5 -2 2
22 22 6 17 -1 -3 -3 3
18 16 10 13 0 -1 -3 9
13 17 8 1 -3 -6 -5 -1
12 14 7 5 -6 -6 -8 0
19 24 6 5 -4 -7 -6 1
22 26 9 11 -1 -1 -4 5
15 20 5 18 -3 -5 -7 4
9 26 0 15 -7 -11 -13 -1
13 18 7 9 0 -6 -7 9
13 18 7 8 -2 -8 -4 4
9 11 3 5 -4 -8 -5 -1
8 10 2 9 -4 -5 -7 1
9 8 4 6 -1 -7 -6 2
13 20 6 2 -1 -7 -6 11
22 29 8 10 3 -4 -2 10
27 35 10 17 5 1 0 6
20 25 15 24 7 1 2 12
19 28 13 16 3 -2 0 8
20 33 11 5 0 -6 -5 4
16 32 7 1 -2 -7 -5 3
13 26 8 9 0 -3 -3 2
16 29 9 13 1 -1 -2 11
20 28 12 9 3 1 0 10
14 30 7 10 -1 -5 -5 -3
14 27 11 10 1 -4 -4 -2
21 26 15 17 4 -1 0 8
31 45 18 11 4 4 -1 11
28 49 14 11 1 0 -3 6
26 35 11 10 2 -2 -1 8
23 30 3 5 2 -3 -5 7
18 34 -4 1 1 -2 -4 7
24 36 -4 -3 1 -4 -1 4
29 31 0 3 4 0 0 2
26 29 -1 10 5 2 0 5
27 28 -3 12 3 2 1 4
36 33 1 12 6 2 1 10
44 45 1 7 6 1 3 8
44 43 2 14 9 5 7 9
36 39 0 12 6 0 3 12
36 39 2 16 6 0 2 14
31 31 2 12 3 -2 0 17
28 27 -3 -1 -2 -3 -4 14
33 34 -6 3 -3 -3 -6 5
34 33 -6 7 -4 -6 -6 3
34 37 -4 2 -4 -7 -6 4
29 28 -5 3 -6 -7 -6 2
20 17 -1 8 -6 -6 -9 -4
23 18 1 16 -4 -9 -9 -1
25 14 4 12 0 -3 -5 5
26 15 5 15 -1 -3 -7 8
24 22 2 4 -2 -2 -6 8
23 29 -1 3 -5 -6 -8 2
30 36 -2 11 -7 -4 -10 3
28 30 3 9 -3 -3 -7 1
20 27 2 -1 -5 -9 -7 -6
15 22 -5 1 -10 -13 -11 -3
15 14 -2 9 -7 -9 -9 9
16 18 -1 10 -8 -9 -11 2
17 21 0 15 -9 -10 -14 -6
9 15 -3 7 -12 -13 -18 -9
8 19 -5 6 -13 -16 -17 -6
23 29 3 5 -7 -12 -12 3
32 38 5 11 -4 -4 -10 7
24 30 4 12 -5 -8 -11 2
15 10 2 15 -8 -12 -10 5
10 7 0 9 -10 -14 -10 1
7 10 -1 5 -10 -14 -14 -4
11 17 -2 7 -12 -16 -18 -4
16 27 1 6 -10 -11 -17 -10
15 19 2 11 -6 -10 -11 0
11 20 -4 6 -11 -17 -16 -6
9 15 -4 6 -10 -16 -18 -11
4 6 -2 7 -10 -12 -18 -3
6 8 0 5 -9 -10 -16 6
10 18 0 3 -10 -14 -19 2
10 20 2 9 -8 -11 -16 -4
15 22 0 20 -6 -9 -13 -6
20 29 3 11 -2 -8 -10 1
21 29 5 10 -1 -6 -11 1
16 23 3 6 -3 -8 -13 1
12 14 0 7 -5 -9 -14 5
10 15 2 11 -3 -9 -12 11
11 21 4 14 -2 -8 -6 2
12 18 2 9 -2 -5 -7 2
12 19 0 17 -3 -6 -11 1
15 23 7 15 -2 -6 -9 2
10 23 0 10 -4 -7 -12 -5
5 27 -2 5 -6 -6 -13 -8
10 30 7 11 2 -1 -10 -7
11 35 17 24 9 4 -6 -4
10 36 23 22 15 9 -2 5
8 32 28 24 18 10 1 8
9 28 32 28 23 14 4 5
13 25 33 40 32 21 7 6
19 34 32 46 42 34 16 16
25 43 40 75 58 49 25 22
20 29 52 88 76 63 31 24
28 27 57 105 95 81 43 21
44 29 70 138 122 104 61 35
59 39 85 167 149 125 75 41
76 55 92 178 163 141 86 48
90 57 68 129 157 147 95 57
90 64 45 78 149 146 97 56
90 73 14 42 147 149 100 65
101 90 -42 8 139 153 107 78
118 96 -100 -20 122 142 108 84
118 83 -141 -55 80 96 71 61
105 52 -160 -97 28 32 29 28
90 44 -170 -130 -42 -38 -27 -4
56 15 -167 -179 -109 -87 -62 -23
26 2 -175 -237 -160 -126 -79 -31
3 -2 -186 -263 -186 -139 -81 -23
-1 4 -186 -246 -189 -137 -82 -28
-2 -3 -176 -215 -178 -134 -82 -36
-9 -17 -158 -190 -159 -129 -83 -44
-17 -23 -138 -153 -140 -121 -80 -51
-16 -32 -109 -109 -117 -103 -73 -44
-5 -25 -82 -86 -91 -79 -63 -41
-1 -25 -62 -68 -72 -62 -55 -32
-1 -22 -46 -52 -55 -51 -47 -24
6 -16 -30 -31 -39 -39 -37 -24
19 -1 -20 -9 -28 -31 -29 -22
25 17 -18 -1 -24 -27 -27 -18
20 20 -16 -6 -22 -23 -27 -12
12 14 -15 -4 -20 -24 -23 -12
13 6 -10 -7 -15 -20 -23 -14
15 9 -11 -6 -15 -14 -23 -12
16 10 -8 -7 -11 -18 -20 -8
18 22 -8 -1 -12 -20 -21 -14
19 22 -9 7 -12 -22 -22 -19
15 17 -4 6 -8 -17 -19 -10
16 20 -4 5 -8 -13 -18 -14
20 21 1 14 -4 -10 -15 -10
19 15 5 18 -3 -8 -15 -9
17 12 3 9 -3 -13 -15 -6
18 18 0 14 -6 -15 -13 -5
21 23 1 9 -4 -13 -15 -7
25 30 2 7 -4 -15 -13 -8
21 14 5 18 1 -11 -11 3
13 17 1 8 -5 -15 -16 -14
12 21 -1 8 -7 -17 -20 -17
12 8 4 17 -2 -14 -14 -6
9 4 4 19 0 -11 -15 -7
11 8 4 18 1 -9 -15 -10
10 4 4 10 2 -8 -15 -13
12 2 2 15 -1 -14 -15 -16
15 6 6 20 1 -14 -13 -14
16 10 8 20 1 -13 -12 -7
23 17 6 13 2 -11 -8 -2
22 29 8 8 0 -7 -11 -7
20 23 9 18 3 -5 -12 -7
20 13 8 17 4 -8 -12 -7
16 14 9 15 4 -11 -11 -11
19 15 12 17 6 -8 -8 -9
19 17 9 22 5 -10 -12 -6
21 19 8 24 3 -12 -13 -11
26 28 8 8 2 -13 -11 -3
25 30 4 12 3 -15 -14 -4
14 21 5 11 2 -15 -13 -10
9 15 3 9 1 -13 -13 -8
11 14 5 11 5 -9 -8 -6
14 14 6 13 3 -8 -12 -10
13 12 5 9 0 -14 -17 -12
13 16 8 19 3 -9 -11 -9
26 31 11 21 8 -4 -10 -8
23 31 7 13 4 -11 -11 -8
11 14 7 17 4 -7 -11 -5
5 10 5 18 2 -4 -12 -9
11 21 1 23 -1 -13 -19 -17
18 16 7 30 4 -11 -15 -12
20 18 12 28 8 0 -11 -6
17 23 5 13 4 -10 -14 -9
22 29 8 7 2 -13 -13 -14
20 19 8 20 4 -12 -13 -16
9 15 3 15 0 -15 -18 -19
10 7 5 25 5 -11 -13 -7
7 5 7 19 5 -9 -14 -7
4 4 4 20 3 -9 -9 -5
5 5 5 19 3 -10 -8 -6
7 5 2 5 3 -13 -13 -14
15 12 2 13 3 -12 -15 -16
20 14 7 26 7 -10 -9 -7
20 8 12 23 9 -4 -6 0
20 15 13 19 7 -9 -12 -9
19 15 6 18 4 -14 -13 -11
13 8 5 12 3 -14 -13 -11
14 6 4 13 3 -14 -13 -11
16 4 6 15 5 -13 -12 -1
19 16 8 28 4 -6 -11 0
22 19 9 25 6 -6 -8 0
26 25 9 14 4 -11 -10 -2
33 36 8 16 4 -16 -14 -8
29 23 6 25 4 -14 -14 -4
26 18 5 23 2 -19 -17 -3
20 5 5 15 4 -16 -12 -6
18 6 5 16 5 -14 -12 6
19 13 7 25 6 -11 -9 2
17 14 5 28 5 -14 -10 -6
21 18 4 20 3 -11 -13 -6
24 19 3 31 5 -13 -10 1
19 12 5 21 4 -14 -13 -6
24 19 5 15 5 -13 -10 -8
27 20 3 24 5 -13 -13 -7
21 20 -3 19 0 -19 -19 -11
13 7 -1 26 0 -19 -19 -17
15 9 -1 32 2 -19 -15 -14
20 16 -3 27 2 -15 -15 -4
18 6 -2 22 3 -15 -14 -9
21 10 -2 22 4 -17 -13 -5
25 21 -4 22 2 -15 -15 -3
25 13 -3 29 3 -9 -11 -5
21 7 -5 19 3 -17 -11 -12
23 19 -7 17 2 -17 -15 -16
25 16 -3 25 4 -16 -11 -13
26 11 -8 30 4 -17 -4 0
28 16 -9 31 4 -13 -9 3
27 21 -12 12 -1 -19 -16 -6
23 23 -15 14 -4 -21 -16 -14
15 6 -17 15 -5 -20 -14 -15
10 0 -22 14 -8 -21 -17 -6
12 6 -22 18 -8 -22 -19 -7
24 15 -18 17 -3 -21 -14 -5
33 19 -20 18 -3 -21 -13 -7
37 19 -18 14 -1 -20 -10 1
42 18 -18 8 0 -20 -5 -1
35 13 -21 8 -3 -22 -8 -2
31 11 -24 5 -6 -25 -12 2
27 13 -30 0 -13 -31 -16 -6
30 10 -32 -2 -12 -28 -15 -4
37 19 -28 3 -11 -28 -12 -2
38 26 -31 -2 -14 -31 -16 -3
34 23 -32 -2 -14 -29 -15 -3
38 25 -33 7 -14 -26 -15 -1
32 12 -32 13 -15 -25 -12 2
28 11 -34 1 -18 -31 -13 -9
27 5 -32 4 -18 -29 -13 -6
24 7 -33 8 -18 -30 -16 -5
28 10 -34 5 -19 -30 -14 -2
34 7 -31 9 -15 -27 -10 1
35 15 -34 -6 -20 -34 -12 -2
31 23 -40 -10 -24 -35 -15 -7
25 13 -35 -4 -22 -37 -15 -1
27 13 -34 1 -21 -36 -15 0
32 24 -36 -5 -20 -31 -14 -5
30 25 -37 -11 -22 -33 -13 -1
32 25 -35 -16 -20 -26 -12 -1
30 18 -33 -7 -17 -19 -9 -2
28 15 -33 -11 -16 -26 -8 3
25 7 -33 -2 -15 -28 -10 2
23 16 -33 0 -17 -28 -13 -6
22 14 -32 -10 -18 -27 -15 -8
15 2 -29 -10 -16 -29 -13 -8
14 -1 -25 -11 -15 -28 -14 -10
13 -4 -26 -11 -16 -29 -14 -10
10 -1 -24 -13 -13 -26 -13 -8
17 12 -19 0 -10 -18 -8 -8
19 22 -20 -2 -11 -22 -10 -14
24 16 -15 2 -7 -18 -10 -4
33 27 -8 2 -1 -11 -5 1
31 32 -12 -2 -1 -9 -5 -4
19 21 -12 5 -4 -12 -7 -7
18 20 -8 8 -5 -19 -10 -11
23 21 -6 8 -2 -15 -9 -8
22 11 -3 7 1 -10 -4 2
19 15 -5 1 -1 -17 -9 -4
19 23 -3 2 -1 -12 -6 -2
16 17 -2 4 1 -12 -5 -1
12 14 -1 -3 1 -15 -7 -3
11 9 3 1 1 -11 -6 5
21 17 6 -1 5 -9 -3 -1
24 19 6 6 6 -7 -5 0
12 17 3 11 2 -13 -8 -6
12 13 4 7 4 -10 -7 -8
14 13 5 3 5 -10 -8 -7
10 3 7 4 5 -9 -6 -1
11 13 4 3 4 -11 -8 -3
19 14 6 4 6 -9 -5 6
18 19 5 3 4 -12 -7 -1
9 7 8 -1 4 -9 -7 -3
9 6 7 2 1 -11 -11 -12
16 10 9 2 3 -11 -6 -8
14 14 4 -4 2 -13 -9 -8
11 11 9 -6 5 -6 -8 -7
15 20 10 -5 6 -7 -6 -6
8 18 6 -2 2 -14 -8 -13
6 11 2 -4 -1 -17 -11 -8
9 6 6 -2 4 -12 -6 -2
6 5 7 -6 2 -11 -7 -8
6 1 2 0 1 -11 -8 -12
2 -1 4 3 0 -13 -11 -10
-3 -2 4 -4 -3 -17 -13 -10
-2 4 6 -7 -3 -17 -15 -12
7 12 6 1 3 -12 -9 -9
11 12 7 4 4 -9 -5 -2
1 3 3 4 -1 -11 -13 -11
-5 -9 3 -3 0 -12 -10 -14
-2 -12 4 -9 3 -11 -9 -13
17 7 10 1 6 -6 -4 -6
21 21 9 3 6 -4 -5 -8
20 26 9 2 6 -5 -7 -3
19 22 8 4 4 -10 -8 -7
8 4 8 -3 6 -9 -4 -12
5 -3 7 -2 6 -9 -4 -3
4 0 6 4 5 -12 -7 -8
10 7 7 10 4 -9 -9 -6
13 9 8 3 8 -7 -6 5
11 10 8 8 7 -6 -6 -3
14 24 5 1 4 -7 -10 -5
11 24 3 -1 2 -8 -10 -9
3 4 4 -6 2 -9 -9 -12
-2 -1 5 -10 1 -11 -9 -5
-5 -2 3 -7 2 -10 -11 -7
-4 -12 8 1 5 -3 -8 -8
-1 -9 12 6 5 -4 -9 0
4 7 8 -1 2 -11 -11 -3
8 14 7 -2 5 -8 -9 -13
7 16 5 4 5 1 -5 -10
9 16 6 1 6 -3 -4 -7
20 21 8 -1 9 0 -4 -4
14 18 6 -7 5 -8 -5 -3
3 13 8 -8 3 -8 -5 -6
4 2 6 -4 6 -2 -4 -7
4 -7 8 3 9 -3 -3 -7
-2 -1 8 7 5 -5 -4 -8
1 6 7 8 8 -3 -3 -3
3 8 7 -3 10 -5 -6 -3
5 9 6 -3 11 1 -4 -4
8 17 5 -1 11 0 -4 -4
9 14 6 0 12 -2 1 -3
9 13 7 4 12 -2 1 -1
3 4 7 3 12 -2 -2 4
1 3 7 7 11 0 -1 2
-4 6 4 1 8 -5 -6 -6
-7 -9 3 11 10 -3 -4 1
-3 -10 5 1 12 0 -2 1
10 9 7 9 15 1 1 4
16 16 6 13 16 2 1 3
12 12 5 7 16 -1 1 -1
7 10 5 11 16 -1 3 6
4 9 3 6 14 -1 4 5
5 17 0 2 12 1 0 -8
9 13 2 4 12 -1 -1 -2
7 4 3 14 14 -2 3 -2
4 6 5 12 14 1 7 -5
9 5 5 5 14 1 6 2
10 4 6 10 15 1 4 4
1 6 2 0 15 -1 2 1
0 9 0 -5 15 -1 3 3
6 7 3 1 18 3 7 11
4 -1 1 10 17 3 7 1
2 -2 0 5 16 0 4 -3
8 7 4 5 19 8 8 7
16 18 10 11 23 8 11 9
11 21 6 18 19 7 6 5
8 18 6 12 20 6 5 7
1 3 5 7 19 2 6 7
-5 2 1 10 17 -1 8 4
-6 0 3 6 19 3 15 9
0 10 8 7 21 2 14 16
-3 11 7 9 21 2 9 8
-10 1 6 5 21 2 9 9
-8 5 8 9 21 3 10 7
0 20 6 11 19 1 9 14
0 17 9 15 21 8 9 20
-6 7 13 19 24 11 12 18
-13 3 9 7 18 5 6 14
-15 10 4 9 16 3 4 1
-14 3 10 8 20 6 9 5
-14 3 9 8 20 7 10 6
-15 -3 8 12 20 3 8 14
-19 -6 7 2 19 1 10 12
-19 6 3 1 16 1 6 11
-19 2 4 5 16 0 5 6
-15 -3 9 6 18 4 11 15
-7 5 17 20 24 7 16 18
-8 7 11 21 22 7 11 11
-5 7 10 15 22 8 10 11
-3 16 9 14 22 5 9 8
-6 18 10 7 18 2 5 4
-8 10 7 -1 15 0 3 8
-6 1 9 -1 17 7 6 8
-14 -4 6 6 17 6 8 4
-15 1 4 -3 15 1 3 5
-13 12 2 -1 14 3 2 2
-16 4 7 9 16 7 4 4
-16 -1 9 17 18 6 6 3
-12 3 11 -1 18 3 6 9
-9 7 9 -1 17 2 6 4
-13 2 7 3 17 5 4 4
-17 -6 4 0 15 3 5 2
-12 0 6 5 14 -1 4 3
-7 8 5 1 13 2 3 7
-7 6 12 6 16 5 5 11
-9 -2 11 10 19 7 11 17
-11 -7 9 5 17 7 9 11
-6 -2 10 5 18 10 9 8
0 12 11 11 17 11 9 9
-2 5 10 7 16 7 10 3
-8 2 9 -1 14 4 9 8
-7 9 7 1 12 3 6 4
-7 7 7 3 12 4 9 3
-6 -4 5 6 14 8 8 4
-9 0 4 5 13 5 6 8
-10 -1 8 8 10 0 5 3
-5 1 7 -3 9 0 5 7
-7 4 5 -4 10 1 4 8
-10 1 10 5 11 7 12 3
-5 -3 11 8 14 14 15 2
-14 -2 6 2 10 2 2 4
-21 -10 3 -3 8 -2 3 5
-15 -6 3 -1 8 3 4 4
-7 0 4 -1 10 6 7 7
-7 -1 8 -3 11 5 5 5
-8 4 4 -7 7 2 2 5
-9 -1 4 -3 9 2 7 1
-10 -6 5 4 8 1 9 -1
-10 -6 7 4 8 5 5 3
-8 -4 11 3 11 8 8 7
-13 -8 9 -6 10 3 9 10
-13 -9 6 -1 8 2 6 0
-13 -13 3 4 6 1 4 0
-18 -14 2 2 6 0 6 4
-17 -19 5 6 8 7 4 2
-16 -21 6 2 7 3 9 5
-14 -5 3 1 4 3 2 3
-16 -11 3 3 6 4 4 6
-23 -17 -1 2 3 -2 1 6
-15 -5 3 2 4 0 4 3
-9 0 7 1 8 3 7 6
-2 10 9 -2 8 7 8 12
-1 2 8 10 11 13 10 11
-9 -6 7 11 10 5 6 8
-4 0 9 6 10 5 9 15
-3 5 6 0 9 7 7 13
-6 -3 5 0 8 7 5 8
-9 -4 4 -6 8 4 5 2
-13 5 3 -5 5 1 6 -1
-9 -1 8 6 6 5 4 5
-7 -6 7 0 9 6 5 4
-11 -8 5 0 7 1 3 3
-16 -10 2 0 7 1 3 15
-17 -3 -1 -4 2 -1 -1 11
-21 -8 3 -1 7 0 8 8
-12 -15 10 3 13 8 14 9
-4 -7 8 0 13 12 12 4
-5 -3 6 -2 9 6 6 1
-12 -7 7 -1 10 5 8 0
-16 -14 5 -2 9 9 9 -1
-13 -10 6 -4 9 9 8 8
-9 -10 8 5 13 11 12 22
-8 -13 12 9 15 11 13 12
-11 -5 10 0 13 7 11 6
-16 1 7 -2 10 8 11 2
-15 -6 10 1 12 12 15 5
-10 -1 10 0 12 9 10 7
-16 -3 11 -3 10 7 7 6
-16 0 13 -9 11 10 8 6
-9 8 11 1 10 9 10 6
-13 -1 15 1 13 11 10 9
-19 -10 15 -2 13 10 9 8
-15 -1 14 4 14 10 10 16
-17 -1 14 5 13 10 10 14
-19 -5 13 1 16 12 9 4
-13 -5 16 -1 18 14 13 10
-9 3 12 1 18 12 11 7
-3 10 9 6 18 12 13 10
-7 7 6 7 18 18 14 10
-11 -2 2 5 15 13 15 16
-11 -10 6 6 17 12 18 16
-6 3 0 0 14 9 14 9
-2 15 -1 1 12 7 12 11
-1 7 0 -1 16 11 16 16
-2 -5 6 3 19 14 19 13
-1 6 5 4 18 15 18 14
-2 12 3 9 20 19 20 15
0 13 0 2 18 16 16 13
-7 -3 0 4 17 11 15 16
-8 0 -2 -4 15 11 16 16
-10 -11 0 -5 16 13 16 19
-12 -11 -4 -3 12 11 11 16
-12 -9 -5 -4 10 13 9 5
-6 -3 -2 1 10 10 10 8
-9 -8 -2 -3 10 7 11 8
-6 -2 -1 -10 10 8 11 10
1 5 3 1 14 12 14 18
1 5 2 3 14 13 16 12
0 6 3 -4 14 12 16 10
-9 4 1 -7 13 15 11 10
-16 -12 2 -6 15 14 12 22
-15 -10 0 -9 13 14 12 18
-15 -15 2 -10 13 9 17 14
-20 -20 3 -2 12 6 10 18
-21 -20 4 -2 9 4 7 8
-24 -27 4 2 9 9 8 5
-20 -25 6 -2 8 4 6 9
-19 -16 2 -12 8 3 4 8
-24 -27 2 -11 8 8 5 6
-31 -27 -2 -12 3 -2 2 -2
-30 -23 -5 -10 2 -4 4 3
-27 -23 -1 -12 5 3 2 11
-24 -23 3 0 6 6 5 4
-19 -22 7 3 10 8 9 6
-15 -17 5 3 10 5 12 5
-21 -19 7 -2 7 2 7 2
-28 -25 4 -14 6 5 4 -1
-30 -33 7 -7 8 7 7 5
-30 -31 2 -6 7 2 5 2
-29 -32 4 -10 7 7 4 0
-25 -27 6 -10 12 10 8 10
-13 -13 6 -5 15 13 14 11
-16 -18 7 -7 13 13 12 6
-25 -17 2 -10 9 7 5 -1
-24 -18 1 -9 10 7 6 7
-25 -27 2 -7 11 7 8 17
-29 -26 5 -3 11 3 6 7
-26 -20 8 -9 13 10 7 4
-20 -13 6 -6 14 13 12 10
-13 -10 7 -3 18 9 16 7
-20 -22 5 -8 16 7 10 6
-31 -33 -1 -17 11 2 6 1
-33 -33 0 -18 8 1 4 8
-32 -29 1 -13 8 3 4 6
-30 -21 -1 -11 8 6 5 -1
-24 -27 4 -1 16 10 14 10
-18 -13 11 2 18 10 13 13
-20 -8 15 -3 22 19 12 16
-29 -7 15 -5 26 20 17 9
-34 -5 17 1 29 22 18 13
-31 -9 24 5 35 28 23 18
-32 -13 34 13 41 29 27 13
-33 -14 32 14 43 33 28 15
-27 -5 32 25 50 42 33 18
-20 -3 41 50 70 59 46 27
-13 -2 51 74 88 74 53 28
-6 -5 60 100 109 95 65 34
14 8 71 123 133 113 80 48
40 17 95 150 159 135 96 57
53 20 92 139 169 150 109 61
61 32 68 93 163 161 121 82
67 41 38 54 157 161 124 91
67 41 -1 19 155 161 126 87
73 62 -77 -28 146 160 128 94
75 58 -147 -67 122 147 121 88
74 39 -180 -96 73 103 90 68
80 18 -189 -119 22 46 46 47
61 -24 -191 -142 -33 -16 4 15
37 -37 -191 -195 -102 -76 -34 -9
8 -46 -197 -251 -154 -108 -54 -18
-12 -51 -212 -264 -186 -128 -60 -22
-25 -54 -203 -259 -191 -128 -62 -24
-36 -63 -185 -231 -179 -127 -62 -26
-47 -66 -158 -191 -156 -112 -55 -25
-43 -62 -131 -156 -134 -98 -52 -25
-42 -71 -99 -125 -109 -78 -48 -24
-47 -72 -79 -99 -89 -64 -40 -15
-46 -65 -58 -74 -71 -50 -32 -16
-38 -57 -38 -59 -53 -34 -24 -16
-28 -48 -24 -30 -37 -19 -12 -7
-24 -39 -21 -20 -31 -15 0 -7
-23 -34 -16 -18 -25 -9 2 -5
-19 -25 -14 -18 -23 -6 -2 -3
-21 -25 -11 -22 -22 -9 -3 -6
-26 -31 -7 -18 -20 -7 -1 -4
-25 -29 -5 -13 -17 -8 -2 -1
-19 -28 -4 -11 -16 -6 1 4
-22 -26 -4 -4 -15 -5 2 3
-25 -25 -6 -8 -16 -7 0 1
-20 -20 0 -2 -11 0 2 10
-13 -20 7 3 -6 12 8 20
-16 -16 5 -3 -9 11 3 6
-20 -15 7 -2 -10 8 3 -1
-18 -17 6 8 -9 4 6 12
-19 -21 6 1 -7 3 6 15
-23 -21 6 2 -8 5 9 14
-22 -11 5 3 -10 0 5 12
-24 -21 5 7 -7 4 6 8
-24 -23 1 -1 -10 3 4 2
-23 -24 4 4 -8 1 3 2
-26 -23 7 9 -7 4 4 5
-26 -19 11 8 -9 4 4 3
-26 -18 6 8 -8 -2 2 1
-26 -18 7 1 -4 2 6 8
-19 -17 11 11 0 9 8 16
-10 -14 13 18 2 10 18 15
-15 -17 10 8 0 10 16 7
-19 -19 9 7 -1 7 8 6
-17 -10 7 8 -4 0 8 3
-22 -15 8 1 -5 0 6 0
-32 -24 6 3 -8 -4 1 2
-28 -20 4 1 -7 1 3 2
-22 -23 8 7 -3 4 7 4
-19 -18 16 13 -1 6 7 5
-13 -8 12 18 1 7 12 8
-20 -15 8 -1 -1 8 7 10
-23 -25 9 1 -1 5 5 11
-24 -23 2 6 -7 5 2 2
-27 -20 5 7 -7 2 2 7
-17 -17 10 3 -2 7 5 8
-14 -8 10 1 -1 4 5 5
-16 -20 12 7 2 2 6 7
-15 -22 11 8 1 3 8 9
-16 -21 10 5 1 3 6 15
-19 -18 11 5 -2 2 5 12
-18 -17 11 2 0 2 7 3
-13 -6 9 2 -1 3 5 -1
-12 -12 13 7 3 4 8 7
-18 -13 11 -3 -1 8 5 8
-23 -20 6 -4 -3 0 3 3
-23 -23 9 -3 -1 0 4 3
-16 -17 8 -5 -3 -2 1 -2
-9 -8 8 4 -2 1 5 -3
-16 -6 7 9 -3 2 8 2
-21 -20 11 6 -1 2 9 2
-17 -21 14 6 2 1 5 9
-18 -21 11 2 1 4 6 11
-16 -23 10 6 1 4 6 6
-16 -20 11 3 0 3 6 7
-26 -30 7 5 -1 1 6 3
-24 -32 7 4 -3 2 3 4
-22 -29 8 7 -2 -1 2 7
-20 -23 12 1 -1 5 6 4
-8 5 7 9 -4 2 2 0
-10 -1 8 14 -4 -1 0 1
-19 -16 8 8 -4 0 1 6
-18 -15 10 7 0 6 4 6
-18 -12 8 -2 1 6 4 16
-16 -16 9 7 2 2 4 12
-17 -21 11 2 0 0 4 11
-19 -22 12 1 -2 1 2 4
-18 -12 8 5 -4 -2 -2 -2
-18 -16 8 4 -1 2 1 -2
-17 -23 10 14 1 2 4 5
-18 -13 5 11 -1 0 1 5
-14 -12 6 10 0 3 3 2
-15 -17 8 8 -2 -4 4 1
-20 -22 8 7 -3 1 2 5
-13 -15 5 -2 0 1 7 9
-12 -14 8 3 -1 1 4 10
-14 -15 3 6 -3 -2 2 8
-3 -10 6 3 1 -1 4 8
-1 -4 14 7 3 1 9 8
-10 -17 9 8 2 -2 7 3
-15 -21 3 5 1 -3 5 9
-11 -15 2 6 -1 -1 2 10
-9 -14 8 13 0 2 6 3
-11 -13 2 14 1 0 4 9
-9 -8 0 4 -1 -3 3 15
-5 -9 2 4 0 0 5 14
3 -1 2 4 -2 2 4 12
-3 -8 -2 7 -1 -3 5 14
-12 -21 -2 9 -3 1 4 13
-13 -20 -3 7 -4 2 0 17
-11 -15 -6 2 -5 -4 2 12
-9 -15 -5 5 -3 -5 6 17
-9 -9 -8 7 -8 -6 3 8
-15 -20 -12 0 -7 -5 3 9
-18 -27 -10 4 -8 -4 5 12
-16 -22 -7 3 -12 -6 0 10
-13 -16 -9 1 -12 -8 3 14
-4 -2 -10 -2 -9 -6 6 16
-7 -11 -10 4 -8 -5 8 14
-7 -11 -15 -1 -11 -9 4 14
-4 -6 -19 -8 -14 -12 0 6
-7 -3 -24 -14 -18 -12 -2 4
-7 -18 -21 -6 -16 -10 2 4
4 -13 -19 -2 -15 -8 4 14
2 -9 -20 -4 -17 -7 5 15
-8 -14 -24 -17 -22 -11 3 11
-10 -27 -19 -11 -20 -12 4 18
-4 -20 -21 -10 -21 -16 4 13
1 -9 -19 -6 -21 -14 3 11
3 -14 -20 -14 -22 -13 4 18
-3 -11 -26 -22 -24 -15 3 14
1 -6 -27 -15 -24 -16 3 14
8 -5 -26 -14 -25 -15 8 18
0 -9 -26 -24 -25 -17 5 19
-3 -10 -30 -19 -25 -19 2 22
-5 -12 -29 -18 -26 -19 3 18
-7 -15 -29 -22 -28 -21 -1 16
-4 -13 -29 -24 -29 -20 -2 15
0 -10 -27 -20 -26 -16 2 10
-5 -11 -27 -21 -28 -15 3 9
-7 -16 -26 -18 -25 -13 5 18
-3 -13 -26 -10 -23 -14 3 14
-2 -9 -24 -19 -24 -13 6 13
-4 -10 -24 -24 -23 -13 2 7
-2 -3 -25 -23 -23 -13 1 11
-6 -8 -23 -19 -20 -12 8 9
-7 -12 -20 -16 -18 -8 3 5
-4 -15 -12 -14 -12 -5 9 10
-2 -8 -13 -7 -13 -5 8 13
0 2 -9 -7 -12 -3 7 13
-4 -5 -4 -9 -8 1 10 17
-11 -8 -2 -3 -7 1 10 16
-14 -5 -5 -1 -10 -2 8 7
-15 -6 -4 -2 -7 3 9 10
-18 -12 -4 -3 -6 4 10 6
-23 -10 1 -10 -9 -3 5 9
-22 -6 -3 -17 -10 -4 0 4
-22 -10 -1 -17 -9 -1 0 1
-16 -15 9 -6 -3 7 7 7
-15 -2 9 -11 -5 2 5 7
-19 -9 7 -12 -4 7 9 10
-19 -16 7 -1 -2 8 9 6
-17 -6 8 -2 -2 8 7 11
-11 -2 9 -7 -1 8 7 11
-14 -6 13 -14 1 14 8 10
-23 -9 10 -10 -3 8 4 9
-20 -2 11 -4 -5 3 2 3
-12 -3 24 0 3 13 10 8
-7 0 16 -11 3 15 9 14
-6 -4 19 -8 2 17 9 20
-12 -12 18 -10 2 10 11 14
-13 -3 14 -9 1 8 11 8
-10 -1 13 -3 2 8 9 7
-10 -1 11 -6 1 7 8 10
-10 -5 16 -4 1 11 6 14
-14 -6 13 -4 -3 8 6 1
-16 -11 7 -10 -6 7 4 6
-15 -4 10 -16 -7 3 0 5
-21 -12 13 -14 -6 3 -1 6
-24 -19 9 -8 -7 1 0 2
-16 -14 13 -6 -1 7 5 5
-10 -5 13 -6 2 12 5 2
-11 1 11 -7 -1 9 5 12
-15 -6 14 -8 1 11 8 15
-13 -9 13 -7 -1 11 7 9
-11 -8 11 -5 -2 9 5 11
-20 -11 8 -13 -6 9 1 1
-22 -12 11 -9 -5 12 1 11
-19 -17 13 -13 -3 6 5 9
-22 -20 13 -15 -3 5 1 -2
-22 -19 14 -9 -3 7 3 5
-17 -18 11 -7 0 9 7 6
-16 -14 11 -14 -3 7 3 -1
-15 -5 11 -19 -3 6 5 -2
-14 -1 8 -20 -7 4 -1 -4
-22 -17 6 -17 -8 6 -4 -5
-19 -15 10 -14 -5 8 1 0
-9 -4 13 -5 -2 7 3 3
-11 -12 13 -11 -2 5 1 -1
-16 -22 13 -11 -1 9 3 3
-13 -9 9 -10 -3 7 0 1
-8 1 9 -10 -2 10 0 2
-13 -4 11 -14 -3 9 0 0
-17 -10 13 -12 0 11 8 5
-16 -6 11 -7 -3 5 4 1
-17 -14 11 -5 -3 8 2 9
-21 -15 10 -10 -4 8 1 13
-22 -17 8 -12 -4 5 -1 5
-17 -13 9 -7 -3 6 -3 6
-10 -1 10 -10 -3 8 -1 -3
-11 2 9 -7 -4 8 -1 -7
-13 3 10 -8 -3 7 -1 -1
-11 4 8 -18 -5 10 0 2
-11 -3 12 -8 -1 15 5 -2
-7 -6 16 -5 4 13 8 4
-6 -3 15 -5 5 16 8 3
-12 -7 11 -1 2 14 5 2
-12 -3 8 6 -1 9 0 -2
-12 -2 9 1 -2 10 1 0
-12 -2 9 -10 -1 10 3 3
-8 0 9 -10 -3 11 2 3
-11 -10 11 -3 3 15 6 2
-11 -10 12 -2 5 14 10 4
-12 -7 10 -7 3 13 3 4
-17 -5 12 -10 1 10 0 9
-19 -8 10 -8 1 12 0 4
-19 -9 8 -8 -2 9 -1 -1
-14 -3 10 -6 0 10 2 5
-8 3 8 -13 2 8 5 10
-8 0 7 -10 3 13 3 10
-9 0 10 -8 3 16 5 5
-7 1 11 -2 4 15 5 1
-6 -7 12 -1 8 18 7 6
-9 -7 11 0 6 17 8 7
-16 -7 7 -5 2 14 4 -1
-19 -10 3 -11 1 9 1 -2
-19 -9 6 -1 2 12 2 1
-11 1 9 1 5 18 4 3
2 10 10 1 8 17 5 6
-1 3 12 -2 8 16 8 8
-3 2 10 -3 7 20 7 10
-6 1 8 2 7 22 5 12
-10 -5 6 -2 5 16 7 4
-4 1 9 1 7 16 9 0
2 6 14 7 11 18 11 10
-1 1 12 9 10 20 16 4
-4 2 8 7 6 21 9 -2
-5 0 8 5 6 18 6 -1
-7 3 8 8 5 13 7 2
-9 11 4 -2 2 16 3 1
-10 1 6 -5 4 15 7 -1
-8 0 8 -6 5 13 6 5
1 16 6 -6 2 11 2 -1
-3 10 7 -7 0 13 5 -5
-4 4 7 -5 2 11 5 -5
-1 9 4 -6 3 20 4 0
2 8 7 -3 6 24 8 7
-3 1 10 5 6 20 10 14
-7 0 13 1 4 14 5 2
-2 3 13 2 6 13 11 7
-6 4 6 -2 3 12 7 2
-6 0 4 -7 3 13 3 -5
-6 0 6 3 5 15 5 2
-5 6 3 -8 2 15 5 5
1 13 5 -12 1 15 2 6
0 13 8 -8 2 16 2 6
-5 4 7 -1 1 16 2 -1
-7 0 8 4 1 13 11 -2
-5 -4 12 8 3 13 10 7
-2 -6 11 1 5 16 6 0
-4 -9 7 -5 4 17 4 -3
-11 -11 3 -6 0 11 -1 -7
-12 -5 2 -11 -1 10 1 -5
-11 -1 3 -7 0 10 3 -7
-8 1 2 -6 -1 9 0 -5
-9 3 4 -4 1 12 3 -2
-10 4 4 -5 0 12 2 -1
-14 -4 1 1 -3 7 2 -6
-12 0 6 3 -5 2 -5 -15
-2 6 5 2 0 7 2 -3
1 4 8 5 5 17 5 8
7 8 11 6 6 19 5 2
7 16 9 0 4 11 4 -3
10 14 12 1 6 14 8 3
9 15 12 9 7 16 7 3
3 3 8 0 4 16 3 -2
0 -1 9 -1 4 12 5 -6
-5 0 6 -8 -1 6 -1 -12
-8 2 2 -9 -2 5 -4 -8
-8 3 5 -7 -1 6 -1 -9
-4 0 9 -3 3 10 1 -7
-1 2 7 -4 1 9 0 -10
-6 -6 4 5 2 9 3 -7
-6 -5 4 7 2 9 2 -1
0 1 7 10 4 13 4 -3
0 3 7 4 4 10 4 3
-4 1 6 4 4 14 1 -6
-6 -2 5 11 3 14 0 -10
-4 -5 8 9 4 12 2 -4
-2 0 8 8 1 6 1 -6
5 10 5 6 1 9 2 -8
6 12 6 5 4 14 2 -2
4 11 6 1 5 12 3 3
0 6 7 -4 2 6 1 -1
-4 2 4 -4 -1 9 -4 -12
-2 -5 2 1 -1 10 -4 -7
0 1 2 3 -2 3 -4 -7
2 4 8 2 2 6 -1 -5
-1 3 6 -2 0 5 -1 -11
-6 4 4 5 0 3 -4 -11
-1 4 8 4 1 5 -2 -11
-4 -7 9 -1 2 5 -1 -6
-6 -6 5 -8 0 4 -1 -5
-7 -9 5 -8 -1 5 -4 -6
-2 5 7 -4 1 7 2 -4
5 11 5 5 1 7 4 -3
-3 0 4 6 2 7 1 -5
-7 2 2 8 -2 5 -2 -13
-5 0 3 9 -1 7 -4 -17
-6 -5 2 6 1 8 -2 -9
-3 2 4 1 2 5 -1 -10
5 7 10 -1 6 9 6 -4
7 5 10 1 7 13 3 0
8 4 11 8 5 11 1 -2
3 1 10 1 2 4 0 -9
1 7 3 -4 -1 7 -5 -10
5 21 5 1 -1 8 -1 -10
3 20 4 -4 0 1 -1 -7
0 4 6 -1 1 3 -3 -7
-2 7 7 -4 1 2 -4 -12
-1 4 11 3 0 3 -5 -12
-5 -6 12 4 1 5 -4 -11
-3 -3 4 -5 -1 2 -5 -10
-3 -2 5 -4 -1 3 -6 -12
-2 14 3 0 -3 0 -6 -16
-1 11 4 2 -2 0 -4 -13
-1 1 11 6 3 2 -1 -6
1 2 11 3 3 4 -2 -7
6 9 8 2 2 4 -2 -13
6 12 7 5 1 1 0 -14
-2 3 7 7 2 2 -1 -12
-5 8 5 5 -2 1 -6 -14
-9 -2 6 8 0 1 -4 -11
-10 -10 5 2 1 -1 -4 -16
-7 -8 7 -1 3 1 0 -14
-6 -5 6 7 1 -2 -5 -16
-5 1 6 1 0 2 -5 -12
4 12 7 4 2 4 -3 -13
13 21 12 14 5 5 0 -13
16 24 14 10 6 5 0 -15
7 18 8 7 2 1 -4 -20
1 12 5 3 0 0 -5 -18
-4 6 10 -1 1 1 -5 -9
-2 8 9 -1 1 4 -5 -16
8 15 11 12 7 7 -2 -6
6 10 15 13 11 6 1 -3
-2 3 15 12 7 3 -1 -6
6 19 18 10 5 1 -2 -10
5 17 24 18 7 4 5 -12
-3 13 16 13 4 0 -2 -11
-12 13 9 1 1 -2 -5 -17
-14 5 12 5 3 -2 0 -9
-5 15 12 1 2 -1 -5 -10
2 23 14 2 5 1 -3 -11
6 23 18 11 8 2 0 -10
16 34 22 19 11 4 4 0
15 25 24 20 12 6 4 1
11 20 21 14 12 8 3 -7
11 21 18 12 10 10 3 -3
11 24 11 13 7 4 0 -11
10 29 6 18 6 2 -1 -14
6 23 5 5 7 3 1 -13
5 13 6 3 5 4 -1 -16
9 14 3 6 5 6 -1 -12
9 22 2 15 4 1 -3 -11
10 23 5 16 5 1 -1 -8
12 27 5 9 6 1 1 -9
16 34 3 11 9 8 5 -10
21 28 10 13 13 11 6 -4
20 20 8 17 12 9 3 -5
13 21 4 10 6 9 -3 -8
14 23 5 3 4 2 -2 -18
11 21 4 4 1 -5 -6 -13
8 8 3 13 3 -1 -2 -3
13 9 1 12 5 2 0 -5
16 19 -2 5 0 -5 -5 -7
17 19 4 6 1 -7 -6 -18
22 32 6 6 3 -5 -6 -13
14 17 4 10 5 1 -5 -10
11 15 9 10 4 -3 -5 -12
17 30 7 11 2 -2 -5 -13
15 28 2 12 0 -5 -6 -18
10 24 7 8 -1 -7 -6 -23
5 15 6 11 -1 -9 -10 -21
0 6 5 15 0 -6 -7 -19
5 10 2 5 -4 -13 -10 -22
4 5 5 13 -1 -12 -10 -23
1 2 6 13 0 -10 -9 -25
-4 -5 4 5 -2 -11 -14 -22
-8 -2 2 5 -8 -13 -18 -28
-7 -2 4 3 -9 -17 -18 -27
-8 -3 -2 -3 -10 -18 -16 -24
-4 -1 1 0 -9 -16 -13 -24
7 11 4 3 -6 -16 -15 -23
8 15 5 8 -7 -17 -16 -26
8 10 8 6 -3 -16 -13 -23
3 4 5 5 -3 -15 -12 -28
-1 6 1 6 -8 -17 -19 -27
-1 11 2 7 -10 -19 -18 -31
-2 3 5 4 -8 -18 -17 -29
0 -5 8 17 -3 -13 -11 -16
-1 -5 6 14 -5 -15 -13 -25
-3 -3 3 0 -7 -19 -17 -34
5 7 6 14 -5 -18 -13 -25
9 8 10 13 -2 -16 -10 -23
1 3 6 8 -6 -14 -12 -25
3 9 5 8 -8 -17 -13 -35
1 9 5 9 -8 -18 -12 -31
2 8 6 9 -5 -14 -9 -31
6 14 5 8 -6 -8 -15 -33
3 11 7 2 -5 -16 -17 -32
7 15 8 7 -3 -15 -14 -28
8 14 4 11 -3 -15 -13 -29
10 15 4 7 -5 -19 -15 -30
7 18 5 7 -5 -20 -14 -28
5 11 9 7 -4 -16 -12 -29
6 4 11 9 -1 -8 -11 -23
5 4 14 13 0 -8 -9 -22
4 14 12 20 1 -10 -10 -26
4 21 16 19 4 -7 -7 -28
-1 22 22 16 12 -1 -3 -17
-3 26 21 14 13 1 -4 -7
-1 26 29 28 19 14 1 -14
-2 22 28 37 20 10 0 -22
5 24 32 44 31 16 9 -14
14 40 38 50 45 27 23 -3
16 45 48 75 62 47 39 5
21 39 55 94 80 63 38 0
38 33 68 124 104 83 56 8
57 39 89 156 131 104 74 19
69 39 92 156 143 114 86 26
76 43 75 109 134 119 88 32
85 52 47 64 128 126 97 43
91 63 12 41 127 130 101 50
102 77 -49 3 127 134 109 55
113 93 -128 -41 111 122 110 60
114 93 -176 -83 67 80 81 46
111 61 -194 -106 19 25 35 19
100 25 -202 -123 -34 -34 -12 -8
68 -13 -200 -173 -94 -91 -52 -44
42 -21 -208 -229 -144 -128 -76 -54
18 -26 -221 -264 -178 -150 -84 -45
-1 -29 -218 -259 -193 -160 -88 -52
-10 -43 -196 -231 -181 -154 -85 -51
-14 -40 -170 -192 -160 -138 -81 -61
-18 -37 -137 -146 -137 -121 -76 -60
-14 -29 -106 -114 -110 -104 -68 -60
-13 -36 -78 -84 -84 -82 -53 -56
-18 -47 -55 -64 -66 -66 -45 -42
-17 -41 -39 -46 -50 -58 -42 -45
-7 -22 -23 -27 -36 -45 -33 -42
1 -6 -15 -14 -29 -36 -28 -31
5 -2 -16 -14 -25 -35 -23 -25
6 -5 -11 -2 -19 -32 -20 -28
4 1 -12 -2 -20 -33 -25 -32
3 8 -11 -2 -21 -29 -26 -34
10 15 -5 -3 -16 -26 -21 -26
11 9 1 1 -10 -25 -17 -18
3 -1 1 4 -10 -24 -17 -16
-3 -4 -4 1 -13 -26 -21 -29
-7 -1 -4 2 -14 -27 -20 -32
-5 3 0 4 -13 -26 -18 -28
5 10 3 7 -8 -23 -17 -20
16 19 7 11 -5 -20 -11 -21
18 24 12 20 -3 -20 -12 -19
12 13 11 22 -1 -15 -10 -18
9 13 8 15 -4 -16 -13 -22
11 20 3 11 -8 -22 -16 -30
2 17 2 14 -8 -21 -18 -27
0 6 6 18 -5 -21 -13 -20
0 5 11 11 -4 -21 -10 -24
-4 -1 7 9 -8 -25 -13 -29
-5 -1 8 15 -7 -25 -15 -26
-2 -2 10 14 -5 -19 -16 -27
-1 -7 10 14 -5 -18 -17 -31
-5 -3 8 12 -7 -23 -18 -27
-2 1 6 24 -6 -19 -17 -22
2 8 10 21 -6 -19 -14 -23
16 20 13 21 0 -15 -9 -21
13 14 11 16 2 -16 -8 -20
5 9 9 21 -1 -19 -11 -21
3 10 7 14 -4 -21 -13 -24
5 13 11 17 -2 -20 -14 -27
8 7 16 19 1 -17 -9 -23
2 5 12 18 -1 -19 -14 -24
3 4 13 16 -1 -18 -12 -23
5 8 11 9 -2 -17 -15 -26
1 8 8 11 -5 -15 -16 -28
0 4 12 18 -4 -19 -16 -27
-1 0 12 18 -7 -24 -16 -27
-7 -8 9 12 -7 -24 -15 -26
-3 6 10 17 -6 -20 -16 -27
7 11 17 21 -1 -17 -10 -24
8 6 15 26 2 -16 -9 -24
9 11 14 32 2 -16 -12 -19
7 16 11 20 -2 -19 -16 -20
3 17 7 16 -6 -21 -19 -32
0 13 9 16 -6 -19 -17 -32
0 6 10 11 -4 -17 -12 -25
6 10 12 17 -3 -16 -12 -17
5 10 11 11 -3 -18 -12 -15
5 10 12 16 -3 -17 -12 -19
5 11 13 18 -2 -16 -11 -22
1 6 13 22 -3 -19 -13 -28
-2 -4 10 30 -4 -18 -14 -26
-5 0 10 19 -7 -22 -16 -24
-3 12 9 13 -8 -23 -17 -19
10 19 16 26 -1 -13 -10 -22
20 19 16 36 5 -12 -6 -21
11 14 13 29 3 -15 -10 -18
0 5 9 24 -2 -19 -14 -20
0 4 9 20 -2 -20 -13 -18
-1 5 9 25 -2 -20 -15 -19
2 12 11 23 -3 -22 -16 -26
7 11 13 26 0 -19 -13 -23
7 8 14 31 1 -11 -10 -25
2 4 10 28 -2 -16 -12 -29
-6 -2 6 21 -6 -20 -18 -27
-8 0 4 28 -7 -21 -19 -27
0 5 8 42 -4 -17 -14 -24
6 1 12 37 2 -12 -7 -15
9 7 17 25 2 -16 -8 -12
14 14 19 26 2 -16 -7 -14
10 15 14 30 0 -17 -12 -22
5 9 12 33 1 -17 -11 -23
1 5 13 28 1 -15 -8 -23
1 4 13 32 -1 -17 -10 -19
5 3 8 32 -1 -17 -11 -21
1 -5 11 28 0 -18 -10 -19
4 4 7 23 -6 -19 -17 -22
12 17 8 27 -5 -18 -15 -24
13 17 10 34 0 -18 -11 -23
6 13 9 32 -3 -22 -10 -24
10 11 10 29 -2 -17 -14 -24
9 10 14 24 0 -16 -13 -23
5 1 12 30 2 -13 -10 -22
8 1 8 32 1 -15 -10 -20
6 6 3 25 -4 -22 -10 -25
5 8 2 23 -4 -20 -11 -22
1 14 -2 22 -9 -21 -17 -24
-1 7 -3 29 -9 -24 -16 -20
4 0 2 35 -2 -15 -10 -13
8 2 3 27 -1 -12 -8 -15
15 18 1 36 -4 -18 -12 -14
20 17 6 40 1 -16 -6 -8
12 5 1 39 -1 -18 -9 -9
3 1 -7 31 -7 -24 -13 -15
4 0 -7 21 -8 -26 -14 -21
9 5 -8 16 -10 -26 -12 -21
14 12 -8 23 -8 -22 -13 -15
19 18 -7 28 -8 -24 -8 -15
17 14 -7 24 -10 -26 -6 -14
19 15 -9 32 -9 -26 -8 -14
18 15 -8 30 -10 -26 -6 -16
1 -2 -13 18 -16 -32 -15 -17
-4 -5 -17 21 -17 -32 -17 -18
7 8 -13 18 -15 -27 -11 -12
14 13 -15 15 -14 -24 -8 -10
10 12 -18 11 -17 -29 -14 -16
10 9 -20 15 -17 -29 -11 -10
16 13 -18 14 -17 -29 -11 -13
10 11 -17 10 -23 -33 -15 -16
10 17 -24 10 -24 -33 -15 -13
17 23 -19 13 -23 -36 -12 -11
18 23 -16 14 -22 -35 -9 -12
19 24 -22 10 -24 -35 -11 -7
18 13 -23 3 -24 -31 -9 -10
16 9 -24 5 -24 -30 -12 -11
11 5 -27 6 -25 -34 -10 -12
5 -3 -24 12 -25 -35 -12 -11
10 6 -22 6 -24 -35 -13 -12
18 11 -23 5 -21 -33 -11 -4
24 16 -24 7 -22 -32 -11 -7
16 13 -23 5 -21 -31 -11 -3
14 9 -23 4 -20 -26 -11 -2
11 9 -23 1 -22 -33 -10 -1
7 11 -27 -2 -25 -38 -13 -10
4 3 -27 2 -24 -33 -15 -5
10 2 -26 0 -23 -31 -14 -4
14 6 -25 -4 -22 -36 -12 -8
13 4 -21 -3 -19 -32 -13 -15
11 15 -16 5 -17 -29 -10 -12
11 21 -14 10 -18 -28 -13 -10
9 9 -13 8 -14 -26 -8 -15
14 7 -6 16 -9 -18 -2 -8
11 16 -7 15 -10 -18 -5 -10
11 19 -4 4 -8 -19 -7 -8
19 28 -2 10 -3 -14 -3 -5
17 20 -2 13 -4 -16 -5 -2
-1 2 -2 14 -5 -13 -8 3
2 13 0 12 -6 -13 -9 -7
6 14 4 16 -5 -14 -9 -7
2 8 4 11 -4 -15 -9 -5
2 6 13 17 -3 -16 -7 -6
3 7 10 25 -2 -14 -7 -2
6 6 12 24 4 -8 -1 -7
11 23 8 15 2 -13 -2 -12
-5 5 4 8 -3 -14 -9 -17
-16 -10 7 3 -4 -16 -11 -15
-12 -2 4 14 -5 -19 -10 -7
-9 0 6 23 -2 -11 -3 -9
2 19 7 9 -2 -13 -5 -13
18 30 13 14 2 -10 -1 -6
13 25 15 20 2 -10 -1 -5
7 18 15 13 0 -10 -6 -7
5 26 9 9 -5 -18 -13 -12
0 18 13 5 -4 -16 -9 -11
-9 1 11 6 -3 -12 -7 -12
-1 2 15 9 0 -6 -7 -13
10 18 13 9 0 -12 -7 -12
7 21 15 13 -2 -11 -9 -12
2 10 18 22 0 -9 -7 -11
4 11 19 22 -1 -9 -4 -11
8 19 14 18 1 -10 -5 -6
3 11 17 13 1 -10 -6 -12
1 3 15 12 0 -10 -5 -4
2 2 13 17 -1 -13 -7 -8
3 10 10 19 -3 -17 -9 -12
0 11 10 11 -3 -14 -5 -14
-6 5 10 8 -4 -13 -10 -12
-1 5 9 7 -4 -14 -12 -4
3 7 10 9 -2 -14 -9 -2
-1 6 13 10 -2 -13 -6 -3
0 11 12 11 -4 -17 -5 -12
4 10 10 14 -2 -13 -8 -12
3 10 10 14 -2 -10 -3 -10
1 13 14 9 -3 -11 -5 -12
0 2 19 12 0 -11 -5 -10
-3 2 14 13 0 -12 -1 -8
1 15 11 9 -2 -16 -5 -5
0 10 14 6 -4 -15 -6 -6
-3 3 18 9 -2 -12 -5 -5
0 11 11 8 -2 -13 -6 -8
-2 7 13 10 -4 -14 -5 -6
-6 5 12 6 -5 -12 -10 -14
-4 6 10 9 -4 -15 -9 -14
3 5 14 12 -2 -14 -6 -11
2 7 16 7 -2 -14 -2 -10
-1 2 15 10 -2 -11 -4 -10
6 17 13 18 -1 -11 -6 -6
-5 12 6 12 -7 -16 -12 -6
-16 -6 9 6 -8 -15 -12 -10
-8 -2 15 14 -2 -8 -8 -10
2 8 14 13 0 -11 -6 -11
3 7 13 10 -1 -13 -6 2
1 7 15 13 -1 -12 -6 -3
1 13 12 14 -2 -11 -7 -8
6 17 13 12 0 -10 -1 -1
2 14 12 13 0 -10 -4 -6
-11 -1 9 8 -2 -13 -7 -11
-15 -2 7 -1 -6 -17 -11 -17
-4 9 7 3 -7 -18 -12 -10
3 15 11 11 -2 -10 -7 -4
6 15 13 12 1 -4 -1 -4
1 12 10 11 -1 -9 -2 -5
1 19 14 14 1 -11 -3 -3
9 26 21 20 5 -1 1 4
7 22 14 15 3 -4 -2 3
1 16 10 18 2 -7 -4 -1
1 21 11 15 4 -3 -4 -4
-3 18 10 15 3 -7 -5 -8
-4 10 15 17 3 -3 -3 -4
-4 -2 15 8 7 -1 0 1
-7 5 13 6 5 -5 -1 -9
-9 11 13 3 2 -7 -4 -5
-2 14 15 4 3 -5 0 4
6 18 15 12 8 -2 6 -1
1 13 10 9 5 -6 3 -4
11 20 10 18 6 -6 5 5
12 33 9 20 7 -6 2 6
-4 17 8 2 2 -5 -4 -5
-6 5 9 8 4 -1 -1 0
-9 3 14 11 7 -2 1 2
-5 16 13 7 4 -8 -1 -1
-3 14 12 20 5 -4 -1 2
-4 8 14 18 6 -1 7 8
-7 8 11 14 8 -1 5 1
-6 10 7 7 4 -2 5 0
3 13 9 8 6 -4 3 6
6 17 11 1 7 -3 4 1
3 16 11 12 10 -2 8 -2
7 23 16 12 8 -4 7 6
14 30 13 15 7 -4 5 6
3 22 10 16 7 -6 3 -2
-3 15 6 14 5 -6 0 -4
-1 12 7 11 7 -5 3 -1
-2 7 11 10 10 -3 6 5
1 15 12 12 8 -3 9 2
0 21 13 10 5 0 0 -4
-7 9 10 6 7 -1 2 -4
-5 10 8 4 7 -1 3 0
1 12 10 10 7 -1 3 0
0 9 12 7 8 -2 4 0
-2 3 12 8 8 0 5 5
-2 4 16 12 9 4 5 4
0 10 11 16 7 -1 4 2
5 19 11 9 7 -2 4 -1
4 18 9 5 7 -4 9 8
-4 14 7 9 6 -5 6 7
-10 11 4 10 5 -6 1 3
-1 17 8 8 6 -2 6 6
2 16 8 12 7 -1 4 8
9 20 13 11 10 4 6 11
12 21 16 15 13 6 9 14
9 16 14 13 11 1 7 8
6 24 8 6 7 2 4 9
5 19 8 10 7 6 5 12
3 16 10 7 6 -2 5 12
1 11 14 10 7 -1 6 7
2 6 14 12 8 0 7 1
-2 9 7 8 4 -2 2 -2
-2 15 4 4 0 -7 0 -4
-3 9 7 10 3 -4 3 2
1 6 13 10 7 4 8 6
0 9 9 9 4 3 6 3
-2 7 7 4 1 -3 3 2
5 13 11 4 4 -2 5 10
6 18 11 11 5 2 8 10
6 26 8 17 4 -4 4 10
8 24 11 15 7 1 5 11
-2 13 9 14 4 3 2 9
-9 4 5 8 2 2 0 2
-8 4 8 4 4 2 1 5
-5 8 7 13 6 5 3 13
-3 12 13 7 6 2 4 4
-3 0 12 5 7 6 5 6
-2 -3 11 6 3 6 8 14
4 11 16 16 7 3 15 20
7 20 14 4 6 2 9 11
-4 11 7 -5 1 -3 2 11
-9 6 7 -1 4 1 4 14
-7 12 7 3 3 0 4 5
0 12 10 9 4 1 7 4
5 20 5 6 0 -2 0 6
3 21 4 10 1 -4 2 7
5 11 7 16 5 -1 8 10
-2 7 9 9 5 3 8 12
-8 8 9 5 6 6 9 10
-9 9 7 -2 2 6 6 7
2 16 6 4 3 2 8 3
14 22 11 6 9 9 12 12
3 17 7 6 4 4 12 10
0 11 4 3 1 -1 6 1
8 14 7 4 3 0 7 10
0 12 9 3 3 1 7 16
-3 6 8 -2 5 2 7 11
-9 0 8 1 4 1 10 10
-9 2 5 -1 2 4 8 9
-2 12 4 -2 1 3 6 6
-2 12 6 7 2 0 5 3
-1 9 8 11 3 3 8 11
-5 5 5 8 3 4 10 15
-8 -1 8 8 1 3 5 10
-2 7 9 0 3 4 9 14
5 19 10 7 4 4 8 12
3 21 7 7 3 1 5 13
1 11 9 0 4 3 9 10
-4 5 7 -5 2 6 9 7
-1 8 7 -2 2 8 7 10
2 9 8 5 4 6 12 21
-1 9 9 0 3 6 12 20
-2 7 10 -4 1 5 9 13
-3 10 6 1 -1 3 8 9
-3 7 4 3 0 8 6 8
-2 13 3 -3 -1 6 6 7
-2 16 4 -2 1 2 6 6
2 23 6 -2 1 2 5 4
-4 5 6 -3 2 5 7 6
-18 -15 3 -5 -3 4 3 10
-16 -10 6 -3 0 6 9 21
-7 1 9 3 6 9 14 25
-4 21 8 9 5 8 11 12
0 13 19 7 9 11 17 14
1 15 20 9 10 16 20 27
-3 14 17 5 8 19 14 20
-4 15 10 -3 6 13 15 25
1 20 13 5 8 14 15 19
5 30 15 7 9 19 19 23
9 32 17 6 11 20 19 29
10 23 20 1 10 15 21 17
-3 15 17 0 7 13 19 19
-7 20 15 2 7 13 15 20
-2 25 13 4 5 8 15 20
-3 16 17 2 7 11 19 16
-4 12 15 -4 7 12 16 16
2 33 9 3 5 12 15 18
8 46 9 1 7 12 19 19
7 28 9 2 11 16 20 25
-2 16 2 6 9 16 20 21
-1 17 2 1 10 24 22 20
7 24 6 -1 12 22 22 27
11 27 4 -1 11 19 24 25
11 28 6 -3 11 23 25 25
10 35 2 -2 10 20 24 25
13 34 0 5 8 22 23 27
13 32 2 5 10 24 25 26
18 36 7 1 11 21 26 27
9 22 2 8 9 24 22 27
2 19 -2 5 3 22 16 20
10 22 2 2 3 21 18 23
13 25 -2 -2 5 21 18 30
5 14 2 -5 6 17 19 22
2 8 -2 -6 4 15 24 27
-2 4 -5 -12 1 12 21 23
-4 3 -4 -11 2 13 14 14
-2 13 -1 -4 3 20 15 17
-1 16 3 -7 3 15 14 15
1 12 5 -1 6 17 21 24
6 17 5 7 8 21 26 33
7 25 5 -3 7 24 24 24
8 28 5 6 5 17 17 23
4 16 6 -5 4 15 19 18
-4 15 1 -9 -1 13 15 12
-4 19 -1 -7 -2 10 14 11
-1 7 2 -5 0 12 13 19
-4 -4 10 -7 3 17 14 15
-10 -7 4 -10 0 14 12 15
-12 -5 3 -12 0 14 14 18
-8 6 5 -11 -3 15 11 20
-7 8 2 -3 -6 14 10 12
-8 -1 2 -4 -4 14 12 17
-10 -1 -1 -7 -4 9 9 17
-11 3 -3 -7 -7 9 7 14
-7 2 1 -4 -3 12 11 14
-3 -1 4 -3 0 19 14 18
-6 0 2 -9 -2 17 13 18
-8 -3 -1 -14 -4 22 11 18
-10 0 -1 -12 -5 12 12 21
-11 -5 -3 -10 -6 10 11 11
-16 -8 -4 -16 -7 8 13 11
-12 1 -1 -9 -4 15 15 14
-9 6 2 -10 -3 19 12 18
-5 6 3 -7 -2 15 18 30
0 13 3 -6 -1 18 18 29
-2 9 4 0 0 16 14 24
-3 1 6 -3 3 16 16 27
-1 3 8 -1 3 18 17 31
-3 8 9 -9 2 18 15 32
-7 1 7 -9 2 14 19 29
-7 -1 0 -7 2 15 17 24
-5 3 2 -6 3 16 17 26
0 4 4 -11 4 18 20 23
-3 3 2 -11 2 20 16 20
-10 9 -2 -6 -1 16 12 13
-14 5 -4 -6 -1 14 14 15
-16 5 3 -14 4 15 17 18
-15 12 13 -1 12 24 21 21
-9 23 21 10 21 34 26 22
-4 27 21 9 23 37 28 23
-5 22 26 17 28 40 37 23
-6 21 30 20 33 44 34 28
2 24 30 24 42 52 40 36
9 27 35 42 60 69 54 42
11 29 51 80 81 91 66 43
15 31 57 95 101 106 71 43
29 28 68 120 127 132 87 56
48 38 89 151 156 152 105 74
56 37 97 162 174 167 119 75
64 45 75 121 168 174 126 77
74 52 52 73 163 183 136 90
80 55 29 38 163 185 137 90
79 63 -25 0 154 185 138 102
83 69 -93 -42 140 172 138 103
86 62 -142 -77 97 127 109 87
84 38 -162 -105 45 73 66 58
69 17 -168 -134 -16 6 19 24
34 -7 -174 -188 -91 -62 -28 -2
9 -13 -178 -252 -147 -104 -43 -11
-5 -11 -182 -271 -175 -115 -47 1
-14 -7 -188 -264 -182 -116 -50 -5
-20 -13 -177 -240 -179 -114 -55 -14
-38 -45 -159 -199 -159 -106 -56 -23
-41 -51 -133 -165 -135 -92 -52 -21
-27 -40 -108 -141 -113 -74 -45 -18
-26 -49 -87 -107 -92 -56 -35 -15
-26 -41 -62 -86 -71 -47 -29 -14
-20 -31 -44 -64 -53 -31 -19 -11
-17 -29 -29 -48 -35 -18 -6 4
-3 -18 -18 -23 -23 -2 -1 14
1 -12 -12 -18 -16 0 3 14
-8 -9 -8 -15 -15 2 5 8
-12 -6 -5 -16 -12 8 7 13
-20 -17 -10 -13 -10 1 7 15
-26 -25 -13 -19 -11 -1 2 18
-19 -15 -9 -15 -8 2 9 15
-7 -5 3 -8 -2 10 15 22
-2 6 2 -2 0 12 17 22
3 15 0 -6 0 12 17 23
11 20 6 0 4 16 17 19
10 21 9 5 4 15 13 13
-1 11 8 4 1 10 10 14
-5 0 11 2 5 12 14 19
-4 2 4 0 4 13 15 19
-4 0 8 5 6 14 15 18
2 11 7 4 7 22 21 19
-1 10 7 1 7 19 23 18
-1 6 5 -4 5 13 19 14
-3 8 6 2 5 11 17 15
-3 12 7 8 4 10 16 12
-3 8 8 7 4 12 16 18
-5 9 7 0 6 13 17 25
-13 0 10 0 6 10 13 17
-19 -1 7 0 4 12 11 16
-23 -6 4 -2 2 9 10 7
-27 -10 3 -1 3 12 12 10
-14 3 6 8 7 20 18 18
-8 5 11 6 11 19 22 15
1 12 16 3 13 18 24 16
-3 15 10 12 10 16 23 19
-8 7 10 12 10 19 19 19
-9 4 14 14 12 22 19 15
-7 3 15 11 12 22 20 23
-12 8 11 4 8 14 17 18
-16 12 5 -3 3 11 13 11
-17 2 10 2 6 12 16 13
-13 -2 13 8 10 13 21 17
-11 6 10 8 9 12 14 22
-10 4 11 11 10 13 17 23
-14 -1 12 5 10 16 15 23
-16 1 11 1 7 14 11 12
-9 12 8 0 6 11 11 14
0 23 9 7 8 17 13 17
-5 5 16 13 13 19 19 16
-9 -6 19 12 15 16 22 17
-11 1 12 11 12 14 17 17
-15 -1 13 11 9 15 14 19
-10 7 10 12 9 16 17 24
-4 9 11 10 12 16 19 30
-7 12 10 6 10 16 15 24
-12 5 13 9 10 14 13 20
-14 0 15 11 12 18 14 15
-9 3 16 16 15 16 17 19
-8 9 16 15 15 16 17 19
-16 0 11 10 11 13 17 19
-16 -1 16 12 13 16 22 16
-8 11 17 18 15 18 19 18
-8 9 17 17 15 20 19 16
-13 3 13 12 15 22 17 15
-15 0 18 19 16 19 18 17
-12 4 16 16 17 18 20 16
-16 6 14 11 12 13 17 17
-20 0 11 20 12 10 16 18
-17 0 12 16 14 13 20 19
-13 11 10 15 14 14 16 17
-12 20 9 7 11 13 12 16
-9 19 9 12 13 14 13 13
-8 12 10 12 13 16 13 17
-9 7 12 15 16 18 16 17
-10 12 10 13 14 11 15 18
-10 7 14 19 15 12 15 17
-7 0 18 22 20 17 20 20
-6 -3 19 22 24 22 25 21
-11 -5 17 22 20 17 21 16
-14 -6 11 18 18 17 18 12
-17 -4 8 19 16 16 15 11
-9 2 7 20 15 14 14 14
-9 7 6 16 14 10 14 19
-13 2 7 16 13 10 12 18
-8 3 11 24 15 11 19 22
-5 6 8 18 16 12 17 24
-8 2 5 15 14 10 13 15
-12 -1 4 24 13 11 11 14
-8 0 6 27 15 14 16 19
0 6 7 22 18 19 21 19
3 6 10 16 17 16 18 17
3 11 5 15 14 13 15 13
3 8 2 18 14 10 19 21
-2 13 -3 13 9 9 18 15
-6 16 -2 13 8 9 20 14
-3 12 0 12 8 6 16 20
1 11 -2 12 6 5 12 14
6 14 -4 19 6 9 11 15
5 3 3 27 12 12 17 20
2 1 -3 18 8 5 13 14
6 11 -8 13 7 7 13 20
12 16 -6 18 10 8 16 29
14 11 -7 19 9 5 15 32
13 5 -4 13 8 3 16 33
7 1 -6 16 5 3 17 28
7 2 -11 25 3 3 14 21
3 6 -12 11 1 3 13 23
3 0 -14 10 0 1 12 21
-2 -5 -18 11 -3 -2 9 14
-5 -3 -20 6 -4 -6 10 17
1 5 -18 4 -4 -5 14 18
6 11 -22 1 -7 -4 10 15
9 12 -24 6 -7 -5 14 16
11 18 -26 6 -10 -10 8 14
9 17 -26 1 -12 -13 8 12
11 6 -23 -8 -8 -6 15 16
11 8 -25 -2 -9 -5 12 21
13 6 -28 -2 -13 -12 10 20
16 9 -25 -6 -12 -11 17 23
14 13 -24 3 -13 -10 16 25
11 12 -30 -6 -16 -8 10 19
8 8 -36 -15 -18 -11 8 14
11 8 -35 -13 -15 -10 13 19
12 5 -34 -8 -15 -9 12 23
3 0 -35 -1 -17 -13 11 24
4 -2 -33 -6 -18 -16 12 18
6 2 -32 -4 -19 -14 9 14
9 3 -32 -7 -17 -11 10 22
22 14 -24 -7 -11 -8 15 20
26 20 -18 -6 -8 -4 20 24
12 16 -26 -12 -11 -8 14 22
1 9 -32 -12 -13 -9 10 21
0 5 -32 -13 -12 -5 11 17
6 0 -26 -7 -10 3 14 14
9 1 -24 -1 -7 2 17 15
7 0 -18 1 -5 -1 12 18
9 3 -11 -1 -2 -1 15 20
17 8 -8 3 5 6 23 28
20 12 -6 2 4 11 21 24
17 18 -5 -1 4 8 18 15
12 26 -7 -3 1 1 16 13
9 20 -6 -10 0 0 15 12
3 4 -5 -6 0 6 14 11
2 10 -7 5 -1 5 12 18
11 14 3 14 7 10 19 23
15 18 3 13 8 9 19 14
6 8 0 12 7 5 14 11
10 11 5 6 8 7 17 15
12 14 7 11 11 8 20 16
5 9 4 7 10 10 23 12
2 2 5 6 10 13 18 18
1 9 6 9 10 8 14 16
6 18 4 -3 5 3 11 6
5 16 8 2 5 2 11 9
1 10 13 6 6 3 11 6
3 1 12 13 9 8 11 11
2 -1 14 12 11 15 16 16
5 11 11 4 9 8 12 13
10 16 8 2 7 7 8 15
1 11 7 -3 6 9 10 9
4 6 9 1 8 5 18 8
11 13 12 6 11 8 14 8
7 9 10 0 10 12 13 8
3 3 12 3 8 6 13 9
-8 -8 8 -4 5 2 8 14
-13 -10 9 0 4 6 6 3
-5 2 9 5 6 4 8 8
4 10 10 0 7 2 8 17
7 6 13 6 9 7 10 14
7 4 11 14 10 9 10 13
4 7 8 6 8 6 10 9
7 11 6 -2 6 5 7 7
3 3 5 0 5 9 6 5
-7 3 2 -2 2 1 6 6
-1 11 3 -5 2 0 6 10
3 7 6 -3 3 2 7 6
2 3 8 -1 6 2 7 6
10 10 11 2 6 5 10 9
8 12 11 4 7 3 9 8
1 4 9 2 8 6 7 3
2 4 7 0 7 9 11 8
3 2 8 -1 6 7 8 7
9 6 13 1 10 9 11 6
5 3 12 -2 9 6 11 9
1 -2 12 -1 5 7 6 7
7 3 12 5 6 5 8 4
12 14 15 4 11 8 17 10
16 25 14 10 10 9 13 5
6 9 10 2 7 5 8 4
-1 -5 10 5 6 6 6 6
1 -1 10 3 6 1 7 7
6 4 9 -1 6 2 8 7
8 11 5 -2 6 1 9 1
6 10 5 3 5 4 9 1
8 7 8 -2 5 2 8 0
11 9 12 2 9 7 10 10
8 11 9 5 9 6 8 9
7 5 8 5 5 5 7 15
1 -3 9 4 5 3 3 14
-4 -4 6 -6 3 1 3 -1
3 5 7 -2 5 4 8 -1
11 20 7 -1 6 3 3 4
11 20 6 -2 7 2 5 1
9 18 5 -4 6 5 7 1
8 10 5 -1 6 4 7 4
6 10 9 -2 7 5 7 4
7 5 12 4 9 6 9 1
7 12 8 0 7 4 6 -2
9 10 8 -1 8 4 7 10
8 8 9 3 10 6 8 7
-3 -5 4 3 7 0 3 3
-5 -4 6 7 6 2 2 10
0 -5 9 0 10 8 6 5
9 9 6 5 10 9 11 4
16 17 9 5 12 9 10 4
14 14 10 6 13 12 9 2
10 9 8 3 11 11 11 3
9 9 11 8 14 14 11 8
9 7 12 15 15 13 13 8
10 11 9 8 13 11 10 11
10 14 13 8 14 15 12 13
9 16 12 7 14 11 13 6
5 14 4 3 11 7 8 9
4 12 3 5 11 11 9 6
16 20 4 7 11 6 10 3
12 15 8 12 13 8 9 9
11 14 8 17 13 12 11 8
15 20 8 11 14 9 14 6
10 8 7 2 11 7 9 8
9 5 10 8 12 9 9 5
9 5 7 8 12 5 12 8
13 5 7 9 14 9 15 4
14 9 9 8 16 12 16 8
19 22 5 2 15 10 12 7
23 25 5 4 14 9 14 6
16 19 6 18 15 7 15 8
14 18 5 11 13 7 12 3
20 13 8 8 13 12 12 5
16 4 8 7 12 7 10 9
5 0 8 7 12 4 10 7
2 3 6 10 12 7 11 8
5 9 6 6 12 5 11 5
8 14 6 -2 10 3 10 5
12 24 4 4 8 1 8 3
10 12 11 9 12 10 9 4
10 6 14 15 15 10 11 8
8 13 3 9 10 5 6 -1
1 2 4 6 9 2 6 1
6 16 7 7 10 4 9 6
18 24 12 8 14 11 13 8
20 22 11 14 14 13 15 6
14 11 12 15 15 8 14 10
7 0 11 13 15 8 14 15
2 4 5 4 10 6 9 9
3 12 5 4 11 9 9 11
3 9 5 6 11 7 8 4
2 8 7 1 12 7 10 9
3 3 7 6 11 4 11 7
2 2 9 10 11 3 10 7
5 3 14 8 14 5 11 11
6 13 10 7 11 2 7 7
7 14 8 5 11 1 6 8
-1 3 8 9 11 2 6 6
-7 0 6 9 8 4 3 -1
3 6 8 15 12 5 10 -1
6 10 8 4 11 11 8 -1
11 22 9 7 10 6 9 -2
14 25 13 11 12 5 15 1
13 14 14 10 14 8 12 8
16 15 13 13 17 11 11 15
12 23 11 11 14 8 11 18
7 11 9 7 12 5 11 4
3 5 7 8 11 9 6 4
-1 2 10 11 11 4 6 7
1 5 11 16 10 4 5 -1
3 8 10 13 10 4 6 1
2 8 12 7 11 3 8 3
8 9 16 14 14 4 12 7
7 13 15 23 14 8 9 3
1 2 11 17 13 2 6 3
0 -1 10 14 12 4 7 1
2 5 10 5 10 3 6 11
-2 8 8 4 8 -1 2 5
0 7 13 13 9 -3 6 4
2 4 11 12 12 0 5 12
-4 -1 10 14 13 0 7 4
-3 1 10 7 12 1 7 2
3 5 14 12 13 6 11 4
6 8 12 9 13 3 9 3
4 5 11 7 12 0 13 3
3 4 9 13 11 2 6 9
6 8 10 11 12 1 8 2
6 6 12 13 13 1 6 2
7 7 14 17 14 1 5 -1
11 10 13 18 14 6 7 6
13 19 12 6 10 0 4 13
5 16 8 7 9 -3 1 0
-1 3 11 16 11 -3 2 -4
0 0 9 10 11 0 4 -3
4 3 9 6 11 -1 8 1
3 6 6 11 9 -4 3 -2
1 4 7 6 10 -1 4 1
6 6 9 8 13 2 6 4
6 12 10 11 13 2 6 2
3 13 7 3 9 -4 1 0
-6 0 4 -3 7 -5 2 -4
-9 -2 4 -2 5 -4 -2 -9
-4 -2 7 -1 6 -6 1 -4
-4 -7 9 11 10 -1 2 -1
-3 6 10 11 10 -1 2 -1
-4 3 14 3 10 0 5 9
-3 -1 12 7 9 0 4 6
7 8 9 8 11 5 3 5
13 17 9 10 12 0 5 3
13 19 14 12 11 1 8 4
16 18 17 13 16 8 8 16
8 17 14 18 13 6 2 7
3 8 14 12 11 -1 4 5
0 8 9 5 9 0 3 5
-1 4 10 17 12 4 5 10
-4 0 10 18 12 1 6 8
-1 0 9 16 12 -1 5 5
3 9 8 15 11 0 4 -4
3 12 7 10 8 -2 -1 -8
-3 -1 8 12 9 -4 -1 -10
-5 -2 11 16 11 -4 1 -6
3 4 12 12 15 2 6 3
1 7 11 10 12 3 3 3
5 10 12 4 11 -1 -1 7
8 14 12 4 12 -2 4 2
8 10 13 13 12 1 3 -1
-1 1 15 10 12 -2 4 -3
-5 -1 11 10 11 -2 -1 -2
1 5 12 12 13 -4 2 -5
1 2 11 13 12 -2 3 -3
-4 -6 18 17 13 0 2 5
-5 1 13 15 12 1 0 -3
-5 -2 11 10 11 -1 1 -5
-3 6 13 14 8 -4 3 -2
1 7 16 15 13 2 3 -3
8 14 13 13 15 2 5 4
9 19 14 11 16 5 11 1
6 15 19 11 16 3 4 2
4 18 21 15 13 2 3 2
0 13 15 14 13 1 4 4
-6 1 17 13 14 1 5 4
-2 1 22 21 17 7 7 4
7 13 23 23 18 7 8 -1
13 22 30 19 18 6 9 5
10 22 26 19 18 3 11 2
0 12 22 15 16 2 7 -3
0 13 23 8 14 -3 0 -9
0 15 17 9 12 -5 -2 -7
0 8 20 14 15 -3 1 0
3 10 26 18 15 -2 3 4
15 22 20 19 18 4 7 1
20 19 17 17 19 7 6 1
19 17 15 17 20 6 10 3
15 20 8 20 17 7 8 1
18 23 7 22 17 6 8 2
28 38 8 18 18 3 7 5
27 25 7 19 18 3 6 7
25 23 3 20 17 3 7 0
28 30 6 23 16 2 5 -5
25 29 3 20 15 1 3 -2
24 26 3 18 15 0 5 -1
23 20 7 16 17 4 5 11
24 20 6 14 16 2 6 4
26 20 5 12 15 0 4 2
25 11 7 19 16 0 4 -3
28 17 4 19 13 -3 1 -1
31 21 1 17 11 -2 0 1
27 15 0 9 7 -7 -4 -1
21 5 0 5 5 -9 -3 -1
26 8 0 8 9 -6 0 -8
23 8 1 15 10 -5 2 -7
18 10 2 14 11 -4 3 -9
20 14 2 10 8 -5 -1 -11
21 18 5 14 7 -10 -1 -5
17 13 0 3 4 -6 -2 -13
13 12 2 2 4 -8 -5 -11
17 10 7 3 7 -9 -5 0
22 4 6 4 8 -12 -3 -3
23 10 5 7 7 -10 0 -11
21 14 3 13 5 -14 -10 -18
16 9 2 6 4 -13 -12 -19
13 2 3 4 3 -13 -12 -14
14 3 5 2 3 -12 -13 -9
18 5 6 1 4 -15 -12 -13
29 6 9 14 8 -8 -6 -19
28 7 4 9 3 -12 -14 -16
21 8 -4 -3 -3 -15 -16 -20
15 0 -1 3 1 -14 -10 -14
14 -5 2 8 2 -16 -10 -14
12 -9 2 8 1 -16 -10 -14
16 0 0 5 1 -14 -13 -19
24 12 2 0 -1 -14 -15 -23
23 13 0 -2 0 -14 -18 -19
15 6 -2 5 -3 -19 -21 -26
14 -9 1 11 2 -13 -15 -21
19 -9 3 11 5 -9 -9 -19
18 -3 0 3 2 -11 -16 -22
20 0 2 4 4 -9 -11 -21
25 5 3 2 6 -8 -10 -20
34 12 5 3 8 -8 -8 -15
43 16 11 17 9 -9 -5 -8
33 7 6 15 7 -13 -9 -16
22 1 4 14 5 -14 -14 -11
21 1 4 6 5 -17 -12 -17
17 5 -2 5 1 -20 -14 -18
22 1 -1 -2 2 -16 -12 -21
28 3 4 2 5 -14 -13 -17
31 7 3 10 5 -13 -10 -14
34 14 2 8 7 -10 -10 -14
28 7 2 3 7 -11 -12 -22
16 -2 2 2 5 -12 -12 -22
18 11 7 7 8 -12 -10 -18
22 26 13 16 14 -7 -10 -17
24 26 19 19 23 1 -2 -12
19 22 24 21 27 8 2 -9
17 18 30 29 30 11 3 -4
21 19 30 36 39 24 12 2
25 22 35 46 49 28 20 1
30 21 49 72 65 42 27 16
35 21 56 86 84 56 35 16
43 21 63 109 105 76 49 19
62 28 76 139 128 98 66 31
77 43 90 155 147 113 78 33
91 51 81 133 151 124 95 36
107 53 58 88 143 129 96 53
115 63 32 47 141 133 107 59
119 72 -11 13 139 141 110 67
130 77 -84 -23 138 148 120 80
134 81 -154 -65 114 125 104 77
132 69 -184 -88 71 79 73 52
131 46 -196 -107 21 23 29 22
111 23 -207 -145 -46 -50 -28 -18
75 -9 -210 -206 -112 -105 -65 -40
49 -27 -218 -249 -156 -134 -81 -42
29 -35 -220 -270 -183 -153 -88 -41
19 -32 -205 -251 -184 -153 -87 -41
12 -36 -184 -216 -168 -143 -84 -43
7 -39 -162 -178 -146 -125 -80 -40
11 -33 -129 -144 -119 -104 -71 -41
16 -19 -98 -111 -97 -93 -63 -49
11 -26 -74 -81 -74 -76 -55 -46
8 -32 -54 -61 -53 -60 -48 -43
26 -15 -28 -34 -33 -43 -32 -29
32 -6 -21 -20 -21 -31 -24 -27
27 -9 -20 -13 -15 -29 -19 -16
33 -2 -12 -8 -9 -25 -15 -18
36 0 -3 -5 -5 -21 -14 -16
29 -8 -7 -8 -5 -21 -17 -19
28 -3 -7 -9 -4 -22 -19 -22
31 15 -6 -5 -4 -20 -20 -21
38 21 -4 -1 0 -13 -13 -13
33 12 -5 -1 0 -13 -16 -21
27 4 -3 6 1 -13 -16 -20
32 10 3 8 4 -12 -13 -15
35 7 5 11 5 -11 -14 -12
29 3 4 13 4 -12 -13 -11
27 3 5 16 6 -13 -11 -9
32 9 6 17 7 -11 -10 -12
33 7 8 16 9 -6 -8 -7
32 9 7 11 10 -7 -7 -8
32 13 3 6 6 -13 -13 -12
31 7 6 16 8 -11 -7 -10
31 8 6 19 8 -12 -6 -14
33 13 4 18 6 -13 -9 -20
32 14 5 15 7 -10 -9 -17
28 10 4 19 6 -14 -14 -15
25 5 6 16 6 -12 -15 -17
26 12 2 13 5 -14 -14 -14
24 8 4 13 6 -12 -12 -12
35 13 8 12 10 -9 -10 -6
41 23 10 20 13 -4 -6 -6
39 27 9 23 10 -7 -9 -6
34 13 13 27 13 -6 -3 -14
28 9 9 21 8 -11 -4 -13
29 14 11 15 5 -11 -9 -21
32 7 10 19 10 -7 -8 -15
28 8 7 13 9 -7 -10 -16
30 10 5 20 7 -8 -13 -11
40 13 11 29 12 -2 -3 -7
38 14 9 21 12 -3 -6 -14
26 5 6 20 10 -3 -11 -18
19 -3 3 17 5 -9 -11 -17
25 1 4 15 7 -5 -10 -17
30 14 8 16 7 -5 -11 -18
45 28 14 17 11 -6 -2 -8
56 45 14 20 15 -3 3 7
47 31 14 27 15 -1 -2 -3
40 24 8 26 11 -4 -4 -15
35 15 8 23 11 -7 -6 -5
29 1 10 19 13 -2 -2 -8
36 19 7 14 10 -5 -5 -16
43 22 10 21 13 -2 -2 -10
41 17 13 19 13 -4 1 -6
37 16 12 19 10 -5 -6 -11
32 14 9 14 7 -7 -11 -14
31 3 10 25 11 -2 -4 -13
35 15 12 27 12 -2 -6 -3
33 17 12 18 12 1 -8 0
44 22 10 22 12 -2 -3 -6
42 34 6 21 9 -8 -11 -8
38 27 6 23 8 -5 -11 1
37 19 8 21 11 -2 -1 -6
29 8 8 16 8 -6 -10 -13
24 7 4 23 6 -8 -12 -17
33 14 7 30 9 -2 -8 -3
42 23 15 32 14 5 -6 -7
49 37 14 21 10 -1 -10 -5
45 24 12 27 12 0 -8 6
42 15 13 27 16 -1 -6 -2
39 16 11 19 12 -1 -5 -4
30 10 12 22 8 -3 -11 -6
26 4 6 19 10 -6 -11 -10
25 8 3 17 7 -7 -14 -16
30 18 8 17 7 -2 -11 -6
42 26 12 18 11 0 -10 -4
47 27 14 29 16 2 -6 -1
41 29 8 26 12 -3 -6 -9
37 13 10 26 14 3 0 -2
40 16 8 31 13 -2 -4 -8
44 24 10 31 15 0 -1 -5
39 22 5 29 12 0 -6 -8
35 17 3 20 11 -4 -10 -5
40 23 5 24 13 -1 -8 0
45 24 10 28 18 5 -3 -2
47 26 8 27 17 3 -5 -3
38 22 6 30 14 -2 -7 -4
29 10 7 29 14 -1 -6 -7
35 18 8 28 11 -4 -7 -10
41 21 11 32 15 3 -2 -4
42 25 8 32 19 7 3 12
38 23 8 30 16 3 -1 1
36 17 5 35 16 2 -5 -1
27 16 1 31 13 -1 -7 -6
28 14 -1 32 11 -1 -7 -3
34 12 4 29 13 3 -2 1
37 20 2 30 10 -1 -5 2
34 21 -1 25 8 -3 -3 -2
37 15 1 25 12 0 -3 0
37 20 1 28 11 -1 -4 6
32 20 -4 23 8 0 -2 2
43 30 -4 30 10 0 3 3
56 38 0 29 14 2 5 5
49 23 -5 23 11 2 0 0
37 15 -6 25 8 1 -3 -4
38 24 -10 27 6 0 -3 -1
40 26 -12 24 5 -4 -2 2
43 33 -13 29 4 -5 -2 -1
45 29 -14 22 0 -3 -4 -2
48 30 -11 16 0 -6 -1 1
45 27 -14 18 0 -5 0 6
42 25 -20 11 -4 -6 -6 0
41 19 -20 9 -4 -9 -3 0
35 16 -19 12 -4 -11 -5 1
41 30 -21 9 -6 -11 -7 0
46 35 -23 8 -6 -10 -5 2
43 27 -22 7 -6 -12 -4 7
45 28 -20 9 -6 -10 -3 10
47 34 -24 17 -8 -11 -6 10
39 26 -28 13 -12 -15 -8 -2
41 20 -28 5 -12 -17 1 2
42 23 -28 2 -11 -15 -2 8
45 33 -27 0 -11 -14 -7 12
43 30 -30 -1 -13 -17 -9 4
36 16 -31 -5 -15 -16 -10 2
40 23 -29 -11 -16 -12 -8 5
51 30 -27 1 -9 -3 -3 6
60 40 -20 7 -7 -3 -1 8
58 44 -22 1 -11 -10 -1 12
52 37 -25 3 -7 -8 3 18
43 21 -20 8 -5 -4 2 6
40 14 -21 3 -6 -6 -2 4
36 15 -24 -2 -6 -6 -3 4
45 30 -19 4 -3 0 0 5
60 43 -11 13 4 5 11 11
65 45 -9 11 9 14 8 13
48 27 -13 3 5 10 1 8
42 25 -9 1 4 6 -1 6
48 33 -6 7 7 5 3 5
48 41 -9 9 7 4 2 3
43 37 -4 9 9 7 3 8
49 48 -7 10 7 4 0 11
51 41 -6 12 11 7 5 12
50 33 -1 12 14 13 5 15
51 31 4 16 17 16 9 7
45 27 5 26 17 14 10 4
41 25 2 21 16 13 5 5
42 26 3 24 17 15 6 7
45 28 5 17 19 17 8 8
43 28 5 12 18 21 6 12
37 34 2 6 15 21 2 7
36 35 2 5 14 14 -2 -1
35 26 5 8 16 14 -1 3
41 30 18 10 19 17 4 4
48 40 14 15 21 17 9 6
50 46 14 22 22 18 14 14
48 32 17 26 24 22 8 10
46 28 15 21 22 23 5 10
42 35 17 15 21 19 5 11
46 36 19 18 21 21 5 3
53 40 18 23 24 25 7 7
53 44 15 20 25 28 9 7
49 38 12 14 21 23 9 13
44 34 11 12 18 28 10 15
41 33 12 19 19 23 11 27
42 29 12 12 15 16 2 9
41 32 10 14 17 21 2 0
35 27 9 11 17 23 4 -2
35 29 9 9 17 20 2 1
38 27 10 12 19 22 5 6
38 28 13 13 22 23 10 8
39 35 10 17 18 19 6 9
45 38 11 18 21 21 6 8
51 38 13 20 23 26 9 9
48 37 16 19 23 32 8 8
47 42 10 11 18 26 6 5
49 34 14 16 20 25 11 9
45 26 17 18 20 25 5 10
44 23 17 23 20 24 8 9
44 33 10 17 17 23 4 11
38 30 8 7 15 26 1 2
39 32 8 12 13 27 1 -3
47 30 14 12 17 23 2 -2
42 30 18 11 17 21 2 2
43 31 15 20 18 26 7 7
46 32 13 27 21 26 5 2
50 37 11 13 19 28 5 -1
46 33 14 23 20 30 5 7
49 33 20 21 22 32 9 6
50 29 15 19 21 28 7 8
36 21 11 14 18 27 3 11
38 24 15 14 20 28 6 12
49 35 12 16 21 29 8 6
46 39 7 10 17 24 7 3
41 36 12 9 18 25 6 6
43 29 10 11 18 27 4 17
42 33 6 9 14 24 -1 9
38 29 12 16 19 30 4 6
35 18 14 20 23 33 9 14
32 27 9 10 14 20 2 3
32 25 8 11 16 25 1 13
37 22 8 15 20 29 4 11
38 22 9 14 20 27 5 9
36 27 8 11 20 32 6 12
33 30 12 10 18 26 9 11
42 33 11 14 22 31 13 6
45 39 10 17 22 33 10 10
45 39 10 16 22 36 9 6
41 43 9 11 20 31 6 8
33 32 6 11 20 28 4 9
30 23 7 9 17 31 4 7
35 20 6 7 18 31 5 9
42 31 5 12 20 31 3 11
36 31 6 14 21 29 4 6
32 20 6 20 20 31 7 16
40 30 8 20 21 31 7 19
35 31 5 14 17 25 2 2
25 32 0 8 11 21 0 -5
31 26 5 7 17 28 5 2
39 31 10 13 22 35 7 10
33 31 7 14 20 32 6 10
38 30 7 16 21 32 6 11
41 33 6 11 22 32 7 11
45 43 7 12 22 33 13 13
43 36 11 16 27 37 20 12
37 31 8 14 25 33 13 11
33 38 5 16 22 30 7 13
40 37 7 18 25 39 11 9
40 34 9 16 27 39 15 15
33 24 8 13 25 32 10 17
39 33 10 12 26 33 10 15
40 33 8 13 27 35 11 14
36 32 8 14 25 37 9 13
36 36 5 14 24 33 9 16
33 37 6 17 20 34 9 13
30 24 7 19 22 31 12 10
35 28 7 12 21 29 8 14
40 32 11 18 25 36 15 13
34 24 6 15 24 36 13 14
31 25 7 24 22 31 11 9
36 34 9 21 25 33 15 8
33 32 4 12 23 29 14 12
28 16 7 12 25 31 12 16
35 23 6 17 26 37 14 17
34 29 4 17 23 33 13 15
33 23 4 20 23 32 9 13
33 21 3 17 21 32 7 15
29 23 2 7 19 28 8 11
32 26 3 12 22 27 11 10
43 38 5 19 24 30 16 18
48 42 10 18 28 34 22 17
38 34 6 14 26 32 15 12
36 34 3 11 21 30 11 4
38 28 6 14 23 36 10 11
34 29 4 12 19 31 6 11
29 27 1 12 16 23 11 11
27 26 7 16 19 29 13 9
32 38 5 13 20 28 13 5
39 46 6 8 17 24 8 5
44 42 4 13 20 27 8 12
47 46 7 12 20 26 8 8
46 45 7 15 21 29 14 12
42 40 11 25 24 28 16 13
39 29 11 16 23 27 9 12
31 27 4 16 20 28 7 16
29 23 5 18 21 30 13 12
29 24 4 25 20 24 15 6
26 26 5 19 17 22 7 3
26 19 11 19 17 28 7 12
31 21 9 13 20 29 14 16
35 30 7 4 18 26 11 9
37 33 3 13 17 26 8 11
34 31 1 8 16 23 8 13
35 33 0 8 15 24 9 16
42 35 3 16 18 26 11 7
34 24 5 19 19 28 10 9
22 17 1 12 16 23 9 16
22 16 0 7 16 21 8 26
25 21 1 7 16 22 9 19
22 19 -2 4 13 20 3 10
22 29 -3 5 11 17 0 5
35 30 4 14 18 26 11 10
41 26 10 15 23 35 18 14
38 29 5 15 18 25 12 7
34 33 6 10 16 24 9 6
31 29 4 12 17 28 6 11
25 19 4 13 17 26 8 14
26 14 1 7 14 23 7 9
27 27 -2 3 10 19 7 4
29 28 1 10 13 21 6 6
34 31 1 8 12 21 5 10
29 18 5 9 14 22 6 9
24 14 2 7 13 19 8 6
20 16 5 8 11 19 11 12
15 8 2 10 10 15 2 13
13 2 3 10 12 18 5 5
21 17 5 9 13 18 7 2
33 28 8 16 18 23 11 12
38 35 5 10 17 25 15 22
39 40 3 14 16 23 17 19
34 34 7 11 16 22 11 15
34 27 8 10 15 21 8 7
30 24 6 11 13 18 8 4
30 27 3 11 13 17 10 3
24 23 1 10 10 17 8 3
19 11 6 10 11 19 9 10
23 21 6 7 11 18 8 11
28 30 3 2 10 14 12 11
23 15 4 3 10 17 7 11
14 12 2 9 10 17 4 12
10 14 0 10 9 16 4 11
14 15 1 7 10 17 9 3
23 21 5 10 12 18 10 8
27 27 10 6 12 21 8 11
32 35 8 5 13 19 17 10
32 35 5 11 13 18 11 15
25 24 4 3 12 19 10 16
17 15 3 3 11 20 8 14
14 7 4 4 13 20 8 14
17 14 3 4 10 17 6 3
18 18 2 5 9 15 4 7
16 21 5 4 8 14 3 11
23 24 4 3 10 18 6 16
25 23 4 13 12 22 8 13
23 20 3 14 11 19 9 8
21 19 6 8 10 20 7 12
20 21 4 5 8 13 3 5
20 22 1 4 8 13 3 8
16 11 7 7 10 14 7 17
12 8 6 3 9 15 9 11
9 10 -2 2 7 12 2 4
11 15 -2 0 5 8 0 12
15 19 -4 -3 5 10 2 4
18 16 3 5 9 17 12 19
18 12 8 13 14 19 16 19
19 15 8 17 14 19 13 14
21 18 4 6 11 24 10 12
19 16 2 2 9 17 8 5
18 14 4 12 10 13 6 3
17 9 5 12 10 13 7 8
16 12 5 5 6 9 4 10
19 22 7 12 6 11 4 8
17 24 0 12 5 11 3 4
19 21 1 9 7 10 5 8
18 22 2 7 7 13 8 4
23 24 5 10 8 18 6 10
22 16 5 7 9 14 6 9
17 16 3 6 8 12 4 6
16 16 2 11 8 12 4 5
17 19 7 9 9 17 8 13
11 17 3 -1 4 15 3 6
11 13 2 11 5 8 2 7
18 18 2 17 9 11 6 7
22 20 2 12 9 12 8 5
18 13 3 11 10 12 5 9
10 6 3 8 10 13 4 9
17 8 6 18 12 15 10 9
30 16 8 14 13 15 16 9
24 19 6 9 10 12 11 20
13 13 5 10 8 10 6 23
11 15 3 5 5 7 1 3
10 8 9 6 5 7 3 6
15 9 10 8 7 9 7 9
14 16 5 7 6 10 3 0
20 26 9 5 8 13 4 4
21 28 6 7 8 14 4 4
18 28 8 6 7 8 4 2
13 16 13 15 12 12 9 7
9 14 9 15 11 11 5 5
10 12 10 11 12 13 8 5
18 22 12 12 12 14 8 9
16 25 11 11 9 11 10 6
13 20 10 8 9 12 9 9
18 21 14 8 10 11 12 6
17 32 11 12 8 9 9 6
16 23 16 9 10 14 6 13
14 19 16 7 10 14 9 12
18 20 13 12 11 17 12 18
24 18 16 13 16 19 14 16
21 19 12 17 14 16 12 20
23 24 7 18 13 17 12 20
14 24 -2 14 9 11 10 8
11 17 -4 6 8 10 6 1
18 16 -1 15 12 18 15 10
18 14 0 9 11 18 11 14
15 11 0 6 10 14 9 16
21 15 3 14 13 15 11 13
24 18 5 16 14 20 16 11
22 24 3 8 10 16 14 9
31 32 0 5 11 18 12 5
34 32 5 15 15 24 17 10
27 27 6 20 12 25 19 13
35 28 4 12 13 20 18 12
41 31 0 11 10 16 17 16
35 26 1 9 10 19 13 15
30 25 -1 5 9 18 12 13
23 21 -6 4 6 13 11 5
16 12 -7 0 3 11 2 0
24 26 -3 6 6 14 5 14
35 35 4 14 11 19 14 15
31 29 4 8 9 17 17 12
23 18 3 8 8 16 16 14
15 20 -1 9 3 16 10 10
9 16 -2 8 2 8 8 10
6 11 -2 2 1 4 3 16
1 12 -3 -2 -1 2 2 8
2 16 -3 -2 -1 6 1 4
9 8 6 3 6 11 7 12
8 13 2 -1 4 7 2 1
6 6 5 2 3 9 6 0
9 2 7 6 5 7 9 9
2 -1 4 5 1 8 7 1
0 1 6 -1 1 11 6 3
1 3 6 -2 0 14 1 6
3 5 5 2 -3 4 -1 -1
0 1 4 3 -2 3 1 0
-2 16 -5 -5 -6 -2 -5 2
10 18 1 4 -1 2 -1 8
4 -3 6 10 1 5 3 10
-9 -10 3 2 -3 0 1 -1
-10 -5 -1 -7 -6 -4 -4 -2
-6 7 -6 -5 -8 -4 -8 3
-3 2 -3 -1 -5 1 -5 2
4 5 1 -1 -1 3 1 1
2 0 5 1 1 5 0 -1
5 2 6 2 3 10 6 0
10 5 4 5 4 6 5 0
6 13 -2 -3 -1 -1 0 0
-1 9 -5 -5 -3 0 1 -1
-3 1 3 10 4 7 4 8
7 7 5 8 8 6 8 12
11 15 6 9 5 4 4 2
7 9 -1 10 4 2 5 9
6 8 -1 9 4 6 7 8
5 12 -3 5 3 9 4 1
4 9 1 0 4 4 2 1
8 10 1 -2 5 6 5 -1
14 15 1 4 6 7 4 2
13 18 1 13 6 7 5 -1
2 12 5 8 7 10 4 -1
-6 11 8 9 11 7 5 2
-5 23 15 8 15 10 6 3
-6 22 20 16 21 15 13 12
-8 13 23 15 24 23 16 10
-1 16 33 28 33 32 19 11
4 24 32 45 40 38 25 9
7 26 31 51 54 49 35 22
9 26 42 71 73 65 44 26
25 29 61 95 96 85 59 23
42 33 66 124 117 103 70 34
50 32 78 153 137 122 81 41
57 42 84 164 149 134 89 46
74 43 76 129 149 139 100 51
80 41 51 76 144 142 114 67
88 55 26 47 145 147 116 75
100 70 -23 13 143 152 123 78
108 75 -99 -23 134 152 125 90
112 77 -157 -69 99 122 106 82
112 60 -178 -88 52 68 68 56
100 31 -185 -114 -1 10 24 12
69 -1 -189 -166 -69 -59 -25 -17
37 -19 -194 -219 -129 -104 -55 -26
10 -25 -207 -260 -168 -130 -65 -26
-8 -26 -207 -257 -181 -137 -69 -27
-18 -34 -196 -230 -177 -136 -68 -29
-16 -33 -171 -201 -156 -124 -65 -30
-19 -29 -146 -162 -132 -105 -61 -35
-22 -41 -119 -131 -108 -87 -56 -41
-26 -55 -92 -100 -85 -72 -48 -37
-17 -47 -61 -69 -61 -50 -34 -31
-1 -19 -37 -42 -40 -35 -26 -23
4 -13 -21 -17 -19 -19 -8 -16
1 -14 -14 -16 -14 -12 -8 -8
3 4 -10 -13 -16 -19 -12 -11
-2 -1 -11 -4 -10 -17 -12 -12
-6 -11 -13 0 -7 -14 -10 -7
-5 -8 -8 -7 -4 -11 -7 -2
-1 -6 -4 1 2 -6 2 -1
-3 -3 -5 6 3 -4 1 -2
-2 5 0 -2 2 -5 -2 0
0 11 6 6 6 -4 7 8
3 16 3 8 6 -2 2 0
-3 10 4 11 7 -3 1 -1
-12 0 6 7 8 -2 0 1
-16 -8 10 15 9 3 -1 -3
-16 -4 5 10 7 2 -4 -4
-11 3 6 12 8 1 -2 0
0 12 10 20 12 1 0 1
4 19 8 13 12 4 1 5
-7 7 8 16 11 1 4 -8
-10 -4 10 23 13 4 7 1
-9 10 8 16 9 -1 0 -6
-10 11 8 9 8 -5 1 -10
-7 11 11 9 8 -3 0 -10
-3 11 15 15 13 2 4 0
-2 14 10 18 11 1 3 -6
-6 2 12 13 14 5 4 -3
-10 -4 17 13 13 8 4 -5
-10 5 9 11 11 3 0 -3
-5 9 11 15 12 -1 -1 -1
-6 3 12 14 15 5 3 8
-7 8 8 11 12 -2 0 4
-3 9 10 14 14 3 0 -3
-3 8 14 18 16 2 2 -2
-1 4 12 24 13 1 -1 0
4 14 13 18 13 1 1 -2
3 16 12 18 17 4 2 -11
-2 10 14 21 17 8 3 -5
-5 2 12 19 17 6 6 -1
-6 2 9 22 14 4 5 -3
-3 7 6 17 12 1 0 -5
-3 12 3 11 8 -4 0 -4
0 8 10 18 14 4 5 0
2 9 13 20 17 3 6 4
-5 0 12 23 16 2 6 -8
-4 -3 16 24 16 5 2 1
2 7 15 21 17 4 3 5
-2 10 12 21 14 3 -1 -7
-2 13 10 16 13 1 -2 -6
5 12 11 16 16 -2 3 1
4 5 11 19 18 2 5 -7
8 8 9 22 15 -1 2 -8
5 7 10 25 14 -1 6 -10
-4 1 15 25 17 -1 2 -7
3 7 12 19 17 -1 1 -6
8 13 15 17 15 -4 1 -6
1 7 13 19 14 -5 -1 -8
-2 1 13 16 16 -3 -2 -11
6 15 10 14 15 -3 -1 -10
5 13 10 21 16 0 -1 -10
6 5 14 24 18 2 3 -8
10 10 11 17 16 -2 1 -4
7 10 12 18 15 0 1 3
8 9 13 21 16 0 2 -2
11 19 8 25 13 -4 -4 -10
5 5 8 20 15 -6 -3 -5
-4 -6 8 18 17 -2 0 0
-1 4 9 26 18 1 0 -9
-3 7 4 20 14 -3 -1 -11
-1 -1 6 20 17 -4 3 -4
10 5 12 30 21 2 1 -7
15 15 11 27 20 2 1 -6
13 20 12 32 20 -1 3 -6
10 12 11 34 17 -3 2 -5
6 5 6 22 15 -4 -1 -11
6 5 10 21 17 -4 4 -8
2 1 10 19 18 -3 2 -4
3 2 7 27 18 -1 4 2
4 3 5 25 17 -1 -3 -3
-1 -5 5 21 17 -2 1 -3
-1 -8 6 34 20 -4 2 0
2 0 5 30 17 -2 -1 -4
9 14 6 21 16 -7 -2 -8
13 16 7 22 17 -9 3 -8
8 9 7 24 17 -5 3 -5
8 4 7 31 18 -5 0 -9
12 8 8 35 21 -2 5 -2
13 17 2 23 16 -5 6 -6
9 6 0 28 16 -6 1 -10
8 3 0 22 17 -8 -2 -11
7 2 -3 22 17 -6 -5 -6
9 6 -2 21 17 -6 1 -6
6 7 -2 34 15 -7 -3 -9
11 13 2 31 14 -5 -5 -10
28 22 2 30 21 4 4 4
33 27 1 37 21 5 5 3
22 22 -3 31 17 -3 2 0
10 3 -6 24 14 -9 1 -4
11 3 -7 29 13 -8 0 -7
13 1 -8 24 13 -9 -1 -9
12 2 -6 20 12 -10 -2 -6
16 13 -9 25 10 -14 -2 -5
16 9 -12 20 9 -14 -2 -10
20 8 -12 23 11 -13 -2 1
21 11 -13 21 10 -14 0 -2
8 9 -22 13 1 -22 -7 -7
9 7 -23 19 0 -22 -7 -6
13 3 -19 19 4 -16 -3 -3
9 1 -20 15 4 -16 2 7
17 6 -17 14 5 -13 2 7
23 18 -19 8 2 -20 -4 -3
20 21 -28 5 -2 -22 -8 -7
17 12 -27 10 -1 -18 -5 2
16 1 -23 13 1 -18 0 -3
24 4 -21 22 3 -19 5 8
28 17 -23 16 1 -18 1 6
21 21 -29 1 -3 -22 -6 -3
18 10 -27 2 -1 -23 -4 0
17 6 -27 8 -3 -22 0 2
15 11 -33 -1 -8 -27 -7 -1
19 8 -32 1 -5 -24 -5 -1
18 7 -32 0 -6 -24 -4 2
14 6 -36 -6 -10 -26 -6 -4
10 2 -34 -1 -11 -25 -7 -7
17 3 -29 0 -7 -26 -3 -3
21 7 -29 6 -5 -24 -2 7
13 4 -31 2 -5 -20 -5 2
13 5 -31 1 -5 -17 0 -4
10 5 -32 -1 -4 -19 2 -5
7 9 -34 3 -6 -23 -2 -7
20 22 -30 2 -2 -18 -2 -2
29 32 -24 -4 1 -16 0 4
29 18 -18 7 6 -12 3 2
26 13 -19 10 6 -13 6 -1
23 9 -15 7 7 -15 7 8
20 7 -13 7 7 -15 4 3
17 7 -12 11 10 -11 3 -4
12 11 -12 6 9 -10 2 -2
9 8 -10 4 12 -9 4 3
11 13 -8 5 10 -10 3 -4
16 20 -11 7 9 -9 0 -6
15 15 -12 4 10 -10 -1 -3
5 0 -5 5 12 -7 0 6
2 5 -5 1 10 -8 -3 0
7 13 -5 6 13 -5 -1 -10
8 6 -1 12 16 -2 3 -6
13 20 -1 11 15 -3 4 -6
16 19 4 17 18 -1 5 -4
12 6 6 15 18 -2 3 -8
9 3 3 8 17 -4 1 -3
9 12 4 9 17 -7 2 -2
15 20 7 12 19 -4 7 1
14 18 8 16 19 -4 6 0
5 10 8 17 19 -4 1 -9
0 7 10 19 19 -2 3 -5
0 5 6 14 16 -3 -1 -6
-2 4 4 6 14 -7 4 -7
6 6 4 9 15 -4 2 -9
8 11 6 11 16 -2 4 -6
9 14 8 7 17 -2 3 -3
10 16 7 2 17 -4 4 -7
9 13 7 9 17 -2 3 -10
8 8 8 11 18 0 4 -7
5 8 8 7 17 -2 3 -6
5 10 10 1 16 -3 3 -11
5 12 9 3 16 2 1 -11
2 4 8 5 17 1 -1 -11
11 11 11 13 20 -1 5 -3
12 8 13 17 22 2 9 -2
6 6 10 16 17 0 5 2
11 7 10 8 17 -1 7 -4
6 9 9 6 16 -5 5 -12
1 7 10 11 15 -6 4 -8
3 12 9 1 13 -7 0 -12
7 12 8 7 16 -8 -2 -12
