I II V1 V2 V3 V4 V5 V6
-32 -26 1 -21 -25 -24 -18 -29
-32 -26 1 -21 -24 -24 -18 -29
-31 -25 1 -20 -22 -24 -18 -29
-31 -24 0 -19 -21 -24 -18 -28
-30 -23 0 -18 -19 -24 -18 -28
-30 -22 0 -17 -18 -24 -18 -28
-29 -21 -2 -16 -17 -24 -17 -26
-29 -21 0 -16 -17 -23 -16 -25
-29 -20 1 -16 -17 -22 -15 -24
-29 -20 2 -16 -17 -21 -14 -23
-29 -20 2 -16 -17 -20 -13 -22
-28 -19 3 -16 -17 -19 -12 -21
-27 -19 3 -16 -17 -20 -12 -21
-25 -19 2 -16 -18 -20 -13 -20
-24 -19 2 -16 -18 -21 -13 -20
-23 -19 2 -16 -18 -21 -13 -20
-22 -17 1 -17 -19 -22 -14 -18
-21 -15 1 -17 -18 -21 -13 -17
-20 -13 0 -17 -18 -20 -13 -16
-19 -11 0 -17 -17 -19 -12 -15
-19 -10 0 -17 -17 -18 -12 -14
-18 -10 -2 -16 -16 -17 -11 -13
-19 -11 -2 -16 -17 -18 -12 -13
-20 -12 -2 -16 -18 -18 -12 -13
-21 -13 -2 -16 -19 -19 -13 -13
-21 -14 -2 -16 -19 -19 -13 -13
-22 -15 0 -17 -20 -20 -14 -13
-22 -15 0 -17 -21 -21 -14 -12
-23 -15 0 -18 -21 -21 -14 -12
-23 -15 0 -18 -22 -22 -14 -11
-23 -15 0 -18 -22 -22 -14 -11
-24 -14 -2 -19 -23 -23 -14 -10
-24 -14 -2 -19 -23 -23 -14 -10
-24 -14 -2 -20 -24 -23 -14 -10
-24 -14 -2 -20 -24 -23 -14 -10
-24 -14 -2 -20 -24 -23 -14 -10
-23 -15 0 -21 -25 -24 -15 -10
-23 -15 0 -21 -26 -24 -15 -10
-23 -16 0 -22 -26 -24 -15 -9
-23 -16 0 -22 -27 -24 -15 -9
-23 -16 0 -22 -27 -24 -15 -9
-23 -17 0 -23 -28 -25 -16 -8
-24 -18 -2 -24 -28 -25 -16 -8
-25 -19 -3 -24 -29 -25 -16 -8
-26 -20 -4 -25 -29 -25 -16 -8
-27 -20 -4 -25 -29 -25 -16 -8
-28 -21 -5 -26 -30 -25 -16 -9
-28 -21 -5 -26 -31 -25 -16 -9
-28 -20 -5 -27 -32 -26 -16 -9
-28 -20 -5 -27 -33 -26 -16 -9
-28 -20 -5 -27 -33 -26 -16 -9
-27 -19 -5 -28 -34 -27 -15 -9
-26 -19 -5 -28 -34 -27 -15 -9
-25 -19 -5 -28 -33 -28 -15 -9
-24 -19 -5 -28 -33 -28 -15 -9
-23 -19 -5 -28 -33 -28 -15 -9
-22 -20 -5 -28 -32 -29 -17 -9
-22 -20 -5 -28 -33 -29 -18 -10
-21 -20 -5 -29 -34 -29 -19 -10
-21 -20 -5 -29 -35 -29 -20 -11
-21 -20 -5 -29 -35 -29 -21 -11
-20 -19 -6 -30 -36 -30 -22 -12
-21 -19 -5 -30 -36 -30 -21 -11
-22 -19 -4 -30 -36 -30 -20 -11
-23 -19 -3 -30 -36 -30 -19 -10
-23 -19 -2 -30 -36 -30 -19 -10
-23 -18 0 -29 -36 -29 -18 -9
-22 -18 -2 -30 -37 -29 -18 -9
-20 -17 -2 -30 -37 -29 -18 -8
-19 -17 -3 -31 -38 -29 -18 -8
-18 -17 -3 -31 -38 -29 -18 -8
-17 -16 -4 -32 -39 -30 -18 -7
-18 -17 -4 -32 -39 -31 -19 -8
-18 -17 -4 -32 -39 -32 -20 -8
-19 -18 -4 -32 -39 -33 -21 -9
-19 -18 -4 -32 -39 -33 -22 -9
-21 -19 -5 -31 -39 -34 -23 -10
-22 -19 -5 -31 -39 -34 -22 -10
-23 -19 -5 -31 -39 -33 -21 -10
-24 -19 -5 -31 -39 -33 -20 -10
-25 -19 -5 -31 -39 -33 -20 -10
-26 -18 -5 -31 -40 -32 -19 -10
-26 -18 -4 -31 -39 -32 -18 -9
-26 -18 -4 -31 -38 -32 -18 -9
-26 -18 -3 -31 -37 -32 -17 -8
-26 -18 -3 -31 -37 -32 -17 -8
-27 -19 -2 -30 -36 -31 -16 -7
-28 -19 -2 -30 -37 -31 -16 -7
-29 -19 -3 -30 -38 -31 -16 -7
-30 -19 -3 -30 -39 -31 -16 -7
-30 -19 -3 -30 -39 -31 -16 -7
-29 -19 -4 -29 -40 -31 -16 -7
-25 -19 -4 -29 -40 -31 -17 -7
-22 -18 -4 -30 -40 -31 -17 -8
-19 -18 -4 -30 -40 -31 -18 -8
-16 -18 -4 -30 -40 -31 -18 -8
-16 -17 -5 -31 -40 -32 -19 -9
-18 -17 -5 -30 -40 -31 -19 -9
-20 -17 -5 -29 -39 -31 -19 -9
-22 -17 -5 -28 -39 -30 -19 -9
-24 -17 -5 -27 -39 -30 -19 -9
-25 -18 -4 -26 -38 -29 -18 -8
-24 -17 -4 -26 -38 -29 -18 -8
-23 -16 -4 -26 -38 -29 -18 -8
-22 -15 -4 -26 -38 -29 -18 -8
-22 -15 -4 -26 -38 -29 -18 -8
-21 -12 -2 -25 -37 -29 -16 -8
-20 -10 0 -24 -36 -28 -15 -7
-20 -8 2 -23 -36 -26 -13 -7
-19 -6 3 -22 -35 -25 -12 -6
-19 -4 4 -21 -35 -24 -11 -6
-18 -3 5 -20 -33 -23 -10 -4
-19 -3 6 -20 -32 -22 -10 -3
-20 -3 7 -20 -31 -22 -10 -2
-21 -3 8 -20 -30 -21 -10 0
-22 -3 8 -20 -29 -21 -10 1
-23 -2 9 -19 -28 -20 -10 2
-23 1 8 -19 -28 -20 -9 2
-23 2 8 -19 -27 -20 -9 2
-23 4 7 -19 -27 -20 -8 2
-23 5 7 -19 -27 -20 -8 2
-22 8 5 -21 -26 -19 -7 2
-19 10 3 -22 -26 -18 -6 3
-17 12 2 -23 -26 -18 -6 4
-15 15 0 -24 -26 -17 -5 5
-13 17 -2 -25 -26 -17 -5 6
-12 18 -4 -26 -26 -16 -4 8
-11 18 -6 -26 -26 -16 -3 9
-10 18 -8 -27 -26 -16 -2 10
-9 18 -10 -27 -26 -16 0 11
-9 18 -12 -27 -26 -16 0 12
-8 19 -13 -28 -26 -15 1 13
-8 19 -13 -27 -26 -15 2 12
-7 19 -14 -26 -27 -15 3 11
-7 19 -14 -25 -27 -15 4 10
-7 19 -14 -25 -27 -15 5 10
-6 18 -15 -25 -29 -16 5 9
-5 17 -15 -26 -30 -17 4 9
-4 17 -16 -27 -31 -18 2 8
-3 16 -16 -28 -32 -19 1 8
-2 16 -16 -29 -33 -20 0 8
-2 13 -17 -30 -34 -22 -3 7
-4 11 -17 -30 -34 -23 -4 7
-6 9 -17 -31 -35 -24 -5 7
-7 6 -17 -31 -35 -25 -6 7
-9 4 -17 -31 -35 -26 -7 7
-11 1 -15 -32 -36 -27 -9 4
-13 -2 -14 -31 -36 -27 -11 2
-15 -5 -12 -30 -37 -28 -12 0
-17 -8 -11 -29 -37 -28 -14 -4
-19 -10 -10 -29 -37 -28 -15 -6
-19 -11 -9 -28 -38 -29 -16 -7
-18 -11 -9 -27 -38 -29 -16 -7
-17 -11 -9 -26 -38 -29 -16 -7
-16 -11 -9 -25 -38 -29 -16 -7
-15 -11 -9 -25 -38 -29 -16 -7
-14 -12 -8 -24 -37 -30 -15 -7
-14 -13 -8 -25 -37 -30 -16 -8
-15 -14 -8 -25 -38 -31 -16 -9
-15 -15 -8 -26 -38 -31 -17 -10
-15 -16 -8 -26 -38 -31 -17 -10
-16 -17 -9 -27 -39 -32 -18 -11
-15 -17 -9 -27 -40 -32 -19 -11
-14 -17 -9 -27 -40 -33 -19 -12
-13 -17 -9 -27 -41 -33 -20 -12
-13 -17 -9 -27 -41 -33 -20 -12
-12 -17 -8 -28 -41 -34 -21 -13
-13 -17 -8 -27 -40 -33 -20 -12
-14 -16 -8 -26 -39 -33 -20 -12
-15 -16 -8 -25 -38 -32 -19 -11
-16 -16 -8 -24 -37 -32 -19 -11
-17 -15 -8 -23 -36 -31 -18 -10
-17 -14 -8 -23 -36 -30 -17 -10
-16 -14 -8 -24 -36 -30 -17 -9
-16 -13 -8 -24 -36 -29 -16 -9
-16 -13 -8 -24 -36 -29 -16 -9
-15 -12 -8 -25 -37 -28 -15 -8
-15 -13 -8 -24 -36 -28 -15 -8
-14 -13 -7 -23 -35 -29 -15 -8
-14 -14 -7 -22 -34 -29 -15 -8
-14 -14 -7 -21 -33 -29 -15 -8
-13 -15 0 -6 -20 -25 -16 -9
-12 -16 6 12 -5 -19 -17 -11
-11 -17 12 29 10 -13 -17 -13
-10 -18 18 47 25 -7 -18 -14
-10 -19 25 64 39 1 -18 -16
-3 -15 34 93 73 22 -9 -14
5 -8 44 123 110 48 4 -9
12 0 53 155 148 72 16 -4
19 7 63 186 185 97 28 1
26 13 72 217 222 122 40 6
37 32 74 220 241 162 74 28
49 55 74 218 257 204 112 54
60 76 74 215 273 246 150 79
71 98 74 213 288 289 189 105
82 119 74 210 305 331 227 132
80 147 53 127 250 347 265 167
75 175 27 28 180 357 302 202
69 203 3 -69 110 367 340 239
64 232 -23 -168 40 379 378 276
58 260 -49 -265 -30 389 415 313
49 232 -48 -271 -59 332 368 284
38 191 -41 -259 -80 262 305 242
29 151 -35 -246 -102 191 240 200
19 111 -29 -234 -122 121 177 157
9 71 -23 -222 -144 51 113 115
3 50 -21 -204 -158 11 78 91
-4 32 -21 -185 -171 -23 50 69
-9 14 -21 -165 -183 -57 21 48
-15 -4 -21 -146 -195 -91 -8 26
-21 -22 -21 -127 -207 -124 -36 5
-22 -29 -20 -109 -191 -122 -43 -4
-22 -34 -18 -94 -166 -112 -46 -9
-21 -39 -16 -77 -143 -102 -48 -14
-21 -45 -14 -61 -118 -91 -50 -19
-21 -51 -12 -45 -95 -80 -52 -25
-18 -49 -9 -36 -80 -73 -50 -25
-15 -44 -5 -28 -69 -65 -46 -24
-11 -39 0 -21 -57 -58 -41 -23
-8 -35 3 -14 -46 -51 -37 -21
-5 -30 7 -7 -34 -44 -33 -20
-4 -28 8 -4 -28 -39 -31 -18
-4 -26 7 -2 -23 -35 -28 -16
-4 -24 6 1 -18 -32 -26 -14
-4 -22 5 3 -13 -29 -24 -12
-4 -20 4 5 -8 -25 -22 -10
-5 -18 3 7 -5 -23 -21 -9
-4 -17 4 9 0 -21 -20 -8
-3 -15 5 11 3 -19 -19 -7
-2 -13 6 13 6 -17 -18 -6
-2 -12 7 15 10 -15 -17 -6
0 -10 8 17 11 -14 -16 -5
0 -8 9 18 12 -14 -16 -4
0 -6 9 19 12 -13 -15 -4
0 -5 10 21 13 -13 -15 -3
0 -3 10 22 13 -13 -15 -3
1 -2 11 23 14 -12 -14 -2
3 -2 11 23 15 -11 -14 -2
4 -2 10 23 16 -10 -13 -2
5 -2 10 23 17 -9 -13 -2
6 -2 10 23 17 -9 -13 -2
7 -3 9 24 19 -7 -12 0
7 -2 9 25 20 -5 -11 0
7 0 9 26 21 -3 -10 1
7 1 9 27 23 -2 -9 1
7 2 9 27 24 1 -8 1
8 4 9 28 25 2 -7 2
10 5 9 29 26 2 -7 2
13 6 9 30 27 2 -8 1
15 8 9 31 28 2 -8 1
17 9 9 31 28 2 -8 1
18 10 10 32 29 3 -9 0
17 9 10 33 30 4 -8 0
16 9 10 34 31 4 -7 1
15 8 10 35 32 5 -6 1
14 8 10 35 33 5 -6 1
13 7 9 36 34 6 -5 2
15 7 8 37 35 7 -5 2
16 8 7 37 36 7 -5 2
17 8 6 38 37 8 -5 2
18 8 6 38 38 8 -5 2
18 9 5 40 40 10 -6 2
17 8 5 43 42 12 -5 3
16 8 5 45 44 14 -4 3
14 7 5 46 46 15 -3 4
13 7 5 48 47 17 -2 4
12 6 5 49 48 18 0 5
13 7 5 49 49 17 -2 4
14 8 5 50 50 17 -3 3
15 9 5 50 51 16 -4 2
15 9 5 50 51 16 -4 2
17 10 6 52 53 16 -4 2
19 11 5 53 55 18 -2 3
22 12 5 54 58 21 1 5
24 13 4 56 60 23 3 7
26 14 4 57 62 25 5 8
27 15 3 58 65 27 6 9
27 14 3 59 68 29 8 9
27 13 4 60 71 32 9 9
27 12 4 61 74 34 10 9
27 12 4 62 77 36 11 9
27 11 5 65 79 37 12 9
27 11 5 68 81 39 12 9
27 12 5 71 85 40 12 9
27 12 5 75 87 42 12 9
27 12 5 78 89 43 12 9
28 13 4 80 91 45 11 10
29 14 4 81 93 47 12 12
30 15 4 82 94 48 13 13
31 16 4 85 96 50 14 14
32 16 4 86 98 52 15 15
34 17 4 87 100 53 16 16
36 17 3 87 101 54 16 16
38 17 2 87 102 55 17 16
40 17 1 87 104 56 17 16
43 17 0 87 105 56 17 16
45 18 -2 88 108 58 18 16
46 18 -2 90 110 60 20 16
47 17 -2 91 113 62 21 16
49 17 -2 92 116 64 22 16
50 17 -2 93 119 66 23 16
51 16 -3 94 120 67 24 17
52 17 -5 94 120 67 24 18
52 17 -6 95 120 68 24 18
53 18 -7 95 120 68 24 19
53 18 -8 95 120 68 24 19
54 19 -9 96 120 69 25 20
54 18 -9 96 120 67 23 20
54 18 -9 96 120 66 22 20
54 17 -9 96 120 65 21 20
54 17 -9 96 120 64 20 20
53 16 -8 94 118 63 19 21
53 16 -9 92 116 63 19 21
53 16 -10 91 114 62 18 20
53 16 -11 89 112 62 18 20
53 16 -12 87 110 62 18 20
54 16 -13 86 109 60 17 19
55 15 -15 85 108 58 16 19
56 15 -16 84 108 57 16 19
56 14 -17 84 107 55 15 19
57 14 -18 82 107 53 15 19
58 13 -19 79 104 52 14 18
58 13 -19 77 101 50 14 18
59 14 -19 74 97 49 14 18
59 14 -19 71 94 48 14 18
59 14 -19 68 90 47 14 18
59 15 -20 67 89 46 13 19
56 16 -20 66 89 46 13 19
54 17 -19 65 89 46 14 19
52 17 -19 64 89 46 14 19
49 18 -19 63 89 46 14 19
48 19 -18 60 85 45 15 20
48 21 -17 57 80 43 15 21
47 22 -17 54 76 40 15 22
47 23 -16 51 72 38 15 22
47 24 -16 48 68 36 15 23
46 25 -15 45 64 35 14 24
46 26 -15 42 62 33 14 24
46 26 -15 38 59 32 14 23
46 27 -15 35 56 31 14 23
46 27 -15 31 53 30 14 23
44 28 -14 30 52 29 14 22
40 29 -14 29 50 28 14 22
37 30 -13 28 49 28 15 22
35 30 -13 28 48 27 15 22
32 31 -13 27 47 27 15 22
31 32 -11 26 44 24 16 23
30 31 -10 24 39 22 15 23
29 30 -9 23 36 19 15 23
29 30 -7 22 32 16 14 23
28 29 -6 21 29 13 14 23
27 28 -5 18 26 12 13 22
26 28 -5 15 24 11 12 21
25 27 -6 11 23 10 11 20
24 27 -6 8 21 10 11 20
23 27 -6 4 19 9 10 19
21 26 -7 3 18 7 9 18
20 25 -7 3 18 6 8 17
19 24 -8 2 17 4 7 17
17 24 -8 2 17 3 6 16
16 23 -8 2 17 1 5 16
14 21 -9 1 15 0 4 15
12 18 -9 -2 12 -3 3 14
11 15 -9 -3 9 -4 2 13
9 13 -9 -4 7 -5 1 12
7 10 -9 -5 4 -6 0 11
6 9 -10 -6 4 -7 -2 10
5 9 -9 -6 5 -7 -2 10
5 8 -9 -6 7 -7 -2 9
4 8 -8 -6 8 -7 -2 9
4 8 -8 -6 10 -7 -2 9
3 7 -7 -7 11 -7 -2 8
3 8 -7 -7 10 -7 -2 8
3 9 -8 -7 9 -7 -2 8
3 9 -8 -7 9 -7 -2 8
3 10 -8 -7 8 -7 -2 8
3 10 -9 -6 7 -7 -3 8
2 9 -9 -6 7 -7 -3 7
2 7 -9 -6 7 -7 -3 6
1 6 -9 -6 7 -7 -3 6
1 4 -9 -6 7 -7 -3 5
-2 3 -9 -5 8 -6 -4 4
-3 3 -9 -5 9 -6 -5 4
-5 2 -9 -5 9 -7 -5 4
-6 2 -9 -5 10 -7 -6 4
-8 2 -9 -5 10 -7 -6 4
-9 1 -10 -6 11 -8 -7 5
-7 1 -10 -6 12 -8 -7 4
-6 0 -10 -6 12 -8 -7 3
-5 0 -10 -6 13 -8 -7 3
-4 0 -10 -6 13 -8 -7 2
-4 -2 -11 -6 14 -7 -8 1
-6 -2 -11 -6 14 -7 -7 1
-7 -2 -11 -5 14 -7 -7 2
-9 -2 -11 -5 14 -7 -6 2
-11 -2 -11 -5 14 -7 -6 2
-12 -3 -10 -4 15 -6 -5 3
-12 -4 -10 -4 15 -6 -5 3
-13 -5 -11 -4 15 -6 -6 2
-13 -5 -11 -4 15 -6 -6 2
-13 -6 -11 -4 15 -6 -6 2
-14 -7 -12 -4 16 -5 -7 1
-13 -7 -12 -4 16 -6 -7 1
-12 -7 -12 -4 16 -6 -7 2
-11 -7 -12 -4 16 -7 -7 2
-10 -7 -12 -4 16 -7 -7 2
-9 -7 -13 -4 16 -8 -7 3
-11 -7 -13 -4 15 -8 -7 3
-12 -7 -14 -4 15 -8 -7 2
-14 -7 -14 -4 14 -8 -7 2
-15 -7 -14 -4 14 -8 -7 2
-16 -7 -15 -5 13 -9 -8 1
-16 -7 -15 -5 12 -9 -8 0
-17 -7 -15 -5 12 -10 -8 0
-17 -7 -15 -5 11 -10 -8 -2
-17 -7 -15 -5 11 -10 -8 -2
-18 -8 -15 -5 10 -11 -9 -3
-16 -8 -15 -5 10 -11 -9 -3
-15 -7 -15 -5 10 -11 -9 -3
-13 -7 -15 -5 10 -11 -9 -3
-12 -7 -15 -5 10 -11 -9 -3
-11 -6 -14 -6 9 -11 -8 -2
-11 -6 -14 -6 8 -11 -8 -2
-11 -6 -14 -6 7 -11 -8 -2
-11 -6 -14 -6 7 -11 -8 -2
-11 -6 -14 -6 6 -11 -8 -2
-11 -5 -14 -7 5 -12 -8 -3
-11 -5 -14 -7 4 -12 -8 -3
-12 -6 -13 -7 2 -13 -9 -3
-13 -7 -13 -7 1 -13 -9 -3
-13 -7 -13 -7 0 -13 -9 -3
-14 -8 -12 -7 -3 -14 -10 -2
-13 -8 -12 -7 -5 -14 -10 -2
-12 -7 -13 -8 -8 -15 -10 -2
-12 -7 -14 -9 -10 -15 -10 -2
-11 -7 -14 -9 -13 -15 -10 -2
-10 -6 -15 -10 -14 -16 -11 -3
-10 -6 -15 -10 -15 -17 -12 -3
-10 -6 -14 -11 -17 -18 -13 -3
-10 -6 -14 -11 -18 -18 -13 -3
-10 -6 -14 -11 -19 -19 -14 -3
-9 -6 -13 -12 -20 -20 -15 -4
-9 -6 -13 -12 -21 -20 -15 -4
-10 -6 -13 -13 -22 -20 -14 -4
-10 -6 -13 -14 -23 -20 -13 -4
-10 -6 -13 -14 -24 -20 -13 -4
-11 -5 -13 -15 -25 -21 -12 -3
-12 -6 -13 -15 -25 -21 -12 -3
-13 -7 -13 -15 -25 -21 -13 -4
-13 -7 -13 -15 -25 -21 -14 -4
-14 -8 -13 -15 -25 -21 -14 -4
-15 -9 -14 -16 -25 -22 -15 -5
-14 -9 -14 -16 -25 -22 -15 -5
-13 -8 -14 -16 -26 -22 -14 -5
-12 -7 -14 -16 -26 -22 -14 -5
-11 -7 -14 -16 -26 -22 -14 -5
-10 -6 -14 -16 -27 -23 -13 -4
-11 -7 -14 -16 -27 -23 -13 -4
-13 -8 -13 -16 -28 -23 -13 -4
-14 -9 -12 -16 -28 -23 -13 -4
-15 -10 -12 -16 -28 -23 -13 -4
-16 -11 -11 -17 -29 -23 -14 -5
-16 -11 -11 -17 -29 -23 -14 -5
-16 -10 -11 -17 -28 -23 -14 -5
-16 -9 -11 -17 -28 -23 -14 -5
-16 -9 -11 -17 -28 -23 -14 -5
-15 -8 -12 -16 -27 -23 -13 -5
-14 -8 -12 -17 -27 -24 -13 -5
-13 -8 -12 -18 -28 -25 -14 -5
-12 -8 -12 -19 -29 -25 -15 -5
-11 -8 -12 -20 -29 -26 -15 -5
-10 -9 -13 -21 -30 -27 -16 -6
-11 -9 -13 -21 -30 -26 -16 -6
-12 -8 -14 -20 -31 -25 -15 -6
-12 -8 -14 -20 -31 -25 -15 -6
-13 -8 -14 -20 -31 -24 -15 -6
-14 -7 -15 -19 -32 -23 -14 -7
-14 -7 -15 -19 -32 -23 -14 -7
-13 -7 -14 -19 -31 -24 -15 -7
-12 -7 -14 -19 -31 -24 -16 -7
-12 -7 -14 -19 -31 -24 -16 -7
-11 -7 -13 -18 -30 -25 -17 -6
-11 -6 -13 -18 -30 -25 -17 -6
-10 -4 -13 -18 -31 -25 -16 -6
-9 -3 -13 -18 -32 -25 -16 -6
-9 -2 -13 -18 -32 -25 -16 -6
-8 0 -13 -19 -33 -26 -15 -6
-8 -3 -12 -19 -33 -26 -15 -6
-9 -4 -11 -18 -33 -27 -15 -7
-10 -6 -10 -18 -33 -28 -15 -7
-10 -7 -9 -18 -33 -28 -15 -7
-11 -7 -8 -17 -33 -29 -16 -8
-10 -5 -8 -17 -33 -28 -14 -7
-9 -2 -7 -17 -32 -26 -13 -6
-8 1 -6 -17 -32 -25 -11 -5
-7 4 -6 -17 -32 -24 -10 -4
-6 5 -5 -16 -31 -23 -9 -3
-7 6 -4 -16 -30 -23 -9 -3
-8 7 -3 -15 -28 -23 -9 -3
-8 7 -3 -14 -27 -23 -9 -3
-9 8 -2 -14 -26 -23 -9 -3
-10 9 0 -13 -25 -23 -8 -2
-10 9 0 -12 -25 -23 -8 -2
-9 10 1 -11 -24 -22 -8 0
-9 11 2 -11 -23 -22 -8 0
-9 11 2 -10 -23 -22 -8 0
-8 13 3 -9 -22 -21 -7 1
-8 15 3 -11 -22 -19 -6 3
-7 18 2 -12 -21 -18 -5 4
-7 20 1 -14 -20 -16 -5 6
-7 23 1 -15 -20 -15 -4 7
-6 24 -2 -16 -19 -14 -3 8
-4 24 -4 -17 -19 -14 -2 8
-3 25 -6 -18 -20 -14 0 8
0 26 -8 -19 -21 -14 0 8
1 26 -10 -20 -21 -14 1 8
2 27 -11 -21 -22 -14 2 9
2 27 -12 -21 -22 -15 2 9
3 28 -13 -22 -23 -16 2 9
3 28 -13 -22 -23 -17 2 9
3 28 -14 -22 -23 -18 2 9
4 29 -15 -23 -24 -19 2 9
4 27 -15 -24 -25 -19 2 9
5 26 -15 -25 -26 -20 1 8
6 24 -15 -26 -27 -20 0 7
6 23 -15 -27 -28 -20 0 7
7 21 -16 -28 -29 -21 -2 6
6 19 -16 -28 -29 -22 -2 5
4 17 -15 -28 -30 -24 -3 4
3 15 -15 -28 -30 -25 -4 3
2 12 -15 -28 -30 -26 -4 2
1 11 -14 -29 -31 -27 -5 1
1 10 -12 -29 -31 -27 -6 1
0 9 -11 -29 -31 -27 -7 1
-2 8 -9 -29 -31 -27 -7 1
-2 7 -8 -29 -31 -27 -8 1
-3 5 -7 -28 -32 -28 -9 1
-4 3 -7 -28 -32 -29 -10 -2
-5 0 -7 -28 -32 -30 -11 -4
-5 -3 -7 -28 -32 -30 -12 -5
-6 -5 -7 -28 -32 -31 -13 -7
-8 -7 -6 -27 -32 -32 -14 -8
-9 -9 -6 -27 -32 -32 -14 -8
-11 -11 -6 -26 -33 -33 -15 -9
-13 -12 -6 -26 -34 -33 -15 -9
-15 -14 -6 -26 -34 -33 -15 -9
-16 -15 -6 -25 -35 -34 -16 -10
-14 -15 -6 -25 -35 -34 -17 -10
-13 -14 -6 -25 -35 -35 -18 -11
-12 -14 -6 -25 -35 -36 -18 -12
-10 -14 -6 -25 -35 -36 -19 -12
-9 -13 -5 -26 -36 -37 -20 -13
-9 -13 -5 -26 -36 -37 -20 -13
-10 -12 -6 -27 -36 -37 -20 -13
-10 -11 -6 -27 -36 -37 -20 -13
-10 -11 -6 -27 -36 -37 -20 -13
-11 -10 -7 -28 -35 -36 -19 -14
-10 -10 -7 -28 -35 -36 -19 -14
-9 -11 -6 -27 -35 -36 -19 -14
-8 -11 -5 -27 -35 -36 -19 -14
-7 -11 -5 -27 -35 -36 -19 -14
-6 -12 -4 -26 -34 -35 -20 -15
-8 -12 -4 -26 -34 -35 -20 -15
-9 -13 -4 -25 -35 -35 -20 -14
-10 -14 -4 -24 -36 -35 -20 -13
-12 -14 -4 -24 -36 -35 -20 -13
-13 -15 -2 -18 -33 -35 -19 -13
-13 -16 3 -8 -24 -31 -19 -16
-12 -17 7 3 -15 -27 -20 -18
-11 -18 11 14 -6 -24 -21 -21
-11 -19 16 24 4 -20 -21 -23
-8 -17 22 45 23 -10 -19 -24
-3 -12 31 73 52 6 -13 -21
3 -6 40 103 80 21 -7 -18
7 0 50 132 108 36 0 -15
12 6 59 160 137 52 7 -12
21 17 67 183 169 80 25 -2
32 32 73 200 203 122 55 15
45 48 79 217 239 164 85 32
57 63 86 234 274 205 113 49
68 78 92 251 310 247 143 65
75 104 82 212 299 279 179 93
79 137 57 122 244 303 221 129
82 170 32 33 191 326 263 165
87 202 8 -56 138 350 305 202
90 235 -17 -145 85 375 347 239
86 234 -30 -201 46 372 352 245
73 201 -33 -229 21 348 321 224
61 169 -36 -256 -5 322 290 201
49 135 -39 -283 -30 298 260 180
36 102 -43 -311 -56 272 230 158
26 75 -45 -314 -87 217 189 133
17 55 -45 -294 -123 135 139 106
8 34 -45 -272 -160 53 90 78
-2 14 -45 -252 -197 -29 39 52
-10 -7 -45 -231 -234 -111 -10 24
-15 -21 -46 -208 -240 -147 -37 6
-16 -31 -45 -185 -217 -138 -44 -4
-18 -40 -43 -162 -194 -129 -50 -14
-19 -51 -41 -139 -171 -119 -56 -23
-20 -60 -40 -115 -147 -110 -62 -33
-21 -64 -35 -96 -127 -101 -63 -38
-20 -60 -26 -80 -110 -91 -59 -37
-19 -56 -17 -66 -93 -80 -54 -36
-19 -53 -9 -51 -76 -71 -49 -36
-18 -49 1 -36 -59 -61 -45 -35
-17 -45 6 -27 -49 -55 -40 -33
-15 -40 6 -24 -44 -51 -38 -31
-14 -36 5 -21 -37 -47 -36 -28
-13 -32 5 -18 -32 -44 -34 -26
-11 -28 5 -15 -27 -39 -32 -24
-10 -26 5 -11 -23 -37 -30 -22
-11 -26 7 -7 -19 -35 -29 -22
-12 -25 9 -3 -16 -34 -28 -21
-12 -24 11 2 -13 -33 -28 -21
-13 -24 13 6 -9 -31 -27 -21
-14 -23 14 8 -7 -30 -26 -20
-14 -21 14 9 -6 -29 -25 -20
-13 -19 14 10 -5 -27 -24 -19
-12 -18 14 10 -4 -26 -24 -18
-12 -16 14 11 -3 -25 -23 -18
-11 -15 15 12 -2 -24 -22 -17
-9 -15 15 13 -2 -24 -22 -17
-8 -15 15 14 -2 -25 -22 -17
-7 -15 15 15 -2 -25 -22 -17
-5 -15 15 16 -2 -25 -22 -17
-4 -16 14 17 0 -26 -23 -18
-4 -16 13 18 2 -24 -23 -18
-4 -16 13 19 3 -22 -23 -18
-5 -16 12 21 4 -20 -23 -19
-5 -16 11 22 6 -18 -23 -19
-6 -17 10 23 7 -17 -22 -20
-6 -17 12 25 8 -17 -22 -20
-6 -16 13 27 9 -17 -22 -20
-6 -15 15 29 10 -17 -22 -19
-6 -15 17 31 11 -17 -22 -19
-5 -14 18 32 12 -16 -21 -18
-5 -14 18 31 12 -15 -21 -18
-5 -14 18 31 12 -15 -21 -18
-4 -14 17 30 12 -14 -21 -18
-4 -14 17 29 12 -13 -21 -18
-3 -14 16 28 14 -12 -20 -17
-3 -14 17 30 16 -11 -20 -17
-3 -13 18 32 18 -10 -19 -17
-3 -12 20 34 21 -9 -18 -16
-3 -12 21 36 23 -8 -18 -16
-3 -11 22 37 25 -7 -17 -15
-2 -11 22 38 25 -6 -16 -15
0 -11 22 38 25 -5 -16 -15
1 -11 21 39 25 -3 -15 -14
2 -11 21 40 25 -2 -14 -14
3 -10 20 42 26 0 -13 -13
3 -10 20 44 28 0 -13 -13
2 -10 20 45 30 0 -13 -13
1 -10 20 47 32 1 -13 -13
1 -10 20 49 34 1 -13 -13
0 -11 19 50 36 2 -12 -14
0 -11 19 50 37 3 -11 -14
0 -10 19 50 38 4 -10 -14
0 -9 20 50 39 6 -9 -14
0 -9 20 50 40 7 -8 -14
0 -8 21 52 43 8 -7 -13
0 -8 21 56 46 10 -6 -13
0 -8 21 60 49 12 -5 -12
0 -7 21 64 53 14 -4 -11
0 -7 21 67 56 16 -3 -11
0 -6 22 70 58 17 -2 -10
2 -6 21 70 58 17 -2 -10
4 -6 20 70 58 17 -3 -11
6 -6 18 70 58 17 -4 -12
8 -6 17 70 58 17 -4 -12
10 -7 16 70 60 18 -5 -13
10 -6 17 74 64 20 -3 -13
10 -6 17 78 67 22 -2 -13
10 -5 18 82 71 24 1 -12
10 -4 19 86 75 26 3 -12
11 -3 20 89 77 28 4 -11
12 -3 19 91 79 30 4 -11
12 -3 18 92 81 31 5 -11
13 -3 17 94 84 33 6 -10
14 -3 16 96 86 35 6 -10
15 -3 15 97 88 36 7 -9
15 -2 15 99 89 37 7 -9
16 0 15 100 89 37 7 -9
17 1 14 101 90 38 8 -8
17 2 14 103 91 39 8 -8
19 3 13 104 92 40 9 -7
23 3 13 104 94 40 9 -7
26 3 13 105 95 42 9 -7
30 3 13 106 97 43 9 -6
34 3 13 106 99 43 9 -6
36 2 12 107 100 44 10 -5
33 2 11 107 100 44 10 -3
31 2 10 107 100 44 10 -2
29 2 8 107 99 44 11 0
27 2 7 107 99 44 11 2
25 2 6 108 98 45 12 3
25 2 5 107 97 44 12 3
25 1 4 106 96 43 11 3
25 0 3 105 94 42 10 3
25 0 2 104 93 40 10 3
24 -2 1 103 92 39 9 2
27 1 1 101 90 36 9 2
29 2 1 99 88 34 9 2
31 3 1 97 86 32 8 1
33 5 1 96 84 30 8 1
35 6 0 93 81 28 7 0
35 6 0 90 79 27 6 0
35 5 -2 88 78 27 5 0
34 4 -3 85 77 26 4 0
34 4 -3 81 75 25 3 0
32 3 -4 79 73 24 2 0
29 2 -5 77 70 23 2 0
27 1 -5 75 68 22 2 0
24 -2 -6 73 65 21 2 0
21 -3 -7 71 62 20 2 0
19 -3 -8 68 59 19 3 1
20 0 -8 64 55 18 4 1
21 2 -7 61 52 17 5 2
22 5 -6 57 48 16 6 3
23 7 -6 54 45 15 7 3
23 9 -5 50 40 14 8 4
21 9 -5 48 38 13 7 4
18 9 -5 45 35 11 7 4
16 8 -5 42 33 10 6 4
13 8 -5 38 30 8 5 4
11 7 -4 35 27 7 4 4
10 8 -3 33 24 6 4 4
10 8 -2 30 20 6 4 4
9 9 0 28 17 5 4 4
8 10 1 25 13 4 4 4
7 11 2 23 11 3 5 5
6 10 2 21 9 1 4 5
5 10 2 19 8 -2 4 5
4 9 2 17 6 -4 3 4
3 8 2 16 4 -5 2 4
2 7 1 14 2 -7 1 3
1 6 1 11 0 -8 1 3
0 4 1 9 -4 -9 0 3
-2 3 1 6 -7 -10 -2 2
-3 1 1 4 -10 -11 -2 2
-4 0 2 2 -12 -12 -3 1
-4 1 2 1 -13 -13 -3 1
-4 1 2 -2 -14 -14 -3 1
-4 2 2 -3 -15 -15 -3 1
-4 3 2 -5 -16 -16 -3 1
-3 4 2 -6 -17 -17 -3 1
-3 4 2 -6 -17 -17 -3 1
-3 4 2 -6 -17 -17 -3 1
-3 4 2 -6 -18 -17 -4 0
-3 4 2 -6 -18 -17 -4 0
-3 4 3 -7 -19 -18 -5 -2
-3 3 3 -7 -20 -19 -6 -2
-3 2 3 -7 -21 -21 -7 -2
-4 0 3 -7 -23 -22 -9 -2
-4 -2 3 -7 -24 -24 -10 -2
-5 -3 3 -6 -25 -25 -11 -3
-5 -3 3 -7 -25 -25 -11 -3
-4 -3 2 -9 -25 -25 -11 -3
-3 -2 1 -10 -25 -24 -12 -4
-3 -2 1 -12 -25 -24 -12 -4
-2 0 0 -13 -24 -23 -13 -5
-3 0 0 -12 -23 -23 -13 -5
-4 -2 0 -11 -22 -23 -13 -5
-5 -3 0 -10 -21 -23 -12 -5
-6 -3 0 -9 -20 -23 -12 -5
-7 -4 1 -8 -19 -22 -11 -5
-7 -4 2 -7 -19 -22 -11 -4
-7 -3 4 -6 -18 -21 -11 -3
-7 -2 5 -4 -17 -20 -10 -2
-7 -2 7 -3 -17 -20 -10 0
-8 0 8 -2 -16 -19 -9 1
-8 0 8 -2 -15 -19 -9 0
-8 0 8 -2 -15 -19 -9 0
-9 0 7 0 -14 -18 -10 -2
-9 0 7 0 -13 -18 -10 -3
-10 -2 6 1 -12 -17 -11 -4
-9 -2 5 1 -12 -17 -11 -4
-7 -2 5 1 -12 -17 -11 -4
-6 0 4 1 -12 -17 -11 -5
-4 0 3 1 -12 -17 -11 -5
-3 1 2 0 -13 -17 -11 -6
-3 2 2 1 -13 -17 -11 -6
-3 3 2 1 -12 -17 -11 -6
-3 4 3 2 -11 -17 -11 -5
-3 5 3 3 -11 -17 -11 -5
-3 6 4 4 -10 -16 -10 -4
-4 6 4 4 -10 -16 -10 -3
-4 5 4 4 -10 -15 -10 -3
-5 4 4 4 -10 -14 -10 -2
-6 4 4 4 -10 -14 -10 0
-7 3 4 4 -10 -13 -10 1
-6 3 4 4 -10 -13 -10 1
-6 3 3 4 -10 -13 -10 0
-5 3 2 4 -10 -14 -10 -2
-4 3 2 4 -10 -14 -10 -2
-3 3 1 3 -11 -15 -11 -3
-3 3 1 3 -11 -15 -11 -3
-3 3 1 3 -11 -15 -11 -3
-4 4 1 3 -11 -15 -11 -3
-4 4 1 3 -11 -15 -11 -3
-5 5 1 4 -10 -14 -11 -2
-5 4 1 4 -10 -14 -11 -2
-5 4 1 4 -10 -14 -10 -2
-5 3 1 4 -10 -14 -9 0
-5 2 1 4 -10 -14 -9 0
-5 1 2 4 -10 -13 -8 1
-5 1 2 4 -10 -13 -8 1
-5 2 3 4 -10 -14 -8 1
-5 3 4 4 -11 -15 -8 2
-5 3 4 4 -11 -15 -8 2
-4 4 5 3 -12 -16 -7 3
-4 4 4 2 -13 -16 -7 3
-4 4 3 2 -13 -16 -7 2
-4 3 2 1 -14 -17 -8 1
-4 3 1 0 -15 -17 -8 1
-3 2 0 -2 -16 -18 -9 0
-2 2 0 -2 -17 -19 -9 0
-2 2 0 -3 -18 -19 -9 0
0 3 0 -4 -19 -20 -9 0
1 3 0 -4 -20 -21 -9 0
2 4 -2 -5 -21 -22 -10 0
0 4 -2 -4 -20 -22 -10 0
-2 4 -2 -4 -19 -22 -10 0
-4 4 0 -3 -17 -21 -10 1
-5 4 0 -2 -16 -21 -10 1
-7 3 1 0 -15 -20 -11 2
-6 3 1 -3 -16 -20 -11 2
-6 3 0 -5 -17 -21 -11 1
-5 3 -2 -7 -19 -22 -11 0
-4 3 -2 -8 -20 -22 -11 0
-3 3 -3 -10 -21 -23 -11 -2
-2 3 -3 -10 -21 -23 -12 -2
0 3 -3 -9 -21 -24 -12 -2
1 3 -3 -9 -21 -24 -13 -2
3 3 -3 -8 -21 -25 -14 -2
4 2 -4 -7 -22 -26 -15 -3
2 2 -4 -8 -22 -26 -15 -3
0 2 -4 -8 -22 -26 -15 -3
-3 1 -3 -9 -23 -25 -14 -2
-5 1 -3 -10 -23 -25 -14 -2
-7 0 -2 -11 -24 -24 -13 0
-7 0 -2 -11 -24 -24 -13 0
-7 0 -2 -11 -24 -24 -13 0
-7 -2 -2 -11 -24 -24 -13 0
-7 -2 -2 -11 -24 -24 -13 0
-7 -3 -2 -12 -25 -25 -14 -2
-7 -3 -2 -12 -25 -25 -14 -2
-7 -3 -2 -12 -25 -25 -14 -2
-7 -3 -2 -12 -25 -25 -14 -2
-7 -3 -2 -12 -25 -25 -14 -2
-6 -4 -2 -12 -25 -25 -15 -3
-6 -4 -2 -12 -25 -25 -15 -3
-6 -4 -2 -12 -25 -25 -15 -3
-6 -4 -2 -13 -26 -25 -15 -3
-6 -4 -2 -13 -26 -25 -15 -3
-6 -5 -3 -14 -27 -26 -15 -2
-6 -5 -3 -14 -27 -26 -15 -2
-6 -5 -3 -14 -27 -26 -15 -2
-6 -5 -3 -14 -27 -26 -15 -3
-6 -5 -3 -14 -27 -26 -15 -3
-6 -5 -3 -14 -28 -26 -15 -4
-6 -5 -3 -14 -28 -26 -15 -4
-6 -5 -3 -14 -28 -26 -15 -4
-5 -4 -2 -14 -28 -27 -15 -3
-5 -4 -2 -14 -28 -27 -15 -3
-4 -3 0 -13 -27 -28 -14 -2
-4 -3 0 -13 -27 -28 -14 -2
-4 -3 0 -14 -27 -28 -14 -2
-4 -3 0 -14 -27 -27 -13 -2
-4 -3 0 -15 -27 -27 -13 -2
-4 -2 -2 -16 -27 -26 -12 -3
-6 -4 -2 -16 -27 -27 -13 -4
-7 -5 -2 -16 -27 -27 -13 -4
-9 -7 -2 -16 -27 -28 -14 -5
-10 -8 -2 -16 -27 -29 -15 -6
-12 -10 0 -17 -28 -30 -16 -7
-9 -8 0 -17 -28 -29 -15 -7
-7 -6 0 -16 -27 -29 -15 -7
-4 -4 0 -16 -27 -28 -14 -7
0 -2 0 -15 -26 -27 -13 -7
2 1 -2 -14 -25 -26 -12 -6
1 2 1 -14 -24 -26 -11 -5
0 4 3 -13 -23 -25 -11 -4
-2 5 4 -13 -22 -25 -10 -3
-4 7 6 -12 -21 -24 -9 0
-5 8 8 -11 -20 -23 -8 1
-5 10 9 -11 -20 -23 -8 2
-5 12 10 -11 -20 -23 -7 2
-4 13 11 -10 -20 -23 -7 3
-4 15 13 -10 -20 -23 -6 4
-3 17 14 -9 -20 -22 -5 5
-3 17 14 -9 -19 -22 -4 5
-3 17 14 -8 -18 -21 -4 5
-3 17 13 -8 -17 -21 -3 5
-3 17 13 -7 -15 -20 -2 5
-2 17 12 -6 -14 -19 0 4
0 19 9 -9 -14 -19 1 4
1 22 7 -11 -15 -19 1 4
2 24 5 -14 -15 -19 2 5
3 26 2 -17 -16 -19 3 5
4 28 0 -19 -17 -18 4 6
5 28 -2 -19 -17 -18 4 7
7 28 -3 -19 -17 -18 4 8
8 28 -4 -19 -18 -18 4 9
9 28 -6 -19 -18 -18 4 11
11 29 -7 -19 -19 -18 3 12
11 29 -8 -20 -19 -18 3 12
11 29 -9 -20 -19 -18 3 12
12 29 -10 -21 -19 -17 3 11
12 29 -11 -22 -19 -17 3 11
13 30 -12 -23 -20 -16 4 10
11 28 -12 -23 -20 -17 4 10
9 26 -13 -23 -21 -17 4 10
8 23 -13 -24 -21 -18 3 9
6 21 -14 -24 -22 -19 3 9
4 19 -15 -25 -23 -20 2 8
3 15 -14 -26 -25 -21 1 6
2 12 -14 -26 -26 -22 -2 5
1 8 -13 -27 -28 -23 -3 3
0 5 -12 -28 -29 -25 -4 2
-2 2 -11 -29 -31 -26 -6 0
-2 2 -10 -29 -31 -27 -7 0
-2 3 -10 -29 -31 -27 -8 -2
-2 3 -9 -29 -31 -28 -9 -2
-2 4 -8 -29 -31 -29 -10 -3
-2 5 -7 -28 -31 -30 -11 -4
-2 4 -7 -28 -31 -30 -12 -5
-2 3 -7 -28 -31 -30 -14 -5
-2 2 -7 -27 -31 -31 -15 -6
-2 1 -7 -27 -31 -31 -16 -7
-2 0 -7 -26 -32 -32 -18 -8
-3 -3 -7 -26 -32 -32 -18 -8
-5 -5 -7 -26 -32 -32 -17 -8
-6 -6 -7 -26 -32 -32 -17 -8
-7 -8 -7 -26 -32 -32 -16 -8
-9 -10 -6 -26 -33 -33 -15 -8
-9 -10 -6 -26 -33 -33 -15 -8
-9 -11 -6 -26 -33 -33 -16 -8
-10 -11 -6 -27 -34 -33 -16 -9
-10 -12 -6 -27 -34 -33 -17 -9
-11 -13 -6 -28 -35 -34 -18 -10
-11 -13 -6 -28 -35 -34 -18 -10
-11 -13 -7 -28 -35 -34 -18 -10
-11 -14 -7 -28 -36 -33 -18 -10
-11 -14 -8 -28 -36 -33 -18 -10
-11 -15 -9 -28 -37 -32 -18 -9
-11 -15 -9 -28 -37 -32 -18 -9
-11 -14 -8 -28 -36 -32 -18 -9
-10 -13 -8 -27 -36 -32 -17 -9
-10 -12 -7 -27 -35 -32 -17 -9
-9 -11 -6 -26 -34 -33 -16 -10
-9 -12 -6 -27 -34 -33 -17 -11
-9 -13 -7 -28 -34 -34 -18 -12
-9 -14 -8 -29 -34 -35 -19 -13
-9 -15 -9 -30 -34 -36 -21 -15
-9 -16 -9 -27 -30 -37 -22 -16
-9 -16 -3 -10 -17 -33 -22 -16
-9 -16 4 8 -4 -29 -22 -17
-10 -17 11 25 10 -26 -21 -18
-10 -17 17 43 23 -22 -21 -19
-10 -17 24 65 42 -14 -18 -20
-3 -11 35 101 79 12 -7 -16
4 -5 47 137 116 36 5 -12
11 3 57 173 154 61 16 -8
17 9 68 207 191 87 27 -4
25 18 77 236 224 114 44 5
38 37 77 232 242 153 75 26
51 58 77 228 260 192 108 48
63 77 77 224 277 230 141 69
76 97 77 220 295 269 174 91
87 119 73 194 296 303 206 115
86 150 47 89 234 319 243 149
85 181 20 -16 174 336 279 183
84 212 -7 -120 112 351 316 217
82 242 -32 -226 51 367 352 251
79 258 -54 -308 -3 368 369 270
66 213 -54 -308 -31 307 315 233
53 168 -53 -307 -59 246 261 196
39 123 -52 -306 -87 186 206 159
27 78 -51 -305 -114 126 152 123
15 39 -50 -300 -140 68 103 90
9 22 -51 -281 -159 24 71 68
3 6 -53 -262 -178 -21 38 48
-4 -12 -54 -242 -196 -65 7 26
-10 -28 -55 -223 -215 -109 -25 6
-15 -43 -57 -203 -225 -143 -51 -13
-17 -48 -53 -181 -200 -132 -53 -19
-19 -52 -50 -157 -175 -120 -54 -24
-21 -57 -46 -135 -150 -109 -56 -30
-23 -61 -41 -112 -124 -98 -58 -36
-25 -65 -37 -92 -102 -88 -60 -41
-25 -60 -30 -77 -89 -80 -55 -39
-25 -55 -23 -64 -74 -72 -51 -38
-25 -50 -16 -51 -61 -65 -46 -36
-25 -45 -9 -36 -48 -57 -41 -34
-24 -40 -3 -25 -36 -51 -37 -32
-22 -37 -3 -25 -32 -47 -34 -30
-20 -34 -4 -24 -28 -44 -31 -29
-17 -31 -4 -24 -24 -40 -29 -27
-15 -28 -5 -23 -21 -36 -26 -25
-13 -25 -6 -22 -17 -33 -23 -23
-13 -25 -5 -17 -14 -33 -23 -23
-14 -25 -4 -12 -11 -33 -23 -24
-15 -25 -3 -8 -9 -33 -23 -24
-16 -25 0 -3 -6 -33 -23 -25
-17 -26 1 2 -3 -33 -23 -26
-17 -25 1 2 -3 -33 -23 -26
-17 -23 2 2 -3 -32 -23 -26
-16 -22 2 1 -3 -32 -23 -26
-16 -21 3 1 -3 -31 -23 -26
-15 -19 4 0 -3 -30 -23 -25
-15 -19 4 1 -2 -30 -23 -25
-14 -19 5 2 1 -29 -23 -25
-13 -19 6 3 2 -29 -22 -25
-12 -19 7 5 3 -28 -22 -25
-11 -19 8 6 5 -27 -21 -25
-11 -19 8 7 5 -27 -21 -25
-11 -19 8 9 5 -26 -21 -25
-10 -19 8 10 6 -25 -20 -25
-10 -19 8 11 6 -24 -20 -25
-9 -19 8 13 7 -23 -19 -24
-9 -19 8 13 8 -23 -19 -24
-10 -20 8 13 10 -23 -19 -24
-10 -20 7 13 11 -23 -19 -24
-11 -21 7 13 12 -23 -19 -24
-12 -22 6 13 14 -23 -20 -23
-11 -22 6 13 14 -22 -20 -23
-10 -21 6 14 15 -21 -19 -23
-9 -20 6 15 15 -20 -19 -23
-8 -19 6 16 16 -19 -18 -23
-7 -18 7 17 17 -18 -17 -23
-7 -18 7 18 18 -18 -17 -23
-7 -17 7 20 19 -17 -17 -23
-6 -16 8 21 20 -16 -18 -23
-6 -15 8 22 22 -15 -18 -23
-5 -14 9 24 23 -14 -19 -24
-6 -14 9 24 24 -13 -18 -24
-7 -15 9 25 25 -11 -16 -24
-8 -16 9 25 26 -10 -15 -23
-10 -17 9 26 28 -9 -14 -23
-11 -18 8 27 29 -7 -12 -22
-11 -18 8 27 31 -7 -12 -22
-10 -18 8 28 32 -7 -12 -22
-9 -18 8 29 34 -6 -13 -22
-8 -18 8 30 36 -6 -13 -22
-7 -18 7 31 38 -5 -14 -22
-7 -17 7 33 38 -4 -13 -21
-8 -16 7 35 39 -2 -11 -20
-9 -15 7 37 39 0 -10 -19
-10 -14 7 39 40 1 -9 -18
-11 -13 8 42 42 3 -7 -17
-8 -13 8 44 45 3 -7 -17
-6 -13 8 45 48 4 -7 -18
-3 -13 8 47 52 4 -7 -18
0 -13 8 49 55 5 -7 -19
3 -12 8 51 58 6 -7 -20
3 -12 8 53 58 7 -7 -20
3 -12 7 55 59 9 -7 -19
3 -12 6 57 59 10 -6 -19
3 -12 5 59 60 11 -6 -18
2 -13 4 61 61 13 -5 -17
3 -13 4 63 64 13 -5 -17
5 -13 4 64 67 14 -5 -17
7 -13 4 66 69 14 -5 -18
8 -13 4 68 72 15 -5 -18
10 -13 4 70 75 16 -5 -19
10 -11 4 72 76 18 -3 -19
11 -9 3 74 78 20 -2 -18
11 -7 3 76 80 22 1 -17
12 -4 2 78 81 25 3 -16
13 -2 1 80 84 27 5 -15
12 -3 1 81 86 27 5 -15
11 -4 1 84 89 27 5 -14
10 -5 1 86 92 27 5 -14
9 -6 1 87 94 27 5 -13
7 -7 0 89 97 28 5 -12
8 -7 0 89 97 29 5 -12
9 -7 0 89 96 30 5 -12
11 -8 -2 90 95 31 6 -12
12 -8 -2 90 94 32 6 -12
14 -9 -3 91 93 33 7 -11
17 -9 -5 91 93 32 7 -12
19 -9 -6 90 93 30 6 -13
22 -8 -8 90 92 28 6 -14
25 -8 -10 89 92 27 5 -15
28 -7 -12 88 91 25 4 -16
27 -7 -12 87 89 25 4 -15
26 -7 -12 86 88 25 4 -13
25 -8 -13 85 86 25 4 -11
24 -8 -13 84 84 25 4 -10
23 -9 -14 82 81 25 5 -8
23 -9 -14 82 80 23 5 -8
23 -9 -15 81 79 21 4 -9
23 -9 -15 80 78 19 4 -9
23 -9 -16 79 77 17 3 -10
22 -9 -17 78 75 15 2 -11
23 -8 -17 74 71 14 2 -11
24 -6 -17 70 68 13 1 -11
25 -5 -17 66 64 11 1 -11
26 -3 -17 62 61 10 0 -11
27 0 -17 58 57 8 -2 -12
24 -2 -17 55 57 7 -2 -12
22 -3 -17 53 56 6 -2 -12
19 -4 -18 50 56 5 -2 -12
16 -5 -18 47 55 4 -2 -12
13 -7 -19 44 54 2 -2 -12
13 -6 -19 43 52 2 -2 -12
12 -4 -19 40 51 2 -2 -11
12 -3 -19 39 49 2 -2 -11
11 0 -19 37 47 2 -2 -10
10 2 -18 35 45 2 -2 -9
7 2 -17 32 40 2 -2 -10
5 2 -16 28 36 1 -2 -11
2 2 -15 24 31 0 0 -12
-2 2 -14 21 27 -2 0 -13
-5 1 -13 17 23 -3 1 -14
-5 1 -13 15 20 -4 1 -14
-5 1 -13 13 18 -5 1 -14
-5 0 -13 11 15 -7 1 -14
-5 0 -13 8 12 -8 1 -14
-5 -2 -13 6 9 -10 1 -14
-5 -2 -13 3 7 -12 1 -14
-5 -2 -13 0 5 -14 0 -15
-5 -2 -12 -4 3 -16 0 -16
-5 -2 -12 -8 0 -18 -2 -17
-5 -3 -11 -11 -3 -20 -3 -18
-7 -3 -11 -11 -5 -20 -3 -18
-9 -3 -11 -12 -7 -20 -3 -18
-11 -4 -11 -12 -9 -20 -4 -19
-13 -4 -11 -13 -11 -20 -4 -19
-15 -5 -11 -14 -13 -20 -5 -20
-15 -6 -11 -14 -13 -22 -5 -21
-15 -7 -11 -15 -14 -24 -6 -22
-14 -8 -11 -16 -15 -26 -7 -24
-14 -9 -11 -17 -16 -29 -8 -25
-13 -11 -12 -18 -17 -31 -9 -27
-13 -11 -12 -19 -18 -31 -9 -27
-13 -11 -12 -21 -19 -31 -9 -27
-13 -10 -11 -22 -20 -31 -10 -27
-13 -10 -11 -24 -21 -31 -10 -27
-14 -9 -10 -26 -23 -31 -11 -27
-14 -9 -10 -26 -23 -31 -11 -27
-13 -9 -10 -25 -23 -31 -11 -27
-13 -9 -11 -25 -22 -31 -12 -27
-12 -9 -11 -24 -22 -31 -12 -27
-11 -10 -12 -23 -21 -32 -13 -26
-11 -10 -12 -23 -21 -32 -13 -26
-12 -10 -12 -23 -21 -31 -13 -26
-12 -10 -12 -23 -22 -31 -13 -26
-13 -10 -12 -23 -22 -30 -13 -26
-14 -10 -12 -23 -23 -29 -13 -27
-15 -10 -12 -23 -23 -29 -13 -27
-17 -10 -12 -23 -23 -29 -13 -27
-18 -10 -12 -22 -22 -29 -13 -27
-20 -10 -12 -22 -22 -29 -13 -27
-22 -9 -11 -21 -21 -29 -14 -28
-21 -9 -11 -21 -21 -29 -14 -28
-20 -10 -11 -21 -21 -29 -14 -28
-19 -11 -11 -21 -20 -30 -14 -28
-18 -12 -11 -21 -20 -30 -14 -28
-17 -13 -11 -20 -19 -31 -15 -28
-17 -13 -11 -19 -19 -31 -15 -28
-17 -13 -11 -18 -19 -31 -15 -28
-18 -14 -10 -17 -19 -30 -14 -28
-18 -14 -10 -16 -19 -30 -14 -28
-19 -15 -9 -14 -18 -29 -13 -28
-18 -15 -9 -14 -18 -29 -13 -27
-17 -15 -9 -14 -18 -29 -12 -26
-16 -14 -9 -14 -17 -29 -11 -25
-15 -14 -9 -14 -17 -29 -10 -24
-13 -13 -8 -14 -16 -28 -9 -23
-14 -13 -8 -13 -16 -28 -9 -23
-15 -13 -8 -12 -16 -28 -10 -23
-16 -13 -8 -11 -15 -28 -10 -23
-17 -13 -8 -10 -15 -28 -11 -23
-19 -13 -8 -8 -14 -27 -12 -24
-19 -13 -8 -8 -14 -27 -12 -24
-18 -12 -8 -9 -14 -27 -12 -24
-18 -12 -9 -9 -13 -27 -12 -25
-17 -11 -9 -10 -13 -27 -12 -25
-16 -10 -10 -11 -12 -26 -13 -26
-16 -10 -10 -11 -12 -26 -13 -26
-15 -10 -10 -11 -12 -26 -13 -26
-15 -10 -9 -10 -12 -26 -12 -26
-14 -10 -9 -10 -12 -26 -12 -26
-13 -10 -8 -9 -12 -26 -11 -25
-13 -10 -9 -9 -12 -26 -11 -25
-13 -10 -10 -9 -12 -26 -11 -24
-14 -11 -11 -10 -12 -26 -11 -23
-14 -11 -12 -10 -12 -26 -11 -22
-15 -12 -13 -11 -12 -25 -11 -21
-15 -12 -13 -11 -12 -25 -11 -21
-15 -12 -13 -11 -13 -25 -11 -21
-14 -12 -12 -11 -13 -25 -11 -21
-14 -12 -12 -11 -14 -25 -11 -21
-13 -12 -11 -10 -15 -24 -11 -22
-14 -12 -11 -10 -15 -24 -11 -22
-15 -12 -11 -11 -15 -25 -11 -22
-17 -13 -11 -12 -16 -25 -12 -22
-18 -13 -11 -13 -16 -26 -12 -22
-20 -14 -11 -14 -17 -27 -13 -21
-19 -14 -11 -14 -17 -27 -13 -21
-18 -14 -11 -14 -18 -27 -13 -21
-17 -14 -11 -14 -18 -28 -14 -21
-16 -14 -11 -14 -19 -28 -14 -21
-15 -14 -11 -15 -20 -29 -15 -22
-15 -14 -11 -15 -20 -29 -15 -22
-15 -14 -11 -16 -20 -29 -15 -21
-16 -13 -11 -16 -21 -29 -14 -21
-16 -13 -11 -17 -21 -29 -14 -20
-17 -12 -12 -18 -22 -28 -13 -19
-16 -12 -12 -18 -23 -29 -13 -20
-15 -13 -12 -19 -24 -30 -14 -21
-14 -13 -11 -20 -25 -31 -15 -22
-13 -14 -11 -21 -26 -32 -16 -23
-12 -15 -10 -22 -27 -34 -17 -24
-12 -15 -10 -22 -27 -34 -17 -24
-12 -15 -11 -22 -28 -33 -17 -24
-13 -15 -11 -23 -28 -33 -17 -24
-13 -15 -12 -23 -29 -32 -17 -24
-14 -15 -13 -24 -30 -31 -16 -25
-15 -15 -13 -24 -30 -32 -16 -24
-16 -16 -13 -24 -30 -33 -16 -23
-17 -16 -13 -24 -30 -34 -16 -22
-18 -17 -13 -24 -30 -35 -16 -21
-19 -18 -12 -24 -30 -37 -17 -20
-19 -17 -12 -24 -30 -37 -17 -20
-18 -16 -12 -24 -30 -36 -17 -20
-18 -15 -12 -24 -31 -36 -17 -21
-17 -14 -12 -24 -31 -35 -17 -21
-16 -13 -12 -25 -32 -34 -18 -22
-16 -13 -12 -25 -32 -34 -18 -22
-17 -14 -12 -25 -32 -34 -18 -22
-18 -15 -13 -26 -32 -34 -18 -22
-19 -16 -13 -26 -32 -34 -18 -22
-20 -17 -14 -27 -31 -34 -18 -21
-20 -18 -14 -27 -32 -35 -18 -21
-19 -19 -14 -27 -33 -36 -18 -21
-18 -20 -14 -28 -34 -37 -19 -21
-17 -21 -14 -28 -35 -38 -19 -21
-16 -23 -14 -29 -36 -39 -20 -22
-16 -23 -14 -29 -36 -39 -20 -22
-16 -23 -14 -29 -36 -39 -20 -21
-16 -22 -14 -28 -35 -39 -20 -21
-16 -22 -14 -28 -35 -39 -20 -20
-16 -21 -14 -27 -34 -39 -19 -19
-17 -21 -13 -27 -35 -38 -19 -19
-18 -20 -12 -27 -36 -37 -19 -19
-19 -20 -11 -27 -37 -36 -19 -19
-20 -19 -11 -27 -37 -36 -19 -19
-21 -19 -10 -27 -38 -35 -19 -19
-22 -18 -9 -26 -39 -34 -18 -19
-21 -19 -9 -27 -39 -34 -19 -19
-20 -20 -10 -28 -38 -35 -19 -19
-19 -21 -10 -29 -38 -35 -20 -19
-19 -22 -10 -29 -38 -35 -20 -19
-18 -22 -11 -30 -37 -36 -21 -20
-19 -21 -11 -30 -37 -35 -20 -20
-19 -20 -11 -30 -37 -35 -20 -20
-20 -19 -11 -30 -37 -34 -19 -20
-20 -18 -11 -30 -37 -34 -19 -20
-20 -16 -10 -30 -37 -33 -18 -19
-18 -15 -10 -30 -37 -33 -18 -19
-17 -14 -10 -30 -37 -33 -19 -19
-15 -13 -10 -30 -37 -33 -19 -19
-14 -12 -10 -30 -37 -33 -19 -19
-13 -11 -9 -28 -38 -34 -20 -19
-14 -11 -8 -27 -37 -33 -19 -18
-14 -12 -8 -26 -36 -33 -19 -17
-15 -12 -7 -25 -35 -32 -18 -16
-15 -12 -7 -24 -35 -32 -18 -15
-16 -12 -5 -23 -33 -30 -17 -14
-15 -10 -4 -22 -31 -29 -16 -13
-14 -9 -2 -21 -30 -28 -15 -12
-13 -7 0 -20 -28 -27 -14 -11
-13 -6 1 -19 -27 -26 -13 -11
-12 -4 2 -18 -26 -25 -12 -10
-11 -2 2 -18 -27 -25 -12 -10
-10 1 2 -19 -27 -25 -12 -10
-9 3 2 -19 -28 -25 -12 -10
-8 4 2 -19 -28 -25 -12 -10
-7 5 3 -20 -29 -26 -13 -10
-8 5 3 -19 -28 -25 -12 -9
-8 6 2 -18 -27 -24 -12 -8
-9 6 2 -17 -26 -23 -11 -7
-9 6 2 -16 -26 -23 -11 -7
-9 9 0 -16 -25 -22 -10 -5
-7 12 -2 -18 -26 -22 -9 -3
-6 15 -4 -19 -27 -22 -8 -2
-4 18 -5 -21 -28 -22 -7 1
-3 20 -6 -22 -28 -22 -7 2
-2 21 -8 -23 -29 -21 -6 3
-2 21 -9 -23 -28 -20 -5 3
0 21 -11 -24 -27 -19 -4 4
0 21 -12 -24 -26 -18 -3 4
0 21 -13 -24 -26 -17 -2 4
1 20 -14 -25 -26 -16 0 5
2 21 -15 -25 -28 -16 0 5
3 21 -15 -26 -30 -16 -2 4
4 22 -16 -26 -32 -16 -2 4
5 22 -16 -26 -33 -16 -2 4
6 22 -17 -27 -34 -17 -3 3
6 20 -18 -28 -34 -18 -4 3
6 19 -18 -29 -34 -19 -4 3
6 17 -19 -30 -34 -20 -5 3
6 16 -19 -30 -34 -21 -5 3
5 14 -20 -31 -36 -23 -7 3
3 12 -19 -31 -38 -25 -8 2
1 10 -19 -31 -40 -26 -9 1
-2 8 -18 -31 -43 -28 -10 0
-4 7 -18 -31 -45 -29 -11 -2
-5 5 -17 -32 -45 -30 -12 -4
-5 3 -16 -31 -44 -30 -13 -6
-5 1 -15 -31 -43 -30 -13 -8
-5 -2 -14 -30 -41 -30 -14 -10
-5 -3 -13 -30 -40 -30 -14 -11
-5 -4 -12 -29 -39 -30 -15 -12
-6 -5 -11 -28 -39 -30 -16 -11
-7 -5 -10 -27 -40 -30 -17 -10
-8 -6 -9 -26 -40 -30 -18 -9
-9 -6 -9 -26 -40 -30 -18 -9
-10 -7 -8 -25 -41 -31 -19 -8
-10 -8 -8 -26 -43 -32 -19 -8
-10 -9 -9 -27 -44 -32 -20 -9
-10 -10 -9 -28 -45 -33 -20 -9
-10 -11 -9 -29 -45 -33 -20 -9
-9 -12 -10 -30 -46 -34 -21 -10
-8 -11 -9 -30 -46 -34 -20 -10
-7 -11 -9 -29 -46 -33 -20 -10
-6 -10 -8 -29 -46 -33 -19 -10
-6 -10 -8 -29 -46 -33 -19 -10
-5 -9 -7 -28 -46 -32 -18 -11
-4 -9 -7 -27 -45 -32 -19 -11
-3 -9 -7 -26 -45 -33 -20 -11
-2 -9 -7 -25 -44 -33 -21 -11
-2 -9 -7 -25 -44 -33 -22 -11
0 -9 -7 -24 -43 -34 -23 -12
1 -8 -7 -25 -44 -33 -22 -12
1 -8 -6 -26 -44 -33 -22 -12
2 -7 -6 -27 -45 -32 -21 -12
2 -7 -6 -27 -45 -32 -21 -12
2 -6 -5 -26 -44 -31 -20 -11
1 -7 -4 -23 -41 -31 -20 -11
0 -7 -3 -20 -39 -31 -20 -11
-2 -8 -2 -18 -37 -31 -20 -11
-3 -8 -2 -15 -35 -31 -20 -11
0 -8 6 3 -21 -24 -19 -13
3 -6 12 20 -6 -18 -19 -14
7 -4 19 37 10 -11 -19 -16
11 -2 25 56 25 -5 -19 -17
14 0 32 73 39 3 -19 -18
19 6 44 109 80 29 -6 -13
24 12 55 146 122 59 10 -5
28 18 66 183 164 88 25 3
33 24 77 220 207 116 39 10
38 30 89 257 250 145 55 18
50 52 88 250 260 184 92 43
61 75 85 237 268 225 130 69
73 99 81 225 275 265 169 96
85 122 79 213 282 305 207 122
96 145 76 200 290 345 245 149
93 165 56 105 231 356 272 174
86 185 34 3 163 363 297 197
79 204 13 -101 97 371 321 222
72 225 -9 -203 29 380 347 245
66 244 -30 -306 -37 388 371 269
57 213 -31 -305 -65 317 318 239
47 174 -29 -291 -89 238 256 201
36 136 -27 -278 -111 158 192 164
26 97 -25 -265 -135 79 130 127
16 59 -23 -252 -157 0 66 90
11 40 -22 -229 -164 -31 40 69
7 24 -23 -206 -170 -57 18 51
2 9 -24 -184 -174 -81 -5 32
-3 -8 -25 -161 -179 -107 -27 14
-8 -24 -26 -139 -184 -133 -50 -6
-8 -28 -26 -122 -170 -127 -54 -11
-6 -31 -24 -106 -152 -115 -56 -16
-4 -34 -22 -91 -135 -104 -57 -20
-2 -37 -20 -75 -117 -93 -59 -25
1 -40 -18 -59 -100 -81 -60 -29
2 -39 -13 -50 -88 -73 -57 -28
2 -35 -8 -40 -76 -65 -52 -26
2 -32 -2 -32 -65 -58 -47 -23
2 -29 4 -23 -54 -51 -41 -20
2 -26 9 -14 -43 -43 -36 -18
3 -22 10 -12 -37 -39 -34 -16
4 -17 10 -10 -33 -37 -32 -14
6 -13 11 -9 -28 -34 -30 -12
7 -8 11 -7 -24 -31 -29 -11
8 -4 11 -6 -20 -29 -27 -9
9 -3 13 -3 -17 -28 -26 -8
8 -4 14 1 -14 -27 -26 -8
8 -4 16 4 -11 -26 -27 -9
7 -5 17 7 -9 -25 -27 -9
7 -5 18 10 -6 -25 -27 -9
6 -6 19 11 -5 -24 -28 -10
7 -5 18 12 -5 -23 -27 -10
7 -4 17 13 -5 -22 -26 -9
8 -3 16 14 -5 -21 -25 -9
8 -3 16 14 -5 -21 -24 -9
9 -2 15 15 -4 -20 -23 -8
9 -2 16 16 -2 -19 -23 -8
10 0 16 17 1 -19 -23 -8
10 0 17 18 3 -18 -23 -8
10 0 17 19 5 -18 -23 -8
11 1 18 20 6 -17 -22 -8
10 1 18 21 6 -16 -22 -7
9 1 18 22 6 -15 -21 -6
8 1 18 23 6 -14 -21 -5
8 1 18 23 6 -13 -21 -4
8 2 17 25 6 -12 -20 -3
10 3 17 26 8 -12 -20 -4
12 3 18 27 10 -11 -19 -4
14 4 18 28 12 -11 -19 -5
16 4 18 29 14 -11 -19 -5
17 5 19 30 15 -9 -18 -6
17 5 18 30 15 -8 -17 -5
17 6 17 30 15 -7 -17 -4
17 6 16 30 15 -6 -16 -3
17 6 15 30 15 -5 -16 -3
17 7 15 31 16 -4 -15 -2
17 7 16 32 18 -4 -15 -3
17 6 18 34 20 -3 -15 -3
17 6 19 35 22 -3 -15 -4
17 6 20 36 24 -3 -15 -4
16 5 21 37 25 -2 -14 -5
16 5 20 37 26 0 -13 -4
16 6 19 38 26 1 -13 -3
16 6 18 38 27 2 -12 -2
16 6 18 38 27 3 -12 -2
17 7 17 39 30 4 -11 0
18 7 17 40 32 5 -11 -2
20 7 16 42 34 5 -11 -3
22 7 16 43 37 6 -11 -4
23 7 16 44 39 6 -11 -5
24 7 15 45 40 8 -11 -5
24 7 15 46 40 9 -10 -4
24 8 15 46 42 10 -8 -3
24 8 15 47 42 12 -6 0
24 8 15 47 42 13 -5 1
23 9 15 49 45 15 -4 2
22 9 15 51 48 16 -5 3
22 9 14 53 52 17 -6 3
21 9 14 55 55 18 -7 4
21 9 14 57 58 19 -7 4
21 9 13 58 59 21 -7 5
22 10 12 59 60 22 -5 5
23 11 11 60 60 23 -3 5
24 12 10 61 61 25 -2 5
25 12 10 62 61 26 1 5
26 13 9 63 64 27 2 5
27 13 9 63 67 28 2 5
28 12 9 64 69 29 2 4
29 12 9 64 72 30 2 4
29 12 9 64 75 31 2 4
30 11 8 66 77 33 3 4
30 11 8 69 78 34 4 5
30 12 8 71 79 36 5 6
30 12 8 73 80 38 6 8
30 12 8 75 81 39 7 9
30 13 9 76 82 40 8 10
33 13 7 76 85 40 8 9
35 13 6 76 86 40 7 9
37 13 5 76 87 40 7 8
39 13 4 76 88 40 7 8
40 13 3 77 89 40 6 7
40 13 1 77 90 42 7 8
42 13 0 78 90 43 8 9
42 13 -2 78 91 44 9 10
42 13 -3 78 91 45 9 10
43 14 -4 79 92 46 10 11
43 13 -4 79 92 46 10 12
43 13 -4 79 92 46 9 12
43 12 -4 79 92 46 9 13
43 12 -4 79 92 46 9 13
44 11 -5 78 91 44 8 14
44 11 -6 77 88 43 8 14
44 11 -7 76 86 42 8 14
44 11 -8 75 82 39 8 14
44 11 -9 74 79 38 8 14
43 11 -10 71 78 36 6 13
44 11 -11 68 77 35 5 12
45 11 -11 65 76 33 4 12
46 11 -12 62 75 31 2 11
47 11 -12 59 75 30 1 11
47 10 -13 57 72 29 0 10
46 10 -14 56 69 28 1 10
44 10 -14 54 67 27 1 10
42 10 -15 52 64 26 2 10
40 10 -15 51 61 26 2 10
39 10 -16 49 59 24 3 11
39 9 -16 47 57 23 2 11
40 9 -16 45 55 22 1 11
40 8 -16 43 54 20 0 11
40 8 -16 40 52 19 0 11
40 7 -17 38 49 18 -2 10
38 8 -16 35 45 17 0 11
36 9 -16 33 42 17 1 12
35 10 -15 30 38 16 2 13
33 10 -15 28 34 16 2 13
31 11 -14 26 31 14 3 14
30 13 -14 24 29 12 2 14
29 14 -13 22 26 10 1 13
27 15 -13 21 24 9 0 13
26 16 -13 19 21 7 -2 13
24 17 -12 17 19 6 -2 12
22 17 -11 16 17 6 0 13
19 17 -11 14 15 6 1 14
17 17 -10 12 13 6 3 15
15 17 -10 11 11 6 4 15
14 16 -9 9 9 4 4 15
14 16 -8 6 6 2 3 14
14 16 -8 4 4 -2 1 13
14 16 -7 1 1 -4 -2 11
14 16 -7 -2 -2 -6 -3 10
14 15 -6 -3 -5 -8 -4 9
13 15 -7 -4 -8 -10 -4 8
12 15 -8 -5 -11 -12 -4 8
11 15 -9 -6 -14 -14 -4 7
11 15 -9 -7 -17 -16 -4 7
10 14 -10 -9 -18 -17 -5 6
9 13 -9 -11 -18 -17 -6 6
8 13 -8 -13 -19 -18 -6 5
7 12 -7 -14 -19 -18 -7 5
7 12 -7 -16 -19 -18 -7 5
6 11 -6 -17 -20 -19 -8 4
4 10 -5 -17 -20 -19 -7 5
3 10 -5 -17 -20 -18 -7 6
2 9 -4 -17 -20 -18 -6 7
1 9 -4 -17 -20 -18 -6 7
1 8 -3 -16 -19 -17 -5 8
2 8 -4 -16 -19 -18 -7 7
4 8 -4 -16 -20 -19 -8 6
6 8 -5 -16 -20 -20 -9 5
7 8 -5 -16 -20 -21 -10 4
7 8 -6 -15 -21 -22 -11 3
6 8 -6 -15 -21 -21 -10 3
5 8 -6 -15 -21 -20 -10 3
3 8 -6 -15 -21 -19 -9 3
2 8 -6 -15 -21 -18 -9 3
2 9 -5 -15 -21 -17 -8 4
4 10 -5 -15 -19 -17 -8 4
7 10 -5 -15 -18 -16 -8 3
9 11 -5 -15 -17 -16 -8 3
11 11 -5 -15 -16 -16 -8 3
11 12 -5 -14 -15 -15 -9 2
10 12 -5 -14 -16 -15 -9 2
9 11 -5 -14 -16 -15 -10 2
7 11 -5 -14 -17 -15 -10 2
6 11 -5 -14 -17 -15 -10 2
5 10 -6 -13 -18 -16 -11 1
4 10 -5 -13 -17 -15 -11 0
3 9 -5 -12 -16 -15 -12 0
2 9 -4 -12 -15 -14 -12 -2
2 9 -4 -12 -14 -14 -12 -2
1 8 -3 -11 -13 -13 -13 -3
2 8 -4 -11 -13 -13 -11 -2
2 8 -4 -11 -13 -13 -10 0
3 8 -5 -11 -13 -13 -9 1
3 8 -5 -11 -13 -13 -8 1
4 9 -6 -11 -12 -13 -7 2
4 9 -6 -10 -11 -12 -7 2
5 8 -6 -10 -10 -12 -7 2
5 8 -6 -9 -9 -11 -7 2
5 8 -6 -9 -8 -11 -7 2
5 7 -7 -8 -7 -10 -7 2
4 7 -7 -8 -8 -10 -7 2
2 7 -7 -8 -9 -9 -6 2
1 7 -7 -8 -9 -9 -6 2
-2 7 -7 -8 -10 -9 -6 2
-2 7 -7 -7 -11 -8 -5 3
0 7 -7 -8 -10 -8 -5 3
1 7 -6 -8 -9 -8 -5 3
3 7 -6 -9 -8 -8 -5 3
4 7 -6 -9 -7 -8 -5 3
5 7 -5 -10 -7 -9 -6 3
5 8 -6 -10 -8 -9 -5 3
5 9 -6 -10 -9 -10 -4 3
5 10 -7 -10 -11 -10 -4 3
5 11 -7 -10 -12 -10 -3 3
5 12 -8 -10 -13 -11 -2 4
5 12 -8 -10 -13 -11 -2 4
5 12 -8 -11 -12 -11 -2 5
5 12 -8 -11 -12 -11 -2 5
5 12 -8 -11 -12 -11 -2 5
6 11 -8 -12 -12 -10 0 6
6 11 -8 -13 -13 -11 -2 5
6 10 -9 -14 -15 -12 -3 4
6 10 -9 -14 -16 -12 -3 4
6 10 -9 -15 -18 -13 -4 3
7 9 -10 -16 -19 -14 -5 2
5 9 -9 -16 -19 -15 -6 2
4 9 -8 -17 -19 -16 -7 2
3 9 -7 -17 -19 -17 -7 2
2 9 -6 -17 -19 -18 -8 2
1 8 -5 -18 -19 -19 -9 2
2 8 -6 -18 -20 -19 -9 2
3 8 -7 -18 -20 -19 -9 2
4 8 -7 -18 -21 -19 -9 2
5 8 -8 -18 -21 -19 -9 2
5 7 -9 -17 -22 -19 -8 1
3 5 -8 -18 -22 -19 -8 1
1 4 -8 -18 -22 -19 -8 1
-3 3 -7 -19 -22 -19 -8 1
-5 2 -7 -19 -22 -19 -8 1
-6 1 -6 -20 -22 -20 -8 1
-5 1 -6 -21 -23 -20 -8 1
-5 1 -7 -22 -23 -20 -8 1
-4 1 -7 -22 -24 -20 -8 1
-4 1 -7 -23 -24 -20 -8 1
-3 1 -8 -24 -25 -21 -7 2
-2 2 -8 -24 -25 -21 -8 1
0 2 -8 -24 -25 -21 -8 1
1 3 -8 -24 -25 -21 -9 0
2 3 -8 -24 -25 -21 -9 0
3 4 -9 -25 -25 -22 -10 -2
1 4 -9 -25 -27 -22 -10 -2
0 3 -8 -25 -28 -23 -9 -2
-2 3 -8 -25 -29 -23 -9 -2
-3 3 -8 -25 -30 -23 -9 -2
-4 2 -7 -25 -31 -24 -8 0
-4 2 -7 -25 -29 -24 -8 0
-3 2 -7 -26 -28 -24 -9 -2
-3 2 -7 -26 -27 -24 -9 -2
-3 2 -7 -26 -26 -24 -9 -2
-2 1 -6 -27 -26 -24 -10 -3
-2 1 -6 -26 -27 -25 -10 -3
-2 1 -6 -25 -29 -25 -10 -3
-2 1 -6 -25 -30 -26 -10 -3
-2 1 -6 -24 -32 -26 -10 -3
-3 0 -7 -23 -33 -27 -10 -3
-3 -2 -7 -23 -33 -27 -11 -4
-3 -3 -7 -22 -33 -27 -11 -4
-3 -3 -7 -22 -33 -27 -12 -5
-3 -4 -7 -22 -33 -27 -12 -5
-3 -5 -6 -21 -34 -28 -13 -6
-3 -4 -6 -20 -34 -28 -12 -5
-3 -3 -6 -19 -33 -27 -12 -5
-3 -2 -6 -19 -33 -27 -11 -4
-3 0 -6 -18 -33 -27 -11 -4
-4 1 -6 -17 -32 -26 -10 -3
-4 0 -6 -17 -32 -27 -10 -4
-4 0 -6 -17 -32 -27 -10 -4
-4 -2 -6 -17 -32 -28 -10 -5
-4 -2 -6 -17 -32 -28 -10 -5
-5 -3 -6 -18 -33 -29 -11 -6
-6 -3 -5 -17 -33 -28 -11 -4
-6 -3 -5 -16 -32 -27 -11 -3
-7 -3 -4 -16 -32 -27 -11 -2
-7 -3 -4 -15 -32 -26 -11 0
-8 -3 -3 -14 -31 -25 -11 1
-6 -2 -3 -14 -31 -25 -11 -2
-5 0 -3 -14 -30 -25 -12 -3
-4 0 -3 -14 -30 -25 -12 -4
-3 1 -3 -14 -30 -25 -12 -5
-2 2 0 -15 -29 -25 -12 -6
-3 3 1 -14 -27 -23 -10 -4
-4 4 3 -13 -26 -22 -8 -3
-4 5 4 -12 -25 -20 -5 0
-5 6 6 -11 -24 -19 -3 1
-6 7 7 -10 -23 -18 -2 2
-6 7 7 -10 -23 -18 -2 2
-6 8 7 -10 -23 -18 -2 2
-6 8 7 -10 -23 -18 -2 2
-6 8 7 -10 -23 -18 -2 2
-7 10 8 -10 -22 -18 -3 2
-7 12 7 -11 -22 -18 -3 3
-7 15 6 -12 -22 -17 -2 5
-7 17 5 -12 -22 -17 -2 6
-7 20 4 -13 -22 -17 -2 7
-7 21 3 -14 -22 -16 0 8
-6 22 2 -15 -22 -16 0 8
-5 23 1 -16 -21 -15 1 9
-4 23 0 -17 -21 -15 2 9
-3 24 -2 -18 -21 -15 2 9
-2 25 -3 -19 -20 -14 3 10
-2 25 -4 -19 -20 -14 3 10
-2 26 -6 -19 -21 -14 3 11
-2 27 -7 -19 -21 -14 3 11
-2 27 -8 -19 -21 -14 3 11
-2 28 -9 -20 -23 -14 4 12
0 26 -11 -22 -24 -16 3 11
2 25 -12 -23 -26 -17 2 9
3 23 -14 -25 -27 -19 1 8
4 22 -15 -26 -29 -20 0 7
5 20 -16 -27 -30 -21 -2 6
5 19 -16 -28 -32 -21 -2 6
5 17 -15 -29 -33 -22 -3 5
5 15 -15 -29 -35 -22 -3 4
5 13 -15 -30 -36 -22 -3 4
4 12 -14 -31 -37 -23 -4 3
2 11 -14 -30 -36 -23 -4 3
-2 10 -13 -29 -35 -23 -5 3
-4 10 -13 -29 -34 -23 -5 3
-7 9 -13 -28 -33 -23 -5 3
-8 7 -11 -26 -32 -24 -7 2
-8 4 -10 -25 -32 -25 -8 1
-8 2 -8 -23 -33 -27 -10 -2
-8 -2 -7 -21 -34 -28 -12 -3
-8 -5 -5 -19 -34 -29 -14 -4
-9 -7 -4 -18 -35 -30 -15 -5
-10 -8 -4 -20 -35 -30 -15 -6
-12 -10 -4 -21 -35 -30 -16 -7
-13 -12 -4 -23 -35 -30 -16 -8
-14 -14 -4 -24 -35 -30 -16 -9
-15 -15 -5 -25 -36 -31 -17 -10
-15 -15 -5 -25 -37 -32 -18 -11
-16 -16 -6 -26 -38 -33 -19 -13
-17 -17 -7 -26 -39 -33 -20 -14
-17 -17 -7 -26 -40 -34 -21 -15
-18 -18 -8 -27 -41 -35 -22 -16
-18 -18 -8 -27 -41 -35 -22 -16
-18 -18 -7 -27 -40 -35 -22 -15
-18 -18 -6 -27 -39 -35 -22 -15
-18 -18 -6 -27 -39 -35 -22 -15
-19 -19 -5 -27 -38 -35 -21 -14
-19 -19 -5 -26 -38 -34 -21 -14
-20 -19 -4 -25 -38 -33 -20 -13
-20 -19 -3 -25 -38 -33 -20 -12
-20 -19 -3 -24 -38 -32 -20 -12
-20 -19 -2 -23 -38 -31 -19 -11
-19 -19 -2 -23 -38 -32 -19 -11
-17 -19 -3 -24 -39 -33 -19 -12
-15 -19 -4 -25 -39 -33 -19 -13
-13 -19 -4 -25 -39 -34 -19 -13
-13 -20 -5 -25 -39 -35 -20 -14
-15 -22 -3 -22 -37 -34 -21 -14
-18 -25 0 -19 -34 -33 -23 -15
-20 -27 1 -16 -32 -32 -24 -16
-23 -30 3 -13 -29 -31 -25 -16
-23 -30 9 2 -16 -25 -26 -17
-20 -27 17 23 5 -16 -24 -18
-18 -25 25 45 25 -7 -23 -19
-15 -22 33 66 46 3 -21 -20
-13 -20 42 88 66 12 -20 -21
-5 -13 51 116 101 37 -7 -17
6 -4 61 150 146 74 15 -7
16 6 70 184 191 110 36 3
26 16 79 217 236 147 58 12
36 25 90 251 280 184 78 22
45 46 88 238 293 220 113 46
51 74 76 195 281 255 155 79
57 102 65 152 269 290 198 113
63 131 55 109 258 326 240 147
69 159 44 66 246 362 283 180
67 174 30 6 202 373 307 200
58 180 15 -66 136 368 317 212
49 186 1 -138 70 363 327 223
39 191 -14 -210 4 358 337 233
30 197 -29 -281 -63 353 347 244
24 178 -34 -305 -109 297 312 227
19 141 -32 -294 -142 207 243 188
14 103 -29 -281 -175 117 176 149
9 65 -27 -270 -207 28 108 110
4 27 -24 -259 -240 -62 39 71
-3 4 -23 -238 -245 -101 3 46
-8 -12 -24 -212 -228 -105 -13 29
-13 -27 -25 -185 -212 -109 -28 13
-19 -43 -26 -158 -195 -113 -44 -5
-24 -57 -27 -132 -178 -117 -59 -21
-27 -64 -25 -112 -160 -113 -65 -28
-27 -65 -18 -97 -142 -103 -63 -30
-27 -66 -11 -82 -123 -93 -60 -32
-27 -66 -5 -67 -105 -81 -58 -33
-27 -67 3 -53 -87 -71 -55 -35
-27 -67 6 -44 -74 -64 -53 -36
-26 -63 6 -39 -67 -59 -49 -35
-25 -60 7 -36 -59 -54 -46 -33
-24 -57 8 -32 -52 -49 -43 -32
-23 -54 8 -28 -45 -44 -39 -31
-22 -51 9 -25 -38 -39 -36 -29
-22 -47 9 -21 -33 -36 -35 -27
-21 -44 10 -18 -28 -33 -33 -24
-21 -39 11 -15 -23 -30 -31 -22
-21 -36 11 -12 -18 -28 -29 -20
-20 -34 12 -10 -15 -26 -28 -18
-19 -33 12 -9 -14 -24 -28 -18
-18 -32 13 -8 -13 -22 -27 -18
-17 -32 13 -8 -12 -21 -27 -18
-16 -31 13 -7 -11 -19 -27 -18
-15 -30 14 -6 -10 -18 -26 -19
-15 -30 14 -5 -8 -18 -26 -19
-15 -29 14 -4 -6 -18 -26 -18
-15 -28 14 -3 -5 -18 -26 -17
-15 -28 14 -2 -3 -18 -26 -17
-16 -27 15 0 -2 -17 -25 -16
-16 -27 15 0 -2 -16 -25 -16
-17 -27 16 0 0 -15 -25 -17
-17 -27 16 0 0 -15 -25 -17
-17 -27 16 0 0 -14 -25 -17
-18 -27 17 1 1 -13 -24 -18
-17 -27 17 2 1 -12 -24 -17
-16 -26 17 4 2 -10 -23 -16
-16 -25 17 5 3 -9 -22 -15
-15 -25 17 6 3 -8 -22 -14
-14 -24 17 7 4 -7 -21 -13
-14 -24 17 7 5 -7 -21 -13
-13 -23 17 7 7 -7 -21 -13
-12 -22 17 7 8 -7 -21 -13
-12 -22 17 7 9 -7 -21 -13
-11 -21 18 8 10 -7 -20 -13
-12 -22 17 8 11 -7 -20 -13
-14 -23 16 9 12 -6 -20 -13
-15 -24 16 10 13 -5 -20 -13
-16 -25 15 10 14 -5 -20 -13
-16 -26 14 11 15 -4 -20 -14
-13 -26 14 11 16 -3 -20 -14
-9 -25 15 12 17 -2 -19 -14
-6 -24 15 12 18 -2 -19 -14
-3 -24 15 12 19 0 -19 -14
-2 -23 16 13 20 1 -18 -14
-5 -23 16 13 22 2 -18 -14
-7 -23 16 13 24 4 -17 -14
-10 -23 16 13 26 5 -16 -14
-12 -23 16 13 28 6 -16 -14
-14 -23 15 14 29 7 -15 -13
-14 -23 15 16 30 9 -15 -13
-13 -23 15 19 31 11 -14 -12
-12 -23 15 21 32 13 -13 -11
-12 -23 15 23 33 15 -13 -11
-11 -23 15 25 34 16 -12 -10
-10 -22 15 26 35 16 -12 -10
-9 -21 14 27 37 17 -12 -10
-9 -21 14 28 38 18 -12 -10
-8 -20 14 29 39 18 -12 -10
-7 -19 13 30 42 19 -11 -11
-6 -19 13 30 45 21 -11 -11
-4 -19 12 31 48 23 -10 -10
-3 -19 12 32 51 24 -10 -10
-2 -19 12 32 54 26 -10 -10
0 -20 11 34 57 28 -9 -9
0 -18 12 36 59 30 -7 -8
0 -17 13 39 61 32 -5 -6
0 -16 14 42 63 34 -4 -5
0 -14 15 44 65 36 -2 -4
0 -13 16 47 68 38 0 -3
2 -12 16 49 71 40 1 -3
3 -11 15 51 74 44 3 -2
4 -10 15 53 76 46 4 0
6 -9 15 55 79 48 5 0
7 -8 14 56 81 50 6 1
7 -9 13 56 82 50 6 0
8 -11 12 55 84 50 6 -2
8 -12 12 54 84 50 6 -3
8 -13 11 54 85 50 6 -4
10 -14 10 53 86 50 5 -5
13 -13 9 55 87 51 5 -4
16 -12 8 57 89 53 4 -2
19 -12 8 59 90 54 4 0
22 -11 7 61 91 55 4 1
24 -10 6 63 92 56 3 2
24 -10 6 65 92 56 3 2
25 -9 5 68 93 56 4 2
25 -9 5 70 94 56 5 2
25 -9 5 72 94 56 5 2
26 -8 4 75 95 57 6 3
26 -8 3 77 95 57 6 3
26 -8 2 80 95 57 7 3
26 -8 2 82 95 57 7 3
26 -8 1 85 95 57 7 3
25 -7 0 87 93 57 8 4
24 -9 -3 87 91 55 6 4
23 -10 -5 86 88 53 5 3
23 -11 -7 85 86 51 4 3
22 -13 -9 85 84 49 2 3
21 -14 -10 82 81 47 1 2
23 -13 -10 80 79 46 1 2
25 -11 -10 78 77 45 0 2
27 -10 -10 76 76 44 -2 2
29 -9 -10 74 74 43 -2 2
30 -8 -11 73 72 42 -3 2
29 -9 -11 71 70 39 -3 2
27 -10 -10 69 68 38 -3 2
26 -10 -10 68 66 37 -3 2
25 -11 -10 66 64 35 -3 2
24 -12 -9 64 61 34 -4 3
22 -12 -9 60 58 33 -4 3
21 -11 -9 57 55 32 -4 3
19 -10 -9 54 52 30 -3 3
17 -10 -9 50 49 29 -3 3
16 -9 -10 48 46 28 -2 2
15 -8 -9 48 44 26 -2 2
14 -7 -8 48 42 25 -2 2
13 -5 -6 48 38 23 -2 3
12 -4 -5 48 36 21 -2 3
11 -3 -4 46 33 20 0 4
11 -2 -4 42 29 19 0 4
11 -2 -4 37 26 18 0 4
11 0 -4 33 22 17 0 4
11 1 -4 29 18 16 0 4
10 2 -5 26 16 15 -2 5
6 1 -5 24 14 13 -2 5
3 0 -5 22 12 12 -2 5
0 -2 -4 20 10 10 -2 5
-5 -3 -4 18 8 8 -2 5
-7 -4 -3 17 6 7 -3 4
-7 -4 -2 15 4 6 -3 4
-7 -4 -2 14 2 6 -3 4
-7 -4 0 13 0 5 -3 4
-7 -4 1 11 -3 4 -3 4
-6 -4 2 10 -6 2 -3 3
-6 -4 2 8 -8 0 -3 2
-6 -4 2 7 -10 -3 -4 1
-7 -4 1 5 -12 -5 -5 -2
-7 -4 1 3 -14 -7 -5 -3
-8 -3 0 2 -16 -9 -6 -4
-8 -4 0 1 -17 -10 -8 -4
-8 -4 0 1 -17 -10 -9 -4
-8 -5 0 0 -18 -11 -11 -4
-8 -6 0 -2 -19 -12 -13 -4
-9 -7 1 -3 -20 -13 -14 -3
-9 -7 1 0 -20 -14 -14 -3
-9 -7 1 2 -20 -14 -14 -3
-9 -6 2 4 -20 -15 -13 -4
-9 -6 2 6 -20 -16 -13 -4
-9 -5 3 7 -20 -17 -12 -5
-9 -5 3 7 -20 -17 -12 -5
-9 -5 3 7 -20 -17 -12 -5
-10 -5 3 7 -20 -17 -12 -5
-10 -5 3 7 -20 -17 -12 -5
-11 -6 4 6 -21 -16 -13 -5
-9 -6 4 6 -21 -16 -13 -5
-8 -6 4 6 -21 -16 -13 -5
-6 -6 4 7 -21 -16 -13 -5
-4 -6 4 7 -21 -16 -13 -5
-4 -6 4 8 -20 -15 -12 -6
-6 -6 4 8 -20 -15 -13 -6
-8 -6 5 8 -20 -15 -14 -6
-11 -6 6 8 -20 -15 -16 -7
-13 -6 6 8 -20 -15 -17 -7
-15 -6 7 8 -19 -14 -18 -8
-13 -6 6 8 -17 -14 -16 -8
-12 -6 6 9 -15 -13 -14 -7
-10 -5 5 10 -13 -12 -12 -6
-8 -5 4 10 -11 -12 -10 -6
-7 -4 3 11 -10 -11 -9 -5
-7 -3 4 11 -10 -10 -9 -5
-6 -2 4 12 -9 -9 -9 -4
-5 0 5 13 -8 -8 -9 -3
-5 1 6 13 -8 -7 -9 -3
-4 2 7 14 -7 -6 -9 -2
-4 2 7 14 -7 -7 -9 -2
-5 2 6 14 -7 -8 -9 -3
-6 1 5 14 -7 -9 -9 -4
-6 1 5 14 -7 -10 -9 -4
-7 0 4 15 -8 -11 -9 -5
-7 0 5 15 -8 -10 -9 -4
-7 0 6 15 -7 -9 -9 -4
-7 0 7 15 -6 -8 -8 -3
-7 0 8 15 -6 -7 -8 -2
-6 1 9 15 -5 -6 -7 0
-4 1 7 15 -5 -7 -8 -2
-3 1 6 15 -5 -8 -9 -3
0 1 4 15 -5 -9 -10 -4
2 1 2 15 -5 -10 -11 -5
3 2 1 16 -6 -11 -12 -6
0 2 2 16 -5 -9 -10 -5
-3 2 2 16 -5 -8 -9 -4
-5 2 3 16 -4 -6 -7 -2
-7 2 4 16 -3 -4 -5 0
-9 3 5 15 -2 -3 -4 1
-6 4 5 15 -2 -4 -4 1
-4 5 5 15 -2 -4 -4 1
-2 7 4 15 -3 -5 -4 1
1 8 4 15 -3 -6 -4 1
3 9 3 16 -4 -7 -5 2
1 7 3 15 -5 -7 -5 1
-2 5 3 13 -6 -7 -5 1
-4 3 3 12 -7 -8 -5 0
-5 2 3 10 -8 -8 -5 -2
-7 0 4 9 -9 -9 -6 -3
-7 1 4 9 -9 -9 -7 -3
-7 3 4 9 -9 -10 -8 -3
-6 4 4 9 -9 -11 -9 -3
-6 6 4 9 -9 -11 -10 -3
-4 7 3 9 -10 -12 -11 -2
-2 7 3 8 -11 -12 -11 -2
2 7 3 7 -11 -12 -11 -2
4 7 3 5 -12 -12 -10 -2
7 7 3 4 -13 -12 -10 -2
9 8 4 3 -14 -13 -9 0
8 8 4 3 -14 -13 -9 0
7 8 4 4 -14 -13 -9 0
6 8 3 5 -15 -14 -9 0
5 8 3 5 -15 -14 -9 0
4 7 2 6 -16 -15 -8 0
4 6 2 4 -17 -15 -8 0
3 6 2 2 -18 -15 -8 0
2 5 2 0 -20 -15 -9 0
2 4 2 -2 -21 -15 -9 0
1 3 3 -4 -22 -16 -10 -2
1 3 3 -4 -22 -16 -10 -2
1 3 3 -4 -21 -16 -10 -2
0 3 2 -3 -20 -16 -10 -3
0 3 2 -3 -20 -16 -10 -3
-2 4 1 -2 -19 -17 -10 -4
-2 4 1 -2 -19 -17 -10 -4
-2 4 1 -2 -20 -17 -10 -4
0 4 1 -2 -21 -17 -9 -3
0 4 1 -2 -21 -17 -9 -3
1 4 2 -3 -22 -18 -8 -2
1 4 2 -3 -22 -18 -8 -2
1 4 2 -4 -22 -18 -8 -2
1 4 2 -5 -22 -19 -8 -2
1 4 2 -5 -22 -19 -8 -2
0 4 3 -6 -22 -20 -9 -3
1 4 3 -7 -23 -20 -9 -3
2 4 3 -8 -24 -20 -10 -3
3 4 3 -9 -26 -20 -11 -3
4 4 3 -10 -27 -20 -11 -3
5 4 2 -11 -28 -21 -12 -3
3 3 2 -11 -28 -21 -11 -3
1 3 2 -11 -28 -21 -10 -3
-2 2 2 -11 -27 -20 -9 -3
-4 1 2 -11 -27 -20 -8 -3
-6 0 2 -10 -26 -19 -7 -4
-5 0 2 -10 -27 -20 -8 -4
-5 0 2 -11 -28 -21 -9 -4
-4 0 2 -12 -29 -22 -10 -5
-3 0 2 -12 -30 -23 -11 -5
-2 1 3 -13 -31 -24 -12 -6
-2 1 3 -13 -31 -24 -12 -6
-2 0 3 -13 -30 -24 -12 -6
-2 -2 2 -14 -29 -24 -12 -6
-2 -2 2 -14 -29 -24 -12 -6
-3 -3 1 -15 -28 -23 -12 -6
-3 -3 1 -14 -28 -23 -12 -6
-3 -3 1 -14 -28 -24 -12 -6
-3 -3 1 -13 -28 -25 -12 -6
-3 -3 1 -12 -28 -25 -12 -6
-2 -4 2 -11 -29 -26 -11 -6
-5 -4 2 -12 -29 -25 -11 -6
-7 -4 2 -14 -29 -25 -11 -6
-9 -4 2 -15 -29 -24 -11 -6
-11 -4 2 -17 -29 -23 -11 -6
-13 -5 2 -18 -30 -22 -11 -5
-10 -3 2 -18 -30 -22 -11 -5
-8 -2 2 -17 -29 -22 -11 -5
-6 1 3 -16 -28 -22 -11 -4
-4 2 3 -16 -28 -22 -11 -4
-2 4 4 -15 -27 -23 -10 -3
-2 4 4 -15 -27 -23 -10 -3
-2 4 4 -15 -27 -23 -10 -3
-3 4 4 -15 -27 -23 -10 -3
-3 4 4 -15 -27 -23 -10 -3
-4 4 4 -14 -26 -23 -9 -3
-4 5 6 -13 -25 -22 -8 -3
-4 6 7 -13 -25 -21 -7 -3
-4 8 9 -12 -24 -19 -6 -2
-4 9 10 -11 -23 -18 -5 -2
-4 10 12 -10 -22 -17 -4 0
-4 10 12 -10 -21 -16 -4 1
-4 10 12 -10 -21 -15 -4 2
-4 11 12 -10 -20 -14 -4 4
-4 11 12 -10 -19 -13 -4 5
-3 13 13 -11 -18 -12 -3 6
-3 16 11 -12 -18 -12 -3 6
-3 19 8 -13 -18 -12 -2 6
-3 22 6 -15 -18 -12 0 6
-3 25 4 -16 -18 -12 0 6
-2 28 2 -17 -19 -12 1 7
0 28 -2 -19 -20 -12 1 7
1 28 -5 -21 -21 -12 1 7
3 29 -8 -23 -23 -12 1 7
4 29 -11 -24 -24 -12 1 7
5 30 -13 -26 -25 -12 0 8
6 30 -13 -26 -25 -12 0 8
6 30 -13 -26 -25 -12 0 9
7 30 -13 -26 -25 -12 1 10
8 30 -13 -26 -25 -12 1 10
9 30 -12 -26 -24 -12 2 11
9 28 -13 -26 -24 -12 2 11
9 26 -13 -26 -24 -12 2 11
9 24 -14 -27 -25 -12 2 11
9 23 -15 -27 -25 -12 2 11
9 21 -16 -28 -26 -13 1 10
8 19 -16 -29 -28 -15 -2 8
8 17 -16 -30 -30 -17 -3 7
7 15 -16 -31 -32 -19 -5 5
6 14 -16 -32 -34 -21 -6 4
5 12 -17 -33 -36 -23 -8 2
3 12 -16 -33 -36 -23 -8 2
2 11 -16 -33 -36 -23 -8 2
0 11 -15 -33 -36 -23 -8 2
-2 10 -14 -33 -36 -23 -8 2
-4 9 -13 -32 -37 -23 -8 2
-4 6 -12 -32 -37 -24 -10 0
-5 3 -11 -32 -37 -25 -12 -3
-5 1 -10 -31 -37 -26 -13 -4
-6 -3 -9 -31 -37 -28 -15 -6
-7 -5 -8 -30 -36 -29 -17 -8
-7 -6 -8 -30 -36 -29 -17 -8
-7 -6 -8 -30 -37 -29 -17 -8
-7 -7 -8 -30 -37 -30 -17 -9
-7 -8 -8 -30 -38 -30 -17 -9
-7 -9 -9 -29 -39 -31 -18 -10
-7 -10 -9 -29 -39 -31 -18 -10
-7 -10 -9 -29 -39 -31 -18 -10
-8 -11 -8 -30 -38 -31 -18 -10
-8 -12 -8 -30 -38 -31 -18 -10
-9 -13 -7 -31 -37 -31 -19 -11
-9 -13 -7 -31 -37 -31 -19 -11
-10 -14 -7 -31 -37 -31 -19 -11
-10 -14 -7 -31 -37 -32 -20 -12
-11 -15 -7 -31 -37 -32 -20 -12
-12 -16 -7 -31 -38 -33 -21 -13
-12 -16 -7 -32 -38 -33 -21 -13
-12 -16 -7 -32 -38 -33 -21 -13
-12 -15 -8 -33 -39 -32 -21 -14
-12 -15 -8 -34 -39 -32 -21 -14
-11 -14 -9 -35 -40 -31 -21 -15
-11 -15 -8 -34 -40 -31 -21 -15
-12 -16 -8 -34 -39 -31 -21 -14
-12 -17 -7 -33 -39 -31 -21 -14
-13 -18 -6 -32 -38 -31 -21 -13
-14 -19 -5 -29 -36 -30 -21 -12
-14 -20 -2 -21 -29 -28 -21 -14
-14 -21 2 -12 -23 -25 -21 -16
-13 -22 5 -4 -16 -23 -22 -17
-13 -23 8 6 -10 -21 -22 -19
-12 -23 12 19 3 -15 -22 -21
-9 -19 22 47 29 -2 -17 -19
-7 -15 32 73 55 13 -12 -18
-5 -11 42 101 81 27 -7 -16
-2 -6 52 128 108 42 -2 -15
3 1 61 153 139 64 10 -9
13 15 69 177 181 105 37 7
23 28 78 200 223 147 65 22
32 43 87 224 265 188 93 38
43 56 96 246 307 230 120 54
52 75 96 240 323 267 151 75
61 109 72 159 275 294 193 111
69 144 50 77 228 319 235 147
78 178 26 -5 181 346 277 183
87 212 4 -86 133 371 319 220
91 229 -16 -154 90 385 346 244
78 201 -23 -192 57 363 334 237
66 175 -30 -229 24 341 321 230
53 147 -37 -267 -9 318 309 223
40 119 -45 -304 -41 297 297 216
28 94 -50 -327 -76 256 270 200
17 69 -50 -312 -116 170 206 161
5 45 -50 -297 -157 82 143 123
-7 20 -49 -281 -197 -5 79 86
-18 -5 -49 -265 -237 -92 16 47
-27 -25 -48 -246 -261 -152 -32 16
-26 -34 -47 -221 -237 -142 -39 5
-25 -44 -47 -194 -214 -133 -47 -7
-24 -54 -46 -169 -189 -123 -54 -18
-23 -63 -45 -142 -165 -113 -61 -29
-22 -70 -41 -118 -143 -103 -66 -38
-22 -66 -31 -101 -124 -92 -61 -36
-22 -63 -22 -82 -106 -80 -56 -34
-22 -60 -13 -65 -88 -69 -51 -32
-22 -57 -3 -48 -69 -58 -46 -30
-23 -53 5 -34 -54 -50 -41 -28
-20 -49 4 -33 -50 -47 -40 -28
-17 -44 2 -31 -46 -44 -38 -27
-14 -38 1 -30 -40 -40 -37 -27
-12 -34 0 -29 -36 -38 -36 -26
-9 -30 -3 -26 -31 -35 -34 -25
-10 -29 0 -21 -27 -33 -32 -24
-12 -27 2 -16 -23 -31 -30 -23
-13 -26 4 -11 -18 -28 -28 -22
-14 -25 6 -5 -14 -26 -26 -20
-16 -23 8 0 -10 -24 -24 -19
-17 -23 8 0 -10 -23 -24 -19
-17 -23 9 1 -10 -22 -24 -19
-18 -23 9 1 -10 -21 -24 -19
-19 -23 10 2 -10 -20 -24 -19
-20 -24 11 3 -9 -19 -25 -18
-19 -23 11 4 -7 -19 -25 -18
-17 -23 11 4 -5 -18 -25 -18
-16 -22 11 5 -4 -18 -25 -18
-15 -21 11 6 -2 -17 -25 -18
-13 -20 10 7 1 -16 -24 -18
-13 -20 10 8 1 -15 -23 -18
-13 -20 10 9 1 -15 -23 -18
-14 -20 11 10 2 -14 -22 -18
-14 -20 11 12 2 -13 -21 -18
-15 -21 12 13 3 -12 -20 -18
-14 -21 12 14 4 -12 -20 -18
-12 -21 12 15 4 -12 -20 -18
-11 -21 11 16 5 -12 -20 -17
-10 -21 11 17 6 -12 -20 -17
-8 -20 10 18 7 -11 -21 -16
-8 -20 10 18 7 -10 -21 -16
-8 -20 11 19 7 -8 -21 -16
-8 -19 12 19 8 -6 -21 -15
-8 -19 13 20 8 -5 -21 -15
-9 -18 14 21 9 -3 -20 -14
-9 -18 14 21 11 -3 -20 -14
-9 -18 14 22 13 -2 -20 -14
-9 -18 13 22 15 -2 -19 -14
-9 -18 13 23 17 0 -19 -14
-9 -17 12 24 19 1 -18 -15
-10 -17 12 25 20 2 -18 -15
-12 -17 12 26 21 4 -17 -15
-13 -17 12 27 22 6 -17 -14
-14 -17 12 28 24 7 -16 -14
-16 -18 11 29 25 9 -15 -13
-15 -18 11 31 25 9 -15 -13
-13 -18 11 33 26 10 -15 -13
-11 -18 10 34 27 11 -14 -13
-10 -18 10 36 28 12 -14 -13
-8 -17 9 38 29 13 -13 -13
-8 -17 9 38 31 14 -13 -13
-8 -17 9 39 33 15 -13 -13
-8 -18 10 39 35 16 -13 -13
-8 -18 10 40 37 17 -13 -13
-8 -19 11 42 39 18 -12 -13
-8 -18 11 44 40 18 -12 -13
-8 -17 11 47 43 19 -11 -13
-8 -16 11 49 45 19 -11 -13
-8 -15 11 52 46 20 -10 -13
-7 -14 11 54 48 21 -9 -13
-4 -13 11 55 51 24 -8 -13
1 -12 11 57 53 26 -6 -12
4 -11 11 59 56 29 -4 -12
7 -9 11 60 58 31 -3 -11
10 -8 11 62 61 34 0 -10
9 -8 11 65 64 35 0 -10
8 -8 11 68 67 36 0 -10
7 -8 11 71 70 37 1 -9
5 -8 11 73 73 38 1 -9
4 -9 10 76 76 39 2 -8
5 -9 10 77 76 39 2 -8
6 -9 10 78 77 40 2 -7
7 -8 10 79 77 42 3 -7
9 -8 10 80 78 43 3 -6
10 -7 9 81 79 44 4 -5
10 -6 9 85 84 46 4 -5
10 -4 9 88 87 48 4 -4
11 -3 8 91 90 50 5 -3
11 -2 8 94 94 52 5 -2
12 1 7 97 97 54 6 0
12 1 7 97 97 54 6 0
13 0 6 97 97 55 6 0
13 -2 5 97 97 56 7 0
14 -3 4 97 97 57 7 0
15 -4 3 96 96 58 8 0
16 -4 2 96 96 58 8 0
17 -4 1 97 96 58 8 0
18 -4 0 98 97 58 8 0
20 -4 -3 99 97 58 8 0
21 -5 -4 100 98 57 8 0
21 -5 -4 99 97 57 8 0
21 -5 -4 98 96 57 8 0
21 -5 -5 97 95 57 8 1
21 -5 -5 96 93 57 8 1
20 -4 -6 95 92 56 8 2
20 -4 -6 94 90 54 8 2
20 -4 -7 93 89 52 7 2
21 -4 -7 92 87 49 7 2
21 -4 -8 90 85 47 6 2
22 -5 -9 89 82 45 5 2
23 -5 -9 85 80 44 4 2
24 -4 -10 81 78 43 3 2
25 -4 -10 78 75 42 2 1
27 -3 -11 74 73 40 1 1
28 -2 -12 71 71 39 0 0
28 -2 -12 70 69 38 0 0
27 -2 -12 68 67 37 0 0
26 -2 -13 66 64 36 0 1
25 -2 -13 65 62 35 0 1
24 -2 -14 63 60 34 0 2
23 0 -13 61 58 34 1 2
22 1 -12 59 56 33 2 2
21 2 -11 56 54 33 3 3
20 3 -10 54 52 32 4 3
19 4 -9 52 50 31 5 4
17 4 -9 49 47 31 5 4
15 4 -9 47 44 30 5 5
13 4 -9 44 39 30 4 5
11 4 -9 42 36 29 4 6
9 3 -10 38 33 28 3 7
9 3 -9 34 30 28 3 7
8 3 -8 31 27 28 4 7
7 3 -7 28 25 28 4 7
6 3 -6 24 22 28 5 7
5 2 -5 21 19 27 6 8
4 2 -5 20 16 25 6 8
3 1 -5 18 14 23 6 7
2 1 -6 17 11 21 5 6
0 0 -6 16 9 19 5 5
-2 -2 -7 14 6 17 4 4
-2 -2 -7 13 4 17 3 4
-3 -3 -7 11 3 16 2 4
-4 -3 -6 9 1 16 1 4
-5 -4 -6 8 -2 15 0 4
-6 -5 -5 6 -4 14 -2 4
-6 -6 -5 5 -5 12 -2 4
-6 -7 -5 3 -7 11 -2 3
-7 -8 -5 2 -9 9 -2 2
-7 -9 -5 1 -10 7 -2 1
-8 -10 -5 -2 -12 5 -3 0
-9 -10 -5 -2 -12 5 -3 0
-11 -10 -5 -3 -13 5 -3 0
-12 -10 -5 -3 -14 5 -4 0
-13 -10 -5 -4 -15 5 -4 0
-15 -11 -4 -5 -16 5 -5 0
-15 -11 -4 -5 -16 5 -5 0
-14 -11 -4 -5 -17 4 -6 0
-14 -11 -4 -5 -17 3 -7 0
-13 -11 -4 -5 -18 2 -8 0
-12 -12 -5 -6 -19 1 -9 -2
-10 -12 -5 -6 -19 1 -9 -2
-8 -12 -6 -6 -19 1 -9 -3
-6 -11 -6 -6 -19 1 -10 -3
-3 -11 -7 -6 -19 1 -10 -4
0 -10 -8 -6 -20 0 -11 -5
-4 -10 -7 -6 -20 0 -11 -5
-8 -11 -6 -6 -20 0 -11 -5
-11 -12 -5 -7 -20 -2 -11 -4
-15 -13 -4 -7 -20 -2 -11 -4
-18 -14 -3 -8 -21 -3 -11 -3
-17 -13 -3 -7 -19 0 -10 -3
-16 -12 -3 -5 -17 2 -8 -3
-15 -11 -3 -3 -15 4 -7 -2
-14 -10 -3 -2 -12 6 -6 -2
-13 -8 -3 1 -10 8 -4 0
-13 -8 -3 2 -10 7 -4 0
-13 -9 -3 3 -10 6 -5 0
-13 -10 -3 5 -9 5 -5 0
-13 -11 -3 6 -9 4 -6 0
-13 -12 -4 8 -8 2 -7 -2
-13 -12 -4 7 -8 2 -7 -2
-12 -12 -4 6 -8 3 -7 -2
-12 -12 -4 5 -7 3 -7 -2
-11 -12 -4 4 -7 4 -7 -2
-10 -11 -3 3 -6 5 -6 -2
-10 -11 -3 3 -6 5 -6 -2
-10 -10 -3 4 -6 4 -6 -2
-10 -9 -3 5 -6 3 -6 -2
-10 -8 -3 6 -6 2 -6 -2
-9 -7 -4 7 -6 1 -6 0
-9 -7 -4 7 -6 1 -6 0
-10 -8 -4 7 -6 1 -6 0
-11 -9 -4 7 -6 1 -6 0
-12 -10 -4 7 -6 1 -6 0
-13 -11 -4 7 -6 2 -7 -2
-13 -11 -4 7 -6 2 -7 -2
-13 -10 -4 7 -6 2 -7 0
-13 -10 -3 8 -5 2 -6 0
-13 -9 -3 8 -5 2 -6 1
-13 -8 -2 9 -4 3 -5 2
-12 -8 -2 9 -4 3 -5 2
-10 -7 -2 9 -5 3 -5 2
-9 -7 -3 8 -6 2 -5 2
-7 -6 -3 8 -7 2 -5 2
-5 -5 -4 7 -8 1 -5 1
-6 -5 -4 8 -8 1 -5 1
-7 -5 -4 9 -8 1 -5 1
-8 -5 -4 10 -7 1 -5 1
-9 -5 -4 11 -7 1 -5 1
-11 -6 -5 13 -6 1 -4 1
-11 -6 -5 11 -7 1 -5 1
-10 -6 -5 8 -8 1 -6 1
-9 -7 -4 5 -10 0 -7 0
-8 -7 -4 3 -11 0 -8 0
-7 -8 -3 0 -13 -2 -9 -2
-8 -8 -3 0 -12 -2 -9 -2
-9 -7 -3 1 -11 -2 -8 0
-10 -7 -3 1 -10 0 -8 0
-11 -6 -3 2 -9 0 -7 1
-12 -5 -4 3 -7 1 -6 2
-12 -5 -4 3 -8 1 -6 2
-12 -4 -4 3 -9 1 -6 2
-11 -3 -4 3 -10 1 -6 3
-11 -2 -4 3 -11 1 -6 3
-10 0 -3 3 -12 0 -5 4
-10 -2 -3 3 -12 -2 -5 3
-10 -4 -3 3 -13 -3 -5 2
-10 -5 -3 3 -13 -4 -5 1
-10 -7 -3 3 -14 -5 -5 0
-9 -9 -4 2 -15 -6 -6 -3
-9 -9 -4 2 -15 -6 -6 -3
-9 -9 -4 1 -16 -6 -7 -3
-8 -8 -5 1 -16 -6 -7 -3
-8 -8 -5 0 -17 -6 -8 -3
-7 -7 -6 -2 -18 -6 -9 -3
-7 -7 -6 -2 -18 -6 -9 -3
-8 -7 -6 -2 -18 -6 -9 -3
-9 -7 -5 -2 -18 -6 -9 -2
-10 -7 -5 -2 -18 -6 -9 -2
-11 -7 -4 -2 -18 -5 -10 0
-12 -7 -4 -2 -19 -5 -10 0
-14 -7 -4 -3 -20 -5 -10 0
-15 -8 -4 -3 -21 -5 -9 0
-17 -8 -4 -4 -22 -5 -9 0
-19 -9 -3 -5 -23 -6 -8 0
-18 -9 -3 -5 -23 -7 -8 0
-16 -9 -4 -6 -23 -8 -9 0
-14 -9 -4 -7 -23 -9 -10 -2
-12 -9 -5 -8 -23 -10 -11 -2
-10 -10 -6 -9 -23 -11 -12 -3
-10 -10 -6 -9 -23 -11 -12 -3
-10 -10 -6 -9 -24 -11 -12 -3
-10 -10 -6 -9 -24 -11 -12 -4
-10 -10 -6 -9 -25 -11 -12 -4
-11 -11 -7 -8 -26 -12 -13 -5
-11 -11 -7 -8 -26 -12 -13 -5
-11 -11 -7 -8 -26 -11 -12 -4
-11 -11 -7 -8 -26 -11 -12 -4
-11 -11 -7 -8 -26 -10 -11 -3
-12 -10 -6 -8 -26 -9 -10 -2
-12 -10 -6 -8 -26 -9 -10 -2
-11 -10 -6 -8 -26 -10 -10 -3
-10 -9 -6 -8 -26 -10 -11 -3
-9 -9 -6 -8 -26 -11 -11 -4
-8 -8 -7 -9 -26 -12 -12 -5
-9 -8 -7 -9 -26 -13 -12 -5
-10 -8 -7 -10 -27 -15 -12 -5
-11 -9 -7 -11 -27 -16 -12 -5
-12 -9 -7 -12 -28 -18 -12 -5
-13 -10 -7 -13 -29 -20 -11 -5
-14 -10 -7 -12 -29 -20 -11 -5
-15 -10 -6 -11 -28 -20 -11 -4
-16 -10 -5 -10 -28 -19 -11 -4
-17 -10 -4 -9 -27 -19 -11 -3
-19 -9 -3 -8 -26 -18 -10 -2
-18 -9 -3 -9 -26 -19 -11 -2
-17 -10 -4 -10 -27 -20 -12 -3
-15 -10 -5 -11 -27 -21 -13 -4
-14 -11 -6 -12 -28 -22 -14 -5
-12 -12 -7 -13 -29 -23 -15 -6
-11 -12 -7 -13 -29 -23 -15 -6
-10 -11 -7 -13 -29 -23 -15 -6
-8 -10 -7 -14 -30 -23 -15 -6
-7 -9 -7 -14 -30 -23 -15 -6
-5 -8 -6 -15 -31 -23 -14 -6
-7 -8 -6 -15 -31 -23 -14 -6
-9 -8 -6 -15 -31 -23 -15 -7
-11 -9 -6 -15 -32 -23 -15 -7
-13 -9 -6 -15 -32 -23 -16 -8
-15 -10 -6 -16 -33 -24 -17 -9
-15 -10 -6 -16 -32 -23 -17 -9
-16 -10 -6 -16 -30 -22 -16 -8
-16 -10 -6 -16 -29 -21 -15 -8
-17 -10 -6 -16 -27 -20 -14 -7
-18 -11 -7 -15 -25 -18 -13 -6
-17 -11 -7 -15 -25 -18 -13 -6
-16 -11 -7 -14 -26 -19 -13 -6
-15 -10 -7 -14 -26 -19 -13 -6
-14 -10 -7 -13 -27 -20 -13 -6
-13 -9 -8 -12 -28 -21 -14 -6
-13 -8 -7 -12 -27 -20 -14 -5
-12 -6 -6 -12 -26 -19 -13 -4
-12 -4 -4 -12 -25 -18 -12 -3
-11 -2 -3 -12 -24 -17 -11 -2
-10 1 0 -11 -23 -16 -10 0
-10 1 1 -11 -23 -16 -10 0
-10 1 2 -11 -23 -16 -10 0
-9 2 3 -10 -23 -16 -9 0
-9 2 4 -10 -23 -16 -9 0
-8 3 5 -9 -23 -16 -8 1
-8 5 6 -8 -22 -15 -7 1
-8 8 7 -7 -21 -14 -6 1
-9 11 9 -6 -20 -13 -5 1
-9 14 10 -5 -19 -12 -4 1
-10 17 12 -4 -18 -10 -3 2
-10 18 10 -4 -18 -10 -3 2
-9 19 8 -5 -18 -10 -3 3
-9 20 5 -5 -18 -10 -3 4
-8 21 3 -6 -18 -10 -3 5
-7 22 0 -7 -18 -9 -2 6
-7 22 -2 -8 -18 -9 -2 6
-6 23 -3 -9 -18 -9 0 7
-5 23 -4 -11 -18 -10 1 7
-4 24 -5 -12 -18 -10 2 8
-3 25 -6 -14 -17 -11 3 9
-3 25 -8 -15 -17 -11 3 9
-2 25 -10 -16 -18 -11 3 9
0 25 -13 -17 -19 -11 2 9
1 25 -15 -18 -20 -11 2 9
2 26 -18 -20 -21 -11 1 9
2 25 -18 -20 -21 -11 1 9
1 24 -18 -21 -22 -12 1 9
1 22 -17 -21 -23 -12 1 9
0 21 -17 -22 -24 -13 1 9
-2 19 -16 -23 -25 -14 0 8
-2 19 -16 -23 -26 -15 -2 8
0 18 -15 -24 -27 -16 -4 7
0 18 -15 -25 -28 -18 -5 6
1 17 -14 -26 -29 -19 -7 5
2 16 -13 -27 -31 -21 -9 4
-2 14 -13 -27 -31 -21 -9 4
-5 12 -12 -27 -31 -21 -9 3
-8 9 -11 -27 -31 -22 -9 3
-11 7 -10 -27 -31 -22 -9 2
-15 4 -9 -28 -31 -23 -10 1
-14 4 -8 -27 -31 -23 -10 0
-13 3 -7 -26 -31 -23 -11 -2
-12 2 -6 -25 -31 -24 -12 -4
-11 1 -5 -24 -31 -24 -13 -5
-10 0 -3 -23 -32 -25 -14 -7
-10 -2 -3 -23 -32 -26 -15 -7
-10 -4 -3 -24 -33 -27 -16 -8
-10 -6 -4 -25 -34 -28 -16 -8
-10 -8 -4 -26 -35 -29 -17 -9
-10 -9 -4 -26 -35 -30 -18 -9
-10 -10 -5 -27 -36 -31 -19 -10
-9 -10 -4 -27 -35 -31 -19 -10
-9 -10 -4 -27 -35 -31 -19 -10
-8 -10 -3 -27 -34 -31 -19 -10
-8 -10 -3 -27 -34 -31 -19 -10
-10 -10 -2 -26 -33 -30 -18 -10
-13 -11 -2 -26 -34 -30 -18 -10
-16 -12 -2 -26 -34 -30 -18 -11
-19 -13 -2 -26 -35 -30 -18 -11
-22 -13 -2 -26 -35 -30 -18 -11
-23 -14 -2 -25 -36 -31 -18 -12
-22 -14 -2 -25 -36 -31 -18 -12
-21 -14 -3 -25 -36 -32 -19 -12
-20 -14 -3 -25 -36 -32 -19 -12
-20 -14 -3 -25 -36 -32 -19 -12
-19 -13 -4 -26 -37 -33 -20 -13
-18 -13 -4 -28 -37 -33 -20 -13
-17 -13 -4 -29 -37 -34 -20 -14
-16 -13 -4 -31 -37 -34 -20 -14
-16 -13 -4 -32 -37 -34 -20 -14
-16 -12 -2 -26 -31 -33 -19 -15
-17 -13 1 -18 -25 -31 -19 -16
-18 -14 3 -10 -19 -29 -20 -16
-19 -15 5 -2 -13 -27 -20 -17
-20 -16 6 7 -8 -25 -20 -17
-18 -14 16 32 16 -13 -19 -18
-14 -10 25 58 38 -2 -16 -18
-10 -7 35 84 62 11 -13 -18
-6 -3 46 110 85 23 -10 -18
-3 1 55 136 108 34 -7 -18
9 12 66 167 150 71 17 -7
19 23 77 196 193 108 40 6
30 34 89 227 236 146 64 18
42 46 99 258 279 183 89 30
52 57 110 288 322 220 112 43
62 89 93 220 294 251 152 76
71 121 73 148 261 280 194 110
81 153 54 76 228 310 235 145
92 186 34 5 195 340 276 179
101 218 15 -67 163 370 317 213
90 214 3 -121 122 362 316 215
77 205 -9 -175 81 351 313 215
64 198 -20 -228 42 341 310 216
52 191 -32 -281 1 330 307 216
38 184 -44 -336 -40 320 304 216
26 147 -45 -326 -86 234 242 181
14 109 -45 -313 -132 145 180 143
1 70 -46 -301 -177 55 116 104
-12 32 -46 -287 -222 -34 54 66
-24 -6 -46 -275 -268 -123 -10 28
-25 -18 -46 -249 -248 -126 -22 14
-26 -29 -44 -223 -226 -123 -31 1
-26 -40 -43 -197 -202 -120 -41 -12
-27 -52 -40 -171 -180 -118 -51 -25
-27 -63 -39 -145 -157 -116 -61 -38
-27 -62 -29 -124 -137 -105 -58 -39
-25 -59 -18 -105 -117 -93 -54 -38
-24 -56 -8 -85 -97 -81 -49 -38
-22 -53 4 -65 -77 -69 -44 -37
-21 -51 14 -45 -57 -58 -39 -37
-20 -46 16 -39 -52 -54 -36 -35
-19 -40 17 -35 -47 -51 -34 -33
-19 -35 18 -31 -41 -47 -32 -32
-18 -31 19 -26 -36 -44 -30 -30
-18 -26 20 -22 -31 -40 -28 -29
-17 -25 21 -19 -27 -38 -27 -28
-17 -24 21 -16 -23 -37 -27 -27
-17 -23 21 -13 -19 -35 -27 -26
-17 -22 21 -10 -15 -34 -27 -25
-17 -21 21 -7 -11 -33 -27 -24
-18 -20 22 -5 -9 -31 -27 -23
-19 -19 25 -4 -8 -30 -25 -23
-20 -19 27 -2 -7 -28 -23 -22
-21 -18 30 0 -6 -27 -21 -22
-22 -18 32 1 -5 -26 -19 -22
-23 -17 33 2 -4 -25 -18 -21
-22 -17 32 3 -3 -25 -19 -22
-21 -16 31 4 -3 -25 -20 -22
-20 -16 30 5 -2 -25 -21 -23
-20 -16 30 6 -2 -25 -22 -23
-19 -15 29 7 0 -26 -23 -24
-18 -15 29 7 1 -25 -22 -24
-17 -15 29 7 1 -24 -21 -24
-16 -15 29 7 2 -23 -20 -24
-16 -15 29 7 2 -22 -20 -24
-15 -16 30 8 4 -21 -19 -25
-16 -16 30 9 5 -21 -19 -25
-17 -16 30 11 7 -20 -18 -24
-18 -16 30 12 8 -20 -18 -24
-19 -16 30 13 9 -20 -18 -24
-18 -15 31 14 10 -19 -17 -23
-15 -16 31 14 10 -19 -17 -23
-13 -16 30 14 10 -18 -18 -24
-10 -17 30 14 10 -18 -18 -24
-8 -17 30 14 10 -18 -18 -24
-8 -17 29 14 11 -16 -18 -25
-9 -15 30 16 13 -15 -17 -24
-11 -13 30 18 16 -13 -15 -23
-12 -11 31 20 19 -12 -14 -22
-13 -10 31 22 21 -11 -13 -21
-14 -9 32 23 22 -10 -12 -20
-14 -9 32 23 22 -9 -12 -21
-14 -10 32 23 22 -9 -12 -21
-14 -10 32 23 22 -8 -12 -22
-14 -10 32 23 22 -8 -12 -22
-15 -11 31 23 24 -7 -13 -23
-15 -11 31 24 25 -6 -12 -23
-14 -12 31 25 26 -6 -12 -22
-14 -12 31 26 27 -5 -11 -22
-14 -12 31 27 28 -5 -11 -22
-13 -13 30 29 30 -4 -10 -21
-13 -12 30 31 31 -3 -10 -21
-12 -11 31 33 33 -3 -10 -21
-12 -10 31 35 34 -2 -10 -21
-12 -10 31 36 35 -2 -10 -21
-11 -9 32 38 38 1 -8 -20
-10 -9 31 40 42 3 -7 -20
-9 -9 31 43 45 5 -5 -20
-8 -9 30 45 47 7 -4 -20
-8 -9 30 46 50 9 -3 -20
-7 -8 29 48 52 10 -2 -19
-7 -8 29 50 53 11 -2 -19
-6 -8 29 52 55 12 -2 -19
-6 -8 29 54 56 13 -2 -19
-6 -8 29 56 57 14 -2 -19
-3 -7 30 58 59 15 0 -20
0 -7 29 60 61 16 0 -20
2 -6 28 61 62 17 0 -19
5 -6 27 63 64 18 0 -19
7 -6 27 64 65 19 0 -19
7 -5 26 67 68 21 0 -17
5 -4 26 69 71 23 2 -16
3 -3 26 72 74 25 4 -15
1 -2 26 75 77 27 6 -14
-2 -2 26 77 80 28 7 -13
0 0 26 78 81 29 8 -12
3 1 24 78 81 29 8 -13
6 2 22 79 82 29 8 -14
8 3 20 79 82 29 8 -15
11 4 18 79 82 29 8 -15
12 4 17 80 84 30 7 -16
12 3 16 81 85 30 7 -16
12 2 16 82 86 30 7 -16
12 1 15 84 87 30 7 -16
12 0 15 84 87 30 7 -16
13 -2 14 85 88 31 8 -15
13 -2 14 86 88 31 8 -15
14 0 14 86 89 31 8 -14
14 0 14 87 89 31 8 -14
14 0 14 87 89 31 8 -14
16 1 12 87 89 31 8 -13
19 2 9 86 87 29 7 -13
21 2 7 84 85 28 6 -13
23 3 5 82 84 26 5 -13
25 3 3 81 81 25 5 -13
25 4 2 80 80 24 4 -13
24 4 2 79 79 23 4 -12
23 4 2 79 78 23 4 -12
22 4 2 78 77 22 4 -11
21 4 2 78 77 22 4 -11
20 4 2 75 75 20 4 -10
20 4 1 73 73 19 3 -10
21 4 -2 70 71 18 3 -11
21 4 -4 67 69 17 2 -11
21 4 -5 65 67 16 2 -11
22 5 -6 62 64 14 1 -12
21 4 -6 58 61 11 0 -12
20 4 -6 55 58 9 -2 -12
19 3 -6 51 55 7 -3 -12
19 3 -6 48 52 5 -4 -12
18 2 -6 47 51 4 -5 -13
18 3 -6 46 50 4 -4 -13
18 4 -6 45 49 5 -3 -12
18 5 -6 44 48 5 -2 -12
18 5 -6 44 47 5 0 -12
16 6 -6 39 44 5 1 -11
13 7 -6 35 40 4 1 -11
11 8 -5 31 37 3 1 -11
9 9 -5 27 34 1 1 -11
7 9 -5 23 31 0 1 -11
5 10 -4 20 28 -2 1 -10
4 10 -4 17 25 -2 2 -10
3 11 -4 15 23 -2 2 -10
1 11 -4 12 20 -2 3 -10
0 11 -4 9 17 -2 3 -10
-2 12 -4 7 15 -3 4 -11
-3 12 -3 5 13 -4 4 -11
-3 11 -3 3 11 -5 3 -12
-4 11 -2 1 9 -6 3 -12
-4 11 -2 -2 7 -7 3 -12
-5 10 0 -4 5 -9 2 -13
-6 10 0 -6 2 -10 1 -13
-6 9 0 -8 0 -12 0 -14
-7 9 0 -10 -3 -14 -2 -14
-7 9 0 -12 -5 -15 -3 -14
-8 8 0 -14 -6 -16 -4 -15
-8 8 0 -15 -7 -16 -4 -15
-8 8 0 -16 -8 -17 -3 -14
-8 8 0 -17 -9 -17 -3 -14
-8 8 0 -18 -10 -17 -3 -14
-8 8 1 -19 -11 -18 -2 -13
-11 7 1 -20 -12 -19 -2 -13
-13 5 1 -21 -13 -20 -3 -13
-15 3 1 -22 -14 -21 -3 -13
-17 2 1 -22 -14 -21 -3 -13
-18 0 1 -23 -15 -22 -4 -14
-18 -2 1 -23 -16 -23 -4 -14
-18 -3 1 -24 -17 -23 -4 -14
-18 -5 1 -24 -18 -24 -4 -14
-18 -6 1 -24 -18 -24 -4 -14
-17 -7 1 -25 -19 -25 -5 -15
-16 -7 1 -25 -19 -26 -6 -15
-15 -7 0 -25 -19 -26 -6 -15
-13 -7 0 -25 -19 -27 -7 -15
-12 -7 0 -25 -19 -27 -7 -15
-12 -8 -2 -26 -20 -28 -8 -16
-13 -8 -2 -24 -18 -27 -8 -16
-15 -8 0 -23 -17 -26 -7 -15
-17 -8 0 -22 -16 -25 -7 -15
-18 -8 0 -21 -15 -25 -7 -15
-19 -8 1 -20 -14 -24 -6 -14
-18 -8 1 -20 -14 -24 -7 -14
-17 -8 1 -20 -15 -24 -7 -15
-16 -8 1 -20 -15 -24 -8 -15
-16 -8 1 -20 -15 -24 -8 -15
-15 -9 0 -20 -16 -25 -9 -16
-15 -9 0 -20 -15 -25 -9 -16
-15 -9 0 -19 -15 -24 -9 -16
-15 -9 0 -19 -14 -24 -9 -16
-15 -9 0 -19 -14 -24 -9 -16
-16 -9 0 -18 -13 -23 -10 -17
-14 -9 0 -18 -12 -23 -10 -17
-13 -9 0 -18 -12 -23 -10 -17
-12 -9 0 -18 -11 -23 -10 -17
-11 -9 0 -18 -11 -23 -10 -17
-10 -8 1 -17 -10 -23 -9 -17
-11 -7 2 -16 -9 -22 -9 -17
-12 -6 2 -15 -9 -21 -9 -16
-13 -5 3 -13 -8 -20 -9 -16
-13 -5 3 -12 -8 -19 -9 -16
-14 -4 4 -11 -7 -18 -8 -15
-14 -6 4 -11 -7 -18 -8 -15
-15 -7 4 -11 -6 -18 -8 -15
-15 -8 4 -11 -6 -18 -8 -15
-15 -9 4 -11 -6 -18 -8 -15
-16 -10 3 -11 -5 -18 -7 -15
-15 -9 3 -11 -5 -17 -7 -15
-15 -9 2 -11 -5 -17 -7 -15
-14 -8 2 -11 -5 -16 -7 -15
-14 -8 2 -11 -5 -16 -7 -15
-13 -7 1 -10 -5 -15 -6 -15
-13 -7 1 -11 -6 -15 -6 -15
-12 -7 1 -11 -6 -15 -6 -15
-12 -7 1 -12 -7 -15 -6 -15
-12 -7 1 -12 -7 -15 -6 -15
-11 -7 2 -13 -8 -16 -6 -14
-11 -7 1 -13 -9 -16 -7 -14
-11 -7 0 -13 -10 -17 -7 -14
-11 -7 -2 -13 -11 -17 -8 -14
-11 -7 -3 -13 -11 -17 -8 -14
-13 -8 -4 -13 -12 -18 -9 -15
-14 -8 -4 -13 -12 -18 -9 -15
-15 -9 -3 -13 -12 -18 -8 -15
-17 -9 -3 -13 -12 -18 -8 -15
-18 -9 -3 -13 -12 -18 -8 -15
-18 -10 -2 -13 -11 -18 -7 -15
-16 -10 -2 -13 -11 -18 -7 -14
-14 -9 0 -13 -11 -18 -7 -13
-12 -9 0 -13 -11 -18 -7 -12
-10 -9 0 -13 -11 -18 -7 -12
-9 -8 1 -13 -12 -18 -8 -11
-10 -8 1 -14 -12 -18 -8 -11
-11 -8 1 -14 -12 -18 -8 -11
-12 -8 1 -15 -12 -18 -8 -11
-12 -8 1 -15 -12 -18 -8 -11
-13 -8 0 -16 -13 -19 -9 -12
-13 -8 0 -17 -14 -19 -9 -12
-13 -8 0 -17 -15 -20 -9 -12
-13 -8 0 -18 -16 -20 -9 -12
-13 -8 0 -18 -17 -20 -9 -12
-12 -9 -2 -19 -18 -21 -10 -12
-12 -10 -3 -20 -18 -21 -11 -12
-12 -11 -4 -21 -18 -22 -11 -13
-12 -12 -5 -22 -18 -22 -12 -13
-12 -12 -5 -22 -18 -22 -12 -13
-11 -13 -6 -23 -19 -23 -13 -14
-10 -12 -6 -23 -20 -23 -13 -14
-10 -11 -5 -23 -21 -23 -13 -14
-9 -10 -5 -23 -22 -23 -13 -14
-9 -10 -5 -23 -22 -23 -13 -14
-9 -9 -4 -22 -23 -24 -12 -14
-10 -9 -4 -22 -22 -23 -12 -14
-11 -9 -4 -23 -22 -23 -12 -14
-13 -9 -4 -23 -21 -22 -12 -14
-14 -9 -4 -23 -21 -22 -12 -14
-15 -10 -3 -24 -21 -21 -13 -13
-15 -10 -4 -25 -22 -23 -13 -14
-15 -11 -4 -25 -24 -24 -13 -15
-15 -11 -5 -26 -26 -25 -13 -16
-15 -11 -5 -26 -27 -26 -13 -16
-14 -12 -6 -27 -28 -27 -13 -17
-12 -11 -5 -27 -28 -27 -13 -15
-11 -10 -5 -27 -28 -26 -13 -14
-9 -9 -4 -27 -28 -26 -13 -13
-7 -9 -4 -27 -28 -26 -13 -12
-6 -8 -3 -28 -27 -25 -13 -11
-6 -9 -3 -28 -27 -25 -14 -12
-6 -9 -4 -28 -28 -25 -15 -13
-6 -10 -4 -28 -28 -25 -16 -14
-6 -10 -4 -28 -28 -25 -16 -14
-8 -11 -5 -28 -29 -26 -17 -15
-11 -11 -5 -27 -29 -26 -16 -14
-15 -12 -4 -26 -28 -25 -16 -13
-18 -12 -4 -26 -28 -25 -15 -12
-22 -12 -4 -25 -28 -25 -15 -11
-23 -13 -3 -24 -27 -24 -14 -10
-22 -14 -3 -25 -28 -24 -15 -11
-22 -14 -4 -25 -29 -25 -16 -12
-21 -15 -4 -26 -29 -25 -16 -12
-21 -15 -4 -26 -30 -25 -17 -13
-19 -16 -5 -27 -31 -26 -18 -14
-18 -15 -5 -28 -31 -27 -18 -14
-17 -15 -5 -28 -31 -28 -19 -14
-15 -14 -5 -29 -31 -28 -19 -14
-14 -14 -5 -29 -31 -29 -19 -14
-13 -13 -5 -30 -32 -30 -20 -13
-13 -12 -5 -29 -32 -30 -20 -13
-12 -12 -5 -29 -32 -30 -19 -13
-12 -11 -5 -28 -32 -30 -19 -13
-12 -11 -5 -28 -32 -30 -19 -13
-11 -10 -5 -27 -31 -29 -18 -13
-11 -11 -5 -27 -31 -29 -18 -13
-11 -11 -5 -27 -31 -28 -18 -14
-11 -12 -5 -27 -31 -28 -18 -14
-11 -12 -5 -27 -31 -28 -18 -14
-12 -13 -6 -28 -32 -27 -18 -15
-13 -13 -6 -28 -33 -27 -18 -14
-15 -14 -6 -28 -33 -27 -18 -14
-16 -14 -6 -28 -34 -27 -18 -13
-18 -14 -6 -28 -34 -27 -18 -13
-19 -15 -5 -27 -35 -27 -18 -12
-19 -15 -5 -27 -35 -27 -18 -13
-19 -15 -6 -27 -35 -28 -18 -13
-19 -15 -6 -27 -35 -28 -18 -14
-19 -15 -6 -27 -35 -28 -18 -14
-18 -14 -7 -27 -34 -29 -18 -15
-17 -14 -7 -27 -34 -29 -19 -15
-17 -14 -6 -27 -34 -29 -19 -14
-16 -14 -6 -27 -34 -29 -20 -14
-16 -14 -6 -27 -34 -29 -20 -14
-15 -14 -5 -28 -35 -28 -21 -13
-14 -14 -5 -27 -35 -28 -20 -13
-14 -14 -5 -27 -34 -28 -19 -13
-13 -14 -5 -26 -34 -28 -18 -13
-13 -14 -5 -26 -34 -28 -17 -13
-12 -13 -6 -25 -33 -29 -16 -13
-12 -13 -6 -25 -33 -29 -17 -13
-13 -14 -6 -25 -34 -30 -17 -13
-13 -14 -6 -25 -34 -30 -18 -13
-13 -14 -6 -25 -34 -30 -18 -13
-14 -15 -5 -25 -35 -31 -19 -13
-14 -14 -5 -25 -35 -31 -19 -13
-15 -13 -5 -25 -35 -31 -19 -13
-15 -13 -5 -25 -35 -31 -19 -13
-15 -12 -5 -25 -35 -31 -19 -13
-16 -11 -5 -25 -34 -30 -20 -14
-15 -10 -4 -23 -33 -29 -19 -13
-14 -10 -4 -22 -33 -29 -18 -12
-13 -9 -3 -20 -32 -28 -18 -12
-12 -9 -3 -19 -32 -28 -17 -11
-11 -7 -2 -18 -31 -27 -16 -10
-11 -5 1 -17 -29 -25 -14 -9
-11 -4 2 -17 -28 -24 -13 -8
-11 -2 4 -16 -26 -22 -12 -8
-11 1 5 -16 -25 -21 -11 -7
-11 2 6 -15 -24 -20 -10 -6
-11 4 6 -15 -23 -20 -10 -5
-11 5 6 -14 -23 -20 -10 -4
-11 7 6 -14 -22 -20 -10 -3
-11 8 6 -14 -22 -20 -10 -2
-10 9 7 -13 -21 -19 -11 0
-10 11 5 -14 -22 -19 -10 0
-9 12 4 -14 -22 -18 -9 0
-9 13 3 -15 -23 -18 -9 0
-9 14 2 -15 -23 -18 -8 0
-7 15 0 -16 -24 -17 -7 1
-6 16 -3 -17 -24 -16 -5 3
-4 16 -5 -17 -23 -15 -4 4
-3 17 -8 -18 -23 -15 -3 5
0 17 -10 -18 -23 -14 -2 6
1 18 -11 -19 -22 -13 0 7
2 18 -11 -19 -22 -13 -2 7
3 19 -12 -20 -23 -13 -2 7
4 19 -12 -20 -23 -13 -3 7
5 19 -12 -20 -23 -13 -3 7
6 19 -13 -21 -24 -13 -4 7
5 16 -14 -22 -26 -14 -4 6
4 13 -15 -22 -27 -14 -5 6
4 10 -15 -23 -28 -15 -5 5
3 7 -16 -23 -29 -15 -5 5
2 6 -17 -24 -30 -17 -6 4
1 6 -17 -26 -31 -18 -7 3
1 6 -17 -27 -31 -20 -8 2
0 6 -17 -29 -32 -21 -9 2
0 6 -17 -30 -32 -23 -10 1
-2 4 -17 -31 -33 -24 -12 -2
-2 2 -16 -31 -34 -25 -13 -3
-3 0 -15 -30 -35 -26 -15 -5
-3 -4 -14 -30 -35 -27 -16 -6
-3 -6 -13 -30 -36 -28 -18 -8
-4 -7 -12 -29 -37 -29 -19 -9
-5 -7 -10 -27 -37 -29 -19 -9
-6 -7 -9 -26 -37 -29 -19 -9
-7 -7 -7 -25 -37 -29 -19 -9
-8 -7 -6 -24 -37 -29 -19 -9
-9 -9 -5 -23 -36 -29 -19 -9
-10 -10 -5 -23 -36 -29 -19 -9
-11 -12 -6 -24 -36 -29 -20 -9
-12 -13 -7 -24 -36 -29 -20 -9
-13 -15 -7 -24 -36 -29 -20 -9
-14 -16 -8 -25 -36 -30 -21 -10
-14 -17 -8 -25 -36 -30 -21 -10
-15 -18 -8 -26 -37 -30 -21 -11
-15 -18 -8 -26 -37 -30 -21 -12
-15 -19 -8 -26 -37 -30 -21 -12
-15 -20 -9 -27 -38 -31 -22 -13
-14 -19 -8 -27 -38 -31 -22 -13
-12 -18 -7 -26 -37 -31 -21 -13
-11 -17 -7 -25 -37 -31 -21 -13
-9 -16 -6 -25 -37 -31 -21 -13
-8 -15 -5 -24 -36 -31 -20 -12
-10 -15 -5 -24 -36 -31 -20 -12
-11 -15 -6 -24 -36 -32 -21 -12
-13 -15 -6 -24 -36 -32 -22 -12
-14 -15 -6 -24 -36 -32 -22 -12
-15 -15 -7 -25 -37 -33 -23 -13
-15 -16 -7 -25 -37 -33 -23 -13
-15 -17 -7 -26 -38 -33 -23 -13
-15 -18 -7 -27 -38 -33 -23 -13
-15 -19 -7 -27 -38 -33 -23 -13
-15 -20 -7 -25 -36 -31 -24 -13
-13 -20 -5 -19 -31 -30 -26 -15
-11 -21 -3 -13 -26 -28 -27 -17
-8 -22 1 -7 -21 -27 -29 -19
-6 -22 3 -2 -16 -25 -30 -21
-5 -21 10 19 3 -16 -28 -21
-5 -18 19 46 28 -3 -23 -20
-5 -15 29 73 53 11 -18 -18
-5 -12 38 100 78 25 -13 -16
-5 -9 49 128 104 38 -7 -14
2 0 58 156 141 68 11 -6
13 11 67 186 183 108 35 8
23 22 76 216 226 148 61 20
34 33 85 246 268 188 86 33
46 45 94 276 310 228 111 46
53 70 87 242 303 261 148 74
59 104 67 170 264 289 192 111
65 139 49 97 226 318 237 149
71 173 29 24 188 346 281 186
76 207 10 -49 149 375 325 224
73 217 -2 -103 111 375 338 236
63 209 -10 -146 72 356 328 233
52 201 -17 -189 34 338 319 230
42 193 -24 -233 -5 319 311 226
30 185 -32 -276 -43 301 302 223
21 159 -35 -282 -80 240 258 197
12 123 -33 -265 -117 153 194 159
3 87 -32 -247 -154 67 131 120
-7 51 -30 -231 -192 -19 66 82
-16 14 -29 -214 -229 -106 3 45
-21 -9 -28 -193 -231 -136 -27 22
-24 -22 -28 -172 -211 -130 -36 10
-27 -35 -29 -150 -191 -123 -46 -3
-30 -49 -29 -130 -171 -117 -55 -16
-32 -62 -29 -108 -150 -111 -64 -28
-33 -68 -27 -91 -133 -103 -67 -33
-31 -66 -21 -76 -116 -94 -64 -33
-28 -65 -15 -62 -100 -83 -61 -33
-26 -63 -9 -49 -83 -74 -58 -33
-23 -62 -3 -34 -68 -65 -56 -33
-21 -58 1 -27 -58 -59 -52 -32
-19 -52 2 -25 -51 -54 -49 -29
-17 -46 3 -22 -45 -49 -46 -27
-15 -40 3 -20 -37 -45 -41 -24
-13 -34 4 -17 -31 -39 -38 -22
-12 -31 5 -14 -26 -36 -36 -20
-12 -29 5 -11 -22 -35 -35 -19
-13 -28 4 -7 -18 -33 -34 -18
-14 -26 4 -4 -13 -31 -34 -17
-14 -25 4 1 -9 -29 -33 -16
-15 -24 3 3 -7 -28 -32 -15
-16 -24 5 4 -6 -26 -31 -15
-18 -23 7 5 -4 -25 -29 -14
-19 -23 8 6 -3 -23 -28 -14
-20 -23 10 7 -2 -22 -27 -14
-20 -22 11 8 0 -21 -26 -13
-16 -21 11 9 0 -21 -26 -13
-13 -20 10 10 0 -21 -25 -13
-10 -19 9 10 0 -21 -24 -13
-7 -18 9 11 0 -21 -24 -13
-5 -17 8 12 2 -20 -23 -13
-5 -17 9 12 3 -19 -23 -13
-5 -17 10 12 5 -17 -22 -12
-5 -17 10 12 7 -15 -22 -12
-5 -17 11 12 9 -13 -22 -12
-5 -18 12 11 10 -12 -21 -11
-5 -18 12 13 10 -12 -21 -11
-6 -18 11 14 11 -13 -21 -12
-6 -18 10 16 11 -13 -21 -12
-6 -18 10 17 11 -13 -21 -12
-7 -19 9 18 12 -14 -21 -13
-8 -19 9 18 12 -14 -22 -13
-9 -19 8 17 13 -14 -23 -14
-9 -19 8 16 13 -14 -23 -14
-10 -19 8 16 13 -14 -24 -14
-11 -19 7 16 14 -13 -25 -15
-10 -18 7 17 15 -12 -25 -15
-8 -17 7 19 17 -11 -24 -14
-7 -16 7 21 18 -11 -23 -13
-6 -15 7 23 19 -10 -23 -13
-5 -14 7 24 20 -9 -22 -12
-4 -14 7 24 22 -8 -21 -12
-3 -14 7 24 24 -7 -20 -11
-3 -14 7 24 25 -6 -19 -10
-2 -14 7 24 27 -5 -18 -10
0 -14 7 24 28 -4 -17 -9
1 -14 7 25 30 -3 -17 -9
2 -14 6 27 32 -2 -17 -9
2 -14 5 28 33 -2 -17 -9
3 -14 5 29 35 0 -17 -9
4 -13 4 30 37 2 -16 -9
4 -13 4 32 39 4 -15 -9
3 -14 4 33 43 6 -13 -8
2 -14 4 34 45 8 -12 -7
2 -14 4 36 47 10 -11 -7
1 -14 4 37 49 11 -10 -6
1 -13 4 39 49 11 -10 -6
1 -11 4 40 50 12 -9 -5
1 -9 4 42 50 12 -9 -5
1 -7 4 44 50 12 -9 -5
0 -6 4 45 52 13 -8 -4
1 -7 4 46 54 14 -8 -4
2 -8 3 47 56 15 -8 -4
2 -8 3 48 58 16 -8 -4
3 -9 3 49 60 17 -8 -4
4 -10 2 50 61 18 -8 -5
5 -10 2 51 63 19 -8 -5
6 -9 1 53 65 21 -7 -4
6 -9 1 54 66 22 -6 -4
7 -9 1 55 68 23 -6 -4
8 -8 0 56 69 25 -5 -3
10 -8 0 56 71 26 -5 -3
12 -8 -2 57 73 28 -4 -2
13 -8 -2 58 74 30 -3 0
15 -8 -2 58 76 32 -3 0
16 -7 -3 60 78 33 -2 1
17 -6 -5 62 80 34 0 2
18 -5 -6 64 84 35 2 3
19 -4 -7 66 86 35 3 3
20 -3 -9 68 88 36 4 4
21 -2 -10 69 90 37 5 5
22 -3 -10 69 90 37 5 5
23 -4 -10 69 91 38 5 4
23 -4 -10 69 91 38 5 4
24 -5 -10 69 91 38 5 4
25 -6 -10 69 92 39 4 3
25 -5 -10 70 92 39 5 3
26 -4 -11 72 92 39 6 4
26 -4 -12 73 92 39 6 5
26 -3 -12 74 92 39 7 5
27 -2 -13 74 92 39 8 6
27 -2 -15 71 90 39 6 6
27 -3 -17 68 88 38 5 5
27 -4 -18 66 86 38 4 5
27 -4 -20 63 84 38 2 5
27 -5 -21 61 82 37 1 4
27 -7 -21 61 82 35 1 4
26 -9 -22 62 81 34 1 4
25 -10 -22 62 80 33 1 4
25 -12 -22 62 80 31 1 4
24 -13 -23 62 78 30 1 5
24 -13 -23 60 75 28 1 5
24 -12 -23 57 72 26 0 5
24 -12 -23 55 69 24 -2 5
24 -12 -23 53 66 22 -2 5
25 -11 -23 51 64 21 -3 4
25 -10 -23 49 62 20 -4 4
26 -8 -24 47 60 19 -5 4
26 -7 -25 45 59 18 -6 4
26 -6 -25 43 57 17 -7 4
27 -5 -26 40 55 16 -8 4
27 -5 -27 37 53 15 -8 3
28 -5 -28 33 50 14 -9 2
28 -5 -29 30 47 14 -9 2
28 -5 -30 27 45 13 -9 1
28 -4 -31 25 42 12 -10 0
26 -4 -29 24 39 12 -8 1
24 -3 -27 23 37 12 -6 3
22 -3 -26 22 35 12 -5 4
20 -3 -24 21 33 12 -3 5
19 -2 -23 20 31 11 -2 6
19 0 -22 18 30 11 0 6
18 1 -21 17 29 11 1 7
17 2 -21 16 28 11 2 8
17 3 -20 14 27 11 3 8
15 4 -19 13 25 12 4 9
13 5 -19 12 21 10 4 9
10 6 -19 11 18 8 3 9
8 6 -19 10 15 7 2 9
6 7 -19 9 11 5 2 9
4 8 -19 7 9 4 1 8
4 7 -18 5 8 3 1 8
3 6 -17 3 7 2 1 8
3 6 -17 1 7 1 1 8
3 5 -16 -2 6 0 1 8
2 4 -15 -4 4 -2 2 9
2 4 -15 -4 1 -4 1 8
2 4 -15 -5 -3 -6 -2 7
2 4 -15 -6 -5 -8 -3 7
2 4 -15 -6 -8 -10 -4 6
1 3 -15 -7 -10 -11 -5 5
1 3 -15 -9 -10 -11 -5 5
1 3 -15 -10 -10 -11 -6 5
1 3 -15 -11 -11 -12 -7 4
1 3 -15 -13 -11 -12 -7 4
0 3 -14 -14 -12 -13 -8 3
0 3 -14 -14 -13 -14 -9 3
0 3 -14 -14 -14 -15 -9 3
0 3 -14 -14 -16 -16 -10 2
0 3 -14 -14 -17 -17 -11 2
1 3 -14 -15 -18 -18 -12 1
0 3 -14 -15 -17 -17 -11 1
-2 3 -14 -15 -17 -16 -11 1
-3 3 -13 -15 -16 -14 -10 1
-4 3 -13 -15 -15 -13 -9 1
-5 3 -12 -15 -14 -12 -8 2
-5 3 -12 -14 -14 -12 -8 2
-5 3 -12 -14 -14 -12 -8 2
-5 3 -12 -13 -14 -13 -8 1
-5 3 -12 -12 -14 -13 -8 1
-5 3 -12 -11 -13 -14 -8 0
-5 3 -12 -11 -13 -14 -8 0
-5 3 -12 -11 -13 -14 -8 0
-4 3 -12 -11 -13 -14 -8 0
-4 3 -12 -11 -13 -14 -8 0
-3 3 -12 -10 -12 -14 -9 -2
-3 3 -12 -9 -11 -14 -9 -2
-4 3 -12 -9 -11 -13 -9 0
-5 3 -12 -8 -10 -12 -9 1
-5 3 -12 -7 -9 -12 -9 1
-6 2 -11 -6 -8 -11 -9 2
-6 2 -11 -6 -8 -11 -9 2
-6 2 -11 -6 -8 -11 -9 1
-7 1 -11 -6 -7 -11 -8 0
-7 1 -11 -6 -7 -11 -8 0
-8 0 -10 -7 -6 -10 -7 -2
-6 0 -11 -7 -6 -11 -8 -2
-5 0 -11 -7 -7 -11 -8 -2
-4 0 -12 -6 -8 -12 -9 -2
-2 0 -13 -6 -8 -13 -10 -2
0 0 -14 -5 -9 -14 -11 -2
-2 1 -14 -5 -7 -12 -9 -2
-3 2 -14 -5 -6 -11 -7 -2
-5 3 -14 -5 -5 -10 -5 0
-6 4 -14 -5 -3 -8 -3 0
-7 5 -14 -4 -2 -7 -2 1
-6 5 -14 -4 -2 -7 -2 1
-5 5 -14 -4 -3 -7 -2 1
-4 4 -13 -3 -4 -8 -2 2
-3 4 -13 -3 -4 -8 -2 2
-2 3 -12 -2 -5 -9 -2 3
-2 3 -12 -2 -5 -9 -2 3
-2 3 -12 -2 -5 -8 -2 3
-2 3 -12 -3 -4 -7 -2 3
-2 3 -12 -3 -4 -7 -2 3
-3 4 -12 -4 -3 -6 -3 4
-3 4 -12 -4 -3 -8 -4 4
-3 4 -12 -4 -4 -9 -4 4
-3 4 -13 -5 -5 -10 -5 3
-3 4 -13 -5 -5 -12 -6 3
-3 4 -14 -6 -6 -13 -7 2
-3 4 -14 -6 -7 -13 -6 2
-3 4 -14 -6 -8 -13 -6 2
-4 4 -13 -7 -10 -13 -5 3
-4 4 -13 -7 -11 -13 -4 3
-5 5 -12 -8 -12 -13 -3 4
-4 5 -12 -8 -12 -13 -4 4
-3 5 -12 -8 -12 -14 -5 4
-2 5 -13 -8 -12 -15 -6 3
0 5 -13 -8 -12 -15 -7 3
1 6 -14 -9 -12 -16 -8 2
1 5 -14 -9 -13 -17 -8 1
0 5 -13 -10 -13 -17 -8 1
-2 4 -12 -11 -14 -18 -8 0
-2 3 -12 -11 -15 -19 -8 -2
-3 2 -11 -12 -16 -20 -8 -3
-4 2 -12 -12 -16 -20 -8 -3
-4 2 -13 -13 -17 -20 -8 -3
-5 2 -14 -14 -18 -21 -9 -3
-6 2 -15 -14 -18 -21 -9 -3
-7 2 -16 -15 -19 -22 -10 -2
-6 2 -16 -15 -20 -22 -10 -2
-6 2 -15 -15 -21 -22 -10 -2
-5 2 -14 -15 -22 -22 -10 -2
-4 2 -14 -15 -23 -22 -10 -2
-3 3 -13 -15 -24 -23 -10 0
-3 2 -13 -16 -23 -23 -10 0
-4 1 -13 -16 -22 -23 -10 0
-5 -2 -14 -17 -21 -24 -10 0
-5 -3 -14 -18 -20 -24 -10 0
-6 -4 -15 -19 -19 -25 -10 -2
-7 -4 -15 -19 -20 -25 -10 -2
-7 -3 -15 -18 -20 -24 -10 -2
-8 -2 -14 -17 -21 -23 -9 0
-9 -2 -14 -17 -22 -23 -9 0
-10 0 -13 -16 -23 -22 -8 1
-10 0 -13 -16 -23 -23 -8 0
-10 0 -13 -17 -24 -24 -9 0
-9 0 -14 -18 -25 -25 -10 -2
-9 0 -14 -18 -25 -26 -10 -3
-8 -2 -15 -19 -26 -27 -11 -4
-9 -3 -14 -19 -26 -27 -11 -4
-10 -3 -14 -19 -26 -27 -11 -4
-11 -4 -13 -19 -26 -27 -11 -4
-12 -5 -12 -19 -26 -27 -11 -4
-13 -6 -11 -19 -25 -26 -10 -4
-13 -6 -11 -19 -25 -26 -10 -4
-12 -6 -11 -19 -26 -26 -10 -4
-11 -5 -11 -19 -27 -26 -9 -3
-11 -5 -11 -19 -27 -26 -9 -3
-10 -4 -11 -18 -28 -25 -8 -2
-10 -5 -11 -19 -28 -25 -8 -2
-10 -5 -11 -20 -28 -25 -9 -2
-10 -6 -11 -21 -28 -25 -10 -2
-10 -7 -11 -22 -28 -25 -10 -2
-10 -8 -12 -23 -29 -26 -11 -2
-11 -8 -12 -23 -29 -27 -11 -3
-13 -9 -12 -23 -30 -28 -11 -4
-14 -10 -12 -23 -31 -29 -11 -5
-16 -10 -12 -23 -31 -30 -11 -6
-17 -11 -12 -24 -32 -31 -12 -7
-16 -11 -12 -24 -32 -31 -12 -7
-16 -10 -12 -24 -32 -31 -12 -7
-15 -9 -11 -24 -32 -31 -12 -7
-14 -9 -11 -24 -32 -31 -12 -7
-13 -8 -10 -23 -31 -30 -12 -6
-13 -8 -10 -23 -31 -30 -12 -6
-13 -8 -10 -23 -31 -30 -12 -6
-13 -8 -10 -23 -31 -30 -12 -5
-13 -8 -10 -23 -31 -30 -12 -5
-12 -8 -10 -24 -31 -30 -12 -4
-12 -8 -10 -24 -31 -30 -12 -4
-11 -8 -10 -23 -32 -30 -12 -4
-10 -8 -9 -22 -33 -30 -12 -5
-10 -8 -9 -22 -33 -30 -12 -5
-9 -7 -8 -21 -34 -30 -11 -6
-9 -7 -8 -21 -34 -30 -11 -6
-10 -7 -8 -21 -34 -30 -11 -6
-11 -7 -9 -22 -34 -30 -11 -7
-11 -7 -9 -22 -34 -30 -11 -7
-12 -8 -10 -23 -33 -30 -12 -8
-12 -8 -10 -23 -33 -30 -12 -7
-12 -8 -9 -23 -33 -29 -12 -7
-12 -8 -8 -22 -33 -28 -12 -6
-12 -8 -8 -22 -33 -28 -12 -5
-12 -9 -7 -21 -32 -27 -11 -4
-12 -6 -6 -20 -31 -26 -10 -3
-12 -4 -4 -19 -30 -26 -9 -3
-13 0 -3 -17 -28 -25 -8 -2
-13 2 0 -16 -27 -24 -7 0
-14 4 1 -15 -26 -23 -6 1
-14 4 1 -15 -26 -23 -6 0
-14 4 1 -15 -26 -23 -6 -2
-14 4 1 -16 -27 -23 -6 -3
-14 4 1 -16 -27 -23 -6 -4
-14 3 2 -17 -28 -24 -6 -5
-14 3 2 -16 -26 -23 -6 -4
-14 4 3 -15 -25 -23 -6 -3
-13 5 4 -14 -23 -22 -6 0
-13 5 4 -13 -22 -21 -6 1
-12 7 5 -12 -20 -20 -5 2
-12 10 4 -13 -20 -19 -3 3
-12 13 3 -14 -20 -18 -2 4
-11 16 2 -16 -20 -16 1 6
-11 19 1 -17 -20 -15 2 7
-10 22 0 -18 -20 -14 4 8
-8 23 -2 -18 -20 -14 5 9
-6 23 -4 -18 -20 -14 5 9
-4 24 -5 -19 -21 -14 6 10
-2 25 -7 -19 -21 -14 7 11
1 26 -8 -20 -22 -14 8 12
2 26 -9 -21 -23 -14 7 11
4 26 -9 -22 -23 -15 7 10
5 26 -10 -24 -24 -16 6 9
7 26 -11 -25 -25 -16 5 8
8 27 -12 -26 -26 -17 4 7
5 24 -14 -26 -27 -17 4 7
2 22 -16 -27 -27 -18 4 7
0 19 -18 -28 -28 -19 3 7
-4 17 -19 -28 -29 -19 3 7
-6 15 -21 -29 -30 -20 2 7
-6 13 -20 -29 -30 -21 1 6
-6 12 -20 -30 -31 -21 1 6
-6 10 -19 -31 -32 -22 0 5
-6 9 -18 -31 -32 -23 -2 4
-6 7 -17 -32 -33 -24 -3 3
-9 5 -17 -31 -33 -25 -3 3
-11 3 -16 -30 -34 -26 -4 3
-14 1 -15 -29 -35 -27 -5 3
-16 -2 -15 -28 -35 -28 -5 3
-18 -4 -14 -27 -36 -29 -6 2
-18 -4 -13 -27 -36 -29 -6 1
-18 -5 -12 -27 -35 -29 -7 1
-17 -6 -10 -27 -34 -29 -8 0
-17 -6 -9 -27 -34 -29 -8 -2
-16 -7 -8 -27 -33 -28 -9 -3
-16 -8 -8 -27 -34 -29 -9 -4
-16 -10 -8 -27 -35 -29 -10 -6
-17 -11 -8 -27 -36 -30 -11 -7
-17 -13 -8 -27 -37 -31 -11 -9
-18 -14 -9 -26 -38 -32 -12 -10
-17 -14 -9 -26 -38 -33 -13 -11
-17 -14 -9 -26 -39 -34 -14 -12
-16 -14 -9 -27 -40 -35 -15 -13
-15 -14 -9 -27 -40 -36 -16 -14
-14 -15 -10 -28 -41 -37 -17 -15
-15 -15 -9 -28 -41 -37 -17 -14
-16 -15 -9 -28 -40 -36 -16 -14
-18 -15 -8 -27 -39 -35 -15 -13
-19 -15 -7 -27 -39 -35 -15 -12
-20 -16 -6 -26 -38 -34 -14 -11
-20 -16 -6 -26 -38 -34 -14 -11
-20 -16 -6 -26 -38 -34 -14 -11
-19 -16 -6 -27 -39 -34 -15 -12
-19 -16 -6 -27 -39 -34 -15 -12
-18 -16 -7 -28 -40 -34 -16 -13
-18 -16 -7 -28 -40 -34 -16 -13
-18 -15 -7 -27 -40 -34 -16 -13
-18 -15 -7 -27 -40 -34 -16 -13
-18 -14 -7 -26 -40 -34 -16 -13
-18 -13 -6 -24 -38 -33 -16 -12
-16 -14 -3 -19 -32 -32 -16 -14
-14 -16 0 -14 -27 -32 -17 -15
-12 -17 2 -10 -22 -31 -17 -17
-10 -19 5 -5 -16 -30 -18 -18
-8 -20 9 7 -5 -26 -18 -20
-8 -18 18 32 18 -13 -15 -19
-9 -16 27 57 40 0 -12 -18
-9 -15 36 81 63 13 -9 -17
-10 -13 45 107 86 25 -6 -15
-8 -8 55 134 115 47 5 -11
3 5 65 165 159 86 29 2
14 16 75 197 202 125 54 13
25 27 86 229 246 163 78 24
35 39 96 260 289 202 103 36
46 58 98 262 310 239 134 55
54 90 78 197 275 269 177 91
62 122 60 132 241 299 220 127
69 155 42 66 206 328 263 162
77 188 22 1 173 358 306 197
80 211 7 -61 135 377 337 223
68 205 -4 -113 90 364 334 224
57 200 -13 -165 46 351 331 225
45 195 -22 -217 1 339 328 226
33 190 -31 -269 -44 326 325 228
22 176 -38 -302 -87 290 304 218
13 139 -37 -285 -127 200 238 179
4 102 -36 -269 -165 110 172 140
-6 65 -35 -253 -204 21 106 101
-15 28 -34 -237 -244 -69 39 62
-22 -2 -33 -219 -266 -132 -10 31
-22 -15 -34 -196 -243 -129 -21 17
-23 -29 -34 -174 -220 -124 -32 4
-23 -43 -35 -151 -197 -121 -44 -10
-24 -57 -36 -129 -175 -117 -55 -23
-25 -67 -35 -108 -153 -111 -62 -33
-25 -66 -28 -93 -135 -101 -58 -34
-25 -65 -21 -76 -117 -90 -54 -34
-26 -64 -13 -61 -99 -79 -50 -35
-26 -63 -6 -45 -80 -68 -46 -36
-27 -61 1 -33 -66 -59 -43 -37
-25 -54 1 -30 -59 -55 -39 -34
-23 -48 1 -27 -53 -51 -37 -31
-21 -40 1 -24 -47 -47 -35 -28
-19 -34 1 -21 -40 -41 -32 -25
-17 -29 1 -18 -34 -38 -30 -23
-16 -27 3 -13 -29 -35 -28 -22
-14 -26 4 -8 -25 -33 -26 -22
-13 -24 6 -3 -20 -30 -25 -21
-11 -23 7 3 -15 -27 -23 -20
-10 -21 9 7 -11 -25 -21 -19
-10 -21 10 8 -10 -24 -21 -19
-10 -21 10 8 -9 -23 -21 -19
-11 -22 11 9 -8 -22 -21 -19
-11 -22 12 10 -7 -21 -21 -19
-12 -23 13 11 -6 -20 -21 -20
-13 -23 12 13 -6 -20 -21 -20
-13 -23 12 14 -6 -20 -21 -20
-14 -23 11 16 -5 -20 -21 -20
-15 -23 10 17 -5 -20 -21 -20
-16 -22 9 19 -4 -20 -21 -20
-16 -22 9 19 -3 -19 -21 -20
-16 -22 10 19 -3 -19 -20 -20
-16 -22 10 19 -2 -18 -20 -20
-16 -22 11 19 0 -17 -19 -20
-16 -23 12 19 1 -16 -18 -20
-15 -22 12 21 2 -16 -18 -19
-15 -21 11 22 4 -15 -18 -19
-14 -20 11 24 5 -15 -18 -18
-13 -19 10 25 6 -14 -18 -17
-12 -18 9 27 8 -13 -17 -16
-13 -18 10 27 8 -12 -17 -16
-13 -18 11 27 9 -11 -17 -16
-14 -18 12 28 9 -10 -17 -15
-15 -18 13 28 10 -8 -17 -15
-16 -19 14 29 11 -7 -17 -14
-15 -19 14 30 12 -7 -16 -14
-15 -19 14 31 13 -7 -16 -14
-14 -19 14 32 14 -6 -15 -14
-13 -19 14 34 15 -6 -14 -14
-12 -18 13 35 16 -5 -13 -14
-11 -18 13 35 17 -4 -13 -14
-10 -17 12 35 19 -4 -13 -14
-9 -17 12 35 20 -3 -13 -15
-7 -16 11 35 21 -2 -13 -15
-6 -15 10 36 23 0 -14 -16
-6 -15 11 38 25 1 -14 -16
-6 -15 11 40 27 2 -14 -16
-6 -15 12 42 29 3 -13 -16
-6 -15 13 44 31 4 -13 -16
-6 -14 14 46 33 5 -12 -15
-6 -14 14 47 33 6 -12 -15
-6 -14 14 47 33 8 -12 -15
-7 -14 14 48 34 9 -12 -15
-7 -14 14 49 34 10 -12 -15
-8 -14 13 50 35 12 -11 -15
-7 -14 13 53 38 14 -10 -14
-5 -14 13 55 43 16 -8 -13
-4 -13 13 58 46 17 -6 -12
-3 -13 13 61 49 19 -5 -11
0 -12 13 63 52 21 -3 -10
0 -12 13 64 53 21 -3 -10
0 -12 13 65 54 21 -3 -10
0 -11 13 66 55 21 -3 -10
0 -11 13 68 56 21 -3 -10
0 -10 14 69 57 22 -4 -10
1 -10 14 70 60 24 -4 -10
2 -10 13 72 63 26 -3 -10
3 -10 12 73 66 27 -3 -10
4 -10 11 74 68 29 -2 -10
5 -9 10 76 71 31 0 -11
6 -9 10 78 72 32 0 -11
8 -9 10 81 73 34 1 -11
9 -9 10 84 74 35 2 -10
10 -9 10 87 76 36 3 -10
12 -8 11 89 77 38 4 -9
12 -8 11 91 80 40 4 -8
12 -8 11 93 84 43 5 -7
12 -8 11 96 87 44 6 -6
12 -8 11 98 90 46 7 -4
12 -8 10 100 93 48 8 -3
14 -8 10 100 93 48 8 -3
16 -7 9 100 94 48 7 -3
17 -7 9 101 94 49 7 -3
19 -6 8 101 95 49 6 -3
21 -5 7 102 96 50 5 -4
21 -5 7 103 96 50 5 -4
22 -4 6 104 96 50 5 -4
22 -4 6 105 96 50 5 -4
23 -3 5 107 96 50 5 -4
24 -2 4 108 95 49 6 -4
24 -2 4 107 95 49 6 -4
24 -2 3 105 95 49 6 -3
24 -3 2 104 94 48 6 -3
24 -3 1 103 94 48 6 -2
25 -4 0 101 93 47 5 0
25 -5 0 101 90 45 4 -2
25 -6 0 100 88 42 3 -3
25 -7 -2 99 85 39 2 -4
25 -9 -2 98 82 36 1 -5
25 -10 -3 97 79 34 0 -6
25 -10 -3 94 77 33 0 -6
25 -9 -4 91 75 31 -2 -6
25 -8 -5 88 72 30 -2 -6
25 -7 -6 85 70 29 -3 -6
26 -6 -7 81 68 27 -4 -5
25 -6 -7 79 66 26 -4 -5
24 -6 -7 77 65 24 -4 -5
23 -6 -8 75 63 23 -5 -5
22 -6 -8 73 61 22 -5 -5
21 -6 -9 71 59 20 -6 -4
21 -6 -9 68 56 19 -6 -4
21 -6 -9 65 53 18 -6 -4
21 -5 -9 63 51 17 -7 -4
21 -5 -9 60 48 15 -7 -4
20 -4 -9 57 45 14 -8 -3
17 -3 -9 54 42 14 -7 -3
15 -2 -8 52 38 14 -6 -2
12 0 -7 49 36 14 -5 -2
10 2 -6 47 33 14 -3 0
7 3 -5 44 30 14 -2 1
7 3 -5 39 28 14 -2 1
7 3 -5 36 27 13 -2 1
7 4 -5 33 25 12 -2 1
7 4 -5 29 23 11 -2 1
7 5 -4 26 21 10 -3 0
6 5 -4 25 17 8 -3 0
5 5 -4 23 14 7 -3 0
4 5 -4 21 11 5 -3 0
3 5 -4 20 7 3 -3 0
2 4 -4 18 4 1 -3 0
1 4 -4 15 2 1 -3 0
0 4 -4 12 -2 1 -3 0
-2 4 -3 8 -4 1 -3 -2
-4 4 -3 5 -7 1 -3 -2
-5 5 -2 2 -9 0 -4 -3
-5 5 -2 2 -10 -2 -4 -3
-5 5 -2 1 -11 -3 -5 -3
-5 5 -3 1 -12 -4 -5 -3
-5 5 -3 0 -13 -6 -6 -3
-6 5 -4 -2 -14 -7 -7 -3
-6 4 -4 -3 -15 -8 -7 -3
-7 3 -4 -5 -17 -9 -7 -3
-7 2 -4 -6 -18 -10 -8 -4
-8 0 -4 -7 -19 -12 -8 -4
-9 -2 -3 -9 -21 -13 -9 -5
-9 -2 -3 -9 -21 -14 -9 -5
-8 -2 -3 -9 -22 -15 -10 -6
-8 -2 -3 -9 -22 -16 -10 -7
-7 -2 -3 -9 -23 -17 -11 -8
-6 -2 -2 -9 -24 -18 -12 -9
-6 -2 -2 -9 -24 -18 -12 -9
-7 -2 -2 -8 -24 -18 -12 -9
-8 -2 -2 -8 -23 -17 -12 -9
-9 -2 -2 -7 -23 -17 -12 -9
-10 -3 0 -6 -22 -16 -11 -8
-10 -3 0 -6 -22 -16 -11 -8
-10 -3 0 -6 -22 -16 -11 -8
-11 -3 -2 -7 -21 -16 -11 -8
-11 -3 -2 -7 -21 -16 -11 -8
-12 -4 -3 -8 -20 -16 -10 -7
-12 -4 -2 -7 -20 -16 -10 -7
-11 -4 0 -6 -19 -16 -10 -7
-11 -4 1 -5 -18 -15 -10 -8
-10 -4 2 -4 -17 -15 -10 -8
-9 -4 3 -3 -16 -14 -10 -9
-9 -3 3 -3 -16 -14 -10 -9
-8 -2 3 -3 -16 -14 -10 -9
-8 0 2 -2 -16 -13 -10 -8
-7 1 2 -2 -16 -13 -10 -8
-6 2 1 0 -17 -12 -10 -7
-6 1 1 0 -16 -11 -10 -7
-7 0 1 1 -14 -10 -9 -7
-7 -2 1 1 -13 -9 -8 -7
-8 -3 1 2 -12 -8 -7 -7
-9 -4 0 3 -10 -7 -6 -6
-9 -4 0 4 -10 -7 -6 -6
-9 -4 1 5 -9 -7 -6 -6
-9 -3 1 6 -9 -7 -6 -6
-9 -3 2 7 -8 -7 -6 -6
-8 -2 3 8 -7 -7 -6 -5
-8 -2 3 8 -7 -7 -6 -5
-8 -2 2 8 -7 -7 -6 -5
-8 -2 2 7 -7 -7 -6 -5
-8 -2 1 7 -7 -7 -6 -5
-8 -2 0 6 -8 -7 -6 -6
-7 1 0 6 -8 -7 -6 -6
-5 3 0 6 -8 -7 -6 -6
-4 5 -2 6 -7 -7 -6 -6
-3 7 -2 6 -7 -7 -6 -6
0 9 -3 6 -6 -8 -5 -6
-3 7 -3 6 -6 -8 -5 -6
-4 6 -2 6 -7 -8 -5 -5
-6 4 -2 6 -7 -8 -5 -5
-8 2 0 6 -8 -8 -5 -4
-10 0 1 6 -9 -7 -6 -3
-8 1 1 6 -9 -7 -6 -3
-7 2 1 7 -9 -7 -6 -3
-5 3 2 7 -9 -7 -6 -3
-3 4 2 8 -9 -7 -6 -3
0 5 3 9 -10 -7 -6 -3
0 5 3 8 -10 -7 -6 -3
0 5 2 7 -10 -8 -6 -4
1 5 2 5 -10 -8 -6 -4
1 5 1 4 -10 -9 -6 -5
2 5 0 2 -11 -10 -7 -6
0 4 0 2 -11 -10 -7 -6
-2 3 0 2 -11 -10 -7 -6
-4 2 -2 2 -12 -10 -7 -6
-6 1 -2 2 -12 -10 -7 -6
-8 -2 -3 1 -13 -10 -6 -5
-8 -2 -3 1 -13 -10 -6 -5
-9 -2 -2 1 -13 -10 -6 -5
-10 -2 -2 1 -13 -10 -6 -5
-11 -2 0 1 -13 -10 -6 -5
-12 0 1 0 -14 -10 -7 -4
-11 0 1 0 -14 -10 -7 -4
-10 0 1 -2 -14 -11 -7 -4
-9 0 1 -2 -15 -11 -7 -4
-8 0 1 -3 -15 -12 -7 -4
-6 1 0 -4 -16 -13 -7 -5
-5 1 0 -4 -16 -13 -7 -5
-4 1 0 -5 -17 -14 -7 -5
-3 2 0 -5 -18 -14 -8 -5
-2 2 0 -6 -19 -15 -8 -5
0 3 -2 -7 -20 -16 -9 -6
0 3 -2 -7 -20 -16 -9 -6
-2 3 -2 -7 -21 -17 -9 -6
-3 3 -2 -7 -22 -17 -9 -6
-4 3 -2 -7 -23 -18 -9 -6
-5 3 -2 -8 -24 -19 -10 -6
-5 3 -2 -8 -24 -18 -10 -6
-5 2 -2 -8 -24 -17 -10 -6
-4 1 0 -8 -23 -16 -10 -6
-4 0 0 -8 -23 -15 -10 -6
-3 -2 1 -7 -22 -14 -10 -6
-3 -2 1 -7 -22 -15 -10 -6
-4 -2 1 -7 -23 -16 -10 -6
-5 0 1 -8 -24 -18 -10 -7
-6 0 1 -8 -25 -19 -10 -7
-7 1 0 -9 -26 -21 -10 -8
-7 1 0 -9 -26 -21 -10 -8
-6 1 0 -9 -26 -21 -11 -8
-5 1 0 -10 -26 -21 -11 -8
-4 1 0 -10 -26 -21 -12 -8
-3 1 -2 -11 -27 -21 -13 -9
-3 1 -2 -11 -27 -21 -13 -9
-3 0 -2 -11 -27 -21 -12 -9
-2 -2 -2 -11 -26 -20 -12 -9
-2 -3 -2 -11 -26 -20 -11 -9
0 -4 -3 -10 -25 -19 -10 -8
-2 -4 -3 -10 -25 -19 -10 -8
-4 -4 -3 -10 -25 -19 -11 -8
-5 -4 -2 -10 -25 -19 -11 -8
-7 -4 -2 -10 -25 -19 -12 -8
-9 -4 0 -11 -24 -19 -13 -7
-8 -4 0 -11 -25 -19 -13 -7
-7 -3 0 -11 -26 -19 -13 -6
-6 -3 1 -11 -27 -20 -13 -6
-5 -2 1 -11 -28 -20 -13 -5
-4 0 2 -11 -29 -21 -13 -4
-4 0 2 -11 -29 -21 -13 -4
-4 0 2 -11 -29 -22 -13 -4
-4 0 2 -11 -28 -23 -14 -4
-4 0 2 -11 -28 -24 -14 -4
-5 1 2 -12 -27 -25 -15 -5
-5 1 2 -12 -27 -25 -15 -5
-4 0 2 -12 -27 -25 -15 -5
-4 0 1 -13 -27 -24 -15 -5
-3 -2 1 -13 -27 -24 -15 -5
-2 -3 0 -14 -28 -23 -15 -5
-3 -3 0 -14 -28 -23 -15 -5
-4 -3 0 -14 -28 -23 -15 -5
-5 -3 0 -14 -29 -23 -15 -5
-6 -3 0 -14 -29 -23 -15 -5
-8 -2 0 -14 -30 -24 -15 -6
-8 -2 0 -14 -30 -24 -15 -6
-8 -2 0 -15 -30 -25 -16 -6
-8 -2 -2 -16 -30 -26 -17 -6
-8 -2 -2 -17 -30 -27 -18 -6
-7 -3 -3 -18 -31 -28 -19 -7
-8 -4 -3 -18 -31 -28 -19 -7
-9 -5 -2 -18 -31 -27 -19 -7
-10 -6 -2 -18 -31 -26 -19 -7
-11 -7 0 -18 -31 -25 -19 -7
-12 -8 1 -18 -32 -24 -19 -8
-11 -7 1 -18 -32 -24 -19 -8
-10 -6 1 -17 -32 -24 -18 -8
-8 -4 0 -17 -32 -24 -18 -7
-7 -3 0 -16 -32 -24 -17 -7
-5 0 -2 -15 -31 -23 -16 -6
-5 0 -2 -15 -30 -23 -16 -6
-5 0 -2 -15 -29 -23 -16 -6
-5 0 0 -14 -28 -22 -16 -6
-5 0 0 -14 -27 -22 -16 -6
-6 1 1 -13 -26 -21 -16 -6
-6 3 2 -12 -26 -21 -15 -5
-5 5 3 -11 -25 -21 -14 -4
-5 7 4 -9 -25 -20 -13 -3
-4 9 5 -8 -24 -20 -12 -2
-3 11 7 -6 -23 -19 -10 1
-3 11 8 -6 -23 -18 -10 1
-3 11 9 -6 -22 -17 -10 1
-4 12 10 -6 -22 -16 -10 2
-4 12 11 -6 -21 -15 -10 2
-5 13 13 -7 -20 -13 -9 3
-4 15 13 -7 -20 -13 -8 3
-3 17 13 -7 -20 -12 -7 3
0 20 13 -7 -19 -12 -6 3
1 22 13 -7 -19 -11 -5 3
3 25 14 -7 -18 -10 -4 4
4 26 12 -8 -18 -10 -4 4
5 27 9 -9 -18 -10 -4 4
6 28 7 -10 -17 -10 -5 5
7 29 4 -11 -17 -10 -5 5
9 31 1 -12 -16 -11 -6 6
9 31 0 -12 -16 -11 -5 7
8 30 -2 -13 -17 -10 -4 8
7 30 -3 -14 -18 -10 -3 9
6 29 -4 -15 -19 -9 -2 10
5 28 -6 -16 -20 -8 0 12
5 28 -6 -16 -20 -8 0 12
5 28 -6 -16 -21 -9 -2 11
6 28 -7 -16 -22 -9 -2 11
6 28 -7 -16 -23 -10 -3 10
7 27 -8 -17 -24 -11 -4 9
7 26 -9 -18 -25 -12 -5 9
7 25 -10 -20 -26 -13 -6 8
6 24 -11 -22 -27 -15 -7 8
6 23 -12 -24 -28 -16 -8 7
5 21 -13 -26 -30 -18 -10 6
5 20 -13 -26 -30 -18 -10 6
5 19 -13 -26 -30 -19 -11 5
5 18 -12 -26 -30 -20 -11 4
5 17 -12 -26 -30 -21 -12 3
5 15 -11 -26 -31 -22 -13 2
1 14 -9 -26 -31 -22 -13 2
-4 12 -7 -25 -31 -22 -13 2
-8 10 -5 -25 -31 -22 -12 2
-12 8 -3 -24 -31 -22 -12 2
-16 6 0 -23 -31 -22 -11 2
-16 5 0 -23 -31 -22 -11 1
-15 4 0 -23 -30 -22 -12 0
-15 3 0 -22 -30 -21 -13 -2
-14 2 0 -22 -29 -21 -14 -3
-13 0 0 -21 -28 -20 -15 -4
-13 -2 0 -21 -30 -22 -16 -4
-13 -4 -2 -21 -32 -24 -18 -5
-12 -5 -2 -22 -34 -27 -19 -6
-12 -7 -3 -22 -36 -29 -21 -7
-11 -9 -4 -23 -38 -32 -23 -8
-11 -9 -4 -24 -38 -32 -23 -8
-11 -9 -4 -25 -38 -32 -23 -9
-10 -10 -5 -26 -38 -31 -23 -10
-10 -10 -5 -27 -38 -31 -23 -11
-9 -11 -6 -28 -39 -30 -24 -12
-9 -11 -6 -28 -39 -30 -24 -12
-10 -10 -6 -27 -39 -30 -24 -12
-10 -10 -6 -26 -38 -30 -23 -12
-11 -9 -6 -25 -38 -30 -23 -12
-12 -8 -6 -24 -37 -30 -22 -11
-12 -8 -6 -24 -37 -30 -22 -11
-11 -9 -5 -24 -37 -30 -22 -11
-10 -9 -4 -24 -36 -30 -22 -11
-9 -10 -3 -24 -36 -30 -22 -11
-8 -11 -2 -23 -35 -29 -22 -10
-8 -11 -2 -23 -35 -29 -22 -10
-8 -10 0 -22 -34 -29 -22 -10
-8 -9 1 -22 -34 -28 -22 -10
-8 -8 2 -21 -33 -28 -22 -10
-8 -8 2 -21 -33 -28 -22 -10
-8 -8 8 -4 -19 -22 -21 -12
-8 -10 14 13 -5 -16 -21 -14
-9 -11 20 29 10 -10 -21 -16
-9 -13 26 46 24 -4 -21 -18
-9 -14 31 62 37 2 -21 -20
-4 -8 43 99 75 25 -11 -16
4 0 54 136 113 49 2 -11
10 7 64 173 151 71 14 -5
17 14 75 209 188 95 26 1
23 21 86 245 226 117 37 6
37 42 87 239 241 156 71 28
51 63 87 232 256 195 105 50
64 84 86 224 270 233 138 71
77 104 86 217 284 272 172 94
91 125 86 210 299 311 205 115
90 149 59 106 239 328 242 149
87 174 31 1 178 345 279 184
85 198 5 -104 117 361 315 218
81 223 -23 -208 56 379 352 252
79 247 -50 -314 -6 395 389 286
70 210 -51 -313 -33 335 335 251
62 171 -50 -310 -60 271 278 213
54 131 -49 -306 -87 207 221 175
46 91 -48 -303 -113 145 164 137
37 51 -47 -300 -140 81 108 98
28 32 -46 -280 -157 38 75 76
20 15 -47 -260 -175 -5 45 55
12 -4 -48 -240 -192 -48 13 33
4 -21 -49 -220 -210 -91 -19 12
-5 -39 -50 -200 -227 -133 -51 -10
-8 -44 -48 -178 -204 -124 -53 -16
-10 -48 -44 -156 -179 -112 -54 -21
-12 -52 -39 -134 -154 -101 -55 -27
-14 -56 -35 -111 -130 -90 -56 -32
-16 -60 -31 -89 -104 -78 -57 -37
-17 -56 -24 -74 -89 -69 -53 -36
-17 -50 -17 -60 -73 -60 -48 -33
-17 -44 -10 -47 -58 -51 -41 -30
-17 -37 -3 -32 -43 -43 -36 -27
-17 -31 5 -18 -27 -33 -31 -24
-17 -28 6 -16 -24 -31 -29 -23
-16 -25 6 -14 -21 -29 -28 -22
-15 -22 6 -12 -18 -27 -27 -21
-14 -19 6 -10 -15 -25 -26 -20
-14 -16 6 -8 -13 -24 -25 -19
-13 -15 7 -5 -10 -23 -24 -18
-14 -15 8 -3 -8 -23 -24 -18
-14 -15 10 1 -6 -22 -24 -18
-15 -15 11 3 -4 -22 -24 -18
-15 -15 12 5 -2 -22 -24 -18
-16 -16 13 7 0 -20 -24 -19
-15 -15 13 8 1 -19 -23 -18
-15 -14 13 10 2 -17 -22 -17
-14 -13 13 11 3 -16 -21 -16
-14 -13 13 12 4 -15 -21 -16
-13 -12 12 13 5 -14 -20 -15
-13 -13 13 13 5 -14 -20 -15
-13 -13 13 14 6 -14 -20 -15
-13 -14 14 14 6 -14 -20 -15
-13 -14 14 14 6 -14 -20 -15
-13 -15 15 15 7 -14 -20 -16
-11 -15 15 15 7 -14 -20 -17
-9 -14 15 15 7 -14 -20 -17
-7 -14 15 15 7 -14 -20 -18
-6 -14 15 15 7 -14 -20 -18
-5 -13 16 16 9 -12 -20 -19
-5 -12 16 17 12 -11 -20 -18
-5 -12 16 19 15 -9 -19 -18
-5 -11 16 20 18 -8 -19 -17
-5 -11 16 21 20 -7 -19 -17
-5 -10 17 22 21 -6 -18 -16
-4 -10 17 23 21 -5 -17 -16
-4 -10 16 24 20 -5 -17 -16
-3 -10 16 25 20 -4 -16 -16
-3 -10 16 25 20 -4 -16 -16
-2 -9 15 27 21 -2 -15 -16
-3 -8 16 28 25 0 -15 -15
-4 -8 17 29 28 2 -15 -14
-5 -7 18 30 31 3 -15 -13
-5 -7 19 31 34 4 -15 -13
-6 -6 20 32 35 6 -14 -12
-5 -6 20 32 35 7 -13 -12
-4 -6 20 33 35 8 -12 -12
-3 -6 20 33 35 9 -11 -12
-2 -6 20 33 35 10 -10 -12
0 -7 20 35 35 11 -9 -12
0 -7 20 36 37 10 -10 -12
0 -7 20 38 38 9 -10 -12
0 -7 20 39 40 8 -11 -12
0 -7 20 40 42 8 -11 -12
0 -6 19 43 44 9 -11 -13
-2 -6 19 44 45 12 -9 -12
-3 -6 18 45 46 14 -7 -11
-4 -6 18 46 47 17 -5 -10
-5 -6 18 47 48 19 -4 -10
-6 -7 17 50 51 20 -3 -9
-5 -7 17 52 54 20 -3 -9
-4 -7 17 55 57 20 -3 -9
-3 -7 17 58 60 20 -3 -9
-3 -7 17 60 63 20 -3 -9
-2 -8 16 62 64 22 -4 -10
0 -7 16 64 64 23 -3 -10
1 -7 16 66 64 24 -2 -9
2 -6 16 68 64 25 0 -9
2 -6 16 69 64 26 0 -9
4 -5 15 71 67 28 1 -8
5 -5 15 73 69 29 2 -8
7 -4 15 75 72 30 3 -7
8 -4 15 77 75 31 4 -7
9 -4 15 79 77 32 4 -7
12 -2 16 80 79 34 5 -6
14 0 15 81 80 35 5 -6
16 2 14 82 82 36 6 -6
19 3 13 84 84 37 6 -6
21 4 12 85 85 38 6 -6
22 5 11 87 87 39 7 -5
22 5 11 89 89 40 7 -5
22 6 10 91 91 42 7 -5
22 6 10 93 93 43 7 -5
22 6 10 95 94 44 7 -5
23 7 9 97 95 45 8 -5
23 7 9 98 95 46 8 -5
23 6 8 99 95 46 9 -4
23 6 8 100 95 47 9 -4
23 6 8 101 95 47 9 -4
23 5 6 102 96 47 9 -3
24 4 4 101 96 45 8 -3
25 3 2 100 96 44 7 -3
26 2 0 99 96 42 6 -3
27 2 -2 98 96 40 5 -3
28 1 -3 97 95 39 4 -4
27 2 -3 97 93 38 5 -3
27 3 -2 96 91 38 5 -3
26 4 -2 96 89 37 6 -2
26 4 -2 96 87 37 6 -2
26 5 0 94 86 35 7 0
27 5 -2 92 85 34 6 0
28 5 -3 90 84 32 5 0
29 5 -4 89 82 31 4 0
30 5 -5 87 81 30 3 0
31 6 -6 84 77 28 2 -2
30 6 -6 80 74 26 2 -2
29 6 -6 77 71 24 2 -2
28 6 -6 74 67 22 2 -2
28 6 -6 71 64 20 2 -2
27 6 -7 68 62 19 2 0
26 6 -7 66 61 19 2 0
25 6 -7 64 60 18 2 0
24 6 -7 61 59 18 2 0
23 6 -7 59 58 18 2 0
22 7 -6 55 55 17 2 0
22 8 -6 51 52 17 3 1
22 8 -6 47 49 16 4 2
22 9 -6 43 46 16 5 3
22 9 -6 38 43 16 5 3
21 10 -7 36 40 14 6 4
20 11 -7 35 38 13 6 3
20 11 -7 33 36 11 6 2
19 12 -7 31 35 10 6 1
19 12 -7 30 33 9 6 0
17 13 -6 26 30 8 5 0
16 13 -6 22 27 8 6 1
14 13 -5 17 23 8 7 2
13 13 -5 13 20 8 8 3
12 13 -5 9 17 8 8 4
11 12 -4 7 15 8 9 4
10 12 -3 6 14 6 8 3
10 13 -3 4 12 4 7 2
9 13 -2 2 10 3 6 1
9 13 -2 1 9 1 5 0
7 13 0 -3 6 -2 4 -2
6 12 -2 -5 4 -3 3 -3
5 11 -3 -8 2 -4 3 -3
4 10 -4 -11 -2 -5 2 -4
3 9 -5 -13 -4 -6 2 -4
2 8 -6 -14 -5 -7 1 -5
1 7 -6 -14 -5 -8 1 -5
0 6 -5 -14 -4 -9 1 -5
-2 5 -5 -14 -4 -10 1 -5
-2 5 -5 -14 -4 -10 1 -5
-3 4 -4 -14 -4 -11 1 -4
-3 5 -3 -15 -5 -12 1 -4
-3 6 -3 -16 -6 -12 0 -4
-3 7 -2 -17 -8 -13 0 -4
-3 7 -2 -18 -9 -13 0 -4
-3 7 0 -19 -10 -14 -2 -5
-4 6 -2 -20 -10 -15 -3 -6
-5 5 -2 -20 -11 -16 -3 -6
-6 3 -3 -21 -11 -17 -4 -7
-7 2 -3 -21 -11 -18 -4 -7
-8 1 -4 -22 -12 -19 -5 -8
-7 1 -5 -22 -12 -18 -5 -8
-7 1 -5 -22 -12 -18 -5 -8
-6 1 -6 -22 -12 -17 -5 -8
-6 1 -6 -22 -12 -17 -5 -8
-5 1 -7 -23 -10 -16 -5 -8
-4 1 -6 -22 -9 -16 -5 -8
-4 1 -6 -21 -8 -16 -5 -9
-3 1 -5 -20 -7 -16 -5 -9
-3 1 -5 -19 -6 -16 -5 -9
-2 2 -4 -18 -5 -16 -5 -10
-2 2 -4 -18 -6 -16 -5 -10
-2 3 -5 -18 -6 -16 -5 -10
-2 3 -5 -18 -7 -16 -5 -10
-2 3 -5 -18 -7 -16 -5 -10
0 4 -6 -18 -8 -15 -5 -9
-2 2 -6 -17 -7 -15 -5 -9
-3 1 -6 -16 -6 -16 -5 -10
-4 0 -6 -15 -5 -16 -5 -10
-5 -2 -6 -15 -5 -16 -5 -10
-6 -2 -5 -14 -4 -17 -6 -11
-6 2 -5 -14 -4 -16 -6 -11
-5 4 -5 -14 -4 -15 -6 -11
-5 7 -5 -14 -4 -14 -6 -11
-5 9 -5 -14 -4 -14 -6 -11
-3 10 -6 -14 -3 -13 -5 -10
-2 9 -7 -13 -3 -13 -5 -10
0 9 -7 -13 -3 -13 -5 -10
2 8 -8 -12 -3 -13 -5 -10
3 8 -8 -12 -3 -13 -5 -10
3 7 -9 -11 -2 -14 -6 -10
2 7 -8 -11 -3 -13 -5 -9
0 7 -7 -11 -3 -13 -5 -9
-3 7 -6 -11 -4 -12 -4 -8
-4 7 -6 -11 -4 -12 -4 -8
-5 6 -5 -10 -4 -11 -3 -7
-4 6 -5 -10 -3 -11 -3 -7
-4 6 -5 -9 -2 -11 -2 -7
-3 6 -5 -9 1 -11 -2 -7
-3 6 -5 -9 2 -11 -2 -7
-2 6 -5 -8 3 -10 0 -7
-4 5 -5 -9 2 -10 0 -7
-5 4 -5 -9 1 -10 0 -7
-6 3 -5 -10 0 -10 0 -7
-7 3 -5 -10 0 -10 0 -7
-8 2 -6 -11 -2 -9 -2 -8
-7 2 -7 -11 -2 -10 -2 -8
-6 2 -8 -11 -2 -11 -3 -8
-5 2 -9 -11 -2 -12 -3 -8
-4 2 -9 -11 -2 -12 -3 -8
-2 4 -10 -12 -2 -13 -4 -9
0 6 -10 -12 -3 -13 -3 -9
1 8 -10 -13 -3 -13 -2 -8
3 9 -10 -13 -4 -13 0 -8
4 11 -10 -13 -4 -13 0 -8
4 11 -9 -14 -5 -13 0 -7
3 9 -9 -15 -6 -15 -2 -7
2 7 -8 -16 -6 -16 -4 -8
0 6 -8 -17 -7 -17 -6 -8
-2 4 -8 -18 -7 -18 -7 -8
-3 3 -7 -19 -9 -19 -8 -9
-3 3 -7 -21 -10 -19 -8 -9
-2 3 -7 -22 -11 -19 -8 -9
-2 3 -7 -23 -13 -19 -8 -9
-2 3 -7 -24 -14 -19 -8 -9
1 3 -7 -25 -15 -20 -7 -9
3 5 -5 -24 -13 -19 -6 -9
5 6 -4 -24 -12 -18 -5 -9
6 7 -3 -23 -11 -17 -4 -9
8 8 -2 -23 -10 -17 -4 -9
8 9 0 -22 -9 -16 -3 -9
6 8 0 -22 -10 -16 -3 -8
3 7 0 -22 -11 -16 -3 -7
1 6 0 -22 -12 -16 -3 -6
-2 6 0 -22 -13 -16 -3 -6
-3 5 -2 -23 -14 -16 -4 -5
-3 5 -2 -23 -15 -18 -5 -6
-3 4 -2 -23 -16 -19 -6 -7
-3 4 -2 -23 -17 -20 -7 -8
-3 4 -2 -23 -17 -21 -7 -8
-3 3 -3 -25 -18 -22 -8 -9
-4 3 -3 -26 -19 -22 -8 -9
-5 3 -3 -27 -20 -22 -8 -9
-6 3 -3 -29 -21 -22 -8 -9
-6 3 -3 -30 -21 -22 -8 -9
-7 2 -4 -31 -22 -23 -7 -10
-6 3 -3 -30 -21 -22 -7 -9
-6 3 -3 -30 -20 -21 -7 -8
-5 4 -2 -29 -19 -20 -7 -7
-5 4 -2 -29 -18 -20 -7 -7
-3 5 0 -28 -17 -19 -6 -6
0 5 -2 -28 -18 -20 -7 -6
1 5 -3 -28 -18 -21 -7 -7
3 5 -4 -28 -19 -22 -8 -7
5 5 -4 -28 -19 -22 -8 -7
5 6 -5 -28 -20 -23 -9 -8
4 5 -5 -28 -20 -24 -9 -9
2 4 -4 -28 -20 -24 -9 -9
0 3 -4 -28 -20 -25 -9 -10
-2 2 -4 -28 -20 -25 -9 -10
-3 1 -3 -28 -21 -26 -9 -11
-2 1 -3 -28 -22 -25 -9 -10
0 1 -3 -28 -23 -25 -8 -9
1 1 -3 -28 -24 -24 -8 -8
2 1 -3 -28 -24 -24 -8 -8
2 2 -3 -27 -25 -23 -7 -7
1 1 -3 -27 -25 -23 -7 -7
0 0 -3 -27 -25 -23 -7 -7
-3 -2 -3 -27 -25 -23 -7 -7
-4 -2 -3 -27 -25 -23 -7 -7
-5 -3 -2 -28 -25 -24 -8 -8
-5 -3 -2 -28 -25 -24 -8 -8
-6 -2 -2 -29 -25 -24 -9 -8
-6 -2 -2 -29 -25 -24 -9 -8
-6 -2 -2 -29 -25 -24 -9 -8
-7 0 -2 -30 -25 -25 -10 -9
-7 0 -2 -29 -25 -25 -10 -9
-6 0 -2 -29 -25 -25 -10 -9
-6 0 -2 -28 -25 -25 -10 -9
-6 0 -2 -28 -25 -25 -10 -9
-5 0 -2 -27 -26 -25 -10 -9
-4 0 -2 -28 -26 -25 -10 -9
-4 0 -2 -28 -27 -26 -10 -9
-3 0 -2 -29 -27 -26 -10 -9
-3 0 -2 -29 -27 -26 -10 -9
-2 -2 -2 -29 -28 -27 -10 -9
0 -2 -2 -27 -28 -27 -10 -10
1 0 -2 -26 -28 -27 -11 -10
2 0 -2 -24 -28 -27 -11 -11
3 0 -2 -22 -28 -27 -11 -11
3 1 -2 -21 -27 -27 -12 -11
1 1 0 -20 -27 -26 -10 -9
0 2 1 -19 -27 -26 -9 -8
-3 2 1 -18 -27 -25 -8 -6
-5 2 2 -17 -27 -25 -7 -4
-6 4 3 -16 -26 -24 -6 -3
-4 5 5 -15 -25 -23 -6 -3
-3 7 6 -14 -23 -22 -6 -3
-2 8 7 -13 -22 -22 -6 -3
0 10 8 -12 -20 -21 -6 -3
1 11 9 -11 -19 -20 -5 -3
-2 13 9 -9 -19 -19 -5 -3
-3 14 10 -8 -18 -19 -5 -3
-4 15 10 -7 -18 -18 -5 -3
-5 16 10 -6 -18 -18 -5 -3
-6 17 11 -5 -17 -17 -4 -4
-5 18 11 -6 -17 -17 -3 -3
-4 19 11 -7 -17 -16 -3 -3
-3 20 11 -8 -17 -16 -2 -2
-2 21 11 -9 -17 -16 -2 -2
0 22 10 -10 -18 -15 0 0
0 24 7 -11 -18 -15 1 1
0 25 4 -12 -18 -15 1 2
0 26 2 -13 -18 -15 2 2
0 27 -2 -14 -18 -15 2 3
2 28 -3 -15 -17 -15 3 4
4 29 -4 -16 -18 -15 3 4
5 29 -5 -17 -18 -15 3 5
7 30 -5 -17 -19 -15 3 5
9 30 -6 -18 -19 -15 3 5
10 31 -7 -19 -20 -16 4 6
10 30 -8 -19 -20 -15 5 6
9 30 -9 -19 -20 -14 6 7
9 29 -9 -19 -20 -14 6 7
9 29 -10 -19 -20 -13 7 7
8 28 -11 -19 -22 -13 7 8
8 26 -12 -21 -23 -14 5 7
8 25 -12 -22 -25 -16 4 6
8 23 -13 -24 -26 -17 2 6
8 22 -13 -25 -28 -19 0 5
6 20 -14 -26 -29 -20 -2 4
4 19 -13 -26 -29 -20 -2 4
3 17 -13 -26 -29 -20 -2 4
1 16 -12 -26 -29 -20 -2 4
-2 14 -12 -26 -29 -20 -2 4
-3 12 -10 -25 -29 -21 -3 3
-3 10 -8 -24 -29 -21 -4 1
-2 8 -6 -23 -29 -22 -5 0
-2 6 -4 -22 -29 -22 -6 -2
-2 4 -2 -21 -29 -22 -7 -3
0 3 0 -20 -29 -23 -8 -4
0 2 0 -20 -29 -23 -8 -4
0 2 0 -20 -29 -23 -8 -5
0 1 0 -20 -29 -23 -8 -5
0 1 0 -20 -29 -23 -8 -5
-2 -2 -2 -20 -31 -24 -9 -7
-4 -5 -3 -21 -33 -26 -11 -9
-5 -7 -3 -23 -34 -27 -13 -11
-7 -9 -4 -24 -36 -28 -15 -13
-8 -12 -4 -26 -38 -29 -17 -15
-9 -13 -5 -27 -39 -30 -18 -16
-11 -13 -5 -25 -37 -30 -17 -14
-12 -13 -5 -24 -36 -29 -16 -13
-14 -13 -5 -22 -35 -29 -15 -12
-15 -13 -5 -21 -34 -29 -14 -11
-16 -14 -4 -20 -33 -28 -13 -10
-15 -14 -3 -21 -33 -28 -13 -11
-14 -14 -3 -21 -34 -29 -14 -12
-13 -14 -2 -22 -34 -29 -14 -12
-12 -14 -2 -22 -34 -29 -14 -13
-11 -15 0 -23 -35 -30 -15 -14
-11 -14 0 -23 -35 -30 -15 -14
-11 -13 0 -23 -35 -30 -15 -14
-11 -12 0 -23 -35 -30 -15 -14
-11 -11 0 -23 -35 -30 -15 -14
-12 -11 0 -24 -36 -31 -14 -13
-14 -13 0 -24 -36 -31 -15 -14
-15 -15 0 -23 -36 -31 -16 -15
-17 -17 0 -23 -36 -31 -16 -15
-18 -19 0 -23 -36 -31 -17 -16
-18 -20 4 -12 -27 -29 -18 -17
-17 -20 10 6 -14 -23 -18 -18
-15 -20 17 22 0 -18 -18 -19
-14 -20 23 38 14 -13 -18 -20
-12 -20 29 55 27 -7 -18 -21
-7 -15 39 85 58 12 -11 -19
1 -9 50 119 97 36 3 -13
7 -3 61 155 135 62 16 -8
14 4 71 190 174 87 28 -3
20 10 82 226 213 111 42 4
29 25 87 236 237 147 69 20
40 45 87 233 255 187 104 43
51 63 87 230 271 226 138 65
61 82 87 227 288 266 173 87
71 101 87 224 306 306 206 109
74 125 70 154 269 328 241 139
71 150 46 52 204 343 277 173
69 177 21 -50 139 356 312 206
66 202 -4 -152 74 370 347 240
63 228 -28 -255 9 384 383 274
55 212 -36 -287 -30 346 357 261
43 173 -35 -283 -57 280 298 222
30 134 -33 -279 -83 214 239 182
18 96 -31 -276 -109 148 181 143
7 57 -29 -272 -136 82 121 104
-3 31 -28 -258 -155 34 82 77
-11 13 -29 -238 -172 -5 53 57
-18 -6 -30 -220 -188 -44 24 36
-26 -24 -30 -200 -204 -82 -5 16
-33 -43 -31 -181 -221 -120 -34 -5
-36 -52 -32 -162 -213 -129 -46 -15
-36 -56 -30 -144 -189 -118 -48 -21
-35 -60 -29 -126 -166 -107 -50 -27
-35 -64 -27 -107 -143 -97 -52 -33
-35 -68 -26 -89 -119 -87 -54 -38
-33 -69 -21 -74 -103 -78 -53 -40
-32 -67 -15 -63 -91 -72 -49 -39
-30 -65 -9 -52 -77 -65 -45 -37
-29 -63 -3 -40 -65 -58 -41 -36
-27 -61 4 -29 -52 -52 -37 -34
-26 -58 7 -24 -45 -48 -34 -32
-26 -53 7 -21 -40 -45 -32 -31
-25 -48 7 -19 -36 -43 -30 -29
-25 -44 7 -16 -33 -39 -28 -28
-25 -38 7 -13 -29 -36 -26 -26
-24 -36 7 -11 -26 -35 -25 -25
-24 -35 8 -8 -23 -34 -25 -25
-24 -34 10 -6 -20 -33 -25 -25
-24 -34 12 -3 -17 -33 -25 -25
-24 -33 14 1 -15 -32 -25 -25
-25 -32 15 2 -13 -31 -25 -25
-25 -32 15 2 -13 -31 -24 -24
-24 -32 14 1 -13 -30 -23 -23
-24 -32 14 1 -13 -29 -23 -23
-24 -32 14 1 -13 -29 -22 -22
-23 -31 13 1 -13 -28 -21 -21
-24 -31 13 2 -11 -27 -21 -21
-25 -31 13 4 -8 -26 -20 -21
-26 -31 13 5 -6 -25 -20 -21
-27 -31 13 7 -3 -24 -20 -21
-28 -32 12 8 -2 -23 -19 -21
-28 -32 12 8 -2 -22 -19 -21
-27 -31 12 9 -2 -21 -18 -21
-26 -31 12 10 -2 -21 -18 -21
-26 -31 12 10 -2 -20 -18 -21
-24 -30 11 11 -2 -19 -17 -21
-23 -30 12 12 -2 -18 -17 -21
-21 -30 13 13 -2 -17 -18 -22
-19 -30 14 14 -2 -17 -18 -22
-17 -30 15 15 -2 -16 -18 -22
-16 -30 16 16 0 -15 -19 -23
-17 -30 15 16 1 -15 -19 -23
-18 -30 14 17 2 -14 -18 -22
-19 -30 13 17 3 -13 -17 -22
-20 -30 12 17 4 -13 -17 -22
-21 -30 11 18 6 -12 -16 -21
-21 -30 12 19 8 -10 -16 -21
-22 -30 14 21 11 -9 -15 -21
-22 -30 15 22 13 -7 -14 -21
-22 -30 16 23 16 -6 -14 -21
-23 -30 16 24 17 -5 -13 -20
-23 -30 15 24 17 -5 -13 -20
-24 -30 13 24 16 -6 -14 -21
-24 -30 11 24 16 -7 -14 -21
-24 -30 9 24 16 -7 -14 -21
-25 -31 8 23 15 -8 -15 -22
-24 -31 8 24 16 -8 -15 -22
-23 -32 9 25 17 -7 -14 -22
-23 -33 10 25 18 -6 -14 -22
-22 -33 10 26 19 -6 -14 -22
-21 -34 11 28 21 -4 -13 -21
-20 -33 11 29 23 -3 -13 -21
-19 -32 10 31 26 0 -12 -20
-19 -32 9 33 28 2 -12 -19
-18 -31 9 35 31 4 -12 -19
-17 -30 8 36 33 5 -11 -18
-17 -30 8 38 36 7 -10 -18
-17 -29 9 40 38 8 -9 -17
-17 -29 9 42 42 10 -8 -17
-17 -29 9 44 44 11 -7 -17
-18 -28 10 45 46 12 -6 -16
-16 -28 10 45 46 14 -5 -16
-15 -28 9 46 47 15 -3 -15
-13 -28 8 47 47 17 -2 -14
-12 -28 8 47 47 18 0 -14
-12 -27 7 48 50 19 1 -13
-13 -28 7 50 53 20 1 -13
-15 -29 6 52 56 21 1 -12
-17 -29 6 53 60 22 1 -12
-19 -30 6 55 63 23 1 -12
-19 -30 5 56 65 25 1 -11
-16 -29 5 58 65 27 2 -11
-14 -27 4 60 66 29 3 -11
-11 -25 4 61 67 31 4 -11
-9 -23 4 63 67 34 5 -11
-7 -22 3 64 69 35 6 -12
-7 -22 2 64 70 35 6 -12
-6 -22 1 65 72 35 6 -12
-5 -22 1 66 74 35 6 -12
-5 -22 0 66 76 35 6 -12
-3 -23 -2 67 77 35 5 -11
0 -23 -2 69 79 37 7 -9
2 -22 -2 71 81 39 8 -7
4 -22 -2 72 82 42 10 -6
7 -22 -2 74 85 44 11 -4
10 -19 -3 75 86 45 12 -3
14 -15 -3 75 86 45 12 -3
18 -11 -2 76 86 44 12 -3
22 -6 -2 77 86 44 12 -3
26 -2 -2 77 86 44 12 -3
28 1 0 78 87 43 13 -2
29 2 -2 76 86 43 13 -2
30 3 -3 75 85 44 14 0
31 3 -4 74 85 44 15 0
32 4 -5 72 84 44 15 0
33 5 -6 71 82 44 16 1
34 5 -6 70 81 42 15 1
35 5 -5 69 80 39 14 2
35 5 -5 68 80 37 14 3
36 5 -5 67 79 35 13 3
37 4 -4 65 76 34 12 4
36 4 -5 62 73 33 12 4
35 4 -6 60 69 32 11 4
34 4 -7 57 66 31 10 4
33 4 -8 55 62 30 10 4
32 4 -9 52 60 29 9 4
32 4 -9 49 59 28 9 4
33 4 -9 47 58 26 8 3
34 4 -9 44 58 25 7 3
34 4 -9 42 57 24 7 3
35 5 -10 39 54 23 6 2
34 7 -9 38 51 23 7 3
32 8 -8 36 47 23 8 4
31 9 -7 35 44 23 9 5
30 11 -6 34 39 23 10 6
29 12 -5 32 36 21 11 7
29 12 -5 29 33 19 11 7
28 12 -5 25 31 17 11 6
27 12 -5 22 28 15 11 6
27 12 -5 19 26 13 11 6
25 13 -5 17 23 12 11 5
23 13 -5 15 20 12 12 5
20 14 -5 13 18 12 13 6
18 15 -5 11 15 12 13 6
16 15 -5 9 13 12 14 6
14 16 -5 8 11 11 15 7
12 16 -4 6 9 9 13 6
11 15 -3 4 7 6 11 4
10 14 -2 3 6 4 10 3
8 14 0 1 4 2 8 2
7 13 1 -2 2 0 7 1
7 13 1 -4 -3 -3 7 1
7 13 1 -6 -6 -5 6 1
7 13 1 -8 -10 -6 5 1
7 13 1 -10 -13 -8 5 1
7 13 1 -11 -15 -9 4 1
7 13 1 -11 -15 -9 4 0
6 12 1 -12 -15 -10 3 -2
6 11 1 -12 -15 -11 3 -3
6 11 1 -12 -15 -11 3 -4
5 10 2 -13 -16 -12 2 -5
5 10 2 -15 -18 -13 2 -5
4 10 2 -16 -20 -14 2 -4
4 10 2 -17 -21 -14 2 -4
4 10 2 -19 -23 -15 2 -4
3 9 3 -20 -24 -16 2 -3
1 9 3 -18 -22 -16 2 -3
-2 8 4 -17 -21 -15 2 -3
-3 8 5 -16 -20 -15 2 -3
-5 8 5 -14 -18 -15 2 -3
-6 7 6 -13 -17 -14 2 -2
-6 7 6 -13 -18 -14 2 -2
-5 6 5 -13 -20 -15 1 -3
-5 6 4 -13 -21 -15 1 -3
-5 6 4 -13 -22 -15 1 -3
-4 5 3 -13 -23 -16 0 -4
-4 5 3 -13 -22 -16 0 -4
-4 4 3 -14 -21 -16 0 -4
-4 4 3 -14 -20 -16 0 -4
-4 4 3 -14 -19 -16 0 -4
-5 3 2 -15 -18 -15 -2 -4
-4 4 2 -15 -18 -15 -2 -4
-2 5 2 -14 -18 -15 -2 -5
0 6 2 -14 -18 -15 -2 -5
1 7 2 -14 -18 -15 -2 -5
2 8 1 -13 -18 -15 0 -6
1 7 1 -13 -16 -15 0 -6
-2 5 2 -12 -15 -15 0 -6
-3 4 3 -12 -14 -15 0 -6
-4 3 3 -12 -12 -15 0 -6
-5 2 4 -11 -11 -14 -2 -5
-5 2 4 -11 -11 -13 -2 -5
-6 1 4 -10 -11 -12 0 -4
-6 1 4 -10 -11 -12 0 -3
-6 1 4 -10 -11 -11 0 -3
-7 0 3 -9 -11 -10 1 -2
-6 0 3 -9 -11 -10 1 -2
-5 1 4 -9 -12 -10 1 -3
-5 1 4 -9 -12 -10 1 -3
-4 1 4 -9 -12 -10 1 -3
-3 2 5 -8 -13 -11 1 -4
-2 3 5 -8 -13 -11 1 -4
-2 4 4 -8 -13 -11 1 -4
0 5 3 -8 -12 -11 1 -4
1 6 3 -8 -12 -11 1 -4
2 7 2 -9 -11 -11 0 -4
1 7 2 -9 -11 -11 0 -4
0 7 2 -9 -11 -11 0 -4
-2 6 2 -8 -11 -11 -2 -4
-3 6 2 -8 -11 -11 -2 -4
-4 5 1 -7 -10 -11 -3 -4
-4 5 1 -7 -10 -11 0 -3
-4 5 1 -7 -10 -11 1 -2
-4 4 0 -7 -11 -11 3 0
-4 4 0 -7 -11 -11 5 1
-4 3 -2 -8 -12 -10 6 2
-4 3 -2 -8 -13 -11 4 1
-4 3 -2 -8 -14 -12 2 0
-3 4 -2 -8 -15 -13 0 -3
-3 4 -2 -8 -16 -14 -3 -4
-2 5 0 -7 -17 -15 -4 -5
-2 5 0 -7 -17 -15 -4 -4
0 5 0 -7 -17 -15 -3 -3
1 6 -2 -8 -17 -15 -2 -2
1 6 -2 -8 -17 -15 -2 0
2 7 -3 -9 -18 -14 0 1
1 7 -3 -9 -18 -14 0 0
1 6 -3 -10 -18 -14 0 0
0 5 -2 -11 -18 -15 -2 -2
-2 5 -2 -11 -18 -15 -2 -3
-3 4 0 -12 -18 -16 -3 -4
-3 4 0 -13 -19 -17 -3 -4
-3 4 0 -13 -20 -17 -3 -4
-3 4 -2 -14 -22 -18 -4 -4
-3 4 -2 -15 -23 -19 -4 -4
-3 3 -3 -16 -24 -20 -5 -3
-4 3 -3 -15 -23 -20 -5 -3
-5 3 -3 -15 -23 -19 -5 -3
-7 3 -2 -14 -22 -18 -5 -3
-8 3 -2 -13 -21 -18 -5 -3
-9 2 0 -12 -20 -17 -4 -2
-8 2 -2 -13 -22 -19 -4 -2
-7 2 -3 -14 -24 -21 -5 -2
-5 2 -4 -15 -26 -23 -6 -2
-4 2 -5 -16 -28 -25 -6 -2
-3 1 -6 -17 -30 -26 -7 -3
-3 1 -6 -17 -30 -26 -8 -5
-3 1 -6 -18 -30 -26 -8 -6
-3 0 -5 -19 -30 -27 -9 -8
-3 0 -5 -19 -30 -27 -10 -10
-2 -2 -4 -20 -29 -28 -11 -11
-4 -2 -4 -20 -29 -27 -11 -9
-5 -2 -4 -20 -30 -27 -11 -8
-7 -3 -4 -20 -31 -26 -10 -6
-9 -3 -4 -20 -31 -25 -10 -4
-10 -4 -4 -21 -32 -24 -9 -3
-9 -5 -4 -21 -32 -24 -9 -3
-9 -5 -4 -21 -32 -25 -9 -4
-8 -6 -5 -21 -32 -26 -9 -5
-7 -7 -5 -21 -32 -26 -9 -5
-6 -8 -6 -21 -31 -27 -10 -6
-6 -5 -6 -21 -31 -27 -10 -6
-5 -3 -5 -21 -32 -26 -9 -6
-4 0 -4 -21 -33 -25 -8 -6
-4 2 -4 -21 -33 -25 -8 -6
-3 3 -3 -20 -34 -24 -7 -5
-5 1 -4 -20 -34 -24 -8 -5
-6 -2 -4 -20 -34 -25 -9 -6
-7 -5 -5 -21 -34 -26 -11 -7
-9 -7 -6 -21 -34 -26 -12 -7
-10 -9 -7 -22 -34 -27 -13 -8
-10 -7 -6 -21 -34 -27 -13 -7
-10 -6 -6 -21 -34 -26 -12 -7
-9 -4 -5 -20 -34 -25 -11 -6
-9 -2 -4 -19 -34 -25 -11 -5
-8 0 -3 -18 -33 -24 -10 -4
-8 0 -3 -19 -33 -24 -10 -4
-7 0 -3 -20 -33 -24 -10 -4
-6 0 -4 -22 -33 -24 -10 -4
-6 0 -4 -23 -33 -24 -10 -4
-5 -2 -5 -24 -32 -24 -9 -5
-5 -3 -5 -24 -33 -24 -9 -5
-5 -3 -5 -24 -34 -24 -9 -5
-6 -4 -6 -24 -35 -24 -9 -6
-6 -5 -6 -24 -36 -24 -9 -6
-7 -6 -7 -25 -37 -25 -10 -7
-8 -6 -7 -25 -37 -25 -10 -7
-9 -7 -7 -24 -37 -25 -11 -7
-11 -8 -7 -23 -36 -26 -12 -8
-12 -8 -7 -23 -36 -26 -12 -8
-13 -9 -6 -22 -35 -27 -13 -9
-12 -8 -6 -22 -35 -26 -13 -8
-11 -7 -5 -22 -35 -25 -13 -8
-10 -6 -4 -23 -35 -24 -13 -7
-9 -5 -4 -23 -35 -23 -13 -6
-8 -4 -3 -24 -36 -22 -12 -5
-8 0 -2 -23 -34 -22 -11 -5
-8 2 0 -22 -32 -22 -10 -5
-8 4 1 -20 -30 -21 -8 -4
-8 6 2 -19 -28 -21 -7 -4
-7 8 3 -18 -26 -20 -6 -3
-6 9 3 -18 -26 -20 -6 -3
-5 10 3 -18 -27 -19 -6 -3
-4 11 3 -17 -28 -18 -6 -3
-3 12 3 -17 -28 -18 -6 -3
-2 13 3 -16 -29 -17 -6 -2
-4 13 3 -16 -29 -17 -6 -2
-5 12 3 -16 -29 -17 -6 -2
-7 11 3 -16 -28 -18 -6 -2
-9 11 3 -16 -28 -18 -6 -2
-10 11 4 -16 -27 -19 -7 0
-7 13 1 -19 -27 -18 -6 1
-5 16 -2 -21 -27 -17 -4 3
-3 19 -5 -23 -27 -16 -3 4
0 22 -7 -25 -27 -15 0 6
2 24 -9 -27 -26 -14 1 7
2 25 -9 -27 -26 -13 2 8
2 25 -9 -26 -26 -13 3 8
1 26 -10 -25 -25 -12 4 9
1 27 -10 -25 -25 -11 5 10
0 28 -11 -24 -24 -10 6 11
0 28 -12 -25 -24 -10 6 11
-2 27 -12 -27 -25 -11 6 11
-3 26 -13 -28 -26 -12 6 11
-3 26 -14 -30 -26 -12 6 11
-4 25 -15 -31 -27 -13 6 11
-3 23 -16 -31 -29 -15 3 10
-2 21 -17 -32 -31 -17 1 9
1 19 -19 -33 -33 -19 -2 7
2 18 -20 -33 -34 -21 -4 6
3 16 -21 -34 -36 -23 -6 5
2 15 -20 -34 -37 -23 -6 5
1 14 -19 -34 -38 -23 -6 5
-2 13 -18 -34 -40 -23 -6 4
-3 12 -17 -34 -41 -23 -6 4
-4 10 -16 -33 -43 -24 -6 3
-5 7 -15 -32 -43 -24 -7 2
-7 4 -14 -32 -41 -24 -8 1
-8 1 -12 -31 -40 -25 -9 0
-10 -3 -11 -30 -40 -25 -10 -2
-11 -5 -10 -29 -39 -26 -11 -3
-9 -5 -9 -28 -39 -26 -11 -3
-7 -5 -9 -27 -39 -26 -11 -4
-5 -5 -8 -25 -38 -26 -11 -5
-3 -5 -7 -24 -38 -26 -11 -5
0 -5 -6 -23 -37 -27 -12 -6
-4 -7 -6 -25 -38 -28 -13 -8
-6 -9 -7 -26 -38 -29 -15 -9
-8 -11 -8 -28 -39 -31 -16 -11
-10 -13 -8 -30 -40 -32 -18 -13
-12 -15 -9 -31 -41 -33 -19 -14
-12 -15 -9 -30 -41 -33 -19 -14
-13 -16 -9 -29 -41 -33 -19 -14
-14 -17 -9 -28 -40 -33 -20 -13
-14 -17 -9 -27 -40 -33 -20 -13
-15 -18 -8 -26 -39 -32 -21 -12
-15 -18 -8 -26 -39 -32 -21 -12
-15 -18 -8 -26 -39 -32 -21 -12
-15 -19 -8 -26 -39 -32 -21 -12
-15 -19 -8 -26 -39 -32 -21 -12
-15 -20 -7 -25 -39 -33 -20 -12
-14 -20 -7 -25 -39 -33 -20 -12
-13 -19 -7 -25 -39 -33 -20 -12
-12 -18 -6 -25 -38 -32 -20 -12
-11 -18 -6 -25 -38 -32 -20 -12
-10 -17 -5 -26 -37 -31 -20 -12
-10 -17 -5 -23 -35 -31 -20 -12
-10 -16 -5 -20 -34 -31 -20 -12
-9 -15 -5 -18 -32 -31 -19 -12
-9 -15 -5 -15 -31 -31 -19 -12
