I II V1 V2 V3 V4 V5 V6
-7 0 7 8 -7 -17 -19 -17
-8 0 7 9 -6 -16 -18 -16
-10 -2 8 10 -4 -15 -16 -14
-12 -3 9 11 -3 -13 -14 -12
-14 -4 10 12 0 -12 -12 -10
-15 -4 11 13 1 -11 -11 -9
-15 -5 11 13 1 -11 -11 -10
-13 -4 10 11 -2 -13 -13 -12
-11 -4 9 10 -3 -14 -14 -14
-9 -3 8 8 -5 -16 -16 -16
-8 -3 7 7 -6 -17 -17 -18
-7 -2 6 6 -7 -18 -18 -19
-8 -3 6 6 -7 -18 -17 -18
-8 -4 7 7 -7 -17 -17 -17
-9 -5 7 7 -7 -17 -16 -16
-9 -6 7 7 -7 -17 -16 -15
-10 -7 8 8 -6 -15 -15 -14
-10 -7 9 8 -6 -14 -14 -14
-10 -7 10 8 -6 -13 -13 -14
-10 -7 11 8 -6 -12 -12 -14
-10 -7 11 8 -6 -11 -11 -14
-10 -6 12 7 -5 -10 -10 -13
-11 -6 12 7 -4 -10 -11 -13
-11 -6 11 8 -4 -11 -11 -13
-12 -6 11 8 -3 -11 -12 -13
-12 -6 11 8 -3 -11 -12 -13
-13 -7 10 9 -3 -12 -13 -13
-13 -6 9 8 -4 -13 -14 -14
-13 -5 9 7 -5 -14 -15 -16
-13 -4 8 6 -6 -15 -16 -17
-13 -4 8 5 -7 -16 -17 -18
-12 -3 7 4 -8 -17 -17 -19
-11 -4 8 5 -7 -16 -16 -18
-10 -5 9 6 -6 -16 -15 -17
-9 -6 10 7 -5 -15 -14 -16
-8 -7 10 8 -4 -15 -13 -16
-7 -6 11 9 -3 -14 -12 -15
-7 -4 11 9 -3 -14 -12 -15
-7 -2 11 9 -3 -13 -11 -15
-7 1 11 9 -3 -13 -11 -15
-7 3 11 9 -3 -13 -11 -15
-6 4 12 9 -2 -11 -9 -13
-6 4 13 10 0 -9 -7 -11
-6 4 14 11 1 -7 -6 -9
-6 4 15 12 2 -5 -4 -7
-6 4 16 13 3 -3 -3 -6
-5 7 17 14 4 -2 -2 -5
-5 10 17 15 5 -2 -2 -6
-4 12 18 16 6 -3 -3 -7
-4 15 18 17 7 -3 -3 -8
-4 17 18 17 7 -3 -3 -8
-2 18 17 17 8 -4 -4 -9
0 18 15 16 8 -4 -4 -9
2 18 12 15 8 -4 -5 -9
3 18 10 14 8 -4 -5 -9
4 18 8 13 8 -4 -5 -9
5 18 7 13 8 -4 -4 -8
5 19 8 14 8 -3 -2 -6
5 19 8 16 8 -3 1 -4
5 20 9 17 8 -2 3 -2
5 20 9 18 8 -2 5 1
5 22 10 19 10 0 6 2
6 23 10 20 11 1 6 2
7 24 9 20 13 2 6 2
8 25 9 21 14 3 6 2
9 26 9 21 15 4 6 2
10 25 8 21 16 5 6 2
9 22 7 20 15 4 5 1
9 19 7 19 14 3 4 0
8 16 6 18 13 2 3 -2
8 13 6 17 13 2 2 -2
7 12 5 15 10 0 0 -4
6 12 5 13 8 -3 -2 -6
5 12 4 12 6 -5 -4 -7
4 12 4 10 4 -7 -5 -9
4 12 4 9 2 -8 -6 -10
1 8 3 8 1 -9 -7 -11
-3 4 3 7 1 -10 -7 -11
-5 0 3 6 1 -10 -7 -11
-8 -4 3 5 1 -11 -7 -11
-10 -8 3 5 1 -11 -7 -11
-11 -9 3 4 0 -12 -8 -11
-10 -9 3 3 -3 -13 -10 -13
-9 -8 3 2 -4 -14 -12 -15
-8 -8 3 1 -6 -15 -14 -17
-8 -8 3 0 -7 -16 -15 -19
-7 -7 2 -2 -8 -17 -15 -19
-8 -8 3 -2 -8 -17 -14 -18
-9 -8 3 -2 -7 -17 -13 -16
-10 -9 4 -2 -7 -17 -12 -15
-10 -9 4 -2 -7 -17 -11 -14
-11 -10 5 -2 -6 -16 -10 -13
-11 -11 5 -3 -7 -16 -11 -14
-10 -11 5 -3 -7 -16 -12 -15
-10 -12 5 -4 -8 -16 -13 -16
-10 -12 5 -4 -8 -16 -14 -17
-10 -13 4 -5 -9 -17 -15 -17
-11 -13 4 -5 -9 -17 -15 -16
-13 -13 4 -5 -9 -18 -15 -14
-14 -13 4 -5 -9 -18 -15 -13
-15 -13 4 -5 -9 -18 -15 -12
-16 -12 4 -6 -9 -19 -15 -11
-16 -11 4 -6 -9 -18 -15 -11
-16 -11 5 -5 -8 -17 -14 -11
-16 -10 5 -5 -8 -16 -14 -11
-16 -10 5 -5 -8 -16 -14 -11
-16 -9 6 -4 -7 -15 -13 -10
-15 -10 6 -5 -7 -15 -14 -11
-15 -11 5 -5 -7 -15 -14 -12
-14 -12 5 -6 -7 -15 -15 -13
-14 -12 5 -6 -7 -15 -15 -13
-12 -14 6 1 -6 -16 -16 -15
-11 -15 9 9 -4 -16 -17 -17
-10 -17 12 17 0 -16 -18 -19
-9 -18 14 25 3 -16 -19 -21
-8 -19 17 33 5 -16 -19 -23
-4 -16 21 44 15 -8 -16 -21
1 -11 26 55 26 0 -11 -18
5 -6 30 65 37 8 -7 -14
9 0 34 76 49 16 -2 -10
13 5 38 87 59 24 4 -7
22 19 33 79 62 37 21 11
32 33 26 68 64 52 39 30
42 48 19 57 66 66 58 49
52 63 12 46 68 79 76 67
62 77 5 34 70 94 95 87
70 96 -9 7 71 108 116 112
77 114 -24 -22 71 123 140 138
86 133 -38 -51 70 138 162 164
94 151 -54 -79 70 153 185 191
102 170 -68 -108 70 168 207 218
95 165 -77 -134 52 153 196 214
86 158 -86 -160 31 135 179 205
75 151 -94 -186 12 115 161 197
66 143 -102 -212 -9 97 145 189
57 136 -110 -238 -28 77 128 180
34 112 -111 -249 -53 44 91 143
10 86 -110 -259 -77 9 52 103
-14 60 -109 -268 -102 -27 13 63
-37 34 -108 -277 -127 -63 -27 22
-62 8 -108 -286 -151 -99 -66 -18
-63 2 -105 -269 -146 -98 -70 -25
-60 -2 -102 -246 -136 -92 -68 -27
-57 -6 -99 -224 -126 -86 -66 -29
-55 -9 -97 -201 -115 -79 -64 -32
-52 -13 -94 -179 -105 -73 -62 -34
-47 -14 -83 -154 -94 -66 -57 -33
-40 -14 -72 -130 -81 -60 -52 -30
-34 -15 -61 -105 -70 -53 -48 -27
-29 -15 -50 -80 -59 -46 -43 -25
-23 -15 -38 -56 -48 -38 -37 -22
-21 -16 -32 -46 -41 -35 -34 -20
-20 -15 -27 -36 -36 -31 -32 -18
-19 -15 -22 -27 -32 -28 -29 -17
-18 -14 -16 -18 -27 -24 -26 -15
-17 -14 -11 -10 -22 -21 -24 -14
-16 -14 -9 -5 -20 -20 -23 -13
-16 -16 -6 0 -18 -19 -22 -13
-17 -18 -4 4 -16 -18 -22 -12
-17 -19 -2 8 -15 -17 -21 -12
-17 -21 1 12 -13 -17 -21 -12
-18 -21 2 14 -12 -16 -20 -11
-17 -20 2 15 -12 -16 -20 -11
-16 -18 2 17 -12 -16 -21 -12
-15 -17 2 19 -12 -16 -21 -12
-15 -16 2 20 -12 -16 -21 -12
-14 -15 1 22 -12 -15 -22 -13
-13 -16 1 24 -12 -15 -22 -13
-12 -17 1 26 -12 -15 -22 -13
-11 -18 1 27 -12 -15 -22 -13
-10 -18 1 29 -12 -15 -22 -13
-10 -19 2 31 -11 -14 -22 -13
-11 -18 2 32 -11 -14 -22 -13
-13 -17 2 33 -10 -13 -22 -13
-14 -16 2 34 -10 -13 -22 -13
-15 -16 2 35 -10 -13 -22 -13
-15 -15 2 37 -9 -12 -21 -13
-14 -15 2 39 -9 -12 -21 -13
-13 -15 2 42 -9 -12 -21 -13
-12 -15 2 43 -9 -12 -21 -13
-11 -15 2 45 -9 -12 -21 -13
-10 -14 1 46 -9 -13 -21 -13
-10 -14 2 45 -8 -12 -21 -12
-10 -15 2 44 -7 -11 -20 -11
-10 -15 3 43 -6 -10 -20 -10
-10 -15 3 42 -6 -9 -20 -10
-11 -16 4 40 -5 -8 -19 -9
-11 -16 4 40 -5 -8 -19 -9
-11 -15 3 39 -6 -8 -19 -9
-11 -15 3 39 -6 -8 -19 -9
-11 -15 3 39 -6 -8 -19 -9
-11 -14 2 38 -7 -9 -19 -8
-10 -14 2 38 -7 -8 -19 -8
-10 -14 2 38 -6 -8 -19 -8
-9 -14 2 38 -6 -7 -19 -8
-9 -14 2 38 -6 -7 -19 -8
-7 -15 2 39 -5 -6 -18 -7
-6 -15 2 39 -5 -6 -18 -7
-5 -15 1 40 -5 -6 -19 -7
-4 -15 1 40 -5 -6 -19 -7
-3 -15 1 40 -5 -6 -19 -7
-2 -15 0 42 -5 -7 -20 -8
-2 -14 -2 40 -6 -7 -21 -8
-3 -14 -3 40 -6 -8 -21 -9
-3 -13 -4 39 -7 -8 -22 -9
-3 -13 -5 39 -7 -8 -22 -9
-4 -13 -6 38 -8 -9 -23 -10
-3 -14 -6 38 -8 -9 -23 -10
-2 -15 -6 38 -8 -8 -23 -10
0 -16 -6 38 -8 -8 -23 -10
1 -17 -6 38 -8 -8 -23 -10
2 -17 -5 39 -8 -7 -23 -10
2 -16 -5 39 -8 -6 -22 -9
1 -14 -6 39 -8 -5 -21 -7
1 -12 -6 39 -8 -4 -20 -5
1 -11 -6 39 -8 -4 -20 -4
0 -11 -7 39 -7 -3 -19 -3
1 -12 -7 39 -7 -2 -19 -3
2 -13 -8 39 -7 -2 -19 -3
3 -15 -8 39 -7 0 -19 -3
4 -16 -8 39 -7 0 -19 -3
5 -17 -9 40 -7 1 -18 -4
6 -17 -10 39 -8 1 -18 -4
7 -16 -11 39 -8 1 -18 -3
8 -16 -12 38 -9 1 -18 -3
8 -16 -13 38 -9 1 -18 -3
9 -15 -14 37 -10 0 -18 -2
10 -15 -14 37 -10 0 -18 -2
10 -15 -14 37 -10 0 -17 -2
11 -15 -14 37 -10 0 -17 -2
11 -15 -14 37 -10 0 -17 -2
12 -14 -14 38 -10 1 -16 -2
13 -15 -15 38 -10 1 -15 0
14 -15 -15 38 -10 1 -15 1
15 -16 -16 38 -10 1 -14 2
15 -16 -16 38 -10 1 -14 2
16 -17 -18 37 -11 2 -13 3
18 -17 -19 36 -12 2 -13 3
19 -17 -21 35 -13 2 -13 3
20 -17 -23 34 -14 2 -13 3
21 -17 -24 33 -14 2 -13 3
23 -16 -25 32 -15 1 -14 3
26 -15 -27 30 -16 1 -14 3
28 -13 -28 29 -16 1 -14 3
31 -11 -29 28 -17 1 -14 3
33 -10 -30 27 -17 1 -14 3
34 -9 -31 26 -18 0 -15 4
35 -10 -31 26 -18 0 -15 5
36 -11 -31 26 -19 0 -14 5
37 -12 -31 26 -19 0 -14 6
37 -12 -31 26 -19 0 -14 6
38 -13 -32 25 -20 1 -13 7
38 -13 -34 25 -20 2 -11 9
38 -12 -35 25 -20 3 -10 10
38 -12 -36 25 -20 4 -9 11
38 -12 -37 25 -20 5 -8 12
39 -11 -38 25 -21 6 -7 13
39 -11 -38 25 -21 6 -7 11
40 -10 -38 25 -21 6 -8 10
40 -10 -38 25 -21 6 -8 9
40 -10 -38 25 -21 6 -8 8
42 -8 -38 24 -20 5 -9 7
40 -6 -37 24 -19 6 -8 9
40 -4 -36 24 -19 7 -7 10
39 -3 -35 24 -18 8 -6 11
39 0 -35 24 -18 8 -5 12
38 1 -34 24 -16 9 -4 13
37 1 -33 25 -15 10 -4 13
37 1 -33 26 -14 10 -4 14
36 1 -32 28 -12 11 -4 14
36 1 -32 29 -11 11 -4 14
33 0 -30 30 -10 12 -4 15
31 0 -29 31 -9 13 -4 15
28 0 -27 32 -8 13 -3 15
26 0 -25 33 -7 14 -3 15
23 0 -24 33 -7 14 -3 15
22 0 -23 34 -5 15 -2 16
22 0 -21 35 -3 16 0 17
22 0 -20 36 1 17 1 17
22 0 -19 37 3 18 2 18
22 0 -18 37 5 19 3 18
21 1 -16 38 6 20 4 19
18 1 -14 39 7 20 4 19
15 1 -13 40 8 20 4 18
11 1 -11 42 9 20 4 18
8 1 -9 42 9 20 4 18
6 1 -8 43 10 21 3 17
5 1 -6 43 10 20 1 15
3 1 -5 42 11 19 0 14
1 1 -4 42 11 18 -2 13
0 1 -3 42 11 17 -3 12
-2 2 -2 40 12 16 -4 11
-3 0 -2 40 11 16 -5 10
-3 -2 0 40 11 15 -5 10
-4 -3 0 40 10 15 -6 9
-4 -4 0 40 10 15 -6 9
-5 -5 1 39 9 14 -7 8
-6 -5 1 38 9 12 -8 7
-7 -5 1 37 9 11 -9 6
-8 -5 1 36 9 10 -10 5
-8 -5 1 36 9 9 -10 5
-9 -4 1 35 9 8 -11 4
-9 -4 1 34 9 8 -11 5
-9 -4 2 33 9 8 -10 6
-9 -4 2 32 9 8 -10 7
-9 -4 2 32 9 8 -10 7
-9 -3 3 31 8 9 -9 8
-9 -4 3 31 8 9 -9 7
-9 -5 3 30 7 8 -9 6
-9 -6 3 30 7 8 -9 5
-9 -7 3 30 7 8 -9 4
-10 -8 2 29 6 7 -8 3
-10 -8 2 28 6 7 -9 3
-9 -7 1 28 5 6 -10 3
-9 -7 1 27 5 6 -10 3
-9 -7 1 27 5 6 -11 3
-8 -6 0 26 4 5 -12 2
-9 -5 0 26 4 6 -10 2
-9 -5 1 27 5 6 -9 3
-10 -4 1 27 5 7 -8 3
-10 -4 1 27 5 7 -7 3
-11 -3 2 28 6 8 -6 4
-11 -4 2 28 7 8 -6 5
-11 -4 2 28 8 9 -6 6
-11 -5 2 28 8 9 -6 6
-11 -5 2 28 9 9 -6 7
-10 -6 2 28 10 10 -5 8
-9 -6 2 27 9 9 -6 6
-8 -6 2 27 8 8 -7 5
-6 -6 2 26 8 7 -8 4
-5 -6 2 26 7 6 -9 3
-5 -6 1 25 6 5 -10 2
-7 -5 1 25 6 5 -10 2
-8 -5 2 25 6 5 -9 2
-10 -4 2 25 6 5 -9 2
-12 -4 2 25 6 5 -9 2
-13 -3 3 24 7 6 -8 2
-13 -3 3 24 7 6 -8 3
-12 -4 3 24 7 6 -8 3
-12 -4 3 24 7 6 -8 4
-12 -4 3 24 7 6 -8 4
-11 -5 3 24 8 7 -8 5
-11 -6 3 24 7 6 -8 4
-10 -7 3 23 7 6 -9 4
-10 -8 3 23 6 5 -9 3
-10 -9 3 23 6 5 -9 3
-9 -10 4 22 5 4 -10 2
-9 -10 5 22 5 3 -10 2
-10 -9 5 22 5 2 -10 2
-10 -9 6 22 5 2 -10 2
-10 -9 6 22 5 1 -10 2
-11 -8 7 21 5 0 -10 1
-11 -7 7 20 5 0 -10 0
-11 -7 7 19 5 0 -10 0
-11 -6 7 18 5 0 -10 -2
-11 -6 7 17 5 0 -10 -2
-12 -5 7 16 5 1 -11 -3
-12 -6 7 16 4 0 -11 -3
-12 -7 7 16 3 0 -11 -3
-12 -8 7 16 3 -2 -11 -3
-12 -9 7 16 2 -2 -11 -3
-12 -10 8 16 1 -3 -11 -3
-12 -10 8 15 1 -4 -11 -3
-11 -9 7 15 1 -4 -11 -3
-11 -9 7 14 1 -5 -11 -3
-11 -9 7 14 1 -5 -11 -3
-10 -8 6 13 0 -6 -11 -4
-11 -10 6 13 0 -6 -11 -4
-12 -11 7 13 0 -6 -11 -4
-12 -12 7 13 0 -6 -11 -4
-13 -13 7 13 0 -6 -11 -4
-14 -14 8 14 1 -5 -11 -5
-13 -13 8 13 1 -5 -11 -5
-12 -12 8 13 1 -5 -12 -6
-12 -12 8 12 1 -5 -12 -6
-11 -11 8 12 1 -5 -12 -6
-10 -10 9 11 0 -6 -13 -7
-11 -10 9 11 0 -7 -13 -8
-11 -10 10 11 0 -8 -13 -8
-12 -10 10 11 0 -8 -13 -9
-12 -10 10 11 0 -9 -13 -9
-13 -11 11 11 -2 -10 -14 -10
-13 -11 11 11 -2 -9 -13 -10
-13 -11 11 11 0 -8 -13 -10
-13 -11 11 11 0 -7 -12 -10
-13 -11 11 11 0 -6 -12 -10
-13 -12 11 10 1 -5 -11 -10
-13 -12 11 10 0 -6 -12 -10
-13 -12 11 9 0 -7 -13 -10
-13 -12 11 9 -2 -8 -13 -10
-13 -12 11 9 -2 -9 -14 -10
-13 -11 11 8 -3 -10 -15 -11
-12 -11 10 8 -3 -10 -15 -12
-12 -12 10 7 -3 -9 -15 -12
-11 -12 9 7 -3 -9 -15 -13
-11 -12 9 7 -3 -9 -15 -13
-10 -13 8 6 -4 -8 -16 -14
-11 -13 8 6 -4 -8 -16 -14
-11 -13 9 6 -4 -8 -15 -13
-12 -13 9 6 -4 -8 -15 -13
-12 -13 9 6 -4 -8 -15 -13
-13 -13 10 7 -3 -8 -14 -12
-13 -13 10 7 -3 -8 -14 -12
-13 -13 11 7 -3 -8 -14 -12
-13 -13 11 7 -3 -8 -14 -12
-13 -13 11 7 -3 -8 -14 -12
-13 -13 12 7 -4 -8 -13 -11
-12 -12 11 7 -4 -8 -13 -12
-11 -11 11 7 -3 -8 -13 -12
-10 -10 10 7 -3 -8 -13 -13
-9 -9 10 7 -3 -8 -13 -13
-8 -8 10 8 0 -6 -13 -14
-8 -7 12 10 2 -4 -11 -13
-8 -6 14 11 4 -3 -9 -12
-8 -6 17 13 6 0 -6 -12
-8 -5 19 15 8 2 -4 -11
-9 -4 20 16 9 3 -3 -10
-9 -4 20 16 9 3 -3 -9
-8 -3 20 16 9 3 -3 -8
-8 -2 20 16 9 3 -3 -7
-8 -2 20 16 9 3 -3 -6
-6 1 21 17 8 3 -4 -5
-5 2 21 17 8 3 -4 -5
-3 4 20 18 9 3 -4 -5
-2 6 20 18 10 3 -4 -5
1 8 20 18 10 3 -4 -5
2 9 19 19 11 4 -4 -6
1 11 18 19 11 4 -4 -6
0 12 17 18 11 5 -3 -5
0 14 16 18 11 6 -3 -5
-2 15 15 18 11 6 -3 -5
-2 16 14 17 11 7 0 -3
2 16 13 17 12 8 1 0
5 17 12 18 14 9 3 2
8 17 12 18 15 10 4 5
11 17 11 18 16 11 6 7
12 18 10 19 17 12 7 7
12 17 10 19 15 11 6 6
11 16 10 18 14 9 4 4
10 15 10 18 12 8 3 2
10 14 10 18 11 7 2 0
9 13 9 17 10 6 1 -2
8 12 9 16 10 6 1 -2
6 10 8 14 10 6 1 -2
5 9 8 13 10 6 1 -2
4 8 8 12 10 6 1 -2
2 6 7 11 9 6 1 0
1 4 7 10 8 5 0 -2
-2 2 7 9 6 3 -2 -4
-4 0 7 8 5 2 -3 -5
-6 -3 7 7 4 1 -4 -6
-7 -5 8 6 3 0 -6 -8
-7 -7 8 4 2 -3 -7 -9
-8 -9 7 3 0 -4 -9 -11
-8 -11 7 1 -2 -6 -10 -12
-8 -13 7 0 -3 -7 -12 -14
-9 -14 6 -2 -4 -8 -13 -15
-9 -14 6 -2 -4 -9 -13 -16
-9 -14 6 -3 -5 -10 -14 -17
-9 -14 6 -3 -6 -10 -15 -17
-9 -14 6 -3 -6 -11 -15 -18
-9 -14 5 -4 -7 -12 -16 -19
-11 -15 5 -4 -7 -12 -16 -18
-12 -16 6 -4 -7 -12 -15 -16
-14 -16 6 -4 -7 -12 -14 -15
-15 -17 6 -4 -7 -12 -14 -14
-16 -18 7 -4 -6 -11 -13 -13
-16 -18 7 -5 -7 -11 -13 -14
-16 -17 6 -6 -8 -11 -14 -16
-16 -16 5 -6 -9 -11 -14 -17
-16 -16 5 -7 -10 -11 -14 -18
-17 -15 4 -8 -11 -12 -15 -19
-17 -15 4 -8 -11 -12 -15 -19
-16 -16 5 -8 -10 -12 -15 -18
-16 -16 5 -8 -9 -12 -15 -18
-16 -16 5 -8 -9 -12 -15 -18
-15 -17 6 -7 -8 -11 -15 -17
-15 -17 6 -7 -8 -11 -14 -17
-15 -17 6 -6 -7 -11 -13 -17
-15 -17 6 -6 -7 -11 -13 -17
-15 -17 6 -6 -7 -11 -12 -17
-14 -18 6 -4 -6 -11 -11 -16
-13 -20 6 -3 -6 -11 -12 -18
-12 -21 7 0 -7 -12 -13 -19
-11 -23 7 2 -7 -12 -14 -21
-10 -24 7 4 -7 -12 -15 -22
-9 -25 11 13 -2 -11 -16 -23
-8 -24 17 28 9 -6 -14 -24
-6 -23 24 43 19 0 -13 -25
-5 -23 30 57 29 4 -11 -25
-4 -22 36 72 39 9 -10 -26
2 -15 39 78 47 17 -3 -21
10 -5 37 79 53 27 9 -11
17 6 35 80 59 37 20 1
25 16 34 81 64 48 31 11
32 26 32 82 70 58 43 21
43 43 24 71 75 74 64 44
55 64 12 50 79 95 93 73
66 86 0 28 84 114 120 103
78 107 -13 7 89 135 149 133
90 129 -26 -15 93 155 177 162
93 141 -38 -46 85 162 192 180
90 148 -52 -83 66 158 197 190
87 155 -65 -120 49 155 202 200
82 161 -78 -157 30 152 207 211
79 169 -92 -195 13 149 213 221
67 157 -98 -218 -10 125 191 204
48 131 -99 -231 -33 87 148 167
29 105 -101 -243 -58 49 106 129
10 79 -102 -257 -82 10 63 91
-9 54 -103 -269 -107 -28 20 54
-21 36 -104 -273 -120 -51 -6 28
-30 26 -103 -269 -127 -61 -19 12
-38 16 -101 -265 -133 -72 -33 -5
-48 6 -100 -261 -138 -83 -48 -22
-56 -5 -99 -257 -144 -94 -62 -38
-57 -10 -93 -237 -139 -94 -64 -45
-52 -11 -82 -207 -123 -83 -57 -41
-47 -13 -72 -177 -108 -73 -50 -38
-41 -14 -62 -147 -93 -63 -43 -35
-36 -15 -53 -117 -77 -54 -35 -32
-31 -16 -44 -96 -65 -46 -30 -29
-27 -16 -34 -80 -56 -40 -26 -28
-24 -16 -26 -65 -47 -35 -23 -26
-20 -16 -17 -51 -37 -30 -19 -24
-16 -16 -9 -35 -27 -25 -15 -22
-14 -17 -4 -26 -23 -22 -13 -21
-14 -17 -2 -23 -21 -21 -13 -21
-14 -17 2 -19 -19 -20 -13 -20
-14 -17 4 -16 -18 -19 -13 -20
-14 -17 6 -12 -16 -18 -13 -20
-15 -17 8 -10 -15 -17 -13 -19
-13 -17 8 -8 -14 -17 -13 -19
-12 -17 9 -7 -12 -16 -13 -20
-10 -17 10 -5 -11 -16 -13 -21
-9 -17 10 -4 -10 -16 -13 -21
-8 -18 11 -3 -9 -15 -14 -22
-8 -18 11 -3 -9 -15 -14 -21
-8 -18 12 -2 -9 -14 -13 -20
-8 -18 12 -2 -9 -14 -12 -19
-8 -18 12 -2 -9 -14 -12 -18
-8 -17 13 0 -8 -13 -11 -17
-8 -16 13 0 -8 -13 -11 -18
-7 -15 12 1 -7 -13 -11 -19
-7 -15 12 2 -7 -13 -11 -20
-7 -14 12 2 -7 -13 -11 -21
-6 -13 11 3 -6 -13 -12 -22
-6 -13 11 4 -6 -13 -11 -20
-6 -14 12 5 -6 -13 -10 -19
-6 -14 12 5 -6 -13 -9 -18
-6 -14 12 6 -6 -13 -8 -16
-7 -15 13 7 -5 -12 -7 -15
-6 -15 13 7 -5 -12 -7 -15
-4 -15 13 7 -4 -11 -7 -15
-3 -15 13 7 -4 -11 -7 -15
-2 -15 13 7 -4 -11 -7 -15
0 -14 12 8 -3 -10 -6 -15
-2 -14 12 9 -3 -10 -6 -15
-4 -14 13 10 -3 -10 -6 -14
-5 -14 14 11 -3 -10 -6 -13
-6 -14 14 12 -3 -10 -6 -13
-7 -13 15 13 -3 -10 -6 -12
-7 -13 15 13 -3 -10 -6 -12
-6 -14 14 13 -2 -9 -5 -12
-6 -15 14 13 0 -9 -4 -12
-6 -15 14 13 0 -9 -4 -12
-5 -16 13 12 1 -8 -3 -11
-3 -14 12 12 0 -8 -3 -11
0 -13 11 11 -2 -9 -4 -12
2 -12 11 11 -2 -10 -4 -12
4 -10 10 11 -3 -10 -4 -12
5 -9 9 10 -4 -11 -5 -13
5 -10 9 11 -3 -11 -5 -13
5 -11 9 12 0 -10 -4 -13
5 -11 9 13 1 -9 -4 -13
5 -12 9 14 2 -9 -4 -13
6 -13 10 15 3 -8 -3 -12
6 -13 10 15 2 -8 -3 -12
6 -12 9 15 1 -8 -3 -12
6 -11 8 15 0 -8 -3 -12
6 -11 8 15 -2 -8 -3 -12
6 -10 7 15 -3 -9 -3 -12
6 -10 7 15 -3 -9 -3 -12
6 -9 6 16 -2 -9 -4 -11
6 -8 6 16 -2 -9 -5 -11
6 -8 6 16 -2 -9 -5 -11
7 -7 5 17 0 -9 -6 -10
8 -8 5 17 0 -9 -6 -9
10 -9 5 18 0 -8 -6 -8
11 -10 5 18 0 -8 -6 -8
12 -11 5 18 0 -8 -6 -7
13 -12 4 19 0 -7 -5 -6
13 -12 3 19 0 -7 -5 -6
14 -11 2 19 0 -6 -5 -6
15 -11 1 19 0 -6 -5 -6
15 -11 0 19 0 -6 -5 -6
16 -10 -2 18 -2 -5 -5 -6
16 -10 -2 18 -2 -5 -5 -6
17 -10 -2 19 -2 -5 -5 -6
17 -10 -2 19 -2 -5 -5 -6
17 -10 -2 19 -2 -5 -5 -6
18 -9 -3 20 -2 -5 -5 -6
20 -9 -4 20 -2 -5 -5 -5
22 -10 -5 20 -2 -5 -4 -4
23 -10 -5 20 -2 -5 -3 -4
25 -10 -6 20 -2 -5 -3 -3
26 -11 -7 20 0 -4 -2 -2
28 -11 -7 20 0 -4 -2 -2
30 -11 -8 20 -2 -4 -2 -2
32 -11 -9 20 -3 -4 -2 -2
34 -11 -9 20 -3 -4 -2 -2
35 -11 -10 20 -4 -3 -2 -3
35 -9 -11 20 -4 -3 -2 -3
36 -7 -13 19 -4 -3 -2 -3
36 -6 -14 19 -4 -3 -2 -3
36 -4 -15 19 -4 -3 -2 -3
37 -3 -16 18 -5 -3 1 -3
37 -5 -16 18 -5 0 3 1
38 -6 -16 19 -5 1 5 4
39 -7 -16 20 -5 2 7 6
39 -9 -16 20 -5 4 9 9
40 -10 -17 21 -5 5 10 11
42 -10 -18 21 -5 5 10 11
44 -9 -19 21 -5 5 10 12
45 -8 -20 21 -5 5 10 12
46 -8 -21 21 -5 5 10 12
47 -7 -22 22 -4 4 10 13
47 -7 -22 22 -4 4 10 13
47 -7 -22 22 -5 5 10 13
47 -7 -22 22 -6 6 10 14
47 -7 -22 22 -6 6 10 14
48 -6 -22 21 -7 7 11 15
48 -4 -22 21 -6 7 12 15
48 -3 -21 21 -5 8 12 16
48 -2 -20 22 -4 9 13 17
48 1 -20 22 -3 9 14 17
47 2 -19 23 -2 10 15 18
47 2 -19 23 -2 10 15 18
47 2 -18 23 -2 10 15 18
46 1 -17 24 -2 10 15 18
46 1 -17 24 -2 10 15 18
45 1 -16 25 -2 10 15 18
44 3 -15 26 1 10 15 18
43 5 -14 26 2 10 15 17
42 7 -12 27 4 11 15 16
40 9 -11 28 6 11 15 16
39 11 -10 29 7 12 14 15
37 11 -9 30 8 12 14 15
36 11 -8 30 8 12 14 15
35 11 -7 31 9 12 14 15
33 11 -6 32 10 12 14 15
32 11 -5 33 11 12 15 14
30 11 -3 33 13 12 15 14
28 10 0 34 14 13 15 14
26 9 2 35 16 14 15 14
24 9 4 35 18 14 15 14
22 8 5 36 19 15 15 15
22 8 6 36 19 14 13 14
21 8 7 35 19 14 12 13
20 9 8 34 19 13 10 11
20 9 9 34 19 12 8 10
18 10 10 33 18 11 7 9
16 10 11 33 18 11 6 8
13 10 11 33 18 10 6 8
10 10 12 32 18 9 5 7
8 10 13 32 18 9 4 6
6 10 14 31 19 8 3 5
6 10 14 29 17 6 1 4
6 9 14 27 16 5 0 3
5 8 13 25 15 4 -3 2
5 8 13 23 13 2 -5 1
4 7 12 21 12 1 -6 0
4 7 13 21 12 2 -6 0
4 7 14 21 12 2 -6 0
3 6 15 21 13 3 -6 0
3 6 16 21 13 4 -6 0
2 5 17 22 14 5 -5 0
2 5 16 22 14 4 -5 0
2 5 16 21 14 3 -6 -2
3 5 15 20 13 2 -7 -3
3 5 14 20 13 1 -7 -3
4 6 13 19 12 0 -8 -4
3 6 13 19 12 0 -8 -3
2 6 13 19 12 0 -8 -2
1 6 13 19 12 0 -8 0
0 6 13 19 12 0 -8 1
-2 5 13 18 11 0 -7 2
-2 5 13 18 11 0 -7 1
-2 5 13 18 11 0 -7 1
0 5 12 18 11 1 -7 0
0 5 12 18 11 1 -7 -2
1 5 11 19 12 2 -7 -3
1 5 11 19 12 2 -7 -3
1 5 11 19 12 2 -7 -3
1 5 11 19 12 2 -7 -3
1 5 11 19 12 2 -7 -3
1 6 12 19 13 3 -6 -2
1 6 12 19 13 3 -6 -2
1 6 12 19 13 3 -7 -2
1 7 12 19 13 3 -8 -2
1 7 12 19 13 3 -8 -2
0 8 12 20 12 2 -9 -2
0 6 12 20 12 2 -9 -2
0 5 12 20 12 2 -9 -3
1 4 13 20 12 2 -9 -4
1 2 13 20 12 2 -9 -4
2 1 14 19 13 1 -9 -5
2 2 14 19 13 1 -9 -5
1 2 14 19 12 1 -9 -5
0 3 13 18 11 1 -10 -5
0 4 13 18 11 1 -10 -5
-2 5 12 17 10 0 -11 -5
-2 5 12 17 10 0 -11 -5
-2 4 12 17 10 0 -11 -5
-2 3 13 17 10 1 -11 -4
-2 3 13 17 10 1 -11 -4
0 2 14 18 11 2 -10 -3
1 2 14 17 10 1 -11 -4
1 3 13 16 9 0 -11 -4
2 4 12 14 8 -3 -12 -5
3 4 12 13 7 -4 -13 -6
4 5 11 12 6 -5 -14 -7
4 4 11 13 7 -5 -14 -7
3 3 11 13 7 -4 -14 -6
2 2 11 14 8 -3 -13 -5
2 1 11 15 9 -3 -13 -5
1 0 12 16 10 -2 -12 -4
1 0 12 16 9 -2 -12 -4
1 1 12 15 9 -3 -12 -4
0 2 12 14 8 -4 -13 -4
0 2 12 14 7 -4 -13 -4
-2 3 13 13 6 -5 -14 -4
0 2 13 13 6 -5 -14 -5
0 2 13 13 6 -5 -14 -5
1 1 13 13 6 -5 -15 -6
2 0 13 13 6 -5 -15 -7
3 -2 14 13 6 -6 -16 -8
1 -2 14 13 6 -6 -16 -8
0 -2 14 13 6 -6 -15 -7
-3 -2 14 13 6 -5 -14 -6
-5 -2 14 13 6 -5 -14 -6
-6 0 14 12 7 -4 -13 -5
-5 0 13 11 6 -5 -14 -6
-3 0 13 10 5 -6 -15 -7
-2 0 12 8 3 -7 -16 -9
1 0 11 7 2 -8 -17 -10
2 0 10 6 1 -9 -18 -11
1 -2 10 6 1 -9 -18 -11
1 -3 10 6 1 -9 -18 -11
0 -4 10 6 1 -9 -18 -10
-2 -5 10 6 1 -9 -18 -10
-3 -6 9 6 2 -9 -17 -9
-3 -6 9 6 3 -9 -16 -8
-4 -5 9 7 3 -8 -15 -7
-5 -4 10 8 4 -7 -13 -5
-5 -4 10 8 5 -7 -12 -4
-6 -3 11 9 6 -6 -11 -3
-3 -3 11 9 5 -6 -11 -4
0 -3 11 9 5 -6 -12 -5
2 -3 11 8 4 -6 -13 -7
4 -3 11 8 3 -6 -13 -8
6 0 10 7 2 -7 -14 -9
4 2 12 9 4 -6 -13 -9
2 5 13 10 6 -5 -11 -8
0 7 15 12 8 -4 -10 -7
-2 10 17 14 9 -3 -8 -7
-4 12 18 15 11 -2 -7 -6
-3 12 18 16 12 1 -6 -5
-3 13 18 17 13 2 -5 -4
-2 14 19 19 14 4 -3 -2
0 14 19 20 15 6 -2 0
1 15 20 21 16 7 0 1
1 15 19 20 16 7 0 2
1 16 18 18 16 7 0 2
2 17 17 17 16 6 0 3
2 17 16 15 16 6 0 4
3 18 15 14 15 5 0 5
5 19 13 14 15 5 1 5
6 20 12 14 15 5 1 5
8 21 10 14 15 5 2 6
10 22 8 14 15 5 3 6
11 23 7 13 16 6 4 7
11 24 7 13 16 6 4 6
11 24 7 13 16 6 4 5
11 25 6 13 15 6 3 3
11 26 6 13 15 6 3 2
12 26 5 14 14 6 2 1
12 23 5 14 14 6 2 1
12 20 5 14 14 5 2 1
12 17 5 13 14 4 1 1
12 14 5 13 14 4 1 1
12 12 6 12 13 3 0 2
10 11 6 11 12 3 -2 1
7 11 5 11 11 2 -2 0
4 10 4 10 10 1 -3 -3
1 9 4 9 9 1 -4 -4
-2 7 3 8 8 0 -5 -5
0 5 3 7 6 -3 -6 -5
1 2 3 6 4 -4 -7 -5
2 -2 3 4 2 -6 -9 -6
3 -5 3 3 1 -7 -10 -6
3 -7 3 2 -2 -9 -11 -7
1 -8 4 2 -2 -9 -12 -7
-3 -8 4 2 -2 -9 -12 -8
-6 -9 5 2 -2 -9 -13 -9
-9 -10 6 2 -2 -9 -14 -9
-11 -11 7 2 0 -9 -15 -10
-11 -11 7 1 -2 -9 -15 -10
-11 -11 6 1 -2 -9 -15 -10
-12 -11 5 0 -3 -10 -15 -11
-12 -11 5 -2 -4 -10 -15 -11
-13 -12 4 -3 -5 -11 -15 -12
-13 -12 4 -3 -6 -11 -15 -12
-12 -12 4 -3 -6 -12 -16 -12
-11 -11 4 -4 -7 -13 -17 -13
-11 -11 4 -4 -8 -13 -17 -13
-10 -10 3 -5 -9 -14 -18 -14
-11 -11 3 -5 -9 -14 -18 -14
-11 -12 4 -5 -8 -14 -18 -14
-12 -13 5 -5 -7 -14 -18 -14
-13 -14 5 -5 -7 -14 -18 -14
-14 -15 6 -4 -6 -15 -19 -15
-14 -15 5 -4 -6 -15 -19 -15
-14 -15 4 -4 -6 -14 -19 -15
-13 -15 3 -5 -6 -13 -18 -15
-13 -15 2 -5 -6 -13 -18 -15
-12 -15 1 -6 -6 -12 -17 -14
-12 -16 1 -6 -6 -12 -18 -14
-12 -17 1 -6 -6 -12 -18 -15
-11 -18 2 -6 -6 -12 -19 -16
-11 -19 2 -6 -6 -12 -20 -16
-10 -20 4 -3 -5 -13 -21 -17
-8 -22 9 12 3 -12 -22 -20
-5 -24 14 26 11 -11 -22 -23
-3 -25 18 39 18 -10 -23 -26
0 -27 23 54 26 -8 -24 -29
2 -27 27 66 34 -4 -23 -29
5 -19 30 75 45 8 -14 -22
8 -12 33 85 55 19 -5 -16
11 -4 36 94 65 29 4 -9
14 4 39 103 75 40 13 -2
18 16 38 101 82 55 27 12
26 37 26 74 81 74 53 39
34 59 15 49 80 94 79 66
42 80 3 22 79 113 105 93
50 101 -10 -5 78 133 131 120
56 120 -23 -35 72 147 154 145
56 135 -40 -74 55 152 170 164
56 149 -58 -113 37 158 186 185
56 164 -74 -152 20 163 201 205
56 179 -92 -192 3 169 218 225
53 183 -105 -223 -17 162 219 231
40 162 -109 -239 -39 129 184 203
29 142 -113 -255 -61 95 150 175
18 121 -117 -270 -83 61 115 147
6 101 -122 -285 -106 27 80 119
-6 81 -126 -297 -126 -4 48 91
-18 64 -122 -294 -137 -28 17 60
-30 47 -119 -291 -148 -53 -14 29
-43 29 -117 -289 -160 -76 -45 -2
-54 12 -114 -286 -172 -101 -75 -32
-62 0 -110 -276 -176 -115 -95 -53
-57 -3 -102 -248 -159 -105 -88 -50
-51 -5 -94 -220 -143 -95 -79 -47
-46 -6 -86 -192 -127 -85 -72 -43
-40 -8 -77 -163 -110 -74 -65 -39
-35 -10 -68 -138 -95 -65 -58 -36
-32 -14 -58 -117 -81 -58 -53 -33
-28 -17 -48 -97 -69 -51 -48 -30
-24 -20 -37 -76 -57 -44 -43 -27
-20 -23 -27 -56 -44 -36 -37 -24
-17 -26 -18 -40 -33 -31 -33 -22
-17 -25 -15 -34 -30 -29 -33 -22
-17 -23 -11 -29 -27 -28 -33 -23
-16 -22 -8 -24 -23 -26 -33 -23
-16 -20 -4 -18 -20 -25 -33 -24
-15 -19 0 -14 -17 -23 -32 -25
-15 -20 1 -12 -15 -22 -31 -25
-15 -20 2 -10 -14 -21 -30 -25
-15 -21 3 -9 -12 -20 -29 -24
-15 -22 4 -7 -11 -19 -28 -24
-15 -23 5 -5 -9 -18 -27 -23
-14 -23 5 -4 -9 -18 -27 -24
-13 -23 5 -3 -9 -18 -27 -24
-12 -23 6 -2 -9 -18 -28 -25
-10 -23 6 0 -9 -18 -28 -26
-9 -23 7 1 -8 -17 -29 -27
-11 -23 7 2 -7 -16 -28 -25
-12 -23 7 3 -5 -14 -26 -23
-14 -23 8 4 -4 -13 -25 -21
-15 -23 8 6 -2 -11 -23 -19
-17 -22 9 7 0 -10 -22 -17
-15 -22 9 7 0 -10 -22 -17
-13 -22 9 7 0 -10 -22 -17
-11 -22 9 7 0 -10 -22 -17
-9 -22 9 7 0 -10 -22 -17
-7 -22 8 7 -2 -10 -23 -17
-8 -22 8 7 -2 -10 -23 -17
-8 -22 8 7 -2 -10 -23 -17
-9 -23 9 7 -2 -11 -23 -18
-10 -23 9 7 -2 -11 -23 -18
-11 -24 10 8 -2 -12 -24 -19
-10 -23 10 8 -2 -11 -23 -18
-10 -22 10 8 -2 -11 -22 -18
-9 -21 9 8 -2 -10 -21 -17
-8 -20 9 8 -2 -9 -20 -16
-7 -19 8 7 0 -8 -19 -15
-7 -19 8 8 0 -8 -19 -15
-7 -19 8 8 0 -8 -19 -15
-7 -19 8 9 0 -8 -19 -15
-7 -19 8 10 0 -8 -19 -15
-8 -19 9 11 1 -9 -20 -14
-8 -19 9 11 1 -8 -20 -14
-8 -19 9 11 1 -8 -20 -14
-8 -19 9 11 2 -7 -20 -14
-8 -19 9 11 2 -6 -20 -14
-7 -20 8 12 3 -5 -19 -15
-7 -20 8 12 3 -5 -19 -15
-7 -20 8 12 4 -5 -18 -15
-6 -20 7 12 4 -4 -18 -14
-6 -20 7 12 5 -4 -17 -14
-5 -20 6 13 6 -3 -16 -13
-4 -20 6 13 5 -4 -17 -14
-3 -19 6 13 4 -6 -19 -15
-2 -19 5 13 3 -7 -20 -16
1 -18 5 13 2 -8 -21 -17
2 -17 4 12 1 -10 -23 -18
1 -18 4 14 2 -9 -21 -16
0 -18 4 16 4 -7 -19 -14
-2 -19 4 18 5 -6 -17 -12
-4 -20 4 20 6 -5 -15 -10
-5 -21 4 22 8 -3 -13 -8
-4 -21 4 22 7 -3 -13 -8
-2 -21 3 22 7 -3 -13 -8
0 -20 3 22 6 -3 -13 -8
1 -20 2 22 5 -3 -13 -8
3 -19 1 21 4 -3 -12 -9
4 -19 1 21 4 -3 -12 -9
4 -19 1 21 4 -3 -12 -9
5 -19 1 22 5 -2 -12 -9
6 -19 1 22 5 -2 -12 -9
7 -18 0 23 6 0 -12 -10
8 -19 0 24 7 1 -11 -9
9 -21 0 26 8 2 -10 -8
10 -23 0 27 9 3 -9 -7
12 -24 0 28 10 4 -7 -6
13 -26 1 30 11 5 -6 -5
13 -25 0 30 11 5 -6 -5
14 -24 -3 30 10 5 -6 -5
15 -23 -4 30 10 4 -5 -5
16 -21 -5 30 9 4 -5 -5
17 -20 -7 31 8 3 -4 -4
18 -21 -7 32 8 3 -3 -3
20 -22 -7 33 8 4 -2 0
21 -23 -8 34 9 4 0 2
22 -24 -8 35 9 5 2 3
24 -25 -9 36 10 6 3 5
24 -25 -10 36 10 6 3 5
24 -24 -11 36 10 6 3 5
25 -24 -12 36 10 6 3 4
25 -23 -14 36 10 6 3 4
26 -22 -15 36 9 7 3 3
27 -22 -15 36 9 7 3 3
29 -22 -16 36 9 8 4 4
31 -22 -17 36 9 8 4 4
32 -22 -18 36 9 9 5 5
34 -21 -19 37 8 10 6 6
34 -21 -19 37 8 11 7 6
35 -21 -19 37 8 12 8 7
35 -21 -19 37 9 13 9 8
36 -21 -19 37 9 15 10 9
37 -20 -20 38 10 16 11 10
37 -20 -20 38 10 16 11 10
37 -20 -20 38 10 16 11 11
37 -20 -20 38 9 16 12 11
37 -20 -20 38 9 16 12 12
36 -19 -21 38 8 16 13 13
36 -19 -21 38 8 16 13 13
36 -18 -21 38 8 16 13 14
36 -18 -20 38 9 16 14 14
36 -17 -20 38 9 16 14 15
35 -16 -19 39 10 16 15 16
34 -16 -19 39 10 16 16 16
33 -15 -18 39 11 17 17 17
32 -15 -17 39 11 17 18 18
31 -14 -16 39 12 18 19 19
30 -13 -15 40 13 19 20 20
30 -13 -15 40 13 19 20 20
30 -12 -15 40 13 19 19 19
29 -11 -15 39 13 18 18 18
29 -10 -15 39 13 18 17 17
28 -9 -15 38 14 17 16 16
25 -7 -13 38 14 17 16 16
22 -5 -10 39 15 17 16 16
20 -3 -8 39 16 17 15 16
17 0 -5 40 17 17 15 16
14 2 -3 42 18 18 14 17
14 0 -2 42 19 18 14 16
14 -3 1 42 20 18 14 15
14 -5 2 42 21 18 13 14
14 -7 3 42 22 18 13 12
14 -9 5 42 23 18 12 11
11 -7 5 40 23 17 10 10
8 -6 6 39 23 15 8 8
5 -4 7 38 22 14 6 7
2 -2 8 36 22 13 4 6
-2 1 9 35 21 11 2 4
-2 1 9 33 21 11 2 3
0 1 9 32 20 10 1 2
0 0 10 30 20 9 1 1
1 0 10 28 19 8 0 0
2 -2 11 26 18 7 -2 -2
-2 -2 11 25 18 7 -2 -2
-4 -2 11 24 17 7 -2 -2
-7 -3 12 23 17 6 -2 -2
-9 -3 12 22 16 6 -2 -2
-12 -4 13 21 15 5 -3 -3
-12 -4 13 21 15 4 -4 -3
-12 -5 13 20 14 3 -5 -4
-12 -6 13 19 13 2 -6 -5
-12 -7 13 18 12 1 -8 -6
-11 -8 14 17 11 0 -9 -7
-11 -8 14 17 11 0 -9 -7
-11 -8 14 17 11 0 -9 -6
-11 -8 14 16 11 0 -8 -6
-11 -8 14 16 11 0 -8 -5
-11 -7 14 15 11 -2 -7 -4
-11 -7 14 15 11 -2 -7 -4
-11 -8 14 15 11 -2 -7 -4
-11 -8 13 15 11 -2 -7 -3
-11 -9 13 15 11 -2 -7 -3
-12 -10 12 15 12 -2 -6 -2
-12 -10 12 15 12 -2 -6 -2
-12 -9 12 15 12 -2 -6 -3
-12 -8 13 14 12 -2 -7 -4
-12 -7 13 14 12 -2 -7 -5
-13 -6 14 13 11 0 -8 -6
-13 -6 14 13 11 0 -8 -6
-13 -6 14 13 11 -2 -9 -6
-12 -6 13 13 11 -2 -9 -6
-12 -6 13 13 11 -3 -10 -6
-11 -5 12 12 10 -4 -11 -6
-11 -5 12 12 10 -4 -11 -6
-11 -5 12 12 10 -4 -11 -6
-12 -5 12 12 10 -3 -11 -6
-12 -5 12 12 10 -3 -11 -6
-13 -6 12 13 10 -2 -10 -6
-13 -6 12 13 10 -2 -10 -6
-13 -6 12 13 10 -2 -10 -6
-12 -7 12 13 11 -2 -10 -6
-12 -7 12 13 11 -2 -10 -6
-11 -8 13 13 12 -2 -9 -6
-11 -7 13 12 11 -2 -9 -6
-11 -5 13 11 10 -3 -9 -6
-11 -3 12 10 9 -3 -10 -7
-11 -2 12 9 8 -4 -10 -7
-10 1 11 8 7 -5 -11 -8
-10 0 11 8 7 -5 -11 -8
-10 -2 12 9 8 -5 -11 -8
-11 -3 12 9 8 -5 -11 -7
-11 -4 13 10 9 -5 -11 -7
-12 -6 14 11 10 -4 -10 -6
-12 -6 14 11 10 -4 -10 -6
-11 -6 14 11 10 -3 -10 -6
-10 -6 13 11 11 -3 -11 -7
-9 -6 13 11 11 -2 -11 -7
-8 -6 12 11 12 0 -12 -8
-8 -6 12 11 12 0 -12 -8
-8 -6 12 11 11 -2 -11 -7
-9 -6 12 11 10 -2 -10 -6
-9 -6 12 11 9 -3 -9 -5
-10 -6 12 10 8 -4 -8 -4
-11 -6 12 10 8 -4 -8 -4
-12 -6 12 10 7 -4 -8 -4
-13 -6 11 10 7 -4 -9 -4
-14 -6 11 10 6 -4 -9 -4
-15 -5 10 9 5 -5 -10 -4
-14 -5 10 9 5 -6 -10 -5
-13 -6 10 9 5 -7 -11 -6
-12 -6 10 8 4 -8 -11 -7
-11 -7 10 8 4 -9 -12 -8
-10 -8 11 7 3 -11 -13 -9
-10 -7 11 7 3 -10 -12 -8
-10 -6 11 7 3 -9 -11 -7
-11 -5 11 7 3 -8 -10 -6
-11 -4 11 7 3 -7 -9 -5
-12 -2 11 7 4 -5 -7 -3
-11 -2 11 7 4 -5 -7 -3
-10 -3 11 7 4 -5 -7 -3
-9 -3 11 8 5 -5 -8 -3
-8 -4 11 8 5 -5 -8 -3
-7 -5 12 9 6 -6 -9 -4
-7 -4 12 9 6 -6 -9 -4
-6 -2 13 9 6 -6 -9 -5
-6 0 13 10 6 -6 -9 -5
-5 2 14 10 6 -6 -9 -6
-4 4 15 11 7 -5 -9 -7
-5 5 16 12 8 -5 -8 -6
-6 6 17 13 9 -4 -7 -4
-7 7 18 14 11 -3 -5 -3
-8 8 19 15 12 -2 -4 0
-9 10 21 17 14 0 -2 2
-9 11 21 17 14 0 -2 2
-9 12 20 17 14 1 -2 2
-8 13 19 18 14 1 0 2
-8 14 18 18 14 2 0 2
-7 16 17 19 15 3 1 3
-6 17 15 18 15 3 1 3
-5 18 14 17 15 3 1 3
-4 19 12 15 14 2 1 3
-3 20 10 14 14 2 1 3
0 22 8 12 13 1 1 3
1 22 8 12 13 2 1 3
2 22 8 12 13 3 2 3
3 22 8 13 14 4 3 4
4 22 8 13 14 5 4 4
5 22 7 14 15 6 5 5
4 22 7 14 15 6 5 5
3 23 7 14 15 5 5 5
2 24 7 14 14 5 4 6
1 25 7 14 14 4 4 6
-2 26 7 13 13 3 3 7
-2 23 7 12 12 3 3 6
0 19 6 11 11 2 3 5
1 16 6 10 10 2 2 4
2 13 5 9 9 1 2 3
3 9 4 8 7 0 1 2
0 8 4 8 7 -2 0 2
-3 6 5 8 7 -3 -2 1
-6 5 5 8 6 -4 -3 1
-9 3 6 8 6 -5 -4 0
-12 1 7 8 5 -6 -6 -2
-12 0 7 7 3 -7 -7 -3
-12 -3 7 5 1 -8 -8 -5
-13 -4 6 4 -2 -10 -9 -6
-13 -6 6 2 -5 -11 -10 -8
-14 -8 5 0 -7 -13 -12 -10
-12 -8 5 -2 -7 -13 -13 -11
-10 -8 4 -3 -8 -14 -14 -12
-8 -8 4 -4 -8 -14 -15 -13
-6 -8 3 -5 -9 -15 -16 -14
-4 -9 2 -6 -10 -16 -18 -16
-7 -9 2 -6 -10 -16 -18 -16
-10 -10 3 -6 -10 -15 -17 -15
-13 -10 3 -5 -10 -15 -16 -14
-17 -11 4 -5 -10 -14 -15 -13
-20 -12 5 -4 -9 -13 -14 -12
-20 -12 5 -4 -9 -13 -14 -12
-19 -12 5 -5 -10 -13 -15 -13
-19 -13 5 -5 -10 -13 -15 -14
-18 -13 5 -6 -11 -13 -16 -15
-17 -14 4 -7 -12 -13 -17 -16
-17 -14 4 -7 -12 -13 -17 -16
-18 -14 4 -7 -12 -13 -16 -15
-18 -14 4 -7 -12 -12 -15 -14
-19 -14 4 -7 -12 -12 -14 -13
-20 -14 5 -7 -12 -11 -13 -12
-20 -13 5 -7 -12 -11 -13 -12
-19 -12 5 -7 -12 -11 -13 -13
-18 -11 5 -7 -12 -11 -14 -14
-17 -10 5 -7 -12 -11 -14 -15
-16 -8 4 -8 -13 -12 -15 -16
-16 -12 6 0 -10 -12 -15 -16
-16 -17 8 6 -7 -11 -15 -16
-16 -21 11 13 -4 -11 -14 -16
-16 -25 13 19 0 -10 -14 -16
-15 -30 16 26 3 -9 -13 -17
-13 -28 22 40 14 -3 -11 -17
-11 -26 28 55 25 4 -9 -17
-9 -24 34 68 36 10 -7 -18
-7 -22 40 82 47 16 -5 -18
-5 -20 47 96 58 22 -2 -19
3 -5 44 90 61 36 15 -4
10 10 39 82 64 50 30 11
17 24 36 76 67 64 47 25
24 38 33 70 70 77 62 39
31 54 28 61 73 92 78 55
36 77 10 24 69 111 107 85
43 101 -9 -14 64 131 135 115
48 125 -27 -52 60 151 163 145
53 148 -46 -90 56 171 191 175
59 171 -63 -127 50 190 219 203
54 171 -77 -162 23 177 215 203
48 171 -93 -197 -3 162 210 203
43 170 -107 -232 -29 149 204 203
37 170 -121 -267 -56 136 200 203
31 168 -136 -301 -82 120 193 201
14 139 -136 -304 -105 76 144 159
-4 110 -135 -308 -128 31 95 116
-21 81 -134 -311 -150 -13 46 74
-38 52 -133 -315 -173 -58 -5 31
-55 24 -132 -319 -194 -101 -52 -10
-55 17 -127 -299 -185 -99 -54 -17
-54 11 -122 -278 -176 -96 -56 -25
-54 4 -117 -258 -165 -94 -58 -32
-53 -4 -112 -237 -156 -91 -60 -39
-52 -11 -107 -217 -147 -88 -63 -48
-47 -11 -95 -189 -131 -79 -57 -45
-40 -11 -81 -161 -114 -70 -51 -40
-34 -11 -69 -134 -98 -62 -45 -37
-29 -11 -56 -106 -82 -54 -38 -33
-23 -10 -44 -78 -66 -45 -32 -29
-23 -12 -35 -67 -58 -39 -29 -29
-23 -14 -28 -55 -49 -33 -25 -28
-23 -17 -20 -44 -39 -27 -22 -27
-23 -19 -12 -31 -31 -22 -18 -26
-24 -22 -4 -20 -22 -16 -14 -25
-24 -22 -3 -17 -21 -15 -13 -24
-23 -22 0 -14 -19 -14 -12 -22
-23 -21 1 -10 -17 -13 -11 -21
-22 -21 3 -7 -15 -12 -10 -19
-21 -20 5 -3 -13 -11 -8 -17
-20 -20 5 -3 -13 -11 -8 -18
-18 -20 5 -2 -13 -11 -8 -19
-16 -21 5 -2 -13 -11 -9 -20
-14 -21 5 0 -13 -11 -9 -21
-12 -22 5 1 -12 -11 -10 -22
-12 -21 5 1 -11 -11 -10 -22
-12 -20 6 2 -10 -10 -9 -21
-12 -19 6 2 -9 -10 -9 -20
-12 -18 7 3 -8 -9 -8 -19
-13 -17 8 4 -7 -8 -7 -18
-13 -18 8 5 -7 -8 -7 -18
-14 -19 8 6 -7 -7 -7 -18
-14 -21 9 7 -6 -7 -7 -18
-15 -22 9 8 -6 -6 -7 -18
-16 -24 10 10 -5 -5 -6 -19
-16 -22 10 10 -5 -6 -6 -19
-16 -20 9 10 -6 -7 -7 -20
-15 -18 9 10 -6 -8 -8 -20
-15 -16 8 10 -7 -9 -9 -21
-14 -13 7 10 -8 -10 -10 -22
-14 -14 7 10 -7 -9 -8 -21
-14 -16 8 10 -6 -7 -6 -19
-14 -17 8 10 -5 -6 -3 -17
-14 -19 9 10 -4 -4 0 -15
-13 -21 10 11 -3 -2 3 -13
-13 -21 10 11 -3 -2 3 -13
-13 -21 10 11 -3 -3 2 -13
-13 -20 9 11 -4 -3 1 -13
-13 -20 9 11 -4 -4 0 -13
-12 -19 8 12 -5 -5 -2 -14
-11 -19 8 12 -5 -5 -2 -14
-10 -19 8 12 -4 -5 -2 -14
-9 -18 8 12 -4 -4 -2 -15
-8 -18 8 12 -3 -4 -2 -15
-7 -17 7 12 -2 -3 -3 -16
-8 -17 7 13 -2 -3 -3 -16
-9 -17 7 14 -2 -3 -3 -16
-10 -18 7 15 -2 -3 -3 -15
-10 -18 7 16 -2 -3 -3 -15
-11 -18 7 17 -2 -3 -3 -15
-11 -19 8 18 -2 -3 -3 -14
-9 -19 8 18 -2 -3 -3 -14
-8 -18 7 17 -2 -2 -3 -15
-6 -18 7 17 -2 -2 -3 -15
-5 -18 7 17 -2 -2 -3 -15
-4 -17 6 17 0 0 -3 -16
-4 -17 6 18 0 0 -2 -15
-5 -17 6 20 0 0 0 -14
-5 -17 6 21 0 0 1 -13
-5 -17 6 22 0 0 2 -13
-6 -18 6 23 1 1 3 -12
-5 -17 5 23 1 1 3 -12
-5 -16 5 23 2 1 3 -13
-4 -15 4 23 2 1 3 -13
-4 -14 4 23 2 1 3 -13
-3 -14 3 23 3 1 2 -13
-2 -15 3 24 3 1 3 -12
0 -16 3 25 4 2 3 -11
1 -17 3 26 4 2 4 -10
2 -18 3 27 4 2 4 -9
4 -19 2 28 5 3 5 -8
6 -18 1 27 5 3 5 -9
7 -17 0 27 5 2 5 -9
9 -16 -2 26 5 2 5 -10
10 -16 -3 26 5 2 5 -10
11 -15 -4 26 4 1 4 -10
10 -16 -4 28 4 2 5 -9
9 -17 -3 30 4 2 5 -8
8 -18 -3 32 4 3 6 -7
8 -18 -3 34 4 3 6 -6
9 -19 -3 35 5 4 7 -5
12 -18 -5 34 5 4 7 -6
15 -18 -7 33 4 3 7 -7
18 -17 -9 32 4 3 7 -8
20 -17 -11 32 4 3 7 -8
21 -16 -12 32 3 3 8 -8
21 -17 -12 34 4 4 10 -6
21 -18 -12 35 5 6 12 -4
21 -19 -12 37 6 7 14 -2
21 -19 -12 38 6 8 16 0
24 -20 -13 39 7 9 17 1
26 -20 -14 39 7 9 18 1
29 -20 -16 39 7 10 18 1
31 -20 -17 39 7 10 19 1
33 -20 -18 39 7 10 19 1
33 -19 -19 38 6 11 20 2
32 -19 -19 39 6 12 21 4
31 -19 -19 39 6 13 22 6
30 -19 -19 40 6 14 23 8
29 -19 -19 40 6 15 24 10
29 -18 -18 42 7 16 25 11
30 -18 -18 43 7 16 25 11
32 -18 -18 43 8 17 25 11
33 -18 -18 44 8 17 25 11
34 -18 -18 44 8 17 25 11
35 -17 -19 45 9 18 25 10
35 -16 -19 45 8 17 25 10
34 -15 -19 44 7 17 25 10
34 -14 -19 44 6 16 25 10
34 -14 -19 44 6 16 25 10
33 -13 -19 43 5 16 25 11
32 -12 -19 43 6 17 26 12
31 -11 -18 44 7 18 27 13
30 -10 -18 44 8 19 28 14
30 -9 -18 44 9 20 29 15
29 -8 -16 45 10 21 30 16
29 -7 -15 45 10 21 30 16
28 -7 -14 45 10 21 30 16
28 -6 -13 45 10 21 30 16
28 -6 -12 45 10 21 30 16
26 -5 -10 46 11 21 30 16
25 -4 -9 46 12 21 29 15
24 -3 -8 46 12 20 27 13
23 -2 -7 46 13 20 26 12
22 0 -6 46 13 20 25 11
19 1 -4 45 15 19 24 10
17 1 -2 45 16 19 24 10
14 0 0 45 17 19 24 10
12 0 2 45 18 19 24 10
10 0 3 45 19 19 24 10
9 -2 4 44 20 18 24 11
8 0 4 42 20 17 23 10
8 1 5 40 20 17 23 9
7 2 5 38 20 16 22 8
7 3 5 37 20 16 22 8
4 4 7 36 20 15 20 6
2 3 9 35 19 14 18 5
-2 2 11 34 19 13 16 4
-4 1 13 33 18 12 14 3
-6 1 14 32 18 12 13 2
-8 0 15 29 17 10 12 1
-9 0 15 27 16 8 11 0
-10 0 15 25 15 7 10 -2
-11 0 15 23 14 5 9 -3
-12 0 15 21 14 4 8 -4
-13 -2 15 20 13 3 7 -5
-13 -2 15 19 12 2 6 -5
-13 -3 15 18 11 1 6 -5
-13 -3 15 17 10 0 5 -5
-13 -3 15 16 9 0 5 -5
-13 -4 14 15 8 -2 4 -6
-13 -4 14 14 8 -2 4 -7
-13 -5 14 13 8 -2 3 -8
-13 -5 14 12 8 -2 3 -9
-13 -5 14 12 8 -2 3 -9
-13 -6 14 11 7 -3 2 -10
-13 -6 13 11 7 -3 2 -10
-14 -6 13 10 7 -3 2 -10
-14 -6 12 10 7 -3 2 -10
-14 -6 12 10 7 -3 2 -10
-15 -5 11 9 7 -2 2 -10
-15 -5 12 9 7 -2 3 -9
-15 -5 12 10 8 0 4 -8
-15 -5 13 10 8 0 5 -7
-15 -5 13 10 8 0 5 -6
-16 -5 14 11 9 1 6 -5
-16 -4 14 11 9 1 5 -5
-16 -3 14 11 9 1 5 -6
-16 -2 14 11 9 1 4 -6
-16 -2 14 11 9 1 4 -6
-14 0 13 11 8 0 3 -7
-13 -2 13 11 8 0 3 -7
-12 -2 13 11 8 0 3 -7
-11 -3 13 11 8 0 3 -7
-10 -3 13 11 8 0 3 -7
-9 -4 13 10 9 -2 4 -8
-9 -4 12 10 9 -2 4 -8
-9 -4 12 10 8 -2 4 -9
-9 -4 11 10 8 -2 4 -9
-9 -4 11 10 8 -2 4 -9
-10 -3 10 9 7 -3 3 -10
-11 -3 11 9 8 -2 3 -9
-12 -4 12 10 9 0 3 -8
-13 -4 13 10 10 1 3 -7
-13 -4 14 10 10 1 3 -7
-14 -5 15 11 11 2 3 -6
-14 -4 14 11 10 1 3 -7
-14 -4 13 11 9 0 2 -8
-14 -3 12 11 8 -2 2 -9
-14 -3 12 11 8 -2 2 -9
-14 -2 11 10 7 -3 1 -10
-15 -3 12 10 8 -3 2 -10
-15 -3 12 10 8 -3 2 -9
-16 -4 13 10 9 -3 3 -9
-16 -4 13 10 9 -3 3 -9
-17 -5 14 11 9 -3 3 -9
-17 -4 14 10 8 -4 2 -10
-17 -3 13 9 6 -5 0 -11
-17 -2 13 8 5 -6 -2 -12
-17 0 13 8 4 -7 -3 -13
-17 1 12 7 3 -8 -4 -14
-16 0 12 7 4 -7 -4 -14
-16 -2 12 7 4 -7 -3 -14
-15 -3 12 7 5 -6 -3 -14
-15 -3 12 7 5 -6 -3 -14
-14 -4 12 6 6 -5 -2 -13
-14 -4 11 6 5 -6 -3 -13
-14 -4 10 5 5 -6 -3 -14
-14 -4 9 5 4 -7 -4 -14
-14 -4 9 5 4 -7 -4 -14
-14 -5 8 4 3 -8 -5 -14
-14 -6 9 4 3 -8 -4 -13
-14 -6 9 4 3 -8 -3 -12
-14 -7 10 4 3 -8 -2 -11
-14 -7 10 4 3 -8 -2 -10
-15 -8 11 5 4 -7 0 -9
-15 -8 11 5 4 -7 0 -10
-15 -8 11 5 4 -7 -2 -10
-15 -8 11 5 4 -7 -2 -11
-15 -8 11 5 4 -7 -2 -11
-14 -9 12 6 3 -7 -3 -12
-14 -9 12 6 3 -7 -3 -12
-14 -9 12 6 3 -7 -3 -12
-14 -9 12 6 3 -7 -3 -12
-14 -9 12 6 3 -7 -3 -12
-14 -8 11 5 2 -8 -2 -13
-14 -7 11 5 2 -8 -2 -13
-14 -6 11 5 2 -8 -2 -13
-14 -5 11 5 2 -8 -2 -13
-14 -4 11 5 2 -8 -2 -13
-14 -3 12 6 3 -7 -2 -13
-14 -2 13 7 4 -6 0 -12
-14 -2 13 8 5 -5 0 -11
-14 0 14 9 6 -4 1 -10
-14 0 14 10 7 -4 1 -10
-13 2 15 11 8 -3 2 -8
-13 5 16 12 9 -2 3 -7
-12 7 17 13 9 0 4 -6
-12 9 18 14 10 1 5 -5
-12 11 19 15 10 1 5 -4
-11 12 20 16 11 2 6 -3
-10 12 20 16 12 3 6 -3
-9 13 20 17 12 3 6 -4
-8 13 20 17 13 4 6 -4
-7 13 20 17 13 4 6 -4
-6 15 18 18 14 5 7 -5
-6 16 16 17 14 5 7 -4
-6 17 14 16 14 5 7 -4
-6 18 13 15 14 5 7 -3
-6 19 11 14 14 5 7 -3
-6 20 10 13 14 5 7 0
-5 21 9 14 15 6 8 1
-3 22 9 15 16 7 9 2
0 23 8 16 17 9 11 3
1 23 8 16 18 10 12 4
2 23 7 17 19 11 13 5
2 22 7 17 18 10 13 5
2 21 7 17 18 9 13 6
2 20 7 17 17 8 13 6
2 19 7 17 17 8 13 6
3 17 8 16 15 7 11 6
3 15 7 14 13 6 9 5
2 13 6 12 11 5 7 4
2 12 5 10 10 4 6 2
2 10 4 8 8 3 4 1
0 9 3 7 7 2 3 0
-3 8 3 7 7 2 3 0
-5 7 4 7 7 2 3 0
-7 6 4 7 7 2 3 0
-9 5 4 7 7 2 3 0
-11 2 5 7 7 1 2 -2
-13 -2 6 6 6 0 1 -2
-15 -4 6 6 5 -2 1 -2
-17 -7 7 5 4 -3 0 -2
-19 -10 7 5 4 -4 0 -2
-20 -11 8 4 2 -5 -3 -3
-19 -11 7 2 1 -7 -5 -5
-18 -11 6 1 0 -8 -7 -7
-17 -11 5 0 -3 -9 -9 -9
-16 -11 5 -2 -4 -10 -11 -11
-15 -11 4 -3 -5 -11 -12 -12
-15 -11 4 -4 -6 -12 -13 -13
-15 -12 3 -5 -6 -12 -13 -13
-15 -12 3 -6 -7 -13 -14 -14
-15 -12 3 -6 -7 -13 -14 -14
-16 -13 2 -7 -8 -14 -15 -15
-16 -13 2 -7 -8 -14 -15 -15
-17 -13 2 -7 -8 -14 -15 -15
-17 -13 2 -7 -8 -14 -15 -15
-17 -13 2 -7 -8 -14 -15 -15
-18 -13 3 -7 -8 -14 -15 -14
-18 -13 3 -7 -8 -14 -15 -14
-18 -14 3 -7 -8 -14 -15 -14
-18 -14 3 -7 -8 -14 -15 -14
-18 -14 3 -7 -8 -14 -15 -14
-18 -15 4 -7 -9 -14 -15 -15
-18 -15 4 -7 -9 -14 -15 -14
-18 -15 4 -7 -9 -13 -15 -14
-18 -15 4 -7 -9 -13 -15 -13
-18 -15 4 -7 -9 -13 -15 -13
-17 -17 3 -5 -7 -12 -14 -12
-17 -18 4 -2 -6 -12 -14 -13
-17 -19 5 2 -4 -12 -14 -13
-17 -21 6 5 -2 -12 -14 -14
-17 -22 7 8 0 -12 -14 -14
-16 -23 13 21 9 -11 -14 -15
-15 -23 20 36 19 -8 -13 -15
-14 -22 27 53 30 -5 -12 -15
-12 -22 34 69 40 0 -11 -15
-11 -22 42 85 51 3 -10 -15
-5 -12 43 88 58 14 2 -6
4 0 42 86 64 28 15 6
11 11 39 84 70 43 28 17
19 23 37 82 75 57 42 29
26 34 36 80 81 71 56 40
34 56 23 54 84 89 79 66
44 79 7 21 82 108 107 96
52 104 -11 -12 81 128 134 125
61 128 -27 -45 80 147 160 154
70 151 -44 -78 79 167 188 183
70 159 -59 -115 62 167 194 194
66 161 -74 -154 39 160 196 199
62 164 -90 -193 18 154 197 204
59 168 -104 -231 -4 147 198 210
55 171 -119 -270 -26 141 199 215
40 149 -124 -285 -51 106 165 187
22 120 -127 -294 -76 64 120 149
5 91 -128 -302 -101 21 74 110
-14 62 -130 -310 -127 -22 29 72
-32 32 -132 -318 -152 -64 -17 33
-40 20 -132 -310 -158 -78 -34 15
-47 13 -130 -295 -158 -85 -45 2
-53 6 -127 -280 -157 -91 -54 -12
-58 -2 -124 -266 -157 -96 -64 -25
-64 -9 -122 -252 -157 -102 -73 -38
-61 -11 -110 -225 -142 -96 -71 -39
-54 -11 -95 -194 -123 -85 -63 -35
-48 -12 -79 -164 -105 -74 -56 -32
-40 -12 -64 -135 -87 -63 -49 -29
-33 -12 -49 -104 -68 -52 -40 -25
-30 -13 -39 -89 -58 -46 -37 -24
-28 -14 -32 -76 -50 -40 -34 -23
-25 -15 -25 -64 -41 -36 -32 -23
-23 -16 -18 -53 -34 -31 -29 -22
-21 -17 -11 -40 -26 -27 -27 -22
-20 -18 -8 -34 -23 -25 -26 -21
-20 -19 -5 -30 -21 -24 -25 -20
-21 -20 -2 -26 -19 -23 -24 -20
-21 -21 1 -22 -17 -22 -23 -19
-21 -21 4 -18 -15 -22 -22 -19
-22 -22 5 -17 -14 -21 -21 -18
-22 -22 6 -16 -13 -21 -21 -18
-22 -22 6 -15 -12 -20 -22 -18
-22 -22 7 -14 -11 -20 -22 -18
-22 -22 7 -13 -10 -20 -22 -18
-23 -22 8 -11 -9 -19 -22 -18
-22 -22 8 -10 -9 -17 -21 -17
-21 -21 8 -8 -9 -16 -20 -17
-20 -21 8 -6 -9 -15 -18 -16
-19 -21 8 -5 -9 -14 -17 -16
-18 -20 9 -4 -9 -13 -16 -15
-18 -20 9 -4 -8 -13 -16 -15
-17 -21 10 -4 -7 -13 -17 -15
-17 -21 10 -4 -6 -13 -17 -15
-17 -21 10 -4 -5 -13 -17 -15
-16 -22 11 -5 -4 -13 -18 -14
-15 -22 10 -6 -6 -14 -18 -14
-14 -21 9 -6 -7 -14 -19 -15
-13 -21 8 -7 -8 -15 -19 -15
-12 -21 7 -7 -9 -15 -19 -15
-11 -20 6 -8 -9 -16 -20 -16
-11 -20 7 -7 -8 -15 -19 -16
-12 -19 8 -7 -7 -15 -19 -16
-12 -19 8 -6 -5 -14 -18 -16
-12 -19 9 -6 -4 -14 -18 -16
-13 -18 10 -5 -3 -13 -17 -16
-14 -18 10 -5 -3 -13 -17 -15
-14 -18 10 -4 -3 -13 -17 -15
-15 -18 10 -4 -3 -13 -17 -14
-15 -18 10 -4 -3 -13 -17 -14
-16 -19 11 -3 -4 -12 -16 -13
-15 -19 11 -3 -3 -12 -16 -13
-14 -18 11 -3 -2 -12 -16 -13
-13 -18 11 -3 -2 -12 -16 -13
-12 -18 11 -3 0 -12 -16 -13
-11 -17 10 -3 1 -11 -15 -13
-11 -17 10 -3 0 -11 -15 -13
-11 -16 9 -3 -2 -11 -15 -13
-11 -16 9 -3 -3 -11 -15 -13
-11 -16 9 -3 -4 -11 -15 -13
-10 -15 8 -3 -5 -12 -16 -12
-8 -15 8 -2 -4 -12 -16 -12
-7 -14 8 0 -3 -11 -16 -12
-6 -14 8 0 -3 -11 -16 -12
-5 -14 8 1 -2 -11 -16 -12
-4 -13 8 2 0 -10 -16 -13
-4 -15 8 2 0 -10 -16 -13
-5 -16 8 3 0 -10 -16 -13
-5 -17 8 3 0 -10 -16 -13
-5 -18 8 3 0 -10 -16 -13
-6 -19 7 4 -2 -9 -16 -14
-5 -18 6 5 0 -8 -15 -13
-4 -17 6 5 0 -8 -14 -13
-3 -16 5 6 1 -7 -14 -12
-2 -15 5 6 1 -7 -13 -12
0 -14 4 7 2 -6 -12 -11
1 -15 4 8 2 -6 -12 -11
1 -16 3 9 2 -6 -12 -10
2 -17 3 9 2 -6 -12 -10
2 -18 3 10 2 -6 -12 -10
3 -19 2 11 1 -6 -12 -9
3 -18 2 11 1 -6 -12 -9
4 -18 1 11 2 -6 -12 -9
4 -17 1 11 2 -6 -12 -9
4 -17 1 11 2 -6 -12 -9
5 -16 0 12 3 -5 -11 -8
7 -15 -2 13 2 -5 -11 -8
8 -15 -3 13 1 -6 -11 -8
9 -14 -3 14 1 -6 -11 -8
10 -14 -4 14 0 -6 -11 -8
12 -13 -5 15 -2 -7 -10 -9
14 -15 -5 16 0 -6 -9 -8
16 -16 -5 17 1 -5 -8 -7
18 -17 -5 17 1 -5 -7 -6
20 -18 -5 18 2 -4 -6 -5
21 -19 -6 19 3 -3 -5 -4
21 -17 -7 19 2 -3 -5 -4
22 -16 -8 19 1 -3 -4 -4
22 -14 -9 19 1 -3 -4 -4
22 -13 -10 19 0 -3 -4 -4
24 -12 -11 20 -2 -3 -3 -3
27 -13 -12 20 -2 -3 -3 -3
30 -14 -13 19 -3 -3 -3 -3
32 -15 -14 19 -3 -3 -3 -3
35 -16 -15 19 -3 -3 -3 -3
36 -17 -16 19 -4 -4 -3 -2
34 -17 -15 20 -3 -2 -2 1
33 -16 -14 22 -2 0 1 2
32 -16 -14 23 -2 2 2 4
31 -16 -13 25 0 3 4 6
31 -15 -12 26 1 4 5 7
33 -13 -14 24 1 4 5 6
35 -12 -15 23 1 4 5 6
38 -10 -17 22 1 4 5 5
40 -9 -18 21 1 4 5 5
42 -8 -19 20 0 4 5 4
42 -7 -19 20 -2 4 6 5
42 -6 -20 20 -3 4 7 5
42 -6 -20 20 -3 4 8 6
42 -5 -20 20 -4 4 9 6
42 -4 -21 21 -5 3 10 7
40 -4 -20 21 -4 5 10 8
39 -4 -19 22 -3 6 11 8
39 -4 -19 22 -3 7 11 9
38 -4 -18 22 -2 8 11 9
37 -3 -17 23 0 9 12 10
35 -2 -15 24 1 10 13 10
34 0 -14 25 2 11 13 10
32 0 -12 26 3 11 14 10
31 1 -11 27 4 12 14 10
30 2 -10 28 5 13 15 11
30 2 -10 28 6 13 14 10
30 3 -9 28 6 12 14 9
30 3 -9 28 7 12 13 9
30 3 -9 28 7 12 13 8
30 4 -7 28 8 11 12 7
28 4 -5 29 10 11 12 7
25 5 -3 30 11 12 13 8
23 6 0 31 13 13 14 8
20 6 2 32 14 13 14 8
18 7 4 33 15 14 15 9
16 7 6 33 16 14 14 7
13 7 8 33 17 13 12 6
11 7 10 33 17 13 11 4
8 7 12 33 18 13 10 3
7 6 13 33 19 12 9 2
6 6 13 32 18 12 8 1
5 6 14 31 17 11 7 0
5 6 15 31 17 11 6 0
4 6 15 30 16 11 5 -2
3 5 16 29 15 9 3 -4
3 5 16 27 15 8 2 -5
3 5 16 26 15 6 0 -7
3 5 16 24 15 5 -2 -9
3 5 16 23 15 3 -4 -11
2 5 17 22 14 2 -5 -12
-2 4 18 22 14 2 -5 -12
-5 3 19 21 13 2 -5 -11
-8 2 19 20 12 2 -5 -10
-11 1 20 20 12 2 -5 -10
-12 0 21 19 11 1 -4 -9
-11 0 21 19 11 1 -4 -9
-10 0 20 18 11 1 -4 -9
-9 0 19 17 11 1 -4 -9
-8 0 19 17 11 1 -4 -9
-7 0 18 16 10 0 -5 -9
-7 1 18 16 9 0 -5 -10
-7 2 17 15 8 -2 -6 -11
-7 2 16 15 8 -3 -7 -12
-7 3 16 15 7 -3 -7 -13
-7 4 15 14 6 -4 -8 -14
-7 3 15 14 7 -4 -8 -14
-8 1 16 14 9 -4 -8 -13
-9 0 17 14 10 -4 -8 -12
-9 -2 17 14 11 -4 -8 -12
-10 -3 18 14 12 -3 -8 -11
-8 -2 16 14 11 -3 -8 -11
-7 1 15 14 10 -3 -8 -11
-5 2 13 14 9 -3 -8 -11
-4 3 12 14 8 -3 -8 -11
-3 4 11 14 7 -2 -7 -12
-4 4 12 14 8 -2 -7 -12
-6 3 13 15 9 0 -6 -12
-7 3 13 15 9 0 -6 -12
-8 3 14 15 10 0 -6 -12
-9 2 15 16 11 1 -5 -12
-9 2 15 16 11 1 -5 -12
-9 2 15 15 10 0 -5 -12
-9 2 15 15 9 0 -5 -12
-9 2 15 15 9 0 -5 -12
-9 1 14 14 8 -2 -6 -13
-9 1 14 14 8 -2 -6 -13
-8 2 14 13 8 -2 -6 -14
-7 2 14 13 8 -2 -6 -14
-7 2 14 13 8 -2 -6 -14
-6 3 14 12 9 -3 -7 -15
-7 2 14 12 9 -3 -7 -15
-8 1 14 13 9 -2 -6 -14
-9 0 14 13 9 0 -5 -13
-10 -2 14 13 9 0 -5 -13
-11 -3 15 14 9 1 -4 -12
-10 -3 14 13 9 0 -4 -13
-8 -2 13 12 9 -2 -5 -14
-7 0 13 12 9 -2 -6 -15
-6 0 12 11 9 -3 -6 -16
-5 1 11 10 8 -4 -7 -17
-6 1 11 10 8 -4 -7 -17
-8 0 11 10 8 -4 -7 -16
-9 0 11 10 8 -4 -7 -16
-10 0 11 10 8 -4 -7 -16
-11 -2 12 11 8 -5 -7 -15
-11 -2 12 11 8 -5 -7 -15
-10 -2 12 10 7 -6 -8 -16
-9 -2 12 10 6 -6 -8 -17
-9 -2 12 10 6 -6 -8 -17
-8 -3 13 9 5 -7 -9 -18
-8 -3 13 9 5 -7 -9 -18
-7 -2 12 8 4 -8 -9 -18
-6 -2 11 8 4 -9 -9 -18
-6 -2 11 8 4 -9 -9 -18
-5 0 10 7 3 -10 -10 -19
-6 -2 10 7 3 -10 -10 -18
-7 -3 11 7 4 -9 -9 -17
-7 -4 11 7 4 -8 -8 -17
-8 -5 11 7 4 -8 -8 -16
-9 -6 12 8 5 -7 -7 -15
-9 -6 12 8 4 -7 -8 -16
-9 -6 12 7 3 -8 -9 -17
-9 -6 12 7 3 -9 -9 -17
-9 -6 12 7 2 -9 -10 -18
-10 -6 11 6 1 -10 -11 -19
-10 -6 11 6 1 -10 -12 -19
-10 -6 10 5 0 -11 -13 -20
-10 -6 10 4 0 -11 -14 -20
-10 -6 10 4 0 -11 -15 -20
-10 -5 9 3 -2 -12 -16 -21
-10 -5 9 3 -2 -12 -16 -21
-9 -6 9 3 -3 -12 -15 -21
-8 -6 9 3 -3 -12 -15 -21
-8 -6 9 3 -3 -12 -15 -21
-7 -7 9 3 -4 -13 -14 -20
-7 -7 9 3 -4 -13 -14 -20
-7 -6 9 3 -3 -12 -14 -20
-7 -5 9 3 -3 -12 -14 -20
-7 -5 9 3 -3 -12 -14 -20
-7 -4 8 2 -2 -11 -15 -21
-7 -4 8 2 -2 -11 -14 -20
-8 -5 9 3 -2 -11 -13 -18
-9 -5 10 3 -2 -11 -13 -17
-9 -5 10 3 -2 -11 -12 -16
-10 -6 11 4 -2 -12 -11 -15
-9 -6 11 4 -2 -12 -11 -15
-8 -7 12 3 0 -12 -11 -15
-7 -7 12 3 0 -12 -11 -15
-6 -7 12 3 0 -12 -11 -15
-5 -7 13 2 1 -11 -10 -14
-5 -6 13 3 1 -11 -10 -14
-5 -4 13 4 1 -11 -9 -13
-5 -2 13 5 1 -11 -9 -13
-5 1 13 6 1 -11 -9 -13
-6 2 12 7 0 -10 -8 -12
-6 4 14 8 2 -9 -8 -12
-5 5 15 9 4 -7 -7 -12
-4 6 16 9 5 -6 -7 -12
-4 8 18 10 7 -5 -7 -12
-3 9 19 11 8 -4 -6 -13
-3 9 19 13 9 -3 -4 -12
-3 10 20 15 10 0 -3 -10
-3 10 20 16 10 1 -2 -9
-3 10 20 18 11 2 1 -8
-3 11 21 19 12 3 2 -7
-3 12 20 18 12 3 2 -7
-2 14 19 17 12 2 1 -6
0 15 19 17 12 1 0 -6
0 16 18 16 12 1 0 -6
2 18 16 15 13 0 -2 -5
4 20 14 15 13 0 -2 -5
6 22 12 14 13 0 0 -4
8 24 10 14 13 0 1 -4
10 26 8 14 13 0 1 -4
11 27 7 13 13 1 2 -3
12 26 7 14 14 2 3 -3
13 24 8 15 15 3 4 -2
14 23 8 15 15 4 4 -2
15 22 8 16 16 5 5 -2
15 21 9 17 17 6 6 0
13 19 9 17 17 6 6 0
11 17 9 17 16 5 6 1
9 15 9 17 15 5 6 2
7 13 9 17 15 5 6 2
5 12 8 15 14 4 6 2
5 11 7 13 12 2 4 0
6 10 6 11 10 0 2 -4
6 10 6 9 8 -2 0 -6
6 9 5 7 6 -4 -3 -8
6 7 4 6 5 -5 -4 -10
4 4 4 6 4 -6 -4 -11
1 1 4 5 3 -7 -5 -12
-3 -2 4 5 3 -7 -6 -12
-5 -5 4 5 2 -8 -6 -13
-7 -7 5 4 1 -9 -7 -14
-7 -7 5 3 1 -9 -8 -14
-7 -8 6 2 0 -10 -9 -15
-7 -8 6 2 -2 -11 -9 -15
-7 -8 6 1 -2 -11 -10 -15
-8 -9 7 0 -3 -12 -11 -16
-8 -9 7 0 -4 -12 -11 -16
-8 -10 6 -2 -5 -13 -12 -17
-8 -11 6 -3 -5 -14 -13 -17
-8 -11 6 -3 -6 -14 -13 -17
-9 -12 5 -4 -7 -15 -14 -18
-10 -13 5 -4 -7 -15 -13 -18
-11 -14 6 -4 -7 -14 -12 -18
-11 -14 6 -4 -7 -14 -12 -18
-12 -15 6 -4 -7 -14 -11 -18
-13 -16 7 -4 -6 -13 -10 -17
-12 -16 7 -4 -6 -13 -11 -18
-11 -16 6 -5 -7 -14 -12 -19
-11 -16 5 -5 -8 -15 -12 -19
-10 -16 5 -5 -8 -15 -13 -20
-9 -16 4 -6 -9 -16 -14 -21
-10 -15 4 -6 -9 -16 -14 -21
-11 -14 4 -6 -9 -16 -15 -20
-11 -13 4 -6 -9 -16 -15 -20
-12 -12 4 -6 -9 -16 -15 -20
-13 -11 4 -6 -8 -16 -16 -19
-13 -11 4 -6 -8 -16 -16 -19
-12 -11 3 -6 -8 -16 -16 -19
-12 -11 2 -6 -8 -16 -16 -19
-12 -11 2 -6 -8 -16 -16 -19
-11 -12 2 0 -7 -16 -17 -20
-9 -16 6 9 -3 -14 -17 -21
-7 -20 10 18 2 -13 -17 -23
-6 -24 13 26 6 -12 -17 -24
-4 -28 17 35 10 -10 -17 -25
-2 -27 20 46 17 -6 -16 -25
2 -21 24 58 27 2 -11 -22
5 -14 28 70 37 10 -6 -18
7 -7 32 81 48 17 -2 -15
10 0 36 94 58 24 4 -12
17 11 35 95 64 35 16 0
27 26 27 84 66 50 34 19
38 42 20 71 68 65 54 38
50 56 13 60 70 79 72 57
60 71 5 49 72 94 91 76
69 89 -7 28 74 108 111 99
77 109 -23 0 74 122 134 123
85 129 -38 -29 74 137 155 149
92 149 -55 -58 74 151 177 174
100 170 -71 -87 74 165 199 199
100 174 -82 -114 64 164 202 209
92 159 -90 -141 44 145 185 200
82 145 -97 -166 23 126 168 191
73 131 -105 -193 3 106 150 182
65 117 -112 -219 -18 87 133 174
49 99 -116 -237 -41 59 105 149
25 77 -116 -246 -66 23 65 108
2 56 -115 -256 -92 -13 26 67
-22 34 -114 -265 -116 -49 -13 27
-47 13 -114 -274 -142 -85 -53 -14
-58 1 -112 -269 -150 -100 -72 -35
-56 -2 -109 -248 -140 -93 -68 -36
-54 -4 -106 -227 -129 -86 -65 -36
-52 -6 -103 -205 -118 -78 -62 -37
-50 -8 -100 -184 -107 -71 -58 -38
-46 -10 -93 -162 -96 -65 -54 -38
-39 -11 -80 -139 -85 -59 -50 -36
-34 -12 -68 -115 -72 -53 -46 -34
-28 -14 -56 -92 -61 -47 -41 -31
-22 -15 -44 -68 -49 -40 -37 -29
-19 -16 -34 -54 -41 -35 -34 -27
-19 -16 -30 -47 -37 -33 -33 -27
-18 -16 -25 -40 -33 -31 -32 -27
-17 -16 -21 -34 -29 -28 -30 -27
-17 -16 -16 -28 -25 -26 -29 -27
-16 -16 -13 -23 -22 -24 -28 -26
-16 -16 -11 -19 -20 -22 -27 -25
-16 -16 -9 -15 -19 -21 -27 -25
-16 -16 -7 -11 -17 -20 -26 -24
-16 -16 -5 -8 -15 -18 -25 -23
-17 -16 -4 -5 -14 -17 -24 -22
-17 -16 -4 -5 -13 -16 -24 -22
-16 -16 -3 -5 -13 -15 -24 -22
-15 -16 -2 -4 -12 -13 -23 -22
-15 -16 -2 -4 -11 -12 -23 -22
-14 -17 0 -3 -10 -11 -22 -21
-13 -17 0 -3 -10 -11 -22 -21
-13 -17 0 -3 -10 -12 -22 -21
-12 -17 0 -2 -10 -13 -21 -20
-11 -17 0 -2 -10 -13 -21 -20
-10 -17 -2 0 -11 -14 -20 -19
-11 -17 -2 1 -10 -14 -20 -19
-11 -17 -2 2 -9 -13 -19 -19
-12 -17 0 3 -8 -12 -18 -18
-13 -17 0 4 -7 -12 -18 -18
-14 -18 1 5 -6 -11 -17 -17
-14 -16 1 5 -6 -11 -18 -17
-14 -15 1 5 -7 -11 -18 -18
-14 -14 0 5 -8 -12 -19 -19
-14 -12 0 5 -8 -12 -20 -19
-13 -11 -2 6 -9 -13 -21 -20
-13 -12 -2 6 -9 -12 -21 -20
-12 -12 -2 6 -8 -12 -20 -19
-11 -13 -2 6 -7 -11 -19 -18
-11 -14 -2 6 -7 -10 -19 -18
-10 -15 0 6 -6 -9 -18 -17
-10 -14 0 6 -6 -9 -18 -17
-10 -14 0 6 -6 -9 -18 -17
-10 -13 -2 6 -7 -9 -18 -17
-10 -12 -2 6 -7 -9 -18 -17
-10 -11 -3 6 -8 -9 -17 -16
-9 -11 -3 6 -8 -9 -17 -16
-8 -11 -3 6 -8 -9 -17 -17
-6 -11 -3 6 -8 -9 -18 -18
-5 -11 -3 6 -8 -9 -18 -18
-4 -12 -3 6 -7 -8 -19 -19
-5 -12 -3 6 -7 -8 -19 -19
-6 -13 -3 6 -7 -8 -19 -19
-7 -14 -4 6 -7 -8 -19 -19
-8 -14 -4 6 -7 -8 -19 -19
-9 -15 -5 7 -7 -7 -19 -18
-6 -15 -5 7 -7 -7 -19 -18
-4 -15 -5 7 -7 -7 -19 -18
-2 -14 -5 7 -7 -7 -19 -18
1 -14 -5 7 -7 -7 -19 -18
3 -13 -6 6 -6 -6 -18 -17
1 -13 -6 7 -6 -6 -18 -17
0 -13 -6 8 -6 -6 -18 -17
-2 -12 -6 9 -6 -5 -18 -16
-4 -12 -6 10 -6 -5 -18 -16
-5 -11 -7 11 -6 -4 -17 -15
-5 -11 -8 11 -6 -4 -16 -15
-5 -11 -8 10 -6 -3 -16 -14
-5 -12 -9 9 -6 -2 -15 -13
-5 -12 -10 9 -6 -2 -14 -13
-5 -13 -11 8 -5 0 -13 -12
-3 -13 -11 8 -6 0 -13 -12
1 -13 -12 8 -7 0 -14 -12
3 -14 -13 8 -8 -2 -15 -12
6 -14 -13 8 -9 -2 -15 -12
8 -15 -14 8 -10 -3 -16 -11
8 -15 -14 8 -10 -3 -16 -11
8 -15 -14 8 -10 -3 -16 -11
8 -15 -14 8 -9 -3 -15 -11
8 -15 -14 8 -9 -3 -15 -11
8 -14 -15 8 -8 -2 -14 -12
9 -14 -15 8 -8 -2 -14 -12
9 -14 -16 8 -9 -2 -14 -12
10 -13 -17 9 -10 -3 -14 -11
11 -13 -17 9 -10 -3 -14 -11
12 -12 -18 10 -11 -4 -13 -10
15 -13 -19 10 -11 -4 -13 -10
17 -14 -20 10 -11 -4 -13 -10
20 -15 -21 9 -11 -3 -12 -9
22 -16 -22 9 -11 -3 -12 -9
24 -17 -23 8 -12 -2 -11 -8
24 -16 -24 8 -12 -2 -11 -8
24 -16 -24 8 -13 -2 -11 -8
24 -15 -25 8 -14 -2 -10 -7
24 -14 -26 8 -14 -2 -10 -7
24 -13 -27 7 -15 0 -9 -6
27 -13 -30 6 -16 0 -9 -6
31 -13 -32 5 -16 -2 -9 -6
34 -13 -35 4 -17 -3 -10 -7
37 -13 -37 3 -18 -3 -10 -7
40 -13 -39 2 -19 -4 -11 -8
39 -12 -38 2 -19 -3 -9 -5
38 -12 -38 3 -18 0 -7 -3
36 -11 -37 4 -17 1 -5 0
35 -10 -36 4 -17 3 -4 2
34 -9 -35 5 -16 4 -2 4
34 -9 -36 5 -16 4 -2 4
34 -9 -37 5 -16 4 -2 4
34 -10 -38 4 -16 4 -2 5
34 -10 -39 4 -16 4 -2 5
34 -11 -40 3 -16 5 -2 6
36 -10 -40 2 -17 5 -2 6
37 -8 -40 2 -17 4 -2 6
39 -7 -41 1 -18 3 -3 5
42 -5 -41 0 -19 3 -3 5
43 -4 -43 -2 -20 2 -4 4
42 -4 -41 0 -18 4 -2 6
40 -4 -40 0 -17 6 1 8
38 -3 -38 1 -15 8 3 10
37 -3 -37 2 -13 9 4 11
36 -2 -36 3 -12 11 6 13
35 -2 -35 4 -12 11 6 13
35 0 -35 5 -12 11 6 12
34 1 -34 6 -11 10 5 11
33 1 -33 7 -11 10 5 11
32 2 -32 8 -10 9 4 10
31 4 -31 9 -9 9 4 10
29 6 -31 10 -8 9 4 10
28 8 -30 11 -7 10 4 10
26 9 -29 12 -6 10 4 10
25 11 -28 13 -5 11 4 10
24 10 -25 15 -3 11 4 10
22 9 -23 17 0 12 4 10
21 8 -20 19 2 13 4 11
19 7 -18 21 4 13 4 11
18 6 -16 23 6 14 5 12
17 6 -15 23 7 14 5 11
17 6 -14 23 8 14 5 10
16 6 -12 23 9 14 4 9
15 6 -11 23 10 14 4 8
13 7 -10 22 11 14 3 7
10 6 -9 22 11 14 3 7
7 5 -7 23 11 14 3 7
4 4 -6 24 12 14 2 7
1 3 -4 24 12 14 2 7
-3 2 -3 25 13 15 1 7
-3 2 -3 25 13 15 0 6
-4 2 -3 24 13 15 0 5
-5 3 -3 23 13 14 -2 4
-5 3 -3 23 13 14 -3 3
-6 4 -2 22 12 13 -4 2
-7 3 -2 21 11 12 -6 1
-8 3 -2 19 10 11 -7 0
-9 2 -2 18 8 9 -9 -3
-10 1 -2 16 7 8 -10 -4
-11 0 -3 15 6 7 -12 -5
-10 0 -3 15 6 7 -12 -4
-10 0 -3 15 7 7 -11 -3
-9 0 -3 14 8 8 -10 -2
-8 0 -3 14 8 8 -10 0
-7 1 -3 13 9 9 -9 1
-7 1 -3 13 9 9 -9 1
-8 1 -3 13 9 9 -9 1
-9 0 -3 13 9 9 -9 1
-9 0 -3 13 9 9 -9 1
-10 -2 -2 14 8 8 -10 2
-9 -2 -2 14 8 8 -10 2
-9 -2 -2 14 8 8 -10 2
-8 -2 -2 14 7 8 -10 1
-7 -2 -2 14 7 8 -10 1
-6 -2 -3 13 6 7 -11 0
-8 0 -3 13 6 7 -11 0
-9 1 -3 13 6 7 -10 1
-11 3 -4 14 7 8 -9 2
-12 4 -4 14 7 8 -9 2
-14 5 -5 15 8 9 -8 3
-13 3 -4 15 8 9 -8 3
-13 1 -3 15 8 10 -8 3
-12 -2 0 16 9 11 -7 3
-11 -4 1 16 9 11 -7 3
-10 -6 2 17 10 12 -6 4
-10 -6 2 17 10 12 -6 4
-10 -6 2 17 10 11 -6 4
-10 -6 2 17 10 10 -6 4
-10 -6 2 17 10 10 -6 4
-9 -5 1 17 9 9 -7 3
-9 -4 1 16 9 9 -8 2
-10 -3 1 16 9 8 -8 2
-10 -2 0 15 9 8 -9 1
-11 1 0 14 9 7 -10 0
-12 2 -2 13 8 6 -11 -2
-12 0 -2 13 8 6 -11 -2
-12 -3 0 13 8 6 -11 -2
-11 -4 0 13 8 6 -11 -2
-11 -6 1 13 8 6 -11 -2
-10 -8 2 13 7 5 -11 0
-10 -7 2 13 7 5 -11 0
-10 -7 2 13 7 5 -11 0
-10 -6 2 13 8 5 -11 0
-10 -5 2 13 8 5 -11 0
-10 -4 1 13 9 6 -10 1
-10 -4 1 13 9 5 -10 1
-10 -4 0 13 9 5 -10 0
-9 -4 0 13 8 4 -11 0
-9 -4 -2 13 8 3 -11 -2
-8 -4 -3 12 7 2 -12 -3
-8 -4 -3 12 7 2 -12 -3
-9 -4 -3 12 7 2 -12 -3
-9 -4 -3 12 7 1 -12 -3
-10 -4 -3 12 7 1 -12 -3
-11 -3 -2 11 6 0 -13 -4
-10 -3 -3 11 5 0 -13 -4
-10 -3 -3 11 4 0 -13 -4
-9 -3 -4 10 3 -2 -13 -5
-8 -3 -5 10 2 -2 -13 -5
-7 -2 -6 9 1 -3 -14 -6
-9 -2 -5 9 2 -3 -14 -5
-10 -3 -5 9 3 -2 -13 -4
-12 -3 -4 10 4 -2 -13 -3
-13 -4 -3 10 5 0 -12 -2
-15 -5 -2 11 6 1 -11 0
-14 -5 -2 11 5 0 -12 -2
-14 -5 -3 11 3 -3 -13 -3
-13 -6 -3 10 2 -4 -14 -4
-12 -6 -4 10 0 -6 -15 -6
-11 -7 -5 9 -2 -7 -16 -7
-11 -7 -4 9 0 -6 -15 -6
-11 -7 -3 9 1 -5 -14 -6
-11 -7 -2 9 2 -4 -13 -5
-11 -7 0 9 4 -2 -11 -4
-12 -6 1 8 5 0 -10 -3
-12 -6 1 8 4 -2 -11 -4
-13 -6 0 8 3 -2 -12 -5
-13 -6 0 8 2 -3 -13 -6
-14 -6 -2 8 1 -4 -14 -8
-15 -6 -3 9 0 -5 -15 -9
-14 -6 -3 8 0 -5 -15 -9
-13 -6 -3 7 0 -5 -15 -9
-12 -6 -3 6 0 -6 -15 -9
-11 -6 -3 5 0 -6 -15 -9
-10 -5 -3 4 -2 -7 -16 -9
-11 -5 -3 4 -2 -7 -16 -9
-11 -5 -3 4 -2 -7 -16 -9
-12 -4 -3 5 -3 -7 -16 -9
-13 -4 -3 5 -3 -7 -16 -9
-14 -3 -3 6 -4 -7 -16 -8
-12 -5 -3 6 -4 -7 -16 -9
-11 -6 -3 6 -4 -7 -16 -9
-9 -8 -3 6 -3 -7 -16 -10
-8 -9 -3 6 -3 -7 -16 -11
-6 -11 -4 5 -2 -7 -16 -12
-7 -11 -3 5 -2 -7 -16 -12
-9 -10 -2 6 -2 -7 -16 -12
-10 -10 0 6 -2 -7 -16 -12
-11 -9 2 7 -2 -7 -16 -12
-13 -8 3 8 0 -7 -15 -11
-12 -7 3 8 0 -7 -15 -11
-11 -6 2 8 0 -7 -14 -11
-10 -5 2 8 0 -8 -14 -10
-9 -3 1 8 0 -8 -13 -10
-8 -2 0 7 0 -9 -12 -9
-8 0 2 9 1 -7 -11 -8
-8 1 4 10 2 -6 -11 -8
-8 2 5 12 3 -4 -10 -7
-8 3 7 13 5 -3 -9 -6
-7 4 9 15 6 0 -8 -5
-7 6 9 15 7 1 -7 -5
-6 8 9 16 8 2 -6 -5
-6 10 10 16 9 3 -5 -4
-5 12 10 17 11 5 -4 -4
-4 14 11 18 12 6 -3 -3
-4 14 11 18 12 6 -3 -3
-4 14 11 18 12 6 -3 -3
-4 15 11 19 13 6 -3 -3
-4 15 11 19 13 6 -3 -3
-5 16 11 20 14 5 -3 -2
-4 16 10 19 14 5 -3 -2
-2 16 9 19 14 5 -2 -2
0 17 8 18 14 6 -2 0
1 17 7 17 14 6 0 0
3 18 6 16 14 7 1 1
4 19 5 17 14 8 2 2
5 20 5 17 15 10 3 4
6 21 4 18 15 11 4 5
8 23 3 19 16 12 5 6
9 24 2 20 17 14 6 8
9 23 2 19 17 13 5 7
9 21 2 19 17 12 5 5
10 20 1 18 16 11 4 4
10 19 1 17 16 9 3 3
11 17 0 16 15 8 2 1
10 16 0 15 14 7 1 0
8 14 0 14 12 5 -2 -3
7 12 -2 13 10 4 -3 -5
6 11 -2 11 9 3 -4 -6
4 9 -3 10 7 1 -6 -8
1 7 -3 10 7 1 -6 -8
-2 5 -2 9 6 1 -6 -9
-5 2 -2 8 5 0 -7 -9
-8 0 0 7 4 0 -7 -10
-10 -3 1 6 3 -2 -8 -11
-10 -5 1 6 2 -3 -8 -11
-10 -7 2 6 1 -5 -9 -11
-10 -8 2 5 0 -6 -10 -11
-10 -10 3 5 -2 -7 -11 -11
-10 -12 4 4 -3 -9 -12 -11
-10 -12 4 3 -3 -9 -12 -11
-10 -12 4 2 -3 -10 -12 -12
-11 -11 4 1 -4 -10 -13 -12
-11 -11 4 0 -4 -11 -13 -13
-12 -10 5 -2 -5 -12 -14 -14
-12 -10 5 -2 -5 -12 -14 -14
-12 -10 5 -2 -5 -12 -14 -15
-13 -11 6 -2 -6 -12 -15 -16
-13 -11 6 -2 -6 -12 -15 -17
-14 -12 7 -3 -7 -12 -16 -18
-14 -12 7 -3 -7 -12 -16 -18
-14 -12 7 -3 -7 -12 -16 -18
-14 -12 7 -3 -7 -12 -16 -18
-14 -12 7 -3 -7 -12 -16 -18
-15 -11 7 -4 -6 -13 -16 -17
-15 -11 7 -4 -6 -13 -16 -17
-15 -12 7 -4 -6 -13 -16 -16
-15 -12 7 -4 -6 -13 -16 -16
-15 -13 7 -4 -6 -13 -16 -15
-16 -14 7 -4 -7 -14 -15 -14
-16 -14 7 -4 -7 -14 -15 -14
-16 -13 7 -4 -7 -14 -15 -14
-15 -13 7 -4 -6 -14 -15 -14
-15 -12 7 -4 -6 -14 -15 -14
-14 -11 7 -4 -5 -13 -14 -14
-11 -13 8 0 -5 -14 -16 -17
-9 -14 9 4 -5 -16 -18 -20
-6 -16 10 7 -4 -17 -20 -23
-4 -18 12 10 -4 -18 -22 -25
0 -20 14 16 0 -19 -24 -28
0 -18 20 30 11 -12 -19 -27
0 -16 27 46 22 -5 -14 -26
-2 -14 33 60 33 4 -10 -25
-2 -12 39 75 45 11 -5 -24
0 -8 46 88 54 19 2 -21
10 5 43 86 59 30 15 -7
20 16 39 84 63 42 28 8
30 28 37 81 67 53 42 21
40 39 34 79 71 65 55 35
51 54 28 72 75 77 71 53
60 76 13 47 77 97 99 82
70 100 -3 21 80 116 127 113
80 122 -18 -5 82 136 155 143
91 146 -33 -30 86 155 183 174
98 164 -48 -57 85 170 205 198
91 162 -58 -90 66 159 202 200
85 160 -68 -122 48 149 199 201
77 158 -77 -156 29 140 197 203
70 156 -88 -189 11 130 194 205
60 149 -96 -218 -10 114 183 200
38 122 -96 -231 -35 74 137 158
17 96 -96 -244 -62 33 91 117
-5 69 -97 -258 -89 -7 45 76
-26 43 -97 -271 -115 -47 -2 35
-45 20 -98 -280 -137 -79 -40 1
-49 14 -97 -267 -134 -80 -46 -9
-52 7 -95 -254 -132 -82 -51 -19
-56 0 -94 -240 -129 -83 -57 -28
-60 -7 -93 -227 -127 -85 -62 -37
-62 -13 -90 -212 -121 -86 -66 -46
-55 -13 -78 -186 -109 -78 -59 -43
-48 -13 -68 -160 -96 -70 -53 -38
-40 -13 -57 -135 -82 -63 -46 -35
-33 -13 -47 -109 -70 -56 -38 -32
-27 -13 -36 -86 -58 -49 -32 -29
-25 -14 -29 -74 -51 -44 -28 -27
-23 -15 -22 -63 -43 -38 -25 -26
-21 -16 -15 -51 -35 -33 -22 -24
-19 -17 -7 -39 -28 -28 -18 -22
-17 -18 0 -29 -21 -23 -15 -20
-17 -17 1 -26 -21 -23 -15 -20
-17 -16 3 -23 -20 -23 -15 -20
-17 -15 5 -20 -19 -22 -15 -20
-17 -13 6 -17 -18 -22 -15 -20
-17 -12 8 -14 -17 -21 -16 -20
-17 -13 9 -13 -15 -21 -16 -20
-17 -14 11 -11 -14 -20 -16 -20
-17 -15 12 -9 -12 -20 -15 -20
-17 -17 13 -8 -10 -19 -15 -20
-16 -18 15 -6 -8 -18 -14 -19
-16 -18 15 -6 -8 -18 -14 -19
-15 -18 15 -6 -8 -18 -14 -19
-15 -18 15 -5 -8 -18 -14 -19
-14 -18 15 -5 -8 -18 -14 -19
-13 -17 14 -4 -9 -18 -13 -19
-13 -17 14 -4 -9 -18 -13 -19
-12 -17 15 -3 -9 -18 -13 -19
-12 -17 15 -2 -8 -17 -13 -18
-11 -17 16 0 -8 -17 -13 -18
-10 -17 17 1 -7 -16 -12 -17
-10 -17 17 1 -7 -16 -12 -17
-10 -17 17 2 -6 -15 -11 -16
-11 -16 16 3 -5 -14 -10 -15
-11 -16 16 4 -4 -13 -9 -14
-12 -15 15 5 -3 -12 -8 -13
-11 -15 15 5 -3 -12 -8 -13
-10 -15 15 5 -4 -13 -8 -14
-9 -16 15 5 -4 -14 -9 -15
-8 -16 15 5 -5 -15 -9 -16
-6 -17 16 4 -6 -16 -10 -17
-6 -17 16 4 -6 -16 -10 -17
-6 -17 15 4 -6 -16 -9 -16
-6 -17 15 5 -5 -15 -9 -15
-6 -17 14 5 -5 -15 -8 -14
-5 -16 13 6 -4 -14 -7 -13
-6 -16 13 6 -4 -14 -7 -13
-7 -16 14 6 -4 -14 -7 -13
-8 -15 14 6 -3 -13 -6 -13
-9 -15 15 6 -3 -13 -6 -13
-10 -14 16 6 -2 -12 -5 -14
-10 -14 16 6 -2 -12 -5 -14
-9 -14 15 6 -2 -12 -5 -14
-8 -14 14 6 -3 -13 -5 -14
-7 -14 13 6 -3 -13 -5 -14
-6 -15 12 6 -4 -14 -6 -14
-6 -15 12 7 -4 -14 -6 -14
-6 -15 12 8 -3 -14 -6 -14
-6 -14 12 9 -3 -14 -5 -14
-6 -14 12 10 -2 -14 -5 -14
-5 -13 11 12 0 -13 -4 -15
-5 -13 11 12 0 -13 -4 -14
-5 -13 11 12 0 -13 -4 -12
-5 -13 11 12 0 -12 -3 -10
-5 -13 11 12 0 -12 -3 -9
-4 -13 12 13 0 -11 -2 -7
-4 -13 11 13 0 -11 -2 -7
-3 -13 10 13 -2 -11 -2 -8
-3 -13 8 12 -2 -12 -3 -9
-2 -13 7 12 -3 -12 -3 -10
0 -13 5 11 -4 -13 -4 -11
2 -13 5 11 -4 -13 -4 -11
3 -13 5 11 -4 -13 -4 -11
5 -14 5 12 -4 -12 -4 -11
7 -14 5 12 -4 -12 -4 -11
9 -15 4 13 -4 -11 -4 -12
8 -15 4 13 -4 -11 -4 -12
7 -15 4 14 -4 -11 -3 -12
6 -15 4 14 -3 -11 -3 -12
5 -15 4 15 -3 -11 -2 -12
4 -14 5 16 -2 -11 0 -11
5 -14 4 16 -2 -11 0 -11
6 -13 2 17 -2 -11 1 -10
8 -13 1 17 -3 -11 1 -10
9 -12 -2 18 -3 -11 2 -9
11 -11 -4 19 -4 -10 3 -8
12 -12 -4 19 -4 -10 3 -7
14 -13 -4 19 -4 -9 4 -6
15 -14 -4 20 -3 -9 5 -5
17 -15 -4 20 -3 -8 6 -4
19 -16 -5 21 -2 -7 7 -3
19 -16 -5 21 -3 -7 7 -3
20 -16 -5 21 -4 -7 7 -3
20 -16 -6 21 -5 -7 7 -3
21 -16 -6 21 -6 -7 7 -3
22 -16 -7 20 -7 -6 6 -3
24 -16 -7 20 -7 -6 6 -3
25 -16 -8 20 -7 -6 6 -3
27 -16 -9 20 -7 -6 7 -2
29 -16 -10 20 -7 -6 7 -2
31 -17 -11 19 -7 -6 8 0
31 -16 -13 19 -7 -6 8 1
32 -15 -15 19 -8 -6 9 2
33 -14 -17 18 -9 -5 9 3
34 -13 -19 18 -10 -5 10 4
35 -11 -21 17 -11 -4 11 6
35 -11 -20 17 -10 -3 12 7
35 -11 -19 18 -9 -2 13 8
35 -11 -18 19 -8 1 15 9
35 -11 -17 20 -7 2 16 10
35 -11 -16 21 -6 4 18 11
35 -11 -16 21 -6 4 18 11
36 -11 -16 21 -6 4 17 11
37 -11 -16 20 -7 4 17 10
38 -11 -16 20 -7 4 16 10
39 -11 -17 19 -8 3 15 9
39 -10 -17 19 -8 3 15 10
38 -9 -17 19 -8 3 15 11
38 -8 -17 19 -8 3 16 12
37 -7 -17 19 -8 3 16 13
36 -6 -18 19 -8 3 17 15
36 -5 -18 19 -8 3 17 15
35 -4 -18 20 -8 3 17 15
34 -2 -17 20 -7 4 18 15
33 0 -17 21 -7 4 18 15
32 2 -16 22 -6 5 19 16
32 1 -14 23 -4 6 19 16
31 0 -12 25 0 7 20 16
30 -2 -10 27 2 9 20 16
29 -3 -8 29 4 10 21 16
28 -4 -5 31 7 12 22 17
26 -3 -4 31 8 12 22 17
23 0 -3 32 9 12 22 16
21 2 -2 33 10 12 22 16
19 4 0 34 11 12 22 15
16 6 2 35 13 13 21 14
14 6 3 35 13 13 21 14
12 6 4 35 14 13 20 13
10 6 6 35 14 13 19 12
8 6 7 35 15 13 18 11
6 7 9 35 16 12 17 10
6 6 9 35 16 11 16 9
6 5 10 34 16 10 14 8
5 4 10 33 16 9 12 7
5 3 11 32 16 8 10 6
4 2 12 31 17 6 8 4
3 2 13 31 17 6 8 4
1 2 14 30 17 6 8 3
0 2 15 30 17 6 8 3
-3 2 16 29 17 6 8 2
-5 3 17 28 16 5 9 1
-6 3 17 28 16 5 9 1
-7 3 17 27 15 4 9 1
-8 2 17 26 14 4 8 1
-9 2 17 25 13 3 8 1
-10 1 18 24 12 2 7 1
-10 1 18 24 12 2 7 1
-10 0 18 24 12 2 6 1
-11 -2 18 24 12 2 6 1
-11 -3 18 24 12 2 5 1
-12 -4 19 23 11 1 4 0
-12 -4 19 23 11 1 4 0
-12 -4 19 23 11 0 3 0
-12 -4 19 22 11 0 2 0
-12 -4 19 22 11 -2 1 0
-11 -3 18 21 11 -3 0 -2
-11 -3 18 21 11 -3 0 -2
-10 -2 18 21 11 -3 0 -2
-10 -2 18 20 10 -3 0 -3
-9 0 18 20 10 -3 0 -3
-8 1 17 19 9 -4 1 -4
-8 1 17 19 9 -4 1 -4
-8 0 16 19 9 -3 1 -4
-9 -2 16 20 9 -2 1 -3
-9 -3 15 20 9 0 1 -3
-10 -4 14 21 10 1 2 -2
-10 -4 14 21 10 1 1 -2
-9 -3 14 20 10 1 0 -3
-9 -2 14 20 10 0 -2 -4
-8 0 14 19 10 0 -3 -5
-7 1 14 18 11 -2 -5 -6
-8 1 15 18 11 -2 -4 -5
-9 1 16 19 11 0 -3 -4
-10 1 17 20 11 0 0 -3
-11 1 18 21 11 1 1 -2
-12 0 19 22 12 2 3 1
-12 0 19 22 12 2 3 1
-12 0 19 21 12 2 2 1
-11 0 18 21 12 2 1 0
-11 0 18 20 12 2 0 0
-10 -2 17 19 11 2 -2 -2
-10 -2 17 18 11 2 -2 -3
-10 -2 17 17 10 1 -3 -4
-10 0 16 16 9 0 -4 -5
-10 0 16 15 8 -2 -5 -6
-9 1 15 14 7 -3 -6 -7
-9 1 15 14 7 -3 -6 -7
-9 0 15 14 7 -3 -6 -7
-10 0 15 14 7 -3 -6 -7
-10 -2 15 14 7 -3 -6 -7
-11 -3 16 14 7 -4 -7 -6
-11 -3 16 14 7 -4 -7 -6
-11 -3 16 14 7 -4 -6 -5
-11 -3 16 14 8 -3 -5 -4
-11 -3 16 14 8 -3 -4 -3
-12 -2 16 13 9 -2 -3 -2
-12 -2 16 13 9 -2 -3 -2
-11 -3 15 13 9 -2 -4 -2
-10 -4 15 13 9 -3 -4 -2
-9 -5 14 13 9 -3 -5 -2
-8 -6 13 12 8 -4 -6 -3
-8 -6 13 12 8 -4 -6 -3
-8 -6 13 11 7 -4 -7 -3
-8 -5 12 11 6 -4 -7 -3
-8 -5 12 10 5 -4 -8 -3
-8 -4 11 9 4 -5 -9 -4
-8 -4 11 9 4 -5 -9 -4
-9 -4 12 9 4 -5 -9 -4
-10 -4 12 9 4 -5 -9 -5
-11 -4 13 9 4 -5 -9 -5
-12 -4 14 8 5 -6 -8 -6
-12 -4 14 8 5 -6 -8 -6
-12 -4 14 8 4 -6 -8 -6
-13 -4 14 8 3 -6 -8 -5
-13 -4 14 8 2 -6 -8 -5
-14 -4 13 8 1 -6 -7 -4
-14 -4 13 8 1 -6 -7 -4
-14 -5 13 8 1 -6 -7 -4
-14 -6 13 8 1 -6 -7 -4
-14 -7 13 8 1 -6 -7 -4
-13 -8 13 7 2 -6 -8 -4
-13 -8 13 6 2 -6 -8 -4
-13 -7 13 5 1 -7 -9 -5
-12 -7 12 4 1 -7 -9 -5
-12 -6 12 3 0 -8 -10 -6
-11 -5 11 2 -2 -9 -11 -7
-11 -5 11 2 -2 -8 -11 -7
-11 -5 12 3 0 -7 -10 -6
-11 -6 13 3 0 -7 -9 -6
-11 -6 14 4 1 -6 -8 -5
-11 -6 14 4 1 -5 -8 -5
-12 -6 15 5 2 -4 -7 -4
-11 -5 15 5 3 -4 -7 -4
-10 -3 15 5 3 -4 -7 -4
-9 -2 15 5 4 -4 -7 -4
-8 0 15 5 4 -4 -7 -4
-7 2 15 6 5 -3 -8 -4
-7 4 16 7 5 -3 -7 -3
-7 6 17 8 6 -2 -6 -2
-7 8 18 9 6 -2 -5 0
-7 9 18 9 6 -2 -4 1
-7 10 19 11 8 1 -3 2
-7 11 19 12 10 3 -3 2
-7 11 19 14 11 4 -2 3
-7 12 19 15 13 6 -2 3
-7 12 19 16 14 7 -2 3
-6 13 20 16 15 8 0 4
-5 13 19 14 14 7 0 4
-4 13 18 12 13 6 0 4
-3 13 17 10 12 5 0 4
-2 13 17 8 12 5 0 4
0 16 15 8 11 5 0 6
-2 18 14 10 12 6 2 7
-3 20 12 12 13 8 3 9
-4 22 11 14 14 9 5 10
-4 24 10 15 15 10 6 11
-4 25 9 16 16 11 7 12
-2 24 10 16 17 11 7 12
0 23 11 17 17 11 7 12
2 22 12 17 18 11 7 12
3 22 12 17 18 11 7 12
4 19 13 18 19 11 7 13
3 16 12 17 18 11 7 13
3 13 11 16 17 11 8 14
2 10 10 15 16 11 8 14
2 8 9 15 15 11 8 14
1 7 7 14 12 9 7 12
0 7 6 13 10 6 4 9
0 7 5 12 7 3 1 6
-2 7 4 11 5 0 -3 3
-2 7 3 10 3 -4 -6 0
-5 4 2 8 2 -5 -7 -2
-7 2 3 7 2 -5 -7 -2
-9 -2 4 5 1 -5 -7 -2
-11 -4 5 4 1 -5 -7 -2
-13 -6 5 3 1 -5 -7 -2
-14 -7 6 2 0 -5 -8 -3
-14 -8 6 1 -2 -5 -9 -4
-14 -9 6 1 -2 -6 -9 -5
-14 -10 6 0 -3 -6 -10 -6
-14 -10 6 0 -3 -6 -10 -7
-15 -11 7 -2 -5 -8 -12 -9
-15 -11 6 -3 -6 -10 -14 -11
-15 -12 6 -4 -7 -12 -15 -12
-15 -12 5 -5 -8 -14 -17 -14
-15 -12 5 -6 -9 -15 -18 -15
-15 -13 4 -7 -10 -15 -18 -14
-16 -13 4 -6 -9 -13 -16 -12
-17 -13 4 -5 -8 -11 -14 -9
-18 -13 4 -4 -7 -9 -12 -7
-19 -13 4 -3 -6 -8 -10 -5
-20 -14 4 -2 -5 -7 -9 -4
-19 -15 4 -2 -5 -7 -9 -4
-18 -15 5 -3 -5 -7 -9 -4
-17 -16 5 -3 -5 -7 -9 -4
-17 -16 5 -3 -5 -7 -9 -4
-16 -17 6 -4 -6 -8 -10 -5
-16 -16 5 -5 -7 -9 -11 -7
-16 -16 5 -5 -7 -10 -12 -9
-16 -15 4 -6 -8 -11 -13 -11
-16 -15 4 -6 -8 -11 -14 -12
-15 -14 3 -6 -9 -12 -15 -13
-14 -14 4 -5 -9 -12 -15 -13
-14 -15 4 -4 -8 -12 -15 -13
-13 -15 5 -3 -8 -12 -15 -13
-13 -15 5 -2 -8 -12 -15 -13
-11 -18 10 12 1 -10 -15 -14
-9 -20 16 26 10 -8 -15 -16
-7 -22 21 40 18 -6 -15 -17
-5 -24 26 55 27 -4 -15 -19
-4 -26 31 69 35 -2 -15 -20
0 -19 33 75 45 10 -8 -15
4 -10 34 80 54 22 3 -7
7 0 35 86 63 34 13 1
10 9 36 92 73 46 22 9
13 18 37 97 82 58 32 16
21 39 27 73 84 77 59 44
29 62 15 47 82 97 87 72
36 85 3 20 81 117 114 101
45 107 -10 -7 80 137 142 130
53 130 -22 -34 80 157 170 158
54 142 -38 -72 61 161 182 177
54 153 -55 -112 42 163 193 193
54 165 -72 -152 21 165 204 210
54 177 -90 -192 2 168 216 227
54 189 -106 -231 -19 170 228 243
40 169 -110 -246 -41 136 193 215
27 145 -112 -259 -64 98 155 182
13 121 -114 -272 -87 60 116 148
0 98 -116 -284 -109 23 77 115
-14 74 -118 -297 -132 -15 38 81
-24 59 -119 -296 -141 -36 13 56
-34 45 -118 -291 -149 -56 -12 30
-45 29 -118 -287 -157 -74 -36 5
-55 14 -117 -284 -165 -94 -61 -21
-65 0 -117 -280 -174 -113 -85 -47
-60 -4 -111 -253 -160 -106 -80 -47
-53 -6 -104 -223 -143 -95 -73 -44
-46 -8 -98 -192 -127 -83 -65 -40
-37 -10 -91 -162 -109 -72 -57 -36
-30 -11 -85 -133 -93 -61 -49 -33
-27 -12 -71 -113 -79 -54 -44 -30
-25 -13 -58 -95 -67 -48 -39 -28
-23 -14 -44 -76 -55 -40 -35 -25
-20 -15 -29 -57 -43 -34 -30 -22
-18 -16 -16 -38 -30 -27 -26 -20
-17 -17 -12 -32 -27 -25 -24 -19
-17 -17 -9 -27 -24 -22 -22 -18
-17 -18 -6 -22 -22 -20 -21 -17
-17 -18 -4 -17 -20 -18 -19 -16
-17 -18 0 -12 -18 -16 -18 -15
-16 -19 1 -10 -16 -15 -17 -14
-16 -18 2 -8 -14 -14 -17 -14
-16 -18 3 -7 -12 -14 -17 -15
-16 -17 4 -5 -10 -13 -17 -15
-16 -17 5 -4 -8 -13 -17 -15
-16 -16 6 -3 -7 -12 -18 -16
-15 -17 6 -2 -7 -12 -18 -16
-14 -17 6 0 -7 -12 -17 -16
-13 -18 6 1 -7 -12 -17 -16
-12 -18 6 1 -7 -12 -17 -16
-11 -19 6 2 -7 -11 -16 -15
-11 -19 7 3 -6 -11 -16 -15
-11 -20 8 3 -6 -11 -15 -14
-11 -20 9 4 -5 -11 -15 -14
-11 -20 9 4 -5 -11 -15 -14
-12 -21 10 5 -4 -10 -14 -13
-11 -20 10 4 -4 -10 -14 -13
-11 -19 9 4 -4 -10 -15 -14
-10 -18 9 3 -4 -10 -15 -14
-10 -17 9 3 -4 -10 -15 -14
-9 -16 8 3 -3 -9 -15 -15
-10 -16 9 4 -2 -8 -14 -14
-10 -16 10 5 0 -7 -13 -14
-11 -16 11 6 1 -6 -12 -13
-11 -16 12 7 2 -5 -11 -13
-12 -17 13 8 3 -4 -10 -12
-12 -17 13 8 3 -4 -10 -12
-11 -17 12 8 3 -4 -10 -12
-11 -17 12 8 3 -4 -10 -12
-11 -17 12 8 3 -4 -10 -12
-10 -18 11 9 3 -3 -9 -12
-9 -17 11 9 3 -3 -9 -12
-9 -17 10 9 3 -3 -9 -12
-8 -16 10 9 3 -3 -9 -12
-8 -16 10 9 3 -3 -9 -12
-7 -15 9 9 3 -4 -9 -11
-6 -15 9 9 3 -4 -9 -11
-5 -15 9 9 3 -4 -9 -12
-4 -15 9 9 3 -4 -9 -12
-4 -15 9 9 3 -4 -9 -12
-3 -15 8 10 2 -4 -10 -13
-3 -15 8 10 3 -4 -10 -13
-2 -15 8 11 4 -3 -9 -12
-2 -15 8 11 5 -3 -9 -12
-2 -15 8 11 5 -3 -9 -12
0 -16 7 12 6 -2 -8 -11
-2 -16 7 13 6 -2 -8 -11
-3 -16 7 14 6 -2 -8 -10
-4 -16 7 15 6 -2 -8 -10
-5 -16 7 15 6 -2 -8 -10
-5 -15 6 16 7 0 -7 -9
-3 -15 6 17 7 0 -7 -9
0 -16 5 17 7 0 -7 -9
1 -16 5 18 7 0 -7 -9
3 -16 5 18 7 0 -7 -9
4 -17 4 19 6 -2 -8 -9
4 -16 3 19 6 -2 -8 -9
4 -16 2 20 6 0 -8 -9
4 -15 1 20 6 0 -8 -9
4 -15 0 20 6 0 -8 -9
4 -14 -2 21 7 1 -7 -9
6 -15 -2 22 7 1 -6 -9
8 -15 -3 22 8 1 -6 -9
9 -16 -3 23 8 1 -5 -9
11 -16 -3 23 8 1 -5 -9
12 -17 -4 25 9 2 -3 -7
12 -17 -4 26 9 3 -2 -5
12 -17 -4 27 9 4 1 -3
12 -17 -4 29 9 5 3 -2
12 -17 -4 30 9 5 4 1
12 -17 -4 31 10 6 5 2
13 -17 -4 31 10 6 5 2
13 -17 -4 32 11 6 5 2
14 -17 -4 32 11 6 5 2
14 -17 -4 32 11 6 5 2
16 -18 -6 33 12 7 6 1
19 -18 -7 33 12 7 7 1
21 -18 -8 34 11 7 7 1
23 -18 -9 34 11 7 8 1
25 -18 -10 34 11 7 8 1
26 -18 -12 35 10 8 9 2
26 -18 -13 35 9 8 8 1
27 -18 -14 34 9 7 8 1
27 -18 -16 34 8 7 7 0
27 -18 -17 34 8 7 7 0
28 -18 -18 34 7 7 8 1
29 -18 -18 35 8 9 10 3
30 -19 -18 36 9 11 13 6
31 -19 -18 38 10 13 15 8
31 -19 -18 39 10 15 18 11
32 -20 -18 40 11 16 19 12
34 -19 -18 40 11 16 19 13
35 -19 -18 40 11 16 19 14
36 -18 -18 40 11 16 19 15
37 -18 -18 40 11 16 19 15
38 -17 -19 39 10 15 20 16
37 -16 -19 39 10 16 21 17
37 -16 -19 39 10 16 23 17
36 -15 -19 39 10 17 25 18
36 -15 -19 39 10 17 26 18
35 -14 -20 40 10 18 27 19
35 -14 -20 40 10 18 26 19
35 -13 -20 40 10 18 25 18
35 -13 -20 40 10 18 24 18
35 -13 -20 40 10 18 24 18
36 -12 -19 40 10 17 23 17
36 -11 -18 40 10 17 23 17
35 -11 -18 40 10 18 23 17
35 -10 -17 40 10 18 23 17
35 -10 -17 40 10 18 23 17
34 -8 -15 42 12 19 23 18
33 -6 -14 42 14 20 23 18
32 -4 -12 43 16 21 23 19
31 -3 -10 43 17 22 23 19
31 0 -9 43 19 22 23 19
29 1 -7 44 20 23 24 20
27 0 -6 45 21 23 25 20
24 0 -4 46 21 23 25 20
22 -2 -2 47 22 23 26 20
20 -2 0 47 22 23 26 20
19 -3 1 47 23 22 25 19
18 -2 2 46 23 21 23 16
17 0 3 45 22 19 20 14
16 1 4 43 22 17 18 11
15 2 4 42 22 16 15 8
12 3 5 40 21 15 14 7
10 3 5 39 21 15 14 7
7 3 5 39 22 15 14 7
5 3 5 38 22 15 14 7
2 3 5 38 22 15 14 7
1 4 6 37 23 15 13 7
0 4 8 35 23 14 13 7
-2 4 9 34 23 13 12 6
-3 4 10 33 23 12 12 6
-4 4 11 32 23 11 12 6
-5 3 12 30 22 10 10 4
-5 3 12 28 20 9 8 2
-5 3 12 26 18 8 5 0
-5 3 12 24 17 7 3 -2
-5 3 12 22 15 6 1 -4
-6 3 12 21 14 5 0 -5
-7 2 13 21 14 5 0 -5
-9 1 14 21 14 4 0 -5
-11 0 15 21 14 4 0 -5
-12 -2 15 21 14 4 0 -5
-13 -3 16 20 13 3 0 -4
-12 -3 15 20 13 3 0 -4
-12 -3 15 19 13 3 -2 -5
-11 -3 14 19 13 3 -2 -5
-11 -3 14 19 13 3 -2 -5
-10 -4 13 18 12 3 -3 -6
-10 -4 13 18 12 3 -3 -6
-9 -4 12 18 12 2 -3 -6
-9 -4 12 18 12 2 -3 -6
-9 -4 12 18 12 2 -3 -6
-8 -5 11 17 11 1 -3 -7
-8 -4 11 17 11 1 -3 -6
-9 -3 12 17 11 2 -3 -6
-9 -2 12 17 11 2 -3 -5
-9 -2 12 17 11 2 -3 -5
-10 0 13 18 11 3 -2 -4
-10 0 13 18 12 3 -2 -4
-10 -2 13 18 12 3 -2 -4
-10 -2 13 18 13 3 -2 -4
-10 -2 13 18 13 3 -2 -4
-11 -3 13 19 14 4 0 -3
-10 -4 13 19 14 4 0 -3
-9 -4 13 19 14 4 0 -3
-8 -5 13 19 14 4 0 -3
-7 -5 13 19 14 4 0 -3
-7 -6 14 19 13 5 1 -4
-8 -6 14 19 14 5 1 -4
-10 -6 14 19 14 5 1 -4
-12 -6 14 19 15 5 1 -4
-13 -6 14 19 15 5 1 -4
-14 -6 15 20 15 5 -2 -3
-13 -4 13 18 14 3 -3 -4
-13 -3 12 17 12 2 -4 -5
-12 -2 11 16 10 1 -6 -6
-12 0 10 15 9 0 -7 -7
-11 1 9 14 8 -2 -8 -8
-11 1 10 14 9 0 -8 -8
-11 1 11 14 9 0 -7 -7
-11 1 12 14 10 1 -7 -7
-11 1 12 14 10 1 -7 -7
-12 0 13 14 11 2 -6 -6
-12 -2 13 14 11 2 -5 -5
-11 -4 14 15 11 3 -4 -5
-11 -6 14 15 11 3 -3 -4
-11 -7 14 15 11 3 -2 -4
-10 -8 15 16 11 4 0 -3
-10 -7 14 15 10 3 -3 -4
-9 -7 13 14 10 2 -4 -5
-9 -6 12 13 9 1 -5 -5
-9 -6 11 12 9 0 -6 -6
-8 -5 10 11 8 -2 -7 -7
-10 -4 10 11 8 -2 -6 -7
-11 -4 11 11 8 0 -6 -7
-12 -3 11 11 8 0 -5 -7
-13 -3 11 11 8 0 -5 -7
-14 -2 12 10 8 1 -4 -6
-12 -2 12 9 7 0 -5 -6
-11 -3 12 8 7 0 -6 -6
-10 -3 12 8 6 -2 -6 -6
-9 -3 12 7 6 -2 -7 -6
-8 -4 11 6 5 -3 -8 -6
-8 -4 12 6 5 -3 -8 -6
-8 -3 12 6 5 -3 -7 -6
-8 -3 13 6 5 -3 -7 -6
-8 -3 13 6 5 -3 -7 -6
-9 -2 14 7 5 -2 -6 -5
-9 -2 14 7 6 -2 -6 -5
-9 -2 14 8 6 -2 -6 -5
-9 -2 14 8 7 -2 -6 -5
-9 -2 14 8 7 -2 -6 -5
-8 1 15 9 8 0 -6 -6
-6 3 16 10 9 1 -5 -5
-5 5 17 11 10 2 -4 -5
-4 7 17 11 10 2 -4 -4
-3 9 18 12 11 3 -3 -4
-2 10 19 13 12 4 -2 -2
-3 11 20 14 14 4 0 0
-4 12 20 15 15 5 0 1
-4 13 21 16 16 5 1 3
-5 14 21 17 17 5 1 4
-6 15 21 17 18 6 2 5
-6 16 20 15 16 6 2 4
-6 16 18 14 15 7 3 4
-6 17 17 12 14 7 3 3
-6 17 15 10 13 7 3 3
-5 18 14 9 12 8 4 2
-4 20 13 10 14 9 4 3
-3 21 12 11 15 9 4 4
0 22 12 11 16 10 4 5
1 23 11 12 17 10 4 6
2 24 10 13 18 11 5 7
4 24 10 13 18 11 6 7
5 24 10 14 18 12 7 7
6 24 10 14 18 12 7 7
7 24 10 14 18 12 8 7
8 23 11 15 17 13 9 8
6 21 9 14 16 12 7 6
5 20 8 13 15 11 6 5
4 18 7 12 14 10 5 4
3 16 6 11 13 9 4 3
2 15 5 10 12 8 3 1
1 14 5 8 10 6 1 0
0 13 5 7 9 5 0 -3
0 13 5 6 7 3 -3 -4
-2 12 5 5 6 2 -4 -6
-4 9 5 4 5 1 -5 -7
-7 5 7 4 5 0 -5 -6
-9 1 8 4 4 -2 -5 -5
-11 -4 10 4 4 -2 -5 -4
-14 -7 12 4 4 -3 -5 -3
-15 -9 13 2 2 -4 -6 -3
-15 -9 11 1 1 -6 -8 -5
-15 -10 10 -2 -2 -7 -9 -7
-15 -10 8 -3 -3 -9 -10 -9
-15 -10 7 -5 -5 -10 -11 -11
-16 -11 6 -6 -6 -11 -12 -12
-15 -11 6 -6 -6 -11 -13 -12
-15 -11 6 -6 -6 -11 -14 -13
-14 -11 6 -6 -6 -11 -14 -13
-14 -11 6 -6 -6 -11 -15 -13
-13 -12 6 -5 -7 -12 -16 -14
-14 -12 6 -5 -7 -12 -16 -14
-14 -12 6 -5 -7 -12 -15 -14
-15 -12 6 -5 -7 -12 -15 -14
-15 -12 6 -5 -7 -12 -15 -14
-16 -12 6 -5 -8 -11 -14 -14
-16 -12 6 -6 -8 -11 -14 -14
-16 -12 6 -7 -8 -12 -14 -14
-16 -12 6 -8 -8 -12 -14 -14
-16 -12 6 -9 -8 -12 -14 -14
-15 -13 5 -10 -8 -13 -15 -14
-15 -13 5 -9 -8 -13 -15 -14
-15 -13 5 -9 -8 -13 -15 -14
-15 -13 5 -8 -8 -13 -15 -14
-15 -13 5 -8 -8 -13 -15 -14
-15 -14 6 -7 -8 -12 -15 -14
-14 -15 6 -7 -8 -12 -15 -15
-14 -16 6 -6 -8 -12 -16 -15
-13 -16 6 -6 -8 -12 -16 -16
-13 -17 6 -6 -8 -12 -16 -16
-11 -18 11 7 0 -10 -17 -18
-9 -19 17 23 9 -7 -17 -20
-8 -19 23 39 19 -4 -17 -21
-6 -20 29 57 28 0 -17 -23
-4 -20 35 73 37 3 -17 -25
0 -15 38 80 48 13 -10 -19
3 -6 39 84 57 25 3 -9
6 4 40 86 66 37 15 3
9 13 42 88 75 50 27 13
12 22 43 91 85 62 39 24
19 43 34 71 88 80 62 47
27 67 19 38 86 100 89 74
36 92 4 7 84 120 116 102
45 116 -12 -26 80 141 143 131
54 141 -27 -58 78 161 171 158
56 156 -45 -96 62 169 183 176
53 165 -62 -138 36 167 189 188
50 175 -80 -179 12 165 195 199
47 185 -98 -220 -13 163 201 212
44 194 -116 -262 -37 162 207 224
34 180 -123 -282 -62 134 183 204
21 151 -127 -291 -86 90 140 168
7 122 -130 -301 -110 47 97 130
-7 94 -133 -311 -134 4 55 93
-20 65 -136 -320 -157 -40 12 56
-29 48 -136 -316 -168 -63 -14 31
-36 36 -133 -304 -171 -76 -31 12
-44 25 -130 -291 -174 -89 -49 -7
-50 14 -127 -278 -177 -101 -65 -25
-57 2 -123 -266 -180 -113 -82 -44
-58 -3 -114 -242 -170 -110 -83 -49
-54 -5 -101 -213 -149 -98 -74 -45
-49 -6 -89 -183 -130 -86 -65 -40
-45 -8 -75 -153 -109 -72 -56 -36
-40 -9 -62 -123 -89 -60 -47 -32
-36 -11 -51 -102 -75 -52 -40 -29
-31 -13 -41 -87 -64 -46 -37 -27
-27 -15 -32 -70 -53 -39 -34 -25
-22 -18 -22 -55 -43 -33 -30 -23
-18 -20 -13 -38 -31 -28 -27 -21
-16 -21 -8 -30 -26 -24 -25 -20
-16 -21 -6 -26 -24 -23 -24 -20
-17 -21 -4 -21 -22 -21 -22 -20
-18 -21 -2 -17 -20 -20 -21 -20
-18 -21 1 -13 -18 -18 -20 -20
-19 -20 2 -11 -16 -17 -19 -20
-19 -19 2 -10 -15 -17 -19 -20
-19 -17 3 -9 -13 -17 -20 -20
-19 -16 4 -8 -12 -17 -21 -20
-19 -15 4 -7 -10 -17 -21 -20
-20 -14 5 -6 -9 -17 -22 -21
-19 -14 5 -5 -9 -17 -22 -21
-18 -15 6 -4 -9 -16 -21 -21
-17 -16 6 -3 -9 -15 -20 -21
-16 -16 6 -2 -9 -15 -20 -21
-15 -17 7 0 -9 -14 -19 -21
-15 -17 7 0 -9 -14 -19 -21
-15 -18 7 1 -8 -13 -18 -20
-15 -19 7 1 -7 -12 -17 -20
-15 -19 7 1 -7 -12 -17 -20
-13 -20 7 2 -6 -11 -16 -19
-12 -19 7 2 -6 -11 -16 -19
-10 -17 6 2 -6 -11 -16 -18
-9 -16 6 2 -6 -11 -16 -18
-7 -15 6 2 -6 -11 -16 -18
-6 -14 5 2 -7 -11 -16 -17
-7 -14 5 2 -7 -11 -16 -17
-8 -15 5 2 -7 -11 -16 -17
-9 -16 5 2 -7 -11 -16 -17
-10 -16 5 2 -7 -11 -16 -17
-11 -17 6 3 -6 -12 -16 -17
-12 -17 6 4 -5 -11 -15 -16
-13 -18 7 5 -4 -10 -13 -14
-13 -18 8 6 -4 -9 -12 -13
-14 -18 8 7 -3 -8 -11 -12
-15 -19 9 8 -2 -7 -10 -11
-13 -19 9 8 -2 -7 -10 -12
-11 -18 8 8 0 -7 -11 -13
-10 -18 7 8 0 -7 -12 -13
-8 -18 7 8 0 -7 -12 -14
-7 -17 6 9 1 -7 -13 -15
-7 -17 5 9 1 -7 -13 -15
-6 -16 4 9 0 -7 -13 -15
-5 -15 4 9 -2 -7 -13 -15
-5 -15 3 9 -2 -7 -13 -15
-4 -14 2 9 -3 -8 -13 -15
-4 -14 2 10 -2 -8 -13 -15
-5 -13 3 11 0 -7 -12 -15
-6 -13 3 11 1 -7 -12 -15
-6 -13 3 12 2 -7 -12 -15
-7 -12 4 13 3 -6 -11 -14
-6 -13 4 14 3 -6 -11 -14
-5 -14 3 15 2 -6 -11 -13
-5 -15 2 15 1 -6 -11 -13
-4 -16 2 16 1 -6 -11 -13
-2 -17 1 17 0 -6 -12 -12
1 -16 0 17 0 -6 -12 -12
4 -15 -2 17 0 -6 -12 -12
6 -15 -2 17 0 -6 -12 -12
9 -14 -3 17 0 -6 -12 -12
9 -13 -4 17 1 -5 -11 -13
7 -13 -4 19 1 -4 -10 -13
5 -13 -4 21 2 -3 -9 -12
3 -13 -4 22 2 -3 -9 -11
1 -13 -4 24 2 -2 -8 -11
1 -12 -4 25 3 0 -7 -10
2 -13 -4 25 3 0 -7 -10
4 -14 -5 25 4 0 -6 -9
6 -15 -5 25 5 0 -5 -9
8 -16 -5 25 5 0 -5 -9
9 -17 -6 26 6 1 -4 -8
9 -16 -6 27 6 1 -3 -7
8 -15 -7 28 6 2 -2 -5
8 -15 -8 29 6 2 -2 -4
8 -14 -8 30 6 2 0 -3
8 -13 -9 31 6 3 1 -2
9 -13 -10 31 6 3 1 -2
11 -13 -11 32 6 3 0 -3
13 -13 -11 32 6 3 0 -4
15 -13 -12 32 6 3 0 -4
17 -12 -13 33 6 3 -2 -5
19 -13 -14 33 6 3 -2 -5
21 -14 -15 33 5 4 0 -4
23 -15 -16 33 5 4 1 -4
26 -16 -17 33 5 4 1 -4
27 -17 -18 34 4 6 3 -2
27 -18 -18 36 5 7 5 0
28 -19 -18 38 7 9 7 2
29 -19 -18 39 8 11 9 4
29 -20 -18 42 9 13 12 6
30 -21 -19 43 10 14 13 7
31 -20 -19 43 8 14 13 7
33 -18 -19 42 7 14 13 8
34 -17 -19 42 6 14 13 9
35 -16 -19 42 4 14 13 9
36 -15 -19 40 3 13 14 10
36 -15 -19 40 4 14 14 10
36 -15 -19 40 6 15 14 10
36 -15 -19 40 7 15 14 10
36 -15 -19 40 8 16 14 10
37 -16 -18 42 9 17 15 11
37 -15 -18 42 9 17 16 11
38 -14 -18 42 8 17 17 12
38 -14 -18 42 7 17 17 13
38 -13 -18 42 7 17 18 13
39 -12 -17 42 6 18 19 14
39 -12 -17 42 6 18 19 14
38 -11 -16 40 7 18 19 14
38 -10 -16 40 8 18 19 14
38 -10 -16 40 8 18 19 14
37 -9 -15 39 9 18 18 13
35 -9 -14 40 9 18 18 14
33 -8 -12 42 10 19 19 15
32 -8 -11 42 10 19 19 15
30 -8 -10 43 10 19 19 16
29 -7 -9 44 11 20 20 17
27 -5 -7 44 13 20 20 17
26 -3 -5 45 14 20 20 17
25 -2 -4 45 15 20 20 17
23 1 -2 45 17 20 20 17
22 2 0 46 18 20 20 16
22 2 1 46 18 20 19 16
21 2 2 45 17 20 18 15
20 2 3 45 17 20 18 15
20 2 4 45 17 20 17 15
18 3 5 44 16 20 16 14
16 4 6 44 17 19 15 13
13 5 8 43 19 18 13 12
11 6 9 42 20 18 12 11
9 7 10 42 21 17 11 10
6 8 11 40 22 16 10 9
4 6 12 39 21 16 10 9
2 4 14 38 20 16 10 8
0 3 15 38 20 16 10 7
-3 1 16 37 19 16 10 7
-5 0 17 35 18 15 9 6
-5 0 17 33 18 13 7 4
-6 1 17 31 17 11 5 2
-7 1 17 29 17 9 4 0
-7 1 17 27 17 7 2 -3
-8 2 17 25 16 6 1 -4
-8 2 17 24 15 6 1 -4
-8 2 17 22 14 5 0 -4
-8 2 17 21 14 4 0 -4
-8 2 17 20 13 4 0 -4
-9 2 16 19 12 3 -2 -5
-9 2 16 19 12 3 -2 -5
-10 1 17 19 11 2 -3 -5
-10 0 17 19 11 2 -3 -5
-10 0 17 19 11 2 -3 -5
-11 -2 18 18 10 1 -4 -6
-11 -2 17 17 9 1 -4 -6
-11 0 16 16 7 0 -5 -6
-11 0 16 15 6 0 -5 -6
-11 0 15 14 5 0 -5 -6
-10 1 14 13 4 -2 -6 -6
-10 0 14 13 5 -2 -6 -6
-10 -3 15 14 7 -2 -6 -7
-10 -4 16 15 8 -2 -6 -7
-10 -5 16 15 9 -2 -6 -7
-11 -6 17 16 10 0 -5 -8
-12 -6 17 16 10 0 -5 -8
-13 -5 16 17 9 1 -4 -7
-13 -5 15 17 8 2 -3 -6
-14 -5 15 17 8 2 -3 -6
-15 -4 14 18 7 3 -2 -5
-15 -4 14 18 7 3 -2 -5
-14 -3 14 18 7 2 -3 -6
-13 -3 14 18 7 2 -4 -6
-13 -3 14 18 7 2 -4 -6
-12 -2 13 17 8 1 -5 -7
-12 -2 13 17 8 2 -4 -6
-12 -2 14 18 8 3 -3 -5
-12 -2 15 18 8 3 -3 -4
-12 -2 15 18 8 4 -2 -3
-12 -3 16 19 9 5 -2 -3
-10 -3 16 19 8 3 -4 -5
-9 -3 15 18 7 2 -5 -7
-8 -3 14 17 6 0 -7 -10
-6 -3 14 17 5 -3 -9 -12
-5 -4 13 16 4 -4 -11 -14
-7 -4 13 16 4 -3 -10 -13
-9 -4 13 16 5 -3 -9 -12
-11 -4 13 17 6 -2 -7 -10
-13 -4 13 17 6 0 -6 -9
-15 -3 13 18 7 1 -5 -8
-15 -2 13 18 7 1 -5 -8
-14 -2 13 17 7 1 -5 -8
-13 0 13 16 7 1 -5 -9
-13 1 13 16 7 1 -5 -9
-12 2 12 15 7 0 -6 -10
-12 0 12 15 7 0 -6 -10
-12 -2 12 15 7 0 -6 -9
-12 -4 13 16 7 0 -5 -8
-12 -6 13 16 7 0 -5 -8
-11 -7 14 17 7 1 -4 -7
-11 -7 14 17 7 1 -4 -7
-12 -7 14 16 7 1 -4 -8
-13 -7 14 15 7 1 -4 -9
-13 -7 14 15 7 1 -4 -9
-14 -7 14 14 7 1 -4 -10
-14 -7 14 14 6 1 -4 -10
-14 -7 14 14 6 1 -4 -10
-14 -7 13 13 5 0 -4 -10
-14 -7 13 13 4 0 -4 -10
-14 -6 12 12 3 -2 -5 -9
-14 -6 12 12 3 -2 -5 -9
-14 -6 12 12 3 -2 -5 -9
-14 -6 12 11 4 -2 -5 -9
-14 -6 12 11 4 -2 -5 -9
-14 -6 12 10 5 -2 -5 -9
-14 -5 12 10 4 -3 -6 -9
-14 -5 12 10 3 -3 -7 -10
-13 -4 11 10 2 -4 -8 -11
-13 -3 11 10 1 -5 -9 -11
-12 -2 10 9 0 -6 -10 -12
-12 -3 10 9 1 -6 -10 -12
-12 -4 10 10 1 -5 -9 -11
-11 -5 11 11 2 -4 -8 -10
-11 -6 11 11 3 -4 -8 -10
-10 -7 12 12 4 -3 -7 -9
-9 -5 13 13 4 -3 -6 -8
-8 -4 14 14 5 -2 -6 -7
-6 -3 16 16 6 0 -5 -6
-5 0 17 17 6 0 -4 -5
-4 2 18 18 7 1 -3 -4
-6 4 18 18 8 2 -2 -4
-7 6 19 18 9 3 -2 -4
-8 8 20 19 11 5 0 -4
-10 10 20 19 12 6 1 -4
-11 12 21 20 13 7 2 -3
-10 12 21 20 13 7 3 -2
-9 13 20 20 13 7 3 -2
-7 14 19 21 13 7 4 0
-6 14 19 21 13 7 5 1
-5 15 18 22 13 7 6 2
-5 16 16 21 13 7 6 2
-5 17 15 20 13 7 5 2
-5 19 13 18 12 7 4 2
-5 20 11 17 12 7 4 2
-4 21 10 16 11 6 3 1
-3 22 10 18 12 7 4 1
-2 23 10 19 13 8 4 1
1 25 10 20 14 10 5 2
2 26 10 22 15 11 6 2
3 26 9 23 16 12 7 3
3 24 9 23 16 12 7 3
3 21 9 23 16 12 7 3
3 19 9 23 16 12 8 4
3 16 9 23 16 12 8 4
4 14 10 22 15 12 9 5
2 14 8 19 13 10 7 4
1 14 7 17 11 9 6 3
0 14 5 15 8 7 5 1
-3 14 3 13 6 5 3 0
-4 13 2 11 4 4 2 -2
-4 12 2 11 4 2 0 -5
-5 11 2 11 3 1 -3 -7
-6 9 2 10 2 0 -5 -9
-6 8 2 10 2 -3 -6 -11
-7 6 2 9 1 -4 -8 -13
-9 3 2 9 1 -4 -8 -12
-11 0 3 9 0 -4 -7 -12
-13 -4 4 8 -2 -4 -6 -11
-15 -8 4 8 -2 -4 -6 -10
-17 -10 5 7 -3 -5 -5 -9
-17 -10 5 6 -4 -6 -7 -10
-17 -11 5 4 -5 -8 -9 -12
-16 -12 5 3 -6 -9 -11 -13
-16 -12 5 1 -7 -11 -12 -15
-15 -13 4 0 -8 -12 -14 -16
-15 -13 4 0 -8 -12 -14 -16
-15 -13 4 0 -8 -12 -14 -16
-16 -13 4 0 -8 -12 -14 -16
-16 -13 4 0 -8 -12 -14 -16
-17 -14 4 -2 -9 -13 -15 -15
-17 -14 4 -2 -9 -13 -15 -15
-16 -14 4 -2 -9 -13 -15 -15
-15 -13 3 -3 -10 -14 -15 -15
-15 -13 3 -3 -10 -14 -15 -15
-14 -12 2 -4 -11 -15 -15 -16
-15 -12 2 -4 -11 -14 -15 -16
-16 -12 2 -3 -10 -14 -15 -15
-17 -12 2 -2 -9 -13 -14 -14
-18 -12 2 -2 -9 -12 -14 -14
-19 -12 3 0 -8 -11 -13 -13
-19 -12 3 0 -8 -11 -13 -13
-18 -12 3 0 -8 -11 -13 -13
-17 -12 4 -2 -8 -11 -13 -14
-17 -12 4 -2 -8 -11 -13 -14
-16 -14 5 0 -9 -12 -14 -15
-13 -17 7 7 -7 -12 -14 -18
-11 -21 9 13 -5 -12 -15 -20
-8 -24 11 19 -3 -13 -16 -22
-6 -27 13 26 -2 -13 -16 -24
-4 -29 17 35 5 -12 -16 -26
-3 -24 22 50 16 -5 -13 -24
-2 -19 28 64 27 3 -10 -22
0 -14 34 78 39 10 -7 -20
1 -9 39 93 51 17 -4 -18
5 0 43 100 59 27 4 -11
13 13 38 94 63 40 19 5
21 27 35 88 66 54 34 19
29 40 31 81 70 67 50 33
37 54 28 75 73 80 65 49
45 71 19 57 76 95 85 69
52 95 1 20 73 113 111 98
59 118 -18 -18 71 132 138 127
66 141 -35 -55 68 149 164 155
72 164 -54 -92 66 168 191 184
75 177 -69 -128 56 174 205 202
70 172 -80 -159 33 160 199 200
65 167 -93 -191 12 146 193 198
60 160 -104 -223 -11 133 186 196
55 155 -116 -255 -32 119 180 195
43 141 -123 -277 -56 94 158 178
21 112 -123 -285 -81 52 110 136
0 85 -123 -294 -107 10 63 94
-22 56 -123 -302 -132 -33 16 52
-44 27 -123 -310 -157 -75 -31 11
-57 9 -122 -307 -171 -101 -61 -18
-56 6 -118 -285 -162 -98 -62 -23
-55 2 -114 -264 -153 -95 -63 -29
-54 -2 -111 -242 -145 -92 -64 -34
-53 -5 -107 -221 -137 -88 -65 -40
-51 -8 -99 -197 -124 -82 -64 -44
-46 -9 -85 -169 -108 -73 -56 -38
-40 -9 -69 -140 -92 -63 -49 -34
-35 -10 -55 -111 -75 -54 -40 -30
-30 -11 -39 -82 -59 -44 -33 -25
-26 -12 -29 -61 -47 -36 -28 -22
-25 -13 -24 -53 -41 -33 -26 -22
-24 -14 -19 -45 -36 -30 -24 -22
-23 -16 -14 -37 -31 -27 -22 -22
-22 -17 -10 -29 -26 -24 -21 -22
-21 -18 -6 -22 -22 -22 -19 -21
-20 -18 -5 -19 -21 -22 -19 -21
-19 -17 -3 -16 -19 -22 -19 -21
-18 -16 -2 -13 -18 -22 -19 -21
-17 -16 1 -10 -16 -22 -19 -21
-16 -15 2 -8 -15 -22 -19 -20
-16 -15 3 -7 -14 -21 -18 -20
-16 -15 4 -6 -14 -20 -18 -20
-17 -16 5 -5 -13 -18 -17 -19
-17 -16 6 -4 -12 -17 -16 -19
-18 -17 7 -3 -11 -16 -15 -18
-17 -17 7 -3 -11 -16 -15 -18
-16 -17 7 -3 -11 -17 -16 -18
-14 -18 7 -3 -11 -18 -17 -19
-13 -18 7 -3 -11 -18 -17 -19
-12 -19 6 -2 -12 -19 -18 -20
-12 -18 6 -2 -12 -19 -18 -20
-12 -16 6 -2 -12 -19 -18 -20
-12 -15 5 -2 -11 -18 -18 -21
-12 -13 5 -2 -11 -18 -18 -21
-13 -12 4 -2 -10 -17 -19 -22
-13 -13 4 -2 -10 -17 -19 -22
-13 -14 4 0 -10 -17 -18 -21
-13 -15 4 1 -9 -17 -17 -20
-13 -16 4 1 -9 -17 -17 -20
-13 -17 5 2 -8 -17 -16 -19
-12 -17 5 2 -8 -16 -15 -19
-12 -16 6 2 -8 -15 -15 -18
-11 -15 7 2 -7 -14 -14 -17
-10 -15 7 2 -7 -13 -13 -17
-9 -14 8 2 -6 -12 -12 -16
-10 -14 8 3 -5 -12 -12 -15
-10 -14 9 5 -5 -12 -12 -14
-11 -15 10 6 -4 -12 -11 -13
-12 -15 10 8 -3 -12 -11 -12
-13 -16 11 9 -2 -11 -10 -11
-13 -16 10 9 -2 -11 -10 -11
-12 -16 9 8 -2 -11 -10 -11
-11 -17 7 7 -2 -11 -11 -12
-11 -17 6 7 -2 -11 -11 -12
-10 -18 5 6 -3 -11 -12 -13
-10 -17 5 6 -3 -11 -12 -13
-10 -16 5 7 -3 -11 -12 -13
-10 -15 5 8 -3 -11 -12 -13
-10 -14 5 8 -3 -11 -12 -13
-9 -13 5 9 -4 -10 -12 -13
-8 -13 5 9 -4 -10 -12 -13
-8 -13 4 9 -4 -10 -12 -13
-7 -13 3 8 -3 -10 -12 -14
-6 -13 3 8 -3 -10 -12 -14
-5 -13 2 7 -2 -11 -12 -15
-5 -13 2 8 -2 -11 -12 -14
-5 -13 2 9 -2 -11 -11 -13
-4 -14 2 10 -2 -11 -11 -12
-4 -14 2 11 -2 -11 -10 -11
-3 -15 1 12 -2 -10 -9 -10
-3 -14 1 12 -2 -10 -9 -10
-2 -13 0 12 -2 -10 -9 -11
-2 -12 0 11 -2 -10 -10 -11
0 -11 -2 11 -2 -10 -10 -12
1 -10 -3 10 -3 -11 -11 -13
1 -12 -3 11 -3 -11 -11 -13
1 -13 -3 12 -3 -11 -10 -13
2 -15 -3 13 -2 -10 -10 -12
2 -16 -3 14 -2 -10 -9 -12
3 -18 -3 15 0 -9 -8 -11
6 -17 -4 15 0 -9 -8 -11
9 -17 -6 15 0 -9 -8 -11
11 -16 -7 14 -2 -9 -8 -11
14 -15 -9 14 -2 -9 -8 -11
16 -14 -10 13 -3 -9 -8 -12
15 -14 -10 14 -3 -9 -7 -11
15 -14 -10 15 -3 -9 -6 -11
14 -14 -10 16 -3 -8 -5 -10
13 -14 -10 17 -3 -8 -3 -9
12 -15 -10 18 -3 -7 -2 -8
14 -15 -10 18 -3 -6 0 -7
16 -15 -11 18 -3 -6 0 -5
17 -15 -11 18 -3 -5 1 -4
19 -15 -12 18 -3 -4 2 -2
21 -16 -13 18 -3 -3 3 0
22 -16 -13 18 -3 -3 3 0
22 -17 -13 18 -4 -3 3 0
23 -17 -14 19 -4 -3 3 0
24 -18 -14 19 -5 -3 3 0
25 -19 -15 20 -6 -4 4 -2
27 -18 -17 19 -6 -4 4 -2
30 -17 -19 18 -6 -4 4 -2
32 -16 -20 17 -6 -4 4 -2
34 -14 -22 16 -6 -4 4 -2
36 -13 -24 15 -5 -5 3 -3
36 -12 -24 15 -5 -5 3 -2
36 -12 -24 16 -6 -5 4 -2
36 -11 -24 16 -6 -5 4 0
36 -10 -24 17 -7 -5 5 1
35 -9 -24 18 -8 -4 6 2
35 -10 -24 18 -8 -3 7 3
35 -10 -24 18 -7 -2 9 5
36 -11 -24 18 -7 0 10 6
36 -12 -24 18 -6 2 12 8
37 -13 -23 19 -5 3 13 9
37 -13 -24 19 -5 3 13 9
37 -12 -24 19 -5 3 12 9
38 -12 -25 18 -6 2 12 8
38 -11 -26 18 -6 2 11 8
39 -10 -27 17 -7 1 10 7
39 -8 -27 17 -7 1 10 7
39 -7 -26 17 -6 1 10 7
39 -5 -26 17 -6 1 9 7
39 -4 -25 17 -5 1 9 7
39 -2 -24 16 -4 2 8 6
37 0 -23 18 -3 2 8 7
34 1 -22 20 -2 3 9 8
32 2 -21 21 0 3 9 9
30 3 -19 23 1 4 10 10
28 4 -18 25 2 5 11 11
27 4 -15 25 4 6 12 11
26 3 -13 25 6 6 12 11
25 3 -11 26 8 7 13 12
23 2 -8 26 10 8 14 12
22 1 -6 27 12 9 15 13
21 3 -5 27 12 9 14 11
19 4 -5 27 12 9 13 10
18 6 -4 27 13 9 12 8
17 7 -3 27 13 9 11 7
15 9 -2 28 14 9 10 5
13 7 1 28 15 10 10 5
11 5 3 28 16 11 10 5
9 3 5 28 17 12 9 5
7 1 7 28 19 13 9 5
5 -2 9 27 20 14 8 5
4 -2 9 26 19 13 7 4
3 -2 9 24 18 12 5 3
2 -2 9 23 17 11 4 2
1 -2 9 22 16 9 3 0
0 0 10 20 15 8 1 -2
-2 0 10 18 15 8 1 -3
-3 0 10 17 14 7 0 -3
-4 0 10 15 14 7 0 -4
-5 0 10 14 13 6 -2 -5
-6 1 10 12 12 5 -3 -6
-6 1 10 12 11 4 -5 -7
-6 1 10 11 10 3 -6 -8
-6 0 10 11 9 2 -8 -9
-6 0 10 10 8 0 -9 -11
-6 -2 9 9 7 -2 -11 -12
-6 -2 10 9 7 -2 -11 -12
-7 -2 10 9 7 -2 -10 -11
-7 -3 11 8 8 0 -10 -11
-8 -3 12 8 8 0 -9 -10
-9 -4 13 7 9 1 -8 -9
-9 -4 13 7 9 1 -8 -9
-10 -4 13 7 9 1 -8 -9
-10 -4 13 7 9 1 -8 -9
-11 -4 13 7 9 1 -8 -9
-12 -3 13 8 10 2 -8 -9
-12 -3 13 8 10 2 -8 -9
-11 -3 13 8 10 2 -8 -9
-11 -3 13 7 10 2 -8 -9
-10 -3 13 7 10 2 -8 -9
-9 -4 13 6 10 3 -7 -9
-8 -4 12 6 9 2 -8 -10
-7 -3 11 6 8 1 -9 -12
-6 -2 10 5 7 0 -10 -13
-4 0 8 5 6 -2 -12 -14
-3 1 7 4 5 -3 -13 -16
-5 0 8 5 6 -2 -11 -14
-8 -3 10 7 8 0 -9 -12
-10 -4 12 9 9 1 -8 -11
-13 -5 13 10 10 3 -6 -9
-15 -7 15 12 12 4 -4 -7
-13 -7 15 12 12 3 -4 -8
-11 -6 14 12 12 2 -5 -9
-10 -5 14 12 11 1 -5 -10
-8 -4 13 12 11 -2 -6 -12
-6 -3 12 11 10 -3 -7 -13
-6 -3 12 11 10 -3 -7 -13
-7 -2 11 10 10 -3 -8 -13
-7 0 11 10 9 -3 -8 -13
-8 1 10 9 9 -3 -9 -13
-9 2 9 8 8 -4 -10 -14
-9 1 9 8 8 -4 -10 -14
-9 0 9 8 8 -4 -10 -14
-10 -2 9 8 8 -4 -10 -14
-10 -4 9 8 8 -4 -10 -14
-11 -5 10 8 8 -3 -9 -13
-11 -5 10 8 8 -3 -9 -13
-10 -5 10 8 8 -3 -9 -13
-9 -5 11 8 8 -3 -9 -13
-8 -5 11 8 8 -3 -9 -13
-7 -4 12 8 7 -3 -9 -14
-7 -5 12 8 7 -3 -9 -14
-8 -6 13 9 7 -3 -9 -15
-8 -7 13 9 7 -3 -9 -15
-9 -8 14 10 7 -3 -9 -16
-10 -9 15 11 7 -3 -9 -17
-10 -8 15 11 7 -3 -9 -17
-11 -6 15 11 7 -3 -9 -17
-11 -5 14 10 7 -4 -9 -17
-12 -4 14 10 7 -4 -9 -17
-13 -2 13 9 6 -5 -10 -18
-13 -3 13 9 6 -5 -10 -18
-13 -4 13 9 6 -5 -10 -18
-13 -5 13 9 5 -5 -10 -17
-13 -7 13 9 5 -5 -10 -17
-12 -8 12 9 4 -5 -10 -16
-12 -8 12 9 4 -5 -10 -16
-11 -8 12 9 4 -5 -10 -16
-11 -7 12 9 4 -6 -10 -16
-10 -7 12 9 4 -6 -10 -16
-9 -6 11 8 3 -7 -10 -17
-9 -6 11 8 2 -7 -11 -18
-9 -6 11 8 1 -8 -12 -19
-9 -6 11 7 0 -8 -13 -20
-9 -6 11 7 -2 -9 -15 -22
-8 -6 10 6 -3 -10 -16 -23
-8 -6 10 6 -3 -10 -15 -22
-9 -6 10 6 -2 -9 -14 -21
-9 -6 11 6 0 -8 -13 -20
-10 -6 11 6 1 -7 -11 -18
-11 -6 12 7 2 -6 -10 -17
-11 -6 12 8 2 -6 -10 -17
-10 -5 13 9 3 -6 -10 -17
-9 -4 13 10 3 -6 -10 -17
-8 -3 14 11 4 -6 -10 -17
-7 -2 15 12 5 -6 -10 -17
-7 -2 16 12 5 -6 -10 -17
-6 0 17 13 5 -5 -9 -17
-6 0 18 13 6 -5 -8 -16
-5 1 19 14 6 -4 -7 -16
-4 2 20 15 7 -3 -6 -15
-4 4 21 16 8 -2 -5 -13
-4 6 22 18 10 0 -4 -12
-4 8 23 19 11 1 -3 -10
-4 10 24 20 12 3 0 -8
-3 12 25 22 14 4 1 -6
-3 12 24 22 14 4 1 -6
-3 13 22 22 14 4 1 -6
-4 14 21 22 14 5 1 -6
-4 15 20 22 14 5 1 -6
-5 16 18 22 15 6 1 -6
-2 17 17 21 15 6 1 -6
2 18 15 20 15 6 1 -5
4 19 13 19 14 6 2 -4
7 21 12 18 14 6 2 -3
10 22 10 17 13 6 3 -2
10 22 10 17 14 7 3 -2
10 22 11 18 15 8 4 0
10 22 11 19 16 9 5 0
10 22 12 20 17 10 6 1
10 21 13 21 18 11 7 2
10 21 11 20 17 9 5 1
10 21 9 18 15 8 4 -2
10 21 7 16 14 6 2 -4
10 21 5 15 13 4 0 -5
11 22 3 13 11 2 -3 -7
9 19 3 12 10 1 -3 -7
8 16 3 11 9 0 -4 -7
6 14 3 10 8 -2 -4 -8
4 11 3 9 7 -3 -5 -8
2 8 2 7 6 -4 -6 -9
0 6 3 7 6 -4 -6 -10
-3 4 4 6 5 -5 -7 -11
-5 2 5 5 4 -6 -7 -12
-7 -2 6 4 3 -7 -8 -13
-9 -4 8 3 2 -8 -9 -15
-9 -6 8 3 2 -8 -9 -15
-10 -8 8 2 2 -8 -9 -14
-10 -10 9 2 1 -9 -9 -13
-11 -13 9 1 1 -9 -9 -12
-12 -15 10 0 0 -10 -8 -11
-12 -15 10 0 -2 -11 -9 -11
-12 -14 9 -2 -3 -12 -10 -12
-12 -14 8 -2 -4 -13 -11 -13
-12 -13 7 -3 -5 -14 -12 -14
-13 -12 6 -4 -7 -15 -13 -15
-13 -12 6 -4 -7 -15 -13 -15
-13 -13 6 -5 -7 -15 -13 -15
-12 -13 6 -6 -7 -15 -14 -16
-12 -14 6 -7 -7 -15 -14 -16
-11 -15 6 -8 -7 -15 -15 -17
-11 -15 6 -8 -7 -15 -15 -17
-11 -14 6 -8 -7 -15 -15 -17
-11 -14 5 -8 -7 -15 -16 -17
-11 -13 5 -8 -7 -15 -16 -17
-12 -12 4 -7 -8 -16 -17 -18
-13 -12 4 -7 -8 -16 -17 -18
-14 -12 4 -7 -8 -16 -17 -18
-15 -12 4 -8 -8 -16 -17 -18
-16 -12 4 -8 -8 -16 -17 -18
-17 -12 4 -9 -8 -16 -16 -17
-17 -12 4 -9 -8 -16 -16 -17
-16 -13 4 -9 -8 -16 -16 -17
-15 -14 4 -8 -8 -16 -16 -16
-14 -15 4 -8 -8 -16 -16 -16
-13 -16 4 -7 -8 -15 -15 -15
-13 -18 6 0 -6 -15 -16 -17
-13 -20 8 5 -4 -15 -17 -18
-13 -22 10 10 -2 -15 -18 -20
-13 -24 12 16 1 -15 -19 -22
-13 -26 14 22 4 -16 -20 -24
-10 -21 19 35 14 -9 -17 -23
-7 -17 24 49 24 -2 -13 -22
-3 -12 29 62 34 6 -10 -20
1 -8 34 75 46 13 -6 -19
5 -2 39 88 55 20 -2 -16
15 11 35 84 59 34 15 1
26 23 31 79 63 48 30 16
36 36 28 74 66 61 46 31
47 49 24 70 70 75 61 47
58 62 18 63 74 90 78 64
68 86 2 35 76 108 103 92
78 108 -15 9 78 127 129 119
89 131 -32 -19 80 145 153 147
100 154 -49 -47 82 164 179 176
109 175 -65 -74 82 180 201 200
101 169 -73 -106 63 165 193 197
94 162 -82 -137 45 150 185 193
86 156 -92 -168 25 136 178 190
78 150 -101 -199 6 121 170 186
69 141 -109 -228 -15 104 157 179
44 114 -109 -240 -40 66 113 139
18 87 -109 -254 -67 28 69 99
-7 60 -109 -266 -94 -10 25 59
-32 32 -109 -279 -120 -49 -19 19
-55 8 -110 -288 -144 -82 -59 -17
-54 4 -108 -271 -138 -79 -59 -22
-52 -2 -105 -253 -131 -76 -59 -27
-51 -6 -102 -234 -124 -73 -60 -32
-49 -11 -100 -216 -118 -70 -60 -37
-47 -15 -96 -197 -111 -67 -61 -43
-41 -15 -85 -172 -99 -60 -56 -40
-36 -15 -73 -147 -86 -54 -51 -37
-32 -15 -62 -122 -73 -47 -47 -34
-27 -15 -51 -97 -61 -39 -41 -32
-22 -15 -39 -74 -49 -33 -36 -29
-21 -15 -32 -65 -43 -29 -33 -27
-20 -15 -26 -56 -36 -24 -31 -25
-19 -15 -20 -47 -31 -20 -28 -23
-18 -15 -13 -37 -25 -15 -25 -21
-16 -15 -7 -28 -19 -11 -22 -19
-16 -16 -6 -25 -19 -11 -22 -19
-17 -17 -4 -21 -18 -11 -21 -19
-17 -18 -2 -18 -17 -11 -21 -18
-18 -19 1 -15 -16 -11 -20 -18
-19 -20 3 -11 -15 -10 -19 -17
-18 -20 3 -11 -15 -10 -19 -18
-16 -19 3 -11 -14 -10 -20 -19
-15 -19 3 -11 -14 -10 -20 -20
-13 -18 3 -11 -13 -10 -21 -21
-11 -17 3 -10 -12 -9 -22 -22
-11 -17 3 -9 -12 -9 -22 -22
-12 -17 3 -8 -12 -9 -22 -22
-12 -17 4 -7 -11 -9 -22 -21
-13 -17 4 -6 -11 -9 -22 -21
-14 -16 5 -4 -10 -9 -21 -20
-14 -16 5 -4 -10 -8 -20 -19
-14 -16 6 -3 -9 -7 -19 -18
-14 -16 7 -3 -8 -5 -17 -17
-14 -16 8 -2 -7 -4 -16 -16
-14 -15 9 0 -6 -2 -14 -14
-14 -15 9 0 -6 -2 -14 -14
-14 -15 8 0 -6 -2 -15 -14
-13 -14 8 0 -7 -3 -15 -14
-13 -14 7 0 -7 -3 -16 -14
-12 -13 6 -2 -8 -4 -17 -15
-12 -13 6 -2 -8 -4 -17 -15
-12 -14 6 -2 -7 -3 -16 -15
-12 -15 7 0 -6 -3 -16 -15
-12 -16 7 0 -5 -2 -15 -15
-11 -17 8 1 -4 0 -14 -14
-11 -17 8 1 -4 0 -14 -14
-11 -16 7 1 -5 -2 -15 -14
-10 -15 7 1 -5 -3 -15 -15
-10 -14 6 1 -6 -4 -16 -15
-9 -13 5 0 -7 -5 -17 -16
-8 -13 5 0 -7 -5 -17 -16
-7 -13 4 0 -7 -5 -17 -16
-5 -12 3 -2 -7 -5 -17 -16
-4 -12 2 -2 -7 -5 -17 -16
-2 -11 1 -3 -8 -4 -18 -16
-3 -11 1 -2 -8 -4 -17 -15
-4 -12 2 0 -7 -3 -16 -14
-5 -13 3 1 -6 -3 -15 -13
-6 -14 4 2 -5 -2 -14 -12
-8 -15 5 4 -4 0 -13 -11
-8 -15 5 4 -4 0 -12 -10
-8 -15 5 4 -4 1 -11 -9
-7 -14 5 4 -3 2 -10 -8
-7 -14 5 4 -3 3 -9 -7
-6 -13 4 5 -2 4 -8 -6
-5 -13 4 5 -3 3 -9 -7
-4 -13 3 5 -4 2 -10 -8
-2 -13 2 4 -5 1 -12 -9
0 -13 1 4 -6 0 -13 -10
2 -13 0 3 -7 -3 -15 -11
2 -13 0 3 -7 -3 -15 -11
2 -13 0 3 -7 -3 -15 -11
2 -13 0 3 -6 -2 -15 -11
2 -13 0 3 -6 -2 -15 -11
2 -14 0 4 -5 0 -14 -10
2 -14 0 4 -5 0 -13 -10
2 -13 0 4 -5 1 -12 -9
3 -12 -2 5 -5 2 -11 -9
3 -11 -2 5 -5 3 -10 -8
4 -10 -3 6 -6 4 -9 -7
4 -10 -3 6 -6 4 -9 -7
4 -10 -4 6 -6 4 -10 -7
5 -10 -4 5 -6 3 -10 -8
5 -10 -5 5 -6 3 -11 -8
6 -11 -6 4 -5 2 -12 -9
7 -11 -6 4 -5 2 -12 -9
9 -12 -7 4 -6 2 -12 -9
11 -12 -8 4 -7 2 -11 -8
13 -13 -9 4 -8 2 -11 -8
15 -14 -10 4 -9 2 -10 -7
16 -14 -10 4 -9 2 -10 -7
17 -15 -11 3 -9 2 -9 -6
18 -15 -12 3 -9 2 -9 -5
19 -16 -13 2 -9 2 -8 -4
21 -17 -14 1 -10 3 -7 -3
21 -17 -15 1 -10 3 -7 -3
21 -16 -16 0 -11 3 -7 -3
21 -16 -17 0 -12 3 -7 -3
21 -15 -18 -2 -13 3 -7 -3
22 -14 -20 -3 -14 2 -8 -3
24 -13 -21 -4 -15 2 -8 -3
27 -11 -22 -6 -16 1 -9 -4
29 -10 -24 -7 -17 0 -9 -4
32 -8 -25 -9 -18 -2 -10 -5
35 -6 -27 -11 -20 -3 -11 -6
35 -7 -27 -11 -20 -2 -10 -5
35 -8 -27 -11 -20 0 -9 -4
35 -9 -27 -10 -20 1 -8 -3
35 -10 -27 -10 -20 2 -7 -2
34 -12 -28 -9 -19 3 -5 1
35 -12 -28 -9 -19 3 -5 2
36 -11 -28 -9 -19 4 -4 4
37 -11 -29 -10 -19 4 -3 5
38 -10 -29 -10 -19 5 -2 7
39 -9 -30 -11 -18 6 0 9
39 -9 -30 -11 -18 6 0 9
39 -8 -30 -11 -19 5 -2 8
39 -7 -31 -12 -19 5 -2 7
39 -6 -31 -12 -20 4 -3 6
40 -5 -32 -13 -21 3 -4 5
39 -5 -31 -12 -19 4 -2 7
38 -4 -30 -11 -17 6 1 9
37 -3 -28 -9 -15 8 3 11
36 -2 -27 -8 -13 10 5 13
34 0 -25 -6 -11 12 7 15
34 0 -24 -5 -10 12 7 15
33 1 -23 -4 -9 12 7 15
33 1 -22 -3 -8 13 8 16
32 2 -21 -2 -7 13 8 16
31 3 -20 1 -6 14 9 17
30 3 -19 2 -5 14 9 17
29 3 -17 4 -3 15 9 16
28 3 -15 5 -2 15 9 16
27 3 -13 7 1 16 9 15
25 4 -11 9 3 17 9 14
24 5 -10 10 3 17 8 14
22 6 -9 11 4 17 7 13
21 7 -8 12 4 17 6 12
19 8 -7 13 5 17 5 11
17 10 -6 15 6 16 4 10
16 9 -5 15 7 16 4 10
15 9 -3 16 8 17 4 10
13 8 0 16 10 18 4 11
12 7 2 17 11 19 4 11
11 6 3 17 12 19 4 11
9 5 4 18 13 19 4 11
7 5 5 18 13 18 3 9
5 5 6 17 12 17 1 7
3 5 7 17 12 16 0 5
2 5 7 17 12 15 -2 4
0 4 8 16 11 14 -3 3
-2 4 9 15 12 14 -3 3
-3 4 9 14 12 15 -2 4
-4 4 10 13 13 15 -2 4
-5 4 10 13 13 15 -2 4
-7 3 11 12 14 16 0 5
-8 2 11 12 14 15 0 5
-9 1 10 11 13 14 -2 5
-10 0 10 11 13 13 -2 5
-11 0 10 11 13 13 -2 5
-12 -2 9 10 12 12 -3 6
-11 0 9 9 12 12 -3 5
-10 0 9 9 11 12 -4 4
-9 1 9 8 11 12 -4 3
-8 1 9 8 11 12 -4 2
-7 2 10 7 10 11 -5 1
-8 1 10 8 10 11 -5 2
-9 1 10 8 10 11 -4 2
-10 0 10 9 10 11 -4 3
-10 0 10 9 10 11 -4 3
-11 -2 11 10 11 12 -3 4
-11 0 11 10 11 12 -3 4
-11 0 11 10 11 12 -3 4
-11 1 11 10 11 12 -3 4
-11 1 11 10 11 12 -3 4
-12 2 12 9 10 12 -4 4
-11 1 12 9 10 11 -5 3
-10 1 11 9 9 11 -6 2
-9 0 11 9 9 10 -7 1
-9 0 11 9 9 10 -7 0
-8 -2 10 9 8 9 -8 -2
-8 -2 10 9 9 9 -7 -2
-8 -2 10 10 9 9 -6 0
-8 -2 10 10 10 9 -5 0
-8 -2 10 10 10 9 -5 0
-8 -3 11 11 11 10 -4 1
-8 -3 11 11 11 11 -3 2
-9 -3 11 11 11 11 -3 3
-9 -3 11 11 11 12 -2 4
-9 -3 11 11 11 12 -2 4
-10 -2 11 11 11 12 0 5
-10 -2 11 11 11 11 -2 4
-10 0 10 10 11 10 -3 3
-10 0 10 10 11 9 -4 2
-10 0 10 10 11 8 -5 2
-9 1 9 9 10 7 -6 1
-9 0 9 9 10 7 -6 1
-10 0 9 9 10 6 -6 0
-10 -2 9 9 10 6 -6 0
-10 -2 9 9 10 6 -6 0
-11 -3 10 9 9 5 -7 -2
-10 -3 9 9 9 5 -7 -2
-10 -2 9 9 8 5 -7 -3
-9 -2 8 9 8 5 -7 -3
-9 -2 8 9 8 5 -7 -3
-8 0 7 8 7 6 -7 -4
-8 0 8 8 7 5 -7 -3
-9 0 8 8 7 5 -7 -2
-9 0 9 8 7 4 -7 0
-9 0 9 8 7 4 -7 0
-10 1 10 7 6 3 -7 1
-10 1 10 7 6 3 -7 0
-10 1 10 7 6 2 -7 0
-10 1 10 7 6 2 -7 -2
-10 1 10 7 6 2 -7 -2
-9 1 9 8 6 1 -8 -3
-9 0 9 8 6 1 -8 -4
-10 -2 8 8 5 1 -9 -4
-10 -3 8 8 5 1 -9 -5
-10 -3 8 8 5 1 -9 -5
-11 -4 7 7 4 0 -10 -6
-12 -3 7 7 4 0 -10 -6
-12 -3 7 6 4 0 -10 -6
-13 -2 7 6 4 0 -10 -6
-13 -2 7 6 4 0 -10 -6
-14 0 8 5 5 -2 -10 -5
-14 -2 8 5 4 -2 -10 -5
-13 -2 8 5 3 -2 -10 -5
-13 -3 8 5 2 -2 -10 -5
-13 -3 8 5 2 -2 -10 -5
-12 -4 8 6 1 -3 -9 -4
-12 -4 8 6 1 -3 -9 -4
-12 -4 8 5 2 -3 -9 -5
-12 -4 8 5 2 -3 -9 -5
-12 -4 8 5 2 -3 -9 -5
-12 -3 7 4 3 -3 -9 -6
-12 -3 7 4 2 -4 -9 -6
-11 -4 6 4 1 -4 -10 -6
-11 -4 6 4 0 -5 -10 -6
-11 -4 6 4 0 -5 -10 -6
-10 -5 5 3 -2 -6 -11 -7
-11 -5 5 3 0 -6 -11 -7
-12 -5 5 3 1 -6 -10 -7
-13 -5 5 3 2 -6 -10 -7
-14 -5 5 3 2 -6 -10 -7
-14 -5 5 4 3 -5 -9 -6
-13 -4 5 4 2 -5 -10 -6
-12 -4 6 4 2 -5 -10 -6
-11 -3 6 4 1 -5 -11 -6
-10 -3 6 4 1 -5 -11 -6
-9 -2 7 5 1 -4 -11 -7
-9 0 8 5 2 -3 -10 -7
-9 1 8 5 3 -2 -8 -7
-9 2 9 5 4 0 -7 -7
-9 2 9 5 5 1 -6 -7
-7 4 11 7 6 2 -5 -7
-6 6 13 9 7 2 -5 -6
-4 7 14 10 7 2 -5 -5
-3 9 16 12 8 2 -5 -4
-2 10 17 13 8 2 -5 -4
0 12 18 14 10 3 -4 -3
0 13 18 15 11 4 -3 -2
0 15 18 16 12 4 -3 -2
0 16 18 17 13 5 -2 0
0 17 18 18 14 5 -2 0
1 19 17 19 15 6 0 2
0 20 16 18 15 7 1 3
0 21 14 17 15 7 1 4
-2 22 13 16 15 8 2 5
-2 23 12 16 15 8 2 6
0 24 10 15 14 9 3 7
3 25 9 15 15 9 3 7
6 26 7 15 15 9 4 7
9 27 6 15 16 9 4 7
12 27 5 15 16 9 4 7
13 28 4 16 17 10 5 6
13 28 4 17 18 11 6 6
13 28 5 18 18 11 6 6
13 28 5 19 19 12 7 6
13 28 5 19 19 12 7 6
11 26 6 19 19 12 8 6
9 24 6 18 18 11 8 5
7 23 5 17 17 10 7 5
6 21 5 16 16 9 7 4
4 20 5 15 15 8 7 4
3 18 4 13 13 6 5 2
2 16 4 11 11 5 2 -2
2 15 4 10 9 3 0 -4
1 13 4 8 7 2 -3 -6
1 12 4 7 5 1 -5 -8
-2 10 5 5 4 0 -7 -9
-4 8 5 3 3 -2 -8 -10
-5 6 5 2 3 -3 -9 -11
-7 4 5 0 2 -4 -10 -12
-8 2 5 -2 2 -5 -11 -13
-9 1 6 -3 1 -6 -12 -14
-10 0 6 -3 0 -7 -12 -14
-10 -2 5 -3 0 -8 -12 -14
-11 -3 5 -3 -2 -9 -12 -14
-11 -4 5 -3 -2 -10 -12 -14
-12 -6 4 -2 -3 -11 -12 -15
-12 -7 5 -2 -3 -11 -12 -15
-13 -9 6 -2 -3 -11 -12 -15
-13 -10 7 -2 -3 -11 -12 -15
-13 -11 7 -2 -3 -11 -12 -15
-14 -12 8 -2 -4 -11 -13 -16
-13 -12 7 -3 -5 -12 -14 -17
-12 -11 6 -3 -6 -12 -14 -18
-11 -11 5 -4 -7 -13 -15 -19
-11 -11 4 -4 -7 -13 -15 -19
-11 -10 3 -5 -8 -14 -15 -19
-12 -10 4 -5 -7 -13 -14 -18
-13 -10 5 -4 -6 -12 -13 -17
-14 -10 6 -4 -5 -11 -12 -16
-15 -10 6 -4 -5 -11 -11 -15
-16 -9 7 -3 -4 -10 -10 -14
-16 -10 6 -3 -4 -11 -11 -14
-15 -10 6 -4 -5 -11 -11 -15
-15 -11 5 -4 -5 -12 -12 -15
-15 -11 5 -4 -5 -12 -12 -15
-14 -12 4 -5 -6 -13 -13 -17
-13 -13 4 -4 -6 -14 -14 -19
-12 -14 5 -3 -6 -15 -15 -21
-11 -15 5 -2 -6 -16 -16 -22
-10 -15 5 0 -6 -16 -17 -24
-9 -16 10 12 1 -15 -18 -25
-8 -16 15 25 8 -12 -18 -26
-7 -16 20 38 15 -10 -18 -27
-6 -16 25 52 22 -7 -18 -28
-5 -16 30 66 29 -4 -18 -29
1 -11 32 73 38 7 -9 -24
6 -4 33 79 49 17 2 -15
12 4 34 86 58 28 12 -7
17 11 35 92 68 39 22 2
23 17 36 99 77 51 32 10
34 38 27 85 80 68 55 34
48 61 15 66 82 86 80 61
61 85 2 47 85 104 106 89
74 107 -11 28 86 122 132 115
87 131 -24 9 88 141 157 142
90 142 -37 -25 79 146 171 160
91 152 -52 -61 67 149 182 178
92 161 -66 -98 56 152 193 194
93 172 -80 -135 44 155 204 211
94 181 -95 -172 31 158 216 228
79 163 -99 -191 9 130 186 202
61 139 -101 -208 -16 94 147 169
43 114 -103 -225 -40 58 108 134
24 90 -104 -241 -65 22 70 100
7 65 -106 -259 -90 -15 31 65
-8 51 -107 -262 -103 -34 8 42
-21 38 -106 -262 -114 -52 -13 19
-34 25 -105 -263 -124 -68 -34 -3
-48 13 -104 -263 -135 -86 -55 -24
-61 1 -103 -263 -146 -103 -75 -47
-62 -3 -95 -240 -137 -99 -73 -49
-59 -5 -87 -212 -122 -89 -66 -45
-55 -6 -77 -182 -107 -78 -58 -41
-52 -7 -69 -153 -93 -69 -50 -37
-49 -8 -60 -123 -78 -59 -43 -34
-43 -9 -52 -105 -68 -53 -38 -32
-36 -10 -44 -89 -59 -48 -35 -31
-30 -11 -34 -72 -50 -43 -31 -29
-24 -12 -26 -56 -39 -37 -28 -27
-18 -13 -18 -38 -30 -31 -25 -26
-16 -14 -15 -32 -27 -30 -24 -25
-16 -14 -12 -29 -26 -29 -24 -26
-15 -14 -10 -25 -24 -28 -24 -26
-15 -14 -8 -21 -22 -27 -24 -27
-15 -14 -6 -17 -21 -27 -24 -27
-14 -14 -4 -14 -19 -26 -23 -28
-15 -14 -2 -12 -16 -24 -22 -27
-16 -14 1 -9 -14 -23 -21 -26
-17 -14 2 -7 -11 -22 -20 -25
-17 -14 4 -4 -9 -21 -19 -25
-18 -13 5 -3 -8 -20 -18 -24
-17 -14 5 -3 -8 -20 -18 -24
-16 -15 5 -2 -8 -20 -17 -24
-15 -16 5 -2 -8 -20 -17 -24
-15 -16 5 -2 -8 -20 -17 -24
-14 -17 6 0 -9 -21 -16 -23
-13 -16 6 1 -9 -20 -16 -23
-13 -16 6 2 -8 -20 -16 -23
-12 -15 6 3 -8 -19 -16 -23
-12 -15 6 3 -8 -19 -16 -23
-11 -14 7 4 -7 -18 -16 -22
-11 -14 7 4 -7 -18 -16 -22
-11 -13 7 4 -7 -17 -16 -22
-11 -13 7 4 -7 -17 -16 -22
-11 -13 7 4 -7 -17 -16 -22
-11 -12 8 5 -6 -16 -15 -22
-10 -13 8 5 -6 -16 -15 -23
-9 -13 9 6 -6 -17 -16 -23
-7 -14 9 6 -6 -17 -16 -24
-6 -14 9 6 -6 -17 -16 -24
-5 -15 10 7 -5 -18 -17 -25
-7 -14 10 7 -5 -18 -17 -23
-8 -13 9 6 -5 -18 -17 -22
-9 -12 9 6 -5 -18 -17 -21
-10 -11 9 6 -5 -18 -17 -20
-11 -10 8 5 -6 -18 -16 -19
-11 -11 8 6 -5 -17 -15 -19
-10 -12 8 6 -5 -16 -14 -18
-10 -13 8 7 -4 -15 -13 -18
-10 -13 8 7 -4 -15 -13 -18
-9 -14 9 8 -3 -14 -12 -17
-9 -12 9 8 -3 -14 -12 -17
-8 -11 9 8 -3 -13 -11 -17
-8 -10 9 8 -3 -13 -11 -17
-8 -9 9 8 -3 -13 -11 -17
-7 -8 9 8 -3 -12 -10 -18
-5 -9 9 8 -3 -12 -10 -18
-4 -10 9 8 -2 -13 -11 -18
-3 -11 9 8 -2 -13 -11 -18
-2 -12 9 8 -2 -13 -11 -18
0 -13 9 9 0 -14 -12 -19
0 -13 8 9 -2 -14 -12 -19
0 -12 7 9 -3 -15 -12 -19
0 -12 6 9 -4 -15 -12 -19
0 -12 5 9 -4 -15 -12 -19
0 -11 4 9 -5 -16 -13 -18
0 -11 4 10 -4 -16 -12 -17
-2 -11 5 11 -3 -16 -12 -17
-2 -11 5 12 -2 -16 -11 -16
-2 -11 5 12 -2 -16 -11 -16
-3 -12 6 13 0 -15 -10 -15
-3 -12 6 13 0 -15 -10 -15
-2 -12 5 13 -2 -15 -9 -14
-2 -12 5 13 -2 -15 -9 -14
-2 -12 5 13 -2 -15 -9 -14
1 -12 4 14 -3 -14 -8 -13
3 -12 3 14 -3 -15 -8 -14
6 -12 2 14 -4 -15 -9 -15
8 -12 1 14 -4 -16 -9 -16
10 -12 0 14 -4 -16 -9 -17
11 -12 -2 13 -5 -17 -10 -18
11 -11 -3 13 -5 -16 -8 -17
10 -10 -3 14 -5 -15 -7 -16
10 -9 -4 14 -5 -14 -6 -15
10 -9 -4 14 -5 -14 -5 -14
9 -9 -5 15 -4 -13 -4 -13
10 -10 -4 16 -3 -12 -3 -12
11 -11 -4 17 -2 -11 -2 -11
12 -13 -3 18 0 -10 0 -10
13 -14 -3 18 1 -10 1 -10
15 -15 -2 19 1 -9 2 -9
17 -15 -3 18 -2 -10 1 -10
18 -15 -4 17 -3 -11 0 -11
20 -15 -5 16 -5 -12 -2 -12
22 -15 -5 16 -7 -12 -3 -13
24 -16 -6 15 -8 -13 -4 -14
25 -16 -8 15 -8 -13 -4 -14
26 -15 -9 15 -8 -13 -3 -13
28 -15 -10 15 -8 -13 -3 -13
29 -15 -11 15 -8 -13 -3 -13
30 -14 -12 15 -8 -12 0 -11
30 -13 -12 15 -8 -12 1 -10
31 -13 -12 14 -8 -11 2 -8
31 -12 -12 14 -8 -11 4 -7
31 -12 -12 14 -8 -11 5 -5
32 -11 -12 13 -9 -10 6 -4
32 -11 -12 14 -9 -9 7 -3
32 -11 -12 14 -9 -8 8 -2
32 -11 -12 15 -9 -7 9 0
32 -11 -12 15 -9 -6 10 1
33 -11 -12 16 -8 -5 11 2
35 -10 -13 15 -8 -5 11 2
36 -9 -13 14 -8 -5 11 2
37 -7 -14 14 -8 -5 11 2
38 -6 -14 13 -8 -5 11 2
39 -5 -15 12 -8 -5 10 1
38 -5 -15 12 -8 -5 10 2
37 -5 -15 13 -8 -4 10 2
36 -5 -15 13 -8 -4 10 3
35 -5 -15 13 -8 -4 10 3
34 -4 -15 14 -7 -3 12 5
34 -4 -14 16 -6 -2 13 6
33 -4 -14 17 -5 0 14 7
33 -4 -13 18 -4 1 16 9
33 -4 -13 19 -3 2 17 10
32 -4 -11 20 0 3 18 11
31 -4 -9 21 1 4 18 11
30 -3 -7 22 2 4 18 10
30 -3 -4 23 4 5 18 10
29 -3 -2 24 5 5 18 10
26 0 1 25 6 6 17 9
24 1 2 27 7 6 17 9
21 3 4 28 8 7 17 9
18 4 5 29 9 7 17 9
15 6 7 30 10 7 17 9
14 7 9 31 11 8 17 9
14 6 10 31 12 7 16 8
14 6 11 31 13 7 16 6
14 5 13 31 14 6 15 5
14 5 14 31 15 6 15 3
14 4 15 32 16 5 14 2
12 4 17 32 16 5 13 2
10 4 18 31 16 5 12 1
8 4 19 31 16 5 12 1
6 4 20 31 16 5 11 1
5 4 21 30 16 6 10 0
3 3 21 29 16 5 9 0
2 3 20 28 17 4 9 0
1 2 20 27 17 4 8 0
0 2 20 26 17 3 8 0
-2 1 19 25 18 2 7 -2
-3 1 19 24 17 1 6 -3
-4 1 19 23 16 1 6 -4
-4 1 19 22 16 0 5 -4
-5 1 19 21 15 0 5 -5
-6 2 20 20 14 -2 4 -6
-7 1 20 20 14 -2 4 -6
-8 0 21 19 14 -2 4 -5
-8 -2 21 19 14 -2 4 -5
-9 -3 21 19 14 -2 4 -5
-10 -4 22 18 15 0 5 -4
-10 -4 22 17 14 -2 4 -5
-10 -4 22 17 13 -3 4 -5
-10 -4 22 16 13 -3 3 -6
-10 -4 22 16 12 -4 3 -6
-11 -3 21 15 11 -5 2 -7
-11 -4 22 16 11 -4 2 -7
-12 -5 23 16 12 -3 2 -7
-12 -5 23 17 12 -2 2 -7
-12 -6 24 17 12 0 2 -7
-13 -7 25 18 13 1 1 -8
-13 -5 24 18 13 1 1 -8
-12 -4 24 18 13 1 1 -8
-12 -3 23 18 13 1 1 -8
-12 -2 23 18 13 1 1 -8
-11 0 22 17 13 1 0 -8
-10 0 21 16 12 0 0 -8
-10 0 20 16 12 0 0 -8
-9 0 19 15 11 -2 0 -8
-9 0 18 15 11 -2 0 -8
-8 -2 17 14 10 -3 -2 -9
-8 -2 18 14 10 -3 -2 -9
-8 -2 18 14 10 -3 0 -8
-8 -2 19 14 10 -3 0 -8
-8 -2 19 14 10 -3 0 -8
-9 0 20 15 11 -3 1 -7
-9 0 20 15 11 -3 0 -8
-10 0 20 15 11 -3 0 -9
-10 0 20 15 11 -3 -2 -9
-10 0 20 15 11 -3 -2 -10
-11 -2 21 14 11 -2 -3 -11
-10 -2 19 13 10 -2 -3 -11
-9 -2 18 12 10 -3 -3 -11
-8 -2 17 11 9 -3 -3 -11
-7 -2 16 10 9 -3 -3 -11
-6 -2 15 9 8 -4 -3 -11
-7 -2 16 10 8 -4 -3 -10
-8 -3 17 10 9 -3 -2 -9
-8 -3 18 11 9 -3 -2 -9
-9 -3 19 11 9 -3 -2 -8
-10 -4 20 12 10 -2 0 -7
-11 -4 20 12 10 -2 0 -7
-11 -4 20 12 10 -2 0 -7
-12 -4 20 12 10 -2 0 -7
-12 -4 20 12 10 -2 0 -7
-13 -5 21 11 9 -3 -2 -7
-12 -5 20 11 9 -3 -2 -7
-11 -6 19 11 9 -4 -2 -7
-11 -6 19 11 9 -4 -2 -7
-10 -6 18 11 9 -4 -2 -7
-9 -7 17 10 9 -5 -2 -8
-9 -7 17 9 8 -6 -3 -9
-8 -7 16 8 6 -7 -5 -10
-8 -7 15 7 5 -8 -6 -10
-8 -7 15 6 3 -9 -7 -11
-7 -7 14 5 2 -10 -8 -12
-7 -7 14 5 2 -10 -8 -12
-8 -6 14 5 2 -10 -8 -12
-8 -6 14 5 2 -10 -8 -12
-8 -6 14 5 2 -10 -8 -12
-9 -5 14 5 3 -10 -8 -12
-10 -5 14 5 3 -10 -8 -12
-12 -5 15 5 3 -9 -7 -11
-13 -5 15 5 3 -8 -7 -11
-14 -5 15 5 3 -8 -7 -11
-15 -6 16 6 4 -7 -6 -10
-15 -6 16 6 4 -7 -6 -10
-14 -7 16 6 3 -8 -6 -10
-13 -8 16 6 3 -9 -6 -10
-13 -8 16 6 3 -9 -6 -10
-12 -9 17 5 2 -10 -6 -11
-12 -8 16 5 2 -10 -8 -12
-12 -6 15 4 1 -11 -9 -13
-12 -5 15 3 0 -11 -11 -13
-12 -4 14 3 0 -11 -12 -14
-11 -3 13 2 -2 -12 -13 -15
-12 -4 13 3 -2 -11 -12 -13
-14 -5 14 4 0 -9 -10 -12
-15 -5 14 5 0 -8 -9 -10
-16 -6 14 6 0 -7 -8 -9
-17 -7 15 7 1 -6 -7 -8
-16 -7 15 6 1 -7 -8 -9
-15 -7 14 5 0 -8 -9 -10
-14 -7 14 5 0 -9 -10 -10
-13 -7 14 4 0 -10 -11 -11
-12 -7 13 3 -2 -11 -12 -12
-12 -7 13 4 0 -10 -12 -12
-13 -6 13 5 1 -9 -11 -11
-13 -6 13 5 1 -9 -10 -10
-13 -6 13 6 2 -8 -10 -10
-14 -5 13 7 3 -7 -9 -9
-13 -4 13 7 3 -7 -8 -9
-12 -3 14 8 3 -6 -6 -8
-12 -2 14 9 3 -6 -5 -8
-11 0 14 9 3 -6 -4 -8
-10 1 16 10 4 -5 -3 -7
-10 2 17 11 5 -5 -3 -7
-10 3 19 12 6 -4 -3 -7
-10 3 21 12 6 -4 -3 -7
-10 4 23 13 7 -4 -3 -7
-11 5 24 14 8 -3 -4 -6
-9 6 23 14 9 -2 -4 -6
-8 8 22 15 10 0 -4 -6
-6 9 21 16 10 1 -4 -6
-5 10 20 16 11 2 -4 -6
-4 11 19 17 12 3 -3 -5
-4 12 18 17 12 3 -3 -4
-4 13 17 16 12 3 -2 -3
-4 13 17 16 12 3 -2 -3
-4 14 16 16 12 3 -2 -2
-3 16 15 15 11 2 0 0
-3 17 15 15 11 3 0 0
-2 19 15 14 12 4 1 1
0 21 15 14 13 5 2 1
0 23 15 14 13 6 2 1
1 24 14 13 14 7 3 2
2 24 14 14 14 7 4 3
3 24 14 16 15 8 5 4
3 24 14 17 16 9 5 4
4 24 14 18 16 9 6 5
5 22 14 19 17 10 7 6
5 20 13 18 17 10 7 5
5 17 11 17 16 9 6 4
5 15 9 16 15 9 5 3
5 12 7 15 15 9 5 2
4 11 6 14 14 8 4 1
2 11 6 14 13 7 4 1
-2 11 7 14 11 6 3 1
-4 11 7 14 10 6 3 1
-7 11 7 14 9 5 3 1
-8 8 8 12 7 3 1 1
-8 5 8 11 6 1 -3 -3
-9 2 8 9 4 -2 -6 -5
-10 -3 8 7 2 -4 -9 -8
-10 -6 8 5 0 -6 -11 -10
-11 -8 7 4 -2 -7 -13 -12
-11 -8 7 4 -2 -8 -13 -12
-12 -9 7 3 -3 -9 -13 -12
-12 -9 7 3 -3 -9 -13 -12
-12 -9 7 3 -3 -10 -13 -12
-13 -10 7 2 -4 -11 -13 -12
-14 -10 7 2 -4 -11 -13 -12
-15 -10 7 1 -5 -11 -13 -12
-16 -10 7 1 -5 -11 -13 -12
-17 -10 7 1 -5 -11 -13 -12
-18 -11 6 0 -6 -10 -13 -12
-17 -12 6 -2 -6 -10 -14 -13
-15 -13 6 -3 -7 -11 -15 -14
-14 -14 6 -3 -8 -12 -16 -15
-13 -15 6 -4 -8 -12 -17 -16
-12 -16 5 -5 -9 -13 -18 -17
-13 -16 5 -5 -9 -13 -18 -17
-14 -16 5 -4 -9 -13 -17 -16
-14 -16 5 -4 -9 -13 -16 -15
-15 -16 5 -4 -9 -13 -16 -15
-16 -15 5 -3 -9 -14 -15 -14
-16 -15 5 -3 -8 -14 -15 -14
-16 -15 5 -3 -7 -13 -14 -14
-16 -15 5 -3 -7 -12 -14 -14
-16 -15 5 -3 -6 -12 -14 -14
-17 -16 6 -3 -5 -11 -13 -14
-17 -16 6 -3 -5 -11 -14 -15
-17 -17 6 -3 -6 -12 -16 -16
-17 -17 6 -3 -7 -12 -17 -16
-17 -17 6 -3 -7 -12 -18 -17
-15 -19 7 5 -6 -13 -19 -19
-13 -21 11 17 -2 -13 -20 -21
-10 -24 15 29 3 -12 -21 -23
-8 -26 19 42 7 -12 -21 -25
-6 -28 24 54 12 -12 -22 -28
-4 -26 28 65 21 -5 -18 -27
-4 -18 33 76 35 8 -9 -22
-3 -11 37 87 49 20 1 -18
-3 -3 43 98 63 32 10 -13
-3 6 47 108 77 44 19 -9
4 21 44 101 84 59 37 9
15 40 31 78 84 77 61 35
26 61 19 55 84 96 86 63
36 81 8 32 84 113 109 90
48 102 -5 9 84 132 134 116
53 119 -20 -23 75 144 154 140
55 134 -38 -62 60 151 172 161
57 149 -56 -101 46 159 188 182
58 163 -74 -140 31 168 205 203
60 179 -93 -179 17 175 223 224
56 176 -103 -205 -3 162 215 222
45 157 -107 -223 -24 132 185 197
33 139 -112 -239 -47 101 155 174
22 119 -116 -257 -69 71 126 149
11 101 -121 -274 -92 40 96 126
-2 82 -123 -282 -109 12 64 98
-16 64 -121 -282 -123 -16 31 66
-31 46 -120 -282 -138 -44 -2 34
-46 27 -119 -282 -152 -71 -35 3
-60 9 -117 -282 -166 -99 -68 -29
-65 -2 -114 -269 -166 -108 -81 -45
-59 -4 -108 -243 -152 -99 -75 -45
-54 -6 -103 -217 -138 -91 -70 -45
-49 -8 -98 -190 -124 -81 -64 -45
-44 -10 -93 -163 -110 -72 -59 -45
-38 -12 -82 -140 -96 -64 -54 -44
-34 -14 -69 -118 -82 -57 -48 -40
-30 -16 -56 -97 -69 -49 -43 -36
-26 -18 -43 -75 -57 -41 -36 -32
-22 -20 -29 -53 -44 -33 -31 -28
-20 -21 -21 -39 -35 -28 -28 -26
-20 -21 -17 -34 -31 -26 -26 -24
-19 -21 -13 -28 -28 -23 -24 -23
-18 -21 -10 -22 -24 -21 -22 -22
-18 -21 -6 -16 -21 -19 -20 -20
-17 -20 -4 -12 -18 -17 -19 -19
-17 -20 -2 -10 -16 -16 -19 -19
-16 -21 0 -7 -14 -14 -18 -20
-16 -21 1 -4 -12 -13 -18 -20
-16 -21 3 -2 -10 -12 -18 -20
-15 -22 4 1 -8 -11 -17 -21
-15 -21 4 1 -8 -11 -17 -21
-14 -20 3 1 -8 -11 -17 -22
-13 -20 3 1 -8 -11 -17 -22
-13 -19 3 1 -8 -11 -17 -22
-12 -18 2 1 -7 -12 -18 -23
-12 -18 3 3 -6 -12 -17 -23
-13 -19 5 5 -5 -12 -16 -22
-13 -20 6 6 -5 -12 -16 -21
-13 -20 7 8 -4 -12 -15 -21
-14 -21 8 9 -3 -11 -14 -20
-14 -21 8 9 -3 -10 -14 -20
-14 -20 8 9 -3 -9 -14 -19
-14 -19 8 9 -3 -9 -14 -19
-14 -19 8 9 -3 -8 -14 -19
-14 -18 7 8 -3 -7 -13 -18
-13 -18 8 8 -3 -7 -13 -18
-12 -19 9 9 -2 -6 -12 -17
-12 -20 9 10 0 -6 -12 -16
-11 -20 10 10 0 -6 -12 -16
-10 -21 11 11 1 -5 -11 -15
-10 -21 11 11 1 -5 -12 -15
-9 -21 11 11 1 -5 -13 -16
-9 -21 11 11 1 -5 -13 -17
-9 -21 11 11 1 -5 -14 -17
-8 -21 11 10 0 -6 -15 -18
-8 -21 11 10 0 -6 -14 -17
-8 -20 11 11 1 -6 -12 -16
-8 -19 11 11 2 -6 -11 -16
-8 -19 11 11 2 -6 -10 -15
-9 -18 11 12 3 -6 -9 -14
-8 -18 11 12 3 -5 -9 -14
-7 -18 11 12 4 -4 -8 -14
-7 -18 11 12 4 -4 -8 -14
-6 -18 11 12 4 -3 -8 -14
-5 -18 12 13 5 -2 -7 -14
-4 -18 12 13 5 -2 -7 -14
-3 -18 12 13 5 -2 -7 -14
-2 -18 11 13 5 -2 -7 -14
0 -18 11 13 5 -2 -7 -14
2 -17 10 14 4 -3 -7 -15
4 -17 10 14 4 -3 -7 -15
6 -16 9 14 4 -3 -7 -15
8 -15 8 14 4 -3 -7 -16
10 -15 8 14 4 -3 -7 -16
12 -14 7 14 4 -3 -7 -17
10 -15 7 15 4 -3 -7 -16
8 -16 7 16 4 -3 -6 -15
6 -17 6 17 5 -3 -5 -14
4 -18 6 18 5 -3 -5 -13
3 -19 5 19 6 -3 -4 -12
3 -19 5 20 7 -2 -3 -11
3 -19 5 20 7 -2 -2 -10
3 -18 5 21 8 0 0 -8
3 -18 5 22 9 1 1 -7
4 -17 4 23 10 2 2 -6
4 -17 4 23 10 2 2 -6
4 -17 4 23 10 2 2 -6
4 -17 4 24 10 2 2 -6
4 -17 4 24 10 2 2 -6
6 -18 3 25 9 1 3 -7
9 -18 3 25 9 1 3 -7
11 -18 3 25 9 1 3 -7
14 -18 2 25 9 1 3 -7
17 -18 2 25 9 1 3 -7
19 -18 1 26 10 2 4 -8
19 -18 1 27 10 3 5 -6
18 -18 0 28 11 3 6 -5
17 -18 -2 29 12 4 7 -3
17 -18 -2 30 12 5 8 0
16 -18 -3 31 13 6 9 1
18 -17 -4 31 12 6 9 1
20 -17 -5 31 12 6 9 0
22 -16 -7 31 11 6 9 -2
24 -15 -8 31 10 6 9 -2
26 -14 -9 30 9 6 9 -3
28 -15 -9 30 9 6 10 -2
29 -16 -10 30 9 6 11 0
31 -17 -11 30 9 6 12 1
33 -18 -11 30 9 6 13 2
34 -19 -12 31 9 7 14 3
34 -19 -13 31 9 7 14 3
34 -19 -13 31 8 7 14 3
35 -18 -14 31 7 7 14 3
35 -18 -15 31 7 7 14 3
36 -17 -16 30 6 7 13 2
36 -17 -16 30 6 9 15 4
36 -18 -16 31 7 10 16 6
36 -19 -15 32 8 11 18 8
36 -19 -15 32 8 13 20 10
37 -20 -14 33 9 14 21 12
37 -20 -14 33 9 14 21 12
37 -20 -15 33 9 14 21 12
37 -20 -16 33 9 14 21 12
37 -20 -16 33 9 14 21 12
38 -19 -17 32 9 15 22 11
38 -17 -17 32 9 15 22 12
38 -16 -17 32 9 15 22 13
38 -15 -17 32 9 15 23 14
38 -13 -17 32 9 15 23 15
39 -12 -17 32 8 16 24 16
38 -12 -16 32 8 17 24 16
37 -12 -16 32 9 17 24 16
35 -12 -15 32 10 18 25 17
34 -12 -14 32 10 19 25 17
33 -11 -13 32 11 20 26 18
33 -9 -13 32 12 20 26 18
32 -7 -13 33 12 20 26 18
31 -4 -12 34 13 20 25 17
31 -2 -12 34 14 20 25 17
30 1 -11 35 15 19 24 16
28 1 -9 35 16 19 24 16
27 1 -7 36 17 19 24 16
26 1 -5 37 18 19 24 16
24 1 -3 37 19 19 24 16
23 0 0 38 20 20 23 17
22 0 2 38 21 20 22 15
21 0 3 38 21 20 22 14
20 0 4 38 22 20 21 13
19 0 6 38 23 20 20 11
18 0 7 39 24 20 19 10
16 0 8 38 24 19 18 9
15 0 9 37 24 19 17 8
13 1 11 36 24 18 15 6
11 1 12 35 24 17 14 5
10 2 13 34 24 16 13 4
8 2 13 33 24 16 13 4
6 2 13 32 24 15 13 4
4 2 13 30 24 14 12 4
2 2 13 29 24 14 12 4
0 1 14 28 23 13 11 4
0 1 14 26 21 12 10 4
0 1 14 25 20 10 10 3
0 1 13 23 18 9 9 2
0 1 13 21 16 7 8 2
1 1 12 20 15 6 7 1
0 1 12 20 15 6 6 1
-3 1 12 20 15 6 6 1
-4 0 13 20 15 6 5 0
-6 0 13 20 15 6 4 0
-7 -2 14 19 15 5 3 -2
-7 -2 14 19 15 5 3 -2
-7 -2 14 19 15 5 3 -2
-8 -3 15 19 15 5 3 -2
-8 -3 15 19 15 5 3 -2
-9 -4 16 19 16 6 4 -2
-8 -4 16 19 15 5 4 -2
-7 -4 16 18 15 5 3 -2
-6 -4 15 17 14 4 2 -3
-5 -4 15 17 13 3 2 -3
-4 -4 14 16 12 2 1 -4
-5 -3 14 16 12 2 1 -4
-6 -2 14 16 12 2 1 -4
-7 0 14 16 12 3 0 -4
-8 1 14 16 12 3 0 -4
-9 2 13 15 12 4 -2 -5
-9 2 13 15 12 4 -2 -5
-9 1 13 16 12 4 -2 -5
-9 0 13 17 12 4 -3 -5
-9 0 13 17 12 4 -3 -5
-8 -2 13 18 13 3 -4 -6
-8 -2 13 18 13 3 -4 -6
-8 0 13 18 13 3 -4 -6
-8 1 13 17 13 3 -4 -6
-8 1 13 17 13 3 -4 -6
-9 2 12 16 14 3 -4 -7
-9 0 12 16 14 3 -4 -7
-8 -2 12 16 14 3 -3 -7
-7 -4 12 16 13 3 -2 -7
-7 -6 12 16 13 3 -2 -7
-6 -7 13 17 12 2 0 -6
-6 -7 13 17 12 2 0 -6
-6 -7 13 17 12 2 0 -6
-7 -6 13 17 12 3 0 -5
-7 -6 13 17 12 3 0 -5
-8 -5 13 17 13 4 0 -4
-8 -5 13 17 13 4 0 -4
-8 -4 13 16 13 4 0 -4
-9 -3 13 15 13 3 -2 -4
-9 -3 13 15 13 3 -2 -4
-10 -2 12 14 12 2 -3 -4
-10 -2 12 14 12 2 -3 -4
-10 -2 12 14 12 2 -3 -4
-10 -2 12 14 12 2 -3 -3
-10 -2 12 14 12 2 -3 -3
-9 -2 12 13 11 2 -4 -2
-9 -3 12 13 11 2 -4 -2
-8 -4 12 13 11 1 -4 -3
-7 -5 12 13 10 0 -5 -4
-7 -6 12 13 10 0 -5 -4
-6 -7 11 13 9 -2 -6 -5
-6 -6 10 12 8 -2 -6 -5
-5 -6 10 11 7 -3 -6 -6
-4 -5 9 10 6 -4 -7 -7
-4 -4 8 9 5 -4 -7 -7
-3 -3 7 8 4 -5 -8 -8
-3 -3 7 8 4 -5 -8 -8
-4 -3 7 8 4 -5 -8 -8
-5 -4 8 8 4 -5 -8 -8
-5 -4 8 8 4 -5 -8 -8
-6 -5 9 9 5 -5 -8 -8
-6 -5 9 9 5 -5 -8 -8
-7 -6 9 9 5 -5 -8 -8
-8 -7 9 8 5 -4 -9 -7
-8 -7 9 8 5 -4 -9 -7
-9 -8 9 7 4 -3 -10 -6
-9 -8 9 7 4 -4 -10 -6
-9 -8 9 6 3 -5 -10 -7
-8 -8 9 5 2 -7 -10 -8
-8 -8 9 5 2 -8 -10 -8
-7 -7 8 4 1 -9 -11 -9
-7 -7 8 4 1 -9 -11 -9
-7 -7 8 4 1 -9 -11 -9
-7 -7 8 3 1 -9 -11 -10
-7 -7 8 3 1 -9 -11 -10
-7 -8 7 2 0 -9 -12 -11
-8 -8 7 2 0 -9 -12 -10
-9 -7 7 2 0 -9 -12 -10
-10 -6 7 2 0 -9 -11 -9
-11 -6 7 2 0 -9 -11 -8
-12 -5 6 2 1 -9 -10 -7
-12 -5 7 2 1 -9 -10 -7
-12 -5 7 2 1 -9 -10 -7
-12 -6 8 2 1 -8 -10 -8
-12 -6 9 2 1 -8 -10 -8
-12 -7 10 3 1 -7 -11 -9
-11 -6 10 3 1 -7 -11 -9
-10 -5 10 4 1 -7 -11 -9
-9 -4 10 5 2 -7 -11 -9
-8 -3 10 5 2 -7 -11 -9
-7 -2 11 6 3 -7 -10 -9
-7 0 12 7 4 -5 -8 -7
-7 1 14 9 6 -4 -6 -4
-6 2 15 10 7 -2 -4 -2
-6 3 17 12 9 0 -3 1
-5 4 18 13 10 2 0 3
-5 6 18 13 11 3 0 3
-6 8 19 14 12 3 0 3
-7 10 20 15 14 4 0 3
-7 12 20 15 15 5 0 3
-8 14 21 16 16 6 1 4
-7 15 18 16 15 5 1 4
-5 15 16 15 13 5 1 4
-4 16 13 14 12 4 1 4
-2 17 11 14 10 3 1 4
0 18 9 13 9 2 1 4
1 18 8 13 9 3 1 4
1 19 7 12 10 3 1 4
2 19 6 12 10 4 1 4
3 20 5 11 11 5 1 4
4 21 4 10 12 6 1 3
4 20 5 11 13 7 2 4
3 19 6 13 14 7 3 5
3 18 7 14 15 8 4 6
2 16 9 16 17 9 5 8
1 15 10 17 18 10 6 9
2 15 9 16 17 9 5 8
2 15 7 15 16 8 5 8
3 14 6 14 15 7 4 7
4 14 4 13 13 5 3 6
5 13 3 12 12 4 2 5
4 12 3 11 11 3 1 4
3 11 3 9 9 2 -2 3
2 10 3 8 8 1 -3 2
0 9 3 6 6 -2 -5 0
-2 8 2 5 5 -3 -6 -2
-5 5 2 5 5 -4 -7 -2
-7 2 3 5 4 -5 -7 -2
-9 -2 3 5 4 -6 -8 -2
-12 -5 4 5 3 -7 -9 -2
-14 -8 5 4 2 -8 -10 -3
-14 -8 5 3 0 -9 -10 -4
-14 -8 5 2 -2 -10 -10 -5
-14 -8 5 1 -4 -11 -11 -6
-14 -8 5 0 -5 -12 -11 -7
-13 -8 4 -2 -7 -13 -12 -8
-13 -9 4 -2 -7 -13 -13 -9
-13 -11 4 -2 -7 -13 -14 -9
-13 -12 4 -3 -7 -13 -15 -10
-13 -14 4 -3 -7 -13 -17 -11
-13 -15 4 -4 -7 -13 -18 -12
-14 -14 4 -4 -7 -13 -18 -12
-15 -14 4 -4 -7 -13 -18 -12
-16 -13 3 -5 -8 -14 -18 -13
-17 -12 3 -5 -8 -14 -18 -13
-18 -11 2 -6 -9 -15 -17 -14
-17 -12 2 -6 -9 -15 -17 -14
-16 -13 2 -6 -9 -15 -17 -13
-15 -14 3 -6 -9 -15 -16 -13
-13 -16 3 -6 -9 -15 -16 -12
-12 -17 4 -7 -8 -14 -15 -11
-12 -16 4 -7 -8 -14 -15 -11
-12 -15 4 -7 -8 -14 -15 -11
-12 -14 3 -7 -8 -15 -16 -11
-12 -13 3 -7 -8 -15 -16 -11
-13 -12 2 -6 -9 -16 -17 -11
-14 -15 4 -3 -8 -16 -17 -11
-16 -18 5 0 -7 -15 -17 -11
-17 -21 7 2 -6 -15 -17 -11
-19 -24 8 5 -5 -14 -17 -11
-19 -27 11 10 -2 -13 -17 -12
-15 -27 16 24 7 -10 -17 -14
-10 -26 21 38 16 -7 -17 -16
-6 -26 26 53 24 -4 -18 -18
-2 -25 31 67 32 -2 -18 -20
3 -22 35 77 42 5 -16 -20
6 -12 36 81 51 16 -6 -11
9 -3 36 85 60 28 6 -2
12 8 37 88 68 39 17 7
14 18 38 91 77 51 28 16
19 31 36 86 85 65 44 30
26 55 22 56 85 87 72 60
34 78 9 26 85 108 100 89
43 103 -6 -4 84 130 129 118
51 127 -20 -33 84 150 157 147
57 146 -34 -67 76 167 180 172
57 156 -53 -109 54 167 187 185
57 167 -71 -151 31 165 194 198
57 177 -90 -193 8 165 202 211
57 187 -108 -236 -15 164 210 224
53 188 -123 -269 -38 152 205 225
38 160 -128 -279 -63 111 163 190
23 134 -133 -289 -87 69 122 154
8 106 -138 -300 -111 27 81 118
-8 78 -142 -310 -135 -15 40 84
-21 55 -145 -315 -154 -49 6 52
-29 42 -139 -304 -158 -62 -14 32
-38 28 -133 -293 -163 -76 -32 13
-47 15 -127 -281 -169 -90 -51 -8
-55 2 -120 -270 -173 -104 -69 -27
-61 -9 -113 -254 -173 -112 -82 -43
-54 -9 -101 -224 -153 -101 -74 -41
-48 -9 -90 -194 -135 -90 -67 -39
-41 -10 -78 -165 -115 -78 -59 -38
-34 -10 -67 -136 -97 -67 -52 -37
-29 -11 -56 -109 -80 -57 -46 -35
-26 -13 -47 -93 -69 -51 -41 -31
-24 -15 -36 -75 -58 -44 -37 -28
-21 -17 -27 -58 -47 -37 -33 -25
-18 -19 -17 -41 -35 -31 -29 -22
-16 -21 -10 -27 -26 -26 -26 -19
-16 -21 -8 -23 -24 -25 -24 -18
-17 -21 -6 -19 -22 -23 -23 -17
-17 -20 -3 -15 -19 -22 -21 -16
-18 -20 0 -11 -17 -21 -20 -14
-19 -19 2 -8 -15 -19 -18 -13
-18 -19 3 -7 -14 -19 -19 -14
-18 -19 3 -5 -13 -19 -19 -15
-17 -19 4 -4 -12 -19 -20 -16
-16 -19 5 -3 -10 -19 -21 -18
-15 -19 6 0 -9 -20 -22 -19
-14 -19 6 0 -9 -19 -21 -18
-13 -19 6 1 -9 -18 -20 -17
-12 -19 7 2 -8 -17 -19 -16
-11 -19 7 3 -8 -15 -17 -15
-10 -18 8 4 -7 -14 -16 -14
-11 -18 8 4 -7 -14 -16 -14
-12 -18 8 5 -6 -14 -16 -14
-13 -18 9 6 -6 -13 -16 -13
-15 -18 9 7 -5 -13 -16 -13
-16 -18 10 8 -4 -12 -15 -12
-16 -18 10 8 -4 -12 -15 -12
-15 -18 10 8 -4 -12 -15 -12
-15 -18 9 9 -4 -12 -15 -12
-14 -18 9 9 -4 -12 -15 -12
-13 -17 8 10 -5 -12 -15 -13
-13 -17 8 10 -5 -12 -15 -13
-12 -16 8 10 -5 -12 -15 -13
-11 -16 7 10 -4 -12 -15 -13
-10 -15 7 10 -4 -12 -15 -13
-9 -14 6 9 -3 -12 -15 -14
-9 -15 6 9 -3 -12 -15 -14
-9 -16 7 9 -3 -11 -14 -13
-9 -17 7 10 -2 -11 -13 -13
-9 -18 8 10 -2 -10 -12 -12
-10 -19 9 11 0 -9 -11 -11
-9 -19 9 11 0 -9 -11 -11
-8 -18 9 11 0 -9 -12 -11
-7 -17 9 11 0 -10 -12 -12
-6 -16 9 11 0 -10 -13 -12
-5 -15 10 11 1 -11 -14 -13
-5 -15 10 12 1 -11 -13 -13
-5 -15 10 13 1 -10 -12 -12
-6 -16 10 14 2 -10 -11 -12
-6 -16 10 15 2 -9 -10 -11
-7 -17 10 16 3 -8 -9 -10
-7 -17 10 16 3 -8 -9 -10
-7 -17 10 16 3 -8 -9 -10
-7 -18 10 16 4 -8 -9 -11
-7 -18 10 16 4 -8 -9 -11
-7 -19 9 17 5 -8 -9 -12
-6 -18 9 17 5 -8 -9 -11
-4 -17 8 17 5 -8 -8 -10
-3 -16 8 18 4 -7 -7 -9
-2 -14 7 18 4 -7 -6 -8
1 -13 6 19 3 -6 -5 -7
1 -13 6 19 3 -6 -5 -7
1 -13 6 19 3 -6 -6 -7
2 -13 6 19 4 -6 -6 -8
2 -13 6 19 4 -6 -7 -8
3 -13 6 20 5 -7 -8 -9
3 -13 6 20 5 -7 -8 -9
3 -14 6 21 5 -7 -7 -9
3 -14 6 21 5 -6 -7 -9
3 -15 6 22 5 -6 -6 -9
3 -16 5 23 6 -5 -5 -8
5 -16 5 23 6 -5 -5 -8
6 -16 5 24 7 -5 -4 -8
8 -16 4 24 7 -4 -4 -8
10 -16 4 25 8 -4 -3 -8
12 -16 3 26 9 -3 -2 -7
12 -16 3 26 9 -3 -2 -6
12 -15 2 27 9 -3 0 -5
12 -15 2 28 8 -2 0 -4
12 -14 1 29 8 -2 1 -2
11 -13 0 30 7 0 2 0
13 -13 0 30 7 0 2 0
15 -14 0 30 7 0 2 0
18 -15 -2 31 8 0 3 -2
20 -16 -2 31 8 0 3 -2
22 -17 -3 32 9 0 4 -3
22 -17 -4 32 8 0 4 -3
22 -17 -6 32 7 0 4 -3
23 -16 -7 32 6 0 4 -2
23 -16 -8 32 4 0 4 -2
24 -15 -10 33 3 0 5 0
24 -15 -10 33 4 0 5 0
25 -15 -10 33 5 1 5 0
25 -15 -10 34 6 2 5 1
26 -15 -10 34 8 3 5 1
27 -16 -11 35 9 4 6 2
28 -16 -11 36 9 4 8 4
30 -16 -11 37 8 4 9 5
32 -16 -11 38 7 5 11 7
33 -16 -11 39 6 5 13 9
35 -16 -12 40 5 6 15 11
36 -16 -12 40 5 6 15 11
37 -15 -12 39 5 7 15 11
38 -14 -13 38 5 7 15 11
40 -13 -13 37 5 8 15 11
42 -12 -14 36 6 9 15 10
42 -12 -14 36 6 9 15 11
42 -13 -14 36 6 9 15 12
42 -13 -15 36 6 10 16 13
42 -14 -15 36 6 10 16 15
40 -15 -16 35 6 11 17 16
40 -14 -16 35 6 11 17 16
40 -13 -16 35 6 11 17 16
39 -12 -16 35 6 11 17 16
39 -11 -16 35 6 11 17 16
38 -10 -15 36 7 10 17 15
37 -10 -14 36 7 11 18 15
36 -10 -12 36 8 12 19 16
35 -10 -10 37 9 13 20 16
34 -10 -9 37 10 14 21 17
33 -9 -7 38 11 15 22 18
30 -7 -6 39 13 15 22 18
27 -5 -4 40 14 15 22 19
25 -3 -3 42 16 16 22 19
22 0 -2 43 18 16 22 20
19 2 1 44 20 17 23 21
19 2 2 44 20 17 22 20
19 3 3 44 20 17 21 18
18 4 4 44 20 16 20 16
18 5 5 44 20 16 19 15
17 6 7 43 19 15 17 13
15 6 8 43 19 15 17 13
13 6 10 42 20 14 16 13
11 6 11 42 20 14 16 12
9 6 12 40 21 13 15 12
7 5 14 39 22 12 14 11
7 5 14 38 22 12 14 11
6 5 15 37 22 12 13 10
6 4 15 36 22 11 12 10
5 4 16 35 22 11 11 9
4 3 17 33 22 10 10 8
3 3 17 32 21 9 8 6
1 3 18 30 20 7 7 5
-2 4 18 28 19 6 5 3
-3 4 19 27 18 5 3 1
-5 5 20 25 17 3 1 -2
-5 4 20 24 16 3 1 -2
-6 3 20 23 15 3 1 -2
-7 1 20 22 14 3 1 0
-8 0 20 21 13 3 1 0
-9 -3 20 20 12 2 1 1
-9 -3 20 19 12 2 1 0
-9 -3 20 18 12 1 0 -2
-9 -4 20 17 12 1 0 -3
-9 -4 20 16 12 0 -2 -4
-9 -5 19 14 11 -2 -3 -6
-9 -5 19 14 11 -2 -3 -5
-10 -4 19 14 11 -2 -3 -4
-10 -4 19 14 10 -3 -4 -3
-11 -3 19 14 10 -3 -4 -2
-12 -2 20 15 9 -4 -5 1
-12 -2 20 15 9 -4 -5 1
-12 -2 20 15 9 -4 -4 0
-12 -2 21 15 9 -4 -3 0
-12 -2 21 15 9 -4 -2 -2
-11 -3 22 14 10 -3 0 -3
-11 -3 22 14 10 -3 0 -3
-11 -3 21 14 10 -3 0 -3
-11 -3 21 14 10 -3 0 -3
-11 -3 20 14 10 -3 0 -3
-10 -2 19 14 10 -2 -2 -4
-10 -2 19 14 11 -2 -2 -4
-10 -2 19 14 12 -2 -2 -4
-11 -2 20 15 13 -2 -2 -4
-11 -2 20 15 14 -2 -2 -4
-12 -3 21 16 16 0 -2 -3
-12 -3 21 16 15 0 -2 -3
-12 -3 21 16 14 0 -2 -3
-13 -3 21 16 13 0 -2 -3
-13 -3 21 16 12 0 -2 -3
-14 -4 22 15 10 0 -2 -4
-13 -4 22 15 10 0 -2 -5
-12 -4 22 14 10 0 -3 -6
-11 -4 22 14 10 0 -3 -7
-10 -4 22 13 10 0 -4 -8
