I II V1 V2 V3 V4 V5 V6
2 -2 14 -5 -18 -28 -16 -14
2 -2 13 -5 -18 -28 -16 -14
2 -2 11 -5 -17 -27 -15 -14
2 -2 10 -4 -17 -26 -14 -13
2 -2 8 -4 -16 -25 -13 -13
2 -2 7 -4 -16 -24 -13 -13
3 0 5 -3 -15 -23 -12 -12
4 -2 3 -4 -16 -23 -11 -12
6 -3 1 -5 -17 -23 -11 -11
7 -4 -2 -6 -18 -23 -10 -11
8 -4 -3 -6 -18 -23 -10 -11
9 -6 -4 -8 -21 -25 -10 -10
8 -8 -4 -10 -24 -27 -12 -11
8 -10 -5 -12 -26 -29 -13 -12
7 -12 -5 -14 -29 -31 -15 -13
7 -14 -5 -16 -31 -32 -16 -13
6 -15 -6 -17 -32 -33 -17 -14
6 -14 -6 -17 -32 -33 -17 -14
5 -14 -6 -17 -33 -34 -17 -15
5 -13 -6 -17 -33 -34 -17 -15
5 -13 -6 -17 -33 -34 -17 -15
3 -13 -6 -18 -34 -35 -18 -16
1 -14 -5 -18 -34 -36 -19 -16
-2 -15 -5 -19 -35 -36 -19 -17
-4 -16 -4 -19 -35 -37 -20 -17
-6 -17 -4 -19 -35 -37 -20 -17
-7 -18 -3 -20 -36 -38 -21 -18
-7 -19 -3 -20 -36 -39 -22 -19
-8 -19 -4 -21 -37 -40 -23 -20
-8 -20 -4 -21 -37 -41 -24 -21
-8 -20 -4 -21 -37 -43 -24 -21
-9 -21 -5 -22 -38 -44 -25 -22
-9 -21 -5 -22 -38 -44 -25 -22
-9 -21 -5 -22 -39 -44 -25 -22
-9 -21 -5 -22 -39 -44 -25 -22
-9 -21 -5 -22 -39 -44 -25 -22
-9 -22 -4 -23 -40 -43 -26 -22
-9 -22 -4 -23 -40 -43 -26 -22
-9 -22 -4 -23 -40 -43 -26 -23
-9 -22 -4 -23 -40 -43 -26 -23
-9 -22 -4 -23 -40 -43 -26 -23
-8 -21 -5 -22 -40 -44 -26 -24
-8 -21 -5 -22 -40 -44 -26 -23
-9 -21 -5 -22 -39 -44 -26 -22
-9 -21 -5 -22 -39 -44 -26 -21
-9 -21 -5 -22 -39 -44 -26 -20
-10 -21 -4 -23 -38 -44 -26 -19
-10 -21 -4 -23 -38 -44 -26 -19
-10 -20 -4 -22 -38 -43 -25 -19
-10 -20 -4 -22 -38 -43 -25 -19
-10 -20 -4 -22 -38 -43 -25 -19
-11 -19 -4 -21 -38 -41 -24 -20
-11 -19 -4 -21 -38 -41 -24 -20
-11 -20 -4 -21 -38 -41 -25 -20
-11 -20 -4 -21 -38 -41 -25 -20
-11 -20 -4 -21 -38 -41 -25 -20
-11 -21 -4 -19 -35 -41 -26 -21
-11 -20 -2 -16 -32 -41 -26 -21
-12 -19 1 -12 -29 -40 -26 -22
-12 -18 3 -9 -26 -40 -26 -22
-12 -18 4 -6 -24 -40 -26 -22
-11 -17 11 11 -7 -31 -24 -23
-8 -17 17 28 11 -22 -21 -22
-6 -16 24 45 28 -12 -19 -21
-3 -16 31 62 46 -3 -16 -20
0 -16 37 79 63 7 -14 -19
10 -5 14 23 54 44 14 -4
20 7 -13 -38 42 82 43 12
30 18 -38 -99 29 121 72 28
40 30 -65 -160 18 160 101 44
51 42 -92 -221 6 199 130 60
60 77 -143 -288 -13 264 183 92
69 115 -195 -356 -31 329 237 125
78 153 -247 -424 -51 395 293 158
88 191 -300 -491 -69 461 347 191
97 228 -352 -559 -88 527 401 225
88 222 -353 -558 -99 500 391 221
76 211 -349 -551 -110 465 376 214
65 199 -345 -545 -121 430 360 206
54 189 -342 -538 -132 395 345 199
43 178 -338 -532 -143 360 329 192
28 143 -302 -487 -162 269 264 155
14 105 -264 -439 -182 175 195 116
0 68 -227 -392 -202 79 127 76
-15 31 -189 -344 -223 -15 57 37
-29 -6 -151 -297 -242 -109 -12 -2
-30 -11 -133 -260 -218 -105 -20 -8
-29 -14 -116 -224 -188 -93 -23 -13
-29 -17 -99 -189 -158 -80 -26 -17
-28 -20 -82 -153 -129 -68 -30 -21
-28 -23 -66 -117 -100 -55 -33 -25
-24 -23 -55 -98 -86 -51 -32 -25
-21 -21 -44 -80 -73 -48 -29 -23
-18 -20 -33 -63 -60 -45 -26 -21
-14 -18 -23 -45 -48 -40 -24 -19
-11 -17 -12 -27 -34 -37 -21 -18
-10 -16 -9 -22 -32 -36 -20 -17
-10 -17 -6 -18 -30 -37 -21 -18
-10 -17 -3 -14 -29 -38 -22 -19
-10 -18 0 -10 -27 -39 -23 -20
-10 -18 3 -6 -26 -39 -23 -21
-9 -19 4 -4 -24 -40 -24 -22
-9 -19 5 -2 -23 -40 -25 -22
-9 -20 5 0 -22 -41 -25 -22
-9 -20 6 2 -21 -41 -26 -22
-9 -20 6 3 -20 -41 -26 -22
-8 -21 7 5 -18 -41 -27 -23
-8 -21 8 7 -17 -40 -26 -23
-8 -21 9 9 -15 -39 -26 -22
-8 -21 10 11 -14 -38 -25 -22
-8 -21 11 13 -13 -37 -25 -22
-8 -20 12 14 -12 -36 -24 -21
-7 -20 12 14 -11 -36 -24 -21
-6 -20 12 15 -10 -37 -24 -21
-5 -20 12 15 -9 -37 -24 -21
-5 -20 12 15 -8 -37 -24 -21
-4 -21 12 17 -7 -38 -25 -22
-4 -20 13 18 -6 -37 -24 -22
-4 -19 14 20 -5 -36 -24 -22
-4 -18 15 21 -4 -35 -23 -22
-4 -18 16 22 -3 -35 -23 -22
-4 -17 17 24 0 -34 -22 -23
-4 -17 17 25 1 -33 -22 -23
-4 -17 17 27 3 -33 -21 -22
-4 -17 17 28 4 -32 -21 -22
-4 -17 17 29 5 -32 -21 -22
-3 -18 18 31 7 -31 -20 -21
-3 -18 19 32 8 -30 -20 -21
-3 -18 20 34 10 -29 -20 -21
-3 -18 21 35 11 -28 -20 -21
-3 -18 21 36 12 -28 -20 -21
-2 -19 22 38 14 -27 -19 -22
-2 -19 22 40 16 -27 -19 -22
0 -18 22 43 18 -27 -19 -22
0 -18 22 45 20 -27 -19 -22
0 -18 22 46 21 -27 -19 -22
1 -17 22 49 23 -25 -18 -23
1 -17 24 52 26 -22 -17 -22
1 -17 26 55 28 -20 -16 -21
1 -17 28 57 30 -18 -15 -20
1 -17 30 60 32 -16 -14 -20
1 -16 31 63 35 -15 -13 -19
2 -15 31 66 38 -14 -13 -19
3 -14 31 69 42 -13 -13 -19
4 -13 31 71 44 -12 -13 -19
4 -13 31 74 47 -12 -13 -19
5 -12 33 78 50 -10 -13 -19
5 -12 35 81 53 -8 -12 -19
6 -12 36 86 56 -6 -11 -19
6 -12 38 89 59 -4 -10 -19
6 -12 39 93 62 -2 -10 -19
7 -13 42 98 66 1 -9 -18
7 -12 45 103 70 4 -8 -17
7 -11 47 108 75 6 -7 -16
7 -10 49 114 79 8 -6 -15
7 -9 51 119 84 10 -6 -14
8 -8 53 125 88 12 -4 -13
9 -7 54 130 92 14 -3 -12
10 -6 56 135 97 16 -2 -12
11 -5 58 141 101 18 0 -11
12 -5 59 146 105 20 1 -11
13 -4 61 150 108 22 2 -10
13 -4 62 154 111 23 2 -10
13 -3 64 158 114 25 2 -10
13 -3 65 162 117 26 2 -10
13 -3 66 167 120 27 2 -10
14 0 68 170 123 28 2 -9
14 1 70 174 126 29 3 -9
14 2 72 177 128 30 4 -8
14 3 73 181 131 31 5 -8
14 4 75 184 133 32 6 -8
14 5 76 186 134 33 7 -6
14 5 77 188 135 33 7 -5
15 5 78 190 136 33 7 -3
15 5 79 191 137 33 7 -2
15 5 79 193 138 33 7 0
16 7 80 194 139 32 7 1
16 8 81 194 138 31 7 1
16 10 81 193 138 30 7 1
16 11 82 193 137 29 7 1
16 12 82 193 137 28 7 1
15 13 82 189 133 26 6 2
15 14 81 185 130 24 6 2
14 14 80 181 126 22 6 2
14 15 78 176 122 20 6 2
14 15 77 172 118 18 6 2
13 16 75 164 113 16 5 1
13 16 72 157 107 14 5 1
13 16 70 150 101 12 5 1
13 16 68 143 95 10 5 1
13 16 66 136 89 8 5 1
12 16 62 127 81 5 3 2
11 15 59 116 74 1 1 1
10 14 55 107 66 -3 -2 0
9 13 52 97 59 -7 -3 -2
8 13 48 88 52 -10 -5 -3
7 12 46 79 46 -12 -6 -5
7 12 43 72 40 -13 -6 -6
6 11 40 65 34 -15 -6 -7
6 11 38 58 29 -17 -6 -8
6 11 36 51 23 -18 -6 -9
5 10 33 45 19 -20 -8 -10
4 9 31 38 14 -22 -9 -9
3 8 29 33 10 -24 -10 -8
2 7 26 27 6 -25 -11 -7
1 6 24 21 1 -27 -12 -7
0 4 22 18 -3 -29 -13 -7
-2 3 20 14 -6 -30 -13 -8
-3 2 18 11 -10 -31 -14 -9
-4 0 17 7 -13 -33 -14 -10
-4 -2 15 4 -16 -34 -14 -11
-5 -3 14 2 -18 -35 -15 -12
-5 -3 13 -2 -20 -37 -17 -12
-5 -3 12 -4 -22 -38 -18 -13
-5 -3 11 -6 -24 -39 -19 -13
-5 -3 10 -8 -26 -40 -20 -13
-4 -4 9 -9 -27 -41 -21 -14
-5 -5 9 -10 -28 -41 -21 -14
-5 -6 9 -10 -29 -41 -22 -15
-6 -7 9 -11 -30 -41 -22 -15
-6 -7 9 -11 -31 -41 -22 -15
-7 -8 8 -12 -32 -43 -23 -16
-7 -8 8 -13 -33 -44 -23 -16
-7 -9 7 -14 -34 -45 -24 -16
-7 -9 7 -15 -35 -46 -24 -16
-7 -9 7 -16 -35 -47 -24 -16
-6 -10 6 -17 -36 -48 -25 -17
-6 -10 6 -17 -36 -48 -25 -17
-5 -10 6 -17 -36 -48 -25 -17
-5 -10 6 -17 -36 -48 -25 -17
-5 -10 6 -17 -36 -48 -25 -17
-4 -11 5 -16 -37 -48 -26 -18
-5 -11 5 -16 -37 -48 -26 -18
-5 -11 5 -16 -36 -49 -26 -18
-6 -11 5 -16 -36 -49 -26 -18
-6 -11 5 -16 -36 -49 -26 -18
-7 -12 5 -16 -35 -50 -26 -18
-7 -11 5 -15 -34 -49 -26 -17
-7 -11 5 -14 -33 -49 -26 -16
-7 -10 5 -13 -32 -48 -26 -15
-7 -10 5 -13 -32 -48 -26 -15
-6 -9 6 -12 -31 -47 -25 -14
-6 -9 6 -12 -31 -47 -25 -14
-6 -10 5 -13 -31 -46 -25 -14
-6 -10 5 -13 -31 -46 -25 -14
-6 -10 5 -13 -31 -46 -25 -14
-7 -11 4 -14 -30 -45 -25 -13
-7 -11 4 -12 -30 -45 -25 -13
-7 -11 5 -11 -29 -44 -25 -14
-7 -11 5 -10 -29 -44 -25 -14
-7 -11 5 -9 -29 -44 -25 -14
-7 -10 6 -8 -28 -43 -25 -15
-8 -10 6 -8 -28 -43 -25 -15
-8 -10 6 -8 -28 -43 -24 -15
-9 -10 6 -8 -28 -43 -24 -15
-9 -10 6 -8 -28 -43 -24 -15
-10 -10 5 -9 -27 -41 -23 -14
-10 -10 5 -9 -27 -40 -22 -14
-10 -10 5 -9 -26 -39 -22 -13
-10 -10 5 -9 -26 -38 -21 -13
-10 -10 5 -9 -26 -38 -21 -13
-9 -9 5 -8 -25 -37 -20 -12
-8 -8 4 -8 -25 -37 -20 -12
-8 -7 4 -8 -25 -37 -20 -12
-7 -6 3 -8 -25 -37 -20 -12
-7 -6 3 -8 -25 -37 -20 -12
-6 -5 2 -9 -25 -38 -20 -13
-6 -5 2 -9 -25 -38 -20 -13
-6 -6 2 -8 -25 -37 -20 -13
-6 -6 2 -8 -25 -37 -20 -13
-6 -6 2 -8 -25 -37 -20 -13
-6 -7 3 -7 -25 -36 -20 -13
-5 -7 3 -7 -25 -36 -20 -12
-5 -7 3 -8 -25 -36 -20 -12
-4 -7 3 -8 -25 -36 -20 -11
-4 -7 3 -8 -25 -36 -20 -11
-3 -6 2 -9 -26 -37 -19 -10
-3 -6 2 -9 -26 -37 -19 -10
-4 -7 2 -9 -26 -37 -19 -10
-4 -7 2 -9 -26 -37 -19 -10
-4 -7 2 -9 -26 -37 -19 -10
-5 -8 2 -9 -26 -36 -18 -11
-4 -8 1 -9 -26 -36 -18 -11
-3 -8 1 -10 -27 -37 -18 -11
-2 -8 0 -10 -27 -37 -18 -11
-2 -8 0 -10 -27 -37 -18 -11
0 -8 -2 -11 -28 -38 -18 -12
0 -8 0 -11 -28 -38 -18 -12
-2 -8 0 -11 -28 -37 -18 -12
-2 -8 1 -11 -28 -37 -18 -12
-2 -8 1 -11 -28 -37 -18 -12
-3 -8 2 -11 -29 -36 -18 -12
-3 -8 1 -11 -29 -36 -19 -12
-4 -8 0 -11 -29 -37 -19 -13
-4 -8 -2 -11 -29 -37 -20 -13
-4 -8 -2 -11 -29 -37 -20 -13
-5 -9 -3 -12 -29 -38 -21 -14
-5 -9 -3 -12 -30 -38 -21 -14
-5 -10 -3 -12 -30 -39 -21 -13
-5 -10 -3 -12 -31 -39 -21 -13
-5 -10 -3 -12 -31 -39 -21 -13
-6 -11 -2 -13 -32 -40 -20 -12
-6 -11 -2 -13 -32 -40 -20 -12
-6 -11 -2 -13 -32 -39 -19 -12
-6 -11 -2 -13 -32 -39 -19 -12
-6 -11 -2 -13 -32 -39 -19 -12
-7 -12 -3 -13 -32 -38 -18 -11
-6 -12 -3 -13 -32 -38 -18 -12
-6 -12 -3 -13 -32 -39 -19 -12
-5 -12 -3 -13 -32 -39 -19 -13
-5 -12 -3 -13 -32 -39 -19 -13
-4 -12 -2 -13 -32 -40 -20 -14
-4 -12 -2 -13 -32 -40 -20 -14
-4 -11 -2 -13 -32 -40 -20 -13
-4 -11 -2 -13 -32 -40 -20 -13
-4 -11 -2 -13 -32 -40 -20 -13
-5 -9 -3 -13 -32 -39 -19 -12
-4 -8 -2 -12 -31 -38 -18 -11
-3 -6 0 -10 -30 -36 -18 -10
-2 -5 1 -9 -29 -35 -17 -10
0 -3 2 -7 -28 -33 -17 -9
1 -2 3 -6 -27 -32 -16 -8
1 0 4 -6 -25 -32 -16 -8
0 0 5 -6 -24 -31 -15 -7
0 1 5 -6 -23 -31 -15 -7
0 1 6 -6 -22 -31 -15 -7
-2 2 7 -5 -21 -30 -14 -6
0 2 8 -4 -21 -30 -14 -6
1 2 9 -4 -21 -30 -14 -6
1 2 9 -3 -21 -30 -14 -6
2 2 10 -3 -21 -30 -14 -6
3 2 10 -2 -20 -29 -14 -6
3 2 8 -3 -20 -28 -12 -5
3 3 6 -4 -20 -27 -11 -5
3 3 4 -4 -20 -27 -10 -4
3 3 2 -5 -20 -26 -9 -4
4 4 0 -6 -19 -25 -8 -3
5 3 -3 -6 -19 -25 -8 -3
7 2 -4 -7 -20 -25 -8 -3
8 1 -6 -7 -20 -25 -8 -3
10 0 -8 -7 -20 -25 -8 -3
11 -3 -9 -9 -22 -25 -9 -2
11 -4 -9 -11 -24 -27 -10 -2
10 -6 -10 -12 -26 -28 -11 -3
10 -7 -10 -14 -29 -30 -13 -3
10 -9 -10 -16 -31 -32 -14 -3
8 -10 -11 -17 -32 -33 -15 -4
7 -10 -11 -18 -32 -33 -15 -5
5 -10 -10 -18 -33 -34 -16 -5
4 -10 -10 -19 -33 -34 -16 -6
2 -10 -10 -19 -33 -34 -16 -6
0 -11 -9 -20 -34 -36 -18 -8
-3 -12 -9 -21 -35 -37 -19 -9
-4 -12 -9 -21 -36 -38 -20 -11
-6 -13 -9 -22 -36 -40 -22 -12
-8 -13 -9 -22 -37 -41 -23 -14
-9 -14 -9 -23 -38 -43 -24 -15
-9 -14 -9 -23 -38 -43 -24 -14
-8 -15 -8 -22 -38 -41 -24 -13
-8 -15 -8 -22 -38 -41 -24 -12
-8 -15 -8 -22 -38 -41 -24 -11
-7 -16 -7 -21 -38 -40 -23 -10
-6 -16 -7 -22 -38 -40 -23 -10
-6 -16 -7 -22 -38 -41 -24 -11
-5 -16 -7 -23 -38 -41 -24 -11
-5 -16 -7 -23 -38 -41 -24 -11
-4 -16 -8 -24 -39 -43 -25 -12
-5 -17 -7 -23 -39 -43 -25 -12
-5 -18 -7 -23 -38 -41 -25 -12
-6 -18 -6 -22 -38 -41 -25 -12
-6 -19 -6 -22 -38 -41 -25 -12
-7 -20 -5 -21 -37 -40 -24 -12
-8 -20 -5 -21 -37 -41 -24 -13
-9 -20 -5 -22 -37 -41 -25 -14
-9 -20 -5 -22 -37 -43 -25 -14
-10 -20 -5 -22 -37 -43 -25 -15
-11 -20 -6 -23 -38 -44 -26 -16
-11 -20 -6 -22 -38 -43 -26 -16
-11 -19 -6 -22 -37 -41 -25 -15
-11 -19 -6 -21 -37 -41 -25 -15
-11 -19 -6 -21 -37 -40 -25 -15
-11 -18 -6 -20 -36 -39 -24 -14
-11 -17 -6 -20 -36 -39 -24 -14
-11 -17 -6 -20 -36 -39 -24 -14
-11 -16 -6 -20 -36 -39 -24 -14
-11 -16 -6 -20 -36 -39 -24 -14
-11 -15 -6 -19 -33 -39 -25 -14
-11 -15 -3 -14 -30 -38 -25 -14
-11 -15 0 -10 -27 -38 -25 -14
-11 -15 2 -6 -24 -37 -25 -14
-11 -15 5 -2 -20 -37 -25 -14
-9 -14 10 10 -8 -30 -23 -14
-6 -12 16 23 9 -20 -20 -13
-3 -10 23 36 26 -11 -17 -12
1 -7 29 50 44 0 -14 -11
4 -5 35 63 60 9 -11 -10
12 5 17 22 59 39 10 3
22 18 -16 -46 48 78 39 19
32 31 -49 -113 35 117 68 36
44 45 -81 -181 24 156 98 54
54 58 -113 -248 13 195 127 70
64 88 -161 -315 0 253 173 99
74 126 -218 -380 -15 317 226 133
85 162 -273 -445 -30 383 279 167
95 199 -329 -510 -45 447 332 201
104 237 -385 -575 -59 513 386 235
100 241 -400 -592 -69 511 386 241
87 228 -395 -583 -78 476 360 232
73 215 -390 -575 -87 441 334 224
60 201 -384 -566 -96 406 307 215
47 189 -379 -558 -105 371 281 205
32 159 -349 -521 -126 298 234 178
18 121 -306 -470 -151 204 178 140
4 84 -263 -418 -177 112 121 102
-11 46 -221 -366 -203 19 64 64
-25 8 -178 -315 -229 -73 8 26
-29 -7 -150 -272 -218 -96 -14 11
-26 -8 -131 -232 -185 -82 -16 7
-24 -10 -110 -192 -153 -68 -19 2
-21 -11 -90 -152 -120 -55 -22 -3
-18 -13 -69 -113 -89 -40 -25 -7
-16 -14 -55 -89 -71 -34 -26 -9
-14 -13 -45 -73 -62 -32 -23 -8
-12 -12 -33 -57 -52 -30 -21 -7
-10 -11 -22 -40 -41 -27 -18 -7
-8 -10 -11 -25 -32 -25 -15 -6
-7 -10 -5 -17 -27 -24 -14 -5
-8 -12 -2 -13 -26 -24 -15 -6
-10 -14 2 -8 -24 -25 -16 -7
-11 -17 5 -4 -22 -26 -17 -7
-12 -19 8 1 -20 -26 -18 -8
-13 -20 10 4 -19 -27 -19 -9
-12 -20 10 5 -17 -27 -19 -9
-11 -19 11 7 -16 -28 -20 -10
-11 -19 12 9 -14 -28 -21 -10
-10 -19 12 11 -13 -28 -21 -10
-9 -18 14 13 -12 -29 -22 -11
-9 -18 15 15 -11 -28 -21 -11
-9 -18 17 17 -9 -26 -20 -11
-9 -18 18 20 -8 -25 -20 -11
-9 -18 20 22 -7 -24 -19 -11
-8 -18 21 23 -6 -23 -18 -12
-8 -18 21 24 -5 -23 -18 -12
-8 -18 21 25 -3 -22 -18 -12
-8 -18 21 26 -2 -22 -18 -12
-8 -18 21 27 0 -22 -18 -12
-7 -18 22 28 1 -21 -18 -11
-7 -18 23 29 2 -21 -18 -11
-6 -17 24 31 3 -20 -17 -11
-6 -17 24 32 4 -19 -17 -11
-6 -17 25 33 5 -19 -17 -11
-5 -16 26 34 6 -18 -16 -12
-5 -16 26 34 8 -18 -16 -12
-5 -16 26 35 9 -18 -16 -12
-5 -16 26 36 11 -18 -16 -12
-5 -16 26 36 12 -18 -16 -12
-4 -17 27 38 14 -16 -17 -13
-4 -17 29 42 16 -15 -17 -11
-4 -16 30 44 18 -13 -16 -10
-4 -15 32 47 20 -12 -16 -8
-4 -15 33 50 22 -10 -16 -7
-5 -14 34 52 24 -9 -15 -6
-5 -14 34 53 25 -9 -15 -6
-4 -14 34 55 27 -8 -14 -6
-4 -14 34 57 28 -8 -13 -6
-4 -14 34 59 30 -8 -13 -6
-3 -13 35 62 32 -6 -12 -7
-2 -13 36 65 34 -4 -11 -7
0 -12 38 68 37 -2 -9 -7
0 -11 39 71 39 1 -8 -7
1 -11 40 74 43 3 -7 -7
2 -10 42 77 45 4 -6 -6
1 -10 43 80 49 5 -6 -6
0 -10 44 84 52 6 -6 -6
0 -10 44 87 55 7 -6 -6
-2 -10 45 90 58 8 -6 -6
-3 -11 47 94 62 10 -5 -5
-2 -9 49 99 66 12 -4 -4
0 -8 51 104 69 15 -2 -3
1 -6 53 109 73 17 0 -2
2 -5 56 114 77 20 1 0
3 -4 57 118 81 21 2 1
3 -4 58 123 86 23 2 1
4 -4 60 129 90 25 2 1
5 -4 61 133 94 26 2 1
5 -4 62 138 98 28 2 1
6 -5 64 143 102 30 3 1
6 -4 66 149 106 32 4 2
6 -2 69 155 110 35 5 3
6 0 71 160 115 37 6 4
6 1 74 167 119 40 7 5
7 2 75 172 123 42 8 6
8 2 77 177 127 44 8 6
9 3 79 181 131 45 8 6
9 3 80 185 134 47 8 6
10 3 82 190 138 48 8 6
11 4 85 194 141 49 9 6
11 4 86 198 144 50 10 6
12 5 88 201 146 52 12 7
12 6 90 205 149 53 13 8
12 6 92 210 151 54 14 8
13 7 93 212 153 55 15 9
14 8 93 213 154 54 14 9
15 9 93 215 155 53 13 8
16 10 93 216 155 53 13 8
17 11 93 217 156 52 12 8
18 12 94 218 157 51 11 7
18 13 94 218 156 50 11 8
19 14 95 217 155 49 11 9
19 15 95 216 154 49 11 10
19 16 95 216 153 48 11 11
20 17 96 212 150 46 12 12
20 17 94 206 147 45 12 12
20 17 93 200 143 43 11 12
20 17 91 194 140 40 11 12
20 17 90 189 136 38 11 12
21 18 88 182 131 36 10 11
21 18 84 173 125 34 9 11
21 19 80 164 117 32 8 11
21 20 77 155 111 30 8 11
21 20 74 147 105 27 7 11
21 21 71 138 98 25 6 12
19 21 67 127 91 22 6 11
17 20 64 116 84 20 5 9
15 19 60 106 76 17 4 8
13 19 57 96 69 15 4 7
12 18 54 87 63 12 3 6
12 16 51 78 57 10 3 6
11 15 48 69 51 8 2 7
10 13 45 61 45 6 1 7
10 12 43 53 38 3 1 7
9 11 39 46 33 1 0 8
9 10 36 38 28 -2 -3 8
9 9 34 32 23 -4 -4 7
9 9 31 26 18 -6 -6 6
9 8 29 19 14 -8 -7 6
8 7 27 14 10 -9 -8 5
8 5 26 11 6 -10 -9 4
7 3 24 7 3 -12 -10 3
6 2 23 4 0 -13 -11 2
6 0 22 0 -4 -14 -12 1
5 -2 21 -4 -7 -15 -13 0
5 -2 19 -6 -9 -16 -14 -3
5 -3 18 -9 -11 -18 -15 -4
5 -3 17 -11 -13 -19 -16 -5
5 -3 15 -13 -16 -20 -17 -7
4 -4 14 -15 -17 -21 -18 -8
4 -5 14 -16 -18 -21 -18 -8
4 -6 13 -17 -20 -22 -18 -7
4 -7 13 -17 -21 -22 -18 -7
4 -8 13 -18 -22 -22 -18 -7
4 -9 12 -19 -23 -23 -19 -6
3 -9 12 -20 -23 -23 -19 -6
2 -10 11 -21 -23 -24 -19 -6
1 -10 11 -22 -23 -24 -19 -6
0 -10 11 -23 -23 -24 -19 -6
-2 -11 10 -24 -23 -25 -20 -7
-2 -11 10 -24 -23 -25 -20 -7
-2 -11 10 -24 -23 -25 -20 -6
-2 -11 10 -24 -23 -25 -20 -6
-2 -11 10 -24 -23 -25 -20 -6
-3 -10 11 -23 -23 -26 -20 -5
-3 -10 11 -23 -23 -26 -21 -6
-3 -11 10 -24 -24 -27 -23 -8
-3 -11 10 -25 -24 -28 -24 -9
-3 -11 10 -25 -24 -28 -25 -10
-2 -12 9 -26 -25 -29 -26 -11
-2 -12 9 -25 -25 -29 -25 -10
-2 -11 10 -24 -24 -29 -24 -9
-2 -11 10 -24 -23 -29 -23 -8
-2 -11 10 -23 -23 -29 -22 -7
-3 -10 11 -22 -22 -28 -21 -6
-3 -10 11 -22 -22 -28 -22 -7
-2 -10 10 -22 -22 -28 -23 -9
-2 -10 10 -22 -22 -28 -23 -10
-2 -10 10 -22 -22 -28 -24 -11
0 -11 9 -23 -23 -29 -25 -12
0 -10 9 -22 -23 -28 -25 -11
0 -9 9 -21 -22 -27 -24 -10
0 -9 9 -21 -22 -27 -23 -10
0 -8 9 -20 -22 -26 -23 -9
1 -7 10 -19 -21 -25 -22 -8
1 -7 10 -19 -21 -25 -22 -8
0 -7 10 -20 -21 -24 -22 -9
0 -7 10 -20 -21 -24 -22 -10
0 -7 10 -20 -21 -24 -22 -10
-2 -8 9 -21 -20 -23 -21 -11
-2 -8 9 -21 -20 -23 -21 -9
-2 -8 9 -20 -19 -22 -20 -8
-2 -8 9 -20 -18 -22 -20 -7
-2 -8 9 -20 -18 -22 -20 -5
-3 -8 10 -19 -17 -21 -19 -4
-3 -8 9 -19 -17 -21 -19 -4
-2 -8 8 -20 -17 -21 -19 -5
-2 -8 8 -21 -17 -21 -19 -5
-2 -8 7 -21 -17 -21 -19 -5
0 -7 6 -22 -16 -22 -19 -6
0 -7 7 -22 -16 -21 -18 -6
-2 -8 8 -22 -15 -19 -17 -5
-2 -8 8 -22 -14 -18 -17 -4
-2 -8 9 -22 -14 -17 -16 -4
-3 -9 10 -21 -13 -16 -15 -3
-3 -9 9 -22 -13 -16 -15 -4
-3 -8 8 -23 -14 -17 -15 -5
-3 -8 8 -23 -14 -17 -15 -5
-3 -8 7 -24 -14 -17 -15 -6
-3 -7 6 -25 -15 -18 -15 -7
-3 -7 6 -25 -15 -18 -15 -6
-3 -7 6 -25 -15 -18 -15 -5
-3 -7 6 -25 -15 -18 -15 -4
-3 -7 6 -25 -15 -18 -15 -3
-4 -8 6 -24 -15 -18 -16 -2
-4 -8 6 -25 -15 -18 -16 -2
-3 -8 5 -26 -15 -19 -16 -3
-2 -8 4 -27 -15 -20 -16 -4
-2 -8 4 -28 -15 -20 -16 -4
0 -7 3 -29 -16 -21 -15 -5
0 -7 3 -29 -16 -21 -15 -5
0 -8 4 -29 -17 -21 -16 -5
0 -9 4 -29 -17 -21 -17 -5
0 -9 4 -29 -17 -21 -17 -5
-2 -10 5 -28 -18 -21 -18 -5
-2 -10 5 -28 -18 -21 -18 -5
-2 -10 4 -29 -19 -22 -18 -6
-2 -10 4 -30 -19 -22 -18 -7
-2 -10 4 -30 -19 -22 -18 -7
-3 -10 3 -31 -20 -23 -18 -8
-3 -10 3 -31 -20 -23 -18 -8
-3 -10 3 -31 -20 -23 -18 -7
-3 -11 3 -31 -20 -24 -19 -6
-3 -11 3 -31 -20 -24 -19 -6
-3 -12 4 -32 -21 -25 -20 -5
-3 -12 4 -32 -21 -25 -20 -5
-4 -12 3 -33 -21 -25 -20 -5
-5 -12 2 -34 -21 -25 -19 -5
-5 -12 2 -34 -21 -25 -19 -5
-6 -13 1 -35 -21 -25 -18 -6
-6 -13 1 -35 -21 -25 -18 -6
-6 -13 1 -35 -22 -25 -19 -6
-6 -12 1 -35 -23 -25 -20 -6
-6 -12 1 -35 -23 -25 -20 -6
-5 -11 2 -36 -24 -26 -21 -7
-5 -11 2 -36 -24 -26 -21 -8
-5 -11 2 -37 -24 -26 -21 -8
-4 -12 2 -38 -24 -26 -21 -9
-4 -12 2 -38 -24 -26 -21 -10
-3 -13 1 -39 -24 -27 -21 -11
-3 -12 2 -38 -24 -27 -20 -10
-3 -11 3 -38 -23 -26 -20 -10
-4 -10 4 -37 -22 -25 -19 -9
-4 -9 5 -36 -22 -25 -18 -8
-5 -8 6 -35 -21 -24 -17 -7
-4 -6 7 -34 -19 -24 -17 -6
-3 -4 8 -34 -18 -23 -16 -5
-2 -2 9 -33 -17 -22 -15 -3
0 1 10 -32 -15 -22 -15 -2
1 2 11 -31 -14 -21 -14 0
1 2 12 -31 -14 -21 -14 0
1 2 13 -31 -14 -21 -14 0
1 2 15 -30 -14 -21 -14 0
1 2 16 -30 -14 -21 -14 0
1 3 17 -29 -13 -21 -14 1
1 2 15 -29 -13 -21 -14 0
1 2 13 -29 -13 -21 -14 0
1 1 11 -30 -13 -21 -14 -2
1 0 9 -30 -13 -21 -14 -3
2 -2 8 -31 -14 -21 -14 -4
3 0 7 -31 -13 -19 -12 -3
4 1 6 -31 -12 -18 -11 -2
5 2 5 -31 -10 -16 -10 1
6 3 4 -31 -9 -14 -8 2
7 3 3 -32 -9 -14 -7 3
7 1 1 -34 -12 -16 -9 1
7 -3 -2 -36 -15 -18 -10 0
7 -5 -4 -38 -18 -20 -11 -3
7 -8 -6 -40 -21 -22 -13 -5
7 -10 -8 -43 -23 -24 -14 -6
6 -10 -8 -43 -24 -24 -14 -6
5 -11 -8 -43 -24 -24 -14 -6
4 -12 -8 -44 -25 -25 -14 -5
3 -12 -8 -44 -26 -25 -14 -5
2 -13 -7 -45 -27 -26 -14 -4
0 -13 -7 -46 -27 -27 -15 -5
-2 -13 -7 -46 -27 -27 -15 -6
-3 -13 -7 -47 -28 -28 -16 -7
-5 -13 -7 -48 -28 -29 -17 -8
-6 -13 -7 -49 -29 -30 -18 -9
-7 -14 -7 -49 -30 -31 -19 -10
-8 -15 -6 -49 -30 -31 -19 -11
-10 -17 -5 -49 -31 -32 -20 -13
-11 -18 -5 -49 -32 -33 -21 -14
-12 -19 -4 -49 -33 -34 -22 -15
-12 -19 -4 -47 -33 -35 -22 -15
-12 -19 -4 -45 -34 -36 -23 -15
-12 -19 -4 -41 -35 -37 -24 -16
-12 -19 -4 -39 -35 -38 -24 -16
-11 -20 -5 -36 -36 -39 -25 -17
-11 -20 -5 -34 -36 -39 -25 -17
-11 -20 -5 -32 -36 -39 -25 -17
-11 -20 -5 -29 -36 -39 -25 -17
-11 -20 -5 -27 -36 -39 -25 -17
-12 -21 -5 -25 -36 -38 -26 -17
-12 -21 -5 -25 -36 -38 -26 -17
-12 -21 -5 -25 -36 -38 -26 -17
-13 -21 -5 -24 -36 -39 -26 -18
-13 -21 -5 -24 -36 -39 -26 -18
-14 -20 -5 -23 -37 -40 -26 -19
-14 -20 -5 -23 -37 -40 -26 -19
-13 -20 -5 -23 -37 -40 -26 -19
-12 -20 -5 -22 -37 -40 -27 -19
-12 -20 -5 -22 -37 -40 -27 -19
-11 -19 -5 -21 -38 -40 -28 -18
-11 -19 -5 -20 -37 -39 -28 -18
-11 -19 -5 -19 -36 -39 -27 -18
-11 -19 -5 -18 -35 -38 -26 -18
-11 -19 -5 -17 -34 -37 -26 -18
-10 -19 -4 -16 -33 -36 -25 -17
-10 -19 -4 -16 -33 -36 -25 -16
-11 -19 -3 -15 -32 -36 -25 -16
-12 -19 -2 -14 -31 -35 -25 -15
-12 -19 -2 -14 -31 -35 -25 -14
-13 -19 2 -7 -26 -33 -25 -13
-13 -19 7 8 -16 -31 -25 -14
-13 -19 12 22 -6 -29 -25 -15
-13 -19 17 36 5 -26 -25 -17
-13 -19 22 51 16 -24 -25 -18
-12 -16 24 54 25 -14 -19 -16
-5 -11 19 37 32 7 -7 -9
3 -5 14 22 40 27 6 -2
10 1 9 6 48 48 19 6
17 6 4 -10 56 68 31 13
26 21 -22 -56 55 105 59 29
39 51 -76 -142 39 165 106 57
53 79 -131 -229 24 225 153 85
67 108 -185 -315 9 285 201 112
80 138 -239 -402 -7 346 248 141
89 161 -285 -467 -21 395 287 164
90 178 -318 -498 -34 429 314 184
91 194 -352 -531 -48 463 342 203
92 210 -385 -564 -61 496 368 223
93 226 -418 -597 -74 530 395 241
86 221 -422 -598 -90 512 387 239
65 182 -382 -553 -108 415 323 202
45 143 -341 -507 -127 318 261 165
24 103 -300 -462 -145 222 198 129
4 64 -259 -415 -163 126 136 92
-10 36 -225 -371 -176 55 88 63
-15 24 -199 -329 -178 24 61 47
-20 12 -174 -288 -181 -7 34 30
-25 0 -148 -246 -183 -37 7 13
-30 -13 -122 -204 -186 -67 -20 -4
-32 -21 -101 -168 -177 -82 -35 -14
-28 -18 -85 -138 -146 -69 -30 -13
-24 -16 -68 -107 -116 -57 -25 -12
-21 -13 -52 -77 -86 -44 -20 -10
-17 -11 -35 -48 -55 -31 -15 -9
-14 -9 -23 -27 -35 -23 -11 -8
-14 -10 -18 -20 -33 -25 -13 -9
-14 -10 -12 -13 -30 -27 -14 -9
-14 -11 -7 -6 -28 -29 -16 -10
-14 -12 0 1 -25 -30 -18 -11
-14 -13 4 7 -23 -32 -19 -12
-14 -14 5 9 -22 -32 -19 -13
-14 -15 6 12 -20 -32 -19 -13
-13 -17 8 14 -19 -32 -20 -14
-13 -18 9 17 -17 -32 -20 -15
-12 -19 10 20 -16 -33 -21 -16
-12 -19 11 22 -15 -33 -21 -16
-12 -19 12 25 -14 -33 -21 -16
-12 -19 14 27 -13 -33 -21 -15
-12 -19 15 30 -12 -33 -21 -15
-12 -20 16 32 -11 -34 -22 -14
-12 -20 16 32 -10 -34 -22 -14
-12 -20 16 32 -9 -33 -22 -14
-12 -20 16 32 -8 -32 -22 -15
-12 -20 16 32 -7 -32 -22 -15
-11 -19 16 33 -6 -31 -23 -16
-11 -19 17 35 -5 -31 -23 -16
-10 -19 18 37 -4 -30 -22 -16
-9 -19 20 39 -2 -29 -21 -16
-9 -19 21 42 0 -29 -21 -16
-8 -18 22 44 1 -28 -20 -16
-8 -18 22 45 2 -27 -20 -15
-8 -18 22 46 4 -27 -20 -15
-9 -18 23 47 5 -26 -19 -14
-9 -18 23 48 7 -25 -19 -13
-10 -17 24 49 8 -24 -18 -12
-10 -17 24 51 9 -23 -18 -12
-10 -17 24 53 10 -23 -18 -12
-10 -17 25 55 11 -22 -17 -12
-10 -17 25 57 12 -21 -17 -12
-11 -18 26 59 13 -20 -16 -13
-11 -17 26 60 15 -20 -16 -13
-10 -16 27 61 17 -20 -16 -13
-9 -15 28 63 19 -20 -16 -13
-9 -14 28 64 20 -20 -16 -13
-8 -13 29 66 22 -19 -16 -12
-7 -13 30 68 24 -17 -16 -12
-7 -13 31 71 27 -15 -16 -12
-6 -13 32 74 29 -13 -15 -11
-5 -13 33 77 31 -12 -15 -11
-4 -13 34 80 34 -10 -14 -10
-4 -12 35 82 36 -9 -14 -10
-4 -12 36 86 39 -7 -13 -10
-4 -11 37 89 43 -6 -12 -10
-4 -10 38 92 46 -4 -12 -10
-5 -9 39 95 49 -3 -11 -9
-5 -9 40 99 52 0 -10 -8
-5 -9 43 104 55 2 -9 -7
-5 -9 44 108 58 4 -7 -6
-5 -9 46 113 61 5 -6 -5
-5 -9 47 117 65 7 -5 -4
-3 -7 48 121 69 9 -5 -4
-2 -6 50 126 73 11 -5 -4
1 -4 51 131 78 13 -4 -4
2 -3 53 135 82 14 -4 -4
4 0 54 140 87 16 -3 -4
4 0 57 146 91 18 -2 -4
4 0 59 152 95 20 -2 -3
4 0 62 158 99 22 0 -2
4 0 64 164 103 24 1 -2
5 1 66 171 107 26 2 0
5 1 67 176 110 27 2 0
6 1 68 181 114 29 3 0
7 2 70 186 118 30 4 0
7 2 71 190 121 32 4 0
8 3 72 195 125 33 5 1
8 4 74 199 128 34 5 1
8 5 76 204 131 35 5 2
9 7 78 209 134 36 6 3
9 8 80 214 137 37 6 3
10 9 82 217 139 38 7 4
10 9 84 220 141 38 7 4
10 9 85 223 143 39 7 4
11 9 86 225 144 39 8 4
11 9 88 228 146 40 8 4
12 10 89 230 148 42 9 4
12 11 90 233 148 42 10 5
12 12 92 235 148 42 11 7
12 13 93 237 149 42 12 8
12 14 95 240 149 42 13 10
12 15 96 241 150 42 14 11
12 15 95 238 148 39 14 10
12 15 93 234 146 37 14 10
12 15 92 231 144 36 13 9
12 15 90 227 142 34 13 8
13 16 89 222 139 32 12 7
13 16 87 216 134 34 12 8
12 16 85 210 130 36 12 9
12 17 84 203 125 38 11 10
11 17 81 197 120 40 11 11
10 18 78 189 114 43 10 12
9 18 75 179 107 45 9 11
8 18 71 168 100 48 9 10
7 18 68 156 93 50 8 9
6 18 64 146 86 52 7 7
5 19 61 136 78 53 6 6
4 18 58 126 72 50 5 6
3 17 55 116 65 46 4 6
2 16 52 107 58 43 3 6
0 15 49 98 51 38 2 6
-2 14 46 89 45 35 1 6
-2 13 42 80 38 32 0 4
-2 11 38 72 33 29 -3 2
-2 10 35 64 27 26 -4 1
-2 8 32 56 21 23 -6 -2
-2 7 29 49 16 21 -7 -4
-3 7 28 44 13 19 -8 -4
-3 6 27 39 9 18 -8 -4
-4 6 26 34 6 16 -9 -4
-5 5 25 30 2 15 -10 -4
-6 4 24 26 -2 13 -11 -4
-6 3 22 22 -4 11 -12 -5
-7 1 21 19 -7 9 -12 -5
-7 0 19 16 -9 8 -13 -6
-8 -3 18 13 -11 6 -14 -7
-9 -4 16 10 -13 4 -15 -8
-9 -4 15 9 -15 3 -16 -8
-9 -4 15 7 -16 2 -16 -8
-10 -5 14 6 -18 1 -17 -8
-10 -5 13 4 -19 -2 -18 -8
-11 -6 12 3 -21 -3 -19 -8
-11 -6 11 2 -22 -4 -19 -8
-11 -6 10 1 -23 -5 -19 -8
-11 -7 9 0 -24 -6 -19 -8
-11 -7 8 -2 -25 -8 -19 -8
-10 -8 7 -3 -26 -9 -20 -9
-10 -8 7 -3 -26 -9 -20 -9
-10 -9 7 -3 -26 -9 -20 -9
-10 -9 7 -3 -27 -9 -21 -8
-10 -10 7 -3 -27 -9 -21 -8
-11 -11 7 -3 -28 -10 -22 -7
-11 -11 7 -3 -28 -11 -22 -7
-11 -11 7 -3 -28 -12 -22 -8
-11 -11 6 -4 -29 -13 -23 -8
-11 -11 6 -4 -29 -14 -23 -9
-11 -12 5 -5 -30 -15 -24 -10
-11 -11 5 -4 -29 -15 -24 -10
-11 -11 6 -3 -29 -15 -23 -9
-11 -10 6 -2 -28 -15 -23 -9
-11 -9 7 1 -27 -15 -22 -8
-10 -8 8 2 -26 -14 -21 -7
-10 -8 8 2 -26 -14 -21 -7
-10 -8 7 1 -26 -15 -22 -7
-10 -8 7 1 -26 -15 -22 -7
-10 -8 6 0 -26 -16 -23 -7
-9 -9 5 -2 -26 -17 -24 -8
-9 -9 5 -2 -26 -17 -24 -9
-9 -9 5 -2 -26 -17 -24 -10
-9 -9 5 -2 -26 -17 -24 -11
-9 -9 5 -2 -26 -17 -24 -12
-8 -8 4 -2 -26 -18 -25 -13
-8 -8 4 -2 -26 -18 -25 -13
-8 -8 4 -2 -26 -18 -25 -12
-9 -8 4 0 -25 -18 -24 -12
-9 -8 4 0 -25 -18 -24 -11
-10 -8 5 1 -24 -17 -23 -10
-9 -8 5 1 -24 -17 -23 -10
-9 -8 5 1 -24 -17 -23 -9
-8 -8 5 1 -24 -17 -22 -9
-7 -8 5 1 -24 -17 -22 -8
-6 -8 4 2 -24 -16 -21 -7
-6 -8 4 2 -24 -16 -21 -7
-7 -8 4 2 -24 -16 -21 -7
-7 -7 4 2 -24 -16 -20 -7
-8 -7 4 2 -24 -16 -20 -7
-9 -6 3 1 -24 -17 -19 -7
-9 -6 3 1 -24 -17 -19 -7
-9 -6 3 1 -24 -17 -19 -7
-9 -6 3 1 -24 -17 -19 -7
-9 -6 3 1 -24 -17 -19 -7
-8 -6 4 0 -23 -16 -20 -8
-8 -6 4 0 -23 -16 -20 -9
-8 -6 3 0 -23 -16 -20 -9
-8 -6 3 0 -23 -16 -19 -10
-8 -6 2 0 -23 -16 -19 -11
-7 -7 1 -2 -24 -17 -18 -12
-7 -7 1 -2 -24 -17 -18 -11
-6 -6 1 -2 -24 -17 -18 -10
-6 -6 1 -3 -24 -17 -18 -9
-5 -5 1 -3 -24 -17 -18 -8
-4 -4 2 -4 -25 -18 -19 -7
-5 -4 2 -4 -25 -18 -19 -7
-6 -5 2 -5 -25 -18 -19 -8
-7 -6 2 -6 -25 -17 -18 -9
-8 -7 2 -7 -25 -17 -18 -10
-9 -8 2 -8 -25 -16 -17 -11
-9 -8 2 -8 -25 -16 -17 -11
-9 -8 2 -7 -26 -16 -17 -11
-9 -8 1 -7 -26 -16 -18 -12
-9 -8 1 -6 -27 -16 -18 -12
-9 -8 0 -5 -28 -16 -19 -13
-9 -8 0 -5 -28 -16 -19 -13
-9 -8 0 -6 -28 -16 -19 -13
-8 -8 0 -6 -28 -17 -19 -13
-8 -8 0 -7 -28 -17 -19 -13
-7 -7 1 -8 -29 -18 -19 -13
-7 -7 1 -8 -29 -18 -19 -13
-7 -7 1 -8 -29 -19 -19 -12
-8 -8 1 -8 -29 -20 -20 -11
-8 -8 1 -8 -29 -21 -20 -10
-9 -9 0 -8 -30 -22 -21 -9
-9 -9 0 -8 -30 -22 -21 -10
-9 -9 0 -8 -30 -22 -21 -11
-10 -9 0 -9 -30 -23 -21 -12
-10 -9 0 -9 -30 -23 -21 -14
-11 -10 0 -10 -31 -24 -20 -15
-11 -10 0 -10 -31 -24 -20 -14
-11 -10 0 -10 -31 -24 -20 -12
-11 -10 0 -10 -31 -24 -20 -11
-11 -10 0 -10 -31 -24 -20 -10
-10 -11 -2 -10 -32 -25 -20 -8
-10 -11 -2 -10 -32 -25 -20 -8
-10 -11 -2 -10 -32 -25 -20 -9
-10 -11 -2 -10 -32 -25 -20 -10
-10 -11 -2 -10 -32 -25 -20 -11
-9 -11 -2 -11 -33 -26 -20 -12
-9 -11 -2 -11 -33 -26 -20 -12
-9 -11 -2 -11 -33 -26 -21 -12
-9 -11 -2 -12 -33 -27 -21 -12
-9 -11 -2 -12 -33 -27 -22 -12
-8 -11 -3 -13 -34 -28 -23 -13
-8 -10 -3 -12 -34 -28 -23 -13
-8 -9 -3 -11 -33 -28 -22 -13
-8 -8 -2 -10 -33 -29 -21 -13
-8 -7 -2 -9 -32 -29 -20 -13
-7 -6 0 -8 -31 -30 -19 -12
-7 -4 2 -7 -30 -29 -19 -11
-6 -3 3 -5 -28 -27 -18 -9
-5 0 5 -4 -27 -26 -18 -7
-4 2 7 -3 -26 -25 -17 -6
-3 4 9 0 -24 -23 -16 -4
-3 4 9 0 -24 -23 -16 -5
-3 4 9 0 -24 -23 -16 -7
-3 3 10 0 -24 -24 -16 -9
-3 3 10 0 -24 -24 -16 -10
-3 2 11 -2 -23 -25 -17 -12
-2 2 11 -2 -23 -25 -17 -10
0 2 10 -2 -23 -25 -17 -9
1 2 10 0 -22 -24 -16 -7
3 2 9 0 -22 -24 -16 -5
4 1 8 1 -21 -23 -15 -3
4 1 6 1 -21 -22 -14 -3
4 1 5 1 -21 -21 -12 -3
5 1 3 0 -21 -20 -11 -3
5 1 1 0 -21 -19 -10 -3
6 2 -2 -2 -20 -18 -8 -2
6 0 -3 -5 -22 -21 -10 -3
6 -4 -5 -7 -24 -24 -12 -4
5 -6 -6 -10 -27 -26 -14 -5
5 -9 -7 -12 -29 -29 -16 -6
4 -11 -9 -15 -31 -32 -18 -7
4 -11 -9 -16 -31 -32 -18 -8
4 -11 -9 -17 -31 -33 -18 -9
3 -12 -10 -18 -31 -33 -18 -10
3 -12 -10 -20 -31 -34 -18 -12
2 -13 -11 -21 -32 -35 -19 -13
1 -13 -11 -21 -32 -35 -19 -13
-2 -12 -10 -21 -32 -35 -19 -13
-4 -11 -9 -21 -32 -36 -20 -13
-5 -10 -8 -21 -32 -36 -20 -13
-7 -9 -7 -20 -32 -37 -21 -13
-7 -10 -7 -20 -33 -38 -22 -14
-8 -12 -7 -21 -34 -40 -23 -15
-9 -14 -7 -21 -35 -41 -24 -16
-10 -15 -7 -22 -36 -43 -26 -17
-11 -17 -8 -23 -37 -45 -27 -18
-11 -17 -8 -23 -37 -45 -27 -17
-11 -17 -8 -22 -37 -45 -27 -16
-10 -18 -8 -22 -37 -45 -27 -15
-10 -18 -8 -21 -37 -45 -27 -14
-9 -19 -7 -20 -36 -44 -27 -13
-9 -19 -7 -20 -36 -44 -27 -13
-9 -18 -7 -20 -36 -44 -27 -14
-9 -18 -7 -21 -36 -45 -27 -14
-9 -17 -7 -21 -36 -45 -27 -15
-10 -16 -8 -22 -36 -46 -28 -16
-10 -16 -8 -22 -36 -46 -28 -16
-10 -17 -8 -22 -36 -46 -28 -17
-9 -17 -8 -22 -36 -46 -28 -17
-9 -18 -8 -22 -36 -46 -28 -18
-8 -19 -8 -22 -37 -46 -28 -19
-8 -19 -8 -22 -37 -46 -28 -19
-9 -19 -8 -22 -37 -46 -28 -18
-9 -19 -8 -21 -36 -45 -28 -17
-10 -19 -8 -21 -36 -45 -28 -16
-11 -19 -7 -20 -35 -44 -27 -15
-11 -19 -7 -20 -35 -44 -27 -14
-11 -19 -6 -19 -34 -44 -27 -13
-11 -19 -6 -18 -34 -44 -26 -12
-11 -19 -5 -17 -33 -44 -26 -11
-12 -18 -4 -16 -32 -44 -25 -9
-12 -18 -4 -16 -32 -44 -25 -11
-12 -18 -4 -16 -31 -44 -25 -12
-11 -18 -4 -16 -30 -44 -25 -14
-11 -18 -4 -16 -29 -44 -25 -16
-10 -18 -2 -13 -27 -43 -26 -18
-10 -18 5 5 -14 -39 -26 -18
-10 -18 12 22 -2 -36 -26 -18
-10 -18 19 38 12 -33 -26 -18
-10 -18 26 56 24 -30 -26 -18
-9 -16 31 66 35 -23 -23 -18
1 -9 21 29 38 8 -5 -8
10 0 11 -8 43 38 13 3
19 7 1 -45 46 69 31 13
29 15 -10 -81 50 100 50 23
38 26 -27 -124 51 136 72 36
53 60 -86 -204 36 204 126 71
67 94 -145 -284 21 273 179 105
80 128 -203 -364 6 342 233 139
95 161 -262 -444 -10 410 286 173
107 191 -315 -515 -24 471 334 202
104 194 -332 -530 -36 482 342 207
100 197 -350 -546 -48 493 350 213
97 201 -368 -561 -60 506 358 218
93 204 -386 -576 -72 517 366 223
88 202 -396 -585 -87 513 364 223
66 164 -356 -538 -116 405 297 185
45 127 -315 -492 -147 298 229 147
24 88 -275 -446 -177 190 160 109
3 50 -235 -400 -207 82 93 71
-16 16 -197 -354 -231 -11 32 36
-19 9 -175 -312 -207 -16 20 26
-22 2 -152 -270 -184 -21 7 17
-25 -6 -131 -229 -159 -26 -6 7
-28 -13 -108 -187 -136 -30 -18 -4
-31 -20 -88 -147 -112 -35 -29 -13
-26 -18 -73 -123 -96 -28 -26 -11
-21 -16 -59 -99 -79 -22 -24 -9
-16 -14 -45 -75 -63 -15 -21 -7
-12 -11 -31 -51 -47 -9 -18 -5
-7 -9 -18 -29 -32 -3 -15 -3
-7 -11 -14 -23 -30 -4 -16 -5
-7 -12 -10 -18 -28 -6 -18 -7
-8 -14 -6 -13 -26 -7 -19 -9
-8 -16 -2 -7 -23 -9 -21 -12
-9 -18 3 -2 -21 -11 -23 -14
-9 -18 4 1 -20 -11 -23 -14
-9 -18 5 4 -19 -11 -23 -14
-9 -18 7 7 -18 -11 -23 -14
-9 -18 8 9 -17 -11 -23 -14
-9 -18 10 12 -15 -12 -23 -13
-9 -18 11 14 -14 -11 -23 -13
-9 -18 12 16 -12 -10 -23 -13
-9 -18 13 18 -11 -9 -23 -13
-9 -18 14 20 -9 -8 -23 -13
-8 -18 15 22 -7 -7 -22 -12
-8 -18 15 23 -6 -7 -22 -12
-8 -18 16 24 -5 -7 -21 -12
-8 -18 16 26 -4 -7 -20 -11
-8 -18 17 27 -3 -7 -19 -11
-7 -18 18 29 0 -6 -18 -10
-7 -18 18 30 1 -6 -18 -10
-6 -18 19 31 2 -5 -18 -10
-6 -18 20 32 3 -4 -18 -10
-5 -18 21 33 4 -3 -18 -10
-4 -18 22 35 5 -2 -18 -11
-4 -18 22 35 5 -2 -18 -10
-4 -18 22 36 6 -2 -18 -9
-4 -18 22 37 7 -2 -17 -8
-4 -18 22 38 8 -2 -17 -7
-3 -18 23 39 9 0 -16 -6
-3 -18 24 42 11 1 -16 -6
-3 -18 25 45 13 2 -15 -6
-3 -17 26 47 15 3 -15 -6
-3 -17 27 49 17 4 -14 -6
-4 -16 28 52 19 5 -13 -7
-4 -16 28 53 20 5 -13 -7
-3 -16 28 55 22 6 -13 -6
-3 -16 29 56 23 7 -13 -5
-2 -16 29 58 25 8 -13 -4
0 -17 30 60 27 9 -13 -3
0 -17 31 63 29 10 -13 -3
0 -17 32 65 32 12 -12 -4
0 -16 33 68 34 13 -12 -5
0 -16 34 71 36 15 -11 -6
-2 -15 36 74 39 17 -10 -7
-2 -15 36 77 42 18 -9 -6
-2 -14 37 80 45 19 -8 -4
0 -14 38 84 48 20 -7 -2
0 -13 39 87 50 21 -6 1
1 -12 40 90 53 22 -4 3
1 -12 42 94 56 24 -4 2
1 -11 44 98 60 26 -4 1
2 -11 45 102 63 28 -3 -2
2 -10 47 107 66 30 -3 -3
3 -9 49 111 70 32 -2 -5
4 -9 50 115 73 33 -2 -4
5 -9 51 120 76 34 0 -3
6 -9 52 125 79 36 1 -2
7 -9 53 129 84 37 2 0
8 -9 55 134 87 39 3 2
8 -8 57 140 91 42 4 2
8 -7 59 146 95 44 5 2
8 -6 61 152 99 46 7 1
8 -5 63 158 104 48 8 1
8 -3 66 164 108 50 10 0
8 -2 67 170 111 51 10 0
9 0 69 175 114 53 11 1
9 1 70 180 117 54 11 1
10 2 72 186 121 56 12 2
11 3 74 191 125 58 13 3
11 3 76 196 127 59 13 3
11 4 78 200 130 60 13 4
11 5 80 205 132 61 13 4
11 6 82 211 135 62 13 5
12 7 85 216 138 63 13 6
12 7 86 218 139 63 13 6
13 8 87 220 140 63 14 7
13 8 88 222 141 63 14 8
14 9 89 224 142 63 15 9
15 10 90 227 144 62 16 10
15 11 90 227 144 62 16 10
15 12 90 228 144 61 16 10
15 13 91 228 144 61 16 10
15 14 91 229 144 60 16 10
14 15 92 230 144 59 17 10
14 15 92 227 142 58 17 10
14 15 91 224 139 56 17 11
14 16 91 220 137 55 17 12
14 16 90 217 134 53 17 13
14 17 89 213 131 51 17 14
14 17 87 205 126 49 17 13
14 17 85 198 120 47 17 12
14 17 82 191 115 45 17 11
14 17 80 183 109 43 17 10
14 17 77 176 104 40 16 8
13 17 74 165 98 38 16 8
12 16 71 155 91 36 16 8
11 15 68 145 84 33 16 9
10 14 65 135 77 31 16 9
9 13 61 125 70 28 15 10
8 13 59 115 64 27 14 9
7 13 56 106 58 25 12 7
6 12 53 97 52 23 11 5
5 12 50 88 46 21 9 3
4 11 47 78 39 19 7 1
4 11 45 71 34 17 7 1
3 10 43 64 30 15 6 1
2 9 39 57 25 13 5 1
1 8 37 50 20 11 4 1
0 7 34 43 15 9 3 1
-2 6 33 38 12 9 3 0
-4 5 31 34 9 8 2 -2
-5 3 30 30 6 7 1 -3
-7 2 28 26 3 6 0 -4
-9 0 26 22 0 5 -2 -5
-9 0 25 20 -3 4 -2 -5
-9 -2 24 17 -5 3 -3 -5
-8 -3 23 15 -8 2 -3 -5
-8 -4 22 12 -10 1 -4 -5
-7 -5 20 9 -13 -2 -5 -5
-7 -5 20 8 -14 -3 -5 -5
-7 -6 20 7 -15 -4 -5 -6
-8 -6 20 5 -17 -5 -5 -7
-8 -7 20 4 -18 -6 -5 -8
-9 -8 19 2 -20 -8 -6 -9
-9 -8 19 1 -20 -8 -6 -9
-9 -9 18 0 -21 -9 -7 -9
-9 -9 18 -2 -22 -10 -8 -8
-9 -10 17 -3 -23 -11 -9 -8
-10 -11 16 -4 -24 -12 -10 -7
-10 -11 16 -4 -24 -12 -10 -8
-10 -11 16 -4 -25 -12 -11 -9
-10 -11 16 -4 -26 -13 -11 -10
-10 -11 16 -4 -27 -13 -12 -11
-10 -10 16 -4 -28 -14 -13 -12
-10 -10 16 -4 -28 -14 -13 -11
-10 -10 16 -4 -28 -14 -13 -10
-10 -10 16 -4 -27 -14 -12 -9
-10 -10 16 -4 -27 -14 -12 -8
-10 -11 15 -4 -26 -14 -11 -6
-10 -11 15 -4 -26 -14 -11 -6
-10 -11 15 -4 -25 -14 -11 -7
-10 -11 15 -3 -25 -13 -11 -8
-10 -11 15 -3 -24 -13 -11 -9
-10 -11 16 -2 -23 -12 -10 -10
-10 -11 16 -2 -23 -12 -10 -10
-10 -11 16 -2 -23 -12 -10 -10
-10 -11 16 -2 -23 -12 -10 -9
-10 -11 16 -2 -23 -12 -10 -9
-10 -11 15 -2 -22 -11 -10 -8
-10 -11 15 -2 -22 -11 -10 -8
-10 -11 15 -2 -22 -11 -10 -8
-9 -11 16 0 -22 -11 -10 -8
-9 -11 16 0 -22 -11 -10 -8
-8 -11 17 1 -21 -11 -9 -9
-8 -11 17 1 -21 -11 -9 -9
-9 -11 17 1 -21 -11 -9 -8
-10 -11 17 1 -20 -11 -9 -7
-11 -11 17 1 -20 -11 -9 -6
-11 -11 17 1 -20 -11 -9 -6
-12 -11 16 0 -19 -10 -9 -5
-12 -11 16 0 -19 -10 -9 -6
-12 -11 16 0 -19 -10 -9 -7
-12 -11 16 0 -19 -10 -9 -8
-12 -11 16 0 -19 -10 -9 -8
-11 -11 16 0 -18 -9 -8 -9
-11 -11 15 -2 -18 -9 -8 -8
-11 -11 15 -3 -18 -9 -8 -7
-11 -11 14 -4 -18 -9 -8 -6
-11 -11 14 -4 -18 -9 -8 -5
-10 -10 13 -5 -18 -10 -8 -5
-10 -10 13 -5 -18 -10 -8 -6
-10 -10 13 -5 -18 -10 -8 -8
-10 -10 13 -5 -18 -10 -8 -9
-10 -10 13 -5 -18 -10 -8 -10
-11 -11 13 -5 -18 -11 -8 -10
-10 -10 13 -6 -18 -11 -8 -9
-9 -9 13 -6 -19 -11 -8 -8
-8 -8 13 -7 -19 -11 -8 -7
-8 -8 13 -7 -19 -11 -8 -6
-7 -7 12 -8 -20 -12 -9 -6
-7 -7 12 -8 -20 -12 -9 -7
-8 -7 12 -9 -20 -12 -9 -8
-8 -7 12 -9 -20 -12 -9 -9
-8 -7 12 -9 -20 -12 -9 -10
-9 -8 12 -10 -20 -13 -9 -10
-9 -8 12 -11 -21 -13 -9 -9
-9 -9 11 -11 -21 -14 -9 -8
-9 -9 11 -12 -22 -14 -9 -7
-9 -9 11 -12 -22 -14 -9 -6
-9 -10 10 -13 -23 -15 -10 -6
-9 -10 10 -13 -23 -15 -10 -7
-8 -10 10 -13 -23 -15 -10 -9
-8 -10 10 -13 -23 -15 -10 -10
-8 -10 10 -13 -23 -15 -10 -11
-7 -9 10 -13 -23 -16 -11 -11
-8 -10 10 -13 -23 -16 -11 -10
-9 -11 10 -13 -23 -16 -10 -9
-10 -12 10 -13 -23 -16 -10 -8
-11 -12 10 -13 -23 -16 -10 -7
-12 -13 10 -14 -23 -17 -9 -6
-11 -13 10 -14 -24 -18 -10 -7
-10 -12 10 -15 -24 -18 -11 -8
-9 -12 10 -15 -25 -19 -12 -9
-9 -12 10 -15 -25 -19 -13 -9
-8 -11 9 -16 -26 -20 -14 -10
-8 -12 9 -17 -26 -21 -14 -9
-9 -12 8 -17 -27 -22 -15 -9
-9 -13 8 -18 -27 -23 -15 -8
-9 -13 8 -18 -27 -23 -15 -8
-10 -14 7 -19 -28 -24 -16 -8
-10 -14 6 -19 -28 -24 -16 -9
-10 -14 6 -19 -28 -24 -16 -10
-10 -14 5 -19 -28 -24 -16 -11
-10 -14 5 -19 -28 -24 -16 -12
-9 -13 4 -19 -28 -25 -16 -12
-9 -13 4 -19 -28 -25 -16 -11
-9 -12 4 -19 -28 -25 -16 -9
-9 -12 4 -19 -28 -25 -16 -8
-9 -12 4 -19 -28 -25 -16 -7
-8 -11 3 -17 -27 -25 -16 -6
-8 -10 4 -16 -26 -25 -16 -6
-7 -9 4 -14 -25 -25 -16 -6
-7 -8 5 -13 -24 -25 -16 -6
-7 -7 5 -12 -23 -25 -16 -6
-6 -6 7 -11 -22 -24 -15 -6
-7 -5 8 -11 -21 -23 -14 -5
-8 -5 10 -10 -21 -23 -13 -5
-9 -4 11 -10 -20 -22 -12 -4
-9 -4 12 -10 -20 -22 -12 -4
-9 -3 13 -9 -19 -21 -11 -3
-7 -3 14 -8 -19 -21 -11 -4
-5 -2 14 -8 -19 -22 -12 -5
-3 -2 15 -7 -19 -22 -12 -6
-2 -2 15 -7 -19 -22 -12 -6
0 0 14 -6 -18 -23 -13 -6
0 0 11 -7 -18 -23 -12 -4
0 0 8 -7 -17 -23 -12 -2
0 0 5 -8 -17 -23 -11 1
0 0 3 -8 -17 -23 -11 2
1 1 1 -9 -16 -22 -10 3
3 1 -2 -10 -17 -21 -10 2
4 1 -3 -11 -17 -21 -10 1
6 1 -5 -12 -18 -20 -10 0
7 1 -6 -12 -18 -20 -10 0
7 -3 -7 -14 -21 -21 -10 -2
6 -6 -8 -16 -24 -23 -11 -3
5 -8 -8 -17 -26 -26 -13 -4
4 -11 -9 -19 -29 -28 -14 -5
3 -13 -9 -20 -31 -30 -15 -6
1 -14 -10 -21 -32 -31 -16 -7
0 -14 -10 -21 -32 -31 -16 -8
-3 -14 -10 -21 -33 -32 -17 -9
-4 -14 -10 -21 -33 -32 -17 -10
-5 -14 -10 -21 -33 -32 -17 -11
-6 -14 -9 -21 -34 -34 -18 -12
-7 -15 -8 -21 -34 -35 -19 -12
-7 -16 -8 -22 -35 -37 -20 -12
-8 -17 -7 -22 -35 -38 -21 -12
-8 -17 -7 -22 -35 -39 -22 -12
-9 -18 -6 -23 -36 -40 -23 -14
-10 -18 -6 -23 -37 -41 -24 -16
-10 -19 -7 -23 -37 -41 -25 -18
-11 -19 -7 -23 -38 -43 -26 -20
-11 -19 -7 -23 -38 -43 -26 -21
-12 -20 -8 -23 -39 -44 -27 -22
-12 -20 -8 -23 -39 -44 -27 -21
-13 -21 -8 -23 -39 -44 -27 -20
-13 -21 -8 -23 -39 -44 -27 -19
-13 -21 -8 -23 -39 -44 -27 -18
-14 -22 -8 -23 -39 -44 -26 -17
-15 -22 -8 -23 -39 -44 -26 -18
-15 -21 -8 -23 -39 -44 -26 -18
-16 -21 -8 -23 -39 -44 -26 -19
-16 -21 -8 -23 -39 -44 -26 -19
-16 -20 -7 -22 -39 -45 -27 -20
-15 -20 -7 -22 -39 -45 -27 -20
-14 -20 -7 -22 -39 -45 -27 -20
-13 -20 -7 -22 -39 -45 -27 -20
-12 -20 -7 -22 -39 -45 -27 -20
-11 -20 -7 -22 -38 -46 -27 -19
-11 -20 -7 -22 -38 -46 -27 -20
-12 -20 -7 -22 -38 -46 -27 -20
-12 -20 -7 -22 -38 -46 -27 -21
-12 -20 -7 -22 -38 -46 -27 -21
-13 -21 -8 -21 -38 -46 -27 -21
-13 -21 -8 -21 -38 -46 -27 -20
-13 -20 -7 -20 -37 -45 -26 -19
-13 -20 -7 -20 -37 -45 -26 -18
-13 -20 -7 -20 -37 -45 -26 -17
-13 -19 -5 -17 -34 -44 -25 -17
-13 -19 -3 -13 -31 -44 -26 -18
-13 -19 0 -10 -28 -43 -26 -19
-13 -19 2 -7 -26 -43 -27 -20
-13 -19 3 -4 -23 -43 -27 -21
-11 -18 9 13 -8 -35 -26 -21
-9 -17 16 30 9 -27 -24 -19
-7 -17 22 49 25 -19 -21 -17
-4 -16 28 66 42 -11 -18 -16
-2 -16 35 85 58 -3 -16 -14
9 -6 16 34 57 30 9 0
19 7 -9 -24 53 67 36 14
30 18 -33 -83 50 104 63 27
42 29 -57 -142 46 141 91 42
52 40 -81 -201 42 178 117 56
62 74 -131 -270 24 244 171 89
72 110 -184 -341 6 315 228 125
82 146 -237 -411 -14 386 284 160
93 183 -290 -482 -33 455 341 196
103 219 -344 -553 -52 526 398 232
95 215 -350 -558 -63 518 392 230
81 202 -348 -552 -72 497 377 222
69 191 -346 -546 -82 476 361 213
56 180 -344 -540 -92 455 346 204
44 169 -342 -534 -101 435 329 196
28 137 -308 -491 -126 337 268 162
13 102 -269 -443 -151 228 200 126
-4 67 -231 -395 -178 118 132 89
-19 32 -193 -348 -204 10 64 51
-35 -3 -154 -300 -230 -100 -5 14
-37 -10 -135 -261 -208 -104 -17 5
-36 -13 -117 -223 -180 -92 -21 -2
-35 -16 -101 -186 -150 -79 -24 -7
-34 -19 -83 -148 -120 -66 -28 -12
-33 -22 -67 -110 -91 -54 -32 -18
-30 -23 -55 -90 -77 -50 -31 -18
-27 -22 -45 -72 -66 -47 -28 -15
-24 -21 -34 -55 -55 -43 -25 -13
-21 -20 -23 -36 -44 -39 -23 -11
-18 -19 -13 -19 -32 -36 -20 -9
-17 -18 -9 -13 -29 -35 -19 -9
-17 -19 -6 -9 -27 -36 -20 -10
-17 -19 -3 -4 -25 -37 -20 -12
-17 -20 1 1 -24 -38 -21 -13
-17 -20 4 5 -22 -39 -21 -14
-17 -21 5 7 -21 -40 -22 -15
-17 -22 6 8 -20 -40 -22 -14
-17 -22 6 10 -19 -40 -22 -13
-17 -23 7 12 -18 -40 -22 -12
-17 -23 7 13 -17 -40 -22 -12
-16 -24 8 15 -15 -41 -23 -11
-16 -24 9 18 -14 -40 -23 -12
-16 -24 10 20 -12 -39 -23 -13
-16 -24 11 22 -10 -38 -23 -14
-16 -24 12 24 -9 -38 -23 -14
-15 -23 13 25 -8 -37 -22 -14
-14 -24 13 26 -7 -37 -22 -13
-13 -24 13 26 -6 -36 -21 -12
-12 -25 13 27 -5 -36 -21 -10
-12 -25 13 27 -5 -36 -21 -9
-11 -26 14 29 -3 -35 -20 -8
-12 -26 15 31 -2 -34 -20 -9
-13 -25 16 33 0 -34 -19 -9
-14 -25 17 35 1 -33 -19 -10
-14 -25 17 37 2 -33 -19 -10
-15 -24 18 38 4 -32 -18 -11
-14 -23 18 38 5 -32 -18 -10
-14 -23 18 38 6 -31 -18 -9
-13 -22 18 38 7 -31 -18 -8
-13 -22 18 38 8 -31 -18 -8
-12 -21 18 42 10 -29 -17 -7
-12 -21 20 45 12 -28 -16 -7
-11 -21 22 48 14 -27 -15 -7
-11 -21 23 51 16 -25 -14 -7
-11 -21 25 54 18 -24 -13 -7
-10 -20 26 56 20 -23 -12 -8
-10 -20 26 57 21 -22 -12 -7
-9 -20 26 59 23 -21 -11 -6
-9 -20 26 61 25 -20 -11 -5
-9 -20 26 62 26 -20 -11 -4
-8 -19 27 65 28 -18 -10 -3
-7 -18 29 68 31 -17 -9 -4
-6 -18 30 71 33 -15 -9 -5
-5 -17 31 74 36 -13 -8 -6
-4 -17 32 77 38 -12 -8 -7
-3 -16 33 80 42 -11 -7 -7
-3 -15 34 84 44 -10 -7 -5
-3 -15 35 86 47 -9 -7 -3
-3 -14 36 89 49 -8 -7 0
-3 -14 36 92 52 -7 -7 2
-3 -13 38 96 55 -5 -7 3
-2 -13 39 101 58 -3 -6 2
-2 -13 42 105 62 0 -5 1
0 -13 44 109 65 2 -4 0
0 -13 45 114 68 4 -3 -2
1 -12 46 118 72 6 -2 -3
1 -12 48 122 75 8 0 0
0 -12 49 128 79 10 1 1
0 -12 50 132 84 12 2 2
0 -12 51 137 88 14 3 3
-2 -11 53 142 92 16 4 4
0 -10 54 147 96 18 5 4
1 -9 56 153 100 20 5 3
2 -8 58 158 104 22 6 3
3 -7 59 163 108 24 6 3
4 -6 61 169 111 26 7 3
5 -5 62 173 115 28 8 5
5 -4 64 177 119 30 9 7
6 -3 66 181 122 31 10 8
6 -3 67 186 127 33 10 10
7 0 69 190 130 34 11 11
8 1 71 194 133 36 11 11
8 2 73 198 135 37 11 11
9 4 75 202 138 38 11 11
9 5 77 206 141 39 11 11
10 6 78 209 142 40 12 11
10 7 78 210 143 40 13 13
9 8 79 212 143 40 13 14
9 9 79 214 144 40 14 15
9 9 79 215 144 40 14 16
8 10 80 216 145 39 15 17
9 10 80 215 144 38 14 16
9 11 81 215 144 36 14 16
10 11 81 214 143 34 13 15
10 11 81 214 143 33 13 15
10 12 82 210 140 32 12 15
9 12 81 205 137 30 13 16
8 13 80 201 135 29 14 18
6 13 79 197 132 28 15 20
5 13 79 192 129 27 15 21
4 14 77 185 123 25 16 22
3 14 74 178 117 23 15 21
3 14 72 170 112 21 15 20
2 14 69 162 106 19 14 19
2 14 67 154 101 17 14 18
1 13 64 145 94 15 13 17
1 13 62 136 88 13 12 17
1 14 59 127 80 10 12 18
1 14 57 117 74 8 11 18
1 14 54 108 67 6 11 18
2 15 52 101 61 4 10 18
1 14 49 93 55 2 9 16
1 13 47 85 49 0 8 14
0 12 44 77 44 -2 7 12
0 11 42 69 37 -4 7 10
-2 10 39 63 32 -6 5 9
-3 9 36 56 27 -8 4 9
-3 8 34 50 22 -11 3 9
-4 7 31 43 17 -13 1 9
-4 6 29 36 13 -15 0 9
-5 4 27 32 9 -17 -3 8
-5 2 26 29 7 -18 -5 6
-6 1 25 26 4 -19 -6 5
-6 -2 23 22 1 -21 -8 3
-6 -4 22 19 -3 -22 -10 1
-7 -5 21 17 -5 -23 -11 0
-7 -5 20 15 -7 -23 -11 1
-7 -5 20 13 -8 -23 -11 2
-7 -5 19 11 -10 -23 -11 3
-7 -5 19 9 -12 -23 -11 3
-8 -6 18 8 -13 -25 -11 3
-8 -7 18 7 -14 -26 -12 2
-8 -8 17 6 -15 -27 -12 1
-8 -9 17 5 -16 -29 -13 -2
-8 -9 17 5 -16 -30 -13 -3
-7 -10 16 4 -17 -31 -14 -4
-9 -10 16 3 -18 -31 -15 -2
-10 -11 16 3 -19 -32 -15 0
-11 -11 16 2 -20 -32 -16 1
-12 -11 16 2 -21 -32 -16 2
-13 -12 15 1 -22 -33 -17 2
-12 -12 15 1 -22 -33 -17 0
-11 -12 15 1 -22 -34 -18 -3
-10 -12 15 1 -22 -34 -18 -5
-10 -12 15 1 -22 -34 -18 -7
-9 -12 14 0 -23 -35 -19 -7
-10 -12 14 0 -23 -35 -19 -5
-11 -12 14 1 -22 -35 -19 -4
-12 -12 14 1 -22 -35 -19 -2
-12 -12 14 1 -22 -35 -19 1
-13 -12 14 2 -21 -34 -18 1
-13 -12 14 2 -21 -34 -18 0
-13 -12 14 2 -21 -34 -18 -2
-13 -12 14 2 -21 -34 -18 -4
-13 -12 14 2 -21 -34 -18 -5
-13 -12 14 3 -20 -34 -19 -6
-13 -12 14 3 -20 -33 -19 -5
-13 -12 14 3 -19 -33 -19 -4
-13 -12 14 3 -19 -32 -19 -4
-13 -12 14 3 -19 -32 -19 -3
-12 -11 13 3 -18 -31 -18 -2
-11 -11 13 3 -18 -31 -18 -3
-11 -10 13 4 -17 -30 -18 -3
-10 -10 13 4 -17 -30 -18 -4
-10 -10 13 4 -17 -30 -18 -4
-9 -9 13 5 -16 -29 -17 -5
-9 -9 13 5 -16 -29 -17 -5
-8 -9 12 4 -16 -29 -17 -4
-8 -9 12 4 -16 -29 -17 -4
-8 -9 12 4 -16 -29 -17 -4
-7 -10 11 3 -15 -28 -16 -3
-7 -10 11 4 -15 -28 -16 -3
-8 -10 11 4 -14 -27 -16 -4
-8 -10 11 5 -14 -27 -16 -4
-8 -10 11 5 -14 -27 -16 -4
-9 -10 11 6 -13 -26 -16 -5
-9 -10 11 5 -13 -26 -16 -4
-9 -9 10 4 -13 -26 -16 -4
-9 -9 10 4 -13 -26 -16 -3
-9 -9 10 3 -13 -26 -16 -3
-8 -8 9 2 -14 -26 -15 -2
-8 -8 9 2 -14 -26 -15 -2
-8 -7 9 2 -14 -26 -15 -3
-8 -7 9 2 -14 -26 -15 -3
-8 -7 9 2 -14 -26 -15 -3
-8 -6 10 3 -14 -25 -15 -4
-8 -6 10 2 -14 -25 -15 -3
-8 -7 9 1 -15 -25 -15 -3
-8 -7 9 1 -15 -25 -15 -2
-8 -7 9 0 -15 -25 -15 -2
-8 -8 8 -2 -16 -26 -15 0
-8 -8 8 -2 -16 -26 -15 -2
-8 -7 8 -2 -16 -26 -15 -2
-8 -7 8 -2 -16 -26 -15 -3
-8 -7 8 -2 -16 -26 -15 -3
-8 -6 9 -2 -16 -26 -15 -4
-8 -6 8 -2 -16 -26 -15 -3
-8 -6 8 -3 -17 -26 -15 -2
-8 -6 7 -3 -17 -26 -15 -2
-8 -6 7 -3 -17 -26 -15 0
-9 -6 6 -4 -18 -27 -14 1
-9 -6 6 -4 -18 -27 -14 0
-9 -7 6 -4 -19 -28 -15 0
-9 -7 6 -4 -19 -28 -15 -2
-9 -7 6 -4 -19 -28 -15 -2
-9 -8 7 -5 -20 -29 -16 -3
-8 -7 7 -5 -20 -29 -16 -2
-7 -7 7 -5 -20 -29 -16 -2
-7 -6 7 -5 -20 -29 -16 0
-6 -6 7 -5 -20 -29 -16 0
-5 -5 7 -6 -20 -29 -16 1
-5 -5 7 -6 -21 -29 -16 1
-6 -5 7 -7 -21 -29 -16 1
-6 -5 7 -7 -22 -29 -16 1
-6 -5 7 -7 -22 -29 -16 1
-7 -6 6 -8 -23 -29 -15 0
-7 -6 6 -8 -23 -29 -15 1
-7 -7 5 -9 -24 -30 -15 1
-7 -7 5 -9 -24 -30 -15 2
-7 -7 5 -9 -24 -30 -15 2
-8 -8 4 -10 -25 -31 -16 3
-8 -7 4 -10 -25 -31 -16 3
-8 -7 5 -10 -24 -31 -16 2
-8 -6 5 -10 -24 -31 -16 2
-8 -6 5 -10 -24 -31 -16 2
-7 -4 6 -9 -23 -31 -17 1
-6 -2 7 -8 -21 -30 -16 2
-6 0 7 -7 -20 -29 -15 3
-5 2 8 -6 -19 -28 -14 4
-5 4 8 -5 -18 -27 -13 5
-4 5 9 -4 -17 -26 -12 6
-3 6 11 -4 -17 -26 -12 5
-2 7 12 -3 -17 -26 -12 4
-2 8 14 -3 -17 -26 -12 3
0 9 15 -3 -17 -26 -12 2
1 10 16 -2 -16 -26 -13 1
1 9 15 -2 -16 -26 -13 1
1 9 15 0 -16 -26 -13 1
1 8 14 0 -16 -26 -13 1
1 8 14 0 -16 -26 -13 1
1 7 12 0 -16 -25 -13 2
1 7 9 -2 -16 -25 -12 2
1 8 7 -4 -16 -24 -12 2
1 8 4 -5 -16 -24 -11 2
1 8 1 -7 -16 -24 -11 2
0 8 0 -8 -17 -23 -10 1
1 6 -2 -8 -17 -23 -10 3
2 4 -2 -8 -18 -23 -9 4
2 2 -3 -8 -18 -23 -9 5
3 0 -3 -8 -18 -23 -9 6
4 -2 -4 -9 -20 -23 -8 6
4 -3 -4 -11 -22 -25 -9 4
4 -4 -5 -12 -24 -26 -10 3
4 -5 -5 -14 -26 -28 -11 1
4 -6 -5 -15 -28 -30 -12 -2
2 -7 -6 -16 -29 -31 -13 -3
1 -7 -6 -16 -29 -32 -13 -3
-2 -8 -6 -17 -30 -33 -14 -3
-3 -8 -6 -18 -31 -33 -15 -3
-5 -8 -6 -18 -31 -34 -15 -3
-6 -9 -5 -19 -32 -35 -16 -3
-6 -10 -5 -19 -32 -36 -17 -5
-7 -11 -4 -19 -33 -37 -18 -6
-7 -12 -4 -19 -34 -37 -19 -8
-7 -13 -4 -19 -34 -38 -20 -9
-8 -14 -3 -20 -35 -39 -21 -10
-9 -15 -3 -20 -35 -39 -21 -10
-10 -16 -3 -20 -36 -40 -22 -10
-10 -16 -3 -20 -37 -41 -23 -10
-11 -17 -3 -20 -37 -41 -23 -10
-12 -18 -4 -21 -38 -43 -24 -10
-12 -18 -4 -21 -38 -43 -25 -12
-12 -18 -4 -21 -38 -43 -26 -13
-12 -18 -4 -21 -38 -43 -26 -15
-12 -18 -4 -21 -38 -43 -27 -16
-12 -18 -5 -21 -39 -44 -28 -17
-12 -18 -5 -21 -39 -44 -28 -17
-12 -18 -5 -21 -39 -44 -28 -17
-12 -18 -5 -21 -39 -44 -28 -17
-12 -18 -5 -21 -39 -44 -28 -17
-13 -19 -6 -22 -40 -45 -27 -16
-13 -19 -6 -22 -40 -45 -27 -16
-12 -19 -5 -22 -40 -45 -27 -16
-12 -19 -5 -22 -40 -45 -27 -16
-12 -19 -5 -22 -40 -45 -27 -16
-11 -18 -4 -21 -39 -44 -26 -17
-11 -18 -4 -21 -39 -44 -26 -16
-10 -17 -4 -21 -39 -45 -26 -15
-9 -16 -4 -21 -39 -45 -26 -14
-9 -16 -4 -21 -39 -45 -26 -13
-8 -15 -5 -21 -39 -46 -26 -12
-10 -15 -5 -21 -38 -46 -26 -13
-11 -16 -5 -20 -37 -45 -26 -14
-13 -17 -5 -20 -37 -44 -26 -15
-14 -17 -5 -20 -36 -44 -26 -16
-15 -18 -2 -14 -31 -41 -25 -17
-14 -16 2 -5 -25 -40 -25 -17
-13 -15 6 4 -19 -38 -26 -16
-12 -13 10 13 -12 -37 -26 -15
-11 -12 13 21 -6 -35 -26 -15
-8 -10 16 28 7 -26 -23 -13
-3 -8 18 33 23 -13 -17 -10
2 -6 21 38 39 2 -11 -8
6 -4 23 44 56 15 -4 -5
11 0 26 49 72 29 3 -2
20 13 3 3 66 66 31 14
31 32 -36 -76 46 117 72 38
44 53 -76 -154 24 170 112 62
56 73 -115 -232 4 221 153 87
67 93 -155 -311 -17 272 194 111
74 120 -198 -372 -37 326 238 138
79 152 -242 -426 -57 381 284 165
85 185 -286 -478 -77 435 330 193
90 217 -331 -531 -97 490 377 222
95 250 -376 -583 -117 545 422 250
88 239 -376 -580 -131 520 407 243
71 202 -346 -540 -141 444 354 215
55 165 -316 -502 -151 369 300 185
38 129 -286 -463 -160 294 246 156
23 91 -257 -423 -171 219 193 127
10 65 -230 -386 -180 153 146 100
1 47 -204 -350 -188 94 104 74
-10 28 -180 -315 -197 33 61 48
-20 10 -155 -279 -206 -26 19 22
-30 -9 -131 -243 -215 -86 -23 -5
-32 -16 -111 -210 -200 -101 -38 -14
-27 -14 -96 -178 -169 -88 -34 -12
-23 -12 -80 -145 -137 -73 -31 -10
-18 -10 -65 -112 -105 -59 -27 -8
-13 -8 -50 -80 -73 -46 -23 -5
-11 -7 -39 -60 -56 -39 -21 -5
-10 -7 -31 -49 -50 -38 -21 -6
-8 -8 -24 -36 -43 -37 -22 -8
-7 -8 -16 -24 -35 -37 -22 -10
-6 -8 -9 -12 -28 -36 -22 -12
-5 -9 -5 -6 -25 -35 -23 -13
-5 -9 -3 -4 -24 -37 -24 -13
-5 -10 -2 0 -22 -39 -25 -12
-5 -11 1 2 -21 -40 -25 -12
-5 -11 2 5 -20 -43 -26 -12
-5 -12 3 7 -18 -44 -27 -11
-5 -12 5 10 -17 -43 -27 -11
-5 -13 6 12 -15 -41 -26 -12
-5 -14 8 15 -13 -41 -25 -13
-5 -14 9 17 -11 -40 -25 -13
-5 -15 10 19 -10 -39 -24 -14
-5 -15 10 20 -9 -39 -24 -13
-5 -15 10 21 -8 -38 -24 -12
-5 -15 10 22 -7 -38 -24 -11
-5 -15 10 23 -6 -38 -24 -10
-5 -14 11 24 -5 -37 -23 -9
-5 -14 11 25 -3 -36 -23 -10
-5 -14 12 27 -2 -35 -23 -12
-5 -14 13 28 1 -35 -23 -13
-5 -14 13 29 2 -34 -23 -14
-5 -14 14 30 3 -33 -23 -15
-5 -14 14 31 4 -33 -23 -13
-5 -15 14 32 5 -32 -22 -11
-5 -16 14 32 6 -31 -21 -10
-5 -16 14 33 7 -31 -21 -8
-6 -17 15 35 8 -30 -20 -7
-5 -16 16 36 10 -30 -20 -8
-4 -15 17 38 11 -29 -20 -9
-4 -15 17 40 13 -28 -20 -10
-3 -14 18 43 14 -28 -20 -11
-2 -13 19 44 15 -27 -20 -12
-2 -13 19 45 17 -27 -20 -12
0 -13 20 46 18 -26 -20 -12
1 -13 20 47 20 -25 -20 -12
1 -13 20 48 21 -25 -20 -12
2 -12 21 50 23 -24 -20 -12
1 -12 21 53 26 -23 -20 -12
0 -11 22 56 28 -22 -19 -12
0 -11 22 59 31 -21 -18 -12
-2 -11 22 61 33 -20 -18 -12
-3 -10 23 64 36 -18 -17 -11
-3 -10 24 65 38 -17 -16 -11
-2 -9 26 67 40 -15 -15 -10
-2 -9 27 69 43 -13 -14 -10
-2 -9 28 71 46 -11 -13 -10
0 -8 29 74 48 -9 -12 -9
1 -8 30 77 52 -8 -12 -9
3 -7 32 81 55 -6 -11 -9
4 -6 33 86 59 -4 -11 -9
5 -6 34 90 62 -2 -11 -9
6 -5 35 94 66 0 -10 -9
6 -5 36 97 69 2 -10 -7
6 -4 37 101 73 4 -10 -6
6 -4 37 104 76 5 -10 -5
6 -4 38 108 80 7 -10 -3
6 -3 40 112 85 9 -9 -2
6 -3 42 117 89 10 -8 -3
7 -2 44 122 93 12 -7 -5
7 0 46 128 97 14 -7 -6
7 0 48 133 102 16 -6 -7
8 1 49 138 106 18 -5 -7
8 2 51 143 109 20 -4 -5
9 3 53 147 113 22 -2 -3
10 3 54 152 117 24 0 0
10 4 56 156 121 27 1 2
11 5 57 161 125 28 2 3
11 6 59 165 129 30 2 1
10 7 61 170 132 32 2 0
10 7 62 174 136 33 2 -2
10 8 64 179 139 35 2 -4
10 9 65 182 141 36 3 -4
13 11 66 185 143 37 3 -2
15 13 67 187 145 38 4 1
18 15 67 190 147 38 5 3
20 17 68 192 149 39 5 5
22 18 69 194 150 40 6 6
20 18 71 196 151 40 7 6
19 18 73 198 152 39 8 5
18 18 74 200 153 39 8 5
16 18 76 202 154 39 9 5
15 18 77 202 154 38 10 4
15 18 76 200 152 36 10 5
16 19 75 197 150 34 10 6
16 19 75 195 148 33 10 7
16 19 74 193 146 31 10 8
17 20 73 189 142 29 9 9
16 20 72 184 138 27 8 8
15 21 70 179 133 25 7 7
14 22 69 174 129 23 7 6
13 22 68 169 125 21 6 5
12 23 66 161 118 18 5 4
11 23 63 152 111 16 5 5
10 23 59 144 104 14 5 6
10 23 56 135 98 12 5 7
9 23 53 127 91 10 5 8
8 23 50 117 84 7 4 8
8 22 47 108 76 4 2 6
7 21 44 100 68 1 1 4
6 20 42 91 61 -2 0 2
6 19 38 82 54 -5 -3 0
5 18 35 74 47 -8 -4 -3
5 17 32 67 40 -10 -5 -3
4 15 29 59 34 -13 -7 -3
4 14 26 52 28 -15 -8 -3
4 13 23 45 21 -17 -9 -3
3 12 21 38 17 -19 -10 -4
1 10 19 34 13 -21 -11 -5
0 8 18 30 9 -23 -13 -7
-2 7 17 26 6 -24 -14 -8
-4 5 15 22 2 -26 -15 -9
-5 4 14 18 -2 -27 -16 -10
-5 4 13 15 -4 -29 -16 -9
-5 3 12 12 -7 -30 -17 -8
-5 2 12 9 -10 -31 -17 -8
-5 2 11 6 -12 -33 -17 -7
-5 1 10 4 -15 -34 -18 -6
-5 1 9 2 -17 -35 -19 -8
-5 0 7 1 -19 -37 -20 -10
-5 0 6 0 -21 -38 -21 -12
-5 0 5 -3 -23 -39 -22 -14
-4 -2 4 -4 -24 -40 -23 -15
-4 -2 4 -4 -25 -40 -23 -15
-4 -2 3 -5 -26 -41 -23 -14
-4 -2 3 -6 -27 -41 -23 -14
-4 -2 3 -6 -28 -41 -23 -14
-5 -2 2 -7 -29 -43 -23 -13
-5 -3 2 -8 -29 -43 -23 -14
-5 -4 2 -9 -29 -44 -24 -15
-5 -4 2 -9 -29 -45 -25 -15
-5 -5 2 -10 -29 -45 -25 -16
-6 -6 2 -11 -30 -46 -26 -17
-6 -6 2 -11 -30 -46 -26 -17
-6 -6 2 -11 -30 -46 -26 -17
-7 -6 1 -10 -30 -46 -26 -17
-7 -6 1 -10 -30 -46 -26 -17
-8 -6 0 -9 -31 -47 -27 -16
-8 -6 0 -9 -31 -47 -27 -16
-8 -6 0 -8 -31 -47 -27 -16
-8 -7 0 -7 -31 -47 -27 -17
-8 -7 0 -7 -31 -47 -27 -17
-8 -8 0 -6 -30 -47 -27 -18
-8 -8 0 -6 -29 -47 -27 -17
-8 -7 1 -6 -29 -47 -26 -16
-8 -6 2 -6 -28 -46 -25 -14
-8 -6 2 -6 -27 -46 -25 -13
-7 -5 3 -6 -26 -45 -24 -12
-7 -5 3 -6 -26 -45 -24 -13
-8 -5 3 -6 -26 -45 -24 -14
-9 -5 2 -6 -26 -45 -24 -16
-9 -5 2 -6 -26 -45 -24 -17
-10 -5 1 -5 -26 -45 -25 -18
-10 -5 1 -5 -26 -45 -25 -18
-10 -5 1 -5 -25 -44 -25 -18
-9 -5 1 -5 -24 -43 -25 -17
-9 -5 1 -5 -24 -43 -25 -17
-8 -5 2 -5 -23 -41 -24 -16
-8 -5 2 -5 -23 -41 -24 -16
-8 -5 2 -5 -23 -41 -24 -16
-8 -5 1 -5 -23 -41 -24 -16
-8 -5 1 -5 -23 -41 -24 -16
-7 -6 0 -5 -23 -40 -23 -17
-7 -6 0 -5 -23 -40 -23 -17
-7 -6 0 -5 -23 -40 -23 -16
-7 -6 0 -5 -22 -39 -22 -15
-7 -6 0 -5 -22 -39 -22 -15
-8 -5 -2 -5 -21 -38 -21 -14
-8 -5 -2 -5 -21 -38 -21 -15
-8 -5 -2 -5 -21 -38 -21 -16
-8 -5 -2 -5 -21 -38 -21 -17
-8 -5 -2 -5 -21 -38 -21 -18
-7 -4 -2 -5 -21 -37 -20 -19
-7 -4 -2 -5 -21 -37 -20 -17
-7 -4 -2 -5 -21 -37 -20 -16
-7 -4 -2 -5 -21 -37 -20 -15
-7 -4 -2 -5 -21 -37 -20 -13
-8 -4 0 -6 -20 -36 -19 -12
-8 -4 0 -6 -20 -36 -19 -13
-7 -4 -2 -6 -20 -36 -19 -14
-6 -4 -3 -7 -20 -36 -19 -15
-6 -4 -3 -7 -20 -36 -19 -16
-5 -5 -4 -8 -21 -35 -19 -17
-5 -5 -4 -8 -21 -35 -19 -15
-5 -5 -4 -8 -21 -34 -18 -14
-5 -5 -4 -8 -20 -33 -17 -13
-5 -5 -4 -8 -20 -33 -17 -11
-5 -4 -3 -7 -19 -32 -16 -10
-5 -4 -3 -7 -19 -32 -16 -10
-5 -4 -3 -7 -20 -32 -17 -11
-6 -4 -3 -8 -21 -33 -18 -12
-6 -4 -3 -8 -21 -33 -18 -12
-7 -5 -4 -9 -22 -34 -19 -13
-7 -5 -4 -9 -22 -34 -19 -13
-7 -5 -4 -9 -22 -34 -19 -13
-7 -5 -4 -10 -23 -34 -19 -12
-7 -5 -4 -10 -23 -34 -19 -12
-7 -6 -4 -11 -24 -35 -20 -11
-7 -6 -4 -11 -24 -35 -20 -13
-6 -6 -4 -11 -24 -35 -20 -14
-5 -5 -4 -11 -25 -36 -21 -15
-5 -5 -4 -11 -25 -36 -21 -17
-4 -4 -5 -12 -26 -37 -22 -18
-4 -4 -5 -12 -26 -37 -22 -17
-5 -4 -5 -12 -26 -37 -21 -16
-6 -5 -4 -13 -26 -36 -20 -15
-6 -5 -4 -13 -26 -36 -20 -14
-7 -6 -3 -14 -27 -35 -19 -13
-6 -6 -3 -14 -27 -35 -19 -13
-5 -6 -3 -13 -27 -35 -19 -13
-4 -5 -3 -12 -26 -34 -19 -14
-3 -5 -3 -12 -26 -34 -19 -14
-2 -4 -2 -11 -25 -33 -19 -15
-2 -2 0 -11 -24 -32 -19 -13
-2 1 1 -10 -23 -31 -18 -12
-2 3 3 -9 -22 -30 -17 -11
-2 4 4 -9 -21 -29 -17 -9
-3 6 5 -8 -20 -28 -16 -8
-3 7 7 -6 -19 -28 -16 -9
-3 8 8 -5 -18 -28 -16 -9
-3 9 10 -4 -17 -28 -16 -10
-3 10 12 -2 -16 -28 -16 -11
-4 11 13 0 -15 -27 -16 -12
-4 11 10 -2 -15 -27 -16 -11
-3 11 8 -3 -15 -27 -16 -11
-2 10 6 -5 -15 -27 -16 -10
-2 10 4 -6 -15 -27 -16 -9
0 9 2 -7 -16 -27 -15 -8
1 9 0 -8 -16 -27 -14 -8
1 9 -3 -9 -16 -27 -14 -8
2 9 -5 -11 -17 -26 -13 -8
3 9 -7 -12 -17 -26 -12 -8
4 10 -9 -13 -18 -25 -11 -8
5 9 -9 -13 -18 -25 -11 -7
6 8 -9 -13 -19 -25 -11 -6
7 6 -9 -13 -20 -25 -11 -5
8 5 -9 -13 -20 -25 -11 -4
9 4 -9 -12 -21 -26 -12 -3
8 2 -9 -14 -23 -28 -13 -5
6 0 -9 -15 -25 -30 -15 -7
5 -3 -9 -17 -27 -32 -16 -9
3 -5 -9 -19 -29 -33 -18 -10
2 -7 -10 -20 -31 -35 -19 -12
-2 -8 -10 -20 -31 -36 -19 -12
-4 -8 -9 -20 -32 -37 -20 -12
-7 -9 -8 -21 -33 -38 -21 -12
-9 -10 -8 -21 -33 -39 -21 -12
-11 -11 -7 -22 -34 -40 -22 -11
-10 -11 -7 -22 -34 -40 -22 -12
-10 -11 -7 -22 -34 -40 -22 -14
-9 -11 -7 -22 -34 -40 -22 -15
-8 -11 -7 -22 -34 -40 -22 -17
-7 -12 -6 -22 -33 -40 -23 -18
-7 -13 -6 -22 -33 -40 -23 -18
-7 -14 -6 -22 -34 -40 -24 -18
-8 -16 -6 -22 -35 -41 -25 -17
-8 -17 -6 -22 -35 -41 -25 -17
-9 -18 -5 -23 -36 -43 -26 -16
-9 -18 -5 -23 -36 -43 -26 -16
-10 -18 -5 -23 -36 -43 -26 -17
-11 -18 -5 -23 -36 -43 -26 -18
-11 -18 -5 -23 -36 -43 -26 -18
-12 -19 -5 -22 -36 -43 -26 -19
-12 -19 -5 -22 -36 -43 -26 -18
-12 -19 -5 -22 -36 -43 -26 -17
-12 -19 -5 -22 -36 -43 -26 -15
-12 -19 -5 -22 -36 -43 -26 -14
-12 -18 -4 -22 -36 -41 -26 -13
-12 -18 -4 -22 -36 -41 -26 -14
-12 -18 -4 -22 -36 -41 -26 -15
-12 -18 -4 -22 -35 -41 -26 -17
-12 -18 -4 -22 -35 -41 -26 -18
-13 -19 -4 -21 -34 -40 -26 -19
-13 -19 -4 -21 -34 -40 -26 -19
-13 -19 -4 -21 -34 -40 -26 -18
-13 -19 -4 -21 -34 -40 -26 -17
-13 -19 -4 -21 -34 -40 -26 -17
-13 -19 -4 -20 -33 -39 -26 -16
-13 -19 -3 -19 -32 -39 -26 -17
-13 -18 -2 -18 -31 -39 -26 -18
-13 -17 0 -17 -30 -38 -26 -19
-13 -17 1 -16 -29 -38 -26 -20
-14 -16 4 -9 -23 -36 -27 -21
-13 -15 10 8 -9 -30 -27 -21
-11 -14 17 24 6 -25 -27 -21
-10 -13 23 42 20 -20 -26 -21
-8 -12 29 58 34 -15 -26 -21
-5 -9 30 55 44 -2 -19 -19
4 -2 20 16 45 24 0 -9
11 6 9 -24 45 50 17 2
18 13 -3 -63 46 75 35 12
26 20 -14 -102 47 102 53 21
35 37 -43 -156 40 142 85 39
48 71 -103 -234 19 205 137 73
61 105 -163 -313 -3 269 189 106
73 139 -224 -391 -24 332 242 140
87 173 -284 -470 -45 396 295 173
94 196 -329 -525 -63 440 331 196
92 200 -346 -539 -77 449 340 202
89 204 -363 -554 -92 459 348 210
86 210 -380 -568 -105 468 357 216
82 214 -397 -582 -119 477 365 222
73 202 -394 -575 -136 446 348 215
53 162 -351 -526 -158 345 282 178
32 122 -309 -477 -181 242 217 141
12 82 -266 -428 -203 140 151 105
-10 44 -224 -379 -226 37 87 68
-23 15 -189 -332 -233 -29 38 40
-24 8 -166 -291 -207 -35 24 28
-25 1 -144 -251 -183 -40 10 16
-27 -6 -121 -210 -157 -46 -6 4
-28 -13 -100 -169 -132 -51 -20 -9
-28 -18 -80 -134 -110 -53 -30 -17
-24 -16 -66 -110 -93 -47 -27 -15
-20 -14 -53 -87 -75 -39 -24 -14
-15 -12 -39 -63 -58 -33 -22 -12
-11 -11 -25 -39 -40 -27 -19 -11
-8 -9 -15 -23 -29 -22 -17 -9
-8 -11 -11 -17 -26 -23 -18 -11
-9 -12 -7 -11 -24 -24 -19 -13
-10 -14 -2 -6 -21 -26 -20 -15
-10 -15 3 1 -19 -27 -21 -17
-11 -17 6 5 -17 -28 -22 -19
-11 -17 7 7 -15 -28 -22 -18
-12 -17 9 10 -14 -28 -22 -17
-13 -17 10 12 -12 -28 -22 -16
-13 -17 12 14 -11 -28 -22 -15
-14 -18 13 16 -9 -27 -22 -14
-13 -18 14 19 -8 -26 -22 -14
-12 -18 16 21 -6 -24 -22 -14
-10 -19 17 24 -5 -23 -22 -15
-9 -19 19 26 -3 -21 -22 -15
-8 -20 20 28 -2 -20 -21 -16
-8 -20 20 28 -2 -20 -21 -16
-8 -20 20 28 -2 -20 -21 -15
-8 -19 19 29 0 -20 -21 -14
-8 -19 19 29 0 -20 -21 -14
-8 -18 18 30 1 -21 -21 -13
-8 -18 19 32 3 -20 -21 -14
-8 -18 20 34 5 -19 -21 -14
-8 -18 21 35 6 -18 -21 -15
-8 -18 22 37 8 -17 -21 -16
-7 -19 23 39 10 -16 -20 -17
-7 -18 23 40 11 -16 -19 -15
-7 -18 23 42 12 -16 -18 -14
-7 -17 24 43 13 -15 -17 -12
-7 -16 24 45 14 -15 -15 -11
-7 -15 25 46 15 -14 -14 -9
-6 -15 26 48 17 -13 -14 -10
-6 -15 27 50 18 -12 -14 -10
-5 -15 28 52 20 -11 -15 -11
-4 -15 30 54 21 -9 -15 -12
-3 -15 31 56 23 -8 -16 -13
-3 -15 31 57 25 -8 -16 -13
-3 -15 31 58 26 -7 -15 -13
-3 -14 31 59 28 -7 -15 -12
-3 -14 31 61 29 -6 -14 -12
-2 -13 31 63 32 -5 -13 -11
-2 -12 33 67 35 -3 -13 -11
-2 -12 35 70 38 1 -13 -11
-2 -11 37 74 42 3 -12 -11
-2 -10 39 78 45 5 -12 -11
0 -9 42 81 48 7 -11 -12
0 -9 42 85 51 8 -10 -11
0 -9 42 87 54 9 -9 -9
0 -9 43 89 56 10 -8 -8
0 -9 43 92 59 12 -6 -6
0 -9 44 95 62 13 -5 -5
0 -9 46 100 65 15 -5 -6
0 -8 48 105 68 17 -5 -7
1 -8 49 109 72 19 -5 -8
1 -7 51 114 75 21 -5 -10
2 -6 53 119 79 23 -5 -11
2 -5 54 123 84 25 -4 -10
3 -4 55 129 88 27 -3 -9
3 -3 56 133 92 29 -2 -8
4 -2 58 137 97 31 1 -6
5 0 59 142 101 33 2 -5
6 0 62 148 105 35 3 -5
6 0 64 154 110 37 3 -5
7 1 66 160 114 38 4 -6
8 1 69 167 118 40 5 -6
9 2 71 173 123 43 6 -7
9 3 73 177 128 45 7 -5
9 3 74 182 132 46 7 -3
9 4 76 187 136 48 8 -2
9 5 77 191 140 49 9 1
9 6 79 196 143 51 10 3
9 7 82 201 147 52 11 3
10 7 85 206 150 53 11 3
10 8 87 211 154 54 12 2
11 9 90 216 157 56 13 2
12 10 92 220 160 57 14 1
12 10 92 222 161 57 14 3
12 10 92 224 163 57 15 4
12 10 93 226 164 57 15 6
12 10 93 228 167 57 16 7
12 11 94 230 168 58 17 9
12 12 95 230 168 57 17 8
13 13 96 230 168 56 16 7
13 14 97 230 168 55 16 6
14 16 98 230 168 53 15 5
15 17 99 230 168 52 14 4
15 17 98 226 163 49 14 5
14 18 97 222 160 47 14 7
14 18 96 218 156 45 14 8
13 19 94 214 153 42 14 9
12 20 93 207 149 39 15 11
12 20 90 200 143 36 15 10
12 20 88 192 137 34 15 9
11 20 85 185 132 31 14 8
11 20 81 177 126 28 14 6
10 20 78 169 118 26 13 5
10 20 75 157 111 23 12 5
10 20 71 147 103 20 12 5
9 20 67 136 96 17 11 5
9 20 63 126 88 14 10 5
8 20 60 115 80 11 9 6
7 19 57 107 73 8 8 4
6 18 54 98 67 5 7 3
5 17 51 90 60 2 6 1
3 16 49 81 53 0 4 0
2 15 46 73 47 -4 3 -3
1 13 43 66 42 -7 1 -3
-2 11 39 59 35 -10 -2 -3
-3 10 36 52 30 -13 -3 -4
-4 8 34 45 24 -15 -5 -4
-6 6 31 38 20 -18 -7 -5
-6 5 30 34 17 -19 -7 -6
-6 5 28 31 14 -21 -7 -7
-6 4 27 27 11 -22 -8 -8
-6 3 26 24 8 -23 -8 -9
-7 2 24 21 5 -25 -9 -10
-7 2 22 17 3 -27 -10 -10
-7 1 20 14 1 -29 -10 -9
-7 1 18 11 -3 -30 -11 -9
-7 0 16 8 -5 -32 -12 -8
-6 -2 14 5 -7 -34 -13 -7
-6 -2 14 5 -8 -34 -13 -8
-7 -2 14 5 -9 -34 -14 -10
-7 -3 13 4 -10 -35 -14 -11
-8 -3 13 4 -12 -35 -15 -12
-9 -4 12 3 -13 -36 -16 -14
-9 -4 12 2 -14 -36 -16 -14
-9 -4 11 0 -15 -36 -16 -14
-10 -5 10 -2 -16 -37 -17 -13
-10 -5 9 -3 -17 -37 -17 -13
-11 -6 8 -5 -18 -38 -18 -12
-11 -6 8 -5 -18 -38 -18 -12
-11 -6 8 -5 -18 -39 -19 -13
-10 -7 8 -4 -19 -39 -19 -13
-10 -7 8 -4 -19 -40 -20 -14
-9 -8 9 -3 -20 -41 -21 -15
-9 -8 9 -3 -20 -41 -21 -15
-9 -8 9 -3 -20 -43 -21 -14
-9 -8 9 -3 -20 -43 -21 -14
-9 -8 9 -3 -20 -44 -21 -13
-10 -9 8 -4 -20 -45 -21 -12
-10 -9 8 -4 -20 -45 -21 -12
-10 -9 8 -3 -20 -45 -21 -13
-10 -9 9 -2 -19 -45 -21 -14
-10 -9 9 0 -19 -45 -21 -15
-11 -9 10 1 -18 -44 -21 -16
-11 -9 10 1 -18 -44 -21 -15
-11 -9 10 1 -18 -44 -21 -14
-11 -9 9 1 -18 -43 -21 -13
-11 -9 9 1 -18 -43 -21 -12
-11 -10 8 0 -18 -41 -22 -11
-11 -10 8 0 -18 -41 -22 -12
-11 -10 8 0 -18 -41 -22 -13
-10 -10 8 0 -18 -41 -22 -14
-10 -10 8 0 -18 -41 -22 -15
-9 -10 7 1 -17 -41 -23 -16
-9 -10 7 1 -17 -41 -23 -15
-9 -10 7 1 -16 -40 -23 -13
-9 -10 7 1 -15 -40 -22 -11
-9 -10 7 1 -14 -39 -22 -10
-9 -9 6 1 -13 -38 -21 -8
-9 -9 6 1 -13 -38 -21 -8
-9 -9 6 1 -12 -38 -20 -9
-10 -9 7 2 -11 -37 -20 -9
-10 -9 7 2 -10 -37 -19 -10
-11 -8 8 3 -9 -36 -18 -11
-11 -8 8 3 -9 -36 -18 -10
-11 -8 7 3 -9 -36 -18 -9
-11 -8 7 2 -9 -35 -18 -8
-11 -8 6 2 -9 -35 -18 -7
-11 -9 5 1 -9 -34 -17 -6
-11 -9 5 1 -9 -34 -17 -6
-10 -9 5 1 -9 -34 -17 -7
-10 -9 5 1 -9 -34 -17 -8
-9 -9 5 1 -9 -34 -17 -9
-8 -9 4 0 -9 -33 -17 -10
-8 -9 4 0 -9 -33 -17 -9
-8 -9 4 0 -9 -33 -17 -8
-8 -9 4 0 -9 -33 -17 -7
-8 -9 4 0 -9 -33 -17 -6
-8 -9 4 -2 -9 -32 -16 -5
-8 -9 4 -2 -9 -32 -16 -5
-8 -9 4 -2 -9 -32 -16 -6
-8 -9 4 -2 -10 -32 -16 -6
-8 -9 4 -2 -10 -32 -16 -7
-9 -9 5 -2 -11 -31 -15 -8
-9 -9 5 -2 -11 -31 -15 -8
-9 -9 5 -2 -12 -31 -15 -7
-10 -9 4 -3 -12 -31 -15 -7
-10 -9 4 -3 -13 -31 -15 -6
-11 -9 3 -4 -14 -30 -15 -5
-11 -9 3 -4 -14 -30 -15 -6
-11 -9 3 -4 -15 -30 -15 -8
-10 -9 3 -4 -15 -30 -16 -10
-10 -9 3 -4 -16 -30 -16 -11
-9 -8 3 -5 -17 -31 -17 -13
-9 -8 3 -5 -17 -31 -17 -12
-9 -8 2 -6 -17 -32 -17 -11
-9 -9 2 -7 -17 -32 -17 -10
-9 -9 1 -8 -17 -33 -17 -9
-9 -10 0 -9 -18 -34 -18 -8
-9 -10 0 -9 -18 -34 -18 -9
-10 -10 0 -9 -18 -34 -18 -10
-10 -10 1 -9 -19 -34 -18 -11
-11 -10 1 -9 -19 -34 -18 -12
-12 -11 2 -9 -20 -34 -18 -13
-12 -11 2 -9 -20 -34 -18 -12
-11 -11 2 -9 -20 -34 -18 -11
-11 -10 1 -10 -20 -34 -18 -10
-10 -10 1 -10 -20 -34 -18 -9
-9 -9 0 -11 -21 -35 -19 -8
-9 -9 1 -10 -21 -35 -19 -8
-9 -8 2 -9 -20 -34 -18 -9
-9 -8 3 -8 -19 -33 -18 -9
-9 -7 4 -6 -18 -32 -17 -10
-10 -6 5 -5 -17 -31 -16 -11
-10 -5 5 -5 -17 -31 -16 -10
-9 -3 6 -5 -16 -31 -16 -9
-8 -2 6 -5 -16 -30 -15 -8
-7 0 7 -5 -15 -30 -15 -7
-6 2 8 -4 -14 -29 -14 -6
-6 3 9 -3 -14 -28 -14 -7
-6 4 11 -2 -13 -27 -14 -8
-6 5 12 0 -13 -26 -14 -9
-6 6 13 2 -12 -25 -14 -10
-5 7 15 3 -11 -24 -13 -11
-5 7 12 1 -11 -24 -13 -9
-5 7 9 -2 -12 -24 -13 -7
-6 6 6 -4 -12 -24 -12 -5
-6 6 3 -6 -13 -24 -12 -3
-7 5 0 -8 -14 -25 -11 0
-6 5 -2 -8 -14 -25 -11 0
-4 5 -3 -8 -14 -24 -11 -2
-2 5 -4 -8 -13 -23 -10 -3
0 5 -5 -8 -13 -22 -10 -4
2 4 -6 -7 -12 -21 -9 -5
2 2 -7 -8 -14 -23 -9 -5
2 0 -8 -10 -16 -24 -10 -5
2 -3 -9 -11 -18 -26 -10 -5
2 -5 -10 -12 -21 -28 -11 -5
2 -7 -12 -14 -23 -30 -12 -6
2 -7 -12 -14 -24 -30 -12 -6
2 -8 -12 -15 -25 -31 -13 -7
1 -9 -12 -15 -26 -31 -14 -8
1 -10 -12 -16 -27 -32 -15 -9
0 -11 -11 -17 -28 -33 -16 -10
-3 -11 -11 -17 -28 -34 -16 -10
-5 -11 -11 -18 -29 -35 -17 -10
-7 -11 -11 -19 -30 -36 -18 -10
-9 -11 -11 -20 -31 -37 -19 -10
-11 -12 -10 -21 -32 -38 -20 -10
-11 -14 -10 -21 -32 -38 -20 -11
-11 -15 -9 -21 -33 -39 -21 -13
-12 -17 -9 -21 -33 -39 -22 -14
-12 -19 -8 -21 -34 -40 -23 -15
-13 -21 -7 -22 -35 -41 -24 -17
-13 -21 -7 -22 -35 -41 -24 -17
-13 -21 -7 -22 -36 -41 -24 -17
-12 -21 -8 -22 -36 -43 -25 -16
-12 -21 -8 -22 -37 -43 -25 -16
-11 -20 -9 -23 -38 -44 -26 -15
-11 -20 -9 -23 -38 -44 -26 -15
-11 -20 -9 -23 -38 -44 -26 -16
-11 -21 -8 -23 -38 -44 -26 -17
-11 -21 -8 -23 -38 -44 -26 -18
-11 -22 -7 -22 -38 -44 -27 -19
-11 -22 -7 -22 -38 -44 -27 -19
-11 -21 -7 -22 -38 -44 -27 -18
-11 -21 -7 -22 -38 -44 -26 -17
-11 -20 -7 -22 -38 -44 -26 -16
-11 -19 -6 -22 -37 -43 -25 -15
-11 -19 -6 -22 -37 -43 -25 -15
-11 -19 -6 -22 -37 -43 -26 -16
-11 -20 -6 -22 -37 -43 -26 -17
-11 -20 -6 -22 -37 -43 -27 -18
-12 -21 -7 -22 -38 -43 -28 -19
-12 -21 -7 -22 -38 -43 -28 -19
-12 -21 -7 -22 -37 -41 -27 -18
-12 -21 -7 -22 -37 -41 -27 -17
-12 -21 -7 -22 -36 -40 -26 -16
-13 -20 -6 -21 -35 -39 -25 -15
-13 -20 -5 -19 -34 -39 -25 -16
-14 -20 -4 -17 -33 -39 -25 -18
-14 -20 -3 -15 -31 -39 -26 -19
-15 -20 -2 -13 -30 -39 -26 -21
-16 -19 1 -9 -27 -39 -27 -23
-13 -18 8 9 -11 -32 -26 -22
-10 -16 15 26 6 -25 -25 -20
-7 -15 22 44 22 -18 -24 -19
-4 -13 29 61 38 -11 -23 -17
1 -10 34 70 53 -2 -19 -14
9 0 10 14 51 30 5 -3
18 9 -15 -41 50 61 27 10
27 19 -39 -98 48 93 50 21
36 28 -63 -153 46 123 73 32
46 42 -92 -212 42 159 99 47
58 77 -151 -285 23 225 153 81
70 113 -211 -359 4 292 207 116
82 150 -269 -434 -15 357 261 151
95 186 -328 -508 -34 423 315 185
106 219 -382 -574 -53 482 363 217
100 213 -387 -575 -64 476 359 216
94 207 -392 -577 -76 470 355 214
88 201 -397 -578 -88 464 350 212
82 196 -402 -580 -99 457 346 210
74 186 -403 -577 -113 441 336 204
55 148 -359 -528 -144 335 269 167
34 109 -315 -478 -175 228 202 130
14 70 -272 -429 -206 122 136 93
-7 31 -228 -379 -237 16 69 55
-25 -4 -186 -329 -263 -79 9 21
-25 -7 -164 -287 -228 -73 1 13
-25 -10 -142 -244 -194 -66 -7 6
-25 -13 -120 -202 -159 -60 -14 -2
-25 -16 -98 -159 -126 -54 -22 -10
-24 -19 -76 -119 -93 -48 -29 -17
-21 -19 -64 -100 -80 -44 -27 -16
-19 -18 -52 -80 -68 -39 -24 -15
-16 -17 -38 -61 -55 -35 -21 -13
-13 -16 -26 -43 -43 -31 -19 -12
-10 -15 -14 -24 -30 -27 -16 -10
-10 -15 -11 -19 -28 -28 -17 -11
-9 -16 -7 -14 -25 -29 -18 -12
-9 -17 -3 -8 -23 -30 -20 -14
-8 -18 1 -3 -21 -31 -21 -15
-7 -19 5 3 -18 -33 -23 -17
-7 -19 5 4 -18 -33 -23 -17
-7 -19 5 6 -17 -33 -23 -17
-7 -19 6 7 -16 -33 -23 -17
-7 -19 6 9 -15 -33 -23 -17
-8 -19 7 11 -14 -33 -23 -16
-7 -19 8 13 -13 -33 -23 -16
-6 -19 9 15 -12 -32 -23 -17
-5 -19 11 17 -10 -32 -23 -17
-4 -19 12 19 -9 -31 -23 -18
-2 -19 14 22 -7 -30 -23 -19
-3 -19 14 22 -6 -30 -23 -19
-4 -19 14 22 -5 -30 -22 -18
-5 -19 14 23 -4 -30 -21 -17
-6 -19 14 23 -3 -30 -20 -16
-7 -19 14 24 0 -29 -19 -15
-6 -19 15 26 0 -28 -19 -15
-5 -18 16 28 1 -27 -19 -15
-4 -18 17 30 2 -26 -19 -16
-3 -17 18 32 3 -25 -19 -16
0 -16 20 35 4 -24 -19 -17
0 -16 20 35 5 -24 -19 -17
0 -16 20 35 6 -24 -19 -16
-2 -16 20 36 8 -24 -19 -15
-2 -16 20 36 9 -24 -19 -14
-3 -15 19 37 11 -23 -18 -13
-3 -15 20 39 12 -22 -18 -14
-3 -15 21 42 14 -21 -18 -15
-3 -15 22 45 16 -20 -18 -16
-3 -15 23 47 18 -19 -18 -17
-4 -16 25 50 20 -17 -18 -18
-4 -16 25 51 22 -17 -18 -17
-3 -16 25 53 24 -16 -17 -16
-3 -16 25 54 26 -15 -16 -14
-2 -16 25 56 28 -14 -15 -13
0 -15 26 58 31 -13 -14 -11
0 -14 27 61 33 -12 -14 -11
0 -13 29 65 36 -10 -13 -12
0 -12 31 68 39 -8 -13 -12
0 -11 33 71 43 -6 -12 -13
1 -9 35 75 46 -4 -11 -14
1 -9 35 77 48 -3 -11 -13
2 -9 35 80 51 -2 -10 -12
2 -10 35 84 54 1 -9 -11
3 -10 35 87 57 2 -8 -10
4 -11 36 90 60 4 -7 -9
4 -11 38 95 63 5 -7 -9
5 -11 40 99 66 7 -7 -10
5 -10 43 104 69 9 -7 -11
6 -10 45 109 72 11 -7 -12
7 -9 47 114 76 13 -6 -13
8 -9 48 118 80 14 -5 -12
9 -8 49 123 85 16 -4 -10
10 -8 50 129 89 17 -3 -8
11 -7 51 133 93 19 -2 -6
12 -6 53 138 97 21 0 -4
12 -6 55 144 101 23 0 -4
12 -5 58 151 105 25 1 -4
13 -5 60 157 110 27 1 -4
13 -4 63 163 114 29 2 -4
14 -3 66 171 119 32 3 -4
14 -2 67 175 122 34 4 -3
14 0 69 180 127 36 5 -2
14 1 70 185 130 38 6 1
14 2 72 190 134 40 7 2
15 4 74 195 138 43 9 4
15 5 76 199 141 44 9 4
15 6 78 204 144 46 10 4
15 7 80 209 147 47 11 4
15 8 82 214 150 49 12 4
15 9 85 219 154 51 13 3
15 9 85 220 154 51 13 4
16 10 85 221 155 50 13 5
16 10 85 223 156 50 13 6
17 11 85 224 157 49 13 7
18 12 85 226 158 48 13 8
18 12 85 226 158 48 13 8
18 13 86 226 158 47 13 7
18 14 87 227 157 47 12 7
18 15 88 227 157 46 12 6
18 16 89 228 156 45 11 5
18 16 88 223 153 43 11 6
18 17 86 218 149 40 11 7
18 18 84 212 146 38 11 8
18 19 81 206 142 36 11 9
17 20 79 200 138 34 10 11
17 20 77 192 132 32 10 11
16 20 75 184 126 30 10 10
15 20 72 176 119 28 9 9
14 20 70 168 113 26 9 8
13 19 67 158 106 24 8 7
13 19 64 148 99 22 8 7
12 19 60 137 91 19 7 7
12 18 56 126 84 16 6 7
11 18 52 114 75 13 5 7
10 17 48 103 67 10 4 8
9 16 46 95 61 8 3 6
7 15 43 87 55 6 2 4
6 13 40 77 48 3 0 2
4 12 37 69 42 1 -2 0
2 10 34 60 34 -3 -4 -4
2 9 32 54 29 -5 -5 -4
2 8 29 47 24 -7 -6 -4
1 6 26 39 19 -9 -7 -4
1 5 23 32 14 -11 -8 -4
0 3 20 25 9 -14 -10 -4
0 2 19 22 6 -15 -11 -5
0 1 18 18 3 -16 -12 -7
0 0 17 15 -2 -18 -13 -8
0 -2 16 11 -5 -19 -14 -10
-2 -4 14 7 -9 -21 -15 -12
-2 -5 13 5 -11 -22 -15 -12
-3 -6 12 2 -13 -23 -16 -12
-4 -7 10 -2 -14 -23 -17 -12
-5 -8 9 -5 -16 -24 -18 -12
-5 -9 8 -7 -18 -25 -18 -12
-6 -10 7 -8 -20 -26 -19 -13
-6 -10 7 -9 -21 -26 -19 -14
-6 -10 7 -9 -22 -27 -20 -15
-6 -10 7 -10 -23 -27 -20 -16
-6 -10 7 -10 -24 -27 -20 -17
-6 -11 6 -11 -25 -28 -21 -18
-7 -11 6 -12 -25 -28 -21 -17
-7 -11 6 -13 -25 -28 -21 -16
-8 -11 6 -14 -25 -28 -21 -15
-8 -11 6 -14 -25 -28 -21 -14
-9 -11 5 -15 -26 -29 -21 -14
-9 -11 5 -15 -26 -30 -22 -15
-9 -12 4 -15 -27 -31 -22 -16
-9 -12 4 -15 -27 -32 -23 -17
-9 -12 4 -15 -27 -32 -23 -18
-8 -13 3 -15 -28 -33 -24 -19
-8 -13 3 -15 -28 -33 -24 -18
-8 -13 2 -15 -28 -33 -24 -17
-8 -13 2 -15 -28 -33 -24 -16
-8 -13 2 -15 -28 -33 -24 -16
-8 -12 1 -16 -29 -34 -23 -15
-8 -12 1 -15 -29 -34 -23 -16
-8 -12 2 -15 -29 -34 -23 -16
-8 -12 2 -14 -29 -34 -23 -17
-8 -12 2 -14 -29 -34 -23 -17
-9 -13 3 -13 -28 -33 -22 -18
-9 -12 3 -13 -28 -33 -22 -18
-9 -12 2 -13 -28 -33 -22 -17
-9 -11 2 -13 -28 -33 -22 -17
-9 -11 2 -13 -28 -33 -22 -17
-8 -10 1 -14 -27 -32 -22 -16
-8 -10 2 -14 -26 -31 -22 -16
-9 -10 2 -13 -25 -30 -22 -16
-9 -10 3 -13 -24 -29 -22 -16
-9 -10 3 -13 -24 -29 -22 -16
-10 -11 4 -12 -23 -28 -21 -16
-9 -11 3 -12 -23 -28 -21 -16
-9 -11 2 -13 -23 -28 -21 -15
-8 -11 1 -13 -23 -28 -21 -15
-8 -11 1 -13 -23 -28 -21 -15
-7 -11 0 -14 -24 -29 -21 -14
-7 -10 0 -14 -24 -29 -21 -15
-7 -10 0 -13 -24 -29 -21 -16
-7 -9 0 -13 -24 -29 -21 -17
-7 -9 0 -13 -24 -29 -21 -17
-8 -8 0 -12 -24 -28 -22 -17
-8 -9 0 -13 -24 -28 -21 -15
-8 -9 0 -13 -24 -28 -21 -13
-8 -10 0 -14 -24 -28 -20 -11
-8 -10 0 -14 -24 -28 -20 -10
-8 -10 -2 -15 -24 -28 -19 -9
-7 -9 -2 -14 -24 -27 -19 -10
-6 -8 0 -14 -23 -27 -19 -11
-5 -7 0 -13 -23 -26 -19 -12
-4 -6 0 -13 -23 -26 -19 -12
-3 -5 1 -12 -22 -25 -18 -13
-4 -6 1 -12 -22 -25 -18 -13
-4 -6 0 -13 -22 -25 -18 -13
-5 -7 0 -13 -22 -25 -18 -13
-5 -7 0 -13 -22 -25 -18 -13
-6 -8 -2 -14 -23 -25 -18 -12
-6 -8 -2 -14 -24 -25 -18 -13
-6 -8 -3 -15 -24 -25 -19 -14
-6 -8 -3 -15 -25 -25 -19 -15
-6 -8 -3 -15 -25 -25 -19 -16
-5 -8 -4 -16 -26 -26 -20 -16
-5 -8 -4 -16 -26 -26 -20 -15
-5 -8 -4 -16 -26 -26 -20 -14
-5 -8 -4 -16 -26 -26 -20 -13
-5 -8 -4 -16 -26 -26 -20 -12
-6 -8 -5 -17 -25 -27 -19 -11
-5 -8 -5 -16 -26 -27 -19 -12
-5 -8 -5 -16 -26 -27 -20 -13
-4 -8 -5 -15 -27 -27 -20 -14
-4 -8 -5 -15 -27 -27 -20 -14
-4 -7 -5 -14 -28 -27 -21 -15
-5 -7 -5 -15 -28 -27 -21 -15
-7 -8 -5 -16 -28 -28 -21 -14
-8 -8 -5 -17 -28 -28 -21 -14
-9 -8 -5 -18 -28 -28 -21 -14
-9 -9 -5 -19 -27 -29 -20 -13
-8 -9 -5 -19 -27 -29 -20 -14
-7 -8 -5 -19 -27 -29 -20 -14
-6 -8 -5 -19 -27 -29 -20 -15
-5 -8 -5 -19 -27 -29 -20 -15
-4 -7 -6 -18 -28 -29 -21 -16
-5 -7 -6 -19 -28 -29 -21 -16
-6 -8 -6 -19 -28 -29 -21 -15
-7 -8 -6 -20 -28 -29 -21 -15
-8 -8 -6 -20 -28 -29 -21 -15
-9 -9 -7 -21 -28 -30 -20 -14
-9 -9 -7 -20 -28 -30 -20 -14
-8 -9 -6 -19 -28 -30 -20 -14
-8 -9 -6 -18 -28 -30 -20 -14
-8 -9 -6 -17 -28 -30 -20 -14
-6 -7 -5 -16 -28 -31 -21 -14
-4 -5 -4 -16 -27 -30 -20 -13
-3 -3 -3 -16 -26 -29 -19 -12
0 0 -2 -16 -25 -28 -18 -11
1 1 -2 -16 -24 -28 -18 -11
2 3 1 -15 -23 -27 -17 -10
1 4 3 -14 -22 -27 -17 -11
0 5 4 -13 -22 -27 -17 -11
-2 6 6 -12 -21 -27 -17 -12
-3 7 7 -11 -21 -27 -17 -12
-4 8 7 -10 -20 -28 -18 -13
-3 7 6 -10 -20 -28 -18 -12
-3 6 5 -10 -20 -27 -18 -11
-2 5 4 -10 -20 -27 -18 -10
-2 4 3 -10 -20 -27 -18 -10
0 4 1 -11 -21 -26 -17 -9
1 5 -2 -11 -20 -25 -16 -9
2 6 -4 -12 -20 -24 -15 -9
3 7 -6 -12 -19 -23 -14 -9
4 8 -7 -12 -19 -23 -14 -9
6 8 -8 -13 -18 -22 -13 -9
7 6 -9 -14 -19 -23 -13 -8
8 5 -10 -14 -20 -23 -13 -8
9 3 -11 -15 -21 -24 -13 -7
10 2 -11 -15 -21 -24 -13 -7
11 0 -12 -17 -23 -26 -14 -6
10 -3 -13 -18 -26 -28 -15 -7
9 -5 -13 -20 -28 -29 -15 -8
8 -7 -14 -21 -30 -31 -16 -9
7 -9 -14 -22 -32 -32 -16 -10
5 -10 -15 -23 -33 -33 -17 -11
4 -10 -15 -23 -33 -34 -18 -11
2 -10 -15 -24 -33 -34 -19 -11
1 -10 -15 -24 -33 -35 -20 -11
0 -10 -15 -24 -33 -35 -20 -11
-3 -11 -14 -25 -34 -36 -21 -11
-4 -12 -13 -25 -34 -37 -22 -12
-6 -13 -13 -25 -34 -37 -23 -14
-7 -14 -12 -25 -34 -38 -24 -15
-8 -15 -12 -25 -34 -38 -25 -16
-9 -16 -11 -24 -35 -39 -26 -17
-9 -16 -11 -24 -35 -40 -26 -17
-9 -17 -11 -25 -36 -40 -26 -17
-9 -17 -11 -25 -36 -41 -26 -17
-9 -17 -11 -25 -36 -41 -26 -17
-9 -18 -10 -26 -37 -43 -27 -16
-10 -18 -10 -26 -37 -43 -27 -17
-10 -18 -9 -25 -37 -43 -27 -17
-11 -18 -9 -25 -37 -43 -27 -18
-11 -18 -9 -25 -37 -43 -27 -18
-12 -18 -8 -24 -37 -44 -28 -19
-12 -18 -8 -24 -37 -44 -28 -18
-12 -18 -8 -24 -37 -44 -28 -17
-12 -18 -8 -24 -37 -44 -28 -16
-12 -18 -8 -24 -37 -44 -28 -15
-13 -18 -7 -25 -38 -44 -27 -14
-12 -18 -7 -25 -38 -44 -28 -15
-12 -18 -7 -25 -38 -45 -28 -16
-11 -18 -7 -25 -38 -45 -29 -17
-11 -18 -7 -25 -38 -45 -29 -18
-10 -17 -7 -24 -38 -46 -30 -19
-10 -17 -7 -24 -38 -46 -29 -18
-10 -17 -7 -23 -37 -46 -28 -18
-10 -17 -7 -23 -37 -46 -27 -17
-10 -17 -7 -23 -37 -46 -27 -17
-10 -17 -7 -22 -36 -45 -26 -16
-10 -17 -7 -22 -35 -45 -26 -17
-10 -17 -6 -21 -34 -44 -26 -17
-10 -17 -6 -21 -33 -44 -26 -18
-10 -17 -6 -21 -33 -44 -26 -18
-11 -16 -2 -13 -27 -43 -27 -19
-11 -15 3 -4 -22 -43 -27 -19
-10 -15 7 6 -16 -43 -27 -18
-10 -14 11 15 -10 -43 -27 -18
-10 -14 15 24 -4 -43 -27 -18
-6 -12 17 28 10 -30 -21 -16
0 -10 20 30 25 -15 -14 -13
4 -8 22 33 40 1 -7 -11
8 -6 24 36 56 16 1 -9
13 -4 26 38 71 31 8 -7
26 17 -11 -31 61 77 43 15
39 39 -55 -115 46 129 82 40
54 62 -99 -198 30 180 122 65
68 86 -144 -281 14 230 163 91
82 108 -188 -365 -2 281 203 115
90 138 -236 -421 -15 338 247 143
96 168 -284 -471 -28 395 293 172
102 197 -332 -522 -40 452 337 199
108 228 -381 -572 -54 509 382 228
114 258 -429 -623 -67 566 427 256
99 231 -408 -599 -81 509 388 235
78 192 -376 -560 -97 430 332 204
59 154 -342 -521 -112 351 278 174
38 116 -308 -482 -128 272 223 142
19 77 -274 -442 -143 192 169 111
8 57 -244 -402 -156 133 127 87
-3 40 -216 -362 -169 75 88 62
-12 23 -187 -322 -181 18 49 38
-22 6 -159 -282 -193 -38 10 15
-31 -12 -131 -242 -205 -96 -29 -10
-30 -14 -111 -206 -181 -94 -33 -13
-25 -11 -94 -172 -149 -79 -29 -11
-20 -9 -76 -136 -117 -65 -25 -9
-16 -7 -59 -101 -86 -51 -20 -8
-11 -5 -41 -66 -55 -36 -16 -6
-10 -5 -32 -52 -46 -33 -15 -6
-10 -6 -25 -41 -40 -34 -16 -8
-9 -7 -18 -31 -36 -35 -17 -10
-9 -9 -10 -21 -32 -36 -18 -12
-9 -10 -3 -11 -27 -36 -18 -14
-8 -11 1 -7 -26 -37 -19 -15
-8 -11 2 -4 -24 -37 -19 -14
-8 -12 4 0 -23 -37 -20 -13
-8 -12 6 3 -22 -37 -20 -12
-8 -12 7 6 -21 -37 -20 -12
-9 -13 8 8 -19 -38 -21 -11
-9 -13 10 11 -18 -38 -21 -12
-8 -14 11 13 -17 -38 -22 -13
-8 -14 12 16 -15 -38 -22 -14
-8 -14 13 18 -14 -38 -22 -15
-7 -15 14 19 -13 -38 -23 -15
-7 -15 15 20 -11 -37 -22 -14
-6 -15 15 21 -10 -36 -21 -13
-6 -15 16 22 -9 -35 -20 -11
-6 -15 16 23 -8 -34 -20 -10
-5 -15 17 25 -7 -33 -19 -9
-5 -15 18 27 -5 -32 -19 -10
-5 -14 19 29 -4 -32 -18 -10
-5 -14 20 31 -3 -31 -18 -11
-5 -14 20 33 -2 -31 -18 -11
-5 -13 21 34 0 -30 -17 -12
-4 -13 21 34 0 -30 -17 -11
-4 -13 21 34 1 -30 -17 -10
-3 -13 21 34 1 -30 -17 -9
-3 -13 21 34 1 -30 -17 -9
-2 -14 21 36 3 -29 -17 -8
0 -13 22 39 4 -29 -17 -8
0 -13 23 42 6 -28 -16 -9
1 -12 24 45 8 -28 -16 -9
1 -12 25 47 9 -28 -16 -9
2 -11 26 49 11 -26 -15 -10
2 -11 27 51 13 -25 -14 -8
2 -11 28 53 15 -23 -13 -7
2 -11 29 54 16 -21 -12 -6
2 -11 30 56 18 -20 -11 -5
1 -10 31 59 20 -19 -10 -4
1 -10 31 61 22 -19 -10 -5
1 -10 32 64 24 -18 -10 -6
1 -10 32 66 26 -18 -10 -7
1 -10 32 69 28 -18 -10 -7
2 -11 33 72 30 -16 -10 -8
2 -10 34 75 33 -14 -9 -7
3 -9 35 77 35 -12 -9 -7
3 -8 36 80 38 -10 -8 -6
3 -8 36 84 40 -8 -8 -6
4 -7 38 88 44 -7 -7 -5
4 -7 39 92 47 -5 -6 -5
5 -6 40 96 50 -4 -5 -5
5 -6 43 100 53 -3 -4 -5
5 -6 44 104 56 -2 -4 -5
6 -5 45 108 59 1 -3 -4
7 -4 46 112 63 2 -2 -3
7 -4 47 116 66 4 0 -3
8 -3 48 120 69 6 1 -2
8 -3 49 125 73 7 1 -2
9 -2 51 130 76 10 2 0
10 -2 53 136 80 12 3 0
11 0 55 141 85 15 4 -2
12 0 56 147 88 17 5 -2
12 0 58 152 92 20 6 -2
13 1 60 158 95 23 7 -3
13 1 61 163 99 25 8 -2
13 1 63 170 103 28 9 0
13 1 65 175 106 30 10 1
13 1 66 180 110 33 10 2
12 2 68 185 113 35 11 3
13 3 70 190 116 36 12 3
14 4 72 195 119 38 12 3
15 5 74 200 123 40 13 3
15 6 76 205 127 42 13 3
16 8 78 210 129 43 14 3
17 9 79 213 131 44 14 4
17 10 80 216 132 45 15 5
18 12 82 219 134 46 15 7
18 13 84 222 136 47 15 8
19 14 85 224 137 48 16 9
18 15 86 225 138 48 17 9
18 15 87 227 138 48 18 8
17 16 88 229 139 48 19 8
17 16 89 230 139 48 19 8
16 17 90 230 139 47 20 8
16 17 90 228 137 45 20 9
17 17 89 225 134 44 20 10
17 17 89 223 132 43 20 12
17 17 89 221 130 42 20 13
18 18 87 216 126 39 19 14
18 19 85 210 121 36 18 12
18 19 82 203 117 33 17 11
18 20 80 198 113 31 16 10
18 20 78 192 108 28 15 9
17 21 75 183 102 26 14 8
17 21 72 173 96 24 14 10
16 21 69 162 89 22 14 11
16 21 65 152 82 20 14 12
16 21 62 142 75 18 14 13
14 22 59 133 68 16 15 13
13 21 57 122 62 13 13 11
12 20 54 113 55 11 12 9
10 19 51 104 48 8 11 7
9 18 48 95 40 6 10 5
8 16 46 87 34 4 9 4
7 15 43 78 29 2 7 4
6 13 39 71 24 1 6 4
5 11 37 63 18 -2 5 4
5 10 34 55 13 -4 4 4
4 9 32 50 9 -5 3 2
3 8 31 45 5 -3 1 0
2 7 29 39 1 -2 0 -2
2 6 28 35 -4 0 -2 -4
1 5 26 30 -8 1 -3 -6
0 4 24 26 -12 2 -4 -7
0 2 23 23 -14 1 -5 -7
-2 1 21 19 -17 0 -6 -7
-2 0 20 16 -20 0 -6 -7
-2 -2 18 12 -23 -2 -7 -7
-3 -3 17 10 -25 -3 -8 -8
-3 -4 16 9 -27 -4 -9 -9
-3 -4 15 8 -28 -5 -10 -10
-3 -5 15 6 -30 -6 -11 -12
-3 -5 14 5 -32 -7 -12 -13
-4 -6 13 4 -33 -8 -13 -14
-4 -6 12 3 -34 -9 -13 -14
-4 -6 12 2 -35 -10 -13 -13
-4 -6 11 1 -36 -10 -13 -13
-4 -6 11 0 -37 -11 -13 -13
-3 -6 10 -2 -38 -12 -13 -12
-4 -7 10 0 -38 -12 -13 -13
-4 -8 10 0 -39 -13 -14 -14
-5 -8 10 1 -39 -13 -14 -14
-5 -9 10 1 -39 -13 -14 -15
-6 -10 10 2 -40 -14 -15 -16
-7 -11 10 2 -40 -14 -14 -15
-7 -11 10 2 -40 -14 -14 -15
-8 -12 10 2 -40 -14 -13 -14
-8 -12 10 2 -40 -14 -13 -14
-9 -13 11 1 -40 -13 -12 -13
-9 -13 11 1 -40 -13 -13 -14
-9 -13 10 1 -40 -13 -14 -15
-9 -13 10 1 -40 -13 -14 -15
-9 -13 10 1 -40 -13 -15 -16
-10 -13 9 2 -40 -14 -16 -17
-8 -11 9 2 -40 -14 -16 -17
-7 -10 9 3 -40 -14 -16 -16
-6 -9 9 3 -40 -14 -16 -16
-5 -8 9 3 -40 -14 -16 -16
-4 -7 9 4 -40 -13 -15 -15
-4 -8 9 4 -40 -13 -15 -17
-4 -8 8 4 -40 -13 -15 -18
-4 -9 8 4 -40 -13 -15 -19
-4 -9 8 4 -40 -13 -15 -20
-4 -10 7 5 -41 -14 -16 -21
-4 -9 7 5 -40 -14 -16 -20
-4 -9 7 5 -40 -13 -15 -20
-4 -8 7 5 -39 -13 -15 -19
-4 -8 7 5 -39 -13 -15 -19
-4 -7 8 5 -37 -12 -14 -18
-4 -7 8 5 -34 -12 -14 -19
-4 -7 7 5 -31 -12 -13 -19
-4 -7 7 5 -28 -12 -13 -20
-4 -7 7 5 -25 -12 -13 -20
-4 -7 6 4 -24 -12 -12 -21
-3 -7 6 4 -22 -12 -12 -21
-3 -7 6 4 -21 -12 -13 -20
-2 -7 6 4 -19 -12 -13 -20
-2 -7 6 4 -18 -12 -13 -20
0 -7 6 5 -17 -11 -14 -19
0 -7 6 5 -17 -11 -14 -19
0 -7 6 5 -17 -11 -14 -19
0 -7 6 5 -17 -11 -14 -19
0 -7 6 5 -17 -11 -14 -19
-2 -6 6 4 -16 -10 -13 -20
-2 -6 6 4 -16 -10 -12 -19
-3 -6 6 3 -16 -10 -11 -18
-3 -6 6 3 -16 -10 -11 -18
-3 -6 6 3 -16 -10 -10 -17
-4 -6 5 2 -16 -9 -9 -16
-4 -6 5 2 -16 -9 -9 -17
-5 -6 5 2 -15 -9 -10 -17
-5 -6 5 2 -15 -9 -10 -18
-5 -6 5 2 -15 -9 -10 -18
-6 -7 5 1 -14 -9 -11 -19
-6 -7 5 0 -14 -9 -10 -18
-6 -7 5 0 -15 -9 -10 -17
-6 -7 5 -2 -15 -9 -9 -16
-6 -7 5 -2 -15 -9 -9 -15
-7 -7 4 -3 -16 -9 -8 -14
-6 -8 4 -4 -16 -10 -9 -15
-6 -8 4 -4 -17 -11 -9 -16
-5 -9 4 -5 -17 -11 -10 -16
-5 -9 4 -5 -17 -12 -10 -17
-4 -10 3 -6 -18 -13 -11 -18
-4 -10 3 -6 -18 -13 -11 -17
-3 -10 3 -7 -18 -13 -10 -16
-3 -10 3 -7 -18 -13 -10 -16
-3 -10 3 -7 -18 -13 -10 -15
-2 -10 3 -8 -19 -14 -9 -14
-2 -10 3 -8 -19 -15 -10 -15
-2 -10 3 -8 -20 -15 -10 -16
-2 -10 3 -8 -20 -16 -11 -17
-2 -10 3 -8 -20 -16 -11 -18
-2 -10 3 -8 -21 -17 -12 -19
-2 -10 3 -8 -21 -17 -12 -18
-2 -10 3 -8 -21 -18 -12 -17
-2 -10 3 -8 -21 -18 -12 -17
-2 -10 3 -8 -21 -18 -12 -16
-2 -11 2 -8 -22 -19 -12 -15
-2 -11 2 -8 -22 -19 -12 -16
-2 -10 2 -8 -22 -20 -13 -16
-2 -10 2 -8 -22 -20 -13 -17
-2 -10 2 -8 -22 -20 -13 -17
-3 -8 3 -9 -23 -21 -14 -18
-2 -6 3 -9 -23 -21 -13 -17
1 -4 4 -8 -22 -20 -12 -15
2 -2 5 -8 -22 -19 -12 -14
3 1 5 -8 -22 -19 -11 -13
4 2 6 -7 -21 -18 -10 -12
3 2 7 -5 -19 -18 -10 -12
2 3 9 -4 -18 -18 -10 -12
2 3 10 -2 -16 -18 -10 -12
1 3 11 0 -15 -18 -10 -12
0 4 12 1 -14 -18 -10 -12
1 4 13 1 -14 -18 -10 -11
2 3 14 2 -14 -17 -9 -9
2 3 15 3 -14 -16 -9 -8
3 3 16 3 -14 -16 -9 -7
4 2 16 4 -13 -15 -8 -6
4 2 13 3 -13 -15 -8 -6
5 2 11 1 -13 -16 -8 -6
6 2 8 0 -13 -16 -8 -6
6 2 5 -2 -13 -16 -8 -6
7 1 3 -3 -13 -17 -8 -6
7 1 2 -3 -13 -17 -7 -4
8 1 0 -3 -13 -16 -6 -3
9 1 -2 -3 -13 -16 -6 0
9 1 -4 -3 -13 -16 -5 1
10 1 -5 -4 -14 -16 -5 1
10 -2 -6 -5 -17 -19 -6 0
10 -4 -7 -7 -20 -22 -8 -3
10 -7 -7 -9 -23 -25 -10 -5
10 -9 -8 -11 -26 -28 -12 -7
8 -10 -9 -12 -28 -30 -13 -8
6 -10 -9 -13 -28 -30 -13 -7
4 -11 -9 -14 -29 -31 -13 -6
1 -11 -9 -15 -30 -31 -13 -6
-2 -11 -9 -16 -30 -31 -13 -5
-3 -12 -8 -17 -31 -32 -13 -5
-3 -12 -8 -17 -31 -33 -15 -7
-4 -12 -8 -17 -32 -35 -16 -9
-4 -12 -8 -17 -32 -36 -18 -11
-4 -12 -8 -17 -32 -37 -19 -13
-5 -13 -7 -17 -33 -38 -20 -14
-5 -13 -7 -17 -34 -39 -21 -14
-5 -14 -7 -18 -36 -40 -22 -15
-5 -15 -7 -18 -37 -41 -23 -16
-5 -15 -7 -18 -38 -43 -24 -16
-6 -16 -7 -19 -39 -44 -25 -17
-6 -16 -7 -19 -39 -44 -25 -17
-6 -17 -7 -19 -38 -44 -25 -18
-6 -18 -7 -19 -38 -44 -25 -19
-6 -18 -7 -19 -38 -44 -25 -19
-7 -19 -6 -20 -37 -43 -26 -20
-8 -19 -6 -20 -37 -43 -26 -20
-9 -19 -6 -20 -37 -44 -26 -19
-10 -19 -6 -20 -37 -44 -26 -18
-11 -19 -6 -20 -37 -44 -26 -18
-12 -20 -6 -20 -38 -45 -26 -17
-12 -20 -6 -20 -38 -45 -26 -18
-11 -20 -6 -20 -38 -46 -27 -19
-11 -20 -6 -20 -38 -46 -27 -20
-11 -20 -6 -20 -38 -46 -27 -21
-10 -21 -7 -20 -39 -47 -28 -22
-10 -21 -7 -20 -39 -47 -28 -21
-10 -21 -7 -20 -38 -47 -28 -20
-10 -21 -7 -20 -38 -47 -28 -19
-10 -21 -7 -20 -38 -47 -28 -18
-10 -20 -6 -19 -37 -47 -27 -17
-10 -20 -6 -19 -37 -47 -27 -17
-10 -19 -6 -18 -37 -47 -28 -18
-10 -19 -6 -18 -37 -47 -28 -18
-10 -19 -6 -18 -37 -47 -28 -18
-10 -18 -5 -16 -35 -47 -29 -19
-10 -18 -3 -13 -32 -46 -29 -19
-9 -17 0 -10 -29 -45 -29 -19
-9 -17 2 -7 -26 -45 -29 -19
-9 -17 5 -5 -24 -44 -29 -19
-7 -16 9 8 -13 -38 -28 -20
-5 -16 16 26 4 -31 -27 -20
-3 -15 23 44 20 -23 -25 -19
0 -14 29 62 35 -16 -23 -19
2 -14 36 79 52 -8 -21 -19
9 -7 25 52 58 17 -4 -9
19 5 0 -8 55 54 24 7
30 16 -26 -67 52 92 52 22
42 27 -52 -128 49 129 79 37
52 38 -77 -187 46 165 107 53
64 65 -119 -253 33 223 151 79
76 102 -174 -322 16 294 207 114
89 139 -228 -391 -2 364 264 148
101 177 -281 -461 -19 435 319 183
114 214 -336 -530 -36 505 376 217
112 223 -357 -557 -49 516 390 227
99 211 -356 -552 -58 483 375 219
86 198 -354 -547 -67 450 359 212
73 186 -352 -541 -76 418 343 203
60 174 -350 -536 -86 386 327 196
45 148 -326 -506 -106 315 280 170
27 113 -287 -458 -135 218 213 131
10 77 -247 -411 -163 121 145 93
-8 42 -208 -364 -192 24 76 54
-25 7 -169 -317 -221 -72 9 15
-31 -10 -142 -275 -216 -106 -21 -3
-28 -11 -124 -236 -186 -93 -24 -6
-25 -13 -107 -198 -156 -78 -27 -9
-22 -15 -89 -160 -126 -65 -30 -12
-19 -17 -71 -121 -96 -52 -32 -15
-17 -18 -57 -96 -76 -45 -33 -17
-15 -17 -46 -78 -65 -41 -30 -17
-13 -16 -35 -61 -55 -38 -28 -18
-12 -15 -24 -44 -44 -35 -25 -19
-10 -14 -13 -26 -32 -32 -23 -19
-9 -13 -7 -16 -27 -30 -21 -20
-9 -14 -4 -12 -25 -31 -22 -20
-8 -15 0 -7 -24 -32 -23 -19
-7 -15 3 -3 -22 -32 -24 -19
-7 -16 5 3 -21 -33 -25 -19
-6 -17 7 6 -19 -34 -26 -18
-6 -17 8 8 -18 -34 -26 -18
-6 -17 9 10 -16 -34 -27 -19
-6 -17 10 12 -14 -34 -27 -19
-6 -17 11 14 -12 -34 -27 -19
-5 -17 12 16 -11 -33 -28 -20
-5 -17 12 17 -10 -33 -28 -20
-5 -18 13 19 -9 -32 -27 -20
-5 -18 14 21 -9 -31 -26 -20
-5 -18 14 23 -8 -31 -26 -20
-5 -19 15 24 -7 -30 -25 -20
-5 -19 15 26 -5 -29 -25 -20
-5 -18 16 27 -3 -27 -25 -20
-5 -18 17 28 -2 -26 -25 -20
-5 -18 17 30 1 -25 -25 -20
-5 -17 18 31 2 -24 -24 -19
-5 -17 19 32 3 -23 -23 -18
-5 -17 20 34 5 -22 -22 -17
-5 -17 20 35 6 -21 -21 -17
-5 -17 21 36 7 -20 -20 -16
-4 -17 22 37 8 -19 -19 -15
-4 -17 22 38 10 -18 -19 -16
-4 -17 22 39 11 -17 -19 -17
-4 -17 22 39 12 -17 -19 -17
-4 -17 22 40 14 -16 -19 -18
-5 -18 22 43 15 -15 -19 -19
-5 -17 24 45 17 -14 -18 -17
-5 -16 25 48 18 -13 -17 -15
-5 -15 26 50 19 -12 -17 -14
-5 -14 28 52 21 -11 -16 -12
-6 -13 29 54 23 -10 -15 -11
-6 -13 29 56 25 -9 -15 -12
-6 -14 29 58 27 -8 -16 -14
-6 -14 29 59 29 -7 -16 -15
-6 -14 29 61 32 -6 -16 -16
-5 -15 28 63 34 -5 -17 -17
-5 -14 30 66 37 -3 -16 -16
-4 -12 32 70 40 0 -14 -14
-3 -11 33 73 43 2 -13 -13
-3 -10 35 76 46 4 -12 -12
-2 -9 36 79 49 5 -11 -11
-2 -9 36 82 52 7 -11 -11
0 -9 37 86 54 9 -10 -12
1 -9 37 89 57 10 -9 -12
1 -9 37 92 59 12 -9 -12
2 -10 38 96 62 13 -8 -13
3 -10 40 100 65 15 -8 -12
4 -10 43 104 69 17 -7 -11
4 -10 44 108 72 18 -6 -10
5 -10 46 113 75 20 -6 -9
6 -9 47 117 79 22 -5 -8
6 -8 49 122 84 24 -5 -9
6 -7 50 127 88 26 -4 -10
6 -6 51 132 92 28 -3 -10
6 -5 53 136 96 30 -3 -11
6 -4 54 141 100 33 -2 -12
8 -3 56 146 103 35 0 -11
10 -2 58 152 107 38 1 -10
11 0 60 157 111 40 2 -10
13 1 62 162 115 43 3 -9
14 2 63 168 118 45 4 -8
14 2 64 172 122 46 4 -8
13 2 66 176 126 48 5 -8
12 2 67 180 129 49 6 -8
12 2 68 184 133 50 6 -8
11 4 69 188 136 51 7 -7
12 6 71 192 138 52 7 -5
13 8 73 196 141 53 8 -4
14 10 75 199 144 54 9 -3
15 12 77 203 146 55 9 0
16 13 78 205 148 56 10 1
16 13 79 207 149 56 10 1
16 14 80 210 150 56 10 0
16 14 80 211 150 56 10 0
16 14 81 213 151 56 10 0
15 15 82 214 152 56 11 -2
16 15 82 214 151 55 11 0
17 16 82 213 150 54 11 1
18 16 82 213 150 54 11 1
19 16 82 213 149 53 11 2
19 17 84 210 147 52 10 3
17 17 82 204 144 50 10 3
15 17 81 199 141 48 11 2
13 17 81 195 138 46 11 1
11 17 80 190 135 44 11 1
10 18 78 183 130 42 12 0
10 18 76 175 123 38 11 1
10 19 74 167 117 35 10 2
10 20 72 158 111 33 9 2
10 20 70 150 105 30 8 3
10 21 67 141 99 27 7 4
10 20 63 132 93 25 7 3
9 19 60 122 87 23 6 2
8 17 56 113 79 21 5 0
8 16 52 104 73 19 5 -2
7 15 49 96 67 16 4 -3
7 14 47 88 61 14 2 -3
6 13 45 79 55 12 1 -4
5 11 43 71 49 10 -2 -5
5 10 40 63 43 8 -4 -5
4 9 38 57 37 6 -5 -6
3 7 36 51 32 4 -6 -7
2 5 34 45 28 2 -6 -8
0 3 32 38 23 0 -7 -10
-2 1 30 32 18 -3 -8 -11
-3 0 28 28 14 -5 -9 -12
-3 0 27 25 11 -7 -10 -13
-4 0 26 22 9 -8 -11 -13
-5 0 25 18 6 -9 -12 -14
-5 0 24 15 3 -11 -13 -15
-6 -2 23 13 1 -12 -14 -16
-6 -3 22 11 -2 -13 -15 -16
-7 -4 21 9 -4 -13 -16 -16
-8 -5 20 7 -6 -14 -18 -17
-8 -6 19 5 -8 -15 -19 -17
-9 -7 18 3 -9 -16 -20 -18
-9 -8 18 2 -10 -17 -20 -17
-9 -8 17 1 -11 -18 -20 -16
-9 -9 16 -2 -13 -20 -21 -15
-9 -10 16 -3 -14 -21 -21 -14
-10 -11 15 -4 -15 -22 -22 -13
-10 -11 15 -4 -16 -23 -23 -14
-10 -12 14 -4 -17 -23 -24 -14
-10 -13 13 -5 -18 -24 -25 -15
-10 -13 13 -5 -19 -25 -26 -16
-11 -14 12 -6 -20 -26 -27 -17
-11 -14 12 -5 -19 -26 -27 -16
-11 -13 13 -5 -19 -26 -26 -16
-11 -12 14 -4 -18 -26 -25 -15
-11 -12 14 -3 -17 -26 -25 -14
-10 -11 15 -2 -16 -26 -24 -13
-10 -11 15 -2 -16 -27 -25 -14
-10 -11 15 -2 -17 -28 -25 -15
-9 -11 14 -3 -18 -29 -26 -16
-9 -11 14 -3 -18 -30 -27 -17
-8 -12 13 -4 -19 -31 -28 -18
-9 -12 13 -3 -18 -30 -27 -17
-9 -12 13 -3 -17 -30 -27 -16
-10 -12 14 -2 -16 -29 -26 -15
-11 -12 14 0 -15 -28 -25 -14
-12 -13 15 1 -14 -27 -24 -13
-12 -13 15 1 -14 -27 -24 -13
-12 -13 15 1 -14 -27 -24 -14
-12 -12 14 1 -14 -27 -24 -15
-12 -12 14 1 -14 -27 -24 -15
-12 -11 13 1 -13 -27 -25 -16
-12 -11 13 1 -13 -27 -25 -16
-11 -11 13 1 -13 -27 -25 -15
-10 -11 13 1 -13 -27 -25 -14
-10 -11 13 1 -13 -27 -25 -14
-9 -10 13 1 -12 -27 -26 -13
-9 -10 13 1 -12 -26 -25 -13
-9 -10 13 1 -11 -25 -25 -13
-10 -10 13 1 -10 -24 -24 -13
-10 -10 13 1 -10 -23 -23 -13
-11 -10 14 1 -9 -22 -22 -14
-11 -10 14 1 -9 -22 -22 -14
-11 -10 14 1 -9 -22 -22 -14
-11 -9 13 1 -9 -22 -22 -14
-11 -9 13 1 -9 -22 -22 -14
-11 -8 12 1 -10 -22 -22 -13
-10 -8 12 1 -10 -22 -22 -14
-10 -8 12 1 -10 -22 -22 -14
-9 -8 11 0 -10 -22 -22 -15
-8 -8 11 0 -10 -22 -22 -16
-7 -9 10 -2 -10 -22 -22 -17
-7 -9 10 -2 -10 -22 -22 -15
-7 -9 10 -2 -10 -22 -21 -14
-7 -8 10 -3 -9 -22 -20 -13
-7 -8 10 -3 -9 -22 -20 -11
-8 -7 10 -4 -8 -22 -19 -10
-8 -7 10 -4 -8 -22 -19 -10
-8 -7 10 -4 -9 -22 -19 -10
-7 -7 9 -5 -10 -22 -19 -10
-7 -7 9 -5 -10 -22 -19 -10
-6 -8 8 -6 -11 -23 -19 -11
-6 -8 8 -7 -11 -24 -19 -11
-6 -8 8 -8 -12 -24 -19 -11
-6 -8 8 -9 -13 -25 -19 -10
-6 -8 8 -10 -13 -26 -19 -10
-7 -9 8 -11 -14 -27 -19 -9
-7 -9 8 -11 -14 -28 -19 -10
-7 -9 8 -11 -14 -28 -19 -11
-7 -9 8 -11 -15 -29 -20 -13
-7 -9 8 -11 -15 -30 -20 -14
-6 -9 7 -12 -16 -31 -21 -15
-6 -9 7 -12 -16 -32 -21 -14
-6 -9 7 -12 -16 -32 -21 -13
-6 -9 7 -12 -16 -33 -21 -11
-6 -9 7 -12 -16 -34 -21 -10
-6 -10 7 -12 -17 -35 -20 -9
-6 -10 7 -12 -17 -35 -20 -10
-6 -10 7 -12 -17 -35 -20 -10
-7 -10 7 -12 -17 -35 -20 -11
-7 -10 7 -12 -17 -35 -20 -12
-8 -11 7 -13 -18 -35 -20 -13
-8 -11 7 -13 -18 -35 -20 -12
-8 -11 7 -14 -18 -35 -20 -11
-8 -11 6 -15 -19 -35 -20 -10
-8 -11 6 -15 -19 -35 -20 -9
-8 -12 5 -16 -20 -36 -20 -8
-8 -11 5 -16 -20 -36 -20 -9
-8 -11 5 -16 -21 -36 -21 -9
-8 -10 5 -16 -22 -37 -22 -10
-8 -9 5 -16 -22 -37 -22 -11
-7 -8 4 -16 -23 -38 -23 -12
-6 -8 4 -16 -23 -38 -23 -12
-5 -8 4 -15 -23 -38 -22 -12
-4 -8 4 -14 -22 -38 -21 -11
-3 -8 4 -14 -22 -38 -21 -11
-2 -7 5 -13 -21 -38 -20 -10
-2 -5 7 -12 -20 -36 -19 -10
-2 -3 9 -10 -18 -35 -18 -10
-2 0 11 -9 -17 -33 -17 -10
-2 1 13 -7 -15 -31 -16 -10
-3 3 15 -6 -14 -30 -15 -9
-3 4 15 -6 -14 -30 -15 -8
-3 4 16 -6 -14 -30 -15 -8
-3 5 17 -6 -14 -30 -15 -7
-3 6 17 -6 -14 -30 -15 -6
-2 7 18 -5 -15 -30 -15 -5
-2 6 15 -5 -15 -30 -15 -6
-2 5 13 -6 -15 -30 -15 -6
-2 4 10 -7 -15 -30 -15 -7
-2 3 8 -7 -15 -30 -15 -8
-2 2 6 -8 -15 -29 -15 -9
1 2 5 -8 -15 -28 -14 -7
3 2 3 -8 -15 -27 -13 -5
5 3 2 -9 -15 -26 -12 -3
6 3 0 -9 -15 -25 -11 -2
8 4 -2 -10 -15 -24 -10 1
8 1 -2 -12 -18 -26 -11 -2
8 -2 -3 -13 -20 -28 -11 -4
8 -4 -4 -15 -23 -30 -12 -6
8 -6 -4 -17 -25 -31 -13 -8
7 -8 -5 -18 -27 -33 -14 -10
6 -8 -5 -19 -28 -34 -15 -9
5 -9 -5 -20 -29 -34 -15 -9
4 -10 -5 -21 -31 -35 -16 -8
3 -10 -5 -22 -32 -36 -17 -7
2 -11 -6 -23 -33 -37 -18 -6
1 -11 -6 -23 -33 -38 -19 -8
1 -11 -6 -23 -33 -39 -19 -10
0 -11 -6 -23 -34 -40 -20 -12
-2 -11 -6 -23 -34 -41 -21 -13
-3 -10 -6 -24 -35 -43 -22 -15
-4 -12 -6 -24 -35 -43 -23 -15
-5 -13 -6 -24 -36 -43 -23 -15
-6 -15 -6 -24 -37 -44 -24 -15
-7 -16 -6 -24 -37 -44 -25 -15
-8 -18 -5 -23 -38 -45 -26 -16
-8 -18 -5 -23 -38 -45 -26 -16
-8 -18 -5 -23 -38 -45 -26 -16
-9 -19 -5 -23 -38 -45 -25 -16
-9 -19 -5 -23 -38 -45 -25 -16
-10 -20 -4 -23 -38 -44 -24 -17
-10 -20 -4 -23 -38 -44 -24 -17
-10 -20 -4 -23 -38 -44 -24 -17
-10 -20 -4 -23 -38 -44 -24 -17
-10 -20 -4 -23 -38 -44 -24 -17
-10 -19 -4 -23 -39 -45 -24 -16
-10 -19 -4 -23 -39 -45 -25 -17
-10 -19 -4 -23 -39 -45 -26 -18
-10 -19 -4 -23 -40 -45 -27 -20
-10 -19 -4 -23 -40 -45 -28 -21
-10 -20 -5 -24 -41 -46 -29 -22
-10 -20 -5 -24 -41 -45 -28 -20
-10 -20 -5 -24 -41 -44 -27 -18
-10 -20 -5 -23 -40 -43 -25 -16
-10 -20 -5 -23 -40 -41 -24 -14
-10 -19 -4 -22 -39 -40 -23 -12
-10 -19 -4 -22 -39 -40 -23 -12
-10 -19 -4 -22 -39 -40 -23 -12
-10 -19 -4 -21 -39 -40 -23 -13
-10 -19 -4 -21 -39 -40 -23 -13
-9 -19 -4 -20 -38 -40 -23 -14
-9 -18 -4 -19 -37 -40 -23 -14
-9 -18 -3 -19 -36 -40 -23 -14
-9 -17 -2 -18 -34 -39 -23 -13
-9 -16 -2 -17 -33 -39 -23 -13
-8 -15 2 -11 -28 -37 -24 -12
-8 -15 8 7 -14 -34 -24 -13
-7 -15 14 23 0 -31 -24 -15
-6 -15 20 39 14 -28 -25 -16
-6 -15 26 57 28 -25 -25 -18
-3 -14 28 58 37 -13 -20 -16
6 -8 19 26 39 15 -2 -6
13 -2 11 -5 42 44 17 5
21 4 2 -36 44 71 35 16
28 10 -7 -67 46 99 55 26
37 25 -31 -115 40 141 86 44
50 58 -86 -194 19 206 140 76
62 92 -139 -273 -3 273 194 108
73 126 -193 -352 -24 339 250 141
86 159 -247 -431 -46 405 304 174
93 183 -289 -488 -66 451 343 197
90 187 -306 -505 -82 460 350 203
87 191 -323 -521 -98 468 356 211
82 195 -340 -537 -114 476 363 218
79 199 -357 -554 -131 483 370 224
70 190 -356 -550 -148 454 354 217
51 153 -318 -504 -169 349 287 180
32 116 -279 -457 -189 243 220 143
13 79 -241 -411 -210 138 153 105
-7 43 -203 -365 -230 33 87 68
-20 15 -172 -322 -237 -39 37 39
-21 7 -152 -285 -215 -46 22 29
-23 -2 -134 -249 -192 -52 7 18
-24 -10 -115 -213 -170 -58 -9 8
-26 -18 -97 -176 -146 -64 -24 -3
-26 -24 -79 -144 -126 -67 -33 -11
-23 -22 -67 -120 -107 -60 -30 -10
-20 -19 -55 -97 -89 -52 -27 -10
-16 -17 -41 -72 -70 -45 -23 -9
-13 -15 -29 -49 -52 -37 -20 -8
-10 -13 -19 -31 -38 -31 -17 -7
-10 -13 -15 -25 -35 -32 -18 -7
-10 -14 -11 -19 -32 -33 -20 -7
-10 -14 -7 -13 -29 -34 -21 -8
-10 -15 -3 -7 -26 -36 -23 -8
-9 -16 1 -2 -24 -37 -24 -9
-9 -16 2 1 -22 -37 -24 -10
-9 -16 2 2 -21 -37 -25 -11
-9 -16 3 4 -19 -37 -25 -12
-9 -16 4 5 -18 -37 -26 -14
-9 -17 5 7 -16 -38 -27 -15
-9 -17 6 9 -14 -37 -27 -15
-9 -17 7 12 -12 -37 -27 -15
-8 -18 8 14 -11 -36 -26 -14
-8 -18 9 16 -9 -35 -26 -14
-7 -19 10 18 -7 -34 -25 -13
-7 -19 10 19 -6 -33 -24 -13
-6 -19 10 20 -4 -33 -24 -13
-6 -18 10 21 -3 -32 -23 -12
-5 -18 10 22 0 -31 -22 -12
-4 -17 11 23 1 -30 -21 -11
-4 -17 11 24 1 -30 -21 -11
-4 -17 11 26 2 -30 -21 -10
-5 -17 12 27 2 -30 -21 -10
-5 -17 12 29 3 -30 -21 -9
-6 -18 13 30 4 -30 -21 -8
-6 -18 13 31 6 -29 -21 -8
-6 -18 14 31 8 -28 -20 -8
-7 -18 14 32 9 -27 -20 -9
-7 -18 15 33 11 -25 -19 -9
-8 -18 16 34 13 -24 -18 -10
-8 -18 17 36 14 -23 -18 -8
-8 -18 17 38 16 -22 -18 -7
-7 -17 18 40 17 -21 -18 -5
-7 -17 19 43 19 -20 -18 -4
-6 -16 20 45 20 -19 -18 -2
-6 -16 20 47 22 -18 -17 -2
-6 -16 20 49 25 -17 -17 -2
-6 -15 20 50 27 -16 -16 -2
-6 -15 20 52 29 -14 -15 -2
-7 -14 21 54 31 -13 -14 -2
-6 -14 23 57 34 -11 -13 -2
-5 -14 24 59 36 -10 -13 -2
-4 -14 26 62 38 -8 -12 0
-3 -14 27 65 42 -7 -11 0
-2 -14 29 67 44 -5 -10 1
-2 -14 29 70 47 -4 -10 0
-2 -14 29 72 50 -3 -10 0
-2 -14 29 74 53 -2 -10 -2
-2 -14 29 77 55 0 -10 -3
0 -14 30 80 58 1 -9 -4
1 -13 31 84 61 3 -9 -3
2 -12 32 88 64 5 -9 -2
3 -11 33 92 67 6 -8 0
4 -9 35 96 70 8 -8 2
5 -8 36 100 74 10 -7 3
5 -8 37 104 78 12 -7 3
5 -8 38 108 82 14 -7 3
6 -8 39 112 87 15 -6 3
6 -8 40 116 91 17 -6 3
7 -7 42 120 96 19 -5 2
7 -7 44 127 100 22 -3 4
7 -6 46 132 105 25 -2 6
7 -6 49 138 110 28 1 9
7 -5 51 143 114 30 2 11
6 -4 53 149 119 33 4 13
6 -4 54 153 122 35 4 13
6 -3 56 157 127 36 5 12
6 -3 57 161 131 38 5 12
6 -2 58 165 135 39 6 11
7 0 60 171 138 42 7 10
8 1 62 174 141 44 7 12
10 2 63 178 144 45 7 14
11 3 65 182 147 47 8 15
12 5 66 186 149 48 8 17
14 6 68 189 152 50 9 19
14 7 68 190 153 50 9 19
14 8 69 192 155 50 10 18
14 9 69 193 156 50 10 18
14 11 70 194 157 50 11 17
15 12 71 196 159 49 12 16
15 12 71 196 159 49 11 16
15 13 71 196 159 49 11 16
16 13 72 196 159 48 10 16
16 14 72 196 159 48 9 16
17 15 73 195 158 47 8 17
16 16 72 191 154 45 8 17
16 17 71 187 151 43 8 17
15 18 70 183 148 40 8 17
14 19 68 179 145 38 8 17
13 20 67 175 141 36 9 16
13 20 65 169 136 34 9 17
12 20 63 161 131 32 9 18
11 20 61 155 126 30 9 19
10 20 59 148 119 28 9 20
9 20 57 141 114 26 8 21
9 20 54 133 107 23 8 20
9 20 51 123 99 20 7 19
8 20 48 114 92 17 7 18
8 20 45 105 85 15 6 16
7 19 42 97 77 12 5 15
7 18 38 89 70 9 4 15
7 17 36 80 63 7 2 14
7 16 33 72 56 4 1 14
7 14 30 64 50 1 0 13
6 13 28 56 43 -2 -3 12
5 12 26 50 38 -5 -4 11
3 10 23 44 33 -7 -5 9
1 8 21 37 29 -10 -6 8
0 7 18 31 24 -13 -7 7
-3 5 16 26 20 -15 -8 5
-3 5 15 23 16 -15 -8 5
-3 4 14 19 13 -16 -9 5
-4 3 13 16 10 -17 -10 6
-4 2 12 13 6 -18 -11 6
-5 1 11 10 3 -19 -12 7
-5 0 10 7 1 -21 -13 6
-6 -3 8 5 -2 -23 -14 4
-6 -4 6 2 -4 -24 -15 2
-7 -5 5 0 -6 -26 -17 1
-8 -7 3 -4 -8 -28 -18 -2
-8 -7 3 -4 -8 -28 -18 -2
-8 -8 3 -4 -9 -28 -18 0
-9 -8 3 -4 -10 -28 -18 1
-9 -9 3 -4 -11 -28 -18 2
-10 -10 3 -5 -12 -28 -18 3
-10 -10 3 -6 -12 -29 -18 2
-10 -10 2 -7 -13 -30 -19 1
-10 -10 2 -8 -13 -31 -19 0
-10 -10 1 -9 -14 -32 -20 -3
-10 -11 0 -10 -15 -33 -21 -4
-10 -11 0 -10 -15 -33 -21 -4
-10 -11 0 -10 -16 -33 -22 -4
-10 -11 0 -10 -16 -34 -22 -4
-10 -11 0 -10 -17 -34 -23 -4
-9 -12 0 -10 -18 -35 -24 -3
-9 -12 0 -10 -18 -35 -24 -4
-9 -12 0 -10 -18 -35 -24 -5
-9 -12 0 -10 -17 -35 -24 -6
-9 -12 0 -10 -17 -35 -24 -7
-8 -12 -2 -11 -16 -35 -24 -8
-8 -12 -2 -10 -16 -35 -24 -7
-8 -12 -2 -9 -16 -35 -23 -6
-8 -11 0 -8 -16 -34 -22 -5
-8 -11 0 -7 -16 -34 -21 -3
-7 -10 1 -6 -16 -33 -20 -2
-7 -10 1 -6 -17 -33 -20 -3
-7 -10 1 -6 -18 -33 -20 -4
-8 -10 1 -6 -19 -33 -20 -5
-8 -10 1 -6 -20 -33 -20 -6
-9 -9 0 -7 -21 -33 -21 -7
-9 -9 0 -7 -21 -33 -21 -7
-9 -10 0 -6 -21 -32 -21 -6
-9 -10 1 -5 -21 -32 -20 -5
-9 -11 1 -4 -21 -31 -20 -4
-8 -12 2 -3 -22 -30 -19 -3
-8 -12 2 -3 -22 -30 -19 -4
-7 -12 1 -3 -22 -30 -19 -6
-7 -11 0 -4 -23 -31 -20 -7
-6 -11 -2 -4 -23 -31 -20 -8
-5 -10 -3 -5 -24 -32 -21 -10
-5 -10 -3 -5 -24 -32 -21 -9
-5 -10 -2 -5 -24 -31 -21 -8
-6 -9 -2 -4 -23 -30 -20 -7
-6 -9 0 -4 -23 -29 -20 -6
-7 -8 1 -3 -22 -28 -19 -5
-7 -8 1 -3 -22 -28 -19 -5
-8 -8 1 -3 -22 -28 -18 -5
-9 -9 1 -3 -22 -28 -17 -5
-10 -9 1 -3 -22 -28 -16 -5
-11 -10 1 -4 -21 -27 -15 -6
-11 -10 1 -4 -21 -27 -15 -6
-10 -10 1 -4 -21 -27 -15 -6
-10 -9 1 -4 -21 -27 -15 -6
-9 -9 1 -4 -21 -27 -15 -6
-8 -8 0 -5 -21 -26 -16 -5
-8 -8 0 -5 -21 -26 -16 -5
-7 -8 -2 -5 -22 -26 -16 -5
-7 -8 -2 -6 -23 -26 -16 -5
-6 -8 -3 -6 -24 -26 -16 -5
-5 -7 -4 -7 -25 -27 -17 -5
-5 -7 -4 -7 -25 -27 -17 -5
-5 -7 -4 -7 -25 -27 -17 -5
-5 -7 -4 -7 -25 -27 -17 -5
-5 -7 -4 -7 -25 -27 -17 -5
-4 -8 -3 -8 -25 -26 -16 -5
-5 -8 -3 -8 -25 -26 -16 -5
-6 -8 -3 -8 -25 -26 -16 -5
-7 -7 -3 -8 -25 -26 -16 -4
-8 -7 -3 -8 -25 -26 -16 -4
-9 -6 -2 -8 -24 -25 -17 -3
-9 -6 -2 -8 -24 -25 -17 -3
-9 -6 -2 -8 -25 -25 -17 -3
-9 -6 -2 -8 -25 -26 -18 -3
-9 -6 -2 -8 -26 -26 -18 -3
-8 -7 -2 -8 -27 -27 -19 -3
-8 -7 -2 -8 -27 -27 -19 -3
-8 -8 -2 -8 -27 -27 -19 -3
-8 -9 -2 -8 -27 -27 -18 -3
-8 -10 -2 -8 -27 -27 -18 -3
-9 -11 -2 -9 -28 -27 -17 -4
-9 -11 -2 -9 -28 -27 -17 -4
-9 -11 -2 -9 -29 -27 -17 -4
-8 -11 -2 -9 -29 -28 -18 -4
-8 -11 -2 -9 -30 -28 -18 -4
-7 -12 -3 -10 -31 -29 -19 -3
-7 -12 -3 -10 -31 -29 -19 -3
-8 -11 -2 -10 -31 -29 -19 -3
-9 -11 -2 -10 -30 -29 -18 -4
-10 -10 0 -10 -30 -29 -18 -4
-11 -9 1 -10 -29 -28 -17 -5
-10 -7 2 -10 -29 -28 -17 -4
-8 -6 3 -9 -29 -28 -16 -3
-7 -4 4 -8 -28 -28 -16 -2
-6 -2 5 -7 -28 -28 -15 0
-4 1 6 -6 -27 -27 -14 1
-4 1 6 -6 -27 -27 -14 1
-4 2 7 -6 -26 -26 -14 0
-4 2 7 -5 -25 -26 -14 -2
-4 3 8 -5 -24 -25 -14 -3
-5 4 9 -4 -23 -24 -15 -4
-5 4 9 -3 -23 -24 -15 -4
-4 4 10 -2 -22 -24 -14 -3
-3 5 11 0 -21 -24 -14 -2
-2 5 12 1 -20 -24 -13 0
0 6 13 2 -19 -23 -12 1
0 6 10 0 -19 -23 -12 1
0 5 7 -3 -20 -23 -12 1
1 5 4 -5 -21 -23 -12 1
1 4 1 -7 -22 -23 -12 1
2 3 -3 -9 -23 -24 -12 1
2 3 -3 -9 -23 -24 -12 1
2 3 -3 -9 -23 -23 -11 1
3 2 -3 -9 -22 -23 -10 1
3 2 -3 -9 -22 -22 -9 1
4 1 -4 -8 -21 -21 -8 2
4 -2 -5 -10 -23 -23 -8 1
4 -4 -6 -11 -26 -24 -9 -2
4 -6 -7 -13 -28 -26 -10 -4
4 -9 -8 -15 -30 -28 -11 -5
5 -11 -9 -17 -33 -30 -12 -7
4 -11 -9 -17 -33 -30 -12 -7
3 -11 -9 -17 -33 -30 -12 -6
2 -11 -8 -18 -34 -30 -13 -5
1 -11 -8 -18 -34 -30 -13 -4
-2 -12 -7 -19 -35 -31 -14 -3
-3 -12 -7 -19 -35 -32 -15 -5
-4 -13 -7 -20 -35 -33 -16 -7
-5 -14 -7 -20 -35 -35 -18 -9
-6 -15 -7 -21 -35 -36 -19 -12
-7 -16 -7 -22 -36 -38 -21 -14
-7 -16 -7 -22 -36 -38 -21 -14
-8 -17 -6 -22 -36 -38 -21 -14
-9 -17 -5 -22 -36 -38 -21 -14
-10 -18 -4 -22 -36 -38 -21 -14
-11 -19 -3 -21 -37 -38 -22 -14
-11 -19 -3 -21 -37 -38 -22 -14
-11 -19 -3 -21 -37 -38 -22 -15
-11 -20 -3 -21 -37 -38 -22 -15
-11 -20 -3 -21 -37 -38 -22 -16
-11 -21 -4 -21 -37 -39 -23 -17
-11 -21 -4 -21 -37 -39 -23 -17
-11 -21 -4 -21 -37 -39 -23 -17
-12 -21 -4 -21 -37 -39 -23 -17
-12 -21 -4 -21 -37 -39 -23 -17
-13 -22 -4 -21 -38 -40 -24 -17
-13 -22 -4 -21 -38 -40 -24 -17
-13 -22 -4 -21 -38 -40 -24 -17
-12 -22 -4 -21 -38 -40 -24 -17
-12 -22 -4 -21 -38 -40 -24 -17
-11 -21 -4 -20 -38 -41 -24 -17
-11 -21 -4 -20 -38 -41 -24 -17
-12 -21 -4 -20 -38 -40 -23 -16
-12 -21 -4 -19 -37 -39 -23 -15
-13 -21 -4 -19 -37 -38 -22 -14
-14 -22 -4 -18 -36 -37 -21 -13
-14 -22 -4 -18 -36 -37 -21 -13
-13 -22 -4 -18 -35 -37 -21 -14
-13 -21 -4 -18 -34 -36 -21 -14
-12 -21 -4 -18 -33 -36 -21 -15
-11 -20 -3 -19 -32 -35 -20 -16
-11 -20 0 -14 -29 -35 -20 -16
-11 -20 3 -9 -25 -34 -20 -16
-11 -19 6 -4 -21 -33 -21 -15
-11 -19 8 2 -18 -32 -21 -15
-12 -18 11 8 -13 -31 -22 -14
-9 -17 17 19 5 -21 -18 -14
-5 -16 23 31 22 -11 -15 -13
0 -15 29 43 38 -2 -11 -13
3 -14 35 55 56 9 -7 -12
7 -11 38 60 71 21 0 -10
17 4 4 -11 56 61 30 9
27 19 -31 -82 42 102 61 27
37 33 -67 -153 26 142 91 47
48 48 -102 -225 11 182 121 65
58 65 -139 -296 -5 225 154 85
68 102 -194 -359 -22 285 205 117
77 139 -249 -424 -40 347 257 150
87 176 -304 -487 -58 408 308 183
97 213 -359 -551 -76 470 359 216
105 246 -410 -609 -93 523 405 245
92 221 -401 -597 -100 482 375 228
78 195 -393 -583 -107 440 344 212
65 171 -385 -570 -115 399 313 194
52 145 -376 -557 -122 358 281 177
38 119 -364 -541 -131 313 248 158
24 93 -322 -488 -151 229 195 128
10 65 -279 -436 -172 145 141 96
-5 37 -236 -383 -191 61 88 65
-19 10 -193 -330 -212 -23 33 34
-33 -16 -152 -279 -229 -101 -17 5
-30 -16 -133 -240 -196 -87 -18 3
-26 -17 -112 -201 -163 -73 -19 0
-23 -18 -93 -162 -131 -60 -21 -3
-20 -19 -73 -124 -98 -47 -22 -6
-16 -20 -54 -88 -67 -33 -24 -9
-15 -20 -44 -72 -58 -32 -22 -9
-14 -20 -34 -58 -49 -30 -20 -9
-13 -19 -24 -43 -39 -29 -18 -9
-12 -19 -14 -28 -30 -27 -16 -9
-11 -18 -5 -14 -21 -25 -13 -8
-11 -18 -2 -10 -20 -25 -13 -8
-10 -18 2 -6 -18 -26 -14 -8
-10 -19 5 -2 -17 -27 -15 -8
-9 -19 8 4 -15 -28 -16 -8
-8 -20 11 8 -13 -29 -17 -8
-8 -20 11 9 -12 -29 -17 -9
-8 -20 11 10 -11 -29 -17 -10
-8 -21 11 11 -10 -29 -18 -11
-8 -21 11 12 -9 -29 -18 -12
-9 -22 12 14 -7 -30 -19 -14
-8 -22 13 16 -6 -29 -19 -13
-7 -21 15 18 -4 -28 -19 -12
-6 -21 16 21 -2 -27 -18 -11
-5 -20 18 23 1 -26 -18 -10
-4 -19 20 26 3 -25 -17 -9
-4 -19 20 26 3 -25 -17 -10
-4 -19 20 26 4 -25 -17 -11
-4 -19 20 26 4 -25 -18 -13
-4 -19 20 26 5 -25 -18 -14
-4 -20 20 26 6 -25 -19 -16
-4 -20 21 28 6 -24 -19 -15
-4 -19 22 30 7 -23 -18 -14
-4 -19 23 33 8 -22 -18 -13
-4 -18 24 35 9 -21 -17 -12
-3 -17 25 38 10 -20 -16 -10
-3 -17 25 38 12 -20 -16 -10
-3 -17 25 39 14 -20 -16 -10
-2 -17 26 40 16 -19 -16 -10
-2 -17 26 42 18 -19 -16 -10
0 -16 27 43 21 -18 -15 -10
0 -16 28 45 22 -17 -15 -10
0 -16 29 48 24 -16 -15 -10
0 -16 30 50 26 -15 -15 -9
0 -16 31 53 28 -14 -15 -9
-2 -16 33 56 30 -12 -15 -8
-2 -16 33 57 32 -12 -15 -8
-2 -16 34 59 34 -12 -15 -9
-2 -16 34 61 36 -11 -14 -9
-2 -16 35 63 38 -11 -14 -10
-2 -17 36 65 42 -10 -13 -11
-2 -17 37 67 44 -9 -12 -11
0 -17 38 70 47 -8 -11 -11
0 -16 39 73 49 -6 -10 -10
1 -16 40 76 52 -5 -9 -10
2 -15 42 79 55 -3 -8 -9
2 -15 43 82 58 -2 -8 -9
2 -14 44 87 61 1 -7 -9
3 -14 45 90 65 2 -7 -9
3 -13 46 94 68 4 -6 -9
4 -12 48 98 72 6 -5 -8
4 -12 50 102 75 8 -5 -8
4 -12 52 107 79 10 -4 -7
4 -12 54 111 84 12 -3 -6
4 -12 56 116 88 14 -2 -5
5 -12 58 121 92 16 0 -4
5 -12 59 126 96 17 0 -4
5 -11 61 131 100 19 1 -4
5 -10 62 136 105 21 1 -4
5 -9 64 141 109 23 2 -4
5 -8 66 146 114 25 3 -4
6 -8 67 151 118 27 4 -3
8 -7 69 157 122 29 5 -2
10 -7 71 162 127 32 6 0
12 -6 73 169 131 34 7 1
14 -5 75 175 136 37 8 2
14 -4 76 179 140 38 8 2
14 -3 78 184 144 39 8 2
14 -2 80 188 148 42 9 3
14 0 82 193 152 43 9 3
15 2 85 198 156 45 10 4
15 3 86 201 158 46 11 4
15 5 88 205 161 47 12 5
15 6 90 209 163 48 13 6
15 8 92 213 167 49 14 7
15 10 94 217 170 51 15 8
15 10 94 218 170 51 15 8
15 11 95 220 171 51 15 8
16 11 96 221 172 51 16 8
16 12 97 223 173 51 16 8
17 13 98 225 174 51 17 8
17 13 98 225 174 51 17 8
17 14 98 224 173 50 17 8
17 14 98 223 172 49 16 8
17 15 98 222 171 48 16 8
17 15 98 222 171 48 16 8
16 16 98 216 167 46 15 8
16 17 96 210 162 45 15 9
16 18 94 204 158 43 16 9
16 19 92 198 154 42 16 10
16 19 91 193 151 40 16 10
15 20 88 184 144 37 17 11
14 20 85 175 137 34 16 11
14 20 81 165 130 31 15 12
13 20 78 156 122 28 14 12
13 20 75 147 115 26 14 12
12 19 71 137 107 23 13 12
11 18 68 127 100 20 12 10
10 17 65 116 92 17 11 8
9 16 62 106 85 14 10 6
8 16 59 96 77 11 10 5
7 14 55 88 70 8 8 4
6 12 52 79 64 5 7 4
5 11 49 71 57 3 5 4
4 9 46 63 51 0 4 4
3 8 43 56 45 -3 3 4
2 6 39 50 39 -6 1 3
2 5 37 44 34 -8 -2 1
1 4 35 37 29 -10 -3 -2
1 3 33 31 24 -12 -5 -4
1 2 31 26 20 -14 -6 -6
0 1 29 23 17 -15 -7 -7
0 0 28 20 14 -16 -8 -7
-2 0 27 17 11 -17 -9 -7
-2 -2 26 14 8 -18 -10 -7
-2 -2 25 11 5 -18 -10 -7
-3 -4 23 8 3 -20 -11 -7
-3 -5 22 6 1 -22 -12 -8
-3 -6 21 4 -2 -23 -13 -9
-3 -7 20 2 -4 -25 -14 -10
-3 -8 19 0 -6 -26 -15 -11
-3 -9 18 -2 -7 -27 -16 -12
-4 -9 18 -3 -8 -27 -16 -12
-5 -9 17 -3 -9 -27 -16 -11
-6 -9 17 -4 -10 -27 -16 -11
-7 -9 17 -4 -10 -27 -16 -11
-8 -9 16 -5 -11 -28 -16 -11
-8 -9 15 -6 -12 -29 -17 -12
-8 -10 14 -7 -12 -30 -18 -13
-8 -10 13 -8 -13 -31 -19 -14
-8 -10 13 -9 -13 -32 -19 -15
-8 -11 12 -10 -14 -33 -20 -16
-8 -11 12 -10 -14 -33 -20 -15
-7 -12 12 -9 -14 -32 -20 -15
-7 -12 12 -9 -14 -32 -20 -14
-7 -12 12 -9 -14 -32 -20 -14
-6 -13 13 -8 -15 -31 -21 -13
-7 -13 13 -8 -15 -31 -21 -13
-7 -13 13 -8 -15 -31 -20 -14
-8 -13 13 -8 -15 -31 -20 -14
-8 -13 13 -8 -15 -31 -20 -14
-9 -12 14 -8 -14 -32 -19 -14
-9 -12 14 -8 -14 -32 -19 -13
-9 -12 14 -7 -14 -32 -19 -12
-9 -12 14 -7 -14 -32 -19 -11
-9 -12 14 -7 -14 -32 -19 -10
-8 -12 14 -6 -13 -31 -19 -9
-8 -12 14 -6 -13 -31 -19 -10
-8 -12 13 -6 -13 -31 -19 -11
-8 -12 13 -6 -13 -31 -19 -12
-8 -12 13 -6 -13 -31 -19 -13
-9 -11 12 -6 -12 -31 -19 -14
-9 -11 13 -6 -11 -30 -19 -13
-8 -11 13 -6 -11 -29 -18 -12
-8 -11 14 -6 -10 -28 -18 -11
-8 -11 14 -6 -10 -28 -18 -10
-7 -11 15 -5 -9 -27 -17 -9
-7 -11 15 -5 -9 -27 -17 -10
-7 -11 14 -5 -9 -27 -17 -11
-7 -11 14 -5 -9 -27 -17 -12
-7 -11 14 -5 -9 -27 -17 -12
-7 -10 13 -6 -10 -28 -17 -13
-7 -10 13 -6 -10 -28 -17 -13
-7 -10 13 -5 -10 -28 -17 -12
-7 -10 13 -5 -10 -28 -17 -12
-7 -10 13 -5 -10 -28 -17 -12
-8 -9 12 -4 -9 -27 -18 -11
-8 -9 12 -5 -9 -27 -18 -11
-8 -9 11 -6 -9 -27 -18 -11
-8 -9 11 -7 -9 -27 -18 -11
-8 -9 11 -7 -9 -27 -18 -11
-7 -9 10 -8 -9 -27 -17 -12
-6 -9 10 -8 -9 -27 -17 -11
-6 -9 10 -8 -9 -27 -17 -11
-5 -9 10 -8 -9 -27 -17 -10
-5 -9 10 -8 -9 -27 -17 -10
-4 -9 10 -8 -10 -26 -16 -9
-5 -9 10 -8 -10 -26 -16 -10
-5 -9 10 -8 -10 -26 -15 -11
-6 -9 10 -8 -10 -26 -15 -12
-6 -9 10 -8 -10 -26 -15 -12
-7 -9 9 -9 -10 -26 -14 -13
-7 -9 9 -9 -10 -26 -14 -12
-7 -9 9 -9 -11 -26 -14 -12
-7 -9 9 -9 -11 -26 -14 -11
-7 -9 9 -9 -11 -26 -14 -11
-6 -8 9 -8 -12 -26 -15 -10
-6 -8 9 -9 -12 -26 -15 -10
-6 -9 8 -10 -13 -26 -15 -11
-6 -9 8 -11 -13 -26 -15 -11
-6 -9 8 -11 -13 -26 -15 -11
-7 -10 7 -12 -14 -27 -15 -12
-7 -10 7 -12 -15 -27 -15 -12
-7 -10 7 -12 -15 -27 -15 -12
-7 -10 7 -12 -16 -27 -15 -12
-7 -10 7 -12 -16 -27 -15 -12
-8 -10 8 -12 -17 -27 -16 -11
-8 -10 8 -12 -17 -27 -16 -11
-7 -10 8 -12 -17 -27 -16 -12
-7 -10 8 -12 -17 -27 -16 -12
-7 -10 8 -12 -17 -27 -16 -12
-6 -10 7 -13 -18 -28 -16 -13
-6 -11 7 -13 -19 -28 -16 -13
-6 -11 7 -13 -19 -28 -16 -13
-6 -12 7 -13 -20 -28 -16 -13
-6 -12 7 -13 -20 -28 -16 -13
-7 -13 6 -13 -21 -28 -15 -13
-7 -13 6 -14 -21 -29 -16 -13
-7 -13 5 -14 -22 -29 -16 -14
-7 -13 5 -15 -22 -30 -17 -14
-7 -13 5 -15 -22 -30 -17 -14
-6 -13 4 -16 -23 -31 -18 -15
-6 -13 4 -16 -23 -31 -18 -14
-6 -13 5 -16 -23 -31 -18 -14
-6 -13 5 -16 -23 -31 -18 -13
-6 -13 5 -16 -23 -31 -18 -13
-7 -12 6 -15 -23 -30 -18 -12
-7 -12 6 -15 -23 -30 -18 -12
-7 -12 6 -15 -23 -30 -18 -12
-7 -12 6 -15 -23 -30 -18 -12
-7 -12 6 -15 -23 -30 -18 -12
-7 -10 6 -13 -23 -30 -17 -13
-6 -7 7 -11 -22 -29 -16 -12
-6 -5 9 -9 -20 -29 -16 -11
-5 -3 10 -8 -19 -28 -15 -10
-5 0 11 -6 -18 -28 -15 -10
-4 1 12 -5 -17 -27 -14 -9
-4 1 13 -5 -17 -27 -14 -9
-5 1 13 -5 -17 -26 -14 -10
-5 1 14 -5 -17 -26 -14 -10
-5 1 14 -5 -17 -26 -14 -10
-5 2 15 -5 -16 -25 -13 -11
-4 2 15 -5 -16 -25 -13 -10
-3 2 15 -4 -16 -24 -13 -10
-2 2 15 -4 -16 -24 -13 -9
0 2 15 -4 -16 -24 -13 -9
2 1 13 -3 -17 -23 -12 -8
3 2 10 -4 -17 -23 -11 -8
5 3 7 -5 -16 -23 -11 -8
6 4 4 -6 -16 -23 -10 -8
7 5 1 -7 -16 -23 -10 -8
8 4 0 -8 -16 -22 -9 -9
8 2 -2 -9 -18 -23 -9 -9
8 0 -3 -9 -20 -24 -10 -8
8 -4 -4 -10 -21 -25 -10 -8
8 -6 -4 -10 -23 -25 -10 -8
8 -8 -5 -12 -25 -27 -11 -7
7 -9 -6 -13 -26 -28 -12 -8
6 -10 -6 -15 -28 -29 -12 -9
5 -11 -7 -16 -29 -30 -13 -10
5 -12 -7 -17 -30 -31 -13 -10
4 -13 -8 -18 -31 -32 -14 -11
3 -13 -8 -19 -32 -33 -15 -11
2 -13 -8 -20 -32 -33 -15 -11
1 -13 -8 -21 -33 -34 -16 -11
1 -13 -8 -21 -33 -34 -16 -11
-2 -12 -7 -22 -34 -35 -18 -12
-5 -13 -7 -22 -35 -36 -19 -13
-7 -13 -7 -22 -35 -37 -21 -15
-9 -14 -7 -22 -36 -38 -23 -17
-11 -14 -7 -22 -36 -38 -24 -18
-12 -15 -6 -23 -37 -39 -25 -19
-12 -16 -6 -23 -37 -39 -25 -19
-12 -17 -6 -23 -37 -40 -25 -18
-12 -18 -6 -23 -37 -40 -25 -18
-12 -18 -6 -23 -37 -40 -25 -18
-11 -19 -6 -23 -38 -41 -25 -17
-11 -19 -6 -23 -38 -41 -25 -17
-11 -19 -6 -23 -38 -41 -25 -17
-11 -19 -6 -23 -38 -41 -25 -17
-11 -19 -6 -23 -38 -41 -25 -17
-11 -19 -7 -23 -38 -43 -26 -18
-11 -19 -7 -23 -38 -43 -26 -18
-11 -19 -7 -23 -38 -43 -26 -18
-11 -19 -7 -23 -38 -43 -26 -18
-11 -19 -7 -23 -38 -43 -26 -18
-11 -18 -6 -22 -38 -43 -26 -17
-11 -18 -6 -22 -38 -43 -26 -17
-11 -18 -6 -22 -38 -43 -26 -18
-11 -18 -6 -22 -38 -43 -26 -18
-11 -18 -6 -22 -38 -43 -26 -18
-12 -18 -7 -23 -37 -43 -26 -19
-12 -17 -7 -23 -37 -43 -26 -19
-12 -17 -6 -23 -37 -43 -26 -18
-12 -16 -6 -23 -37 -43 -26 -18
-12 -16 -6 -23 -37 -43 -26 -18
-12 -15 -5 -22 -36 -41 -26 -17
-12 -15 -5 -22 -36 -40 -26 -17
-12 -15 -5 -22 -35 -40 -26 -18
-12 -15 -5 -22 -35 -39 -26 -18
-12 -15 -5 -22 -35 -39 -26 -18
-11 -15 -3 -14 -28 -37 -25 -19
-11 -15 2 -3 -21 -35 -25 -19
-11 -15 6 8 -13 -33 -26 -19
-11 -15 11 18 -5 -31 -26 -19
-11 -15 15 29 3 -29 -26 -19
-8 -14 16 28 16 -17 -21 -18
-3 -11 15 25 30 -2 -14 -15
4 -9 14 21 45 13 -6 -13
9 -7 13 17 58 28 3 -11
15 -5 12 13 72 43 10 -9
26 16 -28 -58 61 90 46 13
39 40 -75 -142 43 143 89 39
53 65 -122 -227 24 197 131 65
66 90 -171 -311 6 252 173 92
79 114 -218 -396 -12 305 215 117
87 143 -265 -450 -26 358 257 145
92 173 -311 -498 -39 411 300 174
97 202 -357 -546 -53 465 342 201
102 232 -404 -594 -66 518 385 230
108 262 -450 -642 -79 571 427 258
94 235 -429 -616 -95 513 388 236
74 194 -392 -573 -110 429 329 202
56 153 -354 -530 -126 345 271 168
36 113 -316 -487 -141 260 213 134
17 72 -278 -443 -156 176 154 100
7 51 -248 -402 -166 118 114 75
-3 33 -221 -360 -176 68 77 54
-12 16 -192 -319 -185 17 42 31
-20 -2 -163 -278 -194 -33 6 10
-29 -19 -136 -236 -203 -85 -31 -12
-28 -21 -115 -200 -179 -83 -35 -16
-25 -17 -97 -165 -146 -68 -30 -14
-21 -13 -77 -132 -113 -54 -25 -12
-17 -10 -59 -97 -80 -39 -20 -10
-13 -6 -40 -62 -48 -24 -15 -8
-12 -6 -31 -49 -38 -22 -15 -8
-11 -8 -25 -39 -34 -23 -17 -10
-11 -10 -19 -31 -30 -24 -19 -12
-10 -11 -12 -23 -27 -26 -21 -14
-10 -13 -6 -14 -23 -27 -23 -16
-9 -14 -3 -10 -21 -28 -24 -17
-8 -14 -2 -7 -20 -29 -25 -17
-8 -15 1 -5 -18 -29 -25 -17
-7 -15 3 -2 -16 -30 -26 -17
-7 -15 4 2 -15 -30 -26 -17
-6 -16 5 5 -13 -31 -27 -17
-7 -17 7 7 -12 -30 -27 -17
-7 -17 8 10 -10 -30 -27 -18
-8 -18 9 12 -8 -29 -27 -18
-8 -18 10 15 -7 -29 -27 -18
-9 -19 11 16 -6 -28 -27 -19
-9 -18 11 17 -5 -27 -27 -18
-9 -18 12 18 -4 -26 -26 -17
-9 -17 12 19 -3 -25 -26 -16
-9 -17 12 20 -2 -25 -26 -16
-8 -16 13 22 0 -24 -25 -15
-7 -17 13 23 1 -24 -25 -17
-6 -17 13 25 2 -24 -25 -18
-5 -18 13 27 3 -24 -25 -19
-5 -18 13 28 4 -24 -25 -20
-4 -19 14 29 5 -24 -26 -21
-4 -19 15 31 6 -22 -24 -19
-4 -18 16 32 7 -21 -23 -18
-4 -18 17 33 8 -20 -22 -17
-4 -18 18 34 9 -19 -21 -16
-4 -17 19 36 11 -18 -20 -15
-4 -17 20 38 13 -17 -20 -15
-4 -17 21 40 15 -16 -20 -15
-4 -17 22 43 17 -15 -20 -15
-4 -17 23 45 19 -14 -20 -15
-3 -17 24 47 21 -13 -21 -15
-3 -17 24 48 22 -12 -21 -14
-3 -16 24 49 23 -11 -20 -13
-3 -16 24 51 25 -10 -20 -12
-3 -16 24 52 26 -10 -20 -12
-3 -15 26 55 28 -9 -19 -11
-2 -15 27 57 31 -7 -19 -12
0 -15 28 60 33 -6 -19 -12
1 -15 30 62 36 -5 -19 -13
1 -15 31 65 38 -4 -19 -13
2 -14 32 68 42 -2 -18 -14
2 -13 33 71 45 0 -17 -12
2 -13 34 74 48 2 -16 -11
2 -12 35 77 51 4 -15 -10
2 -12 35 80 54 5 -14 -9
1 -11 36 85 57 7 -13 -8
2 -11 37 89 60 8 -13 -9
2 -11 38 93 63 10 -12 -9
3 -11 39 97 67 12 -12 -10
3 -11 39 101 70 13 -12 -10
4 -10 42 106 73 15 -11 -11
5 -9 44 110 77 16 -9 -10
5 -8 46 115 80 18 -8 -9
6 -7 48 119 85 20 -7 -8
6 -7 50 123 89 21 -6 -8
7 -6 52 130 93 23 -5 -7
7 -5 54 135 97 25 -5 -7
8 -5 55 141 101 27 -5 -7
8 -4 57 147 105 29 -5 -7
8 -4 59 152 109 31 -5 -7
9 -3 61 158 114 33 -4 -6
9 -2 64 163 118 35 -3 -5
9 0 66 169 122 38 0 -3
9 0 68 175 127 40 1 -2
9 1 71 180 131 43 3 1
8 2 73 185 135 44 4 2
10 3 74 189 138 45 4 2
11 4 75 194 141 46 4 1
12 4 77 198 144 46 4 1
13 5 78 202 148 47 4 1
14 7 79 206 150 48 5 0
14 8 81 209 152 49 6 2
15 9 82 212 154 49 6 3
15 11 84 215 156 50 7 4
15 12 85 218 158 50 7 5
16 13 86 220 159 51 8 6
16 13 87 221 159 51 8 5
15 14 87 222 160 51 8 5
15 14 88 224 160 51 8 4
15 14 88 225 160 51 8 4
14 15 89 225 160 50 7 3
14 16 89 224 158 49 7 4
15 17 89 222 157 48 8 5
15 17 89 221 155 47 8 6
15 18 89 219 153 46 8 7
16 19 88 213 149 44 9 8
15 19 87 205 145 42 9 8
14 20 85 198 140 38 9 8
14 20 84 191 136 36 9 8
13 20 81 183 132 34 9 8
12 21 78 174 126 32 8 7
12 21 74 164 118 29 7 7
12 21 71 154 111 26 7 7
12 21 67 144 104 24 6 7
12 21 63 134 97 21 6 7
11 20 60 125 91 20 5 8
10 19 58 114 84 20 4 8
8 18 55 105 76 19 3 7
7 17 52 96 69 19 2 7
5 16 49 86 62 19 1 7
4 14 46 77 56 17 0 6
4 13 43 69 51 14 -2 5
3 11 39 61 45 12 -2 4
3 10 36 54 38 10 -3 3
3 8 33 46 32 7 -3 2
1 6 31 39 27 5 -4 0
-2 4 29 34 23 3 -5 -2
-4 3 28 29 19 2 -6 -4
-6 1 26 25 15 0 -7 -5
-8 -2 24 20 11 -3 -8 -7
-9 -3 22 16 8 -4 -9 -8
-9 -3 21 13 5 -5 -10 -8
-8 -4 19 9 2 -5 -11 -7
-8 -4 18 6 0 -6 -12 -7
-8 -4 16 2 -4 -6 -13 -7
-7 -5 15 0 -6 -7 -14 -6
-7 -6 14 -2 -8 -9 -15 -8
-8 -6 13 -4 -9 -10 -16 -9
-8 -7 13 -5 -11 -12 -17 -10
-8 -7 12 -7 -13 -13 -18 -11
-9 -8 11 -8 -14 -14 -19 -12
-9 -9 11 -9 -15 -14 -19 -12
-9 -9 11 -10 -16 -14 -19 -11
-9 -10 11 -10 -16 -14 -19 -11
-9 -10 11 -11 -17 -14 -19 -11
-8 -11 10 -12 -18 -15 -19 -10
-8 -11 10 -12 -18 -15 -19 -11
-8 -11 10 -13 -19 -16 -20 -12
-8 -11 10 -13 -19 -16 -20 -12
-8 -11 10 -13 -19 -16 -20 -13
-9 -12 9 -14 -20 -17 -21 -14
-9 -12 9 -14 -20 -17 -22 -14
-9 -12 9 -14 -20 -17 -22 -14
-9 -12 9 -14 -20 -17 -23 -14
-9 -12 9 -14 -20 -17 -23 -14
-10 -11 8 -15 -21 -18 -24 -14
-10 -11 8 -15 -21 -18 -24 -15
-10 -11 8 -14 -21 -18 -24 -16
-10 -11 8 -14 -21 -18 -24 -16
-10 -11 8 -14 -21 -18 -24 -17
-9 -12 7 -13 -21 -18 -24 -18
-9 -12 7 -12 -21 -18 -24 -17
-9 -12 7 -12 -20 -17 -23 -16
-9 -12 7 -11 -20 -17 -23 -15
-9 -12 7 -11 -20 -17 -23 -14
-9 -11 8 -10 -19 -16 -22 -13
-9 -12 8 -10 -19 -16 -22 -13
-10 -13 8 -10 -19 -16 -22 -14
-10 -13 8 -10 -19 -16 -22 -14
-10 -14 8 -10 -19 -16 -22 -14
-11 -15 7 -11 -18 -15 -23 -15
-11 -14 7 -10 -18 -15 -22 -14
-10 -13 7 -10 -18 -14 -22 -13
-10 -12 7 -9 -18 -14 -21 -12
-10 -11 7 -9 -18 -14 -21 -11
-9 -10 8 -8 -17 -13 -20 -10
-9 -10 8 -8 -17 -13 -20 -11
-9 -10 7 -8 -17 -13 -20 -12
-9 -10 7 -8 -17 -13 -20 -12
-9 -10 7 -8 -17 -13 -20 -13
-9 -9 6 -9 -16 -12 -20 -14
-9 -9 6 -9 -16 -12 -20 -13
-9 -9 6 -9 -16 -11 -20 -13
-9 -9 6 -9 -16 -11 -20 -12
-9 -9 6 -9 -16 -11 -20 -12
-9 -10 6 -8 -16 -10 -20 -11
-8 -10 6 -8 -16 -10 -20 -12
-7 -10 6 -8 -16 -10 -20 -12
-7 -10 6 -8 -16 -10 -20 -13
-6 -10 6 -8 -16 -10 -20 -13
-5 -9 5 -9 -16 -11 -19 -14
-5 -9 5 -9 -16 -11 -19 -14
-5 -8 5 -9 -16 -10 -19 -13
-5 -8 5 -9 -16 -10 -19 -12
-5 -8 5 -9 -16 -10 -19 -12
-6 -7 4 -9 -16 -9 -18 -11
-6 -7 4 -9 -16 -9 -18 -11
-7 -7 4 -9 -16 -9 -18 -11
-7 -7 4 -9 -16 -9 -18 -11
-7 -7 4 -9 -16 -9 -18 -11
-8 -8 4 -9 -16 -10 -18 -11
-8 -8 4 -9 -16 -10 -18 -11
-7 -9 4 -9 -16 -10 -18 -11
-7 -9 4 -9 -16 -10 -18 -11
-7 -9 4 -9 -16 -10 -18 -11
-6 -10 4 -10 -17 -10 -18 -11
-7 -10 4 -10 -17 -10 -18 -11
-8 -10 4 -11 -18 -10 -18 -11
-8 -10 4 -11 -18 -10 -18 -11
-9 -10 4 -11 -18 -10 -18 -11
-10 -10 4 -12 -19 -11 -17 -11
-10 -10 4 -12 -19 -11 -17 -10
-10 -10 4 -12 -19 -11 -17 -9
-10 -10 4 -12 -19 -11 -17 -8
-10 -10 4 -12 -19 -11 -17 -7
-9 -9 5 -13 -20 -12 -16 -6
-9 -9 5 -13 -20 -12 -16 -8
-9 -10 4 -14 -21 -13 -17 -9
-9 -10 4 -14 -22 -14 -18 -11
-9 -10 4 -14 -22 -14 -18 -12
-10 -11 3 -15 -23 -15 -19 -13
-10 -11 3 -15 -23 -16 -19 -13
-10 -11 3 -15 -23 -18 -19 -12
-10 -11 3 -15 -23 -19 -19 -12
-10 -11 3 -15 -23 -20 -19 -12
-9 -12 3 -16 -23 -21 -19 -11
-9 -12 3 -16 -23 -22 -19 -11
-9 -12 2 -16 -23 -24 -19 -12
-9 -12 2 -16 -23 -25 -19 -13
-9 -12 2 -16 -23 -26 -19 -13
-8 -12 1 -17 -24 -27 -20 -14
-8 -12 1 -17 -24 -27 -20 -13
-8 -12 1 -17 -25 -27 -20 -12
-8 -12 1 -17 -25 -27 -20 -12
-8 -12 1 -17 -25 -27 -20 -11
-9 -12 2 -17 -26 -28 -20 -10
-9 -12 2 -17 -26 -28 -20 -11
-9 -12 2 -17 -26 -29 -19 -12
-9 -12 2 -17 -26 -29 -19 -12
-9 -12 2 -17 -26 -29 -19 -13
-10 -12 2 -17 -26 -30 -18 -14
-9 -10 4 -15 -25 -29 -17 -12
-7 -8 6 -13 -23 -27 -16 -11
-6 -6 8 -11 -21 -26 -16 -9
-5 -4 10 -8 -19 -25 -15 -8
-4 -3 11 -7 -18 -24 -14 -7
-4 -3 11 -7 -18 -24 -14 -8
-4 -2 11 -7 -17 -24 -14 -9
-4 -2 11 -7 -17 -24 -14 -9
-4 -2 11 -7 -17 -24 -14 -10
-5 0 12 -6 -16 -23 -14 -11
-4 0 13 -6 -16 -23 -14 -11
-3 0 14 -5 -15 -23 -14 -10
-3 0 14 -4 -14 -23 -14 -9
-2 0 15 -4 -14 -23 -14 -9
0 -2 15 -3 -13 -23 -14 -8
1 -2 13 -3 -13 -22 -13 -8
2 -2 11 -4 -13 -21 -12 -8
2 -2 9 -4 -13 -21 -11 -8
3 -2 7 -4 -13 -20 -10 -8
4 0 5 -6 -13 -19 -9 -8
6 0 2 -8 -15 -21 -10 -8
8 -2 0 -10 -18 -23 -11 -7
9 -3 -4 -12 -20 -24 -12 -6
11 -3 -6 -14 -23 -26 -13 -6
11 -5 -8 -15 -24 -27 -14 -5
10 -6 -8 -16 -25 -29 -14 -7
8 -8 -8 -17 -27 -30 -15 -8
6 -10 -8 -17 -28 -32 -16 -10
4 -12 -8 -18 -29 -33 -16 -11
3 -13 -9 -19 -30 -34 -17 -12
2 -13 -9 -19 -30 -34 -17 -11
1 -14 -8 -19 -30 -34 -17 -10
0 -14 -7 -19 -30 -34 -17 -10
-2 -14 -7 -19 -30 -34 -17 -9
-3 -15 -6 -20 -30 -33 -17 -9
-5 -16 -6 -20 -31 -35 -19 -10
-6 -17 -6 -21 -32 -37 -21 -12
-8 -17 -6 -22 -32 -38 -22 -14
-9 -18 -6 -22 -33 -40 -24 -16
-10 -19 -7 -23 -34 -41 -25 -17
-10 -19 -7 -23 -34 -41 -25 -17
-10 -20 -7 -23 -35 -43 -25 -16
-10 -21 -7 -23 -35 -43 -25 -16
-10 -21 -7 -23 -35 -43 -25 -16
-11 -22 -6 -23 -36 -44 -26 -15
-11 -22 -6 -23 -36 -44 -26 -15
-12 -22 -6 -23 -36 -44 -26 -16
-12 -22 -6 -23 -36 -44 -26 -17
-12 -22 -6 -23 -36 -44 -26 -17
-13 -21 -7 -23 -36 -44 -26 -18
-13 -21 -7 -23 -36 -44 -26 -18
-13 -21 -7 -23 -36 -44 -26 -18
-13 -21 -7 -23 -36 -44 -26 -18
-13 -21 -7 -23 -36 -44 -26 -18
-12 -22 -6 -23 -37 -44 -27 -17
-12 -22 -6 -23 -37 -44 -27 -17
-12 -22 -6 -23 -36 -44 -27 -18
-12 -22 -6 -23 -36 -44 -27 -18
-12 -22 -6 -23 -36 -44 -27 -18
-12 -21 -5 -22 -35 -45 -27 -19
-12 -21 -5 -22 -35 -45 -27 -18
-12 -21 -5 -21 -35 -44 -27 -17
-12 -21 -5 -21 -35 -43 -27 -17
-12 -21 -5 -21 -35 -43 -27 -16
-13 -20 -5 -20 -34 -41 -27 -15
-13 -20 -5 -20 -34 -41 -27 -15
-13 -20 -5 -20 -34 -40 -27 -15
-13 -20 -5 -20 -34 -40 -27 -15
-13 -20 -5 -20 -34 -40 -27 -15
-13 -20 -5 -17 -32 -39 -26 -16
-13 -20 -2 -11 -28 -39 -26 -16
-14 -19 2 -6 -24 -39 -26 -16
-14 -19 5 0 -20 -39 -26 -16
-14 -19 8 5 -15 -39 -26 -16
-13 -17 13 16 -5 -33 -24 -16
-9 -15 18 30 12 -23 -21 -15
-5 -13 24 46 27 -13 -18 -13
0 -11 29 61 43 -3 -15 -12
5 -9 35 75 59 8 -12 -11
13 1 20 42 60 35 8 1
24 15 -14 -32 49 77 39 19
35 29 -47 -107 37 119 72 37
47 45 -80 -181 26 161 104 56
59 59 -114 -255 15 202 137 74
70 86 -159 -323 4 259 180 101
81 120 -215 -387 -9 325 233 134
93 156 -270 -449 -21 393 286 167
104 191 -325 -513 -32 460 340 200
115 227 -380 -576 -45 526 392 233
111 229 -395 -592 -57 531 397 238
94 202 -377 -568 -69 484 362 218
76 176 -358 -544 -82 437 326 197
59 148 -340 -520 -95 390 292 177
42 121 -321 -495 -107 342 256 156
26 97 -295 -463 -124 274 211 131
13 72 -263 -423 -147 189 158 101
-2 49 -230 -383 -170 104 105 70
-15 25 -197 -343 -191 18 53 40
-28 1 -165 -303 -214 -67 0 10
-33 -11 -140 -264 -207 -99 -25 -6
-30 -11 -121 -224 -176 -85 -25 -8
-26 -12 -103 -185 -144 -69 -26 -10
-22 -13 -83 -145 -112 -55 -26 -12
-18 -13 -65 -106 -80 -40 -26 -14
-16 -14 -51 -80 -61 -33 -26 -15
-15 -14 -40 -66 -54 -32 -24 -16
-14 -15 -31 -52 -46 -30 -22 -17
-13 -16 -21 -37 -38 -29 -20 -17
-12 -16 -11 -23 -30 -28 -18 -18
-11 -17 -5 -14 -26 -27 -16 -19
-11 -17 -3 -10 -24 -28 -17 -19
-10 -18 1 -6 -22 -30 -18 -18
-9 -18 3 -2 -21 -31 -19 -17
-9 -18 5 3 -19 -32 -20 -17
-8 -19 7 5 -18 -33 -21 -16
-8 -19 8 7 -16 -33 -22 -17
-8 -19 9 9 -15 -33 -23 -19
-8 -19 10 11 -14 -33 -23 -20
-8 -19 11 13 -12 -33 -24 -21
-8 -19 12 15 -11 -33 -25 -22
-7 -19 14 17 -9 -32 -24 -20
-6 -19 15 19 -8 -30 -23 -18
-6 -19 16 21 -7 -29 -22 -17
-5 -19 18 23 -5 -28 -21 -15
-4 -18 19 25 -4 -27 -20 -14
-4 -18 19 27 -2 -27 -20 -14
-5 -18 20 29 1 -26 -20 -15
-6 -18 20 30 2 -26 -20 -15
-6 -18 20 32 4 -26 -20 -15
-7 -18 21 33 5 -25 -19 -16
-6 -18 22 35 6 -24 -18 -15
-5 -17 23 37 7 -23 -17 -14
-5 -16 23 38 8 -23 -17 -13
-4 -16 24 40 9 -22 -16 -12
-3 -15 25 42 10 -21 -15 -11
-3 -15 25 43 10 -21 -15 -12
-3 -16 25 44 11 -21 -16 -13
-3 -17 25 44 11 -21 -16 -14
-3 -17 25 45 11 -21 -16 -15
-4 -18 25 47 13 -21 -17 -16
-3 -17 26 49 15 -19 -17 -15
-2 -16 27 52 17 -18 -17 -13
-2 -16 28 54 19 -17 -17 -12
0 -15 29 56 21 -15 -17 -11
1 -14 30 59 24 -14 -16 -10
1 -14 30 61 26 -14 -15 -10
1 -14 31 64 28 -13 -14 -11
1 -14 31 66 30 -12 -14 -12
1 -14 31 68 32 -12 -13 -12
0 -15 32 71 34 -10 -12 -13
0 -15 33 73 36 -8 -12 -13
0 -14 35 76 39 -6 -11 -13
0 -14 36 79 43 -4 -10 -13
0 -14 37 81 45 -2 -10 -13
1 -13 38 85 48 1 -9 -13
3 -12 38 89 50 2 -9 -13
4 -12 38 92 53 3 -9 -13
5 -11 39 95 56 5 -8 -13
7 -10 39 99 58 6 -8 -13
8 -9 42 103 61 8 -7 -13
8 -9 44 108 65 10 -5 -11
8 -9 46 112 68 12 -4 -10
7 -8 48 117 72 14 -3 -9
