I II V1 V2 V3 V4 V5 V6
-6 0 3 3 3 -12 -27 -2
-13 -1 11 15 5 -4 -26 -4
-16 4 8 8 2 -12 -17 -7
-19 0 5 12 0 -16 -21 -9
-9 12 3 -1 -5 -18 -21 -15
6 12 12 4 5 -15 -26 -5
6 6 8 2 9 -6 -24 5
3 4 5 3 17 -9 -13 1
-1 -5 5 2 11 -10 -19 -3
-1 -7 7 4 3 -13 -20 -7
-3 -2 4 -1 0 -13 -20 -10
-8 1 2 -8 6 -15 -25 -6
-7 -2 6 4 12 -10 -20 2
-8 -7 9 10 7 6 -18 -1
-15 -6 7 4 3 -17 -28 -10
-20 -5 2 -10 -4 -22 -31 -17
-15 1 1 -3 3 -14 -22 -12
-9 11 0 3 1 -15 -22 0
-4 14 5 4 2 -8 -19 -3
1 9 8 8 3 -5 -8 -3
6 13 12 -2 7 -2 -17 -1
9 12 13 3 6 -3 -19 -3
-2 3 13 13 11 -9 -16 -7
-6 1 12 3 7 -13 -15 -9
-8 -2 4 5 0 -10 -20 -4
-7 -10 8 7 4 -11 -23 -1
-6 -6 8 3 9 -12 -22 -1
-4 -6 7 8 5 -8 -20 -2
2 0 6 1 1 -16 -17 -3
2 11 11 3 -1 -24 -17 -7
0 7 12 4 -2 -15 -17 -4
-1 7 13 5 -1 -4 -15 2
-1 10 8 5 2 -10 -11 -3
2 2 9 5 2 -19 -11 -5
-1 -5 9 4 4 -17 -10 -9
-5 -7 13 0 3 -8 -20 -1
-4 2 10 -5 -3 -16 -18 -2
-5 6 -3 -17 -6 -28 -21 -17
-14 11 -4 -15 -6 -25 -22 -12
-16 1 2 -9 5 -15 -12 -2
-10 0 4 1 4 -13 -14 1
-6 1 10 -1 3 -14 -5 0
-6 8 12 0 3 -21 -12 -11
-10 5 10 -6 0 -8 -22 -9
-8 2 15 5 11 4 -13 -3
-2 11 11 4 14 -7 -9 6
-8 10 6 -1 -1 -17 -12 -3
-16 2 5 -5 0 -14 -19 -4
-11 -7 1 -5 -1 -16 -17 2
-8 -2 3 -6 -7 -18 -22 -5
-10 -2 7 -1 -2 -16 -13 -11
-13 -3 1 -5 -9 -19 -17 -10
-10 -1 10 -3 -3 -23 -10 -7
-5 3 13 2 3 -16 -6 -7
-5 7 7 5 4 -23 -14 -6
-3 10 6 17 5 -13 -16 8
-2 12 5 21 4 -8 -9 1
0 29 5 16 -3 -14 -15 -7
-2 25 10 10 5 -9 -3 -2
-4 12 13 7 8 -10 9 0
-3 14 13 13 6 -19 -5 -1
-6 19 12 9 6 -13 -9 -4
-3 19 9 7 5 -6 -6 -4
-6 14 15 18 11 -9 -6 3
-7 14 13 8 15 -16 -3 10
1 18 9 6 5 -19 -3 14
7 20 7 5 8 -16 4 9
3 27 7 9 13 1 3 6
1 30 8 15 18 -2 0 15
-3 29 13 14 11 -12 0 10
-7 21 13 14 6 -4 6 4
-5 35 8 10 7 -10 8 7
-6 36 2 -4 5 -17 15 5
-10 24 1 -4 1 -20 2 0
-14 34 -6 -12 -5 -24 -3 0
-18 20 -8 -20 0 -27 -2 5
-10 25 -5 -13 -1 -25 -6 2
-7 24 -3 -15 -6 -16 2 11
-10 24 -3 -12 -4 -8 10 18
4 33 -3 -9 4 -13 10 12
8 37 -9 -9 5 -17 3 15
-3 33 0 -1 6 -20 -3 10
-7 30 10 -3 6 -18 -6 2
-10 19 8 4 5 -14 -3 3
-16 14 5 4 5 -21 -1 7
-13 15 2 0 8 -20 1 11
-5 20 0 6 5 -16 5 6
5 25 0 3 3 -13 5 1
5 30 1 9 -4 -22 -2 3
3 19 0 12 -2 -22 -3 0
5 9 -2 -10 1 -23 -4 -6
-7 2 1 -9 -4 -27 -9 -9
-14 4 -2 -10 -9 -25 -6 -11
-9 -15 1 -11 -10 -25 -4 -10
-8 -12 -1 -13 -8 -28 -10 -14
-6 2 -1 -19 -11 -30 -18 -11
-11 6 3 -18 -9 -32 -19 -11
-8 -2 6 -14 -7 -30 -12 -15
-11 -4 -2 -16 -13 -37 -14 -12
-14 5 -7 -24 -25 -37 -20 -17
-13 0 -1 -22 -19 -33 -14 -5
-9 3 2 -15 -19 -36 -9 -6
-1 7 3 -11 -13 -40 -8 -14
2 8 3 -13 -11 -40 -8 -12
-5 16 -6 -16 -21 -45 -12 -16
-8 0 2 -15 -16 -29 -12 -9
-8 -5 3 -19 -16 -31 -8 -6
-11 -12 -2 -19 -18 -32 -7 -8
-9 -12 1 -21 -20 -27 -8 -11
-10 -12 -2 -15 -21 -30 -15 -12
-16 -7 -5 -20 -22 -26 -15 -16
-14 0 -6 -19 -15 -33 -22 -21
-5 -3 6 -11 -13 -39 -15 -11
-7 -5 10 -11 -16 -32 -11 -11
-10 -1 0 -17 -12 -34 -14 -14
-12 -2 0 -15 -6 -36 -16 -15
-6 4 -3 -16 -14 -37 -19 -8
-7 4 -1 -18 -15 -35 -10 -8
-13 0 8 -10 -11 -28 -13 -12
-18 4 11 1 1 -23 -18 -20
-19 2 28 31 27 -22 -17 -20
-12 -6 35 56 52 -12 -21 -20
-10 -5 42 103 82 12 -17 -20
0 6 62 166 136 38 -10 -21
20 17 78 202 179 58 3 -6
21 23 83 197 195 78 24 10
25 38 78 195 211 114 59 24
36 60 56 165 203 143 100 49
43 82 27 89 160 181 153 102
50 121 -7 -8 111 212 213 163
52 160 -34 -92 74 250 274 213
55 184 -70 -177 28 279 337 259
52 220 -97 -271 -34 299 379 308
42 228 -120 -352 -88 280 386 330
38 202 -138 -409 -149 227 357 306
29 160 -146 -442 -204 165 311 275
8 124 -155 -462 -257 91 233 213
-22 86 -145 -477 -310 -16 116 142
-39 63 -148 -494 -356 -112 17 77
-56 50 -144 -487 -394 -208 -60 25
-66 44 -127 -466 -413 -260 -97 -7
-67 36 -121 -437 -401 -276 -113 -27
-63 3 -104 -387 -358 -252 -114 -31
-59 -15 -95 -334 -316 -230 -112 -42
-54 -24 -81 -280 -272 -208 -97 -43
-51 -20 -68 -246 -237 -186 -89 -43
-50 -1 -69 -215 -206 -164 -81 -44
-46 -2 -63 -187 -173 -138 -72 -40
-31 -2 -53 -138 -135 -103 -54 -26
-17 14 -45 -105 -105 -85 -47 -24
-15 5 -25 -69 -76 -70 -37 -20
-8 -4 -14 -43 -47 -56 -26 -16
-3 -2 -8 -23 -24 -38 -12 -10
1 -12 5 -11 -12 -31 -9 -12
-3 -9 1 -7 -8 -30 -12 -11
0 -11 -2 -1 -8 -24 -15 -16
2 -11 -4 -11 -9 -22 -13 -21
-1 -5 -4 -15 -9 -29 -17 -20
-3 -12 0 -3 -4 -18 -16 -13
-5 -11 3 -1 -7 -27 -12 -15
-10 -14 0 3 -1 -37 -20 -18
-12 -9 -2 9 -3 -28 -20 -16
-8 -16 0 9 -2 -22 -19 -24
0 -5 -9 8 -3 -29 -19 -19
4 -7 -4 8 0 -29 -17 -12
-4 -11 -1 5 6 -30 -18 -18
-12 -16 -1 12 5 -22 -17 -17
-2 -14 2 19 7 -13 -10 -20
-4 -2 0 15 4 -30 -10 -22
-5 1 3 18 8 -32 -10 -10
-6 -3 -5 21 3 -27 -11 -15
-10 -6 -2 27 4 -19 -7 -13
-5 -4 0 21 8 -21 -12 -18
-3 -7 3 15 7 -19 -15 -23
-2 1 5 19 9 -22 -9 -25
8 8 1 17 14 -21 -13 -20
9 10 -2 17 8 -17 -12 -20
4 2 -7 16 5 -6 -10 -22
-2 -5 -1 34 15 -13 -12 -16
6 -3 -2 39 13 -16 -12 -14
9 3 -1 32 20 -10 -13 -23
6 0 0 29 27 -5 -15 -24
6 4 -4 25 15 -11 -15 -13
3 6 -7 27 14 -13 -16 -14
5 3 -6 23 20 -6 -19 -24
0 -3 0 26 25 -9 -15 -19
-6 8 -3 26 26 -14 -15 -17
-2 3 1 28 26 -2 -14 -7
8 2 9 42 31 7 -5 -4
13 15 4 45 28 -2 -13 -14
11 2 11 49 33 7 -5 -12
11 2 9 48 39 8 -1 -15
10 4 9 45 31 2 -4 -6
10 12 3 41 33 -2 -11 -9
8 9 2 43 30 1 -11 -18
5 10 0 42 30 3 -8 -15
8 7 2 48 33 -4 -7 -11
17 12 0 49 34 3 -12 -15
11 12 -2 54 36 7 -5 -15
8 10 3 54 40 2 -8 -15
8 6 8 60 49 7 -6 -15
5 4 9 63 53 13 -2 -12
0 -7 8 69 64 16 -1 -8
1 -1 3 63 55 13 -8 -13
4 -10 10 67 47 19 -1 -6
6 -6 14 68 49 17 -5 -5
4 11 8 64 46 13 -9 -9
3 11 2 69 46 17 -3 -4
11 10 4 72 53 19 4 -5
14 20 12 79 72 18 3 -2
14 20 12 85 71 23 6 3
14 13 12 95 70 38 6 4
19 10 11 100 73 41 9 1
17 5 9 97 73 39 8 3
18 4 16 96 77 46 9 10
18 15 10 93 72 40 7 -2
20 17 6 88 69 38 7 -5
24 23 7 100 66 37 2 -6
23 25 3 105 73 31 12 -7
18 12 8 96 81 34 12 -5
20 12 8 97 76 38 7 4
24 5 9 102 87 41 10 3
29 15 6 110 91 47 6 4
28 9 8 114 89 48 15 6
30 8 5 108 89 46 15 4
27 12 0 103 90 37 17 2
22 10 2 101 95 43 22 8
30 10 6 117 91 48 19 11
32 13 9 120 86 52 21 8
25 10 7 116 89 61 20 16
27 18 3 114 96 52 15 13
31 22 10 117 87 54 18 20
32 25 10 121 85 57 20 20
32 28 7 127 89 60 24 17
35 27 1 118 90 54 31 14
34 25 4 109 88 55 39 19
37 15 -3 111 85 59 38 33
35 24 -7 107 90 56 30 27
36 25 -1 107 85 57 27 22
34 31 -3 103 81 58 25 20
37 37 -7 106 79 53 30 20
44 26 -3 106 82 53 31 25
39 28 -7 99 77 52 33 24
34 21 -1 92 79 58 33 29
28 22 3 90 70 53 35 29
21 18 -3 84 70 53 45 29
31 15 -4 74 61 49 37 33
33 20 -4 70 56 39 28 26
28 22 -6 55 44 37 27 20
25 29 -6 57 52 32 25 22
34 31 -5 63 61 38 30 28
30 28 -3 61 50 44 23 23
18 28 3 49 39 38 17 24
10 14 6 44 46 32 20 28
15 33 1 35 43 25 19 16
18 34 0 36 43 36 21 16
28 28 -9 27 40 31 17 20
26 26 -4 21 25 23 7 13
13 24 -4 24 21 15 5 3
5 23 -7 8 15 9 7 1
3 16 -1 11 20 8 15 18
5 22 -4 15 15 3 3 7
11 33 4 6 14 1 0 -1
7 21 9 8 17 3 4 2
4 20 8 6 8 15 4 4
1 18 7 0 5 21 1 15
-1 19 7 -4 5 11 9 10
-2 12 8 3 4 3 7 1
-7 8 13 4 4 8 1 10
-5 6 12 1 5 0 -9 6
1 31 3 -6 -6 -3 -10 -4
0 31 0 -12 -1 -8 -10 -13
5 36 -2 -17 -2 -6 -13 -18
3 34 -5 -15 -5 -7 -15 -14
1 24 -2 -22 0 -7 -11 -5
2 28 -3 -27 -5 -3 -15 -9
-4 21 -2 -24 -8 -4 -14 -7
-8 26 -3 -23 -6 -8 -16 -12
-7 16 1 -9 -2 -6 -16 -13
-8 7 1 -2 -4 -2 -15 -12
-5 14 3 -9 -12 -2 -13 -15
-7 16 1 -13 -11 -10 -11 -9
-8 18 3 -12 -7 -6 -9 -10
-6 21 -1 -17 -10 -5 -20 -16
-10 18 -4 -25 -10 -3 -12 -15
-8 15 1 -23 -12 4 -8 -13
-1 7 0 -26 -10 -5 -9 -14
-4 6 -2 -26 -2 -9 -10 -12
-14 12 7 -19 0 1 -12 -9
-11 9 2 -15 -8 0 -5 2
-14 0 -1 -20 -12 -8 -10 -2
-17 -1 0 -22 -3 -7 -14 -7
-10 4 2 -12 0 -9 -17 3
-4 20 0 -14 -3 -9 -19 1
-2 21 4 -15 -9 2 -19 -6
-8 19 1 -23 -6 -14 -18 -10
-11 14 1 -17 -2 -6 -9 -2
-8 12 -2 -20 -2 -6 -10 -7
-4 16 -5 -13 -12 -10 -16 -13
-7 13 3 -10 -9 -1 -19 -6
-8 15 12 -17 -12 -6 -14 -11
-9 11 3 -20 -15 -9 -13 -15
-15 9 -1 -21 -13 -10 -16 -12
-9 -1 3 -21 -9 -3 -15 -6
-5 0 2 -15 -4 -1 -14 -6
-4 13 2 -14 -12 -9 -20 -14
-10 6 0 -21 -7 -8 -16 -11
-9 6 3 -13 -7 3 -14 -15
-12 4 5 -12 -9 0 -11 -14
-16 18 2 -23 -18 -15 -14 -24
-7 12 0 -25 -12 -10 -16 -14
-5 -5 2 -11 -5 -8 -15 -7
-14 -5 1 -9 -5 -12 -18 -12
-11 4 0 -14 5 -9 -11 -10
-10 6 1 -17 -5 -3 -13 -9
-4 9 0 -12 -6 -4 -15 -14
2 14 -3 -16 -5 0 -16 -17
2 17 0 -15 -12 -11 -24 -20
-6 13 2 -8 -2 1 -17 -19
-9 10 -1 -12 -4 9 -16 -12
-9 4 0 -15 0 -2 -15 -9
-13 -6 -3 -20 -1 -3 -18 -4
-8 4 1 -17 -8 1 -14 -9
6 17 1 -13 -1 3 -14 -4
2 19 2 -12 2 -1 -19 -4
-8 12 5 -20 -3 -3 -13 -2
-7 13 2 -22 -7 -6 -14 -5
-7 13 2 -18 -8 -6 -17 -15
-7 15 -3 -12 -8 -4 -17 -16
-7 11 -2 -10 -8 4 -9 -7
-4 4 -4 -13 -10 3 -14 -11
-5 -2 1 -13 -6 0 -12 -16
-7 -4 12 -15 3 1 -9 -7
-10 3 2 -14 -5 -13 -14 -11
-10 5 -2 -15 -2 -5 -18 -15
-11 16 2 -14 -4 -6 -15 -15
-14 13 0 -11 -9 -8 -19 -7
-15 5 -3 -9 -6 5 -16 1
-9 5 4 -4 -5 3 -9 -5
-7 19 2 -10 -6 -4 -18 -11
-2 16 2 -8 3 5 -12 -5
-1 0 -2 -5 8 -2 -9 -2
-7 7 5 -7 4 -6 -7 -3
-13 9 4 -8 -2 3 -7 -10
-14 5 7 -3 2 8 -9 -8
-13 9 -2 -10 -1 5 -11 -6
-18 7 -5 2 -7 -2 -9 0
-24 2 0 4 4 -2 -8 -8
-29 -5 -2 -3 2 -7 -3 -16
-21 -15 0 2 -4 -7 -6 -11
-11 2 -4 -1 3 -1 -11 -10
-7 4 0 -4 3 -3 -13 -11
-5 3 3 0 -3 8 -6 -10
-3 12 4 2 5 6 -10 -13
-7 12 6 -4 0 6 -8 -14
-6 6 7 1 -2 13 -7 -4
-7 8 3 2 0 6 -9 -6
-6 16 -1 -6 -1 -1 -12 0
-3 19 0 -10 -6 -3 -11 -9
-6 22 -4 -10 -6 -4 -16 -17
-15 4 0 -4 -2 0 -6 -9
-14 0 7 0 -4 6 -9 -15
-12 4 1 3 -2 0 -15 -13
-13 15 4 -12 -1 -9 -12 -9
-13 2 -3 -16 -5 -10 -20 -14
-14 -4 -7 -16 -11 -10 -16 -18
-15 -10 1 -11 -12 -5 -5 -13
-16 -3 2 -6 -8 -2 -13 -10
-13 -6 6 -1 -6 -1 -13 -9
-14 4 5 -2 -6 -3 -10 -2
-21 -3 15 -2 -5 -1 -11 -7
-21 -3 9 3 -9 -4 -13 -15
-11 4 15 3 -9 -3 -14 -14
-8 -1 14 3 -11 -3 -13 -5
-9 -3 7 3 -4 -8 0 -11
-14 -3 9 -4 2 -1 -5 -15
-14 7 8 -13 -14 -5 -16 -15
-18 0 1 -14 -12 0 -18 -14
-23 -20 0 -4 -6 -6 -14 -13
-26 -18 0 -5 -14 -5 -21 -10
-23 -15 2 -12 -10 -7 -22 -17
-17 -8 9 -6 -4 -9 -12 -11
-14 0 14 4 -4 -4 -6 -7
-12 5 10 -2 1 5 -5 -11
-13 9 6 2 -2 7 -1 -6
-18 6 8 6 4 5 -2 -6
-21 5 8 4 3 1 -2 -6
-9 12 17 4 9 2 3 2
-4 28 15 7 6 8 7 -3
-9 13 18 12 7 6 4 -2
-8 13 14 7 5 5 1 7
-11 16 10 5 7 6 -6 4
-13 12 10 5 10 1 -8 2
-21 1 14 1 6 1 -2 -5
-26 -8 5 6 -3 0 -5 -2
-22 -1 7 9 -3 -4 -5 -6
-9 8 8 7 -1 0 -1 -2
1 20 11 11 5 14 10 5
3 27 13 25 15 14 17 6
-6 20 7 19 11 13 14 8
-11 19 9 19 7 15 12 7
-15 20 7 15 5 13 17 14
-18 22 7 5 3 4 8 9
-20 24 0 2 0 4 6 12
-22 14 -4 -4 -5 2 5 14
-20 20 -8 -1 1 -1 -1 0
-12 23 -7 -6 -3 -1 -1 -6
-12 24 -5 -10 -7 -3 5 -7
-13 20 -3 -3 -12 8 4 -2
-12 13 0 1 -4 7 -1 1
-14 2 1 10 5 12 5 2
-8 3 0 4 -1 13 9 9
0 17 -2 1 -2 8 5 12
-4 19 -2 -3 -4 0 -1 3
-5 7 1 0 -1 4 0 8
-7 1 3 -3 -4 6 5 1
-9 2 2 1 -3 9 9 5
-13 0 11 7 4 8 10 11
-20 -1 7 15 -4 7 6 10
-19 -5 1 14 -4 4 2 -6
-17 6 0 0 -5 -7 1 -10
-18 -4 8 1 1 -5 1 -1
-15 -7 6 6 -4 4 4 1
-19 -12 6 13 -7 3 -8 -4
-26 -9 4 4 -14 -7 -16 4
-24 -5 -4 -7 -14 -10 -19 -8
-16 -13 -2 -3 -16 -5 -11 0
-14 -20 2 3 -14 -1 -6 2
-19 -22 3 1 -14 -7 -4 -6
-23 -16 8 -2 -22 -1 -13 -8
-22 -6 1 -5 -21 -7 -11 -16
-20 -12 -6 -1 -25 -19 -15 -17
-23 -26 -2 -6 -16 -14 -16 -3
-34 -23 3 -9 -17 -9 -9 -7
-31 -30 1 -6 -17 -10 -10 -5
-29 -27 0 7 -13 -5 -6 -4
-32 -32 2 3 -15 -3 -3 -6
-29 -31 3 -1 -13 -8 -9 -15
-16 -29 4 -4 -13 -5 5 -11
-22 -30 5 -1 -16 0 -2 -4
-19 -28 4 8 -11 -8 -14 -4
-18 -20 8 8 -12 -5 -12 0
-14 -13 4 -4 -12 -11 -6 -3
-9 -13 7 -1 -13 -15 -1 -4
-10 -22 5 0 -16 -12 -11 -14
-20 -24 -1 2 -19 -9 -13 -13
-29 -24 -3 -8 -15 -17 -15 -16
-36 -33 -2 -3 -6 -13 -16 -19
-31 -30 3 7 -1 -3 -13 -16
-27 -26 17 16 8 -3 -13 -12
-21 -14 34 46 25 2 -7 -15
-16 -5 46 74 59 12 -9 -18
-17 -5 60 122 91 29 -10 -17
-11 -13 89 196 151 58 -2 -20
-6 -4 92 232 171 71 6 -22
4 10 91 223 190 95 27 -5
18 30 85 201 192 123 55 23
29 53 63 161 180 154 94 53
33 71 30 74 167 184 151 101
37 110 -3 -27 122 228 212 153
43 150 -34 -120 91 275 276 213
54 187 -74 -216 51 309 337 270
60 217 -114 -300 2 336 376 309
59 221 -146 -368 -47 327 390 316
55 197 -172 -421 -115 286 361 307
48 165 -187 -448 -169 229 311 279
28 119 -183 -467 -214 157 250 244
-2 82 -172 -481 -268 60 156 174
-31 47 -179 -487 -323 -58 41 91
-55 20 -164 -479 -366 -151 -28 49
-76 7 -144 -461 -390 -221 -72 12
-79 -11 -137 -422 -379 -227 -87 -6
-65 -28 -128 -369 -336 -208 -89 -13
-57 -35 -110 -310 -291 -186 -81 -19
-60 -37 -85 -254 -248 -163 -72 -15
-51 -25 -75 -214 -218 -142 -69 -19
-51 -12 -69 -190 -186 -116 -64 -24
-41 -8 -69 -148 -152 -96 -55 -19
-29 -5 -56 -112 -121 -74 -43 -17
-23 -2 -38 -75 -90 -62 -35 -18
-19 -16 -20 -38 -53 -50 -20 -9
-16 -25 -11 -9 -35 -31 -9 -1
-9 -21 -2 7 -17 -15 -7 -2
-17 -31 2 10 -6 -9 -7 0
-26 -38 -3 11 -10 -11 -19 -11
-32 -46 6 12 -10 -8 -15 -11
-25 -41 8 12 -8 -16 -12 -14
-9 -30 6 24 -11 -18 -19 -15
-3 -25 12 24 -9 -14 -18 -14
-7 -15 7 21 0 -17 -16 -17
-6 -24 16 29 12 -16 -3 -14
-8 -23 17 34 10 -17 -8 -16
-13 -27 11 35 6 -18 -6 -20
-19 -31 12 32 7 -8 -10 -24
-21 -38 10 32 4 -10 -9 -25
-18 -37 8 30 1 -14 -9 -25
-14 -38 2 32 3 -12 -12 -25
-11 -31 6 34 9 -8 -9 -15
-1 -25 15 37 15 -11 -9 -16
1 -25 13 36 14 -11 -12 -18
-12 -35 16 41 19 1 -11 -8
-12 -33 15 52 21 17 -7 1
-10 -32 16 53 18 8 -6 -16
-8 -24 12 46 15 1 -11 -19
-6 -30 8 37 14 -8 -7 -14
-3 -38 9 41 25 -5 -6 -11
-4 -29 10 39 22 0 -12 -14
-2 -22 15 46 18 -4 -10 -15
-3 -29 13 54 9 -5 -10 -13
-6 -19 6 51 9 -7 -17 -21
-18 -27 16 54 12 -4 -13 -18
-20 -32 11 47 18 -7 -13 -13
-12 -27 11 51 31 -5 -15 -12
-9 -18 8 51 36 0 -8 -21
-8 -27 14 52 31 10 -8 -14
-4 -24 10 54 25 11 -10 -17
-4 -30 9 59 27 15 -8 -14
-4 -26 12 71 29 7 -4 -6
-1 -27 16 71 27 4 -3 -19
-4 -36 16 63 38 7 -12 -9
-4 -39 20 67 34 3 -9 4
3 -30 13 69 39 5 -10 -1
7 -19 12 68 35 1 -6 -2
3 -21 16 75 39 4 -4 4
0 -20 18 84 45 15 1 0
-3 -19 11 78 45 12 -3 2
-3 -19 15 72 38 5 -3 2
-5 -25 17 82 41 13 -5 0
-10 -36 18 83 41 11 -3 0
-12 -36 15 81 41 10 1 4
-2 -28 13 82 43 11 0 2
6 -21 15 91 47 13 -3 1
2 -22 20 99 49 11 -1 -2
0 -21 20 97 63 14 11 3
-3 -24 25 100 64 20 8 9
3 -19 21 97 53 30 3 16
7 -11 20 96 53 26 9 10
6 -9 22 98 59 31 12 17
3 -7 26 105 64 22 7 12
-1 -26 28 115 69 20 11 13
2 -27 27 112 70 30 9 12
10 -21 27 123 74 33 9 9
16 -20 22 121 74 26 9 10
14 -10 19 112 76 29 6 8
11 -11 19 116 77 28 3 7
8 -13 18 119 83 31 4 4
12 -19 25 125 84 43 18 10
9 -15 24 123 73 35 14 17
6 -14 24 126 81 43 9 16
10 -13 23 139 90 49 11 19
11 -22 25 134 100 46 16 15
23 -18 31 143 104 48 23 21
30 -11 30 148 102 50 22 22
25 -4 22 140 89 52 25 16
24 -5 19 140 92 54 18 16
23 -3 19 145 96 57 17 19
24 -6 20 150 90 57 24 21
25 -7 25 149 93 54 33 25
21 -5 27 143 90 50 23 25
19 -5 22 142 87 49 22 24
25 -15 24 144 94 56 26 26
28 -12 26 146 91 55 23 27
32 0 16 142 90 53 23 24
29 -1 18 144 90 47 20 28
31 -8 17 144 95 49 25 32
33 -12 16 140 96 54 32 37
25 -13 18 138 90 56 38 33
27 -6 15 133 83 54 27 27
30 -10 11 135 87 60 25 33
30 -8 17 147 82 65 27 38
32 -5 17 148 91 61 39 43
31 -2 15 140 108 58 40 39
34 9 15 130 89 59 36 40
36 10 11 119 86 57 38 44
27 0 10 116 85 51 37 45
20 -2 10 115 75 48 34 34
22 -5 13 110 75 46 31 35
24 -7 11 99 64 46 34 38
24 -3 9 99 64 41 30 48
26 -1 1 96 59 46 27 41
19 -3 6 92 64 41 33 36
12 -4 8 89 65 42 31 38
6 -2 10 81 59 39 26 36
6 -3 7 73 59 34 31 38
10 -4 8 62 45 28 24 38
8 10 0 54 29 26 20 25
5 5 3 51 32 34 26 26
3 -2 5 47 27 34 24 28
5 0 9 48 27 37 22 31
11 6 9 50 33 25 19 33
9 8 8 39 31 17 18 30
4 6 4 30 21 15 13 21
4 4 5 27 25 15 15 21
-1 -1 7 34 29 15 17 20
-1 6 13 32 26 15 11 26
-7 -1 8 15 18 11 3 26
-9 0 4 13 13 13 4 19
-8 -4 10 18 11 8 12 12
-8 0 12 26 4 1 7 10
-6 3 6 10 2 1 2 11
-14 -16 12 14 15 -2 3 17
-18 -22 18 10 14 3 3 10
-20 -16 15 12 11 8 5 13
-18 -7 7 9 4 5 0 12
-4 -3 6 13 11 2 0 10
2 3 2 3 2 1 0 3
-9 -3 4 1 6 0 4 3
-16 -10 17 12 16 7 5 8
-13 -12 12 6 5 3 5 6
-7 -7 3 4 1 -1 -4 -2
-10 -10 7 10 7 -3 -2 2
-14 -9 6 10 -1 -6 -4 1
-17 -23 10 5 6 3 6 9
-17 -28 18 5 1 -3 -2 9
-17 -25 6 5 -4 -7 -4 2
-10 -14 10 4 -4 -7 -2 -4
-2 -12 10 5 -1 -8 3 -2
-6 -14 7 -1 0 -11 1 6
-5 -12 11 6 2 0 -4 10
-10 -14 15 9 4 2 0 8
-14 -8 8 3 3 -3 1 8
-17 -7 8 1 6 2 0 6
-21 -15 7 7 1 -4 3 13
-21 -19 11 8 3 -6 2 17
-17 -18 13 -1 2 3 1 9
-9 -12 11 -3 1 -4 0 5
-7 -14 6 0 2 -5 5 4
-12 -13 0 5 -3 -7 -2 -1
-9 -12 0 -1 -3 -9 -9 -4
-12 -16 3 -1 2 -5 -1 -3
-14 -15 8 0 3 -3 0 -2
-14 -20 11 1 2 -2 0 -2
-14 -23 12 -2 2 -7 0 3
-13 -18 13 -7 3 -4 -1 -1
-15 -13 18 -1 -3 -3 0 -6
-16 -15 12 0 -2 0 -3 -6
-14 -18 14 7 -3 -1 2 2
-13 -23 15 5 8 4 5 6
-22 -26 16 6 12 16 4 9
-21 -24 12 7 12 3 7 18
-17 -19 10 -1 2 -5 8 10
-22 -23 10 -4 -4 -4 -5 -4
-23 -28 10 4 -5 -11 -12 -8
-23 -30 4 -4 -1 1 -9 -9
-19 -26 7 -5 2 6 -5 3
-11 -4 5 -8 5 3 -3 1
-9 1 7 -7 7 2 -2 2
-11 -13 9 -5 -2 -1 -2 5
-17 -10 2 7 4 0 0 5
-11 -11 4 9 1 2 -8 4
-4 -10 7 -1 2 -3 -3 -1
-1 -13 9 -1 3 3 -1 3
-2 -12 9 4 8 5 1 4
2 -12 10 14 10 -2 7 3
-4 -12 12 5 13 -6 6 -1
-7 -17 13 9 9 6 2 4
-10 -14 12 6 3 6 2 -1
-12 -14 6 0 -4 -7 -7 -11
-18 -19 5 -2 -7 -3 -4 -6
-14 -17 6 -2 -3 -3 -11 -8
-6 -6 6 -2 -2 -12 -15 -13
-7 -10 18 2 -3 -8 -10 -6
-8 -16 15 11 2 1 4 -8
-16 -14 13 11 8 -2 4 1
-17 -14 5 -1 6 -2 -1 0
-14 -8 7 2 6 0 2 -7
-12 -7 13 8 10 3 9 3
-11 -14 13 4 3 -5 1 -4
-10 -9 14 1 6 -5 -9 -13
-10 -17 12 13 5 4 -6 -6
-7 -7 9 5 3 4 -1 -7
-2 -16 14 9 9 0 2 -4
-7 -13 13 2 6 -1 1 -9
-10 -14 11 -2 -5 -3 0 -12
-8 -20 13 10 -1 3 2 0
-6 -17 16 6 5 0 -2 6
-10 -11 8 -1 4 -9 -9 0
-14 -27 8 1 5 2 1 -7
-16 -32 8 8 3 8 -4 -8
-8 -19 17 5 8 -1 -4 -3
-11 -11 8 1 2 -6 -3 4
-15 -22 10 6 8 8 4 -3
-12 -17 13 1 6 12 -2 -10
-14 -20 8 -5 1 8 -2 -2
-9 -9 5 2 6 0 -3 -2
-12 -9 11 0 6 -1 -9 -3
-10 -12 5 4 -2 0 -3 -12
-6 -15 11 4 -3 -6 1 -6
-4 -16 10 3 -1 -5 -5 3
-12 -26 8 1 6 -2 -3 -1
-19 -34 10 3 9 10 4 -7
-17 -25 10 5 5 13 2 -9
-12 -16 10 8 13 5 -5 -13
-12 -18 10 5 10 1 -5 -9
-11 -9 8 -6 -9 -6 -7 -6
-11 -18 6 3 1 -1 -6 -13
-9 -14 4 -1 1 -3 -9 -12
-10 -16 8 2 4 -2 -6 -5
-6 -7 3 -4 6 -10 -4 -12
-4 -10 8 -5 15 -1 -9 -6
0 -20 13 -3 0 6 -4 -3
0 -15 4 -3 -3 5 -5 -16
-1 -13 6 -4 2 10 -3 -15
-6 -8 5 -5 -1 -5 -8 -12
-16 -7 7 -12 -4 -9 -15 -12
-11 -14 9 -8 -6 -9 -12 -6
-8 -20 7 -1 0 -9 -10 -11
-11 -13 -2 -10 -14 -18 -11 -23
-12 -19 -2 -10 -8 -9 -10 -14
-9 -18 1 -15 -2 0 -7 -19
-4 -9 7 -13 -3 -7 -5 -13
-3 -13 9 2 3 -4 -4 -14
-3 -21 8 7 5 -8 -5 -21
-4 -21 14 7 -2 -9 -8 -8
-6 -16 8 -1 -4 -6 -9 -13
-16 -21 7 -2 5 2 -8 -12
-19 -18 6 -10 0 1 -9 -22
-17 -18 3 -15 -9 -8 -15 -14
-16 -26 0 -12 0 -7 -15 -13
-15 -26 -1 -9 -8 -5 -4 -18
-16 -16 1 -9 -8 -6 -14 -15
-6 -11 5 -11 -8 -8 -13 -22
-3 -7 3 -8 -9 -4 -9 -27
-4 -3 3 -3 -8 -1 -15 -26
-4 -8 0 -13 5 -8 -5 -18
-7 -16 3 -17 1 -6 -3 -16
1 -8 -1 -16 -5 -8 -10 -18
-2 -3 1 -2 0 -6 -10 -17
-9 -9 5 -1 3 11 -11 -15
-4 -13 11 2 -4 7 -6 -16
-8 -11 9 9 -2 -12 -7 -13
-19 -13 6 0 -6 -7 -8 -8
-22 -14 4 -11 -7 -6 -9 -17
-20 -14 5 -6 0 -6 0 -19
-7 -1 8 -9 -2 -3 -1 -23
-1 11 9 -3 5 2 -1 -15
-5 0 13 5 10 10 -1 -13
-4 -9 14 4 4 16 -7 -14
7 1 5 0 -6 2 -6 -22
11 8 11 -4 2 -7 -3 -14
11 10 5 -3 10 -12 -11 -10
12 7 3 3 9 -6 -6 -8
2 10 3 -5 -3 2 -5 -7
-1 22 3 -10 0 2 -14 -20
3 5 4 -3 6 0 -9 -11
1 9 11 3 9 9 -4 5
-3 7 14 4 12 11 8 -4
-5 5 13 -2 16 8 3 6
-6 9 8 -6 11 12 -6 2
-6 21 0 -17 -1 4 -7 -10
-6 24 -1 -18 -4 -5 -4 -8
-5 24 -3 -23 -11 -4 -10 -4
-7 10 -9 -25 -11 -6 -8 -5
-4 7 -5 -18 -10 5 -4 0
-5 16 -6 -20 -9 -1 -5 -6
-2 15 -2 -16 -3 1 3 -5
5 11 1 -9 2 8 13 6
4 12 -6 -5 1 6 10 3
-1 13 0 -7 4 11 6 -7
0 10 5 -7 8 3 8 -4
3 5 2 -15 5 5 -4 -9
-1 8 -6 -15 5 -3 -8 -11
-3 1 -9 -12 0 -7 -3 -12
0 0 -3 -13 -8 -3 -2 -4
9 3 -1 -14 -3 -2 -9 -6
8 1 1 -9 5 5 -6 -3
6 9 -5 -12 -4 8 -7 -7
6 1 -1 -12 2 9 -6 -1
0 -3 2 -9 -2 4 -1 -4
0 -8 3 -6 3 3 -4 -6
-7 -9 9 -2 -8 1 -6 -11
-13 -10 2 -7 -12 -6 -10 -17
-9 -13 0 -19 -12 -17 -17 -26
-7 -13 2 -13 -6 -18 -17 -19
-5 -11 -5 -13 -14 -10 -13 -17
2 -3 -9 -27 -19 -13 -12 -27
1 -9 -8 -23 -14 -11 -16 -24
3 -7 -7 -22 -11 -15 -16 -24
-4 -9 -5 -26 -11 -16 -19 -25
2 -9 -6 -26 -9 -14 -17 -27
-3 -10 -4 -21 -18 -12 -20 -31
-12 -17 -3 -19 -23 -15 -20 -31
-11 -15 -7 -22 -18 -20 -18 -29
-18 -26 -4 -25 -9 -19 -13 -22
-26 -32 -3 -25 -11 -9 -19 -23
-22 -27 -1 -15 -12 -10 -18 -21
-12 -19 -1 -19 -18 -15 -21 -20
-5 -13 -7 -22 -15 -15 -21 -22
0 -10 -6 -20 -16 -21 -20 -26
1 -13 0 -13 -16 -12 -18 -28
-6 -18 2 -9 -16 -2 -16 -26
-13 -18 -3 -13 -23 -13 -17 -29
-17 -30 1 -21 -8 -14 -10 -19
-12 -21 2 -19 -4 -13 -11 -22
-6 -13 3 -13 -13 -14 -18 -20
-6 -19 13 -11 -14 -10 -18 -15
0 -12 23 -8 0 -6 -13 -12
-2 2 12 3 7 -6 -21 -21
-1 2 26 32 24 0 -19 -26
-3 -1 44 81 50 19 -14 -25
2 1 67 148 102 37 -12 -31
16 4 85 204 153 52 -5 -32
25 10 91 206 177 72 3 -25
23 12 90 199 191 106 31 -2
32 29 74 182 193 130 67 31
46 57 46 111 170 160 103 56
61 97 9 26 154 199 163 108
69 134 -21 -64 124 247 232 167
73 165 -58 -155 89 284 288 210
85 193 -97 -248 41 311 337 255
92 213 -133 -320 -1 310 357 292
92 206 -164 -392 -47 293 362 303
91 187 -188 -441 -114 244 331 280
81 150 -197 -477 -174 174 261 237
39 108 -187 -505 -229 93 181 186
-2 68 -183 -509 -283 -10 87 118
-29 28 -178 -509 -331 -105 2 53
-54 19 -156 -494 -363 -171 -55 16
-68 10 -140 -465 -368 -197 -87 -3
-60 -7 -135 -417 -339 -190 -97 -26
-47 -24 -120 -358 -303 -181 -88 -33
-44 -35 -103 -307 -263 -165 -83 -30
-46 -28 -85 -262 -231 -149 -78 -29
-44 -15 -79 -222 -198 -126 -68 -22
-41 -11 -78 -187 -168 -106 -66 -29
-38 -12 -64 -159 -144 -93 -62 -36
-29 2 -54 -118 -118 -71 -50 -22
-19 2 -42 -90 -83 -55 -35 -22
-9 -13 -26 -58 -56 -34 -30 -24
-5 -26 -10 -23 -28 -24 -30 -29
-3 -24 -8 -5 -17 -17 -21 -27
-9 -29 -6 -6 -16 -6 -10 -20
-3 -31 2 2 -3 -10 -19 -15
2 -16 2 2 -4 -6 -13 -22
4 -14 3 4 -6 -14 -11 -21
-2 -25 6 5 -3 -17 -14 -18
1 -25 0 5 -7 -12 -13 -19
12 -15 1 7 -5 -21 -22 -31
9 -20 4 8 -1 -21 -15 -19
5 -27 -2 19 5 -25 -25 -26
4 -30 3 16 8 -22 -24 -27
-2 -34 5 10 -1 -22 -23 -24
-1 -31 -1 13 0 -17 -28 -30
-3 -39 -3 16 5 -14 -24 -28
-1 -31 3 19 16 -10 -17 -26
-1 -27 9 26 13 2 -13 -20
-1 -32 12 30 11 1 -17 -14
-2 -35 10 28 10 -6 -20 -25
-1 -29 3 35 17 -13 -19 -21
0 -12 0 27 14 -16 -20 -29
3 -19 2 20 15 -18 -24 -26
3 -23 7 27 12 -15 -19 -23
-4 -23 8 26 16 -12 -16 -22
-5 -21 5 26 24 -5 -13 -26
5 -19 10 32 28 -5 -18 -23
11 -20 5 30 20 -9 -20 -18
2 -28 11 37 19 -6 -19 -27
6 -22 3 34 11 -3 -27 -24
10 -27 7 41 14 -3 -16 -21
9 -32 9 36 17 2 -23 -30
6 -32 0 39 14 4 -12 -26
8 -26 -2 38 10 -2 -14 -24
8 -20 4 38 18 1 -23 -24
4 -28 9 41 26 8 -16 -22
3 -26 7 38 22 8 -15 -26
3 -25 5 37 19 -4 -17 -22
-1 -32 1 43 36 2 -16 -15
2 -30 0 40 32 -2 -12 -27
2 -28 9 55 27 6 -12 -21
13 -25 11 64 30 8 -3 -17
14 -22 3 55 28 3 -7 -21
9 -16 1 49 34 7 -5 -17
11 -16 12 48 36 28 -10 -14
14 -19 6 48 36 11 -7 -12
14 -16 5 53 37 6 -12 -11
14 -11 5 62 30 9 -12 -21
14 -19 12 65 32 14 -7 -22
7 -19 11 70 37 19 -8 -20
9 -13 5 62 39 16 -8 -22
17 -9 5 58 41 4 -21 -23
15 -19 6 61 40 5 -10 -18
13 -28 6 76 43 21 7 -15
15 -28 8 75 43 16 -6 -18
18 -23 13 74 51 18 -12 -8
18 -26 11 79 57 17 -6 -8
10 -20 10 75 55 15 -9 -19
16 -11 7 84 67 12 -8 -25
19 -5 7 91 57 11 -8 -15
20 -7 7 95 48 17 -6 -20
23 -11 16 95 62 23 8 -15
20 -7 15 92 74 24 -2 -14
22 -16 14 93 62 23 -5 -14
28 -8 9 93 55 19 -5 -22
22 -7 8 94 66 24 -2 -16
18 -17 17 95 70 34 3 -7
20 -15 13 102 66 35 6 -14
22 -3 17 113 65 29 -2 -16
26 -4 19 110 71 27 8 -11
31 -2 11 106 63 25 5 -17
24 -20 19 114 70 28 1 -12
22 -14 18 115 72 34 5 0
24 -8 13 117 68 37 7 6
32 -10 11 112 72 37 18 9
31 -11 13 119 79 42 14 6
28 -4 11 126 79 37 14 3
31 -5 11 129 78 39 8 -1
29 -13 10 124 86 42 5 0
28 -14 9 121 83 40 3 -4
23 -21 9 122 78 42 12 -2
25 -7 6 123 68 46 9 -1
31 0 14 122 78 52 11 -1
42 6 8 120 80 52 9 10
48 4 8 119 72 44 14 13
52 10 5 114 69 39 8 0
47 6 3 114 70 43 12 6
41 -1 0 115 73 47 16 8
37 -1 -1 113 74 36 17 9
41 4 2 116 64 38 17 18
42 0 2 109 67 41 17 7
46 -1 4 103 66 38 15 13
49 1 7 103 70 41 17 21
49 12 3 99 77 39 18 16
45 8 3 95 67 40 31 15
39 4 -3 96 63 40 26 14
39 4 -3 87 57 45 18 7
36 5 4 84 51 37 18 13
31 14 -2 79 46 32 23 15
27 6 4 70 46 40 25 15
23 1 3 70 46 39 17 18
25 6 0 68 42 33 25 17
27 10 -7 59 37 25 11 11
23 11 -9 47 36 17 6 3
15 -8 -6 47 33 26 6 3
10 -13 -5 42 32 30 10 4
6 -11 -8 37 25 20 6 0
17 -2 -12 34 19 14 9 5
19 11 -8 33 19 17 14 4
19 15 -5 22 23 12 7 9
13 14 -3 23 31 10 5 9
8 8 0 28 31 19 3 8
2 5 7 25 18 23 2 13
1 -3 -1 20 16 18 -2 2
3 4 -1 11 20 6 -5 -2
1 5 -4 7 11 10 -4 0
5 -2 3 12 7 10 -1 3
0 -4 9 13 6 8 1 -4
-4 -15 11 8 0 9 -7 -7
0 -8 9 12 -1 4 -3 3
3 -8 15 15 4 6 2 13
3 -6 7 4 7 1 -4 -1
4 -2 4 9 10 5 -2 -5
-6 -2 0 -3 10 0 -6 -7
-3 -9 1 -7 -3 3 -1 -11
-4 -7 -2 -10 -9 -3 -9 -15
-1 -5 -1 0 -1 -1 -12 -8
2 -4 -2 4 -5 5 -12 -15
3 -9 0 -6 -5 -4 -6 -21
-1 -13 0 -11 -3 -6 -1 -12
-4 -16 6 -3 -1 -5 -4 -10
-3 -10 6 -3 -3 -7 -14 -16
-5 -2 0 -9 -1 -1 -15 -9
-6 -7 7 -4 6 8 -1 -8
-13 -18 3 -3 8 9 0 -10
-16 -13 -4 -4 1 0 -12 -15
-15 -11 -1 4 -3 -4 -13 -15
-16 -20 2 0 -4 -5 -15 -17
-18 -20 -1 -8 -4 -1 -16 -16
-21 -21 -4 -10 -11 -4 -10 -14
-23 -9 -1 1 -6 -5 -14 -18
-16 -16 0 7 4 1 -9 -20
-3 -13 -1 4 6 2 -11 -17
6 7 -2 -2 0 3 -18 -13
-5 -2 -3 -1 -3 -5 -16 -16
-3 -8 3 6 -4 7 -13 -13
1 7 2 -5 -12 0 -15 -16
-4 5 -2 3 -7 -7 -17 -10
-7 -2 2 3 -2 -9 -13 -5
-15 -6 0 -6 2 -1 -13 -18
-12 -12 5 -5 3 1 -6 -15
-16 -1 7 -8 -1 -10 -7 -16
-17 -10 13 -7 -6 -10 -9 -16
-18 -19 12 -8 4 3 6 -15
-19 -5 3 -6 -1 -5 -6 -12
-10 -4 4 -3 -2 -3 -15 -9
-5 -2 3 -8 -1 -6 -15 -11
-11 -7 5 -4 -4 -8 -9 -11
-18 -8 4 -9 -5 -5 -10 -13
-12 -10 2 -8 -9 0 -14 -20
-10 -12 1 -7 -1 -5 -18 -18
-7 -13 -2 -9 -13 -6 -19 -21
-7 -18 1 -12 -16 -11 -17 -21
-9 -11 0 -15 -7 -5 -10 -21
-5 -9 1 -4 -1 -6 -10 -12
-2 -6 1 -2 -8 -3 -11 -13
-6 -6 8 -2 -1 2 -9 -6
-7 -2 6 -3 -9 0 -7 -9
-5 0 6 2 -11 6 -11 -10
-7 6 2 0 3 1 -10 -1
-12 -4 9 -6 2 1 -4 -5
-18 -9 9 -4 -11 -4 -4 -11
-11 -3 0 -6 -11 -9 -9 -17
-13 -7 1 -4 -15 -8 -1 -15
-13 -11 4 0 -12 -2 1 -4
-10 -4 1 -2 -2 0 0 -2
-5 -1 3 -3 -7 -4 -9 -9
-3 -5 13 2 0 0 -8 -11
-9 -8 11 6 3 0 -6 -10
-11 -6 5 0 4 0 -6 -13
-12 -5 3 -4 14 -4 -11 -9
-11 -1 6 0 5 -8 -11 -10
-9 -11 8 -1 2 -1 -10 -3
-15 -10 0 -4 0 -4 -18 -10
-21 -10 -3 -2 -6 -7 -17 -18
-12 -9 0 -2 -6 3 -9 -21
-13 -7 3 1 -9 -6 -9 -10
-15 -6 -2 4 -4 -4 -14 -8
-9 -5 1 -4 8 0 -9 -12
-10 -6 8 -2 2 0 -3 -7
-11 -4 9 0 -2 4 -5 -13
-5 0 4 2 -1 0 -9 -8
-5 -2 0 -3 -2 -6 -2 -2
-9 -8 13 -3 2 -5 -7 -5
-8 -12 14 -1 -1 -1 -7 -8
-12 -5 -3 -5 -13 -11 -16 -12
-19 -12 1 -8 -15 -10 -11 -7
-20 -20 1 -9 -7 1 -10 -14
-16 -9 1 -1 -1 -6 -11 -3
-15 -7 8 5 -5 1 -12 -8
-9 -4 10 3 -3 -2 -14 1
-12 -8 17 10 4 0 -4 1
-20 -5 18 -2 9 3 -7 -8
-14 -2 17 3 7 1 -5 -5
-10 1 11 7 10 5 -7 -8
-18 -10 12 12 1 0 -7 -6
-19 -11 4 -2 -7 -10 -11 -2
-5 1 -2 -6 -8 -6 -12 -11
-3 -3 -2 -11 -7 -11 -12 -21
-9 -10 1 -10 -5 -13 -14 -20
-9 -4 4 -10 -1 -13 -21 -20
-7 3 2 -9 -4 -10 -16 -7
-3 1 7 -5 -2 -3 -14 -1
-3 -3 10 -4 -8 -10 -14 -10
-4 0 3 -12 -6 -16 -16 -15
-10 -7 10 -2 -1 -9 -10 -4
-17 -10 8 -6 -9 -11 -10 -5
-19 -7 -1 -11 -11 -12 -12 -9
-19 -4 1 -3 -3 -11 -11 -10
-27 -14 -2 -4 0 -10 -15 -10
-25 -12 2 -6 -2 -3 -11 -13
-18 -11 4 -9 -9 -4 -12 -11
-18 -15 5 -4 -1 -2 -15 -12
-13 -6 4 0 0 -8 -15 -17
-9 -10 -4 -9 -12 -10 -11 -17
-2 -8 -2 -8 -13 -10 -13 -18
-4 -6 3 -6 -5 -16 -7 -16
-12 -4 1 -13 -9 -15 -10 -15
-18 -13 0 -10 -13 -17 -11 -10
-20 -20 -2 -5 -14 -8 -12 0
-13 -16 4 -4 -12 -8 -11 -5
-7 2 6 -4 -4 -11 -18 -9
-9 9 11 -13 -6 -17 -20 -9
-11 -1 10 -16 -8 -17 -12 -7
-17 -4 6 -16 -9 -12 -13 -10
-19 -7 3 -17 -12 -7 -17 -13
-18 -9 3 -16 -15 -13 -16 -20
-19 -15 3 -9 -17 -13 -21 -13
-17 -9 3 -10 -15 -14 -17 1
-19 0 -3 -16 -18 -21 -23 -1
-23 -2 -4 -20 -24 -18 -25 -10
-20 -2 -4 -16 -17 -18 -24 -16
-15 -5 1 -10 -10 -14 -22 -5
-15 8 -3 -11 -12 -15 -27 -9
-14 4 -1 -12 -10 -17 -19 -10
-18 -4 1 -7 -10 -16 -20 -18
-14 -10 8 -7 -17 -10 -19 -18
-14 -6 4 -12 -22 -7 -18 -19
-19 -7 -3 -16 -22 -11 -11 -16
-18 -7 2 -18 -22 -15 -14 -12
-17 -3 6 -19 -11 -18 -22 -13
-15 -3 8 -3 -5 -16 -20 -7
-15 1 9 3 -10 -18 -13 -6
-17 -3 6 4 -18 -17 -16 -11
-24 -3 -2 -8 -11 -11 -11 -11
-28 -1 -1 -9 -8 -8 -12 -13
-24 8 4 -11 -8 -14 -11 -6
-16 6 17 -9 -8 -7 -13 -12
-15 14 13 -4 -10 -9 -10 -12
-15 3 10 0 -3 -3 -5 -7
-11 5 18 1 -2 1 -4 -5
-10 5 16 -3 -5 -8 -7 -4
-8 4 13 -2 -5 -9 -10 -1
-9 2 14 -3 -11 -6 -9 -5
-10 4 16 0 -4 -5 -4 -5
-11 10 5 -2 0 0 -4 4
-10 21 11 -2 9 -6 -9 -10
-7 28 14 -6 3 -6 -8 -6
-9 24 12 5 -4 4 -9 -9
-15 25 10 0 0 -4 -12 -10
-12 20 3 -16 0 -6 -12 3
-15 14 2 -17 -1 -8 -14 -3
-20 8 -2 -14 -16 -16 -10 -7
-20 9 -6 -17 -18 -13 -5 -7
-16 23 -8 -19 -22 -17 -9 -2
-18 17 -8 -12 -9 -11 -3 1
-22 6 -2 -10 4 -5 0 3
-19 1 -6 -18 -4 -10 -7 6
-17 8 -7 -8 -14 -5 1 4
-15 18 -5 -4 -8 -6 -2 4
-8 31 -6 -6 -1 -8 -4 -1
-2 21 -5 -2 -2 4 -1 1
-2 17 -7 -5 -11 -6 -10 1
-2 14 -7 -2 -4 -6 -11 6
0 8 -3 -4 1 -7 -8 1
-14 -3 -9 -7 -8 -5 -14 -13
-23 -8 -11 -12 -12 -8 -16 -12
-23 -4 -7 -14 -15 -12 -15 -8
-17 2 -6 -13 -22 -17 -17 -13
-22 9 -4 -14 -20 -18 -15 -18
-22 6 4 -9 -6 -16 -15 -18
-24 -11 4 -4 5 -11 -14 -11
-24 -14 6 -9 0 -15 -17 -18
-29 -19 -2 -13 -12 -21 -24 -15
-26 -16 -8 -16 -11 -21 -20 -7
-23 -4 -3 -20 -17 -24 -5 -17
-20 -4 -4 -19 -17 -22 -6 -11
-19 -3 -6 -19 -19 -18 -3 -9
-20 -12 -3 -22 -20 -19 -12 -15
-19 -16 -5 -15 -22 -18 -25 -13
-24 -7 -9 -22 -22 -21 -22 -18
-29 -9 -8 -24 -9 -23 -19 -15
-28 -9 -11 -27 -24 -27 -21 -10
-23 -6 -5 -30 -17 -23 -18 -13
-17 -3 -3 -23 -18 -24 -26 -24
-11 2 -4 -19 -22 -28 -24 -23
-13 -2 0 -25 -21 -27 -17 -19
-23 -2 -7 -19 -28 -20 -23 -8
-26 -8 -4 -22 -25 -27 -23 -18
-24 -6 -1 -24 -21 -30 -20 -28
-19 -10 6 -23 -20 -28 -16 -27
-18 -4 5 -23 -17 -23 -16 -15
-16 -6 -2 -20 -14 -13 -15 -13
-17 -5 3 -19 -18 -24 -20 -22
-15 0 -6 -17 -24 -27 -27 -15
-13 -6 -13 -19 -19 -25 -30 -15
-17 -9 -8 -23 -16 -24 -22 -21
-16 3 -5 -16 -16 -15 -21 -21
-15 -5 5 6 6 -12 -14 -19
-17 1 25 23 19 -10 -13 -23
-19 5 34 59 43 -2 -19 -27
-13 8 52 111 77 13 -16 -29
-6 8 67 165 119 39 -6 -27
1 12 82 205 168 56 5 -20
10 14 86 218 185 83 29 6
23 38 73 206 188 101 52 21
42 63 46 171 182 127 83 42
60 86 19 101 165 169 132 88
66 121 0 16 135 214 200 149
78 161 -33 -78 109 255 260 204
90 198 -80 -181 77 285 307 251
87 217 -111 -267 26 300 343 299
82 219 -144 -332 -24 292 357 316
76 199 -160 -407 -82 248 341 301
68 169 -170 -454 -137 186 293 266
57 139 -182 -484 -200 119 214 226
20 110 -172 -499 -254 21 115 149
-16 73 -165 -492 -301 -68 24 80
-42 50 -153 -487 -341 -144 -29 37
-67 41 -132 -473 -369 -197 -73 -3
-75 14 -118 -431 -352 -214 -88 -10
-60 0 -117 -387 -322 -200 -94 -22
-48 -1 -111 -342 -278 -182 -98 -32
-46 -8 -87 -293 -244 -157 -85 -20
-49 -2 -81 -259 -219 -152 -80 -26
-44 9 -81 -226 -196 -140 -71 -27
-29 5 -63 -183 -165 -117 -63 -24
-27 6 -50 -144 -124 -94 -53 -17
-27 3 -35 -106 -85 -67 -42 -17
-19 10 -27 -67 -70 -56 -19 -13
-12 3 -14 -35 -46 -38 -13 -10
-8 -6 -2 -13 -30 -30 -16 -3
-3 2 -7 -10 -20 -27 -15 -7
2 -2 -4 -7 -1 -22 -13 -10
0 -5 -4 -5 1 -26 -20 -20
-1 -1 -6 -4 -8 -28 -20 -28
-3 4 0 -1 -12 -37 -22 -27
2 1 6 5 -14 -22 -26 -11
7 -3 4 8 -9 -19 -23 -11
3 2 0 12 -21 -31 -26 -17
-2 -7 10 22 -10 -29 -24 -18
-2 -8 2 11 -6 -28 -26 -20
-5 1 -6 3 -16 -35 -26 -26
-1 -9 -3 8 -7 -24 -28 -25
0 -5 -2 9 0 -18 -23 -20
-3 -7 2 12 8 -16 -14 -6
-1 -12 1 14 10 -19 -9 -8
-6 -13 -3 20 3 -13 -8 -16
-3 0 -2 28 0 -11 -12 -17
3 -2 4 24 18 -10 -16 -13
-1 -2 10 23 18 -15 -10 -17
-1 -7 15 30 21 -16 -5 -12
1 -5 7 26 16 -11 -16 -15
6 6 2 20 7 -14 -18 -22
10 0 9 23 5 -9 -13 -25
9 -4 0 15 10 -13 -20 -20
11 4 -6 15 5 -16 -22 -17
14 8 7 25 0 -17 -20 -17
8 4 13 29 4 -12 -9 -14
7 -7 14 35 21 -4 0 -9
5 6 6 32 11 -11 -11 -18
2 5 6 33 3 -9 -18 -19
6 -2 9 29 14 -3 -15 -8
16 6 9 34 21 0 -11 -8
15 8 6 45 22 6 6 -3
12 2 6 46 22 2 1 -8
17 10 15 38 17 -3 -8 -13
21 7 20 45 20 2 -5 -10
17 5 9 43 23 1 -8 2
23 1 23 45 31 0 -5 -5
20 2 18 50 30 10 -8 -1
13 -5 4 43 27 0 -11 -14
11 -2 4 41 33 -2 -14 -16
9 0 11 44 30 0 -4 -13
10 -3 7 51 26 9 -4 -10
9 0 10 54 37 9 0 -5
11 -1 19 61 40 9 8 -3
16 5 21 63 33 4 2 2
12 4 20 60 33 11 -6 -4
21 4 25 58 50 21 -6 -14
25 7 23 61 42 11 -4 -12
24 18 17 67 34 8 -9 -13
26 14 18 65 38 4 -1 -7
25 13 15 66 49 15 6 -2
26 7 14 72 52 17 5 -8
32 9 10 74 44 20 4 -4
34 13 12 82 43 18 3 -4
40 11 18 78 52 14 9 1
39 21 14 82 60 19 5 -6
30 14 11 82 52 20 7 -8
23 4 15 89 52 16 11 -7
24 6 11 88 53 17 0 -11
28 14 7 86 51 28 -1 -14
40 19 17 96 57 29 8 4
44 26 22 98 53 30 12 5
41 29 18 95 58 34 17 2
38 23 22 95 75 30 17 7
35 13 20 100 69 29 13 4
36 20 17 103 54 32 8 0
35 9 13 108 61 35 17 4
39 11 11 115 71 32 13 7
46 15 19 111 68 29 25 6
44 15 18 110 75 37 28 6
45 23 16 114 72 36 22 7
46 22 17 112 71 41 21 11
47 20 12 113 78 41 15 15
51 25 11 109 69 43 19 5
46 21 14 113 62 43 19 8
42 8 16 123 73 45 27 11
44 8 9 117 82 42 29 15
44 19 6 115 80 51 33 17
46 16 10 115 76 46 25 16
48 30 10 109 80 37 33 15
45 32 7 109 76 38 31 15
48 25 -6 110 73 47 22 7
53 23 -1 114 66 44 24 15
52 19 4 109 67 37 32 35
46 25 2 107 63 39 31 23
46 32 0 106 72 45 29 15
47 27 3 105 70 48 30 18
52 28 6 100 59 40 44 23
55 24 3 94 55 37 40 19
53 24 1 98 59 36 39 22
54 27 5 90 73 36 31 23
45 25 5 91 64 39 29 19
42 28 3 87 60 46 32 17
42 25 11 82 51 42 34 18
40 28 1 79 43 37 26 13
36 21 -4 81 42 38 28 23
40 17 -9 69 35 35 26 25
35 20 -10 60 35 38 29 18
29 25 -2 49 36 23 23 27
38 19 -4 56 36 29 22 18
37 24 1 57 34 29 28 19
43 31 2 43 39 23 25 22
49 44 -4 30 31 20 17 17
39 33 3 27 26 21 17 18
29 28 5 34 28 18 14 12
33 29 5 36 27 15 15 12
31 40 10 28 15 19 15 8
21 31 11 29 23 18 11 2
20 35 8 14 12 9 8 -1
19 32 6 13 12 4 10 2
9 18 7 16 22 9 10 7
11 29 1 16 18 6 10 4
12 21 6 9 20 8 20 1
13 24 5 5 17 7 15 12
18 23 10 6 18 13 13 6
12 10 6 7 11 11 8 3
9 11 12 9 9 6 13 2
6 13 15 11 14 5 20 -1
4 6 14 12 23 7 18 2
4 7 9 6 7 20 16 -3
3 11 7 1 4 8 6 -8
0 15 5 -3 6 -2 2 -10
-2 11 -1 -2 -1 2 -2 -7
-5 7 2 -8 -5 9 2 -1
-1 13 8 -3 1 11 6 0
0 11 13 7 6 8 5 1
-1 13 10 1 6 2 1 -2
2 14 8 1 14 0 -2 -6
-1 7 12 2 21 -3 9 -5
-4 5 1 -7 1 2 4 -5
-6 5 5 -5 -1 3 1 -3
-8 9 13 -6 1 -3 3 -14
-6 8 17 -7 3 -7 4 -10
-2 3 13 -7 -1 -4 -1 -5
-4 5 7 -2 1 -5 2 -9
-7 7 18 6 4 4 5 -8
-8 2 16 1 -2 -1 0 -5
-7 -1 1 -8 0 -1 -2 -5
-10 1 4 -9 7 4 0 -9
-4 0 2 -14 11 -4 -4 -14
-1 6 3 -12 5 0 6 -14
-6 5 3 -8 5 -9 -1 -13
-3 10 6 -5 5 -12 -3 -15
-1 12 10 -1 5 -2 2 -6
-2 11 11 -5 -3 6 7 -3
0 13 11 -8 -2 2 -1 -7
-1 9 12 -6 1 -1 -2 -4
4 10 -2 -10 -3 -4 -2 -15
13 11 -2 -11 -6 -6 0 -13
11 7 8 -5 6 -8 1 -9
10 7 3 -7 9 -7 -4 -10
2 5 2 -10 9 -4 1 -7
0 10 2 -7 4 -5 0 -8
3 19 -2 -8 4 -6 -8 -9
-1 12 2 1 -3 -7 -5 -14
-2 12 5 -13 -2 -12 -9 -18
-1 8 11 -4 4 -7 -5 -6
2 11 4 -8 5 -8 -4 1
-3 9 2 -7 0 -7 0 -4
-8 8 4 -4 0 -1 0 -8
-13 -3 6 -8 4 -3 3 -9
-9 0 3 -1 1 -1 -3 -2
-8 -1 5 6 12 -1 0 15
-8 -3 4 -2 18 -1 -1 -3
2 8 7 -3 2 2 -4 -13
4 10 10 -3 7 -3 -3 -13
3 5 7 -3 10 -7 -2 -13
9 6 8 -3 1 -3 -2 -16
3 9 6 -5 1 -7 -5 -17
-3 2 1 5 3 -10 -11 -10
-8 1 -4 -1 -1 -5 -8 -9
-1 7 7 -8 0 -7 -2 -7
0 0 7 -9 6 0 7 -9
-2 0 3 -8 -1 -1 10 -14
-5 4 5 3 1 -6 -3 -15
-5 1 8 10 3 -3 -5 -13
-2 8 1 8 -4 -6 -1 -14
3 18 2 7 -2 -2 -5 -16
1 9 10 7 20 -3 -2 -3
1 12 11 1 13 -9 -7 -5
-3 6 12 -2 13 -9 0 -3
-6 3 3 -7 11 -11 -2 -11
-6 4 4 -3 6 -8 -2 -4
2 9 6 -4 2 -9 3 -9
5 2 1 -7 -2 -1 -1 -17
3 8 4 -2 6 -8 -3 -17
-2 -2 9 2 1 -8 -4 -13
-3 7 7 1 1 -11 -10 -13
-5 2 13 6 9 1 -1 -1
-2 10 5 -3 1 -1 -1 -7
-3 13 4 -4 5 -8 -4 -3
-1 8 5 -3 14 -3 3 0
-4 4 6 0 10 3 1 -6
-12 -6 5 4 14 3 7 -6
-14 0 0 -3 6 -6 0 -9
-11 5 5 -1 1 -9 1 -8
-3 8 2 -1 1 -11 4 -5
1 -1 4 5 11 -9 -3 -3
5 10 4 -2 9 -8 -2 -9
3 13 -1 -3 3 -13 0 -16
4 5 -4 -9 -1 -12 3 -9
3 0 -2 -1 2 -11 -1 -7
2 2 -1 -3 2 -10 1 -7
0 -3 5 3 12 -8 1 -7
1 0 4 -1 6 -8 -3 -13
-1 2 2 0 -3 -8 5 -17
-3 6 6 -4 5 -4 11 -12
-9 -1 9 -4 12 -7 1 -7
-16 3 -2 -7 4 -13 2 -5
-16 -1 2 -9 -8 -14 -3 -5
-14 -3 -2 -7 -5 -5 -3 -3
-12 -2 2 -4 5 -6 -3 -4
-11 6 6 -8 12 -9 3 -8
-1 11 6 -6 7 -8 6 -12
6 4 7 -7 2 -9 9 -9
0 8 4 -9 -6 -12 7 -13
-2 5 2 -7 2 -14 -3 -14
-2 -1 2 -8 -4 -17 -3 -3
-5 -3 8 -6 -4 -19 1 -9
-8 -4 3 0 -5 -19 4 -18
-7 -1 -3 -12 -4 -18 -1 -20
-9 -13 -1 -16 1 -12 -12 -20
-10 -12 5 -6 -3 -11 -9 -18
-5 -4 -1 -1 -5 -16 -8 -16
-3 -1 4 -5 0 -12 3 -8
-4 1 8 -5 5 -6 2 -2
0 2 8 -12 5 -16 -4 -5
-3 8 4 -11 -9 -23 -5 -14
-7 7 -5 -10 -15 -23 -5 -20
-16 -6 -1 -14 -13 -15 -6 -18
-13 -6 4 -16 2 -16 -14 -27
-3 1 -1 -13 1 -18 -11 -21
-1 8 1 -10 -8 -17 -3 -14
0 4 4 -6 -10 -9 -7 -20
-4 10 4 -8 -4 -15 -15 -17
-5 -1 11 -12 -4 -24 -9 -6
-5 0 11 -13 4 -21 -6 -11
-8 6 3 -8 -1 -19 -8 -10
-11 9 3 -12 -14 -24 -13 -20
-10 0 9 -6 -8 -23 1 -17
-8 -7 12 -9 -2 -20 -3 -8
-8 -7 7 -12 -4 -20 -11 -10
-6 0 3 -11 2 -16 -4 -18
-6 1 15 -10 2 -19 -12 -14
-8 9 9 1 2 -10 -11 -8
-8 7 7 3 7 -4 -4 -6
-2 18 7 -4 12 -14 3 -14
3 24 4 -3 4 -20 3 -19
2 9 3 -10 13 -18 6 -18
4 5 10 -6 14 -12 -1 -4
4 9 14 -4 13 -12 3 -4
0 19 22 5 10 -16 0 -8
-1 17 22 15 8 -10 -4 -4
-7 6 14 4 3 -15 -2 -11
-4 4 16 6 5 -10 0 -6
-3 14 27 4 2 -14 0 -10
-6 14 18 5 2 -15 2 -12
-5 17 9 4 6 -14 2 -5
-8 19 6 13 7 -13 0 -8
-3 20 10 9 13 -18 -5 -5
-3 24 8 14 19 -15 3 -2
-2 19 10 2 4 -6 12 -2
-3 31 7 -1 4 -14 6 -7
-4 27 4 4 0 -14 -1 0
-5 24 6 -10 -5 -7 4 6
-2 24 11 -11 -5 -12 0 1
-4 24 8 -3 1 -10 6 -5
2 28 6 -9 1 -9 3 7
4 32 3 -11 4 -11 0 2
-1 30 2 -8 2 -20 -7 -11
2 30 -3 -12 -2 -11 -6 -16
1 24 -2 -15 -7 -16 -4 -7
-2 18 -3 -4 -7 -18 -9 -9
7 30 -7 -11 -6 -24 -9 -21
9 16 2 -9 0 -22 -8 -12
11 16 2 -10 -4 -22 -5 -3
1 12 10 -8 3 -19 -1 -1
-7 -2 18 3 -1 -18 -1 -9
-7 -3 28 -3 -5 -17 -5 -13
-7 -9 16 -6 -8 -12 -4 -11
-7 6 6 -6 7 -14 -7 -17
-3 10 18 -12 5 -19 -7 -19
-7 9 19 -11 -12 -24 -4 -13
-10 5 12 -12 -17 -21 -7 -14
-14 3 4 -13 -16 -19 -11 -14
-12 -6 0 -19 -11 -26 -17 -21
-7 -13 3 -25 -15 -30 -19 -20
-7 -10 7 -17 -15 -32 -13 -20
-8 -4 0 -23 -17 -32 -15 -28
-12 -8 -1 -26 -22 -32 -22 -18
-8 4 3 -25 -21 -27 -23 -16
-10 7 1 -28 -15 -40 -26 -16
-18 -11 8 -22 -13 -36 -20 -19
-11 -9 12 -22 -23 -29 -13 -25
-5 -7 15 -25 -21 -21 -17 -25
-10 -9 12 -20 -16 -37 -13 -26
-6 -13 7 -19 -14 -34 -19 -25
-3 -14 3 -24 -19 -41 -28 -26
-10 -13 12 -24 -17 -43 -28 -27
-10 -9 10 -23 -10 -33 -21 -28
-9 -4 11 -22 -10 -36 -16 -22
-12 0 12 -17 0 -31 -18 -21
-4 4 13 -16 -13 -31 -11 -22
-5 1 9 -14 -11 -32 -6 -24
-13 -9 15 -21 -10 -28 -1 -24
-10 -8 10 -19 -1 -21 -16 -18
-7 -4 3 -16 -10 -30 -18 -26
-4 -2 5 -12 -14 -28 -10 -25
-11 -2 14 -13 -8 -23 -15 -25
-13 -5 20 2 2 -28 -18 -30
-15 -9 39 26 21 -18 -21 -25
-16 -3 46 53 39 -9 -26 -25
-6 -6 68 101 79 10 -17 -23
8 11 83 161 126 33 -6 -27
15 15 93 205 166 49 11 -27
21 17 91 206 172 72 22 -21
25 26 81 208 189 108 52 2
39 43 64 177 195 131 88 37
57 82 34 105 175 163 134 77
68 124 5 18 138 203 202 135
82 158 -19 -69 103 239 271 203
89 186 -55 -162 66 277 321 257
90 204 -87 -262 15 299 363 300
91 214 -116 -332 -42 287 373 319
82 193 -144 -390 -98 232 353 301
67 160 -153 -432 -148 174 301 274
40 126 -143 -462 -204 97 226 218
-3 91 -130 -477 -254 6 119 138
-33 64 -131 -486 -306 -93 28 65
-51 36 -125 -485 -338 -165 -38 24
-80 29 -118 -457 -363 -217 -82 0
-88 10 -93 -425 -356 -238 -97 -21
-74 -16 -88 -387 -327 -224 -100 -31
-62 -25 -94 -344 -300 -205 -110 -51
-56 -32 -81 -293 -263 -179 -99 -49
-48 -23 -62 -255 -222 -159 -83 -42
-42 -14 -55 -223 -184 -137 -70 -43
-45 -1 -51 -188 -156 -119 -69 -43
-37 9 -40 -148 -131 -109 -63 -25
-19 8 -24 -105 -83 -87 -46 -21
-15 -7 -15 -72 -65 -63 -37 -23
-10 -12 -9 -38 -46 -50 -21 -26
-2 -16 2 -22 -18 -40 -7 -27
13 -13 8 -17 -17 -37 -20 -26
13 -13 9 -3 -11 -37 -20 -18
2 -3 11 -5 -15 -30 -12 -16
-6 -10 15 -12 -20 -31 -11 -10
-8 -13 8 -6 -23 -34 -24 -17
-4 -20 5 2 -6 -30 -20 -28
-1 -22 21 3 5 -25 -21 -24
1 -22 15 12 1 -19 -20 -22
-3 -19 9 12 -1 -25 -17 -28
-1 -16 5 7 4 -31 -15 -31
-2 -17 9 7 -3 -32 -16 -28
2 -11 11 8 6 -25 -23 -25
4 -16 16 15 7 -25 -19 -22
1 -23 14 20 7 -25 -12 -15
1 -21 17 20 12 -21 -11 -17
3 -13 23 25 5 -22 -15 -22
3 -17 18 21 4 -14 -13 -14
-2 -18 20 21 18 -8 -9 -14
-7 -20 17 27 8 -13 -12 -18
-10 -29 17 20 7 -22 -11 -18
-7 -25 11 25 17 -23 -7 -16
-1 -19 12 24 23 -7 -16 -17
9 -19 21 29 24 -11 -17 -8
9 -13 13 22 14 -15 -16 -14
3 -5 9 26 10 -11 -22 -26
7 -12 20 26 20 -13 -16 -27
11 -15 25 34 25 -9 -8 -20
5 -17 16 35 30 -10 -12 -21
4 -23 19 31 24 -13 -13 -16
4 -17 14 29 20 -16 -11 -17
1 -17 10 28 17 -12 -10 -18
-2 -22 19 28 30 -8 -10 -17
-3 -26 16 33 26 -10 -12 -15
0 -24 10 36 16 -10 -9 -13
2 -19 14 37 14 -17 -13 -14
6 -9 8 36 21 -12 -12 -16
9 -10 18 45 30 -5 -6 -13
8 -14 19 47 35 -6 -7 -12
6 -25 12 42 27 -5 -3 -16
16 -19 9 46 27 -6 1 -9
9 -12 18 50 34 -3 0 -11
12 -10 13 55 33 -5 -5 -15
15 -9 17 55 39 0 0 -14
13 -2 11 44 32 -7 4 -16
8 -10 15 47 35 3 -3 -8
6 -24 17 58 47 11 3 -4
6 -22 26 60 44 9 3 -13
5 -21 21 64 46 4 0 -17
13 -18 22 67 47 8 0 -6
18 -6 25 67 38 12 2 -3
18 -11 16 73 51 16 12 -5
20 -18 17 64 59 9 0 -14
19 -11 20 69 48 12 3 -8
21 -4 14 76 44 16 21 2
19 -5 18 76 49 21 16 4
23 -4 20 82 56 24 1 3
26 -1 19 85 51 18 -1 -1
23 -6 15 86 56 10 4 -4
17 -7 14 84 55 12 7 -15
18 -12 24 81 58 27 11 -9
27 0 32 81 54 21 7 -9
22 -1 19 90 53 17 14 -11
22 -4 14 90 55 17 8 -16
27 -6 19 90 53 13 7 -12
23 -2 12 95 55 19 9 -9
20 -11 22 102 62 27 12 -1
27 -9 19 101 75 33 11 1
31 1 15 102 74 24 12 -7
31 0 18 107 81 28 20 -2
30 3 14 107 77 27 22 5
33 8 17 114 70 32 26 10
39 8 29 114 75 34 26 6
37 9 27 112 82 45 28 7
39 5 16 117 77 38 28 -2
43 -4 11 127 80 39 29 5
45 3 13 115 77 37 28 14
43 6 19 113 76 36 24 8
38 5 17 123 76 43 33 15
35 2 14 122 78 45 32 19
40 5 16 120 72 41 32 17
41 3 21 117 75 49 34 29
46 7 9 114 78 46 33 20
50 8 3 111 66 43 35 20
47 9 9 114 79 44 41 21
39 8 9 110 83 52 36 17
39 9 12 106 72 43 37 19
48 5 7 107 64 39 32 20
47 10 6 107 61 38 34 21
46 11 13 107 62 41 40 20
39 4 13 102 67 40 35 22
35 0 3 92 62 36 38 18
40 6 -3 88 53 36 39 16
47 7 -6 90 55 42 38 25
50 15 -3 85 54 37 41 30
51 19 3 83 54 39 45 34
49 24 6 78 52 40 43 20
41 26 0 67 44 35 37 26
39 15 -6 69 42 29 30 32
33 9 1 66 39 22 29 24
25 3 5 63 44 22 30 26
25 -1 7 53 44 22 37 23
20 2 7 52 40 19 34 24
16 8 10 51 32 15 24 25
18 9 7 41 23 18 33 23
16 8 11 41 22 13 34 19
17 20 12 34 29 12 25 21
21 23 19 34 38 11 27 15
15 15 16 33 26 10 24 8
11 2 17 29 27 23 29 18
6 -2 18 26 23 15 29 8
0 -4 14 26 24 6 18 8
0 -7 5 27 13 0 10 2
0 -1 6 22 11 -2 12 3
-1 1 13 22 26 2 11 11
2 3 8 19 12 0 11 13
7 12 14 11 7 0 8 0
9 9 24 10 10 3 10 -1
4 8 9 7 4 -9 12 4
-1 0 14 8 8 5 11 -1
-2 -2 4 3 6 0 12 -6
0 0 4 -2 -3 -7 1 -6
-6 0 11 -4 11 -9 3 5
-5 -7 9 -2 9 -6 11 -3
-7 -9 16 4 -2 -10 15 -7
-9 -9 11 2 2 -15 7 -3
-7 -9 9 -4 1 -5 4 -4
-8 -7 6 -3 -2 -12 5 -6
-7 -13 9 -2 0 -19 4 -4
-8 -8 12 -10 -1 -18 2 4
0 -4 17 4 -3 -5 6 1
6 7 12 4 -1 1 2 -8
0 4 9 2 4 -8 3 -13
-6 -2 9 2 -1 -16 -1 -13
0 -6 10 4 0 -12 2 -12
2 0 11 1 5 -14 4 -8
-3 9 11 2 -4 -6 8 -3
-2 8 7 0 -12 -8 0 -6
-7 -1 22 -2 -6 -7 8 -9
-7 -5 24 2 -6 -8 9 1
-11 -9 24 -1 -1 -1 12 14
-9 -8 8 -11 -3 -5 16 -4
-6 -10 0 -14 -2 -9 6 -2
-6 -11 1 -8 -5 -16 2 -8
-9 -19 11 -8 -13 -6 4 3
-11 -12 8 3 -9 -15 -1 -6
-12 -11 4 -5 -3 -12 0 -5
-8 -12 4 1 -4 -8 12 3
-5 -5 12 10 -4 0 12 3
-8 -6 11 1 -2 -5 7 0
-11 -15 8 -1 11 -12 16 2
-8 -4 13 1 8 -5 5 -4
-7 -3 12 -2 4 -2 -2 3
-4 0 8 -2 -7 -5 2 -3
-9 -2 11 -2 -6 -8 10 0
-9 -3 14 -2 -9 -5 7 -1
-11 -14 14 3 -4 -7 13 -5
-9 -17 8 2 3 -7 12 -1
-8 -20 8 -7 5 -8 1 -5
-10 -17 7 -9 1 -15 -1 -9
-10 -10 5 -3 3 -9 -1 -11
-10 -13 9 -8 15 -6 10 1
-9 -18 18 -9 17 -3 16 -2
-5 -10 10 -4 -3 4 4 -11
-2 -10 5 4 7 -6 13 -7
-4 -11 16 9 10 -7 23 -7
-11 -12 19 3 2 1 10 -4
-11 -9 6 -1 -1 -2 2 -5
-13 -3 1 -3 2 -6 2 -4
-7 0 8 5 -5 -9 10 1
-4 0 8 6 5 -6 12 -2
-4 -5 5 -4 7 -1 9 1
4 -5 1 -4 6 2 10 3
3 -7 13 -2 1 -2 10 -5
-5 -6 19 -3 -4 -5 5 2
-5 -11 13 -6 6 -5 9 3
-2 -14 12 -6 2 0 11 2
-5 -14 13 0 4 -5 6 -5
-8 -17 16 -3 7 -3 4 -11
-13 -17 9 -8 1 -6 2 -14
-9 -8 -2 -12 -4 -10 4 -8
-7 -5 -1 -10 -2 -3 14 3
-2 -8 2 -4 -4 -4 17 0
1 -4 10 7 -5 2 18 10
-3 -6 20 11 3 6 10 8
-5 -5 23 10 2 3 13 2
-7 -13 12 2 -2 7 16 5
-17 -14 14 4 4 5 18 2
-15 -12 11 5 8 11 22 3
-4 3 11 4 -1 2 15 8
6 9 -1 -3 1 1 4 0
7 4 0 -1 1 4 4 -8
0 -4 10 3 -4 -3 11 -3
-8 -5 24 0 2 1 12 1
-6 3 7 -9 0 0 9 -5
-3 0 4 -4 -1 1 11 -2
-5 -5 4 1 3 -1 12 10
-6 -6 7 -6 13 4 16 -1
-7 2 6 -7 8 -3 4 -4
-4 4 6 -1 -5 -1 1 -1
-2 0 12 -2 -10 -1 1 -9
1 3 3 -1 -7 -7 -1 -11
-1 6 7 2 3 3 3 1
-6 -3 4 -8 7 4 6 5
-9 -11 7 -6 -1 6 12 3
-10 -8 9 -6 2 4 6 -1
-9 -3 7 -5 -2 10 8 1
-11 -7 6 -3 -7 -2 7 1
-19 -16 -3 -5 -4 -1 3 11
-16 -8 3 -4 -7 4 4 -1
-11 -7 -1 1 -3 1 5 -6
-7 -7 5 -3 -7 -4 4 -1
-1 -3 4 -3 -6 6 5 8
1 -4 2 -3 -1 4 10 8
1 5 2 -7 -7 10 -5 -2
-4 -5 13 1 -9 13 -3 6
-5 -11 4 1 -3 5 0 2
-1 -9 -7 -8 -8 -2 -3 -2
-7 -8 1 -3 -15 -8 -2 2
-13 -7 7 4 -13 1 4 2
-10 -3 12 -3 -12 6 -4 0
-3 -4 3 -6 -12 -7 -2 8
-5 -9 8 -4 1 -4 -1 6
1 -7 -3 -10 -14 6 -10 -5
-5 -13 3 2 -10 5 -8 -2
-9 -14 4 4 -12 12 -7 -4
-12 -15 9 6 -10 14 2 11
-16 -5 3 -2 -12 -2 2 17
-11 -6 0 4 -10 -1 -2 7
-11 -10 -2 -4 2 0 -8 -1
-13 -9 1 -14 -3 -2 -8 3
-7 2 6 -13 -10 1 -7 4
-11 2 19 -9 -6 -2 -5 -4
-11 -4 13 -6 -4 -3 -4 2
-3 2 4 -7 -5 8 -2 11
-8 -1 8 -1 -3 8 -4 8
-9 -1 19 -1 0 5 -5 6
-6 1 12 3 2 4 -2 3
-9 0 19 9 -1 13 -2 15
-3 2 11 10 0 13 -4 14
-4 1 4 10 -7 6 1 14
-8 5 9 2 -11 6 3 5
-5 -3 16 5 -6 2 -4 4
-6 -3 10 0 5 10 7 19
-7 -2 18 2 5 6 10 9
-6 0 10 10 -1 9 -3 14
-7 2 8 9 4 14 5 13
-10 10 14 6 -1 12 3 1
-8 10 12 9 8 10 1 7
-7 16 19 9 16 19 5 38
-5 25 19 14 4 22 14 37
-5 28 12 0 2 15 2 13
-9 20 -3 -6 6 10 -5 8
-11 20 -7 -11 -4 9 -3 13
-10 14 5 -1 -13 8 3 14
-8 22 -2 -9 -17 7 10 15
-7 20 -7 -4 -11 6 3 21
-5 22 -10 -7 -9 9 2 26
-7 17 -4 -5 -12 17 3 18
-8 28 -14 -9 -9 7 1 9
-1 16 3 -2 -7 15 10 14
-1 17 -4 -8 -10 20 4 13
0 18 -7 -15 -8 9 1 5
2 10 -7 -16 -8 6 2 15
-2 24 -6 -15 -12 4 -7 16
1 20 0 -8 -11 9 -10 12
-8 4 3 -2 1 16 -3 19
-18 1 4 1 0 12 5 25
-16 -1 17 -2 8 16 4 15
-10 -8 10 4 -5 12 -6 9
-11 -10 3 9 -17 8 -11 8
-8 -11 -4 -4 -8 12 -5 10
-8 -9 0 -13 -13 6 -13 9
-13 -14 2 -9 -11 6 -14 0
-19 -21 -7 -8 -11 1 -6 2
-19 -17 0 -13 -10 -6 -10 6
-16 -11 16 -8 -11 -4 -13 0
-19 -19 5 -8 -17 -5 -18 0
-16 -22 -9 -16 -26 -9 -18 -2
-20 -17 -10 -21 -28 -5 -12 2
-14 -12 -7 -19 -18 2 -4 -1
-13 -9 -8 -16 -15 -1 -9 -2
-17 -18 -11 -9 -23 -7 -12 -7
-17 -19 -11 -9 -16 0 -4 -1
-10 -11 -8 -10 -18 -2 -8 -5
-5 -6 -11 -15 -11 0 -14 -4
-9 -6 -2 -17 -11 -5 -16 4
-14 -9 7 -6 -21 -1 -15 5
-18 -21 -5 -10 -23 -6 -15 8
-23 -26 0 -9 -22 -5 -15 0
-23 -26 -12 -12 -23 0 -15 0
-22 -26 -23 -25 -22 -1 -22 -5
-23 -25 -16 -23 -28 -11 -21 1
-19 -21 -12 -16 -28 -1 -20 8
-9 -20 1 -10 -20 6 -16 13
-12 -21 2 -1 -17 9 -15 13
-17 -5 -18 -11 -25 -4 -22 -3
-13 -7 -7 -17 -21 3 -21 1
-7 -11 1 -16 -14 -2 -19 1
-12 -11 -3 -2 -2 2 -20 -4
-12 -22 14 14 11 13 -17 1
-16 -24 27 45 30 21 -19 8
-7 -12 34 73 63 29 -22 -6
0 -12 57 133 103 46 -16 -8
2 -10 73 195 148 83 -1 1
8 -8 82 211 175 107 29 9
13 4 76 204 183 129 53 28
24 20 67 197 193 161 87 53
39 50 48 148 177 191 123 95
49 90 21 56 141 225 180 151
57 127 -12 -27 109 270 250 200
59 158 -44 -118 68 305 313 255
60 189 -74 -223 3 326 358 307
57 217 -114 -306 -56 326 402 336
52 205 -139 -365 -108 296 391 353
45 175 -155 -416 -174 243 347 320
27 137 -159 -452 -215 176 278 279
-10 95 -150 -470 -257 75 175 206
-37 59 -146 -488 -326 -39 58 122
-59 31 -139 -486 -374 -129 -30 58
-80 20 -130 -477 -397 -193 -82 22
-94 16 -124 -451 -395 -234 -111 -3
-82 -9 -122 -408 -373 -237 -115 -15
-62 -28 -120 -362 -343 -216 -114 -21
-55 -40 -91 -314 -283 -187 -108 -22
-52 -34 -67 -273 -249 -165 -104 -25
-52 -22 -70 -233 -210 -135 -90 -23
-51 -23 -66 -200 -184 -110 -73 -15
-39 -12 -51 -158 -153 -93 -62 1
-26 -3 -43 -122 -116 -65 -50 -5
-19 -2 -46 -92 -86 -54 -48 -11
-15 0 -35 -64 -64 -40 -35 -2
-9 -14 -17 -36 -42 -17 -20 -1
-9 -20 -1 -8 -29 -5 -14 3
-15 -17 5 -5 -20 -3 -9 4
-6 -21 1 1 -13 -1 -15 8
4 -23 7 7 -16 5 -10 8
0 -20 13 13 -15 3 -12 12
-7 -21 19 10 -14 -6 -21 0
-8 -25 14 11 -11 -5 -19 -8
-8 -26 22 8 -2 -2 -16 -1
-6 -26 16 10 3 -7 -22 -5
-4 -25 12 17 0 -4 -22 -7
-9 -20 5 13 -8 -7 -22 -6
-7 -21 -5 19 -10 1 -26 -9
-7 -27 3 29 -1 7 -23 0
-11 -31 9 31 4 2 -17 4
-3 -28 12 21 11 0 -11 5
5 -23 11 15 -3 -3 -19 -5
1 -26 13 32 -3 6 -14 -5
-1 -31 22 32 9 13 -13 0
-7 -29 9 24 6 7 -13 -1
-10 -20 7 27 5 6 -13 -6
-8 -11 15 32 7 9 -10 -9
-1 -24 14 32 8 16 -3 -3
4 -25 21 35 4 9 -11 -4
-2 -29 22 37 17 22 -11 3
-2 -30 14 27 8 15 -4 -2
1 -27 17 20 2 13 -12 -5
-2 -37 15 30 5 7 -7 -3
-4 -41 21 36 9 9 -12 0
-1 -37 18 40 13 7 -14 -4
-7 -32 1 41 8 11 -12 -2
-7 -28 16 49 13 19 -4 3
7 -23 20 39 19 18 -8 3
9 -19 23 44 26 20 -4 -2
12 -14 18 47 29 21 3 6
9 -18 9 53 25 33 2 14
10 -18 14 50 23 23 -8 2
11 -17 9 49 30 16 -9 -3
8 -25 7 56 27 19 -8 -8
6 -24 18 53 30 21 -12 -4
9 -17 17 60 34 21 -11 9
8 -20 10 58 38 30 -10 9
4 -30 12 57 36 31 -8 -1
10 -28 -1 55 31 32 -6 -5
9 -25 6 60 32 27 -11 -3
10 -14 9 64 38 26 -4 15
15 -11 6 62 40 24 -2 10
16 -8 19 62 39 29 -3 1
17 -10 28 68 41 37 4 2
18 -11 27 72 42 34 4 13
20 -16 22 76 48 34 1 16
6 -24 22 80 59 43 6 11
-5 -31 20 74 56 37 7 9
-1 -37 20 76 52 40 4 15
7 -30 8 75 47 36 1 7
10 -28 17 79 49 40 -1 14
14 -20 19 89 58 44 3 24
17 -15 9 90 58 42 -3 8
18 -14 9 89 53 50 3 5
20 -17 11 85 55 50 4 7
24 -19 4 89 57 42 3 12
25 -14 13 95 65 44 9 12
19 -15 21 93 75 50 15 12
14 -19 9 98 62 43 13 8
12 -18 0 103 65 53 8 19
21 -15 12 102 70 50 10 36
27 -5 20 107 79 58 15 29
24 -16 14 113 82 64 21 24
27 -13 16 124 81 70 15 26
31 -7 11 124 84 64 17 21
32 -16 15 115 81 58 21 21
33 -11 12 119 86 61 26 21
34 -7 18 133 90 64 21 28
33 -11 7 135 79 70 30 32
34 -8 2 124 86 64 28 29
37 -11 7 126 90 64 20 22
34 -11 18 127 80 66 19 20
39 -8 26 125 79 65 24 27
37 -13 14 127 91 72 31 37
34 -5 23 125 93 76 32 36
36 4 15 127 90 77 28 29
45 4 17 125 90 77 28 38
48 5 19 117 93 85 27 48
43 10 15 119 87 80 31 42
37 0 13 129 87 74 37 33
40 2 32 127 88 72 34 39
44 3 15 122 80 76 35 47
45 -1 1 129 87 77 37 48
48 8 1 123 82 74 42 48
46 16 7 115 84 78 41 46
47 17 -1 113 92 75 33 52
43 20 -5 111 83 71 40 47
38 11 9 100 69 72 43 33
35 6 5 99 67 75 40 35
35 2 -1 99 68 73 38 47
34 7 9 103 65 74 40 42
31 13 5 87 54 73 38 38
29 12 9 87 47 66 34 38
28 0 13 82 45 63 30 41
37 4 4 79 48 56 31 44
38 8 -3 76 44 57 43 43
34 13 -7 58 31 51 31 29
28 11 9 58 33 50 35 37
27 14 8 55 33 46 36 34
19 7 2 51 36 42 25 25
16 6 5 41 33 36 22 23
15 5 9 38 27 31 21 23
13 4 5 38 22 36 20 16
12 6 15 39 27 36 17 20
20 16 30 30 29 27 12 19
19 14 14 21 23 22 11 12
10 1 20 20 26 19 18 21
-2 -5 16 18 22 16 9 20
-7 -9 13 16 11 14 7 18
-5 1 6 16 5 19 10 24
-3 2 5 11 2 18 10 21
7 13 10 5 4 16 9 24
12 14 5 6 3 14 5 12
9 7 10 3 7 18 4 8
4 0 17 4 3 12 6 18
0 4 27 2 4 6 6 9
-1 -3 6 -4 1 4 -1 7
-9 -15 -5 -2 -5 2 -2 3
-13 -20 5 -3 -5 5 -11 5
-7 -17 7 -5 -10 -1 0 6
-2 -9 -1 -7 -8 -5 -7 6
-1 -2 0 -8 -12 3 -13 -8
-1 -11 10 2 -7 0 -4 1
5 -10 13 4 -11 -2 -3 2
1 -5 16 -3 -10 -1 -9 8
-1 0 20 -2 -12 3 -4 3
3 0 21 1 -3 7 3 -2
6 8 14 -6 -6 -2 -6 0
4 6 8 -8 -13 -1 -9 -2
5 4 2 -7 -12 -2 -12 -4
3 4 4 -6 -11 -2 -10 5
0 1 10 -13 -18 -6 -9 -2
-3 -6 3 -5 -12 7 -6 -4
-3 -7 0 -6 -9 8 -10 -4
-5 0 4 -8 -9 -4 -14 -3
0 -5 11 -9 -12 -6 -15 -6
-1 -8 18 -11 -18 -7 -13 3
-8 2 7 -13 -19 -8 -5 -3
1 5 0 -13 -5 -6 -3 -2
6 6 4 -13 -9 -6 -4 1
7 4 5 -7 -17 -9 -6 -1
5 9 22 1 -19 -6 -10 -3
-1 10 12 -5 -15 -4 -19 -1
-2 13 6 -6 -13 -4 -12 -7
-1 5 2 -1 -9 -1 -16 6
-2 -4 4 0 -12 -1 -12 12
-2 -5 7 -10 -13 -4 -10 11
-5 0 2 -14 -12 -4 -15 3
-6 -2 -3 -14 -20 1 -17 -2
-1 5 3 -14 -16 5 -14 -2
9 3 -2 -15 -8 -13 -4 -3
9 10 3 -9 -10 -8 -5 3
-2 9 -2 -5 -12 -8 -11 0
-9 2 -5 -4 -10 -3 -13 1
-7 -1 5 2 -8 3 -8 5
-3 -1 -1 -4 -12 -5 -10 0
2 -2 5 -12 -6 -3 -14 5
4 8 10 -10 -11 -6 -13 -1
0 9 1 -12 -13 -11 -7 -5
1 -2 -1 -8 -18 -9 -3 1
2 -10 16 -4 -17 -7 -12 -2
-1 1 10 -10 -22 -11 -3 -7
3 7 5 -3 -11 -13 -5 0
-1 3 9 -10 -11 -5 -12 -7
-5 5 7 -12 -16 -12 -16 -5
-7 -4 14 -8 -13 -8 -15 0
1 3 6 -12 -10 -8 -13 -1
4 13 5 -10 -10 -10 -9 -2
1 13 13 -3 -10 -7 -11 -3
1 12 8 -2 -9 -3 -5 -4
7 10 5 6 -5 -5 -8 2
9 13 -2 0 -4 -10 -13 -4
3 20 3 -6 -9 -9 -12 -2
3 7 10 -3 -14 -8 -14 1
4 -3 8 -2 -12 -5 -16 14
5 9 2 -6 -9 -7 -10 18
1 17 -1 -9 -19 -13 -17 -2
-2 2 10 -2 -15 -10 -10 -6
2 9 20 -10 -7 -4 -2 -6
2 4 29 -5 -7 -8 -9 -2
9 5 16 3 -7 -7 -5 1
9 13 10 1 -5 3 -11 6
7 14 6 -6 -13 0 -13 2
2 -1 8 1 -16 -11 -9 -3
-4 -10 8 -10 -5 -11 -12 -8
-1 -1 11 -12 -6 -8 -12 -7
1 0 12 -9 -7 -7 -12 0
2 3 17 -8 -4 -8 -1 -7
1 3 13 -2 -13 -10 1 -4
5 3 8 -5 -16 -4 -5 -2
5 7 8 -3 -16 -12 -10 1
-3 2 6 1 -6 -5 -9 -1
-3 11 9 0 -9 -3 -7 -5
6 11 4 -3 -5 -3 -7 0
6 11 7 -2 -5 -10 -5 2
-4 8 24 -7 -13 -4 1 -5
4 14 14 -8 -13 -7 -8 -5
4 9 15 -9 -15 -8 -8 -7
0 3 7 -10 -11 -11 -15 -1
4 7 8 -5 -14 -12 -3 4
5 7 9 -3 -8 -11 -6 -10
9 13 7 -9 -9 -8 -9 -11
5 10 17 -8 -8 -2 -3 -4
7 7 6 -7 -12 -6 0 -4
8 11 7 -7 -7 -13 -3 -1
8 14 2 -9 -6 -8 0 -7
4 5 9 -5 -10 -7 1 6
6 14 0 0 -15 -14 -8 18
10 15 4 0 -7 -13 -2 5
7 11 8 -4 -7 -15 -1 -2
6 9 22 -6 -8 -16 2 -9
2 11 13 -12 -15 -11 -9 -1
2 17 17 -5 -11 -14 -10 -1
5 15 8 -7 -12 -21 -14 -11
-3 4 7 -6 -13 -16 -8 -3
-4 3 14 -4 -8 -4 3 5
-5 14 0 -13 -16 -15 -7 -10
-4 12 10 -15 -9 -22 -11 -11
-1 8 7 -16 -14 -19 -11 -5
-5 5 13 -13 -13 -17 -14 0
-9 4 14 -11 -16 -17 -15 -5
-6 7 -1 -16 -18 -21 -13 -13
0 9 0 -6 -8 -11 -3 -9
5 13 6 3 -3 -12 1 0
7 20 4 0 -10 -14 -3 0
4 17 7 -4 -3 -13 -10 5
4 18 8 -4 -4 -15 -9 -2
7 10 6 -2 1 -8 -3 0
9 16 13 1 -2 -9 -1 7
9 28 22 5 -9 -10 -1 9
2 29 2 1 -5 -4 -4 -1
0 16 5 3 -10 -1 -2 -3
-3 18 20 3 -10 -8 -5 2
-5 12 9 -1 -11 -15 -10 -9
5 9 2 13 -9 -14 -3 -10
14 21 -2 9 -10 -8 -1 -10
17 38 8 -5 -7 -12 -9 -3
16 35 12 1 -3 -10 -5 -2
12 31 4 9 -7 -14 -1 -6
13 40 -4 12 -2 -15 2 3
17 45 2 10 3 -8 3 2
14 49 7 6 5 0 7 5
11 53 6 8 -3 -4 -1 3
8 44 -3 -6 2 -13 -3 4
7 45 6 -15 8 -16 7 -1
5 37 -8 -18 -5 -17 4 -6
9 37 -2 -21 -16 -19 -3 -3
8 40 -6 -15 -13 -15 -2 1
1 29 7 -5 -11 -12 0 -2
2 32 6 -8 -10 -10 3 0
5 32 -5 -13 -8 -12 11 7
2 27 -3 -18 -8 -17 11 8
6 37 -7 -19 -4 -23 5 -5
7 36 -7 -12 -2 -18 2 -6
6 34 -5 -11 -7 -8 -1 0
2 27 -9 -8 -5 -7 5 7
3 30 -16 -12 -11 -10 5 1
7 40 -21 -10 -17 -21 0 4
7 31 -19 -2 -15 -12 1 4
7 25 -6 -3 -9 -11 -3 -1
9 22 -4 -2 5 -15 -5 3
12 22 -10 -7 0 -20 -3 -6
8 24 -7 -10 -15 -20 -7 -3
1 22 -1 -6 -5 -22 -5 -4
1 14 6 -3 -6 -27 -4 -12
1 11 -5 -6 -13 -28 -4 -20
-3 8 -14 -13 -16 -29 -15 -20
-11 -1 -15 -20 -19 -25 -18 -16
-10 -4 -3 -17 -22 -25 -13 -12
-4 -1 2 -13 -18 -23 -6 -17
-2 -1 -15 -17 -14 -26 -12 -4
-5 1 -20 -19 -14 -28 -11 -11
-11 -6 -18 -11 -20 -30 -12 -19
-8 -2 -17 -2 -18 -27 -4 -8
-2 2 -13 -9 -18 -35 -9 -10
1 4 -1 -14 -20 -34 -12 -17
6 11 -12 -13 -15 -24 -9 -24
4 4 1 -12 -19 -27 -18 -25
-2 -1 2 -8 -11 -30 -18 -25
-4 7 -11 -11 -7 -32 -19 -21
0 9 -21 -19 -22 -38 -24 -21
1 2 -20 -16 -24 -33 -19 -18
-4 1 -7 -11 -24 -35 -12 -21
-8 2 -13 -24 -33 -40 -24 -21
0 -9 -9 -17 -30 -38 -26 -25
-1 3 1 -1 -20 -31 -9 -16
3 10 -9 4 -12 -31 -9 -10
9 8 0 5 -11 -28 -8 -11
6 3 -2 -10 -17 -22 -7 -15
5 8 -1 -9 -15 -19 -8 -14
0 5 0 16 5 -24 -14 -9
4 6 12 37 18 -22 -22 -26
14 9 31 58 45 -7 -25 -31
15 14 46 105 76 4 -16 -30
18 15 58 168 128 26 -8 -33
27 15 71 207 168 61 -1 -25
27 28 72 210 181 81 12 -1
34 46 70 203 195 118 49 20
43 61 53 174 185 148 95 50
55 91 18 90 156 176 138 90
57 128 -10 -9 124 221 200 143
57 159 -25 -95 79 261 264 207
66 194 -70 -192 38 283 315 263
69 224 -118 -283 -8 298 364 300
64 232 -144 -358 -64 298 375 318
61 219 -175 -413 -129 259 354 304
58 193 -176 -444 -180 206 312 282
46 156 -187 -471 -228 129 241 237
12 111 -172 -484 -281 21 144 166
-15 76 -173 -481 -330 -92 38 84
-35 63 -178 -475 -366 -170 -45 38
-55 52 -163 -474 -392 -226 -96 6
-66 32 -146 -448 -391 -255 -116 -19
-55 10 -137 -398 -346 -245 -116 -36
-50 -11 -133 -343 -303 -217 -106 -40
-42 -19 -104 -293 -261 -191 -101 -35
-35 -1 -99 -254 -223 -167 -91 -37
-31 7 -91 -214 -192 -144 -79 -30
-26 18 -79 -181 -158 -127 -73 -36
-18 22 -78 -138 -134 -105 -69 -31
-9 8 -63 -98 -94 -77 -53 -22
-10 3 -46 -70 -65 -66 -43 -15
-9 -7 -35 -44 -49 -40 -39 -12
-1 -8 -27 -13 -31 -31 -29 -16
6 -5 -7 -4 -25 -31 -28 -17
13 -1 -8 -2 -21 -32 -35 -12
5 -6 -25 -2 -21 -29 -38 -12
7 -4 -17 11 -12 -31 -29 -10
0 -13 -12 12 -7 -17 -30 -4
-2 -13 -1 6 -8 -16 -32 -13
7 -9 -14 17 -8 -16 -26 -20
17 -2 -12 21 -4 -26 -28 -7
15 -3 -6 23 7 -27 -28 -10
11 -2 -20 19 6 -13 -23 -21
8 1 -19 18 7 -18 -30 -26
1 0 1 18 -4 -20 -38 -20
0 -8 -6 24 -1 -11 -29 -17
5 -5 -10 43 4 -12 -27 -15
7 -3 -8 27 12 -13 -34 -24
5 -11 -8 36 15 -8 -25 -19
4 -9 1 35 6 -13 -18 -17
0 -16 -9 37 11 -16 -30 -22
-3 -18 -11 37 8 -15 -31 -15
-3 -14 -11 34 13 -12 -31 -16
9 -11 -10 31 14 -10 -27 -9
16 -8 10 38 19 -10 -20 -7
19 -6 -13 29 10 -10 -27 -21
18 -10 -14 29 6 -11 -31 -15
14 -9 -11 39 19 -15 -28 -18
10 -10 -10 36 21 -16 -29 -18
7 -9 3 36 21 -13 -29 -15
6 -9 -2 44 25 -13 -18 -11
4 -8 -11 49 23 -10 -23 -16
3 -12 -14 53 23 -2 -20 -16
4 -15 -15 49 25 -5 -23 -12
11 -17 -11 42 33 -15 -25 -10
7 -15 -12 42 34 -6 -19 -15
10 -7 -17 50 23 4 -16 -16
14 -9 -12 54 21 3 -11 -15
18 -7 -13 60 26 5 -11 -8
17 -2 -19 61 29 10 -10 -10
17 -4 -19 61 34 4 -12 -7
18 -2 -11 56 35 -2 -18 -10
18 -6 0 60 43 -1 -24 -15
18 -7 -12 57 45 8 -23 -1
18 -8 -11 67 49 4 -8 3
15 -9 -10 66 44 6 -17 -1
15 -9 -3 69 40 6 -16 -9
20 -2 -4 71 49 12 -17 -8
23 -6 -8 68 52 11 -19 -3
24 -11 -3 81 49 6 -19 -7
20 -8 -9 86 49 5 -17 -4
17 -4 -4 82 61 8 -17 5
13 -12 -11 84 60 14 -18 0
11 -12 -3 85 53 9 -12 -4
18 -8 -16 87 58 17 -17 -3
16 -6 -16 87 63 23 -9 -6
18 -5 -19 93 70 24 -9 -1
19 -3 -4 97 66 22 -17 -2
22 -4 -11 92 62 21 -16 -7
23 -6 -22 99 72 20 -9 -1
20 -10 -14 99 76 19 -7 2
23 -11 -4 102 68 22 -13 2
25 -10 -2 106 73 32 -11 -4
16 -1 -9 104 76 30 -12 0
13 -10 -1 107 83 24 -9 -4
19 -5 5 110 80 28 -11 -8
28 5 2 117 77 31 -4 5
28 2 3 124 80 31 0 13
29 2 -3 120 81 31 -2 2
21 11 -8 129 76 32 -7 -2
23 13 12 132 80 37 -2 0
22 -3 15 138 89 49 6 15
31 9 0 140 98 49 6 12
35 12 6 141 96 43 3 11
35 8 2 143 99 45 17 15
33 11 -11 144 91 46 24 12
32 6 -12 143 92 50 9 15
35 9 -1 138 91 46 2 7
35 1 5 147 91 44 2 7
33 0 7 144 91 50 6 10
33 11 7 145 92 51 10 10
31 10 -10 140 95 50 15 25
35 11 1 147 97 55 17 25
42 16 -11 146 97 51 5 21
38 16 -14 146 93 54 15 14
34 15 1 146 94 61 23 29
37 16 1 138 95 58 22 25
39 14 -14 135 98 52 13 17
42 16 -13 142 99 52 26 30
44 14 -3 142 103 59 28 38
37 13 -18 136 93 58 20 29
27 7 -8 136 91 53 24 22
30 10 -10 128 86 51 18 28
39 18 -4 123 81 49 17 36
37 17 4 119 83 52 24 35
35 16 -12 115 81 53 25 29
28 17 -8 104 73 45 19 23
28 20 -11 96 63 40 14 16
36 14 -11 95 65 44 17 24
37 12 -13 96 62 45 16 32
37 20 -14 95 59 46 19 33
34 34 -12 85 51 33 17 30
31 25 -17 82 57 41 13 30
26 24 -16 75 53 34 12 22
20 24 -7 68 45 30 10 32
14 21 -16 65 45 30 15 29
17 23 -22 53 39 24 18 13
20 15 -24 52 36 25 21 16
17 15 -8 44 31 22 16 17
16 19 -12 41 28 25 7 15
9 21 -20 38 25 15 -3 30
4 16 -9 36 24 18 -3 27
1 10 -9 33 21 13 -3 11
-2 0 -14 31 26 15 -2 5
-2 2 -14 19 22 8 0 3
-4 7 -22 14 20 2 -7 12
-9 17 -34 6 19 0 -4 15
-6 16 -22 15 11 1 -8 13
-2 12 -12 20 8 1 -2 15
5 14 -8 13 3 2 5 10
0 16 -15 13 3 -1 -11 5
-7 10 -20 9 6 4 -9 13
-7 5 -7 12 8 4 -11 8
-1 6 -15 9 13 -2 -11 3
4 6 -10 11 11 -4 -11 4
1 14 -11 14 7 1 -11 2
-6 12 -16 8 7 -4 -16 10
-12 11 -12 3 3 -3 -15 6
-13 14 -15 4 3 -4 -18 -6
-10 7 -14 13 1 -9 -13 -8
-7 4 -15 10 2 -3 -17 0
-9 0 -20 9 2 -6 -6 11
-11 -5 -21 7 4 -9 -12 1
-10 0 -20 4 1 -10 -20 -4
-18 3 -17 3 4 -3 -27 -1
-20 2 -23 9 -6 -5 -31 -5
-22 -5 -19 4 -7 -8 -24 -3
-25 -7 -14 5 -7 -8 -23 -11
-20 -6 -23 -4 -9 -8 -30 -11
-19 -4 -25 -8 -8 -11 -26 -9
-14 -2 -6 -3 3 -10 -13 -7
-2 13 -11 -1 1 -2 -12 3
-5 6 -5 2 -1 3 -14 -1
-18 0 -11 -4 -5 -10 -20 -6
-19 -3 -24 -4 4 -12 -19 2
-9 6 -27 -2 -4 -9 -20 -3
-2 5 -17 -5 -5 3 -20 2
-8 12 -16 -7 1 8 -23 7
-10 19 -13 4 -2 -3 -27 6
-8 14 -6 12 1 -6 -22 -2
-7 5 -12 1 1 -10 -13 -4
-11 4 -17 1 5 -8 -16 -6
-17 -2 -8 0 12 -12 -13 -6
-21 -6 -9 0 11 -7 -21 -3
-19 -7 -16 -9 -4 -8 -25 -13
-22 -2 -15 -5 -6 -16 -21 -17
-22 -2 -28 0 -10 -14 -20 -11
-8 4 -20 5 -5 -11 -17 -7
1 11 -7 2 -2 -8 -20 -7
2 15 6 7 -2 -5 -15 0
5 12 -10 3 -2 -14 -22 -4
2 5 -22 5 1 -12 -17 -9
-3 12 -19 5 3 -6 -16 -4
-8 16 -24 -6 -6 -7 -19 -5
-9 3 -19 -6 -4 -6 -21 -3
-12 -7 -17 5 -6 -13 -19 -3
-18 -3 -14 10 -3 -11 -18 -6
-15 -6 6 7 1 -7 -15 -7
-12 0 16 8 4 -5 -14 -3
-10 4 -10 -1 3 -8 -20 -3
-15 12 -7 2 6 -9 -20 -12
-17 5 -12 7 -4 -13 -10 -12
-13 2 -9 -3 -1 -13 -8 -9
-9 1 -5 -2 5 -6 -15 -8
-14 4 -2 3 1 -3 -17 -7
-9 9 -8 6 0 1 -23 -6
-13 9 -16 2 -1 -1 -16 -6
-15 2 -14 -2 3 -1 -13 -7
-14 -2 -9 3 3 -1 -11 -8
-13 3 0 6 3 -4 -12 -8
-14 7 -4 7 0 -2 -10 -4
-16 -1 -3 7 -3 2 -9 -5
-20 -3 -3 -2 -6 -4 -9 -5
-16 -5 0 0 -3 -5 -3 -4
-15 -3 -5 2 -3 -7 -18 2
-5 7 -16 -4 -6 -1 -14 -10
1 12 -1 1 -5 -1 -16 -4
-10 -1 -14 2 5 3 -20 2
-16 0 -22 2 10 0 -24 -8
-12 13 -21 1 5 2 -27 -6
-11 5 -12 2 2 2 -19 2
-8 2 -4 6 6 -2 -15 10
-13 4 -6 2 3 -10 -21 8
-14 -3 0 12 3 -1 -19 6
-11 8 -8 12 6 0 -16 0
-11 12 -1 4 -3 -5 -20 -2
-12 8 2 10 5 -10 -14 0
-18 0 7 12 6 -2 -18 0
-16 -2 4 4 -1 -3 -18 -6
-10 3 7 5 4 1 -13 -3
-5 5 -6 5 5 1 -5 -4
-6 7 0 7 2 -8 -13 2
-10 9 -1 10 3 -3 -19 10
-12 9 -6 3 4 -6 -13 1
-7 6 -6 4 6 -10 -15 4
-4 3 -3 11 4 -12 -16 1
-11 -2 -2 2 0 -8 -11 -2
-15 5 -14 5 -5 -7 -18 -7
-14 4 3 6 2 -4 -15 -5
-15 0 1 9 -5 -7 -19 -6
-16 -2 -13 2 -9 -7 -13 -5
-16 -6 -3 2 -2 -14 -15 -6
-19 -9 -14 -1 4 -12 -19 -12
-13 -7 -4 2 -4 -15 -20 -18
-14 -12 2 10 -4 -8 -17 -3
-13 -4 4 7 0 -1 -9 5
-8 -2 14 9 3 -9 -14 -1
-6 6 14 8 5 -5 -19 3
-9 12 3 0 -6 -8 -17 2
-12 0 -3 5 -5 -8 -12 -10
-11 -4 -5 4 -7 -11 -20 -9
-15 -2 16 3 -5 0 -16 -11
-12 0 3 4 -3 -6 -11 -10
-14 5 -3 4 -8 -14 -5 -9
-20 7 9 8 -10 -13 -6 -14
-20 -2 9 4 -6 -8 -19 -13
-21 -5 12 -2 -9 -12 -6 -9
-21 1 7 3 -12 -13 -11 -4
-15 9 2 -2 -12 -16 -17 -5
-14 8 4 0 -10 -13 -10 -11
-10 5 9 5 4 0 -4 -5
-9 7 -1 7 0 4 -5 -9
-16 4 5 5 2 -6 -9 -8
-20 4 18 5 6 -8 -8 -3
-18 5 5 10 -3 -9 -3 -5
-17 3 0 13 -2 -2 5 1
-11 9 1 8 0 0 0 5
-8 7 4 5 -7 1 -9 1
-16 5 14 8 6 10 -8 5
-13 8 15 15 13 3 -11 2
-9 7 18 13 8 0 -12 4
-8 8 16 10 0 6 -13 -3
-6 7 16 11 -4 0 -10 -5
-4 14 24 14 0 -1 -4 -1
-5 11 7 4 -1 -5 -14 -1
-10 13 4 5 -5 -8 -16 -10
-13 15 15 15 5 0 -10 -5
-4 21 15 13 7 2 2 4
-9 28 13 7 4 3 -1 0
-14 29 19 4 1 1 0 2
-13 24 18 9 6 4 9 9
-10 22 14 0 5 -4 -8 7
-18 22 -2 4 -3 -2 -2 -1
-19 26 0 -5 -10 -6 -9 5
-18 24 3 -13 -2 -8 -6 4
-13 21 3 -9 -6 -6 1 3
-11 23 -2 -14 -11 -2 -3 1
-8 23 13 -3 -3 -6 -3 6
-7 22 14 4 -10 -9 -12 3
-9 10 6 -5 -7 -8 -5 10
-6 13 -2 1 -2 -2 -6 8
-9 12 5 7 -5 2 -9 -5
-10 7 12 4 -7 -7 -10 -6
-6 10 11 0 1 -2 2 -1
-5 17 10 12 14 -3 8 1
-9 25 12 6 0 -6 4 -2
-12 19 12 5 -10 -2 2 -9
-13 7 9 0 -5 -4 -8 -4
-14 8 9 0 -7 -4 -8 1
-8 9 10 0 -5 -3 -12 6
-6 14 5 1 -12 -13 -15 -2
-4 11 8 4 -9 -10 -15 -10
-5 5 11 1 -9 -12 -15 -14
-16 -2 13 -2 -7 -11 -10 -16
-18 -11 10 -7 -9 -15 -16 -16
-21 -14 10 -6 -8 -17 -11 -11
-18 -8 5 -5 -21 -20 -12 -2
-18 -6 -3 -11 -19 -18 -15 -10
-18 -14 0 -13 -19 -16 -26 -23
-22 -8 11 -15 -29 -16 -26 -25
-23 -12 13 -11 -21 -19 -13 -18
-20 -5 16 -7 -21 -16 -13 -21
-15 -3 18 -11 -17 -16 -24 -22
-17 -6 15 -8 -12 -19 -13 -12
-17 -4 5 -9 -14 -20 -11 -13
-21 -9 9 -3 -12 -23 -12 -11
-24 -11 9 -6 -12 -11 -23 -11
-21 -5 9 -10 -17 -19 -18 -23
-22 -8 17 -8 -13 -23 -14 -23
-23 -13 15 -4 -9 -19 -16 -18
-31 -21 11 -6 -12 -25 -22 -14
-27 -19 6 -8 -17 -24 -21 -19
-20 -15 6 3 -15 -16 -14 -14
-21 -13 4 -7 -17 -11 -21 -17
-20 -12 15 -12 -15 -15 -18 -23
-19 -14 12 -6 -17 -16 -18 -16
-28 -24 3 -8 -15 -20 -21 -15
-19 -5 12 0 -11 -26 -26 -23
-18 -5 19 10 -5 -17 -22 -15
-21 -11 32 29 8 -3 -18 -13
-22 -2 43 61 33 -3 -22 -24
-16 -1 58 111 68 9 -13 -20
-3 -2 80 177 119 35 -4 -21
-1 -2 98 214 149 54 -5 -22
2 2 93 213 163 74 19 -11
13 22 89 208 184 110 46 13
29 48 77 185 187 135 82 38
44 72 41 103 164 174 133 89
61 120 5 -2 129 217 203 135
68 157 -26 -91 103 265 271 191
72 194 -62 -185 68 300 313 247
75 224 -93 -272 22 324 356 291
78 233 -137 -344 -24 326 389 317
76 220 -159 -413 -82 281 364 314
63 190 -179 -458 -135 228 317 293
37 151 -192 -478 -190 160 256 244
6 98 -175 -492 -245 63 168 181
-27 52 -153 -493 -299 -38 67 109
-51 29 -158 -492 -340 -131 -22 46
-71 20 -139 -474 -365 -195 -71 12
-74 4 -115 -440 -355 -217 -84 -2
-59 -12 -100 -392 -319 -208 -83 -15
-54 -22 -92 -329 -283 -192 -77 -15
-53 -23 -78 -276 -249 -171 -74 -22
-44 -15 -72 -245 -213 -148 -72 -28
-40 -7 -68 -212 -185 -124 -60 -26
-38 -5 -52 -173 -154 -111 -51 -15
-35 1 -32 -137 -122 -99 -46 -21
-29 0 -29 -96 -99 -70 -37 -22
-16 -6 -18 -58 -65 -54 -30 -12
-9 -13 -5 -31 -39 -42 -23 -2
2 -18 -5 -13 -25 -30 -15 -17
-1 -16 3 -5 -17 -25 -15 -14
-14 -17 9 4 -10 -20 -13 -8
-13 -10 1 4 -11 -17 -9 -14
-11 -14 13 8 -16 -24 -12 -13
-13 -23 13 14 -4 -21 -4 -10
-15 -21 20 14 -4 -8 -7 -10
-14 -23 11 21 -6 -12 -13 -15
-10 -16 13 22 3 -22 -18 -9
-12 -14 17 19 7 -27 -20 -11
-15 -12 15 21 14 -20 -12 -19
-12 -15 19 23 6 -19 -6 -12
-12 -24 23 21 0 -26 -12 -16
-7 -27 21 29 1 -24 -11 -19
-4 -17 16 26 2 -17 -13 -25
-7 -9 13 21 -2 -17 -15 -20
-4 -15 10 24 4 -24 -15 -18
-4 -18 11 35 5 -21 -16 -26
-10 -23 22 30 1 -14 -12 -24
-5 -28 15 34 1 -19 -16 -20
-3 -17 14 33 9 -14 -16 -19
-3 -20 13 42 13 -11 -7 -17
2 -22 21 48 11 -16 -6 -13
3 -20 19 47 17 -6 1 -12
5 -13 17 49 14 -9 -3 -20
5 -11 20 44 18 -14 -3 -14
4 -7 13 37 13 -8 -8 -12
3 -9 13 43 12 -8 -12 -6
0 -18 16 42 12 -6 -3 -6
-3 -22 25 50 21 -9 5 -11
2 -12 13 43 23 -10 -8 -17
4 -15 11 45 25 -3 -5 -18
0 -17 14 48 27 -7 4 -15
0 -19 18 56 28 -3 -4 -7
3 -12 17 54 22 -1 -10 -10
5 -14 11 47 28 3 -6 -11
1 -20 19 50 33 -1 -5 -7
0 -22 19 54 31 6 -1 -9
2 -14 16 56 27 1 0 -17
7 -12 29 55 26 -5 -5 -10
10 -17 36 62 31 -5 -4 -6
6 -24 35 56 32 2 -1 -2
-1 -34 27 57 31 7 -6 -10
2 -28 13 64 31 6 -7 -5
4 -26 16 58 38 1 0 -4
7 -24 21 65 45 0 -1 -13
10 -18 31 68 44 2 -3 -11
8 -22 23 67 41 4 11 -4
10 -20 24 75 53 8 19 -7
11 -15 38 72 48 6 9 -6
12 -22 35 73 44 8 7 -10
7 -24 25 83 53 11 4 -14
3 -18 25 77 57 12 2 -18
3 -16 27 75 44 13 0 -15
7 -15 34 87 45 17 9 -9
9 -17 32 89 47 18 10 -6
17 -15 29 97 51 19 10 -6
20 -18 29 95 52 18 7 -10
14 -23 25 94 55 16 8 -3
23 -17 24 99 59 12 13 -6
25 -5 17 97 63 13 10 -6
19 -5 18 104 72 21 15 -4
15 -11 25 111 76 21 22 0
22 -12 32 105 70 24 16 2
27 -4 20 102 68 25 17 -5
25 -3 31 111 66 28 20 -2
22 -5 29 122 66 24 16 -10
23 -12 28 128 73 32 28 -6
25 -13 33 127 75 33 25 0
26 -5 32 124 79 38 17 4
25 -11 34 123 81 34 30 7
26 -14 37 124 84 37 29 3
28 -5 21 125 82 29 26 3
39 -2 14 123 89 36 36 14
39 5 25 130 83 50 22 13
39 0 26 133 80 51 20 2
37 -1 30 132 82 47 23 8
39 9 23 134 81 38 26 4
39 1 20 142 92 43 35 7
42 2 29 140 94 40 31 4
43 1 32 144 97 43 34 8
40 10 20 141 94 46 34 6
38 3 25 139 89 46 35 12
36 -2 11 140 84 42 36 6
33 -1 20 140 83 44 35 8
33 -1 24 136 84 46 34 14
36 -5 20 136 81 44 38 16
35 -3 20 130 83 46 34 10
42 4 13 127 84 42 31 15
47 9 13 134 84 41 32 24
47 14 14 123 81 41 33 18
46 12 15 112 81 44 28 19
37 4 13 110 77 38 38 18
35 10 15 106 72 38 37 15
35 12 11 103 71 36 35 16
32 3 9 100 70 37 40 20
32 11 4 94 61 39 32 20
27 5 11 86 60 39 33 22
31 11 22 82 62 38 36 24
38 11 10 83 61 38 51 23
35 15 1 75 55 41 35 20
30 12 -1 73 53 33 27 17
27 13 2 71 53 33 26 16
28 10 10 68 45 30 27 16
29 6 9 54 45 24 31 18
26 13 -2 45 40 18 26 9
17 8 12 44 34 19 25 10
15 3 16 48 38 20 22 8
14 5 11 37 36 18 22 -1
11 5 8 30 36 14 18 6
10 6 12 30 31 9 15 4
14 4 9 25 26 9 15 1
11 -1 9 30 24 23 13 9
15 1 3 25 25 16 7 4
12 8 6 21 21 5 13 7
9 1 12 14 18 15 16 11
13 -1 8 8 27 17 19 9
10 4 4 8 16 9 12 10
5 7 11 15 14 7 12 5
12 -2 18 10 18 6 9 -11
8 -6 20 4 15 8 14 -6
8 -4 13 5 10 7 13 -4
3 -9 15 2 14 5 5 -4
2 -11 14 -3 18 2 4 -5
-3 -11 9 -4 13 -4 2 -1
-6 -10 3 0 7 -3 2 -4
-7 -11 6 -7 3 0 0 -10
-1 -1 24 -2 8 -1 0 -5
2 1 10 1 11 -6 1 -3
-1 -9 -1 8 8 1 4 -7
-1 -3 3 3 10 2 4 -7
1 -4 1 -4 9 -6 -6 -16
-1 -6 4 -3 6 -8 0 -11
-3 -11 1 -2 8 5 8 -6
2 -6 0 5 12 3 -2 -10
3 -5 6 8 6 -2 0 -10
0 -11 12 -2 2 -4 5 -2
-4 -17 5 1 12 -3 7 -5
0 -10 8 -4 21 -3 8 -9
3 -8 3 0 11 -4 6 -7
-2 -18 -1 0 12 -7 3 -4
-1 -13 12 -3 15 -1 7 -12
2 -2 8 -9 14 -1 7 -3
-5 -8 9 -5 8 -1 3 1
-1 -14 6 -8 9 3 4 3
-6 -13 4 -1 8 6 3 -7
-8 -13 11 -2 4 2 -3 -13
-7 -12 19 -11 5 2 -3 -7
-7 -9 19 -10 5 1 3 -14
-6 -4 18 -10 11 -3 11 -9
0 -2 15 -8 5 4 3 -11
-3 -4 12 -1 10 6 6 -6
-8 -16 7 -4 12 0 6 -11
-9 -18 15 -8 22 -4 2 -13
-11 -14 12 -2 18 -1 -1 -13
-11 -12 5 -5 13 1 -1 -5
-7 -15 13 -5 17 1 4 -5
-5 -13 12 3 15 -8 1 -11
-11 -7 -4 -2 10 -6 3 -20
-9 -7 6 5 13 1 6 -11
4 -1 14 5 12 5 -3 -1
9 10 10 3 11 5 4 -5
1 -1 7 -2 15 10 2 -3
0 -11 7 0 12 6 -1 -4
-3 -9 14 0 18 2 3 -2
-2 -8 21 0 11 1 2 -7
-5 -14 20 6 11 3 2 -3
-7 -17 13 0 7 -1 11 -6
-2 -18 9 3 7 -6 4 -8
-5 -14 6 5 6 -1 -2 -15
-7 -11 1 0 10 7 0 -19
0 -6 13 2 13 2 -5 -5
-2 -13 10 0 6 -2 -5 -1
-3 -18 6 13 11 0 3 -2
-7 -7 3 5 18 4 0 -12
-3 -9 1 2 22 5 1 -13
-4 -10 9 6 9 4 3 -4
-6 -10 13 11 15 14 8 4
-4 -9 22 7 17 11 9 3
-3 -11 24 6 21 1 8 1
-7 -12 12 7 17 1 8 -1
-7 -13 6 6 15 1 1 -6
-2 -1 8 9 18 -1 2 -8
3 0 12 7 16 0 8 3
1 -10 12 12 12 2 4 -1
-2 -9 11 6 14 3 2 -1
-2 -4 20 2 12 -3 3 -2
-1 -5 24 6 21 6 7 -3
-7 -3 11 8 24 7 2 -2
-7 -5 5 8 18 3 -1 -5
-5 -7 9 7 19 0 1 -9
-4 -18 13 8 14 8 5 -1
-2 -9 6 -1 10 -1 -3 -7
4 -7 2 1 8 -2 -2 -10
-4 -13 8 9 17 7 2 1
-5 -9 9 8 15 4 -1 -2
-7 -14 8 12 12 7 3 -10
-1 -7 6 11 15 11 3 -15
-1 -5 2 11 16 5 5 -4
-5 1 5 11 16 2 1 -6
-3 -2 22 12 17 3 -1 -2
-5 -10 17 5 15 6 -2 0
-2 -12 11 4 9 10 4 5
3 -11 8 7 10 8 7 -3
1 -7 2 4 10 6 -3 -6
-1 -8 3 7 11 4 0 4
6 -10 11 6 10 6 -8 0
7 -2 10 7 4 1 0 -9
-1 -5 2 5 5 1 0 -6
-5 -13 5 8 6 -3 -5 -4
-10 -9 2 4 3 2 -4 -7
-10 -5 8 3 6 5 3 -16
-11 -9 12 3 12 5 12 -11
-11 -6 0 -7 7 7 -2 -6
-7 -11 7 -10 4 1 -4 -4
-5 -14 -1 -5 4 1 -1 -14
-2 -11 11 1 8 5 -8 -13
-4 -13 17 7 11 9 5 -13
-3 -12 4 7 8 5 7 -10
-2 -8 7 7 17 8 -4 -7
1 -12 21 7 16 10 -8 -4
2 -10 9 -2 16 5 -2 -4
1 -5 5 4 15 10 3 -2
-1 -2 6 -1 19 3 3 -10
-3 -5 0 -6 13 -1 7 -19
0 -10 -2 -3 7 -7 0 -16
5 -11 5 -3 0 -8 -11 -16
3 -8 11 1 3 -4 -8 -19
-1 -7 13 0 7 0 0 -10
-2 0 6 -7 9 7 -10 -12
-1 0 6 -13 5 5 -14 -12
0 -4 8 -6 4 3 -8 -10
6 -2 4 -3 4 4 -1 -17
2 -6 7 -5 0 2 -6 -16
-4 -17 14 -7 3 3 -2 -12
-10 -21 17 -4 2 1 -8 -16
0 -6 6 -4 6 10 -6 -11
7 9 13 2 9 10 7 -2
8 9 17 -1 13 3 0 4
6 3 10 3 9 3 1 -6
3 9 10 4 13 3 -3 -15
4 12 14 0 15 -2 -10 -9
-4 0 11 0 19 6 -2 -4
-4 -4 4 -4 22 8 -2 -11
4 4 1 2 11 7 -11 -9
2 1 17 0 11 3 -5 -8
-1 3 17 3 17 13 2 -9
2 5 4 1 15 12 -3 -9
4 1 8 3 13 8 -7 -12
2 7 10 -2 13 6 -2 -7
3 6 23 10 17 16 1 10
7 22 25 11 19 15 0 10
9 25 22 2 22 10 -5 8
8 24 22 7 27 17 4 13
10 25 15 1 24 13 10 8
12 32 10 1 11 16 -1 6
8 24 12 0 10 21 10 10
3 18 6 -7 9 13 5 5
11 15 3 -10 3 7 -2 6
7 11 7 -11 4 5 -4 1
4 11 3 -17 0 7 -2 1
2 12 10 -10 4 16 7 2
3 9 6 -10 6 14 12 7
8 10 2 1 9 14 11 15
10 13 5 0 13 16 2 6
6 20 5 -6 8 18 0 3
13 20 7 -9 0 11 2 7
12 10 10 0 1 8 -1 12
12 6 9 -9 6 6 -5 4
10 3 15 -13 6 1 4 1
4 1 9 -10 12 4 3 10
5 5 13 1 16 7 -2 3
1 -4 23 1 7 10 -2 2
-2 -6 18 -9 13 6 -9 -3
2 -7 -1 -8 12 8 -6 -8
8 -5 0 -10 -1 6 -9 -12
6 -1 -1 -9 -5 0 -15 -13
10 5 9 -8 -4 -1 -19 -16
2 1 9 -19 -8 -2 -25 -8
-3 -9 6 -24 -7 0 -25 -4
-6 -19 15 -19 -8 -7 -23 -5
-8 -19 17 -24 -12 -11 -23 -8
-6 -17 9 -23 -11 -11 -23 -12
-6 -14 3 -24 -13 -7 -19 -11
1 -16 3 -26 -4 -5 -21 -9
2 -20 11 -21 -5 0 -18 -14
2 -15 15 -20 -7 -2 -24 -15
7 -6 25 -12 -5 -3 -14 -8
11 -2 20 -4 0 -2 -8 -3
11 -2 18 -8 -5 7 -9 1
9 -5 9 -16 -3 3 -22 -6
-2 -7 7 -17 -10 -4 -21 -13
-2 -12 13 -22 -8 -4 -24 -14
1 -19 16 -17 -5 -6 -20 -11
4 -16 16 -23 -9 -10 -21 -5
5 -18 11 -28 -10 -4 -25 -8
1 -8 -1 -25 -13 -2 -28 -14
-1 -14 3 -21 -10 -9 -25 -13
-2 -18 9 -21 -6 4 -23 -13
-2 -20 25 -17 0 3 -16 -8
0 -10 27 -15 -10 -2 -10 -3
1 -8 14 -16 -12 -7 -15 -8
-2 -19 22 -8 1 3 -21 -5
2 -12 38 10 15 8 -22 -12
9 -10 45 39 38 15 -24 -15
3 0 51 68 63 21 -19 -9
3 1 67 126 102 40 -10 -16
11 -3 82 190 151 62 -4 -12
17 1 98 213 173 85 7 -7
28 15 102 216 188 115 35 17
44 39 82 202 202 140 68 43
56 55 59 151 199 170 107 78
64 89 39 60 169 211 161 121
81 135 12 -36 130 244 215 177
98 177 -35 -130 99 283 281 231
96 197 -81 -226 49 308 325 278
91 207 -111 -315 4 320 356 303
98 197 -138 -390 -51 299 355 307
85 171 -160 -448 -112 242 331 294
66 144 -165 -474 -146 182 280 257
38 115 -158 -496 -204 107 188 208
-1 79 -150 -510 -264 7 81 136
-22 39 -133 -508 -297 -90 8 78
-39 25 -117 -490 -328 -153 -45 31
-53 15 -105 -459 -340 -189 -79 8
-54 -10 -100 -417 -312 -199 -93 2
-46 -29 -89 -366 -283 -184 -96 -14
-42 -30 -71 -312 -253 -167 -87 -14
-41 -28 -62 -273 -209 -143 -77 -15
-36 -23 -54 -234 -184 -126 -67 -8
-28 -8 -47 -202 -162 -112 -61 -15
-20 -5 -37 -167 -136 -95 -62 -12
-13 -6 -26 -114 -99 -63 -47 -7
-5 -3 -18 -79 -69 -43 -28 0
3 -8 2 -55 -53 -35 -25 -8
7 -16 7 -31 -32 -18 -19 -8
4 -25 21 -12 -12 -4 -17 0
3 -23 17 -4 -3 -11 -19 6
9 -21 24 -6 -11 -12 -17 -2
3 -22 17 -8 -9 -7 -13 5
1 -26 22 0 -5 -8 -9 2
1 -24 22 1 7 -9 -21 -3
1 -16 32 1 0 -13 -14 -6
1 -17 34 10 -1 -13 -20 -11
-1 -25 30 13 3 -12 -25 -6
6 -24 27 8 1 -12 -24 -8
10 -22 19 22 2 -10 -17 -9
8 -21 20 18 1 -10 -15 -8
6 -25 29 14 3 -8 -23 -11
8 -23 25 9 3 -9 -25 -20
8 -30 26 15 -1 -4 -23 -11
6 -27 21 27 1 3 -22 -13
3 -25 19 28 11 4 -13 -11
11 -25 22 18 19 -2 -12 -12
13 -18 32 22 12 -1 -8 -2
13 -27 33 25 9 4 -12 -3
13 -23 29 27 5 11 -19 -3
2 -24 17 23 7 1 -20 -6
1 -22 15 25 18 -6 -15 -6
7 -14 19 22 11 -3 -15 -7
9 -21 22 31 11 1 -14 -13
12 -26 29 34 19 -1 -13 -18
9 -27 32 29 15 4 -15 -20
6 -27 29 35 13 -1 -15 -13
10 -16 26 38 15 9 -9 -12
11 -12 36 39 17 7 -9 -3
13 -18 31 41 20 5 -7 -2
17 -20 22 43 21 5 -8 5
11 -23 29 34 22 6 -11 -7
9 -24 27 38 24 19 -12 -9
7 -24 24 40 21 4 -11 -12
12 -24 24 42 17 -7 -18 -15
14 -33 28 44 22 6 -13 -8
12 -30 29 45 30 8 -8 1
16 -22 33 46 32 5 -3 -7
15 -22 29 42 37 4 -9 -9
15 -17 33 49 32 5 2 -13
21 -14 31 51 33 7 -3 -16
17 -19 37 55 30 6 -10 -11
5 -26 34 59 31 18 -5 -9
6 -23 29 62 28 20 -5 -7
11 -21 37 58 28 17 -5 -6
24 -16 31 60 33 9 -5 -6
29 -14 36 62 37 14 1 -4
22 -14 36 65 32 13 -6 -10
21 -15 34 57 38 18 -8 -5
23 -14 33 69 47 14 -5 6
20 -18 34 65 41 11 1 1
23 -17 28 67 40 13 2 -4
22 -17 29 73 49 11 -2 9
18 -18 29 69 44 13 -4 -3
14 -20 31 74 43 17 -6 6
23 -19 33 77 48 24 -4 2
33 -14 27 87 56 25 -4 0
25 -7 38 86 49 26 5 7
23 -8 34 83 53 22 9 5
26 -14 31 84 51 21 5 2
20 -15 32 88 54 27 -2 -3
21 -11 31 87 56 29 -2 -4
27 -8 28 91 50 25 4 -5
34 -3 27 97 51 27 4 -1
36 1 33 97 58 29 14 1
33 -5 41 106 62 36 10 11
31 -7 47 102 63 32 3 9
33 0 26 97 62 31 -1 14
38 1 32 106 64 33 9 9
41 -2 41 107 69 42 14 6
38 0 37 112 73 36 16 2
32 -1 33 112 67 30 11 4
30 2 27 110 67 29 4 -1
33 -8 26 114 65 35 9 4
33 -13 30 117 65 40 13 11
32 -12 30 119 66 34 15 14
29 -9 27 118 67 35 21 13
33 -2 33 116 71 38 13 15
38 2 41 122 75 47 17 13
37 -2 38 126 79 43 19 20
44 5 33 120 80 50 22 25
51 13 41 125 80 48 27 23
51 10 38 122 74 43 27 22
52 4 29 117 70 42 16 19
53 9 28 114 70 34 28 19
50 14 35 106 62 30 34 16
45 3 33 109 62 34 22 22
40 -5 27 114 64 36 15 19
44 2 20 108 67 29 23 13
44 2 21 103 64 33 24 20
48 7 21 97 59 40 22 22
50 16 22 99 62 41 29 18
47 13 22 99 55 44 32 22
41 7 24 86 53 36 27 23
41 10 26 81 53 31 22 28
44 14 30 78 51 35 26 22
49 16 28 77 48 43 24 21
44 11 27 68 48 37 29 30
36 8 29 66 43 29 22 34
33 3 26 64 44 33 26 22
27 3 17 53 37 29 22 17
27 3 20 50 35 21 23 20
31 6 22 51 32 17 16 28
22 4 25 53 36 27 19 20
20 2 28 48 35 25 24 21
26 7 24 40 24 23 19 15
28 10 22 39 21 15 11 7
17 11 28 36 27 17 13 10
16 9 23 34 20 15 7 7
17 3 29 18 19 16 7 5
16 0 28 17 24 5 9 9
16 2 13 10 17 7 3 7
14 1 18 8 7 13 0 -4
6 0 21 8 5 20 2 -1
7 4 24 10 7 19 13 0
11 22 24 2 4 4 -1 7
9 15 27 4 5 3 4 8
3 -1 34 6 10 9 7 8
-5 -2 29 2 18 4 6 5
-5 -6 27 2 14 -1 -2 2
-4 -6 23 2 4 -2 -7 0
-4 -2 23 4 5 -3 -3 -1
-6 -5 39 5 6 3 0 5
-7 -7 37 7 2 1 3 6
-9 -3 22 4 -3 2 1 -6
-5 -4 22 -5 -2 -2 -5 -10
-1 -2 24 -5 3 -6 -11 -5
1 5 31 -1 4 -4 -5 -6
3 2 38 4 4 -1 4 0
7 9 30 -1 1 -4 -1 5
10 8 26 0 -1 -7 -3 -1
4 2 31 5 1 -8 7 5
2 -2 29 -2 4 -8 6 -4
1 0 33 1 9 -6 6 5
3 4 29 0 1 -7 5 -1
2 0 27 -1 -1 -8 -7 -8
1 -2 33 -1 0 5 -6 -7
3 -7 36 1 5 -4 -3 -13
2 -8 30 4 4 -7 -3 -12
-5 -11 21 3 -4 -1 -3 -2
-9 -6 19 -3 -4 -10 3 -2
3 -4 19 -8 -2 -14 -8 -5
2 2 26 -7 -4 -14 -9 -8
-8 -5 30 -5 -3 -15 -8 -9
-6 -7 30 5 1 -5 -6 -3
-4 -4 30 -5 -1 1 -6 0
-1 4 24 -9 -1 -4 -8 -5
8 10 28 -5 -3 -10 -1 -8
11 2 23 -6 -5 -12 -2 -11
4 -2 28 -3 6 -4 0 -12
8 9 26 -3 4 7 -4 -11
6 -2 22 2 0 -5 -6 -2
1 -6 30 0 6 -7 -6 0
-1 -3 33 -4 8 -11 -4 -6
1 -4 27 -4 4 -2 -6 -11
0 -7 30 -1 3 2 -5 -9
-5 -10 27 -4 0 -7 -4 -10
-8 -12 22 -10 -7 -13 1 -3
-12 -12 32 -11 -5 -8 -5 2
-7 -13 24 -2 -1 4 -5 -6
-1 -4 22 2 -2 -7 -5 -6
7 -5 23 -4 -1 -6 -5 -10
11 4 28 0 2 -2 -3 -8
2 5 35 6 3 -5 -3 -7
0 3 33 3 2 -4 -1 -3
8 5 29 0 0 -1 2 1
9 4 25 4 3 -8 8 -6
6 5 25 -2 -1 -12 4 -7
2 4 28 -7 -1 -13 -7 -7
0 7 30 -3 0 -16 -3 -11
-2 0 26 3 5 -8 -4 -5
-4 1 26 -2 1 -10 3 -3
-9 -4 41 4 3 -4 -6 -2
-3 -4 31 9 3 1 6 1
4 -1 34 0 1 1 17 6
6 -3 37 1 6 1 14 6
10 2 33 2 11 -3 6 2
13 2 33 11 4 -6 0 -2
1 -5 33 2 7 -1 1 -6
-7 -1 25 6 4 -7 0 -15
-4 -3 25 3 1 -9 -9 -8
0 -3 26 6 5 -1 2 1
0 -2 24 1 5 -4 3 -1
-4 -3 22 -3 8 -5 6 1
-1 4 20 0 6 -5 8 2
1 0 23 4 6 -4 5 1
-2 4 22 0 4 -4 -4 5
-4 2 26 8 5 -5 -1 -1
-7 -5 28 5 7 -9 0 -5
-8 -10 24 0 5 -12 8 -6
-14 -9 17 -2 6 -6 9 -1
-11 -10 22 -3 2 -10 2 -1
2 5 29 6 1 -7 3 -4
3 1 30 9 6 -3 2 4
0 -1 29 3 7 0 -2 5
-1 4 24 1 9 1 0 -3
-6 -5 24 4 4 -6 4 1
-6 -9 24 4 2 -10 -1 5
-11 -12 22 2 8 -11 2 2
-6 -4 17 6 4 -12 2 -1
-1 -4 19 5 9 -8 9 -1
2 -4 23 2 15 -4 16 9
2 -2 14 13 8 0 -2 11
8 -5 16 13 2 -4 -2 5
1 -4 24 3 3 -11 -2 -7
0 3 16 2 -1 -6 -5 -10
2 0 17 4 -3 -8 -5 -3
-4 -8 19 4 3 -5 5 0
0 1 23 7 4 0 1 2
-3 10 17 2 7 -9 3 -2
-7 2 24 5 4 -6 3 1
-4 0 20 -3 8 -11 1 1
-5 -4 19 5 8 -8 -3 -5
-4 1 23 3 0 -6 -1 0
-4 -2 20 -2 7 -8 2 -3
-4 -3 16 0 13 -11 9 5
0 -4 19 1 12 -9 6 5
5 3 20 -2 -2 -16 -2 -1
7 1 20 0 -2 -14 -4 -1
1 -3 26 -1 0 -4 -2 6
-8 -7 19 6 3 -2 4 -4
-4 -3 13 6 -3 0 7 -2
-2 2 11 4 -1 -4 -5 -1
-2 0 14 -1 4 -12 -1 -7
-1 -1 15 -3 8 -10 6 -6
-3 -4 18 -4 -3 -3 4 -3
-4 1 12 -2 1 -11 2 -4
-7 5 19 9 6 -16 3 3
-7 9 19 3 3 -15 -3 -3
-4 1 11 7 6 -12 2 7
2 1 10 8 3 -7 4 4
-1 8 15 -1 0 -8 6 -2
-13 2 12 -4 -2 -12 4 -8
-12 -6 16 0 2 -17 4 -2
-11 3 15 -1 -2 -16 6 -6
-10 10 14 6 -3 -11 2 -9
-4 12 20 11 10 -4 8 -2
1 13 21 15 11 -2 3 9
0 16 19 12 8 -8 1 1
2 18 9 7 1 -7 0 2
2 12 13 9 5 -6 6 5
5 6 11 12 9 5 3 4
9 10 16 21 10 3 14 9
4 17 12 13 10 -3 24 4
1 22 15 18 14 0 22 1
5 24 15 21 14 0 11 5
3 28 11 11 13 1 11 7
-3 28 12 10 9 4 18 10
0 33 5 4 8 -2 10 14
4 25 3 7 8 -2 13 14
1 22 2 5 7 -5 14 15
4 23 -2 -6 2 -6 7 8
1 16 -11 -9 0 -10 13 5
-3 19 -6 -4 3 -9 13 6
-4 25 -5 2 4 -1 22 10
1 26 -2 0 5 -1 10 12
1 25 -2 4 2 -1 14 10
-4 21 -4 9 6 1 13 10
-2 22 -2 8 9 1 20 11
1 24 -1 6 7 1 18 8
6 23 0 -3 8 -3 7 4
10 10 -5 6 6 -4 16 3
5 11 -3 7 8 -2 17 11
1 11 -4 -4 8 -3 14 2
3 10 -1 -2 6 -3 13 1
5 14 -5 4 8 -6 4 -3
-3 8 -3 13 5 -5 8 0
-6 5 2 12 10 -9 5 2
-7 9 2 1 8 -7 7 4
-5 7 -2 -2 -2 -10 6 4
-5 -3 8 -6 -5 -4 6 -6
-7 -6 7 -8 -5 -10 0 -5
-8 -3 1 -4 -1 -11 3 2
-9 -3 -4 -2 4 -18 18 -1
-13 0 -5 -7 -6 -21 8 -4
-15 3 -9 -11 -13 -24 -3 -10
-18 -6 -15 -10 -11 -17 -13 -2
-15 -11 -6 -9 -10 -14 -5 -1
-4 -3 -15 -8 -8 -20 0 -10
2 -5 -18 -8 2 -21 0 -6
-7 -18 -6 -6 -9 -20 0 -9
-11 -15 -11 -12 -12 -25 -7 -17
-12 -15 -19 -6 -12 -24 -3 -11
-8 -9 -10 2 -6 -16 -3 -1
-4 1 6 7 -3 -11 -5 -2
-2 3 -1 4 -2 -10 8 6
-4 -4 -3 -2 3 -5 10 -2
-1 -5 -7 -1 7 -15 9 -9
-3 -5 -12 2 1 -20 4 -7
-10 -1 -11 -6 -6 -18 -5 2
-10 0 -9 -3 1 -15 -4 -4
-20 -3 -6 -5 0 -10 -2 -5
-25 -10 -7 -8 -11 -16 -3 -11
-20 -7 -13 -8 -5 -19 -3 1
-14 -10 -2 3 1 -20 6 -2
-12 -11 0 5 7 -17 10 -9
-12 -5 1 20 15 -11 7 -12
-10 0 6 42 33 -1 4 -5
-1 3 20 70 58 11 1 -6
4 10 46 124 95 26 6 -13
3 3 59 194 138 50 17 -16
5 3 75 217 164 62 23 -12
20 10 75 219 176 79 37 9
38 28 64 228 203 121 78 32
55 55 45 201 204 148 109 65
66 81 16 120 177 181 154 104
76 115 -18 21 145 216 210 157
83 146 -50 -69 122 257 274 221
95 183 -88 -166 86 291 333 263
96 217 -120 -259 36 297 370 303
95 216 -145 -334 -11 283 376 316
85 196 -173 -402 -80 237 343 301
64 154 -186 -447 -141 177 285 268
38 123 -186 -464 -191 97 215 228
3 96 -171 -482 -232 5 121 162
-27 66 -156 -490 -286 -77 34 87
-53 41 -154 -482 -318 -146 -24 34
-76 35 -133 -462 -337 -192 -62 11
-80 7 -125 -419 -329 -208 -84 0
-65 -18 -114 -373 -287 -196 -85 -9
-45 -25 -104 -322 -251 -182 -81 -19
-48 -31 -82 -285 -225 -164 -73 -19
-46 -16 -84 -246 -185 -142 -68 -23
-44 -2 -83 -202 -153 -112 -54 -21
-37 2 -67 -160 -129 -93 -42 -17
-27 6 -56 -125 -109 -80 -32 -13
-25 5 -50 -92 -87 -61 -30 -16
-17 1 -43 -61 -56 -53 -18 -10
-9 -3 -33 -32 -30 -40 -13 -5
1 -7 -24 -15 -13 -26 -11 2
7 -12 -8 4 -4 -18 -8 6
2 -11 -14 -1 -2 -17 -12 -5
-4 -8 -23 13 -7 -22 -15 -12
-9 -17 -16 12 -3 -21 -5 -6
-11 -17 -14 -4 -8 -18 -7 -9
-3 -11 -17 5 -4 -13 0 -12
4 -1 -21 10 -7 -19 -9 -13
2 -12 -16 9 -4 -25 -13 -13
-6 -15 -13 23 4 -15 -11 -14
-6 -14 -17 30 7 -13 -7 -10
-5 -17 -14 22 4 -15 -3 -9
-3 -7 -11 18 5 -14 -2 -9
-3 -12 -13 26 5 -16 -7 -9
7 -13 -9 25 5 -15 6 -5
10 -6 -5 26 11 -10 -1 -7
7 -2 -13 30 7 -9 -4 -14
4 -8 -17 29 13 -13 -9 -10
2 -15 -12 30 13 -16 -12 -17
4 -13 -10 34 12 -14 -6 -14
3 -12 -12 31 14 -4 2 -11
-1 -11 -23 23 12 -12 -5 -6
2 -7 -24 22 13 -13 -12 -2
1 -14 -23 27 14 -12 -6 -13
1 -15 -24 29 12 -11 -2 -19
9 -7 -20 30 14 -4 -8 -15
12 -10 -13 32 15 -6 -5 -13
12 -4 -15 39 14 -12 -5 -12
17 -2 -11 38 19 -10 -9 -7
11 -4 -12 42 23 -4 1 -1
5 -10 -5 42 29 0 2 -7
-1 -14 -3 39 33 0 -4 -8
-5 -22 -17 44 32 -9 -3 5
0 -22 -19 40 26 -7 1 -5
-3 -8 -23 42 20 -3 -1 -12
7 -7 -22 47 24 1 -6 -8
11 -8 -14 49 31 13 -3 -4
7 -15 -12 51 29 5 -1 -1
8 -16 -14 58 33 3 -1 -4
6 -16 -11 59 33 6 5 -6
8 -14 -18 52 28 3 -1 -12
15 -7 -21 57 30 2 -2 -5
16 -4 -15 61 36 3 -3 -4
13 -9 -13 62 32 5 1 -2
12 -12 -3 61 32 8 9 -8
8 -12 -9 59 34 7 5 -14
11 -8 -4 59 38 20 5 -9
14 -3 -1 67 39 15 14 6
19 4 -7 65 43 14 9 -1
13 2 -5 72 48 12 8 0
10 -2 -9 71 44 16 7 0
14 -4 -13 71 41 15 11 0
13 -7 -18 71 44 10 12 -6
16 -13 -17 68 46 9 7 -7
25 -6 -12 78 51 18 14 1
24 -6 -17 82 49 18 8 3
21 -11 -19 84 44 10 6 -1
20 0 -14 80 50 15 5 7
18 0 -12 90 55 20 14 6
21 -3 -9 97 51 19 16 10
22 0 -3 97 57 20 13 5
21 -4 -11 97 67 27 13 13
32 0 -14 94 58 30 13 1
31 2 -10 92 60 39 13 2
27 4 -9 95 60 31 12 14
22 0 -12 97 63 27 9 14
26 -4 -9 103 61 31 17 4
27 -5 -11 109 59 37 26 2
26 -2 -15 107 60 34 22 -1
24 -4 -14 118 63 41 25 2
24 2 -13 113 65 36 13 1
26 2 -9 114 70 30 22 5
28 -5 -8 108 73 38 25 8
35 0 -3 110 68 42 18 15
36 7 -8 118 71 41 14 8
31 -4 -14 128 74 41 25 15
26 -8 -13 122 66 41 32 18
27 -3 -12 120 64 32 21 12
36 -3 -11 122 70 36 16 15
48 6 -10 123 73 43 30 18
52 16 -6 122 82 43 31 15
48 15 -10 118 81 51 33 14
44 15 -12 121 75 44 27 13
47 16 -13 120 73 48 28 22
55 28 -19 113 73 44 30 25
58 32 -23 107 71 41 29 14
50 20 -12 113 72 42 38 22
45 18 -10 120 64 46 34 21
40 18 -17 112 60 47 27 23
40 14 -24 112 62 55 26 20
39 9 -13 115 64 51 31 24
44 15 -17 106 60 39 31 22
46 15 -17 97 59 43 36 23
46 21 -24 95 62 47 33 23
44 19 -23 98 59 40 40 23
36 11 -23 92 52 41 32 23
30 15 -28 82 49 42 31 22
30 25 -25 82 44 39 38 23
33 24 -29 73 42 35 32 22
33 17 -19 74 49 37 34 21
31 20 -19 66 44 30 31 18
30 23 -18 73 46 36 34 26
28 18 -10 67 41 34 38 29
25 16 -19 54 36 36 31 25
19 21 -22 42 33 28 26 17
18 16 -28 50 30 27 25 25
23 12 -21 49 24 26 28 24
21 11 -18 39 22 26 23 14
19 12 -26 33 18 26 20 15
17 9 -27 35 18 21 19 17
14 9 -24 31 19 27 15 5
9 12 -22 30 19 21 13 5
8 13 -20 27 14 15 6 5
4 15 -17 16 13 14 9 5
2 8 -18 12 14 15 14 18
7 15 -13 18 16 15 10 28
9 14 -10 19 23 17 12 13
5 12 -14 22 20 15 14 4
0 13 -18 19 10 11 14 6
5 15 -21 12 8 13 9 9
6 15 -15 6 9 8 2 4
0 12 0 4 12 9 11 8
5 8 -14 9 10 11 15 5
4 13 -19 3 7 11 6 -1
-1 4 -17 1 7 5 4 -1
-7 0 -15 3 2 8 2 7
-9 1 -15 6 2 6 8 21
-1 -1 -14 -2 -1 0 -3 6
-4 -3 -4 2 7 4 2 0
-5 3 -9 7 7 6 7 5
-1 4 -14 1 4 7 11 7
2 5 -15 1 4 11 10 5
-1 5 -18 6 2 3 13 5
0 9 -15 2 2 7 7 3
-3 5 -14 -2 2 7 6 11
-6 2 -11 0 1 7 12 3
1 1 -11 -4 -3 -1 -3 2
-8 -3 -13 -5 1 4 -2 6
-4 0 -17 -5 0 0 10 -1
0 5 -19 -3 -6 -3 3 -5
-6 -2 -18 0 -2 0 2 3
-6 -6 -13 -3 0 2 10 9
-8 1 -12 3 3 -1 15 3
-8 5 -18 -1 -2 7 5 -7
-2 5 -14 -3 -3 10 11 -3
0 10 -11 -1 -5 5 6 -3
-4 12 -17 7 -4 4 11 -3
-9 -2 -11 12 1 6 8 1
-18 1 0 8 1 12 8 -2
-17 10 -13 -2 -2 11 0 5
-12 3 -13 4 0 12 3 -2
-10 0 -16 3 5 9 3 0
-10 10 -12 1 6 10 -3 10
-11 12 -14 -8 0 10 -7 -4
-8 4 -12 -11 -3 8 -2 -2
3 4 -21 -6 -7 2 -4 0
2 6 -19 0 -7 4 1 0
-2 5 -9 4 -3 3 5 5
2 2 -11 0 2 -2 3 -5
0 4 -10 -4 -1 -2 3 -1
0 5 -3 -2 0 4 8 6
2 3 -2 -2 5 5 10 6
4 9 -10 -7 1 1 6 6
2 13 -10 0 0 8 4 5
-4 8 -15 -2 -2 -1 0 -8
-6 2 -14 -5 0 0 0 -8
-10 -6 -7 -3 4 8 4 -3
-11 -6 -14 -1 6 13 6 4
-13 0 -13 6 13 17 14 8
-14 -1 -14 10 13 22 12 10
-7 -2 -13 5 4 11 4 14
-1 -1 -12 -4 0 6 14 4
-7 1 -9 -5 7 5 16 -3
-9 11 -13 -4 8 9 4 -4
-5 5 -10 -4 5 14 2 -2
-1 5 -13 0 2 8 5 0
5 9 -7 6 6 7 4 2
1 6 -14 8 2 16 6 3
-2 4 -18 10 2 12 11 4
1 2 -17 12 11 2 1 -2
-8 -4 -10 8 6 0 4 -10
-6 -3 -15 -6 2 -2 1 -8
-9 0 -22 -14 -4 -1 -5 -12
-13 -2 -16 -10 -4 7 -3 -2
-7 -6 -13 -5 -3 11 5 2
-1 -3 -15 -2 1 5 -5 -1
-3 9 -9 0 -1 8 -5 2
-3 16 -11 4 3 13 6 0
-3 15 -5 9 5 4 1 5
0 8 2 3 5 5 -1 -2
-10 4 -3 -3 1 6 3 -5
-10 7 -10 -3 3 7 0 -4
-16 -2 -6 -1 5 8 4 4
-13 1 -16 -2 5 2 6 4
-8 4 -14 1 15 7 10 3
-6 15 -6 0 2 10 9 -2
-8 10 -5 -1 7 5 9 2
-7 5 -10 4 8 6 7 4
-2 9 -17 -3 -2 -4 3 -9
1 9 -17 -5 -1 3 4 -9
-1 0 -14 -5 2 10 3 -5
-10 -2 -7 -1 -5 -2 -3 -3
-6 6 -13 0 -1 0 -12 -4
-3 2 -10 -2 2 5 -2 -5
-8 1 -7 -3 -2 2 2 -4
-6 4 -10 8 3 9 -2 3
-1 8 -7 5 4 15 6 7
-4 7 -3 -1 -1 13 -3 -1
-5 -3 -4 2 0 6 -4 -2
0 -2 -10 -5 1 7 -5 -5
-1 3 -14 0 -2 7 -3 -1
-2 13 -14 -4 -6 6 -7 -7
-5 8 -8 -5 2 11 2 -5
-7 11 -9 5 5 12 15 -4
-8 3 -10 12 3 10 12 5
-8 6 -10 2 10 4 0 5
-8 7 -8 -5 -2 8 2 -3
-10 3 -6 -4 -7 9 -4 -5
-12 -3 -2 -2 -3 4 -4 0
-9 2 -9 -7 -3 4 3 -7
-11 4 -13 -11 0 8 12 -3
-11 12 -10 -5 -2 2 -1 -2
-14 1 -6 -4 -2 8 2 -8
-18 -2 -11 -5 -2 4 4 -5
-16 -3 -10 1 3 5 4 -4
-4 0 -6 3 6 4 1 0
0 9 2 2 -3 2 5 6
-9 10 -2 0 -1 2 7 -6
-12 6 5 0 0 4 0 -1
-8 8 8 3 -1 -2 3 1
-4 9 5 3 5 7 13 2
3 27 12 1 8 15 20 -1
4 24 6 3 8 18 13 0
-1 14 0 7 7 12 10 4
-2 12 8 8 6 11 10 7
-4 11 7 7 3 19 11 12
1 11 -1 0 7 20 13 3
2 15 5 8 13 18 15 9
-2 17 8 13 14 12 20 13
-11 26 3 11 13 12 20 8
-9 29 3 8 15 19 12 4
-11 25 7 6 16 22 14 9
-11 25 0 1 9 19 11 7
-11 25 -1 -5 2 8 8 6
-10 26 -3 -16 -6 8 10 4
-9 22 -11 -15 -7 3 0 5
-5 22 -11 -14 -4 2 -5 -2
6 22 -11 -18 -11 0 0 -1
6 32 -5 -19 -12 -1 8 6
-3 26 -2 -16 -11 3 0 10
0 26 -5 -15 -8 6 10 7
1 26 -9 -19 -5 2 15 10
5 32 -4 -5 -1 20 16 15
4 25 2 -3 -2 15 16 19
-3 15 -2 -3 -3 9 14 9
-4 14 1 3 1 10 10 4
1 18 0 0 -1 12 4 13
-3 12 5 3 0 8 6 13
-11 13 6 -2 0 11 8 9
-11 7 4 -4 -4 13 5 9
-3 10 -7 -1 -6 0 5 -1
-8 5 4 -4 -2 1 4 -6
-10 5 6 -3 -3 9 -4 -1
-7 7 2 -3 -3 9 0 0
-8 11 0 -12 -7 3 -3 -6
-7 5 7 -8 -10 -5 -6 -4
-1 1 3 -11 -11 -2 -12 -8
-4 -9 0 -13 -10 -8 -8 -9
-14 -5 -3 -21 -16 -5 -5 -9
-18 -3 2 -19 -20 -1 -10 -4
-21 -5 3 -26 -24 -7 -12 -15
-20 -8 0 -22 -21 -9 -1 -16
-14 -6 0 -19 -15 -11 -14 -16
-8 -2 1 -14 -20 -8 -14 -10
-8 -5 1 -17 -16 -5 -12 -10
-9 7 -2 -17 -15 -6 -19 -17
-4 6 -2 -19 -14 -14 -21 -18
-4 4 -4 -13 -17 -11 -20 -9
-7 1 4 -12 -17 -8 -15 -11
-6 -3 5 -19 -16 -8 -10 -9
-9 -3 0 -22 -12 -8 -11 -14
-16 -19 0 -15 -15 -8 -16 -1
-14 -14 -2 -21 -23 -2 -22 -6
-12 -7 -6 -27 -23 -10 -21 -17
-2 7 -1 -24 -12 -4 -11 -14
-4 5 5 -16 -16 0 -13 -9
-17 -10 8 -12 -18 -3 -12 -8
-15 -8 2 -18 -15 -2 -13 -6
-10 -5 2 -16 -12 -2 -17 -15
-10 -3 5 -13 -3 9 -9 -11
-3 4 23 8 4 7 -5 -12
-7 8 28 29 20 15 -7 -15
-7 5 33 62 42 19 -4 -12
4 10 48 97 67 26 -1 -14
7 17 57 139 111 39 3 -25
10 8 76 193 157 72 17 -21
23 10 88 206 173 94 27 -10
29 16 83 198 187 126 51 5
34 29 64 192 197 157 88 43
46 56 40 141 180 183 134 90
63 105 6 53 152 222 190 140
80 150 -22 -30 119 256 258 194
87 181 -53 -127 83 290 309 250
83 208 -83 -226 37 317 361 306
84 222 -111 -302 -14 311 385 333
75 211 -145 -377 -73 268 363 314
68 179 -149 -424 -139 210 324 287
40 141 -150 -449 -192 143 253 245
-1 106 -142 -479 -237 41 159 175
-28 72 -136 -494 -283 -55 59 101
-47 41 -132 -493 -329 -129 -32 45
-73 34 -122 -482 -352 -193 -81 7
-89 21 -108 -449 -356 -225 -99 -18
-80 -11 -90 -397 -325 -211 -104 -27
-60 -27 -91 -353 -283 -195 -95 -27
-53 -27 -75 -305 -252 -175 -88 -29
-47 -16 -62 -272 -228 -158 -83 -34
-39 -8 -57 -230 -189 -128 -68 -24
-36 -5 -49 -186 -158 -96 -55 -19
-31 -1 -46 -158 -135 -86 -46 -23
-27 10 -37 -121 -100 -71 -42 -14
-19 -1 -23 -87 -69 -52 -26 -6
-12 -12 -15 -56 -46 -32 -23 0
-6 -16 -4 -33 -24 -24 -21 -5
-2 -13 6 -21 -10 -18 -7 -9
3 -14 8 -21 -13 -18 -2 -11
3 -12 -2 -17 -17 -15 -15 -13
2 -7 3 -10 -16 -11 -25 -14
0 -9 13 -5 -13 -15 -24 -18
-3 -10 4 -2 -9 -15 -24 -15
2 -12 9 2 -10 -12 -13 -15
10 -7 15 8 -1 -11 -15 -8
8 -6 11 7 -2 -10 -11 -12
3 -9 7 11 -4 -10 -14 -15
-2 -12 12 10 1 -7 -17 -13
-4 -10 9 11 11 -5 -12 -17
-3 -13 9 12 2 -7 -9 -12
-6 -19 10 22 1 -4 -10 -14
-9 -23 13 25 7 -4 -6 -17
-3 -20 14 22 6 -4 -4 -14
4 -17 13 18 4 -4 -18 -21
13 -19 14 21 3 -8 -14 -17
10 -22 16 26 4 -12 -11 -12
10 -20 11 22 4 -12 -14 -16
13 -22 12 17 7 -7 -7 -6
9 -21 9 18 8 2 -11 -10
7 -18 4 18 8 4 -8 -12
6 -13 6 16 5 0 -10 -17
1 -17 8 20 6 3 -13 -17
8 -13 17 26 9 4 -10 -13
12 -13 21 30 17 2 -9 -12
9 -18 21 36 25 4 -3 -12
11 -17 17 37 17 10 -10 -16
5 -14 10 35 14 9 -12 -16
10 -5 7 27 12 11 -11 -17
13 -4 8 29 12 12 -7 -4
14 -14 23 41 19 13 -8 1
13 -11 18 46 20 19 -2 -7
10 -12 14 42 21 9 6 -12
6 -9 16 41 28 12 1 -15
4 -13 15 37 30 11 -3 -10
8 -12 12 38 33 10 -6 -12
13 -11 12 42 30 10 -3 -15
15 -1 17 43 26 7 4 -16
17 -12 13 39 28 8 2 -4
11 -16 16 42 24 8 -3 -4
4 -20 18 48 28 13 2 -9
5 -24 15 50 32 18 -5 -6
12 -22 21 52 31 19 4 -6
12 -18 13 53 30 16 11 -6
20 -17 13 55 34 21 0 4
23 -14 16 54 36 16 -7 0
24 -4 15 59 35 8 -3 -4
26 -7 18 68 39 14 1 -11
21 -13 11 60 40 19 2 -5
16 -14 16 66 44 26 13 0
11 -16 17 61 39 22 3 -4
20 -11 15 66 42 19 0 -8
26 -8 28 69 45 23 7 -1
25 -7 28 79 49 26 7 -1
18 -9 21 89 58 29 15 2
19 -11 20 81 57 34 10 6
27 -11 16 77 52 29 7 0
31 -6 19 86 60 29 7 3
32 -4 18 84 60 28 10 6
28 -9 21 84 58 29 21 5
34 -12 17 85 58 32 10 10
30 -14 15 94 65 39 18 4
35 -12 21 95 67 40 28 8
36 -3 18 101 64 36 22 7
32 -4 15 100 70 38 20 8
30 -10 16 96 75 40 17 8
28 -16 20 99 77 36 14 11
30 -11 15 103 82 40 21 7
30 -5 13 105 78 41 23 16
32 -8 17 106 79 42 24 16
38 -3 17 107 80 47 26 10
41 0 15 111 80 50 26 7
42 -4 20 108 76 50 24 17
45 -6 16 110 77 46 28 21
38 -14 15 115 76 55 30 15
38 -9 12 116 72 53 21 10
50 -2 12 116 80 46 21 25
53 4 10 125 85 50 34 25
55 10 12 115 87 49 37 21
55 6 10 107 80 46 32 14
54 6 17 112 77 45 41 17
61 10 5 119 75 47 49 17
55 12 6 112 77 52 42 19
51 12 8 107 81 53 35 28
55 7 4 108 77 50 29 26
52 4 2 107 73 51 32 24
47 6 9 108 73 50 34 26
41 9 9 115 73 45 35 27
35 3 6 107 73 52 29 26
34 -1 5 97 66 53 30 30
36 -2 2 94 65 48 31 23
38 -2 6 87 64 41 30 20
39 15 0 85 57 36 24 20
48 13 0 86 54 36 23 22
53 13 -3 77 57 35 31 22
49 10 2 68 54 43 42 25
43 11 8 66 51 34 27 23
41 11 11 64 49 41 33 25
42 8 2 60 45 46 36 27
36 5 5 56 40 41 35 28
28 8 2 51 41 36 31 27
24 2 2 44 38 29 33 25
27 9 1 41 35 23 25 20
28 1 5 39 32 25 23 22
23 7 6 31 30 15 17 18
20 4 9 31 35 18 18 20
19 -3 9 30 32 18 22 19
18 -2 12 36 34 25 17 28
8 6 16 31 36 24 21 34
8 6 11 24 26 17 25 18
12 3 12 22 25 19 16 27
8 3 15 15 21 19 12 15
8 -6 9 11 17 13 13 11
12 -6 8 12 17 4 11 13
9 1 3 10 12 -1 1 6
12 -7 7 9 10 5 -2 7
14 -3 11 7 10 3 4 16
13 -1 7 5 14 4 10 11
9 -3 8 8 12 4 5 6
7 -6 6 2 6 3 0 0
5 -5 6 0 6 -6 -6 3
5 -6 7 -3 5 -7 -2 -5
7 -5 10 -1 6 -7 4 -5
12 1 13 3 4 -8 -7 -3
6 -7 13 -4 4 -8 -2 -4
-6 -18 14 -2 6 -3 1 -3
-7 -18 12 1 5 -3 6 -5
4 -10 6 -8 4 0 5 -12
10 3 2 -6 7 -5 1 -5
11 1 10 0 5 2 4 -1
6 -2 6 -2 5 -1 6 3
1 -3 5 1 6 2 0 1
-2 -8 5 0 2 -7 1 -1
-9 -10 11 -2 5 -3 5 4
-6 -6 13 -4 8 -4 5 5
1 -1 12 -3 8 -13 5 2
6 1 9 3 7 -6 0 -3
8 -3 8 7 5 0 -3 -2
6 -5 3 2 5 -4 -2 -3
3 0 7 1 0 -5 1 -3
0 -1 9 -4 -1 -6 0 3
1 0 14 0 3 -7 3 8
0 -7 5 -3 4 -12 -1 -4
-6 -13 4 -7 4 -9 1 1
-1 -9 8 4 8 -10 -2 3
7 -1 11 4 10 -16 -7 0
5 -1 10 1 4 -13 -6 -2
5 -7 9 -4 2 -6 4 2
1 -6 7 -6 4 -8 -5 -6
-5 -1 3 -9 4 -10 2 -2
-2 1 5 -6 6 -9 -4 -7
4 8 11 -1 5 -7 0 -11
-2 -1 11 -2 8 -2 2 1
-2 -6 8 -1 5 0 -2 -5
3 -9 9 0 6 0 -6 -5
7 -8 12 2 10 -5 -1 -5
8 -5 10 -3 6 -7 0 -4
8 -5 15 -5 8 -8 0 -2
14 -6 15 -6 12 -9 0 2
13 -4 9 -6 5 -11 -6 2
11 -5 7 0 6 -7 -6 1
8 -2 6 1 4 -6 5 2
2 -6 9 3 7 -6 3 -1
2 -2 12 3 7 -9 -3 -9
6 -5 10 -2 7 -9 4 -1
7 -4 11 -7 3 -14 -1 5
8 0 10 1 4 -4 -5 4
3 -7 5 -1 3 4 1 -5
-3 -9 7 1 6 -6 -3 -4
1 -10 3 2 8 -9 0 -2
8 -7 8 -3 8 0 3 -3
9 -7 13 -2 9 0 4 -3
5 -1 8 -2 9 -10 -5 -9
4 -3 4 2 6 -9 0 -6
1 -8 4 -3 7 0 9 6
-2 -10 9 -2 6 -7 6 3
8 -4 11 0 8 -6 0 2
11 2 8 13 7 -2 -4 3
9 4 6 14 6 -5 6 4
11 10 4 7 4 -11 7 -4
4 -4 13 9 11 -4 7 -4
1 -10 11 11 7 0 11 -4
3 -7 4 1 6 -7 12 4
1 -6 4 -4 7 -11 -3 1
1 -5 5 8 7 -11 -1 -3
1 -6 -2 7 5 -9 2 -5
-6 -2 -2 3 7 -10 -6 -6
-5 -2 5 6 6 -10 -8 2
1 0 11 8 4 0 3 -7
4 -3 9 12 4 -8 6 -6
9 -3 5 6 6 -5 -2 0
14 1 5 5 7 -6 2 3
17 16 1 -1 0 -11 -4 -2
16 5 9 4 4 -5 3 -1
12 -4 12 4 8 -5 7 -2
12 1 7 -1 6 -7 2 4
8 -7 12 3 6 -7 2 0
3 -8 7 5 5 -10 7 -2
-4 -2 13 6 5 -5 9 -4
-3 2 12 1 5 1 2 -6
5 0 7 3 4 -8 6 -1
3 -6 6 0 5 -10 4 4
5 -7 10 5 5 -11 4 7
6 -3 14 13 0 -15 0 1
4 0 10 8 2 -13 6 -6
5 -4 10 1 4 -9 1 -3
8 -2 8 4 1 -10 0 -7
6 -1 11 1 2 -12 1 -4
3 0 15 -2 0 -13 4 -5
1 0 1 -7 -3 -14 4 -8
7 -8 5 -3 1 -11 8 -1
6 -1 7 -1 -1 -16 -1 -7
5 -3 4 5 3 -10 -2 -10
7 -6 4 10 5 -2 -1 -2
6 -7 7 16 3 -1 -5 4
6 0 7 17 3 -2 7 0
7 4 4 9 4 -7 10 -6
6 1 5 5 6 -7 2 -5
9 -6 3 9 8 -8 -4 -8
4 8 6 13 12 -4 -6 -8
9 11 11 14 8 -10 9 -8
8 15 18 11 10 -11 11 -5
7 10 15 12 13 4 16 3
4 10 23 15 13 5 14 6
3 3 18 14 10 1 0 0
-1 -4 18 5 7 -7 -1 2
-4 -2 11 14 8 -10 -11 -4
-6 0 16 17 14 0 -4 -3
-5 5 18 15 17 3 -3 8
-3 9 15 18 15 3 1 13
1 17 20 21 20 4 9 17
5 27 14 18 19 4 18 9
-2 26 15 17 21 0 18 9
-2 24 10 20 16 2 11 12
0 27 9 10 11 -3 8 7
1 29 9 2 8 4 4 10
-2 25 9 4 9 4 0 7
-4 20 7 4 7 -1 5 14
3 22 1 1 6 -2 -1 15
2 21 4 -4 12 -8 4 16
1 25 2 1 16 2 10 19
5 21 6 2 16 5 9 16
5 21 6 5 15 0 11 13
5 21 11 7 11 -2 11 11
1 23 3 8 14 -7 12 8
-5 15 7 4 10 -4 2 9
-8 8 4 11 4 -6 5 5
-3 6 6 12 12 -2 6 8
-3 7 9 15 13 -2 -3 11
-4 13 9 8 11 -8 -5 3
-9 2 4 2 12 -11 -3 3
-11 -10 4 7 7 -8 -8 3
-11 -12 6 9 1 -11 -9 -2
-14 -13 7 5 3 -10 2 -5
-10 -11 10 10 0 -3 -2 -7
0 -3 3 6 -4 -12 -4 -11
5 4 5 5 -3 -16 4 -9
2 1 11 5 -3 -9 -2 -11
-5 -6 8 2 -5 -14 -8 -1
-8 -9 5 1 -8 -17 -7 -2
-8 -5 7 -6 -10 -18 -13 -15
-5 -12 5 -7 -13 -25 -12 -13
-3 -9 6 -4 -12 -28 -16 -6
-4 -6 8 -3 -9 -23 -12 -2
-3 -13 8 3 -6 -20 -5 -6
-5 -10 -1 4 -11 -25 -7 -11
-10 -8 3 3 -12 -21 -8 -15
-7 -14 12 2 -7 -21 -3 -10
-9 -16 4 -7 -10 -26 -8 -3
-12 -21 -1 -1 -10 -21 -13 3
-14 -16 8 2 -9 -16 -7 -10
-17 -9 8 -2 -5 -18 -9 -1
-17 -11 6 11 -8 -18 -13 -4
-13 -13 9 8 -10 -19 -15 -8
-6 -11 9 -3 -11 -24 -18 -6
-8 -10 4 2 -13 -23 -15 -2
-9 -12 1 -4 -11 -25 -17 -12
-8 -7 4 -5 -8 -22 -15 -12
-10 -8 3 -4 -5 -14 -11 -7
-4 -10 5 -5 1 -16 -11 -9
-3 -9 13 10 9 -11 -2 -8
-7 -11 27 37 21 -3 -10 -11
-13 -16 28 62 41 0 -13 -17
-8 -13 42 89 69 12 -9 -18
-1 -7 60 148 116 36 0 -17
15 3 75 204 164 66 2 -18
23 10 80 223 193 88 18 -7
30 19 80 220 203 112 53 15
44 44 67 200 205 145 90 42
52 66 47 155 198 183 140 85
58 98 19 76 165 229 189 147
62 136 -15 -11 121 255 256 205
63 177 -46 -102 74 285 318 261
68 204 -79 -198 25 311 372 311
65 222 -111 -280 -31 307 392 334
54 221 -133 -355 -87 272 390 335
43 196 -146 -407 -149 217 353 308
27 155 -145 -440 -200 148 296 262
-6 116 -144 -455 -254 45 184 195
-37 84 -137 -475 -302 -64 62 114
-58 53 -135 -487 -355 -149 -29 56
-82 38 -125 -474 -385 -220 -79 28
-92 30 -116 -452 -392 -245 -112 -3
-88 6 -108 -405 -352 -247 -123 -28
-73 -18 -92 -349 -312 -230 -106 -29
-52 -28 -81 -306 -277 -204 -103 -32
-50 -29 -65 -263 -240 -172 -90 -30
-46 -9 -56 -232 -210 -151 -82 -20
-39 -2 -50 -190 -175 -126 -73 -19
-33 -7 -47 -144 -141 -107 -63 -25
-27 -3 -40 -111 -113 -92 -49 -21
-23 2 -30 -82 -86 -68 -32 -21
-16 -10 -17 -50 -58 -51 -25 -14
-14 -22 -2 -19 -31 -34 -16 0
-4 -17 6 7 -9 -18 -5 3
-2 -13 3 15 1 -13 -6 -10
-7 -14 1 17 -4 -21 -8 -9
-7 -15 -3 10 -9 -21 -4 -10
-5 -13 -3 13 -10 -20 -9 -13
-4 -18 5 17 -4 -12 -5 -11
-4 -22 5 23 -1 -10 -4 -11
-4 -16 -1 18 -5 -14 -15 -12
2 -18 0 20 1 -14 -14 -9
5 -16 6 27 4 -10 -13 -10
4 -22 5 35 6 -6 -15 -11
5 -18 7 33 7 -10 -21 -16
3 -23 10 37 9 -13 -20 -22
8 -24 2 32 5 -12 -10 -21
2 -22 2 31 8 -4 -8 -16
-2 -21 4 29 7 -9 -11 -9
-5 -27 7 33 9 -5 -14 -11
-5 -27 10 30 10 -13 -15 -12
1 -26 7 33 13 -5 -6 -19
-2 -28 5 43 15 -4 -8 -18
-11 -37 5 37 13 -9 -17 -16
-18 -38 -3 28 7 -7 -24 -14
-14 -34 -4 30 8 -4 -15 -14
-7 -30 5 40 14 -4 -12 -17
2 -23 4 43 23 -3 -16 -19
19 -9 2 37 22 1 -15 -13
18 0 1 38 19 -7 -18 -18
8 -17 5 48 32 2 -15 -16
6 -23 9 51 29 6 -11 -10
-3 -16 11 55 27 10 -4 -12
2 -12 7 54 35 9 2 -7
9 -11 6 50 41 8 2 -15
12 -6 5 48 35 5 -1 -11
12 -16 17 52 31 8 -4 -3
13 -25 12 52 33 7 -4 -5
15 -22 8 51 32 5 -4 -7
8 -25 6 55 34 8 -5 -1
-2 -29 11 59 33 8 -6 -11
-3 -30 11 56 35 11 3 -7
6 -23 16 62 42 25 4 0
16 -3 10 60 44 16 -7 -6
20 -4 6 61 42 18 0 -2
8 -20 9 73 47 25 14 0
13 -17 8 71 45 28 0 -5
16 -18 19 66 46 20 2 4
19 -21 18 67 46 17 -2 -4
16 -19 10 73 47 21 10 -5
8 -15 10 73 46 21 10 -10
10 -18 17 75 47 20 8 -1
14 -15 18 78 52 19 1 -8
16 -12 10 82 54 26 3 -6
13 -11 14 89 57 31 8 5
11 -20 11 85 58 31 11 0
12 -19 7 87 57 29 12 -1
16 -11 12 87 56 34 2 2
19 -9 14 97 60 34 0 5
18 -17 19 96 70 36 3 10
17 -10 22 100 67 40 0 6
13 -7 13 105 68 46 4 1
14 -12 14 103 71 44 4 5
19 -13 13 98 69 39 8 3
18 -13 3 97 66 37 11 -5
8 -22 5 100 64 32 5 -2
14 -9 4 97 65 38 -2 5
29 -4 15 112 78 54 9 14
35 0 21 116 79 57 22 12
34 -4 19 120 78 52 21 2
33 -7 16 126 85 52 22 7
25 -6 16 133 89 57 13 7
24 -3 13 135 89 58 20 6
27 0 12 127 88 59 13 11
24 -6 10 124 84 56 15 8
25 -12 13 125 86 55 31 11
23 -9 12 127 88 63 24 13
29 -4 4 131 91 56 21 14
35 -2 3 130 95 58 21 23
29 -2 9 141 95 66 16 17
28 10 6 135 92 63 18 13
40 9 9 138 93 64 23 18
48 4 8 137 97 64 29 14
53 12 4 129 94 65 23 13
48 16 10 128 94 69 20 14
47 8 15 132 91 70 24 19
40 2 13 134 92 72 30 14
31 3 5 133 89 68 22 13
31 4 2 125 87 64 16 15
34 -1 3 128 87 63 31 21
33 4 4 128 81 59 24 19
36 3 5 122 83 64 28 33
34 -1 4 118 84 72 27 29
34 2 0 118 80 65 23 21
43 8 -3 113 76 58 35 27
46 16 -1 111 74 61 28 34
45 25 -3 108 76 66 25 29
42 22 0 98 71 63 35 34
39 19 2 95 67 60 29 34
36 14 4 97 62 59 29 26
33 17 -3 91 62 51 25 28
31 12 -2 86 58 49 21 32
32 8 4 78 58 54 24 30
30 8 -4 72 53 54 24 27
26 16 -1 66 45 42 26 26
25 31 -9 54 41 35 16 26
20 21 -8 51 43 40 16 23
16 9 -6 52 38 42 27 29
11 -1 -3 52 38 44 31 26
14 5 -2 42 30 45 21 16
15 10 -3 39 28 37 24 14
4 5 -3 36 26 28 21 16
1 1 -1 43 24 25 7 16
7 4 0 40 21 21 2 20
10 -1 -5 30 21 21 1 16
6 3 -5 28 18 20 -1 10
6 4 -4 27 13 29 -5 2
3 -2 2 22 11 26 -7 1
-1 2 6 19 14 26 4 11
-1 9 2 25 9 14 2 8
2 3 0 20 14 11 -7 4
-3 5 2 9 13 12 -1 2
-2 7 2 6 7 12 -5 -3
1 9 0 10 6 12 -14 7
4 7 -5 7 7 10 -14 9
4 2 -3 10 11 10 -4 5
-2 -2 5 14 9 14 -1 2
-5 -4 5 7 4 10 -5 5
2 1 1 11 -1 7 -5 1
0 -3 -2 7 1 8 -6 0
3 -6 -3 8 6 9 -16 3
3 -2 -1 9 6 5 -16 3
-5 -6 -1 8 3 6 -8 -1
-9 -3 0 10 3 8 -14 -3
-8 4 -4 6 6 7 -16 -3
-7 1 -4 0 3 4 -23 2
-6 -4 -3 1 3 6 -13 0
-9 -6 -2 12 -1 7 0 2
-11 -12 -1 5 -5 0 -3 -2
-13 -9 -1 -3 -2 1 -13 -3
-15 -14 -2 -5 -2 10 -14 -2
-11 -14 0 1 -4 15 -15 -2
-8 -14 3 8 -3 5 -17 -6
-11 -15 -2 -1 3 13 -15 -8
-5 -9 0 -2 -1 6 -6 -5
2 1 4 5 -4 0 -17 -4
1 3 0 2 -3 2 -10 -6
0 1 4 10 -1 10 -6 4
-7 0 8 13 1 6 -6 0
-11 -5 1 10 -2 9 -6 -3
-6 1 -4 6 3 9 -11 -1
-14 0 0 2 1 6 -17 1
-10 1 3 2 4 18 -9 10
-1 3 4 -1 4 12 0 -3
2 4 1 -3 1 0 -6 -4
-1 -1 0 -4 0 6 -8 -2
-6 -7 -1 -4 2 4 -7 2
-3 -9 -2 -3 -2 4 -17 -1
-7 -10 0 -2 -2 5 -12 -1
-10 -7 -4 4 -1 5 -14 -1
-7 4 -7 -3 -6 1 -15 -2
-4 4 3 0 -3 1 -14 5
-4 -2 4 5 3 6 -11 -6
-3 -1 -3 0 -1 5 -17 -9
0 3 0 -2 -1 -1 -24 -11
0 -4 6 3 5 8 -15 -5
-4 -3 -2 2 1 7 -9 -2
-7 -8 3 3 5 10 0 -2
-9 0 3 0 8 8 -14 -1
-5 -4 -6 1 3 11 -11 -7
-4 -6 2 3 8 4 -4 -2
-1 -4 9 7 5 5 -3 1
-1 -2 2 4 -1 4 -1 -4
-5 3 -3 6 -2 -1 -12 0
-7 0 5 -2 7 9 -15 -3
-2 -1 4 2 5 6 -13 -5
-5 -1 2 1 3 9 -4 5
-7 -7 5 8 3 9 -6 -1
-12 -9 9 10 6 3 -8 1
-13 -4 5 2 0 4 -15 -5
-9 -10 -4 -1 -1 6 -12 -5
-4 -6 2 6 7 6 -11 5
2 -1 5 9 11 10 -9 -3
5 11 6 4 6 10 -9 -5
3 12 8 7 6 10 -6 5
6 6 4 6 8 14 -7 4
7 7 -3 -2 4 9 -12 -2
3 1 -3 -2 3 6 -15 2
-1 -5 0 0 5 9 -5 6
-3 1 2 9 6 9 -7 1
-4 1 -1 9 2 3 -5 -4
1 3 1 -1 7 1 -11 -3
-3 -1 5 3 9 13 -7 4
-12 -2 -1 9 5 14 -5 2
-7 -3 0 2 4 15 2 4
-7 7 1 -2 9 12 -3 -1
-9 1 0 3 12 6 1 6
-5 13 -2 2 7 9 -1 5
-2 6 2 6 6 14 -2 2
-1 1 -1 4 5 6 -3 -2
0 -3 9 8 6 13 6 0
4 7 4 6 8 9 4 2
6 13 -4 -1 4 0 -7 -1
0 -1 -3 5 6 3 -3 1
-3 -4 -1 4 7 4 0 -1
1 1 -3 4 5 9 -10 -1
-2 -1 -6 0 2 10 -8 9
-6 -8 -7 7 3 11 5 2
-4 -7 -2 7 10 2 11 5
-3 4 4 5 14 3 -2 1
-2 6 7 12 13 4 -3 10
0 7 -1 3 7 5 0 5
2 7 -1 1 7 3 0 0
3 6 6 4 7 8 11 -1
6 7 4 10 9 23 4 1
6 9 3 7 8 12 -2 2
-2 5 14 10 7 19 -6 1
-5 10 8 10 9 12 1 3
6 6 4 8 9 10 2 1
1 5 9 11 12 10 2 9
-7 5 11 13 13 12 2 13
-4 12 10 12 16 11 -1 10
-8 10 9 16 18 9 -1 9
-8 5 10 23 17 13 0 9
-7 8 14 19 21 19 8 13
-3 12 3 10 19 9 -1 9
2 5 3 11 17 10 8 14
3 12 7 12 16 10 3 13
6 19 8 14 18 12 3 18
7 20 10 15 22 15 11 22
4 25 15 21 22 22 15 18
7 31 9 17 20 21 6 12
8 33 14 12 21 19 5 15
9 32 7 6 18 9 9 19
8 36 2 0 16 11 14 13
3 27 4 -2 12 19 32 18
-1 19 -4 -6 9 7 18 13
1 19 -10 -2 6 4 9 9
4 22 -7 1 5 10 1 9
7 34 -2 0 6 8 5 10
8 36 1 -3 14 6 10 11
6 30 0 -1 16 10 10 11
8 26 -3 -2 15 14 12 12
0 18 0 -1 14 7 16 22
2 17 3 -4 11 6 18 22
8 25 -3 -6 7 -1 10 17
1 21 -4 -3 8 4 12 19
2 18 -5 -2 6 6 8 6
1 15 3 5 11 5 11 12
6 16 -1 1 11 10 15 15
5 11 5 1 12 4 19 7
4 9 1 0 14 2 15 5
0 8 7 6 15 4 6 4
4 9 5 5 10 7 8 0
-1 1 2 1 7 1 8 1
-5 -5 6 -3 6 -1 -1 -1
-2 -4 -3 -9 1 -12 -14 -10
-8 -5 -5 -9 -5 -13 -6 -11
-13 -13 1 -4 -4 -2 -6 4
-2 -11 1 -11 -1 -2 -9 -1
5 0 10 -2 -1 4 -8 1
7 8 9 5 -3 2 -7 4
4 5 0 -5 -4 -12 -1 4
3 1 -1 -6 1 -10 3 4
0 4 -1 -2 6 -12 4 6
-3 -3 4 2 4 -5 4 5
-4 -5 -1 -2 -3 -10 -1 -1
-4 -4 -3 -6 -5 -11 -4 0
-8 -5 1 -9 -5 -8 -6 -1
-4 -6 0 -10 -5 -5 -5 -2
1 -8 2 -7 -4 -13 -13 6
-3 -5 0 -6 -7 -11 -15 -2
-7 -7 3 -8 -4 -9 -12 -5
-3 2 -2 -1 -2 -3 -16 -4
-2 -3 3 3 3 -3 -15 3
-6 -12 6 -1 8 0 -10 -5
-2 -2 6 -6 3 -6 -6 -12
0 -6 6 -3 5 -11 -5 -5
0 -8 1 0 3 -2 -11 4
1 -7 0 2 4 -8 -13 3
3 -6 10 18 12 -8 -11 -1
5 -3 23 35 30 1 -12 -4
1 -2 31 60 57 12 -10 -5
0 -1 42 104 85 18 -9 -2
7 -3 70 170 137 44 1 -5
18 9 86 221 182 74 10 -7
24 14 83 232 204 97 30 10
34 38 78 224 216 129 56 34
41 56 72 199 217 155 91 65
51 84 45 131 199 193 155 104
67 125 13 26 163 238 213 159
77 163 -19 -65 125 280 260 215
81 197 -51 -146 91 312 320 266
77 222 -96 -246 34 326 369 307
79 239 -131 -338 -19 318 378 334
79 239 -157 -401 -82 286 368 337
76 217 -170 -450 -137 229 340 304
54 178 -171 -476 -184 157 265 257
16 130 -166 -491 -247 50 163 201
-15 89 -159 -498 -300 -56 51 121
-30 60 -153 -485 -335 -141 -27 56
-49 51 -144 -481 -361 -208 -74 22
-67 33 -124 -449 -356 -235 -98 1
-62 7 -115 -391 -316 -222 -96 -7
-46 -11 -105 -339 -280 -198 -99 -11
-42 -15 -94 -284 -247 -173 -91 -22
-39 -10 -81 -243 -208 -147 -80 -22
-38 2 -68 -200 -176 -127 -71 -18
-30 9 -57 -171 -142 -106 -59 -6
-17 15 -47 -133 -109 -82 -54 -4
-3 19 -38 -91 -78 -62 -39 -1
9 14 -29 -58 -52 -43 -18 3
18 9 -16 -29 -26 -31 -25 8
21 10 -2 2 -4 -13 -17 6
24 2 1 11 6 -4 -13 -2
16 -3 4 9 11 -13 -6 -5
13 -4 3 11 7 -12 -14 -5
15 1 1 16 7 -12 -13 -5
24 2 -3 13 4 -14 -12 -9
22 -2 1 23 9 -2 -4 -2
18 -4 2 29 10 -3 -3 4
8 -7 0 24 7 -8 -22 -8
11 1 3 27 10 -10 -23 -20
16 -3 5 34 19 3 -14 -12
17 -8 3 33 21 -4 -14 -6
19 2 1 32 23 -6 -20 -13
16 -4 4 34 20 -5 -15 -8
16 -4 1 34 18 -4 -16 -17
16 -8 4 35 21 -1 -18 -14
12 -5 15 37 23 -3 -11 -2
18 -2 14 42 29 1 -3 -3
20 -4 12 38 32 -5 -9 -12
15 -8 12 41 33 1 -13 -14
16 -11 13 50 37 5 -13 -6
12 -12 9 45 37 6 -17 -5
13 -5 6 41 34 12 -12 -4
19 -5 7 41 31 7 -7 -6
19 -7 14 44 32 2 -14 -7
21 3 10 44 37 1 -11 -4
18 -2 8 50 38 4 -9 -6
19 -11 8 43 30 4 -16 -5
26 -11 7 49 30 4 -12 -4
26 -8 9 54 34 9 -9 -7
26 -6 13 57 38 6 -5 2
24 -2 7 62 46 9 1 2
26 2 7 60 40 7 3 -1
21 -3 8 57 43 2 -1 -3
21 -4 9 58 47 11 -3 3
24 -6 9 60 41 16 -4 -5
20 -12 8 55 41 2 0 -4
22 -6 4 58 47 3 -4 -4
25 3 5 65 48 10 2 -5
30 4 13 71 52 16 -4 0
30 -4 22 69 54 16 1 12
20 -9 15 70 57 12 6 6
20 -4 11 67 55 12 -3 6
22 1 8 70 52 18 -5 12
24 0 4 69 53 19 9 5
22 -8 6 76 54 15 3 1
27 -3 11 78 56 16 -6 5
37 3 19 88 61 17 -3 5
41 3 18 88 62 25 0 2
36 1 13 83 62 30 2 -4
37 -4 10 85 66 24 4 -8
39 2 12 89 67 20 11 -3
31 2 10 89 69 23 1 0
26 -3 8 86 69 26 11 9
29 -4 12 94 71 31 17 12
33 0 13 98 71 29 6 9
36 5 19 103 71 26 1 10
34 0 20 107 81 32 11 6
36 2 14 106 79 34 9 5
39 0 18 110 80 37 5 4
39 1 26 113 82 28 2 0
33 -5 17 115 81 27 4 3
34 5 12 120 85 36 9 0
36 18 12 120 86 32 5 1
38 16 12 116 81 32 18 6
42 6 19 117 84 34 19 13
38 4 20 127 87 34 23 15
33 -3 19 131 93 38 30 16
27 -4 15 135 98 41 28 8
34 2 12 138 96 43 26 7
34 -1 16 138 96 41 21 11
39 0 17 138 99 40 18 8
45 1 15 143 97 40 22 8
46 5 11 144 96 46 31 5
52 17 15 139 103 44 30 12
60 22 16 138 105 46 35 18
58 13 16 147 102 47 31 19
60 21 16 146 100 47 28 24
62 31 14 146 106 50 20 27
52 19 15 153 111 55 28 23
51 11 12 152 107 58 27 21
56 15 7 142 111 50 25 27
61 19 6 141 107 42 21 32
57 23 6 141 103 50 21 24
54 17 13 143 99 55 28 23
56 22 12 149 101 51 31 25
61 21 12 144 96 54 25 31
64 22 15 143 95 54 33 40
64 22 14 139 99 51 31 38
57 18 9 137 97 57 35 32
54 15 6 131 93 63 39 31
55 25 3 124 86 53 30 26
55 27 9 123 81 45 33 31
56 32 7 124 83 44 29 35
60 30 7 109 82 44 29 35
60 21 4 106 73 43 30 31
57 18 -2 104 70 44 27 33
58 21 -2 98 67 49 39 36
51 23 2 96 67 49 34 35
50 28 4 90 69 42 26 41
50 29 6 88 62 40 30 41
43 21 3 84 59 37 34 31
42 27 -5 67 52 32 28 25
40 23 -3 59 50 26 16 25
40 25 -1 55 42 25 20 15
37 23 -9 50 38 27 23 18
35 17 -9 51 37 24 27 18
36 22 -2 48 40 18 29 20
28 23 4 48 46 19 21 27
28 26 4 48 46 24 20 28
33 27 2 48 40 20 17 22
23 23 1 38 37 20 12 18
23 24 -2 30 37 18 15 19
25 24 2 32 30 17 16 15
23 22 -1 29 34 21 14 16
17 20 -2 18 25 13 14 13
14 15 -2 18 21 8 23 10
17 14 -1 18 22 2 13 14
15 13 3 13 25 0 8 18
10 13 5 11 24 -3 3 9
17 16 5 22 22 2 13 12
18 20 3 15 20 1 5 11
14 18 -2 8 18 1 4 7
16 21 2 12 15 5 2 4
16 19 3 11 14 7 0 1
16 15 4 8 11 1 4 6
10 11 8 16 18 3 3 20
10 14 7 16 17 7 4 13
13 14 5 9 11 3 2 13
14 13 7 13 14 0 4 17
16 9 2 9 14 -5 3 6
13 8 0 4 12 -9 11 13
17 13 -3 2 8 -5 7 18
18 14 4 9 12 2 4 6
14 14 8 7 17 -3 1 6
7 10 0 1 9 -3 -1 10
9 9 -4 5 9 -11 0 5
15 11 2 3 4 -10 7 7
19 15 -3 -2 5 -7 -1 8
17 10 -1 4 10 -1 -3 15
17 6 2 8 10 1 1 11
12 2 6 6 12 3 7 9
7 5 1 2 10 -1 7 7
11 8 6 0 6 -5 -3 11
15 9 6 2 3 -2 -6 7
12 6 0 2 7 -1 -4 6
12 5 4 2 3 -6 -5 3
12 11 2 0 4 -6 -5 4
12 13 1 -2 7 -5 -8 7
17 10 1 2 8 -4 -1 1
22 19 0 3 9 -1 0 2
18 8 -1 6 14 3 -5 8
21 9 1 6 12 0 -1 18
21 8 1 8 9 -5 -2 17
17 13 -1 2 7 0 -4 11
15 11 2 11 14 -3 -2 6
16 7 5 6 12 0 -3 5
20 8 0 8 10 2 -6 1
14 9 -1 7 11 0 -1 3
14 9 -2 -3 8 -9 0 3
18 12 -4 0 11 -7 0 -2
10 14 -5 -3 5 -5 11 2
10 6 -2 7 6 -2 0 16
10 10 -4 3 4 -4 -11 7
9 8 -5 0 8 -4 0 3
14 12 -2 8 5 -6 1 6
17 13 0 15 9 -3 2 7
17 15 1 12 10 -4 -4 8
16 17 5 10 11 0 3 5
12 15 6 10 12 5 10 0
12 15 5 10 13 0 8 5
9 15 7 3 7 -2 0 7
6 6 10 8 10 -4 1 5
9 8 9 13 8 -4 3 9
13 14 2 3 3 -2 -1 6
18 21 2 0 5 -5 -8 -1
25 19 1 0 6 1 -6 -2
18 8 5 6 6 0 0 -1
16 12 0 8 5 5 4 4
15 9 2 8 6 3 2 -3
13 3 0 8 5 -4 4 -2
13 6 -1 6 10 -4 0 7
22 12 2 11 12 -1 13 6
17 13 0 1 5 0 0 0
8 2 0 4 2 -2 2 -7
7 -7 5 4 3 -6 5 1
7 -1 0 8 2 1 3 5
14 9 0 5 3 -1 -1 9
21 22 7 4 8 -2 12 4
25 18 10 8 14 2 14 7
20 16 5 18 9 3 5 0
18 16 8 17 9 4 6 -5
18 9 8 6 15 1 1 -3
16 9 0 4 10 -1 0 0
15 13 -2 4 9 0 2 4
15 17 -2 4 9 1 6 5
20 16 3 4 12 2 15 2
15 15 11 8 9 -1 13 3
8 10 8 10 8 -5 10 7
8 8 9 7 10 -6 3 5
6 7 9 6 9 0 8 5
9 4 6 1 6 5 4 1
11 3 1 0 4 -6 -5 -2
10 5 0 -5 9 -8 2 -1
13 8 3 0 3 -4 7 -2
13 18 1 5 4 -1 4 0
14 12 2 2 3 1 -1 -8
15 11 8 0 5 8 -1 2
17 12 10 8 8 1 4 13
18 8 8 13 11 1 6 -3
9 5 7 8 8 2 13 -5
5 0 10 5 6 2 14 -3
5 0 6 0 0 2 13 -3
11 11 0 -2 1 3 12 -8
11 9 0 0 5 -1 3 -2
11 11 5 2 9 1 6 0
10 8 2 6 7 0 13 -4
9 8 5 9 5 -1 14 -2
8 5 5 11 7 -3 12 -5
9 9 4 6 8 -2 6 -8
8 13 3 2 13 3 10 -4
7 11 3 5 12 3 7 -1
6 12 9 8 10 1 2 2
21 26 11 9 19 0 9 4
25 37 16 12 21 7 20 15
24 32 13 12 10 12 20 3
23 25 12 10 9 5 8 0
20 25 9 9 11 2 16 -3
21 24 8 17 13 4 16 -6
20 25 5 13 10 10 11 -6
16 23 7 10 12 8 11 2
18 25 13 14 14 9 16 1
18 29 21 21 16 12 12 4
15 36 15 6 18 7 17 -1
17 40 6 7 10 12 17 -2
16 36 4 5 9 12 16 4
13 36 1 1 7 10 23 6
11 38 10 -1 13 21 22 10
4 31 4 -1 4 17 16 7
2 24 -7 -7 -4 1 12 2
3 22 -6 -12 -3 -5 15 1
8 25 -9 -15 -5 -1 11 2
17 29 -6 -16 -2 -2 8 -2
18 29 -2 -8 3 -2 13 -2
19 34 -4 -7 -2 6 18 -2
23 30 -1 -6 1 15 29 8
17 28 2 -6 -1 11 18 1
13 26 10 -9 -1 2 9 -1
13 25 3 -7 1 -4 15 -9
6 25 -6 -5 2 -2 18 -12
11 27 0 -4 6 5 12 -10
19 29 4 -3 5 0 10 -11
20 23 7 -4 2 6 23 -10
16 22 5 -4 5 10 22 -5
14 17 3 -4 9 12 5 -3
15 15 5 4 6 6 6 -1
11 12 8 6 -1 6 7 -13
6 9 13 -3 -4 -1 1 -15
6 4 7 -6 -9 -1 -2 -19
2 -3 2 -11 -9 -4 -1 -22
0 -6 6 -16 -8 -11 12 -11
0 -6 6 -15 -7 -13 15 -1
3 -1 1 -14 -12 -12 5 -2
2 6 -5 -17 -11 -5 -1 -13
7 -2 -6 -16 -9 -9 4 -13
9 -2 -5 -17 -11 -12 1 -13
4 2 -5 -14 -13 -2 -1 -16
8 0 -1 -11 -14 -6 -5 -18
4 2 -3 -11 -14 -9 -3 -17
4 -2 1 -11 -11 -8 -6 -8
4 -3 2 -9 -11 -8 -7 -14
2 3 2 -13 -7 -12 -2 -12
11 8 5 -10 -8 -6 0 -19
9 11 2 -10 -11 -10 -8 -18
1 -1 -2 -11 -7 -6 -1 -24
-5 -3 0 -15 -11 -10 -4 -19
-4 -2 -3 -8 -12 -13 -3 -20
-5 -8 -1 -10 -11 -10 -8 -14
-10 -3 -1 -16 -5 -7 -5 -13
-12 0 -1 -11 -10 -11 -11 -13
-12 -8 -4 -8 -11 -13 -4 -20
-7 -2 -4 -11 -8 -9 -1 -23
0 10 6 3 -2 8 2 -20
-5 7 17 21 15 6 1 -15
-8 8 20 43 31 9 -5 -25
-2 11 36 76 57 18 0 -23
14 13 57 131 96 33 7 -28
21 13 70 193 144 60 14 -32
29 26 82 222 173 83 32 -15
38 42 85 227 192 109 53 0
46 56 77 216 208 145 82 26
56 79 51 160 197 170 120 53
67 107 20 62 176 214 176 107
74 150 -16 -27 147 254 237 164
81 196 -55 -124 109 295 291 210
85 219 -90 -227 64 324 346 263
83 246 -126 -315 18 335 370 296
80 249 -155 -387 -36 313 368 299
76 223 -177 -442 -92 262 346 290
61 180 -183 -476 -151 192 296 257
33 136 -178 -495 -208 102 209 192
-7 101 -173 -513 -256 1 114 124
-35 66 -165 -508 -302 -87 34 65
-56 50 -155 -500 -346 -157 -29 15
-72 33 -139 -468 -360 -198 -69 -13
-69 9 -124 -415 -334 -209 -86 -16
-55 -11 -119 -364 -297 -192 -81 -18
-48 -16 -109 -315 -260 -166 -71 -23
-48 -9 -83 -268 -222 -145 -57 -25
-41 0 -72 -227 -188 -124 -54 -20
-35 4 -66 -192 -152 -101 -42 -17
-29 9 -57 -158 -123 -82 -45 -30
-23 11 -47 -116 -95 -63 -31 -22
-10 15 -31 -79 -67 -40 -7 -26
-6 7 -16 -49 -36 -26 -18 -15
-8 -3 -4 -17 -12 -16 -15 -13
-5 -5 -4 2 -2 -4 -12 -14
0 -3 -1 8 -2 -7 -13 -11
-4 -7 -5 10 -2 -12 -9 -12
-4 -9 -6 11 0 -10 0 -14
1 12 -4 4 -3 -13 -7 -18
2 5 1 14 -1 -8 -5 -26
-1 -10 8 19 2 1 -10 -20
3 -4 7 22 2 -3 -9 -18
10 2 6 32 3 -4 0 -11
4 0 2 24 3 -11 -8 -23
1 -10 1 20 10 -5 -4 -27
5 -8 4 27 12 1 -3 -23
7 -1 3 20 6 7 -8 -27
5 -2 10 22 7 -2 -11 -19
2 -14 1 23 13 -7 -16 -23
1 -14 -4 20 16 -3 3 -21
1 -11 -3 27 11 -2 0 -27
3 -9 1 28 7 1 3 -22
8 6 6 22 6 2 -3 -22
9 3 0 27 13 1 -6 -25
11 3 -4 26 17 0 8 -28
7 -9 -3 31 13 2 4 -21
5 -10 -2 35 10 -4 -15 -29
11 -7 -4 31 18 -2 -9 -24
20 -1 -2 37 24 4 -6 -17
18 0 2 34 21 0 -12 -21
12 -4 0 31 20 5 -8 -27
7 1 -10 32 14 -4 -11 -31
7 -12 5 37 15 -5 -9 -24
16 -4 2 43 17 1 -9 -22
23 0 3 42 22 2 -10 -25
24 3 2 45 26 5 -11 -28
19 0 0 38 24 6 -10 -28
25 7 0 43 20 3 -5 -25
22 7 6 51 28 5 -3 -17
15 0 -1 47 34 12 -3 -20
16 -8 -2 46 31 4 -4 -15
21 -10 -2 54 30 4 2 -15
29 -1 1 54 32 6 1 -20
26 1 3 58 32 10 -6 -19
25 0 3 58 35 13 -2 -20
26 -3 -3 58 33 9 2 -18
27 -8 0 52 35 8 -6 -27
31 1 -2 58 34 7 -6 -22
31 0 -3 63 32 19 3 -20
24 -9 1 69 37 25 11 -23
26 -7 4 75 40 21 7 -15
30 3 1 71 40 19 2 -17
39 9 -7 68 40 15 -2 -21
38 0 1 74 45 15 -2 -17
34 -2 2 74 49 23 -1 -15
35 -2 -2 71 46 17 4 -20
33 -4 -3 74 45 16 6 -18
27 -9 5 80 58 20 6 -7
31 1 3 76 59 19 7 -9
35 3 2 74 53 22 1 -22
36 -4 5 83 48 29 14 -17
39 -5 8 87 52 33 12 -9
42 0 5 83 52 27 10 -16
37 13 -6 83 57 20 1 -19
33 8 -2 87 65 29 5 -10
27 0 -4 94 62 36 4 -9
33 -1 -3 94 60 31 10 -13
40 3 0 99 64 33 10 -13
38 2 1 103 69 32 6 -8
40 -1 -2 103 65 32 8 -10
42 0 3 109 72 34 12 7
48 5 7 107 75 36 16 -2
55 5 0 111 69 29 10 -15
52 5 6 114 73 32 17 -3
51 7 12 118 75 41 16 -4
48 11 6 119 77 43 15 -6
41 15 7 125 79 41 28 -2
48 10 8 124 90 42 29 -1
53 4 8 124 83 39 15 -6
54 7 1 122 81 41 16 -2
56 13 8 123 86 53 29 5
63 17 8 127 84 46 31 6
61 21 10 129 83 50 29 15
65 19 4 123 82 48 27 13
67 23 3 125 81 41 24 9
63 21 0 128 84 42 24 9
62 20 3 122 79 42 24 5
64 26 3 125 77 49 21 9
66 23 0 119 72 52 25 13
53 9 9 120 75 54 31 20
52 5 3 124 74 46 21 14
53 8 3 121 72 46 27 19
55 17 6 118 73 42 39 15
56 17 -1 115 70 43 31 13
57 18 -1 111 71 43 34 19
63 17 -1 109 70 44 38 12
67 22 -11 108 67 40 28 8
65 19 -6 103 63 48 26 12
62 19 0 92 56 49 31 19
59 22 -3 91 57 47 37 18
55 28 -1 89 54 42 37 21
56 30 -6 80 49 35 26 26
54 27 -7 75 48 38 27 24
50 25 -2 75 50 42 32 23
45 20 -2 72 50 42 31 19
45 21 -7 66 45 31 26 11
40 20 -4 56 42 29 32 18
38 11 -4 51 36 35 24 25
41 19 -8 46 35 29 23 15
37 23 -6 44 34 28 22 15
33 24 -5 43 31 26 24 12
36 18 0 37 31 23 21 5
34 20 0 33 29 22 19 5
34 25 2 40 29 28 19 12
34 29 7 28 24 29 25 3
32 27 -6 23 18 19 18 -3
25 18 -2 18 19 19 19 -1
20 16 4 21 23 20 21 5
23 24 3 15 22 21 23 -2
27 20 3 13 20 18 30 -4
20 11 3 14 20 16 25 -2
20 8 4 20 18 18 17 3
22 12 3 13 12 10 10 -2
15 16 -6 2 8 7 4 -8
16 13 -5 7 13 10 3 -8
13 15 -4 8 14 7 5 1
11 6 2 6 11 8 9 4
13 2 0 11 8 6 0 0
8 0 -1 6 8 8 -2 0
6 -3 3 5 12 11 1 -12
10 2 -1 7 16 8 6 -9
13 2 -2 5 10 11 14 -2
11 3 -4 5 6 13 11 -12
6 1 1 4 7 8 1 -16
-1 -2 3 2 10 10 -3 -15
6 3 5 -2 6 5 8 -9
19 6 1 3 8 9 10 -4
19 5 10 2 10 7 -5 3
18 7 11 2 11 3 0 5
23 7 7 7 12 10 12 -1
25 9 -1 14 15 15 14 -3
15 7 -2 5 17 9 14 -11
10 2 7 8 12 6 13 -10
12 6 7 8 10 6 3 -8
14 5 -2 0 9 6 5 -7
19 10 0 2 10 14 7 4
22 9 5 5 15 11 12 -1
12 2 5 6 11 3 9 -9
5 2 5 4 10 3 7 -7
-2 5 2 7 8 5 6 -6
-2 8 -2 -2 4 3 -4 0
5 -3 6 -2 11 7 5 2
14 -1 4 -3 8 1 7 -6
18 6 4 6 15 12 6 -8
11 8 2 7 12 11 8 -2
14 3 1 -1 12 15 11 2
15 3 -1 -3 10 5 16 4
18 5 -3 -3 4 5 3 1
19 9 -2 0 3 7 0 6
20 7 2 3 7 8 7 6
18 1 6 1 9 13 8 -2
12 -3 3 2 10 12 4 -4
10 -2 -3 5 12 5 0 -3
9 -1 0 3 8 3 6 -7
12 -1 2 2 13 9 9 -3
7 -2 2 2 11 10 13 0
8 -3 -1 -3 14 7 0 7
12 3 0 3 10 7 -4 10
10 3 7 9 13 9 3 7
13 10 2 1 10 6 8 3
15 5 -3 -3 11 6 4 6
16 6 1 3 12 4 6 -2
14 1 6 11 13 8 6 3
8 -5 8 6 17 13 3 1
3 -8 8 0 13 6 3 8
7 -4 10 3 9 4 1 5
11 -4 3 3 7 4 -5 -4
7 6 3 4 7 7 0 -1
13 10 5 8 15 13 9 9
23 11 7 7 15 20 13 10
23 8 13 11 13 18 12 2
7 -1 10 7 14 10 8 1
10 2 10 8 17 11 6 2
17 7 13 8 17 10 7 7
19 5 5 10 14 8 9 5
23 8 8 5 11 7 2 -2
23 6 7 14 17 9 5 -3
17 2 10 13 16 11 9 0
13 -2 4 13 17 10 10 8
7 -3 1 11 15 9 6 3
10 -4 2 12 12 6 6 -2
11 4 7 9 13 8 8 5
9 8 9 7 17 19 7 0
9 2 12 12 15 18 10 -1
5 2 9 11 13 11 13 4
1 1 10 17 12 9 8 6
6 -1 6 10 10 5 10 -2
13 8 5 7 10 7 6 -1
13 4 4 9 11 12 5 3
10 -4 7 2 14 8 9 1
1 -9 8 5 14 11 10 -1
8 1 9 8 17 6 7 -5
13 5 5 7 15 7 4 2
12 3 12 11 17 13 15 8
11 2 12 7 17 8 8 2
18 5 11 10 11 14 -1 6
15 7 11 16 11 11 5 2
11 6 10 12 11 7 10 4
8 3 9 10 16 13 6 5
6 0 8 12 20 13 5 4
7 0 15 11 19 10 10 7
12 7 9 2 7 3 0 3
10 4 6 6 8 2 -3 5
-4 -10 6 7 15 12 5 -2
-1 -3 2 7 10 7 4 5
0 -4 5 5 11 8 10 7
-8 -8 10 9 16 16 9 8
1 -2 13 10 14 14 7 6
11 4 5 5 13 6 0 -3
8 5 0 9 10 5 5 4
6 1 11 10 13 16 8 10
9 0 17 8 18 18 11 16
15 9 9 6 14 11 9 11
15 6 2 9 16 14 5 11
9 2 3 5 11 8 6 7
7 4 7 7 15 9 12 6
7 13 8 9 15 8 4 5
12 18 1 14 10 7 -3 7
10 10 6 16 13 16 1 4
6 5 9 14 22 12 6 5
8 18 6 12 21 9 5 1
8 16 12 14 17 14 12 4
6 13 16 14 17 14 17 4
8 10 11 13 24 21 15 7
9 13 13 15 20 15 12 11
7 13 16 14 21 16 13 12
16 16 12 14 21 11 10 14
9 9 15 17 22 13 12 9
2 6 20 20 19 17 7 5
3 7 14 19 16 11 0 6
10 10 10 15 18 13 2 8
10 20 15 17 20 16 7 20
9 24 15 20 27 20 7 18
5 19 17 23 24 24 13 19
0 15 16 25 21 29 22 25
3 21 10 14 18 21 25 22
5 33 2 2 17 16 20 19
6 36 8 2 15 19 11 21
5 25 7 2 12 23 20 23
10 23 4 -4 10 15 20 21
11 27 -4 -3 9 13 14 20
8 21 -1 1 13 23 26 21
10 25 0 7 18 17 27 18
11 31 -5 5 12 10 11 21
9 27 -2 7 18 19 15 28
13 20 0 13 23 20 22 22
10 20 -1 10 17 15 21 16
2 14 -1 13 21 14 17 25
2 13 7 10 17 19 15 18
-5 1 6 8 23 17 15 16
-10 -5 1 7 18 15 17 19
-5 10 3 0 11 11 16 20
1 6 6 13 17 15 8 30
7 5 9 17 23 16 11 18
9 9 16 17 23 16 15 14
11 9 14 16 22 15 8 12
7 2 7 12 21 12 9 7
-1 -6 6 7 10 9 3 6
-2 -9 5 15 7 7 -1 8
-2 -8 0 9 3 3 -3 5
-5 -9 3 4 7 8 5 6
-6 -9 5 4 10 6 2 5
-2 -9 9 4 10 2 1 4
-2 -8 4 2 6 4 7 2
-7 -9 0 -2 4 0 -3 9
-9 -2 2 0 3 -1 -7 9
-6 3 5 0 8 -2 1 16
3 -2 3 0 8 3 -7 10
1 -9 1 -3 6 -1 -2 5
-3 -8 4 0 10 5 -3 8
-5 -8 15 1 8 7 -2 13
-4 -16 10 2 8 3 11 18
-6 -17 3 3 5 0 13 13
-10 -11 14 5 6 -2 -3 12
-8 -13 20 10 12 5 2 11
-9 -15 13 7 9 12 6 11
-5 -16 7 6 12 10 12 11
-3 -14 5 -3 10 10 7 9
-10 -12 4 0 10 4 7 8
-10 -16 3 -1 2 -2 5 3
-10 -20 3 -5 -1 -3 -5 2
-12 -19 8 1 6 6 0 2
-8 -20 17 12 16 9 1 -2
-5 -12 27 33 34 19 -2 2
-3 -3 28 53 54 24 3 4
1 0 42 90 78 33 1 4
9 3 66 150 122 52 9 -3
20 14 89 209 165 83 14 1
25 18 102 237 190 106 33 19
35 27 93 244 210 127 49 34
50 39 83 237 220 159 86 58
59 58 64 186 214 189 130 88
66 96 25 90 183 215 176 134
74 129 -9 -1 156 255 235 191
93 162 -49 -92 124 289 305 235
92 193 -90 -200 80 317 352 283
90 210 -115 -293 29 322 369 315
89 200 -141 -360 -29 300 373 320
76 171 -164 -424 -88 249 335 299
66 141 -174 -463 -146 182 274 259
34 116 -163 -484 -207 78 185 198
-9 83 -151 -491 -254 -13 90 134
-31 42 -145 -493 -297 -90 12 76
-55 30 -132 -473 -324 -151 -41 38
-69 23 -110 -438 -327 -192 -73 16
-61 0 -100 -396 -303 -181 -75 14
-48 -21 -95 -343 -276 -166 -79 5
-44 -21 -89 -301 -241 -159 -73 -4
-46 -19 -71 -255 -209 -133 -64 -5
-45 -19 -55 -220 -177 -112 -57 0
-32 -4 -47 -186 -147 -95 -45 -2
-26 0 -38 -148 -118 -73 -34 6
-23 -5 -31 -107 -86 -56 -30 3
-14 -8 -28 -67 -56 -42 -28 8
-8 -17 -16 -35 -30 -28 -20 2
6 -18 -5 -14 -9 -16 -9 4
7 -22 8 1 4 -1 1 19
0 -25 11 5 10 0 -3 5
-1 -17 7 14 9 2 -2 1
3 -15 8 11 9 3 11 0
-2 -24 15 16 11 -7 0 1
-4 -15 11 14 10 -5 -12 4
0 -12 9 18 11 -3 -9 -1
3 -14 16 33 17 8 -5 -3
5 -22 17 28 18 -2 -10 2
5 -21 17 24 17 -5 0 3
9 -15 21 25 18 4 -5 5
10 -9 16 27 22 8 -1 5
11 -16 16 28 18 4 6 -1
10 -21 21 35 21 5 3 10
10 -21 15 34 16 1 -2 7
11 -20 19 33 21 8 -3 0
7 -17 20 39 21 3 4 7
6 -20 19 40 25 -1 5 0
6 -21 16 49 33 2 1 1
10 -19 22 44 31 6 4 11
10 -20 21 37 24 11 2 7
5 -22 20 37 22 7 -6 -4
4 -28 16 31 25 4 -5 4
1 -29 14 35 22 12 -6 3
2 -23 12 34 19 7 -8 -7
4 -21 19 47 25 7 7 0
13 -14 24 51 29 8 6 4
15 -14 22 52 30 8 6 -3
16 -18 25 46 32 15 18 -4
12 -19 20 47 36 17 6 2
9 -13 15 45 37 11 5 3
15 -8 17 51 34 14 8 -1
17 -14 21 58 46 18 6 7
17 -16 28 55 44 16 5 9
21 -16 28 52 35 18 1 10
17 -18 20 55 32 18 1 6
14 -18 18 54 32 13 4 4
19 -14 19 58 34 15 1 4
24 -10 20 58 35 15 7 11
13 -17 25 62 43 24 9 8
9 -23 21 64 45 24 4 2
9 -20 18 63 43 21 4 -2
10 -19 21 72 41 28 6 0
9 -19 20 70 44 30 14 5
6 -19 22 70 41 20 6 16
15 -15 25 72 45 23 6 10
20 -10 22 72 45 21 6 -1
19 -13 23 75 46 21 10 -1
17 -17 22 80 48 21 6 2
19 -20 21 82 50 31 15 4
23 -11 35 77 54 24 9 4
22 -8 28 79 59 22 6 5
25 -5 27 86 60 29 15 1
27 -1 23 94 65 29 22 8
21 -14 22 88 67 28 21 11
19 -18 19 86 64 39 22 6
21 -13 20 85 58 30 12 8
21 -8 17 91 56 28 12 -3
27 -4 20 94 66 31 8 3
30 -2 21 97 70 30 5 5
32 -2 25 100 71 31 15 0
30 -5 26 108 70 38 10 3
25 -17 26 108 66 39 14 9
30 -22 20 99 64 34 19 4
30 -14 15 103 65 32 21 13
40 -3 20 104 64 34 17 11
34 -3 26 107 74 48 18 14
29 -9 32 117 75 49 22 13
35 -8 30 120 74 43 26 14
45 0 24 117 78 42 22 11
44 0 24 124 81 43 24 13
41 8 25 136 76 38 23 11
41 5 29 129 80 41 21 20
44 0 29 125 82 47 30 27
45 4 25 125 78 51 28 25
36 7 22 120 83 48 28 17
38 3 21 129 85 48 28 20
44 2 27 132 81 55 24 13
43 0 32 123 80 48 30 17
42 2 28 123 84 47 23 24
46 0 18 121 85 54 23 32
50 3 18 122 79 51 33 31
51 9 23 132 81 52 36 29
49 11 24 141 81 52 29 22
54 18 19 128 76 50 33 26
50 23 19 133 71 44 27 21
51 17 17 130 72 46 32 23
51 15 15 126 77 46 40 23
50 8 16 127 75 48 39 28
48 4 14 117 77 58 32 29
48 13 7 111 74 48 34 26
47 11 6 98 63 41 24 18
50 5 11 109 64 42 21 21
47 5 14 113 65 45 28 29
47 10 16 101 66 49 34 37
55 20 12 96 57 45 29 36
52 21 10 84 53 37 29 36
50 19 8 82 53 34 29 31
50 29 5 83 50 35 29 31
45 27 4 76 47 34 25 31
42 15 3 72 43 29 27 36
36 15 8 68 42 34 27 32
28 6 8 69 39 34 19 35
31 13 10 66 45 38 25 33
33 21 19 64 47 39 35 41
26 18 22 58 43 38 34 38
28 23 20 55 41 36 23 32
26 17 21 57 40 34 21 42
18 7 16 49 35 29 20 35
14 9 18 45 36 25 20 28
11 7 20 35 33 23 21 25
9 10 28 33 34 27 21 23
12 14 23 27 34 27 15 22
8 12 16 26 30 26 13 22
8 10 13 25 24 25 12 19
15 5 20 27 29 28 18 21
15 8 22 33 34 27 18 28
14 8 26 35 30 28 19 23
11 8 24 27 27 21 18 19
1 6 24 20 26 24 16 19
2 5 15 18 21 29 14 33
10 3 14 13 22 18 1 16
5 -1 22 17 24 17 8 15
6 0 24 15 21 13 6 22
4 4 18 15 17 15 1 19
7 4 21 19 18 16 8 19
0 -6 16 17 13 9 4 15
1 -4 16 13 14 13 -1 6
1 -5 18 14 17 13 -4 9
2 0 25 10 16 13 0 5
3 1 25 11 15 13 8 4
1 -1 28 14 22 15 13 6
1 1 20 16 25 16 14 12
8 1 15 11 18 14 15 4
7 4 21 12 15 11 11 14
5 8 17 18 15 14 9 13
-3 0 23 18 16 12 1 12
-9 -7 24 15 15 11 2 15
-9 -6 19 18 19 17 4 16
-4 -2 15 5 13 19 2 9
2 -2 17 8 12 12 0 8
3 2 15 9 19 9 -2 8
5 6 20 13 16 13 2 8
4 9 18 8 12 19 12 6
3 4 16 7 9 10 7 4
6 6 18 19 16 12 12 12
5 7 28 20 17 13 11 17
7 7 25 11 14 13 2 7
6 5 22 13 14 14 0 6
1 3 18 13 15 18 -3 12
3 8 19 8 11 6 -4 5
-1 2 24 15 18 11 -1 7
-3 0 19 17 17 15 0 7
-1 -1 16 11 15 17 7 5
7 -3 21 8 13 13 11 11
5 2 16 5 10 16 9 14
1 3 19 9 9 16 1 9
-2 -5 24 13 16 12 1 7
-7 -8 25 14 18 13 12 9
-6 -6 16 10 15 16 18 10
-3 0 25 15 19 13 14 14
-2 8 18 14 19 14 10 10
1 6 18 13 17 13 3 18
3 3 19 12 13 14 0 20
6 2 17 5 13 11 -2 9
2 4 14 4 12 9 6 1
0 3 17 8 11 6 3 10
2 3 17 9 18 9 6 19
5 5 16 16 18 12 5 10
5 7 19 13 22 14 -5 9
1 8 15 7 15 10 -5 9
-4 2 13 7 14 14 5 12
-5 -1 12 8 15 9 0 7
-5 -2 12 6 13 9 -1 5
-5 -3 16 13 17 13 1 14
2 2 10 8 15 22 6 14
5 5 14 10 10 14 1 13
3 5 27 18 15 16 5 15
1 6 22 19 21 25 9 12
2 5 13 9 14 19 11 5
5 11 12 7 13 9 8 8
8 14 11 11 16 11 1 14
7 8 20 14 16 11 8 15
3 4 19 12 12 20 6 12
-5 1 17 15 13 23 5 10
-8 -2 13 17 12 17 2 10
-13 -5 20 18 16 9 9 8
-11 -3 18 16 13 7 7 10
-9 0 16 21 16 15 1 12
-5 7 21 17 13 11 4 10
6 15 24 21 17 11 9 16
6 13 15 17 12 14 14 6
0 7 13 11 14 20 11 3
6 4 12 14 13 17 4 8
6 5 13 15 15 17 13 12
5 12 15 18 13 19 10 10
10 10 9 18 9 18 4 7
5 7 9 15 13 17 0 7
-2 6 14 20 15 21 5 11
2 14 15 10 15 9 10 18
-1 17 10 8 13 10 1 7
-4 5 12 9 12 10 0 11
0 6 13 7 7 5 -3 14
2 3 12 6 6 7 5 12
2 13 11 10 8 10 11 5
4 12 13 10 4 7 7 6
1 10 13 11 3 9 6 6
-5 2 14 18 10 13 4 5
-3 1 19 19 12 13 8 5
-6 7 18 17 11 11 2 7
-12 10 17 13 12 7 0 11
-14 5 12 8 16 7 0 5
-6 1 15 10 14 9 10 7
-8 -1 15 10 8 15 11 7
-12 -1 12 14 11 12 1 5
-9 3 19 17 14 13 2 21
1 5 14 14 10 15 4 14
2 8 10 12 2 12 -3 17
5 9 2 3 2 6 -7 14
0 3 1 5 6 7 2 9
-3 4 4 13 8 8 6 7
-1 9 8 4 6 13 2 6
-3 2 8 5 0 10 4 2
-3 10 3 6 2 1 7 9
-5 11 6 6 2 4 4 4
-5 17 2 8 2 5 1 4
3 15 8 9 15 3 3 6
0 15 9 10 8 3 5 8
-1 8 9 14 6 12 4 14
3 9 15 19 8 11 -3 9
1 7 10 12 13 9 -7 8
0 7 13 15 12 11 4 16
-2 10 6 12 13 5 7 12
