I II V1 V2 V3 V4 V5 V6
-9 -9 1 -3 -5 -11 -15 -2
-9 -9 1 -3 -5 -11 -15 -2
-8 -9 2 -2 -5 -12 -15 -3
-8 -9 2 0 -5 -12 -15 -4
-7 -9 3 1 -5 -13 -15 -5
-7 -9 3 1 -5 -13 -15 -5
-6 -9 4 2 -6 -14 -16 -6
-6 -9 4 2 -6 -14 -16 -5
-5 -9 4 2 -5 -13 -15 -5
-5 -9 4 2 -5 -13 -15 -4
-5 -9 4 2 -5 -13 -15 -4
-4 -8 3 1 -4 -12 -14 -3
-5 -8 4 2 -4 -12 -14 -3
-6 -9 4 3 -3 -12 -14 -3
-7 -9 5 4 -3 -12 -14 -3
-8 -9 5 4 -3 -12 -14 -3
-9 -10 6 5 -2 -12 -15 -2
-9 -10 5 4 -2 -11 -14 -2
-9 -9 5 3 -2 -11 -14 -2
-9 -9 4 2 -2 -10 -13 -2
-9 -9 4 2 -2 -10 -13 -2
-10 -8 3 1 -2 -9 -12 0
-9 -8 3 2 -2 -9 -12 0
-8 -8 4 2 -2 -10 -12 0
-7 -8 4 3 -2 -10 -12 0
-7 -8 4 3 -2 -10 -12 0
-6 -8 5 4 -2 -11 -13 1
-6 -8 5 4 -2 -11 -13 1
-6 -8 4 3 -2 -11 -13 2
-6 -8 4 3 -2 -11 -13 2
-6 -8 4 3 -2 -11 -13 2
-6 -7 3 2 -3 -10 -12 3
-6 -7 3 3 -3 -10 -12 3
-6 -7 3 3 -2 -10 -13 3
-6 -7 3 4 -2 -10 -13 3
-6 -7 3 4 -2 -10 -13 3
-7 -7 4 5 0 -10 -14 3
-7 -7 4 5 0 -10 -14 3
-7 -7 4 5 0 -10 -13 3
-7 -7 4 5 0 -10 -13 3
-7 -7 4 5 0 -10 -13 3
-8 -8 4 4 -2 -9 -12 4
-8 -8 4 4 -2 -9 -12 4
-8 -7 4 5 -2 -9 -12 4
-8 -7 4 5 -2 -9 -12 4
-8 -7 4 5 -2 -9 -12 4
-7 -6 5 6 0 -10 -13 5
-7 -6 5 5 -2 -10 -13 5
-6 -7 4 5 -2 -10 -13 5
-6 -7 4 4 -3 -10 -13 5
-6 -7 4 4 -3 -10 -13 5
-5 -8 3 3 -4 -11 -12 4
-5 -8 3 4 -3 -11 -13 4
-5 -8 4 4 -3 -11 -13 4
-5 -8 4 5 -2 -11 -14 4
-5 -8 4 5 -2 -11 -14 4
-6 -7 5 6 0 -12 -15 5
-6 -7 4 6 -2 -12 -15 5
-5 -6 3 5 -2 -12 -15 5
-5 -6 2 5 -3 -12 -15 5
-5 -6 2 5 -3 -12 -15 5
-4 -5 1 4 -4 -12 -14 6
-4 -5 1 4 -3 -12 -14 6
-5 -5 2 5 -3 -12 -14 6
-5 -5 2 5 -2 -12 -14 6
-5 -5 2 5 -2 -12 -14 6
-6 -5 3 6 0 -12 -14 7
-6 -5 3 6 0 -12 -13 7
-5 -5 2 5 0 -12 -13 8
-5 -5 2 5 0 -12 -12 8
-5 -5 2 5 0 -12 -12 8
-4 -6 1 4 0 -11 -11 9
-5 -6 1 4 0 -11 -11 9
-6 -6 2 5 0 -11 -11 9
-7 -6 2 5 0 -11 -11 9
-7 -6 2 5 0 -11 -11 9
-8 -5 3 6 -2 -11 -12 10
-7 -5 2 5 -2 -11 -12 10
-7 -5 1 5 -2 -11 -12 10
-6 -5 0 4 -2 -11 -12 10
-6 -5 0 4 -2 -11 -12 10
-5 -4 -2 3 -3 -12 -11 9
-5 -4 -2 3 -3 -12 -11 9
-5 -4 0 4 -3 -12 -12 10
-5 -4 0 4 -3 -12 -12 10
-5 -4 0 4 -3 -12 -12 10
-6 -5 1 5 -3 -13 -13 11
-6 -5 0 4 -3 -13 -13 12
-6 -5 -2 3 -3 -13 -12 13
-6 -5 -3 2 -3 -13 -12 14
-6 -5 -3 2 -3 -13 -12 14
-7 -4 -4 1 -4 -13 -11 15
-6 -4 -4 1 -4 -13 -11 15
-6 -4 -4 1 -4 -13 -11 15
-5 -4 -4 1 -4 -13 -11 15
-5 -4 -4 1 -4 -13 -11 15
-4 -3 -4 0 -4 -14 -12 15
-4 -3 -5 -2 -5 -14 -12 16
-4 -3 -6 -3 -5 -14 -11 16
-4 -3 -7 -4 -6 -14 -11 17
-4 -3 -8 -4 -6 -14 -11 17
-4 -2 -9 -5 -7 -13 -10 18
-4 -2 -9 -6 -7 -14 -10 18
-3 0 -9 -6 -8 -14 -10 18
-3 0 -9 -7 -8 -15 -10 18
-3 0 -9 -7 -8 -15 -10 18
-2 1 -10 -8 -9 -16 -11 19
-3 2 -11 -9 -9 -16 -10 20
-3 2 -12 -10 -10 -16 -10 21
-4 3 -13 -11 -10 -16 -9 22
-4 3 -14 -12 -10 -16 -9 23
-5 4 -15 -13 -11 -15 -8 24
-4 5 -15 -14 -12 -15 -8 24
-3 5 -16 -15 -12 -16 -8 25
-2 6 -16 -16 -13 -16 -8 25
0 6 -16 -17 -13 -16 -8 25
1 7 -17 -19 -14 -17 -8 26
2 7 -18 -20 -15 -17 -8 26
2 7 -19 -21 -15 -17 -7 27
3 7 -20 -22 -16 -17 -7 27
3 7 -21 -23 -16 -17 -7 27
4 7 -22 -24 -17 -18 -6 28
3 8 -22 -24 -17 -18 -6 28
2 8 -22 -24 -18 -18 -6 29
1 9 -22 -24 -18 -18 -6 29
1 9 -22 -24 -18 -18 -6 29
0 10 -22 -24 -19 -18 -6 30
1 10 -22 -25 -19 -18 -5 30
1 10 -23 -26 -20 -18 -4 30
2 10 -23 -27 -20 -18 -3 30
2 10 -23 -28 -20 -18 -3 30
3 10 -24 -29 -21 -18 -2 31
3 10 -24 -29 -21 -18 -2 32
3 11 -24 -29 -21 -18 -2 33
3 11 -24 -29 -21 -18 -2 34
3 11 -24 -29 -21 -18 -2 34
3 12 -24 -28 -20 -18 0 35
3 13 -24 -28 -20 -17 1 35
4 14 -24 -28 -20 -16 2 35
4 15 -24 -28 -20 -15 3 35
4 15 -24 -28 -20 -14 3 35
5 16 -24 -28 -19 -13 4 36
5 16 -24 -27 -18 -13 4 36
5 15 -24 -26 -17 -13 4 37
5 15 -24 -25 -16 -13 4 37
5 15 -24 -24 -16 -13 4 37
4 14 -22 -22 -15 -13 4 38
4 14 -21 -21 -14 -12 5 38
4 14 -20 -20 -14 -11 5 38
4 14 -19 -19 -13 -10 6 38
4 14 -18 -18 -13 -10 6 38
5 14 -16 -16 -11 -9 7 37
5 13 -14 -14 -10 -9 6 36
5 12 -13 -13 -9 -9 5 35
5 11 -11 -11 -8 -9 4 34
5 11 -10 -10 -7 -9 4 34
5 10 -9 -8 -6 -9 3 33
4 9 -8 -7 -5 -9 3 32
3 8 -7 -6 -5 -8 3 32
2 7 -6 -5 -4 -8 3 31
2 6 -6 -4 -4 -8 3 31
1 5 -5 -2 -3 -7 3 30
1 5 -4 0 -2 -7 3 29
1 5 -3 1 -2 -7 2 29
1 5 -2 2 0 -7 2 28
1 5 0 3 0 -7 2 28
1 4 1 4 1 -8 1 27
1 3 1 4 1 -8 0 26
0 2 2 5 1 -8 0 25
0 1 2 5 1 -8 -2 24
0 1 2 5 1 -8 -2 24
-2 0 3 6 2 -7 -3 23
-3 0 4 7 2 -7 -3 23
-3 0 5 8 2 -7 -3 23
-4 0 6 9 2 -7 -3 23
-4 0 6 10 2 -7 -3 23
-5 0 7 11 3 -8 -4 23
-5 -2 7 11 3 -8 -4 23
-5 -3 7 11 3 -8 -4 22
-5 -4 7 11 3 -8 -4 22
-5 -4 7 11 3 -8 -4 22
-6 -5 6 10 3 -7 -5 21
-6 -5 7 11 3 -7 -6 20
-6 -5 8 12 3 -8 -6 20
-6 -5 9 13 3 -8 -7 19
-6 -5 9 13 3 -8 -7 19
-6 -6 10 14 3 -9 -8 18
-6 -6 10 14 3 -9 -8 18
-7 -6 9 13 3 -9 -7 18
-7 -6 9 13 3 -9 -7 18
-7 -6 9 13 3 -9 -7 18
-8 -7 8 12 2 -10 -6 18
-8 -7 9 12 2 -10 -7 18
-9 -7 9 12 2 -10 -8 17
-9 -7 10 12 2 -10 -9 17
-9 -7 10 12 2 -10 -10 17
-10 -6 11 12 1 -11 -11 16
-10 -6 11 12 1 -11 -10 16
-10 -6 11 12 1 -11 -10 16
-10 -6 11 12 1 -11 -9 16
-10 -6 11 12 1 -11 -9 16
-10 -5 10 12 1 -12 -8 17
-10 -5 10 12 1 -12 -8 17
-10 -5 10 12 1 -12 -9 17
-10 -5 10 12 1 -12 -9 17
-10 -5 10 12 1 -12 -9 17
-9 -6 10 13 1 -12 -10 16
-9 -6 10 13 1 -12 -10 16
-9 -7 10 13 1 -12 -10 16
-9 -7 10 13 1 -12 -10 16
-9 -7 10 13 1 -12 -10 16
-10 -8 9 13 2 -12 -10 15
-10 -8 10 14 3 -12 -10 15
-10 -8 11 15 3 -12 -10 15
-10 -8 12 16 4 -12 -10 15
-10 -8 13 16 4 -12 -10 15
-10 -7 14 17 5 -12 -10 16
-10 -7 14 16 5 -11 -10 16
-10 -7 13 16 5 -11 -9 16
-10 -7 13 15 5 -10 -9 16
-10 -7 13 15 5 -10 -9 16
-11 -8 12 14 4 -9 -8 15
-11 -8 12 14 4 -9 -8 15
-11 -8 12 15 4 -9 -8 15
-11 -8 12 15 4 -9 -8 15
-11 -8 12 15 4 -9 -8 15
-10 -7 12 16 4 -10 -9 15
-10 -7 12 16 5 -10 -9 15
-10 -7 12 16 5 -9 -8 16
-10 -7 12 16 6 -9 -8 16
-10 -7 12 16 6 -9 -8 16
-10 -6 13 16 7 -8 -7 17
-10 -5 13 16 7 -8 -7 17
-9 -5 13 16 7 -8 -7 17
-9 -4 13 16 7 -8 -7 17
-9 -4 13 16 7 -8 -7 17
-8 -3 13 16 6 -9 -7 16
-8 -3 13 16 6 -9 -6 16
-8 -3 13 16 7 -8 -6 17
-8 -3 13 16 7 -8 -5 17
-8 -3 13 16 7 -8 -5 17
-9 -4 13 16 8 -7 -4 18
-9 -4 13 16 8 -7 -4 18
-8 -4 13 16 8 -7 -4 18
-8 -4 13 16 8 -7 -4 18
-8 -4 13 16 8 -7 -4 18
-7 -3 13 17 8 -7 -5 18
-7 -2 13 17 8 -7 -5 18
-7 0 13 16 8 -6 -4 18
-7 1 13 16 8 -6 -4 18
-7 1 13 16 8 -6 -4 18
-6 2 13 15 9 -5 -3 19
-6 2 13 15 9 -5 -3 19
-6 2 13 16 9 -5 -3 18
-6 2 13 16 9 -5 -3 18
-6 2 13 16 9 -5 -3 18
-7 2 14 17 9 -5 -4 17
-7 2 14 17 9 -5 -4 17
-7 2 14 16 10 -4 -3 17
-7 2 14 16 10 -4 -3 17
-7 2 14 16 10 -4 -3 17
-8 1 15 15 11 -3 -2 17
-7 1 15 15 11 -3 -2 17
-7 1 15 15 10 -4 -3 17
-6 1 15 15 10 -4 -3 17
-6 1 15 15 10 -4 -3 17
-5 1 14 16 9 -5 -4 16
-5 1 14 15 9 -5 -4 16
-5 0 14 14 8 -5 -4 16
-5 0 14 13 8 -5 -4 16
-5 0 14 13 8 -5 -4 16
-6 -2 14 12 7 -4 -3 16
-6 -2 14 12 7 -4 -3 16
-7 0 14 13 7 -4 -3 16
-7 0 14 13 7 -4 -3 16
-7 0 14 13 7 -4 -3 16
-8 1 14 14 7 -3 -4 15
-8 0 14 14 7 -3 -4 15
-8 -2 13 13 7 -3 -4 15
-8 -3 13 13 7 -3 -4 15
-8 -3 13 13 7 -3 -4 15
-9 -4 12 12 7 -4 -3 15
-9 -4 12 12 7 -4 -3 15
-9 -4 12 12 7 -4 -3 14
-9 -4 12 12 7 -4 -3 14
-9 -4 12 12 7 -4 -3 14
-10 -3 13 12 6 -4 -3 13
-10 -3 13 12 6 -4 -3 13
-10 -3 13 12 6 -3 -3 13
-10 -3 13 12 6 -3 -3 13
-10 -3 13 12 6 -3 -3 13
-9 -3 12 12 7 -2 -2 12
-9 -3 12 12 7 -2 -2 12
-9 -3 12 12 6 -3 -3 12
-9 -3 12 12 6 -3 -3 12
-9 -3 12 12 6 -3 -3 12
-8 -3 12 11 5 -4 -4 12
-8 -3 12 11 5 -4 -4 12
-8 -3 12 11 5 -4 -4 12
-8 -3 12 11 5 -4 -4 12
-8 -3 12 11 5 -4 -4 12
-9 -3 12 11 5 -4 -4 12
-9 -3 13 11 5 -4 -4 12
-9 -3 13 12 6 -4 -4 11
-9 -3 14 12 6 -4 -4 11
-9 -3 14 12 6 -4 -4 11
-9 -2 15 13 7 -5 -5 10
-9 -2 15 13 7 -4 -4 10
-9 -2 15 13 7 -4 -4 10
-9 -2 15 13 7 -3 -3 10
-9 -2 15 13 7 -3 -3 10
-9 -2 15 13 7 -2 -2 10
-9 -2 15 14 7 -2 -2 10
-8 -2 15 14 8 -2 -2 10
-8 -2 15 15 8 -2 -2 10
-8 -2 15 15 8 -2 -2 10
-7 0 16 16 9 0 -2 11
-7 0 16 16 9 0 -2 11
-6 1 16 16 9 1 -2 11
-6 1 16 16 9 1 -2 11
-6 1 16 16 9 1 -2 11
-5 2 17 15 10 2 -2 11
-5 2 18 17 11 3 0 11
-5 2 18 18 12 3 1 11
-5 2 19 19 13 4 1 11
-5 2 19 20 14 4 2 11
-5 3 20 21 15 5 3 11
-5 3 20 21 15 6 4 11
-5 3 20 21 16 7 5 11
-5 3 20 21 16 8 5 11
-5 3 20 21 16 9 6 11
-4 3 20 21 17 10 7 12
-4 3 19 21 17 10 7 12
-3 3 18 21 17 9 7 12
-3 3 18 21 17 9 7 12
-3 3 17 21 17 9 7 12
-2 4 16 20 17 8 7 12
-2 4 16 19 17 8 7 12
-2 4 16 19 17 8 7 12
-2 4 16 18 17 8 7 12
-2 4 16 18 17 8 7 12
-3 3 16 16 15 7 6 12
-3 2 15 15 14 6 5 10
-3 2 14 14 13 5 4 9
-3 1 13 12 11 3 4 8
-3 1 12 11 10 2 3 7
-4 0 11 10 9 1 2 6
-4 -2 11 9 8 1 2 6
-5 -2 10 8 8 0 2 6
-5 -3 10 8 7 0 2 6
-5 -3 10 7 7 0 2 6
-7 -4 9 6 6 -2 1 6
-8 -5 10 6 6 -2 0 6
-9 -6 10 6 6 -2 -2 5
-11 -6 11 6 6 -2 -3 5
-12 -7 11 6 6 -2 -4 5
-13 -8 12 7 5 -3 -5 4
-13 -8 12 6 5 -3 -5 4
-13 -8 11 6 5 -3 -5 3
-13 -8 11 5 5 -3 -5 3
-13 -8 11 5 5 -3 -5 3
-13 -9 10 4 4 -3 -5 2
-13 -9 10 4 4 -3 -5 2
-13 -8 11 4 4 -4 -5 2
-13 -8 11 4 4 -4 -5 2
-13 -8 11 4 4 -4 -5 2
-13 -7 12 4 3 -5 -6 1
-13 -7 12 4 3 -5 -6 1
-13 -7 12 3 3 -4 -6 0
-13 -7 12 3 3 -4 -6 0
-13 -7 12 3 3 -4 -6 0
-14 -7 12 2 3 -3 -5 -2
-13 -8 12 2 3 -3 -6 -2
-13 -8 12 2 2 -4 -7 -2
-12 -9 12 2 2 -4 -7 -2
-12 -9 12 2 2 -4 -8 -2
-11 -10 11 2 1 -5 -9 -3
-11 -10 11 2 1 -5 -9 -3
-11 -9 11 1 1 -5 -9 -4
-11 -9 11 1 1 -5 -9 -4
-11 -9 11 1 1 -5 -9 -4
-12 -8 10 0 1 -4 -9 -5
-12 -8 10 0 1 -4 -9 -5
-12 -8 11 1 1 -4 -9 -5
-12 -8 11 1 1 -4 -9 -5
-12 -8 11 1 1 -4 -9 -5
-11 -9 12 2 1 -4 -8 -5
-11 -9 12 2 1 -4 -8 -5
-11 -9 12 2 1 -3 -8 -5
-11 -9 12 2 1 -3 -8 -5
-11 -9 12 2 1 -3 -8 -5
-11 -9 11 2 2 -2 -8 -5
-12 -9 12 3 2 -2 -8 -6
-12 -9 13 5 3 -2 -8 -6
-13 -9 13 6 3 -2 -8 -7
-13 -9 14 8 3 -2 -8 -7
-14 -10 17 13 7 -3 -9 -9
-14 -10 22 20 11 0 -10 -11
-15 -11 26 27 16 1 -11 -13
-15 -11 30 34 20 2 -11 -15
-15 -11 34 42 25 3 -12 -17
-15 -8 40 55 38 14 -6 -14
-13 -2 47 69 56 29 5 -7
-11 5 53 85 72 45 16 0
-9 11 59 100 90 60 26 7
-7 17 65 115 107 76 37 13
2 27 67 126 128 100 59 28
12 39 66 135 150 129 87 47
22 52 65 143 172 157 113 65
33 64 65 152 194 186 140 84
44 76 64 161 216 214 168 103
56 89 49 136 213 231 192 122
69 100 26 92 196 241 215 142
81 111 5 48 180 253 237 161
95 122 -18 4 162 263 261 182
107 134 -39 -40 146 274 283 201
112 137 -62 -87 109 255 282 206
111 134 -83 -134 63 219 267 202
109 131 -105 -182 16 183 252 198
108 128 -127 -229 -30 147 236 195
107 125 -148 -276 -76 110 221 191
96 106 -155 -290 -113 61 176 163
79 78 -152 -287 -144 4 115 123
62 51 -149 -284 -175 -53 55 84
46 23 -146 -281 -206 -109 -6 44
29 -5 -143 -278 -237 -166 -66 4
17 -18 -130 -253 -229 -174 -88 -16
8 -23 -110 -216 -199 -154 -87 -24
-2 -28 -91 -180 -169 -134 -85 -32
-11 -33 -71 -143 -139 -114 -83 -40
-20 -38 -52 -107 -109 -95 -82 -49
-24 -38 -39 -83 -88 -79 -75 -49
-22 -33 -30 -66 -71 -65 -65 -45
-21 -29 -21 -50 -55 -51 -55 -39
-19 -24 -12 -33 -37 -37 -45 -35
-18 -20 -3 -16 -21 -23 -34 -30
-16 -17 2 -9 -14 -17 -29 -27
-15 -16 2 -7 -12 -14 -26 -26
-13 -14 3 -5 -10 -11 -23 -24
-12 -12 3 -3 -8 -8 -20 -22
-10 -10 3 0 -6 -5 -17 -20
-9 -9 4 1 -5 -3 -16 -19
-9 -9 4 2 -5 -3 -16 -19
-10 -9 5 3 -4 -3 -16 -20
-11 -9 5 3 -3 -3 -16 -20
-11 -9 5 4 -3 -3 -16 -20
-12 -10 6 5 -2 -2 -16 -21
-12 -10 6 5 -2 -2 -16 -21
-12 -10 5 4 -3 0 -16 -21
-12 -10 5 3 -3 1 -16 -21
-12 -10 5 3 -3 1 -16 -21
-11 -9 4 2 -4 2 -17 -22
-11 -9 4 3 -4 2 -17 -22
-11 -9 5 4 -3 2 -17 -22
-11 -9 6 4 -2 2 -17 -22
-11 -9 6 5 -2 2 -17 -22
-12 -10 7 6 0 2 -18 -23
-12 -10 7 6 0 4 -17 -23
-11 -10 6 5 0 5 -16 -22
-11 -10 6 4 0 7 -16 -22
-11 -10 6 4 0 8 -15 -22
-10 -11 5 3 -2 9 -14 -21
-10 -11 5 4 -2 9 -14 -21
-10 -11 6 5 -2 9 -14 -21
-10 -11 7 6 -2 9 -14 -21
-10 -11 7 7 -2 9 -14 -21
-11 -11 8 8 0 9 -14 -22
-11 -11 8 7 0 10 -14 -22
-10 -11 7 6 0 11 -13 -22
-10 -11 7 6 0 11 -12 -22
-10 -11 7 5 0 12 -12 -22
-9 -11 6 4 -2 13 -11 -22
-9 -11 6 4 -2 13 -11 -22
-10 -11 6 5 -2 12 -12 -23
-10 -11 6 6 -2 12 -13 -24
-10 -11 6 6 -2 12 -13 -24
-11 -10 5 7 0 11 -14 -25
-11 -10 5 6 0 11 -14 -25
-11 -10 5 5 0 12 -13 -25
-11 -10 5 5 0 13 -12 -25
-11 -10 5 4 0 13 -12 -25
-10 -10 5 3 -2 14 -11 -25
-10 -10 5 3 -2 14 -11 -25
-10 -9 5 4 -3 13 -12 -25
-10 -9 5 5 -3 13 -13 -25
-10 -9 5 5 -3 13 -13 -25
-10 -8 4 6 -4 12 -14 -26
-10 -9 4 6 -4 12 -14 -26
-10 -10 4 5 -4 12 -13 -26
-10 -10 4 4 -4 12 -12 -26
-10 -11 4 4 -4 12 -12 -26
-10 -12 4 3 -3 13 -11 -27
-10 -12 4 3 -3 13 -11 -27
-10 -12 4 4 -3 13 -12 -27
-10 -12 4 4 -3 13 -12 -27
-10 -12 4 4 -3 13 -12 -27
-10 -11 4 5 -3 13 -13 -28
-10 -11 3 4 -3 13 -13 -28
-11 -11 2 3 -3 14 -13 -28
-11 -11 1 3 -3 14 -13 -28
-11 -11 0 2 -3 14 -13 -28
-12 -11 -2 1 -4 15 -13 -28
-12 -11 -2 1 -4 15 -13 -28
-11 -11 -2 1 -4 15 -13 -28
-10 -11 -2 1 -4 15 -13 -28
-10 -11 -2 1 -4 15 -13 -28
-9 -10 0 2 -3 14 -12 -29
-9 -10 0 2 -3 14 -12 -29
-8 -9 -2 1 -4 15 -12 -29
-8 -9 -3 0 -4 15 -12 -29
-8 -9 -3 0 -4 15 -12 -29
-7 -8 -4 -2 -5 16 -12 -30
-7 -8 -4 -2 -5 16 -12 -30
-8 -8 -3 -2 -5 16 -12 -30
-8 -8 -3 -2 -5 16 -12 -30
-8 -8 -3 -2 -5 16 -12 -30
-9 -9 -2 0 -4 17 -12 -29
-8 -9 -3 0 -4 17 -12 -29
-7 -9 -4 -2 -5 17 -12 -29
-7 -9 -5 -2 -5 17 -12 -29
-6 -9 -6 -2 -5 17 -12 -29
-5 -9 -7 -3 -6 18 -12 -29
-5 -9 -7 -3 -6 18 -12 -29
-6 -8 -7 -3 -6 17 -12 -29
-6 -7 -7 -3 -6 17 -12 -29
-6 -7 -7 -3 -6 17 -12 -29
-7 -6 -7 -3 -7 16 -12 -29
-7 -6 -7 -4 -7 16 -12 -29
-7 -6 -8 -6 -7 16 -12 -29
-7 -6 -8 -7 -7 16 -12 -29
-7 -6 -8 -8 -7 16 -12 -29
-6 -5 -9 -9 -8 17 -11 -28
-6 -5 -9 -9 -8 17 -11 -28
-6 -5 -10 -9 -8 17 -11 -28
-6 -5 -10 -9 -8 17 -11 -28
-6 -5 -10 -9 -8 17 -11 -28
-7 -5 -11 -8 -7 17 -12 -28
-7 -5 -12 -8 -7 17 -11 -27
-7 -4 -13 -9 -8 18 -10 -26
-7 -4 -13 -10 -8 19 -9 -25
-7 -4 -14 -10 -8 19 -8 -24
-8 -3 -15 -11 -9 20 -7 -23
-8 -3 -15 -12 -10 19 -7 -23
-7 -2 -16 -14 -11 18 -8 -23
-6 -2 -17 -15 -11 17 -8 -23
-6 -2 -17 -16 -12 16 -8 -23
-5 0 -18 -18 -13 15 -9 -23
-5 0 -19 -19 -14 15 -8 -23
-5 1 -20 -21 -15 15 -7 -22
-5 2 -21 -23 -15 15 -7 -22
-5 2 -22 -25 -16 15 -6 -22
-6 3 -23 -26 -17 16 -5 -21
-5 3 -23 -26 -17 16 -5 -21
-4 4 -24 -27 -18 15 -5 -21
-3 4 -25 -27 -18 15 -5 -21
-2 4 -25 -27 -18 15 -5 -21
0 5 -26 -28 -19 14 -6 -20
0 5 -27 -30 -19 14 -6 -20
-2 6 -28 -32 -20 14 -5 -19
-2 6 -29 -33 -20 14 -4 -19
-2 6 -30 -35 -20 14 -4 -19
-3 7 -31 -36 -21 14 -3 -18
-3 7 -31 -36 -22 13 -3 -18
-2 7 -32 -37 -23 12 -3 -18
-2 7 -32 -38 -24 11 -3 -18
-2 7 -32 -38 -25 10 -3 -18
0 8 -33 -39 -26 9 -4 -18
0 8 -33 -40 -26 9 -4 -17
1 9 -34 -41 -27 10 -3 -16
1 10 -35 -43 -28 10 -2 -16
1 10 -35 -44 -28 10 -2 -15
2 11 -36 -45 -29 11 0 -14
2 11 -36 -45 -29 11 0 -14
2 12 -36 -45 -29 11 1 -13
2 12 -36 -45 -29 11 1 -13
2 12 -36 -45 -29 11 1 -13
1 13 -36 -46 -29 10 2 -12
1 13 -36 -46 -29 10 2 -12
2 13 -36 -47 -29 11 3 -12
2 13 -36 -48 -29 11 4 -12
2 13 -36 -48 -29 11 4 -12
3 14 -37 -49 -28 12 5 -11
3 14 -37 -48 -28 12 5 -11
4 14 -36 -47 -27 12 5 -11
4 14 -35 -46 -27 12 5 -11
4 14 -35 -45 -27 12 5 -11
5 14 -34 -44 -26 12 6 -10
5 14 -33 -41 -25 13 7 -10
5 13 -31 -40 -23 14 8 -10
5 13 -30 -39 -22 15 8 -10
5 13 -29 -37 -21 16 9 -10
6 12 -28 -35 -20 17 10 -9
6 12 -26 -33 -19 17 9 -10
6 11 -24 -31 -18 17 8 -11
6 11 -22 -29 -18 17 8 -11
6 11 -20 -27 -17 17 7 -12
5 10 -19 -25 -16 17 6 -13
5 9 -18 -23 -15 17 6 -13
4 7 -17 -22 -14 17 6 -14
4 6 -17 -21 -14 17 6 -15
4 5 -16 -19 -13 17 6 -15
3 4 -15 -17 -12 18 6 -16
3 4 -13 -15 -11 18 6 -16
3 4 -11 -13 -9 18 5 -17
3 4 -9 -11 -8 18 5 -17
3 4 -7 -9 -7 18 5 -17
2 3 -6 -8 -6 17 4 -18
2 3 -6 -8 -6 17 4 -18
1 2 -5 -7 -5 18 3 -19
1 1 -5 -6 -5 18 3 -20
1 1 -5 -6 -5 18 3 -20
0 0 -4 -5 -4 19 2 -21
0 0 -4 -4 -4 19 2 -21
-2 -2 -3 -3 -3 19 1 -22
-2 -2 -2 -3 -3 19 0 -22
-2 -2 -2 -2 -3 19 0 -22
-3 -3 0 0 -2 18 -2 -23
-3 -3 0 0 -2 18 -2 -23
-4 -3 0 1 -2 18 -2 -24
-4 -3 0 1 -2 18 -2 -25
-4 -3 0 1 -2 18 -2 -25
-5 -4 1 2 0 17 -3 -26
-5 -4 2 2 0 17 -3 -26
-6 -5 3 2 0 17 -3 -26
-7 -5 3 2 0 17 -3 -26
-7 -5 4 2 0 17 -3 -26
-8 -6 5 3 0 16 -4 -26
-7 -6 5 3 0 16 -4 -26
-7 -6 4 3 0 16 -4 -26
-6 -7 3 3 0 15 -5 -27
-5 -7 3 3 0 15 -5 -27
-4 -8 2 2 0 14 -6 -28
-4 -8 2 2 0 14 -6 -28
-4 -8 2 2 0 14 -6 -28
-4 -8 3 3 0 13 -7 -28
-4 -8 3 3 0 13 -7 -28
-5 -8 4 4 -2 12 -8 -28
-5 -8 4 4 -2 12 -8 -28
-5 -8 4 4 -2 12 -8 -28
-5 -8 4 4 -2 12 -8 -28
-5 -8 4 4 -2 12 -8 -28
-6 -7 3 3 -2 11 -8 -27
-6 -7 3 3 -2 11 -8 -27
-7 -7 3 4 -2 11 -8 -27
-8 -7 4 5 -2 11 -8 -27
-8 -7 4 5 -2 11 -8 -27
-9 -8 5 6 -2 10 -8 -28
-9 -8 5 6 -2 10 -8 -28
-9 -8 5 6 -2 10 -8 -28
-9 -8 5 5 -2 11 -8 -27
-9 -8 5 5 -2 11 -8 -27
-9 -9 4 4 0 12 -7 -26
-9 -9 4 4 0 12 -7 -26
-9 -9 5 4 0 12 -7 -26
-9 -8 6 5 0 12 -7 -26
-9 -8 6 5 0 12 -7 -26
-8 -7 7 6 0 11 -6 -25
-8 -7 7 6 0 11 -6 -25
-8 -7 6 6 0 11 -6 -25
-7 -7 5 5 0 11 -5 -25
-7 -7 5 5 0 11 -5 -25
-6 -6 4 4 0 11 -4 -24
-6 -6 4 4 0 11 -4 -24
-6 -6 4 4 0 11 -4 -24
-5 -6 4 4 0 10 -4 -24
-5 -6 4 4 0 10 -4 -24
-4 -5 4 5 0 9 -5 -24
-4 -5 4 5 0 9 -5 -24
-4 -5 4 5 0 10 -5 -23
-5 -4 4 5 0 11 -5 -22
-5 -4 4 5 0 11 -5 -22
-6 -3 5 5 0 12 -4 -21
-6 -3 5 5 0 12 -4 -21
-6 -3 5 5 0 12 -4 -21
-6 -3 5 5 1 12 -4 -21
-6 -3 5 5 1 12 -4 -21
-5 -4 5 5 2 11 -3 -21
-5 -4 5 5 2 11 -3 -21
-6 -4 5 5 2 12 -2 -20
-7 -4 5 5 2 13 0 -19
-7 -4 5 5 2 13 0 -19
-8 -4 5 4 3 14 1 -18
-7 -4 5 4 3 14 1 -18
-7 -4 5 4 3 14 1 -18
-6 -3 5 5 3 14 1 -18
-5 -3 5 5 3 14 1 -18
-4 -2 5 6 4 13 1 -18
-4 -2 5 6 4 13 1 -18
-4 -2 5 6 4 13 1 -18
-4 -2 5 5 4 13 2 -18
-4 -2 5 5 4 13 2 -18
-5 -2 6 4 5 13 3 -17
-5 -2 6 4 5 13 3 -17
-5 -2 6 4 5 13 2 -17
-6 -2 6 4 5 13 1 -17
-6 -2 6 4 5 13 1 -17
-7 -2 5 5 4 13 0 -16
-7 -2 5 5 4 13 0 -16
-7 -2 5 5 4 13 0 -16
-7 -2 5 4 4 13 0 -16
-7 -2 5 4 4 13 0 -16
-6 -3 5 3 4 14 1 -15
-6 -3 5 3 4 14 1 -15
-6 -3 5 3 4 13 1 -15
-5 -3 5 4 4 12 0 -15
-5 -3 5 4 4 12 0 -15
-4 -3 5 5 3 11 -2 -16
-4 -3 5 5 3 11 -2 -16
-4 -3 5 5 3 11 -2 -16
-4 -3 5 5 3 11 -2 -16
-4 -3 5 5 3 11 -2 -16
-4 -3 5 4 2 11 0 -15
-4 -3 5 4 2 11 0 -15
-4 -3 5 4 2 10 0 -15
-4 -3 5 4 2 9 0 -15
-4 -3 5 4 2 9 0 -15
-3 -2 5 5 2 8 -2 -15
-3 -2 5 5 2 8 -2 -15
-3 -2 5 4 2 8 -2 -15
-4 -2 5 3 2 8 0 -14
-4 -2 5 3 2 8 0 -14
-5 -3 4 2 1 8 1 -13
-5 -3 4 2 1 8 1 -13
-5 -3 4 2 1 8 0 -13
-5 -3 4 2 1 8 -2 -14
-5 -3 4 2 1 8 -2 -14
-6 -4 5 3 1 7 -3 -15
-6 -4 5 3 1 7 -3 -14
-6 -4 5 3 1 7 -2 -14
-6 -4 5 3 1 7 0 -13
-6 -4 5 3 1 7 0 -12
-7 -4 6 3 2 8 1 -11
-7 -4 6 3 2 8 1 -11
-7 -4 6 3 2 7 1 -11
-7 -4 6 3 2 6 0 -11
-7 -4 6 3 2 6 0 -11
-6 -3 5 3 1 5 -2 -12
-6 -3 5 3 1 5 -2 -12
-6 -3 5 3 1 5 -2 -12
-5 -3 5 3 1 5 0 -12
-5 -3 5 3 1 5 0 -12
-4 -2 6 3 2 6 1 -12
-4 -2 6 4 2 6 1 -12
-4 0 7 5 2 6 1 -11
-4 1 8 7 2 6 1 -10
-4 1 8 8 2 6 1 -10
-3 2 9 9 3 7 2 -9
-3 2 9 9 3 7 2 -9
-3 2 9 9 4 7 2 -9
-3 3 10 9 5 7 2 -8
-3 3 10 9 5 7 2 -8
-2 4 11 10 6 8 3 -7
-2 4 11 10 6 8 3 -7
-2 4 11 11 6 8 3 -7
-2 3 12 12 7 8 3 -7
-2 3 12 12 7 8 3 -7
-2 2 13 13 8 8 2 -7
-2 2 13 13 9 8 3 -6
-2 3 13 14 9 9 4 -6
0 4 14 15 10 10 5 -5
0 4 14 15 11 10 6 -4
1 5 15 16 12 11 7 -3
2 5 15 16 12 11 7 -3
2 6 15 16 12 11 7 -3
3 7 15 16 12 11 7 -3
4 7 15 16 12 11 7 -3
5 8 14 17 12 11 7 -2
5 8 13 16 12 11 7 -2
5 7 13 16 12 11 7 -2
5 6 12 15 12 11 7 -2
5 6 11 14 12 11 7 -2
4 5 10 13 11 10 8 -2
4 5 10 13 11 9 7 -2
4 5 9 13 10 9 6 -2
4 4 8 13 9 8 5 -2
4 4 8 13 9 7 4 -2
4 3 7 12 8 6 3 -2
4 2 6 10 7 5 3 -2
4 1 6 8 5 4 3 -2
3 0 5 6 4 3 3 -2
3 -2 4 5 2 2 3 -2
2 -3 3 3 1 1 2 -3
1 -3 3 3 1 1 2 -3
1 -3 3 3 1 1 2 -3
0 -3 3 4 1 0 1 -3
-2 -3 3 4 1 0 1 -3
-3 -4 3 5 2 -2 0 -3
-3 -4 3 4 1 -3 -2 -4
-4 -5 3 3 0 -4 -2 -5
-5 -6 3 2 -2 -5 -3 -6
-5 -6 3 1 -3 -6 -4 -7
-6 -7 3 0 -4 -7 -5 -8
-6 -7 3 0 -4 -7 -5 -8
-6 -7 3 0 -4 -7 -5 -7
-6 -7 3 1 -4 -7 -5 -6
-6 -7 3 1 -4 -7 -5 -6
-6 -7 4 2 -4 -8 -5 -5
-6 -7 4 2 -4 -8 -5 -5
-6 -7 4 1 -4 -8 -5 -5
-6 -6 4 0 -4 -8 -5 -6
-6 -6 4 0 -4 -8 -5 -6
-6 -5 4 -2 -4 -8 -4 -7
-6 -5 4 -2 -4 -8 -4 -7
-7 -5 4 -2 -4 -8 -5 -7
-8 -5 4 -2 -4 -9 -6 -7
-8 -5 4 -2 -4 -9 -6 -7
-9 -6 3 0 -5 -10 -7 -7
-9 -6 3 0 -5 -10 -7 -7
-9 -6 3 0 -5 -10 -7 -7
-9 -7 3 0 -5 -10 -7 -7
-9 -7 3 0 -5 -10 -7 -7
-8 -8 4 -2 -5 -10 -7 -6
-8 -8 4 -2 -5 -10 -7 -6
-8 -8 4 -2 -5 -10 -7 -6
-8 -8 4 -2 -5 -11 -7 -6
-8 -8 4 -2 -5 -11 -7 -6
-7 -7 4 0 -6 -12 -7 -6
-7 -7 4 0 -6 -12 -7 -6
-7 -7 4 0 -6 -12 -7 -6
-6 -7 4 0 -6 -12 -7 -6
-6 -7 4 0 -6 -12 -7 -6
-5 -6 3 -2 -5 -12 -7 -6
-5 -6 3 -2 -5 -12 -7 -6
-5 -6 4 -2 -5 -12 -7 -5
-5 -6 5 -2 -5 -12 -7 -4
-5 -6 5 -2 -5 -12 -7 -4
-6 -7 6 0 -4 -11 -6 -3
-6 -8 7 3 -4 -11 -7 -4
-6 -8 9 5 -3 -11 -8 -6
-6 -9 10 8 -2 -12 -9 -7
-6 -10 12 10 -2 -12 -10 -9
-7 -11 15 15 2 -12 -11 -10
-8 -9 22 27 11 -8 -10 -10
-9 -8 28 39 20 -4 -9 -10
-10 -6 35 52 28 1 -8 -10
-11 -5 43 64 37 6 -6 -10
-11 0 49 77 51 16 1 -7
-6 9 54 96 74 38 19 6
0 17 59 113 98 62 37 17
4 25 64 132 120 85 56 28
9 34 69 150 144 107 74 40
17 45 70 160 162 131 96 55
29 58 60 151 172 154 122 75
43 72 50 142 181 178 149 96
55 86 39 133 190 201 176 116
68 99 29 123 199 225 202 137
80 111 14 99 198 242 226 156
93 120 -14 42 175 247 244 173
104 129 -40 -15 151 253 262 189
116 138 -68 -71 128 257 280 205
129 147 -95 -129 104 262 299 222
134 148 -119 -178 70 245 296 227
125 129 -136 -213 12 180 245 201
114 110 -152 -247 -46 113 195 177
104 91 -169 -282 -104 48 145 152
94 72 -185 -317 -161 -18 95 127
82 54 -193 -335 -202 -71 51 101
67 35 -178 -310 -207 -94 19 74
53 18 -162 -285 -212 -117 -13 47
37 0 -147 -260 -217 -140 -45 19
23 -18 -132 -235 -221 -163 -76 -8
11 -31 -115 -207 -215 -174 -97 -27
6 -31 -96 -174 -182 -151 -87 -28
0 -30 -76 -139 -148 -129 -76 -29
-6 -30 -57 -105 -115 -106 -67 -30
-11 -29 -38 -71 -81 -85 -57 -32
-15 -27 -23 -45 -56 -66 -49 -32
-14 -24 -18 -35 -46 -58 -41 -27
-13 -20 -13 -27 -35 -49 -35 -23
-12 -17 -9 -18 -26 -40 -28 -18
-10 -13 -4 -9 -16 -31 -22 -14
-9 -10 1 -3 -9 -25 -17 -10
-9 -10 1 -2 -9 -24 -16 -10
-9 -10 2 1 -8 -23 -16 -9
-8 -10 2 2 -8 -22 -15 -9
-8 -10 3 4 -7 -21 -14 -8
-7 -9 4 5 -6 -20 -13 -7
-7 -9 4 5 -6 -20 -13 -7
-7 -9 4 5 -5 -20 -13 -7
-7 -9 4 5 -5 -20 -13 -7
-7 -9 4 5 -4 -20 -13 -7
-7 -9 5 5 -3 -21 -14 -8
-7 -9 5 5 -3 -21 -14 -8
-7 -9 5 5 -3 -20 -14 -8
-7 -9 5 5 -3 -20 -13 -7
-7 -9 5 5 -3 -19 -13 -7
-7 -10 5 5 -4 -18 -12 -6
-7 -10 5 5 -4 -18 -12 -6
-7 -10 5 5 -4 -18 -12 -6
-8 -10 5 6 -3 -18 -12 -6
-8 -10 5 6 -3 -18 -12 -6
-9 -10 5 7 -2 -17 -12 -6
-9 -10 5 7 -2 -17 -12 -6
-8 -10 5 7 -2 -17 -12 -5
-8 -9 5 7 -3 -17 -11 -5
-7 -9 5 7 -3 -17 -11 -4
-6 -8 4 7 -4 -16 -10 -3
-6 -8 4 7 -4 -16 -10 -3
-6 -8 4 7 -3 -16 -10 -3
-6 -9 5 7 -3 -16 -10 -4
-6 -9 5 7 -2 -16 -10 -4
-6 -10 6 6 0 -17 -10 -5
-6 -10 6 6 0 -17 -10 -5
-6 -10 6 6 0 -17 -10 -5
-6 -10 5 6 -2 -17 -10 -4
-6 -10 5 6 -2 -17 -10 -4
-7 -9 4 7 -3 -16 -9 -3
-7 -9 4 7 -3 -16 -9 -3
-7 -9 4 7 -3 -16 -9 -3
-7 -9 5 7 -2 -16 -9 -3
-7 -9 5 7 -2 -16 -9 -3
-6 -8 6 7 0 -15 -10 -4
-6 -8 6 7 0 -15 -10 -4
-6 -8 6 7 0 -15 -10 -4
-6 -8 6 7 0 -15 -10 -4
-6 -8 6 7 0 -15 -10 -4
-5 -8 5 8 0 -16 -9 -4
-5 -8 5 8 0 -16 -9 -4
-5 -8 5 8 0 -17 -10 -4
-4 -8 5 8 -2 -17 -10 -5
-4 -8 5 8 -2 -18 -11 -5
-3 -8 4 7 -3 -19 -12 -6
-3 -8 4 7 -3 -19 -12 -6
-4 -8 4 7 -3 -18 -12 -6
-4 -8 4 7 -3 -18 -11 -5
-5 -8 4 7 -3 -17 -11 -5
-6 -7 3 7 -3 -16 -10 -4
-6 -7 3 7 -3 -16 -10 -4
-6 -7 3 7 -3 -16 -10 -4
-6 -8 3 7 -2 -16 -11 -4
-6 -8 3 7 -2 -16 -11 -4
-6 -9 4 7 0 -15 -12 -5
-6 -9 4 7 0 -15 -12 -5
-6 -9 4 7 0 -15 -12 -5
-5 -8 4 7 0 -15 -11 -5
-5 -8 4 7 0 -15 -11 -5
-4 -7 3 7 -2 -15 -10 -4
-4 -7 3 7 -2 -15 -10 -4
-4 -7 3 7 -2 -15 -10 -4
-4 -7 3 7 -2 -15 -10 -4
-4 -7 3 7 -2 -15 -10 -4
-5 -8 3 7 0 -15 -11 -5
-5 -8 3 7 0 -15 -11 -5
-5 -8 3 7 0 -15 -11 -4
-5 -7 2 7 0 -15 -10 -4
-5 -7 2 7 0 -15 -10 -3
-4 -6 1 7 -2 -14 -9 -2
-4 -6 1 7 -2 -14 -9 -2
-4 -6 1 7 -2 -14 -9 -2
-4 -6 1 7 0 -14 -9 -2
-4 -6 1 7 0 -14 -9 -2
-4 -7 2 7 1 -13 -9 0
-4 -7 2 7 1 -13 -9 0
-4 -7 1 7 0 -13 -9 0
-4 -7 1 7 0 -14 -9 0
-4 -7 0 7 -2 -14 -9 0
-3 -6 -2 6 -3 -15 -9 0
-3 -6 -2 6 -3 -15 -9 0
-3 -6 -2 6 -3 -15 -9 0
-3 -6 -2 5 -2 -15 -9 0
-3 -6 -2 5 -2 -15 -9 0
-2 -5 -2 4 0 -15 -10 -2
-2 -5 -2 4 0 -15 -10 -2
-2 -5 -2 4 -2 -15 -10 -2
-3 -5 -2 4 -2 -15 -10 0
-3 -5 -2 4 -3 -15 -10 0
-4 -4 -3 5 -4 -14 -9 1
-4 -4 -3 5 -4 -14 -9 1
-4 -4 -4 4 -4 -14 -9 2
-4 -4 -4 4 -4 -14 -9 2
-4 -4 -5 3 -4 -14 -9 3
-3 -4 -6 2 -3 -14 -8 4
-3 -4 -6 2 -3 -14 -8 4
-3 -3 -7 1 -4 -14 -8 4
-3 -2 -7 1 -5 -14 -8 5
-3 0 -8 0 -6 -14 -8 5
-2 1 -9 -2 -7 -15 -7 6
-2 1 -9 -3 -7 -15 -7 6
-2 1 -9 -4 -7 -15 -7 6
-2 1 -10 -5 -7 -15 -7 6
-2 1 -10 -6 -7 -15 -7 6
-2 2 -11 -7 -6 -14 -6 7
-2 2 -12 -7 -7 -14 -6 7
0 3 -13 -8 -8 -14 -6 8
0 4 -14 -9 -9 -15 -6 9
1 5 -15 -10 -11 -15 -6 10
2 6 -16 -11 -12 -16 -5 11
2 6 -16 -12 -12 -16 -5 11
2 6 -16 -13 -12 -16 -5 11
2 6 -17 -14 -12 -16 -5 11
2 6 -17 -16 -12 -16 -5 11
2 7 -18 -17 -12 -16 -5 12
2 7 -18 -17 -12 -16 -5 12
2 7 -19 -17 -13 -16 -5 13
2 7 -20 -18 -14 -16 -4 14
2 7 -21 -18 -15 -16 -4 15
3 8 -22 -19 -16 -17 -3 16
3 8 -22 -19 -16 -17 -3 16
3 8 -22 -19 -16 -17 -3 16
3 8 -22 -20 -16 -17 -3 16
3 8 -22 -20 -16 -17 -3 16
4 9 -22 -21 -15 -18 -2 16
4 9 -22 -21 -15 -18 -2 17
4 10 -22 -22 -15 -18 0 18
4 11 -22 -22 -16 -18 1 19
4 12 -22 -23 -16 -18 2 20
5 13 -23 -24 -17 -17 3 21
5 13 -23 -24 -17 -17 3 21
5 13 -23 -24 -17 -17 3 21
6 13 -24 -24 -17 -17 4 22
6 13 -24 -24 -17 -17 4 22
7 14 -25 -25 -17 -17 5 23
7 14 -25 -25 -17 -17 5 23
8 14 -25 -25 -17 -17 5 23
8 14 -25 -24 -17 -17 5 23
9 14 -25 -24 -17 -17 5 23
10 15 -26 -23 -17 -16 6 24
10 15 -25 -23 -16 -16 6 24
10 15 -24 -22 -14 -15 7 24
9 15 -23 -21 -13 -14 7 24
9 15 -22 -20 -12 -13 8 24
8 14 -21 -19 -10 -12 9 24
8 14 -20 -18 -10 -12 9 24
8 14 -19 -16 -10 -11 9 24
8 14 -18 -15 -9 -11 9 24
8 14 -17 -14 -9 -10 9 24
8 14 -16 -12 -8 -9 9 24
8 14 -15 -11 -7 -9 9 24
8 13 -13 -9 -6 -9 9 23
8 12 -12 -8 -5 -9 9 23
8 11 -11 -7 -3 -9 9 22
8 10 -9 -5 -2 -9 8 21
8 10 -8 -4 -2 -9 8 21
8 10 -7 -2 -2 -9 8 20
7 9 -6 0 -2 -8 8 19
7 9 -5 1 -2 -8 8 18
6 8 -4 3 0 -7 7 17
6 7 -4 3 0 -7 6 16
6 6 -3 3 1 -7 5 15
5 5 -2 4 2 -7 4 14
5 3 0 4 3 -7 3 12
4 2 1 5 4 -7 2 11
4 2 1 5 4 -7 2 11
4 2 2 6 4 -7 2 10
3 2 3 6 4 -8 2 10
3 2 4 7 4 -8 2 9
2 1 5 8 3 -9 2 8
2 1 5 8 3 -9 2 8
1 1 5 8 4 -9 2 8
0 0 5 8 4 -9 1 8
-2 0 5 8 5 -9 1 8
-3 -2 6 9 6 -8 0 7
-2 -2 6 9 6 -8 0 7
0 -2 6 9 6 -8 0 7
1 -2 6 9 5 -9 0 7
2 -2 6 9 5 -9 0 7
3 -2 6 9 4 -10 -2 6
3 -2 6 9 4 -10 -2 6
2 -3 6 9 4 -10 -2 6
2 -3 6 9 4 -10 -3 5
1 -4 6 9 4 -10 -3 5
0 -5 6 10 4 -10 -4 4
0 -5 6 10 4 -10 -4 4
0 -5 6 10 4 -10 -4 4
-2 -5 7 10 4 -10 -4 4
-2 -5 7 10 4 -10 -4 4
-3 -6 8 10 3 -10 -4 4
-3 -6 8 10 3 -10 -4 4
-3 -6 8 10 3 -10 -4 4
-4 -6 8 10 3 -10 -4 4
-4 -6 8 10 3 -10 -4 4
-5 -6 9 10 4 -11 -5 3
-5 -6 9 10 4 -11 -5 3
-5 -6 9 10 4 -11 -5 3
-6 -6 9 10 4 -11 -6 3
-6 -6 9 10 4 -11 -6 3
-7 -7 9 11 4 -10 -7 2
-7 -7 9 11 4 -10 -7 2
-6 -7 9 11 4 -10 -7 2
-6 -7 9 11 4 -10 -8 2
-5 -7 9 11 4 -10 -8 2
-4 -8 9 11 3 -10 -9 1
-4 -8 9 11 3 -10 -9 1
-4 -8 9 11 3 -10 -9 1
-4 -8 9 11 3 -10 -9 1
-4 -8 9 11 3 -10 -9 1
-4 -7 9 10 2 -11 -8 0
-4 -7 9 10 2 -11 -8 0
-4 -7 9 10 2 -11 -8 0
-4 -7 9 11 2 -11 -8 0
-4 -7 9 11 2 -11 -8 0
-3 -7 9 12 3 -11 -8 1
-3 -7 9 12 3 -11 -8 1
-3 -7 9 12 3 -11 -8 1
-2 -7 9 12 3 -10 -8 1
-2 -7 9 12 3 -10 -8 1
0 -6 10 11 3 -9 -7 1
0 -6 10 11 3 -9 -7 1
-2 -6 10 11 3 -9 -7 1
-3 -7 10 12 4 -9 -6 1
-4 -7 10 12 4 -9 -6 1
-5 -8 10 13 5 -8 -5 1
-5 -8 10 13 5 -8 -5 1
-5 -7 10 13 5 -8 -5 1
-4 -7 10 13 5 -8 -5 1
-4 -6 10 13 5 -8 -5 1
-3 -5 10 12 5 -7 -4 2
-3 -5 10 12 5 -7 -4 2
-3 -5 10 12 5 -7 -4 2
-4 -5 10 13 6 -6 -4 2
-4 -5 10 13 6 -6 -4 2
-5 -6 11 14 7 -5 -4 2
-5 -6 11 14 7 -5 -4 2
-5 -6 11 14 7 -5 -4 2
-4 -6 11 14 7 -5 -4 2
-4 -6 11 14 7 -5 -4 2
-3 -5 10 13 8 -4 -3 2
-3 -5 10 13 8 -4 -3 2
-3 -5 10 13 8 -4 -3 2
-4 -4 10 13 8 -4 -3 2
-4 -4 10 13 8 -4 -3 2
-5 -3 10 13 8 -3 -2 2
-5 -3 10 13 8 -3 -2 2
-5 -3 10 13 8 -3 -2 2
-4 -3 10 13 8 -3 -2 2
-4 -3 10 13 8 -3 -2 2
-3 -4 10 12 7 -4 0 2
-3 -4 10 12 7 -4 0 2
-4 -4 10 12 8 -4 0 2
-4 -4 10 12 8 -3 0 3
-5 -4 10 12 9 -3 0 3
-6 -4 10 12 10 -2 0 4
-6 -4 10 12 10 -2 0 4
-6 -4 10 12 10 -2 0 4
-5 -5 10 12 9 -2 0 4
-5 -5 10 12 9 -2 0 4
-4 -6 10 12 8 -3 1 3
-4 -6 10 12 8 -3 1 3
-4 -6 10 12 8 -3 1 3
-5 -6 10 12 8 -2 1 3
-5 -6 10 12 8 -2 1 3
-6 -6 10 12 8 0 1 4
-6 -6 10 12 8 0 1 4
-6 -6 10 12 8 0 1 4
-5 -6 10 11 8 -2 1 3
-5 -6 10 11 8 -2 1 3
-4 -6 10 10 7 -3 2 2
-4 -6 10 10 7 -3 2 2
-4 -6 10 10 7 -3 1 2
-4 -6 10 10 7 -3 0 2
-4 -6 10 10 7 -3 -2 2
-5 -6 9 10 7 -4 -3 1
-5 -6 9 10 7 -4 -3 1
-5 -6 9 10 7 -4 -3 1
-5 -6 9 10 7 -4 -2 1
-5 -6 9 10 7 -4 -2 1
-5 -6 8 9 7 -3 0 2
-5 -6 8 9 7 -3 0 2
-5 -6 8 9 7 -3 0 2
-5 -6 8 9 7 -3 0 2
-5 -6 8 9 7 -3 0 2
-5 -6 9 10 6 -3 0 1
-5 -6 9 10 6 -3 0 1
-5 -6 9 10 6 -3 0 1
-5 -6 8 9 6 -3 0 1
-5 -6 8 9 6 -3 0 1
-4 -7 7 8 5 -4 0 0
-4 -7 7 8 5 -4 0 0
-4 -7 7 8 5 -4 0 0
-5 -7 7 8 5 -4 0 0
-5 -7 7 8 5 -4 0 0
-6 -7 8 8 6 -3 0 -2
-6 -7 8 8 6 -3 0 -2
-6 -7 8 8 6 -3 0 -2
-6 -7 8 8 6 -3 0 -2
-6 -7 8 8 6 -3 0 -2
-6 -8 7 8 5 -4 -2 -2
-6 -8 7 8 5 -4 -2 -2
-6 -8 7 8 5 -4 -2 -2
-6 -8 7 8 5 -4 -2 -2
-6 -8 7 8 5 -4 -2 -2
-6 -7 7 8 5 -3 -2 -2
-6 -7 7 8 5 -3 -2 -2
-6 -7 7 8 5 -3 -2 -2
-6 -7 7 9 5 -3 -2 -2
-6 -7 7 9 5 -3 -2 -2
-7 -6 8 10 6 -2 0 -2
-7 -6 8 10 6 -2 0 -2
-6 -5 9 10 7 -2 0 -2
-6 -4 9 10 7 0 1 -2
-5 -3 10 10 8 0 1 -2
-4 -2 11 11 9 1 2 0
-4 -2 11 11 9 1 2 0
-4 -2 11 12 9 1 2 0
-4 -3 12 13 9 1 2 0
-4 -3 12 14 9 1 2 0
-5 -4 13 15 10 2 3 1
-5 -4 13 15 10 2 3 1
-5 -4 14 16 11 3 4 1
-4 -4 14 17 12 3 4 2
-4 -4 15 18 13 4 5 2
-3 -4 16 19 14 5 6 3
-3 -4 16 19 14 5 6 3
-3 -3 16 20 15 6 7 3
-3 -2 17 21 15 7 8 3
-3 0 17 22 16 8 9 3
-2 1 18 23 17 9 10 4
-2 1 18 23 17 9 10 4
0 1 18 22 17 9 10 4
1 1 17 22 17 9 9 4
2 1 17 21 17 9 9 4
3 0 16 20 16 8 8 4
3 0 16 20 16 8 8 4
3 0 15 19 16 8 8 4
4 1 14 19 16 9 8 4
4 1 13 18 16 9 8 4
5 2 12 17 16 10 9 5
5 1 12 17 16 10 9 5
4 0 12 17 16 9 8 4
4 -2 11 17 15 8 8 3
3 -3 11 17 15 7 7 2
2 -5 10 16 14 6 6 1
2 -5 10 15 13 5 6 1
1 -5 9 14 11 4 6 1
1 -6 8 12 10 3 5 1
0 -6 7 11 8 2 5 1
-2 -7 6 9 6 0 4 0
-2 -7 6 9 6 0 4 0
-2 -7 6 9 6 0 4 -2
-2 -7 6 9 6 0 4 -2
-2 -7 6 9 6 0 4 -3
-3 -7 5 8 6 -2 3 -4
-4 -7 5 8 6 -2 3 -4
-5 -8 5 8 5 -3 2 -5
-6 -9 5 7 5 -3 1 -5
-7 -10 5 7 4 -4 0 -6
-8 -11 5 6 3 -5 -2 -7
-8 -11 5 6 3 -5 -2 -7
-8 -11 5 6 3 -5 -2 -7
-9 -11 5 6 3 -5 -2 -7
-9 -11 5 6 3 -5 -2 -7
-10 -11 5 6 4 -5 -3 -8
-10 -11 5 6 4 -5 -3 -8
-10 -11 5 6 3 -5 -3 -8
-9 -11 5 5 3 -5 -3 -8
-9 -11 5 5 2 -5 -3 -8
-8 -10 4 4 1 -6 -4 -9
-8 -10 4 4 1 -6 -4 -9
-8 -10 4 4 1 -6 -4 -9
-8 -10 4 4 1 -6 -4 -9
-8 -10 4 4 1 -6 -4 -9
-8 -10 4 4 1 -6 -4 -9
-9 -10 5 4 2 -7 -3 -8
-9 -10 5 4 2 -7 -3 -8
-9 -10 5 4 2 -7 -3 -8
-9 -10 5 4 2 -7 -3 -8
-9 -10 5 4 2 -7 -3 -8
-8 -11 4 3 1 -6 -3 -9
-8 -11 4 3 1 -6 -3 -9
-8 -11 4 3 1 -7 -3 -9
-8 -11 4 3 1 -7 -3 -9
-8 -11 4 3 1 -7 -3 -9
-9 -11 5 3 0 -8 -4 -10
-9 -11 5 3 0 -8 -4 -10
-10 -11 5 3 0 -7 -4 -10
-10 -11 5 3 0 -7 -4 -10
-10 -11 5 3 0 -7 -4 -10
-11 -11 4 3 1 -6 -4 -10
-10 -11 4 3 1 -6 -4 -10
-10 -11 4 3 1 -6 -4 -10
-9 -11 4 3 1 -6 -4 -10
-9 -11 4 3 1 -6 -4 -10
-8 -11 6 6 2 -6 -5 -10
-9 -12 8 9 2 -7 -6 -12
-10 -13 10 12 2 -7 -8 -14
-11 -14 12 15 2 -8 -9 -16
-11 -14 14 18 2 -8 -10 -17
-12 -13 22 31 12 -4 -9 -17
-13 -11 29 44 23 3 -6 -16
-13 -9 36 56 34 9 -4 -15
-14 -7 44 69 46 15 0 -14
-14 -5 51 81 57 20 2 -13
-9 6 56 101 81 45 22 1
-3 15 61 120 106 70 43 14
4 24 66 141 131 95 62 27
10 34 71 160 156 119 82 39
16 44 76 180 181 145 103 53
30 57 64 157 185 164 128 72
44 70 50 133 188 185 153 93
58 82 34 108 192 204 179 112
71 96 20 82 195 224 203 132
86 109 6 58 198 244 229 152
96 117 -22 8 174 245 244 168
106 125 -51 -45 147 245 260 182
116 132 -78 -97 119 246 274 197
126 140 -107 -148 93 246 289 212
136 147 -135 -200 65 246 305 227
127 127 -149 -229 9 182 253 199
115 104 -163 -257 -49 113 196 170
105 81 -177 -285 -106 45 140 139
94 59 -191 -313 -163 -25 84 109
82 35 -204 -341 -221 -94 27 79
67 21 -187 -314 -221 -109 3 56
52 6 -168 -283 -218 -121 -20 33
36 -9 -148 -253 -215 -135 -44 11
21 -23 -129 -222 -212 -147 -66 -12
6 -38 -108 -191 -208 -160 -89 -34
1 -38 -91 -159 -177 -141 -81 -35
-4 -36 -72 -129 -143 -118 -71 -34
-8 -35 -55 -98 -110 -96 -62 -33
-12 -33 -36 -66 -76 -73 -52 -32
-16 -32 -18 -35 -44 -52 -41 -32
-16 -28 -14 -27 -34 -44 -35 -28
-15 -24 -10 -20 -27 -36 -30 -24
-13 -21 -7 -13 -19 -29 -25 -21
-12 -17 -3 -6 -11 -22 -19 -17
-11 -14 1 2 -4 -15 -14 -14
-10 -13 2 3 -3 -14 -13 -13
-10 -13 3 4 -3 -13 -13 -13
-10 -12 3 5 -3 -13 -12 -12
-10 -12 4 6 -3 -12 -12 -12
-10 -12 4 7 -3 -12 -12 -12
-10 -11 5 8 -3 -11 -11 -11
-10 -11 5 8 -2 -11 -11 -11
-11 -11 5 8 -2 -11 -11 -11
-11 -11 5 8 0 -11 -11 -11
-11 -11 5 8 0 -11 -11 -11
-12 -12 5 8 1 -11 -12 -12
-12 -12 5 8 1 -11 -12 -12
-11 -12 5 8 1 -11 -12 -12
-11 -12 5 8 1 -11 -12 -12
-11 -12 5 8 1 -11 -12 -12
-10 -12 5 8 1 -10 -11 -11
-10 -12 5 8 1 -10 -11 -11
-10 -12 5 8 1 -10 -11 -11
-10 -12 5 8 1 -10 -11 -11
-10 -12 5 8 1 -10 -11 -11
-11 -11 6 8 2 -9 -11 -10
-11 -11 6 8 2 -9 -11 -10
-11 -11 6 8 2 -9 -11 -10
-11 -11 6 8 2 -9 -11 -10
-11 -11 6 8 2 -9 -11 -10
-11 -11 6 9 1 -8 -11 -10
-11 -11 6 9 1 -8 -11 -10
-10 -11 6 9 2 -8 -11 -10
-10 -11 6 9 2 -8 -11 -10
-10 -11 6 9 2 -8 -11 -10
-9 -10 6 10 3 -8 -10 -10
-8 -10 6 10 2 -8 -10 -10
-8 -10 6 10 2 -8 -10 -10
-7 -10 6 10 1 -8 -10 -10
-7 -10 6 10 1 -8 -10 -10
-6 -10 5 10 0 -8 -10 -10
-7 -10 5 10 1 -8 -10 -10
-8 -10 5 10 1 -8 -10 -10
-9 -10 5 10 2 -8 -10 -10
-9 -10 5 10 2 -8 -10 -10
-10 -10 6 10 3 -7 -10 -10
-10 -10 6 10 3 -7 -10 -10
-10 -10 6 10 3 -7 -10 -10
-10 -10 6 10 3 -7 -10 -10
-10 -10 6 10 3 -7 -10 -10
-9 -11 5 11 2 -7 -9 -9
-9 -11 5 11 2 -7 -9 -9
-9 -11 6 11 3 -7 -9 -9
-9 -11 6 11 3 -7 -9 -9
-9 -11 6 11 3 -7 -9 -9
-10 -10 7 11 4 -7 -10 -9
-10 -10 6 11 4 -7 -10 -9
-10 -10 6 11 3 -7 -10 -9
-10 -10 5 11 3 -7 -10 -9
-10 -10 5 11 3 -7 -10 -9
-9 -9 4 10 2 -8 -11 -9
-9 -9 4 10 2 -8 -11 -9
-9 -9 4 10 2 -8 -11 -9
-9 -9 4 10 2 -8 -11 -9
-9 -9 4 10 2 -8 -11 -9
-9 -9 4 11 3 -8 -11 -10
-9 -9 4 11 3 -8 -11 -10
-8 -9 4 10 3 -8 -11 -10
-8 -9 4 10 3 -8 -11 -10
-8 -9 4 10 3 -8 -11 -10
-7 -8 4 9 2 -9 -11 -10
-8 -8 4 9 2 -9 -11 -10
-8 -9 4 9 2 -8 -11 -10
-9 -9 4 9 2 -8 -11 -10
-9 -9 4 9 2 -8 -11 -10
-10 -10 4 10 3 -7 -11 -10
-9 -10 4 10 3 -7 -11 -10
-8 -10 4 10 3 -7 -11 -9
-7 -10 4 10 3 -7 -11 -9
-7 -10 4 10 3 -7 -11 -9
-6 -10 3 9 2 -7 -10 -8
-6 -9 3 9 2 -7 -10 -8
-7 -9 3 9 2 -7 -10 -9
-7 -8 3 9 2 -7 -10 -9
-7 -8 3 9 2 -7 -10 -9
-8 -7 3 9 3 -7 -9 -10
-8 -7 3 9 3 -7 -9 -9
-8 -7 3 9 3 -7 -9 -9
-8 -7 3 9 3 -7 -9 -8
-8 -7 3 9 3 -7 -9 -8
-8 -8 2 8 2 -7 -8 -7
-8 -8 2 8 2 -7 -8 -7
-8 -8 1 8 2 -7 -9 -7
-8 -8 1 8 2 -7 -9 -7
-8 -8 1 8 2 -7 -9 -7
-8 -7 0 7 1 -8 -10 -7
-8 -7 0 6 1 -8 -10 -7
-7 -7 -2 6 0 -8 -10 -7
-7 -7 -2 5 0 -8 -10 -7
-7 -7 -2 5 0 -8 -10 -7
-6 -6 -3 4 -2 -9 -9 -6
-6 -6 -3 4 -2 -9 -9 -6
-6 -5 -4 4 -2 -9 -9 -5
-6 -5 -4 4 -2 -9 -9 -5
-6 -5 -4 4 -2 -9 -9 -5
-7 -4 -5 4 -3 -10 -9 -4
-7 -4 -5 3 -3 -10 -9 -3
-7 -4 -5 2 -4 -10 -8 -2
-7 -4 -5 1 -4 -10 -8 0
-7 -4 -5 1 -4 -10 -8 0
-6 -3 -6 -2 -5 -9 -7 1
-5 -2 -7 -3 -5 -10 -7 1
-5 -2 -7 -4 -5 -10 -7 0
-4 0 -8 -5 -5 -11 -7 0
-4 0 -8 -6 -5 -11 -7 0
-3 1 -9 -7 -6 -12 -7 -2
-3 2 -10 -8 -7 -12 -7 0
-3 2 -11 -9 -7 -12 -6 1
-3 3 -12 -10 -8 -12 -6 2
-3 3 -12 -10 -8 -12 -6 3
-2 4 -13 -12 -9 -12 -5 4
-2 4 -14 -13 -9 -12 -5 4
-2 4 -14 -14 -9 -12 -5 4
-2 4 -15 -15 -9 -12 -5 4
-2 4 -15 -16 -9 -12 -5 4
0 4 -16 -17 -10 -13 -5 4
0 4 -17 -18 -11 -13 -4 5
1 5 -17 -18 -12 -13 -4 5
1 5 -18 -19 -13 -13 -3 6
1 5 -18 -19 -14 -13 -3 6
2 6 -19 -20 -15 -13 -2 7
2 7 -19 -20 -15 -13 -2 7
2 7 -20 -21 -15 -13 -2 8
2 8 -20 -21 -15 -13 -2 8
2 8 -20 -21 -15 -13 -2 8
1 9 -21 -22 -15 -12 0 9
1 10 -21 -23 -15 -12 0 10
1 10 -21 -23 -16 -12 0 11
1 11 -21 -24 -16 -12 0 12
1 11 -21 -24 -16 -12 0 12
1 12 -22 -25 -17 -12 1 13
1 12 -22 -25 -17 -12 2 13
2 12 -22 -25 -17 -11 2 13
2 12 -22 -25 -17 -11 3 13
2 12 -22 -25 -17 -11 3 13
3 12 -23 -26 -16 -10 4 13
3 12 -23 -25 -16 -9 5 14
4 12 -22 -25 -16 -9 5 14
4 12 -22 -24 -16 -8 6 15
4 12 -22 -24 -16 -8 6 15
5 13 -21 -23 -16 -7 7 16
5 13 -20 -22 -14 -6 7 16
5 13 -20 -21 -13 -6 7 15
5 13 -19 -20 -12 -5 7 15
5 13 -19 -19 -11 -5 7 15
5 13 -18 -18 -10 -4 6 14
5 13 -17 -17 -10 -4 6 14
5 12 -17 -16 -10 -4 6 14
5 12 -16 -15 -10 -4 6 14
5 12 -16 -14 -10 -4 6 14
4 11 -14 -12 -8 -4 6 15
4 10 -13 -11 -7 -3 6 14
4 10 -11 -10 -5 -2 6 13
4 9 -9 -8 -3 0 6 12
4 9 -8 -7 -2 0 6 12
4 8 -7 -6 0 1 7 11
4 7 -6 -5 0 1 7 10
3 6 -5 -4 0 1 7 9
3 5 -4 -3 0 1 7 8
3 5 -4 -2 0 1 7 8
2 4 -3 0 0 1 6 7
2 4 -2 1 1 1 5 6
2 3 0 1 1 1 4 5
2 3 1 2 2 1 3 4
2 3 1 2 2 1 3 4
1 2 2 3 3 0 2 3
1 1 2 3 3 0 2 3
1 1 3 3 3 0 1 2
1 0 3 3 3 0 1 2
1 0 3 3 3 0 1 2
0 -2 4 4 2 0 0 1
-2 -2 4 4 3 0 0 0
-2 -2 5 5 3 0 0 0
-3 -2 5 5 4 0 0 -2
-3 -2 5 5 4 0 0 -2
-4 -3 6 6 5 1 -2 -3
-4 -3 6 6 5 1 -2 -3
-4 -3 6 6 5 1 -2 -3
-4 -3 6 6 5 1 -2 -3
-4 -3 6 6 5 1 -2 -3
-4 -4 7 6 4 1 -2 -3
-4 -4 7 6 4 1 -2 -3
-4 -4 7 6 4 1 -3 -4
-4 -4 7 6 4 1 -3 -4
-4 -4 7 6 4 1 -3 -4
-5 -5 8 7 4 0 -4 -5
-5 -5 8 7 4 0 -4 -5
-5 -5 8 7 3 0 -4 -5
-5 -5 8 7 3 0 -4 -5
-5 -5 8 7 3 0 -4 -5
-5 -6 8 7 2 -2 -4 -5
-5 -6 8 7 2 -2 -5 -6
-5 -6 8 7 2 -3 -6 -6
-5 -6 8 7 2 -3 -7 -7
-5 -6 8 7 2 -3 -7 -7
-4 -6 8 6 1 -4 -8 -8
-4 -6 8 6 1 -4 -8 -8
-4 -6 8 6 1 -5 -8 -8
-4 -6 8 6 1 -5 -8 -8
-4 -6 8 6 1 -5 -8 -8
-5 -7 7 6 1 -6 -9 -9
-5 -7 7 6 1 -6 -9 -9
-5 -6 7 6 1 -6 -9 -9
-5 -6 7 6 1 -6 -9 -9
-5 -6 7 6 1 -6 -9 -9
-5 -5 8 7 2 -5 -9 -9
-6 -5 8 7 2 -5 -9 -9
-6 -5 9 8 2 -5 -9 -9
-7 -5 9 8 2 -5 -9 -9
-7 -5 9 8 2 -5 -9 -9
-8 -6 10 9 2 -5 -8 -8
-8 -6 10 9 2 -5 -8 -8
-8 -6 10 9 3 -5 -8 -8
-8 -6 10 9 3 -5 -8 -8
-8 -6 10 9 3 -5 -8 -8
-7 -5 11 8 4 -4 -8 -9
-7 -5 11 8 4 -4 -8 -9
-7 -5 11 8 4 -4 -8 -9
-7 -5 11 8 4 -4 -8 -9
-7 -5 11 8 4 -4 -8 -9
-6 -6 11 9 3 -3 -7 -8
-6 -6 11 9 3 -3 -7 -8
-6 -6 11 9 3 -3 -7 -8
-6 -6 11 9 3 -3 -7 -8
-6 -6 11 9 3 -3 -7 -8
-7 -5 11 9 4 -3 -8 -9
-6 -4 11 9 4 -3 -8 -9
-5 -4 11 9 4 -3 -8 -8
-4 -3 11 9 4 -3 -8 -8
-4 -3 11 9 4 -3 -8 -8
-3 -2 11 9 4 -2 -7 -7
-3 -2 11 9 4 0 -6 -7
-4 -2 11 9 5 0 -6 -7
-4 -2 11 9 5 1 -5 -7
-4 -2 11 9 5 1 -5 -7
-5 -2 12 10 6 2 -4 -8
-5 -2 12 10 6 2 -4 -8
-6 -2 11 10 6 2 -4 -7
-6 -2 11 10 6 2 -4 -7
-6 -2 11 10 6 2 -4 -7
-7 -3 10 11 6 2 -4 -6
-7 -3 10 11 6 2 -4 -6
-6 -3 10 11 7 2 -4 -6
-6 -3 10 11 7 2 -4 -6
-6 -3 10 11 7 2 -4 -6
-5 -3 11 10 8 3 -4 -6
-5 -3 11 10 8 3 -4 -6
-5 -2 11 10 8 3 -4 -6
-5 -2 11 10 8 3 -4 -6
-5 -2 11 10 8 3 -4 -6
-4 0 10 10 7 2 -3 -5
-4 0 10 10 7 2 -3 -5
-4 0 10 10 7 2 -3 -6
-4 0 10 10 7 2 -3 -6
-4 0 10 10 7 2 -3 -6
-5 1 10 9 7 3 -4 -7
-5 1 10 9 7 3 -4 -7
-5 1 10 9 7 3 -4 -7
-5 1 10 9 7 3 -4 -7
-5 1 10 9 7 3 -4 -7
-5 0 10 8 7 3 -4 -6
-5 0 10 8 7 3 -4 -6
-5 -2 10 8 7 3 -4 -6
-5 -2 10 8 7 3 -4 -6
-5 -2 10 8 7 3 -4 -6
-4 -3 9 8 7 3 -4 -6
-4 -3 9 8 7 3 -4 -6
-4 -3 9 8 7 3 -4 -6
-4 -3 9 8 7 3 -4 -6
-4 -3 9 8 7 3 -4 -6
-5 -2 9 8 6 4 -4 -6
-5 -2 9 8 6 4 -4 -6
-5 -2 9 8 6 4 -4 -6
-5 -2 9 8 6 4 -4 -6
-5 -2 9 8 6 4 -4 -6
-6 -2 10 7 7 4 -4 -6
-5 -2 10 7 6 4 -4 -6
-5 -2 9 6 6 3 -4 -7
-4 -2 9 6 5 3 -4 -7
-4 -2 9 6 5 3 -4 -7
-3 -3 8 5 4 2 -5 -8
-3 -3 8 5 4 2 -5 -8
-4 -3 9 5 4 3 -5 -8
-4 -3 9 5 4 3 -5 -8
-4 -3 9 5 4 3 -5 -8
-5 -3 10 6 5 4 -5 -8
-5 -3 10 6 5 4 -5 -8
-5 -3 10 6 5 4 -5 -8
-5 -3 10 6 5 4 -5 -8
-5 -3 10 6 5 4 -5 -8
-6 -3 9 7 5 4 -4 -7
-6 -3 9 7 5 4 -4 -7
-6 -3 9 6 5 3 -4 -8
-6 -3 9 6 5 3 -4 -8
-6 -3 9 6 5 3 -4 -8
-6 -3 8 5 4 2 -5 -9
-6 -3 8 5 4 2 -5 -9
-5 -3 8 5 4 2 -5 -9
-5 -3 8 5 4 2 -5 -9
-5 -3 8 5 4 2 -5 -9
-4 -2 8 5 3 3 -5 -8
-5 -2 8 5 4 3 -5 -8
-6 0 8 5 4 3 -5 -8
-6 0 8 5 5 3 -5 -8
-7 0 8 5 5 3 -5 -8
-8 1 9 5 6 4 -5 -8
-7 1 9 5 6 4 -5 -8
-6 2 9 5 5 3 -4 -8
-5 2 9 5 5 3 -4 -8
-4 2 9 5 5 3 -4 -8
-3 3 10 5 4 2 -3 -8
-3 3 10 6 5 2 -3 -8
-2 3 11 7 6 3 -3 -8
-2 3 11 7 6 3 -3 -8
-2 3 11 8 7 3 -3 -8
0 4 12 9 8 4 -3 -7
-2 4 13 10 8 4 -3 -7
-2 4 13 10 8 5 -3 -7
-3 4 14 11 8 5 -3 -7
-3 4 14 11 8 5 -3 -7
-4 4 15 12 9 6 -3 -7
-3 4 15 12 10 6 -3 -7
-3 5 15 13 10 7 -2 -6
-2 5 15 13 11 7 -2 -6
-2 5 15 13 11 7 -2 -6
0 6 16 14 12 8 0 -5
0 6 17 15 13 9 1 -4
1 7 17 15 13 10 2 -3
1 7 18 16 14 11 2 -3
1 7 18 16 14 12 3 -2
2 8 19 17 15 13 4 0
2 8 17 16 15 12 4 0
3 8 16 15 14 12 4 -2
3 8 15 15 14 11 4 -2
3 8 14 14 14 11 4 -2
4 7 13 13 13 10 3 -3
4 7 13 13 13 10 3 -3
4 7 13 13 13 10 3 -3
4 7 13 13 13 10 3 -3
4 7 13 13 13 10 3 -3
5 7 13 13 13 11 3 -2
5 6 12 12 12 10 2 -4
4 5 11 11 11 9 1 -5
4 5 10 11 10 8 0 -6
4 4 9 10 9 7 -2 -7
3 3 8 9 8 6 -3 -8
3 2 8 8 7 5 -3 -8
2 1 7 6 6 4 -4 -9
1 0 6 5 6 4 -4 -9
1 -2 6 4 5 3 -4 -9
0 -3 5 3 4 2 -5 -10
0 -3 5 3 4 2 -5 -10
-2 -2 5 3 4 2 -6 -10
-2 -2 5 3 4 2 -6 -10
-2 -2 5 3 4 2 -6 -10
-3 0 6 2 3 2 -7 -10
-4 0 6 2 3 2 -7 -10
-6 -2 6 1 2 1 -8 -11
-7 -3 6 1 1 0 -8 -12
-8 -3 6 1 1 0 -8 -12
-9 -4 6 0 0 -2 -9 -13
-9 -4 6 0 0 -2 -9 -13
-8 -4 6 0 0 -2 -9 -13
-8 -4 6 0 0 -2 -9 -13
-8 -4 6 0 0 -2 -9 -13
-7 -3 7 1 0 -3 -10 -13
-7 -3 7 1 0 -3 -10 -13
-7 -3 7 0 0 -3 -10 -13
-7 -3 7 0 0 -3 -10 -13
-7 -3 7 0 0 -3 -10 -13
-8 -4 7 -2 1 -2 -10 -12
-8 -4 7 -2 1 -2 -10 -12
-8 -4 7 -2 1 -3 -10 -13
-8 -4 7 -2 1 -3 -10 -13
-8 -4 7 -2 1 -3 -10 -13
-9 -5 7 -2 0 -4 -11 -14
-9 -5 7 -2 0 -4 -11 -14
-9 -4 7 -2 0 -5 -11 -14
-9 -4 7 -2 0 -5 -11 -14
-9 -4 7 -2 0 -5 -11 -14
-9 -3 6 -3 -2 -6 -11 -15
-9 -3 6 -3 -2 -6 -11 -15
-9 -3 6 -3 -2 -6 -11 -15
-9 -3 6 -3 -2 -6 -11 -15
-9 -3 6 -3 -2 -6 -11 -15
-8 -2 7 -2 -3 -6 -12 -15
-8 -2 7 -2 -3 -6 -12 -15
-8 -2 7 -2 -3 -6 -12 -15
-8 -2 7 -2 -3 -6 -12 -15
-8 -2 7 -2 -3 -6 -12 -15
-7 -3 8 -2 -2 -5 -11 -14
-7 -3 8 -2 -2 -5 -11 -14
-7 -3 8 0 -2 -5 -11 -14
-7 -3 8 0 -2 -5 -11 -14
-7 -3 8 0 -2 -5 -11 -14
-7 -4 10 4 1 -4 -12 -14
-8 -5 13 8 3 -4 -12 -16
-9 -6 16 13 5 -4 -13 -18
-10 -7 19 18 7 -4 -13 -20
-11 -8 22 23 10 -4 -13 -22
-12 -7 28 33 19 3 -11 -21
-12 -2 35 49 32 12 -6 -17
-11 3 44 63 47 22 1 -14
-10 7 51 77 60 32 6 -10
-10 12 59 92 73 43 11 -6
-4 20 64 108 95 63 27 6
5 31 67 126 119 90 51 21
14 42 70 144 144 117 74 36
23 53 74 161 170 144 97 52
31 63 77 179 194 171 120 68
44 75 67 163 199 190 144 87
59 88 47 125 191 205 169 107
74 99 25 87 183 220 192 128
89 111 5 49 175 235 217 148
104 123 -17 11 167 250 240 170
112 131 -40 -35 142 248 251 182
117 134 -66 -86 109 236 251 189
121 137 -92 -136 75 223 251 196
126 141 -117 -186 42 211 251 203
131 144 -143 -236 8 197 251 211
125 130 -156 -265 -35 149 215 191
110 103 -162 -279 -86 78 154 153
96 75 -169 -293 -137 7 93 116
81 49 -175 -307 -187 -64 31 78
67 21 -181 -321 -237 -136 -30 40
53 5 -171 -305 -243 -159 -59 17
38 -4 -148 -267 -218 -151 -65 3
24 -13 -124 -229 -193 -142 -72 -11
10 -21 -102 -191 -169 -134 -79 -25
-5 -30 -78 -153 -143 -124 -87 -39
-11 -33 -62 -124 -120 -111 -85 -44
-11 -29 -50 -101 -99 -95 -74 -39
-12 -26 -37 -77 -77 -77 -64 -35
-12 -23 -25 -54 -57 -61 -54 -31
-12 -20 -12 -30 -35 -45 -44 -27
-13 -17 -6 -18 -24 -35 -36 -24
-12 -15 -4 -14 -19 -30 -32 -21
-11 -13 -2 -10 -15 -25 -28 -18
-11 -11 1 -6 -10 -20 -23 -15
-10 -8 4 -2 -5 -15 -19 -13
-9 -7 5 1 -3 -12 -17 -11
-9 -7 5 2 -3 -12 -17 -11
-9 -7 6 3 -3 -12 -17 -11
-9 -7 6 3 -3 -12 -17 -11
-9 -7 6 4 -3 -12 -17 -11
-9 -6 7 5 -3 -12 -18 -11
-9 -6 7 5 -3 -12 -18 -11
-9 -6 7 5 -2 -12 -17 -10
-9 -6 7 5 0 -12 -17 -10
-9 -6 7 5 0 -12 -17 -10
-9 -7 7 5 1 -13 -16 -9
-9 -7 7 5 1 -13 -16 -9
-9 -7 7 6 0 -13 -16 -9
-9 -7 7 7 0 -13 -16 -9
-9 -7 7 7 0 -13 -16 -9
-8 -8 8 8 -2 -13 -17 -9
-8 -8 8 7 -2 -13 -17 -9
-8 -7 8 6 -2 -12 -17 -10
-8 -7 8 6 -2 -11 -17 -10
-8 -7 8 5 -2 -11 -17 -10
-8 -6 7 4 -3 -10 -17 -11
-8 -6 7 4 -3 -10 -17 -11
-8 -6 7 5 -3 -11 -17 -10
-8 -6 7 6 -3 -11 -17 -9
-8 -6 7 6 -3 -11 -17 -9
-7 -6 7 7 -2 -12 -16 -8
-7 -6 7 7 -2 -12 -16 -8
-7 -5 7 6 -2 -12 -16 -8
-7 -5 7 6 -2 -12 -16 -8
-7 -5 7 6 -2 -12 -16 -8
-7 -4 6 5 0 -11 -15 -8
-7 -4 6 5 0 -11 -15 -8
-8 -5 7 6 0 -10 -15 -7
-8 -5 7 7 0 -10 -15 -6
-8 -5 7 7 0 -10 -15 -6
-9 -6 8 8 0 -9 -15 -5
-9 -6 8 8 0 -9 -15 -5
-8 -6 8 8 0 -9 -15 -5
-8 -6 8 8 0 -9 -15 -5
-8 -6 8 8 0 -9 -15 -5
-7 -6 7 7 1 -9 -14 -6
-7 -6 7 7 0 -9 -14 -6
-7 -6 6 7 -2 -10 -14 -6
-7 -6 5 7 -2 -10 -14 -6
-7 -6 5 7 -3 -10 -14 -6
-6 -5 4 6 -4 -11 -15 -6
-6 -5 4 6 -3 -11 -15 -6
-7 -5 5 6 -2 -11 -15 -6
-7 -5 6 6 -2 -11 -15 -6
-7 -5 6 6 0 -11 -15 -6
-8 -6 7 7 1 -10 -15 -5
-8 -6 7 7 1 -10 -15 -5
-7 -6 6 7 0 -10 -15 -5
-6 -6 6 7 0 -10 -15 -5
-6 -6 6 7 0 -10 -15 -5
-5 -6 5 7 -2 -11 -15 -5
-5 -6 5 7 -2 -11 -15 -5
-6 -6 5 7 -2 -11 -15 -5
-7 -6 5 7 -2 -11 -15 -5
-7 -6 5 7 -2 -11 -15 -5
-8 -7 6 7 0 -10 -14 -5
-8 -7 6 7 0 -10 -14 -5
-7 -7 5 7 0 -10 -14 -4
-6 -7 5 7 0 -10 -14 -4
-6 -7 5 7 0 -10 -14 -4
-5 -6 4 8 0 -10 -15 -3
-5 -6 4 8 0 -10 -15 -3
-6 -6 4 7 0 -10 -15 -3
-7 -6 4 7 0 -10 -15 -3
-7 -6 4 7 0 -10 -15 -3
-8 -6 4 6 0 -10 -15 -3
-7 -6 4 6 0 -10 -15 -3
-6 -6 4 6 0 -10 -15 -3
-5 -6 4 6 0 -10 -15 -3
-4 -6 4 6 0 -10 -15 -3
-3 -6 4 6 0 -11 -14 -2
-4 -6 4 6 0 -11 -14 -2
-5 -6 4 6 0 -11 -14 -2
-5 -6 4 6 0 -11 -14 -2
-6 -6 4 6 0 -11 -14 -2
-7 -6 3 5 0 -11 -14 0
-7 -6 3 5 0 -11 -14 0
-6 -5 2 5 -2 -11 -14 1
-6 -5 2 5 -2 -11 -14 1
-6 -5 2 5 -2 -11 -14 1
-5 -4 1 4 -3 -12 -14 2
-4 -4 1 4 -3 -12 -14 2
-3 -4 0 3 -3 -12 -14 2
-3 -4 0 2 -3 -12 -14 2
-2 -4 0 2 -3 -12 -14 2
0 -3 -2 1 -4 -13 -13 2
0 -3 -2 1 -4 -13 -13 2
-2 -3 -2 1 -4 -13 -13 3
-2 -3 -2 1 -4 -13 -13 3
-2 -3 -2 1 -4 -13 -13 3
-3 -2 -2 0 -5 -13 -14 4
-3 -2 -2 0 -5 -13 -14 5
-4 -2 -3 -2 -5 -13 -13 6
-4 -2 -3 -3 -5 -13 -12 6
-4 -2 -3 -3 -5 -13 -12 7
-5 0 -4 -4 -5 -12 -11 8
-5 0 -4 -4 -5 -12 -11 8
-4 1 -4 -4 -6 -13 -11 9
-4 2 -4 -4 -7 -14 -11 9
-4 2 -4 -4 -7 -14 -11 9
-3 3 -5 -5 -8 -15 -12 10
-3 3 -6 -7 -9 -15 -12 10
-2 3 -7 -9 -10 -15 -11 10
0 3 -7 -10 -10 -15 -11 10
0 3 -8 -12 -11 -15 -11 10
1 3 -9 -13 -12 -15 -10 10
1 3 -10 -13 -12 -15 -10 11
0 4 -11 -14 -12 -15 -10 12
0 5 -12 -15 -12 -15 -10 13
0 5 -13 -15 -12 -15 -10 14
-2 6 -14 -16 -13 -15 -9 15
-2 6 -15 -17 -14 -15 -9 15
-2 7 -15 -18 -14 -15 -9 15
-2 8 -16 -19 -15 -16 -9 15
-2 8 -17 -20 -16 -16 -9 15
0 9 -18 -21 -17 -17 -8 15
0 9 -18 -22 -18 -17 -8 15
0 9 -18 -22 -18 -17 -8 16
0 9 -19 -23 -19 -17 -8 17
0 9 -19 -24 -20 -17 -8 17
1 9 -20 -25 -21 -18 -8 18
1 10 -20 -26 -21 -18 -7 19
1 10 -20 -26 -21 -18 -7 19
1 11 -21 -27 -21 -18 -6 20
1 12 -21 -28 -21 -18 -5 21
2 13 -22 -29 -20 -19 -4 22
2 13 -22 -29 -20 -19 -4 22
1 13 -22 -29 -20 -19 -4 23
0 13 -22 -29 -21 -19 -4 24
0 13 -22 -29 -21 -19 -4 24
-2 13 -23 -29 -22 -18 -3 25
0 13 -23 -29 -22 -18 -3 25
1 13 -23 -29 -22 -18 -3 25
2 14 -23 -30 -22 -17 -3 25
3 14 -23 -30 -22 -17 -3 25
4 15 -24 -31 -21 -16 -3 24
4 15 -24 -31 -21 -16 -2 25
4 15 -24 -30 -21 -16 -2 25
5 15 -24 -29 -21 -16 0 26
5 15 -24 -29 -21 -16 1 27
6 16 -24 -28 -21 -15 2 28
6 16 -23 -27 -19 -15 2 28
6 16 -22 -26 -18 -14 2 28
6 15 -20 -24 -17 -13 3 28
6 15 -19 -23 -15 -13 3 28
6 14 -18 -22 -14 -12 4 27
6 14 -17 -20 -14 -12 4 27
6 14 -16 -19 -14 -12 3 27
7 14 -14 -17 -13 -12 2 26
7 14 -13 -15 -13 -12 2 26
8 13 -12 -14 -12 -12 1 25
7 12 -11 -13 -11 -12 1 25
7 11 -10 -12 -10 -12 1 24
6 9 -9 -10 -8 -12 1 23
5 8 -8 -9 -7 -12 1 23
4 7 -7 -8 -6 -11 1 22
4 7 -6 -6 -6 -11 1 22
4 6 -5 -5 -5 -11 1 21
3 5 -3 -3 -4 -10 1 20
3 5 -2 0 -4 -10 1 20
2 4 0 1 -3 -9 1 19
2 4 1 1 -2 -9 1 19
2 3 2 2 -2 -8 1 18
1 2 3 3 0 -7 0 17
1 2 4 3 1 -7 0 17
0 1 5 4 2 -6 -2 16
0 1 5 4 2 -7 -2 16
0 1 5 5 2 -8 -3 15
0 1 6 6 2 -9 -4 14
0 1 6 6 2 -10 -4 14
-2 0 7 7 2 -11 -5 13
-2 0 7 7 2 -11 -5 13
-2 -2 7 7 2 -10 -5 13
-2 -3 7 7 2 -9 -5 13
-2 -3 7 7 2 -9 -5 13
-3 -4 7 7 2 -8 -4 13
-3 -4 7 7 2 -8 -4 13
-3 -4 7 7 2 -8 -4 12
-3 -4 7 8 2 -9 -5 11
-3 -4 7 8 2 -9 -5 11
-4 -5 7 9 2 -10 -6 10
-4 -5 7 9 2 -10 -6 10
-5 -5 7 9 2 -10 -6 10
-6 -5 7 9 2 -10 -7 10
-6 -5 7 9 2 -10 -7 10
-7 -6 8 9 2 -10 -8 9
-7 -6 8 9 2 -10 -8 9
-7 -6 9 9 2 -10 -8 9
-7 -6 10 9 2 -10 -8 9
-7 -6 10 9 2 -10 -8 9
-7 -7 11 10 2 -10 -8 8
-7 -7 11 10 2 -10 -8 8
-7 -7 11 10 2 -10 -8 8
-7 -7 11 10 2 -10 -8 8
-7 -7 11 10 2 -10 -8 8
-8 -7 11 10 2 -10 -7 8
-8 -7 11 10 2 -10 -7 8
-8 -7 11 10 2 -10 -7 8
-7 -7 11 10 2 -10 -8 8
-7 -7 11 10 2 -10 -8 8
-6 -6 11 10 1 -10 -9 8
-6 -6 11 10 1 -10 -9 8
-6 -6 11 10 1 -10 -9 8
-6 -6 11 10 1 -10 -9 8
-6 -6 11 10 1 -10 -9 8
-7 -6 11 10 2 -11 -9 8
-7 -6 11 10 2 -11 -9 8
-7 -6 11 11 2 -11 -9 8
-8 -6 11 12 3 -11 -9 9
-8 -6 11 12 3 -11 -9 9
-9 -7 12 13 4 -10 -8 10
-8 -7 12 13 4 -10 -8 10
-8 -7 12 13 4 -10 -8 10
-7 -7 12 13 4 -9 -7 9
-6 -7 12 13 4 -9 -7 9
-5 -6 13 12 4 -8 -6 8
-5 -6 13 12 4 -8 -6 8
-5 -6 13 12 4 -8 -6 8
-4 -5 13 12 4 -9 -6 8
-4 -5 13 12 4 -9 -6 8
-3 -4 12 13 4 -10 -7 8
-3 -4 12 13 4 -9 -7 8
-3 -4 12 13 4 -9 -7 9
-3 -4 12 13 5 -8 -6 10
-3 -4 12 13 5 -7 -6 10
-3 -3 13 13 6 -6 -5 11
-3 -3 13 13 6 -6 -5 11
-4 -3 13 13 6 -6 -4 11
-5 -3 13 13 7 -6 -3 11
-5 -3 13 13 7 -6 -3 11
-6 -4 13 14 8 -5 -2 12
-6 -4 13 14 8 -5 -2 12
-6 -4 13 14 8 -4 -2 12
-6 -4 14 14 8 -3 -2 12
-6 -4 14 14 8 -3 -2 12
-7 -4 15 14 9 -2 -3 13
-7 -4 15 14 9 -2 -3 13
-6 -4 15 14 9 -3 -3 13
-5 -4 14 14 9 -4 -3 13
-5 -4 14 14 9 -4 -3 13
-4 -3 13 13 8 -5 -3 12
-4 -3 13 13 8 -5 -3 12
-4 -3 13 13 8 -4 -3 12
-4 -3 13 13 9 -3 -2 12
-4 -3 13 13 9 -3 -2 12
-5 -3 13 14 10 -2 0 13
-5 -3 13 14 10 -2 0 13
-5 -3 13 14 10 -2 0 13
-5 -3 13 14 10 -2 0 13
-5 -3 13 14 10 -2 0 13
-5 -3 13 13 9 -2 0 13
-5 -3 13 13 9 -2 0 13
-5 -3 13 13 9 -2 0 13
-4 -3 13 13 9 -2 0 13
-4 -3 13 13 9 -2 0 13
-3 -4 13 13 10 -3 -2 13
-3 -4 13 13 10 -3 -2 13
-3 -4 13 13 10 -3 -2 13
-3 -4 13 13 10 -3 -2 13
-3 -4 13 13 10 -3 -2 13
-4 -4 13 13 9 -2 0 13
-4 -4 13 13 9 -2 0 13
-4 -4 13 13 9 -2 0 13
-4 -4 13 13 9 -3 0 13
-4 -4 13 13 9 -3 0 13
-5 -4 14 13 9 -4 -2 13
-5 -4 14 13 9 -4 -2 13
-5 -4 14 13 9 -4 -2 13
-5 -4 14 13 9 -4 -2 13
-5 -4 14 13 9 -4 -2 13
-6 -5 14 12 8 -4 -2 12
-6 -5 14 12 8 -4 -2 12
-6 -5 14 12 8 -4 -2 12
-6 -5 14 12 8 -4 -2 12
-6 -5 14 12 8 -4 -2 12
-7 -6 14 12 8 -3 -2 12
-7 -6 14 12 8 -3 -2 12
-7 -6 14 12 8 -3 -2 12
-7 -6 14 12 8 -4 -2 12
-7 -6 14 12 8 -4 -2 12
-6 -5 15 12 7 -5 -2 11
-6 -5 15 12 7 -5 -2 11
-5 -5 15 11 7 -5 -2 11
-4 -5 15 10 7 -5 -2 11
-4 -5 15 10 7 -5 -2 11
-3 -4 14 9 6 -6 -3 10
-4 -4 14 9 6 -6 -3 10
-4 -4 14 9 6 -6 -3 10
-5 -4 14 9 5 -6 -3 10
-6 -4 14 9 5 -6 -3 10
-7 -4 13 10 4 -7 -3 11
-6 -4 13 10 4 -7 -3 11
-5 -4 13 9 4 -7 -3 11
-4 -5 13 8 4 -7 -3 11
-3 -5 13 8 4 -7 -3 11
-2 -6 12 7 5 -6 -4 10
-3 -6 12 8 5 -6 -4 10
-4 -6 13 8 5 -6 -4 10
-5 -6 14 9 5 -6 -4 10
-6 -6 14 10 5 -6 -4 10
-7 -6 15 11 5 -7 -3 9
-7 -6 15 11 5 -7 -3 9
-7 -6 15 11 5 -6 -2 9
-7 -6 15 11 6 -5 0 9
-7 -6 15 11 6 -5 0 9
-7 -6 14 11 7 -4 1 9
-6 -5 14 11 7 -4 1 9
-6 -5 14 11 7 -4 0 9
-5 -4 14 12 7 -4 -2 9
-4 -3 14 12 7 -4 -2 9
-3 -2 15 13 8 -5 -3 10
-3 -2 15 13 8 -5 -3 10
-4 -2 16 13 8 -4 -2 10
-5 -2 17 14 9 -3 0 10
-5 -2 17 14 9 -3 0 10
-6 -3 18 15 10 -2 1 11
-6 -3 18 15 10 -2 1 11
-5 -3 18 15 10 -2 1 11
-5 -3 18 15 10 -2 1 11
-4 -3 18 15 10 -2 1 11
-3 -4 19 16 10 -3 1 11
-3 -4 19 17 11 -2 2 11
-3 -3 20 17 11 0 2 11
-2 -3 20 18 12 1 3 12
-2 -2 21 19 13 3 4 12
0 0 22 20 14 4 5 13
0 0 22 20 14 4 5 13
0 0 22 20 14 4 5 14
0 0 22 20 15 4 5 14
0 0 22 20 15 4 5 15
0 1 22 21 16 5 6 16
0 1 22 21 16 5 6 16
1 1 21 21 16 5 6 16
1 1 21 20 16 5 6 15
2 1 20 20 16 5 6 15
3 0 19 19 17 6 7 14
3 0 19 19 17 6 7 14
3 0 19 19 17 6 7 14
2 0 19 19 17 5 7 14
2 0 19 19 17 5 7 14
1 -2 18 19 16 4 8 15
1 -3 17 18 15 3 7 14
1 -4 16 17 14 3 6 14
1 -5 15 16 13 2 5 13
1 -6 14 14 11 1 4 12
0 -7 13 13 10 0 3 11
-2 -7 13 13 10 0 3 11
-2 -7 13 13 10 0 3 11
-3 -7 12 12 9 -2 2 11
-4 -7 12 12 9 -2 2 11
-5 -8 11 11 8 -3 1 10
-5 -9 11 11 7 -3 0 9
-5 -9 11 11 7 -3 -2 8
-6 -10 11 10 6 -4 -3 7
-6 -11 11 10 5 -4 -4 5
-7 -12 11 9 4 -5 -5 4
-7 -12 11 9 4 -6 -5 4
-7 -12 11 9 4 -6 -5 4
-7 -12 11 8 4 -7 -5 4
-7 -12 11 8 4 -8 -5 4
-7 -11 11 7 3 -9 -6 5
-7 -11 11 7 3 -9 -6 5
-7 -11 11 7 3 -9 -6 4
-8 -12 11 6 3 -9 -6 4
-8 -12 11 6 3 -9 -6 3
-9 -13 11 5 2 -9 -6 2
-9 -13 11 5 2 -9 -6 2
-9 -13 11 5 2 -9 -6 2
-10 -13 11 5 2 -10 -6 2
-10 -13 11 5 2 -10 -6 2
-11 -12 11 5 2 -11 -7 2
-11 -12 11 5 2 -11 -7 2
-11 -12 11 5 2 -11 -7 2
-11 -12 11 5 2 -10 -7 2
-11 -12 11 5 2 -10 -7 2
-12 -13 11 5 2 -9 -6 2
-12 -13 11 5 2 -9 -6 2
-12 -13 11 5 2 -9 -6 2
-12 -13 11 5 2 -10 -7 1
-12 -13 11 5 2 -10 -7 1
-11 -14 10 4 1 -11 -8 0
-11 -14 10 4 1 -11 -8 0
-11 -14 11 4 1 -10 -8 0
-10 -14 11 4 1 -10 -8 0
-10 -14 12 4 1 -9 -8 0
-9 -14 13 5 2 -8 -7 1
-9 -14 13 5 2 -8 -7 1
-9 -14 13 5 2 -8 -7 1
-9 -13 13 5 2 -8 -7 1
-9 -13 13 5 2 -8 -7 1
-9 -12 12 5 1 -8 -7 0
-9 -12 12 5 1 -8 -7 -2
-10 -12 12 6 1 -8 -7 -2
-10 -12 12 6 2 -8 -7 -3
-11 -12 12 7 2 -8 -7 -4
-12 -13 13 9 3 -7 -6 -5
-12 -14 16 15 7 -7 -7 -6
-12 -14 20 21 10 -7 -9 -7
-13 -15 24 26 13 -7 -10 -8
-13 -16 28 32 16 -7 -11 -10
-14 -16 32 40 22 -3 -12 -11
-13 -11 39 55 36 9 -4 -8
-12 -7 46 68 51 20 4 -5
-11 -2 52 82 65 32 11 -2
-9 4 59 96 79 44 18 1
-6 10 64 111 97 60 30 8
3 20 66 128 121 88 55 25
11 31 68 144 145 115 79 43
19 42 69 160 170 143 104 60
27 52 71 177 194 171 130 77
36 63 69 180 211 195 154 96
51 75 50 141 200 211 179 116
65 89 30 102 190 225 203 137
79 102 11 63 181 239 228 157
94 114 -9 24 171 255 253 178
105 125 -29 -18 153 262 272 195
107 129 -52 -66 116 245 268 199
109 132 -75 -115 79 229 264 203
112 135 -98 -163 42 212 261 207
114 138 -120 -213 5 195 257 212
113 134 -139 -252 -35 164 238 206
97 105 -143 -262 -83 93 174 165
81 76 -148 -272 -131 21 110 125
65 47 -152 -283 -179 -51 46 85
50 18 -157 -294 -226 -123 -18 44
35 -7 -156 -294 -257 -175 -67 10
24 -15 -136 -257 -228 -162 -71 -3
12 -23 -114 -220 -199 -150 -75 -15
1 -31 -94 -183 -171 -138 -79 -28
-11 -39 -72 -146 -143 -126 -83 -40
-20 -47 -54 -113 -116 -112 -85 -50
-20 -43 -43 -93 -97 -96 -73 -46
-20 -38 -32 -72 -78 -80 -62 -41
-20 -34 -21 -52 -59 -65 -52 -36
-20 -30 -11 -31 -40 -49 -40 -32
-20 -27 -2 -15 -25 -35 -31 -28
-18 -24 0 -12 -20 -31 -28 -26
-16 -22 1 -9 -16 -27 -24 -24
-14 -19 2 -6 -12 -22 -21 -21
-12 -16 4 -3 -8 -18 -18 -19
-10 -14 5 1 -4 -14 -15 -17
-10 -14 5 2 -4 -14 -15 -17
-10 -14 5 3 -4 -14 -15 -17
-10 -14 6 4 -4 -14 -15 -17
-10 -14 6 5 -4 -14 -15 -17
-11 -15 7 6 -4 -13 -15 -18
-11 -15 7 6 -4 -13 -15 -18
-11 -15 7 6 -4 -13 -15 -18
-11 -15 7 6 -4 -12 -15 -18
-11 -15 7 6 -4 -12 -15 -18
-10 -15 7 5 -3 -11 -15 -19
-10 -15 7 5 -3 -11 -15 -19
-10 -15 7 5 -3 -11 -15 -19
-11 -15 7 6 -3 -11 -15 -19
-11 -15 7 6 -3 -11 -15 -19
-12 -14 7 7 -3 -10 -15 -20
-12 -14 7 7 -3 -10 -15 -20
-11 -14 7 6 -3 -10 -15 -20
-11 -14 6 6 -3 -10 -14 -20
-10 -14 6 5 -3 -10 -14 -20
-9 -14 5 4 -2 -9 -13 -21
-9 -14 5 4 -2 -9 -13 -21
-9 -14 5 4 -2 -9 -13 -21
-9 -14 5 5 -2 -9 -13 -21
-9 -14 5 5 -2 -9 -13 -21
-10 -13 6 6 -2 -9 -13 -20
-10 -13 6 6 -2 -9 -13 -20
-10 -13 6 6 -2 -9 -13 -20
-11 -13 6 6 -2 -9 -12 -21
-11 -13 6 6 -2 -9 -12 -21
-12 -14 6 5 -2 -8 -11 -22
-12 -14 6 5 -2 -8 -11 -22
-11 -14 6 6 -2 -8 -11 -22
-11 -14 6 6 -2 -8 -11 -22
-10 -14 6 7 -2 -8 -11 -22
-9 -13 7 8 -2 -8 -12 -22
-9 -13 7 8 -2 -8 -12 -22
-9 -13 7 7 -2 -8 -12 -22
-9 -13 7 7 -2 -8 -12 -22
-9 -13 7 6 -2 -8 -12 -22
-10 -12 6 5 -2 -8 -12 -22
-10 -12 6 5 -2 -8 -12 -22
-10 -12 6 5 -2 -8 -12 -23
-10 -12 5 5 -3 -8 -12 -23
-10 -12 5 5 -3 -8 -12 -24
-9 -12 4 4 -4 -9 -12 -25
-9 -12 4 4 -4 -9 -12 -25
-9 -12 4 4 -4 -9 -12 -25
-9 -12 4 4 -4 -8 -12 -25
-9 -12 4 4 -4 -8 -12 -25
-10 -12 4 5 -3 -7 -12 -24
-10 -12 4 5 -3 -7 -12 -24
-10 -12 4 5 -3 -7 -12 -24
-9 -12 4 5 -3 -7 -12 -24
-9 -12 4 5 -3 -7 -12 -24
-8 -12 4 5 -3 -8 -11 -24
-8 -12 4 5 -3 -8 -11 -24
-8 -12 4 5 -3 -8 -11 -24
-9 -12 4 4 -3 -8 -11 -24
-9 -12 4 4 -3 -8 -11 -24
-10 -13 5 3 -3 -7 -11 -24
-10 -13 5 3 -3 -7 -11 -24
-10 -13 4 3 -3 -8 -11 -24
-10 -13 3 3 -4 -8 -11 -24
-10 -13 2 3 -4 -9 -11 -24
-9 -13 1 4 -5 -10 -12 -25
-9 -13 1 4 -5 -10 -12 -25
-9 -13 1 4 -5 -9 -12 -25
-9 -13 1 4 -5 -8 -11 -25
-9 -13 1 4 -5 -7 -11 -25
-8 -12 2 3 -4 -6 -10 -24
-8 -12 2 3 -4 -6 -10 -24
-8 -12 2 3 -4 -6 -10 -24
-8 -12 2 3 -4 -7 -11 -24
-8 -12 2 3 -4 -7 -11 -24
-8 -11 1 4 -4 -8 -12 -23
-8 -11 1 4 -4 -8 -12 -23
-8 -11 1 3 -4 -8 -12 -23
-8 -11 1 3 -4 -8 -12 -23
-8 -11 1 2 -4 -8 -12 -23
-7 -11 0 1 -3 -8 -11 -24
-7 -11 0 1 -3 -8 -11 -24
-7 -11 0 1 -4 -8 -11 -24
-7 -10 -2 1 -4 -8 -12 -24
-7 -10 -2 1 -5 -8 -12 -24
-7 -9 -3 0 -6 -9 -13 -23
-7 -9 -3 0 -6 -9 -13 -23
-7 -9 -3 0 -6 -9 -13 -23
-7 -9 -4 -2 -6 -9 -13 -23
-7 -9 -4 -2 -6 -9 -13 -23
-6 -10 -5 -3 -7 -9 -12 -22
-6 -10 -5 -3 -7 -9 -12 -22
-6 -10 -5 -3 -7 -9 -12 -22
-7 -9 -6 -3 -7 -9 -12 -21
-7 -9 -6 -3 -7 -9 -12 -21
-8 -8 -7 -4 -8 -9 -11 -20
-8 -8 -7 -5 -8 -9 -11 -20
-7 -8 -8 -6 -8 -9 -11 -20
-7 -7 -9 -7 -8 -9 -10 -20
-6 -7 -10 -8 -8 -9 -10 -20
-5 -6 -11 -10 -9 -9 -9 -20
-5 -6 -11 -10 -10 -9 -9 -20
-5 -6 -11 -11 -11 -9 -9 -19
-5 -6 -12 -11 -12 -10 -9 -19
-5 -6 -12 -12 -13 -10 -9 -18
-4 -5 -13 -13 -14 -11 -9 -17
-4 -5 -13 -14 -14 -11 -9 -17
-4 -4 -14 -15 -14 -11 -9 -17
-4 -4 -15 -16 -15 -11 -8 -17
-4 -3 -16 -17 -15 -11 -8 -17
-4 -2 -17 -19 -16 -10 -7 -16
-4 -2 -17 -19 -16 -10 -7 -15
-4 0 -18 -20 -17 -10 -7 -14
-3 0 -19 -21 -17 -11 -7 -13
-3 1 -20 -22 -18 -11 -7 -12
-2 2 -21 -23 -19 -12 -6 -11
-2 2 -21 -24 -19 -12 -6 -11
-2 2 -21 -26 -19 -12 -6 -11
-3 3 -22 -28 -20 -12 -6 -11
-3 3 -22 -29 -20 -12 -6 -11
-4 4 -23 -31 -21 -12 -5 -11
-4 4 -23 -31 -22 -12 -5 -11
-3 4 -24 -32 -23 -13 -5 -11
-3 5 -25 -32 -24 -13 -5 -10
-2 5 -26 -33 -25 -14 -5 -10
0 6 -27 -34 -26 -15 -5 -9
0 6 -27 -35 -26 -15 -5 -9
0 6 -28 -37 -27 -15 -4 -9
0 7 -28 -39 -27 -15 -4 -9
0 7 -29 -40 -28 -15 -3 -9
-2 8 -30 -43 -29 -15 -2 -8
0 8 -30 -43 -29 -15 -2 -8
2 9 -30 -43 -30 -15 -2 -7
4 9 -30 -43 -30 -15 -2 -7
5 10 -30 -43 -31 -15 -2 -6
7 11 -31 -44 -32 -16 0 -5
7 11 -31 -44 -32 -16 1 -5
6 11 -31 -44 -32 -15 2 -5
5 11 -31 -44 -31 -15 3 -4
4 11 -31 -44 -31 -14 4 -4
3 11 -31 -44 -30 -13 5 -3
3 11 -31 -44 -30 -13 5 -3
3 11 -31 -43 -30 -13 5 -2
3 11 -31 -43 -30 -13 5 -2
3 11 -31 -41 -30 -13 5 0
4 11 -30 -40 -29 -12 4 1
4 11 -30 -39 -29 -12 4 1
4 11 -29 -38 -28 -11 5 1
4 10 -28 -37 -27 -11 5 1
4 10 -27 -36 -26 -10 6 1
4 9 -26 -35 -25 -9 7 0
4 9 -25 -33 -24 -9 7 0
4 9 -24 -31 -23 -8 7 0
5 9 -22 -29 -21 -7 7 -2
5 9 -21 -27 -20 -6 7 -2
6 9 -19 -25 -18 -5 7 -3
6 9 -18 -24 -18 -5 7 -4
6 8 -17 -23 -17 -5 6 -5
6 8 -16 -22 -16 -5 6 -6
6 7 -15 -21 -15 -5 5 -7
6 6 -14 -19 -14 -5 4 -9
6 5 -13 -17 -13 -5 4 -9
6 4 -12 -15 -12 -5 4 -9
5 3 -10 -13 -11 -4 4 -10
5 2 -9 -10 -10 -4 4 -10
4 1 -7 -8 -9 -3 3 -11
4 1 -6 -7 -9 -3 3 -11
3 0 -5 -6 -8 -3 3 -11
3 0 -4 -5 -8 -3 3 -11
2 -2 -3 -4 -7 -3 3 -11
1 -3 0 -3 -6 -2 2 -12
1 -3 0 -3 -6 -2 2 -12
1 -3 0 -2 -6 -2 1 -13
0 -4 1 0 -5 -2 1 -13
0 -4 1 1 -5 -2 0 -14
-2 -5 2 2 -4 -2 -2 -15
-2 -5 2 2 -4 -2 -2 -15
-2 -5 2 2 -4 -2 -2 -15
-3 -6 3 3 -3 -2 -2 -15
-3 -6 3 3 -3 -2 -2 -15
-4 -7 4 4 -2 0 -2 -16
-4 -7 4 4 -2 0 -2 -16
-4 -7 4 4 -2 0 -2 -16
-4 -7 4 4 -2 -2 -3 -17
-4 -7 4 4 -2 -2 -3 -17
-4 -7 5 5 -3 -3 -4 -18
-4 -7 5 5 -3 -3 -4 -18
-4 -7 5 5 -3 -3 -4 -18
-5 -7 5 5 -3 -3 -4 -18
-5 -7 5 5 -3 -3 -4 -18
-6 -8 5 5 -3 -4 -5 -18
-6 -8 5 5 -3 -4 -5 -18
-6 -8 5 5 -3 -4 -5 -18
-6 -8 6 5 -3 -4 -6 -19
-6 -8 6 5 -3 -4 -6 -19
-5 -9 7 6 -4 -4 -7 -20
-5 -9 7 6 -4 -4 -7 -20
-4 -9 7 6 -4 -4 -7 -20
-4 -9 7 6 -4 -4 -7 -20
-3 -9 7 6 -4 -4 -7 -20
-2 -8 7 6 -3 -4 -7 -19
-2 -8 7 6 -3 -4 -7 -19
-3 -8 7 6 -3 -4 -7 -19
-4 -8 7 6 -3 -4 -7 -20
-5 -8 7 6 -3 -4 -7 -20
-6 -9 7 7 -3 -4 -8 -21
-6 -9 7 7 -3 -4 -8 -21
-6 -9 7 7 -3 -4 -8 -21
-5 -9 7 7 -3 -4 -8 -21
-5 -9 7 7 -3 -4 -8 -21
-4 -9 7 8 -2 -4 -8 -21
-4 -9 7 8 -2 -4 -8 -21
-4 -9 7 8 -2 -4 -8 -20
-5 -9 7 8 -3 -4 -8 -20
-5 -9 7 8 -3 -4 -8 -19
-6 -9 7 7 -4 -4 -7 -18
-6 -9 7 7 -4 -4 -7 -18
-6 -9 7 7 -4 -4 -7 -18
-6 -8 7 8 -3 -4 -7 -18
-6 -8 7 8 -3 -4 -7 -18
-5 -7 8 9 -2 -3 -6 -18
-5 -7 8 9 -2 -3 -6 -18
-5 -7 8 9 -2 -3 -5 -17
-6 -7 8 9 0 -2 -5 -17
-6 -7 8 9 0 -2 -4 -16
-7 -6 8 9 1 0 -3 -15
-7 -6 8 9 1 0 -3 -15
-7 -6 8 9 1 1 -3 -15
-7 -6 8 9 1 1 -3 -14
-7 -6 8 9 1 2 -3 -14
-6 -6 7 9 1 3 -2 -13
-6 -6 7 9 1 3 -2 -13
-6 -6 7 9 1 3 -2 -13
-5 -5 7 9 1 2 -3 -13
-5 -5 7 9 1 2 -3 -13
-4 -4 6 9 1 1 -4 -13
-4 -4 6 9 1 1 -4 -13
-4 -4 6 9 1 1 -4 -13
-4 -4 6 9 1 1 -3 -13
-4 -4 6 9 1 1 -3 -13
-5 -5 7 9 2 2 -2 -12
-5 -5 7 9 2 2 -2 -12
-4 -5 7 9 2 2 -2 -12
-4 -5 7 9 2 3 -2 -12
-3 -5 7 9 2 3 -2 -12
-2 -5 6 9 3 4 -2 -12
-2 -5 6 9 3 4 -2 -12
-2 -5 6 9 3 4 -2 -12
-2 -5 6 9 3 4 0 -12
-2 -5 6 9 3 4 0 -12
-3 -4 6 9 3 5 1 -11
-3 -4 6 9 3 5 1 -11
-3 -4 6 9 3 5 1 -11
-3 -4 6 9 3 5 0 -11
-3 -4 6 9 3 5 0 -11
-2 -4 6 9 3 5 -2 -10
-2 -4 6 9 3 5 -2 -10
-2 -4 6 9 3 5 -2 -10
-3 -4 6 9 3 5 -2 -10
-3 -4 6 9 3 5 -2 -10
-4 -4 6 9 3 4 -2 -10
-4 -4 6 9 3 4 -2 -10
-4 -4 6 9 3 4 -2 -10
-4 -4 6 9 3 4 -2 -10
-4 -4 6 9 3 4 -2 -10
-5 -5 6 9 3 3 -3 -11
-5 -5 6 9 3 3 -3 -11
-5 -5 6 9 3 3 -3 -11
-5 -5 6 9 3 3 -3 -11
-5 -5 6 9 3 3 -3 -11
-5 -5 5 8 2 3 -4 -10
-5 -5 5 8 2 3 -4 -10
-5 -5 5 8 2 3 -4 -10
-5 -5 5 8 1 3 -4 -10
-5 -5 5 8 1 3 -4 -10
-4 -6 5 7 0 2 -4 -10
-4 -6 5 7 0 2 -4 -10
-4 -6 5 7 0 2 -4 -10
-5 -6 5 7 0 2 -4 -10
-5 -6 5 7 0 2 -4 -10
-6 -6 6 8 1 2 -4 -9
-6 -6 6 8 1 2 -4 -9
-5 -6 6 8 1 2 -4 -9
-5 -6 5 8 1 2 -4 -9
-4 -6 5 8 1 2 -4 -9
-3 -5 4 8 0 2 -5 -8
-3 -5 4 8 0 2 -5 -8
-4 -5 4 8 0 2 -5 -8
-4 -5 4 7 0 2 -5 -8
-5 -5 4 7 0 2 -5 -8
-6 -6 4 6 0 2 -5 -9
-6 -6 4 6 0 2 -5 -9
-6 -6 4 6 0 2 -5 -9
-6 -6 4 6 0 1 -6 -9
-6 -6 4 6 0 1 -6 -9
-6 -6 4 6 0 1 -6 -9
-5 -7 3 6 -2 0 -7 -9
-5 -7 3 6 -2 0 -7 -9
-5 -7 3 6 -2 1 -6 -9
-5 -7 3 6 -2 1 -6 -9
-5 -7 3 6 -2 1 -6 -9
-5 -6 4 7 0 2 -5 -8
-5 -6 4 7 0 2 -6 -8
-5 -6 4 7 0 1 -6 -8
-5 -6 4 7 0 1 -7 -8
-5 -6 4 7 0 1 -7 -8
-5 -7 4 7 -2 0 -8 -8
-5 -7 4 7 -2 0 -8 -8
-4 -7 4 7 -2 0 -8 -8
-4 -7 4 7 -2 0 -8 -8
-4 -7 4 7 -2 0 -8 -8
-3 -6 3 6 -2 -2 -8 -9
-3 -6 3 7 -2 -2 -8 -8
-3 -6 4 7 0 0 -7 -8
-3 -6 4 8 0 0 -7 -7
-3 -6 4 8 0 0 -7 -7
-3 -6 5 9 1 1 -6 -6
-3 -5 5 10 2 2 -5 -6
-2 -4 6 10 2 3 -5 -5
-2 -3 6 11 3 4 -4 -5
-2 -3 6 11 3 4 -4 -5
0 -2 7 12 4 5 -3 -4
-2 -2 7 13 4 5 -3 -4
-2 -2 8 14 4 5 -3 -4
-3 -2 8 15 4 5 -3 -4
-3 -2 8 15 4 5 -3 -4
-4 -2 9 16 5 5 -3 -3
-4 -2 9 16 6 6 -3 -3
-4 -2 10 16 7 7 -3 -2
-4 -2 10 16 8 8 -3 -2
-4 -2 10 16 9 8 -3 -2
-3 0 11 17 10 9 -3 0
-2 0 11 18 10 9 -2 1
0 1 11 19 10 9 -2 2
1 1 11 20 10 9 0 3
1 1 11 20 10 9 0 4
2 2 12 21 10 10 1 5
2 2 12 21 10 10 1 5
3 2 11 20 10 10 2 5
3 2 11 20 10 10 2 5
3 2 11 20 10 10 2 5
4 2 9 19 10 10 3 4
4 2 8 19 10 10 2 4
4 1 7 19 10 10 2 4
4 1 6 19 10 10 1 4
4 1 5 19 10 10 1 4
5 0 4 17 8 8 0 4
5 -2 3 15 7 7 -2 3
5 -3 3 14 5 6 -3 2
5 -4 2 12 4 5 -4 1
5 -4 2 11 3 4 -5 1
4 -5 1 10 2 3 -6 0
3 -5 1 10 2 3 -6 0
2 -6 0 10 1 2 -6 0
1 -6 0 10 1 2 -6 0
0 -6 0 10 1 2 -6 0
-2 -7 -2 9 0 1 -7 0
-2 -7 -2 9 0 1 -8 0
-2 -7 -2 9 -2 1 -9 -2
-2 -7 -2 9 -2 1 -10 -2
-2 -7 -2 9 -2 1 -10 -2
-3 -8 -2 8 -3 0 -11 -3
-3 -8 -2 8 -3 0 -11 -3
-3 -9 -2 7 -4 -2 -11 -4
-3 -9 -2 7 -4 -2 -11 -4
-3 -9 -2 7 -4 -2 -11 -4
-4 -10 0 6 -5 -3 -11 -5
-5 -10 0 6 -5 -3 -11 -5
-5 -10 -2 5 -5 -3 -11 -5
-6 -10 -2 5 -5 -3 -11 -5
-6 -10 -2 5 -5 -3 -11 -5
-7 -10 -3 4 -6 -4 -12 -5
-7 -10 -3 4 -6 -4 -12 -5
-7 -10 -3 4 -6 -4 -12 -5
-7 -10 -3 4 -6 -4 -12 -5
-7 -10 -3 4 -6 -4 -12 -5
-7 -9 -3 4 -6 -5 -13 -5
-7 -9 -3 4 -6 -5 -13 -5
-7 -10 -3 4 -6 -5 -13 -5
-7 -10 -3 4 -6 -5 -13 -5
-7 -10 -3 4 -6 -5 -13 -5
-7 -11 -4 4 -6 -5 -13 -5
-8 -11 -4 4 -6 -5 -13 -5
-8 -11 -4 4 -6 -5 -13 -5
-9 -11 -4 4 -6 -5 -13 -5
-9 -11 -4 4 -6 -5 -13 -5
-10 -11 -3 5 -7 -6 -13 -5
-9 -11 -3 5 -7 -6 -13 -5
-8 -10 -3 5 -7 -6 -13 -5
-7 -10 -3 5 -7 -6 -13 -5
-7 -10 -3 5 -7 -6 -13 -5
-6 -9 -3 4 -6 -5 -13 -5
-6 -9 -3 4 -6 -5 -13 -5
-6 -9 -3 4 -6 -5 -13 -4
-6 -9 -3 4 -6 -5 -13 -4
-6 -9 -3 4 -6 -5 -13 -4
-7 -8 -3 5 -6 -5 -14 -3
-7 -9 -2 6 -5 -5 -14 -3
-7 -9 0 7 -5 -5 -13 -3
-7 -10 1 8 -4 -5 -13 -3
-7 -10 1 8 -4 -5 -13 -3
-8 -11 4 13 -2 -4 -13 -5
-9 -12 7 18 1 -5 -15 -7
-9 -12 10 23 3 -5 -17 -8
-10 -13 13 28 5 -6 -19 -10
-10 -13 16 33 6 -6 -21 -11
-11 -10 23 49 21 4 -15 -9
-10 -5 31 64 36 16 -7 -6
-9 1 39 79 52 28 2 -3
-8 6 47 96 68 40 10 2
-7 11 55 111 84 53 18 5
3 21 57 129 108 80 40 21
12 32 58 145 133 108 66 38
21 44 60 162 158 137 91 56
30 55 61 180 184 165 115 74
39 65 62 197 209 194 140 92
53 77 43 156 200 210 164 111
67 90 19 109 188 223 188 132
81 101 -5 61 175 236 212 152
95 113 -28 13 161 251 236 173
109 125 -52 -35 149 264 260 192
114 128 -77 -85 114 252 260 198
117 130 -104 -134 76 234 256 202
121 131 -131 -182 39 217 252 206
126 133 -156 -231 3 200 247 210
129 134 -183 -280 -35 183 243 214
116 110 -187 -291 -80 117 188 181
101 81 -189 -298 -128 47 126 142
86 54 -190 -304 -174 -25 64 103
70 25 -192 -310 -221 -96 2 64
55 -3 -193 -316 -267 -168 -60 26
42 -12 -173 -282 -247 -164 -70 11
29 -19 -148 -242 -217 -151 -74 0
16 -26 -123 -202 -187 -139 -77 -13
4 -32 -99 -162 -157 -126 -81 -25
-10 -39 -74 -122 -128 -112 -86 -36
-12 -37 -61 -99 -107 -97 -77 -35
-13 -34 -49 -77 -87 -81 -67 -31
-13 -31 -36 -57 -67 -66 -57 -27
-14 -27 -25 -35 -48 -50 -47 -23
-14 -24 -13 -14 -28 -34 -36 -19
-14 -22 -10 -9 -22 -29 -32 -17
-13 -19 -8 -6 -19 -25 -28 -14
-12 -17 -7 -3 -15 -22 -25 -12
-11 -15 -5 0 -12 -18 -22 -10
-10 -13 -4 3 -8 -14 -19 -8
-9 -12 -3 4 -7 -13 -18 -7
-9 -12 -3 5 -7 -13 -18 -7
-9 -12 -2 6 -6 -13 -18 -7
-9 -12 -2 7 -6 -13 -18 -7
-9 -12 -2 8 -6 -13 -18 -7
-9 -13 0 9 -5 -13 -18 -6
-9 -13 0 9 -5 -13 -18 -6
-9 -13 0 9 -5 -12 -18 -6
-9 -13 0 9 -5 -12 -18 -6
-9 -13 0 9 -5 -12 -18 -6
-8 -12 0 8 -5 -11 -19 -6
-8 -12 0 8 -5 -11 -18 -6
-9 -12 0 9 -5 -11 -18 -6
-9 -12 0 9 -5 -11 -17 -6
-9 -12 0 9 -5 -11 -17 -6
-10 -11 1 10 -4 -11 -16 -6
-10 -11 1 10 -4 -11 -16 -6
-10 -11 1 9 -4 -11 -16 -6
-10 -11 1 9 -4 -11 -16 -6
-10 -11 1 9 -4 -11 -16 -6
-9 -12 1 8 -5 -10 -16 -6
-9 -12 1 8 -5 -10 -16 -6
-9 -12 1 9 -5 -9 -16 -6
-9 -12 1 9 -5 -9 -16 -6
-9 -12 1 9 -5 -9 -16 -6
-10 -11 1 10 -6 -8 -15 -5
-10 -11 1 9 -6 -8 -15 -5
-10 -11 1 9 -5 -8 -15 -5
-10 -11 1 8 -5 -8 -15 -5
-10 -11 1 8 -5 -8 -15 -5
-9 -11 1 7 -4 -7 -14 -5
-8 -11 1 8 -4 -7 -14 -5
-7 -11 1 8 -4 -8 -14 -5
-6 -11 1 9 -4 -8 -14 -5
-6 -11 1 9 -4 -8 -14 -5
-5 -10 1 10 -5 -9 -15 -5
-6 -10 1 10 -5 -9 -15 -5
-6 -10 1 10 -4 -9 -15 -5
-7 -10 1 10 -4 -9 -15 -5
-7 -10 1 10 -4 -9 -15 -5
-8 -11 1 9 -3 -8 -15 -5
-8 -11 1 9 -3 -8 -15 -5
-8 -11 1 10 -3 -8 -15 -5
-8 -11 1 10 -3 -8 -15 -5
-8 -11 1 10 -3 -8 -15 -5
-8 -12 2 11 -3 -9 -14 -4
-8 -12 2 11 -3 -9 -14 -4
-9 -12 2 10 -3 -9 -14 -5
-9 -12 2 10 -3 -9 -14 -5
-9 -12 2 10 -3 -9 -14 -5
-10 -11 1 9 -3 -9 -15 -6
-9 -11 1 9 -3 -9 -15 -6
-8 -11 1 9 -3 -9 -15 -6
-7 -11 1 9 -3 -9 -15 -6
-7 -11 1 9 -3 -9 -15 -6
-6 -10 0 9 -3 -10 -16 -6
-7 -10 0 9 -3 -10 -16 -6
-7 -11 0 9 -3 -10 -16 -6
-8 -11 0 9 -3 -10 -16 -6
-8 -11 0 9 -3 -10 -16 -6
-9 -12 1 8 -3 -9 -15 -6
-9 -12 1 8 -3 -9 -15 -6
-9 -11 1 8 -3 -9 -15 -6
-9 -11 1 8 -3 -9 -15 -6
-9 -11 1 8 -3 -9 -15 -6
-8 -10 0 9 -3 -9 -14 -6
-8 -10 0 9 -3 -9 -14 -6
-8 -10 0 9 -3 -9 -14 -6
-8 -10 0 9 -3 -9 -14 -6
-8 -10 0 9 -3 -9 -14 -6
-7 -11 -2 8 -3 -9 -15 -6
-7 -10 -2 8 -3 -9 -15 -6
-7 -10 -2 8 -3 -9 -14 -5
-7 -9 -2 8 -3 -9 -14 -5
-7 -9 -2 8 -3 -9 -14 -5
-8 -8 0 9 -2 -9 -13 -4
-8 -9 -2 8 -3 -9 -13 -4
-7 -9 -2 8 -3 -9 -13 -4
-7 -10 -3 7 -4 -9 -13 -4
-7 -10 -3 7 -4 -9 -13 -4
-6 -11 -4 6 -5 -9 -14 -5
-6 -10 -4 6 -5 -9 -14 -5
-6 -10 -4 6 -5 -9 -14 -4
-6 -9 -4 6 -5 -9 -14 -4
-6 -9 -4 6 -5 -9 -14 -4
-6 -8 -4 7 -5 -10 -13 -3
-6 -8 -4 7 -5 -10 -13 -3
-6 -8 -4 6 -5 -10 -13 -3
-6 -8 -4 6 -5 -10 -13 -3
-6 -8 -4 6 -5 -10 -13 -3
-7 -8 -5 5 -4 -10 -14 -4
-7 -7 -5 5 -4 -10 -14 -3
-7 -7 -5 5 -5 -10 -14 -3
-7 -6 -5 5 -5 -10 -14 -2
-7 -6 -5 5 -5 -10 -14 -2
-6 -5 -6 4 -6 -10 -13 0
-6 -5 -7 3 -6 -10 -13 0
-6 -5 -8 2 -6 -10 -13 0
-6 -5 -9 1 -6 -10 -13 0
-6 -5 -10 0 -6 -10 -13 0
-6 -6 -11 -2 -6 -10 -13 1
-6 -5 -11 -2 -6 -10 -13 1
-6 -5 -11 -3 -7 -11 -13 1
-6 -4 -11 -3 -7 -11 -13 1
-6 -4 -11 -3 -7 -11 -13 1
-5 -3 -12 -4 -8 -12 -12 2
-5 -2 -13 -5 -8 -12 -11 3
-4 -2 -14 -6 -9 -12 -11 4
-4 0 -15 -7 -9 -12 -10 5
-4 0 -15 -8 -9 -12 -10 5
-3 1 -16 -9 -10 -12 -9 6
-3 1 -16 -10 -11 -12 -9 6
-4 1 -17 -11 -12 -12 -9 7
-4 1 -17 -12 -13 -12 -9 7
-4 1 -17 -13 -13 -12 -9 7
-5 1 -18 -14 -14 -13 -9 8
-5 2 -19 -15 -14 -13 -9 8
-5 2 -19 -16 -14 -13 -8 8
-5 3 -20 -17 -14 -13 -8 8
-5 3 -20 -17 -14 -13 -8 8
-4 4 -21 -18 -15 -14 -7 9
-4 4 -21 -18 -15 -14 -7 10
-4 5 -21 -19 -16 -14 -7 10
-4 5 -21 -19 -16 -14 -7 11
-4 5 -21 -19 -16 -14 -7 11
-4 6 -22 -21 -17 -13 -6 12
-3 6 -23 -22 -17 -13 -6 12
-3 6 -23 -23 -18 -13 -6 13
-2 6 -24 -25 -18 -13 -6 13
-2 6 -24 -26 -18 -13 -6 13
0 7 -25 -27 -19 -14 -5 14
0 7 -25 -27 -19 -14 -5 14
0 7 -25 -27 -19 -14 -4 14
0 7 -25 -27 -19 -14 -4 14
0 7 -25 -27 -19 -14 -4 14
1 7 -26 -26 -20 -14 -3 15
1 8 -26 -26 -19 -13 -2 16
1 9 -26 -26 -19 -12 0 17
1 10 -26 -26 -18 -11 1 18
1 10 -26 -26 -18 -11 2 19
0 11 -25 -27 -17 -10 3 20
0 11 -25 -26 -17 -10 3 20
0 11 -25 -25 -16 -9 3 21
0 11 -25 -24 -16 -9 3 21
0 11 -25 -24 -16 -9 3 21
1 12 -24 -23 -15 -8 4 22
1 12 -23 -23 -14 -7 4 21
2 11 -22 -22 -13 -7 4 21
2 11 -21 -22 -12 -6 4 20
2 11 -21 -22 -12 -6 4 20
3 10 -20 -20 -11 -5 5 19
3 10 -19 -18 -10 -5 5 19
3 9 -18 -16 -10 -5 5 19
3 9 -17 -14 -9 -5 5 19
3 9 -16 -12 -9 -5 5 19
2 8 -14 -11 -8 -4 5 18
2 7 -13 -10 -7 -4 5 17
1 6 -12 -9 -6 -3 5 17
1 5 -10 -8 -5 -3 5 16
1 5 -9 -8 -4 -3 5 16
0 4 -8 -7 -3 -2 4 15
0 3 -7 -5 -3 -2 3 13
0 2 -6 -4 -3 -2 3 12
0 2 -5 -3 -3 -2 2 11
0 1 -4 -2 -3 -2 2 10
-2 0 -3 0 -3 0 1 9
-2 0 -2 1 -2 0 1 9
-3 0 -2 1 -2 0 1 9
-3 0 0 2 0 0 1 9
-3 0 0 2 0 0 1 9
-4 0 1 3 1 0 1 8
-4 -2 2 3 1 0 0 7
-5 -3 2 4 1 0 0 7
-5 -3 3 4 1 0 -2 6
-5 -4 3 4 1 0 -2 6
-6 -5 4 5 1 -2 -3 5
-5 -5 4 5 1 -2 -4 5
-5 -5 4 5 1 -3 -4 4
-4 -5 4 5 1 -3 -5 4
-4 -5 4 5 1 -3 -5 4
-3 -6 3 4 2 -4 -6 3
-4 -6 3 4 2 -4 -6 3
-5 -7 3 4 2 -4 -6 2
-5 -7 3 4 2 -4 -6 2
-6 -7 3 4 2 -4 -6 2
-7 -8 4 4 1 -4 -6 1
-7 -8 4 4 1 -4 -6 1
-7 -8 4 4 1 -4 -6 1
-7 -8 4 4 1 -4 -6 1
-7 -8 4 4 1 -4 -6 1
-7 -9 5 4 1 -4 -7 0
-7 -9 5 4 1 -4 -7 0
-7 -9 5 4 1 -5 -7 0
-7 -9 5 4 1 -5 -7 0
-7 -9 5 4 1 -5 -7 0
-7 -9 6 5 1 -6 -8 -2
-7 -9 6 5 1 -6 -8 -2
-7 -9 6 5 1 -7 -9 -2
-7 -9 6 5 1 -7 -9 -2
-7 -9 6 5 1 -7 -9 -2
-8 -10 6 4 1 -8 -10 -3
-8 -10 6 4 1 -8 -10 -3
-8 -10 6 4 1 -8 -10 -3
-8 -10 6 4 1 -8 -10 -3
-8 -10 6 4 1 -8 -10 -3
-8 -10 7 4 1 -8 -10 -3
-8 -10 7 4 1 -8 -10 -3
-8 -10 7 4 1 -8 -10 -3
-8 -10 7 4 1 -8 -10 -3
-8 -10 7 4 1 -8 -10 -3
-9 -11 8 3 0 -8 -11 -4
-9 -11 8 3 0 -8 -11 -4
-9 -11 8 3 0 -8 -11 -4
-9 -11 8 3 0 -8 -11 -4
-9 -11 8 3 0 -8 -11 -4
-8 -10 8 4 0 -8 -11 -5
-8 -10 8 4 0 -8 -11 -5
-8 -10 8 4 0 -8 -11 -5
-8 -10 8 4 0 -8 -11 -5
-8 -10 8 4 0 -8 -11 -5
-9 -9 8 4 0 -8 -11 -6
-9 -9 8 5 0 -8 -11 -6
-9 -9 8 5 0 -8 -11 -6
-9 -9 8 6 0 -8 -11 -6
-9 -9 8 6 0 -8 -11 -6
-8 -9 9 7 1 -7 -11 -6
-8 -9 9 7 1 -7 -11 -6
-8 -9 9 7 2 -7 -10 -5
-8 -9 9 7 2 -7 -10 -5
-8 -9 9 7 2 -7 -10 -5
-8 -8 9 7 3 -6 -9 -4
-8 -8 9 7 3 -6 -9 -4
-8 -8 9 7 3 -5 -9 -4
-8 -8 9 7 3 -5 -9 -4
-8 -8 9 7 3 -5 -9 -4
-8 -7 10 7 4 -4 -8 -4
-8 -7 10 7 4 -4 -8 -4
-7 -6 10 8 4 -4 -8 -4
-7 -6 10 8 4 -4 -8 -4
-7 -6 10 8 4 -4 -8 -4
-6 -5 9 9 5 -3 -8 -4
-6 -5 9 9 5 -3 -8 -4
-6 -5 9 9 5 -3 -7 -4
-6 -5 9 9 5 -3 -7 -4
-6 -5 9 9 5 -3 -7 -4
-7 -5 9 10 6 -3 -6 -4
-7 -5 9 10 6 -3 -6 -4
-7 -5 9 10 6 -3 -6 -4
-7 -5 9 10 6 -3 -6 -4
-7 -5 9 10 6 -3 -6 -4
-7 -5 9 9 6 -2 -5 -3
-7 -5 9 9 6 -2 -5 -3
-7 -5 9 9 6 -2 -5 -3
-7 -5 9 9 6 -2 -5 -3
-7 -5 9 9 6 -2 -5 -3
-8 -6 9 9 7 0 -4 -2
-7 -6 9 9 7 0 -4 -2
-6 -6 9 8 7 0 -4 -2
-6 -6 9 8 7 0 -4 -2
-5 -6 9 8 7 0 -4 -2
-4 -5 9 7 6 -2 -5 -2
-4 -5 9 7 6 -2 -5 -2
-4 -5 9 7 6 -2 -5 -3
-4 -5 9 7 6 -2 -5 -3
-4 -5 9 7 6 -2 -5 -3
-4 -5 8 7 6 -2 -6 -4
-5 -5 8 7 6 -2 -6 -4
-6 -5 8 7 6 -2 -6 -4
-6 -5 8 7 6 -2 -6 -4
-7 -5 8 7 6 -2 -6 -4
-8 -6 9 7 6 0 -5 -3
-8 -6 9 7 6 0 -5 -3
-7 -6 9 7 5 -2 -5 -3
-6 -6 9 7 5 -2 -5 -3
-6 -6 9 7 5 -2 -5 -3
-5 -6 8 6 4 -3 -6 -4
-5 -6 8 6 4 -3 -6 -4
-5 -6 8 5 4 -3 -6 -5
-5 -6 8 5 4 -3 -6 -5
-5 -6 8 5 4 -3 -6 -5
-5 -7 8 4 4 -3 -6 -6
-6 -7 8 4 4 -3 -6 -6
-7 -7 8 5 4 -3 -6 -6
-7 -7 8 5 4 -3 -6 -6
-8 -7 8 5 4 -3 -6 -6
-9 -7 9 6 3 -2 -6 -5
-9 -7 9 6 3 -2 -6 -5
-9 -7 9 6 3 -2 -6 -5
-9 -7 9 6 3 -2 -6 -5
-9 -7 9 6 3 -2 -6 -5
-8 -8 8 5 4 -2 -6 -5
-8 -8 8 7 4 -2 -6 -5
-8 -8 8 8 4 -2 -6 -5
-8 -8 8 10 4 -2 -6 -5
-8 -8 8 11 4 -2 -6 -5
-9 -8 8 12 4 -2 -6 -5
-9 -8 8 12 4 -2 -6 -5
-8 -7 8 12 4 -2 -6 -6
-7 -7 8 12 4 -2 -6 -6
-7 -7 8 12 4 -2 -6 -6
-6 -6 8 11 3 -3 -6 -7
-6 -6 8 11 3 -3 -6 -7
-6 -6 8 11 3 -3 -6 -7
-6 -6 8 11 3 -3 -6 -7
-6 -6 8 11 3 -3 -6 -7
-7 -7 8 11 2 -3 -6 -7
-7 -7 8 11 2 -3 -6 -7
-7 -7 9 11 2 -3 -6 -7
-7 -7 9 11 2 -3 -6 -7
-7 -7 9 11 2 -3 -6 -7
-7 -6 10 12 3 -2 -5 -6
-6 -6 10 12 4 -2 -5 -6
-5 -5 11 12 5 -2 -5 -6
-5 -5 11 12 5 -2 -5 -6
-4 -5 11 12 6 -2 -5 -6
-3 -4 12 12 7 0 -4 -6
-3 -4 12 13 7 0 -4 -6
-4 -4 13 14 7 1 -4 -5
-4 -4 13 14 7 2 -4 -4
-4 -4 13 15 7 2 -4 -4
-5 -3 14 16 8 3 -3 -3
-5 -3 14 16 8 3 -3 -3
-5 -3 15 17 8 3 -3 -3
-5 -3 15 17 8 3 -3 -3
-5 -3 15 17 8 3 -3 -3
-6 -2 16 18 9 3 -2 -3
-5 -2 16 18 9 3 -2 -3
-4 0 16 18 9 3 -2 -3
-4 0 16 18 9 3 -2 -3
-3 0 16 18 9 3 -2 -3
-2 1 17 18 10 4 -3 -4
-2 1 17 19 11 5 0 -3
0 2 18 20 12 6 1 -2
0 2 19 21 13 7 3 0
0 2 19 22 14 8 4 1
1 3 20 23 15 9 5 2
2 3 20 23 15 9 5 2
3 3 19 22 15 9 5 2
3 3 18 22 15 9 5 2
4 3 18 22 15 9 5 2
5 3 17 21 15 8 4 1
5 3 17 21 15 8 4 1
5 2 16 20 15 8 4 1
5 2 15 20 15 8 4 1
5 2 15 20 15 8 4 1
4 1 14 19 14 8 4 1
4 0 14 18 14 7 4 1
3 -2 13 17 13 6 3 0
3 -2 12 16 12 5 2 0
3 -3 12 15 12 4 2 0
2 -4 11 14 11 3 1 -2
2 -5 10 13 9 2 0 -3
2 -6 9 11 8 1 -2 -4
2 -6 8 10 6 1 -2 -4
2 -7 7 9 5 0 -3 -5
1 -8 6 8 4 -2 -4 -6
1 -8 6 8 4 -2 -4 -6
0 -7 6 8 4 -2 -5 -6
0 -7 6 8 4 -2 -5 -6
0 -7 6 8 4 -2 -5 -6
-2 -6 7 7 4 -2 -6 -7
-4 -6 7 7 4 -2 -6 -7
-5 -6 8 7 3 -2 -6 -7
-7 -6 8 7 3 -2 -6 -7
-8 -6 8 7 3 -2 -6 -7
-9 -7 9 6 2 -3 -6 -7
-9 -7 9 6 2 -3 -6 -7
-9 -7 9 6 2 -4 -7 -7
-9 -7 9 6 2 -4 -7 -7
-9 -7 9 6 2 -4 -7 -7
-8 -8 8 5 1 -5 -8 -8
-8 -8 8 5 1 -5 -8 -8
-8 -9 8 5 1 -6 -8 -8
-8 -9 8 5 1 -6 -8 -8
-8 -9 8 5 1 -6 -8 -8
-7 -10 7 4 0 -7 -8 -9
-7 -10 7 4 0 -7 -8 -9
-7 -10 7 4 0 -7 -8 -9
-7 -10 7 4 0 -7 -8 -9
-7 -10 7 4 0 -7 -8 -9
-7 -10 8 3 1 -6 -8 -9
-7 -10 8 3 1 -7 -8 -9
-6 -9 8 2 0 -8 -8 -9
-5 -8 8 2 -2 -8 -8 -9
-5 -8 8 2 -2 -9 -8 -9
-4 -7 7 1 -3 -10 -9 -10
-5 -7 7 1 -3 -10 -9 -10
-6 -7 7 1 -3 -9 -9 -10
-6 -7 7 1 -3 -9 -9 -10
-7 -7 7 1 -3 -9 -9 -10
-8 -8 8 1 -2 -8 -10 -11
-8 -8 8 1 -2 -8 -10 -11
-7 -8 8 1 -2 -8 -10 -11
-6 -8 8 1 -2 -8 -10 -11
-6 -8 8 1 -2 -8 -10 -11
-5 -7 9 2 0 -8 -9 -10
-5 -7 9 3 0 -8 -9 -10
-5 -7 9 4 1 -7 -9 -10
-5 -7 9 5 2 -7 -9 -10
-5 -7 9 6 2 -7 -9 -10
-6 -8 11 9 3 -6 -8 -9
-6 -9 14 13 5 -6 -10 -11
-7 -10 17 17 7 -7 -12 -12
-7 -10 20 21 8 -8 -13 -13
-7 -11 23 26 10 -8 -15 -15
-8 -10 29 35 18 -4 -13 -15
-8 -6 36 51 31 7 -7 -11
-8 -2 44 65 45 17 0 -8
-8 3 52 79 58 27 7 -4
-8 8 59 94 72 37 13 0
-3 15 64 110 92 57 28 10
7 26 67 129 117 85 52 25
15 37 70 147 143 112 75 40
23 48 73 165 169 140 99 56
32 59 76 184 194 167 122 72
44 70 67 172 202 187 146 90
59 82 47 133 193 202 170 110
74 95 25 93 184 217 194 131
89 106 5 53 175 232 218 151
104 118 -17 13 167 246 241 171
113 127 -40 -32 144 247 253 185
118 130 -67 -83 111 235 254 192
122 134 -93 -134 77 224 255 199
128 138 -118 -184 45 212 255 207
132 142 -145 -235 11 199 256 215
128 130 -160 -266 -31 155 225 199
114 102 -165 -279 -81 85 163 162
101 75 -172 -293 -133 13 103 126
87 48 -178 -306 -183 -59 43 89
73 20 -184 -319 -233 -130 -19 51
59 3 -175 -307 -244 -159 -51 26
45 -7 -152 -268 -220 -151 -58 12
30 -16 -129 -230 -194 -143 -65 -2
15 -25 -105 -192 -170 -135 -72 -16
1 -33 -81 -154 -144 -126 -79 -30
-7 -37 -64 -123 -121 -113 -78 -36
-8 -34 -51 -100 -100 -97 -68 -32
-9 -31 -37 -76 -78 -80 -58 -28
-10 -28 -24 -53 -58 -63 -48 -25
-11 -25 -11 -28 -36 -47 -37 -21
-12 -22 -3 -15 -24 -36 -31 -18
-11 -19 0 -11 -19 -31 -27 -16
-9 -16 2 -6 -14 -26 -23 -13
-8 -14 4 -2 -9 -21 -19 -10
-7 -11 6 3 -4 -16 -15 -8
-6 -9 8 6 0 -13 -13 -6
-6 -9 8 7 0 -13 -13 -6
-6 -9 8 8 0 -13 -13 -6
-6 -9 8 8 0 -13 -13 -6
-6 -9 8 9 0 -13 -13 -6
-5 -9 9 10 0 -13 -13 -5
-5 -9 9 10 0 -13 -13 -5
-6 -9 9 10 0 -12 -13 -5
-6 -9 9 10 0 -12 -13 -5
-6 -9 9 10 0 -12 -13 -5
-7 -10 10 9 1 -11 -13 -5
-7 -10 10 9 1 -11 -13 -5
-6 -9 11 9 0 -11 -13 -4
-5 -9 11 9 0 -11 -13 -4
-5 -9 11 9 0 -11 -13 -4
-4 -8 12 10 -2 -12 -13 -3
-4 -8 12 10 -2 -12 -13 -3
-4 -8 11 10 0 -11 -13 -3
-4 -8 11 10 1 -11 -13 -3
-4 -8 11 10 1 -11 -13 -3
-3 -9 10 9 2 -10 -13 -3
-3 -9 10 9 2 -10 -13 -3
-3 -9 10 10 1 -10 -12 -3
-3 -9 10 10 1 -10 -12 -3
-3 -9 10 10 1 -10 -12 -3
-4 -8 9 11 0 -10 -11 -2
-4 -8 9 11 1 -10 -11 -2
-4 -8 9 11 1 -10 -11 -2
-4 -8 10 12 2 -10 -10 -2
-4 -8 10 12 3 -10 -10 -2
-4 -7 11 13 4 -9 -9 0
-4 -7 11 13 4 -9 -9 0
-4 -7 11 13 4 -9 -9 0
-3 -7 10 13 3 -10 -9 0
-3 -7 10 13 3 -10 -9 0
-2 -8 9 12 2 -11 -10 -2
-2 -8 9 12 2 -11 -10 -2
-3 -8 9 12 2 -11 -10 -2
-4 -8 10 12 2 -10 -10 -2
-4 -8 10 12 2 -10 -10 -2
-5 -9 11 13 3 -9 -9 0
-5 -9 11 13 3 -9 -9 0
-5 -9 11 13 3 -9 -9 0
-5 -8 11 13 2 -9 -10 0
-5 -8 11 13 2 -9 -10 0
-5 -7 10 13 1 -10 -11 0
-5 -7 10 13 1 -10 -11 0
-4 -7 10 13 1 -10 -11 0
-3 -7 9 12 1 -10 -11 0
-3 -7 9 12 1 -10 -11 0
-2 -8 8 11 2 -10 -11 0
-2 -8 8 11 2 -10 -11 0
-2 -8 8 11 2 -10 -11 0
-2 -8 8 11 1 -10 -12 0
-2 -8 8 11 1 -10 -12 0
-3 -9 7 11 0 -11 -13 -2
-3 -9 7 11 0 -11 -13 -2
-3 -9 7 11 1 -10 -12 -2
-3 -9 7 11 2 -9 -11 0
-3 -9 7 11 2 -9 -11 0
-3 -8 8 12 3 -8 -10 1
-3 -8 8 12 3 -8 -10 1
-3 -8 8 12 3 -8 -10 1
-3 -8 8 12 2 -9 -10 1
-3 -8 8 12 2 -9 -10 1
-4 -8 7 11 1 -10 -11 2
-4 -8 7 11 1 -10 -11 2
-4 -8 7 11 2 -10 -11 2
-4 -8 7 11 3 -10 -11 2
-4 -8 7 11 3 -10 -11 2
-3 -8 7 12 4 -9 -10 1
-3 -8 7 12 4 -9 -10 1
-2 -8 7 12 3 -9 -10 1
0 -7 7 12 2 -9 -10 2
0 -7 7 12 2 -9 -10 2
1 -6 6 11 1 -10 -11 3
1 -6 6 11 1 -10 -11 3
0 -6 6 11 1 -10 -11 3
-2 -6 6 11 1 -10 -11 3
-2 -6 6 11 1 -10 -11 3
-3 -7 5 11 2 -9 -10 3
-3 -7 5 11 2 -9 -10 3
-3 -7 5 11 2 -9 -10 3
-3 -7 5 11 1 -9 -10 4
-3 -7 5 11 1 -9 -10 4
-3 -7 4 12 0 -10 -10 5
-3 -7 4 11 0 -10 -10 5
-3 -7 4 11 0 -10 -10 5
-3 -7 3 10 0 -10 -10 6
-3 -7 3 9 0 -10 -10 6
-3 -7 2 8 1 -10 -9 7
-2 -7 2 8 1 -10 -9 7
-2 -6 2 8 0 -10 -9 7
0 -5 2 8 -2 -10 -9 8
1 -5 2 8 -2 -10 -9 8
2 -4 1 8 -3 -10 -9 9
2 -4 1 7 -3 -10 -9 9
2 -4 0 6 -3 -10 -9 9
2 -4 -2 5 -3 -10 -9 9
2 -4 -2 4 -3 -10 -9 9
1 -4 -3 3 -2 -11 -9 9
1 -4 -3 3 -3 -11 -9 10
1 -4 -3 3 -3 -11 -9 11
1 -3 -4 3 -4 -11 -9 12
1 -3 -4 3 -5 -11 -9 13
2 -2 -5 2 -6 -12 -8 14
2 0 -6 0 -6 -12 -8 14
2 0 -6 -2 -6 -12 -8 14
2 1 -7 -3 -6 -12 -8 14
2 2 -8 -5 -6 -12 -8 14
3 3 -9 -6 -7 -13 -7 15
3 3 -10 -6 -8 -13 -7 15
3 3 -10 -7 -8 -13 -7 16
3 3 -11 -8 -9 -14 -7 17
3 3 -12 -8 -10 -14 -7 17
3 3 -13 -9 -11 -15 -6 18
3 3 -13 -10 -11 -15 -6 18
3 3 -13 -11 -12 -15 -5 18
4 4 -14 -12 -13 -15 -4 19
4 4 -14 -13 -13 -15 -4 19
5 5 -15 -14 -14 -14 -3 20
5 5 -15 -14 -14 -14 -3 21
5 6 -15 -15 -14 -14 -3 21
5 7 -16 -16 -15 -14 -3 22
5 7 -16 -16 -15 -14 -3 23
5 8 -17 -17 -16 -15 -3 24
5 8 -17 -17 -16 -15 -3 24
5 8 -17 -17 -16 -15 -3 24
5 9 -17 -18 -16 -15 -2 25
5 9 -17 -18 -16 -15 -2 25
4 10 -18 -19 -15 -14 0 26
4 10 -18 -20 -15 -14 0 26
5 10 -18 -20 -16 -14 0 27
6 10 -19 -21 -17 -14 1 28
6 10 -19 -22 -17 -14 1 28
7 10 -20 -23 -18 -15 2 29
7 10 -20 -23 -18 -15 2 29
7 11 -20 -23 -18 -14 3 30
7 12 -20 -23 -18 -13 4 31
7 12 -20 -23 -18 -13 4 31
8 13 -20 -23 -18 -12 5 32
8 13 -20 -23 -18 -12 5 32
9 13 -20 -22 -17 -12 6 32
10 13 -20 -21 -16 -11 7 32
10 13 -20 -21 -16 -11 7 32
11 13 -21 -20 -15 -10 8 33
11 13 -21 -20 -15 -10 8 33
11 13 -20 -19 -14 -9 8 33
11 13 -19 -18 -13 -8 8 33
11 13 -19 -18 -13 -8 8 33
11 12 -18 -17 -12 -7 8 32
11 12 -17 -15 -11 -7 8 32
11 12 -15 -14 -10 -7 8 32
11 12 -14 -12 -9 -7 8 32
11 12 -12 -10 -8 -7 8 32
10 11 -11 -9 -7 -7 9 31
10 10 -10 -8 -6 -7 9 30
10 9 -9 -7 -6 -7 9 29
10 8 -7 -5 -5 -6 9 28
10 7 -6 -4 -4 -6 9 27
10 6 -5 -3 -3 -5 8 26
10 6 -4 -2 -3 -5 8 26
10 6 -3 1 -3 -5 7 25
9 5 -2 2 -3 -5 6 24
9 5 0 4 -3 -5 6 24
8 4 1 5 -3 -4 5 23
7 4 2 5 -2 -4 5 23
6 3 2 6 0 -4 5 23
5 2 3 7 1 -4 5 23
4 2 4 7 2 -4 5 23
3 1 5 8 3 -3 5 22
3 1 5 8 3 -3 5 22
3 0 6 9 3 -3 4 21
3 -2 7 10 3 -3 3 20
3 -2 7 10 3 -3 3 20
2 -3 8 11 4 -4 2 19
2 -3 8 11 4 -4 2 19
2 -3 8 11 4 -4 2 19
2 -4 8 11 5 -4 2 19
2 -4 8 11 5 -4 2 19
1 -5 9 11 6 -4 2 18
0 -5 9 11 6 -4 2 18
0 -5 9 11 6 -4 1 18
-2 -5 9 11 5 -5 0 17
-3 -5 9 11 5 -5 0 17
-4 -6 9 11 4 -6 -2 16
-3 -6 9 11 4 -6 -2 16
-3 -6 9 11 4 -6 -2 16
-2 -6 9 11 4 -6 -2 16
0 -6 9 11 4 -6 -2 16
1 -7 9 12 4 -5 -2 16
1 -7 9 12 4 -5 -2 16
1 -7 9 12 4 -5 -2 16
0 -7 9 12 4 -6 -2 15
0 -7 9 12 4 -6 -2 15
-2 -7 10 12 3 -7 -3 14
-2 -7 10 12 3 -7 -3 14
-2 -8 10 12 3 -7 -3 14
-2 -9 10 12 3 -7 -4 13
-2 -9 10 12 3 -7 -4 13
-3 -10 9 11 2 -8 -5 12
-3 -10 9 11 2 -8 -5 12
-3 -10 9 11 2 -8 -5 12
-4 -10 9 12 2 -8 -5 13
-4 -10 9 12 2 -8 -5 13
-5 -10 10 13 2 -8 -6 14
-5 -10 10 13 2 -8 -6 14
-5 -10 10 13 2 -8 -6 14
-5 -10 11 13 3 -8 -5 14
-5 -10 11 13 3 -8 -5 14
-4 -9 12 13 4 -7 -4 13
-4 -9 12 13 4 -7 -4 13
-4 -9 12 13 4 -7 -5 13
-4 -9 12 13 3 -8 -6 13
-4 -9 12 13 3 -8 -6 13
-3 -10 11 13 2 -9 -7 13
-3 -10 11 13 2 -9 -7 13
-3 -10 11 13 3 -8 -6 13
-3 -9 12 13 4 -7 -5 14
-3 -9 12 13 4 -7 -5 14
-4 -8 13 14 5 -6 -4 15
-4 -8 13 14 5 -6 -4 15
-4 -8 13 14 5 -6 -4 15
-3 -8 13 14 5 -6 -4 15
-3 -8 13 14 5 -6 -4 15
-2 -7 13 14 4 -6 -4 15
-2 -7 13 14 4 -6 -4 15
-2 -7 13 14 4 -6 -3 15
-2 -7 13 14 5 -5 -2 15
-2 -7 13 14 5 -5 -2 15
-3 -7 13 14 6 -4 0 16
-3 -7 13 14 6 -4 0 16
-3 -7 13 14 6 -4 0 16
-2 -7 12 14 6 -4 0 17
-2 -7 12 14 6 -4 0 17
0 -7 11 15 7 -3 -2 18
0 -7 11 15 7 -3 -2 18
0 -7 11 15 7 -2 0 18
0 -7 11 15 8 -2 0 18
0 -7 11 15 8 0 1 18
-2 -6 12 16 9 1 2 19
-2 -6 12 16 9 1 2 19
-2 -6 12 16 9 1 2 19
-2 -6 12 16 9 1 2 19
-2 -6 12 16 9 1 2 19
0 -6 11 16 8 0 1 20
0 -6 11 16 8 0 1 20
0 -6 11 16 9 1 1 20
0 -6 11 16 9 1 2 20
0 -6 11 16 10 2 2 20
-2 -5 12 16 11 3 3 20
-2 -5 12 16 11 3 3 20
-2 -5 12 16 11 3 2 20
-2 -5 12 16 10 3 2 20
-2 -5 12 16 10 3 1 20
-2 -6 12 15 9 2 0 20
-2 -6 12 15 9 2 0 20
-2 -6 12 15 9 2 0 20
-2 -6 12 15 10 2 1 20
-2 -6 12 15 10 2 1 20
0 -6 12 15 11 2 2 20
0 -6 12 15 11 2 2 20
0 -6 12 15 11 2 2 20
0 -6 12 15 10 2 2 20
0 -6 12 15 10 2 2 20
0 -5 12 14 9 1 1 21
0 -5 12 14 9 1 1 21
0 -5 12 14 9 1 1 21
0 -5 12 14 9 1 1 21
0 -5 12 14 9 1 1 21
1 -6 11 14 10 1 0 20
1 -6 11 14 10 1 0 20
1 -6 11 14 10 1 0 20
1 -6 11 14 9 1 0 20
1 -6 11 14 9 1 0 20
0 -6 12 14 8 0 1 20
0 -6 12 14 8 0 1 20
0 -6 12 14 8 0 1 20
0 -6 12 14 8 0 1 20
0 -6 12 14 8 0 1 20
0 -7 11 13 8 1 2 19
0 -7 11 13 8 1 2 19
0 -7 11 13 8 1 2 19
0 -7 11 12 8 0 2 19
0 -7 11 12 8 0 2 19
1 -6 10 11 7 -2 1 19
1 -6 10 11 7 -2 1 19
1 -6 10 11 7 -2 1 19
1 -6 10 11 7 -2 1 19
1 -6 10 11 7 -2 1 19
0 -7 10 12 7 0 1 18
0 -7 10 12 7 0 1 18
0 -7 10 12 7 0 1 18
0 -7 10 12 7 0 1 18
0 -7 10 12 7 0 1 18
-2 -7 9 11 6 -2 0 18
-2 -7 9 11 6 -2 0 18
-2 -7 9 11 6 -2 0 18
-2 -7 9 11 6 -2 0 18
-2 -7 9 11 6 -2 0 18
-3 -8 9 10 7 -2 0 17
-3 -8 9 10 7 -2 0 17
-3 -8 9 10 7 -2 0 17
-3 -8 9 10 7 -2 0 17
-3 -8 9 10 7 -2 0 17
-3 -8 10 11 6 -2 0 18
-3 -8 10 11 6 -2 0 18
-3 -8 10 11 6 -2 0 17
-3 -8 10 11 6 -2 0 17
-3 -8 10 11 6 -2 0 16
-2 -9 9 10 6 -2 -2 15
-2 -9 10 10 6 -2 -2 14
-2 -8 10 11 6 -2 -2 13
-2 -8 11 11 6 -2 -2 12
-2 -7 12 12 6 -2 -2 10
-2 -6 13 13 7 0 -2 9
-2 -6 13 13 8 0 -2 7
-2 -5 13 13 8 1 0 6
-2 -5 13 13 9 1 0 4
-2 -4 13 13 10 2 1 3
0 -3 14 14 11 3 2 1
0 -3 14 14 11 3 2 1
0 -3 14 15 11 3 2 1
0 -3 14 15 11 3 2 1
0 -3 14 16 11 3 2 1
-2 -4 15 17 10 2 1 2
-2 -4 15 17 11 2 1 2
-2 -4 15 18 12 2 1 2
0 -4 16 18 13 3 2 3
0 -4 16 19 14 3 2 3
1 -4 17 20 15 4 3 4
2 -3 17 20 15 5 3 4
3 -3 17 21 16 5 4 5
4 -2 18 21 16 6 4 5
6 0 18 22 17 7 5 6
7 1 19 23 18 8 6 7
8 1 19 23 18 8 6 6
8 2 18 23 18 8 6 5
9 2 18 22 18 8 7 4
10 3 17 22 18 8 7 3
11 4 16 21 17 8 8 2
11 4 16 21 17 8 8 2
11 3 16 21 17 8 8 1
10 3 15 21 17 8 8 1
10 2 15 21 17 8 8 0
9 1 14 20 18 9 8 -2
9 0 14 20 18 9 8 -2
9 -2 13 19 17 9 8 -3
8 -3 12 19 17 8 7 -3
8 -4 11 18 16 8 7 -4
7 -5 10 17 15 7 6 -5
7 -5 10 16 14 6 5 -5
7 -5 9 14 12 5 4 -5
6 -5 9 13 11 4 3 -5
6 -5 8 12 10 2 2 -5
5 -6 7 10 8 1 1 -6
4 -6 7 10 8 1 1 -6
3 -6 7 10 8 1 1 -6
2 -6 7 10 7 1 1 -7
1 -6 7 10 7 1 1 -7
0 -7 6 9 6 0 1 -8
-2 -7 6 9 6 0 1 -8
-3 -8 6 9 6 0 0 -8
-4 -8 6 8 5 -2 0 -9
-5 -9 6 8 5 -2 -2 -9
-6 -10 7 7 4 -3 -3 -10
-6 -10 7 7 4 -3 -3 -10
-6 -10 7 7 4 -3 -3 -10
-6 -10 7 7 4 -4 -3 -10
-6 -10 7 7 4 -4 -3 -10
-5 -11 7 6 3 -5 -4 -11
-5 -11 7 6 3 -5 -4 -11
-5 -11 7 6 3 -5 -4 -11
-5 -11 7 6 2 -5 -4 -11
-5 -11 7 6 2 -5 -4 -11
-4 -10 6 5 1 -6 -4 -11
-4 -10 6 5 1 -6 -4 -11
-4 -10 6 5 1 -6 -4 -11
-4 -10 6 5 1 -6 -4 -11
-4 -10 6 5 1 -6 -4 -11
-5 -11 6 4 1 -6 -4 -11
-5 -11 6 4 1 -6 -4 -11
-5 -11 6 4 1 -6 -4 -11
-5 -11 6 4 1 -6 -4 -12
-5 -11 6 4 1 -6 -4 -12
-6 -11 5 5 1 -6 -4 -13
-6 -11 5 5 1 -6 -4 -13
-6 -11 5 5 1 -6 -4 -14
-7 -11 5 5 1 -6 -4 -14
-7 -11 5 5 1 -6 -4 -15
-8 -12 5 4 1 -6 -5 -16
-8 -12 5 4 1 -6 -5 -16
-8 -12 5 4 1 -6 -5 -16
-7 -11 6 4 1 -6 -5 -15
-7 -11 6 4 1 -6 -5 -15
-6 -10 7 4 2 -6 -5 -14
-6 -10 7 4 2 -6 -5 -14
-6 -10 7 4 2 -6 -5 -14
-6 -10 7 5 2 -6 -5 -14
-6 -10 7 5 2 -6 -5 -14
-6 -11 6 6 2 -5 -4 -13
-6 -12 8 9 2 -5 -6 -14
-6 -13 10 12 2 -6 -7 -16
-6 -14 12 15 2 -6 -9 -18
-6 -16 14 18 2 -7 -11 -19
-6 -17 17 23 4 -7 -13 -21
-7 -14 24 35 15 0 -10 -20
-9 -11 31 48 26 7 -6 -18
-10 -9 38 60 37 14 -3 -16
-11 -6 46 72 49 20 1 -15
-12 -2 52 86 62 30 7 -11
-5 9 57 104 86 54 27 3
2 18 61 122 110 78 47 15
9 27 66 140 134 102 67 28
16 37 70 158 158 127 88 40
24 48 72 171 178 149 108 55
37 61 60 150 183 171 135 76
51 73 47 130 187 191 161 98
64 87 34 109 192 212 188 118
77 100 22 89 196 232 214 140
90 112 7 62 196 250 238 159
101 120 -20 12 169 247 250 173
111 130 -46 -38 142 246 261 185
122 138 -71 -89 114 244 273 198
133 147 -98 -139 88 242 284 212
140 150 -121 -186 55 228 284 218
128 127 -136 -216 -4 158 228 184
115 103 -149 -246 -63 88 172 150
103 78 -163 -277 -121 18 114 116
91 55 -177 -307 -180 -52 58 82
77 32 -186 -327 -229 -111 8 50
62 17 -169 -297 -224 -121 -14 26
47 3 -150 -267 -219 -133 -34 3
31 -13 -132 -236 -214 -143 -56 -21
16 -27 -113 -205 -208 -153 -76 -44
3 -40 -96 -175 -198 -159 -94 -64
0 -38 -79 -146 -165 -137 -82 -64
-5 -37 -62 -116 -133 -114 -71 -63
-8 -35 -46 -87 -101 -92 -61 -62
-12 -33 -29 -57 -68 -69 -50 -61
-15 -31 -15 -30 -39 -49 -40 -60
-14 -27 -11 -23 -31 -41 -34 -57
-12 -23 -8 -16 -24 -34 -29 -54
-11 -19 -4 -9 -16 -27 -24 -52
-10 -16 0 -2 -8 -20 -19 -49
-8 -12 4 6 0 -14 -14 -46
-8 -12 4 6 0 -14 -14 -47
-8 -12 4 6 0 -14 -14 -48
-7 -12 4 6 -2 -13 -13 -49
-7 -12 4 6 -2 -13 -13 -50
-6 -11 4 6 -3 -12 -12 -51
-6 -11 4 6 -3 -12 -12 -51
-6 -11 4 7 -2 -12 -12 -52
-6 -11 4 8 0 -12 -12 -52
-6 -11 4 9 1 -12 -12 -53
-5 -10 5 10 2 -13 -13 -54
-5 -10 5 10 2 -13 -13 -53
-6 -10 5 10 2 -12 -13 -52
-7 -10 6 10 2 -11 -12 -51
-8 -10 6 10 2 -10 -12 -50
-9 -10 7 11 1 -9 -11 -49
-9 -10 7 11 1 -9 -11 -49
-8 -10 7 11 1 -9 -11 -49
-8 -10 7 11 1 -9 -12 -49
-7 -10 7 11 1 -9 -12 -49
-6 -10 6 10 2 -10 -13 -49
-6 -10 6 10 2 -10 -13 -49
-6 -10 6 10 2 -10 -12 -49
-5 -10 6 10 2 -10 -12 -48
-5 -10 6 10 2 -10 -11 -48
-4 -10 6 10 1 -9 -10 -47
-4 -10 6 10 1 -9 -10 -47
-4 -10 6 10 1 -9 -10 -47
-5 -10 6 10 1 -9 -10 -47
-5 -10 6 10 1 -9 -10 -47
-6 -11 6 11 1 -10 -11 -47
-6 -11 6 11 1 -10 -11 -47
-5 -10 6 11 1 -10 -11 -47
-4 -9 6 11 1 -10 -11 -47
-3 -8 6 11 1 -10 -11 -47
-2 -7 5 10 0 -10 -10 -47
-2 -7 5 10 0 -10 -10 -47
-3 -8 5 10 1 -9 -10 -47
-3 -8 5 10 1 -9 -10 -46
-4 -9 5 10 2 -8 -10 -46
-5 -10 6 11 3 -7 -11 -45
-5 -10 6 11 3 -7 -11 -45
-5 -10 6 11 3 -7 -11 -44
-5 -10 6 11 3 -7 -10 -44
-5 -10 6 11 3 -7 -10 -43
-4 -9 7 11 2 -8 -9 -41
-4 -9 7 11 2 -8 -9 -41
-4 -9 6 11 2 -8 -9 -41
-4 -9 6 10 2 -9 -10 -43
-4 -9 5 10 2 -9 -10 -43
-4 -9 4 9 1 -10 -11 -44
-4 -9 4 9 1 -10 -11 -44
-4 -9 4 9 1 -10 -11 -44
-4 -9 4 9 0 -10 -11 -44
-4 -9 4 9 0 -10 -11 -44
-3 -8 3 10 -2 -9 -10 -43
-3 -8 3 10 -2 -9 -10 -43
-3 -8 3 11 0 -9 -10 -43
-3 -7 3 12 1 -10 -11 -43
-3 -7 3 13 2 -10 -11 -43
-2 -6 3 14 3 -11 -12 -43
-2 -6 3 14 3 -11 -12 -43
-2 -6 3 14 3 -11 -12 -43
-2 -6 3 14 3 -10 -12 -41
-2 -6 3 14 3 -10 -12 -41
0 -6 2 14 2 -9 -11 -40
0 -6 2 14 2 -9 -11 -40
0 -6 2 14 2 -9 -11 -40
0 -6 2 14 2 -9 -11 -39
0 -6 2 14 2 -9 -11 -39
-2 -5 2 15 2 -9 -10 -38
-2 -5 2 15 2 -9 -10 -38
-2 -5 2 15 2 -9 -10 -38
-2 -5 2 14 2 -9 -10 -38
-2 -5 2 14 2 -9 -10 -38
0 -5 2 13 1 -10 -10 -38
0 -5 2 13 1 -10 -10 -38
0 -5 2 13 1 -10 -10 -37
0 -5 2 13 1 -10 -10 -37
0 -5 2 13 1 -10 -10 -36
0 -4 2 14 2 -10 -11 -35
0 -4 2 14 2 -10 -11 -35
0 -4 2 14 1 -10 -11 -35
0 -4 1 13 0 -10 -11 -34
0 -4 1 13 -2 -10 -11 -34
0 -5 0 12 -3 -11 -11 -33
0 -5 0 12 -3 -11 -11 -33
0 -5 0 12 -3 -11 -11 -33
0 -5 0 12 -2 -11 -11 -32
0 -5 0 12 -2 -11 -11 -32
-2 -4 -2 11 0 -11 -10 -31
-2 -4 -2 11 0 -11 -10 -31
-2 -4 -3 10 -2 -11 -10 -31
-2 -3 -3 10 -2 -10 -10 -30
-2 -3 -4 9 -3 -10 -10 -30
-2 -2 -5 8 -4 -9 -9 -29
-2 -2 -5 8 -4 -9 -9 -29
-2 -2 -6 7 -4 -10 -9 -29
0 -2 -6 7 -4 -10 -10 -29
0 -2 -7 6 -4 -11 -10 -29
1 -2 -8 5 -4 -12 -11 -28
1 -2 -8 5 -4 -12 -11 -28
1 0 -8 4 -5 -12 -11 -27
1 0 -8 4 -5 -12 -10 -27
1 1 -8 3 -6 -12 -10 -26
2 2 -9 2 -7 -12 -9 -25
2 2 -10 1 -7 -12 -9 -25
2 2 -11 0 -8 -12 -9 -24
2 2 -12 -2 -8 -13 -9 -24
2 2 -13 -3 -9 -13 -9 -23
2 2 -14 -5 -10 -14 -9 -22
2 3 -15 -6 -10 -14 -9 -22
3 4 -16 -7 -10 -14 -8 -21
3 5 -17 -8 -11 -14 -7 -21
4 6 -18 -9 -11 -14 -6 -20
5 7 -19 -10 -12 -13 -5 -19
5 7 -19 -10 -12 -13 -5 -19
5 7 -19 -11 -12 -13 -5 -18
4 7 -19 -12 -13 -14 -4 -17
4 7 -19 -13 -13 -14 -4 -16
3 7 -19 -14 -14 -15 -3 -15
3 7 -20 -15 -15 -15 -3 -15
3 8 -21 -16 -16 -15 -3 -15
3 8 -22 -17 -17 -15 -3 -15
3 9 -23 -18 -18 -15 -3 -15
4 10 -25 -20 -20 -16 -3 -14
4 10 -25 -20 -20 -16 -3 -14
4 10 -25 -21 -20 -16 -3 -13
4 10 -25 -22 -20 -16 -3 -12
4 10 -25 -23 -20 -16 -3 -11
4 11 -26 -24 -20 -17 -3 -10
4 11 -26 -24 -20 -17 -3 -10
4 11 -26 -24 -20 -17 -2 -9
5 12 -26 -25 -21 -16 0 -8
5 12 -26 -25 -21 -16 1 -7
6 13 -26 -26 -22 -15 2 -6
6 13 -26 -26 -22 -15 2 -6
6 13 -26 -27 -22 -15 2 -6
6 13 -27 -27 -22 -15 2 -6
6 13 -27 -28 -22 -15 2 -6
5 14 -28 -29 -22 -16 1 -7
5 14 -28 -29 -22 -16 1 -7
6 14 -28 -28 -22 -16 1 -6
6 14 -28 -28 -22 -16 1 -6
7 14 -28 -27 -22 -16 1 -5
8 15 -28 -26 -22 -16 2 -4
8 15 -28 -26 -22 -16 2 -4
8 15 -28 -25 -21 -16 2 -4
8 14 -27 -25 -20 -15 2 -3
8 14 -27 -24 -19 -15 2 -3
9 13 -26 -23 -18 -14 3 -2
9 13 -25 -22 -18 -14 3 -2
9 13 -24 -20 -17 -13 4 -2
9 13 -23 -18 -17 -12 4 -2
9 13 -22 -16 -16 -11 5 -2
9 14 -21 -14 -15 -10 6 0
9 13 -20 -13 -14 -10 6 0
9 12 -18 -12 -12 -9 6 -2
9 11 -17 -11 -11 -9 5 -2
9 10 -15 -10 -9 -8 5 -3
8 9 -13 -8 -7 -7 4 -4
8 9 -12 -6 -7 -7 4 -4
7 8 -11 -4 -6 -7 4 -4
6 7 -10 -2 -5 -7 4 -5
5 6 -9 1 -4 -7 4 -5
4 5 -7 3 -3 -6 4 -6
4 5 -6 4 -3 -6 4 -7
4 4 -5 5 -2 -6 3 -8
3 3 -4 6 0 -6 2 -9
3 2 -3 7 1 -6 1 -10
2 1 -2 8 2 -5 0 -11
2 1 -2 8 2 -5 0 -11
2 0 -2 9 2 -5 0 -11
1 0 -2 9 2 -5 -2 -12
1 -2 -2 10 2 -5 -2 -12
0 -3 0 11 3 -6 -3 -13
0 -3 0 11 3 -6 -3 -13
0 -3 1 11 3 -6 -3 -13
0 -3 2 11 3 -6 -4 -13
0 -3 3 11 3 -6 -4 -13
-2 -4 4 12 3 -7 -5 -13
-2 -4 4 12 3 -7 -5 -13
-2 -4 4 12 3 -7 -5 -13
-2 -5 4 13 3 -7 -5 -13
-2 -5 4 13 3 -7 -5 -13
-3 -6 5 14 3 -6 -5 -13
-3 -6 5 14 3 -6 -5 -13
-3 -6 5 14 3 -6 -5 -13
-3 -6 5 14 3 -6 -5 -14
-3 -6 5 14 3 -6 -5 -14
-4 -7 5 15 3 -7 -6 -15
-4 -7 5 15 3 -7 -6 -15
-4 -7 5 15 3 -8 -7 -15
-4 -7 5 14 2 -8 -7 -15
-4 -7 5 14 2 -9 -8 -15
-3 -7 6 13 1 -10 -9 -16
-3 -7 6 13 1 -10 -9 -16
-3 -7 6 13 1 -10 -9 -16
-3 -7 6 13 1 -10 -9 -16
-3 -7 6 13 1 -10 -9 -16
-4 -7 6 14 2 -9 -10 -15
-4 -7 6 14 2 -9 -10 -15
-4 -7 6 14 2 -9 -10 -15
-4 -7 6 14 1 -9 -10 -15
-4 -7 6 14 1 -9 -10 -15
-3 -8 7 13 0 -10 -11 -16
-3 -8 7 13 0 -10 -11 -16
-3 -8 7 13 0 -10 -11 -16
-4 -7 7 13 1 -10 -11 -16
-4 -7 7 13 1 -10 -11 -16
-4 -7 7 13 1 -10 -11 -16
-5 -6 8 14 2 -10 -12 -16
-5 -6 8 14 2 -10 -11 -16
-5 -6 8 14 2 -9 -11 -15
-5 -6 8 14 2 -9 -10 -15
-5 -6 8 14 2 -9 -10 -15
-4 -7 8 15 3 -8 -9 -14
-4 -7 8 15 3 -8 -9 -14
-4 -7 8 15 3 -7 -9 -14
-4 -7 8 15 3 -7 -9 -14
-4 -7 8 15 3 -7 -9 -14
-5 -8 9 15 3 -6 -9 -13
-5 -7 9 15 3 -6 -9 -13
-5 -6 9 15 3 -7 -8 -13
-5 -5 9 15 3 -7 -8 -13
-5 -5 9 15 3 -7 -8 -13
-4 -4 8 16 4 -8 -7 -12
-4 -4 8 16 4 -8 -7 -12
-4 -4 8 16 4 -8 -7 -12
-4 -4 8 16 4 -8 -7 -12
-4 -4 8 16 4 -8 -7 -12
-3 -5 9 15 4 -7 -7 -12
-3 -5 9 15 4 -6 -6 -12
-3 -5 9 15 5 -5 -6 -11
-3 -5 9 15 5 -4 -5 -11
-3 -5 9 15 5 -4 -5 -11
-4 -4 8 16 6 -3 -4 -10
-3 -4 8 16 6 -3 -4 -10
-3 -4 8 16 6 -3 -4 -10
-2 -4 8 16 6 -3 -4 -10
-2 -4 8 16 6 -3 -4 -10
0 -3 8 16 7 -4 -5 -9
0 -3 8 16 7 -4 -5 -9
-2 -3 8 16 7 -4 -5 -9
-2 -3 8 16 7 -4 -5 -9
-2 -3 8 16 7 -4 -5 -9
-3 -2 8 15 7 -4 -4 -9
-3 -2 8 15 7 -4 -4 -9
-3 -3 9 15 7 -4 -4 -9
-3 -3 9 15 7 -4 -4 -9
-3 -3 9 15 7 -4 -4 -9
-4 -4 10 16 8 -3 -4 -8
-4 -4 10 16 8 -3 -4 -8
-4 -3 10 16 8 -3 -4 -8
-4 -3 10 16 8 -3 -4 -8
-4 -3 10 16 8 -3 -4 -8
-4 -2 9 15 8 -3 -3 -7
-4 -2 9 15 8 -3 -3 -7
-4 -2 9 15 8 -3 -4 -7
-4 -2 9 15 8 -3 -4 -7
-4 -2 9 15 8 -3 -4 -7
-4 -2 8 14 7 -4 -5 -7
-4 -2 8 14 7 -4 -5 -7
-3 -2 8 14 7 -4 -4 -6
-3 -2 8 14 7 -4 -4 -6
-3 -2 8 14 7 -4 -4 -6
-2 0 8 14 7 -4 -3 -5
-2 -2 8 14 7 -4 -4 -6
-2 -2 8 14 7 -4 -4 -6
-2 -3 8 14 7 -4 -5 -7
-2 -3 8 14 7 -4 -5 -7
-2 -4 7 13 6 -5 -6 -8
-2 -4 7 13 6 -5 -5 -8
-3 -4 7 13 6 -4 -5 -7
-3 -4 7 13 6 -4 -4 -7
-3 -4 7 13 6 -4 -4 -7
-4 -3 6 12 6 -3 -3 -6
-4 -3 6 12 6 -3 -3 -6
-4 -3 6 12 6 -3 -3 -6
-4 -3 6 12 6 -3 -3 -6
-4 -3 6 12 6 -3 -3 -6
-4 -2 7 12 7 -4 -3 -7
-3 -2 7 12 6 -4 -3 -7
-3 -2 7 11 6 -4 -4 -7
-2 -2 7 11 5 -4 -4 -7
-2 -2 7 11 5 -4 -4 -7
0 0 7 10 4 -4 -5 -8
0 0 7 10 4 -4 -5 -8
1 0 7 10 4 -5 -6 -8
1 0 7 10 4 -5 -6 -8
1 0 7 10 4 -5 -6 -8
2 -2 6 9 4 -6 -7 -9
2 -2 6 9 4 -6 -7 -9
1 -2 6 9 4 -5 -6 -8
1 -2 6 9 4 -5 -6 -8
1 -2 6 9 4 -5 -6 -8
0 -2 6 10 3 -4 -5 -7
-2 -2 6 10 3 -4 -5 -7
-2 -2 6 10 3 -5 -6 -7
-3 -2 6 10 3 -5 -6 -7
-3 -2 6 10 3 -5 -6 -7
-4 0 7 10 3 -6 -7 -8
-4 0 7 10 3 -6 -7 -8
-4 0 7 10 3 -6 -7 -7
-4 0 7 10 3 -6 -7 -7
-4 0 7 10 3 -6 -7 -7
-3 -2 7 10 4 -6 -6 -6
-3 -2 7 10 4 -6 -6 -6
-3 -3 6 9 3 -7 -6 -7
-3 -3 6 9 3 -7 -6 -7
-3 -3 6 9 3 -7 -6 -7
-3 -4 5 8 2 -8 -7 -8
-2 -3 6 8 2 -7 -6 -8
-2 -2 7 9 3 -7 -6 -7
0 0 8 9 3 -6 -5 -7
0 0 8 9 3 -6 -5 -7
1 1 9 10 4 -5 -4 -6
1 2 9 10 5 -5 -4 -6
1 2 9 11 5 -5 -4 -6
1 3 9 11 6 -5 -4 -6
1 3 9 11 6 -5 -4 -6
0 4 10 12 7 -4 -5 -6
0 4 10 12 7 -4 -5 -6
0 4 11 12 7 -4 -4 -5
0 4 11 12 7 -4 -4 -5
0 4 11 12 7 -4 -4 -5
1 3 12 13 8 -3 -3 -4
1 3 12 14 8 -3 -3 -4
1 3 12 15 8 -3 -3 -4
1 3 12 16 8 -3 -3 -4
1 3 12 16 8 -3 -3 -4
1 3 13 17 9 -3 -3 -4
3 4 13 18 9 -2 -2 -3
4 5 13 18 10 0 0 -3
6 6 13 19 10 1 1 -2
7 6 13 19 10 1 2 -2
8 7 13 20 11 2 3 0
8 7 13 20 11 2 3 0
8 7 13 20 11 2 3 0
8 7 13 20 11 2 3 0
8 7 13 20 11 2 3 0
7 6 13 19 12 3 4 1
7 6 12 19 12 3 4 1
6 5 11 18 12 3 4 1
6 5 10 18 12 3 4 1
6 5 9 18 12 3 4 1
5 4 8 17 11 4 5 1
5 3 8 16 11 3 4 1
5 3 8 16 10 3 3 0
5 2 8 15 10 2 2 0
5 2 8 15 10 2 1 0
5 1 7 13 8 0 0 -2
4 1 6 12 7 -2 -2 -3
4 0 5 11 6 -3 -2 -3
3 0 4 10 5 -4 -3 -4
3 0 4 9 4 -5 -3 -4
2 -2 3 8 3 -6 -4 -5
2 -2 3 8 3 -6 -4 -5
2 -2 3 8 3 -6 -5 -5
2 -2 3 8 3 -6 -5 -5
2 -2 3 8 3 -6 -5 -5
1 -3 3 7 2 -7 -6 -5
0 -3 3 7 2 -8 -7 -6
-2 -4 3 7 1 -9 -7 -6
-3 -4 3 7 1 -10 -8 -7
-4 -4 3 7 1 -10 -8 -7
-5 -5 4 6 0 -11 -9 -8
-5 -5 4 6 0 -11 -9 -8
-6 -5 4 6 0 -11 -9 -8
-6 -5 4 6 0 -11 -9 -8
-6 -5 4 6 0 -11 -9 -8
-7 -5 3 5 -2 -11 -10 -8
-6 -5 3 5 -2 -11 -10 -8
-5 -5 3 4 -3 -12 -10 -8
-4 -5 3 4 -3 -12 -10 -8
-3 -5 3 4 -3 -12 -10 -8
-3 -4 4 3 -4 -13 -11 -9
-4 -4 4 3 -4 -13 -11 -9
-6 -5 4 3 -4 -13 -11 -8
-7 -5 4 3 -4 -13 -11 -8
-8 -5 4 3 -4 -13 -11 -8
-9 -6 5 3 -3 -12 -12 -7
-8 -6 5 3 -3 -12 -12 -7
-7 -5 5 3 -4 -12 -12 -7
-6 -5 5 3 -4 -12 -12 -7
-5 -5 5 3 -4 -12 -12 -7
-4 -4 4 3 -5 -12 -11 -7
-4 -4 4 3 -5 -12 -11 -7
-4 -4 4 3 -5 -13 -11 -7
-4 -4 4 3 -5 -13 -11 -7
-4 -4 4 3 -5 -13 -11 -7
-3 -3 5 2 -5 -14 -12 -8
-3 -3 5 2 -5 -14 -11 -8
-3 -2 6 3 -4 -13 -11 -7
-3 -2 6 3 -4 -13 -10 -7
-3 -2 6 3 -4 -13 -10 -7
-2 0 7 4 -3 -12 -9 -6
-2 0 7 4 -3 -12 -9 -6
-2 -2 7 4 -3 -12 -9 -7
-2 -2 7 4 -3 -12 -9 -7
-2 -2 7 4 -3 -12 -9 -7
-2 -3 7 5 -3 -11 -9 -8
-2 -3 9 7 -3 -11 -10 -9
-3 -4 11 9 -2 -12 -11 -10
-3 -4 12 10 -2 -12 -12 -11
-3 -4 14 12 -2 -12 -12 -11
-5 -4 20 23 8 -9 -12 -12
-6 -3 27 35 17 -4 -11 -12
-7 -2 33 49 27 2 -10 -12
-8 0 40 61 36 7 -8 -12
-9 1 47 73 47 13 -7 -12
-5 9 52 90 67 32 10 -4
2 18 56 106 90 55 28 8
8 27 60 122 111 77 47 20
14 36 65 140 134 100 65 31
20 46 69 156 156 122 84 44
32 58 63 153 168 145 109 62
46 72 54 146 176 169 137 82
58 86 44 138 185 191 163 104
71 99 34 130 193 215 191 125
84 112 25 122 202 238 218 145
94 122 4 76 185 244 237 162
104 133 -21 23 161 248 256 180
114 143 -45 -30 138 253 273 196
123 152 -69 -83 114 256 292 214
134 162 -93 -137 91 260 309 231
128 148 -111 -177 36 204 268 211
117 128 -129 -214 -23 136 214 182
107 107 -145 -251 -82 67 159 153
97 87 -162 -286 -143 -2 104 125
86 66 -180 -323 -202 -70 50 97
71 48 -171 -310 -214 -97 17 70
56 30 -155 -283 -215 -115 -12 44
40 12 -140 -257 -216 -134 -40 18
25 -6 -124 -231 -217 -151 -69 -8
10 -23 -109 -204 -217 -170 -98 -34
4 -27 -93 -175 -192 -156 -96 -39
0 -26 -75 -143 -159 -134 -86 -40
-5 -25 -59 -111 -127 -112 -75 -40
-9 -24 -41 -80 -94 -90 -65 -41
-13 -24 -25 -49 -61 -68 -54 -41
-13 -20 -18 -36 -48 -57 -47 -39
-11 -17 -14 -27 -38 -49 -40 -34
-8 -13 -9 -19 -29 -40 -34 -29
-6 -9 -5 -10 -19 -32 -27 -24
-4 -5 1 -2 -10 -24 -21 -19
-3 -4 2 1 -8 -22 -19 -18
-2 -4 2 2 -8 -21 -19 -18
-2 -3 2 2 -8 -20 -18 -18
0 -3 2 3 -8 -19 -18 -18
0 -3 2 3 -8 -19 -18 -18
1 -2 2 4 -7 -18 -17 -17
0 -2 3 5 -5 -17 -17 -17
0 -3 4 6 -4 -17 -17 -16
-2 -3 5 7 -3 -16 -17 -16
-2 -3 6 7 -2 -16 -17 -16
-3 -4 7 8 0 -15 -16 -15
-3 -4 6 8 -2 -15 -16 -15
-2 -3 6 8 -2 -16 -16 -15
-2 -3 5 8 -3 -16 -16 -15
-2 -3 5 8 -3 -16 -16 -15
0 -2 4 7 -4 -17 -16 -16
0 -2 4 7 -4 -16 -16 -16
0 -2 5 8 -4 -16 -16 -16
0 -2 5 8 -4 -15 -16 -16
0 -2 5 8 -4 -15 -16 -16
1 0 6 9 -3 -14 -16 -16
1 0 6 9 -3 -14 -16 -16
1 0 6 9 -3 -14 -15 -16
1 0 6 9 -3 -14 -15 -16
1 0 6 9 -3 -14 -15 -16
1 1 6 8 -4 -14 -14 -15
1 1 6 9 -3 -13 -14 -15
1 1 7 9 -2 -12 -13 -15
1 1 7 10 0 -11 -13 -15
1 1 7 10 0 -11 -13 -15
0 0 8 11 1 -10 -12 -14
1 0 8 11 0 -10 -12 -14
1 0 7 10 0 -11 -12 -14
2 0 7 10 -2 -11 -12 -14
2 0 7 10 -2 -11 -12 -14
3 1 6 9 -3 -12 -13 -15
3 1 6 9 -3 -12 -13 -15
3 1 6 9 -3 -12 -13 -15
3 1 6 9 -3 -12 -13 -15
3 1 6 9 -3 -12 -13 -15
4 1 6 9 -2 -12 -14 -16
4 1 6 9 -2 -12 -13 -16
4 2 6 10 -2 -11 -13 -15
4 2 6 10 -2 -11 -12 -15
4 2 6 10 -2 -11 -12 -15
3 3 6 11 -2 -10 -11 -14
3 3 6 11 -2 -10 -11 -14
3 3 7 11 -2 -10 -12 -15
3 3 7 11 -2 -10 -12 -15
3 3 7 11 -2 -10 -12 -15
4 2 8 11 0 -11 -13 -16
4 2 8 11 0 -11 -13 -16
4 3 7 10 0 -11 -13 -16
4 3 7 10 0 -11 -13 -16
4 3 7 10 0 -11 -13 -16
5 4 6 9 -2 -11 -12 -15
5 4 6 9 -2 -11 -12 -15
5 4 6 9 -2 -11 -12 -15
5 4 6 9 -2 -11 -12 -15
5 4 6 9 -2 -11 -12 -15
5 5 7 10 -2 -10 -13 -15
5 5 6 10 -2 -10 -13 -15
5 5 6 10 -2 -10 -13 -15
5 5 5 10 -2 -10 -13 -15
5 5 5 10 -2 -10 -13 -15
6 5 4 9 -2 -11 -12 -14
6 5 4 9 -2 -11 -12 -14
7 5 4 9 0 -11 -13 -14
7 5 4 9 0 -11 -13 -14
7 5 4 9 0 -11 -13 -14
8 5 5 9 1 -11 -14 -14
8 5 5 9 1 -11 -14 -13
8 5 4 8 1 -11 -13 -13
8 5 4 8 1 -11 -13 -12
8 5 4 8 1 -11 -13 -12
7 6 3 7 0 -10 -12 -11
7 6 3 7 0 -10 -12 -11
7 6 3 7 0 -10 -12 -11
7 6 3 7 0 -10 -12 -11
7 6 3 7 0 -10 -12 -11
6 6 4 8 1 -10 -12 -12
7 6 3 8 1 -10 -12 -12
7 7 3 7 0 -10 -12 -12
8 7 2 7 0 -10 -12 -12
8 7 2 7 0 -10 -12 -12
9 8 1 6 -2 -11 -13 -11
9 8 1 6 -2 -11 -13 -11
9 9 1 6 0 -10 -12 -11
9 9 1 6 0 -10 -12 -11
9 9 1 6 0 -10 -12 -11
8 10 1 6 1 -9 -11 -10
8 10 0 5 0 -9 -11 -9
9 11 -2 4 -2 -10 -11 -9
9 11 -2 3 -2 -10 -11 -8
9 11 -3 2 -3 -10 -11 -8
10 12 -4 1 -4 -11 -11 -7
12 13 -4 1 -4 -11 -11 -7
13 13 -4 1 -4 -10 -10 -7
14 14 -4 1 -4 -10 -10 -7
15 14 -4 1 -4 -10 -10 -7
16 15 -4 1 -3 -9 -9 -7
16 16 -5 0 -4 -9 -9 -6
16 17 -6 -2 -4 -9 -8 -5
16 17 -6 -2 -5 -9 -8 -5
16 18 -7 -3 -5 -9 -8 -4
16 19 -8 -4 -6 -10 -7 -3
16 20 -8 -4 -6 -10 -6 -3
17 20 -8 -4 -6 -9 -5 -2
17 21 -8 -4 -6 -9 -5 -2
17 21 -8 -4 -6 -9 -4 -2
18 22 -7 -6 -6 -8 -2 0
19 23 -9 -8 -8 -9 2 1
20 24 -10 -9 -9 -9 5 2
21 25 -11 -11 -10 -10 7 2
22 26 -12 -13 -11 -10 10 3
23 27 -13 -14 -12 -11 11 4
23 28 -14 -14 -12 -11 12 4
24 28 -14 -15 -12 -11 12 5
24 29 -15 -15 -12 -11 13 5
24 29 -15 -15 -12 -11 13 5
25 30 -16 -16 -12 -10 14 6
25 31 -16 -18 -13 -10 15 7
26 32 -17 -19 -13 -10 15 8
26 32 -17 -21 -14 -10 16 9
26 33 -17 -22 -14 -10 16 10
27 34 -18 -23 -15 -11 17 11
27 34 -18 -24 -16 -11 17 11
27 34 -19 -24 -16 -11 17 11
27 34 -19 -25 -17 -11 17 11
27 34 -19 -25 -17 -11 17 11
26 33 -20 -26 -18 -11 17 12
24 33 -20 -27 -19 -11 17 13
23 33 -21 -28 -19 -11 17 14
21 33 -21 -29 -20 -11 17 14
20 33 -21 -30 -20 -11 17 15
19 32 -22 -31 -21 -10 18 16
20 32 -22 -31 -21 -10 18 16
20 31 -23 -32 -21 -11 18 16
21 31 -23 -32 -21 -11 18 16
21 31 -23 -32 -21 -11 18 16
22 30 -24 -33 -22 -12 19 15
22 30 -24 -33 -22 -12 19 15
22 30 -25 -34 -23 -12 19 15
22 30 -25 -34 -23 -12 19 15
22 30 -25 -34 -23 -12 19 15
21 29 -26 -35 -24 -13 19 16
20 28 -26 -34 -23 -12 19 16
19 28 -25 -33 -22 -11 19 16
18 27 -25 -32 -21 -10 19 16
17 27 -25 -31 -20 -9 19 16
16 26 -24 -30 -19 -8 19 17
16 25 -23 -28 -18 -8 19 17
16 25 -23 -27 -18 -8 20 16
16 24 -22 -26 -17 -8 20 16
16 24 -22 -25 -17 -8 20 16
16 23 -20 -23 -16 -7 21 15
16 21 -19 -22 -14 -7 20 14
16 20 -17 -20 -13 -6 20 14
16 19 -16 -19 -12 -6 19 13
16 18 -14 -17 -11 -6 19 13
16 17 -13 -15 -10 -5 18 12
14 16 -11 -14 -9 -5 18 11
13 16 -10 -12 -8 -4 17 10
12 15 -8 -11 -8 -4 17 10
11 15 -7 -9 -7 -4 17 9
10 14 -6 -8 -6 -3 16 8
10 12 -4 -6 -5 -3 15 7
10 11 -3 -5 -5 -3 14 6
10 9 -2 -4 -4 -3 13 5
10 8 0 -3 -4 -3 12 4
9 7 1 -2 -3 -4 11 3
8 6 2 0 -3 -4 11 3
7 5 2 1 -3 -4 10 2
6 5 3 1 -3 -4 10 2
5 4 3 2 -3 -4 10 2
4 3 4 3 -2 -4 9 1
3 3 4 4 0 -4 9 1
2 3 5 5 1 -3 8 0
2 3 5 5 1 -3 8 0
1 3 5 6 2 -3 8 0
0 2 6 7 3 -2 7 -2
0 2 6 7 3 -2 7 -2
0 1 6 7 3 -3 6 -3
0 1 6 7 3 -4 6 -3
0 1 6 7 3 -4 6 -3
1 0 6 6 2 -5 5 -4
1 0 6 6 2 -5 5 -4
1 -2 7 7 2 -5 4 -4
1 -2 8 8 2 -5 4 -4
1 -2 8 8 2 -5 4 -4
0 -3 9 9 3 -5 3 -5
0 -3 9 9 3 -5 3 -5
-2 -4 9 9 3 -5 2 -5
-2 -4 9 9 3 -5 2 -5
-2 -4 9 9 3 -5 2 -5
-3 -5 8 8 2 -6 1 -6
-3 -5 8 8 2 -6 1 -6
-3 -5 9 9 2 -6 1 -6
-3 -5 9 9 2 -6 1 -6
-3 -5 9 9 2 -6 1 -6
-4 -5 10 10 3 -7 0 -7
-4 -5 10 10 2 -7 0 -7
-4 -5 10 10 1 -7 0 -7
-4 -5 10 10 1 -7 0 -7
-4 -5 10 10 0 -7 0 -7
-5 -6 10 9 -2 -8 -2 -8
-5 -6 10 9 0 -8 -2 -8
-6 -7 10 10 1 -8 -2 -8
-6 -7 10 10 1 -8 -2 -8
-6 -7 10 10 2 -8 -2 -8
-7 -8 11 11 3 -7 -3 -7
-7 -8 11 11 3 -7 -3 -7
-7 -8 11 11 3 -7 -3 -7
-7 -8 11 11 3 -7 -3 -7
-7 -8 11 11 3 -7 -3 -7
-6 -8 10 10 2 -8 -2 -7
-6 -8 10 10 2 -8 -2 -7
-6 -8 10 10 2 -7 -2 -8
-6 -8 10 10 2 -7 -2 -8
-6 -8 10 10 2 -7 -2 -8
-7 -8 11 10 2 -6 -3 -9
-7 -8 11 10 2 -6 -3 -9
-7 -8 10 10 2 -6 -3 -8
-7 -8 10 10 2 -6 -3 -8
-7 -8 10 10 2 -6 -3 -8
-8 -9 9 9 3 -5 -2 -7
-8 -9 9 9 3 -5 -2 -7
-8 -8 10 10 4 -4 0 -6
-8 -8 10 11 4 -4 0 -6
-8 -8 10 11 4 -4 0 -6
-7 -7 11 12 5 -3 1 -5
-7 -7 11 12 5 -3 1 -5
-7 -7 11 11 5 -3 1 -5
-7 -7 11 11 5 -3 1 -5
-7 -7 11 11 5 -3 1 -5
-8 -6 11 10 5 -2 0 -5
-8 -6 11 10 5 -2 0 -5
-9 -7 11 10 5 -2 0 -5
-9 -8 11 10 5 -2 0 -5
-9 -8 11 10 5 -2 0 -5
-10 -9 10 10 5 -2 0 -4
-10 -9 10 10 5 -2 0 -4
-10 -8 9 10 5 -2 0 -4
-10 -8 9 10 5 -2 0 -4
-10 -8 9 10 5 -2 0 -4
-9 -7 8 9 5 0 0 -3
-9 -7 8 9 5 0 0 -3
-9 -7 8 9 6 0 0 -3
-9 -7 8 9 6 0 0 -3
-9 -7 8 9 6 0 0 -3
-10 -8 9 9 7 1 1 -4
-10 -8 9 9 7 1 1 -4
-9 -8 8 9 7 1 1 -4
-9 -8 8 9 7 1 1 -4
-9 -8 8 9 7 1 1 -4
-8 -8 7 10 6 1 1 -4
-8 -8 7 10 6 1 1 -4
-9 -8 7 10 6 1 1 -4
-9 -8 7 10 6 1 1 -4
-9 -8 7 10 6 1 1 -4
-10 -9 8 9 6 1 0 -4
-10 -9 8 9 6 1 0 -4
-10 -9 8 9 6 1 0 -4
-10 -9 8 9 6 1 0 -4
-10 -9 8 9 6 1 0 -4
-11 -10 7 8 5 0 0 -3
-11 -10 7 8 5 0 0 -3
-11 -10 7 8 5 0 0 -4
-11 -10 7 8 5 0 0 -4
-11 -10 7 8 5 0 0 -4
-11 -11 8 9 5 0 -2 -5
-11 -11 8 9 5 0 -2 -5
-11 -11 8 8 5 0 -2 -5
-11 -11 8 8 5 0 -2 -5
-11 -11 8 8 5 0 -2 -5
-11 -11 7 7 4 -2 -3 -5
-11 -11 7 7 4 -2 -3 -5
-11 -11 7 7 4 -2 -3 -5
-11 -11 7 7 4 -2 -3 -5
-11 -11 7 7 4 -2 -3 -5
-10 -10 7 8 5 0 -2 -5
-10 -10 7 8 5 0 -2 -5
-11 -10 7 8 5 0 -2 -5
-12 -10 7 8 5 0 -2 -5
-12 -10 7 8 5 0 -2 -5
-13 -10 7 8 4 0 -3 -5
-13 -10 7 8 4 0 -3 -5
-12 -10 7 8 4 0 -3 -5
-11 -10 7 8 4 0 -3 -5
-11 -10 7 8 4 0 -3 -5
-10 -10 8 7 4 1 -3 -4
-10 -10 8 7 4 1 -3 -4
-10 -10 8 7 4 0 -3 -4
-10 -10 8 7 4 0 -3 -4
-10 -10 8 7 4 0 -3 -4
-9 -10 7 7 4 -2 -4 -3
-9 -10 7 7 4 -2 -4 -3
-9 -10 7 7 4 -2 -4 -4
-9 -10 7 7 4 -2 -4 -4
-9 -10 7 7 4 -2 -4 -4
-8 -10 6 7 3 -3 -4 -5
-9 -10 6 7 3 -3 -4 -5
-10 -10 6 7 3 -2 -4 -5
-10 -10 6 7 3 -2 -4 -5
-11 -10 6 7 3 -2 -4 -5
-12 -11 7 7 4 0 -4 -4
-12 -11 7 7 4 0 -4 -4
-11 -11 7 7 4 0 -4 -4
-10 -11 7 7 4 0 -4 -4
-10 -11 7 7 4 0 -4 -4
-9 -11 7 8 4 -2 -4 -4
-9 -11 7 8 4 -2 -4 -4
-9 -10 7 8 4 -2 -4 -4
-9 -9 7 8 4 -2 -4 -4
-9 -9 7 8 4 -2 -4 -4
-8 -8 8 8 4 -2 -4 -4
-8 -8 8 8 4 -2 -4 -4
-8 -8 8 8 4 -2 -4 -4
-8 -8 8 8 4 -2 -4 -4
-8 -8 8 8 4 -2 -4 -4
-8 -8 9 8 5 0 -5 -4
-8 -8 9 9 5 0 -5 -4
-8 -7 9 10 6 1 -5 -4
-8 -7 9 10 7 2 -5 -4
-8 -7 9 11 7 2 -5 -4
-8 -6 10 12 8 3 -4 -3
-8 -6 10 12 8 3 -4 -3
-8 -5 11 13 9 4 -3 -2
-8 -5 12 14 9 5 -2 -2
-8 -5 12 14 9 5 -2 -2
-7 -4 13 15 10 6 0 0
-7 -4 13 15 10 6 0 0
-7 -4 13 16 10 6 0 0
-7 -4 13 17 10 6 0 0
-7 -4 13 17 10 6 0 0
-7 -3 14 18 11 6 -2 0
-7 -3 15 19 12 7 0 0
-6 -3 16 20 14 9 2 1
-6 -3 16 21 15 10 3 2
-6 -3 17 22 16 11 4 2
-5 -2 18 23 17 12 5 3
-5 -2 18 23 17 12 5 3
-4 -2 17 22 17 12 5 3
-3 -2 17 21 17 12 5 3
-3 -2 17 21 17 12 5 3
-2 -3 16 20 17 13 4 3
-2 -3 15 20 17 13 4 3
-2 -3 14 20 17 13 4 3
-2 -3 14 20 17 13 4 3
-2 -3 13 20 17 13 4 3
0 -3 12 19 16 12 4 3
0 -4 12 19 16 12 4 3
0 -5 11 18 15 11 3 3
0 -5 11 18 14 11 2 3
0 -6 11 18 14 11 2 3
-2 -7 10 17 13 10 1 2
-2 -7 9 15 12 9 1 2
-3 -7 8 13 11 8 0 1
-4 -7 7 12 10 7 -2 0
-4 -7 6 10 9 6 -2 0
-5 -8 5 9 8 5 -3 -2
-5 -8 5 9 8 5 -3 -2
-5 -8 5 9 8 5 -3 -2
-5 -8 5 9 8 5 -3 -2
-5 -8 5 9 8 5 -3 -2
-5 -8 4 8 7 4 -4 -3
-6 -8 4 8 7 3 -4 -4
-8 -9 5 8 6 2 -5 -5
-9 -10 5 8 5 2 -6 -5
-10 -10 5 8 5 1 -6 -6
-11 -11 6 8 4 0 -7 -7
-11 -11 6 8 4 0 -7 -7
-10 -11 5 7 3 0 -8 -7
-10 -11 5 6 3 0 -8 -7
-10 -11 5 6 3 0 -8 -7
-9 -11 4 5 2 -2 -9 -8
-9 -11 4 5 2 -2 -9 -8
-10 -11 4 5 2 -2 -9 -8
-11 -11 4 5 2 -2 -9 -8
-11 -11 4 5 2 -2 -9 -8
-12 -12 5 6 2 -2 -10 -7
-12 -12 5 6 2 -2 -10 -7
-12 -12 5 5 2 -2 -10 -7
-12 -12 5 5 2 -2 -10 -7
-12 -12 5 5 2 -2 -10 -7
-11 -12 4 4 2 0 -11 -7
-11 -12 4 4 2 0 -11 -7
-11 -12 4 4 2 0 -11 -7
-11 -12 4 4 2 0 -11 -7
-11 -12 4 4 2 0 -11 -7
-11 -12 5 4 1 -2 -11 -8
-11 -12 5 4 1 -2 -11 -8
-11 -12 5 4 1 -2 -11 -8
-11 -13 4 4 0 -2 -11 -8
-11 -13 4 4 0 -2 -11 -8
-12 -14 3 3 -2 -3 -12 -8
-12 -14 3 3 -2 -3 -12 -8
-12 -14 3 3 -2 -3 -12 -8
-12 -14 3 3 -2 -3 -12 -8
-12 -14 3 3 -2 -3 -12 -8
-11 -14 4 3 -3 -4 -13 -9
-11 -14 4 3 -3 -4 -13 -9
-11 -14 4 3 -2 -4 -13 -9
-12 -13 5 4 0 -3 -12 -9
-12 -13 5 4 0 -3 -12 -9
-13 -12 6 5 1 -2 -11 -8
-13 -14 7 7 1 -2 -12 -9
-13 -15 7 9 1 -3 -12 -9
-14 -16 8 11 1 -4 -13 -10
-14 -18 9 13 1 -4 -14 -11
-15 -19 13 20 5 -4 -15 -12
-16 -17 20 31 14 1 -14 -12
-16 -16 27 43 22 5 -14 -12
-17 -14 34 54 30 9 -13 -12
-18 -12 42 65 38 13 -12 -12
-17 -7 48 80 55 26 -3 -8
-12 2 54 100 78 49 15 4
-7 11 60 119 102 71 33 15
-2 20 66 139 127 95 52 26
4 29 72 157 150 117 69 37
12 40 72 164 167 140 92 53
24 53 61 156 176 162 117 72
35 66 51 147 184 186 144 93
48 79 40 138 193 209 170 113
59 93 30 129 201 232 196 133
71 104 12 97 196 246 219 151
85 112 -17 38 174 254 236 168
98 121 -45 -20 151 260 254 184
110 130 -72 -77 129 267 271 201
123 139 -101 -136 105 273 288 218
128 137 -124 -183 67 248 278 217
120 119 -143 -219 11 186 232 194
113 102 -160 -254 -45 123 187 172
106 85 -179 -289 -101 61 141 149
98 68 -197 -324 -157 -3 96 127
87 50 -200 -332 -190 -48 55 102
70 31 -184 -308 -196 -74 21 73
55 12 -168 -283 -202 -100 -13 46
38 -7 -151 -259 -208 -126 -47 17
22 -26 -135 -234 -214 -152 -80 -12
11 -36 -116 -204 -203 -156 -95 -27
4 -36 -97 -169 -171 -134 -86 -28
-3 -35 -76 -134 -138 -112 -76 -29
-9 -34 -56 -99 -105 -90 -67 -31
-15 -34 -35 -63 -72 -67 -58 -32
-19 -32 -22 -39 -50 -51 -50 -32
-17 -28 -17 -30 -39 -43 -44 -28
-16 -25 -12 -21 -29 -34 -37 -24
-14 -21 -7 -12 -20 -26 -31 -20
-12 -17 -2 -3 -10 -18 -26 -16
-11 -15 2 4 -4 -13 -22 -13
-11 -15 2 5 -4 -12 -21 -12
-11 -14 2 6 -4 -11 -20 -11
-11 -13 2 8 -3 -9 -18 -10
-11 -13 2 9 -3 -8 -17 -9
-11 -12 2 10 -2 -7 -16 -8
-11 -12 2 10 -2 -7 -16 -9
-11 -12 3 10 0 -7 -16 -9
-11 -12 4 10 1 -7 -17 -10
-11 -12 4 10 1 -7 -17 -11
-12 -13 5 11 2 -8 -18 -12
-12 -13 5 11 2 -8 -18 -12
-12 -13 5 11 2 -8 -17 -11
-12 -13 5 11 1 -7 -16 -10
-12 -13 5 11 1 -7 -16 -10
-11 -12 5 10 0 -6 -15 -9
-11 -12 5 10 0 -6 -15 -9
-11 -12 5 10 0 -6 -15 -9
-10 -12 5 10 0 -6 -15 -10
-10 -12 5 10 0 -6 -15 -10
-9 -12 6 11 1 -6 -16 -11
-9 -12 6 11 1 -6 -16 -11
-10 -12 6 11 1 -6 -16 -10
-11 -12 6 11 1 -6 -16 -9
-11 -12 6 11 1 -6 -16 -9
-12 -11 5 11 0 -5 -15 -8
-12 -11 5 11 0 -5 -15 -8
-11 -11 5 11 0 -5 -15 -8
-10 -11 5 11 0 -5 -15 -8
-10 -11 5 11 0 -5 -15 -8
-9 -11 6 11 1 -6 -16 -9
-9 -11 6 11 1 -6 -16 -9
-9 -11 6 11 1 -6 -16 -9
-10 -11 5 11 1 -5 -15 -9
-10 -11 5 11 1 -5 -15 -9
-11 -12 4 10 0 -4 -14 -8
-11 -12 4 10 0 -4 -14 -8
-11 -12 4 10 1 -4 -14 -9
-11 -12 4 10 2 -4 -14 -10
-11 -12 4 10 2 -4 -14 -10
-12 -12 5 11 3 -3 -15 -11
-12 -12 5 11 3 -3 -15 -10
-12 -12 5 11 3 -3 -15 -10
-12 -12 5 12 3 -3 -14 -9
-12 -12 5 12 3 -3 -14 -8
-13 -11 5 13 2 -3 -13 -7
-13 -11 5 13 2 -3 -13 -8
-13 -11 5 13 2 -3 -13 -8
-13 -11 5 13 2 -4 -14 -9
-13 -11 5 13 2 -4 -14 -10
-12 -11 5 13 3 -5 -15 -11
-12 -11 5 13 3 -5 -15 -11
-12 -11 5 13 3 -5 -15 -10
-11 -11 5 12 2 -5 -15 -9
-11 -11 5 12 2 -5 -15 -9
-10 -10 4 11 1 -5 -15 -8
-10 -10 4 11 1 -5 -15 -8
-10 -10 4 11 1 -5 -15 -9
-10 -10 4 11 1 -4 -15 -10
-10 -10 4 11 1 -4 -15 -10
-9 -10 5 11 2 -3 -15 -11
-9 -10 5 11 2 -3 -15 -11
-9 -10 5 11 2 -3 -15 -11
-9 -10 4 11 2 -3 -14 -10
-9 -10 4 11 2 -3 -14 -10
-9 -10 3 11 2 -3 -13 -9
-9 -10 3 11 2 -3 -13 -9
-9 -10 3 11 2 -3 -13 -9
-8 -9 3 12 2 -3 -13 -9
-8 -9 3 12 2 -3 -13 -9
-7 -8 4 13 3 -4 -14 -10
-7 -8 4 13 3 -4 -14 -10
-7 -8 4 13 3 -4 -14 -10
-8 -9 3 12 2 -4 -14 -10
-8 -9 3 12 2 -4 -14 -10
-9 -10 2 11 1 -5 -13 -9
-9 -10 2 11 2 -5 -13 -9
-9 -10 2 11 2 -5 -13 -9
-9 -9 2 11 3 -5 -13 -9
-9 -9 2 11 4 -5 -13 -9
-9 -8 3 12 5 -5 -13 -9
-9 -8 3 12 4 -5 -13 -9
-8 -7 3 12 4 -5 -13 -9
-7 -6 2 11 3 -5 -12 -8
-7 -6 2 11 2 -5 -12 -8
-6 -5 1 10 1 -4 -11 -7
-7 -5 1 10 1 -4 -11 -7
-7 -5 1 10 2 -4 -11 -7
-8 -6 1 10 3 -4 -11 -7
-9 -6 1 10 3 -4 -11 -7
-10 -7 2 10 4 -4 -12 -8
-9 -7 1 10 3 -4 -12 -8
-8 -7 0 9 2 -4 -12 -8
-7 -7 -2 8 1 -5 -12 -8
-6 -7 -3 8 0 -5 -12 -8
-5 -6 -4 7 -2 -6 -12 -7
-5 -6 -4 7 -2 -6 -12 -7
-5 -6 -4 7 -2 -6 -12 -7
-5 -6 -4 6 -2 -6 -12 -7
-5 -6 -4 6 -2 -6 -12 -7
-6 -5 -5 5 0 -7 -13 -7
-6 -5 -5 5 0 -7 -13 -7
-6 -4 -6 5 -2 -7 -13 -7
-6 -3 -7 5 -3 -7 -12 -6
-6 -3 -7 5 -3 -7 -12 -6
-6 -2 -8 4 -4 -6 -11 -5
-6 -2 -8 3 -4 -6 -11 -5
-6 -2 -9 2 -4 -6 -11 -5
-5 0 -10 1 -4 -7 -11 -4
-5 0 -10 0 -4 -7 -11 -4
-4 1 -11 -2 -5 -8 -11 -3
-4 1 -11 -3 -5 -8 -11 -3
-4 2 -12 -3 -6 -8 -10 -2
-4 3 -13 -4 -7 -8 -9 0
-4 3 -13 -5 -7 -8 -9 0
-3 4 -14 -6 -8 -7 -8 1
-3 4 -14 -7 -8 -7 -8 1
-2 4 -15 -8 -8 -7 -8 1
0 4 -16 -10 -9 -8 -8 2
0 4 -16 -11 -9 -8 -8 2
1 5 -17 -12 -10 -9 -8 3
1 6 -18 -13 -11 -9 -8 3
1 6 -18 -13 -12 -9 -7 3
1 7 -19 -14 -13 -9 -6 3
1 8 -20 -15 -14 -9 -6 3
1 9 -21 -16 -15 -9 -5 4
1 9 -21 -16 -15 -9 -5 4
1 9 -21 -16 -15 -9 -5 4
1 9 -21 -17 -14 -9 -5 5
1 9 -21 -17 -14 -9 -5 5
1 10 -22 -18 -13 -10 -4 6
1 11 -22 -19 -13 -10 -4 6
2 11 -22 -19 -14 -10 -4 7
3 12 -23 -20 -15 -10 -3 8
3 13 -23 -21 -15 -10 -3 8
4 14 -24 -22 -16 -10 -2 9
4 14 -24 -22 -16 -10 -2 9
4 14 -24 -22 -16 -10 -2 9
4 14 -24 -22 -16 -10 -2 9
4 14 -24 -22 -16 -10 -2 9
5 14 -23 -23 -16 -9 0 10
5 14 -23 -23 -16 -9 1 10
5 14 -23 -23 -16 -8 1 11
5 15 -24 -22 -16 -7 2 12
5 15 -24 -22 -16 -7 3 12
4 16 -25 -21 -16 -6 4 13
4 16 -24 -21 -15 -5 4 13
5 16 -24 -21 -13 -5 4 13
5 16 -23 -20 -12 -4 4 13
6 16 -22 -20 -10 -3 4 13
7 16 -21 -19 -9 -2 4 13
7 16 -20 -18 -9 -2 4 13
7 16 -19 -16 -9 -2 5 13
7 16 -18 -15 -9 0 5 13
7 16 -17 -13 -9 0 6 13
6 15 -16 -12 -8 1 7 12
6 14 -15 -10 -6 1 7 12
5 14 -14 -9 -5 1 7 12
5 13 -13 -7 -3 1 7 11
4 12 -11 -6 -2 1 7 11
3 11 -10 -4 1 2 6 10
3 11 -9 -3 1 2 6 9
3 11 -8 -2 1 2 6 9
3 10 -7 0 1 2 5 8
3 10 -6 2 1 2 5 7
4 9 -5 3 1 3 4 6
3 8 -4 4 2 3 4 5
3 8 -3 5 2 3 4 4
2 7 -2 6 3 3 3 3
1 6 0 7 4 3 3 1
0 5 1 8 5 4 2 0
0 5 1 8 5 4 2 0
0 4 1 8 5 4 2 0
1 4 1 8 5 4 1 -2
1 3 1 8 5 4 1 -2
2 2 2 9 5 3 0 -3
2 2 2 9 5 3 0 -3
2 2 2 9 5 3 0 -4
1 1 3 10 6 2 -2 -4
1 1 3 10 6 2 -2 -5
0 0 4 11 7 1 -3 -6
0 0 4 11 7 1 -3 -6
-2 0 4 11 7 1 -3 -6
-2 0 4 11 6 1 -3 -6
-3 0 4 11 6 1 -3 -6
-4 -2 4 10 5 1 -4 -7
-4 -2 4 10 5 1 -4 -7
-4 -2 4 10 5 1 -4 -8
-4 -3 4 10 5 1 -5 -8
-4 -3 4 10 5 1 -5 -9
-5 -4 5 11 6 0 -6 -10
-4 -4 5 11 6 0 -6 -10
-3 -4 5 11 6 0 -6 -10
-2 -3 5 11 5 0 -6 -10
1 -3 5 11 5 0 -6 -10
2 -2 5 11 4 0 -6 -9
1 -2 5 11 4 0 -6 -9
-2 -3 5 11 4 0 -6 -10
-3 -3 5 11 4 -2 -7 -10
-5 -4 5 11 4 -2 -7 -11
-6 -5 6 11 5 -3 -8 -12
-6 -5 6 11 4 -3 -8 -12
-6 -5 6 11 4 -3 -8 -12
-5 -5 6 11 3 -3 -8 -12
-5 -5 6 11 2 -3 -8 -12
-4 -5 5 10 1 -4 -9 -12
-4 -5 5 10 1 -4 -9 -12
-4 -5 5 10 2 -4 -9 -12
-4 -5 5 11 2 -4 -10 -12
-4 -5 5 11 3 -4 -10 -12
-3 -6 5 12 4 -5 -11 -13
-3 -6 5 12 4 -5 -11 -13
-3 -6 6 12 3 -5 -11 -13
-3 -6 6 12 3 -5 -11 -13
-3 -6 7 12 2 -5 -11 -13
-4 -6 8 11 1 -4 -10 -13
-4 -6 8 11 1 -4 -10 -13
-4 -6 8 11 2 -4 -10 -13
-4 -5 9 12 2 -4 -10 -13
-4 -5 9 12 3 -4 -10 -13
-5 -4 10 13 4 -5 -11 -13
-5 -4 10 13 4 -5 -11 -13
-5 -4 9 13 3 -5 -11 -13
-5 -4 9 13 3 -5 -11 -13
-5 -4 8 13 2 -5 -11 -13
-4 -3 7 12 1 -5 -11 -14
-4 -3 7 12 2 -5 -11 -14
-4 -3 8 12 3 -5 -10 -14
-4 -3 8 13 4 -4 -10 -14
-4 -3 9 13 5 -4 -9 -14
-4 -4 10 14 6 -3 -8 -13
-4 -3 10 14 6 -3 -8 -13
-4 -3 10 14 6 -3 -8 -13
-4 -2 10 14 6 -3 -8 -13
-4 0 10 14 6 -3 -8 -13
-4 1 10 13 5 -2 -7 -13
-4 1 10 13 5 -2 -7 -13
-4 1 10 13 5 -2 -7 -13
-4 1 10 13 6 0 -7 -13
-4 1 10 13 6 0 -7 -13
-4 0 11 14 7 1 -8 -13
-4 0 11 14 7 1 -8 -13
-4 0 11 14 7 1 -8 -13
-4 0 11 14 7 1 -8 -13
-4 0 11 14 7 1 -8 -13
-4 0 10 14 6 1 -7 -12
-4 0 10 14 7 1 -7 -12
-4 0 10 14 7 1 -7 -12
-4 0 10 14 8 1 -6 -12
-4 0 10 14 9 1 -6 -12
-3 0 10 15 10 2 -5 -12
-3 0 10 15 10 2 -5 -12
-3 1 10 15 10 2 -5 -12
-3 1 10 15 9 2 -5 -11
-3 2 10 15 9 2 -5 -11
-4 3 10 14 8 3 -4 -10
-4 3 10 14 8 3 -4 -10
-4 3 10 14 8 3 -4 -10
-4 2 10 14 8 3 -4 -10
-4 2 10 14 8 3 -4 -10
-4 1 11 15 9 3 -4 -11
-4 1 11 15 9 3 -4 -11
-4 1 11 14 9 3 -4 -11
-4 1 10 13 9 3 -4 -11
-4 1 10 12 9 3 -4 -11
-3 1 9 11 8 3 -4 -11
-3 1 9 11 8 3 -4 -11
-3 1 9 11 8 3 -4 -11
-3 2 9 11 9 3 -4 -11
-3 2 9 11 9 3 -4 -11
-4 3 10 12 10 3 -4 -11
-4 3 10 12 10 3 -4 -11
-4 3 10 12 9 3 -4 -11
-3 3 10 11 9 3 -4 -11
-3 3 10 11 8 3 -4 -11
-2 2 9 10 7 2 -5 -11
-2 2 9 10 7 2 -5 -11
-2 2 9 10 7 2 -5 -11
-2 2 9 10 7 2 -5 -12
-2 2 9 10 7 2 -5 -12
-2 2 9 10 8 1 -5 -13
-2 2 9 10 8 1 -5 -13
-2 2 9 10 7 1 -5 -13
-2 1 9 10 7 1 -5 -13
-2 1 9 10 6 1 -5 -13
-3 0 10 9 5 2 -5 -12
-3 0 10 9 5 2 -5 -12
-3 0 10 9 5 2 -5 -12
-3 0 10 9 6 2 -5 -12
-3 0 10 9 6 2 -5 -12
-2 1 10 10 7 2 -6 -13
-2 1 10 10 7 2 -6 -13
-2 1 10 10 7 2 -6 -13
-3 1 9 9 6 2 -6 -13
-3 1 9 9 6 2 -6 -13
-4 0 8 8 5 1 -7 -13
-4 0 8 8 5 1 -7 -13
-4 0 8 8 5 1 -7 -13
-4 0 8 8 6 1 -7 -13
-4 0 8 8 6 1 -7 -13
-3 -2 9 9 7 1 -6 -13
-3 -2 9 9 7 1 -6 -13
-3 -2 9 9 6 1 -6 -13
-3 -2 8 9 6 1 -6 -13
-3 -2 8 9 5 1 -6 -13
-3 0 7 8 4 1 -7 -14
-3 0 7 8 4 1 -7 -14
-3 0 7 8 4 1 -7 -14
-3 0 7 8 4 1 -7 -14
-3 0 7 8 4 1 -7 -14
-2 0 8 8 5 0 -7 -14
-2 0 8 8 5 0 -7 -14
-2 0 8 8 5 0 -7 -14
-2 0 8 8 5 0 -7 -14
-2 0 8 8 5 0 -7 -14
-3 -2 8 7 4 0 -8 -14
-3 -2 8 7 4 0 -8 -14
-3 -2 8 7 4 0 -8 -14
-3 -2 8 8 4 0 -7 -14
-3 -2 8 8 4 0 -7 -14
-4 -2 9 9 5 1 -6 -13
-4 0 9 9 5 1 -6 -13
-4 1 10 10 6 2 -6 -12
-3 2 10 10 6 2 -5 -12
-3 3 11 11 7 3 -5 -11
-2 4 12 12 8 4 -4 -10
0 4 12 12 8 4 -4 -10
1 4 12 12 8 4 -4 -10
2 4 13 12 9 4 -4 -10
3 4 13 12 9 4 -4 -10
4 4 14 13 10 3 -4 -11
4 4 14 13 10 3 -4 -11
4 4 14 14 10 3 -4 -11
3 4 14 14 10 3 -4 -11
3 4 14 15 10 3 -4 -11
2 3 15 16 10 3 -4 -10
2 3 15 16 11 4 -3 -10
2 4 16 17 12 5 -2 -9
3 4 16 18 13 6 0 -9
3 5 17 19 15 8 1 -8
4 6 18 20 16 9 2 -7
4 6 18 20 16 9 2 -7
4 6 18 20 16 9 2 -7
5 6 18 20 16 9 2 -6
5 6 18 20 16 9 2 -6
6 7 17 20 16 9 3 -5
6 7 17 20 16 9 3 -5
6 7 16 19 16 9 3 -5
6 6 16 19 16 9 3 -5
6 6 15 18 16 9 3 -5
5 5 14 17 15 8 3 -6
5 5 14 17 15 8 3 -6
5 5 14 17 15 8 3 -6
5 5 13 16 15 8 2 -6
5 5 13 16 15 8 2 -6
5 4 12 15 14 7 1 -6
5 3 11 14 13 6 0 -6
5 2 10 12 11 5 -2 -7
4 1 9 11 10 4 -3 -7
4 0 8 10 9 3 -4 -8
3 -2 7 8 7 1 -5 -9
3 -2 7 8 7 1 -5 -9
3 -2 7 8 6 1 -5 -9
3 -2 6 7 6 0 -5 -9
3 -2 6 7 5 0 -5 -9
2 -3 5 6 4 -2 -6 -10
2 -3 5 6 4 -2 -6 -10
1 -3 5 6 4 -2 -7 -10
1 -4 6 6 4 -3 -8 -10
0 -4 6 6 4 -3 -9 -10
-2 -5 7 5 3 -4 -10 -11
-2 -5 7 5 3 -4 -10 -11
-3 -5 7 5 2 -4 -10 -11
-3 -5 7 4 2 -5 -10 -12
-4 -5 7 4 1 -5 -10 -12
-5 -5 7 3 0 -6 -11 -13
-5 -5 7 3 0 -6 -11 -13
-5 -5 7 3 0 -6 -11 -13
-5 -6 7 4 1 -6 -11 -13
-5 -6 7 4 1 -6 -11 -13
-6 -7 7 5 2 -7 -11 -13
-6 -7 7 5 2 -7 -11 -13
-6 -7 7 4 2 -7 -11 -13
-6 -7 7 4 1 -7 -11 -12
-6 -7 7 3 1 -7 -11 -12
-7 -7 7 2 0 -8 -10 -11
-7 -7 7 2 0 -8 -10 -11
-7 -7 7 2 0 -8 -10 -11
-7 -6 7 2 0 -8 -11 -11
-7 -6 7 2 0 -8 -11 -11
-6 -5 7 2 -2 -9 -12 -12
-6 -5 7 2 -2 -9 -12 -12
-6 -5 7 2 -2 -9 -12 -12
-6 -6 7 2 -2 -9 -12 -12
-6 -6 7 2 -2 -9 -12 -12
-7 -7 7 2 -3 -9 -13 -13
-7 -7 7 2 -3 -9 -13 -13
-7 -7 7 2 -3 -9 -13 -13
-7 -7 7 3 -2 -9 -13 -12
-7 -7 7 3 -2 -9 -13 -12
-6 -8 8 4 0 -10 -12 -11
-6 -8 8 4 0 -10 -12 -11
-6 -8 8 4 0 -10 -12 -11
-6 -8 8 4 0 -10 -12 -11
-6 -8 8 4 0 -10 -12 -11
-5 -7 9 4 0 -9 -11 -10
-5 -7 10 6 0 -9 -11 -10
-5 -7 11 8 1 -9 -12 -10
-5 -7 12 10 2 -10 -13 -10
-5 -7 13 12 3 -10 -14 -10
-5 -8 15 15 4 -11 -15 -10
-6 -8 21 24 11 -8 -15 -10
-8 -7 27 34 17 -5 -15 -11
-9 -7 33 45 24 -2 -14 -11
-11 -6 39 55 31 3 -14 -12
-13 -5 46 65 39 8 -12 -12
-8 4 52 82 60 26 4 -3
-3 11 57 100 80 46 19 8
3 19 62 116 101 65 34 17
8 26 68 134 122 85 49 27
14 34 73 149 142 104 65 38
25 48 68 146 155 129 92 57
37 61 63 143 168 153 117 75
50 75 57 140 181 178 143 94
61 89 52 137 193 201 170 112
73 101 45 129 203 224 195 131
87 111 16 76 184 231 214 147
99 120 -13 23 163 238 233 162
112 130 -40 -29 144 245 252 178
126 139 -69 -81 123 253 271 194
138 148 -97 -134 100 255 285 207
131 138 -117 -174 46 200 247 188
125 128 -138 -215 -8 146 210 170
118 118 -158 -255 -62 92 172 150
111 108 -179 -296 -115 37 134 132
104 97 -196 -331 -165 -15 96 111
87 71 -183 -312 -178 -49 56 79
70 47 -170 -294 -191 -81 17 47
54 21 -156 -275 -204 -115 -23 15
36 -4 -143 -257 -217 -149 -63 -18
21 -27 -130 -236 -226 -179 -99 -48
14 -28 -109 -200 -194 -157 -91 -52
8 -29 -89 -163 -161 -136 -83 -55
1 -30 -68 -127 -129 -114 -75 -59
-7 -31 -48 -91 -96 -93 -67 -63
-13 -33 -28 -56 -65 -73 -60 -67
-13 -29 -22 -45 -54 -63 -53 -64
-12 -25 -16 -33 -41 -53 -46 -61
-11 -21 -9 -22 -30 -43 -38 -58
-10 -17 -3 -11 -18 -32 -31 -54
-9 -13 4 1 -7 -23 -24 -51
-9 -13 4 2 -7 -22 -23 -51
-9 -12 4 3 -6 -20 -21 -51
-8 -11 4 5 -6 -19 -19 -50
-8 -10 4 6 -5 -17 -17 -50
-7 -9 5 8 -4 -15 -15 -49
-7 -9 5 8 -4 -15 -15 -51
-7 -9 6 8 -3 -15 -16 -53
-7 -9 6 9 -2 -15 -16 -55
-7 -9 7 9 0 -15 -17 -57
-7 -10 8 10 1 -16 -18 -59
-7 -10 8 10 1 -16 -18 -59
-7 -10 8 10 1 -16 -18 -59
-7 -10 8 10 1 -15 -17 -60
-7 -10 8 10 1 -15 -17 -60
-7 -9 7 10 0 -14 -16 -61
-7 -9 7 10 0 -14 -16 -62
-7 -9 7 10 0 -14 -16 -63
-7 -9 8 10 0 -14 -17 -64
-7 -9 8 10 0 -14 -17 -65
-6 -8 9 11 0 -14 -18 -67
-6 -8 9 11 0 -14 -18 -67
-6 -8 8 11 0 -14 -17 -67
-6 -8 8 10 0 -14 -16 -68
-6 -8 7 10 0 -14 -15 -68
-6 -8 6 9 -2 -15 -14 -69
-6 -8 6 9 -2 -15 -14 -70
-6 -8 7 10 -2 -15 -14 -71
-6 -9 8 10 -2 -14 -15 -72
-6 -9 9 11 -2 -14 -15 -73
-7 -10 10 12 0 -13 -16 -75
-7 -10 10 12 0 -13 -16 -74
-7 -9 9 12 0 -13 -15 -73
-7 -9 9 11 0 -13 -15 -72
-7 -8 8 11 0 -13 -14 -71
-7 -7 7 10 -2 -13 -13 -69
-7 -7 7 10 -2 -13 -13 -69
-7 -7 7 10 0 -13 -13 -69
-7 -7 7 11 1 -13 -14 -69
-7 -7 7 11 2 -13 -14 -69
-7 -8 8 12 3 -12 -15 -70
-7 -8 8 12 2 -12 -15 -70
-7 -8 8 12 1 -12 -15 -69
-7 -8 7 11 0 -12 -14 -69
-7 -8 7 11 -2 -12 -14 -68
-7 -8 6 10 -3 -12 -13 -67
-7 -8 6 10 -3 -12 -13 -67
-7 -8 7 10 -2 -12 -13 -67
-6 -9 7 10 -2 -12 -14 -67
-6 -9 8 10 0 -12 -14 -67
-5 -10 9 11 1 -13 -15 -68
-5 -10 9 11 1 -13 -15 -68
-5 -10 8 11 0 -13 -15 -68
-5 -10 8 11 0 -13 -15 -67
-5 -10 7 11 -2 -13 -15 -67
-5 -9 6 10 -3 -12 -15 -66
-5 -9 6 10 -3 -12 -15 -66
-5 -9 6 10 -2 -12 -15 -66
-5 -9 6 10 0 -12 -15 -66
-5 -9 6 10 1 -12 -15 -66
-4 -8 7 11 2 -13 -15 -65
-4 -8 7 11 2 -13 -15 -65
-4 -8 6 11 1 -13 -15 -65
-4 -8 5 11 0 -13 -15 -65
-4 -8 4 11 -2 -13 -15 -65
-4 -9 3 10 -3 -14 -14 -65
-4 -9 3 10 -2 -14 -14 -65
-5 -9 4 10 0 -14 -14 -64
-5 -9 5 11 1 -14 -14 -63
-6 -9 6 11 2 -14 -14 -62
-7 -9 7 12 3 -14 -13 -61
-7 -9 7 12 3 -14 -13 -61
-7 -9 6 12 2 -14 -13 -60
-7 -9 5 11 1 -13 -13 -60
-7 -9 4 11 0 -13 -13 -59
-7 -9 3 10 -2 -12 -12 -58
-7 -9 3 10 -2 -12 -12 -58
-7 -9 3 10 -2 -12 -12 -58
-7 -9 3 10 -2 -13 -13 -58
-7 -9 3 10 -2 -13 -13 -58
-6 -8 4 10 0 -14 -14 -59
-6 -8 4 10 0 -14 -14 -59
-6 -8 3 9 -2 -14 -13 -58
-6 -8 3 9 -2 -14 -13 -58
-6 -8 2 8 -3 -14 -12 -57
-6 -7 1 7 -4 -14 -11 -56
-6 -7 1 7 -4 -14 -11 -56
-6 -7 1 7 -4 -14 -11 -56
-5 -7 1 7 -4 -14 -12 -56
-5 -7 1 7 -4 -14 -12 -56
-4 -8 2 7 -3 -14 -13 -56
-4 -8 2 7 -3 -14 -13 -55
-4 -8 2 7 -3 -14 -12 -54
-4 -8 1 7 -4 -13 -12 -53
-4 -8 1 7 -4 -13 -11 -52
-4 -7 0 6 -5 -12 -10 -51
-4 -7 0 6 -5 -12 -10 -51
-4 -6 0 5 -5 -13 -11 -51
-4 -6 -2 5 -5 -14 -11 -51
-4 -5 -2 4 -5 -15 -12 -51
-3 -4 -3 3 -4 -16 -13 -51
-3 -4 -3 3 -4 -16 -13 -50
-3 -4 -4 2 -5 -16 -12 -49
-2 -4 -5 1 -6 -16 -12 -48
-2 -4 -6 0 -7 -16 -11 -47
0 -3 -7 -2 -8 -16 -10 -46
0 -3 -7 -2 -8 -16 -10 -46
0 -3 -7 -2 -8 -16 -10 -45
-2 -3 -8 -3 -8 -16 -10 -45
-2 -3 -8 -3 -8 -16 -10 -44
-3 -2 -9 -4 -7 -16 -10 -43
