I II V1 V2 V3 V4 V5 V6
0 -7 15 7 10 -17 -24 -31
-3 -6 15 7 10 -16 -23 -30
-5 -4 15 8 11 -15 -22 -29
-8 -2 16 8 12 -13 -20 -27
-10 1 16 9 13 -12 -19 -26
-12 2 16 9 14 -11 -18 -25
-13 0 17 10 15 -10 -17 -24
-13 -4 17 10 15 -10 -17 -24
-13 -8 17 10 15 -11 -17 -25
-13 -11 17 10 15 -11 -17 -25
-13 -14 17 10 15 -11 -17 -25
-14 -16 16 8 14 -12 -19 -27
-15 -17 15 6 13 -13 -20 -29
-16 -18 13 4 12 -14 -22 -30
-17 -19 12 2 11 -15 -23 -32
-18 -20 11 1 10 -16 -24 -33
-16 -19 11 0 9 -17 -25 -34
-12 -17 13 1 10 -16 -25 -33
-8 -14 15 2 10 -15 -24 -32
-4 -12 17 3 11 -14 -24 -31
0 -10 18 3 11 -14 -24 -31
1 -9 19 4 12 -13 -23 -30
1 -9 18 4 12 -13 -23 -30
1 -8 17 4 13 -12 -23 -30
1 -8 16 4 13 -12 -23 -30
1 -8 15 4 13 -12 -23 -30
3 -6 15 5 15 -11 -23 -29
5 -4 16 6 17 -10 -22 -29
6 -3 17 7 18 -10 -22 -28
8 0 18 8 20 -9 -21 -28
9 1 19 9 21 -9 -21 -28
8 1 20 10 22 -8 -20 -27
6 -2 19 9 21 -8 -21 -28
3 -4 18 8 21 -8 -21 -28
1 -6 17 7 20 -8 -22 -29
-2 -8 16 7 20 -8 -22 -29
1 -7 16 7 21 -7 -22 -30
5 -5 18 9 23 -6 -21 -29
9 -2 19 11 26 -4 -20 -28
13 1 21 13 28 -3 -19 -27
17 3 22 15 30 -2 -18 -27
12 -2 22 15 30 0 -18 -27
4 -8 21 14 29 -2 -19 -29
-4 -14 19 12 28 -3 -21 -31
-11 -19 18 11 27 -4 -22 -33
-18 -25 17 10 26 -5 -23 -34
-19 -24 16 10 26 -5 -23 -35
-18 -22 17 12 27 -4 -22 -34
-18 -20 18 13 29 -2 -21 -33
-17 -18 19 15 30 0 -20 -32
-17 -16 19 16 31 1 -19 -31
-14 -15 20 17 33 2 -18 -30
-12 -16 20 18 35 3 -17 -30
-9 -16 20 19 36 4 -17 -30
-7 -17 20 20 38 5 -16 -30
-5 -17 20 21 39 5 -16 -30
-3 -17 21 23 42 6 -15 -29
-2 -16 21 24 44 7 -14 -28
0 -14 22 26 46 7 -14 -28
1 -13 22 27 48 8 -13 -27
2 -12 22 28 50 8 -13 -27
4 -11 23 29 51 9 -12 -26
6 -10 23 29 51 10 -12 -26
7 -10 23 30 52 11 -11 -26
9 -9 23 30 52 12 -11 -26
10 -9 23 30 52 13 -11 -26
11 -8 22 31 53 14 -10 -25
10 -8 22 32 53 14 -10 -24
10 -8 22 33 53 13 -10 -24
9 -8 22 34 53 13 -10 -23
9 -8 22 34 53 13 -10 -23
9 -9 21 35 54 12 -10 -22
11 -9 21 34 54 12 -10 -22
12 -8 21 33 54 12 -10 -22
14 -8 21 32 54 12 -10 -22
15 -8 21 31 54 12 -10 -22
15 -9 21 28 51 10 -10 -24
14 -11 19 26 48 7 -12 -25
13 -14 17 24 45 5 -13 -27
12 -16 15 22 42 2 -15 -28
11 -18 13 20 38 0 -16 -29
10 -17 12 19 37 -2 -17 -30
10 -15 12 19 36 -2 -16 -29
10 -12 13 19 36 -2 -16 -28
10 -10 13 19 35 -2 -15 -27
10 -8 13 19 35 -2 -15 -26
6 -9 14 18 34 0 -14 -25
2 -13 14 18 33 -2 -14 -25
-3 -16 14 18 33 -2 -14 -25
-8 -19 14 18 32 -3 -14 -25
-12 -22 14 18 32 -3 -14 -25
-10 -21 15 17 31 -4 -14 -26
-5 -18 16 16 30 -3 -13 -25
0 -15 16 16 30 -2 -11 -24
4 -12 17 15 29 0 -10 -23
8 -9 17 15 29 0 -9 -22
10 -8 17 13 27 1 -8 -21
12 -7 16 12 25 0 -9 -22
14 -6 14 10 24 0 -10 -22
16 -5 13 9 22 -2 -11 -23
18 -4 12 8 21 -2 -11 -23
18 -3 11 6 19 -3 -12 -24
17 -3 10 4 17 -3 -12 -24
16 -3 9 3 16 -3 -12 -24
15 -3 8 1 14 -3 -12 -24
14 -3 8 0 13 -3 -12 -24
12 -2 7 -2 12 -2 -11 -25
11 -3 7 -3 11 0 -10 -25
10 -4 8 -4 10 0 -10 -25
9 -5 8 -5 9 1 -9 -25
8 -5 8 -5 9 1 -9 -25
9 -3 9 -6 8 2 -8 -24
12 2 9 -6 7 3 -7 -24
15 6 8 -7 7 4 -6 -24
18 10 8 -7 6 5 -5 -24
21 14 8 -7 6 5 -5 -24
20 13 7 -9 4 5 -5 -25
16 11 8 -10 2 3 -7 -25
13 9 8 -12 0 1 -9 -26
10 6 9 -13 -3 -2 -11 -26
7 4 9 -14 -4 -4 -13 -26
4 2 10 -15 -5 -5 -14 -28
2 1 10 -15 -5 -5 -14 -29
-2 0 10 -15 -6 -5 -14 -31
-5 -2 10 -15 -6 -5 -14 -32
-7 -3 10 -15 -6 -5 -14 -33
-7 -4 10 -14 -8 -5 -16 -36
-5 -4 9 -15 -9 -7 -18 -38
-3 -3 8 -16 -11 -8 -20 -40
0 -3 7 -17 -12 -10 -22 -44
2 -3 7 -18 -13 -11 -23 -46
0 -2 7 -18 -13 -11 -24 -47
-4 -2 8 -16 -12 -10 -23 -46
-7 -2 10 -15 -10 -8 -22 -45
-11 -2 11 -13 -9 -7 -21 -44
-14 -2 12 -12 -8 -6 -21 -43
-13 -2 13 -11 -7 -5 -21 -41
-10 1 14 -11 -7 -6 -22 -43
-7 3 14 -11 -7 -6 -24 -44
-5 4 15 -11 -7 -7 -25 -45
-2 6 15 -11 -7 -7 -26 -46
0 7 16 -9 -8 -8 -26 -46
0 8 15 -7 -7 -7 -24 -44
1 9 14 -6 -6 -6 -22 -41
1 10 13 -4 -5 -5 -21 -39
1 10 13 -3 -5 -5 -19 -37
1 10 11 -2 -4 -5 -18 -36
0 8 9 -2 -5 -6 -19 -36
-2 6 8 -2 -6 -7 -20 -36
-3 4 6 -2 -7 -8 -21 -36
-4 2 5 -2 -7 -9 -22 -36
-5 1 4 -2 -8 -9 -23 -36
-4 2 5 0 -7 -8 -22 -34
-3 3 6 1 -6 -7 -21 -33
-2 4 7 2 -5 -6 -20 -31
-2 4 7 2 -4 -5 -19 -30
0 5 8 3 -3 -4 -18 -29
0 5 7 4 -3 -4 -18 -28
0 5 7 4 -3 -4 -18 -28
0 5 6 5 -3 -4 -18 -27
0 5 6 5 -3 -4 -18 -27
-3 4 5 5 -2 -5 -18 -25
-7 2 4 4 -3 -5 -17 -23
-10 -2 3 3 -3 -6 -17 -21
-14 -5 2 2 -4 -6 -16 -20
-17 -7 2 1 -4 -6 -16 -18
-13 -3 2 2 -3 -5 -14 -15
-7 4 5 4 0 -2 -11 -12
1 10 7 7 3 2 -9 -9
7 16 9 10 6 4 -7 -6
14 22 11 12 8 7 -5 -3
11 19 10 11 7 7 -5 -3
5 14 8 8 4 4 -8 -4
0 9 6 5 1 2 -10 -6
-6 4 3 2 -2 0 -12 -7
-12 -2 1 -2 -5 -3 -14 -8
-13 0 0 -2 -5 -3 -14 -7
-12 3 1 0 -4 0 -12 -4
-11 7 2 2 -2 2 -10 0
-10 10 3 3 1 3 -9 3
-9 13 4 4 2 5 -7 6
-7 14 5 5 3 6 -6 7
-6 13 4 4 3 6 -6 7
-5 12 4 3 2 5 -6 8
-4 11 3 2 2 5 -6 8
-3 11 3 2 2 5 -6 8
-2 12 2 1 1 4 -7 10
-2 15 3 1 1 4 -6 13
-3 17 4 2 1 5 -5 15
-3 20 5 2 1 5 -4 17
-3 23 5 2 1 5 -4 19
0 24 5 2 1 6 -3 20
5 25 4 1 0 6 -3 21
10 26 3 0 -2 5 -3 21
14 27 1 -2 -3 5 -3 22
19 27 0 -3 -3 5 -3 22
20 28 -2 -3 -3 5 -2 24
19 28 -2 -2 -2 6 0 26
18 29 0 0 0 7 2 28
17 29 0 2 1 9 4 29
16 29 0 3 2 10 5 31
13 26 -3 1 1 9 5 30
10 21 -6 -3 -3 7 3 27
7 15 -10 -7 -6 5 1 25
4 10 -13 -10 -9 2 0 22
1 4 -17 -14 -12 0 -3 19
2 6 -17 -14 -12 0 -3 19
5 9 -14 -11 -10 1 0 20
8 13 -12 -9 -8 2 2 21
11 17 -10 -7 -7 4 3 22
14 21 -8 -5 -5 5 5 23
14 21 -7 -4 -5 5 6 24
13 18 -7 -4 -6 2 5 22
11 16 -6 -4 -8 0 4 21
9 14 -6 -4 -10 -3 3 20
8 12 -6 -4 -11 -5 3 19
4 7 -5 -3 -12 -7 0 16
0 2 -5 -5 -14 -9 -4 12
-5 -5 -5 -6 -15 -11 -7 8
-10 -10 -5 -7 -16 -12 -10 5
-14 -16 -5 -8 -17 -14 -13 1
-13 -15 -4 -9 -18 -15 -14 0
-10 -12 -3 -9 -18 -15 -13 0
-6 -9 -3 -8 -18 -14 -13 0
-3 -6 -2 -8 -18 -14 -12 0
1 -3 -2 -8 -18 -14 -12 0
2 -2 0 -7 -17 -13 -11 1
0 -2 0 -6 -16 -13 -11 1
-2 -3 0 -6 -15 -13 -10 1
-3 -3 0 -5 -14 -13 -10 1
-4 -3 0 -5 -14 -13 -10 1
-4 -3 1 -4 -13 -12 -9 0
-3 -2 2 -3 -13 -11 -8 0
0 0 2 -2 -13 -10 -7 1
2 2 3 0 -13 -9 -6 1
3 3 3 0 -13 -9 -6 1
1 1 4 1 -12 -9 -6 1
-4 -3 3 0 -13 -10 -7 -2
-8 -7 2 -2 -14 -11 -8 -4
-12 -11 1 -3 -15 -13 -10 -5
-17 -15 0 -4 -15 -14 -11 -7
-16 -14 -2 -5 -16 -15 -12 -8
-13 -12 0 -4 -16 -14 -11 -8
-10 -9 1 -3 -15 -13 -10 -8
-6 -7 2 -2 -15 -12 -9 -8
-3 -4 2 -2 -15 -12 -8 -8
-2 -4 3 0 -14 -11 -7 -7
-2 -5 2 0 -14 -12 -8 -8
-2 -7 1 0 -14 -12 -8 -9
-2 -9 0 0 -14 -13 -9 -10
-2 -10 0 0 -14 -13 -9 -10
-3 -12 -2 -2 -14 -15 -11 -12
-5 -13 0 1 -14 -16 -12 -15
-7 -15 1 2 -14 -17 -14 -17
-9 -17 2 3 -14 -19 -16 -20
-11 -18 3 4 -14 -20 -17 -22
-13 -19 7 10 -9 -19 -18 -23
-14 -20 11 17 -2 -17 -17 -24
-15 -21 15 23 7 -14 -17 -25
-17 -22 19 30 14 -12 -16 -26
-18 -23 24 37 22 -9 -16 -26
-7 -24 25 49 39 11 4 -13
9 -22 26 62 59 35 28 6
24 -21 27 75 78 60 52 25
40 -20 28 88 98 85 76 44
56 -19 28 101 117 109 100 63
73 -2 5 75 114 140 140 101
91 19 -26 37 102 171 184 144
108 39 -58 1 91 202 228 187
127 61 -89 -36 78 233 272 230
144 81 -120 -74 67 265 316 273
140 97 -146 -117 30 250 313 278
129 111 -170 -162 -13 220 297 272
117 125 -194 -206 -57 190 279 266
106 139 -218 -252 -101 160 263 259
95 153 -241 -297 -144 131 245 253
70 142 -230 -302 -176 77 185 200
43 122 -207 -296 -204 17 113 135
15 104 -185 -288 -232 -43 40 69
-13 85 -162 -282 -261 -103 -32 4
-40 66 -140 -275 -288 -162 -105 -62
-51 48 -121 -249 -274 -169 -118 -81
-55 29 -103 -218 -245 -158 -114 -88
-59 11 -85 -186 -217 -147 -109 -94
-63 -8 -66 -154 -188 -137 -105 -100
-68 -26 -48 -123 -159 -126 -101 -106
-68 -31 -41 -108 -144 -118 -97 -107
-66 -32 -40 -97 -134 -113 -94 -106
-65 -32 -39 -87 -122 -107 -91 -104
-63 -33 -37 -76 -112 -101 -88 -102
-61 -33 -36 -66 -101 -96 -85 -101
-56 -33 -33 -55 -90 -87 -77 -95
-50 -30 -30 -44 -77 -77 -69 -89
-44 -27 -27 -33 -65 -68 -61 -81
-37 -25 -24 -22 -54 -59 -53 -75
-31 -22 -21 -11 -41 -50 -45 -68
-26 -20 -19 -3 -33 -44 -40 -64
-20 -19 -17 5 -26 -38 -36 -61
-15 -17 -16 12 -19 -34 -32 -58
-10 -15 -14 19 -12 -29 -28 -54
-5 -14 -12 26 -5 -25 -24 -51
-3 -13 -11 28 -3 -23 -23 -50
-4 -13 -11 29 0 -22 -22 -49
-5 -12 -11 29 1 -21 -21 -48
-6 -12 -11 30 2 -20 -20 -47
-7 -12 -11 30 3 -19 -20 -47
-7 -11 -11 31 4 -18 -19 -46
-6 -11 -11 31 4 -18 -19 -46
-5 -11 -11 32 3 -19 -19 -46
-3 -11 -11 32 3 -19 -19 -46
-2 -11 -11 32 3 -19 -19 -46
-2 -13 -12 33 2 -20 -19 -46
-4 -14 -12 34 4 -19 -18 -45
-7 -15 -12 35 5 -18 -17 -45
-9 -17 -12 35 6 -17 -16 -44
-11 -18 -12 36 7 -16 -15 -44
-12 -18 -13 38 8 -15 -14 -43
-12 -16 -12 40 9 -14 -13 -41
-12 -15 -11 42 10 -14 -13 -40
-12 -13 -10 44 11 -13 -12 -40
-12 -11 -9 46 12 -13 -12 -39
-12 -10 -8 46 13 -12 -11 -38
-9 -11 -7 43 12 -12 -12 -39
-6 -12 -7 39 11 -13 -12 -40
-4 -12 -6 37 10 -13 -13 -41
0 -13 -6 34 9 -13 -13 -43
-2 -14 -3 32 8 -14 -14 -44
-6 -15 2 29 9 -14 -14 -44
-9 -16 5 27 9 -14 -14 -44
-13 -17 9 25 10 -14 -14 -44
-17 -18 13 22 10 -14 -14 -44
-15 -18 15 19 11 -13 -14 -43
-11 -17 17 16 11 -13 -14 -43
-6 -15 20 13 11 -13 -14 -43
-2 -14 22 10 11 -13 -14 -43
3 -12 24 7 11 -13 -14 -43
5 -11 28 6 12 -11 -12 -43
4 -10 32 7 14 -10 -11 -41
3 -9 36 7 15 -8 -9 -39
3 -8 40 8 17 -7 -8 -38
2 -7 45 8 19 -5 -6 -36
0 -7 47 7 20 -4 -6 -36
-2 -8 46 4 18 -5 -7 -38
-3 -10 46 1 17 -6 -8 -39
-5 -11 45 -3 16 -7 -10 -41
-6 -13 45 -7 15 -8 -11 -44
-6 -14 46 -8 14 -9 -12 -45
-4 -12 49 -7 15 -8 -12 -45
-2 -11 52 -7 15 -8 -12 -44
1 -10 55 -6 16 -7 -12 -44
3 -9 58 -6 16 -7 -12 -44
1 -10 59 -5 17 -6 -11 -43
-4 -14 59 -6 17 -6 -11 -45
-9 -18 59 -7 18 -6 -11 -46
-14 -22 59 -7 18 -6 -11 -47
-18 -25 59 -8 18 -6 -11 -48
-17 -25 59 -9 19 -6 -12 -49
-12 -21 61 -8 20 -5 -11 -47
-6 -18 62 -8 21 -4 -10 -46
0 -14 64 -7 22 -4 -9 -45
5 -11 66 -7 23 -3 -8 -44
7 -9 67 -6 24 -2 -7 -43
6 -10 68 -6 25 0 -6 -44
5 -11 68 -6 25 1 -6 -45
4 -11 69 -6 26 2 -5 -45
3 -12 69 -6 26 3 -5 -46
1 -13 70 -7 27 4 -4 -47
-2 -15 70 -6 28 4 -4 -47
-3 -16 71 -6 29 4 -4 -48
-5 -17 71 -5 30 4 -4 -48
-7 -18 71 -5 31 4 -4 -48
-7 -19 72 -4 32 4 -3 -48
-6 -17 73 -3 34 6 -2 -46
-4 -16 73 -2 35 7 0 -44
-3 -14 74 0 36 9 1 -40
0 -13 74 1 37 10 2 -38
2 -12 75 2 38 11 3 -36
5 -11 75 2 38 11 3 -35
7 -10 75 2 39 11 3 -33
9 -10 75 2 39 11 3 -32
12 -9 75 2 39 11 3 -30
13 -8 75 3 40 10 3 -28
12 -6 76 3 40 10 3 -25
12 -5 76 3 40 10 3 -22
11 -4 77 3 40 10 3 -19
11 -3 77 3 40 10 3 -16
8 -4 77 3 38 9 3 -15
3 -8 74 0 35 6 1 -16
-2 -12 72 -3 32 3 -2 -17
-6 -16 69 -6 29 0 -5 -18
-10 -20 66 -9 25 -5 -7 -19
-9 -22 65 -10 24 -6 -8 -20
-5 -22 66 -10 24 -6 -7 -18
1 -22 67 -10 24 -5 -7 -17
5 -22 68 -10 24 -5 -6 -15
10 -22 69 -10 24 -5 -6 -14
11 -20 70 -9 25 -4 -5 -12
8 -18 70 -9 23 -5 -4 -9
5 -17 69 -9 22 -5 -3 -7
2 -15 69 -9 20 -6 -3 -4
-2 -13 69 -9 19 -6 -2 0
0 -12 68 -10 18 -7 0 1
4 -12 68 -11 17 -8 0 1
8 -11 67 -12 16 -8 -2 1
12 -11 67 -13 15 -9 -2 1
16 -11 67 -14 14 -9 -2 1
18 -10 66 -15 13 -10 -3 0
18 -9 66 -15 12 -9 -2 2
18 -8 65 -16 11 -9 0 3
18 -7 65 -16 10 -8 0 4
18 -6 65 -16 9 -8 1 5
18 -5 64 -17 8 -7 2 6
17 -5 63 -17 6 -6 3 6
16 -6 62 -18 5 -5 4 6
15 -6 61 -18 4 -4 5 6
14 -6 60 -18 3 -3 6 6
14 -5 59 -19 2 -2 7 7
17 -2 59 -19 3 1 8 8
19 3 60 -20 4 2 9 10
22 6 60 -20 4 4 10 11
25 9 60 -20 5 5 11 12
22 9 60 -22 5 6 12 12
16 5 59 -24 3 5 11 11
9 0 57 -26 1 4 9 9
3 -5 55 -28 -3 3 8 7
-4 -9 53 -30 -5 2 7 5
-7 -10 52 -31 -6 1 6 4
-6 -8 53 -30 -6 1 6 4
-5 -6 54 -28 -6 1 7 4
-4 -4 54 -27 -6 1 8 4
-3 -2 55 -26 -6 1 8 4
0 0 56 -25 -6 2 9 5
3 2 55 -25 -6 2 8 4
6 3 54 -26 -7 1 6 3
9 5 53 -27 -8 0 5 3
12 6 52 -27 -8 0 4 2
11 6 51 -28 -9 -2 2 1
7 4 51 -28 -10 -3 1 -2
2 1 51 -28 -11 -4 -2 -3
-3 -2 51 -28 -11 -4 -3 -5
-7 -5 51 -28 -12 -5 -5 -6
-9 -5 51 -29 -13 -6 -6 -7
-9 -3 51 -28 -12 -6 -6 -7
-8 0 52 -26 -11 -5 -5 -6
-7 3 53 -25 -10 -4 -4 -5
-7 5 53 -24 -9 -4 -4 -5
-6 6 54 -23 -8 -3 -3 -4
-6 5 54 -23 -8 -3 -3 -4
-5 4 53 -22 -8 -3 -4 -5
-5 3 53 -22 -8 -3 -4 -5
-5 2 53 -22 -8 -3 -4 -5
-4 1 52 -21 -7 -4 -5 -6
-3 1 52 -21 -7 -4 -5 -6
-2 2 52 -21 -6 -4 -5 -7
-2 2 52 -21 -5 -4 -5 -7
0 2 52 -21 -5 -4 -5 -7
0 3 51 -20 -4 -4 -6 -8
-4 3 51 -20 -4 -4 -6 -8
-7 2 51 -19 -3 -3 -5 -7
-10 1 51 -19 -3 -2 -5 -7
-12 1 51 -19 -3 -2 -5 -7
-12 3 50 -17 0 1 -3 -5
-9 9 50 -15 2 3 0 -4
-6 14 51 -13 4 5 2 -2
-3 20 51 -11 6 7 4 0
1 25 51 -8 9 10 7 2
2 25 51 -7 9 10 7 2
-2 20 50 -8 8 9 6 1
-5 14 48 -10 6 7 4 -2
-8 9 46 -11 4 5 2 -3
-11 4 44 -12 2 3 0 -5
-13 1 43 -13 1 2 -2 -6
-13 1 42 -13 2 3 0 -6
-12 1 39 -13 3 4 1 -5
-12 1 38 -13 3 4 1 -4
-12 1 37 -13 4 5 2 -4
-8 4 36 -12 5 6 3 -3
-2 8 37 -10 6 7 5 -2
5 12 38 -9 7 8 6 1
11 17 38 -7 8 8 8 2
17 21 39 -6 9 9 9 3
16 22 40 -5 10 10 10 4
9 19 38 -6 9 9 9 3
2 16 37 -8 8 8 8 2
-7 13 35 -9 7 8 7 2
-14 11 34 -10 6 7 6 1
-17 9 33 -11 5 6 5 0
-16 9 33 -10 5 7 6 1
-14 10 33 -9 6 8 7 2
-13 11 33 -8 7 8 7 3
-12 11 33 -7 7 9 8 4
-11 13 33 -6 8 10 9 5
-9 17 32 -6 8 10 9 5
-8 20 31 -6 8 11 9 6
-6 23 31 -6 8 11 9 6
-5 26 30 -6 8 11 9 6
-4 28 29 -5 9 12 10 7
-2 28 29 -5 9 12 10 7
1 29 29 -5 9 12 10 8
2 30 29 -5 9 12 10 8
4 30 29 -5 9 12 10 8
5 31 29 -4 8 12 11 9
5 30 28 -4 8 13 12 10
5 29 27 -3 7 14 13 11
5 28 26 -2 7 14 13 11
5 27 25 -2 7 15 14 12
5 25 23 -2 6 15 14 13
1 23 21 -4 4 13 12 11
-3 21 19 -6 3 11 10 9
-6 19 17 -8 1 9 8 8
-9 17 15 -11 0 6 6 6
-9 17 14 -12 -2 5 6 5
-5 20 14 -11 1 7 8 7
0 23 13 -10 2 8 11 9
4 26 12 -10 4 10 13 10
8 28 12 -9 5 11 16 12
10 30 11 -8 6 12 17 13
10 30 10 -8 6 12 17 14
10 29 9 -8 6 13 16 15
10 29 8 -8 6 13 16 15
10 29 7 -8 6 13 16 16
9 27 6 -9 5 14 15 17
9 25 6 -9 5 13 14 16
10 23 7 -9 4 12 13 15
10 21 8 -9 4 12 12 15
10 19 8 -9 4 11 11 14
10 17 9 -9 3 9 9 13
7 15 9 -9 1 7 8 11
4 12 9 -8 -2 5 6 9
1 10 9 -8 -3 3 4 8
-2 8 9 -8 -5 1 2 6
-3 6 9 -7 -6 0 1 5
0 7 9 -8 -8 -3 0 3
2 8 9 -9 -9 -5 -2 2
4 8 9 -9 -11 -6 -2 0
6 9 9 -10 -12 -8 -3 -2
6 10 8 -11 -13 -9 -4 -3
4 8 8 -10 -13 -9 -4 -3
2 6 8 -9 -13 -9 -4 -3
0 5 8 -9 -13 -9 -4 -3
-4 3 8 -8 -13 -9 -4 -3
-5 2 7 -7 -12 -8 -5 -3
-7 2 7 -7 -12 -8 -5 -3
-9 1 7 -6 -11 -7 -4 -2
-10 1 7 -5 -10 -6 -4 0
-12 1 7 -5 -10 -6 -4 0
-14 -2 8 -4 -9 -5 -3 1
-15 -4 6 -4 -11 -7 -4 0
-17 -6 4 -5 -12 -8 -6 -3
-19 -8 3 -6 -13 -9 -7 -4
-21 -11 1 -6 -15 -11 -8 -5
-19 -11 0 -7 -16 -12 -9 -6
-13 -8 0 -7 -16 -12 -9 -6
-7 -5 1 -6 -15 -11 -8 -5
1 -3 1 -5 -15 -10 -8 -5
7 1 1 -5 -15 -10 -8 -5
7 2 2 -4 -14 -9 -7 -4
1 0 2 -4 -14 -9 -7 -4
-5 -4 1 -4 -15 -10 -8 -4
-11 -6 0 -4 -15 -11 -8 -4
-17 -8 0 -4 -15 -11 -8 -4
-19 -10 -2 -5 -16 -12 -9 -5
-16 -8 -2 -4 -16 -12 -9 -5
-14 -7 -2 -3 -16 -12 -10 -6
-11 -6 -2 -2 -16 -12 -10 -6
-9 -4 -2 0 -16 -12 -10 -6
-6 -3 1 3 -16 -12 -11 -8
-4 -3 5 7 -14 -12 -13 -11
-2 -3 9 12 -11 -13 -14 -14
1 -3 12 16 -9 -13 -15 -16
3 -3 16 20 -7 -13 -17 -19
3 -5 18 26 0 -11 -16 -20
-3 -8 18 33 8 -4 -11 -17
-8 -12 19 39 15 4 -6 -15
-12 -16 20 47 23 11 -2 -12
-17 -20 20 53 31 18 4 -10
-9 -17 20 59 45 39 26 10
15 -8 16 64 63 71 63 44
37 3 13 69 81 104 100 77
60 12 9 74 100 137 138 111
82 22 6 79 118 170 175 145
99 38 -19 52 110 191 207 180
109 62 -62 -6 76 204 237 214
119 85 -104 -63 44 218 267 248
131 107 -147 -120 10 231 298 283
141 130 -190 -178 -23 244 327 318
133 137 -211 -217 -62 219 307 308
108 130 -212 -239 -107 159 241 258
82 121 -214 -262 -151 99 176 206
58 113 -215 -283 -195 39 110 155
32 105 -216 -306 -239 -21 45 105
11 92 -203 -305 -261 -61 -2 63
-7 74 -178 -281 -263 -82 -29 29
-25 56 -152 -258 -265 -105 -58 -5
-44 37 -127 -234 -266 -127 -86 -38
-61 20 -101 -211 -268 -148 -113 -72
-70 6 -83 -188 -257 -154 -126 -89
-72 -6 -73 -166 -231 -145 -119 -89
-74 -16 -63 -145 -206 -135 -114 -90
-76 -27 -53 -123 -182 -124 -108 -91
-78 -37 -41 -102 -156 -114 -103 -91
-75 -40 -35 -87 -139 -106 -97 -90
-67 -33 -32 -77 -129 -99 -91 -83
-59 -26 -29 -67 -118 -91 -85 -78
-51 -20 -26 -58 -108 -83 -78 -73
-41 -13 -23 -49 -97 -76 -72 -67
-37 -10 -21 -39 -87 -69 -66 -62
-35 -12 -20 -29 -76 -62 -62 -58
-34 -14 -19 -20 -66 -55 -57 -54
-33 -16 -19 -10 -56 -49 -52 -50
-31 -18 -18 0 -45 -41 -48 -46
-28 -19 -16 6 -37 -36 -44 -43
-24 -16 -14 10 -33 -32 -40 -39
-19 -13 -12 14 -28 -29 -37 -36
-15 -11 -10 18 -23 -26 -35 -34
-11 -8 -8 22 -19 -22 -32 -31
-8 -6 -6 24 -16 -20 -30 -29
-8 -6 -6 24 -16 -20 -29 -28
-9 -6 -6 25 -15 -19 -28 -27
-10 -6 -6 26 -15 -18 -28 -26
-10 -6 -6 26 -15 -18 -27 -25
-10 -6 -5 27 -13 -17 -26 -24
-7 -4 -4 28 -11 -15 -26 -23
-4 -2 -3 29 -9 -14 -26 -21
0 1 -3 29 -7 -13 -26 -20
3 2 -2 30 -6 -11 -26 -19
4 2 -2 31 -5 -11 -25 -19
0 -4 -4 31 -8 -13 -25 -21
-4 -9 -6 30 -10 -15 -25 -23
-7 -15 -8 29 -13 -18 -26 -25
-11 -20 -10 29 -16 -20 -26 -27
-13 -23 -12 28 -18 -22 -27 -29
-14 -23 -12 28 -16 -21 -27 -28
-14 -23 -11 28 -15 -21 -28 -28
-15 -24 -10 28 -13 -20 -29 -27
-16 -24 -10 28 -11 -19 -29 -26
-17 -24 -9 27 -10 -18 -30 -25
-17 -21 -8 29 -9 -16 -28 -23
-17 -18 -7 30 -9 -15 -27 -22
-17 -15 -6 31 -8 -14 -26 -21
-17 -12 -5 33 -7 -12 -24 -19
-18 -10 -4 34 -6 -11 -23 -18
-18 -10 -4 34 -6 -11 -23 -18
-18 -11 -4 34 -5 -11 -23 -18
-18 -12 -4 35 -4 -11 -23 -18
-18 -12 -4 35 -4 -11 -23 -18
-16 -13 -4 36 -3 -11 -24 -19
-13 -13 -5 35 -4 -11 -24 -19
-10 -13 -5 35 -5 -11 -25 -19
-7 -13 -6 34 -6 -12 -26 -19
-4 -13 -7 33 -7 -12 -26 -19
-2 -13 -8 32 -8 -13 -27 -19
-3 -13 -8 34 -6 -12 -26 -19
-4 -13 -8 35 -4 -12 -25 -19
-6 -13 -7 37 -2 -11 -24 -18
-7 -13 -7 39 1 -10 -23 -18
-8 -13 -6 40 3 -9 -22 -17
-8 -13 -6 40 3 -9 -22 -18
-8 -14 -6 40 3 -9 -23 -18
-9 -15 -7 42 3 -9 -24 -19
-9 -15 -7 42 3 -9 -24 -20
-11 -17 -8 43 2 -9 -25 -21
-13 -19 -9 43 2 -9 -25 -22
-15 -21 -10 43 2 -9 -25 -22
-18 -23 -11 43 3 -9 -25 -23
-20 -25 -12 43 3 -9 -25 -24
-21 -27 -13 43 4 -9 -25 -25
-17 -25 -13 45 6 -8 -24 -23
-14 -23 -13 46 7 -7 -23 -21
-10 -21 -13 48 8 -5 -22 -19
-6 -19 -13 50 10 -4 -21 -17
-4 -17 -12 51 11 -3 -20 -15
-3 -16 -10 53 13 -2 -20 -15
-2 -15 -9 54 14 -2 -20 -15
0 -13 -7 55 15 0 -20 -15
1 -12 -5 57 17 1 -20 -15
1 -11 -4 58 18 2 -19 -16
-4 -12 -4 58 18 1 -20 -17
-8 -13 -5 58 18 0 -21 -17
-12 -15 -6 58 18 -3 -23 -18
-16 -16 -6 58 18 -4 -24 -19
-19 -17 -7 58 19 -5 -25 -20
-18 -17 -7 60 21 -3 -23 -19
-17 -18 -7 61 23 0 -22 -18
-15 -19 -7 62 25 2 -20 -17
-14 -19 -7 64 27 4 -18 -16
-13 -20 -6 65 28 5 -17 -15
-11 -20 -6 65 28 5 -17 -15
-10 -20 -6 66 28 5 -17 -15
-9 -20 -5 67 28 5 -16 -14
-7 -20 -5 67 28 5 -16 -14
-5 -20 -4 68 29 5 -15 -13
-3 -19 -5 67 29 4 -15 -13
0 -19 -6 67 29 3 -15 -13
3 -18 -7 66 29 2 -16 -13
5 -17 -8 65 29 1 -16 -13
7 -16 -9 64 29 0 -17 -14
7 -16 -9 62 27 0 -17 -14
7 -16 -9 61 25 0 -18 -14
8 -15 -10 60 22 -2 -19 -14
8 -15 -10 58 20 -2 -19 -14
9 -14 -11 57 18 -3 -20 -13
8 -16 -11 57 18 -5 -21 -13
8 -18 -12 57 17 -6 -22 -14
7 -20 -13 57 16 -7 -23 -15
6 -22 -13 57 16 -9 -24 -15
5 -23 -14 56 15 -10 -25 -16
7 -20 -13 56 14 -10 -24 -15
9 -18 -13 56 13 -10 -24 -14
11 -15 -12 55 12 -11 -23 -13
12 -12 -11 55 11 -11 -22 -12
13 -11 -10 54 10 -12 -21 -11
8 -16 -11 52 8 -15 -22 -12
3 -20 -12 50 7 -17 -23 -13
-2 -24 -14 48 5 -19 -25 -15
-7 -28 -15 47 3 -21 -26 -16
-9 -30 -16 45 2 -23 -26 -17
-6 -26 -16 45 2 -22 -24 -15
-2 -23 -16 45 2 -21 -22 -13
2 -19 -16 45 1 -19 -19 -11
6 -16 -16 45 1 -18 -17 -10
7 -14 -16 44 0 -17 -15 -8
4 -16 -16 42 0 -17 -15 -8
1 -18 -16 39 -2 -17 -16 -8
-3 -21 -17 37 -3 -16 -17 -8
-6 -23 -17 36 -3 -16 -17 -8
-6 -23 -18 34 -4 -14 -18 -9
2 -18 -17 34 -4 -12 -15 -7
9 -12 -16 35 -4 -10 -13 -5
16 -6 -15 36 -4 -7 -11 -3
23 0 -14 36 -4 -5 -9 0
26 4 -13 37 -4 -3 -7 2
21 3 -13 36 -4 -3 -7 1
16 2 -13 36 -5 -3 -7 1
11 0 -14 35 -6 -3 -8 0
6 -2 -14 34 -6 -3 -8 -2
2 -3 -15 33 -7 -4 -9 -3
3 -3 -15 32 -9 -4 -9 -3
3 -3 -15 30 -10 -4 -9 -4
4 -4 -16 29 -12 -4 -10 -5
5 -4 -16 27 -14 -4 -10 -5
6 -4 -17 26 -15 -5 -11 -6
8 2 -15 26 -14 -4 -10 -5
10 6 -13 26 -13 -3 -9 -5
12 10 -11 26 -12 0 -8 -4
14 15 -9 26 -11 1 -7 -3
15 17 -7 26 -10 2 -6 -2
11 12 -9 24 -12 -2 -9 -4
6 7 -10 23 -14 -4 -11 -6
2 3 -12 21 -16 -7 -14 -8
-3 -3 -14 19 -17 -9 -16 -10
-6 -6 -15 18 -19 -11 -18 -12
-6 -5 -14 19 -18 -11 -18 -12
-6 -4 -13 19 -18 -11 -18 -12
-6 -3 -11 20 -17 -11 -18 -12
-6 -2 -10 21 -16 -11 -18 -12
-6 0 -9 22 -15 -10 -17 -11
-6 -2 -9 21 -16 -10 -17 -12
-6 -3 -9 20 -16 -10 -18 -12
-6 -4 -9 19 -17 -10 -19 -13
-6 -5 -9 18 -18 -10 -19 -14
-6 -5 -9 17 -19 -10 -20 -15
-2 1 -9 18 -18 -10 -20 -15
2 5 -8 18 -17 -10 -20 -15
6 9 -7 19 -15 -10 -20 -15
9 14 -7 20 -14 -10 -20 -15
11 17 -6 21 -13 -9 -19 -16
8 15 -6 22 -12 -8 -18 -15
5 14 -5 22 -11 -7 -17 -14
2 12 -4 23 -9 -5 -15 -12
-2 10 -4 24 -8 -4 -14 -11
-4 9 -3 25 -7 -3 -13 -10
-4 8 -3 25 -7 -3 -13 -10
-4 7 -3 24 -7 -3 -13 -10
-4 6 -3 23 -7 -3 -13 -10
-4 5 -3 23 -7 -3 -13 -10
-5 4 -2 22 -6 -2 -12 -11
-5 4 -2 22 -6 -2 -10 -11
-5 4 -2 23 -6 -2 -8 -10
-5 4 -2 24 -5 0 -6 -9
-5 4 -2 24 -5 0 -5 -9
-6 3 0 25 -4 1 -3 -8
-6 3 0 24 -4 1 -4 -8
-7 3 0 22 -4 1 -5 -8
-8 3 -2 21 -5 1 -7 -8
-8 3 -2 19 -5 1 -8 -8
-9 2 -3 18 -6 0 -9 -9
-8 2 -3 18 -6 0 -9 -9
-7 1 -3 18 -6 0 -9 -9
-5 0 -4 18 -6 0 -8 -9
-4 0 -4 18 -6 0 -8 -9
-3 -2 -5 17 -7 1 -7 -9
-3 1 -3 17 -7 1 -6 -8
-3 3 -2 17 -7 2 -6 -7
-3 5 1 18 -6 3 -5 -6
-3 7 2 18 -6 3 -4 -5
-2 9 4 19 -5 4 -3 -4
-4 8 4 18 -5 4 -3 -4
-6 8 4 17 -5 4 -3 -4
-8 7 3 16 -6 4 -3 -4
-9 6 3 15 -6 4 -3 -4
-11 5 2 14 -7 3 -4 -3
-9 7 2 14 -7 3 -3 -3
-6 10 2 14 -7 3 -2 -2
-4 12 3 14 -6 4 0 0
-2 14 3 14 -6 4 1 0
1 16 4 13 -5 5 2 1
2 17 4 13 -5 6 2 2
4 18 4 13 -5 6 3 2
5 20 4 13 -5 7 4 3
7 21 4 13 -5 8 4 4
8 22 3 13 -4 9 5 5
8 22 3 13 -4 9 5 5
7 22 3 13 -4 9 5 5
6 22 4 12 -4 8 5 5
6 22 4 12 -4 8 5 5
5 22 5 11 -3 7 4 4
8 23 4 9 -4 6 4 4
10 24 3 8 -5 6 4 5
13 25 2 6 -7 5 4 6
15 26 1 5 -8 4 4 6
16 27 0 3 -9 3 3 7
12 24 0 3 -8 4 4 7
9 22 0 3 -7 5 4 7
5 19 -2 4 -5 7 5 6
1 17 -2 4 -4 8 6 6
-2 15 -3 5 -3 9 7 5
2 18 -4 5 -3 9 7 7
5 20 -4 5 -3 9 7 10
9 23 -5 5 -3 9 7 12
12 25 -6 5 -3 9 7 14
15 26 -7 4 -2 9 8 16
12 23 -7 3 -3 9 9 16
9 20 -7 3 -4 9 10 16
7 16 -6 2 -5 9 11 15
4 13 -6 1 -7 9 12 15
2 10 -5 0 -8 10 13 14
1 10 -4 0 -8 8 11 13
0 10 -4 0 -9 6 9 11
-2 10 -3 0 -9 5 8 10
-4 10 -2 0 -10 3 6 8
-5 11 0 -2 -11 1 4 7
-3 8 0 -3 -12 -2 3 5
-2 5 0 -4 -13 -4 1 4
1 2 1 -5 -14 -5 0 2
2 -2 1 -6 -15 -7 -3 1
4 -4 2 -7 -16 -9 -4 -2
4 -2 4 -5 -15 -9 -4 -2
4 1 7 -3 -15 -9 -4 -2
4 3 9 0 -14 -8 -3 -2
4 5 11 2 -13 -8 -3 -2
5 7 13 4 -12 -7 -2 0
6 7 10 3 -12 -8 -3 -2
6 7 7 1 -12 -9 -4 -2
7 7 5 0 -13 -10 -5 -3
8 7 2 -3 -13 -11 -7 -4
9 6 0 -4 -14 -12 -8 -5
7 5 0 -4 -14 -12 -7 -5
4 5 1 -4 -14 -11 -7 -4
2 4 1 -3 -13 -11 -6 -4
0 3 2 -3 -13 -10 -5 -3
-3 2 3 -2 -12 -9 -4 -2
-3 2 2 0 -12 -10 -5 -3
-2 2 2 0 -12 -11 -6 -3
-2 2 1 1 -12 -12 -7 -4
0 2 0 2 -12 -14 -9 -5
1 1 -2 3 -11 -15 -10 -6
-2 -2 -3 2 -11 -15 -10 -6
-4 -4 -3 2 -11 -15 -10 -6
-5 -5 -4 1 -12 -15 -10 -7
-7 -7 -5 0 -12 -15 -10 -7
-9 -9 -6 -2 -13 -15 -11 -8
-8 -8 -6 -2 -12 -15 -11 -8
-8 -7 -5 0 -12 -15 -10 -7
-7 -6 -5 0 -11 -14 -10 -7
-6 -4 -4 1 -10 -14 -9 -6
-5 -3 -3 2 -9 -13 -8 -5
-6 -6 -2 2 -9 -14 -9 -6
-8 -8 -2 2 -9 -15 -11 -7
-9 -10 0 2 -9 -16 -12 -8
-11 -13 1 2 -9 -17 -14 -9
-11 -14 3 5 -7 -17 -15 -10
-7 -11 8 12 1 -13 -15 -10
-3 -7 13 19 9 -9 -14 -11
2 -4 19 26 17 -5 -14 -11
7 1 24 33 24 0 -13 -12
10 3 28 40 34 7 -8 -10
9 -4 28 50 49 23 9 4
8 -9 28 59 63 40 26 16
7 -15 29 67 78 57 43 29
6 -21 29 76 93 73 59 43
12 -20 27 77 104 95 85 64
38 1 14 56 104 130 131 110
65 21 1 35 104 164 178 155
92 42 -13 14 104 199 225 200
118 61 -26 -8 104 233 272 246
138 82 -47 -38 92 257 306 281
136 105 -85 -91 48 246 304 288
134 128 -123 -142 3 236 302 296
133 150 -161 -194 -43 226 301 304
131 173 -200 -246 -87 217 299 311
119 183 -223 -284 -129 189 274 298
84 157 -201 -284 -162 115 193 226
47 132 -181 -285 -197 43 112 155
11 106 -159 -285 -232 -30 31 84
-25 80 -138 -286 -266 -104 -50 12
-52 58 -118 -280 -285 -156 -109 -43
-52 40 -101 -251 -260 -151 -108 -53
-53 23 -82 -221 -234 -146 -107 -62
-53 6 -65 -192 -208 -140 -106 -72
-54 -12 -48 -162 -183 -135 -105 -82
-55 -25 -33 -138 -160 -129 -103 -90
-55 -25 -28 -124 -146 -121 -97 -87
-54 -26 -23 -111 -133 -113 -90 -85
-54 -26 -18 -98 -119 -106 -83 -82
-53 -27 -13 -85 -105 -98 -77 -79
-51 -28 -9 -72 -93 -91 -71 -76
-48 -26 -8 -65 -83 -83 -66 -69
-44 -24 -7 -57 -74 -77 -60 -63
-39 -21 -6 -49 -64 -70 -55 -56
-35 -19 -4 -40 -55 -63 -49 -49
-31 -17 -3 -32 -46 -56 -44 -43
-25 -13 1 -23 -34 -48 -37 -36
-19 -9 3 -15 -24 -39 -31 -30
-14 -5 6 -6 -14 -31 -25 -24
-8 0 9 4 -3 -23 -19 -18
-3 3 11 11 6 -16 -14 -13
-2 3 12 11 7 -16 -14 -13
0 3 14 11 9 -15 -14 -12
1 3 15 12 10 -15 -13 -12
3 3 16 12 11 -14 -13 -11
4 3 18 13 13 -13 -12 -10
4 4 18 13 13 -13 -12 -10
4 6 18 14 14 -13 -12 -10
4 7 18 14 14 -12 -11 -9
4 8 18 15 15 -12 -11 -9
3 9 18 16 16 -11 -10 -8
-2 4 17 14 16 -12 -11 -8
-5 -2 17 13 15 -13 -12 -8
-9 -7 16 11 15 -14 -13 -8
-13 -13 15 10 14 -15 -14 -8
-17 -17 14 8 13 -16 -15 -9
-16 -16 15 9 13 -15 -14 -9
-15 -15 16 10 14 -14 -13 -8
-14 -14 17 11 14 -13 -12 -7
-12 -13 19 12 15 -12 -11 -6
-11 -12 20 13 16 -11 -10 -5
-11 -12 20 13 16 -11 -10 -5
-12 -12 20 13 17 -11 -10 -5
-12 -12 21 13 17 -10 -9 -5
-13 -12 21 13 18 -10 -9 -5
-14 -13 22 13 19 -9 -8 -4
-10 -13 22 13 19 -9 -8 -4
-7 -12 22 13 19 -9 -8 -4
-3 -12 22 12 19 -9 -8 -4
1 -11 22 12 19 -9 -8 -4
4 -10 22 11 18 -10 -9 -4
2 -10 23 11 19 -10 -9 -4
0 -10 24 11 20 -10 -9 -4
-2 -10 25 12 21 -9 -8 -4
-4 -10 26 12 23 -9 -8 -4
-6 -10 27 13 24 -8 -7 -3
-5 -10 27 13 24 -8 -7 -3
-3 -10 27 14 24 -8 -7 -3
0 -10 26 14 24 -7 -6 -3
1 -10 26 15 24 -7 -6 -3
3 -10 25 16 24 -6 -5 -3
4 -9 26 16 25 -6 -5 -3
5 -7 27 17 27 -5 -4 -2
6 -5 28 17 28 -4 -3 0
7 -4 29 18 29 -3 -2 1
8 -2 30 19 31 -2 0 2
8 -2 30 19 31 -2 0 2
9 0 30 19 31 -2 0 2
10 0 30 19 31 -2 0 2
11 1 30 19 31 -2 0 2
11 2 29 20 32 0 0 1
6 -2 29 20 33 0 0 1
1 -6 29 20 34 0 0 1
-5 -9 29 21 35 0 0 1
-10 -12 29 21 36 0 0 1
-15 -15 28 22 37 1 -2 1
-14 -15 28 23 37 1 -2 1
-13 -15 28 25 37 1 -2 1
-12 -15 28 26 38 1 -3 0
-10 -15 28 27 38 1 -3 0
-9 -16 28 29 39 2 -4 -2
-6 -16 28 29 40 2 -4 -2
-2 -16 28 28 42 2 -4 -2
2 -16 28 27 43 2 -4 -2
5 -16 28 26 45 2 -4 -2
8 -15 27 25 46 3 -3 0
8 -14 28 26 48 5 -2 1
8 -13 30 28 49 7 1 3
7 -12 31 30 51 9 3 4
7 -11 32 31 53 11 4 5
6 -10 34 33 55 13 6 7
5 -10 33 33 55 13 6 7
4 -10 32 33 55 12 5 7
3 -10 31 33 56 12 4 7
2 -10 30 33 56 11 3 7
1 -9 29 33 57 10 2 6
4 -9 29 33 57 10 2 6
7 -9 29 33 58 11 2 6
9 -8 29 33 58 12 3 7
12 -8 29 33 59 13 3 7
15 -7 29 34 60 14 4 8
16 -7 29 34 60 14 6 9
18 -7 30 35 61 14 7 11
20 -6 30 36 62 14 9 12
21 -6 31 37 63 14 11 13
23 -5 32 38 64 14 13 15
20 -8 31 36 62 12 12 14
17 -10 30 35 61 11 11 13
14 -13 29 33 59 9 10 12
11 -15 27 31 57 7 8 10
8 -18 26 29 55 5 7 9
8 -16 26 29 55 5 7 9
8 -15 26 29 55 4 7 9
8 -13 26 28 54 4 7 9
8 -11 26 28 54 3 7 9
7 -9 26 27 53 2 8 10
7 -11 25 26 51 0 8 10
8 -12 24 24 49 -2 7 10
9 -14 23 23 47 -4 7 9
10 -16 22 22 44 -6 6 9
11 -18 21 20 42 -8 5 8
11 -18 21 20 42 -8 5 8
11 -18 21 20 42 -8 6 8
11 -17 21 20 40 -9 6 9
11 -17 21 20 40 -9 7 9
11 -16 21 19 39 -10 8 10
11 -15 21 19 39 -10 8 11
11 -14 21 19 39 -9 9 12
11 -13 21 19 38 -8 10 13
11 -12 21 19 38 -7 11 14
10 -11 21 18 37 -6 12 15
10 -11 20 16 35 -6 12 15
10 -11 19 13 34 -6 11 14
10 -11 18 11 32 -5 11 14
10 -11 16 8 30 -5 10 13
11 -12 15 6 28 -4 9 12
12 -9 15 6 28 -3 9 12
13 -6 16 7 29 -2 10 13
14 -4 17 7 30 0 11 14
15 0 18 8 31 1 12 15
17 3 19 9 32 2 13 16
17 5 19 9 32 2 13 16
18 7 19 8 31 3 13 16
18 9 19 8 30 4 12 16
19 11 19 7 29 5 12 16
20 13 19 6 28 6 11 15
18 13 19 6 28 6 11 15
17 12 19 6 28 6 10 14
15 11 19 5 27 6 9 13
13 10 19 5 27 6 8 12
11 9 20 4 26 5 7 11
8 6 19 2 24 3 5 9
5 3 18 0 21 0 3 8
2 1 17 -3 19 -3 1 6
-2 -3 16 -5 17 -5 -3 4
-5 -6 14 -7 14 -8 -5 2
-5 -6 14 -7 14 -8 -5 2
-5 -6 14 -6 14 -8 -6 1
-6 -6 15 -5 14 -8 -6 1
-6 -6 15 -4 14 -8 -7 0
-7 -7 16 -3 14 -9 -8 -2
-5 -5 16 -3 14 -9 -8 -2
-3 -3 16 -2 15 -8 -7 -2
0 0 17 0 16 -8 -6 -2
3 3 17 1 17 -7 -5 -2
5 5 18 2 18 -6 -4 0
2 3 18 2 18 -6 -4 0
-2 2 18 2 18 -5 -4 0
-6 0 17 2 18 -5 -5 -2
-9 -3 17 2 18 -4 -5 -2
-12 -5 16 2 18 -3 -6 -3
-12 -5 16 2 19 -3 -6 -3
-11 -5 16 3 20 -3 -5 -3
-11 -5 16 4 21 -3 -5 -2
-10 -5 16 5 22 -3 -4 -2
-9 -4 16 6 23 -2 -3 0
-7 0 17 8 25 1 -2 1
-6 3 19 10 27 2 1 2
-4 6 21 12 29 4 3 3
-2 9 22 14 31 6 4 4
1 12 24 16 33 8 6 5
0 10 23 16 33 7 5 4
-2 7 21 15 32 6 4 3
-3 5 19 14 32 5 3 2
-4 3 18 13 31 4 2 1
-5 0 16 12 30 3 1 -2
-3 3 16 12 30 5 3 0
1 6 16 13 31 7 5 2
3 9 17 13 31 9 7 3
5 12 17 14 32 12 9 5
8 15 18 15 33 14 11 7
3 11 17 14 32 13 10 6
-2 7 16 13 30 12 9 5
-7 4 14 11 29 11 8 4
-11 0 13 10 27 10 7 3
-16 -5 11 8 25 8 5 2
-14 -4 11 8 25 8 5 2
-12 -3 10 8 25 8 5 2
-10 -2 9 9 25 9 5 2
-8 0 8 9 25 9 5 2
-6 1 7 10 26 10 6 3
-6 2 7 10 26 10 6 3
-6 4 7 10 26 10 6 3
-7 5 7 10 25 9 6 3
-7 7 7 10 25 9 6 3
-8 9 7 9 24 8 5 3
-8 9 7 9 24 8 5 3
-9 9 6 9 24 9 5 4
-9 9 6 9 24 9 6 5
-10 9 5 9 24 10 6 6
-11 10 4 10 23 11 7 7
-7 14 5 11 24 13 9 9
-3 19 7 12 25 15 11 12
2 23 9 14 27 17 13 14
6 28 11 15 28 19 15 16
10 32 13 17 30 21 17 19
8 29 11 16 29 19 15 17
5 26 9 15 27 16 12 15
3 23 7 13 25 14 10 13
1 19 4 12 23 12 8 11
-3 16 2 10 21 9 5 9
1 18 2 10 20 9 5 9
5 21 2 9 19 9 5 9
9 23 2 8 18 10 5 9
12 25 2 7 17 10 5 9
16 28 3 6 16 11 5 9
14 31 3 6 16 12 6 11
11 33 2 7 17 13 8 13
9 36 2 7 17 14 10 15
7 39 1 8 18 15 12 17
4 43 0 9 19 16 14 19
4 38 -3 7 17 15 14 18
4 34 -6 5 15 14 13 17
5 30 -8 3 13 13 12 16
5 25 -10 1 11 12 11 15
6 21 -13 -3 9 11 10 13
6 21 -13 -3 9 11 10 13
6 20 -12 -3 9 11 10 13
6 19 -11 -3 8 10 10 13
6 18 -10 -3 8 10 10 13
5 17 -9 -2 7 9 11 13
6 16 -8 -2 7 9 11 13
7 15 -7 0 7 9 11 13
8 13 -5 1 8 9 12 13
9 12 -4 2 8 9 12 13
10 10 -2 3 9 10 13 12
4 7 -2 2 6 7 10 10
-2 3 -2 1 4 4 7 7
-8 0 -3 -2 1 1 4 5
-13 -4 -3 -3 -3 -4 1 2
-19 -8 -4 -5 -6 -7 -3 -2
-17 -8 -4 -5 -6 -7 -3 -2
-14 -7 -4 -5 -6 -8 -3 -3
-12 -7 -3 -5 -7 -8 -4 -4
-9 -6 -3 -5 -7 -9 -4 -5
-6 -5 -2 -4 -8 -10 -5 -6
-6 -5 -2 -4 -8 -10 -5 -6
-6 -5 -2 -3 -8 -10 -5 -6
-7 -5 0 -2 -8 -10 -5 -5
-7 -5 0 0 -8 -10 -5 -5
-8 -5 1 1 -7 -10 -5 -4
-8 -5 0 -2 -9 -11 -6 -5
-8 -5 -3 -4 -11 -12 -7 -6
-8 -5 -5 -6 -13 -13 -9 -7
-8 -5 -7 -8 -15 -14 -10 -8
-8 -6 -9 -10 -17 -16 -12 -10
-8 -6 -7 -8 -16 -15 -11 -9
-8 -6 -5 -6 -14 -14 -10 -8
-8 -6 -3 -4 -13 -13 -9 -7
-8 -6 0 -2 -11 -12 -8 -6
-8 -5 3 1 -9 -11 -6 -5
-8 -5 2 0 -9 -11 -7 -5
-7 -6 1 -2 -10 -12 -8 -6
-7 -6 0 -3 -11 -12 -9 -7
-6 -7 -2 -4 -12 -13 -10 -8
-5 -8 -3 -5 -13 -14 -12 -9
-5 -8 -3 -6 -14 -14 -12 -9
-6 -9 -3 -7 -15 -15 -13 -9
-7 -10 -3 -8 -16 -16 -13 -9
-8 -11 -3 -9 -17 -17 -14 -9
-9 -12 -4 -11 -18 -18 -15 -10
-8 -12 -3 -9 -17 -17 -14 -10
-7 -13 0 -7 -16 -16 -13 -9
-6 -13 2 -5 -14 -15 -12 -9
-5 -14 4 -3 -13 -14 -11 -8
-4 -15 6 1 -11 -13 -9 -7
-5 -17 10 6 -6 -13 -10 -9
-6 -19 14 11 0 -12 -12 -11
-8 -22 18 16 5 -12 -13 -13
-9 -24 22 22 10 -11 -15 -15
-11 -27 26 27 15 -10 -17 -18
-7 -24 27 37 31 11 2 -4
-3 -21 29 48 47 31 21 11
2 -17 31 59 63 51 39 25
6 -14 33 69 79 71 58 39
10 -10 35 79 95 92 77 55
22 -4 16 59 94 127 122 99
34 4 -3 38 93 161 168 142
46 10 -22 18 92 196 213 185
58 16 -41 -2 91 232 257 229
70 24 -61 -23 89 266 301 271
80 60 -91 -73 45 260 303 284
91 97 -121 -123 0 254 305 298
101 133 -152 -174 -45 247 308 311
111 170 -183 -224 -89 241 310 324
121 205 -213 -273 -133 233 311 336
89 175 -194 -273 -165 155 227 262
56 144 -176 -274 -198 78 144 188
23 113 -156 -275 -231 1 60 114
-10 82 -138 -276 -264 -77 -23 40
-43 53 -119 -277 -296 -153 -105 -31
-46 38 -102 -248 -271 -150 -105 -43
-50 23 -86 -220 -247 -146 -105 -53
-53 8 -68 -191 -223 -143 -106 -64
-57 -7 -52 -163 -199 -139 -106 -75
-61 -22 -34 -135 -175 -135 -107 -87
-60 -24 -29 -122 -161 -127 -101 -83
-58 -26 -24 -109 -147 -118 -95 -79
-56 -29 -18 -96 -134 -110 -89 -75
-54 -31 -13 -83 -120 -102 -82 -71
-52 -34 -7 -70 -106 -94 -76 -67
-48 -32 -7 -64 -98 -88 -72 -64
-44 -30 -7 -58 -90 -81 -68 -60
-39 -28 -6 -52 -80 -75 -63 -56
-35 -26 -6 -46 -72 -69 -59 -52
-30 -24 -5 -39 -63 -62 -54 -48
-26 -22 -3 -32 -55 -55 -49 -43
-22 -20 0 -25 -46 -48 -43 -37
-17 -18 2 -17 -36 -40 -37 -32
-13 -16 4 -10 -27 -33 -31 -27
-8 -14 7 -2 -18 -25 -25 -21
-8 -14 8 -2 -16 -24 -24 -20
-7 -15 9 0 -13 -23 -23 -19
-7 -16 10 1 -11 -22 -22 -18
-6 -17 11 2 -8 -21 -21 -17
-5 -18 12 3 -5 -20 -19 -15
-6 -20 13 3 -5 -19 -18 -14
-8 -22 14 4 -5 -18 -17 -13
-10 -24 15 5 -5 -17 -15 -12
-12 -26 16 6 -5 -16 -14 -11
-14 -28 18 7 -4 -15 -12 -9
-15 -27 18 7 -4 -15 -12 -9
-17 -26 18 7 -4 -15 -12 -9
-19 -24 18 6 -4 -14 -11 -9
-21 -23 18 6 -4 -14 -11 -9
-22 -22 18 6 -4 -14 -11 -9
-20 -20 20 5 -2 -12 -9 -7
-16 -18 22 6 0 -11 -8 -5
-12 -16 23 7 1 -9 -6 -3
-8 -14 25 8 2 -8 -5 0
-5 -13 26 9 3 -7 -4 2
-3 -12 27 10 4 -6 -3 3
0 -11 27 9 4 -7 -4 2
2 -11 26 8 4 -8 -4 1
4 -10 26 7 4 -9 -5 0
6 -10 26 7 4 -9 -5 0
6 -10 25 6 3 -10 -6 -2
5 -11 24 5 2 -10 -6 -2
4 -13 24 5 1 -10 -6 -3
3 -14 23 4 0 -10 -6 -3
2 -15 23 4 0 -10 -6 -3
-3 -19 22 2 -2 -10 -7 -4
-6 -23 21 1 -2 -11 -8 -5
-10 -26 20 0 -2 -11 -8 -6
-13 -30 19 -2 -2 -12 -9 -7
-16 -33 19 -3 -2 -12 -9 -7
-16 -32 18 -3 0 -13 -10 -8
-14 -29 19 0 1 -12 -9 -7
-13 -27 20 2 2 -11 -8 -6
-11 -24 21 4 3 -10 -7 -5
-10 -22 22 6 4 -10 -6 -4
-8 -21 23 7 5 -9 -5 -3
-6 -20 23 7 6 -8 -4 -2
-4 -20 23 7 7 -7 -4 0
-2 -19 23 7 8 -6 -3 1
1 -19 23 7 8 -6 -3 1
3 -17 25 8 10 -4 0 3
4 -15 26 10 11 -2 1 4
5 -13 27 12 12 0 3 6
6 -11 28 14 13 2 4 7
7 -10 29 16 14 3 5 8
7 -9 30 17 15 4 6 9
6 -10 30 17 16 4 6 9
5 -10 29 17 17 4 5 8
4 -11 29 17 18 4 5 8
3 -11 29 17 19 4 5 8
1 -13 27 16 20 3 4 7
0 -15 26 15 19 2 3 6
-2 -16 24 15 18 2 2 6
-3 -18 23 14 17 1 1 5
-4 -19 22 14 16 1 0 5
-4 -18 21 14 17 1 -2 4
-2 -15 22 15 19 2 0 5
0 -13 22 16 21 4 1 5
2 -10 23 17 23 5 2 6
3 -8 23 18 25 6 3 6
4 -8 24 19 27 7 4 7
3 -10 23 20 28 7 4 8
2 -12 23 20 30 7 5 8
1 -14 22 21 31 7 5 9
1 -15 22 21 32 7 5 9
0 -17 21 22 33 8 6 10
1 -18 21 22 33 8 6 10
2 -19 20 21 33 8 7 10
3 -20 20 21 33 8 7 10
3 -21 20 21 33 8 7 10
4 -22 20 20 33 8 9 11
4 -21 21 21 34 10 10 12
4 -21 23 21 35 12 11 14
4 -20 24 22 36 14 12 15
4 -20 25 22 37 15 13 16
6 -19 26 23 39 16 15 17
8 -18 26 23 40 16 16 18
10 -17 26 23 42 16 18 19
12 -16 26 23 43 16 19 20
14 -15 26 23 44 16 20 20
15 -13 25 24 45 16 22 22
15 -12 25 24 44 16 23 23
15 -10 26 25 44 16 24 24
15 -9 26 25 43 16 25 25
15 -8 26 25 43 16 26 26
13 -11 25 24 39 14 25 25
10 -16 23 21 36 11 23 23
7 -21 20 19 33 8 20 21
4 -25 18 16 30 4 18 19
2 -30 16 14 27 1 16 17
3 -28 15 13 26 0 15 16
7 -23 15 13 25 0 15 17
10 -19 16 12 24 0 15 18
13 -15 16 12 23 0 15 19
16 -11 16 12 22 0 15 20
16 -12 17 10 21 -2 16 20
14 -15 16 8 21 -3 15 19
12 -17 16 7 20 -4 14 18
10 -20 15 5 20 -5 13 17
9 -22 15 4 20 -6 12 16
8 -23 14 3 18 -7 11 15
8 -22 14 3 17 -7 11 16
7 -22 13 3 15 -7 12 17
7 -21 13 3 14 -7 12 18
7 -21 13 3 13 -7 12 18
6 -19 12 3 12 -7 13 19
7 -17 13 3 12 -6 13 20
8 -15 13 3 13 -5 13 21
9 -13 14 3 13 -4 13 22
9 -12 14 3 13 -4 13 23
10 -11 15 1 13 -3 14 24
10 -10 14 0 11 -2 14 24
10 -9 14 -3 9 -2 14 24
10 -8 13 -4 7 0 14 24
10 -7 13 -5 6 0 14 24
11 -5 12 -7 5 1 14 23
12 -3 12 -8 4 1 13 22
12 0 12 -9 3 1 12 22
13 2 12 -10 2 1 11 21
13 4 12 -11 2 1 10 21
14 7 13 -12 1 1 10 20
13 9 14 -11 1 1 11 21
12 11 15 -10 1 1 12 22
11 13 16 -9 1 1 13 23
10 15 17 -9 1 1 14 24
9 15 18 -9 1 0 13 23
9 14 17 -11 -2 -3 11 21
9 12 16 -12 -4 -5 9 19
9 11 15 -14 -6 -8 6 16
9 10 14 -15 -8 -10 4 14
6 7 13 -16 -10 -11 2 12
3 4 12 -17 -11 -12 0 10
-2 1 11 -18 -12 -12 -2 8
-6 -3 10 -19 -13 -13 -4 6
-9 -6 10 -20 -14 -13 -5 5
-8 -6 10 -21 -15 -14 -6 4
-5 -4 11 -20 -15 -14 -6 3
-2 -3 12 -19 -14 -13 -6 2
1 0 13 -18 -14 -13 -6 1
4 1 14 -17 -14 -13 -6 0
4 2 15 -16 -13 -12 -6 -2
2 1 15 -16 -14 -12 -6 0
1 1 14 -16 -14 -12 -7 0
-2 0 14 -16 -15 -12 -7 1
-3 0 14 -16 -15 -12 -7 1
-4 -2 13 -15 -16 -12 -8 2
-4 0 14 -14 -15 -12 -8 2
-4 0 15 -14 -14 -11 -7 2
-4 1 16 -13 -13 -11 -7 2
-4 1 16 -13 -12 -11 -7 2
-6 2 17 -12 -11 -10 -6 3
-7 1 17 -11 -11 -10 -6 3
-8 1 17 -11 -11 -9 -5 3
-9 0 17 -10 -11 -9 -5 3
-10 0 17 -10 -11 -9 -5 3
-7 0 16 -8 -9 -6 -3 3
0 2 17 -7 -7 -4 0 3
5 4 18 -5 -5 -2 1 4
10 6 19 -4 -3 2 3 4
16 8 20 -3 0 4 4 4
15 9 21 -2 1 5 5 5
11 9 21 0 2 6 5 6
8 10 21 0 2 6 5 7
4 10 21 1 3 7 5 8
1 10 21 1 3 7 5 9
0 10 19 2 4 8 6 8
-2 8 18 1 3 7 5 6
-3 6 17 1 2 6 4 4
-4 5 16 0 1 5 3 1
-4 3 15 0 1 4 2 -2
-4 3 14 -2 0 4 1 -2
-2 5 15 0 1 5 2 1
1 7 15 0 1 6 3 3
2 9 16 1 2 7 4 5
4 11 16 1 2 8 4 7
4 12 16 2 3 9 5 8
3 11 15 1 2 9 4 7
1 10 14 0 2 8 3 6
-2 9 13 -2 1 8 2 5
-3 9 12 -2 1 8 2 5
-4 10 11 -3 0 7 1 5
-3 12 11 -2 1 8 2 6
-3 14 11 0 2 9 3 7
-2 17 11 1 3 10 4 8
-2 19 11 1 3 10 4 9
1 19 11 2 4 11 5 10
2 18 10 2 3 11 5 9
3 17 9 1 2 10 5 9
4 16 8 1 1 10 5 8
5 15 8 1 1 10 5 8
5 14 7 0 0 9 4 7
4 15 6 -2 -2 9 3 7
3 15 5 -3 -3 8 2 7
1 16 4 -4 -4 8 1 7
0 16 3 -4 -4 8 1 7
0 18 2 -5 -5 7 1 7
1 19 2 -5 -5 7 2 7
2 20 1 -5 -5 7 3 8
3 21 1 -5 -5 7 4 8
4 22 1 -5 -5 7 5 8
8 25 0 -5 -4 8 7 10
11 29 0 -4 -3 10 8 12
15 32 0 -3 0 12 10 14
18 36 0 0 2 13 12 16
22 39 0 1 3 15 13 18
19 36 0 1 3 15 14 18
14 32 -2 -2 2 14 13 17
8 27 -3 -4 1 13 12 16
3 22 -4 -6 0 12 11 15
-4 17 -4 -8 -2 11 11 14
-5 16 -5 -9 -3 10 10 13
-4 17 -4 -9 -3 10 10 13
-3 18 -4 -8 -3 10 10 13
-2 19 -3 -8 -3 10 10 13
-2 19 -3 -8 -3 10 10 13
0 18 -2 -7 -4 9 10 13
0 15 -2 -7 -5 8 8 11
0 11 -2 -8 -6 6 6 9
0 8 -2 -8 -7 4 5 7
0 5 -2 -8 -7 3 3 5
-2 3 0 -9 -9 0 1 3
-4 1 1 -9 -10 -3 -2 0
-7 -2 1 -9 -12 -6 -4 -3
-9 -4 2 -9 -14 -8 -6 -6
-12 -6 2 -9 -15 -11 -8 -8
-11 -6 3 -10 -16 -12 -9 -9
-9 -4 3 -10 -14 -11 -9 -7
-6 -2 3 -10 -13 -10 -9 -6
-4 0 3 -10 -12 -9 -9 -5
0 2 3 -10 -11 -8 -9 -4
0 3 4 -9 -10 -7 -8 -3
-2 1 4 -8 -11 -8 -8 -4
-3 0 3 -8 -11 -8 -8 -5
-5 -2 3 -7 -12 -9 -8 -6
-6 -3 3 -7 -12 -9 -8 -6
-6 -4 2 -6 -13 -10 -8 -7
-5 -3 2 -5 -12 -10 -8 -7
-4 -2 2 -4 -11 -10 -8 -7
-2 0 2 -3 -10 -10 -8 -7
0 1 2 -3 -10 -10 -8 -7
1 1 3 -2 -9 -9 -8 -8
-2 0 2 -2 -10 -10 -9 -9
-3 -3 1 -2 -11 -10 -10 -10
-4 -5 0 -2 -12 -11 -11 -11
-5 -6 0 -2 -12 -11 -11 -11
-6 -5 -2 -3 -13 -12 -12 -12
-4 -2 -2 -2 -12 -12 -12 -12
-3 2 -3 -2 -12 -12 -12 -12
-2 5 -3 0 -11 -12 -12 -12
0 8 -3 0 -11 -12 -12 -12
0 9 -4 1 -10 -12 -12 -13
-2 8 -3 2 -10 -11 -11 -12
-3 7 -2 3 -9 -11 -11 -12
-5 6 0 4 -9 -10 -10 -11
-6 5 1 4 -9 -10 -10 -11
-8 1 2 5 -8 -10 -10 -12
-9 -4 3 4 -7 -12 -12 -15
-10 -8 4 4 -7 -14 -14 -18
-12 -12 5 3 -6 -15 -15 -22
-13 -17 5 3 -6 -17 -17 -25
-15 -20 8 7 1 -16 -18 -26
-18 -22 12 13 8 -13 -17 -26
-20 -25 15 19 15 -10 -16 -26
-23 -27 18 26 22 -6 -15 -26
-25 -30 22 32 29 -3 -14 -26
-15 -28 24 43 47 22 11 -7
0 -25 26 53 67 54 40 18
14 -21 29 63 87 85 70 42
28 -17 31 73 107 115 100 66
44 -13 33 84 127 146 130 91
57 6 9 53 113 177 170 130
70 28 -23 10 91 206 212 174
85 51 -56 -33 67 236 254 218
98 74 -89 -76 44 266 297 262
112 97 -121 -120 20 296 339 306
109 111 -140 -157 -17 274 322 305
100 122 -155 -193 -59 237 288 292
91 135 -170 -230 -101 200 256 277
81 146 -185 -266 -142 163 222 263
72 158 -199 -302 -184 127 189 248
51 142 -187 -300 -204 72 132 192
25 116 -164 -286 -221 12 67 125
0 92 -143 -273 -236 -49 3 57
-26 66 -121 -260 -252 -109 -61 -11
-52 40 -99 -246 -267 -170 -126 -78
-58 26 -82 -224 -251 -174 -135 -95
-58 15 -66 -197 -223 -160 -127 -97
-57 3 -51 -172 -196 -148 -118 -100
-57 -9 -35 -146 -169 -135 -111 -102
-57 -20 -20 -119 -141 -121 -103 -104
-56 -24 -15 -107 -128 -114 -98 -103
-56 -26 -14 -98 -118 -109 -94 -100
-56 -29 -13 -90 -108 -103 -90 -97
-56 -31 -11 -80 -99 -97 -86 -94
-56 -33 -10 -71 -90 -92 -80 -91
-53 -33 -8 -64 -79 -83 -75 -86
-48 -31 -6 -56 -69 -75 -69 -80
-41 -29 -3 -48 -59 -67 -63 -74
-35 -27 0 -40 -49 -59 -58 -68
-30 -25 2 -32 -38 -50 -52 -63
-26 -22 5 -25 -29 -44 -48 -59
-23 -19 8 -18 -20 -38 -45 -57
-20 -16 11 -11 -11 -32 -41 -54
-17 -13 14 -4 -2 -26 -38 -51
-14 -10 17 4 7 -21 -35 -48
-14 -11 18 6 10 -19 -33 -46
-16 -14 17 4 9 -19 -32 -45
-17 -17 16 3 8 -19 -31 -43
-19 -21 15 2 7 -19 -29 -40
-21 -24 15 1 6 -19 -28 -39
-21 -24 14 0 5 -20 -27 -38
-18 -22 14 0 5 -20 -26 -37
-16 -21 14 0 5 -20 -25 -37
-13 -19 14 0 5 -20 -24 -36
-11 -17 14 0 5 -20 -24 -36
-11 -17 15 0 6 -19 -23 -35
-14 -20 16 0 7 -18 -22 -34
-17 -22 17 -2 7 -17 -21 -33
-19 -25 18 -2 8 -16 -20 -32
-22 -27 19 -2 8 -15 -20 -32
-22 -27 20 -2 9 -14 -19 -31
-20 -25 21 0 11 -13 -18 -30
-18 -24 21 2 12 -13 -18 -29
-16 -22 22 3 13 -12 -17 -28
-14 -20 22 5 14 -12 -17 -27
-12 -19 23 6 15 -11 -16 -26
-10 -18 22 5 15 -11 -17 -27
-9 -17 21 4 14 -11 -18 -28
-7 -16 21 3 14 -11 -18 -29
-5 -15 20 2 14 -11 -19 -30
-4 -14 20 2 14 -10 -20 -30
-6 -14 22 4 15 -9 -18 -28
-7 -14 24 5 17 -8 -17 -26
-8 -14 26 7 18 -8 -16 -24
-9 -14 28 9 20 -7 -15 -22
-9 -14 29 10 21 -6 -14 -21
-8 -15 28 9 21 -6 -15 -22
-7 -16 27 8 21 -6 -15 -22
-5 -18 27 8 21 -6 -16 -23
-4 -19 26 7 21 -6 -16 -23
-6 -22 25 6 22 -6 -17 -24
-10 -25 23 6 21 -8 -18 -25
-15 -28 22 6 21 -9 -18 -26
-20 -31 21 6 20 -10 -19 -27
-24 -35 20 6 20 -11 -19 -28
-24 -33 19 8 20 -11 -19 -28
-20 -29 20 11 23 -8 -17 -26
-16 -24 21 13 26 -6 -14 -25
-12 -20 21 15 28 -4 -12 -23
-8 -16 22 18 31 0 -10 -21
-7 -16 23 19 32 1 -9 -20
-10 -18 22 19 32 0 -10 -21
-12 -21 22 19 31 -2 -11 -22
-14 -24 21 19 31 -3 -12 -23
-17 -27 21 19 31 -4 -13 -24
-18 -28 20 19 31 -4 -13 -24
-17 -27 20 20 33 -2 -11 -23
-16 -27 21 21 35 1 -9 -22
-16 -26 21 22 38 4 -7 -20
-15 -26 21 23 40 6 -5 -19
-13 -25 22 24 42 7 -4 -18
-10 -24 22 25 42 7 -4 -18
-7 -24 22 26 42 7 -5 -18
-5 -23 22 26 42 7 -5 -18
-2 -23 22 27 42 7 -5 -18
-4 -22 23 28 40 6 -6 -19
-8 -24 23 28 43 6 -6 -19
-12 -25 22 29 44 6 -6 -20
-17 -26 22 29 46 6 -6 -20
-21 -27 22 29 47 6 -6 -20
-21 -27 21 30 48 6 -5 -21
-17 -25 20 32 50 8 -3 -19
-13 -24 19 33 51 9 -2 -18
-9 -22 19 35 52 11 0 -16
-6 -20 18 36 53 12 1 -15
-4 -19 17 37 54 13 2 -14
-2 -19 17 39 56 14 2 -14
0 -19 18 40 57 14 2 -13
2 -19 18 42 58 15 2 -13
3 -19 18 43 59 15 2 -13
3 -19 19 44 60 16 3 -12
2 -21 18 44 60 16 4 -11
0 -22 17 44 61 16 4 -11
-2 -24 17 44 61 16 5 -10
-4 -26 16 44 61 16 5 -10
-5 -27 15 44 62 17 6 -9
-4 -27 15 44 62 17 7 -8
-3 -26 15 45 63 18 8 -7
-3 -26 15 45 63 18 8 -6
-2 -26 15 45 63 18 9 -5
0 -25 16 46 64 19 10 -4
-2 -24 15 45 62 17 10 -4
-2 -23 14 44 61 16 9 -4
-3 -23 14 44 60 14 9 -4
-3 -22 13 43 59 13 9 -4
-3 -21 12 42 57 12 8 -3
0 -22 12 40 56 12 8 -3
2 -22 12 39 54 11 8 -3
5 -23 12 38 53 11 8 -3
7 -23 12 37 51 11 8 -3
8 -24 11 36 50 10 8 -2
6 -24 11 35 48 8 8 -2
5 -25 10 34 47 7 8 -2
3 -25 10 34 46 5 8 -2
2 -25 10 33 45 4 8 -2
1 -26 9 32 44 3 7 -3
1 -26 9 31 43 3 8 -2
2 -26 9 31 43 4 9 0
2 -26 9 30 42 4 10 1
2 -26 9 30 42 4 11 2
3 -26 8 29 39 5 12 3
3 -24 7 28 38 4 11 3
3 -23 6 27 36 4 11 3
3 -22 6 26 35 3 10 3
3 -21 5 25 33 3 10 3
2 -19 4 24 32 2 9 2
3 -17 4 23 31 4 10 4
3 -16 4 22 31 5 10 5
4 -14 4 21 30 6 11 6
4 -12 4 20 30 7 11 7
6 -11 5 19 29 8 12 8
9 -9 4 19 28 8 12 8
12 -8 4 18 27 8 12 8
15 -7 3 18 26 8 12 8
18 -6 3 18 25 8 12 8
14 -6 2 17 24 8 13 7
6 -7 2 16 23 8 12 6
-3 -9 1 15 21 7 11 5
-12 -10 1 14 20 6 10 5
-20 -12 1 13 19 6 9 4
-21 -13 0 12 17 5 8 3
-18 -13 0 11 16 5 8 3
-14 -12 0 9 14 4 7 2
-11 -12 0 8 12 3 6 1
-8 -12 0 7 10 3 6 1
-6 -11 0 6 9 2 5 0
-6 -9 0 6 9 2 5 0
-7 -8 1 6 8 2 4 -2
-7 -6 1 6 8 2 3 -2
-7 -5 1 6 8 2 3 -2
-9 -4 2 7 7 1 2 -3
-10 -4 2 7 7 0 1 -5
-12 -4 2 7 6 -3 -2 -6
-13 -4 2 7 5 -4 -3 -8
-15 -4 2 7 5 -5 -4 -9
-16 -5 3 7 4 -6 -5 -10
-15 -7 1 6 3 -7 -6 -11
-14 -8 0 4 1 -9 -7 -12
-13 -10 -3 3 0 -10 -8 -13
-12 -11 -4 1 -2 -11 -9 -14
-11 -11 -4 1 -2 -11 -10 -15
-11 -8 -2 4 1 -10 -8 -13
-11 -5 2 7 4 -8 -7 -12
-11 -2 4 10 6 -7 -5 -10
-11 2 7 13 9 -5 -4 -9
-10 3 8 15 10 -4 -3 -8
-11 1 7 14 9 -5 -5 -9
-12 -2 5 12 8 -6 -6 -11
-12 -4 4 11 7 -6 -8 -12
-13 -6 3 10 6 -7 -9 -13
-15 -8 2 9 5 -8 -10 -14
-18 -9 2 10 5 -8 -10 -14
-21 -11 2 11 6 -8 -9 -14
-24 -12 2 11 7 -8 -9 -14
-26 -14 2 12 7 -8 -9 -14
-25 -13 3 14 9 -6 -7 -12
-20 -8 4 15 11 -3 -6 -10
-15 -4 6 17 14 0 -4 -8
-10 1 8 19 16 3 -2 -6
-5 6 10 21 19 6 1 -4
-4 7 10 22 20 7 2 -3
-6 4 9 21 19 6 1 -4
-8 2 7 19 18 5 0 -6
-10 -2 5 18 17 5 -2 -7
-13 -5 3 17 16 4 -3 -8
-14 -6 2 16 15 3 -4 -9
-14 -6 2 16 15 3 -4 -9
-14 -6 3 16 15 4 -3 -8
-14 -6 4 16 15 4 -2 -8
-14 -6 4 16 15 4 -2 -8
-15 -6 5 16 16 5 0 -7
-16 -4 5 16 16 6 1 -6
-18 -3 4 17 17 7 2 -4
-19 0 3 18 18 8 2 -3
-20 1 3 18 18 9 3 -2
-20 2 2 18 19 10 4 0
-17 2 2 16 17 9 4 -2
-15 3 3 14 16 8 3 -3
-12 3 3 12 14 8 3 -3
-10 3 3 10 13 7 3 -4
-7 5 4 9 13 7 3 -4
-3 7 4 11 14 9 5 0
1 9 5 12 16 11 7 2
4 11 5 14 18 13 9 5
7 14 5 15 20 15 11 7
8 15 6 16 20 16 12 9
4 15 4 14 19 15 11 8
1 14 2 12 17 13 10 6
-3 14 1 11 15 12 10 5
-6 14 -2 9 13 11 9 4
-8 13 -3 8 12 10 8 3
-7 13 -3 8 12 10 8 3
-6 13 -3 8 11 9 7 3
-5 13 -3 8 11 9 7 3
-4 13 -3 8 11 9 7 3
-3 15 -3 7 10 8 6 3
-3 17 -3 7 10 8 6 4
-3 19 -3 7 11 9 7 5
-3 21 -3 7 11 9 8 6
-3 23 -3 7 11 9 8 7
-2 24 -4 7 12 10 9 8
-2 22 -7 5 11 10 9 8
-2 20 -10 3 9 9 9 8
-2 19 -13 1 8 9 9 8
-2 17 -16 -3 7 9 9 8
-2 16 -18 -4 6 8 8 7
0 16 -16 -3 6 9 9 8
2 17 -14 -2 7 10 11 9
3 18 -13 -2 8 11 12 10
4 18 -11 0 8 12 13 11
4 18 -10 1 9 13 14 12
2 16 -9 2 8 11 12 11
-2 14 -8 3 7 9 11 9
-4 12 -7 3 7 8 9 8
-7 9 -6 4 6 6 8 7
-8 8 -5 5 5 5 7 6
-8 6 -5 4 3 3 5 4
-8 4 -5 3 2 1 4 3
-8 3 -5 2 0 0 2 1
-8 1 -5 1 -2 -3 1 0
-10 -2 -5 0 -4 -5 -2 -3
-12 -6 -5 -3 -6 -8 -5 -6
-14 -9 -5 -4 -8 -10 -7 -8
-16 -12 -5 -6 -10 -13 -10 -11
-19 -15 -5 -7 -13 -15 -12 -13
-19 -16 -6 -8 -14 -16 -13 -14
-16 -14 -5 -6 -12 -15 -12 -13
-13 -12 -4 -4 -10 -13 -10 -11
-10 -10 -3 -3 -9 -11 -8 -9
-7 -7 -2 0 -7 -9 -6 -7
-6 -7 0 1 -6 -8 -5 -6
-8 -8 -2 0 -7 -10 -7 -7
-10 -10 -4 -2 -9 -11 -8 -8
-12 -12 -5 -3 -10 -13 -10 -9
-14 -14 -6 -4 -11 -14 -11 -10
-14 -13 -7 -5 -12 -15 -12 -11
-11 -9 -6 -3 -11 -13 -11 -10
-8 -5 -5 -2 -9 -12 -10 -9
-5 0 -5 0 -8 -11 -9 -8
-2 4 -4 2 -7 -9 -8 -7
-2 5 -3 3 -6 -8 -7 -6
-6 1 -3 2 -7 -9 -7 -7
-10 -3 -4 1 -8 -10 -8 -8
-14 -6 -5 1 -9 -11 -9 -8
-18 -9 -5 0 -10 -12 -9 -9
-20 -11 -6 -2 -11 -13 -10 -10
-19 -12 -7 -3 -12 -14 -11 -11
-18 -13 -8 -5 -13 -15 -13 -13
-18 -13 -9 -6 -13 -16 -14 -14
-17 -14 -10 -7 -14 -17 -15 -15
-16 -14 -10 -7 -14 -17 -16 -16
-14 -12 -8 -5 -12 -16 -14 -14
-13 -9 -5 -3 -10 -14 -12 -12
-12 -7 -3 0 -8 -12 -11 -11
-10 -5 0 3 -6 -10 -9 -9
-10 -5 3 5 -4 -9 -9 -10
-13 -8 6 9 -2 -11 -13 -14
-16 -12 10 12 1 -13 -17 -19
-18 -16 13 16 3 -15 -20 -23
-21 -20 16 19 5 -17 -24 -28
-21 -22 18 24 12 -12 -21 -27
-18 -24 19 31 24 0 -12 -20
-14 -25 20 38 36 11 -2 -14
-10 -26 21 46 48 22 9 -7
-6 -28 22 52 60 33 18 1
5 -24 19 55 72 60 46 23
21 -15 12 52 85 98 88 60
36 -6 5 50 97 136 130 98
53 5 -4 47 108 174 172 135
68 14 -11 45 120 212 214 172
84 35 -37 12 107 235 246 207
97 66 -78 -46 71 246 271 241
110 98 -120 -104 35 258 296 275
123 129 -162 -161 0 269 320 310
137 159 -204 -219 -36 280 345 344
130 168 -219 -253 -75 248 318 328
102 153 -207 -266 -116 179 244 267
75 139 -196 -279 -156 108 171 206
48 126 -185 -293 -197 37 97 145
20 111 -174 -306 -238 -33 23 85
-3 92 -157 -300 -257 -76 -24 39
-21 67 -138 -275 -254 -96 -48 9
-40 43 -118 -251 -251 -115 -71 -22
-59 18 -99 -226 -248 -135 -95 -54
-77 -7 -79 -201 -245 -154 -118 -85
-85 -20 -66 -181 -232 -159 -128 -100
-79 -22 -59 -163 -208 -151 -122 -100
-74 -24 -52 -146 -185 -142 -117 -99
-69 -26 -45 -129 -162 -134 -112 -99
-64 -28 -37 -111 -139 -124 -107 -99
-60 -29 -31 -98 -121 -115 -101 -96
-57 -29 -27 -87 -109 -105 -93 -90
-54 -28 -23 -75 -97 -95 -86 -85
-51 -27 -19 -64 -85 -85 -77 -78
-48 -27 -15 -54 -71 -74 -70 -73
-44 -25 -12 -44 -60 -65 -63 -67
-39 -23 -10 -34 -50 -57 -57 -61
-34 -20 -8 -25 -39 -48 -50 -54
-29 -17 -6 -17 -29 -39 -44 -48
-25 -15 -4 -8 -18 -31 -37 -41
-22 -14 -2 -3 -12 -26 -33 -37
-22 -16 -2 0 -10 -26 -33 -37
-21 -18 0 1 -8 -25 -32 -36
-20 -20 0 2 -6 -24 -32 -36
-20 -22 0 4 -4 -24 -32 -36
-19 -24 1 5 -3 -23 -30 -34
-19 -23 2 5 -3 -21 -28 -32
-19 -22 3 6 -2 -19 -26 -30
-19 -21 4 7 0 -18 -24 -28
-19 -20 5 7 0 -16 -22 -26
-19 -18 6 8 1 -15 -21 -25
-17 -16 7 10 3 -15 -21 -25
-14 -14 9 11 5 -14 -20 -25
-11 -12 10 12 7 -14 -19 -25
-9 -10 11 14 9 -14 -19 -25
-7 -9 12 15 10 -13 -18 -24
-7 -9 12 15 10 -12 -18 -23
-7 -9 12 15 10 -11 -18 -22
-7 -9 12 15 10 -11 -18 -22
-7 -9 12 15 10 -10 -18 -21
-7 -10 13 14 9 -9 -17 -20
-7 -11 13 14 10 -9 -17 -21
-7 -12 12 14 11 -10 -17 -22
-7 -13 12 14 11 -11 -17 -22
-7 -14 12 14 12 -11 -17 -23
-8 -15 11 14 13 -12 -18 -24
-10 -15 11 14 12 -12 -18 -24
-12 -15 12 14 11 -12 -19 -23
-14 -15 13 14 10 -12 -20 -22
-16 -15 13 14 9 -12 -20 -22
-18 -14 14 13 8 -11 -21 -21
-18 -15 14 13 8 -11 -21 -21
-18 -15 13 13 9 -11 -21 -21
-19 -16 12 14 10 -11 -21 -21
-19 -17 12 14 10 -11 -21 -21
-19 -18 11 15 11 -12 -21 -21
-16 -17 11 15 11 -12 -21 -21
-13 -17 11 15 11 -12 -21 -21
-9 -16 12 14 12 -12 -22 -21
-6 -15 12 14 12 -12 -22 -21
-4 -14 13 13 13 -12 -23 -21
-5 -14 13 14 14 -11 -23 -21
-6 -14 13 15 15 -11 -23 -21
-7 -14 14 16 16 -10 -22 -21
-8 -14 14 17 17 -9 -22 -21
-9 -15 15 18 18 -8 -21 -20
-7 -15 16 20 19 -8 -20 -19
-6 -15 17 21 20 -7 -19 -18
-4 -15 18 22 22 -6 -17 -17
-2 -15 19 24 23 -6 -16 -16
0 -14 20 25 24 -5 -15 -15
0 -14 20 25 24 -5 -15 -16
0 -14 19 25 25 -5 -16 -16
-2 -14 18 25 26 -4 -17 -17
-2 -14 18 25 26 -4 -17 -18
-4 -15 17 25 27 -3 -18 -19
-6 -15 18 25 27 -3 -18 -19
-8 -15 19 25 27 -3 -18 -19
-11 -16 21 25 28 -3 -17 -19
-13 -16 22 25 28 -3 -17 -19
-14 -16 23 26 30 0 -16 -19
-12 -14 21 29 33 2 -14 -17
-10 -12 20 31 35 4 -13 -16
-7 -10 18 34 38 6 -11 -15
-5 -8 16 37 42 8 -9 -13
-3 -7 15 39 44 10 -8 -12
-3 -10 15 38 44 10 -8 -13
-3 -12 15 37 44 10 -9 -13
-4 -15 15 36 43 9 -10 -14
-4 -18 15 35 43 9 -10 -15
-5 -20 15 35 43 8 -11 -16
-5 -19 16 37 45 9 -10 -15
-5 -19 17 39 47 10 -9 -14
-5 -18 18 42 49 11 -8 -13
-5 -17 19 44 51 12 -7 -12
-6 -16 20 46 53 13 -6 -11
-6 -17 19 46 53 14 -5 -10
-6 -18 18 45 53 14 -5 -10
-7 -19 17 44 53 15 -4 -9
-7 -20 16 44 53 16 -3 -8
-7 -21 15 43 52 17 -2 -7
-4 -19 15 45 53 17 -2 -7
0 -17 15 47 53 17 -2 -7
4 -15 15 49 54 16 -3 -7
7 -13 15 51 55 16 -3 -7
9 -12 15 52 56 15 -4 -8
9 -12 15 52 56 15 -4 -7
8 -12 14 51 56 15 -4 -7
7 -12 13 50 56 14 -3 -6
7 -12 13 50 56 14 -3 -5
6 -11 12 49 55 13 -2 -4
7 -9 12 49 55 13 -2 -4
7 -8 12 49 54 13 -2 -4
8 -7 12 49 53 13 0 -3
9 -5 12 49 53 13 0 -3
10 -4 13 48 52 12 1 -2
8 -6 12 47 50 11 1 -2
6 -8 12 46 49 11 1 -2
4 -10 11 44 47 10 1 -2
3 -11 10 43 45 9 1 -2
2 -13 9 42 44 8 0 0
5 -12 9 40 43 7 0 0
8 -12 8 40 42 7 0 0
11 -11 7 39 39 6 -2 0
15 -10 7 38 38 5 -2 0
16 -9 6 37 37 4 -3 -2
13 -10 6 37 37 4 -3 -2
10 -10 6 37 37 4 -3 0
7 -11 6 36 37 4 -2 1
3 -12 6 36 37 4 -2 1
1 -13 6 35 36 3 0 2
2 -13 6 34 34 3 0 2
3 -13 5 33 33 3 0 2
5 -12 4 31 32 3 1 3
6 -12 4 30 30 3 1 3
7 -11 3 29 29 4 2 4
7 -10 2 27 27 4 2 4
6 -10 1 26 25 5 2 4
5 -9 0 24 23 6 2 5
5 -8 -2 22 22 6 2 5
4 -6 -3 21 20 7 2 6
5 -4 -3 21 20 7 2 6
7 0 -2 21 20 7 3 7
8 2 0 21 20 8 4 8
10 5 0 21 20 8 4 8
11 7 1 20 19 9 5 9
11 8 1 19 18 9 5 9
11 9 1 18 17 9 5 9
10 11 1 17 16 9 5 9
10 12 1 16 15 9 5 9
9 13 1 15 14 10 6 9
8 10 0 14 12 9 5 8
6 8 0 13 10 8 3 6
5 5 -2 12 8 6 2 5
3 3 -3 11 7 5 0 3
2 1 -4 10 5 4 -2 2
4 4 -4 10 5 4 -2 2
6 6 -3 10 5 4 -2 2
8 9 -2 10 5 4 -2 2
10 11 -2 10 5 4 -2 2
11 13 0 11 4 4 0 3
8 10 0 10 3 2 -3 2
4 8 0 9 1 1 -4 0
1 6 0 8 0 -2 -6 -2
-3 4 0 7 -3 -4 -8 -4
-6 2 -2 6 -4 -5 -9 -5
-8 1 -2 6 -4 -5 -10 -5
-10 0 -2 6 -4 -5 -10 -6
-12 -2 -3 6 -4 -5 -11 -7
-14 -3 -3 6 -4 -5 -12 -7
-15 -4 -4 5 -5 -6 -13 -8
-13 -3 -3 7 -4 -6 -13 -8
-10 -2 0 9 -2 -5 -12 -8
-7 0 1 11 0 -4 -11 -7
-4 1 3 13 2 -4 -11 -7
-2 2 4 15 3 -3 -10 -6
-2 2 4 14 3 -3 -10 -6
-3 3 4 14 3 -3 -10 -7
-4 4 3 13 2 -3 -10 -8
-4 4 3 12 2 -3 -10 -8
-5 5 2 11 1 -2 -9 -9
-6 4 2 12 2 -2 -10 -9
-7 3 2 12 2 -2 -10 -9
-8 1 2 13 3 -3 -11 -9
-9 0 2 14 4 -3 -12 -9
-10 -2 3 15 5 -4 -13 -10
-7 2 3 15 5 -4 -12 -10
-5 4 3 15 5 -3 -12 -9
-2 6 3 16 6 -2 -11 -8
1 8 3 16 6 -2 -10 -8
3 10 4 17 7 0 -9 -7
3 10 4 17 7 0 -9 -7
3 10 4 17 8 0 -9 -7
3 9 4 17 9 1 -8 -7
3 9 4 17 9 1 -8 -7
3 8 5 18 10 2 -7 -6
1 7 5 17 9 2 -7 -6
-2 7 4 16 8 2 -7 -6
-4 6 3 14 7 1 -7 -7
-5 5 3 13 6 1 -7 -7
-6 5 2 12 5 0 -8 -8
-4 7 3 13 7 1 -7 -7
0 10 4 15 9 3 -5 -6
3 13 5 16 11 4 -4 -4
6 16 6 18 12 6 -2 -3
7 18 7 19 14 7 0 -2
4 17 6 18 13 7 0 -2
1 15 5 17 12 7 0 -2
-3 14 4 16 11 7 0 -2
-6 12 3 15 10 7 0 -2
-9 11 2 14 9 6 1 0
-7 13 2 14 9 6 1 0
-5 15 2 14 9 6 1 0
-3 17 2 14 9 6 2 0
-2 18 2 14 9 6 2 0
1 20 2 14 10 7 3 1
0 20 2 14 10 8 4 2
-2 20 2 14 10 8 4 4
-4 19 2 14 10 9 5 5
-5 19 2 14 10 10 6 7
-6 18 2 13 11 11 7 8
-6 18 2 13 11 10 7 8
-6 18 2 13 10 10 6 7
-5 19 1 12 9 9 5 6
-5 19 1 12 9 8 5 6
-3 20 0 11 8 7 4 5
1 21 0 10 8 7 4 5
5 21 -2 9 7 7 4 5
9 22 -3 7 6 7 4 5
12 23 -3 6 6 7 4 5
15 24 -4 5 5 6 4 5
16 27 -5 5 5 7 5 6
18 30 -6 5 6 8 6 8
19 32 -7 6 7 9 8 9
21 35 -8 6 7 10 9 11
22 37 -9 7 8 11 10 12
19 37 -9 7 8 12 11 13
17 37 -9 7 9 13 12 14
14 37 -9 7 10 14 14 16
12 37 -9 7 10 15 15 17
10 35 -8 7 11 16 16 18
8 29 -8 6 9 13 14 16
6 23 -8 6 7 10 12 14
4 17 -7 5 5 8 10 12
2 11 -7 4 3 5 8 10
0 7 -6 3 1 3 6 8
3 8 -6 3 0 2 5 7
6 10 -5 3 -2 1 3 5
8 11 -4 3 -3 -2 2 4
11 13 -4 3 -4 -3 0 2
12 13 -3 2 -5 -4 -2 1
9 9 -3 2 -5 -5 -3 0
6 5 -3 2 -6 -6 -4 -2
2 1 -3 1 -6 -7 -5 -3
-2 -4 -3 1 -7 -9 -6 -4
-5 -7 -2 0 -8 -10 -7 -5
-6 -7 -2 0 -8 -10 -7 -5
-7 -6 -2 0 -8 -10 -7 -5
-8 -6 -2 0 -8 -10 -6 -5
-9 -5 -2 0 -8 -10 -6 -5
-10 -4 0 1 -8 -9 -5 -4
-7 -2 0 1 -8 -9 -5 -4
-5 2 1 2 -7 -8 -4 -3
-3 4 1 2 -7 -8 -4 -3
1 6 2 3 -6 -7 -3 -2
3 7 3 4 -5 -6 -2 0
1 4 1 2 -7 -8 -4 -2
-2 1 0 1 -9 -10 -5 -4
-3 -3 -3 -2 -10 -11 -7 -5
-5 -6 -4 -3 -12 -13 -8 -7
-7 -9 -6 -5 -14 -15 -10 -8
-8 -7 -4 -3 -12 -14 -9 -7
-9 -5 -2 -2 -10 -12 -7 -6
-10 -4 0 1 -9 -11 -6 -5
-11 -2 2 2 -7 -9 -4 -3
-12 1 4 4 -5 -8 -3 -2
-11 1 5 4 -5 -8 -3 -2
-10 0 5 3 -5 -8 -3 -2
-9 0 6 3 -5 -8 -3 -2
-8 -2 7 2 -5 -8 -3 -2
-6 -3 8 1 -6 -7 -3 -3
-2 0 9 1 -6 -7 -3 -3
3 3 9 1 -6 -7 -3 -3
7 5 10 1 -6 -7 -3 -3
11 7 11 1 -6 -7 -3 -3
13 8 13 0 -5 -8 -3 -3
8 4 17 2 -5 -10 -6 -6
4 -2 21 5 -5 -11 -8 -9
-2 -6 25 7 -5 -13 -10 -12
-6 -10 29 9 -5 -14 -13 -15
-10 -14 32 13 -2 -13 -13 -16
-7 -14 36 23 14 0 -4 -10
-4 -14 39 32 29 12 7 -5
0 -14 43 43 44 24 16 2
3 -14 46 52 59 36 25 8
9 -14 46 58 73 55 44 22
25 -11 33 52 85 90 84 57
42 -7 20 47 95 123 122 92
58 -3 8 42 106 157 162 127
74 2 -5 35 117 191 201 161
91 14 -24 15 116 219 236 196
106 49 -63 -41 82 229 261 230
121 84 -101 -98 50 240 285 264
137 118 -140 -154 16 251 310 297
152 153 -178 -211 -17 262 335 330
154 175 -203 -256 -54 251 331 338
121 157 -192 -272 -97 182 257 276
88 140 -182 -288 -141 112 183 215
55 122 -172 -305 -184 44 109 153
22 105 -161 -321 -227 -25 35 92
-5 88 -148 -326 -257 -79 -23 40
-15 69 -127 -299 -246 -94 -43 12
-25 51 -106 -272 -237 -108 -62 -17
-35 32 -86 -244 -227 -123 -81 -45
-45 14 -64 -218 -217 -138 -101 -73
-53 0 -47 -192 -205 -147 -114 -94
-51 -3 -37 -174 -187 -136 -107 -91
-50 -4 -29 -155 -169 -126 -100 -88
-48 -6 -20 -137 -151 -115 -94 -85
-47 -7 -12 -118 -133 -105 -87 -82
-45 -9 -5 -103 -117 -96 -80 -79
-45 -12 -4 -95 -107 -90 -77 -77
-45 -15 -3 -86 -97 -83 -73 -75
-46 -18 -2 -77 -87 -77 -69 -74
-46 -20 1 -69 -77 -71 -65 -72
-45 -23 2 -60 -67 -64 -60 -69
-35 -19 5 -50 -56 -56 -53 -61
-26 -15 8 -40 -45 -47 -46 -54
-17 -12 11 -30 -34 -38 -37 -47
-8 -8 13 -20 -23 -30 -30 -39
-2 -5 16 -13 -15 -23 -24 -33
-5 -7 17 -11 -12 -22 -23 -32
-9 -9 18 -9 -9 -20 -23 -31
-13 -10 19 -8 -6 -19 -22 -30
-17 -12 20 -6 -4 -18 -21 -28
-20 -14 21 -4 0 -16 -20 -27
-17 -14 20 -4 -2 -16 -20 -27
-14 -14 20 -5 -3 -16 -20 -27
-11 -14 19 -5 -4 -16 -21 -28
-9 -14 18 -6 -5 -16 -21 -28
-6 -15 17 -7 -6 -17 -22 -29
-8 -15 18 -6 -3 -16 -20 -27
-10 -15 19 -5 0 -14 -19 -26
-11 -14 20 -4 2 -13 -17 -24
-13 -14 22 -2 5 -12 -16 -23
-15 -13 23 0 7 -10 -14 -21
-13 -13 23 0 7 -10 -14 -21
-11 -12 23 0 7 -10 -14 -21
-8 -12 24 0 6 -10 -13 -21
-6 -11 24 0 6 -10 -13 -21
-4 -10 25 1 5 -9 -12 -20
-2 -8 26 2 6 -8 -12 -20
1 -6 27 4 8 -8 -11 -19
3 -3 28 5 9 -7 -11 -19
5 0 29 6 10 -6 -10 -18
7 2 30 8 12 -5 -9 -17
5 0 30 7 12 -5 -9 -17
2 -3 30 6 11 -5 -9 -17
0 -5 29 5 11 -5 -9 -17
-4 -7 29 4 10 -5 -9 -17
-6 -9 28 3 9 -5 -10 -16
-5 -9 28 3 10 -5 -10 -16
-4 -9 28 4 11 -5 -10 -16
-3 -9 28 4 12 -5 -10 -16
-2 -9 28 5 13 -5 -10 -16
0 -8 29 6 14 -4 -11 -15
0 -8 29 6 14 -4 -11 -15
0 -8 29 6 14 -4 -11 -15
-2 -8 29 6 14 -4 -11 -15
-2 -8 29 6 14 -4 -11 -15
-3 -8 28 7 13 -3 -11 -14
-3 -8 28 8 13 -3 -11 -14
-2 -8 28 10 14 -3 -11 -14
-2 -8 27 12 15 -3 -12 -15
0 -8 27 13 16 -3 -12 -15
1 -8 26 15 17 -3 -13 -16
1 -9 25 15 17 -3 -13 -16
0 -10 23 14 16 -3 -13 -16
0 -11 22 14 15 -3 -14 -16
-2 -12 21 13 14 -3 -14 -16
-3 -13 19 12 13 -4 -15 -17
-5 -13 20 14 16 -3 -14 -17
-7 -14 22 16 19 0 -12 -17
-8 -15 24 17 22 1 -11 -17
-10 -16 25 19 24 2 -10 -17
-12 -17 27 21 27 4 -8 -16
-8 -16 27 21 27 4 -8 -16
-5 -15 27 21 27 5 -8 -16
-2 -14 26 21 27 6 -8 -16
3 -12 26 21 27 7 -8 -16
6 -11 25 22 28 8 -8 -15
6 -11 25 23 28 8 -8 -15
5 -10 25 25 29 9 -8 -15
5 -9 25 26 30 9 -7 -15
4 -8 25 27 31 10 -7 -15
3 -7 26 29 32 11 -6 -15
3 -8 26 29 33 11 -6 -15
3 -9 25 29 35 11 -5 -15
4 -10 25 30 36 11 -5 -15
4 -11 24 30 37 11 -4 -15
5 -12 23 31 39 12 -3 -14
5 -13 23 31 39 12 -3 -14
4 -15 22 32 40 12 -3 -14
3 -17 22 32 42 12 -4 -14
2 -18 21 33 43 12 -4 -14
1 -20 20 34 44 12 -5 -15
1 -18 20 35 44 13 -5 -15
1 -17 20 36 44 14 -4 -14
1 -15 20 37 45 15 -3 -14
1 -13 20 38 45 16 -2 -13
2 -11 20 39 46 17 0 -12
4 -10 20 39 46 17 0 -10
6 -8 19 40 46 16 0 -9
8 -6 18 42 47 16 0 -7
10 -5 17 43 47 15 0 -5
12 -3 16 44 48 14 1 -3
12 -3 16 44 48 14 1 -2
11 -2 16 44 48 14 2 1
11 -2 15 45 47 14 2 3
10 0 15 45 47 14 3 4
9 1 14 46 46 14 4 6
14 -2 14 46 46 14 4 8
19 -3 13 46 46 13 4 10
24 -5 13 46 45 12 4 13
29 -7 12 46 45 11 4 15
31 -9 11 45 44 10 3 17
21 -14 9 43 39 8 2 17
11 -19 8 39 36 6 0 17
0 -23 6 37 33 3 -3 17
-11 -28 4 34 29 1 -4 17
-20 -32 2 32 26 -2 -6 17
-16 -29 2 32 26 -2 -6 17
-11 -26 2 32 26 -3 -6 17
-7 -24 1 32 26 -4 -6 17
-3 -21 1 32 26 -5 -6 17
2 -18 0 31 25 -6 -6 16
5 -16 0 31 25 -5 -5 17
8 -14 0 31 24 -3 -3 19
11 -11 0 31 23 0 0 20
14 -9 0 31 22 1 1 21
17 -7 0 31 21 3 3 23
17 -7 0 31 21 3 3 23
17 -7 0 30 21 3 3 23
17 -7 0 29 21 3 4 24
17 -7 0 28 21 3 4 24
17 -7 0 27 21 3 5 25
14 -7 0 25 20 3 5 25
11 -7 0 24 18 4 5 25
7 -7 -2 22 17 5 6 25
4 -7 -2 20 16 6 6 25
1 -8 -3 18 14 7 7 26
1 -7 -3 18 14 7 7 26
2 -5 -2 19 14 8 8 27
3 -3 -2 19 14 9 8 27
4 -2 0 20 14 10 9 28
5 1 1 21 14 11 10 29
6 1 0 19 12 10 9 28
7 1 -3 16 11 9 8 27
8 1 -4 14 9 8 7 26
9 1 -5 11 7 7 5 24
10 2 -7 9 5 6 4 23
9 1 -6 9 5 6 4 23
8 0 -5 10 5 7 4 23
7 -2 -4 11 5 7 5 23
6 -3 -3 12 5 8 5 23
5 -5 0 13 6 9 6 23
4 -5 -2 11 3 7 4 22
2 -5 -3 9 0 6 3 20
0 -5 -4 7 -5 4 1 18
-2 -5 -5 4 -8 2 -2 17
-4 -4 -7 2 -11 0 -4 15
-3 -2 -7 2 -8 0 -4 15
0 1 -6 2 -6 0 -4 15
1 3 -5 3 -3 0 -5 14
2 5 -4 3 0 0 -5 14
4 7 -3 4 3 -2 -6 13
2 5 -3 4 2 -2 -6 13
-2 4 -2 4 0 -2 -6 13
-5 2 -2 4 -2 -3 -6 13
-7 0 0 4 -3 -3 -6 13
-10 -3 1 5 -5 -4 -6 14
-10 -3 1 5 -5 -4 -6 13
-10 -3 1 6 -4 -4 -7 12
-9 -3 2 6 -3 -4 -7 11
-9 -3 2 7 -2 -4 -8 10
-8 -2 3 8 0 -3 -9 9
-6 0 3 8 0 -2 -9 9
-4 2 3 9 1 0 -8 9
-2 3 4 9 2 1 -8 10
1 4 4 10 3 2 -7 10
3 6 5 11 4 3 -6 11
2 5 5 11 5 3 -6 11
1 4 5 12 6 4 -5 11
0 2 5 12 7 5 -5 12
-2 1 5 13 8 6 -4 12
-4 -2 6 14 10 7 -3 13
-4 0 6 14 10 7 -3 13
-5 1 6 14 10 7 -3 13
-6 3 6 14 10 7 -2 13
-7 4 6 14 10 7 -2 13
-8 6 7 15 11 8 0 14
-10 3 6 13 10 7 -2 12
-12 0 4 11 9 5 -3 11
-14 -4 2 9 7 3 -5 9
-16 -7 1 7 6 2 -6 7
-18 -10 -2 5 4 0 -8 5
-13 -6 0 7 5 2 -6 7
-8 -2 1 9 6 4 -3 10
-3 2 3 11 8 6 1 12
2 6 4 13 9 9 3 14
7 10 6 15 11 11 6 17
3 7 5 14 11 10 5 16
-2 4 4 13 10 9 4 15
-5 1 3 12 9 8 3 14
-9 -4 2 11 8 7 2 13
-13 -7 0 9 7 6 0 11
-12 -4 0 9 7 7 1 11
-10 -2 0 9 7 8 2 12
-9 2 0 9 7 9 3 13
-7 5 0 9 7 10 4 14
-5 8 0 8 7 11 6 15
-5 9 0 8 7 11 6 15
-4 10 0 9 8 11 7 16
-3 12 0 10 9 12 7 16
-2 13 0 11 10 12 8 17
0 15 1 12 11 13 9 18
1 17 1 12 10 13 9 18
2 18 1 11 9 13 9 18
3 20 1 10 8 13 9 18
4 22 1 9 7 13 9 18
6 24 1 8 6 13 10 19
6 23 1 8 6 13 10 19
5 22 1 8 6 13 9 18
5 21 1 8 6 12 8 18
4 20 1 8 6 12 7 17
3 18 0 7 6 11 6 16
4 18 0 6 6 11 6 16
5 18 -2 5 6 11 7 17
6 18 -2 3 5 11 8 18
7 18 -3 2 5 11 9 19
9 19 -4 0 4 12 10 20
6 19 -4 1 6 14 12 21
3 20 -4 3 8 16 14 23
0 20 -3 5 10 18 16 25
-5 21 -3 7 13 20 19 27
-8 22 -2 9 15 22 21 29
-7 21 -3 8 13 21 20 28
-6 19 -4 6 10 20 19 26
-5 17 -5 4 7 19 18 25
-4 15 -6 2 5 18 17 23
-2 13 -7 0 2 16 16 21
3 13 -7 0 2 14 15 20
7 13 -7 0 1 12 13 19
11 13 -6 -2 1 10 11 18
16 13 -6 -2 0 8 9 17
20 14 -5 -3 -2 5 7 15
15 12 -5 -3 -2 4 7 14
10 9 -4 -3 -3 3 6 13
5 6 -3 -4 -4 2 6 12
0 4 -2 -4 -5 1 5 11
-6 1 0 -5 -6 -2 4 10
-6 1 0 -5 -7 -3 3 8
-6 0 1 -5 -8 -5 1 6
-5 0 1 -6 -9 -6 -2 4
-5 -2 2 -6 -10 -8 -4 2
-4 -3 3 -7 -12 -10 -6 -2
-4 -5 2 -7 -13 -10 -6 -2
-4 -8 1 -7 -14 -11 -7 -3
-5 -11 0 -7 -15 -11 -8 -4
-5 -13 -2 -7 -16 -12 -9 -5
-6 -16 -3 -7 -17 -13 -10 -6
-6 -14 -3 -7 -16 -12 -9 -5
-6 -12 -3 -7 -14 -11 -8 -4
-6 -9 -2 -6 -13 -10 -7 -3
-6 -7 -2 -6 -11 -9 -6 -2
-6 -4 0 -5 -9 -7 -4 0
-7 -4 0 -5 -10 -7 -4 -2
-8 -4 0 -5 -11 -8 -5 -3
-9 -5 0 -6 -12 -8 -6 -4
-10 -5 0 -6 -13 -9 -7 -5
-12 -6 -2 -7 -14 -10 -8 -7
-13 -8 -2 -7 -15 -11 -9 -8
-14 -11 -3 -7 -16 -13 -10 -10
-15 -14 -4 -8 -17 -14 -12 -12
-16 -17 -5 -8 -18 -16 -13 -14
-18 -20 -6 -9 -19 -18 -15 -16
-17 -18 -5 -8 -18 -17 -14 -15
-15 -16 -4 -7 -17 -16 -13 -14
-14 -14 -3 -5 -16 -14 -11 -13
-12 -12 -2 -4 -15 -13 -10 -12
-10 -10 0 -2 -14 -11 -8 -10
-12 -10 1 0 -13 -10 -8 -10
-14 -10 2 2 -11 -9 -7 -9
-17 -11 3 3 -10 -8 -6 -8
-19 -11 4 5 -8 -7 -5 -7
-22 -12 5 7 -6 -6 -4 -6
-21 -12 8 9 -6 -8 -8 -11
-19 -13 11 11 -5 -11 -13 -16
-17 -14 15 13 -5 -14 -17 -21
-15 -15 18 15 -4 -17 -21 -27
-13 -16 22 18 -3 -20 -26 -32
-13 -17 24 28 10 -9 -17 -26
-12 -18 26 38 22 3 -8 -20
-12 -19 28 48 34 14 3 -14
-11 -20 30 58 47 25 12 -7
-10 -21 32 68 59 37 22 1
11 -16 21 66 72 70 62 35
31 -10 11 64 87 104 102 70
51 -5 0 62 100 137 141 105
71 1 -11 60 113 171 181 140
91 8 -23 56 126 202 220 175
103 36 -63 -3 91 211 241 206
114 66 -104 -60 56 220 264 237
127 95 -144 -118 22 229 286 269
138 123 -184 -176 -13 237 309 301
149 152 -223 -232 -48 244 328 329
117 139 -212 -247 -91 180 257 269
86 125 -200 -263 -133 115 185 210
54 111 -189 -277 -175 50 114 149
21 97 -178 -293 -218 -15 43 90
-10 84 -166 -308 -259 -77 -26 30
-21 65 -147 -282 -257 -93 -47 3
-31 48 -128 -258 -254 -109 -67 -26
-43 29 -108 -232 -252 -124 -88 -54
-54 11 -89 -207 -248 -141 -108 -82
-65 -7 -69 -183 -245 -156 -129 -110
-62 -10 -60 -164 -222 -146 -122 -108
-58 -13 -52 -146 -197 -136 -115 -106
-54 -16 -43 -127 -174 -126 -108 -104
-50 -19 -33 -108 -150 -114 -102 -102
-46 -22 -24 -90 -127 -104 -95 -100
-48 -24 -22 -79 -115 -97 -90 -96
-50 -27 -20 -70 -104 -90 -85 -92
-53 -29 -17 -60 -93 -82 -79 -88
-55 -32 -15 -50 -81 -75 -74 -83
-58 -35 -12 -39 -70 -68 -68 -79
-54 -33 -12 -30 -61 -61 -63 -75
-49 -30 -12 -21 -51 -54 -58 -71
-44 -28 -11 -12 -40 -47 -53 -66
-38 -25 -11 -3 -31 -39 -48 -62
-33 -22 -10 7 -21 -31 -43 -57
-32 -22 -8 10 -17 -29 -40 -55
-30 -21 -5 13 -13 -27 -38 -53
-29 -20 -2 17 -9 -24 -36 -51
-27 -19 2 20 -5 -22 -34 -49
-25 -18 5 24 0 -19 -31 -47
-21 -18 5 24 0 -19 -31 -47
-17 -17 4 23 -2 -19 -31 -47
-13 -17 4 23 -2 -19 -32 -47
-9 -16 3 22 -3 -19 -32 -47
-5 -15 2 21 -4 -18 -33 -48
-6 -14 3 23 -2 -17 -31 -46
-7 -13 5 26 2 -16 -29 -44
-8 -11 7 29 4 -14 -27 -41
-9 -10 9 32 7 -13 -25 -39
-10 -8 11 35 10 -11 -23 -37
-11 -13 9 34 8 -12 -24 -38
-13 -18 7 32 6 -14 -26 -40
-14 -23 4 31 4 -15 -27 -41
-16 -28 2 29 2 -17 -29 -44
-18 -33 -2 27 0 -19 -31 -46
-18 -31 0 28 2 -18 -31 -45
-18 -28 2 30 4 -16 -30 -44
-18 -26 4 32 6 -14 -29 -43
-18 -23 6 34 8 -12 -28 -41
-17 -20 8 36 10 -10 -27 -39
-15 -19 8 36 10 -10 -27 -39
-13 -18 9 36 10 -10 -27 -39
-11 -17 10 36 10 -9 -27 -38
-9 -16 11 36 10 -9 -27 -38
-7 -15 11 36 10 -9 -27 -38
-8 -14 12 36 12 -8 -26 -37
-11 -15 12 36 14 -8 -26 -37
-14 -15 12 37 15 -7 -26 -37
-17 -16 12 37 17 -7 -26 -37
-19 -16 12 37 18 -7 -26 -37
-19 -18 13 36 17 -7 -27 -39
-17 -20 14 33 15 -9 -29 -41
-15 -21 16 31 12 -10 -31 -44
-13 -23 17 28 10 -12 -33 -46
-12 -24 18 26 8 -13 -35 -47
-11 -25 20 26 9 -13 -35 -48
-11 -24 21 28 12 -11 -33 -47
-11 -24 23 30 15 -9 -31 -46
-11 -23 24 32 18 -7 -29 -45
-11 -23 25 34 20 -6 -28 -44
-10 -21 26 35 21 -5 -27 -43
-10 -20 26 36 21 -4 -26 -41
-9 -18 26 36 22 -4 -26 -40
-9 -17 26 37 22 -3 -25 -39
-9 -16 26 37 22 -3 -25 -39
-9 -16 27 38 23 -2 -24 -39
-10 -17 26 38 23 -2 -24 -41
-11 -18 25 37 23 -2 -25 -43
-12 -19 24 37 23 -2 -25 -45
-13 -20 24 37 23 -2 -25 -46
-14 -22 23 36 23 -3 -26 -47
-15 -23 23 37 24 -2 -25 -46
-15 -25 24 37 25 0 -24 -46
-16 -26 24 38 26 1 -23 -45
-16 -27 24 38 26 1 -23 -45
-15 -27 25 40 28 2 -22 -44
-13 -25 25 43 29 2 -22 -43
-10 -23 26 44 30 2 -22 -43
-8 -21 26 46 31 2 -22 -41
-6 -20 26 47 32 2 -22 -41
-3 -17 27 48 34 2 -23 -40
1 -14 27 49 35 3 -22 -39
4 -12 27 50 36 4 -22 -39
7 -9 27 51 37 5 -21 -38
10 -7 27 51 38 6 -21 -38
7 -9 26 53 39 7 -20 -37
3 -13 26 55 39 7 -20 -37
-2 -17 25 57 39 6 -21 -38
-6 -21 25 59 39 6 -21 -38
-10 -25 25 60 39 6 -21 -38
-8 -24 24 61 42 6 -21 -38
-4 -21 23 61 44 7 -20 -36
0 -18 23 60 45 9 -18 -34
4 -15 22 60 47 10 -17 -32
7 -13 22 60 48 11 -16 -30
9 -10 21 61 49 12 -15 -29
10 -8 22 63 50 12 -14 -28
12 -5 23 65 51 13 -14 -28
13 -3 24 67 52 13 -13 -27
14 0 25 69 53 13 -13 -27
13 -5 25 68 52 12 -13 -27
10 -12 23 66 49 9 -15 -28
7 -18 21 64 46 7 -17 -29
4 -24 19 62 43 4 -19 -30
1 -30 17 60 39 2 -20 -31
0 -31 14 59 37 0 -21 -32
0 -30 12 60 36 -2 -22 -32
0 -29 10 60 34 -4 -23 -33
0 -28 8 61 33 -5 -24 -33
0 -27 6 61 32 -6 -24 -33
-2 -25 5 62 31 -7 -24 -33
0 -24 5 63 31 -7 -23 -32
1 -23 6 64 31 -7 -21 -30
2 -22 6 65 31 -7 -20 -29
3 -21 6 65 31 -7 -19 -28
4 -20 7 66 30 -6 -18 -27
5 -19 7 66 29 -7 -18 -27
6 -19 6 65 28 -8 -18 -28
7 -18 6 65 27 -9 -18 -28
7 -18 6 65 26 -10 -18 -28
6 -17 5 64 25 -10 -18 -28
4 -17 4 64 25 -8 -17 -26
2 -18 4 63 24 -7 -16 -24
0 -18 3 63 24 -5 -15 -22
-3 -18 3 63 24 -4 -14 -20
0 -17 2 62 23 -3 -12 -19
3 -15 2 62 23 -3 -10 -19
6 -13 3 62 23 -2 -9 -18
10 -11 3 62 23 -2 -7 -18
13 -9 3 62 23 -2 -6 -18
14 -7 4 61 20 0 -5 -17
14 -5 3 59 17 0 -5 -17
14 -3 3 58 15 1 -5 -17
14 0 2 56 12 1 -5 -17
14 2 2 55 10 1 -5 -17
15 1 1 52 9 2 -4 -16
14 -3 0 49 9 1 -5 -17
13 -5 -2 46 8 1 -6 -18
12 -8 -3 44 8 0 -7 -19
11 -10 -4 40 8 0 -7 -20
10 -9 -4 39 8 0 -7 -19
9 -6 -3 39 9 2 -5 -17
8 -3 -2 39 11 4 -3 -15
7 0 0 39 12 6 0 -13
6 3 1 39 13 8 2 -11
4 4 2 35 13 8 1 -12
2 3 1 31 11 6 -3 -16
1 2 0 27 9 4 -6 -19
-2 1 -2 23 7 2 -9 -22
-3 0 -2 19 5 1 -12 -25
-4 -4 -3 17 3 0 -13 -26
-5 -6 -2 16 2 -2 -13 -25
-6 -8 0 15 1 -3 -12 -25
-7 -10 1 14 0 -4 -12 -24
-7 -12 2 13 -2 -5 -12 -24
-8 -11 3 12 -3 -6 -11 -23
-7 -9 4 11 -2 -6 -11 -24
-6 -7 4 11 0 -6 -12 -24
-5 -5 5 10 1 -6 -12 -25
-5 -3 5 10 1 -6 -12 -25
-4 -2 6 9 2 -6 -13 -26
-3 -2 7 8 2 -6 -13 -26
-2 -2 7 7 2 -5 -13 -25
0 -2 8 6 2 -5 -13 -25
0 -2 8 5 2 -5 -13 -25
1 0 9 4 3 -4 -12 -24
1 1 9 3 4 -4 -12 -24
1 3 9 2 5 -3 -11 -23
1 4 9 1 6 -3 -11 -23
1 5 9 0 6 -3 -11 -23
2 6 10 -2 7 -2 -10 -22
1 6 11 -3 7 -2 -10 -23
0 6 11 -4 7 -2 -10 -23
-2 6 12 -5 7 -2 -10 -24
-3 6 12 -6 7 -2 -10 -24
-5 6 13 -7 7 -2 -10 -25
-6 6 14 -7 9 0 -9 -24
-8 5 15 -6 11 1 -8 -24
-9 5 16 -6 13 2 -7 -23
-10 5 16 -6 14 2 -6 -23
-10 4 16 -5 15 3 -4 -22
-8 3 14 -5 14 3 0 -21
-7 2 13 -5 13 4 2 -20
-5 1 11 -5 12 4 4 -19
-4 1 10 -5 11 4 6 -18
-5 -2 9 -4 10 5 7 -17
-8 -5 8 -5 10 4 7 -17
-11 -7 7 -5 9 4 6 -18
-13 -9 6 -6 9 3 6 -18
-16 -11 6 -6 9 3 6 -18
-15 -9 5 -7 8 3 6 -18
-11 -6 6 -6 9 5 7 -16
-8 -2 7 -5 10 6 9 -14
-5 2 8 -4 11 8 10 -12
-2 6 9 -3 11 9 11 -10
0 7 10 -2 12 10 12 -9
-2 8 10 0 13 10 12 -8
-3 9 10 1 13 11 12 -8
-4 10 10 2 14 11 12 -7
-4 11 10 3 14 11 12 -7
-5 12 11 4 15 12 13 -6
-4 12 10 3 15 12 13 -6
-4 12 10 2 14 12 13 -6
-3 12 9 1 14 12 13 -6
-3 12 9 1 14 12 13 -6
1 13 8 0 13 12 12 -4
3 16 8 1 13 13 12 -3
5 18 8 1 13 13 13 0
8 20 8 2 13 14 13 2
10 22 8 2 13 14 13 3
10 23 8 3 12 15 14 4
9 22 7 2 11 14 13 4
8 21 7 1 10 13 12 3
7 20 6 0 9 12 11 3
6 20 6 0 8 12 10 3
1 16 4 -3 6 10 8 1
-6 12 1 -4 4 8 6 -2
-12 7 -2 -6 2 6 4 -4
-17 3 -4 -8 1 4 3 -5
-23 -2 -6 -9 -2 2 1 -7
-20 2 -6 -8 0 3 2 -5
-14 8 -5 -6 2 6 6 0
-9 13 -3 -3 5 9 9 4
-4 18 0 1 8 12 13 8
3 24 1 3 10 15 16 12
6 25 2 4 11 16 17 13
9 25 1 3 11 16 17 13
11 26 0 3 11 16 17 13
14 26 -2 2 11 16 17 13
17 26 -3 2 11 16 17 13
18 27 -4 1 11 17 18 14
18 27 -4 0 10 16 18 14
17 27 -4 0 9 15 17 13
17 27 -4 -2 8 14 17 13
17 27 -4 -2 7 14 17 13
16 24 -3 -3 6 12 15 11
16 21 -2 -3 5 10 13 9
15 19 -2 -3 4 8 11 7
15 16 0 -3 3 6 9 5
15 13 0 -3 2 4 7 3
11 10 1 -3 0 2 5 2
8 7 1 -3 -2 1 4 1
4 3 1 -3 -4 0 3 0
1 0 1 -3 -6 -3 2 -2
-4 -4 1 -3 -7 -4 1 -3
-7 -5 2 -3 -8 -5 0 -4
-10 -6 2 -3 -8 -5 0 -4
-12 -6 2 -2 -8 -6 -2 -4
-15 -7 2 -2 -8 -6 -2 -4
-18 -7 2 -2 -8 -6 -2 -4
-17 -8 3 0 -8 -7 -3 -5
-15 -7 4 0 -8 -7 -3 -5
-12 -6 4 0 -7 -7 -4 -5
-10 -5 5 0 -7 -7 -4 -5
-7 -4 5 0 -7 -7 -4 -5
-6 -4 5 -2 -7 -8 -6 -5
-6 -7 3 -3 -8 -9 -7 -6
-7 -9 1 -3 -9 -10 -8 -7
-7 -11 0 -4 -11 -11 -10 -8
-7 -13 -3 -4 -12 -12 -11 -9
-7 -12 -3 -5 -13 -13 -12 -9
-6 -9 -2 -3 -12 -12 -11 -7
-5 -7 1 -2 -11 -11 -10 -5
-3 -4 3 0 -10 -10 -9 -3
-2 0 4 1 -10 -9 -8 0
0 0 5 2 -9 -8 -7 1
-2 -2 5 2 -9 -8 -7 1
-3 -4 4 2 -9 -9 -7 0
-4 -6 4 2 -9 -9 -7 0
-4 -7 4 2 -9 -9 -7 0
-5 -7 3 2 -9 -10 -7 -2
-4 -6 3 2 -9 -10 -7 -2
-3 -5 4 2 -9 -9 -7 -2
-2 -3 4 2 -9 -9 -7 -2
-2 -2 4 2 -9 -9 -7 -2
0 0 6 2 -9 -8 -7 0
-2 -3 8 4 -8 -9 -8 -2
-3 -4 10 6 -7 -9 -9 -2
-4 -5 12 8 -6 -10 -10 -3
-5 -6 14 10 -5 -10 -11 -3
-6 -8 17 15 1 -10 -12 -5
-7 -9 19 21 7 -8 -12 -6
-8 -10 22 27 12 -6 -13 -8
-9 -12 24 33 18 -4 -13 -10
-9 -13 27 38 23 -2 -13 -11
-8 -16 29 49 39 16 3 2
-4 -20 30 60 57 37 23 18
0 -24 32 71 74 59 44 34
3 -27 34 82 93 80 64 52
7 -31 35 93 110 101 85 68
24 -17 18 74 111 133 127 109
46 3 -7 48 107 168 174 155
67 23 -30 20 103 202 221 202
89 43 -54 -8 99 236 267 248
110 63 -78 -34 94 271 314 295
116 87 -101 -75 58 264 317 305
119 112 -124 -120 14 244 307 306
121 137 -147 -164 -31 225 298 307
125 162 -171 -210 -75 205 287 308
127 187 -193 -255 -120 186 277 309
100 173 -183 -262 -151 129 213 255
64 146 -163 -259 -180 60 133 183
28 118 -144 -256 -208 -8 53 112
-7 92 -124 -252 -236 -76 -26 42
-43 65 -105 -248 -265 -145 -106 -29
-52 48 -90 -226 -252 -153 -120 -50
-53 32 -73 -198 -227 -145 -116 -56
-54 17 -58 -171 -202 -137 -112 -62
-56 2 -43 -143 -178 -128 -108 -69
-57 -13 -27 -114 -153 -119 -104 -75
-55 -18 -21 -100 -139 -113 -100 -75
-50 -20 -19 -89 -128 -108 -95 -71
-46 -23 -16 -77 -116 -103 -91 -68
-40 -25 -14 -67 -106 -98 -86 -65
-36 -27 -11 -56 -95 -93 -81 -61
-35 -26 -9 -48 -86 -86 -76 -58
-36 -24 -7 -40 -76 -78 -72 -54
-37 -21 -5 -34 -67 -71 -68 -51
-39 -18 -3 -27 -58 -64 -64 -48
-40 -15 0 -20 -49 -57 -59 -44
-38 -14 1 -13 -40 -51 -54 -39
-33 -14 1 -6 -32 -45 -49 -34
-28 -14 1 1 -24 -38 -44 -30
-23 -14 1 8 -16 -33 -37 -25
-18 -14 1 15 -8 -27 -32 -21
-14 -14 3 18 -5 -25 -29 -18
-10 -13 5 19 -3 -23 -28 -17
-6 -12 6 20 0 -22 -27 -15
-2 -11 8 22 2 -21 -25 -13
3 -11 10 23 4 -20 -24 -12
2 -10 11 24 5 -19 -23 -10
0 -10 11 24 5 -17 -21 -9
-4 -11 11 25 6 -16 -20 -8
-7 -11 11 25 6 -15 -19 -6
-10 -11 11 25 6 -14 -18 -5
-10 -12 12 26 7 -13 -17 -4
-8 -10 12 27 8 -13 -16 -4
-5 -9 13 28 9 -12 -16 -3
-3 -8 13 29 10 -12 -15 -3
0 -7 13 30 11 -12 -15 -3
1 -6 15 31 12 -11 -14 -2
1 -7 16 32 13 -10 -13 0
2 -8 17 33 14 -10 -12 1
2 -9 19 34 15 -9 -11 2
2 -9 20 35 15 -9 -10 3
3 -10 21 36 16 -8 -9 4
3 -9 21 36 16 -8 -9 4
3 -8 20 36 16 -8 -10 3
3 -7 20 36 16 -8 -10 3
3 -6 20 36 16 -8 -10 3
3 -5 19 35 17 -7 -11 2
2 -6 19 36 17 -7 -11 3
1 -7 19 36 17 -7 -10 3
0 -8 19 37 17 -7 -10 4
0 -9 19 37 17 -7 -10 4
-2 -10 19 38 18 -8 -9 5
0 -10 19 38 18 -8 -9 5
0 -10 19 38 18 -7 -9 5
1 -10 19 38 18 -7 -9 5
1 -10 19 38 18 -7 -9 5
1 -10 20 37 18 -6 -8 6
-2 -11 20 38 19 -5 -7 7
-3 -11 20 38 20 -4 -6 7
-5 -12 20 39 20 -4 -5 8
-7 -12 20 39 21 -3 -4 8
-6 -13 21 40 22 -2 -3 9
-4 -11 21 40 23 -2 -4 7
0 -10 20 40 23 -3 -5 6
3 -9 20 40 24 -3 -5 5
6 -8 20 40 24 -3 -6 4
7 -7 19 42 25 -4 -7 3
6 -7 19 43 25 -3 -7 4
6 -7 19 43 26 -3 -6 5
5 -7 19 44 26 -2 -6 5
5 -7 19 44 26 -2 -6 6
4 -7 20 45 27 0 -5 7
3 -8 20 45 29 0 -5 7
2 -9 20 45 30 0 -4 7
2 -10 20 45 31 0 -4 7
1 -11 20 45 32 0 -4 7
0 -13 20 45 33 1 -3 6
0 -14 19 45 33 1 -3 6
0 -16 18 44 32 1 -4 5
0 -17 17 44 32 1 -4 5
0 -19 16 44 32 1 -4 5
4 -18 16 45 33 1 -4 5
9 -14 19 48 35 3 -2 8
14 -10 21 51 38 5 1 11
19 -6 23 54 42 8 3 13
24 -3 26 58 45 10 5 16
24 -3 26 59 46 11 6 17
20 -6 24 58 46 10 5 15
17 -9 23 57 46 10 5 14
13 -12 21 56 46 9 4 13
10 -15 19 55 46 9 4 12
9 -16 18 54 45 8 3 11
10 -16 19 55 47 10 5 13
11 -16 19 55 48 11 6 14
13 -16 20 56 49 12 7 15
14 -16 20 56 50 13 8 16
15 -16 21 57 51 14 9 17
15 -15 21 58 52 14 10 18
15 -14 21 58 52 15 11 18
15 -13 21 59 53 15 11 19
15 -12 21 59 53 15 12 19
15 -11 21 60 54 15 13 20
15 -12 20 59 53 14 12 19
15 -12 20 59 53 12 11 18
15 -13 19 58 52 11 11 18
15 -13 19 58 52 9 10 17
16 -14 18 57 51 8 9 16
16 -13 18 57 50 8 11 17
15 -13 18 56 50 9 12 18
15 -12 18 56 49 9 14 19
15 -12 18 56 49 9 15 20
14 -12 19 55 47 10 16 21
14 -13 18 53 45 8 15 20
13 -15 17 52 44 7 14 20
13 -16 16 51 42 6 14 19
13 -18 15 50 39 5 13 19
13 -18 14 49 38 4 12 18
16 -16 15 49 37 3 13 19
18 -14 16 49 37 2 14 20
20 -12 16 49 36 2 14 20
23 -10 17 49 36 1 15 21
24 -10 17 49 34 -2 16 21
22 -13 15 47 32 -4 14 20
21 -15 14 46 30 -5 13 18
19 -17 12 44 28 -7 11 17
18 -20 10 42 26 -9 10 15
17 -21 9 40 25 -10 9 14
17 -21 9 40 24 -9 10 15
16 -20 9 40 24 -9 11 16
16 -20 9 40 23 -8 11 17
16 -20 9 40 23 -8 12 18
17 -16 8 39 22 -6 13 19
20 -10 9 39 23 -5 15 20
23 -4 10 39 24 -3 16 21
26 2 10 39 24 -2 17 22
29 8 11 39 25 1 18 23
28 9 11 39 24 2 19 24
25 6 9 37 21 2 17 23
22 4 8 35 18 1 16 22
19 2 6 32 15 1 15 21
16 -2 4 30 12 1 14 20
14 -3 3 29 11 0 13 19
13 -2 3 29 11 0 12 18
12 0 4 29 11 0 12 18
12 0 4 29 11 0 11 17
11 1 4 29 11 0 11 17
10 2 5 29 11 1 10 16
10 2 5 29 9 0 9 15
9 2 5 28 8 0 9 14
9 2 5 28 7 -2 8 14
9 2 5 28 6 -2 8 13
7 1 5 26 4 -4 6 11
4 -3 4 25 2 -6 3 8
2 -5 2 23 0 -8 1 6
-2 -7 1 22 -3 -10 -2 4
-5 -10 -2 20 -5 -12 -5 1
-5 -8 -2 21 -5 -12 -5 1
-3 -4 2 24 -3 -11 -4 3
0 2 4 27 0 -9 -2 5
2 6 7 30 3 -7 1 8
4 11 10 33 5 -5 3 10
5 13 11 35 6 -4 4 10
5 12 10 34 6 -5 3 9
4 11 8 33 5 -6 1 7
4 10 7 32 4 -6 0 5
4 9 6 31 4 -7 -2 3
3 8 5 30 3 -8 -3 2
5 8 6 32 4 -7 -2 2
6 8 7 33 5 -5 0 3
8 8 7 35 6 -4 0 3
9 8 8 36 7 -3 1 3
9 7 9 37 8 -2 2 4
8 8 9 37 8 -2 2 4
6 9 10 37 9 -2 2 3
5 9 10 37 10 -2 2 2
3 10 10 37 10 -2 2 2
2 10 11 37 11 -3 1 1
1 7 9 36 10 -3 0 0
0 5 8 35 9 -4 -2 -2
0 2 6 34 9 -4 -2 -2
-2 -2 5 33 8 -4 -3 -3
-2 -2 4 32 8 -5 -4 -4
2 0 4 34 9 -3 -3 -4
4 2 5 35 11 -2 -2 -3
7 4 6 37 13 1 -2 -2
10 6 6 38 15 2 0 -2
10 5 7 39 16 3 1 0
7 2 7 37 16 3 1 0
4 -2 6 36 15 4 2 0
1 -5 6 34 14 4 3 0
-2 -8 6 33 14 4 3 0
-2 -8 5 32 13 5 4 0
2 -3 6 32 14 6 5 1
5 3 7 32 15 7 6 3
9 7 8 32 16 8 7 4
12 12 9 32 17 9 8 5
12 14 10 32 18 10 9 6
9 16 10 31 18 10 9 7
5 17 10 29 17 11 10 8
1 19 10 27 16 12 10 8
-3 20 10 25 16 12 10 9
-3 21 10 23 15 13 11 10
2 20 9 20 15 12 11 10
6 19 8 18 15 11 10 10
10 19 7 15 15 11 9 10
14 18 6 12 15 10 9 10
16 18 5 11 15 9 8 9
15 19 5 11 16 11 9 10
13 21 6 11 17 12 10 11
12 23 6 11 17 14 11 12
11 25 6 11 18 15 12 13
10 26 7 8 19 16 13 14
10 26 6 5 18 15 11 12
10 25 5 1 16 13 9 10
10 25 4 -4 15 12 8 9
10 25 3 -7 14 11 6 7
9 24 2 -8 13 10 5 6
9 24 2 -7 13 10 6 7
9 25 3 -5 13 11 7 9
9 26 3 -3 13 11 7 10
9 26 3 0 13 11 8 11
10 27 3 1 12 12 9 12
10 27 1 -2 11 11 9 12
11 26 -2 -3 10 10 8 11
11 25 -4 -5 9 9 8 10
11 25 -6 -6 8 8 8 10
12 24 -7 -7 7 7 7 9
12 24 -7 -7 7 9 9 10
11 24 -7 -7 7 10 10 12
10 24 -7 -7 7 12 12 13
10 24 -7 -7 7 13 13 14
10 25 -8 -8 8 14 14 15
12 26 -8 -8 8 14 15 16
14 28 -7 -7 9 14 16 17
16 30 -6 -6 9 14 16 17
18 32 -6 -6 9 14 17 18
18 30 -5 -5 9 14 17 18
15 24 -5 -5 7 11 14 14
12 17 -5 -6 5 8 12 11
9 11 -5 -7 3 5 9 8
6 5 -5 -7 0 3 7 5
5 2 -6 -8 -2 1 5 3
6 3 -5 -8 -2 0 4 2
8 4 -4 -8 -2 -2 3 1
10 5 -3 -8 -2 -2 3 1
12 6 -2 -8 -2 -3 2 0
12 7 0 -7 -2 -4 1 -2
10 5 -2 -8 -4 -6 -2 -4
7 3 -3 -9 -7 -8 -3 -5
5 2 -3 -9 -9 -9 -5 -7
2 0 -4 -10 -12 -11 -6 -8
1 -2 -5 -11 -13 -12 -7 -9
2 0 -4 -10 -12 -12 -7 -9
4 2 -3 -9 -11 -11 -6 -8
5 3 -3 -9 -10 -10 -5 -7
6 4 -2 -8 -9 -10 -5 -7
7 5 0 -7 -8 -9 -4 -6
6 4 0 -7 -8 -9 -4 -6
5 3 0 -6 -8 -9 -4 -6
4 2 0 -5 -8 -9 -4 -6
3 1 0 -5 -8 -9 -4 -6
1 -2 -2 -4 -8 -8 -5 -6
-4 -3 -2 -4 -8 -9 -6 -7
-7 -5 -3 -5 -9 -10 -7 -8
-10 -7 -4 -5 -9 -11 -8 -9
-13 -9 -4 -5 -9 -12 -9 -10
-14 -10 -5 -6 -10 -13 -10 -11
-11 -9 -6 -6 -11 -13 -10 -11
-8 -8 -7 -6 -12 -14 -11 -12
-5 -7 -7 -6 -13 -14 -11 -12
-3 -6 -8 -6 -14 -14 -11 -12
0 -5 -9 -6 -15 -15 -12 -13
-2 -5 -9 -6 -15 -15 -12 -13
-3 -4 -8 -5 -15 -14 -12 -12
-3 -4 -7 -5 -15 -14 -12 -12
-4 -4 -7 -5 -15 -14 -12 -12
-5 -3 -6 -4 -14 -13 -12 -11
-6 -4 -6 -4 -14 -13 -12 -11
-7 -6 -6 -4 -14 -14 -12 -11
-8 -7 -6 -4 -14 -14 -12 -11
-9 -8 -6 -4 -14 -14 -12 -11
-7 -9 -4 0 -12 -15 -12 -11
1 -7 3 7 -5 -15 -13 -12
8 -5 9 14 2 -16 -14 -13
15 -4 15 21 9 -16 -15 -14
22 -2 21 28 16 -16 -16 -15
24 -2 24 35 25 -8 -10 -11
20 -6 24 43 38 10 5 -2
15 -9 25 50 51 28 18 9
11 -13 25 57 64 46 32 18
6 -16 25 63 76 63 46 27
13 -12 18 63 85 91 75 54
31 0 3 56 89 126 117 93
49 11 -13 49 93 161 159 132
67 22 -28 42 97 196 201 171
86 33 -44 34 101 232 243 210
97 55 -69 0 79 250 270 240
103 85 -102 -57 35 253 283 264
108 113 -136 -114 -9 255 297 286
114 143 -170 -171 -53 258 310 310
120 173 -203 -228 -97 260 324 332
107 177 -211 -256 -135 220 285 306
76 156 -195 -261 -169 142 203 236
46 137 -180 -266 -202 64 121 167
14 116 -164 -271 -235 -13 38 97
-17 96 -149 -276 -269 -91 -44 26
-32 77 -133 -265 -274 -130 -86 -15
-35 61 -114 -236 -255 -136 -95 -31
-39 44 -96 -208 -235 -143 -104 -49
-43 26 -77 -181 -215 -149 -113 -65
-46 9 -60 -153 -195 -156 -121 -82
-48 -3 -48 -134 -179 -154 -123 -91
-49 -9 -43 -121 -164 -143 -115 -89
-50 -15 -36 -109 -149 -133 -108 -88
-51 -21 -31 -96 -135 -121 -101 -87
-52 -27 -25 -83 -120 -110 -94 -85
-50 -29 -22 -73 -108 -101 -87 -80
-44 -27 -20 -66 -99 -94 -81 -75
-36 -24 -18 -58 -89 -86 -75 -69
-30 -21 -17 -50 -79 -78 -70 -64
-23 -19 -15 -41 -69 -70 -64 -58
-20 -16 -13 -33 -59 -62 -58 -52
-19 -14 -10 -25 -49 -54 -50 -46
-17 -11 -7 -16 -37 -45 -43 -38
-16 -9 -5 -8 -27 -36 -35 -32
-15 -7 -2 2 -16 -27 -28 -26
-13 -5 1 6 -11 -23 -24 -22
-11 -5 1 7 -9 -22 -24 -22
-8 -6 2 8 -7 -21 -23 -21
-5 -6 3 9 -6 -20 -22 -20
-3 -6 3 10 -4 -19 -22 -20
0 -7 4 11 -3 -18 -21 -19
0 -7 4 11 -2 -17 -20 -18
1 -6 5 12 0 -16 -18 -16
2 -5 6 13 0 -15 -17 -15
2 -5 6 13 1 -14 -16 -14
2 -5 7 14 2 -13 -15 -13
-2 -7 7 14 2 -13 -15 -13
-5 -10 7 13 2 -14 -15 -14
-8 -12 7 13 2 -15 -15 -14
-11 -14 7 13 2 -15 -15 -14
-13 -16 6 12 1 -16 -16 -15
-13 -15 6 12 2 -15 -15 -14
-12 -14 7 13 3 -14 -14 -13
-11 -14 7 14 3 -13 -13 -12
-11 -13 7 14 4 -12 -12 -11
-10 -12 8 15 5 -11 -11 -10
-9 -10 8 14 5 -11 -11 -10
-8 -9 8 13 5 -11 -12 -10
-8 -8 8 13 5 -11 -12 -10
-7 -6 8 12 5 -11 -12 -10
-6 -5 9 11 5 -11 -13 -10
-4 -7 9 11 5 -11 -13 -10
-2 -9 8 11 5 -11 -13 -10
1 -11 8 11 5 -11 -13 -10
3 -13 8 11 5 -11 -13 -10
4 -14 7 11 4 -10 -13 -11
4 -13 7 11 4 -10 -13 -11
4 -11 7 11 5 -10 -13 -11
4 -10 7 11 5 -10 -13 -11
4 -9 7 11 5 -10 -13 -11
3 -8 8 12 6 -10 -13 -12
3 -6 8 13 7 -10 -12 -12
4 -5 8 14 7 -9 -12 -12
5 -4 8 15 8 -8 -11 -12
5 -2 8 16 9 -8 -10 -12
6 0 9 17 10 -7 -9 -11
7 1 9 19 11 -6 -8 -10
8 2 9 20 12 -5 -7 -10
9 4 10 21 14 -4 -5 -9
10 5 10 23 15 -3 -4 -8
10 5 11 24 16 -2 -3 -7
8 2 11 24 16 -2 -3 -7
6 0 10 23 16 -2 -3 -8
4 -4 9 22 16 -2 -3 -9
2 -7 9 22 16 -2 -3 -9
0 -9 8 21 16 -2 -3 -10
0 -9 8 22 17 -2 -3 -10
0 -9 8 22 17 -2 -3 -10
0 -9 8 23 18 -2 -3 -10
0 -9 8 24 19 -2 -3 -10
-2 -9 7 25 20 0 -2 -10
1 -8 7 25 21 1 0 -10
2 -8 8 26 21 2 0 -10
4 -7 9 27 22 4 1 -10
6 -6 9 27 23 5 2 -10
6 -6 10 28 24 6 3 -9
4 -8 9 28 24 6 2 -10
2 -10 8 28 25 6 2 -11
0 -13 6 29 26 6 1 -12
-3 -15 5 29 26 6 0 -13
-5 -17 4 30 27 5 -2 -14
-4 -17 5 31 28 6 1 -13
-3 -17 5 32 28 7 2 -12
0 -17 6 33 29 9 3 -10
1 -17 7 34 30 10 5 -9
2 -15 8 35 31 11 6 -8
4 -13 8 37 33 13 7 -6
6 -11 8 38 34 14 8 -5
8 -8 8 39 36 15 10 -4
10 -6 8 42 38 17 11 -2
11 -5 9 43 39 18 12 0
9 -7 8 42 39 18 12 0
6 -9 7 42 39 17 12 0
3 -11 6 40 40 16 11 -2
1 -13 5 39 40 16 11 -2
0 -15 4 38 42 15 10 -3
3 -13 4 38 42 15 11 -3
6 -11 4 38 42 15 11 -3
9 -9 5 38 42 16 12 -2
12 -7 5 38 42 16 13 -2
14 -6 6 38 43 17 14 0
15 -7 6 38 43 17 14 0
16 -7 6 38 42 16 14 0
18 -8 5 38 40 15 14 1
19 -9 5 38 40 15 14 1
20 -10 4 37 39 14 15 2
19 -10 4 36 37 13 15 2
19 -10 4 35 35 12 15 1
18 -9 4 34 33 10 14 0
17 -9 4 33 31 9 14 0
16 -8 3 32 29 8 13 -2
16 -8 3 32 29 8 13 -2
16 -8 3 32 29 8 13 -2
17 -8 3 32 29 7 14 -2
17 -8 3 32 29 7 14 -2
18 -9 4 32 27 6 15 0
16 -11 2 30 25 4 13 -2
15 -12 1 29 22 2 12 -3
13 -13 -2 27 20 0 11 -4
11 -15 -4 25 17 -3 9 -5
10 -16 -5 24 15 -4 8 -6
10 -15 -5 24 16 -4 9 -5
11 -14 -5 23 16 -3 10 -5
12 -13 -4 22 17 -2 11 -4
12 -12 -4 22 18 -2 12 -3
13 -11 -3 21 19 0 13 -2
12 -12 -3 20 18 0 13 -2
12 -12 -3 20 17 0 13 -2
11 -13 -4 19 15 0 13 -2
10 -14 -4 18 14 0 13 -2
10 -13 -5 17 13 0 12 -3
12 -9 -5 16 12 0 12 -3
15 -4 -5 16 12 1 12 -3
17 1 -6 15 11 2 13 -2
20 6 -6 14 10 2 13 -2
22 9 -7 13 9 3 14 0
20 9 -7 12 7 3 14 0
19 9 -7 12 6 3 14 0
17 9 -7 11 5 4 13 0
15 9 -7 10 3 4 13 0
14 10 -7 9 2 5 12 -2
14 11 -7 9 2 5 12 -2
13 12 -7 9 1 5 12 -2
12 14 -6 8 0 5 12 -2
12 15 -6 8 0 5 12 -2
10 15 -5 7 -3 4 10 -3
8 12 -6 5 -5 1 8 -5
5 9 -6 4 -7 -2 5 -7
2 6 -7 2 -10 -4 3 -10
-2 2 -8 0 -12 -6 0 -12
-4 0 -9 -2 -14 -8 -3 -14
-3 2 -8 -2 -14 -8 -3 -14
-2 4 -7 -2 -14 -8 -3 -14
0 6 -5 0 -14 -8 -3 -14
1 7 -4 0 -14 -8 -3 -14
2 9 -3 1 -13 -8 -4 -15
1 7 -4 1 -13 -9 -5 -16
0 5 -4 1 -14 -10 -6 -17
-3 3 -5 0 -15 -11 -8 -19
-4 1 -6 0 -15 -12 -9 -20
-5 -2 -7 -2 -16 -13 -10 -21
-4 0 -6 0 -15 -12 -10 -21
-4 2 -5 1 -14 -12 -10 -21
-3 3 -3 3 -13 -11 -10 -20
-2 5 -2 4 -12 -10 -10 -20
0 6 0 5 -11 -9 -9 -19
3 6 0 5 -11 -9 -9 -20
5 6 0 5 -11 -9 -9 -20
7 6 -2 5 -11 -9 -10 -21
9 6 -2 5 -11 -9 -10 -22
11 7 -3 4 -11 -10 -11 -23
9 7 -3 4 -10 -10 -11 -23
8 7 -3 4 -10 -9 -11 -22
6 6 -2 5 -9 -8 -10 -21
4 6 -2 5 -8 -8 -10 -21
4 6 0 6 -6 -7 -9 -20
8 10 1 9 -4 -4 -7 -18
12 13 3 11 0 -2 -5 -16
15 17 4 14 3 2 -3 -14
19 20 6 16 6 4 0 -12
20 21 7 18 8 6 2 -10
13 15 5 15 6 4 0 -12
7 9 3 13 4 2 -3 -13
0 3 1 11 2 0 -5 -15
-7 -4 0 9 0 -2 -7 -17
-12 -8 -3 7 -3 -4 -9 -18
-11 -7 -2 8 0 -2 -7 -17
-11 -5 -2 9 1 1 -6 -16
-10 -4 0 11 3 3 -4 -15
-9 -2 1 12 5 5 -2 -14
-7 1 2 13 6 7 0 -13
-4 4 2 13 6 7 0 -12
1 8 2 12 6 7 0 -12
5 11 3 11 6 7 0 -11
8 14 3 11 6 7 0 -10
11 17 4 10 6 8 1 -9
8 17 4 10 6 8 1 -8
6 17 4 10 6 9 2 -7
4 17 4 10 7 10 3 -6
2 17 4 10 7 10 3 -5
1 17 3 11 8 11 4 -4
4 20 3 11 8 11 5 -3
8 23 3 11 8 11 6 -3
11 26 3 11 8 12 7 -2
14 30 3 11 8 12 8 0
16 32 3 10 8 13 9 1
13 30 2 10 7 13 9 1
10 28 2 9 6 12 8 1
7 26 1 8 5 11 7 0
4 24 0 8 4 11 7 0
3 22 -2 7 3 10 6 -2
7 24 -2 7 3 10 6 -2
11 26 0 7 3 10 6 -2
14 28 1 6 2 10 6 0
18 29 1 6 2 10 6 0
21 32 2 5 1 9 6 1
21 35 1 5 1 10 7 2
22 38 -2 4 1 11 8 4
23 42 -3 3 2 12 10 5
23 45 -5 3 2 13 11 7
24 46 -6 2 3 14 12 8
23 43 -7 2 3 14 12 8
22 38 -9 2 2 14 12 8
21 34 -10 2 1 13 12 7
20 31 -12 2 1 13 12 7
19 28 -13 2 0 12 11 6
17 28 -13 1 0 12 11 6
15 28 -12 1 0 11 11 6
13 28 -11 0 0 10 10 7
11 28 -11 -2 0 10 10 7
9 27 -10 -3 0 9 9 8
11 26 -8 -2 0 8 9 8
14 25 -6 -2 0 8 9 7
16 24 -4 0 0 7 8 6
18 23 -3 1 0 6 8 6
20 21 0 2 0 5 6 5
20 18 0 0 -3 2 3 2
20 15 0 -3 -6 -2 0 0
20 12 -2 -5 -8 -5 -4 -4
20 9 -2 -7 -10 -8 -7 -6
19 7 -3 -9 -12 -10 -9 -8
15 7 -3 -9 -12 -10 -9 -8
11 7 -3 -8 -12 -11 -10 -8
7 7 -3 -7 -13 -12 -11 -9
3 7 -3 -7 -13 -12 -11 -9
0 6 -2 -6 -14 -13 -12 -10
1 7 1 -6 -14 -13 -11 -10
3 8 2 -5 -13 -12 -9 -10
4 10 4 -4 -12 -11 -8 -9
6 11 5 -4 -12 -11 -6 -9
7 12 7 -3 -11 -10 -5 -8
8 13 7 -2 -10 -9 -5 -7
10 14 7 0 -10 -8 -5 -6
11 16 7 1 -9 -7 -5 -5
13 17 7 2 -8 -6 -5 -4
13 17 7 3 -7 -5 -4 -3
10 13 5 2 -9 -7 -6 -5
6 8 3 0 -11 -9 -8 -6
2 4 1 -2 -13 -11 -10 -8
-2 -2 -2 -4 -14 -12 -11 -9
-4 -5 -4 -5 -16 -14 -13 -11
1 -2 -4 -4 -16 -14 -13 -11
6 2 -4 -3 -15 -13 -13 -11
10 5 -3 -2 -15 -13 -12 -10
15 8 -3 1 -14 -12 -12 -10
18 11 -2 2 -13 -11 -11 -9
16 10 -2 2 -13 -11 -11 -9
13 8 -2 2 -13 -11 -11 -9
11 7 -2 1 -13 -11 -11 -9
9 5 -2 1 -13 -11 -11 -9
7 4 -3 0 -13 -12 -11 -10
7 3 -3 1 -13 -12 -11 -10
7 2 -3 2 -13 -12 -11 -10
7 1 -2 3 -13 -12 -11 -10
7 0 -2 4 -13 -12 -11 -10
8 -2 1 6 -13 -12 -10 -12
5 -5 6 12 -8 -13 -12 -15
3 -7 10 17 -3 -14 -14 -18
1 -9 15 22 3 -15 -16 -22
-3 -12 19 28 8 -16 -18 -25
-4 -14 23 34 17 -11 -15 -25
3 -14 24 43 33 9 1 -13
9 -14 25 51 50 27 17 0
15 -14 26 58 66 47 33 12
21 -14 28 66 82 66 50 24
31 -11 24 68 95 92 74 46
50 6 7 53 98 131 120 88
68 21 -11 36 100 170 165 129
87 36 -28 21 102 209 211 171
105 53 -46 6 105 247 257 212
119 72 -68 -22 94 275 290 246
125 100 -104 -75 51 273 299 266
130 129 -140 -129 8 271 307 284
134 156 -176 -183 -36 270 315 303
139 184 -211 -236 -79 268 323 322
133 197 -231 -275 -121 241 304 314
98 172 -215 -282 -158 160 220 243
63 147 -197 -288 -196 78 136 172
28 121 -180 -296 -234 -3 52 101
-8 97 -162 -302 -272 -85 -32 29
-33 73 -145 -298 -293 -142 -93 -25
-39 57 -124 -265 -270 -142 -97 -39
-45 39 -105 -233 -246 -142 -102 -55
-51 22 -86 -200 -224 -142 -106 -70
-57 5 -65 -169 -201 -142 -110 -85
-60 -8 -50 -142 -182 -141 -113 -96
-57 -12 -47 -129 -168 -135 -110 -96
-54 -15 -43 -116 -154 -130 -106 -96
-50 -18 -38 -103 -140 -123 -103 -95
-47 -21 -34 -90 -127 -117 -99 -95
-43 -24 -31 -77 -113 -110 -94 -93
-37 -22 -28 -67 -100 -99 -85 -89
-31 -19 -25 -56 -87 -87 -75 -83
-26 -17 -22 -46 -73 -74 -66 -78
-20 -15 -19 -34 -60 -63 -57 -74
-16 -13 -17 -24 -48 -53 -49 -68
-12 -10 -14 -17 -38 -47 -44 -61
-9 -8 -11 -9 -30 -39 -38 -54
-6 -6 -8 -2 -21 -33 -32 -47
-3 -3 -5 7 -13 -27 -27 -39
1 0 -3 13 -6 -22 -23 -34
-3 0 -2 13 -5 -22 -23 -34
-5 0 0 13 -5 -22 -23 -34
-7 0 1 13 -4 -21 -23 -34
-10 0 3 13 -3 -21 -23 -34
-11 0 4 14 -2 -20 -23 -33
-4 3 5 15 3 -18 -21 -30
4 5 6 16 6 -17 -19 -28
11 8 7 17 9 -15 -18 -26
18 11 8 18 12 -14 -16 -23
22 12 9 19 15 -12 -14 -21
16 7 9 19 14 -12 -14 -22
9 1 9 19 13 -12 -14 -23
3 -5 10 19 12 -12 -14 -24
-4 -11 10 19 11 -12 -14 -26
-9 -15 11 18 10 -13 -15 -27
-6 -14 11 18 10 -13 -15 -27
-4 -12 11 18 10 -13 -15 -27
0 -11 11 17 9 -14 -15 -26
3 -10 11 17 9 -14 -15 -26
5 -8 10 16 8 -15 -16 -25
5 -7 11 17 9 -14 -15 -24
5 -6 12 17 11 -14 -15 -24
5 -5 13 18 12 -13 -14 -23
5 -3 14 19 13 -12 -13 -22
5 -2 15 20 15 -11 -12 -21
5 -3 15 20 15 -11 -12 -21
4 -4 15 19 14 -11 -12 -21
4 -5 14 19 14 -11 -12 -21
3 -7 14 18 13 -11 -12 -21
2 -8 13 17 12 -11 -13 -21
4 -7 14 18 13 -10 -13 -21
6 -6 14 18 14 -9 -13 -20
7 -5 15 19 15 -8 -12 -20
9 -4 16 20 17 -7 -12 -19
11 -3 17 21 18 -6 -11 -18
9 -4 17 21 18 -6 -11 -18
7 -6 17 21 18 -6 -11 -18
4 -7 16 20 17 -6 -12 -18
2 -8 16 20 17 -6 -12 -18
0 -10 15 19 16 -7 -13 -18
2 -9 16 20 18 -6 -12 -18
4 -7 17 22 20 -5 -12 -18
7 -6 18 23 21 -4 -11 -17
9 -5 19 24 23 -3 -10 -17
11 -3 20 26 25 -2 -9 -16
8 -5 20 26 25 -2 -9 -17
5 -7 19 27 25 -2 -9 -18
2 -8 19 27 25 -2 -9 -19
0 -10 18 28 25 -2 -9 -20
-4 -12 17 29 25 -2 -10 -21
-4 -12 17 30 27 -2 -10 -20
-3 -11 18 32 29 0 -9 -19
-2 -10 18 33 32 0 -8 -18
0 -9 19 34 34 1 -7 -17
1 -8 20 36 36 2 -6 -16
5 -8 19 35 35 2 -6 -16
9 -7 18 34 33 2 -7 -17
12 -7 17 33 32 2 -8 -18
16 -6 16 31 31 2 -9 -19
19 -5 15 30 29 1 -10 -20
18 -5 16 32 32 3 -8 -19
17 -6 17 34 35 5 -6 -17
16 -7 18 37 38 7 -4 -16
14 -8 20 39 40 9 -2 -15
13 -9 21 42 44 11 1 -13
13 -9 21 42 44 11 1 -13
13 -10 21 42 44 11 1 -13
12 -10 20 42 44 11 1 -13
12 -11 20 42 44 11 1 -13
11 -12 19 43 45 11 1 -13
12 -10 19 45 47 13 2 -12
14 -8 19 47 50 15 3 -11
16 -6 19 48 52 16 4 -10
17 -4 19 50 55 18 5 -8
19 -2 20 52 57 20 6 -7
19 -2 20 52 57 20 6 -7
19 -3 20 52 57 20 6 -7
18 -3 19 52 57 19 6 -6
18 -4 19 52 57 19 6 -6
17 -5 18 51 56 18 6 -5
18 -4 18 51 57 18 7 -5
19 -3 18 52 58 19 8 -4
20 -2 18 53 59 20 9 -3
22 1 18 54 60 21 10 -2
23 2 19 55 61 22 11 0
22 0 19 54 61 22 11 0
21 -2 19 53 61 21 11 0
20 -4 18 52 61 21 11 1
18 -6 18 51 61 20 11 1
17 -8 17 50 60 19 10 2
17 -7 17 49 60 18 10 2
17 -6 17 48 59 17 10 2
17 -5 16 47 58 16 10 2
17 -3 16 46 57 15 10 2
16 -2 15 45 56 14 10 3
16 -2 14 44 54 13 10 3
16 -2 13 42 52 12 10 3
17 -2 12 39 50 11 9 2
17 -2 11 38 48 10 9 2
18 -2 10 36 46 9 8 1
18 -2 10 36 46 9 8 1
18 -2 10 36 46 9 9 2
18 -3 11 36 45 9 9 3
18 -3 11 36 45 9 10 4
18 -4 12 36 44 9 11 5
18 -5 12 35 43 9 11 5
18 -6 11 33 40 9 11 5
17 -7 10 32 38 9 12 6
17 -9 9 31 37 9 12 6
16 -10 8 29 35 9 13 7
18 -6 8 29 35 10 13 7
20 -3 9 29 35 11 14 8
23 2 9 29 35 12 15 9
25 6 10 29 35 14 16 10
27 9 11 30 36 15 17 11
26 9 11 28 33 15 17 11
25 9 10 26 31 14 17 11
24 9 10 23 28 14 16 11
22 9 9 21 26 13 16 11
21 8 8 19 23 12 15 11
20 7 8 18 22 12 15 11
18 6 7 16 20 12 14 10
17 5 6 14 18 12 13 9
16 3 5 13 17 12 12 8
14 2 4 11 15 11 11 7
15 5 4 11 15 11 11 7
16 8 4 11 15 11 11 8
17 11 5 11 14 12 11 8
18 14 5 11 14 12 11 9
19 17 6 10 13 13 11 10
17 16 6 9 12 11 10 9
15 14 6 8 10 10 8 7
13 12 5 7 8 8 7 6
10 11 5 5 7 6 6 5
8 9 4 4 5 4 4 3
8 9 4 4 5 4 4 3
9 10 5 4 5 4 4 3
10 10 5 4 5 4 4 3
11 11 6 4 5 4 4 3
12 12 7 5 4 3 3 2
12 12 7 5 4 3 3 2
11 12 7 5 4 2 2 1
11 12 7 5 3 1 2 1
10 12 7 5 3 0 1 0
9 11 6 6 2 -2 0 -2
7 10 6 6 2 -2 -2 -2
5 9 6 6 2 -3 -3 -3
3 8 6 6 1 -3 -4 -4
1 7 6 6 1 -4 -5 -5
-2 5 5 5 0 -5 -6 -6
0 6 5 5 0 -5 -6 -6
2 7 6 6 1 -5 -6 -6
3 8 6 6 2 -4 -7 -7
4 9 7 7 3 -4 -7 -7
6 11 8 8 4 -3 -8 -8
7 11 8 8 4 -3 -8 -8
8 12 8 8 5 -3 -7 -8
9 12 9 9 5 -3 -6 -7
10 13 9 9 6 -3 -5 -7
11 14 10 10 7 -2 -4 -6
9 13 10 10 7 -2 -4 -6
7 12 10 10 7 -2 -4 -6
5 11 10 11 8 -2 -4 -6
3 10 10 11 8 -2 -4 -6
1 8 11 12 9 0 -4 -6
-2 7 11 12 9 0 -4 -6
-4 5 11 12 10 1 -4 -6
-6 4 11 12 10 2 -4 -6
-8 3 11 12 11 3 -4 -6
-10 1 11 13 12 4 -3 -5
-8 3 11 13 12 4 -3 -5
-6 5 11 13 12 4 -3 -5
-4 7 11 13 12 4 -3 -5
-2 9 11 13 12 4 -3 -5
1 11 11 13 13 4 -3 -4
3 12 11 13 13 4 -3 -4
5 13 11 13 13 4 -2 -4
7 14 11 13 13 5 0 -3
9 15 11 13 13 5 1 -3
11 16 11 14 14 6 2 -2
10 16 11 14 14 7 3 0
9 16 11 14 14 8 4 2
8 15 11 14 14 10 5 4
7 15 11 14 14 11 6 5
6 14 11 14 15 13 8 7
3 14 10 13 14 12 7 6
1 15 8 12 13 11 6 5
-3 16 6 11 12 10 5 4
-6 17 5 10 11 9 4 3
-9 18 3 8 10 8 3 1
-2 21 4 8 11 9 4 2
5 24 5 9 12 10 5 3
11 28 7 10 13 11 7 5
17 31 8 11 14 12 8 6
23 34 10 12 16 14 10 8
21 33 10 12 16 14 10 8
18 32 9 11 15 14 10 8
15 31 8 11 14 14 10 8
13 30 7 10 13 14 10 8
10 29 6 9 12 13 10 8
10 28 4 7 11 12 9 8
10 26 3 5 9 11 8 7
9 25 1 3 8 9 7 7
9 23 -2 1 6 8 6 6
8 21 -4 -2 4 6 5 5
11 24 -3 1 6 8 8 8
14 27 -2 2 8 11 10 10
17 30 0 4 10 14 13 13
20 34 1 6 12 16 16 16
23 37 2 8 14 19 19 19
22 37 2 7 14 19 19 19
21 36 1 6 13 18 18 18
20 36 0 5 13 17 17 18
19 35 -2 4 12 16 16 17
18 34 -3 2 11 15 15 16
17 31 -3 2 11 15 15 16
15 29 -3 2 10 14 15 16
14 26 -3 1 10 14 15 16
12 23 -3 1 9 13 15 16
10 20 -2 0 8 12 15 15
6 15 -2 0 7 10 12 12
2 11 -2 -2 5 8 8 10
-2 6 -2 -2 3 6 5 7
-6 2 -2 -3 1 3 2 4
-10 -4 -3 -4 -2 1 -3 1
-8 -2 -2 -3 -2 1 -3 1
-5 1 1 -2 -2 0 -3 1
-3 3 3 0 -2 -2 -3 1
0 5 5 1 -2 -3 -3 1
3 7 7 2 -3 -4 -2 2
3 7 7 2 -3 -4 -2 2
4 7 7 2 -4 -4 -2 2
5 7 8 2 -4 -5 -2 2
6 7 8 2 -5 -5 -2 2
7 8 9 3 -6 -6 0 3
5 7 8 2 -6 -6 -2 2
3 5 7 1 -6 -6 -3 1
1 3 6 0 -7 -7 -4 0
-3 1 5 -2 -7 -7 -5 -2
-5 -2 3 -3 -8 -8 -6 -3
-5 -2 3 -3 -8 -8 -6 -3
-5 0 3 -3 -8 -8 -6 -3
-5 0 3 -2 -8 -8 -6 -3
-5 1 3 -2 -8 -8 -6 -3
-5 2 4 0 -7 -9 -6 -3
-5 -2 3 -2 -8 -10 -7 -4
-6 -6 2 -3 -9 -11 -8 -5
-6 -9 0 -4 -10 -12 -9 -6
-7 -12 -2 -5 -11 -13 -10 -7
-8 -16 -4 -7 -13 -15 -12 -8
-8 -14 -3 -6 -12 -14 -11 -7
-7 -11 -2 -5 -11 -13 -10 -6
-6 -8 0 -4 -10 -12 -9 -5
-5 -6 1 -3 -9 -11 -8 -4
-4 -3 3 -2 -8 -10 -7 -3
-3 -2 4 -2 -8 -10 -7 -3
-2 0 5 0 -7 -10 -6 -3
0 2 6 1 -7 -9 -5 -2
1 3 7 2 -6 -9 -4 -2
3 5 9 3 -5 -8 -3 0
0 2 11 5 -5 -9 -5 -4
-4 0 13 7 -4 -11 -8 -6
-7 -4 15 10 -4 -12 -10 -9
-11 -7 17 12 -3 -14 -13 -12
-14 -10 19 15 -2 -16 -16 -15
-9 -10 22 22 9 -8 -11 -13
-4 -10 25 30 18 0 -7 -10
2 -10 28 37 28 8 -2 -8
8 -10 32 46 38 15 4 -5
13 -9 35 53 49 25 11 0
24 -8 31 58 67 56 44 28
34 -7 28 62 87 88 77 56
46 -6 24 67 106 119 110 84
57 -5 20 72 125 151 144 111
67 -3 14 74 142 182 178 140
80 24 -26 22 113 206 215 181
94 50 -66 -30 86 231 253 222
107 76 -107 -82 57 257 290 264
119 102 -147 -135 28 281 327 305
133 128 -185 -186 0 302 360 342
121 134 -190 -214 -45 244 304 302
110 141 -195 -240 -89 187 247 261
99 148 -200 -268 -134 130 191 221
88 154 -205 -295 -178 71 135 181
75 160 -210 -321 -220 15 78 140
48 133 -185 -307 -228 -21 37 95
20 105 -159 -294 -235 -58 -4 50
-7 78 -134 -279 -243 -95 -45 5
-34 51 -109 -265 -251 -132 -86 -40
-61 24 -85 -251 -258 -166 -126 -83
-58 16 -73 -222 -233 -156 -119 -85
-55 7 -61 -192 -207 -145 -113 -86
-52 -2 -50 -163 -183 -135 -107 -88
-49 -11 -37 -134 -158 -123 -101 -89
-46 -19 -26 -106 -134 -113 -95 -91
-46 -19 -25 -96 -122 -106 -90 -87
-47 -19 -23 -86 -111 -98 -83 -81
-47 -19 -22 -76 -101 -91 -78 -76
-48 -19 -20 -66 -90 -83 -73 -72
-49 -20 -18 -56 -78 -75 -67 -67
-40 -17 -15 -46 -66 -66 -60 -61
-32 -13 -11 -35 -54 -56 -53 -54
-24 -9 -7 -24 -43 -47 -46 -48
-15 -5 -3 -14 -30 -37 -37 -41
-7 0 2 -4 -18 -27 -30 -34
-4 0 3 0 -15 -26 -29 -32
1 0 4 3 -12 -24 -27 -30
4 0 5 6 -9 -22 -26 -28
8 0 6 9 -6 -20 -24 -26
12 1 8 13 -2 -18 -22 -24
8 -2 8 13 -2 -18 -22 -24
4 -4 8 13 0 -18 -22 -24
0 -6 8 13 0 -17 -22 -24
-5 -8 8 13 1 -17 -22 -24
-10 -10 8 13 2 -16 -21 -25
-8 -10 8 13 2 -16 -21 -25
-6 -10 9 13 2 -16 -20 -24
-4 -10 9 14 2 -16 -20 -23
-2 -10 10 14 2 -16 -19 -22
2 -10 11 15 3 -15 -18 -21
-2 -11 11 15 3 -14 -18 -20
-5 -12 11 15 4 -13 -17 -19
-8 -13 11 15 5 -11 -17 -18
-11 -14 11 15 6 -10 -16 -17
-14 -15 11 15 7 -8 -15 -16
-12 -15 11 15 7 -9 -15 -16
-10 -15 11 15 7 -10 -15 -17
-8 -15 11 16 7 -12 -16 -18
-6 -15 11 16 7 -13 -16 -19
-4 -16 11 17 6 -15 -17 -20
-2 -15 11 17 6 -14 -17 -20
1 -14 11 17 7 -13 -17 -19
3 -12 11 17 7 -12 -17 -19
5 -11 11 17 8 -11 -17 -18
8 -9 12 18 9 -10 -16 -17
7 -9 12 18 9 -10 -16 -17
6 -8 12 19 10 -10 -16 -16
5 -7 12 20 10 -9 -15 -16
4 -6 12 21 11 -9 -15 -15
2 -5 13 22 12 -8 -14 -14
2 -5 13 22 12 -8 -14 -14
2 -5 13 23 13 -7 -14 -14
2 -4 13 23 13 -7 -14 -13
2 -4 13 24 14 -6 -14 -13
2 -3 14 25 15 -5 -13 -12
2 -4 14 26 16 -5 -13 -12
2 -5 14 27 18 -4 -13 -11
2 -6 14 29 19 -3 -13 -11
2 -7 14 30 21 -2 -13 -10
3 -8 15 32 23 0 -12 -9
2 -9 15 32 23 0 -12 -10
1 -11 14 31 23 0 -13 -11
-2 -12 14 31 22 -2 -14 -12
-3 -14 13 30 22 -2 -15 -13
-5 -16 12 29 21 -3 -16 -14
-4 -16 12 30 21 -3 -16 -14
-4 -15 12 30 22 -3 -16 -14
-3 -14 12 31 23 -3 -15 -14
-2 -13 12 32 24 -3 -15 -14
0 -13 12 33 24 -3 -15 -14
1 -12 13 34 25 -2 -14 -14
0 -12 12 35 25 0 -13 -14
-2 -12 12 35 26 0 -13 -14
-3 -12 11 36 26 1 -12 -14
-3 -12 11 36 26 1 -12 -14
-4 -12 10 37 27 2 -11 -15
-4 -13 10 37 28 2 -12 -15
-4 -14 9 36 28 1 -12 -16
-4 -15 9 36 29 1 -13 -16
-4 -16 9 36 29 1 -13 -16
-4 -16 9 37 31 2 -13 -16
-3 -14 10 39 33 4 -11 -15
-3 -13 11 42 35 6 -10 -14
-2 -11 12 44 37 8 -8 -13
-2 -10 13 46 39 10 -7 -12
2 -8 14 49 43 11 -6 -11
5 -7 14 51 45 11 -5 -10
8 -5 14 53 47 12 -4 -9
11 -4 14 55 49 12 -3 -8
13 -3 14 57 51 12 -2 -8
12 -3 14 58 52 13 0 -7
10 -5 14 58 52 14 1 -6
8 -7 15 58 52 15 1 -5
6 -9 15 58 52 16 2 -4
4 -10 15 58 52 17 2 -3
3 -12 15 59 51 18 3 -2
3 -13 14 59 50 18 3 -2
3 -15 12 59 50 17 2 -2
3 -16 11 59 49 17 2 -2
3 -17 10 59 49 17 2 -2
5 -16 8 58 48 15 0 -3
6 -14 7 56 48 13 -2 -4
7 -11 6 55 47 12 -4 -5
8 -9 5 53 47 10 -5 -6
9 -7 4 52 47 9 -6 -7
10 -6 3 51 45 8 -7 -8
10 -7 2 51 44 7 -7 -7
11 -7 2 51 43 6 -7 -7
11 -8 1 51 42 5 -7 -6
11 -8 1 51 40 4 -7 -6
12 -10 0 52 39 3 -6 -5
12 -11 0 51 38 3 -6 -5
12 -12 1 50 37 2 -6 -4
12 -13 1 49 36 2 -6 -4
12 -14 1 49 35 2 -6 -4
11 -15 2 48 34 1 -5 -3
9 -15 1 48 33 0 -5 -2
7 -15 0 49 32 -2 -6 -2
5 -15 -2 49 31 -3 -6 0
4 -15 -3 49 30 -3 -6 0
3 -16 -4 49 29 -4 -7 1
3 -16 -4 47 28 -3 -6 1
4 -16 -5 46 27 -3 -5 1
4 -16 -5 44 26 -2 -4 1
4 -16 -5 43 25 -2 -3 1
7 -15 -6 42 24 0 -2 2
10 -12 -6 42 24 0 -2 3
12 -9 -6 42 24 1 0 3
15 -6 -6 42 24 1 0 4
17 -4 -6 42 24 1 0 4
17 -3 -7 39 23 2 1 5
15 -3 -8 37 22 3 1 5
13 -4 -8 36 21 3 2 5
11 -4 -9 34 20 4 2 5
10 -4 -9 33 19 4 2 5
9 -4 -10 32 18 5 3 6
10 -3 -10 31 17 5 3 6
11 -2 -10 31 16 6 4 6
12 0 -10 30 15 6 4 6
12 1 -10 30 14 6 4 6
11 2 -11 28 13 7 5 7
8 1 -11 27 12 7 5 7
6 1 -11 26 11 7 5 7
3 0 -11 25 10 7 5 7
1 0 -11 24 10 7 5 7
2 0 -11 23 8 7 4 6
4 1 -11 23 7 7 4 6
6 3 -11 23 6 7 4 6
8 4 -11 23 5 7 4 6
10 5 -11 23 4 7 4 6
9 5 -12 22 1 5 1 4
6 3 -13 20 -3 3 -2 2
3 1 -14 18 -5 1 -5 0
0 -2 -15 16 -8 -2 -7 -3
-4 -3 -16 14 -10 -4 -9 -5
-2 0 -15 15 -9 -4 -9 -5
3 4 -13 18 -7 -3 -8 -3
7 8 -11 20 -4 0 -6 -2
11 11 -9 23 -2 1 -5 1
15 15 -7 25 1 2 -4 2
7 14 -7 25 1 2 -5 1
-4 10 -8 23 0 1 -7 -2
-14 7 -9 21 -3 -2 -10 -5
-24 4 -10 19 -4 -3 -12 -7
-34 1 -11 17 -5 -4 -14 -9
-30 0 -12 17 -6 -5 -15 -10
-24 1 -11 19 -5 -5 -14 -9
-19 2 -10 20 -4 -4 -13 -8
-13 3 -9 22 -3 -4 -12 -7
-7 3 -9 23 -3 -4 -12 -6
-6 4 -8 24 -2 -3 -11 -5
-6 3 -8 24 -2 -3 -11 -6
-7 2 -9 24 -2 -3 -11 -6
-7 1 -9 24 -2 -3 -11 -7
-7 0 -9 24 -2 -3 -11 -7
-8 0 -10 24 0 -4 -12 -8
-9 2 -9 25 1 -3 -11 -7
-10 4 -8 25 2 -3 -11 -7
-11 6 -7 26 3 -2 -10 -6
-12 8 -7 26 3 -2 -10 -6
-10 9 -6 27 4 0 -9 -5
-5 9 -6 26 4 0 -9 -5
0 8 -6 26 4 0 -9 -5
4 8 -6 25 4 0 -9 -5
8 8 -6 25 4 0 -9 -5
8 6 -5 23 5 0 -9 -6
6 5 -4 20 5 0 -9 -7
5 4 -4 18 5 -2 -10 -7
3 3 -3 16 5 -2 -10 -8
2 2 -3 14 5 -2 -10 -8
0 1 0 13 4 0 -11 -7
-3 1 1 14 5 3 -10 -5
-5 1 3 14 6 6 -9 -2
-7 1 4 15 7 8 -8 2
-8 1 5 15 7 11 -7 4
-10 0 6 16 8 11 -6 4
-11 -2 5 15 7 9 -6 2
-12 -3 4 14 7 7 -6 1
-13 -4 3 13 6 5 -6 -2
-14 -5 3 12 6 3 -6 -3
-14 -4 2 11 5 2 -6 -3
-13 0 3 11 5 3 -5 -2
-12 3 4 11 6 4 -4 0
-11 6 5 11 6 5 -3 1
-10 9 6 11 6 5 -2 2
-9 10 7 10 7 6 0 3
-8 10 7 10 7 7 1 4
-7 10 7 10 8 7 2 5
-6 10 7 10 8 8 3 6
-5 10 7 10 8 8 3 6
-3 13 8 11 9 9 4 7
-2 17 8 10 8 9 4 7
0 20 7 9 8 9 4 7
1 24 7 8 7 9 4 7
2 28 7 8 7 9 4 7
3 27 6 7 6 9 4 7
2 24 6 6 6 9 4 7
1 21 7 5 5 8 4 7
0 19 7 4 5 8 4 7
-2 16 7 4 5 8 4 7
-3 15 7 3 4 7 4 8
-2 15 5 3 4 7 4 8
0 15 4 2 4 7 3 8
1 15 2 2 4 7 3 8
2 15 1 2 4 7 3 8
3 16 0 1 3 7 3 9
4 17 -2 1 3 8 4 10
5 17 -3 1 4 8 6 11
6 18 -4 1 4 9 7 12
7 18 -5 1 4 9 8 13
8 18 -6 0 5 10 9 14
8 17 -6 0 4 10 9 14
8 15 -5 -2 3 9 9 14
8 14 -5 -2 2 9 9 14
8 13 -5 -2 1 9 9 14
10 14 -3 -2 0 8 10 15
14 18 0 0 1 8 10 15
18 21 2 1 1 8 10 15
22 25 3 2 2 8 10 15
26 28 5 3 2 8 10 15
21 25 5 3 2 8 10 15
13 19 4 2 0 5 7 13
6 13 3 0 -3 3 5 11
-3 7 2 -2 -4 1 3 9
-10 1 1 -3 -6 -2 1 7
-13 -3 0 -5 -8 -5 -3 4
-16 -6 -2 -6 -11 -8 -5 2
-18 -8 -3 -7 -13 -10 -7 0
-20 -11 -4 -9 -15 -13 -10 -4
-22 -14 -4 -10 -17 -16 -12 -6
-20 -14 -5 -11 -18 -17 -13 -7
-16 -12 -4 -10 -17 -16 -13 -7
-13 -10 -3 -9 -16 -15 -12 -6
-9 -9 -2 -8 -15 -14 -12 -6
-5 -7 -2 -8 -15 -13 -12 -6
-5 -6 0 -7 -14 -12 -11 -5
-8 -5 1 -6 -13 -12 -10 -4
-10 -5 1 -5 -12 -11 -9 -4
-12 -4 2 -4 -11 -11 -8 -3
-14 -4 2 -4 -11 -11 -8 -3
-13 -3 2 -3 -10 -10 -7 -2
-11 -4 1 -4 -11 -11 -8 -3
-8 -5 0 -5 -12 -12 -9 -4
-6 -6 -2 -6 -13 -13 -10 -5
-3 -6 -3 -7 -14 -14 -11 -6
-5 -10 -4 -8 -15 -15 -12 -7
-9 -14 -4 -8 -15 -15 -12 -7
-13 -18 -4 -7 -15 -15 -12 -7
-18 -22 -4 -7 -15 -15 -12 -7
-22 -26 -4 -7 -15 -15 -12 -7
-22 -26 -3 -6 -15 -14 -11 -6
-19 -23 -3 -6 -15 -14 -11 -6
-17 -21 -3 -6 -15 -15 -11 -6
-15 -19 -3 -6 -15 -15 -11 -6
-13 -17 -3 -6 -15 -15 -11 -6
-13 -16 -2 -6 -16 -16 -12 -7
-14 -16 2 -6 -16 -16 -12 -7
-16 -17 4 -6 -15 -16 -12 -7
-18 -17 7 -6 -15 -16 -12 -7
-19 -17 9 -6 -15 -16 -12 -7
-18 -18 13 -2 -11 -17 -13 -10
-14 -17 17 4 -8 -17 -16 -13
-11 -16 21 9 -4 -17 -18 -17
-7 -15 26 14 1 -17 -21 -20
-4 -14 30 19 5 -17 -23 -23
-3 -15 31 27 16 -8 -16 -19
-4 -18 32 35 28 5 -6 -11
-5 -22 33 45 40 16 6 -4
-6 -25 34 53 53 28 16 4
-7 -28 35 62 65 39 27 11
9 -24 29 60 77 71 63 43
30 -17 20 55 89 106 105 80
52 -10 11 50 100 141 146 117
72 -3 2 45 110 177 188 154
94 5 -8 39 121 212 230 192
108 32 -44 -10 95 222 253 223
121 64 -86 -69 57 227 270 254
135 96 -128 -129 20 231 287 283
148 128 -170 -188 -17 236 306 313
161 160 -212 -248 -55 241 323 343
136 154 -210 -270 -96 186 266 296
99 138 -197 -284 -139 116 190 229
63 121 -184 -298 -182 46 113 163
27 105 -171 -312 -225 -24 37 97
-10 89 -158 -325 -268 -94 -38 31
-26 68 -140 -306 -266 -116 -65 0
-38 48 -119 -276 -252 -127 -79 -24
-51 27 -99 -247 -238 -137 -94 -48
-63 7 -79 -218 -225 -147 -109 -71
-75 -15 -59 -189 -211 -157 -123 -95
-74 -20 -50 -171 -195 -151 -122 -100
-67 -22 -44 -154 -179 -141 -115 -99
-61 -25 -36 -139 -162 -131 -109 -98
-55 -27 -29 -122 -146 -120 -103 -97
-49 -29 -23 -107 -131 -110 -97 -97
-47 -29 -19 -95 -117 -102 -91 -92
-46 -27 -16 -85 -106 -94 -85 -86
-45 -25 -13 -73 -94 -86 -78 -79
-44 -23 -9 -63 -81 -77 -72 -73
-44 -21 -6 -53 -70 -69 -66 -67
-38 -20 -5 -44 -60 -62 -61 -62
-32 -19 -3 -35 -52 -56 -56 -58
-27 -19 -2 -27 -43 -50 -51 -54
-21 -18 0 -19 -33 -43 -46 -50
-16 -18 1 -11 -24 -36 -40 -45
-14 -17 2 -7 -19 -33 -38 -44
-15 -17 4 -4 -15 -30 -36 -41
-16 -18 5 0 -11 -28 -35 -40
-17 -18 6 3 -7 -25 -34 -39
-18 -18 7 6 -3 -23 -33 -38
-19 -19 8 7 -2 -22 -31 -36
-20 -19 9 7 -2 -22 -30 -35
-21 -19 9 7 -3 -22 -29 -33
-22 -19 10 7 -3 -22 -27 -31
-23 -19 10 7 -3 -22 -26 -30
-23 -18 11 6 -3 -21 -25 -29
-21 -17 12 7 -2 -21 -25 -29
-19 -16 12 8 0 -20 -24 -28
-17 -14 13 9 2 -20 -24 -28
-15 -13 13 10 3 -20 -24 -28
-13 -13 14 11 4 -19 -23 -27
-12 -15 14 11 3 -19 -23 -27
-10 -17 13 10 3 -19 -23 -27
-8 -18 13 10 2 -19 -23 -27
-7 -20 13 10 2 -19 -23 -27
-7 -21 12 10 1 -18 -23 -28
-9 -21 12 11 2 -18 -23 -28
-11 -21 13 12 3 -19 -23 -28
-13 -21 13 14 4 -19 -23 -28
-15 -21 13 15 5 -19 -23 -28
-16 -22 14 16 6 -20 -24 -28
-15 -22 14 16 6 -19 -24 -28
-15 -21 14 16 6 -19 -23 -27
-14 -21 14 16 6 -18 -23 -27
-14 -21 14 16 6 -18 -23 -27
-13 -20 14 15 7 -17 -22 -26
-14 -19 14 16 8 -16 -22 -25
-15 -18 14 17 9 -15 -22 -25
-16 -17 14 18 10 -14 -22 -24
-16 -17 14 18 10 -14 -22 -24
-16 -16 14 19 11 -13 -22 -23
-15 -18 14 19 11 -13 -22 -23
-14 -19 14 19 11 -13 -22 -23
-12 -20 14 19 11 -13 -22 -23
-11 -21 14 19 11 -13 -22 -23
-10 -22 13 19 11 -14 -23 -24
-10 -21 14 20 12 -14 -23 -24
-10 -21 14 21 13 -13 -23 -25
-10 -20 15 22 14 -13 -23 -25
-10 -20 15 23 15 -13 -23 -25
-10 -19 16 24 16 -12 -22 -26
-11 -20 15 24 16 -12 -22 -26
-11 -20 15 23 16 -12 -22 -26
-12 -21 14 23 16 -12 -22 -26
-12 -21 14 23 16 -12 -22 -26
-13 -22 13 22 17 -12 -23 -27
-13 -22 13 22 18 -12 -23 -27
-13 -23 13 22 19 -11 -23 -27
-13 -23 13 22 19 -11 -23 -27
-13 -23 13 22 20 -11 -23 -27
-13 -24 12 23 21 -10 -24 -27
-13 -25 13 24 23 -9 -24 -27
-13 -25 14 25 24 -8 -23 -27
-13 -26 15 26 25 -8 -23 -27
-13 -26 16 27 26 -7 -23 -27
-11 -27 17 28 28 -6 -22 -28
-9 -27 18 29 29 -5 -22 -28
-6 -27 18 30 31 -5 -21 -28
-3 -27 19 30 32 -4 -21 -28
1 -27 19 31 34 -4 -21 -28
0 -26 20 32 35 -3 -20 -27
-5 -26 19 32 35 -3 -20 -27
-8 -26 19 33 35 -3 -20 -27
-12 -26 18 33 35 -3 -20 -27
-16 -26 18 33 35 -3 -20 -27
-16 -26 17 34 37 -2 -21 -28
-13 -25 18 36 38 1 -20 -27
-11 -24 19 37 40 2 -19 -26
-9 -22 20 38 42 3 -18 -25
-6 -21 21 39 44 4 -17 -24
-5 -20 22 40 45 5 -16 -23
-5 -20 22 39 45 5 -16 -23
-5 -21 21 39 45 4 -16 -22
-5 -21 21 38 45 4 -16 -22
-5 -21 21 38 45 4 -16 -22
-2 -21 20 38 45 3 -15 -20
2 -18 22 39 46 4 -13 -19
5 -15 23 40 48 5 -12 -18
8 -13 24 43 49 6 -11 -16
11 -10 25 44 51 7 -10 -15
9 -12 25 43 51 7 -10 -15
4 -18 22 39 48 5 -12 -17
-2 -23 19 36 45 3 -14 -19
-6 -29 17 33 43 0 -17 -21
-11 -34 14 30 39 -3 -19 -23
-12 -35 13 29 38 -4 -20 -24
-9 -33 14 29 37 -5 -20 -23
-7 -31 15 28 36 -6 -20 -22
-5 -29 15 28 35 -6 -20 -22
-2 -27 16 28 34 -7 -20 -21
0 -26 17 27 32 -8 -21 -20
0 -26 16 25 31 -9 -21 -20
-2 -26 16 24 30 -10 -22 -20
-2 -26 15 23 28 -10 -22 -20
-2 -26 15 22 27 -11 -22 -20
-3 -27 14 21 26 -12 -23 -21
0 -27 14 21 25 -13 -23 -21
1 -27 14 20 25 -13 -23 -21
3 -27 14 20 24 -14 -23 -21
4 -27 14 20 24 -14 -23 -21
6 -27 14 18 23 -15 -23 -20
8 -26 12 17 21 -15 -22 -19
10 -25 11 15 20 -15 -21 -18
12 -24 10 14 18 -15 -20 -18
14 -23 9 12 17 -15 -19 -17
13 -22 9 11 16 -14 -18 -16
9 -22 10 11 17 -13 -16 -15
6 -22 12 11 18 -11 -15 -14
2 -22 13 11 18 -10 -13 -13
-2 -22 15 11 19 -8 -12 -12
-4 -22 16 12 19 -7 -11 -11
-2 -21 14 10 18 -6 -11 -11
0 -19 13 9 16 -6 -11 -11
2 -18 11 8 15 -5 -11 -11
3 -16 10 7 13 -5 -11 -11
4 -15 9 6 12 -4 -10 -10
2 -15 10 6 12 -4 -10 -10
1 -14 10 5 11 -4 -10 -10
0 -14 11 5 11 -4 -10 -10
-2 -14 11 5 11 -4 -10 -10
1 -11 12 4 10 -2 -10 -10
6 -6 13 4 10 0 -9 -9
10 -2 14 4 10 2 -8 -8
15 3 14 4 10 3 -7 -8
20 7 15 4 10 5 -6 -7
16 5 16 4 10 5 -6 -6
7 -2 15 3 9 4 -7 -8
-3 -8 15 2 8 2 -9 -9
-12 -14 14 2 7 1 -10 -11
-21 -21 14 1 6 -2 -12 -12
-22 -22 13 0 5 -3 -13 -13
-19 -20 12 -2 3 -4 -15 -15
-15 -18 11 -3 2 -5 -16 -16
-12 -16 11 -4 0 -6 -17 -17
-9 -14 10 -5 -2 -7 -18 -18
-7 -13 9 -6 -3 -8 -19 -19
-6 -13 9 -6 -3 -9 -20 -20
-5 -13 9 -5 -3 -9 -21 -21
-5 -13 9 -5 -3 -10 -21 -21
-4 -13 9 -5 -3 -10 -22 -22
-3 -13 8 -4 -4 -11 -23 -23
-4 -13 8 -3 -4 -11 -23 -23
-4 -13 9 -2 -3 -11 -23 -23
-5 -13 9 0 -3 -11 -23 -23
-5 -13 9 1 -3 -11 -23 -23
-6 -13 10 2 -2 -10 -22 -22
-7 -12 10 3 0 -10 -22 -22
-7 -11 11 4 1 -9 -21 -21
-8 -11 11 5 2 -9 -21 -21
-8 -10 11 6 3 -9 -21 -21
-9 -9 12 7 4 -8 -20 -20
-10 -8 12 7 4 -8 -20 -20
-10 -8 12 7 4 -8 -20 -20
-11 -7 12 7 4 -8 -20 -20
-11 -7 12 7 4 -8 -20 -20
-12 -6 11 8 5 -7 -19 -19
-11 -5 10 10 7 -6 -18 -18
-10 -4 8 13 8 -5 -17 -17
-10 -4 7 15 10 -4 -17 -17
-9 -3 6 18 11 -3 -16 -16
-9 -4 4 19 11 -2 -15 -15
-12 -7 2 18 10 -2 -15 -16
-15 -11 0 17 8 -3 -16 -17
-18 -14 -4 17 7 -4 -17 -18
-21 -17 -6 16 5 -4 -17 -19
-18 -17 -7 17 6 -4 -18 -20
-10 -14 -7 20 10 -3 -16 -18
-3 -10 -6 24 14 0 -15 -17
6 -6 -5 27 17 1 -13 -15
13 -3 -5 30 21 3 -12 -14
12 0 -4 31 22 4 -11 -13
6 -2 -4 29 20 4 -11 -13
0 -3 -4 27 17 4 -10 -12
-7 -4 -4 25 15 4 -9 -11
-13 -5 -4 23 12 4 -9 -11
-14 -5 -4 22 11 4 -8 -10
-11 -4 -4 22 11 4 -8 -10
-8 -2 -5 21 11 4 -7 -9
-5 0 -6 21 11 4 -7 -9
-2 2 -6 21 11 4 -7 -9
0 3 -7 20 12 4 -6 -8
-3 3 -7 20 12 4 -6 -8
-5 2 -7 20 11 4 -6 -7
-8 2 -7 20 11 4 -6 -7
-10 2 -7 20 11 4 -6 -7
-10 1 -8 19 10 4 -5 -6
-8 2 -8 19 10 4 -5 -6
-6 3 -8 19 10 4 -4 -5
-3 4 -8 19 10 4 -4 -5
0 5 -8 19 10 4 -4 -5
1 9 -9 18 11 5 -3 -4
1 13 -9 18 11 6 -2 -3
1 18 -8 18 11 7 0 -2
1 23 -7 18 11 7 1 0
1 28 -7 18 11 8 2 1
1 26 -6 17 12 8 3 1
-2 20 -7 15 11 5 2 0
-4 14 -8 14 9 3 1 -3
-6 7 -8 12 8 0 0 -5
-8 1 -9 11 7 -4 -2 -7
-6 0 -10 10 6 -4 -2 -7
0 4 -11 10 6 -2 0 -4
5 9 -13 9 6 1 2 0
10 13 -14 8 6 3 3 3
16 17 -15 8 6 6 5 6
18 19 -16 7 6 7 6 8
16 19 -16 7 6 7 6 8
14 18 -17 6 6 8 7 8
13 17 -18 6 6 9 8 8
11 17 -18 6 6 9 8 8
10 16 -19 5 7 10 9 9
10 16 -19 5 6 8 8 8
9 15 -19 4 4 7 6 7
8 15 -19 4 3 5 5 6
8 15 -19 4 2 4 4 5
5 11 -19 3 1 3 3 4
0 4 -18 2 0 1 2 3
-6 -3 -17 1 -2 0 0 2
-11 -10 -17 1 -2 -3 -2 1
-16 -16 -16 0 -3 -4 -3 0
-17 -18 -15 -2 -4 -5 -4 -2
-14 -16 -13 -2 -5 -6 -5 -3
-11 -13 -11 -3 -7 -8 -6 -4
-8 -11 -10 -4 -8 -9 -7 -5
-6 -8 -8 -4 -9 -10 -8 -6
-4 -7 -7 -5 -10 -11 -9 -7
-6 -7 -7 -5 -10 -11 -9 -7
-8 -7 -7 -5 -10 -12 -10 -8
-9 -7 -7 -5 -10 -12 -10 -8
-11 -7 -7 -5 -10 -12 -10 -8
-11 -6 -7 -5 -9 -13 -11 -9
-10 -7 -6 -5 -9 -12 -11 -9
-8 -8 -4 -5 -9 -11 -11 -9
-6 -8 -3 -5 -9 -11 -11 -9
-4 -9 -2 -5 -9 -10 -11 -9
-3 -10 0 -5 -10 -9 -11 -9
-3 -10 -2 -5 -10 -10 -11 -9
-4 -11 -4 -6 -11 -12 -12 -10
-4 -11 -5 -7 -11 -13 -12 -10
-4 -11 -6 -7 -11 -14 -12 -10
-5 -11 -7 -8 -12 -15 -13 -11
-6 -10 -6 -8 -12 -14 -11 -9
-7 -8 -4 -7 -11 -13 -10 -7
-8 -6 -3 -6 -11 -12 -8 -6
-9 -4 -2 -6 -11 -11 -7 -4
-10 -4 -2 -6 -10 -10 -6 -3
-10 -6 -4 -9 -10 -11 -6 -3
-11 -8 -7 -11 -11 -12 -7 -4
-11 -10 -9 -14 -12 -12 -7 -5
-11 -12 -12 -16 -12 -13 -7 -5
-12 -12 -12 -17 -13 -14 -8 -6
-12 -10 -8 -15 -13 -14 -7 -5
-11 -7 -5 -13 -12 -13 -6 -4
-11 -5 -2 -11 -12 -13 -6 -4
-11 -2 2 -8 -12 -13 -5 -3
-11 -3 4 -7 -11 -12 -5 -3
-13 -8 4 -7 -11 -14 -9 -7
-16 -13 4 -7 -12 -16 -12 -10
-18 -18 4 -7 -12 -17 -15 -13
-20 -23 4 -7 -12 -19 -18 -16
-22 -26 6 -4 -10 -19 -20 -18
-21 -26 10 3 -4 -16 -20 -18
-19 -26 13 9 2 -13 -20 -19
-18 -26 17 15 8 -10 -20 -20
-17 -26 21 21 14 -8 -20 -20
-11 -26 24 30 27 7 -6 -11
1 -26 26 43 46 29 17 8
11 -26 28 55 65 51 40 26
22 -26 30 67 84 73 63 45
32 -26 32 78 103 95 87 63
48 -14 20 69 109 125 123 97
67 9 -5 40 103 159 170 144
86 31 -29 13 98 193 217 190
105 54 -54 -16 93 228 264 237
123 76 -78 -45 88 263 311 283
129 95 -103 -83 58 264 323 302
120 109 -128 -131 11 238 309 298
112 123 -152 -178 -36 213 295 294
104 139 -176 -225 -83 187 279 289
96 153 -200 -272 -131 160 265 285
76 149 -200 -291 -169 113 214 245
50 128 -181 -286 -198 48 136 177
22 107 -160 -281 -228 -17 58 108
-5 86 -140 -276 -259 -82 -21 39
-32 65 -119 -272 -288 -148 -99 -29
-47 47 -101 -253 -285 -171 -131 -62
-53 30 -83 -224 -256 -159 -124 -67
-58 14 -65 -194 -225 -148 -118 -71
-63 -3 -48 -165 -195 -137 -111 -76
-68 -18 -30 -136 -165 -124 -105 -80
-69 -26 -22 -117 -146 -117 -101 -82
-64 -28 -20 -108 -136 -113 -98 -79
-59 -29 -19 -99 -126 -109 -95 -75
-54 -30 -18 -90 -116 -105 -92 -72
-50 -32 -16 -80 -106 -101 -89 -69
-46 -33 -15 -72 -97 -96 -85 -66
-44 -31 -13 -66 -89 -88 -79 -63
-41 -29 -11 -60 -80 -80 -74 -59
-39 -27 -10 -53 -71 -73 -69 -56
-36 -25 -8 -47 -63 -66 -64 -53
-34 -23 -6 -39 -54 -58 -58 -48
-32 -21 -3 -30 -44 -51 -52 -41
-29 -18 1 -22 -34 -44 -45 -35
-27 -16 4 -13 -24 -35 -38 -29
-25 -14 7 -4 -14 -28 -31 -22
-22 -13 9 1 -9 -24 -28 -19
-20 -16 8 0 -9 -24 -28 -19
-18 -19 7 -2 -9 -24 -28 -19
-16 -21 7 -2 -9 -24 -28 -19
-14 -24 6 -3 -9 -24 -28 -19
-12 -25 5 -4 -8 -24 -28 -19
-12 -21 7 -2 -6 -22 -26 -17
-12 -18 9 1 -4 -20 -24 -15
-12 -14 11 2 -3 -18 -22 -13
-12 -11 13 4 0 -16 -20 -11
-10 -9 14 5 1 -15 -18 -9
-7 -7 14 5 1 -15 -18 -9
-3 -5 15 5 2 -14 -17 -9
1 -4 16 5 3 -14 -17 -9
4 -2 16 5 3 -14 -17 -9
5 -2 17 6 4 -13 -16 -9
3 -4 17 6 4 -13 -16 -9
0 -7 16 6 4 -13 -16 -8
-4 -9 16 6 4 -13 -16 -8
-6 -11 16 6 4 -13 -16 -8
-8 -13 15 5 3 -14 -16 -7
-9 -13 16 6 5 -13 -15 -6
-10 -12 17 7 6 -12 -14 -5
-11 -12 18 8 7 -11 -14 -5
-12 -12 19 9 9 -10 -13 -4
-12 -11 20 10 10 -9 -12 -3
-10 -11 19 9 8 -10 -13 -4
-7 -12 18 8 6 -11 -14 -5
-4 -12 18 8 4 -11 -15 -6
-2 -12 17 7 2 -12 -16 -7
1 -13 16 6 1 -13 -17 -8
0 -13 16 6 3 -13 -17 -8
-3 -14 16 7 5 -12 -17 -8
-4 -14 16 7 6 -12 -17 -8
-5 -14 16 7 8 -12 -17 -8
-7 -15 17 8 9 -11 -17 -8
-9 -17 17 8 9 -11 -17 -8
-11 -19 16 8 8 -11 -17 -8
-13 -20 16 8 7 -11 -17 -8
-15 -22 16 8 7 -11 -17 -8
-16 -22 15 7 6 -10 -16 -7
-14 -20 16 8 8 -10 -15 -6
-12 -18 18 10 10 -9 -13 -5
-10 -16 19 11 11 -8 -12 -5
-8 -14 20 12 13 -8 -11 -4
-7 -13 21 13 14 -7 -10 -3
-5 -13 21 13 14 -7 -10 -3
-3 -12 20 13 14 -7 -10 -3
-2 -11 20 13 14 -7 -10 -3
1 -11 20 13 14 -7 -10 -3
2 -10 19 14 15 -6 -10 -4
4 -10 19 14 17 -5 -10 -4
5 -10 19 15 18 -4 -10 -4
6 -10 19 16 19 -4 -10 -4
8 -10 19 16 21 -3 -10 -4
8 -11 19 17 22 -2 -9 -5
5 -12 19 17 22 -2 -9 -5
3 -13 19 17 22 -2 -9 -5
0 -15 19 17 22 -2 -9 -4
-4 -16 19 17 22 -2 -9 -4
-6 -17 18 17 22 0 -9 -3
-4 -16 18 18 24 0 -9 -3
-3 -16 18 19 25 0 -9 -3
-2 -15 18 20 26 1 -9 -3
1 -14 18 21 28 1 -9 -3
2 -13 19 22 29 2 -8 -2
1 -13 19 23 31 3 -6 0
0 -13 19 24 32 4 -5 1
-2 -13 19 25 33 6 -4 3
-3 -13 19 26 35 7 -2 4
-4 -15 20 27 36 8 0 5
-4 -17 20 27 36 8 -2 4
-3 -20 20 27 36 7 -3 3
-2 -23 19 26 36 6 -4 1
-2 -25 19 26 36 6 -5 0
0 -26 18 25 37 5 -6 -2
2 -23 18 26 37 6 -4 1
3 -20 18 27 38 6 -3 2
5 -17 18 28 39 7 0 4
7 -14 18 29 39 8 2 6
8 -12 19 30 40 9 3 7
9 -13 19 28 39 7 2 7
10 -14 18 27 38 6 1 7
12 -16 17 25 36 5 0 6
13 -17 17 23 35 3 -2 6
14 -18 16 22 34 2 -3 5
14 -16 16 23 33 2 0 5
14 -14 16 23 33 2 1 5
15 -12 16 24 32 1 2 5
15 -10 16 25 31 1 4 5
16 -10 16 25 30 0 5 6
16 -12 15 23 28 -3 4 5
15 -15 14 21 26 -5 3 4
14 -18 12 19 24 -7 1 2
14 -20 11 17 22 -9 0 1
13 -22 10 15 21 -11 -2 0
13 -20 11 16 21 -11 1 2
13 -19 12 16 21 -10 2 4
13 -18 14 17 21 -9 3 6
13 -16 15 18 21 -9 5 8
13 -15 16 19 22 -8 6 9
16 -15 15 19 21 -8 6 9
18 -15 15 18 20 -8 6 9
21 -15 14 17 19 -9 6 9
24 -15 13 17 18 -9 6 9
24 -15 11 15 16 -10 5 8
19 -18 8 12 13 -12 3 6
15 -20 6 9 10 -14 1 4
10 -23 3 6 6 -16 -2 1
5 -26 0 3 3 -18 -4 -2
2 -28 -3 1 1 -19 -6 -4
0 -26 -2 1 2 -17 -4 -2
-2 -24 0 1 2 -15 -3 0
-3 -22 1 2 3 -13 -2 2
-5 -20 2 2 4 -11 1 4
-5 -17 3 3 5 -9 2 5
1 -13 4 3 5 -7 4 7
5 -9 4 4 5 -6 5 9
10 -5 5 5 5 -5 7 11
14 0 6 5 5 -3 9 13
17 3 7 6 6 -2 10 14
15 3 5 4 5 -2 9 12
14 2 3 3 5 -2 9 11
13 1 1 2 4 -2 8 10
11 1 -2 0 3 -2 7 8
8 0 -2 -2 2 -2 6 7
4 1 1 0 2 -2 6 7
-2 2 4 0 2 0 6 7
-6 3 6 1 1 1 7 8
-11 4 9 2 1 1 7 8
-13 4 11 3 0 1 7 8
-10 2 9 1 -3 -2 4 5
-7 0 7 0 -5 -4 1 3
-4 -4 5 -2 -7 -7 -3 0
0 -6 3 -4 -9 -9 -6 -4
2 -7 1 -5 -11 -11 -8 -6
2 -3 2 -3 -9 -9 -6 -5
3 2 3 0 -8 -8 -5 -4
4 6 5 2 -7 -6 -4 -3
4 9 6 3 -5 -4 -2 -2
5 11 7 5 -4 -3 0 0
3 7 5 4 -5 -5 -3 -3
1 3 3 3 -6 -7 -5 -5
-2 -2 1 1 -8 -9 -7 -7
-3 -5 0 0 -9 -11 -9 -8
-5 -8 -3 0 -10 -13 -11 -10
-5 -8 0 2 -8 -12 -9 -10
-6 -7 1 4 -6 -12 -8 -10
-7 -6 3 7 -4 -11 -6 -9
-7 -6 5 9 -3 -10 -4 -9
-9 -5 6 11 0 -9 -3 -8
-11 -6 4 10 0 -9 -4 -8
-13 -7 3 9 0 -9 -6 -9
-16 -8 1 7 -2 -9 -7 -10
-18 -9 -2 6 -2 -9 -9 -10
-18 -9 -3 5 -3 -9 -10 -11
-14 -6 0 7 0 -7 -8 -10
-9 -3 1 9 1 -6 -6 -8
-4 1 3 11 3 -4 -4 -7
2 4 5 12 5 -2 -2 -5
5 6 6 14 6 0 1 -4
3 5 5 14 6 0 1 -4
1 3 4 13 6 0 1 -4
-2 2 3 12 7 1 1 -5
-4 0 2 12 7 1 1 -5
-6 -2 1 11 8 2 0 -6
-6 -2 1 11 8 2 1 -6
-6 0 1 11 8 2 1 -5
-6 1 1 11 8 2 2 -4
-6 1 1 11 8 2 3 -4
-6 3 1 10 7 3 4 -3
-3 5 2 10 8 4 4 -3
0 8 3 11 8 5 4 -3
2 10 5 12 9 6 5 -2
4 13 6 12 10 7 5 -2
6 14 7 13 11 8 6 0
4 12 4 10 9 7 5 0
2 9 2 8 7 6 4 -2
0 7 0 6 5 5 3 -3
-3 4 -3 4 3 4 2 -3
-5 2 -5 2 1 3 1 -4
-7 3 -3 3 3 4 2 -2
-9 4 0 4 5 5 4 1
-11 5 2 6 7 7 5 3
-13 6 3 7 8 8 7 4
-14 7 5 8 10 9 8 6
-10 8 5 8 10 9 8 6
-7 9 4 8 10 9 8 6
-3 10 3 9 10 10 8 7
1 11 3 9 10 10 8 7
4 12 2 10 10 11 9 8
4 10 1 8 9 9 7 6
4 9 0 7 7 7 5 5
4 7 -2 5 6 5 3 3
4 5 -3 3 4 4 2 1
5 4 -4 2 3 2 0 0
5 7 -4 2 3 3 1 1
4 9 -4 2 3 4 2 2
3 11 -3 2 3 5 4 4
3 13 -3 2 3 6 5 5
2 15 -2 2 4 7 6 6
3 17 -2 2 4 7 6 6
4 18 -3 1 4 6 5 6
5 20 -4 0 4 5 4 5
6 22 -4 0 4 5 4 5
7 23 -5 -2 3 4 3 4
7 23 -5 -2 3 5 4 5
6 23 -6 -2 3 6 5 6
5 22 -7 -2 3 7 6 8
5 22 -7 -2 3 8 7 9
6 22 -8 -3 2 9 8 10
14 25 -8 -2 3 10 10 12
22 28 -7 -2 5 11 11 13
29 31 -6 0 6 13 13 15
37 34 -6 1 8 14 14 16
39 35 -5 2 8 14 15 17
28 28 -7 -2 6 11 13 14
18 20 -9 -4 3 8 10 11
7 13 -11 -7 0 5 7 8
-4 6 -13 -9 -4 2 4 5
-11 1 -15 -11 -6 -2 2 3
-9 1 -13 -10 -6 -2 2 3
-7 0 -12 -10 -6 -3 2 3
-5 -2 -10 -9 -6 -4 2 2
-3 -2 -9 -8 -6 -4 2 2
-3 -3 -7 -7 -6 -5 1 1
-9 -4 -6 -7 -7 -6 0 0
-15 -6 -5 -7 -8 -7 -3 -3
-21 -7 -4 -7 -10 -9 -4 -4
-28 -9 -3 -7 -11 -10 -6 -6
-30 -10 -2 -6 -12 -11 -7 -7
-22 -8 -2 -6 -12 -11 -7 -7
-14 -6 -2 -6 -12 -11 -7 -7
-6 -4 -2 -6 -11 -11 -8 -8
2 -2 -2 -6 -11 -11 -8 -8
8 1 -2 -5 -10 -12 -9 -9
7 1 -2 -5 -10 -12 -8 -8
5 1 -2 -5 -10 -12 -8 -8
4 0 -2 -5 -10 -11 -7 -7
2 0 -2 -5 -10 -11 -6 -6
0 -2 0 -5 -9 -10 -5 -5
-4 -3 0 -5 -9 -10 -6 -6
-7 -5 0 -5 -9 -11 -6 -6
-10 -6 0 -4 -9 -12 -7 -7
-13 -8 0 -4 -9 -12 -8 -8
-15 -9 0 -3 -9 -13 -9 -9
-9 -7 -2 -3 -9 -13 -9 -9
-4 -5 -2 -3 -9 -13 -9 -9
2 -3 -3 -3 -9 -13 -9 -8
7 0 -4 -3 -9 -13 -9 -8
9 1 -5 -2 -9 -12 -8 -7
2 -4 -5 -3 -9 -13 -9 -7
-5 -8 -5 -3 -9 -13 -10 -8
-12 -13 -5 -4 -10 -14 -11 -9
-19 -17 -5 -5 -10 -15 -12 -9
-23 -20 -4 -6 -11 -16 -13 -10
-20 -18 -4 -6 -11 -16 -13 -10
-17 -16 -4 -6 -11 -16 -12 -9
-14 -14 -4 -6 -11 -15 -11 -8
-11 -13 -4 -6 -11 -15 -11 -8
-8 -11 -4 -5 -11 -14 -10 -7
-10 -12 -4 -5 -11 -15 -11 -8
-12 -14 -4 -5 -11 -16 -13 -9
-14 -15 -3 -5 -11 -18 -14 -11
-15 -17 -3 -5 -11 -19 -16 -12
-17 -18 0 -4 -10 -19 -17 -13
-17 -20 5 5 0 -14 -16 -13
-17 -22 9 13 8 -9 -14 -13
-16 -23 14 21 16 -4 -13 -13
-16 -25 18 29 25 2 -11 -13
-13 -27 22 38 37 14 -2 -6
-4 -26 23 50 57 40 26 17
6 -25 23 62 76 67 53 39
15 -24 24 73 96 94 80 62
24 -22 25 85 115 120 108 85
36 -14 18 81 122 148 140 114
52 10 -11 44 104 180 183 158
68 33 -38 6 85 211 227 203
84 57 -67 -32 65 241 270 248
100 80 -95 -70 46 273 313 294
110 101 -119 -108 19 284 334 321
105 116 -138 -148 -24 251 305 310
99 131 -156 -187 -67 218 275 299
94 146 -175 -227 -111 184 246 288
89 161 -192 -267 -154 151 217 277
76 164 -199 -291 -189 108 176 248
48 139 -179 -281 -207 45 108 180
19 113 -158 -270 -227 -18 40 112
-10 88 -138 -260 -245 -81 -27 45
-38 62 -117 -249 -264 -144 -95 -23
-59 39 -99 -234 -269 -185 -140 -70
-58 24 -83 -207 -242 -172 -133 -72
-57 10 -68 -182 -216 -158 -126 -74
-56 -6 -54 -156 -188 -146 -118 -76
-54 -20 -38 -131 -161 -133 -110 -78
-53 -31 -27 -109 -139 -121 -104 -79
-50 -29 -24 -99 -128 -114 -98 -75
-47 -27 -21 -89 -116 -107 -92 -70
-44 -26 -18 -78 -104 -100 -86 -66
-40 -24 -15 -68 -93 -93 -79 -62
-38 -22 -12 -60 -82 -87 -73 -57
-37 -23 -11 -54 -74 -79 -69 -53
-36 -25 -10 -48 -66 -73 -64 -49
-35 -26 -9 -41 -58 -66 -59 -45
-34 -28 -8 -36 -50 -60 -55 -39
-32 -29 -7 -30 -41 -54 -50 -35
-29 -27 -5 -23 -33 -48 -45 -31
-25 -25 -3 -16 -25 -41 -39 -27
-22 -23 0 -10 -17 -35 -35 -23
-18 -21 2 -3 -9 -29 -30 -18
-15 -19 4 3 -3 -24 -26 -15
-15 -18 5 3 -2 -23 -25 -14
-15 -17 6 3 0 -22 -24 -12
-14 -16 7 4 1 -21 -23 -11
-14 -15 8 4 3 -20 -21 -9
-13 -14 9 5 4 -19 -20 -8
-14 -15 9 5 4 -19 -20 -8
-14 -16 10 5 4 -19 -19 -7
-15 -17 10 6 5 -18 -19 -7
-16 -19 11 6 5 -18 -18 -6
-17 -20 12 7 6 -17 -17 -5
-17 -20 13 7 8 -16 -16 -4
-17 -19 15 8 9 -14 -14 -2
-17 -19 16 8 11 -13 -13 0
-17 -18 17 9 12 -12 -12 1
-16 -17 19 10 14 -10 -10 3
-14 -17 19 10 13 -10 -10 3
-12 -17 18 10 12 -11 -11 3
-10 -16 18 9 11 -11 -11 3
-8 -16 17 9 10 -12 -12 3
-6 -15 16 8 9 -13 -13 3
-7 -16 16 8 9 -13 -13 2
-8 -17 16 7 9 -13 -14 1
-9 -18 15 7 9 -14 -14 0
-11 -20 15 6 9 -14 -15 -2
-12 -21 14 5 9 -15 -16 -3
-13 -23 14 5 9 -15 -16 -3
-15 -26 14 6 9 -15 -16 -3
-16 -28 14 6 9 -15 -16 -3
-17 -30 14 7 9 -15 -16 -3
-18 -31 15 8 8 -16 -17 -2
-12 -27 17 8 10 -14 -14 1
-7 -23 19 9 12 -12 -12 3
0 -18 20 9 13 -11 -10 5
5 -14 22 10 15 -9 -7 7
10 -10 24 11 17 -7 -5 9
6 -13 22 10 16 -9 -7 7
3 -15 20 10 15 -10 -9 5
-2 -18 17 9 14 -12 -11 4
-5 -21 15 8 12 -13 -13 2
-8 -23 13 7 11 -15 -15 0
-7 -20 15 9 14 -13 -13 0
-6 -18 17 11 16 -11 -11 1
-5 -16 19 13 18 -9 -9 1
-4 -13 21 15 21 -7 -7 2
-3 -11 23 17 23 -5 -5 3
-4 -12 23 18 23 -5 -5 5
-5 -13 23 18 23 -4 -5 6
-6 -14 23 19 23 -4 -4 8
-7 -15 23 20 23 -3 -4 9
-8 -16 22 21 24 -2 -3 11
-6 -16 21 21 24 -2 -3 10
-4 -15 20 21 25 -2 -3 10
-2 -15 19 21 25 -2 -3 9
1 -14 17 21 26 -2 -3 8
3 -13 16 22 27 -2 -4 7
1 -14 17 23 28 0 -4 8
-2 -15 17 24 28 0 -3 9
-5 -16 18 25 29 1 -3 10
-7 -18 19 26 30 2 -2 11
-9 -19 20 27 31 3 0 12
-9 -20 20 27 32 3 0 12
-9 -22 19 28 33 3 0 12
-10 -23 19 28 34 3 0 11
-10 -24 18 29 35 3 0 11
-11 -26 17 30 36 4 0 10
-11 -26 17 30 37 5 1 11
-10 -25 17 31 38 6 2 12
-9 -25 17 31 39 7 3 13
-8 -24 17 32 42 8 4 15
-6 -23 17 33 43 9 5 16
-2 -22 17 34 44 9 5 16
3 -20 17 35 45 10 6 16
7 -19 18 36 46 10 7 16
11 -18 18 38 48 11 8 16
15 -16 19 39 49 12 9 17
12 -16 19 39 49 12 9 17
9 -17 18 39 49 12 10 18
6 -17 18 39 48 12 10 18
3 -18 17 39 48 12 11 19
0 -19 16 39 47 11 12 20
1 -19 15 39 46 10 12 20
3 -19 13 39 45 9 12 20
4 -18 12 38 44 8 12 20
5 -18 11 38 43 6 12 20
7 -17 9 37 42 5 13 20
7 -18 10 37 42 5 13 20
6 -20 11 37 42 5 13 20
6 -22 12 36 42 5 14 21
5 -23 14 36 42 5 14 21
4 -25 15 35 43 6 15 22
4 -25 15 34 43 6 15 22
4 -25 15 33 42 6 15 22
4 -25 14 32 42 5 15 22
4 -25 14 31 40 5 15 22
5 -25 13 30 39 4 15 22
5 -24 13 30 38 3 15 22
6 -23 13 30 36 1 15 22
7 -22 13 30 34 0 15 23
8 -20 13 30 33 -2 15 23
9 -19 12 30 31 -4 16 24
9 -21 11 29 30 -5 16 24
8 -23 9 27 28 -6 15 23
8 -26 7 25 27 -7 15 22
7 -28 6 24 26 -8 14 21
6 -30 4 22 24 -9 13 20
7 -27 4 22 24 -8 14 21
9 -23 5 23 24 -7 15 23
11 -20 5 23 24 -6 16 25
12 -17 6 24 24 -4 18 26
14 -14 7 25 24 -3 19 28
12 -14 7 25 23 -3 19 28
10 -14 6 24 22 -2 19 27
7 -13 6 24 21 -2 19 27
5 -13 5 23 20 0 19 26
3 -12 4 22 19 1 19 25
3 -11 4 22 19 1 19 25
4 -9 4 22 19 1 19 25
4 -8 4 22 18 2 19 25
5 -7 4 22 18 2 19 25
6 -5 5 21 17 3 19 26
6 -5 4 19 15 2 18 25
6 -6 3 18 14 1 16 23
6 -6 2 16 12 0 14 21
6 -7 1 14 10 -3 13 20
6 -8 0 12 8 -4 11 18
4 -7 1 12 8 -4 11 18
2 -6 2 12 7 -4 11 18
-2 -5 3 13 6 -4 11 18
-4 -3 4 13 5 -4 11 18
-6 -2 5 14 4 -4 10 17
-5 -2 4 12 4 -6 8 15
-4 -3 3 10 3 -7 6 13
-3 -3 2 8 2 -9 4 10
0 -4 1 6 1 -11 2 8
0 -5 0 4 0 -13 0 6
-6 -6 0 4 -2 -13 0 6
-12 -8 0 5 -3 -13 0 6
-17 -10 0 6 -4 -13 -2 5
-23 -11 0 7 -6 -13 -2 5
-27 -13 1 8 -7 -14 -3 4
-22 -11 1 8 -7 -14 -3 4
-16 -9 1 9 -6 -14 -4 3
-10 -7 1 9 -6 -14 -4 2
-4 -4 1 10 -5 -14 -5 1
2 -2 2 11 -4 -14 -6 0
2 -2 2 10 -4 -14 -6 0
2 -2 2 9 -4 -14 -6 0
2 -2 3 8 -3 -13 -5 0
2 -2 3 7 -3 -13 -5 0
3 -3 4 6 -2 -12 -4 0
1 -3 4 7 0 -11 -4 0
-3 -3 5 9 2 -10 -4 0
-5 -3 5 11 4 -9 -4 0
-8 -3 6 12 5 -7 -4 0
-10 -3 7 14 7 -6 -3 1
-9 -3 7 15 7 -5 -3 1
-7 -2 7 16 8 -4 -2 1
-6 -2 7 17 9 -3 -2 1
-5 0 7 18 10 -2 0 1
-3 1 8 19 11 0 1 2
-6 -2 8 18 11 0 1 2
-9 -4 7 17 11 0 0 1
-12 -6 7 16 11 0 0 0
-15 -9 6 15 11 0 -2 -2
-18 -11 5 14 10 -2 -3 -3
-16 -9 5 14 10 0 -3 -3
-13 -8 5 15 11 1 -2 -2
-11 -6 6 16 12 2 0 0
-9 -4 6 17 13 3 1 1
-6 -2 7 18 14 5 2 2
-5 0 7 18 14 5 2 2
-4 1 7 17 14 5 2 3
-3 2 8 17 15 6 3 3
-2 3 8 16 15 6 3 4
0 5 9 15 16 7 4 5
-4 5 9 15 16 7 4 5
-7 4 8 16 16 7 4 5
-11 3 8 17 16 7 5 5
-14 2 7 18 16 7 5 5
-17 1 6 19 15 8 6 4
-13 3 6 17 15 8 6 4
-8 5 5 16 14 8 6 4
-4 7 4 14 13 8 6 4
1 10 3 12 12 8 6 4
5 12 2 10 11 9 6 4
6 12 2 11 12 9 7 4
8 12 2 13 13 9 8 4
10 12 2 14 14 9 9 4
11 12 2 15 15 9 10 4
13 13 2 17 17 9 12 5
10 15 2 17 17 9 12 5
6 16 2 17 17 10 12 6
3 18 2 16 16 11 12 7
-2 20 2 16 16 12 12 8
-5 22 3 15 15 13 11 9
-5 22 3 15 15 13 11 9
-5 22 3 15 14 13 11 9
-5 23 2 14 14 13 11 9
-5 23 2 14 13 13 11 9
-5 24 1 13 12 12 10 10
-4 23 -2 11 12 12 9 10
-3 22 -4 9 11 11 8 9
0 20 -6 7 10 11 7 8
1 19 -9 5 9 10 6 7
3 17 -11 3 8 9 5 6
2 16 -11 3 8 9 5 7
0 15 -11 3 8 10 6 8
-3 14 -12 3 7 11 7 9
-4 13 -12 3 7 12 8 10
-6 11 -13 3 6 13 9 11
-5 12 -13 3 6 13 9 11
-4 13 -12 3 6 13 10 12
-3 15 -11 3 6 13 10 12
-2 16 -10 3 6 13 11 13
1 18 -9 4 7 13 12 14
2 17 -8 4 6 11 11 12
3 15 -7 4 5 10 10 11
4 14 -6 5 4 8 8 9
5 12 -5 5 3 6 7 7
7 10 -4 6 1 4 5 5
5 10 -4 6 1 3 4 4
3 9 -4 5 0 2 3 3
1 8 -3 5 0 0 2 2
-3 7 -3 4 -2 -2 1 1
-5 6 -2 3 -3 -4 -2 -2
-4 6 -2 3 -3 -4 -2 -2
-3 6 0 3 -3 -5 -3 -3
0 6 0 3 -4 -5 -4 -3
1 6 1 3 -4 -6 -5 -4
3 7 2 4 -5 -7 -6 -5
0 3 0 2 -7 -9 -7 -7
-5 -3 -3 -2 -10 -11 -9 -8
-8 -7 -5 -5 -12 -13 -10 -10
-11 -12 -7 -7 -14 -15 -12 -12
-15 -16 -9 -10 -17 -17 -14 -14
-14 -15 -9 -9 -16 -17 -14 -14
-13 -14 -8 -8 -15 -16 -13 -13
-11 -13 -7 -7 -14 -15 -13 -12
-10 -12 -6 -6 -13 -14 -12 -11
-8 -10 -5 -4 -12 -13 -11 -10
-8 -10 -5 -3 -11 -13 -10 -9
-7 -9 -4 -2 -10 -13 -9 -8
-7 -8 -3 1 -8 -13 -8 -7
-6 -7 -2 2 -7 -13 -7 -6
-5 -6 0 4 -5 -12 -5 -5
-8 -9 -2 2 -7 -13 -8 -7
-12 -12 -3 -2 -10 -14 -10 -10
-16 -15 -4 -5 -12 -15 -13 -13
-19 -18 -5 -7 -14 -16 -16 -15
-23 -21 -7 -10 -17 -17 -19 -18
-20 -19 -7 -9 -16 -16 -18 -17
-17 -17 -7 -8 -14 -15 -17 -16
-14 -15 -6 -6 -13 -13 -15 -14
-11 -13 -6 -5 -11 -12 -14 -13
-8 -11 -5 -3 -9 -10 -12 -11
-7 -11 -4 -3 -9 -11 -13 -12
-5 -10 -3 -3 -9 -12 -14 -13
-3 -9 -2 -2 -9 -13 -15 -14
0 -8 0 -2 -9 -14 -16 -15
2 -7 1 0 -9 -15 -17 -16
-3 -10 6 6 -4 -14 -18 -18
-8 -13 11 12 3 -13 -19 -21
-12 -16 15 17 8 -12 -20 -24
-16 -19 20 23 14 -11 -21 -26
-21 -22 25 29 20 -8 -22 -28
-18 -22 25 39 35 11 -6 -16
-14 -23 26 50 52 28 12 -3
