I II V1 V2 V3 V4 V5 V6
-17 -11 -4 -8 -13 -10 -8 -10
-16 -11 -4 -8 -13 -10 -8 -10
-14 -11 -4 -8 -13 -10 -8 -10
-13 -11 -5 -8 -13 -10 -9 -11
-11 -11 -5 -8 -13 -10 -9 -11
-10 -11 -5 -8 -13 -10 -9 -11
-9 -10 -6 -8 -14 -9 -10 -12
-9 -10 -6 -8 -14 -9 -10 -12
-9 -10 -5 -8 -13 -9 -10 -12
-9 -10 -5 -8 -13 -9 -10 -12
-9 -10 -5 -8 -13 -9 -10 -12
-10 -11 -4 -9 -12 -8 -9 -11
-10 -11 -4 -9 -12 -8 -9 -11
-9 -11 -4 -9 -13 -8 -9 -11
-9 -11 -4 -9 -13 -8 -9 -11
-9 -11 -4 -9 -13 -8 -9 -11
-8 -11 -4 -10 -14 -9 -10 -12
-7 -11 -4 -10 -14 -9 -10 -12
-6 -11 -4 -10 -14 -9 -10 -12
-5 -11 -4 -10 -14 -9 -10 -12
-4 -11 -4 -10 -14 -9 -10 -12
-4 -11 -3 -10 -13 -9 -10 -12
-5 -11 -3 -9 -13 -9 -10 -12
-7 -11 -3 -9 -13 -8 -10 -11
-8 -11 -3 -8 -13 -8 -10 -11
-9 -11 -3 -8 -13 -8 -10 -11
-10 -10 -2 -7 -13 -7 -9 -10
-9 -10 -2 -7 -13 -7 -9 -10
-9 -10 -2 -7 -13 -8 -10 -11
-8 -10 -2 -7 -13 -8 -10 -11
-8 -10 -2 -7 -13 -8 -10 -11
-7 -10 -3 -8 -12 -9 -11 -12
-7 -10 -3 -7 -12 -9 -11 -12
-8 -10 -2 -7 -12 -9 -11 -12
-8 -10 -2 -6 -12 -9 -11 -12
-8 -10 -2 -6 -12 -9 -11 -12
-9 -11 0 -5 -12 -8 -10 -13
-8 -11 1 -5 -12 -8 -10 -13
-7 -11 1 -5 -11 -8 -10 -12
-6 -11 2 -5 -11 -8 -10 -12
-6 -11 2 -5 -11 -8 -10 -12
-5 -10 3 -4 -10 -7 -9 -11
-6 -9 3 -4 -10 -7 -9 -11
-6 -8 4 -4 -9 -7 -8 -11
-7 -7 4 -4 -9 -7 -8 -11
-7 -6 4 -4 -9 -7 -8 -11
-8 -5 5 -5 -8 -6 -7 -10
-7 -4 6 -4 -8 -6 -7 -10
-6 -3 7 -4 -8 -6 -7 -10
-5 -2 8 -3 -8 -6 -7 -10
-5 -2 8 -3 -8 -6 -7 -10
-4 0 10 -2 -8 -5 -7 -9
-5 1 12 0 -7 -5 -6 -9
-6 2 14 1 -6 -5 -6 -9
-7 3 16 2 -5 -5 -5 -9
-7 3 18 3 -5 -5 -5 -9
-8 4 20 4 -4 -4 -4 -8
-8 5 22 5 -4 -3 -4 -7
-9 5 24 6 -3 -2 -4 -7
-9 6 26 7 -3 0 -4 -6
-9 6 28 8 -3 0 -4 -6
-9 7 28 9 -2 1 -5 -5
-7 8 26 9 -2 1 -5 -5
-5 9 24 8 -3 1 -5 -5
-3 10 22 8 -3 1 -5 -5
0 10 21 8 -3 1 -5 -5
1 11 16 6 -4 1 -4 -5
1 11 11 5 -4 1 -4 -4
0 11 6 4 -4 1 -4 -4
0 11 2 3 -4 1 -4 -3
0 11 -4 2 -4 1 -4 -3
-2 11 -6 1 -4 1 -3 -2
0 13 -7 0 -4 1 -3 -2
1 15 -8 -2 -4 2 -2 0
2 17 -9 -3 -4 2 -2 0
3 18 -10 -3 -4 2 -2 0
3 19 -10 -4 -4 3 0 1
2 18 -8 -3 -3 4 1 1
0 18 -7 -2 -3 5 2 2
-2 17 -5 0 -2 6 3 2
-3 17 -4 0 -2 6 4 2
-4 15 -4 1 0 7 5 3
-4 14 -5 0 -2 6 5 3
-4 12 -6 -2 -2 5 4 3
-4 11 -7 -3 -3 4 4 3
-4 10 -8 -4 -3 3 4 3
-4 7 -9 -5 -4 2 3 1
-4 5 -9 -6 -5 2 2 0
-4 2 -9 -6 -5 1 1 -2
-4 0 -9 -7 -6 1 0 -3
-4 -3 -9 -7 -6 1 -2 -4
-4 -5 -9 -8 -7 0 -3 -5
-5 -6 -8 -8 -8 -2 -4 -6
-5 -8 -7 -8 -8 -3 -5 -7
-6 -9 -6 -8 -9 -4 -6 -8
-6 -10 -6 -8 -9 -5 -6 -8
-7 -12 -5 -8 -10 -7 -8 -10
-7 -13 -5 -9 -11 -8 -9 -11
-7 -14 -6 -10 -12 -9 -10 -13
-7 -15 -6 -11 -13 -10 -11 -14
-7 -16 -6 -11 -13 -11 -12 -15
-8 -17 -7 -12 -14 -12 -13 -16
-9 -17 -7 -12 -14 -12 -13 -16
-10 -17 -6 -11 -14 -12 -12 -16
-11 -17 -6 -11 -14 -12 -12 -16
-12 -17 -6 -11 -14 -12 -12 -16
-13 -16 -5 -10 -14 -12 -11 -16
-12 -16 -5 -10 -14 -12 -11 -16
-12 -16 -5 -10 -14 -12 -12 -16
-11 -16 -5 -10 -14 -12 -12 -16
-11 -16 -5 -10 -14 -12 -12 -16
-10 -16 -6 -10 -13 -13 -13 -17
-10 -17 -6 -9 -11 -12 -12 -17
-9 -18 -6 -7 -10 -11 -11 -17
-9 -19 -6 -6 -8 -10 -10 -17
-9 -20 -6 -5 -7 -9 -10 -17
-8 -18 1 8 6 0 -5 -15
-7 -15 8 21 20 9 1 -11
-6 -12 15 34 33 18 7 -8
-5 -8 21 47 47 27 12 -5
-4 -5 28 60 60 36 17 -2
1 4 50 101 94 68 44 18
4 13 73 145 130 102 72 38
8 22 97 188 164 137 101 59
12 31 120 232 200 172 130 79
15 40 144 275 236 205 158 99
19 45 147 190 190 221 185 121
23 48 146 90 134 235 212 145
27 51 146 -11 77 248 238 168
31 55 145 -111 20 262 266 190
35 58 145 -212 -36 275 293 213
35 60 72 -278 -88 246 272 206
32 61 -9 -342 -139 212 245 195
30 62 -90 -404 -190 178 219 185
28 63 -171 -468 -241 143 192 174
26 64 -252 -530 -293 108 164 163
19 56 -261 -512 -301 61 120 131
12 46 -262 -483 -304 12 74 95
4 35 -263 -453 -307 -37 28 60
-4 25 -264 -425 -310 -86 -17 24
-12 15 -264 -396 -313 -135 -63 -12
-14 11 -239 -357 -288 -135 -72 -21
-17 8 -210 -317 -259 -128 -75 -27
-19 5 -180 -277 -229 -120 -78 -33
-21 3 -150 -237 -199 -113 -82 -39
-23 0 -120 -197 -170 -105 -86 -46
-23 -3 -102 -169 -146 -93 -77 -44
-21 -5 -86 -142 -122 -79 -65 -39
-20 -7 -69 -115 -100 -67 -54 -36
-18 -9 -53 -89 -77 -54 -43 -32
-17 -11 -36 -62 -54 -40 -31 -28
-16 -12 -30 -51 -46 -35 -27 -26
-15 -13 -24 -41 -38 -31 -25 -24
-14 -13 -19 -32 -31 -26 -23 -22
-13 -14 -14 -23 -24 -22 -20 -20
-12 -14 -8 -14 -17 -18 -18 -18
-9 -15 -7 -10 -15 -17 -17 -17
-7 -15 -6 -8 -13 -17 -17 -17
-5 -15 -5 -5 -11 -17 -17 -17
-2 -15 -4 -2 -10 -17 -17 -17
1 -15 -3 1 -8 -17 -17 -17
1 -16 0 3 -7 -17 -16 -18
0 -16 1 5 -6 -16 -15 -17
-3 -15 3 7 -5 -15 -13 -16
-5 -15 4 8 -4 -14 -11 -15
-6 -15 5 10 -3 -13 -10 -14
-7 -14 6 11 -2 -12 -9 -13
-7 -14 7 12 0 -12 -9 -13
-7 -14 8 12 1 -12 -9 -13
-7 -14 9 13 2 -12 -9 -13
-7 -14 10 13 3 -12 -9 -13
-7 -14 11 14 4 -13 -10 -12
-8 -14 11 14 4 -12 -10 -12
-8 -15 11 15 3 -11 -9 -12
-9 -15 11 15 3 -10 -9 -12
-9 -15 11 15 3 -10 -9 -12
-9 -16 11 16 2 -9 -8 -13
-8 -16 11 16 2 -10 -8 -14
-6 -15 11 17 2 -11 -9 -15
-4 -15 11 17 2 -12 -9 -16
-3 -15 11 17 2 -12 -9 -17
-2 -14 10 19 2 -13 -10 -18
-3 -14 11 20 2 -12 -10 -17
-4 -14 11 21 2 -11 -10 -17
-5 -14 12 22 2 -10 -10 -16
-6 -14 12 23 2 -9 -10 -16
-7 -13 13 25 4 -8 -8 -15
-7 -13 14 26 5 -8 -7 -15
-7 -13 15 27 6 -8 -6 -14
-7 -13 16 28 8 -8 -4 -14
-7 -13 16 29 9 -8 -3 -14
-8 -13 17 30 10 -8 -2 -13
-8 -13 16 30 9 -8 0 -13
-7 -13 16 30 9 -8 0 -13
-7 -13 15 30 8 -8 1 -13
-7 -13 15 30 8 -8 1 -13
-6 -14 14 30 7 -8 2 -13
-5 -14 14 31 8 -8 2 -13
-4 -14 15 32 9 -8 1 -13
-3 -14 15 33 10 -8 1 -13
-2 -14 15 33 11 -8 1 -13
0 -13 16 35 12 -9 0 -12
-2 -13 16 36 12 -9 0 -12
-2 -13 16 38 12 -8 0 -12
-3 -13 16 40 12 -8 0 -12
-3 -13 16 42 12 -8 0 -12
-4 -13 17 43 13 -7 1 -11
-5 -12 17 44 14 -7 1 -11
-6 -11 17 45 15 -7 1 -10
-7 -10 17 46 16 -7 1 -10
-7 -10 17 47 17 -7 1 -10
-7 -9 18 48 18 -7 2 -9
-4 -9 18 48 18 -6 3 -9
-2 -9 19 48 18 -5 4 -9
1 -9 19 48 18 -4 5 -9
3 -9 19 48 18 -4 5 -9
3 -9 20 50 19 -3 6 -9
2 -9 20 52 20 -3 6 -8
1 -9 21 54 22 -3 6 -8
-2 -9 21 56 24 -3 6 -7
-3 -9 21 58 25 -3 6 -7
-4 -9 22 59 26 -2 7 -6
-4 -9 22 60 26 0 7 -6
-4 -9 22 60 26 0 8 -5
-4 -9 22 61 26 1 8 -5
-4 -9 22 61 26 1 8 -5
-3 -8 21 63 28 2 9 -4
-3 -7 21 64 29 2 9 -3
-3 -6 22 65 31 3 10 -3
-3 -5 22 67 33 3 10 -2
-3 -5 22 68 34 3 10 -2
-2 -4 23 69 35 4 11 0
0 -4 23 70 35 5 11 1
1 -3 22 70 35 6 12 1
2 -3 22 71 35 7 12 2
2 -3 22 71 35 7 12 2
3 -2 21 72 34 8 13 3
3 -2 21 72 35 8 13 3
4 -2 20 72 36 8 13 3
4 -2 20 72 37 8 13 3
4 -2 20 72 38 8 13 3
5 0 19 72 39 9 14 4
5 0 19 73 40 10 15 6
5 1 18 73 42 11 16 7
5 1 18 74 43 13 17 8
5 1 18 74 43 14 18 9
5 3 17 75 44 15 19 10
6 4 17 75 45 15 19 11
6 5 16 75 46 16 20 12
7 7 16 75 47 16 20 13
7 8 16 75 47 16 20 13
8 9 14 74 47 17 21 14
10 9 12 71 46 17 21 13
11 9 10 69 45 16 21 13
12 9 8 66 43 16 21 12
13 9 6 64 42 16 21 12
14 10 5 63 40 15 20 11
13 11 5 62 40 15 20 12
12 11 5 62 40 15 20 12
11 12 5 61 40 15 20 13
10 12 5 61 40 15 20 13
9 13 5 59 42 16 21 14
9 13 4 57 40 16 21 15
9 13 3 55 39 16 21 15
9 13 2 54 38 16 21 16
9 13 2 52 38 16 21 16
9 13 1 51 37 17 20 17
8 13 1 50 36 16 20 17
7 14 1 49 36 16 19 17
6 14 1 48 35 15 19 17
6 14 1 48 35 15 19 17
5 15 0 46 33 14 18 16
5 14 -2 44 31 13 17 15
6 13 -2 40 29 12 16 15
6 12 -3 38 27 11 15 14
6 12 -3 36 25 11 15 14
7 11 -4 35 24 9 14 13
8 11 -4 34 23 7 13 13
9 11 -4 33 22 6 12 12
10 11 -4 32 21 4 11 12
10 11 -4 31 21 2 10 12
11 10 -4 29 19 1 9 11
10 9 -5 27 18 0 7 11
10 9 -5 25 16 -2 6 10
9 8 -6 23 14 -3 5 10
9 8 -6 21 13 -3 4 10
8 7 -7 20 12 -4 3 9
8 7 -7 19 12 -6 2 9
8 7 -7 19 11 -7 2 8
8 7 -7 18 11 -8 1 8
8 7 -7 18 11 -9 1 8
7 8 -8 17 10 -10 0 7
6 8 -8 17 10 -10 0 7
6 8 -8 16 10 -10 0 7
5 8 -8 16 10 -10 0 7
5 8 -8 16 10 -10 0 7
4 7 -7 15 9 -11 1 6
4 7 -7 15 9 -12 0 6
5 7 -8 15 9 -13 -2 6
5 7 -8 15 9 -14 -3 6
5 7 -8 15 9 -15 -4 6
6 8 -9 16 8 -16 -5 5
6 8 -9 17 8 -16 -5 5
7 8 -9 17 8 -16 -6 5
7 8 -9 18 8 -16 -6 5
7 8 -9 18 8 -16 -6 5
8 8 -10 19 7 -16 -7 5
8 8 -9 20 8 -16 -7 5
8 8 -9 20 9 -16 -7 5
8 8 -8 21 10 -16 -7 5
8 8 -8 21 10 -16 -7 5
8 8 -7 22 11 -16 -6 5
8 8 -7 23 12 -14 -4 6
8 8 -6 24 13 -13 -3 6
8 8 -6 24 14 -12 -2 7
8 8 -6 25 15 -11 0 7
9 9 -5 26 16 -10 1 8
8 9 -5 26 17 -9 2 8
7 10 -4 27 17 -9 3 8
6 10 -4 27 18 -8 3 8
5 10 -4 27 18 -8 4 8
4 11 -3 27 19 -7 5 9
3 10 -3 26 18 -7 5 9
3 10 -3 25 17 -6 5 8
2 9 -3 23 17 -6 5 8
2 9 -3 22 16 -6 5 8
1 8 -4 21 15 -5 4 7
1 8 -4 20 15 -5 4 7
1 8 -4 20 15 -5 4 7
1 8 -4 19 15 -5 4 7
1 8 -4 19 15 -5 4 7
2 7 -5 17 13 -6 4 7
4 6 -5 15 11 -7 3 5
5 6 -5 14 9 -9 3 4
6 5 -5 12 7 -10 2 3
7 5 -5 10 5 -12 2 2
7 4 -5 9 4 -13 1 1
5 4 -4 9 4 -13 1 1
3 3 -4 9 4 -13 0 1
1 3 -3 9 4 -13 0 1
-2 3 -3 9 4 -13 0 1
-3 2 -2 9 4 -12 -2 1
-3 2 -2 9 3 -12 -3 0
-2 2 -2 8 2 -13 -3 0
-2 2 -2 8 2 -13 -4 -2
-2 2 -2 8 1 -13 -4 -2
0 2 -2 7 0 -14 -5 -3
-2 2 -2 6 -2 -15 -6 -5
-3 1 -2 6 -2 -16 -7 -6
-3 1 -2 5 -3 -16 -7 -7
-4 1 -2 5 -3 -17 -8 -8
-5 0 -3 4 -4 -18 -9 -9
-4 0 -3 4 -4 -18 -9 -9
-3 -2 -3 4 -4 -18 -9 -9
-2 -2 -3 4 -4 -18 -9 -9
0 -2 -3 4 -4 -18 -9 -9
0 -3 -2 3 -4 -17 -9 -10
-2 -3 0 5 -3 -17 -9 -9
-3 -2 0 6 -3 -17 -9 -9
-5 -2 1 7 -2 -17 -9 -8
-6 -2 1 8 -2 -17 -9 -8
-7 0 2 9 0 -16 -8 -7
-5 0 2 9 0 -16 -8 -7
-4 -2 1 9 1 -15 -7 -7
-3 -2 1 9 1 -15 -7 -7
-2 -2 1 9 1 -15 -7 -7
0 -3 0 10 2 -14 -6 -8
0 0 1 12 4 -14 -5 -7
0 1 1 13 5 -13 -4 -6
0 2 2 14 7 -13 -3 -6
0 3 2 15 8 -13 -2 -5
0 4 3 16 9 -12 0 -4
0 4 2 16 9 -11 0 -4
-2 4 1 16 9 -11 0 -3
-2 4 1 16 9 -10 0 -3
-2 4 0 16 9 -10 0 -3
-3 3 -2 15 9 -9 0 -2
-3 4 -2 15 10 -8 0 -2
-2 4 -2 15 10 -7 1 -2
-2 5 -2 15 11 -7 1 -2
-2 5 -2 15 11 -6 1 -2
0 6 -2 14 12 -5 2 0
0 7 -2 14 12 -3 4 1
0 7 -2 14 12 -2 5 2
0 8 -2 14 12 0 7 2
0 8 -2 14 12 1 8 3
0 9 -3 14 13 2 9 4
0 9 -3 14 14 2 9 4
0 9 -3 13 14 2 9 4
0 9 -3 13 15 2 9 4
0 9 -3 13 15 2 9 4
0 9 -4 12 16 3 8 5
2 9 -4 10 15 3 8 5
3 9 -5 9 14 3 8 6
4 9 -5 8 14 3 8 6
5 9 -5 7 13 3 8 6
6 9 -6 6 12 4 9 7
5 9 -6 6 12 4 9 7
5 9 -6 5 12 4 9 7
4 9 -6 5 12 4 9 7
4 9 -6 5 12 4 9 7
3 9 -5 4 12 4 10 7
3 9 -5 3 11 4 10 7
3 9 -6 3 11 3 10 6
3 9 -6 2 10 3 10 6
3 9 -6 2 10 3 10 6
4 8 -7 1 9 2 10 5
3 8 -7 1 9 2 10 5
2 8 -6 1 9 2 9 5
2 8 -6 1 9 2 9 5
1 8 -6 1 9 2 9 5
0 8 -5 1 7 2 8 6
0 8 -5 0 6 1 8 5
1 8 -5 -2 4 0 7 5
1 8 -5 -2 3 0 7 4
1 8 -5 -3 1 -2 7 4
2 7 -6 -4 0 -3 5 3
3 6 -7 -6 -2 -5 4 2
4 5 -8 -7 -3 -6 2 1
4 5 -8 -9 -4 -8 1 0
5 4 -9 -10 -5 -9 -2 -2
6 3 -10 -11 -6 -10 -3 -3
6 3 -9 -11 -6 -10 -3 -3
5 2 -8 -10 -7 -10 -3 -3
4 2 -7 -10 -7 -10 -3 -3
4 2 -6 -10 -7 -10 -3 -3
3 1 -5 -9 -8 -9 -2 -4
3 2 -5 -9 -8 -9 -2 -4
2 3 -4 -8 -7 -9 0 -3
1 3 -4 -8 -6 -9 1 -2
1 4 -4 -8 -6 -9 1 -2
0 5 -3 -7 -5 -8 2 0
0 5 -3 -8 -6 -8 1 0
0 4 -4 -10 -8 -9 0 -2
0 3 -4 -11 -9 -10 -2 -3
0 3 -4 -12 -10 -10 -3 -3
0 2 -5 -13 -11 -11 -4 -4
0 2 -5 -13 -11 -11 -4 -5
0 1 -5 -14 -12 -12 -5 -6
0 0 -5 -14 -12 -12 -5 -6
0 0 -5 -14 -12 -12 -5 -7
0 -2 -5 -15 -13 -13 -6 -8
2 -2 -5 -16 -15 -13 -7 -9
4 -2 -6 -17 -16 -14 -8 -10
7 -2 -7 -17 -18 -15 -9 -10
9 -2 -7 -18 -19 -15 -10 -11
9 -2 -8 -19 -20 -16 -11 -12
6 -2 -8 -18 -18 -16 -10 -11
3 0 -7 -17 -17 -15 -9 -10
0 0 -6 -16 -15 -15 -8 -10
-3 0 -6 -15 -14 -15 -7 -9
-5 1 -5 -14 -13 -14 -6 -8
-5 1 -5 -14 -14 -14 -6 -8
-4 1 -5 -14 -15 -14 -6 -8
-4 1 -5 -14 -15 -14 -6 -8
-4 1 -5 -14 -16 -14 -6 -8
-3 1 -5 -15 -17 -14 -6 -8
-3 0 -5 -15 -17 -14 -6 -8
-2 -2 -5 -15 -17 -14 -7 -8
-2 -3 -5 -15 -17 -14 -7 -8
-2 -4 -5 -15 -17 -14 -7 -8
0 -5 -6 -15 -16 -14 -8 -9
0 -5 -6 -15 -16 -14 -8 -9
0 -5 -6 -16 -16 -14 -8 -10
0 -5 -6 -16 -16 -14 -8 -10
0 -5 -6 -16 -16 -14 -8 -10
0 -6 -6 -17 -17 -15 -9 -11
3 -6 -7 -17 -18 -17 -10 -12
6 -6 -8 -18 -19 -18 -12 -13
9 -6 -9 -18 -20 -20 -13 -14
12 -6 -10 -18 -21 -21 -15 -15
12 -5 -11 -19 -22 -22 -16 -16
7 -5 -9 -18 -21 -20 -14 -15
2 -6 -8 -17 -20 -18 -13 -13
-3 -6 -6 -17 -19 -17 -11 -12
-8 -6 -5 -16 -18 -15 -10 -11
-10 -7 -4 -15 -17 -14 -9 -10
-9 -7 -4 -15 -17 -14 -9 -10
-8 -7 -4 -15 -17 -14 -9 -10
-7 -7 -4 -15 -17 -14 -9 -10
-6 -7 -4 -15 -17 -14 -9 -10
-5 -6 -4 -15 -16 -14 -10 -10
-5 -6 -4 -15 -16 -14 -10 -10
-5 -6 -5 -16 -16 -14 -11 -10
-5 -6 -5 -16 -16 -14 -11 -10
-5 -6 -5 -16 -16 -14 -11 -10
-5 -5 -6 -17 -17 -15 -12 -10
-5 -5 -6 -17 -17 -15 -12 -10
-4 -5 -6 -17 -17 -15 -12 -11
-4 -5 -6 -17 -17 -15 -12 -11
-4 -5 -6 -17 -17 -15 -12 -11
-3 -5 -6 -17 -18 -16 -12 -12
-3 -5 -6 -17 -18 -16 -12 -12
-3 -5 -6 -17 -18 -16 -12 -12
-3 -5 -6 -17 -18 -16 -12 -12
-3 -5 -6 -17 -18 -16 -12 -12
-3 -6 -6 -17 -19 -16 -11 -12
-3 -6 -6 -17 -19 -16 -11 -12
-2 -7 -6 -17 -19 -17 -11 -12
0 -7 -6 -17 -19 -17 -11 -12
0 -7 -6 -17 -19 -17 -11 -12
1 -8 -7 -18 -20 -18 -12 -12
1 -8 -7 -18 -20 -18 -12 -12
2 -8 -7 -19 -20 -18 -13 -13
2 -8 -7 -19 -20 -18 -13 -13
2 -8 -7 -19 -20 -18 -13 -13
3 -7 -8 -20 -21 -18 -14 -14
3 -7 -8 -20 -21 -18 -14 -14
3 -7 -8 -21 -21 -18 -14 -14
3 -7 -8 -21 -21 -18 -14 -14
3 -7 -8 -21 -21 -18 -14 -14
3 -6 -8 -22 -21 -19 -15 -14
2 -6 -8 -22 -21 -19 -15 -14
1 -5 -7 -22 -21 -18 -15 -13
1 -5 -6 -22 -21 -18 -15 -13
0 -5 -6 -22 -21 -18 -15 -13
-2 -4 -5 -21 -21 -17 -14 -12
-3 -4 -5 -21 -21 -17 -14 -12
-4 -5 -4 -20 -20 -17 -13 -11
-4 -5 -3 -19 -19 -17 -13 -11
-5 -5 -3 -19 -19 -17 -13 -11
-6 -6 -2 -18 -18 -17 -12 -10
-5 -6 -2 -19 -18 -17 -12 -10
-4 -5 -3 -20 -19 -17 -13 -11
-3 -5 -3 -21 -20 -17 -13 -11
-2 -5 -3 -22 -20 -17 -13 -11
0 -4 -4 -23 -21 -17 -14 -12
0 -4 -4 -23 -21 -17 -14 -12
0 -5 -5 -23 -21 -18 -15 -12
0 -6 -6 -23 -21 -18 -15 -12
0 -6 -6 -23 -21 -18 -15 -12
1 -7 -7 -22 -20 -19 -16 -13
3 -7 -7 -22 -21 -19 -16 -13
6 -8 -8 -23 -23 -20 -17 -14
8 -8 -9 -24 -24 -21 -17 -15
10 -8 -9 -24 -25 -21 -17 -15
10 -9 -9 -25 -26 -22 -18 -16
7 -8 -8 -24 -24 -21 -18 -15
3 -7 -6 -22 -22 -19 -17 -14
-2 -6 -4 -21 -21 -18 -16 -13
-6 -5 -2 -20 -19 -17 -16 -12
-7 -4 0 -19 -18 -16 -15 -11
-6 -4 -2 -19 -18 -17 -16 -11
-4 -5 -3 -20 -19 -18 -17 -12
-2 -5 -4 -20 -19 -18 -17 -12
1 -5 -5 -20 -19 -19 -18 -12
2 -6 -6 -21 -20 -20 -19 -13
2 -6 -6 -21 -20 -20 -19 -13
1 -6 -6 -21 -20 -20 -19 -13
1 -6 -6 -21 -20 -20 -19 -13
1 -6 -6 -21 -20 -20 -19 -13
0 -7 -6 -20 -20 -20 -20 -13
0 -7 -6 -20 -20 -20 -20 -13
0 -6 -6 -21 -20 -20 -20 -13
0 -6 -6 -22 -20 -20 -20 -13
0 -6 -6 -22 -20 -20 -20 -13
-2 -5 -5 -23 -20 -19 -20 -14
-2 -5 -5 -23 -20 -19 -20 -14
-3 -5 -5 -22 -19 -19 -20 -14
-3 -5 -5 -22 -19 -19 -20 -14
-3 -5 -5 -22 -19 -19 -20 -14
-4 -4 -4 -21 -18 -19 -20 -13
-4 -4 -4 -21 -18 -19 -20 -13
-3 -4 -4 -21 -18 -19 -19 -13
-3 -4 -4 -21 -18 -19 -19 -13
-3 -4 -4 -21 -18 -19 -19 -13
-2 -5 -3 -22 -19 -20 -18 -13
-2 -5 -3 -22 -19 -20 -18 -14
0 -5 -3 -22 -20 -20 -18 -15
1 -5 -3 -22 -20 -20 -18 -15
1 -5 -3 -22 -20 -20 -18 -16
2 -6 -4 -23 -21 -21 -19 -17
2 -5 -4 -23 -21 -21 -19 -17
1 -4 -3 -22 -20 -20 -18 -16
0 -4 -2 -22 -19 -20 -17 -16
0 -3 -2 -22 -19 -20 -17 -16
-2 -2 0 -21 -18 -19 -16 -15
-2 -2 1 -21 -18 -19 -16 -15
-2 0 2 -21 -18 -20 -17 -15
-2 1 2 -21 -18 -20 -18 -15
-2 1 3 -21 -18 -20 -18 -15
0 2 4 -20 -18 -21 -19 -16
0 2 4 -19 -18 -20 -18 -15
0 3 5 -18 -17 -19 -17 -14
0 3 6 -18 -16 -18 -17 -14
0 3 6 -17 -16 -17 -16 -13
1 4 7 -16 -15 -16 -15 -12
3 5 8 -16 -15 -16 -16 -13
5 6 9 -16 -15 -17 -17 -15
7 7 9 -16 -15 -18 -18 -16
9 8 10 -16 -15 -18 -19 -17
9 9 12 -15 -16 -19 -20 -18
6 10 16 -13 -14 -17 -18 -16
3 12 19 -10 -13 -16 -16 -14
1 13 22 -8 -12 -15 -14 -12
-3 14 26 -6 -10 -13 -12 -10
-5 15 27 -4 -9 -12 -11 -9
-5 15 23 -4 -9 -12 -12 -10
-4 15 19 -5 -10 -13 -13 -11
-3 15 15 -6 -11 -14 -13 -11
-3 15 11 -6 -11 -14 -14 -12
-2 16 8 -7 -12 -15 -15 -13
0 16 6 -9 -12 -15 -15 -13
1 17 3 -10 -12 -14 -14 -12
1 17 0 -11 -12 -14 -13 -11
2 17 -3 -13 -12 -14 -13 -11
3 18 -5 -14 -13 -13 -12 -10
5 20 -6 -14 -12 -13 -12 -10
7 22 -8 -14 -11 -12 -11 -9
8 23 -9 -14 -11 -11 -10 -8
10 25 -10 -14 -10 -11 -10 -8
11 26 -11 -13 -9 -10 -9 -7
11 26 -11 -13 -10 -10 -9 -7
12 25 -11 -13 -11 -10 -9 -7
12 24 -11 -13 -11 -10 -9 -7
12 24 -11 -13 -12 -10 -9 -7
13 22 -10 -14 -13 -11 -10 -7
14 19 -11 -15 -13 -12 -10 -8
16 16 -13 -16 -13 -13 -11 -9
17 14 -14 -16 -13 -13 -11 -9
18 11 -15 -17 -13 -14 -11 -10
17 9 -16 -18 -14 -15 -12 -11
13 8 -15 -18 -14 -15 -12 -11
9 7 -13 -18 -14 -14 -12 -11
5 6 -12 -18 -14 -14 -12 -11
2 5 -11 -18 -14 -14 -12 -11
-2 4 -10 -18 -14 -13 -13 -11
-2 2 -10 -18 -14 -14 -15 -12
-2 0 -10 -18 -14 -15 -17 -13
-2 -3 -10 -19 -15 -17 -19 -15
-2 -5 -10 -19 -15 -18 -21 -16
-3 -6 -9 -20 -16 -19 -22 -17
-3 -7 -9 -21 -17 -20 -22 -18
-3 -8 -8 -22 -18 -21 -23 -19
-3 -9 -7 -23 -19 -23 -24 -21
-3 -10 -7 -24 -20 -24 -24 -22
-3 -11 -6 -25 -21 -25 -25 -23
-3 -11 -6 -25 -21 -25 -25 -23
-3 -11 -6 -24 -20 -25 -25 -23
-3 -11 -6 -23 -19 -24 -25 -23
-3 -11 -6 -23 -19 -24 -25 -23
-3 -11 -7 -22 -18 -23 -25 -24
-2 -11 -7 -22 -18 -23 -25 -24
0 -11 -7 -22 -19 -23 -25 -24
1 -11 -7 -23 -20 -23 -25 -24
2 -11 -7 -23 -20 -23 -25 -24
3 -12 -7 -24 -20 -24 -26 -23
4 -12 -7 -22 -18 -22 -25 -23
4 -12 -6 -20 -16 -21 -24 -23
5 -12 -5 -18 -14 -19 -23 -23
6 -12 -5 -16 -12 -17 -22 -23
7 -12 0 -8 -3 -11 -18 -22
5 -9 8 9 14 0 -12 -18
4 -6 16 24 30 11 -5 -14
3 -2 24 40 47 21 2 -9
1 2 32 56 63 32 9 -5
2 8 48 85 89 56 27 9
9 19 71 128 125 92 59 32
15 29 94 171 159 129 91 55
21 39 116 214 195 165 121 78
27 50 140 257 230 202 153 102
32 57 150 229 219 225 181 123
34 61 145 119 152 232 202 143
36 65 139 10 86 239 224 162
39 69 134 -100 19 246 246 182
42 73 128 -210 -48 255 268 201
42 76 90 -295 -105 241 266 204
37 74 13 -350 -151 204 234 186
32 73 -63 -405 -197 167 202 168
28 71 -140 -461 -243 129 171 148
23 69 -217 -516 -289 91 139 130
19 64 -258 -531 -315 50 102 106
15 56 -257 -499 -315 5 59 76
11 47 -256 -467 -314 -41 17 47
7 37 -255 -435 -313 -87 -26 16
4 28 -254 -402 -313 -133 -69 -14
0 22 -239 -367 -298 -152 -92 -31
-6 19 -211 -327 -267 -141 -90 -35
-10 17 -182 -287 -235 -130 -88 -39
-14 14 -152 -247 -203 -118 -86 -44
-18 11 -123 -208 -172 -107 -83 -48
-21 8 -100 -175 -145 -96 -78 -49
-19 5 -85 -148 -122 -83 -70 -45
-17 2 -68 -122 -101 -71 -62 -39
-15 -3 -52 -96 -79 -58 -55 -34
-13 -6 -35 -70 -57 -46 -47 -29
-11 -8 -25 -52 -43 -37 -40 -26
-8 -8 -20 -43 -36 -34 -37 -24
-6 -8 -16 -34 -29 -30 -34 -23
-4 -8 -12 -26 -23 -27 -30 -21
-2 -8 -8 -17 -17 -23 -27 -19
1 -9 -5 -11 -13 -21 -25 -18
-2 -9 -2 -9 -11 -21 -25 -18
-3 -9 1 -6 -9 -20 -25 -18
-4 -9 3 -4 -7 -19 -25 -18
-6 -9 5 0 -5 -19 -25 -18
-7 -10 7 2 -3 -18 -24 -17
-6 -10 8 2 -3 -18 -24 -17
-5 -10 8 2 -3 -17 -23 -17
-4 -11 9 3 -3 -16 -22 -17
-3 -11 10 3 -3 -16 -22 -17
-2 -12 11 4 -3 -15 -21 -16
-2 -12 11 6 -2 -15 -21 -16
-2 -12 11 7 0 -15 -21 -16
-2 -11 12 8 2 -15 -21 -15
-2 -11 12 10 3 -15 -21 -15
0 -10 13 11 4 -15 -20 -14
0 -10 13 11 4 -15 -20 -14
0 -11 13 11 4 -14 -20 -14
0 -12 13 10 4 -13 -20 -14
0 -12 13 10 4 -13 -20 -14
0 -13 14 9 3 -12 -19 -14
0 -12 14 10 4 -12 -19 -14
0 -12 14 11 4 -12 -19 -14
0 -11 15 13 5 -12 -19 -14
0 -10 15 14 6 -12 -19 -14
0 -9 16 15 7 -13 -19 -15
0 -9 16 16 7 -13 -19 -15
0 -9 16 17 7 -13 -18 -15
1 -9 16 19 7 -12 -17 -14
1 -9 16 20 7 -12 -17 -14
2 -10 17 21 7 -11 -16 -13
1 -10 17 21 7 -11 -16 -13
0 -10 17 21 8 -11 -16 -13
-3 -10 18 21 9 -11 -16 -13
-4 -10 18 21 9 -11 -16 -13
-5 -9 19 21 10 -11 -16 -12
-5 -9 20 22 10 -10 -16 -11
-5 -9 20 22 10 -9 -16 -11
-5 -9 21 23 11 -8 -16 -10
-5 -9 22 24 11 -7 -16 -9
-5 -10 23 25 12 -6 -16 -8
-5 -10 23 26 13 -6 -16 -8
-5 -10 23 28 15 -6 -15 -8
-5 -11 23 29 16 -6 -14 -8
-5 -11 23 31 18 -6 -14 -8
-4 -12 24 32 19 -6 -13 -7
-3 -12 24 32 19 -6 -13 -7
-2 -12 24 33 19 -6 -13 -7
0 -11 24 34 19 -6 -12 -7
1 -11 24 34 19 -6 -12 -7
2 -10 24 35 19 -5 -11 -6
2 -10 25 36 20 -5 -11 -6
2 -10 25 38 22 -5 -11 -5
2 -9 26 39 23 -5 -11 -4
2 -9 27 42 25 -5 -11 -4
3 -8 28 43 26 -4 -10 -3
3 -8 28 44 26 -3 -10 -3
3 -8 28 45 26 -3 -9 -2
3 -8 28 46 26 -2 -8 0
3 -8 28 47 26 0 -8 0
4 -8 29 48 27 1 -7 1
3 -8 29 50 29 1 -7 1
3 -8 29 51 31 2 -6 1
2 -8 29 53 33 3 -5 2
1 -8 29 55 34 3 -5 2
0 -7 29 56 36 4 -4 3
0 -7 29 57 36 5 -4 3
0 -7 29 58 37 5 -3 4
0 -7 29 60 38 6 -2 5
0 -7 29 61 38 7 -2 5
1 -6 28 62 39 8 0 6
2 -6 28 62 40 8 0 6
2 -5 28 62 43 9 1 6
3 -4 28 63 44 10 2 7
4 -4 28 63 46 10 2 7
5 -3 29 64 47 11 3 8
5 -3 29 65 48 12 3 9
5 -3 29 67 48 13 3 10
5 -3 29 68 49 14 4 12
5 -3 29 70 50 15 4 13
4 -2 30 71 51 16 5 14
4 -2 30 72 52 16 6 14
4 0 30 73 53 17 7 14
4 1 29 74 55 18 9 15
4 1 29 75 56 18 10 15
5 2 28 76 57 19 11 16
7 2 27 76 57 19 11 16
8 3 26 75 57 19 11 16
10 4 25 74 57 19 11 16
12 4 24 74 57 19 11 16
13 5 23 73 57 20 12 17
13 5 23 73 58 21 12 18
13 6 23 73 59 21 12 19
13 7 23 73 60 22 12 20
13 7 23 73 61 23 12 21
12 8 22 73 62 24 12 22
10 8 21 72 62 24 13 23
9 8 20 72 62 25 13 24
7 8 19 71 62 26 14 25
6 8 18 70 62 26 15 26
4 7 17 69 62 27 16 27
6 8 16 68 62 27 16 27
8 9 14 66 61 27 16 26
10 11 13 65 60 26 15 25
12 12 11 63 60 26 15 25
14 13 10 62 59 25 14 24
14 13 10 60 59 25 14 24
13 13 10 58 59 25 14 24
12 13 9 56 58 25 15 25
12 13 9 54 58 25 15 25
11 13 8 52 57 26 16 26
11 13 8 50 55 25 15 26
11 13 8 47 54 24 13 25
11 13 8 45 52 22 12 24
11 13 8 43 51 21 10 24
11 12 7 40 49 20 9 23
11 12 7 39 48 20 9 23
10 12 6 38 48 20 9 23
9 12 5 36 47 20 9 23
9 12 5 35 46 20 9 23
8 11 4 34 45 19 9 22
8 10 3 31 43 17 7 22
7 9 3 28 42 15 6 21
6 8 2 26 39 13 4 20
6 7 1 23 38 11 3 20
5 6 0 21 36 9 1 19
6 6 0 20 34 8 0 18
6 6 0 19 33 7 0 18
7 6 -2 17 31 6 -2 17
8 6 -2 16 30 5 -3 16
9 6 -3 15 28 4 -4 15
8 6 -3 15 28 3 -4 15
6 6 -3 15 28 2 -4 15
5 6 -2 15 28 0 -4 15
3 6 -2 15 28 -2 -4 15
2 7 0 14 27 -3 -5 16
3 7 0 13 26 -3 -5 16
3 7 -2 12 25 -3 -5 15
4 6 -3 11 24 -4 -6 14
5 6 -3 10 23 -4 -6 14
6 5 -4 9 22 -5 -7 13
7 5 -4 9 22 -5 -8 13
7 5 -4 9 22 -6 -9 13
8 5 -4 9 22 -6 -10 13
9 5 -4 9 22 -7 -11 13
10 6 -5 10 23 -8 -12 13
9 6 -5 11 23 -8 -11 13
8 6 -5 12 24 -8 -10 14
7 6 -4 13 24 -7 -9 14
6 6 -4 14 25 -7 -8 15
5 7 -3 15 26 -6 -7 16
5 7 -3 16 28 -6 -7 16
4 7 -3 16 29 -6 -7 16
4 7 -2 17 31 -6 -6 16
3 7 -2 18 32 -6 -6 16
2 7 0 19 34 -6 -5 16
4 7 0 19 34 -6 -5 15
6 7 0 20 34 -5 -5 15
8 7 0 20 35 -5 -4 14
10 7 0 21 35 -4 -4 13
12 8 0 22 36 -3 -3 12
10 8 1 22 37 0 -2 12
8 7 2 22 39 1 0 12
6 7 3 22 40 3 1 13
4 6 4 22 43 4 3 13
2 5 5 23 44 6 4 14
2 5 5 23 44 6 4 14
2 5 5 23 44 6 5 14
2 5 5 23 43 7 5 15
2 5 5 23 43 7 6 15
1 4 5 22 42 8 7 16
1 4 5 20 42 8 7 15
1 4 5 18 42 8 7 14
1 3 5 17 40 7 7 13
1 3 5 15 40 7 7 12
0 2 5 13 39 6 6 11
0 2 5 12 38 6 5 10
1 2 5 12 37 5 5 10
1 2 4 11 36 5 4 9
2 2 4 10 35 4 3 8
3 1 3 9 34 3 2 7
2 1 3 9 34 3 1 6
2 0 3 9 33 2 0 6
1 0 3 8 33 2 -2 5
0 -2 3 8 32 1 -4 4
-2 -3 3 7 31 0 -5 3
-2 -3 3 7 31 0 -4 3
-3 -4 4 7 31 0 -4 3
-3 -4 4 7 30 0 -3 3
-4 -5 5 7 30 0 -2 3
-5 -6 6 6 29 -2 0 2
-5 -5 6 6 29 -2 -2 2
-5 -5 6 6 29 -3 -3 1
-5 -4 7 6 29 -3 -4 1
-5 -3 7 6 29 -4 -5 0
-4 -2 8 7 29 -5 -6 -2
-4 -2 8 7 29 -5 -6 -2
-4 -2 8 8 29 -5 -6 -2
-4 -3 8 8 29 -5 -6 -2
-4 -3 8 9 29 -5 -6 -2
-3 -4 7 10 29 -5 -6 -3
-4 -4 7 11 29 -5 -6 -3
-5 -5 7 11 30 -5 -6 -3
-6 -5 7 12 30 -5 -6 -3
-8 -6 7 13 31 -5 -6 -3
-9 -7 7 14 32 -5 -6 -4
-8 -7 7 14 32 -5 -6 -4
-8 -6 7 14 32 -4 -6 -4
-7 -6 7 14 32 -4 -5 -3
-6 -5 7 14 32 -3 -5 -3
-5 -4 8 15 32 -2 -4 -2
-5 -4 8 15 32 -2 -4 -2
-5 -4 8 15 32 -2 -4 -2
-5 -4 8 15 33 -2 -4 -2
-5 -4 8 15 33 -2 -4 -2
-5 -4 7 15 34 -2 -3 -2
-5 -4 7 15 34 0 -2 -2
-5 -4 7 15 35 1 0 0
-5 -4 7 16 35 2 1 0
-5 -4 7 16 36 4 3 1
-4 -3 6 17 37 5 4 2
-4 -3 6 18 38 6 4 2
-4 -3 6 18 39 7 5 2
-5 -2 6 19 40 8 5 3
-5 -2 6 20 42 9 6 3
-6 0 6 21 43 10 7 4
-6 0 6 21 43 10 7 4
-6 0 6 21 43 11 7 5
-5 0 6 20 43 11 7 5
-5 0 6 20 43 12 7 6
-4 1 5 19 44 13 8 7
-4 1 5 19 44 13 9 7
-4 2 5 19 44 13 9 7
-4 2 4 19 44 13 10 7
-4 3 4 19 44 13 11 7
-3 4 3 19 45 14 12 8
1 4 2 18 44 14 12 8
3 4 2 17 43 14 12 8
5 4 1 16 42 14 11 7
8 4 0 15 39 14 11 7
10 4 -2 14 38 14 10 6
6 4 -2 14 39 15 11 7
2 4 0 14 39 16 12 8
-2 4 0 15 40 17 13 9
-6 4 1 15 42 18 15 11
-9 4 2 16 43 19 16 12
-9 3 2 15 42 19 16 12
-8 3 2 15 40 19 16 12
-8 2 2 14 39 19 16 12
-7 1 2 13 38 19 16 12
-6 0 1 12 37 18 15 11
-5 0 1 12 36 18 15 11
-4 0 1 11 35 17 15 11
-3 0 1 11 34 16 14 10
-2 0 1 10 32 15 14 10
0 1 1 9 31 14 13 9
0 1 1 8 30 14 13 9
0 1 1 7 29 13 12 8
-2 1 0 6 28 13 12 7
-2 1 0 5 27 12 11 6
-3 0 -2 4 26 11 10 5
0 0 -2 4 25 10 10 5
3 0 -2 3 23 9 9 4
5 0 -3 2 22 8 9 3
8 0 -3 1 21 6 8 2
10 0 -4 0 19 5 7 1
6 0 -4 0 19 5 7 1
2 -2 -3 1 19 6 7 1
-2 -2 -2 1 19 6 7 2
-6 -3 0 2 19 7 7 2
-9 -4 1 3 20 8 7 3
-9 -4 1 3 19 8 7 3
-8 -4 1 2 18 7 7 2
-8 -4 0 2 17 6 7 2
-7 -4 0 1 16 5 7 1
-6 -5 -2 0 15 4 6 0
-6 -5 -2 0 14 4 6 0
-6 -5 -2 -2 13 3 5 -2
-6 -6 -2 -3 12 2 5 -2
-6 -6 -2 -4 11 1 4 -3
-6 -7 -3 -5 10 0 3 -4
-6 -7 -3 -5 10 0 3 -4
-5 -7 -3 -5 10 0 3 -4
-5 -7 -2 -5 10 0 3 -4
-4 -7 -2 -5 10 0 3 -4
-3 -6 0 -4 9 0 3 -4
-3 -6 0 -4 8 0 3 -4
-2 -6 0 -4 6 -2 3 -5
-2 -6 -2 -5 5 -2 2 -5
0 -6 -2 -5 4 -3 2 -6
1 -7 -3 -6 2 -4 1 -7
1 -7 -3 -6 2 -4 1 -7
0 -7 -3 -6 2 -4 1 -7
-2 -7 -3 -6 2 -4 1 -7
-3 -7 -3 -6 2 -4 1 -7
-4 -7 -3 -5 3 -5 0 -8
-4 -7 -3 -5 3 -5 0 -8
-5 -7 -2 -5 3 -5 1 -8
-6 -7 0 -5 3 -4 1 -7
-7 -7 1 -5 3 -4 2 -7
-8 -8 2 -4 3 -3 3 -6
-8 -8 2 -4 3 -3 3 -6
-8 -8 2 -4 3 -3 3 -6
-8 -8 2 -4 2 -3 3 -6
-8 -8 2 -4 2 -3 3 -6
-7 -8 1 -5 1 -4 3 -5
-7 -8 1 -5 1 -4 3 -5
-7 -8 0 -6 0 -4 3 -5
-7 -9 0 -6 0 -5 2 -6
-7 -9 -2 -7 -2 -5 2 -6
-6 -10 -3 -8 -3 -6 1 -7
-5 -10 -4 -8 -4 -7 0 -7
-4 -10 -5 -9 -5 -8 -2 -8
-3 -10 -6 -9 -6 -9 -3 -9
-2 -10 -7 -10 -8 -10 -4 -10
0 -10 -8 -11 -9 -11 -5 -11
0 -10 -8 -11 -9 -11 -5 -11
1 -10 -8 -11 -9 -11 -5 -11
1 -10 -8 -12 -9 -11 -5 -11
2 -10 -8 -12 -9 -11 -5 -11
3 -9 -7 -13 -10 -10 -5 -11
-2 -9 -6 -12 -9 -9 -4 -10
-5 -9 -4 -11 -8 -8 -3 -8
-9 -9 -2 -10 -7 -7 -2 -6
-13 -9 0 -8 -6 -5 0 -5
-16 -10 2 -7 -5 -4 1 -3
-15 -10 2 -7 -5 -4 1 -3
-13 -10 1 -7 -6 -4 1 -4
-11 -10 0 -7 -6 -5 1 -4
-10 -10 -2 -7 -7 -5 1 -5
-8 -10 -3 -8 -8 -6 0 -6
-8 -10 -3 -8 -8 -6 0 -6
-8 -10 -3 -8 -9 -6 0 -6
-8 -10 -3 -8 -9 -7 0 -6
-8 -10 -3 -8 -10 -7 0 -6
-7 -10 -3 -8 -11 -8 -2 -6
-6 -10 -3 -8 -11 -8 -2 -6
-5 -10 -4 -9 -11 -8 -3 -6
-4 -10 -5 -9 -12 -9 -3 -7
-2 -10 -6 -10 -12 -9 -4 -7
0 -11 -7 -11 -13 -10 -5 -8
-2 -11 -7 -11 -13 -10 -5 -8
-4 -11 -7 -11 -13 -10 -5 -8
-5 -11 -7 -11 -13 -10 -6 -8
-6 -11 -7 -11 -13 -10 -6 -8
-8 -11 -7 -11 -14 -11 -7 -8
-8 -11 -6 -11 -14 -11 -7 -8
-8 -11 -5 -11 -14 -11 -6 -8
-8 -11 -4 -10 -14 -10 -5 -8
-8 -11 -3 -10 -14 -10 -4 -8
-8 -10 -2 -9 -13 -9 -3 -7
-8 -10 -2 -9 -13 -9 -3 -7
-7 -10 -2 -9 -13 -9 -3 -7
-7 -10 -3 -9 -13 -9 -4 -7
-6 -10 -3 -9 -13 -9 -4 -7
-5 -11 -4 -9 -13 -10 -5 -8
-5 -11 -4 -9 -13 -10 -5 -8
-5 -11 -4 -9 -13 -10 -5 -8
-5 -11 -5 -10 -13 -10 -4 -8
-5 -11 -5 -10 -13 -10 -4 -8
-6 -10 -6 -11 -14 -10 -3 -8
-6 -10 -6 -11 -14 -10 -3 -8
-6 -10 -6 -11 -14 -10 -3 -8
-6 -11 -6 -11 -14 -10 -4 -8
-6 -11 -6 -11 -14 -10 -4 -8
-5 -12 -5 -11 -15 -11 -5 -9
-5 -12 -5 -11 -15 -11 -5 -9
-5 -12 -5 -11 -15 -11 -5 -9
-5 -11 -5 -11 -15 -11 -5 -9
-5 -11 -5 -11 -15 -11 -5 -9
-6 -10 -6 -10 -15 -10 -5 -10
-6 -10 -6 -10 -15 -10 -5 -10
-6 -10 -6 -10 -15 -10 -5 -10
-6 -10 -6 -10 -15 -10 -5 -10
-6 -10 -6 -10 -15 -10 -5 -10
-6 -10 -5 -9 -14 -11 -6 -11
-6 -10 -5 -9 -14 -11 -6 -11
-6 -10 -5 -9 -14 -11 -6 -11
-6 -10 -4 -10 -14 -11 -6 -11
-6 -10 -4 -10 -14 -11 -6 -11
-7 -11 -3 -11 -15 -11 -6 -12
-5 -11 -3 -11 -15 -11 -6 -12
-3 -10 -3 -11 -15 -11 -6 -12
0 -10 -3 -11 -15 -11 -6 -12
2 -9 -3 -11 -15 -11 -6 -12
4 -8 -4 -11 -15 -11 -7 -12
1 -8 -4 -11 -15 -11 -7 -12
-3 -9 -3 -11 -15 -11 -7 -11
-6 -10 -3 -11 -14 -10 -6 -11
-9 -11 -2 -11 -14 -10 -6 -10
-12 -12 0 -10 -13 -9 -5 -9
-11 -12 0 -10 -13 -9 -5 -9
-10 -12 0 -10 -13 -10 -6 -9
-9 -12 -2 -10 -13 -10 -6 -10
-8 -12 -2 -10 -13 -11 -7 -10
-7 -12 -3 -11 -14 -12 -8 -11
-7 -12 -3 -11 -14 -12 -8 -11
-7 -12 -3 -11 -14 -12 -8 -11
-7 -11 -2 -11 -14 -12 -7 -11
-7 -11 -2 -11 -14 -12 -7 -11
-7 -10 0 -10 -13 -11 -6 -11
-7 -10 0 -10 -13 -11 -6 -11
-7 -10 0 -10 -13 -11 -6 -11
-6 -10 0 -10 -13 -11 -6 -11
-6 -10 0 -10 -13 -11 -6 -11
-5 -10 0 -11 -14 -11 -7 -12
-5 -10 0 -11 -14 -11 -8 -12
-4 -11 0 -11 -14 -11 -9 -12
-3 -11 -2 -12 -14 -11 -10 -12
-2 -12 -2 -12 -14 -11 -11 -12
0 -13 -3 -13 -15 -12 -12 -13
-3 -12 -2 -12 -15 -12 -11 -13
-4 -11 1 -11 -14 -11 -10 -13
-6 -10 2 -9 -13 -10 -9 -12
-8 -9 4 -8 -12 -9 -8 -12
-10 -8 6 -6 -11 -8 -7 -11
-10 -8 6 -6 -11 -8 -7 -11
-9 -7 6 -6 -11 -8 -7 -11
-9 -7 6 -6 -11 -8 -6 -10
-8 -6 6 -6 -11 -8 -6 -10
-7 -5 6 -5 -10 -7 -5 -9
-7 -5 6 -5 -10 -7 -5 -9
-7 -4 7 -5 -10 -7 -6 -9
-7 -3 8 -5 -10 -7 -6 -10
-7 -2 9 -5 -10 -7 -7 -10
-6 0 10 -5 -10 -8 -8 -11
-6 1 13 -4 -9 -7 -7 -11
-6 3 17 -2 -8 -6 -6 -11
-6 5 20 1 -7 -5 -5 -10
-6 7 23 3 -6 -4 -4 -10
-6 9 27 5 -4 -3 -3 -9
-6 9 26 5 -4 -3 -3 -9
-6 9 25 5 -4 -3 -3 -8
-6 9 24 5 -4 -3 -3 -8
-6 9 23 5 -4 -3 -3 -7
-5 8 21 4 -4 -4 -3 -6
-4 9 15 3 -4 -4 -3 -6
-3 10 10 1 -5 -4 -3 -6
0 12 4 0 -5 -3 -2 -6
1 13 -2 -3 -6 -3 -2 -6
3 15 -8 -5 -7 -2 0 -6
4 15 -9 -5 -7 -2 0 -6
6 16 -10 -6 -7 -2 0 -6
8 16 -11 -7 -7 -2 0 -5
10 17 -12 -8 -7 -2 0 -5
12 18 -14 -9 -8 -3 0 -4
10 17 -12 -8 -7 -2 1 -3
7 16 -10 -7 -6 0 2 -2
4 15 -8 -6 -5 1 3 0
2 14 -6 -5 -4 2 4 1
-2 12 -4 -4 -3 4 5 2
-2 11 -5 -4 -3 4 5 2
-2 10 -7 -5 -3 3 5 2
-2 9 -8 -5 -4 3 5 1
-2 8 -10 -6 -4 2 5 1
-2 6 -12 -7 -5 1 4 0
-2 5 -12 -7 -6 0 3 -2
-2 3 -12 -8 -7 -2 2 -3
-2 2 -12 -9 -9 -3 0 -4
-2 0 -12 -10 -10 -4 -2 -5
-3 -3 -13 -11 -12 -5 -4 -6
-3 -4 -12 -11 -12 -5 -4 -6
-4 -5 -11 -11 -12 -5 -4 -6
-5 -7 -9 -11 -12 -5 -5 -7
-6 -8 -8 -11 -12 -5 -5 -7
-7 -10 -6 -10 -11 -6 -6 -8
-7 -12 -6 -11 -12 -7 -8 -9
-7 -14 -6 -12 -14 -9 -10 -11
-7 -16 -6 -13 -15 -10 -12 -13
-7 -18 -6 -14 -17 -12 -14 -15
-6 -20 -7 -16 -19 -14 -17 -17
-6 -20 -7 -16 -19 -14 -17 -17
-6 -20 -7 -16 -19 -15 -17 -17
-5 -20 -7 -17 -19 -15 -17 -18
-5 -20 -7 -17 -19 -16 -17 -18
-4 -20 -8 -18 -20 -17 -16 -19
-5 -20 -8 -18 -20 -17 -16 -19
-7 -21 -7 -18 -20 -16 -16 -19
-8 -21 -7 -17 -20 -15 -15 -19
-10 -22 -6 -17 -20 -14 -15 -19
-12 -23 -5 -16 -20 -13 -14 -19
-12 -23 -5 -15 -19 -13 -14 -19
-12 -23 -5 -14 -18 -12 -14 -19
-11 -23 -5 -12 -17 -11 -13 -19
-11 -23 -5 -11 -16 -10 -13 -19
-10 -22 -5 -9 -14 -9 -12 -19
-9 -21 0 0 -4 -3 -9 -17
-8 -20 4 9 6 5 -5 -15
-7 -19 8 17 16 11 0 -13
-6 -18 13 26 25 17 3 -11
-4 -16 18 36 36 25 8 -8
-3 -7 42 81 73 56 31 10
0 3 64 126 110 87 55 26
1 13 88 171 147 117 78 44
3 22 111 216 184 148 103 60
5 31 134 256 218 178 127 77
10 36 152 178 176 198 156 101
15 42 170 100 133 219 186 126
20 47 187 22 90 238 217 149
26 52 204 -56 47 259 246 174
31 57 218 -134 4 277 275 197
30 59 131 -212 -56 250 258 191
29 61 43 -289 -116 222 241 184
27 63 -45 -366 -176 194 224 178
26 65 -133 -444 -235 167 206 172
24 68 -217 -519 -293 138 188 163
18 58 -227 -502 -300 87 140 130
11 48 -238 -483 -308 35 92 96
5 37 -248 -466 -315 -17 44 62
-2 27 -260 -448 -322 -68 -5 27
-9 17 -269 -430 -330 -118 -52 -6
-11 14 -242 -389 -305 -122 -61 -16
-13 10 -216 -348 -279 -128 -71 -25
-15 7 -188 -308 -254 -133 -80 -35
-17 3 -161 -267 -228 -138 -90 -46
-19 -2 -135 -226 -203 -143 -100 -56
-19 -4 -116 -196 -177 -123 -90 -52
-19 -6 -97 -165 -150 -105 -78 -48
-19 -9 -78 -135 -124 -86 -67 -43
-19 -11 -60 -104 -98 -67 -57 -38
-19 -14 -41 -74 -72 -48 -46 -33
-18 -14 -35 -63 -64 -43 -41 -31
-17 -15 -28 -51 -55 -37 -37 -29
-16 -16 -22 -38 -47 -31 -33 -26
-15 -17 -15 -27 -38 -26 -29 -24
-14 -18 -8 -15 -29 -20 -24 -21
-13 -18 -7 -13 -27 -20 -24 -21
-12 -18 -6 -10 -25 -20 -24 -21
-10 -18 -4 -8 -22 -20 -24 -22
-9 -18 -3 -5 -20 -20 -24 -22
-7 -18 0 -2 -17 -21 -23 -23
-7 -18 1 0 -17 -20 -23 -23
-7 -18 2 1 -16 -19 -22 -22
-7 -18 4 3 -15 -18 -22 -22
-7 -18 5 4 -14 -17 -21 -21
-6 -19 7 6 -13 -16 -20 -20
-6 -19 7 6 -13 -17 -20 -20
-6 -19 7 7 -13 -18 -20 -20
-5 -19 7 8 -13 -19 -21 -20
-5 -19 7 9 -13 -20 -21 -20
-4 -19 6 10 -14 -21 -22 -21
-4 -19 7 10 -14 -20 -21 -21
-5 -19 8 11 -13 -19 -20 -20
-5 -19 9 12 -12 -17 -19 -19
-6 -19 10 13 -11 -16 -18 -18
-7 -20 12 14 -10 -14 -17 -17
-7 -20 12 15 -10 -14 -17 -17
-7 -20 12 16 -10 -14 -17 -17
-8 -20 12 17 -9 -14 -17 -17
-8 -20 12 18 -9 -14 -17 -17
-9 -20 13 19 -8 -14 -17 -17
-8 -20 13 19 -8 -14 -17 -17
-7 -20 13 19 -8 -14 -17 -17
-6 -19 13 19 -9 -14 -17 -17
-5 -19 13 19 -9 -14 -17 -17
-4 -18 13 19 -10 -13 -16 -18
-4 -18 13 20 -10 -13 -16 -18
-4 -18 13 21 -9 -13 -16 -18
-4 -18 13 22 -9 -13 -16 -18
-4 -18 13 23 -8 -13 -16 -18
-4 -18 13 24 -8 -13 -16 -18
-4 -18 14 25 -7 -14 -16 -19
-3 -18 14 25 -7 -14 -17 -19
0 -19 14 25 -8 -14 -18 -20
1 -19 14 25 -8 -14 -19 -20
2 -19 14 25 -8 -14 -20 -20
1 -20 14 26 -8 -14 -20 -20
-3 -19 16 28 -6 -13 -18 -19
-5 -19 18 30 -4 -13 -17 -17
-8 -18 20 32 -2 -12 -15 -16
-10 -18 21 34 0 -12 -14 -15
-11 -17 22 35 1 -11 -13 -14
-11 -17 22 35 1 -11 -12 -14
-10 -17 22 36 1 -11 -11 -14
-10 -17 22 36 1 -11 -10 -14
-10 -17 22 36 1 -11 -9 -14
-9 -17 21 37 0 -10 -8 -14
-8 -17 21 38 1 -10 -8 -14
-8 -17 21 38 2 -10 -8 -14
-7 -17 21 39 3 -10 -8 -14
-7 -17 21 39 3 -10 -8 -14
-5 -18 21 40 4 -10 -7 -13
-3 -18 21 42 4 -10 -7 -13
0 -18 21 43 3 -10 -8 -13
2 -18 21 44 3 -10 -8 -13
4 -18 21 45 3 -10 -8 -13
5 -17 20 48 3 -10 -9 -14
5 -16 20 50 5 -9 -8 -13
4 -15 21 53 7 -8 -7 -12
4 -14 21 55 9 -7 -6 -11
4 -13 21 57 11 -6 -5 -10
2 -12 22 58 12 -5 -4 -9
1 -13 23 59 12 -4 -4 -9
-2 -13 23 60 13 -3 -3 -8
-3 -14 24 61 13 -2 -3 -8
-4 -14 24 62 13 -2 -3 -8
-4 -15 25 64 15 0 -2 -7
-3 -14 25 66 16 0 0 -7
0 -13 26 68 17 0 0 -6
1 -12 26 70 18 0 1 -6
2 -12 26 71 19 0 1 -6
4 -11 27 72 20 1 2 -5
5 -11 26 72 20 2 2 -5
6 -11 26 72 21 2 3 -4
7 -11 25 72 21 3 3 -4
8 -11 25 72 21 3 3 -4
8 -11 24 72 23 4 4 -3
7 -10 25 73 24 5 5 -2
5 -10 25 74 26 6 6 0
4 -9 26 75 27 7 7 1
3 -9 26 76 28 7 8 1
3 -8 27 77 29 8 9 2
5 -8 26 77 29 8 10 2
6 -8 25 77 29 9 10 2
8 -8 24 77 29 9 11 2
9 -8 23 77 29 9 11 2
9 -7 22 77 30 10 12 3
7 -7 22 77 31 11 13 4
6 -7 21 77 32 12 13 5
4 -7 21 77 33 13 14 6
3 -7 21 77 34 13 14 7
3 -5 20 77 34 14 15 8
5 -4 19 75 33 14 15 8
7 -3 18 74 32 14 14 8
9 -2 17 72 31 14 14 8
10 0 17 71 30 14 14 8
11 2 16 70 29 14 13 9
12 3 15 69 29 14 13 9
13 4 14 68 29 14 13 9
14 5 13 67 29 14 13 9
15 6 12 67 29 14 13 9
15 7 11 65 29 13 14 10
13 7 11 63 28 13 14 10
11 6 10 62 27 13 15 11
9 6 10 60 26 13 15 11
7 6 10 59 25 13 15 11
6 5 9 57 24 14 16 12
6 4 8 56 23 13 15 11
6 4 7 55 22 13 14 11
6 3 6 54 21 12 13 10
6 3 5 53 20 12 13 10
6 2 4 51 18 11 12 9
6 3 4 49 17 10 11 9
6 4 3 47 16 9 11 9
6 5 3 45 15 8 10 9
6 5 3 44 14 8 10 9
6 6 2 40 12 6 8 9
7 6 1 37 10 4 6 8
8 6 0 35 9 2 5 7
9 6 -2 32 7 0 3 6
9 6 -2 30 6 -3 2 5
10 5 -3 28 4 -4 1 4
10 4 -4 26 2 -5 0 3
10 4 -4 25 1 -6 0 3
10 3 -5 23 -2 -7 -2 2
10 3 -5 22 -3 -7 -2 2
10 2 -6 21 -4 -9 -3 1
10 2 -6 21 -4 -10 -4 1
9 2 -5 21 -4 -11 -5 2
9 2 -5 21 -4 -12 -6 2
9 2 -5 21 -4 -13 -6 2
8 1 -4 22 -5 -14 -7 3
7 1 -4 21 -6 -14 -8 3
7 1 -4 21 -7 -15 -9 2
6 1 -4 20 -8 -15 -10 2
6 1 -4 20 -9 -15 -10 2
5 0 -4 19 -10 -16 -11 1
5 0 -4 19 -10 -17 -11 1
5 1 -4 19 -10 -18 -12 0
5 1 -4 19 -10 -19 -12 0
5 1 -4 19 -10 -20 -12 0
5 2 -5 18 -11 -21 -13 -2
7 2 -5 18 -11 -21 -13 -2
9 2 -6 18 -11 -21 -13 -2
11 2 -6 18 -11 -21 -13 -2
13 2 -6 18 -11 -21 -13 -2
14 2 -7 18 -11 -21 -13 -2
15 2 -7 19 -11 -21 -13 -2
16 3 -6 19 -11 -21 -13 -2
17 3 -6 20 -11 -21 -13 -2
17 3 -6 20 -11 -21 -13 -2
16 4 -5 22 -10 -21 -13 -2
14 4 -5 23 -9 -20 -12 0
11 3 -4 25 -8 -19 -11 1
8 3 -4 26 -7 -18 -10 2
6 3 -4 27 -6 -17 -9 3
5 2 -3 28 -4 -16 -7 4
4 2 -2 29 -3 -15 -6 5
4 2 0 30 -2 -14 -5 5
3 2 1 31 0 -13 -4 6
3 2 2 31 1 -12 -3 6
2 3 3 31 2 -11 -2 7
2 3 3 30 1 -10 -2 7
3 3 3 29 1 -10 -2 6
3 3 3 28 0 -9 -2 6
3 3 3 27 0 -9 -2 6
4 4 2 26 -2 -8 0 5
4 3 2 25 -2 -8 0 5
4 2 2 25 -3 -8 0 5
4 1 2 24 -3 -8 0 5
4 1 2 24 -3 -8 0 5
4 0 1 22 -5 -9 0 4
5 0 1 21 -7 -9 -2 3
5 0 1 19 -8 -10 -2 2
6 0 1 18 -10 -10 -3 1
6 0 1 17 -11 -10 -3 1
7 -2 0 16 -12 -11 -4 0
6 -2 1 15 -12 -11 -5 0
5 -3 1 15 -12 -12 -6 0
4 -3 2 14 -12 -12 -7 0
4 -3 2 14 -12 -12 -7 0
3 -4 3 13 -13 -13 -8 -2
3 -5 3 13 -14 -14 -8 -3
4 -5 3 12 -15 -15 -9 -4
4 -6 3 12 -16 -16 -9 -5
4 -6 3 12 -17 -17 -9 -5
5 -7 2 11 -18 -18 -10 -6
5 -7 2 11 -18 -18 -10 -6
4 -6 3 12 -17 -18 -10 -6
4 -6 3 12 -17 -18 -10 -6
4 -6 3 12 -17 -18 -10 -6
3 -5 4 13 -16 -19 -11 -7
3 -5 4 13 -17 -20 -12 -8
3 -6 4 12 -17 -20 -13 -9
3 -6 4 12 -18 -21 -14 -10
3 -6 4 12 -18 -21 -15 -11
4 -7 3 11 -19 -22 -16 -12
4 -7 3 12 -19 -22 -16 -12
4 -7 2 13 -18 -22 -16 -12
4 -7 2 14 -18 -22 -16 -12
4 -7 2 15 -18 -22 -16 -12
1 -6 2 16 -17 -20 -15 -10
-2 -6 3 17 -16 -19 -14 -9
-5 -6 4 18 -15 -17 -13 -8
-8 -6 5 19 -14 -16 -12 -7
-10 -6 6 20 -13 -15 -12 -6
-10 -6 7 21 -12 -14 -11 -5
-9 -6 7 22 -11 -14 -10 -5
-8 -5 7 22 -11 -14 -10 -5
-7 -5 7 23 -10 -14 -9 -5
-6 -5 7 23 -10 -14 -9 -5
-4 -4 6 24 -9 -13 -8 -5
-3 -4 5 24 -9 -12 -7 -4
-2 -4 5 23 -9 -11 -7 -4
0 -4 4 23 -9 -10 -6 -3
1 -4 4 23 -9 -10 -6 -3
2 -4 3 22 -8 -9 -5 -2
3 -4 2 22 -7 -9 -5 -2
4 -3 2 22 -7 -9 -5 -2
5 -3 1 22 -6 -9 -5 -2
5 -3 1 22 -6 -9 -5 -2
5 -2 0 21 -5 -7 -4 0
4 -2 1 21 -4 -5 -2 1
3 0 1 21 -3 -3 1 2
1 0 2 21 -2 0 3 4
0 0 2 21 -2 2 5 5
-2 1 3 22 0 3 6 6
0 2 3 22 0 3 6 6
1 2 3 22 1 3 6 7
2 3 3 22 1 3 6 7
2 3 3 22 1 3 6 7
3 4 2 22 2 4 7 8
4 3 1 21 1 4 7 8
5 2 1 20 1 4 7 7
6 1 0 19 0 4 7 7
6 1 0 19 0 4 7 7
7 0 -2 18 -2 4 7 6
8 1 -2 17 -2 4 7 6
8 2 -2 17 -2 4 8 7
9 3 -2 16 -2 4 8 7
9 3 -2 16 -2 4 8 7
10 4 -2 15 -3 5 9 8
9 4 -2 14 -4 5 9 8
8 4 -2 14 -5 5 9 8
7 4 -2 13 -6 5 9 8
7 4 -2 13 -6 5 9 8
6 3 -3 12 -7 5 8 8
7 3 -3 11 -8 4 8 7
8 3 -4 10 -8 4 8 7
9 3 -4 9 -9 3 8 6
9 3 -4 9 -9 3 8 6
9 2 -5 8 -10 2 7 5
8 2 -3 8 -10 3 7 6
6 2 -2 8 -10 3 8 6
4 2 0 8 -10 4 8 7
3 2 1 8 -10 4 8 7
2 3 2 9 -9 5 9 8
2 3 1 8 -10 4 8 7
2 2 1 7 -11 3 7 6
2 2 0 6 -12 2 6 5
2 2 0 5 -13 1 5 4
2 1 -2 4 -14 0 4 3
2 1 -2 3 -15 0 3 3
2 0 -2 2 -16 -2 3 2
2 0 -2 1 -17 -2 2 2
2 0 -2 1 -18 -2 2 2
2 -2 -2 0 -19 -3 1 1
2 -2 -2 0 -19 -3 1 1
2 -3 -2 1 -19 -3 1 1
2 -3 -2 1 -19 -3 1 1
2 -3 -2 1 -19 -3 1 1
3 -4 0 1 -20 -4 1 1
6 -3 0 0 -22 -5 0 0
8 -3 -2 -2 -23 -5 -2 -2
11 -2 -2 -4 -24 -6 -3 -3
14 -2 -2 -5 -25 -6 -3 -3
13 0 -3 -6 -25 -7 -4 -4
10 0 -3 -5 -24 -7 -4 -4
7 -2 -2 -4 -23 -7 -4 -4
4 -2 -2 -3 -21 -7 -4 -4
1 -2 -2 -3 -20 -7 -4 -4
0 -3 0 -2 -18 -7 -3 -5
0 -3 0 -2 -16 -7 -3 -5
0 -4 1 -2 -14 -7 -3 -4
0 -4 1 -2 -13 -7 -3 -4
0 -4 1 -2 -11 -7 -3 -4
0 -5 2 -3 -10 -6 -2 -3
0 -6 2 -3 -9 -7 -2 -4
0 -6 2 -3 -9 -7 -3 -4
0 -7 2 -3 -8 -8 -3 -5
0 -7 2 -3 -8 -8 -3 -5
0 -8 2 -3 -7 -9 -4 -6
1 -7 2 -3 -7 -9 -4 -6
2 -6 1 -3 -7 -9 -4 -6
3 -5 1 -3 -7 -9 -4 -6
3 -5 1 -3 -7 -9 -4 -6
4 -4 0 -4 -8 -9 -5 -6
4 -4 0 -4 -8 -10 -5 -6
4 -5 0 -4 -8 -11 -5 -7
4 -5 0 -4 -8 -12 -5 -7
4 -5 0 -4 -8 -12 -5 -7
5 -6 0 -5 -9 -13 -6 -8
4 -6 0 -6 -9 -12 -6 -8
3 -6 0 -6 -9 -11 -6 -9
2 -6 0 -7 -9 -10 -6 -9
1 -6 0 -7 -9 -10 -6 -9
0 -7 1 -8 -9 -9 -7 -10
0 -6 1 -8 -9 -9 -7 -10
0 -6 1 -7 -8 -9 -7 -9
0 -5 1 -7 -8 -9 -7 -9
0 -5 1 -7 -8 -9 -7 -9
-2 -4 2 -6 -7 -10 -6 -8
1 -5 2 -7 -8 -10 -6 -8
2 -5 1 -8 -9 -11 -7 -9
3 -6 1 -9 -10 -11 -7 -9
4 -6 1 -9 -10 -11 -7 -9
5 -7 0 -10 -11 -12 -8 -10
4 -7 0 -10 -11 -12 -8 -10
3 -7 0 -10 -11 -12 -9 -10
2 -7 0 -10 -11 -12 -9 -10
2 -7 0 -10 -11 -12 -9 -10
1 -7 1 -10 -11 -12 -10 -11
1 -7 1 -9 -11 -12 -10 -11
2 -7 1 -9 -11 -12 -10 -11
2 -7 1 -8 -11 -12 -10 -11
2 -7 1 -8 -11 -12 -10 -11
3 -8 2 -7 -12 -11 -9 -11
3 -7 2 -6 -12 -11 -9 -11
2 -7 2 -5 -12 -11 -9 -11
2 -6 2 -4 -12 -11 -9 -11
2 -6 2 -4 -12 -11 -9 -11
1 -5 2 -3 -12 -12 -9 -10
1 -5 2 -3 -12 -12 -9 -10
1 -5 2 -4 -12 -11 -8 -10
1 -5 2 -4 -12 -11 -8 -10
1 -5 2 -4 -12 -11 -8 -10
0 -5 3 -5 -11 -10 -7 -10
0 -5 3 -5 -11 -11 -7 -10
1 -5 3 -6 -12 -11 -8 -11
1 -5 3 -6 -12 -12 -8 -11
1 -5 3 -6 -12 -12 -8 -11
2 -5 2 -7 -13 -13 -9 -12
3 -5 2 -7 -13 -12 -8 -12
3 -5 3 -7 -13 -11 -7 -12
4 -5 3 -7 -13 -11 -7 -12
4 -5 3 -7 -13 -10 -6 -12
5 -5 4 -7 -13 -9 -5 -12
5 -5 3 -8 -13 -10 -6 -12
5 -5 3 -8 -13 -11 -7 -12
5 -5 2 -9 -13 -11 -7 -12
5 -5 2 -9 -13 -12 -8 -12
4 -5 1 -10 -14 -13 -9 -12
3 -5 1 -10 -14 -13 -9 -12
3 -5 2 -10 -14 -12 -9 -12
2 -5 2 -10 -14 -12 -9 -12
2 -5 2 -10 -14 -12 -9 -12
1 -6 3 -10 -14 -11 -10 -12
1 -6 3 -10 -14 -11 -10 -12
2 -6 3 -9 -13 -11 -10 -12
2 -6 3 -9 -13 -11 -10 -12
2 -6 3 -9 -13 -11 -10 -12
3 -6 2 -8 -12 -12 -10 -13
3 -6 2 -9 -12 -12 -10 -13
3 -6 2 -9 -13 -12 -9 -13
3 -6 2 -10 -13 -12 -9 -13
3 -6 2 -10 -13 -12 -9 -13
3 -5 2 -11 -14 -11 -8 -13
6 -5 2 -11 -14 -12 -9 -14
9 -5 2 -11 -15 -13 -10 -15
11 -5 2 -11 -15 -14 -11 -15
14 -5 2 -11 -15 -15 -12 -16
12 -4 1 -11 -16 -15 -12 -16
8 -4 2 -10 -14 -14 -11 -15
3 -5 3 -9 -13 -12 -9 -13
-3 -5 3 -7 -12 -11 -8 -12
-7 -5 4 -6 -11 -9 -6 -10
-8 -6 5 -5 -10 -8 -5 -9
-6 -6 4 -6 -11 -9 -6 -10
-4 -5 4 -6 -11 -10 -7 -11
-2 -5 3 -7 -12 -10 -7 -12
1 -5 3 -7 -12 -11 -8 -13
2 -4 2 -8 -13 -12 -9 -14
2 -4 2 -8 -13 -12 -9 -14
3 -4 2 -8 -13 -12 -9 -14
3 -4 2 -8 -13 -12 -9 -14
3 -4 2 -8 -13 -12 -9 -14
4 -3 2 -9 -14 -12 -8 -15
4 -3 2 -9 -14 -12 -8 -15
4 -3 2 -8 -13 -12 -8 -15
4 -3 2 -8 -13 -12 -8 -15
4 -3 2 -8 -13 -12 -8 -15
4 -2 3 -7 -12 -11 -9 -14
6 -2 2 -9 -14 -11 -11 -15
8 -2 1 -10 -15 -12 -12 -16
11 -2 0 -11 -17 -12 -13 -17
13 -2 -2 -12 -18 -12 -14 -18
12 -3 -2 -12 -19 -13 -14 -19
9 -3 1 -11 -17 -12 -12 -17
6 -2 3 -9 -16 -11 -11 -16
3 -2 5 -8 -14 -11 -9 -15
0 -2 7 -6 -13 -10 -7 -14
-2 1 8 -5 -12 -9 -6 -13
1 2 8 -5 -12 -9 -6 -13
2 4 8 -4 -12 -9 -6 -13
3 5 8 -4 -12 -9 -6 -13
4 7 8 -4 -12 -9 -6 -13
5 8 9 -3 -11 -8 -5 -12
6 8 10 -3 -11 -8 -5 -12
6 8 11 -3 -11 -8 -5 -12
7 8 11 -3 -11 -8 -5 -12
7 8 12 -3 -11 -8 -5 -12
8 8 14 -3 -10 -7 -6 -12
8 9 17 -2 -10 -6 -5 -12
8 10 20 0 -9 -5 -5 -12
8 11 22 1 -9 -5 -4 -12
8 12 25 2 -9 -4 -4 -12
9 13 26 3 -8 -3 -3 -12
11 15 27 4 -8 -3 -3 -12
12 16 28 5 -7 -3 -3 -11
14 17 28 5 -7 -3 -3 -11
16 18 29 6 -7 -3 -3 -11
16 18 27 7 -6 -4 -3 -10
13 15 21 6 -6 -3 -2 -9
10 13 15 5 -5 -3 0 -9
7 10 9 4 -5 -2 0 -8
4 7 3 3 -5 -2 1 -8
4 7 1 2 -4 0 2 -7
7 9 -2 2 -4 0 2 -7
10 10 -3 1 -5 0 2 -6
13 12 -5 1 -5 0 2 -6
16 14 -6 1 -5 0 2 -6
17 15 -7 0 -6 0 2 -5
19 17 -7 -2 -6 1 2 -5
20 18 -7 -2 -6 1 2 -5
21 20 -7 -3 -6 2 2 -5
22 21 -7 -3 -6 2 2 -5
22 21 -6 -5 -7 3 3 -5
20 18 -7 -6 -8 2 3 -5
19 16 -8 -8 -8 1 3 -5
17 14 -8 -9 -9 0 3 -5
15 11 -9 -11 -9 -2 3 -5
14 10 -10 -12 -10 -3 3 -6
16 9 -10 -14 -11 -3 2 -7
17 9 -11 -15 -12 -4 1 -8
19 8 -11 -16 -12 -4 1 -8
20 8 -11 -17 -13 -4 0 -9
20 6 -12 -18 -14 -5 -2 -10
17 5 -11 -18 -14 -5 -2 -10
14 3 -10 -17 -13 -5 -2 -10
11 2 -10 -17 -13 -5 -2 -10
8 0 -9 -17 -13 -5 -2 -10
7 -2 -8 -16 -12 -6 -2 -11
6 -2 -7 -16 -12 -6 -2 -11
5 -2 -6 -15 -13 -6 -2 -12
4 -2 -5 -14 -14 -6 -2 -13
3 -2 -4 -14 -14 -6 -2 -13
2 0 -3 -13 -15 -5 -3 -14
3 -3 -3 -13 -15 -7 -5 -15
4 -4 -3 -14 -16 -8 -6 -16
5 -6 -3 -15 -17 -10 -8 -17
6 -7 -3 -15 -17 -11 -9 -18
7 -8 -4 -16 -18 -12 -10 -19
7 -8 -4 -16 -18 -12 -10 -19
8 -8 -4 -16 -19 -12 -10 -20
8 -8 -4 -16 -19 -12 -10 -20
8 -8 -4 -16 -19 -12 -10 -20
9 -8 -5 -15 -20 -12 -10 -21
9 -8 -5 -15 -20 -12 -10 -21
8 -8 -5 -15 -19 -12 -10 -21
7 -8 -5 -15 -19 -12 -10 -21
7 -8 -5 -15 -19 -12 -10 -21
6 -9 -5 -14 -17 -11 -9 -21
6 -9 -3 -13 -15 -10 -8 -21
6 -9 -2 -11 -12 -8 -6 -20
6 -9 1 -10 -10 -6 -5 -19
6 -9 2 -9 -7 -4 -3 -19
6 -7 8 4 5 4 2 -16
6 -3 16 21 22 15 8 -13
7 2 24 39 39 26 13 -9
8 6 32 58 57 37 19 -5
8 10 42 75 74 49 24 -2
13 18 59 109 103 76 49 16
20 28 81 150 138 115 82 39
26 37 104 192 173 153 116 64
33 48 127 234 207 191 149 89
40 58 149 276 242 230 183 113
45 63 151 218 213 248 209 133
48 64 140 101 145 255 229 150
50 66 129 -17 76 262 250 168
53 68 117 -134 9 268 269 185
56 70 106 -251 -60 275 289 202
53 71 54 -325 -113 253 276 197
46 71 -21 -376 -157 211 241 176
38 70 -97 -426 -201 170 206 155
31 70 -173 -476 -244 128 171 134
24 70 -247 -526 -288 87 136 113
19 64 -273 -524 -306 43 97 88
15 55 -269 -488 -306 -4 55 59
10 46 -264 -452 -306 -49 12 30
6 36 -259 -416 -306 -94 -30 2
2 27 -254 -381 -306 -140 -72 -27
-2 22 -233 -343 -287 -149 -87 -39
-5 19 -203 -304 -256 -135 -81 -43
-7 17 -173 -264 -224 -121 -76 -45
-10 14 -142 -225 -192 -107 -72 -48
-13 11 -112 -186 -160 -94 -67 -51
-13 9 -91 -156 -136 -81 -61 -50
-11 7 -76 -132 -115 -70 -54 -46
-9 5 -61 -108 -96 -59 -47 -41
-7 3 -47 -83 -75 -48 -38 -36
-4 0 -31 -60 -55 -36 -31 -32
-3 -2 -23 -46 -44 -29 -27 -30
-2 -2 -19 -37 -38 -26 -25 -28
1 -2 -15 -29 -32 -23 -23 -27
2 -2 -11 -21 -27 -19 -21 -25
3 -2 -7 -14 -22 -16 -18 -24
5 -3 -5 -9 -18 -14 -17 -23
6 -3 -3 -8 -17 -14 -17 -23
8 -4 -2 -6 -15 -14 -17 -23
10 -4 1 -4 -13 -14 -17 -23
12 -4 2 -2 -11 -14 -17 -23
12 -5 4 1 -10 -15 -17 -24
9 -5 5 3 -9 -13 -15 -22
7 -5 7 6 -8 -12 -14 -21
4 -5 9 8 -7 -10 -12 -19
2 -5 11 11 -6 -9 -11 -18
0 -5 12 12 -5 -8 -10 -17
0 -5 12 13 -5 -8 -10 -17
0 -5 13 14 -4 -9 -11 -17
0 -5 13 15 -3 -9 -11 -17
0 -5 13 16 -3 -9 -11 -17
1 -5 14 17 -2 -10 -12 -18
2 -5 14 17 -2 -10 -12 -18
4 -5 14 17 -3 -9 -12 -18
5 -5 14 17 -4 -9 -12 -18
6 -5 14 17 -4 -9 -12 -18
7 -5 14 17 -5 -8 -11 -19
6 -5 14 18 -4 -8 -11 -19
5 -5 15 19 -3 -8 -11 -19
4 -5 16 19 -3 -8 -11 -19
3 -5 16 20 -2 -8 -11 -19
3 -4 17 21 0 -9 -11 -19
5 -4 17 21 0 -9 -11 -19
7 -3 17 22 -2 -8 -11 -19
9 -3 17 23 -2 -7 -11 -19
11 -3 17 23 -2 -7 -11 -19
12 -2 16 24 -3 -6 -10 -20
11 -2 16 24 -2 -6 -10 -20
10 -2 16 25 0 -7 -11 -20
9 -2 16 25 0 -7 -11 -20
8 -2 16 25 1 -7 -11 -20
6 -2 17 27 2 -8 -12 -20
5 -2 17 28 2 -7 -11 -20
3 -3 18 30 2 -5 -10 -19
1 -4 18 32 2 -4 -10 -19
-2 -4 18 34 2 -3 -9 -19
-3 -5 19 35 3 -2 -8 -18
0 -5 19 35 4 -3 -8 -18
1 -4 19 36 5 -4 -9 -17
3 -3 19 37 6 -4 -10 -17
4 -3 19 37 7 -5 -10 -17
5 -2 20 38 8 -6 -11 -16
6 -2 20 38 8 -6 -11 -16
7 -2 20 39 8 -6 -10 -16
7 -2 20 39 8 -6 -10 -16
8 -2 20 39 8 -6 -10 -16
9 -3 20 42 8 -5 -9 -17
8 -2 21 44 10 -4 -8 -16
7 0 23 46 12 -2 -7 -14
6 0 24 48 14 0 -6 -13
5 1 25 51 16 1 -5 -12
4 2 26 52 17 2 -4 -11
5 1 26 52 17 2 -4 -11
6 0 25 52 17 2 -4 -11
6 0 24 52 17 2 -4 -11
7 -2 24 52 17 2 -4 -11
8 -3 23 51 16 2 -5 -11
8 -2 23 52 17 2 -5 -11
8 0 23 54 18 2 -5 -11
8 0 23 55 19 2 -5 -11
8 1 23 56 20 2 -5 -11
7 2 23 58 21 1 -6 -11
8 2 23 59 21 2 -5 -10
9 2 23 61 22 4 -4 -9
9 2 23 63 22 5 -4 -9
10 2 23 65 22 6 -3 -8
11 1 23 66 24 7 -2 -7
11 1 23 68 26 7 0 -7
11 1 24 70 28 8 1 -7
11 1 25 71 30 9 1 -7
11 1 25 73 32 9 2 -7
10 2 26 74 33 10 3 -6
10 2 26 74 33 11 4 -5
10 3 26 75 34 12 5 -4
10 4 26 75 35 13 6 -3
10 4 26 75 35 14 7 -2
10 5 25 76 36 15 8 0
10 6 25 77 36 15 8 0
10 7 25 78 37 15 9 1
10 7 25 78 38 15 9 2
10 8 25 79 38 15 9 2
10 9 24 80 39 16 10 3
12 9 23 79 39 16 11 3
13 10 22 78 39 17 12 4
14 11 22 78 39 18 12 5
16 11 21 77 39 18 13 5
17 12 20 76 38 19 14 6
17 12 19 76 39 20 15 7
18 13 18 76 42 21 16 8
18 14 18 76 43 21 16 8
18 14 17 76 44 22 17 9
19 15 16 77 45 23 18 10
18 15 15 75 45 23 18 10
17 14 14 74 44 23 18 10
16 14 13 73 43 23 18 10
15 14 12 71 43 23 18 10
14 13 11 70 42 24 17 11
15 13 11 69 42 24 17 11
17 14 10 68 42 23 16 11
18 14 9 68 42 23 16 11
19 14 9 67 42 23 16 11
20 15 8 65 42 22 15 11
20 15 8 63 40 22 15 11
19 16 7 61 39 23 16 11
18 16 7 59 39 23 16 11
18 16 7 57 38 23 16 11
17 17 6 55 37 24 17 12
18 17 5 53 35 23 17 12
19 17 4 50 34 22 16 12
20 17 4 48 33 22 15 12
21 17 3 46 31 21 15 12
22 17 2 44 30 20 14 11
20 16 2 43 29 19 14 11
19 15 1 40 28 18 13 11
18 15 1 39 28 18 12 11
16 14 1 38 27 17 12 11
15 13 0 37 26 16 11 12
14 13 0 35 25 15 10 11
13 13 0 34 24 13 9 10
12 13 0 33 23 12 9 10
11 13 0 31 22 11 8 9
10 14 -2 30 21 10 7 8
10 14 -2 29 19 8 6 8
11 13 -3 27 17 7 5 7
12 13 -4 26 15 6 5 6
12 13 -4 25 13 4 4 6
13 12 -5 24 12 3 3 5
13 12 -5 24 12 2 1 5
14 12 -6 24 12 0 -2 4
14 12 -6 24 12 -2 -3 3
14 12 -6 24 12 -3 -5 3
15 12 -7 23 11 -4 -6 2
15 12 -7 23 10 -4 -6 2
14 11 -7 23 9 -5 -7 2
13 10 -7 23 9 -6 -7 2
13 10 -7 23 8 -6 -7 2
12 9 -8 22 7 -7 -8 1
12 9 -8 22 7 -7 -8 1
13 9 -8 22 8 -7 -8 1
14 9 -8 22 9 -8 -8 1
14 9 -8 22 9 -8 -8 1
15 10 -8 22 10 -9 -8 1
13 10 -8 23 10 -9 -8 1
12 10 -8 24 10 -8 -8 1
10 10 -7 26 11 -7 -7 2
8 10 -7 27 11 -7 -7 2
7 10 -6 28 12 -6 -6 3
7 10 -6 28 13 -6 -6 3
7 10 -5 28 14 -6 -6 3
8 11 -4 29 16 -6 -5 3
8 11 -4 29 17 -6 -5 3
9 12 -3 30 18 -5 -4 4
9 12 -3 30 18 -4 -4 4
9 12 -3 30 18 -3 -3 4
9 12 -3 30 18 -2 -2 5
9 12 -3 30 18 0 -2 5
10 13 -2 31 19 1 0 6
10 13 -2 31 19 1 0 6
10 12 -2 31 19 1 0 6
9 11 0 31 20 2 1 6
9 11 0 31 20 2 1 6
8 10 1 31 21 3 2 6
9 10 1 29 20 3 2 6
9 10 0 28 19 3 2 6
10 10 -2 27 17 3 2 6
11 10 -2 25 16 3 2 6
12 9 -3 24 15 4 3 5
12 9 -3 22 14 3 2 4
12 8 -3 20 14 3 2 3
13 7 -3 18 13 2 1 1
13 7 -3 16 12 1 0 0
13 6 -3 14 11 0 -2 -2
10 6 0 14 11 0 -2 0
7 6 1 14 11 1 -2 1
3 6 3 15 11 2 0 2
0 6 5 15 11 2 0 3
-3 6 6 16 10 3 1 4
-3 6 6 14 9 1 -2 2
-3 5 6 13 8 0 -3 1
-2 4 5 11 6 -2 -5 -2
-2 4 5 9 5 -4 -7 -4
0 3 4 8 4 -5 -8 -5
0 2 4 8 3 -5 -8 -5
0 1 4 8 3 -5 -8 -5
0 0 4 8 2 -6 -8 -6
0 -2 4 8 1 -6 -8 -6
-2 -3 4 7 0 -7 -8 -7
-2 -3 4 8 0 -7 -8 -7
-2 -3 4 8 0 -8 -9 -7
-2 -3 4 9 1 -9 -10 -7
-2 -3 4 10 1 -9 -10 -7
-2 -2 5 11 2 -10 -11 -8
-2 -2 5 11 2 -10 -11 -8
-2 -2 5 12 1 -10 -11 -8
-2 -3 4 13 0 -10 -11 -9
-2 -3 4 13 0 -10 -11 -9
-2 -4 3 14 -2 -9 -12 -10
1 -4 3 14 -2 -9 -12 -10
3 -4 3 14 -2 -9 -13 -11
5 -4 3 14 0 -10 -14 -12
7 -4 3 14 0 -10 -14 -12
9 -3 3 14 1 -11 -15 -13
7 -3 3 15 1 -9 -13 -11
5 -3 3 15 2 -8 -11 -10
3 -2 3 16 3 -7 -9 -9
1 -2 3 17 3 -5 -8 -7
-2 0 4 18 4 -4 -6 -6
-4 0 4 18 6 -4 -5 -6
-5 0 5 18 8 -3 -5 -5
-6 1 6 19 10 -2 -4 -4
-8 1 6 19 11 -2 -3 -4
-9 2 7 20 13 0 -2 -3
-8 2 6 20 13 1 -2 -3
-8 2 6 20 13 1 -2 -3
-7 2 5 20 13 2 -2 -2
-6 2 4 20 13 3 -2 -2
-5 1 3 19 12 4 0 0
-4 1 3 19 13 5 0 0
-3 1 3 19 14 5 1 0
-2 1 3 19 15 6 2 0
0 1 3 19 16 7 2 0
2 0 2 19 17 8 3 1
4 1 2 19 17 8 3 1
7 2 1 19 17 8 3 1
9 3 0 19 16 9 4 1
12 4 0 19 16 9 4 1
13 5 -2 18 15 10 5 1
10 5 0 18 17 11 6 2
7 5 0 18 18 13 8 4
4 5 1 19 20 14 9 5
0 5 2 19 22 16 11 7
-3 5 3 20 23 17 12 8
-3 5 3 19 23 17 12 8
-3 5 2 19 22 17 12 8
-2 5 1 18 21 18 13 9
-2 5 1 17 21 18 13 9
0 5 0 16 20 19 14 10
0 5 0 16 20 19 14 10
0 5 0 16 20 19 14 10
0 5 0 15 20 18 14 10
0 5 0 15 20 18 14 10
-2 4 -2 14 19 17 13 9
0 4 -3 12 18 17 13 9
1 4 -3 11 17 16 13 9
3 3 -4 9 15 15 12 8
4 3 -5 7 14 15 12 8
5 2 -6 6 13 14 11 7
4 2 -5 6 13 14 11 7
3 2 -5 6 13 14 11 7
1 2 -4 7 13 14 11 7
0 2 -3 7 13 14 11 7
-2 3 -2 8 14 15 11 7
-2 3 -2 8 13 15 11 7
0 3 -2 8 12 14 11 7
1 3 -3 7 10 13 11 7
1 3 -3 7 9 13 11 7
2 3 -4 6 8 12 10 7
2 2 -4 6 8 12 9 7
1 2 -4 6 8 12 9 6
0 1 -4 5 8 11 8 5
0 0 -4 5 8 11 7 5
-2 -2 -3 4 7 10 6 4
-2 -2 -3 4 6 10 6 4
-3 -2 -3 3 5 9 6 4
-4 -3 -3 2 4 8 5 3
-4 -3 -3 2 3 8 5 3
-5 -4 -4 1 2 7 4 2
-5 -4 -4 1 2 7 4 2
-5 -4 -4 0 2 7 4 1
-4 -4 -4 -2 2 6 3 0
-4 -4 -4 -2 2 6 3 0
-3 -3 -5 -3 2 5 2 -2
-2 -3 -5 -3 1 5 2 -2
-2 -4 -5 -4 0 5 1 -3
0 -5 -5 -5 -3 4 0 -4
1 -5 -5 -5 -4 4 0 -4
2 -6 -5 -6 -5 3 -2 -5
2 -6 -5 -6 -5 3 -2 -5
2 -6 -4 -6 -4 3 0 -5
1 -5 -3 -5 -3 3 1 -4
1 -5 -3 -5 -3 3 1 -4
0 -4 -2 -4 -2 4 2 -3
-2 -4 -2 -4 -2 4 2 -3
-3 -4 -2 -4 -3 4 2 -3
-4 -4 -3 -5 -4 4 2 -3
-5 -4 -3 -5 -4 4 2 -3
-6 -5 -4 -6 -5 5 1 -2
-7 -6 -4 -6 -5 5 1 -2
-7 -7 -4 -6 -5 4 1 -3
-8 -8 -4 -6 -5 3 0 -4
-9 -9 -4 -6 -5 3 0 -4
-10 -10 -5 -6 -5 2 -2 -5
-9 -10 -5 -6 -5 2 -2 -5
-9 -10 -5 -7 -5 2 -2 -5
-8 -10 -5 -8 -6 2 -2 -5
-7 -10 -5 -8 -6 2 -2 -5
-6 -9 -6 -9 -7 2 0 -5
-4 -9 -6 -9 -7 2 -2 -6
-3 -9 -6 -9 -7 1 -2 -6
0 -9 -6 -10 -7 0 -3 -7
1 -9 -6 -10 -7 0 -4 -8
3 -9 -6 -11 -7 -2 -5 -9
0 -9 -5 -10 -7 -2 -5 -8
-4 -9 -5 -9 -6 -2 -4 -7
-6 -9 -4 -7 -5 0 -3 -6
-9 -9 -3 -6 -5 0 -3 -5
-11 -10 -2 -5 -4 1 -2 -4
-11 -10 -2 -5 -4 1 -2 -4
-11 -10 -2 -6 -5 1 -2 -5
-11 -10 -3 -7 -6 1 -2 -6
-11 -10 -3 -7 -6 1 -2 -6
-11 -11 -4 -8 -7 2 -3 -7
-11 -11 -4 -8 -7 2 -3 -7
-11 -11 -4 -8 -7 2 -3 -7
-10 -11 -4 -8 -7 2 -3 -7
-10 -11 -4 -8 -7 2 -3 -7
-9 -10 -5 -8 -8 1 -3 -7
-9 -10 -5 -8 -8 1 -3 -7
-9 -10 -5 -8 -8 0 -3 -7
-10 -10 -5 -8 -8 -2 -3 -7
-10 -10 -5 -8 -8 -2 -3 -7
-11 -11 -5 -8 -7 -3 -4 -7
-11 -11 -5 -8 -7 -3 -4 -7
-10 -11 -5 -8 -7 -3 -4 -7
-9 -11 -5 -8 -7 -3 -4 -8
-9 -11 -5 -8 -7 -3 -4 -8
-8 -11 -5 -9 -8 -2 -4 -9
-7 -11 -5 -9 -8 -2 -4 -9
-6 -11 -5 -9 -8 -2 -4 -9
-4 -11 -5 -10 -8 -2 -4 -9
-3 -11 -5 -10 -8 -2 -4 -9
-2 -11 -6 -11 -8 -3 -5 -9
-2 -11 -6 -11 -8 -3 -5 -9
-2 -11 -6 -11 -8 -3 -5 -10
-2 -12 -6 -12 -9 -4 -5 -11
-2 -12 -6 -12 -9 -4 -5 -11
0 -13 -7 -13 -10 -5 -6 -12
-4 -13 -7 -13 -9 -4 -5 -11
-7 -13 -6 -12 -9 -4 -5 -10
-9 -13 -5 -11 -8 -3 -4 -9
-12 -13 -5 -11 -7 -2 -3 -8
-14 -14 -4 -10 -6 0 -2 -7
-14 -13 -4 -10 -6 0 -2 -7
-14 -13 -4 -10 -6 1 -2 -7
-14 -12 -3 -9 -6 1 -2 -7
-14 -11 -3 -9 -6 2 -2 -7
-14 -10 -2 -8 -7 3 -2 -6
-13 -10 -2 -8 -7 3 -2 -6
-12 -10 -2 -8 -7 2 -2 -6
-11 -11 -2 -8 -7 2 -2 -6
-10 -11 -2 -8 -7 1 -2 -6
-9 -12 -3 -9 -8 0 -3 -7
-9 -12 -3 -9 -8 0 -3 -7
-9 -12 -4 -9 -8 0 -3 -7
-8 -12 -4 -9 -9 0 -3 -7
-8 -12 -5 -9 -9 0 -3 -7
-7 -11 -6 -10 -10 -2 -4 -8
-7 -11 -6 -10 -10 -2 -4 -8
-7 -11 -6 -10 -10 -2 -4 -8
-7 -11 -5 -9 -10 -2 -4 -8
-7 -11 -5 -9 -10 -2 -4 -8
-6 -10 -4 -8 -9 -3 -5 -9
-6 -10 -4 -8 -9 -3 -5 -9
-6 -10 -4 -9 -9 -3 -5 -9
-6 -10 -4 -9 -9 -3 -5 -9
-6 -10 -4 -10 -9 -3 -5 -9
-6 -10 -3 -11 -10 -4 -6 -9
-7 -10 -3 -11 -10 -4 -6 -9
-8 -11 -3 -11 -10 -4 -6 -9
-9 -11 -3 -10 -10 -4 -6 -9
-10 -12 -3 -10 -10 -4 -6 -9
-11 -13 -3 -9 -10 -5 -7 -10
-11 -13 -3 -9 -10 -5 -7 -10
-11 -13 -3 -9 -10 -5 -7 -10
-10 -13 -3 -10 -11 -5 -8 -10
-10 -13 -3 -10 -11 -5 -8 -10
-9 -12 -4 -11 -12 -6 -9 -10
-9 -12 -4 -11 -12 -6 -9 -10
-8 -12 -4 -11 -12 -6 -9 -10
-8 -11 -4 -11 -12 -6 -9 -10
-7 -11 -4 -11 -12 -6 -9 -10
-6 -10 -4 -10 -12 -6 -8 -9
-6 -10 -4 -10 -12 -6 -8 -9
-6 -10 -4 -10 -12 -6 -7 -9
-7 -9 -3 -10 -12 -5 -7 -8
-7 -9 -3 -10 -12 -5 -6 -8
-8 -8 -2 -10 -11 -4 -5 -7
-8 -8 -2 -10 -11 -4 -6 -7
-8 -9 -2 -10 -11 -4 -7 -8
-8 -9 -2 -10 -12 -5 -8 -8
-8 -10 -2 -10 -12 -5 -10 -9
-7 -11 -3 -10 -13 -6 -11 -10
-7 -11 -3 -10 -13 -6 -11 -10
-7 -11 -3 -10 -13 -6 -10 -10
-7 -11 -3 -10 -13 -6 -10 -9
-7 -11 -3 -10 -13 -6 -9 -9
-7 -10 -2 -11 -13 -6 -8 -8
-6 -10 -2 -11 -13 -6 -8 -8
-5 -10 -2 -11 -13 -6 -9 -8
-4 -10 -2 -11 -13 -7 -9 -9
-3 -10 -2 -11 -13 -7 -10 -9
-2 -9 0 -12 -13 -8 -11 -10
-3 -9 0 -12 -13 -8 -11 -10
-4 -9 0 -12 -13 -8 -11 -10
-5 -8 0 -12 -13 -8 -11 -10
-7 -8 0 -12 -13 -8 -11 -10
-8 -7 -2 -12 -14 -8 -11 -10
-9 -7 -2 -11 -14 -8 -11 -10
-9 -7 0 -10 -14 -8 -11 -10
-10 -7 0 -9 -13 -7 -11 -9
-11 -7 1 -8 -13 -7 -11 -9
-12 -7 2 -7 -12 -6 -11 -8
-12 -7 2 -7 -12 -6 -11 -8
-12 -7 2 -8 -12 -6 -11 -8
-13 -8 2 -8 -13 -6 -11 -8
-13 -8 2 -9 -13 -6 -11 -8
-14 -9 1 -10 -14 -7 -12 -8
-14 -9 1 -9 -14 -7 -12 -8
-13 -9 1 -9 -14 -7 -12 -8
-13 -9 1 -8 -13 -7 -12 -9
-12 -9 1 -7 -13 -7 -12 -9
-11 -8 0 -6 -12 -7 -11 -10
-10 -8 0 -6 -12 -7 -11 -10
-10 -8 0 -6 -12 -7 -11 -10
-9 -8 0 -7 -12 -7 -10 -10
-8 -8 0 -7 -12 -7 -10 -10
-7 -8 0 -8 -13 -7 -9 -9
-7 -8 1 -8 -13 -7 -9 -9
-7 -8 1 -7 -13 -7 -9 -9
-7 -8 2 -7 -13 -7 -9 -9
-7 -8 3 -6 -13 -7 -9 -9
-7 -8 4 -5 -13 -7 -9 -10
-7 -7 4 -5 -13 -7 -9 -10
-7 -5 5 -5 -13 -7 -8 -9
-7 -4 5 -5 -13 -6 -8 -9
-7 -3 6 -5 -13 -6 -7 -8
-6 0 7 -4 -12 -5 -6 -7
-6 1 8 -2 -11 -5 -6 -7
-6 2 10 0 -10 -5 -5 -7
-6 3 11 2 -9 -4 -5 -6
-6 4 12 3 -8 -4 -4 -6
-6 5 14 5 -7 -3 -3 -5
-6 5 17 6 -7 -2 -3 -5
-6 6 20 7 -6 -2 -3 -5
-6 6 23 8 -6 0 -3 -5
-6 7 25 9 -5 1 -3 -5
-7 8 28 10 -4 2 -3 -4
-7 8 28 10 -4 2 -3 -4
-7 9 28 10 -4 2 -3 -4
-7 10 28 10 -4 2 -3 -4
-7 11 28 10 -4 2 -3 -4
-8 12 27 9 -4 1 -4 -5
-7 12 21 8 -4 1 -4 -5
-5 13 15 6 -4 1 -3 -4
-4 13 9 4 -5 1 -3 -4
-3 14 3 3 -5 1 -2 -3
0 15 -3 1 -6 0 0 -2
0 15 -4 1 -6 0 0 -2
1 16 -6 1 -6 0 0 -2
2 16 -7 0 -6 0 1 -2
3 17 -8 0 -6 0 1 -2
4 18 -10 -2 -7 1 2 -2
4 18 -9 -2 -7 1 2 0
4 18 -8 -2 -6 2 3 1
5 18 -7 0 -6 3 3 2
5 18 -6 0 -5 4 4 3
6 18 -5 1 -4 5 5 4
4 17 -5 1 -4 5 5 4
2 15 -5 1 -4 5 5 4
1 13 -5 1 -4 5 5 4
-2 12 -5 1 -4 5 5 4
-4 10 -6 2 -3 5 5 5
-4 10 -6 1 -3 5 5 5
-4 9 -7 -2 -4 5 5 4
-3 8 -7 -3 -4 4 4 4
-3 7 -8 -4 -5 4 4 3
-2 6 -9 -6 -6 3 3 2
-3 3 -9 -6 -6 3 2 1
-4 1 -8 -6 -6 2 1 0
-5 -3 -7 -6 -6 1 0 -2
-7 -5 -6 -6 -6 0 -2 -4
-8 -8 -5 -7 -7 -2 -3 -5
-7 -9 -5 -8 -9 -4 -5 -7
-5 -10 -5 -10 -11 -5 -6 -9
-4 -11 -6 -11 -13 -7 -8 -12
-3 -12 -6 -12 -15 -9 -10 -14
0 -13 -7 -14 -17 -11 -12 -16
-2 -13 -7 -13 -16 -11 -12 -16
-4 -13 -7 -11 -15 -11 -13 -16
-5 -13 -6 -9 -14 -11 -13 -16
-6 -13 -6 -8 -13 -11 -14 -16
-8 -14 -5 -6 -12 -10 -15 -16
-8 -14 -5 -6 -12 -10 -15 -16
-9 -14 -4 -6 -12 -10 -14 -16
-9 -14 -4 -5 -12 -9 -13 -15
-10 -14 -3 -5 -12 -9 -12 -15
-11 -13 -2 -4 -11 -8 -11 -14
-11 -14 -2 -4 -10 -8 -11 -14
-11 -15 -2 -3 -9 -7 -10 -14
-12 -16 -2 -3 -8 -6 -10 -14
-12 -18 -2 -2 -7 -5 -9 -14
-13 -19 -2 1 -5 -4 -8 -14
-13 -19 2 7 3 2 -5 -13
-12 -18 5 14 10 7 -2 -12
-11 -18 8 20 18 12 1 -11
-10 -17 11 26 25 17 4 -9
-9 -15 18 40 37 26 10 -6
-6 -6 38 80 71 51 28 7
-3 3 60 121 106 76 47 19
0 11 80 161 140 102 64 32
3 20 102 202 174 128 82 45
7 28 122 229 199 153 104 60
14 36 140 195 185 181 140 88
22 44 157 162 171 209 175 115
29 52 175 129 156 236 210 143
37 59 193 96 142 264 245 172
44 66 193 48 115 283 273 194
40 68 119 -62 38 262 267 194
36 70 46 -173 -37 241 261 194
33 72 -29 -282 -114 220 255 194
30 74 -103 -392 -191 199 248 194
26 75 -168 -481 -256 173 234 187
21 66 -190 -479 -268 121 183 153
16 57 -213 -478 -280 69 132 118
10 48 -235 -476 -293 18 79 85
5 38 -258 -474 -306 -34 28 51
0 30 -272 -464 -313 -78 -16 20
-6 25 -246 -418 -290 -90 -31 6
-11 21 -220 -372 -269 -101 -47 -8
-16 16 -194 -326 -247 -112 -62 -22
-21 12 -169 -280 -226 -123 -76 -35
-25 8 -144 -237 -203 -131 -89 -48
-23 4 -126 -205 -176 -114 -79 -45
-21 1 -106 -174 -149 -97 -70 -43
-19 -4 -87 -143 -121 -79 -62 -39
-17 -8 -68 -111 -94 -62 -53 -37
-15 -11 -51 -82 -69 -47 -45 -34
-15 -11 -41 -68 -58 -39 -38 -30
-15 -11 -32 -54 -46 -31 -32 -27
-15 -11 -24 -38 -34 -24 -27 -23
-15 -11 -15 -24 -22 -17 -21 -19
-14 -11 -7 -12 -12 -10 -16 -16
-14 -11 -5 -8 -9 -10 -16 -16
-13 -11 -2 -4 -6 -9 -15 -16
-13 -11 1 1 -3 -8 -14 -15
-12 -11 4 5 1 -7 -13 -15
-11 -11 6 9 4 -6 -12 -14
-11 -11 6 9 4 -6 -12 -14
-10 -11 7 10 5 -6 -12 -14
-10 -12 8 10 5 -6 -12 -14
-9 -12 9 11 6 -6 -12 -14
-8 -13 10 12 7 -5 -11 -14
-8 -13 10 13 8 -5 -11 -14
-8 -13 11 15 9 -5 -11 -13
-7 -13 12 17 10 -4 -10 -13
-7 -13 13 18 11 -4 -10 -12
-6 -14 14 20 12 -3 -9 -11
-6 -14 14 20 12 -3 -9 -11
-6 -14 14 20 12 -3 -9 -11
-6 -14 15 20 12 -3 -9 -11
-6 -14 15 20 12 -3 -9 -11
-6 -13 16 21 13 -2 -9 -12
-6 -13 16 22 13 -2 -9 -12
-6 -13 16 23 14 -2 -9 -12
-6 -13 17 24 15 -2 -9 -12
-6 -13 17 25 16 -2 -9 -12
-6 -12 18 27 17 0 -9 -11
-6 -12 18 27 17 0 -9 -11
-6 -12 18 27 17 0 -9 -11
-6 -12 19 28 17 1 -8 -11
-6 -12 19 28 17 1 -8 -11
-5 -11 20 29 17 2 -7 -12
-5 -11 20 29 17 2 -7 -12
-5 -12 20 30 17 2 -8 -12
-6 -12 19 31 17 1 -8 -12
-6 -13 19 32 17 1 -9 -12
-7 -14 18 33 18 0 -10 -13
-6 -14 19 33 18 1 -10 -13
-4 -14 20 34 19 2 -10 -13
-3 -13 21 34 20 3 -10 -13
-2 -13 22 35 21 4 -10 -13
1 -12 24 36 22 6 -9 -12
2 -12 24 36 22 5 -9 -12
3 -12 23 36 22 4 -9 -12
5 -13 23 36 22 3 -9 -12
6 -13 22 36 22 2 -9 -12
8 -14 21 37 22 1 -10 -13
4 -14 22 39 24 2 -9 -12
0 -13 23 42 25 4 -8 -10
-4 -12 24 44 27 6 -7 -8
-8 -11 25 47 29 7 -6 -7
-12 -10 26 49 31 9 -4 -5
-12 -10 26 50 32 9 -4 -5
-11 -10 26 51 33 9 -4 -5
-10 -10 27 52 34 10 -3 -4
-9 -10 27 53 35 10 -3 -4
-8 -10 28 54 36 11 -2 -3
-8 -10 28 54 36 11 -2 -3
-8 -10 28 55 37 11 -2 -3
-7 -10 28 56 37 11 -2 -3
-7 -10 28 57 38 11 -2 -3
-6 -10 29 58 39 12 0 -2
-5 -10 29 59 40 12 0 -2
-4 -9 29 61 42 13 0 0
-3 -9 29 62 44 13 1 0
-2 -8 29 64 45 14 1 1
1 -7 29 66 47 15 2 2
3 -7 29 66 47 15 2 2
4 -7 29 66 47 15 2 2
6 -7 29 66 47 15 2 2
8 -7 29 66 47 15 2 2
10 -6 28 67 48 16 2 2
6 -6 28 69 50 17 2 2
2 -6 29 71 52 18 3 3
-3 -6 29 73 54 19 4 4
-7 -6 30 76 56 20 5 5
-11 -7 31 78 58 22 6 6
-10 -7 31 78 58 23 7 6
-8 -6 31 78 59 24 8 6
-7 -6 31 79 59 25 9 7
-5 -5 31 79 60 26 10 7
-3 -4 32 80 61 27 12 8
-3 -4 32 80 61 27 12 8
-3 -4 31 81 62 27 12 8
-3 -5 30 82 63 27 13 9
-3 -5 29 84 64 27 13 9
-4 -6 28 85 65 27 14 10
-3 -5 28 85 65 28 14 11
0 -3 28 86 66 29 14 12
2 0 28 86 67 31 15 13
4 2 28 87 68 32 15 14
6 4 27 88 69 34 16 15
7 5 27 88 69 34 16 15
8 6 26 88 70 34 16 15
9 7 26 88 71 34 16 15
10 8 25 88 72 34 16 15
11 9 24 87 73 35 17 16
11 9 23 87 73 35 18 16
10 9 22 86 73 36 19 17
10 8 21 85 74 36 20 17
9 8 20 84 74 37 21 18
8 7 19 82 75 38 22 19
8 7 19 81 75 38 22 19
7 7 19 80 75 38 22 19
6 8 18 79 75 38 22 20
5 8 18 78 75 38 22 20
4 9 17 77 75 39 23 21
6 9 16 75 75 39 23 21
8 9 14 72 74 38 22 21
10 10 13 69 74 37 21 20
12 10 11 67 73 36 20 20
14 11 9 64 72 35 19 19
14 11 9 63 72 35 19 19
14 11 9 62 71 35 19 19
14 11 8 61 70 34 19 18
14 11 8 60 69 34 19 18
15 10 7 59 68 33 18 17
13 10 7 57 68 33 18 17
11 10 7 55 68 33 18 17
8 10 7 52 67 33 17 18
6 10 7 50 67 33 17 18
3 10 7 47 66 33 16 19
3 10 7 47 65 32 16 19
3 9 7 46 64 31 16 19
3 8 7 45 63 30 15 19
3 7 7 44 62 29 15 19
3 6 7 43 61 27 14 18
3 6 7 40 60 26 13 17
4 6 6 38 58 25 12 16
5 5 6 35 56 23 11 15
6 5 5 33 54 22 10 14
7 4 4 30 52 20 8 12
7 4 4 29 52 19 7 12
6 4 4 28 52 18 6 12
6 4 4 27 51 16 5 11
5 4 4 26 51 15 4 11
4 4 4 25 50 13 2 10
4 4 4 25 50 13 2 10
4 4 4 25 49 12 2 10
3 4 3 24 48 12 1 10
3 4 3 24 47 11 1 10
2 5 2 23 46 10 0 9
2 5 2 23 46 10 0 9
2 5 2 23 46 10 0 9
2 5 2 23 46 9 0 9
2 5 2 23 46 9 0 9
2 4 1 23 47 8 0 10
3 4 1 23 47 8 0 10
4 4 1 23 47 8 0 10
5 4 1 23 47 8 0 10
6 4 1 23 47 8 0 10
7 4 1 24 47 7 -2 9
7 4 1 24 47 7 -2 9
8 4 1 25 48 7 -2 9
8 4 0 26 49 7 -2 9
9 4 0 27 50 7 -2 9
10 3 -2 28 51 6 -2 8
9 3 -2 29 51 7 0 9
7 3 0 30 52 9 1 10
5 3 1 31 53 10 2 11
3 3 2 32 54 12 3 12
1 4 3 34 55 14 5 13
2 4 3 34 55 14 5 13
3 5 4 34 56 14 5 13
4 6 4 34 57 15 6 13
5 7 5 34 58 15 6 13
7 8 6 35 59 16 7 14
6 8 6 35 59 16 7 14
5 8 6 35 59 17 8 14
3 7 7 34 60 18 9 14
2 7 7 34 60 19 10 14
0 6 8 33 61 20 11 13
0 6 8 32 61 20 11 13
1 6 8 31 60 20 11 13
2 5 8 30 60 20 11 13
3 5 8 29 59 20 11 13
4 4 9 27 58 20 10 13
4 3 9 26 57 20 10 12
3 2 8 25 56 20 9 11
2 1 8 23 55 19 8 10
1 0 7 22 54 19 7 9
0 -2 6 20 53 18 6 8
0 -2 6 20 53 17 6 8
0 0 6 20 53 16 6 8
1 0 6 19 53 15 6 7
1 1 6 19 53 14 6 7
2 2 7 18 52 13 6 6
2 1 7 18 52 13 6 6
2 -2 7 18 51 13 5 5
2 -4 7 18 51 13 4 4
2 -6 7 18 50 13 3 3
2 -8 8 18 49 12 2 2
2 -8 8 18 49 12 2 2
1 -7 8 18 49 11 1 1
1 -7 8 18 48 11 1 1
0 -6 8 18 48 10 0 0
-2 -5 9 19 47 9 -2 -2
-2 -5 9 19 47 9 -2 -2
-2 -5 9 19 47 9 -2 -2
-3 -5 10 19 47 9 -2 -2
-3 -5 10 19 47 9 -2 -2
-4 -5 11 20 48 10 -2 -3
-4 -5 11 21 49 10 -2 -3
-5 -5 12 22 50 10 0 -3
-6 -5 13 23 51 10 1 -3
-7 -5 14 24 52 10 2 -3
-8 -4 15 26 53 11 3 -2
-8 -5 15 26 53 11 3 -2
-8 -6 14 25 52 11 2 -3
-8 -7 13 25 52 11 2 -3
-8 -8 12 24 51 11 1 -4
-9 -9 11 23 50 10 0 -5
-9 -8 11 23 50 10 0 -5
-9 -7 11 24 51 11 0 -4
-8 -5 11 24 52 12 1 -4
-8 -4 11 25 53 13 1 -3
-7 -2 11 26 54 14 2 -2
-6 -2 11 26 54 14 2 -2
-5 -2 11 26 54 14 2 -2
-5 -2 10 25 54 14 2 -3
-4 -2 10 25 54 14 2 -3
-3 -2 10 25 54 14 2 -3
-2 -2 9 24 54 14 3 -4
-2 0 9 24 55 15 5 -3
-2 1 10 25 57 15 7 -3
-2 2 10 25 58 16 9 -2
-2 3 10 25 59 16 10 -2
-3 4 11 26 60 18 11 0
-3 4 11 26 60 19 11 1
-2 5 11 26 60 20 11 1
-2 5 11 26 60 21 11 2
-2 5 11 26 60 22 11 2
0 6 12 26 60 23 11 3
-2 5 11 26 60 24 12 3
-3 5 11 26 60 25 12 3
-4 4 10 26 60 26 13 3
-4 4 10 26 60 26 13 3
-5 3 9 25 60 27 14 3
-4 4 9 24 60 27 14 4
-4 5 9 23 60 27 14 4
-3 6 9 22 60 27 14 5
-3 6 9 22 60 27 14 5
-2 7 9 21 59 28 15 6
-2 7 9 21 59 28 15 6
-2 6 9 21 59 28 16 6
-2 6 9 21 59 28 16 6
-2 6 9 21 59 28 16 6
-2 5 10 22 57 29 17 7
0 5 9 21 56 28 16 6
1 5 9 20 55 28 16 6
2 5 8 19 54 27 15 5
3 5 8 18 53 27 15 5
4 6 7 17 52 26 14 4
3 6 7 17 52 25 14 4
2 5 7 17 51 25 13 4
1 5 7 17 51 24 13 4
0 5 7 17 51 24 13 4
-2 4 8 16 50 23 12 3
0 4 8 15 49 23 11 3
1 4 8 14 48 23 10 3
2 4 8 13 47 23 9 3
2 4 8 12 47 23 9 3
3 3 8 11 46 22 8 2
2 3 8 11 45 21 8 1
2 2 8 11 44 21 8 1
1 2 8 11 43 20 8 0
1 2 8 11 42 20 8 0
0 1 8 10 39 19 8 -2
0 0 8 10 37 18 7 -3
0 -2 7 9 36 17 6 -4
0 -3 7 9 34 16 5 -5
0 -3 7 9 33 15 5 -6
0 -3 6 8 32 14 4 -7
0 -2 6 8 32 14 4 -7
0 1 7 8 32 13 4 -7
0 2 7 8 32 13 4 -7
0 3 7 8 32 13 4 -7
0 3 8 7 31 12 5 -6
-2 2 8 7 30 12 4 -6
-4 0 8 7 30 12 3 -6
-5 -2 8 7 29 12 2 -6
-6 -3 8 7 29 12 2 -6
-6 -4 8 7 28 11 1 -7
-5 -4 8 7 27 10 1 -8
-3 -4 8 7 26 10 0 -8
-2 -4 8 7 25 9 0 -9
0 -4 8 7 25 9 0 -9
1 -4 8 6 24 8 -2 -10
1 -4 8 6 24 8 -2 -10
1 -4 8 6 24 8 0 -10
1 -4 8 6 24 8 0 -10
1 -4 8 6 24 8 0 -10
1 -4 8 7 23 8 1 -9
0 -5 8 6 22 7 0 -10
-2 -6 8 5 21 6 -2 -10
-3 -7 8 4 20 5 -3 -11
-3 -8 8 3 19 4 -3 -11
-4 -9 7 2 18 3 -4 -12
-3 -9 7 2 18 3 -4 -12
-2 -8 8 3 18 4 -4 -12
0 -8 8 3 18 4 -4 -12
0 -8 8 3 18 4 -4 -12
1 -7 9 4 19 5 -4 -12
1 -7 9 3 18 5 -4 -12
1 -7 8 2 17 4 -4 -12
1 -7 8 1 16 4 -4 -12
1 -7 8 1 16 4 -4 -12
1 -7 7 0 15 3 -5 -13
1 -7 7 0 15 3 -5 -13
1 -7 7 0 14 3 -5 -13
1 -7 7 0 14 3 -5 -13
1 -7 7 0 14 3 -5 -13
0 -8 7 -2 13 2 -5 -14
-2 -8 7 -2 13 2 -6 -14
-2 -8 7 -2 13 2 -6 -14
-3 -8 7 -2 13 2 -7 -14
-3 -8 7 -2 13 2 -7 -14
-4 -7 6 -2 13 1 -8 -13
-4 -7 6 -2 12 1 -8 -13
-3 -7 6 -2 12 0 -8 -13
-3 -7 6 -2 11 0 -8 -13
-3 -7 6 -2 11 0 -8 -13
-2 -7 7 -3 10 -2 -8 -14
0 -7 7 -3 10 -2 -8 -14
1 -7 7 -3 10 -3 -8 -14
2 -7 7 -3 10 -3 -8 -14
2 -7 7 -3 10 -3 -8 -14
3 -7 7 -3 9 -4 -7 -14
2 -7 7 -3 9 -4 -8 -14
1 -8 6 -4 8 -4 -8 -14
0 -8 6 -4 8 -4 -9 -14
0 -8 6 -4 8 -4 -9 -14
-2 -9 5 -5 7 -3 -10 -15
-2 -9 5 -4 7 -3 -10 -15
-3 -9 5 -4 7 -3 -9 -15
-3 -9 5 -3 7 -3 -9 -15
-3 -9 5 -3 7 -3 -9 -15
-4 -9 6 -2 7 -3 -8 -14
-4 -9 6 -2 7 -3 -8 -14
-4 -9 6 -3 6 -3 -9 -14
-4 -9 6 -3 6 -3 -9 -14
-4 -9 6 -3 6 -3 -9 -14
-3 -9 7 -4 5 -4 -10 -14
-2 -9 6 -4 4 -5 -10 -14
0 -9 6 -4 4 -6 -10 -14
1 -9 5 -4 3 -7 -10 -14
2 -9 5 -4 3 -7 -10 -14
3 -9 4 -3 2 -8 -11 -15
2 -9 4 -4 2 -8 -11 -15
1 -9 4 -4 2 -8 -11 -15
0 -9 4 -5 2 -8 -11 -15
0 -9 4 -5 2 -8 -11 -15
-2 -9 3 -6 1 -8 -11 -15
-2 -9 3 -6 1 -8 -11 -15
-2 -9 3 -5 1 -8 -11 -15
-2 -9 3 -5 1 -8 -11 -15
-2 -9 3 -5 1 -8 -11 -15
-3 -10 4 -4 1 -7 -10 -14
-3 -10 4 -4 1 -7 -10 -14
-2 -10 4 -4 1 -7 -10 -14
-2 -10 4 -4 1 -7 -10 -14
-2 -10 4 -4 1 -7 -10 -14
0 -10 5 -4 1 -7 -10 -13
-2 -10 5 -4 1 -7 -10 -13
-3 -10 5 -4 1 -7 -10 -13
-4 -10 5 -4 1 -7 -10 -13
-5 -10 5 -4 1 -7 -10 -13
-5 -9 5 -4 0 -8 -11 -13
-4 -9 5 -4 0 -8 -11 -13
-2 -9 6 -4 0 -8 -11 -13
0 -9 6 -4 0 -8 -11 -13
1 -9 6 -4 0 -8 -11 -13
2 -8 7 -3 0 -7 -11 -12
1 -8 7 -3 0 -7 -11 -12
0 -9 6 -3 0 -7 -11 -12
-2 -9 6 -3 0 -7 -11 -12
-3 -9 6 -3 0 -7 -11 -12
-4 -10 5 -4 -2 -8 -10 -11
-4 -10 5 -4 -2 -8 -10 -11
-3 -10 5 -4 -2 -8 -11 -11
-3 -10 5 -4 -2 -8 -11 -11
-3 -10 5 -4 -2 -8 -11 -11
-2 -9 4 -5 -3 -9 -12 -12
-2 -9 4 -5 -4 -9 -12 -12
-2 -9 4 -5 -4 -10 -12 -12
-2 -9 4 -5 -5 -10 -12 -12
-2 -9 4 -5 -5 -10 -12 -12
-2 -10 4 -5 -6 -11 -12 -13
-3 -10 4 -5 -6 -11 -12 -13
-3 -10 4 -6 -6 -11 -12 -13
-4 -10 4 -6 -6 -11 -12 -13
-4 -10 4 -6 -6 -11 -12 -13
-5 -9 3 -7 -7 -11 -13 -13
-4 -9 3 -7 -7 -11 -12 -12
-3 -9 4 -6 -6 -11 -11 -12
-2 -9 4 -6 -6 -11 -10 -11
0 -9 4 -6 -6 -11 -10 -11
1 -8 5 -5 -5 -10 -9 -10
1 -9 4 -6 -5 -10 -10 -10
0 -9 4 -7 -6 -11 -11 -11
0 -10 3 -8 -6 -11 -12 -11
0 -10 3 -8 -6 -11 -12 -11
-2 -11 2 -9 -7 -12 -13 -12
-2 -11 2 -9 -7 -12 -13 -12
-2 -10 2 -9 -7 -12 -12 -12
-2 -10 2 -9 -7 -12 -12 -12
-2 -10 2 -9 -7 -12 -12 -12
0 -9 3 -8 -8 -13 -11 -11
0 -9 3 -8 -8 -13 -11 -11
0 -10 3 -8 -8 -12 -11 -11
0 -10 3 -8 -8 -12 -11 -11
0 -10 3 -8 -8 -12 -11 -11
1 -11 4 -7 -7 -11 -12 -10
1 -11 4 -7 -7 -11 -12 -9
1 -10 4 -7 -7 -11 -12 -9
1 -10 4 -7 -7 -11 -12 -8
1 -10 4 -7 -7 -11 -12 -8
0 -9 4 -8 -7 -10 -11 -7
0 -9 4 -8 -7 -10 -11 -7
-2 -9 5 -8 -7 -11 -11 -7
-2 -9 5 -8 -7 -11 -11 -7
-2 -9 5 -8 -7 -11 -11 -7
-3 -10 6 -7 -7 -12 -11 -8
-3 -9 7 -6 -7 -12 -11 -7
-2 -8 8 -5 -7 -12 -11 -6
-2 -7 9 -4 -7 -12 -11 -5
-2 -7 9 -3 -7 -12 -11 -5
0 -6 11 -2 -6 -11 -10 -4
0 -5 12 0 -5 -10 -10 -4
0 -4 13 1 -5 -9 -9 -4
0 -3 15 2 -4 -8 -9 -4
0 -3 16 3 -4 -8 -9 -4
0 0 18 4 -3 -7 -8 -4
0 1 21 5 -2 -7 -8 -3
0 2 23 6 0 -7 -8 -3
0 4 26 7 1 -7 -8 -2
0 5 28 8 1 -7 -8 -2
1 6 29 9 2 -6 -8 0
1 6 29 8 1 -6 -8 0
1 6 29 8 1 -6 -8 0
1 6 29 7 0 -6 -8 0
1 6 29 7 0 -6 -8 0
1 7 25 5 -2 -7 -9 -2
3 8 18 4 -2 -7 -9 0
4 9 12 3 -3 -7 -8 1
5 10 5 1 -3 -7 -8 2
6 11 -2 0 -3 -7 -8 3
7 12 -5 -2 -4 -7 -7 4
7 13 -7 -3 -4 -7 -7 5
7 13 -9 -3 -4 -6 -7 5
7 14 -11 -4 -4 -6 -7 6
7 14 -13 -4 -4 -6 -7 6
8 15 -13 -5 -4 -5 -6 7
8 15 -12 -4 -2 -4 -5 8
8 15 -10 -3 0 -3 -4 9
8 15 -8 -2 1 -2 -3 10
8 15 -7 0 2 -2 -2 11
7 15 -7 0 3 0 0 12
8 13 -8 -2 2 -2 -2 11
9 10 -9 -3 1 -3 -2 11
10 8 -11 -5 0 -4 -3 10
10 6 -12 -6 -2 -4 -3 10
12 5 -13 -8 -4 -5 -4 9
13 4 -14 -9 -5 -7 -6 8
15 3 -15 -10 -6 -8 -7 7
17 2 -16 -12 -8 -9 -8 6
18 1 -16 -13 -9 -10 -9 6
16 -3 -16 -14 -10 -11 -10 5
11 -5 -14 -13 -9 -11 -10 5
6 -8 -12 -12 -9 -11 -10 5
1 -10 -11 -11 -8 -11 -10 5
-5 -13 -9 -10 -8 -11 -10 5
-6 -14 -8 -9 -7 -11 -11 3
-6 -15 -8 -10 -9 -12 -12 2
-6 -15 -9 -11 -10 -13 -13 1
-6 -16 -9 -12 -11 -15 -15 -2
-6 -16 -9 -12 -12 -16 -16 -3
-5 -17 -10 -13 -13 -17 -17 -4
-4 -17 -10 -13 -13 -17 -17 -4
-3 -17 -9 -13 -14 -17 -17 -4
-2 -17 -9 -13 -14 -17 -17 -4
-2 -17 -9 -13 -14 -17 -17 -4
0 -17 -8 -13 -15 -18 -17 -4
0 -17 -8 -13 -15 -18 -17 -4
0 -17 -8 -13 -15 -18 -17 -4
0 -17 -8 -13 -15 -18 -17 -4
0 -17 -8 -13 -15 -18 -17 -4
-2 -18 -7 -13 -16 -18 -17 -5
-2 -20 -7 -13 -16 -18 -18 -5
-3 -21 -7 -13 -16 -18 -18 -6
-3 -22 -7 -13 -16 -18 -19 -6
-3 -23 -7 -13 -16 -18 -19 -6
-3 -23 -7 -10 -11 -16 -18 -6
-2 -22 -6 -3 -3 -11 -15 -5
0 -21 -4 4 5 -6 -12 -4
2 -19 -2 11 12 0 -8 -2
3 -18 0 17 20 5 -5 0
4 -12 17 50 48 25 10 10
6 -4 38 91 81 51 27 21
7 4 60 132 115 75 46 33
8 11 81 173 148 101 63 46
9 19 103 214 182 126 81 58
15 27 121 199 181 154 112 82
22 34 140 169 169 184 148 110
28 43 158 138 155 213 183 138
35 51 177 107 143 242 219 167
43 59 195 76 130 272 255 194
44 64 144 -16 67 264 260 201
42 69 71 -127 -10 242 254 201
38 73 -3 -238 -88 222 248 201
36 78 -76 -349 -164 201 243 201
34 82 -150 -460 -242 180 238 201
29 74 -186 -486 -272 135 196 174
24 61 -212 -487 -287 80 144 139
18 47 -236 -487 -302 27 92 103
12 32 -262 -488 -317 -26 39 68
7 19 -287 -488 -332 -79 -13 33
3 14 -273 -454 -320 -102 -37 15
0 12 -246 -407 -298 -114 -53 2
-4 10 -219 -360 -276 -127 -68 -12
-8 8 -192 -313 -254 -139 -83 -25
-11 6 -164 -267 -232 -152 -99 -37
-12 3 -144 -231 -204 -142 -96 -39
-13 -2 -126 -198 -177 -123 -86 -36
-13 -5 -106 -166 -148 -105 -74 -33
-14 -9 -88 -135 -119 -88 -64 -30
-14 -13 -69 -102 -91 -69 -54 -27
-14 -14 -58 -83 -75 -59 -48 -24
-11 -14 -49 -69 -64 -52 -43 -21
-9 -14 -39 -55 -53 -45 -37 -18
-6 -14 -30 -40 -41 -36 -32 -15
-4 -14 -22 -26 -30 -29 -28 -12
-3 -14 -18 -20 -25 -27 -26 -11
-3 -15 -16 -16 -23 -26 -26 -11
-3 -16 -13 -12 -20 -25 -25 -11
-3 -17 -11 -8 -17 -25 -25 -11
-3 -18 -9 -4 -14 -24 -25 -11
-3 -19 -8 0 -13 -23 -24 -10
-3 -19 -6 1 -12 -22 -23 -10
-2 -19 -5 2 -11 -22 -22 -10
-2 -19 -4 4 -11 -21 -21 -10
-2 -19 -3 5 -10 -21 -20 -10
0 -18 -2 7 -8 -20 -19 -9
0 -18 1 8 -7 -20 -19 -8
0 -17 2 10 -6 -20 -19 -8
0 -17 3 11 -4 -20 -19 -7
0 -17 4 13 -3 -20 -19 -7
0 -16 5 14 -2 -20 -18 -6
0 -17 5 14 -3 -20 -18 -6
0 -18 5 14 -3 -20 -18 -6
0 -19 5 14 -4 -20 -18 -6
0 -20 5 14 -4 -20 -18 -6
0 -21 4 14 -5 -20 -18 -7
-2 -21 5 15 -5 -20 -18 -7
-3 -20 5 16 -4 -20 -18 -7
-3 -20 6 17 -4 -20 -18 -7
-4 -20 6 18 -4 -20 -18 -7
-5 -19 7 19 -3 -19 -17 -7
-4 -18 7 19 -3 -18 -17 -7
-3 -17 7 19 -3 -17 -16 -7
-2 -16 7 19 -3 -17 -16 -7
0 -15 7 19 -3 -16 -16 -7
1 -14 8 20 -2 -15 -15 -7
1 -14 8 21 -2 -16 -15 -7
1 -14 8 22 -2 -16 -16 -7
1 -14 8 23 -2 -17 -16 -7
1 -14 8 24 -2 -17 -16 -7
1 -15 8 25 0 -18 -17 -8
0 -16 8 25 1 -17 -17 -8
0 -17 9 26 1 -17 -17 -8
-2 -17 9 26 2 -16 -17 -8
-2 -18 9 26 2 -16 -17 -8
-3 -19 10 28 3 -15 -16 -8
-3 -18 10 29 4 -15 -15 -7
-2 -18 11 30 5 -15 -15 -6
-2 -17 11 32 5 -15 -14 -6
-2 -17 11 33 6 -15 -14 -5
0 -16 12 34 7 -14 -13 -4
0 -17 12 34 7 -14 -13 -4
0 -17 12 34 7 -14 -13 -4
0 -18 12 34 7 -14 -13 -4
0 -18 12 34 7 -14 -13 -4
1 -19 11 36 7 -15 -14 -4
1 -17 13 38 8 -14 -13 -3
1 -16 14 40 10 -13 -12 0
1 -14 16 43 11 -12 -11 1
1 -13 17 45 13 -11 -10 3
0 -12 18 46 14 -10 -9 4
0 -12 18 47 14 -9 -9 4
0 -13 18 48 15 -9 -9 3
0 -13 18 48 15 -8 -9 3
0 -13 18 49 15 -8 -9 3
1 -14 17 50 16 -7 -8 2
1 -14 17 52 17 -7 -8 3
1 -14 17 53 18 -7 -8 3
1 -14 17 55 19 -7 -8 4
1 -14 17 56 20 -7 -8 4
2 -13 16 57 21 -7 -7 5
4 -13 16 57 21 -6 -7 5
5 -13 16 57 21 -6 -6 4
6 -13 16 57 21 -5 -6 4
7 -13 16 57 21 -5 -6 4
8 -12 16 59 23 -4 -5 3
7 -12 17 60 24 -3 -5 4
7 -11 17 62 26 -3 -4 5
6 -11 18 63 27 -2 -4 6
6 -11 18 65 29 -2 -4 7
5 -10 19 66 30 0 -3 8
6 -10 19 67 31 2 -2 9
6 -10 19 68 32 3 0 9
7 -10 19 68 32 4 0 10
7 -10 19 69 33 5 1 10
8 -9 20 71 35 6 2 11
8 -7 20 73 36 7 4 13
8 -6 20 75 38 8 5 14
8 -4 20 77 39 9 6 16
8 -3 20 79 42 10 7 17
8 -2 21 80 43 11 8 18
8 -3 20 78 43 11 8 18
9 -3 19 77 43 11 8 17
9 -4 18 76 43 11 8 17
9 -4 17 75 43 11 8 17
10 -5 16 74 42 12 9 16
10 -5 15 74 42 12 9 17
10 -4 14 74 42 12 10 18
10 -4 13 74 42 12 10 18
10 -4 12 74 42 12 10 19
11 -3 11 75 42 13 11 20
12 -2 11 73 42 13 11 20
14 -2 11 72 43 14 12 20
15 0 11 70 43 14 12 20
17 0 11 69 43 14 12 20
17 1 10 68 44 15 13 21
15 1 9 68 44 16 14 22
13 2 9 68 45 17 14 23
10 2 8 68 45 17 15 23
8 2 8 68 45 18 15 24
7 3 7 66 46 19 16 25
7 3 7 65 45 19 16 25
7 4 6 63 44 19 15 25
7 4 5 61 43 19 15 25
7 4 5 59 42 19 15 25
8 5 4 58 40 18 14 25
8 5 3 57 39 17 14 25
9 6 2 55 38 16 13 25
9 6 2 54 38 15 13 25
9 6 1 53 37 14 13 25
10 7 0 51 35 13 12 26
10 7 -2 48 34 13 11 25
11 7 -3 45 32 12 10 24
12 7 -3 42 30 11 10 23
12 7 -4 38 28 11 9 22
13 7 -5 37 27 9 8 21
14 7 -5 36 26 8 8 21
16 8 -5 34 24 6 7 21
17 8 -5 33 23 5 6 21
18 8 -5 32 22 3 6 21
19 9 -6 30 20 2 5 20
18 9 -6 28 19 2 4 20
17 8 -6 26 17 1 2 19
17 7 -6 23 16 0 1 19
16 7 -6 21 14 0 0 19
15 6 -7 20 13 -3 -2 18
14 4 -8 19 12 -4 -4 17
12 3 -9 17 11 -6 -5 16
11 1 -9 16 11 -8 -7 16
10 0 -10 15 10 -10 -8 15
9 -2 -11 14 9 -11 -9 14
8 -2 -10 14 9 -11 -9 14
7 -2 -9 13 9 -11 -9 14
6 -2 -9 13 9 -11 -9 14
5 -2 -8 13 9 -11 -9 14
4 0 -7 12 8 -12 -10 14
6 0 -8 12 7 -13 -11 14
7 1 -9 12 6 -15 -12 14
9 2 -10 12 6 -16 -12 14
10 2 -11 12 5 -17 -13 14
11 3 -12 13 4 -18 -14 13
11 3 -12 13 4 -18 -14 13
12 3 -12 13 4 -18 -15 13
13 3 -12 13 4 -18 -15 13
13 3 -12 13 4 -18 -15 13
13 3 -12 13 4 -19 -16 12
11 3 -11 14 5 -18 -15 12
9 3 -10 16 7 -17 -14 13
7 3 -10 17 8 -17 -14 14
5 3 -9 19 9 -16 -13 14
4 3 -8 20 10 -15 -12 15
4 3 -8 20 10 -15 -12 15
4 3 -8 21 10 -14 -11 15
4 3 -8 21 10 -13 -11 15
4 3 -8 21 10 -13 -11 15
5 3 -7 22 11 -12 -10 15
5 3 -7 22 12 -12 -10 15
5 3 -7 22 13 -11 -9 15
5 3 -7 22 13 -10 -9 15
5 3 -7 22 14 -10 -9 15
5 3 -6 23 15 -9 -8 16
5 3 -6 22 15 -9 -8 16
5 3 -6 20 14 -9 -7 15
5 3 -6 19 13 -9 -6 15
5 3 -6 18 13 -9 -6 15
4 2 -5 17 12 -8 -5 14
6 2 -5 17 12 -8 -5 14
7 3 -5 17 12 -8 -5 14
9 3 -5 17 12 -8 -5 14
10 3 -5 17 12 -8 -5 14
11 4 -5 16 11 -7 -4 15
10 3 -5 15 11 -7 -4 15
8 2 -5 13 10 -7 -5 14
7 1 -5 12 9 -7 -6 14
6 0 -5 11 9 -7 -6 14
5 -2 -6 10 8 -7 -7 13
5 -2 -6 9 6 -7 -7 11
4 -3 -6 8 5 -8 -7 10
4 -4 -6 7 3 -9 -7 8
4 -4 -6 6 2 -9 -7 7
3 -5 -6 5 1 -10 -6 6
2 -5 -6 5 1 -11 -6 6
1 -6 -5 4 0 -12 -7 5
1 -6 -4 3 -2 -12 -8 4
0 -6 -4 3 -2 -13 -8 4
-2 -7 -3 2 -3 -14 -9 3
-2 -7 -3 2 -3 -14 -9 3
-2 -7 -3 2 -4 -15 -9 2
-2 -7 -3 2 -4 -16 -9 2
-2 -7 -3 2 -4 -16 -9 2
-3 -8 -3 3 -5 -17 -10 1
-3 -8 -3 3 -4 -17 -10 1
-3 -8 -3 4 -3 -16 -10 1
-3 -8 -3 4 -3 -16 -10 1
-3 -8 -3 4 -2 -16 -10 1
-3 -9 -2 5 0 -15 -11 2
-3 -9 -2 6 0 -15 -11 2
-3 -9 -3 7 1 -15 -12 1
-3 -9 -3 8 2 -15 -12 1
-3 -9 -3 9 2 -15 -12 1
-2 -10 -4 10 3 -16 -13 0
-2 -10 -4 10 3 -16 -13 0
0 -10 -4 10 4 -15 -12 0
0 -10 -4 10 4 -14 -11 0
0 -10 -4 10 4 -14 -11 0
1 -9 -3 11 5 -13 -10 0
-2 -9 -3 12 7 -12 -9 1
-3 -8 -2 13 9 -11 -8 2
-5 -7 0 13 10 -10 -7 2
-6 -7 0 14 12 -9 -6 3
-7 -6 1 15 13 -8 -5 4
-7 -6 1 15 13 -7 -4 4
-7 -7 1 15 14 -6 -3 5
-7 -7 1 15 14 -5 -2 6
-7 -7 1 15 14 -4 0 6
-6 -8 0 15 15 -3 1 7
-6 -7 0 15 15 -3 1 7
-5 -5 0 14 16 -2 2 8
-5 -4 0 14 17 -2 3 8
-5 -3 0 14 17 -2 3 8
-4 -2 -2 13 18 0 4 9
-4 -2 -3 13 18 1 4 9
-4 -3 -4 12 18 2 4 9
-4 -3 -4 12 18 3 4 9
-4 -3 -5 12 18 4 4 9
-3 -4 -6 11 17 5 5 9
-3 -4 -6 11 17 6 6 9
-2 -3 -6 11 18 7 8 10
0 -3 -6 11 18 7 9 11
0 -3 -6 11 18 8 10 11
1 -2 -5 12 19 9 11 12
1 -2 -5 11 19 9 11 12
2 -2 -6 10 18 9 11 12
2 -2 -7 9 18 9 11 12
2 -2 -7 8 18 9 11 12
3 -3 -8 7 17 9 11 11
3 -3 -8 7 17 9 11 11
3 -2 -8 6 16 9 10 11
3 0 -8 6 16 9 9 11
3 0 -8 6 16 9 9 11
4 1 -8 5 15 8 8 10
4 1 -8 5 15 8 8 10
4 1 -8 5 15 8 9 11
4 1 -8 5 15 8 9 11
4 1 -8 5 15 8 9 11
3 0 -8 5 14 9 10 12
3 0 -8 5 14 9 10 12
2 0 -8 4 13 9 10 12
1 0 -8 3 13 9 10 12
1 0 -8 3 13 9 10 12
0 0 -8 2 12 8 11 12
0 0 -8 2 11 8 11 12
0 -2 -7 1 10 8 11 11
0 -3 -7 1 10 8 11 11
0 -3 -7 1 9 8 11 11
1 -4 -6 0 8 7 10 10
0 -4 -6 -2 7 6 9 9
-2 -4 -6 -3 6 4 7 8
-2 -4 -6 -4 6 3 6 7
-3 -4 -6 -5 5 2 5 6
-4 -5 -7 -6 4 1 4 5
-2 -5 -7 -6 3 1 4 5
0 -5 -8 -7 1 0 3 4
1 -5 -9 -8 0 0 2 3
3 -5 -9 -8 -2 0 2 3
4 -4 -10 -9 -3 -2 1 2
4 -4 -10 -9 -3 -2 1 2
3 -4 -9 -9 -3 -3 0 1
3 -4 -9 -9 -3 -4 0 0
3 -4 -9 -9 -3 -4 0 0
2 -5 -8 -10 -3 -5 -2 -2
2 -5 -8 -9 -3 -5 -2 -2
1 -5 -7 -8 -3 -5 0 -2
0 -5 -6 -8 -3 -5 1 -2
0 -5 -6 -7 -3 -5 1 -2
-2 -6 -5 -6 -4 -4 2 0
-3 -6 -5 -6 -4 -4 2 0
-4 -6 -5 -6 -4 -4 2 0
-4 -6 -5 -6 -4 -4 2 0
-5 -6 -5 -6 -4 -4 2 0
-6 -7 -5 -7 -5 -5 1 -2
-5 -7 -5 -7 -5 -5 0 -2
-4 -7 -5 -8 -6 -5 -2 -3
-4 -7 -5 -9 -6 -5 -3 -4
-3 -7 -5 -9 -6 -5 -4 -4
-2 -8 -6 -10 -7 -6 -5 -5
-2 -8 -6 -10 -7 -6 -5 -5
0 -8 -6 -10 -7 -6 -5 -5
0 -8 -6 -10 -7 -6 -5 -5
0 -8 -6 -10 -7 -6 -5 -5
1 -8 -7 -10 -8 -7 -6 -6
0 -8 -7 -10 -8 -7 -6 -6
-2 -9 -7 -10 -8 -7 -5 -6
-3 -9 -7 -10 -8 -7 -4 -6
-4 -9 -7 -10 -8 -7 -4 -6
-5 -10 -6 -9 -8 -6 -3 -7
-5 -10 -6 -9 -8 -6 -3 -7
-5 -10 -6 -9 -8 -6 -4 -8
-5 -10 -6 -9 -8 -6 -4 -8
-5 -10 -6 -9 -8 -6 -4 -8
-4 -10 -6 -10 -7 -7 -5 -9
-4 -10 -6 -10 -7 -7 -5 -9
-4 -10 -6 -10 -8 -7 -5 -9
-4 -10 -6 -10 -8 -7 -5 -9
-4 -10 -6 -10 -8 -7 -5 -9
-3 -10 -6 -10 -9 -8 -6 -9
-2 -10 -6 -10 -9 -8 -6 -9
-2 -10 -6 -10 -9 -8 -6 -9
0 -10 -7 -10 -10 -8 -7 -10
1 -10 -7 -10 -10 -8 -7 -10
2 -11 -8 -11 -11 -9 -8 -11
2 -11 -8 -11 -11 -9 -8 -11
2 -11 -8 -12 -11 -9 -8 -11
2 -11 -8 -13 -11 -8 -8 -11
2 -11 -8 -13 -11 -8 -8 -11
1 -10 -7 -14 -10 -7 -7 -11
0 -10 -7 -14 -10 -7 -7 -11
-2 -10 -7 -13 -10 -7 -7 -11
-3 -10 -6 -12 -9 -7 -6 -11
-4 -10 -6 -12 -9 -7 -6 -11
-5 -11 -5 -11 -8 -6 -5 -10
-5 -11 -5 -11 -9 -6 -5 -10
-5 -11 -5 -11 -9 -6 -5 -10
-5 -11 -6 -12 -10 -6 -5 -10
-5 -11 -6 -12 -11 -6 -5 -10
-6 -12 -7 -13 -12 -7 -6 -11
-6 -12 -7 -13 -12 -7 -6 -11
-6 -12 -7 -13 -12 -7 -6 -11
-5 -12 -7 -12 -12 -7 -6 -11
-5 -12 -7 -12 -12 -7 -6 -11
-4 -11 -7 -11 -11 -7 -6 -12
-2 -11 -7 -11 -11 -7 -6 -12
1 -11 -7 -11 -11 -7 -6 -12
3 -12 -7 -11 -12 -8 -7 -13
5 -12 -7 -11 -12 -8 -7 -13
5 -13 -7 -12 -13 -9 -8 -14
3 -12 -6 -12 -12 -9 -7 -13
1 -12 -5 -12 -11 -8 -7 -13
-2 -11 -4 -11 -10 -7 -6 -12
-4 -10 -3 -11 -9 -7 -5 -11
-6 -9 -2 -10 -8 -6 -4 -10
-6 -9 -2 -10 -9 -6 -4 -10
-5 -9 -3 -10 -10 -6 -4 -11
-4 -10 -4 -11 -11 -7 -5 -12
-4 -10 -4 -11 -12 -7 -5 -12
-3 -11 -5 -12 -13 -8 -6 -13
-3 -11 -5 -12 -13 -8 -6 -13
-3 -11 -5 -12 -13 -8 -6 -13
-3 -10 -5 -11 -13 -8 -6 -13
-3 -10 -5 -11 -13 -8 -6 -13
-4 -9 -5 -10 -13 -9 -7 -12
-2 -9 -5 -11 -13 -9 -7 -12
1 -9 -5 -11 -13 -10 -8 -13
3 -10 -6 -12 -13 -11 -9 -14
5 -10 -6 -13 -13 -11 -9 -14
7 -11 -7 -14 -14 -12 -10 -15
5 -11 -7 -14 -14 -11 -10 -15
4 -11 -7 -14 -13 -11 -9 -15
3 -11 -6 -13 -12 -10 -8 -14
1 -11 -6 -13 -12 -9 -8 -14
0 -10 -5 -12 -11 -8 -7 -13
0 -10 -5 -12 -11 -8 -7 -13
0 -10 -5 -12 -11 -8 -7 -13
-2 -10 -4 -12 -11 -8 -7 -13
-2 -10 -4 -12 -11 -8 -7 -13
-3 -10 -3 -11 -12 -9 -6 -12
-3 -10 -3 -11 -12 -9 -6 -12
-3 -10 -3 -11 -12 -9 -6 -12
-3 -10 -3 -11 -12 -9 -6 -12
-3 -10 -3 -11 -12 -9 -6 -12
-3 -9 -3 -12 -12 -9 -7 -12
-3 -9 -3 -12 -12 -9 -7 -12
-3 -9 -3 -12 -12 -9 -7 -12
-3 -9 -3 -12 -12 -9 -8 -12
-3 -9 -3 -12 -12 -9 -8 -12
-4 -10 -3 -12 -13 -8 -9 -12
-3 -10 -3 -12 -13 -8 -9 -12
-2 -10 -3 -12 -13 -9 -9 -12
0 -10 -3 -12 -13 -10 -9 -12
1 -10 -3 -12 -13 -10 -9 -12
2 -10 -4 -12 -14 -11 -10 -13
0 -10 -4 -12 -14 -11 -10 -13
-2 -11 -4 -12 -14 -11 -10 -13
-3 -12 -4 -12 -14 -11 -10 -13
-5 -12 -4 -12 -14 -11 -10 -13
-6 -13 -3 -12 -14 -11 -10 -13
-5 -11 -3 -12 -14 -11 -10 -13
-4 -10 -2 -11 -14 -11 -10 -13
-3 -8 0 -10 -14 -10 -10 -12
-2 -6 0 -10 -14 -10 -10 -12
0 -5 1 -9 -13 -9 -9 -11
0 -5 1 -9 -13 -9 -9 -11
0 -5 1 -9 -13 -9 -9 -11
0 -6 1 -9 -13 -9 -10 -11
0 -6 1 -9 -13 -9 -10 -11
0 -7 1 -8 -12 -9 -11 -11
0 -7 1 -8 -12 -9 -11 -11
0 -7 1 -8 -12 -9 -11 -11
0 -7 0 -9 -13 -9 -11 -12
0 -7 0 -9 -13 -9 -11 -12
-2 -8 -2 -10 -14 -10 -12 -13
-2 -8 -2 -10 -14 -10 -12 -13
-2 -9 -2 -10 -14 -10 -12 -13
-2 -10 -2 -10 -14 -9 -11 -12
-2 -10 -2 -10 -14 -9 -11 -12
0 -11 0 -11 -13 -8 -10 -11
0 -11 0 -11 -13 -8 -10 -11
0 -11 0 -11 -13 -8 -10 -11
0 -11 0 -11 -13 -9 -10 -12
0 -11 0 -11 -13 -9 -10 -12
0 -11 0 -10 -14 -10 -11 -13
0 -11 0 -10 -14 -10 -11 -13
0 -11 0 -10 -14 -10 -11 -13
-2 -11 0 -10 -14 -10 -11 -13
-2 -11 0 -10 -14 -10 -11 -13
-3 -12 0 -10 -14 -9 -11 -13
-3 -10 2 -8 -14 -9 -11 -13
-3 -8 3 -7 -13 -9 -10 -13
-4 -6 5 -5 -12 -9 -9 -12
-4 -5 7 -3 -12 -9 -9 -12
-5 -3 8 -2 -11 -8 -8 -11
-5 -2 9 -2 -11 -8 -8 -11
-4 0 11 0 -10 -7 -8 -10
-3 1 12 1 -9 -6 -7 -9
-3 2 14 1 -9 -6 -7 -9
-2 3 15 2 -8 -5 -6 -8
-2 3 16 2 -8 -5 -6 -8
0 3 17 2 -7 -5 -6 -8
1 4 19 2 -6 -5 -6 -8
1 4 20 2 -6 -5 -6 -8
2 5 21 3 -5 -5 -6 -8
1 6 23 4 -5 -4 -6 -8
1 6 25 4 -4 -3 -5 -8
0 7 27 5 -3 -2 -4 -7
-2 8 29 6 -3 0 -4 -7
-3 9 29 7 -2 1 -3 -6
0 8 24 6 -2 1 -3 -6
1 7 18 6 -2 1 -3 -6
3 6 12 5 -2 1 -3 -6
5 5 7 4 -2 1 -3 -6
6 4 3 3 -3 1 -2 -5
6 4 1 2 -3 1 -2 -5
6 4 0 2 -3 1 -2 -5
6 4 -3 1 -3 1 -2 -4
6 4 -5 0 -3 1 -2 -4
5 4 -6 -2 -3 2 0 -3
6 5 -6 -3 -4 2 0 -3
7 6 -6 -4 -4 2 0 -3
8 7 -7 -5 -5 1 0 -3
9 8 -7 -6 -6 1 0 -3
10 9 -8 -7 -7 0 0 -3
9 10 -8 -7 -7 0 0 -3
9 10 -8 -7 -7 0 0 -3
8 11 -8 -7 -7 0 0 -2
7 12 -8 -7 -7 0 0 -2
6 12 -7 -7 -8 1 1 0
6 10 -8 -9 -9 1 1 0
6 7 -9 -10 -9 0 0 -2
6 4 -10 -12 -10 -2 -2 -3
6 1 -11 -14 -11 -2 -2 -3
5 -2 -12 -15 -12 -3 -3 -4
4 -2 -12 -15 -12 -3 -3 -4
4 -3 -12 -15 -12 -3 -4 -4
3 -4 -11 -14 -12 -3 -5 -4
2 -4 -11 -14 -12 -3 -5 -4
1 -5 -10 -13 -12 -3 -6 -5
1 -6 -9 -13 -12 -4 -6 -6
0 -6 -9 -13 -12 -4 -6 -7
-2 -7 -8 -12 -12 -5 -6 -8
-2 -8 -7 -12 -12 -6 -6 -9
-3 -9 -6 -11 -12 -7 -7 -10
-4 -11 -6 -11 -12 -8 -8 -11
-5 -12 -6 -11 -13 -8 -9 -12
-7 -14 -6 -11 -14 -9 -10 -13
-8 -15 -6 -11 -14 -10 -11 -14
-9 -17 -6 -10 -15 -11 -12 -15
-7 -17 -6 -11 -16 -12 -13 -16
-6 -17 -6 -11 -16 -13 -14 -18
-4 -17 -7 -12 -17 -15 -15 -19
-3 -17 -7 -13 -18 -16 -16 -21
0 -17 -8 -14 -19 -17 -17 -22
-3 -17 -7 -13 -18 -16 -16 -21
-5 -17 -7 -12 -17 -14 -15 -21
-7 -16 -6 -10 -16 -13 -13 -20
-9 -16 -5 -9 -15 -11 -12 -19
-11 -15 -4 -8 -14 -10 -11 -18
-11 -16 -3 -7 -12 -9 -10 -17
-11 -16 -2 -6 -10 -8 -9 -17
-12 -17 0 -4 -8 -6 -8 -16
-12 -18 1 -3 -7 -5 -7 -15
-13 -18 4 4 0 0 -5 -14
-11 -15 10 18 14 8 1 -12
-8 -12 16 32 27 17 6 -10
-6 -8 22 47 42 25 11 -8
-4 -5 28 61 56 34 15 -6
0 2 40 86 77 53 29 4
6 11 64 130 113 89 59 26
11 21 88 174 149 125 90 50
17 30 110 218 185 160 120 72
22 39 134 262 221 196 150 95
27 48 148 255 224 224 179 117
30 51 145 150 165 235 204 138
33 54 142 45 106 247 229 159
36 57 139 -60 47 259 255 181
39 60 136 -165 -13 271 279 202
40 63 106 -255 -69 267 286 213
37 63 28 -314 -118 230 257 200
34 63 -51 -373 -168 192 226 188
31 63 -130 -432 -217 155 196 176
28 63 -208 -491 -266 118 165 163
25 60 -261 -522 -300 76 131 143
19 50 -261 -491 -303 28 85 106
13 40 -261 -462 -306 -21 39 69
8 30 -261 -431 -309 -69 -7 33
2 20 -261 -401 -312 -118 -52 -4
-4 13 -251 -367 -304 -148 -82 -29
-9 10 -220 -326 -272 -137 -83 -33
-14 8 -189 -284 -241 -126 -85 -38
-18 6 -158 -243 -210 -115 -86 -43
-23 3 -128 -202 -178 -104 -87 -48
-27 1 -102 -165 -150 -93 -85 -50
-25 -2 -87 -141 -129 -80 -73 -45
-22 -5 -71 -115 -107 -69 -62 -40
-20 -7 -56 -91 -86 -57 -52 -35
-18 -9 -40 -65 -64 -45 -40 -31
-16 -11 -29 -46 -48 -35 -32 -27
-14 -11 -24 -36 -41 -31 -29 -25
-12 -11 -19 -28 -35 -27 -26 -23
-10 -12 -15 -20 -29 -23 -23 -22
-8 -12 -10 -11 -23 -19 -20 -20
-6 -13 -6 -4 -18 -16 -17 -18
-6 -13 -4 0 -16 -16 -17 -18
-6 -13 -2 3 -13 -16 -17 -18
-6 -13 1 6 -11 -16 -17 -18
-6 -13 3 9 -9 -16 -17 -18
-7 -12 5 12 -7 -15 -16 -19
-7 -12 5 13 -7 -15 -16 -18
-7 -13 5 13 -7 -15 -16 -18
-6 -13 6 14 -7 -14 -16 -17
-6 -14 6 15 -7 -14 -16 -16
-5 -15 7 16 -7 -13 -15 -15
-5 -15 7 17 -6 -13 -15 -15
-5 -15 8 18 -4 -13 -15 -15
-6 -14 8 19 -3 -14 -15 -16
-6 -14 9 20 0 -14 -15 -16
-7 -13 10 21 1 -15 -16 -17
-5 -12 10 21 1 -14 -15 -17
-3 -12 11 22 1 -14 -15 -17
0 -11 11 22 0 -13 -14 -17
2 -10 12 23 0 -12 -13 -17
4 -9 13 24 -2 -11 -12 -16
3 -9 14 24 0 -11 -12 -16
2 -9 15 24 1 -11 -12 -16
1 -9 16 25 2 -10 -11 -16
-2 -9 18 25 3 -10 -11 -16
-3 -8 19 26 4 -9 -10 -15
-3 -9 18 26 3 -9 -10 -15
-4 -10 17 26 3 -9 -10 -15
-4 -11 16 26 2 -9 -10 -16
-5 -13 14 26 1 -9 -10 -16
-6 -14 13 27 0 -9 -11 -17
-6 -14 14 28 1 -9 -11 -17
-6 -14 15 30 2 -9 -11 -17
-5 -13 16 31 3 -9 -11 -17
-5 -13 17 33 5 -9 -11 -17
-4 -12 18 34 6 -8 -10 -16
-4 -12 18 35 6 -8 -10 -16
-4 -12 18 35 6 -8 -10 -15
-4 -12 18 36 6 -8 -10 -15
-4 -12 18 37 6 -8 -10 -14
-5 -12 18 38 6 -7 -10 -13
0 -12 18 38 6 -8 -10 -14
3 -12 18 38 6 -8 -11 -14
7 -11 18 38 7 -9 -11 -15
10 -11 18 38 7 -10 -12 -16
12 -10 17 39 8 -11 -13 -17
8 -10 17 42 9 -9 -11 -15
4 -10 18 44 11 -8 -10 -13
0 -10 18 45 12 -6 -8 -12
-5 -10 19 47 13 -5 -7 -10
-9 -10 20 49 15 -3 -5 -8
-8 -10 20 49 15 -3 -5 -8
-6 -10 20 50 15 -3 -5 -8
-5 -10 21 50 15 -4 -5 -9
-4 -10 21 51 15 -4 -5 -9
-2 -11 22 52 16 -5 -6 -10
-3 -11 22 53 17 -4 -5 -9
-3 -11 22 54 18 -3 -5 -9
-4 -11 22 55 19 -2 -4 -8
-5 -11 22 57 20 0 -3 -7
-6 -10 23 58 21 1 -2 -6
-4 -9 23 59 22 1 -2 -6
-2 -9 23 60 23 1 -2 -6
1 -8 23 61 24 1 -2 -6
3 -7 23 62 25 1 -2 -6
5 -6 23 63 26 2 0 -6
5 -6 23 64 27 2 0 -6
5 -6 23 66 27 3 1 -6
5 -6 24 67 28 3 1 -5
5 -6 24 68 29 4 2 -5
4 -5 25 70 30 5 3 -4
4 -5 25 71 31 5 3 -4
5 -5 25 72 32 5 3 -3
5 -5 25 73 33 6 3 -3
6 -5 25 75 35 6 3 -2
7 -4 25 76 36 7 4 0
7 -4 25 76 36 8 5 1
6 -4 25 77 37 9 6 2
6 -4 25 77 37 10 7 3
5 -4 25 78 38 12 9 5
4 -3 24 79 39 13 10 6
4 -2 24 79 40 13 10 6
4 -2 24 79 42 13 10 6
5 0 23 80 43 13 10 6
5 1 23 80 44 13 10 6
6 2 22 81 45 14 10 6
6 2 22 81 45 14 11 7
5 2 22 81 45 15 12 8
5 3 21 81 46 15 13 9
4 3 21 81 46 16 15 10
3 4 20 82 47 17 16 11
4 4 20 82 47 17 16 11
6 4 20 82 48 18 16 12
7 5 19 82 49 19 17 13
8 5 19 82 50 20 17 14
10 6 18 81 51 21 18 15
11 6 18 80 50 21 18 15
13 6 17 78 49 21 18 15
14 7 16 76 48 21 18 15
15 7 15 75 46 21 18 15
17 8 14 73 45 22 18 16
16 8 14 73 46 22 18 16
14 9 13 72 47 22 18 17
12 10 12 72 48 22 19 18
11 11 11 71 49 22 19 19
9 12 10 70 50 23 20 20
9 12 9 68 48 23 20 20
9 11 8 66 46 23 20 20
9 11 7 63 45 22 19 20
9 10 6 61 43 22 19 20
8 9 5 59 40 21 18 21
8 9 5 57 40 20 18 21
9 10 4 55 39 19 17 21
10 10 3 52 38 18 16 20
11 11 2 50 37 17 15 20
12 12 1 48 36 16 14 19
12 12 1 46 34 15 14 19
12 12 1 44 32 14 13 19
13 12 1 42 31 13 12 19
13 12 1 39 29 12 11 19
14 11 2 37 27 11 10 19
13 11 2 37 27 11 10 19
12 11 2 36 27 10 10 18
11 11 1 36 26 9 9 18
9 11 1 35 26 8 9 17
8 11 0 34 25 7 8 16
8 11 0 32 23 6 7 15
8 11 0 30 21 5 6 14
8 10 -2 28 19 4 5 13
8 10 -2 26 17 2 4 12
8 9 -3 24 15 1 3 11
8 9 -3 24 14 0 2 11
8 9 -3 24 13 -3 0 11
8 9 -4 23 12 -5 -2 10
8 9 -4 23 11 -6 -3 10
8 8 -5 22 10 -8 -5 9
8 8 -5 22 10 -8 -5 9
9 9 -5 22 10 -8 -5 9
9 10 -5 21 10 -9 -6 9
10 11 -5 21 10 -9 -6 9
11 12 -6 20 9 -10 -7 9
10 12 -6 20 9 -10 -7 9
9 11 -6 20 9 -11 -7 9
8 10 -6 20 9 -11 -7 9
7 9 -6 20 9 -12 -7 9
6 8 -5 21 9 -13 -8 8
6 9 -5 21 9 -13 -8 8
6 10 -5 22 9 -13 -8 9
6 11 -5 23 10 -13 -8 9
6 12 -5 24 10 -13 -8 10
6 13 -4 25 11 -12 -8 11
6 13 -4 25 11 -12 -8 11
6 12 -4 25 12 -12 -8 11
6 12 -4 26 12 -12 -8 10
6 11 -4 26 13 -12 -8 10
6 10 -3 27 14 -11 -7 9
6 10 -3 27 14 -11 -7 9
6 10 -3 28 14 -11 -6 9
6 10 -3 28 14 -10 -6 10
6 10 -3 29 14 -10 -5 10
6 11 -2 30 15 -9 -4 11
8 11 -2 30 15 -9 -4 11
10 11 -2 29 15 -9 -4 11
12 11 -2 29 16 -9 -4 10
14 11 -2 28 16 -9 -4 10
16 12 -3 27 17 -9 -5 9
15 12 -2 27 17 -7 -4 10
13 12 1 27 17 -6 -2 11
11 12 3 27 17 -4 1 12
10 12 4 27 17 -2 2 14
8 11 6 26 18 1 4 15
7 11 6 26 18 1 4 14
5 10 5 26 18 0 3 13
3 10 4 26 17 -2 2 12
2 9 3 26 17 -3 1 11
0 8 2 26 16 -4 0 10
0 7 2 24 14 -4 0 9
0 6 2 21 12 -4 0 8
0 5 2 19 10 -4 -2 7
0 4 2 16 8 -4 -2 6
-2 3 2 14 6 -5 -3 5
-2 3 2 14 6 -6 -4 5
-2 2 2 14 6 -7 -6 4
-2 2 1 13 5 -8 -7 3
-2 1 1 13 5 -10 -8 2
-2 0 0 12 4 -11 -10 1
-2 0 0 12 4 -11 -10 1
-2 0 0 12 3 -11 -10 1
0 1 1 12 2 -12 -10 0
0 1 1 12 1 -12 -10 0
1 2 2 11 0 -13 -11 -2
2 2 2 11 0 -13 -12 -2
3 1 2 10 -2 -14 -14 -3
4 1 1 10 -2 -14 -16 -4
5 0 1 9 -3 -15 -17 -5
6 -2 0 8 -4 -16 -19 -6
6 -2 0 9 -4 -16 -19 -6
5 -2 1 10 -4 -15 -19 -6
4 -2 1 11 -3 -15 -19 -6
3 -2 2 12 -3 -14 -19 -6
2 -3 3 13 -2 -13 -18 -5
0 -3 3 14 0 -13 -17 -5
-3 -3 4 16 2 -12 -16 -4
-5 -2 5 17 3 -12 -15 -4
-7 -2 6 18 4 -11 -14 -3
-9 0 7 20 6 -10 -12 -2
-8 0 7 20 6 -10 -12 -2
-7 0 7 20 6 -10 -12 -2
-6 1 7 20 6 -10 -12 -2
-5 1 7 20 6 -10 -12 -2
-4 2 6 19 6 -9 -12 -3
-4 2 6 19 6 -9 -12 -3
-4 2 6 19 7 -8 -12 -3
-4 2 5 19 8 -8 -12 -2
-4 2 5 19 9 -7 -12 -2
-3 2 4 20 10 -6 -12 0
-2 2 4 20 10 -5 -12 0
0 2 3 20 11 -4 -11 1
1 3 3 20 11 -3 -10 2
2 3 2 20 12 -2 -9 3
3 4 1 20 13 0 -8 4
3 4 1 20 13 0 -8 4
3 4 1 20 14 1 -7 4
4 4 1 20 15 2 -7 4
4 4 1 20 16 3 -6 4
5 4 0 21 17 4 -5 5
4 4 0 21 17 5 -3 5
2 4 0 21 17 6 -2 6
0 5 1 21 17 7 1 7
-2 5 1 21 17 8 3 8
-4 6 2 21 18 9 5 9
-4 6 2 21 18 9 5 9
-4 6 2 21 19 10 5 9
-4 6 3 21 20 10 5 10
-4 6 3 21 21 11 5 10
-3 7 4 21 22 12 6 11
-3 7 3 20 22 12 6 11
-3 7 2 19 22 12 7 11
-3 6 1 17 21 12 7 11
-3 6 0 16 21 12 8 11
-2 5 -2 14 20 12 9 11
2 5 -2 13 19 12 9 11
4 5 -2 12 18 11 8 11
7 6 -3 11 16 10 8 10
10 6 -3 10 15 9 7 10
13 7 -4 8 13 8 6 9
11 7 -4 8 13 8 6 9
8 7 -4 8 12 8 6 9
6 7 -4 8 11 8 6 9
4 7 -4 8 10 8 6 9
1 8 -4 9 9 9 7 10
0 8 -4 9 9 9 7 10
-2 8 -3 9 10 9 7 10
-3 8 -3 9 10 10 7 10
-4 8 -2 9 11 10 7 10
-5 8 0 8 12 11 7 11
-5 7 0 7 11 10 7 11
-4 6 -2 6 10 9 6 10
-4 5 -2 5 8 7 5 10
-3 4 -3 4 7 6 4 9
-2 3 -4 3 5 4 3 8
-2 3 -4 3 5 4 3 8
0 3 -4 3 4 3 2 7
0 3 -5 2 3 2 1 7
1 3 -5 2 2 1 0 6
2 2 -6 1 1 0 -2 5
2 2 -6 1 1 0 -2 5
2 2 -5 1 1 0 -2 5
1 3 -5 1 0 0 -2 5
1 3 -4 1 0 0 -2 5
0 4 -3 0 -2 1 -3 5
0 4 -3 0 -2 1 -3 5
0 4 -3 -2 -2 0 -4 4
1 4 -3 -3 -2 -2 -4 4
1 4 -3 -4 -2 -3 -5 3
2 5 -4 -5 -3 -4 -6 2
1 5 -4 -5 -3 -4 -6 2
0 4 -4 -5 -4 -4 -6 2
-2 3 -4 -6 -5 -5 -6 1
-3 2 -4 -6 -6 -5 -6 1
-4 1 -4 -7 -7 -6 -5 0
-4 1 -4 -7 -7 -6 -6 0
-4 1 -4 -7 -8 -6 -7 -2
-3 1 -4 -8 -8 -7 -8 -2
-3 1 -4 -8 -9 -7 -9 -3
-2 1 -4 -9 -10 -8 -10 -4
-2 1 -4 -9 -10 -8 -10 -4
-2 1 -4 -9 -11 -8 -10 -4
-2 0 -4 -9 -11 -8 -10 -4
-2 0 -4 -9 -12 -8 -10 -4
-3 -2 -5 -10 -13 -9 -11 -4
-3 -2 -5 -10 -13 -9 -11 -4
-4 -2 -5 -10 -13 -9 -11 -4
-4 -2 -5 -10 -13 -9 -11 -4
-5 -2 -5 -10 -13 -9 -11 -4
-6 0 -6 -9 -13 -10 -12 -5
-6 0 -6 -9 -13 -10 -12 -5
-5 0 -6 -9 -13 -10 -12 -5
-4 0 -6 -9 -13 -10 -12 -5
-3 0 -6 -9 -13 -10 -12 -5
-2 0 -5 -9 -13 -11 -13 -5
-2 0 -5 -9 -13 -11 -13 -5
-2 0 -5 -9 -13 -11 -13 -5
-3 0 -5 -9 -13 -11 -13 -5
-3 0 -5 -9 -13 -11 -13 -5
-4 0 -4 -9 -12 -11 -13 -6
-4 0 -4 -9 -12 -11 -13 -6
-4 0 -5 -9 -13 -11 -13 -6
-4 0 -5 -9 -13 -11 -14 -6
-4 0 -6 -9 -14 -11 -14 -6
-3 -2 -7 -10 -15 -12 -15 -7
-3 -2 -7 -10 -15 -12 -15 -7
-3 -2 -7 -10 -15 -12 -15 -7
-4 -2 -7 -10 -14 -12 -15 -7
-4 -2 -7 -10 -14 -12 -15 -7
-5 0 -6 -11 -13 -12 -15 -7
-5 0 -6 -11 -13 -12 -15 -7
-4 0 -6 -11 -13 -12 -15 -7
-4 0 -6 -11 -13 -12 -14 -7
-3 0 -6 -11 -13 -12 -14 -7
-2 1 -5 -12 -14 -11 -13 -6
-3 1 -5 -12 -14 -11 -13 -6
-4 1 -5 -12 -14 -11 -13 -6
-6 1 -5 -11 -14 -10 -13 -6
-7 1 -5 -11 -14 -10 -13 -6
-9 0 -4 -10 -13 -9 -14 -6
-8 0 -4 -10 -13 -9 -14 -6
-7 0 -4 -10 -13 -9 -14 -6
-5 0 -5 -10 -14 -10 -14 -7
-4 0 -5 -10 -14 -10 -14 -7
-2 -2 -6 -11 -15 -11 -15 -8
-2 -2 -6 -11 -15 -11 -15 -8
-2 -2 -6 -11 -15 -11 -15 -8
0 0 -5 -11 -15 -11 -15 -8
0 0 -5 -11 -15 -11 -15 -8
1 1 -4 -11 -14 -12 -15 -8
0 1 -4 -11 -14 -12 -15 -8
-2 1 -4 -11 -14 -12 -15 -8
-3 1 -4 -10 -14 -11 -15 -8
-4 1 -4 -10 -14 -11 -15 -8
-6 0 -4 -9 -15 -10 -14 -8
-6 0 -4 -9 -15 -10 -14 -8
-6 0 -4 -9 -15 -10 -14 -8
-5 0 -4 -9 -15 -10 -14 -8
-5 0 -4 -9 -15 -10 -14 -8
-4 0 -3 -10 -15 -11 -15 -8
-4 0 -3 -10 -15 -11 -15 -8
-5 -2 -3 -10 -15 -11 -15 -8
-6 -2 -3 -10 -15 -10 -15 -8
-7 -3 -3 -10 -15 -10 -15 -8
-8 -4 -3 -11 -15 -9 -14 -9
-7 -4 -3 -11 -15 -9 -14 -9
-5 -3 -3 -11 -15 -10 -15 -9
-3 -3 -3 -12 -15 -11 -15 -10
0 -2 -3 -12 -15 -12 -16 -10
2 0 -4 -13 -16 -13 -17 -11
2 0 -4 -13 -16 -13 -17 -11
1 0 -4 -13 -16 -13 -17 -11
1 0 -4 -13 -16 -13 -17 -11
0 0 -4 -13 -16 -13 -17 -11
-2 -2 -5 -14 -16 -12 -18 -11
-3 -2 -5 -14 -15 -12 -18 -11
-4 -2 -4 -14 -14 -12 -18 -11
-6 -2 -3 -13 -13 -12 -18 -10
-7 -2 -2 -13 -12 -12 -18 -10
-9 -2 0 -12 -11 -11 -17 -9
-9 -2 0 -12 -11 -11 -17 -9
-8 -2 0 -12 -12 -11 -17 -9
-8 -2 0 -12 -13 -11 -18 -9
-7 -2 0 -12 -14 -11 -18 -9
-6 -2 -2 -13 -15 -10 -19 -9
-6 -2 -2 -13 -15 -10 -19 -9
-6 0 -2 -13 -15 -10 -19 -9
-5 0 -2 -13 -14 -11 -19 -9
-5 1 -2 -13 -14 -11 -19 -9
-4 2 -2 -14 -13 -12 -20 -10
-4 2 -2 -14 -13 -12 -20 -10
-3 2 -2 -14 -13 -12 -20 -10
-2 2 -2 -14 -14 -12 -20 -10
0 2 -2 -14 -14 -12 -20 -10
1 2 -2 -14 -15 -11 -19 -9
1 2 -2 -14 -15 -11 -19 -9
0 2 -2 -14 -15 -11 -19 -9
0 1 -3 -14 -15 -11 -20 -10
-2 1 -3 -14 -15 -11 -20 -10
-3 0 -4 -14 -15 -12 -21 -11
-3 0 -4 -14 -15 -12 -21 -11
-2 0 -4 -14 -15 -12 -21 -11
0 0 -4 -15 -16 -13 -21 -11
1 0 -4 -15 -16 -13 -21 -11
2 0 -4 -16 -17 -14 -22 -12
0 0 -3 -15 -16 -13 -22 -12
-3 0 -2 -14 -15 -12 -21 -11
-6 0 0 -13 -14 -11 -21 -11
-8 0 1 -12 -13 -10 -20 -10
-11 -2 2 -11 -12 -9 -19 -9
-10 -2 2 -11 -12 -9 -19 -9
-9 -2 2 -11 -12 -9 -19 -9
-8 0 2 -11 -12 -9 -18 -9
-7 0 2 -11 -12 -9 -18 -9
-6 1 2 -11 -12 -9 -17 -9
-6 1 2 -11 -12 -9 -17 -9
-6 1 2 -11 -12 -9 -18 -9
-6 0 2 -11 -12 -10 -19 -9
-6 0 2 -11 -12 -10 -20 -9
-6 0 2 -11 -12 -10 -20 -9
-7 -2 1 -11 -13 -11 -21 -10
-7 0 1 -11 -13 -11 -21 -10
-6 1 1 -11 -13 -11 -21 -10
-6 2 1 -11 -13 -11 -21 -10
-6 2 1 -11 -13 -11 -21 -10
-5 3 2 -12 -13 -11 -20 -11
-5 2 2 -12 -13 -11 -20 -12
-4 1 1 -12 -13 -11 -20 -12
-4 0 1 -12 -13 -11 -20 -13
-4 -2 1 -12 -13 -11 -20 -13
-3 -3 0 -12 -12 -12 -21 -14
-3 -2 0 -12 -12 -12 -21 -14
-3 0 0 -12 -12 -12 -20 -14
-3 1 0 -12 -12 -12 -20 -14
-3 2 0 -12 -12 -12 -20 -14
-2 3 0 -12 -13 -11 -19 -13
-3 2 1 -11 -13 -11 -19 -13
-4 1 1 -11 -13 -11 -19 -13
-5 0 2 -10 -13 -11 -19 -13
-6 -2 2 -10 -13 -11 -19 -13
-7 -3 3 -9 -12 -10 -19 -13
-7 -2 4 -8 -11 -10 -18 -13
-7 0 5 -8 -10 -9 -18 -12
-7 1 6 -7 -9 -9 -17 -12
-7 2 7 -7 -9 -9 -17 -12
-6 4 8 -6 -8 -8 -16 -11
-5 5 8 -6 -8 -8 -16 -11
-4 6 9 -6 -8 -8 -17 -12
-3 7 9 -6 -8 -8 -17 -12
-3 8 9 -6 -8 -8 -17 -12
-2 9 11 -7 -7 -8 -18 -13
-2 9 12 -7 -7 -8 -18 -13
-2 9 13 -7 -7 -8 -18 -14
-2 9 14 -7 -7 -8 -18 -14
-2 9 15 -7 -7 -8 -18 -14
0 10 18 -8 -8 -8 -18 -15
-2 12 20 -7 -7 -7 -18 -14
-2 13 23 -6 -7 -6 -18 -13
-3 15 25 -5 -6 -5 -18 -12
-3 16 27 -4 -6 -4 -18 -11
-4 17 28 -3 -5 -3 -18 -10
-4 17 28 -2 -4 -3 -17 -10
-4 18 28 0 -3 -3 -16 -10
-4 18 28 1 -2 -3 -15 -10
-4 18 28 1 0 -3 -14 -10
-5 19 22 1 1 -2 -13 -10
-4 20 17 -2 1 -2 -13 -10
-3 21 11 -3 0 -2 -13 -10
-2 22 5 -5 0 -2 -13 -10
-2 23 0 -6 0 -2 -13 -10
1 24 -3 -7 -2 -2 -14 -9
2 25 -5 -8 -2 0 -13 -8
3 26 -6 -9 -2 0 -12 -7
4 27 -8 -10 -2 1 -11 -6
5 28 -9 -10 -2 1 -10 -6
5 29 -9 -10 -2 2 -9 -5
4 28 -8 -9 0 2 -9 -5
3 27 -6 -7 1 3 -9 -5
2 26 -5 -6 2 3 -9 -5
1 26 -4 -5 3 3 -9 -5
0 24 -4 -5 4 4 -9 -5
1 23 -6 -6 3 3 -9 -5
2 21 -7 -8 2 3 -9 -6
3 20 -9 -9 1 2 -9 -6
4 19 -10 -10 0 2 -9 -6
5 17 -11 -11 -2 1 -10 -7
5 15 -11 -12 -3 1 -11 -8
4 13 -11 -13 -3 0 -12 -9
4 11 -11 -14 -4 0 -13 -10
4 10 -11 -14 -4 0 -14 -10
1 8 -11 -15 -5 -2 -15 -11
-2 6 -9 -15 -5 -2 -15 -12
-4 5 -8 -14 -5 -2 -15 -12
-6 3 -6 -14 -5 -2 -15 -13
-8 2 -5 -14 -5 -2 -15 -13
-8 1 -4 -14 -6 -4 -17 -15
-7 0 -4 -15 -7 -5 -18 -17
-6 -2 -4 -16 -8 -7 -20 -19
-5 -3 -4 -17 -9 -8 -21 -21
-4 -4 -4 -18 -10 -9 -22 -22
-3 -5 -5 -19 -11 -10 -23 -23
-4 -5 -5 -19 -11 -10 -24 -23
-5 -6 -5 -19 -11 -11 -24 -23
-6 -6 -5 -19 -11 -11 -25 -23
-6 -6 -5 -19 -11 -11 -25 -23
-7 -7 -5 -20 -12 -12 -26 -24
-6 -7 -5 -20 -12 -12 -26 -24
-6 -7 -5 -20 -12 -12 -26 -25
-5 -7 -5 -20 -12 -12 -26 -25
-5 -7 -5 -20 -12 -12 -26 -25
-4 -6 -5 -19 -11 -13 -26 -26
-5 -6 -4 -18 -10 -12 -25 -25
-6 -6 -3 -17 -9 -11 -23 -25
-7 -6 -2 -16 -8 -10 -22 -24
-8 -6 -2 -15 -7 -9 -21 -24
-9 -7 2 -9 1 -5 -19 -23
-8 -7 4 -3 8 1 -18 -22
-7 -7 7 3 16 5 -16 -22
-6 -7 9 9 23 9 -15 -21
-6 -7 11 15 30 13 -14 -21
0 0 30 53 62 37 5 -9
4 8 52 94 96 63 24 5
8 16 72 136 130 90 43 17
13 24 93 177 163 115 62 30
17 32 114 218 198 141 81 43
20 40 134 191 188 169 115 70
23 48 152 157 173 196 151 100
26 56 172 123 157 224 187 129
29 64 191 90 143 252 223 158
32 72 211 56 128 279 258 187
33 74 144 -48 55 262 255 189
32 76 68 -157 -22 238 247 187
31 78 -8 -268 -100 215 239 185
30 80 -83 -378 -178 191 231 183
29 82 -159 -487 -256 168 223 181
23 75 -187 -496 -273 118 176 149
17 66 -208 -493 -284 67 125 115
11 56 -230 -490 -296 16 73 81
5 47 -252 -487 -307 -35 22 47
-2 36 -273 -484 -318 -87 -30 13
-6 32 -254 -441 -301 -100 -48 -3
-10 28 -228 -395 -278 -110 -62 -15
-15 24 -201 -348 -256 -120 -76 -28
-19 20 -176 -301 -234 -131 -90 -41
-23 16 -150 -254 -212 -140 -104 -54
-22 13 -131 -221 -184 -127 -98 -54
-19 10 -111 -190 -157 -110 -88 -51
-16 7 -92 -158 -130 -93 -77 -48
-14 4 -72 -127 -102 -75 -67 -45
-11 1 -54 -96 -74 -58 -57 -41
-10 0 -44 -79 -62 -50 -51 -38
-10 0 -35 -66 -51 -43 -46 -35
-10 -2 -27 -52 -40 -35 -41 -32
-10 -2 -19 -38 -29 -28 -36 -29
-10 -2 -10 -24 -19 -21 -31 -26
-9 -3 -8 -19 -15 -20 -30 -25
-9 -4 -6 -16 -13 -20 -30 -25
-8 -4 -4 -13 -11 -20 -30 -25
-8 -5 -3 -9 -8 -20 -30 -25
-8 -5 0 -6 -6 -20 -30 -25
-7 -6 1 -4 -5 -20 -29 -25
-6 -6 2 -3 -4 -19 -28 -25
-6 -6 3 0 -4 -19 -27 -24
-5 -6 4 1 -3 -18 -26 -24
-5 -6 4 2 -3 -18 -26 -24
-4 -7 6 3 -2 -17 -25 -23
-4 -7 7 4 0 -17 -25 -22
-4 -7 8 5 1 -18 -25 -21
-4 -7 9 6 2 -18 -25 -20
-4 -7 10 6 3 -18 -25 -20
-3 -8 11 7 4 -18 -24 -19
-4 -8 11 7 4 -17 -23 -19
-4 -8 11 7 3 -16 -22 -19
-5 -8 11 7 3 -15 -21 -19
-5 -8 11 7 3 -14 -21 -19
-6 -8 10 8 3 -13 -20 -20
-6 -8 11 9 4 -13 -20 -20
-6 -8 12 11 5 -14 -20 -20
-6 -8 13 12 6 -14 -20 -20
-6 -8 13 13 7 -14 -20 -20
-6 -7 14 14 8 -15 -20 -20
-5 -7 14 14 7 -15 -20 -20
-4 -7 14 15 7 -15 -20 -20
-3 -7 14 15 6 -15 -20 -20
-2 -7 14 15 6 -15 -20 -20
0 -7 14 17 5 -14 -21 -20
0 -7 14 18 6 -14 -21 -20
-2 -8 14 19 7 -14 -20 -20
-2 -8 14 20 8 -14 -20 -20
-2 -8 14 21 8 -14 -20 -20
-3 -9 15 22 9 -14 -19 -20
-3 -9 15 23 9 -13 -19 -19
-4 -9 16 24 9 -13 -19 -19
-4 -9 16 25 9 -12 -19 -18
-4 -9 16 25 9 -12 -19 -18
-5 -9 17 26 10 -11 -19 -17
-5 -9 18 27 11 -11 -19 -17
-5 -9 18 28 12 -11 -19 -17
-5 -9 19 29 13 -11 -19 -17
-5 -9 19 30 13 -11 -19 -17
-6 -8 20 31 14 -12 -18 -16
-6 -8 20 32 14 -11 -17 -15
-6 -8 21 32 15 -10 -16 -15
-6 -8 21 33 15 -9 -15 -14
-6 -8 21 33 15 -9 -14 -14
-4 -8 22 34 16 -8 -13 -13
-3 -8 22 34 16 -9 -13 -13
0 -7 21 34 16 -10 -14 -13
2 -7 21 34 16 -11 -14 -13
3 -7 21 34 16 -12 -14 -13
4 -6 20 35 16 -13 -15 -14
3 -6 20 36 17 -12 -15 -14
2 -7 20 37 18 -11 -14 -14
1 -7 20 38 19 -10 -14 -14
1 -7 20 38 20 -9 -14 -14
-2 -8 21 42 22 -8 -12 -12
-3 -7 22 44 25 -7 -11 -11
-4 -7 23 47 27 -6 -10 -9
-5 -6 24 49 29 -5 -8 -7
-6 -6 25 52 31 -4 -7 -6
-7 -5 26 53 32 -3 -6 -5
-6 -5 26 54 32 -2 -6 -5
-6 -6 26 55 32 -2 -6 -5
-5 -6 26 56 32 0 -6 -5
-5 -6 26 56 32 0 -6 -5
-4 -7 26 58 32 1 -5 -4
-3 -6 26 59 34 1 -5 -4
-3 -5 26 61 35 1 -4 -4
-2 -4 26 63 36 1 -4 -4
-2 -3 26 64 37 1 -4 -4
1 -2 25 65 38 1 -3 -3
2 -2 24 65 38 1 -3 -3
4 -2 24 65 38 2 -3 -3
6 -2 23 65 38 2 -3 -3
7 -2 23 65 38 2 -3 -3
8 -2 22 66 39 3 -2 -2
8 0 22 67 40 4 0 1
8 1 23 68 43 5 0 2
8 3 23 70 45 6 1 3
8 4 23 71 46 6 1 4
8 5 24 72 47 8 2 5
7 5 23 72 48 9 4 7
6 5 23 72 48 10 5 8
4 5 22 72 49 12 6 9
3 5 22 72 49 13 7 10
2 5 21 72 50 14 8 11
3 5 20 72 50 14 8 11
3 5 19 72 50 14 8 11
4 5 18 72 50 14 8 11
4 5 18 72 50 14 8 11
5 4 17 72 51 13 8 12
6 5 16 71 51 13 8 13
7 6 15 70 51 14 9 14
8 7 14 69 51 14 9 15
8 7 14 68 51 14 9 15
9 8 13 67 52 15 10 16
10 9 12 67 52 15 10 16
10 10 12 66 52 15 10 16
11 11 11 66 52 15 10 16
11 11 11 66 52 15 10 16
12 12 9 63 52 16 10 16
12 12 8 60 50 16 10 16
13 12 6 58 49 15 9 15
13 12 4 55 48 15 9 15
13 12 3 52 47 15 9 15
14 11 2 51 46 14 8 14
12 11 2 50 46 14 8 15
11 11 2 49 46 14 8 16
10 11 2 48 46 14 8 17
9 11 2 48 46 14 8 18
8 11 3 46 44 15 9 19
8 10 2 43 43 15 9 18
7 9 2 40 40 14 9 18
7 8 1 37 38 14 9 17
7 8 1 35 37 14 9 17
6 7 0 33 36 13 7 16
6 7 0 32 34 11 5 16
5 7 -2 30 33 10 3 15
5 7 -2 28 32 9 1 15
5 7 -2 27 31 8 -2 15
4 8 -3 25 29 7 -3 14
4 7 -4 23 27 7 -4 12
5 7 -4 21 25 7 -4 11
5 6 -5 20 23 7 -5 10
5 6 -5 18 21 7 -5 9
6 5 -6 17 20 7 -6 8
6 6 -6 17 20 7 -6 9
7 7 -5 17 21 7 -6 9
7 8 -5 17 21 7 -6 10
7 9 -5 17 21 7 -6 10
8 10 -4 16 22 6 -7 11
7 9 -4 14 20 5 -8 10
6 8 -5 13 19 4 -8 10
5 7 -5 12 18 3 -9 9
4 7 -5 11 17 2 -9 9
3 6 -6 10 16 1 -10 8
2 4 -7 10 16 -2 -11 8
2 3 -8 10 15 -3 -12 7
1 2 -9 10 15 -4 -13 7
1 1 -9 10 15 -5 -13 7
0 0 -10 9 14 -6 -14 6
2 0 -10 9 14 -6 -14 6
3 0 -10 9 13 -7 -14 6
4 0 -10 9 13 -7 -14 6
5 0 -10 9 13 -7 -14 6
6 1 -11 8 12 -8 -14 6
6 2 -11 10 14 -8 -14 7
6 3 -11 11 15 -8 -14 7
6 4 -11 12 16 -8 -14 8
6 4 -11 13 17 -8 -14 8
6 5 -10 14 18 -8 -14 9
5 5 -9 15 20 -6 -12 10
3 4 -8 15 21 -5 -11 11
1 4 -7 16 22 -4 -10 12
0 4 -7 16 23 -3 -9 12
-2 3 -6 17 24 -2 -8 13
0 3 -6 18 25 0 -8 13
0 3 -6 19 26 0 -8 14
1 3 -6 20 27 1 -8 14
1 3 -6 21 27 1 -8 14
2 4 -6 22 28 2 -7 15
2 4 -6 21 28 3 -6 15
2 4 -5 21 28 4 -5 14
2 4 -5 20 28 5 -4 14
2 4 -5 20 28 5 -3 14
3 4 -4 19 27 6 -2 13
5 4 -4 17 26 5 -2 12
7 3 -5 16 26 5 -3 11
9 3 -5 15 25 4 -3 11
11 3 -5 14 25 4 -3 10
12 2 -6 13 24 3 -4 9
11 1 -6 12 23 3 -4 9
10 0 -6 12 23 3 -4 9
9 0 -6 11 22 3 -4 9
8 -2 -6 11 22 3 -4 9
6 -3 -6 10 21 3 -5 9
4 -3 -5 10 21 3 -5 9
1 -4 -4 9 21 2 -4 9
-2 -4 -4 9 21 2 -4 9
-4 -4 -3 9 21 2 -4 9
-5 -5 -2 8 20 1 -3 8
-5 -6 -2 8 19 1 -4 7
-5 -6 -2 8 19 1 -5 6
-5 -7 -2 8 18 1 -6 5
-5 -7 -2 8 18 1 -7 4
-6 -8 0 7 17 0 -8 3
-6 -8 0 7 17 -3 -8 2
-6 -8 0 7 16 -4 -8 1
-6 -8 0 7 16 -5 -8 1
-6 -8 0 7 16 -6 -8 0
-5 -8 0 6 15 -7 -9 -2
-4 -8 0 6 15 -7 -9 -2
-3 -8 0 6 15 -7 -10 -2
0 -8 0 6 15 -7 -10 -2
1 -8 0 6 15 -7 -10 -2
1 -7 0 7 14 -8 -11 -3
-2 -8 0 8 15 -8 -11 -3
-3 -9 0 9 15 -8 -11 -3
-5 -9 0 11 16 -8 -11 -3
-7 -10 0 12 16 -8 -11 -3
-8 -11 1 13 17 -8 -11 -4
-8 -10 1 13 17 -7 -11 -4
-9 -10 1 13 18 -6 -10 -4
-9 -9 1 13 18 -5 -10 -4
-9 -9 1 13 18 -4 -10 -4
-10 -8 2 14 19 -3 -9 -3
-9 -7 2 14 19 -3 -9 -2
-9 -7 2 14 20 -3 -8 -2
-8 -6 2 14 20 -3 -8 0
-8 -6 2 14 20 -3 -8 0
-7 -5 1 14 21 0 -7 1
-7 -5 1 14 22 1 -5 2
-6 -5 1 15 23 2 -4 2
-6 -5 1 15 24 4 -3 3
-6 -5 1 15 25 5 -2 3
-5 -5 2 16 26 6 0 4
-5 -5 2 16 27 6 0 4
-5 -4 2 16 27 6 1 4
-5 -4 2 16 28 6 1 4
-5 -4 2 16 28 6 1 4
-4 -3 1 15 29 7 2 5
-3 -3 1 15 29 9 3 6
-3 -3 0 14 29 10 4 6
-2 -3 0 14 29 11 4 7
-2 -3 0 14 29 12 5 7
1 -2 -2 13 30 13 6 8
2 0 -2 13 30 13 6 8
4 0 -3 13 30 13 7 8
5 1 -3 13 30 13 7 8
7 1 -3 13 30 13 7 8
7 2 -4 13 29 13 8 9
4 2 -4 12 29 14 9 9
2 1 -4 12 29 15 9 10
0 1 -4 11 29 15 10 10
-4 1 -4 11 29 16 10 10
-5 0 -4 10 30 17 11 11
-6 0 -4 10 30 17 11 11
-6 0 -4 10 30 17 12 12
-7 0 -4 10 30 17 12 12
-7 0 -4 10 30 17 12 12
-8 1 -4 11 30 18 13 13
-7 1 -5 10 28 17 12 12
-7 1 -5 9 27 17 12 12
-6 1 -6 9 26 16 11 11
-6 1 -6 8 25 16 11 11
-5 0 -7 7 24 15 10 10
-5 0 -7 7 24 15 10 10
-5 0 -7 7 24 15 10 10
-5 0 -7 7 24 15 10 10
-5 0 -7 7 24 15 10 10
-5 0 -6 6 23 14 10 11
-4 0 -6 5 21 13 10 10
-4 0 -6 4 20 13 9 9
-3 0 -6 3 18 12 9 8
-3 0 -6 2 17 12 9 7
0 -2 -7 1 16 11 8 6
2 -2 -7 0 14 9 6 5
4 -2 -8 -2 13 8 5 4
6 -2 -8 -2 11 6 4 3
8 -2 -8 -3 10 5 3 2
9 -2 -9 -4 9 4 2 1
7 -3 -8 -4 9 4 2 1
6 -4 -8 -4 9 5 3 2
4 -4 -7 -4 9 5 3 2
3 -5 -7 -4 9 5 3 2
1 -6 -6 -4 9 6 4 3
-2 -7 -6 -4 8 5 4 3
-3 -8 -6 -5 7 4 3 3
-5 -8 -6 -5 7 4 3 3
-7 -9 -6 -5 6 3 3 3
-8 -10 -7 -6 5 2 2 2
-6 -9 -7 -7 4 1 1 2
-5 -8 -7 -7 3 1 1 1
-4 -8 -7 -8 2 0 0 1
-3 -7 -7 -8 1 0 0 1
-2 -6 -8 -9 0 -2 -2 0
-2 -6 -8 -9 0 -2 -2 0
0 -7 -8 -9 -2 -3 -3 -2
0 -8 -8 -9 -2 -4 -3 -2
0 -8 -8 -9 -2 -4 -3 -2
1 -9 -8 -9 -3 -5 -4 -3
1 -9 -8 -9 -4 -5 -4 -4
0 -9 -8 -10 -5 -5 -5 -5
0 -9 -8 -10 -6 -5 -6 -6
0 -9 -8 -10 -7 -5 -6 -7
-3 -10 -9 -11 -8 -6 -7 -8
-4 -10 -8 -11 -8 -6 -6 -7
-6 -9 -7 -11 -7 -6 -5 -6
-7 -9 -7 -11 -7 -6 -5 -6
-9 -9 -6 -11 -7 -6 -4 -5
-10 -8 -5 -10 -6 -6 -3 -4
-10 -9 -5 -10 -7 -6 -4 -5
-9 -10 -6 -10 -8 -6 -5 -6
-8 -10 -7 -10 -9 -6 -6 -6
-8 -11 -7 -10 -10 -6 -7 -7
-7 -12 -8 -11 -11 -7 -8 -8
-7 -12 -8 -11 -11 -7 -8 -8
-7 -12 -8 -12 -11 -8 -8 -8
-7 -12 -8 -12 -11 -9 -8 -8
-7 -12 -8 -12 -11 -9 -8 -8
-6 -12 -9 -13 -11 -10 -8 -8
-5 -12 -9 -13 -11 -10 -8 -8
-4 -12 -9 -13 -12 -10 -9 -8
-4 -12 -9 -13 -12 -10 -9 -8
-3 -12 -9 -13 -12 -10 -9 -8
-2 -11 -10 -13 -13 -10 -10 -9
-3 -11 -10 -13 -13 -10 -10 -9
-4 -11 -9 -12 -13 -10 -10 -9
-5 -11 -9 -12 -13 -10 -10 -9
-6 -11 -9 -12 -13 -10 -10 -9
-7 -10 -8 -11 -12 -9 -9 -8
-7 -10 -8 -11 -12 -9 -9 -8
-7 -11 -8 -11 -13 -10 -10 -9
-7 -11 -8 -11 -13 -10 -11 -9
-7 -11 -8 -11 -13 -10 -11 -9
-7 -12 -9 -12 -14 -11 -12 -10
-7 -12 -9 -12 -14 -11 -12 -10
-6 -12 -9 -12 -14 -11 -12 -10
-6 -12 -9 -12 -14 -11 -12 -10
-6 -12 -9 -12 -14 -11 -12 -10
-5 -12 -8 -12 -13 -11 -12 -11
-5 -12 -8 -12 -13 -11 -12 -11
-5 -12 -8 -12 -14 -11 -12 -11
-5 -12 -8 -12 -14 -11 -12 -11
-5 -12 -8 -12 -14 -11 -12 -11
-4 -11 -8 -12 -15 -11 -13 -12
-4 -11 -8 -12 -15 -11 -13 -12
-4 -11 -8 -11 -15 -12 -13 -12
-4 -11 -8 -10 -15 -12 -13 -12
-4 -11 -8 -10 -15 -12 -13 -12
-3 -11 -9 -9 -15 -13 -13 -12
-3 -11 -9 -9 -15 -13 -13 -12
-4 -11 -9 -9 -16 -13 -14 -13
-4 -11 -9 -9 -16 -13 -14 -13
-4 -11 -9 -9 -16 -13 -14 -13
-5 -11 -9 -10 -17 -13 -15 -14
-4 -11 -9 -10 -17 -13 -15 -14
-3 -11 -9 -10 -17 -13 -14 -14
-3 -11 -9 -10 -17 -13 -14 -14
-2 -11 -9 -10 -17 -13 -14 -14
0 -11 -8 -11 -16 -13 -13 -14
-2 -11 -8 -11 -16 -13 -13 -14
-4 -11 -8 -11 -16 -12 -12 -14
-5 -11 -8 -11 -16 -12 -11 -14
-6 -11 -8 -11 -16 -12 -11 -14
-7 -12 -7 -11 -16 -11 -10 -13
-7 -12 -7 -11 -16 -11 -10 -13
-6 -11 -7 -11 -15 -11 -10 -13
-6 -11 -7 -11 -15 -11 -10 -13
-6 -11 -7 -11 -15 -11 -10 -13
-5 -10 -6 -10 -14 -12 -9 -13
-5 -10 -6 -10 -14 -12 -9 -13
-5 -10 -6 -10 -15 -12 -10 -13
-5 -10 -6 -10 -16 -12 -10 -13
-5 -10 -6 -10 -16 -12 -10 -13
-5 -11 -6 -10 -17 -11 -11 -14
-5 -11 -6 -10 -17 -11 -11 -14
-4 -11 -7 -10 -17 -12 -11 -15
-4 -11 -7 -10 -17 -13 -11 -15
-4 -11 -7 -10 -17 -13 -11 -15
-3 -11 -8 -11 -18 -14 -11 -16
-3 -11 -8 -11 -18 -13 -11 -16
-3 -11 -8 -11 -18 -12 -11 -16
-3 -11 -8 -11 -18 -12 -11 -16
-3 -11 -8 -11 -18 -11 -11 -16
-4 -10 -7 -11 -18 -10 -12 -16
-4 -10 -7 -11 -18 -10 -12 -16
-4 -10 -7 -11 -18 -11 -12 -16
-4 -10 -7 -11 -18 -12 -12 -16
-4 -10 -7 -11 -18 -12 -12 -16
-4 -11 -6 -11 -17 -13 -12 -16
-3 -11 -6 -11 -17 -13 -12 -16
-2 -10 -5 -11 -16 -12 -12 -15
0 -10 -4 -11 -16 -12 -12 -15
1 -10 -4 -11 -16 -12 -12 -15
2 -9 -3 -11 -15 -11 -11 -14
2 -9 -3 -11 -15 -11 -11 -14
1 -9 -3 -11 -15 -11 -11 -14
1 -9 -3 -11 -15 -11 -11 -14
1 -9 -3 -11 -15 -11 -11 -14
0 -10 -4 -10 -16 -10 -11 -13
0 -10 -4 -10 -16 -10 -11 -13
-2 -10 -4 -10 -16 -10 -11 -14
-2 -10 -4 -10 -16 -10 -11 -14
-2 -10 -4 -10 -16 -10 -11 -14
-3 -10 -5 -10 -16 -11 -11 -15
-3 -10 -5 -10 -16 -11 -11 -15
-3 -10 -5 -10 -16 -11 -11 -15
-3 -10 -5 -10 -16 -11 -11 -15
-3 -10 -5 -10 -16 -11 -11 -15
-4 -11 -5 -10 -16 -11 -12 -15
-4 -11 -5 -10 -16 -11 -12 -15
-4 -10 -5 -10 -16 -11 -12 -15
-4 -10 -5 -10 -16 -11 -12 -15
-4 -10 -5 -10 -16 -11 -12 -15
-4 -9 -4 -11 -15 -11 -12 -16
-3 -8 -4 -11 -15 -11 -12 -16
-2 -7 -3 -11 -15 -11 -12 -15
-2 -7 -3 -11 -15 -11 -12 -14
0 -6 -3 -11 -15 -11 -12 -14
1 -5 -2 -10 -14 -11 -11 -13
0 -5 -2 -10 -14 -11 -11 -13
-2 -6 -2 -10 -14 -10 -11 -13
-3 -6 -2 -10 -14 -10 -11 -13
-4 -6 -2 -10 -14 -10 -11 -13
-5 -7 -2 -9 -13 -9 -10 -12
-5 -7 -2 -9 -13 -9 -10 -12
-5 -8 -2 -9 -13 -9 -10 -12
-5 -9 -2 -9 -13 -9 -10 -12
-5 -9 -2 -9 -13 -9 -10 -12
-6 -10 -2 -10 -14 -10 -11 -13
-6 -10 0 -10 -14 -10 -11 -13
-6 -10 1 -9 -14 -9 -11 -13
-6 -10 1 -9 -14 -9 -11 -13
-6 -10 2 -9 -14 -9 -11 -13
-5 -10 3 -8 -13 -8 -11 -12
-4 -8 4 -7 -13 -8 -11 -12
-3 -5 5 -6 -12 -8 -10 -11
-3 -3 6 -5 -11 -8 -10 -10
-2 0 7 -4 -11 -8 -10 -10
0 2 8 -3 -10 -8 -9 -9
0 2 8 -3 -10 -8 -9 -9
0 2 9 -3 -10 -7 -8 -9
0 2 10 -3 -10 -7 -8 -9
0 2 10 -3 -10 -7 -8 -9
1 3 12 -3 -10 -6 -7 -10
1 5 15 0 -9 -6 -7 -10
2 7 17 2 -8 -5 -7 -9
2 8 20 3 -8 -4 -7 -8
2 10 22 5 -7 -4 -7 -8
3 11 24 6 -6 -3 -8 -7
1 11 25 6 -6 -3 -7 -6
0 12 26 6 -5 -2 -6 -5
-2 13 26 6 -4 0 -5 -5
-4 13 27 6 -4 0 -4 -4
-5 14 25 7 -3 1 -3 -3
-3 14 19 6 -3 1 -3 -3
-2 14 13 5 -4 0 -3 -3
0 14 7 5 -4 0 -3 -3
2 14 0 4 -4 0 -3 -3
3 15 -4 3 -5 -2 -2 -3
3 16 -6 1 -5 0 0 -3
4 17 -8 -2 -5 1 1 -2
5 18 -9 -3 -5 1 1 -2
5 19 -11 -5 -5 2 2 -2
6 20 -12 -6 -6 3 3 0
6 20 -11 -6 -6 3 3 0
6 20 -9 -5 -5 3 3 1
6 20 -8 -4 -4 3 3 2
6 20 -7 -4 -4 3 3 2
7 20 -6 -3 -3 4 3 3
7 18 -7 -3 -3 4 3 3
8 16 -8 -4 -4 3 2 2
9 14 -9 -4 -5 3 2 2
9 12 -10 -4 -5 3 2 2
10 11 -11 -5 -6 2 1 1
10 9 -11 -5 -6 2 1 1
9 8 -11 -6 -6 1 1 1
8 7 -11 -6 -6 1 1 1
8 5 -11 -6 -6 1 1 1
7 3 -12 -7 -7 0 1 2
5 1 -11 -7 -8 -2 0 0
4 -3 -10 -8 -9 -3 -3 -3
3 -6 -9 -8 -9 -3 -4 -4
1 -8 -8 -8 -10 -4 -5 -6
0 -10 -7 -9 -11 -5 -6 -7
-2 -10 -7 -9 -12 -7 -7 -8
-4 -10 -7 -10 -13 -8 -8 -9
-5 -10 -7 -11 -13 -9 -9 -10
-6 -10 -7 -11 -14 -11 -10 -11
-7 -11 -6 -12 -15 -12 -11 -12
-5 -11 -6 -12 -15 -12 -11 -12
-4 -12 -6 -13 -16 -12 -11 -13
-3 -12 -6 -13 -16 -12 -11 -14
0 -12 -6 -13 -16 -12 -11 -14
1 -13 -6 -14 -17 -12 -12 -15
1 -13 -6 -14 -17 -12 -12 -15
0 -14 -6 -14 -17 -13 -12 -16
0 -14 -6 -14 -17 -13 -12 -16
0 -14 -6 -14 -17 -13 -12 -16
-2 -15 -6 -14 -18 -14 -12 -17
-3 -15 -6 -13 -18 -13 -12 -17
-3 -15 -5 -12 -18 -12 -12 -17
-4 -15 -4 -11 -18 -11 -11 -16
-5 -15 -4 -10 -18 -10 -11 -16
-6 -16 -2 -7 -14 -7 -9 -15
-6 -16 1 0 -6 -3 -6 -14
-6 -15 3 6 2 2 -3 -13
-6 -14 6 12 10 7 1 -11
-6 -14 8 18 18 11 4 -10
-6 -10 19 39 37 25 13 -4
-3 -2 39 78 70 50 30 8
0 6 60 117 103 73 47 19
3 14 80 156 136 98 63 30
6 22 101 195 169 121 79 42
11 29 120 202 181 149 106 61
18 37 139 173 171 180 142 89
25 46 157 144 159 210 178 116
32 54 176 115 149 240 213 144
39 62 194 86 138 270 248 172
43 68 170 17 95 277 266 186
40 72 98 -95 17 256 261 186
37 76 26 -205 -61 235 256 186
34 80 -47 -317 -138 214 250 186
32 85 -118 -428 -216 193 244 186
28 81 -169 -486 -264 157 217 170
23 70 -194 -487 -278 105 165 136
19 59 -220 -487 -294 53 114 102
14 48 -246 -488 -309 0 63 68
9 36 -272 -489 -324 -53 12 35
4 29 -274 -469 -323 -87 -23 11
-3 24 -248 -423 -303 -101 -39 -4
-9 20 -222 -377 -282 -115 -57 -18
-15 16 -196 -329 -262 -129 -73 -32
-20 12 -170 -283 -241 -143 -90 -47
-24 8 -146 -243 -217 -143 -95 -54
-22 4 -127 -211 -188 -124 -83 -50
-21 1 -107 -178 -158 -106 -73 -47
-19 -3 -88 -145 -130 -88 -62 -44
-17 -7 -68 -112 -101 -69 -52 -39
-15 -9 -53 -89 -79 -56 -44 -36
-13 -9 -44 -74 -67 -49 -38 -33
-10 -9 -34 -59 -56 -40 -33 -29
-7 -8 -25 -45 -44 -33 -27 -26
-5 -8 -15 -30 -32 -25 -22 -22
-3 -7 -10 -21 -24 -21 -19 -20
-2 -7 -8 -16 -21 -21 -18 -20
-2 -7 -6 -12 -18 -20 -18 -20
0 -8 -4 -8 -15 -19 -17 -19
1 -8 -2 -4 -12 -19 -16 -19
2 -9 1 0 -10 -18 -15 -18
1 -10 1 1 -10 -18 -15 -18
0 -10 2 2 -10 -18 -15 -18
-2 -11 3 3 -9 -18 -16 -19
-3 -12 3 4 -9 -18 -16 -19
-4 -13 4 5 -8 -19 -17 -20
-4 -13 6 7 -6 -19 -17 -19
-5 -13 7 9 -5 -19 -16 -19
-6 -13 8 11 -4 -18 -15 -18
-6 -13 10 13 -2 -18 -15 -17
-7 -12 11 14 0 -17 -14 -16
-6 -12 11 14 0 -17 -14 -16
-5 -12 11 14 -2 -17 -14 -16
-4 -12 11 14 -3 -16 -14 -16
-3 -12 11 14 -3 -16 -14 -16
-2 -12 12 14 -4 -15 -14 -17
-3 -12 12 14 -4 -16 -14 -17
-3 -13 12 14 -4 -16 -14 -17
-4 -14 12 14 -3 -17 -14 -17
-5 -14 12 14 -3 -18 -14 -17
-6 -15 13 15 -2 -19 -14 -18
-4 -14 13 16 -2 -18 -14 -18
-2 -13 13 17 -2 -17 -14 -18
1 -11 13 18 -2 -16 -14 -18
2 -10 13 19 -2 -15 -14 -18
4 -9 14 20 0 -14 -13 -18
3 -9 15 22 1 -14 -12 -18
2 -9 15 24 1 -14 -12 -18
0 -10 16 26 2 -14 -11 -17
-2 -10 17 27 3 -14 -10 -17
-3 -11 18 29 4 -14 -9 -16
-3 -11 18 29 4 -14 -9 -16
-3 -11 18 29 4 -14 -9 -16
-3 -11 18 29 4 -13 -9 -15
-3 -11 18 29 4 -13 -9 -15
-4 -11 19 29 4 -12 -10 -14
-4 -11 19 30 4 -12 -10 -14
-4 -11 19 30 5 -12 -10 -14
-4 -11 20 31 6 -12 -10 -14
-4 -11 20 32 6 -12 -10 -14
-3 -11 21 33 7 -13 -9 -13
-3 -11 21 33 7 -13 -9 -13
-3 -11 21 33 7 -13 -9 -13
-3 -11 22 33 7 -13 -9 -13
-3 -11 22 33 7 -13 -9 -13
-4 -12 23 34 8 -12 -9 -13
-3 -12 23 36 9 -12 -9 -13
-3 -12 23 38 10 -12 -8 -13
-2 -11 23 40 12 -12 -7 -12
0 -11 23 42 13 -12 -7 -12
1 -10 23 44 14 -11 -6 -11
1 -10 23 45 14 -10 -6 -10
0 -10 24 45 15 -9 -5 -10
-2 -10 25 46 16 -8 -4 -9
-2 -10 25 47 16 -7 -4 -8
-3 -9 26 48 17 -6 -3 -7
-3 -8 26 50 18 -6 -3 -6
-2 -8 27 52 20 -6 -2 -6
0 -7 28 54 21 -6 0 -5
0 -6 28 55 23 -6 0 -4
1 -5 29 57 24 -5 1 -3
1 -6 28 57 24 -5 1 -3
0 -7 28 57 24 -5 1 -3
-2 -9 27 57 24 -5 1 -4
-2 -10 26 57 24 -5 1 -4
-3 -11 25 57 23 -4 0 -5
0 -10 25 58 24 -4 0 -5
2 -8 26 60 26 -3 1 -5
4 -7 27 61 27 -2 2 -4
6 -5 27 63 29 -2 2 -4
8 -4 28 64 30 0 3 -3
7 -4 28 65 31 1 4 -2
7 -4 28 66 32 3 5 0
6 -4 28 68 33 4 7 1
5 -4 28 69 34 6 8 2
4 -5 29 70 35 7 9 3
4 -4 29 71 36 7 9 3
4 -4 29 71 37 7 9 4
3 -3 28 72 38 8 10 5
3 -2 28 73 39 8 10 5
2 0 27 74 40 9 11 6
3 0 27 74 40 9 11 6
4 0 27 74 40 9 11 6
6 1 26 73 40 10 12 6
7 1 26 73 40 10 12 6
8 2 25 72 40 11 13 7
8 2 25 72 42 11 13 7
8 2 25 72 43 11 13 8
7 3 24 72 44 11 13 9
7 3 24 72 45 11 13 9
6 4 23 73 46 12 14 10
7 4 22 72 46 13 14 10
8 5 22 71 46 14 15 11
9 6 21 70 46 15 16 12
10 6 20 69 46 16 16 12
11 7 19 68 46 17 17 13
11 7 18 67 46 16 17 13
11 7 16 66 45 15 16 13
11 8 15 64 44 14 15 13
11 8 13 63 44 13 15 13
12 9 12 62 43 12 14 12
11 9 12 61 43 12 14 12
11 9 12 61 42 13 14 13
10 9 11 60 40 14 14 14
9 9 11 59 40 14 14 14
8 10 10 58 39 15 14 15
7 10 10 57 39 15 14 15
7 10 10 56 39 14 14 15
6 10 10 55 39 13 14 15
5 10 10 54 39 13 14 15
4 10 10 53 38 12 14 15
4 10 9 50 36 11 13 14
4 10 9 48 34 10 12 14
5 10 8 45 32 9 10 13
5 10 7 43 30 8 9 12
6 10 6 40 28 7 8 11
6 10 6 39 27 5 7 11
6 10 6 37 26 4 6 11
7 10 6 36 25 2 5 10
7 10 6 34 24 1 4 10
8 10 5 33 23 -2 3 9
8 10 5 31 21 -3 2 8
8 10 4 29 19 -4 0 8
8 10 3 27 17 -5 -2 7
8 10 3 26 16 -6 -4 6
8 9 2 24 14 -7 -5 5
7 8 2 24 14 -8 -6 5
5 7 2 24 13 -10 -7 5
4 6 2 23 12 -11 -9 5
2 5 2 23 12 -13 -10 5
1 4 2 22 11 -14 -11 4
2 4 2 22 10 -14 -11 4
2 4 2 22 10 -15 -11 4
3 4 2 21 9 -16 -12 3
4 4 2 21 8 -16 -12 3
5 4 3 20 7 -17 -13 2
5 5 3 20 7 -18 -13 2
6 6 3 20 7 -18 -13 2
7 7 3 21 7 -19 -13 2
7 8 3 21 7 -20 -13 2
8 9 2 22 7 -21 -14 3
8 9 2 21 7 -21 -14 3
8 9 2 21 6 -21 -14 3
8 8 1 20 5 -22 -14 3
8 8 1 19 5 -22 -14 3
7 7 0 18 4 -23 -15 2
6 7 1 20 5 -23 -15 2
5 7 2 21 6 -23 -14 2
4 7 3 23 8 -22 -13 3
3 7 4 24 9 -22 -13 3
2 7 5 26 10 -21 -12 4
2 7 5 26 10 -21 -12 4
2 7 5 26 10 -21 -12 4
2 7 5 26 10 -21 -12 4
2 7 5 26 10 -21 -12 4
3 8 4 26 10 -20 -13 3
3 8 5 27 11 -19 -12 4
3 8 5 27 12 -18 -12 4
3 8 6 28 14 -17 -11 5
3 8 7 29 15 -16 -10 6
3 9 8 30 16 -15 -9 7
3 8 8 29 16 -15 -9 7
2 7 8 28 16 -14 -8 7
2 6 7 27 16 -14 -8 6
1 5 7 25 16 -13 -7 6
0 4 6 24 15 -12 -6 5
0 4 6 24 15 -12 -6 5
0 4 6 24 15 -12 -6 5
1 5 7 23 14 -11 -5 6
1 5 7 23 14 -11 -5 6
2 6 8 22 13 -10 -4 7
2 5 8 20 12 -10 -4 6
2 4 8 19 11 -11 -5 5
2 3 7 17 10 -11 -5 4
2 1 7 16 9 -12 -6 2
2 0 6 14 8 -13 -7 1
2 0 6 14 8 -13 -7 1
2 0 6 14 7 -13 -7 1
1 0 7 15 7 -13 -7 1
1 0 7 15 6 -13 -7 1
0 0 8 16 5 -14 -8 2
-2 0 8 15 5 -14 -8 1
-2 -2 8 14 4 -14 -9 0
-3 -2 8 13 4 -15 -9 -2
-4 -3 8 11 3 -15 -10 -4
-5 -4 8 10 2 -16 -11 -5
-6 -5 9 11 2 -16 -11 -5
-8 -5 9 11 2 -17 -11 -5
-9 -6 10 12 1 -17 -11 -5
-11 -7 11 13 1 -18 -11 -5
-12 -8 12 14 0 -19 -11 -5
-10 -7 12 14 0 -19 -12 -5
-8 -6 11 14 0 -19 -13 -6
-7 -5 11 14 0 -19 -14 -6
-5 -3 10 14 0 -19 -16 -7
-3 -2 9 14 0 -19 -17 -8
-4 -2 9 14 0 -19 -17 -8
-4 -3 9 14 0 -19 -17 -8
-5 -3 9 14 1 -19 -17 -8
-6 -4 9 14 1 -19 -17 -8
-7 -5 9 14 2 -20 -17 -7
-7 -5 9 15 3 -19 -16 -7
-8 -5 9 16 3 -18 -16 -7
-8 -5 10 17 4 -17 -15 -7
-9 -5 10 18 5 -16 -14 -7
-10 -5 11 19 6 -15 -13 -6
-9 -5 11 19 7 -15 -13 -6
-9 -5 11 19 7 -15 -13 -5
-8 -5 11 20 8 -15 -13 -5
-7 -5 11 20 9 -15 -13 -4
-6 -4 11 21 10 -14 -12 -3
-6 -4 11 21 10 -13 -11 -3
-6 -4 11 21 10 -12 -11 -3
-7 -4 10 21 11 -11 -10 -3
-7 -4 10 21 11 -10 -9 -3
-8 -3 9 20 12 -9 -8 -2
-6 -2 9 21 12 -8 -7 0
-5 0 9 21 12 -7 -7 1
-3 1 9 22 13 -6 -6 2
-2 3 9 23 13 -5 -5 4
1 4 10 24 14 -4 -4 5
1 4 9 23 14 -4 -4 5
1 4 9 23 14 -3 -4 5
0 3 8 22 15 -3 -4 5
0 3 7 21 15 -2 -4 5
-2 2 6 20 16 0 -3 5
-2 2 6 20 16 0 -2 6
-2 2 6 20 17 1 0 7
-2 2 6 21 17 1 1 8
-2 2 6 21 18 2 3 9
-3 3 7 22 19 3 4 10
-4 3 7 22 19 4 4 10
-4 3 7 22 19 5 4 10
-5 3 7 21 19 6 4 10
-6 3 7 21 19 7 4 10
-7 3 8 20 20 8 5 10
-7 3 8 20 20 8 5 10
-7 3 8 19 20 8 5 10
-7 2 8 19 19 7 5 11
-7 2 8 18 19 7 5 11
-6 1 8 17 18 6 5 12
-6 1 8 17 18 6 5 12
-6 1 8 16 17 6 5 12
-6 1 8 16 17 6 5 12
-6 1 8 15 16 6 5 12
-6 1 7 14 15 6 4 11
-4 1 7 14 14 5 4 11
-2 2 7 14 13 5 4 11
1 2 6 14 12 4 4 10
3 3 6 14 11 3 4 10
5 4 5 13 10 2 3 9
4 3 5 12 9 2 2 9
2 2 5 11 9 2 2 9
1 1 5 10 8 1 1 8
0 0 5 9 7 1 0 8
-3 -2 4 8 6 0 -2 7
-4 -2 4 8 6 0 -2 7
-5 -2 5 8 6 0 -2 7
-6 -2 5 8 6 0 0 7
-8 -2 6 8 6 0 0 7
-9 0 7 7 6 1 1 7
-9 0 7 7 5 1 1 7
-9 0 7 7 4 1 0 7
-9 0 7 7 3 1 0 6
-9 0 7 7 2 1 -2 6
-8 0 8 6 1 0 -3 5
-8 0 8 6 1 0 -3 5
-8 0 8 6 1 -2 -4 4
-8 0 8 5 0 -3 -4 4
-8 0 8 5 0 -4 -5 3
-7 -2 7 4 -2 -5 -6 2
-7 -2 7 3 -2 -5 -6 2
-7 -3 7 2 -3 -5 -7 1
-7 -3 7 1 -4 -6 -7 1
-7 -4 7 0 -5 -6 -8 0
-6 -5 8 -2 -6 -7 -9 -2
-6 -4 8 -2 -6 -7 -9 -2
-6 -3 8 0 -6 -7 -9 0
-6 -2 8 0 -5 -7 -9 0
-6 1 8 1 -5 -7 -9 1
-5 2 7 2 -4 -7 -8 2
-5 1 7 1 -5 -7 -8 1
-5 -2 7 -2 -6 -7 -9 0
-6 -4 6 -4 -7 -7 -10 -2
-6 -5 6 -5 -9 -7 -11 -4
-7 -7 5 -7 -10 -8 -12 -5
-7 -7 5 -7 -10 -8 -12 -5
-7 -7 5 -7 -10 -8 -12 -5
-8 -7 6 -6 -10 -8 -12 -5
-8 -7 6 -6 -10 -8 -12 -5
-9 -7 7 -5 -9 -8 -11 -4
-9 -7 7 -5 -9 -8 -11 -4
-9 -7 7 -5 -9 -8 -11 -4
-9 -7 7 -5 -9 -8 -11 -4
-9 -7 7 -5 -9 -8 -11 -4
-8 -6 7 -4 -9 -8 -11 -4
-8 -7 7 -4 -9 -9 -12 -5
-8 -8 7 -4 -10 -10 -14 -6
-8 -9 6 -4 -11 -11 -15 -7
-8 -11 6 -4 -12 -13 -16 -9
-9 -12 5 -5 -13 -14 -18 -10
-8 -11 5 -5 -13 -13 -18 -10
-6 -10 5 -5 -12 -12 -17 -9
-5 -9 6 -5 -12 -11 -16 -8
-4 -7 6 -5 -11 -10 -15 -7
-2 -6 7 -4 -10 -9 -14 -6
-4 -6 7 -4 -10 -9 -14 -6
-5 -7 7 -4 -10 -9 -13 -6
-7 -7 7 -3 -10 -9 -13 -5
-9 -8 7 -3 -10 -9 -12 -5
-11 -9 7 -2 -10 -10 -11 -4
-11 -9 7 -2 -10 -10 -11 -4
-11 -9 7 -2 -10 -10 -11 -4
-11 -9 8 -3 -10 -9 -11 -5
-11 -9 8 -3 -10 -9 -11 -5
-12 -8 9 -4 -9 -8 -12 -6
-12 -8 9 -4 -9 -8 -12 -6
-12 -8 9 -4 -9 -8 -12 -7
-11 -8 8 -5 -10 -9 -12 -7
-11 -8 8 -5 -10 -9 -12 -8
-10 -8 7 -6 -11 -10 -13 -9
-9 -8 7 -6 -11 -10 -13 -9
-7 -8 7 -6 -11 -10 -13 -9
-5 -7 7 -6 -11 -10 -14 -9
-4 -7 7 -6 -11 -10 -14 -9
-2 -6 7 -6 -12 -10 -15 -10
-3 -6 7 -6 -12 -10 -15 -10
-4 -6 7 -6 -12 -10 -15 -10
-5 -6 7 -6 -12 -10 -15 -10
-6 -6 7 -6 -12 -10 -15 -10
-7 -6 7 -6 -13 -10 -15 -10
-9 -6 7 -6 -13 -10 -15 -10
-10 -6 8 -6 -12 -10 -15 -10
-12 -7 8 -6 -12 -9 -15 -10
-14 -7 9 -6 -11 -9 -15 -10
-16 -8 10 -6 -10 -8 -15 -9
-16 -8 10 -6 -10 -8 -15 -9
-15 -8 9 -7 -11 -8 -15 -9
-14 -9 8 -7 -11 -9 -15 -9
-13 -9 7 -8 -12 -9 -15 -9
-12 -10 6 -9 -13 -10 -15 -10
-12 -10 6 -9 -13 -10 -15 -10
-12 -10 6 -9 -13 -10 -15 -10
-12 -9 6 -9 -13 -9 -15 -10
-12 -9 6 -9 -13 -9 -15 -10
-11 -8 6 -10 -13 -8 -15 -11
-11 -8 6 -10 -13 -8 -15 -11
-10 -8 6 -10 -13 -8 -15 -11
-10 -8 6 -10 -13 -9 -15 -11
-9 -8 6 -10 -13 -9 -15 -11
-8 -8 7 -9 -12 -10 -15 -11
-8 -8 7 -9 -12 -10 -15 -11
-9 -8 7 -9 -12 -10 -15 -11
-9 -8 7 -8 -12 -10 -15 -12
-10 -8 7 -8 -12 -10 -15 -12
-11 -8 6 -7 -13 -9 -16 -13
-11 -8 6 -7 -13 -9 -16 -13
-11 -8 7 -7 -13 -9 -15 -13
-10 -7 8 -7 -12 -8 -15 -12
-10 -7 9 -7 -12 -8 -14 -12
-9 -6 10 -6 -11 -7 -13 -11
-9 -6 10 -6 -11 -7 -13 -11
-9 -6 9 -7 -11 -7 -13 -11
-8 -7 9 -7 -11 -7 -13 -11
-8 -7 8 -8 -11 -7 -13 -11
-7 -8 7 -9 -11 -8 -14 -11
-8 -8 7 -9 -11 -8 -14 -11
-9 -8 7 -9 -11 -8 -14 -11
-10 -8 7 -9 -11 -8 -14 -11
-11 -8 7 -9 -11 -8 -14 -11
-12 -8 6 -10 -11 -8 -13 -12
-8 -8 6 -10 -12 -8 -13 -12
-5 -8 6 -10 -13 -8 -14 -13
0 -7 6 -11 -14 -9 -15 -13
3 -7 6 -11 -15 -9 -16 -14
7 -6 5 -12 -16 -10 -17 -15
2 -6 5 -11 -16 -10 -16 -15
-4 -7 6 -10 -15 -10 -15 -14
-9 -8 6 -9 -14 -9 -14 -14
-13 -9 7 -8 -13 -9 -13 -13
-18 -10 8 -7 -12 -8 -12 -12
-18 -10 8 -7 -12 -8 -12 -12
-18 -10 8 -7 -12 -8 -12 -12
-18 -9 8 -7 -12 -7 -12 -12
-18 -9 8 -7 -12 -7 -12 -12
-18 -8 8 -7 -11 -6 -12 -13
-18 -8 8 -7 -11 -6 -12 -13
-17 -8 8 -7 -11 -6 -12 -13
-16 -8 8 -6 -11 -6 -12 -13
-15 -8 8 -6 -11 -6 -12 -13
-14 -7 9 -5 -11 -7 -11 -13
-13 -7 9 -5 -11 -7 -11 -13
-11 -7 9 -5 -11 -6 -11 -13
-9 -7 9 -5 -11 -6 -11 -13
-8 -7 9 -5 -11 -5 -11 -13
-6 -7 9 -6 -11 -4 -12 -13
-6 -7 9 -6 -11 -5 -12 -13
-6 -7 8 -7 -12 -6 -12 -14
-5 -7 8 -8 -12 -7 -13 -14
-5 -7 7 -9 -13 -8 -13 -15
-4 -8 6 -10 -14 -9 -14 -16
-7 -8 7 -10 -14 -9 -13 -15
-10 -8 8 -9 -13 -8 -12 -14
-14 -8 9 -9 -12 -8 -11 -13
-17 -8 10 -8 -11 -7 -10 -12
-20 -9 11 -7 -10 -6 -8 -11
-18 -9 11 -7 -10 -6 -8 -11
-16 -9 11 -7 -10 -6 -8 -11
-14 -8 10 -7 -11 -6 -9 -12
-12 -8 10 -7 -11 -6 -9 -12
-10 -7 9 -7 -12 -6 -10 -13
-10 -7 9 -7 -12 -6 -10 -13
-10 -7 9 -7 -12 -6 -10 -13
-11 -7 9 -7 -12 -6 -10 -13
-11 -7 9 -7 -12 -6 -10 -13
-12 -7 8 -8 -12 -5 -11 -13
-10 -7 8 -8 -12 -5 -11 -13
-8 -7 8 -8 -12 -6 -12 -13
-6 -6 8 -8 -13 -6 -13 -14
-4 -6 8 -8 -13 -7 -14 -14
-2 -5 7 -8 -14 -8 -15 -15
-4 -5 8 -7 -14 -7 -14 -15
-5 -4 10 -6 -13 -6 -13 -14
-7 -3 11 -5 -12 -5 -12 -14
-9 -2 13 -4 -11 -4 -11 -13
-11 0 15 -2 -10 -2 -9 -12
-11 1 17 0 -9 0 -9 -12
-12 2 19 1 -8 1 -8 -11
-12 3 21 2 -7 2 -8 -11
-13 4 23 3 -6 3 -7 -10
-14 6 25 4 -5 4 -6 -9
-14 7 26 5 -5 4 -6 -9
-13 8 28 6 -4 4 -6 -9
-13 9 29 8 -4 5 -5 -9
-12 10 31 9 -3 5 -5 -9
-11 12 33 11 -2 6 -4 -9
-11 12 33 11 -2 6 -4 -9
-10 12 33 11 -2 6 -4 -9
-10 13 34 11 -2 6 -4 -9
-9 13 34 11 -2 6 -4 -9
-8 14 35 12 -3 6 -4 -9
-6 13 28 12 -3 6 -4 -9
-4 12 21 11 -3 6 -4 -9
-2 11 14 10 -3 6 -4 -9
2 10 8 9 -3 6 -4 -9
4 9 1 8 -4 6 -3 -8
4 9 1 8 -4 7 -3 -7
4 10 0 8 -3 8 -2 -6
4 10 0 7 -3 9 0 -5
4 11 -2 7 -2 10 1 -4
3 12 -3 6 0 11 2 -3
2 12 -3 6 0 11 2 -3
1 12 -2 6 0 11 2 -3
0 13 0 5 -2 11 2 -3
-2 13 1 5 -2 11 2 -3
-3 14 2 4 -3 12 3 -3
-3 13 1 3 -3 11 2 -3
-3 12 0 2 -4 10 1 -3
-4 10 -2 1 -5 9 0 -3
-4 9 -3 0 -6 8 -2 -3
-5 7 -5 -3 -7 7 -4 -3
-5 7 -5 -3 -8 7 -4 -3
-5 6 -6 -4 -9 7 -4 -4
-4 6 -7 -4 -10 7 -4 -4
-4 5 -8 -5 -11 7 -4 -5
-3 4 -9 -6 -12 6 -4 -6
-4 3 -8 -6 -12 6 -4 -7
-5 2 -7 -6 -12 5 -5 -8
-6 1 -5 -5 -11 5 -6 -9
-7 0 -4 -5 -11 4 -7 -10
-9 -2 -2 -4 -10 3 -8 -12
-9 -3 -2 -5 -11 2 -9 -13
-9 -5 -2 -6 -13 1 -10 -14
-8 -6 -3 -7 -14 -2 -11 -15
-8 -8 -3 -8 -16 -3 -12 -16
-7 -10 -4 -10 -18 -5 -13 -17
-7 -10 -4 -10 -18 -5 -13 -17
-7 -10 -4 -10 -18 -5 -14 -18
-7 -10 -3 -9 -18 -5 -14 -19
-7 -10 -3 -9 -18 -5 -15 -20
-8 -9 -2 -8 -17 -6 -16 -21
-9 -9 -2 -8 -17 -6 -16 -21
-11 -10 -2 -7 -17 -6 -15 -21
-12 -10 0 -6 -16 -6 -14 -21
-14 -11 0 -5 -16 -6 -13 -21
-16 -12 1 -4 -15 -5 -12 -21
-16 -12 1 -4 -15 -5 -12 -21
-16 -12 1 -4 -15 -5 -12 -21
-17 -12 1 -3 -15 -4 -12 -21
-17 -12 1 -3 -15 -4 -12 -21
-18 -13 1 -2 -15 -3 -12 -20
-17 -13 2 3 -11 1 -11 -20
-16 -13 4 7 -6 4 -9 -19
-15 -13 5 11 -2 7 -7 -18
-14 -13 7 15 3 11 -5 -17
-12 -14 10 20 9 15 -3 -16
-12 -8 26 53 37 33 10 -8
-12 0 44 85 65 52 23 1
-12 6 61 116 94 71 35 10
-12 12 78 148 122 90 48 18
-12 19 96 179 149 110 62 27
-4 28 115 172 154 147 101 57
5 38 136 165 160 185 141 87
14 48 156 158 167 223 181 116
22 58 177 151 172 261 220 145
30 67 193 138 174 297 258 174
30 68 139 25 101 284 261 180
30 70 84 -89 27 273 264 187
