I II V1 V2 V3 V4 V5 V6
8 -56 13 65 28 20 22 -14
11 -53 14 66 27 21 23 -13
18 -50 17 70 31 23 27 -9
14 -53 16 68 29 24 28 -8
16 -50 16 66 29 26 29 -7
22 -52 16 67 28 23 31 -6
22 -53 16 67 31 23 31 -6
19 -52 13 65 29 23 29 -6
18 -52 13 64 25 18 27 -7
18 -55 10 64 22 16 24 -9
19 -50 10 62 22 16 24 -7
19 -49 11 63 20 18 25 -5
18 -49 10 60 18 17 25 -6
19 -49 11 59 18 19 27 -3
18 -48 11 57 16 20 29 -1
17 -50 9 54 12 16 26 -4
18 -49 7 51 14 14 26 -3
17 -50 4 49 13 15 27 -3
18 -49 2 48 12 11 24 -5
16 -50 0 47 10 9 22 -7
14 -46 0 45 10 10 24 -6
17 -43 1 45 10 12 27 -3
22 -41 5 44 11 13 30 0
17 -44 4 43 10 15 32 3
15 -40 4 39 8 17 35 4
13 -45 2 35 4 14 33 2
15 -42 0 34 5 15 34 3
15 -37 -2 32 5 17 34 5
13 -37 -2 30 3 18 33 5
12 -37 -4 28 1 15 30 2
10 -32 -3 26 4 17 32 4
11 -29 0 27 5 20 34 6
14 -27 0 26 4 20 35 6
14 -30 2 24 4 22 37 8
13 -28 3 22 4 26 42 10
10 -32 2 19 0 22 40 8
8 -35 0 17 0 20 39 7
6 -33 1 17 0 23 41 9
6 -33 2 18 -1 22 41 9
7 -35 1 18 -2 21 38 5
8 -30 2 15 -1 25 38 7
5 -33 2 15 -1 25 38 6
5 -36 3 15 -1 24 39 5
2 -37 1 12 -2 23 37 4
-4 -39 0 8 -5 22 36 4
-1 -39 2 9 -6 21 36 3
9 -27 3 10 -3 21 36 5
7 -27 2 9 -3 21 35 5
6 -30 0 8 -4 19 34 2
5 -33 -1 8 -5 17 30 1
2 -31 0 6 -6 19 31 0
-5 -37 -1 4 -8 18 31 -2
-5 -39 0 4 -7 21 36 -1
-2 -37 2 5 -5 27 38 2
1 -33 3 5 -5 30 42 4
4 -35 3 5 -6 29 41 3
3 -37 1 3 -7 29 41 2
1 -36 1 4 -7 29 40 3
1 -33 2 4 -8 28 39 0
0 -36 1 3 -11 26 36 -2
0 -31 2 2 -12 29 38 -2
1 -31 3 3 -14 30 39 -2
-1 -33 2 2 -15 30 39 -3
-2 -35 2 1 -15 30 38 -2
-1 -33 2 0 -14 32 39 -1
-2 -39 2 1 -14 29 38 -2
-7 -40 0 1 -13 28 38 -2
-12 -42 0 -1 -15 27 36 -3
-3 -35 5 4 -11 29 38 -3
1 -31 6 6 -9 29 38 -2
-3 -32 4 3 -9 29 35 -3
-1 -34 5 3 -10 31 36 -3
1 -31 7 5 -8 33 41 0
0 -31 7 4 -7 33 41 1
-1 -30 7 4 -6 34 44 3
-4 -37 5 2 -8 30 42 1
-4 -39 5 3 -6 30 43 3
0 -34 4 2 -7 31 42 4
-1 -34 2 1 -10 28 39 2
-3 -38 2 4 -8 27 38 0
-2 -32 4 4 -5 30 38 3
-3 -31 4 4 -6 32 38 2
0 -32 7 5 -5 33 40 2
-2 -32 7 5 -4 34 40 4
-3 -32 8 4 -3 35 42 6
-3 -36 6 3 -5 33 40 4
-4 -38 4 4 -5 31 39 3
-3 -37 4 6 -5 34 39 4
-4 -38 4 8 -5 34 40 4
-5 -40 3 8 -3 32 38 3
-1 -33 4 8 -1 35 40 6
-2 -33 5 9 -1 36 39 8
-2 -33 6 11 0 37 42 7
-1 -31 7 9 1 38 41 6
-4 -31 7 8 -1 39 43 7
-1 -33 6 8 -1 37 41 6
1 -32 6 8 0 37 43 6
-2 -32 5 6 -1 37 41 6
-2 -34 5 7 -4 34 40 4
-2 -38 4 9 -1 32 38 3
-3 -34 3 7 -2 33 38 2
0 -31 4 7 -2 35 39 3
-4 -34 7 8 -2 37 40 4
-2 -33 7 8 -1 37 41 5
-1 -31 7 7 -2 38 42 5
-1 -36 7 7 -3 36 40 4
1 -34 8 9 0 37 41 6
-1 -32 8 8 0 38 40 6
-3 -35 8 9 0 36 41 6
-2 -37 7 10 2 34 38 4
-4 -32 7 9 4 34 38 4
-3 -35 8 11 6 35 39 4
-3 -37 8 10 4 34 40 3
-5 -38 6 7 2 29 37 3
-2 -33 9 9 3 31 41 9
-4 -40 8 8 2 29 40 10
-1 -37 7 8 3 29 42 10
0 -34 9 9 4 32 44 12
-3 -37 8 10 3 30 43 11
-2 -37 7 11 4 28 40 9
-5 -33 8 10 4 27 41 10
-6 -35 8 10 1 26 40 8
-4 -35 8 10 2 28 41 10
-6 -38 8 8 1 27 40 9
-10 -42 9 6 -1 25 41 9
-7 -42 9 6 -1 24 41 8
0 -36 12 10 4 25 43 11
0 -35 10 8 2 25 43 10
-5 -39 9 7 -1 22 41 6
-3 -37 9 8 1 22 39 6
2 -29 11 9 1 23 41 6
0 -30 9 7 -2 23 41 4
-2 -34 10 7 -2 24 41 3
-3 -35 11 6 -1 25 42 3
-3 -35 10 5 -2 23 41 2
-2 -38 10 5 -3 23 41 3
-3 -41 10 6 0 23 42 4
-3 -37 9 6 0 24 44 4
-3 -37 9 6 -1 23 44 2
-5 -42 8 6 0 23 42 2
-6 -40 9 6 2 24 42 1
-7 -38 7 3 -1 22 43 -1
-11 -47 7 2 -3 21 41 -2
-10 -47 8 2 -1 21 41 0
-3 -38 9 3 0 23 43 3
-2 -39 9 3 -1 21 42 3
-3 -41 10 4 2 21 42 3
-6 -41 9 3 -1 21 41 2
-6 -44 6 2 -2 16 36 -3
-6 -47 7 2 0 15 36 -3
-5 -38 6 2 3 19 38 -1
-4 -34 9 4 4 22 42 0
-5 -39 10 5 3 23 42 -1
-6 -39 9 4 3 22 42 -1
-4 -40 7 4 2 23 43 0
-6 -46 8 4 -1 20 41 -1
-6 -48 8 5 1 19 42 2
-5 -44 7 4 0 20 42 2
-4 -48 5 4 -1 17 41 -1
-4 -49 5 6 1 14 37 -1
-5 -43 5 5 3 17 39 1
-7 -42 5 4 1 16 40 0
-9 -44 6 4 0 17 42 1
-8 -44 8 5 1 16 42 2
-5 -43 7 4 0 18 43 3
-7 -47 8 3 -2 16 41 3
-14 -55 6 2 -2 14 40 1
-22 -59 4 0 -4 12 38 -2
-21 -60 3 0 -6 10 38 -4
-5 -48 9 6 0 13 41 -1
2 -33 12 9 5 20 45 3
-3 -40 11 8 3 18 44 2
-4 -42 10 7 3 18 44 1
-5 -42 11 6 2 16 43 1
-6 -44 10 5 2 17 44 2
-8 -48 11 5 3 14 45 2
-8 -45 10 4 3 15 46 3
-5 -44 9 4 3 13 45 3
-5 -45 8 3 3 13 45 3
-8 -50 7 2 2 9 41 0
-8 -45 6 2 0 10 39 -2
-10 -47 8 4 1 12 42 1
-10 -49 7 2 -1 11 41 -1
-6 -47 7 2 -1 10 40 0
-6 -45 8 2 -1 14 42 3
-6 -47 9 2 -3 12 41 3
-9 -47 9 1 -2 13 43 2
-13 -49 7 -1 -4 10 41 1
-14 -53 6 -1 -5 9 40 0
-17 -57 4 -1 -5 5 36 -3
-12 -48 7 1 -3 9 37 -2
-8 -45 9 4 -1 11 40 0
-13 -50 9 3 -1 11 40 -1
-13 -50 8 2 -3 11 40 0
-11 -46 9 1 -2 15 42 2
-9 -50 9 0 -5 14 41 1
-8 -48 9 -1 -5 14 41 0
-10 -47 9 -1 -5 14 40 1
-11 -49 9 0 -7 13 38 0
-11 -49 9 2 -6 13 38 -1
-12 -44 9 1 -4 17 39 1
-10 -46 11 3 -4 17 40 2
-6 -45 11 4 -3 17 41 1
-8 -46 11 4 -1 18 42 1
-11 -43 15 5 2 22 44 6
-10 -44 15 6 2 21 45 6
-10 -42 14 6 3 21 45 5
-7 -38 15 6 5 24 46 6
-8 -41 16 9 7 23 46 5
-8 -44 15 11 8 22 44 4
-8 -36 15 10 11 26 48 8
-8 -36 15 11 9 26 50 8
-6 -35 17 12 8 27 50 8
-6 -33 16 12 8 27 52 9
-4 -32 15 12 8 27 50 10
-1 -34 14 13 8 26 49 8
-2 -37 13 12 9 26 49 8
0 -36 11 10 9 24 48 7
3 -33 14 12 11 27 50 9
5 -34 10 12 12 27 48 8
4 -28 10 11 12 30 50 10
-4 -32 9 10 11 30 52 9
-10 -37 9 10 9 29 52 8
-5 -31 12 12 11 32 56 12
-4 -28 11 11 9 31 55 14
-6 -35 11 11 7 27 53 12
-3 -33 10 12 10 28 55 12
-3 -37 9 12 10 26 54 12
-6 -42 7 12 11 26 52 10
-5 -41 9 15 13 27 53 10
0 -31 10 16 14 30 54 13
1 -36 9 15 11 29 55 13
-1 -39 9 14 9 28 56 13
-1 -40 8 14 8 28 55 12
-1 -38 9 13 8 30 57 15
-1 -44 8 11 5 27 55 13
-3 -45 7 8 3 23 52 9
-5 -49 6 5 0 20 49 6
-6 -54 6 4 -2 17 46 1
-5 -56 6 4 -2 15 44 -1
-7 -52 6 2 -2 16 43 -1
-5 -51 7 2 -3 16 45 -2
-8 -51 9 2 -1 19 46 -1
-10 -52 9 4 0 18 47 0
-11 -51 11 4 2 20 49 1
-13 -56 12 4 1 18 47 -1
-17 -60 11 4 2 18 47 -2
-18 -59 10 2 1 16 43 -3
-19 -62 9 2 0 15 40 -5
-20 -64 10 2 0 15 38 -4
-23 -64 9 -1 -1 16 37 -6
-27 -68 7 -3 -4 14 34 -8
-27 -72 9 -3 -3 15 33 -9
-22 -68 11 0 -1 16 37 -6
-16 -62 15 2 2 22 41 -1
-20 -69 13 1 0 20 40 -3
-24 -72 11 0 2 19 39 -2
-17 -65 13 3 4 21 41 -1
-15 -65 14 3 2 19 39 -2
-15 -75 11 7 4 16 35 -7
-14 -77 15 13 10 19 34 -7
-14 -85 18 20 9 15 30 -16
-14 -93 23 28 12 14 26 -20
-12 -97 28 37 18 15 25 -23
-12 -95 36 49 27 21 26 -23
-9 -90 40 56 34 24 29 -20
-8 -74 41 62 45 33 37 -10
-9 -51 40 66 56 45 49 -1
-5 -16 38 71 67 59 61 8
3 23 35 82 82 79 79 24
12 69 36 103 111 115 113 52
24 109 47 133 146 156 153 84
34 144 55 155 176 192 187 110
35 172 59 163 196 221 217 133
27 190 60 152 203 246 242 153
28 209 60 137 200 264 264 170
53 250 68 137 213 291 294 194
61 280 65 128 220 314 318 218
48 289 54 105 212 319 326 227
40 294 29 66 184 297 312 220
31 288 -1 9 134 247 271 198
17 275 -22 -58 64 172 211 162
-5 263 -29 -110 6 100 150 126
-26 247 -33 -143 -41 35 89 85
-37 224 -47 -183 -95 -25 37 48
-34 199 -88 -215 -135 -64 5 22
-28 179 -127 -221 -152 -75 -7 10
-25 162 -138 -215 -155 -78 -13 -3
-28 149 -137 -199 -148 -77 -21 -15
-27 141 -132 -182 -140 -73 -25 -22
-25 135 -125 -170 -134 -72 -29 -29
-26 120 -112 -154 -128 -72 -33 -40
-25 104 -101 -139 -122 -77 -42 -52
-23 93 -93 -125 -116 -79 -49 -63
-19 89 -83 -110 -103 -71 -48 -65
-20 84 -74 -95 -92 -67 -44 -66
-23 80 -67 -85 -82 -65 -44 -67
-24 79 -62 -78 -75 -61 -41 -67
-23 80 -55 -67 -67 -55 -39 -65
-23 82 -51 -61 -62 -55 -40 -68
-23 87 -48 -59 -57 -50 -38 -67
-26 88 -46 -59 -57 -50 -36 -67
-26 89 -46 -59 -58 -51 -37 -67
-25 90 -46 -58 -57 -52 -36 -67
-23 91 -47 -61 -59 -53 -39 -68
-22 89 -48 -60 -62 -55 -41 -71
-23 86 -48 -58 -60 -57 -42 -71
-24 85 -48 -56 -59 -57 -43 -74
-23 85 -45 -55 -57 -57 -43 -74
-22 82 -42 -52 -56 -58 -44 -75
-21 86 -41 -51 -53 -54 -42 -73
-26 88 -43 -53 -55 -54 -42 -73
-27 88 -43 -53 -55 -55 -43 -73
-26 89 -43 -53 -55 -56 -42 -73
-28 88 -45 -57 -57 -55 -44 -74
-29 84 -46 -56 -58 -59 -47 -75
-23 91 -45 -52 -54 -59 -46 -74
-22 94 -45 -52 -53 -59 -46 -76
-22 91 -43 -49 -49 -59 -44 -75
-19 90 -43 -48 -49 -59 -46 -77
-23 90 -43 -48 -47 -57 -46 -78
-23 91 -42 -49 -47 -55 -44 -77
-25 92 -43 -49 -45 -55 -44 -74
-24 92 -43 -47 -45 -54 -43 -73
-23 95 -44 -50 -45 -51 -42 -71
-23 93 -45 -50 -47 -54 -45 -72
-22 90 -45 -47 -43 -55 -46 -72
-23 89 -45 -47 -45 -58 -48 -77
-24 87 -45 -46 -44 -60 -49 -78
-25 85 -45 -45 -43 -61 -51 -80
-30 84 -46 -47 -43 -60 -52 -81
-28 87 -45 -46 -44 -59 -51 -79
-18 95 -43 -43 -41 -55 -47 -74
-10 103 -40 -41 -39 -52 -46 -72
-12 103 -42 -43 -40 -49 -46 -72
-19 96 -45 -46 -45 -55 -51 -74
-24 91 -46 -44 -46 -60 -52 -76
-19 96 -44 -41 -44 -57 -51 -75
-15 96 -42 -38 -43 -57 -50 -73
-18 93 -41 -37 -43 -59 -53 -77
-18 95 -40 -37 -41 -56 -54 -76
-19 92 -40 -38 -43 -58 -53 -77
-18 92 -39 -37 -44 -57 -52 -75
-18 94 -39 -37 -45 -57 -54 -74
-16 96 -40 -39 -44 -57 -53 -73
-16 96 -38 -38 -46 -60 -54 -73
-18 92 -39 -36 -45 -62 -54 -72
-15 92 -40 -34 -45 -62 -54 -73
-14 92 -39 -33 -45 -63 -54 -74
-16 89 -39 -30 -43 -64 -55 -76
-18 90 -37 -29 -40 -61 -56 -74
-17 90 -37 -30 -42 -62 -56 -75
-18 90 -37 -29 -41 -62 -56 -73
-17 92 -38 -28 -40 -62 -56 -74
-13 96 -38 -30 -41 -62 -56 -72
-11 94 -39 -29 -41 -65 -58 -74
-12 92 -39 -26 -39 -65 -56 -73
-12 91 -38 -25 -38 -65 -56 -73
-11 92 -36 -22 -38 -64 -56 -71
-12 91 -35 -21 -35 -64 -56 -72
-12 93 -34 -20 -32 -62 -55 -72
-10 95 -35 -21 -35 -63 -54 -72
-12 91 -35 -20 -36 -59 -54 -72
-11 90 -35 -19 -35 -47 -54 -72
-14 89 -37 -20 -37 -41 -55 -72
-19 81 -37 -20 -40 -41 -56 -72
-16 82 -36 -14 -34 -39 -55 -71
-4 95 -32 -10 -30 -35 -52 -69
-6 92 -30 -8 -30 -34 -53 -68
-8 88 -28 -5 -29 -34 -54 -69
-7 90 -27 -3 -26 -31 -54 -68
-5 92 -27 -4 -27 -31 -53 -66
-7 93 -29 -6 -28 -32 -53 -67
-12 90 -30 -6 -29 -34 -54 -67
-11 91 -31 -6 -29 -34 -55 -66
-4 95 -27 -2 -28 -34 -53 -63
-1 91 -29 1 -27 -37 -55 -65
-3 91 -29 2 -26 -36 -55 -66
-4 89 -28 4 -24 -37 -57 -66
-3 89 -25 8 -21 -36 -56 -66
-4 92 -25 8 -19 -35 -56 -65
-3 91 -25 7 -21 -36 -55 -65
-1 92 -23 9 -19 -36 -53 -62
-1 90 -24 8 -21 -36 -54 -62
-5 86 -26 4 -24 -37 -56 -63
2 91 -23 9 -24 -38 -55 -63
3 91 -21 12 -23 -39 -56 -62
6 93 -19 13 -21 -37 -55 -61
3 87 -19 14 -21 -39 -55 -61
3 83 -20 14 -22 -43 -58 -65
5 88 -18 16 -20 -40 -55 -63
4 90 -17 15 -19 -39 -53 -61
4 90 -18 13 -20 -40 -53 -59
6 92 -20 10 -23 -40 -53 -60
5 92 -21 7 -25 -41 -55 -59
5 90 -22 6 -27 -43 -56 -58
4 86 -24 6 -29 -46 -58 -59
4 86 -24 6 -28 -46 -58 -60
4 84 -22 7 -26 -44 -58 -58
3 82 -22 7 -25 -42 -60 -59
4 86 -25 6 -25 -39 -61 -60
6 88 -24 5 -25 -34 -59 -59
6 88 -25 2 -27 -34 -61 -59
9 90 -25 1 -27 -30 -60 -57
8 92 -27 -3 -30 -27 -60 -55
8 89 -27 -4 -32 -27 -64 -57
10 89 -28 -4 -31 -27 -63 -52
11 92 -29 -6 -32 -26 -64 -53
8 88 -29 -8 -34 -28 -66 -53
5 85 -29 -9 -34 -28 -66 -55
1 84 -29 -10 -33 -25 -68 -52
4 89 -29 -10 -31 -21 -64 -51
9 97 -26 -9 -29 -18 -60 -45
7 98 -29 -14 -31 -19 -62 -46
8 98 -30 -18 -33 -16 -60 -43
6 94 -31 -20 -36 -17 -60 -43
3 93 -30 -19 -35 -18 -59 -42
3 94 -30 -21 -34 -16 -57 -40
0 92 -31 -22 -36 -17 -59 -40
0 91 -31 -22 -34 -16 -59 -41
-1 92 -31 -23 -33 -14 -58 -39
-2 92 -30 -25 -33 -14 -58 -38
-3 94 -30 -27 -34 -14 -57 -37
-3 95 -31 -30 -35 -15 -58 -40
-4 96 -32 -34 -37 -15 -59 -40
-5 95 -32 -35 -38 -17 -60 -40
-5 93 -33 -33 -38 -18 -61 -40
-1 94 -31 -34 -38 -16 -60 -40
-6 88 -30 -34 -39 -14 -60 -40
-8 86 -30 -35 -39 -16 -63 -43
-7 91 -28 -36 -37 -14 -62 -42
-13 87 -28 -36 -38 -12 -61 -42
-18 83 -29 -38 -39 -13 -61 -40
-8 91 -26 -37 -37 -12 -61 -39
-5 92 -26 -39 -37 -10 -62 -37
-7 87 -27 -40 -39 -13 -64 -39
-10 84 -29 -38 -39 -15 -65 -38
-11 84 -28 -37 -38 -13 -64 -39
-12 81 -27 -38 -38 -13 -65 -38
-11 78 -26 -37 -38 -15 -66 -41
-10 80 -25 -38 -36 -13 -65 -39
-10 84 -25 -38 -35 -11 -62 -38
-10 82 -26 -40 -37 -12 -63 -39
-8 83 -28 -42 -38 -14 -64 -39
-10 82 -27 -45 -39 -13 -64 -39
-11 79 -28 -44 -40 -13 -65 -40
-11 79 -29 -41 -40 -14 -67 -39
-12 77 -29 -41 -38 -13 -67 -38
-15 70 -30 -40 -39 -14 -68 -40
-20 66 -32 -42 -41 -17 -72 -45
-20 71 -29 -40 -38 -14 -70 -44
-8 82 -25 -38 -37 -10 -66 -40
-7 83 -25 -39 -38 -9 -64 -38
-9 80 -26 -39 -38 -10 -65 -39
-12 78 -28 -42 -38 -9 -66 -39
-19 69 -32 -44 -42 -13 -71 -42
-20 67 -32 -43 -41 -15 -72 -42
-17 71 -31 -42 -38 -13 -72 -42
-9 77 -28 -38 -34 -11 -70 -39
-6 76 -26 -35 -31 -11 -69 -39
-11 73 -25 -37 -29 -9 -69 -39
-12 73 -24 -35 -29 -6 -66 -38
-11 74 -24 -36 -29 -6 -65 -39
-11 73 -25 -37 -31 -8 -66 -39
-9 75 -26 -39 -31 -7 -67 -40
-10 70 -28 -39 -34 -9 -70 -40
-12 66 -29 -37 -33 -10 -69 -39
-10 67 -27 -36 -32 -8 -68 -39
-12 66 -26 -36 -32 -9 -70 -40
-13 64 -25 -34 -31 -9 -70 -38
-11 69 -24 -34 -28 -5 -68 -37
-10 68 -25 -33 -30 -5 -66 -36
-10 71 -22 -34 -30 -3 -66 -35
-10 71 -24 -35 -30 -4 -66 -34
-8 74 -25 -36 -30 -3 -67 -34
-6 72 -25 -34 -31 -3 -67 -32
-8 70 -26 -35 -30 -5 -70 -32
-12 65 -25 -34 -30 -6 -69 -34
-15 60 -26 -34 -29 -6 -71 -36
-18 54 -25 -32 -30 -8 -70 -37
-15 61 -24 -32 -28 -6 -69 -34
-7 69 -21 -28 -24 -2 -64 -31
-7 66 -22 -29 -25 -2 -64 -30
-7 65 -22 -30 -26 -2 -63 -29
-7 66 -22 -33 -26 -2 -65 -29
-7 62 -23 -30 -25 -3 -64 -28
-7 62 -23 -31 -25 -3 -65 -28
-9 61 -23 -30 -25 -4 -64 -28
-10 58 -23 -30 -24 -4 -65 -30
-12 54 -24 -28 -22 -5 -66 -32
-13 57 -24 -29 -21 -4 -68 -32
-10 62 -22 -27 -19 1 -63 -28
-11 60 -22 -26 -18 1 -65 -28
-10 58 -25 -29 -20 -3 -67 -29
-9 58 -23 -31 -21 -1 -65 -26
-9 55 -25 -31 -23 -4 -66 -27
-7 56 -25 -29 -21 -3 -66 -25
-8 54 -25 -28 -18 -3 -66 -25
-11 51 -25 -28 -18 -2 -67 -27
-10 49 -27 -26 -16 -3 -69 -28
-13 49 -24 -27 -14 -3 -71 -27
-6 56 -23 -25 -15 -1 -67 -25
-3 59 -22 -24 -13 1 -65 -24
-6 54 -23 -26 -13 -1 -65 -24
-7 52 -22 -27 -14 1 -65 -24
-6 51 -22 -27 -16 -1 -67 -24
-7 48 -21 -27 -16 -1 -68 -24
-3 51 -19 -25 -13 1 -65 -22
-4 49 -19 -24 -14 0 -67 -23
-3 48 -20 -23 -14 -1 -69 -23
-3 51 -18 -23 -11 1 -67 -21
-2 51 -20 -26 -16 -1 -67 -22
-4 50 -18 -25 -15 0 -66 -21
-7 48 -19 -26 -18 -2 -68 -22
-6 48 -17 -27 -17 -2 -68 -22
-3 48 -19 -26 -19 -2 -68 -22
-6 44 -17 -26 -17 -2 -68 -20
-5 44 -15 -26 -16 -1 -65 -19
-9 37 -16 -26 -20 -3 -68 -23
-6 38 -16 -23 -17 -6 -68 -25
0 49 -13 -23 -12 -1 -65 -20
-2 49 -14 -24 -14 -2 -64 -20
-4 46 -14 -24 -14 -1 -65 -20
-4 45 -16 -26 -14 -3 -66 -19
-6 44 -16 -28 -12 -5 -65 -19
-4 44 -14 -27 -14 -5 -66 -19
-6 40 -14 -27 -12 -6 -64 -19
-6 37 -13 -25 -13 -8 -65 -19
-3 37 -13 -23 -12 -8 -66 -22
-5 34 -13 -23 -12 -7 -66 -22
-5 36 -12 -23 -8 -6 -66 -21
-4 38 -11 -25 -10 -6 -64 -19
-7 34 -11 -25 -12 -6 -65 -20
-9 32 -13 -27 -14 -8 -66 -21
-8 34 -14 -29 -14 -9 -66 -20
1 37 -13 -27 -15 -9 -65 -20
1 33 -12 -25 -13 -8 -64 -17
-4 30 -12 -26 -12 -10 -65 -18
-7 27 -12 -24 -11 -10 -66 -20
-6 26 -11 -23 -9 -8 -67 -19
-4 30 -10 -23 -7 -7 -67 -18
-3 31 -10 -24 -8 -7 -66 -18
-8 26 -11 -24 -10 -8 -66 -18
-12 23 -12 -25 -13 -10 -66 -19
-11 24 -14 -28 -12 -10 -67 -18
-7 25 -15 -29 -16 -11 -67 -18
2 32 -10 -23 -11 -8 -64 -14
3 32 -8 -22 -9 -8 -62 -13
-3 25 -9 -24 -11 -11 -64 -17
-4 21 -9 -21 -9 -10 -66 -16
-5 21 -9 -21 -7 -9 -65 -15
-2 24 -9 -21 -8 -9 -63 -15
-1 27 -9 -22 -7 -8 -62 -14
-2 24 -8 -22 -7 -9 -62 -12
-2 24 -7 -23 -7 -9 -62 -12
-2 24 -6 -22 -8 -8 -61 -12
-3 17 -7 -22 -7 -8 -55 -11
-3 16 -8 -21 -8 -8 -52 -11
-6 13 -7 -22 -8 -10 -53 -14
-11 7 -9 -22 -9 -11 -54 -16
-9 10 -9 -21 -9 -11 -53 -14
-3 17 -7 -20 -6 -9 -48 -11
-2 15 -7 -20 -8 -10 -51 -12
-5 12 -7 -23 -10 -12 -53 -13
-7 11 -9 -22 -9 -13 -54 -13
-4 12 -7 -21 -6 -12 -51 -10
0 14 -5 -19 -2 -12 -50 -9
1 13 -6 -19 -1 -12 -50 -11
0 11 -6 -19 0 -13 -52 -11
-3 7 -7 -20 -3 -15 -55 -14
-2 7 -8 -19 -3 -14 -54 -15
-5 6 -10 -19 -5 -14 -53 -13
-7 3 -10 -20 -5 -15 -54 -13
3 11 -8 -18 -3 -13 -52 -12
1 10 -6 -18 -2 -12 -51 -10
-6 3 -7 -19 -3 -14 -53 -11
-5 1 -7 -19 -1 -13 -52 -11
2 8 -6 -18 1 -12 -52 -9
4 5 -3 -13 1 -11 -52 -7
2 3 -3 -14 1 -14 -56 -9
-2 5 -4 -15 4 -13 -55 -9
-4 5 -5 -16 2 -14 -55 -10
-6 1 -5 -15 1 -15 -55 -10
-6 -1 -5 -14 1 -16 -58 -9
3 4 -3 -14 2 -14 -57 -8
3 4 -3 -14 2 -15 -57 -7
1 2 -2 -14 2 -15 -58 -6
2 3 -5 -15 0 -17 -60 -8
2 2 -5 -14 0 -17 -59 -8
3 0 -1 -13 2 -14 -60 -7
1 2 -2 -13 4 -14 -60 -5
-2 2 -1 -11 4 -13 -59 -4
1 7 2 -8 4 -10 -55 -1
2 7 3 -7 7 -8 -54 1
3 10 4 -7 7 -8 -54 1
4 9 3 -9 4 -11 -56 0
3 7 2 -9 3 -12 -57 -2
5 8 3 -6 7 -11 -54 -2
5 6 3 -5 7 -10 -51 -1
6 4 3 -3 8 -10 -49 -3
9 9 4 -2 10 -8 -40 -1
8 11 3 -3 8 -9 -31 -1
8 12 5 -1 9 -6 -18 3
10 11 4 0 10 -6 -12 2
12 11 3 -1 9 -7 -8 1
12 9 4 1 10 -6 -3 3
12 5 1 0 8 -9 -3 3
12 7 0 -1 9 -9 -2 3
13 10 1 1 13 -5 3 7
13 10 1 2 13 -8 4 5
15 12 2 1 15 -5 8 7
14 13 3 1 16 -2 12 9
13 14 3 1 15 -2 11 10
12 14 2 0 13 -4 12 11
11 14 0 -4 8 -6 9 8
11 9 -2 -4 7 -8 9 8
11 4 -2 -2 6 -7 8 8
6 -1 -3 -1 6 -3 7 9
6 -3 -2 1 7 0 8 9
10 -1 0 3 9 1 8 8
14 4 1 4 13 3 8 9
19 7 -2 1 12 3 9 10
15 0 -5 1 10 2 7 7
12 -7 -5 0 10 2 7 9
15 -5 -3 0 9 4 8 10
19 -4 -3 -2 5 0 6 10
15 -12 -4 -5 2 -6 0 5
14 -16 -3 -5 1 -7 -1 5
14 -17 -4 -5 0 -10 -4 3
13 -18 -2 -5 0 -12 -6 2
9 -22 -3 -6 1 -13 -8 0
5 -25 -2 -5 2 -13 -7 1
5 -26 -3 -5 2 -14 -8 0
5 -22 2 -3 5 -11 -5 3
6 -18 5 -4 4 -9 -5 4
0 -25 3 -5 2 -12 -9 2
-8 -36 0 -8 -1 -18 -12 -1
-8 -37 -1 -9 0 -18 -13 0
7 -25 3 -2 4 -16 -12 3
13 -22 5 -1 6 -16 -14 4
6 -23 3 -5 5 -16 -16 2
2 -27 1 -8 3 -18 -17 2
4 -28 2 -8 4 -17 -16 3
4 -27 2 -7 3 -16 -15 4
4 -27 3 -7 3 -15 -16 6
3 -28 3 -8 3 -16 -16 6
2 -32 3 -7 3 -16 -17 5
2 -33 3 -6 3 -17 -18 2
1 -37 5 -2 7 -18 -19 1
2 -44 6 3 8 -20 -23 -5
4 -49 9 9 10 -22 -29 -13
6 -55 12 15 11 -24 -33 -18
10 -56 18 26 18 -23 -32 -20
12 -55 25 36 25 -22 -33 -21
11 -50 30 43 32 -16 -31 -19
13 -38 34 52 44 -2 -19 -7
15 -26 35 61 57 13 -3 7
17 -15 40 74 75 34 16 22
22 7 44 90 96 58 40 43
31 37 50 114 127 97 78 75
46 70 64 152 168 142 122 111
59 100 78 180 201 182 160 141
65 121 86 193 224 212 189 166
69 141 92 189 237 238 217 189
70 160 92 171 236 258 241 209
72 169 93 163 239 277 260 226
74 185 89 157 247 297 283 247
68 197 83 140 246 309 298 263
63 197 64 104 223 293 286 259
58 186 39 51 175 246 250 240
43 172 17 -14 113 175 194 206
20 162 12 -62 59 109 137 172
-4 139 15 -95 15 49 80 133
-15 113 2 -132 -34 -9 31 97
-12 89 -35 -158 -69 -37 7 79
-6 63 -77 -167 -89 -48 -6 66
-5 39 -89 -160 -92 -54 -16 52
-8 25 -87 -146 -87 -56 -21 41
-13 10 -84 -134 -82 -57 -28 32
-12 -2 -76 -119 -73 -58 -31 24
-4 -4 -63 -101 -66 -55 -32 18
1 -13 -50 -88 -63 -57 -37 11
4 -25 -41 -73 -56 -59 -42 3
4 -37 -32 -57 -44 -54 -40 0
-1 -45 -26 -45 -35 -49 -38 -2
-4 -51 -20 -36 -26 -45 -38 -2
2 -49 -11 -25 -16 -40 -34 -1
5 -47 0 -14 -5 -34 -25 3
0 -50 5 -8 -1 -31 -23 1
-2 -53 9 -5 3 -29 -22 2
-2 -51 12 -5 6 -27 -19 1
-3 -50 13 -6 5 -28 -19 -1
-3 -50 15 -6 5 -25 -20 0
-2 -50 15 -7 4 -25 -19 0
-3 -52 15 -10 2 -27 -20 -2
0 -53 14 -7 0 -29 -22 -4
-2 -55 15 -5 1 -29 -24 -5
-7 -59 18 -2 3 -29 -23 -5
-8 -66 19 1 4 -30 -24 -7
-9 -69 17 0 3 -32 -28 -10
-11 -68 16 -2 4 -31 -27 -10
-13 -68 17 -2 5 -29 -25 -9
-7 -61 21 0 7 -26 -23 -6
4 -47 23 3 10 -23 -19 -2
2 -49 22 2 8 -24 -19 -4
-4 -55 20 1 6 -27 -24 -6
-7 -58 20 2 7 -28 -24 -7
-4 -59 22 6 8 -28 -23 -8
-1 -60 24 8 9 -25 -23 -8
-1 -61 25 10 10 -24 -24 -6
-3 -60 25 9 10 -22 -22 -5
-3 -58 24 8 10 -23 -20 -6
-2 -57 24 6 8 -19 -18 -5
0 -57 24 6 10 -18 -14 -4
1 -53 23 5 7 -18 -15 -5
0 -56 21 5 6 -20 -18 -6
-1 -58 23 7 9 -18 -17 -6
0 -57 23 10 12 -16 -16 -6
0 -58 25 12 13 -16 -18 -6
0 -59 26 13 15 -16 -19 -6
-1 -57 26 14 15 -14 -17 -5
1 -57 25 13 15 -15 -19 -5
2 -53 24 11 16 -13 -21 -4
-3 -56 21 9 17 -15 -21 -4
-6 -59 20 8 16 -15 -23 -5
-7 -62 21 9 15 -16 -27 -6
-1 -59 24 14 19 -14 -24 -3
0 -60 26 17 21 -13 -25 -3
4 -55 28 20 21 -11 -25 -2
2 -56 28 21 23 -12 -27 -3
-1 -56 27 19 23 -12 -27 -3
-1 -57 26 18 22 -14 -27 -4
0 -55 26 18 22 -13 -26 -3
1 -55 25 19 22 -13 -25 -3
-1 -57 23 18 19 -15 -28 -5
0 -58 24 18 18 -16 -29 -6
-1 -60 26 21 20 -14 -28 -4
0 -61 26 24 21 -14 -29 -5
1 -59 27 25 22 -12 -28 -5
-1 -63 26 26 24 -12 -28 -5
-2 -62 26 26 26 -11 -30 -4
-4 -63 25 23 24 -13 -29 -4
-1 -61 25 24 25 -12 -27 -2
7 -54 28 28 29 -9 -24 2
4 -56 26 27 26 -11 -27 -1
0 -63 25 27 24 -15 -29 -3
1 -62 26 30 28 -14 -30 -2
4 -61 28 33 30 -11 -30 -3
5 -60 30 37 33 -8 -28 -1
4 -61 31 36 34 -8 -30 -2
3 -59 31 38 35 -7 -30 0
6 -57 30 39 33 -5 -26 0
8 -56 30 38 33 -4 -26 1
6 -58 28 38 33 -6 -26 -1
6 -57 28 38 32 -6 -27 0
6 -59 25 38 32 -7 -29 -2
7 -60 26 41 34 -7 -31 -2
7 -59 26 42 36 -6 -31 -2
7 -60 29 47 39 -4 -30 0
8 -60 32 50 43 -1 -30 1
11 -57 30 49 42 -1 -30 1
12 -54 30 50 43 0 -29 2
8 -55 28 49 41 -1 -30 2
6 -57 27 49 41 -1 -29 1
9 -53 27 50 39 -2 -31 1
11 -54 28 52 39 -2 -29 2
12 -57 28 54 41 -1 -28 1
13 -58 29 59 44 1 -26 2
12 -63 29 61 43 1 -25 2
12 -64 30 62 45 0 -23 1
15 -61 30 63 45 3 -24 2
16 -59 29 62 43 3 -23 2
18 -56 28 62 41 3 -22 2
17 -57 28 61 40 2 -22 2
17 -57 26 61 40 2 -26 1
17 -57 27 62 39 1 -27 1
15 -61 26 63 40 0 -26 2
16 -61 27 64 41 0 -26 2
16 -62 28 65 41 2 -25 3
15 -64 26 66 42 1 -25 1
15 -63 26 64 40 1 -25 1
13 -62 25 62 38 1 -24 2
13 -62 23 59 37 3 -23 2
21 -52 23 59 36 3 -22 4
25 -50 23 58 35 4 -23 5
20 -53 20 55 31 2 -22 3
20 -55 22 55 34 3 -18 5
22 -54 23 55 35 4 -16 7
21 -55 23 55 35 3 -14 6
19 -58 22 54 34 3 -14 5
17 -57 20 52 33 3 -13 6
22 -53 22 52 32 3 -9 8
24 -49 21 50 30 2 -8 9
24 -49 19 46 27 1 -8 8
22 -50 18 44 26 1 -7 10
22 -51 17 42 23 0 -8 9
20 -51 16 41 23 -1 -8 9
21 -49 16 41 24 3 -5 10
24 -49 16 41 23 4 -5 11
18 -53 14 39 22 2 -8 8
11 -58 12 36 21 3 -6 8
11 -54 11 35 18 3 -6 9
13 -49 12 34 19 5 -3 14
9 -54 10 30 15 3 -4 11
18 -44 12 30 15 5 -3 15
28 -31 17 31 17 8 1 19
24 -37 15 29 16 5 1 18
18 -42 14 28 16 6 1 17
15 -43 15 28 18 6 0 17
16 -44 16 27 20 6 1 18
15 -44 15 26 20 7 2 18
13 -43 15 23 18 7 2 20
14 -39 15 22 17 7 3 21
11 -40 14 19 15 5 2 18
10 -41 13 18 13 5 1 21
9 -39 12 16 11 4 -1 21
6 -44 12 16 11 4 0 20
5 -45 13 16 13 4 0 20
4 -48 14 17 11 5 -1 21
4 -45 14 17 11 5 -1 20
11 -37 14 16 14 7 0 22
8 -36 12 13 12 7 -1 22
-1 -43 13 12 10 5 -1 20
1 -42 12 12 10 5 -1 21
6 -38 12 11 9 5 -2 21
4 -41 10 9 6 2 -4 19
3 -42 11 10 9 1 -4 19
2 -41 12 11 11 3 -3 19
4 -42 14 13 14 3 -3 19
1 -47 13 12 14 2 -3 18
1 -45 12 10 14 3 -4 18
4 -40 12 9 14 5 -2 20
2 -39 13 7 12 4 -3 20
1 -39 10 6 11 2 -4 18
0 -41 8 4 8 -1 -8 16
0 -43 8 3 5 -2 -9 16
0 -45 9 5 8 -1 -8 16
-2 -50 9 6 8 -1 -8 15
-2 -53 10 7 8 -1 -9 14
0 -52 11 8 9 3 -8 15
1 -50 10 6 10 6 -9 15
2 -43 9 6 9 8 -8 17
1 -43 10 5 7 10 -8 17
0 -46 10 3 8 9 -9 17
-1 -46 9 3 6 7 -9 17
-4 -50 9 5 4 7 -10 18
-4 -53 9 6 4 9 -10 18
-4 -53 12 6 5 9 -9 19
-2 -54 11 7 5 8 -9 18
-2 -55 12 8 7 10 -9 19
-3 -52 12 7 7 10 -10 18
-4 -50 13 7 8 12 -8 21
-1 -45 12 5 6 12 -8 21
-2 -47 13 6 7 12 -8 22
-3 -47 11 6 6 11 -8 21
-3 -48 12 6 5 10 -9 21
-3 -50 12 7 5 8 -11 19
-3 -50 13 7 6 8 -10 19
-4 -53 13 9 7 8 -11 19
-2 -53 13 11 6 8 -11 20
0 -50 13 9 8 8 -11 20
-2 -48 13 8 7 7 -11 21
-2 -48 15 8 8 12 -9 23
-2 -47 14 6 6 10 -10 22
-2 -48 13 7 5 9 -11 22
-2 -49 13 8 4 9 -12 22
-3 -53 12 8 4 10 -12 22
-7 -58 12 8 5 8 -11 21
-6 -57 13 10 7 9 -10 21
-2 -54 15 11 7 9 -10 21
1 -47 15 11 8 9 -9 22
3 -43 16 9 9 9 -8 22
-3 -47 14 7 6 10 -9 21
-8 -54 12 6 3 8 -10 20
-7 -53 13 8 5 11 -8 22
2 -44 15 10 6 12 -8 24
3 -45 17 12 8 14 -7 25
2 -50 15 10 6 12 -8 23
2 -55 16 13 9 14 -8 24
1 -56 17 16 10 15 -9 25
0 -51 16 15 12 16 -8 25
1 -48 17 14 12 17 -8 26
1 -49 15 12 11 18 -9 26
1 -51 15 11 10 18 -10 25
1 -49 14 11 9 17 -10 25
-1 -51 14 12 10 18 -10 27
0 -52 15 14 11 20 -10 28
0 -52 17 15 11 20 -8 31
0 -55 17 16 11 19 -9 29
2 -52 15 15 12 19 -10 28
2 -46 14 13 12 19 -9 26
3 -42 13 11 11 18 -11 26
2 -42 14 10 10 19 -9 26
0 -48 14 9 8 17 -11 25
-2 -51 12 8 6 16 -12 24
-9 -54 10 7 5 14 -14 23
-10 -57 12 9 6 14 -15 22
-5 -55 13 10 8 13 -13 22
-4 -54 12 10 8 14 -13 21
-3 -53 14 12 12 17 -12 22
-2 -50 15 11 12 16 -11 22
0 -47 15 10 12 16 -10 23
0 -47 15 9 12 18 -10 23
-2 -52 14 9 10 17 -11 23
-2 -52 13 8 7 14 -13 23
-1 -51 12 7 6 12 -14 23
-2 -54 12 8 7 11 -15 21
-2 -56 12 10 8 12 -14 23
0 -56 12 10 9 10 -13 22
-1 -55 12 10 10 10 -14 21
0 -52 13 9 12 12 -13 22
-4 -53 14 8 12 14 -10 23
-10 -57 11 5 12 10 -13 20
-16 -64 10 4 10 8 -14 18
-13 -61 9 4 8 4 -15 18
-3 -53 12 6 9 5 -14 20
-8 -58 9 4 8 3 -17 16
-8 -56 9 5 9 2 -17 16
-5 -52 11 7 10 5 -15 17
1 -47 12 8 13 6 -14 18
2 -44 12 7 14 8 -13 18
0 -42 11 5 13 8 -11 18
0 -43 10 2 12 6 -11 19
2 -43 9 2 10 6 -12 18
1 -42 10 1 9 7 -12 18
-1 -42 10 1 6 4 -12 18
0 -45 11 3 8 5 -11 17
-2 -47 11 3 8 5 -12 16
-3 -48 12 4 8 4 -14 15
-1 -46 11 3 10 3 -15 16
0 -45 11 3 10 3 -14 17
0 -39 11 2 10 3 -14 17
0 -37 10 1 9 2 -14 17
0 -40 8 0 7 3 -16 16
1 -40 8 -1 6 3 -15 16
0 -38 9 1 6 4 -14 17
-3 -42 9 1 6 4 -15 16
-5 -44 10 3 7 5 -14 17
-9 -47 9 3 7 2 -14 16
-10 -48 9 2 7 1 -16 16
-8 -43 8 1 8 1 -17 15
-9 -42 9 2 8 1 -16 16
-5 -41 8 1 8 2 -15 17
-3 -40 9 1 9 3 -13 18
-2 -38 8 0 8 2 -14 17
-4 -38 8 0 7 2 -15 18
-6 -42 7 -1 7 2 -15 16
-7 -45 9 2 10 4 -13 17
-7 -50 9 3 10 1 -16 15
-8 -51 9 4 10 0 -16 15
-6 -45 7 3 10 0 -15 16
-7 -42 7 1 8 1 -17 16
-7 -40 7 1 7 1 -17 15
-6 -40 6 0 6 2 -18 15
-6 -40 4 -2 6 1 -18 15
-4 -37 7 -1 7 4 -17 16
-4 -39 6 -1 8 5 -17 14
-7 -42 7 1 9 5 -16 15
-6 -43 8 2 10 6 -15 15
-5 -43 8 3 10 6 -15 14
-7 -42 6 0 10 7 -14 13
-7 -39 4 -2 7 7 -15 14
-7 -38 2 -5 6 4 -17 12
-11 -42 2 -6 3 2 -18 10
-14 -44 3 -7 2 1 -19 11
-9 -41 5 -5 3 3 -20 13
-3 -38 7 -2 7 6 -19 14
-6 -42 8 0 7 7 -17 15
-2 -38 10 2 10 8 -16 16
-2 -36 10 2 10 10 -15 17
-4 -36 9 1 10 10 -15 16
-4 -36 8 -1 7 9 -14 16
-7 -36 7 -3 6 7 -16 16
-9 -41 9 -2 6 6 -17 15
-9 -41 8 -3 3 4 -17 14
-2 -34 10 -1 4 7 -16 16
-3 -35 9 0 7 7 -14 14
-6 -40 9 0 9 6 -15 14
-6 -40 9 2 10 5 -15 15
-1 -36 10 3 13 6 -13 16
-2 -31 10 3 15 9 -11 17
-3 -27 12 3 17 9 -10 20
-3 -24 14 3 18 9 -9 21
-2 -25 12 2 16 7 -10 19
-2 -24 12 2 13 7 -11 18
-7 -25 11 1 13 6 -9 19
-12 -33 11 3 13 5 -11 17
-5 -30 12 5 16 6 -10 19
4 -21 16 9 20 9 -7 23
0 -23 14 7 20 8 -7 23
-2 -21 15 7 21 11 -7 24
3 -14 17 8 22 14 -6 28
7 -10 19 9 24 15 -3 30
7 -10 17 10 24 16 -3 29
6 -13 15 8 21 14 -5 28
7 -15 14 8 18 13 -3 28
7 -18 14 9 19 15 -2 30
7 -18 14 11 22 15 -1 32
6 -17 15 12 23 16 0 32
6 -17 14 11 23 17 -1 31
7 -11 15 12 26 19 0 32
4 -7 16 11 26 19 2 34
2 -7 14 7 22 19 0 33
3 -8 13 5 21 18 -2 31
3 -10 11 6 19 15 -3 30
6 -12 11 5 19 14 -2 30
5 -16 12 8 22 16 1 31
3 -21 11 10 23 16 0 29
4 -22 11 10 22 15 -1 28
4 -24 10 10 23 15 0 28
3 -25 8 9 22 13 -1 27
2 -24 7 7 22 14 0 26
0 -27 5 7 21 14 1 26
4 -25 4 6 19 15 1 27
12 -14 6 6 18 13 1 28
5 -21 4 1 13 8 -3 23
2 -29 7 2 14 8 -3 22
2 -32 7 2 14 8 -1 20
-1 -39 7 2 12 4 0 17
-4 -40 6 2 13 4 1 15
-6 -36 7 3 14 4 4 16
-4 -31 8 4 14 5 5 15
-2 -30 9 4 13 4 7 17
-5 -34 11 4 13 2 8 18
-5 -33 9 3 10 1 8 17
-6 -31 11 1 9 2 8 17
-9 -35 9 0 8 1 6 15
-15 -41 7 0 7 0 4 14
-18 -46 7 -1 5 -2 2 12
-11 -40 8 1 6 -1 3 12
-8 -37 8 3 8 0 6 13
-15 -40 6 -1 6 -2 4 10
-10 -33 6 -3 4 -1 3 10
-5 -29 7 -2 6 0 5 12
-5 -30 6 0 4 0 5 13
-7 -31 9 0 3 2 4 14
-8 -37 8 0 3 1 3 11
-9 -42 9 4 4 0 1 10
-6 -46 11 8 4 -1 -2 5
-4 -50 15 15 8 -3 -6 0
-2 -53 18 23 12 -4 -9 -5
-4 -57 24 31 18 -5 -12 -8
-4 -56 30 41 25 -3 -13 -10
-3 -54 36 50 35 2 -9 -7
-1 -44 37 57 46 12 1 4
0 -30 40 66 60 27 16 17
5 -18 43 79 75 44 35 32
10 -1 49 95 98 70 60 52
21 30 55 120 130 108 96 84
36 65 66 155 171 150 138 118
49 94 80 186 205 187 172 146
59 120 87 200 228 220 201 171
61 141 90 197 243 246 229 193
63 156 90 182 244 266 253 213
61 167 89 171 244 285 274 230
64 183 87 165 252 308 299 252
66 198 82 151 252 320 313 266
59 202 64 118 232 307 305 266
53 192 37 65 187 264 270 250
38 178 19 4 129 200 221 221
13 162 13 -46 76 134 163 187
-17 141 16 -78 31 77 108 147
-29 121 4 -118 -17 22 61 112
-18 107 -25 -141 -48 -5 37 94
-8 83 -68 -152 -67 -18 25 84
-11 53 -85 -150 -76 -26 14 67
-15 33 -83 -137 -73 -32 6 55
-17 22 -77 -122 -65 -29 3 49
-16 7 -71 -108 -60 -31 -1 41
-14 -3 -60 -93 -54 -35 -6 33
-12 -15 -49 -82 -51 -39 -14 22
-9 -24 -41 -69 -46 -41 -18 12
-7 -31 -32 -54 -36 -37 -17 9
-7 -37 -24 -43 -27 -34 -17 6
-8 -42 -18 -32 -19 -33 -17 6
-11 -41 -12 -26 -13 -29 -16 4
-17 -35 -10 -22 -11 -31 -20 -2
-15 -19 -6 -17 -7 -31 -22 -6
-14 4 -11 -20 -10 -36 -28 -14
-17 20 -17 -27 -16 -42 -35 -23
-12 39 -22 -30 -18 -45 -38 -26
-10 57 -27 -36 -23 -50 -43 -30
-10 68 -31 -41 -28 -54 -47 -34
-11 73 -35 -44 -33 -58 -50 -39
-17 73 -38 -47 -40 -65 -58 -44
-14 80 -37 -47 -42 -66 -58 -46
-7 88 -34 -44 -40 -65 -59 -47
-5 93 -33 -41 -40 -64 -59 -49
-6 95 -32 -41 -37 -63 -59 -48
-9 96 -32 -43 -39 -63 -59 -50
-10 98 -36 -45 -39 -64 -61 -52
-8 107 -36 -46 -41 -64 -61 -52
-8 112 -37 -50 -45 -66 -63 -53
-6 117 -38 -50 -46 -66 -65 -54
-5 119 -40 -51 -49 -68 -67 -56
-6 119 -40 -51 -50 -69 -69 -58
-4 119 -38 -49 -49 -68 -69 -60
-6 118 -37 -46 -49 -69 -69 -60
-8 117 -35 -46 -47 -68 -69 -61
-9 117 -35 -48 -47 -67 -68 -60
-10 120 -37 -48 -48 -68 -70 -61
-9 128 -37 -48 -47 -67 -70 -59
-8 130 -37 -50 -47 -65 -70 -58
-8 128 -39 -51 -50 -66 -71 -60
-6 134 -42 -52 -52 -68 -75 -62
-5 134 -40 -51 -53 -68 -76 -64
-5 130 -39 -48 -54 -68 -77 -66
-6 130 -37 -45 -52 -66 -76 -65
-9 127 -36 -44 -49 -67 -75 -65
-10 126 -36 -45 -47 -67 -72 -65
-12 126 -40 -48 -49 -71 -74 -68
-11 133 -39 -48 -49 -71 -75 -68
-7 142 -36 -48 -47 -70 -72 -66
-9 139 -38 -49 -50 -73 -73 -67
-10 135 -40 -48 -52 -76 -77 -69
-8 135 -39 -48 -52 -76 -77 -70
-9 130 -36 -45 -49 -74 -75 -70
-7 131 -34 -42 -48 -72 -75 -70
-8 131 -33 -40 -45 -70 -73 -68
-7 131 -34 -41 -46 -71 -73 -68
-8 133 -36 -42 -47 -71 -74 -68
-9 134 -38 -43 -49 -70 -76 -69
-11 136 -40 -46 -50 -70 -77 -70
-13 133 -41 -46 -52 -70 -77 -70
-13 131 -42 -45 -54 -73 -82 -71
-5 137 -37 -40 -50 -69 -80 -68
-6 134 -35 -37 -46 -69 -78 -67
-9 126 -34 -35 -45 -66 -78 -67
-4 128 -31 -32 -42 -64 -77 -68
-5 126 -32 -32 -40 -62 -77 -66
-10 125 -35 -35 -43 -64 -78 -67
-8 132 -36 -37 -44 -63 -79 -67
1 142 -34 -35 -43 -61 -76 -64
6 146 -34 -34 -43 -61 -75 -62
0 142 -36 -34 -47 -66 -77 -64
-2 139 -34 -32 -47 -66 -79 -65
-2 133 -31 -29 -45 -64 -78 -65
-2 130 -31 -26 -44 -64 -78 -67
-1 129 -29 -24 -43 -62 -77 -66
-2 129 -31 -25 -43 -59 -76 -66
-4 128 -29 -23 -44 -60 -76 -65
-2 133 -28 -23 -43 -59 -77 -64
-4 132 -30 -25 -45 -59 -77 -65
-9 127 -32 -25 -46 -61 -80 -64
-6 128 -32 -23 -47 -63 -82 -66
4 137 -28 -17 -41 -57 -77 -64
6 132 -25 -13 -38 -54 -76 -63
3 128 -27 -12 -38 -54 -77 -64
0 124 -27 -12 -40 -54 -79 -66
1 125 -27 -11 -38 -52 -77 -65
6 129 -26 -10 -37 -49 -75 -62
6 134 -26 -10 -38 -49 -75 -61
6 135 -26 -10 -39 -48 -73 -60
6 132 -28 -11 -40 -51 -74 -61
6 129 -26 -8 -42 -52 -76 -61
4 128 -27 -6 -40 -53 -77 -62
6 124 -26 -2 -37 -52 -77 -61
7 124 -23 1 -35 -51 -76 -60
6 121 -21 4 -33 -49 -74 -60
7 121 -23 4 -30 -49 -73 -57
9 123 -23 3 -32 -50 -72 -55
9 125 -23 3 -33 -49 -72 -52
10 128 -24 2 -34 -51 -71 -50
13 130 -26 1 -35 -52 -71 -47
12 128 -26 2 -38 -55 -73 -48
11 126 -25 2 -41 -55 -73 -49
10 122 -23 4 -40 -55 -71 -49
15 121 -21 7 -38 -53 -70 -49
17 121 -21 8 -37 -53 -69 -49
13 119 -23 7 -38 -54 -69 -51
13 119 -25 4 -39 -55 -71 -53
13 125 -25 2 -41 -55 -72 -53
14 127 -25 1 -42 -56 -71 -53
16 127 -27 -1 -43 -56 -71 -54
14 122 -28 -3 -48 -58 -73 -55
11 120 -29 -4 -48 -59 -73 -56
12 118 -27 -1 -45 -56 -69 -54
17 119 -24 0 -45 -55 -68 -52
14 116 -24 0 -45 -57 -68 -52
15 115 -25 0 -43 -56 -68 -52
16 116 -27 -4 -44 -58 -68 -53
15 120 -27 -7 -45 -59 -66 -51
13 119 -28 -9 -47 -60 -66 -51
15 117 -31 -13 -50 -61 -69 -52
17 120 -31 -13 -51 -62 -68 -50
14 118 -31 -13 -51 -60 -67 -50
13 115 -29 -12 -51 -59 -66 -49
13 112 -29 -12 -50 -58 -66 -47
11 109 -27 -13 -52 -57 -63 -46
11 112 -30 -15 -54 -58 -62 -47
6 108 -33 -19 -56 -60 -64 -49
6 113 -34 -23 -59 -59 -65 -49
10 121 -32 -23 -58 -54 -62 -46
12 123 -34 -23 -59 -52 -62 -44
15 124 -33 -24 -59 -52 -61 -42
15 126 -33 -26 -60 -50 -60 -41
12 121 -31 -24 -56 -47 -57 -39
12 120 -29 -23 -54 -42 -55 -36
10 115 -29 -24 -54 -42 -55 -38
10 115 -30 -25 -53 -43 -57 -39
10 118 -30 -27 -50 -42 -55 -37
8 123 -32 -31 -53 -42 -56 -38
7 124 -33 -33 -54 -42 -56 -38
4 121 -34 -34 -53 -41 -57 -38
4 120 -34 -34 -54 -43 -59 -38
4 120 -35 -35 -55 -45 -59 -40
1 112 -33 -33 -53 -45 -59 -38
-1 106 -32 -34 -55 -45 -59 -38
-7 102 -31 -35 -54 -45 -59 -39
-4 102 -30 -34 -52 -43 -57 -39
7 113 -28 -32 -49 -39 -53 -35
3 117 -29 -35 -51 -38 -54 -36
1 116 -31 -38 -54 -41 -54 -37
-3 111 -32 -41 -56 -42 -56 -38
-11 102 -35 -43 -59 -47 -61 -42
-14 98 -36 -44 -60 -47 -62 -44
-6 102 -31 -38 -56 -43 -57 -41
-1 104 -28 -34 -53 -41 -57 -40
-2 101 -25 -33 -52 -39 -56 -38
-2 101 -26 -34 -52 -39 -56 -38
0 103 -26 -35 -52 -38 -56 -37
0 106 -27 -36 -52 -37 -55 -38
-3 105 -28 -38 -53 -37 -54 -38
-2 103 -30 -40 -53 -40 -56 -40
-2 100 -31 -42 -56 -42 -57 -41
-3 100 -30 -41 -57 -42 -57 -43
-3 95 -27 -38 -54 -41 -57 -44
-4 91 -27 -37 -51 -39 -57 -43
-5 89 -26 -37 -49 -39 -57 -43
-5 89 -25 -36 -49 -37 -56 -43
-6 88 -26 -36 -47 -36 -54 -42
-4 95 -27 -38 -49 -36 -54 -41
-5 98 -29 -40 -51 -38 -55 -40
-4 98 -29 -39 -52 -39 -54 -40
-3 96 -28 -40 -52 -39 -54 -41
-6 96 -28 -41 -53 -39 -55 -41
-6 89 -26 -39 -51 -37 -55 -41
-6 87 -25 -38 -48 -37 -52 -41
-8 82 -25 -38 -48 -38 -52 -41
-9 83 -25 -37 -45 -37 -49 -40
-9 83 -25 -36 -39 -35 -47 -38
-6 90 -24 -37 -38 -35 -45 -34
-3 94 -24 -36 -38 -34 -43 -31
-4 91 -26 -38 -40 -36 -44 -33
-5 88 -26 -38 -41 -36 -44 -34
-4 88 -24 -37 -41 -34 -42 -32
-5 83 -23 -35 -40 -33 -41 -32
-6 81 -21 -33 -38 -32 -40 -33
-8 76 -20 -31 -37 -30 -39 -32
-8 75 -20 -31 -36 -30 -37 -30
-1 80 -21 -31 -33 -28 -38 -29
-1 81 -22 -32 -34 -28 -35 -29
-3 84 -24 -34 -35 -29 -36 -30
-3 83 -24 -34 -36 -30 -36 -30
-6 80 -24 -33 -36 -30 -38 -31
-3 82 -24 -33 -36 -29 -36 -30
-2 81 -22 -32 -35 -27 -36 -30
-1 79 -19 -29 -32 -24 -33 -30
-1 76 -18 -26 -31 -25 -33 -26
-2 74 -20 -27 -32 -27 -35 -18
-2 75 -23 -29 -33 -26 -36 -16
-3 77 -22 -30 -34 -25 -34 -15
-5 75 -22 -30 -35 -25 -34 -14
-6 72 -23 -30 -38 -25 -34 -15
-2 76 -22 -30 -37 -23 -34 -14
1 76 -20 -28 -36 -21 -32 -12
0 72 -19 -27 -33 -19 -31 -11
-1 68 -18 -27 -32 -19 -30 -12
-2 69 -17 -26 -31 -17 -30 -12
-2 70 -15 -24 -29 -14 -28 -11
-2 69 -18 -26 -29 -16 -31 -11
-2 73 -18 -27 -30 -17 -28 -10
-2 73 -19 -28 -32 -17 -28 -9
-1 69 -19 -27 -32 -18 -27 -9
0 70 -20 -28 -34 -20 -30 -10
-2 69 -20 -29 -36 -21 -29 -12
-3 62 -19 -27 -35 -20 -29 -11
-11 52 -20 -28 -36 -23 -32 -14
-13 51 -21 -27 -36 -23 -33 -14
2 64 -13 -20 -29 -16 -24 -8
9 69 -14 -20 -27 -15 -24 -7
4 68 -16 -24 -29 -17 -25 -10
3 68 -17 -28 -31 -16 -25 -9
2 67 -17 -27 -32 -17 -24 -10
3 67 -18 -26 -32 -18 -25 -10
2 65 -16 -26 -32 -17 -24 -10
0 56 -16 -25 -32 -18 -27 -12
0 53 -15 -23 -31 -17 -27 -12
1 55 -14 -24 -31 -16 -27 -11
1 57 -12 -23 -29 -14 -25 -8
0 58 -13 -22 -29 -11 -23 -8
-1 61 -15 -24 -31 -11 -23 -9
0 63 -15 -27 -33 -10 -23 -10
-1 61 -16 -28 -35 -11 -24 -11
-2 59 -16 -26 -35 -11 -27 -13
0 58 -13 -26 -34 -8 -23 -10
0 52 -11 -24 -34 -8 -24 -11
-2 49 -9 -23 -34 -8 -25 -11
-3 49 -9 -22 -32 -6 -26 -12
-3 48 -9 -22 -32 -6 -26 -13
-2 51 -11 -23 -34 -6 -27 -14
-2 55 -13 -26 -36 -7 -25 -13
0 55 -15 -27 -36 -7 -26 -14
2 57 -15 -27 -36 -7 -25 -14
0 55 -16 -27 -38 -9 -26 -16
-5 47 -15 -29 -38 -10 -26 -16
-7 41 -14 -26 -38 -10 -27 -15
3 48 -10 -21 -33 -8 -24 -13
3 48 -8 -21 -31 -6 -23 -12
1 46 -9 -24 -34 -7 -23 -14
1 47 -12 -26 -35 -8 -25 -16
2 52 -12 -27 -34 -3 -22 -13
0 51 -13 -27 -35 -4 -22 -13
0 51 -13 -27 -35 -4 -21 -12
2 53 -12 -26 -34 -4 -22 -13
2 50 -12 -27 -34 -4 -21 -12
2 46 -11 -25 -32 -4 -22 -13
-1 43 -10 -24 -32 -4 -22 -12
-1 39 -9 -23 -31 -5 -24 -13
1 41 -8 -22 -31 -5 -25 -12
-1 44 -11 -23 -32 -7 -27 -13
-2 46 -11 -26 -35 -7 -27 -13
-2 44 -11 -25 -35 -6 -26 -13
-6 40 -12 -27 -37 -8 -29 -15
-10 34 -15 -29 -40 -11 -33 -19
-9 33 -14 -28 -37 -9 -31 -19
6 41 -7 -21 -30 -3 -26 -14
7 42 -4 -20 -29 -3 -24 -13
2 33 -6 -21 -29 -2 -25 -15
1 30 -5 -22 -27 -1 -25 -15
-2 31 -7 -23 -28 -1 -26 -16
-5 31 -8 -24 -30 0 -26 -16
-3 35 -7 -25 -31 1 -26 -16
0 36 -7 -24 -31 1 -25 -15
4 38 -9 -25 -32 -1 -25 -15
4 39 -7 -24 -30 2 -24 -14
-1 32 -6 -22 -28 2 -24 -14
-3 25 -8 -23 -27 0 -25 -17
-5 23 -8 -23 -26 0 -26 -18
-5 24 -5 -21 -26 -1 -26 -18
2 30 -4 -19 -25 0 -25 -16
3 32 -6 -21 -26 -1 -24 -16
1 33 -7 -24 -28 -1 -24 -17
0 32 -6 -22 -26 1 -22 -15
-3 27 -6 -21 -25 1 -21 -16
-4 25 -6 -22 -25 2 -20 -16
-4 21 -4 -21 -24 2 -19 -16
3 22 -1 -17 -20 4 -15 -14
4 24 -2 -16 -18 5 -14 -14
0 22 -2 -19 -19 4 -15 -14
-1 22 -3 -19 -20 3 -19 -15
-1 23 -4 -21 -21 2 -19 -15
-3 23 -5 -22 -23 0 -21 -18
1 25 -4 -19 -21 0 -20 -16
1 24 -3 -19 -21 -1 -19 -16
0 20 -4 -20 -20 -1 -19 -17
0 17 -1 -17 -17 -1 -17 -16
0 15 -1 -15 -17 -1 -15 -16
0 15 0 -15 -17 -1 -16 -17
1 15 0 -15 -16 -3 -15 -16
0 13 -2 -16 -18 -7 -18 -18
0 18 -2 -16 -19 -5 -16 -17
-2 17 -3 -18 -20 -5 -18 -17
-4 14 -5 -17 -20 -7 -19 -17
-2 15 -4 -16 -20 -8 -18 -17
3 20 -2 -16 -19 -6 -18 -15
4 17 1 -13 -16 -2 -16 -16
0 12 4 -10 -13 0 -15 -14
-4 11 5 -9 -14 1 -15 -13
-2 14 7 -9 -14 2 -14 -11
3 18 7 -8 -13 5 -12 -10
10 24 7 -6 -10 6 -9 -9
7 25 7 -8 -12 8 -9 -10
7 23 7 -8 -12 9 -7 -10
7 23 6 -8 -12 9 -7 -9
9 23 6 -7 -10 12 -5 -8
8 19 8 -3 -6 13 -5 -7
9 19 11 0 -2 15 -1 -3
12 20 10 0 1 17 0 -2
15 20 9 1 1 19 -1 -2
16 20 8 1 0 21 0 -1
15 26 6 -2 -1 20 0 -2
16 30 7 -1 -1 24 2 -1
17 28 6 -2 -1 25 4 0
17 26 4 -4 -4 24 2 -1
17 28 5 -3 -3 25 4 1
13 24 6 -2 -4 24 3 1
8 18 7 -1 -2 25 3 2
8 16 6 -2 -2 23 3 -2
6 13 4 -5 -2 21 -1 -4
5 10 2 -5 -2 19 -2 -5
11 17 3 -3 1 22 3 -1
13 16 4 -1 3 22 4 0
16 17 5 -2 1 19 2 -1
21 22 7 0 3 21 4 1
20 19 5 -1 2 20 4 -1
18 11 6 1 5 21 5 0
15 4 6 0 3 18 4 -2
16 1 6 0 5 16 5 -2
15 -1 5 -3 2 13 2 -5
13 -5 2 -8 -4 7 -4 -9
11 -5 3 -9 -4 6 -5 -9
10 -4 2 -10 -4 5 -5 -10
12 -2 2 -11 -6 4 -8 -12
12 0 4 -10 -5 1 -7 -12
7 -3 6 -12 -5 0 -7 -13
7 -9 9 -9 -4 -1 -8 -13
7 -11 11 -7 -1 0 -6 -12
3 -16 13 -6 -2 1 -6 -14
1 -17 13 -8 -3 -1 -6 -14
-3 -21 11 -10 -6 -4 -9 -15
-9 -23 9 -12 -8 -5 -10 -17
-10 -24 8 -15 -9 -7 -10 -17
3 -12 10 -11 -7 -5 -8 -14
9 -7 11 -9 -4 -6 -8 -14
5 -12 11 -12 -3 -7 -8 -16
1 -21 12 -12 -3 -8 -8 -17
-1 -23 12 -11 -3 -11 -9 -17
-4 -26 12 -13 -3 -12 -10 -18
-2 -24 11 -12 -3 -11 -10 -18
4 -18 12 -10 -1 -11 -9 -17
1 -20 11 -10 -1 -11 -8 -18
4 -20 13 -9 -1 -11 -8 -20
7 -23 15 -4 -1 -13 -10 -23
5 -33 18 2 2 -19 -14 -29
7 -38 22 9 7 -19 -17 -34
9 -46 29 20 13 -17 -18 -39
8 -51 36 33 22 -14 -18 -41
9 -44 41 43 29 -10 -15 -40
10 -34 45 52 42 3 -5 -30
13 -19 45 59 54 14 7 -18
15 -2 46 66 68 30 25 -3
20 16 49 77 85 52 46 16
30 42 54 96 111 87 79 45
38 72 63 127 145 129 121 80
46 97 75 159 182 168 158 109
54 118 86 183 214 206 192 137
63 144 95 190 232 235 221 159
66 166 98 179 238 260 249 184
67 178 102 167 239 281 272 202
72 195 104 165 247 303 295 221
72 214 101 150 246 317 313 238
64 219 87 118 227 308 308 239
58 208 59 67 182 266 274 221
47 193 38 7 122 200 220 190
24 181 29 -49 66 134 165 158
1 162 33 -79 26 74 109 123
-17 138 31 -114 -21 17 57 88
-19 112 4 -146 -61 -21 25 63
-11 95 -41 -162 -83 -35 14 52
-7 73 -72 -165 -95 -42 7 39
-8 58 -79 -158 -98 -45 1 28
-9 49 -78 -145 -93 -44 0 22
-9 37 -77 -134 -89 -45 -3 16
-5 26 -71 -120 -84 -46 -8 8
-7 10 -59 -108 -80 -49 -15 -1
-10 -14 -46 -93 -74 -55 -24 -14
-9 -27 -35 -76 -64 -53 -27 -21
-8 -36 -28 -62 -55 -50 -29 -26
-1 -32 -14 -45 -39 -41 -23 -24
5 -27 -9 -34 -31 -36 -21 -24
-2 -28 -4 -29 -24 -33 -20 -24
-4 -28 1 -24 -19 -30 -18 -23
-2 -28 6 -18 -13 -26 -17 -24
-2 -30 7 -17 -13 -29 -18 -26
-3 -32 7 -17 -13 -29 -17 -24
-5 -41 9 -16 -13 -30 -17 -25
-7 -44 9 -15 -13 -30 -19 -25
-3 -42 6 -15 -17 -30 -20 -25
-3 -41 9 -12 -13 -29 -19 -25
-5 -41 8 -9 -13 -29 -19 -26
-5 -41 9 -10 -14 -29 -20 -25
-3 -40 10 -9 -13 -29 -21 -25
-6 -42 12 -8 -10 -29 -19 -27
-7 -43 11 -10 -12 -30 -16 -26
-7 -41 11 -11 -10 -28 -12 -24
-7 -43 13 -7 -7 -26 -10 -22
-9 -47 13 -9 -8 -27 -12 -22
-7 -47 11 -10 -10 -31 -15 -23
-1 -43 15 -5 -8 -28 -13 -21
-6 -48 12 -5 -10 -31 -18 -24
-5 -43 12 -5 -12 -28 -19 -24
-2 -38 13 -4 -9 -26 -18 -23
-2 -36 17 -1 -4 -22 -16 -22
-3 -36 15 -2 -4 -21 -16 -22
-2 -33 16 -3 -2 -19 -15 -22
1 -35 17 -1 -1 -18 -14 -22
0 -38 19 0 1 -16 -13 -20
-2 -40 17 -2 -1 -17 -16 -21
-5 -42 18 -1 -1 -18 -16 -22
-7 -46 16 1 -2 -21 -19 -24
-5 -42 16 -1 -1 -21 -19 -24
-3 -41 17 0 -1 -20 -17 -24
-4 -43 16 1 1 -20 -17 -25
-4 -43 15 2 3 -19 -17 -24
-6 -41 16 1 4 -16 -15 -23
-4 -44 18 3 6 -15 -15 -23
-6 -45 19 4 8 -12 -14 -22
-7 -46 18 2 5 -14 -16 -24
-7 -47 18 3 4 -16 -17 -24
-10 -52 12 2 0 -22 -23 -28
-5 -44 14 4 3 -19 -20 -25
4 -35 18 9 7 -16 -16 -22
-3 -42 17 8 6 -19 -18 -25
-1 -40 17 9 7 -19 -18 -23
2 -34 20 9 11 -14 -14 -20
1 -40 20 11 11 -15 -15 -21
0 -39 21 11 11 -13 -14 -20
0 -41 19 10 10 -13 -14 -20
1 -44 19 13 10 -14 -13 -19
2 -43 18 14 11 -15 -15 -20
-2 -39 19 13 10 -15 -17 -20
0 -40 18 14 8 -16 -17 -20
0 -40 18 15 8 -16 -18 -22
1 -42 18 13 8 -16 -19 -23
3 -38 18 14 10 -12 -18 -22
4 -43 18 16 11 -13 -16 -20
2 -43 20 18 14 -12 -16 -20
3 -41 21 18 15 -10 -14 -17
1 -43 20 21 14 -10 -15 -19
-1 -48 18 21 12 -11 -18 -20
-3 -48 19 20 12 -9 -17 -19
-5 -50 16 19 9 -9 -18 -20
0 -45 20 24 15 -5 -17 -17
2 -43 20 26 16 -4 -16 -16
6 -37 22 26 18 -1 -15 -15
9 -36 24 30 22 2 -13 -13
7 -39 24 30 24 3 -13 -12
11 -39 23 31 25 1 -13 -12
10 -38 23 33 26 2 -14 -13
8 -40 23 34 26 1 -17 -14
10 -36 23 36 26 2 -16 -13
10 -35 23 36 26 4 -13 -10
9 -37 24 39 27 6 -12 -10
11 -37 22 39 29 7 -12 -11
10 -38 24 39 31 9 -11 -12
11 -41 25 43 34 9 -8 -10
11 -42 24 44 35 9 -7 -10
10 -45 24 43 33 6 -9 -12
9 -46 26 44 35 6 -7 -11
9 -47 24 45 35 4 -8 -12
9 -42 25 46 36 5 -7 -12
11 -38 24 47 37 7 -6 -11
13 -37 25 50 38 7 -6 -12
13 -38 24 52 39 7 -5 -11
12 -37 25 51 37 9 -3 -9
11 -43 26 54 39 9 -2 -8
11 -44 24 54 39 8 -4 -10
10 -44 22 54 36 5 -5 -12
13 -41 23 55 37 5 -5 -12
15 -41 22 55 36 3 -6 -12
15 -38 21 54 35 3 -5 -11
16 -38 21 55 36 5 -2 -9
16 -41 21 56 36 5 -2 -10
16 -40 20 53 34 3 -4 -10
16 -35 18 51 31 3 -4 -10
16 -39 20 52 30 3 -4 -8
16 -38 20 51 27 2 -6 -9
17 -36 20 50 25 0 -5 -7
14 -39 18 50 24 -2 -7 -8
16 -41 17 50 22 -4 -10 -9
16 -37 19 48 22 -3 -8 -9
15 -39 18 47 20 -3 -8 -9
15 -38 16 48 18 -6 -10 -9
16 -37 15 44 16 -6 -11 -9
17 -33 15 42 17 -3 -8 -6
17 -36 16 43 17 -1 -8 -5
14 -38 14 39 16 -2 -8 -6
12 -43 12 36 13 -6 -10 -8
11 -44 10 34 11 -8 -12 -8
22 -32 9 35 12 -9 -12 -7
22 -26 9 32 12 -8 -11 -6
20 -28 7 30 9 -9 -10 -6
21 -29 6 30 9 -9 -9 -7
20 -27 6 28 10 -7 -9 -5
17 -24 6 25 10 -6 -6 -3
18 -24 7 26 10 -4 -3 -2
18 -24 7 23 8 -5 -1 -1
18 -23 5 19 6 -6 -1 -2
16 -23 5 19 7 -3 3 0
9 -28 1 16 3 -6 1 -3
8 -24 3 15 3 -5 5 0
10 -20 6 16 5 -1 12 3
8 -23 5 14 4 -2 14 1
20 -8 7 15 6 0 17 3
20 -4 6 12 5 2 19 5
16 -12 5 10 4 0 20 5
16 -8 7 10 6 2 23 6
13 -8 6 9 6 1 22 5
12 -11 4 5 3 -1 20 4
11 -11 2 2 2 -5 18 1
10 -8 3 2 2 -4 20 2
13 -4 4 2 1 -4 22 3
9 -7 7 2 2 -3 21 3
7 -11 6 1 2 -2 21 1
6 -10 6 0 2 1 23 2
7 -13 7 -1 2 -1 23 1
7 -14 5 -1 2 0 22 0
7 -15 5 -2 2 -1 24 1
6 -14 6 -1 3 0 24 1
7 -13 6 -1 5 -1 21 -1
5 -9 5 -4 3 -1 22 -1
1 -11 6 -4 2 -1 23 0
0 -12 7 -3 2 0 23 -1
0 -14 5 -4 0 -1 23 -2
2 -12 3 -6 -1 1 23 -1
3 -16 4 -6 -2 0 24 -1
0 -16 3 -6 -4 0 23 -1
0 -15 3 -6 -3 0 24 0
2 -14 4 -5 -2 -1 23 1
4 -14 2 -5 -3 -4 19 -2
2 -14 3 -6 -2 -2 22 -1
-1 -16 4 -6 -3 -2 23 0
1 -14 2 -6 -3 -2 23 -1
2 -10 2 -7 -3 -1 24 -1
-2 -10 4 -7 -2 2 27 1
-1 -15 5 -6 -1 0 27 1
0 -17 6 -6 0 1 26 1
0 -18 5 -7 -3 -3 24 -1
-1 -19 6 -6 -4 -3 23 0
0 -20 4 -6 -5 -6 20 -2
2 -15 4 -7 -6 -4 23 -1
1 -14 4 -7 -6 -4 24 0
-1 -18 4 -7 -7 -5 23 0
-1 -17 4 -8 -9 -6 22 -2
-5 -17 3 -11 -9 -4 23 0
-3 -19 3 -8 -7 -4 24 0
1 -16 7 -5 -5 0 27 3
2 -18 5 -5 -9 -4 25 2
3 -17 6 -4 -7 -4 24 3
3 -14 4 -5 -8 -6 23 1
1 -15 3 -6 -8 -8 21 -1
0 -15 3 -5 -7 -6 23 0
-1 -16 5 -5 -8 -6 22 0
2 -15 4 -5 -7 -6 23 0
3 -9 4 -6 -8 -2 25 1
1 -14 5 -4 -7 -1 29 3
1 -15 5 -4 -6 0 29 4
-3 -17 4 -3 -5 -1 29 2
-2 -20 6 -2 -6 -2 26 1
-1 -21 2 -4 -8 -7 22 -1
-6 -24 1 -7 -9 -6 20 -1
-10 -25 0 -8 -8 -6 21 -1
-7 -23 0 -5 -6 -5 23 0
2 -14 2 -2 -3 -3 26 1
2 -12 4 -2 -2 0 28 3
1 -14 6 -1 -2 1 28 3
2 -15 5 -1 -3 0 26 3
3 -13 5 -2 -2 1 27 4
3 -13 6 0 -1 2 26 5
1 -15 4 -1 -3 0 24 3
3 -10 3 0 -1 2 26 6
3 -10 5 -1 0 2 25 5
3 -12 4 -1 0 1 23 5
2 -12 3 -1 2 3 24 5
1 -12 4 -1 2 5 25 7
0 -16 5 -1 2 6 27 8
-2 -16 5 -1 2 6 26 7
-2 -16 4 0 3 7 26 8
-1 -14 4 1 2 7 25 8
0 -16 2 1 1 7 24 6
-1 -13 2 -1 2 9 25 7
-6 -15 1 -2 1 7 25 6
-7 -22 2 -1 2 6 25 5
-3 -19 4 0 2 7 26 7
3 -12 5 1 5 10 28 10
2 -17 5 1 6 8 27 8
2 -17 3 -1 5 4 25 7
1 -18 3 -1 6 3 26 7
2 -17 4 1 7 3 26 7
0 -16 2 0 6 1 23 6
-4 -15 0 -2 4 -1 22 3
-8 -18 0 -3 3 -1 20 1
-10 -22 -3 -5 2 -3 19 0
-3 -16 -3 -4 3 -1 22 3
4 -6 -1 -4 4 1 25 5
8 -6 1 -3 5 1 26 6
4 -10 0 -3 4 0 27 7
1 -12 1 -3 3 -2 26 6
1 -12 1 -3 3 -3 25 5
2 -12 -1 -4 1 -6 24 4
1 -11 0 -4 0 -7 23 4
2 -11 2 -4 2 -6 24 4
3 -12 2 -4 2 -7 26 4
2 -14 1 -6 0 -8 23 2
2 -11 1 -6 1 -6 24 3
0 -16 2 -5 1 -5 25 4
-1 -17 0 -6 0 -6 24 4
0 -18 0 -6 1 -6 22 4
0 -17 -1 -6 2 -8 20 2
4 -14 -3 -7 1 -12 18 1
3 -12 -2 -8 1 -11 19 2
2 -10 0 -7 1 -10 19 0
4 -9 1 -5 1 -10 18 1
3 -10 -2 -9 -1 -11 17 -1
0 -8 -2 -10 -2 -9 18 -2
-1 -13 -1 -9 -2 -9 17 -4
-3 -19 -3 -8 -3 -10 17 -4
0 -17 -1 -6 -3 -8 19 -2
0 -17 1 -4 -2 -7 20 -1
-1 -19 -1 -5 -5 -11 16 -2
2 -16 -2 -6 -7 -11 16 -1
1 -14 -2 -8 -9 -12 13 -2
1 -14 -3 -7 -9 -13 11 -2
1 -13 -3 -8 -10 -13 11 0
0 -11 -4 -10 -11 -12 9 -1
0 -13 -3 -8 -9 -11 9 0
0 -15 -4 -8 -11 -12 8 -1
-1 -17 -5 -8 -13 -14 6 -2
-3 -19 -5 -9 -13 -15 5 -4
-1 -16 -4 -7 -12 -14 6 -3
2 -13 -4 -7 -13 -15 5 -2
-1 -13 -4 -7 -11 -13 5 -1
-5 -17 -4 -8 -12 -15 3 -4
1 -10 -2 -7 -11 -13 5 -2
0 -5 -5 -10 -12 -12 6 -2
-4 -15 -7 -11 -15 -15 3 -5
-2 -15 -5 -10 -13 -15 5 -3
2 -11 -5 -9 -12 -12 6 -2
6 -10 -4 -8 -13 -12 5 -2
1 -14 -6 -9 -16 -15 2 -4
-4 -16 -5 -9 -16 -15 2 -4
-2 -15 -5 -9 -16 -15 2 -3
-2 -14 -7 -12 -19 -16 1 -5
-3 -16 -8 -14 -20 -16 0 -6
-5 -12 -7 -14 -17 -13 1 -5
-3 -12 -6 -13 -17 -14 0 -6
-1 -11 -6 -12 -15 -14 1 -5
-2 -10 -5 -12 -15 -15 1 -4
1 -10 -4 -11 -17 -16 1 -5
2 -11 -6 -11 -21 -19 -3 -7
-2 -11 -8 -13 -23 -18 -2 -7
-4 -13 -8 -14 -23 -17 -2 -8
-3 -13 -9 -13 -25 -17 -3 -7
1 -8 -10 -12 -27 -17 -2 -6
2 -7 -9 -13 -25 -15 0 -5
1 -12 -7 -12 -23 -13 0 -5
-2 -12 -5 -10 -24 -12 1 -3
-1 -14 -4 -10 -25 -13 0 -4
-1 -14 -7 -12 -27 -17 -3 -6
-1 -13 -9 -14 -29 -19 -6 -8
-2 -10 -10 -15 -30 -20 -6 -8
-3 -10 -8 -14 -29 -20 -6 -9
-1 -10 -8 -13 -28 -23 -5 -9
0 -9 -8 -13 -27 -23 -5 -10
0 -2 -6 -12 -26 -20 -3 -9
-2 -4 -4 -10 -24 -18 -2 -8
-3 -4 -3 -7 -20 -14 2 -4
2 0 -2 -5 -18 -11 5 -3
3 4 -2 -4 -16 -9 6 -2
2 2 -6 -6 -19 -13 2 -4
4 5 -6 -7 -22 -12 3 -3
6 10 -3 -6 -20 -9 4 -2
2 7 -3 -6 -19 -8 4 -4
3 8 -2 -4 -20 -9 5 -2
5 12 -2 -5 -18 -5 6 -1
6 9 -2 -2 -17 -7 5 -1
8 7 -2 -2 -16 -8 6 -1
6 4 -4 -3 -16 -7 4 -2
4 5 -7 -6 -17 -7 3 -4
2 3 -9 -6 -15 -8 1 -5
6 10 -8 -4 -14 -6 4 -2
15 21 -2 -2 -10 -1 9 2
10 17 -2 -4 -11 -1 11 1
6 13 -5 -7 -13 -4 9 -1
2 13 -5 -9 -12 -2 11 -1
6 14 -4 -7 -12 -4 8 -2
11 15 -4 -5 -11 -5 9 0
9 11 -7 -6 -11 -4 7 0
7 9 -8 -6 -11 -5 6 -1
7 9 -9 -5 -11 -7 5 -2
7 9 -10 -5 -11 -7 5 -2
8 11 -10 -5 -8 -3 5 -1
8 7 -10 -4 -8 -4 6 -2
4 0 -14 -7 -11 -7 3 -4
8 7 -13 -7 -8 -1 7 -1
15 9 -11 -5 -5 0 8 -1
16 5 -12 -6 -8 -4 6 -1
14 5 -12 -10 -12 -9 2 -2
9 -1 -15 -12 -15 -13 -2 -6
7 -4 -16 -13 -19 -19 -7 -9
6 -2 -17 -14 -21 -18 -8 -9
3 -1 -15 -16 -21 -18 -10 -11
3 0 -13 -14 -20 -18 -9 -10
3 1 -15 -16 -22 -19 -11 -12
1 6 -16 -18 -22 -19 -13 -13
0 2 -14 -17 -22 -20 -13 -15
-1 1 -15 -18 -23 -21 -14 -15
-3 1 -17 -20 -24 -23 -16 -17
-5 0 -18 -20 -23 -23 -17 -17
-7 -3 -18 -21 -25 -29 -20 -20
-7 1 -19 -21 -24 -29 -19 -18
-8 1 -18 -21 -24 -28 -19 -18
-7 0 -18 -22 -25 -30 -19 -20
-6 1 -19 -24 -27 -31 -20 -21
-8 5 -20 -27 -28 -29 -19 -20
-7 0 -20 -26 -28 -30 -19 -21
-5 3 -20 -26 -27 -29 -15 -19
-6 5 -21 -26 -27 -29 -14 -20
-8 4 -22 -26 -27 -29 -14 -21
-12 -5 -21 -23 -27 -33 -17 -24
-8 -5 -20 -20 -27 -33 -19 -28
-1 -6 -15 -11 -24 -32 -20 -31
0 -14 -10 -2 -20 -33 -23 -37
0 -21 -8 5 -18 -33 -28 -42
0 -19 -1 14 -9 -27 -27 -42
-1 -20 6 25 0 -23 -26 -42
1 -9 10 34 12 -13 -17 -32
3 2 14 41 24 -1 -4 -20
7 17 15 50 39 16 10 -5
12 35 16 60 55 34 32 12
18 65 18 75 78 65 63 40
29 101 25 104 113 107 106 73
38 128 37 137 152 152 146 107
44 150 47 159 182 187 182 133
49 175 56 165 203 222 214 157
50 192 63 158 213 249 245 181
53 207 67 146 211 270 269 202
57 224 71 142 219 294 296 223
55 241 69 132 224 314 316 243
49 245 58 107 212 310 315 246
45 242 32 63 176 278 289 234
32 222 5 1 115 211 234 202
8 200 -12 -61 50 134 167 165
-20 185 -16 -105 -2 62 104 125
-26 174 -16 -139 -49 1 47 88
-23 155 -33 -174 -97 -50 5 58
-15 141 -71 -190 -119 -65 -8 48
-12 118 -105 -193 -129 -67 -12 39
-11 99 -116 -185 -129 -67 -20 29
-14 84 -115 -171 -124 -68 -24 19
-12 79 -114 -159 -117 -63 -23 14
-9 69 -106 -143 -110 -58 -24 6
-8 50 -95 -126 -102 -59 -28 -2
-9 30 -82 -111 -99 -65 -37 -16
-9 16 -69 -94 -88 -61 -39 -23
-5 6 -59 -77 -74 -56 -37 -27
-6 -2 -52 -62 -64 -51 -36 -27
-10 -7 -45 -51 -55 -48 -35 -29
-4 -2 -35 -39 -43 -39 -30 -23
-2 1 -29 -30 -35 -35 -28 -23
-7 1 -26 -26 -34 -32 -26 -23
-11 -2 -24 -27 -33 -29 -25 -24
-15 -8 -26 -29 -35 -31 -27 -26
-8 -3 -24 -27 -34 -32 -27 -26
0 8 -22 -25 -32 -28 -23 -24
-4 0 -22 -26 -31 -29 -24 -26
-6 -4 -21 -24 -28 -30 -24 -26
-9 -7 -21 -22 -28 -31 -25 -28
-9 -8 -22 -22 -30 -33 -26 -29
-8 -12 -22 -19 -30 -35 -30 -30
-7 -8 -21 -19 -29 -32 -28 -31
-6 -4 -17 -16 -27 -27 -25 -28
-8 -6 -17 -16 -27 -27 -24 -28
-10 -7 -19 -18 -29 -29 -26 -30
-9 -1 -18 -20 -30 -27 -25 -27
-9 -7 -17 -19 -29 -26 -23 -25
-8 -7 -16 -17 -28 -28 -23 -26
-8 -7 -17 -17 -29 -29 -26 -28
-12 -11 -16 -16 -30 -31 -27 -28
-10 -12 -16 -12 -28 -31 -28 -29
-10 -7 -14 -12 -26 -29 -25 -28
-8 -4 -14 -12 -26 -28 -24 -27
-8 -5 -13 -11 -25 -26 -20 -26
-10 -7 -15 -13 -27 -27 -22 -28
-11 -7 -15 -16 -27 -26 -22 -27
-5 -6 -13 -13 -25 -24 -20 -24
-2 -4 -12 -10 -24 -25 -20 -24
-5 -7 -13 -10 -25 -28 -23 -28
-8 -9 -12 -8 -22 -28 -23 -27
-9 -9 -13 -6 -21 -31 -26 -29
-8 -6 -11 -5 -19 -30 -23 -28
-8 -6 -11 -6 -20 -28 -22 -28
-7 -6 -12 -6 -21 -30 -22 -29
-7 -3 -13 -6 -19 -30 -21 -28
-6 0 -12 -7 -19 -27 -20 -26
-3 -2 -12 -6 -19 -28 -19 -26
-3 -5 -12 -4 -18 -28 -18 -25
-4 -6 -13 -4 -18 -28 -21 -27
-6 -7 -13 -4 -18 -28 -20 -27
-7 -11 -14 -2 -17 -31 -23 -31
-7 -9 -13 -1 -15 -31 -23 -31
-11 -11 -13 -2 -15 -28 -21 -30
-16 -16 -14 -4 -17 -31 -23 -31
-9 -9 -13 -2 -15 -30 -21 -29
-5 -2 -10 -1 -13 -25 -17 -26
-4 -5 -9 0 -13 -24 -14 -27
-5 -9 -10 1 -14 -25 -16 -27
-6 -9 -9 1 -14 -26 -17 -28
-3 -7 -7 3 -13 -24 -16 -27
3 -4 -6 6 -12 -25 -17 -28
3 -2 -7 6 -11 -24 -17 -27
1 -1 -6 7 -11 -21 -13 -26
0 -4 -6 7 -13 -23 -15 -27
0 -5 -7 6 -14 -25 -16 -29
0 -1 -8 5 -15 -22 -14 -26
-2 -5 -8 6 -14 -23 -14 -26
0 -5 -8 8 -12 -23 -15 -26
0 -5 -7 10 -11 -23 -16 -28
1 -6 -7 12 -11 -23 -17 -27
2 -6 -6 15 -9 -24 -19 -28
1 -2 -4 16 -6 -20 -16 -26
-1 -2 -2 18 -4 -17 -13 -25
-4 -7 -3 16 -3 -17 -14 -25
-9 -13 -7 13 -5 -21 -17 -28
-1 -6 -5 14 -4 -17 -15 -26
4 -4 -3 18 -2 -14 -11 -22
-1 -10 -2 21 -3 -16 -12 -23
-2 -9 -1 23 -2 -16 -13 -23
-2 -9 -1 25 0 -15 -12 -21
0 -11 -1 28 0 -19 -14 -23
3 -4 -1 28 0 -17 -13 -22
1 -4 1 30 1 -14 -11 -22
2 -5 1 31 1 -14 -10 -21
2 -7 0 30 0 -16 -12 -22
3 -3 0 30 2 -13 -9 -20
5 -5 1 33 4 -12 -7 -19
4 -8 0 36 4 -14 -8 -21
3 -11 1 38 5 -15 -9 -22
6 -9 0 40 6 -14 -10 -21
7 -8 -1 41 6 -16 -13 -24
10 -1 -1 43 8 -12 -10 -23
7 0 1 42 7 -9 -10 -23
5 -4 0 43 6 -11 -11 -24
7 -5 0 44 9 -10 -9 -25
12 4 2 43 11 -5 -5 -20
10 -1 6 46 11 -4 -4 -20
8 -8 5 46 10 -5 -6 -23
3 -13 1 44 6 -9 -11 -28
6 -11 1 44 7 -9 -11 -25
15 -3 6 50 10 -6 -11 -23
17 3 5 49 10 -5 -8 -22
16 4 7 47 8 -3 -7 -21
16 -1 7 46 8 -4 -5 -20
16 -2 5 45 7 -5 -6 -21
16 2 4 43 7 -2 -4 -17
14 -3 2 41 4 -3 -5 -18
15 -5 2 42 3 -4 -6 -19
15 -5 0 40 1 -6 -7 -20
14 -6 0 40 2 -6 -7 -17
16 -7 0 41 3 -6 -8 -18
14 -5 -1 39 1 -7 -8 -17
14 -4 -2 35 -1 -8 -9 -18
14 -4 -2 33 -3 -8 -11 -20
10 -5 -5 30 -5 -11 -13 -22
6 -3 -6 27 -6 -9 -10 -20
5 -6 -7 25 -9 -9 -10 -20
17 4 -2 30 -6 -7 -6 -16
19 5 -5 28 -7 -9 -8 -17
15 0 -8 24 -10 -11 -10 -18
14 -2 -8 25 -12 -12 -10 -20
15 4 -8 21 -14 -12 -11 -18
14 5 -10 19 -15 -10 -10 -16
14 6 -10 16 -16 -11 -8 -15
14 8 -11 15 -15 -10 -6 -11
14 13 -13 11 -16 -9 -4 -6
13 10 -12 9 -16 -9 -4 -4
11 8 -13 10 -17 -9 -4 -4
11 11 -13 8 -17 -7 -3 -3
12 14 -13 6 -17 -6 -3 -3
9 11 -14 5 -19 -10 -7 -6
7 15 -13 3 -18 -9 -3 -5
7 16 -13 1 -18 -8 -3 -6
6 16 -12 0 -19 -9 -3 -6
6 17 -14 -2 -20 -10 -4 -6
7 22 -14 -6 -20 -9 -4 -5
7 18 -14 -5 -18 -7 -2 -4
3 15 -15 -5 -20 -11 -6 -4
0 14 -18 -8 -22 -12 -8 -7
-1 14 -18 -8 -23 -11 -7 -7
-3 11 -17 -8 -24 -14 -10 -10
0 21 -16 -8 -22 -12 -8 -7
2 26 -14 -7 -20 -9 -5 -4
1 21 -15 -9 -23 -12 -6 -5
1 18 -16 -10 -25 -12 -7 -6
0 21 -16 -13 -26 -9 -6 -5
-2 13 -17 -14 -28 -11 -5 -6
-3 11 -15 -13 -27 -9 -4 -5
-3 8 -16 -13 -27 -12 -8 -7
-3 9 -16 -14 -27 -13 -9 -7
-2 11 -16 -14 -28 -14 -11 -8
-4 14 -16 -15 -27 -12 -11 -7
-3 16 -17 -15 -26 -12 -10 -8
-5 13 -17 -16 -29 -13 -11 -10
-4 10 -21 -17 -31 -16 -13 -12
2 19 -20 -19 -30 -14 -11 -9
-1 14 -19 -18 -29 -14 -10 -8
-4 11 -19 -18 -30 -15 -11 -9
-3 12 -20 -16 -28 -13 -11 -9
-4 12 -17 -14 -26 -13 -10 -7
-1 13 -20 -15 -29 -18 -15 -11
-5 14 -20 -16 -28 -17 -13 -9
-5 15 -18 -16 -27 -16 -11 -8
-3 15 -17 -17 -28 -17 -12 -9
-4 13 -19 -18 -29 -18 -11 -11
-5 16 -19 -18 -28 -16 -9 -9
-5 14 -18 -17 -29 -16 -8 -10
-7 10 -18 -17 -31 -18 -10 -10
-5 9 -19 -16 -30 -19 -10 -11
-5 8 -18 -16 -30 -19 -10 -10
-7 5 -18 -15 -29 -21 -12 -12
-9 8 -20 -16 -29 -19 -12 -11
-11 9 -21 -18 -28 -19 -12 -12
-10 8 -20 -19 -28 -20 -13 -13
-4 13 -20 -17 -27 -19 -10 -11
-2 20 -19 -17 -26 -17 -8 -9
-5 13 -18 -16 -27 -17 -8 -10
-6 10 -20 -18 -28 -19 -9 -12
-7 9 -22 -17 -28 -19 -11 -13
-4 13 -21 -17 -28 -19 -11 -13
-4 10 -22 -15 -29 -20 -14 -15
-6 12 -23 -16 -28 -20 -15 -16
-6 14 -22 -15 -26 -17 -12 -15
-8 10 -23 -17 -29 -20 -12 -15
-4 15 -22 -14 -27 -20 -11 -13
-2 23 -20 -15 -25 -16 -9 -10
-6 15 -20 -14 -26 -17 -10 -13
-7 11 -21 -14 -26 -16 -10 -13
-11 6 -23 -15 -27 -19 -14 -15
-10 7 -22 -14 -25 -19 -13 -13
-4 9 -20 -10 -23 -20 -14 -15
-6 8 -20 -11 -25 -20 -12 -15
-6 9 -19 -10 -24 -18 -11 -15
-8 7 -19 -11 -24 -18 -11 -15
-11 3 -21 -12 -25 -19 -12 -16
-13 8 -21 -14 -23 -17 -11 -13
-6 10 -20 -11 -20 -14 -8 -12
0 14 -19 -10 -19 -14 -8 -12
0 12 -20 -9 -17 -14 -9 -13
-3 12 -19 -9 -17 -14 -9 -12
-5 11 -21 -8 -16 -17 -11 -14
-5 13 -21 -8 -15 -15 -10 -11
-5 13 -20 -8 -16 -14 -8 -11
-3 14 -20 -7 -15 -13 -8 -11
-1 12 -22 -7 -16 -15 -9 -12
-2 17 -22 -10 -15 -13 -8 -9
-9 9 -21 -10 -17 -14 -8 -9
-10 6 -20 -9 -18 -16 -9 -10
-5 11 -21 -9 -17 -15 -9 -10
-5 13 -21 -9 -17 -14 -7 -11
-7 7 -21 -9 -20 -17 -10 -14
-8 11 -20 -9 -19 -17 -7 -12
-8 10 -21 -9 -18 -16 -7 -12
-7 10 -20 -9 -18 -16 -7 -12
-5 10 -19 -9 -19 -16 -6 -12
-7 12 -20 -11 -21 -14 -5 -11
-5 7 -20 -11 -22 -13 -5 -11
-5 5 -21 -11 -23 -14 -6 -12
-5 6 -21 -10 -23 -15 -6 -12
-5 7 -18 -9 -21 -13 -5 -10
-6 4 -20 -9 -22 -17 -8 -15
-5 7 -20 -9 -22 -16 -6 -12
-6 8 -20 -10 -21 -15 -5 -13
-6 6 -21 -11 -22 -18 -8 -14
-5 6 -21 -12 -23 -20 -7 -15
-9 10 -23 -14 -24 -19 -7 -14
-10 5 -23 -13 -24 -19 -9 -16
-8 5 -25 -13 -25 -21 -12 -16
-6 7 -26 -11 -23 -20 -10 -15
-5 9 -23 -10 -22 -17 -9 -13
-6 7 -23 -11 -22 -18 -12 -17
-7 6 -22 -12 -21 -15 -11 -16
-7 7 -21 -12 -19 -13 -9 -15
-8 5 -21 -12 -19 -12 -8 -14
-7 4 -21 -13 -20 -16 -9 -16
-5 8 -22 -15 -21 -13 -8 -14
-8 2 -20 -12 -19 -12 -7 -13
-10 0 -20 -11 -17 -13 -7 -13
-12 -1 -19 -10 -18 -14 -9 -13
-9 1 -20 -12 -18 -13 -10 -13
-7 2 -20 -12 -18 -15 -12 -14
-8 4 -21 -13 -21 -16 -12 -15
-7 6 -20 -13 -20 -13 -10 -14
-6 7 -20 -14 -20 -13 -9 -14
-7 4 -20 -14 -21 -15 -10 -16
-6 7 -22 -15 -22 -12 -9 -15
-7 1 -21 -15 -23 -12 -9 -16
-8 -1 -21 -14 -22 -14 -10 -16
-8 1 -21 -14 -23 -13 -9 -16
-9 1 -23 -15 -24 -14 -11 -16
-7 -2 -23 -14 -24 -17 -13 -18
-9 1 -23 -15 -25 -17 -13 -18
-12 0 -25 -19 -26 -17 -14 -18
-12 -1 -25 -19 -24 -17 -14 -18
-10 0 -24 -17 -21 -16 -11 -17
-5 9 -21 -16 -19 -11 -8 -14
-4 4 -20 -17 -19 -12 -9 -15
-9 -3 -19 -17 -20 -13 -8 -15
-12 -9 -19 -15 -19 -15 -10 -16
-8 -3 -19 -14 -19 -14 -10 -15
-7 -2 -19 -13 -19 -14 -11 -17
-6 1 -19 -15 -21 -12 -12 -17
-6 3 -19 -16 -22 -11 -13 -16
-6 2 -19 -16 -21 -11 -12 -16
-6 2 -20 -17 -23 -12 -12 -18
-8 6 -21 -18 -23 -10 -11 -15
-8 2 -20 -17 -22 -10 -11 -16
-7 2 -19 -15 -20 -9 -10 -14
-9 2 -19 -15 -21 -9 -11 -15
-10 3 -20 -15 -21 -10 -12 -14
-10 -2 -22 -15 -21 -14 -15 -17
-12 0 -22 -15 -21 -15 -17 -17
-12 1 -20 -16 -21 -15 -16 -17
-14 -4 -21 -17 -23 -17 -18 -17
-12 -1 -19 -16 -22 -15 -17 -17
-12 5 -18 -16 -22 -12 -14 -14
-16 -5 -18 -16 -22 -14 -15 -16
-19 -11 -20 -17 -24 -16 -18 -17
-14 -9 -18 -16 -22 -15 -17 -17
-2 3 -15 -13 -16 -9 -11 -12
-3 -2 -15 -11 -16 -10 -12 -13
-10 -6 -16 -12 -17 -10 -14 -13
-9 -3 -17 -14 -18 -10 -14 -12
-6 -2 -16 -13 -16 -9 -13 -11
-7 -3 -18 -15 -18 -13 -15 -13
-7 -3 -18 -17 -20 -10 -14 -12
-8 -6 -17 -16 -19 -10 -13 -12
-8 -7 -17 -16 -19 -11 -14 -13
-6 -2 -16 -15 -19 -9 -14 -13
-7 -4 -17 -15 -18 -8 -13 -13
-7 -5 -16 -14 -18 -10 -14 -13
-8 -1 -14 -13 -17 -9 -13 -12
-8 4 -13 -11 -15 -6 -11 -9
-7 7 -10 -9 -12 -2 -8 -7
-7 6 -10 -11 -15 -5 -8 -9
-7 9 -11 -13 -18 -5 -8 -8
-5 7 -10 -11 -17 -5 -7 -8
-5 5 -8 -9 -14 -5 -7 -7
-4 8 -6 -7 -13 -3 -5 -7
-5 9 -8 -6 -12 0 -4 -6
-7 4 -7 -5 -13 -2 -6 -9
-6 7 -6 -6 -13 1 -3 -7
-5 12 -4 -6 -12 3 0 -5
4 17 -2 -3 -8 4 2 -4
6 15 -3 -3 -9 3 1 -4
6 17 -7 -7 -11 5 1 -3
4 12 -7 -5 -9 7 3 -2
4 13 -8 -5 -7 7 4 1
5 16 -8 -4 -6 7 6 1
6 17 -9 -6 -6 8 6 1
3 14 -9 -4 -5 5 4 1
3 20 -9 -4 -4 8 6 4
3 24 -9 -5 -5 9 6 4
-1 20 -10 -7 -6 7 4 3
-2 15 -13 -9 -9 4 3 2
-4 13 -15 -12 -12 5 3 1
3 15 -13 -8 -9 6 5 3
6 16 -10 -5 -6 9 8 7
2 8 -11 -5 -8 7 6 3
0 6 -14 -6 -7 7 5 1
0 4 -15 -6 -7 7 5 1
3 9 -15 -6 -5 9 6 2
7 10 -13 -5 -4 12 9 4
6 7 -16 -8 -6 10 9 3
5 4 -19 -11 -11 5 5 -1
5 8 -18 -16 -14 6 3 -2
0 0 -17 -18 -17 1 0 -5
-1 -4 -15 -17 -17 1 0 -5
-3 -6 -14 -16 -18 1 -1 -6
-4 -7 -16 -18 -19 -1 -3 -8
-3 -9 -15 -15 -18 -1 -3 -9
-5 -9 -13 -15 -15 1 -1 -6
-7 -11 -10 -14 -14 4 1 -6
-11 -16 -8 -14 -14 4 1 -6
-10 -17 -8 -13 -13 3 1 -6
-12 -13 -6 -15 -13 5 2 -3
-13 -17 -5 -16 -13 5 2 -3
-13 -22 -7 -17 -13 2 0 -4
-11 -21 -8 -18 -13 0 0 -5
-12 -22 -8 -18 -13 0 0 -4
-13 -29 -10 -17 -15 -4 -4 -7
-13 -27 -10 -18 -15 -2 -3 -6
-15 -24 -10 -19 -16 -1 -3 -6
-16 -26 -9 -19 -17 -1 -2 -6
-17 -29 -9 -17 -17 -1 -2 -6
-13 -22 -7 -17 -16 1 0 -3
-12 -26 -5 -14 -15 1 0 -4
-14 -31 -6 -14 -16 -2 -3 -8
-12 -36 -5 -10 -16 -3 -6 -13
-10 -42 -2 -3 -12 -2 -8 -16
-9 -53 2 6 -9 -5 -13 -24
-7 -52 6 14 -4 -4 -14 -26
-7 -51 12 25 4 0 -13 -28
-9 -54 18 34 10 2 -14 -29
-6 -48 22 41 20 7 -7 -23
-4 -29 24 45 32 23 7 -9
0 -18 27 57 47 37 24 6
5 -3 31 72 67 58 45 24
12 21 34 90 92 86 76 49
23 54 43 119 129 128 118 83
32 81 57 155 167 168 159 116
41 111 65 177 198 204 195 144
46 136 73 182 218 237 227 170
48 154 77 170 223 260 253 191
51 167 81 156 222 276 275 208
55 185 85 151 232 304 304 232
53 194 80 142 238 322 327 252
46 204 67 118 229 323 332 259
37 197 41 71 195 294 310 249
28 182 16 11 138 234 262 222
18 171 1 -48 72 157 199 190
-9 161 -4 -93 19 90 138 153
-28 140 -7 -127 -28 28 81 113
-25 120 -26 -162 -78 -25 36 82
-20 93 -71 -184 -110 -54 14 63
-16 73 -101 -189 -121 -59 6 54
-17 49 -102 -177 -118 -59 1 42
-18 37 -99 -161 -110 -58 -3 33
-18 26 -94 -143 -100 -55 -4 27
-20 14 -83 -127 -90 -53 -6 19
-18 0 -70 -108 -85 -57 -14 8
-13 -10 -60 -95 -80 -60 -22 -2
-11 -20 -49 -80 -70 -55 -22 -7
-9 -29 -38 -63 -57 -48 -20 -9
-8 -35 -31 -49 -49 -41 -18 -11
-8 -34 -23 -41 -39 -30 -16 -9
-12 -40 -16 -32 -31 -21 -13 -9
-20 -50 -10 -23 -25 -16 -12 -9
-20 -53 -5 -17 -20 -11 -12 -10
-13 -45 -1 -13 -14 -3 -8 -8
-11 -45 0 -10 -15 -3 -10 -9
-9 -40 0 -9 -12 -1 -10 -8
-10 -38 0 -11 -13 1 -8 -7
-10 -42 0 -11 -15 0 -11 -9
-11 -47 -1 -10 -15 -3 -13 -11
-14 -45 0 -10 -15 -2 -13 -10
-14 -49 3 -8 -14 -3 -13 -13
-14 -52 5 -5 -14 -3 -15 -14
-15 -54 5 -4 -12 -3 -14 -14
-13 -50 7 -4 -11 -1 -13 -14
-13 -52 6 -1 -10 -1 -15 -15
-10 -47 7 -2 -10 1 -14 -13
-10 -41 7 -3 -8 3 -12 -10
-11 -44 7 -4 -11 2 -12 -11
-9 -45 4 -4 -12 -1 -14 -13
-10 -42 7 -4 -10 2 -10 -10
-13 -50 9 -1 -8 3 -10 -10
-13 -54 9 1 -6 1 -11 -12
-12 -52 11 3 -2 1 -11 -12
-10 -49 12 4 0 3 -10 -10
-9 -50 12 4 0 1 -10 -12
-9 -47 11 4 0 1 -11 -13
-9 -41 10 3 1 3 -8 -11
-8 -43 11 5 2 4 -6 -10
-9 -46 10 6 1 1 -8 -11
-8 -40 10 5 1 3 -8 -9
-8 -45 13 6 1 3 -8 -10
-8 -49 13 7 1 0 -9 -13
-8 -49 14 8 4 2 -9 -13
-10 -50 16 10 6 4 -8 -11
-10 -53 17 11 6 3 -7 -12
-13 -51 16 11 6 5 -7 -11
-14 -50 14 9 5 4 -8 -12
-12 -50 13 9 3 2 -9 -13
-14 -52 11 9 1 1 -11 -15
-12 -46 13 9 2 6 -8 -11
-14 -52 16 10 2 6 -8 -12
-14 -57 16 12 3 4 -9 -14
-2 -45 20 18 9 9 -5 -11
-3 -43 19 16 8 10 -5 -11
-12 -54 17 14 5 5 -9 -15
-7 -46 20 17 8 10 -6 -11
-4 -40 20 17 8 12 -4 -9
-4 -42 17 15 6 10 -6 -12
-3 -43 17 17 6 8 -6 -11
-4 -41 19 19 10 13 -3 -8
-2 -44 21 21 10 14 -2 -8
-3 -48 24 24 13 16 -1 -8
-3 -53 24 25 14 12 -3 -10
-2 -50 25 27 16 16 -2 -7
-3 -51 25 28 15 15 -3 -11
-4 -47 23 25 14 14 -5 -12
-4 -44 22 24 15 15 -4 -11
-6 -46 20 23 15 13 -7 -13
-5 -49 19 24 15 10 -10 -13
-7 -46 19 24 18 13 -8 -9
-7 -52 21 26 18 13 -8 -10
-3 -50 22 29 20 14 -8 -11
-7 -54 23 30 22 14 -7 -11
-6 -49 24 31 25 17 -5 -10
-4 -52 24 33 25 15 -4 -11
-5 -52 23 32 25 15 -5 -10
-2 -47 25 34 27 17 -2 -8
-3 -48 23 33 24 14 -5 -11
-3 -52 23 34 23 9 -8 -12
-3 -47 24 36 27 13 -5 -11
-5 -54 25 39 29 12 -3 -10
-4 -57 25 42 30 10 -5 -12
-4 -58 27 45 34 12 -3 -11
-4 -56 27 45 36 14 -2 -11
-1 -57 25 46 37 11 -4 -10
-1 -53 25 46 38 13 -4 -9
-4 -51 24 44 37 13 -3 -9
-3 -51 23 46 36 11 -3 -8
0 -51 23 49 36 8 -6 -9
0 -46 24 49 40 12 -5 -8
-3 -53 25 51 41 13 -3 -7
-4 -58 25 54 42 13 -5 -9
0 -56 27 58 44 15 -4 -9
2 -52 27 58 46 17 -1 -8
2 -56 26 58 44 14 -4 -10
2 -50 25 58 45 16 -4 -9
6 -42 26 56 43 18 -2 -8
7 -41 26 57 44 17 -3 -6
7 -44 25 58 44 16 -4 -5
6 -42 23 58 45 20 -2 -5
6 -46 24 60 45 20 1 -4
6 -49 24 62 45 19 -1 -5
7 -52 24 61 44 18 -1 -6
8 -49 25 61 46 21 1 -4
9 -53 25 62 45 19 0 -4
11 -48 24 61 46 21 3 -2
8 -46 25 59 44 21 4 -2
8 -49 24 57 41 18 3 -1
11 -47 22 55 41 14 1 -2
10 -42 21 53 41 18 3 -1
8 -48 22 54 39 16 3 -1
7 -53 21 53 38 14 1 -1
5 -56 19 51 36 12 0 -4
6 -53 20 50 38 15 4 -1
7 -56 18 49 34 11 1 -3
-1 -58 16 45 32 11 -1 -4
-2 -54 14 42 29 11 0 -3
2 -50 12 42 30 12 2 -2
3 -51 10 39 25 8 -1 -4
11 -35 13 41 29 15 4 2
10 -39 14 40 28 15 6 3
7 -43 12 40 26 14 4 1
3 -45 12 39 26 15 6 0
2 -46 11 37 27 16 9 1
3 -47 11 36 24 13 8 2
2 -43 10 32 24 13 9 4
3 -40 9 29 23 14 11 4
4 -39 9 27 24 14 14 6
3 -38 7 25 22 12 13 5
3 -32 7 22 24 15 15 7
1 -37 8 21 22 17 15 7
-1 -40 8 21 22 16 16 6
1 -38 8 20 22 16 17 7
1 -34 8 18 23 17 18 9
0 -36 7 16 20 15 17 6
0 -32 7 15 20 15 18 7
-4 -30 6 12 19 14 18 7
-4 -31 5 11 17 13 16 6
-7 -33 3 9 14 10 15 5
-10 -31 4 5 15 11 16 6
-11 -35 6 6 15 11 17 5
-18 -43 4 4 14 7 13 2
-18 -43 3 2 14 6 13 0
0 -24 10 6 20 12 20 7
3 -25 11 7 20 10 20 6
-5 -28 8 3 18 6 18 4
-9 -29 8 1 16 6 18 4
-10 -33 7 1 15 4 18 4
-8 -30 7 0 13 1 15 4
-8 -27 7 -3 12 2 15 5
-10 -34 8 -2 12 2 14 5
-8 -37 8 -1 12 1 13 4
-11 -37 10 -2 11 1 13 3
-10 -35 11 -3 12 3 17 4
-11 -37 10 -3 12 0 16 3
-11 -35 9 -4 11 -1 15 3
-12 -30 7 -5 10 1 18 6
-14 -34 5 -6 8 -2 15 5
-11 -34 4 -6 5 -5 13 5
-10 -29 4 -7 6 -3 15 8
-13 -34 5 -7 5 -4 16 7
-15 -39 5 -6 5 -4 17 6
-17 -40 6 -6 7 -3 19 6
-15 -38 7 -7 6 -2 22 6
-17 -41 5 -7 4 -4 22 3
-15 -40 5 -8 3 -5 21 3
-12 -31 6 -8 5 -2 25 6
-10 -30 6 -8 4 -2 25 6
-14 -35 3 -9 0 -6 22 4
-15 -31 3 -11 0 -4 24 6
-15 -35 6 -9 2 -3 25 6
-13 -37 7 -7 2 -4 24 5
-14 -37 8 -7 3 -3 24 6
-14 -35 9 -7 3 -2 26 6
-14 -38 8 -5 2 -4 24 5
-18 -35 5 -8 1 -5 24 3
-19 -34 4 -10 0 -3 24 5
-14 -30 4 -9 -1 -3 25 5
-6 -24 5 -7 -1 -3 25 6
-9 -19 4 -8 1 0 26 8
-12 -27 6 -8 2 -1 25 5
-14 -34 5 -6 3 -2 24 3
-15 -36 6 -5 3 -1 23 3
-19 -38 5 -8 2 -1 23 3
-15 -41 6 -5 3 -3 23 1
-9 -29 6 -4 7 1 27 6
-11 -28 5 -5 7 3 27 7
-12 -29 4 -6 7 1 28 6
-10 -27 2 -6 4 -3 25 4
-15 -26 1 -8 5 0 26 5
-21 -35 4 -8 4 -1 24 4
-18 -34 5 -5 5 -2 25 4
-6 -25 7 -1 9 -1 26 5
-5 -22 8 -1 12 2 30 9
-8 -28 6 -1 8 -1 27 5
-8 -27 6 -1 9 -2 27 4
-8 -21 5 -2 10 0 29 6
-8 -22 5 -3 9 -1 28 5
-7 -23 3 -2 10 -3 27 7
-9 -19 5 -4 10 0 29 9
-8 -23 4 -4 8 -1 29 6
-9 -23 6 -2 9 -1 29 7
-9 -25 8 -1 11 1 29 8
-9 -26 7 -2 13 2 31 7
-7 -26 5 -2 11 -1 28 6
-7 -23 4 -2 12 -1 28 6
-7 -22 3 -4 11 0 28 6
-8 -24 1 -5 9 -3 28 4
-7 -23 0 -4 8 -6 25 2
-9 -16 3 -4 9 -1 28 6
-6 -18 6 -2 9 1 29 6
-6 -19 6 0 11 0 27 5
-6 -18 6 0 11 1 26 6
-10 -19 7 -1 10 2 27 5
-12 -26 6 0 8 -1 25 4
-12 -23 4 -1 8 -2 25 5
-8 -17 4 -2 7 1 27 7
-7 -16 4 -3 5 0 26 7
-7 -18 1 -3 3 -4 23 5
-8 -14 2 -4 5 0 23 6
-8 -20 4 -2 6 1 26 6
-8 -22 3 -2 5 -1 24 4
-7 -21 4 -1 7 2 26 6
-8 -20 5 -3 6 4 26 5
-8 -25 4 -2 3 1 22 3
-7 -20 2 -2 3 1 23 5
-8 -17 1 -4 1 1 22 5
-8 -18 2 -4 2 0 23 5
-7 -20 -1 -4 1 -2 20 3
-9 -17 0 -6 2 1 20 4
-12 -23 2 -4 2 0 19 3
-16 -29 2 -4 2 -2 18 2
-15 -29 2 -2 4 0 19 4
-17 -28 2 -5 3 1 20 3
-17 -31 -2 -7 0 -6 16 -2
-11 -20 -2 -6 2 -4 16 1
-2 -7 0 -5 6 0 21 6
-3 -11 -2 -8 2 -2 17 3
-6 -16 -2 -7 0 -5 16 3
-10 -13 0 -7 2 0 18 5
-10 -19 1 -7 2 -1 17 3
-8 -21 1 -4 3 -1 18 2
-9 -20 1 -5 4 -1 18 3
-9 -17 3 -5 5 3 21 5
-10 -22 1 -4 5 -1 19 3
-13 -21 -1 -6 4 -2 17 1
-14 -22 -3 -10 1 -1 18 1
-12 -24 -3 -10 0 -1 17 0
-2 -14 -1 -8 0 -2 18 2
-4 -11 0 -9 2 2 21 4
-14 -23 -1 -11 0 0 18 1
-8 -22 2 -9 3 3 20 3
-2 -17 3 -6 6 3 21 5
-6 -19 2 -9 4 3 19 4
-7 -22 0 -8 4 2 18 1
-10 -19 0 -8 5 3 18 3
-10 -17 -1 -11 4 3 19 4
-7 -17 -1 -11 1 3 17 2
-1 -14 -3 -10 0 0 15 0
1 -4 -1 -10 2 5 17 5
-4 -12 0 -10 0 5 15 2
-5 -17 0 -10 -1 4 14 0
-3 -15 -2 -9 0 5 14 0
-4 -15 1 -8 0 8 17 2
-4 -20 -1 -7 0 4 15 -1
-4 -14 -1 -9 -1 6 16 2
-4 -10 -3 -12 0 7 18 2
-1 -10 -3 -13 -1 7 19 1
-2 -11 -5 -13 -1 5 18 -1
-5 -7 -5 -15 -1 8 20 2
-5 -11 -3 -12 1 9 22 1
-4 -14 -3 -12 0 7 20 -1
-4 -12 -3 -11 1 7 21 0
-4 -11 -2 -12 0 8 21 0
-8 -18 -5 -11 -1 4 18 -3
-7 -14 -6 -13 0 3 18 -3
-4 -8 -6 -14 -1 6 20 -1
-2 -7 -4 -13 -1 7 22 -1
-2 -7 -6 -13 -1 4 21 -3
-7 -6 -6 -16 -1 6 21 -1
-9 -12 -5 -15 -1 6 19 -2
-3 -10 -3 -11 1 8 21 -1
-2 -8 -3 -11 2 7 21 0
-5 -8 -1 -13 1 8 21 1
-4 -14 -4 -12 -2 4 19 -2
-3 -11 -5 -13 0 3 20 -1
-1 -7 -5 -15 -1 5 20 -1
-1 -10 -5 -15 -2 4 19 -1
-3 -11 -8 -15 -4 1 17 -3
-4 -5 -6 -15 -2 5 21 0
-6 -11 -5 -14 -2 5 19 -2
-8 -14 -5 -13 -2 4 18 -2
-10 -13 -7 -15 -3 3 18 -2
-10 -11 -4 -15 -2 5 19 -1
-6 -12 -5 -11 -2 4 17 -2
-8 -11 -5 -13 -2 2 17 -2
1 0 -2 -11 0 6 20 1
0 -1 0 -10 1 7 19 2
-2 -5 -1 -11 -1 4 17 0
-3 4 0 -11 1 7 19 2
-3 1 1 -10 1 8 19 2
-1 0 1 -8 3 7 17 3
-1 1 3 -7 4 9 19 4
-1 3 2 -7 4 11 18 5
5 2 1 -5 3 8 17 2
7 11 1 -5 6 11 19 5
6 12 0 -7 5 11 20 5
7 11 0 -6 5 10 19 5
6 8 0 -5 4 7 17 4
6 14 0 -4 7 11 20 8
11 14 1 -1 9 12 20 8
9 9 -1 -2 8 10 18 6
10 14 -2 -4 7 11 19 6
12 20 -1 -3 11 15 22 10
10 14 -5 -4 8 10 18 7
6 15 -6 -7 8 9 19 8
2 16 -7 -9 6 10 18 8
6 20 -4 -6 9 14 19 13
11 24 -4 -5 7 11 17 12
6 23 -7 -11 5 9 16 10
11 21 -5 -7 6 11 17 11
12 17 -3 -4 9 10 17 11
10 12 -3 -4 9 10 17 10
11 12 -3 -3 11 12 21 12
12 6 -4 -2 9 7 19 9
14 10 -6 -3 8 6 19 12
15 15 -7 -6 8 8 21 14
14 10 -9 -6 7 6 19 12
13 7 -10 -4 7 4 19 13
12 12 -11 -10 4 3 19 12
11 5 -10 -11 2 -2 16 9
11 0 -10 -12 1 -8 13 7
11 -1 -12 -14 0 -13 10 4
11 0 -10 -15 0 -13 10 3
11 -7 -11 -14 -2 -17 6 0
7 -4 -10 -16 -2 -18 5 -1
8 3 -8 -16 0 -14 8 1
6 1 -8 -15 0 -14 7 0
4 1 -8 -14 -1 -18 6 -1
-1 4 -7 -16 0 -15 7 2
-7 -3 -6 -16 -2 -16 7 -1
-7 -10 -8 -18 -4 -20 4 -4
-2 -6 -5 -15 -3 -17 6 -2
0 -3 -5 -14 -2 -15 6 -1
0 -10 -6 -15 -3 -18 3 -4
-2 -8 -7 -16 -3 -19 3 -3
-2 -4 -9 -21 -5 -19 1 -4
-2 -5 -7 -19 -5 -18 2 -3
-2 -8 -8 -20 -8 -22 -1 -5
-3 -2 -7 -21 -7 -19 -1 -2
-2 -5 -5 -19 -6 -18 -2 -2
-4 -11 -5 -17 -5 -21 -4 -3
-3 -11 -4 -16 -4 -20 -6 -4
-1 -12 -4 -14 -2 -20 -8 -6
2 -22 -4 -8 -2 -26 -14 -13
5 -23 -1 -1 0 -29 -19 -17
4 -27 3 3 1 -29 -23 -22
1 -34 7 13 6 -30 -28 -27
1 -38 11 22 12 -32 -31 -31
-5 -33 16 26 19 -26 -28 -28
1 -21 23 38 32 -11 -15 -17
5 -8 27 50 46 6 1 -2
10 8 30 61 62 24 20 13
18 32 36 78 86 52 46 35
30 60 43 104 117 85 81 64
44 98 55 140 158 130 125 101
53 127 68 168 191 169 163 133
59 147 74 181 215 201 192 156
66 168 77 179 226 226 218 178
67 189 80 162 227 252 245 203
68 197 84 157 233 274 269 220
72 212 80 152 241 297 296 241
67 223 71 131 238 308 306 253
59 228 53 96 217 295 299 254
54 215 24 42 169 248 261 232
39 205 2 -23 105 179 207 202
19 195 -4 -74 49 113 150 169
-5 172 -4 -108 2 52 92 129
-17 144 -18 -146 -52 -9 38 92
-16 126 -55 -175 -87 -36 13 73
-9 95 -93 -183 -106 -47 1 59
-4 72 -104 -176 -110 -51 -7 45
-6 60 -101 -162 -105 -52 -13 34
-7 49 -96 -148 -95 -50 -14 29
-9 37 -89 -131 -89 -53 -19 20
-11 24 -79 -117 -84 -52 -23 12
-12 9 -67 -105 -81 -57 -30 2
-7 -3 -56 -87 -72 -55 -33 -5
0 -9 -47 -71 -62 -53 -34 -9
-6 -16 -41 -60 -53 -45 -31 -9
-12 -27 -32 -48 -44 -40 -29 -12
-6 -23 -23 -36 -34 -35 -27 -12
2 -17 -16 -27 -25 -28 -22 -10
-1 -20 -10 -21 -17 -22 -19 -8
-2 -26 -10 -17 -15 -25 -22 -13
-3 -22 -9 -17 -13 -21 -21 -11
-4 -18 -10 -20 -14 -21 -21 -11
-5 -21 -10 -20 -17 -22 -23 -13
-6 -23 -13 -20 -18 -25 -26 -16
-6 -19 -12 -21 -18 -21 -25 -13
-6 -24 -9 -17 -16 -19 -24 -15
-8 -30 -8 -14 -16 -21 -26 -17
-9 -32 -5 -12 -13 -19 -25 -15
-7 -29 -2 -10 -9 -15 -22 -14
-6 -34 -3 -9 -8 -19 -24 -17
-5 -30 -3 -9 -7 -17 -22 -14
-5 -25 -3 -11 -8 -15 -21 -13
-6 -24 -5 -12 -9 -18 -23 -16
-4 -24 -7 -14 -12 -22 -26 -18
-6 -18 -8 -16 -14 -18 -25 -15
-6 -25 -7 -12 -13 -18 -25 -17
-7 -28 -6 -10 -12 -18 -26 -18
-9 -28 -4 -8 -10 -17 -26 -17
-7 -25 -2 -7 -8 -15 -25 -15
-6 -28 -3 -6 -7 -18 -26 -18
-3 -24 -3 -6 -6 -16 -24 -16
-2 -19 -3 -8 -7 -14 -23 -15
-4 -20 -4 -9 -9 -17 -24 -16
-3 -19 -6 -9 -10 -19 -27 -17
-3 -12 -5 -10 -10 -12 -24 -12
-6 -18 -3 -6 -9 -12 -25 -16
-8 -23 -1 -4 -8 -14 -26 -19
-10 -26 -3 -6 -9 -15 -28 -21
-11 -26 -3 -6 -8 -14 -28 -21
-5 -26 -2 -3 -5 -16 -28 -23
-9 -24 -4 -7 -7 -16 -27 -23
-11 -21 -5 -9 -9 -15 -27 -23
-4 -15 -4 -7 -8 -14 -23 -22
8 -3 -4 -4 -7 -15 -23 -21
6 2 -2 -5 -7 -8 -19 -16
0 -8 -2 -4 -7 -9 -20 -18
1 -10 -1 -1 -7 -9 -21 -20
4 -7 0 0 -7 -11 -23 -21
2 -6 -2 0 -7 -12 -24 -23
1 -7 -2 2 -4 -14 -26 -25
0 0 -3 0 -3 -11 -24 -24
-1 2 -4 -2 -3 -11 -24 -23
1 3 -5 -3 -4 -13 -24 -24
0 2 -7 -4 -4 -15 -27 -26
1 11 -6 -5 -4 -12 -24 -23
1 8 -4 -2 -2 -12 -25 -25
1 6 -3 0 0 -13 -25 -26
2 5 -2 2 0 -13 -26 -27
2 6 -1 2 3 -10 -23 -25
0 1 0 5 4 -13 -26 -27
2 8 -1 3 4 -12 -24 -26
2 11 -2 1 3 -12 -23 -26
2 9 -3 1 1 -15 -23 -28
3 8 -4 2 1 -17 -24 -27
5 18 -5 1 2 -13 -21 -24
6 15 -2 5 4 -11 -19 -24
3 10 -2 7 4 -12 -20 -26
0 8 -3 6 3 -13 -21 -28
3 11 -2 8 5 -9 -17 -26
3 5 0 11 6 -10 -20 -28
3 10 -1 11 7 -8 -19 -26
3 15 -1 10 7 -6 -17 -25
3 12 -3 10 5 -8 -18 -26
4 13 -5 10 3 -11 -20 -28
4 19 -4 10 3 -5 -17 -23
2 13 -3 14 5 -5 -16 -24
4 10 -1 18 6 -4 -16 -26
3 10 1 20 8 -2 -15 -24
4 11 3 21 9 1 -13 -23
4 7 3 23 9 -3 -17 -28
1 8 1 20 8 -3 -17 -28
1 13 2 21 9 -1 -15 -26
11 20 6 26 13 0 -12 -22
12 20 3 27 11 -3 -15 -23
11 25 2 24 10 0 -13 -20
10 18 4 26 9 -1 -14 -22
9 11 4 29 11 -4 -15 -25
8 12 6 31 13 -5 -15 -26
9 13 8 32 15 -4 -12 -23
14 13 10 36 18 -6 -13 -24
14 18 8 35 18 -6 -11 -23
12 17 8 33 17 -5 -11 -22
9 13 6 33 15 -8 -12 -23
1 8 0 28 9 -15 -17 -28
2 15 1 28 9 -11 -15 -24
16 22 7 35 14 -8 -11 -20
19 19 9 39 16 -8 -10 -20
18 19 9 40 18 -8 -10 -20
19 21 10 40 19 -6 -9 -17
19 15 9 41 19 -11 -11 -20
18 19 8 39 20 -9 -9 -17
17 21 5 35 18 -10 -10 -17
19 19 3 34 16 -13 -10 -17
20 21 0 33 13 -16 -12 -18
17 25 -1 30 13 -13 -9 -14
15 17 0 31 11 -15 -11 -16
15 14 1 33 12 -16 -10 -16
19 17 3 35 14 -14 -9 -15
19 18 2 32 14 -14 -8 -13
19 11 0 32 12 -18 -10 -18
19 16 -2 29 10 -18 -11 -17
19 21 -4 26 8 -17 -10 -15
18 19 -5 24 5 -19 -12 -16
19 20 -6 23 4 -20 -12 -15
18 28 -8 19 3 -16 -10 -12
15 21 -7 21 3 -16 -10 -13
14 18 -7 21 2 -18 -11 -14
13 17 -8 20 1 -19 -12 -14
12 20 -6 19 2 -15 -8 -11
11 13 -7 20 2 -17 -9 -13
12 19 -10 16 1 -17 -9 -12
11 23 -12 12 0 -16 -8 -11
13 25 -14 10 -2 -18 -7 -10
16 28 -15 9 -3 -19 -7 -11
16 37 -14 5 -3 -15 -4 -5
11 30 -13 6 -2 -17 -5 -6
11 26 -13 7 -1 -18 -5 -6
11 29 -11 7 2 -15 -3 -5
10 31 -11 5 2 -14 -3 -5
10 26 -11 5 2 -19 -5 -8
10 29 -12 2 1 -17 -3 -6
7 31 -13 -1 1 -16 -1 -4
7 30 -13 -2 0 -17 -1 -4
6 29 -17 -5 -4 -22 -4 -6
7 37 -16 -8 -4 -18 -1 -3
5 32 -14 -7 -4 -19 -1 -3
2 28 -15 -7 -4 -23 -2 -5
0 27 -14 -8 -3 -22 -1 -4
-2 25 -13 -10 -4 -21 0 -5
-8 16 -14 -10 -4 -26 -3 -8
2 29 -11 -9 0 -20 2 -2
3 33 -12 -13 -2 -20 2 -2
-4 25 -16 -17 -6 -26 -2 -6
-13 16 -21 -20 -12 -32 -5 -10
-16 17 -21 -23 -12 -29 -3 -8
4 30 -13 -13 -4 -24 2 -3
10 34 -10 -9 -1 -24 5 -3
1 28 -12 -12 -3 -27 3 -5
-2 28 -12 -12 -2 -25 5 -5
2 24 -11 -10 -2 -31 2 -8
2 29 -12 -12 -2 -29 4 -6
-1 29 -14 -15 -4 -30 3 -6
-2 26 -16 -17 -6 -35 1 -8
-1 24 -17 -17 -8 -37 -1 -9
-3 29 -17 -20 -8 -34 1 -7
-2 22 -15 -17 -8 -36 0 -8
-1 20 -13 -15 -6 -36 2 -8
0 20 -12 -14 -5 -37 2 -8
0 20 -11 -13 -3 -34 5 -7
-3 15 -12 -14 -6 -40 0 -12
-8 17 -14 -18 -7 -39 0 -11
-7 21 -13 -18 -7 -35 3 -8
-3 21 -12 -17 -8 -35 6 -5
-2 20 -15 -20 -13 -41 1 -5
-4 25 -15 -23 -14 -37 3 -3
-7 18 -14 -20 -14 -39 2 -6
-5 16 -12 -16 -9 -38 4 -6
-7 17 -11 -15 -8 -36 4 -6
-9 15 -10 -15 -6 -32 6 -6
-6 11 -10 -12 -6 -35 4 -9
-1 20 -11 -14 -4 -33 6 -8
0 24 -11 -15 -3 -32 7 -4
-2 23 -12 -17 -5 -35 5 -5
-3 22 -14 -18 -8 -40 2 -7
-1 29 -14 -20 -7 -36 5 -3
-5 20 -11 -16 -8 -36 6 -4
-5 15 -13 -15 -9 -39 3 -8
-4 16 -11 -14 -5 -36 5 -5
-4 17 -11 -15 -4 -35 4 -7
-5 8 -12 -12 -3 -39 2 -10
-5 14 -12 -14 -2 -36 4 -7
-6 18 -12 -16 -2 -34 7 -5
-4 20 -14 -16 -2 -34 6 -5
-3 20 -15 -16 -3 -38 5 -8
-3 25 -16 -19 -3 -34 7 -6
-7 18 -15 -18 -4 -37 5 -8
-12 10 -17 -16 -4 -39 3 -11
-6 15 -15 -13 0 -38 5 -11
-5 15 -12 -12 2 -34 7 -8
-10 5 -14 -14 -1 -41 1 -14
-1 18 -12 -12 2 -38 4 -9
3 28 -11 -12 3 -34 9 -4
0 22 -12 -13 2 -35 7 -6
-2 19 -15 -16 -2 -39 4 -8
-4 22 -15 -19 -2 -37 6 -7
-5 18 -13 -15 -1 -36 6 -8
3 22 -9 -9 4 -31 8 -5
2 20 -7 -8 4 -30 9 -6
0 17 -8 -10 5 -29 10 -7
-3 10 -9 -9 2 -34 6 -10
-3 13 -11 -11 2 -33 6 -10
-3 16 -11 -13 1 -30 8 -8
-1 17 -12 -13 1 -30 7 -8
-1 17 -13 -13 1 -30 6 -8
-5 22 -15 -17 -1 -28 7 -7
-10 12 -15 -16 -3 -30 4 -10
-4 14 -10 -11 1 -27 7 -8
3 22 -7 -7 3 -23 11 -4
0 20 -8 -8 1 -23 11 -5
-3 11 -9 -7 1 -27 7 -8
-4 13 -11 -9 0 -28 6 -8
-1 18 -11 -12 -3 -26 8 -7
0 17 -12 -11 -2 -25 6 -7
-2 12 -13 -12 -3 -26 4 -7
-1 20 -13 -14 -4 -23 6 -4
-3 14 -12 -12 -6 -24 5 -5
-4 10 -11 -10 -4 -23 5 -6
-3 14 -9 -11 -3 -21 7 -5
-3 13 -10 -11 -3 -19 8 -5
-4 7 -11 -7 -2 -24 4 -8
-4 11 -11 -10 -3 -23 4 -8
-3 14 -12 -12 -4 -23 6 -7
-1 14 -13 -13 -6 -23 4 -6
-2 12 -15 -13 -8 -26 1 -8
-6 15 -17 -17 -10 -24 2 -8
-8 8 -15 -15 -9 -23 2 -7
-10 -2 -13 -11 -8 -21 4 -6
-8 0 -12 -10 -7 -22 4 -8
3 11 -9 -9 -4 -19 7 -4
-4 3 -11 -10 -4 -23 3 -7
-4 7 -11 -10 -5 -21 3 -7
2 17 -9 -11 -4 -18 7 -4
-1 13 -12 -14 -7 -22 3 -7
-2 9 -16 -15 -9 -26 1 -9
-4 14 -16 -18 -9 -22 2 -7
-2 12 -13 -15 -6 -21 4 -5
-1 10 -14 -14 -6 -21 0 -7
-1 7 -13 -13 -6 -20 1 -8
-2 9 -10 -12 -3 -16 3 -5
-3 3 -11 -12 -4 -21 0 -9
-2 6 -12 -13 -5 -19 0 -8
-2 11 -12 -15 -5 -18 2 -5
-5 8 -13 -16 -5 -19 1 -6
-4 6 -14 -15 -5 -22 0 -7
-5 11 -15 -18 -5 -18 1 -5
-8 3 -15 -17 -5 -19 -1 -6
-10 -3 -15 -15 -5 -19 -1 -8
-13 -6 -14 -14 -3 -18 1 -7
-10 -2 -11 -13 0 -14 5 -5
1 2 -9 -9 3 -15 8 -5
-2 6 -11 -12 1 -16 12 -6
-4 7 -12 -14 -1 -15 18 -4
-5 3 -11 -15 -2 -17 21 -5
-5 3 -12 -14 -3 -20 21 -5
-5 10 -11 -16 -2 -15 26 -1
-7 2 -9 -14 -3 -16 26 -4
-6 -1 -9 -12 -2 -18 27 -5
-6 0 -10 -12 -3 -18 27 -7
-7 -2 -9 -12 -2 -17 29 -6
-7 -8 -8 -10 -1 -20 27 -8
-9 -3 -10 -12 -2 -19 27 -7
-6 4 -10 -13 -3 -14 29 -4
-5 4 -11 -15 -6 -15 28 -5
-7 0 -15 -16 -7 -19 25 -7
-6 7 -14 -18 -7 -13 26 -5
-9 0 -13 -15 -7 -14 24 -6
-14 -6 -12 -14 -9 -16 21 -8
-12 -5 -11 -13 -8 -14 19 -8
-15 -8 -9 -14 -8 -12 17 -7
-13 -12 -9 -11 -7 -16 14 -10
-3 2 -10 -13 -6 -13 14 -7
-3 5 -9 -14 -7 -11 14 -6
-3 4 -6 -13 -7 -10 15 -4
-7 -1 -10 -15 -10 -14 11 -7
-8 5 -10 -18 -11 -10 12 -6
-5 1 -7 -15 -11 -11 11 -7
-3 -3 -6 -13 -10 -12 10 -7
-3 -3 -6 -13 -10 -14 10 -7
-6 -3 -5 -12 -8 -9 13 -5
-9 -11 -7 -10 -7 -14 8 -9
-7 -4 -9 -13 -8 -14 8 -8
-7 0 -8 -15 -9 -13 9 -7
-7 -4 -8 -14 -9 -14 8 -8
-6 -5 -10 -13 -11 -17 5 -8
-10 -3 -9 -16 -11 -12 10 -5
-16 -10 -9 -16 -13 -13 7 -7
-12 -11 -6 -14 -12 -11 9 -7
-4 -8 -3 -9 -9 -9 12 -5
-3 -6 -2 -9 -7 -6 13 -5
-9 -12 -5 -9 -8 -11 8 -9
-10 -8 -6 -11 -9 -11 8 -9
-8 -3 -6 -12 -8 -10 11 -6
-9 -6 -7 -13 -10 -11 9 -7
-12 -8 -9 -13 -12 -15 6 -9
-12 -1 -7 -13 -8 -8 11 -5
-9 -4 -4 -11 -6 -7 12 -5
-2 -2 -3 -9 -5 -5 12 -5
-4 -2 -2 -8 -4 -5 12 -4
-8 -3 -4 -8 -3 -3 14 -3
-11 -8 -3 -6 -4 -7 11 -5
-12 -1 -4 -7 -3 -4 13 -3
-2 12 -1 -3 0 1 18 1
1 11 0 -3 1 1 19 2
-3 3 -3 -3 -3 -3 16 -1
-2 12 -3 -5 -1 0 19 2
-1 7 -2 -3 -1 0 19 2
1 4 -2 -2 0 1 18 0
1 7 0 1 3 4 21 4
2 8 1 3 7 8 23 5
3 2 0 5 7 4 19 1
6 7 0 4 9 7 22 3
3 7 -2 3 9 9 24 5
4 9 -3 2 10 10 24 6
5 12 -6 1 7 7 22 5
7 18 -6 -1 9 11 26 9
7 11 -4 1 8 12 26 9
3 7 -4 3 10 13 27 7
2 8 -4 3 11 12 27 8
0 7 -5 0 10 13 26 7
-3 -2 -9 0 7 7 22 2
3 7 -10 0 10 11 24 4
2 10 -11 -1 9 13 25 6
3 7 -12 -1 9 13 24 4
4 3 -12 0 7 11 22 3
-1 4 -14 -4 6 13 24 4
-2 -5 -14 -3 5 12 26 1
1 -6 -13 -1 6 13 28 1
10 -1 -10 4 9 15 32 5
14 1 -9 6 13 18 35 7
9 -11 -11 5 9 11 30 2
5 -7 -14 0 6 10 28 1
3 -7 -14 -5 4 8 26 0
2 -12 -16 -10 -1 2 19 -4
1 -14 -18 -10 -4 -3 15 -7
-2 -5 -18 -13 -3 1 18 -4
0 -9 -14 -9 -2 1 17 -4
0 -13 -12 -6 1 1 17 -4
-3 -13 -12 -5 1 2 18 -4
-6 -14 -10 -3 3 5 20 -2
-8 -23 -10 -2 4 0 16 -6
-10 -19 -12 -5 4 2 16 -5
-10 -15 -10 -6 4 4 18 -4
-11 -16 -12 -8 3 3 16 -5
-14 -22 -14 -10 0 1 13 -7
-17 -19 -16 -14 -1 5 14 -5
-17 -23 -15 -11 -1 7 15 -6
-6 -17 -10 -8 2 9 16 -6
-8 -19 -9 -7 3 9 15 -7
-13 -23 -9 -7 1 9 14 -8
-13 -28 -11 -7 0 5 10 -13
-15 -24 -12 -8 2 8 11 -10
-14 -24 -13 -10 1 8 12 -9
-11 -26 -13 -9 0 6 10 -12
-8 -27 -14 -7 -2 2 7 -15
-6 -21 -12 -5 1 5 7 -14
-4 -33 -7 3 3 2 2 -20
-8 -46 -3 11 8 -1 -3 -28
-10 -54 1 18 12 -2 -7 -33
-8 -50 9 32 21 3 -5 -32
-3 -46 15 43 30 4 -5 -31
-1 -31 19 50 43 18 8 -20
3 -12 20 57 54 34 23 -6
8 0 20 66 66 49 38 6
15 20 23 80 84 70 59 25
23 56 30 101 115 112 99 60
37 83 43 140 154 155 141 93
47 103 58 173 189 191 176 121
53 125 66 190 218 224 207 144
57 149 73 192 236 256 239 170
63 164 76 179 239 274 260 189
68 183 75 168 241 294 282 209
71 204 71 160 247 316 306 230
67 213 66 144 245 326 319 243
57 215 46 112 225 311 309 241
51 213 21 58 181 273 279 228
41 196 5 0 124 211 231 201
17 178 -2 -50 70 145 175 167
-9 159 2 -82 26 87 119 129
-22 142 -5 -119 -20 37 73 98
-22 114 -40 -145 -58 0 45 72
-18 92 -87 -162 -80 -15 34 59
-13 73 -103 -159 -85 -17 27 47
-15 53 -102 -146 -85 -22 18 35
-13 40 -100 -134 -81 -25 11 26
-13 40 -94 -122 -76 -21 13 23
-13 21 -82 -106 -72 -22 5 13
-12 0 -71 -91 -69 -28 -3 1
-11 -12 -61 -77 -61 -29 -8 -8
-12 -23 -51 -64 -49 -24 -7 -12
-15 -39 -45 -49 -42 -26 -11 -20
-14 -35 -39 -40 -32 -21 -8 -18
-5 -22 -27 -28 -20 -9 -1 -13
-3 -22 -20 -19 -13 -6 0 -12
-11 -33 -20 -15 -11 -8 -2 -16
-13 -28 -16 -13 -6 -1 1 -13
-12 -33 -13 -10 -6 1 1 -14
-13 -38 -14 -11 -7 -2 -2 -15
-16 -40 -15 -13 -7 -3 -4 -17
-16 -41 -12 -12 -3 1 -2 -15
-10 -47 -12 -7 -1 -3 -7 -18
-11 -40 -15 -8 0 -1 -9 -18
-15 -39 -13 -8 0 0 -9 -19
-9 -35 -12 -6 1 1 -9 -19
-6 -34 -11 -4 3 -1 -10 -19
-10 -31 -10 -5 5 4 -8 -16
-10 -36 -5 -2 8 5 -7 -17
-11 -41 -6 -1 7 3 -9 -18
-12 -42 -6 -1 9 3 -9 -19
-13 -43 -6 -3 8 5 -9 -19
-20 -57 -9 -3 3 -3 -16 -26
-21 -54 -13 -6 2 -4 -16 -26
-10 -40 -6 0 7 5 -11 -19
-5 -35 -3 4 10 5 -10 -16
-6 -38 -3 5 9 2 -12 -18
-9 -32 -2 2 11 7 -9 -14
-10 -41 -2 3 9 8 -11 -17
-12 -47 -2 3 8 7 -12 -17
-11 -45 -2 5 9 8 -11 -16
-10 -41 -1 4 8 10 -9 -14
-9 -48 -4 4 4 4 -15 -20
-11 -42 -6 3 3 3 -16 -20
-10 -39 -5 4 3 5 -15 -19
-9 -42 -5 6 3 5 -15 -19
-9 -46 -5 8 3 4 -17 -20
-8 -35 -3 6 7 11 -13 -16
-8 -41 -1 9 8 13 -12 -16
-7 -46 -1 11 9 11 -13 -17
-9 -46 -1 10 11 12 -13 -17
-10 -46 -1 8 11 12 -13 -17
-7 -53 -1 11 11 7 -15 -20
-9 -46 -2 10 10 6 -17 -20
-10 -45 0 12 11 10 -15 -19
-10 -46 0 13 11 9 -15 -18
-8 -45 -2 14 11 6 -18 -20
-6 -35 1 14 16 15 -13 -14
-7 -42 5 17 18 17 -11 -15
-6 -48 3 18 17 13 -11 -15
-5 -45 4 19 19 14 -10 -14
-7 -43 4 17 18 16 -9 -13
-7 -52 4 20 17 10 -13 -17
-7 -46 3 20 19 12 -13 -16
-7 -44 2 19 19 13 -14 -17
-5 -46 2 20 17 12 -16 -18
-4 -48 3 23 19 11 -17 -17
-4 -39 5 23 22 18 -11 -13
-4 -44 7 25 23 19 -10 -13
-5 -50 6 25 23 17 -13 -13
-5 -49 7 26 25 20 -10 -12
-5 -46 8 26 27 24 -8 -11
-5 -56 5 27 25 16 -13 -17
-6 -50 3 25 27 16 -14 -15
-10 -49 2 25 28 16 -13 -17
-10 -52 2 26 28 13 -16 -19
-10 -55 1 28 26 10 -18 -20
-8 -45 5 27 30 17 -13 -14
4 -42 11 35 34 21 -10 -11
5 -45 13 38 36 23 -11 -9
1 -51 10 36 35 22 -13 -11
1 -47 11 38 37 26 -8 -8
2 -54 9 41 35 21 -13 -14
-3 -52 7 40 35 21 -13 -12
-5 -51 6 38 33 21 -13 -13
-3 -52 10 41 34 20 -13 -13
5 -46 9 45 35 21 -14 -12
2 -38 11 45 37 28 -8 -7
0 -49 13 47 36 27 -8 -8
2 -52 14 50 37 26 -9 -9
4 -50 15 50 38 27 -9 -8
4 -48 19 49 41 30 -5 -5
5 -54 18 51 38 25 -10 -10
4 -48 20 55 41 26 -9 -7
6 -43 20 53 42 29 -8 -7
6 -43 22 55 43 30 -7 -8
5 -47 19 56 40 24 -12 -11
6 -40 22 55 43 29 -7 -5
5 -48 23 58 44 29 -6 -6
4 -54 22 59 44 27 -8 -9
2 -54 22 60 44 27 -9 -8
-1 -57 22 56 43 25 -10 -9
6 -57 22 62 45 22 -11 -11
17 -43 25 65 49 26 -7 -5
13 -44 23 59 44 25 -10 -5
9 -50 22 58 43 23 -11 -7
6 -55 19 57 39 17 -17 -11
9 -43 21 57 41 24 -12 -5
15 -40 26 61 42 28 -8 -3
12 -48 25 61 41 26 -9 -2
14 -48 23 59 39 26 -9 -3
18 -43 26 59 41 30 -6 1
18 -53 22 60 36 23 -12 -5
20 -46 19 57 36 23 -12 -2
19 -41 20 55 34 23 -10 -1
18 -43 22 54 31 21 -13 -3
17 -43 21 55 29 20 -15 -3
16 -35 21 51 31 25 -11 2
16 -41 23 51 28 26 -12 0
15 -46 21 49 27 24 -14 0
15 -47 19 47 26 23 -13 0
17 -44 19 47 27 27 -10 3
14 -53 15 47 23 20 -15 -2
13 -49 13 43 21 18 -16 -1
16 -39 15 42 23 23 -12 2
15 -42 14 42 21 22 -13 2
15 -42 12 41 20 20 -15 2
15 -33 14 37 21 27 -11 7
19 -35 16 38 22 30 -8 8
19 -36 15 38 22 29 -8 9
15 -35 13 34 21 29 -9 10
14 -34 12 32 22 31 -7 12
14 -41 10 32 20 25 -11 8
13 -35 9 30 21 26 -12 11
13 -31 9 28 22 31 -10 11
11 -34 9 28 22 33 -9 9
16 -34 7 27 19 28 -13 7
18 -25 8 23 21 36 -8 11
16 -33 12 25 21 39 -4 11
13 -36 14 27 22 39 -3 13
10 -33 14 25 22 40 -1 16
6 -34 14 23 22 42 1 16
6 -41 12 21 18 34 -4 11
7 -35 12 19 18 34 -5 13
3 -37 10 16 16 33 -5 11
-6 -45 8 13 14 30 -8 6
1 -40 8 14 11 27 -9 6
17 -15 14 17 18 37 -2 13
13 -26 16 16 15 36 -3 12
7 -34 16 17 15 36 -3 11
8 -33 16 15 15 36 -3 12
5 -31 16 14 17 38 -2 13
3 -41 14 14 13 32 -6 8
3 -36 14 12 12 33 -5 10
2 -36 12 9 9 31 -8 8
2 -38 13 10 8 30 -9 7
3 -39 12 10 8 28 -10 6
0 -31 13 8 10 34 -4 11
0 -38 16 11 11 35 -4 9
-3 -42 16 11 10 33 -3 8
-5 -43 13 7 7 30 -4 7
1 -31 14 7 8 33 -2 9
7 -29 11 6 4 26 -8 4
4 -21 7 2 1 24 -9 3
6 -12 8 0 1 26 -7 4
2 -11 7 -2 -2 24 -12 0
1 -9 4 -4 -5 18 -17 -5
0 3 5 -5 -4 22 -14 -1
-1 -5 5 -7 -6 19 -17 -5
-3 -10 4 -7 -8 16 -18 -6
1 -2 4 -7 -7 17 -17 -6
5 6 5 -7 -6 21 -13 -3
3 -2 2 -7 -10 14 -21 -9
-1 4 1 -8 -8 14 -20 -5
-3 10 -1 -11 -9 15 -21 -6
-5 6 -3 -12 -12 12 -24 -7
-7 2 -7 -14 -15 6 -27 -10
-4 15 -3 -13 -11 14 -22 -2
0 14 1 -10 -9 15 -21 -2
3 13 1 -8 -8 14 -23 -1
3 14 0 -10 -7 14 -23 -1
-2 14 0 -11 -8 14 -24 -2
-2 7 -3 -10 -13 7 -28 -7
-6 9 -4 -11 -12 8 -27 -5
-8 13 -5 -13 -12 10 -26 -6
-1 18 -3 -11 -12 10 -26 -6
3 20 -4 -12 -13 7 -29 -8
2 30 -2 -13 -7 15 -23 -2
0 21 -1 -11 -7 15 -23 -3
0 17 -1 -9 -6 13 -24 -5
0 19 -1 -11 -5 12 -25 -4
-3 17 0 -11 -5 15 -22 -3
-3 8 -2 -10 -8 8 -28 -10
-2 14 -2 -10 -8 11 -26 -8
-2 19 -2 -12 -11 13 -27 -8
-2 19 -2 -11 -10 13 -25 -8
0 18 -4 -11 -10 11 -26 -8
-2 26 -1 -12 -8 18 -24 -2
-1 19 1 -11 -8 18 -23 -2
-1 18 -1 -12 -8 17 -23 -3
-3 19 -2 -12 -7 18 -23 -2
-4 19 0 -11 -8 20 -23 -1
-4 8 -2 -9 -11 12 -29 -7
-3 16 -2 -10 -11 13 -28 -6
-3 17 -1 -12 -12 15 -28 -5
-4 16 -1 -11 -11 16 -29 -7
-2 17 -2 -11 -12 14 -30 -8
-4 26 -1 -13 -11 21 -26 -5
-4 17 2 -9 -10 22 -27 -5
-3 16 1 -9 -10 20 -27 -4
-4 16 1 -10 -11 19 -26 -3
-3 17 1 -12 -12 20 -27 -3
-4 6 -2 -11 -17 12 -33 -10
-4 12 -4 -12 -17 12 -34 -9
-1 18 -2 -11 -16 15 -31 -8
-4 14 -1 -10 -16 15 -33 -8
-7 9 -5 -12 -18 10 -37 -12
-10 14 -3 -14 -15 16 -31 -7
-9 7 -1 -12 -15 17 -28 -7
3 14 2 -9 -11 20 -25 -3
1 11 3 -8 -11 20 -24 -1
-5 9 2 -11 -13 21 -23 -2
-8 1 -4 -12 -19 15 -30 -7
-4 13 -3 -12 -16 17 -28 -5
2 22 0 -11 -16 19 -26 -2
-1 18 -3 -13 -18 15 -28 -7
-4 13 -6 -14 -19 11 -33 -9
-3 23 -3 -16 -15 15 -29 -5
3 21 2 -11 -12 18 -25 -4
2 14 2 -10 -10 17 -25 -5
-2 12 1 -12 -12 17 -24 -5
-6 9 1 -13 -13 16 -23 -6
-5 1 -2 -11 -18 9 -29 -10
-5 9 -3 -14 -17 9 -30 -8
-4 14 -3 -15 -18 10 -30 -8
0 15 -2 -13 -18 11 -30 -8
1 15 -4 -13 -19 7 -32 -9
-2 23 -2 -15 -16 11 -28 -5
-5 13 1 -12 -18 11 -27 -5
-5 10 0 -13 -19 8 -29 -7
-3 14 -1 -14 -18 8 -29 -5
-4 14 0 -14 -16 10 -26 -3
-4 2 -3 -12 -20 3 -32 -8
-2 12 -3 -13 -19 2 -32 -5
-3 17 -3 -15 -21 2 -34 -5
-5 11 -4 -14 -22 1 -34 -5
-5 9 -6 -13 -21 -1 -35 -7
-6 17 -7 -17 -20 3 -32 -5
-5 10 -5 -14 -21 2 -33 -6
-4 8 -6 -14 -21 2 -32 -7
-3 9 -7 -15 -22 1 -31 -7
-3 8 -7 -15 -22 3 -30 -6
-6 -3 -7 -13 -24 -4 -34 -9
-8 4 -11 -14 -23 -3 -33 -8
-7 9 -10 -15 -23 -1 -31 -6
-7 3 -12 -17 -28 -5 -35 -10
-5 2 -13 -17 -28 -7 -36 -12
-7 12 -12 -18 -25 -1 -30 -9
-8 3 -8 -14 -24 -1 -30 -10
-7 1 -10 -15 -24 -3 -33 -10
-6 2 -11 -16 -24 -3 -32 -8
-7 3 -11 -16 -25 -1 -29 -6
-7 -3 -13 -15 -28 -7 -35 -10
-8 3 -14 -16 -26 -5 -35 -9
-7 6 -14 -17 -28 -4 -35 -7
-7 1 -14 -17 -30 -4 -35 -8
-9 -1 -15 -18 -31 -8 -39 -10
-10 9 -14 -19 -27 0 -34 -6
-8 3 -11 -17 -27 0 -33 -6
-8 -1 -11 -18 -28 -3 -36 -8
-7 3 -10 -18 -26 -1 -37 -9
-7 1 -10 -18 -26 0 -37 -9
-10 -11 -14 -17 -31 -8 -43 -13
-19 -10 -16 -22 -33 -9 -44 -14
-19 -9 -15 -23 -35 -7 -43 -14
-5 2 -11 -17 -28 -1 -37 -10
3 9 -11 -15 -27 -2 -38 -9
-5 11 -11 -20 -26 4 -35 -7
-7 1 -10 -19 -27 6 -34 -8
-8 -2 -11 -19 -27 5 -35 -9
-7 -2 -9 -17 -28 4 -34 -7
-14 -7 -10 -20 -30 3 -36 -9
-11 -13 -14 -20 -33 -4 -42 -13
3 4 -11 -18 -29 2 -37 -6
0 5 -11 -19 -30 2 -37 -7
-4 -2 -13 -19 -31 1 -39 -10
-2 -2 -15 -19 -30 -1 -41 -11
-4 8 -13 -22 -27 5 -34 -7
-3 2 -11 -20 -27 7 -33 -8
-7 -3 -10 -19 -25 7 -33 -8
-7 -3 -11 -21 -25 7 -34 -8
-7 -2 -10 -20 -23 9 -31 -6
-7 -11 -12 -18 -26 0 -38 -12
-6 -6 -11 -18 -23 2 -36 -10
-6 -2 -11 -18 -22 4 -35 -9
-9 -8 -11 -17 -22 3 -36 -10
-6 -7 -12 -20 -26 -1 -39 -13
-8 3 -11 -23 -24 6 -36 -9
-10 -3 -9 -21 -23 6 -37 -10
-9 -6 -10 -20 -22 5 -38 -10
-12 -8 -9 -20 -21 4 -38 -9
-7 1 -8 -19 -17 8 -35 -7
1 2 -5 -14 -17 5 -36 -8
-2 6 -4 -14 -15 7 -35 -4
-2 8 -5 -15 -16 8 -36 -5
-6 4 -6 -15 -15 6 -36 -7
-4 4 -8 -15 -17 1 -40 -9
-2 12 -5 -16 -13 9 -34 -3
1 5 -5 -15 -15 8 -35 -4
1 4 -4 -15 -13 7 -36 -3
0 7 -3 -16 -11 9 -36 -2
0 10 -2 -14 -9 11 -34 -1
4 6 -3 -11 -11 5 -38 -4
6 14 -5 -12 -8 7 -36 -1
5 14 -3 -12 -8 9 -34 0
6 9 -5 -12 -8 7 -36 -3
7 9 -7 -12 -7 3 -39 -3
9 21 -7 -14 -2 12 -33 2
4 9 -6 -11 -1 13 -30 3
-3 -1 -9 -13 -4 8 -34 1
8 12 -7 -13 -3 9 -32 3
11 19 -4 -11 1 12 -28 7
6 8 -7 -12 -4 3 -34 2
4 14 -8 -16 -2 4 -32 4
3 14 -10 -19 -4 3 -34 1
3 8 -9 -16 -3 3 -33 0
6 7 -9 -14 -2 0 -35 -1
4 15 -7 -15 0 6 -29 2
4 6 -6 -13 0 5 -31 1
3 0 -7 -13 1 3 -32 0
2 1 -9 -15 -1 2 -32 0
6 3 -8 -14 0 6 -14 2
7 -8 -11 -14 -4 -1 5 -3
7 -2 -12 -16 -2 3 21 -1
7 0 -12 -19 -4 3 26 -1
5 -7 -10 -20 -8 -2 24 -5
6 -9 -12 -23 -12 -7 19 -11
1 -5 -11 -27 -10 -2 22 -9
-5 -19 -12 -28 -15 -5 18 -12
-13 -26 -10 -28 -15 -7 14 -13
-6 -19 -7 -25 -13 -7 13 -11
4 -7 -3 -22 -8 -1 13 -6
-4 -19 -5 -22 -12 -9 3 -12
-5 -12 -5 -25 -13 -9 0 -13
-4 -7 -3 -25 -11 -5 -2 -11
-10 -14 -2 -24 -13 -7 -5 -13
-8 -16 -3 -24 -14 -10 -9 -16
-7 -5 0 -27 -10 -3 -4 -10
-10 -16 0 -27 -13 -2 -6 -13
-10 -21 1 -27 -11 -4 -8 -12
-11 -23 0 -28 -13 -6 -10 -11
-10 -21 1 -27 -11 -4 -9 -9
-8 -27 -3 -26 -14 -11 -15 -12
-11 -22 -4 -29 -14 -12 -16 -12
-11 -18 -4 -29 -12 -9 -15 -11
-9 -20 -3 -27 -13 -11 -16 -12
-10 -24 -4 -26 -14 -15 -19 -15
-15 -21 -1 -28 -12 -10 -16 -14
-14 -33 2 -22 -13 -12 -19 -19
-1 -33 9 -11 -9 -13 -22 -23
2 -36 13 -3 -3 -13 -25 -25
-3 -44 17 4 0 -12 -28 -28
-2 -53 19 15 3 -19 -37 -37
-3 -45 25 23 11 -13 -35 -35
-4 -35 29 28 21 -2 -27 -28
1 -22 32 38 33 9 -15 -16
5 -9 31 45 46 22 -1 -3
9 18 37 56 67 51 25 21
17 37 43 75 92 81 57 47
23 62 48 101 125 117 96 80
32 91 59 135 160 157 137 112
52 128 76 163 197 201 177 146
61 142 82 175 216 225 201 164
58 164 84 166 224 252 228 187
55 181 88 151 222 271 252 205
59 198 93 148 228 292 274 224
62 213 91 138 235 308 293 241
56 226 82 113 227 311 297 250
52 211 63 71 190 278 272 236
41 191 41 14 135 215 221 207
20 177 26 -45 75 144 162 173
-6 167 29 -85 31 87 107 141
-25 138 27 -119 -19 22 47 98
-31 125 1 -158 -66 -25 7 70
-25 108 -38 -176 -91 -39 -6 58
-19 82 -77 -182 -105 -46 -14 47
-19 62 -90 -175 -110 -51 -23 36
-21 57 -87 -164 -103 -44 -21 35
-23 36 -85 -151 -99 -45 -26 29
-22 20 -80 -137 -93 -45 -28 22
-21 7 -68 -120 -86 -44 -31 14
-14 -2 -52 -105 -81 -46 -38 4
-8 -19 -40 -86 -74 -51 -45 -7
-7 -20 -34 -73 -63 -45 -44 -11
-7 -22 -25 -60 -53 -40 -43 -13
-10 -27 -19 -48 -47 -39 -42 -16
-13 -34 -15 -41 -42 -39 -44 -21
-17 -28 -6 -34 -31 -25 -35 -15
-20 -37 2 -26 -25 -23 -33 -16
-11 -36 8 -21 -20 -21 -32 -14
-10 -37 8 -20 -20 -22 -34 -13
-12 -37 8 -21 -20 -21 -33 -13
-11 -41 5 -19 -21 -28 -39 -17
-11 -33 4 -24 -23 -27 -39 -18
-11 -31 5 -23 -22 -26 -39 -17
-10 -34 6 -19 -20 -26 -40 -19
-9 -35 3 -19 -21 -29 -42 -22
-11 -29 6 -20 -18 -22 -38 -18
-15 -41 10 -16 -16 -22 -39 -22
-14 -44 11 -13 -14 -21 -37 -21
-10 -37 12 -15 -12 -20 -36 -19
-12 -36 14 -16 -13 -17 -34 -17
-14 -45 12 -14 -16 -25 -41 -21
-8 -32 12 -14 -15 -20 -38 -16
-10 -30 13 -15 -15 -20 -39 -18
-10 -33 13 -10 -15 -20 -42 -19
-9 -33 12 -11 -18 -26 -45 -22
-10 -26 14 -12 -15 -17 -39 -18
-10 -34 17 -7 -11 -16 -38 -16
-12 -40 18 -6 -10 -16 -37 -16
-10 -37 15 -9 -10 -17 -37 -17
-8 -37 16 -8 -8 -13 -34 -13
-9 -45 14 -7 -10 -21 -40 -17
-8 -37 11 -10 -11 -21 -42 -17
-8 -33 14 -9 -10 -19 -42 -15
-9 -36 13 -7 -12 -21 -45 -18
-9 -35 14 -6 -12 -22 -47 -22
-9 -26 15 -7 -9 -14 -42 -18
-11 -36 20 -3 -6 -15 -41 -18
-15 -41 19 -3 -6 -16 -42 -18
-19 -43 17 -6 -7 -20 -44 -20
-17 -43 17 -5 -5 -18 -41 -17
-11 -44 18 -1 -5 -23 -43 -20
-12 -39 16 -5 -6 -24 -46 -20
-12 -36 16 -4 -4 -23 -45 -20
-10 -37 17 -2 -5 -24 -46 -19
-11 -38 16 -2 -5 -26 -49 -21
-6 -23 19 -3 -1 -16 -42 -16
-9 -34 23 3 2 -15 -40 -17
-10 -36 22 3 0 -18 -41 -18
-11 -34 21 0 0 -17 -39 -17
-7 -32 23 4 3 -13 -37 -14
-4 -38 21 6 1 -19 -41 -17
-7 -33 19 3 0 -20 -41 -15
-9 -32 18 2 -2 -20 -42 -18
-10 -35 18 4 -4 -21 -45 -20
-10 -36 19 8 -2 -23 -47 -22
-8 -24 22 6 1 -15 -43 -18
-9 -32 24 10 -2 -15 -43 -20
-9 -35 24 11 -2 -16 -42 -19
-8 -34 24 9 -2 -15 -41 -17
-9 -33 22 8 -4 -14 -41 -17
-13 -42 18 9 -10 -25 -49 -22
-6 -26 19 10 -7 -21 -46 -18
-3 -21 19 11 -8 -21 -47 -18
-5 -25 18 12 -11 -23 -49 -22
-7 -25 17 12 -12 -25 -52 -25
-9 -18 19 11 -8 -16 -48 -22
-7 -27 21 16 -8 -17 -47 -24
-6 -28 21 17 -7 -16 -45 -24
-5 -23 22 18 -5 -14 -44 -21
-3 -18 22 19 -5 -10 -40 -17
-3 -26 17 18 -11 -21 -48 -24
-2 -17 15 14 -10 -20 -47 -22
-5 -15 16 17 -8 -18 -47 -20
-6 -18 16 21 -7 -20 -50 -23
-3 -18 15 22 -8 -22 -51 -27
-4 -9 17 20 -3 -13 -48 -23
-5 -20 19 26 -2 -12 -49 -24
-3 -21 18 28 -1 -13 -49 -25
-2 -19 19 28 0 -11 -47 -23
3 -11 21 29 5 -5 -42 -19
-1 -21 18 31 0 -12 -47 -23
1 -12 14 27 0 -12 -47 -22
3 -6 15 29 1 -11 -45 -21
5 -8 16 32 3 -11 -46 -22
5 -10 14 33 2 -15 -50 -26
4 -2 16 32 5 -7 -44 -21
1 -13 18 37 6 -6 -45 -23
4 -16 18 40 8 -7 -44 -22
6 -12 18 40 9 -7 -40 -21
5 -10 19 38 9 -4 -36 -19
5 -16 16 40 5 -11 -41 -23
8 -6 13 39 7 -8 -38 -23
9 -2 14 37 5 -9 -39 -23
9 -8 13 39 2 -11 -40 -25
8 -12 12 41 1 -13 -42 -26
9 -3 14 39 5 -6 -35 -20
9 -10 16 43 4 -6 -34 -21
9 -14 14 42 3 -7 -36 -22
10 -9 13 40 4 -7 -36 -20
11 -7 13 38 4 -7 -35 -19
12 -16 11 39 0 -15 -44 -23
12 -8 8 36 2 -13 -42 -20
10 -4 6 34 0 -13 -42 -20
11 -6 8 35 -1 -14 -43 -21
12 -6 4 33 -3 -17 -46 -23
13 3 6 30 -2 -11 -41 -19
13 -3 8 32 -2 -13 -40 -19
11 -9 7 32 -3 -16 -40 -19
9 -10 8 29 -4 -15 -40 -17
8 -9 7 25 -5 -14 -40 -16
13 -13 3 26 -10 -23 -46 -20
17 -2 1 22 -9 -20 -44 -17
13 -1 0 20 -10 -19 -44 -16
11 -5 -4 19 -11 -22 -46 -19
14 -1 -4 19 -10 -22 -42 -21
16 8 -1 17 -9 -13 -34 -16
16 2 0 18 -9 -14 -32 -15
20 5 0 18 -8 -12 -31 -13
17 7 1 17 -7 -9 -27 -11
16 9 0 13 -8 -9 -26 -9
13 -2 -3 12 -12 -19 -30 -13
11 6 -5 9 -11 -17 -25 -10
12 11 -3 8 -9 -15 -20 -7
6 4 -6 5 -14 -21 -22 -11
0 -2 -11 1 -18 -25 -24 -14
-1 7 -8 -3 -15 -16 -18 -8
15 15 0 6 -11 -14 -13 -4
21 19 2 8 -9 -13 -12 -3
14 19 0 4 -11 -12 -10 -2
6 16 -1 -1 -13 -12 -11 -3
7 8 -4 0 -16 -20 -15 -8
13 23 -5 -1 -15 -16 -10 -5
12 25 -3 -2 -16 -15 -9 -5
7 20 -3 -3 -18 -18 -11 -8
3 14 -5 -4 -20 -22 -14 -12
2 22 -2 -7 -17 -14 -8 -6
2 16 1 -6 -17 -15 -7 -6
2 15 2 -6 -17 -14 -5 -6
3 14 0 -7 -16 -16 -6 -5
2 15 0 -9 -17 -17 -6 -4
4 11 -3 -8 -21 -25 -11 -9
2 17 -5 -11 -20 -24 -10 -8
-2 18 -3 -12 -21 -23 -11 -8
-1 17 -3 -11 -22 -24 -12 -11
0 15 -5 -12 -23 -30 -15 -14
-1 22 -4 -14 -20 -23 -10 -9
-1 17 -1 -12 -19 -22 -10 -9
-1 14 0 -10 -18 -23 -9 -8
0 14 2 -10 -16 -21 -8 -6
-4 13 3 -12 -16 -18 -8 -3
-5 4 -1 -13 -21 -27 -16 -10
-1 14 -2 -16 -20 -24 -15 -8
-1 18 -2 -18 -22 -25 -16 -10
-4 15 -2 -16 -24 -27 -18 -13
-1 15 -4 -16 -24 -28 -21 -16
-2 23 -3 -18 -22 -22 -16 -12
-4 15 0 -14 -21 -21 -15 -13
-5 11 -1 -13 -19 -21 -13 -11
-5 12 0 -13 -19 -21 -11 -7
-4 14 1 -14 -18 -19 -11 -6
-6 3 -1 -14 -21 -28 -19 -11
-5 9 -3 -16 -20 -27 -18 -8
-3 16 -2 -16 -18 -26 -18 -7
2 16 -3 -15 -19 -28 -18 -10
1 16 -5 -15 -18 -31 -17 -12
-1 25 -4 -18 -15 -26 -11 -9
-4 14 1 -14 -14 -25 -9 -9
-4 9 1 -13 -13 -26 -7 -9
-2 12 2 -13 -11 -23 -4 -5
-2 13 2 -13 -11 -22 -2 -5
-3 2 0 -9 -13 -28 -7 -9
-1 11 -1 -11 -14 -27 -6 -8
1 18 -1 -13 -16 -27 -5 -6
-2 13 -2 -14 -18 -29 -6 -10
-5 12 -4 -13 -18 -32 -9 -11
-1 25 -1 -15 -13 -24 -2 -6
-2 18 3 -11 -11 -24 -1 -7
1 15 3 -10 -9 -22 0 -7
0 16 2 -10 -9 -21 1 -4
-2 14 1 -12 -11 -21 1 -5
0 5 1 -8 -13 -28 -4 -8
2 14 -1 -11 -12 -25 -2 -7
1 18 -1 -9 -10 -21 0 -5
2 17 -1 -8 -10 -21 1 -6
-1 12 -3 -9 -13 -26 -3 -9
-6 17 -2 -12 -12 -21 2 -5
-8 10 1 -8 -12 -20 2 -6
0 11 3 -6 -9 -19 4 -4
11 22 6 -3 -6 -17 6 -1
8 20 6 -5 -7 -16 6 -2
4 8 1 -5 -14 -29 -3 -8
6 16 0 -6 -12 -24 2 -4
3 20 2 -6 -12 -22 2 -4
4 18 2 -6 -14 -25 0 -7
4 15 0 -5 -14 -27 -2 -7
3 25 3 -7 -14 -20 4 -1
3 17 6 -3 -14 -18 4 -3
2 12 5 -2 -14 -19 3 -3
2 12 5 -2 -13 -17 5 0
2 16 5 -4 -14 -15 7 1
3 5 2 -2 -18 -24 -1 -5
-1 10 -2 -5 -12 -23 0 -4
-5 9 -1 -8 -5 -23 -1 -5
1 10 2 -4 -4 -21 0 -5
10 18 2 -1 -1 -21 1 -3
10 26 3 -5 1 -13 7 2
7 16 8 -1 1 -11 10 2
7 15 7 0 1 -12 13 3
7 15 4 -2 -1 -12 12 2
5 16 4 -3 -2 -10 13 4
1 5 0 -3 -9 -20 7 -2
4 14 -1 -3 -9 -17 8 1
9 22 -1 -3 -9 -12 9 2
7 17 0 -3 -11 -16 7 -2
6 13 -2 -3 -12 -21 3 -6
8 26 2 -6 -9 -13 8 -1
7 17 5 -1 -8 -14 8 -2
8 15 8 0 -6 -17 8 -2
8 15 9 0 -5 -14 9 0
7 13 10 -1 -6 -12 12 3
8 5 7 0 -9 -20 6 -2
4 12 2 -5 -11 -21 5 -2
3 16 0 -6 -12 -20 5 -2
6 17 -1 -4 -11 -21 6 -4
5 13 -3 -3 -11 -23 4 -5
2 19 -2 -5 -10 -15 10 -1
1 10 2 -2 -8 -15 11 -2
6 9 5 0 -6 -17 12 -1
6 12 4 0 -7 -16 11 0
2 12 2 -4 -10 -17 10 -1
7 7 2 0 -12 -23 6 -5
9 18 2 -3 -12 -21 8 -2
6 18 1 -5 -15 -20 7 -2
7 14 0 -4 -15 -23 7 -4
6 12 0 -3 -15 -24 7 -6
5 21 1 -6 -14 -19 12 -2
4 12 2 -2 -14 -19 11 -3
4 7 3 -2 -13 -21 11 -5
3 9 3 -1 -13 -20 12 -3
5 11 3 -2 -12 -19 13 -2
6 2 0 -1 -16 -27 6 -9
6 11 -1 -4 -16 -25 5 -6
5 12 -3 -7 -19 -23 5 -8
0 5 -3 -7 -21 -26 3 -10
-6 -3 -5 -7 -22 -27 1 -13
1 12 -1 -6 -17 -19 9 -6
10 12 5 0 -14 -16 11 -4
7 7 5 -1 -13 -17 10 -4
3 4 2 -3 -14 -17 9 -5
3 6 3 -2 -13 -15 9 -4
4 -2 0 -3 -17 -23 1 -10
3 7 -3 -6 -19 -21 1 -8
0 10 -3 -6 -20 -20 2 -7
1 8 -2 -6 -20 -23 0 -9
4 9 -3 -5 -18 -23 -1 -10
6 19 -2 -7 -15 -13 6 -5
3 8 0 -4 -17 -14 5 -7
3 5 1 -4 -17 -16 4 -6
2 6 0 -4 -16 -14 6 -3
3 7 1 -6 -15 -14 8 -1
4 -2 -3 -5 -18 -24 1 -6
4 7 -5 -7 -18 -23 2 -4
3 11 -3 -7 -18 -22 5 -3
4 9 -1 -6 -18 -26 1 -6
5 7 -4 -6 -19 -29 -1 -9
6 18 -2 -7 -15 -18 6 -4
2 8 1 -5 -16 -18 7 -5
0 1 2 -4 -16 -19 6 -5
0 -1 -1 -4 -17 -21 6 -5
-2 1 -3 -6 -19 -20 4 -7
-3 -7 -5 -5 -22 -27 1 -12
-3 -1 -7 -8 -22 -26 2 -9
-6 -2 -7 -9 -23 -21 1 -10
-9 -8 -9 -8 -25 -19 -1 -13
-10 -10 -11 -8 -28 -19 -3 -16
-4 6 -8 -9 -25 -7 3 -11
1 2 -1 -2 -21 -3 8 -8
2 1 1 0 -20 -2 9 -6
6 7 0 -1 -19 1 11 -3
5 9 -1 -2 -19 3 11 -4
7 2 -1 1 -21 -6 6 -7
5 12 -3 -2 -19 -4 9 -4
2 15 -1 -2 -18 -2 10 -2
3 11 -2 -1 -20 -4 8 -5
4 10 -3 0 -19 -4 8 -6
3 20 0 -3 -17 3 13 -1
5 12 2 1 -18 1 13 -2
5 7 1 4 -15 1 13 -2
5 9 1 2 -14 2 12 0
6 14 4 4 -10 6 16 4
7 7 2 6 -11 -2 10 0
9 14 -1 4 -10 -1 11 1
11 19 0 4 -12 0 12 1
11 13 -1 5 -12 -3 9 -3
11 11 -4 5 -11 -5 8 -5
9 21 -4 1 -8 2 13 -1
4 11 -4 5 -8 2 14 -1
3 7 -4 6 -6 1 17 3
15 21 -2 7 -2 5 20 8
17 26 2 9 2 10 25 11
13 15 -2 7 -3 2 18 5
11 23 -4 4 -4 3 18 7
12 26 -5 3 -6 4 19 6
11 18 -6 2 -10 -1 14 2
11 15 -9 2 -10 -3 13 1
12 27 -7 2 -6 6 19 5
11 15 -4 5 -7 5 17 3
11 9 -3 8 -5 3 16 4
12 11 -5 8 -4 5 18 6
12 10 -5 8 -6 8 20 7
14 2 -9 8 -8 1 15 3
13 8 -11 6 -8 3 17 5
14 10 -13 3 -10 2 15 4
12 5 -14 2 -13 -3 11 1
10 0 -16 -3 -18 -10 5 -5
9 8 -14 -5 -17 -4 8 -3
7 -4 -12 -2 -16 -7 7 -5
3 -12 -12 -3 -17 -11 4 -7
1 -10 -10 -3 -16 -10 3 -6
-1 -8 -8 -4 -15 -10 4 -5
0 -17 -10 -2 -18 -17 -1 -9
1 -7 -12 -5 -18 -15 0 -7
-4 -7 -12 -6 -20 -15 -1 -9
-4 -12 -11 -4 -21 -17 -2 -12
-3 -12 -11 -6 -21 -20 -4 -14
-6 -2 -10 -9 -20 -13 0 -10
-6 -11 -7 -6 -21 -15 0 -11
-6 -16 -6 -5 -20 -18 -1 -10
-6 -18 -7 -5 -19 -19 -2 -11
-6 -15 -7 -4 -20 -18 -2 -11
-6 -21 -10 -5 -23 -26 -8 -16
-2 -11 -11 -6 -22 -23 -7 -13
-3 -8 -12 -7 -23 -22 -7 -14
-6 -15 -12 -6 -23 -23 -8 -16
-9 -17 -15 -7 -23 -27 -11 -18
-12 -9 -13 -9 -20 -17 -5 -14
-5 -16 -8 -1 -18 -17 -6 -16
-1 -21 -7 4 -16 -19 -10 -19
-3 -28 -6 8 -14 -23 -15 -24
-4 -34 0 17 -10 -22 -17 -28
-3 -49 2 27 -9 -30 -27 -36
0 -41 5 36 -1 -27 -26 -38
4 -31 12 45 8 -21 -22 -35
5 -25 16 52 16 -13 -14 -29
7 -11 18 61 30 0 -2 -16
8 15 23 66 47 26 22 5
11 21 28 80 64 46 41 19
19 43 32 99 90 77 74 47
28 76 39 128 127 121 118 85
37 103 52 159 163 163 158 117
46 118 60 181 190 194 188 140
47 145 65 184 208 227 220 164
48 168 70 172 212 255 251 187
56 184 77 164 215 278 277 206
59 201 76 160 219 299 298 223
57 228 77 147 228 326 326 250
51 226 68 125 215 323 327 253
46 214 42 80 175 286 299 239
36 202 18 19 118 220 248 212
16 188 3 -44 52 144 185 176
-8 162 -3 -86 -4 65 116 133
-24 146 -9 -126 -57 -2 54 92
-32 125 -33 -167 -112 -53 11 60
-24 106 -73 -183 -135 -70 -3 48
-9 93 -105 -180 -141 -72 -7 39
-10 84 -108 -171 -136 -62 -5 34
-13 60 -106 -154 -130 -63 -9 23
-12 44 -104 -139 -121 -63 -11 18
-12 37 -97 -124 -110 -59 -11 13
-10 22 -80 -105 -99 -56 -13 6
-8 -6 -69 -88 -97 -70 -28 -12
-5 -9 -59 -73 -86 -65 -29 -17
-5 -13 -51 -58 -75 -57 -26 -21
-7 -24 -43 -42 -64 -55 -26 -24
-6 -25 -37 -32 -54 -52 -25 -26
-5 -13 -28 -25 -44 -37 -16 -20
-7 -26 -19 -13 -37 -34 -15 -20
-7 -33 -14 -7 -32 -32 -13 -20
-9 -31 -11 -6 -30 -31 -12 -17
-9 -28 -10 -6 -29 -29 -11 -14
-9 -36 -14 -5 -34 -37 -18 -21
-7 -27 -16 -7 -34 -35 -17 -21
-9 -27 -17 -8 -36 -32 -15 -20
-17 -39 -20 -9 -40 -38 -21 -27
-21 -41 -21 -9 -41 -41 -24 -31
-6 -19 -14 -5 -33 -27 -13 -21
1 -24 -9 3 -30 -26 -12 -22
-8 -36 -9 4 -30 -29 -15 -24
-14 -38 -9 0 -29 -27 -15 -24
-10 -33 -7 1 -28 -24 -13 -21
-1 -34 -8 3 -30 -31 -18 -23
-3 -26 -10 0 -31 -26 -16 -21
-4 -24 -10 -1 -32 -24 -16 -21
-2 -27 -8 3 -32 -26 -17 -22
-2 -28 -12 1 -34 -30 -22 -26
-5 -17 -8 0 -31 -21 -17 -22
-9 -32 -4 5 -30 -22 -18 -24
-5 -36 -3 8 -27 -24 -19 -24
-4 -31 -3 6 -24 -20 -17 -22
-6 -31 -2 6 -23 -16 -14 -20
-4 -37 -4 9 -24 -25 -19 -22
-4 -26 -6 5 -24 -21 -17 -20
-3 -23 -7 2 -26 -21 -18 -21
-2 -27 -7 6 -27 -22 -18 -22
-4 -28 -8 7 -26 -25 -19 -24
-2 -18 -5 7 -21 -16 -15 -20
-2 -29 -3 11 -20 -17 -14 -21
-4 -35 -1 13 -20 -18 -15 -22
-6 -33 -1 11 -20 -17 -15 -21
-8 -36 0 11 -20 -16 -14 -21
-6 -41 -2 13 -23 -23 -20 -26
-4 -30 -3 11 -23 -21 -19 -22
-4 -25 -5 9 -25 -21 -19 -22
-2 -27 -4 12 -25 -23 -20 -24
-2 -27 -5 13 -23 -25 -22 -25
-4 -19 -2 10 -20 -17 -17 -20
-6 -31 0 15 -20 -18 -17 -22
-6 -36 2 17 -19 -18 -16 -22
-4 -34 1 16 -18 -16 -15 -21
-2 -33 4 17 -17 -11 -14 -18
-3 -42 1 19 -18 -19 -19 -22
-2 -31 -2 16 -18 -17 -19 -20
-1 -25 -2 15 -18 -16 -18 -18
-1 -29 -1 18 -19 -19 -20 -19
-1 -28 -2 19 -19 -20 -23 -20
-4 -21 1 20 -15 -10 -17 -14
-6 -34 4 24 -15 -11 -17 -15
-3 -38 6 27 -12 -11 -16 -14
-2 -34 6 25 -12 -8 -15 -12
-1 -32 6 25 -12 -7 -15 -12
-1 -40 3 26 -13 -15 -21 -17
-4 -32 1 23 -13 -14 -21 -16
-3 -29 0 23 -14 -13 -21 -16
-5 -36 -1 25 -16 -16 -23 -17
-6 -36 -4 24 -18 -19 -27 -21
-1 -20 2 27 -12 -7 -17 -11
-1 -29 5 31 -13 -8 -16 -12
7 -27 10 36 -7 -5 -14 -9
7 -27 10 36 -5 -4 -13 -8
1 -32 9 35 -4 -4 -14 -9
-1 -41 5 35 -9 -13 -21 -14
1 -32 3 32 -8 -11 -19 -13
1 -28 2 33 -8 -9 -18 -12
4 -30 4 38 -7 -11 -19 -12
6 -29 2 40 -4 -11 -21 -14
5 -20 4 39 -1 -2 -13 -9
4 -31 8 45 1 -1 -12 -9
2 -36 10 48 4 -1 -12 -9
4 -30 11 49 6 2 -10 -7
5 -29 11 48 7 5 -9 -5
5 -41 9 51 3 -3 -16 -10
5 -31 7 50 5 0 -13 -6
6 -29 6 48 4 0 -14 -8
9 -31 6 50 2 -4 -17 -11
11 -28 5 54 5 -5 -19 -12
10 -18 6 52 6 4 -15 -8
7 -32 9 57 7 4 -15 -9
4 -38 9 60 9 5 -15 -9
4 -36 9 59 10 7 -14 -8
8 -31 11 61 13 12 -8 -4
12 -37 7 63 10 3 -15 -9
13 -27 4 60 11 4 -15 -7
15 -21 3 59 11 6 -13 -6
13 -26 3 62 10 3 -15 -8
11 -28 -1 60 8 -2 -18 -11
4 -25 0 57 10 5 -14 -7
3 -37 2 58 8 1 -15 -10
14 -29 7 64 13 3 -11 -7
19 -23 6 62 14 5 -11 -5
19 -23 7 61 15 8 -9 -3
15 -34 3 61 11 -2 -15 -10
15 -24 0 59 12 -1 -15 -8
17 -18 -3 55 9 0 -14 -8
19 -17 -3 56 6 -3 -17 -9
19 -16 -5 56 5 -6 -19 -11
18 -8 -3 53 6 1 -14 -6
17 -20 -2 54 6 -2 -16 -9
15 -25 -3 54 8 -4 -17 -9
15 -21 -4 51 7 -4 -15 -8
14 -24 -4 49 5 -2 -15 -7
13 -32 -9 47 -1 -11 -22 -13
9 -24 -12 44 -3 -10 -22 -12
16 -13 -13 40 -5 -10 -23 -11
19 -11 -11 42 -6 -11 -23 -10
19 -11 -15 40 -9 -15 -28 -13
20 4 -13 37 -5 -4 -21 -6
17 -9 -11 39 -6 -5 -22 -7
15 -13 -13 39 -6 -7 -23 -8
15 -10 -13 36 -4 -4 -19 -4
12 -12 -14 32 -6 -1 -18 -2
11 -22 -18 31 -12 -12 -26 -9
9 -12 -21 25 -12 -10 -25 -6
15 -1 -20 24 -11 -6 -22 -2
19 4 -19 25 -11 -6 -22 -2
15 1 -22 22 -13 -9 -24 -3
13 9 -19 18 -11 -1 -19 3
11 1 -16 20 -13 0 -18 1
9 -4 -14 21 -11 2 -17 2
9 -4 -15 19 -12 1 -18 2
11 1 -15 15 -13 2 -14 3
10 -6 -19 14 -17 -7 -15 -3
9 6 -21 8 -17 -7 -11 -1
8 8 -21 6 -18 -6 -10 0
7 5 -22 6 -20 -8 -10 -3
7 6 -24 6 -20 -11 -11 -3
5 17 -21 2 -18 -3 -5 1
3 6 -17 6 -19 -2 -5 -1
3 2 -15 7 -14 -2 -4 0
1 3 -17 4 -15 -3 -4 0
2 4 -15 2 -17 -1 -2 2
1 -8 -19 2 -21 -10 -9 -5
0 2 -21 -2 -21 -9 -7 -3
1 7 -21 -6 -22 -7 -6 -2
0 1 -22 -6 -26 -12 -10 -6
0 1 -25 -7 -27 -16 -14 -8
-1 13 -19 -8 -21 -5 -6 -1
-2 1 -15 -3 -20 -5 -7 -4
0 -2 -15 -1 -19 -5 -6 -3
-5 -1 -15 -4 -18 -4 -4 -3
-8 -1 -15 -5 -19 -3 -4 -3
-5 -11 -17 -3 -21 -11 -10 -8
-4 -3 -20 -7 -22 -11 -8 -7
-4 3 -21 -10 -23 -9 -8 -6
-4 0 -22 -9 -25 -12 -10 -8
-5 -1 -25 -10 -27 -16 -13 -11
-6 10 -21 -11 -22 -7 -6 -5
-7 -2 -18 -7 -21 -7 -7 -7
-7 -7 -18 -4 -20 -8 -6 -6
-6 -3 -16 -6 -18 -5 -3 -4
-4 1 -17 -8 -19 -4 -4 -3
-2 -9 -19 -6 -21 -14 -10 -8
-4 1 -19 -10 -21 -13 -8 -4
-5 3 -19 -13 -24 -13 -10 -4
-3 0 -20 -11 -27 -16 -13 -6
-3 -2 -23 -12 -28 -19 -15 -9
-5 9 -22 -14 -26 -10 -9 -3
-5 -1 -19 -9 -26 -10 -10 -6
-7 -6 -18 -7 -23 -11 -10 -7
-7 -3 -18 -8 -22 -9 -9 -5
-7 -1 -17 -9 -22 -7 -8 -5
-4 -9 -18 -6 -24 -15 -13 -10
-3 3 -19 -10 -23 -12 -11 -6
-5 4 -20 -11 -23 -9 -10 -5
-5 -1 -22 -10 -26 -14 -14 -9
-4 0 -23 -11 -27 -17 -16 -11
-6 11 -21 -14 -24 -10 -11 -6
-6 0 -18 -9 -24 -11 -11 -7
-9 -5 -16 -5 -21 -11 -11 -5
-10 -4 -18 -8 -21 -10 -10 -4
-9 -1 -16 -7 -21 -6 -8 -2
-6 -7 -18 -3 -24 -13 -13 -7
-6 2 -22 -8 -25 -12 -12 -3
-6 5 -23 -11 -26 -10 -10 -3
-7 0 -22 -8 -28 -13 -12 -5
0 6 -23 -7 -27 -14 -13 -6
1 18 -20 -10 -24 -7 -6 0
-4 4 -19 -7 -27 -11 -9 -6
-9 -3 -20 -5 -27 -11 -11 -7
-4 2 -18 -4 -23 -6 -8 -4
-1 4 -14 -2 -20 -3 -3 1
-1 -9 -17 -1 -24 -12 -10 -1
-1 4 -22 -6 -25 -10 -9 1
-1 10 -23 -8 -26 -8 -8 1
-3 5 -22 -5 -27 -10 -10 -1
-1 5 -24 -5 -28 -13 -13 -5
-2 19 -22 -7 -25 -4 -6 2
-4 7 -20 -4 -26 -6 -8 -2
-4 1 -19 -3 -24 -6 -8 -2
-3 3 -19 -3 -21 -4 -6 -1
-4 4 -20 -4 -21 -4 -6 1
-3 -6 -22 -3 -26 -13 -13 -6
-6 2 -24 -6 -25 -10 -11 -3
-10 3 -25 -10 -29 -11 -12 -6
-14 -4 -26 -9 -31 -14 -15 -8
-9 -2 -26 -8 -30 -16 -17 -10
3 22 -20 -6 -21 -1 -6 0
2 9 -18 -2 -21 -2 -6 -1
-6 -3 -20 -3 -23 -7 -8 -3
-3 4 -18 -4 -22 -4 -6 -2
-1 6 -17 -4 -23 -2 -5 0
2 -4 -21 -3 -26 -12 -12 -7
1 6 -22 -6 -23 -8 -9 -3
-1 11 -23 -9 -25 -8 -11 -4
-2 5 -24 -8 -26 -12 -14 -7
-1 6 -26 -7 -26 -13 -15 -9
-2 16 -22 -9 -24 -4 -9 -2
-1 7 -19 -4 -23 -4 -9 -2
-3 3 -18 -2 -22 -5 -9 -2
-4 5 -17 -3 -20 -4 -8 -1
-4 6 -17 -5 -20 -2 -7 -1
-3 -5 -22 -5 -25 -13 -16 -9
-2 5 -23 -8 -24 -9 -13 -5
-5 7 -23 -9 -26 -8 -12 -4
-7 0 -26 -9 -29 -11 -17 -7
-5 3 -28 -8 -31 -15 -19 -9
-4 15 -24 -11 -27 -6 -12 0
-4 4 -22 -8 -27 -7 -14 -3
-3 3 -20 -6 -24 -6 -12 -1
-5 3 -20 -8 -24 -5 -11 -2
-6 5 -18 -8 -26 -2 -9 -2
-1 -3 -20 -5 -27 -10 -15 -5
-6 5 -22 -11 -30 -9 -14 -5
-3 10 -22 -12 -31 -7 -13 -5
1 9 -23 -11 -33 -10 -15 -7
-2 5 -26 -10 -33 -12 -18 -8
-4 16 -23 -12 -29 -3 -11 -2
-5 3 -22 -9 -31 -5 -14 -6
-4 1 -21 -9 -30 -5 -14 -4
-6 3 -21 -9 -28 -2 -12 -1
-6 2 -21 -11 -28 -1 -11 -2
-2 -3 -23 -9 -30 -10 -18 -7
0 9 -22 -11 -29 -6 -14 -3
-2 11 -23 -13 -31 -6 -15 -3
0 5 -24 -13 -33 -10 -19 -6
-1 3 -27 -13 -34 -14 -23 -8
-3 14 -25 -15 -30 -5 -17 -2
-6 2 -23 -12 -30 -7 -19 -5
-9 -5 -23 -12 -30 -10 -21 -7
-11 -5 -22 -12 -29 -8 -20 -6
-14 -6 -21 -14 -29 -5 -18 -6
-5 -9 -21 -9 -30 -11 -22 -7
0 6 -21 -12 -29 -6 -18 -3
-5 5 -23 -15 -32 -5 -18 -4
-4 1 -23 -15 -32 -8 -22 -7
-4 0 -25 -16 -33 -12 -25 -10
-6 10 -24 -18 -31 -4 -20 -4
-6 -1 -19 -12 -30 -4 -20 -4
-5 -7 -17 -10 -28 -4 -20 -4
-5 -6 -18 -11 -29 -5 -19 -4
-7 -3 -18 -12 -29 -1 -17 -2
-9 -15 -21 -11 -31 -11 -25 -7
-10 -5 -23 -15 -30 -7 -21 -5
-7 1 -24 -16 -32 -5 -20 -4
-2 1 -23 -14 -34 -7 -21 -7
-1 3 -23 -14 -33 -8 -23 -7
-1 14 -21 -16 -31 0 -17 -3
-2 0 -19 -12 -32 -3 -18 -5
-1 -3 -18 -12 -30 -5 -19 -5
-4 -1 -17 -13 -29 -4 -17 -4
-7 0 -17 -12 -28 -1 -15 -2
-6 -11 -21 -12 -31 -12 -25 -11
-4 0 -21 -14 -27 -8 -22 -6
-2 7 -20 -16 -27 -6 -21 -5
-3 1 -21 -16 -31 -11 -25 -8
-2 0 -23 -16 -30 -14 -28 -10
-5 12 -20 -18 -26 -5 -22 -1
-6 0 -19 -16 -27 -8 -24 -6
-7 -4 -18 -15 -25 -9 -25 -7
-13 -6 -18 -16 -24 -8 -25 -7
-22 -14 -18 -19 -27 -9 -24 -9
-17 -23 -20 -18 -30 -18 -26 -15
6 9 -14 -14 -22 -9 -15 -8
8 16 -12 -13 -23 -8 -10 -5
1 4 -14 -13 -25 -11 -11 -6
-2 1 -15 -14 -26 -14 -14 -9
-4 14 -13 -16 -23 -5 -7 -3
-4 7 -9 -11 -20 -6 -5 -3
1 10 -3 -5 -15 -3 -2 0
3 14 -1 -5 -12 1 1 3
0 9 -3 -8 -14 0 0 1
1 0 -4 -6 -16 -9 -7 -4
1 10 -5 -8 -15 -3 -3 0
0 11 -7 -10 -18 -3 -4 0
2 10 -6 -8 -18 -7 -6 -3
2 14 -7 -7 -16 -8 -7 -2
2 26 -5 -7 -12 3 2 5
4 18 -2 -3 -9 3 3 4
5 15 -1 0 -7 4 4 4
5 16 -1 -1 -5 6 5 6
7 16 -2 -2 -7 9 7 7
5 3 -8 -5 -11 -2 -2 0
8 18 -8 -8 -8 2 2 5
13 31 -7 -7 -7 6 5 8
11 22 -9 -7 -10 1 1 3
9 21 -11 -7 -10 0 -1 3
5 32 -8 -9 -5 10 7 11
7 23 -7 -7 -5 10 7 9
5 17 -7 -8 -3 7 5 8
7 20 -8 -9 -3 8 5 10
10 21 -5 -7 0 14 9 11
9 8 -8 -5 -2 5 1 5
9 18 -9 -8 -1 7 2 7
9 20 -10 -9 -3 10 1 8
8 13 -9 -7 -5 6 -1 4
10 14 -12 -7 -6 2 -2 3
11 25 -13 -11 -4 11 3 11
10 9 -10 -6 -4 10 3 8
10 3 -10 -5 -2 8 4 7
8 3 -11 -11 -3 9 3 9
9 5 -8 -13 -5 9 2 8
7 -7 -11 -12 -11 -2 -6 0
6 1 -13 -18 -13 -2 -6 0
8 4 -14 -20 -15 -3 -7 -1
2 -5 -13 -20 -17 -8 -9 -4
-2 -4 -14 -19 -17 -10 -12 -5
4 17 -8 -19 -10 2 -4 3
2 3 -6 -16 -11 0 -6 0
-1 -6 -6 -17 -10 -5 -9 -4
-3 -3 -5 -17 -11 -1 -8 -3
-6 -4 -3 -18 -10 0 -7 -1
-5 -13 -3 -16 -13 -9 -13 -6
-6 -5 -4 -19 -13 -6 -11 -3
-7 -3 -7 -24 -18 -7 -12 -5
-8 -7 -8 -24 -19 -12 -14 -8
-10 -8 -11 -26 -20 -14 -17 -11
-11 3 -10 -28 -18 -6 -11 -6
-9 -8 -7 -24 -18 -8 -12 -8
-8 -11 -7 -22 -17 -8 -12 -8
-5 -3 -6 -23 -15 -6 -11 -6
-6 -3 -5 -21 -13 -2 -8 -2
-7 -13 -9 -19 -16 -12 -16 -9
-10 -5 -11 -22 -15 -11 -16 -8
-16 -13 -13 -23 -19 -13 -20 -14
-14 -24 -10 -15 -18 -16 -25 -19
4 -13 -3 -3 -11 -16 -25 -22
11 -2 6 4 -4 -7 -19 -18
5 -23 12 16 -2 -9 -27 -27
1 -29 17 26 5 -9 -29 -29
1 -22 22 31 14 0 -22 -24
5 -7 24 37 27 15 -8 -12
7 -3 24 48 37 22 1 -4
11 21 24 58 54 43 22 15
18 49 28 74 78 72 51 40
28 76 35 103 112 110 92 72
38 108 47 140 152 153 133 107
45 144 60 160 185 200 175 142
53 159 71 172 209 232 206 164
57 178 76 165 219 259 233 188
56 191 76 149 221 281 259 207
61 208 79 146 230 309 285 228
61 215 71 136 232 321 301 243
52 232 56 109 224 327 308 254
44 233 31 63 190 301 291 247
41 220 6 9 137 245 247 223
30 211 -14 -55 69 168 185 189
7 209 -15 -103 18 110 132 158
-15 175 -15 -133 -29 49 75 116
-21 144 -34 -170 -80 -8 27 82
-16 119 -75 -192 -112 -30 7 65
-13 95 -105 -198 -126 -39 -3 52
-13 67 -113 -185 -130 -52 -18 33
-15 66 -112 -173 -123 -48 -20 26
-15 60 -107 -159 -118 -46 -24 18
-12 46 -97 -141 -112 -48 -28 9
-10 32 -85 -122 -105 -50 -34 0
-10 29 -68 -109 -95 -42 -30 -2
-8 8 -59 -91 -86 -42 -34 -12
-6 -5 -49 -73 -74 -38 -35 -16
-7 -6 -37 -60 -63 -29 -29 -14
-10 -10 -22 -52 -54 -22 -25 -14
-5 -18 -14 -40 -49 -28 -28 -21
-3 -5 -8 -34 -43 -22 -23 -17
-10 -8 -2 -32 -40 -20 -23 -20
-13 -16 1 -29 -39 -23 -25 -22
-13 -14 1 -30 -40 -25 -27 -24
-13 -2 7 -31 -36 -16 -20 -17
-13 -12 19 -26 -35 -17 -19 -19
-11 -17 24 -26 -36 -19 -21 -21
-13 -15 29 -26 -36 -16 -19 -20
-15 -17 35 -24 -33 -12 -17 -18
-11 -27 37 -20 -35 -21 -23 -26
-10 -17 38 -21 -34 -18 -23 -22
-12 -15 39 -23 -36 -17 -23 -24
-11 -21 40 -20 -34 -21 -24 -26
-10 -19 41 -20 -33 -21 -25 -26
-12 -5 44 -22 -28 -11 -18 -18
-12 -14 47 -19 -27 -13 -17 -20
-10 -16 47 -19 -25 -13 -17 -20
-12 -15 47 -20 -25 -12 -17 -20
-12 -17 50 -18 -23 -9 -16 -19
-11 -26 49 -16 -26 -19 -23 -27
-10 -16 48 -16 -24 -15 -21 -24
-12 -13 50 -17 -23 -13 -20 -23
-11 -16 51 -14 -23 -15 -21 -25
-8 -13 50 -15 -24 -17 -22 -26
-7 0 52 -17 -20 -6 -13 -17
-12 -15 53 -14 -21 -9 -14 -21
-10 -17 55 -11 -19 -11 -15 -20
-8 -12 56 -11 -18 -7 -11 -18
-9 -15 58 -10 -18 -6 -11 -17
-7 -24 56 -8 -20 -16 -18 -26
-7 -16 57 -9 -17 -11 -17 -22
-8 -13 59 -7 -17 -8 -14 -21
-9 -17 59 -6 -17 -10 -15 -21
-9 -15 55 -9 -20 -14 -19 -23
-11 -2 57 -12 -18 -6 -11 -16
-10 -15 56 -10 -20 -8 -13 -20
-7 -18 55 -9 -18 -11 -13 -20
-6 -12 57 -8 -15 -5 -10 -17
-9 -15 58 -6 -16 -4 -11 -18
-14 -32 56 -4 -20 -16 -20 -28
-24 -32 52 -9 -20 -15 -21 -27
-34 -38 52 -13 -24 -15 -22 -29
-13 -21 59 -4 -17 -11 -16 -25
7 -2 64 2 -11 -7 -11 -19
2 3 65 -2 -8 3 -4 -11
-4 -12 65 0 -10 0 -6 -14
-8 -18 63 1 -10 -4 -8 -16
-8 -16 63 1 -10 -2 -6 -14
-8 -16 66 2 -10 1 -5 -14
-6 -27 61 5 -13 -9 -18 -23
-4 -17 60 3 -11 -5 -23 -20
-4 -13 60 5 -10 -4 -25 -19
-4 -15 60 6 -10 -5 -31 -21
-3 -14 59 7 -9 -6 -35 -21
-5 -2 60 3 -7 3 -31 -15
-4 -11 61 8 -7 2 -32 -17
-5 -13 62 10 -6 3 -33 -15
-6 -14 62 10 -6 4 -34 -13
-5 -14 65 12 -5 6 -35 -14
-5 -26 63 16 -8 -4 -42 -22
-4 -15 61 14 -6 -1 -43 -19
-2 -11 63 16 -5 2 -42 -19
-5 -18 64 18 -6 -1 -45 -22
-5 -18 62 17 -5 -3 -45 -23
-8 -6 65 14 -2 8 -38 -14
-5 -18 66 19 -1 8 -39 -18
-4 -19 66 23 2 8 -39 -17
-5 -15 65 22 4 10 -38 -16
-3 -14 68 24 4 12 -37 -14
-1 -24 66 28 2 3 -45 -23
-2 -16 62 25 3 5 -44 -21
2 -11 64 28 5 8 -43 -19
1 -17 66 29 6 6 -45 -21
0 -19 61 27 3 1 -50 -25
3 -2 63 26 8 12 -42 -16
3 -11 65 31 11 11 -42 -19
1 -15 67 35 16 14 -40 -16
3 -11 64 34 17 16 -39 -15
3 -12 67 37 19 19 -38 -14
5 -22 64 42 18 9 -45 -23
5 -12 62 39 18 10 -45 -20
5 -8 63 40 20 12 -43 -20
5 -13 63 43 20 10 -46 -21
4 -18 62 44 20 9 -46 -21
2 -8 63 40 22 18 -39 -14
5 -15 65 44 22 16 -40 -17
4 -20 65 46 25 16 -40 -16
4 -16 63 45 25 17 -39 -13
8 -14 65 45 25 19 -38 -12
11 -23 61 47 21 8 -46 -21
10 -11 58 45 23 12 -43 -18
16 -3 59 45 23 14 -41 -16
11 -8 59 46 23 12 -43 -18
11 -6 54 43 19 9 -46 -19
11 6 56 40 22 17 -38 -12
12 -7 55 42 20 13 -41 -15
7 -16 53 41 20 11 -44 -15
4 -13 52 39 20 11 -42 -14
13 -3 58 42 25 18 -37 -9
19 -9 55 46 21 8 -44 -15
15 -4 51 41 21 10 -44 -13
13 -2 51 38 20 11 -43 -12
11 -11 48 37 15 6 -46 -16
10 -11 45 35 12 2 -49 -17
13 6 48 32 16 12 -40 -7
16 -2 48 33 13 8 -40 -10
16 -6 45 33 14 7 -40 -9
15 -3 44 30 14 8 -41 -7
15 -4 45 29 13 8 -40 -7
17 -14 41 31 10 -1 -46 -13
15 -5 38 28 10 3 -45 -10
10 -2 36 24 8 3 -45 -9
4 -11 33 22 6 -1 -48 -13
11 -2 33 20 5 -2 -47 -12
19 23 40 21 13 13 -34 2
14 6 38 21 9 8 -36 -3
12 -1 37 20 10 7 -36 -2
12 2 35 17 9 8 -34 -1
9 3 36 16 8 9 -34 0
10 -7 33 17 6 0 -39 -5
10 4 30 13 8 3 -36 0
10 10 33 11 8 3 -33 2
11 7 33 11 7 1 -36 -1
8 6 29 7 4 -2 -38 -2
6 19 33 3 7 9 -29 8
5 10 33 5 5 7 -31 6
3 2 32 4 4 4 -32 5
3 7 32 3 6 6 -30 8
4 8 34 3 4 7 -29 7
5 -5 29 3 0 -7 -39 -2
3 5 26 -2 1 -3 -37 0
-3 6 24 -7 -1 -2 -38 -1
-5 1 25 -7 -1 -6 -39 -6
1 8 25 -7 0 -6 -39 -4
0 20 29 -10 2 3 -33 2
-3 7 31 -7 2 2 -33 1
-3 2 29 -8 0 0 -33 -1
-1 7 27 -9 -1 1 -31 1
-1 6 29 -9 -2 3 -30 0
-3 -8 27 -7 -5 -9 -39 -8
-3 2 24 -12 -5 -8 -38 -7
-4 6 25 -13 -6 -7 -37 -5
-7 -2 26 -11 -8 -11 -41 -9
-6 0 22 -13 -9 -14 -40 -10
-7 12 24 -17 -7 -6 -31 -2
-4 1 27 -12 -6 -6 -32 -4
-2 0 27 -11 -5 -7 -31 -3
-4 3 25 -13 -8 -8 -31 -3
-5 2 27 -12 -8 -7 -29 -2
-6 -12 23 -10 -11 -18 -38 -10
-6 -3 21 -14 -12 -17 -37 -7
-7 1 21 -15 -11 -15 -36 -5
-8 -6 20 -15 -14 -20 -39 -9
-9 -7 18 -16 -15 -23 -41 -11
-10 6 21 -19 -12 -12 -34 -3
-12 -5 21 -15 -13 -14 -35 -7
-10 -7 21 -14 -13 -15 -35 -7
-1 3 23 -13 -10 -11 -31 -3
-2 1 24 -12 -10 -10 -28 -2
-2 -10 21 -9 -13 -20 -36 -9
-5 -3 19 -13 -12 -17 -32 -6
-9 0 21 -14 -13 -16 -32 -6
-11 -5 21 -12 -14 -18 -35 -9
-11 -3 19 -12 -14 -21 -38 -9
-6 12 21 -15 -10 -10 -30 -1
-6 0 21 -12 -11 -11 -32 -3
-8 -6 23 -10 -10 -9 -32 -3
-8 -3 23 -10 -10 -5 -30 -2
-9 -4 24 -9 -11 -2 -29 -2
-7 -12 21 -8 -15 -11 -36 -8
-6 -1 18 -11 -16 -6 -34 -5
-7 1 19 -12 -17 -5 -33 -5
-7 -4 18 -11 -18 -9 -36 -8
-7 -4 13 -13 -19 -12 -38 -9
-8 9 15 -16 -15 -1 -31 -2
-7 -1 17 -13 -15 -2 -33 -4
-8 -8 16 -12 -16 -4 -34 -5
-12 -9 14 -15 -16 -4 -33 -5
-18 -15 15 -14 -15 -1 -33 -6
-23 -30 11 -13 -19 -12 -41 -14
-5 -2 14 -11 -14 -5 -34 -7
9 15 20 -5 -7 4 -27 0
6 8 18 -5 -10 -1 -32 -5
-2 2 12 -11 -14 -8 -36 -9
-5 11 14 -12 -11 2 -30 -1
-3 3 16 -8 -11 1 -30 -3
-3 -2 16 -8 -10 0 -29 -3
-5 -1 15 -9 -10 1 -28 -3
-4 0 17 -7 -8 6 -25 -2
-3 -11 15 -4 -11 -5 -31 -8
-3 0 12 -7 -9 -1 -27 -5
-3 4 15 -7 -9 1 -26 -4
-4 -2 13 -8 -11 -3 -29 -6
-3 0 10 -9 -11 -6 -31 -7
-3 14 13 -12 -7 4 -22 2
-4 2 14 -8 -6 2 -21 0
-4 -2 13 -8 -6 1 -21 -1
-5 2 14 -9 -6 2 -19 1
-4 1 16 -9 -7 4 -18 0
-2 -12 12 -5 -7 -6 -24 -8
-4 -2 10 -9 -6 -4 -24 -6
-6 2 10 -10 -7 -3 -22 -6
-5 -2 10 -9 -8 -5 -24 -8
-1 2 8 -9 -8 -6 -24 -9
-5 12 10 -13 -5 4 -18 -3
-6 2 12 -10 -7 1 -20 -5
-2 0 13 -8 -5 1 -19 -4
-3 2 13 -7 -3 3 -15 -1
-6 -4 14 -7 -4 3 -15 -3
-4 -17 11 -4 -7 -7 -22 -10
-7 -8 9 -9 -6 -5 -20 -8
-10 -5 8 -10 -8 -4 -20 -9
-8 -8 8 -10 -9 -8 -21 -12
-3 -4 5 -11 -9 -9 -22 -11
3 15 10 -11 -2 3 -12 0
-1 1 12 -8 -1 2 -13 -2
-2 -5 10 -9 -3 0 -15 -3
-2 -2 10 -10 -1 1 -12 -2
-5 -4 12 -10 -1 3 -12 -3
-5 -18 8 -7 -4 -9 -21 -10
-4 -5 7 -10 -3 -5 -18 -7
-4 -1 6 -12 -5 -5 -19 -7
-4 -6 5 -11 -7 -8 -21 -12
-4 -4 2 -12 -7 -11 -22 -12
-7 7 5 -15 -4 1 -14 -3
-6 -4 8 -11 -5 -1 -16 -5
-2 -4 8 -10 -4 -1 -15 -5
-2 0 8 -11 -5 0 -15 -3
-2 -2 10 -10 -4 3 -14 -3
-3 -17 7 -9 -6 -7 -22 -11
-5 -8 6 -12 -7 -6 -22 -9
-4 -2 6 -12 -7 -4 -21 -7
-3 -8 4 -12 -10 -9 -25 -12
-3 -8 3 -12 -10 -11 -25 -11
-6 4 5 -15 -6 1 -18 -3
-5 -6 9 -11 -4 1 -17 -5
-3 -9 9 -10 -5 0 -17 -5
-4 -8 8 -11 -5 -1 -18 -6
-4 -8 9 -9 -4 2 -15 -4
-1 -15 7 -9 -8 -8 -21 -11
-1 -6 4 -12 -8 -6 -20 -9
-5 -7 5 -12 -8 -6 -17 -8
-11 -19 1 -13 -12 -12 -21 -13
-17 -21 -2 -17 -16 -17 -25 -15
-10 1 2 -17 -10 -4 -14 -5
-3 -6 6 -11 -9 -3 -13 -6
1 -7 8 -8 -8 -3 -14 -4
-1 -4 4 -11 -9 -2 -13 -3
-7 -11 6 -11 -8 1 -13 -3
-9 -28 2 -10 -14 -10 -22 -13
-10 -15 0 -14 -12 -7 -20 -9
2 -1 2 -11 -10 -4 -17 -7
5 -2 3 -10 -12 -8 -19 -10
1 -5 -1 -11 -14 -10 -23 -10
-3 5 2 -14 -12 0 -16 -3
-4 -8 4 -12 -12 -1 -17 -5
-6 -15 3 -9 -12 -4 -19 -5
-5 -11 3 -9 -10 -1 -17 -3
-6 -14 5 -9 -9 2 -14 -2
-3 -25 3 -7 -13 -9 -21 -10
-1 -12 2 -9 -11 -5 -18 -5
-4 -9 3 -10 -12 -2 -17 -5
-6 -15 2 -9 -14 -7 -20 -7
-7 -12 0 -10 -16 -10 -22 -7
-10 -2 1 -14 -13 -1 -15 -1
-8 -13 3 -12 -14 -3 -17 -4
-6 -16 2 -10 -16 -5 -18 -5
-3 -9 4 -9 -12 0 -14 -1
-4 -9 7 -8 -10 3 -12 0
-5 -23 3 -6 -14 -9 -20 -8
-5 -14 1 -9 -13 -4 -17 -2
-6 -11 -1 -11 -16 -3 -18 -3
-10 -19 -1 -11 -17 -9 -21 -8
-10 -17 -3 -12 -19 -12 -22 -7
-6 2 2 -13 -14 2 -13 4
-4 -10 6 -7 -13 1 -12 1
-5 -14 5 -8 -12 -2 -13 0
-5 -12 4 -10 -14 -2 -13 0
-5 -13 6 -8 -12 2 -10 1
-3 -24 2 -6 -14 -9 -17 -6
-3 -13 -1 -9 -13 -6 -16 -3
-2 -8 0 -10 -13 -4 -16 -3
-2 -11 1 -7 -12 -7 -16 -5
-2 -7 -1 -6 -11 -8 -16 -3
-2 8 4 -8 -3 4 -7 7
-1 -2 6 -3 -3 3 -7 5
1 -5 6 -2 -1 0 -7 6
0 -1 5 -3 0 3 -5 8
-1 -3 7 -2 0 5 -4 6
1 -15 3 1 -3 -6 -11 -1
-1 -6 1 -1 -2 -2 -8 3
-4 -5 0 -3 -2 -1 -8 3
6 1 3 3 0 0 -8 4
10 6 1 4 1 -1 -8 5
7 18 4 2 5 9 0 13
7 7 6 4 5 7 -1 10
7 1 6 7 5 8 -1 10
13 6 4 7 8 10 1 12
13 7 6 6 9 14 3 13
14 0 2 9 7 5 -2 7
13 9 0 7 9 8 1 11
11 9 -1 4 7 7 1 10
10 6 -1 6 6 5 -1 8
11 10 -5 3 4 3 -2 8
9 21 -2 0 7 12 5 16
9 10 -2 0 4 7 2 12
7 2 -3 3 4 5 1 11
10 5 -4 3 9 9 4 13
13 6 0 5 11 15 7 15
14 -7 -5 9 7 4 -2 6
14 2 -6 7 9 7 2 11
12 3 -8 4 9 6 1 10
12 -2 -9 7 6 3 0 7
14 -2 -12 7 5 1 -1 6
13 7 -10 4 8 11 6 13
10 -7 -11 4 6 5 2 10
8 -13 -12 4 4 1 0 8
5 -14 -13 -1 1 -1 -1 7
4 -18 -12 -2 -1 0 -2 6
8 -25 -13 1 -3 -11 -8 0
10 -14 -12 -1 -2 -8 -7 2
5 -13 -14 -2 -3 -8 -6 1
3 -19 -14 -1 -5 -12 -9 -3
4 -18 -16 -2 -6 -13 -9 -2
1 -6 -13 -4 -3 -4 -2 6
-3 -21 -10 -2 -3 -7 -5 2
-3 -24 -8 1 -3 -9 -7 0
-4 -20 -8 -1 -2 -7 -5 3
-6 -22 -9 -2 -1 -5 -3 3
-5 -33 -11 1 -4 -16 -11 -3
-3 -21 -13 -4 -3 -13 -9 -1
-2 -18 -13 -4 -5 -12 -7 1
-2 -23 -14 -4 -7 -17 -11 -3
-4 -24 -17 -5 -8 -20 -13 -4
-8 -12 -15 -11 -7 -9 -5 2
-14 -29 -14 -9 -10 -14 -8 -2
-14 -35 -14 -8 -9 -15 -8 -2
-23 -39 -16 -11 -9 -14 -9 -2
-10 -30 -10 -4 -2 -8 -4 2
15 -23 -4 9 3 -13 -6 -1
13 -20 -6 9 5 -12 -8 -4
4 -30 -2 14 4 -14 -14 -12
5 -41 1 23 4 -20 -20 -19
8 -41 2 31 7 -22 -24 -25
7 -28 11 37 17 -10 -19 -20
4 -38 19 49 25 -7 -15 -20
7 -30 22 60 39 4 -4 -9
10 -11 25 68 54 23 13 7
14 1 31 81 72 45 33 23
22 11 30 99 90 57 49 36
33 54 35 124 123 98 88 74
44 88 48 158 164 142 132 108
56 112 59 185 194 176 164 133
65 139 65 197 218 207 194 158
66 174 72 187 232 245 230 189
67 179 75 174 232 263 251 206
69 184 75 171 238 285 274 224
73 203 71 162 244 305 296 244
73 220 65 144 243 316 308 259
66 209 40 109 214 287 288 248
57 206 11 49 164 240 251 230
38 195 -6 -15 103 174 199 201
15 176 -11 -61 49 106 139 164
-5 162 -11 -94 6 47 85 127
-17 151 -22 -134 -39 7 48 104
-14 111 -60 -155 -76 -24 21 80
-5 84 -98 -163 -91 -34 10 67
-4 68 -107 -157 -94 -37 2 55
-8 53 -101 -142 -87 -37 -3 44
-8 30 -102 -125 -84 -48 -16 29
-9 30 -96 -115 -78 -45 -19 24
-5 21 -82 -101 -71 -43 -20 18
-3 4 -71 -85 -69 -50 -29 5
0 -4 -63 -71 -62 -51 -34 -3
3 2 -52 -58 -47 -33 -25 2
3 -15 -40 -41 -39 -32 -25 -3
3 -22 -33 -30 -29 -29 -25 -4
0 -17 -26 -25 -20 -22 -22 -1
-5 -24 -20 -17 -14 -17 -19 -1
-5 -40 -18 -7 -12 -27 -26 -10
-4 -25 -16 -8 -6 -22 -23 -7
-4 -21 -14 -8 -4 -19 -21 -6
-6 -28 -15 -6 -5 -23 -24 -9
-12 -32 -21 -10 -9 -29 -29 -12
-21 -27 -19 -15 -7 -19 -23 -7
-10 -33 -13 -6 -5 -19 -21 -6
-3 -31 -11 -2 0 -18 -21 -6
-3 -27 -11 -2 2 -16 -19 -6
2 -23 -5 1 5 -11 -16 -4
6 -36 -7 6 3 -22 -23 -11
1 -27 -10 3 6 -19 -21 -9
-1 -25 -9 2 4 -17 -20 -8
-1 -29 -11 2 2 -21 -24 -12
-2 -26 -12 2 3 -23 -24 -11
-6 -16 -11 -3 8 -13 -17 -5
-6 -30 -10 1 5 -17 -20 -8
-3 -32 -8 3 9 -18 -20 -8
-2 -25 -6 4 12 -15 -18 -6
1 -26 -3 6 15 -11 -16 -5
0 -40 -5 10 12 -24 -24 -15
-4 -26 -6 8 18 -20 -20 -11
-5 -21 -5 7 18 -17 -19 -9
-3 -25 -5 11 17 -19 -20 -10
2 -21 -9 8 16 -22 -21 -11
-1 -10 -7 1 19 -12 -13 -2
-1 -23 -5 6 18 -15 -16 -6
0 -25 -5 8 19 -18 -19 -8
-1 -22 -4 9 22 -15 -16 -6
0 -24 -1 10 24 -12 -15 -6
1 -38 -4 14 21 -24 -23 -15
0 -26 -4 12 25 -20 -20 -11
1 -20 -3 11 24 -17 -19 -11
1 -24 -3 12 24 -20 -22 -13
1 -21 -6 10 22 -22 -23 -12
0 -5 -5 5 22 -13 -16 -5
1 -20 -4 9 21 -16 -19 -9
1 -25 -1 12 25 -17 -20 -10
-2 -22 -1 12 27 -14 -17 -7
-6 -29 2 15 29 -12 -15 -7
-1 -36 1 21 30 -21 -22 -14
1 -20 1 18 33 -15 -17 -9
1 -16 2 18 33 -13 -16 -8
3 -20 2 18 32 -16 -18 -11
2 -17 -2 17 30 -19 -19 -11
2 -3 0 13 31 -8 -12 -4
2 -18 1 17 30 -12 -14 -7
0 -23 1 19 35 -14 -16 -9
-1 -22 2 19 37 -12 -15 -9
-2 -27 3 20 40 -11 -14 -10
5 -35 3 28 41 -21 -20 -17
8 -19 3 26 44 -13 -16 -11
2 -21 3 24 43 -12 -14 -11
5 -23 2 25 42 -14 -17 -14
7 -19 1 25 42 -13 -16 -14
5 -4 0 18 41 -5 -12 -9
4 -17 2 23 39 -5 -8 -11
9 -15 6 29 44 -4 -2 -9
6 -14 8 31 48 -1 3 -7
1 -23 9 32 50 0 5 -8
4 -36 6 36 47 -12 -3 -18
4 -22 6 34 51 -7 2 -12
-2 -21 4 31 48 -7 3 -14
2 -25 3 33 48 -10 2 -16
10 -15 4 34 50 -6 6 -12
17 4 8 34 55 8 17 -1
15 -12 9 38 50 4 15 -6
10 -21 9 39 48 4 15 -6
13 -13 10 41 48 7 19 -3
16 -14 13 45 49 10 20 -3
14 -31 9 47 44 -2 12 -12
14 -18 8 47 47 3 15 -8
14 -13 10 48 47 7 19 -6
13 -20 10 50 44 3 17 -8
12 -19 7 49 42 2 14 -9
9 -4 10 46 47 14 23 1
12 -19 10 49 43 9 21 -4
16 -21 11 52 46 9 21 -3
14 -16 12 54 49 14 22 -1
15 -20 16 57 50 15 23 -2
17 -30 14 60 46 2 14 -10
15 -18 12 58 49 5 15 -8
17 -13 14 59 51 8 18 -6
18 -18 13 60 49 6 16 -8
18 -15 11 58 50 4 15 -8
18 0 13 55 54 16 24 2
17 -14 17 58 49 11 22 -2
18 -19 16 59 47 9 19 -3
16 -13 16 60 49 12 21 -1
14 -18 16 59 49 13 20 -2
21 -26 14 65 46 2 12 -9
24 -9 13 63 50 8 17 -3
24 -6 12 61 48 8 18 -3
23 -12 11 62 44 4 15 -4
19 -11 7 58 41 1 12 -5
18 2 8 52 41 11 20 3
18 -12 9 55 38 6 19 -2
20 -16 10 56 38 5 18 -1
23 -5 11 55 40 9 21 2
23 -8 13 54 38 10 22 2
23 -22 9 57 33 -3 14 -7
23 -9 8 53 34 2 18 -1
20 -7 5 47 31 1 19 -1
18 -15 1 45 25 -5 13 -5
20 -10 -1 45 25 -6 13 -3
21 4 1 40 27 6 23 5
15 -14 1 41 23 1 19 1
22 -7 2 43 25 1 18 4
27 2 5 44 29 6 23 8
24 -5 4 42 26 6 20 6
22 -18 -3 43 19 -8 11 -1
24 -2 -4 38 23 -1 15 6
25 6 -1 38 25 3 20 10
22 -2 -2 37 20 -1 16 7
22 3 -6 34 19 -3 16 8
20 16 -5 27 22 8 24 13
21 3 -3 31 20 5 23 11
21 -1 -2 30 22 6 22 11
18 1 -2 28 24 7 24 12
16 -1 -1 28 25 8 24 12
18 -10 -6 30 21 -3 16 4
17 3 -7 25 24 1 18 9
16 6 -6 22 22 2 20 10
17 3 -7 22 19 -2 17 8
18 13 -10 19 19 -4 16 9
18 29 -5 15 23 8 26 19
15 13 -3 17 19 4 24 15
14 6 -4 18 19 1 19 12
13 9 -3 16 22 5 22 15
11 6 -2 16 21 5 20 13
10 -8 -5 19 17 -6 11 5
6 3 -6 14 22 -2 14 9
1 3 -8 9 20 -2 14 7
0 -3 -10 10 17 -6 9 4
1 2 -13 7 17 -6 10 4
8 25 -6 7 23 9 20 13
13 16 -2 10 21 7 20 12
8 5 -6 8 18 2 13 8
6 8 -6 7 18 4 14 10
3 3 -4 9 19 6 15 10
2 -13 -8 12 14 -5 5 2
3 0 -9 8 15 -2 6 5
4 8 -9 6 14 1 9 5
5 4 -10 7 12 -3 7 4
7 7 -15 4 11 -6 5 4
0 16 -14 -1 12 4 11 11
-4 -1 -13 1 10 2 8 7
-1 -4 -11 3 10 -1 6 7
7 9 -8 5 14 4 10 11
4 5 -6 6 15 6 10 10
0 -12 -11 8 11 -8 2 1
-3 -2 -14 4 12 -6 2 3
0 5 -12 2 12 -3 6 4
3 1 -13 4 9 -7 4 2
5 6 -17 1 6 -10 2 2
2 18 -13 -3 10 3 11 11
2 4 -11 2 9 0 9 9
3 1 -11 3 10 -1 9 8
1 5 -9 3 13 3 12 12
2 1 -6 3 13 4 12 10
3 -11 -8 8 11 -7 5 3
2 1 -10 4 11 -5 6 4
3 6 -10 1 9 -3 7 4
3 0 -12 2 7 -6 4 1
