I II V1 V2 V3 V4 V5 V6
-5 -9 4 31 -18 -23 -19 3
-5 -9 4 31 -18 -23 -19 3
-5 -9 4 31 -18 -23 -19 2
-5 -9 4 31 -18 -23 -19 2
-5 -9 4 31 -18 -23 -19 1
-5 -9 4 31 -18 -23 -19 1
-5 -9 5 31 -17 -23 -18 0
-5 -9 5 30 -17 -23 -18 0
-5 -9 5 29 -17 -23 -19 0
-5 -9 5 28 -17 -23 -19 0
-5 -9 5 28 -17 -23 -19 0
-6 -9 4 27 -18 -23 -20 1
-6 -9 4 27 -18 -23 -20 1
-6 -9 5 27 -18 -23 -20 1
-6 -9 5 27 -18 -23 -20 1
-6 -9 5 27 -18 -23 -20 1
-5 -8 6 27 -17 -22 -19 0
-5 -8 6 27 -17 -22 -19 0
-5 -8 6 27 -17 -22 -19 0
-5 -8 6 27 -17 -22 -19 0
-5 -8 6 27 -17 -22 -19 0
-6 -7 5 26 -18 -23 -18 0
-6 -7 5 26 -18 -23 -18 0
-6 -7 5 25 -18 -23 -19 0
-6 -7 5 25 -18 -23 -19 0
-6 -7 5 25 -18 -23 -19 0
-5 -8 5 24 -17 -22 -20 -2
-5 -8 5 24 -17 -22 -20 -2
-5 -8 5 24 -17 -22 -20 -2
-5 -8 5 24 -17 -22 -20 -2
-5 -8 5 24 -17 -22 -20 -2
-5 -7 5 23 -18 -22 -20 -3
-5 -7 5 23 -18 -22 -20 -3
-5 -7 5 22 -18 -22 -20 -4
-5 -7 5 22 -18 -22 -20 -4
-5 -7 5 22 -18 -22 -20 -4
-6 -8 4 21 -18 -22 -20 -5
-6 -7 4 21 -18 -22 -20 -5
-6 -7 4 21 -18 -22 -20 -5
-6 -6 4 21 -18 -22 -20 -5
-6 -6 4 21 -18 -22 -20 -5
-5 -5 4 20 -18 -22 -19 -5
-5 -5 4 20 -18 -22 -19 -5
-5 -5 4 19 -18 -22 -19 -5
-5 -5 4 19 -18 -22 -19 -5
-5 -5 4 19 -18 -22 -19 -5
-6 -6 4 18 -17 -21 -19 -5
-6 -6 4 18 -17 -21 -19 -5
-6 -6 4 18 -18 -21 -19 -6
-6 -6 4 18 -18 -21 -19 -6
-6 -6 4 18 -18 -21 -19 -6
-6 -5 5 18 -19 -21 -19 -7
-6 -5 5 18 -19 -21 -19 -7
-6 -5 5 18 -19 -21 -19 -8
-6 -5 5 18 -19 -21 -19 -8
-6 -5 5 18 -19 -21 -19 -8
-5 -4 5 17 -19 -22 -19 -9
-5 -4 5 17 -19 -22 -19 -9
-5 -4 4 16 -19 -22 -19 -9
-5 -4 4 16 -19 -22 -19 -9
-5 -4 4 16 -19 -22 -19 -9
-5 -5 3 15 -18 -21 -19 -8
-5 -5 3 15 -18 -21 -19 -8
-5 -5 3 15 -18 -21 -19 -8
-5 -5 3 15 -18 -21 -19 -8
-5 -5 3 15 -18 -21 -19 -8
-5 -6 4 14 -18 -21 -18 -9
-5 -6 4 14 -18 -21 -18 -9
-5 -6 4 14 -18 -21 -18 -9
-5 -6 4 14 -18 -21 -18 -9
-5 -6 4 14 -18 -21 -18 -9
-6 -5 4 13 -18 -20 -18 -9
-6 -5 4 13 -18 -20 -18 -9
-6 -5 4 13 -18 -20 -18 -9
-6 -5 4 13 -18 -20 -18 -9
-6 -5 4 13 -18 -20 -18 -9
-6 -5 5 12 -17 -20 -18 -9
-6 -5 5 11 -17 -20 -18 -9
-6 -5 5 11 -17 -20 -18 -10
-6 -5 5 10 -17 -20 -18 -10
-6 -5 5 10 -17 -20 -18 -10
-6 -4 4 9 -18 -21 -18 -11
-6 -4 4 9 -18 -21 -18 -11
-6 -4 4 9 -18 -21 -18 -11
-6 -4 4 9 -18 -21 -18 -11
-6 -4 4 9 -18 -21 -18 -11
-5 -4 5 8 -17 -21 -18 -12
-5 -4 5 8 -17 -21 -18 -12
-5 -4 5 8 -17 -21 -18 -12
-5 -4 5 8 -17 -21 -18 -12
-5 -4 5 8 -17 -21 -18 -12
-6 -5 5 7 -18 -20 -18 -12
-6 -5 5 7 -18 -20 -18 -12
-6 -5 5 7 -18 -20 -18 -13
-6 -5 5 7 -18 -20 -18 -13
-6 -5 5 7 -18 -20 -18 -13
-6 -5 4 7 -17 -20 -18 -14
-6 -5 4 6 -17 -20 -18 -14
-6 -4 4 6 -17 -20 -18 -14
-6 -4 4 5 -17 -20 -18 -14
-6 -4 4 5 -17 -20 -18 -14
-6 -3 4 4 -17 -21 -17 -14
-6 -3 4 4 -17 -21 -17 -14
-6 -3 4 4 -17 -21 -17 -14
-6 -3 4 4 -17 -21 -17 -14
-6 -3 4 4 -17 -21 -17 -14
-6 0 4 5 -16 -20 -17 -14
-5 1 5 5 -15 -20 -17 -14
-5 2 6 6 -15 -19 -17 -14
-4 3 7 6 -14 -19 -17 -14
-4 4 7 6 -14 -19 -17 -14
-3 6 8 7 -13 -18 -16 -14
-3 8 9 7 -12 -17 -15 -13
-3 9 10 8 -11 -16 -14 -13
-3 11 11 8 -10 -15 -13 -12
-3 12 11 8 -9 -15 -13 -12
-3 13 12 9 -8 -14 -12 -11
-3 13 12 9 -8 -14 -11 -10
-3 14 13 10 -7 -14 -11 -10
-3 14 13 10 -7 -14 -10 -9
-3 14 13 10 -7 -14 -10 -9
-3 16 14 11 -6 -13 -9 -8
-3 18 15 12 -5 -12 -8 -8
-3 20 16 13 -4 -11 -7 -7
-3 22 17 14 -3 -10 -6 -7
-3 24 18 14 -2 -9 -6 -7
-2 26 18 15 1 -7 -4 -5
-2 28 16 15 2 -5 -2 -4
-2 29 14 14 3 -4 0 -2
-2 31 12 14 4 -2 2 0
-2 32 10 14 5 0 3 1
0 33 7 11 5 0 3 2
0 32 5 8 3 -2 2 1
0 32 2 5 1 -4 1 0
0 31 -2 3 -2 -5 0 -2
0 31 -4 0 -3 -6 -2 -3
1 28 -5 -2 -4 -7 -3 -4
1 26 -4 -2 -4 -8 -4 -5
1 23 -4 -2 -5 -8 -4 -5
1 20 -3 -2 -5 -9 -5 -6
1 18 -3 -2 -5 -9 -5 -6
2 16 -2 -2 -6 -11 -7 -8
2 13 0 -3 -7 -12 -8 -10
1 11 0 -3 -8 -13 -10 -12
1 9 1 -4 -9 -14 -11 -13
1 7 1 -4 -10 -15 -12 -15
0 5 2 -5 -11 -16 -13 -16
-2 3 2 -6 -12 -17 -14 -17
-3 2 2 -7 -13 -18 -15 -18
-4 0 2 -8 -14 -19 -16 -19
-4 -2 2 -8 -15 -19 -17 -20
-5 -3 3 -9 -16 -20 -18 -21
-5 -3 3 -10 -16 -20 -18 -21
-5 -3 3 -11 -17 -20 -18 -21
-5 -3 3 -12 -17 -20 -18 -21
-5 -3 3 -12 -17 -20 -18 -21
-5 -4 2 -13 -18 -21 -19 -22
-5 -4 2 -13 -18 -21 -19 -22
-5 -4 2 -13 -18 -21 -19 -22
-5 -4 2 -13 -18 -21 -19 -22
-5 -4 2 -13 -18 -21 -19 -22
-6 -4 1 -14 -18 -22 -19 -23
-6 -4 1 -14 -18 -22 -19 -23
-6 -4 1 -15 -18 -22 -19 -23
-6 -4 1 -15 -18 -22 -19 -23
-6 -4 1 -15 -18 -22 -19 -23
-5 -4 0 -16 -17 -22 -20 -24
-5 -4 0 -16 -17 -22 -20 -24
-5 -4 0 -16 -17 -22 -20 -24
-5 -4 0 -16 -17 -22 -20 -24
-5 -4 0 -16 -17 -22 -20 -24
-6 -4 1 -16 -16 -22 -19 -24
-6 -5 1 -14 -15 -21 -19 -24
-6 -5 2 -12 -14 -21 -19 -25
-6 -6 2 -11 -13 -20 -19 -25
-6 -6 2 -9 -12 -20 -19 -25
-3 -6 8 8 -2 -15 -18 -25
1 -5 14 25 10 -10 -15 -24
4 -3 20 44 20 -5 -13 -23
7 0 26 61 31 2 -11 -22
10 1 33 79 43 7 -9 -21
15 10 37 89 59 21 5 -10
20 19 40 96 76 36 21 4
25 28 45 104 93 53 36 16
31 38 48 111 110 69 52 29
36 48 52 118 128 85 67 43
37 74 38 70 131 111 100 75
38 103 20 12 132 139 137 113
39 133 2 -48 132 168 173 150
40 162 -16 -106 133 195 209 188
40 191 -34 -165 133 223 244 225
33 181 -52 -199 122 220 241 222
23 161 -70 -228 109 210 229 210
12 142 -89 -257 97 200 217 197
2 122 -106 -286 84 190 205 185
-9 103 -124 -315 70 180 193 173
-21 85 -126 -321 24 128 142 131
-34 65 -121 -323 -28 66 82 82
-47 47 -118 -325 -80 6 23 35
-60 27 -114 -326 -133 -55 -36 -13
-72 8 -111 -328 -184 -115 -96 -61
-67 4 -100 -294 -173 -113 -96 -64
-57 3 -88 -251 -148 -99 -82 -58
-48 1 -74 -207 -123 -83 -70 -52
-37 -2 -62 -164 -99 -68 -57 -46
-27 -3 -50 -120 -73 -54 -45 -39
-22 -4 -39 -100 -61 -46 -37 -36
-19 -4 -31 -82 -51 -39 -32 -33
-15 -4 -23 -66 -40 -32 -27 -31
-11 -4 -14 -50 -30 -26 -22 -28
-7 -4 -6 -32 -20 -20 -17 -25
-6 -4 -4 -28 -18 -18 -16 -24
-6 -5 -3 -26 -17 -18 -16 -24
-6 -6 -2 -24 -16 -18 -16 -24
-6 -7 0 -22 -15 -18 -16 -24
-6 -7 0 -20 -14 -18 -16 -24
-5 -8 1 -19 -13 -17 -17 -24
-5 -8 1 -18 -13 -17 -17 -24
-4 -8 2 -18 -13 -16 -17 -24
-4 -8 2 -17 -13 -16 -17 -24
-4 -8 2 -17 -13 -16 -17 -24
-3 -8 3 -16 -12 -15 -16 -24
-3 -8 3 -15 -11 -14 -16 -24
-3 -8 4 -15 -10 -14 -15 -23
-3 -8 4 -14 -8 -13 -15 -23
-3 -8 4 -14 -7 -13 -15 -23
-2 -7 5 -13 -6 -12 -14 -22
-2 -7 5 -13 -6 -12 -14 -21
-2 -7 5 -13 -6 -12 -14 -21
-2 -7 5 -13 -6 -12 -14 -20
-2 -7 5 -13 -6 -12 -14 -20
0 -6 5 -12 -7 -11 -13 -19
0 -6 5 -12 -5 -10 -12 -19
0 -6 5 -12 -4 -9 -12 -19
0 -6 5 -12 -3 -8 -11 -19
0 -6 5 -12 -2 -8 -11 -19
0 -6 6 -13 0 -7 -10 -19
0 -6 6 -13 0 -7 -10 -19
1 -5 6 -13 0 -6 -9 -18
1 -5 6 -13 0 -6 -9 -18
1 -5 6 -13 0 -6 -9 -18
2 -4 5 -12 1 -5 -8 -17
2 -3 5 -12 2 -4 -7 -17
2 -3 5 -12 3 -3 -7 -17
2 -2 5 -12 4 -2 -6 -17
2 -2 5 -12 4 -2 -6 -17
3 0 5 -12 5 0 -5 -16
3 1 5 -12 5 0 -4 -16
4 2 4 -11 5 0 -4 -15
4 3 4 -11 5 0 -3 -15
4 3 4 -11 5 0 -3 -15
5 4 3 -10 5 1 -2 -14
5 4 3 -10 6 2 0 -13
5 3 3 -9 7 3 0 -12
5 3 3 -9 9 4 1 -11
5 3 3 -9 10 5 1 -11
5 2 4 -8 11 6 2 -10
6 3 4 -8 11 7 3 -9
6 3 4 -7 12 8 4 -9
7 4 4 -7 12 9 5 -8
7 4 4 -7 12 9 6 -8
8 5 3 -6 13 10 7 -7
8 7 3 -6 15 11 8 -6
9 8 3 -5 16 12 9 -5
9 9 3 -5 17 13 10 -4
9 10 3 -5 18 13 11 -3
10 11 2 -3 19 15 13 0
10 11 2 -2 21 16 14 1
11 11 2 0 22 18 15 3
11 11 2 2 23 20 17 5
11 11 2 3 24 21 18 6
12 10 2 4 26 22 19 7
13 12 2 5 27 24 21 8
14 13 2 6 28 25 22 9
15 14 2 7 30 26 23 10
15 15 2 8 31 27 24 11
16 16 1 10 32 29 26 13
17 17 1 11 33 30 27 14
17 17 0 12 34 31 29 16
18 18 0 14 35 33 31 18
18 18 0 15 36 34 32 19
19 19 -2 16 38 36 34 20
20 20 -2 17 39 37 35 22
20 21 -2 18 40 38 37 23
21 22 -2 19 43 40 39 24
21 23 -2 20 44 42 40 25
22 24 -3 21 45 43 42 26
23 25 -4 22 46 44 43 27
23 25 -4 23 46 45 44 28
24 26 -5 24 47 46 45 29
24 26 -5 24 47 46 46 30
25 27 -6 25 48 47 47 31
25 28 -6 25 49 48 48 32
26 29 -7 25 49 48 49 33
26 30 -7 25 50 49 50 34
26 31 -7 25 50 49 50 34
27 32 -8 25 51 50 51 35
27 32 -8 25 50 50 51 35
27 32 -8 24 49 50 51 35
27 32 -8 24 48 50 51 35
27 32 -8 24 48 50 51 35
26 32 -8 23 47 50 52 35
26 32 -8 21 47 50 52 35
26 33 -9 20 46 50 52 35
26 33 -9 19 46 50 52 35
26 33 -9 18 46 50 52 35
26 34 -10 17 44 50 51 36
26 35 -10 15 43 49 51 36
26 35 -10 14 42 48 50 35
26 36 -10 13 39 47 50 35
26 36 -10 12 38 46 50 35
25 37 -10 11 37 45 49 34
24 36 -10 9 37 45 48 34
23 35 -10 8 36 45 48 34
23 35 -10 7 36 45 47 34
22 34 -10 6 36 45 47 34
21 33 -9 4 35 44 46 34
21 33 -9 3 33 43 45 33
21 33 -9 2 32 42 44 32
21 33 -9 0 31 40 44 32
21 33 -9 -2 30 39 43 31
20 32 -8 -4 29 38 40 29
18 31 -8 -6 28 37 39 28
17 30 -7 -8 28 36 37 26
16 30 -7 -10 27 35 36 25
15 29 -7 -12 27 34 34 23
14 28 -6 -14 25 32 32 21
13 27 -6 -16 24 30 30 19
12 26 -5 -19 22 29 29 17
12 26 -5 -21 21 27 27 15
11 25 -5 -23 19 25 25 13
10 23 -4 -25 18 24 23 12
9 22 -4 -26 17 22 22 10
8 21 -3 -28 17 21 20 9
8 19 -3 -29 16 20 19 8
7 18 -3 -31 16 19 17 7
6 17 -2 -33 14 17 15 5
5 15 -2 -34 13 16 14 4
4 14 -2 -35 11 14 13 3
4 13 -2 -37 10 13 11 1
3 12 -2 -38 8 11 10 0
2 11 0 -40 7 10 9 -2
2 10 0 -41 6 8 7 -3
1 9 0 -44 6 7 6 -4
1 9 0 -45 5 6 5 -5
1 8 0 -47 5 5 4 -6
0 7 1 -48 4 4 3 -7
0 7 1 -48 3 4 3 -7
-2 6 2 -49 2 3 2 -8
-2 6 2 -49 2 3 2 -8
-2 6 2 -49 1 3 2 -8
-3 5 3 -50 0 2 1 -9
-3 5 3 -51 0 2 0 -10
-3 4 3 -51 0 1 0 -10
-3 4 3 -52 0 1 -2 -11
-3 4 3 -52 0 1 -2 -11
-4 3 2 -53 -2 0 -3 -12
-4 3 2 -53 -2 0 -3 -12
-4 3 2 -53 -2 0 -3 -12
-4 3 2 -53 -2 0 -3 -12
-4 3 2 -53 -2 0 -3 -12
-5 2 2 -52 -3 -2 -4 -12
-5 2 2 -52 -2 -2 -4 -12
-5 2 2 -52 -2 -2 -4 -12
-5 2 2 -52 0 -2 -4 -12
-5 2 2 -52 0 -2 -4 -12
-5 1 3 -53 1 0 -4 -12
-5 1 3 -53 1 0 -4 -12
-5 1 3 -52 0 0 -4 -13
-5 1 3 -52 0 0 -4 -13
-5 1 3 -52 0 0 -4 -13
-5 0 3 -51 -2 -2 -5 -14
-5 0 3 -52 -2 -2 -5 -14
-5 1 2 -52 -2 -2 -5 -14
-5 1 2 -53 -2 -2 -5 -14
-5 1 2 -53 -2 -2 -5 -14
-5 2 1 -54 0 -3 -5 -15
-5 2 2 -53 0 -2 -5 -14
-5 2 2 -53 1 0 -4 -14
-5 2 3 -52 1 0 -4 -13
-5 2 3 -52 1 1 -4 -13
-5 1 4 -51 2 2 -3 -12
-5 1 4 -51 2 2 -3 -12
-5 1 4 -52 2 2 -3 -12
-5 1 4 -52 2 2 -3 -12
-5 1 4 -52 2 2 -3 -12
-5 1 3 -53 3 1 -3 -13
-5 1 3 -53 3 1 -3 -13
-5 1 3 -53 2 0 -3 -13
-5 1 3 -53 2 0 -3 -13
-5 1 3 -53 2 0 -3 -13
-4 2 4 -53 1 -2 -4 -14
-4 2 4 -53 1 -2 -4 -14
-4 2 4 -53 1 -2 -4 -14
-4 2 4 -53 1 -2 -4 -14
-4 2 4 -53 1 -2 -4 -14
-5 3 3 -54 1 -2 -4 -13
-5 3 3 -54 1 -2 -4 -13
-4 3 3 -54 1 -2 -4 -13
-4 3 3 -54 1 -2 -4 -13
-4 3 3 -54 1 -2 -4 -13
-3 4 4 -55 1 0 -4 -13
-3 4 4 -55 1 0 -4 -13
-3 3 4 -56 1 0 -4 -12
-3 3 4 -56 1 0 -4 -12
-3 3 4 -56 1 0 -4 -12
-4 2 5 -57 0 1 -3 -11
-4 2 5 -57 0 0 -3 -12
-4 2 5 -58 0 -2 -4 -12
-4 2 5 -58 0 -2 -4 -13
-4 2 5 -58 0 -3 -4 -13
-4 3 5 -59 -2 -4 -5 -14
-4 3 5 -59 -2 -4 -5 -14
-4 3 5 -59 -2 -4 -5 -14
-4 3 5 -59 -2 -4 -5 -14
-4 3 5 -59 -2 -4 -5 -14
-4 3 5 -60 -2 -4 -4 -13
-4 3 5 -60 -2 -4 -4 -13
-4 3 5 -61 -3 -4 -4 -13
-4 3 5 -61 -4 -4 -4 -13
-4 3 5 -61 -4 -4 -4 -13
-4 2 6 -62 -5 -5 -5 -13
-4 2 6 -63 -5 -5 -5 -13
-4 2 6 -64 -5 -5 -5 -13
-4 2 6 -64 -5 -5 -5 -13
-4 2 6 -65 -5 -5 -5 -13
-4 1 5 -66 -5 -6 -5 -13
-4 1 5 -66 -6 -7 -5 -13
-4 1 5 -66 -7 -8 -6 -13
-4 1 5 -66 -7 -8 -6 -13
-4 1 5 -66 -8 -9 -6 -13
-3 1 6 -67 -9 -10 -7 -14
-3 1 6 -68 -9 -10 -7 -14
-3 1 6 -69 -9 -10 -7 -14
-3 1 6 -70 -9 -10 -7 -14
-3 1 6 -71 -9 -10 -7 -14
-4 0 5 -72 -9 -11 -8 -14
-4 0 5 -72 -9 -11 -8 -14
-4 0 5 -72 -9 -11 -8 -14
-4 0 5 -72 -9 -11 -8 -14
-4 0 5 -72 -9 -11 -8 -14
-4 0 5 -73 -10 -11 -8 -14
-4 0 5 -73 -10 -11 -8 -14
-4 -2 5 -74 -10 -11 -8 -14
-4 -2 5 -74 -10 -11 -8 -14
-4 -2 5 -74 -10 -11 -8 -14
-5 -3 5 -75 -10 -11 -9 -14
-5 -3 5 -75 -10 -11 -9 -14
-5 -3 5 -76 -11 -12 -10 -14
-5 -3 5 -77 -11 -13 -10 -14
-5 -3 5 -77 -11 -13 -10 -14
-4 -2 4 -77 -12 -14 -11 -15
-4 -2 4 -76 -12 -14 -11 -15
-4 -2 4 -74 -11 -13 -11 -14
-4 -2 4 -73 -11 -12 -11 -14
-4 -2 4 -71 -11 -12 -11 -14
-4 -3 3 -70 -10 -11 -11 -13
-4 -3 3 -68 -10 -11 -11 -13
-4 -3 3 -67 -10 -11 -10 -13
-4 -3 3 -65 -10 -11 -10 -13
-4 -3 3 -64 -10 -11 -10 -13
-5 -3 4 -63 -10 -10 -9 -12
-5 -3 4 -63 -10 -10 -9 -12
-5 -3 4 -62 -10 -10 -10 -13
-5 -3 4 -61 -10 -10 -10 -14
-5 -3 4 -61 -10 -10 -10 -14
-5 -4 3 -59 -11 -11 -11 -15
-5 -4 3 -58 -11 -11 -11 -15
-5 -4 3 -56 -11 -11 -11 -15
-5 -4 3 -55 -11 -11 -11 -15
-5 -4 3 -53 -11 -11 -11 -15
-4 -4 4 -52 -11 -11 -10 -14
-4 -4 4 -51 -11 -12 -11 -14
-4 -4 3 -50 -12 -13 -12 -15
-4 -4 3 -50 -12 -13 -12 -16
-4 -4 3 -49 -12 -14 -13 -16
-5 -4 2 -48 -13 -15 -14 -17
-5 -4 2 -46 -13 -15 -14 -17
-5 -3 2 -45 -13 -15 -14 -17
-5 -3 2 -43 -13 -15 -14 -17
-5 -3 2 -41 -13 -15 -14 -17
-4 -2 2 -39 -12 -15 -14 -16
-4 0 3 -37 -11 -14 -13 -15
-3 1 4 -35 -10 -12 -11 -13
-3 2 5 -33 -9 -11 -10 -12
-3 3 6 -31 -8 -10 -9 -11
-2 4 7 -30 -7 -9 -8 -10
-2 5 7 -28 -6 -8 -8 -10
-2 7 8 -26 -5 -7 -7 -10
-2 8 8 -25 -5 -6 -6 -10
-2 9 8 -23 -4 -5 -6 -10
-2 10 9 -22 -3 -4 -5 -9
-2 10 9 -20 -3 -4 -5 -9
-3 11 10 -18 -2 -4 -5 -8
-3 11 11 -17 -2 -4 -5 -8
-3 11 11 -15 -2 -4 -5 -8
-4 13 12 -13 0 -3 -4 -7
-4 16 12 -11 1 0 -3 -5
-3 18 13 -9 3 1 -2 -4
-2 21 13 -7 4 3 0 -2
-2 23 13 -4 5 4 1 0
0 25 13 -3 6 5 2 1
0 26 10 -3 6 6 3 3
1 27 7 -3 7 7 5 4
2 28 4 -3 7 8 6 6
2 29 2 -3 7 9 7 7
3 29 0 -2 7 9 8 8
3 26 -3 -2 5 7 6 6
3 24 -4 -3 3 5 4 4
3 21 -6 -3 1 3 3 3
3 19 -7 -3 -3 0 1 1
2 17 -8 -4 -4 -2 0 0
2 15 -7 -4 -4 -2 -2 -2
2 14 -6 -4 -4 -3 -3 -3
2 12 -6 -4 -4 -3 -3 -3
2 11 -5 -4 -4 -3 -4 -4
2 9 -4 -5 -4 -4 -5 -5
2 6 -4 -5 -5 -5 -6 -6
1 3 -3 -6 -6 -6 -7 -8
0 0 -3 -7 -7 -6 -8 -9
0 -4 -3 -7 -8 -7 -9 -10
-2 -6 -2 -8 -9 -8 -10 -11
-2 -7 -2 -9 -10 -10 -11 -12
-3 -8 -2 -11 -12 -11 -13 -13
-4 -8 -2 -12 -13 -13 -14 -13
-4 -9 -2 -13 -14 -14 -15 -14
-5 -10 0 -14 -15 -15 -16 -15
-5 -10 0 -14 -15 -15 -16 -15
-5 -10 0 -14 -15 -15 -16 -15
-5 -10 0 -14 -15 -15 -16 -15
-5 -10 0 -14 -15 -15 -16 -15
-5 -11 0 -15 -15 -15 -16 -16
-5 -11 0 -15 -15 -15 -16 -16
-5 -11 -2 -16 -15 -16 -17 -16
-5 -11 -3 -17 -15 -16 -18 -16
-5 -11 -3 -17 -15 -16 -18 -16
-5 -12 -4 -18 -16 -17 -19 -16
-5 -12 -4 -18 -16 -17 -19 -16
-5 -11 -3 -18 -16 -16 -18 -16
-5 -11 -3 -18 -16 -16 -18 -16
-5 -11 -3 -18 -16 -16 -18 -16
-4 -10 -2 -18 -15 -15 -17 -15
-4 -10 -2 -18 -15 -15 -17 -15
-4 -10 -3 -19 -15 -16 -18 -15
-4 -10 -3 -19 -15 -16 -18 -15
-4 -10 -3 -19 -15 -16 -18 -15
-5 -11 -4 -20 -16 -17 -19 -16
-5 -11 -3 -18 -15 -17 -19 -16
-5 -11 -2 -17 -14 -16 -19 -16
-5 -11 -2 -16 -13 -16 -19 -16
-5 -11 0 -14 -12 -16 -19 -16
-4 -12 3 -5 -6 -14 -19 -17
0 -12 8 11 4 -10 -17 -17
2 -12 13 27 13 -7 -15 -17
5 -12 18 43 22 -3 -14 -17
7 -12 23 59 31 1 -12 -17
11 -7 28 73 46 10 -5 -13
17 1 32 86 63 25 9 -2
22 9 36 99 80 39 21 10
27 17 40 112 98 54 34 20
32 24 45 126 115 68 47 31
35 43 39 103 123 91 72 57
37 71 24 50 126 120 109 95
38 99 10 -4 128 150 146 133
39 127 -5 -56 130 180 183 171
42 154 -19 -109 132 209 220 209
38 164 -34 -151 132 223 235 224
29 159 -50 -184 130 222 231 218
21 153 -65 -217 128 220 227 213
12 147 -80 -251 126 219 223 207
3 141 -96 -283 123 218 218 202
-10 123 -104 -304 87 178 180 171
-25 95 -107 -314 20 105 112 117
-40 67 -109 -323 -48 32 46 64
-56 38 -112 -333 -114 -41 -22 11
-72 11 -114 -344 -181 -114 -89 -43
-74 -3 -111 -326 -199 -139 -113 -65
-64 -3 -100 -284 -175 -121 -100 -58
-55 -4 -89 -241 -150 -103 -86 -51
-45 -5 -77 -198 -126 -86 -71 -44
-34 -5 -66 -156 -101 -68 -58 -37
-27 -6 -55 -123 -81 -55 -48 -32
-22 -7 -45 -101 -67 -47 -40 -28
-18 -8 -34 -77 -54 -38 -34 -24
-13 -8 -23 -55 -39 -30 -27 -21
-9 -9 -13 -31 -25 -21 -21 -17
-6 -10 -8 -18 -18 -17 -17 -15
-6 -10 -6 -14 -16 -16 -17 -15
-5 -11 -5 -10 -15 -15 -17 -14
-5 -11 -4 -6 -14 -15 -17 -14
-5 -11 -2 0 -12 -14 -17 -14
-4 -12 0 3 -11 -13 -16 -13
-4 -12 0 6 -11 -13 -16 -13
-3 -12 0 9 -10 -13 -16 -13
-2 -12 0 11 -10 -13 -16 -13
-2 -12 0 14 -10 -13 -16 -13
0 -12 1 16 -9 -13 -16 -13
0 -12 1 18 -9 -13 -16 -13
0 -12 2 20 -8 -13 -15 -12
0 -12 3 22 -7 -13 -15 -12
0 -12 3 24 -7 -13 -15 -12
1 -13 4 25 -6 -12 -14 -11
1 -13 4 27 -6 -11 -14 -11
2 -13 4 29 -5 -10 -14 -11
2 -13 4 30 -4 -10 -14 -11
2 -13 4 32 -4 -9 -14 -11
3 -12 4 33 -3 -8 -13 -11
3 -12 4 34 -2 -8 -13 -10
3 -12 4 36 0 -8 -12 -9
3 -12 4 37 0 -8 -11 -9
3 -12 4 38 1 -8 -11 -8
3 -11 5 39 2 -8 -10 -7
3 -11 5 39 2 -7 -10 -7
4 -10 5 40 2 -6 -10 -7
4 -9 5 42 2 -5 -10 -7
4 -9 5 42 2 -4 -10 -7
5 -8 4 43 3 -3 -9 -6
5 -8 4 43 4 -3 -8 -6
5 -8 4 43 5 -2 -7 -5
5 -8 4 43 5 0 -6 -4
5 -8 4 43 6 0 -5 -4
5 -7 3 42 7 1 -4 -3
6 -7 3 42 8 2 -3 -2
7 -7 3 43 9 3 -2 0
7 -7 3 44 9 3 -2 1
8 -7 3 44 10 4 0 2
9 -7 3 45 11 5 1 3
9 -7 3 45 12 5 1 3
9 -6 3 45 13 5 1 3
9 -5 3 45 14 6 1 3
9 -5 3 45 15 6 1 3
8 -4 2 45 16 7 2 2
8 -4 2 46 17 9 3 3
9 -3 2 47 17 10 4 4
10 -2 1 49 18 11 6 6
10 -2 1 50 19 13 7 7
11 0 0 51 20 14 8 8
11 1 0 51 22 15 9 9
11 1 0 51 23 16 10 10
11 2 -2 52 24 17 12 12
11 3 -2 52 26 18 13 13
12 4 -3 53 27 19 14 14
13 4 -3 55 29 21 16 16
13 4 -3 57 30 23 17 18
14 4 -4 59 32 25 18 20
15 4 -4 61 34 27 20 22
16 5 -5 62 35 28 21 23
16 6 -5 62 37 29 23 24
16 7 -5 62 38 30 25 25
17 9 -6 63 40 32 27 26
17 10 -6 63 43 33 29 27
18 11 -7 65 44 35 30 28
19 11 -7 67 46 37 32 30
20 12 -7 70 47 39 33 32
22 13 -7 73 49 42 35 34
23 13 -7 75 51 44 37 36
24 14 -8 77 52 46 39 37
24 15 -8 78 54 48 42 39
24 15 -8 79 56 50 44 42
25 16 -9 81 58 52 46 44
25 17 -9 82 60 54 48 46
26 18 -10 84 61 56 50 48
27 19 -10 85 62 58 51 49
28 20 -10 86 62 59 52 50
29 21 -11 87 63 60 54 51
30 22 -11 88 64 62 55 52
31 23 -12 89 65 63 56 53
31 23 -12 89 65 63 57 55
31 24 -12 89 66 63 58 56
31 25 -12 89 67 64 60 57
31 25 -12 89 67 64 61 59
30 26 -12 88 68 65 62 60
30 26 -12 88 68 65 62 60
30 26 -12 88 67 65 62 60
30 26 -12 88 66 65 62 60
30 26 -12 88 66 65 62 60
30 27 -13 88 65 65 62 60
30 27 -13 87 64 65 62 60
30 27 -13 86 64 64 62 60
30 27 -13 85 63 63 61 60
30 27 -13 84 62 63 61 60
30 27 -13 82 61 62 60 60
30 27 -13 81 59 61 58 59
30 27 -13 80 57 60 57 58
29 27 -13 79 55 58 56 56
29 27 -13 78 53 57 54 55
28 26 -12 77 51 56 53 54
27 26 -11 75 49 54 51 52
26 26 -10 74 48 52 50 51
24 25 -9 72 47 50 48 49
23 25 -8 70 45 48 46 47
22 24 -7 69 44 47 45 46
21 23 -6 67 42 45 42 44
20 22 -6 65 39 43 39 43
19 21 -5 63 37 40 37 40
18 20 -4 62 35 38 35 38
17 19 -3 59 33 35 32 36
16 18 -3 57 31 33 30 34
15 17 -2 54 29 30 28 32
14 16 0 52 27 28 25 29
13 15 0 49 25 25 23 27
12 14 1 47 23 23 20 24
11 13 1 45 21 21 18 22
10 12 2 43 19 19 16 20
8 11 3 40 17 17 13 17
7 10 3 38 15 15 11 15
6 9 4 36 13 13 9 13
6 8 4 34 12 12 7 12
6 7 5 33 11 11 6 11
5 6 6 31 9 9 4 9
5 5 6 29 8 8 2 8
4 4 7 28 7 7 1 7
4 3 7 27 5 5 0 6
3 3 7 26 4 4 -2 5
2 2 6 24 2 2 -3 4
2 1 6 23 0 0 -4 3
1 0 5 22 -2 -2 -5 2
1 0 5 21 -2 -2 -5 2
1 0 5 20 -2 -2 -5 2
0 0 5 19 -3 -3 -6 2
0 0 5 18 -3 -3 -6 2
-2 -2 6 17 -4 -4 -7 1
-2 -2 6 17 -4 -4 -7 1
-2 -2 6 17 -4 -4 -7 1
-2 -3 6 17 -5 -4 -7 0
-2 -3 6 17 -5 -4 -7 0
-2 -4 6 17 -6 -5 -8 -2
-2 -4 6 17 -6 -5 -8 -2
-2 -4 6 17 -6 -5 -8 -2
-2 -4 6 17 -6 -6 -8 -2
-2 -4 6 17 -6 -6 -8 -2
-3 -5 7 16 -6 -7 -9 -2
-3 -5 7 16 -6 -7 -10 -3
-3 -5 7 16 -6 -8 -10 -4
-3 -5 7 16 -6 -9 -11 -5
-3 -5 7 16 -6 -9 -12 -6
-3 -6 7 15 -7 -10 -13 -7
-3 -6 7 15 -6 -9 -12 -6
-3 -6 7 15 -6 -9 -12 -6
-3 -6 8 15 -5 -8 -11 -5
-3 -6 8 15 -4 -7 -10 -4
-4 -6 9 16 -3 -6 -9 -3
-4 -6 9 16 -3 -6 -9 -3
-4 -6 9 16 -3 -6 -9 -4
-3 -7 9 16 -3 -6 -10 -5
-3 -7 9 16 -3 -6 -10 -5
-2 -8 9 17 -4 -7 -11 -6
-2 -8 9 17 -4 -7 -11 -6
-2 -8 9 17 -4 -7 -11 -6
-2 -7 9 17 -4 -7 -11 -6
-2 -7 9 17 -4 -7 -11 -6
-3 -6 10 16 -3 -6 -10 -5
-3 -6 10 16 -3 -6 -10 -5
-3 -6 10 16 -3 -6 -10 -5
-3 -6 10 17 -2 -6 -10 -5
-3 -6 10 17 -2 -6 -10 -5
-4 -6 10 18 0 -6 -10 -4
-4 -6 10 18 0 -6 -10 -4
-4 -6 10 18 0 -6 -10 -4
-4 -6 10 18 0 -7 -11 -5
-4 -6 10 18 0 -7 -11 -5
-4 -6 9 17 0 -8 -12 -6
-4 -6 9 17 0 -7 -11 -5
-4 -6 9 17 0 -7 -11 -5
-4 -6 9 17 0 -6 -10 -4
-4 -6 9 17 0 -5 -9 -3
-3 -5 9 16 1 -4 -8 -2
-3 -5 9 16 1 -4 -8 -2
-3 -5 9 16 1 -4 -8 -2
-3 -5 9 15 1 -4 -8 -3
-3 -5 9 15 1 -4 -8 -3
-3 -4 8 14 0 -4 -7 -4
-3 -4 8 14 0 -4 -7 -4
-3 -4 9 14 0 -4 -7 -4
-3 -4 10 14 0 -4 -7 -4
-3 -4 10 14 0 -4 -7 -4
-2 -4 11 15 1 -4 -7 -3
-2 -4 11 15 1 -4 -7 -4
-2 -4 11 15 1 -4 -7 -4
-2 -4 10 14 1 -5 -8 -5
-2 -4 10 14 1 -5 -8 -6
-2 -5 9 13 0 -6 -9 -7
-2 -5 9 13 0 -6 -9 -7
-2 -5 9 13 0 -6 -9 -7
-2 -4 10 12 0 -6 -9 -6
-2 -4 10 12 0 -6 -9 -6
-2 -3 11 11 -2 -5 -8 -5
-2 -3 11 11 -2 -5 -8 -5
-2 -3 11 10 -2 -5 -8 -5
-2 -3 11 9 -2 -5 -8 -5
-2 -3 11 9 -2 -5 -8 -5
-3 -4 11 8 -3 -5 -9 -5
-3 -4 11 8 -3 -5 -9 -5
-3 -3 11 8 -3 -5 -9 -5
-3 -2 11 8 -3 -5 -9 -5
-3 -2 11 8 -3 -5 -9 -5
-3 0 11 7 -3 -6 -9 -5
-3 0 11 7 -3 -6 -9 -5
-3 -2 11 7 -3 -6 -9 -5
-3 -3 11 7 -4 -6 -8 -5
-3 -3 11 7 -4 -6 -8 -5
-3 -4 11 6 -5 -6 -7 -4
-3 -4 11 6 -5 -6 -7 -4
-3 -4 11 6 -5 -6 -7 -4
-3 -4 11 5 -5 -7 -8 -5
-3 -4 11 5 -5 -7 -8 -5
-2 -4 11 4 -6 -8 -9 -6
-2 -4 11 4 -6 -8 -9 -6
-2 -4 11 3 -6 -8 -9 -6
-3 -4 11 2 -6 -8 -9 -6
-3 -4 11 2 -6 -8 -9 -6
-4 -3 11 1 -7 -9 -10 -6
-4 -3 11 1 -7 -9 -10 -6
-4 -3 11 2 -7 -9 -10 -6
-4 -3 12 3 -7 -8 -10 -6
-4 -3 12 3 -7 -8 -10 -6
-3 -3 13 4 -7 -7 -9 -6
-3 -2 13 4 -6 -6 -9 -6
-3 1 13 4 -6 -6 -8 -5
-3 2 14 5 -5 -5 -7 -4
-3 4 14 5 -4 -4 -7 -4
-2 5 15 6 -3 -3 -6 -3
-2 7 15 6 -3 -3 -6 -3
-2 10 15 6 -3 -3 -6 -2
-2 12 15 6 -2 -2 -5 0
-2 14 15 6 -2 -2 -5 0
-2 16 16 6 0 0 -4 1
-2 16 17 6 0 0 -4 1
-2 16 18 7 0 0 -4 1
-2 16 19 8 0 0 -3 1
-2 16 20 8 0 0 -3 1
-2 17 21 9 1 1 -2 1
-2 19 21 9 3 2 0 2
-2 22 21 10 5 4 2 4
-2 24 21 10 6 5 3 5
-2 26 21 11 8 7 5 7
0 28 21 12 10 8 6 8
0 29 18 11 10 8 7 9
0 31 15 10 10 8 7 10
1 32 11 9 10 9 8 11
1 34 8 8 10 9 9 12
2 35 5 7 10 10 10 13
2 32 4 4 8 8 8 11
2 29 4 1 5 5 6 9
2 26 3 -2 3 3 5 8
2 23 2 -5 1 1 3 6
1 20 1 -7 -2 -2 1 4
1 18 2 -7 -2 -2 1 3
1 16 2 -7 -2 -2 1 3
1 14 3 -6 -2 -2 0 2
1 12 4 -6 -2 -2 0 1
2 10 5 -5 0 -2 -2 0
2 8 5 -6 -3 -4 -4 -3
1 6 5 -7 -4 -6 -6 -5
1 4 5 -8 -6 -7 -7 -6
0 2 5 -9 -7 -9 -9 -8
-2 0 6 -10 -9 -11 -11 -10
-2 -2 6 -11 -10 -11 -11 -10
-3 -3 6 -12 -10 -12 -12 -11
-3 -4 6 -13 -11 -12 -12 -11
-4 -5 6 -15 -12 -13 -13 -12
-5 -6 5 -16 -13 -14 -14 -13
-5 -6 5 -16 -13 -14 -14 -13
-5 -7 5 -16 -13 -14 -14 -13
-5 -7 5 -16 -14 -14 -14 -13
-5 -8 5 -16 -14 -14 -14 -13
-5 -9 4 -16 -15 -14 -15 -13
-5 -9 4 -16 -15 -14 -15 -13
-5 -9 4 -17 -15 -14 -15 -13
-5 -9 4 -17 -16 -15 -15 -13
-5 -9 4 -18 -16 -15 -15 -13
-5 -9 3 -19 -17 -16 -16 -14
-5 -9 3 -19 -17 -16 -16 -14
-5 -9 3 -19 -17 -16 -16 -14
-5 -9 3 -19 -17 -17 -16 -14
-5 -9 3 -19 -17 -17 -16 -14
-6 -8 2 -19 -18 -18 -17 -15
-6 -8 2 -19 -18 -18 -17 -15
-6 -9 2 -19 -18 -18 -17 -15
-6 -9 2 -19 -17 -18 -17 -15
-6 -10 2 -19 -17 -18 -17 -15
-7 -11 2 -19 -16 -17 -16 -16
-7 -11 2 -17 -16 -17 -16 -16
-7 -11 2 -16 -15 -17 -16 -16
-6 -11 3 -14 -15 -17 -16 -16
-6 -11 3 -13 -14 -17 -16 -16
-5 -11 5 -7 -11 -16 -17 -16
-3 -11 11 10 0 -12 -16 -16
0 -11 16 26 10 -8 -14 -16
1 -10 22 42 20 -4 -13 -16
3 -10 28 58 30 2 -11 -16
6 -7 33 72 43 8 -7 -15
11 1 36 81 60 22 6 -4
15 8 40 92 77 36 18 7
20 16 44 101 95 51 31 17
25 23 48 110 111 65 44 27
29 36 47 102 125 82 62 46
30 65 29 45 122 112 99 82
32 94 12 -13 119 141 135 119
33 122 -6 -70 117 170 171 156
34 150 -23 -127 115 198 206 193
34 171 -40 -176 113 220 233 220
27 165 -57 -201 110 222 231 217
19 160 -73 -228 108 224 230 213
12 155 -91 -255 106 225 228 210
4 150 -107 -281 103 227 227 205
-6 139 -119 -303 82 207 206 188
-20 109 -122 -314 14 130 137 133
-34 80 -126 -325 -55 51 66 77
-49 52 -129 -336 -123 -27 -4 22
-62 22 -131 -347 -192 -106 -73 -32
-71 1 -131 -344 -235 -158 -121 -72
-63 -2 -117 -301 -205 -139 -106 -65
-54 -3 -104 -258 -177 -118 -92 -58
-45 -5 -90 -215 -148 -99 -77 -51
-36 -6 -76 -172 -118 -79 -63 -44
-28 -8 -64 -135 -94 -62 -51 -36
-24 -8 -52 -112 -78 -53 -44 -32
-20 -9 -40 -91 -63 -45 -37 -28
-15 -9 -29 -68 -49 -35 -30 -24
-11 -10 -18 -46 -33 -26 -23 -20
-7 -11 -9 -29 -22 -19 -18 -17
-7 -11 -8 -26 -21 -19 -18 -17
-7 -12 -6 -23 -19 -19 -18 -17
-7 -12 -5 -20 -18 -18 -18 -17
-7 -13 -4 -17 -17 -18 -18 -17
-6 -14 -2 -14 -15 -17 -17 -16
-5 -14 -2 -13 -14 -17 -17 -16
-5 -14 -2 -12 -14 -17 -17 -16
-4 -14 0 -11 -13 -17 -17 -16
-3 -14 0 -9 -12 -17 -17 -16
-2 -14 1 -8 -11 -17 -18 -16
-2 -14 1 -7 -11 -17 -18 -16
-2 -14 1 -7 -11 -17 -18 -16
-2 -15 1 -6 -10 -16 -18 -16
-2 -15 1 -5 -10 -16 -18 -16
-3 -16 1 -4 -9 -15 -17 -17
-3 -16 1 -4 -9 -14 -17 -17
-3 -16 1 -3 -8 -14 -16 -17
-3 -15 1 -3 -8 -13 -16 -16
-3 -15 1 -2 -7 -12 -15 -16
-2 -14 2 0 -6 -11 -14 -15
-2 -14 2 0 -6 -11 -14 -15
-2 -14 2 0 -5 -11 -14 -14
-2 -14 2 0 -4 -10 -13 -13
-2 -14 2 0 -3 -10 -13 -12
-2 -14 1 1 -2 -9 -12 -11
-2 -14 1 1 -2 -9 -12 -11
-2 -13 1 1 -2 -8 -12 -11
0 -13 1 2 -2 -8 -11 -11
0 -12 1 2 -2 -7 -11 -11
1 -11 1 3 -2 -6 -10 -11
1 -11 1 3 0 -6 -10 -11
1 -11 1 3 1 -5 -10 -10
1 -11 1 3 2 -5 -9 -9
1 -11 1 3 3 -4 -9 -8
2 -12 1 4 4 -3 -8 -7
2 -12 1 4 4 -3 -8 -7
2 -11 0 5 5 -2 -7 -7
3 -10 0 5 5 0 -7 -6
3 -9 -2 6 6 1 -6 -6
4 -8 -3 7 7 2 -5 -5
4 -8 -3 7 8 3 -4 -5
4 -8 -3 8 9 4 -3 -4
4 -9 -3 9 10 5 -2 -3
4 -9 -3 10 12 6 0 -2
3 -10 -2 11 13 7 1 0
3 -9 -2 11 13 7 1 0
4 -8 -3 11 14 8 1 0
5 -7 -3 12 14 8 1 0
6 -5 -4 12 15 9 1 0
7 -4 -5 13 16 10 2 1
7 -4 -5 14 18 11 3 2
7 -4 -5 15 19 13 5 3
8 -4 -5 16 21 15 7 4
8 -4 -5 17 23 16 8 5
9 -4 -6 18 25 18 10 6
9 -4 -6 20 26 19 11 8
10 -3 -6 22 28 21 13 10
10 -2 -7 24 29 22 14 12
11 0 -7 26 30 23 15 14
12 1 -8 28 32 25 17 16
12 1 -8 29 34 27 19 17
12 2 -8 31 36 28 20 19
12 3 -9 33 38 30 22 20
12 4 -9 34 40 32 24 21
13 5 -10 36 43 34 26 23
14 5 -10 38 45 36 28 25
15 6 -10 39 46 38 29 26
16 7 -11 42 48 40 31 28
18 8 -11 44 50 43 33 30
19 9 -12 46 52 45 35 32
19 10 -12 47 54 47 37 33
20 11 -12 49 55 48 39 35
21 12 -13 50 57 50 43 37
22 13 -13 51 59 52 45 38
23 14 -14 53 61 54 47 40
23 14 -14 54 61 55 48 42
24 15 -14 55 62 57 50 44
24 16 -14 56 63 58 51 45
25 17 -14 58 64 59 52 46
26 18 -15 59 65 61 54 48
26 18 -15 59 65 61 54 49
26 18 -15 59 65 62 55 50
26 18 -16 59 65 62 55 51
26 18 -16 59 65 63 56 52
26 19 -17 59 66 64 57 53
26 19 -17 59 66 64 57 53
26 19 -17 59 65 64 57 53
26 19 -17 59 65 64 58 54
26 19 -17 59 64 64 58 54
27 20 -17 59 63 64 59 55
27 20 -17 58 62 63 59 55
27 20 -17 56 60 62 58 54
27 20 -17 55 58 61 57 54
27 20 -17 54 57 60 56 53
27 21 -18 52 55 59 55 52
27 21 -18 51 53 58 54 51
26 21 -18 49 52 56 53 50
25 21 -18 48 50 54 52 49
24 21 -18 47 48 53 51 48
23 20 -17 45 46 51 50 47
22 20 -17 43 44 49 48 46
21 19 -16 40 40 47 45 44
20 18 -15 38 38 45 43 42
18 17 -14 35 35 43 39 40
17 16 -13 33 33 40 37 38
16 15 -12 31 30 36 34 35
15 13 -11 29 28 32 31 33
14 12 -10 27 25 28 28 30
13 11 -9 24 23 24 25 28
12 9 -8 22 20 20 22 25
11 8 -8 19 17 17 20 22
10 7 -8 17 15 15 17 20
9 6 -8 14 12 12 15 17
7 4 -8 12 10 10 12 15
6 3 -7 9 7 7 10 12
6 2 -7 7 5 5 8 11
5 1 -6 5 3 3 6 9
4 0 -5 3 1 1 4 7
3 -3 -4 0 -2 -3 1 6
2 -4 -3 -3 -4 -5 -2 4
1 -4 -3 -5 -5 -6 -4 3
0 -5 -3 -6 -7 -8 -6 1
-2 -6 -3 -8 -9 -10 -8 -2
-3 -7 -3 -10 -10 -11 -10 -3
-4 -8 -3 -12 -12 -13 -12 -5
-4 -9 -3 -12 -12 -13 -12 -5
-4 -10 -3 -13 -13 -14 -13 -6
-4 -11 -3 -13 -14 -14 -13 -7
-4 -12 -3 -14 -15 -15 -14 -8
-4 -13 -3 -15 -16 -16 -15 -9
-4 -13 -3 -16 -16 -17 -15 -9
-4 -13 -3 -17 -17 -18 -16 -10
-5 -14 -4 -18 -17 -19 -16 -10
-5 -14 -4 -19 -18 -20 -17 -11
-6 -15 -5 -20 -19 -21 -18 -12
-6 -15 -5 -20 -19 -21 -18 -12
-6 -15 -5 -20 -19 -21 -18 -12
-6 -15 -5 -20 -20 -21 -19 -12
-6 -15 -5 -20 -20 -21 -19 -12
-5 -16 -5 -20 -21 -22 -20 -13
-5 -16 -5 -20 -21 -22 -20 -13
-5 -16 -5 -20 -21 -22 -20 -13
-6 -16 -5 -21 -21 -22 -20 -13
-6 -16 -5 -21 -21 -22 -20 -13
-7 -17 -4 -22 -21 -23 -19 -13
-7 -17 -4 -22 -21 -23 -19 -13
-7 -17 -4 -22 -21 -23 -19 -13
-7 -17 -4 -22 -22 -23 -19 -13
-7 -17 -4 -22 -22 -23 -19 -13
-6 -18 -5 -21 -23 -23 -20 -13
-6 -18 -5 -21 -23 -23 -20 -13
-6 -18 -5 -21 -23 -23 -20 -13
-6 -18 -5 -21 -23 -24 -21 -13
-6 -18 -5 -21 -23 -24 -21 -13
-7 -18 -6 -21 -23 -25 -22 -14
-7 -18 -6 -21 -23 -25 -22 -14
-7 -19 -6 -20 -23 -25 -22 -14
-7 -19 -6 -19 -23 -25 -22 -14
-7 -20 -6 -18 -23 -25 -22 -14
-6 -21 -5 -17 -22 -25 -21 -15
-6 -21 -5 -17 -22 -25 -21 -15
-6 -20 -5 -17 -22 -25 -21 -15
-6 -20 -5 -17 -22 -25 -21 -15
-6 -19 -5 -17 -22 -25 -21 -15
-7 -18 -4 -18 -21 -25 -22 -15
-7 -18 -4 -18 -21 -25 -22 -15
-7 -19 -4 -17 -21 -25 -22 -15
-7 -19 -4 -16 -20 -24 -22 -15
-7 -20 -4 -15 -20 -24 -22 -15
-8 -21 -4 -14 -19 -23 -22 -15
-8 -21 -4 -14 -19 -23 -22 -15
-8 -21 -4 -14 -19 -23 -22 -15
-8 -21 -4 -14 -19 -23 -22 -15
-8 -21 -4 -14 -19 -23 -22 -15
-8 -22 -4 -13 -18 -22 -21 -15
-8 -22 -4 -13 -18 -22 -21 -15
-8 -22 -4 -13 -18 -22 -21 -15
-8 -21 -4 -13 -18 -22 -21 -15
-8 -21 -4 -13 -18 -22 -21 -15
-7 -20 -5 -12 -18 -22 -22 -15
-7 -20 -5 -12 -18 -22 -22 -15
-7 -20 -5 -12 -18 -22 -22 -15
-7 -20 -5 -12 -18 -22 -22 -15
-7 -20 -5 -12 -18 -22 -22 -15
-7 -20 -6 -13 -18 -23 -22 -16
-7 -20 -6 -13 -18 -23 -22 -16
-7 -20 -6 -13 -18 -23 -22 -16
-7 -20 -6 -13 -18 -22 -22 -16
-7 -20 -6 -13 -18 -22 -22 -16
-6 -20 -5 -13 -18 -21 -21 -16
-6 -20 -5 -13 -18 -21 -21 -16
-6 -20 -5 -13 -18 -21 -21 -16
-6 -20 -5 -13 -18 -21 -21 -16
-6 -20 -5 -13 -18 -21 -21 -16
-6 -21 -6 -13 -19 -22 -21 -15
-6 -21 -6 -13 -19 -22 -21 -15
-6 -21 -6 -13 -19 -22 -21 -15
-6 -21 -6 -13 -20 -22 -21 -15
-6 -21 -6 -13 -20 -22 -21 -15
-6 -22 -6 -14 -21 -23 -22 -15
-6 -22 -6 -14 -21 -23 -22 -15
-6 -22 -6 -15 -21 -23 -22 -15
-6 -22 -6 -15 -21 -23 -23 -16
-6 -22 -6 -16 -21 -23 -23 -16
-6 -22 -6 -17 -22 -24 -24 -17
-6 -22 -6 -17 -22 -24 -24 -17
-6 -22 -6 -17 -22 -24 -23 -17
-6 -22 -6 -17 -22 -24 -23 -16
-6 -22 -6 -17 -22 -24 -22 -16
-6 -23 -6 -16 -22 -24 -21 -15
-6 -23 -6 -16 -22 -24 -21 -15
-6 -23 -6 -16 -22 -24 -21 -15
-6 -23 -6 -17 -23 -24 -22 -15
-6 -23 -6 -17 -23 -24 -22 -15
-7 -23 -7 -18 -24 -25 -23 -16
-7 -23 -7 -18 -24 -25 -23 -16
-7 -23 -7 -18 -24 -25 -23 -16
-7 -23 -7 -19 -24 -25 -23 -16
-7 -23 -7 -19 -24 -25 -23 -16
-8 -23 -7 -20 -25 -26 -24 -16
-8 -23 -7 -20 -25 -26 -24 -16
-8 -23 -7 -20 -25 -26 -24 -16
-7 -23 -7 -20 -25 -26 -24 -16
-7 -23 -7 -20 -25 -26 -24 -16
-6 -24 -7 -20 -26 -26 -23 -16
-6 -24 -7 -20 -26 -26 -23 -16
-6 -24 -7 -20 -26 -26 -23 -16
-6 -24 -7 -20 -27 -26 -23 -16
-6 -24 -7 -20 -27 -26 -23 -16
-7 -24 -8 -21 -28 -26 -24 -17
-7 -24 -8 -21 -28 -26 -24 -17
-7 -24 -8 -21 -28 -26 -24 -17
-7 -24 -8 -22 -28 -26 -24 -17
-7 -24 -8 -22 -28 -26 -24 -17
-7 -24 -8 -23 -27 -26 -23 -18
-7 -24 -8 -23 -27 -26 -23 -18
-7 -24 -8 -23 -27 -26 -23 -18
-7 -24 -8 -23 -27 -26 -24 -18
-7 -24 -8 -23 -27 -26 -24 -18
-6 -25 -9 -24 -28 -27 -25 -19
-6 -25 -9 -24 -28 -27 -25 -19
-6 -25 -9 -24 -28 -27 -25 -19
-6 -24 -9 -24 -28 -27 -25 -19
-6 -24 -9 -24 -28 -27 -25 -19
-7 -23 -8 -24 -27 -28 -25 -20
-7 -23 -8 -23 -26 -27 -24 -20
-7 -22 -7 -22 -25 -26 -23 -19
-7 -21 -6 -21 -24 -25 -22 -18
-7 -20 -5 -20 -23 -24 -21 -17
-6 -19 -4 -19 -21 -22 -19 -16
-6 -17 -3 -17 -20 -21 -18 -15
-6 -14 -2 -15 -18 -19 -17 -14
-6 -11 1 -13 -17 -18 -16 -13
-6 -8 2 -11 -15 -16 -15 -12
-5 -5 4 -9 -13 -14 -13 -11
-5 -3 6 -6 -11 -13 -12 -11
-5 0 8 -3 -9 -12 -11 -10
-6 2 10 1 -7 -11 -10 -9
-6 4 12 4 -5 -10 -9 -8
-7 7 14 7 -3 -8 -7 -7
-7 10 15 11 2 -5 -4 -5
-6 14 16 15 6 -2 0 -2
-5 17 17 19 10 3 4 1
-4 21 18 24 15 6 7 4
-3 25 20 28 19 10 11 7
-3 28 18 28 21 13 13 9
-2 31 16 29 23 16 16 12
-2 34 14 30 25 19 18 15
0 37 12 31 27 22 21 18
1 40 9 32 29 25 24 21
0 44 9 29 29 27 27 24
-3 48 9 26 30 29 30 27
-4 51 10 22 31 32 33 30
-6 55 10 19 32 34 36 33
-8 59 11 15 33 37 40 37
-12 71 15 15 43 47 50 47
-16 82 19 15 51 56 58 55
-20 95 23 15 60 65 67 64
-24 106 27 15 69 75 76 73
-29 118 31 15 78 85 86 82
-32 129 32 6 81 91 92 90
-36 140 33 -4 86 96 99 96
-40 150 34 -13 90 102 105 103
-45 160 35 -23 94 108 111 110
-49 172 36 -32 98 114 118 117
-51 176 34 -48 98 114 118 118
-53 180 32 -63 98 115 119 119
-55 184 30 -77 98 116 120 120
-57 188 28 -93 98 117 121 121
-59 192 26 -108 99 118 122 122
-60 201 3 -141 91 117 123 126
-61 210 -21 -173 81 116 125 130
-62 219 -45 -205 72 115 126 133
-63 228 -67 -237 64 114 127 137
-64 237 -91 -270 55 112 129 141
-64 243 -118 -308 26 109 131 146
-63 250 -145 -347 -4 106 134 151
-63 257 -173 -386 -32 103 137 156
-62 263 -200 -425 -61 100 140 161
-61 270 -227 -464 -90 96 143 168
-60 267 -233 -468 -103 95 144 170
-59 264 -240 -472 -117 94 146 172
-57 260 -247 -476 -132 92 148 174
-56 257 -255 -480 -145 91 150 176
-54 253 -262 -484 -159 89 152 179
-51 250 -262 -474 -169 89 156 183
-48 246 -262 -464 -179 89 160 187
-45 242 -262 -453 -188 89 164 192
-41 239 -262 -443 -198 89 169 196
-37 235 -262 -433 -208 88 174 201
-37 237 -258 -423 -212 88 177 205
-36 239 -254 -412 -216 88 181 210
-36 241 -249 -402 -220 88 184 214
-35 243 -245 -392 -224 88 188 218
-34 245 -240 -381 -228 89 192 223
-32 241 -228 -356 -208 99 194 220
-29 236 -216 -330 -188 109 196 217
-27 231 -202 -305 -169 119 198 214
-24 226 -190 -280 -148 130 200 211
-21 221 -177 -255 -128 141 202 206
-19 182 -153 -217 -116 113 165 167
-17 142 -130 -178 -105 85 129 127
-14 103 -105 -140 -94 57 92 87
-12 63 -81 -102 -82 28 55 47
-9 23 -57 -63 -70 0 18 6
-8 8 -49 -47 -64 -7 8 -7
-6 -8 -39 -30 -57 -13 -4 -20
-5 -23 -30 -13 -51 -19 -14 -33
-3 -38 -21 4 -44 -25 -25 -47
-2 -54 -13 20 -37 -31 -35 -59
0 -57 -11 25 -36 -33 -38 -62
0 -60 -9 29 -35 -35 -40 -65
0 -63 -7 33 -35 -37 -44 -68
0 -66 -5 37 -34 -39 -46 -71
0 -68 -3 42 -34 -40 -48 -74
0 -71 -2 45 -33 -43 -50 -76
0 -73 0 48 -33 -44 -52 -78
1 -76 1 51 -33 -46 -53 -79
1 -78 2 54 -33 -47 -55 -81
1 -80 3 57 -33 -48 -56 -82
2 -81 4 60 -32 -49 -58 -85
3 -82 5 63 -32 -50 -59 -87
3 -83 6 66 -32 -51 -60 -88
4 -85 7 69 -32 -52 -61 -90
4 -86 7 71 -32 -52 -62 -91
5 -88 8 74 -32 -53 -63 -92
5 -89 8 76 -32 -54 -64 -93
6 -91 8 78 -32 -55 -65 -94
6 -92 8 80 -32 -56 -66 -95
6 -93 8 82 -32 -57 -67 -95
7 -96 9 86 -31 -58 -68 -97
8 -98 10 89 -31 -59 -69 -98
9 -101 11 92 -31 -59 -70 -100
10 -103 12 95 -31 -60 -71 -101
10 -105 12 97 -31 -60 -71 -102
11 -106 13 100 -31 -62 -73 -104
12 -107 13 103 -31 -63 -75 -106
12 -108 13 105 -32 -65 -77 -108
13 -109 13 108 -32 -66 -79 -110
13 -109 13 110 -32 -67 -80 -111
14 -113 14 115 -33 -68 -81 -113
15 -117 15 119 -33 -69 -82 -114
16 -120 16 125 -33 -69 -82 -116
17 -124 17 129 -33 -70 -83 -117
18 -128 18 133 -33 -70 -83 -118
19 -131 20 137 -32 -72 -87 -121
20 -133 21 141 -32 -74 -89 -123
21 -136 22 144 -32 -76 -91 -127
22 -138 23 148 -32 -78 -93 -129
22 -140 24 151 -32 -79 -95 -131
23 -143 26 156 -32 -80 -97 -134
24 -145 27 160 -31 -81 -99 -136
25 -148 28 165 -31 -82 -100 -139
26 -150 29 170 -30 -83 -102 -141
26 -152 30 174 -30 -85 -103 -143
27 -155 32 179 -29 -87 -105 -145
28 -158 33 183 -29 -89 -106 -147
29 -161 34 187 -29 -90 -108 -149
30 -164 35 191 -29 -92 -109 -151
30 -168 36 195 -29 -93 -110 -153
31 -171 38 200 -27 -94 -112 -155
32 -174 39 205 -26 -95 -113 -157
33 -176 42 211 -25 -96 -115 -159
34 -179 43 215 -24 -97 -116 -161
34 -181 44 220 -23 -97 -117 -163
35 -183 45 225 -21 -98 -118 -164
36 -185 45 229 -20 -98 -119 -165
37 -186 46 233 -18 -99 -119 -166
38 -188 46 237 -17 -99 -120 -168
38 -189 46 241 -16 -99 -120 -168
39 -190 47 244 -13 -100 -121 -169
40 -191 47 246 -11 -100 -121 -170
40 -191 48 250 -8 -99 -121 -171
42 -192 48 252 -6 -99 -121 -172
42 -192 48 254 -4 -99 -121 -172
43 -193 50 256 0 -98 -121 -173
44 -193 52 258 2 -97 -121 -172
45 -193 53 259 5 -96 -121 -172
46 -193 55 261 7 -95 -121 -171
46 -193 56 262 9 -94 -121 -171
47 -191 57 263 12 -92 -119 -166
47 -189 57 264 15 -90 -117 -163
47 -188 57 265 18 -88 -115 -160
47 -186 57 266 21 -86 -113 -156
47 -185 57 266 23 -85 -111 -153
47 -182 57 267 26 -81 -108 -149
47 -180 57 266 28 -79 -106 -146
46 -177 57 265 30 -76 -104 -142
46 -175 57 264 32 -74 -102 -138
46 -173 57 263 34 -72 -100 -135
45 -169 56 261 37 -68 -97 -130
45 -164 55 259 40 -65 -93 -126
44 -160 54 258 44 -62 -90 -121
44 -156 53 256 47 -58 -87 -116
44 -152 52 255 50 -55 -83 -112
43 -148 51 251 52 -52 -79 -107
42 -143 50 247 54 -49 -76 -103
40 -139 49 243 56 -46 -73 -98
39 -135 48 239 58 -43 -69 -93
39 -131 48 236 59 -39 -66 -89
37 -126 46 231 60 -36 -63 -83
36 -121 44 227 61 -33 -60 -79
34 -117 42 222 62 -31 -57 -75
33 -112 39 217 63 -28 -55 -70
32 -108 38 213 63 -26 -52 -66
30 -103 37 207 64 -24 -49 -62
29 -99 36 201 64 -22 -47 -58
28 -94 35 196 63 -20 -44 -54
27 -89 34 190 63 -18 -41 -50
26 -85 33 185 63 -17 -39 -46
24 -80 30 179 61 -15 -36 -41
22 -76 28 174 59 -14 -34 -38
21 -72 26 168 57 -12 -32 -34
19 -69 23 162 55 -11 -30 -30
18 -65 21 156 53 -10 -28 -27
16 -61 19 150 50 -9 -26 -24
14 -58 17 144 48 -8 -25 -20
13 -54 15 139 45 -8 -23 -17
11 -50 13 133 42 -7 -22 -14
10 -47 12 127 39 -7 -21 -11
9 -44 10 121 36 -6 -20 -8
8 -41 9 116 34 -6 -19 -6
7 -39 8 112 32 -6 -18 -3
6 -36 7 107 29 -6 -17 1
6 -34 6 102 27 -6 -17 3
5 -32 5 98 24 -6 -16 5
4 -31 5 94 21 -7 -16 6
3 -29 5 90 18 -8 -16 8
2 -28 5 87 15 -9 -16 9
2 -27 5 82 12 -9 -16 10
1 -26 5 80 10 -10 -17 11
0 -25 5 77 8 -11 -17 12
-2 -25 4 75 6 -11 -17 13
-3 -24 4 73 4 -12 -17 14
-3 -24 4 71 3 -12 -17 15
-4 -23 3 69 1 -14 -18 16
-4 -23 2 67 -2 -15 -19 17
-4 -23 1 65 -4 -16 -19 17
-4 -23 0 63 -6 -17 -20 18
-4 -23 0 62 -7 -18 -20 18
-5 -23 -2 61 -8 -19 -21 19
-5 -23 -2 60 -9 -20 -21 20
-5 -23 -2 60 -9 -20 -22 20
-5 -23 -2 59 -10 -21 -22 21
-5 -23 -2 59 -10 -21 -22 21
-5 -23 -2 58 -11 -22 -23 22
-5 -23 -2 57 -12 -23 -24 23
-5 -24 -2 57 -12 -23 -24 24
-5 -24 -2 56 -13 -24 -25 25
-5 -24 -2 56 -13 -24 -25 25
-5 -25 -2 55 -14 -25 -26 26
-5 -25 -2 55 -14 -25 -26 27
-5 -24 -3 55 -14 -25 -26 28
-5 -24 -3 55 -14 -25 -26 29
-5 -24 -3 55 -14 -25 -26 29
-5 -23 -4 54 -15 -25 -25 30
-5 -23 -4 53 -15 -25 -25 30
-5 -23 -4 53 -15 -25 -25 30
-5 -23 -4 52 -15 -25 -25 30
-5 -23 -4 52 -15 -25 -25 30
-4 -24 -4 51 -16 -25 -25 31
-4 -24 -4 51 -16 -25 -24 31
-4 -24 -4 51 -16 -24 -24 31
-4 -24 -4 51 -16 -24 -23 31
-4 -24 -4 51 -16 -24 -23 31
-5 -23 -5 50 -17 -23 -22 31
-5 -23 -5 50 -16 -23 -22 31
-5 -23 -5 50 -16 -22 -22 31
-5 -23 -5 50 -15 -22 -22 31
-5 -23 -5 50 -15 -22 -22 31
-4 -22 -4 49 -14 -21 -21 31
-4 -22 -4 48 -14 -20 -21 31
-4 -22 -5 48 -14 -20 -20 31
-4 -22 -5 47 -14 -19 -20 31
-4 -22 -5 47 -14 -19 -20 31
-3 -22 -6 46 -14 -18 -19 31
-3 -22 -6 46 -14 -18 -19 31
-3 -22 -6 46 -14 -18 -19 31
-3 -22 -6 46 -14 -18 -19 31
-3 -22 -6 46 -14 -18 -19 31
-3 -21 -7 46 -14 -19 -18 30
-3 -20 -7 46 -14 -18 -18 30
-3 -19 -6 46 -13 -17 -18 30
-3 -18 -6 46 -13 -16 -18 30
-3 -18 -6 46 -13 -16 -18 30
-2 -17 -5 45 -12 -15 -18 29
-2 -17 -5 45 -12 -15 -18 29
-2 -17 -5 44 -12 -15 -18 29
-2 -17 -5 44 -12 -15 -18 29
-2 -17 -5 44 -12 -15 -18 29
-3 -18 -4 43 -13 -16 -17 29
-3 -18 -4 42 -13 -16 -17 29
-3 -17 -4 42 -13 -16 -17 29
-3 -17 -4 40 -13 -16 -17 29
-3 -17 -4 40 -13 -16 -17 29
-3 -16 -5 39 -13 -15 -16 28
-3 -16 -5 39 -13 -15 -16 28
-3 -16 -4 38 -13 -15 -16 28
-3 -16 -4 38 -13 -15 -16 28
-3 -16 -4 38 -13 -15 -16 28
-3 -16 -3 37 -12 -16 -16 27
-3 -16 -3 36 -12 -16 -16 27
-3 -16 -3 36 -13 -16 -16 26
-3 -16 -3 35 -13 -16 -16 26
-3 -16 -3 35 -13 -16 -16 26
-2 -15 -3 34 -14 -16 -16 25
-2 -15 -3 33 -14 -16 -16 25
-2 -14 -3 33 -14 -16 -16 25
-2 -14 -3 32 -14 -16 -16 25
-2 -14 -3 32 -14 -16 -16 25
-2 -13 -4 31 -15 -17 -16 24
-2 -13 -4 31 -15 -17 -16 24
-2 -14 -4 30 -15 -16 -16 24
-2 -14 -4 30 -15 -16 -16 24
-2 -14 -4 30 -15 -16 -16 24
-3 -15 -3 29 -15 -15 -15 24
-3 -15 -3 29 -15 -15 -15 24
-3 -15 -3 28 -15 -15 -15 24
-3 -15 -3 28 -15 -15 -15 24
-3 -15 -3 28 -15 -15 -15 24
-2 -14 -3 27 -16 -16 -16 23
-2 -14 -3 27 -16 -16 -16 23
-2 -14 -3 27 -15 -16 -16 23
-2 -14 -3 27 -15 -16 -16 23
-2 -14 -3 27 -15 -16 -16 23
-2 -15 -3 26 -14 -15 -15 22
-2 -15 -3 26 -14 -15 -15 22
-2 -14 -3 25 -14 -15 -15 22
-2 -14 -3 25 -14 -15 -15 22
-2 -14 -3 25 -14 -15 -15 22
-2 -13 -2 24 -15 -16 -15 21
-2 -13 -2 24 -15 -16 -15 21
-2 -13 -2 24 -15 -15 -15 21
-2 -13 -2 24 -15 -15 -15 21
-2 -13 -2 24 -15 -15 -15 21
-2 -13 -3 23 -14 -14 -15 21
-2 -13 -3 23 -14 -14 -15 21
-2 -13 -3 23 -14 -14 -15 20
-2 -13 -3 23 -14 -14 -15 20
-2 -13 -3 23 -14 -14 -15 20
-2 -14 -2 22 -14 -14 -14 19
-2 -14 -2 21 -14 -14 -14 19
-2 -14 -3 21 -14 -14 -14 19
-2 -14 -3 20 -14 -14 -14 19
-2 -14 -3 20 -14 -14 -14 19
-2 -13 -4 19 -15 -14 -14 18
-2 -13 -4 19 -15 -14 -14 17
-2 -13 -4 18 -15 -14 -14 17
-2 -13 -4 18 -15 -14 -14 16
-2 -13 -4 18 -15 -14 -14 16
-2 -12 -4 17 -15 -14 -15 15
-2 -12 -4 17 -15 -14 -15 15
-2 -12 -4 17 -15 -14 -15 15
-2 -12 -4 17 -15 -14 -15 15
-2 -12 -4 17 -15 -14 -15 15
-3 -12 -4 16 -14 -13 -14 15
-3 -12 -4 16 -14 -13 -14 15
-2 -11 -4 16 -14 -13 -14 15
-2 -11 -4 16 -14 -13 -14 15
-2 -11 -4 16 -14 -13 -14 15
0 -10 -4 15 -15 -14 -14 14
0 -10 -4 15 -15 -14 -14 14
0 -11 -4 15 -15 -13 -14 14
0 -11 -4 15 -15 -13 -14 14
0 -11 -4 15 -15 -13 -14 14
1 -12 -3 14 -15 -12 -13 14
1 -12 -3 13 -15 -12 -13 13
1 -12 -3 13 -15 -12 -14 13
1 -12 -3 12 -15 -12 -14 12
1 -12 -3 12 -15 -12 -14 12
0 -11 -2 11 -14 -13 -15 11
0 -11 -2 11 -14 -13 -15 11
0 -11 -2 10 -14 -13 -15 10
0 -11 -2 10 -14 -13 -15 10
0 -11 -2 10 -14 -13 -15 10
0 -10 0 9 -14 -12 -14 9
0 -10 0 9 -14 -12 -14 9
0 -10 -2 9 -14 -12 -14 9
0 -10 -2 9 -14 -12 -14 9
0 -10 -2 9 -14 -12 -14 9
0 -10 -3 9 -15 -12 -15 9
0 -10 -3 9 -15 -12 -15 9
0 -10 -3 9 -14 -12 -15 9
0 -10 -3 9 -14 -12 -15 9
0 -10 -3 9 -14 -12 -15 9
1 -11 -2 8 -13 -12 -14 9
1 -11 -2 8 -13 -12 -14 9
1 -11 0 8 -14 -12 -14 8
1 -11 0 8 -14 -12 -14 8
1 -11 0 8 -14 -12 -14 8
0 -11 1 7 -15 -12 -14 7
0 -11 1 7 -15 -12 -14 7
0 -10 1 7 -15 -12 -14 7
0 -10 1 7 -15 -12 -14 7
0 -10 1 7 -15 -12 -14 7
0 -9 2 6 -14 -11 -13 6
0 -9 2 6 -14 -11 -13 6
0 -9 1 5 -14 -11 -14 6
0 -9 1 5 -14 -11 -14 6
0 -9 1 5 -14 -11 -14 6
0 -10 0 4 -15 -11 -15 6
0 -10 0 4 -15 -11 -15 6
0 -10 1 4 -14 -11 -15 6
0 -10 1 4 -14 -11 -15 6
0 -10 1 4 -14 -11 -15 6
-2 -11 2 4 -13 -10 -14 5
-2 -11 3 4 -13 -10 -14 4
-2 -10 3 3 -14 -10 -14 4
-2 -10 4 3 -14 -10 -14 3
-2 -10 4 3 -14 -10 -14 3
0 -9 5 2 -15 -11 -15 2
0 -9 5 2 -15 -11 -15 2
0 -9 4 2 -15 -11 -15 2
0 -9 4 2 -15 -11 -15 2
0 -9 4 2 -15 -11 -15 2
-2 -8 3 2 -14 -11 -14 2
-2 -8 3 1 -14 -11 -14 2
-2 -9 3 1 -14 -11 -14 1
-2 -9 3 0 -14 -11 -14 1
-2 -9 3 0 -14 -11 -14 1
-2 -10 2 -2 -14 -11 -15 0
-2 -9 2 -2 -14 -11 -15 0
-2 -9 3 -2 -14 -11 -15 0
-2 -8 3 -2 -14 -11 -15 0
-2 -8 3 -2 -14 -11 -15 0
-2 -7 4 -2 -13 -11 -14 -2
-2 -7 4 -2 -13 -11 -14 -2
0 -7 4 -2 -14 -11 -14 -2
0 -7 4 -2 -14 -11 -14 -2
0 -7 4 -2 -14 -11 -14 -2
1 -8 3 -3 -15 -12 -15 -3
1 -8 3 -3 -15 -12 -15 -3
1 -8 2 -3 -15 -12 -14 -3
1 -8 2 -3 -15 -12 -14 -3
1 -8 2 -3 -15 -12 -14 -3
1 -7 1 -4 -14 -11 -13 -4
1 -6 3 -3 -13 -10 -12 -4
2 -5 4 -2 -12 -9 -11 -3
2 -5 5 0 -12 -9 -11 -3
2 -4 6 1 -11 -8 -10 -3
3 -2 7 2 -10 -7 -9 -2
3 2 7 2 -9 -6 -8 0
3 4 8 2 -8 -5 -7 1
3 6 8 2 -7 -4 -7 1
3 9 8 2 -6 -3 -6 2
3 10 9 3 -5 -2 -5 3
3 10 11 3 -5 -2 -5 3
3 11 12 4 -5 -2 -5 3
3 11 13 4 -5 -2 -5 3
3 11 14 4 -5 -2 -5 3
3 13 15 5 -4 0 -4 2
3 14 17 7 -2 2 -3 3
3 16 18 8 0 3 -2 3
3 17 19 9 1 4 1 4
3 19 20 10 2 5 2 4
2 21 19 11 3 6 3 6
3 22 16 9 3 7 4 7
3 24 13 8 4 8 4 8
4 25 10 7 4 8 5 10
4 27 6 6 4 9 5 11
5 27 4 4 4 9 6 11
5 25 3 2 3 8 5 10
5 24 1 0 1 7 4 9
5 22 0 -3 0 5 3 7
5 20 -3 -5 -3 4 2 6
5 18 -4 -6 -4 3 1 5
5 16 -4 -6 -4 2 0 4
6 15 -3 -6 -5 1 0 3
6 13 -3 -6 -5 1 -2 2
6 11 -3 -6 -5 0 -2 1
7 9 -2 -6 -6 -2 -3 -2
6 7 0 -6 -7 -3 -5 -3
6 5 1 -6 -7 -3 -6 -5
5 2 1 -6 -8 -4 -7 -6
5 0 2 -6 -8 -4 -8 -8
4 -2 3 -7 -9 -5 -9 -9
3 -3 3 -9 -11 -7 -10 -10
2 -4 3 -10 -12 -8 -11 -11
2 -4 3 -12 -13 -9 -11 -12
1 -5 3 -13 -14 -10 -12 -13
0 -6 3 -14 -15 -11 -13 -14
0 -6 3 -15 -16 -11 -14 -14
0 -6 3 -15 -16 -12 -14 -15
0 -6 3 -16 -17 -12 -15 -15
0 -6 3 -16 -17 -12 -15 -15
0 -7 3 -17 -18 -13 -16 -16
0 -8 3 -17 -18 -13 -16 -16
0 -8 3 -17 -18 -13 -16 -16
0 -9 3 -17 -18 -13 -16 -16
0 -9 3 -17 -18 -13 -16 -16
0 -10 3 -17 -17 -13 -16 -17
0 -10 3 -17 -17 -13 -16 -17
0 -10 3 -17 -17 -13 -16 -17
0 -10 3 -17 -17 -13 -16 -17
0 -10 3 -17 -17 -13 -16 -17
0 -11 3 -18 -18 -13 -16 -18
0 -11 3 -18 -18 -13 -16 -18
-2 -11 3 -18 -18 -13 -16 -19
-2 -11 3 -18 -18 -13 -16 -19
-2 -11 3 -18 -18 -13 -16 -19
-3 -10 3 -17 -18 -13 -16 -20
-3 -10 4 -15 -17 -13 -16 -20
-2 -11 5 -13 -16 -13 -17 -20
-2 -11 6 -11 -16 -13 -17 -20
-2 -11 7 -9 -15 -13 -17 -20
1 -11 11 5 -7 -10 -17 -21
4 -9 17 24 6 -4 -14 -21
7 -8 23 44 17 3 -12 -22
10 -6 29 63 28 8 -10 -22
13 -4 35 82 40 14 -7 -22
17 4 39 94 56 26 5 -14
22 14 44 100 74 43 21 1
27 24 48 107 93 59 37 16
32 34 51 113 110 75 54 30
37 45 55 119 129 92 69 45
39 68 44 78 133 116 99 74
40 97 22 12 129 144 135 112
42 126 1 -54 125 172 171 150
42 155 -20 -120 120 199 206 188
43 184 -41 -186 116 228 242 225
37 182 -62 -226 108 232 248 231
28 162 -81 -252 97 224 237 220
19 144 -102 -278 87 216 227 210
10 125 -121 -304 75 206 217 198
1 106 -142 -330 65 198 206 187
-12 86 -146 -340 25 151 161 150
-25 65 -141 -340 -29 85 100 101
-38 44 -135 -339 -85 18 37 52
-51 23 -130 -338 -139 -49 -25 2
-64 2 -123 -338 -194 -115 -87 -48
-63 -6 -112 -307 -195 -127 -101 -62
-54 -7 -98 -262 -169 -109 -89 -57
-45 -9 -83 -217 -142 -92 -76 -52
-35 -10 -69 -172 -115 -74 -64 -47
-26 -11 -55 -127 -89 -57 -52 -41
-20 -12 -44 -99 -72 -47 -44 -37
-17 -12 -34 -81 -61 -39 -38 -34
-13 -11 -25 -64 -49 -32 -32 -30
-10 -11 -16 -47 -37 -25 -27 -27
-7 -11 -7 -28 -25 -18 -21 -24
-5 -10 -3 -21 -21 -15 -19 -22
-5 -10 -3 -19 -21 -15 -19 -22
-4 -11 -3 -17 -20 -15 -19 -23
-4 -12 -3 -15 -19 -15 -19 -23
-4 -12 -3 -13 -19 -15 -19 -23
-3 -13 -2 -12 -18 -16 -20 -24
-3 -13 -2 -10 -18 -16 -20 -24
-2 -13 0 -9 -17 -15 -20 -24
0 -13 0 -7 -17 -15 -20 -24
0 -13 0 -6 -17 -15 -20 -24
1 -14 1 -5 -16 -14 -19 -23
1 -14 1 -5 -16 -14 -19 -23
1 -13 1 -5 -15 -14 -19 -23
1 -13 1 -5 -14 -14 -19 -23
1 -13 1 -5 -14 -14 -19 -23
0 -12 2 -4 -13 -13 -18 -23
0 -12 2 -3 -13 -13 -18 -23
0 -12 3 -2 -13 -13 -18 -22
0 -12 3 0 -13 -13 -18 -22
0 -12 3 1 -13 -13 -18 -22
1 -13 4 2 -12 -12 -17 -21
1 -13 4 2 -11 -12 -17 -21
1 -13 4 2 -10 -11 -16 -20
1 -13 4 2 -10 -11 -16 -20
1 -13 4 2 -9 -11 -16 -20
1 -12 4 1 -8 -10 -15 -19
1 -12 4 0 -8 -10 -15 -19
2 -11 5 -2 -8 -10 -15 -19
3 -11 5 -2 -8 -10 -15 -19
3 -11 5 -3 -8 -10 -15 -19
4 -10 6 -5 -8 -9 -14 -20
4 -10 6 -7 -7 -9 -14 -20
4 -10 5 -9 -6 -8 -14 -19
4 -10 4 -11 -5 -7 -14 -18
4 -10 4 -13 -4 -7 -14 -18
5 -9 3 -14 -3 -6 -13 -17
5 -9 3 -14 -3 -6 -12 -17
5 -9 3 -14 -3 -5 -11 -17
5 -9 3 -14 -3 -4 -11 -17
5 -9 3 -14 -3 -4 -10 -17
5 -9 2 -15 -3 -3 -9 -16
5 -9 2 -15 0 -3 -8 -15
5 -8 2 -15 1 -2 -7 -14
5 -7 2 -15 3 0 -7 -14
5 -7 2 -15 4 0 -6 -13
6 -6 3 -16 5 1 -5 -12
6 -6 3 -16 5 1 -5 -12
7 -6 4 -15 5 1 -4 -12
7 -6 5 -14 5 1 -3 -12
7 -6 5 -14 5 1 -3 -12
8 -5 5 -13 6 2 -2 -12
8 -4 4 -12 7 4 0 -11
8 -3 2 -11 9 6 1 -9
8 -3 0 -10 11 7 2 -8
8 -2 -3 -9 13 9 3 -7
9 0 -4 -8 14 10 4 -6
10 0 -4 -8 14 11 5 -5
11 1 -5 -7 15 12 6 -4
12 2 -5 -6 16 13 6 -3
13 2 -5 -6 16 14 7 -2
14 3 -6 -4 18 16 9 0
14 4 -6 -2 20 17 11 2
15 5 -6 1 22 19 13 4
15 6 -6 3 24 21 15 5
15 7 -6 6 26 23 17 7
16 8 -7 7 27 24 18 8
17 9 -8 8 28 26 20 10
19 10 -9 10 29 27 21 11
20 11 -9 11 30 29 23 13
21 12 -10 12 31 30 24 14
22 13 -11 13 32 31 25 15
22 14 -11 14 34 33 27 17
23 15 -12 15 36 34 29 18
23 15 -12 16 37 36 30 20
23 16 -12 17 39 37 32 21
24 17 -13 18 40 38 33 22
24 18 -13 19 40 39 35 24
25 19 -13 21 42 42 36 25
26 20 -13 22 42 43 38 27
26 21 -13 23 42 44 39 28
27 22 -14 24 43 45 40 29
27 23 -14 24 43 45 42 30
27 24 -15 24 44 46 43 31
27 24 -16 24 45 47 43 31
27 25 -16 24 45 47 44 32
28 26 -17 24 46 48 45 33
28 26 -17 24 46 48 45 33
29 26 -17 24 45 48 46 34
29 26 -17 24 45 48 46 34
29 26 -17 24 45 48 46 34
30 27 -16 23 44 49 47 35
30 27 -16 22 43 49 47 35
29 27 -16 21 42 49 47 35
29 27 -16 21 42 49 47 35
29 27 -16 20 40 49 47 35
28 28 -16 19 39 48 47 35
28 28 -16 18 38 47 47 35
28 28 -17 16 37 46 46 35
28 28 -18 15 36 46 46 35
28 28 -18 14 35 45 46 35
27 29 -19 13 34 44 45 35
26 28 -19 11 34 44 44 34
25 27 -19 10 33 43 43 33
25 27 -19 8 32 42 43 33
24 26 -19 7 32 42 42 32
23 25 -18 5 30 39 39 31
23 25 -18 4 28 37 37 29
22 25 -17 2 26 35 35 27
22 25 -17 0 24 33 33 26
22 25 -17 -3 22 31 31 24
21 24 -16 -5 21 30 30 22
20 22 -16 -7 20 28 28 20
18 20 -15 -9 19 27 27 18
17 19 -15 -11 19 26 26 16
16 17 -15 -13 18 24 24 14
15 16 -14 -14 16 22 22 12
14 15 -14 -15 14 20 19 10
13 13 -14 -17 12 17 16 8
12 12 -14 -18 10 15 13 6
11 11 -14 -19 8 13 10 4
10 10 -13 -21 7 10 7 2
9 8 -13 -23 5 8 5 0
8 7 -13 -25 3 6 3 -3
8 6 -13 -27 2 4 1 -5
7 4 -13 -30 0 2 -2 -7
6 3 -13 -31 -2 0 -4 -8
5 3 -12 -33 -4 -3 -6 -9
4 2 -10 -35 -5 -5 -8 -11
3 1 -9 -36 -6 -7 -10 -12
2 1 -8 -38 -8 -9 -12 -13
1 0 -7 -39 -9 -10 -13 -14
0 -3 -7 -40 -10 -11 -14 -15
-2 -4 -7 -41 -11 -12 -15 -16
-2 -5 -7 -43 -11 -12 -15 -16
-3 -7 -7 -44 -12 -13 -16 -17
-4 -8 -7 -45 -13 -14 -17 -18
-4 -8 -7 -45 -13 -15 -18 -19
-4 -9 -7 -46 -14 -16 -19 -20
-4 -10 -7 -47 -15 -16 -20 -20
-4 -10 -7 -47 -15 -17 -21 -21
-5 -11 -8 -48 -16 -18 -22 -22
-5 -11 -8 -49 -16 -18 -22 -23
-6 -11 -8 -50 -17 -19 -23 -24
-6 -11 -8 -50 -17 -20 -23 -24
-6 -11 -8 -51 -17 -20 -23 -25
-7 -12 -8 -52 -18 -21 -24 -26
-7 -12 -9 -52 -18 -21 -24 -26
-7 -13 -10 -52 -19 -21 -24 -26
-7 -13 -11 -52 -19 -21 -24 -26
-7 -13 -12 -52 -19 -21 -24 -26
-7 -14 -13 -51 -20 -22 -24 -26
-7 -14 -13 -51 -20 -22 -24 -26
-7 -14 -12 -51 -20 -22 -24 -26
-7 -14 -11 -51 -20 -22 -24 -26
-7 -14 -11 -51 -20 -22 -24 -26
-7 -14 -10 -50 -20 -21 -24 -25
-7 -14 -10 -50 -20 -21 -24 -25
-7 -14 -10 -49 -19 -21 -24 -25
-7 -14 -10 -49 -19 -21 -24 -25
-7 -14 -10 -49 -19 -21 -24 -25
-7 -14 -10 -48 -18 -22 -24 -26
-7 -14 -10 -48 -18 -22 -24 -26
-7 -14 -10 -48 -17 -22 -24 -25
-7 -14 -10 -48 -17 -22 -24 -25
-7 -14 -10 -48 -17 -22 -24 -25
-6 -13 -10 -47 -16 -21 -23 -24
-6 -13 -10 -47 -16 -21 -23 -24
-6 -12 -10 -46 -16 -21 -23 -24
-6 -12 -10 -46 -16 -21 -23 -24
-6 -12 -10 -46 -16 -21 -23 -24
-5 -11 -10 -45 -17 -21 -23 -25
-5 -11 -10 -45 -17 -21 -23 -25
-5 -12 -9 -44 -16 -20 -23 -24
-5 -12 -8 -43 -16 -19 -23 -24
-5 -12 -8 -43 -16 -19 -23 -24
-4 -13 -7 -41 -15 -18 -22 -23
-4 -13 -7 -41 -15 -18 -22 -23
-4 -13 -7 -40 -15 -18 -22 -23
-4 -13 -7 -40 -15 -18 -22 -23
-4 -13 -7 -40 -15 -18 -22 -23
-4 -12 -6 -39 -14 -18 -22 -22
-4 -12 -6 -39 -14 -18 -22 -22
-3 -11 -6 -39 -14 -18 -22 -22
-2 -11 -6 -39 -14 -18 -22 -22
-2 -11 -6 -39 -14 -18 -22 -22
0 -10 -6 -40 -14 -19 -21 -22
0 -10 -6 -39 -14 -19 -21 -22
0 -9 -6 -38 -14 -19 -21 -22
0 -9 -6 -38 -14 -19 -21 -22
0 -9 -6 -37 -14 -19 -21 -22
1 -8 -5 -36 -13 -18 -20 -21
1 -8 -5 -36 -13 -18 -20 -21
2 -7 -5 -36 -13 -17 -20 -20
2 -7 -5 -36 -13 -17 -20 -20
2 -7 -5 -36 -13 -17 -20 -20
3 -6 -4 -37 -12 -16 -19 -19
3 -6 -4 -37 -12 -16 -19 -19
3 -6 -4 -37 -12 -16 -19 -19
3 -6 -4 -37 -12 -16 -19 -19
3 -6 -4 -37 -12 -16 -19 -19
3 -7 -3 -36 -12 -17 -18 -19
3 -7 -3 -36 -12 -17 -18 -19
3 -7 -3 -36 -12 -17 -18 -19
4 -7 -3 -36 -12 -17 -18 -19
4 -7 -3 -36 -12 -17 -18 -19
5 -6 -3 -37 -13 -16 -18 -18
5 -6 -3 -37 -13 -16 -18 -18
5 -6 -3 -37 -13 -16 -18 -18
5 -6 -3 -38 -13 -16 -18 -18
5 -6 -3 -38 -13 -16 -18 -18
4 -7 -3 -39 -14 -15 -17 -17
4 -7 -3 -39 -14 -15 -17 -17
4 -7 -3 -39 -14 -15 -17 -17
4 -7 -3 -39 -14 -16 -17 -17
4 -7 -3 -39 -14 -16 -17 -17
4 -7 -2 -38 -15 -17 -18 -16
4 -7 -2 -37 -15 -17 -18 -16
4 -7 -2 -36 -15 -17 -18 -16
4 -7 -2 -34 -15 -17 -18 -16
4 -7 -2 -33 -15 -17 -18 -16
3 -8 -3 -32 -15 -16 -17 -17
3 -8 -3 -31 -15 -16 -17 -17
3 -8 -3 -30 -15 -16 -17 -17
3 -8 -2 -29 -16 -16 -17 -17
3 -8 -2 -28 -16 -16 -17 -17
2 -9 0 -27 -17 -17 -18 -17
2 -9 0 -25 -17 -17 -18 -17
2 -10 0 -24 -17 -17 -18 -17
1 -11 0 -23 -17 -17 -18 -17
1 -11 0 -21 -17 -17 -18 -17
0 -12 1 -20 -17 -17 -17 -16
0 -12 1 -19 -17 -17 -17 -16
0 -12 1 -18 -17 -17 -17 -16
0 -12 0 -17 -17 -17 -17 -16
0 -12 0 -16 -17 -17 -17 -16
-2 -12 -2 -15 -18 -18 -18 -16
-2 -12 -2 -13 -18 -18 -18 -16
-3 -12 -2 -11 -18 -18 -17 -16
-4 -12 0 -9 -17 -18 -16 -15
-4 -12 0 -7 -17 -18 -16 -15
-5 -13 1 -5 -15 -16 -15 -14
-6 -11 3 0 -13 -14 -14 -13
-6 -10 5 4 -11 -12 -13 -12
-7 -9 7 8 -9 -10 -11 -11
-8 -7 9 12 -7 -8 -10 -10
-9 -6 10 16 -4 -6 -9 -9
-9 -4 12 21 -2 -4 -7 -8
-9 -2 13 25 1 -2 -5 -7
-8 1 14 29 4 1 -3 -5
-8 3 16 33 6 3 0 -4
-7 5 17 37 9 6 2 -3
-7 7 18 43 12 8 4 1
-7 9 19 47 14 10 6 3
-8 11 20 51 17 13 9 5
-8 13 21 55 20 15 11 7
-9 17 23 58 23 18 14 11
-12 23 26 61 27 23 19 15
-14 28 29 63 30 27 23 20
-16 34 32 65 34 32 28 25
-18 39 35 67 38 36 32 30
-22 49 39 70 45 44 39 37
-26 61 45 73 54 54 50 47
-31 72 50 76 64 64 60 57
-35 85 55 79 74 74 71 67
-40 97 61 82 84 85 81 76
-46 110 64 84 93 95 92 87
-50 123 66 78 100 104 101 97
-55 138 67 74 108 113 110 107
-59 151 68 69 116 122 119 117
-64 165 70 65 123 132 129 128
-67 176 71 61 131 139 136 135
-69 182 73 58 136 143 140 139
-71 188 74 54 142 147 143 143
-73 194 75 51 147 151 147 147
-74 200 77 47 152 155 150 150
-76 209 70 27 152 158 154 155
-79 218 51 -14 141 158 157 160
-81 228 31 -54 131 158 159 165
-83 237 12 -95 119 158 162 171
-86 247 -8 -136 109 158 165 177
-88 257 -30 -180 92 159 169 183
-88 266 -59 -228 65 157 174 190
-89 274 -87 -277 39 155 178 198
-90 282 -114 -325 13 153 183 206
-90 292 -143 -373 -13 152 187 214
-91 296 -162 -406 -34 149 190 220
-89 293 -172 -415 -51 146 193 222
-88 288 -181 -425 -67 143 195 225
-86 285 -190 -435 -83 140 197 228
-83 281 -199 -444 -99 137 199 231
-80 279 -205 -446 -111 135 203 235
-75 278 -207 -435 -118 137 209 241
-70 277 -208 -424 -126 139 215 247
-65 275 -211 -413 -133 141 221 254
-60 274 -213 -402 -140 143 226 260
-57 274 -214 -391 -145 145 232 266
-56 278 -212 -380 -147 145 237 273
-55 283 -211 -368 -148 145 242 279
-53 287 -208 -358 -150 145 247 285
-52 292 -206 -347 -152 145 253 293
-50 293 -202 -329 -146 148 257 296
-47 285 -192 -305 -128 157 257 292
-43 279 -183 -280 -109 167 258 286
-39 273 -174 -255 -91 176 259 282
-36 266 -164 -230 -72 184 259 278
-32 244 -149 -199 -59 178 243 257
-29 200 -127 -161 -54 146 200 212
-26 155 -104 -122 -49 114 158 167
-23 111 -80 -83 -44 84 116 120
-19 67 -58 -46 -38 52 74 75
-17 34 -41 -17 -34 29 44 43
-17 19 -33 -3 -30 21 31 27
-16 3 -26 11 -26 13 18 13
-15 -14 -19 25 -22 5 6 -3
-15 -29 -12 38 -18 -5 -8 -17
-14 -40 -7 49 -15 -11 -17 -27
-15 -45 -5 52 -16 -14 -21 -31
-15 -49 -3 55 -17 -17 -25 -35
-16 -53 0 58 -18 -20 -29 -39
-17 -57 1 62 -19 -23 -33 -44
-18 -60 3 64 -20 -25 -36 -47
-18 -62 3 64 -20 -28 -39 -49
-18 -63 3 65 -21 -30 -41 -51
-19 -65 3 66 -22 -32 -44 -53
-19 -67 3 66 -22 -34 -46 -55
-20 -68 4 68 -23 -36 -48 -57
-20 -71 5 72 -23 -36 -49 -58
-20 -73 6 76 -22 -37 -50 -59
-20 -76 7 80 -21 -38 -51 -61
-20 -78 8 85 -21 -38 -52 -62
-20 -80 9 88 -20 -39 -53 -63
-20 -82 9 90 -20 -40 -54 -64
-20 -85 9 91 -20 -41 -55 -64
-20 -87 9 93 -21 -43 -56 -65
-20 -88 9 95 -21 -44 -57 -66
-21 -90 9 97 -22 -45 -58 -67
-21 -92 9 99 -22 -46 -59 -69
-21 -94 9 102 -22 -47 -60 -71
-21 -96 9 105 -23 -48 -62 -73
-21 -97 9 108 -23 -49 -63 -74
-21 -99 9 110 -24 -50 -64 -76
-21 -101 9 112 -24 -52 -66 -78
-21 -103 10 114 -25 -54 -68 -79
-21 -105 11 116 -26 -56 -70 -81
-21 -107 11 117 -26 -58 -71 -83
-20 -110 12 120 -27 -60 -73 -85
-20 -113 13 123 -27 -61 -75 -86
-19 -116 13 128 -27 -62 -76 -88
-18 -119 14 131 -27 -63 -78 -89
-18 -122 15 134 -27 -64 -79 -91
-17 -126 16 138 -28 -65 -81 -92
-17 -129 16 140 -29 -68 -85 -95
-16 -132 16 143 -30 -70 -87 -98
-15 -135 16 146 -32 -73 -89 -100
-15 -138 16 149 -33 -75 -91 -103
-14 -142 16 152 -34 -77 -93 -105
-14 -145 17 155 -34 -79 -96 -108
-13 -148 18 159 -34 -81 -98 -111
-12 -151 20 162 -34 -83 -100 -113
-12 -154 21 165 -34 -86 -102 -116
-11 -158 22 169 -35 -88 -104 -118
-11 -161 22 172 -36 -91 -107 -121
-11 -164 22 174 -36 -93 -110 -123
-10 -168 22 176 -37 -95 -112 -127
-10 -171 22 178 -38 -97 -115 -129
-9 -174 22 181 -39 -99 -117 -131
-8 -177 23 184 -39 -100 -119 -133
-8 -181 25 188 -38 -101 -120 -135
-7 -184 26 191 -37 -103 -122 -137
-6 -187 28 194 -37 -104 -123 -138
-5 -190 29 197 -36 -105 -126 -140
-5 -192 29 200 -36 -106 -127 -141
-5 -194 30 203 -36 -107 -128 -143
-5 -196 31 205 -36 -108 -129 -144
-5 -198 31 209 -36 -109 -130 -146
-5 -200 32 212 -36 -110 -131 -147
-4 -201 34 215 -35 -110 -131 -148
-3 -201 36 219 -34 -110 -132 -149
-2 -202 38 223 -33 -110 -133 -150
0 -203 40 226 -32 -110 -133 -151
1 -204 43 229 -31 -111 -134 -152
1 -204 44 231 -28 -110 -134 -152
1 -204 45 234 -26 -110 -133 -152
1 -204 46 236 -23 -109 -132 -152
1 -204 47 238 -21 -108 -132 -152
2 -204 48 240 -18 -107 -131 -151
2 -203 50 243 -15 -105 -129 -149
1 -202 53 246 -12 -103 -127 -147
0 -201 55 248 -8 -101 -124 -145
0 -200 57 252 -5 -99 -123 -143
-2 -198 59 254 -2 -97 -121 -141
-2 -195 59 254 2 -94 -118 -138
-3 -192 60 254 5 -91 -115 -135
-4 -188 61 255 8 -89 -113 -133
-4 -185 61 255 11 -86 -110 -130
-5 -181 62 256 14 -82 -107 -127
-5 -177 63 256 17 -79 -104 -123
-6 -174 63 256 21 -75 -100 -120
-7 -170 64 256 25 -71 -96 -116
-7 -165 65 256 28 -68 -93 -113
-8 -161 66 257 31 -64 -89 -109
-9 -156 66 254 33 -61 -86 -106
-11 -151 65 251 36 -58 -82 -103
-12 -146 65 248 38 -54 -78 -99
-14 -141 64 245 40 -51 -75 -96
-15 -136 63 243 43 -47 -71 -92
-17 -131 63 240 45 -43 -67 -88
-19 -126 64 237 47 -39 -63 -83
-21 -120 64 234 49 -35 -59 -79
-23 -115 65 231 51 -31 -55 -74
-25 -110 66 228 53 -28 -51 -70
-27 -105 64 222 53 -25 -48 -66
-30 -101 62 216 53 -23 -45 -63
-32 -96 61 211 53 -21 -40 -59
-34 -92 59 204 53 -18 -37 -55
-36 -87 57 199 54 -16 -34 -51
-38 -82 56 194 54 -13 -31 -48
-40 -78 55 189 53 -11 -28 -45
-43 -74 54 184 53 -9 -25 -40
-45 -69 53 179 52 -6 -22 -37
-47 -65 52 174 51 -4 -20 -34
-49 -61 50 167 49 -3 -18 -31
-50 -57 47 160 47 -2 -15 -29
-52 -53 45 154 45 0 -13 -27
-53 -49 43 148 43 1 -11 -24
-55 -46 40 142 40 2 -9 -22
-57 -43 39 137 38 2 -8 -20
-58 -39 39 133 36 3 -6 -18
-60 -37 38 128 35 3 -5 -16
-61 -34 37 123 33 4 -3 -14
-63 -32 36 118 31 5 -2 -12
-64 -30 35 114 29 5 -2 -12
-66 -28 34 110 26 5 -2 -11
-67 -27 33 106 24 5 -2 -11
-69 -25 32 102 22 5 -2 -10
-70 -23 31 99 20 4 0 -9
-71 -22 30 97 18 4 0 -9
-71 -21 30 94 17 4 0 -9
-72 -20 29 92 15 3 0 -9
-73 -19 28 90 14 3 0 -9
-74 -18 27 88 12 2 1 -9
-74 -18 27 86 11 2 1 -9
-75 -18 27 85 11 2 1 -9
-75 -18 27 82 10 1 1 -8
-76 -18 27 81 9 1 1 -8
-77 -17 26 79 8 0 0 -7
-77 -17 26 79 7 0 0 -7
-77 -17 26 79 7 0 0 -7
-77 -17 26 78 6 -2 -2 -8
-77 -17 26 78 5 -2 -2 -8
-78 -17 26 77 4 -3 -3 -9
-78 -17 26 77 4 -3 -3 -9
-78 -17 26 77 4 -4 -3 -9
-79 -17 26 77 3 -4 -3 -9
-79 -17 26 77 3 -5 -3 -9
-80 -17 26 76 2 -6 -4 -10
-80 -17 26 76 2 -6 -4 -10
-80 -18 26 76 2 -6 -4 -9
-80 -18 27 75 2 -5 -3 -9
-80 -19 27 75 2 -5 -3 -8
-81 -20 28 74 2 -4 -2 -7
-81 -20 28 74 2 -4 -2 -7
-81 -19 28 74 2 -4 -2 -7
-82 -19 28 74 2 -4 0 -7
-82 -18 28 74 2 -4 0 -7
-83 -17 27 73 3 -4 1 -6
-82 -17 27 72 3 -3 1 -6
-80 -17 26 72 3 -3 1 -6
-79 -17 26 71 3 -2 2 -6
-78 -17 25 70 3 0 2 -6
-72 -17 23 68 3 0 2 -8
-58 -17 19 62 -3 -6 -4 -12
-43 -17 14 57 -8 -10 -8 -16
-27 -17 9 51 -13 -15 -13 -20
-12 -17 5 46 -18 -20 -18 -24
0 -17 1 40 -22 -24 -22 -28
3 -17 0 40 -23 -24 -22 -28
5 -16 0 40 -23 -24 -22 -28
8 -16 -2 40 -24 -25 -23 -29
11 -15 -3 40 -25 -25 -23 -29
13 -14 -4 39 -26 -26 -24 -30
14 -14 -4 38 -26 -26 -24 -30
15 -14 -4 37 -26 -26 -24 -30
16 -14 -4 36 -26 -26 -24 -30
18 -14 -4 35 -26 -26 -24 -30
19 -15 -4 34 -25 -26 -25 -29
20 -15 -4 34 -25 -26 -25 -29
20 -15 -4 34 -25 -26 -25 -29
21 -15 -4 34 -25 -26 -25 -29
22 -15 -4 34 -25 -26 -25 -29
23 -14 -5 33 -26 -26 -24 -30
23 -14 -5 32 -26 -26 -24 -30
23 -14 -5 32 -26 -26 -24 -29
23 -14 -5 31 -26 -26 -24 -29
23 -14 -5 30 -26 -26 -24 -28
24 -14 -5 29 -27 -25 -23 -27
24 -14 -5 29 -27 -25 -23 -27
24 -14 -5 29 -27 -25 -23 -26
24 -14 -5 28 -27 -25 -23 -26
24 -14 -5 28 -27 -25 -23 -25
24 -14 -5 27 -27 -25 -22 -24
24 -14 -5 27 -27 -25 -22 -24
24 -14 -4 26 -27 -25 -22 -24
24 -15 -4 26 -27 -25 -22 -24
24 -15 -3 25 -27 -25 -22 -24
24 -16 -2 24 -27 -25 -21 -24
24 -16 -2 24 -27 -25 -21 -24
24 -16 -2 24 -27 -25 -21 -24
24 -16 -2 24 -27 -25 -21 -24
24 -16 -2 24 -27 -25 -21 -24
24 -16 0 24 -27 -25 -22 -23
24 -16 0 23 -27 -25 -22 -23
24 -15 0 22 -27 -25 -22 -24
23 -14 -2 21 -27 -25 -22 -24
23 -13 -2 20 -27 -25 -22 -25
22 -12 -3 19 -28 -26 -22 -26
22 -12 -3 19 -28 -26 -22 -25
22 -12 -3 19 -28 -26 -22 -24
23 -13 -3 19 -28 -25 -21 -23
23 -13 -3 19 -28 -25 -21 -22
24 -14 -2 19 -28 -24 -20 -21
24 -14 -2 19 -28 -24 -20 -21
23 -14 -2 19 -28 -24 -20 -21
23 -14 -2 18 -28 -24 -20 -21
22 -14 -2 18 -28 -24 -20 -21
21 -13 0 17 -28 -24 -21 -22
21 -13 0 17 -28 -24 -21 -22
21 -13 0 17 -28 -24 -20 -22
21 -13 0 17 -28 -23 -20 -22
21 -13 0 17 -28 -23 -19 -22
20 -14 -2 16 -28 -22 -18 -22
20 -14 -2 16 -28 -22 -18 -22
20 -14 -2 16 -28 -22 -18 -22
20 -13 -2 15 -28 -22 -18 -22
20 -13 -2 15 -28 -22 -18 -22
19 -12 0 14 -27 -23 -19 -21
19 -12 0 14 -27 -23 -19 -21
19 -12 0 14 -27 -23 -19 -21
19 -12 0 14 -27 -23 -19 -21
19 -12 0 14 -27 -23 -19 -21
19 -12 0 14 -26 -22 -19 -21
19 -12 0 14 -26 -22 -19 -21
19 -12 0 13 -26 -22 -19 -21
18 -12 0 13 -26 -22 -19 -21
18 -12 0 12 -26 -22 -19 -21
17 -12 -2 11 -26 -23 -18 -20
17 -12 -2 11 -26 -23 -18 -20
17 -12 -2 11 -26 -23 -18 -20
17 -12 0 11 -26 -23 -18 -20
17 -12 0 11 -26 -23 -18 -20
17 -12 1 10 -26 -22 -18 -20
17 -12 1 10 -26 -22 -18 -20
16 -12 1 9 -26 -22 -18 -20
16 -12 1 9 -26 -22 -19 -20
15 -12 1 8 -26 -22 -19 -20
14 -13 0 7 -26 -23 -20 -20
14 -13 0 7 -26 -23 -20 -20
14 -13 0 7 -26 -23 -20 -20
14 -13 0 7 -26 -22 -19 -20
14 -13 0 7 -26 -22 -19 -20
14 -12 1 7 -25 -21 -18 -20
14 -12 1 7 -25 -21 -18 -20
14 -12 1 6 -25 -21 -18 -20
13 -12 1 6 -25 -21 -18 -19
13 -12 1 5 -25 -21 -18 -19
12 -12 1 4 -24 -22 -18 -18
12 -12 1 4 -24 -22 -18 -18
12 -12 1 4 -24 -22 -18 -18
12 -11 1 4 -24 -22 -18 -19
12 -11 1 4 -24 -22 -18 -19
13 -10 1 4 -24 -21 -19 -20
13 -10 1 4 -24 -21 -19 -20
12 -10 1 3 -24 -21 -19 -20
11 -10 1 3 -23 -21 -19 -19
10 -10 1 2 -23 -21 -19 -19
9 -11 2 1 -22 -21 -18 -18
9 -11 2 1 -22 -21 -18 -18
9 -11 2 1 -22 -20 -18 -18
9 -11 2 2 -22 -20 -18 -18
9 -11 2 2 -22 -19 -18 -18
10 -11 3 3 -21 -18 -17 -17
10 -11 3 3 -21 -18 -17 -17
10 -11 3 2 -21 -18 -17 -17
10 -11 3 2 -21 -19 -17 -17
10 -11 3 1 -21 -19 -17 -17
9 -10 2 0 -21 -20 -17 -16
9 -10 2 0 -21 -20 -17 -16
9 -10 2 0 -21 -20 -17 -16
9 -10 2 0 -21 -20 -18 -17
9 -10 2 0 -21 -20 -18 -17
8 -9 2 -2 -21 -20 -19 -18
8 -9 2 -2 -21 -20 -19 -18
8 -9 2 -2 -21 -20 -19 -18
8 -9 2 -2 -21 -20 -19 -17
8 -9 2 -2 -21 -20 -19 -17
7 -8 3 -2 -20 -21 -19 -16
7 -8 3 -2 -20 -21 -19 -16
7 -8 3 -2 -20 -21 -19 -16
7 -8 3 -3 -20 -21 -18 -16
7 -8 3 -3 -20 -21 -18 -16
6 -8 2 -4 -20 -20 -17 -16
6 -8 2 -4 -20 -20 -17 -16
6 -8 2 -4 -20 -20 -17 -16
6 -8 2 -4 -20 -20 -17 -16
6 -8 2 -4 -20 -20 -17 -16
5 -9 3 -4 -20 -20 -18 -16
5 -9 3 -4 -20 -20 -18 -16
5 -9 3 -4 -20 -20 -18 -16
5 -9 3 -4 -20 -19 -18 -16
5 -9 3 -4 -20 -19 -18 -16
4 -8 3 -5 -19 -18 -18 -15
4 -8 3 -5 -19 -18 -18 -15
4 -8 3 -5 -19 -18 -18 -15
4 -8 3 -5 -19 -18 -18 -14
4 -8 3 -5 -19 -18 -18 -14
3 -8 3 -5 -19 -19 -18 -13
3 -8 3 -5 -19 -19 -18 -13
3 -8 3 -5 -19 -19 -18 -13
3 -8 3 -6 -19 -19 -18 -13
3 -8 3 -6 -19 -19 -18 -13
4 -7 2 -7 -19 -19 -17 -14
4 -7 2 -7 -19 -19 -17 -14
4 -7 3 -7 -19 -19 -17 -14
3 -7 3 -7 -19 -19 -17 -13
3 -7 4 -7 -19 -19 -17 -13
2 -6 5 -6 -18 -18 -17 -12
2 -6 5 -6 -18 -18 -17 -12
2 -6 5 -6 -18 -18 -17 -12
2 -6 4 -6 -18 -18 -16 -12
2 -6 4 -6 -18 -18 -16 -12
2 -6 3 -7 -17 -18 -15 -13
2 -6 3 -7 -17 -18 -15 -13
2 -6 3 -7 -17 -18 -15 -13
2 -6 3 -7 -17 -18 -15 -13
2 -6 3 -7 -17 -18 -15 -13
1 -7 3 -8 -16 -18 -16 -13
1 -7 3 -8 -16 -18 -16 -13
1 -7 3 -8 -16 -18 -16 -13
1 -6 3 -8 -17 -18 -16 -13
1 -6 3 -8 -17 -18 -16 -13
1 -5 3 -9 -18 -19 -17 -13
1 -5 3 -9 -18 -19 -17 -13
1 -4 3 -9 -18 -19 -17 -13
0 -4 3 -9 -18 -19 -17 -14
0 -3 3 -9 -18 -19 -17 -14
-2 -2 3 -10 -17 -19 -17 -15
-2 -2 3 -10 -17 -19 -17 -15
-2 -3 3 -10 -17 -19 -17 -14
-2 -3 3 -10 -16 -18 -16 -14
-2 -4 3 -10 -16 -18 -16 -13
-2 -5 4 -10 -15 -17 -15 -12
-2 -5 4 -10 -15 -17 -15 -12
-2 -5 4 -11 -15 -18 -15 -12
-2 -4 4 -11 -15 -18 -15 -12
-2 -4 4 -12 -15 -19 -15 -12
-3 -3 4 -13 -15 -20 -16 -11
-3 -3 4 -13 -15 -20 -16 -11
-3 -3 4 -13 -15 -19 -16 -11
-3 -3 4 -12 -15 -19 -16 -11
-3 -3 4 -12 -15 -18 -16 -11
-3 -3 4 -11 -14 -17 -16 -12
-3 -2 4 -11 -14 -17 -16 -12
-3 0 5 -11 -13 -17 -16 -12
-3 1 5 -10 -13 -17 -15 -11
-3 2 6 -10 -12 -17 -15 -11
-3 4 7 -9 -11 -16 -14 -10
-3 5 7 -9 -10 -16 -13 -9
-3 6 8 -9 -9 -15 -12 -8
-3 8 9 -8 -8 -14 -11 -7
-3 9 10 -8 -7 -13 -10 -6
-2 11 11 -7 -6 -12 -9 -5
-2 12 11 -7 -6 -12 -9 -5
-2 13 11 -7 -6 -12 -9 -5
-3 14 11 -7 -6 -11 -9 -5
-3 15 11 -7 -6 -11 -9 -5
-4 17 11 -8 -6 -10 -8 -4
-4 19 12 -6 -5 -10 -8 -4
-4 20 13 -5 -3 -9 -7 -3
-4 22 15 -3 -2 -8 -6 -2
-4 24 16 0 1 -7 -5 0
-4 26 18 2 3 -6 -4 1
-4 28 17 2 4 -4 -3 2
-4 30 16 2 6 -2 0 4
-4 32 14 2 7 1 2 6
-4 35 13 2 9 3 4 8
-4 37 11 2 11 5 6 10
-4 37 9 0 10 4 6 10
-3 36 6 -4 8 3 5 9
-3 35 4 -6 7 1 4 9
-2 34 2 -8 5 0 3 8
0 33 -2 -11 3 -3 2 7
0 31 -2 -11 3 -3 2 7
0 28 -2 -11 2 -4 1 6
0 25 -2 -12 2 -4 0 6
0 23 -2 -12 1 -5 -2 5
-2 20 0 -13 0 -6 -3 4
-2 18 0 -13 0 -7 -4 3
-2 16 1 -13 0 -8 -5 2
-3 14 2 -13 -2 -9 -6 0
-3 11 3 -13 -2 -10 -7 -2
-4 9 4 -12 -3 -11 -8 -4
-4 8 4 -13 -4 -12 -8 -4
-5 6 4 -14 -5 -13 -9 -5
-6 4 4 -15 -6 -14 -10 -6
-7 2 4 -16 -7 -15 -11 -7
-8 0 4 -17 -9 -16 -12 -8
-8 0 4 -17 -9 -16 -12 -8
-8 0 4 -17 -9 -16 -13 -8
-8 -2 4 -17 -10 -17 -13 -8
-8 -2 4 -17 -10 -17 -14 -8
-9 -3 5 -18 -11 -18 -15 -9
-9 -3 5 -18 -11 -18 -15 -9
-9 -3 5 -18 -11 -18 -15 -9
-9 -4 5 -19 -11 -18 -15 -9
-9 -4 5 -19 -11 -18 -15 -9
-10 -5 5 -20 -10 -17 -16 -9
-10 -5 5 -20 -10 -17 -16 -9
-10 -5 5 -19 -10 -17 -16 -9
-10 -5 5 -19 -9 -16 -16 -9
-10 -5 5 -18 -9 -16 -16 -9
-10 -6 5 -17 -8 -15 -16 -10
-10 -6 5 -17 -8 -15 -16 -10
-10 -6 5 -17 -8 -15 -16 -9
-10 -6 5 -17 -8 -15 -16 -9
-10 -6 5 -17 -8 -15 -16 -8
-10 -5 5 -18 -8 -16 -15 -7
-10 -6 5 -17 -8 -16 -15 -8
-10 -7 6 -15 -8 -16 -15 -9
-10 -8 6 -14 -8 -16 -15 -10
-10 -9 7 -12 -8 -16 -15 -11
-9 -10 8 -9 -9 -17 -16 -13
-7 -10 13 8 3 -14 -16 -13
-5 -10 17 25 14 -10 -15 -13
-2 -9 22 42 25 -6 -14 -14
1 -9 27 59 35 -3 -13 -14
4 -8 32 75 48 2 -12 -15
8 0 34 80 63 17 3 -3
12 8 37 87 79 32 17 10
16 15 39 92 95 48 31 22
20 23 43 97 111 63 46 33
24 31 45 100 127 78 61 48
23 64 28 42 123 108 98 87
21 97 11 -18 119 138 135 126
20 130 -6 -76 115 168 173 164
18 162 -23 -135 112 197 210 203
16 192 -39 -192 108 226 245 240
8 175 -52 -216 95 219 233 227
0 156 -65 -239 81 212 222 215
-9 139 -77 -263 68 203 211 202
-17 120 -90 -286 56 196 198 189
-25 103 -102 -309 40 186 184 175
-35 85 -103 -312 -12 118 122 122
-46 66 -105 -315 -63 51 61 71
-55 49 -107 -318 -115 -16 0 20
-65 30 -109 -321 -166 -83 -62 -32
-75 13 -111 -322 -216 -148 -121 -81
-65 12 -98 -280 -187 -129 -106 -71
-56 11 -86 -237 -157 -109 -90 -60
-46 10 -73 -195 -129 -90 -74 -50
-36 9 -60 -152 -100 -70 -59 -38
-26 8 -48 -111 -71 -51 -44 -28
-23 6 -39 -95 -60 -45 -39 -26
-20 4 -31 -77 -50 -38 -34 -23
-17 2 -23 -61 -38 -32 -29 -20
-14 0 -14 -45 -28 -25 -25 -17
-10 -3 -6 -28 -17 -19 -20 -14
-10 -3 -5 -25 -16 -19 -20 -14
-9 -3 -4 -22 -15 -19 -20 -14
-9 -3 -2 -19 -14 -19 -20 -15
-8 -3 0 -16 -13 -19 -20 -15
-7 -4 2 -13 -12 -20 -21 -16
-7 -4 2 -12 -11 -19 -21 -16
-7 -5 2 -11 -10 -18 -21 -16
-6 -5 3 -9 -8 -17 -20 -16
-6 -6 3 -8 -7 -16 -20 -16
-5 -7 4 -6 -5 -15 -19 -15
-5 -7 4 -6 -5 -15 -19 -15
-5 -8 4 -5 -5 -15 -18 -15
-5 -8 4 -4 -5 -15 -18 -14
-5 -9 4 -3 -5 -15 -17 -14
-4 -10 4 -2 -4 -14 -16 -13
-4 -10 4 -2 -3 -14 -16 -13
-4 -10 4 0 -2 -13 -15 -12
-3 -10 5 0 0 -12 -15 -12
-3 -10 5 1 1 -11 -14 -11
-2 -10 6 2 2 -10 -13 -10
-2 -10 6 2 2 -10 -13 -10
-2 -11 6 2 2 -10 -13 -9
-2 -11 7 3 3 -9 -12 -9
-2 -12 7 3 3 -9 -12 -8
0 -13 8 4 4 -8 -11 -7
0 -13 8 4 4 -8 -11 -7
0 -13 8 4 5 -7 -10 -7
1 -13 8 5 6 -7 -9 -6
1 -13 8 5 7 -6 -8 -6
2 -13 7 6 8 -5 -7 -5
2 -13 7 6 8 -5 -7 -5
2 -13 7 6 8 -4 -7 -5
2 -12 7 6 9 -4 -7 -4
2 -12 7 6 9 -3 -7 -4
2 -11 7 7 10 -2 -6 -3
2 -11 7 7 10 -2 -6 -3
2 -11 7 7 10 -2 -6 -3
2 -11 7 8 11 0 -6 -3
2 -11 7 8 11 0 -6 -3
2 -12 7 9 12 1 -5 -3
2 -12 7 9 13 2 -4 -3
3 -12 7 9 14 3 -3 -2
3 -11 7 10 15 4 -2 0
4 -11 7 10 16 5 0 1
5 -10 6 11 18 7 2 2
5 -10 6 12 19 8 3 3
5 -10 6 13 20 9 5 5
6 -10 6 14 21 10 6 7
6 -10 6 15 22 11 8 9
7 -11 6 17 23 13 10 11
7 -11 6 17 23 13 10 11
7 -11 5 18 24 14 10 11
7 -11 5 19 25 14 10 12
7 -11 4 20 26 15 10 12
7 -11 4 20 26 15 10 12
8 -11 3 22 28 17 12 14
8 -10 3 23 29 19 14 15
9 -10 3 24 30 21 16 17
9 -9 3 25 31 23 18 18
9 -9 3 26 32 24 20 19
10 -8 2 28 34 26 22 21
11 -7 2 29 35 27 23 22
12 -7 1 31 37 29 25 24
13 -6 1 32 38 30 26 25
13 -6 1 33 39 31 27 26
14 -5 0 35 42 32 28 27
15 -5 0 36 43 33 29 27
15 -4 0 37 44 33 29 27
16 -4 0 38 45 34 30 27
16 -4 0 39 46 34 30 27
17 -3 -2 42 48 36 32 30
17 -2 -2 43 49 38 34 32
18 0 -2 44 50 40 36 34
18 1 -2 45 51 43 38 36
18 1 -2 46 52 44 40 38
19 2 0 48 53 45 42 39
19 2 -2 49 54 46 43 40
20 2 -2 50 54 47 44 42
20 2 -3 51 55 48 45 43
20 2 -3 52 55 49 45 43
21 3 -4 53 56 50 46 44
21 4 -4 53 56 50 47 44
21 5 -4 53 56 50 47 45
21 6 -4 53 56 50 48 45
21 6 -4 53 56 50 48 45
20 7 -3 54 56 50 49 46
20 7 -3 54 55 50 49 46
21 7 -3 54 54 49 49 47
21 7 -3 54 53 49 49 47
21 7 -3 54 52 49 49 47
22 7 -3 54 50 48 50 48
22 8 -3 53 49 48 49 48
22 9 -4 52 48 47 49 47
22 10 -4 51 47 47 48 47
22 10 -4 50 46 47 48 47
22 11 -5 48 44 46 47 46
21 11 -5 47 43 45 47 46
20 10 -5 45 42 44 47 46
19 10 -5 44 40 43 47 46
19 10 -5 43 39 43 47 46
18 9 -5 40 37 42 46 45
18 10 -5 38 36 40 45 44
18 10 -5 37 34 39 44 44
18 11 -5 35 33 38 43 43
18 11 -5 34 32 37 42 43
18 12 -6 32 30 36 40 42
17 11 -6 30 29 35 39 40
17 11 -6 29 27 34 38 39
16 10 -6 27 26 33 37 38
16 10 -6 26 25 32 36 37
15 9 -6 24 23 30 34 35
14 8 -6 22 22 29 32 34
13 8 -6 20 21 27 31 33
12 7 -6 18 20 26 29 32
12 7 -6 17 19 25 28 31
11 5 -5 15 17 23 26 29
10 4 -4 13 16 22 24 27
9 3 -4 11 15 20 23 25
8 2 -3 9 14 19 21 23
8 1 -3 8 13 18 20 21
7 0 -2 6 11 16 18 19
6 -2 -2 5 10 14 16 17
5 -3 -2 3 8 12 14 15
4 -4 -2 2 7 10 12 13
4 -4 -2 1 6 9 10 12
3 -5 0 -2 4 8 8 10
2 -5 0 -3 3 7 6 9
1 -5 0 -4 2 6 5 7
0 -5 0 -5 1 5 3 6
0 -5 0 -6 0 5 2 5
-2 -5 0 -7 -2 3 1 4
-2 -7 0 -8 -3 2 0 3
-2 -8 0 -9 -4 1 -2 2
-2 -10 0 -10 -5 0 -3 1
-2 -11 0 -11 -5 -2 -3 1
-3 -12 1 -12 -6 -3 -4 0
-3 -12 1 -12 -7 -4 -4 -2
-3 -12 1 -12 -7 -4 -5 -2
-3 -12 1 -12 -8 -5 -5 -3
-3 -12 1 -12 -8 -5 -5 -3
-4 -13 2 -13 -9 -6 -6 -4
-4 -14 2 -13 -9 -7 -7 -5
-4 -14 2 -13 -9 -7 -8 -6
-4 -15 2 -13 -9 -8 -9 -7
-4 -15 2 -13 -9 -8 -9 -7
-5 -16 2 -14 -10 -9 -10 -8
-5 -16 2 -14 -10 -9 -10 -8
-5 -15 2 -14 -10 -9 -10 -8
-5 -15 2 -14 -10 -9 -10 -8
-5 -15 2 -14 -10 -9 -10 -8
-5 -14 3 -13 -10 -10 -10 -8
-5 -14 3 -13 -10 -10 -10 -8
-5 -14 3 -12 -9 -10 -10 -9
-5 -14 3 -12 -9 -10 -10 -9
-5 -14 3 -12 -9 -10 -10 -9
-6 -15 3 -11 -8 -9 -11 -10
-6 -15 3 -11 -8 -9 -11 -10
-6 -15 3 -10 -8 -9 -12 -10
-6 -15 3 -10 -8 -9 -12 -10
-6 -15 3 -10 -8 -9 -12 -10
-6 -15 3 -9 -7 -9 -13 -11
-6 -15 3 -9 -7 -9 -13 -11
-6 -15 3 -9 -7 -9 -12 -11
-6 -15 3 -9 -7 -9 -12 -11
-6 -15 3 -9 -7 -9 -12 -11
-6 -15 3 -10 -7 -9 -11 -10
-6 -15 3 -9 -7 -9 -12 -10
-6 -15 3 -9 -7 -10 -12 -11
-6 -15 3 -8 -7 -10 -13 -11
-6 -15 3 -8 -7 -10 -13 -11
-6 -14 3 -7 -7 -11 -14 -12
-6 -14 3 -7 -7 -11 -14 -12
-6 -13 3 -7 -7 -11 -14 -12
-6 -13 3 -7 -7 -11 -14 -12
-6 -13 3 -7 -7 -11 -14 -12
-5 -12 3 -8 -6 -11 -14 -13
-5 -12 3 -8 -6 -11 -14 -13
-5 -12 3 -8 -6 -11 -14 -13
-5 -12 3 -8 -6 -11 -14 -13
-5 -12 3 -8 -6 -11 -14 -13
-6 -11 2 -7 -7 -10 -13 -13
-6 -11 2 -7 -7 -10 -13 -13
-6 -11 2 -7 -7 -10 -13 -12
-6 -11 2 -7 -7 -10 -13 -12
-6 -11 2 -7 -7 -10 -13 -12
-5 -10 3 -7 -7 -10 -12 -11
-5 -10 3 -7 -7 -10 -13 -11
-5 -10 3 -7 -7 -11 -13 -12
-5 -10 3 -7 -7 -11 -14 -12
-5 -10 3 -7 -7 -11 -14 -12
-6 -11 2 -8 -8 -12 -15 -13
-6 -11 2 -8 -8 -12 -15 -13
-6 -11 2 -8 -9 -13 -15 -13
-6 -11 2 -8 -9 -13 -15 -13
-6 -11 2 -8 -9 -13 -15 -13
-5 -10 2 -9 -10 -14 -15 -14
-5 -10 2 -10 -11 -14 -15 -14
-4 -10 2 -10 -11 -14 -15 -14
-4 -10 2 -11 -12 -14 -15 -14
-4 -10 2 -11 -12 -14 -15 -14
-3 -10 1 -12 -13 -15 -15 -14
-3 -10 1 -12 -13 -15 -15 -14
-4 -10 1 -13 -13 -15 -15 -14
-4 -10 1 -13 -13 -15 -15 -14
-4 -10 1 -13 -13 -15 -15 -14
-5 -10 1 -14 -13 -16 -15 -15
-5 -10 1 -14 -13 -16 -15 -15
-5 -10 1 -14 -14 -16 -15 -15
-5 -10 1 -14 -14 -16 -15 -15
-5 -10 1 -14 -14 -16 -15 -15
-5 -11 2 -13 -15 -16 -16 -15
-5 -11 2 -13 -15 -16 -16 -15
-5 -11 2 -14 -15 -16 -16 -15
-5 -11 2 -14 -15 -16 -16 -15
-5 -11 2 -14 -15 -16 -16 -15
-6 -12 2 -15 -16 -17 -15 -15
-6 -12 2 -15 -16 -17 -15 -15
-6 -12 2 -15 -16 -17 -15 -14
-6 -12 2 -15 -16 -17 -15 -14
-6 -12 2 -15 -16 -17 -15 -14
-6 -12 4 -13 -15 -16 -14 -13
-6 -11 7 -10 -12 -14 -13 -12
-6 -10 9 -6 -10 -12 -12 -12
-6 -9 11 -3 -8 -11 -11 -11
-6 -8 13 2 -6 -9 -10 -11
-6 -5 15 6 -3 -6 -7 -9
-6 -2 17 10 1 -4 -5 -7
-5 2 19 15 5 0 -3 -5
-5 5 20 19 8 3 1 -4
-5 8 22 23 11 5 3 -2
-4 12 24 27 15 8 6 2
-3 15 26 31 18 11 9 5
-3 19 28 35 22 15 12 7
-2 22 29 40 25 18 15 10
-2 26 31 45 29 21 18 13
0 31 32 46 32 25 22 18
-2 37 33 45 34 29 27 22
-3 44 34 45 37 32 31 27
-4 50 35 44 40 36 35 32
-5 56 35 44 43 40 40 37
-9 68 39 43 50 49 49 46
-13 82 44 42 57 57 57 54
-17 96 47 40 65 65 65 63
-21 110 51 39 72 74 74 72
-25 123 55 38 79 82 82 80
-29 141 56 28 87 92 92 91
-33 159 55 16 93 101 101 101
-36 178 55 5 99 110 110 112
-40 195 54 -7 105 118 119 122
-45 214 54 -19 111 128 129 133
-47 222 49 -36 112 131 132 137
-48 228 43 -56 111 132 134 140
-49 235 36 -75 110 133 136 142
-51 241 30 -95 109 134 138 145
-52 247 24 -114 108 135 140 148
-53 254 9 -140 99 134 141 150
-54 259 -10 -168 90 131 140 151
-55 264 -28 -194 79 128 139 153
-56 269 -47 -221 70 125 138 155
-57 275 -65 -247 60 121 138 156
-58 281 -91 -284 32 117 137 160
-59 287 -118 -322 1 112 138 163
-59 294 -145 -361 -30 108 139 168
-60 300 -173 -400 -62 104 140 172
-60 306 -200 -438 -93 99 140 176
-61 305 -211 -450 -112 96 141 177
-61 301 -218 -457 -130 92 141 177
-61 297 -225 -464 -147 89 142 177
-61 292 -232 -471 -164 85 142 177
-61 287 -239 -477 -182 81 142 177
-59 283 -241 -472 -192 80 145 180
-55 278 -241 -463 -201 78 147 183
-51 274 -241 -453 -211 77 150 187
-48 270 -241 -443 -221 76 152 190
-44 265 -241 -434 -230 75 155 193
-41 263 -238 -424 -235 73 157 195
-40 261 -234 -413 -238 72 158 197
-38 259 -230 -402 -242 71 160 199
-36 258 -226 -392 -246 69 162 200
-35 256 -222 -381 -251 68 163 202
-32 247 -212 -359 -235 73 165 201
-29 239 -199 -336 -214 82 169 198
-27 230 -187 -312 -192 91 171 196
-24 221 -175 -287 -171 100 174 193
-21 212 -163 -264 -149 108 176 190
-18 183 -143 -231 -133 94 153 164
-16 151 -120 -197 -118 73 125 133
-13 118 -99 -162 -103 52 96 101
-11 86 -76 -128 -88 31 66 70
-8 53 -55 -94 -72 10 37 38
-6 32 -43 -73 -62 2 23 21
-5 14 -32 -56 -53 -5 12 8
-4 -4 -22 -38 -44 -10 1 -7
-2 -21 -12 -22 -33 -16 -11 -20
0 -38 -2 -5 -24 -21 -22 -34
1 -45 2 2 -22 -24 -27 -38
2 -48 4 5 -21 -26 -29 -41
3 -51 6 8 -20 -28 -32 -44
4 -54 7 11 -19 -30 -34 -47
4 -57 9 14 -19 -32 -37 -49
5 -60 11 16 -18 -33 -39 -50
5 -63 12 18 -17 -34 -40 -52
5 -66 13 21 -16 -35 -41 -53
5 -69 15 23 -15 -36 -44 -54
5 -72 16 25 -15 -37 -45 -55
4 -74 17 27 -14 -38 -46 -56
5 -75 18 29 -14 -38 -47 -58
5 -76 18 31 -13 -39 -47 -59
6 -78 19 33 -13 -39 -48 -60
6 -79 19 35 -13 -39 -48 -61
7 -81 20 37 -12 -40 -50 -62
7 -85 21 39 -12 -41 -51 -62
7 -87 22 42 -12 -43 -52 -63
7 -90 23 44 -12 -44 -54 -63
7 -92 24 46 -12 -45 -55 -63
7 -94 25 48 -11 -46 -56 -64
8 -96 26 51 -10 -46 -56 -65
9 -99 27 53 -10 -47 -57 -66
10 -101 28 56 -9 -47 -57 -67
10 -103 29 58 -9 -47 -57 -68
11 -105 30 60 -8 -48 -58 -69
11 -107 31 63 -8 -49 -60 -70
12 -110 32 65 -7 -50 -61 -71
12 -112 33 68 -7 -51 -62 -72
12 -114 33 70 -7 -51 -63 -73
13 -117 35 73 -6 -52 -64 -74
14 -119 36 77 -5 -53 -65 -76
15 -122 37 81 -4 -54 -66 -77
16 -126 39 85 -3 -55 -67 -78
17 -129 40 89 -3 -55 -67 -79
18 -132 42 92 -2 -57 -69 -81
19 -135 43 96 0 -58 -70 -82
20 -138 44 100 0 -59 -71 -85
21 -142 45 104 1 -61 -73 -87
21 -145 46 108 1 -62 -74 -88
22 -148 48 112 2 -63 -76 -90
23 -150 49 116 3 -64 -77 -91
24 -153 51 121 4 -65 -78 -93
25 -156 53 126 5 -66 -80 -95
26 -159 54 130 6 -66 -81 -96
27 -162 56 135 7 -68 -83 -98
28 -166 57 139 8 -69 -85 -100
28 -170 59 143 9 -71 -87 -101
29 -174 61 147 10 -73 -89 -103
29 -178 62 152 10 -74 -90 -105
30 -180 64 156 12 -75 -91 -106
32 -182 66 160 14 -75 -91 -108
33 -185 67 165 15 -75 -92 -109
34 -187 69 170 17 -75 -92 -110
35 -189 71 174 19 -75 -92 -111
36 -191 73 178 21 -76 -93 -112
37 -193 74 182 23 -76 -95 -114
37 -196 75 185 25 -77 -96 -115
38 -198 77 189 27 -77 -97 -116
38 -200 78 193 29 -77 -98 -117
39 -201 80 196 31 -78 -99 -118
40 -202 81 199 33 -78 -99 -119
40 -203 84 203 36 -78 -99 -119
42 -204 86 206 38 -78 -99 -120
42 -204 87 211 40 -78 -99 -120
43 -205 88 213 44 -77 -100 -121
44 -205 89 215 46 -76 -99 -121
45 -205 89 216 49 -75 -99 -120
46 -205 90 218 52 -73 -98 -120
46 -205 90 220 55 -72 -98 -120
47 -203 91 221 58 -70 -96 -118
47 -201 91 221 60 -68 -94 -117
47 -198 92 222 63 -65 -92 -115
47 -196 92 222 66 -63 -90 -114
47 -194 92 222 69 -61 -88 -112
46 -192 93 223 72 -58 -85 -110
46 -189 93 222 75 -55 -82 -107
45 -187 93 221 78 -52 -79 -104
45 -185 93 221 81 -49 -76 -102
45 -182 93 220 85 -46 -73 -99
44 -178 93 217 87 -43 -70 -96
43 -174 92 215 89 -40 -68 -93
43 -169 91 212 92 -37 -65 -90
42 -164 91 209 94 -34 -62 -87
42 -160 90 205 96 -31 -59 -82
40 -155 88 201 97 -29 -56 -79
38 -149 86 197 98 -26 -54 -76
37 -144 84 192 99 -24 -51 -73
36 -138 81 188 99 -22 -48 -70
35 -133 79 184 100 -19 -45 -67
34 -128 77 179 101 -17 -43 -64
32 -123 75 173 101 -15 -39 -62
31 -118 74 168 101 -12 -36 -59
30 -113 72 161 101 -10 -34 -56
29 -109 70 156 101 -8 -31 -53
27 -104 68 150 98 -7 -30 -51
26 -99 66 143 96 -6 -28 -49
24 -94 63 136 93 -5 -27 -47
23 -89 61 130 90 -5 -26 -45
21 -83 59 122 87 -4 -25 -43
20 -79 57 116 84 -3 -23 -40
18 -75 55 110 80 -3 -21 -37
17 -71 53 104 77 -2 -19 -35
16 -67 51 98 74 -2 -17 -33
15 -63 49 92 70 -2 -15 -30
14 -59 47 86 67 0 -14 -28
13 -56 46 80 63 0 -14 -26
12 -53 44 74 60 1 -14 -25
12 -50 43 69 56 1 -14 -23
11 -46 40 63 53 1 -14 -21
10 -43 38 58 49 2 -13 -20
9 -40 36 54 46 1 -13 -20
8 -37 34 49 42 1 -12 -19
7 -34 32 44 38 0 -12 -19
6 -31 30 39 34 0 -12 -19
5 -30 29 35 31 -2 -11 -18
4 -28 27 32 28 -3 -11 -18
3 -27 26 29 25 -4 -11 -17
3 -25 25 26 22 -5 -11 -17
2 -24 24 22 19 -6 -11 -17
1 -23 23 21 17 -7 -11 -16
1 -22 23 19 15 -8 -11 -16
1 -22 23 18 14 -8 -11 -15
1 -21 23 16 12 -9 -11 -15
1 -21 23 15 10 -9 -11 -15
0 -20 22 14 9 -10 -11 -14
0 -20 22 12 7 -12 -12 -15
0 -19 21 11 6 -13 -13 -16
0 -19 21 10 4 -14 -14 -16
0 -19 21 9 3 -15 -15 -17
-2 -18 20 8 2 -16 -16 -18
-2 -18 20 8 2 -16 -16 -18
-2 -19 19 8 1 -17 -17 -19
-2 -19 19 8 1 -17 -17 -19
-2 -19 19 8 1 -17 -17 -19
-3 -20 18 9 0 -18 -18 -20
-3 -20 18 9 0 -19 -18 -20
-3 -20 19 9 -2 -19 -18 -21
-3 -20 19 9 -2 -20 -18 -21
-3 -20 19 9 -2 -20 -18 -21
-4 -21 20 8 -3 -21 -18 -22
-4 -21 20 8 -3 -21 -18 -22
-4 -21 20 9 -3 -21 -19 -22
-4 -21 20 9 -3 -21 -19 -22
-4 -21 20 9 -3 -21 -19 -22
-3 -20 19 10 -4 -21 -20 -23
-3 -20 19 10 -4 -21 -20 -23
-3 -20 19 10 -4 -21 -20 -23
-3 -20 19 10 -4 -21 -20 -23
-3 -20 19 10 -4 -21 -20 -23
-4 -21 20 9 -4 -21 -19 -24
-4 -20 20 9 -4 -21 -19 -24
-4 -20 20 9 -4 -21 -19 -24
-4 -19 20 9 -4 -21 -19 -24
-4 -19 20 9 -4 -21 -19 -24
-4 -18 19 9 -4 -20 -18 -23
-4 -18 19 9 -4 -20 -18 -23
-4 -18 19 9 -4 -20 -18 -23
-4 -18 19 9 -4 -20 -18 -23
-4 -18 19 9 -4 -20 -18 -23
-4 -18 18 8 -4 -21 -18 -23
-4 -18 18 8 -4 -20 -17 -23
-4 -17 18 8 -4 -19 -17 -23
-4 -17 18 8 -4 -19 -16 -23
-4 -17 18 8 -4 -18 -16 -23
-3 -16 17 8 -5 -17 -15 -22
-3 -16 17 8 -5 -17 -15 -22
-3 -16 17 8 -5 -17 -15 -22
-3 -16 17 8 -5 -17 -15 -22
-3 -16 17 8 -5 -17 -15 -22
-3 -15 18 8 -4 -17 -16 -21
-3 -14 18 8 -4 -17 -16 -21
-3 -14 18 8 -4 -17 -16 -21
-3 -13 18 8 -4 -17 -16 -21
-3 -13 18 8 -4 -17 -16 -21
-3 -12 18 7 -5 -18 -16 -22
-3 -12 18 7 -5 -18 -16 -22
-3 -12 18 7 -5 -18 -16 -21
-3 -12 18 7 -5 -18 -16 -21
-3 -12 18 7 -5 -18 -16 -21
-3 -13 19 8 -4 -17 -15 -20
-3 -13 19 8 -4 -17 -15 -20
-3 -12 19 7 -5 -17 -15 -20
-3 -11 19 7 -5 -17 -15 -20
-3 -11 19 7 -5 -17 -15 -20
-3 -10 19 6 -6 -18 -15 -21
-3 -10 19 6 -6 -18 -15 -21
-3 -11 19 6 -6 -18 -15 -21
-3 -11 19 6 -6 -18 -15 -21
-3 -11 19 6 -6 -18 -15 -21
-3 -12 18 6 -7 -17 -15 -20
-3 -12 18 6 -7 -17 -15 -20
-3 -12 18 5 -7 -17 -15 -20
-3 -12 18 5 -7 -17 -15 -20
-3 -12 18 5 -7 -17 -15 -20
-3 -11 18 4 -8 -18 -16 -20
-3 -11 18 4 -8 -18 -16 -20
-3 -11 19 4 -8 -18 -16 -20
-3 -11 19 4 -8 -18 -16 -20
-3 -11 19 4 -8 -18 -16 -20
-4 -12 20 3 -9 -18 -16 -20
-4 -12 20 3 -9 -18 -16 -20
-4 -12 19 2 -9 -18 -16 -20
-4 -12 19 2 -9 -18 -16 -20
-4 -12 19 2 -9 -18 -16 -20
-3 -11 18 1 -10 -18 -16 -19
-3 -11 18 1 -10 -18 -16 -19
-3 -11 18 1 -10 -18 -16 -19
-3 -11 18 1 -10 -18 -16 -19
-3 -11 18 1 -10 -18 -16 -19
-4 -12 18 2 -10 -18 -15 -20
-4 -12 18 2 -10 -18 -15 -20
-4 -12 18 2 -10 -18 -15 -20
-4 -12 18 2 -10 -18 -15 -20
-4 -12 18 2 -10 -18 -15 -20
-4 -12 19 1 -11 -18 -15 -19
-4 -12 19 1 -11 -18 -15 -19
-4 -12 19 1 -10 -18 -15 -19
-4 -12 19 1 -10 -18 -15 -19
-4 -12 19 1 -10 -18 -15 -19
-4 -12 18 0 -9 -17 -14 -19
-4 -12 18 0 -9 -17 -14 -19
-4 -11 18 0 -9 -17 -14 -19
-4 -11 18 0 -9 -17 -14 -19
-4 -11 18 0 -9 -17 -14 -19
-4 -10 18 1 -10 -16 -14 -18
-4 -10 18 1 -10 -16 -14 -18
-4 -10 18 1 -10 -16 -14 -18
-4 -10 18 1 -10 -16 -14 -18
-4 -10 18 1 -10 -16 -14 -18
-4 -11 17 0 -10 -17 -14 -18
-4 -11 17 0 -10 -17 -14 -18
-4 -11 17 0 -10 -17 -14 -18
-4 -11 17 0 -10 -17 -14 -18
-4 -11 17 0 -10 -17 -14 -18
-4 -10 16 0 -11 -17 -14 -18
-4 -10 16 0 -11 -17 -14 -18
-4 -10 16 0 -11 -17 -15 -19
-4 -10 16 0 -11 -17 -15 -19
-4 -10 16 0 -11 -17 -15 -19
-4 -10 16 -2 -12 -18 -16 -20
-4 -9 16 -2 -12 -18 -16 -20
-4 -8 16 -3 -12 -18 -16 -20
-4 -8 16 -3 -12 -18 -16 -20
-4 -7 16 -3 -12 -18 -16 -20
-4 -6 15 -4 -13 -18 -16 -20
-4 -6 15 -4 -13 -18 -16 -20
-4 -7 15 -4 -13 -18 -16 -20
-4 -8 15 -4 -13 -18 -16 -20
-4 -8 15 -4 -13 -18 -16 -20
-4 -9 16 -3 -12 -18 -16 -19
-4 -9 16 -3 -12 -18 -16 -19
-4 -9 16 -3 -12 -18 -16 -19
-4 -9 16 -3 -12 -18 -16 -19
-4 -9 16 -3 -12 -18 -16 -19
-4 -8 15 -4 -11 -18 -15 -20
-4 -8 15 -4 -11 -18 -15 -20
-4 -8 15 -4 -11 -18 -15 -20
-4 -8 15 -4 -11 -18 -15 -20
-4 -8 15 -4 -11 -18 -15 -20
-4 -7 14 -4 -12 -19 -15 -19
-4 -7 14 -4 -12 -19 -15 -19
-4 -6 14 -4 -12 -19 -15 -19
-4 -6 14 -4 -12 -19 -15 -19
-4 -6 14 -4 -12 -19 -15 -19
-5 -5 14 -4 -12 -18 -16 -19
-5 -5 14 -4 -12 -18 -16 -19
-5 -5 14 -4 -12 -18 -16 -19
-5 -5 14 -4 -12 -18 -16 -19
-5 -5 14 -4 -12 -18 -16 -19
-4 -5 13 -4 -12 -18 -17 -18
-4 -5 13 -4 -12 -18 -17 -18
-4 -4 13 -4 -12 -18 -17 -18
-4 -4 13 -4 -12 -18 -17 -18
-4 -4 13 -4 -12 -18 -17 -18
-4 -3 13 -4 -12 -18 -16 -19
-4 -3 13 -4 -12 -18 -16 -19
-4 -3 14 -4 -12 -18 -16 -19
-4 -3 14 -4 -12 -18 -16 -19
-4 -3 14 -4 -12 -18 -16 -19
-4 -4 15 -5 -13 -18 -17 -19
-4 -4 15 -5 -13 -18 -17 -19
-4 -4 15 -5 -13 -18 -17 -19
-4 -4 15 -5 -13 -18 -17 -19
-4 -4 15 -5 -13 -18 -17 -19
-4 -4 15 -4 -13 -18 -16 -18
-4 -4 15 -4 -13 -18 -16 -18
-4 -4 15 -4 -13 -18 -16 -18
-4 -4 15 -4 -13 -18 -16 -18
-4 -4 15 -4 -13 -18 -16 -18
-5 -4 14 -5 -14 -19 -16 -19
-5 -4 14 -5 -14 -19 -16 -19
-4 -4 14 -5 -14 -19 -16 -19
-3 -4 14 -5 -14 -19 -16 -19
-3 -4 14 -5 -14 -19 -16 -19
-2 -4 14 -4 -14 -18 -16 -18
-2 -4 14 -4 -14 -18 -16 -18
-3 -4 14 -4 -14 -18 -16 -18
-3 -4 14 -4 -14 -18 -16 -18
-3 -4 14 -4 -14 -18 -16 -18
-4 -5 14 -5 -13 -17 -16 -18
-4 -5 14 -5 -13 -17 -16 -18
-4 -5 14 -5 -13 -17 -16 -18
-4 -5 14 -5 -13 -17 -16 -18
-4 -5 14 -5 -13 -17 -16 -18
-4 -6 14 -4 -14 -18 -16 -18
-4 -6 14 -4 -14 -18 -16 -18
-4 -6 14 -4 -14 -18 -16 -18
-4 -6 14 -4 -14 -18 -16 -18
-4 -6 14 -4 -14 -18 -16 -18
-5 -5 15 -4 -13 -18 -16 -18
-5 -5 15 -4 -13 -18 -16 -18
-5 -5 15 -4 -13 -18 -16 -18
-5 -5 15 -4 -13 -18 -16 -18
-5 -5 15 -4 -13 -18 -16 -18
-4 -4 14 -4 -13 -17 -15 -18
-4 -4 15 -4 -13 -17 -15 -18
-3 -4 16 -3 -12 -16 -15 -17
-3 -4 16 -2 -12 -15 -15 -16
-3 -4 17 -2 -12 -15 -15 -16
-2 -3 18 0 -11 -14 -14 -15
-2 -2 18 1 -10 -13 -13 -15
-2 1 19 2 -9 -12 -11 -14
-2 2 19 3 -8 -12 -10 -13
-2 3 19 4 -7 -11 -9 -13
-2 4 20 5 -6 -10 -8 -12
-2 6 20 5 -5 -9 -8 -12
-2 8 21 5 -4 -8 -7 -11
-2 9 21 5 -4 -8 -6 -10
-2 11 21 5 -3 -7 -6 -10
-2 12 22 6 -2 -6 -5 -9
-2 12 22 6 -2 -6 -5 -9
-2 12 23 7 0 -5 -4 -8
-2 12 24 8 1 -4 -3 -7
-2 12 24 8 1 -4 -3 -7
-2 14 25 9 2 -3 -2 -6
-2 17 24 10 4 0 1 -4
-2 20 22 11 5 1 2 -2
-2 23 21 11 6 2 3 0
-2 26 20 12 8 4 5 2
-2 28 18 13 9 5 6 3
0 28 15 11 8 5 6 3
1 28 12 9 7 5 6 4
1 28 9 7 6 5 6 4
2 28 6 5 5 5 6 4
3 28 4 4 4 6 7 5
3 25 4 3 2 4 5 5
3 22 3 1 1 2 4 4
3 19 2 0 0 0 3 4
3 16 2 -2 -3 -3 1 4
3 14 1 -3 -4 -4 0 3
3 12 1 -3 -4 -4 0 2
3 11 2 -2 -4 -4 0 0
3 10 3 -2 -4 -4 0 -2
3 8 3 -2 -4 -4 0 -3
2 7 4 0 -4 -4 -2 -4
1 5 4 -2 -6 -6 -4 -6
0 3 4 -3 -8 -7 -6 -7
0 1 4 -4 -9 -8 -7 -8
-2 -2 4 -5 -11 -10 -9 -10
-3 -3 3 -6 -12 -11 -10 -11
-3 -4 3 -6 -12 -11 -10 -11
-3 -6 3 -7 -12 -11 -11 -11
-3 -7 3 -8 -12 -11 -11 -11
-3 -8 3 -8 -12 -11 -11 -11
-3 -9 3 -9 -13 -11 -12 -12
-3 -9 3 -9 -13 -11 -12 -12
-4 -9 2 -10 -14 -12 -13 -13
-5 -9 2 -10 -14 -13 -14 -13
-5 -9 2 -10 -14 -13 -14 -13
-6 -10 1 -11 -15 -14 -15 -14
-6 -10 1 -11 -15 -14 -15 -14
-5 -10 1 -11 -15 -13 -15 -13
-5 -10 1 -11 -15 -13 -15 -13
-5 -10 1 -11 -15 -13 -15 -13
-4 -10 1 -11 -14 -12 -14 -12
-4 -10 1 -11 -14 -12 -14 -12
-4 -10 1 -12 -14 -12 -15 -13
-4 -10 1 -12 -14 -12 -16 -13
-4 -10 1 -12 -14 -12 -16 -13
-5 -9 0 -13 -14 -13 -17 -14
-5 -9 0 -13 -14 -13 -17 -14
-5 -10 0 -13 -14 -13 -17 -14
-5 -11 0 -13 -14 -13 -17 -15
-5 -11 0 -13 -14 -13 -17 -15
-4 -12 2 -7 -12 -12 -17 -16
-2 -12 6 5 -5 -10 -16 -16
0 -12 9 16 2 -7 -15 -16
1 -12 13 27 9 -4 -14 -16
3 -12 17 38 16 -2 -13 -16
6 -10 22 54 28 7 -8 -14
11 -4 28 75 47 19 3 -6
16 4 35 96 65 31 12 2
22 11 43 116 84 45 22 9
27 17 49 137 101 57 32 17
30 31 47 125 111 75 51 35
32 55 34 75 113 99 79 64
33 77 22 26 115 122 108 94
34 100 9 -24 117 146 136 123
36 122 -4 -73 119 171 164 153
35 140 -22 -121 117 193 189 177
30 150 -47 -171 110 215 209 193
25 161 -70 -219 102 236 228 211
20 172 -95 -268 95 258 247 227
15 183 -118 -316 87 279 267 244
6 173 -135 -344 55 254 244 227
-9 138 -141 -350 -4 177 176 172
-23 104 -148 -355 -62 100 107 115
-37 69 -154 -361 -120 22 38 60
-52 34 -161 -367 -179 -55 -30 4
-58 14 -159 -354 -202 -95 -67 -28
-52 9 -146 -318 -188 -92 -71 -34
-47 3 -132 -281 -173 -89 -75 -40
-40 -3 -118 -245 -157 -85 -79 -47
-34 -9 -105 -210 -142 -81 -83 -52
-29 -12 -90 -176 -124 -73 -79 -53
-24 -12 -74 -144 -103 -61 -66 -45
-19 -12 -59 -113 -82 -48 -53 -36
-14 -11 -44 -81 -62 -34 -39 -28
-9 -11 -28 -51 -40 -21 -25 -20
-6 -10 -19 -31 -28 -14 -18 -15
-5 -11 -17 -26 -26 -13 -18 -15
-5 -11 -15 -21 -24 -13 -17 -15
-4 -12 -13 -15 -21 -12 -16 -15
-3 -13 -11 -10 -19 -11 -16 -15
-2 -14 -9 -6 -17 -10 -15 -15
-2 -14 -8 -3 -17 -10 -15 -15
-2 -14 -7 2 -17 -10 -15 -15
-2 -14 -6 5 -16 -9 -15 -15
-2 -14 -5 9 -16 -9 -15 -15
-2 -15 -4 11 -15 -8 -15 -15
-2 -15 -4 13 -14 -8 -15 -15
-2 -15 -4 14 -13 -8 -15 -15
-2 -15 -3 16 -12 -8 -14 -15
-2 -15 -3 18 -11 -8 -14 -15
0 -14 -2 19 -10 -7 -13 -15
0 -14 -2 21 -10 -7 -13 -15
0 -14 -2 23 -10 -7 -13 -15
1 -14 -2 25 -10 -6 -12 -15
1 -14 -2 27 -10 -6 -12 -15
2 -13 -2 28 -9 -5 -11 -15
2 -13 -2 29 -8 -5 -11 -15
2 -13 -2 30 -8 -4 -10 -15
2 -13 -2 31 -7 -3 -9 -14
2 -13 -2 32 -6 -3 -9 -14
3 -12 -2 33 -5 -2 -8 -13
3 -12 -2 35 -5 -2 -8 -13
3 -11 -2 37 -5 0 -8 -13
3 -10 -2 39 -5 1 -8 -13
3 -10 -2 42 -5 1 -8 -13
4 -9 0 43 -5 2 -8 -14
4 -9 0 44 -5 2 -8 -13
4 -9 0 45 -4 2 -7 -13
4 -9 0 47 -3 3 -6 -12
4 -9 0 48 -3 3 -6 -11
3 -10 1 49 -2 4 -5 -10
3 -9 1 50 -2 4 -5 -10
3 -9 1 51 -2 4 -5 -10
3 -8 0 52 0 4 -5 -10
3 -7 0 53 0 4 -5 -10
4 -6 -2 54 1 5 -5 -10
4 -6 -2 54 3 6 -5 -10
4 -5 -2 54 4 7 -5 -10
5 -4 -2 54 5 9 -4 -10
5 -4 -2 54 7 10 -4 -10
6 -3 -2 53 8 11 -3 -9
6 -3 -2 54 8 12 -2 -8
6 -3 -2 55 8 12 0 -7
7 -2 -2 56 9 13 2 -6
7 -2 -2 57 9 14 3 -5
8 0 -3 58 10 15 4 -4
8 0 -3 58 12 16 4 -4
8 0 -3 59 14 17 5 -3
8 0 -3 60 16 18 6 -2
8 0 -3 60 17 19 6 -2
8 -2 -3 61 19 20 7 0
9 0 -3 62 20 21 8 1
9 1 -3 63 22 22 10 2
10 3 -3 65 23 24 11 3
11 4 -3 66 25 25 13 4
12 5 -4 67 26 26 14 5
12 5 -4 68 28 28 15 5
12 5 -4 70 30 29 16 6
13 5 -4 71 32 31 18 7
13 5 -4 73 34 33 19 7
14 6 -3 74 36 34 20 8
14 7 -3 76 38 36 22 10
14 8 -3 78 39 37 24 12
15 9 -3 80 42 39 26 14
15 10 -3 82 44 42 28 16
16 11 -3 85 45 43 30 18
16 11 -3 86 47 45 31 19
17 12 -3 88 49 46 32 21
18 13 -3 89 51 48 33 22
18 13 -3 91 52 50 34 24
19 14 -2 92 54 51 35 25
19 15 -2 94 55 51 37 26
19 16 -2 95 56 52 39 27
20 17 -2 97 58 53 42 28
20 18 -2 99 59 53 43 29
21 19 -3 100 60 54 45 30
21 19 -3 100 61 56 46 31
22 19 -3 101 62 57 46 31
23 19 -2 102 64 59 47 32
23 19 -2 102 65 61 48 33
24 20 0 103 66 62 49 34
24 20 0 103 66 62 50 35
24 20 0 103 66 62 51 36
24 20 0 104 66 62 53 37
24 20 0 104 66 62 54 38
24 21 1 105 65 63 55 39
24 21 1 104 65 63 55 39
24 21 1 103 65 63 55 39
24 22 1 101 64 62 54 39
24 22 1 100 64 62 54 39
23 23 0 99 63 61 53 40
23 23 0 98 62 61 53 40
23 23 0 97 61 61 53 40
23 23 0 96 59 60 53 40
23 23 0 95 58 60 53 40
24 24 0 94 57 59 52 39
24 24 0 91 56 58 51 39
24 24 0 89 55 57 51 39
23 25 0 87 54 56 50 38
23 25 0 85 53 55 49 38
22 26 -2 82 52 54 48 37
22 25 -2 79 50 53 47 37
22 25 -2 77 48 51 47 36
21 24 -2 74 46 50 46 35
21 23 -2 72 45 48 45 35
20 22 -2 69 43 47 44 34
20 21 -2 66 40 45 42 32
19 21 -2 63 38 44 39 31
18 20 -2 60 36 42 37 29
18 19 -2 57 35 39 36 27
17 18 -3 54 33 38 34 26
16 17 -3 52 30 35 32 25
15 16 -3 49 28 33 30 23
13 15 -3 46 26 31 28 22
12 14 -3 43 24 29 26 20
11 13 -2 39 22 27 24 19
10 13 -2 36 20 24 21 17
9 12 -2 33 18 22 19 15
8 11 -2 30 16 20 17 13
7 11 -2 27 14 18 15 11
6 10 -3 25 12 16 13 9
5 8 -3 23 9 14 10 7
5 7 -3 21 7 12 8 5
4 5 -3 19 5 10 6 3
3 4 -3 17 3 9 4 1
2 2 -3 15 1 7 2 -2
2 2 -3 13 0 6 2 -2
2 1 -3 11 -2 4 1 -2
2 0 -3 9 -3 3 0 -3
2 0 -3 8 -4 1 0 -3
1 -2 -3 6 -5 0 -2 -4
1 -3 -3 5 -6 -2 -3 -5
1 -4 -3 4 -7 -4 -4 -6
0 -5 -3 3 -9 -5 -6 -7
0 -6 -3 2 -10 -7 -7 -8
-2 -7 -3 1 -11 -8 -8 -9
-2 -7 -3 0 -11 -8 -8 -9
-2 -7 -3 -2 -11 -8 -9 -10
-3 -8 -3 -4 -12 -9 -10 -11
-3 -8 -3 -5 -12 -9 -10 -11
-4 -9 -3 -6 -13 -10 -11 -12
-4 -9 -3 -6 -13 -10 -11 -12
-4 -9 -3 -6 -13 -11 -12 -12
-4 -9 -3 -6 -14 -12 -13 -13
-4 -9 -3 -6 -14 -12 -13 -13
-4 -10 -2 -6 -15 -13 -14 -14
-4 -10 -2 -6 -15 -13 -14 -14
-4 -10 -2 -6 -15 -13 -14 -14
-4 -10 -2 -6 -15 -13 -14 -14
-4 -10 -2 -6 -15 -13 -14 -14
-5 -10 -2 -7 -15 -14 -13 -14
-5 -10 -2 -7 -15 -14 -13 -14
-5 -10 -2 -7 -15 -14 -13 -14
-5 -10 -2 -7 -15 -14 -14 -14
-5 -10 -2 -7 -15 -14 -14 -14
-5 -11 -2 -6 -15 -14 -15 -15
-5 -11 -2 -6 -15 -14 -15 -15
-5 -11 -2 -6 -15 -14 -15 -15
-5 -11 -2 -6 -14 -14 -15 -15
-5 -11 -2 -6 -14 -14 -15 -15
-5 -12 -2 -7 -13 -15 -15 -16
-5 -12 -2 -7 -13 -15 -15 -16
-5 -12 -2 -7 -13 -15 -15 -16
-5 -12 -2 -7 -13 -15 -15 -16
-5 -12 -2 -7 -13 -15 -15 -16
-6 -11 0 -6 -13 -15 -16 -17
-6 -11 0 -6 -13 -15 -16 -17
-6 -11 0 -6 -13 -15 -16 -17
-6 -11 0 -6 -13 -15 -16 -17
-6 -11 0 -6 -13 -15 -16 -17
-6 -12 -2 -7 -12 -14 -15 -17
-6 -12 -2 -7 -12 -14 -15 -17
-6 -12 -2 -7 -12 -14 -15 -17
-6 -12 -2 -6 -12 -14 -15 -16
-6 -12 -2 -6 -12 -14 -15 -16
-6 -12 0 -5 -11 -14 -16 -15
-6 -12 0 -5 -11 -14 -16 -15
-6 -12 0 -5 -11 -14 -16 -15
-6 -12 0 -6 -11 -14 -16 -15
-6 -12 0 -6 -11 -14 -16 -15
-6 -11 -2 -7 -12 -15 -17 -16
-6 -11 -2 -7 -12 -15 -17 -16
-6 -11 -2 -7 -12 -15 -17 -16
-7 -12 -2 -7 -12 -15 -17 -16
-7 -12 -2 -7 -12 -15 -17 -16
-8 -13 0 -7 -12 -14 -16 -17
-8 -13 0 -7 -12 -14 -16 -17
-8 -13 0 -7 -12 -14 -16 -17
-7 -13 1 -7 -12 -14 -15 -17
-7 -13 1 -7 -12 -14 -15 -17
-6 -12 2 -8 -11 -14 -14 -16
-6 -12 2 -8 -11 -14 -14 -16
-6 -12 2 -9 -12 -14 -14 -16
-6 -11 2 -9 -12 -14 -14 -16
-6 -11 2 -10 -13 -14 -14 -16
-5 -10 1 -11 -14 -15 -15 -16
-5 -10 1 -11 -14 -15 -15 -16
-5 -10 1 -11 -14 -15 -15 -16
-5 -10 1 -12 -14 -16 -15 -16
-5 -10 1 -12 -14 -16 -15 -16
-5 -11 2 -13 -14 -17 -15 -15
-5 -11 2 -13 -14 -17 -15 -15
-5 -11 2 -13 -14 -17 -15 -15
-5 -11 2 -13 -14 -17 -15 -15
-5 -11 2 -13 -14 -17 -15 -15
-5 -11 2 -13 -15 -16 -16 -15
-5 -11 2 -13 -15 -16 -16 -15
-5 -11 2 -13 -15 -16 -16 -15
-5 -11 2 -14 -15 -16 -16 -15
-5 -11 2 -14 -15 -16 -16 -15
-6 -11 1 -15 -16 -17 -16 -16
-6 -11 1 -15 -16 -17 -16 -16
-6 -11 1 -15 -16 -17 -16 -16
-6 -11 1 -14 -16 -17 -15 -16
-6 -11 1 -14 -16 -17 -15 -16
-5 -10 2 -13 -15 -18 -14 -15
-5 -9 4 -10 -13 -16 -13 -14
-5 -8 6 -8 -10 -14 -12 -13
-6 -7 7 -6 -8 -12 -11 -12
-6 -5 9 -3 -6 -10 -9 -11
-7 -4 11 1 -4 -8 -8 -10
-7 0 13 6 1 -5 -5 -8
-7 3 15 10 4 -3 -3 -6
-7 6 17 15 8 1 0 -4
-7 9 19 20 11 4 3 -2
-6 12 21 25 15 6 5 1
-6 15 23 29 18 9 8 3
-6 17 25 34 22 12 10 5
-5 20 27 39 26 15 13 7
-5 23 29 44 30 18 16 9
-4 26 31 48 34 22 19 12
-5 31 32 51 38 26 23 16
-6 36 34 54 43 31 28 21
-7 42 35 57 47 35 32 25
-9 47 36 59 51 39 36 29
-11 54 38 62 55 46 43 35
-15 66 42 58 62 53 50 44
-19 79 44 55 68 61 57 52
-23 92 47 51 74 68 65 60
-27 104 50 48 81 76 72 69
-32 117 52 42 88 84 80 77
-36 133 52 30 92 92 88 87
-40 147 53 19 97 99 96 96
-46 162 53 8 102 106 104 106
-50 177 54 -4 106 113 112 115
-54 190 54 -18 110 119 118 122
-56 198 50 -40 110 120 120 125
-58 206 45 -62 110 121 121 127
-61 215 39 -83 109 122 123 130
-63 223 35 -106 109 123 125 132
-65 232 25 -133 106 125 127 135
-66 243 -2 -172 95 123 128 139
-66 256 -28 -212 84 121 129 144
-67 267 -55 -251 72 120 130 149
-68 279 -81 -290 61 119 131 153
-69 290 -108 -330 46 117 132 158
-69 299 -136 -370 15 114 136 164
-69 307 -162 -411 -16 111 139 172
-68 315 -190 -451 -47 108 142 178
-68 323 -217 -491 -76 105 145 184
-67 329 -238 -522 -102 102 148 189
-65 324 -243 -522 -114 102 149 190
-63 319 -249 -522 -126 101 150 190
-61 314 -255 -523 -138 101 151 191
-59 308 -260 -523 -149 100 152 192
-56 304 -264 -520 -158 99 154 194
-52 300 -260 -501 -160 103 160 199
-48 296 -256 -481 -161 106 165 203
-44 292 -252 -462 -163 109 172 209
-40 287 -248 -443 -164 112 177 214
-36 284 -243 -426 -166 115 182 219
-35 287 -239 -414 -171 115 185 223
-34 290 -235 -403 -174 115 188 227
-33 294 -230 -392 -178 116 191 231
-31 297 -226 -381 -181 116 193 235
-30 298 -220 -366 -180 118 196 239
-27 287 -207 -342 -161 127 197 235
-24 277 -196 -317 -142 135 198 231
-21 267 -185 -293 -123 143 199 227
-18 257 -173 -269 -104 151 200 223
-15 239 -158 -240 -88 152 193 211
-11 196 -134 -201 -76 123 159 172
-7 154 -110 -162 -65 96 125 133
-4 112 -87 -123 -55 67 90 94
1 70 -62 -85 -44 39 55 55
4 34 -43 -53 -34 16 26 23
5 22 -35 -40 -29 10 17 13
6 9 -28 -29 -25 4 8 2
7 -5 -21 -18 -21 -4 -2 -9
8 -18 -14 -6 -17 -10 -11 -20
9 -29 -8 4 -13 -15 -19 -28
9 -33 -6 7 -13 -18 -23 -32
9 -37 -4 9 -13 -21 -27 -36
8 -43 -3 12 -13 -24 -30 -39
8 -47 0 14 -13 -27 -34 -44
7 -51 2 17 -14 -30 -37 -47
7 -53 2 18 -14 -31 -39 -49
7 -56 3 19 -14 -33 -41 -51
6 -58 4 20 -15 -35 -45 -53
6 -61 5 22 -15 -36 -47 -55
5 -63 6 23 -16 -38 -49 -57
5 -64 7 25 -16 -39 -50 -58
6 -66 8 27 -16 -41 -51 -59
6 -67 9 28 -16 -43 -52 -60
7 -68 10 30 -16 -44 -54 -62
8 -70 11 32 -16 -46 -55 -63
8 -71 11 33 -16 -47 -56 -64
8 -73 11 34 -16 -48 -57 -65
8 -75 11 35 -16 -49 -58 -66
8 -76 11 36 -16 -50 -60 -68
9 -78 12 37 -16 -51 -61 -69
9 -80 13 40 -16 -51 -61 -69
9 -83 14 43 -15 -51 -62 -70
10 -86 15 46 -15 -52 -62 -70
10 -89 17 48 -14 -52 -63 -71
11 -91 18 51 -13 -53 -64 -72
11 -93 18 53 -13 -54 -65 -74
12 -95 18 55 -13 -56 -67 -76
12 -97 19 57 -13 -57 -69 -78
13 -99 19 59 -13 -58 -70 -80
14 -101 20 61 -14 -60 -72 -82
15 -104 21 65 -13 -61 -73 -83
16 -108 23 68 -12 -62 -74 -85
17 -111 25 72 -11 -63 -75 -86
18 -114 26 76 -10 -64 -76 -87
19 -117 28 79 -9 -65 -77 -88
19 -121 28 82 -9 -66 -79 -90
20 -124 29 86 -9 -68 -81 -92
21 -128 30 89 -9 -70 -83 -94
22 -132 31 92 -9 -71 -86 -96
23 -135 32 95 -10 -73 -88 -98
24 -139 33 100 -10 -74 -90 -100
26 -142 35 104 -10 -76 -92 -103
27 -146 37 108 -10 -77 -94 -105
28 -150 38 112 -10 -78 -96 -108
30 -153 40 116 -9 -80 -98 -110
31 -157 42 120 -9 -82 -100 -112
32 -161 43 125 -9 -85 -102 -114
33 -165 44 129 -9 -87 -105 -117
34 -169 46 132 -9 -89 -107 -119
35 -173 47 136 -8 -91 -109 -121
36 -176 49 141 -7 -92 -110 -123
37 -180 51 146 -6 -93 -111 -124
38 -183 53 150 -5 -94 -112 -127
39 -186 55 155 -4 -95 -114 -129
40 -189 57 159 -3 -96 -115 -131
42 -192 59 163 -3 -97 -116 -132
43 -195 60 168 -3 -98 -117 -133
44 -198 62 172 -2 -99 -118 -134
45 -201 64 175 -2 -100 -120 -136
46 -204 66 179 0 -101 -121 -137
46 -205 68 183 2 -101 -121 -137
46 -206 70 187 4 -101 -122 -138
47 -207 72 191 6 -101 -123 -139
47 -210 74 195 8 -101 -124 -140
48 -211 76 199 10 -101 -126 -141
48 -211 77 201 11 -101 -126 -141
48 -211 79 203 13 -100 -124 -141
48 -212 81 205 15 -100 -123 -140
48 -212 82 209 16 -99 -122 -140
49 -213 85 211 18 -98 -121 -139
49 -211 86 213 21 -96 -119 -137
49 -210 87 214 24 -95 -118 -136
49 -207 88 216 26 -93 -116 -134
49 -205 90 218 29 -91 -114 -132
49 -203 91 220 32 -89 -112 -130
49 -200 91 219 34 -87 -109 -128
48 -197 91 218 36 -83 -107 -124
47 -193 91 217 38 -81 -104 -122
46 -190 91 216 42 -78 -102 -119
45 -187 91 215 44 -76 -99 -117
44 -182 91 213 46 -74 -97 -114
43 -177 90 211 48 -71 -94 -111
42 -172 89 209 50 -69 -92 -109
40 -166 88 205 52 -67 -90 -106
38 -161 87 203 54 -64 -87 -103
37 -156 86 199 55 -61 -83 -100
35 -151 84 195 56 -59 -80 -97
33 -146 82 191 57 -56 -76 -93
32 -141 81 187 58 -54 -73 -90
30 -136 79 183 59 -51 -70 -87
29 -130 77 177 59 -48 -67 -83
28 -123 75 172 59 -46 -64 -80
27 -118 73 167 60 -43 -62 -76
26 -112 71 161 60 -40 -59 -73
24 -107 69 155 61 -37 -56 -70
23 -102 67 149 61 -35 -53 -67
21 -97 65 143 61 -33 -51 -64
20 -92 63 136 60 -31 -48 -60
19 -88 60 130 60 -29 -46 -57
17 -82 58 123 59 -27 -43 -54
16 -77 56 117 57 -26 -40 -52
15 -73 53 111 55 -25 -39 -50
14 -69 50 105 53 -24 -37 -48
13 -64 48 99 51 -23 -35 -45
11 -60 45 93 49 -22 -33 -43
10 -56 43 87 47 -22 -32 -40
9 -52 40 80 44 -21 -31 -38
8 -49 38 74 40 -20 -30 -36
7 -45 36 68 38 -19 -29 -34
6 -40 34 62 35 -18 -27 -32
6 -38 32 57 33 -18 -27 -31
5 -35 31 53 31 -18 -26 -30
5 -32 29 49 29 -18 -26 -29
4 -30 27 44 26 -18 -25 -28
3 -27 25 39 24 -17 -24 -27
3 -26 24 36 22 -17 -24 -27
2 -25 23 33 20 -17 -24 -26
2 -23 22 29 18 -17 -24 -25
1 -22 21 26 15 -17 -24 -24
0 -20 19 23 13 -17 -24 -23
0 -20 19 22 12 -17 -24 -23
0 -19 19 21 11 -17 -24 -23
-2 -18 18 19 10 -18 -24 -23
-2 -17 18 18 9 -18 -24 -23
-3 -16 17 16 7 -19 -24 -22
-3 -16 17 16 6 -19 -24 -22
-3 -16 17 15 5 -20 -24 -22
-3 -17 16 14 4 -20 -24 -23
-3 -17 16 13 3 -21 -24 -23
-4 -18 15 12 2 -22 -25 -24
-4 -18 15 12 2 -22 -25 -24
-4 -18 15 12 1 -22 -26 -24
-4 -18 15 12 0 -23 -26 -24
-4 -18 15 12 -2 -23 -27 -24
-5 -19 15 11 -3 -24 -28 -25
-5 -19 15 11 -3 -24 -28 -25
-5 -20 15 11 -3 -24 -28 -25
-5 -20 15 11 -3 -24 -28 -25
-5 -21 15 11 -3 -24 -28 -25
-5 -22 15 11 -2 -24 -28 -26
-5 -22 15 11 -2 -24 -28 -26
-5 -22 15 11 -2 -24 -28 -26
-5 -22 15 11 -2 -24 -28 -26
-5 -22 15 11 -2 -24 -28 -26
-5 -22 14 11 -3 -24 -28 -26
-5 -22 14 11 -3 -24 -28 -26
-5 -22 14 11 -3 -24 -28 -26
-5 -21 14 11 -3 -24 -27 -25
-5 -21 14 11 -3 -24 -27 -25
-4 -20 13 10 -2 -23 -26 -24
-4 -20 13 10 -2 -23 -26 -24
-4 -20 13 10 -2 -23 -26 -24
-4 -19 13 10 -2 -23 -26 -24
-4 -19 13 10 -2 -23 -26 -24
-3 -18 12 10 -2 -22 -25 -24
-3 -18 12 10 -2 -22 -25 -24
-3 -18 12 10 -2 -22 -25 -23
-3 -17 12 10 -2 -22 -24 -23
-3 -17 12 10 -2 -22 -24 -22
-4 -16 12 10 0 -21 -23 -21
-4 -16 12 10 0 -21 -23 -21
-4 -16 12 10 0 -20 -22 -21
-4 -16 12 9 0 -20 -22 -21
-4 -16 12 9 0 -19 -21 -21
-5 -15 11 8 -2 -18 -20 -20
-5 -15 11 8 -2 -18 -20 -20
-5 -15 11 8 -2 -18 -20 -20
-4 -15 11 8 -2 -19 -20 -20
-4 -15 11 8 -2 -19 -20 -20
-3 -16 12 9 0 -20 -21 -20
-3 -16 12 9 0 -20 -21 -20
-3 -15 12 9 0 -20 -21 -20
-4 -15 11 8 0 -19 -21 -20
-4 -14 11 8 0 -19 -21 -20
-5 -13 10 7 -2 -18 -21 -19
-5 -13 10 7 -2 -18 -21 -19
-5 -13 10 7 -2 -18 -21 -19
-5 -13 10 6 -2 -18 -20 -18
-5 -13 10 6 -2 -18 -20 -18
-5 -12 10 5 -3 -19 -19 -17
-5 -12 10 5 -3 -19 -19 -17
-5 -12 10 5 -3 -19 -19 -17
-5 -12 10 5 -3 -19 -19 -17
-5 -12 10 5 -3 -19 -19 -17
-5 -13 10 4 -4 -19 -20 -17
-5 -13 10 4 -4 -19 -20 -17
-5 -13 10 3 -4 -19 -20 -17
-5 -13 10 3 -5 -19 -20 -17
-5 -13 10 2 -5 -19 -20 -17
-5 -12 11 1 -6 -20 -20 -18
-5 -12 11 1 -6 -20 -20 -18
-5 -12 11 1 -6 -20 -20 -18
-5 -12 11 1 -7 -20 -20 -17
-5 -12 11 1 -7 -20 -20 -17
-4 -12 11 1 -8 -20 -20 -16
-4 -12 11 1 -8 -20 -20 -16
-4 -12 11 1 -8 -20 -20 -16
-4 -12 11 0 -8 -20 -21 -17
-4 -12 11 0 -8 -20 -21 -17
-5 -11 11 -2 -8 -21 -22 -18
-5 -11 11 -2 -8 -21 -22 -18
-5 -11 11 -2 -8 -21 -22 -18
-5 -11 11 -2 -8 -21 -21 -18
-5 -11 11 -2 -8 -21 -21 -18
-5 -10 10 -3 -8 -20 -20 -18
-5 -10 10 -3 -8 -20 -20 -18
-5 -10 10 -3 -9 -20 -20 -18
-5 -10 10 -4 -9 -20 -20 -17
-5 -10 10 -4 -10 -20 -20 -17
-5 -11 10 -5 -11 -21 -21 -16
-5 -11 10 -5 -11 -21 -21 -16
-5 -11 10 -5 -11 -21 -21 -16
-5 -11 10 -5 -11 -21 -21 -17
-5 -11 10 -5 -11 -21 -21 -17
-5 -11 9 -5 -11 -20 -21 -18
-5 -11 9 -5 -11 -20 -21 -18
-5 -11 9 -5 -11 -20 -21 -18
-5 -11 9 -5 -11 -20 -21 -18
-5 -11 9 -5 -11 -20 -21 -18
-5 -10 10 -6 -11 -21 -21 -18
-5 -10 10 -6 -11 -21 -21 -18
-5 -10 10 -6 -11 -21 -21 -18
-5 -10 10 -6 -11 -20 -21 -18
-5 -10 10 -6 -11 -20 -21 -18
-5 -11 10 -5 -12 -19 -21 -17
-5 -11 10 -5 -12 -19 -21 -17
-5 -11 10 -6 -12 -19 -21 -17
-5 -11 10 -6 -12 -20 -21 -17
-5 -11 10 -7 -12 -20 -21 -17
-6 -12 9 -8 -12 -21 -21 -17
-6 -12 9 -8 -12 -21 -21 -17
-6 -12 9 -8 -12 -21 -21 -17
-6 -12 9 -8 -12 -20 -20 -17
-6 -12 9 -8 -12 -20 -20 -17
-6 -11 10 -8 -11 -19 -19 -16
-6 -11 10 -8 -11 -19 -19 -16
-6 -11 10 -8 -11 -20 -19 -16
-6 -11 9 -9 -11 -20 -20 -16
-6 -11 9 -9 -11 -21 -20 -16
-5 -10 8 -10 -12 -22 -21 -17
-5 -10 8 -10 -12 -22 -21 -17
-5 -10 8 -10 -12 -22 -21 -17
-5 -10 8 -9 -12 -21 -21 -17
-5 -10 8 -9 -12 -21 -21 -17
-5 -9 9 -8 -12 -20 -20 -17
-5 -9 9 -8 -12 -20 -20 -17
-5 -9 9 -8 -12 -20 -20 -17
-5 -9 9 -8 -12 -20 -20 -16
-5 -9 9 -8 -12 -20 -20 -16
-5 -10 9 -9 -12 -20 -20 -15
-5 -10 9 -9 -12 -20 -20 -15
-5 -10 9 -9 -12 -20 -20 -15
-5 -10 9 -8 -12 -20 -19 -15
-5 -10 9 -8 -12 -20 -19 -15
-6 -10 9 -7 -11 -19 -18 -15
-6 -10 9 -7 -11 -19 -18 -15
-6 -10 9 -8 -11 -19 -18 -15
-6 -10 9 -8 -12 -20 -18 -15
-6 -10 9 -9 -12 -20 -18 -15
-5 -9 8 -10 -13 -21 -19 -16
-5 -9 8 -10 -13 -21 -19 -16
-5 -9 8 -10 -13 -21 -19 -16
-5 -9 8 -10 -13 -21 -19 -16
-5 -9 8 -10 -13 -21 -19 -16
-5 -9 7 -10 -13 -21 -19 -16
-5 -9 7 -10 -13 -21 -19 -16
-5 -9 7 -10 -13 -21 -19 -16
-5 -9 7 -10 -13 -21 -19 -16
-5 -9 7 -10 -13 -21 -19 -16
-5 -8 8 -10 -12 -20 -19 -16
-5 -8 8 -10 -12 -20 -19 -16
-5 -8 8 -10 -12 -20 -19 -16
-5 -8 8 -10 -12 -20 -19 -16
-5 -8 8 -10 -12 -20 -19 -16
-5 -7 8 -10 -12 -21 -20 -16
-5 -7 8 -10 -12 -21 -20 -16
-5 -7 8 -10 -12 -21 -20 -16
-5 -8 8 -10 -12 -21 -20 -16
-5 -8 8 -10 -12 -21 -20 -16
-5 -9 7 -10 -13 -21 -20 -16
-5 -9 7 -10 -13 -21 -20 -16
-5 -9 7 -10 -13 -21 -20 -16
-5 -9 7 -10 -13 -20 -20 -16
-5 -9 7 -10 -13 -20 -20 -16
-4 -9 8 -9 -12 -19 -19 -15
-4 -9 8 -9 -12 -19 -19 -15
-4 -9 8 -9 -12 -19 -19 -15
-4 -9 8 -9 -12 -19 -19 -15
-4 -9 8 -9 -12 -19 -19 -15
-5 -9 7 -10 -12 -20 -18 -14
-5 -9 7 -10 -12 -20 -18 -14
-5 -9 7 -10 -12 -20 -18 -14
-5 -9 7 -10 -12 -20 -18 -14
-5 -9 7 -10 -12 -20 -18 -14
-5 -9 7 -10 -12 -20 -18 -14
-5 -9 6 -10 -13 -20 -18 -15
-5 -9 6 -10 -13 -20 -18 -15
-5 -8 7 -10 -13 -20 -18 -15
-5 -8 7 -10 -13 -20 -18 -15
-5 -8 7 -10 -13 -20 -18 -15
-4 -7 8 -10 -13 -21 -19 -16
-4 -7 8 -10 -13 -21 -19 -16
-4 -7 8 -10 -13 -21 -19 -16
-4 -7 8 -10 -13 -21 -19 -16
-4 -7 8 -10 -13 -21 -19 -16
-5 -6 8 -10 -12 -20 -20 -16
-5 -6 8 -10 -12 -20 -20 -16
-5 -6 8 -10 -12 -20 -20 -16
-5 -6 8 -10 -12 -20 -20 -16
-5 -6 8 -10 -12 -20 -20 -16
-5 -6 7 -11 -13 -21 -20 -16
-5 -6 7 -11 -13 -20 -20 -16
-5 -6 7 -10 -13 -20 -19 -15
-5 -6 7 -10 -13 -19 -19 -15
-5 -6 7 -10 -13 -19 -19 -15
-5 -7 7 -9 -12 -18 -18 -14
-5 -7 7 -9 -12 -18 -18 -14
-5 -7 7 -10 -12 -19 -18 -14
-5 -7 7 -10 -12 -19 -18 -14
-5 -7 7 -10 -12 -19 -18 -14
-4 -6 6 -11 -12 -20 -18 -15
-4 -6 6 -11 -12 -20 -18 -15
-4 -6 6 -11 -12 -20 -18 -15
-4 -6 6 -11 -12 -20 -18 -15
-4 -6 6 -11 -12 -20 -18 -15
-4 -7 6 -11 -13 -20 -18 -15
-4 -7 6 -11 -13 -20 -18 -15
-3 -7 6 -11 -13 -19 -18 -15
-3 -7 6 -11 -13 -19 -18 -15
-3 -7 6 -11 -13 -19 -18 -15
-2 -6 7 -10 -12 -18 -17 -14
-2 -6 7 -10 -12 -18 -17 -14
-2 -6 7 -10 -12 -18 -17 -14
-2 -6 7 -10 -12 -18 -17 -14
-2 -6 7 -10 -12 -18 -17 -14
-3 -6 6 -11 -13 -19 -18 -15
-3 -6 6 -11 -13 -19 -18 -15
-3 -7 6 -11 -12 -19 -18 -14
-3 -7 6 -11 -12 -19 -18 -14
-3 -7 6 -11 -12 -19 -18 -14
-4 -8 6 -10 -11 -19 -17 -13
-4 -8 6 -10 -11 -19 -17 -13
-3 -7 6 -10 -11 -19 -17 -13
-3 -7 6 -10 -11 -19 -17 -13
-3 -7 6 -10 -11 -19 -17 -13
-2 -6 6 -10 -11 -19 -17 -13
-2 -6 6 -10 -11 -19 -17 -13
-3 -5 6 -10 -11 -19 -17 -13
-3 -5 6 -10 -11 -19 -17 -13
-3 -5 6 -10 -11 -19 -17 -13
-4 -4 5 -11 -12 -18 -18 -14
-3 -4 6 -10 -11 -18 -17 -14
-3 -4 6 -9 -11 -17 -17 -13
-2 -4 7 -8 -10 -17 -16 -13
-2 -4 7 -8 -10 -17 -16 -13
0 -2 8 -7 -9 -16 -15 -12
0 1 8 -6 -8 -15 -14 -11
1 3 9 -6 -7 -14 -13 -10
1 5 9 -5 -6 -13 -12 -9
1 7 9 -5 -6 -13 -12 -8
2 9 10 -4 -5 -12 -11 -7
2 10 11 -4 -4 -11 -10 -6
2 12 11 -3 -4 -11 -10 -5
2 13 12 -3 -3 -10 -9 -4
2 14 12 -3 -3 -10 -9 -4
1 16 13 -2 -2 -9 -8 -3
1 17 14 0 0 -9 -8 -3
1 18 15 1 0 -9 -8 -3
1 19 16 2 1 -9 -8 -3
1 20 16 2 1 -9 -8 -3
0 22 17 3 3 -8 -8 -3
0 24 17 4 5 -6 -6 0
1 26 17 5 7 -4 -4 2
1 28 17 6 9 -2 -2 4
1 30 17 7 10 1 1 6
2 31 14 6 10 2 2 7
2 31 11 3 9 2 2 7
3 31 8 1 8 1 2 7
3 31 5 -3 7 1 2 7
3 31 3 -5 6 1 2 7
4 28 2 -6 5 0 2 8
4 24 2 -6 4 -2 1 7
4 21 2 -6 4 -3 0 6
4 18 2 -6 3 -4 -2 5
4 15 2 -6 3 -5 -2 4
5 14 1 -7 2 -6 -4 2
5 13 2 -7 1 -7 -5 1
5 12 3 -7 1 -8 -6 0
5 11 4 -7 0 -9 -7 -2
5 10 4 -7 0 -10 -8 -3
4 7 5 -8 -3 -11 -10 -5
3 5 5 -9 -4 -12 -12 -6
3 3 5 -10 -6 -13 -13 -7
2 1 5 -11 -7 -14 -15 -8
2 -2 5 -12 -8 -15 -16 -9
1 -3 5 -13 -9 -16 -17 -10
1 -3 5 -14 -9 -17 -17 -10
0 -4 5 -14 -10 -17 -17 -11
0 -4 5 -15 -10 -18 -17 -11
0 -4 5 -15 -10 -18 -17 -11
-2 -5 4 -16 -11 -19 -18 -12
-2 -5 4 -16 -11 -19 -18 -12
-2 -6 4 -16 -12 -19 -18 -12
-2 -6 4 -16 -12 -19 -18 -12
-2 -6 4 -16 -12 -19 -18 -12
0 -7 5 -17 -13 -19 -18 -12
0 -7 5 -17 -13 -19 -18 -12
-2 -8 5 -17 -12 -19 -18 -12
-2 -8 5 -17 -12 -19 -18 -12
-2 -8 5 -17 -12 -19 -18 -12
-3 -9 5 -16 -11 -19 -18 -12
-3 -9 5 -16 -11 -19 -18 -12
-2 -8 5 -16 -11 -19 -18 -12
-2 -8 5 -16 -11 -19 -18 -12
-2 -8 5 -16 -11 -19 -18 -12
0 -7 5 -17 -11 -18 -17 -11
0 -7 5 -16 -11 -18 -17 -11
0 -8 5 -15 -11 -18 -18 -12
0 -8 5 -14 -11 -18 -18 -12
0 -8 5 -14 -11 -18 -18 -12
1 -9 10 0 -3 -16 -18 -13
3 -9 15 14 7 -12 -17 -13
5 -10 19 29 16 -9 -15 -13
8 -10 24 44 25 -5 -14 -13
10 -10 29 58 34 0 -13 -13
15 -5 34 71 50 12 -2 -6
20 3 40 84 67 25 11 5
24 10 47 97 85 39 23 14
29 18 52 110 102 53 34 24
34 25 58 122 119 66 47 33
36 50 45 76 121 91 77 65
37 77 28 22 121 116 110 99
38 105 12 -31 121 143 143 133
39 133 -5 -86 121 169 176 168
40 159 -21 -140 121 195 209 201
34 161 -38 -176 117 200 213 204
25 159 -56 -210 114 202 213 202
17 157 -74 -242 110 204 213 200
8 154 -92 -275 107 207 213 199
0 152 -109 -309 103 210 213 197
-14 127 -114 -319 45 148 157 151
-28 98 -116 -326 -21 77 93 101
-41 69 -119 -333 -87 6 28 50
-55 42 -122 -341 -152 -65 -36 -2
-69 13 -124 -349 -219 -137 -101 -53
-64 8 -114 -314 -203 -132 -99 -56
-55 5 -102 -272 -176 -115 -88 -50
-47 3 -89 -230 -148 -98 -75 -44
-37 1 -76 -188 -120 -81 -64 -38
-29 -2 -63 -146 -93 -65 -52 -32
-23 -3 -52 -119 -76 -55 -45 -28
-19 -3 -39 -96 -62 -46 -37 -24
-14 -4 -28 -72 -47 -36 -31 -20
-9 -4 -16 -49 -32 -27 -24 -16
-4 -4 -5 -25 -17 -19 -17 -12
-3 -5 -2 -18 -14 -17 -16 -11
-3 -6 0 -14 -13 -17 -16 -11
-3 -7 1 -10 -12 -16 -16 -11
-3 -8 2 -6 -11 -16 -16 -11
-3 -9 3 -2 -10 -16 -16 -11
-2 -10 4 2 -9 -15 -15 -11
0 -10 5 5 -8 -15 -15 -11
0 -10 6 9 -7 -15 -14 -11
1 -10 7 12 -6 -15 -14 -11
1 -10 7 15 -6 -15 -14 -11
2 -10 8 17 -5 -15 -13 -10
2 -10 8 18 -4 -15 -13 -10
2 -10 8 20 -4 -14 -13 -10
2 -10 8 21 -3 -14 -13 -10
2 -10 8 22 -3 -14 -13 -10
2 -11 9 24 -2 -13 -13 -10
2 -11 9 26 -2 -13 -13 -10
3 -10 9 28 0 -12 -13 -10
3 -10 9 30 0 -12 -13 -10
3 -10 9 32 0 -12 -13 -10
4 -9 9 33 1 -11 -12 -9
4 -9 9 34 2 -10 -11 -9
4 -8 9 35 2 -10 -10 -9
4 -8 9 36 3 -9 -9 -9
4 -8 9 37 3 -9 -9 -9
3 -7 10 39 4 -8 -8 -8
4 -7 10 42 4 -8 -8 -7
4 -7 10 44 5 -7 -7 -7
5 -7 10 45 5 -7 -7 -6
5 -7 10 47 5 -7 -7 -6
6 -8 11 48 6 -6 -6 -5
6 -7 11 49 7 -6 -6 -5
6 -7 11 49 7 -6 -6 -5
6 -6 11 50 8 -6 -6 -5
6 -6 11 50 8 -6 -6 -5
5 -5 10 53 9 -5 -5 -4
6 -4 10 55 9 -4 -5 -4
6 -3 10 58 10 -4 -5 -4
7 -2 10 60 10 -3 -5 -4
7 -2 10 63 10 -3 -5 -4
8 0 10 64 12 -2 -4 -3
8 0 10 64 13 0 -3 -2
8 0 10 64 14 1 -2 0
8 0 10 64 15 2 0 1
8 0 10 64 16 3 1 1
7 -2 10 65 17 4 2 2
8 0 10 67 18 5 3 3
8 0 10 68 19 6 4 4
9 1 10 69 20 7 5 5
9 1 10 70 21 8 6 6
10 2 11 71 22 9 7 7
10 2 10 71 24 11 8 8
10 2 9 71 25 12 9 9
10 2 8 71 26 13 10 10
10 2 8 71 27 14 11 10
11 2 7 73 28 15 12 11
12 4 7 74 29 16 14 12
13 5 7 75 30 17 15 13
14 6 7 77 31 18 16 14
14 7 7 78 32 18 17 15
15 8 7 79 33 19 18 16
15 8 7 80 34 20 19 17
15 9 7 81 35 21 20 18
15 9 7 82 36 22 21 19
15 9 7 82 37 22 21 19
16 10 7 85 38 24 23 20
17 11 7 86 40 26 24 21
17 12 8 88 42 28 26 22
18 13 8 90 43 29 28 23
18 13 8 91 44 31 29 24
19 14 9 92 45 32 31 26
20 15 9 94 47 33 32 27
20 15 8 95 48 33 33 28
21 16 8 96 49 34 35 30
21 16 8 97 50 34 36 31
22 17 7 98 51 36 37 32
23 18 7 100 52 37 38 34
23 18 7 101 53 38 39 35
24 19 7 102 54 40 40 36
24 19 7 103 55 42 42 37
25 20 6 104 56 43 43 38
25 21 6 104 56 43 44 38
25 22 6 104 56 44 44 38
25 23 6 104 56 44 45 38
25 23 6 104 56 44 45 38
24 24 6 103 57 45 46 39
24 24 6 103 57 45 46 40
24 24 6 103 56 45 47 40
24 24 6 103 56 45 47 42
24 24 6 103 56 45 47 42
25 23 6 103 55 46 48 43
25 24 6 102 53 46 48 43
25 24 5 100 52 45 48 43
25 25 5 98 51 45 48 43
25 25 5 97 50 45 48 43
24 26 4 96 49 44 47 43
24 26 4 95 48 43 47 43
24 27 4 94 47 43 46 42
24 27 4 93 46 42 46 42
24 27 4 93 45 42 46 42
24 28 3 91 44 40 45 40
24 28 3 89 43 39 45 40
24 28 3 87 43 38 44 40
24 28 3 85 42 37 44 40
24 28 3 82 42 37 44 40
23 28 2 81 40 36 43 39
23 28 2 79 39 36 43 39
22 28 2 78 38 36 42 39
22 28 2 77 37 36 42 39
22 28 2 76 36 36 42 39
21 27 1 74 35 35 40 38
20 27 1 72 34 34 38 37
20 27 1 70 34 33 37 36
19 27 1 68 33 32 36 35
19 27 1 66 33 32 35 35
18 27 1 64 32 31 33 33
17 26 1 62 31 29 32 32
16 26 1 60 30 28 31 30
15 25 1 58 29 27 29 28
15 25 1 56 28 26 28 27
14 23 2 54 27 25 26 26
14 22 2 53 26 24 25 24
13 21 2 51 25 23 24 23
13 19 2 49 24 22 22 22
13 18 2 48 23 22 21 21
12 17 2 46 22 20 19 20
10 16 2 45 20 18 18 18
9 16 3 43 19 17 16 17
8 15 3 40 18 15 14 16
7 15 3 39 17 13 13 15
6 14 4 38 16 11 11 13
5 13 4 36 15 10 10 12
5 12 4 35 14 9 9 10
4 11 4 34 13 7 7 8
4 11 4 33 12 6 6 7
3 9 4 32 11 5 5 6
3 8 4 32 11 5 5 6
2 7 4 32 10 5 5 6
2 5 4 32 10 5 5 6
2 4 4 32 10 5 5 6
1 3 5 31 9 4 5 6
1 3 5 30 9 3 4 5
0 3 5 30 8 2 4 5
0 3 5 29 8 1 3 4
0 3 5 29 8 1 3 4
-2 2 6 28 7 0 2 3
-2 2 6 28 7 0 2 3
-2 2 6 28 7 0 2 2
-2 2 6 28 7 0 2 2
-2 2 6 28 7 0 2 2
0 1 7 29 7 0 1 1
0 1 7 29 7 -2 0 0
0 1 7 28 7 -3 -2 0
0 1 7 28 7 -3 -2 -2
0 1 7 28 7 -4 -3 -2
-2 1 7 27 7 -5 -4 -3
-2 1 7 28 7 -5 -4 -3
-2 1 8 28 7 -5 -4 -3
-2 1 8 29 7 -5 -4 -3
-2 1 8 29 7 -5 -4 -3
-3 0 9 30 8 -5 -3 -4
-3 0 9 30 8 -5 -3 -4
-3 0 9 29 8 -4 -3 -4
-3 0 9 29 8 -4 -3 -4
-3 0 9 29 8 -4 -3 -4
-2 0 9 28 9 -3 -2 -4
-2 0 9 29 9 -3 -2 -4
-2 0 9 29 9 -3 -2 -4
-2 0 9 30 9 -3 -2 -4
-2 0 9 30 9 -3 -2 -4
-3 0 9 31 9 -3 -2 -3
-3 0 9 30 9 -3 -2 -3
-3 0 9 30 9 -3 -2 -3
-3 0 9 29 9 -3 -2 -3
-3 0 9 29 9 -3 -2 -3
-2 1 9 28 10 -3 -2 -3
-2 1 9 28 10 -3 -2 -3
-2 1 9 28 9 -3 -3 -4
-2 1 9 28 9 -3 -3 -4
-2 1 9 28 9 -3 -3 -4
-3 1 9 28 8 -4 -4 -5
-3 1 9 27 8 -4 -4 -5
-3 1 9 27 8 -4 -4 -5
-3 1 9 26 8 -4 -4 -5
-3 1 9 26 8 -4 -4 -5
-2 2 9 25 7 -4 -3 -4
-2 2 9 25 7 -4 -3 -4
-2 2 9 25 7 -4 -3 -4
-2 2 9 25 7 -4 -3 -4
-2 2 9 25 7 -4 -3 -4
-2 2 9 25 7 -3 -3 -4
-2 2 9 24 7 -3 -3 -4
-2 2 9 24 7 -3 -3 -4
-2 2 9 23 7 -3 -3 -4
-2 2 9 23 7 -3 -3 -4
-3 1 10 22 6 -4 -3 -3
-3 1 10 22 6 -4 -4 -3
-3 1 10 22 5 -5 -4 -4
-3 1 10 22 5 -5 -5 -4
-3 1 10 22 5 -5 -5 -4
-3 0 10 21 4 -6 -6 -5
-3 0 10 20 4 -6 -6 -5
-3 0 10 19 3 -7 -6 -5
-3 0 10 19 3 -7 -6 -5
-3 0 10 18 3 -7 -6 -5
-3 1 10 17 2 -8 -7 -6
-3 1 10 17 2 -8 -7 -6
-3 0 10 17 2 -8 -7 -6
-3 0 10 17 2 -8 -7 -6
-3 0 10 17 2 -8 -7 -6
-3 -2 10 16 1 -8 -7 -6
-3 -2 10 15 1 -8 -7 -6
-3 -2 10 14 0 -8 -7 -6
-3 -2 10 13 0 -8 -7 -6
-3 -2 10 12 0 -8 -7 -6
-2 -3 10 11 -2 -8 -7 -7
-2 -3 10 11 -2 -8 -7 -7
-2 -3 10 11 -2 -9 -7 -7
-2 -3 10 11 -2 -9 -7 -7
-2 -3 10 11 -2 -9 -7 -7
-3 -2 10 10 -3 -10 -8 -7
-3 -2 10 10 -3 -10 -8 -7
-3 -2 10 9 -4 -10 -8 -7
-3 -2 10 9 -4 -10 -8 -7
-3 -2 10 9 -4 -10 -8 -7
-4 -3 11 8 -5 -11 -9 -8
-4 -3 11 8 -5 -11 -9 -8
-4 -3 11 7 -5 -11 -9 -8
-4 -3 11 7 -5 -11 -9 -8
-4 -3 11 7 -5 -11 -9 -8
-3 -3 10 6 -6 -11 -10 -9
-3 -4 10 5 -6 -11 -10 -9
-4 -4 10 5 -6 -11 -10 -9
-4 -5 10 4 -6 -11 -10 -9
-4 -5 10 4 -6 -11 -10 -9
-5 -6 10 3 -6 -12 -10 -9
-5 -6 10 3 -6 -12 -10 -9
-5 -6 10 3 -6 -12 -9 -9
-5 -6 10 3 -6 -12 -9 -9
-5 -6 10 3 -6 -12 -9 -9
-4 -5 9 3 -7 -11 -8 -9
-4 -5 9 3 -7 -11 -8 -9
-4 -5 9 2 -7 -11 -8 -9
-4 -5 9 2 -7 -11 -8 -9
-4 -5 9 2 -7 -11 -8 -9
-5 -5 10 1 -7 -12 -9 -9
-5 -5 10 1 -7 -12 -9 -9
-5 -5 10 1 -7 -12 -9 -9
-5 -5 10 1 -7 -12 -9 -9
-5 -5 10 1 -7 -12 -9 -9
-4 -5 9 1 -8 -11 -10 -9
-4 -3 10 1 -7 -11 -10 -9
-3 -2 10 1 -6 -11 -10 -9
-3 1 11 1 -5 -11 -10 -9
-3 2 11 1 -4 -11 -10 -9
-2 4 12 1 -3 -11 -9 -9
-2 6 13 2 -2 -10 -8 -8
-2 8 14 3 0 -9 -6 -6
-2 11 14 4 0 -8 -5 -5
-2 13 15 5 1 -7 -4 -4
0 14 16 6 2 -6 -3 -3
0 14 16 6 2 -6 -3 -3
0 14 17 6 2 -5 -3 -3
0 14 18 6 2 -5 -3 -3
0 14 18 6 2 -5 -3 -3
-2 15 19 6 3 -4 -2 -3
-2 16 20 8 5 -3 0 -2
-2 18 21 9 6 0 2 0
-2 20 21 11 8 1 3 1
-2 22 22 12 9 2 4 2
-2 23 22 12 10 3 5 3
-2 25 19 11 10 4 6 4
-2 26 16 9 10 5 7 6
-2 28 13 7 10 6 7 7
-2 29 10 5 10 7 8 8
-2 29 8 4 9 7 9 9
-2 27 6 2 8 6 7 8
-2 24 5 1 6 4 6 7
-2 22 3 -2 4 2 4 6
-2 19 2 -3 2 0 3 5
-2 17 1 -4 1 -2 2 4
-2 16 2 -4 1 -2 2 3
-2 14 3 -5 0 -3 1 2
-2 12 3 -5 0 -3 1 2
-2 10 4 -5 0 -3 1 1
0 8 5 -6 -2 -5 -2 -2
0 6 5 -6 -4 -6 -3 -3
-2 3 5 -7 -5 -8 -5 -5
-2 1 5 -8 -7 -9 -6 -7
-2 -3 5 -8 -8 -11 -8 -9
-3 -5 4 -9 -9 -12 -9 -10
-3 -6 4 -11 -10 -13 -10 -11
-4 -8 4 -12 -12 -14 -12 -12
-5 -9 4 -14 -13 -15 -13 -13
-5 -11 4 -15 -14 -16 -14 -14
-6 -12 4 -16 -15 -17 -15 -15
-6 -12 4 -16 -15 -17 -15 -15
-6 -12 3 -16 -16 -17 -15 -16
-6 -12 3 -16 -16 -17 -15 -16
-6 -12 3 -16 -16 -17 -15 -16
-6 -12 2 -17 -17 -18 -15 -17
-6 -12 2 -17 -17 -18 -15 -17
-6 -13 2 -17 -17 -18 -15 -17
-6 -13 2 -17 -17 -18 -15 -17
-6 -13 2 -17 -17 -18 -15 -17
-7 -14 3 -18 -16 -18 -15 -16
-7 -14 3 -18 -16 -18 -15 -16
-7 -14 3 -18 -16 -18 -15 -17
-7 -14 3 -18 -16 -18 -15 -17
-7 -14 3 -18 -16 -18 -15 -17
-6 -14 2 -17 -17 -18 -16 -18
-6 -14 2 -17 -17 -18 -16 -18
-6 -13 2 -18 -17 -18 -16 -18
-6 -13 2 -19 -17 -18 -16 -18
-6 -13 2 -19 -17 -18 -16 -18
-6 -12 2 -20 -17 -19 -17 -17
-6 -13 2 -18 -17 -19 -17 -17
-6 -14 3 -16 -16 -19 -17 -18
-6 -14 4 -15 -16 -19 -17 -18
-6 -15 4 -13 -16 -19 -17 -18
-5 -16 7 -4 -10 -17 -17 -19
-3 -15 12 12 0 -13 -15 -19
0 -14 17 27 8 -10 -14 -20
2 -14 22 42 17 -6 -12 -20
4 -13 27 57 26 -2 -11 -20
8 -8 32 71 40 9 -3 -16
13 0 38 87 59 23 9 -6
18 7 45 102 77 37 21 5
23 14 50 116 96 52 33 14
28 21 56 132 113 66 46 24
31 39 50 105 121 88 70 48
32 65 33 51 121 113 102 81
34 91 17 -5 121 140 135 115
36 116 1 -60 121 165 167 149
38 142 -16 -114 121 191 199 182
35 153 -34 -157 119 205 214 196
27 153 -55 -193 115 210 217 197
20 152 -75 -229 111 215 220 198
12 151 -96 -265 106 220 223 199
5 151 -116 -300 102 225 226 200
-9 133 -126 -320 59 184 189 171
-24 103 -130 -329 -11 109 121 118
-39 72 -133 -338 -79 34 55 65
-56 43 -136 -347 -149 -41 -13 13
-71 12 -139 -356 -219 -116 -79 -40
-73 -2 -133 -335 -231 -138 -102 -60
-64 -4 -118 -291 -202 -122 -92 -56
-55 -6 -104 -247 -174 -107 -81 -52
-45 -8 -90 -204 -145 -91 -71 -48
-35 -10 -75 -160 -116 -75 -61 -44
-29 -11 -62 -128 -95 -63 -52 -39
-24 -11 -50 -103 -78 -52 -44 -35
-20 -11 -37 -78 -62 -41 -36 -30
-15 -11 -25 -54 -45 -31 -28 -26
-10 -11 -13 -29 -28 -21 -21 -21
-8 -12 -8 -17 -21 -16 -17 -19
-8 -12 -6 -13 -19 -16 -17 -19
-7 -12 -4 -10 -17 -16 -17 -19
-7 -12 -3 -6 -16 -16 -17 -19
-7 -12 0 -3 -14 -16 -17 -19
-6 -13 1 1 -13 -15 -17 -18
-6 -13 1 3 -12 -15 -17 -18
-5 -14 2 5 -11 -14 -16 -18
-4 -14 3 7 -11 -13 -16 -18
-4 -14 3 9 -10 -13 -16 -18
-3 -15 4 10 -9 -12 -15 -17
-3 -15 4 11 -9 -12 -15 -17
-3 -15 4 12 -8 -12 -15 -17
-3 -15 4 13 -7 -12 -15 -17
-3 -15 4 14 -7 -12 -15 -17
-3 -15 3 15 -6 -11 -15 -16
-3 -15 4 16 -5 -10 -14 -16
-3 -14 5 17 -4 -9 -13 -15
-3 -14 5 18 -4 -8 -13 -15
-3 -14 6 19 -3 -7 -12 -15
-2 -13 7 20 -2 -6 -11 -14
-2 -13 7 20 0 -6 -10 -13
-2 -13 7 21 1 -5 -9 -12
-2 -13 7 21 2 -4 -9 -12
-2 -13 7 21 3 -4 -8 -11
0 -13 8 22 4 -3 -7 -10
0 -13 8 23 4 -3 -7 -10
0 -13 8 24 5 -2 -6 -9
0 -13 8 25 5 0 -6 -9
0 -13 8 26 5 0 -6 -9
1 -12 8 27 6 1 -5 -8
1 -12 8 27 7 1 -5 -8
1 -11 7 28 8 1 -5 -8
1 -11 7 29 9 1 -5 -8
1 -11 7 29 10 1 -5 -8
2 -10 6 30 11 1 -4 -8
2 -10 6 31 11 2 -3 -8
2 -9 6 32 12 3 -2 -7
2 -8 6 33 12 4 -2 -6
2 -8 6 34 12 5 0 -6
3 -7 6 35 13 6 1 -5
3 -7 6 36 14 7 2 -4
4 -6 6 37 16 8 3 -3
4 -6 6 38 17 9 4 -3
4 -6 6 39 18 10 5 -2
5 -5 6 40 19 11 6 0
5 -5 6 43 20 12 6 0
6 -4 6 44 21 13 6 1
6 -3 6 45 22 13 6 2
6 -3 6 47 23 14 6 2
7 -2 5 48 24 15 7 3
7 0 5 49 25 16 8 3
8 2 4 50 27 17 10 3
8 3 4 51 28 18 11 3
8 4 4 52 29 19 12 3
9 5 3 54 30 20 13 4
10 5 3 56 32 22 15 6
11 5 2 58 33 23 16 8
11 5 2 60 34 24 17 9
12 5 2 62 36 26 19 11
13 6 1 64 37 27 20 12
13 6 1 66 39 29 22 13
14 6 1 68 42 30 23 14
14 6 1 70 44 31 24 14
14 6 1 72 46 33 26 15
15 7 1 74 47 34 27 17
16 8 1 76 49 36 29 19
17 9 0 78 51 38 31 21
17 10 -2 80 52 40 32 23
18 11 -2 82 54 43 34 25
19 12 -3 86 55 44 36 27
19 13 -3 88 57 46 38 29
20 14 -3 90 59 48 40 31
21 14 -3 92 61 50 43 33
21 15 -3 94 63 52 45 35
22 16 -3 95 64 53 46 36
22 17 -3 97 64 55 47 37
23 19 -4 99 65 56 49 38
24 20 -4 100 66 57 50 39
24 21 -4 102 66 59 51 40
25 22 -5 103 67 60 52 42
25 22 -5 103 67 60 52 42
26 23 -5 103 67 60 53 43
26 24 -5 103 67 60 54 44
26 24 -5 103 67 60 54 44
27 25 -6 103 68 60 55 45
27 25 -6 103 68 60 55 45
27 25 -6 104 67 60 56 46
27 25 -6 104 66 60 56 47
27 25 -6 104 66 60 56 47
28 26 -7 105 65 61 57 48
28 26 -7 104 64 60 57 48
27 26 -7 103 63 59 56 48
27 26 -7 103 62 58 56 48
27 26 -7 102 61 57 56 48
26 27 -8 101 60 56 55 48
26 27 -8 100 58 56 54 47
26 27 -8 99 57 55 53 46
26 27 -8 99 56 54 53 46
26 27 -8 98 54 54 52 45
26 28 -8 97 53 53 51 44
25 28 -8 95 51 51 49 43
24 27 -8 93 49 49 47 42
23 27 -8 92 48 47 46 40
22 27 -8 90 46 45 44 39
21 26 -7 89 45 44 43 38
20 25 -6 88 43 42 40 36
20 25 -5 87 40 39 38 34
19 24 -4 85 38 37 36 32
18 23 -3 84 36 35 34 30
17 22 -2 81 35 34 32 28
16 21 -2 79 33 32 30 26
15 20 0 77 31 30 28 24
13 19 1 75 29 28 26 22
12 18 1 73 27 26 24 20
11 17 2 71 26 23 21 17
10 16 2 69 24 21 19 15
10 16 2 68 22 19 16 13
9 15 2 66 20 17 13 11
8 14 2 64 18 15 11 9
7 13 3 63 16 13 9 7
6 11 3 61 15 11 7 5
5 10 3 60 14 9 6 4
4 8 4 58 13 7 5 3
3 6 4 56 12 5 3 1
2 5 5 55 11 4 2 0
2 5 5 54 10 3 1 -2
2 5 5 54 9 2 0 -3
1 4 5 53 7 0 -3 -4
1 4 5 52 6 -2 -4 -5
0 3 5 51 5 -3 -5 -6
0 3 5 50 4 -3 -5 -6
0 3 5 50 4 -4 -5 -6
0 2 6 49 3 -5 -6 -7
0 2 6 48 2 -5 -6 -7
-2 1 7 47 1 -6 -7 -8
-2 1 7 47 1 -6 -7 -8
-2 0 7 47 0 -6 -7 -8
-3 -2 7 47 -2 -7 -8 -9
-3 -2 7 47 -2 -7 -8 -9
-4 -3 6 47 -3 -8 -9 -10
-4 -3 6 47 -3 -8 -9 -10
-4 -3 6 47 -3 -8 -9 -10
-4 -3 6 48 -2 -8 -9 -10
-4 -3 6 48 -2 -8 -9 -10
-4 -4 7 49 0 -7 -9 -9
-4 -4 7 49 0 -7 -9 -9
-4 -4 7 49 0 -7 -9 -9
-4 -4 7 50 0 -7 -9 -10
-4 -4 7 50 0 -7 -9 -10
-5 -5 7 51 -2 -7 -10 -11
-5 -5 7 51 -2 -7 -10 -11
-5 -5 7 51 -2 -7 -10 -11
-5 -5 7 51 -2 -7 -10 -11
-5 -5 7 51 -2 -7 -10 -11
-5 -6 8 52 0 -8 -9 -11
-5 -6 8 53 0 -8 -9 -11
-5 -6 8 53 0 -8 -9 -11
-4 -5 8 54 0 -8 -9 -11
-4 -5 8 55 0 -8 -9 -11
-3 -4 8 56 0 -8 -10 -12
-3 -4 8 56 0 -8 -10 -12
-3 -4 8 56 0 -8 -10 -12
-4 -4 8 56 1 -8 -10 -12
-4 -4 8 56 1 -8 -10 -12
-5 -5 8 57 2 -8 -10 -11
-5 -5 8 57 2 -8 -10 -11
-5 -5 8 57 2 -8 -10 -11
-5 -4 8 58 2 -8 -10 -11
-5 -4 8 58 2 -8 -10 -11
-4 -3 8 59 3 -7 -9 -12
-4 -3 8 59 3 -7 -9 -12
-4 -3 8 59 3 -7 -9 -12
-4 -3 8 59 3 -7 -9 -12
-4 -3 8 59 3 -7 -9 -12
-4 -2 7 60 2 -8 -9 -11
-4 -2 7 60 2 -8 -9 -11
-4 -2 7 60 2 -8 -9 -11
-4 -3 8 60 2 -8 -9 -11
-4 -3 8 60 2 -8 -9 -11
-4 -4 9 61 3 -7 -9 -11
-4 -4 9 61 3 -7 -9 -11
-4 -4 9 61 3 -7 -9 -11
-4 -3 9 60 3 -7 -9 -11
-4 -3 9 60 3 -7 -9 -11
-4 -2 8 59 2 -7 -9 -11
-4 -2 8 59 2 -7 -9 -11
-4 -2 8 59 2 -7 -9 -11
-3 0 8 59 2 -7 -9 -11
-3 0 8 59 2 -7 -9 -11
-2 1 8 60 1 -6 -9 -10
-2 0 8 60 1 -6 -9 -10
-2 0 8 60 1 -6 -9 -10
-3 -2 8 60 1 -6 -9 -10
-3 -3 8 60 1 -6 -9 -10
-4 -4 8 60 2 -6 -8 -10
-4 -3 8 60 2 -6 -8 -10
-4 -3 8 60 1 -6 -8 -10
-4 -2 8 59 0 -7 -8 -10
-4 0 8 59 0 -7 -8 -10
-4 1 8 58 -2 -8 -9 -11
-4 1 8 58 -2 -8 -9 -11
-4 1 8 58 -2 -8 -9 -11
-4 1 8 57 -2 -8 -9 -11
-4 1 8 57 -2 -8 -9 -11
-3 1 8 56 -3 -9 -10 -12
-3 1 8 56 -3 -9 -10 -12
-3 1 8 56 -3 -9 -10 -12
-3 0 8 56 -3 -9 -10 -12
-3 0 8 56 -3 -9 -10 -12
-3 -2 9 55 -4 -9 -9 -11
-3 -2 9 55 -4 -9 -9 -11
-3 -2 9 55 -4 -9 -9 -11
-3 -2 9 54 -4 -9 -9 -11
-3 -2 9 54 -4 -9 -9 -11
-3 -2 8 53 -5 -9 -9 -10
-3 -2 8 53 -5 -9 -9 -10
-3 -2 8 53 -5 -9 -9 -10
-3 -3 8 52 -6 -9 -9 -10
-3 -3 8 52 -6 -9 -9 -10
-4 -4 8 51 -7 -9 -8 -10
-4 -4 8 51 -7 -9 -8 -10
-4 -4 8 51 -7 -9 -8 -10
-4 -4 8 50 -7 -9 -8 -10
-4 -4 8 50 -7 -9 -8 -10
-3 -3 9 49 -8 -10 -9 -11
-3 -3 9 49 -8 -10 -9 -11
-3 -3 9 48 -8 -10 -9 -11
-3 -3 9 47 -8 -10 -9 -11
-3 -3 9 47 -8 -10 -9 -11
-3 -3 9 46 -8 -11 -9 -12
-3 -3 9 46 -8 -11 -9 -12
-3 -3 9 46 -8 -11 -9 -12
-3 -4 9 45 -8 -11 -9 -12
-3 -4 9 45 -8 -11 -9 -12
-3 -5 9 44 -9 -10 -8 -11
-3 -5 9 44 -9 -10 -8 -11
-3 -5 9 44 -9 -10 -8 -11
-3 -5 9 44 -9 -10 -8 -11
-3 -5 9 44 -9 -10 -8 -11
-4 -5 8 43 -8 -10 -8 -10
-4 -5 8 42 -8 -10 -8 -10
-4 -5 8 42 -8 -10 -8 -10
-4 -5 8 40 -9 -10 -8 -11
-4 -5 8 39 -9 -10 -8 -11
-4 -4 7 38 -10 -11 -9 -12
-4 -4 7 38 -10 -11 -9 -12
-4 -4 7 38 -10 -11 -9 -12
-4 -3 7 38 -10 -10 -9 -12
-4 -3 7 38 -10 -10 -9 -12
-3 -2 8 38 -9 -9 -10 -11
-3 0 9 38 -8 -8 -9 -10
-3 2 10 38 -7 -8 -8 -10
-2 3 12 39 -6 -7 -7 -9
-2 5 13 39 -5 -6 -6 -8
0 6 14 40 -4 -5 -5 -7
0 9 14 40 -4 -4 -4 -6
0 11 14 40 -3 -4 -4 -6
0 13 15 40 -2 -3 -3 -5
0 15 15 40 -2 -2 -2 -4
1 17 16 40 0 0 0 -3
1 17 17 40 0 0 0 -3
1 17 18 40 0 0 0 -3
1 17 20 40 0 0 0 -3
1 17 21 40 0 0 0 -3
0 18 22 39 1 0 1 -3
0 20 22 40 2 2 2 -2
0 22 22 40 4 3 4 1
0 24 22 42 5 5 5 2
0 25 22 43 7 6 7 4
0 27 20 43 8 8 8 5
0 27 17 39 8 8 8 6
1 28 14 36 8 8 8 6
2 29 11 33 8 8 9 7
2 29 8 30 8 8 9 8
3 30 5 28 7 8 10 9
3 27 4 26 5 6 9 8
3 24 3 24 3 5 7 6
3 22 2 22 1 3 6 5
3 19 1 20 -2 2 4 3
4 17 0 18 -4 0 3 2
4 15 1 18 -4 0 2 1
4 13 1 17 -4 -2 2 0
4 11 2 16 -4 -3 1 -3
4 10 3 16 -4 -3 0 -4
4 8 4 15 -5 -4 -2 -5
3 6 4 14 -6 -5 -4 -6
2 3 4 13 -8 -7 -5 -8
0 1 4 11 -9 -8 -7 -9
-2 -2 4 10 -11 -10 -8 -11
-3 -4 4 9 -12 -11 -10 -12
-3 -4 4 7 -12 -12 -10 -12
-3 -5 4 4 -13 -12 -10 -13
-3 -6 4 2 -14 -13 -10 -14
-3 -6 4 0 -14 -14 -10 -14
-4 -7 4 -3 -15 -15 -11 -15
-4 -7 4 -4 -15 -15 -11 -15
-4 -7 4 -4 -15 -15 -11 -15
-4 -8 4 -5 -16 -15 -12 -15
-4 -8 4 -6 -16 -15 -12 -15
-5 -9 5 -7 -17 -14 -13 -15
-5 -9 5 -8 -17 -14 -13 -15
