I II V1 V2 V3 V4 V5 V6
7 -13 -7 -9 -14 -19 -11 -11
7 -13 -7 -9 -14 -19 -11 -11
7 -13 -7 -9 -14 -20 -11 -11
7 -13 -8 -10 -15 -21 -11 -11
7 -13 -8 -10 -15 -22 -11 -11
7 -13 -8 -10 -15 -22 -11 -11
8 -13 -9 -11 -16 -23 -12 -11
8 -14 -9 -11 -16 -23 -12 -11
8 -14 -9 -11 -17 -23 -12 -12
8 -15 -9 -11 -17 -23 -12 -12
8 -15 -9 -11 -17 -23 -12 -12
7 -16 -8 -12 -18 -22 -11 -13
7 -16 -8 -12 -18 -22 -12 -13
7 -15 -8 -13 -19 -23 -12 -13
7 -15 -8 -13 -19 -23 -13 -13
7 -15 -8 -13 -19 -23 -13 -13
7 -14 -9 -14 -20 -24 -14 -14
7 -15 -9 -14 -20 -24 -14 -14
7 -15 -9 -14 -20 -24 -14 -14
7 -16 -9 -14 -20 -24 -14 -14
7 -16 -9 -14 -20 -24 -14 -14
7 -17 -9 -15 -21 -25 -13 -13
7 -18 -9 -15 -21 -25 -13 -13
7 -18 -9 -16 -21 -26 -13 -13
7 -19 -9 -16 -21 -26 -13 -13
7 -19 -9 -16 -21 -26 -13 -13
7 -20 -10 -17 -22 -27 -12 -13
7 -20 -10 -17 -22 -27 -12 -13
7 -20 -10 -17 -22 -27 -12 -14
7 -20 -10 -17 -22 -27 -12 -14
7 -20 -10 -17 -22 -27 -12 -14
6 -20 -10 -18 -23 -27 -12 -15
6 -20 -10 -18 -24 -27 -12 -15
6 -20 -11 -18 -24 -28 -12 -15
6 -20 -11 -18 -25 -28 -12 -15
6 -20 -11 -18 -25 -28 -12 -15
7 -21 -12 -19 -26 -29 -13 -15
7 -21 -12 -19 -26 -29 -13 -15
7 -21 -12 -19 -26 -29 -13 -15
7 -21 -12 -19 -26 -29 -13 -15
7 -21 -12 -19 -26 -29 -13 -15
7 -21 -11 -20 -25 -28 -13 -15
7 -20 -11 -19 -24 -28 -13 -15
7 -19 -10 -19 -24 -28 -13 -14
7 -18 -10 -18 -23 -28 -13 -14
7 -17 -10 -18 -23 -28 -13 -14
6 -15 -8 -16 -21 -26 -13 -13
6 -13 -7 -15 -20 -25 -12 -12
6 -11 -5 -13 -19 -23 -12 -11
6 -9 -4 -12 -18 -22 -11 -10
6 -8 -3 -11 -17 -21 -11 -10
6 -7 -2 -10 -16 -20 -10 -9
6 -7 0 -9 -16 -19 -10 -8
6 -6 0 -9 -15 -19 -10 -8
6 -6 1 -8 -15 -18 -10 -7
6 -6 1 -8 -15 -18 -10 -7
6 -4 2 -7 -13 -17 -10 -6
6 -3 2 -7 -12 -16 -9 -5
6 0 3 -7 -11 -15 -9 -5
6 1 3 -7 -10 -14 -8 -4
6 2 3 -7 -9 -14 -8 -4
5 4 4 -6 -8 -13 -7 -2
5 6 3 -6 -8 -12 -6 0
5 8 2 -6 -8 -11 -5 1
5 10 1 -6 -8 -10 -4 2
5 12 1 -6 -8 -10 -4 3
6 13 0 -6 -7 -9 -3 4
7 13 -2 -7 -7 -9 -3 4
8 13 -2 -7 -8 -9 -3 4
9 13 -3 -8 -8 -9 -3 4
9 13 -3 -8 -8 -9 -3 4
10 12 -4 -9 -9 -10 -2 5
10 11 -4 -9 -9 -10 -2 5
10 10 -5 -9 -8 -9 -2 5
10 9 -5 -9 -8 -9 -2 5
10 8 -5 -9 -8 -9 -2 5
11 6 -6 -9 -7 -8 -2 5
10 4 -6 -9 -8 -9 -2 5
10 3 -6 -10 -9 -9 -2 4
9 1 -6 -10 -10 -10 -2 4
9 0 -6 -10 -10 -10 -2 4
7 -4 -6 -11 -12 -12 -4 2
6 -6 -6 -12 -14 -14 -6 0
4 -8 -6 -13 -15 -16 -8 -3
3 -10 -6 -14 -17 -18 -10 -5
2 -12 -6 -14 -18 -19 -11 -6
1 -14 -8 -16 -20 -21 -12 -7
1 -16 -9 -18 -21 -22 -13 -8
0 -18 -10 -20 -22 -24 -13 -9
0 -20 -11 -22 -23 -25 -14 -10
0 -22 -12 -23 -24 -26 -14 -11
-2 -23 -13 -24 -25 -27 -15 -12
-2 -24 -14 -24 -26 -27 -16 -12
-2 -25 -15 -25 -26 -28 -17 -12
-2 -26 -16 -25 -27 -28 -18 -12
-2 -27 -16 -25 -27 -28 -18 -12
-2 -28 -17 -26 -28 -29 -19 -13
-3 -28 -17 -26 -28 -29 -20 -13
-3 -28 -17 -26 -28 -29 -20 -14
-4 -28 -17 -26 -28 -29 -21 -14
-4 -28 -17 -26 -28 -29 -21 -14
-5 -29 -17 -27 -29 -30 -22 -15
-5 -30 -17 -28 -29 -31 -22 -15
-5 -30 -17 -28 -30 -31 -22 -15
-5 -31 -17 -29 -30 -32 -22 -15
-5 -31 -17 -29 -30 -32 -22 -15
-5 -32 -18 -30 -31 -33 -22 -16
-5 -32 -18 -30 -31 -33 -22 -16
-5 -33 -18 -30 -31 -33 -22 -16
-5 -33 -18 -30 -31 -33 -22 -16
-5 -33 -18 -30 -31 -33 -22 -16
-5 -34 -17 -29 -30 -33 -23 -17
-5 -34 -17 -29 -30 -33 -23 -17
-5 -34 -17 -29 -30 -33 -23 -17
-5 -34 -17 -29 -30 -33 -23 -17
-5 -34 -17 -29 -30 -33 -23 -17
-5 -33 -18 -29 -30 -32 -23 -16
-5 -34 -17 -27 -29 -32 -23 -16
-5 -35 -17 -26 -28 -31 -23 -17
-5 -36 -16 -24 -27 -31 -23 -17
-5 -37 -16 -23 -27 -31 -23 -17
-5 -41 -9 -9 -19 -28 -24 -20
-2 -46 -2 7 -11 -25 -25 -23
1 -51 6 22 -2 -22 -26 -26
3 -55 13 37 7 -19 -27 -29
5 -59 20 53 16 -16 -28 -32
9 -50 26 70 36 2 -18 -26
14 -38 32 88 58 20 -5 -18
18 -27 38 105 80 39 9 -9
23 -16 46 123 102 58 21 0
27 -5 52 141 123 77 34 9
28 19 55 140 143 105 58 26
28 44 58 136 161 134 82 45
27 69 61 131 180 162 108 64
27 94 63 127 198 191 133 82
27 118 66 122 217 220 157 102
15 139 67 105 222 232 167 111
3 159 66 86 226 241 174 119
-10 180 65 66 229 251 181 129
-23 200 64 47 233 259 188 137
-35 221 63 28 237 268 195 146
-45 196 42 -9 173 203 157 126
-54 164 18 -49 97 128 112 100
-62 134 -6 -88 22 53 67 75
-71 102 -29 -127 -53 -23 22 50
-80 70 -53 -165 -128 -99 -22 24
-80 35 -66 -173 -155 -130 -49 3
-78 1 -77 -176 -178 -153 -73 -18
-76 -34 -90 -179 -199 -178 -98 -39
-74 -69 -102 -182 -222 -202 -121 -60
-72 -104 -113 -185 -243 -227 -146 -81
-65 -111 -116 -183 -238 -220 -145 -85
-58 -113 -118 -179 -228 -206 -139 -83
-51 -115 -120 -175 -218 -194 -133 -82
-44 -118 -121 -171 -207 -181 -128 -81
-35 -120 -123 -166 -197 -169 -121 -80
-30 -117 -112 -149 -179 -154 -112 -75
-26 -113 -98 -130 -159 -139 -103 -71
-21 -108 -83 -110 -140 -123 -93 -66
-16 -104 -69 -91 -121 -108 -82 -61
-11 -99 -55 -71 -102 -93 -73 -56
-10 -94 -50 -66 -94 -87 -68 -53
-9 -88 -45 -64 -88 -80 -64 -50
-8 -82 -40 -62 -80 -74 -59 -46
-7 -77 -35 -59 -74 -69 -55 -43
-7 -71 -31 -57 -67 -63 -51 -39
-6 -65 -27 -50 -60 -57 -46 -35
-6 -58 -24 -43 -53 -51 -41 -31
-5 -52 -20 -35 -45 -45 -36 -28
-5 -45 -17 -28 -37 -38 -31 -24
-5 -37 -13 -21 -30 -31 -26 -20
-4 -34 -12 -20 -27 -28 -24 -18
-4 -31 -11 -19 -25 -26 -22 -17
-3 -28 -11 -18 -23 -24 -20 -15
-3 -26 -10 -17 -21 -21 -18 -13
-3 -23 -10 -17 -19 -19 -16 -12
-2 -22 -9 -15 -17 -17 -14 -11
0 -21 -8 -14 -15 -16 -13 -10
0 -20 -7 -12 -13 -14 -12 -10
1 -19 -6 -11 -12 -12 -11 -9
1 -19 -5 -10 -10 -11 -10 -9
2 -17 -4 -9 -9 -10 -9 -8
2 -16 -4 -9 -9 -9 -8 -7
2 -15 -4 -9 -8 -9 -8 -6
2 -13 -4 -9 -8 -8 -7 -5
2 -12 -4 -9 -8 -8 -7 -5
2 -11 -4 -8 -6 -6 -6 -4
2 -11 -4 -7 -5 -5 -5 -3
2 -11 -3 -6 -4 -3 -5 -3
2 -11 -3 -4 -3 0 -4 -2
2 -11 -3 -3 -2 1 -4 -2
3 -10 -2 -2 0 2 -3 0
3 -9 -2 -2 0 3 -2 0
4 -8 -2 -2 1 4 0 1
4 -6 -2 -2 1 5 1 1
4 -5 -2 -2 1 6 1 1
5 -4 -2 0 3 8 2 2
6 -4 -2 1 4 9 3 3
6 -3 0 2 6 10 4 3
7 -3 0 3 8 11 5 4
7 -3 0 4 9 12 6 4
8 0 1 5 11 13 7 5
8 1 1 6 12 14 8 6
8 2 1 6 13 15 9 6
8 3 1 7 14 16 10 7
8 4 1 7 15 17 11 7
7 5 2 9 18 20 13 8
7 6 3 11 20 22 14 9
8 6 4 13 22 24 15 10
8 7 5 15 25 27 17 11
8 7 5 17 27 29 18 11
9 9 6 19 29 31 20 12
10 11 6 20 31 34 21 14
10 13 7 21 33 36 23 15
11 14 7 23 35 38 25 16
11 16 7 24 37 40 26 17
12 18 8 27 40 44 28 19
13 19 10 30 45 48 31 20
13 21 11 34 49 51 33 22
14 23 12 37 52 55 36 24
14 24 13 40 56 58 38 25
15 27 14 44 59 62 42 27
16 30 15 47 63 65 45 30
16 34 16 50 66 69 49 32
17 37 17 53 69 73 52 34
17 40 18 56 73 77 55 36
18 44 20 59 76 80 57 38
18 46 21 62 80 85 60 40
19 49 22 66 85 88 62 43
19 51 24 69 88 91 65 45
19 54 25 72 92 95 67 47
20 57 26 74 93 97 69 49
21 59 26 75 94 98 71 50
22 62 27 76 95 99 73 52
23 64 27 78 96 101 74 54
23 67 27 79 97 102 76 55
24 68 28 80 98 103 77 56
24 68 28 81 98 103 77 56
24 69 28 82 98 103 77 56
24 69 28 84 98 103 77 56
24 69 28 84 98 103 77 56
23 70 28 85 98 102 77 57
23 70 28 84 97 101 76 57
23 71 29 82 96 99 76 57
23 71 29 81 95 97 75 57
23 71 29 80 94 96 75 57
22 72 30 79 92 94 73 56
20 71 30 78 91 91 70 54
19 70 30 77 89 89 68 53
18 69 30 76 87 86 65 52
17 68 30 76 86 84 63 51
16 66 30 74 81 79 60 49
16 64 30 71 78 75 58 47
16 61 30 69 74 71 55 45
16 59 30 66 70 67 53 43
16 57 30 64 66 62 50 40
15 54 30 62 63 59 47 38
14 51 29 60 60 55 44 36
13 48 29 58 57 52 40 33
12 45 28 56 54 49 37 31
11 42 28 54 51 45 34 29
10 38 27 51 48 42 32 27
9 36 25 48 45 37 29 25
8 33 24 45 42 34 27 23
7 31 23 40 37 31 24 22
6 28 22 37 34 27 22 20
5 25 21 35 31 24 19 18
4 23 20 32 29 21 17 16
4 20 19 30 26 19 14 13
3 18 18 27 24 16 12 11
3 15 18 25 21 13 9 9
2 13 16 22 18 11 7 8
2 12 14 19 16 9 6 7
1 10 12 16 13 6 5 6
1 8 11 13 11 4 3 5
1 7 9 10 8 2 2 4
0 5 8 8 6 1 0 3
0 3 7 7 5 -2 -2 2
0 2 7 5 4 -3 -3 1
0 0 6 3 2 -4 -5 0
0 -3 6 2 1 -5 -6 -2
-2 -4 5 0 0 -6 -7 -3
-3 -4 4 -2 -2 -8 -8 -3
-3 -5 3 -3 -3 -9 -9 -3
-4 -5 2 -5 -4 -10 -10 -3
-4 -5 1 -6 -5 -11 -10 -3
-5 -6 0 -7 -6 -12 -11 -4
-5 -7 0 -7 -7 -12 -11 -4
-5 -8 -2 -7 -8 -13 -12 -5
-5 -9 -2 -7 -9 -13 -12 -5
-5 -9 -2 -7 -9 -13 -12 -5
-5 -10 -3 -8 -10 -14 -13 -6
-5 -10 -3 -9 -10 -14 -13 -6
-5 -10 -3 -9 -11 -14 -13 -6
-5 -10 -3 -10 -11 -14 -13 -6
-5 -10 -3 -10 -11 -14 -13 -6
-4 -10 -3 -11 -12 -15 -13 -6
-4 -10 -3 -10 -12 -15 -13 -6
-4 -10 -3 -9 -11 -15 -13 -6
-4 -10 -3 -8 -11 -15 -13 -6
-4 -10 -3 -8 -11 -15 -13 -6
-4 -11 -2 -7 -10 -16 -14 -7
-4 -10 -2 -7 -10 -16 -14 -7
-4 -10 -3 -7 -10 -16 -14 -7
-4 -9 -3 -7 -10 -16 -14 -7
-4 -9 -3 -7 -10 -16 -14 -7
-3 -8 -4 -8 -11 -16 -13 -7
-3 -8 -3 -7 -10 -16 -13 -7
-3 -9 -3 -6 -10 -15 -13 -7
-3 -9 -2 -5 -9 -15 -13 -7
-3 -9 -2 -4 -9 -15 -13 -7
-3 -10 0 -3 -8 -14 -13 -7
-3 -10 0 -3 -8 -14 -12 -6
-3 -9 0 -4 -8 -14 -12 -6
-3 -9 0 -4 -8 -14 -11 -5
-3 -9 0 -4 -8 -14 -11 -5
-3 -8 -2 -5 -9 -14 -10 -4
-3 -8 -2 -5 -9 -14 -10 -4
-3 -8 -2 -4 -9 -14 -11 -5
-3 -8 -2 -4 -9 -14 -11 -5
-3 -8 -2 -4 -9 -14 -11 -5
-3 -9 -3 -3 -10 -13 -12 -6
-3 -8 -3 -3 -10 -13 -12 -6
-3 -8 -3 -4 -10 -13 -11 -5
-3 -7 -3 -4 -10 -13 -11 -5
-3 -7 -3 -4 -10 -13 -11 -5
-2 -6 -4 -5 -10 -13 -10 -4
-2 -7 -4 -5 -10 -13 -10 -4
-2 -7 -4 -4 -10 -12 -10 -4
-2 -8 -4 -4 -10 -12 -10 -4
-2 -8 -4 -4 -10 -12 -10 -4
-2 -9 -4 -3 -10 -11 -9 -4
-2 -9 -4 -4 -10 -11 -9 -4
-2 -8 -4 -5 -10 -12 -9 -4
-2 -8 -4 -5 -10 -12 -9 -4
-2 -8 -4 -6 -10 -12 -9 -4
-2 -7 -5 -7 -11 -13 -10 -3
-2 -7 -5 -7 -11 -13 -10 -3
-2 -8 -5 -6 -12 -13 -10 -4
-2 -8 -5 -6 -12 -13 -10 -4
-2 -8 -5 -6 -12 -13 -10 -4
-2 -9 -5 -5 -13 -14 -11 -5
-2 -9 -5 -6 -13 -14 -11 -5
-2 -9 -5 -6 -14 -15 -11 -5
-2 -9 -5 -7 -14 -15 -11 -5
-2 -9 -5 -7 -14 -15 -11 -5
-2 -9 -6 -8 -15 -16 -11 -4
-2 -9 -6 -8 -15 -16 -11 -4
-2 -10 -6 -8 -15 -16 -11 -5
-2 -10 -6 -8 -15 -16 -11 -5
-2 -10 -6 -8 -15 -16 -11 -5
-3 -11 -6 -7 -16 -17 -12 -6
-3 -11 -6 -8 -16 -17 -12 -6
-3 -11 -7 -9 -16 -17 -12 -6
-3 -11 -7 -9 -16 -17 -12 -6
-3 -11 -7 -10 -16 -17 -12 -6
-2 -10 -8 -11 -17 -17 -13 -6
-2 -11 -8 -11 -17 -17 -13 -6
-3 -11 -8 -11 -18 -18 -14 -6
-3 -12 -8 -11 -18 -18 -14 -6
-3 -12 -8 -11 -18 -18 -14 -6
-4 -13 -8 -11 -19 -19 -15 -7
-4 -13 -8 -11 -19 -19 -15 -7
-4 -13 -8 -12 -19 -19 -15 -7
-4 -13 -8 -12 -19 -19 -15 -7
-4 -13 -8 -12 -19 -19 -15 -7
-3 -13 -9 -13 -20 -19 -15 -7
-3 -13 -9 -13 -21 -19 -15 -7
-4 -14 -10 -13 -21 -20 -15 -8
-4 -14 -10 -13 -22 -20 -15 -8
-4 -14 -10 -13 -22 -20 -15 -8
-5 -15 -11 -14 -23 -21 -16 -9
-5 -15 -11 -14 -23 -21 -16 -9
-5 -15 -10 -14 -23 -21 -16 -9
-5 -15 -10 -14 -23 -21 -16 -9
-5 -15 -10 -14 -23 -21 -16 -9
-4 -14 -9 -14 -23 -22 -15 -8
-4 -12 -8 -12 -22 -21 -15 -8
-4 -11 -7 -11 -21 -20 -14 -8
-4 -10 -6 -10 -20 -19 -14 -8
-4 -9 -5 -9 -19 -18 -14 -8
-3 -7 -4 -8 -18 -17 -13 -7
-3 -6 -3 -7 -17 -16 -12 -6
-3 -4 -3 -7 -16 -16 -11 -6
-3 -3 -2 -6 -16 -15 -11 -5
-3 0 -2 -6 -15 -15 -10 -5
-3 1 0 -5 -14 -14 -9 -4
-3 1 1 -5 -13 -14 -9 -4
-3 1 2 -4 -13 -13 -9 -4
-3 1 2 -4 -12 -13 -9 -4
-3 1 3 -4 -12 -13 -9 -4
-2 2 4 -3 -11 -12 -10 -3
-2 5 4 -3 -10 -11 -9 -2
-2 8 4 -3 -10 -10 -8 0
-2 11 4 -3 -9 -9 -7 0
-2 14 4 -3 -9 -8 -6 1
0 15 5 -3 -8 -7 -5 2
1 17 4 -3 -8 -7 -4 3
2 18 3 -3 -8 -6 -3 4
3 20 2 -3 -8 -6 -2 5
4 21 1 -3 -8 -6 0 6
5 22 0 -3 -7 -5 1 7
5 22 0 -4 -7 -5 1 7
6 22 -2 -4 -8 -5 1 7
6 22 -2 -5 -8 -5 1 7
6 22 -2 -5 -8 -5 1 7
7 20 -3 -6 -9 -5 0 7
7 18 -4 -6 -9 -5 0 7
7 17 -4 -6 -9 -5 -2 6
7 15 -5 -6 -9 -5 -2 6
7 13 -5 -6 -9 -5 -2 6
7 11 -6 -5 -9 -6 -3 5
5 9 -6 -6 -10 -8 -4 3
4 7 -6 -7 -11 -9 -4 2
2 5 -6 -7 -11 -10 -5 0
1 3 -6 -8 -12 -11 -5 -2
0 1 -5 -9 -13 -12 -7 -3
-2 -3 -5 -9 -14 -14 -9 -5
-3 -5 -6 -10 -16 -15 -11 -6
-3 -8 -6 -10 -17 -17 -13 -8
-4 -11 -6 -10 -18 -18 -15 -9
-5 -13 -7 -12 -20 -20 -16 -10
-5 -14 -9 -14 -22 -21 -17 -11
-5 -16 -10 -16 -24 -23 -19 -13
-5 -17 -12 -19 -27 -24 -20 -14
-5 -19 -13 -21 -29 -26 -21 -15
-5 -20 -14 -22 -30 -27 -22 -16
-5 -21 -14 -22 -30 -27 -22 -16
-5 -22 -14 -22 -30 -27 -23 -16
-5 -22 -14 -22 -30 -27 -23 -16
-5 -23 -14 -22 -30 -27 -23 -16
-6 -24 -14 -21 -30 -27 -24 -17
-6 -24 -14 -22 -30 -27 -24 -17
-6 -24 -14 -23 -30 -28 -24 -17
-6 -24 -14 -23 -30 -28 -24 -17
-6 -24 -14 -24 -30 -28 -24 -17
-6 -25 -15 -25 -31 -29 -25 -18
-6 -25 -15 -25 -31 -29 -25 -18
-7 -26 -15 -25 -31 -29 -26 -19
-7 -27 -15 -25 -31 -29 -26 -19
-7 -27 -15 -25 -31 -29 -26 -19
-8 -28 -16 -24 -31 -30 -27 -20
-8 -28 -16 -24 -31 -30 -27 -20
-8 -28 -16 -25 -31 -30 -27 -20
-8 -28 -16 -25 -31 -30 -27 -20
-8 -28 -16 -25 -31 -30 -27 -20
-8 -28 -16 -26 -32 -31 -27 -20
-8 -28 -16 -26 -32 -31 -27 -20
-8 -28 -16 -26 -32 -31 -27 -20
-8 -28 -16 -26 -32 -31 -27 -20
-8 -28 -16 -26 -32 -31 -27 -20
-8 -29 -16 -24 -31 -30 -27 -20
-8 -31 -15 -21 -29 -30 -27 -22
-8 -34 -14 -18 -28 -29 -28 -23
-8 -36 -13 -15 -26 -29 -29 -25
-8 -39 -12 -13 -25 -29 -29 -26
-6 -40 -6 1 -17 -25 -30 -27
-4 -43 4 18 -6 -21 -30 -29
0 -44 12 36 6 -16 -29 -30
2 -46 21 54 17 -11 -29 -32
5 -47 29 72 28 -6 -29 -33
9 -39 36 89 48 11 -18 -27
14 -25 40 105 71 33 0 -16
19 -11 46 120 94 57 17 -5
24 4 51 136 117 80 34 8
30 18 56 152 141 103 52 19
30 40 60 153 160 130 74 35
26 66 63 144 178 158 99 55
23 93 67 134 195 187 123 74
19 119 71 125 212 216 147 94
15 146 74 115 229 244 172 112
5 167 73 97 234 256 182 122
-9 183 68 72 229 256 182 126
-23 199 62 48 224 256 182 129
-36 217 57 23 220 256 182 133
-50 233 52 -2 215 256 182 136
-60 212 34 -33 160 200 150 119
-66 165 11 -69 75 111 97 88
-73 118 -13 -106 -10 22 43 57
-79 72 -36 -142 -95 -66 -11 26
-87 25 -60 -178 -181 -155 -64 -6
-88 -8 -76 -192 -216 -192 -93 -26
-83 -32 -89 -193 -221 -196 -106 -41
-79 -57 -101 -194 -226 -200 -119 -57
-74 -81 -114 -195 -230 -205 -133 -71
-70 -106 -127 -196 -235 -210 -146 -87
-64 -116 -131 -192 -229 -204 -146 -91
-56 -116 -128 -184 -216 -191 -138 -88
-49 -116 -124 -176 -202 -178 -129 -85
-40 -116 -121 -166 -188 -164 -119 -80
-32 -116 -118 -158 -175 -151 -111 -77
-27 -113 -108 -143 -159 -138 -103 -73
-24 -108 -93 -124 -144 -127 -96 -69
-20 -104 -78 -106 -128 -114 -89 -65
-17 -99 -64 -88 -112 -102 -81 -60
-13 -94 -49 -69 -97 -90 -73 -56
-11 -89 -40 -59 -86 -81 -68 -52
-10 -81 -37 -55 -78 -75 -63 -49
-9 -75 -33 -51 -71 -69 -59 -46
-9 -68 -30 -46 -64 -63 -54 -41
-8 -62 -26 -41 -57 -57 -49 -38
-7 -56 -23 -37 -51 -51 -45 -35
-7 -50 -20 -33 -45 -46 -39 -32
-6 -44 -17 -29 -37 -39 -35 -29
-5 -38 -14 -24 -31 -33 -30 -26
-5 -32 -12 -20 -25 -28 -25 -23
-4 -28 -10 -18 -22 -25 -23 -21
-4 -27 -10 -18 -20 -23 -21 -21
-4 -25 -9 -17 -19 -21 -20 -21
-4 -23 -9 -16 -17 -20 -18 -21
-4 -21 -9 -16 -16 -18 -17 -21
-3 -20 -8 -15 -15 -17 -16 -22
-3 -19 -7 -14 -14 -16 -15 -22
-2 -17 -6 -12 -13 -14 -14 -22
-2 -16 -6 -11 -12 -13 -13 -22
-2 -15 -5 -10 -11 -12 -12 -22
0 -14 -4 -9 -10 -11 -11 -21
0 -13 -4 -9 -9 -10 -11 -21
1 -12 -4 -8 -8 -9 -10 -21
2 -11 -4 -7 -8 -9 -10 -21
2 -10 -4 -7 -7 -8 -10 -21
3 -9 -5 -6 -6 -7 -9 -20
3 -8 -5 -5 -5 -6 -8 -20
3 -7 -5 -4 -4 -4 -7 -19
3 -7 -5 -4 -4 -3 -7 -19
3 -6 -5 -3 -3 -2 -6 -19
3 -5 -5 -2 -2 0 -5 -18
3 -4 -5 -2 0 1 -5 -18
3 -3 -4 0 1 2 -4 -17
3 -3 -4 1 1 3 -4 -17
3 -2 -4 1 2 4 -4 -17
4 0 -3 2 3 5 -3 -16
4 0 -3 3 5 7 0 -16
4 0 -2 4 7 9 1 -15
4 0 0 4 8 10 3 -14
4 0 0 5 10 12 4 -14
4 1 1 6 11 13 5 -13
4 3 1 7 13 14 6 -12
5 5 1 9 14 16 8 -11
5 6 1 10 15 17 9 -10
5 8 1 11 17 18 10 -9
6 9 1 12 19 20 11 -8
6 11 1 14 21 22 13 -7
7 12 2 16 23 24 14 -6
8 13 3 17 25 26 15 -5
8 15 3 19 28 29 17 -4
9 17 4 21 30 31 18 -3
9 18 4 22 32 33 20 -2
10 20 5 24 35 35 22 0
10 22 5 26 37 37 23 1
10 24 5 28 39 40 25 2
11 26 6 30 44 44 27 4
11 28 8 33 47 47 30 5
12 30 9 37 51 51 33 7
13 32 10 40 55 55 35 9
13 35 12 44 59 59 38 11
14 37 13 47 63 63 42 13
15 40 14 51 66 66 45 15
16 44 16 55 70 70 48 18
16 47 17 58 74 74 51 20
17 50 18 62 78 78 54 22
18 53 19 65 81 81 57 25
19 56 20 68 85 85 60 27
20 58 21 71 88 89 63 29
20 61 22 74 90 92 65 31
21 63 23 77 93 95 68 33
22 65 24 79 95 97 70 34
22 67 24 80 96 98 71 35
23 69 25 82 97 100 73 37
23 71 25 84 98 101 74 38
23 73 25 85 99 102 75 39
24 74 26 86 100 103 76 40
24 74 26 86 100 103 76 40
24 75 27 87 99 102 76 40
24 76 27 87 99 102 76 40
24 76 27 87 99 102 76 40
23 77 28 88 97 100 76 42
23 77 28 87 95 98 75 42
22 77 29 85 93 96 74 42
22 77 29 84 91 94 74 42
22 77 29 82 89 92 73 42
21 76 30 81 87 90 71 40
20 74 30 80 85 87 69 38
19 72 30 78 81 84 66 37
18 71 30 77 78 81 64 36
17 69 30 76 76 78 62 34
16 67 31 74 73 74 59 32
16 65 31 72 69 70 56 30
15 62 31 69 66 66 53 28
14 59 31 67 63 62 50 26
14 57 31 65 59 57 47 24
13 54 30 62 56 53 44 21
12 51 30 59 53 50 40 19
11 48 29 56 50 46 37 17
10 45 28 54 48 42 34 15
9 42 28 51 45 37 31 13
8 38 27 48 42 34 28 10
8 35 25 45 38 30 25 8
7 32 23 40 35 27 22 6
6 30 21 37 32 24 20 4
6 27 19 34 29 20 17 2
5 24 18 31 26 17 14 1
5 22 18 28 24 15 12 -2
4 19 17 25 22 12 10 -4
3 17 16 23 20 9 8 -5
3 15 16 20 18 7 6 -7
2 13 14 17 15 4 4 -8
2 11 12 15 13 2 2 -9
1 9 10 12 10 0 1 -11
0 8 8 9 8 -3 0 -12
0 6 6 7 6 -5 -3 -13
-2 5 5 5 4 -6 -4 -14
-2 4 5 3 3 -7 -5 -14
-3 2 4 1 1 -8 -6 -15
-3 1 4 0 0 -9 -7 -15
-3 0 4 -3 -2 -10 -8 -15
-4 -2 3 -4 -3 -11 -9 -16
-4 -2 3 -5 -5 -12 -10 -16
-3 -3 2 -7 -6 -13 -11 -16
-3 -3 2 -8 -7 -14 -11 -16
-3 -3 2 -9 -9 -15 -12 -16
-2 -4 1 -10 -10 -16 -13 -16
-2 -5 1 -10 -10 -16 -13 -16
-2 -6 0 -11 -11 -16 -14 -17
-2 -6 -2 -11 -11 -16 -14 -17
-2 -7 -2 -11 -11 -16 -14 -17
-3 -8 -3 -12 -12 -17 -15 -18
-3 -8 -3 -12 -12 -17 -15 -18
-3 -8 -3 -12 -12 -17 -15 -18
-4 -8 -3 -12 -12 -17 -15 -18
-4 -8 -3 -12 -12 -17 -15 -18
-5 -8 -4 -13 -13 -18 -15 -17
-5 -8 -4 -12 -13 -18 -15 -17
-5 -8 -4 -12 -13 -18 -15 -17
-5 -8 -4 -11 -12 -18 -15 -17
-5 -8 -4 -10 -12 -18 -15 -17
-4 -8 -4 -9 -11 -18 -14 -16
-4 -8 -4 -9 -11 -18 -14 -16
-4 -8 -4 -9 -11 -18 -14 -16
-3 -8 -4 -9 -11 -18 -14 -16
-3 -8 -4 -9 -11 -18 -14 -16
-2 -8 -3 -9 -12 -17 -14 -16
-2 -8 -3 -9 -12 -17 -14 -16
-2 -8 -3 -8 -12 -17 -14 -16
-2 -8 -3 -7 -12 -17 -14 -16
-2 -8 -3 -7 -12 -17 -14 -16
-3 -8 -3 -6 -11 -16 -13 -15
-3 -8 -3 -6 -11 -16 -13 -15
-3 -7 -3 -6 -11 -16 -13 -15
-2 -6 -4 -6 -11 -16 -13 -14
-2 -6 -4 -6 -11 -16 -13 -14
0 -5 -5 -6 -10 -15 -13 -13
0 -5 -5 -6 -10 -15 -13 -13
0 -5 -5 -6 -10 -15 -13 -13
0 -5 -5 -5 -10 -14 -12 -13
0 -5 -5 -5 -10 -14 -12 -13
-2 -6 -4 -4 -9 -13 -11 -13
-2 -6 -4 -4 -9 -13 -11 -13
-2 -6 -4 -5 -9 -13 -11 -13
-2 -5 -4 -6 -9 -13 -11 -13
-2 -5 -4 -6 -9 -13 -11 -13
0 -4 -4 -7 -10 -13 -10 -12
0 -4 -4 -7 -10 -13 -10 -12
0 -4 -4 -7 -10 -13 -10 -12
0 -4 -5 -7 -10 -13 -10 -12
0 -4 -5 -7 -10 -13 -10 -12
1 -4 -6 -8 -11 -14 -11 -11
1 -4 -6 -8 -11 -14 -11 -11
1 -4 -6 -8 -11 -14 -11 -11
1 -4 -6 -8 -11 -14 -11 -11
1 -4 -6 -8 -11 -14 -11 -11
1 -4 -6 -9 -12 -15 -10 -10
1 -4 -6 -9 -12 -15 -10 -10
1 -5 -6 -9 -12 -15 -10 -10
1 -6 -6 -9 -12 -15 -10 -10
1 -6 -6 -9 -12 -15 -10 -10
1 -7 -7 -9 -13 -15 -10 -10
1 -7 -7 -9 -13 -15 -10 -10
1 -7 -7 -9 -13 -15 -10 -10
1 -7 -7 -10 -14 -15 -10 -10
1 -7 -7 -10 -14 -15 -10 -10
1 -7 -8 -11 -15 -16 -11 -10
1 -7 -8 -11 -15 -16 -11 -10
1 -8 -8 -11 -15 -16 -11 -10
0 -9 -8 -11 -15 -16 -11 -10
0 -9 -8 -11 -15 -16 -11 -10
-2 -10 -9 -11 -16 -17 -11 -9
-2 -10 -9 -11 -16 -17 -11 -9
-2 -10 -9 -12 -16 -17 -11 -9
0 -10 -9 -13 -16 -17 -12 -9
0 -10 -9 -13 -16 -17 -12 -9
1 -10 -9 -14 -17 -18 -13 -10
1 -10 -9 -14 -17 -18 -13 -10
1 -11 -9 -14 -17 -18 -13 -10
1 -12 -9 -14 -17 -18 -13 -10
1 -12 -9 -14 -17 -18 -13 -10
0 -13 -10 -14 -18 -18 -12 -10
0 -13 -10 -14 -18 -18 -12 -10
0 -13 -10 -14 -18 -18 -12 -10
0 -12 -10 -15 -19 -18 -12 -10
0 -12 -10 -15 -19 -18 -12 -10
1 -11 -11 -16 -20 -19 -13 -10
1 -10 -9 -14 -19 -18 -13 -10
1 -9 -8 -13 -18 -18 -12 -10
1 -8 -7 -12 -17 -17 -11 -9
1 -7 -5 -10 -16 -16 -11 -9
1 -6 -4 -9 -15 -15 -10 -8
1 -5 -4 -8 -15 -15 -10 -7
1 -4 -3 -8 -15 -14 -9 -7
1 -2 -2 -7 -14 -13 -8 -6
1 0 -2 -6 -14 -13 -8 -5
2 1 0 -5 -13 -12 -7 -4
2 1 0 -5 -13 -12 -7 -4
2 2 1 -5 -13 -12 -7 -4
2 3 2 -4 -13 -12 -7 -4
2 3 2 -4 -13 -12 -7 -4
3 5 3 -3 -12 -12 -7 -3
3 7 3 -3 -11 -11 -6 -2
3 10 3 -3 -10 -10 -4 1
4 12 3 -3 -9 -8 -3 2
4 15 3 -3 -8 -7 0 4
5 17 4 -3 -7 -6 1 5
6 18 3 -3 -7 -6 1 5
7 19 2 -3 -7 -6 2 6
8 20 1 -3 -7 -5 3 7
9 21 0 -3 -7 -5 3 7
10 22 -2 -4 -6 -4 4 8
10 22 -2 -4 -6 -4 4 8
10 21 -2 -4 -6 -4 4 8
10 20 -3 -4 -6 -4 4 8
10 20 -3 -4 -6 -4 4 8
11 19 -4 -4 -7 -4 3 8
11 17 -4 -4 -7 -4 3 8
11 15 -4 -4 -7 -4 3 8
11 13 -5 -5 -8 -5 3 8
11 12 -5 -5 -8 -5 3 8
12 10 -6 -6 -9 -6 2 7
10 7 -6 -6 -9 -7 1 6
8 5 -6 -6 -10 -8 0 5
6 2 -5 -7 -11 -10 -3 3
4 0 -5 -7 -11 -11 -4 2
2 -3 -4 -8 -12 -12 -5 1
2 -6 -5 -9 -14 -13 -7 0
1 -8 -6 -10 -15 -14 -8 -3
0 -11 -7 -12 -17 -16 -10 -4
0 -13 -8 -13 -19 -17 -12 -6
-2 -15 -9 -14 -20 -18 -13 -7
-2 -17 -10 -15 -22 -20 -14 -8
-2 -19 -11 -17 -24 -21 -15 -8
-2 -21 -13 -18 -26 -23 -16 -9
-2 -22 -14 -20 -27 -25 -17 -10
-3 -24 -15 -21 -29 -26 -18 -11
-3 -24 -15 -21 -29 -26 -18 -11
-3 -24 -15 -21 -29 -26 -18 -11
-3 -25 -15 -21 -29 -26 -19 -12
-3 -25 -15 -21 -29 -26 -19 -12
-2 -26 -14 -22 -28 -27 -20 -13
-2 -26 -14 -22 -28 -27 -20 -13
-2 -26 -14 -22 -29 -27 -20 -13
-2 -27 -14 -22 -30 -28 -21 -13
-2 -27 -14 -22 -30 -28 -21 -13
-3 -28 -15 -23 -31 -29 -22 -14
-3 -28 -15 -23 -31 -29 -22 -14
-3 -29 -15 -23 -31 -29 -22 -14
-3 -30 -16 -24 -31 -29 -22 -14
-3 -30 -16 -24 -31 -29 -22 -14
-4 -31 -17 -25 -31 -30 -23 -15
-4 -31 -17 -25 -31 -30 -23 -15
-4 -31 -17 -25 -31 -30 -23 -15
-4 -31 -17 -25 -31 -30 -23 -15
-4 -31 -17 -25 -31 -30 -23 -15
-3 -31 -17 -25 -31 -30 -23 -15
-3 -31 -17 -25 -31 -30 -23 -15
-3 -31 -17 -25 -31 -30 -23 -15
-3 -32 -17 -25 -31 -30 -23 -15
-3 -32 -17 -25 -31 -30 -23 -15
-3 -33 -18 -25 -32 -30 -24 -16
-3 -36 -16 -21 -30 -30 -25 -17
-2 -38 -15 -17 -28 -30 -25 -19
0 -41 -13 -14 -26 -29 -26 -20
0 -44 -11 -10 -25 -29 -27 -22
2 -46 -7 0 -19 -26 -28 -23
4 -46 3 19 -6 -21 -27 -24
7 -46 11 37 7 -15 -26 -25
10 -47 20 57 20 -9 -25 -26
13 -47 29 75 33 -3 -24 -27
16 -43 36 93 50 11 -16 -24
22 -27 39 107 74 36 4 -10
27 -11 44 121 99 63 23 4
32 5 48 136 123 89 43 17
37 20 51 150 148 114 62 30
40 39 56 156 170 141 84 46
35 67 62 146 187 170 107 65
30 94 68 136 203 197 132 84
25 121 74 126 220 225 155 103
20 149 81 115 236 253 180 122
11 170 80 98 243 269 194 135
-4 179 64 70 232 261 190 136
-18 188 48 42 220 254 187 136
-32 197 31 13 209 246 183 137
-47 207 16 -16 196 238 179 138
-59 196 -2 -47 157 200 155 127
-64 147 -19 -83 69 109 98 92
-70 97 -37 -120 -19 17 40 57
-76 48 -56 -157 -107 -75 -17 22
-82 -2 -73 -194 -194 -168 -74 -13
-86 -40 -89 -219 -252 -227 -115 -39
-81 -61 -99 -219 -252 -227 -126 -53
-77 -80 -110 -218 -252 -226 -135 -65
-73 -101 -120 -217 -252 -225 -145 -78
-69 -120 -131 -217 -252 -225 -154 -91
-64 -133 -136 -211 -246 -219 -158 -99
-55 -130 -131 -196 -231 -204 -148 -93
-47 -127 -124 -182 -215 -189 -138 -88
-37 -123 -118 -166 -199 -174 -127 -82
-29 -120 -112 -152 -184 -158 -116 -77
-22 -116 -104 -137 -168 -144 -107 -72
-19 -112 -92 -120 -151 -132 -99 -68
-15 -107 -78 -104 -135 -119 -91 -64
-11 -103 -66 -88 -117 -107 -82 -59
-8 -98 -54 -71 -101 -95 -74 -55
-5 -93 -44 -59 -88 -83 -67 -51
-4 -85 -39 -54 -79 -77 -62 -47
-3 -77 -35 -48 -71 -70 -57 -43
-2 -69 -30 -43 -63 -63 -52 -38
0 -62 -26 -37 -56 -57 -47 -34
1 -55 -23 -32 -49 -51 -41 -31
2 -50 -21 -28 -44 -46 -37 -28
2 -45 -18 -25 -37 -41 -34 -25
3 -39 -16 -21 -32 -36 -30 -22
4 -34 -14 -17 -27 -32 -26 -19
5 -30 -12 -14 -23 -28 -23 -17
5 -28 -12 -13 -22 -26 -22 -16
5 -27 -12 -13 -20 -25 -20 -15
6 -25 -11 -12 -19 -23 -19 -14
6 -24 -11 -11 -17 -22 -17 -12
7 -22 -10 -10 -16 -20 -16 -11
7 -21 -9 -9 -15 -19 -15 -11
7 -20 -9 -8 -13 -17 -14 -11
7 -19 -8 -7 -12 -16 -13 -11
7 -18 -7 -5 -10 -14 -12 -11
8 -17 -6 -4 -9 -13 -11 -10
8 -16 -6 -4 -9 -13 -11 -9
8 -15 -6 -4 -9 -12 -11 -9
8 -14 -7 -4 -9 -12 -10 -8
8 -13 -7 -4 -9 -11 -10 -7
9 -12 -8 -4 -8 -10 -9 -6
9 -12 -8 -3 -7 -9 -8 -6
9 -11 -8 -2 -6 -7 -7 -5
9 -11 -7 0 -5 -6 -6 -5
9 -10 -7 2 -3 -4 -5 -4
9 -9 -6 3 -2 -3 -4 -3
9 -8 -6 3 0 -2 -4 -3
10 -7 -6 3 0 0 -4 -2
10 -6 -6 3 1 1 -3 -2
11 -5 -6 3 2 2 -3 0
12 -4 -6 4 3 3 -2 1
12 -4 -6 5 5 4 0 1
12 -4 -6 7 6 6 1 2
12 -4 -5 8 8 7 2 2
12 -4 -5 10 9 9 4 3
13 -4 -4 11 11 10 5 4
13 -2 -4 12 12 12 6 4
13 0 -4 13 14 13 7 5
14 2 -4 14 15 15 8 5
14 3 -4 15 17 16 10 6
15 5 -3 16 18 18 11 7
16 6 -2 18 21 20 13 8
16 7 0 20 23 22 14 9
17 8 1 22 25 24 16 10
18 10 2 24 28 26 17 12
19 11 3 26 30 28 19 13
19 13 3 28 33 31 21 14
19 15 4 30 35 33 23 15
19 17 4 31 37 36 24 16
19 19 5 33 40 39 26 18
20 21 6 36 44 43 28 19
20 24 7 39 48 46 31 21
20 26 8 44 52 50 34 23
21 28 9 47 56 54 37 25
21 31 11 51 61 58 40 27
22 34 12 55 65 62 44 29
22 37 13 58 69 66 48 32
22 42 14 62 73 70 51 34
23 45 15 66 77 74 54 37
23 49 16 70 81 79 57 40
24 52 17 73 85 82 60 43
24 55 18 77 89 87 63 45
24 58 19 80 92 90 66 48
24 61 20 85 96 94 69 50
24 64 22 88 99 97 72 52
24 67 23 91 102 100 75 54
24 69 23 92 102 101 76 55
24 70 23 94 103 103 78 56
24 72 24 95 103 104 79 57
24 73 24 96 104 105 80 59
25 75 25 98 105 107 82 60
25 75 25 98 105 107 82 60
25 76 25 99 105 107 82 60
25 76 25 99 105 107 82 60
25 77 25 100 105 107 82 60
25 78 26 101 105 106 82 61
25 78 26 100 103 103 81 61
24 78 27 99 101 101 80 61
24 77 27 98 99 99 79 61
23 77 28 97 97 96 77 61
22 76 29 96 95 94 76 60
21 74 29 94 92 90 74 58
20 72 29 93 90 87 71 56
19 70 30 91 87 84 69 55
18 68 30 90 84 80 67 53
17 66 31 88 80 76 65 51
17 63 31 85 77 72 61 48
16 60 31 82 73 68 58 46
16 57 31 79 69 64 54 44
15 55 31 76 65 60 51 40
14 52 30 74 62 55 48 38
13 48 30 71 59 52 45 35
11 45 29 68 56 48 42 33
10 42 29 65 53 44 38 31
9 38 28 62 50 39 35 28
7 35 27 59 47 36 32 26
6 32 25 55 43 32 28 24
6 29 23 51 38 28 25 22
5 26 22 48 34 24 22 19
4 23 20 44 30 20 19 17
3 20 18 40 27 17 16 15
3 17 17 37 24 14 14 14
2 15 17 34 22 12 12 12
2 12 16 31 20 9 9 11
1 9 15 29 17 6 7 10
0 7 14 26 15 4 5 8
0 5 12 23 12 1 4 6
0 3 10 20 10 -2 2 5
-2 2 9 17 7 -4 1 3
-2 0 7 15 4 -7 0 2
-3 -3 5 12 2 -9 -3 0
-3 -4 5 10 1 -10 -4 0
-3 -5 4 8 -2 -12 -5 -2
-3 -6 4 7 -3 -13 -6 -2
-3 -7 3 5 -4 -14 -8 -3
-4 -8 2 3 -6 -16 -9 -4
-4 -8 2 2 -7 -17 -9 -4
-4 -9 2 0 -8 -18 -10 -4
-4 -9 1 -2 -9 -19 -11 -4
-4 -10 1 -3 -10 -21 -12 -4
-5 -11 0 -5 -11 -22 -13 -5
-5 -11 0 -5 -11 -22 -13 -5
-5 -11 0 -5 -11 -22 -13 -5
-5 -12 -2 -5 -12 -22 -13 -6
-5 -12 -2 -5 -12 -22 -13 -6
-6 -13 -3 -5 -13 -23 -14 -7
-6 -13 -3 -5 -13 -23 -14 -7
-6 -13 -3 -5 -13 -23 -14 -7
-6 -13 -4 -6 -13 -23 -14 -7
-6 -13 -4 -6 -13 -23 -14 -7
-5 -13 -5 -7 -13 -24 -15 -7
-5 -13 -5 -7 -13 -24 -15 -7
-5 -13 -5 -6 -13 -24 -15 -7
-5 -13 -4 -5 -13 -24 -15 -7
-5 -13 -4 -4 -13 -24 -15 -7
-5 -14 -3 -3 -12 -23 -14 -7
-5 -14 -3 -3 -12 -23 -14 -7
-5 -14 -3 -3 -12 -23 -14 -7
-5 -14 -3 -3 -12 -23 -14 -6
-5 -14 -3 -3 -12 -23 -14 -6
-5 -14 -3 -2 -11 -23 -13 -5
-5 -14 -3 -2 -11 -23 -13 -5
-5 -14 -3 -2 -11 -23 -13 -5
-5 -14 -3 -2 -10 -23 -13 -5
-5 -14 -3 -2 -10 -23 -13 -5
-5 -13 -2 0 -9 -22 -13 -5
-5 -13 -2 0 -9 -22 -13 -5
-5 -13 -2 0 -9 -22 -13 -5
-4 -13 -2 0 -9 -22 -13 -5
-4 -13 -2 0 -9 -22 -13 -5
-3 -12 -3 1 -9 -22 -12 -5
-3 -12 -3 1 -9 -22 -12 -5
-3 -12 -3 1 -9 -22 -12 -5
-3 -12 -3 1 -9 -22 -12 -5
-3 -12 -3 1 -9 -22 -12 -5
-3 -12 -4 0 -8 -21 -11 -4
-3 -12 -4 0 -8 -21 -11 -4
-3 -12 -4 0 -9 -21 -11 -4
-3 -12 -4 0 -9 -22 -11 -4
-3 -12 -4 0 -10 -22 -11 -4
-4 -12 -3 -2 -11 -23 -11 -4
-4 -12 -3 -2 -11 -23 -11 -4
-4 -12 -3 -2 -11 -23 -11 -4
-4 -12 -3 -3 -11 -23 -11 -4
-4 -12 -3 -3 -11 -23 -11 -4
-4 -12 -4 -4 -11 -23 -11 -5
-4 -12 -4 -4 -11 -23 -11 -5
-4 -12 -4 -4 -11 -23 -11 -5
-3 -12 -5 -4 -11 -23 -11 -5
-3 -12 -5 -4 -11 -23 -11 -5
-2 -11 -6 -5 -12 -24 -11 -4
-2 -11 -6 -5 -12 -24 -11 -4
-2 -11 -6 -5 -12 -24 -11 -4
-3 -11 -6 -5 -13 -25 -11 -5
-3 -11 -6 -5 -13 -25 -11 -5
-4 -12 -7 -5 -14 -26 -11 -6
-4 -12 -7 -5 -14 -26 -11 -6
-4 -12 -7 -6 -14 -26 -11 -6
-4 -12 -7 -7 -15 -26 -11 -6
-4 -12 -7 -8 -15 -26 -11 -6
-3 -13 -7 -9 -16 -27 -12 -5
-3 -13 -7 -9 -16 -27 -12 -5
-3 -14 -7 -9 -16 -27 -12 -5
-3 -14 -7 -9 -16 -28 -13 -5
-3 -15 -7 -9 -16 -28 -13 -5
-3 -16 -8 -9 -17 -29 -14 -6
-3 -16 -8 -9 -17 -29 -14 -6
-3 -16 -8 -10 -18 -29 -14 -6
-3 -16 -8 -11 -18 -30 -14 -6
-3 -16 -8 -12 -19 -30 -14 -6
-3 -16 -8 -13 -20 -31 -15 -7
-3 -16 -8 -13 -20 -31 -15 -7
-3 -16 -8 -13 -20 -31 -15 -7
-3 -17 -8 -13 -20 -31 -15 -7
-3 -17 -8 -13 -20 -31 -15 -7
-4 -18 -8 -12 -20 -31 -16 -7
-4 -18 -8 -12 -20 -31 -16 -7
-4 -18 -8 -12 -21 -31 -16 -7
-3 -18 -8 -13 -22 -32 -16 -8
-3 -18 -8 -13 -23 -32 -16 -8
-2 -19 -9 -14 -24 -33 -17 -9
-2 -19 -9 -14 -24 -33 -17 -9
-2 -19 -9 -14 -24 -33 -17 -9
-2 -19 -9 -14 -23 -33 -17 -9
-2 -19 -9 -14 -23 -33 -17 -9
-3 -20 -8 -14 -22 -33 -16 -9
-3 -19 -8 -14 -22 -33 -16 -9
-3 -17 -7 -14 -22 -32 -16 -9
-4 -16 -7 -13 -22 -32 -16 -9
-4 -15 -6 -13 -22 -31 -16 -9
-5 -13 -5 -12 -22 -30 -16 -9
-5 -12 -4 -11 -21 -29 -15 -8
-5 -10 -3 -10 -20 -28 -14 -7
-4 -9 -2 -9 -19 -27 -13 -6
-4 -8 1 -7 -17 -26 -12 -5
-3 -6 2 -6 -16 -25 -11 -4
-3 -6 2 -6 -16 -25 -11 -4
-2 -6 2 -6 -16 -25 -11 -4
-2 -5 3 -6 -15 -24 -11 -4
0 -5 3 -6 -15 -24 -11 -4
1 -4 4 -5 -14 -23 -10 -3
1 -2 4 -5 -13 -22 -10 -3
1 1 4 -5 -12 -21 -10 -3
1 3 4 -5 -11 -20 -9 -2
1 5 4 -5 -10 -19 -9 -2
0 7 5 -4 -9 -18 -8 0
1 9 5 -4 -9 -17 -7 1
2 11 5 -4 -9 -15 -6 2
3 13 4 -4 -9 -13 -5 3
4 15 4 -4 -9 -12 -4 4
6 17 3 -4 -8 -10 -2 6
6 17 2 -4 -8 -10 -2 6
7 17 1 -5 -8 -10 -2 6
8 16 0 -5 -8 -10 -2 6
9 16 -2 -6 -8 -10 -2 6
10 15 -3 -7 -9 -9 -2 7
10 14 -3 -7 -9 -9 -2 7
10 12 -4 -7 -9 -9 -2 7
10 11 -4 -7 -9 -9 -2 6
10 10 -5 -7 -9 -9 -2 6
9 8 -6 -7 -10 -9 -3 5
8 6 -6 -7 -10 -9 -3 5
7 4 -6 -8 -11 -10 -4 4
6 2 -6 -9 -12 -11 -5 4
5 -2 -6 -10 -13 -12 -6 3
3 -4 -6 -11 -14 -13 -7 2
2 -6 -6 -11 -15 -14 -8 0
1 -9 -6 -11 -16 -16 -10 -2
0 -12 -6 -12 -17 -18 -12 -4
-2 -14 -6 -12 -18 -19 -13 -6
-3 -17 -6 -13 -20 -21 -15 -8
-3 -19 -7 -15 -22 -22 -16 -9
-3 -20 -8 -17 -23 -23 -17 -10
-2 -22 -10 -19 -25 -25 -19 -11
-2 -24 -11 -21 -27 -26 -20 -12
0 -26 -13 -23 -29 -28 -22 -14
0 -26 -13 -23 -29 -28 -22 -14
0 -26 -14 -24 -30 -28 -22 -14
-2 -27 -14 -24 -30 -29 -22 -14
-2 -27 -15 -25 -31 -29 -22 -14
-3 -28 -16 -26 -32 -30 -23 -14
-3 -28 -16 -26 -32 -30 -23 -14
-3 -28 -16 -26 -32 -30 -23 -15
-3 -29 -16 -26 -32 -30 -23 -15
-3 -29 -16 -26 -32 -30 -23 -16
-4 -30 -16 -26 -31 -30 -24 -17
-4 -30 -16 -26 -31 -30 -24 -17
-4 -30 -16 -27 -31 -31 -24 -17
-4 -31 -16 -27 -32 -31 -25 -17
-4 -31 -16 -28 -32 -32 -25 -17
-4 -32 -17 -29 -33 -33 -26 -18
-4 -32 -17 -29 -33 -33 -26 -18
-4 -32 -17 -29 -33 -33 -26 -18
-4 -33 -17 -29 -33 -33 -26 -18
-4 -33 -17 -29 -33 -33 -26 -18
-4 -34 -18 -28 -32 -33 -27 -19
-4 -34 -18 -28 -32 -33 -27 -19
-4 -34 -18 -28 -32 -33 -27 -19
-4 -34 -18 -28 -32 -33 -27 -19
-4 -34 -18 -28 -32 -33 -27 -19
-5 -34 -18 -28 -33 -34 -26 -18
-5 -35 -18 -26 -32 -34 -26 -18
-5 -36 -18 -25 -31 -34 -26 -18
-4 -37 -17 -23 -30 -34 -27 -19
-4 -38 -17 -21 -29 -34 -27 -19
-3 -39 -16 -18 -28 -33 -28 -20
0 -43 -9 -3 -19 -30 -29 -23
2 -47 0 13 -11 -28 -30 -26
4 -51 7 28 -3 -25 -31 -29
6 -54 14 44 6 -22 -32 -33
8 -57 21 59 16 -17 -33 -36
13 -46 28 77 38 3 -19 -27
18 -34 34 96 62 23 -6 -18
24 -23 40 114 85 43 9 -9
29 -12 48 133 107 63 22 1
34 1 54 149 131 85 37 12
34 26 57 145 150 115 64 31
33 53 60 141 171 146 91 52
32 78 63 137 191 178 116 71
31 105 67 133 212 209 143 92
29 131 70 128 230 238 168 111
16 151 68 109 236 251 178 121
4 173 66 92 242 263 187 132
-10 193 64 73 248 275 196 142
-23 215 62 55 255 287 205 152
-35 231 58 34 254 292 211 160
-46 197 34 -11 172 210 162 134
-55 163 11 -56 91 127 115 106
-65 129 -13 -101 9 45 67 79
-74 95 -36 -146 -72 -37 19 52
-83 60 -59 -187 -148 -114 -27 26
-80 26 -72 -191 -168 -137 -51 4
-78 -8 -86 -194 -187 -158 -75 -18
-75 -41 -99 -198 -206 -181 -100 -39
-72 -75 -112 -202 -226 -202 -124 -61
-69 -107 -124 -206 -244 -222 -147 -81
-61 -109 -124 -200 -233 -211 -141 -81
-54 -112 -124 -193 -222 -198 -136 -80
-47 -115 -126 -187 -212 -187 -130 -79
-38 -117 -126 -180 -200 -175 -124 -78
-31 -120 -126 -173 -189 -162 -118 -77
-27 -116 -111 -152 -171 -149 -109 -73
-22 -112 -97 -132 -153 -136 -101 -68
-17 -108 -82 -111 -135 -121 -93 -63
-13 -103 -68 -91 -117 -108 -83 -59
-8 -99 -54 -71 -100 -95 -75 -54
-7 -93 -50 -67 -93 -89 -71 -51
-6 -87 -45 -62 -86 -82 -66 -48
-5 -80 -40 -58 -78 -75 -61 -45
-4 -74 -36 -54 -71 -69 -57 -40
-3 -68 -31 -49 -64 -63 -52 -37
-3 -62 -28 -43 -57 -57 -48 -34
-2 -56 -24 -36 -50 -51 -43 -30
0 -50 -20 -31 -43 -45 -37 -26
1 -44 -17 -25 -35 -38 -33 -23
2 -37 -13 -19 -28 -32 -28 -19
2 -35 -13 -19 -27 -30 -26 -18
2 -32 -12 -19 -25 -28 -24 -17
3 -29 -12 -18 -23 -26 -22 -15
3 -26 -11 -18 -21 -24 -20 -14
4 -23 -10 -17 -19 -21 -17 -12
4 -23 -10 -16 -18 -20 -17 -11
4 -22 -10 -14 -16 -19 -16 -10
4 -21 -10 -12 -15 -17 -15 -9
4 -20 -10 -10 -13 -16 -14 -8
5 -19 -9 -8 -11 -14 -13 -7
5 -18 -9 -8 -11 -13 -12 -6
5 -16 -8 -8 -10 -12 -11 -5
6 -15 -8 -8 -10 -11 -10 -4
6 -13 -7 -8 -9 -10 -9 -3
7 -11 -6 -8 -8 -9 -8 -2
7 -11 -6 -7 -7 -8 -8 -2
7 -11 -6 -6 -6 -7 -8 -2
7 -11 -6 -4 -5 -6 -8 -2
7 -11 -6 -3 -4 -5 -8 -2
7 -10 -6 0 -2 -4 -7 -2
7 -9 -6 0 -2 -3 -6 -2
7 -8 -6 0 -2 -2 -5 0
7 -7 -6 0 0 0 -4 1
7 -6 -6 0 0 1 -3 2
8 -4 -5 0 1 2 0 3
8 -4 -5 1 2 3 0 3
8 -4 -5 3 4 4 1 3
8 -3 -5 4 5 6 1 3
8 -3 -5 6 7 7 2 3
9 -2 -4 8 9 9 3 4
9 0 -4 8 10 10 4 5
9 1 -3 9 11 11 5 6
9 3 -3 9 12 13 7 7
9 4 -2 10 13 14 8 8
10 6 0 11 15 16 10 10
10 6 0 13 17 18 11 10
10 7 0 15 19 20 12 11
11 8 1 17 21 22 13 11
11 9 1 19 23 24 14 12
12 10 2 21 26 26 16 13
12 12 2 22 28 28 18 14
12 14 3 24 30 30 20 15
12 16 3 26 33 33 22 17
12 18 4 28 35 35 24 18
12 21 5 30 38 38 26 20
12 22 5 33 42 42 28 21
13 24 6 36 45 45 30 23
14 26 7 39 49 49 32 24
15 28 8 43 52 52 34 26
16 30 9 47 56 56 36 28
16 33 9 49 59 59 39 30
17 37 10 52 62 63 43 32
17 40 11 55 66 67 46 34
18 45 12 58 69 71 49 36
19 49 13 61 73 75 53 39
19 51 14 64 76 78 55 42
20 53 15 67 79 81 58 44
21 55 16 71 84 86 60 46
22 57 17 74 87 89 63 48
23 60 19 78 91 93 66 51
23 62 19 79 92 94 68 52
23 65 19 80 93 96 70 54
23 68 20 82 95 97 72 55
23 71 20 84 96 99 74 57
23 74 21 86 98 101 76 59
23 74 21 86 98 101 76 59
23 74 21 87 98 101 76 59
23 75 21 88 98 100 76 59
23 75 21 89 98 100 76 59
24 76 21 90 97 99 75 60
24 76 21 89 96 98 75 60
24 76 22 88 94 97 75 60
23 77 22 87 93 96 74 60
23 77 23 86 91 95 74 60
22 78 24 85 89 94 73 60
22 77 24 85 87 91 71 59
21 75 24 84 85 88 69 57
20 74 24 82 82 85 66 55
19 72 24 81 80 81 64 53
18 70 24 80 77 78 61 51
17 68 24 78 74 75 59 49
16 66 24 76 71 71 57 47
15 64 25 73 68 67 54 45
14 62 25 71 65 63 52 43
13 60 26 68 62 59 49 40
13 57 26 66 59 56 46 38
12 54 25 64 56 52 43 35
11 51 25 62 53 49 38 33
10 48 24 61 51 45 35 30
10 45 24 59 48 42 32 28
9 42 23 55 44 37 29 26
8 39 22 51 40 33 26 24
8 37 21 48 37 30 24 22
7 35 20 44 34 26 21 20
7 33 20 40 31 23 19 18
6 30 18 37 28 20 16 16
5 27 17 34 25 17 14 14
4 24 16 32 23 14 11 12
3 21 15 29 20 11 9 10
2 18 14 27 18 9 7 9
1 16 12 24 15 6 5 7
1 15 10 21 12 4 3 6
1 13 9 18 10 1 1 4
1 12 7 15 7 -2 -2 3
1 11 6 12 5 -4 -3 2
0 9 5 10 3 -6 -5 1
0 8 4 8 2 -7 -6 0
-2 6 3 7 0 -8 -7 -2
-2 5 2 5 -2 -9 -8 -3
-2 4 1 4 -3 -10 -9 -4
-3 3 0 2 -5 -11 -10 -5
-3 2 -2 0 -6 -12 -10 -5
-3 2 -3 -2 -7 -13 -11 -5
-3 1 -4 -4 -8 -14 -11 -5
-3 1 -4 -5 -9 -15 -11 -5
-4 0 -5 -6 -10 -16 -12 -6
-4 -2 -5 -6 -10 -17 -13 -7
-4 -3 -5 -6 -11 -17 -13 -8
-4 -4 -5 -6 -11 -18 -14 -9
-4 -4 -5 -6 -11 -18 -14 -9
-5 -5 -6 -7 -12 -19 -15 -10
-5 -5 -6 -8 -12 -19 -15 -10
-5 -4 -6 -8 -12 -19 -15 -9
-5 -4 -6 -9 -12 -19 -15 -9
-5 -4 -6 -9 -12 -19 -15 -9
-4 -3 -6 -10 -13 -20 -14 -8
-4 -4 -6 -9 -13 -20 -14 -8
-4 -4 -6 -8 -13 -20 -14 -8
-4 -5 -6 -7 -13 -20 -14 -8
-4 -5 -6 -7 -13 -20 -14 -8
-3 -6 -7 -6 -14 -20 -15 -9
-3 -5 -7 -6 -13 -20 -15 -9
-3 -5 -7 -6 -13 -19 -15 -9
-3 -4 -7 -6 -12 -19 -15 -9
-3 -4 -7 -6 -12 -19 -15 -9
-3 -3 -6 -6 -11 -18 -14 -8
-3 -3 -6 -5 -11 -18 -14 -8
-3 -3 -6 -4 -10 -17 -14 -8
-3 -3 -6 -3 -10 -17 -14 -8
-3 -3 -6 -3 -10 -17 -14 -8
-4 -4 -5 -2 -9 -16 -14 -8
-4 -4 -5 -2 -9 -16 -13 -8
-4 -3 -5 -2 -9 -16 -13 -7
-4 -3 -5 -2 -9 -16 -12 -7
-4 -3 -5 -2 -9 -16 -12 -7
-5 -2 -4 -3 -8 -15 -11 -6
-5 -2 -4 -3 -8 -15 -11 -6
-4 -2 -4 -3 -8 -15 -12 -6
-4 -2 -4 -3 -8 -15 -12 -6
-4 -2 -4 -3 -8 -15 -12 -6
-3 -2 -5 -2 -9 -15 -13 -7
-3 -2 -5 -2 -9 -15 -12 -7
-3 -2 -5 -3 -9 -15 -12 -6
-3 -2 -5 -3 -9 -15 -11 -6
-3 -2 -5 -3 -9 -15 -11 -6
-3 0 -6 -4 -10 -14 -10 -5
-3 0 -6 -4 -10 -14 -10 -5
-3 0 -6 -4 -10 -14 -10 -5
-3 0 -6 -4 -10 -14 -10 -5
-3 0 -6 -4 -10 -14 -10 -5
-3 -2 -6 -4 -11 -15 -11 -6
-3 -2 -6 -4 -11 -15 -11 -6
-3 -2 -6 -5 -11 -15 -11 -6
-3 -2 -6 -5 -11 -15 -11 -6
-3 -2 -6 -5 -11 -15 -11 -6
-3 0 -7 -6 -12 -15 -11 -5
-3 -2 -7 -6 -12 -15 -11 -5
-3 -2 -7 -6 -13 -15 -11 -6
-3 -3 -7 -6 -13 -15 -11 -6
-3 -3 -7 -6 -13 -15 -11 -6
-2 -4 -7 -6 -14 -16 -12 -7
-2 -4 -7 -6 -14 -16 -12 -7
-2 -4 -7 -7 -14 -16 -12 -7
-2 -4 -7 -7 -14 -16 -12 -7
-2 -4 -7 -7 -14 -16 -12 -7
0 -3 -8 -8 -15 -17 -12 -7
0 -4 -8 -8 -16 -17 -12 -7
0 -5 -8 -8 -17 -18 -12 -7
0 -6 -8 -8 -18 -18 -12 -7
0 -6 -8 -8 -18 -18 -12 -7
0 -7 -9 -9 -19 -19 -13 -8
0 -7 -9 -10 -19 -19 -13 -8
0 -7 -9 -10 -19 -19 -13 -8
0 -7 -9 -11 -19 -19 -13 -8
0 -7 -9 -11 -19 -19 -13 -8
0 -8 -10 -12 -20 -19 -12 -8
0 -8 -10 -12 -20 -19 -13 -8
0 -9 -10 -12 -21 -20 -13 -9
0 -9 -10 -12 -21 -20 -14 -9
0 -9 -10 -12 -21 -20 -14 -9
1 -10 -10 -12 -22 -21 -15 -10
1 -10 -10 -13 -22 -21 -15 -10
1 -10 -10 -13 -22 -21 -15 -10
1 -10 -10 -14 -22 -21 -15 -10
1 -10 -10 -14 -22 -21 -15 -10
0 -10 -11 -15 -22 -22 -15 -9
0 -10 -11 -15 -22 -22 -15 -9
0 -10 -11 -15 -22 -22 -16 -10
0 -10 -11 -15 -22 -22 -16 -10
0 -10 -11 -15 -22 -22 -16 -10
0 -10 -9 -15 -23 -21 -16 -11
0 -8 -8 -14 -22 -20 -15 -10
1 -7 -7 -13 -21 -19 -14 -9
1 -5 -6 -12 -20 -18 -13 -8
1 -4 -5 -11 -20 -17 -12 -8
2 -3 -4 -10 -19 -16 -11 -7
2 -2 -3 -9 -18 -16 -11 -7
2 0 -2 -8 -18 -15 -11 -6
2 1 0 -7 -17 -15 -11 -6
2 1 0 -7 -17 -15 -11 -6
2 2 1 -6 -16 -14 -11 -5
2 3 1 -6 -16 -14 -10 -5
2 4 1 -6 -15 -14 -10 -4
2 5 1 -6 -15 -14 -9 -4
2 5 1 -6 -15 -14 -9 -4
3 7 2 -5 -13 -12 -7 -3
3 10 2 -4 -12 -10 -6 -2
4 12 2 -4 -11 -9 -4 -2
4 14 2 -3 -10 -7 -3 0
4 16 2 -3 -9 -6 -2 0
5 18 2 -2 -8 -5 0 2
6 19 2 -3 -8 -5 0 3
7 20 1 -4 -8 -4 0 5
8 21 1 -5 -8 -4 0 6
9 22 1 -5 -8 -4 0 7
10 23 0 -6 -9 -3 1 8
11 22 -2 -6 -9 -4 1 7
11 21 -3 -6 -9 -4 1 7
12 20 -4 -6 -9 -5 1 6
12 20 -4 -6 -9 -5 1 6
13 18 -5 -5 -10 -6 0 5
13 16 -5 -5 -11 -6 0 5
13 15 -6 -6 -11 -6 0 5
13 13 -6 -6 -12 -6 0 5
13 12 -6 -6 -12 -6 0 5
11 9 -7 -7 -13 -7 -2 3
8 6 -7 -7 -13 -8 -3 2
6 3 -7 -7 -13 -9 -4 0
4 1 -7 -7 -13 -10 -5 -2
2 -3 -7 -7 -13 -11 -6 -3
1 -6 -6 -9 -15 -13 -8 -5
1 -8 -7 -11 -17 -14 -10 -6
0 -10 -7 -12 -18 -16 -11 -7
0 -13 -8 -14 -20 -17 -13 -8
0 -15 -8 -15 -21 -18 -14 -9
-2 -17 -9 -16 -23 -20 -15 -10
-2 -19 -10 -17 -24 -21 -16 -11
-2 -21 -11 -18 -26 -23 -17 -12
-2 -22 -12 -19 -27 -24 -18 -13
-2 -24 -13 -20 -28 -25 -19 -14
0 -25 -14 -21 -29 -26 -20 -15
0 -25 -14 -22 -29 -26 -20 -15
0 -26 -14 -22 -30 -26 -20 -15
0 -26 -14 -23 -30 -26 -20 -15
0 -26 -14 -23 -30 -26 -20 -15
0 -27 -14 -24 -31 -26 -20 -15
0 -27 -14 -24 -31 -26 -21 -16
-2 -28 -15 -24 -31 -27 -21 -16
-2 -28 -15 -24 -31 -27 -22 -17
-2 -28 -15 -24 -31 -27 -22 -17
-3 -29 -16 -24 -32 -28 -23 -18
-3 -29 -16 -24 -32 -28 -23 -18
-3 -30 -17 -25 -32 -29 -23 -18
-3 -30 -17 -25 -32 -29 -23 -18
-3 -30 -17 -25 -32 -29 -23 -18
-3 -31 -18 -26 -32 -30 -23 -19
-3 -32 -18 -26 -32 -30 -23 -19
-3 -32 -18 -26 -32 -30 -23 -19
-3 -33 -18 -26 -32 -30 -23 -19
-3 -33 -18 -26 -32 -30 -23 -19
-3 -34 -17 -25 -32 -29 -23 -20
-3 -34 -17 -25 -32 -29 -23 -20
-3 -34 -17 -26 -32 -29 -23 -20
-3 -34 -17 -26 -32 -29 -23 -20
-3 -34 -17 -26 -32 -29 -23 -20
-4 -35 -16 -23 -30 -30 -22 -21
-3 -37 -14 -18 -29 -29 -23 -22
-2 -39 -12 -13 -27 -29 -24 -23
0 -41 -10 -8 -25 -28 -25 -24
1 -44 -8 -3 -24 -28 -26 -25
4 -45 0 13 -13 -23 -27 -27
6 -46 8 30 0 -18 -26 -28
8 -47 16 47 12 -12 -25 -29
11 -48 24 64 24 -7 -24 -30
13 -48 32 81 37 0 -23 -31
18 -36 37 97 60 22 -6 -22
23 -22 43 112 85 48 14 -9
28 -8 47 128 110 74 34 5
33 8 51 142 135 100 54 18
39 22 56 157 160 126 73 30
36 49 62 153 179 155 98 50
31 76 69 144 197 184 123 70
26 105 76 136 216 214 148 91
21 133 84 127 234 243 174 110
15 161 90 117 253 273 198 131
3 175 79 93 247 274 201 136
-11 186 64 66 238 269 199 137
-25 196 50 38 228 263 196 138
-39 206 34 12 218 258 194 140
-53 218 19 -16 207 252 191 141
-60 181 2 -51 134 175 144 114
-66 134 -16 -88 47 84 88 80
-71 86 -33 -124 -40 -8 31 48
-77 38 -51 -161 -129 -100 -25 14
-83 -9 -69 -198 -216 -191 -81 -20
-81 -35 -82 -205 -231 -207 -100 -36
-76 -56 -95 -205 -231 -206 -109 -51
-71 -77 -108 -205 -231 -205 -119 -64
-66 -98 -121 -205 -231 -204 -130 -77
-61 -119 -134 -205 -231 -204 -140 -91
-54 -122 -132 -193 -221 -193 -135 -91
-47 -119 -123 -179 -206 -179 -126 -86
-38 -117 -116 -163 -191 -165 -117 -81
-30 -115 -109 -149 -177 -152 -108 -77
-23 -113 -102 -134 -162 -139 -99 -72
-19 -110 -91 -119 -148 -128 -92 -69
-16 -107 -78 -106 -134 -117 -86 -65
-13 -104 -67 -92 -120 -106 -78 -61
-10 -101 -55 -78 -106 -96 -71 -58
-7 -98 -44 -64 -92 -85 -65 -54
-6 -91 -38 -58 -83 -77 -60 -50
-6 -83 -34 -54 -76 -71 -55 -47
-5 -76 -30 -49 -69 -65 -50 -43
-5 -68 -27 -45 -62 -59 -45 -38
-5 -61 -23 -39 -55 -53 -39 -34
-4 -55 -21 -35 -49 -48 -35 -31
-3 -50 -18 -31 -43 -43 -32 -28
-2 -45 -16 -27 -36 -37 -28 -26
0 -39 -13 -23 -30 -32 -24 -23
0 -34 -11 -18 -25 -27 -20 -20
1 -32 -10 -17 -23 -25 -18 -18
1 -30 -10 -16 -22 -24 -17 -17
2 -28 -9 -16 -21 -22 -16 -16
2 -27 -9 -15 -20 -20 -14 -14
2 -25 -9 -15 -20 -19 -13 -13
3 -24 -8 -13 -18 -17 -12 -12
3 -24 -6 -12 -17 -16 -10 -12
3 -23 -5 -11 -15 -14 -9 -11
3 -23 -4 -9 -13 -12 -8 -11
3 -23 -3 -8 -12 -11 -7 -11
4 -21 -2 -7 -11 -10 -6 -10
4 -20 -3 -7 -11 -10 -6 -9
4 -18 -3 -7 -11 -10 -5 -8
4 -16 -4 -7 -11 -10 -5 -7
4 -15 -4 -7 -11 -10 -5 -7
5 -14 -5 -7 -9 -8 -4 -6
5 -14 -4 -5 -8 -7 -3 -5
5 -14 -3 -4 -7 -5 -2 -5
5 -14 -2 -3 -5 -3 0 -4
5 -14 -2 -2 -4 -2 0 -4
6 -13 0 0 -3 0 1 -3
6 -12 0 0 -2 1 2 -3
6 -11 0 0 -2 2 2 -2
6 -9 0 0 0 3 3 -2
6 -8 0 0 0 3 3 -2
6 -7 -2 1 2 5 4 0
6 -7 0 2 4 6 6 1
7 -7 1 4 6 8 7 2
7 -7 2 6 8 10 8 3
7 -7 2 7 10 11 9 3
8 -6 3 8 11 12 10 4
8 -5 3 8 12 14 11 5
8 -3 2 8 12 15 12 6
8 0 2 8 13 16 13 7
8 1 2 8 13 17 14 7
9 2 1 10 16 19 16 8
10 3 2 12 18 22 17 9
10 4 3 15 21 24 19 10
11 5 4 17 24 27 21 11
11 5 5 20 27 29 22 12
12 7 6 22 29 31 24 14
12 9 7 24 32 33 26 15
12 12 7 26 34 36 28 16
12 14 8 28 37 38 30 18
12 16 8 30 39 40 32 19
13 18 10 33 44 45 35 21
14 20 11 37 48 49 37 23
15 22 12 40 52 53 40 25
16 24 14 44 56 57 44 27
16 26 15 48 60 61 47 29
17 29 16 51 63 64 50 31
18 33 16 53 66 68 52 33
19 36 16 56 69 71 55 36
20 40 16 59 73 74 58 38
21 45 16 62 76 78 61 40
22 47 18 65 79 81 63 43
22 50 19 68 82 85 66 45
22 53 20 71 86 88 69 47
22 55 22 74 90 92 71 49
22 58 23 77 93 95 74 51
23 60 24 78 94 96 75 52
24 62 24 79 94 97 77 53
24 63 24 80 95 98 78 54
25 65 24 81 95 99 79 55
25 67 24 81 95 99 80 56
26 68 24 82 96 100 81 57
26 68 25 82 96 100 81 57
26 68 25 84 95 99 81 57
26 68 26 84 95 99 81 57
26 68 26 84 95 99 81 57
25 68 27 85 93 97 80 57
24 68 27 82 90 95 78 57
24 68 27 81 88 92 77 57
23 68 27 80 86 90 76 57
23 68 27 79 82 88 75 57
22 66 26 78 80 85 73 55
21 65 26 77 78 81 71 53
21 63 27 76 75 78 68 52
20 62 27 75 73 75 66 50
20 60 27 74 71 72 64 48
19 58 28 72 68 69 61 46
17 55 28 69 65 65 58 44
16 53 28 66 62 61 55 40
15 51 28 64 59 57 52 38
14 48 28 61 55 53 49 36
13 45 27 59 53 50 47 34
12 42 27 56 50 46 44 32
12 38 27 54 47 43 40 29
11 35 27 52 45 38 38 27
11 31 27 49 42 34 35 25
10 29 25 46 38 31 32 23
9 26 24 43 35 27 29 20
8 24 22 38 31 24 26 18
8 22 21 35 28 20 23 16
7 19 19 31 24 16 19 13
6 17 18 29 22 14 17 11
5 14 17 26 19 11 15 10
5 11 17 23 17 9 14 9
4 9 16 21 15 7 12 7
4 6 16 18 12 4 10 6
3 4 14 16 10 2 8 5
3 3 12 13 7 0 6 4
2 2 11 10 5 -3 5 3
2 0 9 8 3 -6 3 3
2 -2 7 5 0 -8 1 2
1 -3 6 4 -2 -9 0 1
1 -5 6 2 -4 -10 -2 -2
1 -6 6 1 -5 -11 -3 -3
1 -7 6 0 -6 -11 -4 -4
1 -8 6 -2 -7 -12 -5 -5
0 -9 5 -4 -8 -13 -6 -6
0 -10 4 -5 -10 -14 -6 -6
-2 -10 3 -6 -11 -15 -7 -6
-2 -11 2 -8 -12 -15 -7 -6
-2 -11 1 -9 -13 -16 -7 -6
-3 -12 0 -10 -14 -17 -8 -5
-3 -13 0 -10 -14 -18 -8 -5
-3 -13 0 -11 -14 -18 -9 -6
-3 -14 0 -11 -14 -19 -9 -6
-3 -14 0 -11 -14 -19 -9 -6
-3 -15 0 -12 -15 -20 -10 -7
-3 -15 0 -12 -15 -20 -10 -7
-3 -15 0 -12 -15 -20 -10 -7
-3 -15 0 -12 -15 -20 -10 -7
-3 -15 0 -12 -15 -20 -10 -7
-4 -14 -2 -13 -15 -20 -10 -8
-4 -14 -2 -11 -15 -20 -10 -8
-4 -14 0 -10 -15 -20 -10 -8
-4 -14 0 -9 -15 -20 -10 -8
-4 -14 0 -8 -15 -20 -10 -8
-3 -14 1 -7 -15 -20 -11 -7
-3 -14 1 -7 -15 -20 -11 -7
-3 -14 1 -8 -15 -20 -11 -7
-3 -14 1 -8 -15 -20 -11 -7
-3 -14 1 -8 -15 -20 -11 -7
-2 -13 0 -9 -14 -19 -10 -6
-2 -13 0 -8 -14 -19 -10 -6
-2 -13 0 -7 -13 -18 -10 -6
-2 -13 0 -7 -13 -18 -10 -6
-2 -13 0 -6 -13 -18 -10 -6
-2 -13 1 -5 -12 -17 -10 -6
-2 -12 1 -5 -12 -17 -10 -6
-2 -12 1 -5 -12 -17 -9 -6
-2 -11 1 -5 -12 -17 -9 -6
-2 -11 1 -5 -12 -17 -9 -6
0 -10 0 -6 -13 -16 -8 -5
0 -10 0 -6 -13 -16 -8 -5
0 -10 0 -5 -12 -16 -8 -5
0 -10 0 -5 -12 -16 -8 -5
0 -10 0 -5 -12 -16 -8 -5
-2 -11 1 -4 -11 -15 -8 -4
-2 -11 1 -5 -12 -15 -8 -4
-2 -11 0 -5 -12 -15 -8 -4
-2 -11 0 -6 -13 -15 -8 -4
-2 -11 0 -6 -13 -15 -8 -4
0 -10 -2 -7 -14 -15 -7 -4
0 -10 -2 -7 -14 -15 -7 -4
0 -10 -2 -7 -14 -15 -7 -4
0 -10 -2 -7 -14 -15 -7 -4
0 -10 -2 -7 -14 -15 -7 -4
0 -11 -2 -7 -15 -16 -8 -5
0 -11 -2 -7 -16 -16 -8 -5
0 -10 -2 -8 -16 -16 -8 -5
0 -10 -2 -8 -17 -16 -8 -5
0 -10 -2 -8 -17 -16 -8 -5
1 -9 -3 -9 -18 -16 -8 -4
1 -10 -3 -9 -18 -16 -8 -4
1 -10 -3 -9 -18 -16 -8 -4
1 -11 -3 -9 -18 -16 -8 -4
1 -11 -3 -9 -18 -16 -8 -4
0 -12 -3 -8 -18 -17 -8 -5
0 -12 -3 -9 -18 -17 -8 -5
0 -11 -4 -9 -18 -17 -8 -5
0 -11 -4 -10 -18 -17 -8 -5
0 -11 -4 -10 -18 -17 -8 -5
0 -10 -5 -11 -19 -18 -9 -5
0 -11 -5 -11 -19 -18 -9 -5
0 -12 -5 -11 -20 -19 -10 -6
0 -12 -5 -11 -20 -19 -10 -6
0 -13 -5 -11 -20 -19 -10 -6
0 -14 -5 -11 -21 -20 -11 -7
0 -14 -5 -11 -21 -20 -11 -7
0 -14 -5 -12 -22 -20 -11 -7
0 -14 -5 -13 -22 -20 -11 -7
0 -14 -5 -13 -22 -20 -11 -7
0 -13 -6 -14 -23 -21 -11 -7
0 -13 -6 -14 -23 -21 -11 -7
0 -14 -6 -14 -23 -21 -12 -8
0 -15 -6 -14 -23 -21 -12 -8
0 -15 -6 -14 -23 -21 -12 -8
0 -16 -5 -13 -23 -22 -13 -9
0 -16 -5 -14 -23 -22 -13 -9
0 -16 -5 -15 -24 -22 -13 -8
0 -16 -5 -15 -24 -22 -13 -8
0 -16 -5 -16 -24 -22 -13 -8
-2 -16 -6 -17 -25 -21 -14 -7
-2 -16 -6 -17 -25 -21 -14 -7
-2 -17 -6 -16 -25 -21 -14 -8
-2 -17 -6 -16 -25 -21 -14 -8
-2 -17 -6 -16 -25 -21 -14 -8
0 -18 -7 -15 -25 -22 -15 -9
0 -17 -7 -15 -25 -22 -15 -9
0 -16 -7 -15 -25 -21 -14 -8
0 -15 -7 -15 -25 -21 -14 -8
0 -14 -7 -15 -25 -21 -14 -8
-2 -13 -5 -14 -24 -20 -13 -7
-2 -11 -4 -12 -22 -19 -12 -7
-2 -10 -2 -11 -21 -17 -11 -6
-2 -8 0 -9 -19 -16 -11 -5
-2 -7 2 -8 -18 -15 -10 -5
-2 -6 3 -7 -17 -14 -9 -4
-2 -5 3 -7 -17 -14 -9 -4
0 -4 3 -7 -17 -13 -9 -4
0 -3 3 -7 -17 -13 -9 -4
0 -2 3 -7 -17 -13 -9 -4
1 0 3 -6 -16 -12 -8 -3
1 1 3 -6 -15 -12 -8 -3
1 2 4 -5 -14 -11 -8 -2
1 3 5 -5 -14 -10 -8 -2
1 4 5 -5 -13 -10 -8 -2
2 6 6 -4 -12 -9 -7 0
2 9 6 -4 -12 -8 -6 2
3 12 6 -4 -11 -7 -4 3
4 15 6 -4 -10 -7 -3 5
4 17 6 -4 -10 -6 0 6
5 19 5 -3 -9 -5 1 7
6 19 4 -3 -9 -5 1 7
7 19 3 -3 -9 -5 1 7
7 19 2 -3 -9 -5 1 7
8 19 1 -3 -9 -5 1 7
9 19 0 -3 -9 -4 1 8
9 18 0 -3 -9 -4 1 8
9 16 -2 -4 -10 -4 1 8
9 15 -2 -4 -10 -4 1 8
9 14 -2 -4 -10 -4 1 8
8 12 -3 -5 -11 -4 1 8
8 11 -3 -5 -11 -4 1 8
7 9 -3 -6 -12 -5 0 7
7 7 -3 -6 -12 -6 -2 7
7 5 -3 -6 -12 -6 -2 7
6 3 -4 -7 -13 -7 -3 5
4 1 -4 -7 -14 -8 -5 4
3 -2 -4 -8 -15 -10 -6 2
1 -4 -4 -8 -16 -11 -8 0
0 -7 -4 -8 -17 -12 -9 -3
-2 -9 -3 -9 -18 -13 -10 -4
-2 -12 -4 -11 -20 -15 -11 -5
-2 -14 -5 -12 -21 -16 -13 -6
-2 -17 -6 -14 -23 -18 -14 -7
-2 -19 -7 -15 -24 -19 -15 -8
-3 -21 -8 -16 -25 -20 -16 -9
-3 -21 -9 -17 -27 -21 -17 -9
-3 -22 -11 -19 -28 -23 -18 -10
-3 -22 -12 -20 -30 -24 -18 -10
-3 -22 -13 -21 -31 -25 -19 -10
-2 -23 -14 -22 -32 -26 -20 -11
-2 -24 -14 -22 -32 -26 -20 -11
-3 -25 -14 -22 -32 -27 -20 -12
-4 -26 -14 -22 -32 -27 -20 -12
-4 -27 -14 -22 -32 -27 -20 -12
-5 -28 -14 -22 -31 -28 -21 -13
-5 -28 -14 -22 -31 -29 -21 -13
-5 -28 -14 -23 -32 -30 -22 -13
-5 -28 -14 -23 -32 -30 -23 -13
-5 -28 -14 -23 -32 -31 -23 -13
-6 -28 -15 -24 -33 -32 -24 -14
-6 -28 -15 -24 -33 -32 -24 -14
-6 -28 -15 -24 -33 -32 -25 -15
-6 -28 -15 -24 -33 -32 -25 -15
-6 -28 -15 -24 -33 -32 -25 -15
-5 -29 -16 -24 -33 -32 -26 -16
-5 -29 -16 -24 -33 -32 -26 -16
-5 -29 -16 -25 -33 -32 -26 -16
-5 -29 -16 -25 -33 -32 -26 -16
-5 -29 -16 -25 -33 -32 -26 -16
-6 -29 -15 -26 -33 -32 -25 -16
-6 -29 -15 -25 -33 -32 -25 -16
-6 -30 -15 -24 -33 -32 -25 -16
-6 -31 -15 -24 -33 -32 -25 -16
-6 -31 -15 -23 -33 -32 -25 -16
-5 -34 -14 -17 -32 -33 -26 -16
-4 -38 -10 -7 -27 -32 -27 -19
-2 -43 -5 4 -22 -31 -29 -22
1 -47 0 14 -17 -30 -30 -25
3 -51 5 23 -13 -29 -31 -27
5 -50 11 38 1 -21 -28 -28
9 -43 18 56 19 -8 -21 -25
12 -36 26 74 36 6 -13 -22
16 -30 34 92 55 19 -6 -19
19 -23 42 110 73 32 2 -17
22 -9 46 120 94 55 19 -5
24 12 48 127 116 86 44 14
27 31 49 132 140 116 67 31
29 52 51 137 162 146 92 50
31 72 52 142 185 177 115 68
28 94 56 138 201 201 135 84
19 116 63 123 214 221 150 97
10 139 69 110 226 240 165 109
1 161 76 97 238 261 181 122
-10 184 84 82 250 280 196 136
-21 189 75 56 228 262 187 134
-33 179 54 18 177 212 156 117
-46 169 33 -19 127 162 126 101
-59 158 12 -57 76 112 95 86
-71 148 -9 -95 26 63 65 69
-77 116 -26 -119 -26 8 27 46
-78 67 -39 -135 -78 -50 -15 17
-80 19 -53 -150 -132 -108 -58 -13
-81 -29 -66 -165 -184 -166 -101 -43
-82 -78 -80 -181 -237 -225 -143 -72
-80 -103 -92 -188 -258 -246 -161 -87
-73 -110 -102 -188 -253 -237 -158 -89
-66 -117 -112 -187 -246 -227 -155 -91
-59 -124 -122 -186 -241 -218 -152 -93
-53 -131 -133 -186 -235 -208 -149 -95
-46 -132 -132 -175 -222 -194 -141 -93
-38 -126 -119 -156 -201 -178 -130 -86
-31 -119 -108 -138 -182 -160 -118 -78
-24 -113 -96 -118 -162 -144 -107 -71
-18 -107 -85 -100 -142 -127 -96 -65
-14 -102 -74 -87 -128 -114 -87 -60
-12 -98 -65 -78 -117 -106 -81 -56
-10 -94 -57 -70 -107 -98 -75 -53
-9 -90 -48 -62 -96 -90 -70 -49
-7 -86 -38 -54 -86 -81 -64 -46
-6 -80 -32 -48 -76 -74 -59 -43
-6 -73 -28 -41 -69 -68 -54 -38
-5 -66 -24 -36 -61 -61 -49 -34
-5 -59 -20 -31 -54 -55 -44 -31
-5 -52 -16 -26 -46 -48 -38 -27
-4 -46 -14 -22 -39 -43 -34 -24
-3 -40 -12 -20 -36 -38 -30 -21
-2 -35 -10 -18 -32 -34 -26 -18
-2 -31 -8 -16 -28 -30 -23 -15
0 -26 -6 -14 -24 -26 -19 -12
1 -23 -5 -13 -22 -24 -17 -10
1 -22 -5 -12 -21 -22 -17 -10
1 -21 -5 -10 -19 -21 -16 -9
1 -20 -5 -9 -18 -20 -15 -8
1 -19 -5 -8 -17 -18 -15 -8
2 -18 -4 -7 -16 -17 -14 -7
2 -16 -4 -7 -15 -16 -12 -6
2 -15 -3 -7 -14 -14 -11 -5
2 -14 -3 -7 -13 -13 -10 -4
2 -12 -3 -7 -12 -12 -8 -3
3 -11 -2 -7 -11 -11 -7 -2
3 -11 -2 -6 -10 -10 -7 -2
3 -11 -2 -4 -9 -8 -6 0
3 -11 -2 -3 -8 -7 -5 0
3 -11 -2 -2 -7 -6 -5 0
4 -10 0 0 -6 -5 -4 1
4 -9 0 0 -5 -4 -4 1
4 -8 1 0 -4 -2 -3 2
4 -7 1 0 -4 0 -2 3
4 -6 1 0 -3 1 -2 3
5 -5 2 0 -2 2 0 4
5 -4 2 1 0 4 0 4
5 -3 1 3 2 5 1 4
5 -3 1 4 3 6 2 4
5 -2 1 5 4 8 2 4
5 0 0 6 5 9 3 3
5 1 0 6 6 10 4 4
6 3 1 6 8 11 6 5
6 4 2 6 9 12 7 6
6 5 2 6 10 13 8 7
7 6 3 6 11 15 9 8
7 6 3 8 13 17 10 9
7 7 3 10 15 19 12 10
7 7 3 12 16 21 13 10
7 7 3 14 18 23 14 11
7 9 3 15 20 25 15 12
8 11 4 17 22 27 17 13
9 13 6 18 25 29 19 15
9 15 7 19 27 31 21 16
10 17 8 21 29 33 23 17
11 19 9 23 31 35 25 18
12 21 9 25 33 38 27 18
13 22 9 28 35 42 29 19
13 23 9 31 37 45 31 20
14 25 9 33 39 48 33 20
15 27 10 36 43 51 35 22
15 30 11 38 47 55 38 25
15 33 13 42 52 59 42 28
15 35 14 45 57 63 45 31
15 38 15 47 61 67 48 34
16 42 16 50 65 70 51 36
17 45 16 53 69 74 54 38
18 47 16 56 73 78 56 40
19 50 17 60 77 82 59 43
20 53 17 63 81 87 62 45
21 56 18 65 84 90 65 48
21 59 18 67 86 92 67 50
21 62 19 68 88 94 69 52
22 66 20 70 90 97 72 54
22 69 20 72 92 99 74 56
23 71 21 73 94 101 76 58
23 72 21 74 94 101 76 58
23 73 22 75 94 102 76 58
24 74 23 77 95 103 76 58
24 75 23 78 95 103 76 58
25 76 24 79 96 104 77 59
25 77 24 79 95 103 77 59
25 78 24 79 94 102 77 59
24 79 24 79 93 100 77 59
24 80 24 79 92 99 77 59
23 81 25 78 91 98 77 60
23 79 25 78 89 96 75 59
23 77 25 78 88 94 73 58
23 75 25 77 86 92 71 57
23 73 25 77 84 90 69 56
22 72 26 76 81 88 67 55
20 71 27 75 79 84 65 53
19 70 28 74 77 80 63 51
18 68 29 72 75 77 60 49
16 67 30 71 73 73 58 47
15 65 31 70 70 70 55 44
15 61 31 68 67 65 51 42
15 58 31 66 64 61 47 38
14 55 30 64 60 57 43 35
14 51 30 62 57 53 39 33
13 48 29 59 54 49 35 30
12 46 29 56 51 46 32 28
12 43 29 53 49 42 30 26
11 39 28 49 46 38 27 24
10 37 28 46 43 34 24 22
9 34 27 43 39 31 21 19
8 31 26 40 36 28 18 17
8 27 25 38 33 25 16 15
7 24 24 35 30 21 13 13
6 20 23 33 27 18 10 11
5 18 22 30 24 15 8 9
5 16 20 27 21 13 6 7
4 14 18 24 18 10 4 6
3 12 16 20 15 8 2 5
3 10 14 17 12 5 0 3
2 9 13 15 10 3 -3 2
2 7 11 13 8 1 -5 1
2 5 10 11 7 -2 -6 0
1 3 9 9 5 -4 -7 -2
1 1 7 7 3 -6 -9 -3
0 0 6 5 2 -7 -10 -4
0 -2 6 3 1 -8 -10 -4
0 -2 6 1 0 -9 -11 -4
-2 -3 6 -2 -3 -11 -12 -4
-2 -4 6 -4 -4 -12 -12 -4
-3 -5 5 -5 -5 -13 -13 -5
-3 -6 5 -5 -5 -13 -14 -5
-3 -6 5 -5 -5 -13 -14 -6
-3 -7 4 -5 -6 -13 -15 -7
-3 -8 4 -5 -6 -13 -16 -7
-2 -9 3 -5 -7 -14 -17 -8
-2 -9 3 -5 -7 -14 -17 -8
-2 -9 3 -6 -7 -14 -17 -8
-2 -9 3 -7 -8 -15 -17 -8
-2 -9 3 -7 -8 -15 -17 -8
-3 -10 2 -8 -9 -16 -17 -9
-3 -10 2 -8 -9 -16 -17 -9
-3 -10 2 -7 -9 -16 -17 -9
-3 -10 1 -6 -9 -17 -18 -9
-3 -10 1 -6 -9 -17 -18 -9
-3 -10 0 -5 -10 -18 -19 -10
-3 -10 0 -5 -10 -18 -19 -10
-3 -10 0 -5 -10 -18 -19 -10
-3 -10 1 -5 -10 -18 -19 -10
-3 -10 1 -5 -10 -18 -19 -10
-2 -9 2 -5 -9 -18 -18 -10
-2 -9 2 -4 -9 -18 -18 -10
-2 -9 2 -4 -9 -18 -18 -10
-2 -9 2 -3 -8 -17 -18 -10
-2 -9 2 -2 -8 -17 -18 -10
-2 -10 2 0 -7 -16 -17 -9
-2 -9 2 0 -7 -16 -17 -9
-2 -9 2 0 -7 -16 -17 -9
-2 -8 2 0 -7 -16 -16 -9
-2 -7 2 0 -7 -16 -16 -9
-3 -6 2 -2 -7 -15 -15 -9
-3 -6 2 -2 -7 -15 -15 -9
-3 -7 2 0 -6 -15 -15 -9
-3 -8 2 1 -5 -15 -15 -9
-3 -8 2 1 -5 -15 -15 -9
-2 -9 2 2 -4 -14 -15 -8
-2 -9 2 2 -4 -14 -15 -8
-2 -9 2 2 -4 -14 -15 -8
-2 -8 1 1 -5 -14 -15 -8
-2 -8 1 1 -5 -14 -15 -8
-2 -7 0 0 -6 -13 -14 -7
-2 -7 0 0 -6 -13 -14 -7
-2 -7 0 0 -6 -13 -14 -7
-2 -7 -2 0 -7 -14 -15 -8
-2 -7 -2 0 -7 -14 -15 -8
0 -8 -3 0 -8 -15 -16 -9
0 -8 -3 0 -8 -15 -16 -9
0 -8 -3 0 -8 -15 -16 -8
0 -7 -3 -2 -8 -15 -15 -7
0 -7 -3 -2 -8 -15 -15 -7
0 -6 -3 -3 -8 -14 -14 -6
0 -6 -3 -3 -8 -14 -14 -6
0 -7 -3 -3 -8 -14 -14 -6
0 -8 -4 -3 -8 -14 -14 -6
0 -8 -4 -3 -8 -14 -14 -6
-2 -9 -5 -2 -9 -14 -15 -7
-2 -9 -5 -2 -9 -14 -15 -7
-2 -9 -5 -3 -10 -14 -15 -7
-2 -8 -5 -4 -11 -14 -15 -7
-2 -8 -5 -4 -11 -14 -15 -7
-2 -7 -5 -5 -12 -15 -15 -6
-2 -7 -5 -5 -12 -15 -15 -6
-2 -8 -5 -5 -13 -15 -15 -6
-2 -9 -6 -5 -14 -16 -15 -6
-2 -9 -6 -5 -14 -16 -15 -6
0 -10 -7 -6 -15 -17 -16 -7
0 -10 -7 -6 -15 -17 -16 -7
0 -10 -7 -6 -15 -17 -16 -7
0 -10 -7 -7 -15 -18 -16 -7
0 -10 -7 -7 -15 -18 -16 -7
1 -10 -7 -8 -16 -19 -17 -6
1 -10 -7 -8 -16 -19 -17 -6
1 -10 -7 -8 -16 -19 -17 -6
1 -10 -8 -8 -17 -20 -18 -7
1 -10 -8 -8 -17 -20 -18 -7
0 -11 -9 -9 -18 -21 -19 -8
0 -11 -9 -9 -18 -21 -19 -8
0 -11 -9 -9 -18 -21 -19 -8
0 -12 -9 -10 -18 -21 -18 -8
0 -12 -9 -10 -18 -21 -18 -8
-2 -13 -8 -11 -19 -21 -17 -8
-2 -13 -8 -11 -19 -21 -17 -8
-2 -13 -8 -11 -19 -21 -17 -8
-2 -12 -8 -11 -19 -21 -17 -8
-2 -12 -8 -11 -19 -21 -17 -8
0 -11 -9 -10 -20 -21 -18 -9
0 -10 -7 -9 -19 -20 -17 -8
0 -8 -5 -8 -17 -19 -17 -7
0 -7 -3 -6 -16 -18 -16 -6
0 -5 -2 -5 -14 -17 -15 -5
-2 -4 1 -4 -13 -16 -14 -4
-2 -3 1 -4 -13 -16 -14 -4
0 -3 1 -4 -12 -16 -14 -4
1 -2 1 -4 -11 -16 -13 -4
1 0 1 -4 -11 -16 -13 -4
2 1 1 -3 -10 -15 -12 -4
2 3 1 -3 -10 -14 -11 -4
2 5 2 -3 -10 -14 -11 -4
2 7 3 -2 -9 -13 -10 -3
2 9 3 -2 -9 -12 -9 -3
2 11 4 0 -8 -11 -8 -2
2 13 4 0 -7 -10 -8 0
2 15 4 0 -7 -9 -7 0
3 17 4 0 -6 -8 -6 1
3 19 4 0 -5 -7 -6 2
4 21 3 1 -4 -6 -5 3
5 21 2 0 -4 -6 -5 4
6 22 1 -2 -4 -6 -4 4
7 23 -2 -4 -4 -6 -3 5
8 23 -3 -5 -4 -6 -3 6
9 24 -4 -6 -5 -6 -2 7
9 22 -4 -6 -5 -6 -2 7
9 20 -4 -6 -5 -6 -2 7
9 18 -4 -5 -6 -6 -2 6
9 16 -4 -5 -6 -6 -2 6
8 14 -5 -4 -7 -7 -3 5
7 13 -5 -5 -7 -8 -3 5
7 11 -5 -6 -7 -9 -4 5
6 10 -6 -7 -8 -10 -5 4
5 8 -6 -8 -8 -11 -5 4
4 7 -7 -9 -9 -12 -6 3
3 4 -7 -9 -10 -13 -8 1
2 1 -7 -9 -11 -14 -9 -2
0 -3 -7 -9 -13 -15 -11 -4
-2 -6 -7 -9 -14 -16 -12 -6
-3 -8 -6 -10 -15 -17 -14 -8
-3 -10 -7 -12 -17 -19 -15 -9
-3 -12 -8 -14 -20 -21 -16 -9
-3 -14 -10 -16 -22 -23 -18 -10
-3 -15 -11 -18 -24 -24 -19 -11
-3 -17 -12 -20 -26 -26 -20 -12
-3 -18 -12 -20 -26 -26 -20 -13
-3 -20 -13 -21 -27 -27 -21 -13
-3 -21 -14 -22 -28 -28 -22 -14
-3 -23 -14 -22 -28 -28 -22 -15
-4 -24 -15 -23 -29 -29 -23 -16
-4 -24 -15 -23 -29 -29 -23 -16
-4 -24 -15 -23 -29 -29 -23 -16
-4 -25 -15 -24 -29 -29 -23 -16
-4 -25 -15 -24 -29 -29 -23 -16
-5 -26 -15 -25 -30 -29 -24 -16
-5 -26 -15 -25 -30 -29 -24 -16
-5 -26 -15 -25 -30 -29 -24 -16
-5 -27 -16 -25 -30 -29 -24 -17
-5 -27 -16 -25 -30 -29 -24 -17
-5 -28 -17 -26 -30 -30 -24 -18
-5 -28 -17 -26 -30 -30 -24 -18
-5 -28 -17 -26 -30 -30 -24 -18
-5 -28 -17 -26 -30 -30 -24 -18
-5 -28 -17 -26 -30 -30 -24 -18
-6 -29 -17 -27 -31 -30 -25 -19
-6 -29 -17 -27 -31 -30 -25 -19
-6 -29 -17 -27 -31 -30 -25 -19
-6 -30 -17 -27 -31 -31 -26 -19
-6 -30 -17 -27 -31 -31 -26 -19
-7 -31 -17 -27 -31 -32 -27 -19
-7 -31 -17 -27 -31 -32 -27 -19
-7 -32 -17 -27 -31 -32 -27 -19
-7 -32 -16 -27 -31 -31 -27 -19
-7 -33 -16 -27 -31 -31 -27 -19
-7 -35 -14 -25 -29 -30 -28 -19
-6 -39 -9 -13 -23 -28 -28 -21
-5 -45 -4 0 -16 -26 -28 -23
-4 -49 2 12 -10 -25 -28 -25
-3 -54 7 23 -3 -23 -28 -27
0 -55 13 37 8 -17 -27 -28
4 -48 20 54 25 -3 -20 -24
8 -39 27 71 44 11 -12 -20
12 -32 34 89 61 25 -5 -16
16 -25 42 105 79 39 3 -12
19 -13 47 117 98 58 15 -4
21 8 48 120 118 87 38 13
22 28 49 123 138 114 61 29
24 49 50 127 158 143 84 46
25 69 51 130 179 171 106 62
25 90 53 127 194 195 126 77
16 111 59 107 199 209 138 88
7 133 65 88 205 223 150 98
-3 153 71 68 211 236 162 108
-11 175 77 49 216 251 174 118
-21 187 76 25 204 245 174 122
-32 176 55 -7 154 194 141 105
-43 164 32 -38 104 143 109 89
-54 152 11 -71 53 92 76 72
-65 141 -12 -103 3 40 45 56
-73 118 -30 -127 -48 -11 10 35
-74 69 -40 -134 -96 -65 -30 9
-75 19 -51 -140 -145 -118 -69 -19
-76 -30 -60 -146 -194 -172 -109 -46
-77 -80 -70 -152 -242 -226 -148 -73
-77 -116 -80 -157 -275 -261 -176 -93
-71 -122 -89 -159 -267 -249 -172 -94
-65 -128 -98 -160 -259 -237 -166 -96
-59 -133 -106 -162 -251 -226 -162 -97
-53 -139 -115 -163 -242 -215 -158 -99
-47 -141 -119 -161 -230 -200 -151 -98
-39 -134 -109 -144 -208 -182 -138 -90
-32 -127 -99 -128 -187 -162 -126 -81
-25 -119 -89 -111 -165 -144 -113 -73
-18 -112 -78 -94 -144 -126 -100 -65
-13 -105 -68 -80 -126 -109 -90 -59
-12 -101 -59 -73 -114 -101 -83 -55
-10 -97 -51 -66 -104 -93 -77 -52
-9 -93 -41 -60 -94 -85 -71 -49
-7 -89 -33 -53 -83 -75 -66 -46
-6 -83 -26 -47 -73 -67 -60 -41
-6 -76 -23 -43 -66 -61 -55 -37
-6 -68 -20 -38 -58 -54 -50 -33
-6 -61 -17 -34 -51 -47 -44 -29
-6 -53 -14 -30 -43 -39 -38 -25
-5 -46 -11 -27 -35 -33 -34 -22
-5 -41 -10 -26 -32 -29 -30 -19
-4 -37 -9 -25 -28 -26 -27 -17
-4 -33 -8 -24 -25 -22 -23 -15
-3 -29 -6 -23 -21 -19 -20 -12
-2 -25 -5 -22 -18 -16 -17 -10
-2 -24 -5 -21 -17 -14 -16 -9
-2 -23 -5 -20 -16 -12 -14 -8
0 -22 -4 -19 -15 -11 -13 -7
0 -20 -4 -17 -13 -9 -12 -6
1 -19 -3 -16 -12 -7 -10 -5
1 -18 -3 -15 -11 -6 -9 -4
1 -17 -2 -14 -10 -5 -8 -4
1 -16 -2 -13 -9 -4 -7 -3
1 -14 0 -12 -8 -2 -6 -2
1 -13 1 -11 -7 0 -5 0
1 -12 1 -11 -7 1 -5 0
1 -12 1 -10 -6 2 -5 0
1 -11 1 -10 -6 3 -5 0
1 -10 1 -9 -5 4 -5 0
2 -9 0 -8 -4 5 -4 1
2 -8 0 -8 -4 6 -3 1
2 -8 0 -8 -3 7 -2 2
2 -7 0 -8 -3 8 0 2
2 -6 0 -8 -2 10 1 3
3 -5 1 -7 0 11 2 4
3 -5 1 -7 1 12 2 4
3 -5 1 -6 2 13 2 4
3 -4 1 -6 3 14 3 4
3 -4 1 -5 4 16 3 4
3 -3 0 -4 5 17 4 5
3 -2 0 -4 6 19 5 6
4 1 1 -3 8 20 6 6
4 2 1 -3 9 22 7 7
5 3 2 -2 10 23 9 8
6 5 3 0 12 25 10 9
6 5 3 1 14 26 11 9
6 6 3 2 15 28 12 9
6 6 3 3 17 29 13 10
6 7 3 5 18 30 15 10
6 8 4 6 20 32 16 11
6 8 5 7 22 34 18 11
6 9 6 9 24 36 20 12
7 10 7 10 27 39 22 13
7 11 8 11 29 42 24 14
8 12 9 13 31 44 26 15
8 15 9 15 34 47 28 17
8 18 9 18 37 50 30 19
9 21 9 20 40 53 33 21
9 23 9 23 44 56 35 23
10 26 10 25 47 59 37 25
10 29 11 27 51 63 40 27
11 32 13 29 54 67 44 29
11 35 15 32 58 71 47 30
12 37 16 34 61 75 49 32
13 40 18 36 64 78 52 34
14 45 18 38 67 82 55 36
15 48 19 42 70 86 57 39
16 52 19 44 73 90 60 42
17 55 20 47 76 93 63 45
18 58 21 49 79 96 65 47
18 61 22 51 82 99 67 49
18 63 23 53 85 102 69 51
18 66 24 55 88 105 72 53
18 69 26 57 91 107 74 55
19 71 27 59 93 110 76 57
19 72 27 60 93 110 76 57
19 73 27 61 93 111 77 57
19 74 27 62 94 112 77 57
19 76 27 63 94 113 78 57
20 77 28 64 95 114 79 58
20 77 28 64 94 113 79 58
20 78 29 64 93 112 78 58
20 78 30 64 92 111 77 58
20 79 31 64 90 109 76 58
19 80 32 64 89 108 75 57
19 79 32 64 87 105 73 56
19 77 32 64 85 103 72 55
18 76 32 64 82 100 70 54
18 75 32 64 80 98 68 52
17 73 33 63 78 95 66 51
17 71 33 62 76 92 64 50
16 70 33 61 73 88 62 48
16 68 34 60 71 85 59 46
15 66 34 59 68 81 57 45
14 64 35 58 66 78 55 43
13 61 35 57 63 74 51 39
12 57 34 55 60 70 48 37
11 54 34 53 57 66 45 34
10 51 33 52 54 62 40 32
9 48 32 50 51 59 37 29
9 45 32 48 48 55 34 27
9 42 31 46 45 52 30 25
8 39 30 43 42 48 27 22
8 36 29 40 38 44 24 20
7 33 28 38 35 40 21 18
6 29 27 35 32 36 18 17
5 26 25 32 28 33 16 15
4 23 23 30 25 30 13 13
3 19 22 27 22 26 11 12
2 16 20 24 19 23 8 10
2 14 19 21 16 21 7 9
2 12 18 18 14 19 5 7
2 10 17 16 11 16 3 5
2 8 15 13 9 14 2 4
1 6 14 10 6 12 0 2
1 5 13 8 4 10 -2 1
1 3 11 6 3 8 -4 0
1 2 10 4 1 6 -6 -2
1 1 9 2 -2 4 -7 -3
0 -2 7 0 -4 2 -9 -4
0 -2 7 -2 -5 1 -9 -4
0 -2 6 -3 -6 0 -9 -4
0 -3 6 -4 -7 -2 -10 -5
0 -3 5 -6 -9 -3 -10 -5
-2 -4 4 -7 -10 -4 -11 -6
-2 -5 4 -8 -10 -4 -11 -6
-2 -6 3 -9 -11 -5 -11 -6
-3 -7 3 -10 -12 -6 -11 -6
-3 -9 2 -11 -13 -7 -11 -6
-4 -10 1 -12 -14 -8 -12 -6
-4 -10 1 -12 -14 -8 -12 -6
-4 -10 1 -12 -14 -8 -12 -7
-4 -10 1 -12 -15 -9 -13 -7
-4 -10 1 -12 -15 -9 -13 -8
-3 -9 0 -12 -16 -10 -14 -9
-3 -9 0 -12 -16 -10 -14 -9
-3 -9 0 -12 -16 -10 -14 -9
-3 -10 0 -12 -16 -11 -15 -9
-3 -10 0 -12 -16 -11 -15 -9
-4 -11 0 -11 -17 -12 -16 -9
-4 -11 0 -11 -17 -12 -16 -9
-4 -11 0 -11 -17 -12 -16 -9
-4 -10 1 -11 -17 -13 -16 -9
-4 -10 1 -11 -17 -13 -16 -9
-4 -9 2 -11 -16 -14 -16 -9
-4 -9 2 -10 -16 -14 -16 -9
-4 -9 2 -9 -15 -14 -16 -9
-4 -10 2 -8 -14 -14 -16 -9
-4 -10 2 -7 -13 -14 -16 -9
-4 -11 2 -6 -12 -14 -16 -9
-4 -11 2 -6 -12 -14 -16 -9
-4 -11 2 -6 -12 -14 -16 -9
-4 -11 2 -6 -12 -13 -15 -8
-4 -11 2 -6 -12 -13 -15 -8
-4 -11 1 -7 -11 -12 -14 -7
-4 -11 1 -7 -11 -12 -14 -7
-4 -11 1 -6 -11 -12 -14 -7
-4 -10 1 -6 -11 -12 -14 -7
-4 -10 1 -5 -11 -12 -14 -7
-4 -9 2 -4 -10 -12 -15 -8
-4 -9 2 -4 -10 -12 -15 -8
-4 -9 2 -4 -10 -12 -15 -8
-4 -9 2 -4 -10 -12 -15 -8
-4 -9 2 -4 -10 -12 -15 -8
-3 -8 1 -5 -9 -11 -14 -8
-3 -8 1 -5 -9 -11 -14 -8
-3 -8 1 -5 -9 -11 -14 -8
-3 -8 1 -5 -9 -11 -14 -8
-3 -8 1 -5 -9 -11 -14 -8
-3 -8 0 -4 -10 -11 -14 -8
-3 -8 0 -4 -10 -11 -14 -8
-3 -8 0 -4 -10 -11 -14 -8
-3 -8 -2 -4 -10 -11 -13 -8
-3 -8 -2 -4 -10 -11 -13 -8
-2 -7 -3 -5 -10 -12 -12 -7
-2 -7 -3 -5 -10 -12 -12 -7
-2 -7 -3 -5 -11 -12 -12 -7
-2 -7 -3 -6 -11 -12 -12 -7
-2 -7 -3 -6 -12 -12 -12 -7
-3 -7 -4 -7 -13 -13 -13 -7
-3 -7 -4 -7 -13 -13 -13 -7
-3 -7 -4 -7 -13 -13 -13 -7
-3 -7 -4 -7 -13 -13 -13 -7
-3 -7 -4 -7 -13 -13 -13 -7
-2 -6 -5 -8 -14 -14 -14 -8
-2 -6 -5 -8 -14 -14 -14 -8
-2 -6 -5 -8 -14 -14 -14 -8
-2 -7 -5 -8 -14 -14 -14 -8
-2 -7 -5 -8 -14 -14 -14 -8
-3 -8 -5 -9 -14 -15 -14 -7
-3 -8 -5 -9 -14 -15 -14 -7
-3 -8 -5 -9 -14 -15 -14 -7
-3 -8 -5 -9 -14 -16 -14 -7
-3 -8 -5 -9 -14 -16 -14 -7
-3 -9 -6 -9 -14 -17 -14 -8
-3 -7 -5 -9 -14 -17 -14 -8
-3 -5 -4 -8 -13 -17 -14 -8
-3 -3 -2 -7 -12 -16 -14 -7
-3 0 0 -6 -11 -16 -14 -7
-2 2 2 -5 -10 -15 -13 -6
-2 2 2 -5 -10 -15 -13 -6
-2 3 2 -5 -10 -15 -12 -6
-2 4 3 -4 -10 -15 -12 -5
-2 5 3 -4 -10 -15 -11 -5
0 6 4 -3 -9 -15 -10 -4
0 6 4 -3 -9 -15 -10 -4
0 6 4 -3 -8 -14 -10 -4
1 7 5 -2 -7 -14 -9 -4
1 7 5 -2 -6 -13 -9 -4
2 8 6 0 -5 -12 -8 -3
2 10 6 0 -4 -11 -7 -2
2 13 7 1 -3 -9 -5 0
2 16 8 2 0 -8 -4 1
2 18 9 3 1 -6 -2 2
3 21 10 4 3 -4 1 4
3 22 8 3 3 -4 1 4
3 23 7 2 2 -4 1 5
4 25 5 1 2 -5 1 5
4 26 3 0 1 -5 1 6
5 28 1 -2 0 -6 1 7
5 27 1 -2 0 -6 1 7
5 26 1 -2 0 -6 1 7
5 25 1 -2 0 -6 1 7
5 24 1 -2 0 -6 1 7
6 23 0 -3 0 -5 2 6
6 22 0 -3 0 -5 2 6
6 20 -2 -4 -2 -5 2 5
6 18 -2 -5 -3 -6 1 5
6 16 -3 -6 -4 -6 1 4
6 14 -4 -7 -5 -7 0 3
5 12 -4 -7 -5 -8 -2 2
3 10 -4 -7 -6 -9 -3 1
2 8 -4 -8 -6 -10 -4 0
0 5 -4 -8 -7 -11 -5 -2
-3 3 -3 -9 -8 -12 -6 -3
-3 0 -3 -10 -10 -13 -7 -4
-3 -3 -4 -11 -12 -15 -9 -6
-3 -6 -5 -12 -14 -17 -11 -7
-3 -9 -6 -13 -16 -19 -13 -9
-4 -12 -7 -15 -18 -21 -15 -11
-4 -13 -8 -16 -19 -22 -16 -11
-4 -15 -9 -18 -21 -24 -17 -12
-4 -16 -10 -19 -22 -25 -18 -13
-4 -18 -11 -21 -24 -27 -19 -14
-5 -20 -12 -23 -26 -29 -20 -15
-5 -21 -12 -23 -26 -29 -20 -15
-5 -22 -12 -23 -26 -29 -20 -15
-5 -23 -13 -23 -27 -29 -21 -15
-5 -24 -13 -23 -27 -29 -21 -15
-6 -25 -14 -24 -28 -29 -22 -16
-6 -25 -14 -24 -28 -29 -22 -16
-6 -26 -14 -24 -28 -29 -22 -16
-6 -26 -14 -24 -28 -29 -22 -16
-6 -27 -14 -24 -28 -29 -22 -16
-6 -28 -14 -25 -28 -30 -23 -17
-6 -28 -14 -25 -28 -30 -23 -17
-6 -28 -14 -25 -28 -30 -23 -17
-6 -28 -15 -26 -28 -30 -23 -17
-6 -28 -15 -26 -28 -30 -23 -17
-7 -29 -16 -27 -29 -30 -23 -18
-7 -29 -16 -27 -29 -30 -23 -18
-7 -29 -16 -27 -29 -30 -23 -18
-6 -29 -16 -27 -29 -30 -23 -19
-6 -29 -16 -27 -29 -30 -23 -19
-5 -28 -16 -27 -29 -30 -24 -20
-5 -28 -16 -27 -29 -30 -24 -20
-5 -28 -16 -27 -29 -31 -25 -20
-5 -29 -16 -28 -30 -31 -25 -20
-5 -29 -16 -28 -30 -32 -26 -20
-6 -30 -17 -29 -31 -33 -27 -21
-6 -32 -15 -23 -27 -31 -27 -21
-5 -35 -13 -16 -24 -29 -26 -22
-5 -37 -11 -10 -20 -27 -25 -22
-4 -40 -9 -3 -16 -25 -24 -23
-3 -44 -6 5 -11 -22 -23 -24
0 -44 4 22 4 -13 -21 -24
3 -44 12 39 18 -5 -19 -24
5 -43 21 57 33 5 -17 -24
8 -43 29 74 48 13 -15 -24
11 -40 38 92 63 23 -11 -24
15 -24 42 102 86 48 8 -11
19 -7 45 112 108 71 26 2
23 10 48 122 130 96 46 14
27 27 51 133 152 119 64 27
31 45 54 142 174 143 82 39
26 68 61 125 177 158 98 53
20 92 68 107 181 173 113 66
15 115 76 90 185 187 129 79
10 139 84 72 188 201 144 92
4 161 91 54 191 215 158 105
-9 165 75 23 163 191 143 100
-21 170 60 -9 136 168 129 96
-33 174 45 -39 109 144 113 91
-46 179 29 -70 81 119 99 86
-58 181 15 -100 52 94 82 79
-60 128 3 -111 -16 19 34 50
-63 74 -9 -121 -83 -56 -15 19
-66 21 -21 -133 -151 -130 -63 -11
-69 -31 -32 -143 -219 -204 -112 -41
-72 -82 -45 -154 -283 -275 -158 -70
-69 -98 -54 -152 -280 -269 -161 -78
-65 -113 -62 -150 -276 -263 -164 -86
-62 -129 -71 -148 -272 -257 -168 -94
-58 -144 -79 -146 -268 -249 -171 -102
-54 -159 -89 -144 -264 -243 -175 -110
-48 -153 -83 -135 -243 -224 -161 -103
-40 -146 -78 -124 -223 -204 -148 -96
-33 -140 -73 -115 -202 -185 -136 -89
-27 -134 -67 -105 -182 -165 -122 -81
-20 -127 -62 -96 -161 -147 -109 -74
-17 -120 -51 -83 -144 -134 -100 -69
-14 -114 -39 -72 -128 -119 -91 -64
-11 -108 -27 -60 -110 -106 -81 -59
-8 -101 -16 -49 -93 -92 -71 -53
-5 -95 -5 -36 -76 -78 -62 -48
-5 -88 -3 -35 -69 -72 -58 -45
-5 -79 1 -34 -62 -65 -53 -41
-5 -71 3 -32 -55 -59 -49 -38
-5 -64 6 -31 -47 -53 -44 -35
-4 -56 9 -29 -39 -46 -38 -31
-4 -51 10 -27 -35 -40 -34 -28
-3 -46 12 -25 -30 -35 -30 -25
-2 -40 13 -22 -25 -30 -26 -22
0 -35 15 -20 -20 -25 -22 -19
1 -29 17 -17 -15 -20 -18 -15
1 -27 17 -17 -14 -19 -17 -15
1 -25 16 -17 -13 -18 -16 -15
2 -23 16 -17 -12 -17 -15 -14
2 -21 15 -17 -11 -16 -14 -14
3 -19 14 -16 -10 -15 -13 -13
3 -18 14 -16 -9 -14 -12 -13
3 -17 15 -15 -8 -13 -11 -12
4 -16 16 -15 -7 -11 -10 -11
4 -15 17 -14 -6 -10 -9 -10
5 -14 18 -13 -4 -8 -7 -9
5 -14 18 -13 -4 -7 -7 -9
5 -14 17 -13 -3 -6 -6 -8
5 -13 17 -13 -3 -5 -6 -7
5 -13 16 -13 -2 -4 -5 -6
4 -12 15 -12 0 -3 -4 -5
4 -11 15 -12 1 -2 -4 -5
4 -10 16 -11 2 0 -3 -5
5 -9 17 -11 4 2 -2 -4
5 -8 18 -10 5 3 0 -4
6 -7 19 -9 7 5 1 -3
6 -7 19 -9 7 5 1 -3
6 -6 19 -9 7 5 1 -3
6 -6 18 -8 7 6 1 -2
6 -5 18 -8 7 6 1 -2
7 -4 17 -7 7 7 2 0
7 -4 17 -7 8 8 3 0
7 -3 17 -7 10 10 4 0
8 -2 17 -6 11 12 5 0
8 0 17 -6 13 14 6 0
9 1 18 -5 15 16 8 1
9 2 18 -4 16 17 8 1
9 3 18 -3 17 18 9 2
10 4 19 -2 19 19 10 2
10 5 19 0 20 20 11 3
11 7 20 2 22 21 12 4
11 7 21 3 24 23 14 4
11 8 23 4 27 25 16 5
11 8 25 6 29 28 17 6
11 9 27 7 32 30 19 7
11 9 28 8 34 32 21 7
12 11 29 10 36 34 23 8
12 13 30 12 38 36 24 9
12 15 31 14 40 38 25 10
12 17 32 16 43 40 26 11
12 19 32 17 45 42 27 11
13 23 34 20 49 46 30 14
14 26 35 22 53 50 33 16
15 29 37 25 57 53 36 19
16 32 38 27 61 57 39 21
17 35 39 29 65 60 42 23
18 39 40 32 68 64 45 25
18 43 42 35 71 67 48 27
19 46 43 37 74 70 51 29
19 49 44 40 77 73 54 31
19 52 45 43 80 76 56 33
20 55 47 46 85 80 59 36
21 58 48 48 88 85 62 38
22 61 50 51 91 88 64 42
23 64 51 53 94 92 67 44
24 66 52 55 97 95 69 46
25 68 53 57 98 96 70 47
25 70 53 58 99 96 70 48
25 71 53 60 99 97 71 48
25 73 53 61 100 97 71 49
25 74 53 62 100 97 71 49
25 75 53 63 101 98 72 50
25 76 54 64 101 98 72 50
25 77 55 64 101 98 72 50
25 78 56 65 101 98 72 50
25 79 57 65 101 98 72 50
24 80 58 66 99 96 71 49
24 80 57 66 97 94 69 48
24 79 57 66 95 92 67 47
24 79 56 66 93 90 65 46
24 79 56 66 92 88 64 45
22 76 55 66 90 85 62 43
21 74 55 65 88 81 60 42
20 72 55 65 86 79 59 40
19 70 55 64 84 76 57 39
18 68 55 64 81 74 56 38
17 65 56 62 77 70 53 36
16 62 55 61 74 66 50 34
15 59 54 59 71 62 47 32
14 56 53 58 68 58 44 30
13 53 53 57 65 54 40 28
12 50 52 55 62 50 37 26
11 47 51 53 59 47 34 24
10 44 51 51 56 44 32 22
9 40 50 49 53 40 29 20
8 37 50 47 50 37 27 19
7 34 47 44 46 33 23 16
6 31 44 40 42 29 20 14
6 28 40 37 37 25 17 11
5 25 37 34 33 21 14 9
5 23 35 31 30 17 11 7
4 20 34 28 27 15 9 6
3 17 33 26 25 13 8 5
2 14 32 24 22 11 6 4
1 11 31 22 20 9 5 3
0 9 30 20 18 7 4 2
-2 7 28 17 15 4 2 0
-2 5 26 15 13 2 0 -2
-2 4 24 12 10 0 -2 -3
-2 2 22 10 8 -3 -4 -4
-2 1 21 8 6 -5 -5 -5
-3 0 20 6 4 -6 -6 -6
-3 -2 19 5 3 -7 -7 -6
-3 -3 18 4 2 -8 -7 -7
-3 -4 17 3 1 -9 -8 -7
-3 -5 17 2 0 -9 -8 -7
-3 -6 16 0 -3 -10 -9 -8
-3 -7 15 -2 -4 -11 -10 -8
-3 -8 14 -3 -5 -12 -10 -9
-3 -9 13 -4 -6 -13 -11 -9
-3 -9 13 -5 -7 -13 -11 -9
-4 -10 12 -6 -8 -14 -12 -10
-4 -10 12 -6 -8 -15 -12 -10
-4 -10 11 -7 -9 -15 -13 -10
-4 -10 11 -7 -9 -16 -13 -10
-4 -10 11 -7 -9 -16 -13 -10
-5 -11 10 -8 -10 -17 -14 -11
-5 -11 10 -8 -10 -17 -14 -11
-5 -12 10 -7 -10 -17 -14 -11
-5 -12 10 -7 -10 -17 -14 -11
-5 -12 10 -7 -10 -17 -14 -11
-5 -13 9 -6 -11 -17 -14 -11
-5 -13 9 -6 -11 -17 -14 -11
-5 -13 9 -6 -11 -17 -14 -11
-5 -13 9 -6 -11 -17 -14 -11
-5 -13 9 -6 -11 -17 -14 -11
-4 -13 9 -6 -10 -18 -14 -10
-4 -13 9 -6 -10 -18 -14 -10
-4 -13 9 -5 -10 -18 -14 -10
-4 -13 9 -5 -10 -18 -14 -10
-4 -13 9 -5 -10 -18 -14 -10
-4 -12 9 -4 -9 -18 -14 -10
-4 -12 9 -4 -9 -18 -14 -10
-4 -12 9 -4 -8 -17 -14 -10
-4 -12 9 -4 -8 -17 -14 -10
-4 -12 9 -4 -8 -17 -14 -10
-5 -12 9 -3 -7 -16 -13 -11
-5 -12 9 -3 -8 -16 -13 -11
-5 -11 9 -3 -8 -16 -13 -11
-5 -11 9 -3 -9 -16 -13 -11
-5 -11 9 -3 -9 -16 -13 -11
-4 -10 8 -4 -10 -17 -14 -10
-4 -10 8 -4 -9 -17 -14 -10
-4 -10 8 -4 -8 -17 -14 -10
-4 -10 8 -4 -7 -17 -14 -10
-4 -10 8 -4 -6 -17 -14 -10
-5 -11 8 -3 -5 -17 -13 -9
-5 -10 8 -3 -6 -17 -13 -9
-5 -10 8 -4 -7 -17 -13 -9
-5 -9 8 -4 -8 -17 -13 -9
-5 -9 8 -4 -8 -17 -13 -9
-5 -8 7 -5 -9 -17 -13 -8
-5 -8 6 -5 -9 -16 -13 -8
-5 -8 6 -5 -8 -16 -13 -8
-5 -8 5 -5 -8 -15 -13 -8
-5 -8 5 -5 -8 -15 -13 -8
-5 -7 4 -6 -7 -14 -14 -9
-5 -7 4 -6 -7 -14 -14 -9
-5 -7 4 -6 -8 -14 -13 -8
-5 -7 4 -6 -8 -14 -13 -8
-5 -7 4 -6 -8 -14 -13 -8
-4 -8 4 -6 -9 -15 -12 -7
-4 -8 4 -7 -9 -15 -12 -7
-4 -8 4 -7 -9 -15 -12 -7
-4 -8 4 -8 -9 -15 -12 -7
-4 -8 4 -8 -9 -15 -12 -7
-5 -9 3 -9 -9 -15 -11 -8
-5 -9 3 -9 -10 -15 -11 -8
-5 -9 2 -9 -11 -15 -11 -8
-5 -9 2 -9 -12 -15 -11 -8
-5 -9 2 -9 -12 -15 -11 -8
-4 -9 1 -10 -13 -16 -12 -7
-4 -8 1 -10 -13 -16 -12 -7
-4 -8 1 -10 -12 -16 -12 -7
-4 -7 1 -10 -12 -16 -12 -7
-4 -7 1 -10 -12 -16 -12 -7
-3 -5 1 -10 -11 -15 -12 -8
-3 -3 2 -9 -11 -15 -11 -7
-3 0 3 -8 -10 -14 -10 -6
-3 1 4 -7 -10 -14 -9 -5
-3 3 5 -6 -10 -14 -9 -4
-3 4 6 -5 -9 -13 -8 -3
-3 5 7 -5 -8 -12 -8 -3
-2 5 8 -4 -7 -11 -8 -3
-2 6 9 -4 -6 -10 -8 -3
-2 6 9 -4 -5 -10 -8 -3
0 8 10 -3 -4 -9 -7 -2
0 10 10 -2 -4 -9 -7 0
1 12 10 -2 -4 -8 -6 0
1 13 10 0 -4 -8 -6 1
1 15 10 0 -4 -8 -6 1
2 17 10 1 -4 -7 -4 2
3 20 10 1 -3 -6 -3 3
3 22 9 1 -2 -5 0 4
4 24 9 1 0 -4 1 5
4 26 9 1 1 -4 2 6
5 27 7 -2 2 -3 3 7
6 27 6 -3 2 -3 3 7
6 27 4 -5 1 -4 3 7
7 27 3 -6 1 -4 3 7
7 27 2 -7 1 -4 3 7
8 25 1 -8 0 -5 2 8
8 24 1 -7 0 -5 2 8
8 22 1 -7 0 -5 2 8
8 21 1 -6 0 -5 2 8
8 20 1 -6 0 -5 2 8
7 18 0 -5 -2 -4 3 8
7 16 -2 -6 -4 -5 2 7
6 14 -3 -7 -6 -5 2 7
6 12 -4 -8 -7 -6 1 6
6 10 -5 -8 -9 -6 1 6
4 7 -6 -9 -10 -8 -2 4
3 5 -5 -10 -10 -9 -4 3
2 2 -5 -10 -11 -11 -6 1
0 -2 -4 -11 -11 -13 -7 -2
-2 -4 -4 -11 -11 -14 -9 -3
-3 -6 -4 -13 -14 -16 -11 -5
-3 -9 -6 -15 -16 -18 -13 -6
-3 -11 -8 -17 -19 -20 -15 -8
-3 -13 -10 -19 -22 -22 -16 -10
-3 -15 -12 -21 -24 -24 -18 -11
-3 -17 -13 -22 -25 -25 -19 -12
-3 -18 -13 -23 -26 -26 -19 -12
-3 -19 -14 -23 -26 -26 -20 -12
-3 -20 -14 -24 -27 -27 -20 -12
-3 -21 -14 -24 -27 -27 -20 -12
-3 -22 -15 -25 -28 -28 -21 -13
-3 -23 -15 -25 -29 -28 -21 -13
-3 -23 -16 -25 -29 -29 -22 -14
-3 -24 -16 -25 -30 -29 -22 -14
-3 -24 -16 -25 -30 -29 -22 -14
-4 -25 -17 -26 -31 -30 -23 -15
-4 -26 -17 -26 -31 -30 -23 -15
-4 -26 -17 -26 -31 -30 -23 -16
-4 -27 -17 -26 -31 -30 -23 -16
-4 -27 -17 -26 -31 -30 -23 -16
-5 -28 -18 -27 -32 -31 -24 -17
-5 -28 -18 -27 -33 -31 -24 -17
-5 -28 -18 -27 -33 -31 -24 -17
-5 -28 -18 -27 -34 -31 -24 -17
-5 -28 -18 -27 -34 -31 -24 -17
-5 -29 -19 -28 -35 -32 -25 -16
-5 -29 -20 -28 -35 -32 -25 -16
-5 -29 -20 -28 -35 -32 -26 -17
-5 -29 -21 -28 -35 -32 -26 -17
-5 -29 -21 -28 -35 -32 -26 -17
-5 -29 -22 -29 -34 -33 -27 -18
-5 -29 -22 -28 -34 -33 -27 -18
-5 -30 -22 -28 -34 -33 -27 -19
-5 -30 -22 -27 -34 -33 -27 -19
-5 -30 -22 -27 -34 -33 -27 -19
-5 -34 -17 -17 -28 -31 -28 -20
-4 -38 -12 -6 -20 -27 -26 -21
-2 -43 -7 7 -12 -23 -25 -21
1 -48 -2 18 -5 -19 -24 -22
2 -52 5 29 4 -15 -23 -22
5 -48 12 46 20 -4 -17 -21
7 -40 19 63 37 9 -10 -18
10 -34 27 80 56 22 -4 -16
12 -27 35 98 73 35 4 -13
15 -21 43 115 91 48 10 -10
17 -3 46 121 109 70 27 3
19 17 48 126 129 95 47 17
21 37 50 129 147 119 67 31
23 58 51 132 165 143 87 47
25 78 53 136 184 168 106 61
20 99 56 117 184 175 115 70
13 118 58 93 179 178 121 77
5 139 61 67 174 181 128 86
-3 159 63 43 169 185 135 93
-11 180 66 18 162 188 141 101
-21 176 50 -14 120 151 120 92
-32 165 28 -47 68 104 92 78
-43 154 6 -79 17 57 63 64
-54 144 -16 -113 -34 10 34 51
-64 134 -37 -146 -87 -37 6 36
-67 88 -50 -152 -130 -85 -29 13
-68 34 -59 -150 -171 -132 -64 -13
-68 -20 -69 -148 -213 -178 -100 -38
-69 -74 -78 -146 -254 -225 -136 -64
-69 -128 -89 -144 -295 -272 -172 -90
-67 -143 -94 -147 -297 -274 -176 -96
-63 -148 -98 -152 -287 -262 -173 -97
-58 -152 -102 -156 -278 -251 -169 -99
-54 -157 -106 -161 -269 -239 -164 -101
-49 -162 -111 -166 -260 -228 -160 -102
-43 -157 -105 -153 -237 -207 -148 -97
-36 -148 -95 -133 -211 -186 -134 -89
-29 -138 -86 -112 -184 -164 -119 -80
-22 -129 -75 -92 -158 -142 -105 -72
-16 -118 -65 -71 -132 -120 -91 -64
-13 -111 -57 -61 -116 -108 -82 -59
-12 -105 -49 -53 -105 -98 -75 -55
-10 -98 -40 -46 -93 -88 -69 -51
-8 -91 -32 -37 -81 -77 -62 -47
-7 -85 -24 -30 -69 -68 -55 -41
-6 -77 -20 -26 -61 -61 -50 -38
-6 -69 -18 -22 -54 -54 -46 -35
-6 -62 -15 -18 -46 -48 -40 -32
-6 -54 -13 -15 -38 -41 -36 -28
-6 -47 -10 -11 -31 -35 -31 -25
-6 -43 -9 -10 -27 -31 -28 -22
-5 -38 -8 -10 -25 -27 -25 -20
-4 -34 -8 -10 -22 -24 -22 -17
-3 -31 -7 -10 -19 -21 -18 -15
-3 -27 -7 -10 -16 -17 -15 -12
-2 -26 -6 -10 -15 -16 -14 -11
-2 -24 -6 -9 -15 -15 -14 -11
0 -23 -7 -8 -15 -14 -13 -11
0 -22 -7 -7 -15 -13 -13 -11
0 -21 -7 -6 -15 -13 -13 -11
1 -19 -8 -5 -13 -12 -12 -11
1 -18 -8 -5 -11 -10 -10 -9
1 -16 -7 -5 -10 -9 -9 -8
1 -14 -7 -5 -8 -8 -8 -7
1 -13 -7 -5 -6 -7 -7 -6
2 -12 -6 -5 -5 -6 -6 -5
2 -12 -6 -4 -5 -6 -6 -5
2 -11 -6 -3 -4 -5 -6 -5
2 -11 -6 -2 -4 -5 -6 -5
2 -11 -6 0 -4 -5 -6 -5
2 -10 -7 1 -3 -3 -5 -5
2 -9 -6 2 0 -2 -4 -4
3 -8 -6 2 1 1 -3 -4
3 -7 -5 3 2 3 -2 -3
3 -6 -5 3 3 4 -2 -3
4 -5 -4 4 4 5 0 -2
4 -5 -4 5 5 6 0 -2
4 -5 -4 6 6 6 0 -2
4 -5 -4 7 7 7 0 -2
4 -5 -4 8 8 7 0 -2
5 -4 -4 9 10 9 2 0
5 -2 -3 9 11 11 3 0
5 0 -2 10 13 14 4 1
5 1 0 10 15 16 6 1
5 2 0 10 16 18 7 1
5 3 1 12 17 19 8 2
5 4 1 14 18 20 9 2
6 5 1 15 19 21 10 3
6 6 1 17 20 22 11 3
6 7 1 19 20 23 11 3
7 9 3 21 23 25 13 4
7 10 4 23 26 28 15 5
7 11 6 24 29 31 17 6
7 13 8 26 32 33 19 7
7 14 9 28 35 36 21 7
7 16 10 30 38 38 23 9
8 18 12 33 42 42 24 10
8 19 13 35 45 44 26 11
9 21 14 37 48 46 27 13
9 23 15 40 51 49 29 14
10 26 17 43 54 52 32 16
11 29 19 46 58 56 35 18
11 33 20 49 62 60 38 21
12 36 22 51 66 64 42 23
12 40 24 54 70 68 45 25
13 43 25 57 73 71 47 27
14 46 26 60 76 74 49 29
14 48 27 63 80 77 52 30
15 50 28 66 84 80 54 32
15 53 29 70 88 84 56 34
16 56 31 72 90 86 58 36
16 59 32 74 92 89 60 37
16 62 33 77 95 92 62 39
16 65 35 79 97 94 64 40
16 68 36 81 99 97 66 43
17 70 37 82 100 98 67 44
17 71 37 85 100 98 67 44
18 72 37 86 100 98 67 44
18 74 37 87 100 98 67 44
18 75 37 88 100 98 67 44
19 76 37 89 101 98 67 45
19 76 38 89 101 98 67 45
19 76 39 90 101 98 67 45
19 76 39 90 101 98 67 45
19 76 40 90 101 98 67 45
19 76 42 91 99 97 66 45
18 76 42 91 96 94 64 44
17 75 40 91 94 91 62 43
17 75 40 91 92 89 60 40
16 75 40 91 89 86 58 39
15 73 39 89 86 82 56 38
15 70 39 88 84 79 54 36
14 67 39 87 80 76 52 35
14 65 39 85 77 73 50 34
14 62 39 84 74 70 48 33
13 59 38 81 71 66 45 31
13 57 37 79 68 62 42 28
12 54 35 78 64 58 38 25
12 51 34 76 61 54 35 23
12 48 32 74 57 50 31 20
11 45 31 71 54 46 29 19
9 42 29 68 51 43 26 17
8 38 28 65 47 39 23 16
7 35 27 62 44 36 21 14
6 32 26 59 39 32 18 13
5 29 24 56 36 29 16 11
4 26 23 52 33 26 14 9
4 23 21 48 30 23 12 8
3 20 20 44 27 20 9 6
3 16 18 40 23 16 7 4
2 14 17 36 21 14 5 3
2 12 15 31 18 12 3 1
2 11 14 27 15 10 2 0
2 9 12 23 12 7 0 -2
2 7 11 19 9 5 -3 -3
1 5 9 15 7 3 -4 -4
1 3 8 12 5 2 -6 -5
0 2 6 9 4 0 -7 -6
0 0 5 6 2 -2 -8 -7
0 -3 3 2 0 -4 -9 -8
-2 -4 2 0 -2 -5 -10 -9
-2 -4 1 -3 -4 -6 -10 -9
-2 -5 1 -4 -5 -7 -10 -9
-2 -5 0 -6 -7 -7 -10 -9
-2 -5 0 -8 -8 -8 -10 -9
-3 -6 -2 -9 -9 -9 -11 -10
-3 -8 -3 -9 -10 -10 -12 -10
-3 -9 -3 -9 -10 -11 -13 -10
-3 -10 -4 -9 -11 -11 -13 -10
-3 -11 -4 -9 -11 -12 -14 -10
-3 -12 -5 -10 -12 -13 -15 -11
-3 -12 -5 -10 -12 -13 -15 -11
-3 -12 -5 -11 -12 -13 -15 -11
-3 -12 -5 -11 -12 -13 -15 -11
-3 -12 -5 -11 -12 -13 -15 -11
-2 -11 -5 -12 -13 -13 -15 -11
-2 -12 -5 -12 -13 -14 -15 -11
-2 -12 -6 -12 -13 -14 -16 -12
-2 -13 -6 -12 -13 -15 -16 -12
-2 -13 -6 -12 -13 -15 -16 -12
-3 -14 -7 -12 -14 -16 -17 -13
-3 -13 -6 -12 -14 -16 -17 -13
-3 -13 -6 -11 -13 -15 -17 -12
-3 -12 -5 -11 -13 -15 -17 -12
-3 -12 -5 -11 -13 -15 -17 -12
-2 -11 -4 -10 -12 -14 -16 -11
-2 -11 -4 -10 -12 -14 -16 -11
-2 -11 -4 -9 -12 -14 -16 -11
-2 -11 -4 -9 -12 -14 -16 -11
-2 -11 -4 -9 -12 -14 -16 -11
-2 -12 -5 -8 -12 -15 -16 -11
-2 -12 -5 -8 -12 -15 -16 -11
-2 -11 -5 -8 -12 -15 -16 -10
-2 -11 -5 -8 -12 -15 -16 -10
-2 -11 -5 -8 -12 -15 -16 -10
-3 -10 -5 -8 -11 -14 -15 -9
-3 -10 -5 -8 -11 -14 -15 -9
-3 -10 -5 -8 -11 -14 -15 -10
-3 -10 -5 -8 -11 -14 -15 -10
-3 -10 -5 -8 -11 -14 -15 -10
-3 -10 -5 -7 -10 -14 -16 -11
-3 -10 -5 -7 -10 -14 -16 -11
-3 -10 -5 -7 -10 -13 -15 -10
-3 -10 -5 -7 -10 -12 -14 -9
-3 -10 -5 -7 -10 -12 -14 -9
-2 -9 -4 -8 -9 -11 -13 -8
-2 -9 -4 -8 -10 -11 -13 -8
-2 -9 -5 -9 -11 -12 -14 -9
-2 -9 -6 -10 -11 -12 -14 -9
-2 -9 -6 -10 -12 -12 -14 -9
0 -9 -7 -11 -13 -13 -15 -10
0 -9 -7 -11 -13 -13 -15 -10
0 -9 -7 -11 -12 -13 -15 -10
0 -9 -7 -11 -12 -13 -15 -10
0 -9 -7 -11 -12 -13 -15 -10
-2 -9 -6 -11 -11 -12 -14 -9
-2 -9 -6 -11 -11 -12 -14 -9
-2 -9 -7 -11 -12 -12 -14 -9
-2 -9 -7 -11 -12 -12 -14 -9
-2 -9 -7 -11 -12 -12 -14 -9
-2 -9 -8 -11 -13 -13 -13 -9
-2 -9 -8 -11 -13 -13 -13 -9
-2 -9 -8 -12 -13 -13 -14 -9
-2 -9 -8 -12 -13 -13 -14 -9
-2 -9 -8 -12 -13 -13 -14 -9
0 -8 -9 -13 -14 -14 -15 -9
0 -9 -9 -13 -14 -14 -15 -9
-2 -10 -9 -14 -15 -15 -15 -9
-2 -11 -9 -14 -15 -15 -15 -9
-2 -12 -9 -14 -15 -15 -15 -9
-3 -13 -10 -15 -16 -16 -15 -9
-3 -13 -10 -15 -16 -16 -15 -9
-3 -12 -10 -15 -16 -16 -15 -9
-3 -12 -10 -15 -16 -16 -15 -9
-3 -12 -10 -15 -16 -16 -15 -9
-4 -11 -9 -15 -16 -15 -15 -8
-4 -11 -9 -15 -16 -15 -15 -8
-3 -12 -9 -16 -17 -16 -15 -8
-3 -13 -9 -16 -17 -16 -15 -8
-3 -13 -9 -16 -17 -16 -15 -8
-2 -13 -10 -17 -18 -17 -16 -8
-2 -12 -9 -17 -18 -17 -16 -8
-2 -10 -8 -17 -18 -16 -15 -7
-2 -9 -7 -17 -18 -15 -14 -7
-2 -7 -6 -17 -18 -15 -14 -7
0 -6 -5 -16 -17 -14 -13 -6
0 -5 -5 -14 -16 -14 -13 -6
0 -4 -4 -13 -14 -13 -13 -6
0 -3 -3 -11 -13 -13 -13 -6
0 -2 -3 -10 -12 -13 -13 -6
0 0 -2 -9 -11 -12 -12 -6
0 2 0 -8 -11 -12 -12 -5
1 3 1 -7 -10 -11 -11 -4
1 5 2 -7 -9 -10 -11 -4
1 6 3 -6 -9 -10 -11 -3
2 8 4 -5 -8 -9 -10 -2
2 10 4 -5 -8 -9 -9 -2
2 12 3 -5 -7 -8 -8 0
2 14 3 -5 -7 -8 -7 1
2 17 3 -5 -7 -8 -6 1
3 18 2 -4 -6 -7 -5 2
3 20 2 -4 -6 -6 -5 3
4 22 1 -4 -5 -5 -4 5
4 23 1 -4 -4 -5 -3 6
4 25 1 -4 -4 -4 -3 7
5 26 0 -5 -3 -3 -2 8
5 26 -3 -5 -4 -3 -2 8
6 25 -4 -6 -5 -3 -2 8
6 25 -6 -7 -6 -3 -2 8
6 25 -7 -7 -7 -3 -2 8
7 24 -8 -8 -8 -4 -3 7
7 22 -8 -8 -8 -4 -3 7
8 21 -8 -8 -8 -4 -3 7
8 19 -8 -8 -8 -4 -3 7
8 18 -8 -8 -8 -4 -3 7
9 16 -9 -9 -7 -4 -3 7
7 13 -9 -9 -8 -5 -5 5
5 11 -9 -10 -9 -6 -6 4
4 8 -9 -11 -10 -7 -8 2
2 6 -9 -11 -11 -8 -9 1
1 3 -10 -12 -12 -9 -10 0
0 0 -10 -12 -14 -11 -11 -2
-2 -4 -10 -13 -16 -13 -12 -4
-2 -7 -10 -13 -17 -14 -13 -5
-3 -9 -10 -13 -19 -16 -14 -6
-4 -12 -10 -15 -21 -17 -15 -7
-4 -15 -11 -16 -22 -19 -16 -8
-4 -17 -13 -18 -24 -21 -18 -10
-4 -20 -14 -20 -26 -22 -19 -11
-4 -22 -15 -22 -28 -24 -20 -12
-5 -24 -16 -23 -29 -25 -21 -13
-5 -24 -16 -23 -29 -25 -21 -13
-5 -25 -16 -23 -29 -25 -22 -14
-5 -25 -16 -23 -29 -25 -22 -14
-5 -25 -16 -23 -29 -25 -22 -14
-5 -26 -17 -24 -30 -25 -23 -15
-5 -26 -17 -24 -30 -26 -23 -15
-5 -27 -17 -24 -31 -27 -24 -15
-5 -27 -17 -24 -32 -27 -25 -15
-5 -27 -17 -24 -32 -28 -25 -15
-6 -28 -18 -25 -33 -29 -26 -16
-6 -28 -18 -25 -33 -29 -26 -16
-6 -29 -18 -25 -33 -29 -26 -16
-6 -29 -18 -25 -33 -29 -26 -16
-6 -29 -18 -25 -33 -29 -26 -16
-6 -30 -19 -25 -32 -28 -26 -16
-6 -30 -19 -25 -32 -28 -26 -16
-6 -31 -19 -25 -33 -28 -26 -17
-6 -32 -19 -25 -33 -28 -26 -17
-6 -32 -19 -25 -33 -28 -26 -17
-6 -33 -19 -25 -34 -28 -27 -18
-6 -33 -19 -25 -34 -28 -27 -18
-7 -33 -19 -25 -34 -27 -27 -18
-7 -33 -19 -25 -34 -27 -27 -18
-7 -33 -19 -25 -34 -27 -27 -18
-8 -33 -18 -25 -34 -26 -26 -18
-8 -34 -18 -23 -32 -26 -26 -19
-7 -35 -17 -21 -31 -25 -26 -20
-7 -36 -16 -19 -30 -24 -26 -21
-7 -37 -16 -17 -28 -24 -26 -22
-5 -39 -11 -7 -21 -20 -27 -23
-3 -44 -2 11 -9 -14 -25 -23
0 -47 8 28 4 -8 -24 -24
2 -50 16 46 16 -2 -23 -25
5 -53 25 63 27 5 -21 -25
8 -48 32 80 46 19 -13 -22
11 -35 38 97 68 38 2 -14
15 -22 45 113 90 59 15 -5
19 -10 51 130 112 78 29 4
23 4 57 146 135 99 44 12
25 23 61 148 150 119 60 24
23 48 64 137 161 140 78 39
22 72 66 125 173 160 97 55
21 98 69 113 183 181 115 71
19 122 71 102 194 201 134 87
12 142 70 79 192 207 142 94
0 156 65 51 179 201 139 95
-13 172 59 21 165 195 137 97
-25 186 54 -9 152 188 134 98
-37 201 48 -38 138 182 132 99
-47 184 32 -67 90 137 104 86
-54 140 8 -96 14 61 57 60
-61 96 -16 -124 -62 -15 11 34
-68 51 -40 -154 -139 -92 -36 8
-74 7 -64 -183 -215 -168 -83 -18
-77 -29 -79 -194 -255 -208 -112 -38
-74 -59 -88 -190 -265 -220 -127 -54
-72 -89 -95 -186 -274 -231 -141 -69
-69 -118 -103 -182 -284 -242 -155 -85
-67 -147 -111 -177 -295 -254 -170 -100
-62 -160 -115 -174 -290 -251 -172 -105
-56 -158 -113 -171 -271 -232 -161 -100
-50 -155 -112 -169 -253 -214 -151 -95
-44 -153 -111 -165 -234 -195 -141 -90
-37 -151 -109 -163 -216 -178 -131 -86
-32 -145 -101 -150 -194 -159 -120 -79
-27 -136 -88 -129 -172 -142 -109 -74
-22 -128 -74 -106 -149 -124 -98 -68
-18 -118 -61 -85 -127 -107 -87 -62
-13 -109 -48 -62 -104 -89 -75 -56
-10 -101 -38 -50 -89 -77 -66 -51
-9 -92 -33 -46 -79 -70 -61 -47
-8 -83 -27 -40 -71 -63 -55 -43
-8 -74 -22 -36 -62 -56 -50 -38
-7 -66 -17 -32 -54 -49 -44 -34
-6 -59 -14 -28 -47 -43 -38 -31
-5 -53 -13 -25 -40 -37 -34 -28
-4 -48 -11 -21 -34 -31 -30 -25
-3 -41 -10 -18 -29 -26 -26 -22
-2 -36 -9 -15 -23 -21 -22 -19
0 -32 -8 -13 -20 -17 -20 -17
0 -30 -8 -13 -18 -15 -18 -15
0 -28 -7 -13 -17 -13 -16 -14
0 -26 -7 -13 -16 -11 -14 -13
0 -24 -7 -13 -14 -9 -12 -11
0 -23 -6 -12 -13 -8 -11 -10
0 -23 -6 -11 -12 -7 -10 -10
0 -22 -5 -9 -10 -5 -9 -9
0 -22 -4 -8 -9 -4 -9 -9
0 -22 -4 -7 -8 -3 -8 -9
1 -21 -3 -6 -7 -2 -7 -8
1 -20 -3 -6 -7 -2 -6 -7
2 -18 -3 -6 -6 0 -5 -6
2 -17 -3 -6 -5 1 -5 -6
2 -16 -3 -6 -5 1 -4 -5
3 -15 -3 -6 -4 2 -3 -4
3 -15 -3 -5 -3 4 -3 -4
3 -14 -2 -3 0 6 -2 -4
3 -13 -2 -2 1 7 -2 -4
3 -13 -2 0 2 9 -2 -4
4 -12 0 1 3 10 0 -3
4 -11 0 1 3 11 1 -2
4 -10 1 1 4 12 2 0
4 -10 2 1 4 13 3 0
4 -9 2 1 4 14 4 1
5 -8 3 1 5 15 5 2
5 -8 3 3 7 17 5 2
5 -7 4 5 9 19 6 2
5 -6 4 6 10 20 6 2
5 -6 4 8 12 22 6 2
6 -5 5 9 13 23 7 2
6 -4 5 9 15 24 9 3
6 -2 5 9 16 25 10 4
6 0 5 9 17 26 11 5
6 1 5 9 19 27 13 6
7 2 6 10 21 29 14 7
7 3 7 13 23 31 16 7
7 3 8 15 25 33 17 7
8 4 10 18 28 35 18 7
8 5 11 21 30 37 20 7
9 6 12 23 33 39 21 8
9 8 13 25 35 42 23 10
9 10 14 27 37 44 24 11
10 12 16 29 40 46 25 12
10 14 17 31 43 48 27 14
11 16 18 33 46 50 29 15
11 18 20 37 50 53 31 16
11 20 22 40 54 56 33 17
11 22 24 45 58 60 35 19
11 24 26 49 62 63 37 20
11 26 28 52 66 66 40 21
12 30 29 54 69 69 43 23
13 33 29 57 72 72 46 25
15 36 30 60 75 75 49 27
16 40 31 62 78 78 51 29
17 44 32 65 81 81 54 31
17 46 34 69 86 85 56 32
17 49 36 73 90 88 58 33
17 52 38 77 94 91 60 35
17 54 40 81 98 94 62 36
18 57 42 84 100 96 64 37
18 59 43 85 101 97 65 38
19 61 43 86 101 98 66 39
20 64 44 88 102 100 67 42
20 66 45 89 103 101 68 43
21 68 46 90 104 102 69 44
21 68 46 92 104 102 69 44
21 68 46 93 104 102 69 45
21 68 47 94 105 103 70 46
21 68 47 96 105 103 70 46
20 69 48 97 106 104 71 47
20 69 48 96 104 102 70 47
20 69 48 95 102 101 70 47
20 70 49 94 100 99 69 47
20 70 49 93 98 97 68 47
19 71 50 92 97 95 67 46
19 69 50 91 95 92 65 44
18 67 50 91 93 90 64 43
17 65 49 90 91 87 62 42
17 63 49 89 89 84 60 39
16 61 48 87 87 80 58 38
15 59 48 85 84 76 55 36
15 57 47 82 79 73 53 35
14 55 46 79 76 69 50 33
13 53 46 77 72 65 47 31
12 50 45 74 69 62 44 29
11 47 43 72 66 59 42 27
11 44 42 70 63 56 39 25
10 40 40 67 59 53 36 22
9 37 38 65 56 50 34 20
8 34 37 62 53 47 31 18
8 32 35 58 49 43 28 16
8 30 33 54 45 38 26 15
8 27 31 50 40 34 23 13
8 25 29 47 37 31 20 11
7 22 28 43 33 27 18 10
7 19 26 39 30 25 15 8
6 17 24 37 27 22 13 6
5 14 22 34 24 20 11 4
5 11 20 31 21 17 9 2
4 9 19 28 18 14 7 1
4 7 17 25 15 12 5 0
4 6 16 22 13 10 4 0
3 5 14 19 10 7 2 -2
3 3 12 16 7 5 0 -3
2 2 11 14 5 3 -2 -4
2 0 11 13 4 2 -2 -5
2 -2 10 12 4 1 -3 -6
1 -3 9 10 3 0 -4 -8
1 -5 9 9 2 -2 -4 -9
0 -6 8 8 1 -3 -5 -10
0 -6 7 6 -2 -4 -6 -10
0 -7 6 4 -3 -5 -6 -10
0 -8 4 2 -4 -7 -7 -11
0 -8 3 1 -6 -8 -8 -11
0 -9 2 -2 -7 -9 -9 -12
0 -10 2 -2 -7 -9 -9 -12
0 -10 2 -2 -8 -9 -9 -12
0 -11 2 -2 -9 -9 -10 -13
0 -12 2 -2 -9 -9 -10 -13
0 -13 1 -2 -10 -10 -11 -14
0 -13 1 -2 -10 -10 -11 -14
0 -13 1 -2 -10 -10 -11 -14
0 -13 1 -3 -10 -10 -11 -14
0 -13 1 -3 -10 -10 -11 -14
-2 -12 0 -4 -10 -11 -11 -13
-2 -12 0 -3 -10 -11 -11 -13
-2 -12 0 -3 -9 -11 -11 -13
-2 -12 1 -2 -8 -10 -11 -13
-2 -12 1 0 -8 -10 -11 -13
-2 -12 2 1 -7 -9 -10 -13
-2 -12 2 1 -7 -9 -10 -13
-2 -12 2 1 -7 -9 -10 -13
0 -12 2 0 -7 -9 -10 -12
0 -12 2 0 -7 -9 -10 -12
1 -11 2 -2 -7 -8 -10 -11
1 -11 2 -2 -7 -8 -10 -11
1 -11 2 -2 -7 -8 -10 -11
1 -11 2 -2 -7 -8 -10 -11
1 -11 2 -2 -7 -8 -10 -11
2 -12 1 0 -6 -7 -10 -11
2 -11 1 0 -6 -7 -10 -11
2 -10 1 0 -6 -7 -10 -11
2 -9 1 0 -6 -7 -10 -11
2 -8 1 0 -6 -7 -10 -11
1 -7 1 -2 -7 -7 -9 -10
1 -7 1 -2 -7 -7 -9 -10
1 -7 1 -2 -7 -7 -9 -10
1 -7 1 -2 -8 -7 -9 -10
1 -7 1 -2 -8 -7 -9 -10
1 -8 1 -2 -9 -8 -9 -9
1 -8 1 -2 -9 -8 -9 -9
1 -8 1 -3 -9 -8 -9 -9
1 -8 1 -4 -9 -8 -9 -9
1 -8 1 -4 -9 -8 -9 -9
1 -8 0 -5 -9 -8 -9 -9
1 -8 0 -5 -9 -8 -9 -9
1 -8 0 -5 -9 -8 -9 -9
1 -8 0 -5 -9 -8 -9 -9
1 -8 0 -5 -9 -8 -9 -9
0 -9 1 -5 -10 -9 -9 -10
0 -9 1 -5 -10 -9 -9 -10
0 -9 1 -5 -10 -9 -9 -10
1 -8 0 -6 -10 -9 -9 -9
1 -8 0 -6 -10 -9 -9 -9
2 -7 -2 -7 -11 -10 -8 -8
2 -7 -2 -7 -11 -10 -8 -8
2 -7 -2 -8 -12 -11 -8 -8
2 -8 -3 -9 -13 -12 -9 -8
2 -8 -3 -9 -13 -12 -9 -8
1 -9 -4 -10 -14 -13 -10 -9
1 -9 -4 -10 -14 -13 -10 -9
1 -9 -4 -11 -14 -13 -10 -9
1 -9 -4 -12 -14 -13 -10 -9
1 -9 -4 -12 -14 -13 -10 -9
1 -8 -4 -13 -14 -14 -10 -9
1 -9 -4 -13 -14 -14 -10 -9
1 -10 -4 -13 -14 -14 -10 -9
1 -11 -4 -13 -15 -14 -10 -9
1 -12 -4 -13 -15 -14 -10 -9
1 -13 -5 -13 -16 -15 -11 -10
1 -13 -5 -14 -16 -15 -11 -10
1 -13 -5 -14 -16 -15 -11 -10
1 -13 -5 -15 -16 -15 -11 -10
1 -13 -5 -16 -16 -15 -11 -10
0 -12 -5 -17 -17 -15 -10 -10
0 -12 -5 -17 -17 -15 -10 -10
0 -13 -5 -17 -17 -16 -11 -10
0 -14 -5 -17 -18 -17 -12 -10
0 -14 -5 -17 -18 -17 -12 -10
0 -15 -6 -17 -19 -18 -13 -11
0 -15 -6 -17 -19 -18 -13 -11
0 -15 -6 -17 -20 -18 -13 -11
0 -15 -6 -18 -21 -18 -13 -11
0 -15 -6 -18 -21 -18 -13 -11
1 -15 -6 -19 -22 -18 -12 -10
1 -15 -6 -19 -22 -18 -12 -10
1 -15 -6 -19 -22 -18 -12 -11
1 -15 -6 -19 -23 -19 -13 -12
1 -15 -6 -19 -23 -19 -13 -12
0 -16 -7 -20 -24 -20 -14 -13
0 -16 -7 -20 -24 -20 -14 -13
0 -16 -7 -21 -24 -20 -14 -13
0 -16 -7 -22 -24 -20 -14 -13
0 -16 -7 -22 -24 -20 -14 -13
1 -17 -7 -23 -24 -19 -14 -13
1 -17 -7 -23 -24 -19 -14 -13
1 -17 -7 -23 -24 -19 -14 -13
1 -17 -7 -23 -24 -20 -14 -13
1 -17 -7 -23 -24 -20 -14 -13
0 -16 -8 -23 -25 -21 -15 -13
0 -16 -8 -23 -25 -21 -15 -13
0 -16 -8 -23 -25 -21 -15 -13
0 -16 -8 -23 -25 -21 -14 -13
0 -16 -8 -23 -25 -21 -14 -13
0 -17 -9 -24 -25 -21 -13 -12
0 -17 -9 -24 -25 -21 -13 -12
0 -17 -9 -24 -25 -21 -14 -12
0 -17 -9 -24 -25 -22 -15 -12
0 -17 -9 -24 -25 -22 -15 -12
-2 -18 -8 -25 -25 -23 -16 -13
-2 -18 -8 -25 -25 -23 -16 -13
-2 -17 -8 -25 -24 -23 -16 -13
-2 -16 -8 -25 -23 -23 -16 -13
-2 -16 -8 -25 -23 -23 -16 -13
-2 -15 -7 -24 -22 -22 -15 -12
-2 -13 -5 -22 -21 -21 -14 -11
-2 -12 -3 -20 -19 -20 -13 -10
-2 -10 0 -18 -18 -18 -11 -8
-2 -9 1 -17 -16 -17 -10 -7
-3 -7 3 -15 -15 -16 -9 -6
-2 -5 3 -15 -15 -16 -9 -6
-2 -3 3 -15 -15 -16 -9 -6
0 0 3 -15 -14 -15 -8 -5
1 1 3 -15 -14 -15 -8 -5
2 3 4 -16 -13 -14 -7 -4
2 3 4 -15 -12 -14 -7 -4
2 4 4 -15 -12 -14 -7 -4
2 5 4 -14 -11 -13 -6 -4
2 5 4 -13 -10 -13 -6 -4
1 6 4 -12 -9 -12 -5 -3
1 9 4 -12 -9 -11 -4 -2
1 12 4 -12 -9 -11 -4 0
2 15 4 -12 -8 -10 -3 2
2 18 4 -12 -8 -9 -2 3
3 20 5 -13 -7 -8 0 4
4 20 4 -13 -7 -8 0 4
4 20 3 -13 -7 -8 0 4
5 20 2 -14 -7 -8 0 4
6 20 0 -14 -7 -8 0 4
7 21 -2 -15 -8 -9 1 4
7 20 -2 -15 -8 -9 1 4
7 19 -2 -15 -8 -9 1 4
7 18 -2 -15 -8 -9 1 5
7 17 -2 -15 -8 -9 1 5
7 16 -3 -16 -8 -9 2 6
7 15 -3 -16 -8 -9 2 6
7 14 -3 -16 -8 -9 1 5
7 13 -4 -17 -9 -10 1 5
7 11 -4 -17 -9 -10 0 4
8 10 -5 -18 -10 -11 -2 3
6 7 -5 -19 -11 -13 -3 2
5 4 -5 -19 -13 -15 -4 0
3 1 -5 -20 -14 -16 -5 -2
2 -3 -5 -21 -16 -18 -7 -4
0 -5 -5 -22 -17 -20 -8 -5
0 -8 -6 -24 -18 -21 -9 -6
0 -11 -7 -25 -19 -22 -11 -7
-2 -13 -8 -27 -20 -23 -12 -8
-2 -16 -9 -28 -22 -25 -14 -10
-3 -18 -10 -30 -23 -26 -15 -11
-3 -19 -11 -31 -24 -27 -16 -11
-3 -19 -12 -32 -26 -28 -16 -11
-3 -20 -13 -33 -27 -29 -17 -12
-3 -21 -14 -34 -29 -31 -18 -12
-2 -22 -15 -35 -30 -32 -19 -13
-2 -22 -15 -34 -30 -32 -19 -13
-2 -23 -15 -33 -30 -32 -19 -13
-3 -23 -15 -32 -30 -32 -20 -14
-3 -24 -15 -30 -30 -32 -20 -14
-4 -25 -16 -29 -31 -33 -21 -15
-4 -25 -16 -27 -31 -33 -21 -15
-4 -25 -16 -25 -31 -33 -21 -15
-4 -25 -16 -23 -31 -34 -21 -15
-4 -25 -16 -21 -31 -34 -21 -15
-5 -26 -17 -19 -30 -35 -22 -16
-5 -26 -17 -18 -30 -35 -22 -16
-5 -26 -17 -18 -30 -35 -22 -16
-5 -27 -16 -17 -31 -35 -22 -16
-5 -27 -16 -16 -31 -35 -22 -16
-6 -28 -15 -15 -32 -36 -23 -17
-6 -28 -15 -15 -32 -36 -23 -17
-6 -28 -15 -15 -32 -36 -23 -17
-6 -28 -16 -15 -32 -36 -23 -18
-6 -28 -16 -15 -32 -36 -23 -18
-6 -28 -17 -15 -32 -36 -23 -19
-6 -28 -17 -15 -32 -36 -23 -19
-6 -28 -17 -15 -32 -36 -23 -19
-6 -28 -17 -16 -32 -36 -23 -19
-6 -28 -17 -16 -32 -36 -23 -19
-5 -30 -15 -15 -31 -37 -24 -20
-4 -33 -11 -5 -25 -34 -24 -21
-3 -37 -7 6 -19 -32 -24 -22
-2 -41 -3 16 -13 -29 -24 -23
1 -46 2 26 -8 -26 -24 -25
2 -48 7 38 2 -21 -22 -26
6 -43 16 57 19 -10 -16 -24
9 -37 24 74 36 2 -10 -22
12 -31 33 93 54 13 -4 -21
15 -26 42 110 71 24 2 -19
18 -17 49 125 90 40 12 -13
20 4 52 130 111 66 33 3
23 24 54 136 133 93 54 19
25 45 57 141 154 118 74 35
27 65 60 147 175 145 96 51
27 87 62 146 192 168 114 66
20 109 66 126 198 181 128 77
13 132 69 105 204 195 141 90
5 154 73 85 210 209 153 101
-3 177 76 64 216 222 167 113
-12 193 73 38 209 221 170 119
-24 185 49 -2 160 179 143 106
-35 178 24 -40 113 136 116 93
-48 171 0 -80 66 94 90 80
-60 163 -25 -119 18 52 63 67
-69 144 -47 -151 -31 5 32 50
-71 92 -59 -161 -86 -55 -10 21
-73 39 -71 -172 -141 -113 -52 -8
-74 -12 -83 -182 -196 -173 -93 -35
-76 -64 -97 -192 -251 -231 -135 -64
-77 -105 -107 -200 -290 -273 -165 -86
-72 -113 -111 -203 -282 -264 -164 -90
-67 -121 -116 -205 -275 -255 -163 -93
-62 -130 -121 -208 -267 -245 -162 -96
-56 -138 -126 -212 -260 -236 -160 -99
-51 -143 -128 -208 -247 -224 -156 -101
-44 -135 -116 -186 -224 -204 -143 -93
-36 -128 -105 -163 -200 -185 -129 -85
-29 -120 -94 -141 -176 -165 -115 -77
-22 -113 -82 -119 -152 -146 -101 -69
-16 -106 -71 -100 -131 -129 -90 -63
-14 -101 -63 -91 -119 -119 -82 -59
-12 -96 -54 -81 -107 -109 -76 -55
-10 -91 -46 -72 -95 -100 -69 -52
-8 -85 -36 -62 -82 -91 -62 -48
-6 -79 -29 -54 -72 -81 -56 -45
-6 -71 -25 -49 -64 -75 -52 -40
-6 -64 -21 -44 -57 -69 -47 -37
-6 -57 -17 -38 -49 -62 -43 -33
-6 -50 -13 -32 -41 -56 -37 -30
-5 -43 -10 -28 -35 -51 -33 -27
-5 -38 -10 -27 -31 -47 -30 -24
-4 -34 -9 -26 -28 -43 -27 -22
-3 -30 -9 -25 -24 -39 -24 -19
-2 -26 -8 -24 -21 -35 -21 -16
0 -22 -7 -23 -18 -32 -18 -14
0 -22 -7 -22 -17 -31 -17 -14
0 -21 -6 -21 -15 -30 -16 -13
0 -21 -6 -20 -14 -29 -15 -13
0 -20 -5 -18 -13 -28 -14 -12
0 -19 -4 -17 -11 -27 -13 -11
0 -18 -4 -17 -10 -26 -12 -10
0 -17 -3 -17 -9 -24 -10 -9
1 -16 -2 -17 -8 -23 -9 -8
1 -14 0 -17 -7 -22 -8 -6
2 -13 1 -16 -6 -20 -6 -5
2 -13 1 -16 -6 -20 -6 -5
2 -12 1 -15 -6 -19 -6 -5
2 -12 0 -14 -5 -18 -6 -5
2 -11 0 -13 -5 -17 -6 -5
2 -10 -2 -12 -4 -16 -6 -6
2 -9 -2 -12 -3 -15 -6 -6
2 -8 0 -12 -2 -14 -5 -5
3 -7 0 -12 0 -13 -4 -4
3 -5 1 -12 1 -12 -3 -3
4 -4 2 -12 2 -11 -2 -2
4 -4 2 -12 2 -11 -2 -2
4 -4 2 -11 3 -10 -2 -2
4 -4 1 -11 3 -10 0 -2
4 -4 1 -10 4 -9 0 -2
4 -4 0 -9 5 -8 1 -2
4 -3 0 -8 6 -6 1 -2
4 0 1 -7 8 -4 2 0
5 1 2 -6 10 -2 3 1
5 2 3 -4 11 1 4 2
6 4 4 -3 13 3 5 3
6 4 4 0 15 4 6 3
6 5 5 2 16 6 7 3
6 5 5 4 18 7 8 3
6 6 6 6 20 8 9 3
6 7 7 8 22 10 10 4
6 8 8 9 24 12 12 5
7 10 10 11 27 14 13 7
7 12 11 13 29 16 15 8
8 13 12 14 32 18 17 9
9 15 14 16 34 20 19 11
9 16 14 19 37 22 20 11
9 17 14 21 39 24 22 12
9 18 15 24 43 26 23 12
9 20 15 26 45 28 24 13
10 21 16 29 48 30 26 14
10 24 17 32 52 33 29 16
10 27 19 35 55 37 31 18
11 30 21 38 59 40 34 21
11 33 22 42 63 44 36 23
12 36 24 45 66 47 39 25
12 38 25 49 70 50 42 26
13 42 26 52 73 54 44 28
14 44 27 56 76 57 47 29
15 47 29 60 80 60 49 30
16 49 30 63 84 63 51 32
16 52 31 65 86 65 53 33
17 55 33 67 88 67 55 35
17 58 34 69 90 69 58 37
18 61 35 71 92 71 60 38
19 64 37 73 94 73 62 40
19 64 37 74 94 73 62 40
19 65 37 76 94 73 62 40
19 66 38 78 95 74 62 42
19 67 38 79 95 74 62 42
19 68 39 81 96 75 63 43
19 69 39 81 96 75 63 43
19 70 40 81 95 75 63 43
19 71 42 81 94 75 63 43
19 72 43 81 93 75 63 43
20 73 44 80 92 75 64 44
20 72 44 80 91 74 63 44
19 71 44 79 89 72 61 43
18 70 44 79 87 71 59 42
17 69 44 78 86 70 58 40
16 68 43 77 84 68 56 39
16 67 43 75 80 66 54 38
16 66 43 74 78 64 53 37
16 65 43 72 75 61 51 36
16 64 43 70 73 59 49 35
15 63 44 68 70 57 47 34
15 60 43 66 67 54 45 32
14 58 42 64 64 51 42 30
13 55 40 62 60 47 39 28
12 53 39 60 57 44 36 25
11 50 38 58 54 40 34 23
10 48 37 55 51 37 31 21
9 45 35 52 48 34 29 20
8 43 34 48 45 32 26 18
7 39 33 45 42 29 24 16
6 37 31 42 38 26 21 14
6 34 30 38 35 23 18 12
6 31 28 36 32 20 15 10
5 29 26 33 29 17 13 8
5 26 25 31 26 14 10 5
4 23 23 28 23 11 7 3
4 21 22 25 21 9 6 2
3 19 21 22 18 7 4 1
3 17 20 19 16 5 2 0
2 15 19 16 14 2 1 -2
1 13 18 13 11 0 -2 -3
1 11 17 11 9 -2 -3 -4
1 9 15 10 7 -4 -5 -6
1 7 14 8 5 -6 -6 -7
1 5 13 6 3 -7 -7 -8
1 3 11 4 1 -9 -9 -10
1 3 10 2 -2 -10 -9 -10
0 2 9 0 -4 -11 -10 -10
0 1 8 -3 -6 -12 -11 -10
-2 0 7 -5 -8 -13 -12 -10
-3 -2 6 -7 -10 -15 -13 -10
-3 -3 6 -7 -10 -15 -13 -10
-3 -4 5 -8 -11 -16 -13 -11
-3 -5 5 -8 -11 -16 -14 -11
-3 -6 4 -9 -12 -17 -14 -12
-3 -7 3 -10 -13 -18 -15 -13
-3 -7 3 -10 -13 -18 -15 -13
-3 -7 3 -10 -13 -18 -15 -13
-3 -7 3 -10 -13 -18 -15 -13
-3 -7 3 -10 -13 -18 -15 -13
-3 -7 4 -11 -12 -18 -14 -12
-3 -7 4 -11 -12 -18 -14 -12
-3 -7 4 -10 -12 -18 -14 -12
-3 -7 3 -9 -12 -18 -14 -12
-3 -7 3 -8 -12 -18 -14 -12
-2 -7 2 -7 -11 -18 -15 -13
-2 -7 2 -7 -11 -18 -15 -13
-2 -7 2 -7 -11 -18 -15 -13
-2 -7 3 -7 -11 -17 -15 -13
-2 -7 3 -7 -11 -17 -15 -13
-2 -6 4 -8 -10 -16 -14 -13
-2 -6 4 -8 -10 -16 -14 -13
-2 -6 4 -8 -10 -16 -14 -13
-2 -6 4 -7 -10 -16 -14 -13
-2 -6 4 -7 -10 -16 -14 -13
-2 -6 3 -6 -9 -15 -15 -13
-2 -6 3 -6 -9 -15 -15 -13
-2 -6 3 -6 -9 -15 -15 -13
-2 -5 3 -6 -9 -15 -14 -12
-2 -5 3 -6 -9 -15 -14 -12
-2 -4 3 -6 -8 -14 -13 -11
-2 -4 3 -6 -8 -14 -13 -11
-2 -4 3 -6 -8 -14 -13 -11
-2 -4 3 -6 -8 -14 -14 -11
-2 -4 3 -6 -8 -14 -14 -11
0 -5 2 -6 -9 -14 -15 -12
0 -5 2 -6 -9 -14 -15 -12
0 -5 2 -6 -9 -14 -14 -12
0 -5 2 -6 -10 -14 -14 -12
0 -5 2 -6 -10 -14 -13 -12
0 -4 1 -7 -11 -13 -12 -11
0 -4 1 -7 -11 -13 -12 -11
0 -4 1 -7 -11 -13 -12 -11
0 -4 0 -8 -11 -14 -13 -11
0 -4 0 -8 -11 -14 -13 -11
-2 -5 -2 -9 -11 -15 -14 -11
-2 -5 -2 -9 -11 -15 -14 -11
-2 -5 -2 -9 -11 -15 -14 -11
-2 -5 -2 -9 -11 -15 -14 -11
-2 -5 -2 -9 -11 -15 -14 -11
-2 -5 -2 -10 -12 -15 -14 -10
-2 -5 -2 -10 -12 -15 -14 -10
-2 -5 -2 -10 -13 -16 -14 -10
-2 -6 -2 -10 -13 -16 -14 -10
-2 -6 -2 -10 -14 -17 -14 -10
-2 -7 -3 -10 -15 -18 -15 -11
-2 -7 -3 -10 -15 -18 -15 -11
-2 -7 -3 -11 -15 -18 -15 -11
0 -8 -3 -12 -15 -18 -15 -11
0 -8 -3 -13 -15 -18 -15 -11
1 -9 -2 -14 -15 -18 -14 -10
1 -9 -2 -14 -15 -18 -14 -10
1 -9 -3 -14 -15 -18 -14 -10
1 -9 -3 -14 -16 -18 -15 -10
1 -9 -4 -14 -16 -18 -15 -10
0 -10 -5 -13 -17 -19 -16 -11
0 -10 -5 -13 -17 -19 -16 -11
0 -10 -5 -13 -17 -19 -16 -11
0 -10 -5 -14 -17 -19 -16 -11
0 -10 -5 -14 -17 -19 -16 -11
0 -11 -4 -15 -17 -20 -16 -11
0 -11 -4 -15 -17 -20 -16 -11
0 -11 -4 -15 -18 -20 -16 -11
0 -12 -4 -16 -18 -21 -17 -11
0 -12 -4 -16 -19 -21 -17 -11
0 -13 -5 -17 -20 -22 -18 -12
0 -13 -5 -17 -20 -22 -18 -12
0 -13 -5 -17 -20 -22 -18 -12
0 -13 -5 -17 -20 -22 -17 -12
0 -13 -5 -17 -20 -22 -17 -12
0 -14 -5 -18 -21 -22 -16 -12
0 -14 -5 -18 -21 -22 -16 -12
0 -14 -5 -18 -21 -22 -17 -12
0 -15 -5 -18 -22 -23 -17 -12
0 -15 -5 -18 -22 -23 -18 -12
-2 -16 -6 -19 -23 -24 -19 -12
-2 -16 -6 -19 -23 -24 -19 -12
-2 -16 -6 -19 -23 -24 -19 -12
-2 -16 -6 -19 -23 -24 -19 -12
-2 -16 -6 -19 -23 -24 -19 -12
-2 -17 -6 -19 -23 -24 -18 -13
-2 -17 -6 -19 -23 -24 -18 -13
-2 -17 -6 -19 -23 -24 -18 -13
-2 -17 -6 -19 -23 -23 -19 -13
-2 -17 -6 -19 -23 -23 -19 -13
0 -18 -7 -19 -24 -22 -20 -13
0 -18 -7 -19 -24 -22 -20 -13
0 -18 -7 -19 -24 -22 -20 -13
0 -18 -7 -20 -24 -22 -19 -13
0 -18 -7 -20 -24 -22 -19 -13
-2 -19 -7 -21 -24 -22 -18 -13
-2 -19 -7 -21 -24 -22 -18 -13
-2 -19 -7 -21 -24 -22 -18 -13
-2 -19 -8 -20 -25 -22 -19 -13
-2 -19 -8 -20 -25 -22 -19 -13
-2 -18 -9 -19 -26 -23 -20 -13
-2 -18 -9 -19 -26 -23 -20 -13
-2 -18 -9 -19 -26 -23 -20 -13
-2 -18 -9 -20 -26 -23 -20 -13
-2 -18 -9 -20 -26 -23 -20 -13
-2 -19 -8 -21 -25 -23 -19 -12
-2 -19 -8 -21 -25 -23 -19 -12
-2 -19 -8 -21 -25 -23 -19 -12
-2 -19 -8 -21 -25 -23 -19 -13
-2 -19 -8 -21 -25 -23 -19 -13
0 -19 -8 -21 -26 -24 -19 -14
0 -19 -8 -21 -26 -24 -19 -14
0 -19 -8 -21 -26 -24 -19 -13
0 -20 -8 -21 -26 -24 -18 -13
0 -20 -8 -21 -26 -24 -18 -12
-2 -21 -7 -20 -25 -23 -17 -11
-2 -21 -7 -20 -25 -23 -17 -11
-2 -21 -7 -20 -25 -23 -17 -11
-2 -21 -7 -20 -25 -23 -18 -12
-2 -21 -7 -20 -25 -23 -18 -12
0 -22 -8 -19 -26 -24 -19 -13
0 -22 -8 -19 -26 -24 -19 -13
0 -22 -8 -19 -26 -24 -19 -13
0 -22 -8 -19 -26 -24 -19 -13
0 -22 -8 -19 -26 -24 -19 -13
-2 -23 -8 -20 -26 -24 -19 -12
-2 -23 -8 -20 -26 -24 -19 -12
-2 -23 -8 -20 -26 -24 -19 -12
-2 -23 -8 -20 -26 -24 -19 -12
-2 -23 -8 -20 -26 -24 -19 -12
0 -22 -8 -19 -27 -25 -19 -13
0 -20 -7 -18 -26 -24 -18 -12
0 -18 -6 -17 -25 -23 -17 -11
1 -16 -4 -16 -23 -22 -16 -10
1 -14 -3 -15 -22 -21 -15 -9
2 -12 0 -14 -20 -19 -14 -8
2 -11 0 -14 -20 -19 -14 -8
2 -10 0 -13 -20 -19 -14 -8
2 -9 0 -12 -19 -18 -14 -7
2 -8 0 -11 -19 -18 -14 -7
1 -7 1 -10 -18 -17 -13 -6
1 -7 2 -10 -17 -17 -13 -6
2 -6 4 -9 -16 -16 -12 -5
2 -5 5 -9 -15 -15 -11 -5
3 -4 7 -8 -14 -14 -10 -4
4 -3 9 -7 -13 -13 -9 -3
4 -2 9 -7 -13 -12 -9 -3
4 1 9 -7 -12 -11 -8 -3
4 3 9 -7 -11 -10 -8 -2
4 5 9 -7 -10 -9 -7 -2
3 7 8 -7 -9 -8 -6 0
4 8 7 -7 -9 -8 -5 1
5 9 6 -7 -9 -8 -4 2
6 10 4 -8 -9 -8 -3 3
7 11 3 -8 -9 -8 -2 4
8 13 1 -9 -8 -7 0 6
8 13 1 -9 -8 -7 0 6
9 13 0 -9 -9 -7 0 6
10 13 0 -9 -9 -7 0 6
11 13 -2 -9 -10 -7 0 6
12 13 -3 -8 -11 -8 0 6
12 12 -3 -8 -11 -8 0 6
12 10 -3 -8 -11 -8 0 6
11 9 -3 -8 -11 -7 0 6
11 7 -3 -8 -11 -7 0 6
10 5 -2 -8 -11 -6 1 6
9 3 -2 -8 -11 -6 0 6
8 1 -2 -8 -11 -7 -2 5
7 -2 -2 -9 -12 -8 -3 5
6 -4 -2 -9 -12 -9 -4 4
4 -7 -2 -10 -13 -10 -5 3
4 -9 -2 -11 -14 -11 -6 2
3 -11 -2 -12 -16 -13 -7 1
3 -13 -2 -13 -17 -14 -9 -2
2 -15 -2 -14 -19 -16 -10 -3
1 -18 -3 -15 -21 -18 -12 -5
1 -19 -4 -16 -22 -19 -13 -6
1 -21 -5 -17 -23 -21 -14 -8
0 -23 -7 -19 -25 -22 -16 -9
0 -25 -8 -20 -26 -24 -17 -11
-2 -27 -10 -22 -28 -26 -19 -13
-2 -27 -10 -22 -28 -26 -19 -13
-2 -27 -10 -22 -28 -26 -19 -13
-2 -28 -10 -23 -28 -26 -19 -12
-2 -28 -10 -23 -28 -26 -19 -12
-3 -29 -11 -24 -29 -26 -19 -11
-3 -29 -11 -24 -29 -26 -19 -11
-3 -29 -11 -24 -29 -26 -19 -12
-3 -30 -12 -24 -29 -26 -19 -13
-3 -30 -12 -24 -29 -26 -19 -14
-4 -31 -13 -25 -29 -27 -19 -15
-4 -31 -13 -25 -29 -27 -19 -15
-4 -31 -13 -25 -29 -27 -19 -15
-4 -31 -12 -25 -29 -27 -19 -15
-4 -31 -12 -25 -29 -27 -19 -15
-4 -31 -12 -25 -29 -27 -19 -15
-5 -32 -11 -24 -30 -28 -20 -14
-5 -33 -11 -24 -30 -28 -20 -14
-5 -34 -11 -24 -30 -28 -20 -14
-5 -35 -11 -24 -30 -28 -20 -14
-5 -35 -11 -24 -30 -28 -20 -14
-5 -36 -12 -24 -31 -29 -21 -15
-5 -36 -12 -24 -31 -29 -21 -15
-5 -36 -12 -24 -31 -29 -21 -15
-5 -36 -12 -24 -31 -29 -21 -15
-5 -36 -12 -24 -31 -29 -21 -15
-5 -37 -11 -21 -29 -30 -21 -16
-4 -39 -9 -16 -27 -29 -21 -17
-4 -43 -8 -12 -24 -29 -21 -18
-3 -45 -6 -7 -22 -28 -21 -19
-3 -47 -5 -3 -20 -28 -21 -20
1 -48 5 15 -7 -21 -21 -21
3 -49 14 32 6 -14 -20 -22
6 -50 22 50 18 -8 -19 -23
8 -51 31 67 31 0 -18 -24
10 -51 39 85 44 6 -17 -24
15 -37 45 100 67 29 1 -14
20 -22 50 114 91 53 18 -3
25 -7 54 129 113 76 35 10
30 9 59 144 137 100 53 22
34 24 63 158 160 123 70 33
31 51 66 148 175 148 92 52
27 77 69 135 188 172 114 69
22 104 72 122 201 196 136 88
18 132 75 110 216 220 158 105
14 158 77 98 229 244 180 123
1 170 65 70 220 239 177 125
-13 180 52 42 209 231 172 125
-26 190 38 14 197 224 167 123
-39 201 24 -14 187 217 161 123
-53 212 11 -43 176 210 157 123
-59 167 -8 -73 94 126 105 92
-65 117 -26 -104 11 38 51 60
-71 69 -44 -136 -73 -48 -4 27
-77 21 -62 -166 -156 -135 -57 -5
-83 -28 -80 -197 -240 -222 -111 -36
-81 -51 -90 -198 -243 -225 -121 -50
-77 -72 -98 -196 -244 -225 -130 -62
-73 -94 -107 -195 -245 -224 -139 -74
-69 -115 -116 -193 -246 -224 -148 -87
-65 -137 -124 -192 -246 -224 -156 -99
-57 -135 -121 -185 -233 -210 -148 -95
-50 -132 -116 -178 -219 -194 -138 -90
-41 -129 -111 -171 -203 -180 -127 -85
-33 -126 -107 -164 -189 -165 -116 -78
-26 -122 -102 -157 -174 -150 -106 -73
-22 -117 -90 -138 -156 -137 -98 -68
-19 -113 -76 -118 -139 -123 -90 -64
-15 -109 -64 -98 -121 -111 -81 -59
-12 -105 -51 -78 -104 -98 -74 -55
-9 -101 -38 -58 -87 -85 -66 -51
-8 -94 -33 -53 -79 -78 -61 -47
-7 -86 -29 -49 -72 -72 -56 -43
-7 -78 -25 -45 -65 -66 -51 -39
-6 -71 -20 -39 -58 -60 -46 -35
-6 -64 -16 -35 -51 -54 -40 -32
-5 -58 -13 -31 -45 -49 -36 -29
-4 -53 -11 -27 -38 -43 -32 -26
-4 -48 -8 -23 -32 -37 -28 -23
-3 -41 -6 -19 -26 -32 -24 -20
-3 -36 -4 -15 -20 -27 -20 -17
-2 -33 -3 -14 -19 -25 -18 -15
0 -31 -3 -14 -18 -23 -17 -14
0 -29 -3 -13 -17 -22 -15 -13
1 -27 -3 -13 -16 -20 -14 -12
1 -25 -3 -13 -16 -19 -13 -11
2 -24 -2 -11 -14 -18 -12 -10
2 -23 0 -10 -13 -17 -11 -10
2 -22 1 -8 -11 -16 -10 -9
2 -21 2 -7 -10 -15 -9 -9
2 -21 3 -6 -9 -15 -8 -9
3 -20 4 -5 -8 -13 -7 -8
3 -19 4 -5 -7 -12 -6 -7
3 -18 3 -5 -7 -10 -6 -6
3 -17 3 -5 -6 -9 -5 -5
3 -17 3 -5 -6 -8 -5 -5
3 -16 2 -4 -4 -6 -4 -4
3 -16 3 -3 -3 -5 -3 -4
3 -16 4 -2 0 -3 -2 -3
3 -16 5 0 1 -2 0 -3
3 -16 5 1 2 0 0 -3
4 -16 6 2 3 1 1 -2
4 -15 6 2 4 2 2 0
5 -14 6 2 4 2 2 0
5 -13 6 2 5 3 3 1
5 -13 6 2 5 3 3 1
6 -12 5 3 7 5 4 2
6 -11 5 4 8 6 5 2
6 -10 5 6 10 8 5 2
6 -9 5 7 11 9 6 2
6 -8 5 8 12 10 6 2
6 -6 6 9 13 11 8 2
6 -5 6 10 14 12 9 3
6 -3 6 10 15 13 11 4
6 -2 6 11 16 14 12 5
6 0 6 11 17 15 13 6
7 1 7 13 20 17 15 7
7 2 8 15 22 19 16 7
8 3 9 17 24 21 17 8
8 4 10 19 26 23 18 8
8 4 11 21 28 25 19 8
9 6 12 23 31 27 21 10
9 8 13 24 33 29 23 11
10 10 13 26 35 31 25 13
10 12 14 27 37 33 27 14
10 14 14 28 39 35 28 15
11 16 16 32 44 38 30 17
12 18 17 35 47 43 33 18
12 20 18 38 51 46 35 20
13 22 19 43 55 49 37 21
13 23 20 46 58 52 39 22
14 26 21 49 61 55 43 24
15 29 22 52 64 59 46 27
16 32 23 55 67 62 49 29
17 35 24 57 70 65 51 31
17 38 25 60 73 68 54 33
18 42 27 64 76 71 57 35
18 44 28 67 80 74 59 37
19 47 30 70 84 77 61 38
19 50 31 74 87 80 64 40
19 52 32 77 90 84 66 42
20 54 33 78 91 86 67 43
20 56 33 79 92 88 68 44
21 58 33 80 92 90 69 45
21 60 33 81 93 92 70 46
21 62 33 82 93 94 71 47
22 63 34 84 94 95 72 48
22 64 35 85 94 96 72 48
22 65 36 86 94 97 72 49
22 66 37 87 94 98 72 49
22 66 37 88 94 99 72 49
22 67 38 88 93 99 73 50
22 67 38 87 90 97 72 50
22 67 38 85 88 96 71 50
22 67 38 84 86 94 70 50
22 67 38 82 84 93 70 50
21 67 38 81 81 91 68 49
20 65 38 80 79 89 66 48
19 64 38 80 78 87 64 46
18 62 38 79 76 85 63 45
17 61 38 79 75 82 61 44
16 59 39 76 72 79 58 42
16 57 39 74 68 75 56 39
15 56 39 72 65 72 54 37
15 54 39 69 62 69 51 36
15 53 39 67 59 66 49 34
14 50 38 65 56 63 46 32
13 47 37 62 54 59 44 30
12 44 36 60 51 56 40 28
11 42 35 58 48 53 37 26
11 38 35 56 46 50 35 24
10 36 33 53 43 47 32 22
10 33 32 50 39 44 29 20
9 31 30 46 36 39 26 18
9 29 28 43 33 36 24 16
9 27 27 39 30 33 21 14
7 24 26 36 27 31 19 12
6 21 25 34 25 28 17 11
5 18 24 32 23 26 15 9
4 15 23 29 20 24 13 7
3 12 22 27 18 22 11 6
2 10 20 24 15 19 9 4
2 9 18 21 12 17 7 3
2 7 16 18 9 15 5 1
2 6 14 15 7 12 4 0
2 5 12 12 4 10 2 -2
2 3 11 10 2 8 1 -3
2 1 10 8 1 7 0 -4
1 -2 9 6 -2 5 -2 -4
1 -3 8 5 -3 4 -3 -5
1 -5 8 3 -4 3 -4 -5
0 -6 7 1 -5 2 -5 -6
0 -6 6 0 -6 1 -5 -6
-2 -6 5 -2 -7 1 -6 -6
-2 -6 4 -4 -8 0 -6 -6
-2 -6 4 -5 -8 0 -6 -6
-3 -7 3 -6 -9 -2 -7 -7
-3 -8 3 -6 -10 -3 -8 -7
-3 -9 3 -6 -10 -3 -8 -8
-3 -10 3 -6 -11 -4 -9 -8
-3 -10 3 -6 -11 -4 -9 -8
-3 -11 2 -6 -12 -5 -10 -9
-3 -11 2 -6 -12 -5 -10 -9
-3 -11 2 -6 -12 -6 -10 -9
-3 -11 2 -6 -12 -6 -10 -9
-3 -11 2 -6 -12 -6 -10 -9
-2 -10 1 -7 -13 -7 -10 -9
-2 -10 1 -6 -13 -6 -10 -9
-2 -10 1 -5 -13 -6 -10 -9
-2 -10 1 -4 -13 -5 -10 -9
-2 -10 1 -4 -13 -5 -10 -9
-3 -11 2 -3 -12 -4 -11 -10
-3 -11 2 -3 -12 -4 -11 -10
-3 -11 2 -3 -12 -4 -10 -9
-3 -11 2 -3 -12 -4 -10 -9
-3 -11 2 -3 -12 -4 -10 -9
-2 -10 2 -4 -11 -4 -9 -8
-2 -10 2 -4 -11 -4 -10 -8
-2 -10 2 -3 -11 -4 -11 -8
-2 -10 2 -3 -11 -4 -12 -8
-2 -10 2 -3 -11 -4 -12 -8
0 -11 1 -2 -10 -3 -13 -9
0 -11 1 -2 -10 -3 -13 -8
0 -10 1 -2 -10 -2 -13 -8
0 -10 1 -2 -10 -2 -13 -7
0 -10 1 -2 -10 -2 -13 -7
0 -9 1 0 -9 0 -12 -6
0 -9 1 0 -9 0 -12 -6
0 -10 1 0 -9 0 -13 -7
0 -10 1 0 -9 0 -13 -7
0 -10 1 0 -9 0 -13 -7
-2 -11 0 0 -9 1 -14 -8
-2 -11 0 0 -9 1 -14 -8
-2 -10 0 -2 -9 1 -14 -8
-2 -10 0 -2 -9 1 -14 -8
-2 -10 0 -2 -9 1 -14 -8
-2 -9 0 -3 -10 1 -14 -7
-2 -9 0 -3 -10 1 -14 -7
-2 -10 0 -3 -10 1 -14 -7
-2 -10 0 -3 -10 1 -14 -7
-2 -10 0 -3 -10 1 -14 -7
-2 -11 0 -3 -11 1 -13 -7
-2 -11 0 -4 -12 1 -13 -7
-2 -11 0 -4 -12 1 -13 -7
-2 -11 0 -5 -13 1 -13 -7
-2 -11 0 -5 -13 1 -13 -7
-2 -11 -2 -6 -14 0 -13 -6
-2 -12 -2 -6 -14 0 -13 -6
-2 -12 -3 -6 -14 -2 -13 -6
-2 -13 -3 -6 -14 -2 -13 -6
-2 -13 -3 -6 -14 -2 -13 -6
-3 -14 -4 -6 -15 -3 -14 -6
-3 -14 -4 -6 -16 -3 -14 -6
-3 -14 -4 -7 -16 -3 -14 -6
-3 -14 -4 -7 -17 -3 -14 -6
-3 -14 -4 -7 -17 -3 -14 -6
-2 -14 -4 -8 -18 -4 -15 -5
-2 -14 -4 -8 -18 -4 -15 -5
-2 -14 -4 -8 -18 -4 -15 -6
-2 -14 -4 -8 -18 -4 -15 -6
-2 -14 -4 -8 -18 -4 -15 -6
-3 -14 -4 -8 -19 -5 -15 -7
-3 -14 -5 -9 -19 -6 -15 -7
-3 -15 -5 -10 -19 -6 -15 -7
-3 -15 -6 -11 -19 -7 -15 -7
-3 -15 -6 -11 -19 -7 -15 -7
-2 -16 -7 -12 -20 -8 -15 -7
-2 -16 -7 -12 -20 -8 -15 -7
-2 -17 -7 -12 -21 -8 -16 -7
-2 -17 -7 -12 -21 -8 -16 -7
-2 -17 -7 -12 -21 -8 -16 -7
-3 -18 -6 -12 -22 -9 -17 -8
-3 -18 -6 -12 -23 -9 -17 -8
-3 -18 -7 -12 -23 -9 -17 -8
-3 -18 -7 -12 -24 -9 -17 -8
-3 -18 -7 -12 -24 -9 -17 -8
-3 -17 -8 -13 -25 -10 -17 -8
-3 -17 -8 -13 -25 -10 -17 -8
-3 -18 -8 -13 -25 -10 -17 -9
-3 -18 -8 -13 -25 -10 -17 -9
-3 -18 -8 -13 -25 -10 -17 -9
-3 -19 -7 -13 -26 -11 -17 -10
-3 -19 -7 -13 -26 -11 -17 -10
-3 -19 -8 -14 -26 -11 -17 -10
-3 -19 -8 -14 -26 -11 -17 -10
-3 -19 -8 -14 -26 -11 -17 -10
-3 -18 -9 -15 -25 -12 -18 -10
-3 -19 -9 -15 -25 -12 -18 -10
-3 -19 -9 -15 -26 -12 -18 -10
-3 -20 -9 -15 -26 -12 -18 -10
-3 -20 -9 -15 -26 -12 -18 -10
-3 -21 -10 -15 -27 -13 -19 -10
-3 -21 -10 -15 -27 -13 -19 -10
-3 -21 -10 -15 -27 -13 -19 -10
-3 -21 -10 -15 -27 -13 -19 -10
-3 -21 -10 -15 -27 -13 -19 -10
-3 -20 -10 -16 -27 -14 -18 -9
-3 -20 -10 -16 -27 -14 -18 -9
-3 -20 -10 -16 -27 -15 -18 -9
-3 -20 -10 -16 -27 -15 -18 -9
-3 -20 -10 -16 -27 -15 -18 -9
-3 -20 -10 -16 -28 -16 -18 -10
-3 -20 -10 -16 -28 -16 -18 -10
-3 -20 -11 -16 -28 -16 -18 -10
-3 -20 -11 -16 -28 -16 -18 -10
-3 -20 -11 -16 -28 -16 -18 -10
-3 -21 -12 -17 -29 -17 -19 -10
-3 -21 -12 -17 -29 -17 -19 -10
-3 -21 -12 -17 -29 -17 -19 -10
-3 -21 -12 -17 -29 -17 -19 -10
-3 -21 -12 -17 -29 -17 -19 -10
-2 -21 -13 -17 -30 -18 -20 -11
-2 -21 -13 -17 -30 -18 -20 -11
-3 -21 -13 -17 -30 -18 -20 -11
-3 -21 -13 -17 -30 -18 -20 -11
-3 -21 -13 -17 -30 -18 -20 -11
-4 -22 -12 -16 -29 -18 -20 -10
-4 -22 -12 -16 -29 -18 -20 -10
-4 -22 -12 -17 -29 -18 -20 -10
-4 -22 -12 -17 -29 -18 -20 -10
-4 -22 -12 -17 -29 -18 -20 -10
-3 -22 -13 -18 -29 -19 -20 -10
-3 -22 -13 -18 -29 -19 -20 -10
-3 -21 -13 -18 -29 -19 -20 -10
-3 -21 -13 -18 -29 -19 -20 -10
-3 -21 -13 -18 -29 -19 -20 -10
-2 -20 -13 -18 -29 -20 -20 -10
-2 -20 -12 -18 -28 -20 -20 -10
-2 -20 -11 -17 -28 -20 -20 -10
-2 -20 -11 -17 -27 -20 -20 -10
-2 -20 -10 -17 -27 -20 -20 -10
0 -18 -9 -15 -26 -19 -19 -10
0 -16 -8 -14 -24 -18 -18 -9
0 -14 -7 -12 -23 -17 -17 -8
0 -12 -6 -11 -22 -16 -16 -7
0 -10 -5 -9 -21 -15 -15 -6
0 -9 -4 -8 -20 -14 -14 -5
0 -8 -3 -7 -19 -14 -14 -5
0 -8 -2 -7 -19 -14 -14 -5
0 -7 -2 -6 -18 -14 -14 -5
0 -7 0 -6 -18 -14 -14 -5
0 -5 1 -5 -17 -13 -13 -4
0 -4 1 -5 -17 -12 -12 -3
0 -3 1 -5 -16 -12 -12 -2
0 0 1 -5 -16 -11 -11 -2
0 1 1 -5 -16 -11 -11 0
1 3 1 -5 -15 -10 -10 1
2 5 1 -5 -14 -9 -9 1
3 6 1 -5 -14 -9 -8 1
3 8 1 -5 -13 -8 -8 1
4 10 1 -5 -13 -8 -7 1
5 11 -2 -4 -12 -7 -6 2
5 11 -3 -5 -13 -8 -6 3
6 11 -4 -6 -13 -8 -6 3
6 11 -6 -6 -14 -9 -6 4
6 11 -7 -7 -14 -9 -6 4
7 12 -8 -8 -15 -10 -5 5
7 11 -8 -8 -15 -10 -5 5
8 11 -8 -7 -14 -9 -5 5
8 10 -8 -7 -14 -9 -5 5
8 10 -8 -7 -14 -9 -5 5
9 8 -8 -6 -13 -8 -4 6
9 7 -8 -6 -13 -9 -4 6
9 6 -8 -6 -14 -10 -4 6
9 4 -8 -6 -14 -10 -4 6
9 3 -8 -6 -14 -11 -4 6
9 0 -9 -7 -15 -13 -6 5
7 -3 -9 -7 -16 -14 -7 3
5 -6 -9 -8 -17 -15 -9 1
3 -9 -9 -8 -17 -17 -10 -2
1 -12 -9 -8 -18 -18 -12 -4
0 -14 -9 -10 -20 -19 -13 -5
0 -15 -10 -12 -22 -21 -15 -6
0 -17 -11 -14 -24 -22 -16 -7
0 -18 -11 -16 -26 -24 -18 -7
0 -20 -12 -18 -28 -25 -19 -8
0 -21 -13 -19 -29 -26 -20 -9
0 -23 -14 -20 -30 -27 -20 -10
0 -24 -15 -20 -30 -28 -21 -11
0 -25 -15 -21 -31 -29 -21 -12
0 -26 -16 -21 -31 -30 -21 -13
-2 -27 -17 -22 -32 -31 -22 -14
-2 -27 -17 -22 -32 -31 -22 -14
-2 -27 -17 -23 -32 -31 -22 -14
-2 -27 -17 -23 -32 -31 -22 -14
-2 -27 -17 -23 -32 -31 -22 -14
-2 -28 -18 -24 -33 -31 -23 -13
-3 -28 -18 -24 -33 -32 -23 -14
-3 -28 -18 -24 -34 -33 -24 -14
-4 -28 -18 -24 -34 -33 -24 -15
-4 -28 -18 -24 -34 -34 -24 -15
-5 -29 -19 -25 -35 -35 -25 -16
-5 -29 -19 -25 -35 -35 -25 -16
-5 -30 -19 -25 -34 -35 -25 -16
-5 -30 -19 -25 -34 -35 -25 -16
-5 -30 -19 -25 -34 -35 -25 -16
-5 -31 -19 -25 -33 -34 -25 -16
-5 -31 -19 -25 -33 -34 -25 -16
-5 -31 -19 -25 -34 -34 -25 -16
-5 -31 -19 -25 -34 -34 -25 -16
-5 -31 -19 -25 -34 -34 -25 -16
-5 -32 -19 -26 -35 -35 -26 -16
-5 -34 -19 -25 -34 -35 -26 -16
-4 -35 -19 -24 -33 -35 -26 -17
-4 -36 -19 -23 -32 -35 -26 -17
-4 -37 -19 -22 -31 -35 -26 -17
-2 -41 -15 -11 -25 -33 -26 -19
1 -46 -8 5 -16 -30 -27 -22
2 -51 0 20 -8 -27 -28 -25
4 -55 8 35 1 -24 -28 -28
6 -60 15 51 10 -21 -29 -31
10 -55 22 67 26 -8 -23 -27
14 -45 28 84 47 10 -11 -20
19 -33 35 101 67 28 2 -12
23 -23 42 118 88 46 13 -5
28 -12 48 135 108 63 25 4
30 9 52 141 129 89 46 19
30 33 55 140 148 117 70 37
29 58 58 139 168 146 95 56
29 82 61 139 188 176 119 74
29 107 64 138 207 204 145 94
21 130 64 123 218 222 158 106
9 151 62 102 223 232 168 116
-3 173 60 80 228 243 176 127
-14 194 58 59 233 254 185 137
-26 216 56 37 238 265 194 147
-36 203 38 2 190 220 169 135
-48 173 14 -43 114 145 123 109
-58 142 -10 -87 39 71 79 85
-69 111 -34 -131 -36 -4 35 59
-79 80 -59 -175 -112 -77 -9 34
-82 45 -75 -193 -154 -121 -41 11
-81 8 -87 -197 -180 -149 -68 -12
-79 -29 -98 -202 -205 -177 -95 -35
-78 -66 -109 -207 -230 -204 -121 -58
-76 -103 -120 -213 -256 -232 -148 -80
-71 -118 -126 -212 -259 -235 -154 -89
-64 -121 -127 -206 -249 -225 -150 -89
-57 -126 -129 -201 -240 -214 -145 -89
-50 -129 -131 -196 -231 -202 -140 -89
-43 -132 -133 -191 -222 -191 -135 -89
-36 -131 -126 -175 -204 -177 -126 -86
-30 -124 -111 -152 -183 -160 -115 -79
-25 -118 -98 -131 -161 -143 -104 -73
-19 -112 -85 -108 -140 -127 -93 -66
-13 -106 -70 -86 -118 -110 -81 -60
-11 -100 -61 -73 -105 -100 -74 -55
-10 -95 -55 -67 -97 -93 -70 -52
-8 -90 -48 -61 -88 -86 -65 -48
-7 -85 -40 -55 -79 -78 -60 -45
-6 -79 -34 -49 -70 -71 -55 -41
-5 -73 -29 -43 -63 -65 -51 -37
-5 -67 -26 -37 -56 -59 -46 -34
-4 -60 -23 -31 -50 -53 -41 -31
-3 -53 -19 -26 -43 -47 -36 -27
-3 -47 -16 -20 -35 -40 -32 -24
-2 -41 -14 -18 -31 -36 -29 -21
-2 -38 -13 -17 -28 -33 -27 -20
0 -35 -12 -16 -26 -31 -24 -18
1 -32 -11 -15 -23 -28 -22 -16
1 -29 -10 -14 -20 -25 -19 -14
2 -27 -9 -13 -19 -23 -18 -13
2 -27 -9 -11 -18 -22 -17 -12
2 -26 -8 -10 -16 -20 -16 -11
2 -25 -7 -8 -15 -19 -15 -11
2 -25 -7 -7 -14 -17 -14 -10
3 -24 -6 -6 -13 -16 -13 -9
3 -22 -6 -6 -13 -15 -12 -8
3 -21 -6 -6 -12 -14 -11 -7
3 -19 -6 -6 -11 -13 -10 -7
3 -18 -6 -6 -11 -12 -9 -6
4 -17 -5 -5 -10 -11 -8 -5
4 -17 -5 -4 -9 -10 -8 -5
4 -16 -5 -3 -8 -9 -8 -5
4 -16 -5 -3 -7 -8 -8 -5
4 -16 -5 -2 -6 -7 -8 -5
4 -15 -4 0 -5 -6 -7 -4
4 -14 -4 0 -4 -5 -6 -3
4 -13 -3 1 -2 -3 -4 -2
4 -12 -3 2 0 -2 -3 -2
4 -11 -3 2 1 0 -2 0
4 -10 -2 3 2 1 0 1
4 -10 -2 4 3 2 0 1
5 -10 -2 5 4 3 0 2
5 -10 -2 6 5 4 0 2
5 -10 -2 7 6 5 0 2
6 -9 -2 8 7 7 1 3
6 -8 -2 8 9 8 3 4
7 -6 0 9 10 10 5 5
7 -5 0 10 12 12 6 5
7 -4 0 10 13 14 8 6
8 -3 1 12 15 16 9 7
8 -2 1 13 17 17 10 7
8 0 2 15 19 19 12 8
8 0 3 17 21 21 13 9
8 1 3 19 23 23 14 9
8 2 4 21 25 25 16 10
9 4 5 22 27 27 17 11
10 6 6 24 30 29 19 13
10 7 6 26 32 31 21 14
11 9 7 28 35 34 23 15
12 11 8 30 37 36 25 16
12 12 9 33 40 39 26 17
12 14 10 36 44 42 28 19
12 16 10 39 47 45 30 20
12 18 11 42 50 47 32 21
13 20 12 45 54 51 34 23
14 24 13 48 57 54 38 25
16 27 15 51 61 58 42 28
17 30 16 54 64 61 45 30
18 33 17 57 68 65 48 33
19 36 18 61 71 68 51 35
20 39 19 64 75 72 53 36
21 42 20 68 78 75 55 38
21 45 20 71 81 78 57 40
22 47 21 75 85 81 60 43
23 50 22 78 88 85 62 44
23 53 23 80 90 87 64 46
24 56 24 82 92 89 66 48
24 59 24 85 94 91 68 49
24 62 25 87 97 94 71 51
25 64 26 88 98 95 72 52
25 64 27 89 98 95 72 52
25 65 28 91 98 95 73 53
25 66 28 92 98 95 74 53
25 66 29 93 98 95 74 53
24 67 30 94 99 96 75 54
24 68 30 94 98 95 75 54
24 69 30 93 97 94 75 54
24 69 30 92 96 93 75 54
24 70 30 92 95 92 75 54
24 71 31 91 93 90 73 55
24 70 31 90 90 87 71 54
23 68 30 89 87 85 69 53
22 67 30 88 84 81 67 53
22 66 30 87 81 79 64 52
21 65 29 85 78 76 62 51
21 63 29 82 75 72 60 49
20 61 29 80 73 69 58 47
19 60 29 78 70 65 56 46
19 58 29 75 68 62 54 44
18 56 30 73 65 58 52 42
17 53 30 71 61 55 49 39
16 50 29 68 58 51 46 36
15 47 29 66 54 48 43 34
14 45 29 64 51 44 39 32
13 42 28 61 48 40 36 29
13 38 27 57 45 37 33 27
12 35 25 54 42 34 30 25
11 33 24 50 38 32 28 23
11 30 23 47 35 29 25 21
10 27 22 44 32 26 22 19
9 24 21 40 29 23 19 17
7 21 20 37 26 20 17 15
6 18 19 35 24 18 14 13
5 15 18 32 21 15 12 10
4 12 17 29 18 12 9 9
4 10 15 25 15 10 8 8
4 8 14 22 13 8 6 7
4 6 13 19 10 6 4 6
4 4 11 16 8 3 2 5
3 3 10 13 5 2 1 4
2 1 9 12 3 0 -2 2
1 -2 7 10 1 -2 -4 1
1 -3 6 8 -2 -3 -5 0
0 -5 5 6 -4 -5 -7 -3
-2 -6 4 4 -5 -6 -8 -4
-2 -7 3 2 -6 -7 -8 -4
-2 -8 2 0 -7 -9 -9 -4
-2 -8 2 -3 -7 -10 -9 -4
-2 -9 1 -5 -8 -11 -9 -4
-2 -10 0 -6 -9 -12 -10 -5
-2 -10 0 -6 -10 -12 -10 -6
-2 -11 -2 -7 -11 -13 -11 -7
-2 -12 -2 -8 -11 -13 -12 -7
-2 -12 -2 -8 -12 -13 -12 -8
-3 -13 -3 -9 -13 -14 -13 -9
-3 -13 -3 -9 -13 -14 -13 -9
-3 -13 -3 -9 -13 -14 -14 -9
-3 -13 -3 -9 -13 -14 -14 -9
-3 -13 -3 -9 -13 -14 -14 -9
-3 -14 -3 -10 -14 -15 -15 -9
-3 -14 -3 -10 -14 -15 -15 -9
-3 -14 -3 -9 -14 -16 -15 -9
-3 -14 -3 -8 -14 -16 -15 -9
-3 -14 -3 -8 -14 -16 -15 -9
-2 -14 -2 -7 -15 -17 -15 -9
-2 -14 -2 -7 -15 -17 -15 -9
-2 -14 -2 -7 -15 -16 -15 -9
-2 -14 -2 -7 -15 -16 -15 -9
-2 -14 -2 -7 -15 -16 -15 -9
-2 -13 -2 -8 -14 -15 -16 -10
-2 -13 -2 -7 -14 -15 -16 -10
-2 -13 -2 -6 -13 -14 -16 -10
-2 -13 -2 -5 -13 -14 -16 -10
-2 -13 -2 -4 -13 -14 -16 -10
0 -14 0 -3 -12 -13 -15 -9
0 -14 0 -3 -12 -13 -15 -9
0 -13 0 -3 -11 -13 -14 -9
0 -12 0 -3 -11 -13 -14 -9
0 -12 0 -3 -11 -13 -14 -9
0 -11 0 -3 -10 -12 -13 -8
0 -11 0 -3 -10 -12 -13 -8
-2 -12 0 -3 -10 -12 -13 -8
-2 -13 0 -3 -10 -12 -13 -8
-2 -13 0 -3 -10 -12 -13 -8
-3 -14 -2 -2 -11 -13 -13 -8
-3 -14 -2 -2 -11 -13 -13 -8
-3 -13 -2 -3 -11 -13 -13 -8
-3 -12 -2 -3 -11 -13 -13 -8
-3 -12 -2 -3 -11 -13 -13 -8
-3 -11 -2 -4 -11 -12 -12 -7
-3 -11 -2 -4 -11 -12 -12 -7
-3 -11 -2 -4 -11 -12 -12 -7
-3 -11 -2 -4 -11 -12 -12 -7
-3 -11 -2 -4 -11 -12 -12 -7
-2 -11 -3 -3 -12 -12 -11 -8
-2 -11 -3 -3 -12 -12 -11 -8
-2 -11 -3 -4 -12 -12 -11 -7
-2 -11 -3 -5 -12 -12 -11 -7
-2 -11 -3 -5 -12 -12 -11 -7
0 -11 -3 -6 -13 -12 -12 -6
0 -11 -3 -6 -13 -12 -12 -6
0 -11 -3 -6 -14 -12 -12 -7
0 -11 -3 -6 -14 -12 -12 -7
0 -11 -3 -6 -14 -12 -12 -7
-2 -12 -3 -6 -15 -13 -12 -8
-2 -12 -3 -7 -15 -13 -12 -8
-2 -12 -3 -8 -15 -13 -12 -8
-2 -12 -3 -8 -15 -13 -12 -8
-2 -12 -3 -9 -15 -13 -12 -8
-2 -12 -3 -10 -16 -13 -12 -8
-2 -12 -3 -10 -16 -13 -12 -8
-2 -13 -4 -10 -17 -14 -13 -8
-2 -13 -5 -10 -18 -15 -14 -8
-2 -13 -5 -10 -18 -15 -14 -8
0 -14 -6 -10 -19 -16 -15 -8
0 -14 -6 -10 -19 -16 -15 -8
0 -14 -6 -11 -19 -16 -15 -8
0 -14 -6 -12 -19 -16 -15 -8
0 -14 -6 -12 -19 -16 -15 -8
0 -13 -7 -13 -20 -17 -15 -9
0 -13 -7 -13 -20 -17 -15 -9
0 -13 -7 -13 -20 -17 -15 -9
0 -14 -7 -13 -21 -18 -15 -10
0 -14 -7 -13 -21 -18 -15 -10
0 -15 -7 -14 -22 -19 -16 -11
0 -15 -7 -14 -22 -20 -16 -11
0 -15 -7 -14 -22 -20 -16 -11
0 -16 -7 -14 -22 -21 -16 -11
0 -16 -7 -14 -22 -22 -16 -11
-2 -17 -7 -14 -22 -23 -16 -10
-2 -17 -7 -14 -22 -23 -16 -10
-2 -17 -7 -14 -22 -24 -16 -10
-2 -18 -8 -14 -22 -25 -16 -11
-2 -18 -8 -14 -22 -25 -16 -11
-2 -19 -9 -15 -23 -26 -17 -12
-2 -19 -9 -15 -23 -26 -17 -12
-2 -19 -9 -15 -23 -26 -17 -12
-2 -18 -9 -16 -23 -26 -17 -11
-2 -18 -9 -16 -23 -26 -17 -11
-2 -17 -8 -17 -24 -26 -17 -10
-2 -17 -8 -17 -24 -26 -17 -10
-2 -18 -8 -17 -24 -27 -17 -11
-2 -19 -9 -17 -24 -28 -17 -12
-2 -19 -9 -17 -24 -28 -17 -12
-3 -20 -10 -17 -25 -29 -18 -13
-3 -20 -10 -17 -25 -29 -18 -13
-3 -20 -10 -17 -25 -29 -18 -13
-3 -20 -10 -17 -25 -28 -18 -13
-3 -20 -10 -17 -25 -28 -18 -13
-2 -20 -9 -18 -25 -27 -17 -12
-2 -20 -9 -18 -25 -27 -17 -12
-2 -20 -9 -18 -25 -27 -17 -12
-2 -20 -9 -18 -25 -28 -17 -13
-2 -20 -9 -18 -25 -28 -17 -13
-2 -21 -10 -18 -26 -29 -18 -14
-2 -21 -10 -18 -26 -29 -18 -14
-2 -21 -10 -18 -26 -29 -18 -14
-2 -21 -10 -18 -25 -29 -18 -13
-2 -21 -10 -18 -25 -29 -18 -13
-2 -21 -9 -18 -24 -28 -18 -12
-2 -21 -9 -18 -24 -28 -18 -12
-2 -21 -9 -18 -24 -28 -18 -12
-2 -21 -9 -18 -24 -28 -18 -12
-2 -21 -9 -18 -24 -28 -18 -12
-3 -22 -10 -17 -24 -27 -19 -12
-3 -20 -9 -17 -23 -26 -18 -12
-3 -18 -8 -17 -23 -25 -18 -11
-3 -16 -6 -16 -22 -24 -17 -10
-3 -14 -5 -16 -21 -23 -16 -10
-3 -12 -4 -15 -20 -22 -15 -9
-3 -11 -3 -13 -19 -21 -15 -9
-3 -10 -3 -12 -18 -21 -14 -9
-2 -9 -2 -10 -16 -20 -13 -8
-2 -8 0 -8 -15 -19 -13 -8
0 -7 1 -7 -14 -18 -12 -7
0 -7 1 -7 -14 -18 -12 -7
0 -6 2 -7 -14 -18 -12 -7
0 -5 3 -7 -14 -17 -11 -7
0 -5 3 -7 -14 -17 -11 -7
-2 -4 4 -6 -13 -16 -10 -6
-2 -2 4 -6 -13 -15 -9 -6
-2 1 4 -6 -12 -15 -9 -5
0 3 4 -6 -11 -14 -8 -4
0 5 4 -6 -11 -13 -7 -4
1 7 4 -5 -10 -12 -6 -3
2 8 2 -6 -10 -12 -6 -2
3 9 1 -6 -10 -12 -6 0
4 11 0 -7 -10 -11 -5 1
5 12 -3 -8 -10 -11 -5 2
6 13 -4 -9 -9 -10 -4 3
6 13 -4 -9 -9 -10 -4 3
7 13 -4 -9 -9 -10 -4 3
8 13 -4 -9 -10 -10 -4 3
8 13 -4 -9 -10 -10 -4 3
9 14 -5 -9 -11 -10 -3 3
9 12 -5 -9 -11 -10 -3 3
9 11 -5 -9 -11 -10 -3 3
9 10 -5 -9 -11 -9 -2 3
9 8 -5 -9 -11 -9 -2 3
10 7 -6 -9 -10 -8 0 3
8 5 -6 -9 -10 -9 -2 2
7 3 -6 -9 -11 -9 -3 1
6 1 -6 -10 -12 -10 -5 0
4 -2 -6 -10 -12 -11 -6 -2
3 -4 -7 -11 -13 -12 -7 -3
2 -6 -7 -11 -14 -13 -8 -4
1 -8 -7 -12 -16 -14 -10 -5
0 -10 -7 -13 -17 -16 -11 -7
-2 -11 -7 -13 -19 -17 -13 -8
-3 -13 -7 -14 -20 -18 -14 -9
-3 -15 -8 -16 -22 -20 -15 -10
-3 -17 -10 -18 -23 -22 -17 -12
-3 -19 -11 -20 -25 -24 -18 -13
-3 -20 -13 -21 -27 -25 -20 -15
-3 -22 -14 -23 -28 -27 -21 -16
-3 -22 -14 -23 -28 -27 -21 -16
-3 -22 -14 -23 -28 -27 -21 -16
-3 -23 -14 -24 -28 -27 -21 -16
-3 -23 -14 -24 -28 -27 -21 -16
-4 -24 -15 -25 -28 -27 -21 -17
-4 -24 -15 -25 -28 -27 -21 -17
-4 -25 -15 -25 -28 -27 -21 -17
-4 -26 -16 -25 -29 -27 -22 -17
-4 -26 -16 -25 -29 -27 -22 -17
-5 -27 -17 -26 -30 -28 -23 -18
-5 -27 -17 -26 -30 -28 -23 -18
-5 -27 -17 -26 -30 -28 -23 -18
-5 -27 -17 -26 -30 -28 -23 -19
-5 -27 -17 -26 -30 -28 -23 -19
-6 -28 -16 -26 -30 -29 -24 -20
-6 -28 -16 -26 -30 -29 -24 -20
-6 -28 -16 -26 -30 -29 -24 -20
-6 -28 -16 -26 -30 -29 -24 -20
-6 -28 -16 -26 -30 -29 -24 -20
-6 -29 -16 -25 -30 -28 -25 -21
-6 -29 -16 -26 -30 -28 -25 -21
-6 -29 -16 -26 -30 -28 -25 -21
-6 -29 -16 -27 -30 -28 -25 -21
-6 -29 -16 -28 -30 -28 -25 -21
-6 -30 -17 -27 -30 -29 -25 -21
-5 -33 -14 -20 -27 -28 -26 -22
-5 -37 -12 -14 -24 -28 -27 -23
-4 -40 -9 -7 -21 -27 -28 -25
-3 -44 -7 1 -18 -26 -29 -26
0 -47 -2 11 -11 -23 -30 -27
3 -46 7 28 3 -15 -27 -27
6 -45 15 46 17 -8 -25 -28
9 -44 23 63 30 1 -23 -29
12 -43 32 79 44 8 -21 -29
15 -35 38 95 62 23 -11 -25
20 -18 42 107 86 50 10 -11
24 -2 46 118 109 76 31 4
29 16 49 131 133 103 52 18
34 32 52 142 156 130 73 32
35 54 58 146 177 156 95 49
29 80 66 136 193 182 116 67
23 108 74 126 209 207 139 86
17 135 82 114 224 232 161 104
10 161 91 104 239 258 183 122
1 180 89 85 243 269 194 135
-14 185 70 53 225 255 186 132
-28 190 52 20 206 240 177 129
-44 195 32 -13 188 226 169 127
-58 200 14 -46 170 212 160 123
-68 185 -5 -78 126 170 134 109
-72 135 -22 -110 43 81 77 74
-76 85 -39 -143 -41 -6 21 39
