I II V1 V2 V3 V4 V5 V6
-6 -15 0 -6 -18 -18 -20 -14
-6 -15 0 -6 -18 -18 -20 -14
-6 -15 0 -6 -18 -18 -20 -14
-5 -15 0 -6 -18 -18 -20 -14
-5 -15 0 -6 -18 -18 -20 -14
-5 -15 0 -6 -18 -18 -20 -14
-4 -15 0 -7 -18 -17 -20 -15
-5 -15 0 -7 -18 -17 -20 -15
-6 -15 0 -6 -18 -17 -20 -15
-7 -15 0 -6 -18 -17 -20 -15
-7 -15 0 -6 -18 -17 -20 -15
-8 -15 0 -5 -17 -16 -19 -15
-8 -15 0 -5 -17 -16 -19 -15
-8 -15 0 -5 -17 -16 -19 -15
-8 -15 0 -5 -17 -16 -19 -15
-8 -15 0 -5 -17 -16 -19 -15
-8 -14 -2 -6 -17 -16 -19 -15
-7 -13 0 -5 -17 -15 -18 -14
-6 -12 1 -5 -17 -14 -17 -14
-5 -11 2 -4 -17 -13 -16 -13
-5 -11 3 -4 -17 -13 -16 -13
-4 -9 4 -3 -16 -12 -15 -12
-4 -8 5 -2 -15 -12 -15 -12
-3 -6 5 -2 -14 -11 -15 -12
-3 -5 6 0 -13 -11 -15 -12
-3 -4 6 0 -12 -11 -15 -12
-2 -3 7 1 -11 -10 -14 -11
-2 -4 7 2 -11 -10 -14 -10
-2 -4 7 2 -10 -10 -14 -10
-2 -5 7 3 -10 -10 -14 -9
-2 -5 7 3 -10 -10 -14 -9
-2 -6 6 4 -9 -10 -13 -8
0 -6 5 4 -9 -10 -13 -8
1 -6 4 4 -9 -10 -13 -9
2 -6 3 4 -9 -10 -13 -9
2 -6 3 4 -9 -10 -13 -9
3 -5 1 3 -10 -9 -12 -10
4 -4 0 2 -10 -9 -12 -9
5 -4 -3 1 -11 -9 -11 -9
6 -3 -4 0 -11 -9 -11 -8
6 -3 -5 -2 -11 -9 -11 -8
7 -2 -6 -4 -13 -9 -10 -7
7 -3 -7 -5 -14 -10 -11 -8
7 -4 -7 -7 -16 -11 -11 -8
7 -5 -8 -8 -17 -12 -12 -9
7 -5 -8 -9 -18 -13 -12 -9
6 -6 -9 -10 -19 -14 -13 -10
5 -7 -9 -10 -19 -15 -14 -10
4 -8 -9 -10 -19 -16 -15 -10
3 -9 -9 -10 -19 -17 -16 -10
3 -10 -9 -10 -19 -17 -16 -10
2 -11 -9 -11 -20 -18 -17 -11
2 -11 -9 -11 -21 -18 -17 -11
3 -11 -10 -12 -21 -18 -17 -12
3 -11 -10 -12 -22 -18 -17 -12
3 -11 -10 -12 -22 -18 -17 -12
3 -12 -11 -13 -23 -19 -17 -13
1 -12 -11 -13 -23 -19 -17 -13
-2 -13 -10 -13 -23 -19 -18 -14
-4 -13 -10 -13 -23 -19 -18 -14
-6 -13 -10 -13 -23 -19 -18 -14
-7 -14 -9 -13 -23 -20 -19 -15
-7 -14 -9 -13 -23 -21 -20 -16
-7 -14 -9 -14 -23 -21 -21 -17
-7 -14 -9 -14 -23 -22 -22 -18
-7 -14 -9 -14 -23 -22 -22 -18
-7 -15 -9 -15 -24 -23 -23 -19
-7 -15 -9 -15 -24 -23 -23 -19
-7 -15 -9 -15 -24 -23 -23 -19
-7 -15 -9 -15 -24 -23 -23 -19
-7 -15 -9 -15 -24 -23 -23 -19
-7 -15 -9 -16 -25 -22 -23 -18
-7 -15 -9 -16 -25 -22 -23 -18
-7 -15 -9 -16 -24 -22 -23 -18
-7 -15 -9 -16 -24 -22 -23 -18
-7 -15 -9 -16 -24 -22 -23 -18
-8 -15 -8 -15 -23 -21 -23 -18
-8 -15 -8 -14 -23 -21 -22 -17
-8 -14 -7 -14 -22 -20 -22 -17
-8 -14 -7 -13 -22 -20 -21 -16
-8 -14 -7 -13 -22 -20 -21 -16
-7 -13 -6 -12 -21 -19 -20 -15
-7 -13 -6 -12 -20 -18 -19 -15
-7 -13 -6 -12 -19 -17 -18 -15
-7 -13 -6 -12 -18 -16 -17 -15
-7 -13 -6 -12 -18 -16 -17 -15
-6 -13 -6 -8 -17 -15 -17 -16
-3 -15 -6 -5 -17 -16 -19 -18
0 -17 -6 -2 -16 -17 -20 -20
3 -19 -6 3 -16 -18 -22 -22
5 -20 -6 6 -16 -18 -23 -24
9 -21 0 19 -7 -13 -21 -25
12 -21 5 33 4 -6 -18 -25
16 -22 10 48 13 1 -15 -25
20 -22 15 62 22 8 -11 -25
23 -22 20 76 32 15 -8 -25
29 -14 26 91 53 42 15 -14
35 -4 31 105 75 69 39 1
43 8 37 118 97 97 64 15
49 18 43 133 118 125 89 29
55 29 49 146 141 152 113 44
51 50 50 133 154 177 141 67
45 72 51 114 167 201 169 91
38 95 51 97 179 226 196 114
32 116 52 78 191 251 224 138
26 139 52 61 203 275 252 161
8 141 37 13 158 225 219 158
-12 141 19 -37 107 168 180 152
-31 142 2 -88 55 110 140 147
-51 142 -17 -139 4 53 100 141
-70 142 -34 -189 -49 -5 61 135
-68 122 -48 -199 -72 -29 36 111
-64 100 -60 -205 -92 -51 14 87
-59 77 -72 -212 -112 -73 -10 62
-55 56 -85 -218 -133 -95 -32 36
-50 33 -97 -224 -153 -117 -55 12
-45 26 -92 -203 -142 -109 -55 6
-39 21 -83 -180 -127 -97 -50 3
-35 17 -75 -156 -110 -85 -46 -2
-30 12 -67 -132 -95 -72 -41 -6
-25 7 -59 -108 -79 -60 -37 -9
-22 5 -51 -92 -69 -52 -33 -10
-19 4 -44 -76 -59 -46 -30 -10
-16 2 -35 -60 -49 -38 -27 -10
-14 1 -27 -45 -38 -31 -23 -10
-11 0 -19 -29 -28 -24 -20 -10
-10 -2 -17 -25 -26 -22 -19 -10
-10 -3 -16 -21 -24 -21 -18 -10
-9 -4 -14 -18 -22 -20 -18 -10
-9 -5 -13 -15 -20 -19 -17 -10
-9 -6 -12 -12 -19 -18 -17 -10
-8 -7 -11 -10 -18 -17 -16 -11
-7 -7 -11 -9 -18 -17 -16 -11
-7 -7 -11 -7 -17 -16 -16 -11
-6 -7 -11 -6 -17 -16 -16 -11
-6 -7 -11 -5 -17 -16 -16 -11
-5 -7 -10 -4 -16 -15 -16 -12
-5 -7 -9 -4 -15 -14 -15 -12
-5 -7 -8 -4 -14 -14 -15 -12
-5 -7 -7 -4 -13 -13 -14 -12
-5 -7 -6 -4 -13 -13 -14 -12
-5 -8 -5 -4 -12 -12 -13 -13
-5 -8 -6 -4 -12 -12 -13 -13
-5 -8 -6 -3 -12 -12 -13 -13
-5 -8 -7 -3 -12 -12 -13 -13
-5 -8 -7 -3 -12 -12 -13 -13
-4 -7 -8 -2 -12 -13 -14 -14
-4 -7 -8 -2 -11 -12 -13 -13
-3 -7 -8 -2 -11 -11 -12 -13
-3 -7 -8 -2 -10 -10 -11 -12
-3 -7 -8 -2 -10 -9 -11 -12
-2 -7 -7 0 -9 -8 -10 -11
-2 -7 -7 0 -9 -8 -10 -11
-2 -7 -8 0 -9 -8 -10 -11
-2 -7 -8 0 -9 -8 -10 -11
-2 -7 -8 0 -9 -8 -10 -11
0 -7 -9 0 -10 -8 -9 -11
0 -7 -8 1 -9 -7 -9 -10
0 -6 -8 1 -8 -6 -8 -9
0 -6 -7 2 -7 -5 -8 -8
0 -6 -7 2 -6 -5 -8 -8
-2 -5 -6 3 -5 -4 -7 -7
0 -5 -6 3 -5 -4 -7 -7
1 -5 -7 4 -5 -4 -7 -8
2 -5 -7 4 -5 -4 -7 -8
3 -5 -7 4 -5 -4 -7 -8
4 -6 -8 5 -6 -4 -7 -9
4 -6 -8 5 -5 -3 -6 -8
3 -7 -7 5 -5 -3 -5 -7
3 -7 -7 5 -4 -2 -4 -6
3 -7 -7 5 -4 -2 -4 -6
2 -8 -6 5 -3 0 -3 -5
2 -7 -7 6 -3 0 -3 -5
3 -7 -7 7 -2 0 -3 -5
3 -6 -8 8 -2 0 -3 -5
3 -6 -8 8 -2 0 -3 -5
4 -5 -9 9 0 2 -2 -5
5 -5 -9 9 1 3 -2 -4
5 -5 -9 9 2 5 0 -4
6 -5 -9 9 3 6 0 -3
6 -5 -9 9 3 7 0 -3
7 -5 -9 9 4 8 2 -2
7 -4 -9 10 4 8 3 0
8 -3 -9 11 5 9 4 0
8 -2 -9 12 5 9 5 1
8 -2 -9 12 5 9 6 1
9 0 -10 13 6 11 8 2
9 0 -10 13 7 12 9 3
9 0 -10 13 7 13 10 4
9 0 -10 13 8 15 11 5
9 0 -10 13 8 16 12 5
10 2 -10 14 10 18 14 6
10 3 -11 15 11 19 15 7
10 4 -12 16 12 20 16 7
10 5 -13 17 14 21 17 8
10 6 -13 18 15 22 18 8
12 8 -14 19 17 24 20 10
13 9 -14 20 18 25 22 11
15 10 -14 20 19 27 24 13
17 12 -14 21 20 29 26 15
18 13 -14 21 21 30 28 16
20 15 -13 22 22 32 30 18
21 16 -14 23 23 33 32 19
22 18 -14 23 24 34 34 20
23 20 -15 24 25 36 35 22
24 21 -15 24 26 37 37 23
25 22 -16 25 28 39 39 25
25 23 -16 26 29 42 42 27
25 23 -16 27 31 44 44 29
25 24 -16 28 33 46 46 30
25 24 -16 28 34 48 48 32
24 26 -15 29 35 50 49 33
24 28 -15 29 35 51 50 34
25 30 -16 30 36 52 51 35
25 31 -16 30 36 54 52 36
25 33 -16 30 36 55 53 37
26 34 -17 31 37 56 55 39
26 35 -17 31 38 58 57 40
26 36 -17 31 39 59 59 43
26 37 -17 31 40 60 60 45
26 38 -17 31 42 61 62 46
27 39 -17 30 43 62 63 47
27 39 -17 30 44 62 64 48
27 40 -17 30 44 63 65 49
27 40 -17 30 45 63 66 50
27 40 -17 30 45 63 66 50
28 42 -16 30 46 64 67 51
28 43 -16 30 46 65 68 52
28 44 -15 30 47 66 69 53
28 45 -15 30 47 67 70 54
28 45 -15 30 47 68 71 55
29 46 -14 30 48 69 72 56
28 46 -13 30 48 69 72 56
27 47 -13 31 48 69 72 56
26 47 -12 31 48 69 72 56
25 47 -12 31 48 69 72 56
24 48 -11 32 49 70 73 55
24 48 -10 32 49 69 72 55
24 48 -10 32 49 69 71 54
24 48 -9 32 49 68 70 54
24 48 -9 32 49 68 69 54
23 47 -8 33 49 66 67 52
22 45 -7 33 48 65 65 51
21 44 -6 33 47 64 63 49
20 43 -5 33 46 62 62 47
20 42 -5 33 45 61 60 46
19 39 -4 32 44 59 58 44
18 37 -3 32 43 57 55 40
18 35 -2 32 43 55 53 38
17 34 0 32 42 53 50 35
17 32 0 32 42 51 48 33
16 30 1 32 39 49 45 31
15 28 2 32 37 46 40 28
14 26 3 32 35 44 37 26
13 24 4 32 34 40 34 23
12 22 5 32 32 38 30 21
11 20 6 31 30 36 28 19
10 18 6 30 29 33 26 17
10 16 6 29 27 31 24 15
9 15 6 28 25 28 22 14
9 13 6 28 24 26 20 12
8 12 6 27 22 24 18 10
6 10 6 25 20 22 16 9
5 9 6 24 18 19 14 7
4 8 6 23 17 17 12 5
3 7 6 22 15 15 10 4
2 6 7 21 14 13 8 3
2 5 7 19 13 12 7 1
2 4 6 18 12 10 5 0
2 3 6 17 11 8 3 -2
2 2 6 16 11 7 2 -3
3 1 5 15 10 6 1 -4
2 0 5 15 8 5 0 -4
1 0 5 14 7 5 -2 -5
0 -2 5 14 6 4 -3 -5
0 -2 5 14 5 4 -4 -5
-2 -3 5 13 4 3 -5 -6
-2 -4 5 12 3 3 -5 -6
-2 -4 5 11 3 2 -5 -7
-2 -5 5 10 2 2 -5 -7
-2 -5 5 9 2 2 -5 -7
-2 -6 4 8 1 1 -6 -8
-2 -6 4 8 0 0 -6 -8
-3 -6 4 8 0 -2 -6 -8
-3 -6 4 8 -2 -3 -6 -8
-3 -6 4 8 -2 -3 -6 -8
-4 -5 3 7 -3 -4 -6 -7
-4 -5 3 7 -3 -4 -6 -7
-4 -5 4 6 -3 -4 -7 -7
-4 -5 4 6 -3 -4 -7 -7
-4 -5 4 6 -3 -4 -7 -7
-4 -4 5 5 -3 -4 -8 -8
-4 -4 5 5 -3 -5 -8 -8
-5 -4 4 4 -4 -6 -8 -8
-5 -4 4 4 -4 -7 -8 -8
-5 -4 4 4 -4 -7 -8 -8
-6 -5 3 3 -5 -8 -8 -9
-6 -5 3 3 -5 -8 -8 -9
-6 -5 3 3 -5 -8 -8 -9
-6 -5 3 3 -5 -8 -8 -9
-6 -5 3 3 -5 -8 -8 -9
-6 -4 3 2 -4 -8 -9 -8
-6 -4 3 2 -4 -8 -9 -8
-6 -4 3 2 -4 -8 -10 -9
-6 -4 3 2 -4 -8 -10 -9
-6 -4 3 2 -4 -8 -10 -9
-6 -3 3 3 -5 -9 -11 -10
-6 -4 3 3 -5 -9 -11 -10
-6 -4 3 2 -6 -9 -11 -11
-6 -5 3 2 -6 -9 -11 -11
-6 -5 3 2 -6 -9 -11 -11
-7 -6 2 1 -7 -9 -12 -12
-7 -6 2 1 -7 -9 -12 -12
-7 -6 2 2 -7 -9 -12 -12
-7 -6 2 2 -7 -9 -12 -12
-7 -6 2 2 -7 -9 -12 -12
-7 -5 1 3 -8 -9 -11 -11
-7 -5 1 3 -8 -9 -11 -11
-7 -5 1 3 -8 -9 -11 -11
-7 -5 1 3 -8 -9 -11 -11
-7 -5 1 3 -8 -9 -11 -11
-6 -5 1 2 -7 -10 -12 -11
-6 -5 1 2 -7 -10 -12 -11
-6 -5 1 2 -8 -10 -12 -11
-6 -5 1 2 -8 -10 -12 -11
-6 -5 1 2 -8 -10 -12 -11
-7 -5 2 2 -9 -10 -11 -10
-7 -5 2 2 -9 -10 -11 -10
-7 -5 2 2 -9 -10 -11 -9
-7 -5 2 2 -9 -10 -11 -9
-7 -5 2 2 -9 -10 -11 -9
-7 -4 3 2 -8 -10 -10 -8
-7 -4 2 2 -8 -10 -10 -8
-7 -5 2 2 -8 -11 -10 -9
-7 -5 1 2 -8 -11 -10 -9
-7 -5 1 2 -8 -11 -10 -9
-6 -6 0 1 -9 -12 -11 -10
-6 -6 0 1 -9 -12 -11 -10
-6 -7 0 1 -9 -12 -11 -10
-6 -7 0 1 -9 -12 -11 -10
-6 -7 0 1 -9 -12 -11 -10
-7 -8 0 1 -10 -13 -12 -11
-7 -7 0 1 -10 -13 -12 -11
-7 -7 0 1 -10 -13 -13 -11
-7 -6 0 1 -10 -13 -13 -11
-7 -6 0 1 -10 -13 -13 -11
-7 -5 0 1 -10 -12 -14 -11
-7 -5 0 1 -10 -12 -14 -11
-7 -6 0 1 -10 -12 -14 -11
-7 -6 0 1 -10 -12 -14 -11
-7 -6 0 1 -10 -12 -14 -11
-6 -7 1 1 -11 -13 -14 -12
-6 -7 1 1 -11 -13 -14 -12
-6 -7 1 1 -11 -13 -14 -12
-6 -7 1 1 -11 -13 -14 -12
-6 -7 1 1 -11 -13 -14 -12
-5 -6 0 0 -12 -14 -15 -12
-5 -6 0 0 -12 -15 -15 -12
-5 -6 0 -2 -12 -15 -15 -12
-5 -6 0 -2 -12 -16 -15 -12
-5 -6 0 -2 -12 -16 -15 -12
-4 -7 0 -3 -13 -17 -16 -13
-4 -7 0 -3 -13 -17 -16 -14
-4 -7 -2 -3 -13 -17 -17 -14
-4 -7 -2 -3 -13 -17 -17 -15
-4 -7 -2 -3 -13 -17 -17 -15
-4 -7 -3 -4 -14 -18 -18 -16
-4 -8 -3 -4 -14 -18 -18 -16
-5 -8 -3 -4 -14 -18 -18 -16
-5 -9 -3 -4 -14 -18 -18 -16
-5 -9 -3 -4 -14 -18 -18 -16
-6 -10 -2 -5 -15 -19 -19 -16
-6 -10 -2 -5 -15 -19 -19 -16
-6 -9 -2 -5 -16 -19 -19 -16
-6 -9 -2 -5 -16 -19 -19 -16
-6 -9 -2 -5 -16 -19 -19 -16
-6 -8 -3 -6 -17 -20 -20 -15
-6 -8 -3 -6 -17 -20 -20 -15
-6 -8 -3 -6 -17 -20 -20 -15
-6 -8 -3 -6 -17 -20 -20 -15
-6 -8 -3 -6 -17 -20 -20 -15
-6 -7 -4 -7 -16 -20 -20 -15
-6 -7 -4 -7 -16 -20 -20 -15
-6 -7 -4 -7 -16 -20 -20 -15
-6 -7 -4 -7 -16 -20 -20 -15
-6 -7 -4 -7 -16 -20 -20 -15
-5 -8 -3 -6 -17 -20 -19 -15
-5 -9 -3 -6 -17 -20 -19 -15
-5 -9 -3 -7 -17 -20 -19 -15
-5 -10 -3 -7 -17 -20 -19 -15
-5 -10 -3 -7 -17 -20 -19 -15
-6 -11 -4 -8 -17 -21 -20 -16
-6 -11 -4 -8 -17 -21 -20 -16
-6 -11 -4 -8 -17 -21 -20 -16
-6 -11 -4 -8 -17 -21 -20 -16
-6 -11 -4 -8 -17 -21 -20 -16
-7 -10 -5 -7 -18 -21 -20 -16
-7 -10 -5 -7 -18 -21 -20 -16
-6 -10 -5 -8 -18 -21 -20 -16
-6 -10 -5 -8 -18 -21 -20 -16
-6 -10 -5 -8 -18 -21 -20 -16
-5 -10 -4 -9 -19 -21 -20 -16
-5 -10 -4 -9 -19 -21 -20 -16
-4 -10 -4 -9 -19 -21 -20 -16
-4 -10 -4 -9 -19 -21 -20 -16
-4 -10 -4 -9 -19 -21 -20 -16
-3 -9 -5 -8 -18 -21 -20 -16
-4 -10 -5 -8 -18 -21 -20 -16
-4 -10 -5 -8 -18 -21 -20 -16
-5 -11 -5 -8 -18 -21 -20 -16
-5 -11 -5 -8 -18 -21 -20 -16
-6 -12 -5 -9 -18 -20 -21 -16
-6 -11 -5 -9 -18 -20 -21 -16
-6 -11 -5 -8 -18 -20 -21 -16
-6 -10 -5 -8 -18 -20 -21 -16
-6 -10 -5 -8 -18 -20 -21 -16
-5 -9 -5 -7 -18 -21 -20 -15
-5 -9 -5 -7 -18 -21 -20 -15
-5 -9 -5 -7 -18 -21 -20 -15
-5 -9 -5 -7 -18 -21 -20 -15
-5 -9 -5 -7 -18 -21 -20 -15
-4 -10 -6 -8 -18 -22 -20 -16
-4 -10 -6 -8 -18 -22 -20 -16
-5 -10 -6 -8 -18 -22 -20 -16
-5 -10 -6 -8 -18 -22 -20 -16
-5 -10 -6 -8 -18 -22 -20 -16
-6 -11 -5 -8 -18 -22 -20 -17
-6 -11 -5 -8 -18 -21 -20 -17
-6 -11 -5 -8 -18 -20 -20 -17
-6 -11 -5 -8 -18 -20 -20 -17
-6 -11 -5 -8 -18 -19 -20 -17
-6 -12 -6 -8 -18 -18 -19 -16
-6 -12 -6 -8 -18 -18 -19 -16
-6 -11 -6 -8 -18 -19 -19 -16
-6 -10 -6 -8 -18 -20 -19 -16
-6 -10 -6 -8 -18 -20 -19 -16
-6 -9 -5 -7 -17 -21 -19 -15
-6 -9 -5 -7 -17 -21 -19 -15
-6 -9 -5 -7 -17 -21 -19 -15
-6 -9 -5 -7 -17 -21 -19 -15
-6 -9 -5 -7 -17 -21 -19 -15
-6 -10 -6 -8 -17 -20 -19 -15
-6 -10 -6 -8 -17 -20 -19 -15
-6 -10 -5 -7 -17 -19 -19 -15
-6 -10 -5 -7 -17 -19 -19 -15
-6 -10 -5 -7 -17 -19 -19 -15
-5 -10 -4 -6 -17 -18 -18 -14
-5 -10 -4 -6 -17 -19 -19 -14
-5 -10 -4 -7 -17 -20 -20 -15
-5 -10 -4 -7 -17 -20 -20 -15
-5 -10 -4 -7 -17 -21 -21 -15
-6 -11 -5 -8 -18 -22 -22 -16
-6 -11 -5 -8 -18 -22 -22 -16
-6 -11 -5 -8 -18 -22 -21 -16
-6 -11 -5 -8 -18 -22 -21 -16
-6 -11 -5 -8 -18 -22 -21 -16
-5 -11 -5 -7 -17 -21 -20 -16
-5 -11 -5 -7 -17 -21 -20 -16
-5 -11 -5 -7 -17 -21 -20 -16
-5 -11 -5 -7 -17 -21 -20 -16
-5 -11 -5 -7 -17 -21 -20 -16
-4 -12 -5 -7 -17 -20 -19 -15
-4 -12 -5 -7 -17 -20 -19 -15
-4 -12 -5 -7 -17 -20 -19 -15
-4 -12 -5 -7 -17 -20 -19 -15
-4 -12 -5 -7 -17 -20 -19 -15
-5 -13 -4 -7 -17 -19 -18 -14
-5 -13 -4 -7 -17 -19 -18 -14
-5 -14 -4 -7 -17 -19 -18 -14
-5 -14 -4 -7 -17 -19 -18 -14
-5 -14 -4 -7 -17 -19 -18 -14
-5 -15 -4 -7 -17 -19 -18 -14
-5 -15 -4 -7 -17 -19 -18 -14
-5 -14 -4 -7 -17 -19 -18 -14
-5 -14 -4 -7 -17 -19 -18 -14
-5 -14 -4 -7 -17 -19 -18 -14
-6 -13 -4 -7 -17 -20 -19 -15
-6 -13 -4 -7 -17 -20 -19 -15
-6 -13 -4 -6 -17 -19 -19 -15
-6 -13 -4 -6 -17 -19 -19 -15
-6 -13 -4 -6 -17 -19 -19 -15
-5 -13 -3 -5 -17 -18 -19 -14
-5 -11 -2 -4 -16 -17 -18 -14
-4 -9 1 -3 -14 -16 -16 -13
-4 -8 2 -2 -13 -15 -15 -13
-4 -6 3 0 -12 -14 -14 -13
-3 -5 4 1 -11 -13 -13 -12
-3 -5 4 2 -11 -13 -13 -12
-2 -6 5 3 -10 -12 -13 -11
-2 -6 5 3 -9 -11 -13 -10
-2 -6 5 4 -9 -11 -13 -10
0 -7 6 5 -8 -10 -13 -9
0 -7 6 5 -8 -10 -13 -9
1 -8 5 5 -9 -11 -13 -9
1 -8 4 5 -9 -12 -13 -9
1 -8 4 5 -9 -12 -13 -9
2 -9 3 4 -10 -13 -13 -10
3 -9 3 4 -10 -13 -13 -10
5 -8 2 5 -9 -12 -13 -9
6 -7 2 5 -9 -11 -13 -9
7 -7 2 5 -9 -11 -13 -9
8 -6 0 5 -8 -10 -12 -8
8 -6 -3 2 -10 -10 -12 -8
8 -6 -5 0 -12 -11 -12 -8
8 -6 -7 -4 -13 -12 -12 -8
8 -6 -9 -6 -15 -12 -12 -8
7 -5 -10 -8 -16 -13 -13 -8
6 -7 -10 -8 -16 -14 -14 -8
5 -9 -9 -8 -17 -16 -15 -9
5 -10 -9 -8 -18 -17 -15 -10
4 -12 -9 -8 -18 -18 -16 -10
3 -13 -8 -9 -19 -19 -17 -11
4 -13 -8 -9 -19 -19 -17 -12
5 -14 -9 -10 -20 -20 -18 -13
5 -15 -10 -11 -21 -21 -19 -13
6 -15 -10 -11 -21 -21 -19 -14
7 -16 -11 -12 -22 -22 -20 -15
6 -16 -11 -12 -22 -22 -20 -15
5 -16 -11 -13 -22 -23 -21 -15
4 -16 -11 -13 -22 -24 -21 -15
3 -16 -11 -13 -22 -24 -21 -15
2 -17 -11 -14 -23 -25 -22 -15
1 -17 -11 -14 -23 -25 -22 -16
-2 -17 -10 -14 -23 -25 -23 -17
-3 -17 -9 -14 -23 -25 -23 -17
-4 -17 -9 -14 -23 -25 -23 -18
-5 -17 -8 -14 -24 -26 -24 -19
-5 -17 -8 -14 -24 -26 -24 -19
-5 -18 -8 -15 -24 -26 -25 -19
-5 -18 -8 -15 -24 -26 -25 -19
-5 -18 -8 -15 -24 -26 -25 -19
-6 -19 -9 -16 -25 -26 -26 -19
-6 -19 -9 -16 -25 -26 -26 -19
-6 -19 -9 -16 -25 -26 -26 -19
-6 -19 -9 -16 -25 -26 -26 -19
-6 -19 -9 -16 -25 -26 -26 -19
-6 -18 -8 -16 -25 -27 -26 -19
-6 -18 -8 -16 -25 -27 -26 -19
-6 -17 -8 -15 -24 -27 -25 -19
-6 -17 -8 -15 -24 -27 -25 -19
-6 -17 -8 -15 -24 -27 -25 -19
-7 -16 -7 -14 -23 -27 -24 -18
-7 -16 -7 -14 -23 -26 -24 -18
-7 -16 -6 -13 -22 -25 -24 -18
-7 -16 -5 -13 -21 -25 -24 -18
-7 -16 -5 -13 -21 -24 -24 -18
-8 -15 -4 -12 -20 -23 -23 -18
-8 -15 -4 -12 -20 -23 -23 -18
-8 -15 -4 -12 -20 -23 -23 -18
-8 -15 -4 -12 -20 -23 -23 -18
-8 -15 -4 -12 -20 -23 -23 -18
-5 -16 -5 -7 -19 -24 -23 -19
0 -18 -4 1 -17 -24 -24 -22
4 -20 -3 8 -15 -25 -26 -26
8 -22 -3 16 -13 -26 -27 -29
13 -24 -2 23 -10 -26 -28 -32
16 -24 4 35 0 -20 -25 -32
20 -22 11 52 14 -5 -16 -28
24 -19 18 68 29 10 -7 -24
27 -17 26 85 44 24 3 -20
31 -15 33 101 59 38 12 -15
36 -5 39 111 78 63 33 -3
42 11 44 117 101 97 64 18
48 26 48 122 125 130 95 37
53 42 52 129 147 162 126 58
59 58 57 134 170 196 156 78
53 75 58 119 178 211 174 97
34 94 56 87 171 209 180 114
16 113 53 54 164 205 186 133
-3 132 51 21 157 203 192 150
-21 151 49 -12 151 201 199 169
-34 153 35 -50 117 168 178 164
-43 139 13 -92 61 108 132 141
-51 123 -10 -135 6 49 87 118
-59 109 -32 -177 -51 -11 40 95
-67 95 -54 -219 -106 -70 -6 71
-68 79 -67 -233 -133 -99 -30 53
-62 64 -70 -220 -133 -101 -38 38
-56 48 -74 -206 -134 -104 -46 23
-50 31 -78 -193 -135 -106 -53 9
-44 16 -82 -180 -135 -108 -60 -6
-38 8 -79 -163 -128 -104 -61 -13
-33 7 -69 -142 -111 -92 -55 -13
-28 5 -59 -121 -95 -79 -49 -13
-24 4 -48 -100 -78 -66 -43 -13
-19 3 -37 -79 -62 -54 -35 -13
-16 2 -30 -64 -51 -46 -31 -13
-14 0 -25 -55 -45 -41 -29 -13
-12 -2 -19 -45 -38 -37 -27 -14
-11 -3 -14 -35 -32 -33 -25 -14
-9 -5 -9 -25 -26 -28 -23 -14
-8 -6 -6 -20 -23 -26 -22 -15
-8 -7 -5 -18 -22 -26 -22 -15
-8 -8 -4 -16 -21 -25 -22 -15
-8 -9 -3 -14 -20 -25 -22 -15
-8 -10 -2 -12 -19 -25 -22 -15
-7 -11 0 -11 -18 -24 -21 -14
-7 -11 0 -10 -18 -24 -21 -14
-6 -11 1 -9 -17 -24 -21 -15
-6 -11 2 -9 -16 -24 -21 -15
-6 -11 2 -8 -16 -24 -21 -15
-5 -10 3 -7 -15 -23 -22 -16
-5 -10 3 -7 -15 -23 -22 -16
-5 -10 3 -7 -15 -22 -21 -16
-5 -10 3 -7 -15 -22 -20 -16
-5 -10 3 -7 -15 -22 -20 -16
-4 -10 2 -7 -14 -21 -19 -16
-4 -10 2 -6 -13 -20 -18 -16
-3 -11 3 -5 -12 -19 -17 -15
-3 -11 3 -5 -12 -19 -17 -14
-3 -11 3 -4 -11 -18 -16 -14
-2 -12 4 -3 -10 -17 -15 -13
-2 -12 4 -3 -10 -17 -15 -13
-2 -11 4 -3 -10 -17 -15 -13
-2 -11 4 -3 -10 -17 -15 -13
-2 -11 4 -3 -10 -17 -15 -13
-2 -10 4 -3 -9 -16 -14 -12
-2 -10 4 -3 -9 -16 -14 -12
0 -10 4 -3 -10 -16 -14 -12
0 -10 4 -3 -10 -16 -14 -12
0 -10 4 -3 -10 -16 -14 -12
1 -9 4 -4 -11 -17 -15 -13
1 -9 4 -4 -11 -17 -15 -13
1 -9 4 -3 -10 -16 -15 -13
1 -9 4 -3 -10 -15 -15 -13
1 -9 4 -3 -10 -15 -15 -13
1 -9 5 -2 -9 -14 -14 -12
1 -9 5 -2 -9 -14 -14 -12
2 -9 5 -2 -8 -14 -14 -12
3 -9 5 -2 -7 -13 -13 -12
3 -9 5 -2 -7 -13 -13 -12
4 -8 4 0 -6 -12 -12 -12
4 -8 4 0 -6 -11 -12 -11
4 -8 4 0 -6 -11 -11 -11
4 -8 4 0 -5 -10 -10 -10
4 -8 4 0 -5 -9 -10 -9
4 -8 3 1 -4 -8 -9 -8
4 -8 3 1 -4 -8 -8 -8
5 -8 3 2 -4 -8 -8 -8
6 -8 3 3 -3 -7 -7 -7
6 -8 3 3 -3 -7 -6 -7
7 -7 4 4 -2 -6 -5 -6
7 -7 4 4 0 -5 -5 -6
7 -6 4 4 0 -5 -4 -5
7 -5 4 5 1 -4 -3 -4
7 -5 4 5 2 -3 -3 -4
7 -4 4 6 3 -2 -2 -3
7 -4 4 6 3 0 0 -3
8 -3 4 6 4 0 1 -3
9 -2 4 7 5 1 2 -3
9 -2 4 7 5 2 3 -3
10 0 3 8 6 3 4 -3
10 1 3 8 7 5 6 0
10 1 3 8 7 6 7 1
10 2 2 8 8 7 8 2
10 3 2 8 9 9 10 4
11 4 1 8 10 10 11 5
12 5 1 9 11 11 13 6
13 5 1 10 12 12 14 7
14 6 1 11 13 14 16 9
15 7 1 12 14 15 18 10
16 8 2 13 15 16 19 11
16 9 2 13 16 18 21 13
16 10 2 13 17 19 23 14
16 12 1 13 18 21 25 16
16 13 1 13 19 23 27 18
17 14 0 14 20 24 28 19
19 16 0 15 22 26 30 21
20 17 -2 16 23 28 32 22
21 18 -3 17 24 30 34 23
23 20 -3 18 26 32 36 25
24 21 -4 19 27 34 37 26
25 23 -4 19 27 35 39 28
25 24 -4 19 28 36 40 29
26 25 -4 19 29 38 42 30
27 27 -4 19 29 39 44 32
28 28 -4 19 30 40 45 33
28 30 -4 19 31 42 47 35
28 31 -4 19 31 42 49 36
29 32 -4 19 32 43 51 37
29 34 -4 19 33 44 53 39
30 35 -5 20 34 46 55 40
30 35 -5 20 36 48 57 43
30 35 -5 21 37 50 58 44
30 35 -4 22 38 52 60 45
30 35 -4 22 40 54 62 47
29 35 -3 23 42 56 63 48
29 36 -3 23 42 56 63 48
29 37 -3 23 42 56 63 48
29 39 -3 23 43 56 63 48
29 40 -3 23 43 56 63 48
29 42 -3 22 44 57 64 49
29 44 -3 22 45 58 65 51
29 45 -2 22 45 59 66 52
29 46 0 22 46 61 68 53
29 48 0 22 47 62 69 55
29 49 1 22 48 63 70 56
29 49 2 22 48 63 70 56
29 49 3 22 48 63 70 56
29 49 4 22 49 63 70 56
29 49 5 22 49 63 70 56
28 50 6 21 50 63 69 55
26 49 6 21 49 62 67 54
25 48 6 21 49 61 66 53
24 46 7 21 48 59 64 51
22 45 7 21 47 58 62 50
21 44 8 21 46 57 61 49
21 42 9 21 46 55 59 47
20 40 10 21 46 54 57 45
19 39 12 21 45 52 55 43
19 37 13 21 45 50 54 42
18 36 14 21 44 49 51 39
18 34 15 21 42 46 49 36
18 32 15 21 40 44 46 34
17 30 16 21 39 42 44 32
17 29 17 21 37 39 40 30
16 27 18 20 36 37 37 28
15 24 19 20 35 35 35 25
14 22 20 20 34 33 33 23
13 20 21 19 33 31 30 21
12 18 22 19 32 29 28 19
11 16 23 18 31 27 25 17
10 15 23 17 29 24 23 15
9 13 23 17 27 22 21 13
8 12 24 16 25 20 18 11
7 10 24 15 24 18 16 10
6 9 25 14 22 16 14 8
6 8 25 13 21 14 12 7
6 8 25 12 20 13 11 7
6 7 25 11 18 11 9 6
6 6 25 10 17 9 7 5
5 5 25 9 16 8 6 4
4 4 25 8 15 7 5 3
4 3 25 7 15 5 5 3
3 1 25 6 14 4 4 2
2 0 25 5 13 2 3 1
1 -2 25 4 12 1 2 0
1 -2 25 3 11 0 1 -2
1 -2 25 3 11 0 -2 -3
0 -3 25 2 10 -2 -3 -4
0 -3 25 1 9 -3 -5 -5
-2 -4 24 0 8 -4 -6 -6
-2 -4 24 -2 8 -4 -6 -6
-2 -4 24 -2 8 -4 -6 -6
-3 -4 25 -3 7 -4 -6 -6
-3 -4 25 -4 7 -4 -6 -6
-4 -5 26 -5 6 -5 -7 -6
-4 -6 26 -5 6 -5 -7 -6
-4 -7 26 -5 6 -5 -7 -6
-4 -8 26 -5 6 -6 -7 -7
-4 -9 26 -5 6 -6 -7 -7
-4 -10 25 -6 5 -7 -7 -8
-4 -10 25 -6 5 -7 -7 -8
-4 -10 25 -6 5 -7 -7 -7
-4 -10 25 -6 5 -7 -6 -6
-4 -10 25 -6 5 -7 -6 -6
-5 -9 26 -7 4 -6 -5 -5
-5 -9 26 -7 4 -6 -5 -5
-5 -9 26 -7 4 -6 -5 -5
-5 -9 26 -7 4 -7 -6 -5
-5 -9 26 -7 4 -7 -6 -5
-4 -9 26 -7 3 -8 -7 -5
-4 -9 26 -7 3 -8 -7 -5
-4 -9 26 -7 3 -8 -7 -5
-5 -9 26 -7 3 -8 -7 -6
-5 -9 26 -7 3 -8 -7 -6
-6 -10 27 -8 3 -9 -7 -7
-6 -10 27 -8 3 -9 -7 -7
-6 -10 27 -8 3 -9 -7 -7
-6 -10 27 -8 3 -9 -8 -7
-6 -10 27 -8 3 -9 -8 -7
-5 -10 27 -8 2 -10 -9 -7
-5 -10 27 -8 2 -10 -8 -7
-5 -10 27 -8 2 -10 -8 -6
-6 -10 27 -8 2 -9 -7 -5
-6 -10 27 -8 2 -9 -6 -5
-7 -9 27 -8 3 -8 -5 -4
-7 -9 27 -8 3 -8 -5 -4
-7 -9 27 -8 3 -8 -6 -4
-6 -9 27 -8 3 -8 -7 -5
-6 -9 27 -8 3 -8 -7 -5
-5 -8 28 -8 4 -9 -8 -6
-5 -8 28 -8 3 -9 -8 -6
-5 -8 28 -8 3 -9 -8 -6
-5 -8 28 -8 2 -9 -8 -6
-5 -8 28 -8 1 -9 -8 -6
-6 -7 28 -9 0 -10 -8 -7
-6 -7 28 -9 0 -10 -8 -7
-6 -7 28 -9 0 -10 -8 -7
-6 -7 28 -9 0 -10 -8 -7
-6 -7 28 -9 0 -10 -8 -7
-5 -8 29 -9 1 -10 -8 -7
-5 -8 29 -9 1 -10 -8 -7
-5 -9 29 -9 1 -10 -8 -7
-5 -10 29 -9 1 -11 -8 -7
-5 -10 29 -9 1 -11 -8 -7
-6 -11 29 -8 0 -12 -9 -7
-6 -10 29 -8 0 -12 -9 -7
-6 -10 29 -8 0 -12 -9 -7
-6 -9 29 -8 -2 -12 -9 -7
-6 -8 29 -8 -2 -12 -9 -7
-5 -7 29 -7 -3 -12 -9 -6
-5 -7 29 -7 -3 -12 -9 -6
-5 -7 29 -7 -3 -12 -9 -6
-5 -7 29 -7 -4 -12 -9 -6
-5 -7 29 -7 -4 -12 -9 -6
-6 -8 29 -7 -5 -13 -10 -7
-6 -8 29 -7 -5 -13 -10 -7
-6 -9 29 -7 -5 -14 -10 -7
-6 -10 29 -7 -5 -15 -11 -8
-6 -10 29 -7 -5 -15 -11 -8
-6 -11 29 -7 -5 -16 -12 -9
-6 -11 29 -7 -5 -16 -12 -9
-6 -11 29 -7 -5 -16 -12 -9
-6 -11 28 -7 -5 -16 -12 -9
-6 -11 28 -7 -5 -16 -12 -9
-7 -10 27 -8 -6 -16 -12 -10
-6 -10 26 -8 -6 -16 -12 -10
-5 -10 25 -9 -6 -16 -12 -10
-4 -10 23 -10 -6 -16 -13 -10
-3 -10 22 -10 -6 -16 -13 -10
-2 -9 21 -11 -7 -17 -14 -10
-3 -10 21 -11 -7 -17 -14 -10
-3 -11 21 -11 -7 -17 -14 -10
-4 -12 21 -11 -7 -17 -14 -10
-5 -13 21 -11 -7 -17 -14 -10
-6 -14 20 -10 -8 -17 -14 -10
-6 -14 20 -10 -8 -17 -14 -10
-6 -14 20 -10 -8 -17 -14 -10
-5 -14 20 -10 -9 -17 -14 -10
-5 -14 20 -10 -9 -17 -14 -10
-4 -14 19 -11 -10 -18 -15 -11
-4 -14 18 -11 -10 -18 -15 -11
-4 -14 16 -11 -10 -18 -15 -11
-4 -14 15 -11 -10 -18 -16 -11
-4 -14 13 -11 -10 -18 -16 -11
-5 -14 12 -10 -11 -19 -17 -12
-5 -14 11 -10 -11 -19 -17 -12
-5 -14 11 -10 -11 -19 -17 -12
-5 -14 10 -10 -11 -19 -17 -12
-5 -14 9 -10 -11 -19 -17 -12
-6 -14 8 -10 -11 -19 -16 -13
-6 -14 8 -10 -11 -19 -16 -13
-6 -14 8 -11 -11 -19 -16 -13
-6 -15 8 -11 -12 -20 -16 -13
-6 -15 8 -12 -12 -20 -16 -13
-6 -16 7 -13 -13 -21 -15 -12
-6 -17 7 -13 -13 -21 -15 -12
-7 -18 7 -13 -13 -21 -16 -12
-7 -19 7 -13 -13 -21 -16 -13
-8 -20 7 -13 -13 -21 -17 -13
-9 -21 7 -13 -14 -22 -18 -14
-9 -20 7 -13 -14 -22 -18 -14
-9 -18 7 -13 -14 -22 -18 -14
-9 -17 6 -13 -14 -22 -18 -13
-9 -15 6 -13 -14 -22 -18 -13
-8 -14 5 -14 -13 -22 -18 -12
-8 -14 5 -14 -13 -22 -18 -12
-8 -14 5 -14 -13 -22 -18 -12
-7 -15 5 -13 -13 -22 -18 -13
-7 -15 5 -13 -13 -22 -18 -13
-6 -16 5 -12 -14 -23 -18 -14
-6 -16 5 -12 -14 -23 -18 -14
-6 -16 5 -12 -13 -23 -18 -14
-6 -17 4 -12 -13 -22 -18 -13
-6 -17 4 -12 -12 -22 -18 -13
-7 -18 3 -13 -11 -21 -17 -12
-7 -18 3 -13 -11 -21 -17 -12
-7 -18 3 -13 -11 -21 -18 -12
-7 -18 3 -13 -12 -21 -18 -13
-7 -18 3 -13 -12 -21 -19 -13
-8 -17 2 -13 -13 -21 -20 -14
-8 -17 2 -13 -13 -21 -20 -14
-8 -17 2 -13 -13 -21 -19 -14
-8 -17 2 -13 -13 -21 -19 -14
-8 -17 2 -13 -13 -21 -18 -14
-7 -17 2 -13 -13 -21 -17 -14
-7 -17 2 -13 -13 -21 -17 -14
-7 -17 2 -13 -13 -21 -17 -14
-7 -17 2 -13 -13 -21 -17 -15
-7 -17 2 -13 -13 -21 -17 -15
-8 -17 2 -14 -13 -22 -18 -16
-8 -17 2 -14 -13 -22 -18 -16
-8 -17 2 -14 -13 -22 -18 -16
-8 -18 2 -14 -14 -22 -18 -16
-8 -18 2 -14 -14 -22 -18 -16
-8 -19 3 -14 -15 -23 -18 -16
-8 -19 3 -14 -15 -23 -18 -16
-8 -19 3 -14 -15 -23 -19 -16
-8 -19 3 -14 -15 -24 -19 -16
-8 -19 3 -14 -15 -24 -20 -16
-9 -18 3 -13 -15 -25 -21 -16
-9 -18 3 -13 -15 -25 -20 -16
-9 -19 3 -13 -15 -25 -19 -16
-9 -19 3 -13 -15 -25 -18 -15
-9 -20 3 -13 -15 -25 -17 -15
-9 -21 2 -14 -14 -24 -16 -14
-8 -21 2 -14 -14 -24 -16 -14
-7 -21 2 -14 -14 -23 -16 -14
-6 -20 2 -13 -14 -23 -16 -14
-4 -20 2 -13 -14 -22 -16 -14
-3 -19 3 -12 -13 -21 -15 -13
-4 -19 3 -12 -13 -21 -15 -13
-5 -19 3 -12 -13 -21 -15 -13
-6 -19 3 -12 -13 -21 -15 -13
-8 -19 3 -12 -13 -21 -15 -13
-9 -19 4 -11 -13 -22 -15 -12
-9 -19 4 -11 -13 -22 -15 -12
-9 -19 4 -11 -13 -22 -15 -12
-9 -19 4 -11 -13 -22 -15 -12
-9 -19 4 -11 -13 -22 -15 -12
-8 -18 3 -10 -13 -22 -16 -13
-8 -18 4 -9 -12 -21 -16 -13
-8 -17 5 -8 -11 -21 -15 -12
-7 -17 6 -7 -10 -20 -15 -12
-7 -16 8 -6 -9 -19 -14 -11
-6 -15 9 -5 -8 -18 -13 -10
-6 -14 9 -4 -7 -18 -13 -10
-6 -14 9 -3 -6 -17 -12 -9
-5 -13 10 -2 -5 -17 -12 -9
-5 -12 10 0 -4 -16 -11 -8
-4 -11 11 1 -3 -15 -10 -7
-4 -11 11 1 -3 -15 -10 -7
-4 -11 11 1 -4 -15 -10 -7
-4 -11 10 1 -4 -15 -11 -8
-4 -11 10 1 -5 -15 -11 -8
-4 -12 9 0 -6 -16 -12 -9
-3 -12 9 1 -5 -16 -11 -9
0 -12 9 1 -5 -15 -11 -8
1 -12 9 2 -4 -15 -10 -8
2 -12 9 3 -3 -14 -9 -7
4 -12 8 4 -2 -13 -8 -6
4 -11 8 2 -3 -13 -8 -5
4 -11 7 1 -3 -13 -7 -5
3 -10 7 -2 -4 -12 -7 -4
3 -9 6 -3 -5 -12 -6 -3
2 -8 5 -5 -6 -11 -5 -2
1 -8 4 -6 -7 -12 -6 -2
1 -9 3 -7 -7 -13 -6 -2
0 -9 2 -8 -8 -14 -7 -3
-2 -10 0 -9 -9 -15 -8 -3
-3 -11 -2 -10 -10 -16 -9 -4
-3 -13 -2 -10 -10 -17 -10 -5
-3 -15 -2 -11 -11 -19 -11 -6
-2 -17 -2 -11 -12 -20 -12 -7
-2 -19 -2 -12 -13 -21 -14 -9
0 -21 -2 -13 -14 -23 -15 -10
0 -21 -2 -13 -14 -23 -15 -10
0 -21 -2 -13 -14 -23 -15 -10
-2 -21 -2 -13 -14 -23 -14 -10
-2 -21 -2 -13 -14 -23 -14 -10
-3 -20 -2 -14 -15 -22 -13 -9
-4 -20 -2 -14 -15 -23 -14 -10
-5 -20 -2 -14 -15 -24 -15 -11
-6 -20 -2 -14 -15 -25 -16 -12
-8 -20 -2 -14 -15 -26 -18 -13
-9 -21 0 -15 -16 -27 -19 -14
-9 -21 0 -15 -16 -27 -19 -14
-9 -21 0 -15 -16 -27 -19 -14
-9 -21 0 -16 -16 -27 -20 -14
-9 -21 0 -16 -16 -27 -20 -14
-10 -22 0 -17 -17 -28 -21 -15
-10 -22 0 -17 -17 -28 -21 -15
-10 -22 0 -17 -17 -28 -21 -15
-10 -22 0 -17 -17 -28 -20 -15
-10 -22 0 -17 -17 -28 -20 -15
-9 -23 0 -17 -17 -27 -19 -15
-9 -23 0 -17 -17 -27 -19 -15
-9 -23 0 -17 -17 -26 -19 -15
-9 -23 1 -17 -16 -26 -19 -15
-9 -23 1 -17 -16 -25 -19 -15
-9 -23 2 -16 -15 -24 -20 -15
-9 -23 2 -16 -15 -24 -20 -15
-9 -23 2 -16 -14 -24 -20 -15
-9 -22 2 -16 -14 -24 -19 -15
-9 -22 2 -16 -13 -24 -19 -15
-9 -21 2 -16 -12 -23 -18 -14
-9 -21 2 -16 -12 -23 -17 -14
-9 -21 2 -15 -12 -22 -16 -13
-9 -21 2 -14 -12 -21 -15 -13
-9 -21 2 -13 -12 -20 -14 -12
-10 -22 3 -11 -11 -19 -13 -11
-6 -26 3 -2 -8 -19 -15 -13
-3 -29 3 7 -4 -19 -16 -15
1 -33 3 15 0 -18 -18 -17
5 -37 3 24 3 -18 -20 -19
8 -39 5 34 9 -14 -20 -21
12 -34 15 52 25 3 -9 -17
15 -29 24 68 43 19 3 -14
18 -24 33 86 59 35 14 -10
22 -19 43 102 76 52 26 -6
25 -11 51 116 95 73 42 2
30 5 53 118 121 113 76 23
35 20 56 120 147 153 111 44
40 35 58 123 174 193 146 65
46 51 61 126 200 233 181 87
47 67 63 120 220 265 209 106
28 86 59 84 210 257 211 120
11 105 56 48 199 250 212 135
-8 123 53 11 188 241 214 149
-25 142 49 -26 178 234 216 163
-40 154 42 -63 156 214 209 172
-46 138 18 -103 92 144 157 147
-51 120 -6 -143 26 73 106 122
-56 104 -30 -183 -38 4 55 98
-61 88 -54 -223 -104 -66 5 73
-65 71 -73 -253 -156 -123 -37 51
-59 56 -77 -237 -151 -122 -43 38
-53 40 -81 -222 -147 -121 -48 25
-47 26 -86 -205 -143 -120 -53 13
-40 11 -89 -190 -139 -118 -58 1
-35 -2 -91 -174 -132 -115 -61 -11
-33 -3 -80 -152 -115 -101 -54 -11
-30 -4 -69 -132 -99 -87 -48 -10
-28 -5 -58 -111 -82 -72 -40 -9
-25 -7 -47 -91 -66 -59 -33 -8
-23 -8 -36 -71 -52 -47 -27 -7
-20 -9 -30 -60 -45 -41 -25 -7
-17 -10 -24 -49 -37 -36 -22 -7
-15 -11 -18 -37 -30 -31 -20 -7
-12 -12 -12 -26 -23 -26 -17 -7
-9 -13 -6 -17 -17 -22 -15 -8
-9 -13 -5 -15 -16 -22 -15 -8
-9 -14 -4 -13 -15 -21 -15 -8
-9 -15 -3 -11 -14 -20 -15 -8
-9 -16 -2 -9 -12 -19 -15 -8
-9 -17 0 -7 -11 -18 -14 -8
-9 -17 0 -6 -11 -18 -14 -9
-9 -18 0 -5 -11 -18 -14 -10
-9 -18 0 -4 -11 -18 -14 -11
-9 -19 0 -3 -11 -18 -14 -12
-8 -20 1 -2 -10 -17 -14 -13
-8 -20 1 -2 -9 -17 -14 -13
-8 -20 1 -2 -8 -16 -13 -12
-7 -20 2 -2 -7 -16 -12 -11
-7 -20 2 -2 -6 -15 -11 -10
-6 -20 3 -2 -5 -14 -10 -9
-6 -20 3 0 -5 -13 -10 -9
-6 -20 3 1 -4 -12 -9 -9
-5 -20 3 2 -4 -11 -9 -9
-5 -20 3 3 -3 -10 -8 -9
-4 -19 4 4 -2 -9 -7 -8
-4 -19 4 4 -2 -9 -7 -8
-4 -19 4 4 -2 -9 -7 -8
-4 -19 3 4 -2 -9 -7 -8
-4 -19 3 4 -2 -9 -7 -8
-5 -19 2 3 0 -8 -6 -7
-5 -19 2 4 0 -8 -6 -7
-4 -19 3 5 0 -7 -6 -7
-4 -19 3 6 1 -6 -6 -7
-3 -19 4 7 1 -5 -6 -7
-2 -18 5 9 2 -4 -5 -6
-2 -18 5 9 2 -4 -5 -6
-2 -18 4 9 2 -4 -5 -6
-2 -17 4 9 2 -4 -5 -6
-2 -17 3 9 2 -4 -5 -6
0 -16 2 9 2 -5 -5 -5
0 -16 2 9 2 -4 -5 -5
0 -16 2 10 3 -3 -4 -5
-2 -17 3 11 3 -2 -3 -5
-2 -17 3 12 4 0 -2 -5
-3 -18 4 13 5 2 0 -4
-3 -17 4 13 5 2 0 -4
-2 -16 3 13 5 2 0 -4
0 -15 2 13 5 2 0 -4
1 -14 1 13 5 2 0 -4
2 -13 0 12 6 3 0 -3
2 -13 0 12 6 3 0 -3
2 -13 0 12 6 4 0 -3
2 -14 0 13 7 4 1 -3
2 -14 0 13 7 5 1 -3
2 -15 0 14 8 6 2 -2
2 -14 0 14 9 6 3 0
2 -13 -2 14 10 6 4 1
3 -12 -2 14 11 7 5 2
3 -11 -3 14 12 7 6 3
4 -10 -4 15 13 8 7 5
4 -10 -4 16 13 9 8 5
5 -10 -4 17 14 10 9 5
5 -10 -4 18 14 11 10 5
6 -10 -4 19 15 12 11 5
7 -9 -5 20 16 14 13 6
7 -9 -5 20 16 15 14 6
7 -8 -6 20 17 16 15 7
8 -7 -7 20 18 18 16 8
8 -6 -8 20 19 19 17 9
9 -5 -9 20 20 21 19 10
10 -4 -9 20 21 22 19 10
11 -3 -9 21 22 23 20 11
13 -2 -10 22 23 25 21 11
14 0 -10 23 24 26 22 12
16 2 -11 24 26 28 23 13
16 3 -11 24 27 30 25 15
16 5 -11 25 28 33 28 17
17 6 -11 26 29 35 31 19
17 8 -11 27 30 37 33 22
18 10 -12 28 32 40 36 24
18 11 -12 28 34 43 37 25
18 13 -13 29 35 44 39 26
19 14 -13 29 37 46 40 27
19 16 -14 30 39 48 43 28
20 18 -15 31 42 50 45 29
21 18 -15 31 42 52 47 31
22 19 -15 31 43 53 49 33
23 20 -15 32 44 55 51 35
24 21 -15 32 45 57 54 37
25 22 -16 33 46 59 56 39
25 24 -16 33 47 61 58 40
25 25 -16 33 48 62 59 42
26 27 -16 33 50 64 61 43
26 29 -16 33 51 66 63 44
27 31 -17 34 53 68 65 45
27 32 -17 34 53 68 65 46
27 33 -17 34 54 69 66 47
27 34 -17 34 54 69 67 48
27 35 -17 34 55 70 68 49
28 37 -18 34 56 71 69 51
28 37 -18 34 56 71 70 52
28 38 -18 34 56 72 71 53
28 39 -18 34 57 72 73 54
28 40 -18 34 57 73 74 55
29 42 -17 35 58 74 76 56
29 42 -17 35 58 74 76 56
28 42 -17 34 58 75 76 56
28 43 -17 33 58 76 76 56
27 43 -17 32 58 77 76 56
26 44 -17 31 58 78 77 57
26 44 -16 31 58 78 76 57
26 44 -15 31 58 77 75 56
25 44 -14 31 58 76 74 56
25 44 -13 31 58 75 73 55
24 45 -11 31 57 74 72 54
24 44 -11 31 57 73 71 54
23 43 -11 31 56 72 70 53
23 42 -10 30 55 71 69 53
22 40 -10 30 54 70 68 52
21 38 -9 29 53 69 67 51
20 38 -8 29 52 67 65 50
19 37 -6 29 51 65 63 48
18 36 -5 29 50 63 61 46
17 35 -3 29 49 61 59 44
16 34 0 30 48 59 56 42
16 32 0 30 46 56 52 38
16 30 1 29 44 52 48 35
15 28 2 29 42 49 44 32
15 26 3 28 39 46 38 29
14 24 4 27 36 42 34 26
13 22 4 27 35 39 33 24
12 20 5 27 34 37 31 22
11 17 6 26 32 35 29 20
10 15 7 26 31 33 27 18
8 12 8 25 29 30 25 16
8 11 8 24 28 28 23 15
7 10 8 23 26 26 21 14
6 9 8 22 24 23 19 12
5 8 8 21 22 21 17 11
4 7 8 20 20 18 14 9
4 6 8 19 19 17 12 8
4 4 8 18 18 15 10 7
3 2 8 17 16 13 8 5
3 0 8 16 15 11 6 4
2 -3 8 14 13 9 4 2
2 -3 8 13 12 8 3 2
1 -3 8 12 11 7 1 1
1 -3 8 11 9 6 0 1
0 -3 8 10 8 5 -3 0
-2 -3 7 9 6 3 -5 -2
-2 -3 7 9 6 3 -5 -2
-2 -3 7 9 6 2 -5 -2
-2 -4 7 9 5 2 -5 -3
-2 -4 7 9 5 1 -5 -3
-2 -5 6 8 4 0 -4 -4
-2 -5 6 8 4 0 -4 -4
-2 -5 6 7 4 0 -4 -4
-3 -5 6 7 4 0 -4 -3
-3 -5 6 6 4 0 -4 -3
-4 -5 6 5 3 0 -3 -2
-4 -5 6 5 3 0 -3 -2
-4 -5 6 5 2 -2 -4 -3
-4 -5 7 4 2 -2 -5 -3
-4 -5 7 4 1 -3 -6 -4
-4 -5 8 3 0 -4 -7 -5
-4 -5 8 3 0 -4 -7 -5
-4 -5 8 3 0 -5 -8 -5
-5 -6 7 3 -2 -5 -8 -5
-5 -6 7 3 -2 -6 -9 -5
-6 -7 6 2 -3 -7 -10 -6
-6 -7 6 2 -3 -7 -10 -6
-6 -7 6 2 -3 -7 -10 -6
-6 -7 7 2 -2 -6 -9 -5
-6 -7 7 2 -2 -6 -9 -5
-6 -6 8 3 0 -5 -8 -4
-6 -6 8 3 0 -5 -8 -4
-6 -6 8 3 0 -5 -8 -4
-6 -6 7 2 -2 -5 -8 -4
-6 -6 7 2 -2 -5 -8 -4
-6 -6 6 1 -3 -6 -8 -5
-6 -6 6 1 -3 -6 -8 -5
-6 -6 6 1 -3 -6 -8 -5
-6 -6 6 1 -3 -6 -8 -5
-6 -6 6 1 -3 -6 -8 -5
-5 -6 7 2 -3 -7 -9 -5
-5 -6 7 2 -3 -7 -9 -5
-5 -6 7 2 -3 -7 -9 -5
-5 -6 7 2 -3 -7 -9 -4
-5 -6 7 2 -3 -7 -9 -4
-5 -5 7 2 -2 -6 -8 -3
-5 -5 7 2 -2 -6 -8 -3
-6 -5 7 2 -2 -6 -8 -3
-6 -6 7 2 -2 -6 -7 -3
-7 -6 7 2 -2 -6 -7 -3
-8 -7 7 3 -3 -7 -6 -3
-8 -7 7 3 -3 -7 -6 -3
-7 -7 7 3 -3 -7 -6 -3
-7 -7 7 3 -3 -7 -6 -3
-6 -7 7 3 -3 -7 -6 -3
-5 -7 8 3 -3 -7 -7 -3
-5 -7 8 3 -3 -7 -7 -3
-4 -7 7 3 -3 -7 -8 -4
-4 -7 7 3 -3 -8 -8 -5
-3 -7 6 3 -3 -8 -9 -6
-2 -6 5 3 -3 -9 -10 -7
-2 -6 5 3 -3 -9 -10 -7
-3 -7 5 3 -3 -9 -10 -7
-4 -7 6 3 -3 -9 -10 -6
-5 -8 6 3 -3 -9 -10 -6
-6 -9 7 2 -4 -8 -10 -5
-6 -9 7 2 -4 -8 -10 -5
-6 -9 7 2 -4 -8 -10 -5
-6 -9 7 3 -4 -8 -10 -5
-6 -9 7 3 -4 -8 -10 -5
-6 -9 8 4 -4 -9 -10 -5
-6 -9 8 4 -4 -9 -10 -5
-5 -9 8 3 -5 -9 -10 -5
-5 -9 7 3 -5 -9 -10 -5
-4 -9 7 2 -6 -9 -10 -5
-3 -10 6 1 -7 -10 -11 -6
-3 -10 6 1 -7 -10 -11 -6
-3 -11 6 1 -7 -10 -11 -6
-4 -11 6 2 -7 -10 -10 -6
-4 -12 6 2 -7 -10 -10 -6
-5 -13 6 3 -6 -10 -9 -5
-5 -13 6 3 -6 -10 -9 -5
-5 -13 6 3 -6 -10 -10 -5
-4 -13 6 2 -7 -10 -10 -6
-4 -13 6 2 -7 -10 -11 -6
-3 -12 7 1 -8 -11 -12 -7
-3 -12 7 1 -8 -11 -12 -7
-3 -12 7 1 -8 -12 -12 -8
-3 -13 6 1 -9 -12 -12 -8
-3 -13 6 1 -9 -13 -12 -9
-3 -13 6 1 -9 -13 -12 -9
-3 -14 5 0 -10 -14 -13 -10
-3 -14 5 0 -10 -14 -13 -10
-3 -14 5 0 -10 -14 -13 -9
-3 -14 5 0 -10 -14 -13 -9
-3 -14 5 0 -10 -14 -13 -9
-2 -14 6 0 -10 -15 -12 -8
-2 -14 6 0 -10 -15 -12 -8
-2 -14 6 0 -10 -15 -12 -8
-2 -14 6 0 -10 -15 -12 -8
-2 -14 6 0 -10 -15 -12 -8
-3 -13 5 0 -10 -15 -13 -8
-3 -13 5 0 -10 -15 -13 -8
-3 -14 5 0 -10 -15 -13 -8
-3 -14 5 0 -10 -15 -13 -8
-3 -14 5 0 -10 -15 -13 -8
-2 -15 6 0 -11 -16 -14 -9
-2 -15 6 0 -11 -16 -14 -9
-2 -15 6 0 -11 -16 -14 -9
-2 -15 6 0 -11 -16 -14 -9
-2 -15 6 0 -11 -16 -14 -9
-3 -15 5 0 -12 -16 -15 -10
-3 -15 5 0 -12 -16 -15 -10
-3 -15 5 -2 -12 -16 -15 -10
-3 -15 5 -2 -12 -16 -15 -10
-3 -15 5 -2 -12 -16 -15 -10
-2 -15 4 -3 -13 -16 -16 -11
-2 -15 4 -3 -13 -16 -15 -11
-2 -15 4 -3 -13 -16 -15 -11
-2 -15 4 -3 -13 -16 -14 -11
-2 -15 4 -3 -13 -16 -14 -11
-3 -15 5 -2 -12 -15 -13 -10
-3 -15 5 -2 -12 -15 -13 -10
-3 -15 5 -2 -12 -15 -13 -10
-3 -15 5 -2 -12 -15 -13 -10
-3 -15 5 -2 -12 -15 -13 -10
-4 -15 5 -3 -12 -16 -14 -11
-4 -15 5 -3 -12 -16 -14 -11
-3 -15 4 -3 -13 -16 -15 -11
-3 -15 4 -3 -13 -16 -15 -11
-3 -15 4 -3 -13 -16 -15 -11
-2 -14 3 -3 -14 -17 -16 -11
-2 -14 3 -3 -14 -17 -16 -11
-2 -14 3 -3 -14 -17 -16 -10
-2 -14 3 -3 -14 -17 -16 -10
-2 -14 3 -3 -14 -17 -16 -10
0 -13 3 -3 -14 -17 -15 -9
0 -13 3 -3 -14 -17 -15 -10
-2 -14 3 -3 -14 -17 -16 -10
-2 -14 3 -3 -14 -17 -16 -11
-2 -14 3 -3 -14 -17 -16 -11
-3 -15 2 -4 -14 -18 -17 -12
-4 -15 2 -4 -14 -18 -16 -12
-4 -15 3 -4 -14 -17 -16 -12
-5 -15 3 -4 -14 -17 -15 -12
-5 -15 3 -4 -14 -17 -15 -12
-6 -16 4 -4 -15 -16 -14 -11
-5 -16 4 -4 -15 -16 -14 -11
-4 -15 4 -4 -15 -17 -15 -11
-3 -15 4 -4 -15 -17 -15 -11
-3 -15 4 -4 -15 -17 -15 -11
-2 -14 5 -3 -15 -18 -16 -11
-3 -14 5 -3 -15 -18 -16 -11
-3 -14 5 -3 -15 -18 -16 -11
-4 -14 5 -3 -15 -18 -16 -11
-4 -14 5 -3 -15 -18 -16 -11
-5 -14 4 -4 -16 -17 -16 -11
-4 -14 4 -4 -16 -17 -16 -11
-4 -14 4 -4 -16 -18 -16 -11
-3 -14 4 -4 -16 -18 -16 -11
-3 -14 4 -4 -16 -18 -16 -11
-2 -14 3 -4 -16 -19 -17 -12
-2 -14 3 -4 -16 -19 -17 -12
-3 -14 3 -4 -16 -19 -17 -12
-3 -14 3 -4 -16 -19 -17 -12
-3 -14 3 -4 -16 -19 -17 -12
-4 -15 4 -4 -15 -19 -16 -11
-4 -15 4 -4 -15 -19 -16 -11
-4 -15 4 -4 -15 -18 -16 -11
-4 -15 4 -4 -15 -18 -16 -11
-4 -15 4 -4 -15 -18 -16 -11
-3 -14 3 -4 -15 -17 -15 -11
-3 -14 3 -4 -15 -17 -15 -11
-3 -14 3 -4 -15 -17 -15 -11
-3 -14 3 -4 -15 -17 -15 -11
-3 -14 3 -4 -15 -17 -15 -11
-4 -13 4 -5 -15 -18 -16 -11
-4 -13 4 -4 -15 -18 -16 -11
-4 -12 5 -4 -15 -18 -16 -11
-4 -12 5 -3 -15 -18 -16 -11
-4 -12 5 -3 -15 -18 -16 -11
-4 -10 6 -2 -14 -17 -16 -11
-3 -8 7 0 -13 -16 -15 -10
-2 -6 7 1 -12 -15 -14 -9
0 -4 8 2 -11 -14 -13 -8
1 -2 8 3 -10 -13 -12 -7
2 0 9 4 -9 -12 -11 -6
2 0 10 4 -9 -12 -11 -6
2 0 10 4 -9 -11 -11 -6
2 0 11 4 -9 -11 -11 -6
2 0 11 4 -9 -11 -11 -6
3 -2 11 5 -8 -11 -10 -6
3 -3 9 5 -9 -12 -11 -6
3 -4 8 4 -10 -13 -12 -6
3 -5 6 4 -11 -14 -13 -6
3 -6 5 4 -11 -15 -14 -6
3 -7 4 3 -12 -15 -14 -7
4 -7 4 3 -11 -14 -13 -6
5 -6 4 3 -10 -12 -12 -6
6 -6 4 3 -9 -11 -11 -5
7 -6 4 3 -9 -10 -10 -5
8 -5 2 2 -9 -10 -9 -4
8 -5 0 0 -11 -11 -10 -4
8 -4 -2 -3 -13 -13 -10 -4
8 -4 -4 -6 -15 -14 -11 -4
8 -4 -5 -8 -16 -15 -11 -4
8 -5 -6 -9 -17 -16 -12 -6
8 -7 -6 -9 -17 -17 -13 -7
7 -9 -6 -9 -17 -17 -14 -9
7 -12 -6 -9 -17 -18 -15 -10
7 -14 -6 -9 -17 -18 -16 -11
6 -15 -5 -9 -18 -19 -17 -12
6 -15 -5 -9 -18 -19 -17 -12
6 -14 -5 -10 -19 -20 -17 -12
6 -14 -5 -10 -19 -20 -17 -12
6 -14 -5 -10 -19 -20 -17 -12
5 -13 -5 -11 -20 -21 -16 -11
4 -13 -5 -11 -20 -21 -16 -11
3 -13 -5 -11 -20 -21 -16 -11
2 -13 -5 -11 -20 -21 -16 -11
2 -13 -5 -11 -20 -21 -16 -11
1 -14 -5 -11 -21 -20 -16 -11
0 -15 -4 -12 -21 -21 -17 -12
-2 -16 -4 -12 -22 -22 -18 -13
-3 -17 -3 -13 -22 -23 -19 -14
-4 -17 -3 -13 -22 -23 -20 -15
-5 -18 -2 -14 -23 -24 -21 -16
-5 -18 -2 -14 -23 -24 -21 -16
-5 -18 -3 -14 -23 -25 -21 -16
-5 -18 -3 -14 -23 -25 -21 -16
-5 -18 -3 -14 -23 -25 -21 -16
-5 -18 -4 -15 -24 -26 -22 -16
-5 -18 -4 -15 -24 -25 -22 -16
-5 -18 -4 -15 -24 -25 -22 -16
-5 -18 -4 -15 -24 -24 -22 -16
-5 -18 -4 -15 -24 -24 -22 -16
-5 -19 -3 -15 -23 -23 -22 -16
-5 -19 -2 -15 -23 -23 -21 -15
-5 -18 -2 -14 -23 -23 -20 -15
-5 -18 0 -14 -23 -23 -19 -14
-5 -18 0 -14 -23 -23 -19 -14
-6 -17 1 -13 -22 -22 -18 -13
-6 -17 1 -13 -21 -21 -17 -13
-6 -17 1 -12 -20 -20 -17 -12
-6 -17 1 -12 -19 -19 -16 -12
-6 -17 1 -12 -18 -18 -16 -12
-4 -17 1 -8 -16 -17 -16 -12
-2 -20 2 -5 -15 -18 -17 -14
1 -22 2 0 -14 -18 -18 -16
2 -24 3 3 -13 -19 -19 -18
4 -26 3 7 -12 -19 -20 -20
8 -27 9 22 -2 -13 -18 -21
11 -27 15 39 10 -5 -14 -21
15 -27 22 56 20 4 -10 -21
18 -27 28 73 31 12 -6 -21
22 -27 35 90 43 20 -2 -21
27 -18 40 101 65 50 22 -9
32 -7 47 111 90 81 48 7
37 6 53 121 114 113 74 21
44 17 58 131 139 146 100 36
49 28 64 141 163 178 127 51
46 51 62 123 178 204 154 73
40 74 58 100 190 229 183 97
35 98 54 76 202 255 211 119
29 122 50 53 215 279 239 143
24 146 46 30 227 305 268 165
9 149 28 -17 175 251 234 160
-9 146 8 -68 112 183 189 150
-27 144 -12 -119 49 114 144 139
-45 142 -31 -171 -15 47 100 129
-62 140 -52 -221 -78 -22 55 117
-61 119 -64 -230 -103 -49 29 98
-55 96 -75 -232 -120 -69 7 76
-50 72 -87 -234 -139 -89 -16 55
-44 50 -99 -236 -156 -109 -38 33
-37 26 -110 -238 -175 -130 -61 12
-34 18 -104 -218 -162 -122 -61 5
-31 14 -94 -192 -145 -109 -56 1
-27 9 -82 -165 -127 -96 -51 -3
-24 4 -72 -140 -108 -82 -46 -7
-21 -2 -62 -113 -90 -69 -40 -11
-18 -4 -53 -96 -77 -61 -36 -12
-16 -5 -44 -79 -67 -53 -33 -12
-14 -6 -34 -62 -56 -46 -29 -12
-11 -7 -25 -46 -45 -37 -26 -12
-9 -8 -16 -29 -33 -30 -22 -12
-8 -9 -13 -24 -30 -27 -21 -11
-8 -10 -12 -21 -27 -26 -20 -11
-7 -11 -10 -17 -25 -24 -19 -11
-7 -12 -8 -14 -23 -22 -18 -11
-7 -12 -7 -11 -21 -21 -18 -11
-6 -13 -6 -9 -20 -20 -17 -10
-5 -13 -6 -8 -20 -20 -17 -10
-5 -13 -5 -7 -20 -20 -17 -10
-4 -13 -5 -5 -20 -20 -17 -10
-4 -13 -5 -4 -20 -20 -17 -10
-3 -12 -4 -3 -18 -18 -16 -10
-3 -13 -4 -3 -17 -17 -16 -10
-4 -13 -3 -3 -16 -16 -15 -10
-4 -14 -3 -3 -15 -15 -15 -10
-4 -14 -3 -3 -14 -14 -15 -10
-5 -15 -2 -2 -13 -13 -14 -10
-5 -14 -2 0 -13 -13 -14 -10
-5 -14 -2 1 -13 -13 -14 -10
-5 -13 -2 2 -13 -13 -14 -10
-5 -13 -2 2 -13 -13 -14 -10
-4 -12 -2 3 -14 -13 -13 -11
-4 -12 -2 3 -13 -12 -12 -11
-4 -13 -2 3 -12 -12 -12 -10
-4 -13 -2 3 -11 -11 -11 -10
-4 -13 -2 3 -10 -11 -11 -10
-3 -14 0 3 -9 -10 -10 -9
-3 -14 0 3 -9 -10 -10 -9
-3 -14 0 3 -10 -10 -10 -9
-3 -14 0 3 -10 -10 -10 -9
-3 -14 0 3 -10 -10 -10 -9
-2 -13 -2 4 -11 -11 -11 -10
-2 -13 -2 4 -10 -10 -11 -10
0 -14 -2 5 -9 -10 -10 -10
0 -14 -2 5 -8 -9 -10 -10
0 -14 -2 5 -8 -9 -10 -10
1 -15 -2 6 -7 -8 -9 -9
1 -14 -2 7 -7 -8 -8 -8
1 -14 -2 8 -7 -7 -8 -8
1 -13 -2 9 -7 -7 -7 -7
1 -13 -2 9 -7 -7 -7 -7
1 -12 -2 10 -6 -6 -6 -6
1 -12 -2 10 -5 -5 -6 -6
2 -12 -2 11 -4 -4 -5 -5
2 -12 -2 11 -2 -3 -5 -5
2 -12 -2 11 0 -2 -5 -5
3 -11 -2 12 1 0 -4 -4
3 -11 -2 13 1 0 -4 -4
3 -11 -2 13 1 0 -3 -4
3 -11 -2 14 1 0 -3 -4
3 -11 -2 14 1 0 -3 -4
3 -11 -2 15 0 1 -2 -4
4 -11 -2 15 1 3 0 -4
5 -10 -3 16 1 4 1 -3
6 -10 -3 16 2 5 2 -3
6 -10 -3 16 2 6 3 -3
7 -9 -4 17 3 7 4 -2
8 -9 -4 18 4 7 4 0
8 -8 -5 19 5 8 5 1
9 -8 -5 20 6 8 5 2
9 -8 -5 20 6 8 5 3
10 -7 -6 21 8 10 7 4
10 -6 -6 21 9 12 9 4
10 -6 -6 22 11 14 11 5
10 -5 -6 22 13 16 13 5
10 -5 -6 22 14 18 15 5
11 -3 -7 23 16 20 16 6
11 -2 -7 25 17 21 17 8
12 1 -7 26 18 22 18 9
12 3 -7 27 20 24 19 10
12 4 -7 28 21 25 20 11
13 5 -7 29 23 27 22 12
14 6 -8 29 24 29 24 13
15 7 -8 30 25 31 27 14
16 8 -9 30 27 33 29 15
16 8 -9 30 28 35 31 15
17 9 -10 31 29 37 33 17
17 10 -10 32 31 39 35 20
18 11 -11 33 32 42 37 22
18 12 -11 34 33 44 39 25
18 12 -11 35 34 46 42 27
19 14 -12 36 36 48 44 29
21 15 -12 36 37 50 46 30
22 16 -12 37 39 53 48 31
23 18 -12 37 42 55 50 33
24 19 -12 37 43 57 52 34
25 21 -13 38 44 58 54 36
26 24 -14 39 46 60 56 37
26 26 -14 40 47 61 57 38
27 29 -15 42 48 62 59 40
27 31 -15 42 49 63 61 42
28 32 -16 43 50 65 63 44
28 33 -16 43 52 67 65 45
29 34 -15 43 53 68 66 46
29 35 -15 43 54 70 68 48
29 35 -15 43 55 72 70 49
30 37 -14 42 56 73 71 50
30 39 -14 42 56 74 72 52
30 40 -14 42 56 74 73 53
30 43 -14 42 56 75 74 54
30 45 -14 42 56 75 74 55
31 46 -15 42 57 76 75 56
31 46 -15 42 58 77 75 57
31 46 -15 40 58 78 75 57
31 46 -15 40 59 79 75 58
31 46 -15 40 59 79 75 58
30 47 -14 39 60 80 76 59
29 48 -14 39 60 80 76 59
29 48 -13 39 60 80 76 59
28 49 -13 39 60 80 76 59
28 49 -13 39 60 80 76 59
27 50 -12 38 60 79 75 58
27 50 -11 38 60 79 74 57
27 50 -10 38 60 78 74 56
27 50 -9 38 60 78 73 55
27 50 -8 38 60 78 73 55
27 49 -7 38 58 76 71 53
25 47 -6 38 57 74 69 51
24 46 -6 37 56 72 67 50
23 44 -5 37 54 70 65 48
22 42 -5 37 53 68 63 46
21 39 -4 36 52 66 61 44
20 38 -3 36 51 64 59 42
19 36 -2 36 50 62 56 40
18 35 0 36 50 60 54 38
17 33 1 36 49 58 52 36
15 31 2 35 47 55 49 34
14 29 3 35 45 52 46 32
12 26 4 34 42 49 42 29
11 24 4 34 39 46 38 27
9 22 5 34 37 43 34 25
8 20 6 32 35 39 32 23
8 19 6 31 33 37 29 21
8 17 6 29 30 34 27 18
8 16 6 28 28 31 25 16
8 14 6 26 26 28 22 14
8 13 5 25 24 26 20 13
7 12 5 24 22 24 18 12
6 11 5 23 20 22 17 11
4 10 5 22 18 20 15 11
3 9 5 21 16 18 13 10
2 8 5 19 14 16 11 9
2 7 5 18 13 15 10 7
2 6 5 16 12 13 9 6
2 6 5 15 10 12 7 5
2 5 5 13 9 10 6 4
1 4 4 12 8 8 5 3
1 3 4 11 7 7 3 2
1 3 3 11 6 5 2 1
1 2 3 10 5 4 1 1
1 2 3 10 4 2 0 0
0 1 2 9 3 1 -2 -2
-2 0 2 9 3 1 -2 -2
-2 -2 2 8 2 1 -2 -2
-3 -3 2 8 2 1 -2 -2
-3 -4 2 8 2 1 -2 -2
-4 -5 3 7 1 2 0 -2
-3 -4 3 6 1 1 0 -2
-2 -3 2 6 0 1 -2 -2
-2 -2 2 5 0 0 -2 -2
0 0 2 5 0 0 -2 -2
1 1 1 4 -2 -2 -3 -3
0 1 1 3 -2 -2 -3 -3
0 0 1 3 -2 -2 -3 -3
-2 0 1 2 -2 -2 -3 -3
-2 0 1 2 -2 -2 -3 -3
-3 -2 2 1 -3 -2 -4 -4
-3 -2 2 1 -3 -2 -4 -4
-2 -2 2 1 -3 -2 -4 -4
-2 -2 2 1 -3 -2 -4 -4
-2 -2 2 1 -3 -2 -4 -4
0 0 2 1 -2 -3 -5 -3
-2 0 2 1 0 -3 -5 -3
-3 0 2 1 1 -3 -5 -3
-3 0 2 1 1 -3 -5 -3
-4 0 2 1 2 -3 -5 -3
-5 1 3 1 3 -2 -4 -2
-5 1 3 1 2 -3 -5 -3
-4 1 2 1 2 -4 -6 -3
-4 1 2 1 1 -4 -6 -4
-4 1 2 1 1 -5 -7 -4
-3 1 1 1 0 -6 -8 -5
-3 1 1 1 0 -6 -7 -5
-3 0 1 1 0 -6 -7 -4
-3 0 1 1 0 -6 -6 -4
-3 0 1 1 0 -6 -6 -4
-4 -2 2 0 0 -5 -5 -3
-5 -2 2 0 0 -5 -5 -3
-5 -2 2 1 0 -5 -5 -3
-6 -2 2 1 0 -5 -5 -3
-6 -2 2 1 0 -5 -5 -3
-7 -3 3 2 1 -4 -4 -2
-7 -3 3 2 1 -5 -5 -2
-6 -3 2 2 0 -5 -6 -2
-6 -3 2 2 0 -6 -6 -2
-6 -3 2 2 0 -6 -7 -2
-5 -2 1 1 -2 -7 -8 -3
-5 -2 1 1 -2 -7 -8 -3
-5 -2 1 1 -2 -7 -8 -3
-5 -2 1 1 -2 -7 -8 -3
-5 -2 1 1 -2 -7 -8 -3
-5 -2 0 1 -3 -8 -7 -4
-5 -2 0 1 -3 -8 -7 -4
-5 -2 1 1 -3 -8 -7 -4
-5 -2 1 1 -3 -8 -7 -4
-5 -2 1 1 -3 -8 -7 -4
-4 -2 2 1 -4 -7 -7 -3
-4 -2 2 1 -4 -7 -7 -3
-4 -2 2 1 -3 -8 -8 -3
-4 -2 2 1 -3 -8 -8 -3
-4 -2 2 1 -3 -8 -8 -3
-5 -2 1 1 -2 -9 -9 -4
-5 -2 1 1 -2 -9 -9 -4
-4 -2 1 1 -2 -9 -9 -5
-4 -2 1 1 -2 -9 -9 -5
-4 -2 1 1 -2 -9 -9 -5
-3 -3 0 1 -3 -9 -10 -6
-3 -3 0 1 -3 -9 -10 -6
-2 -3 0 1 -4 -10 -10 -6
-2 -3 0 1 -4 -10 -10 -6
-2 -3 0 1 -4 -10 -10 -6
0 -3 1 0 -5 -11 -10 -6
-2 -3 1 0 -5 -11 -10 -6
-3 -4 1 0 -5 -11 -11 -7
-3 -5 1 0 -5 -11 -11 -7
-4 -5 1 0 -5 -11 -11 -7
-5 -6 2 0 -4 -12 -12 -8
-5 -6 2 0 -4 -12 -12 -8
-5 -6 1 0 -5 -13 -13 -9
-5 -6 1 0 -6 -13 -14 -9
-5 -6 1 0 -6 -13 -14 -9
-4 -6 0 0 -7 -14 -15 -10
-4 -7 0 0 -7 -14 -15 -10
-4 -8 0 -2 -7 -14 -15 -10
-4 -8 0 -2 -7 -14 -15 -10
-4 -9 0 -2 -7 -14 -15 -10
-4 -10 1 -3 -8 -14 -15 -10
-4 -10 1 -3 -8 -14 -15 -10
-4 -10 1 -3 -8 -14 -15 -10
-4 -10 1 -3 -8 -14 -15 -10
-4 -10 1 -3 -8 -14 -15 -10
-5 -10 0 -3 -8 -15 -15 -10
-5 -10 0 -3 -8 -15 -15 -10
-5 -10 0 -3 -9 -15 -15 -10
-5 -10 0 -3 -9 -15 -15 -10
-5 -10 0 -3 -9 -15 -15 -10
-4 -10 -2 -4 -10 -15 -16 -11
-4 -10 -2 -4 -10 -15 -16 -11
-4 -10 -2 -4 -10 -16 -16 -11
-4 -10 -2 -4 -10 -16 -16 -11
-4 -10 -2 -4 -10 -16 -16 -11
-5 -11 -2 -5 -11 -17 -16 -11
-5 -11 -2 -5 -11 -17 -16 -11
-5 -12 -2 -5 -10 -16 -16 -11
-5 -12 -2 -5 -10 -15 -16 -11
-5 -12 -2 -5 -10 -15 -16 -11
-5 -13 0 -5 -9 -14 -15 -12
-5 -13 0 -5 -9 -15 -15 -12
-6 -12 -2 -5 -10 -16 -16 -12
-6 -12 -2 -5 -11 -16 -17 -12
-6 -12 -2 -5 -11 -17 -17 -12
-7 -11 -3 -5 -12 -18 -18 -12
-7 -11 -3 -5 -12 -18 -18 -12
-6 -11 -3 -6 -12 -18 -18 -12
-6 -11 -3 -6 -12 -18 -18 -12
-6 -11 -3 -6 -12 -18 -18 -12
-5 -11 -3 -7 -13 -18 -19 -13
-5 -11 -3 -7 -13 -18 -19 -13
-4 -11 -3 -7 -13 -18 -19 -13
-3 -11 -3 -7 -13 -18 -19 -13
-3 -11 -3 -7 -13 -18 -19 -13
-2 -10 -3 -6 -14 -19 -19 -14
-3 -10 -3 -6 -14 -19 -19 -14
-4 -10 -3 -6 -14 -19 -19 -14
-4 -10 -3 -6 -14 -19 -19 -14
-5 -10 -3 -6 -14 -19 -19 -14
-6 -11 -2 -7 -13 -18 -19 -14
-6 -11 -2 -7 -13 -18 -19 -14
-6 -11 -2 -7 -14 -19 -19 -14
-6 -11 -2 -7 -14 -19 -19 -14
-6 -11 -2 -7 -14 -19 -19 -14
-6 -11 -2 -7 -15 -20 -19 -14
-6 -11 -2 -7 -15 -20 -19 -14
-6 -12 -2 -7 -15 -20 -20 -15
-6 -12 -2 -7 -15 -20 -20 -15
-6 -12 -2 -7 -15 -20 -20 -15
-5 -13 -3 -8 -15 -21 -21 -16
-5 -13 -3 -8 -15 -21 -21 -16
-5 -13 -3 -7 -15 -21 -21 -16
-5 -13 -3 -7 -15 -21 -21 -16
-5 -13 -3 -7 -15 -21 -21 -16
-5 -12 -2 -6 -14 -20 -21 -15
-5 -12 -2 -6 -14 -20 -21 -15
-4 -12 -2 -6 -14 -20 -21 -15
-4 -12 -2 -6 -14 -20 -21 -15
-4 -12 -2 -6 -14 -20 -21 -15
-3 -13 -3 -7 -13 -20 -21 -16
-4 -13 -3 -7 -13 -20 -21 -16
-5 -13 -3 -7 -13 -20 -21 -15
-5 -13 -3 -7 -13 -20 -21 -15
-6 -13 -3 -7 -13 -20 -21 -15
-7 -13 -2 -6 -14 -19 -21 -14
-7 -13 -2 -6 -14 -19 -21 -14
-7 -13 -2 -6 -14 -19 -21 -14
-7 -13 -2 -6 -14 -19 -21 -14
-7 -13 -2 -6 -14 -19 -21 -14
-6 -14 -3 -6 -15 -19 -20 -15
-6 -14 -3 -6 -15 -19 -20 -15
-6 -13 -3 -6 -15 -19 -20 -15
-6 -13 -3 -6 -15 -19 -20 -15
-6 -13 -3 -6 -15 -19 -20 -15
-5 -12 -3 -7 -15 -20 -19 -15
-5 -12 -3 -7 -15 -20 -20 -15
-5 -13 -3 -7 -15 -20 -21 -16
-5 -14 -3 -7 -15 -20 -21 -17
-5 -14 -3 -7 -15 -20 -22 -17
-6 -15 -4 -8 -16 -21 -23 -18
-6 -15 -4 -8 -16 -21 -23 -17
-7 -15 -4 -7 -16 -20 -22 -16
-8 -15 -4 -7 -16 -20 -21 -16
-8 -15 -4 -7 -16 -20 -21 -15
-9 -14 -4 -6 -15 -19 -20 -14
-9 -14 -4 -6 -15 -19 -20 -14
-8 -14 -4 -7 -15 -19 -20 -14
-7 -14 -4 -7 -15 -19 -20 -14
-7 -14 -4 -7 -15 -19 -20 -14
-6 -15 -3 -8 -15 -19 -20 -15
-6 -14 -3 -8 -15 -19 -20 -15
-6 -13 -4 -8 -15 -19 -20 -15
-6 -13 -4 -8 -15 -19 -20 -15
-6 -12 -4 -8 -15 -19 -20 -15
-6 -11 -5 -7 -16 -20 -21 -15
-6 -11 -5 -7 -16 -20 -21 -15
-5 -12 -5 -7 -16 -20 -20 -15
-5 -12 -5 -7 -16 -20 -19 -15
-5 -12 -5 -7 -16 -20 -19 -15
-4 -13 -4 -7 -15 -19 -18 -14
-4 -13 -4 -7 -15 -19 -19 -14
-5 -13 -4 -7 -16 -20 -20 -14
-6 -13 -4 -7 -16 -20 -20 -14
-6 -13 -4 -7 -16 -20 -21 -14
-7 -14 -4 -6 -17 -21 -22 -15
-7 -14 -4 -6 -17 -21 -22 -15
-7 -14 -3 -6 -17 -20 -22 -15
-7 -14 -3 -6 -17 -20 -22 -15
-7 -14 -3 -6 -17 -20 -22 -15
-6 -15 -2 -7 -16 -19 -22 -16
-6 -15 -3 -7 -16 -19 -22 -16
-5 -14 -4 -7 -16 -19 -22 -16
-5 -14 -4 -7 -16 -19 -22 -16
-5 -14 -5 -7 -16 -19 -22 -16
-4 -13 -6 -7 -16 -20 -22 -17
-4 -13 -6 -7 -16 -20 -22 -17
-4 -13 -5 -7 -16 -20 -21 -17
-4 -13 -4 -7 -16 -20 -21 -17
-4 -13 -4 -7 -16 -20 -21 -17
-5 -13 -3 -7 -15 -20 -20 -16
-5 -11 -2 -6 -14 -19 -19 -16
-4 -10 0 -5 -13 -18 -18 -15
-4 -9 0 -4 -13 -17 -18 -14
-4 -7 1 -3 -12 -16 -17 -14
-3 -6 2 -2 -11 -15 -16 -13
-3 -6 2 -2 -11 -15 -16 -13
-2 -5 3 0 -10 -14 -15 -12
0 -4 4 1 -9 -13 -15 -12
0 -4 4 1 -9 -13 -15 -12
1 -3 5 2 -8 -12 -14 -11
1 -4 5 2 -8 -12 -14 -11
1 -5 4 2 -9 -12 -15 -11
1 -5 4 2 -9 -12 -16 -11
1 -6 4 2 -9 -12 -16 -11
2 -7 3 2 -10 -13 -17 -12
3 -7 3 2 -10 -13 -17 -12
4 -6 3 3 -9 -13 -16 -12
5 -6 3 3 -9 -13 -15 -12
6 -6 3 3 -9 -13 -15 -12
7 -5 2 4 -8 -12 -14 -11
7 -5 0 3 -8 -12 -14 -11
6 -4 -3 2 -9 -12 -13 -10
5 -4 -4 1 -9 -12 -13 -9
5 -4 -6 0 -9 -12 -13 -9
4 -3 -7 -2 -10 -11 -12 -8
4 -5 -7 -4 -11 -13 -13 -8
3 -6 -7 -5 -13 -14 -14 -9
3 -7 -7 -6 -14 -15 -15 -10
3 -9 -7 -8 -15 -17 -16 -10
2 -10 -8 -9 -16 -18 -17 -11
2 -11 -8 -9 -17 -19 -18 -12
3 -12 -8 -10 -18 -20 -19 -13
3 -12 -8 -10 -19 -20 -20 -14
3 -13 -8 -10 -20 -21 -21 -15
4 -14 -8 -11 -21 -22 -22 -16
4 -14 -8 -11 -21 -22 -22 -16
4 -15 -8 -11 -21 -22 -21 -16
4 -15 -8 -11 -21 -22 -21 -16
4 -15 -8 -11 -21 -22 -21 -16
4 -16 -8 -12 -20 -22 -20 -15
2 -16 -8 -12 -20 -22 -21 -15
0 -15 -7 -12 -21 -22 -22 -15
-2 -14 -7 -12 -21 -22 -22 -15
-4 -14 -7 -12 -21 -22 -23 -15
-5 -13 -6 -13 -22 -23 -24 -16
-5 -14 -6 -13 -22 -23 -24 -16
-5 -15 -6 -14 -23 -24 -25 -17
-5 -16 -6 -14 -24 -24 -25 -18
-5 -17 -6 -14 -24 -24 -25 -18
-4 -18 -7 -15 -25 -25 -26 -19
-5 -18 -7 -15 -25 -25 -26 -19
-6 -18 -7 -15 -25 -25 -25 -19
-7 -18 -7 -15 -25 -25 -25 -19
-8 -18 -7 -15 -25 -25 -25 -19
-9 -18 -6 -14 -24 -26 -24 -19
-9 -18 -6 -14 -24 -26 -24 -19
-9 -19 -6 -14 -24 -26 -24 -19
-9 -19 -6 -14 -24 -26 -24 -19
-9 -19 -6 -14 -24 -26 -24 -19
-10 -20 -6 -15 -23 -25 -25 -19
-10 -20 -6 -14 -23 -25 -25 -19
-10 -20 -6 -13 -23 -25 -25 -19
-10 -20 -6 -13 -23 -25 -25 -19
-10 -20 -6 -12 -23 -25 -25 -19
-11 -20 -5 -11 -23 -25 -25 -20
-11 -19 -5 -11 -22 -23 -24 -20
-11 -18 -4 -11 -21 -22 -23 -19
-11 -18 -4 -11 -21 -21 -22 -18
-11 -17 -4 -11 -20 -19 -21 -18
-10 -16 -3 -8 -18 -18 -20 -17
-6 -17 -3 -2 -16 -18 -22 -19
-2 -18 -2 6 -14 -19 -24 -20
3 -19 0 13 -13 -20 -25 -21
7 -20 0 19 -11 -20 -27 -23
10 -21 4 30 -3 -16 -25 -24
14 -22 12 47 10 -6 -19 -23
17 -22 19 62 22 6 -13 -23
21 -23 26 77 35 17 -6 -22
25 -24 34 94 48 27 1 -21
29 -18 39 105 66 49 18 -12
35 -4 44 112 90 81 47 6
40 11 47 119 113 114 75 23
47 26 51 128 138 147 104 42
53 40 55 135 161 179 133 59
50 59 56 126 174 200 155 77
36 79 54 97 174 210 172 99
22 101 51 68 175 219 188 119
9 122 48 40 176 228 204 141
-6 144 46 12 176 237 220 161
-19 152 33 -26 148 212 207 164
-31 146 12 -73 89 148 161 146
-44 140 -10 -120 28 84 115 128
-57 133 -31 -168 -31 19 69 109
-69 127 -54 -215 -91 -45 23 92
-73 112 -67 -235 -124 -81 -8 73
-66 90 -73 -226 -132 -90 -21 56
-60 67 -79 -218 -138 -98 -34 37
-53 46 -86 -208 -144 -106 -48 20
-46 23 -91 -199 -150 -113 -62 3
-39 10 -90 -184 -146 -112 -66 -8
-35 8 -79 -161 -129 -100 -60 -9
-31 6 -68 -139 -110 -87 -54 -10
-27 4 -57 -116 -93 -74 -47 -12
-23 2 -46 -94 -75 -61 -40 -13
-20 0 -36 -76 -62 -52 -35 -14
-18 -3 -30 -64 -54 -47 -33 -14
-16 -4 -24 -52 -47 -41 -31 -14
-14 -5 -17 -40 -38 -36 -29 -14
-12 -7 -11 -28 -31 -31 -27 -14
-11 -8 -7 -20 -26 -28 -25 -14
-11 -8 -6 -18 -24 -26 -24 -14
-10 -8 -5 -16 -23 -25 -24 -14
-9 -8 -4 -14 -22 -24 -23 -14
-9 -8 -3 -12 -20 -22 -22 -14
-8 -8 -2 -10 -19 -21 -21 -14
-8 -9 0 -9 -19 -21 -21 -14
-8 -10 0 -8 -18 -21 -21 -14
-8 -11 1 -7 -17 -20 -21 -15
-8 -12 2 -6 -17 -20 -21 -15
-8 -13 3 -5 -16 -19 -21 -16
-8 -13 3 -5 -16 -19 -21 -16
-8 -13 3 -5 -16 -19 -21 -16
-7 -13 3 -5 -15 -18 -20 -16
-7 -13 3 -5 -15 -18 -20 -16
-6 -13 2 -4 -14 -17 -19 -15
-6 -13 2 -4 -14 -17 -19 -15
-6 -13 2 -3 -14 -17 -19 -15
-5 -13 2 -2 -14 -17 -19 -15
-5 -13 2 -2 -14 -17 -19 -15
-4 -13 1 0 -13 -16 -18 -15
-4 -13 1 0 -13 -16 -18 -15
-4 -13 1 0 -13 -16 -18 -15
-4 -13 2 0 -13 -15 -17 -15
-4 -13 2 0 -13 -15 -17 -15
-4 -12 3 0 -12 -14 -16 -14
-4 -12 3 0 -12 -14 -16 -14
-4 -12 3 0 -12 -14 -16 -14
-4 -12 3 0 -12 -14 -16 -14
-4 -12 3 0 -12 -14 -16 -14
-3 -12 3 0 -13 -13 -17 -14
-3 -12 3 0 -12 -13 -17 -14
-3 -12 3 1 -12 -13 -16 -14
-3 -12 3 2 -11 -12 -15 -13
-3 -12 3 2 -10 -12 -15 -13
-3 -12 3 3 -9 -11 -14 -12
-3 -12 5 3 -8 -11 -14 -12
-3 -12 6 3 -8 -11 -14 -11
-3 -12 7 4 -7 -10 -13 -10
-3 -12 9 4 -6 -10 -13 -10
-3 -11 10 5 -5 -9 -12 -9
-3 -11 10 5 -5 -8 -12 -9
-2 -11 10 5 -5 -8 -11 -9
0 -11 10 5 -5 -7 -10 -9
0 -11 10 5 -5 -6 -10 -9
1 -10 10 5 -4 -5 -9 -10
1 -10 10 5 -4 -5 -9 -10
1 -10 10 6 -3 -5 -8 -9
1 -9 10 7 -2 -4 -7 -8
1 -9 10 7 -2 -4 -7 -8
2 -8 11 8 0 -3 -6 -7
2 -8 11 8 0 -2 -6 -7
2 -8 11 9 1 0 -6 -7
2 -7 11 10 2 1 -6 -7
2 -7 11 10 2 2 -6 -7
3 -6 10 11 3 3 -5 -6
4 -6 10 11 3 3 -4 -5
5 -6 9 11 3 3 -3 -5
7 -5 8 12 3 4 0 -4
8 -5 8 12 3 4 1 -3
9 -4 7 13 4 5 2 -2
9 -3 7 13 5 7 3 0
9 -2 7 13 6 9 5 1
9 0 8 14 8 11 6 3
9 1 8 14 9 12 8 4
8 2 9 15 10 14 9 5
9 2 9 16 11 15 10 6
9 3 9 17 12 16 11 7
10 4 9 19 14 17 13 8
11 4 9 20 15 18 14 9
12 5 8 21 16 19 15 10
13 6 8 21 17 21 17 11
13 7 8 21 18 22 19 13
14 9 7 22 19 24 21 14
15 10 7 22 20 26 22 16
16 11 6 23 21 27 24 17
17 13 6 24 22 29 26 18
17 14 6 25 24 31 28 20
18 16 6 26 25 33 30 21
19 18 6 27 27 35 32 23
20 19 5 28 28 37 34 24
20 20 5 28 29 39 36 26
21 21 5 28 31 42 38 27
22 23 5 29 32 44 40 29
22 24 5 29 34 45 43 31
23 25 5 30 35 47 45 32
24 26 5 30 36 48 46 33
24 27 4 30 36 49 48 34
25 28 3 31 37 51 49 36
26 29 3 31 38 52 51 37
27 30 2 32 39 53 52 38
27 31 2 32 40 54 54 39
27 33 2 32 40 55 55 40
27 34 3 33 42 57 57 43
27 36 3 33 43 58 59 44
27 37 4 34 44 59 60 45
27 38 4 34 45 60 61 46
27 39 4 34 45 61 62 47
27 42 4 34 46 62 63 49
27 43 4 34 47 63 64 50
27 44 4 35 48 64 65 51
27 44 4 35 48 64 65 51
27 44 4 35 49 65 65 52
27 44 4 35 50 66 66 53
27 44 4 35 50 66 66 53
27 45 5 34 51 67 67 54
27 45 6 34 51 67 67 54
27 46 7 34 51 67 67 54
26 47 8 34 51 67 67 54
26 47 9 34 51 67 67 54
25 48 10 35 51 68 68 54
25 48 10 35 51 68 67 53
25 47 10 35 51 68 66 52
25 46 10 35 51 67 65 51
25 46 10 35 51 67 64 50
24 45 11 35 50 66 63 49
23 44 13 35 50 65 62 48
21 43 14 35 50 64 61 47
20 40 16 36 50 62 59 45
18 39 17 36 50 61 58 44
17 38 19 37 49 60 56 43
17 35 19 37 47 57 53 39
17 33 19 36 45 55 50 37
16 31 19 35 43 52 47 34
16 29 19 35 40 50 44 32
15 26 20 34 38 47 40 30
14 23 20 34 37 44 37 27
13 20 20 34 36 40 34 24
12 17 20 33 35 37 31 22
11 14 20 33 34 34 28 19
10 11 21 32 33 32 26 17
10 11 22 32 32 31 25 17
10 12 23 32 31 30 24 16
10 13 25 31 29 29 23 15
10 13 26 31 28 28 22 15
9 14 27 30 27 26 20 14
8 11 27 29 25 24 18 11
7 8 27 28 22 21 15 9
6 6 26 26 20 18 12 6
5 3 26 25 18 15 9 4
4 1 25 24 16 13 7 2
4 1 25 22 15 12 6 2
4 0 25 20 14 11 5 2
3 -2 24 18 13 9 4 1
3 -2 24 17 12 8 3 1
2 -3 23 15 11 7 2 0
2 -3 23 15 10 6 1 -2
2 -3 23 14 9 5 0 -2
1 -4 23 13 8 4 -3 -3
1 -4 23 13 7 3 -4 -4
0 -5 23 12 6 2 -5 -5
0 -5 23 12 5 2 -5 -5
0 -5 23 11 4 1 -5 -5
0 -6 22 10 3 0 -6 -5
0 -6 22 10 2 0 -6 -5
-2 -7 21 9 1 -2 -7 -6
-2 -7 21 9 1 -2 -7 -6
-3 -7 21 9 1 -2 -7 -6
-4 -8 21 8 1 -3 -8 -6
-4 -8 21 8 1 -3 -8 -6
-5 -9 20 7 1 -4 -9 -6
-5 -9 20 7 1 -4 -9 -6
-5 -9 20 6 0 -4 -9 -7
-5 -9 20 5 -2 -4 -9 -8
-5 -9 20 5 -2 -4 -9 -8
-4 -8 19 4 -3 -5 -10 -9
-4 -8 19 4 -3 -5 -10 -9
-4 -8 19 4 -3 -5 -10 -9
-4 -8 19 4 -3 -5 -9 -9
-4 -8 19 4 -3 -5 -9 -9
-5 -7 19 5 -2 -6 -8 -8
-5 -7 19 5 -2 -6 -8 -8
-5 -7 18 5 -2 -6 -8 -8
-5 -7 18 4 -3 -6 -8 -8
-5 -7 17 4 -3 -6 -8 -8
-5 -7 16 3 -4 -5 -9 -8
-5 -7 16 3 -4 -5 -9 -8
-5 -7 16 3 -4 -5 -9 -8
-5 -7 17 4 -4 -5 -9 -7
-5 -7 17 4 -4 -5 -9 -7
-5 -6 18 5 -3 -5 -8 -6
-5 -6 18 5 -3 -5 -8 -6
-5 -6 18 5 -3 -5 -8 -6
-5 -7 18 4 -3 -6 -8 -6
-5 -7 18 4 -3 -6 -8 -6
-6 -8 17 3 -4 -7 -9 -6
-6 -7 17 3 -4 -7 -9 -6
-6 -7 17 3 -4 -7 -9 -6
-5 -6 16 3 -5 -8 -10 -6
-5 -5 16 3 -5 -8 -10 -6
-4 -4 15 4 -6 -9 -11 -6
-4 -4 15 4 -6 -9 -11 -6
-4 -4 15 4 -6 -9 -11 -6
-5 -5 16 4 -6 -8 -10 -6
-5 -5 16 4 -6 -8 -10 -6
-6 -6 17 3 -5 -7 -9 -6
-6 -6 17 3 -5 -7 -9 -6
-6 -6 17 3 -5 -7 -9 -6
-5 -7 17 3 -6 -8 -10 -6
-5 -7 17 3 -6 -8 -10 -6
-4 -8 16 4 -7 -9 -11 -7
-4 -8 16 4 -7 -9 -11 -7
-4 -8 16 4 -7 -9 -11 -7
-4 -8 15 3 -7 -9 -12 -8
-4 -8 15 3 -7 -9 -12 -8
-5 -9 14 2 -8 -10 -13 -9
-5 -9 14 2 -8 -10 -13 -9
-5 -9 14 2 -8 -10 -13 -9
-5 -9 14 2 -8 -11 -13 -9
-5 -9 14 2 -8 -11 -13 -9
-4 -9 14 3 -9 -12 -13 -9
-4 -9 14 3 -9 -12 -13 -9
-4 -9 14 3 -9 -12 -13 -9
-4 -9 14 3 -10 -12 -13 -9
-4 -9 14 3 -10 -12 -13 -9
-5 -9 13 2 -11 -12 -12 -9
-5 -9 13 2 -11 -12 -12 -9
-5 -9 13 2 -11 -12 -12 -9
-5 -10 13 2 -11 -12 -13 -10
-5 -10 13 2 -11 -12 -13 -10
-4 -11 12 2 -11 -13 -14 -11
-4 -11 12 2 -11 -13 -14 -11
-4 -11 12 2 -11 -13 -14 -11
-4 -11 12 1 -12 -13 -14 -11
-4 -11 12 1 -12 -13 -14 -11
-3 -11 11 0 -13 -14 -15 -12
-3 -11 11 0 -13 -14 -15 -12
-3 -11 11 0 -13 -14 -15 -12
-3 -11 11 0 -13 -14 -15 -12
-3 -11 11 0 -13 -14 -15 -12
-4 -12 11 1 -12 -15 -16 -12
-4 -12 11 1 -12 -15 -16 -12
-4 -12 11 1 -12 -15 -16 -12
-4 -12 11 0 -13 -15 -17 -12
-4 -12 11 0 -13 -15 -17 -12
-4 -12 10 -2 -14 -16 -18 -12
-4 -12 10 -2 -14 -16 -18 -12
-4 -13 10 -2 -14 -16 -18 -12
-5 -13 10 -2 -14 -16 -18 -12
-5 -14 10 -2 -14 -16 -18 -12
-6 -15 9 -2 -15 -17 -19 -13
-6 -15 9 -2 -15 -17 -19 -13
-5 -14 9 -2 -15 -17 -19 -13
-5 -14 9 -2 -15 -17 -19 -14
-4 -13 9 -2 -15 -17 -19 -14
-3 -12 8 -2 -15 -18 -18 -15
-3 -12 8 -2 -15 -18 -18 -15
-3 -12 8 -2 -15 -18 -18 -14
-3 -12 8 -2 -15 -18 -18 -14
-3 -12 8 -2 -15 -18 -18 -13
-3 -13 8 -2 -16 -17 -18 -12
-3 -13 8 -2 -16 -17 -18 -12
-3 -14 8 -2 -16 -17 -18 -12
-4 -14 8 -2 -16 -17 -18 -13
-4 -15 8 -2 -16 -17 -18 -13
-5 -16 8 -3 -17 -18 -19 -14
-5 -16 8 -3 -17 -18 -19 -14
-5 -16 8 -3 -17 -18 -19 -14
-5 -16 7 -3 -17 -19 -19 -15
-5 -16 7 -3 -17 -19 -19 -15
-5 -16 6 -4 -17 -20 -20 -16
-5 -16 6 -4 -17 -20 -20 -16
-5 -16 6 -4 -17 -20 -20 -16
-5 -15 6 -4 -17 -19 -20 -16
-5 -15 6 -4 -17 -19 -20 -16
-4 -14 7 -3 -16 -18 -19 -15
-4 -14 7 -3 -16 -18 -19 -15
-4 -14 7 -3 -16 -18 -19 -15
-4 -14 7 -3 -17 -18 -19 -15
-4 -14 7 -3 -17 -18 -19 -15
-4 -14 6 -4 -18 -19 -20 -16
-4 -14 6 -4 -18 -19 -20 -16
-4 -14 6 -4 -18 -19 -20 -16
-4 -14 6 -4 -18 -19 -20 -16
-4 -14 6 -4 -18 -19 -20 -16
-5 -14 6 -5 -19 -20 -20 -16
-5 -14 6 -5 -19 -20 -20 -16
-5 -15 6 -5 -19 -20 -20 -16
-5 -15 5 -5 -19 -20 -21 -16
-5 -16 5 -5 -19 -20 -21 -16
-6 -17 4 -4 -18 -19 -22 -17
-6 -17 4 -4 -18 -19 -22 -17
-6 -16 4 -4 -18 -19 -22 -17
-6 -16 4 -4 -18 -19 -22 -16
-6 -15 4 -4 -18 -19 -22 -16
-5 -14 5 -4 -18 -18 -21 -15
-5 -14 5 -4 -18 -18 -21 -15
-5 -14 5 -4 -18 -18 -21 -15
-5 -14 4 -4 -18 -19 -21 -16
-5 -14 4 -4 -18 -19 -21 -16
-5 -15 3 -4 -19 -20 -22 -17
-5 -15 3 -4 -19 -20 -22 -17
-5 -15 3 -4 -19 -20 -22 -17
-5 -14 3 -4 -19 -20 -22 -17
-5 -14 3 -4 -19 -20 -22 -17
-5 -13 3 -5 -19 -20 -21 -16
-5 -13 3 -5 -19 -20 -21 -16
-5 -14 3 -5 -19 -20 -21 -16
-5 -15 3 -5 -19 -20 -21 -16
-5 -16 3 -5 -19 -20 -21 -16
-4 -17 3 -4 -20 -20 -21 -17
-4 -17 3 -4 -20 -20 -21 -17
-4 -16 3 -4 -20 -20 -21 -17
-4 -16 2 -4 -20 -20 -21 -17
-4 -15 2 -4 -20 -20 -21 -17
-4 -14 1 -4 -20 -20 -21 -17
-4 -14 1 -4 -20 -20 -21 -17
-4 -14 1 -4 -20 -20 -22 -17
-5 -15 1 -4 -20 -20 -22 -18
-5 -15 1 -4 -20 -20 -23 -18
-6 -16 1 -4 -21 -21 -24 -19
-6 -16 1 -4 -21 -21 -24 -19
-6 -17 1 -5 -21 -21 -24 -19
-7 -18 1 -5 -21 -21 -24 -19
-7 -19 1 -6 -21 -21 -24 -19
-8 -20 0 -7 -22 -21 -24 -20
-7 -18 0 -6 -22 -21 -24 -20
-5 -17 0 -5 -21 -21 -23 -19
-4 -15 1 -4 -21 -21 -22 -18
-3 -13 1 -3 -20 -21 -21 -17
0 -11 2 -2 -19 -21 -20 -16
0 -11 2 -2 -19 -21 -20 -16
0 -11 2 -2 -19 -21 -20 -16
0 -11 1 -3 -19 -20 -20 -16
0 -11 1 -3 -19 -20 -20 -16
-2 -12 0 -4 -20 -19 -21 -17
-2 -12 0 -4 -20 -19 -21 -17
-2 -12 0 -4 -20 -19 -21 -17
-2 -12 0 -4 -20 -19 -21 -17
-2 -12 0 -4 -20 -19 -21 -17
-3 -13 0 -4 -20 -20 -22 -17
-3 -13 0 -4 -20 -20 -22 -17
-4 -13 0 -4 -20 -20 -22 -17
-4 -14 -2 -5 -21 -20 -22 -17
-5 -14 -2 -5 -21 -20 -22 -17
-6 -15 -3 -6 -22 -20 -23 -18
-5 -15 -3 -6 -22 -20 -23 -18
-4 -14 -3 -6 -22 -20 -23 -18
-3 -14 -3 -6 -22 -20 -22 -18
-2 -13 -3 -6 -22 -20 -22 -18
0 -12 -3 -5 -21 -20 -21 -18
0 -12 -3 -5 -21 -20 -21 -18
-2 -12 -3 -5 -21 -20 -21 -18
-2 -13 -4 -5 -21 -20 -21 -18
-3 -13 -4 -5 -21 -20 -21 -18
-4 -14 -5 -6 -22 -21 -21 -18
-4 -14 -5 -6 -22 -21 -21 -18
-4 -14 -5 -6 -22 -21 -21 -18
-4 -14 -4 -5 -22 -21 -21 -18
-4 -14 -4 -5 -22 -21 -21 -18
-3 -13 -3 -4 -21 -20 -22 -19
-2 -12 -3 -4 -20 -19 -22 -19
0 -11 -2 -3 -19 -18 -22 -18
1 -10 -2 -2 -18 -17 -21 -18
2 -9 0 0 -17 -16 -21 -17
3 -8 1 1 -16 -15 -20 -16
3 -7 1 2 -16 -15 -20 -16
2 -5 1 3 -15 -14 -19 -15
2 -3 2 4 -14 -14 -18 -14
1 -2 2 5 -13 -13 -17 -13
0 1 3 6 -12 -12 -16 -12
1 1 3 6 -12 -12 -16 -12
2 0 3 6 -12 -12 -16 -12
3 0 2 5 -13 -12 -16 -12
4 -2 2 5 -13 -12 -16 -12
5 -3 1 4 -14 -13 -15 -11
5 -3 1 4 -14 -13 -15 -11
5 -3 0 4 -14 -13 -15 -11
5 -3 0 5 -14 -13 -15 -11
5 -3 -2 5 -14 -13 -15 -11
6 -3 -3 6 -13 -12 -15 -11
6 -3 -5 4 -14 -13 -15 -11
6 -3 -7 2 -16 -14 -15 -11
7 -2 -9 0 -18 -15 -15 -11
7 -2 -12 -4 -19 -17 -15 -11
8 0 -14 -6 -21 -18 -16 -10
8 -2 -14 -6 -21 -18 -17 -11
8 -4 -14 -7 -21 -19 -18 -12
8 -5 -13 -7 -22 -19 -19 -13
8 -6 -13 -8 -22 -20 -20 -14
7 -8 -12 -9 -23 -21 -21 -15
7 -9 -12 -9 -23 -21 -21 -15
7 -10 -12 -9 -24 -21 -21 -15
7 -11 -13 -9 -25 -22 -21 -16
7 -12 -13 -9 -26 -22 -21 -16
8 -13 -14 -10 -27 -23 -22 -17
7 -13 -14 -10 -27 -23 -22 -17
6 -13 -14 -11 -27 -23 -22 -17
5 -13 -14 -11 -27 -24 -23 -18
4 -13 -14 -12 -27 -24 -23 -18
3 -14 -15 -13 -28 -25 -24 -19
2 -14 -15 -13 -28 -25 -24 -19
1 -14 -14 -13 -28 -25 -24 -19
0 -14 -14 -13 -28 -24 -24 -19
-2 -14 -13 -13 -28 -24 -24 -19
-3 -13 -12 -12 -27 -23 -23 -19
-3 -13 -12 -12 -27 -23 -23 -19
-3 -13 -12 -12 -27 -24 -23 -19
-3 -14 -12 -13 -27 -24 -24 -19
-3 -14 -12 -13 -27 -25 -24 -19
-4 -15 -13 -14 -28 -26 -25 -20
-4 -15 -13 -14 -28 -26 -25 -20
-5 -15 -13 -14 -28 -26 -25 -20
-5 -16 -13 -14 -28 -26 -25 -20
-6 -16 -13 -14 -28 -26 -25 -20
-7 -17 -13 -13 -29 -26 -26 -20
-7 -17 -13 -13 -29 -26 -26 -20
-7 -17 -13 -13 -29 -26 -26 -20
-6 -17 -13 -13 -29 -26 -27 -20
-6 -17 -13 -13 -29 -26 -27 -20
-5 -16 -12 -13 -28 -26 -28 -21
-5 -16 -12 -13 -28 -26 -28 -21
-5 -16 -12 -12 -27 -25 -27 -21
-5 -15 -12 -12 -27 -25 -27 -21
-5 -15 -12 -11 -26 -24 -26 -21
-6 -14 -11 -10 -25 -23 -25 -21
-6 -14 -11 -10 -25 -23 -25 -21
-6 -14 -11 -10 -25 -22 -25 -21
-6 -14 -10 -10 -25 -22 -25 -21
-6 -14 -10 -10 -25 -21 -25 -21
-6 -15 -9 -8 -24 -20 -24 -20
-2 -18 -9 0 -22 -20 -26 -23
3 -22 -9 8 -19 -20 -28 -26
7 -25 -9 15 -17 -20 -30 -29
11 -29 -9 23 -15 -20 -32 -32
15 -32 -8 32 -11 -20 -33 -35
19 -28 1 49 5 -6 -23 -31
22 -24 9 65 20 9 -13 -27
26 -21 18 82 34 23 -3 -23
29 -17 26 99 50 36 8 -19
33 -12 34 114 65 54 20 -13
39 4 38 119 89 86 50 7
45 19 43 126 112 118 80 26
51 34 46 131 135 151 110 46
57 50 50 136 158 184 140 65
60 65 54 137 179 213 167 85
43 85 51 103 172 212 174 102
24 103 48 70 165 210 181 119
6 122 45 36 158 209 188 137
-13 142 40 3 151 206 195 154
-29 158 35 -32 139 198 196 169
-37 143 13 -75 81 138 151 146
-46 129 -9 -117 25 77 105 125
-54 114 -31 -159 -32 18 60 102
-62 99 -53 -201 -89 -43 14 80
-69 85 -73 -238 -140 -96 -27 59
-63 68 -77 -225 -139 -98 -35 44
-56 53 -80 -212 -138 -100 -43 29
-50 36 -85 -199 -137 -102 -51 14
-44 20 -88 -186 -136 -105 -58 -2
-37 6 -91 -172 -134 -106 -65 -15
-32 5 -80 -150 -118 -94 -58 -15
-28 4 -70 -129 -103 -81 -52 -15
-23 3 -60 -107 -88 -69 -46 -15
-19 2 -50 -86 -72 -57 -38 -15
-14 0 -39 -65 -58 -46 -32 -14
-13 -2 -34 -56 -52 -41 -31 -14
-11 -3 -28 -46 -46 -36 -29 -14
-10 -4 -23 -36 -39 -32 -27 -14
-8 -5 -17 -26 -33 -27 -25 -14
-6 -6 -12 -17 -27 -23 -23 -15
-6 -7 -11 -16 -26 -23 -23 -15
-6 -8 -10 -14 -25 -23 -23 -15
-6 -9 -9 -12 -24 -22 -22 -15
-6 -10 -8 -10 -23 -22 -22 -15
-7 -12 -7 -8 -22 -21 -21 -16
-7 -12 -7 -7 -22 -21 -21 -16
-7 -12 -7 -6 -21 -20 -21 -16
-6 -12 -7 -5 -20 -19 -21 -16
-6 -12 -7 -4 -19 -18 -21 -16
-5 -11 -6 -2 -18 -17 -20 -16
-5 -11 -6 -2 -18 -17 -20 -16
-5 -11 -6 -2 -17 -17 -20 -16
-4 -12 -5 -2 -17 -16 -19 -16
-4 -12 -5 -2 -16 -16 -19 -16
-3 -13 -4 0 -15 -15 -18 -15
-3 -13 -4 0 -15 -15 -18 -15
-3 -13 -4 1 -15 -15 -18 -15
-3 -14 -4 1 -14 -15 -17 -15
-3 -14 -4 2 -14 -15 -17 -15
-2 -15 -3 3 -13 -15 -16 -15
-2 -15 -3 3 -13 -15 -16 -15
-2 -15 -3 3 -13 -15 -16 -15
0 -14 -3 3 -13 -14 -16 -15
0 -14 -3 3 -13 -14 -16 -15
1 -13 -3 3 -13 -13 -15 -14
1 -13 -3 3 -13 -13 -15 -14
1 -13 -3 3 -13 -12 -15 -14
1 -13 -2 4 -13 -12 -15 -14
1 -13 -2 4 -13 -11 -15 -14
2 -13 0 5 -12 -10 -14 -14
2 -13 0 5 -12 -10 -14 -14
2 -12 0 5 -11 -10 -14 -13
2 -12 0 5 -10 -10 -13 -12
2 -11 0 5 -9 -10 -13 -11
2 -10 1 5 -8 -9 -12 -10
2 -10 1 5 -8 -9 -12 -10
2 -10 1 5 -8 -8 -12 -11
2 -11 1 6 -8 -8 -11 -11
2 -11 1 6 -8 -7 -11 -12
2 -12 1 7 -8 -6 -10 -13
2 -11 1 7 -8 -6 -10 -13
3 -10 1 7 -7 -6 -9 -12
3 -9 1 7 -6 -6 -9 -11
4 -8 1 7 -5 -6 -8 -10
5 -7 1 7 -4 -5 -7 -9
5 -7 1 7 -4 -5 -7 -9
5 -8 1 8 -4 -4 -7 -9
5 -8 1 9 -3 -4 -6 -8
5 -9 1 10 -3 -3 -6 -8
5 -10 1 11 -2 -2 -5 -7
5 -10 1 11 -2 -2 -5 -7
5 -9 1 11 0 0 -4 -7
5 -9 1 11 0 0 -4 -7
5 -8 1 11 1 1 -3 -7
6 -7 0 10 2 2 -2 -6
6 -7 0 11 2 3 0 -6
7 -6 0 12 3 4 1 -5
8 -5 0 13 3 5 2 -4
9 -4 0 14 4 6 3 -3
10 -3 -2 16 5 8 5 -2
10 -3 -2 16 6 8 5 0
10 -2 -2 16 7 9 6 1
10 -2 -2 17 8 9 7 2
10 0 -2 17 9 10 8 3
11 1 0 18 10 11 9 5
12 2 0 18 11 13 11 6
13 3 0 19 12 15 13 7
15 5 0 20 13 17 15 8
16 6 0 21 14 19 17 9
18 8 -2 22 16 21 19 10
18 9 -2 22 16 22 20 11
18 10 -2 22 17 23 22 13
18 11 -3 22 18 24 24 15
18 12 -3 22 19 25 26 17
18 13 -4 22 20 27 28 19
19 14 -4 22 21 29 29 20
20 15 -5 23 23 31 31 21
21 16 -5 24 24 33 33 22
22 17 -6 25 26 35 35 23
24 18 -7 26 28 37 37 25
24 19 -7 26 29 38 39 26
25 21 -7 27 30 39 42 28
26 23 -7 27 31 42 44 30
27 25 -7 28 32 43 46 32
28 27 -7 29 33 45 48 34
28 28 -7 29 34 46 49 35
29 29 -7 29 35 48 50 36
29 30 -7 30 36 50 52 37
30 31 -7 30 37 52 53 38
31 32 -8 31 39 54 55 39
31 33 -8 31 39 55 56 40
31 34 -8 31 39 56 57 43
31 36 -8 31 40 57 58 44
31 37 -8 31 40 58 59 46
31 39 -7 31 42 59 61 48
31 39 -7 31 42 59 61 48
31 40 -6 31 43 60 62 49
31 42 -6 32 44 61 63 49
31 43 -5 32 45 62 64 50
30 44 -4 33 46 63 65 51
30 44 -4 33 46 63 65 52
30 45 -4 33 46 63 66 53
30 46 -4 32 47 64 66 54
30 47 -4 32 47 64 67 55
29 48 -3 31 48 65 68 56
29 48 -3 31 48 65 68 56
29 48 -2 31 48 65 68 55
28 47 -2 31 48 65 68 55
28 47 0 31 48 65 68 54
27 46 1 32 49 65 68 53
27 46 1 32 49 65 67 53
27 46 2 32 49 64 66 53
26 45 3 32 49 64 65 52
26 45 4 32 49 63 64 52
25 44 5 31 48 62 63 51
24 43 6 31 48 61 62 50
22 42 8 32 48 60 60 48
21 40 9 32 48 59 58 47
19 39 11 33 48 58 56 45
17 38 13 34 47 56 54 43
17 36 13 34 46 54 51 40
16 34 13 34 44 51 48 38
16 32 14 33 43 49 45 35
15 30 14 33 40 46 42 33
14 28 15 32 38 43 38 30
14 26 15 32 37 40 36 28
14 24 16 32 36 38 34 25
13 23 16 32 34 36 31 23
13 21 17 32 33 34 29 20
13 19 17 32 32 32 27 18
12 18 18 31 30 30 25 17
11 17 19 30 29 28 23 16
10 16 19 29 27 26 21 15
9 15 20 28 26 24 19 14
9 14 20 28 25 22 18 13
8 12 21 26 23 19 15 10
7 10 21 25 21 17 13 8
6 8 21 23 20 15 10 6
5 6 21 22 18 13 8 4
5 4 21 21 17 11 6 2
4 3 20 20 16 9 5 1
4 2 20 19 15 8 4 1
3 2 20 18 14 7 3 0
3 1 20 17 13 6 2 0
3 1 20 17 13 5 2 0
2 0 20 16 12 4 1 -2
2 0 20 15 11 4 0 -2
2 0 20 15 11 4 0 -2
2 0 20 14 10 4 -2 -2
2 0 20 14 10 4 -2 -2
0 -2 20 13 9 3 -3 -3
-2 -3 20 12 8 2 -3 -3
-3 -3 20 11 8 1 -4 -3
-4 -4 20 10 7 0 -4 -3
-5 -4 20 9 7 0 -4 -3
-6 -5 19 8 6 -2 -5 -4
-6 -5 19 8 6 -2 -5 -4
-6 -5 19 8 6 -2 -5 -4
-6 -5 19 8 6 -2 -5 -4
-6 -5 19 8 6 -2 -5 -4
-5 -6 20 7 5 -2 -5 -5
-5 -6 20 7 5 -3 -6 -5
-5 -6 20 6 5 -3 -6 -5
-5 -6 20 6 5 -4 -7 -5
-5 -6 20 6 5 -4 -7 -5
-5 -6 20 5 4 -5 -8 -6
-5 -6 20 5 4 -5 -8 -6
-5 -6 20 5 4 -5 -7 -6
-5 -6 20 5 4 -5 -7 -6
-5 -6 20 5 4 -5 -7 -6
-5 -6 20 5 3 -4 -6 -5
-5 -5 20 5 3 -4 -6 -5
-5 -5 20 5 3 -4 -6 -5
-5 -4 20 5 3 -4 -6 -5
-5 -4 20 5 3 -4 -6 -5
-5 -3 20 5 4 -4 -5 -4
-5 -3 20 5 4 -4 -5 -4
-5 -4 20 5 4 -5 -6 -5
-5 -4 20 5 4 -5 -6 -5
-5 -4 20 5 4 -5 -6 -5
-4 -5 19 5 3 -6 -7 -6
-4 -5 19 5 3 -6 -7 -6
-4 -5 19 4 3 -6 -7 -6
-4 -5 19 4 3 -6 -7 -6
-4 -5 19 4 3 -6 -7 -6
-5 -6 20 3 3 -6 -7 -5
-5 -6 20 3 3 -6 -7 -5
-5 -6 21 4 3 -5 -7 -5
-5 -6 21 4 3 -5 -7 -5
-5 -6 21 4 3 -5 -7 -5
-6 -6 22 5 3 -5 -6 -4
-5 -5 21 5 3 -6 -7 -4
-5 -5 21 4 3 -7 -7 -4
-4 -4 20 4 3 -8 -8 -4
-4 -4 20 4 3 -9 -8 -4
-3 -3 19 3 2 -10 -9 -5
-4 -3 19 3 2 -10 -9 -5
-4 -4 19 3 2 -9 -9 -5
-5 -4 19 3 2 -9 -9 -5
-5 -4 19 3 2 -9 -9 -5
-6 -5 20 4 1 -8 -8 -6
-6 -5 20 4 1 -8 -8 -6
-6 -5 20 3 1 -8 -8 -6
-6 -5 20 3 1 -8 -8 -6
-6 -5 20 3 1 -8 -8 -6
-5 -5 20 2 0 -9 -8 -5
-5 -6 20 2 0 -9 -8 -5
-5 -7 20 3 1 -9 -8 -5
-5 -8 20 3 1 -9 -8 -5
-5 -8 20 3 1 -9 -8 -5
-5 -9 21 4 2 -9 -7 -5
-5 -9 21 4 2 -9 -7 -5
-5 -9 21 4 2 -9 -7 -5
-5 -9 21 4 2 -9 -7 -5
-5 -9 21 4 2 -9 -7 -5
-4 -9 22 4 1 -9 -7 -5
-4 -9 22 4 1 -9 -8 -5
-4 -9 22 4 0 -10 -8 -6
-4 -9 22 4 0 -10 -9 -6
-4 -9 22 4 0 -10 -9 -6
-5 -10 21 3 -2 -11 -10 -7
-5 -10 21 3 -2 -11 -10 -7
-5 -10 21 3 -2 -11 -10 -7
-5 -10 21 3 -2 -11 -10 -7
-5 -10 21 3 -2 -11 -10 -7
-6 -11 21 3 -3 -12 -10 -8
-5 -11 21 2 -3 -12 -11 -8
-5 -11 21 2 -4 -12 -11 -9
-4 -11 21 1 -4 -12 -12 -9
-4 -11 21 1 -4 -12 -12 -9
-3 -10 20 0 -5 -13 -13 -10
-3 -10 20 0 -5 -13 -13 -10
-3 -10 20 0 -5 -14 -12 -10
-3 -10 20 0 -5 -14 -12 -10
-3 -10 20 0 -5 -14 -12 -10
-3 -9 19 0 -5 -15 -11 -9
-3 -9 19 0 -5 -15 -11 -9
-3 -10 19 0 -5 -15 -12 -9
-3 -10 19 0 -5 -15 -12 -9
-3 -10 19 0 -5 -15 -12 -9
-4 -11 20 -2 -6 -16 -13 -10
-4 -11 20 -2 -6 -16 -13 -10
-4 -12 20 -3 -7 -17 -14 -10
-4 -12 20 -3 -7 -17 -14 -10
-4 -12 20 -3 -7 -17 -14 -10
-3 -13 19 -4 -8 -18 -15 -11
-3 -13 19 -4 -8 -18 -15 -11
-3 -12 19 -4 -8 -18 -15 -11
-3 -12 19 -4 -8 -18 -15 -11
-3 -12 19 -4 -8 -18 -15 -11
-2 -11 20 -4 -9 -17 -15 -10
-2 -12 20 -4 -9 -17 -15 -10
-2 -12 19 -4 -9 -17 -15 -10
-2 -13 19 -4 -9 -17 -15 -10
-2 -13 19 -4 -9 -17 -15 -10
-3 -14 18 -5 -9 -18 -16 -11
-3 -14 19 -5 -9 -18 -16 -11
-4 -15 19 -4 -9 -18 -16 -11
-4 -15 20 -4 -9 -18 -16 -11
-4 -15 20 -4 -9 -18 -16 -11
-5 -16 21 -3 -8 -17 -16 -12
-5 -15 20 -3 -8 -17 -16 -12
-5 -15 20 -4 -8 -17 -16 -12
-5 -14 19 -4 -8 -17 -16 -12
-5 -14 19 -4 -8 -17 -16 -12
-5 -13 18 -5 -9 -18 -16 -12
-5 -13 18 -5 -9 -18 -16 -12
-4 -12 19 -5 -9 -18 -16 -12
-4 -12 19 -5 -9 -18 -16 -12
-4 -12 19 -5 -9 -18 -16 -12
-3 -12 20 -4 -9 -18 -17 -13
-4 -13 20 -4 -9 -18 -17 -13
-4 -14 20 -4 -9 -18 -17 -12
-5 -15 20 -4 -9 -18 -17 -12
-5 -16 20 -4 -9 -18 -17 -12
-6 -17 21 -5 -9 -18 -16 -11
-6 -16 21 -5 -9 -18 -17 -11
-5 -16 21 -5 -9 -18 -17 -11
-5 -15 21 -5 -9 -18 -18 -11
-5 -15 21 -5 -9 -18 -18 -11
-4 -14 20 -6 -10 -19 -19 -12
-4 -14 20 -6 -10 -19 -18 -12
-4 -15 20 -6 -10 -18 -17 -12
-4 -15 20 -6 -10 -18 -16 -12
-4 -15 20 -6 -10 -18 -16 -12
-3 -16 19 -7 -11 -17 -15 -13
-3 -16 19 -7 -11 -17 -15 -13
-3 -15 19 -7 -11 -17 -16 -13
-3 -15 19 -7 -11 -17 -16 -13
-3 -15 19 -7 -11 -17 -16 -13
-4 -14 18 -7 -11 -18 -17 -13
-4 -14 18 -7 -11 -18 -17 -13
-4 -14 18 -7 -11 -18 -17 -13
-4 -14 18 -7 -11 -18 -17 -13
-4 -14 18 -7 -11 -18 -17 -13
-4 -13 19 -6 -11 -19 -17 -12
-4 -13 19 -6 -11 -19 -17 -12
-4 -13 19 -6 -11 -19 -17 -12
-4 -13 19 -6 -11 -19 -17 -12
-4 -13 19 -6 -11 -19 -17 -12
-5 -14 19 -7 -12 -19 -17 -13
-5 -14 19 -7 -12 -19 -17 -13
-5 -14 19 -7 -12 -19 -17 -13
-5 -14 19 -7 -12 -19 -17 -13
-5 -14 19 -7 -12 -19 -17 -13
-6 -13 19 -6 -11 -18 -17 -13
-5 -13 19 -6 -11 -18 -17 -13
-4 -13 20 -6 -11 -18 -17 -13
-3 -13 20 -6 -11 -18 -17 -13
-3 -13 20 -6 -11 -18 -17 -13
-2 -14 21 -6 -11 -19 -17 -13
-3 -14 21 -6 -11 -19 -17 -13
-4 -14 20 -6 -11 -19 -17 -13
-5 -14 20 -6 -11 -19 -17 -13
-6 -14 20 -6 -11 -19 -17 -13
-7 -15 19 -6 -12 -18 -16 -13
-7 -15 19 -6 -12 -18 -17 -13
-6 -16 19 -7 -13 -19 -17 -14
-6 -16 19 -7 -13 -19 -18 -14
-6 -16 19 -7 -13 -19 -18 -14
-5 -17 18 -8 -14 -20 -19 -15
-5 -17 18 -8 -14 -20 -19 -15
-5 -17 18 -8 -14 -20 -19 -15
-5 -17 18 -8 -14 -20 -19 -15
-5 -17 18 -8 -14 -20 -19 -15
-6 -16 19 -8 -14 -20 -20 -15
-5 -16 19 -8 -14 -20 -20 -15
-5 -15 19 -8 -14 -20 -19 -15
-4 -15 19 -8 -14 -20 -19 -15
-4 -15 19 -8 -14 -20 -19 -15
-3 -14 19 -7 -13 -19 -18 -14
-3 -14 19 -7 -13 -19 -18 -14
-4 -14 19 -8 -13 -19 -18 -14
-4 -14 19 -8 -13 -19 -18 -14
-4 -14 19 -8 -13 -19 -18 -14
-5 -15 19 -9 -14 -19 -18 -15
-5 -15 19 -9 -14 -19 -18 -15
-5 -15 19 -8 -14 -19 -18 -15
-5 -15 19 -8 -14 -19 -18 -15
-5 -15 19 -8 -14 -19 -18 -15
-6 -14 19 -7 -13 -18 -17 -15
-6 -14 19 -7 -13 -18 -17 -15
-5 -14 19 -7 -13 -18 -17 -15
-5 -14 19 -7 -13 -18 -17 -15
-5 -14 19 -7 -13 -18 -17 -15
-4 -14 20 -7 -13 -18 -17 -14
-3 -13 20 -6 -12 -18 -17 -14
-3 -12 21 -6 -11 -18 -17 -14
-2 -10 21 -5 -10 -18 -17 -14
-2 -9 21 -5 -10 -18 -17 -14
0 -8 22 -4 -9 -17 -17 -13
0 -7 23 -3 -8 -16 -16 -12
-2 -7 24 -2 -8 -15 -15 -12
-2 -6 25 0 -7 -14 -14 -11
-2 -6 26 0 -7 -14 -14 -11
-3 -5 27 1 -6 -13 -13 -10
0 -7 26 1 -6 -13 -13 -10
1 -8 26 2 -6 -13 -13 -10
2 -9 25 2 -6 -13 -13 -10
3 -10 25 2 -6 -13 -13 -10
4 -11 24 3 -7 -13 -12 -10
4 -10 23 3 -7 -13 -12 -10
4 -10 22 3 -7 -12 -12 -9
4 -9 21 3 -7 -12 -12 -9
4 -9 21 3 -7 -12 -12 -9
5 -8 19 3 -7 -11 -12 -8
5 -6 17 1 -8 -13 -12 -8
5 -5 15 -2 -8 -14 -12 -8
5 -4 13 -4 -9 -15 -12 -8
5 -3 11 -6 -9 -16 -12 -8
6 -3 10 -7 -11 -17 -13 -9
6 -5 10 -8 -12 -18 -14 -10
6 -7 9 -8 -14 -18 -15 -10
6 -8 9 -9 -16 -19 -16 -11
6 -10 9 -9 -17 -19 -17 -11
5 -12 6 -10 -18 -20 -18 -12
5 -13 3 -11 -19 -21 -19 -13
4 -14 0 -11 -20 -21 -20 -13
4 -16 -5 -12 -21 -22 -21 -14
4 -17 -8 -12 -21 -22 -21 -14
3 -18 -9 -13 -22 -23 -22 -15
3 -18 -9 -13 -22 -23 -22 -15
2 -18 -9 -14 -23 -24 -22 -15
2 -18 -9 -14 -23 -24 -22 -15
2 -18 -9 -14 -23 -24 -22 -15
1 -17 -10 -15 -24 -25 -21 -15
0 -17 -10 -15 -23 -24 -21 -15
-2 -17 -9 -14 -23 -24 -21 -15
-3 -17 -9 -14 -22 -23 -21 -15
-4 -17 -9 -14 -22 -23 -21 -15
-5 -18 -8 -13 -21 -22 -22 -16
-5 -18 -8 -14 -22 -23 -22 -16
-5 -18 -8 -14 -23 -24 -22 -17
-5 -18 -8 -15 -24 -25 -22 -17
-5 -18 -8 -15 -25 -26 -22 -17
-6 -19 -8 -16 -26 -27 -23 -18
-6 -19 -8 -16 -26 -27 -23 -18
-6 -19 -8 -15 -26 -27 -24 -19
-6 -19 -8 -15 -26 -27 -24 -19
-6 -19 -8 -15 -26 -27 -24 -19
-7 -19 -7 -14 -26 -27 -25 -20
-7 -19 -6 -14 -26 -26 -25 -20
-7 -19 -5 -13 -25 -26 -24 -19
-7 -19 -4 -13 -25 -25 -24 -19
-7 -19 -4 -13 -25 -25 -24 -19
-7 -19 -3 -12 -24 -24 -23 -18
-7 -19 -3 -11 -23 -23 -23 -18
-8 -19 -3 -11 -22 -23 -22 -18
-8 -19 -3 -10 -21 -22 -22 -18
-8 -19 -3 -10 -21 -22 -22 -18
-9 -18 -2 -9 -20 -21 -21 -17
-9 -18 -2 -9 -20 -21 -21 -17
-9 -18 -2 -9 -20 -21 -22 -18
-9 -18 -2 -9 -20 -21 -22 -18
-9 -18 -2 -9 -20 -21 -22 -18
-6 -20 -2 -5 -19 -20 -24 -21
-2 -24 -2 4 -16 -20 -25 -23
3 -28 -2 12 -13 -20 -26 -26
7 -32 -2 20 -11 -20 -28 -29
11 -37 -2 28 -8 -20 -29 -32
14 -35 5 43 5 -9 -23 -30
17 -31 13 59 20 7 -12 -26
20 -27 21 76 35 21 -2 -21
24 -23 29 93 51 36 10 -17
27 -19 38 110 66 52 20 -13
32 -6 43 117 89 82 47 4
37 10 47 122 114 118 79 24
44 26 51 127 139 154 111 45
50 43 55 132 164 190 144 64
55 59 59 136 190 226 176 85
44 76 58 112 190 232 187 101
25 96 55 77 182 228 191 116
7 114 52 43 174 224 195 132
-12 134 49 9 165 220 199 148
-30 152 46 -26 157 216 203 163
-39 146 27 -66 110 167 169 150
-47 131 5 -107 50 102 120 127
-54 114 -19 -148 -11 37 71 103
-60 99 -41 -189 -71 -27 22 79
-67 82 -65 -229 -132 -92 -27 56
-65 67 -74 -230 -146 -108 -43 40
-59 52 -78 -217 -144 -108 -49 26
-53 36 -83 -203 -142 -109 -54 13
-47 21 -88 -189 -140 -109 -59 0
-40 5 -92 -176 -138 -109 -64 -14
-36 1 -87 -157 -126 -101 -61 -18
-32 0 -76 -137 -110 -89 -55 -16
-28 -2 -66 -116 -95 -75 -48 -15
-24 -2 -55 -96 -79 -62 -40 -14
-20 -3 -45 -75 -63 -50 -33 -13
-18 -4 -37 -62 -55 -43 -30 -12
-17 -5 -32 -52 -49 -38 -29 -12
-15 -6 -27 -41 -43 -34 -27 -12
-14 -6 -21 -30 -35 -30 -26 -12
-12 -7 -16 -20 -29 -26 -24 -12
-11 -8 -14 -16 -27 -24 -23 -13
-10 -10 -13 -14 -25 -23 -23 -13
-9 -11 -12 -11 -24 -22 -22 -14
-8 -12 -11 -9 -23 -22 -22 -14
-7 -13 -10 -7 -22 -21 -22 -14
-6 -14 -9 -6 -21 -20 -21 -15
-6 -14 -9 -5 -20 -20 -21 -15
-6 -14 -9 -5 -19 -19 -21 -16
-6 -14 -9 -4 -19 -19 -21 -16
-6 -14 -9 -4 -18 -19 -21 -16
-6 -14 -9 -3 -17 -18 -22 -17
-6 -14 -8 -2 -16 -16 -21 -16
-6 -14 -8 -2 -16 -15 -20 -15
-6 -14 -7 0 -15 -14 -19 -15
-6 -14 -7 0 -15 -13 -18 -14
-5 -15 -6 1 -14 -12 -17 -13
-4 -15 -6 1 -14 -12 -17 -13
-4 -15 -6 1 -14 -12 -17 -14
-3 -15 -6 1 -14 -12 -17 -14
-3 -15 -6 1 -14 -12 -17 -14
-2 -14 -7 2 -14 -12 -17 -15
-2 -14 -7 2 -14 -12 -17 -15
-2 -14 -7 2 -14 -12 -16 -15
-2 -14 -7 2 -14 -12 -16 -15
-2 -14 -7 2 -14 -12 -16 -15
-2 -13 -8 3 -13 -12 -15 -14
-2 -13 -8 4 -13 -12 -15 -14
0 -13 -9 4 -12 -11 -15 -14
0 -13 -9 5 -12 -11 -15 -14
0 -13 -9 5 -12 -11 -15 -14
1 -14 -10 6 -11 -10 -14 -14
1 -14 -10 6 -11 -10 -14 -14
0 -13 -10 6 -11 -9 -14 -13
0 -13 -10 6 -11 -9 -14 -13
0 -13 -10 6 -11 -9 -14 -13
-2 -12 -10 7 -10 -8 -13 -12
-2 -12 -10 7 -9 -6 -12 -12
-2 -12 -10 7 -8 -5 -11 -12
-2 -12 -10 7 -7 -4 -10 -12
-2 -12 -10 7 -6 -3 -9 -12
0 -12 -9 8 -5 -2 -8 -13
1 -12 -10 8 -5 -2 -8 -13
2 -12 -10 9 -5 -2 -8 -12
2 -12 -11 9 -5 -2 -8 -12
3 -12 -11 9 -5 -2 -8 -12
4 -13 -12 10 -6 -2 -7 -11
4 -12 -12 10 -5 0 -7 -10
4 -11 -12 11 -4 0 -7 -10
4 -11 -12 11 -3 1 -7 -9
4 -10 -12 11 -2 1 -7 -9
5 -9 -11 12 0 2 -6 -8
5 -9 -11 13 1 4 -4 -6
5 -8 -11 13 2 5 -3 -5
5 -8 -11 14 2 6 0 -4
5 -8 -11 14 3 7 1 -3
6 -7 -11 15 4 8 2 -2
6 -7 -11 15 5 9 2 -2
7 -7 -12 16 6 9 3 -2
7 -7 -12 16 6 10 3 -2
7 -7 -12 16 7 10 3 -2
8 -6 -13 17 8 11 4 -2
9 -4 -13 17 8 13 5 0
10 -3 -14 18 8 14 6 1
11 -2 -14 18 8 16 6 1
12 0 -14 18 8 17 7 2
13 1 -15 19 10 19 9 3
14 1 -15 20 11 20 11 5
14 2 -15 21 13 22 13 6
15 2 -15 22 14 23 16 8
15 2 -15 23 16 25 18 9
16 4 -15 24 18 27 20 11
16 5 -15 24 19 29 22 12
17 7 -16 25 21 31 24 14
17 8 -16 25 22 33 27 15
17 10 -16 25 24 35 29 17
18 11 -17 26 25 37 31 19
19 13 -18 27 27 39 33 20
20 14 -18 27 28 42 35 22
21 16 -19 28 30 44 37 23
22 17 -19 28 31 46 39 25
23 18 -20 29 32 47 42 26
23 19 -20 29 33 49 43 27
24 19 -21 30 33 50 45 28
24 20 -21 30 34 52 46 29
24 20 -21 30 34 53 48 30
25 21 -22 31 36 55 50 32
25 23 -22 32 37 57 52 34
25 24 -22 32 39 59 54 35
25 25 -22 33 40 61 57 37
25 26 -22 33 43 63 59 39
26 28 -22 34 44 64 60 40
26 30 -22 34 44 65 61 42
27 32 -22 34 45 66 62 44
27 34 -22 34 46 66 63 45
27 36 -22 34 46 67 64 46
28 37 -23 33 47 68 65 47
28 37 -23 33 47 68 66 48
28 38 -23 33 48 69 67 49
28 38 -23 33 48 70 67 49
28 38 -23 33 48 70 68 50
28 40 -23 33 49 71 69 51
28 42 -23 33 49 71 69 51
28 44 -23 32 50 72 69 52
28 45 -23 32 50 72 69 52
28 47 -23 32 50 72 69 52
28 48 -22 31 51 73 69 53
28 48 -21 31 51 73 69 53
27 48 -20 31 51 73 69 53
27 48 -19 31 51 73 69 53
27 48 -18 31 51 73 69 53
26 47 -17 30 51 73 70 53
24 46 -16 30 51 72 69 52
23 45 -14 30 51 71 67 51
21 44 -13 30 51 70 66 50
20 43 -12 30 51 69 65 49
19 42 -11 29 50 67 63 47
19 40 -11 29 48 66 61 45
18 39 -10 29 47 64 59 43
18 38 -9 29 45 62 56 40
18 37 -9 29 44 60 54 38
17 36 -8 28 43 58 52 36
17 35 -7 28 42 56 49 34
17 33 -6 28 40 54 47 32
17 32 -5 28 40 52 44 29
17 31 -4 28 39 50 40 27
17 29 -3 28 37 48 38 25
15 26 -3 28 36 46 36 23
14 24 -2 27 34 43 33 21
12 21 0 27 32 40 31 19
11 18 0 27 30 37 28 17
10 16 1 26 28 35 26 15
8 15 1 25 27 32 24 14
7 13 1 24 25 30 22 12
5 11 1 23 24 27 20 11
4 9 1 22 22 24 17 9
3 8 1 21 21 23 15 8
3 7 1 21 20 21 14 7
3 5 2 20 19 20 12 6
3 4 3 19 19 18 10 6
3 3 3 19 18 17 8 5
4 2 4 18 16 15 7 4
4 1 4 17 14 14 5 3
3 0 4 15 12 12 4 1
2 -2 4 14 10 10 2 0
2 -3 4 13 8 8 1 -2
1 -4 3 12 7 7 0 -3
1 -4 3 11 7 6 -2 -3
1 -3 2 10 6 5 -3 -4
1 -3 1 10 5 5 -4 -5
1 -3 1 9 5 4 -5 -5
1 -2 0 8 4 3 -6 -6
1 -3 0 8 4 3 -6 -6
0 -4 0 8 4 3 -6 -6
0 -4 0 8 4 3 -6 -6
0 -5 0 8 4 3 -6 -6
-2 -6 0 7 4 2 -5 -6
-2 -6 0 7 3 2 -5 -6
-2 -6 0 6 2 1 -6 -7
-2 -6 0 6 2 1 -6 -7
-2 -6 0 6 1 1 -6 -7
-3 -6 1 5 0 0 -7 -8
-3 -6 1 5 0 0 -8 -8
-4 -5 1 5 0 -2 -9 -9
-4 -5 1 5 0 -3 -9 -9
-4 -5 1 5 0 -3 -10 -9
-5 -4 0 4 0 -4 -11 -10
-5 -4 0 4 0 -4 -11 -10
-5 -4 1 4 0 -3 -11 -10
-5 -4 1 4 0 -3 -11 -10
-5 -4 1 4 0 -3 -11 -10
-6 -5 2 4 0 -2 -10 -9
-6 -5 2 4 0 -3 -10 -9
-6 -6 2 4 -2 -4 -10 -8
-6 -7 2 4 -3 -4 -10 -8
-6 -7 2 4 -3 -5 -10 -8
-5 -8 1 3 -4 -6 -9 -7
-5 -7 1 3 -4 -6 -9 -7
-5 -6 1 3 -3 -5 -9 -7
-5 -6 1 3 -3 -5 -9 -7
-5 -5 1 3 -3 -5 -9 -7
-6 -4 2 4 -2 -4 -9 -7
-6 -4 2 4 -2 -4 -8 -7
-6 -4 2 4 -2 -3 -7 -6
-6 -4 2 4 -2 -3 -7 -6
-6 -4 2 4 -2 -3 -6 -6
-6 -4 1 3 -2 -2 -5 -5
-6 -4 1 3 -2 -3 -6 -5
-6 -4 1 3 -2 -4 -7 -5
-6 -4 1 3 -2 -4 -8 -5
-6 -4 1 3 -2 -5 -9 -5
-5 -4 0 3 -3 -6 -10 -6
-5 -4 0 3 -3 -6 -10 -6
-5 -4 1 3 -3 -6 -9 -7
-5 -4 1 3 -3 -6 -9 -7
-5 -4 1 3 -3 -6 -9 -7
-4 -3 2 3 -2 -5 -8 -8
-4 -3 2 3 -2 -5 -8 -8
-5 -4 2 3 -2 -5 -8 -8
-5 -4 2 3 -2 -5 -8 -8
-5 -4 2 3 -2 -5 -8 -8
-6 -5 1 4 -3 -5 -8 -9
-6 -5 1 4 -3 -5 -8 -9
-6 -5 1 4 -3 -5 -8 -9
-6 -5 1 4 -3 -5 -8 -9
-6 -5 1 4 -3 -5 -8 -9
-6 -6 2 4 -3 -5 -9 -8
-6 -6 2 4 -3 -5 -9 -8
-5 -6 2 4 -4 -6 -10 -8
-5 -6 2 4 -4 -7 -11 -8
-5 -6 2 4 -4 -7 -11 -8
-4 -7 1 4 -5 -8 -12 -8
-4 -7 1 4 -5 -8 -12 -8
-4 -7 1 4 -5 -8 -12 -9
-4 -7 1 4 -5 -8 -12 -10
-4 -7 1 4 -5 -8 -12 -10
-5 -7 1 3 -6 -9 -13 -11
-5 -7 1 3 -6 -9 -13 -11
-5 -7 1 3 -7 -10 -14 -11
-5 -7 1 3 -7 -10 -14 -11
-5 -7 1 3 -7 -10 -14 -11
-5 -8 1 2 -8 -11 -15 -12
-5 -8 1 2 -8 -11 -15 -12
-5 -8 1 2 -8 -11 -14 -11
-5 -8 1 2 -8 -11 -13 -11
-5 -8 1 2 -8 -11 -13 -11
-5 -8 0 2 -7 -10 -12 -10
-5 -8 0 2 -7 -10 -12 -10
-5 -9 0 2 -8 -11 -13 -11
-5 -9 0 2 -8 -11 -13 -12
-5 -9 0 2 -8 -11 -13 -12
-4 -10 1 1 -9 -12 -14 -13
-4 -10 1 1 -9 -12 -14 -13
-4 -10 1 1 -9 -12 -14 -13
-4 -10 1 1 -9 -12 -14 -13
-4 -10 1 1 -9 -12 -14 -13
-3 -10 2 1 -9 -13 -14 -12
-3 -10 2 1 -9 -13 -15 -12
-4 -11 2 1 -9 -14 -16 -13
-4 -12 2 1 -9 -14 -17 -14
-4 -12 2 1 -9 -14 -18 -14
-5 -13 1 0 -10 -15 -19 -15
-5 -13 1 0 -10 -15 -18 -15
-5 -12 1 0 -10 -15 -17 -14
-5 -12 1 0 -10 -15 -17 -13
-5 -12 1 0 -10 -15 -16 -13
-5 -11 1 -2 -11 -15 -15 -12
-5 -11 1 -2 -11 -15 -15 -12
-5 -11 1 -2 -11 -15 -16 -13
-5 -11 1 -2 -11 -15 -16 -13
-5 -11 1 -2 -11 -15 -16 -13
-4 -11 1 -3 -12 -16 -17 -14
-4 -11 1 -3 -12 -16 -17 -14
-4 -11 1 -3 -12 -16 -18 -14
-4 -11 1 -3 -12 -16 -18 -14
-4 -11 1 -3 -12 -16 -18 -14
-5 -11 0 -3 -12 -17 -19 -15
-5 -11 0 -3 -12 -17 -19 -15
-5 -11 0 -4 -12 -17 -19 -15
-5 -11 0 -4 -12 -17 -19 -15
-5 -11 0 -4 -12 -17 -19 -15
-4 -11 -2 -5 -13 -17 -19 -16
-4 -11 -2 -5 -13 -17 -19 -16
-4 -11 -2 -5 -13 -17 -18 -16
-4 -11 -2 -5 -13 -17 -18 -16
-4 -11 -2 -5 -13 -17 -18 -16
-5 -11 0 -5 -12 -16 -17 -15
-5 -11 0 -5 -12 -16 -17 -15
-5 -12 0 -5 -13 -17 -18 -15
-5 -12 0 -5 -14 -18 -18 -15
-5 -12 0 -5 -14 -18 -18 -15
-4 -13 1 -6 -15 -19 -19 -16
-4 -13 1 -6 -15 -19 -19 -16
-5 -14 1 -6 -14 -19 -19 -15
-5 -14 1 -6 -14 -19 -19 -15
-5 -14 1 -6 -14 -19 -19 -15
-6 -15 2 -5 -13 -19 -19 -14
-6 -15 2 -5 -13 -19 -19 -14
-5 -15 1 -5 -13 -18 -19 -14
-5 -15 1 -5 -13 -18 -19 -14
-5 -15 1 -5 -13 -18 -19 -14
-4 -14 0 -6 -12 -17 -19 -15
-4 -14 0 -6 -12 -17 -19 -15
-4 -14 0 -6 -13 -18 -20 -16
-4 -14 0 -6 -13 -19 -20 -16
-4 -14 0 -6 -13 -19 -20 -16
-4 -13 -2 -7 -14 -20 -21 -17
-4 -13 -2 -7 -14 -20 -20 -17
-4 -13 -2 -7 -14 -19 -19 -17
-4 -13 -2 -7 -14 -19 -18 -17
-4 -13 -2 -7 -14 -19 -17 -17
-3 -13 0 -6 -13 -18 -16 -16
-4 -13 0 -6 -13 -18 -17 -16
-5 -13 0 -7 -14 -19 -18 -16
-5 -13 0 -8 -14 -20 -18 -16
-6 -13 0 -8 -14 -20 -19 -16
-7 -14 -2 -9 -15 -21 -20 -17
-7 -14 -2 -9 -15 -21 -20 -17
-7 -14 -2 -9 -15 -21 -20 -17
-7 -14 0 -8 -14 -20 -20 -17
-7 -14 0 -8 -14 -20 -20 -17
-6 -15 1 -7 -13 -19 -19 -17
-6 -15 1 -7 -13 -19 -19 -17
-6 -15 1 -7 -13 -19 -19 -16
-6 -15 1 -7 -13 -19 -19 -15
-6 -15 1 -7 -13 -19 -19 -15
-5 -14 1 -8 -14 -19 -19 -14
-5 -14 1 -8 -14 -19 -19 -14
-5 -14 1 -8 -14 -19 -19 -14
-5 -14 2 -8 -14 -19 -19 -15
-5 -14 2 -8 -14 -19 -19 -15
-6 -14 3 -9 -14 -20 -20 -16
-6 -14 3 -8 -13 -19 -19 -15
-6 -14 3 -8 -12 -19 -18 -15
-5 -13 3 -7 -11 -18 -17 -14
-5 -13 3 -6 -10 -17 -16 -13
-4 -12 4 -5 -9 -16 -15 -12
-4 -10 5 -4 -8 -16 -15 -12
-4 -8 6 -3 -8 -15 -15 -12
-4 -6 7 -2 -7 -14 -14 -11
-4 -4 8 0 -6 -14 -14 -11
-4 -2 9 1 -5 -13 -13 -10
-4 -2 9 1 -5 -13 -13 -10
-4 -2 9 1 -5 -13 -13 -10
-4 -2 9 1 -5 -13 -13 -10
-4 -2 9 1 -5 -13 -13 -10
-4 -2 10 1 -4 -12 -12 -10
-3 -3 9 1 -4 -12 -13 -10
-2 -4 8 1 -5 -13 -13 -11
1 -6 7 0 -6 -14 -14 -12
2 -7 6 0 -6 -14 -15 -12
3 -8 5 -2 -7 -15 -16 -13
3 -7 5 -2 -7 -14 -15 -13
4 -6 5 -2 -6 -14 -14 -12
5 -5 4 -2 -5 -13 -13 -11
5 -4 4 -2 -5 -12 -12 -11
6 -3 3 -2 -4 -11 -11 -10
6 -3 1 -4 -6 -12 -11 -10
6 -3 0 -6 -7 -12 -11 -10
5 -4 -3 -8 -8 -13 -11 -10
5 -4 -5 -10 -10 -14 -11 -10
4 -6 -6 -12 -11 -15 -12 -11
4 -8 -6 -12 -11 -16 -13 -11
4 -11 -6 -12 -12 -17 -14 -11
4 -14 -5 -12 -13 -18 -16 -12
4 -16 -5 -12 -13 -19 -17 -12
3 -18 -4 -12 -14 -20 -18 -13
3 -18 -4 -12 -14 -20 -18 -13
3 -17 -4 -13 -14 -20 -18 -14
4 -16 -4 -14 -15 -21 -19 -15
4 -16 -4 -14 -15 -21 -19 -15
5 -15 -4 -15 -16 -22 -20 -16
3 -15 -4 -15 -16 -22 -20 -16
2 -15 -4 -15 -16 -22 -20 -16
1 -15 -5 -15 -16 -22 -20 -16
-2 -15 -5 -15 -16 -22 -20 -16
-3 -15 -6 -16 -17 -23 -21 -16
-3 -15 -6 -16 -17 -23 -21 -16
-3 -16 -6 -16 -17 -23 -21 -16
-4 -17 -6 -16 -17 -23 -21 -17
-4 -17 -6 -16 -17 -23 -21 -17
-5 -18 -5 -17 -18 -24 -22 -18
-5 -18 -5 -18 -18 -25 -23 -18
-5 -18 -5 -19 -19 -25 -24 -18
-5 -18 -6 -21 -20 -26 -25 -19
-5 -18 -6 -22 -20 -27 -26 -19
-6 -19 -7 -23 -21 -28 -27 -20
-6 -19 -6 -22 -20 -27 -26 -20
-6 -19 -6 -21 -19 -27 -25 -19
-6 -19 -5 -19 -17 -26 -23 -18
-6 -19 -4 -18 -16 -25 -22 -18
-7 -19 -3 -17 -15 -24 -21 -17
-7 -19 -3 -17 -15 -24 -21 -17
-7 -19 -3 -17 -15 -24 -21 -17
-7 -18 -3 -17 -15 -23 -20 -16
-7 -18 -3 -17 -15 -23 -20 -16
-6 -17 -4 -16 -14 -22 -19 -15
-6 -17 -4 -16 -14 -22 -19 -15
-6 -17 -4 -16 -14 -22 -19 -15
-6 -17 -4 -16 -14 -22 -19 -16
-6 -17 -4 -16 -14 -22 -19 -16
-7 -16 -3 -14 -13 -21 -20 -17
-6 -18 -3 -10 -12 -21 -20 -18
-5 -20 -3 -6 -11 -21 -20 -18
-4 -22 -2 -2 -10 -20 -20 -19
-3 -23 -2 2 -9 -20 -20 -20
0 -25 2 11 -4 -17 -21 -21
4 -25 8 26 7 -10 -19 -22
7 -26 15 42 17 -4 -18 -24
11 -27 21 57 27 3 -16 -25
14 -27 27 72 37 10 -14 -27
19 -24 33 86 54 27 -2 -22
24 -13 40 98 78 58 25 -8
29 -2 48 110 104 90 52 7
34 9 55 121 129 121 77 21
39 20 62 134 153 153 104 35
42 36 65 133 177 186 133 54
37 59 62 112 196 221 162 76
33 81 59 92 216 256 193 99
29 104 56 71 236 290 223 121
25 127 52 51 256 325 253 145
15 140 43 18 241 316 254 156
-3 142 25 -33 176 244 212 151
-20 144 7 -83 110 173 169 145
-37 146 -12 -135 46 101 127 140
-55 147 -29 -185 -20 29 85 135
-64 140 -47 -218 -68 -24 49 120
-59 115 -62 -223 -93 -50 23 96
-54 91 -77 -229 -117 -75 -3 71
-49 66 -93 -235 -142 -101 -28 46
-44 43 -108 -240 -165 -128 -54 21
-38 25 -114 -235 -175 -138 -68 5
-35 20 -105 -212 -157 -126 -64 0
-32 15 -96 -188 -140 -113 -60 -6
-29 10 -87 -164 -122 -100 -57 -10
-26 5 -77 -141 -105 -88 -53 -15
-24 1 -67 -119 -91 -76 -49 -18
-21 0 -57 -101 -77 -67 -44 -17
-19 0 -47 -82 -65 -58 -38 -16
-17 -2 -36 -64 -53 -49 -34 -15
-15 -3 -26 -45 -40 -39 -29 -14
-13 -4 -18 -32 -31 -33 -26 -13
-12 -5 -16 -28 -28 -30 -25 -13
-11 -6 -13 -23 -25 -28 -23 -13
-9 -7 -11 -19 -22 -25 -22 -13
-8 -8 -8 -15 -18 -23 -20 -13
-7 -9 -6 -12 -16 -21 -19 -14
-7 -9 -6 -11 -15 -21 -19 -14
-7 -9 -6 -9 -15 -20 -19 -14
-7 -10 -5 -8 -14 -19 -19 -14
-7 -10 -5 -6 -13 -19 -19 -14
-6 -11 -4 -5 -12 -18 -18 -14
-6 -11 -4 -5 -11 -17 -18 -14
-6 -11 -3 -5 -11 -17 -18 -14
-6 -12 -2 -4 -10 -16 -18 -15
-6 -12 -2 -4 -9 -15 -18 -15
-6 -13 0 -3 -8 -14 -17 -16
-6 -13 0 -2 -8 -14 -17 -16
-5 -13 0 0 -8 -14 -17 -16
-4 -13 0 1 -8 -14 -17 -15
-4 -13 0 2 -8 -14 -17 -15
-3 -12 0 3 -8 -15 -16 -14
-3 -12 0 3 -8 -15 -16 -14
-3 -12 0 3 -8 -14 -16 -14
-3 -13 0 3 -7 -13 -15 -14
-3 -13 0 3 -7 -13 -15 -14
-2 -14 0 2 -6 -12 -14 -14
-2 -13 0 3 -6 -12 -14 -14
-2 -12 0 3 -6 -12 -14 -14
-2 -10 0 4 -6 -12 -14 -14
-2 -9 0 5 -6 -12 -14 -14
0 -8 -2 6 -5 -11 -13 -13
0 -8 -2 6 -4 -10 -12 -13
0 -9 -2 6 -4 -9 -11 -12
0 -10 -2 6 -3 -7 -10 -11
0 -10 -2 6 -2 -6 -9 -11
-2 -11 0 6 0 -5 -8 -10
0 -11 0 7 0 -5 -8 -10
0 -11 0 8 0 -5 -8 -10
1 -10 -2 9 0 -5 -8 -10
2 -10 -2 10 0 -5 -8 -10
3 -9 -3 11 -2 -6 -9 -10
3 -9 -3 11 0 -5 -9 -10
3 -9 -3 11 0 -5 -8 -10
2 -9 -2 11 1 -4 -7 -10
2 -9 -2 11 2 -3 -7 -10
1 -9 0 12 3 -2 -6 -9
1 -9 0 12 3 -2 -6 -9
1 -9 0 12 3 -2 -6 -9
1 -9 -2 12 4 0 -5 -8
1 -9 -2 12 4 0 -5 -8
1 -9 -3 13 5 1 -4 -7
2 -9 -3 14 6 2 -3 -6
3 -8 -3 14 7 4 -2 -6
4 -7 -3 15 9 5 1 -5
5 -7 -3 16 10 7 2 -4
6 -6 -3 17 11 8 3 -3
7 -6 -3 17 11 8 3 -3
7 -6 -4 17 11 9 3 -3
8 -6 -5 17 11 10 3 -3
9 -6 -5 17 11 10 3 -3
10 -5 -6 18 12 11 4 -2
10 -5 -6 18 13 11 5 -2
11 -4 -6 18 13 12 6 -2
12 -3 -6 19 14 13 7 -2
12 -3 -6 19 15 13 8 -2
13 -2 -6 20 16 14 9 0
13 0 -6 22 18 17 11 2
13 1 -6 23 20 19 13 3
13 2 -7 25 22 22 15 5
13 3 -7 26 23 24 16 6
14 4 -8 28 25 26 18 8
15 5 -8 28 26 27 20 9
16 6 -8 28 27 28 21 10
18 8 -8 28 28 29 23 12
19 9 -8 28 29 30 24 13
20 10 -9 29 30 31 26 14
20 10 -9 30 32 34 28 16
20 10 -9 32 33 36 30 17
20 10 -10 33 35 39 32 19
20 10 -10 35 36 42 34 20
19 11 -11 36 38 44 36 22
20 14 -11 36 40 46 38 23
20 16 -11 36 42 48 39 25
21 19 -12 37 44 50 42 26
22 21 -12 37 45 51 43 28
23 23 -13 38 47 53 45 29
24 25 -13 39 48 55 48 31
24 27 -14 40 50 58 50 32
25 29 -14 42 51 60 52 34
26 31 -15 43 53 62 55 35
27 33 -16 44 54 64 57 37
27 33 -16 44 54 65 58 39
27 33 -16 44 54 65 59 40
27 33 -16 44 55 66 60 43
27 33 -16 44 55 67 61 44
27 34 -15 43 56 68 62 46
27 35 -15 43 57 69 64 47
27 37 -15 43 58 71 65 47
28 38 -16 43 59 72 67 48
28 40 -16 43 60 74 68 49
29 42 -17 43 61 75 70 50
29 43 -17 43 61 76 70 50
29 44 -16 43 62 76 71 50
29 45 -16 43 62 77 71 51
29 46 -15 43 63 78 72 51
29 47 -14 42 64 79 73 52
29 47 -14 42 64 79 73 52
28 47 -14 42 64 79 73 52
28 48 -14 40 63 79 73 52
27 48 -14 40 63 79 73 52
26 49 -13 39 62 78 73 53
26 49 -12 39 62 77 72 53
26 49 -11 39 62 76 71 52
26 48 -10 38 62 75 70 52
26 48 -8 38 62 74 68 51
25 47 -7 37 61 73 67 50
23 45 -6 37 60 71 65 48
22 44 -5 37 58 69 63 46
20 42 -4 37 57 67 61 45
19 40 -3 37 55 65 59 43
17 38 -2 36 54 63 57 40
17 36 0 36 52 60 54 38
17 35 0 36 51 58 52 36
17 33 1 35 49 56 49 35
17 32 2 35 48 53 46 33
16 30 3 34 46 51 44 31
15 28 4 34 44 48 40 29
14 26 5 34 42 46 38 26
13 25 6 33 40 43 35 24
11 23 7 33 38 39 32 22
10 21 8 32 36 37 30 20
9 19 8 31 34 34 27 18
9 17 8 30 32 31 24 15
8 15 8 29 30 28 21 13
7 13 8 27 28 25 18 11
6 11 9 26 26 22 15 9
6 11 9 25 24 20 13 8
6 11 9 23 21 18 12 7
6 10 9 22 19 16 10 6
6 10 9 20 17 14 9 4
5 9 8 19 15 12 7 3
5 8 8 19 14 11 6 2
4 6 8 18 14 10 5 2
4 5 8 18 13 9 4 1
3 3 8 17 12 7 2 0
2 2 8 16 11 6 1 -2
2 2 8 15 10 5 1 -2
1 1 8 14 9 4 0 -2
1 1 7 13 8 3 0 -2
0 0 7 12 6 2 -2 -2
-2 -2 6 11 5 1 -3 -3
-2 -2 6 10 5 1 -4 -3
-2 -3 6 10 4 0 -4 -4
-2 -3 5 9 4 0 -5 -4
-2 -4 5 8 3 -2 -6 -5
-3 -5 4 7 2 -3 -7 -6
-3 -5 4 7 1 -4 -7 -6
-3 -5 4 7 0 -4 -8 -7
-4 -4 3 6 -2 -5 -8 -7
-4 -4 3 6 -3 -6 -9 -8
-5 -3 2 5 -4 -7 -10 -9
-5 -3 2 5 -4 -7 -10 -9
-5 -3 2 5 -4 -7 -10 -9
-5 -4 3 5 -4 -8 -10 -9
-5 -4 3 5 -4 -8 -10 -9
-5 -5 4 4 -4 -9 -9 -8
-5 -5 4 4 -4 -9 -9 -8
-5 -5 4 4 -4 -9 -10 -8
-5 -5 4 3 -5 -10 -10 -8
-5 -5 4 3 -5 -10 -11 -8
-5 -5 3 2 -6 -11 -12 -8
-5 -5 3 2 -6 -11 -12 -8
-5 -5 3 2 -6 -11 -12 -8
-5 -5 4 2 -5 -10 -12 -7
-5 -5 4 2 -5 -10 -12 -7
-5 -4 5 3 -4 -9 -11 -6
-5 -4 5 3 -4 -9 -11 -6
-5 -4 5 3 -4 -9 -10 -6
-5 -5 5 3 -5 -9 -10 -6
-5 -5 5 3 -5 -9 -9 -6
-6 -6 5 3 -6 -10 -8 -7
-6 -5 5 3 -6 -10 -8 -7
-6 -5 5 3 -6 -10 -8 -7
-6 -4 5 3 -5 -10 -8 -7
-6 -3 5 3 -5 -10 -8 -7
-5 -2 5 3 -4 -9 -9 -6
-5 -2 5 3 -5 -9 -9 -6
-5 -2 5 3 -5 -10 -10 -6
-5 -2 5 3 -6 -10 -10 -7
-5 -2 5 3 -7 -11 -11 -7
-6 -3 4 3 -8 -12 -12 -8
-6 -3 4 3 -8 -12 -12 -8
-6 -3 4 3 -8 -12 -12 -8
-6 -4 4 3 -8 -12 -12 -8
-6 -4 4 3 -8 -12 -12 -8
-7 -5 4 3 -7 -11 -11 -9
-7 -5 4 3 -7 -11 -11 -9
-7 -5 4 3 -7 -11 -11 -8
-6 -5 4 4 -7 -11 -11 -8
-6 -5 4 4 -7 -11 -11 -7
-5 -4 5 5 -6 -10 -10 -6
-5 -4 5 5 -6 -10 -10 -6
-5 -4 5 5 -6 -10 -11 -6
-5 -5 4 4 -7 -11 -11 -7
-5 -5 4 4 -7 -11 -12 -7
-6 -6 3 3 -8 -12 -13 -8
-6 -6 3 3 -8 -12 -13 -8
-6 -5 3 3 -8 -12 -13 -8
-6 -5 3 3 -8 -12 -13 -8
-6 -4 3 3 -8 -12 -13 -8
-5 -3 3 3 -9 -13 -14 -9
-5 -3 3 3 -9 -13 -14 -9
-5 -3 3 3 -9 -13 -14 -9
-4 -3 3 3 -9 -13 -14 -9
-4 -3 3 3 -9 -13 -14 -9
-3 -3 4 4 -9 -13 -13 -8
-4 -4 4 4 -9 -13 -13 -8
-5 -5 4 4 -9 -13 -13 -8
-6 -6 4 4 -9 -13 -13 -8
-8 -7 4 4 -9 -13 -13 -8
-9 -8 4 4 -9 -14 -12 -8
-9 -8 4 4 -9 -14 -12 -8
-8 -8 4 4 -9 -14 -12 -8
-8 -7 4 4 -9 -14 -13 -9
-7 -7 4 4 -9 -14 -13 -9
-6 -6 3 3 -10 -15 -14 -10
-6 -6 3 3 -10 -15 -14 -10
-6 -6 3 3 -10 -16 -14 -10
-6 -6 3 3 -10 -16 -15 -10
-6 -6 3 3 -10 -17 -15 -10
-6 -7 4 3 -11 -18 -16 -10
-6 -7 4 3 -11 -18 -16 -10
-6 -7 3 3 -11 -18 -16 -10
-6 -8 3 2 -12 -18 -16 -11
-6 -8 2 2 -12 -18 -16 -11
-5 -9 1 1 -13 -18 -17 -12
-5 -9 1 1 -13 -18 -17 -12
-5 -9 1 1 -13 -18 -17 -12
-5 -9 2 1 -13 -18 -17 -12
-5 -9 2 1 -13 -18 -17 -12
-5 -10 3 2 -14 -17 -17 -12
-5 -10 3 2 -14 -17 -17 -12
-5 -10 3 2 -14 -17 -17 -12
-5 -9 3 1 -14 -17 -17 -12
-5 -9 3 1 -14 -17 -17 -12
-5 -8 2 0 -14 -18 -18 -13
-5 -8 2 0 -14 -18 -18 -13
-5 -8 2 0 -14 -19 -18 -13
-5 -8 2 0 -15 -20 -19 -14
-5 -8 2 0 -15 -21 -19 -14
-4 -9 1 -2 -16 -22 -20 -15
-4 -9 1 -2 -16 -22 -20 -15
-4 -9 1 -2 -16 -22 -20 -15
-4 -9 1 -3 -16 -22 -20 -15
-4 -9 1 -3 -16 -22 -20 -15
-5 -9 0 -4 -16 -22 -19 -15
-5 -9 0 -4 -16 -22 -19 -15
-5 -9 0 -4 -16 -22 -19 -15
-6 -10 0 -4 -16 -22 -19 -15
-6 -10 0 -4 -16 -22 -19 -15
-7 -11 0 -3 -16 -21 -19 -14
-7 -11 0 -3 -16 -21 -19 -14
-7 -11 0 -3 -16 -21 -19 -14
-7 -11 0 -3 -16 -21 -19 -14
-7 -11 0 -3 -16 -21 -19 -14
-8 -12 1 -3 -15 -20 -18 -13
-8 -12 1 -3 -15 -20 -18 -13
-8 -12 1 -3 -15 -20 -19 -13
-7 -12 1 -3 -15 -21 -19 -14
-7 -12 1 -3 -15 -21 -20 -14
-6 -11 1 -3 -16 -22 -21 -15
-6 -11 1 -3 -16 -22 -21 -15
-6 -11 1 -3 -16 -22 -21 -15
-6 -11 1 -4 -16 -22 -21 -15
-6 -11 1 -4 -16 -22 -21 -15
-7 -12 0 -5 -16 -23 -21 -16
-7 -12 0 -5 -16 -23 -21 -16
-7 -12 0 -5 -16 -23 -21 -16
-7 -12 0 -5 -16 -23 -21 -16
-7 -12 0 -5 -16 -23 -21 -16
-7 -12 0 -6 -16 -22 -20 -16
-7 -12 0 -6 -16 -22 -20 -16
-7 -12 0 -6 -16 -22 -20 -16
-6 -12 0 -6 -16 -22 -20 -16
-6 -12 0 -6 -16 -22 -20 -16
-5 -12 0 -5 -16 -21 -20 -16
-5 -12 0 -5 -16 -21 -20 -16
-5 -12 0 -5 -16 -22 -20 -16
-5 -12 0 -5 -16 -22 -21 -16
-5 -12 0 -5 -16 -23 -21 -16
-5 -11 0 -6 -16 -24 -22 -17
-5 -11 0 -6 -16 -24 -22 -17
-5 -11 0 -6 -16 -23 -21 -17
-5 -11 0 -6 -16 -22 -21 -16
-5 -11 0 -6 -16 -21 -20 -16
-6 -12 0 -6 -15 -20 -19 -15
-6 -12 0 -6 -15 -20 -19 -15
-6 -12 0 -6 -15 -20 -19 -15
-6 -12 0 -6 -15 -21 -20 -15
-6 -12 0 -6 -15 -21 -20 -15
-7 -13 0 -5 -16 -22 -21 -16
-7 -13 0 -5 -16 -22 -21 -16
-7 -13 0 -5 -16 -22 -20 -16
-7 -13 0 -5 -16 -22 -20 -15
-7 -13 0 -5 -16 -22 -19 -15
-6 -13 1 -5 -15 -21 -18 -14
-6 -13 1 -5 -15 -21 -18 -14
-6 -13 1 -5 -15 -21 -18 -14
-6 -13 1 -5 -15 -21 -19 -15
-6 -13 1 -5 -15 -21 -19 -15
-7 -14 0 -6 -15 -22 -20 -16
-7 -14 0 -6 -15 -22 -20 -16
-7 -14 0 -6 -15 -22 -20 -16
-8 -14 0 -6 -15 -22 -20 -16
-8 -14 0 -6 -15 -22 -20 -16
-9 -13 0 -7 -15 -22 -21 -16
-9 -13 0 -7 -15 -22 -21 -16
-8 -12 0 -7 -15 -22 -21 -16
-8 -12 0 -7 -15 -23 -22 -16
-7 -11 0 -7 -15 -23 -22 -16
-6 -10 -2 -7 -15 -24 -23 -15
-6 -10 -2 -7 -15 -24 -23 -15
-6 -10 -2 -7 -15 -24 -22 -15
-6 -10 -2 -7 -15 -23 -22 -15
-6 -10 -2 -7 -15 -23 -21 -15
-6 -11 -2 -7 -15 -22 -20 -16
-6 -11 -2 -7 -15 -22 -20 -16
-6 -11 -2 -7 -15 -22 -20 -16
-7 -12 -2 -7 -15 -22 -21 -16
-7 -12 -2 -7 -15 -22 -21 -16
-8 -13 0 -8 -14 -22 -22 -16
-8 -13 0 -8 -14 -22 -22 -16
-8 -13 0 -8 -14 -22 -22 -16
-8 -14 1 -8 -14 -22 -22 -16
-8 -14 1 -8 -14 -22 -22 -16
-7 -15 2 -8 -14 -22 -21 -17
-7 -15 2 -8 -14 -22 -21 -17
-7 -15 2 -8 -14 -22 -21 -17
-7 -14 2 -8 -14 -22 -21 -17
-7 -14 2 -8 -14 -22 -21 -17
-6 -13 1 -8 -14 -23 -21 -18
-6 -13 1 -8 -14 -23 -21 -18
-6 -12 1 -8 -14 -23 -21 -18
-6 -11 1 -8 -14 -23 -20 -17
-6 -10 1 -8 -14 -23 -20 -17
-7 -9 1 -8 -13 -22 -19 -16
-7 -7 2 -7 -11 -20 -18 -15
-6 -6 3 -5 -10 -18 -17 -14
-6 -4 5 -4 -8 -16 -16 -13
-5 -2 6 -2 -6 -14 -15 -12
-4 1 8 1 -4 -12 -13 -10
-4 1 8 1 -4 -12 -13 -10
-4 0 8 1 -4 -12 -13 -10
-3 -2 8 1 -4 -13 -13 -11
-3 -3 8 1 -4 -13 -13 -11
-2 -4 8 0 -5 -14 -14 -12
-2 -4 7 0 -5 -14 -14 -12
-2 -5 6 0 -5 -14 -14 -12
0 -5 5 1 -5 -14 -14 -12
0 -6 4 1 -5 -14 -14 -12
1 -7 3 2 -4 -14 -15 -12
1 -7 3 2 -4 -14 -15 -12
1 -6 2 2 -4 -13 -14 -11
1 -6 2 1 -4 -13 -13 -11
1 -5 1 1 -4 -12 -12 -10
1 -4 0 0 -4 -11 -11 -9
1 -4 -2 -3 -5 -12 -12 -9
1 -4 -4 -6 -7 -14 -13 -10
1 -5 -6 -9 -8 -15 -14 -10
1 -5 -8 -11 -10 -17 -15 -11
2 -6 -10 -14 -12 -19 -17 -12
2 -7 -10 -14 -12 -20 -17 -13
2 -9 -9 -14 -12 -21 -18 -14
1 -10 -9 -14 -13 -22 -18 -15
1 -12 -8 -14 -13 -23 -19 -16
0 -14 -7 -14 -14 -24 -20 -17
0 -14 -7 -14 -14 -24 -20 -17
0 -14 -7 -14 -15 -24 -21 -17
0 -14 -8 -15 -15 -25 -21 -17
0 -14 -8 -15 -16 -25 -22 -17
1 -14 -9 -16 -17 -26 -23 -16
0 -14 -9 -16 -17 -26 -23 -16
-2 -14 -9 -16 -17 -26 -23 -17
-3 -15 -9 -17 -17 -26 -23 -17
-4 -15 -9 -17 -17 -26 -23 -18
-6 -16 -9 -18 -17 -25 -22 -19
-6 -16 -9 -18 -17 -25 -22 -19
-7 -16 -9 -18 -17 -25 -22 -19
-8 -17 -8 -18 -17 -25 -23 -19
-9 -17 -8 -18 -17 -25 -23 -19
-10 -18 -7 -18 -17 -26 -24 -20
-10 -18 -7 -18 -17 -26 -24 -20
-11 -18 -7 -18 -17 -26 -24 -20
-11 -19 -7 -19 -17 -26 -24 -20
-12 -19 -7 -19 -17 -26 -24 -20
-13 -20 -7 -20 -18 -27 -25 -21
-13 -20 -7 -20 -18 -27 -25 -21
-13 -20 -7 -20 -18 -27 -25 -21
-12 -20 -7 -20 -18 -27 -25 -21
-12 -20 -7 -20 -18 -27 -25 -21
-11 -19 -6 -20 -17 -26 -26 -22
-11 -19 -6 -20 -17 -26 -26 -22
-11 -19 -6 -20 -17 -26 -26 -22
-11 -19 -6 -20 -17 -26 -25 -21
-11 -19 -6 -20 -17 -26 -25 -21
-12 -18 -7 -20 -16 -26 -24 -20
-12 -18 -7 -20 -16 -26 -24 -20
-12 -18 -7 -20 -16 -25 -24 -20
-12 -18 -6 -19 -15 -25 -23 -19
-12 -18 -6 -19 -15 -24 -23 -19
-13 -18 -5 -18 -14 -23 -22 -18
-12 -19 -5 -16 -14 -23 -22 -19
-10 -20 -5 -13 -13 -23 -23 -20
-9 -21 -5 -11 -12 -23 -23 -21
-7 -22 -5 -8 -11 -23 -24 -22
-5 -24 -5 -4 -10 -24 -25 -24
-2 -25 1 11 0 -19 -24 -25
3 -27 7 26 9 -13 -23 -26
7 -28 13 40 17 -7 -22 -28
10 -30 18 56 26 -2 -21 -29
14 -32 24 70 36 6 -18 -31
18 -22 31 85 60 34 6 -18
23 -13 39 99 84 62 29 -6
27 -4 47 113 107 90 52 8
31 7 55 128 131 118 75 21
36 17 62 141 154 147 99 34
34 38 62 123 174 180 130 58
31 61 62 106 194 214 159 80
28 84 61 90 215 247 190 104
25 105 61 72 235 281 221 128
21 127 59 53 252 310 248 150
4 131 39 2 195 252 215 148
-15 134 20 -50 139 192 181 146
-33 138 0 -101 82 134 148 144
-52 142 -20 -152 26 74 114 142
-69 145 -39 -201 -29 17 81 139
-66 122 -55 -211 -58 -15 52 112
-62 99 -69 -221 -87 -46 21 87
-58 75 -83 -230 -115 -77 -9 60
-54 52 -99 -240 -144 -108 -39 33
-50 29 -113 -248 -172 -139 -68 8
-47 23 -104 -225 -155 -127 -65 3
-43 17 -96 -201 -138 -114 -61 -2
-38 11 -87 -178 -121 -102 -57 -7
-34 4 -78 -154 -105 -90 -53 -12
-30 -3 -69 -131 -89 -77 -49 -17
-28 -3 -59 -112 -76 -69 -45 -17
-25 -4 -50 -94 -64 -60 -40 -17
-23 -4 -39 -75 -53 -51 -35 -16
-20 -5 -30 -57 -40 -43 -31 -16
-17 -6 -20 -38 -28 -33 -26 -15
-17 -7 -18 -35 -26 -31 -26 -15
-16 -8 -16 -31 -23 -29 -25 -15
-16 -9 -14 -27 -21 -27 -24 -15
-15 -10 -12 -23 -18 -25 -23 -15
-14 -11 -9 -19 -15 -23 -22 -16
-14 -11 -9 -18 -15 -23 -22 -16
-13 -12 -9 -17 -15 -23 -22 -16
-13 -13 -9 -15 -15 -23 -22 -16
-12 -14 -9 -14 -15 -23 -22 -16
-11 -15 -9 -12 -14 -23 -23 -16
-11 -15 -9 -12 -13 -23 -23 -16
-11 -15 -8 -12 -12 -22 -23 -16
-11 -16 -8 -12 -11 -21 -22 -16
-11 -16 -7 -12 -10 -20 -22 -16
-10 -17 -6 -12 -9 -19 -21 -17
-10 -17 -6 -11 -9 -19 -21 -17
-10 -17 -6 -10 -9 -19 -21 -17
-11 -16 -6 -9 -8 -19 -21 -17
-11 -16 -6 -8 -8 -19 -21 -17
-12 -15 -7 -7 -7 -19 -20 -17
-12 -15 -7 -7 -7 -19 -20 -17
-11 -15 -7 -7 -7 -18 -19 -17
-11 -16 -7 -7 -6 -17 -19 -17
-10 -16 -7 -7 -6 -16 -18 -17
-9 -17 -6 -8 -5 -15 -17 -16
-9 -17 -6 -8 -5 -15 -17 -16
-9 -17 -6 -7 -5 -15 -17 -16
-9 -17 -6 -7 -5 -15 -17 -15
-9 -17 -6 -6 -5 -15 -17 -15
-9 -16 -7 -5 -6 -15 -17 -14
-9 -16 -7 -5 -6 -15 -17 -14
-9 -16 -7 -5 -5 -14 -16 -14
-9 -16 -7 -5 -4 -13 -16 -14
-9 -16 -7 -5 -3 -12 -15 -14
-8 -15 -6 -5 -2 -11 -14 -14
-8 -15 -6 -4 -2 -11 -14 -14
-8 -15 -6 -3 -2 -11 -14 -14
-8 -14 -6 -2 -2 -11 -14 -14
-8 -14 -6 0 -2 -11 -14 -14
-8 -13 -6 1 0 -12 -14 -14
-8 -13 -6 1 0 -12 -14 -14
-8 -13 -6 1 0 -11 -14 -14
-7 -13 -6 1 1 -11 -13 -14
-7 -13 -6 1 1 -10 -13 -14
-6 -14 -7 0 2 -9 -12 -13
-6 -14 -7 0 2 -9 -12 -13
-6 -13 -7 1 2 -8 -12 -13
-5 -13 -7 1 2 -8 -11 -12
-5 -12 -7 2 2 -7 -11 -12
-4 -11 -8 3 3 -6 -10 -11
-4 -11 -8 3 4 -5 -9 -11
-4 -11 -8 3 5 -4 -9 -10
-4 -11 -8 4 6 -3 -8 -9
-4 -11 -8 4 7 -2 -7 -8
-4 -11 -8 4 8 0 -6 -8
-3 -11 -8 5 9 1 -5 -7
-2 -10 -8 6 9 1 -5 -6
0 -10 -9 6 9 2 -4 -6
1 -9 -9 7 9 2 -4 -5
2 -9 -9 7 9 2 -4 -5
3 -8 -10 8 11 4 -2 -4
3 -8 -10 8 12 6 0 -4
3 -7 -10 9 14 7 1 -3
3 -7 -10 9 15 9 2 -3
3 -7 -10 9 16 10 3 -3
2 -6 -10 11 17 12 5 0
2 -5 -10 12 18 13 7 1
3 -4 -11 13 19 14 8 2
3 -3 -11 14 20 15 10 3
3 -2 -11 15 20 16 11 4
4 1 -12 16 22 18 13 6
5 2 -12 17 24 20 15 8
6 3 -12 17 25 22 17 9
7 4 -12 18 27 24 19 11
7 5 -12 18 28 25 20 12
8 7 -11 19 30 27 22 14
9 8 -12 20 31 29 24 15
10 10 -13 21 32 31 25 16
11 11 -14 22 33 33 27 17
11 12 -14 22 34 34 28 18
13 14 -15 23 36 37 31 20
14 15 -15 24 38 39 33 22
15 17 -15 24 39 42 36 24
16 18 -15 25 42 44 38 26
17 19 -15 25 43 46 40 27
18 21 -15 26 44 48 43 29
18 23 -15 27 45 49 45 30
18 24 -15 28 46 51 46 32
18 26 -15 29 47 52 48 33
18 27 -15 30 47 53 49 34
19 28 -16 31 49 55 51 35
20 29 -16 31 50 57 52 36
20 29 -16 31 52 58 53 37
21 30 -16 31 53 60 54 38
21 30 -16 31 54 61 55 39
22 32 -15 30 55 62 56 42
22 34 -15 30 56 63 57 43
21 36 -15 31 56 63 58 44
21 38 -15 31 57 64 59 45
21 39 -15 31 57 64 60 46
20 40 -16 32 58 65 62 48
20 42 -15 32 59 66 64 49
20 42 -15 32 60 67 65 50
20 43 -14 32 61 68 67 51
20 43 -14 32 61 69 68 52
20 44 -13 32 62 70 69 53
20 45 -13 32 62 70 69 53
21 46 -13 32 62 71 69 53
21 47 -13 32 62 71 69 53
21 47 -13 32 62 71 69 53
22 48 -12 32 62 72 68 54
21 48 -11 32 62 72 68 54
20 47 -10 31 62 72 68 54
19 47 -9 31 62 72 68 54
19 47 -8 31 62 72 68 54
17 46 -7 30 63 71 66 52
16 46 -6 30 62 69 64 50
15 45 -6 31 61 67 63 49
14 45 -5 31 60 65 61 47
13 45 -5 31 59 64 60 46
12 42 -4 32 58 62 57 44
12 39 -3 32 57 60 54 42
12 37 -2 31 56 59 52 39
12 35 0 31 55 57 49 37
12 33 1 31 55 56 47 35
11 31 2 30 52 53 44 32
10 29 2 30 50 50 40 30
8 27 3 30 48 47 37 27
7 25 3 30 46 44 34 25
6 23 3 30 44 42 31 23
5 21 4 29 42 38 28 21
5 20 5 28 39 36 26 19
5 18 5 26 38 33 24 17
5 17 6 25 36 31 22 15
5 16 6 24 35 29 20 13
3 14 7 23 33 27 18 11
1 12 7 22 31 25 16 10
0 11 7 22 29 23 14 9
-3 9 7 21 27 21 12 8
-4 8 7 21 26 19 10 7
-5 6 7 18 24 17 8 5
-5 5 7 16 22 15 6 4
-5 3 7 14 20 13 5 2
-5 2 7 12 18 11 3 1
-5 1 7 10 17 10 2 0
-5 0 6 9 15 8 1 -2
-6 0 6 9 14 7 0 -2
-6 0 5 8 13 5 -2 -3
-7 0 5 8 12 4 -3 -3
-7 0 5 8 11 3 -3 -3
-8 -3 4 7 10 2 -4 -4
-8 -4 4 6 10 2 -4 -4
-9 -5 4 5 9 1 -5 -5
-9 -6 4 4 9 1 -5 -5
-9 -7 4 3 9 1 -5 -5
-10 -8 4 2 8 0 -6 -6
-10 -8 4 1 7 -2 -7 -6
-10 -7 4 1 6 -3 -8 -6
-10 -7 4 0 5 -4 -9 -6
-10 -7 4 0 5 -5 -9 -6
-9 -6 3 -2 4 -6 -10 -7
-9 -6 2 -3 4 -6 -10 -7
-9 -6 2 -4 4 -6 -10 -7
-9 -6 1 -5 4 -6 -10 -7
-9 -6 1 -5 4 -6 -10 -7
-9 -6 0 -6 3 -6 -11 -8
-9 -6 0 -6 3 -6 -11 -8
-10 -6 1 -5 2 -6 -11 -8
-10 -6 1 -5 2 -6 -11 -8
-10 -6 1 -5 2 -6 -11 -8
-11 -7 2 -4 1 -6 -10 -8
-11 -7 2 -4 1 -6 -10 -8
-11 -7 2 -4 1 -6 -10 -8
-11 -7 2 -4 1 -6 -10 -8
-11 -7 2 -4 1 -6 -10 -8
-11 -6 3 -4 2 -5 -10 -8
-11 -6 3 -4 2 -6 -10 -8
-12 -6 2 -5 1 -6 -10 -8
-12 -6 2 -5 1 -7 -10 -8
-12 -6 2 -5 1 -7 -10 -8
-13 -7 1 -6 0 -8 -11 -7
-13 -7 1 -6 0 -8 -11 -7
-12 -7 1 -6 0 -8 -11 -7
-12 -7 1 -6 0 -8 -11 -7
-12 -7 1 -6 0 -8 -11 -7
-11 -8 1 -6 1 -7 -12 -7
-11 -8 1 -6 1 -7 -12 -7
-11 -7 1 -5 1 -8 -12 -7
-11 -7 1 -5 1 -8 -12 -7
-11 -7 1 -5 1 -8 -12 -7
-10 -6 1 -4 0 -9 -11 -6
-10 -7 1 -4 0 -9 -11 -6
-10 -7 1 -5 0 -9 -11 -6
-10 -8 1 -5 0 -9 -11 -6
-10 -8 1 -5 0 -9 -11 -6
-9 -9 1 -6 0 -8 -10 -7
-9 -9 1 -6 0 -8 -11 -7
-9 -8 1 -6 -2 -8 -11 -7
-9 -8 1 -6 -2 -8 -12 -7
-9 -8 1 -6 -2 -8 -12 -7
-10 -7 0 -6 -3 -9 -13 -7
-10 -7 0 -6 -3 -9 -13 -7
-10 -8 0 -6 -3 -9 -13 -7
-10 -8 0 -6 -3 -9 -13 -7
-10 -8 0 -6 -3 -9 -13 -7
-11 -9 0 -5 -3 -8 -12 -8
-11 -9 0 -5 -3 -8 -12 -8
-10 -9 0 -5 -3 -9 -12 -8
-10 -9 0 -5 -3 -9 -12 -8
-10 -9 0 -5 -3 -9 -12 -8
-9 -8 0 -4 -3 -10 -12 -7
-9 -8 0 -4 -3 -10 -12 -7
-9 -8 0 -5 -4 -10 -13 -8
-9 -8 0 -5 -4 -10 -13 -8
-9 -8 0 -5 -4 -10 -13 -8
-8 -9 0 -6 -5 -11 -14 -9
-8 -9 0 -6 -5 -11 -14 -9
-8 -9 0 -6 -5 -11 -14 -9
-8 -9 0 -6 -5 -11 -14 -9
-8 -9 0 -6 -5 -11 -14 -9
-9 -10 0 -6 -4 -12 -14 -9
-9 -10 0 -6 -4 -12 -14 -9
-9 -10 0 -6 -5 -13 -15 -9
-9 -10 0 -6 -5 -13 -15 -9
-9 -10 0 -6 -5 -13 -15 -9
-10 -11 0 -6 -6 -14 -16 -10
-10 -11 0 -6 -6 -14 -16 -10
-9 -11 0 -6 -7 -14 -16 -10
-9 -11 0 -6 -7 -14 -16 -10
-9 -11 0 -6 -7 -14 -16 -10
-8 -12 -2 -6 -8 -14 -17 -11
-8 -12 -3 -6 -8 -14 -17 -11
-8 -13 -3 -6 -8 -14 -17 -11
-8 -13 -4 -6 -8 -14 -17 -11
-8 -13 -4 -6 -8 -14 -17 -11
-8 -14 -5 -7 -7 -14 -17 -12
-8 -14 -5 -7 -8 -14 -17 -12
-8 -14 -5 -7 -8 -15 -18 -12
-8 -14 -5 -7 -9 -15 -18 -12
-8 -14 -5 -7 -9 -15 -18 -12
-9 -15 -6 -8 -10 -16 -19 -12
-9 -15 -6 -8 -10 -16 -19 -12
-9 -15 -6 -8 -10 -16 -19 -12
-9 -15 -6 -8 -10 -16 -19 -12
-9 -15 -6 -8 -10 -16 -19 -12
-8 -16 -7 -8 -10 -17 -18 -13
-9 -16 -7 -8 -10 -17 -18 -13
-9 -15 -7 -8 -10 -17 -19 -13
-10 -15 -7 -8 -10 -17 -19 -13
-10 -15 -7 -8 -10 -17 -19 -13
-11 -14 -7 -9 -11 -18 -20 -13
-10 -14 -7 -9 -11 -18 -20 -13
-9 -14 -7 -9 -11 -18 -20 -13
-8 -14 -7 -9 -11 -18 -20 -13
-8 -14 -7 -9 -11 -18 -20 -13
-7 -14 -7 -9 -12 -18 -20 -14
-7 -14 -7 -9 -12 -18 -20 -14
-8 -14 -7 -9 -12 -18 -20 -14
-8 -14 -7 -9 -12 -18 -20 -14
-8 -14 -7 -9 -12 -18 -20 -14
-9 -15 -7 -9 -13 -19 -21 -14
-9 -15 -7 -9 -13 -19 -21 -14
-9 -15 -7 -9 -13 -19 -21 -15
-9 -15 -7 -9 -13 -19 -21 -15
-9 -15 -7 -9 -13 -19 -21 -15
-8 -16 -8 -10 -13 -19 -21 -16
-8 -16 -8 -10 -13 -19 -21 -16
-8 -15 -8 -10 -13 -19 -21 -16
-8 -15 -8 -10 -13 -19 -21 -16
-8 -15 -8 -10 -13 -19 -21 -16
-9 -14 -8 -11 -13 -19 -21 -15
-9 -14 -8 -11 -13 -19 -21 -15
-9 -15 -8 -11 -13 -19 -21 -15
-9 -15 -8 -11 -13 -19 -21 -15
-9 -15 -8 -11 -13 -19 -21 -15
-8 -16 -8 -11 -14 -18 -21 -14
-8 -16 -8 -11 -14 -18 -21 -14
-9 -16 -8 -11 -14 -18 -21 -14
-9 -16 -8 -11 -14 -18 -21 -14
-9 -16 -8 -11 -14 -18 -21 -14
-10 -17 -9 -11 -14 -19 -21 -15
-10 -17 -9 -11 -14 -19 -22 -15
-9 -16 -9 -11 -14 -20 -22 -16
-9 -16 -9 -11 -14 -20 -23 -16
-9 -16 -9 -11 -14 -20 -23 -16
-8 -15 -8 -11 -15 -21 -24 -17
-8 -15 -8 -11 -15 -21 -24 -17
-8 -15 -8 -11 -15 -21 -24 -17
-8 -15 -8 -11 -15 -21 -24 -17
-8 -15 -8 -11 -15 -21 -24 -17
-8 -14 -8 -11 -15 -21 -24 -16
-8 -14 -8 -11 -15 -21 -24 -16
-8 -15 -8 -11 -15 -21 -24 -16
-8 -15 -8 -11 -15 -21 -24 -16
-8 -15 -8 -11 -15 -21 -24 -16
-9 -16 -8 -11 -16 -21 -23 -16
-9 -16 -8 -11 -16 -21 -23 -16
-9 -15 -8 -11 -16 -21 -23 -16
-9 -15 -8 -11 -16 -21 -23 -16
-9 -15 -8 -11 -16 -21 -23 -16
-9 -14 -8 -10 -15 -21 -23 -16
-9 -15 -8 -10 -15 -21 -23 -16
-9 -16 -8 -10 -15 -20 -23 -16
-9 -17 -8 -10 -15 -20 -23 -16
-9 -18 -8 -10 -15 -20 -23 -16
-8 -19 -8 -10 -14 -19 -22 -16
-8 -19 -8 -10 -14 -19 -22 -16
-9 -18 -8 -10 -14 -19 -22 -16
-9 -18 -8 -10 -14 -19 -22 -16
-9 -18 -8 -10 -14 -19 -22 -16
-10 -17 -8 -9 -15 -19 -23 -15
-9 -17 -8 -9 -15 -19 -23 -15
-9 -17 -8 -9 -15 -19 -22 -15
-8 -17 -8 -9 -15 -19 -22 -15
-8 -17 -8 -9 -15 -19 -22 -15
-7 -17 -8 -10 -15 -20 -21 -16
-7 -17 -8 -10 -15 -20 -21 -16
-7 -17 -8 -10 -15 -20 -21 -16
-7 -17 -8 -10 -15 -20 -21 -16
-7 -17 -8 -10 -15 -20 -21 -16
-8 -17 -8 -10 -15 -21 -22 -16
-8 -17 -8 -10 -15 -21 -22 -16
-8 -17 -8 -10 -15 -21 -22 -16
-8 -17 -8 -10 -15 -21 -22 -16
-8 -17 -8 -10 -15 -21 -22 -16
-7 -17 -8 -10 -15 -21 -22 -16
-7 -17 -8 -10 -16 -21 -22 -16
-7 -17 -8 -10 -16 -21 -22 -16
-7 -17 -8 -10 -17 -21 -22 -16
-7 -17 -8 -10 -17 -21 -22 -16
-8 -17 -8 -10 -18 -21 -22 -16
-8 -17 -8 -10 -18 -21 -22 -16
-8 -17 -8 -10 -18 -21 -22 -16
-8 -17 -8 -10 -18 -21 -22 -16
-8 -17 -8 -10 -18 -21 -22 -16
-8 -16 -8 -9 -17 -21 -21 -16
-8 -16 -8 -9 -17 -21 -21 -16
-8 -16 -8 -10 -17 -21 -21 -16
-8 -16 -8 -10 -17 -21 -21 -16
-8 -16 -8 -10 -17 -21 -21 -16
-8 -17 -7 -11 -16 -21 -21 -16
-8 -17 -7 -11 -16 -21 -21 -16
-8 -17 -7 -11 -16 -20 -21 -16
-8 -17 -7 -11 -16 -20 -21 -16
-8 -17 -7 -11 -16 -20 -21 -16
-8 -16 -8 -11 -16 -19 -20 -15
-8 -16 -8 -11 -16 -19 -20 -15
-8 -16 -8 -10 -16 -19 -20 -15
-8 -16 -8 -10 -16 -19 -20 -15
-8 -16 -8 -10 -16 -19 -20 -15
-8 -16 -7 -9 -16 -20 -20 -15
-7 -16 -7 -9 -16 -20 -20 -15
-6 -15 -7 -9 -16 -20 -20 -15
-5 -15 -7 -9 -16 -20 -20 -15
-5 -15 -7 -9 -16 -20 -20 -15
-4 -13 -7 -9 -16 -19 -21 -15
-4 -12 -5 -8 -14 -18 -19 -14
-4 -10 -4 -7 -13 -17 -18 -14
-4 -8 -3 -6 -12 -16 -17 -13
-4 -7 -2 -5 -11 -16 -16 -13
-4 -6 0 -4 -10 -15 -15 -12
-4 -6 1 -3 -9 -14 -14 -11
-3 -6 2 -2 -8 -13 -14 -11
-3 -6 2 -2 -8 -13 -13 -10
-3 -6 3 0 -7 -12 -13 -10
-2 -5 4 1 -6 -11 -12 -9
-2 -6 3 1 -7 -11 -12 -9
0 -7 2 1 -7 -12 -12 -9
0 -8 1 1 -8 -12 -12 -9
0 -9 0 1 -8 -12 -12 -9
1 -10 -2 1 -9 -13 -13 -10
2 -9 -2 1 -9 -13 -13 -9
2 -8 -2 2 -9 -13 -13 -9
3 -7 -2 2 -9 -13 -13 -8
3 -6 -2 2 -9 -13 -13 -8
4 -5 -3 2 -8 -12 -12 -7
4 -5 -4 1 -9 -12 -12 -7
4 -5 -5 0 -10 -12 -12 -7
4 -5 -6 -3 -11 -12 -12 -7
4 -5 -7 -4 -12 -12 -12 -7
4 -6 -8 -5 -13 -13 -13 -8
4 -7 -8 -7 -14 -14 -14 -8
4 -8 -8 -8 -15 -15 -14 -9
4 -8 -8 -9 -15 -15 -15 -9
4 -9 -8 -10 -16 -16 -15 -9
3 -11 -8 -11 -17 -18 -16 -10
4 -12 -9 -12 -19 -19 -18 -11
4 -13 -9 -12 -20 -20 -19 -12
5 -15 -10 -13 -21 -22 -20 -13
5 -16 -10 -13 -22 -23 -21 -14
6 -17 -11 -14 -23 -24 -22 -15
5 -17 -11 -14 -23 -24 -22 -15
5 -17 -11 -14 -23 -24 -22 -15
4 -17 -11 -14 -23 -24 -22 -15
4 -17 -11 -14 -23 -24 -22 -15
2 -17 -10 -15 -23 -24 -21 -14
1 -17 -9 -15 -23 -24 -21 -14
0 -17 -9 -15 -23 -24 -21 -15
-3 -17 -8 -15 -23 -24 -21 -15
-4 -17 -8 -15 -23 -24 -21 -15
-5 -17 -7 -15 -23 -23 -22 -16
-5 -17 -7 -15 -23 -24 -22 -16
-5 -18 -7 -15 -23 -24 -23 -17
-5 -18 -7 -15 -23 -25 -23 -17
-5 -18 -7 -15 -23 -25 -23 -17
-6 -19 -7 -15 -23 -26 -24 -18
-6 -19 -7 -15 -23 -26 -24 -18
-7 -20 -7 -15 -24 -26 -25 -18
-7 -20 -7 -15 -24 -26 -25 -18
-7 -20 -7 -15 -24 -26 -25 -18
-8 -21 -6 -16 -25 -27 -26 -19
-8 -21 -6 -15 -25 -26 -26 -19
-8 -20 -6 -15 -24 -25 -25 -18
-8 -20 -6 -14 -24 -24 -25 -18
-8 -20 -6 -14 -24 -23 -25 -18
-9 -19 -5 -13 -23 -22 -24 -17
-9 -19 -4 -13 -23 -22 -24 -17
-9 -19 -4 -12 -23 -21 -24 -17
-9 -19 -3 -12 -23 -21 -24 -17
-9 -19 -3 -12 -23 -21 -24 -17
-9 -19 -2 -11 -22 -20 -23 -17
-9 -19 1 -11 -21 -20 -23 -17
-8 -19 2 -10 -21 -19 -22 -17
-8 -19 3 -10 -20 -19 -22 -17
-8 -19 4 -10 -20 -19 -22 -17
-5 -21 5 -5 -18 -18 -21 -17
-2 -24 7 3 -15 -18 -23 -20
3 -27 8 10 -13 -18 -24 -23
6 -30 9 17 -11 -18 -26 -26
9 -34 10 23 -8 -18 -27 -29
13 -33 15 36 3 -10 -23 -28
16 -30 22 53 16 4 -14 -25
19 -27 29 69 30 16 -5 -22
22 -24 36 86 44 28 4 -19
26 -20 43 102 57 42 13 -15
31 -10 49 111 78 68 35 -2
37 5 53 118 102 100 65 18
44 19 57 126 126 133 94 37
50 33 62 133 150 165 123 56
56 48 66 140 174 198 153 75
47 66 66 121 179 210 169 94
30 86 63 90 175 212 178 112
13 105 60 57 170 213 188 130
-4 125 57 25 165 215 197 148
-20 144 54 -8 160 217 207 167
-32 146 38 -48 119 177 180 159
-41 138 16 -92 62 115 135 139
-51 131 -6 -135 4 54 90 118
-60 122 -27 -179 -54 -8 45 98
-69 114 -50 -223 -112 -68 0 77
-68 97 -60 -230 -132 -91 -22 60
-62 76 -65 -219 -134 -96 -31 44
-55 55 -70 -208 -136 -100 -40 27
-49 33 -75 -197 -139 -104 -50 11
-43 12 -80 -186 -141 -108 -60 -6
-37 5 -75 -168 -131 -102 -59 -12
-33 3 -65 -146 -114 -89 -53 -12
-29 2 -55 -124 -98 -76 -47 -12
-25 1 -44 -103 -80 -63 -40 -12
-21 0 -33 -80 -64 -51 -34 -12
-18 -3 -26 -66 -54 -43 -30 -13
-17 -4 -20 -55 -47 -38 -27 -13
-15 -6 -15 -45 -40 -33 -25 -12
-14 -7 -9 -33 -33 -29 -23 -12
-12 -9 -3 -22 -27 -24 -20 -12
-11 -10 0 -17 -24 -22 -19 -11
-9 -10 1 -15 -23 -21 -19 -11
-8 -11 1 -14 -22 -21 -19 -11
-7 -11 2 -12 -22 -20 -19 -11
-6 -11 2 -10 -21 -20 -19 -11
-5 -12 3 -9 -20 -19 -18 -12
-5 -13 4 -8 -19 -19 -18 -13
-5 -14 5 -7 -18 -18 -18 -14
-5 -14 5 -7 -17 -17 -18 -14
-5 -15 6 -6 -16 -17 -18 -15
-6 -16 7 -5 -15 -16 -17 -16
-6 -16 7 -5 -15 -16 -17 -16
-6 -16 7 -4 -15 -16 -17 -16
-6 -16 7 -3 -15 -16 -17 -16
-6 -16 7 -3 -15 -16 -17 -16
-5 -15 6 -2 -14 -15 -16 -15
-5 -15 6 -2 -14 -15 -16 -15
-5 -15 6 -2 -14 -15 -16 -15
-5 -15 6 -2 -14 -15 -16 -15
-5 -15 6 -2 -14 -15 -16 -15
-4 -14 7 0 -13 -14 -16 -15
-4 -14 7 0 -13 -14 -16 -15
-3 -14 7 0 -13 -14 -16 -15
-3 -14 7 0 -13 -14 -16 -15
-3 -14 7 0 -13 -14 -16 -15
-2 -15 6 0 -12 -14 -15 -14
-2 -15 6 0 -12 -14 -15 -14
-2 -15 6 1 -11 -14 -15 -14
-2 -15 6 2 -11 -14 -15 -14
-2 -15 6 2 -11 -14 -15 -14
-2 -14 5 3 -10 -13 -14 -14
-2 -14 5 3 -10 -13 -14 -14
-2 -14 6 3 -10 -12 -13 -13
-2 -14 6 3 -10 -11 -13 -13
-2 -14 6 3 -10 -11 -13 -13
0 -13 7 3 -9 -10 -12 -12
0 -13 7 3 -8 -10 -12 -12
1 -13 7 4 -7 -9 -11 -12
1 -13 7 4 -7 -8 -10 -12
1 -13 7 4 -6 -8 -10 -12
2 -12 7 5 -5 -7 -9 -11
2 -12 7 5 -5 -7 -9 -11
2 -12 6 5 -5 -7 -8 -11
2 -12 5 5 -5 -7 -8 -11
2 -12 5 5 -5 -7 -8 -11
3 -11 4 5 -5 -6 -7 -10
3 -11 4 5 -4 -5 -7 -10
4 -10 4 6 -3 -4 -6 -9
4 -9 4 7 -2 -3 -5 -9
4 -9 4 7 0 -2 -5 -9
5 -8 5 8 1 0 -4 -8
5 -8 5 8 1 0 -4 -7
5 -8 4 8 1 1 -3 -6
5 -8 4 8 1 2 -3 -6
5 -8 4 8 1 2 -3 -5
5 -7 3 9 2 3 -2 -4
6 -7 3 10 3 5 1 -3
7 -6 3 11 4 6 2 -2
8 -6 3 11 5 8 4 -2
9 -6 3 12 6 9 5 0
10 -5 4 13 7 10 6 1
10 -4 4 13 7 10 7 1
11 -3 3 14 7 11 8 2
11 -3 3 14 7 11 8 2
11 -2 3 14 7 11 9 2
12 0 2 15 8 13 10 3
12 1 2 16 10 15 12 4
13 2 1 17 12 17 14 6
13 2 1 18 13 19 15 7
13 3 1 19 15 21 17 8
14 4 0 20 16 22 18 9
15 5 0 20 17 24 20 11
16 7 0 21 18 25 22 13
16 8 0 21 19 27 23 14
17 9 0 21 20 28 25 16
18 10 0 22 21 29 26 17
19 11 0 22 22 30 28 18
20 12 -2 23 23 32 30 19
20 13 -2 24 23 33 31 20
21 14 -2 24 24 34 33 21
22 15 -3 25 25 36 35 23
23 16 -3 25 27 38 37 25
24 18 -4 26 28 40 39 27
24 19 -4 27 30 43 42 29
25 20 -4 27 31 45 45 31
26 21 -5 28 32 46 46 32
26 23 -5 28 33 48 48 34
26 24 -5 29 34 49 50 35
26 26 -5 29 35 51 51 37
26 27 -5 29 36 52 53 38
26 29 -6 30 37 53 54 39
27 31 -6 30 38 54 55 40
28 33 -5 30 39 56 57 43
28 35 -5 30 39 57 58 44
29 37 -5 30 40 58 59 45
30 38 -4 30 42 59 60 46
30 39 -4 30 42 60 60 46
30 40 -4 30 42 61 61 47
30 42 -4 30 42 61 61 47
30 43 -4 30 42 62 61 47
29 44 -4 30 43 63 62 48
29 44 -4 30 44 63 63 49
29 45 -4 30 45 63 65 51
29 46 -4 30 45 63 66 52
29 46 -4 30 46 63 67 53
29 47 -3 30 47 63 68 54
28 47 -3 30 47 63 68 54
27 47 -3 30 47 63 67 53
27 47 -3 30 47 63 67 53
26 47 -3 30 47 63 67 53
25 48 -2 29 46 63 66 52
25 48 1 29 46 63 65 52
24 47 2 29 46 62 64 51
24 47 4 29 46 61 64 51
24 47 5 29 46 61 63 51
23 46 6 30 46 60 62 50
23 44 7 30 46 60 61 48
22 43 8 30 45 59 59 47
21 40 8 30 45 58 58 45
21 39 9 30 45 58 57 44
20 38 10 31 44 56 55 42
19 36 10 31 43 54 52 39
18 34 11 31 40 52 49 36
17 33 12 31 39 50 47 34
16 31 12 31 38 47 44 32
15 29 13 32 37 45 40 29
14 27 13 32 36 43 37 27
13 25 14 31 35 40 34 24
12 23 14 31 35 38 32 22
11 21 14 31 34 35 29 20
10 20 15 30 32 33 26 18
10 19 15 29 30 31 24 16
10 18 16 28 28 29 22 14
10 18 16 27 26 27 20 13
10 17 16 26 24 24 18 11
9 15 17 25 23 22 16 10
8 13 17 24 21 21 14 8
7 10 17 23 19 19 12 6
6 8 17 22 18 17 10 5
5 6 17 21 16 15 8 3
4 4 17 20 15 14 7 2
4 4 17 19 13 12 5 2
4 3 16 17 12 10 4 1
4 3 16 16 11 9 3 0
4 3 16 15 9 7 1 0
3 2 15 14 8 6 0 -2
3 1 15 14 8 6 0 -3
2 0 15 13 7 5 -2 -4
1 0 15 12 6 4 -3 -5
1 -2 15 12 6 4 -3 -6
0 -3 15 11 5 3 -4 -7
0 -3 15 11 5 3 -4 -7
0 -3 15 10 4 2 -4 -6
0 -3 15 9 3 1 -4 -6
0 -3 15 9 3 1 -4 -6
0 -3 15 8 2 0 -5 -5
0 -3 15 8 2 0 -5 -5
-2 -3 15 7 1 -2 -5 -5
-2 -3 15 7 1 -3 -5 -5
-2 -3 15 7 1 -3 -5 -5
-3 -4 14 6 0 -4 -6 -5
-3 -4 14 6 0 -4 -6 -5
-3 -4 14 6 0 -4 -6 -4
-3 -4 14 6 0 -4 -6 -4
-3 -4 14 6 0 -4 -6 -4
-4 -3 14 5 0 -3 -7 -3
-4 -3 14 5 0 -3 -7 -3
-5 -3 14 5 0 -4 -7 -3
-5 -3 14 5 0 -4 -7 -3
-5 -3 14 5 0 -4 -7 -3
-6 -2 14 4 -2 -5 -7 -3
-6 -2 14 4 -2 -5 -7 -3
-6 -3 13 4 -3 -5 -7 -4
-6 -4 13 4 -3 -5 -7 -4
-6 -4 13 4 -3 -5 -7 -4
-7 -5 12 4 -4 -6 -8 -5
-7 -5 12 4 -4 -6 -8 -5
-7 -4 12 4 -4 -6 -8 -5
-7 -4 12 4 -4 -6 -8 -5
-7 -4 12 4 -4 -6 -8 -5
-6 -3 13 3 -3 -6 -8 -5
-6 -3 13 3 -3 -6 -8 -5
-6 -3 13 3 -3 -6 -8 -5
-6 -3 13 3 -3 -6 -8 -5
-6 -3 13 3 -3 -6 -8 -5
-6 -4 13 3 -4 -6 -8 -4
-6 -4 13 3 -4 -6 -8 -4
-5 -4 12 3 -4 -6 -8 -4
-4 -4 12 3 -4 -6 -8 -4
-4 -4 12 3 -4 -6 -8 -4
-3 -3 11 3 -5 -6 -8 -5
-4 -3 11 3 -5 -6 -8 -5
-5 -3 11 3 -5 -6 -8 -5
-5 -3 11 3 -5 -6 -8 -5
-6 -3 11 3 -5 -6 -8 -5
-7 -4 12 3 -5 -7 -8 -4
-7 -4 12 3 -5 -7 -8 -4
-6 -4 11 3 -5 -7 -8 -4
-6 -4 11 3 -5 -7 -8 -4
-6 -4 11 3 -5 -7 -8 -4
-5 -4 10 3 -5 -7 -8 -5
-5 -4 10 3 -5 -7 -8 -5
-5 -5 10 3 -6 -7 -8 -5
-5 -5 10 3 -7 -7 -8 -5
-5 -5 10 3 -7 -7 -8 -5
-4 -6 9 3 -8 -8 -9 -6
-4 -6 9 3 -8 -8 -9 -6
-4 -6 9 3 -8 -8 -9 -6
-4 -6 9 3 -8 -8 -9 -6
-4 -6 9 3 -8 -8 -9 -6
-5 -5 10 3 -7 -8 -9 -7
-5 -5 10 3 -7 -8 -9 -7
-5 -5 10 3 -7 -8 -9 -7
-5 -6 9 3 -7 -9 -9 -7
-5 -6 9 3 -7 -9 -9 -7
-6 -7 8 2 -8 -10 -10 -6
-6 -7 8 2 -8 -10 -10 -6
-6 -7 8 2 -8 -10 -10 -6
-5 -7 8 2 -8 -10 -10 -7
-5 -7 8 2 -8 -10 -10 -7
-4 -7 9 3 -8 -10 -11 -8
-4 -7 9 3 -8 -10 -11 -8
-4 -7 9 3 -8 -10 -11 -8
-4 -7 9 2 -9 -11 -11 -8
-4 -7 9 2 -9 -11 -11 -8
-5 -7 8 1 -10 -12 -11 -8
-5 -7 8 1 -10 -12 -11 -8
-5 -7 8 1 -10 -12 -11 -8
-4 -8 8 1 -10 -12 -12 -8
-4 -8 8 1 -10 -12 -12 -8
-3 -9 7 1 -10 -13 -13 -9
-3 -9 7 1 -10 -13 -13 -9
-4 -9 7 1 -10 -13 -13 -10
-5 -10 7 1 -10 -13 -13 -11
-5 -10 7 1 -10 -13 -13 -11
-6 -11 6 0 -11 -14 -14 -12
-5 -11 6 0 -11 -14 -14 -12
-5 -11 6 0 -11 -14 -14 -12
-4 -10 6 0 -11 -14 -15 -12
-3 -10 6 0 -11 -14 -15 -12
-2 -9 5 0 -12 -15 -16 -11
-2 -9 5 0 -12 -15 -16 -11
-2 -9 5 0 -12 -15 -16 -11
-3 -10 5 0 -12 -15 -16 -11
-3 -10 5 0 -12 -15 -16 -11
-4 -11 5 -2 -13 -16 -16 -11
-4 -11 5 -2 -13 -16 -16 -11
-4 -11 5 -2 -13 -16 -16 -11
-4 -11 5 -2 -13 -16 -16 -11
-4 -11 5 -2 -13 -16 -16 -11
-3 -11 4 -3 -13 -15 -17 -12
-3 -11 4 -3 -13 -15 -17 -12
-4 -11 4 -3 -13 -15 -17 -12
-5 -11 4 -3 -13 -15 -17 -12
-5 -11 4 -3 -13 -15 -17 -12
-6 -11 4 -2 -14 -15 -16 -11
-6 -11 4 -2 -14 -15 -16 -11
-6 -11 4 -2 -14 -15 -16 -11
-5 -11 4 -3 -14 -15 -17 -12
-5 -11 4 -3 -14 -15 -17 -12
-4 -10 3 -4 -14 -16 -18 -13
-4 -10 3 -4 -14 -16 -18 -13
-4 -10 3 -4 -14 -16 -18 -13
-4 -11 3 -4 -14 -16 -18 -14
-4 -11 3 -4 -14 -16 -18 -14
-5 -12 2 -5 -15 -17 -18 -15
-5 -12 2 -5 -15 -17 -18 -15
-5 -12 2 -5 -15 -17 -18 -15
-5 -11 2 -5 -15 -17 -18 -15
-5 -11 2 -5 -15 -17 -18 -15
-6 -10 2 -5 -15 -17 -19 -15
-6 -10 2 -5 -15 -17 -19 -15
-6 -10 2 -5 -15 -17 -19 -15
-6 -11 2 -5 -15 -17 -19 -15
-6 -11 2 -5 -15 -17 -19 -15
-6 -12 2 -5 -16 -18 -19 -15
-6 -12 2 -5 -16 -18 -19 -15
-6 -12 2 -5 -16 -18 -19 -15
-6 -12 2 -5 -16 -18 -19 -15
-6 -12 2 -5 -16 -18 -19 -15
-5 -11 1 -5 -16 -18 -20 -15
-5 -11 1 -5 -16 -18 -20 -15
-5 -11 1 -5 -16 -18 -20 -15
-5 -11 1 -5 -16 -18 -20 -15
-5 -11 1 -5 -16 -18 -20 -15
-5 -10 0 -5 -16 -18 -20 -15
-5 -10 0 -5 -16 -18 -20 -15
-5 -10 0 -5 -16 -18 -20 -15
-4 -10 0 -5 -16 -19 -20 -15
-4 -10 0 -5 -16 -19 -20 -15
-3 -11 0 -6 -17 -20 -20 -15
-3 -11 0 -6 -17 -20 -20 -15
-3 -11 0 -6 -17 -20 -20 -15
-3 -11 0 -6 -17 -20 -20 -15
-3 -11 0 -6 -17 -20 -20 -15
-4 -11 -2 -6 -17 -19 -20 -15
-4 -11 -2 -6 -17 -19 -20 -15
-4 -11 -2 -6 -17 -19 -20 -15
-4 -11 -2 -6 -17 -19 -20 -15
-4 -11 -2 -6 -17 -19 -20 -15
-5 -12 -2 -5 -17 -19 -20 -15
-5 -12 -2 -5 -17 -19 -20 -15
-5 -11 -2 -5 -17 -19 -20 -15
-4 -10 -2 -5 -17 -19 -20 -15
-4 -10 -2 -5 -17 -19 -20 -15
-3 -9 -2 -4 -17 -18 -19 -16
-3 -9 -2 -4 -17 -18 -19 -16
-3 -9 -2 -4 -17 -18 -19 -16
-3 -9 -2 -4 -17 -17 -20 -16
-3 -9 -2 -4 -17 -17 -20 -16
-4 -10 -2 -3 -16 -16 -21 -16
-5 -10 -2 -3 -16 -16 -21 -16
-5 -11 -2 -3 -16 -16 -21 -16
-6 -12 -2 -3 -16 -17 -21 -16
-7 -12 -2 -3 -16 -17 -21 -16
-8 -13 -2 -3 -17 -18 -20 -15
-8 -13 -2 -3 -17 -18 -20 -15
-7 -12 -2 -3 -17 -18 -20 -15
-6 -11 -2 -3 -17 -18 -19 -15
-6 -11 -2 -3 -17 -18 -19 -15
-5 -10 -3 -4 -17 -17 -18 -15
-5 -10 -3 -4 -17 -17 -18 -15
-5 -10 -3 -4 -17 -17 -18 -15
-5 -10 -3 -4 -17 -17 -18 -15
-5 -10 -3 -4 -17 -17 -18 -15
-4 -11 -3 -3 -17 -18 -19 -15
-4 -11 -3 -3 -17 -18 -19 -15
-4 -11 -3 -3 -17 -18 -19 -15
-5 -10 -3 -3 -17 -18 -19 -15
-5 -10 -3 -3 -17 -18 -19 -15
-6 -9 -4 -4 -17 -17 -20 -15
-6 -9 -4 -4 -17 -17 -20 -15
-6 -9 -4 -4 -17 -17 -20 -15
-5 -9 -4 -4 -17 -17 -20 -15
-5 -9 -4 -4 -17 -17 -20 -15
-4 -10 -4 -4 -17 -18 -20 -15
-4 -10 -4 -4 -17 -18 -20 -15
-4 -10 -4 -4 -17 -18 -20 -15
-4 -10 -4 -4 -17 -18 -20 -15
-4 -10 -4 -4 -17 -18 -20 -15
-5 -10 -4 -4 -18 -17 -19 -16
-5 -10 -4 -4 -18 -17 -19 -16
-5 -10 -4 -4 -18 -17 -19 -16
-5 -10 -4 -4 -18 -17 -19 -16
-5 -10 -4 -4 -18 -17 -19 -16
-5 -11 -3 -5 -17 -17 -18 -16
-5 -11 -3 -4 -17 -17 -18 -16
-5 -11 -3 -4 -17 -17 -18 -16
-5 -11 -2 -3 -17 -16 -18 -16
-5 -11 -2 -2 -17 -16 -18 -16
-4 -10 0 0 -18 -15 -18 -15
-4 -7 0 1 -16 -14 -17 -14
-3 -5 1 1 -14 -13 -16 -14
-2 -3 2 2 -12 -12 -15 -13
-2 0 2 3 -11 -11 -14 -12
0 2 3 4 -9 -10 -13 -11
0 1 3 5 -9 -10 -13 -11
0 1 3 5 -9 -10 -13 -11
0 0 4 6 -9 -10 -13 -11
0 -2 4 7 -9 -10 -13 -11
0 -3 5 8 -9 -9 -13 -11
1 -3 4 8 -9 -9 -13 -11
3 -4 3 8 -9 -9 -13 -11
4 -5 1 8 -10 -10 -13 -11
6 -5 0 8 -10 -10 -13 -11
7 -6 -2 7 -11 -11 -14 -12
7 -5 -2 7 -11 -10 -13 -11
7 -3 -2 7 -10 -9 -13 -11
7 -2 -3 7 -9 -8 -12 -10
7 1 -3 7 -9 -7 -11 -9
8 2 -4 8 -8 -6 -10 -8
8 2 -5 5 -10 -8 -11 -8
8 2 -7 3 -11 -9 -12 -8
7 1 -8 0 -13 -11 -13 -9
7 1 -10 -3 -14 -12 -14 -9
6 0 -11 -5 -16 -14 -15 -10
6 -3 -11 -5 -16 -14 -15 -11
6 -4 -11 -5 -16 -14 -15 -12
6 -6 -11 -5 -17 -15 -16 -14
6 -7 -11 -5 -17 -15 -16 -15
5 -9 -10 -5 -18 -16 -17 -16
5 -9 -10 -5 -18 -16 -17 -16
5 -9 -11 -6 -19 -17 -18 -16
5 -9 -12 -7 -20 -18 -19 -16
5 -9 -12 -7 -20 -18 -19 -16
6 -8 -13 -8 -21 -19 -20 -16
5 -8 -13 -8 -21 -19 -20 -16
5 -8 -13 -8 -21 -19 -20 -16
4 -9 -13 -8 -21 -19 -20 -16
3 -9 -13 -8 -21 -19 -20 -16
2 -10 -13 -9 -22 -19 -20 -16
1 -10 -13 -9 -22 -19 -20 -16
1 -10 -13 -9 -22 -19 -20 -16
0 -10 -13 -9 -22 -19 -20 -17
-2 -10 -13 -9 -22 -19 -20 -17
-3 -10 -12 -10 -22 -20 -21 -18
-3 -10 -12 -10 -22 -20 -21 -18
-4 -11 -12 -10 -22 -21 -22 -18
-5 -12 -11 -10 -22 -22 -23 -19
-5 -12 -11 -10 -22 -22 -23 -19
-6 -13 -10 -11 -23 -23 -24 -20
-6 -13 -10 -11 -23 -23 -24 -20
-6 -13 -10 -11 -23 -23 -24 -20
-6 -13 -10 -11 -23 -23 -24 -20
-6 -13 -10 -11 -23 -23 -24 -20
-6 -13 -10 -10 -23 -22 -23 -19
-6 -13 -10 -10 -23 -22 -23 -19
-6 -13 -10 -10 -23 -22 -23 -19
-6 -13 -9 -10 -23 -21 -23 -19
-6 -13 -9 -10 -23 -21 -23 -19
-6 -13 -8 -9 -22 -20 -22 -18
-6 -13 -8 -9 -21 -19 -22 -18
-6 -13 -8 -8 -21 -19 -22 -18
-7 -13 -8 -7 -20 -18 -22 -18
-7 -13 -8 -7 -19 -17 -22 -18
-8 -13 -7 -6 -18 -16 -21 -18
-7 -13 -7 -6 -18 -16 -21 -18
-6 -13 -7 -6 -18 -16 -21 -18
-4 -13 -7 -5 -18 -16 -21 -18
-3 -13 -7 -5 -18 -16 -21 -18
0 -14 -7 0 -19 -17 -21 -19
4 -17 -5 9 -16 -16 -22 -22
7 -20 -4 18 -13 -16 -23 -25
11 -23 -2 28 -11 -15 -24 -29
15 -26 0 37 -8 -14 -26 -32
19 -28 4 50 0 -8 -23 -33
23 -25 12 67 18 11 -10 -27
27 -22 19 86 36 28 4 -20
31 -19 27 103 55 46 17 -14
36 -16 34 120 72 64 30 -7
39 -7 42 133 93 87 49 5
43 13 45 136 115 119 79 27
46 33 49 138 138 152 111 49
48 54 52 140 160 185 142 70
51 73 56 143 183 219 173 92
47 92 57 132 195 237 194 110
27 107 49 91 179 225 191 121
7 122 40 49 163 212 188 133
-14 138 33 7 147 198 185 143
-33 153 25 -35 132 185 182 154
-49 159 13 -73 104 158 165 155
-52 140 -8 -106 51 103 121 131
-55 120 -27 -138 -3 48 77 106
-59 102 -48 -171 -56 -9 33 82
