I II V1 V2 V3 V4 V5 V6
-6 -11 -4 -6 -8 -14 -15 -9
-7 -12 -4 -6 -8 -14 -15 -9
-8 -13 -4 -6 -7 -13 -15 -9
-9 -15 -4 -6 -7 -13 -15 -9
-10 -16 -4 -6 -6 -12 -15 -9
-11 -17 -4 -6 -6 -12 -15 -9
-12 -16 -5 -5 -5 -11 -14 -9
-11 -14 -5 -5 -5 -11 -14 -9
-10 -12 -4 -4 -5 -11 -13 -8
-9 -10 -4 -4 -5 -11 -13 -8
-9 -8 -4 -4 -5 -11 -13 -8
-8 -8 -3 -2 -6 -12 -12 -7
-7 -9 -2 0 -5 -11 -12 -7
-7 -10 -2 1 -4 -10 -12 -7
-6 -11 0 2 -3 -9 -12 -7
-6 -12 0 3 -2 -8 -12 -7
-5 -13 1 4 0 -7 -13 -6
-5 -12 0 3 -2 -8 -13 -6
-4 -11 -2 2 -2 -8 -13 -6
-4 -10 -3 1 -3 -9 -13 -6
-4 -9 -3 1 -3 -9 -13 -6
-3 -8 -4 0 -4 -10 -12 -7
-4 -8 -4 1 -4 -9 -11 -6
-4 -8 -4 1 -3 -9 -10 -6
-5 -8 -4 2 -3 -8 -9 -5
-5 -8 -4 2 -3 -8 -8 -5
-6 -9 -3 3 -2 -7 -7 -4
-6 -8 -3 4 -2 -6 -6 -3
-5 -7 -3 4 0 -5 -6 -2
-5 -6 -3 5 0 -4 -5 0
-5 -6 -3 5 0 -4 -5 0
-4 -5 -2 6 1 -3 -4 1
-4 -5 -2 7 2 -2 -4 1
-3 -5 -2 7 2 -2 -4 1
-3 -5 -2 8 3 0 -4 1
-3 -5 -2 8 3 0 -4 1
-2 -5 -3 9 4 1 -3 1
-2 -5 -3 10 5 2 -2 2
-2 -5 -3 11 5 3 0 3
-2 -5 -3 12 6 4 1 4
-2 -5 -3 12 6 5 2 5
0 -4 -3 13 7 6 3 6
1 -3 -3 13 7 6 3 5
2 -2 -3 13 8 6 3 4
3 0 -3 13 8 6 3 3
4 0 -3 13 8 6 3 3
6 1 -4 14 9 8 3 3
7 2 -4 15 10 10 4 5
8 3 -4 16 11 11 6 6
9 4 -4 17 12 13 7 8
10 5 -4 18 13 14 8 9
11 6 -4 19 14 15 10 11
12 7 -4 20 15 16 11 12
12 8 -4 21 16 17 12 13
13 9 -4 22 17 18 13 14
13 10 -4 23 17 18 14 15
14 11 -4 24 18 19 15 16
14 10 -5 25 18 20 16 17
15 10 -6 25 18 21 17 17
15 9 -7 26 18 22 18 18
15 9 -7 26 18 23 18 18
16 9 -8 27 19 25 20 20
17 11 -8 28 20 26 21 22
17 13 -8 29 21 28 23 23
18 15 -8 30 22 29 24 25
18 17 -8 30 23 30 25 26
19 18 -8 31 24 31 27 28
20 18 -9 32 25 32 29 30
20 18 -10 32 25 33 30 31
21 18 -11 33 26 34 32 33
21 18 -11 33 26 35 33 34
22 18 -12 34 27 36 34 35
23 19 -12 34 27 37 35 35
23 19 -12 34 27 37 35 35
24 20 -12 34 27 38 36 35
24 20 -12 34 27 38 36 35
26 22 -12 34 28 39 37 36
27 23 -13 33 28 39 37 37
29 24 -14 33 27 40 38 38
30 25 -15 32 27 40 38 39
31 26 -15 32 27 40 38 39
32 27 -16 31 26 42 39 40
31 28 -16 31 26 42 39 40
30 28 -17 31 26 42 39 40
29 29 -17 31 26 42 39 40
29 29 -17 31 26 42 39 40
28 30 -18 31 26 40 40 42
29 31 -18 30 26 40 40 42
30 32 -17 30 26 40 42 43
31 33 -17 29 26 40 42 43
32 34 -17 29 26 40 42 43
32 35 -16 28 25 39 43 44
30 34 -16 27 25 38 42 43
28 33 -16 27 25 36 40 42
26 32 -16 26 25 35 39 40
25 31 -16 26 25 34 38 40
24 30 -15 25 25 33 36 39
24 30 -14 25 24 32 35 38
24 30 -13 25 23 31 34 37
24 30 -12 25 22 30 33 36
24 30 -11 25 22 30 32 35
22 30 -9 24 21 28 29 32
20 28 -8 24 21 26 27 30
17 26 -7 23 20 24 24 28
14 24 -6 23 20 22 21 26
12 23 -5 23 20 21 19 24
10 21 -4 21 18 19 18 22
9 20 -3 20 17 17 17 21
8 18 -2 19 16 16 16 20
7 17 0 18 15 14 15 19
6 16 0 17 14 13 14 18
4 14 1 16 13 12 12 16
3 12 1 16 13 11 11 14
1 11 1 15 13 10 10 13
0 9 1 15 13 9 9 11
-2 8 1 15 13 9 8 10
-3 7 1 12 11 6 5 8
-4 6 1 10 10 3 3 6
-5 5 1 8 9 0 1 4
-6 4 1 5 8 -3 -3 2
-7 4 1 3 7 -6 -5 1
-8 3 2 2 6 -7 -6 0
-8 3 2 2 5 -7 -6 -2
-8 2 2 2 4 -7 -7 -2
-8 2 2 2 3 -7 -7 -3
-8 2 2 2 3 -7 -7 -3
-8 1 1 0 2 -8 -8 -4
-9 0 1 -2 1 -9 -9 -5
-9 -2 0 -4 0 -9 -9 -6
-10 -3 0 -5 -2 -10 -10 -7
-10 -4 0 -6 -2 -10 -10 -8
-11 -5 -2 -7 -3 -11 -11 -9
-10 -4 0 -6 -3 -11 -11 -8
-9 -4 0 -6 -3 -11 -11 -7
-8 -3 1 -5 -3 -11 -11 -6
-7 -3 1 -5 -3 -11 -11 -5
-6 -2 2 -4 -2 -10 -10 -4
-7 -3 2 -4 -2 -10 -10 -4
-8 -4 2 -4 -3 -10 -10 -5
-9 -5 2 -4 -3 -10 -10 -5
-10 -6 2 -4 -3 -10 -10 -5
-11 -7 1 -4 -4 -11 -11 -6
-11 -7 2 -3 -3 -11 -11 -6
-11 -7 2 -3 -3 -10 -11 -7
-11 -7 3 -2 -2 -10 -11 -7
-11 -7 3 -2 -2 -10 -11 -7
-11 -7 4 0 0 -9 -10 -8
-10 -6 4 0 0 -9 -10 -8
-9 -6 3 0 -2 -10 -10 -8
-8 -5 3 0 -2 -10 -10 -8
-8 -5 3 0 -2 -10 -10 -8
-7 -4 2 -2 -3 -11 -11 -7
-7 -4 2 -2 -3 -11 -12 -7
-8 -5 2 -2 -3 -11 -13 -8
-8 -5 2 -2 -3 -11 -14 -8
-8 -5 2 -2 -3 -11 -14 -8
-9 -6 2 0 -3 -12 -15 -9
-10 -7 2 0 -3 -12 -15 -9
-10 -8 2 -2 -4 -12 -14 -9
-11 -9 2 -2 -4 -12 -14 -9
-11 -9 2 -2 -4 -12 -14 -9
-11 -10 1 -3 -5 -12 -13 -9
-10 -9 1 -3 -5 -12 -13 -9
-8 -8 1 -3 -5 -12 -13 -9
-7 -7 1 -3 -5 -12 -13 -9
-6 -7 1 -3 -5 -12 -13 -9
-5 -6 1 -2 -4 -12 -13 -10
-6 -7 1 -3 -5 -13 -13 -11
-7 -8 0 -3 -5 -13 -14 -11
-8 -9 0 -4 -6 -14 -14 -12
-9 -9 0 -4 -6 -14 -14 -12
-10 -9 -2 -5 -7 -15 -15 -13
-9 -8 -2 -5 -7 -15 -15 -13
-9 -7 -2 -5 -6 -14 -15 -13
-8 -6 -2 -5 -6 -14 -15 -13
-8 -5 -2 -5 -6 -14 -15 -13
-8 -5 0 -4 -5 -13 -14 -14
-9 -8 0 -4 -5 -13 -14 -13
-10 -10 1 -4 -5 -13 -14 -13
-11 -12 1 -4 -5 -13 -14 -12
-12 -14 1 -4 -5 -13 -14 -12
-12 -14 2 -3 -6 -12 -13 -11
-11 -13 2 -3 -6 -13 -14 -12
-9 -11 1 -4 -6 -14 -15 -12
-7 -9 1 -4 -6 -15 -16 -13
-6 -8 1 -4 -6 -15 -16 -13
-5 -7 0 -5 -7 -16 -17 -14
-5 -7 0 -6 -8 -16 -17 -14
-6 -7 -2 -6 -9 -16 -18 -14
-6 -7 -2 -7 -10 -16 -18 -14
-6 -7 -2 -7 -10 -16 -18 -14
-7 -7 -3 -8 -11 -17 -19 -14
-8 -8 -3 -9 -11 -18 -19 -14
-8 -9 -3 -9 -12 -18 -19 -14
-9 -10 -3 -10 -12 -19 -19 -14
-9 -11 -3 -10 -12 -19 -19 -14
-10 -12 -4 -11 -13 -20 -19 -15
-10 -12 -3 -11 -13 -20 -19 -14
-10 -12 -3 -10 -12 -19 -18 -14
-10 -12 -2 -10 -12 -19 -18 -13
-10 -12 -2 -10 -12 -19 -18 -13
-9 -11 0 -9 -11 -18 -17 -12
-8 -10 1 -8 -10 -17 -17 -12
-7 -9 2 -7 -9 -17 -16 -12
-6 -8 3 -6 -8 -16 -16 -12
-5 -7 3 -5 -8 -16 -16 -12
-4 -5 4 -4 -7 -15 -15 -11
-3 -4 4 -4 -7 -15 -15 -11
-3 -3 4 -4 -7 -15 -15 -12
-2 -2 4 -4 -7 -15 -15 -12
-2 0 4 -4 -7 -15 -15 -12
0 1 3 -4 -8 -16 -16 -13
0 1 3 -4 -8 -15 -16 -13
1 1 3 -3 -7 -14 -16 -12
1 1 3 -3 -7 -13 -16 -12
1 1 3 -3 -7 -13 -16 -12
3 3 2 -2 -6 -12 -14 -10
4 5 2 0 -5 -11 -11 -8
5 7 2 1 -4 -10 -9 -6
7 8 2 2 -3 -9 -7 -4
8 10 2 2 -2 -8 -5 -2
9 11 3 3 0 -7 -4 0
10 12 3 3 0 -7 -4 0
10 13 3 4 1 -7 -4 0
11 14 3 4 1 -7 -4 0
11 14 3 4 1 -7 -4 0
12 15 2 5 2 -6 -5 0
11 14 1 4 1 -6 -6 -2
10 14 0 4 1 -7 -7 -3
9 13 -2 3 0 -7 -9 -4
8 13 -2 3 0 -7 -10 -5
7 10 -3 2 -2 -9 -12 -7
6 7 -3 0 -4 -10 -13 -8
5 3 -2 -2 -5 -11 -14 -9
4 0 -2 -3 -6 -13 -16 -11
4 -4 -2 -4 -7 -14 -17 -12
3 -5 0 -5 -9 -15 -18 -13
2 -6 0 -7 -10 -17 -18 -13
1 -7 -2 -8 -11 -18 -18 -14
0 -8 -2 -9 -13 -19 -18 -14
-2 -9 -2 -10 -14 -20 -18 -14
-4 -11 -3 -11 -15 -21 -19 -15
-6 -12 -3 -12 -15 -21 -20 -16
-8 -14 -3 -12 -15 -21 -21 -17
-10 -16 -3 -13 -15 -21 -22 -18
-12 -17 -3 -13 -15 -21 -22 -19
-13 -18 -4 -14 -16 -22 -23 -20
-12 -18 -4 -14 -16 -22 -23 -20
-11 -17 -4 -14 -17 -22 -23 -20
-10 -17 -4 -14 -17 -22 -23 -20
-10 -17 -4 -14 -17 -22 -23 -20
-9 -16 -5 -13 -18 -23 -24 -21
-9 -15 -5 -13 -18 -23 -24 -21
-8 -15 -5 -13 -18 -23 -24 -21
-8 -14 -5 -13 -18 -23 -24 -21
-8 -14 -5 -13 -18 -23 -24 -21
-7 -13 -6 -14 -18 -23 -23 -21
-8 -13 -6 -14 -18 -23 -23 -22
-9 -13 -6 -14 -18 -23 -24 -22
-10 -13 -6 -14 -18 -23 -24 -23
-11 -13 -6 -14 -18 -23 -24 -23
-11 -12 -5 -11 -16 -22 -24 -24
-9 -12 -2 -5 -13 -19 -23 -22
-7 -12 2 2 -9 -17 -21 -21
-5 -12 6 7 -5 -14 -19 -20
-3 -12 9 13 0 -11 -18 -19
0 -5 13 23 9 0 -10 -13
3 6 17 35 21 12 1 -5
5 16 21 47 32 23 10 4
8 26 25 58 44 35 20 11
10 35 29 69 55 48 29 19
13 43 32 74 64 60 43 31
15 50 36 77 73 72 57 45
18 56 40 80 81 84 70 58
21 62 44 84 91 96 85 71
24 68 48 87 100 108 99 85
22 79 47 69 96 111 106 94
18 92 43 44 88 111 113 103
13 104 39 19 78 111 119 111
9 116 36 -6 70 111 127 120
4 129 32 -30 61 111 133 130
-7 109 18 -58 37 84 107 108
-18 80 0 -87 9 47 70 77
-30 52 -19 -115 -20 11 33 46
-43 22 -37 -143 -49 -26 -4 15
-55 -7 -55 -172 -77 -62 -40 -17
-58 -23 -63 -175 -90 -77 -56 -30
-57 -35 -68 -169 -96 -86 -65 -39
-57 -48 -73 -162 -103 -95 -73 -49
-56 -60 -78 -156 -109 -103 -82 -58
-56 -72 -83 -150 -116 -112 -92 -67
-49 -72 -80 -136 -110 -106 -88 -67
-39 -68 -72 -118 -98 -94 -79 -62
-30 -64 -65 -101 -87 -82 -71 -58
-21 -60 -58 -83 -75 -71 -63 -53
-13 -56 -50 -66 -63 -59 -55 -49
-10 -51 -43 -56 -55 -52 -50 -44
-9 -45 -36 -48 -48 -46 -45 -39
-8 -38 -29 -39 -40 -39 -39 -34
-7 -32 -23 -31 -33 -33 -34 -30
-6 -26 -16 -23 -26 -27 -29 -26
-6 -23 -14 -20 -24 -25 -27 -24
-8 -22 -12 -19 -23 -24 -27 -24
-9 -21 -11 -18 -22 -24 -26 -24
-11 -19 -10 -16 -21 -23 -26 -24
-13 -18 -9 -15 -21 -23 -26 -24
-12 -17 -7 -13 -19 -22 -25 -24
-8 -15 -6 -11 -18 -20 -24 -23
-4 -14 -4 -10 -16 -19 -23 -23
1 -13 -2 -8 -14 -18 -22 -22
5 -12 0 -6 -13 -17 -21 -22
5 -11 1 -5 -12 -16 -20 -21
4 -11 1 -5 -12 -16 -20 -20
3 -11 2 -5 -12 -16 -19 -20
1 -11 2 -5 -12 -16 -19 -19
0 -11 2 -5 -12 -16 -19 -19
-2 -11 3 -5 -11 -15 -18 -18
-2 -11 2 -5 -11 -15 -18 -18
0 -11 2 -5 -11 -15 -18 -19
0 -11 1 -5 -11 -15 -18 -19
0 -11 1 -5 -11 -15 -18 -19
1 -11 0 -4 -11 -15 -19 -20
2 -11 0 -4 -11 -15 -19 -20
2 -10 0 -4 -11 -14 -18 -20
3 -10 0 -4 -11 -14 -18 -20
3 -10 0 -4 -11 -14 -18 -20
4 -9 0 -5 -12 -13 -17 -19
3 -9 0 -5 -11 -12 -17 -19
2 -8 0 -4 -11 -12 -17 -19
2 -8 0 -4 -10 -11 -17 -19
1 -8 0 -4 -10 -11 -17 -19
0 -7 0 -3 -9 -10 -17 -20
0 -7 1 -3 -9 -10 -16 -20
1 -6 1 -3 -9 -10 -16 -19
1 -6 2 -3 -9 -10 -15 -19
1 -6 2 -3 -9 -10 -15 -19
2 -5 3 -2 -8 -9 -14 -18
2 -6 2 -2 -8 -9 -14 -18
1 -7 2 -2 -8 -10 -15 -18
1 -7 1 -2 -8 -10 -15 -18
1 -8 1 -2 -8 -10 -15 -18
0 -9 0 -3 -9 -11 -16 -17
0 -8 0 -2 -8 -10 -15 -17
0 -7 1 -2 -7 -9 -15 -16
0 -7 1 0 -7 -9 -14 -16
0 -6 1 0 -6 -8 -14 -16
2 -5 2 1 -5 -7 -13 -15
4 -4 2 3 -4 -6 -12 -15
5 -4 2 4 -4 -5 -11 -14
7 -3 2 5 -3 -5 -10 -14
9 -3 2 6 -3 -4 -9 -14
10 -2 3 7 -2 -3 -7 -13
10 1 3 7 0 0 -6 -11
10 2 3 7 1 1 -5 -10
10 3 3 7 2 2 -3 -9
10 4 3 7 3 3 -2 -8
11 5 4 7 4 4 0 -7
11 5 3 8 4 4 0 -8
11 4 3 9 4 4 0 -8
11 4 2 10 4 4 0 -9
11 4 2 11 4 4 0 -9
12 3 1 12 4 5 -2 -10
12 4 1 12 5 7 0 -10
13 4 1 13 6 8 1 -10
13 5 1 13 7 9 1 -10
13 5 1 13 8 10 2 -10
15 6 2 14 9 11 3 -9
16 8 1 16 9 12 4 -7
18 9 1 17 10 13 5 -6
19 11 0 18 10 14 6 -4
21 12 0 19 10 15 7 -3
22 13 -2 20 11 16 9 0
20 11 -2 20 12 18 10 1
19 10 -2 20 12 19 12 3
18 9 -2 20 13 21 13 4
17 8 -2 20 13 22 15 6
17 8 -3 22 14 23 16 7
20 9 -3 23 16 24 18 9
23 11 -3 25 17 25 19 10
25 12 -3 26 18 26 20 12
28 14 -3 28 19 27 21 13
29 15 -3 29 20 28 22 14
30 15 -4 29 20 28 22 14
31 16 -5 28 19 28 22 14
31 16 -6 28 19 28 22 14
32 16 -7 28 19 28 22 14
33 17 -8 27 18 29 23 13
34 18 -9 27 18 30 24 15
35 19 -10 27 18 30 25 16
36 20 -10 27 18 31 26 18
37 21 -11 27 18 31 27 19
38 22 -12 27 19 32 29 20
38 23 -13 27 19 33 30 22
39 23 -13 27 19 34 32 23
39 24 -14 27 19 35 33 25
39 24 -14 27 19 36 35 26
40 25 -15 26 20 37 36 27
40 26 -15 26 20 37 36 27
40 27 -15 26 21 37 36 27
40 28 -15 26 21 37 36 27
40 29 -15 26 21 37 36 27
40 30 -14 26 22 37 36 28
40 31 -15 25 21 37 36 28
42 31 -15 25 20 36 36 28
42 32 -16 24 20 36 36 28
42 32 -16 24 19 36 36 28
43 33 -17 23 18 35 35 29
42 33 -16 23 18 35 35 29
40 32 -15 23 19 35 34 29
40 32 -14 23 19 35 34 29
39 32 -13 23 19 35 34 29
37 31 -12 24 20 34 33 28
34 30 -12 24 19 33 32 27
32 29 -11 23 19 31 31 26
30 29 -11 23 18 30 30 25
27 28 -11 23 18 28 29 24
26 27 -9 22 17 27 27 22
25 27 -8 22 17 26 26 21
24 26 -6 22 17 25 24 19
24 25 -5 22 17 24 22 17
23 25 -3 22 17 23 20 15
22 24 -2 23 17 22 19 14
21 23 0 22 17 21 18 12
19 22 1 21 16 19 17 11
18 21 1 20 15 18 16 9
17 20 2 19 15 17 15 8
16 18 3 18 13 15 13 6
15 17 3 17 12 13 10 3
14 15 3 15 10 10 7 1
13 14 3 14 9 8 4 -3
12 12 3 13 7 5 1 -6
10 10 4 12 6 4 0 -7
7 8 5 11 6 4 -2 -7
4 6 6 10 5 3 -3 -8
1 4 6 10 5 2 -3 -8
-3 2 7 9 5 2 -4 -8
-5 1 8 8 4 1 -5 -9
-5 0 8 8 4 1 -4 -9
-4 -2 9 7 3 0 -2 -9
-3 -2 10 7 3 0 0 -9
-3 -3 10 7 3 0 1 -9
-3 -4 11 6 2 -2 1 -8
-4 -5 10 5 2 -3 0 -8
-6 -6 9 3 2 -4 -3 -9
-8 -7 8 2 2 -5 -4 -10
-10 -8 7 1 2 -6 -6 -10
-11 -9 6 0 2 -7 -7 -11
-11 -9 6 0 2 -7 -7 -11
-12 -9 6 0 1 -7 -7 -11
-13 -9 6 0 1 -7 -7 -11
-13 -9 6 0 1 -7 -7 -11
-14 -8 7 1 0 -7 -8 -12
-12 -7 7 1 0 -7 -8 -12
-11 -5 8 1 0 -7 -8 -13
-9 -4 8 1 0 -7 -8 -13
-8 -2 8 1 0 -7 -8 -13
-7 0 9 1 1 -6 -7 -14
-7 -2 9 1 1 -6 -7 -14
-8 -3 9 2 1 -6 -7 -14
-8 -4 9 2 1 -6 -7 -14
-8 -5 9 2 1 -6 -7 -14
-9 -6 8 3 0 -6 -8 -13
-9 -6 8 3 0 -6 -8 -13
-10 -6 7 3 0 -6 -9 -13
-10 -6 7 3 0 -6 -9 -13
-10 -6 7 3 0 -6 -9 -13
-11 -6 6 3 -2 -7 -10 -14
-11 -6 6 3 -2 -7 -10 -14
-10 -7 6 3 -2 -8 -11 -15
-10 -8 6 3 -2 -8 -11 -16
-10 -8 6 3 -2 -8 -11 -16
-9 -9 6 3 -3 -9 -12 -17
-9 -9 6 2 -3 -9 -12 -17
-9 -8 6 1 -3 -9 -12 -17
-9 -7 6 1 -3 -9 -12 -17
-9 -7 6 0 -3 -9 -12 -17
-9 -6 5 -2 -3 -8 -12 -17
-10 -8 5 -2 -3 -8 -12 -17
-11 -9 5 -2 -4 -9 -13 -17
-12 -11 5 -2 -4 -9 -13 -17
-13 -12 5 -2 -4 -9 -13 -17
-14 -13 5 -2 -5 -10 -14 -18
-13 -12 5 -2 -4 -10 -14 -18
-11 -10 5 0 -3 -9 -13 -18
-10 -9 5 1 -3 -9 -13 -18
-9 -8 5 1 -2 -9 -13 -18
-8 -7 6 2 0 -8 -12 -17
-8 -7 6 2 0 -8 -12 -17
-8 -8 6 2 0 -8 -12 -16
-8 -9 6 2 0 -8 -12 -16
-8 -9 6 2 0 -8 -12 -16
-7 -10 6 2 0 -8 -11 -15
-7 -10 5 1 -2 -9 -11 -16
-7 -10 4 0 -3 -10 -11 -17
-7 -10 3 -2 -3 -10 -11 -17
-7 -10 2 -3 -4 -11 -11 -18
-8 -9 1 -4 -5 -12 -12 -19
-8 -9 1 -4 -5 -12 -13 -19
-9 -10 1 -4 -6 -12 -14 -19
-10 -11 1 -4 -6 -12 -15 -19
-10 -11 1 -4 -6 -12 -16 -19
-11 -12 1 -4 -7 -13 -17 -20
-10 -12 1 -5 -7 -13 -17 -20
-9 -11 0 -6 -8 -14 -17 -20
-9 -11 0 -7 -8 -15 -17 -20
-8 -11 0 -8 -8 -15 -17 -20
-7 -10 -2 -9 -9 -16 -18 -21
-7 -10 -2 -9 -9 -16 -18 -21
-7 -9 -2 -9 -9 -16 -18 -20
-7 -9 -2 -9 -9 -16 -18 -20
-7 -9 -2 -9 -9 -16 -18 -20
-7 -8 -2 -8 -9 -15 -17 -19
-8 -9 -2 -8 -9 -15 -17 -19
-9 -10 -2 -9 -9 -15 -16 -18
-9 -11 -2 -9 -9 -15 -16 -17
-10 -12 -2 -9 -9 -15 -16 -17
-11 -13 -3 -10 -10 -16 -15 -16
-11 -13 -3 -10 -10 -16 -15 -16
-10 -13 -3 -10 -10 -16 -16 -17
-10 -13 -3 -10 -10 -16 -16 -18
-10 -13 -3 -10 -10 -16 -16 -18
-9 -13 -4 -10 -10 -16 -17 -19
-9 -10 -3 -9 -8 -14 -15 -17
-8 -8 -2 -8 -7 -13 -14 -16
-7 -5 0 -7 -5 -11 -12 -14
-7 -3 1 -6 -4 -10 -11 -13
-6 0 2 -5 -3 -9 -10 -12
-4 -2 2 -5 -3 -9 -10 -12
-3 -4 3 -5 -4 -9 -11 -12
0 -5 4 -5 -4 -9 -11 -12
1 -6 4 -5 -4 -9 -11 -12
2 -6 5 -5 -5 -10 -12 -13
3 -4 5 -5 -5 -10 -12 -13
4 0 5 -5 -5 -11 -13 -12
4 2 5 -5 -5 -12 -13 -12
5 4 5 -5 -5 -12 -13 -12
6 6 4 -5 -6 -13 -14 -11
6 6 4 -5 -5 -12 -12 -10
7 6 3 -4 -4 -10 -11 -9
7 6 2 -3 -4 -9 -10 -9
7 6 2 -3 -3 -8 -8 -8
8 6 1 -2 -2 -7 -7 -7
10 7 1 -2 0 -6 -6 -5
12 8 1 0 1 -5 -4 -4
13 9 1 1 1 -4 -3 -3
15 10 1 1 2 -3 -2 0
16 11 2 2 2 -3 -2 0
15 9 2 0 0 -5 -4 -2
13 7 2 -3 -3 -8 -6 -4
12 6 2 -4 -5 -10 -8 -6
11 4 2 -6 -7 -12 -10 -8
8 1 1 -7 -8 -14 -12 -10
3 -5 0 -8 -9 -15 -13 -12
-3 -9 -2 -10 -11 -17 -15 -14
-8 -14 -2 -11 -12 -18 -17 -16
-13 -18 -3 -12 -13 -19 -19 -19
-16 -21 -4 -13 -14 -20 -20 -20
-14 -21 -4 -13 -14 -20 -20 -20
-13 -20 -5 -14 -15 -21 -20 -20
-12 -20 -6 -14 -16 -22 -20 -20
-10 -20 -6 -14 -16 -22 -20 -20
-9 -19 -7 -15 -17 -23 -21 -19
-9 -19 -7 -15 -17 -23 -21 -19
-9 -18 -6 -15 -17 -23 -21 -19
-9 -18 -6 -15 -17 -23 -21 -19
-9 -18 -6 -15 -17 -23 -21 -19
-10 -17 -5 -16 -17 -23 -22 -19
-10 -17 -5 -16 -17 -23 -22 -19
-11 -17 -5 -16 -17 -23 -21 -19
-11 -17 -5 -16 -17 -23 -21 -19
-11 -17 -5 -16 -17 -23 -21 -19
-12 -17 -5 -17 -17 -22 -20 -19
-12 -17 -5 -17 -17 -22 -20 -19
-11 -17 -5 -17 -17 -22 -20 -18
-11 -17 -5 -17 -17 -22 -20 -17
-11 -17 -5 -17 -17 -22 -20 -17
-10 -16 -5 -17 -17 -22 -19 -16
-10 -16 -4 -16 -17 -22 -19 -16
-10 -16 -3 -15 -17 -21 -19 -16
-10 -16 -2 -14 -17 -20 -19 -16
-10 -16 0 -13 -17 -20 -19 -16
-9 -14 3 -8 -12 -16 -17 -14
-8 -11 8 2 -5 -11 -15 -12
-6 -8 13 11 4 -5 -12 -10
-5 -6 17 20 11 2 -9 -8
-4 -3 22 28 19 8 -7 -6
-2 5 25 37 28 17 2 1
3 16 27 47 39 30 15 11
6 27 29 56 50 44 28 22
9 38 31 65 61 57 42 32
13 49 33 74 71 70 54 44
16 60 36 77 78 80 67 56
18 69 42 71 82 89 79 69
20 79 46 66 86 96 91 84
22 89 51 60 89 104 103 97
24 99 55 55 93 111 115 111
21 104 53 37 89 113 121 118
11 102 42 9 74 107 119 118
2 100 30 -20 61 101 118 118
-9 99 19 -48 48 96 117 118
-18 97 8 -76 34 90 115 118
-27 80 -6 -100 12 65 93 101
-35 51 -20 -120 -18 24 51 66
-44 21 -34 -140 -48 -18 9 30
-52 -9 -49 -159 -76 -60 -33 -5
-61 -38 -63 -179 -106 -102 -75 -39
-63 -56 -70 -182 -119 -119 -94 -57
-57 -60 -70 -166 -114 -112 -90 -57
-51 -64 -69 -152 -109 -105 -85 -57
-45 -68 -69 -137 -104 -98 -79 -57
-38 -72 -69 -122 -99 -91 -75 -57
-32 -72 -64 -108 -91 -82 -69 -54
-25 -64 -55 -94 -80 -73 -62 -48
-18 -57 -46 -79 -70 -64 -55 -41
-12 -50 -37 -66 -60 -56 -48 -35
-5 -41 -28 -52 -50 -47 -40 -29
0 -35 -21 -43 -41 -40 -35 -25
-3 -31 -15 -36 -36 -36 -32 -22
-4 -27 -10 -31 -31 -32 -29 -19
-5 -23 -5 -26 -26 -28 -26 -17
-7 -19 2 -20 -21 -24 -23 -14
-8 -17 5 -17 -18 -22 -21 -12
-8 -17 6 -15 -18 -22 -21 -12
-8 -16 7 -14 -18 -22 -21 -12
-8 -15 7 -13 -18 -22 -21 -12
-8 -15 8 -11 -18 -22 -21 -12
-7 -14 9 -10 -17 -21 -20 -11
-8 -15 9 -10 -17 -21 -20 -11
-9 -16 9 -10 -17 -21 -20 -11
-11 -18 10 -9 -16 -21 -20 -11
-12 -19 10 -9 -16 -21 -20 -11
-12 -19 11 -8 -15 -20 -18 -10
-8 -16 13 -6 -13 -18 -16 -8
-5 -13 14 -5 -12 -16 -14 -6
-2 -10 16 -3 -10 -14 -11 -4
3 -7 18 0 -8 -12 -9 -2
5 -5 19 1 -7 -10 -7 1
4 -6 19 1 -7 -10 -7 1
4 -6 19 1 -7 -10 -7 0
3 -7 19 1 -7 -10 -8 -2
2 -8 19 1 -7 -10 -8 -2
1 -9 20 2 -6 -9 -9 -3
1 -8 20 2 -6 -9 -9 -3
1 -8 20 2 -7 -9 -9 -3
1 -7 19 1 -8 -10 -9 -3
1 -6 19 1 -8 -10 -9 -3
2 -6 18 0 -9 -11 -10 -4
0 -8 18 0 -9 -11 -10 -4
-3 -10 18 0 -9 -11 -10 -4
-5 -12 18 0 -9 -11 -10 -3
-7 -14 18 0 -9 -11 -10 -3
-9 -16 19 -2 -8 -11 -10 -2
-7 -14 19 -2 -8 -11 -10 -2
-6 -13 20 -2 -8 -11 -10 -2
-5 -12 21 0 -8 -11 -10 0
-3 -10 21 0 -8 -11 -10 0
-2 -9 22 1 -7 -10 -9 1
-2 -9 23 1 -6 -10 -8 3
-2 -10 23 1 -6 -10 -7 4
-2 -11 24 1 -5 -10 -6 5
-2 -11 25 1 -4 -10 -5 7
0 -12 26 2 -3 -9 -4 8
1 -11 26 2 -3 -8 -4 8
1 -11 26 2 -3 -8 -4 8
2 -10 26 2 -3 -7 -4 8
3 -9 26 2 -3 -6 -4 8
4 -8 25 2 -3 -5 -3 7
3 -8 25 3 -2 -4 -3 7
2 -8 25 3 0 -3 -2 7
1 -8 26 4 1 -2 0 8
0 -8 26 5 2 0 0 8
-2 -6 27 6 3 1 1 9
1 -4 27 6 3 1 2 11
3 -2 27 6 3 2 2 12
5 1 26 6 3 3 3 13
7 3 26 6 3 3 4 15
9 5 25 8 2 4 5 16
9 5 27 10 4 6 6 16
10 5 29 12 6 7 7 16
11 5 31 14 8 8 9 16
11 5 33 16 10 10 10 16
12 6 34 18 12 11 11 16
12 5 32 18 11 11 11 16
12 4 30 17 11 11 11 16
12 2 28 16 10 12 11 16
12 1 26 16 9 12 11 16
11 0 25 15 8 13 12 17
13 2 26 17 10 16 14 19
14 4 27 18 12 18 16 21
16 6 28 20 14 20 18 23
18 8 29 22 16 22 20 25
19 10 30 23 18 24 22 26
19 10 30 23 18 24 22 27
19 10 30 23 18 24 22 27
20 9 30 23 18 24 23 28
20 9 30 23 18 24 23 29
21 8 29 23 17 24 24 30
22 9 29 24 18 25 26 31
22 10 29 25 18 26 27 32
23 12 29 27 19 28 29 34
24 13 29 28 20 29 31 35
25 14 28 29 21 30 32 36
25 15 28 29 21 31 33 38
25 15 27 29 21 32 33 40
25 16 26 30 22 33 34 43
25 17 26 30 22 34 35 44
26 18 25 31 23 35 36 46
27 19 25 31 23 35 38 46
27 20 24 31 23 36 39 47
28 21 23 31 23 37 40 48
29 22 23 31 23 37 43 48
30 23 22 32 22 38 44 49
32 24 22 32 23 39 45 50
33 25 23 32 23 40 46 51
34 26 24 32 24 43 48 53
36 27 24 32 25 44 49 54
37 28 25 31 26 45 50 55
37 29 25 31 26 45 50 55
37 30 25 31 26 45 50 55
37 32 25 31 26 45 49 55
37 33 25 31 26 45 49 55
37 34 25 31 25 44 48 55
35 33 25 31 24 43 48 55
33 32 25 30 24 43 48 55
31 31 24 29 23 42 47 55
30 30 24 29 22 40 47 55
28 29 23 28 21 39 46 54
28 29 24 28 21 38 46 54
28 29 25 28 21 38 45 54
28 30 27 28 21 37 44 53
28 30 28 28 21 36 44 53
27 31 29 27 21 35 43 52
27 31 29 27 21 34 42 51
27 31 29 26 21 32 39 49
26 30 29 25 20 31 38 48
26 30 29 25 20 29 36 46
24 29 30 24 19 28 35 45
21 27 31 24 19 27 32 43
18 26 32 24 19 27 30 40
15 24 33 24 20 26 28 38
11 22 34 24 20 25 26 37
9 21 35 25 21 23 24 35
9 20 34 22 19 20 21 32
8 19 33 20 17 17 19 30
7 18 31 18 15 14 17 28
7 17 30 16 13 11 15 26
6 16 29 14 11 9 13 24
6 15 29 14 11 9 13 24
6 13 30 14 11 9 13 24
6 12 31 14 11 9 13 23
6 10 31 14 11 9 13 23
5 8 32 15 12 9 13 22
3 6 31 13 10 6 10 19
1 3 29 12 8 4 8 17
-2 1 28 10 6 1 5 15
-4 -3 26 8 5 -2 3 13
-6 -5 25 7 3 -4 1 11
-6 -4 25 6 3 -4 0 10
-6 -3 25 5 3 -5 0 10
-6 0 25 4 2 -6 -2 9
-6 1 25 3 2 -6 -3 8
-5 2 24 2 1 -7 -4 7
-5 2 24 2 0 -8 -4 7
-5 1 24 2 0 -8 -4 7
-4 0 24 2 -2 -9 -4 7
-4 0 24 2 -3 -10 -4 7
-3 -2 23 1 -4 -11 -4 7
-4 -3 23 1 -4 -11 -4 7
-4 -4 23 1 -4 -10 -4 7
-5 -6 22 1 -3 -9 -4 7
-6 -7 22 1 -3 -9 -4 7
-7 -8 21 1 -2 -8 -5 7
-7 -8 21 1 -2 -8 -5 7
-7 -8 21 1 -2 -8 -5 7
-7 -8 20 0 -3 -9 -5 7
-7 -8 20 0 -3 -9 -5 7
-6 -7 19 -2 -4 -10 -6 6
-7 -7 19 -2 -4 -10 -6 6
-8 -8 19 -2 -3 -10 -6 6
-10 -9 19 0 -2 -9 -5 6
-11 -9 19 0 -2 -9 -5 6
-12 -10 19 1 0 -8 -4 6
-10 -9 19 1 0 -8 -4 6
-9 -8 19 1 0 -8 -5 5
-7 -7 19 2 -2 -9 -6 4
-6 -6 19 2 -2 -9 -6 4
-4 -5 18 3 -3 -10 -7 3
-4 -5 18 3 -3 -10 -7 3
-4 -5 18 3 -2 -10 -7 3
-5 -5 18 4 0 -9 -6 3
-5 -5 18 4 0 -9 -6 3
-6 -5 19 5 1 -8 -5 4
-7 -7 19 5 1 -8 -5 4
-7 -8 19 5 0 -8 -5 4
-8 -10 19 4 -2 -8 -5 4
-9 -11 19 4 -2 -8 -5 4
-10 -13 18 3 -3 -8 -4 3
-9 -11 18 3 -3 -8 -4 2
-8 -10 18 3 -3 -8 -5 1
-7 -8 17 3 -3 -9 -6 0
-6 -7 17 3 -3 -9 -6 -2
-5 -5 16 2 -2 -10 -7 -3
-5 -6 16 2 -2 -10 -7 -3
-5 -7 16 2 -2 -9 -7 -2
-5 -8 16 2 0 -8 -6 0
-5 -9 16 2 0 -8 -6 0
-5 -10 17 3 1 -7 -5 1
-5 -10 17 3 1 -7 -5 1
-5 -9 17 3 1 -7 -6 1
-5 -8 17 3 0 -7 -7 1
-5 -8 17 3 0 -7 -7 1
-4 -7 16 3 -2 -7 -8 0
-5 -7 15 3 -2 -8 -8 -2
-5 -8 15 3 -3 -9 -9 -2
-6 -9 14 2 -4 -11 -10 -3
-7 -9 13 2 -4 -12 -10 -4
-8 -10 12 1 -5 -13 -11 -5
-8 -10 12 1 -5 -13 -11 -5
-8 -10 12 1 -5 -13 -10 -4
-7 -10 12 0 -5 -12 -9 -3
-7 -10 12 0 -5 -12 -9 -3
-6 -11 13 -2 -4 -11 -8 -2
-6 -11 13 -2 -4 -11 -8 -2
-6 -10 13 -2 -4 -11 -8 -2
-6 -9 13 -2 -4 -11 -8 -2
-6 -9 13 -2 -4 -11 -8 -2
-7 -8 12 -3 -4 -11 -9 -2
-6 -8 12 -3 -4 -11 -9 -2
-5 -8 12 -3 -4 -11 -9 -2
-4 -8 12 -3 -4 -11 -10 -2
-3 -8 12 -3 -4 -11 -10 -2
-2 -7 13 -2 -4 -12 -11 -3
-2 -6 14 -2 -4 -11 -10 -3
-2 -4 14 0 -3 -11 -9 -3
-2 -3 15 0 -3 -10 -8 -2
-2 0 16 1 -2 -9 -7 -2
0 1 17 2 0 -8 -6 0
0 1 17 2 0 -8 -6 0
1 1 17 2 -2 -8 -7 -2
1 1 17 2 -2 -9 -7 -2
2 1 17 2 -3 -9 -8 -3
3 1 16 1 -4 -10 -9 -4
3 3 16 1 -3 -9 -8 -4
4 4 16 2 -2 -9 -8 -3
4 6 17 2 0 -8 -7 -3
5 7 17 3 2 -7 -6 -2
6 9 18 4 3 -6 -5 0
8 9 18 4 4 -5 -4 1
9 9 18 5 5 -4 -3 2
11 10 18 5 6 -3 -2 3
12 10 18 6 8 0 1 4
14 11 17 7 9 1 2 5
14 11 16 7 9 1 2 5
14 11 16 6 8 1 2 5
13 11 15 6 8 0 2 5
13 11 14 5 7 0 2 5
12 11 13 4 6 -2 0 4
10 7 12 2 3 -5 -4 1
7 3 11 -2 0 -8 -7 -3
5 -2 10 -4 -4 -11 -10 -6
3 -6 8 -6 -7 -14 -13 -9
1 -9 7 -8 -10 -17 -16 -11
-2 -10 7 -8 -10 -17 -16 -11
-4 -12 7 -9 -11 -17 -16 -12
-6 -13 6 -9 -11 -18 -16 -12
-8 -15 6 -10 -12 -18 -16 -13
-10 -16 5 -11 -13 -19 -17 -14
-10 -16 4 -11 -13 -19 -17 -14
-10 -16 4 -11 -13 -19 -17 -14
-11 -16 3 -11 -13 -19 -18 -15
-11 -16 2 -11 -13 -19 -18 -15
-12 -16 1 -11 -12 -19 -19 -16
-12 -16 -2 -11 -12 -19 -19 -16
-12 -16 -3 -11 -12 -19 -19 -16
-12 -16 -5 -12 -13 -19 -19 -16
-12 -16 -6 -12 -13 -19 -19 -16
-12 -16 -8 -13 -14 -20 -19 -17
-11 -16 -8 -13 -14 -20 -19 -17
-10 -15 -8 -13 -14 -20 -19 -17
-9 -15 -8 -12 -14 -20 -19 -17
-8 -14 -8 -12 -14 -20 -19 -17
-7 -13 -8 -11 -13 -20 -19 -16
-7 -13 -8 -11 -13 -20 -19 -16
-6 -12 -8 -11 -13 -20 -19 -16
-6 -12 -8 -12 -13 -20 -19 -17
-5 -11 -8 -12 -13 -20 -19 -17
-4 -10 -9 -13 -14 -21 -20 -18
-5 -11 -9 -12 -14 -21 -20 -19
-6 -13 -8 -11 -14 -21 -20 -19
-7 -14 -8 -10 -13 -21 -20 -20
-9 -16 -7 -8 -13 -21 -20 -21
-10 -16 -5 -4 -10 -18 -20 -21
-8 -9 2 7 1 -9 -14 -18
-7 -2 8 18 11 0 -8 -14
-5 5 14 28 21 9 -2 -11
-4 12 20 39 30 17 4 -7
0 19 25 49 40 27 12 0
4 27 29 56 51 40 25 11
9 36 32 62 61 53 38 23
14 45 35 68 71 66 51 34
18 53 38 75 80 78 64 46
21 62 42 76 89 89 76 57
16 72 46 59 86 92 85 68
11 81 49 43 84 94 94 79
6 92 53 25 81 97 102 90
1 102 56 9 78 100 110 101
-6 108 56 -13 70 99 115 107
-15 100 43 -46 48 84 104 99
-24 93 28 -78 25 69 93 91
-33 86 15 -111 2 55 82 82
-43 78 2 -143 -21 40 71 74
-50 65 -11 -169 -44 21 55 60
-53 37 -21 -175 -64 -12 21 30
-56 11 -32 -181 -85 -45 -13 0
-59 -17 -43 -186 -105 -77 -47 -30
-62 -45 -53 -192 -126 -110 -80 -61
-63 -65 -60 -192 -139 -133 -105 -83
-55 -66 -55 -173 -128 -122 -98 -81
-46 -68 -49 -153 -117 -113 -91 -79
-36 -69 -44 -134 -107 -103 -83 -77
-28 -70 -37 -114 -96 -94 -77 -75
-21 -71 -32 -97 -86 -83 -70 -72
-18 -63 -24 -86 -75 -74 -63 -66
-15 -56 -16 -73 -65 -65 -57 -60
-12 -49 -9 -62 -55 -56 -50 -54
-9 -41 0 -50 -45 -47 -43 -48
-6 -35 6 -40 -36 -39 -37 -43
-8 -32 10 -36 -32 -37 -36 -41
-9 -30 14 -32 -29 -35 -34 -40
-11 -28 17 -28 -26 -32 -33 -39
-12 -25 21 -24 -23 -30 -32 -38
-14 -23 24 -21 -20 -28 -30 -37
-12 -20 26 -18 -18 -27 -28 -36
-10 -18 28 -16 -17 -25 -27 -34
-8 -16 29 -13 -15 -24 -25 -33
-6 -13 31 -10 -14 -23 -24 -32
-4 -11 33 -8 -12 -21 -22 -30
-4 -12 33 -8 -12 -21 -22 -30
-5 -14 33 -8 -12 -21 -22 -30
-5 -15 33 -9 -12 -21 -22 -31
-6 -16 33 -9 -12 -21 -22 -31
-7 -18 34 -10 -13 -22 -23 -32
-7 -18 34 -10 -13 -22 -23 -32
-7 -18 34 -10 -13 -22 -23 -33
-8 -18 34 -10 -14 -22 -24 -33
-8 -18 34 -10 -14 -22 -24 -34
-9 -18 33 -11 -15 -23 -25 -35
-8 -17 33 -11 -15 -23 -25 -35
-7 -16 34 -11 -15 -23 -25 -35
-6 -15 34 -10 -14 -23 -24 -35
-5 -14 35 -10 -14 -23 -24 -35
-4 -13 36 -9 -13 -22 -23 -36
-4 -13 36 -9 -13 -22 -23 -36
-3 -12 36 -8 -13 -22 -23 -36
-2 -12 36 -8 -13 -22 -23 -36
0 -11 36 -7 -13 -22 -23 -36
1 -10 36 -6 -13 -21 -23 -35
0 -10 36 -6 -13 -21 -23 -35
-3 -10 36 -6 -12 -21 -23 -35
-5 -10 36 -6 -12 -21 -23 -34
-6 -10 36 -6 -11 -21 -23 -34
-8 -11 37 -7 -10 -20 -22 -33
-7 -11 37 -7 -10 -20 -22 -33
-6 -11 37 -7 -10 -20 -22 -33
-5 -11 37 -6 -10 -20 -21 -33
-3 -11 37 -6 -10 -20 -21 -33
-2 -10 36 -5 -10 -19 -20 -32
-2 -10 36 -5 -10 -19 -20 -32
-2 -10 36 -5 -9 -18 -20 -32
0 -11 36 -5 -9 -17 -19 -32
0 -11 36 -5 -8 -16 -19 -32
1 -12 37 -4 -7 -15 -18 -32
1 -12 37 -3 -7 -15 -18 -32
1 -11 37 0 -6 -14 -18 -32
2 -10 37 1 -5 -13 -17 -32
2 -9 37 2 -4 -12 -17 -32
3 -8 37 4 -3 -11 -16 -31
3 -8 37 4 -3 -11 -16 -31
3 -7 37 4 -3 -11 -16 -31
3 -7 37 4 -2 -10 -16 -31
3 -6 37 4 -2 -10 -16 -31
3 -5 37 4 0 -9 -15 -31
4 -5 37 5 0 -8 -14 -31
5 -4 37 6 0 -7 -13 -31
6 -3 36 7 1 -6 -12 -31
7 -2 36 9 1 -4 -10 -31
8 0 35 10 2 -3 -9 -30
8 0 35 10 2 -2 -9 -30
7 -2 35 10 3 0 -8 -29
7 -3 34 10 4 1 -7 -29
6 -4 34 10 5 2 -6 -28
5 -5 33 10 6 3 -5 -27
7 -4 33 11 6 3 -4 -27
9 -3 33 13 7 4 -3 -26
11 -2 32 15 7 4 -2 -26
13 1 32 16 8 5 1 -25
15 2 31 18 9 6 2 -24
15 4 31 18 10 8 3 -22
16 6 31 19 11 10 5 -20
16 8 31 20 12 12 7 -18
17 10 31 21 14 14 8 -16
18 12 30 22 15 16 10 -14
18 11 29 23 15 16 10 -14
17 10 28 24 15 17 11 -13
16 9 27 25 15 17 11 -12
15 8 25 26 15 18 12 -11
14 7 24 27 16 19 13 -10
15 7 24 27 16 20 15 -10
16 8 24 27 17 21 16 -9
17 9 24 28 18 22 18 -8
19 10 24 28 19 24 20 -7
20 11 23 29 20 25 22 -6
21 13 23 29 20 26 22 -5
23 15 22 30 21 28 23 -3
25 17 22 31 22 29 24 0
26 19 21 32 23 30 25 1
28 21 20 33 24 32 26 3
28 21 19 33 24 33 27 3
28 21 18 33 24 34 29 4
29 21 17 32 24 35 31 4
29 21 16 32 24 37 32 5
30 21 15 31 23 38 34 6
31 24 15 31 23 38 34 6
33 26 15 32 23 38 34 7
35 29 15 32 23 38 35 8
36 31 15 33 23 38 35 9
38 34 14 34 23 37 36 10
36 31 13 33 23 37 36 10
34 28 12 31 23 37 36 10
32 26 11 30 22 37 35 10
29 23 9 29 22 37 35 10
27 20 8 27 21 36 34 9
27 20 8 27 21 36 34 10
27 21 8 27 21 36 34 11
27 22 8 27 20 35 34 12
27 23 8 27 20 35 34 13
27 24 9 26 19 34 35 14
26 24 10 26 19 33 34 13
25 25 11 26 19 32 33 12
24 26 12 26 19 31 32 11
23 27 14 26 19 29 30 10
22 28 15 26 19 28 29 9
22 28 16 26 19 26 27 7
22 28 17 25 18 24 24 5
21 27 18 25 18 22 22 3
21 27 19 24 17 20 20 0
20 26 20 23 16 18 17 -3
17 24 20 22 16 17 16 -4
14 23 21 21 16 15 14 -5
12 21 22 20 15 14 13 -6
9 19 23 19 15 13 12 -7
6 17 24 18 14 11 10 -8
6 16 24 18 14 9 8 -9
5 14 24 17 13 8 6 -11
4 13 24 17 12 6 4 -12
3 12 24 16 11 4 1 -13
2 10 25 15 10 2 -2 -15
1 8 25 13 8 0 -3 -17
0 7 25 10 6 -3 -5 -19
-2 5 25 8 4 -5 -6 -21
-3 3 25 6 2 -7 -7 -23
-5 1 25 3 0 -9 -9 -25
-5 0 25 3 0 -9 -9 -25
-6 -3 25 3 0 -9 -10 -26
-7 -4 25 2 -2 -10 -11 -26
-8 -5 25 2 -2 -10 -12 -27
-9 -7 25 1 -3 -11 -13 -28
-9 -7 25 0 -3 -11 -13 -28
-8 -7 25 -2 -4 -12 -13 -29
-8 -7 24 -3 -4 -12 -14 -29
-7 -7 24 -4 -5 -13 -14 -30
-6 -8 23 -5 -6 -14 -15 -31
-6 -8 23 -5 -6 -14 -15 -31
-6 -8 23 -5 -6 -14 -15 -31
-6 -8 23 -5 -6 -14 -15 -31
-6 -8 23 -5 -6 -14 -15 -31
-7 -9 22 -4 -5 -14 -16 -30
-8 -10 22 -5 -5 -14 -16 -30
-9 -11 21 -6 -6 -15 -16 -30
-11 -12 21 -7 -7 -15 -16 -30
-12 -13 20 -8 -8 -16 -16 -30
-14 -14 19 -9 -9 -17 -17 -30
-14 -13 19 -9 -9 -17 -17 -30
-13 -12 19 -8 -9 -17 -17 -30
-12 -11 19 -8 -9 -17 -17 -30
-11 -10 19 -7 -9 -17 -17 -30
-10 -9 19 -6 -8 -17 -18 -29
-10 -9 19 -6 -8 -17 -18 -29
-10 -9 19 -6 -7 -17 -18 -29
-10 -9 19 -5 -7 -16 -18 -29
-10 -9 19 -5 -6 -16 -18 -29
-11 -9 20 -4 -5 -15 -18 -28
-11 -9 20 -4 -5 -15 -18 -28
-10 -9 20 -4 -5 -15 -17 -27
-10 -9 19 -4 -5 -14 -17 -27
-9 -9 19 -4 -5 -14 -16 -26
-8 -9 18 -3 -4 -13 -15 -25
-8 -9 18 -3 -4 -13 -15 -25
-8 -9 19 -3 -4 -12 -14 -24
-9 -9 19 -2 -3 -11 -14 -24
-9 -9 20 -2 -3 -10 -13 -23
-10 -10 21 0 -2 -9 -12 -22
-10 -10 21 0 -2 -9 -12 -22
-10 -10 20 0 -2 -9 -12 -22
-10 -11 20 0 -2 -9 -12 -22
-10 -11 19 0 -2 -9 -12 -22
-9 -12 18 0 -2 -10 -12 -21
-9 -12 18 0 -2 -10 -12 -21
-10 -12 18 -2 -2 -10 -13 -22
-10 -12 18 -3 -3 -11 -14 -22
-11 -12 18 -4 -3 -11 -15 -23
-12 -11 17 -5 -4 -12 -16 -24
-12 -11 17 -5 -4 -12 -16 -24
-11 -11 16 -5 -4 -12 -16 -24
-11 -12 16 -5 -4 -12 -16 -24
-10 -12 15 -5 -4 -12 -16 -24
-9 -13 14 -5 -5 -13 -17 -24
-9 -13 14 -5 -5 -13 -17 -24
-10 -13 14 -5 -5 -13 -17 -23
-10 -13 14 -4 -5 -13 -16 -23
-11 -13 14 -4 -5 -13 -16 -22
-12 -14 13 -3 -5 -12 -15 -21
-12 -14 13 -3 -5 -12 -15 -21
-12 -14 13 -3 -5 -12 -15 -21
-11 -14 12 -4 -6 -12 -15 -21
-11 -14 12 -4 -6 -12 -15 -21
-10 -15 11 -5 -7 -13 -15 -21
-8 -13 11 -5 -7 -13 -15 -20
-6 -11 11 -5 -6 -12 -14 -19
-4 -9 12 -4 -6 -12 -14 -18
-2 -7 12 -4 -5 -11 -13 -17
1 -5 13 -3 -4 -10 -12 -15
0 -5 13 -3 -4 -10 -12 -15
-2 -5 12 -3 -4 -10 -12 -15
-3 -5 12 -3 -4 -10 -12 -15
-4 -5 11 -3 -4 -10 -12 -15
-6 -5 10 -3 -4 -10 -12 -15
-6 -5 10 -3 -4 -10 -12 -15
-5 -5 10 -3 -4 -10 -12 -15
-5 -5 11 -3 -3 -9 -12 -15
-4 -5 11 -3 -3 -9 -12 -15
-3 -4 12 -3 -2 -8 -11 -14
-2 -4 12 -3 -2 -8 -11 -14
0 -3 12 -3 -2 -8 -11 -13
1 -2 12 -3 -2 -8 -11 -13
2 0 12 -3 -2 -8 -11 -12
3 1 11 -2 -2 -9 -12 -11
3 2 11 -2 0 -8 -11 -10
3 3 11 0 1 -7 -9 -9
3 5 11 1 2 -6 -8 -7
3 6 11 2 3 -5 -6 -6
2 8 11 3 4 -3 -4 -4
2 8 10 3 4 -3 -4 -4
3 8 9 3 4 -3 -4 -4
4 8 8 3 4 -3 -3 -3
5 8 7 3 4 -3 -3 -3
6 9 6 2 4 -2 -2 -2
6 9 6 2 4 -2 -2 -2
6 9 6 2 4 -2 -2 -2
7 10 6 2 3 -2 -2 0
7 10 6 2 3 -2 -2 0
8 11 5 1 2 -3 -3 1
5 5 4 -2 0 -5 -5 -2
1 -3 3 -4 -3 -8 -8 -5
-3 -9 2 -6 -6 -10 -10 -7
-6 -16 1 -8 -8 -13 -13 -10
-10 -22 -2 -11 -11 -16 -16 -13
-10 -20 -2 -11 -11 -16 -16 -13
-10 -18 0 -11 -11 -16 -16 -13
-11 -16 0 -11 -11 -16 -16 -13
-11 -14 1 -11 -11 -16 -16 -13
-12 -12 2 -10 -10 -16 -16 -13
-11 -12 1 -11 -11 -16 -16 -13
-10 -13 0 -12 -12 -16 -16 -13
-9 -14 -2 -13 -13 -16 -16 -13
-8 -15 -3 -14 -14 -16 -16 -13
-6 -16 -5 -15 -15 -16 -16 -13
-7 -17 -5 -15 -15 -16 -16 -13
-8 -19 -5 -15 -15 -16 -17 -13
-10 -20 -5 -15 -15 -17 -17 -13
-11 -22 -5 -15 -15 -17 -18 -13
-13 -24 -5 -15 -14 -18 -19 -14
-13 -23 -5 -15 -14 -18 -19 -14
-13 -22 -5 -15 -14 -18 -19 -14
-13 -21 -6 -15 -14 -18 -19 -14
-13 -20 -6 -15 -14 -18 -19 -14
-13 -18 -7 -15 -15 -18 -20 -14
-12 -17 -7 -15 -15 -18 -19 -14
-11 -16 -6 -15 -14 -17 -18 -14
-10 -15 -6 -14 -13 -17 -17 -13
-9 -14 -5 -14 -12 -16 -16 -13
-7 -13 -4 -13 -11 -15 -15 -12
-8 -13 -4 -10 -10 -15 -15 -12
-9 -14 -5 -7 -9 -15 -16 -12
-10 -15 -5 -4 -7 -16 -17 -13
-11 -16 -6 0 -6 -16 -18 -13
-13 -17 -7 3 -4 -17 -19 -14
-10 -8 2 14 9 -5 -10 -8
-7 2 9 25 20 8 0 0
-3 11 17 37 32 21 9 6
1 21 25 49 44 33 18 12
5 30 33 60 56 46 27 19
7 38 34 64 65 58 42 32
9 47 35 69 74 71 56 46
11 55 37 74 84 84 69 59
13 64 38 79 94 97 84 72
15 72 40 85 103 109 98 86
12 82 40 61 100 111 106 97
8 94 39 38 97 113 115 108
4 104 39 16 93 115 123 119
0 114 38 -8 90 117 132 131
-5 126 37 -30 86 120 141 142
-14 105 18 -61 56 99 113 119
-24 85 0 -91 27 77 87 97
-34 64 -20 -121 -2 57 59 74
-44 44 -38 -151 -30 35 31 53
-54 23 -58 -181 -59 14 5 30
-55 4 -64 -181 -72 -13 -15 13
-56 -16 -70 -182 -85 -38 -33 -5
-57 -35 -77 -182 -98 -64 -53 -23
-58 -55 -83 -183 -111 -91 -71 -40
-59 -74 -91 -184 -124 -116 -91 -58
-51 -72 -83 -162 -113 -105 -83 -55
-41 -70 -76 -141 -102 -95 -75 -51
-33 -68 -69 -119 -91 -83 -67 -48
-24 -66 -62 -98 -78 -72 -59 -44
-15 -63 -55 -76 -67 -61 -51 -39
-14 -57 -49 -67 -59 -54 -46 -35
-13 -50 -41 -58 -51 -47 -40 -30
-12 -44 -34 -48 -41 -39 -35 -26
-11 -36 -27 -38 -33 -32 -30 -21
-10 -29 -20 -28 -24 -25 -24 -16
-10 -27 -18 -25 -22 -23 -23 -15
-10 -25 -16 -22 -20 -21 -21 -14
-11 -23 -13 -19 -18 -19 -19 -12
-11 -21 -11 -16 -16 -17 -17 -11
-12 -19 -8 -12 -14 -15 -15 -9
-12 -19 -8 -12 -14 -15 -15 -9
-12 -19 -8 -12 -13 -15 -15 -9
-12 -20 -8 -11 -13 -14 -15 -9
-12 -20 -8 -11 -12 -14 -15 -9
-11 -21 -7 -10 -11 -13 -16 -9
-11 -21 -7 -10 -11 -13 -16 -9
-11 -20 -6 -9 -11 -13 -15 -9
-11 -19 -5 -8 -11 -13 -15 -9
-11 -18 -4 -7 -11 -13 -14 -9
-10 -17 -3 -6 -10 -12 -13 -8
-10 -17 -3 -6 -10 -12 -13 -8
-10 -17 -3 -6 -10 -11 -13 -8
-11 -17 -3 -5 -10 -11 -13 -8
-11 -17 -3 -5 -10 -10 -13 -8
-11 -17 -3 -5 -10 -10 -13 -8
-11 -16 -3 -4 -9 -9 -13 -9
-10 -15 -3 -3 -9 -9 -12 -8
-8 -14 -2 -3 -8 -8 -11 -7
-7 -13 -2 -2 -8 -8 -10 -6
-6 -13 -2 -2 -8 -8 -10 -6
-5 -12 0 0 -7 -7 -9 -5
-5 -12 0 0 -7 -8 -10 -5
-5 -12 0 1 -7 -8 -10 -5
-5 -12 0 1 -7 -9 -11 -5
-5 -12 0 1 -7 -9 -11 -5
-6 -12 0 2 -6 -10 -11 -6
-6 -11 0 3 -6 -9 -10 -5
-5 -10 0 3 -5 -8 -9 -5
-5 -9 0 4 -5 -7 -8 -4
-5 -8 0 4 -5 -6 -7 -4
-4 -7 0 5 -4 -5 -6 -3
-4 -8 0 5 -4 -5 -6 -3
-4 -9 0 5 -4 -5 -6 -2
-4 -10 0 5 -4 -5 -6 -2
-4 -10 0 5 -4 -5 -6 -2
-4 -11 -2 6 -3 -5 -6 0
-4 -11 -2 6 -3 -5 -6 0
-4 -12 -2 6 -3 -4 -6 0
-4 -12 -2 6 -3 -4 -6 0
-4 -12 -2 6 -3 -4 -6 0
-4 -13 0 6 -2 -3 -6 -2
-4 -13 0 7 0 -2 -5 0
-4 -13 0 8 0 0 -5 0
-4 -13 0 9 1 1 -4 1
-4 -13 0 9 1 1 -4 1
-4 -11 0 10 2 2 -3 2
-3 -9 0 11 2 3 -2 3
-2 -8 0 11 3 4 0 3
0 -6 0 12 3 5 1 4
0 -5 0 12 3 5 2 4
2 -4 -2 13 4 6 3 5
3 -3 0 14 5 7 4 5
5 -2 0 15 6 8 5 5
6 0 1 16 7 9 6 5
7 0 1 17 8 9 6 5
8 1 2 18 9 10 7 6
7 0 1 18 9 11 7 6
6 0 0 18 9 12 7 6
5 -2 -2 18 9 13 7 6
4 -2 -3 18 9 13 7 6
4 -3 -4 20 11 15 8 7
6 -2 -3 22 12 17 10 9
7 0 -3 23 13 19 12 10
9 1 -2 25 14 21 14 12
10 1 -2 26 15 22 16 13
11 2 0 27 16 23 17 15
12 3 0 27 16 24 18 16
12 4 0 27 16 24 19 18
13 5 0 27 16 25 20 19
13 6 0 27 16 25 21 20
14 7 -2 28 17 27 23 22
15 7 -3 29 18 28 24 23
16 7 -3 31 19 30 26 24
17 7 -4 32 20 31 27 25
18 7 -4 33 21 32 28 26
19 8 -5 34 22 33 29 27
20 9 -6 34 22 34 30 28
21 10 -7 34 22 34 31 29
22 11 -8 34 22 35 32 30
22 12 -9 34 22 35 32 30
23 13 -10 33 23 36 33 31
23 14 -10 33 23 37 34 32
23 15 -11 34 23 37 34 33
23 16 -11 34 23 38 35 34
23 17 -11 34 23 38 35 34
25 19 -12 35 23 39 37 36
27 21 -12 35 23 40 38 37
29 22 -12 35 23 42 39 38
31 24 -12 35 23 43 40 39
32 25 -12 35 23 43 42 40
33 26 -13 35 24 44 43 42
32 25 -14 35 24 44 43 42
31 25 -15 34 23 44 43 42
30 24 -16 34 23 44 43 42
29 24 -16 34 23 44 43 42
28 23 -17 33 22 44 44 40
28 24 -17 33 22 44 44 42
28 25 -17 32 22 44 44 43
28 26 -17 32 22 44 44 44
28 26 -17 32 22 44 44 44
27 27 -17 31 21 43 44 45
28 28 -17 31 21 43 44 45
29 29 -16 31 21 42 44 44
30 30 -16 31 21 42 44 44
30 30 -16 31 21 42 44 44
29 31 -15 30 22 40 43 43
27 31 -14 30 22 39 43 43
25 31 -13 30 22 39 42 43
23 31 -12 30 22 38 42 43
21 31 -11 30 22 38 42 43
19 29 -10 28 21 35 37 38
18 27 -9 27 19 32 34 35
16 25 -9 26 18 29 30 32
15 23 -8 25 16 26 26 28
14 21 -8 24 15 23 23 25
12 19 -6 23 14 21 21 23
10 18 -5 22 14 19 19 22
9 17 -3 21 14 17 17 21
7 16 -2 20 14 15 15 20
6 15 0 20 14 14 14 19
4 14 2 19 13 13 13 17
3 13 3 19 13 13 12 16
2 12 5 18 12 12 12 14
1 11 6 18 12 12 11 13
0 10 7 18 12 12 11 12
-2 8 8 15 10 9 8 10
-3 6 8 13 8 7 6 8
-4 4 7 11 6 4 4 7
-5 2 7 9 4 1 1 5
-6 1 7 7 3 -2 -2 4
-7 -2 6 6 2 -3 -3 3
-8 -3 6 5 2 -3 -3 2
-8 -5 6 5 1 -4 -4 2
-9 -6 6 4 1 -4 -4 1
-9 -7 6 4 1 -4 -4 1
-10 -8 6 3 0 -5 -5 0
-10 -9 6 2 -2 -6 -6 -2
-11 -9 5 1 -3 -7 -6 -3
-11 -10 5 0 -4 -8 -7 -4
-11 -10 5 0 -4 -8 -7 -4
-12 -11 4 -2 -5 -9 -8 -5
-12 -11 4 -2 -5 -9 -8 -5
-11 -10 4 -3 -5 -10 -9 -5
-11 -10 4 -3 -5 -10 -9 -5
-11 -10 4 -3 -5 -10 -9 -5
-10 -9 4 -4 -6 -11 -10 -5
-11 -9 4 -4 -6 -11 -10 -6
-12 -8 4 -4 -6 -11 -11 -6
-13 -8 4 -4 -6 -11 -11 -7
-13 -8 4 -4 -6 -11 -11 -7
-13 -7 4 -3 -7 -12 -12 -8
-11 -7 5 -2 -6 -11 -11 -8
-9 -7 5 0 -5 -10 -11 -7
-7 -7 6 1 -4 -9 -10 -7
-5 -7 6 1 -4 -8 -10 -7
-5 -7 7 2 -3 -7 -9 -6
-7 -7 7 2 -4 -7 -9 -6
-9 -7 6 1 -4 -8 -10 -6
-10 -7 6 1 -5 -8 -10 -6
-12 -7 6 1 -5 -8 -10 -6
-13 -7 5 0 -6 -9 -11 -7
-13 -8 5 0 -6 -9 -11 -7
-13 -8 5 1 -5 -9 -10 -7
-13 -9 5 1 -5 -9 -10 -7
-13 -9 5 1 -5 -9 -10 -7
-13 -10 5 2 -4 -9 -9 -7
-12 -11 5 2 -4 -9 -9 -7
-12 -11 5 2 -4 -9 -9 -7
-11 -12 5 2 -4 -9 -9 -7
-11 -12 5 2 -4 -9 -9 -7
-10 -13 4 1 -4 -9 -10 -8
-10 -12 4 1 -4 -9 -10 -8
-10 -11 4 2 -3 -9 -10 -9
-10 -10 4 2 -3 -9 -10 -9
-10 -10 4 2 -3 -9 -10 -9
-10 -9 5 3 -2 -9 -10 -10
-10 -9 5 3 -3 -9 -10 -10
-10 -8 5 2 -3 -10 -11 -10
-10 -8 5 2 -4 -10 -11 -10
-10 -8 5 2 -4 -10 -11 -10
-9 -8 4 1 -5 -11 -12 -10
-10 -10 4 1 -5 -12 -13 -10
-10 -12 4 0 -5 -12 -14 -10
-11 -14 4 0 -5 -13 -15 -10
-11 -16 4 0 -5 -13 -15 -10
-12 -17 3 -2 -6 -14 -16 -10
-11 -16 3 -2 -6 -14 -16 -11
-10 -15 3 -3 -7 -14 -16 -12
-9 -14 3 -3 -7 -14 -16 -13
-8 -14 3 -3 -7 -14 -16 -13
-7 -13 2 -4 -8 -14 -15 -14
-7 -13 2 -4 -8 -14 -15 -13
-6 -12 3 -3 -7 -13 -14 -12
-6 -12 3 -3 -7 -13 -14 -11
-6 -12 3 -3 -7 -13 -14 -11
-5 -10 4 -2 -6 -12 -13 -10
-5 -9 3 -3 -6 -12 -13 -10
-5 -8 3 -3 -7 -12 -13 -11
-5 -7 2 -4 -7 -12 -13 -11
-5 -6 2 -4 -7 -12 -13 -11
-6 -5 1 -5 -8 -13 -14 -12
-6 -5 2 -4 -7 -12 -13 -11
-6 -5 2 -4 -6 -12 -12 -11
-6 -5 3 -3 -5 -11 -11 -10
-6 -5 3 -3 -5 -11 -11 -10
-6 -4 4 -2 -4 -10 -10 -9
-6 -4 4 -2 -4 -10 -10 -9
-5 -4 4 -2 -5 -10 -10 -9
-5 -4 4 -2 -5 -10 -10 -9
-5 -4 4 -2 -5 -10 -10 -9
-3 -5 5 0 -6 -10 -9 -8
-2 -4 5 1 -5 -10 -9 -8
0 -3 6 2 -4 -10 -9 -8
1 -2 6 3 -3 -10 -9 -8
2 -2 6 4 -2 -10 -9 -8
3 0 7 5 0 -9 -9 -7
3 1 6 5 0 -8 -8 -6
4 1 5 5 0 -7 -7 -5
4 2 4 5 0 -6 -6 -4
4 2 4 5 0 -6 -6 -3
6 4 3 4 1 -5 -5 -2
7 5 3 4 2 -5 -4 0
9 6 3 4 2 -4 -3 0
11 8 3 4 3 -4 -2 1
12 9 3 4 3 -4 -2 1
11 7 2 3 2 -5 -3 0
7 3 1 0 -2 -8 -6 -3
3 -2 0 -4 -6 -10 -8 -6
0 -6 -3 -7 -9 -13 -11 -8
-5 -10 -4 -10 -12 -16 -14 -11
-6 -12 -5 -11 -13 -17 -15 -12
-7 -13 -5 -11 -14 -18 -16 -13
-8 -15 -6 -12 -15 -19 -17 -14
-9 -17 -6 -12 -16 -20 -18 -15
-10 -18 -6 -12 -17 -21 -19 -16
-11 -19 -7 -13 -18 -22 -20 -17
-10 -18 -6 -13 -17 -22 -20 -17
-9 -17 -5 -13 -17 -22 -20 -17
-8 -16 -4 -13 -16 -22 -20 -17
-8 -16 -4 -13 -16 -22 -20 -17
-7 -15 -3 -12 -15 -22 -20 -17
-7 -16 -3 -12 -15 -22 -20 -18
-8 -16 -3 -13 -15 -22 -21 -18
-8 -17 -3 -13 -15 -22 -21 -19
-8 -17 -3 -13 -15 -22 -21 -19
-9 -18 -4 -14 -16 -23 -22 -20
-10 -18 -4 -14 -16 -23 -22 -19
-10 -19 -5 -14 -16 -23 -21 -19
-11 -19 -5 -14 -16 -23 -21 -18
-11 -19 -5 -14 -16 -23 -21 -18
-12 -20 -6 -15 -17 -22 -20 -17
-13 -20 -6 -15 -17 -22 -21 -18
-14 -21 -7 -15 -18 -23 -21 -19
-15 -21 -7 -15 -18 -23 -22 -20
-15 -21 -7 -15 -18 -23 -22 -20
-16 -22 -8 -16 -19 -24 -23 -21
-16 -21 -7 -15 -18 -23 -22 -21
-16 -21 -7 -14 -17 -23 -21 -20
-16 -20 -6 -13 -16 -22 -20 -20
-16 -20 -6 -13 -15 -22 -20 -20
-14 -16 0 -4 -8 -16 -16 -17
-12 -11 5 7 1 -9 -12 -15
-10 -7 11 17 8 0 -8 -12
-9 -2 16 26 16 7 -4 -10
-7 4 21 36 24 14 2 -7
-2 12 25 47 34 26 13 4
5 20 28 55 47 40 25 15
10 29 30 64 58 54 38 27
16 38 33 73 69 67 51 39
21 48 36 82 80 81 64 51
21 58 39 79 86 90 75 63
18 69 43 73 88 96 88 76
16 80 45 67 91 103 99 89
13 92 48 60 93 110 110 102
10 103 51 54 96 116 121 114
5 104 43 28 86 113 122 116
-2 101 30 -2 70 106 118 115
-8 99 19 -32 56 99 115 113
-13 96 7 -63 40 92 112 111
-19 93 -6 -93 26 85 108 110
-27 68 -20 -113 1 52 76 82
-35 37 -34 -130 -28 12 36 49
-44 8 -49 -147 -57 -29 -4 14
-53 -23 -63 -164 -86 -69 -43 -20
-61 -54 -77 -182 -113 -109 -82 -54
-59 -63 -80 -175 -116 -113 -89 -62
-52 -65 -78 -158 -110 -106 -83 -61
-46 -68 -75 -143 -104 -98 -78 -61
-39 -70 -73 -128 -98 -91 -73 -60
-33 -73 -71 -112 -92 -83 -68 -60
-28 -69 -64 -98 -81 -74 -61 -55
-23 -61 -56 -83 -70 -66 -54 -48
-18 -53 -47 -69 -60 -57 -47 -41
-13 -46 -38 -55 -49 -48 -39 -35
-9 -37 -29 -40 -37 -38 -32 -29
-7 -34 -25 -34 -32 -33 -29 -26
-8 -32 -21 -30 -29 -31 -27 -24
-9 -31 -17 -26 -26 -28 -24 -22
-10 -29 -13 -22 -23 -26 -22 -20
-11 -27 -9 -18 -20 -23 -20 -18
-12 -26 -8 -16 -19 -22 -19 -17
-12 -24 -7 -15 -18 -22 -19 -17
-12 -23 -7 -14 -17 -21 -19 -16
-12 -22 -6 -12 -16 -21 -19 -16
-12 -21 -6 -11 -16 -21 -19 -16
-11 -20 -5 -10 -15 -20 -18 -15
-11 -20 -5 -10 -15 -20 -18 -15
-11 -20 -5 -10 -15 -19 -18 -16
-11 -20 -5 -10 -15 -19 -18 -16
-11 -20 -5 -10 -15 -19 -18 -16
-11 -19 -4 -8 -14 -18 -18 -17
-9 -17 -3 -7 -12 -17 -16 -16
-8 -15 -2 -6 -11 -16 -15 -15
-6 -13 0 -4 -10 -15 -14 -14
-4 -11 0 -3 -9 -15 -13 -13
-3 -11 1 -2 -8 -14 -12 -12
-4 -13 1 -2 -8 -13 -12 -12
-5 -14 1 -2 -8 -12 -11 -12
-6 -16 1 -2 -8 -11 -11 -12
-7 -18 1 -2 -8 -11 -11 -12
-8 -19 1 -2 -8 -10 -10 -11
-8 -19 1 -2 -8 -11 -11 -12
-8 -18 1 -2 -8 -12 -12 -12
-8 -18 1 -2 -8 -13 -13 -13
-8 -18 1 -2 -8 -14 -13 -13
-7 -16 0 -2 -9 -14 -14 -14
-6 -15 1 0 -8 -13 -13 -13
-6 -13 2 1 -7 -12 -12 -12
-5 -12 2 1 -7 -10 -11 -11
-5 -10 3 2 -6 -9 -10 -10
-4 -9 4 3 -5 -8 -9 -9
-4 -10 3 2 -6 -9 -10 -10
-4 -11 2 2 -7 -10 -10 -10
-4 -11 1 1 -7 -10 -11 -11
-4 -12 0 1 -8 -11 -11 -11
-3 -12 -2 0 -9 -12 -12 -12
-2 -11 -2 1 -8 -12 -11 -12
0 -10 0 1 -7 -11 -11 -12
0 -8 0 2 -7 -11 -10 -12
1 -7 0 2 -6 -11 -10 -12
2 -6 1 4 -5 -9 -8 -10
2 -6 2 5 -3 -8 -7 -8
2 -6 2 6 -2 -7 -5 -6
2 -6 3 8 0 -5 -4 -4
2 -6 3 9 1 -4 -2 -2
2 -6 4 10 2 -3 0 0
1 -8 4 10 2 -3 0 0
1 -9 4 10 2 -2 0 0
0 -10 4 10 2 -2 0 0
0 -11 4 10 2 -2 0 0
-2 -12 3 10 1 0 1 1
0 -11 3 10 1 0 1 1
1 -10 2 11 1 1 0 0
2 -10 2 11 1 1 0 0
3 -9 2 11 1 1 0 0
4 -8 1 12 2 2 -2 -2
4 -6 1 13 3 4 0 -2
5 -5 1 13 3 5 1 -2
5 -4 1 14 4 6 1 -2
5 -3 1 14 4 7 2 -2
7 -2 1 15 5 9 4 1
8 0 1 17 7 10 6 2
9 1 1 18 8 12 8 4
11 2 1 19 9 13 11 5
12 3 1 20 10 15 13 7
13 4 1 21 11 16 14 8
12 3 1 21 12 17 15 9
12 3 1 21 12 17 16 10
11 2 1 21 13 18 17 11
11 2 1 21 13 18 18 12
11 1 0 23 14 20 19 14
13 3 0 24 15 21 21 15
15 4 0 26 16 23 22 17
17 5 0 27 17 24 23 18
19 6 0 29 18 26 24 20
20 7 1 30 19 27 25 21
20 7 -2 30 19 27 25 21
19 7 -3 30 19 27 25 21
19 7 -4 30 19 27 25 21
19 7 -5 30 19 27 25 21
19 6 -6 29 19 28 27 22
21 8 -6 30 20 30 28 24
23 9 -6 30 20 31 30 26
26 11 -6 31 21 33 31 28
28 12 -6 31 21 35 33 30
29 14 -7 32 22 36 34 31
29 15 -8 32 22 36 35 31
30 17 -9 31 21 36 35 31
30 18 -9 31 21 36 36 31
30 20 -10 31 21 36 36 31
31 21 -11 30 20 36 37 31
31 21 -13 29 19 35 37 31
30 20 -14 28 18 35 36 31
30 20 -15 27 18 34 36 31
30 20 -16 26 17 34 36 31
29 19 -17 25 16 33 35 30
30 20 -17 25 16 33 35 32
31 20 -16 25 16 33 36 33
31 21 -16 25 16 33 36 35
32 21 -16 25 16 33 36 36
33 22 -15 25 17 34 37 37
33 22 -14 25 17 34 38 37
33 22 -14 25 17 35 38 37
33 22 -13 25 17 35 39 37
33 22 -13 25 17 35 39 37
32 23 -12 25 18 36 40 36
29 23 -11 25 18 35 38 36
27 22 -10 25 18 34 37 35
25 22 -10 25 18 33 36 35
22 22 -9 25 18 32 35 35
21 21 -8 24 18 31 34 33
21 21 -6 24 18 30 32 31
21 20 -5 23 17 29 31 29
21 20 -4 23 17 29 29 27
21 20 -3 23 17 28 28 25
20 19 -2 22 16 27 26 24
19 18 1 22 16 25 24 23
17 17 2 22 16 24 22 23
16 17 3 22 16 23 20 22
14 16 4 22 16 22 18 22
12 14 5 21 16 19 16 19
9 11 5 19 14 16 13 16
6 9 5 17 13 13 11 12
3 7 5 15 12 10 9 9
0 4 5 13 11 7 6 6
-2 3 6 12 10 5 5 4
0 3 8 12 10 5 5 5
0 3 9 11 10 5 5 5
1 3 11 11 10 5 5 6
1 3 12 11 10 5 5 6
1 2 13 9 8 5 4 6
-2 0 12 8 6 3 2 4
-4 -2 11 6 4 0 0 1
-7 -4 10 5 2 -3 -3 -2
-9 -5 9 3 0 -6 -5 -5
-10 -6 8 2 -2 -7 -6 -6
-10 -7 8 1 -2 -7 -7 -6
-10 -8 9 0 -2 -8 -8 -7
-10 -9 9 -2 -2 -8 -8 -7
-10 -10 9 -3 -2 -8 -9 -7
-11 -11 10 -4 -3 -9 -10 -8
-11 -11 10 -4 -3 -9 -10 -8
-12 -12 9 -4 -4 -10 -10 -8
-13 -12 8 -4 -5 -10 -10 -8
-13 -12 8 -4 -5 -10 -10 -8
-14 -13 7 -5 -6 -11 -10 -9
-14 -12 7 -5 -6 -11 -10 -9
-13 -11 7 -5 -6 -11 -10 -9
-13 -10 7 -5 -6 -11 -10 -9
-13 -9 7 -5 -6 -11 -10 -9
-12 -8 6 -6 -6 -11 -11 -9
-11 -8 6 -6 -6 -11 -11 -9
-10 -8 7 -6 -6 -11 -12 -10
-10 -8 8 -6 -6 -11 -12 -11
-9 -8 8 -6 -6 -11 -12 -11
-8 -8 9 -5 -6 -11 -13 -12
-8 -8 9 -5 -6 -11 -13 -12
-9 -9 10 -4 -5 -11 -13 -11
-9 -10 10 -3 -4 -11 -13 -10
-9 -10 10 -3 -4 -11 -13 -10
-10 -11 11 -2 -3 -10 -12 -9
-10 -11 11 -2 -3 -10 -12 -9
-9 -11 11 -2 -3 -9 -11 -9
-9 -11 11 -2 -3 -9 -11 -9
-9 -11 11 -2 -3 -9 -11 -9
-9 -10 10 0 -4 -8 -10 -8
-11 -11 10 0 -4 -8 -10 -8
-13 -12 9 -2 -5 -8 -11 -9
-15 -13 9 -3 -5 -8 -11 -10
-17 -14 9 -3 -5 -8 -11 -10
-18 -15 8 -4 -6 -9 -12 -11
-17 -15 8 -4 -6 -9 -12 -11
-16 -14 9 -4 -5 -9 -12 -11
-16 -14 9 -4 -5 -9 -12 -11
-15 -14 9 -4 -5 -9 -12 -11
-14 -13 10 -3 -4 -10 -11 -10
-14 -14 10 -4 -4 -10 -11 -11
-14 -15 9 -5 -5 -11 -12 -12
-14 -16 9 -5 -5 -11 -13 -12
-14 -17 9 -6 -5 -11 -13 -13
-13 -18 8 -7 -6 -12 -14 -14
-13 -17 8 -7 -6 -12 -14 -14
-13 -16 8 -7 -6 -11 -13 -13
-13 -16 8 -7 -6 -11 -13 -13
-13 -15 8 -7 -6 -11 -13 -13
-12 -14 8 -6 -6 -10 -12 -12
-12 -14 8 -6 -6 -10 -12 -12
-11 -13 8 -6 -6 -10 -12 -12
-11 -13 8 -6 -6 -10 -12 -12
-11 -13 8 -6 -6 -10 -12 -12
-10 -12 7 -7 -7 -11 -13 -12
-11 -14 7 -7 -7 -11 -13 -12
-12 -15 6 -8 -8 -12 -14 -13
-13 -17 5 -9 -9 -13 -14 -13
-14 -18 5 -9 -9 -13 -14 -13
-14 -18 4 -10 -10 -14 -15 -14
-12 -15 5 -9 -9 -13 -14 -13
-10 -12 6 -8 -8 -12 -13 -12
-8 -9 6 -7 -8 -12 -13 -12
-6 -6 7 -6 -7 -11 -12 -11
-5 -4 8 -5 -6 -10 -11 -10
-5 -4 9 -5 -5 -10 -11 -9
-5 -3 10 -4 -4 -10 -10 -7
-5 -3 11 -4 -3 -10 -10 -6
-5 -3 12 -4 -2 -10 -10 -5
-5 -2 13 -3 0 -9 -9 -4
-5 -2 13 -3 0 -9 -9 -5
-4 -2 12 -3 -2 -9 -10 -6
-3 -2 11 -3 -3 -9 -10 -6
-3 -2 11 -3 -3 -9 -10 -7
-2 -2 10 -2 -4 -8 -11 -8
-2 0 9 -2 -4 -8 -10 -8
-2 1 8 -2 -4 -7 -9 -7
-2 2 8 -2 -4 -7 -9 -7
-2 3 7 -2 -4 -7 -8 -7
0 4 6 0 -3 -6 -7 -6
0 4 6 0 -2 -5 -6 -5
1 5 6 1 0 -4 -5 -4
2 5 6 1 0 -4 -5 -4
2 5 6 1 1 -3 -4 -3
3 6 5 2 2 -2 -3 -2
3 7 5 2 2 -2 -3 -2
2 9 5 2 2 -2 -3 -2
1 10 5 2 2 -2 -3 -2
1 11 5 2 2 -2 -3 -2
0 11 4 3 2 -3 -3 -2
0 8 3 2 1 -4 -4 -3
1 5 2 1 -2 -6 -6 -4
2 2 2 0 -3 -7 -7 -5
2 0 1 -2 -4 -8 -8 -6
2 -4 0 -4 -6 -10 -10 -8
0 -6 0 -5 -8 -12 -12 -9
-4 -8 -2 -7 -10 -15 -15 -11
-6 -10 -2 -9 -12 -17 -17 -13
-8 -13 -2 -11 -14 -19 -19 -15
-10 -14 -3 -12 -15 -21 -21 -16
-12 -15 -3 -12 -15 -21 -21 -16
-13 -16 -3 -12 -15 -21 -21 -17
-15 -16 -3 -12 -15 -21 -21 -18
-16 -17 -3 -12 -15 -21 -21 -18
-17 -18 -4 -12 -15 -20 -20 -19
-15 -17 -4 -12 -15 -20 -20 -19
-14 -15 -4 -12 -15 -20 -20 -18
-12 -14 -4 -12 -15 -20 -20 -17
-11 -13 -4 -12 -15 -20 -20 -17
-10 -13 -5 -11 -15 -20 -20 -16
-12 -15 -5 -11 -15 -20 -20 -16
-14 -17 -5 -12 -15 -20 -21 -16
-15 -19 -5 -13 -15 -20 -21 -16
-17 -21 -5 -13 -15 -20 -21 -16
-18 -22 -6 -14 -16 -21 -22 -17
-18 -20 -6 -14 -16 -21 -21 -17
-17 -19 -6 -13 -16 -21 -20 -17
-16 -18 -6 -13 -16 -21 -20 -17
-16 -16 -6 -13 -16 -21 -19 -17
-15 -15 -7 -12 -15 -20 -18 -18
-15 -16 -7 -12 -15 -20 -18 -18
-15 -17 -7 -12 -15 -20 -19 -18
-15 -17 -7 -12 -15 -20 -19 -18
-15 -18 -7 -12 -15 -20 -19 -18
-16 -19 -5 -9 -13 -20 -19 -18
-15 -17 -2 -2 -8 -17 -18 -18
-13 -15 3 6 -3 -14 -16 -17
-12 -14 6 13 3 -12 -14 -16
-11 -12 10 20 8 -9 -12 -16
-9 -7 13 29 16 1 -6 -11
-7 3 17 39 27 14 6 -2
-5 11 20 50 38 27 16 7
-3 20 24 59 49 40 26 16
1 29 27 69 60 54 37 25
3 39 31 74 69 66 50 37
6 52 35 76 78 78 65 52
9 64 39 78 88 90 79 67
12 75 44 80 97 102 94 82
15 88 48 82 106 113 108 98
13 96 47 70 105 119 118 109
6 100 40 45 96 119 126 116
-2 104 33 19 87 119 132 125
-10 108 27 -6 76 119 139 132
-17 112 20 -31 67 119 146 140
-26 99 9 -58 46 98 126 125
-35 71 -8 -85 14 55 81 88
-45 43 -23 -111 -17 13 37 50
-54 15 -39 -138 -49 -30 -7 13
-63 -14 -55 -165 -80 -72 -51 -24
-66 -31 -64 -173 -95 -93 -71 -44
-61 -39 -68 -163 -97 -93 -72 -47
-56 -48 -72 -153 -99 -93 -73 -51
-52 -56 -75 -144 -101 -93 -74 -55
-47 -64 -79 -134 -103 -93 -75 -59
-40 -67 -77 -120 -99 -90 -73 -59
-34 -65 -69 -105 -88 -80 -67 -54
-27 -63 -61 -89 -76 -71 -60 -49
-21 -61 -53 -73 -65 -62 -54 -45
-14 -59 -45 -58 -55 -53 -47 -39
-11 -54 -38 -47 -47 -46 -41 -35
-11 -47 -33 -40 -40 -41 -38 -32
-11 -39 -28 -34 -35 -36 -34 -29
-11 -32 -23 -28 -29 -32 -30 -26
-11 -25 -18 -21 -24 -28 -26 -23
-11 -21 -15 -18 -21 -25 -24 -21
-12 -21 -14 -16 -21 -24 -23 -21
-14 -22 -13 -14 -20 -23 -22 -20
-15 -22 -12 -13 -19 -23 -22 -20
-16 -22 -11 -11 -19 -22 -21 -20
-16 -23 -10 -10 -18 -21 -20 -19
-13 -21 -8 -8 -16 -19 -19 -18
-10 -19 -6 -7 -14 -18 -18 -16
-8 -17 -5 -6 -12 -17 -18 -15
-5 -15 -3 -4 -10 -15 -17 -14
-3 -14 -2 -3 -9 -14 -16 -13
-5 -14 -3 -4 -10 -15 -16 -14
-7 -15 -5 -5 -12 -16 -17 -15
-8 -16 -6 -5 -13 -17 -18 -15
-10 -16 -7 -6 -14 -18 -18 -16
-11 -17 -8 -7 -15 -19 -19 -17
-11 -15 -7 -6 -14 -18 -19 -17
-10 -14 -6 -5 -13 -17 -18 -16
-10 -13 -5 -4 -12 -16 -17 -15
-10 -11 -4 -3 -11 -15 -17 -15
-9 -10 -3 -2 -10 -14 -16 -14
-9 -11 -3 -2 -10 -14 -16 -14
-9 -12 -3 -2 -10 -13 -16 -14
-9 -13 -3 -2 -10 -13 -16 -14
-9 -14 -3 -2 -10 -13 -16 -14
-8 -15 -3 -2 -9 -12 -15 -15
-8 -15 -3 -2 -9 -12 -15 -15
-8 -15 -3 -2 -9 -12 -15 -16
-8 -15 -3 -2 -9 -12 -15 -17
-8 -15 -3 -2 -9 -12 -15 -17
-9 -16 -3 -2 -9 -12 -16 -18
-7 -16 -3 0 -8 -11 -15 -17
-6 -15 -2 1 -7 -10 -14 -15
-5 -15 0 1 -7 -9 -13 -14
-3 -15 0 2 -6 -8 -12 -13
-2 -14 1 3 -5 -7 -11 -12
-2 -12 1 3 -5 -7 -11 -12
-3 -11 1 3 -5 -6 -11 -11
-3 -10 1 3 -5 -6 -11 -11
-3 -8 1 3 -5 -6 -11 -11
-4 -7 0 4 -5 -5 -10 -10
-4 -7 0 4 -5 -5 -10 -10
-4 -7 0 4 -5 -5 -10 -10
-4 -7 0 4 -4 -5 -10 -9
-4 -7 0 4 -4 -5 -10 -9
-4 -8 0 4 -3 -5 -10 -8
-4 -8 0 4 -3 -5 -9 -8
-4 -9 0 4 -3 -4 -9 -8
-4 -10 0 4 -3 -3 -8 -7
-4 -10 0 4 -3 -3 -7 -7
-4 -11 -2 4 -2 -2 -6 -6
-4 -10 -2 5 0 1 -5 -6
-4 -9 -2 5 0 2 -4 -6
-4 -8 -2 6 1 3 -2 -5
-4 -7 -2 7 2 5 0 -5
-3 -6 0 8 3 6 1 -4
0 -5 0 8 4 6 1 -4
2 -5 0 8 4 7 1 -4
4 -4 0 8 5 8 1 -3
6 -3 0 8 6 8 1 -3
7 -2 0 9 7 9 1 -2
7 -2 0 9 7 9 1 -2
7 -2 -2 9 7 9 2 -2
6 -3 -3 9 7 9 3 -2
6 -3 -3 9 7 9 3 -2
5 -4 -4 10 6 10 4 0
6 -3 -4 11 8 12 6 0
7 -3 -4 12 9 14 7 1
8 -2 -4 14 11 16 8 2
9 0 -4 15 13 18 10 2
10 1 -3 16 14 20 11 3
11 2 -4 16 14 20 12 5
12 3 -5 16 14 21 13 6
13 4 -6 16 13 22 15 8
14 5 -7 16 13 22 16 10
15 6 -8 15 12 23 17 12
17 7 -8 16 14 25 19 14
18 7 -8 17 15 27 21 16
20 8 -8 19 17 29 23 18
22 9 -8 20 19 31 25 20
23 10 -7 21 20 33 26 22
23 10 -9 21 19 33 26 22
23 10 -10 21 18 33 26 22
24 11 -11 20 17 33 26 23
24 11 -13 20 16 33 26 23
26 12 -14 19 15 32 26 24
28 14 -14 19 16 32 27 26
30 15 -13 19 17 33 28 28
33 16 -12 20 19 34 29 30
35 18 -12 20 20 34 30 32
37 19 -11 21 21 35 31 33
36 19 -13 21 20 35 31 32
35 19 -15 21 19 35 31 31
33 19 -17 20 18 35 31 30
32 19 -19 20 17 35 31 29
31 20 -20 19 16 34 32 28
31 20 -20 19 16 35 33 29
31 20 -19 19 16 36 33 30
31 20 -18 19 17 37 34 32
31 20 -18 19 17 38 35 33
31 20 -17 20 18 39 36 34
32 22 -17 20 18 39 36 34
32 24 -17 19 18 38 36 34
33 27 -18 18 17 37 36 34
34 29 -18 18 17 37 36 34
35 31 -19 17 16 36 37 34
33 30 -19 17 16 35 35 33
31 29 -19 16 15 34 34 33
29 27 -18 15 14 32 32 32
28 26 -18 15 14 31 30 31
26 25 -17 14 13 30 29 30
25 25 -15 14 13 30 28 29
25 25 -14 14 13 30 27 28
24 25 -13 14 13 29 25 27
23 25 -11 14 13 29 24 26
22 25 -10 15 14 28 23 25
20 24 -8 15 14 26 21 22
18 23 -7 15 14 24 19 20
16 21 -6 15 14 22 17 18
14 20 -4 15 14 21 16 16
12 19 -3 15 14 19 14 14
11 19 -3 14 13 17 12 12
10 19 -3 13 12 15 10 10
8 19 -3 11 10 13 8 8
7 19 -3 10 9 12 7 7
6 19 -2 9 8 10 5 5
5 16 -2 9 8 10 4 4
4 14 0 8 8 9 3 4
2 12 1 7 8 8 1 3
1 10 1 7 8 8 0 2
0 8 2 6 7 7 -2 1
0 5 2 5 6 5 -3 0
0 3 2 4 5 3 -5 -3
0 1 3 2 3 1 -6 -4
0 -2 3 1 2 0 -8 -6
0 -4 4 0 1 -3 -9 -7
0 -4 4 -2 1 -3 -9 -7
-2 -4 4 -2 1 -3 -9 -7
-3 -4 4 -3 0 -4 -9 -8
-3 -4 4 -4 0 -4 -9 -8
-4 -3 4 -5 -2 -5 -9 -9
-5 -5 4 -6 -3 -6 -10 -9
-7 -7 3 -6 -4 -7 -10 -9
-8 -9 2 -7 -5 -8 -11 -10
-10 -11 2 -8 -6 -9 -12 -10
-11 -13 1 -9 -7 -10 -13 -11
-11 -13 1 -9 -7 -10 -13 -11
-11 -13 1 -9 -7 -10 -13 -11
-12 -13 1 -8 -7 -10 -13 -11
-12 -13 1 -8 -7 -10 -13 -11
-13 -12 2 -7 -7 -9 -13 -12
-10 -11 2 -6 -6 -9 -12 -11
-8 -11 2 -5 -5 -8 -12 -10
-5 -10 3 -3 -3 -7 -11 -8
-3 -9 3 -2 -2 -7 -10 -7
-2 -8 4 0 0 -6 -9 -6
-4 -10 4 0 0 -6 -9 -7
-7 -12 4 0 0 -6 -9 -8
-10 -14 4 0 -2 -7 -10 -9
-13 -15 4 0 -2 -7 -10 -10
-15 -17 5 -2 -3 -8 -11 -11
-14 -16 5 -2 -3 -8 -11 -11
-12 -15 5 -3 -3 -8 -11 -11
-11 -13 4 -4 -4 -8 -11 -11
-9 -12 4 -4 -4 -8 -11 -11
-8 -11 3 -5 -5 -9 -12 -10
-8 -10 3 -4 -5 -9 -12 -10
-8 -10 4 -4 -4 -9 -12 -9
-7 -9 5 -3 -3 -8 -12 -8
-7 -8 5 -2 -3 -8 -12 -8
-6 -7 6 0 -2 -7 -11 -7
-6 -7 6 0 -3 -7 -11 -8
-6 -7 6 0 -3 -8 -12 -9
-6 -7 5 -2 -4 -9 -13 -10
-6 -7 5 -2 -5 -9 -13 -11
-6 -6 4 -3 -6 -10 -14 -12
-6 -7 4 -3 -6 -10 -14 -12
-6 -8 4 -3 -6 -10 -14 -12
-7 -9 4 -3 -6 -10 -14 -12
-7 -10 4 -3 -6 -10 -14 -12
-8 -11 3 -3 -6 -11 -14 -13
-8 -11 3 -3 -6 -11 -14 -13
-8 -10 3 -3 -6 -11 -14 -13
-8 -9 3 -3 -6 -11 -14 -13
-8 -9 3 -3 -6 -11 -14 -13
-7 -8 3 -2 -7 -10 -14 -14
-7 -8 3 -2 -7 -10 -14 -14
-7 -8 3 -2 -7 -10 -14 -14
-8 -8 3 -2 -7 -10 -14 -14
-8 -8 3 -2 -7 -10 -14 -14
-9 -8 2 -3 -6 -11 -14 -14
-9 -9 2 -3 -6 -11 -14 -14
-9 -9 2 -3 -6 -11 -14 -13
-9 -10 2 -3 -6 -11 -14 -12
-9 -11 2 -3 -6 -11 -14 -12
-8 -12 1 -3 -7 -10 -13 -11
-7 -9 1 -3 -6 -9 -12 -10
-6 -6 2 -2 -5 -9 -11 -10
-4 -4 3 0 -3 -8 -10 -9
-3 0 3 0 -2 -7 -9 -8
-2 2 4 1 0 -6 -8 -7
0 2 4 1 0 -6 -8 -7
0 2 4 1 -2 -6 -9 -7
1 2 4 1 -3 -7 -10 -8
2 2 4 1 -3 -7 -10 -8
3 1 4 0 -4 -8 -11 -9
3 1 4 0 -4 -8 -11 -10
3 0 4 0 -4 -8 -11 -11
3 -2 4 0 -4 -9 -11 -12
3 -2 4 0 -4 -9 -11 -13
4 -3 5 0 -4 -10 -12 -14
4 0 5 0 -4 -10 -11 -13
5 2 4 0 -4 -10 -10 -12
6 4 3 0 -4 -10 -9 -10
6 5 3 0 -4 -10 -8 -9
7 7 2 -2 -3 -9 -7 -8
9 10 2 0 0 -7 -6 -7
12 12 2 1 1 -5 -5 -6
14 15 2 3 3 -3 -4 -4
16 17 2 4 4 -2 -3 -3
18 19 1 5 6 1 -2 -2
16 16 1 4 5 0 -3 -3
15 13 1 3 4 -2 -4 -4
13 11 0 1 2 -3 -5 -5
12 8 0 0 1 -4 -6 -6
10 5 -2 -2 0 -5 -7 -7
10 2 -2 -4 -3 -8 -9 -9
9 -2 -2 -7 -5 -11 -11 -11
8 -5 -2 -9 -7 -13 -13 -13
8 -8 -2 -11 -9 -16 -15 -15
6 -11 -3 -13 -11 -18 -17 -17
3 -12 -3 -13 -11 -18 -17 -17
0 -12 -3 -13 -12 -19 -18 -17
-4 -13 -3 -13 -13 -20 -19 -18
-7 -14 -3 -13 -13 -20 -19 -18
-9 -15 -4 -12 -14 -21 -20 -19
-9 -15 -4 -12 -14 -21 -20 -19
-9 -14 -4 -12 -14 -21 -20 -19
-8 -13 -4 -12 -13 -21 -19 -19
-8 -13 -4 -12 -13 -21 -19 -19
-7 -12 -4 -12 -12 -20 -18 -18
-7 -13 -4 -13 -12 -20 -18 -18
-7 -14 -4 -13 -13 -20 -18 -18
-8 -15 -5 -14 -14 -20 -19 -18
-8 -16 -5 -15 -14 -20 -19 -18
-9 -17 -6 -16 -15 -21 -20 -18
-8 -16 -6 -16 -15 -21 -20 -18
-7 -15 -6 -16 -15 -21 -20 -18
-6 -14 -6 -16 -15 -21 -20 -18
-4 -13 -6 -16 -15 -21 -20 -18
-3 -12 -5 -16 -15 -21 -20 -19
-3 -12 -5 -16 -15 -21 -20 -19
-3 -12 -5 -16 -15 -21 -20 -19
-3 -11 -5 -15 -14 -20 -20 -19
-3 -11 -5 -15 -14 -20 -20 -19
-4 -10 -5 -14 -13 -19 -19 -18
-5 -11 -4 -12 -13 -19 -19 -18
-6 -12 -4 -10 -12 -19 -19 -19
-7 -13 -3 -9 -12 -19 -20 -19
-9 -15 -2 -7 -11 -19 -20 -20
-10 -15 1 -2 -7 -16 -19 -21
-7 -11 7 10 3 -7 -13 -18
-4 -7 12 20 13 2 -7 -15
-2 -3 17 31 22 11 1 -12
2 3 23 42 32 20 7 -9
4 9 27 52 43 30 16 -2
6 21 29 59 53 44 29 12
8 32 32 66 63 57 43 26
10 45 34 73 73 70 56 39
12 57 36 80 84 84 69 53
14 68 38 84 91 95 81 66
12 79 40 74 92 100 92 78
10 91 44 65 93 105 103 91
8 102 46 56 94 110 114 103
6 113 48 48 95 115 125 115
2 118 47 31 91 115 130 122
-8 108 34 1 71 102 117 112
-17 98 22 -31 53 89 105 103
-26 88 10 -62 34 74 93 93
-35 77 -3 -93 15 61 81 84
-44 63 -16 -118 -6 42 63 68
-48 36 -29 -131 -29 8 30 39
-52 10 -44 -142 -53 -25 -3 11
-56 -17 -57 -154 -76 -58 -35 -19
-61 -44 -71 -165 -100 -91 -68 -48
-62 -62 -80 -170 -115 -112 -91 -68
-53 -61 -77 -153 -107 -103 -85 -65
-45 -60 -73 -136 -98 -95 -78 -63
-35 -59 -69 -119 -90 -86 -72 -60
-27 -58 -65 -102 -80 -77 -67 -57
-20 -56 -60 -87 -72 -68 -61 -54
-16 -51 -53 -75 -63 -61 -55 -50
-13 -46 -46 -64 -55 -54 -49 -45
-10 -39 -37 -53 -46 -46 -43 -40
-7 -34 -30 -41 -37 -38 -36 -36
-4 -30 -24 -33 -30 -32 -31 -32
-5 -27 -20 -29 -27 -30 -29 -30
-5 -25 -17 -26 -24 -27 -27 -28
-6 -22 -13 -22 -21 -25 -25 -26
-7 -19 -10 -19 -18 -23 -23 -24
-8 -17 -7 -16 -15 -21 -21 -22
-7 -17 -7 -14 -15 -21 -21 -21
-6 -16 -7 -13 -15 -21 -20 -21
-5 -16 -6 -11 -14 -20 -20 -20
-3 -15 -6 -10 -14 -20 -19 -19
-2 -14 -5 -8 -13 -19 -18 -18
-2 -14 -4 -8 -12 -19 -18 -18
-2 -13 -3 -8 -11 -18 -18 -18
-2 -13 -2 -7 -10 -18 -18 -18
-2 -12 0 -7 -9 -17 -18 -18
-2 -11 1 -6 -8 -16 -18 -18
-4 -11 0 -6 -9 -16 -18 -18
-6 -12 -2 -6 -10 -16 -18 -18
-7 -12 -3 -6 -11 -16 -18 -18
-9 -13 -5 -6 -13 -16 -18 -18
-11 -14 -6 -7 -14 -17 -19 -18
-10 -14 -5 -7 -13 -17 -19 -18
-9 -14 -4 -6 -11 -16 -18 -18
-8 -14 -3 -6 -10 -16 -18 -18
-6 -14 -2 -5 -9 -15 -17 -18
-5 -14 0 -4 -7 -14 -16 -17
-5 -14 0 -4 -7 -14 -16 -17
-5 -14 0 -4 -7 -14 -16 -17
-5 -14 -2 -4 -8 -14 -16 -17
-5 -14 -2 -4 -8 -14 -16 -17
-6 -13 -3 -3 -9 -14 -17 -18
-4 -12 -3 -3 -9 -14 -17 -18
-3 -10 -3 -2 -8 -14 -17 -18
0 -9 -2 -2 -8 -13 -16 -17
1 -8 -2 0 -7 -13 -16 -17
3 -6 0 1 -6 -12 -15 -16
2 -6 0 1 -6 -12 -15 -16
2 -6 0 1 -6 -13 -15 -16
1 -6 -2 2 -6 -13 -15 -16
0 -6 -2 2 -6 -14 -15 -16
-2 -7 -3 3 -6 -15 -14 -15
0 -7 -2 3 -5 -13 -13 -14
0 -6 -2 3 -5 -12 -13 -14
1 -6 0 4 -4 -10 -12 -13
2 -5 1 4 -3 -9 -11 -12
3 -4 2 5 -2 -7 -10 -11
4 -4 2 6 -2 -7 -10 -11
5 -4 2 6 -2 -7 -10 -11
6 -3 1 7 -2 -6 -9 -10
8 -3 1 8 -2 -6 -9 -10
9 -2 0 9 0 -5 -8 -9
7 -3 0 9 0 -5 -8 -9
6 -3 0 9 0 -4 -8 -9
4 -4 0 9 0 -4 -7 -9
3 -5 0 9 0 -3 -7 -9
1 -6 -2 8 0 -2 -6 -9
2 -5 -2 8 0 -2 -6 -9
4 -3 -2 9 0 0 -5 -8
5 0 -2 9 1 0 -5 -8
6 1 -2 10 1 1 -4 -7
8 3 -2 11 2 2 -3 -6
9 3 -2 11 2 3 -3 -6
10 3 -2 11 3 5 -3 -6
11 4 -3 11 3 6 -2 -7
13 4 -3 11 4 7 -2 -7
14 5 -4 12 5 9 0 -8
14 4 -4 13 5 9 1 -7
14 3 -4 14 5 9 3 -6
13 2 -4 15 6 10 4 -5
13 0 -4 17 6 10 5 -4
12 -2 -4 18 7 11 7 -3
14 0 -4 18 8 13 9 0
16 2 -4 19 10 15 11 3
18 3 -4 20 11 16 12 5
20 4 -4 21 12 18 14 8
22 6 -3 22 14 20 16 10
22 8 -4 22 14 20 16 10
23 10 -5 22 14 20 17 11
23 13 -6 23 14 20 17 12
24 15 -8 23 14 20 18 13
25 17 -9 24 14 21 19 14
26 17 -9 24 14 22 19 15
27 16 -9 24 15 24 20 16
28 16 -9 25 15 25 20 17
30 15 -9 25 16 26 21 19
31 14 -10 26 17 28 22 20
31 14 -10 26 17 28 24 21
32 15 -11 27 17 29 26 22
33 16 -11 27 17 29 28 23
34 17 -12 28 17 30 30 25
35 18 -13 29 16 31 32 26
35 18 -13 29 16 31 32 26
34 18 -13 29 17 32 32 27
34 19 -13 29 17 32 32 27
33 19 -13 29 18 33 32 28
32 20 -14 28 19 34 33 29
33 20 -14 28 19 34 33 29
34 20 -14 28 19 34 34 30
35 20 -15 28 19 34 34 31
37 20 -15 28 19 34 35 32
38 21 -16 27 19 35 36 33
36 21 -17 26 19 35 36 33
35 20 -18 24 18 34 36 33
33 19 -19 23 18 34 35 32
31 18 -21 22 17 33 35 32
29 17 -22 20 16 32 34 31
29 19 -22 20 16 32 34 31
30 21 -21 20 16 32 33 31
30 23 -20 21 15 31 33 30
31 25 -19 21 15 31 32 30
32 27 -18 22 14 30 31 29
32 27 -17 22 14 30 31 29
31 27 -15 22 15 30 31 29
31 27 -13 22 15 29 30 29
30 27 -12 22 16 29 30 29
29 28 -10 21 17 28 29 29
27 26 -9 21 17 27 28 27
26 25 -7 21 17 26 26 26
24 23 -6 21 17 25 25 24
22 21 -5 21 17 24 24 22
20 19 -3 22 16 23 22 20
19 19 -3 21 16 22 20 20
17 18 -2 19 16 21 18 19
15 18 -2 18 16 20 15 18
14 17 0 17 16 18 13 17
12 16 1 15 15 17 11 16
11 15 2 15 15 15 10 14
9 13 4 15 14 14 9 11
7 12 6 15 13 12 8 9
6 11 7 15 12 10 7 6
4 9 9 15 11 8 6 4
3 6 9 14 10 7 4 3
1 4 9 12 9 5 3 1
0 1 9 11 8 4 1 -2
-2 -2 9 10 7 3 -2 -3
-4 -5 9 8 6 1 -4 -5
-4 -5 9 8 6 0 -5 -5
-5 -5 9 7 5 -2 -6 -6
-5 -5 9 7 4 -3 -7 -7
-6 -5 9 6 3 -5 -8 -8
-7 -6 10 5 2 -6 -9 -9
-7 -5 10 5 2 -6 -9 -9
-7 -4 10 4 2 -6 -9 -9
-7 -3 10 3 2 -5 -9 -9
-7 0 10 2 2 -5 -9 -9
-6 1 11 1 2 -4 -9 -9
-6 -2 11 1 2 -5 -9 -9
-6 -3 11 1 1 -6 -9 -9
-6 -5 10 1 1 -7 -10 -10
-6 -7 10 1 0 -8 -10 -10
-7 -9 9 0 -2 -9 -11 -11
-8 -9 9 0 -2 -9 -11 -11
-9 -9 9 0 -2 -10 -12 -11
-10 -10 9 -2 -3 -10 -13 -11
-12 -10 9 -2 -3 -11 -14 -11
-13 -11 8 -3 -4 -12 -15 -12
-13 -11 8 -3 -4 -11 -14 -12
-12 -11 9 -2 -4 -10 -13 -11
-11 -10 9 0 -3 -9 -12 -10
-10 -10 10 1 -3 -7 -10 -9
-9 -9 11 2 -2 -6 -9 -8
-9 -8 11 2 -2 -6 -9 -8
-8 -7 11 2 -2 -7 -9 -8
-8 -6 12 2 -2 -7 -10 -8
-7 -5 12 2 -2 -8 -10 -8
-6 -4 13 3 0 -9 -11 -8
-7 -6 13 3 0 -9 -11 -8
-8 -9 13 3 0 -9 -11 -8
-9 -11 12 3 0 -9 -12 -9
-10 -13 12 3 0 -9 -12 -9
-11 -16 11 3 -2 -10 -13 -10
-11 -15 11 3 -2 -10 -13 -10
-11 -14 11 3 -2 -9 -13 -10
-11 -13 11 3 0 -9 -12 -10
-11 -12 11 3 0 -8 -12 -10
-12 -11 11 4 1 -7 -11 -10
-12 -11 11 4 1 -7 -11 -10
-11 -10 11 4 0 -7 -11 -10
-10 -10 11 4 0 -8 -12 -10
-9 -9 11 4 -2 -8 -12 -10
-8 -8 11 5 -3 -9 -13 -11
-9 -9 11 4 -3 -9 -13 -11
-10 -10 10 3 -3 -9 -13 -12
-11 -11 10 2 -3 -10 -14 -12
-12 -12 9 1 -3 -10 -14 -13
-13 -14 8 0 -4 -11 -15 -14
-11 -13 8 0 -4 -11 -15 -14
-9 -12 9 1 -4 -10 -14 -13
-7 -11 9 2 -4 -10 -13 -12
-4 -10 10 3 -4 -9 -12 -11
-2 -9 11 4 -3 -8 -11 -10
-2 -9 11 4 -3 -8 -11 -10
-2 -8 11 4 -2 -8 -11 -10
-2 -7 12 5 -2 -7 -11 -10
-2 -6 12 5 0 -7 -11 -10
-2 -5 13 6 1 -6 -10 -9
-2 -5 13 6 1 -6 -10 -9
-2 -5 13 6 1 -6 -10 -9
-3 -5 13 6 1 -6 -10 -9
-3 -5 13 6 1 -6 -10 -9
-4 -5 12 6 0 -7 -10 -8
-3 -5 12 6 0 -7 -10 -8
-2 -5 12 6 0 -7 -10 -8
0 -4 12 6 0 -7 -10 -7
1 -4 12 6 0 -7 -10 -7
3 -3 12 6 1 -6 -10 -6
3 -2 12 6 1 -5 -9 -5
4 0 12 7 2 -4 -8 -4
5 1 11 8 3 -3 -6 -3
6 2 11 9 4 -2 -5 -2
7 4 10 10 5 0 -3 0
7 4 10 10 5 0 -3 0
7 5 10 10 5 0 -3 0
8 6 10 9 5 0 -3 0
8 7 10 9 5 0 -3 0
9 8 9 8 6 1 -2 1
9 7 9 8 6 1 -2 1
8 6 8 8 6 1 -2 1
8 5 8 7 5 1 -2 1
7 4 7 7 5 1 -2 1
6 2 6 6 4 0 -2 2
6 0 6 5 2 -3 -4 0
5 -3 6 3 1 -5 -5 -2
5 -5 5 2 -2 -7 -7 -4
4 -8 5 0 -4 -9 -9 -6
3 -10 4 -3 -6 -11 -11 -8
1 -10 3 -4 -7 -12 -12 -9
-2 -11 2 -5 -8 -13 -13 -10
-4 -12 1 -6 -9 -15 -15 -11
-6 -13 0 -7 -10 -16 -16 -12
-8 -14 -2 -8 -12 -18 -18 -14
-8 -14 -2 -8 -12 -18 -18 -14
-9 -15 -2 -8 -12 -18 -18 -14
-9 -16 -2 -9 -12 -18 -18 -14
-10 -17 -2 -9 -12 -18 -18 -14
-11 -18 -2 -10 -13 -18 -19 -15
-11 -18 -2 -10 -13 -18 -19 -15
-10 -18 -2 -10 -13 -18 -19 -15
-10 -17 -2 -10 -13 -18 -19 -15
-9 -17 -2 -10 -13 -18 -19 -15
-8 -16 -2 -10 -14 -19 -19 -15
-8 -16 -2 -10 -14 -19 -19 -15
-9 -17 -2 -10 -14 -19 -19 -15
-10 -18 -2 -10 -14 -19 -19 -15
-11 -19 -2 -10 -14 -19 -19 -15
-12 -20 -2 -11 -14 -20 -19 -16
-12 -20 -2 -11 -14 -20 -19 -16
-11 -20 -2 -11 -14 -20 -19 -16
-11 -19 -2 -11 -14 -20 -20 -17
-10 -19 -2 -11 -14 -20 -20 -17
-9 -18 -3 -12 -14 -19 -21 -18
-9 -18 -3 -12 -14 -19 -21 -18
-9 -17 -3 -12 -14 -19 -21 -18
-9 -17 -3 -12 -15 -20 -21 -18
-9 -16 -3 -12 -15 -20 -21 -18
-10 -15 -4 -12 -16 -21 -20 -18
-10 -14 2 -2 -8 -15 -17 -17
-10 -12 7 8 0 -9 -13 -15
-9 -10 11 17 8 -3 -9 -13
-9 -8 16 26 16 4 -6 -11
-8 -6 21 35 23 11 0 -9
-3 6 24 46 35 24 12 4
3 17 27 55 47 37 25 15
7 28 30 64 59 52 37 26
12 39 34 74 70 65 51 37
17 50 37 84 81 78 63 50
16 62 42 78 86 87 75 63
14 73 45 74 90 96 88 76
13 85 49 69 94 104 100 90
11 96 53 64 99 112 112 103
9 107 57 57 103 120 123 115
1 106 46 29 90 115 122 115
-8 104 34 2 76 109 120 115
-15 102 24 -27 63 104 119 114
-23 100 13 -55 50 98 117 114
-31 96 2 -82 35 90 112 111
-38 65 -14 -102 7 49 71 76
-46 33 -29 -120 -23 7 29 42
-53 3 -45 -140 -52 -34 -12 8
-60 -28 -60 -159 -81 -76 -54 -27
-67 -58 -75 -178 -109 -115 -93 -60
-59 -60 -74 -163 -105 -108 -88 -60
-51 -62 -73 -149 -100 -102 -82 -60
-41 -64 -72 -135 -96 -95 -77 -60
-33 -66 -71 -120 -92 -89 -72 -60
-25 -69 -70 -107 -87 -81 -67 -61
-23 -65 -63 -94 -76 -73 -61 -56
-20 -62 -56 -80 -67 -65 -55 -50
-18 -58 -49 -67 -58 -57 -49 -45
-15 -54 -41 -54 -48 -49 -43 -39
-12 -50 -34 -41 -38 -40 -36 -33
-12 -44 -29 -36 -33 -36 -33 -30
-11 -37 -23 -31 -29 -33 -29 -27
-10 -31 -18 -26 -24 -29 -26 -24
-9 -25 -13 -20 -19 -25 -23 -21
-8 -19 -7 -15 -14 -21 -19 -17
-8 -19 -7 -15 -14 -21 -19 -18
-8 -19 -8 -15 -15 -22 -19 -19
-8 -18 -9 -15 -15 -22 -20 -20
-8 -18 -10 -15 -16 -23 -20 -21
-7 -17 -11 -14 -17 -24 -21 -22
-7 -17 -10 -14 -16 -24 -21 -22
-8 -17 -9 -13 -15 -23 -21 -21
-8 -17 -8 -12 -14 -23 -21 -21
-9 -17 -7 -11 -13 -22 -21 -20
-10 -18 -6 -10 -11 -21 -20 -19
-10 -18 -6 -10 -11 -21 -20 -19
-10 -18 -7 -10 -12 -21 -20 -19
-9 -18 -8 -10 -12 -21 -20 -18
-9 -18 -9 -10 -13 -21 -20 -18
-8 -18 -10 -11 -14 -22 -19 -17
-8 -18 -10 -11 -14 -22 -19 -17
-8 -17 -9 -11 -14 -21 -19 -17
-8 -17 -8 -10 -14 -21 -19 -18
-8 -16 -7 -10 -14 -20 -19 -18
-8 -15 -6 -9 -13 -19 -18 -19
-8 -15 -6 -9 -13 -19 -18 -19
-7 -15 -6 -9 -12 -19 -18 -19
-7 -14 -7 -9 -12 -19 -18 -19
-6 -14 -7 -9 -11 -19 -18 -19
-5 -13 -8 -8 -10 -18 -17 -19
-5 -13 -8 -7 -10 -18 -17 -19
-5 -13 -7 -6 -10 -18 -17 -18
-5 -12 -6 -5 -10 -17 -16 -17
-5 -12 -5 -4 -10 -17 -16 -16
-4 -11 -4 -3 -10 -16 -15 -15
-4 -11 -4 -3 -10 -16 -15 -15
-3 -10 -4 -3 -10 -16 -15 -15
-2 -10 -5 -3 -10 -16 -14 -15
0 -9 -5 -3 -10 -16 -14 -15
1 -8 -6 -2 -9 -16 -13 -15
1 -8 -6 0 -9 -16 -13 -15
1 -8 -5 1 -8 -16 -12 -14
1 -7 -5 2 -7 -16 -11 -14
1 -7 -4 3 -6 -16 -10 -13
0 -6 -3 5 -5 -15 -9 -12
0 -6 -3 5 -5 -15 -9 -12
-2 -7 -4 5 -5 -15 -9 -12
-2 -7 -5 5 -6 -14 -9 -12
-3 -8 -6 5 -6 -14 -9 -12
-4 -9 -7 5 -7 -13 -9 -11
-3 -8 -7 5 -7 -13 -9 -11
0 -7 -7 6 -6 -12 -8 -11
1 -6 -6 7 -6 -11 -8 -10
3 -5 -6 8 -5 -10 -7 -10
5 -3 -5 9 -4 -9 -6 -9
5 -4 -5 9 -4 -9 -6 -9
4 -5 -6 10 -4 -9 -6 -9
3 -7 -7 11 -4 -9 -6 -10
2 -8 -8 12 -4 -9 -6 -10
1 -10 -9 13 -4 -9 -6 -11
3 -8 -9 14 -3 -8 -5 -11
5 -5 -9 15 -2 -6 -4 -10
8 -2 -9 16 1 -4 -2 -9
10 2 -9 17 2 -2 0 -8
13 5 -8 19 4 1 2 -7
13 4 -8 19 4 1 2 -6
13 3 -9 19 4 1 3 -5
13 2 -9 20 4 1 3 -4
13 1 -10 20 4 1 4 -3
12 0 -11 21 4 2 5 -2
12 0 -11 21 4 3 6 -2
12 0 -11 22 5 4 7 -2
13 1 -11 23 6 5 9 -2
13 1 -11 24 7 6 10 -2
14 2 -11 25 8 8 12 0
16 3 -11 25 8 9 13 1
18 5 -12 26 8 10 14 3
19 6 -13 27 9 10 14 4
21 8 -14 28 9 11 15 6
23 9 -14 28 9 12 16 7
24 10 -15 29 10 13 18 9
25 11 -15 29 10 14 19 11
26 12 -15 29 11 15 20 13
27 13 -15 29 11 16 21 15
28 14 -15 29 11 16 22 16
29 15 -16 30 12 17 23 17
30 16 -17 31 12 17 24 18
31 16 -18 31 12 18 25 18
32 17 -19 32 12 18 26 19
33 17 -20 32 12 18 26 19
34 18 -21 33 12 19 27 20
33 18 -21 33 12 20 27 21
33 18 -21 32 12 21 28 21
32 18 -21 32 12 22 28 22
32 18 -21 32 12 23 28 22
31 17 -22 31 13 24 29 23
32 18 -23 31 13 24 30 24
33 18 -24 31 12 23 31 25
34 19 -25 31 12 23 32 26
34 19 -26 31 12 23 32 27
35 20 -27 30 11 22 33 28
36 20 -27 29 11 22 33 28
36 20 -27 28 11 22 33 28
37 20 -27 27 11 22 33 28
37 20 -27 27 11 22 33 28
38 21 -26 26 10 22 34 28
37 22 -26 26 10 21 34 27
36 23 -26 26 10 21 33 26
35 24 -26 26 10 20 33 25
35 24 -26 26 10 20 33 25
34 25 -25 25 9 19 31 24
33 25 -24 25 9 18 30 23
32 25 -22 25 9 17 29 22
31 25 -21 25 9 16 28 21
31 25 -20 25 9 16 27 20
29 26 -19 25 9 15 25 18
27 25 -19 25 9 14 24 17
25 24 -18 25 8 13 22 16
23 23 -18 25 8 12 21 15
21 22 -18 25 8 12 20 14
18 20 -15 24 7 11 18 12
16 19 -13 24 7 10 16 11
13 18 -10 24 7 9 14 9
11 17 -8 24 7 8 12 8
9 16 -6 24 7 8 11 7
7 14 -5 23 8 6 10 5
6 12 -4 22 7 4 9 4
4 10 -4 21 6 3 8 3
3 8 -3 20 5 1 7 2
2 7 -3 20 5 0 6 1
1 6 -2 18 4 -3 4 -2
1 6 -2 17 3 -4 2 -3
1 6 -2 16 2 -6 0 -5
1 6 -2 15 1 -7 -3 -6
1 6 -2 14 0 -8 -5 -7
2 4 0 13 -2 -9 -6 -8
2 3 0 12 -3 -10 -7 -9
1 2 0 11 -4 -11 -7 -10
1 1 0 10 -5 -12 -8 -11
1 0 0 9 -6 -13 -8 -12
-2 -3 -2 8 -7 -14 -9 -13
-3 -4 -2 7 -7 -15 -10 -13
-5 -5 0 7 -7 -15 -10 -14
-6 -6 0 6 -7 -16 -11 -14
-7 -7 0 6 -7 -16 -11 -14
-8 -8 1 5 -7 -17 -12 -15
-8 -8 1 4 -8 -17 -12 -15
-8 -8 0 4 -9 -17 -13 -16
-8 -8 0 3 -10 -17 -13 -16
-8 -8 0 3 -10 -17 -13 -16
-9 -9 -2 2 -11 -18 -14 -17
-10 -9 -2 3 -11 -18 -14 -17
-10 -9 -2 3 -10 -17 -14 -17
-11 -9 -2 4 -10 -17 -14 -17
-11 -9 -2 4 -10 -17 -14 -17
-12 -10 0 5 -9 -16 -15 -17
-12 -11 0 4 -9 -16 -15 -16
-11 -11 0 4 -9 -16 -15 -16
-11 -12 0 3 -9 -16 -15 -15
-11 -12 0 3 -9 -16 -15 -15
-10 -12 -2 2 -10 -17 -14 -14
-10 -11 -2 2 -10 -17 -14 -15
-9 -10 0 2 -10 -17 -14 -16
-9 -9 0 2 -10 -17 -14 -17
-9 -8 0 2 -10 -17 -14 -18
-8 -8 1 1 -9 -16 -13 -19
-9 -10 1 1 -9 -16 -13 -19
-10 -12 0 1 -9 -16 -13 -19
-11 -14 0 1 -9 -16 -13 -19
-12 -16 0 1 -9 -16 -13 -19
-12 -15 -2 1 -10 -17 -14 -19
-10 -12 0 2 -9 -17 -14 -19
-8 -10 0 2 -8 -17 -15 -19
-6 -7 1 3 -7 -17 -15 -19
-4 -5 1 3 -6 -17 -15 -19
-3 -4 2 4 -5 -17 -16 -18
-4 -4 2 4 -6 -17 -16 -18
-5 -4 1 4 -6 -17 -15 -18
-6 -4 1 4 -7 -17 -15 -18
-6 -4 1 4 -7 -17 -15 -18
-7 -5 0 3 -8 -16 -14 -19
-8 -7 0 3 -9 -16 -14 -19
-9 -8 -2 3 -9 -17 -15 -19
-10 -10 -2 3 -10 -17 -15 -19
-11 -11 -2 3 -10 -17 -15 -19
-11 -12 -3 2 -11 -18 -16 -20
-10 -11 -3 2 -11 -18 -15 -20
-8 -11 -3 2 -10 -17 -15 -20
-7 -10 -3 2 -10 -17 -14 -20
-6 -10 -3 2 -10 -17 -14 -20
-5 -9 -3 3 -9 -16 -13 -19
-5 -9 -2 3 -8 -15 -13 -18
-6 -9 -2 3 -7 -14 -12 -17
-6 -9 0 3 -6 -13 -12 -16
-6 -9 0 3 -6 -12 -12 -16
-5 -7 1 4 -5 -11 -11 -15
-3 -5 2 4 -5 -11 -10 -14
0 -4 3 5 -4 -11 -10 -13
3 -2 4 5 -4 -11 -9 -12
5 0 5 5 -4 -11 -9 -12
6 1 6 6 -3 -11 -8 -11
5 1 6 5 -3 -11 -8 -12
4 1 6 4 -4 -12 -9 -12
3 1 6 3 -4 -12 -9 -13
2 1 6 3 -4 -12 -9 -13
2 1 5 2 -5 -12 -10 -14
3 3 4 2 -5 -11 -9 -13
4 4 4 2 -4 -9 -9 -12
5 6 3 2 -4 -8 -8 -11
6 7 3 2 -4 -7 -8 -10
7 8 2 3 -2 -6 -6 -8
8 8 2 3 0 -6 -5 -7
9 8 2 3 2 -6 -4 -5
10 8 2 3 3 -6 -3 -4
10 8 2 3 4 -6 -2 -3
11 9 3 3 4 -5 0 -2
12 10 2 3 3 -5 -2 -2
12 10 2 3 2 -6 -2 -3
13 11 1 3 1 -6 -3 -3
13 11 1 3 0 -6 -3 -3
10 8 0 1 -4 -9 -6 -6
6 2 -2 -2 -6 -12 -9 -10
1 -4 -3 -3 -9 -15 -12 -13
-4 -9 -4 -5 -12 -17 -15 -16
-9 -15 -4 -6 -14 -20 -18 -19
-10 -16 -5 -8 -15 -21 -19 -20
-9 -16 -5 -9 -15 -21 -19 -19
-8 -16 -5 -11 -15 -21 -18 -18
-7 -16 -5 -12 -15 -21 -18 -17
-6 -16 -5 -13 -15 -21 -18 -17
-5 -16 -5 -14 -16 -22 -18 -16
-6 -16 -5 -14 -16 -22 -19 -17
-6 -16 -5 -14 -16 -22 -20 -18
-7 -16 -5 -14 -16 -22 -21 -19
-7 -16 -5 -14 -16 -22 -22 -20
-8 -14 -5 -15 -17 -23 -23 -21
-8 -13 -5 -15 -17 -23 -22 -20
-9 -12 -5 -16 -17 -23 -22 -19
-9 -11 -5 -16 -17 -23 -21 -18
-9 -10 -5 -16 -17 -23 -21 -18
-9 -9 -5 -17 -18 -23 -20 -17
-8 -10 -5 -17 -18 -23 -20 -17
-6 -11 -5 -16 -17 -22 -19 -16
-4 -12 -5 -16 -17 -22 -19 -16
-3 -12 -5 -16 -17 -22 -19 -16
-3 -14 -4 -15 -16 -21 -18 -15
-4 -15 -5 -15 -17 -21 -18 -15
-6 -16 -5 -16 -17 -22 -18 -15
-8 -17 -6 -16 -18 -22 -18 -15
-9 -18 -6 -16 -18 -22 -18 -15
-10 -19 -6 -16 -19 -23 -19 -15
-9 -18 -5 -14 -18 -22 -19 -15
-8 -18 -3 -12 -17 -21 -19 -15
-7 -17 -2 -11 -16 -20 -19 -15
-7 -17 0 -9 -15 -20 -19 -15
-5 -10 6 2 -6 -11 -13 -11
-4 -4 12 13 5 -2 -6 -6
-3 4 18 24 16 8 2 0
-2 11 24 35 26 18 9 5
0 18 30 47 36 27 16 10
5 29 33 55 48 40 29 22
11 39 36 63 59 55 44 35
17 51 39 71 69 69 58 50
23 61 43 79 80 84 72 63
29 72 46 88 92 98 87 76
26 81 48 78 94 104 98 89
22 91 49 65 94 109 108 100
17 100 50 51 95 114 118 111
12 109 52 37 95 118 129 123
7 118 53 24 95 123 139 135
-3 111 43 -3 78 112 130 128
-13 99 29 -31 58 97 115 117
-22 88 15 -60 36 81 102 106
-32 76 2 -89 16 67 88 95
-43 64 -12 -117 -5 52 74 84
-47 42 -24 -130 -25 23 47 60
-51 17 -36 -139 -47 -7 16 34
-54 -8 -48 -147 -67 -37 -15 8
-58 -32 -60 -156 -88 -68 -45 -18
-61 -58 -72 -165 -108 -99 -75 -44
-55 -62 -71 -154 -106 -98 -75 -47
-46 -63 -67 -138 -97 -89 -69 -44
-35 -64 -63 -121 -89 -80 -63 -40
-26 -65 -58 -104 -80 -72 -57 -37
-17 -65 -54 -88 -72 -64 -51 -34
-14 -60 -47 -76 -64 -57 -46 -30
-11 -52 -39 -66 -55 -50 -40 -26
-9 -44 -32 -56 -47 -43 -35 -22
-6 -35 -24 -45 -38 -35 -30 -17
-4 -27 -17 -34 -30 -29 -24 -13
-3 -24 -13 -30 -27 -26 -22 -11
-5 -23 -11 -28 -24 -24 -21 -10
-6 -22 -8 -25 -22 -22 -20 -9
-7 -20 -6 -23 -20 -20 -18 -7
-8 -19 -3 -20 -18 -18 -17 -6
-9 -18 -2 -18 -17 -17 -16 -5
-8 -18 -2 -17 -16 -17 -16 -5
-7 -17 -2 -15 -15 -16 -16 -4
-6 -17 -2 -13 -14 -16 -16 -4
-6 -17 -2 -12 -14 -16 -16 -4
-5 -16 0 -11 -13 -15 -15 -2
-5 -15 1 -11 -13 -14 -14 0
-4 -14 1 -11 -12 -13 -13 1
-4 -13 2 -11 -12 -12 -12 3
-4 -13 2 -11 -12 -11 -11 4
-3 -12 3 -12 -11 -10 -10 5
-3 -12 3 -11 -11 -10 -10 5
-3 -13 3 -11 -11 -10 -10 5
-3 -13 3 -10 -11 -10 -10 5
-3 -13 3 -10 -11 -10 -10 5
-4 -14 4 -9 -10 -10 -9 5
-3 -14 5 -9 -9 -10 -9 5
-3 -14 6 -9 -9 -9 -9 5
-2 -14 7 -9 -8 -9 -9 5
-2 -14 7 -9 -8 -9 -9 5
0 -13 8 -8 -7 -8 -8 6
0 -13 8 -8 -7 -8 -8 5
1 -13 7 -8 -8 -8 -8 4
1 -13 7 -8 -8 -8 -8 3
1 -13 7 -8 -8 -8 -8 2
2 -12 6 -7 -9 -9 -9 1
2 -12 6 -7 -9 -8 -9 3
1 -11 6 -7 -9 -7 -8 4
1 -11 6 -7 -9 -6 -8 5
1 -11 6 -7 -9 -6 -8 6
0 -10 5 -7 -8 -5 -7 7
1 -10 5 -6 -8 -5 -7 7
1 -9 6 -5 -7 -5 -6 7
2 -9 6 -4 -7 -5 -6 7
2 -9 6 -3 -7 -5 -6 7
3 -8 7 -2 -6 -4 -5 8
5 -7 7 -2 -5 -3 -4 9
6 -6 7 -2 -5 -2 -3 10
7 -5 7 -2 -4 0 -2 12
8 -5 7 -2 -4 1 0 13
8 -5 6 -2 -3 2 1 14
7 -6 6 -2 -3 2 1 14
6 -7 5 0 -3 2 1 14
4 -9 5 0 -3 2 1 14
3 -10 5 0 -3 2 1 14
2 -11 4 1 -4 1 0 15
2 -11 4 2 -3 2 1 16
2 -11 5 3 -2 3 2 16
2 -11 5 4 0 4 3 17
2 -11 5 4 0 5 4 17
3 -10 6 5 1 6 5 18
6 -9 5 6 1 6 5 18
8 -7 4 7 1 7 5 18
11 -5 3 8 1 7 5 18
13 -4 3 8 1 7 5 18
14 -3 2 9 2 8 6 18
14 -2 2 9 3 9 7 19
13 -2 2 10 3 10 7 20
13 0 2 10 4 11 8 21
13 0 2 10 4 12 8 21
12 1 2 12 5 14 9 22
13 2 2 13 7 16 11 24
14 2 1 15 8 17 12 25
15 3 1 17 9 19 13 26
15 3 1 18 10 21 14 27
16 4 0 19 11 22 15 28
17 5 -2 19 11 23 16 29
17 5 -2 19 12 23 17 30
18 6 -3 19 12 24 18 31
18 6 -3 19 12 24 19 31
19 7 -4 18 13 25 20 32
21 7 -4 18 13 25 22 33
22 7 -5 19 13 25 23 33
23 7 -5 19 13 25 24 34
24 7 -5 19 13 25 25 34
26 9 -6 21 13 27 28 37
28 12 -6 22 14 30 31 39
30 15 -6 23 15 32 34 43
32 19 -6 25 17 35 37 46
34 22 -6 26 18 37 40 49
35 23 -6 27 19 38 42 50
35 21 -7 27 19 38 42 50
34 20 -8 27 18 38 42 49
34 19 -10 27 18 38 42 49
34 18 -11 27 18 38 42 49
33 18 -12 27 17 38 40 48
33 19 -12 26 17 38 42 50
33 20 -13 26 17 38 43 51
33 22 -13 25 17 38 44 52
33 23 -13 25 17 38 45 53
34 24 -14 24 17 38 46 54
34 22 -15 24 17 38 46 54
33 21 -15 24 17 38 46 55
33 20 -16 24 17 38 46 55
33 19 -16 24 17 38 46 55
32 19 -17 24 16 37 46 56
33 20 -17 23 16 37 46 56
34 22 -16 23 16 38 46 56
35 23 -16 22 16 38 46 56
36 25 -16 22 16 38 46 56
37 26 -15 21 17 39 47 57
36 27 -16 20 16 38 46 56
35 27 -17 19 16 37 45 55
35 28 -17 19 15 37 44 54
34 28 -18 18 15 36 43 53
33 29 -18 17 14 35 42 52
31 28 -15 17 15 34 42 51
30 28 -13 18 15 34 42 51
29 27 -11 18 16 33 42 50
28 27 -8 18 16 33 42 50
25 25 -7 19 17 31 39 48
21 23 -5 19 17 30 37 46
18 20 -4 19 16 28 34 44
14 18 -3 19 16 27 32 42
10 16 -2 19 16 25 30 39
9 15 1 19 15 24 28 38
9 15 2 19 15 22 27 36
10 15 4 18 15 21 26 35
10 15 5 18 15 20 24 34
10 15 7 18 15 19 23 33
11 14 8 17 14 17 21 31
9 13 8 16 12 15 19 29
8 12 8 15 11 12 17 27
7 10 8 14 10 10 15 25
6 9 8 13 9 8 13 23
5 8 8 12 8 7 12 22
5 9 8 11 8 6 11 21
6 9 8 11 7 5 10 20
6 10 8 10 7 5 9 20
6 10 8 10 7 4 8 19
6 9 9 9 6 3 6 18
3 5 9 8 5 2 5 17
1 2 9 7 4 1 4 16
-2 -3 9 6 4 1 2 16
-5 -6 9 5 3 0 1 15
-6 -8 9 4 2 -2 0 13
-8 -9 9 2 0 -3 -2 12
-9 -9 8 1 -2 -4 -2 11
-10 -10 8 0 -3 -5 -3 9
-11 -10 8 -2 -4 -6 -3 8
-11 -11 7 -3 -5 -7 -4 7
-10 -9 7 -2 -4 -7 -3 7
-8 -8 8 -2 -4 -7 -3 8
-7 -7 8 0 -3 -7 -2 8
-5 -6 8 0 -3 -7 -2 8
-4 -5 9 1 -2 -6 0 9
-4 -5 10 1 -2 -6 0 9
-5 -5 10 2 -2 -6 0 9
-5 -5 11 2 -2 -6 0 9
-5 -5 11 2 -2 -6 0 9
-6 -6 12 3 0 -5 -2 8
-6 -6 11 3 0 -5 -2 8
-6 -7 11 3 -2 -5 -2 7
-6 -7 10 3 -2 -5 -2 7
-6 -7 10 3 -2 -5 -2 7
-6 -8 9 3 -3 -5 -3 6
-6 -8 9 3 -3 -5 -3 6
-5 -7 9 3 -2 -6 -4 5
-5 -7 9 3 -2 -6 -4 5
-5 -7 9 3 -2 -6 -4 5
-4 -6 10 4 0 -7 -5 4
-4 -6 10 4 0 -7 -5 4
-4 -6 10 4 0 -7 -5 3
-4 -6 10 4 0 -7 -5 3
-4 -6 10 4 0 -7 -5 3
-4 -5 9 4 -2 -6 -4 2
-5 -5 9 4 0 -6 -4 4
-6 -5 9 5 1 -5 -4 5
-6 -5 9 5 2 -5 -4 6
-7 -5 9 5 3 -5 -4 7
-8 -6 10 6 4 -4 -3 8
-7 -6 10 6 3 -4 -3 7
-6 -6 10 6 3 -4 -3 6
-6 -6 10 6 2 -4 -3 6
-5 -6 10 6 2 -4 -3 5
-4 -7 9 6 1 -5 -4 4
-6 -8 9 5 1 -6 -5 3
-7 -9 8 5 0 -6 -5 2
-8 -9 8 4 0 -7 -6 2
-9 -10 8 4 0 -7 -6 1
-9 -11 7 3 -2 -8 -7 0
-6 -9 7 3 -2 -7 -6 0
-4 -8 7 4 -2 -6 -5 1
0 -7 7 4 -2 -6 -5 1
3 -6 7 4 -2 -5 -4 1
3 -5 7 5 0 -4 -3 2
1 -5 7 5 0 -5 -3 2
-2 -6 7 5 0 -5 -4 1
-4 -6 7 5 0 -6 -4 1
-6 -6 7 5 0 -6 -4 1
-7 -7 6 6 -2 -7 -5 0
-6 -7 7 6 0 -6 -4 2
-6 -7 8 6 1 -5 -4 3
-5 -7 8 6 1 -5 -3 5
-5 -7 9 6 2 -4 -3 6
-3 -6 10 5 3 -3 -2 7
0 -5 10 5 3 -4 -2 6
2 -4 9 5 3 -4 -2 5
5 -4 9 5 3 -5 -2 5
7 -3 9 5 3 -5 -2 4
8 -2 8 5 2 -6 -3 3
8 0 8 6 2 -5 -3 3
7 2 8 7 3 -4 -3 4
7 3 8 8 4 -3 -3 5
7 4 8 9 4 -2 -3 5
6 6 7 10 5 0 -2 6
7 7 7 10 5 0 -2 6
8 9 6 9 6 1 0 6
9 10 5 9 6 1 1 6
10 12 5 9 6 1 1 6
11 13 4 8 7 2 2 5
11 12 4 8 7 2 2 5
11 11 3 7 6 1 2 4
11 10 3 6 5 1 2 4
11 9 3 6 5 1 2 4
10 7 2 5 4 0 1 3
10 6 2 4 3 -2 0 2
9 4 2 2 1 -4 -2 0
9 2 2 1 0 -5 -3 -2
9 0 2 0 -2 -6 -4 -3
7 -3 1 -2 -4 -8 -6 -5
5 -6 1 -3 -5 -10 -8 -7
3 -9 0 -4 -7 -12 -10 -9
0 -12 0 -5 -9 -14 -13 -11
-3 -15 0 -6 -11 -16 -15 -13
-4 -16 -2 -7 -12 -17 -16 -14
-4 -16 -2 -7 -12 -17 -16 -14
-5 -16 -2 -8 -12 -17 -17 -15
-5 -16 -2 -9 -12 -17 -17 -15
-5 -16 -2 -9 -12 -17 -17 -15
-6 -16 -2 -10 -12 -18 -18 -16
-6 -16 -3 -11 -12 -18 -18 -17
-7 -16 -4 -12 -13 -19 -19 -18
-7 -16 -4 -12 -14 -20 -19 -18
-7 -16 -5 -13 -14 -20 -19 -19
-8 -17 -6 -14 -15 -21 -20 -20
-8 -17 -6 -14 -15 -21 -20 -20
-9 -17 -6 -14 -15 -20 -20 -20
-9 -17 -6 -14 -15 -20 -20 -20
-9 -17 -6 -14 -15 -20 -20 -20
-10 -18 -6 -13 -14 -19 -19 -20
-10 -18 -6 -13 -14 -19 -19 -20
-10 -17 -5 -13 -13 -19 -18 -20
-10 -16 -5 -13 -13 -19 -18 -20
-10 -16 -5 -13 -13 -19 -18 -20
-9 -15 -4 -12 -12 -18 -17 -19
-9 -15 -4 -12 -12 -19 -18 -20
-9 -15 -5 -13 -13 -20 -20 -22
-9 -15 -5 -13 -14 -21 -21 -23
-9 -15 -5 -13 -14 -22 -22 -24
-8 -14 -4 -10 -12 -20 -22 -25
-8 -12 1 -2 -5 -15 -20 -24
-7 -10 6 7 2 -10 -17 -23
-6 -8 10 15 8 -5 -15 -23
-6 -5 14 23 14 1 -12 -22
-3 2 18 31 24 11 -4 -15
3 10 22 42 35 24 10 -5
7 18 26 51 47 37 22 6
11 26 30 61 59 51 34 16
16 34 34 70 70 64 48 27
18 46 37 72 77 75 60 38
19 58 38 68 82 85 72 52
20 70 40 65 87 94 85 64
21 84 43 61 91 103 97 77
22 96 45 57 96 112 109 91
17 102 40 35 89 115 114 97
6 105 32 3 73 113 116 101
-5 107 23 -31 58 110 118 104
-16 110 14 -64 43 108 119 107
-26 112 6 -97 27 105 121 110
-35 95 -7 -120 4 77 96 91
-45 63 -22 -139 -25 32 52 54
-53 31 -37 -157 -55 -13 8 17
-61 -2 -52 -176 -83 -58 -36 -20
-69 -33 -67 -194 -112 -103 -80 -57
-69 -49 -73 -194 -123 -118 -96 -72
-61 -54 -74 -180 -121 -113 -92 -72
-53 -58 -75 -165 -119 -108 -88 -72
-45 -63 -76 -150 -117 -103 -82 -72
-36 -68 -77 -136 -115 -98 -78 -72
-29 -67 -73 -120 -107 -90 -72 -70
-23 -62 -65 -105 -94 -79 -66 -65
-17 -58 -57 -91 -80 -70 -59 -60
-12 -53 -48 -75 -67 -61 -52 -55
-6 -48 -39 -60 -54 -51 -45 -50
-3 -44 -33 -50 -45 -45 -40 -47
-5 -41 -28 -45 -39 -40 -37 -45
-6 -39 -23 -38 -34 -37 -34 -41
-8 -37 -18 -32 -29 -33 -31 -39
-9 -34 -13 -27 -24 -29 -28 -36
-10 -32 -10 -23 -21 -27 -26 -35
-9 -29 -9 -21 -20 -26 -25 -34
-7 -26 -7 -19 -19 -25 -24 -32
-6 -23 -6 -17 -19 -24 -24 -31
-5 -21 -5 -15 -18 -23 -23 -30
-4 -19 -4 -14 -17 -22 -22 -29
-4 -18 -4 -14 -17 -22 -22 -29
-4 -17 -4 -14 -16 -22 -22 -30
-4 -16 -4 -14 -16 -22 -22 -30
-4 -15 -4 -14 -16 -22 -22 -30
-4 -14 -5 -14 -15 -21 -22 -31
-2 -14 -4 -14 -15 -21 -22 -31
0 -15 -3 -13 -14 -20 -22 -31
2 -15 -3 -12 -14 -20 -22 -31
3 -15 -2 -12 -14 -20 -22 -31
4 -16 0 -11 -13 -19 -21 -30
4 -14 0 -11 -13 -19 -21 -30
3 -12 0 -11 -12 -18 -20 -29
2 -11 0 -11 -11 -17 -20 -29
2 -9 0 -11 -11 -17 -20 -29
1 -8 1 -12 -10 -16 -19 -28
1 -10 1 -12 -10 -16 -19 -28
0 -12 1 -11 -11 -16 -19 -28
-2 -13 1 -10 -11 -16 -19 -28
-2 -15 1 -10 -11 -16 -19 -28
-3 -16 0 -9 -12 -17 -18 -28
-3 -16 1 -9 -11 -17 -18 -28
-2 -15 2 -9 -10 -16 -18 -28
-2 -15 2 -9 -9 -15 -18 -28
-2 -15 3 -9 -8 -15 -18 -28
0 -14 4 -9 -7 -14 -18 -28
0 -14 4 -8 -7 -14 -18 -28
-2 -14 3 -7 -8 -15 -18 -28
-2 -14 2 -7 -8 -16 -18 -28
-2 -14 2 -6 -8 -16 -18 -28
-3 -14 1 -5 -9 -17 -18 -28
-3 -14 1 -5 -9 -16 -18 -28
-3 -13 1 -5 -9 -15 -17 -27
-3 -12 1 -5 -9 -15 -17 -26
-3 -12 1 -5 -9 -14 -17 -26
-3 -11 2 -4 -8 -13 -16 -25
-3 -11 2 -3 -8 -12 -16 -25
-2 -11 2 0 -7 -11 -15 -24
0 -11 2 1 -6 -11 -14 -24
0 -11 2 2 -6 -10 -14 -24
1 -10 3 3 -5 -9 -13 -23
2 -9 3 3 -4 -8 -13 -23
3 -8 2 4 -3 -6 -12 -23
4 -7 2 4 -2 -5 -12 -23
5 -6 2 4 0 -4 -12 -23
6 -5 1 5 1 -3 -11 -23
6 -5 1 6 1 -3 -11 -23
5 -6 1 7 1 -3 -10 -23
4 -7 1 8 1 -3 -10 -23
4 -7 1 9 1 -3 -10 -23
3 -8 1 10 1 -2 -9 -24
5 -6 1 11 2 0 -8 -24
7 -4 1 12 3 1 -7 -23
9 -3 1 12 4 2 -6 -22
11 0 1 13 5 3 -5 -22
12 1 2 14 6 4 -4 -21
12 3 1 15 6 6 -2 -20
12 4 0 17 7 8 0 -19
12 5 0 18 8 9 1 -18
12 7 -2 19 8 11 3 -17
13 8 -3 20 9 12 4 -16
13 7 -3 20 10 12 5 -16
12 6 -2 21 11 13 6 -16
12 5 -2 22 11 14 7 -16
12 4 -2 22 12 14 8 -16
12 3 0 23 13 15 9 -15
14 3 0 25 13 17 10 -14
16 3 -2 26 14 19 12 -13
18 3 -3 27 14 20 13 -12
20 3 -3 29 14 22 14 -11
21 4 -4 30 15 23 15 -10
21 5 -4 30 16 25 17 -9
21 7 -5 30 17 26 18 -7
21 8 -6 30 18 27 19 -6
21 9 -6 30 19 29 21 -5
20 10 -7 31 20 30 22 -4
22 11 -7 32 20 31 23 -3
24 12 -7 33 20 32 24 -2
26 13 -7 34 20 32 24 0
28 14 -7 35 20 33 25 1
29 16 -8 36 20 34 26 2
29 18 -9 36 21 35 26 3
30 20 -10 35 22 36 27 4
30 22 -11 35 23 37 28 4
30 24 -12 35 24 38 28 5
31 25 -13 34 25 39 29 6
31 24 -14 34 23 39 30 6
31 23 -15 33 22 38 31 7
31 23 -16 32 21 38 31 7
31 22 -17 32 19 38 32 7
30 21 -18 31 18 37 33 8
30 22 -18 31 18 37 33 8
30 24 -18 31 18 37 33 9
30 25 -18 31 18 37 33 9
30 26 -18 31 18 37 33 9
30 27 -19 31 18 37 33 10
30 27 -19 30 18 37 33 10
31 28 -19 29 17 36 32 10
31 28 -19 29 17 35 31 10
31 28 -19 28 17 35 31 10
32 29 -18 27 16 34 30 10
30 28 -17 27 16 32 30 10
28 27 -16 27 16 31 29 9
26 27 -16 27 16 30 29 8
24 26 -15 27 16 28 29 8
23 25 -14 27 16 27 27 6
23 25 -13 26 15 25 25 4
22 25 -12 25 14 23 22 2
21 25 -11 24 14 21 19 0
21 25 -10 23 13 19 17 -3
20 25 -9 22 12 18 15 -4
18 23 -7 21 12 17 13 -6
16 20 -6 21 12 16 12 -7
14 17 -4 20 12 15 11 -8
12 15 -2 19 12 14 9 -10
11 13 0 18 12 13 8 -11
9 12 1 18 12 11 6 -12
8 11 1 17 11 9 5 -13
6 9 2 16 10 7 3 -15
4 8 3 16 10 5 1 -16
3 7 4 15 9 4 0 -17
3 7 4 13 8 3 -3 -18
3 7 5 12 7 2 -4 -18
3 7 6 11 6 1 -5 -19
3 7 6 9 5 0 -7 -20
2 6 7 8 4 -2 -8 -21
1 4 7 7 2 -4 -10 -22
0 3 6 6 1 -6 -11 -23
-3 1 5 4 -2 -8 -13 -25
-4 -2 5 3 -4 -10 -15 -26
-5 -3 4 2 -5 -12 -16 -27
-6 -3 4 2 -5 -12 -16 -27
-6 -3 4 2 -5 -12 -16 -27
-7 -3 5 1 -5 -12 -16 -27
-8 -3 5 1 -5 -12 -16 -27
-9 -3 6 0 -4 -11 -17 -28
-9 -5 6 -2 -5 -12 -17 -28
-9 -7 6 -2 -5 -12 -18 -28
-9 -10 5 -3 -6 -13 -19 -29
-9 -12 5 -4 -7 -14 -19 -29
-9 -14 4 -5 -8 -15 -20 -30
-8 -13 4 -5 -8 -15 -20 -30
-7 -12 4 -5 -8 -15 -20 -30
-5 -10 4 -5 -8 -15 -20 -30
-4 -9 4 -5 -8 -15 -20 -30
-3 -8 5 -4 -7 -14 -19 -29
-3 -8 5 -4 -7 -14 -19 -29
-3 -8 5 -3 -7 -14 -19 -29
-4 -7 5 -2 -7 -14 -19 -28
-4 -7 5 -2 -7 -14 -19 -28
-5 -6 6 0 -6 -13 -18 -27
-7 -6 6 0 -6 -13 -18 -27
-8 -7 6 0 -6 -13 -18 -27
-9 -8 6 0 -6 -13 -18 -27
-11 -8 6 0 -6 -13 -18 -27
-12 -9 6 -2 -5 -12 -19 -28
-11 -9 6 -2 -5 -12 -19 -28
-10 -8 6 -2 -5 -12 -18 -28
-8 -7 5 0 -5 -12 -17 -28
-7 -7 5 0 -5 -12 -17 -28
-6 -6 4 1 -6 -13 -16 -27
-6 -6 4 1 -5 -13 -16 -27
-6 -6 4 1 -5 -13 -16 -26
-6 -6 5 1 -4 -13 -16 -25
-6 -6 5 1 -3 -13 -16 -25
-5 -5 6 1 -2 -12 -17 -24
-6 -6 6 1 -2 -12 -17 -24
-6 -7 6 1 -2 -12 -17 -24
-7 -8 6 1 -2 -12 -17 -25
-8 -9 6 1 -2 -12 -17 -25
-9 -10 5 1 -3 -11 -17 -26
-9 -10 6 1 -3 -11 -17 -25
-9 -10 6 1 -3 -11 -16 -24
-9 -10 7 1 -2 -10 -15 -23
-9 -10 8 1 -2 -10 -15 -22
-8 -9 9 1 0 -9 -14 -21
-8 -9 8 1 -2 -9 -14 -21
-8 -9 7 1 -3 -10 -14 -21
-8 -9 5 1 -4 -11 -14 -21
-8 -9 4 1 -5 -11 -14 -21
-9 -10 3 2 -6 -12 -14 -20
-7 -8 4 2 -5 -11 -14 -20
-6 -7 4 2 -4 -10 -14 -20
-4 -6 5 3 -2 -9 -14 -20
-2 -4 6 3 0 -8 -14 -20
0 -3 7 4 1 -7 -14 -19
-2 -3 7 4 1 -7 -14 -18
-3 -3 7 4 1 -7 -13 -18
-4 -4 7 4 1 -8 -12 -17
-5 -4 7 4 1 -8 -12 -16
-6 -5 6 3 0 -9 -11 -15
-6 -5 6 3 0 -9 -11 -15
-5 -5 6 3 0 -9 -11 -15
-4 -5 6 3 0 -9 -11 -14
-4 -5 6 3 0 -9 -11 -14
-3 -3 6 3 0 -8 -10 -13
0 0 6 4 1 -8 -10 -13
2 3 6 5 1 -8 -10 -13
4 5 7 6 2 -7 -10 -13
6 8 7 7 3 -7 -10 -13
8 10 8 8 4 -6 -9 -12
9 10 7 7 4 -6 -9 -11
9 10 6 7 4 -6 -8 -10
10 10 5 6 5 -5 -7 -9
11 10 4 5 5 -5 -7 -8
12 10 3 4 6 -4 -6 -7
11 10 3 4 5 -4 -6 -7
9 10 2 4 5 -4 -6 -7
8 9 1 4 4 -5 -6 -7
6 9 1 4 3 -5 -6 -7
5 8 0 3 2 -6 -6 -7
5 8 0 2 1 -7 -7 -7
5 8 0 2 1 -7 -7 -7
5 8 0 1 0 -8 -8 -7
5 8 0 0 -2 -9 -9 -7
5 6 0 -2 -3 -10 -10 -8
4 4 0 -3 -4 -11 -11 -9
3 1 0 -4 -6 -13 -12 -11
1 -3 0 -5 -7 -14 -13 -12
0 -6 0 -6 -9 -16 -14 -14
-2 -8 -2 -7 -10 -17 -15 -15
-3 -9 -2 -8 -10 -17 -15 -15
-4 -10 -2 -8 -10 -17 -15 -15
-6 -11 -2 -9 -11 -18 -16 -15
-7 -12 -2 -10 -11 -18 -16 -15
-8 -13 -3 -11 -12 -19 -17 -16
-9 -13 -3 -11 -12 -19 -17 -16
-9 -14 -3 -12 -13 -19 -17 -16
-10 -15 -4 -13 -14 -20 -18 -16
-11 -15 -4 -13 -14 -20 -18 -16
-12 -16 -5 -14 -15 -21 -19 -15
-12 -16 -5 -14 -15 -21 -19 -15
-12 -16 -5 -14 -15 -21 -19 -15
-12 -16 -5 -14 -15 -21 -19 -15
-12 -16 -5 -14 -15 -21 -19 -15
-11 -16 -4 -14 -14 -20 -19 -14
-11 -16 -4 -14 -14 -20 -19 -14
-12 -16 -4 -14 -14 -20 -19 -14
-13 -17 -4 -14 -14 -20 -19 -14
-13 -17 -4 -14 -14 -20 -19 -14
-14 -18 -5 -13 -14 -20 -20 -14
-13 -17 -5 -13 -14 -20 -20 -14
-12 -16 -5 -13 -14 -20 -20 -15
-11 -14 -5 -14 -14 -20 -20 -16
-10 -13 -5 -14 -14 -20 -20 -16
-9 -12 -5 -13 -13 -21 -21 -17
-8 -12 -3 -8 -11 -19 -21 -17
-7 -12 1 -3 -8 -17 -21 -17
-6 -11 3 4 -5 -15 -20 -17
-5 -11 6 9 -2 -13 -20 -17
-4 -8 9 16 5 -8 -16 -14
-4 0 14 26 15 4 -9 -9
-4 7 18 35 26 14 0 -3
-3 14 22 45 36 24 8 3
-3 20 27 55 48 34 16 9
0 29 31 62 58 47 26 18
3 40 34 67 68 59 42 32
7 53 38 72 78 72 57 47
10 64 42 77 89 86 72 62
13 75 45 82 99 99 87 76
14 87 47 74 103 108 99 89
7 96 44 45 92 108 107 98
0 106 39 15 81 108 114 107
-8 115 35 -14 71 108 122 117
-15 126 32 -44 61 108 130 127
-23 122 22 -73 44 96 122 122
-32 97 4 -100 15 61 88 95
-41 70 -16 -128 -14 26 54 67
-51 45 -34 -155 -43 -9 19 39
-60 18 -54 -183 -71 -43 -15 12
-65 -4 -67 -197 -92 -68 -40 -10
-61 -17 -71 -189 -99 -78 -52 -20
-57 -31 -75 -180 -105 -89 -62 -31
-52 -46 -79 -172 -112 -99 -73 -43
-48 -60 -83 -162 -118 -109 -83 -54
-43 -68 -85 -150 -119 -112 -89 -60
-36 -65 -77 -133 -107 -101 -81 -56
-30 -62 -70 -114 -96 -90 -73 -52
-24 -59 -63 -97 -83 -78 -66 -48
-17 -56 -56 -79 -71 -67 -59 -44
-13 -51 -49 -64 -61 -58 -53 -39
-12 -45 -41 -56 -53 -52 -47 -34
-12 -38 -35 -48 -45 -45 -41 -30
-11 -32 -28 -38 -36 -38 -35 -26
-10 -26 -22 -30 -28 -32 -30 -21
-9 -22 -17 -24 -23 -27 -26 -18
-9 -20 -15 -21 -21 -26 -25 -18
-8 -18 -13 -18 -20 -25 -24 -17
-7 -16 -11 -16 -18 -23 -23 -16
-7 -15 -10 -13 -17 -22 -22 -16
-6 -13 -8 -11 -15 -21 -21 -15
-6 -13 -8 -10 -14 -21 -21 -15
-6 -14 -8 -8 -14 -20 -20 -15
-6 -15 -7 -7 -13 -19 -19 -14
-6 -15 -7 -5 -12 -19 -19 -14
-7 -16 -6 -4 -11 -18 -18 -13
-7 -16 -6 -4 -11 -18 -18 -13
-8 -15 -6 -4 -11 -18 -18 -13
-9 -14 -5 -4 -11 -17 -18 -12
-9 -14 -5 -4 -11 -17 -18 -12
-10 -13 -4 -4 -12 -16 -17 -11
-9 -12 -3 -3 -11 -16 -17 -11
-7 -12 -3 -2 -10 -16 -17 -11
-6 -11 -2 0 -8 -16 -17 -11
-4 -10 0 1 -7 -16 -17 -11
-3 -9 1 2 -6 -16 -16 -11
-3 -8 1 2 -6 -16 -16 -11
-3 -7 1 2 -6 -15 -15 -10
-3 -6 1 2 -6 -14 -14 -9
-3 -5 1 2 -6 -14 -14 -9
-3 -4 0 3 -7 -13 -13 -8
-4 -6 0 3 -7 -13 -13 -8
-4 -8 0 3 -7 -13 -13 -8
-5 -10 -2 3 -7 -13 -13 -9
-6 -11 -2 3 -7 -13 -13 -9
-7 -13 -3 3 -8 -12 -14 -10
-7 -13 -3 3 -8 -12 -14 -10
-6 -13 -3 3 -8 -12 -14 -10
-5 -12 -3 3 -8 -13 -14 -9
-5 -12 -3 3 -8 -13 -14 -9
-4 -11 -3 4 -8 -14 -14 -8
-4 -10 -2 6 -6 -13 -12 -6
-4 -10 0 7 -4 -11 -11 -4
-3 -9 1 9 -3 -10 -9 -3
-3 -8 3 10 0 -8 -8 0
-2 -7 4 12 2 -7 -6 2
-2 -7 4 12 2 -7 -6 2
-2 -7 3 12 1 -7 -6 2
-2 -7 3 11 1 -7 -6 2
-2 -7 2 11 0 -7 -6 2
-3 -7 1 10 -2 -7 -6 1
-2 -7 1 11 0 -6 -6 1
-2 -7 1 12 0 -6 -6 1
0 -7 1 13 1 -5 -5 1
1 -7 1 14 2 -4 -5 1
2 -7 1 15 3 -3 -4 2
2 -6 1 15 3 -2 -3 2
2 -5 1 15 3 0 -2 2
3 -4 1 16 4 1 0 3
3 -2 1 16 4 2 1 3
4 0 0 17 5 3 2 4
4 0 0 18 6 4 2 4
4 0 0 19 7 6 3 4
4 0 0 20 8 7 3 4
4 0 0 22 10 9 4 4
5 -2 -2 23 11 10 5 4
5 0 -2 23 11 10 6 5
6 1 -2 24 11 11 6 6
6 2 -2 24 11 11 7 7
7 3 -2 25 11 12 8 8
8 4 -3 26 11 13 9 9
11 5 -3 28 12 14 10 9
13 6 -3 29 13 15 11 10
15 7 -3 31 14 16 12 10
18 9 -3 32 16 17 13 11
20 10 -3 34 17 18 14 12
20 11 -3 35 17 20 16 14
20 12 -3 35 17 22 19 17
20 13 -4 36 18 23 21 19
20 14 -4 37 18 25 23 21
19 15 -5 38 19 27 25 23
19 15 -5 38 20 27 25 23
19 14 -6 38 20 27 25 23
19 14 -6 38 21 27 25 24
19 13 -7 38 22 27 25 24
19 12 -8 38 23 28 25 25
20 13 -9 38 23 29 26 26
20 13 -9 38 23 30 27 26
21 14 -10 37 23 31 28 27
22 15 -11 37 23 32 30 28
23 16 -12 36 23 33 31 29
23 16 -12 36 24 34 33 30
24 17 -12 36 24 36 34 32
24 17 -13 37 25 37 36 33
25 18 -13 37 26 39 37 35
26 19 -14 38 27 40 39 36
28 20 -14 38 27 40 39 37
30 21 -14 37 26 40 39 37
31 22 -15 37 26 40 39 38
33 23 -15 36 25 40 39 39
35 24 -16 35 24 40 40 40
34 24 -16 35 24 40 40 40
33 24 -17 35 24 40 40 42
32 25 -17 34 24 40 42 42
31 25 -18 34 24 40 42 43
30 26 -19 33 24 39 43 44
31 27 -19 32 23 39 43 44
32 27 -19 32 23 39 43 44
33 28 -19 31 22 39 43 44
34 29 -19 30 21 39 43 44
35 30 -19 29 20 38 43 43
34 30 -18 29 20 37 42 43
33 30 -17 29 20 36 40 42
32 31 -16 28 20 35 39 42
30 31 -15 28 20 33 38 40
29 32 -14 27 19 32 37 39
27 32 -13 27 19 31 36 38
25 32 -12 27 19 29 34 36
24 32 -11 26 18 28 33 35
22 32 -10 26 18 27 32 34
20 32 -9 25 17 25 30 32
19 29 -7 25 17 24 28 30
17 26 -5 25 17 24 26 28
16 23 -3 25 17 23 24 27
15 21 0 25 17 22 22 25
13 18 2 25 18 21 20 23
13 18 3 24 17 19 18 22
13 18 4 23 16 17 16 21
12 18 5 22 15 15 15 20
12 18 6 21 14 13 13 18
11 18 7 20 13 11 11 17
7 16 7 18 12 9 9 14
4 14 7 16 12 7 7 12
1 11 7 15 11 6 5 9
-3 9 7 13 10 4 3 6
-6 7 7 11 9 2 1 4
-6 6 7 10 8 1 1 4
-6 5 7 9 6 0 1 4
-6 4 6 8 5 -2 0 3
-6 3 6 7 4 -3 0 3
-5 2 5 6 2 -4 -2 2
-5 2 5 6 2 -4 -3 1
-4 2 5 6 2 -5 -3 1
-4 3 6 6 1 -5 -4 0
-3 3 6 6 1 -6 -5 -2
-2 4 7 5 0 -7 -6 -3
-3 3 7 4 0 -7 -6 -3
-4 1 7 3 0 -7 -7 -3
-5 -2 7 2 -2 -8 -7 -4
-6 -3 7 1 -2 -8 -8 -4
-7 -5 7 0 -3 -9 -9 -5
-7 -5 7 0 -3 -9 -9 -5
-7 -5 7 0 -3 -9 -9 -5
-8 -5 7 0 -3 -9 -10 -5
-8 -5 7 0 -3 -9 -10 -5
-9 -6 8 1 -2 -9 -11 -6
-9 -5 8 1 -2 -9 -11 -6
-9 -4 8 1 -2 -9 -11 -6
-9 -3 8 1 -3 -9 -11 -6
-9 -2 8 1 -3 -9 -11 -6
-9 0 7 1 -4 -10 -12 -7
-9 0 7 1 -4 -10 -12 -7
-9 -2 7 2 -4 -10 -12 -7
-9 -2 7 2 -3 -10 -12 -7
-9 -3 7 3 -3 -10 -12 -7
-9 -4 6 4 -2 -9 -11 -7
-10 -5 6 4 -3 -10 -11 -8
-11 -7 6 4 -4 -11 -12 -9
-12 -9 5 3 -5 -12 -13 -10
-14 -10 5 3 -6 -13 -14 -12
-15 -12 4 2 -7 -14 -15 -13
-13 -10 5 2 -6 -13 -14 -12
-11 -7 6 3 -4 -11 -13 -11
-10 -5 7 4 -3 -10 -12 -10
-8 -2 8 5 -2 -9 -11 -9
-6 1 9 6 1 -7 -10 -8
-6 1 9 6 1 -7 -10 -8
-6 1 9 6 1 -7 -10 -8
-5 1 9 6 1 -7 -11 -8
-5 1 9 6 1 -7 -11 -8
-4 2 9 6 0 -8 -12 -9
-4 2 9 6 0 -8 -12 -9
-5 1 9 6 0 -8 -12 -10
-5 0 9 6 0 -8 -12 -10
-6 -2 9 6 0 -8 -12 -11
-7 -3 8 6 0 -9 -12 -12
-7 -3 8 6 0 -9 -12 -12
-7 -3 8 6 0 -9 -12 -12
-7 -4 7 6 -2 -9 -12 -12
-7 -4 7 6 -2 -9 -12 -12
-6 -5 6 5 -3 -9 -11 -11
-6 -5 6 5 -3 -9 -12 -12
-7 -6 6 4 -4 -10 -13 -13
-7 -7 5 4 -4 -11 -14 -14
-8 -8 5 3 -5 -12 -15 -16
-9 -9 4 2 -6 -13 -16 -17
-8 -8 4 2 -6 -13 -16 -16
-6 -7 5 2 -6 -13 -16 -15
-5 -6 5 2 -5 -12 -15 -14
-4 -5 6 2 -5 -12 -15 -13
-2 -4 7 2 -4 -11 -14 -12
-2 -4 7 2 -4 -11 -14 -12
-2 -4 7 2 -4 -11 -14 -12
-3 -5 7 2 -4 -11 -13 -12
-3 -5 7 2 -4 -11 -13 -12
-4 -6 6 2 -5 -10 -12 -12
-4 -6 6 2 -5 -10 -12 -11
-4 -5 6 2 -5 -9 -12 -10
-4 -4 6 2 -4 -9 -11 -9
-4 -3 6 2 -4 -8 -11 -8
-3 -2 7 2 -3 -7 -10 -7
-2 0 7 2 -3 -7 -10 -7
0 1 7 2 -3 -7 -10 -7
1 2 7 2 -3 -8 -10 -7
2 3 7 2 -3 -8 -10 -7
3 4 8 2 -2 -9 -11 -8
5 4 8 2 -2 -9 -11 -8
8 5 8 3 -2 -9 -11 -8
10 5 7 3 -2 -9 -11 -9
13 6 7 4 -2 -9 -11 -9
15 7 6 5 -3 -9 -11 -10
15 8 6 5 -3 -8 -11 -9
14 9 5 5 -2 -7 -10 -8
14 10 5 5 0 -6 -9 -7
13 11 4 5 1 -5 -8 -6
12 12 3 6 2 -4 -7 -5
11 11 3 6 2 -4 -7 -5
10 10 3 6 2 -4 -6 -5
9 9 3 6 2 -4 -5 -4
8 7 3 6 2 -4 -4 -4
7 6 3 5 3 -3 -3 -3
8 6 3 4 2 -3 -4 -3
10 6 2 3 1 -4 -5 -4
11 6 1 2 0 -5 -6 -5
12 6 0 1 -3 -6 -7 -6
14 7 -2 0 -4 -7 -8 -7
11 4 -2 -3 -6 -9 -10 -9
8 1 -2 -4 -7 -11 -12 -10
4 -4 -2 -6 -9 -13 -14 -12
1 -7 -2 -8 -11 -16 -17 -14
-3 -10 0 -10 -13 -18 -19 -16
-4 -11 0 -10 -13 -18 -19 -16
-5 -12 -2 -10 -13 -18 -19 -16
-6 -13 -2 -11 -14 -19 -20 -16
-7 -15 -3 -11 -14 -19 -20 -16
-8 -16 -4 -12 -15 -20 -21 -17
-8 -16 -4 -12 -15 -20 -21 -17
-8 -15 -4 -12 -15 -20 -21 -17
-8 -15 -4 -13 -15 -20 -20 -16
-8 -14 -4 -13 -15 -20 -20 -16
-7 -13 -3 -14 -16 -19 -19 -15
-7 -13 -3 -14 -16 -19 -19 -15
-8 -13 -3 -14 -16 -19 -20 -16
-9 -14 -4 -14 -16 -19 -20 -16
-10 -14 -4 -14 -16 -19 -21 -17
-11 -15 -5 -14 -15 -20 -22 -18
-10 -15 -5 -14 -15 -20 -22 -18
-9 -15 -5 -14 -15 -20 -22 -18
-8 -15 -4 -14 -15 -20 -22 -18
-7 -15 -4 -14 -15 -20 -22 -18
-5 -15 -3 -13 -14 -20 -21 -17
-5 -15 -3 -13 -14 -20 -21 -17
-6 -15 -3 -13 -14 -20 -21 -17
-6 -15 -3 -13 -14 -20 -21 -17
-7 -15 -3 -13 -14 -20 -21 -17
-8 -15 -4 -14 -15 -20 -22 -17
-7 -15 0 -8 -11 -17 -21 -17
-5 -15 3 -2 -8 -14 -20 -17
-4 -15 5 5 -4 -12 -19 -16
-3 -15 8 11 0 -9 -18 -16
0 -15 11 17 5 -5 -16 -14
2 -3 16 28 17 9 -6 -6
4 9 21 39 29 21 5 3
6 21 26 50 42 33 16 11
8 33 30 61 54 46 26 19
10 45 35 71 66 58 37 29
12 55 37 72 74 70 52 43
14 65 39 73 84 81 66 57
16 74 42 74 92 94 79 71
18 85 44 75 100 106 94 86
20 94 46 74 107 116 107 99
14 100 40 46 96 116 114 106
9 105 35 18 86 115 120 113
4 110 30 -10 74 115 127 120
-3 116 26 -37 64 114 133 128
-9 119 19 -65 51 108 134 131
-18 103 2 -91 21 70 95 99
-27 86 -17 -117 -9 32 56 67
-36 69 -35 -143 -38 -6 17 35
-47 53 -53 -169 -68 -44 -22 4
-55 35 -69 -191 -94 -77 -57 -24
-51 14 -72 -182 -98 -85 -62 -31
-47 -8 -75 -173 -102 -91 -67 -38
-41 -29 -78 -163 -106 -98 -72 -46
-37 -51 -81 -154 -110 -104 -77 -53
-33 -70 -85 -144 -113 -109 -82 -60
-29 -68 -77 -129 -102 -98 -75 -56
-25 -65 -70 -112 -92 -88 -68 -52
-20 -63 -63 -97 -80 -76 -62 -47
-16 -61 -56 -80 -69 -65 -55 -43
-12 -58 -49 -65 -59 -55 -49 -38
-12 -51 -41 -57 -51 -49 -44 -34
-11 -45 -34 -49 -43 -43 -38 -30
-10 -38 -27 -40 -35 -36 -34 -25
-9 -31 -20 -32 -27 -30 -29 -21
-8 -25 -14 -24 -20 -24 -24 -17
-8 -24 -13 -23 -20 -24 -24 -17
-8 -22 -12 -22 -19 -24 -24 -17
-8 -21 -11 -20 -18 -23 -23 -16
-8 -19 -10 -19 -17 -23 -23 -16
-7 -17 -9 -17 -16 -22 -22 -15
-7 -17 -8 -16 -15 -21 -22 -15
-6 -17 -7 -15 -14 -20 -21 -15
-6 -17 -5 -13 -12 -19 -20 -15
-5 -17 -4 -12 -11 -18 -19 -15
-4 -16 -2 -10 -9 -16 -18 -14
-4 -15 -2 -10 -9 -16 -18 -14
-3 -14 -2 -10 -9 -16 -18 -13
-2 -13 -2 -10 -9 -15 -17 -12
0 -12 -2 -10 -9 -15 -17 -11
1 -11 -3 -10 -9 -14 -16 -10
1 -11 -3 -10 -9 -14 -16 -10
0 -11 -3 -9 -8 -14 -16 -10
0 -11 -2 -9 -7 -14 -15 -9
-2 -11 -2 -8 -6 -14 -15 -9
-3 -10 0 -7 -5 -13 -14 -8
-3 -10 0 -7 -6 -13 -14 -8
-3 -10 -2 -8 -7 -13 -14 -9
-3 -10 -3 -9 -8 -13 -14 -9
-3 -10 -4 -10 -9 -13 -14 -10
-3 -11 -5 -11 -10 -13 -15 -11
-3 -11 -4 -11 -10 -13 -15 -11
-3 -11 -3 -10 -9 -13 -15 -11
-4 -10 -2 -9 -8 -13 -15 -11
-4 -10 0 -8 -7 -13 -15 -11
-5 -9 1 -7 -6 -13 -15 -12
-4 -9 1 -7 -6 -13 -15 -12
-2 -9 1 -7 -6 -13 -15 -12
0 -9 1 -7 -6 -12 -14 -11
2 -9 1 -7 -6 -12 -14 -11
4 -10 0 -7 -6 -11 -13 -10
4 -10 0 -7 -6 -11 -13 -10
4 -10 0 -7 -6 -11 -13 -9
4 -9 0 -6 -6 -11 -13 -9
4 -9 0 -6 -6 -11 -13 -8
3 -8 -2 -5 -5 -12 -13 -7
3 -8 -2 -5 -5 -12 -13 -7
3 -7 -2 -5 -5 -12 -13 -7
3 -6 -2 -5 -5 -12 -12 -7
3 -5 -2 -5 -5 -12 -12 -7
4 -4 -2 -6 -5 -11 -11 -6
4 -4 -2 -5 -5 -11 -11 -6
4 -5 -2 -4 -4 -10 -11 -6
4 -5 -2 -3 -4 -10 -11 -6
4 -6 -2 -2 -3 -9 -11 -6
5 -7 -2 0 -2 -8 -10 -5
7 -5 -2 0 0 -6 -8 -4
9 -2 0 1 1 -4 -6 -2
11 2 0 2 2 -2 -4 0
13 4 1 3 3 1 -2 2
15 7 2 4 5 3 2 4
15 6 2 4 5 3 2 4
14 4 2 5 5 3 2 3
13 3 2 5 6 4 2 3
12 1 2 6 6 4 2 2
11 -2 1 7 7 5 3 1
11 0 1 7 7 5 3 1
11 2 1 7 7 6 3 1
12 3 0 8 7 6 3 2
12 5 0 8 7 7 3 2
13 7 -2 9 8 8 4 3
13 7 -2 10 9 9 5 4
14 7 -2 11 10 10 7 5
14 7 -2 13 12 11 9 7
15 7 -2 14 13 12 11 8
16 6 0 16 15 14 13 10
16 6 0 16 15 14 13 11
17 6 -2 16 15 15 13 12
17 6 -3 16 15 16 14 13
18 6 -4 16 15 17 14 14
19 7 -5 16 15 18 15 16
20 9 -5 17 16 19 17 17
21 11 -5 18 17 21 19 18
23 13 -5 20 19 23 21 20
24 15 -5 21 20 25 23 21
26 18 -4 23 22 27 25 23
25 18 -5 23 21 27 25 23
24 18 -6 22 20 27 25 23
23 18 -7 21 19 27 25 23
22 18 -8 20 18 27 25 23
21 17 -10 19 17 26 26 24
24 17 -10 19 18 26 27 25
28 18 -10 20 19 27 29 26
31 19 -10 20 20 27 30 27
35 20 -10 21 21 28 32 28
39 21 -11 22 22 29 34 29
39 21 -11 22 22 29 34 30
38 22 -11 22 22 30 34 31
38 22 -12 22 21 31 35 32
37 23 -12 22 21 32 35 33
36 24 -13 21 20 33 36 35
37 25 -13 21 20 33 36 35
38 27 -13 21 20 33 36 35
40 29 -13 21 20 33 36 35
42 31 -13 21 20 33 36 35
44 33 -14 21 20 33 37 35
44 33 -14 20 20 33 37 35
43 33 -15 19 19 32 37 35
42 33 -16 17 18 31 36 34
40 33 -17 16 17 30 36 34
39 33 -18 14 16 29 35 33
38 33 -18 14 16 29 35 33
37 33 -17 15 16 29 35 33
36 32 -16 15 17 29 34 33
35 32 -15 16 17 29 34 33
34 31 -14 17 18 28 33 32
33 31 -13 17 18 28 33 32
31 31 -11 17 18 27 32 31
30 31 -10 16 18 26 31 30
28 31 -8 16 18 25 30 29
26 31 -6 15 17 24 29 28
24 29 -6 15 17 23 27 26
22 27 -5 15 16 21 25 24
20 25 -5 15 16 19 23 22
18 23 -4 15 15 17 21 20
16 20 -3 15 14 15 18 18
15 20 -3 15 14 14 17 17
14 19 -2 14 13 13 15 16
13 19 0 13 13 11 13 14
12 18 1 12 12 10 11 13
10 17 2 11 11 8 9 11
9 16 3 10 11 7 8 9
8 14 4 9 11 6 6 7
7 12 5 8 10 4 4 4
6 10 6 7 10 3 2 2
5 8 7 6 9 1 0 -2
3 7 7 4 7 -2 -2 -2
1 6 6 2 5 -4 -3 -3
-2 5 6 0 3 -6 -4 -4
-4 4 5 -3 1 -8 -5 -5
-7 2 4 -5 -3 -11 -6 -6
-6 2 4 -5 -2 -11 -6 -6
-5 3 5 -4 0 -10 -6 -6
-3 3 5 -4 1 -10 -6 -6
-2 4 6 -3 2 -9 -6 -6
1 5 7 -2 3 -8 -6 -6
1 4 7 -3 2 -8 -7 -7
1 3 7 -4 1 -9 -8 -8
1 2 6 -5 0 -10 -9 -9
1 1 6 -6 -2 -11 -10 -10
1 -2 5 -7 -4 -12 -12 -11
0 -3 5 -7 -4 -12 -12 -11
-2 -4 5 -7 -4 -13 -12 -12
-3 -5 5 -7 -5 -14 -13 -12
-4 -6 5 -7 -5 -15 -13 -13
-6 -7 4 -7 -6 -16 -14 -14
-6 -7 4 -7 -6 -16 -14 -14
-6 -6 4 -7 -6 -15 -13 -14
-5 -5 5 -7 -6 -15 -13 -13
-5 -4 5 -7 -6 -14 -12 -13
-5 -4 5 -7 -6 -14 -12 -13
-4 -3 6 -6 -5 -13 -11 -12
-4 -4 6 -6 -5 -13 -11 -12
-5 -5 5 -5 -5 -13 -12 -12
-5 -6 5 -5 -5 -13 -12 -12
-5 -6 5 -5 -5 -13 -12 -12
-6 -7 4 -4 -5 -14 -13 -13
-6 -7 4 -4 -5 -14 -12 -13
-7 -7 5 -4 -5 -14 -12 -12
-7 -7 5 -4 -5 -14 -11 -12
-7 -7 5 -4 -5 -14 -11 -12
-8 -6 6 -3 -4 -13 -10 -11
-8 -6 6 -3 -4 -13 -10 -11
-8 -6 6 -2 -3 -13 -11 -12
-8 -6 6 -2 -3 -13 -11 -12
-8 -6 6 -2 -3 -13 -11 -12
-8 -5 5 0 -2 -14 -12 -13
-8 -6 5 0 -2 -14 -12 -13
-7 -6 5 -2 -3 -14 -12 -13
-7 -7 5 -2 -3 -14 -12 -13
-7 -7 5 -2 -3 -14 -12 -13
-6 -8 4 -3 -4 -14 -12 -14
-5 -7 4 -3 -4 -14 -12 -14
-4 -6 4 -2 -4 -14 -12 -14
-3 -5 4 -2 -4 -14 -12 -14
-3 -5 4 -2 -4 -14 -12 -14
-2 -5 4 0 -3 -14 -13 -14
-3 -6 4 0 -4 -15 -13 -14
-4 -7 3 -2 -5 -16 -13 -15
-5 -8 3 -2 -6 -17 -13 -15
-5 -9 3 -2 -6 -17 -13 -15
-6 -9 2 -3 -7 -18 -14 -16
-5 -7 2 -3 -7 -18 -14 -16
-5 -5 2 -2 -6 -18 -14 -16
-4 -3 2 -2 -6 -18 -14 -16
-4 0 2 -2 -6 -18 -14 -16
-3 -2 3 0 -5 -17 -15 -17
-4 -4 3 0 -5 -17 -15 -16
-4 -7 3 0 -5 -16 -14 -16
-5 -9 3 0 -5 -16 -14 -15
-5 -11 3 0 -5 -16 -14 -15
-6 -12 4 0 -5 -15 -13 -14
-6 -11 4 0 -5 -15 -13 -14
-6 -10 4 0 -5 -15 -13 -14
-6 -9 4 0 -5 -15 -13 -14
-6 -9 4 0 -5 -15 -13 -14
-6 -8 3 0 -5 -16 -13 -14
-6 -7 3 0 -6 -16 -13 -14
-5 -6 2 -2 -6 -16 -14 -14
-5 -5 2 -2 -7 -16 -14 -14
-5 -5 2 -2 -7 -16 -14 -14
-4 -4 1 -3 -8 -17 -15 -15
-3 -4 1 -3 -7 -16 -14 -15
-2 -4 1 -2 -7 -16 -14 -15
0 -4 1 -2 -6 -15 -13 -15
1 -4 1 -2 -6 -15 -13 -15
2 -3 2 0 -5 -14 -12 -14
1 -3 2 0 -5 -14 -12 -14
0 -3 3 0 -5 -14 -12 -14
-2 -3 3 0 -5 -14 -12 -14
-2 -3 3 0 -5 -14 -12 -14
-2 1 4 0 -5 -14 -13 -13
1 4 4 0 -4 -13 -12 -12
3 7 3 1 -4 -13 -12 -12
5 10 3 1 -3 -12 -11 -11
7 13 3 1 -3 -12 -11 -11
8 13 2 2 -2 -10 -9 -9
8 11 1 3 0 -9 -7 -7
8 10 1 4 1 -8 -6 -6
8 8 0 5 2 -7 -4 -4
8 7 0 5 2 -6 -3 -3
8 6 -2 6 3 -5 -2 -2
9 7 -2 5 2 -6 -3 -2
10 8 -2 4 1 -6 -4 -3
11 9 -2 3 0 -7 -5 -3
12 9 -2 3 -2 -7 -6 -3
11 7 -3 1 -4 -10 -8 -5
8 3 -4 -2 -6 -12 -10 -7
5 -2 -5 -4 -8 -14 -12 -9
2 -6 -6 -6 -10 -16 -14 -11
0 -10 -6 -7 -12 -18 -15 -12
-2 -11 -7 -8 -13 -19 -16 -14
-3 -11 -7 -9 -13 -20 -17 -15
-4 -12 -7 -10 -14 -21 -18 -16
-5 -12 -7 -11 -14 -22 -19 -17
-6 -12 -7 -11 -14 -23 -20 -18
-7 -13 -6 -12 -15 -24 -21 -19
-7 -12 -5 -12 -15 -23 -20 -18
-8 -12 -5 -11 -15 -22 -20 -18
-8 -11 -4 -11 -15 -21 -19 -17
-8 -11 -4 -11 -15 -21 -19 -17
-9 -11 -3 -10 -14 -20 -18 -17
-10 -12 -4 -11 -15 -21 -19 -18
-11 -13 -5 -11 -16 -22 -20 -19
-12 -14 -6 -12 -17 -23 -21 -20
-13 -15 -6 -12 -17 -24 -22 -21
-13 -14 -7 -13 -18 -25 -23 -22
-11 -12 -7 -13 -18 -24 -22 -21
-9 -9 -7 -13 -17 -24 -21 -20
-7 -7 -7 -13 -17 -23 -20 -19
-5 -5 -7 -13 -17 -23 -20 -18
-5 -5 -6 -14 -16 -22 -19 -17
-7 -7 -6 -13 -16 -22 -18 -16
-9 -9 -6 -13 -15 -21 -18 -16
-11 -11 -6 -12 -15 -21 -17 -15
-13 -13 -6 -12 -15 -21 -17 -15
-14 -14 -5 -11 -14 -20 -16 -14
-14 -14 -5 -11 -14 -20 -16 -15
-13 -14 -5 -11 -15 -21 -17 -15
-13 -14 -5 -11 -15 -21 -17 -16
-13 -14 -5 -11 -15 -21 -17 -16
-11 -11 0 -3 -8 -16 -14 -14
-8 -6 6 9 2 -8 -10 -11
-6 1 12 20 11 0 -5 -7
-4 6 18 31 20 7 0 -3
-2 11 24 42 30 15 5 1
3 20 27 52 40 28 17 11
7 30 29 61 52 42 29 22
12 40 32 70 63 56 43 33
16 51 35 79 74 70 56 45
20 61 37 89 85 84 68 56
21 69 40 82 88 91 79 68
20 77 44 73 90 97 91 80
19 86 47 65 92 103 102 93
18 94 49 56 94 110 113 105
17 103 52 47 95 116 123 117
9 103 44 21 84 112 123 118
0 101 32 -6 70 106 120 117
-9 99 21 -33 57 100 117 116
-18 97 10 -61 43 93 115 115
-27 95 -2 -89 29 87 112 114
-34 66 -16 -107 2 50 74 84
-43 35 -31 -124 -27 9 33 49
-50 5 -46 -143 -56 -32 -8 15
-58 -27 -61 -160 -85 -73 -50 -19
-66 -58 -75 -179 -113 -114 -91 -54
-60 -63 -76 -168 -112 -112 -91 -57
-51 -65 -73 -151 -106 -104 -85 -54
-41 -67 -71 -136 -100 -96 -78 -52
-32 -68 -69 -120 -93 -88 -72 -50
-24 -70 -67 -104 -87 -79 -66 -48
-19 -65 -60 -91 -77 -71 -59 -43
-15 -57 -52 -77 -67 -62 -53 -37
-11 -50 -44 -64 -57 -53 -46 -32
-7 -41 -35 -51 -47 -44 -38 -26
-3 -33 -27 -37 -36 -35 -31 -21
-2 -30 -23 -32 -31 -31 -28 -18
-3 -27 -20 -28 -28 -28 -25 -15
-4 -24 -16 -23 -24 -25 -22 -12
-5 -21 -13 -19 -21 -23 -20 -10
-5 -18 -9 -15 -17 -20 -17 -7
-6 -17 -8 -13 -16 -19 -16 -6
-7 -17 -7 -11 -16 -19 -16 -6
-7 -16 -7 -10 -16 -19 -16 -6
-8 -16 -6 -8 -16 -19 -16 -6
-8 -16 -6 -7 -16 -19 -16 -6
-9 -15 -4 -6 -14 -17 -15 -5
-8 -15 -3 -5 -13 -16 -14 -4
-7 -15 -2 -4 -12 -15 -13 -3
-6 -15 0 -3 -11 -14 -12 -2
-6 -15 1 -3 -10 -13 -11 -2
-5 -14 2 -2 -9 -12 -10 0
-5 -14 2 -2 -9 -12 -10 1
-5 -14 1 -2 -9 -12 -10 1
-5 -14 1 -2 -9 -12 -10 2
-5 -14 1 -2 -9 -12 -10 2
-6 -14 0 -2 -10 -12 -10 3
-6 -14 0 -2 -10 -12 -10 3
-5 -14 0 -2 -9 -11 -10 3
-5 -14 0 -2 -9 -11 -10 3
-5 -14 0 -2 -9 -11 -10 3
-4 -14 1 0 -8 -10 -10 2
-4 -13 1 1 -8 -10 -10 2
-3 -12 1 2 -8 -10 -10 2
-3 -11 1 3 -8 -10 -10 2
-3 -10 1 3 -8 -10 -10 2
-2 -9 2 4 -8 -9 -9 3
-2 -9 2 4 -8 -9 -9 3
-2 -9 2 4 -8 -9 -9 3
-2 -9 2 4 -8 -9 -9 3
-2 -9 2 4 -8 -9 -9 3
-2 -9 3 3 -7 -10 -10 4
-2 -9 3 3 -7 -9 -9 5
-2 -9 3 3 -7 -8 -8 6
-2 -9 3 3 -7 -7 -7 7
-2 -9 3 3 -7 -6 -7 8
1 -8 4 5 -6 -5 -5 10
3 -5 5 6 -5 -4 -4 11
5 -3 5 7 -4 -3 -3 13
6 0 6 9 -3 -2 0 15
8 2 6 10 -3 0 1 16
8 2 7 11 -2 1 2 17
7 0 6 11 -2 1 2 17
6 -3 6 11 -2 1 2 17
4 -5 5 11 -2 1 2 17
3 -7 5 11 -2 1 2 17
2 -8 4 10 -3 1 2 17
2 -8 4 11 -2 2 3 17
3 -7 4 11 0 3 4 18
3 -7 4 12 1 4 5 18
3 -7 4 12 1 5 6 18
5 -6 4 14 2 6 7 19
6 -5 4 15 3 7 8 19
8 -4 4 16 4 7 8 19
10 -3 4 18 5 8 9 19
11 -3 4 19 5 8 9 19
12 -2 3 20 6 9 10 20
12 0 2 20 6 10 10 20
12 1 2 19 6 10 10 20
12 2 1 19 6 11 10 20
12 2 1 19 6 11 10 20
13 3 0 18 6 12 9 21
13 3 0 19 6 14 10 21
13 2 0 19 7 15 11 22
13 2 0 20 7 16 12 22
13 2 0 20 7 17 12 22
14 1 -2 22 9 19 14 23
15 2 -2 23 10 20 16 24
16 3 -2 24 11 21 18 25
17 4 -2 26 13 23 19 26
18 4 -2 27 14 24 21 27
19 5 -2 28 15 25 22 29
19 6 -3 28 15 25 23 30
19 7 -3 29 15 26 23 32
19 8 -4 29 15 26 24 34
19 8 -4 29 15 26 24 35
20 9 -5 30 15 28 26 37
21 10 -5 31 17 29 29 39
23 11 -5 32 18 30 31 43
25 12 -5 33 19 32 34 45
26 13 -5 34 20 33 36 47
27 14 -6 35 21 34 37 48
29 14 -6 36 21 35 38 49
30 13 -6 36 22 36 38 49
31 13 -6 37 22 37 39 50
32 13 -6 37 22 38 39 50
33 13 -7 38 23 39 40 51
33 16 -8 38 23 39 42 52
33 18 -9 37 22 39 42 53
33 21 -10 37 22 39 43 54
33 23 -11 37 22 39 43 55
32 24 -12 36 21 39 44 56
34 25 -12 36 21 39 45 57
35 26 -12 36 21 39 45 57
36 27 -12 36 21 39 46 58
37 27 -12 36 21 39 46 58
38 29 -12 36 20 40 47 59
38 30 -13 35 20 40 47 59
38 31 -14 34 20 40 47 60
38 33 -15 33 20 40 47 60
38 34 -16 32 20 40 47 60
37 34 -17 31 19 42 47 61
36 33 -16 31 19 42 47 60
35 32 -15 31 19 42 47 59
34 30 -14 31 19 42 47 58
34 29 -14 31 19 42 47 58
31 28 -13 31 18 40 46 57
28 28 -13 31 18 39 45 55
26 28 -13 31 18 38 43 54
23 28 -13 31 18 37 40 53
20 28 -13 31 18 37 39 52
19 28 -12 31 18 35 38 51
18 26 -10 31 18 34 37 50
18 25 -8 31 18 32 36 50
17 24 -7 31 18 30 35 49
17 23 -5 31 18 29 34 49
16 22 -3 30 19 28 32 47
15 22 -2 29 19 26 31 46
14 22 0 29 18 25 29 45
13 22 2 28 18 24 27 43
12 22 3 28 18 23 26 42
11 21 4 27 17 21 24 39
11 20 5 26 16 20 23 38
11 18 6 26 16 19 21 36
11 16 7 25 15 17 19 34
11 15 8 25 15 16 18 33
10 14 9 23 13 14 16 31
7 13 9 21 12 12 14 29
5 12 8 20 10 10 13 27
2 11 8 18 8 8 11 25
0 11 8 16 7 6 9 23
-2 9 7 15 6 5 8 22
-3 8 7 14 6 5 7 21
-3 7 8 14 6 4 6 20
-4 5 8 13 6 4 5 19
-4 4 8 13 6 4 5 19
-5 2 9 12 5 3 4 18
-7 1 9 11 4 2 3 17
-8 -2 9 10 3 1 2 17
-9 -4 9 9 2 0 1 16
-10 -5 9 9 2 -2 1 16
-11 -6 8 8 1 -3 0 15
-10 -6 8 8 1 -3 0 14
-9 -6 8 8 1 -3 -2 14
-8 -6 8 8 1 -3 -2 13
-8 -6 8 8 1 -3 -2 13
-7 -5 9 9 0 -4 -3 12
-7 -5 9 9 0 -4 -3 12
-7 -5 9 9 0 -4 -3 12
-7 -5 9 9 0 -4 -3 12
-7 -5 9 9 0 -4 -3 12
-7 -4 10 9 0 -4 -3 11
-7 -4 10 9 0 -4 -3 12
-7 -5 10 9 0 -4 -3 12
-7 -5 10 9 0 -4 -3 13
-7 -5 10 9 0 -4 -3 13
-6 -6 9 9 1 -5 -2 14
-8 -6 9 9 1 -5 -3 13
-9 -7 9 8 1 -6 -3 12
-10 -7 9 8 1 -6 -4 12
-11 -7 9 8 1 -6 -4 11
-12 -8 8 7 0 -7 -5 10
-11 -7 8 8 0 -6 -5 10
-10 -6 8 9 1 -6 -4 10
-9 -5 8 9 1 -5 -4 10
-8 -4 8 10 1 -5 -4 10
-7 -3 9 11 2 -4 -3 10
-6 -2 9 10 2 -4 -4 9
-5 0 9 10 1 -5 -4 9
-4 1 9 9 1 -5 -5 8
-3 2 9 9 1 -5 -5 8
-3 2 8 8 0 -6 -6 7
-5 -2 8 8 0 -6 -6 7
-6 -4 8 9 0 -5 -6 7
-8 -6 8 9 0 -5 -6 7
-10 -9 8 9 0 -5 -6 7
-11 -10 8 10 0 -4 -6 6
-11 -9 8 9 0 -4 -6 6
-10 -8 8 9 0 -4 -6 6
-10 -7 8 8 0 -4 -6 6
-10 -6 8 8 0 -4 -6 6
-9 -6 8 7 0 -4 -6 5
-9 -8 8 7 0 -4 -6 5
-9 -9 8 7 0 -4 -6 5
-9 -11 8 7 0 -4 -6 5
-9 -13 8 7 0 -4 -6 5
-10 -13 8 7 -2 -4 -6 5
-9 -12 8 7 -2 -4 -6 5
-8 -11 8 7 -2 -4 -6 5
-8 -9 8 7 -2 -4 -6 5
-7 -8 8 7 -2 -4 -6 5
-6 -8 8 7 0 -5 -5 5
-7 -9 8 7 0 -5 -5 5
-7 -10 8 6 -2 -5 -5 4
-8 -12 8 6 -2 -5 -5 4
-8 -13 8 6 -2 -5 -5 4
-9 -14 7 5 -3 -6 -6 3
-9 -14 7 4 -4 -7 -7 2
-10 -13 6 3 -5 -8 -7 1
-10 -13 6 2 -5 -8 -8 1
-10 -13 6 1 -6 -9 -8 0
-11 -12 5 0 -7 -10 -9 -2
-11 -12 5 1 -7 -10 -9 -2
-10 -12 4 1 -7 -10 -9 -2
-10 -12 4 2 -7 -10 -9 -2
-10 -12 4 2 -7 -10 -9 -2
-8 -10 3 3 -8 -10 -8 -3
-5 -6 5 4 -6 -9 -8 -2
-2 -3 6 4 -5 -9 -7 -2
1 2 7 5 -3 -8 -7 0
4 5 8 5 -2 -8 -7 0
4 6 9 6 0 -7 -6 1
2 5 8 6 -2 -7 -6 1
0 3 8 5 -2 -8 -6 0
-3 2 7 5 -3 -8 -6 0
-5 0 7 5 -3 -8 -6 0
-5 -2 6 4 -4 -9 -7 -2
-3 -2 6 4 -3 -8 -6 0
0 0 5 5 -2 -7 -5 1
3 0 5 5 0 -6 -4 1
5 0 5 5 1 -5 -3 2
6 1 4 6 2 -4 -2 3
6 3 4 7 3 -3 0 3
5 4 4 7 4 -3 1 4
5 6 4 8 4 -2 1 4
5 7 4 8 5 -2 2 4
4 8 3 9 6 0 3 5
5 8 3 8 6 0 2 5
5 8 4 7 5 -2 2 4
6 8 4 7 5 -2 1 4
6 8 4 6 5 -2 1 4
7 7 5 4 3 -4 -2 2
6 6 3 2 0 -7 -5 0
5 4 2 1 -3 -9 -7 -3
4 3 1 -2 -6 -12 -9 -6
3 1 0 -4 -9 -15 -12 -8
1 -3 -2 -5 -10 -16 -13 -9
-3 -7 -2 -6 -11 -17 -14 -10
-5 -11 -2 -7 -11 -18 -15 -11
-8 -15 -2 -7 -12 -18 -15 -12
-11 -18 -2 -8 -12 -19 -16 -13
-12 -20 -2 -9 -13 -20 -17 -14
-12 -19 -3 -9 -14 -20 -18 -16
-11 -18 -3 -10 -14 -21 -18 -17
-11 -17 -4 -10 -15 -21 -19 -19
-11 -16 -4 -10 -15 -21 -19 -20
-10 -15 -5 -11 -16 -22 -20 -21
-10 -15 -5 -11 -15 -21 -19 -19
-10 -14 -4 -11 -15 -21 -19 -18
-10 -14 -4 -11 -14 -20 -18 -17
-10 -14 -4 -11 -14 -20 -18 -16
-11 -13 -3 -11 -13 -19 -17 -15
-11 -13 -3 -11 -13 -20 -18 -16
-10 -13 -4 -11 -14 -20 -18 -17
-10 -13 -4 -11 -14 -21 -19 -18
-10 -13 -4 -11 -14 -21 -19 -19
-10 -14 -5 -11 -15 -22 -20 -20
-12 -15 -5 -11 -15 -22 -20 -20
-14 -16 -5 -12 -15 -22 -20 -21
-16 -16 -5 -12 -15 -22 -20 -21
-18 -17 -5 -12 -15 -22 -20 -21
-19 -18 -5 -13 -15 -23 -19 -22
-18 -18 -5 -12 -15 -23 -19 -22
-17 -18 -5 -11 -15 -23 -19 -23
-17 -18 -5 -11 -15 -23 -19 -23
-16 -18 -5 -10 -15 -23 -19 -23
-15 -15 -3 -3 -10 -19 -17 -23
-13 -11 3 7 -3 -13 -14 -22
-12 -7 9 16 6 -7 -11 -20
-10 -4 14 25 14 0 -8 -18
-9 1 20 34 22 6 -5 -16
-6 8 23 44 31 17 5 -9
-2 16 26 52 43 30 17 1
3 25 28 60 53 44 28 11
7 33 31 68 64 56 40 21
11 43 34 77 74 69 53 30
12 52 37 75 79 77 64 42
11 62 40 68 80 84 75 54
9 72 45 60 82 90 87 66
7 81 49 52 85 96 98 78
5 92 52 44 87 101 109 91
-2 96 46 19 76 103 112 96
-10 97 33 -14 59 101 110 96
-19 98 21 -48 42 99 108 95
-27 99 8 -80 24 96 105 94
-36 100 -5 -114 7 94 103 94
-44 81 -19 -136 -16 64 75 71
-50 52 -33 -150 -43 19 34 36
-57 21 -48 -165 -69 -26 -7 3
-64 -9 -62 -180 -96 -71 -48 -31
-70 -39 -76 -194 -122 -116 -89 -66
-69 -54 -80 -190 -130 -129 -101 -78
-61 -59 -78 -174 -123 -121 -95 -77
-54 -64 -76 -157 -117 -113 -90 -75
-47 -69 -73 -141 -111 -106 -83 -74
-38 -74 -71 -124 -106 -99 -78 -73
-33 -72 -66 -110 -97 -91 -72 -70
-28 -66 -59 -96 -86 -81 -65 -66
-23 -60 -53 -82 -74 -72 -59 -61
-19 -53 -46 -68 -63 -63 -53 -57
-14 -47 -38 -54 -52 -54 -47 -53
-12 -40 -32 -46 -45 -48 -41 -50
-12 -35 -26 -38 -39 -43 -38 -47
-12 -30 -21 -32 -33 -38 -35 -44
-12 -25 -15 -26 -28 -34 -31 -40
-12 -20 -10 -20 -22 -29 -28 -37
-12 -18 -7 -17 -20 -27 -26 -35
-12 -18 -7 -15 -20 -27 -26 -35
-11 -18 -6 -14 -19 -27 -25 -35
-11 -18 -5 -12 -19 -27 -25 -35
-11 -18 -5 -11 -19 -27 -25 -35
-10 -18 -4 -10 -18 -27 -24 -35
-10 -18 -4 -10 -18 -26 -24 -35
-10 -18 -4 -10 -17 -25 -24 -35
-10 -18 -4 -10 -17 -25 -24 -35
-10 -18 -4 -10 -17 -24 -24 -35
-9 -19 -4 -10 -16 -23 -23 -34
-9 -19 -4 -10 -16 -23 -23 -34
-9 -18 -4 -10 -16 -23 -23 -34
-9 -17 -4 -10 -16 -23 -23 -34
-9 -17 -4 -10 -16 -23 -23 -34
-9 -16 -3 -9 -15 -23 -23 -34
-8 -16 -2 -8 -14 -22 -22 -34
-7 -15 0 -7 -13 -21 -21 -33
-7 -14 0 -6 -12 -20 -21 -32
-6 -14 1 -5 -11 -19 -20 -32
-5 -13 2 -4 -10 -18 -19 -31
-5 -13 2 -4 -10 -18 -19 -31
-6 -14 1 -4 -11 -19 -19 -31
-6 -14 0 -4 -12 -20 -19 -31
-6 -14 0 -4 -12 -20 -19 -31
-7 -15 -2 -5 -13 -21 -19 -32
-6 -15 -2 -5 -12 -21 -18 -32
-4 -15 -2 -4 -11 -20 -17 -31
-3 -15 -2 -4 -11 -19 -17 -31
-2 -15 -2 -4 -10 -19 -16 -31
0 -14 0 -3 -9 -18 -15 -30
-2 -14 0 -3 -9 -18 -15 -30
-3 -13 0 -3 -10 -18 -16 -30
-4 -13 0 -3 -11 -18 -17 -30
-5 -13 0 -3 -11 -18 -17 -30
-6 -12 -2 -3 -12 -18 -18 -31
-6 -12 -2 -3 -11 -18 -18 -31
-6 -12 -2 -3 -10 -18 -17 -31
-6 -12 -2 -3 -10 -18 -17 -31
-6 -12 -2 -3 -9 -18 -17 -31
-5 -11 0 -3 -8 -17 -16 -30
-5 -11 0 0 -8 -15 -15 -30
-5 -10 0 1 -7 -14 -13 -29
-5 -10 0 3 -6 -12 -12 -28
-5 -10 0 4 -6 -11 -11 -28
-3 -9 1 5 -5 -10 -10 -27
-2 -8 1 5 -4 -9 -9 -27
1 -7 1 6 -3 -7 -8 -26
3 -6 1 6 -2 -6 -7 -25
5 -5 1 6 0 -5 -6 -25
6 -4 1 7 1 -4 -5 -24
5 -5 -2 7 1 -4 -5 -26
3 -6 -3 7 0 -5 -6 -27
2 -6 -5 7 -2 -6 -7 -29
1 -7 -6 7 -2 -6 -7 -30
0 -8 -7 6 -3 -7 -8 -31
0 -8 -6 6 -3 -6 -8 -30
1 -7 -5 7 -2 -4 -7 -29
1 -6 -4 8 0 -3 -7 -29
1 -6 -3 8 0 -2 -7 -28
2 -5 -2 10 1 1 -5 -26
2 -4 -2 11 3 2 -4 -25
3 -3 -3 13 4 4 -2 -23
3 -3 -3 15 6 6 1 -21
3 -2 -3 17 7 8 3 -19
4 0 -4 18 8 9 4 -18
6 1 -4 18 9 9 4 -18
8 2 -4 19 10 10 5 -17
9 2 -4 20 10 10 6 -16
11 3 -4 20 11 10 6 -16
12 5 -5 22 12 12 8 -14
13 6 -5 23 13 14 11 -12
15 8 -5 25 15 17 14 -10
16 10 -5 27 16 19 17 -8
17 12 -5 29 17 21 19 -5
18 13 -4 30 18 23 21 -4
18 12 -5 30 18 23 21 -4
19 10 -6 30 18 23 21 -4
20 9 -6 30 18 23 21 -4
20 8 -7 30 18 23 21 -4
21 8 -8 31 19 24 21 -5
22 11 -9 31 19 25 22 -4
24 14 -10 32 19 27 24 -2
25 17 -10 32 19 28 25 0
26 20 -11 32 19 29 26 1
27 22 -12 33 20 30 27 2
27 22 -12 33 20 30 28 3
28 21 -13 33 20 31 29 4
28 20 -13 33 20 31 29 4
28 20 -13 33 20 31 30 5
29 19 -14 34 21 32 31 6
29 19 -15 33 21 32 32 7
28 20 -16 32 21 33 33 8
28 20 -17 32 21 33 33 9
28 20 -18 31 21 33 34 10
27 21 -19 30 20 34 35 11
27 21 -19 30 20 34 35 11
27 21 -19 30 20 34 35 11
27 21 -19 30 20 34 35 11
27 21 -19 30 20 34 35 11
27 22 -18 30 19 34 35 12
27 22 -18 30 19 34 35 13
27 23 -18 29 19 34 35 14
27 24 -18 29 19 34 35 14
27 24 -18 29 19 34 35 15
26 25 -19 28 18 33 35 16
26 25 -18 28 18 32 34 15
25 26 -17 28 18 30 33 14
25 27 -17 28 18 29 33 13
25 27 -16 28 18 28 32 12
24 28 -15 27 18 27 31 11
22 27 -13 27 18 26 29 9
20 25 -11 26 17 25 27 8
18 24 -10 26 17 24 26 7
16 23 -8 26 17 23 24 5
15 22 -7 25 16 21 22 4
13 21 -6 25 16 19 20 2
11 20 -4 25 15 17 18 0
10 20 -3 25 14 15 16 -2
8 19 -2 25 14 13 14 -4
7 18 0 24 13 12 12 -5
7 17 1 23 13 11 11 -6
7 15 2 22 13 10 10 -7
7 14 2 21 13 9 9 -8
7 13 3 20 13 8 8 -9
5 12 4 18 12 6 6 -10
3 10 4 16 10 4 4 -12
1 8 4 14 9 2 2 -14
-2 6 4 12 8 0 0 -15
-4 4 4 10 6 -3 -3 -17
-6 3 5 9 5 -4 -5 -18
-6 2 5 8 3 -6 -6 -19
-6 0 4 7 2 -7 -8 -21
-6 -2 4 6 1 -8 -9 -22
-6 -3 4 5 -2 -10 -10 -23
-7 -4 3 4 -3 -11 -11 -24
-8 -4 3 4 -3 -11 -11 -24
-9 -4 4 3 -3 -11 -11 -24
-9 -4 5 3 -3 -11 -11 -24
-10 -4 5 3 -3 -11 -11 -24
-11 -4 6 2 -4 -12 -12 -25
-11 -5 6 2 -4 -12 -12 -25
-11 -6 5 1 -5 -12 -12 -25
-11 -6 4 1 -5 -12 -12 -25
-11 -7 4 1 -5 -12 -12 -25
-10 -8 3 0 -6 -12 -13 -25
-10 -9 3 0 -6 -12 -14 -25
-11 -10 3 -2 -6 -13 -15 -26
-12 -10 3 -2 -6 -14 -16 -27
-12 -11 3 -2 -6 -14 -17 -27
-13 -11 2 -3 -7 -15 -18 -28
-12 -9 3 -2 -7 -15 -17 -28
-11 -7 4 1 -6 -14 -16 -27
-10 -5 4 2 -5 -13 -15 -26
-9 -3 5 3 -5 -13 -14 -26
-8 -2 6 4 -4 -12 -13 -25
-8 -3 6 4 -4 -12 -13 -25
-9 -5 6 4 -4 -11 -13 -24
-10 -6 6 4 -4 -11 -13 -23
-10 -7 6 4 -4 -11 -13 -23
-11 -8 6 3 -4 -10 -12 -22
-11 -8 6 3 -4 -10 -12 -22
-10 -8 7 4 -3 -10 -12 -22
-10 -8 7 4 -3 -10 -12 -22
-10 -8 7 4 -3 -10 -12 -22
-9 -8 8 5 -2 -11 -12 -22
-9 -8 8 5 -2 -11 -12 -22
-9 -8 8 5 -2 -11 -12 -22
-10 -8 8 5 -2 -11 -12 -22
-10 -8 8 5 -2 -11 -12 -22
-11 -8 7 5 -2 -10 -13 -23
-11 -10 7 5 -2 -10 -13 -23
-11 -11 7 5 -2 -10 -13 -23
-11 -13 7 4 -3 -10 -13 -22
-11 -15 7 4 -3 -10 -13 -22
-11 -16 6 3 -4 -11 -14 -21
-12 -14 6 2 -4 -11 -14 -22
-12 -13 5 2 -5 -11 -15 -23
-13 -12 4 1 -6 -12 -16 -25
-14 -10 4 0 -6 -12 -16 -26
-15 -9 3 -2 -7 -13 -17 -27
-15 -11 3 -2 -7 -13 -17 -26
-14 -12 3 -2 -7 -13 -17 -26
-13 -13 3 -2 -7 -13 -17 -25
-13 -15 3 -2 -7 -13 -17 -24
-12 -16 4 -2 -6 -13 -16 -23
-10 -14 4 -2 -6 -13 -16 -23
-9 -12 4 -2 -6 -12 -16 -23
-8 -10 5 0 -6 -11 -16 -23
-6 -8 5 0 -6 -11 -16 -23
-5 -6 6 1 -7 -10 -15 -22
-6 -6 6 0 -7 -11 -15 -22
-6 -7 6 -2 -7 -11 -15 -22
-7 -8 5 -3 -7 -12 -16 -22
-8 -8 5 -4 -7 -13 -16 -22
-9 -9 4 -5 -8 -14 -17 -21
-10 -11 4 -5 -8 -14 -17 -21
-11 -12 3 -5 -8 -14 -17 -21
-12 -13 2 -6 -8 -15 -18 -21
-13 -15 2 -6 -8 -15 -18 -21
-14 -16 1 -7 -9 -16 -19 -22
-13 -16 1 -7 -9 -16 -19 -22
-12 -16 1 -7 -9 -16 -19 -21
-10 -16 1 -7 -9 -16 -19 -20
-9 -16 1 -7 -9 -16 -19 -20
-8 -15 2 -6 -9 -16 -18 -19
-7 -13 2 -6 -9 -15 -17 -19
-7 -11 2 -6 -8 -14 -16 -19
-6 -9 3 -6 -7 -13 -15 -18
-5 -7 3 -6 -7 -12 -14 -18
-4 -6 4 -5 -6 -11 -13 -17
-4 -4 4 -5 -6 -11 -13 -16
-4 -3 5 -5 -6 -11 -13 -15
-3 -2 6 -4 -5 -11 -13 -14
-3 1 6 -4 -5 -11 -13 -13
-2 2 7 -3 -4 -10 -13 -12
-3 0 7 -3 -4 -10 -13 -12
-3 -2 7 -3 -4 -10 -13 -13
-4 -3 7 -3 -4 -10 -13 -14
-5 -5 7 -3 -4 -10 -13 -14
-6 -5 6 -2 -5 -10 -13 -15
-4 -3 6 -2 -4 -9 -12 -13
-2 0 5 -2 -4 -8 -11 -11
1 2 4 -2 -3 -7 -9 -9
3 4 4 -2 -2 -6 -8 -7
4 6 3 0 0 -5 -7 -6
4 6 3 0 0 -5 -7 -6
4 6 3 0 0 -5 -7 -6
4 6 3 0 1 -5 -7 -6
4 6 3 0 1 -5 -7 -6
4 7 2 1 2 -4 -6 -5
4 7 2 1 2 -4 -6 -5
5 7 2 1 2 -4 -6 -4
6 8 3 1 1 -4 -6 -3
6 8 3 1 1 -4 -6 -3
7 8 4 0 -2 -4 -6 -2
5 3 3 -3 -4 -7 -8 -5
4 -2 2 -5 -6 -9 -10 -7
2 -7 1 -7 -9 -11 -12 -9
0 -11 0 -8 -11 -13 -13 -11
-2 -14 -2 -10 -13 -15 -15 -13
-4 -14 -2 -10 -13 -15 -15 -13
-5 -13 -2 -10 -13 -15 -16 -13
-7 -12 -2 -10 -13 -16 -17 -14
-9 -12 -2 -10 -13 -16 -17 -14
-10 -11 0 -10 -12 -17 -18 -15
-10 -12 0 -10 -12 -17 -18 -15
-9 -13 0 -10 -12 -17 -18 -15
-8 -15 0 -10 -12 -17 -18 -15
-8 -16 0 -10 -12 -17 -18 -15
-7 -17 0 -11 -12 -16 -17 -14
-9 -17 0 -12 -12 -17 -18 -14
-10 -17 0 -12 -13 -17 -18 -14
-12 -18 0 -13 -14 -18 -19 -15
-14 -18 0 -14 -14 -19 -20 -15
-15 -19 -2 -15 -15 -20 -21 -16
-15 -19 -3 -15 -15 -20 -21 -16
-15 -19 -4 -16 -16 -20 -21 -16
-15 -19 -5 -17 -17 -20 -21 -16
-15 -19 -6 -17 -17 -20 -21 -16
-14 -20 -7 -18 -18 -20 -22 -17
-14 -20 -7 -17 -17 -20 -21 -16
-14 -20 -7 -17 -17 -19 -20 -16
-13 -20 -6 -16 -16 -18 -19 -15
-13 -20 -6 -15 -15 -18 -18 -14
-12 -20 -5 -14 -14 -17 -17 -13
-12 -20 -3 -11 -13 -17 -17 -13
-11 -19 -2 -9 -12 -16 -17 -13
-10 -18 1 -7 -10 -15 -17 -14
-10 -18 3 -5 -9 -15 -17 -14
-9 -15 5 2 -5 -11 -14 -14
-9 -10 10 12 5 -4 -9 -10
-9 -4 15 22 14 5 -4 -6
-8 2 20 32 23 12 2 -3
-8 7 25 43 32 20 7 2
-5 14 28 51 43 30 15 9
1 23 31 58 53 44 28 21
6 33 33 64 63 57 42 33
11 43 36 71 73 70 56 46
16 52 38 78 84 84 69 58
18 61 40 76 91 93 80 70
14 71 42 59 89 96 90 81
9 81 43 42 87 99 99 92
5 92 44 24 85 102 107 103
1 102 45 7 82 106 116 114
-6 105 39 -15 72 103 118 118
-16 97 24 -45 52 90 108 110
-25 89 9 -75 31 76 98 102
-34 80 -8 -105 11 63 88 94
-45 72 -23 -135 -10 50 77 85
-51 57 -37 -155 -31 29 58 69
-53 31 -48 -162 -53 -4 25 40
-55 5 -59 -170 -74 -35 -8 13
-57 -21 -70 -177 -96 -68 -40 -15
-59 -48 -80 -183 -117 -100 -73 -43
-59 -64 -87 -181 -128 -117 -92 -60
-51 -66 -81 -162 -117 -108 -86 -58
-44 -68 -76 -144 -108 -99 -79 -57
-35 -70 -71 -126 -98 -90 -73 -55
-28 -71 -66 -107 -88 -80 -67 -53
-23 -71 -61 -92 -78 -71 -61 -50
-21 -64 -54 -79 -69 -64 -55 -45
-19 -58 -47 -68 -60 -56 -49 -39
-17 -51 -39 -56 -50 -48 -41 -34
-16 -45 -33 -45 -40 -39 -35 -29
-14 -38 -27 -35 -33 -33 -30 -25
-14 -34 -23 -31 -29 -30 -28 -23
-14 -30 -18 -26 -25 -27 -25 -21
-15 -27 -14 -22 -21 -24 -23 -19
-15 -23 -10 -18 -17 -21 -20 -17
-16 -20 -7 -15 -14 -19 -18 -15
-15 -20 -6 -13 -14 -19 -18 -15
-15 -20 -6 -11 -13 -19 -18 -15
-14 -20 -5 -9 -12 -18 -18 -14
-13 -20 -4 -8 -12 -18 -18 -14
-12 -21 -3 -6 -11 -17 -17 -13
-11 -21 -3 -6 -10 -16 -16 -12
-11 -20 -2 -6 -10 -15 -15 -11
-10 -19 0 -5 -9 -13 -13 -9
-9 -19 0 -5 -8 -12 -12 -8
-8 -18 1 -4 -7 -11 -11 -7
-8 -18 1 -4 -7 -11 -11 -7
-8 -18 1 -4 -7 -11 -11 -7
-8 -17 0 -3 -7 -11 -12 -8
-8 -17 0 -3 -7 -11 -12 -8
-8 -16 -2 -2 -8 -12 -13 -9
-8 -16 -2 -2 -8 -12 -13 -9
-8 -16 -2 -2 -8 -12 -13 -9
-8 -16 -2 -2 -8 -12 -13 -10
-8 -16 -2 -2 -8 -12 -13 -10
-8 -17 -2 -2 -8 -11 -12 -11
-8 -16 0 0 -7 -10 -12 -10
-8 -16 0 2 -6 -9 -12 -9
-8 -15 1 3 -5 -8 -11 -7
-8 -14 2 5 -4 -7 -11 -6
-7 -13 3 6 -3 -6 -10 -5
-7 -13 4 6 -3 -6 -9 -4
-7 -13 4 6 -3 -6 -9 -4
-7 -13 5 6 -2 -6 -8 -3
-7 -13 6 6 -2 -6 -7 -2
-7 -13 7 7 0 -5 -6 0
-7 -13 6 7 0 -5 -6 0
-7 -13 6 7 0 -5 -6 -2
-7 -12 5 7 -2 -6 -7 -3
-7 -12 4 7 -2 -6 -7 -3
-8 -11 3 6 -3 -7 -8 -4
-8 -11 3 6 -3 -7 -8 -4
-8 -11 3 6 -3 -7 -8 -4
-9 -12 3 6 -2 -7 -8 -4
-9 -12 3 6 -2 -7 -8 -4
-10 -13 4 6 0 -6 -7 -4
-9 -13 4 7 0 -5 -6 -4
-7 -13 4 9 1 -4 -5 -3
-6 -12 4 10 2 -3 -3 -2
-4 -12 4 12 2 -2 -2 -2
-3 -11 3 13 3 0 0 0
-3 -10 3 13 3 0 0 0
-4 -10 3 13 3 1 0 0
-5 -9 3 13 4 2 0 0
-5 -8 3 13 4 2 0 0
-6 -7 4 12 5 3 0 0
-4 -7 4 13 6 4 1 0
0 -6 4 14 6 6 2 1
2 -5 4 15 7 7 3 2
4 -5 4 16 8 9 4 2
6 -4 4 17 9 10 5 3
6 -4 4 18 10 11 6 3
6 -4 4 19 10 12 7 4
5 -3 4 20 11 13 9 5
5 -3 4 21 12 14 10 5
4 -2 5 22 13 15 11 6
5 1 5 24 14 16 12 7
7 2 5 26 15 18 14 9
8 4 5 28 17 19 15 10
10 5 5 30 18 21 17 12
11 7 6 32 19 22 18 13
12 8 6 32 19 23 19 14
13 9 6 32 20 23 19 14
14 10 6 32 20 24 20 15
15 12 6 32 21 25 21 16
16 13 6 33 22 26 22 17
15 13 5 33 22 26 23 18
15 12 4 34 22 27 23 19
14 12 3 34 22 27 24 20
13 11 1 35 22 28 25 22
12 10 0 36 23 29 26 23
14 11 0 36 23 31 28 24
16 12 0 36 24 32 29 26
18 13 -2 37 24 34 31 27
20 15 -2 37 25 35 32 29
22 16 -3 38 26 37 34 30
22 17 -3 38 26 38 35 31
23 17 -4 39 26 38 36 32
23 18 -4 39 27 39 37 33
24 19 -5 40 27 40 39 34
25 20 -6 42 28 42 40 35
25 20 -7 40 28 42 40 35
25 20 -8 39 27 42 40 35
25 20 -9 38 27 42 40 34
25 20 -10 36 26 42 40 34
26 20 -11 35 25 40 40 33
26 21 -11 36 25 40 42 34
26 21 -11 37 25 40 43 35
26 22 -11 38 25 40 44 36
26 23 -11 39 25 40 46 38
25 24 -10 40 24 42 47 39
26 25 -10 39 24 42 47 39
27 27 -10 38 24 42 47 39
28 28 -10 37 24 43 47 40
30 30 -10 35 24 43 47 40
31 31 -11 34 24 44 47 42
31 31 -11 34 24 43 47 40
31 31 -11 34 24 42 46 39
30 31 -12 34 23 40 46 38
30 31 -12 34 23 38 45 37
29 32 -13 34 22 37 44 36
27 31 -12 34 22 37 43 36
26 31 -10 34 22 36 42 36
24 30 -9 33 22 36 40 36
23 29 -7 33 22 35 38 36
21 28 -6 32 22 34 37 35
19 28 -5 32 22 32 35 33
17 28 -5 32 22 31 33 31
15 28 -4 32 21 29 31 29
13 28 -3 32 21 28 29 27
11 27 -2 32 20 26 27 25
11 26 0 30 20 24 26 23
11 24 2 29 20 22 24 21
11 23 3 27 19 21 23 20
11 21 5 26 19 19 21 18
12 20 6 24 18 17 20 16
9 17 6 24 17 16 17 15
7 15 6 24 16 15 15 14
4 12 7 24 15 14 13 13
1 9 7 24 14 13 10 11
-2 7 8 23 13 12 8 10
-3 6 8 21 12 10 7 9
-4 6 9 19 12 8 7 7
-5 5 9 18 11 6 6 6
-6 4 10 16 10 4 5 5
-7 3 11 14 9 2 4 3
-7 1 11 14 8 2 3 2
-8 -3 11 14 7 2 2 1
-8 -5 11 13 6 1 1 0
-9 -7 11 13 5 1 0 -2
-10 -9 10 12 4 0 -2 -3
-10 -9 10 12 3 0 -2 -3
-10 -9 10 12 3 0 -2 -4
-10 -9 10 11 2 -2 -2 -4
-10 -9 10 11 1 -2 -2 -5
-11 -9 9 10 0 -3 -3 -6
-10 -7 9 9 0 -4 -3 -6
-10 -6 9 9 0 -4 -4 -6
-9 -4 9 8 -2 -5 -4 -6
-8 -3 9 7 -2 -6 -5 -6
-7 0 8 6 -3 -7 -6 -7
-8 -3 8 6 -3 -7 -6 -7
-10 -5 8 6 -2 -7 -6 -7
-11 -7 9 6 -2 -6 -6 -7
-12 -9 9 6 0 -6 -6 -7
-14 -11 10 7 1 -5 -6 -7
-14 -11 10 7 1 -5 -6 -7
-14 -10 10 8 1 -5 -6 -7
-14 -10 10 8 1 -6 -6 -7
-14 -9 10 9 1 -6 -6 -7
-14 -8 9 10 0 -7 -6 -8
-13 -8 9 10 0 -7 -6 -8
-12 -8 9 10 0 -7 -7 -9
-11 -8 9 9 0 -7 -7 -9
-10 -8 9 9 0 -7 -8 -10
-9 -9 9 8 0 -7 -9 -11
-10 -9 9 8 0 -7 -9 -11
-10 -9 9 8 0 -7 -9 -11
-11 -9 8 8 -2 -7 -9 -11
-12 -9 8 8 -2 -7 -9 -11
-13 -10 7 8 -3 -8 -8 -12
-13 -10 7 8 -3 -8 -8 -12
-13 -10 7 8 -3 -8 -8 -12
-13 -11 7 8 -2 -8 -9 -12
-13 -11 7 8 -2 -8 -9 -12
-12 -12 8 7 0 -7 -10 -12
-12 -12 8 7 0 -7 -10 -12
-12 -11 8 7 0 -7 -10 -12
-12 -10 8 7 0 -7 -10 -12
-12 -9 8 7 0 -7 -10 -12
-11 -8 7 8 -2 -8 -10 -12
-11 -8 7 8 -2 -8 -10 -12
-11 -8 7 8 -2 -8 -10 -12
-11 -9 7 7 -2 -8 -10 -12
-11 -9 7 7 -2 -8 -10 -12
-10 -10 8 6 -2 -9 -11 -13
-10 -10 8 6 -2 -9 -11 -13
-11 -10 8 6 -2 -9 -11 -13
-11 -10 8 6 -3 -9 -11 -12
-12 -10 8 6 -3 -9 -11 -12
-13 -10 8 5 -4 -9 -10 -11
-12 -10 8 5 -4 -9 -10 -11
-10 -10 8 5 -4 -9 -10 -11
-8 -10 8 5 -4 -9 -10 -11
-7 -10 8 5 -4 -9 -10 -11
-5 -10 8 4 -5 -10 -10 -11
-6 -10 8 4 -5 -10 -10 -12
-8 -9 7 3 -6 -11 -11 -13
-9 -8 7 3 -6 -11 -12 -14
-10 -7 6 2 -7 -12 -13 -16
-12 -6 5 1 -8 -13 -14 -17
-12 -8 5 1 -8 -13 -14 -17
-12 -10 5 0 -8 -13 -14 -16
-12 -13 4 0 -9 -13 -14 -16
-12 -15 4 -2 -9 -13 -14 -15
-11 -17 3 -3 -10 -14 -15 -14
-9 -16 3 -3 -10 -14 -15 -14
-6 -15 3 -3 -10 -14 -15 -14
-4 -14 3 -2 -10 -14 -15 -14
0 -13 3 -2 -10 -14 -15 -14
2 -12 4 0 -9 -14 -15 -14
0 -11 4 0 -9 -14 -15 -14
-3 -10 4 0 -9 -14 -15 -14
-5 -9 4 0 -9 -14 -14 -14
-7 -7 4 0 -9 -14 -14 -14
-9 -6 5 -2 -9 -13 -13 -14
-9 -6 5 -2 -9 -13 -13 -14
-8 -7 6 0 -8 -13 -13 -13
-8 -8 6 0 -8 -12 -12 -12
-7 -9 7 1 -7 -12 -12 -11
-6 -10 8 2 -6 -11 -11 -10
-6 -9 8 2 -6 -11 -11 -10
-5 -8 8 2 -6 -11 -11 -10
-5 -7 9 2 -5 -11 -11 -10
-4 -6 9 2 -5 -11 -11 -10
-3 -5 10 1 -4 -10 -10 -10
-3 -4 10 1 -4 -10 -10 -10
-3 -3 10 1 -4 -10 -10 -10
-3 -2 9 1 -4 -10 -10 -10
-3 1 9 1 -4 -10 -10 -10
-3 2 8 1 -5 -10 -10 -9
0 4 8 1 -4 -9 -8 -7
3 6 7 2 -2 -7 -7 -5
5 8 7 2 1 -5 -5 -3
8 10 6 3 2 -4 -3 0
10 12 5 4 4 -2 0 2
10 12 5 4 4 -2 0 2
10 12 5 4 3 -3 0 1
10 12 4 3 3 -3 -2 1
10 12 4 3 2 -4 -2 0
11 12 3 2 1 -5 -3 -2
9 8 2 0 -2 -7 -5 -3
7 5 1 -2 -3 -8 -7 -4
5 2 0 -4 -5 -10 -9 -5
3 -3 -2 -6 -7 -12 -11 -6
1 -6 -3 -8 -9 -14 -13 -7
1 -7 -3 -8 -10 -15 -14 -9
1 -9 -3 -8 -11 -17 -15 -10
1 -11 -3 -9 -12 -18 -16 -12
1 -12 -3 -9 -14 -19 -18 -14
0 -14 -2 -10 -15 -21 -19 -16
-3 -14 -2 -10 -15 -21 -19 -16
-4 -14 -2 -10 -15 -21 -19 -16
-6 -15 -2 -10 -15 -21 -19 -16
-8 -15 -2 -10 -15 -21 -19 -16
-10 -16 0 -11 -15 -20 -18 -15
-10 -16 0 -11 -15 -20 -18 -15
-10 -16 -2 -12 -16 -21 -19 -16
-9 -16 -3 -13 -16 -21 -19 -16
-9 -16 -4 -14 -17 -22 -20 -17
-8 -16 -5 -15 -18 -23 -21 -18
-9 -17 -5 -15 -18 -23 -21 -18
-10 -19 -5 -15 -18 -23 -21 -18
-11 -21 -4 -15 -18 -23 -21 -18
