I II V1 V2 V3 V4 V5 V6
61 58 19 221 157 144 96 67
65 72 18 217 155 143 95 66
69 71 23 208 153 143 95 68
66 62 29 214 157 145 99 73
60 68 25 208 154 142 96 71
55 67 24 203 150 136 92 68
55 60 21 196 147 131 89 65
57 59 20 196 144 129 88 66
59 55 21 185 144 126 87 69
52 46 21 187 138 121 85 64
50 54 22 176 131 119 83 63
53 61 21 172 132 115 81 62
50 59 22 168 125 110 79 60
46 58 27 162 121 108 79 59
42 55 29 154 119 106 78 59
37 56 26 141 107 96 71 54
36 53 19 131 103 90 69 53
32 44 26 124 107 88 69 51
28 38 25 117 95 80 63 49
28 36 15 110 83 70 57 46
27 34 12 105 79 66 55 39
24 36 12 91 73 63 51 39
23 33 15 81 68 57 47 36
23 31 12 76 65 53 44 35
21 33 16 69 58 49 43 36
16 27 17 61 59 43 40 33
16 23 16 54 56 38 37 34
17 24 17 53 50 34 33 31
13 16 13 46 38 26 26 25
9 9 7 40 31 18 21 22
7 6 7 32 30 20 23 23
7 11 9 34 32 20 23 22
4 4 10 27 30 18 21 21
5 9 4 25 23 16 20 21
4 12 4 32 22 14 21 25
3 9 6 20 22 11 20 21
6 -1 9 18 16 6 18 19
7 3 6 15 13 3 15 15
6 8 2 9 12 1 12 16
4 5 3 9 5 -3 10 13
2 1 7 7 9 -4 11 13
-1 9 4 7 7 -7 8 9
-1 14 2 5 3 -8 6 8
0 6 3 1 9 -5 9 12
0 2 1 6 7 -7 7 10
-1 4 -3 0 -3 -14 2 5
0 -2 -5 -9 0 -17 0 5
4 -3 -6 -2 -1 -12 4 9
5 2 -7 -6 1 -13 1 9
2 -7 -1 -4 1 -12 2 11
-2 -8 -2 -1 -1 -10 5 15
-3 6 -4 -9 -1 -13 2 9
-4 2 -2 -10 -2 -14 0 9
1 1 -1 -6 -5 -12 4 11
-1 0 -2 -7 -5 -10 5 12
-6 -1 -4 -7 -4 -15 1 6
-7 -1 -7 -3 -3 -15 1 11
-5 -8 -5 -4 -8 -12 5 13
-4 -2 -5 -7 -3 -17 0 6
-5 -12 -6 -7 1 -14 1 4
-3 -11 -8 -6 -3 -12 4 7
-3 -7 -5 -3 -2 -11 5 7
-6 -5 -7 -6 -3 -14 1 7
-12 -2 -5 -5 -2 -10 3 9
-10 7 -1 -2 4 -7 7 12
-7 4 1 -2 8 -7 7 8
-3 -1 1 -3 2 -9 6 8
-4 -5 2 -8 4 -11 4 7
-8 -9 -4 -7 2 -13 3 5
-5 -9 -9 -10 -4 -16 -1 2
-4 -12 -2 -8 3 -12 3 7
-4 -3 -3 -9 2 -12 2 6
-5 2 -8 -7 -4 -16 -2 4
-2 -1 -8 -8 0 -14 -1 5
-1 7 -4 -9 -3 -12 2 8
-2 4 -1 -3 2 -9 6 10
-1 -3 -4 -1 -2 -12 2 7
3 -1 -7 -6 -4 -13 1 5
0 0 -8 -5 -3 -14 0 4
-2 -3 -8 -4 2 -12 2 4
-4 -4 -3 1 7 -7 6 11
-6 3 -7 -7 5 -9 4 8
-4 2 -4 -1 10 -9 5 10
-2 5 -3 -3 6 -8 5 11
-1 6 0 2 6 -6 8 14
1 10 -2 -3 9 -11 4 9
0 4 -4 -5 11 -13 4 5
-5 -3 -6 -7 5 -10 7 7
-8 -1 -11 -7 1 -13 4 3
-4 -9 -13 -9 3 -12 3 3
1 -1 -16 -12 4 -14 2 2
-3 4 -17 -13 5 -12 4 3
-7 -7 -13 -11 10 -11 6 7
-5 -4 -6 -7 12 -10 7 7
-4 3 -1 -8 9 -9 8 7
-4 2 -2 -9 6 -11 7 6
0 -5 -4 -9 0 -14 4 3
-2 -2 -10 -17 -4 -17 1 0
-3 -9 -5 -14 -1 -15 3 1
-4 -16 -3 -13 2 -17 1 0
-5 -11 -8 -11 2 -17 0 0
-2 4 -8 -16 0 -17 0 1
-5 -1 -9 -11 2 -17 1 6
-4 -7 -9 -10 5 -15 4 5
-4 4 -13 -20 6 -16 2 2
-3 3 -11 -20 3 -19 1 0
-6 -1 -10 -20 -2 -19 0 0
-10 -6 -8 -10 -2 -17 3 1
-9 -5 -8 -9 1 -14 5 4
-5 -11 -9 -12 2 -13 4 1
-1 -10 -10 -7 -1 -13 3 0
1 4 -12 -12 1 -12 4 1
-1 0 -5 -13 11 -10 7 7
-1 7 -10 -13 7 -10 6 4
3 9 -10 -5 3 -7 8 5
4 9 -4 -5 9 -5 10 5
5 7 -1 -3 11 -6 8 4
4 12 -2 -3 14 -2 11 7
3 15 -4 -2 12 -3 9 5
0 8 -1 -2 13 -2 10 7
-1 10 -3 2 11 1 11 9
-2 9 2 5 18 3 13 11
1 9 1 4 18 1 12 8
1 7 1 -2 12 -2 9 6
1 5 3 -1 12 -1 9 6
1 0 6 4 18 0 10 8
1 3 11 7 20 0 10 8
6 13 7 5 20 2 11 10
8 16 0 9 21 7 16 19
7 13 -4 12 22 7 16 22
7 19 -11 2 18 7 16 15
8 19 -14 -4 16 5 16 15
10 17 -16 -9 15 0 15 12
8 12 -18 -9 10 0 16 14
7 15 -20 -12 15 -2 15 16
9 12 -24 -13 7 -5 12 15
5 -7 -21 -13 10 -5 12 9
-1 -8 -20 -10 11 -10 8 4
1 -7 -21 -12 0 -12 7 6
8 -5 -26 -17 -1 -13 5 4
8 0 -27 -24 -2 -16 0 -2
7 -2 -18 -17 -4 -14 2 -1
5 -7 -13 -15 -4 -14 2 -2
3 -7 -14 -19 -3 -15 3 2
-2 -9 -11 -21 -3 -14 5 3
-4 -12 -5 -20 -6 -17 3 0
-7 -12 -12 -29 -13 -21 0 -5
-4 -8 -16 -33 -10 -24 -4 -7
-3 -21 -12 -28 -11 -22 -3 -5
-3 -25 -8 -25 -10 -23 -5 -1
-6 -21 -11 -27 -12 -24 -7 -6
-9 -18 -14 -28 -14 -23 -7 -8
-10 -18 -9 -26 -9 -22 -6 -5
-9 -17 -1 -30 -5 -20 -4 -5
-7 -14 3 -30 -10 -19 -4 -4
-14 -20 -1 -25 -9 -22 -7 -6
-17 -25 -6 -31 -15 -27 -11 -9
-14 -24 -8 -35 -24 -29 -15 -11
-14 -20 -5 -38 -26 -31 -18 -13
-12 -14 -12 -37 -31 -36 -19 -17
-15 -18 -4 -35 -22 -27 -12 -10
-17 -15 -4 -35 -20 -25 -12 -5
-13 -14 -15 -37 -25 -29 -14 -6
-11 -22 -14 -33 -19 -26 -10 -5
-7 -18 -12 -36 -19 -25 -8 -3
-8 -12 -13 -38 -22 -31 -14 -9
-13 -21 -15 -38 -25 -32 -16 -10
-13 -24 -14 -37 -26 -30 -14 -7
-15 -24 -14 -35 -28 -33 -17 -8
-18 -30 -14 -36 -28 -35 -17 -13
-20 -30 -8 -37 -18 -28 -13 -8
-20 -23 -5 -37 -16 -25 -12 -7
-19 -23 -7 -34 -18 -26 -12 -8
-17 -19 -6 -36 -18 -26 -11 -7
-16 -17 -3 -30 -19 -26 -13 -7
-15 -21 -8 -31 -19 -26 -13 -9
-16 -28 -4 -35 -19 -26 -12 -9
-17 -30 -3 -36 -18 -24 -13 -7
-19 -27 -2 -33 -14 -25 -15 -10
-23 -32 -3 -30 -21 -28 -15 -12
-21 -29 -2 -30 -19 -25 -14 -10
-15 -14 -6 -33 -16 -26 -15 -10
-19 -22 -6 -32 -15 -24 -13 -8
-19 -22 -6 -33 -17 -25 -11 -6
-18 -22 -6 -32 -16 -24 -11 -7
-15 -21 -2 -27 -16 -23 -10 -3
-14 -15 -4 -25 -15 -24 -11 -7
-15 -22 -5 -25 -7 -19 -10 -9
-11 -23 -3 -21 -3 -18 -13 -14
-9 -27 4 -6 12 -13 -13 -16
-12 -33 8 13 20 0 -6 -13
-9 -22 14 36 33 17 3 -7
-1 -7 14 51 52 33 12 -4
10 -3 17 74 82 60 32 9
17 8 26 104 121 93 54 26
24 17 33 131 151 125 75 35
37 26 41 162 192 165 106 52
50 40 43 197 233 211 145 75
61 46 45 239 264 254 180 94
67 57 54 271 303 295 213 112
67 70 61 276 336 338 251 134
60 81 60 240 342 358 278 149
47 79 65 197 328 358 292 154
26 58 77 135 280 328 278 144
-2 29 78 25 195 252 230 116
-31 -9 67 -95 68 132 144 60
-59 -56 66 -196 -83 -35 16 -5
-91 -98 75 -283 -226 -211 -121 -74
-128 -119 78 -377 -349 -376 -237 -126
-159 -130 65 -451 -447 -492 -313 -154
-170 -128 42 -495 -478 -523 -341 -165
-177 -117 28 -536 -500 -535 -353 -172
-187 -129 19 -556 -517 -548 -369 -186
-200 -154 3 -572 -546 -566 -390 -205
-212 -162 -15 -595 -577 -586 -408 -219
-211 -170 -35 -604 -603 -598 -418 -231
-208 -200 -53 -595 -603 -593 -417 -238
-195 -216 -71 -593 -603 -583 -413 -241
-178 -220 -94 -590 -592 -569 -405 -241
-168 -224 -105 -576 -569 -544 -386 -232
-158 -207 -112 -558 -534 -506 -358 -217
-146 -183 -124 -535 -505 -474 -335 -202
-130 -160 -134 -501 -462 -435 -305 -184
-117 -147 -137 -460 -422 -389 -271 -163
-104 -136 -132 -424 -375 -345 -238 -142
-92 -119 -124 -387 -337 -311 -213 -128
-81 -108 -110 -339 -290 -268 -181 -106
-68 -89 -100 -291 -241 -226 -152 -91
-57 -69 -89 -249 -199 -188 -127 -77
-44 -59 -70 -200 -158 -151 -99 -59
-35 -43 -56 -159 -122 -113 -73 -42
-32 -18 -43 -122 -85 -83 -51 -27
-27 -9 -32 -93 -60 -64 -37 -20
-17 -3 -25 -68 -46 -47 -27 -12
-8 4 -13 -53 -26 -29 -16 -2
-9 -1 -13 -37 -18 -20 -8 0
-5 -4 -8 -26 -11 -12 -2 4
0 3 -11 -19 -7 -5 2 4
-3 5 -9 -15 0 0 3 3
-5 3 -1 -8 6 2 5 4
-3 5 1 -3 9 8 7 6
-4 5 -3 0 17 13 11 7
-3 4 -4 3 19 15 13 9
0 5 -4 7 19 18 15 8
5 13 -2 15 26 24 20 12
5 7 -1 22 27 23 20 11
1 7 2 23 24 19 18 8
-2 4 0 22 25 23 21 11
-3 -2 -1 22 31 23 22 11
1 -4 -1 28 32 23 23 12
6 4 -2 30 32 27 24 13
7 14 0 29 37 29 25 15
9 13 -1 28 43 29 25 12
7 10 2 34 45 33 27 12
9 18 5 38 45 42 33 19
13 21 3 47 48 45 35 20
15 15 1 48 48 46 36 20
18 22 2 42 47 47 35 20
17 21 -2 46 49 49 37 21
13 8 2 49 49 49 39 22
11 10 6 48 52 51 40 22
11 18 9 49 59 53 41 23
16 23 8 56 67 53 43 24
20 21 3 58 63 56 44 26
21 22 4 60 66 63 47 25
21 26 10 65 67 63 47 27
17 16 10 78 66 64 48 27
14 17 13 73 67 67 49 29
18 28 8 76 79 68 51 31
21 18 15 83 79 72 55 31
24 16 22 88 80 79 60 36
30 30 16 94 83 81 61 37
31 29 13 99 85 83 62 34
32 28 13 97 86 84 62 33
30 30 14 104 96 89 62 31
30 29 11 113 96 90 65 34
34 25 8 119 98 91 66 37
35 20 9 127 107 95 68 37
29 25 6 126 103 96 67 39
26 29 11 130 99 97 69 38
32 31 8 132 106 103 73 42
34 33 12 141 116 109 77 44
31 28 15 153 117 111 79 43
30 29 19 162 122 119 84 49
32 35 20 167 126 125 88 51
33 40 16 174 126 122 88 47
37 37 16 178 133 127 92 50
41 44 17 187 141 133 95 53
50 46 20 188 144 136 98 56
56 47 20 193 144 135 97 54
51 45 21 198 142 136 95 52
49 49 24 198 146 139 97 52
54 61 24 208 149 140 98 52
59 59 26 208 151 145 101 57
57 52 31 211 153 149 102 57
57 50 28 214 155 148 102 57
58 48 26 220 152 147 103 54
62 55 24 220 154 148 104 56
64 59 26 215 163 149 105 59
63 54 24 218 157 146 103 59
62 55 30 218 159 148 104 60
59 59 31 222 157 149 104 57
59 59 30 223 156 147 103 55
55 55 34 226 161 150 105 57
54 54 37 222 158 155 107 61
58 57 35 222 158 151 106 62
55 51 34 221 156 148 106 60
51 53 35 219 158 147 106 64
51 61 30 224 154 144 104 64
46 57 25 211 149 136 98 61
42 52 28 205 150 136 99 66
46 55 38 207 145 138 102 64
50 59 38 206 144 135 100 60
50 57 40 203 144 133 98 61
45 58 40 190 137 132 97 62
44 56 35 190 135 126 94 57
43 48 31 183 129 122 91 55
38 50 29 171 125 117 87 53
37 48 30 171 123 110 82 51
36 39 27 167 110 102 77 50
32 44 25 152 102 99 75 49
32 47 28 141 98 95 74 47
32 47 21 129 93 88 69 41
31 44 21 122 94 84 67 40
28 44 27 125 91 84 65 40
23 41 23 121 83 75 59 35
19 27 27 105 72 71 57 36
15 29 23 97 74 69 55 35
12 29 17 82 67 62 51 30
17 24 18 78 54 53 45 28
15 22 26 73 54 52 43 29
15 40 23 69 53 44 38 22
17 40 20 70 48 40 35 19
13 32 24 58 44 37 34 19
13 26 24 52 44 39 36 24
9 20 19 46 38 33 30 21
7 11 17 44 28 27 26 17
6 17 9 40 26 26 23 15
3 18 6 36 22 23 21 14
3 14 3 33 17 16 15 8
5 6 6 30 14 18 17 15
2 4 6 28 14 16 15 14
5 13 4 26 10 11 11 7
5 9 5 27 7 8 9 5
-3 11 5 18 12 7 8 2
-4 7 5 14 6 5 6 0
-7 0 6 14 2 3 5 0
-6 -1 8 12 1 6 7 3
0 3 10 9 4 5 7 3
-1 2 8 7 0 -2 1 -3
-2 -4 7 10 -3 0 0 -2
-1 -3 4 6 -4 -1 -1 -2
2 -3 6 9 7 -3 -1 -5
5 -4 4 10 7 -1 0 -3
-1 -1 1 8 0 -2 -1 -3
-4 1 0 11 -10 -6 -3 -4
-1 -2 0 8 -7 -6 -4 -4
-6 0 -2 4 -12 -10 -7 -8
-12 -3 5 7 -10 -12 -7 -9
-17 -9 0 4 -8 -13 -9 -12
-15 -8 -3 6 -10 -10 -6 -7
-9 -7 8 9 -2 -4 0 -1
-2 3 10 7 -4 -3 -1 -4
2 7 9 14 -3 0 1 -2
1 13 6 11 4 1 2 -2
-3 0 6 7 -1 1 2 0
-4 -5 3 8 -6 -2 -1 -2
-7 -4 10 14 -2 -4 -2 0
-7 -4 6 14 -2 -5 -4 0
-6 -3 10 3 -4 -7 -5 -1
-6 -5 12 3 -3 -5 -5 -3
-5 -2 10 4 -6 -5 -6 -6
-4 4 8 1 -6 -5 -7 -7
-4 -4 15 7 -2 -2 -3 -4
-1 1 15 14 1 2 -1 -2
0 -1 9 7 1 1 -2 -4
4 -2 8 2 2 0 -3 -7
5 4 7 5 -1 1 -2 -5
3 0 3 7 0 0 -3 -6
0 -7 1 6 -1 -2 -3 -6
-6 -1 3 5 -1 1 -4 -7
-3 6 6 0 -7 0 -6 -10
0 1 8 4 1 1 -5 -8
-1 3 11 8 1 2 -4 -7
-3 8 9 4 -3 4 -3 -6
-2 7 8 8 -5 3 -4 -7
-4 -4 4 7 -3 2 -3 -6
-7 2 -1 0 -2 0 -4 -8
-5 0 -5 -7 -4 -3 -9 -10
-3 -11 -1 -1 -3 -4 -7 -9
-6 -10 3 5 1 2 -3 -3
-6 0 -1 8 3 5 -1 -2
-4 3 -1 7 -4 4 -2 -2
-4 3 3 7 0 5 1 0
2 11 4 -2 -3 4 -2 -2
6 9 4 0 -1 4 -2 -2
4 2 7 3 1 7 -1 -1
0 2 11 5 -2 7 0 0
-2 2 6 3 -2 5 -3 -4
-3 0 0 -5 -11 -2 -9 -8
-3 -4 3 -5 -10 0 -9 -8
-4 -2 2 1 -7 1 -8 -7
-3 1 3 0 -10 0 -9 -7
-3 5 3 -1 -6 1 -7 -6
0 6 5 -1 -5 3 -5 -5
1 -1 6 -4 -9 0 -6 -6
0 -5 1 -2 -4 -2 -7 -6
-3 -6 -5 -4 -4 1 -5 0
-3 -2 -6 -6 -9 1 -6 -4
-1 -2 -5 -6 -9 0 -7 -5
0 -1 -2 -5 -3 3 -5 -2
-3 4 0 -7 -7 3 -6 -3
-3 0 6 -6 -1 1 -6 -4
-2 0 4 -6 -2 -1 -8 -3
0 9 0 -9 -7 2 -7 -4
9 8 -1 -3 -4 1 -6 -5
9 6 -5 -2 -5 1 -6 -6
3 8 -2 -4 -8 4 -5 -3
1 1 -1 -6 -10 5 -4 -2
2 -1 -1 -4 -9 3 -4 -2
2 2 3 0 -3 8 -2 0
5 11 2 -1 -6 9 -4 1
8 15 0 2 -5 8 -3 4
7 16 -1 2 -5 9 -3 2
11 21 9 6 -1 13 -1 3
11 21 4 6 1 11 -2 1
6 16 -3 6 -1 9 -4 0
-1 13 2 8 0 14 2 7
-3 17 1 6 -1 11 -1 5
2 11 -3 1 -2 5 -6 -2
8 11 2 3 4 9 -2 3
7 19 2 2 8 10 0 4
3 18 1 4 8 11 -1 6
3 19 3 9 6 13 0 6
5 29 1 4 6 16 0 8
10 28 1 3 10 14 2 11
11 19 -1 5 7 14 2 8
10 20 0 2 5 12 2 10
9 17 -6 -4 7 12 2 9
11 16 -16 -9 -5 5 -3 3
11 5 -15 -9 -5 8 -1 6
13 11 -13 -12 -5 7 -3 4
11 10 -11 -15 -7 3 -6 -1
10 1 -11 -9 -3 5 -4 1
6 -1 -12 -8 -9 5 -4 1
5 -2 -11 -17 -14 -1 -6 -1
10 -4 -11 -16 -16 -2 -7 0
10 3 -13 -12 -19 -2 -9 -2
11 4 -11 -5 -19 -2 -9 -3
12 0 -14 -17 -19 -7 -12 -6
11 -1 -13 -17 -19 -5 -12 -4
8 9 -11 -22 -22 -6 -13 -6
3 4 -18 -26 -23 -9 -16 -8
0 -5 -14 -25 -24 -8 -15 -7
1 2 -12 -27 -18 -10 -18 -8
2 7 -16 -33 -29 -18 -24 -16
2 -8 -14 -29 -28 -17 -23 -14
-3 -7 -10 -30 -26 -18 -24 -15
-1 -6 -11 -31 -31 -19 -27 -15
-6 -7 -15 -31 -31 -22 -28 -18
-10 -14 -11 -25 -31 -17 -23 -14
-9 -10 -13 -29 -30 -17 -22 -15
-8 -6 -14 -32 -26 -18 -22 -14
-7 0 -11 -36 -32 -21 -25 -13
-6 -1 -10 -30 -28 -18 -24 -12
-2 -8 -13 -32 -29 -19 -21 -13
-4 -14 -14 -36 -27 -18 -21 -12
-4 -13 -15 -33 -24 -16 -20 -9
-6 -12 -16 -33 -29 -19 -22 -10
-10 -19 -15 -33 -33 -23 -24 -15
-11 -14 -15 -39 -38 -24 -29 -18
-10 -13 -12 -39 -27 -24 -27 -17
-6 -11 -9 -41 -33 -25 -28 -17
-7 -9 -10 -39 -35 -25 -28 -16
-7 -9 -11 -41 -21 -22 -26 -14
-2 -9 -12 -43 -19 -23 -25 -12
-1 -14 -12 -39 -25 -22 -24 -12
-2 -6 -17 -43 -30 -26 -29 -18
-5 -10 -13 -45 -30 -23 -27 -15
-7 -18 -13 -41 -29 -22 -25 -13
-7 -14 -13 -40 -30 -23 -26 -14
-7 -11 -13 -39 -29 -23 -27 -16
-6 -13 -10 -38 -31 -24 -28 -18
-8 -10 -7 -37 -32 -21 -25 -15
-9 -5 -4 -34 -27 -17 -23 -12
-10 -8 -6 -32 -27 -19 -24 -13
-15 -21 -8 -29 -26 -18 -22 -13
-13 -18 -12 -37 -27 -20 -25 -15
-6 -5 -16 -44 -36 -26 -30 -16
-6 -7 -16 -43 -34 -28 -32 -17
-10 -8 -11 -39 -32 -25 -29 -12
-10 -5 -6 -36 -32 -24 -28 -15
-4 -6 -3 -33 -27 -21 -26 -15
0 -5 -10 -30 -29 -17 -26 -14
0 -7 -3 -17 -18 -9 -24 -16
0 -18 5 4 -4 0 -21 -18
4 -14 2 20 8 10 -18 -19
12 -7 7 39 27 29 -6 -14
23 -1 17 64 54 57 13 -1
30 17 19 90 85 82 31 12
32 29 29 115 125 115 54 28
39 37 35 149 163 153 82 41
53 57 34 175 197 193 113 57
65 62 36 210 238 235 149 79
70 72 54 247 279 283 188 101
75 87 56 272 320 325 225 121
72 89 56 255 337 358 258 140
60 94 62 214 323 368 279 153
38 93 72 156 285 346 273 146
12 53 72 62 213 287 240 125
-14 10 60 -63 99 186 174 86
-36 -27 52 -177 -39 42 66 22
-69 -69 56 -275 -192 -140 -72 -51
-105 -96 60 -361 -335 -313 -201 -114
-137 -108 57 -449 -455 -458 -294 -149
-152 -117 42 -501 -509 -522 -339 -169
-158 -117 19 -538 -531 -538 -356 -175
-164 -114 6 -564 -552 -552 -371 -184
-173 -124 -8 -586 -570 -570 -395 -205
-184 -152 -26 -601 -598 -592 -415 -224
-192 -161 -41 -614 -622 -600 -424 -234
-187 -172 -61 -610 -630 -598 -428 -242
-180 -193 -85 -597 -631 -590 -426 -246
-170 -208 -106 -593 -623 -578 -420 -248
-170 -209 -120 -590 -604 -556 -403 -242
-163 -203 -131 -572 -574 -525 -380 -232
-152 -194 -141 -552 -545 -494 -357 -217
-134 -174 -139 -522 -502 -453 -327 -197
-110 -147 -139 -483 -452 -407 -293 -173
-93 -136 -139 -444 -408 -365 -263 -154
-82 -119 -140 -409 -365 -324 -232 -137
-72 -96 -125 -364 -318 -284 -205 -118
-63 -85 -107 -318 -280 -242 -174 -98
-46 -67 -97 -271 -235 -200 -143 -81
-36 -46 -78 -222 -184 -156 -112 -61
-28 -33 -65 -175 -145 -122 -91 -50
-23 -19 -56 -141 -115 -96 -72 -39
-20 -7 -41 -113 -88 -72 -58 -30
-13 -6 -29 -85 -69 -52 -45 -22
-8 -6 -29 -66 -54 -41 -39 -20
-7 -4 -20 -52 -37 -24 -27 -12
3 11 -17 -37 -25 -12 -19 -6
6 15 -17 -25 -17 -5 -13 -4
6 8 -12 -17 -6 2 -7 0
9 16 -9 -8 -6 9 -3 4
13 22 -9 -5 -2 8 -6 0
14 17 -8 -8 4 9 -5 -1
12 13 -5 -2 6 16 2 4
10 10 -6 5 3 18 1 2
12 17 -9 5 2 15 -2 -2
9 15 -8 4 2 21 3 3
3 17 -7 10 7 25 6 5
1 11 -7 17 18 28 10 8
7 11 -7 23 20 31 11 9
12 18 -4 25 20 33 13 11
15 16 -3 30 21 33 15 10
14 14 -4 26 17 33 13 10
15 13 -2 24 20 37 15 11
17 12 -2 36 21 37 15 10
24 11 -6 37 24 37 15 9
25 16 -6 38 27 45 21 14
22 28 -3 32 30 44 19 11
19 26 -3 39 33 45 21 12
19 24 -1 38 36 46 21 13
20 25 -6 42 37 49 25 18
18 19 -6 48 41 50 27 18
12 13 -4 49 41 52 28 22
10 14 -4 54 41 54 28 21
12 22 -9 57 42 55 27 16
14 17 -6 62 43 54 26 14
12 18 -3 63 42 58 27 14
9 15 3 67 48 63 31 18
18 20 3 75 57 67 35 21
28 34 5 78 57 70 36 22
30 36 6 80 64 75 41 26
33 31 6 88 69 76 43 26
34 30 5 90 71 80 44 28
33 31 4 91 75 82 47 31
33 34 2 95 74 83 46 30
34 24 3 110 82 85 49 30
36 24 1 111 88 93 54 36
36 36 3 116 92 95 56 36
36 31 4 119 94 97 57 35
38 33 4 123 98 100 58 37
41 41 9 130 102 104 60 37
40 41 8 135 99 102 57 32
42 38 12 150 107 109 62 37
45 41 15 163 110 115 66 42
44 42 15 157 113 119 67 41
47 37 14 160 115 122 71 41
47 40 14 171 125 129 76 44
52 50 10 180 126 131 75 46
50 51 17 186 126 134 79 47
44 48 19 188 130 136 81 51
46 57 19 180 132 137 81 50
51 50 21 184 142 137 82 48
52 43 22 188 142 139 84 49
53 52 23 188 139 141 84 51
54 49 23 196 143 146 87 54
60 49 21 206 147 148 90 59
64 57 22 211 150 154 94 60
63 59 23 214 156 154 93 58
63 60 24 216 154 153 92 56
60 61 24 213 152 152 92 56
60 65 24 211 156 153 93 58
61 62 23 216 155 148 89 54
58 52 23 218 152 147 89 55
58 53 28 211 155 149 92 56
60 51 29 221 157 153 95 57
61 51 24 224 160 149 92 55
64 57 22 216 161 150 92 55
63 57 27 224 155 152 95 60
59 51 30 217 153 151 95 60
54 60 27 209 155 148 95 60
51 63 32 211 155 150 96 65
50 59 34 205 154 145 94 62
50 58 27 199 144 140 91 59
46 52 30 198 143 139 90 60
47 51 30 191 141 132 86 56
43 47 26 184 135 128 83 53
44 46 30 174 128 126 82 56
50 60 27 180 128 122 80 54
42 55 32 179 129 121 81 55
43 54 36 166 123 118 79 54
43 56 32 158 124 114 77 54
33 53 26 150 111 105 71 49
31 46 22 132 106 96 64 44
32 43 21 122 97 91 61 43
35 45 22 118 86 86 56 42
36 38 25 108 84 81 54 39
32 37 21 97 80 76 50 40
28 38 17 91 80 73 48 38
25 35 17 87 73 69 47 35
21 32 15 81 66 63 42 32
17 35 17 71 59 61 42 31
16 31 16 64 53 53 37 30
15 28 9 58 46 47 31 25
14 25 9 50 45 46 31 29
10 20 9 46 46 44 30 24
7 17 7 40 42 35 23 19
8 19 8 39 40 34 22 19
7 21 8 27 29 29 19 17
10 25 5 23 23 23 16 15
10 24 5 20 24 21 13 14
8 25 5 14 26 21 13 15
8 23 5 12 15 13 6 9
7 11 6 11 11 10 4 7
3 9 5 12 9 11 5 9
3 5 4 13 9 10 4 9
2 -1 -1 6 8 5 0 6
2 1 -2 1 -1 8 1 8
-2 6 -2 -3 4 4 -1 6
-2 8 6 -6 3 2 -1 5
-3 2 4 -1 -3 1 -1 5
-5 1 -5 -4 -7 -1 -3 2
-6 3 -8 -9 -10 -8 -9 -3
-2 -3 -5 -10 -13 -8 -8 0
-6 -2 -3 -14 -16 -7 -8 1
-4 1 -1 -11 -10 -5 -6 3
-1 1 -4 -11 -8 -7 -8 0
1 4 -1 -5 -7 -5 -8 1
3 7 0 -9 -7 -6 -9 2
0 6 1 -9 -9 -7 -8 3
-5 4 -4 -8 -8 -5 -7 2
-6 0 -2 -9 -7 -3 -5 5
-6 -5 -1 -12 -14 -9 -9 0
-3 -6 -1 -10 -19 -8 -9 0
-3 1 1 -15 -17 -7 -10 -3
-5 3 0 -13 -17 -7 -10 -6
-9 -5 -2 -10 -13 -7 -10 -6
-8 -7 -4 -13 -6 -4 -6 -2
-5 0 0 -14 -6 -5 -8 -3
1 7 0 -13 -13 -6 -8 -2
3 3 -2 -10 -12 -4 -6 0
-2 3 -1 -9 -14 -5 -7 -1
-4 -1 -2 -10 -13 -10 -10 -5
-1 0 -4 -13 -3 -10 -9 -1
1 5 -1 -9 -5 -7 -6 1
-3 7 -1 -10 -17 -11 -10 -5
-8 -2 2 -10 -9 -10 -10 -5
-11 -2 5 -9 -4 -7 -8 -2
-9 -1 4 -8 -8 -7 -9 -3
-6 3 3 -7 -13 -7 -9 -1
-6 3 1 -7 -12 -7 -8 -1
-7 7 -4 -12 -10 -7 -8 0
-8 0 -3 -5 -7 -7 -7 -3
-6 -9 2 -5 -5 -4 -4 -1
-3 -4 6 -5 -5 -4 -4 -4
-2 -6 8 -7 -7 -8 -7 -6
-3 -10 0 -8 -10 -11 -11 -6
1 -10 -4 -8 -13 -5 -5 -3
0 2 -4 -8 -14 -6 -8 -6
0 1 0 -8 -4 -4 -4 -2
-1 0 1 -6 0 2 0 3
1 5 0 -5 -7 0 -2 2
3 8 -2 -9 -7 -5 -5 -1
-3 5 -5 -12 -4 -7 -7 -1
-9 -2 -5 -14 -6 -6 -5 -2
-8 -6 -1 -10 -9 -5 -5 -2
-8 -12 2 -7 -5 -4 -5 0
-11 -10 1 -9 -1 0 -2 2
-8 -3 2 -11 -8 0 -4 2
-4 -1 4 -6 -6 0 -4 2
1 -1 3 -1 0 5 2 6
-1 3 1 -6 -7 2 1 5
-3 -1 4 -9 -11 -3 -3 0
-1 -4 3 -11 -9 -1 -1 1
-4 -1 3 -10 -13 -2 -3 0
-5 -4 0 -9 -11 -4 -4 -1
-6 -15 0 -7 -6 -4 -4 -1
-10 -14 6 -9 -6 -2 -3 0
-5 5 4 -10 -8 -4 -6 -2
1 6 -1 -11 -11 -5 -7 -5
-4 1 -3 -9 -7 -1 -3 -3
-5 6 -4 -11 -3 -1 -3 -3
-6 0 -6 -12 -2 -4 -5 -4
-4 -4 -2 -14 -8 -3 -4 -1
-2 -4 0 -9 -9 -2 -3 -1
-3 -2 -4 -13 -9 -6 -8 -3
-2 -1 -7 -16 -7 -10 -9 -7
-2 1 -7 -17 -10 -5 -5 -4
1 8 -6 -15 -10 -5 -4 0
4 10 -7 -9 -8 -2 -1 0
2 11 -7 -11 -6 -3 0 0
3 18 -8 -13 -7 -2 2 3
5 17 -7 -9 -2 -1 2 4
7 11 1 -1 -3 1 5 4
5 9 9 -2 0 5 7 5
4 12 4 -1 3 3 4 2
5 10 3 1 5 2 3 0
5 9 8 -1 3 10 7 5
0 8 7 2 4 11 9 5
-2 5 5 2 6 9 7 3
-3 8 1 -4 -2 4 4 -1
-9 4 5 -1 -2 7 5 2
-6 3 10 4 0 8 7 5
-2 5 13 7 3 9 7 7
2 17 14 4 2 9 7 4
5 18 8 3 3 8 7 7
7 16 1 4 4 7 7 7
9 17 1 8 7 14 13 11
8 12 -1 3 7 12 13 13
10 7 -10 -8 3 5 7 7
6 10 -15 -11 -2 3 4 4
-2 13 -13 -12 0 3 3 6
-2 4 -2 -11 0 3 5 7
9 1 0 -9 2 5 9 9
10 8 1 -10 0 4 8 9
8 7 2 -11 -4 0 4 4
7 -5 -4 -15 -4 -3 2 1
4 -5 -5 -18 -11 -3 3 3
3 0 -5 -14 -9 -2 3 4
2 -3 0 -17 -6 -4 2 2
0 -7 2 -17 -7 -3 3 4
4 1 -6 -16 -12 -4 2 1
8 -2 -10 -16 -18 -12 -4 -6
6 -13 -11 -25 -18 -13 -3 -5
2 -16 -9 -22 -15 -12 -4 -2
0 -10 -10 -23 -21 -18 -9 -9
-3 -19 -6 -28 -18 -20 -10 -11
-8 -18 1 -28 -23 -18 -9 -9
-7 -15 5 -24 -18 -17 -8 -7
-4 -12 7 -18 -9 -16 -5 -4
-11 -9 4 -24 -15 -18 -7 -6
-14 -5 3 -29 -15 -18 -8 -6
-17 -19 3 -27 -17 -22 -9 -8
-20 -27 0 -28 -18 -22 -10 -9
-20 -23 -7 -31 -23 -27 -16 -15
-16 -24 -7 -30 -26 -30 -18 -16
-11 -26 -3 -30 -27 -29 -16 -15
-12 -24 1 -30 -20 -22 -10 -7
-16 -20 5 -29 -21 -21 -8 -7
-14 -24 2 -28 -17 -20 -7 -8
-11 -16 -4 -34 -19 -22 -10 -8
-12 -10 1 -29 -21 -21 -9 -5
-12 -15 2 -26 -23 -23 -11 -12
-12 -21 1 -27 -18 -22 -9 -11
-9 -19 -1 -28 -19 -23 -10 -11
-12 -20 -7 -31 -27 -26 -14 -15
-20 -34 -3 -30 -27 -27 -15 -15
-20 -25 -8 -36 -26 -28 -16 -17
-20 -19 -12 -35 -22 -28 -17 -19
-18 -22 -7 -28 -14 -26 -15 -17
-14 -18 0 -30 -10 -22 -11 -12
-14 -14 4 -29 -14 -20 -10 -9
-17 -17 -3 -28 -16 -24 -13 -13
-17 -27 -1 -32 -15 -23 -11 -12
-15 -22 -3 -34 -15 -22 -11 -13
-7 -19 -5 -31 -19 -23 -12 -14
-11 -25 -9 -29 -21 -26 -14 -17
-20 -29 -6 -31 -19 -23 -13 -15
-19 -25 -2 -31 -17 -23 -13 -14
-17 -26 2 -29 -19 -24 -14 -15
-20 -25 -4 -32 -18 -24 -14 -15
-20 -19 -1 -35 -21 -22 -14 -13
-18 -23 -3 -33 -16 -26 -16 -14
-16 -23 -4 -35 -17 -27 -19 -15
-15 -25 1 -31 -20 -24 -18 -18
-10 -25 7 -20 -11 -17 -13 -15
-9 -27 9 -5 -1 -12 -11 -15
-12 -21 12 6 9 -4 -10 -16
-8 -17 18 30 29 9 -5 -15
-4 -17 16 42 37 21 1 -14
2 -17 17 64 59 45 18 -3
11 1 26 96 91 75 39 11
16 12 33 115 119 101 56 21
25 23 40 146 152 134 79 34
37 31 42 183 197 178 114 55
49 47 44 217 237 220 149 75
60 56 50 257 276 267 184 93
65 64 62 291 324 317 227 120
66 79 64 283 350 352 259 136
53 82 69 243 345 366 282 151
32 72 78 190 321 359 291 154
9 57 85 100 261 315 267 140
-12 23 77 -36 155 225 212 105
-35 -13 63 -153 25 93 116 49
-65 -55 68 -255 -134 -84 -18 -20
-100 -98 72 -349 -282 -263 -154 -85
-133 -122 70 -437 -416 -423 -259 -129
-155 -123 54 -499 -485 -509 -315 -150
-168 -109 29 -541 -510 -533 -337 -161
-178 -115 17 -571 -531 -549 -355 -168
-190 -137 7 -587 -554 -563 -372 -183
-201 -156 -12 -608 -581 -585 -395 -209
-205 -177 -34 -621 -611 -603 -413 -225
-205 -190 -54 -621 -623 -605 -418 -234
-195 -199 -79 -611 -618 -596 -415 -239
-185 -213 -95 -603 -609 -582 -408 -239
-176 -223 -116 -594 -596 -564 -395 -237
-163 -217 -125 -580 -566 -531 -373 -224
-147 -196 -133 -556 -532 -497 -347 -210
-135 -175 -141 -527 -499 -462 -322 -194
-122 -156 -138 -485 -448 -416 -288 -172
-113 -135 -137 -448 -395 -371 -256 -152
-98 -127 -129 -409 -361 -332 -230 -135
-83 -113 -117 -366 -318 -295 -205 -119
-73 -99 -108 -322 -267 -253 -175 -103
-53 -75 -92 -270 -221 -207 -142 -81
-39 -58 -77 -220 -176 -168 -112 -62
-37 -42 -64 -177 -139 -129 -87 -45
-30 -27 -48 -130 -102 -97 -66 -32
-27 -21 -31 -93 -67 -71 -49 -20
-21 -12 -25 -78 -49 -56 -41 -15
-11 -6 -20 -59 -36 -39 -31 -10
-6 -1 -19 -41 -24 -31 -24 -10
-4 -1 -15 -28 -13 -18 -16 -3
-2 -5 -9 -19 -7 -9 -9 2
-4 -6 -5 -14 -1 -3 -6 1
-6 -9 -5 -6 8 1 -2 3
-6 -5 3 -2 17 9 3 9
-4 5 6 7 18 12 5 9
-1 7 4 7 18 14 7 9
-4 6 1 9 22 16 7 7
-2 11 0 12 23 20 10 7
5 9 -1 20 33 23 11 9
7 7 -1 24 32 24 12 6
8 10 -1 27 31 28 15 9
4 11 -1 28 38 30 15 9
0 4 8 30 37 30 17 10
3 14 2 31 31 31 19 10
0 15 1 36 35 33 19 10
1 6 3 42 38 34 20 10
6 3 7 42 38 37 22 13
7 5 3 37 42 41 23 15
10 8 1 42 44 42 24 13
10 1 6 48 52 46 28 15
10 6 3 52 47 48 30 17
16 15 2 51 48 48 29 19
15 11 2 55 46 44 26 16
15 11 5 54 49 48 30 19
13 14 3 60 51 50 30 18
14 16 0 58 54 50 29 19
21 19 -2 61 64 56 32 19
23 23 3 64 72 62 36 20
22 20 2 76 72 65 38 23
24 17 2 78 74 68 41 26
20 25 5 75 73 70 41 24
19 25 9 83 72 72 43 23
19 18 7 88 77 74 45 26
16 20 7 96 77 75 46 27
18 18 12 97 83 80 49 28
20 24 11 97 87 85 51 29
22 28 1 103 90 83 49 24
24 33 1 103 97 87 49 23
29 27 6 107 101 90 50 25
35 23 9 113 105 96 55 28
42 29 6 116 101 98 55 29
40 31 3 127 101 100 57 29
35 26 11 130 110 105 60 33
30 31 12 135 115 110 63 36
34 35 14 140 119 113 64 38
38 35 13 151 122 117 65 41
39 33 15 157 126 116 64 38
44 38 15 157 129 123 67 41
47 37 11 158 129 124 67 40
47 32 10 167 130 126 71 38
50 37 12 180 137 132 76 44
50 50 13 188 139 135 76 44
47 43 15 195 141 136 77 45
47 41 17 195 150 144 82 50
48 43 17 203 156 146 82 50
50 52 14 197 152 143 79 47
50 47 21 201 157 147 84 51
53 51 25 207 162 155 89 55
57 49 29 209 160 156 88 56
56 46 24 209 160 154 88 56
57 45 22 218 161 156 90 57
56 51 20 217 160 157 90 58
56 49 19 212 161 154 89 56
58 53 25 211 161 156 90 56
57 54 28 215 167 159 92 59
59 53 27 217 161 156 90 56
62 57 26 218 162 155 89 55
60 63 31 219 165 157 93 60
56 56 31 221 169 158 93 61
55 55 27 220 165 157 94 60
53 56 26 218 163 153 93 62
54 54 29 209 160 152 90 62
54 50 25 209 156 147 88 60
52 49 30 207 159 148 91 62
53 52 37 202 157 149 91 65
53 59 28 202 151 143 88 59
52 59 28 195 150 139 88 57
54 61 31 188 149 138 85 58
57 58 27 186 141 133 82 55
55 46 22 179 136 129 81 54
47 50 17 171 134 121 76 51
38 48 19 161 128 113 70 47
33 39 22 156 123 107 68 47
32 44 25 144 118 105 68 48
31 43 28 141 117 101 65 48
27 41 27 130 108 93 59 39
25 47 25 117 111 85 56 36
24 46 32 116 104 84 56 38
21 42 25 107 94 76 50 32
17 39 26 106 88 74 50 34
20 35 32 104 85 71 50 36
21 33 22 86 75 62 42 32
20 26 18 79 68 55 38 28
16 21 26 72 62 52 36 26
15 23 22 64 60 45 30 21
14 19 19 58 57 41 28 21
10 16 17 48 50 38 25 19
5 17 17 41 52 37 24 23
7 16 20 38 47 31 20 17
9 11 17 36 41 28 19 16
8 16 18 36 39 26 18 16
8 15 17 38 48 23 17 15
5 8 14 30 39 17 14 12
1 6 15 25 30 17 13 11
-3 4 12 14 25 14 10 13
-1 1 11 9 20 9 6 9
1 4 9 5 20 6 3 2
-3 8 8 7 17 4 2 1
0 5 8 6 18 2 2 0
-3 -3 9 0 19 2 2 1
-8 -4 8 -2 14 0 1 1
-7 -5 6 -5 7 -2 0 -1
1 -4 3 -1 6 -6 -4 -4
5 9 2 0 8 -7 -6 -2
4 13 5 -8 9 -8 -6 -3
0 3 9 -11 8 -8 -4 -2
-2 -6 8 -4 6 -7 -3 0
-6 -1 5 -5 4 -9 -4 1
-10 -8 6 -10 -2 -12 -6 -5
-10 -9 5 -14 -2 -13 -7 -7
-8 -1 2 -17 -1 -12 -7 -7
-5 0 2 -17 0 -13 -8 -5
-5 -7 5 -13 5 -10 -4 -1
-8 -6 8 -11 5 -10 -3 -1
-7 -1 12 -11 4 -13 -7 -6
-9 -9 10 -13 1 -12 -8 -5
-9 -12 9 -13 -3 -12 -8 -3
-8 -6 6 -13 3 -13 -9 -6
-9 -11 4 -10 1 -14 -10 -7
-9 -13 11 -9 -4 -12 -8 -1
-2 4 6 -8 1 -9 -7 -1
5 6 1 -9 1 -9 -6 -3
4 2 -2 -14 -5 -12 -8 -6
-3 1 1 -15 -4 -11 -8 -4
-7 3 2 -11 2 -10 -8 -4
-4 3 6 -7 1 -9 -6 -3
-3 3 5 -10 5 -11 -9 -7
-4 5 6 -9 0 -12 -10 -6
-3 -6 12 -5 3 -11 -9 -7
-6 -8 17 -5 2 -13 -10 -9
-10 -6 15 -9 3 -13 -11 -9
-10 -11 13 -7 3 -13 -11 -7
-7 -14 7 -8 -4 -16 -13 -8
-8 -9 8 -11 -2 -13 -10 -3
-4 -4 11 -8 2 -11 -7 -2
-1 -1 8 1 5 -10 -8 -4
-3 -3 9 0 3 -6 -5 -3
1 4 9 -7 4 -8 -6 -4
4 1 8 -6 1 -9 -7 -7
3 -3 7 -2 2 -7 -5 -2
-2 -7 10 -3 0 -6 -3 -3
-4 -1 9 -7 -2 -11 -7 -7
-1 -3 2 -6 -1 -12 -9 -8
0 -4 3 -1 -3 -9 -6 -5
0 -2 5 -6 -2 -10 -8 -6
1 2 4 -5 -1 -11 -9 -7
4 9 2 -6 -3 -11 -10 -8
0 8 6 -6 -5 -9 -8 -2
-1 -6 3 -1 -2 -10 -8 -2
-1 -7 2 -8 -2 -11 -9 -5
-4 1 -3 -13 -8 -13 -10 -10
-11 1 -3 -13 -7 -12 -9 -10
-13 -10 -3 -16 -4 -13 -9 -10
-8 -10 2 -16 -5 -11 -7 -7
-1 -3 4 -9 -3 -9 -6 -6
0 -3 8 -9 -5 -10 -8 -8
-1 -1 3 -8 -4 -10 -7 -7
-2 2 1 -9 -5 -7 -4 -5
-1 -6 -2 -12 -7 -13 -9 -10
0 -6 -4 -8 -10 -15 -10 -11
2 -1 0 -13 -7 -13 -8 -8
-2 -5 0 -12 -4 -11 -7 -7
-5 -10 2 -6 0 -13 -8 -2
-6 -6 3 -13 2 -11 -6 -2
-5 -3 2 -16 -4 -10 -8 -5
-3 -5 3 -15 -6 -11 -9 -4
3 1 5 -15 -5 -13 -9 -9
4 7 5 -12 -6 -11 -6 -7
-1 1 7 -10 -8 -11 -6 -5
-2 -8 9 -14 -8 -11 -7 -8
0 -7 4 -11 -12 -10 -6 -8
-2 -5 0 -13 -9 -9 -5 -6
-6 -10 -1 -17 -9 -9 -5 -5
-9 -4 -4 -17 -11 -8 -4 -2
-4 1 -2 -18 -9 -9 -5 -4
6 2 0 -6 -6 -6 -3 -2
11 6 3 -5 -1 -3 -1 1
9 12 5 -4 2 -3 0 1
9 8 10 0 2 -4 -1 -3
13 10 7 -1 -2 -2 1 -2
16 16 11 -3 0 -1 2 1
14 21 9 -1 9 -1 2 0
11 21 6 -1 4 -2 1 0
8 19 14 0 0 3 5 5
3 21 14 0 7 2 3 2
9 18 8 -1 4 0 1 -2
12 13 11 2 3 2 4 0
11 14 7 5 5 5 3 2
9 16 3 9 1 2 2 2
10 14 4 9 5 5 5 2
11 14 3 8 7 9 7 5
11 17 0 8 7 8 9 7
10 16 -3 3 1 4 7 5
10 18 -6 -9 1 3 5 4
12 20 -6 -9 2 2 4 2
10 9 -6 -10 4 3 6 4
11 11 -9 -13 2 2 4 1
18 22 -12 -16 -6 1 4 0
18 13 -13 -9 -5 1 4 -1
17 3 -14 -7 -8 0 3 -2
16 12 -20 -23 -15 -4 -1 -5
15 4 -20 -24 -16 -4 0 -4
12 -8 -17 -23 -12 -5 1 -1
10 -12 -13 -19 -6 -3 1 1
12 -4 -14 -16 -11 -5 -1 -2
14 2 -15 -21 -15 -9 -4 -3
10 -3 -11 -23 -21 -11 -6 -7
4 -8 -16 -25 -24 -13 -9 -10
1 -18 -17 -20 -23 -14 -10 -11
3 -14 -20 -28 -23 -17 -12 -13
5 -4 -11 -33 -28 -16 -12 -11
5 0 -13 -32 -25 -16 -11 -11
1 -12 -17 -29 -26 -18 -14 -12
-5 -20 -14 -28 -25 -17 -12 -10
-8 -14 -15 -26 -23 -19 -16 -14
-4 -9 -13 -31 -24 -20 -16 -16
-3 -14 -12 -29 -26 -17 -16 -12
-4 -9 -15 -30 -24 -18 -18 -11
-4 -10 -12 -32 -28 -22 -20 -15
-5 -18 -13 -34 -34 -22 -19 -15
-2 -10 -16 -36 -32 -22 -21 -16
-3 -12 -14 -37 -30 -24 -22 -17
-4 -24 -9 -38 -37 -26 -22 -17
-1 -12 -6 -41 -33 -26 -23 -14
-4 -9 -9 -37 -30 -25 -22 -12
-1 -14 -12 -35 -31 -25 -21 -17
0 -18 -17 -35 -40 -25 -23 -18
-1 -16 -16 -39 -38 -24 -23 -18
1 -17 -14 -32 -33 -23 -20 -16
0 -17 -9 -33 -30 -19 -16 -12
-3 -13 -19 -38 -34 -22 -21 -16
-4 -16 -15 -38 -33 -23 -22 -17
-5 -22 -11 -38 -40 -26 -23 -17
-6 -18 -10 -42 -39 -25 -22 -15
-9 -7 -13 -43 -41 -28 -25 -21
-9 -13 -14 -40 -41 -27 -23 -16
-8 -18 -12 -35 -36 -23 -19 -14
-7 -12 -13 -38 -33 -22 -20 -16
-4 -11 -15 -33 -33 -24 -21 -18
-1 -13 -13 -28 -31 -22 -22 -15
-1 -10 -13 -31 -32 -21 -25 -16
0 -11 -16 -42 -37 -24 -28 -19
0 -22 -22 -42 -37 -28 -29 -18
-2 -24 -23 -44 -39 -27 -30 -18
-1 -14 -17 -44 -41 -26 -28 -19
1 -6 -14 -43 -31 -27 -28 -20
1 -3 -16 -40 -32 -27 -29 -21
2 -9 -10 -38 -32 -20 -25 -17
2 -9 -6 -36 -31 -25 -28 -18
1 -18 -2 -31 -25 -19 -24 -18
-1 -20 -10 -25 -16 -11 -20 -14
0 -18 -8 -13 -15 -9 -22 -17
4 -22 2 9 -5 -1 -20 -19
3 -21 6 20 11 12 -15 -18
5 -12 10 40 33 29 -5 -13
15 0 12 64 59 54 13 -2
18 10 18 89 83 84 33 12
23 28 27 120 119 118 55 27
39 31 37 156 160 154 83 44
58 44 40 185 196 197 118 63
74 61 46 232 238 241 156 85
81 73 52 266 274 283 189 102
79 73 54 277 304 322 225 121
75 83 55 244 316 349 254 138
65 85 60 207 306 355 270 149
46 74 73 156 281 337 268 143
23 51 79 58 211 278 234 121
-5 14 67 -62 98 175 162 80
-34 -29 62 -169 -47 23 45 14
-69 -73 69 -258 -188 -155 -95 -56
-105 -99 72 -355 -322 -324 -218 -115
-135 -99 64 -440 -435 -465 -306 -149
-158 -112 46 -494 -490 -520 -348 -165
-173 -108 25 -539 -512 -531 -358 -167
-186 -106 22 -560 -532 -544 -373 -178
-200 -130 16 -577 -559 -563 -396 -198
-205 -151 1 -597 -578 -584 -414 -213
-205 -169 -21 -601 -598 -592 -422 -225
-198 -190 -50 -596 -610 -593 -428 -236
-185 -206 -69 -585 -604 -586 -425 -242
-174 -215 -88 -590 -607 -578 -418 -240
-162 -209 -109 -589 -597 -561 -405 -233
-152 -204 -114 -571 -563 -529 -380 -222
-145 -192 -121 -546 -525 -488 -349 -201
-129 -169 -132 -510 -475 -446 -319 -183
-108 -147 -136 -470 -437 -405 -291 -168
-92 -131 -131 -428 -396 -361 -259 -146
-80 -111 -127 -388 -346 -319 -230 -129
-68 -96 -115 -348 -304 -281 -202 -113
-54 -79 -102 -303 -259 -238 -170 -93
-42 -62 -83 -253 -211 -194 -140 -72
-36 -48 -68 -204 -173 -155 -112 -57
-24 -32 -52 -166 -134 -125 -91 -44
-15 -19 -39 -126 -98 -89 -66 -27
-9 -12 -31 -94 -74 -68 -52 -20
-7 -7 -21 -71 -51 -52 -41 -15
-6 -5 -15 -53 -35 -37 -32 -9
0 8 -17 -40 -28 -27 -24 -5
4 6 -17 -28 -23 -21 -20 -4
4 1 -15 -17 -14 -12 -13 -1
6 3 -15 -14 -11 -6 -11 0
8 4 -12 -10 -7 -4 -10 -1
9 1 -12 -4 -2 -3 -10 -1
9 2 -6 -1 7 6 -4 4
9 7 -2 0 7 7 -4 4
13 9 -4 4 6 9 -3 1
13 5 0 11 11 14 1 6
11 9 2 16 21 19 7 9
14 10 -9 22 21 19 7 5
15 7 -9 28 29 25 12 14
11 19 -9 25 30 25 14 14
14 18 -1 27 24 26 16 13
18 13 -1 23 24 24 13 12
17 11 -1 28 26 29 16 16
17 15 2 32 30 30 17 18
21 12 4 30 36 31 18 15
24 11 5 31 36 34 20 19
20 15 0 32 36 38 23 25
19 12 0 41 40 38 23 20
20 14 2 40 42 40 24 19
20 19 1 39 42 40 25 20
23 15 0 48 41 41 27 22
22 13 2 54 45 42 29 23
24 17 3 48 44 46 32 27
22 23 2 48 50 47 33 26
25 25 -1 52 44 47 30 22
24 21 0 56 48 52 33 25
32 33 -1 58 59 57 37 28
36 30 -1 63 66 60 39 28
34 25 1 69 62 63 41 29
28 26 2 70 62 65 44 31
24 22 0 73 64 65 45 30
27 16 6 76 66 67 47 32
32 23 3 81 66 69 48 31
34 26 3 89 72 72 49 31
38 28 1 96 76 73 50 32
34 27 -1 89 81 76 49 31
39 34 6 96 86 82 54 31
42 34 11 105 89 87 59 35
44 37 3 107 93 89 60 36
48 38 3 111 99 92 64 41
48 37 1 121 96 92 64 44
43 32 -1 124 100 93 63 38
43 33 2 125 103 99 65 44
50 43 4 125 111 98 64 43
55 42 4 140 114 103 68 41
53 42 6 153 114 110 73 44
54 47 8 161 120 115 77 45
59 41 6 166 123 118 80 47
58 42 6 167 131 124 85 55
59 46 11 171 135 128 88 58
57 56 7 171 130 123 83 55
56 50 2 172 127 123 83 54
56 48 6 171 131 127 84 55
57 49 11 173 131 128 86 53
65 49 12 179 137 132 89 56
70 55 13 191 148 138 94 61
66 55 15 202 152 143 99 61
68 52 16 199 148 140 97 58
68 53 15 206 146 141 98 62
64 62 12 207 146 139 96 62
67 62 17 201 151 138 96 61
66 55 17 200 156 139 98 63
64 59 19 201 153 141 99 65
63 62 20 196 149 138 97 64
64 58 17 198 148 136 95 63
64 58 14 198 148 138 96 59
66 66 16 204 157 141 99 62
68 61 17 204 154 138 99 61
67 54 18 201 151 139 102 64
64 59 17 195 151 139 100 65
60 62 21 198 148 135 100 65
59 56 22 193 150 132 98 64
57 62 23 183 145 130 95 64
57 60 23 178 137 127 92 62
48 55 23 174 138 125 92 61
45 53 24 168 133 123 89 62
44 59 20 159 133 118 83 58
42 49 18 162 129 113 81 57
45 40 19 156 121 111 81 59
51 52 21 140 111 105 75 57
45 49 15 131 108 98 72 52
36 39 18 127 105 94 69 51
32 43 19 126 101 92 66 49
35 45 19 119 95 87 62 45
38 43 19 109 92 81 57 43
36 40 13 94 85 76 54 42
31 40 12 91 82 76 57 41
30 39 12 85 78 70 55 38
22 35 11 86 77 69 53 40
23 32 7 71 68 63 50 38
21 28 11 70 65 56 45 35
21 24 12 66 56 47 39 30
17 24 8 45 50 44 35 28
14 17 11 40 45 42 34 28
20 16 9 41 43 37 30 26
19 20 7 32 39 31 24 19
15 25 11 21 39 29 21 19
11 12 6 23 35 25 19 16
6 12 -2 16 33 22 17 17
9 14 -2 14 27 19 14 15
12 11 2 10 23 18 16 15
12 7 7 10 20 16 14 14
6 11 0 3 18 14 10 12
4 8 3 4 23 13 10 13
5 7 6 -1 14 6 6 7
5 8 -1 -6 16 3 2 3
3 6 -3 -7 6 1 2 3
3 4 -7 -8 4 -4 -1 1
0 0 -5 -10 7 -3 0 4
-6 -6 0 -15 6 -2 1 6
-5 -4 0 -16 10 -4 1 5
-5 -5 0 -19 10 -6 -2 4
-7 -1 2 -18 2 -5 -2 4
-4 -3 3 -13 0 -7 -4 1
-3 -3 -1 -14 1 -10 -7 -2
-3 -5 -2 -17 5 -9 -6 -1
-5 -1 -3 -18 0 -8 -6 -2
-2 0 -6 -17 -2 -13 -8 -4
-1 -2 -6 -19 1 -12 -8 -4
-2 -7 -1 -17 1 -7 -5 0
-8 -5 -3 -19 0 -9 -6 -2
-9 -6 -5 -22 0 -10 -8 3
-4 3 -3 -18 3 -7 -6 0
0 6 -1 -14 2 -6 -4 1
0 0 1 -15 3 -6 -3 0
0 -4 -3 -15 5 -7 -5 1
-2 -3 -6 -10 11 -5 -2 0
-6 -10 -7 -13 4 -10 -4 -3
-5 -10 -7 -18 2 -10 -5 -3
-1 -3 -2 -17 1 -9 -5 -3
-2 -3 -1 -14 0 -11 -6 -4
-4 -6 -11 -18 0 -16 -11 -7
-3 -2 -6 -19 0 -12 -8 -3
-2 1 -3 -16 1 -13 -10 -4
-2 1 -6 -13 0 -13 -10 -6
-1 -1 1 -10 3 -7 -6 0
-1 6 1 -11 4 -8 -5 -3
1 3 -5 -12 5 -10 -5 -4
-3 -9 -5 -10 4 -8 -2 -1
-6 1 -9 -16 -1 -11 -5 -4
-2 -1 -8 -13 -2 -13 -6 -5
0 -10 -9 -15 2 -12 -5 -4
0 -3 -6 -14 9 -5 -1 0
-7 -3 -5 -12 12 -4 0 2
-6 -1 -7 -11 12 -6 0 0
-3 4 -10 -9 9 -6 -1 -1
-6 -1 -7 -5 12 -3 3 4
-3 -2 -9 -4 12 -4 0 1
-2 -1 -9 -8 13 -5 -1 0
-2 0 -6 -6 12 -5 0 2
-5 6 -10 -15 4 -11 -3 -4
-4 1 -15 -21 4 -14 -7 -8
-2 -7 -5 -16 17 -9 -4 -4
2 0 -6 -14 7 -11 -6 -3
1 3 -4 -11 7 -12 -6 -5
1 2 -6 -10 12 -10 -5 -6
0 -2 -5 -5 11 -8 -2 -3
-2 -3 -4 -10 5 -13 -5 -4
-4 -8 -3 -14 10 -12 -3 -4
-5 -8 -8 -14 8 -10 -3 -3
-8 -5 -12 -16 1 -10 -3 -3
-8 -11 -6 -12 4 -10 -2 1
-6 -9 -3 -14 3 -10 -2 0
-9 -7 -7 -14 1 -11 -2 -2
-8 -6 -8 -9 0 -11 -1 -3
-9 -8 -7 -14 1 -12 -3 -4
-7 -5 -8 -17 3 -10 -1 -4
-7 -6 -10 -16 4 -12 -1 -4
-5 -4 -6 -14 6 -10 0 -2
-2 3 -6 -17 3 -11 -2 -3
-6 -1 -7 -15 1 -15 -5 -6
-14 -13 -7 -13 -5 -17 -7 -4
-17 -6 -10 -21 -6 -14 -6 -2
-9 4 -5 -20 0 -13 -4 1
-2 0 -5 -15 3 -13 -2 2
-5 -2 -7 -17 1 -13 -4 1
-6 -2 -3 -16 3 -9 -1 3
-2 -1 -6 -14 6 -10 -1 0
-1 -2 -11 -17 4 -12 -3 -4
1 3 -9 -17 5 -13 -6 -3
0 4 -13 -21 3 -13 -4 -3
-1 0 -13 -23 -1 -15 -4 -5
-2 2 -10 -21 -1 -12 -2 0
-2 2 -8 -22 -1 -13 -2 5
-3 -1 -2 -14 -2 -13 -1 1
-2 3 -6 -16 0 -9 0 -2
-1 5 -3 -14 5 -6 3 1
-4 3 -4 -18 3 -12 0 -2
-5 9 -6 -15 -1 -12 0 -3
4 18 0 -5 3 -6 4 2
10 20 0 -1 8 -2 8 9
11 13 7 -1 8 -1 10 8
6 15 10 -2 14 3 10 9
4 18 0 3 11 1 8 5
2 16 0 2 6 -1 6 1
2 14 0 -2 6 0 6 3
1 16 -3 -2 7 -1 7 4
-2 13 -6 -6 6 -4 4 -1
-1 11 -8 -3 10 -2 7 3
4 15 -6 6 10 1 8 8
5 16 -6 2 14 2 11 8
1 17 -2 4 11 4 12 10
1 17 -1 1 11 5 16 13
2 21 -13 -9 5 -1 11 8
0 16 -17 -12 2 -4 7 6
-2 6 -15 -11 8 -1 9 8
0 7 -9 -15 7 -2 8 7
3 3 -13 -14 1 -6 4 4
7 6 -15 -8 4 -3 6 8
7 13 -18 -14 4 -5 4 5
4 1 -17 -19 3 -7 2 3
7 -2 -19 -20 2 -10 -2 0
3 -2 -17 -23 -7 -10 -1 4
-4 -7 -17 -17 -7 -13 -3 -1
-3 -12 -10 -14 -8 -10 -2 -2
2 -8 -13 -16 -6 -8 -1 0
0 1 -10 -22 -5 -8 1 1
-1 -4 -11 -20 -7 -11 -2 -1
-1 -2 -15 -20 -14 -16 -7 -5
2 -4 -12 -27 -16 -18 -10 -8
-2 -14 -15 -29 -20 -22 -14 -12
-4 -15 -16 -32 -19 -26 -18 -15
-2 -10 -15 -32 -20 -21 -13 -10
-6 -9 -12 -31 -19 -23 -14 -10
-16 -14 -10 -30 -17 -22 -15 -7
-19 -14 -11 -25 -13 -20 -14 -9
-16 -9 -7 -25 -9 -17 -12 -3
-14 -11 -8 -27 -9 -20 -13 -6
-16 -17 -9 -28 -16 -21 -14 -10
-14 -17 -8 -27 -13 -22 -15 -11
-11 -12 -13 -27 -15 -25 -18 -14
-10 -13 -16 -31 -24 -29 -19 -15
-11 -13 -10 -27 -17 -26 -19 -10
-12 -14 -8 -29 -19 -28 -20 -15
-15 -18 -12 -33 -21 -29 -22 -16
-13 -23 -10 -29 -18 -23 -19 -14
-13 -22 -9 -32 -16 -21 -17 -10
-14 -21 -13 -29 -20 -24 -18 -13
-13 -15 -14 -26 -17 -24 -16 -8
-13 -15 -18 -37 -22 -24 -17 -5
-15 -18 -16 -36 -23 -27 -20 -6
-17 -18 -14 -34 -18 -29 -20 -8
-19 -17 -7 -34 -19 -26 -18 -6
-10 -12 -7 -36 -19 -28 -21 -15
-12 -16 -8 -33 -15 -27 -20 -12
-15 -20 -11 -31 -21 -24 -18 -12
-13 -13 -7 -30 -24 -23 -19 -13
-18 -19 -1 -25 -20 -26 -20 -13
-21 -25 -7 -29 -16 -26 -18 -10
-23 -23 -5 -30 -22 -25 -18 -11
-25 -24 -4 -29 -22 -24 -17 -12
-23 -22 -12 -30 -23 -26 -18 -15
-22 -24 -13 -28 -24 -24 -17 -13
-23 -19 -12 -30 -20 -27 -19 -15
-19 -15 -11 -28 -18 -29 -21 -15
-15 -15 -10 -28 -19 -27 -20 -16
-15 -11 -5 -27 -17 -24 -18 -16
-12 -11 -8 -23 -14 -24 -17 -17
-14 -15 -7 -20 -8 -22 -16 -13
-15 -15 -8 -21 -11 -19 -15 -11
-16 -18 -5 -15 -12 -14 -11 -13
-12 -25 3 -6 -6 -10 -11 -14
-11 -20 5 10 9 -2 -10 -15
-9 -20 7 32 19 8 -8 -15
-3 -11 14 47 39 23 1 -10
7 -3 17 67 68 50 19 3
10 10 20 89 97 79 39 13
14 19 28 128 131 109 61 27
23 25 29 157 166 146 87 46
38 36 31 176 205 187 121 66
53 49 37 213 238 228 158 87
60 56 46 252 276 270 192 106
69 74 62 275 314 314 228 124
73 82 65 268 332 344 259 137
60 81 59 221 325 353 278 146
41 75 71 185 305 351 288 151
13 61 73 102 242 299 255 127
-16 23 62 -14 135 202 191 84
-39 -27 55 -123 5 71 94 33
-72 -72 61 -218 -135 -104 -41 -34
-108 -105 73 -305 -268 -276 -172 -99
-145 -123 74 -393 -396 -431 -273 -141
-169 -123 59 -446 -464 -508 -330 -159
-173 -118 37 -490 -485 -528 -348 -169
-185 -121 23 -524 -504 -542 -362 -180
-195 -132 9 -543 -533 -561 -384 -199
-203 -148 -4 -563 -564 -581 -404 -218
-207 -173 -17 -575 -586 -595 -414 -231
-205 -184 -41 -576 -599 -601 -421 -243
-195 -196 -63 -565 -595 -590 -417 -246
-185 -208 -83 -567 -591 -580 -410 -248
-177 -213 -100 -564 -585 -565 -399 -246
-172 -206 -115 -550 -554 -532 -375 -232
-159 -194 -124 -530 -526 -501 -352 -217
-141 -177 -130 -506 -494 -466 -325 -203
-121 -151 -136 -468 -447 -420 -290 -182
-107 -125 -140 -434 -403 -374 -258 -158
-95 -126 -132 -393 -356 -336 -228 -141
-83 -114 -125 -353 -310 -299 -202 -125
-72 -85 -117 -313 -275 -261 -175 -109
-61 -73 -102 -263 -222 -217 -143 -89
-52 -68 -86 -214 -185 -176 -113 -69
-43 -46 -71 -170 -143 -137 -88 -49
-34 -29 -49 -133 -111 -105 -65 -40
-24 -11 -36 -100 -85 -83 -49 -31
-18 -7 -34 -70 -63 -63 -38 -24
-13 -1 -27 -51 -42 -45 -28 -17
-7 -3 -24 -33 -33 -34 -20 -13
-9 -3 -17 -15 -17 -20 -9 -6
-9 9 -15 -10 -7 -11 -4 -2
-10 11 -8 0 -3 -4 2 0
-11 4 -10 2 0 -3 3 -1
-8 6 -5 7 6 6 7 2
-6 10 -6 13 5 6 8 -1
-3 10 -5 12 8 8 9 -2
-2 15 -7 16 16 12 11 4
-2 13 -7 17 18 16 13 4
1 12 -9 20 17 18 15 1
6 12 -9 23 17 20 16 3
3 8 -5 31 19 23 18 5
0 8 -6 30 25 23 20 5
-3 7 -7 29 25 23 20 8
-2 11 -3 30 29 25 22 10
7 15 -1 33 31 29 26 10
10 13 -2 38 29 30 27 10
9 12 -5 43 32 33 30 15
5 17 4 45 38 39 34 17
3 9 3 47 42 39 36 17
6 16 -2 48 42 42 38 19
9 24 -5 52 43 43 38 18
11 17 -5 59 47 43 39 19
11 9 -4 54 50 44 39 18
11 16 -4 47 41 41 36 14
10 23 4 48 39 41 35 13
14 20 2 58 45 46 39 18
14 21 -2 65 56 52 44 18
19 28 -1 68 63 58 47 20
21 22 -1 73 64 60 49 21
23 19 -4 81 72 65 53 25
23 23 -6 77 67 67 53 26
21 23 -6 76 64 66 51 25
19 19 -1 82 65 66 51 23
21 24 1 85 65 70 53 26
23 26 -1 91 73 73 54 22
27 31 0 100 73 75 54 19
30 34 -3 103 75 78 56 21
31 35 -1 112 87 86 62 29
32 35 0 114 95 90 65 31
31 36 0 115 95 94 68 33
32 33 1 117 93 98 68 32
30 34 6 123 96 101 70 32
25 30 4 133 99 104 73 32
30 33 6 137 105 109 74 34
36 35 10 143 107 111 75 35
43 36 12 155 106 113 75 33
47 37 9 163 111 117 77 33
48 39 10 164 119 123 81 36
53 41 19 168 129 125 82 36
50 43 16 174 129 129 85 39
48 46 9 179 132 135 89 43
45 46 11 184 137 137 91 46
43 40 13 192 137 138 95 49
48 51 16 194 142 140 93 49
49 56 16 198 142 142 93 46
45 46 23 205 145 148 98 51
44 38 29 209 152 155 104 54
42 41 27 217 157 158 105 56
43 41 18 223 155 156 104 51
43 45 22 224 157 157 105 53
46 45 29 224 163 164 109 57
51 49 27 230 162 161 107 57
55 54 23 224 157 156 105 54
58 58 22 224 162 158 105 54
61 66 22 229 161 157 103 53
57 62 23 225 155 157 102 54
56 55 26 231 160 161 106 55
60 61 27 237 165 164 109 56
59 55 32 235 168 162 109 56
56 52 28 235 162 160 109 56
56 56 29 228 163 160 110 59
54 60 31 219 162 157 110 58
51 56 25 217 158 153 109 56
50 60 20 213 148 150 104 54
50 49 26 222 148 149 103 55
54 53 32 211 146 146 101 53
54 59 38 201 143 142 99 51
53 66 35 197 141 140 98 51
54 56 29 192 141 136 96 53
49 52 26 187 141 130 93 53
40 52 28 188 140 127 92 50
32 49 23 179 130 120 87 46
26 44 20 160 120 111 82 43
28 45 27 152 115 112 83 46
30 50 25 148 111 105 81 42
33 46 23 141 106 97 75 37
29 35 20 134 99 93 69 33
25 34 21 122 97 89 66 31
28 34 20 112 93 84 63 29
27 33 16 106 85 78 61 27
25 32 19 98 83 76 59 28
23 30 19 88 75 72 56 27
21 27 15 76 60 62 50 21
18 28 16 72 57 59 47 23
18 29 15 76 58 55 44 21
20 25 14 62 52 50 40 20
15 18 10 53 54 48 38 16
10 17 10 49 46 43 35 12
10 11 10 45 37 37 31 13
6 10 11 44 34 35 31 12
5 14 8 33 32 30 29 10
1 14 5 29 31 26 25 7
-5 6 9 34 23 26 26 9
-7 1 7 29 23 26 24 9
-1 4 2 16 15 19 17 1
5 12 4 17 14 16 16 1
6 12 6 19 20 17 17 1
6 11 9 20 17 17 16 0
11 8 2 16 12 12 13 -3
2 2 3 14 14 13 13 -1
-5 -2 3 16 13 11 13 -1
-5 2 2 12 4 6 9 -3
-6 -4 4 13 6 5 7 -4
-9 -7 5 10 5 4 6 -3
-6 -5 3 4 -3 -1 2 -8
-3 -5 3 5 2 0 2 -7
-4 -2 1 2 3 -2 1 -5
-7 1 -3 3 6 -2 1 -7
-3 -4 0 3 2 -1 4 -6
-3 -5 0 4 0 -1 4 -5
-3 -2 0 4 -1 -4 2 -7
-5 -4 3 5 -2 -5 2 -7
-6 -6 0 1 -5 -7 -1 -9
-7 -6 4 3 -7 -3 2 -6
-5 -4 1 0 -7 -6 -1 -8
-6 -3 0 2 -3 -6 -1 -9
-10 -2 -4 2 -2 -6 -3 -13
-13 -6 0 6 -3 -2 1 -10
-8 -13 2 7 -1 -4 1 -5
-2 -8 -1 1 -6 -6 -3 -6
0 -5 -3 -2 -1 -7 -3 -7
-2 -6 -2 -1 -4 -6 -2 -6
-4 -11 -3 -3 -7 -7 -3 -9
-3 -6 1 -3 -3 -4 -4 -9
-5 -9 5 -2 -3 -6 -5 -9
-5 -7 3 2 -10 -8 -8 -12
-2 -4 4 -2 -4 -7 -7 -10
1 3 2 -1 1 -5 -4 -8
5 0 0 4 0 -8 -6 -11
6 0 -4 -3 -8 -9 -8 -13
3 1 -4 -4 -2 -8 -7 -8
1 2 1 3 2 -7 -5 -9
3 -9 0 1 4 -7 -5 -10
2 -6 7 1 -2 -4 -4 -8
-2 -1 8 5 -2 -5 -3 -7
-8 -4 4 1 -3 -3 -2 -7
-7 -7 4 7 -3 -2 -1 -7
-4 -7 2 5 -2 -3 -2 -8
-5 -4 1 1 -4 -7 -4 -8
0 2 0 6 -6 -4 -2 -9
0 3 2 4 1 -3 -1 -5
-2 -4 2 8 3 -2 0 -3
-4 -6 2 3 -3 -2 0 -1
-7 -4 5 -1 -3 -2 -2 -4
-7 0 5 -1 -5 -5 -5 -7
-2 2 0 3 -7 -6 -6 -10
1 -2 -2 7 -5 -3 -4 -5
2 -2 -2 0 -5 -2 -3 -6
-4 -2 -4 -3 -6 -6 -6 -10
-6 -1 -2 -3 -9 -6 -6 -10
-3 -9 -6 0 -6 -2 -4 -6
-4 -9 -5 0 -4 -4 -5 -6
-1 -5 -2 -2 -1 -4 -5 -5
-3 0 5 -2 -3 -3 -5 -5
-8 -3 -2 -5 -2 -6 -6 -7
-4 -5 -2 -7 -4 -7 -7 -6
-3 -6 -1 -8 -5 -7 -8 -5
-2 2 -2 -7 -7 -8 -8 -11
2 -4 1 -6 -6 -4 -4 -4
2 -5 0 -8 -7 -5 -3 0
-1 -5 1 -7 -1 -4 -4 -4
-5 -10 3 -5 -2 -3 -2 -3
-9 -15 -1 -6 -3 -5 -3 -4
-6 -6 1 -8 -9 -3 -3 -1
-2 -4 -2 -7 -8 -5 -5 -4
-3 -3 0 -11 -9 -8 -8 -8
-1 -3 -5 -11 -10 -5 -6 -6
3 0 -4 -8 -9 -5 -6 -9
4 -7 -1 -6 -8 -7 -7 -9
2 -6 -4 -8 -10 -7 -7 -8
2 0 -2 -8 -6 -7 -8 -5
5 2 -4 -9 -9 -8 -9 -6
4 -6 -6 -13 -11 -8 -9 -6
2 -4 -6 -10 0 -5 -7 -2
1 -8 3 -11 -3 -2 -5 0
6 -3 1 -13 -9 -3 -5 -3
10 4 0 -8 -7 -1 -6 -3
8 7 6 -7 0 4 -2 -2
9 6 -1 -6 -3 2 -5 -4
14 2 -3 -5 -3 5 -2 -1
14 8 1 -2 3 6 -2 1
9 9 5 5 9 8 2 4
5 10 5 5 6 7 1 5
3 11 9 9 5 9 1 6
4 11 7 3 2 7 -1 3
6 13 7 -2 -2 5 -3 0
4 11 9 3 1 7 -1 2
7 12 10 4 5 9 1 2
9 5 3 2 7 5 -2 0
9 5 4 4 5 4 -1 3
10 12 5 1 -1 6 1 5
8 15 2 2 1 7 4 7
7 17 0 -2 -3 6 3 7
-1 24 -5 -4 -4 4 1 7
-3 9 -7 -3 -1 2 -2 5
4 3 -3 -10 -6 1 -2 4
10 5 -3 -10 -1 5 0 11
12 15 -6 -8 5 6 1 9
14 17 -13 -10 -3 1 -3 5
16 7 -10 -13 -10 2 0 9
16 6 -13 -12 -11 1 -2 6
16 3 -17 -15 -10 -2 -3 2
13 -3 -13 -11 -14 -3 -4 5
13 4 -6 -20 -19 -4 -5 6
14 -3 -5 -25 -17 -5 -7 6
11 -6 -9 -22 -12 -7 -9 1
12 0 -9 -20 -18 -10 -13 -1
8 -3 -9 -26 -21 -8 -11 2
8 -5 -8 -27 -25 -11 -13 0
3 -7 -7 -23 -21 -9 -12 1
5 -8 -3 -22 -20 -8 -11 4
9 0 -6 -30 -26 -12 -15 -5
9 -11 -8 -31 -32 -16 -18 -6
12 -10 -8 -34 -33 -16 -18 -7
13 -9 -9 -34 -34 -17 -21 -9
5 -12 -7 -29 -29 -18 -21 -11
-3 -11 0 -26 -29 -15 -21 -10
-3 -15 0 -29 -25 -13 -19 -9
3 -17 -10 -32 -30 -20 -24 -14
-3 -21 -11 -35 -36 -22 -26 -13
-10 -20 -11 -41 -37 -23 -27 -12
-6 -16 -13 -45 -31 -25 -28 -11
-6 -25 -8 -40 -29 -23 -24 -6
-5 -16 -8 -42 -35 -24 -24 -8
-4 -11 -6 -43 -35 -23 -25 -12
-3 -15 -6 -40 -32 -22 -23 -10
-2 -18 -9 -34 -31 -19 -22 -4
0 -15 -9 -37 -34 -19 -22 -8
-1 -11 -12 -43 -31 -21 -24 -7
-2 -10 -14 -42 -28 -20 -23 -7
-5 -17 -13 -41 -37 -21 -27 -9
-9 -20 -12 -42 -33 -25 -29 -11
-9 -26 -13 -45 -33 -26 -29 -11
-9 -25 -13 -47 -37 -25 -28 -10
-9 -25 -10 -50 -37 -25 -28 -10
-2 -19 -9 -46 -34 -25 -27 -11
1 -16 -8 -46 -33 -24 -27 -9
-2 -10 -9 -48 -30 -24 -29 -7
-6 -23 -6 -46 -35 -25 -28 -11
-2 -22 -6 -47 -39 -24 -28 -10
1 -11 -7 -43 -34 -23 -27 -6
-3 -12 -8 -45 -33 -24 -27 -9
-8 -20 -5 -47 -37 -26 -27 -9
-7 -16 -6 -46 -32 -24 -25 -7
-3 -12 -8 -39 -32 -24 -25 -5
-2 -15 -4 -40 -26 -24 -24 -6
-3 -22 -1 -41 -29 -21 -24 -9
-7 -17 -8 -43 -34 -22 -26 -7
-10 -22 -9 -42 -32 -23 -27 -11
-11 -24 -9 -39 -34 -21 -26 -12
-13 -26 -7 -34 -31 -19 -25 -12
-6 -25 -3 -30 -29 -15 -23 -11
4 -19 4 -15 -19 -10 -23 -12
7 -7 9 3 -3 2 -20 -13
11 -3 9 24 11 15 -15 -7
21 -5 16 48 41 36 0 1
29 3 19 68 68 64 17 8
29 13 24 97 95 93 37 21
37 23 27 129 126 123 59 32
49 34 32 151 161 160 86 48
61 47 32 176 198 202 121 68
71 58 43 214 237 243 156 87
70 66 52 254 281 287 191 108
71 76 59 270 320 333 230 130
72 86 57 240 327 356 256 144
56 91 58 197 309 358 273 155
35 71 71 147 280 342 271 152
5 45 74 37 199 276 234 126
-22 6 63 -86 81 169 163 85
-42 -35 54 -196 -58 20 51 22
-72 -74 56 -294 -217 -168 -92 -54
-98 -114 62 -382 -357 -340 -215 -111
-125 -128 58 -462 -472 -480 -304 -144
-145 -118 34 -513 -528 -536 -348 -164
-153 -116 7 -553 -536 -551 -363 -172
-164 -119 3 -574 -557 -560 -375 -180
-178 -130 -10 -594 -586 -579 -397 -198
-185 -150 -23 -606 -607 -594 -415 -215
-188 -166 -46 -614 -623 -605 -425 -226
-180 -182 -68 -611 -631 -604 -429 -238
-171 -199 -92 -605 -621 -591 -424 -241
-163 -211 -113 -601 -609 -580 -416 -244
-156 -217 -129 -594 -603 -560 -401 -237
-145 -199 -137 -576 -573 -526 -378 -226
-134 -179 -144 -554 -536 -492 -354 -210
-119 -161 -145 -513 -496 -448 -321 -186
-99 -143 -142 -477 -448 -402 -287 -167
-87 -128 -144 -444 -409 -362 -262 -151
-76 -118 -144 -406 -372 -328 -235 -137
-66 -104 -129 -361 -321 -285 -206 -117
-55 -80 -114 -317 -274 -243 -176 -97
-43 -65 -101 -271 -232 -202 -146 -77
-35 -57 -84 -219 -190 -163 -119 -60
-27 -36 -66 -177 -146 -125 -93 -44
-21 -22 -54 -144 -114 -95 -73 -31
-16 -12 -42 -110 -89 -71 -57 -22
-12 -3 -27 -79 -66 -51 -43 -13
-7 4 -24 -60 -46 -35 -35 -6
-3 8 -23 -46 -36 -28 -29 -5
3 3 -13 -35 -22 -15 -21 4
7 8 -10 -23 -14 -8 -16 4
3 5 -8 -22 -10 -5 -13 3
0 -1 -12 -18 -13 -5 -13 1
6 9 -10 -17 -7 -3 -13 4
10 16 -4 -7 2 2 -9 7
7 11 -6 -4 5 5 -7 2
9 9 1 1 8 13 0 7
13 14 1 6 11 21 4 9
13 6 -3 10 13 20 5 9
17 14 -5 15 20 24 9 14
16 17 -5 14 18 25 9 16
13 10 -2 15 25 26 11 15
12 8 -1 23 26 25 12 16
12 9 1 23 19 27 12 18
16 11 -2 19 18 25 10 16
16 8 -1 25 25 28 13 19
13 7 -1 26 35 31 16 19
17 12 0 31 36 35 17 20
20 11 -1 36 32 36 20 21
20 10 -1 37 38 38 23 20
17 11 -2 35 38 42 25 21
18 8 3 39 41 43 27 22
22 11 2 39 39 41 25 20
22 20 5 41 53 46 26 23
24 21 5 44 52 48 27 27
25 22 4 51 48 47 26 22
26 18 8 55 45 48 27 22
25 17 4 57 51 54 29 25
26 14 2 59 56 56 32 24
26 20 1 64 59 59 34 27
28 22 0 71 64 64 38 31
29 19 4 72 69 64 38 32
28 15 4 68 59 62 37 29
27 21 13 72 61 67 38 31
27 22 11 78 67 71 41 33
31 24 12 85 74 75 44 34
33 26 14 97 82 79 46 38
36 32 12 103 88 84 46 37
42 33 15 105 88 87 51 36
41 25 12 114 93 94 56 40
40 28 7 117 99 96 56 41
40 34 8 123 100 97 57 41
35 27 13 134 100 98 60 44
35 31 16 139 103 104 63 47
44 42 24 143 112 107 64 47
52 46 19 149 119 111 67 47
55 46 15 150 116 113 67 45
55 40 18 160 122 120 69 48
53 39 15 161 127 119 70 49
51 41 15 166 132 122 75 51
49 40 13 176 131 124 75 49
50 38 20 179 134 127 79 51
52 39 27 184 141 128 82 53
52 43 25 184 143 133 83 55
53 42 30 189 147 136 85 57
54 45 28 197 149 139 86 55
57 48 24 204 148 141 88 56
60 53 28 208 151 146 90 57
61 51 27 214 156 145 91 59
61 49 27 210 158 148 93 62
62 52 27 211 161 149 93 59
63 54 26 218 160 149 96 61
59 49 28 223 164 148 96 62
56 54 28 218 161 147 93 61
56 49 32 220 161 144 90 58
55 43 37 221 160 147 93 61
59 48 33 221 162 150 96 65
57 52 37 220 165 154 98 65
57 53 34 223 162 151 97 63
61 58 33 225 159 151 97 65
61 60 36 225 160 150 96 68
60 55 38 220 157 145 93 65
58 53 33 207 153 136 89 61
53 59 36 203 151 136 88 65
55 66 36 201 149 131 85 65
59 62 34 198 144 128 85 60
56 58 36 190 139 126 83 59
51 55 41 182 138 126 83 62
48 58 39 180 135 123 83 63
47 53 35 176 137 120 82 61
44 48 30 169 127 117 79 62
38 43 31 159 127 111 75 60
35 45 29 147 115 100 69 51
39 50 27 135 108 97 66 51
39 46 29 132 103 93 63 50
34 45 26 124 93 85 58 45
34 42 31 118 90 81 55 44
36 38 32 113 87 82 56 45
37 35 29 108 86 77 56 44
28 35 26 101 84 74 54 45
16 34 24 90 74 70 51 44
17 34 21 79 72 62 46 41
14 29 18 72 62 52 38 35
10 22 17 67 52 48 33 37
9 20 17 58 48 42 29 32
6 12 14 49 43 39 28 26
4 14 10 43 38 34 22 21
9 23 7 44 35 31 20 19
15 22 5 40 29 26 17 16
19 14 7 36 34 29 20 20
18 16 6 27 37 27 18 21
14 9 8 21 27 22 17 19
8 5 8 13 23 16 12 14
0 8 10 11 23 16 12 15
0 12 9 11 14 14 9 13
1 7 8 10 13 11 7 14
1 8 7 8 9 9 4 11
1 7 7 12 9 9 4 9
1 -2 6 7 10 6 2 7
-1 -6 2 6 6 6 2 7
-1 -5 6 6 9 10 6 11
1 7 4 0 9 5 3 8
2 9 0 -2 0 1 -1 7
-1 5 4 0 2 1 -2 10
-6 2 6 0 0 -1 -4 4
-3 0 8 -4 -2 -4 -6 2
0 -3 7 -7 -4 -1 -4 4
-1 -3 6 -7 -1 -1 -3 4
-2 -5 3 -1 -2 -4 -4 2
-5 -12 1 -1 -3 -3 -4 3
-5 -5 -1 -10 -6 -5 -6 1
-5 -5 3 -12 -10 -5 -6 5
-5 -9 1 -12 -14 -8 -8 4
-5 -2 -1 -8 -10 -6 -7 6
-8 -6 2 -6 -13 -7 -8 2
-7 -10 9 -4 -11 -10 -10 0
-8 -3 3 -8 -12 -10 -12 -3
-13 -8 5 -6 -9 -6 -8 0
-9 -12 4 1 -8 -6 -6 1
-5 -10 1 -1 -6 -5 -5 2
-2 -5 4 -1 -3 -3 -2 5
1 0 3 -7 -2 -5 -4 6
-5 -6 1 -6 -7 -5 -5 2
-3 0 2 -5 -3 -3 -3 4
1 3 -2 -10 -3 -6 -8 2
2 -2 -2 -8 -8 -6 -9 0
6 -7 -4 -6 -2 -4 -8 0
8 1 0 1 5 -1 -4 3
2 -7 5 -4 -3 -2 -3 1
-7 -15 8 2 1 2 1 6
-16 -10 6 -3 0 0 0 5
-16 -9 10 -3 -6 -2 -3 3
-11 -5 5 -3 -5 -3 -3 4
-11 -2 11 -1 -3 -1 -2 7
-6 0 11 0 -1 0 -2 6
-2 1 6 -2 -1 -1 -3 5
-2 -1 2 -1 0 3 -2 5
-4 4 3 2 2 4 -1 6
-4 -5 7 7 5 4 2 4
-1 -5 3 6 4 3 0 6
0 -7 -1 -1 3 1 -2 4
-2 -8 1 1 3 0 -2 2
-2 -6 1 -3 -3 -2 -3 3
-8 -5 1 -3 -2 -2 -3 2
-11 -7 2 -6 -5 -5 -6 -1
-11 -6 2 -2 -6 -7 -7 -2
-8 -7 3 -1 0 -1 -3 4
-6 0 5 1 2 2 -1 5
0 2 1 -1 4 0 -2 3
1 -2 -3 -3 4 0 -2 5
0 0 -2 3 2 2 3 6
-4 -4 -2 -4 0 -2 -2 3
-5 -10 -2 -10 -3 -6 -6 1
-1 -1 0 -5 -2 -4 -6 0
2 -2 3 -5 -5 -4 -6 -1
3 -5 1 -7 -3 -4 -7 -1
-2 -1 7 -6 -3 0 1 2
-7 -2 9 -1 0 3 3 3
-4 -8 4 1 -2 -1 0 1
-5 -7 5 -3 1 2 1 4
-8 -6 4 -3 1 0 0 4
-9 -11 6 -5 2 -1 -1 3
-7 -14 4 -8 0 -4 -2 4
-8 -5 3 -7 -6 -5 -4 2
-7 -3 5 -5 -7 -4 -3 3
-5 -7 3 -7 -5 -4 -3 2
-6 -5 1 -4 -4 -4 -2 3
-8 -6 2 -5 0 -2 -1 5
-7 -14 1 -4 -3 -4 -2 3
-4 -9 -1 -10 -4 -3 0 2
-4 -6 0 -10 -1 -2 1 4
-4 -9 2 -9 1 -2 0 4
-4 -12 3 -12 2 -4 -2 4
-11 -2 4 -9 1 -3 -1 5
-12 -5 3 -9 -4 -4 -1 6
-9 -8 1 -14 -9 -8 -5 1
-8 -9 1 -11 -4 -7 -5 0
-9 -1 -1 -5 5 -7 -5 0
-5 -4 -5 -9 -1 -9 -4 -1
-4 -9 -4 -9 2 -6 -2 3
-3 -6 -3 -11 0 -4 -1 6
-4 -5 -3 -12 -3 -5 -1 5
2 -2 -2 -10 -3 -3 0 5
2 7 4 -7 1 0 2 7
0 2 5 3 8 0 3 7
0 4 5 2 21 2 6 9
-1 11 8 1 18 6 7 8
1 15 12 12 15 10 10 10
0 15 9 11 14 8 10 10
-3 13 6 5 11 7 7 9
0 14 7 5 11 7 8 9
3 7 7 4 8 5 5 10
1 1 9 9 5 4 6 9
0 4 10 4 9 9 8 14
2 8 9 6 11 8 7 13
1 13 4 14 13 9 8 9
-6 12 3 14 14 14 14 13
-6 10 -1 10 14 15 14 13
-1 10 -8 4 11 10 11 8
-2 3 -14 1 6 6 9 7
-1 2 -10 1 4 6 9 8
2 3 -4 0 7 7 12 10
1 -1 -5 -6 5 3 10 8
4 7 3 -10 6 6 12 11
6 8 3 -8 8 6 12 11
7 5 -1 -7 3 4 10 9
9 3 3 -5 0 3 10 7
8 -4 -2 -8 5 5 9 8
8 -12 -7 -11 1 -1 6 3
4 -18 -9 -12 2 -1 6 3
0 -11 -12 -15 0 -4 3 1
-2 -6 -13 -18 -5 -8 -2 -2
-5 -19 -11 -21 -5 -9 0 3
-10 -21 -7 -19 -1 -7 1 7
-10 -12 -2 -16 -3 -6 3 3
-6 -2 -1 -19 -9 -9 -2 -2
-5 -4 -5 -25 -11 -12 -5 -5
-6 -14 -6 -24 -10 -9 -2 -4
-7 -19 -4 -21 -2 -11 -1 -3
-10 -16 -7 -18 -3 -10 -2 -4
-14 -14 -9 -17 -7 -11 -4 -4
-17 -19 -4 -13 -6 -9 -3 -2
-17 -23 -4 -17 -11 -14 -6 -5
-21 -20 -8 -27 -15 -16 -11 -8
-22 -23 -7 -28 -15 -17 -11 -10
-23 -28 -7 -28 -12 -17 -11 -8
-22 -26 -4 -28 -4 -16 -11 -9
-20 -22 -1 -26 -4 -12 -9 -9
-21 -27 -8 -22 -6 -15 -9 -10
-20 -23 -9 -23 -13 -17 -10 -10
-13 -20 -7 -29 -17 -19 -12 -9
-14 -24 -11 -30 -20 -23 -14 -11
-17 -29 -7 -30 -19 -24 -14 -13
-19 -23 -3 -33 -19 -24 -15 -14
-24 -24 -11 -37 -22 -27 -19 -17
-24 -28 -10 -31 -18 -27 -19 -17
-18 -24 -7 -29 -18 -24 -16 -15
-9 -10 -7 -26 -17 -20 -12 -9
-7 -9 -7 -24 -19 -21 -12 -8
-14 -16 -4 -23 -17 -20 -10 -4
-17 -17 -6 -23 -17 -20 -10 -8
-15 -20 -4 -18 -18 -20 -9 -8
-19 -26 -5 -20 -16 -22 -8 -5
-20 -20 -7 -28 -16 -20 -9 -7
-20 -25 -4 -27 -10 -20 -9 -7
-18 -25 -3 -25 -11 -21 -9 -4
-14 -14 -3 -23 -15 -21 -11 -8
-15 -12 -6 -25 -14 -18 -10 -10
-19 -19 -4 -20 -10 -20 -10 -9
-22 -24 -3 -18 -13 -19 -10 -10
-23 -24 -2 -30 -17 -22 -12 -13
-23 -14 -4 -33 -17 -24 -14 -14
-24 -17 -3 -31 -13 -24 -12 -13
-23 -18 0 -29 -10 -21 -9 -10
-21 -20 -1 -23 -9 -22 -11 -12
-23 -23 -1 -16 -10 -22 -12 -15
-19 -25 1 -10 -7 -16 -11 -14
-13 -16 5 9 2 -8 -9 -17
-13 -20 12 31 18 3 -5 -16
-6 -17 20 49 40 19 5 -11
-2 -5 20 58 63 39 17 -4
5 1 23 82 84 66 37 9
12 12 31 113 119 97 58 24
20 24 36 146 157 129 79 37
34 37 40 179 192 167 109 51
50 44 46 215 231 213 145 71
59 53 52 257 271 259 182 92
61 69 67 294 313 306 220 112
61 75 70 296 341 343 252 129
54 79 65 258 341 360 275 141
37 83 74 213 329 363 289 147
16 62 81 138 285 333 277 142
-6 33 76 9 189 256 232 114
-24 7 65 -115 72 145 154 69
-55 -37 68 -219 -78 -19 31 4
-93 -83 75 -313 -226 -199 -109 -67
-133 -104 66 -411 -360 -364 -220 -113
-164 -115 52 -485 -457 -483 -295 -137
-176 -122 25 -533 -495 -520 -324 -156
-183 -124 9 -564 -514 -532 -336 -161
-192 -130 5 -576 -528 -548 -356 -177
-204 -152 -9 -596 -558 -573 -381 -200
-210 -179 -29 -614 -594 -593 -401 -216
-206 -182 -54 -618 -608 -597 -407 -229
-199 -196 -71 -609 -606 -590 -408 -236
-194 -214 -94 -604 -600 -582 -404 -242
-183 -219 -114 -604 -590 -567 -392 -238
-171 -211 -129 -592 -566 -540 -373 -230
-157 -199 -136 -564 -526 -503 -345 -213
-139 -181 -137 -530 -490 -464 -315 -193
-127 -166 -140 -495 -448 -422 -285 -173
-117 -151 -144 -458 -409 -382 -256 -156
-104 -138 -136 -416 -367 -342 -229 -140
-92 -119 -128 -371 -322 -302 -201 -123
-85 -98 -115 -325 -274 -263 -173 -106
-76 -87 -103 -272 -227 -220 -141 -87
-54 -65 -86 -226 -178 -176 -110 -67
-40 -44 -61 -179 -138 -137 -83 -48
-34 -37 -43 -136 -104 -103 -60 -33
-26 -20 -31 -102 -76 -74 -40 -24
-19 -10 -22 -70 -51 -57 -30 -13
-18 -9 -17 -52 -36 -43 -20 -8
-17 -12 -16 -40 -26 -31 -13 -6
-18 0 -16 -32 -19 -21 -7 -2
-12 4 -12 -19 -8 -14 -3 0
-6 11 -9 -7 0 -9 1 3
-2 10 -10 -2 5 -3 5 4
-3 7 -8 -2 7 1 8 7
-7 5 -7 -1 12 2 7 4
-9 5 -2 5 17 9 13 7
-4 14 -3 6 19 10 13 7
2 13 -4 9 17 9 12 4
-3 0 -2 18 21 17 18 10
-4 4 1 24 27 24 22 14
-2 6 2 27 28 24 21 13
-5 4 9 33 31 28 24 17
-3 8 9 39 35 32 27 20
4 15 10 39 40 31 27 14
3 8 6 40 45 35 30 14
3 4 8 44 43 39 33 18
8 5 7 49 45 40 33 20
6 6 3 51 46 40 33 18
3 9 1 56 48 41 33 16
2 10 6 59 49 42 34 20
6 12 4 56 50 42 33 17
13 19 4 55 51 40 33 13
11 20 2 56 50 44 35 15
12 14 1 59 53 45 38 16
14 14 1 64 56 45 38 17
15 12 4 73 58 48 41 17
14 12 4 71 61 50 43 17
18 17 3 73 63 52 45 18
19 17 2 76 62 56 48 23
18 19 4 79 66 59 50 24
17 24 1 83 71 61 50 21
17 21 1 86 75 63 51 21
24 24 4 96 80 69 57 28
25 29 5 94 81 70 57 26
21 21 12 104 80 71 58 26
21 16 16 113 90 75 63 29
22 26 5 114 87 75 63 27
26 30 -2 116 87 74 61 27
29 18 0 121 98 80 66 30
30 27 4 124 97 86 69 31
35 42 5 133 99 86 69 30
31 36 7 140 109 92 73 33
24 26 12 142 120 99 79 37
26 36 10 146 117 99 78 35
31 34 15 155 122 104 81 37
36 36 15 164 121 108 84 39
37 36 9 169 127 110 85 39
41 38 3 170 127 110 84 38
42 38 9 177 134 116 90 43
41 44 15 188 141 124 95 48
47 49 15 187 141 125 94 46
53 48 14 188 147 127 95 47
50 50 14 193 150 130 95 48
49 46 19 197 154 135 100 50
47 37 24 205 154 135 100 49
49 39 20 213 159 136 101 50
50 47 20 209 159 136 100 49
47 41 20 217 158 140 103 52
44 40 21 225 161 144 107 54
47 49 25 232 166 147 110 60
50 54 22 227 169 146 108 58
54 52 22 223 167 146 107 55
53 51 27 224 168 147 108 56
55 52 28 224 166 146 108 55
58 52 28 231 168 147 109 56
60 55 25 230 171 148 109 59
60 61 26 231 177 148 109 58
57 62 26 232 172 147 108 57
53 49 25 226 170 145 107 54
52 48 28 228 176 148 111 59
51 54 26 236 168 145 109 58
51 54 27 232 167 145 109 59
48 55 28 224 163 143 108 56
47 56 28 224 162 140 109 56
52 54 31 227 162 138 107 59
58 56 31 216 161 137 107 58
60 55 28 208 157 131 102 52
57 56 26 203 150 126 98 50
52 62 27 200 147 122 96 48
45 56 29 196 151 125 99 52
41 55 28 191 145 121 95 52
37 50 35 183 139 117 93 48
35 46 33 176 132 112 91 47
37 51 28 172 128 108 89 44
34 43 26 158 129 102 84 42
29 43 22 144 120 96 80 42
26 43 20 142 113 91 76 38
22 34 20 141 111 87 74 38
19 31 20 130 102 84 71 38
16 33 23 119 96 81 68 37
17 38 20 110 90 73 65 31
19 31 17 106 91 69 63 30
17 27 19 96 86 68 61 31
16 34 17 94 80 62 58 29
20 25 15 88 72 55 52 22
18 24 16 74 65 51 48 19
14 22 14 69 63 49 46 17
10 17 12 64 59 41 39 12
7 10 9 60 53 39 38 12
8 20 8 57 53 40 38 14
6 21 8 51 52 36 38 12
3 16 8 48 49 31 35 10
0 11 10 46 47 30 34 12
-1 11 12 38 39 26 31 11
-4 5 12 34 36 20 27 4
-4 5 8 31 40 19 26 4
1 10 8 25 35 18 26 3
4 8 9 21 32 16 24 2
4 2 11 23 29 17 25 3
0 7 12 23 31 17 25 3
-7 2 13 22 29 14 24 2
-11 -2 13 23 24 15 26 4
-12 1 14 19 20 12 23 2
-14 3 9 11 18 7 19 2
-12 -11 12 11 17 5 18 -1
-10 -14 13 10 14 4 17 -4
-8 -9 8 10 10 1 13 -5
-4 -8 2 9 9 -2 11 -6
0 -12 11 11 11 1 13 -2
1 -3 8 11 11 6 16 -2
-4 -3 9 11 11 6 16 -3
-10 -4 10 8 14 6 15 -4
-11 5 6 8 13 5 13 -7
-17 -4 4 11 13 4 13 -6
-17 -9 4 12 15 2 12 -8
-8 -3 2 4 6 1 10 -9
-3 -2 7 7 8 2 11 -7
-2 0 10 10 9 0 10 -9
-2 -6 9 8 10 3 12 -6
-5 -2 11 8 15 6 15 -4
-5 -1 11 12 11 3 13 -5
-7 -2 6 11 7 3 11 -5
-5 -4 4 10 12 3 11 -8
-5 -5 9 15 17 6 14 -4
-7 -11 4 10 14 3 12 -3
-9 -14 3 9 15 5 12 -5
-11 -8 8 8 9 2 9 -6
-13 -7 5 7 3 0 8 -8
-13 -8 1 14 3 2 9 -7
-12 -5 8 10 8 3 11 -5
-5 -5 13 13 10 4 11 -2
-4 -5 10 12 15 4 11 -2
-5 -4 7 12 10 7 12 -3
-1 -2 8 14 12 5 12 -4
-2 -4 8 12 11 3 11 -5
-6 -4 6 12 12 5 11 -6
-4 2 9 14 10 2 9 -8
-6 -6 13 11 15 1 9 -7
-5 -12 9 9 8 1 9 -7
-1 -6 10 11 12 5 11 -3
1 -6 6 8 9 2 9 -5
-2 -7 2 4 5 0 8 -7
-6 -5 6 5 6 4 10 -7
-9 -4 9 13 10 7 12 -4
-4 -2 6 10 9 3 10 -7
-5 -4 6 4 10 3 9 -8
-6 -8 6 6 12 3 10 -5
-9 -4 2 7 2 0 7 -9
-9 -9 3 2 4 3 9 -8
-5 1 3 5 11 7 11 -5
-2 4 1 6 7 5 10 -7
-6 1 5 3 6 4 9 -8
-4 -1 5 2 9 5 8 -8
-3 1 6 0 4 4 7 -8
-3 -2 2 2 1 4 8 -8
-7 -2 4 1 8 6 9 -6
-11 -4 3 0 5 6 9 -6
-7 -6 3 3 8 4 8 -6
-1 -4 2 1 2 3 7 -7
-7 6 4 -5 -2 1 7 -10
-9 3 4 -2 1 2 8 -8
-8 -6 -1 -5 2 1 8 -10
-9 -6 -2 -6 -2 1 8 -8
-3 0 -2 -3 4 -1 6 -5
3 3 -1 -5 6 -3 5 -10
2 5 4 -1 -2 -1 5 -11
-6 -1 6 -4 5 0 7 -8
-12 -11 3 -9 4 -3 6 -13
-4 -5 2 -8 6 -3 7 -12
0 6 6 -3 4 2 11 -6
0 6 6 -8 2 -1 9 -11
-3 5 2 -9 -5 -5 6 -13
-6 1 -1 -11 0 -4 7 -12
-5 5 1 -9 5 -4 7 -13
-5 -6 2 -9 -3 -6 6 -11
-8 -10 1 -8 -7 -4 6 -11
-6 -5 0 -14 -8 -6 4 -15
-8 -6 -1 -12 -9 -6 3 -16
-12 -10 0 -14 -10 -5 5 -13
-12 -5 -2 -11 -11 -5 5 -12
-9 -3 1 -7 -7 -5 6 -13
-4 1 1 -11 -8 -7 5 -13
-6 -2 -3 -17 -11 -7 4 -15
-8 -8 0 -15 -7 -7 2 -17
1 -6 -1 -18 -12 -8 2 -15
4 -3 2 -15 -8 -6 3 -13
0 -6 1 -12 -10 -6 1 -16
-2 -9 3 -11 -10 -9 -2 -19
-2 -14 1 -17 -10 -8 0 -16
0 -6 -1 -17 -6 -6 0 -15
2 -4 -6 -10 -6 -6 0 -15
5 0 -5 -8 -6 -5 3 -13
4 8 -2 -10 1 -1 5 -10
2 8 4 -6 -2 -1 4 -10
5 6 6 -5 -2 -1 4 -9
5 9 5 -2 -1 1 5 -7
5 8 6 -2 -3 1 3 -4
4 4 9 1 -1 3 7 -2
2 7 8 4 2 5 8 -3
5 14 9 1 4 8 9 -2
8 14 12 4 9 9 10 1
3 11 16 13 10 10 12 1
1 18 16 13 7 10 10 0
-2 12 16 7 8 11 11 0
1 1 15 2 3 5 6 -4
8 4 16 7 7 5 7 -3
11 8 15 10 6 5 8 -1
11 13 17 11 6 4 8 -2
9 15 10 7 5 6 9 0
9 18 7 2 11 9 12 3
8 20 3 0 10 5 9 1
8 11 1 -1 8 3 9 2
8 10 -7 -12 1 0 5 2
7 10 -4 -10 -2 -1 5 -1
9 12 -6 -13 -5 -4 3 -4
14 23 -11 -15 -8 -5 4 0
17 18 -5 -10 -2 1 10 2
13 3 0 -6 4 1 9 1
14 2 -3 -11 -8 -3 6 -1
10 10 -3 -17 -15 -7 3 -4
8 4 -9 -20 -14 -11 0 -7
5 -2 -10 -19 -12 -11 -1 -7
4 -6 -5 -18 -16 -10 0 -5
3 -7 -5 -24 -11 -12 -1 -8
0 -11 -9 -24 -17 -15 -3 -9
-2 -12 -4 -25 -16 -15 -3 -8
1 -9 -2 -27 -20 -16 -4 -7
1 -9 -6 -18 -23 -16 -5 -9
0 -8 -8 -21 -21 -16 -4 -13
4 -3 -8 -31 -24 -17 -6 -12
7 -11 -6 -31 -22 -21 -9 -14
5 -12 -7 -28 -20 -22 -9 -16
3 -12 -2 -31 -18 -20 -8 -13
1 -7 -1 -22 -20 -21 -10 -16
2 -8 0 -28 -24 -24 -14 -21
-5 -12 -1 -31 -25 -24 -15 -18
-9 -15 -5 -29 -29 -23 -14 -16
-7 -19 -7 -33 -29 -26 -16 -21
-5 -20 -5 -37 -31 -28 -16 -21
-2 -11 -6 -38 -31 -25 -16 -20
-5 -10 -4 -34 -29 -26 -18 -22
-8 -18 -8 -35 -35 -29 -19 -25
-5 -15 -4 -37 -32 -25 -17 -21
-4 -10 -2 -41 -26 -27 -18 -22
-4 -14 -3 -41 -29 -29 -20 -23
-5 -17 -6 -40 -34 -30 -20 -23
-8 -22 -5 -43 -34 -30 -19 -22
-5 -17 -9 -44 -35 -32 -20 -22
-5 -14 -5 -41 -34 -29 -18 -18
-9 -13 -6 -41 -34 -27 -18 -16
-7 -14 -3 -36 -36 -28 -17 -17
-6 -15 0 -39 -35 -28 -17 -18
-6 -15 2 -37 -27 -26 -17 -16
-7 -9 4 -35 -32 -25 -17 -18
-11 -18 6 -37 -37 -28 -18 -20
-12 -22 -1 -38 -34 -28 -19 -18
-8 -17 -5 -40 -37 -26 -19 -21
-7 -12 -7 -41 -34 -28 -20 -23
-8 -15 -7 -40 -34 -27 -19 -20
-7 -16 -3 -34 -30 -24 -17 -18
-5 -8 -4 -36 -31 -25 -17 -18
-6 -3 -3 -40 -29 -26 -18 -19
-13 -13 0 -37 -26 -22 -16 -16
-17 -13 1 -35 -24 -23 -17 -15
-15 -16 2 -38 -26 -25 -17 -13
-12 -15 0 -36 -26 -24 -16 -18
-7 -9 -1 -29 -24 -23 -17 -20
-6 -12 0 -31 -22 -24 -17 -21
-3 -17 -1 -29 -25 -22 -16 -22
-1 -14 5 -20 -21 -14 -13 -20
1 -13 9 -3 -9 -8 -11 -23
5 -10 12 16 8 5 -6 -22
10 -5 16 38 26 21 3 -17
17 7 20 53 48 42 18 -5
26 15 23 77 77 68 36 6
30 15 32 105 108 98 57 19
39 31 30 132 137 126 77 25
51 43 31 165 173 163 106 41
65 52 36 196 212 207 144 62
78 68 45 239 258 256 184 86
86 80 52 264 288 298 217 105
83 80 57 257 311 330 247 117
72 82 66 218 308 346 271 130
51 79 76 175 292 345 280 139
26 57 78 99 242 306 259 121
5 32 71 -22 144 228 210 92
-21 -6 65 -135 21 100 116 40
-55 -49 69 -229 -120 -70 -18 -26
-93 -85 75 -321 -250 -235 -142 -86
-128 -97 74 -412 -374 -386 -240 -125
-151 -101 60 -482 -446 -483 -303 -150
-163 -101 32 -531 -475 -507 -323 -158
-176 -97 17 -559 -493 -517 -337 -168
-191 -116 11 -572 -515 -533 -356 -186
-202 -151 6 -590 -546 -557 -381 -207
-206 -169 -13 -598 -575 -573 -395 -221
-205 -181 -36 -600 -584 -576 -401 -231
-199 -199 -58 -590 -588 -572 -402 -240
-191 -210 -80 -590 -585 -562 -396 -237
-182 -209 -104 -596 -578 -548 -384 -234
-168 -197 -118 -583 -553 -523 -366 -227
-148 -186 -124 -557 -517 -486 -337 -211
-128 -165 -128 -530 -482 -448 -310 -191
-109 -140 -125 -489 -436 -405 -276 -168
-97 -127 -133 -451 -391 -366 -249 -154
-85 -111 -131 -410 -357 -325 -220 -137
-73 -92 -120 -366 -315 -286 -193 -121
-63 -76 -109 -323 -272 -249 -166 -105
-53 -70 -96 -278 -218 -206 -135 -85
-42 -52 -78 -230 -182 -164 -104 -67
-35 -35 -59 -183 -143 -130 -81 -54
-28 -22 -48 -142 -112 -99 -60 -40
-24 -13 -36 -112 -86 -71 -41 -28
-16 -6 -29 -87 -67 -55 -31 -23
-10 -3 -22 -67 -49 -44 -24 -20
-2 5 -21 -56 -41 -34 -17 -17
5 11 -18 -37 -26 -23 -10 -11
6 9 -15 -30 -16 -18 -5 -9
8 6 -15 -26 -12 -10 0 -5
9 14 -10 -20 -7 -3 5 -3
5 15 -7 -17 -8 -3 6 -3
3 7 -3 -12 -4 1 8 -2
8 13 -5 -12 3 6 10 -1
14 16 -3 -10 4 8 11 1
15 6 -3 -2 7 8 11 -3
10 3 -6 3 11 15 16 0
7 9 -5 4 13 16 17 1
14 15 -1 11 14 22 19 4
17 16 1 9 18 25 22 5
14 19 1 11 17 27 23 6
16 25 2 14 18 26 22 3
19 23 2 18 22 29 24 5
16 21 3 25 25 33 28 7
12 20 5 30 28 34 29 8
13 11 -1 26 28 32 26 5
17 18 -3 22 26 33 27 6
21 21 -4 28 30 35 30 8
23 22 -4 31 36 37 31 12
25 22 -4 32 39 40 33 15
25 22 -2 35 35 42 35 16
26 30 0 33 34 42 36 17
28 32 0 37 38 45 36 20
23 31 4 42 50 50 39 21
22 28 3 46 55 53 42 25
22 20 0 51 47 53 40 20
22 24 -1 53 45 57 44 22
27 25 0 54 51 59 47 23
29 24 1 54 52 56 43 20
26 18 -1 56 54 58 43 20
24 24 3 63 55 64 49 24
26 27 4 62 63 63 49 24
34 34 -1 66 65 65 48 23
34 33 2 71 64 70 52 26
35 32 7 77 74 74 56 30
34 34 7 83 78 75 55 25
36 32 6 94 76 78 56 27
41 33 8 99 79 81 60 30
44 33 11 98 85 85 62 31
40 32 10 106 88 90 65 32
38 43 12 108 90 96 69 35
38 38 10 114 91 96 69 35
44 43 14 116 93 98 70 35
54 50 10 119 97 102 73 36
52 47 8 131 100 104 74 35
51 39 6 137 107 108 77 38
52 37 13 140 119 115 82 41
51 42 9 140 117 116 83 41
54 48 5 146 116 117 82 41
60 52 6 153 117 120 83 43
64 60 10 160 126 128 89 51
63 56 10 157 129 128 89 48
61 52 12 169 127 130 90 48
62 58 17 174 128 133 94 50
63 58 19 178 135 135 95 51
65 53 22 178 137 135 95 51
67 51 24 179 133 138 96 52
66 55 22 178 134 137 97 53
68 58 23 178 141 134 95 50
68 58 21 186 141 136 96 53
64 59 20 188 136 139 96 57
62 61 21 184 141 137 95 55
64 59 23 183 137 138 97 52
65 59 25 186 137 139 101 53
64 60 28 195 144 143 102 56
63 56 28 194 145 142 101 57
67 58 30 200 149 143 103 60
66 60 29 205 147 143 104 60
63 59 22 192 142 138 101 59
64 62 24 187 139 136 100 58
63 68 23 182 136 135 97 56
58 64 21 179 136 132 93 54
56 60 25 177 137 130 92 54
55 63 29 174 131 128 92 54
57 64 30 173 128 124 90 56
60 57 32 177 129 123 89 55
57 50 35 166 131 119 86 51
54 56 34 161 126 117 84 50
52 60 34 159 121 115 85 54
46 52 35 150 113 110 84 51
44 56 33 147 110 109 81 51
39 60 33 136 110 104 78 50
39 55 31 134 110 101 75 50
39 51 29 128 107 95 72 47
40 50 26 115 91 87 66 42
42 43 24 106 86 80 60 38
41 41 27 101 88 79 61 38
36 43 27 97 81 77 59 36
33 40 27 90 74 72 55 34
30 42 24 78 68 65 49 30
28 43 24 72 61 62 46 31
25 38 26 68 54 55 41 25
23 31 30 56 53 51 36 20
21 33 26 47 46 48 34 18
18 28 23 50 41 46 32 17
20 27 18 43 35 37 26 12
19 26 12 33 35 36 26 12
17 20 14 35 35 38 26 15
12 15 14 31 32 32 23 13
9 14 16 24 33 31 23 12
7 12 15 23 26 31 22 13
7 12 15 20 24 25 18 10
4 12 13 19 19 22 15 5
4 18 20 14 18 19 13 2
5 13 22 12 14 16 10 0
10 5 11 14 9 12 7 -2
12 9 10 8 7 11 6 -3
11 12 10 -1 2 9 5 -3
7 2 6 -1 -2 2 0 -3
1 -1 10 -2 -2 5 2 -3
-3 -1 14 -4 -1 7 1 -1
-3 8 12 -1 0 1 -3 -5
-5 9 13 4 -6 2 -3 -4
-5 7 8 -1 -1 4 0 -4
0 6 11 -4 -1 3 0 -4
4 5 9 -7 -3 2 0 -3
4 8 5 -8 0 5 1 -2
0 8 4 -9 -2 4 -1 -2
-4 0 7 -7 -6 2 -3 -7
-5 -6 9 -9 -5 3 -3 -6
-6 0 7 -11 -3 5 -2 0
-4 -2 13 -10 0 2 -5 -2
1 1 14 -11 -1 1 -6 -3
3 8 11 -10 -6 2 -5 -5
2 7 12 -7 -9 3 -5 -6
1 2 15 -8 -6 3 -4 -5
1 1 12 -6 0 4 -4 -5
-4 3 12 -5 -3 3 -6 -6
-7 7 10 -10 -12 -1 -9 -8
-7 0 7 -9 -11 2 -6 -5
0 8 3 -8 -4 3 -6 -4
2 5 8 -6 -4 1 -8 -6
-2 4 7 -6 -6 0 -8 -6
-3 3 7 -7 -6 2 -6 -5
-3 0 5 -7 -7 2 -5 -6
-3 -4 3 -7 -7 0 -7 -7
2 0 11 -5 -6 3 -3 -4
7 4 6 -2 -3 4 -2 -3
5 2 4 -1 -4 1 -3 -2
2 1 2 -2 -8 1 -6 -2
-1 3 5 -2 -3 5 -4 -2
-4 2 4 -3 -2 2 -6 -5
-10 -4 4 -6 -8 1 -8 -6
-8 -3 11 0 -7 4 -7 -6
0 3 6 9 -8 1 -9 -8
5 2 1 3 -6 -2 -12 -10
3 -2 3 -1 4 3 -9 -7
-1 2 1 -5 5 2 -9 -7
-3 0 8 -1 -6 -1 -11 -8
0 -2 12 0 -5 3 -7 -3
1 7 5 -1 -4 6 -3 0
1 8 5 -2 -1 6 -2 1
3 7 4 -4 0 6 -3 0
1 5 5 -4 0 6 -3 0
-1 6 9 -2 2 6 -3 0
-4 -2 5 -4 -1 1 -6 -1
-4 -4 6 -4 1 4 -5 2
0 -3 11 -4 0 4 -5 0
3 0 0 -2 2 1 -6 -2
7 5 4 3 -2 4 -5 -2
7 11 5 -4 2 6 -4 0
3 3 3 -4 1 5 -5 2
1 4 3 -3 1 5 -6 0
-3 9 5 -4 1 5 -8 -3
-3 7 6 -1 1 5 -6 -2
0 1 6 -4 -5 3 -7 0
-1 -4 3 -4 -5 3 -7 -3
-2 -1 -2 -5 -11 1 -9 -5
-3 -3 -3 -7 -7 2 -7 -2
0 -3 -1 -5 3 5 -5 -2
3 6 1 -6 1 8 -3 -1
0 6 2 -6 -5 5 -5 1
-3 2 7 -5 -5 4 -5 0
-2 1 6 -3 2 5 -5 2
-3 3 0 -4 1 3 -6 -4
-2 1 4 -2 -7 1 -7 -5
-3 -2 0 -6 -6 1 -8 -5
-3 -2 -3 -10 -10 0 -10 -6
1 2 -4 -8 -17 -4 -13 -9
2 3 -7 -7 -13 -3 -13 -7
2 3 -6 -11 -9 1 -9 -3
2 3 -5 -14 -10 -1 -11 -3
0 -2 -2 -15 -12 0 -10 -2
1 0 1 -13 -14 0 -10 -1
-3 -1 1 -12 -11 0 -10 -4
-4 -9 -1 -13 -14 -2 -12 -4
-3 -9 -2 -5 -17 -1 -10 -4
-6 -7 3 -7 -14 0 -10 -4
-11 -9 -5 -15 -13 -5 -13 -5
-10 -15 -7 -11 -10 -4 -11 -4
-8 -6 -8 -18 -9 -4 -11 -6
-1 6 -8 -17 -11 -3 -11 -5
-1 6 -6 -14 -13 -1 -8 -3
-3 4 -4 -14 -15 -1 -9 -3
4 12 -6 -14 -16 -2 -10 -5
10 11 -8 -16 -16 -5 -13 -5
11 4 -8 -18 -14 -4 -12 -5
9 7 -11 -20 -17 -4 -11 -5
2 3 -10 -13 -11 -4 -11 -4
1 0 -10 -14 -11 -2 -9 -2
-2 3 -4 -15 -8 2 -6 1
0 4 -2 -11 -1 2 -5 1
9 10 2 -10 5 4 -1 7
7 11 1 -9 0 6 0 7
10 14 3 -5 0 7 0 6
13 16 7 0 4 8 2 7
9 17 4 -2 4 9 3 9
11 22 3 1 6 8 2 8
7 17 5 -3 3 5 -1 7
6 12 9 0 8 7 0 7
7 14 13 2 11 10 2 9
4 11 15 2 11 8 2 10
1 12 9 1 9 7 2 7
1 14 12 6 6 11 6 9
4 16 7 10 12 12 8 9
8 16 1 10 18 12 9 11
9 18 -6 -1 11 11 8 11
7 17 -13 -9 4 8 6 9
10 12 -13 -9 4 5 7 9
9 9 -8 -10 1 6 6 10
12 13 -11 -16 -1 3 3 8
18 18 -14 -19 4 -2 1 9
14 18 -15 -21 -3 -5 -1 6
9 9 -7 -19 0 -2 1 5
10 9 -10 -19 -7 -6 -1 2
10 4 -11 -14 -4 -8 -3 3
10 8 -13 -15 -9 -8 -3 7
9 6 -17 -20 -14 -10 -5 2
10 0 -16 -19 -12 -11 -6 -2
11 -2 -15 -18 -10 -11 -7 -3
10 -1 -17 -26 -12 -11 -7 -2
11 0 -14 -24 -12 -14 -9 -5
8 -4 -9 -25 -7 -13 -9 -4
6 -6 -13 -26 -11 -12 -9 -3
6 -6 -10 -24 -9 -12 -8 -1
1 -14 -13 -23 -11 -15 -10 -6
0 -15 -14 -27 -16 -15 -12 -7
2 -9 -12 -26 -14 -15 -13 -7
-2 -9 -11 -23 -10 -16 -13 -8
-2 -7 -12 -21 -8 -12 -10 -3
-4 -5 -14 -25 -5 -11 -9 -2
-6 -7 -10 -25 -10 -15 -10 -4
-7 -12 -5 -28 -10 -17 -12 -5
-7 -14 -3 -30 -9 -19 -14 -8
-6 -13 -6 -28 -13 -22 -16 -10
-5 -20 -8 -30 -14 -25 -20 -13
-10 -20 -10 -31 -19 -23 -20 -12
-11 -19 -7 -27 -18 -22 -19 -12
-7 -22 -8 -27 -16 -23 -19 -12
-8 -20 -7 -29 -18 -23 -18 -10
-11 -14 -11 -31 -18 -21 -16 -7
-10 -10 -13 -35 -25 -26 -20 -13
-4 -8 -10 -33 -21 -23 -19 -7
0 -5 -10 -33 -14 -22 -17 -10
-1 -2 -13 -35 -21 -26 -19 -11
-6 -12 -14 -30 -22 -26 -19 -12
-11 -17 -15 -31 -18 -26 -19 -13
-11 -19 -15 -31 -19 -25 -17 -10
-10 -17 -15 -31 -19 -27 -19 -13
-15 -20 -15 -35 -22 -26 -18 -13
-14 -15 -8 -35 -25 -24 -17 -12
-9 -13 -4 -29 -21 -22 -15 -10
-7 -12 0 -26 -20 -20 -16 -10
-4 -5 1 -28 -23 -19 -15 -11
-3 -5 -12 -27 -25 -24 -19 -14
-4 -13 -16 -28 -28 -26 -20 -13
-4 -15 -16 -31 -28 -23 -18 -10
-6 -6 -15 -30 -27 -27 -21 -14
-8 -7 -11 -21 -28 -27 -22 -13
-13 -17 -4 -18 -22 -21 -16 -11
-11 -13 -9 -20 -20 -22 -16 -11
-8 -8 -11 -27 -18 -24 -18 -13
-10 -12 -11 -23 -12 -19 -15 -11
-9 -8 -8 -21 -16 -17 -13 -10
-5 -5 -4 -18 -10 -15 -13 -10
-2 -11 0 -3 -2 -9 -10 -7
-1 -10 5 8 1 -2 -10 -9
2 -9 6 30 16 8 -6 -10
5 -6 6 48 33 22 1 -8
11 -7 9 66 61 45 18 1
15 6 15 79 84 71 34 12
19 13 24 111 117 99 53 23
26 26 26 141 151 131 75 34
40 42 29 171 182 172 108 53
63 63 29 197 219 216 145 76
76 68 38 238 262 260 181 102
78 75 46 276 306 307 220 122
78 82 49 281 331 343 252 137
72 88 47 236 324 356 275 148
57 80 56 197 310 357 287 153
31 67 68 135 263 322 267 136
6 36 64 13 165 237 210 98
-17 -9 55 -101 45 112 119 45
-52 -53 58 -198 -101 -56 -11 -21
-91 -89 67 -286 -239 -230 -148 -89
-128 -115 64 -371 -370 -390 -255 -133
-154 -120 57 -433 -448 -488 -320 -156
-165 -114 34 -482 -477 -516 -345 -164
-173 -111 16 -512 -491 -527 -356 -168
-187 -124 9 -528 -506 -540 -373 -187
-199 -132 -1 -550 -542 -560 -395 -205
-205 -150 -17 -566 -570 -580 -412 -221
-203 -170 -36 -566 -585 -586 -418 -232
-195 -181 -57 -565 -590 -579 -416 -238
-185 -200 -78 -558 -591 -568 -409 -240
-176 -210 -103 -561 -583 -556 -400 -237
-166 -200 -121 -553 -558 -529 -379 -228
-155 -191 -129 -535 -532 -500 -357 -217
-139 -174 -137 -514 -496 -468 -333 -202
-124 -154 -143 -480 -458 -427 -303 -185
-105 -135 -142 -448 -416 -385 -274 -166
-90 -117 -135 -411 -378 -345 -246 -148
-79 -106 -131 -370 -338 -306 -218 -132
-71 -91 -121 -322 -292 -263 -187 -110
-56 -74 -109 -277 -244 -221 -156 -91
-43 -64 -98 -230 -199 -182 -128 -76
-33 -45 -77 -184 -157 -140 -99 -58
-22 -27 -60 -146 -121 -106 -75 -41
-19 -13 -52 -113 -88 -82 -60 -29
-16 -11 -34 -79 -69 -60 -44 -19
-17 -1 -20 -52 -54 -42 -31 -13
-13 3 -23 -40 -39 -29 -25 -10
-11 9 -21 -33 -31 -20 -18 -8
-7 9 -15 -22 -21 -11 -12 -4
-1 11 -16 -12 -12 -4 -7 0
-3 7 -15 -9 2 -2 -5 0
-5 4 -12 -2 -3 3 -4 -2
-1 9 -14 0 -1 4 -4 -2
6 4 -17 3 2 8 -2 -1
15 14 -14 7 6 12 0 -1
18 24 -12 10 5 18 4 1
14 21 -12 15 13 21 6 2
15 20 -14 22 16 23 7 3
16 21 -12 23 19 26 10 4
14 17 -10 26 16 29 11 6
11 12 -9 28 16 30 13 8
7 8 -7 25 21 32 14 8
7 11 -7 30 26 33 16 7
7 11 -12 35 24 34 16 10
8 14 -11 35 26 34 17 8
13 14 -6 35 30 42 21 12
11 17 -8 39 36 45 24 14
14 18 -9 45 31 46 24 15
17 19 -3 54 36 51 30 17
19 23 -3 48 41 52 30 16
19 23 -4 49 39 51 29 15
18 20 -1 53 37 52 30 18
19 21 -4 59 40 54 31 21
20 23 -6 62 43 55 30 17
19 19 -4 67 44 55 30 16
23 27 -3 61 46 57 30 15
26 27 -4 63 47 59 32 16
26 23 -3 67 50 63 35 18
27 35 -6 68 55 67 39 20
31 36 -6 73 58 70 41 20
31 28 -6 79 61 70 42 20
33 33 -7 82 66 74 44 22
31 34 -10 86 68 76 46 24
27 25 -6 89 70 78 47 25
27 20 -7 98 73 82 49 27
22 22 -7 99 77 87 52 27
23 30 -4 104 81 89 53 28
33 36 -3 107 80 91 54 30
36 40 -2 112 89 99 59 37
39 36 -1 124 100 104 63 38
41 33 -2 131 101 104 66 36
44 34 -1 136 100 107 67 36
44 41 0 137 101 110 67 37
45 38 -1 145 106 111 66 34
48 40 -1 144 104 113 69 33
46 43 6 150 112 119 71 37
48 48 3 158 117 122 72 39
51 50 5 168 120 127 76 41
45 49 11 172 128 134 81 46
45 50 12 176 137 135 81 45
48 44 9 183 139 135 82 45
51 45 10 187 134 138 84 46
58 53 11 190 139 143 89 50
58 49 15 208 144 145 89 50
56 48 14 204 146 147 89 49
59 54 14 197 148 150 89 49
57 57 19 199 153 151 90 52
59 60 20 202 151 150 90 50
59 57 18 211 150 156 93 52
57 53 17 213 151 154 92 50
57 49 19 211 153 155 95 52
59 52 16 213 157 157 96 55
59 58 17 213 158 158 97 57
62 58 19 224 159 158 98 60
61 59 18 222 158 156 98 56
60 65 19 216 162 159 98 58
61 65 22 219 162 158 98 58
60 57 21 218 158 157 98 58
61 61 24 228 156 160 100 60
59 64 20 219 154 156 98 61
55 57 22 212 149 151 95 57
54 59 20 208 149 148 92 54
50 58 22 197 145 145 90 52
47 48 22 196 149 142 90 53
46 49 23 198 147 142 91 54
46 54 23 194 143 140 88 52
49 59 20 187 135 134 84 48
50 58 21 182 140 132 83 47
51 58 24 174 136 129 81 49
51 58 25 165 129 123 77 46
43 48 23 159 128 114 72 40
33 43 24 149 116 109 70 40
31 49 19 140 107 105 67 38
36 49 21 143 110 102 66 39
37 50 20 134 105 97 63 39
34 51 30 127 102 94 60 37
33 47 26 120 99 89 57 35
31 42 22 111 90 85 55 34
29 36 20 100 83 79 51 33
26 35 18 94 82 75 49 29
20 29 13 86 76 68 44 27
17 22 12 78 75 63 40 25
15 21 12 72 67 57 36 21
12 19 9 65 58 51 31 19
10 14 9 56 57 46 28 17
14 20 12 53 49 44 25 14
17 21 11 49 44 41 23 15
17 20 12 47 46 39 23 14
12 21 16 41 41 38 23 13
7 18 14 37 40 34 20 10
2 10 10 35 43 31 19 11
1 13 11 25 33 27 14 10
1 9 10 25 31 25 13 8
3 5 7 17 28 20 9 4
5 5 8 13 22 17 6 1
8 8 9 12 18 17 5 3
3 0 6 14 18 16 5 1
0 1 8 15 18 13 3 -5
-3 7 4 7 15 12 1 -6
-4 4 2 1 13 11 0 -6
-3 -3 2 4 18 10 1 -5
-6 -5 3 4 18 9 0 -6
-6 -6 3 2 16 8 1 -5
-4 -4 2 -3 7 4 -3 -9
-6 -9 3 1 8 6 -2 -7
-7 -5 5 4 10 8 -1 -5
-6 -4 5 1 7 7 -1 -4
-8 -2 6 -4 8 5 -3 -6
-4 1 6 -4 5 6 -2 -4
3 1 5 -4 4 6 -3 -5
3 -5 1 0 -1 1 -6 -9
-1 -7 4 0 4 2 -4 -6
-4 -9 6 2 9 3 -2 -5
-3 -9 3 0 -3 -1 -7 -10
-4 -13 2 -2 -4 -2 -9 -9
-11 -15 2 -4 -3 0 -8 -8
-10 -16 0 -4 5 -2 -10 -10
-6 -14 3 -4 7 -1 -9 -12
1 -6 0 -4 1 0 -8 -11
0 4 -3 -6 2 -2 -9 -9
-8 -3 -3 -6 2 -2 -8 -8
-11 -11 3 -4 10 2 -4 -8
-6 -10 6 0 8 4 -4 -7
-1 -8 2 -3 6 1 -5 -9
4 -4 3 -1 2 3 -6 -8
2 1 6 -4 2 2 -7 -10
-4 -6 1 -3 1 1 -7 -10
-5 -7 0 -2 1 1 -6 -11
-8 -10 -3 -2 7 1 -6 -9
-7 -8 -2 -1 11 1 -6 -9
-3 -7 1 -1 5 2 -4 -8
-3 -7 4 6 5 4 -3 -6
-1 2 1 2 6 2 -4 -7
-4 -2 -1 -1 3 1 -5 -7
-7 -7 -5 1 4 2 -6 -7
-7 -8 0 5 13 6 -3 -4
-5 -5 -3 1 12 3 -5 -6
-6 -8 -3 -5 3 5 -3 -4
-7 -8 0 -2 10 7 -1 -1
-11 -10 2 -1 13 6 -1 -3
-12 -9 1 -8 7 2 -4 -7
-8 -7 2 -6 8 3 -5 -5
-8 -5 -2 -7 3 1 -7 -9
-11 -8 -2 -4 7 2 -6 -8
-6 -5 -2 -2 8 4 -5 -6
1 2 2 -4 8 5 -6 -6
4 2 2 -2 10 8 -3 -5
0 3 -2 -3 9 7 -4 -6
-4 -4 1 0 12 10 -1 -2
-6 -5 -2 0 11 10 -2 0
-6 -13 -5 -8 5 5 -5 -3
-7 -12 -6 -10 1 4 -6 -8
-11 -10 -6 -7 -2 3 -6 -8
-12 -17 -3 -6 1 2 -7 -10
-10 -15 -6 -1 5 3 -7 -6
-6 0 -6 -3 3 4 -6 -5
-5 -3 -7 -4 5 6 -4 -6
-5 -8 -5 -2 4 6 -5 -7
-7 -5 -5 -7 3 6 -4 -5
-9 -10 -5 -5 1 6 -3 -4
-6 -16 -5 -10 0 3 -6 -4
-1 -13 -7 -13 -3 1 -7 -5
3 -3 -10 -7 -3 2 -6 -4
-2 -10 -7 -7 3 3 -6 -5
-4 -11 -4 -9 5 4 -6 -5
-3 -6 -3 -10 2 6 -4 -2
-5 -4 3 -6 7 8 -2 0
-2 -5 6 -6 3 10 -1 1
-4 -7 2 -7 3 10 0 -2
-4 -6 3 -10 3 8 -2 -5
-3 -13 3 -14 2 8 -4 -5
-6 -14 -1 -13 0 5 -4 -3
-5 -11 2 -15 -3 3 -7 -6
-5 -9 2 -15 -3 1 -7 -8
-6 -13 0 -12 1 2 -8 -6
-6 -7 -6 -13 1 3 -7 -3
-7 -10 -4 -14 -2 3 -6 -2
-9 -10 -4 -12 -4 3 -7 -6
-10 -11 0 -1 2 6 -3 -3
-6 -12 1 -3 8 5 -4 -6
-4 -14 3 -4 2 5 -3 -6
-4 -13 3 -1 -1 6 -1 -4
-5 -12 1 -9 0 4 -2 -3
-6 -17 1 -7 4 4 -3 -4
-3 -15 3 -9 1 8 -2 1
-3 -6 7 -7 7 10 0 4
-3 -1 5 -6 15 12 2 -1
-4 -1 7 -4 8 11 2 -2
0 1 5 -3 12 11 2 0
2 3 5 1 4 13 6 1
1 7 5 4 8 14 6 1
1 7 6 6 8 15 6 3
-1 5 9 5 9 13 5 3
0 7 12 6 15 11 5 4
2 4 13 8 9 15 8 6
-3 -2 6 8 8 15 5 3
-1 0 5 4 11 11 3 1
5 2 8 1 5 13 4 3
7 9 9 2 6 15 6 5
8 12 5 3 9 18 7 6
4 7 5 8 13 21 12 10
0 12 2 10 14 22 13 12
5 10 -1 3 12 20 12 11
2 -1 -1 -5 9 18 12 12
2 -3 -1 -2 7 17 11 11
7 2 -4 -6 9 16 8 8
7 4 -5 -6 7 14 6 6
5 0 1 -1 7 15 7 6
4 -4 -5 -4 6 12 5 4
1 -8 -5 -9 3 13 5 4
0 -11 -4 -10 3 12 5 4
3 -10 -12 -12 -5 5 -1 -1
6 -12 -13 -15 -5 4 -2 -2
6 -17 -13 -19 -3 2 -3 -5
2 -21 -11 -22 -6 3 -3 -2
0 -16 -9 -20 -4 2 -4 -1
-2 -17 -9 -20 -7 2 -4 -4
1 -18 -6 -21 -8 0 -5 -2
1 -14 -4 -18 -5 1 -3 1
0 -11 -4 -18 -2 2 -2 1
-6 -16 -5 -20 -12 -2 -3 1
-9 -21 -9 -21 -14 -5 -7 -3
-9 -26 -8 -22 -9 -6 -8 -4
-7 -23 -3 -21 -11 -5 -8 -6
-8 -23 -4 -22 -12 -7 -11 -9
-11 -20 -4 -23 -15 -7 -12 -9
-15 -27 1 -24 -19 -6 -11 -8
-19 -26 0 -21 -19 -8 -12 -9
-20 -20 -6 -24 -20 -8 -13 -8
-17 -19 -8 -26 -21 -10 -13 -5
-15 -29 -11 -23 -19 -13 -13 -6
-17 -28 -12 -24 -23 -14 -16 -9
-16 -30 -9 -29 -26 -14 -16 -6
-12 -29 -6 -29 -18 -15 -17 -11
-10 -29 -10 -34 -19 -16 -18 -13
-11 -25 -7 -36 -26 -16 -19 -12
-12 -28 -3 -34 -19 -15 -18 -11
-12 -30 -4 -34 -20 -14 -17 -9
-16 -26 -1 -32 -20 -13 -17 -9
-16 -22 -3 -30 -19 -13 -18 -9
-13 -28 -5 -32 -20 -15 -19 -10
-14 -29 -5 -31 -18 -13 -18 -11
-18 -25 -10 -31 -21 -14 -19 -11
-18 -26 -12 -32 -20 -15 -20 -12
-12 -24 -13 -35 -23 -15 -19 -13
-8 -23 -11 -29 -19 -12 -16 -10
-13 -21 -9 -28 -16 -11 -15 -9
-13 -24 -7 -33 -17 -11 -15 -10
-12 -29 -8 -33 -19 -11 -16 -10
-13 -29 -6 -30 -20 -12 -15 -9
-17 -34 -5 -30 -25 -13 -14 -11
-17 -34 -6 -32 -25 -14 -15 -11
-19 -32 -2 -31 -26 -15 -16 -8
-24 -39 -5 -33 -23 -17 -18 -10
-25 -36 -8 -35 -23 -19 -19 -11
-27 -34 -3 -31 -24 -16 -17 -11
-26 -36 -6 -31 -23 -15 -17 -12
-15 -28 -9 -27 -25 -13 -16 -13
-15 -23 -6 -21 -16 -8 -15 -8
-18 -19 -6 -21 -13 -8 -15 -12
-12 -27 0 -8 -9 -2 -12 -11
-7 -28 10 2 2 4 -13 -12
-4 -29 13 20 16 15 -9 -4
3 -23 17 39 31 26 -2 -8
8 -20 17 59 57 50 13 1
13 -6 14 77 82 77 30 11
14 8 24 106 115 105 49 22
25 20 29 137 150 140 74 38
42 29 34 171 186 184 110 60
55 43 43 201 223 227 145 85
59 52 48 241 265 271 181 100
61 63 53 277 309 314 216 120
63 69 61 284 338 351 250 136
57 66 61 253 342 370 275 149
37 61 65 200 327 370 290 157
16 52 71 129 271 338 274 146
-9 22 61 8 173 258 226 116
-30 -14 52 -113 54 141 142 64
-53 -58 51 -212 -91 -20 19 1
-85 -96 61 -296 -233 -200 -118 -67
-116 -118 60 -389 -374 -368 -235 -120
-144 -125 54 -461 -468 -486 -309 -148
-158 -126 35 -502 -500 -520 -340 -162
-170 -124 13 -540 -523 -535 -355 -168
-186 -139 3 -556 -540 -549 -372 -180
-199 -158 -9 -577 -566 -568 -392 -200
-205 -175 -25 -593 -598 -586 -411 -220
-205 -194 -47 -595 -610 -593 -419 -230
-196 -205 -69 -587 -613 -586 -420 -237
-184 -215 -87 -576 -607 -575 -415 -240
-173 -222 -110 -576 -598 -563 -408 -241
-165 -220 -120 -562 -575 -535 -387 -230
-153 -203 -128 -551 -551 -503 -364 -217
-139 -194 -138 -530 -512 -471 -338 -200
-122 -178 -140 -490 -464 -426 -305 -179
-112 -154 -138 -452 -420 -379 -270 -154
-102 -139 -138 -415 -371 -341 -242 -140
-89 -127 -129 -370 -333 -303 -214 -125
-80 -109 -120 -332 -291 -263 -187 -108
-72 -88 -107 -286 -243 -221 -157 -90
-55 -77 -90 -241 -205 -180 -127 -72
-43 -61 -78 -195 -164 -144 -102 -57
-34 -45 -62 -151 -122 -110 -80 -41
-27 -34 -44 -117 -94 -82 -61 -29
-21 -23 -33 -88 -70 -60 -45 -18
-15 -12 -23 -63 -51 -40 -33 -10
-9 -9 -27 -46 -32 -27 -26 -8
-4 -6 -23 -30 -21 -17 -19 -5
-2 -1 -16 -16 -14 -7 -10 1
-6 -5 -10 -3 0 0 -6 5
-8 -4 -11 -1 3 3 -3 5
-12 -10 -10 3 3 6 -2 4
-13 -12 -3 3 5 9 -2 4
-8 -6 -1 11 4 10 -2 3
-5 -9 -1 14 13 14 1 5
-3 -7 -2 22 20 21 5 8
4 3 -3 24 29 24 6 9
7 8 -5 25 25 26 10 13
9 11 -5 25 26 31 14 20
8 12 -3 24 29 33 17 24
9 5 0 32 35 34 18 21
11 3 -3 39 32 35 20 20
7 0 -6 36 29 35 18 21
8 0 -6 39 29 33 17 18
7 -5 -5 35 35 36 18 18
8 -5 -7 36 37 39 18 14
12 4 -10 34 33 37 15 10
15 8 -4 41 44 43 20 15
15 16 -1 46 50 48 26 23
16 19 -1 50 49 53 31 31
10 13 -7 50 51 52 33 28
10 10 -11 54 51 51 32 23
11 8 -8 51 51 52 31 21
10 4 -1 52 47 52 31 21
6 3 1 59 51 55 34 27
6 6 0 65 57 59 36 29
9 13 0 71 56 60 35 27
13 11 4 73 59 66 40 29
15 14 3 70 62 70 43 32
17 23 6 76 68 69 43 31
17 21 3 81 72 69 45 32
21 17 4 85 71 72 47 35
25 25 12 93 75 75 48 37
24 25 4 91 75 76 50 38
26 24 6 99 80 80 51 38
26 25 6 103 85 84 52 38
27 17 1 108 87 87 53 36
29 20 3 117 95 90 57 40
27 21 3 123 104 96 61 42
30 22 2 125 101 100 63 42
35 22 10 131 99 100 63 42
32 25 8 131 101 99 62 40
33 26 8 146 110 104 67 42
35 26 13 154 113 107 70 45
35 25 12 157 120 110 70 44
40 33 18 163 124 118 74 48
42 38 17 169 130 122 77 48
43 34 11 175 130 124 79 52
40 38 15 186 135 131 83 54
43 41 19 185 138 133 85 54
51 38 18 192 143 134 86 55
50 40 17 192 147 135 87 55
46 39 17 196 144 137 88 58
48 42 13 198 141 136 86 55
52 39 15 209 147 140 89 57
51 38 18 215 150 146 93 63
56 44 23 211 157 149 94 59
59 45 23 219 164 151 97 60
58 49 23 222 160 153 97 61
56 50 23 223 161 155 98 62
56 42 22 230 157 150 96 60
55 48 20 223 154 149 94 59
56 44 22 221 160 148 94 60
56 45 21 218 163 147 92 58
54 52 19 223 160 149 94 60
55 52 19 230 158 149 95 61
58 48 24 228 162 153 97 65
59 55 28 226 166 154 100 67
49 54 31 230 165 155 101 70
44 53 28 233 161 154 100 71
43 50 28 222 165 151 99 69
47 52 28 217 162 149 99 69
52 57 27 209 153 144 95 66
54 53 24 210 147 140 92 63
54 50 25 208 142 136 91 62
57 59 27 203 143 137 91 65
53 56 25 200 138 132 89 61
52 47 23 185 131 126 86 59
45 46 25 180 132 123 83 59
37 44 27 171 125 118 81 60
36 39 28 164 122 112 78 59
35 42 27 155 115 106 73 55
35 46 26 146 106 101 70 53
37 44 23 136 106 95 66 51
34 34 22 133 98 91 64 48
29 37 21 123 93 86 59 42
21 32 17 116 87 82 56 39
16 25 22 115 83 79 55 40
18 27 19 109 81 77 54 40
18 29 17 100 74 71 49 37
20 28 15 85 71 64 45 34
19 29 15 81 66 58 41 33
13 30 14 71 58 52 37 31
16 21 12 61 50 45 32 26
13 13 11 54 46 39 29 22
8 16 7 51 44 37 27 20
5 19 10 50 39 36 26 20
7 15 10 47 36 33 25 22
9 15 5 39 33 28 20 16
6 11 3 31 35 23 17 14
1 7 1 25 24 18 16 14
-1 3 14 23 26 17 15 17
-1 4 8 23 32 14 13 14
5 4 3 17 24 9 8 10
5 1 4 12 15 8 7 9
-2 3 1 12 15 7 7 9
-4 4 2 13 15 7 6 8
0 1 1 10 10 5 6 8
1 -2 3 8 16 5 5 8
0 1 1 6 7 1 2 11
-4 -6 -3 4 6 -2 1 8
-12 -6 -2 0 6 -2 -1 5
-11 -2 -4 6 1 -4 -2 3
-3 -1 2 6 -1 -6 -2 3
-3 -4 4 3 -2 -6 -4 2
-4 -3 0 4 0 -7 -5 2
-4 -5 3 -2 6 -6 -3 2
-4 0 5 -3 -1 -8 -3 3
-1 2 0 -3 3 -7 -2 3
-6 -3 0 -1 1 -9 -3 4
-8 -8 -4 -4 0 -13 -4 -1
-3 -5 2 -2 -1 -10 -2 5
1 0 1 0 -2 -10 -3 4
1 -4 -1 -3 -6 -14 -8 -3
-4 -12 -1 -7 -7 -12 -6 -1
-7 -7 -1 -4 1 -10 -6 3
-8 -4 -1 -1 0 -10 -7 0
-3 -3 -5 -8 -3 -10 -7 1
-2 -3 -3 -5 -5 -9 -6 0
-4 -6 2 5 -6 -10 -6 0
-3 -6 0 -1 -2 -9 -5 1
-4 -4 0 -7 -2 -9 -5 0
-5 -4 3 -3 0 -7 -5 -1
-5 -9 3 2 1 -8 -6 -2
-8 -11 -2 0 -7 -10 -9 -5
-8 -6 0 2 -2 -9 -8 -2
-9 -7 0 5 2 -6 -6 0
-7 -7 1 1 -1 -6 -7 -2
-3 -2 3 -1 -4 -8 -8 -4
-2 -1 5 3 4 -6 -5 1
-2 -3 5 0 7 -6 -4 3
-7 -3 6 0 3 -7 -6 -1
-13 -5 3 1 3 -6 -5 0
-13 -5 0 0 -1 -8 -6 -2
-10 -5 0 0 0 -7 -5 0
-1 2 1 5 0 -4 -4 3
1 7 -1 1 -3 -7 -6 1
-4 -2 1 5 -1 -4 -3 5
-7 -5 0 6 1 -4 -3 3
-8 -4 -2 2 4 -4 -4 2
-5 -6 1 -1 5 -3 -2 6
2 -4 2 -2 0 -5 -2 5
-3 -4 1 1 0 -5 -4 0
-6 -7 -1 -1 -5 -8 -6 1
-1 -3 -4 -3 -5 -9 -8 -1
1 1 -5 -5 -3 -9 -9 -3
2 -1 -7 -4 -3 -6 -7 -2
-4 -8 -2 5 -1 -4 -6 1
-8 -8 -4 5 -1 -4 -6 -1
0 0 -2 3 -1 -4 -6 -1
5 5 5 3 -2 -5 -6 0
2 2 6 2 0 -5 -6 3
-3 -1 2 -3 1 -5 -5 1
-9 1 2 -1 -1 -7 -6 -2
-12 -8 0 0 2 -6 -5 0
-13 -10 4 -2 2 -5 -6 -3
-8 -4 5 0 1 -5 -5 -2
0 5 1 -3 -1 -7 -7 -3
3 0 -3 2 -4 -6 -7 -1
5 -1 -4 -1 -2 -5 -6 1
8 -1 -5 -4 -2 -6 -5 0
5 -1 -4 -4 -2 -7 -5 -4
-1 -3 -5 -7 -9 -10 -7 -5
0 -8 -5 -8 -9 -13 -9 -8
-1 -12 -2 -11 -11 -12 -9 -7
-2 -7 3 -8 -2 -7 -4 -3
-3 -5 -2 -9 2 -6 -3 2
-5 -6 -4 -9 4 -6 -2 1
-6 -3 -2 -7 5 -3 -1 1
-2 -2 -7 -5 -1 -6 -2 -1
-2 -7 -5 -6 2 -8 -3 -1
-2 -4 -4 -8 0 -8 -3 1
1 -5 0 -11 0 -10 -6 1
-2 -7 1 -17 -3 -15 -8 -6
-3 -12 -2 -15 -6 -13 -7 -6
-5 -6 0 -16 -11 -12 -8 -6
-3 -7 -1 -12 -10 -11 -7 -4
-4 -7 -8 -9 -11 -12 -7 -7
-4 -1 -8 -14 -12 -12 -8 -8
-1 7 -1 -17 -10 -10 -6 -7
1 3 -4 -10 -13 -10 -6 -5
-1 -5 -5 -12 -12 -8 -6 -1
-1 -3 -7 -16 -8 -11 -11 -9
-5 -5 -9 -14 -7 -11 -11 -10
-4 -8 -5 -11 -5 -5 -6 -4
7 7 -2 -13 -7 -2 -4 -3
11 11 2 -10 -4 0 -3 0
7 8 4 -1 2 7 3 4
1 11 -1 0 5 7 3 5
9 11 2 -2 10 8 4 6
12 10 7 -3 12 5 2 4
11 9 9 1 11 6 6 7
8 11 13 3 12 8 7 10
4 8 9 3 9 7 5 10
5 11 3 1 1 5 3 6
4 18 2 1 0 4 0 6
3 15 5 2 5 7 2 6
7 15 9 7 7 11 5 7
10 20 5 8 8 10 4 10
13 17 3 4 4 9 4 7
11 12 4 0 4 9 3 5
6 11 0 6 6 13 6 9
5 15 0 2 7 14 7 11
6 16 0 1 7 10 5 10
6 16 -4 -2 5 9 6 7
9 17 -4 -4 3 11 7 7
11 17 -7 -5 1 10 6 5
13 12 -12 -5 1 7 5 4
12 11 -13 -8 -1 8 6 6
7 10 -15 -9 -4 7 4 6
11 3 -12 -6 -4 4 3 4
11 1 -11 -8 -4 2 2 4
10 -2 -15 -18 -14 -3 -2 5
10 -3 -17 -18 -18 -6 -4 3
11 -5 -15 -17 -18 -7 -6 -3
11 -4 -13 -12 -10 -4 -2 0
13 0 -12 -16 -6 -5 -4 -1
10 1 -13 -22 -16 -9 -7 -4
7 -1 -13 -26 -24 -12 -10 -6
3 -9 -14 -20 -24 -11 -9 -8
3 -8 -11 -24 -24 -12 -9 -8
3 -6 -7 -24 -21 -12 -9 -9
-2 -9 -9 -21 -17 -10 -9 -6
4 -10 -10 -25 -19 -15 -11 -9
8 -9 -8 -27 -20 -13 -10 -10
5 -6 -2 -25 -21 -10 -8 -9
0 -8 -1 -22 -22 -9 -8 -8
-4 -10 -2 -21 -18 -11 -10 -10
-5 -10 -6 -25 -16 -13 -12 -12
-9 -8 -7 -26 -15 -12 -11 -10
-12 -17 -5 -29 -20 -13 -11 -10
-12 -16 -7 -30 -26 -17 -15 -13
-11 -16 -10 -30 -25 -18 -16 -14
-13 -20 -12 -27 -31 -22 -20 -17
-13 -23 -9 -28 -29 -20 -20 -16
-9 -20 -7 -24 -28 -20 -18 -17
-5 -16 -7 -21 -30 -20 -18 -14
-2 -12 -10 -25 -25 -20 -16 -12
-3 -9 -7 -27 -24 -17 -14 -11
-1 -10 -10 -25 -25 -20 -17 -15
0 -14 -10 -24 -26 -21 -17 -15
1 -8 -14 -31 -28 -22 -19 -16
0 -8 -12 -32 -24 -23 -19 -18
-5 -13 -6 -28 -22 -23 -18 -16
-6 -16 -7 -30 -25 -24 -19 -16
-7 -16 -5 -31 -28 -22 -17 -15
-11 -20 -6 -31 -31 -23 -18 -16
-12 -19 -6 -32 -29 -24 -20 -15
-13 -18 -7 -30 -27 -21 -19 -17
-14 -18 -10 -29 -24 -22 -19 -18
-6 -7 -9 -27 -24 -22 -19 -18
-3 -8 -5 -26 -21 -19 -16 -15
-5 -11 -4 -26 -23 -19 -14 -14
-3 -9 -6 -27 -25 -21 -16 -14
-5 -14 -5 -28 -24 -20 -15 -9
-7 -13 -3 -29 -20 -20 -16 -13
-6 -12 -6 -30 -23 -20 -16 -15
-10 -13 -6 -26 -23 -20 -16 -15
-8 -8 -5 -24 -20 -19 -15 -16
-7 -5 -4 -28 -23 -20 -16 -17
-4 -10 1 -27 -19 -19 -15 -17
-7 -11 1 -21 -16 -15 -14 -17
-7 -15 0 -9 -12 -11 -15 -18
-2 -17 8 13 -2 -5 -14 -18
2 -14 16 33 20 10 -6 -17
11 -5 20 51 34 28 4 -11
23 4 18 64 63 51 19 -4
26 12 25 92 97 80 39 10
28 22 26 119 121 109 59 21
35 33 33 154 155 140 79 33
48 37 37 185 189 182 114 52
65 54 40 215 229 225 151 73
75 69 53 270 279 277 191 98
81 82 60 298 318 321 229 118
81 89 60 276 339 354 259 134
69 88 63 233 332 368 282 145
51 84 70 179 312 359 287 146
24 65 75 86 246 312 262 130
-12 33 69 -40 141 225 208 98
-35 -4 65 -153 15 97 112 44
-61 -49 65 -249 -129 -81 -25 -28
-92 -85 65 -343 -278 -259 -159 -94
-126 -104 63 -433 -410 -415 -259 -132
-145 -111 48 -490 -486 -509 -320 -156
-152 -110 20 -535 -507 -531 -340 -164
-162 -115 5 -564 -526 -543 -354 -175
-179 -134 -2 -576 -547 -556 -374 -192
-193 -157 -10 -594 -575 -576 -394 -210
-198 -170 -34 -606 -601 -591 -410 -223
-193 -183 -57 -603 -606 -595 -416 -231
-179 -193 -77 -593 -606 -585 -411 -240
-169 -204 -92 -595 -603 -575 -404 -238
-164 -207 -114 -596 -592 -562 -396 -238
-154 -206 -127 -577 -558 -533 -375 -228
-143 -194 -135 -552 -525 -497 -348 -213
-130 -177 -146 -525 -496 -462 -323 -198
-113 -154 -149 -488 -445 -417 -292 -179
-97 -135 -145 -446 -399 -372 -260 -159
-86 -113 -132 -401 -353 -328 -227 -134
-77 -97 -122 -354 -313 -291 -201 -120
-63 -83 -110 -309 -273 -252 -172 -103
-50 -68 -90 -268 -226 -210 -142 -86
-40 -54 -80 -219 -181 -171 -114 -68
-27 -38 -70 -177 -143 -138 -92 -54
-20 -23 -49 -135 -110 -105 -70 -41
-17 -7 -33 -101 -80 -78 -52 -30
-11 0 -29 -70 -52 -59 -41 -24
-11 -1 -21 -53 -39 -43 -29 -17
-10 4 -16 -38 -29 -29 -19 -8
-4 17 -11 -16 -12 -16 -8 -3
5 19 -6 -6 -5 -9 -3 0
10 19 -7 -8 -2 -6 -1 -1
6 13 -13 -4 -1 -5 1 -1
5 9 -11 -1 -2 -4 1 -2
8 9 -4 6 3 2 3 0
9 12 2 11 9 5 5 1
11 11 -4 15 11 8 5 4
14 10 -4 17 21 13 8 4
13 20 -2 23 24 16 10 4
13 20 -4 28 25 18 11 1
11 14 -11 27 21 17 11 1
3 12 -4 24 23 20 14 6
4 12 0 30 26 24 18 10
9 14 4 30 28 23 17 9
12 18 7 30 28 25 17 9
15 17 5 32 30 27 17 9
14 19 -4 33 28 27 15 7
20 23 -5 39 38 30 18 8
23 24 -1 45 42 38 25 14
25 24 -2 48 50 39 27 14
28 28 -2 46 48 40 28 16
24 26 1 51 49 42 31 22
23 27 1 58 53 45 33 24
22 27 5 59 51 44 32 21
21 25 2 62 49 45 32 19
25 24 0 64 48 47 34 22
23 22 -3 69 51 48 32 18
23 23 -4 66 53 51 33 17
25 25 -4 65 55 55 37 19
24 23 -4 69 59 55 38 22
26 24 -2 78 61 55 39 24
27 26 -1 80 71 57 40 23
25 25 3 81 70 60 42 25
33 29 2 89 64 60 42 25
38 33 6 97 69 64 45 30
37 36 2 99 74 67 46 29
37 38 0 102 79 72 47 27
34 38 2 105 91 77 50 31
36 39 9 112 94 83 55 36
40 38 7 119 90 86 57 36
41 35 3 121 93 86 57 37
43 41 6 125 100 89 62 42
45 43 8 131 98 93 61 39
47 42 8 131 101 91 58 35
43 39 10 145 104 96 61 37
40 41 14 158 112 102 66 42
42 42 16 157 117 106 68 45
44 43 12 158 121 111 71 48
45 46 7 162 124 113 72 44
56 53 10 172 130 117 76 49
59 50 9 172 134 118 77 49
58 48 10 177 132 120 78 51
60 50 11 181 134 122 78 52
59 52 13 187 136 120 78 47
58 58 14 191 139 121 79 47
59 58 17 193 145 127 83 51
60 60 17 199 147 130 83 52
63 59 16 208 153 131 83 53
65 63 16 210 147 135 86 52
65 60 22 211 152 139 90 54
62 54 19 212 150 139 90 55
60 56 18 217 150 138 92 58
64 61 25 213 150 138 91 60
62 59 29 213 150 137 90 58
60 64 26 220 150 135 87 55
63 68 26 225 152 137 91 58
60 64 30 235 157 140 93 59
56 63 30 231 155 141 94 59
59 69 27 228 159 141 94 60
62 69 30 225 158 137 92 58
69 62 26 225 156 137 94 62
68 60 29 215 153 134 93 60
67 61 27 210 148 131 91 58
64 65 24 205 144 125 88 57
59 61 27 202 141 127 89 58
58 63 27 204 141 127 89 58
57 65 29 200 140 124 86 56
56 63 24 198 135 119 82 56
57 63 25 192 136 120 84 58
53 63 25 190 135 119 83 60
49 64 28 178 131 114 78 60
49 65 26 168 131 108 75 55
47 57 25 159 119 101 71 52
47 52 26 155 110 96 66 49
41 50 24 142 105 92 63 47
40 50 21 135 98 88 59 44
43 48 22 128 95 84 55 40
39 42 22 116 93 80 53 38
33 38 23 112 87 79 52 37
24 39 23 110 86 76 51 36
22 35 24 105 75 73 48 37
20 41 24 96 73 68 45 38
20 38 21 90 70 63 41 33
18 27 18 81 59 55 35 28
18 28 14 71 48 48 29 23
15 29 12 61 41 41 22 19
15 22 15 61 43 41 22 21
20 27 14 55 48 36 20 17
16 26 12 56 42 35 18 18
15 27 12 50 35 31 16 16
14 22 10 40 35 28 14 16
12 19 11 44 32 25 12 14
11 16 11 37 27 23 10 14
9 15 10 24 18 17 6 7
7 12 17 20 18 16 5 7
5 15 12 21 16 14 4 6
6 14 4 19 13 11 1 3
5 10 3 21 15 10 0 3
5 14 6 13 15 13 3 5
3 14 6 9 16 9 1 3
2 8 10 11 9 9 3 3
1 7 3 3 6 4 -2 1
2 8 0 -2 3 -1 -8 -2
3 10 1 2 4 -4 -8 -4
1 4 5 4 5 -3 -8 -2
4 6 3 -1 3 -1 -6 1
3 4 6 6 0 1 -6 -1
1 1 2 3 -1 0 -6 -3
1 2 3 1 2 2 -5 3
1 1 1 3 1 -2 -7 -2
-1 1 4 4 2 -1 -7 -2
-4 3 6 4 -1 -3 -8 -3
-3 1 4 -1 -4 -6 -9 -4
-3 -2 5 -5 0 -8 -10 -2
-2 0 6 -4 -4 -8 -12 -2
1 -2 6 -3 -5 -9 -11 -5
3 0 6 -4 -6 -7 -9 -5
7 7 3 2 -1 -5 -7 -4
5 5 8 2 -1 -1 -5 0
5 8 -1 2 -5 -5 -7 -5
-2 -3 -1 1 -3 -3 -6 -2
-4 -2 -3 4 0 -3 -5 1
-4 -6 -3 4 1 -3 -4 -2
-5 -3 -3 2 -5 -8 -8 -2
-1 4 3 0 -5 -5 -6 -2
-3 5 6 2 3 -1 -3 -2
-6 6 6 5 2 -1 -2 -2
-4 1 6 5 4 0 -2 -2
-1 6 6 5 5 3 -1 -1
4 3 13 9 11 3 3 0
3 -3 9 7 4 0 -2 -2
-2 -1 1 0 -6 -5 -6 -6
-5 -3 1 -3 -1 -5 -6 -6
-5 -5 2 1 -4 -8 -8 -7
-2 -5 4 6 -3 -7 -7 -7
-5 -5 3 -1 -3 -6 -6 -7
-8 -7 3 0 -4 -5 -5 -6
-2 1 3 5 -4 -4 -4 -5
0 7 2 5 -1 -1 -2 -5
0 1 4 4 4 2 3 -1
3 6 7 2 4 0 2 -1
2 8 2 4 2 0 0 -2
2 6 1 5 0 -1 -1 -3
-1 3 2 1 -3 -3 -4 -1
-5 -4 2 -2 -3 -6 -4 -4
-7 -2 3 -3 0 -4 -3 -5
-2 -3 4 2 2 -3 -2 -5
5 0 3 3 2 -2 -2 -5
7 4 5 7 6 2 1 -2
3 -2 3 3 5 1 1 2
-2 -8 5 2 2 -1 0 -2
-4 -2 9 0 4 1 2 -1
-5 -1 9 3 4 3 4 1
-6 0 7 4 7 0 1 -2
-8 -5 11 -1 -2 -2 0 -3
-10 -8 9 3 -3 -3 -1 -4
-6 -8 3 0 0 -4 -2 -5
-2 -3 2 -2 3 -5 -3 -5
-4 -3 2 3 3 -2 0 -4
-6 -4 4 2 7 -1 1 -4
-3 -4 7 -1 3 -2 1 -5
0 1 6 -1 3 -4 -1 -5
-1 -1 1 -7 -2 -8 -2 -6
-4 -7 1 -1 -7 -12 -6 -8
-2 -6 2 2 -3 -10 -6 -7
-3 -3 1 -4 2 -9 -4 -4
3 1 3 -4 -5 -7 -3 -4
8 6 4 -2 -5 -7 -3 -4
7 4 -1 -1 -1 -7 -3 -5
5 1 4 -6 1 -7 -4 -5
6 0 7 0 2 -8 -3 -5
-1 -1 3 2 -2 -6 -1 -1
-3 -3 2 5 -5 -7 -2 1
-5 -8 3 -2 -6 -11 -4 -1
-3 -5 2 -10 -3 -10 -4 -2
0 0 4 -8 -8 -9 -5 -2
0 0 6 -6 -2 -9 -5 -1
3 -4 6 -9 -5 -9 -5 -1
1 -4 4 -8 -11 -9 -5 -3
-7 -2 5 -7 -8 -8 -5 -4
-6 0 -1 -9 -6 -9 -4 -5
-2 -2 2 -5 -6 -4 1 2
-3 -2 5 0 -3 -5 1 3
-6 -7 7 -4 -4 -9 -1 -2
-3 -6 4 -5 -7 -9 -2 -2
3 1 3 -4 -6 -8 -1 -1
5 2 4 -8 -8 -8 -1 -4
7 4 1 -10 -4 -8 -2 -4
9 13 -1 -9 0 -5 0 -3
8 17 -2 -8 -1 -4 1 -3
11 8 6 0 4 0 5 1
11 12 11 1 5 0 6 2
8 16 4 -3 1 -3 2 -2
4 9 6 0 -4 -4 3 -1
-4 6 12 -1 -1 -2 5 1
-5 5 18 1 8 1 7 3
-7 3 16 6 14 3 7 2
-2 5 12 6 5 1 6 -1
8 15 14 13 6 5 9 2
10 13 18 16 11 5 10 2
6 6 15 15 11 6 12 3
6 9 12 14 11 6 11 5
5 13 14 11 16 5 10 7
6 21 16 14 12 6 11 9
7 20 8 17 17 11 15 10
6 22 3 8 15 8 12 9
10 18 -1 2 10 6 12 10
10 11 -1 3 9 8 13 8
8 13 -9 -2 9 7 12 7
10 17 -13 -5 5 1 8 8
14 10 -11 -7 2 0 9 7
13 3 -5 -6 -1 1 9 10
14 11 -10 -10 -1 -3 6 8
13 6 -12 -13 -1 -7 8 1
10 0 -2 -15 -11 -7 6 3
2 -2 -7 -16 -14 -9 4 2
7 -4 -5 -15 -6 -7 6 -1
8 1 -4 -16 -4 -8 5 -2
3 1 -5 -18 -6 -9 4 -2
7 -3 -4 -18 -12 -12 5 -6
8 -10 -3 -18 -15 -12 3 -4
5 -11 -1 -13 -16 -12 3 -3
5 -9 1 -18 -13 -14 0 -5
0 -15 -1 -21 -18 -16 -1 -10
-1 -18 -1 -24 -22 -17 -3 -8
2 -13 -3 -26 -22 -19 -5 -10
-2 -15 -4 -27 -20 -20 -6 -14
-2 -14 -1 -22 -19 -19 -5 -11
-1 -8 -2 -19 -15 -16 -1 -9
-5 -1 1 -20 -15 -18 -3 -10
-6 -3 -2 -25 -21 -21 -5 -11
-7 -5 -2 -29 -24 -24 -7 -12
-11 -15 -2 -28 -20 -22 -6 -10
-11 -21 -3 -26 -25 -23 -6 -11
-14 -24 -6 -25 -27 -24 -8 -12
-11 -18 -8 -33 -32 -28 -11 -14
-12 -16 -9 -34 -32 -30 -14 -18
-11 -22 -7 -31 -27 -27 -11 -12
-8 -15 -9 -33 -29 -28 -11 -13
-12 -18 -10 -36 -32 -30 -13 -15
-17 -23 -6 -35 -31 -30 -13 -12
-11 -19 -4 -32 -30 -27 -10 -9
-5 -12 -5 -29 -29 -28 -11 -9
-5 -12 -6 -28 -22 -28 -12 -12
-10 -14 -5 -25 -22 -27 -11 -11
-6 -15 -4 -29 -27 -27 -12 -11
-5 -17 -4 -28 -25 -27 -12 -11
-9 -18 -3 -29 -25 -27 -11 -12
-9 -16 -3 -26 -20 -25 -8 -9
-12 -20 -4 -22 -23 -24 -7 -9
-16 -25 -5 -24 -23 -26 -7 -11
-20 -24 -5 -29 -20 -26 -7 -12
-21 -24 -6 -27 -22 -27 -8 -11
-17 -18 -6 -24 -23 -29 -9 -12
-15 -11 -3 -27 -27 -28 -8 -11
-15 -13 -5 -28 -25 -26 -8 -8
-17 -21 -5 -25 -20 -26 -9 -9
-8 -17 -7 -23 -23 -28 -11 -13
-9 -15 -6 -20 -19 -26 -9 -9
-10 -17 -4 -25 -16 -23 -7 -4
-9 -11 -3 -26 -18 -24 -8 -8
-10 -12 1 -30 -21 -25 -7 -8
-13 -17 -4 -27 -19 -25 -10 -10
-16 -21 -6 -24 -15 -25 -9 -11
-12 -24 -3 -18 -16 -22 -11 -16
-5 -23 5 -4 -8 -15 -11 -15
3 -15 16 19 17 -5 -6 -12
5 -11 18 39 39 11 4 -10
10 -5 14 59 52 32 19 -2
19 5 19 82 76 60 39 12
23 17 28 110 110 91 59 25
33 29 32 147 142 122 79 36
47 39 36 179 179 157 106 50
62 45 37 215 218 199 142 73
73 57 40 248 256 247 178 92
79 77 48 281 290 292 215 111
83 83 55 284 321 331 249 127
74 81 59 253 329 353 276 143
55 80 70 206 318 357 292 152
32 69 79 140 277 331 280 143
3 41 74 25 189 257 234 114
-21 3 66 -91 74 147 157 69
-50 -38 69 -192 -61 -15 32 6
-86 -76 74 -285 -208 -192 -107 -65
-125 -104 74 -377 -332 -349 -215 -111
-155 -109 66 -449 -417 -470 -289 -137
-168 -99 42 -499 -466 -506 -320 -144
-175 -100 23 -536 -487 -519 -334 -156
-185 -116 14 -552 -501 -532 -351 -172
-197 -138 2 -574 -531 -555 -377 -195
-205 -163 -19 -586 -561 -576 -396 -212
-205 -176 -38 -592 -577 -585 -405 -223
-202 -194 -58 -582 -581 -580 -406 -232
-195 -208 -80 -578 -580 -574 -402 -235
-182 -212 -101 -578 -572 -561 -393 -230
-169 -204 -116 -576 -561 -540 -377 -226
-156 -185 -130 -558 -533 -508 -354 -214
-146 -173 -136 -527 -489 -467 -322 -193
-132 -158 -138 -492 -447 -422 -289 -171
-108 -136 -141 -451 -410 -381 -260 -157
-97 -123 -139 -411 -369 -342 -233 -139
-90 -109 -132 -373 -325 -304 -205 -122
-77 -91 -118 -325 -281 -264 -178 -104
-63 -76 -107 -282 -241 -228 -151 -90
-49 -58 -93 -231 -199 -185 -121 -72
-32 -37 -75 -183 -156 -146 -94 -55
-23 -18 -61 -145 -119 -114 -72 -43
-20 -6 -46 -110 -89 -86 -53 -30
-16 5 -40 -83 -69 -66 -39 -23
-9 11 -36 -63 -55 -52 -30 -18
-8 6 -26 -42 -34 -35 -19 -9
-11 6 -20 -29 -21 -24 -11 -3
-5 13 -20 -18 -14 -18 -8 1
-1 9 -18 -14 -16 -16 -6 -3
1 13 -6 -7 -7 -7 0 2
5 25 -4 2 -2 2 7 8
5 27 -9 8 1 3 6 7
7 23 -11 11 5 4 5 5
8 24 -9 10 0 7 6 5
12 26 -10 11 5 9 7 7
14 34 -13 11 9 10 8 7
11 28 -12 16 10 13 12 10
8 23 -8 27 13 17 16 14
10 21 -6 33 13 18 16 12
10 20 -7 31 13 20 16 11
11 27 -8 27 13 19 16 14
15 28 -4 32 16 21 17 17
17 28 3 36 26 25 20 15
16 28 -5 38 24 27 20 17
15 26 -5 39 21 30 22 19
8 21 -9 44 28 32 23 18
3 24 -5 49 29 35 27 22
5 26 -11 49 25 34 26 23
13 27 -10 46 28 36 27 20
18 28 -6 45 28 38 27 22
18 25 -9 45 27 37 27 21
16 25 -7 45 27 36 25 17
17 27 -10 46 32 37 27 17
20 32 -11 53 34 40 29 18
26 37 -12 61 33 44 31 18
28 33 -13 63 41 49 35 23
26 32 -14 70 46 50 38 24
27 40 -13 67 46 51 39 25
29 43 -14 73 47 54 38 24
30 43 -12 77 50 61 42 27
30 44 -10 83 52 62 43 27
29 39 -6 81 56 64 43 25
31 36 1 89 63 71 47 27
28 36 -2 96 61 74 49 28
27 37 -4 104 63 77 52 30
30 33 -4 110 72 81 56 35
33 38 -2 107 70 82 55 32
38 50 -3 107 75 85 57 34
36 47 -11 109 77 88 60 35
39 44 -8 113 85 91 61 37
47 47 -3 126 83 94 64 40
44 47 3 137 87 98 66 43
44 56 1 135 92 101 66 41
47 55 2 141 101 111 73 46
46 52 3 152 105 115 76 48
49 51 2 156 107 117 77 49
53 56 3 154 104 116 78 47
58 59 4 157 106 117 78 48
57 53 7 169 109 120 81 49
57 56 6 167 110 122 82 51
59 59 9 177 117 126 85 52
60 61 8 181 118 129 88 52
59 63 11 188 122 131 88 55
58 59 17 192 126 136 92 59
54 54 15 189 128 137 93 59
53 55 11 196 126 139 92 56
55 58 13 195 130 139 93 58
56 59 17 198 133 138 94 58
59 58 13 208 132 139 95 59
64 61 13 206 137 139 93 58
63 65 12 201 139 140 95 58
63 64 15 211 134 141 95 58
63 61 18 215 137 143 96 58
67 64 16 214 145 143 97 59
65 67 23 217 145 143 98 60
61 67 22 217 144 146 99 60
65 70 26 215 143 148 105 63
66 75 20 213 141 144 100 61
60 72 16 205 144 138 95 58
58 61 19 197 142 141 98 61
55 63 18 202 135 139 98 61
54 64 19 197 131 134 95 59
54 65 22 192 134 134 95 61
58 69 22 190 135 132 94 62
63 73 27 189 134 130 93 61
58 66 26 178 131 128 91 58
49 63 25 170 125 123 87 56
48 66 24 159 115 117 82 54
46 59 27 155 118 113 80 50
42 57 24 152 117 110 78 49
37 55 26 147 112 106 75 51
35 53 24 137 110 101 71 48
37 56 21 130 99 96 68 47
39 55 20 122 93 92 65 48
39 52 21 119 93 88 63 47
37 48 19 106 84 82 60 47
30 44 19 99 76 76 57 42
28 44 18 91 73 69 52 34
26 39 18 82 69 65 50 34
26 39 19 82 63 60 46 32
24 39 23 77 61 56 45 31
15 34 19 66 56 52 42 28
11 29 20 56 51 47 37 24
10 26 17 55 48 43 34 25
7 24 19 47 41 38 30 20
5 24 17 44 44 36 28 19
5 22 18 42 42 35 30 19
4 21 12 31 32 28 24 15
8 21 16 28 34 25 22 15
6 21 16 26 31 23 20 14
5 20 12 19 23 21 18 13
9 22 11 16 21 18 17 11
5 19 11 16 24 17 12 8
4 14 13 13 22 16 12 7
5 13 11 13 23 14 11 7
3 10 14 12 20 12 9 8
1 7 16 5 18 13 11 9
1 7 9 1 11 9 8 5
2 10 10 6 6 4 5 3
2 3 11 -6 9 4 4 4
-1 0 11 -8 9 2 3 3
0 4 12 -4 3 -1 1 1
2 6 15 -1 5 2 3 3
-1 8 17 -5 8 4 4 4
-1 6 17 -6 9 4 4 4
1 2 16 -5 7 2 2 2
-2 1 16 -7 4 0 -1 3
-1 2 13 -10 8 -1 -1 4
-5 2 7 -12 7 -5 -4 0
-5 0 11 -11 0 -3 -2 0
-3 2 17 -11 7 -1 1 3
-6 0 13 -10 7 -2 0 2
-6 0 12 -7 7 0 0 2
-5 1 11 -6 8 0 -1 2
-8 -2 13 -6 9 -1 -1 3
-10 -4 16 -4 6 0 1 6
-12 -3 15 -6 5 0 0 5
-7 5 6 -10 1 -6 -3 0
0 4 2 -14 -1 -10 -7 -4
0 1 6 -15 2 -8 -5 -3
-2 1 12 -7 3 -7 -5 -3
-3 0 12 -7 8 -7 -6 -3
-6 3 10 -10 7 -6 -7 -3
-5 4 11 -6 9 -1 -4 3
-4 -1 13 -2 8 -1 -4 0
-3 -5 12 -7 7 -2 -5 3
-4 -6 9 -6 12 -1 -4 4
-4 -6 8 -6 14 -4 -7 0
-2 4 9 -8 8 -8 -10 -5
1 -2 9 -2 11 -3 -5 0
-4 5 9 1 16 0 -3 2
-7 8 9 2 17 1 -2 2
-5 3 8 2 10 0 -3 0
-2 2 5 0 13 2 -3 3
-5 0 3 0 17 3 -3 3
-3 -4 2 -1 16 2 -3 2
1 0 2 0 15 2 -1 2
0 5 1 8 12 2 -1 4
-4 -2 -2 8 15 2 -2 1
-6 -8 -3 2 11 1 -3 2
-11 -7 0 1 13 -1 -4 0
-10 -4 -1 -8 16 -5 -8 -4
-3 -4 -1 -5 12 -1 -5 -1
1 0 0 -3 11 -1 -4 1
0 -1 3 1 14 1 -4 0
-3 -4 3 2 22 2 -3 2
2 4 0 1 19 3 -2 5
5 9 -1 -2 19 4 -1 1
2 6 3 -4 20 3 -1 2
-4 0 4 -2 23 5 3 6
-7 1 5 -3 23 3 2 4
-5 0 1 -5 20 1 -1 2
-4 1 -1 -4 13 2 -2 1
-5 0 -4 -6 7 1 -3 0
-4 1 -7 -5 5 -1 -5 1
-4 2 -7 -10 7 -1 -4 2
-4 0 -6 -5 9 3 -2 2
-5 -5 -1 -2 16 4 0 2
-3 -2 -1 -7 13 0 -3 1
-6 -8 1 -4 9 2 -2 4
-6 -6 2 -1 9 3 -1 4
-8 -4 -1 -2 10 1 -2 5
-7 -2 0 -5 10 0 -4 1
-4 -2 3 -12 12 -2 -7 -2
-4 -4 -6 -14 6 -4 -8 -3
1 -3 -6 -9 7 -3 -8 -2
1 1 -8 -7 3 -4 -10 -4
-1 0 -11 -12 1 -3 -10 -2
-4 -3 -11 -12 3 -4 -10 -2
-6 -10 -9 -12 6 -2 -9 -1
-2 -6 -10 -9 4 -4 -9 -3
-5 -5 -4 -7 7 -2 -6 -1
-10 -8 -5 -6 3 0 -6 1
-11 -6 -5 -5 2 0 -10 -4
-5 -1 -6 -5 7 1 -9 -4
-1 -1 -6 -3 7 0 -9 -3
-2 2 -9 -7 2 -2 -9 -4
-4 -6 -11 -9 3 1 -7 -3
2 -1 -14 -10 3 0 -7 -4
3 2 -11 -12 4 0 -6 -2
6 6 -8 -11 5 1 -5 1
5 9 -10 -8 6 5 -3 4
1 8 -8 -4 7 7 -1 4
3 6 -6 -4 9 8 -2 5
5 9 -5 -2 8 7 -2 8
4 7 -1 0 15 8 -2 7
2 5 -3 1 16 11 1 7
0 7 -5 5 16 12 3 7
1 9 -7 3 18 9 1 4
0 8 -5 1 20 9 2 6
3 10 0 6 19 11 4 6
11 14 4 7 19 12 5 7
13 14 1 8 19 13 6 8
10 12 -2 6 18 11 5 7
10 8 -3 7 17 12 5 6
10 10 -8 10 17 12 5 6
5 13 -11 10 22 14 7 10
4 18 -10 8 26 15 8 10
7 13 -10 1 19 14 5 9
5 11 -18 -5 16 11 5 8
4 13 -17 2 21 13 6 8
2 10 -13 0 19 13 5 7
9 11 -18 -5 17 11 3 6
12 10 -20 -3 16 10 3 6
12 5 -19 -1 9 9 1 3
12 0 -14 1 16 10 2 4
11 -2 -13 -7 13 8 1 6
5 -1 -15 -11 4 4 -1 3
-1 -3 -19 -9 -1 1 -3 0
-2 -9 -16 -13 3 2 0 3
2 -6 -8 -13 6 0 -2 1
8 -3 -10 -17 3 -4 -6 2
10 -6 -20 -21 -5 -8 -9 -5
10 -7 -20 -22 -4 -10 -8 -7
9 -7 -19 -22 -6 -11 -10 -6
2 -11 -13 -18 -7 -10 -8 -3
1 -13 -8 -13 -4 -7 -6 -3
2 -13 -13 -17 -8 -10 -10 -5
-3 -19 -8 -20 -7 -9 -10 -6
-10 -18 -9 -21 -11 -10 -10 -5
-13 -17 -11 -22 -14 -13 -13 -9
-14 -14 -11 -23 -14 -15 -16 -13
-10 -11 -9 -24 -11 -16 -18 -13
-11 -15 -14 -22 -16 -18 -18 -16
-10 -15 -10 -17 -16 -16 -19 -13
-7 -20 -8 -19 -13 -16 -17 -12
-3 -19 -12 -26 -16 -18 -18 -12
-9 -19 -13 -24 -13 -17 -19 -11
-7 -16 -12 -24 -16 -20 -19 -13
-6 -17 -12 -26 -15 -17 -16 -12
-8 -18 -9 -24 -13 -16 -14 -10
-8 -16 -13 -30 -14 -21 -19 -12
-11 -18 -14 -27 -17 -20 -18 -13
-15 -20 -14 -24 -15 -19 -18 -12
-12 -17 -9 -25 -10 -19 -20 -14
-9 -17 -9 -23 -8 -17 -17 -12
-5 -15 -12 -25 -18 -18 -17 -12
-2 -13 -9 -20 -12 -17 -14 -8
-6 -12 -15 -21 -14 -20 -18 -13
-13 -17 -15 -18 -17 -20 -19 -13
-13 -19 -15 -17 -20 -22 -21 -16
-13 -19 -12 -26 -23 -23 -24 -16
-8 -17 -12 -20 -22 -24 -23 -19
-7 -13 -11 -22 -19 -23 -22 -19
-7 -17 -12 -22 -18 -24 -20 -20
-11 -16 -15 -22 -22 -24 -22 -18
-16 -18 -12 -25 -20 -24 -22 -17
-17 -25 -12 -25 -21 -21 -19 -16
-11 -22 -11 -23 -17 -21 -17 -11
-6 -17 -9 -21 -15 -20 -16 -10
-8 -16 -6 -18 -13 -17 -15 -8
-13 -22 -6 -21 -13 -18 -16 -9
-15 -28 -8 -17 -17 -20 -17 -13
-14 -23 -6 -23 -16 -20 -18 -12
-10 -20 -7 -20 -17 -20 -18 -15
-3 -15 -9 -18 -6 -19 -19 -15
-5 -16 -13 -12 5 -16 -18 -19
-11 -21 -8 1 5 -11 -18 -17
-14 -26 4 22 12 -4 -15 -19
-10 -24 8 37 25 9 -11 -12
-1 -10 9 50 42 26 -1 -10
13 2 16 68 61 49 13 -6
20 12 17 94 92 77 33 7
25 17 24 130 135 112 56 22
41 33 29 155 169 146 82 37
56 43 34 191 205 187 114 57
68 50 39 225 241 232 157 80
72 67 41 265 283 278 192 99
73 79 49 292 318 319 228 119
75 78 55 283 347 357 263 137
65 77 58 239 340 367 283 149
47 70 67 205 319 364 291 152
23 52 75 122 262 320 267 133
-3 20 68 8 164 234 210 95
-23 -18 62 -98 37 104 114 41
-52 -61 72 -199 -109 -70 -22 -28
-89 -95 75 -290 -246 -242 -153 -92
-129 -108 71 -384 -373 -401 -258 -133
-156 -120 56 -444 -448 -493 -323 -159
-169 -120 32 -486 -473 -516 -344 -169
-179 -115 18 -516 -491 -527 -357 -177
-189 -130 9 -537 -514 -545 -379 -198
-200 -153 2 -559 -542 -567 -401 -215
-208 -166 -13 -571 -567 -581 -413 -230
-206 -179 -33 -573 -576 -585 -417 -238
-194 -199 -58 -560 -575 -575 -414 -241
-184 -212 -82 -563 -570 -566 -406 -244
-172 -215 -102 -563 -554 -549 -394 -245
-165 -206 -114 -550 -537 -521 -375 -233
-156 -194 -125 -535 -516 -490 -351 -217
-140 -176 -129 -511 -480 -455 -323 -201
-124 -158 -138 -477 -440 -416 -297 -180
-109 -137 -142 -431 -397 -375 -265 -164
-90 -121 -137 -395 -353 -330 -234 -146
-77 -113 -129 -357 -312 -293 -206 -128
-69 -100 -115 -312 -270 -252 -176 -109
-61 -87 -104 -266 -223 -209 -145 -90
-49 -67 -91 -214 -178 -166 -113 -70
-36 -45 -74 -169 -136 -128 -86 -52
-31 -29 -55 -132 -96 -97 -64 -38
-20 -11 -42 -98 -71 -71 -47 -27
-13 -9 -34 -65 -50 -53 -36 -21
-13 -6 -28 -47 -37 -40 -27 -18
-13 1 -20 -34 -25 -24 -15 -13
-8 2 -19 -17 -16 -13 -8 -8
1 8 -16 -11 -7 -9 -7 -3
6 12 -15 -4 6 -1 -1 0
3 9 -8 6 12 6 5 3
4 8 -10 5 19 6 4 2
6 6 -13 7 14 7 4 4
5 7 -11 14 11 9 4 4
4 9 -5 13 17 9 3 -3
5 4 -7 13 23 14 8 1
9 8 -11 14 20 18 9 2
10 12 -4 26 24 20 11 2
6 8 3 32 29 26 16 6
6 12 1 28 32 30 21 9
9 16 -7 31 32 31 22 13
8 7 -4 32 35 30 22 12
8 4 -4 33 35 33 21 9
10 8 -4 35 41 37 24 8
13 10 -4 37 37 36 23 7
18 11 -5 39 43 39 26 10
18 17 -7 41 41 41 24 14
16 16 -8 40 40 39 24 12
15 7 -7 46 46 45 27 13
17 11 -6 51 49 47 30 15
19 19 -1 52 50 50 32 15
13 14 -3 56 52 51 33 17
14 16 -4 57 55 54 34 17
16 25 -5 53 51 52 32 14
20 22 -4 61 52 54 33 14
26 19 -6 65 58 59 39 21
30 25 2 69 63 66 42 22
27 27 -1 71 70 65 43 19
25 18 -6 75 72 69 46 23
23 17 -7 76 75 69 47 24
26 23 -8 81 67 71 48 26
25 25 -4 84 70 70 46 23
27 27 -4 83 73 74 48 23
27 26 1 84 80 76 49 23
28 24 4 89 85 78 48 21
31 25 2 101 94 83 53 24
35 30 5 113 97 93 60 29
30 29 9 124 99 97 69 34
29 24 14 122 100 99 66 33
30 31 13 127 107 101 67 35
33 37 8 138 107 102 68 34
39 38 5 137 108 103 68 36
42 39 5 140 106 108 71 37
41 40 6 140 109 111 73 39
46 40 5 149 113 113 74 40
49 38 6 158 120 121 80 44
48 40 7 163 126 126 82 47
52 47 8 170 134 128 84 45
53 47 6 175 137 130 84 46
52 47 7 183 137 133 87 48
53 49 10 180 137 133 87 47
56 57 9 181 134 133 86 46
56 56 10 190 144 137 88 48
58 46 21 193 151 139 90 50
57 49 24 192 145 142 92 53
56 54 26 196 155 147 95 56
60 51 23 200 154 150 98 52
62 47 21 203 152 152 100 52
61 46 22 208 160 154 101 53
62 51 22 214 162 155 103 56
66 56 24 212 163 156 107 56
63 54 22 216 165 153 103 57
66 53 22 214 161 151 100 53
63 56 25 211 159 154 101 55
61 57 27 216 163 154 101 57
62 57 31 218 164 156 103 60
61 57 27 218 171 155 102 61
61 56 28 217 165 153 101 61
62 63 30 210 159 150 98 58
61 62 34 209 150 148 97 54
57 53 37 208 153 150 99 57
52 49 33 208 153 144 98 56
50 51 32 201 150 142 96 55
50 49 37 203 146 142 96 57
49 48 37 198 147 138 96 57
49 52 40 188 146 137 96 58
47 52 38 181 141 138 97 61
45 52 34 178 136 131 92 56
49 50 33 173 131 126 88 51
50 51 39 167 125 124 87 52
45 49 43 156 120 117 83 49
41 47 35 146 115 108 79 48
42 42 32 140 105 103 75 46
37 37 33 139 100 95 69 39
33 35 34 130 96 88 63 34
32 35 29 116 90 82 58 32
36 40 31 106 90 84 60 36
34 44 29 101 85 81 58 34
23 32 29 95 78 76 55 32
18 30 25 92 78 71 54 31
17 30 23 81 68 65 51 29
18 24 25 70 64 62 45 29
19 25 22 62 63 56 41 24
15 24 23 65 55 50 36 18
16 22 22 61 49 43 31 15
20 22 16 57 47 39 30 13
20 22 19 54 44 39 28 12
17 20 24 49 43 37 27 13
9 12 21 49 38 33 26 12
6 12 14 41 29 29 23 10
9 15 15 36 28 27 21 10
9 7 20 33 27 22 17 10
6 3 24 34 24 19 14 12
3 6 22 24 20 17 12 8
2 1 22 28 17 15 11 7
4 0 19 28 21 15 12 8
4 1 16 29 18 15 11 7
6 1 18 31 11 12 9 7
7 -1 19 29 11 9 7 1
5 2 17 22 8 7 6 -1
5 0 15 20 10 4 3 -2
0 -6 13 23 8 1 1 -3
-4 -7 14 17 2 0 1 -3
-2 -2 16 10 2 -2 -2 -6
0 -2 15 11 -1 -2 -2 -7
-6 -13 14 15 5 -1 -1 -6
-10 -12 13 16 -1 1 -2 -7
-10 -9 16 15 -2 0 -1 -6
-7 -14 16 19 7 4 1 -1
-6 -10 16 19 5 0 -2 -6
-2 -5 15 14 1 -3 -2 -7
1 -6 19 17 1 -4 -2 -6
2 -6 15 17 0 -4 -2 -6
3 -1 17 15 2 -3 -2 -5
0 2 16 13 6 -2 -2 -4
3 2 19 13 5 -1 -1 -6
11 2 16 21 10 2 1 -5
3 -2 15 21 2 1 0 -2
0 -1 19 16 -2 -2 -2 -6
2 -6 14 18 -1 -1 -1 -4
-2 -9 13 15 4 0 0 1
-7 -11 15 22 0 -3 -1 -2
-15 -14 17 22 6 -2 0 -3
-15 -13 18 23 1 -3 -1 -3
-6 -8 22 21 -3 -3 -2 -4
2 1 18 17 -3 -2 0 -3
12 6 18 17 -3 -1 1 -4
13 8 13 24 -1 -1 1 -3
5 0 13 25 4 0 1 -1
-3 -5 16 29 11 2 3 0
-6 -2 16 22 9 2 1 -2
-8 -9 12 21 4 -1 -2 -3
-8 -12 18 18 7 1 -1 -1
-9 -12 16 19 7 0 -2 -3
-3 -5 12 21 4 -3 -4 -3
4 0 15 19 1 -1 -3 -7
6 0 14 20 -2 -2 -2 -8
5 -7 16 21 1 -1 0 -6
6 -7 18 21 -2 0 0 -5
6 -5 12 23 -3 -1 1 -4
5 0 8 29 1 -3 -1 -6
3 -4 11 18 -3 -5 -3 -7
2 -7 12 17 -4 -4 -1 -5
-1 -8 12 15 -1 -5 -2 -7
-6 -8 15 17 2 -3 1 -5
-8 -5 17 17 -6 -2 1 -5
-11 -6 15 23 1 2 2 -4
-8 -6 14 28 1 4 4 -4
-4 -8 16 26 1 6 6 0
-3 -8 16 23 1 5 5 -3
3 -3 14 21 -3 2 2 -4
4 -7 18 23 -2 2 1 -4
2 -6 14 17 -5 0 -1 -2
4 -3 13 11 -9 -1 -1 -5
3 -8 12 15 -2 1 -1 -5
-6 -9 8 15 0 1 -2 -4
-15 -9 12 19 1 2 3 -1
-8 -7 17 18 1 3 4 0
5 2 12 17 -3 3 4 2
7 -1 13 24 2 5 7 2
2 -5 14 16 2 6 5 3
2 -5 12 22 -2 5 3 3
3 -4 11 15 -4 4 2 0
2 -5 13 12 -4 3 1 -1
4 0 11 15 -6 1 0 -2
3 -4 10 14 1 4 2 -3
5 -4 12 11 2 3 2 -4
7 -6 14 13 -2 3 3 -4
3 0 5 9 -1 0 1 -3
1 0 6 11 4 3 4 -1
-1 -5 11 15 4 5 6 2
0 -8 10 8 -4 0 1 -3
0 -5 12 9 -7 0 1 1
0 -3 9 9 -6 1 1 1
-2 0 11 8 0 0 1 -3
0 -2 11 12 0 5 4 0
2 1 14 19 3 8 7 4
4 2 9 18 3 8 6 8
1 -3 12 14 2 5 4 1
3 1 12 16 7 8 6 2
11 13 16 18 15 11 8 5
10 10 18 22 15 11 9 6
6 4 18 27 16 13 12 7
8 12 16 19 13 13 10 6
9 10 15 18 13 11 9 4
11 11 18 18 11 11 8 3
11 14 19 17 9 11 8 2
13 9 18 21 11 13 10 3
15 8 18 24 19 17 13 7
14 13 17 23 20 17 16 8
12 16 20 29 20 19 18 10
15 15 17 32 31 20 18 13
15 17 8 27 28 19 18 14
12 17 9 20 16 18 18 11
7 11 4 16 13 16 18 11
8 19 -4 11 15 13 17 15
6 15 3 10 17 15 19 14
9 8 4 14 15 15 17 11
17 11 4 12 14 15 18 16
23 10 4 6 17 16 19 16
21 13 1 4 18 12 16 10
17 7 3 3 18 7 13 7
9 -2 4 -1 7 9 13 9
4 -7 2 -3 6 6 11 15
3 -8 -1 -1 1 4 10 8
2 -11 -1 -4 -1 2 6 5
3 -6 -3 -6 -4 -1 4 0
7 -4 -4 -10 -3 0 3 -3
6 -12 -1 -1 -4 0 3 1
12 -5 2 -3 -6 0 5 2
15 0 3 -5 -6 -1 5 -1
7 -7 0 -10 -8 -5 5 -2
-1 -14 0 -10 -10 -6 3 -4
-3 -12 0 -15 -10 -8 -2 -5
-3 -11 4 -9 -6 -6 1 -3
1 -16 7 -5 -5 -5 2 -1
-1 -16 9 -5 -2 -3 2 -2
-2 -14 11 -8 -4 -6 0 -3
-4 -15 6 -15 -10 -8 -1 -5
-4 -13 5 -14 -11 -8 0 -5
-6 -14 10 -19 -9 -10 -2 -6
-7 -18 8 -22 -8 -14 -4 -4
-8 -18 9 -18 -12 -12 -3 -6
-10 -16 9 -8 -14 -10 -3 -2
-8 -12 5 -14 -15 -13 -4 -5
-4 -15 7 -21 -14 -11 -3 -5
0 -15 3 -21 -13 -9 -1 -4
0 -15 2 -16 -15 -12 -4 -9
-6 -21 3 -9 -16 -13 -5 -9
-9 -19 3 -16 -9 -11 -3 -7
-7 -17 6 -20 -6 -8 0 -4
-7 -19 3 -23 -14 -10 0 -4
-8 -20 1 -25 -19 -13 -3 -5
-4 -14 -1 -25 -20 -16 -6 -10
-4 -13 -4 -31 -23 -19 -9 -15
-5 -14 -4 -31 -23 -20 -10 -16
-5 -11 -3 -30 -15 -16 -7 -14
-6 -13 3 -27 -13 -15 -6 -10
-9 -11 0 -27 -16 -17 -8 -11
-9 -10 -2 -25 -14 -16 -6 -10
-8 -9 0 -24 -11 -15 -5 -10
-5 -6 4 -24 -10 -13 -2 -8
-8 -3 3 -28 -13 -13 -1 -8
-8 -6 3 -23 -8 -11 -2 -7
-5 -6 1 -22 -11 -11 -2 -8
-7 -4 3 -27 -16 -15 -4 -10
-8 -4 14 -24 -7 -10 0 -8
-8 -4 7 -21 -17 -13 -3 -10
-7 -2 -4 -27 -17 -16 -5 -12
-6 -7 -1 -24 -13 -14 -4 -11
-8 -11 1 -23 -12 -12 -4 -11
-2 -2 2 -19 -14 -12 -5 -10
2 0 9 -5 -8 -7 -3 -10
1 -8 13 10 8 3 -1 -11
-1 -4 19 29 28 15 6 -8
5 -2 23 51 45 30 15 -6
16 3 25 67 64 52 27 -1
24 18 30 95 92 78 46 14
26 26 36 118 123 108 65 28
29 29 39 141 157 140 86 39
42 43 41 175 193 178 116 53
52 59 47 210 229 219 153 73
60 74 54 252 275 268 191 96
65 91 65 290 319 314 229 119
72 98 71 291 352 353 261 134
73 95 73 252 354 373 288 147
58 89 75 202 335 375 303 156
32 76 82 131 289 344 292 149
3 48 83 12 199 268 245 118
-17 15 72 -110 77 154 166 70
-40 -19 72 -210 -70 -12 42 5
-78 -71 77 -302 -213 -196 -98 -67
-113 -100 74 -391 -352 -362 -216 -116
-140 -103 63 -459 -455 -483 -292 -143
-153 -109 41 -505 -492 -520 -325 -161
-166 -102 15 -546 -506 -536 -343 -171
-176 -117 6 -562 -524 -547 -358 -184
-181 -131 -5 -577 -558 -568 -381 -204
-186 -148 -24 -592 -588 -587 -399 -218
-192 -162 -44 -600 -600 -591 -406 -230
-190 -179 -62 -590 -595 -585 -405 -235
-180 -196 -84 -584 -589 -577 -401 -241
-169 -204 -103 -587 -584 -563 -394 -238
-157 -194 -115 -572 -561 -536 -373 -230
-143 -182 -122 -548 -530 -501 -348 -214
-133 -166 -134 -528 -498 -469 -324 -202
-119 -152 -135 -494 -451 -424 -291 -182
-102 -130 -139 -456 -404 -381 -259 -162
-89 -117 -132 -418 -365 -338 -230 -142
-78 -100 -117 -377 -320 -297 -197 -123
-68 -82 -112 -333 -282 -258 -169 -106
-59 -69 -96 -284 -232 -217 -139 -88
-48 -57 -79 -235 -181 -172 -106 -67
-40 -41 -63 -189 -144 -136 -81 -51
-29 -27 -50 -148 -110 -105 -60 -39
-20 -17 -37 -113 -78 -78 -42 -27
-11 -2 -25 -80 -51 -55 -26 -18
-7 11 -21 -55 -27 -37 -11 -11
2 18 -16 -41 -10 -21 -4 -4
3 21 -9 -25 2 -9 4 2
5 31 -3 -8 4 -4 8 5
10 25 -1 3 11 1 10 4
12 21 3 3 14 6 15 6
7 19 -2 5 18 6 17 5
3 20 1 14 27 11 18 6
7 18 8 21 29 17 20 8
9 17 8 23 30 22 24 9
8 16 8 28 32 25 27 10
9 16 5 26 36 28 27 9
10 18 6 25 37 27 28 13
9 18 2 27 39 30 31 13
8 15 7 31 42 31 32 12
10 18 7 30 45 34 34 14
11 22 8 36 47 36 35 15
14 23 10 39 48 37 36 16
22 23 14 44 56 44 40 19
22 24 13 45 60 44 41 19
21 27 7 46 54 42 41 16
23 24 6 46 62 45 44 19
22 27 0 47 62 46 45 19
16 22 5 56 60 52 50 23
13 26 9 53 61 51 49 23
14 32 4 49 62 48 46 20
17 32 6 55 63 50 47 21
20 28 8 57 66 55 49 24
24 26 8 63 73 60 52 26
28 31 8 74 71 64 53 29
23 29 9 78 73 65 55 27
22 24 12 83 79 69 60 27
26 30 12 86 83 74 62 34
26 38 12 85 90 74 61 32
28 35 10 90 88 76 62 32
29 34 9 91 96 78 64 34
31 37 5 90 92 78 63 33
28 35 8 98 92 82 65 35
26 37 10 102 100 85 67 38
34 41 9 109 104 88 69 40
38 45 10 121 105 92 71 37
35 36 14 122 113 97 74 40
35 42 11 128 112 99 75 41
35 39 11 128 118 100 76 39
38 37 14 140 121 103 77 40
43 47 20 138 127 109 81 44
42 51 19 143 131 113 83 46
43 45 21 153 132 115 84 45
46 46 21 167 139 117 85 45
48 49 20 168 146 123 87 48
56 55 23 173 150 128 90 49
56 57 22 183 153 131 91 49
52 56 20 190 149 133 93 52
50 55 21 189 153 136 95 55
53 57 18 189 157 138 96 54
52 61 24 193 162 143 101 56
52 58 27 200 166 145 104 59
56 58 29 213 176 146 103 58
63 60 27 216 173 149 103 59
63 56 26 224 181 154 107 60
62 60 28 220 179 155 107 58
61 61 26 223 176 158 109 60
59 64 26 223 180 159 110 64
58 64 33 230 182 161 113 66
61 64 34 239 187 166 117 69
68 66 35 239 183 165 119 69
71 66 33 237 181 162 118 67
71 63 31 229 180 161 114 66
68 62 33 234 186 164 115 69
68 63 32 241 188 164 116 70
66 64 32 240 184 163 115 68
65 68 34 240 192 165 115 70
67 71 30 240 188 165 117 74
68 73 31 235 180 163 117 71
66 75 30 243 180 162 116 68
65 71 30 234 178 159 113 67
61 69 32 229 173 155 112 66
61 68 33 223 174 152 109 65
56 62 34 221 173 151 109 66
53 64 33 211 166 147 108 64
48 65 34 210 169 146 107 66
48 61 36 208 166 144 108 69
52 63 34 203 167 142 107 68
48 61 37 195 157 136 104 67
43 61 35 188 153 130 101 62
40 62 36 175 145 124 98 60
39 57 38 169 138 118 94 57
41 57 38 162 132 112 89 55
42 58 39 155 130 108 86 55
39 57 36 147 126 105 87 53
40 64 30 138 116 98 79 49
40 52 25 126 116 95 76 48
36 45 27 118 110 90 74 44
32 44 27 113 99 86 72 44
28 46 23 106 89 79 66 41
26 42 28 96 84 73 62 38
23 38 27 98 79 67 58 35
19 37 27 88 78 63 56 36
22 39 21 78 73 57 51 32
23 34 18 75 68 54 49 30
17 27 26 72 64 51 47 28
11 25 28 64 56 47 43 24
6 25 17 61 53 42 40 22
11 27 16 53 53 42 39 25
11 25 21 49 58 40 39 24
10 23 16 48 51 38 37 23
12 28 10 37 44 30 30 17
9 23 10 31 43 26 26 14
7 17 15 31 36 25 24 20
9 12 14 29 36 26 26 19
7 7 10 27 32 24 25 14
8 8 12 34 32 24 25 12
10 9 9 30 31 23 25 13
6 8 10 27 31 20 23 15
3 9 12 25 27 18 22 14
3 5 15 22 24 18 21 13
7 9 12 18 21 14 19 11
4 9 8 19 17 13 16 9
-1 5 11 14 19 12 16 8
2 10 9 13 18 10 15 6
3 11 4 15 19 9 14 3
-2 5 2 14 17 9 12 4
-4 1 5 14 19 10 14 7
0 6 3 11 16 9 12 7
-1 7 4 12 17 9 14 7
-4 0 7 20 23 12 17 10
-3 3 11 18 18 11 16 8
-2 5 10 18 19 11 15 11
0 7 5 16 19 10 14 8
8 8 8 16 15 9 13 8
9 10 8 19 21 10 13 6
7 9 4 13 19 9 11 4
7 7 -1 13 15 8 10 3
7 8 3 16 18 9 10 5
2 2 5 15 17 9 10 8
-1 9 0 12 14 6 9 7
-4 4 6 14 13 6 11 7
-7 3 5 22 14 4 9 7
-10 3 3 21 12 3 11 6
-5 4 2 17 15 4 10 8
0 6 4 26 13 8 11 10
2 -1 1 28 16 11 13 10
3 10 -2 18 13 10 12 9
9 21 7 20 17 12 14 13
4 13 9 23 21 10 14 12
1 7 8 20 17 9 13 12
3 10 11 22 15 9 13 10
0 5 5 23 17 8 14 15
-1 4 5 20 17 10 14 13
-2 9 7 20 16 9 11 11
-1 5 6 17 18 8 10 9
2 3 4 22 21 10 12 9
3 8 9 24 23 11 13 11
4 6 11 29 22 15 16 15
3 4 10 27 21 13 15 19
-1 5 5 22 20 10 13 16
-4 -4 6 23 24 11 14 12
-4 -4 8 24 21 12 12 11
-5 4 6 21 20 12 13 11
-1 12 9 26 19 15 14 11
1 5 9 30 20 16 14 13
3 9 3 24 18 14 12 16
4 11 4 20 20 13 15 16
4 12 1 25 20 13 12 14
9 13 2 29 18 12 13 13
9 8 3 19 17 11 12 16
6 7 3 21 19 9 11 12
7 10 3 21 15 9 10 10
5 7 1 17 11 10 12 12
5 9 2 16 12 10 10 9
2 5 2 17 14 12 12 11
3 3 0 18 16 11 12 10
3 6 0 18 12 11 13 12
-2 6 1 22 11 11 13 13
-1 11 1 21 12 9 12 14
5 12 5 21 14 11 14 15
2 6 2 19 12 11 15 13
6 11 -2 18 9 9 11 12
5 12 1 13 8 7 10 10
0 8 -2 10 9 8 9 9
-2 9 -2 12 6 8 10 7
-2 1 3 15 11 11 12 9
-3 1 1 12 15 10 14 9
3 8 -5 19 15 8 11 7
1 5 -4 18 10 7 9 7
0 0 -1 15 8 8 9 6
4 3 -1 14 9 8 9 9
4 5 2 19 5 8 7 8
2 7 6 17 6 11 9 9
0 8 1 20 12 13 12 11
-1 5 -6 19 11 11 10 10
1 1 -6 15 5 10 9 8
5 7 -7 14 3 7 8 7
10 13 -9 15 14 11 11 10
13 18 -3 17 17 12 14 12
9 15 2 20 15 15 17 16
11 20 5 21 18 17 18 19
16 24 6 30 21 19 18 19
18 26 9 28 22 20 18 19
15 29 12 28 21 22 20 18
13 26 9 26 25 22 20 17
11 24 7 28 24 22 20 17
12 22 10 27 27 24 20 18
14 19 10 25 23 23 18 19
14 20 6 29 20 20 18 19
5 13 10 30 18 22 19 19
7 15 11 25 18 22 19 21
9 28 11 35 22 24 21 23
9 31 3 31 21 24 21 23
12 29 -3 27 25 26 22 21
9 18 -4 23 30 27 24 22
11 17 -12 17 26 22 19 17
11 17 -15 15 24 22 21 18
12 18 -9 16 21 25 23 22
16 19 -7 21 20 23 22 24
13 16 -8 26 14 20 21 23
11 13 -6 12 14 17 18 19
13 13 -12 13 10 12 13 19
14 14 -14 8 5 10 12 17
14 11 -16 4 6 8 9 11
17 8 -12 5 2 8 9 11
17 6 -12 8 1 10 10 12
17 10 -5 10 2 10 12 12
11 7 -3 10 9 12 13 16
7 8 -9 6 -4 7 8 12
5 5 -9 4 -1 7 9 13
4 -4 -6 1 0 5 7 11
2 -9 -3 -1 -9 2 3 7
3 -6 0 -3 -10 0 2 6
4 -4 -2 0 -7 1 2 8
3 -11 -6 -2 -8 2 1 9
6 -10 -8 -4 -7 1 0 7
6 0 -6 -5 -8 0 0 4
3 1 -6 -3 -11 -1 -1 4
-1 -3 -3 3 -9 2 1 8
-3 -5 -3 -1 -9 3 1 11
-4 -9 -4 -3 -12 0 -1 8
-5 -7 -6 -3 -12 -1 -4 6
-7 -3 -4 -10 -11 -4 -6 3
-5 -12 0 -6 -11 -1 -2 4
-5 -14 -6 -4 -14 -3 -4 5
1 -10 -7 -9 -13 -3 -4 7
5 -4 -5 -6 -15 -4 -4 5
3 0 -3 -9 -17 -5 -6 3
2 -1 -3 -9 -15 -7 -7 1
2 -7 -4 -4 -12 -4 -4 5
1 -8 -8 -11 -14 -6 -5 6
-2 -8 -12 -15 -16 -8 -9 2
-7 -13 -6 -9 -12 -6 -8 0
-9 -6 -6 -8 -15 -6 -8 0
-7 -13 -4 -4 -6 -3 -7 3
-1 -11 -3 -5 -10 -2 -7 3
-3 -7 -2 -3 -11 -1 -5 6
-9 -16 -3 -7 -14 -2 -5 5
-8 -17 -8 -6 -15 -4 -9 2
-4 -13 -6 -6 -13 -2 -7 5
-3 -10 -5 -6 -11 -3 -7 5
-3 -5 -6 -9 -9 -3 -8 4
-8 -8 -6 -5 -11 -1 -7 4
-10 -12 -5 -1 -9 -1 -6 4
-5 -10 -5 0 -13 -3 -8 4
-2 -8 -9 2 -12 -4 -10 1
-3 -6 -9 -2 -10 -4 -10 2
-9 -15 -7 -3 -7 -5 -8 6
-9 -13 -7 -6 -15 -9 -11 5
-4 -4 -5 -7 -14 -8 -10 4
-3 -2 -2 -8 -12 -7 -9 3
-2 -8 1 -6 -9 -3 -8 2
-4 -11 5 4 -4 2 -5 3
-6 -14 3 15 0 8 -3 4
-7 -20 6 28 11 12 -4 2
-2 -19 17 50 34 24 1 4
8 -7 15 67 47 40 12 8
18 7 18 85 66 60 24 18
29 19 20 107 96 87 43 28
35 29 29 140 130 116 63 41
44 41 37 175 163 147 84 52
53 43 46 204 202 186 114 71
65 55 50 237 238 231 151 93
74 69 61 285 279 279 188 111
78 87 69 320 324 325 225 131
78 97 67 317 358 364 259 148
70 92 70 287 356 386 284 161
55 89 81 241 339 387 298 167
34 82 86 143 288 351 283 156
9 54 74 12 193 276 234 130
-11 14 66 -105 81 164 157 84
-40 -25 64 -213 -68 -3 32 16
-76 -66 70 -314 -225 -185 -108 -53
-112 -93 62 -402 -362 -348 -218 -99
-142 -103 45 -475 -458 -472 -292 -127
-157 -102 25 -526 -491 -507 -323 -141
-167 -106 10 -554 -509 -519 -335 -146
-179 -123 0 -572 -533 -537 -357 -166
-190 -146 -13 -589 -561 -558 -379 -183
-197 -168 -30 -596 -581 -573 -396 -197
-194 -173 -52 -594 -595 -578 -401 -211
-184 -185 -76 -580 -596 -572 -403 -220
-175 -201 -94 -577 -587 -561 -398 -223
-167 -210 -113 -574 -578 -546 -388 -220
-153 -201 -127 -566 -554 -522 -368 -211
-141 -187 -134 -540 -524 -484 -343 -200
-130 -175 -142 -517 -491 -448 -317 -183
-118 -155 -143 -479 -444 -404 -284 -162
-101 -140 -139 -436 -395 -361 -252 -141
-82 -115 -132 -394 -347 -319 -223 -123
-72 -95 -122 -351 -305 -280 -195 -106
-63 -84 -108 -305 -266 -239 -167 -87
-55 -67 -95 -259 -222 -199 -138 -71
-46 -50 -82 -205 -177 -159 -109 -53
-34 -34 -66 -160 -132 -118 -81 -37
-26 -20 -48 -117 -91 -81 -56 -22
-18 -9 -30 -80 -60 -53 -38 -10
-10 5 -24 -54 -43 -39 -29 -5
-5 6 -20 -34 -26 -25 -20 0
1 4 -11 -20 -16 -11 -12 6
7 10 -6 -8 -3 -3 -6 7
7 11 -10 5 3 4 -3 9
7 15 -7 18 9 10 1 10
1 12 -3 24 16 17 7 14
1 17 0 27 21 19 9 14
7 17 1 31 26 23 9 13
6 13 3 38 25 27 11 14
6 17 8 42 28 32 15 17
14 21 7 43 31 33 16 18
17 26 8 43 36 40 19 20
19 26 8 47 37 42 22 22
17 27 6 49 43 45 23 21
17 24 5 49 47 47 25 22
19 25 7 53 45 50 28 24
20 24 4 55 51 49 27 22
24 22 3 59 47 52 30 23
25 24 2 60 49 52 31 24
18 22 2 61 51 54 28 23
16 23 3 61 49 51 27 19
19 23 1 66 50 55 28 23
23 25 2 72 53 58 31 26
25 22 5 74 60 62 37 27
25 24 11 75 64 66 41 29
28 30 12 83 67 69 41 31
31 29 10 83 66 70 42 30
28 30 9 81 68 73 43 30
28 29 8 83 72 75 44 31
26 25 9 86 79 76 46 32
26 23 10 91 83 78 46 33
28 26 8 94 82 78 47 33
30 32 11 96 79 79 49 38
34 41 13 105 83 81 49 35
37 38 13 104 81 83 52 34
36 38 13 107 83 87 54 38
34 38 13 112 90 90 56 39
33 29 16 117 92 92 56 37
34 32 9 117 92 93 54 35
39 38 7 120 92 93 55 34
41 33 8 125 98 97 56 36
41 39 10 133 101 102 59 39
44 42 10 142 105 106 64 42
45 47 10 149 112 110 67 45
47 52 13 154 115 114 70 50
47 50 17 163 116 119 72 51
49 50 19 174 123 122 74 50
51 47 20 172 127 128 79 53
48 50 18 178 133 130 80 51
49 51 18 181 132 133 81 51
52 49 17 188 136 135 81 50
54 51 16 191 142 138 83 50
55 55 20 197 149 144 88 57
53 55 20 198 151 145 88 57
51 51 20 206 152 147 89 55
56 57 21 216 155 150 92 56
60 58 23 218 152 151 91 55
69 61 27 220 154 153 93 56
70 66 27 223 158 157 95 58
70 68 29 229 165 161 98 62
72 64 28 234 176 165 100 62
72 68 26 238 173 167 101 64
72 66 25 237 174 167 102 65
74 69 25 236 182 167 101 63
71 65 24 240 176 167 103 63
67 62 27 244 172 167 104 64
