I II V1 V2 V3 V4 V5 V6
-8 -3 5 -4 -6 -11 -8 -9
-8 -3 5 -4 -6 -11 -8 -9
-7 -2 4 -4 -6 -11 -8 -9
-7 -2 3 -4 -6 -11 -8 -9
-6 0 2 -4 -6 -11 -8 -9
-6 0 1 -4 -6 -11 -8 -9
-5 1 0 -5 -5 -11 -7 -8
-5 1 1 -4 -4 -11 -6 -8
-6 1 2 -4 -3 -10 -5 -8
-6 1 3 -3 -2 -10 -4 -8
-6 1 4 -3 0 -10 -4 -8
-7 1 5 -2 1 -9 -3 -7
-7 1 5 -2 1 -8 -3 -7
-7 1 4 0 1 -8 -3 -7
-7 1 4 0 1 -7 -3 -7
-7 1 4 0 1 -7 -3 -7
-7 2 3 1 1 -6 -4 -6
-6 2 3 1 2 -6 -4 -6
-6 2 3 2 2 -5 -3 -6
-5 2 3 2 3 -5 -3 -6
-5 2 3 2 3 -5 -3 -6
-4 2 4 3 4 -4 -2 -5
-4 3 4 4 4 -3 -2 -4
-4 4 5 5 5 -2 0 -4
-4 5 5 6 5 0 0 -3
-4 5 5 6 5 0 0 -3
-5 6 6 7 6 1 1 -2
-5 6 7 7 6 1 1 -2
-5 6 8 7 6 2 1 -2
-5 6 9 7 6 2 1 -2
-5 6 9 7 6 2 1 -2
-5 6 10 7 6 3 2 -3
-4 7 10 7 6 3 3 -3
-3 8 10 7 7 4 3 -2
-2 9 10 7 7 4 4 -2
-2 10 10 7 7 4 4 -2
-3 9 11 7 8 5 5 0
-5 7 10 6 7 4 4 -2
-7 4 9 5 6 3 3 -2
-9 2 8 4 5 2 2 -3
-11 0 8 4 5 2 2 -3
-10 0 7 3 4 1 1 -4
-8 2 7 3 4 1 1 -4
-5 4 7 3 4 1 2 -3
-3 6 7 3 4 1 2 -3
0 8 7 3 4 1 2 -3
1 9 8 3 5 2 3 -2
1 9 8 3 5 2 3 0
0 8 7 3 5 2 3 1
0 8 7 3 5 2 3 2
0 8 7 3 5 2 3 3
-2 6 6 3 5 1 3 4
-3 5 6 2 5 1 3 4
-4 4 5 2 5 1 3 3
-5 3 5 1 5 1 3 3
-5 2 5 1 5 1 3 3
-5 1 4 0 4 1 3 2
-4 2 5 0 4 1 3 2
-2 3 6 0 4 0 3 2
0 4 7 0 4 0 3 2
1 5 7 0 4 0 3 2
0 4 7 -2 3 -2 2 1
-4 1 6 -2 2 -2 1 0
-7 -3 5 -2 1 -2 0 -2
-10 -6 4 -2 0 -2 -2 -3
-12 -8 3 -2 -2 -2 -3 -4
-10 -6 2 -3 -2 -2 -3 -4
-7 -3 3 -2 0 0 -2 -3
-4 2 3 -2 1 0 1 -2
0 5 4 0 2 1 2 0
3 8 4 0 3 1 3 1
3 8 5 0 3 2 3 2
2 6 4 -2 2 1 2 1
1 4 4 -3 1 0 1 0
0 2 3 -4 0 -2 0 -2
-2 1 3 -5 -2 -3 -2 -3
-3 0 2 -6 -3 -4 -3 -4
-3 0 2 -6 -3 -4 -3 -4
-3 1 2 -6 -3 -4 -3 -4
-3 1 2 -6 -3 -4 -3 -4
-3 1 2 -6 -3 -4 -3 -4
-2 2 3 -5 -4 -4 -3 -4
0 2 3 -5 -3 -4 -3 -4
2 3 3 -5 -2 -4 -3 -4
3 3 3 -5 0 -4 -3 -4
4 3 3 -5 0 -4 -3 -4
4 3 3 -4 1 -3 -2 -3
3 1 3 -3 1 -3 -2 -3
1 -2 3 -2 1 -3 -2 -3
0 -4 3 0 1 -3 -2 -3
-2 -6 3 0 1 -3 -2 -3
-3 -5 3 1 1 -2 0 -2
-2 0 4 2 2 -2 0 0
0 3 5 3 2 0 0 1
1 6 6 4 3 0 0 2
2 9 7 4 3 0 0 2
3 10 8 5 4 1 1 3
2 9 8 5 4 2 2 3
1 9 8 6 4 2 3 3
0 8 8 6 4 3 4 3
0 8 8 6 4 3 4 3
-3 6 8 7 4 4 5 4
-4 4 9 7 4 4 5 4
-6 2 10 7 4 4 5 4
-7 0 11 7 4 4 5 4
-8 -2 12 7 4 4 5 4
-7 2 13 8 5 5 6 5
-4 6 14 9 6 7 7 6
0 11 14 10 8 8 9 7
3 15 15 11 9 10 10 8
6 20 15 11 10 11 11 9
8 21 16 12 11 12 12 10
10 22 15 12 11 12 13 11
11 22 14 12 11 13 13 12
13 23 13 12 11 13 14 13
14 23 13 12 11 13 14 13
14 23 12 12 12 14 15 13
13 21 11 11 11 13 15 12
11 19 10 10 11 13 14 11
10 17 9 9 10 12 14 10
9 16 8 9 10 12 14 9
8 14 7 8 9 11 13 8
8 13 7 7 8 10 12 8
8 12 6 6 7 9 11 8
8 11 6 5 6 8 10 8
8 10 6 4 5 8 9 8
6 7 5 3 3 6 7 6
5 4 5 2 2 5 6 4
4 1 4 1 0 3 4 2
3 -3 4 0 -2 2 3 0
2 -6 4 -2 -3 1 2 -3
1 -7 3 -3 -4 0 1 -4
0 -7 3 -3 -4 0 1 -4
-2 -7 3 -3 -4 0 1 -4
-3 -7 3 -3 -4 0 1 -4
-4 -7 3 -3 -4 0 1 -4
-5 -9 2 -4 -5 -2 0 -4
-5 -10 1 -5 -6 -3 -2 -5
-5 -11 0 -6 -7 -4 -3 -6
-5 -12 -2 -7 -8 -5 -4 -7
-5 -13 -2 -8 -8 -5 -4 -7
-5 -13 -3 -9 -9 -6 -5 -8
-4 -12 -3 -9 -9 -6 -5 -8
-3 -11 -3 -9 -9 -6 -5 -8
-2 -10 -3 -9 -9 -6 -5 -8
-2 -9 -3 -9 -9 -6 -5 -8
0 -9 -3 -9 -9 -5 -5 -7
-2 -10 -3 -10 -10 -6 -5 -8
-2 -11 -3 -10 -11 -7 -6 -8
-3 -12 -3 -11 -12 -8 -6 -9
-3 -13 -3 -11 -12 -8 -6 -9
-4 -14 -4 -12 -13 -9 -7 -10
-5 -14 -3 -11 -12 -8 -7 -10
-5 -13 -2 -11 -12 -8 -6 -9
-6 -13 0 -10 -11 -7 -6 -9
-6 -13 1 -10 -11 -7 -6 -9
-7 -12 1 -9 -10 -6 -5 -8
-7 -13 0 -9 -10 -6 -5 -8
-7 -14 -2 -9 -11 -6 -5 -8
-7 -15 -3 -9 -11 -6 -5 -8
-7 -16 -4 -9 -11 -6 -5 -8
-8 -17 -4 -8 -12 -7 -5 -8
-7 -16 -3 -7 -12 -7 -5 -8
-7 -15 -2 -7 -12 -7 -5 -8
-6 -14 0 -6 -12 -7 -5 -8
-6 -14 1 -6 -12 -7 -5 -8
-5 -13 2 -5 -11 -7 -6 -8
-5 -13 2 -5 -11 -7 -6 -8
-5 -13 1 -5 -11 -7 -6 -8
-5 -13 1 -5 -11 -7 -6 -8
-5 -13 1 -5 -11 -7 -6 -8
-6 -13 2 -4 -8 -6 -6 -10
-9 -13 6 0 -6 -5 -7 -11
-12 -14 9 3 -4 -4 -7 -13
-14 -14 13 6 0 -3 -8 -14
-17 -14 16 9 2 -3 -8 -15
-17 -15 23 21 13 7 -3 -13
-15 -14 30 34 24 17 5 -8
-13 -13 37 48 36 27 13 -3
-11 -12 45 61 49 36 20 2
-9 -12 52 74 61 47 27 7
2 -5 51 75 68 60 43 21
13 3 46 74 75 73 59 36
24 11 40 72 82 87 75 53
35 18 36 70 90 100 91 69
47 25 31 69 96 113 107 85
49 25 13 42 78 105 106 88
49 23 -9 11 55 94 101 88
48 21 -30 -21 31 81 96 89
48 18 -52 -52 8 69 91 89
48 16 -72 -83 -16 57 86 89
37 8 -85 -108 -49 22 55 67
26 0 -96 -132 -82 -18 20 39
15 -9 -106 -155 -116 -57 -16 12
3 -18 -116 -179 -150 -97 -52 -16
-9 -26 -128 -202 -184 -136 -87 -43
-11 -28 -123 -195 -181 -138 -91 -49
-12 -27 -115 -182 -171 -131 -89 -50
-12 -26 -108 -168 -159 -123 -87 -52
-13 -25 -100 -154 -148 -116 -83 -54
-13 -24 -93 -141 -137 -109 -81 -55
-13 -25 -85 -127 -124 -99 -75 -54
-11 -27 -76 -113 -112 -90 -69 -52
-9 -30 -68 -99 -100 -79 -62 -50
-7 -32 -60 -86 -88 -70 -56 -47
-5 -35 -52 -72 -75 -60 -50 -45
-4 -34 -43 -61 -64 -52 -43 -38
-4 -31 -34 -50 -54 -43 -36 -32
-4 -29 -25 -38 -44 -34 -29 -25
-4 -26 -17 -28 -33 -26 -23 -19
-4 -23 -8 -17 -23 -18 -17 -13
-4 -20 -5 -14 -20 -15 -14 -10
-4 -17 -4 -12 -17 -13 -13 -9
-5 -14 -2 -10 -15 -11 -12 -7
-5 -11 1 -8 -13 -10 -10 -5
-5 -8 2 -6 -11 -8 -9 -4
-6 -7 3 -5 -10 -7 -8 -3
-6 -8 3 -4 -9 -7 -8 -3
-7 -9 3 -3 -9 -6 -7 -3
-7 -10 3 -2 -8 -6 -7 -3
-7 -10 3 -2 -8 -6 -7 -3
-8 -11 4 0 -7 -5 -6 -2
-8 -12 4 0 -7 -5 -6 -4
-8 -12 4 0 -7 -6 -6 -5
-8 -13 4 0 -7 -6 -6 -6
-8 -13 4 0 -7 -6 -6 -7
-8 -14 4 1 -7 -7 -7 -8
-8 -14 4 2 -6 -6 -6 -8
-8 -13 5 3 -5 -5 -6 -7
-8 -13 5 4 -4 -4 -5 -7
-8 -13 5 5 -4 -3 -5 -7
-8 -12 6 6 -3 -2 -4 -6
-8 -12 6 5 -3 -2 -4 -6
-8 -12 6 5 -3 -2 -4 -6
-8 -12 6 4 -3 -2 -4 -6
-8 -12 6 4 -3 -2 -4 -6
-8 -11 7 3 -2 -3 -4 -5
-8 -11 7 3 -2 -3 -4 -5
-8 -12 7 3 -2 -2 -3 -5
-8 -12 7 3 -2 -2 -3 -5
-8 -12 7 3 -2 -2 -3 -5
-7 -13 8 3 -3 0 -2 -4
-7 -12 8 3 -3 0 -2 -4
-8 -12 8 4 -3 0 -2 -4
-8 -11 8 4 -3 0 -2 -4
-8 -11 8 4 -3 0 -2 -4
-8 -9 8 5 -2 0 0 -3
-6 -8 9 6 0 1 0 -3
-4 -6 10 7 1 1 1 -2
-3 -4 11 8 2 2 1 -2
0 -3 12 8 2 2 1 -2
1 -2 13 9 3 3 2 0
-2 -4 11 8 3 3 2 0
-3 -5 10 7 2 2 1 -2
-4 -6 9 6 2 2 1 -2
-5 -7 8 6 2 2 1 -2
-7 -9 7 5 1 1 0 -3
-9 -10 7 4 0 0 -2 -4
-11 -11 6 3 -2 0 -3 -5
-12 -13 6 2 -3 -2 -4 -6
-14 -14 6 2 -3 -2 -4 -6
-14 -14 6 1 -4 -3 -5 -6
-11 -13 7 3 -3 -2 -4 -5
-9 -12 8 4 -2 0 -4 -4
-6 -10 10 5 0 1 -3 -2
-4 -9 11 6 1 2 -3 0
-3 -8 12 7 2 3 -2 1
-3 -8 11 7 2 3 0 0
-3 -8 10 7 3 3 0 0
-3 -8 9 7 3 3 1 -2
-3 -8 9 7 3 3 1 -2
-2 -7 8 9 4 4 2 -3
-2 -6 8 10 4 4 2 -3
-3 -5 9 12 4 4 2 -2
-3 -4 9 14 4 4 2 -2
-3 -3 9 15 4 4 2 -2
-4 -2 10 16 5 5 2 0
-3 -2 11 16 6 6 2 0
-3 -3 12 17 6 7 3 0
-2 -3 13 17 7 8 3 0
-2 -3 13 17 7 8 3 0
0 -4 14 18 8 9 4 1
0 -2 14 18 8 9 4 1
1 0 13 19 8 9 5 2
1 1 13 19 8 9 5 2
1 2 13 19 8 9 5 2
2 3 12 20 9 9 6 3
1 1 11 20 9 9 6 3
0 0 11 20 9 9 6 3
-2 -2 10 20 9 9 6 3
-2 -3 10 20 9 9 6 3
-3 -3 9 19 10 10 6 4
-2 -2 9 20 11 11 8 5
-2 0 9 20 11 12 9 6
0 2 9 21 12 13 10 7
0 3 9 21 12 13 11 8
1 4 9 23 13 14 12 9
2 4 9 24 14 15 12 9
3 4 9 26 14 15 13 10
4 4 9 28 15 16 13 10
5 4 9 29 15 16 13 10
6 6 9 30 16 17 14 11
6 7 9 32 16 17 14 12
5 9 9 33 16 18 15 12
5 11 9 34 16 18 15 13
5 12 9 35 16 18 15 13
4 13 8 36 17 19 16 14
4 13 7 36 17 19 17 15
5 13 7 36 16 19 18 16
5 13 6 36 16 19 19 17
5 13 6 36 16 19 19 17
7 14 5 35 15 19 20 18
8 15 5 34 15 19 20 19
10 16 5 34 15 20 20 20
11 17 5 33 15 20 20 20
13 18 5 33 15 20 20 21
14 19 4 32 15 21 20 22
14 18 3 30 13 20 20 22
15 18 3 29 12 19 20 22
15 17 2 28 11 18 20 22
15 17 2 27 10 17 20 22
16 16 1 26 9 16 19 21
16 17 0 24 8 15 19 21
16 17 -2 23 8 14 18 21
16 18 -3 22 7 14 18 21
16 18 -4 21 7 13 18 21
17 19 -5 20 6 12 17 20
17 18 -5 19 5 11 17 20
17 18 -5 18 4 11 17 21
17 17 -5 18 4 10 17 21
17 17 -5 17 3 10 17 21
18 16 -6 16 2 9 16 22
18 16 -6 15 1 8 16 22
17 15 -6 15 1 8 16 21
17 15 -6 14 0 7 16 21
17 15 -6 14 0 7 16 21
16 14 -7 13 -2 6 15 20
15 13 -7 13 -2 6 14 19
15 13 -6 13 -3 6 13 18
14 12 -6 13 -3 6 13 17
14 12 -6 13 -3 6 12 16
13 10 -5 13 -4 5 11 15
12 9 -5 13 -4 5 10 14
11 8 -5 13 -4 4 9 13
10 6 -5 13 -4 4 9 12
9 5 -5 13 -4 4 8 11
7 4 -4 14 -4 3 7 10
6 3 -3 14 -4 3 6 9
5 3 -3 15 -4 3 6 9
3 2 -2 15 -4 3 5 8
2 2 -2 15 -4 3 5 8
1 1 0 16 -5 2 4 7
1 1 0 16 -5 2 3 5
2 1 0 16 -5 1 2 4
2 1 0 16 -5 1 2 3
2 1 0 16 -5 1 1 2
2 0 1 16 -6 0 0 1
1 -2 1 16 -6 0 0 1
0 -4 2 16 -6 -2 -2 1
-3 -5 2 16 -6 -2 -2 1
-4 -7 2 16 -6 -2 -2 1
-5 -8 3 17 -7 -3 -3 0
-5 -9 3 17 -8 -4 -4 -2
-6 -9 3 16 -8 -4 -4 -3
-6 -10 3 16 -9 -5 -5 -3
-6 -10 3 16 -9 -5 -5 -4
-7 -11 2 15 -10 -6 -6 -5
-8 -11 2 15 -10 -6 -6 -5
-8 -11 2 15 -10 -6 -6 -5
-9 -11 2 15 -10 -6 -6 -5
-9 -11 2 15 -10 -6 -6 -5
-10 -11 1 16 -9 -6 -6 -4
-10 -11 1 15 -9 -6 -6 -5
-10 -11 1 15 -10 -6 -7 -5
-10 -11 1 14 -10 -6 -7 -6
-10 -11 1 14 -10 -6 -7 -6
-9 -11 0 13 -11 -7 -8 -7
-8 -11 1 13 -11 -7 -8 -7
-8 -11 1 14 -11 -7 -8 -7
-7 -11 2 14 -11 -7 -8 -7
-7 -11 2 14 -11 -7 -8 -7
-6 -10 3 15 -10 -6 -7 -6
-6 -10 3 15 -9 -6 -7 -5
-6 -10 4 16 -9 -5 -6 -5
-6 -10 4 16 -8 -5 -6 -4
-6 -10 4 16 -8 -5 -6 -4
-5 -11 5 17 -7 -4 -5 -3
-6 -11 5 18 -6 -4 -5 -3
-7 -11 5 18 -6 -4 -5 -3
-7 -11 5 19 -5 -4 -5 -3
-8 -11 5 19 -5 -4 -5 -3
-9 -11 6 20 -4 -3 -6 -3
-9 -9 6 20 -3 -3 -6 -3
-9 -8 6 21 -3 -2 -6 -3
-9 -7 6 21 -2 -2 -6 -3
-9 -6 6 21 -2 -2 -6 -3
-8 -5 7 22 0 0 -5 -3
-8 -6 7 22 0 0 -5 -3
-8 -7 6 22 -2 0 -5 -4
-8 -8 6 22 -2 0 -5 -4
-8 -9 6 22 -2 0 -5 -4
-8 -10 5 23 -3 0 -5 -5
-8 -10 6 24 -2 1 -4 -4
-8 -10 7 24 0 2 -4 -4
-8 -10 7 25 1 2 -3 -3
-8 -10 8 25 2 3 -3 -3
-8 -9 9 26 3 4 -2 -2
-7 -8 10 26 3 5 0 -2
-6 -7 10 27 3 5 0 -2
-5 -6 11 27 3 6 1 -2
-4 -5 11 27 3 6 1 -2
-3 -4 12 28 4 7 2 0
-3 -4 11 27 4 7 2 0
-4 -5 10 26 3 7 2 0
-4 -5 10 26 3 7 2 0
-4 -5 9 25 3 7 2 0
-5 -6 8 24 2 6 2 1
-6 -6 8 24 2 6 2 1
-7 -7 8 24 2 6 2 1
-8 -8 8 24 2 6 2 1
-9 -8 8 24 2 6 2 1
-9 -8 8 25 2 6 2 2
-7 -7 8 25 2 6 2 2
-5 -5 8 25 3 6 3 3
-3 -3 8 25 4 6 3 3
0 0 8 25 4 6 3 3
1 1 8 26 5 7 4 4
0 0 8 26 5 6 3 3
-2 -2 8 26 4 5 2 2
-2 -2 8 26 3 4 1 2
-3 -3 8 26 3 3 0 1
-5 -5 7 25 2 2 -2 0
-6 -6 7 23 2 2 -2 0
-8 -8 6 22 1 1 -2 0
-9 -10 5 20 0 0 -2 0
-11 -12 5 19 0 0 -2 0
-11 -12 4 18 -2 -2 -2 -2
-9 -10 4 18 -2 0 -2 -2
-7 -7 4 18 0 1 0 0
-5 -5 4 18 1 1 0 0
-3 -2 4 18 1 2 0 0
-3 -2 5 17 2 3 1 1
-4 -4 4 16 1 2 0 0
-6 -7 3 14 0 1 -2 -2
-8 -9 3 12 0 0 -3 -3
-10 -12 2 10 -2 -2 -4 -4
-11 -12 1 9 -3 -3 -5 -5
-9 -11 2 9 -3 -3 -5 -5
-8 -9 3 9 -2 -2 -4 -4
-6 -8 3 9 0 -2 -4 -3
-5 -6 4 9 0 -2 -4 -3
-4 -5 5 8 1 0 -3 -2
-5 -6 4 6 0 0 -3 -2
-7 -8 3 5 -2 -2 -3 -3
-8 -9 2 3 -2 -3 -3 -4
-9 -10 1 2 -3 -3 -3 -4
-10 -11 0 1 -4 -4 -4 -5
-9 -11 0 1 -4 -4 -4 -5
-8 -10 1 2 -4 -3 -4 -4
-8 -9 1 2 -4 -2 -4 -4
-7 -9 1 2 -4 -2 -4 -4
-6 -8 2 3 -3 0 -3 -3
-6 -7 2 3 -3 0 -3 -3
-6 -6 2 3 -3 -2 -3 -3
-6 -6 2 3 -3 -2 -3 -3
-6 -5 2 3 -3 -2 -3 -3
-6 -4 2 3 -3 -3 -2 -3
-6 -5 2 3 -3 -3 -3 -3
-6 -6 2 3 -4 -3 -4 -4
-6 -7 2 3 -5 -3 -4 -4
-6 -8 2 3 -5 -3 -5 -4
-6 -8 2 2 -6 -4 -6 -5
-6 -7 3 3 -5 -3 -5 -4
-5 -5 5 5 -3 -2 -3 -2
-4 -3 6 6 -2 0 -2 0
-4 0 7 7 0 1 0 1
-3 1 8 8 1 2 1 2
-4 0 8 9 1 2 1 2
-5 -2 8 10 2 2 1 2
-5 -2 8 10 2 2 1 2
-6 -3 8 11 2 2 1 2
-7 -4 8 12 3 2 1 1
-7 -3 8 14 3 2 1 1
-6 0 9 15 3 3 2 1
-6 1 9 17 3 3 3 1
-6 2 9 18 3 3 3 1
-5 3 10 19 3 4 4 2
-5 4 10 18 4 5 4 2
-5 5 11 17 5 6 5 3
-5 5 12 17 5 6 5 4
-5 6 12 16 6 7 5 4
-4 7 13 15 7 8 6 5
-3 9 12 15 7 9 7 6
0 10 10 15 8 10 8 8
1 12 9 15 9 10 9 9
2 13 8 15 9 11 10 10
3 14 7 15 10 12 11 11
3 13 7 15 10 12 11 11
3 12 7 15 10 11 11 11
3 12 7 15 10 11 11 11
3 11 7 15 10 11 11 11
2 10 6 16 10 10 10 10
2 9 6 14 8 9 9 9
2 7 5 12 7 8 7 8
2 6 4 11 5 7 6 7
2 5 4 9 4 6 5 6
1 4 3 8 3 5 4 5
1 4 3 8 3 5 4 5
1 3 2 8 3 5 4 5
1 3 1 8 3 5 4 5
1 3 1 8 3 5 4 5
0 1 0 7 2 3 2 3
-2 -4 0 5 0 1 0 1
-4 -7 -2 3 -3 -2 -3 -2
-6 -10 -3 1 -4 -4 -5 -4
-8 -13 -3 -2 -6 -6 -7 -6
-9 -15 -4 -3 -7 -7 -8 -7
-9 -14 -4 -3 -7 -7 -8 -7
-8 -13 -4 -3 -7 -7 -8 -7
-8 -13 -4 -3 -7 -7 -8 -7
-8 -12 -4 -3 -7 -7 -8 -7
-7 -11 -4 -3 -7 -7 -7 -6
-7 -12 -4 -3 -7 -7 -7 -6
-8 -13 -5 -4 -8 -7 -8 -6
-8 -13 -6 -5 -8 -7 -8 -6
-8 -14 -6 -5 -8 -7 -8 -6
-9 -15 -7 -6 -9 -8 -9 -7
-9 -15 -7 -6 -9 -8 -9 -7
-9 -15 -7 -6 -9 -8 -9 -7
-9 -15 -7 -6 -9 -8 -9 -7
-9 -15 -7 -6 -9 -8 -9 -7
-10 -16 -6 -7 -8 -9 -9 -8
-10 -16 -6 -7 -8 -9 -9 -8
-10 -16 -6 -7 -8 -9 -9 -8
-10 -16 -6 -7 -8 -9 -9 -8
-10 -16 -6 -7 -8 -9 -9 -8
-9 -15 -6 -8 -8 -8 -9 -9
-9 -15 -6 -8 -8 -8 -9 -9
-8 -14 -5 -7 -7 -8 -8 -9
-8 -14 -5 -7 -7 -8 -8 -9
-8 -14 -5 -7 -7 -8 -8 -9
-8 -14 -4 -6 -6 -7 -7 -8
-9 -15 -5 -7 -7 -8 -8 -9
-11 -17 -6 -8 -8 -9 -9 -10
-13 -19 -6 -9 -9 -10 -10 -10
-15 -21 -7 -10 -10 -11 -11 -11
-16 -22 -8 -11 -11 -12 -12 -12
-16 -22 -8 -11 -11 -12 -12 -12
-15 -21 -8 -11 -11 -12 -12 -12
-15 -21 -8 -11 -11 -12 -12 -12
-15 -21 -8 -11 -11 -12 -12 -12
-14 -20 -7 -11 -11 -11 -11 -11
-14 -19 -6 -9 -10 -11 -11 -11
-13 -18 -4 -7 -9 -10 -11 -11
-12 -17 -3 -6 -9 -10 -11 -11
-12 -16 -2 -4 -8 -10 -11 -11
-11 -15 4 4 -3 -6 -10 -10
-12 -15 11 15 7 1 -8 -10
-14 -15 19 26 16 7 -6 -10
-15 -15 27 37 25 13 -4 -10
-16 -15 34 49 34 19 -2 -10
-12 -14 38 59 47 30 9 -2
-2 -9 40 66 61 47 26 13
8 -5 43 73 75 62 43 27
18 1 45 81 90 78 60 42
28 5 47 89 104 94 77 56
36 9 35 78 105 102 90 68
44 12 13 53 93 102 97 79
50 15 -11 26 80 101 105 91
57 18 -34 0 69 101 112 102
63 21 -57 -27 57 101 120 113
60 16 -74 -56 28 76 104 103
46 3 -88 -88 -14 33 66 75
30 -12 -101 -119 -57 -11 27 47
16 -26 -114 -151 -99 -54 -12 18
2 -39 -128 -182 -141 -98 -50 -11
-6 -45 -132 -194 -161 -120 -71 -27
-6 -38 -127 -187 -162 -123 -76 -34
-7 -33 -120 -181 -163 -128 -82 -41
-8 -27 -115 -174 -164 -132 -89 -49
-8 -22 -110 -168 -165 -136 -95 -55
-9 -20 -104 -156 -158 -132 -95 -59
-9 -24 -98 -142 -143 -120 -88 -57
-8 -28 -91 -129 -127 -109 -81 -55
-7 -31 -85 -114 -111 -97 -74 -53
-7 -35 -77 -100 -96 -86 -68 -51
-6 -36 -69 -87 -81 -74 -60 -48
-6 -34 -60 -73 -69 -64 -53 -41
-5 -32 -50 -60 -58 -54 -45 -36
-4 -30 -39 -47 -46 -44 -36 -30
-4 -28 -29 -33 -33 -33 -28 -25
-4 -25 -23 -25 -26 -27 -23 -22
-6 -23 -19 -21 -23 -25 -21 -20
-9 -21 -16 -17 -20 -22 -19 -18
-12 -19 -13 -14 -17 -19 -17 -17
-14 -17 -9 -10 -14 -17 -15 -15
-16 -15 -7 -8 -12 -15 -13 -14
-15 -15 -7 -7 -10 -14 -12 -14
-13 -14 -6 -5 -8 -12 -11 -13
-12 -14 -5 -4 -6 -11 -11 -12
-11 -14 -5 -3 -4 -10 -10 -12
-10 -13 -4 -2 -3 -9 -9 -11
-10 -12 -4 -2 -3 -9 -9 -10
-10 -11 -4 0 -2 -8 -8 -9
-10 -10 -4 1 0 -7 -7 -9
-10 -9 -4 1 0 -7 -7 -8
-11 -8 -3 2 1 -6 -6 -7
-11 -8 -3 2 1 -6 -6 -7
-11 -9 -2 3 1 -6 -6 -7
-11 -9 0 3 1 -6 -6 -7
-11 -9 0 3 1 -6 -6 -7
-10 -10 1 4 1 -5 -6 -8
-10 -10 1 4 1 -5 -6 -8
-10 -9 2 4 1 -5 -5 -8
-10 -9 2 4 1 -5 -5 -8
-10 -9 2 4 1 -5 -5 -8
-10 -8 3 4 2 -6 -4 -7
-10 -8 3 4 2 -6 -4 -7
-11 -8 4 4 2 -5 -4 -7
-11 -8 4 4 2 -4 -4 -7
-11 -8 4 4 2 -4 -4 -7
-12 -9 5 5 2 -3 -4 -6
-11 -8 5 5 2 -3 -4 -5
-9 -6 5 5 2 -3 -3 -4
-8 -5 5 5 2 -3 -3 -3
-7 -4 5 5 2 -3 -3 -2
-6 -3 5 6 3 -2 -2 0
-7 -4 5 6 3 -2 -2 0
-8 -5 4 6 3 -2 -3 0
-9 -6 3 7 3 -2 -4 -2
-10 -7 3 7 3 -2 -4 -2
-11 -8 2 8 2 -3 -5 -3
-11 -8 2 8 2 -3 -5 -3
-11 -8 2 8 2 -3 -5 -3
-11 -9 2 7 2 -3 -5 -3
-11 -9 2 7 2 -3 -5 -3
-12 -10 3 6 2 -2 -4 -2
-12 -9 3 6 2 -2 -4 -2
-11 -8 3 6 3 -2 -4 0
-10 -7 4 7 4 0 -4 1
-10 -6 4 7 4 0 -4 1
-9 -5 5 8 5 1 -3 2
-8 -4 5 8 5 1 -3 2
-7 -4 5 8 5 1 -3 3
-6 -3 5 8 6 2 -3 4
-5 -2 5 8 6 2 -3 4
-4 0 5 7 7 3 -2 5
-5 -2 5 7 7 3 -2 4
-6 -3 5 7 6 3 -2 3
-7 -4 4 7 5 2 -2 2
-8 -5 4 7 5 2 -2 1
-9 -6 3 6 4 1 -3 0
-7 -4 4 7 6 2 -2 0
-6 -3 4 8 7 3 -2 0
-5 -2 5 10 9 4 0 0
-3 1 6 11 11 5 1 0
-2 2 7 12 12 6 2 1
-2 2 7 13 12 6 2 1
-2 2 7 14 12 6 2 1
-2 2 7 15 12 6 2 1
-2 2 7 16 12 6 2 1
0 2 8 17 13 7 2 0
-2 2 8 16 13 7 2 0
-3 2 8 16 13 7 2 0
-4 1 8 15 13 7 2 0
-5 1 8 14 13 7 2 0
-6 0 7 13 12 7 3 1
-6 1 7 14 13 8 3 1
-5 1 7 14 14 8 3 1
-4 2 7 15 16 9 3 2
-4 3 7 16 17 10 3 2
-3 4 7 17 18 11 4 3
-3 4 7 17 18 11 5 3
-3 4 7 17 18 11 5 4
-3 5 8 18 18 12 6 5
-3 5 8 18 18 12 7 5
-2 6 9 19 19 13 8 6
-2 6 9 19 19 13 8 7
-2 6 9 19 19 13 8 7
-2 7 9 20 19 13 9 8
-2 7 9 20 19 13 9 9
0 8 10 21 20 14 10 10
1 8 9 21 20 14 10 10
2 8 9 21 20 14 10 10
4 8 8 20 20 15 11 10
5 8 7 20 20 15 11 10
6 9 6 19 19 16 12 11
7 11 6 19 20 18 14 11
7 12 6 19 21 19 15 11
8 13 6 20 23 21 16 12
9 15 6 20 24 23 18 12
10 16 7 21 25 24 19 13
10 17 7 20 24 24 19 13
10 17 6 20 23 24 19 14
10 18 5 19 22 23 19 15
10 19 5 18 21 23 19 15
10 20 4 17 20 22 18 16
10 19 3 16 19 21 18 16
11 18 2 15 18 21 18 16
12 17 0 13 17 20 18 17
12 16 -2 12 16 19 18 17
13 15 -3 11 15 18 18 18
15 16 -3 10 14 18 18 18
16 17 -3 10 14 18 18 18
18 18 -3 9 13 18 18 19
20 19 -3 8 12 18 18 19
21 20 -3 7 11 18 19 20
20 19 -3 5 11 17 18 20
19 19 -3 4 10 16 17 20
17 18 -3 2 9 15 16 19
16 17 -3 0 9 14 15 19
15 16 -4 -2 8 13 14 18
15 16 -4 -2 8 12 14 18
15 16 -5 -3 8 12 13 18
16 16 -6 -4 7 11 12 17
16 16 -6 -4 7 10 12 17
17 17 -7 -5 6 9 11 16
16 17 -6 -4 6 9 11 16
15 17 -6 -3 6 9 11 16
14 16 -5 -2 7 9 11 16
13 16 -4 0 7 9 11 16
12 15 -3 1 8 10 12 16
12 14 -3 1 7 10 12 16
12 12 -3 0 7 10 12 15
12 11 -3 -2 6 10 11 14
12 9 -3 -2 5 10 11 14
12 8 -4 -3 4 9 10 13
10 7 -4 -2 4 8 9 12
9 7 -4 -2 5 8 8 10
7 6 -4 0 6 7 7 9
5 5 -4 1 6 6 6 7
4 4 -3 2 7 5 5 6
4 3 -3 1 6 5 4 5
4 3 -3 0 6 5 4 4
3 2 -3 -2 5 4 3 3
3 1 -3 -3 4 4 2 2
2 0 -2 -4 3 3 1 1
1 -2 -2 -4 3 3 1 1
0 -3 -3 -4 3 2 1 0
-3 -4 -4 -4 3 1 0 -2
-4 -5 -4 -4 3 1 0 -2
-5 -6 -5 -5 3 0 -2 -3
-4 -6 -5 -5 3 0 -2 -3
-4 -6 -5 -6 3 0 -3 -3
-3 -5 -5 -7 2 -2 -4 -3
-2 -5 -5 -7 2 -2 -4 -3
0 -4 -4 -8 1 -3 -5 -4
1 -3 -3 -7 1 -3 -5 -4
1 -2 -2 -7 1 -3 -5 -4
2 1 1 -6 2 -2 -5 -3
3 2 2 -5 2 -2 -5 -3
4 3 3 -4 3 0 -4 -2
2 0 3 -4 2 -2 -4 -2
0 -3 2 -4 1 -2 -5 -3
-3 -5 1 -4 0 -3 -6 -4
-5 -7 1 -4 -2 -4 -6 -4
-7 -9 0 -4 -3 -5 -7 -5
-7 -9 0 -3 -3 -5 -7 -5
-7 -9 1 -2 -3 -5 -7 -5
-7 -8 2 1 -2 -4 -6 -4
-7 -8 2 2 -2 -4 -6 -4
-6 -7 3 3 0 -3 -5 -3
-6 -7 3 3 0 -3 -5 -3
-6 -7 3 3 0 -3 -5 -4
-6 -6 2 2 0 -3 -5 -5
-6 -6 2 2 0 -3 -5 -5
-5 -5 1 1 1 -3 -6 -6
-5 -5 2 1 1 -3 -6 -6
-4 -5 2 2 1 -3 -6 -6
-3 -5 3 3 2 -2 -6 -6
-3 -5 4 3 2 -2 -6 -6
-2 -4 5 4 3 0 -5 -5
-4 -5 5 4 3 0 -5 -5
-6 -5 4 4 3 0 -5 -5
-8 -6 3 3 2 0 -5 -5
-9 -7 3 3 2 0 -5 -5
-11 -8 2 2 1 0 -5 -5
-9 -7 3 2 2 0 -5 -5
-8 -5 3 2 3 0 -5 -5
-6 -4 4 2 4 0 -5 -6
-4 -2 5 2 5 0 -5 -6
-3 0 6 3 6 1 -5 -7
-3 0 6 3 6 1 -5 -7
-4 0 6 4 6 1 -5 -7
-5 0 6 5 6 2 -4 -7
-5 0 6 5 6 2 -4 -7
-6 -2 6 6 5 3 -3 -6
-4 0 8 7 6 5 -2 -5
-2 1 9 8 7 6 1 -5
1 3 11 10 9 8 2 -4
2 4 12 11 10 9 4 -3
4 5 14 12 11 11 5 -2
2 5 14 12 11 10 5 -2
1 4 13 11 11 10 4 -2
-2 3 12 10 10 9 3 -2
-3 3 12 10 10 8 3 -2
-5 2 11 9 9 7 2 0
-5 1 9 9 9 7 2 0
-4 1 8 9 9 7 2 0
-3 0 6 10 9 7 1 0
-3 -2 5 10 9 7 1 0
-2 -3 3 11 10 6 0 -2
-3 -2 3 11 10 6 0 -2
-5 0 3 11 9 6 0 -2
-6 2 4 10 8 5 0 -2
-8 3 4 10 8 5 0 -2
-9 4 5 9 7 4 -2 -3
-7 4 5 9 7 4 -2 -3
-5 4 5 9 7 4 -2 -3
-3 4 5 10 7 4 -2 -3
0 4 5 10 7 4 -2 -3
2 4 6 11 8 5 0 -2
1 4 6 11 8 5 0 -2
1 3 6 11 8 5 0 -2
0 2 6 11 8 5 0 -2
-2 2 6 11 8 5 0 -2
-3 1 6 10 7 4 -2 -2
-3 1 6 10 7 4 -2 -2
-3 2 6 10 7 4 -2 -2
-2 3 6 10 6 3 -2 -2
-2 3 6 10 6 3 -2 -2
0 4 7 9 5 2 -3 -2
0 4 6 9 5 2 -3 -2
0 3 6 8 5 2 -3 -2
0 2 5 7 4 1 -3 -3
0 2 4 7 4 1 -3 -3
0 1 3 6 3 0 -4 -4
-2 0 3 6 3 0 -4 -4
-2 0 3 7 3 0 -4 -4
-3 -2 3 8 3 0 -4 -4
-4 -3 3 8 3 0 -4 -4
-5 -4 2 9 2 0 -5 -3
-3 -2 2 9 2 0 -5 -2
1 1 3 9 3 1 -4 0
3 2 3 9 3 1 -4 1
5 4 4 9 4 2 -3 3
7 6 5 9 5 3 -2 4
4 4 4 9 4 2 -3 4
2 2 4 9 4 2 -3 3
0 1 3 9 3 1 -4 3
-4 -2 2 9 2 0 -5 2
-6 -4 1 8 1 -2 -6 1
-6 -3 1 8 1 -2 -6 1
-5 -2 1 7 1 -2 -6 1
-5 0 1 7 1 -2 -6 1
-4 1 1 6 1 -2 -6 1
-3 2 1 5 0 -2 -6 1
-4 1 1 5 0 -2 -6 1
-5 -2 1 5 0 -2 -6 0
-6 -3 1 5 0 -2 -6 0
-7 -5 1 5 0 -2 -6 -2
-8 -6 1 4 -2 -3 -7 -3
-6 -5 1 4 -2 -3 -7 -2
-5 -3 1 4 -2 -3 -7 -2
-3 -2 1 4 -2 -3 -6 0
-2 1 1 4 -2 -3 -6 1
1 2 2 5 0 -2 -5 2
1 2 2 5 0 -2 -5 2
1 2 3 5 0 -2 -5 2
0 1 3 6 0 -2 -5 2
0 1 4 6 0 -2 -5 2
-2 0 5 7 0 -2 -5 2
-2 0 5 7 0 -2 -5 2
-2 0 5 7 0 -2 -5 2
-2 0 5 6 0 -2 -5 2
-2 0 5 6 0 -2 -5 2
-2 0 4 5 -2 -2 -6 1
0 2 6 7 1 0 -5 1
1 4 8 9 2 1 -4 2
2 6 9 11 4 2 -3 2
4 8 11 13 5 4 -2 3
5 10 13 15 7 5 0 4
5 10 13 14 7 5 0 4
5 10 13 13 6 5 0 4
5 10 13 12 6 5 0 4
5 10 13 11 5 5 0 4
4 11 12 10 4 4 0 4
3 11 12 10 4 4 0 4
3 11 13 10 5 4 1 5
2 11 13 11 5 5 1 5
1 11 14 11 6 5 2 6
0 11 15 12 7 6 3 7
4 14 14 12 7 7 4 8
7 16 13 11 8 7 5 9
10 19 12 11 8 8 6 10
13 22 11 10 9 9 7 11
16 24 10 9 10 10 8 12
16 24 10 10 11 11 9 13
15 24 11 10 12 11 9 13
15 24 11 11 13 12 10 14
14 24 12 12 14 13 11 15
13 24 13 13 15 14 12 16
13 22 12 11 13 12 11 16
12 21 11 8 11 10 11 15
12 19 10 6 9 9 10 15
11 18 8 4 7 7 9 14
10 16 7 2 5 5 8 13
10 15 7 2 5 5 7 12
9 14 6 2 5 5 5 11
9 13 6 2 5 5 4 10
8 11 5 2 5 5 3 9
7 10 4 1 4 4 1 8
6 9 4 1 4 4 1 7
6 8 4 0 4 3 0 6
5 7 4 0 3 3 0 5
4 5 4 -2 3 2 -2 3
3 4 4 -3 2 1 -3 2
2 2 3 -4 0 -2 -4 0
1 0 1 -5 -2 -3 -6 -4
0 -2 0 -6 -4 -5 -7 -6
-2 -4 -2 -8 -5 -6 -8 -8
-3 -6 -4 -9 -7 -8 -10 -10
-3 -5 -4 -9 -7 -8 -10 -10
-2 -4 -3 -9 -7 -7 -9 -10
-2 -3 -3 -8 -6 -7 -9 -9
0 -2 -2 -8 -6 -6 -8 -9
1 0 0 -7 -5 -5 -7 -8
1 0 0 -7 -5 -5 -7 -8
1 -2 0 -7 -6 -6 -7 -9
1 -2 0 -7 -6 -6 -8 -9
1 -3 0 -7 -7 -7 -8 -10
2 -4 -2 -8 -8 -8 -9 -11
1 -4 -2 -8 -8 -8 -9 -11
1 -5 -2 -8 -8 -8 -9 -11
0 -5 -2 -8 -8 -8 -9 -12
-2 -6 -2 -8 -8 -8 -9 -12
-3 -7 -3 -7 -9 -9 -9 -13
-2 -6 -3 -7 -9 -9 -9 -13
-2 -5 -2 -7 -9 -9 -9 -13
0 -4 -2 -6 -9 -10 -9 -13
1 -3 0 -6 -9 -10 -9 -13
2 -2 1 -5 -9 -11 -9 -14
2 -2 1 -5 -9 -10 -9 -14
2 -2 1 -5 -9 -9 -9 -14
2 -2 0 -5 -9 -8 -9 -13
2 -2 0 -5 -9 -7 -9 -13
1 -2 -2 -5 -9 -6 -8 -12
1 -3 -2 -5 -9 -6 -8 -12
1 -4 -2 -5 -9 -6 -8 -12
0 -5 -2 -6 -9 -6 -9 -13
0 -6 -2 -6 -9 -6 -9 -13
-2 -7 -2 -7 -9 -7 -10 -14
-2 -7 -2 -7 -9 -7 -10 -14
-3 -8 0 -6 -9 -7 -10 -14
-4 -8 0 -6 -9 -7 -10 -14
-5 -9 1 -5 -9 -7 -10 -14
-6 -10 3 -3 -7 -8 -11 -15
-8 -10 10 7 0 -4 -10 -15
-10 -10 16 15 6 1 -8 -16
-12 -11 23 23 12 5 -6 -17
-14 -11 29 31 18 9 -5 -18
-15 -11 36 40 26 16 0 -17
-7 -7 40 52 39 29 12 -7
1 -2 45 63 53 43 24 4
8 3 50 74 66 56 36 14
16 8 54 86 79 69 49 24
25 13 54 91 91 81 62 35
37 19 35 71 88 88 75 51
51 25 16 53 85 93 89 66
64 32 -3 33 81 99 103 82
77 38 -21 14 78 105 116 98
85 42 -39 -9 67 102 120 105
71 28 -54 -40 28 65 89 84
58 15 -69 -73 -12 29 57 61
45 2 -83 -106 -51 -8 25 38
31 -12 -98 -138 -90 -45 -7 16
19 -22 -110 -164 -122 -75 -33 -4
15 -22 -111 -169 -132 -88 -47 -16
10 -23 -113 -174 -142 -101 -60 -28
5 -23 -114 -178 -151 -113 -73 -40
0 -24 -115 -183 -161 -126 -87 -53
-5 -25 -116 -184 -168 -134 -96 -63
-5 -25 -109 -170 -153 -124 -92 -63
-5 -26 -102 -155 -140 -115 -87 -62
-4 -26 -95 -141 -127 -105 -81 -62
-4 -27 -88 -127 -113 -96 -76 -61
-3 -28 -79 -111 -100 -86 -71 -59
-2 -26 -68 -97 -87 -74 -62 -53
0 -23 -56 -81 -73 -63 -54 -47
1 -21 -45 -67 -60 -52 -45 -40
3 -18 -32 -52 -47 -40 -36 -33
4 -16 -23 -38 -34 -31 -29 -28
4 -13 -18 -33 -30 -26 -25 -25
3 -11 -14 -28 -25 -22 -21 -22
3 -8 -9 -23 -20 -17 -17 -19
2 -6 -5 -18 -15 -13 -13 -16
1 -3 0 -14 -11 -9 -9 -13
-2 -3 0 -14 -11 -9 -9 -13
-3 -4 1 -13 -11 -9 -9 -13
-5 -5 1 -13 -10 -9 -9 -13
-7 -6 2 -12 -10 -9 -9 -13
-9 -7 3 -11 -9 -8 -10 -14
-8 -5 3 -11 -9 -8 -10 -13
-7 -4 3 -11 -9 -8 -10 -11
-6 -2 3 -11 -8 -7 -10 -10
-4 1 3 -11 -8 -7 -10 -9
-3 3 3 -10 -7 -6 -9 -7
-3 3 3 -9 -6 -5 -9 -7
-3 3 4 -8 -4 -3 -8 -7
-3 3 4 -7 -3 -2 -8 -7
-3 3 5 -5 -2 0 -7 -7
-2 2 6 -4 1 2 -6 -6
-4 0 6 -5 0 1 -6 -6
-5 -3 6 -7 -3 -2 -6 -7
-7 -5 6 -8 -4 -3 -6 -8
-9 -7 6 -9 -5 -4 -6 -9
-11 -9 5 -11 -7 -6 -7 -10
-10 -7 6 -9 -6 -5 -7 -10
-8 -5 7 -7 -4 -3 -6 -9
-6 -2 8 -4 -3 -2 -6 -8
-5 1 10 -2 -2 0 -5 -7
-3 3 11 1 1 2 -4 -6
-3 3 11 1 1 2 -4 -6
-3 3 10 1 1 2 -4 -5
-3 4 9 0 1 2 -4 -4
-3 4 8 0 1 2 -4 -3
-3 5 7 -2 0 2 -3 -2
-3 4 7 -2 0 2 -3 -2
-4 2 6 -2 -2 2 -3 -3
-5 1 6 -2 -2 1 -4 -3
-6 0 5 -2 -3 1 -4 -4
-7 -3 4 0 -4 0 -5 -5
-5 -2 4 0 -4 0 -5 -5
-4 0 5 1 -3 0 -5 -5
-2 1 5 1 -3 1 -5 -5
1 3 6 2 -2 1 -5 -5
3 4 7 3 0 2 -4 -4
3 4 7 3 0 2 -4 -4
2 4 7 4 0 2 -4 -4
1 4 7 4 0 2 -3 -3
0 4 7 5 0 2 -3 -3
-2 3 8 6 1 3 -2 -2
-2 3 8 6 1 3 -2 -2
-3 3 8 5 1 3 -2 -3
-4 3 7 5 1 3 -2 -4
-5 3 7 4 1 3 -2 -5
-6 2 6 3 0 2 -3 -6
-6 2 6 3 0 2 -3 -6
-5 2 7 3 1 2 -3 -6
-5 2 7 4 1 2 -3 -6
-4 2 8 4 2 2 -3 -6
-3 2 9 5 3 3 -2 -6
-3 2 9 5 3 3 -2 -6
-3 3 9 5 3 3 -2 -6
-3 3 9 5 3 3 -2 -6
-3 4 9 5 3 3 -2 -6
-3 5 8 6 3 4 0 -5
-3 5 8 6 3 4 0 -5
-3 5 8 6 3 4 0 -5
-3 6 8 6 3 4 0 -5
-3 6 8 6 3 4 0 -5
-2 7 8 5 4 4 0 -4
-2 7 8 5 4 4 0 -4
-2 7 8 5 5 5 0 -4
0 7 8 6 5 5 1 -3
0 7 8 6 6 6 1 -3
1 8 8 7 7 7 2 -2
1 8 9 8 8 8 3 -2
2 9 10 9 9 9 4 0
2 10 11 10 10 10 5 1
3 11 12 11 11 11 6 2
4 12 13 12 13 12 7 3
4 12 13 12 13 12 7 3
4 12 13 11 13 12 7 3
3 11 12 11 12 12 7 4
3 11 12 10 12 12 7 4
2 10 11 9 11 11 7 5
2 10 11 10 12 12 8 5
3 11 12 11 14 13 9 5
4 12 13 12 15 14 10 6
5 13 14 13 16 15 11 6
6 14 15 15 18 16 12 7
6 14 14 15 18 16 12 7
7 14 13 14 17 16 12 7
8 14 12 13 16 16 12 7
9 14 11 12 15 16 12 7
10 15 9 11 14 16 12 8
10 16 9 11 15 16 12 8
11 17 9 11 16 16 13 9
12 19 9 12 17 17 13 10
13 20 9 12 18 17 14 11
14 22 8 13 19 18 15 12
14 22 8 12 19 18 15 12
14 22 8 11 18 18 15 12
13 22 7 10 17 18 16 12
13 22 7 9 16 18 16 12
12 22 6 8 15 18 17 13
13 22 6 8 15 18 17 13
14 22 6 8 15 18 17 13
15 22 6 8 15 18 17 13
16 22 6 8 15 18 17 13
17 23 7 8 14 17 17 14
19 24 5 6 13 17 17 14
20 25 4 5 11 16 17 14
22 26 2 3 10 15 16 15
24 27 0 1 8 14 16 15
26 29 -3 -2 6 13 15 16
24 28 -3 -2 6 13 15 16
22 26 -3 -2 6 13 15 16
20 25 -2 -2 6 13 15 16
18 23 -2 -2 6 13 15 16
16 21 0 0 5 12 15 17
16 21 0 0 5 11 15 16
16 20 -2 -2 4 10 14 15
15 20 -3 -3 3 9 13 13
15 19 -4 -4 2 8 12 12
14 18 -5 -5 1 7 11 10
14 18 -5 -3 1 7 11 10
15 18 -4 -2 1 7 11 11
15 18 -3 1 1 7 11 12
16 18 -2 3 1 7 11 13
17 19 0 5 2 7 11 14
16 19 0 5 2 7 11 13
15 18 0 4 2 6 10 12
14 18 -2 3 1 6 9 11
13 17 -2 2 1 5 8 10
12 16 -3 1 0 4 7 8
11 15 -2 1 0 4 7 8
10 14 0 2 1 4 7 8
9 13 2 2 1 4 7 8
8 12 3 3 2 4 7 8
6 10 5 4 3 4 6 7
7 10 5 4 3 4 6 7
8 11 5 4 3 4 6 7
9 11 4 4 3 4 6 6
10 12 4 4 3 4 6 6
12 13 3 4 4 5 6 5
11 12 3 4 4 5 6 5
9 11 2 3 4 4 5 4
8 9 2 3 3 4 5 3
6 8 1 2 3 3 4 2
4 6 0 1 2 2 3 1
4 5 0 1 1 1 2 0
3 4 0 0 0 0 1 -2
2 3 0 0 -2 -2 0 -3
1 2 0 -2 -3 -3 -2 -4
0 0 1 -3 -4 -4 -4 -6
0 0 1 -3 -4 -4 -4 -6
1 0 2 -3 -4 -4 -4 -6
1 0 3 -2 -4 -4 -4 -6
2 0 4 -2 -4 -4 -4 -6
3 1 5 0 -3 -3 -3 -5
3 1 5 0 -3 -3 -3 -5
2 1 4 0 -3 -3 -4 -5
2 1 4 0 -3 -4 -4 -5
1 1 3 0 -3 -4 -5 -5
0 1 2 -2 -2 -5 -6 -6
0 1 2 -2 -2 -5 -6 -6
0 1 3 0 0 -4 -6 -6
0 2 3 0 0 -3 -5 -5
0 2 4 1 1 -2 -5 -5
1 3 5 2 2 0 -4 -4
1 2 5 2 2 0 -4 -4
0 1 5 1 2 0 -4 -5
-2 0 5 1 1 -2 -5 -5
-3 -2 5 0 1 -2 -5 -6
-4 -4 4 -2 0 -3 -6 -7
-4 -4 4 -2 0 -3 -6 -7
-5 -5 4 -2 0 -3 -6 -7
-5 -5 5 0 0 -3 -6 -7
-6 -6 5 0 0 -3 -6 -7
-7 -7 6 1 0 -2 -6 -7
-6 -6 6 1 1 -2 -6 -7
-5 -5 6 2 2 0 -5 -7
-4 -3 6 3 3 1 -4 -6
-3 -2 6 4 4 2 -3 -6
-2 1 6 5 5 3 -2 -5
-2 1 6 5 5 3 -2 -5
-2 1 7 6 6 4 -2 -4
-3 1 7 6 6 4 -2 -4
-3 1 8 7 7 5 -2 -3
-4 2 9 8 8 6 -2 -2
-4 1 9 8 8 6 -2 -2
-5 0 9 8 8 6 -2 -3
-5 -3 9 7 8 5 -2 -3
-6 -4 9 7 8 5 -2 -4
-7 -6 8 6 7 4 0 -5
-6 -4 8 6 8 4 0 -5
-5 -2 8 7 9 5 0 -5
-4 1 8 7 10 5 1 -4
-3 3 8 8 11 6 1 -4
0 5 9 9 12 7 2 -3
0 5 9 9 12 7 2 -3
0 5 9 9 12 7 2 -3
-2 5 10 9 12 8 3 -2
-2 5 10 9 12 8 3 -2
-3 5 11 10 12 9 4 0
-3 5 11 10 12 9 4 0
-3 5 11 10 12 9 4 0
-3 5 11 10 12 8 4 0
-3 5 11 10 12 8 4 0
-2 6 11 10 11 7 3 -2
-2 6 11 10 11 7 3 -2
-2 6 11 11 11 7 3 0
-2 6 11 12 11 7 3 0
-2 6 11 13 11 7 3 1
-3 5 10 14 12 8 3 2
-3 5 10 14 12 8 3 2
-3 5 10 14 12 8 3 2
-2 5 10 14 12 7 3 2
-2 5 10 14 12 7 3 2
0 5 9 15 11 6 2 1
0 3 9 15 11 6 2 1
-2 1 9 14 11 6 2 0
-3 -3 8 14 10 5 1 0
-4 -5 8 13 10 5 1 -2
-5 -8 7 12 9 4 0 -3
-5 -7 7 12 9 4 0 -3
-5 -5 7 13 9 4 0 -3
-6 -4 7 13 10 4 0 -2
-6 -2 7 14 10 4 0 -2
-7 1 7 15 11 5 1 0
-7 1 7 15 11 5 1 0
-7 1 7 15 11 5 1 0
-6 1 7 15 10 4 1 0
-6 1 7 15 10 4 1 0
-5 2 6 14 9 3 0 1
-5 2 6 14 9 3 0 1
-5 2 6 14 9 3 0 1
-4 2 6 13 9 4 0 1
-4 2 6 13 9 4 0 1
-3 3 5 12 8 5 1 0
-3 1 5 12 8 4 1 0
-4 -3 5 11 8 3 1 0
-5 -6 4 10 7 2 1 0
-6 -9 4 9 7 1 1 0
-7 -12 3 8 6 0 0 -2
-6 -10 3 8 6 0 0 -2
-5 -8 3 8 6 1 0 0
-4 -5 3 8 6 2 0 0
-3 -3 3 8 6 3 0 1
-2 1 3 8 6 4 0 2
-2 1 3 8 6 4 0 2
-2 1 3 8 6 4 0 2
0 1 3 8 6 4 0 2
0 1 3 8 6 4 0 2
1 2 4 7 7 5 1 2
1 2 4 7 7 5 1 2
0 2 4 7 7 5 0 2
0 2 3 7 7 5 -2 2
-2 2 3 7 7 5 -3 2
-3 2 2 8 7 5 -4 2
-3 2 2 7 6 5 -4 2
-3 1 2 6 5 4 -4 1
-3 0 2 5 4 3 -4 1
-3 -2 2 4 3 2 -4 0
-2 -3 1 2 2 1 -3 -2
-3 -3 2 2 2 1 -3 -2
-4 -3 3 3 3 1 -3 0
-6 -3 4 4 4 2 -2 0
-7 -3 4 5 5 2 -2 1
-8 -3 5 5 5 2 -2 1
-9 -2 6 6 6 3 0 2
-9 0 6 6 6 3 1 2
-9 0 7 7 7 4 1 2
-9 1 7 7 7 4 2 2
-9 1 7 7 7 4 2 2
-8 2 8 8 8 5 3 3
-7 2 8 8 8 5 3 3
-7 2 8 9 8 5 3 3
-6 2 8 9 8 5 3 3
-6 2 8 9 8 5 3 3
-5 2 7 10 9 6 3 3
-5 2 8 11 9 6 4 4
-5 3 9 11 9 6 4 4
-5 3 10 12 9 6 5 5
-5 3 10 12 9 6 5 5
-5 6 11 14 10 8 6 6
-3 8 11 15 11 9 7 7
0 11 11 16 12 10 7 8
2 13 11 17 13 11 8 9
3 15 11 18 14 12 8 10
4 16 12 19 15 13 9 11
5 17 11 19 16 13 10 12
6 17 10 19 16 14 11 13
7 18 9 19 17 14 12 14
8 18 9 19 17 14 12 14
9 18 8 18 18 15 13 15
8 16 8 18 18 15 12 15
7 15 7 18 17 15 12 14
6 13 7 18 17 15 11 14
5 12 7 18 17 15 11 14
4 11 6 17 16 14 10 13
4 11 5 17 16 14 10 12
5 11 4 16 15 14 10 12
5 11 3 16 15 14 10 11
5 11 2 16 15 14 10 11
5 8 1 14 13 12 9 10
3 6 1 12 12 11 8 9
1 4 1 10 11 9 6 8
-2 2 1 8 10 8 5 7
-3 0 1 7 9 7 4 6
-4 -2 0 6 8 6 3 5
-4 -2 0 5 7 5 2 4
-4 -3 0 5 6 4 1 4
-4 -3 0 4 5 3 0 3
-4 -3 0 4 5 3 0 3
-6 -5 -2 3 4 1 -3 1
-8 -7 -2 2 3 0 -4 0
-9 -9 -2 1 2 -2 -5 -2
-11 -11 -2 0 1 -3 -6 -3
-12 -13 -2 -2 0 -4 -7 -4
-13 -14 -3 -3 -2 -5 -8 -5
-13 -13 -3 -3 -2 -5 -8 -5
-12 -12 -3 -3 -2 -4 -8 -5
-12 -11 -3 -3 -2 -4 -8 -5
-12 -10 -3 -3 -2 -4 -8 -5
-11 -10 -4 -2 -2 -3 -8 -4
-12 -12 -4 -2 -3 -4 -9 -4
-13 -14 -4 -2 -3 -5 -9 -4
-14 -16 -4 -2 -4 -6 -10 -4
-15 -17 -4 -2 -4 -6 -10 -4
-15 -17 -4 0 -5 -7 -11 -5
-13 -15 -4 0 -5 -7 -11 -5
-11 -14 -4 0 -5 -7 -10 -5
-9 -12 -4 0 -5 -7 -10 -5
-8 -11 -4 0 -5 -7 -10 -5
-7 -10 -4 -2 -4 -6 -9 -5
-8 -11 -5 -2 -4 -6 -9 -5
-8 -11 -6 -2 -4 -6 -9 -5
-9 -12 -7 -2 -4 -6 -9 -5
-9 -12 -7 -2 -4 -6 -9 -5
-10 -12 -7 -3 -4 -6 -9 -6
-10 -10 -6 -3 -4 -6 -8 -5
-10 -9 -4 -2 -4 -6 -8 -5
-10 -7 -3 -2 -4 -6 -7 -4
-10 -6 -2 -2 -4 -6 -7 -4
-10 -6 0 0 -3 -5 -6 -3
-11 -8 0 0 -4 -6 -7 -4
-12 -10 -2 -2 -4 -6 -7 -5
-13 -12 -2 -2 -5 -7 -8 -6
-14 -14 -2 -2 -5 -7 -8 -6
-15 -15 0 1 -4 -7 -9 -7
-15 -15 3 4 -2 -6 -9 -7
-15 -14 6 7 1 -5 -9 -8
-15 -14 9 11 3 -4 -9 -8
-15 -14 11 14 5 -3 -9 -8
-14 -11 18 24 15 6 -5 -6
-13 -9 25 35 26 14 2 -3
-12 -6 31 47 36 23 8 1
-11 -4 38 57 47 31 14 5
-11 -2 46 68 58 39 20 8
0 2 44 69 64 50 32 19
9 5 40 69 70 61 45 31
19 7 36 68 76 72 57 44
29 10 32 68 82 82 69 56
39 12 29 68 89 94 82 68
45 13 10 43 72 87 82 71
49 13 -12 15 54 77 80 73
53 12 -33 -13 34 68 78 76
58 12 -54 -40 16 59 76 78
62 12 -75 -68 -4 50 75 80
51 5 -86 -93 -35 16 45 60
37 -4 -95 -116 -67 -20 13 35
23 -11 -104 -140 -100 -56 -20 11
10 -18 -114 -163 -132 -92 -52 -14
-4 -26 -123 -188 -164 -128 -85 -37
-8 -26 -119 -180 -160 -127 -88 -43
-10 -25 -112 -169 -151 -121 -87 -45
-12 -24 -106 -156 -143 -117 -86 -47
-14 -23 -99 -145 -135 -112 -85 -50
-16 -22 -93 -134 -126 -107 -83 -52
-14 -22 -85 -120 -114 -97 -76 -51
-11 -23 -76 -107 -102 -87 -70 -47
-8 -24 -68 -94 -90 -76 -63 -44
-4 -25 -60 -80 -77 -66 -56 -40
0 -26 -52 -68 -65 -56 -49 -37
0 -25 -44 -57 -55 -48 -43 -32
-3 -23 -35 -47 -45 -39 -35 -27
-5 -20 -27 -36 -35 -31 -29 -23
-7 -17 -19 -26 -25 -23 -23 -18
-8 -15 -11 -16 -15 -15 -16 -13
-9 -14 -9 -14 -14 -13 -15 -12
-9 -13 -7 -12 -13 -12 -14 -12
-10 -12 -6 -10 -12 -11 -13 -11
-10 -11 -4 -8 -11 -10 -12 -11
-10 -10 -3 -6 -10 -9 -12 -11
-11 -9 -2 -5 -9 -8 -11 -10
-11 -9 -2 -5 -8 -7 -11 -10
-11 -9 -2 -4 -7 -6 -10 -9
-11 -9 -2 -4 -6 -5 -10 -9
-11 -9 -2 -4 -6 -4 -10 -9
-12 -10 0 -3 -5 -3 -9 -8
-12 -10 0 -2 -4 -3 -8 -8
-12 -10 1 -2 -4 -3 -8 -8
-12 -10 1 0 -3 -3 -7 -8
-12 -10 1 0 -3 -3 -7 -8
-12 -9 2 1 -2 -2 -6 -7
-11 -9 2 1 -2 -2 -6 -7
-11 -8 2 2 -2 -2 -6 -7
-10 -8 2 2 -2 -2 -6 -7
-10 -8 2 2 -2 -2 -6 -7
-9 -7 3 3 0 0 -5 -7
-10 -7 3 3 0 0 -5 -7
-11 -7 3 3 0 0 -5 -7
-12 -7 3 3 0 0 -5 -7
-12 -7 3 3 0 0 -5 -7
-13 -8 4 2 0 0 -5 -6
-13 -8 4 2 0 0 -5 -6
-12 -8 4 3 0 0 -4 -6
-12 -8 4 3 0 0 -4 -6
-12 -8 4 3 0 0 -4 -6
-11 -9 5 4 1 1 -3 -6
-11 -8 5 4 1 1 -3 -6
-11 -7 5 4 1 1 -3 -6
-11 -6 5 4 1 1 -3 -6
-11 -6 5 4 1 1 -3 -6
-9 -4 6 4 2 2 -2 -5
-8 -3 7 5 2 3 -2 -4
-6 -2 8 6 3 3 0 -4
-5 0 9 7 3 4 0 -3
-4 1 9 7 3 4 0 -3
-3 2 10 8 4 5 1 -2
-3 3 10 8 4 5 2 -2
-3 3 10 8 4 6 2 -2
-3 4 10 8 4 6 3 -2
-3 4 10 8 4 6 3 -2
-4 3 10 7 5 7 4 -2
-7 1 10 7 4 6 3 -3
-9 -3 9 6 3 5 2 -4
-11 -6 9 6 2 4 1 -5
-13 -8 9 6 2 3 0 -5
-13 -8 8 5 1 2 -2 -6
-12 -6 8 5 2 3 0 -5
-10 -4 9 5 2 3 0 -4
-8 -3 9 5 3 4 1 -3
-7 0 9 5 3 4 1 -2
-6 1 10 6 4 5 2 0
-6 0 10 6 4 5 2 -2
-7 -2 10 6 4 5 1 -2
-7 -3 10 6 4 5 1 -3
-7 -3 10 6 4 5 1 -3
-8 -3 10 6 4 6 0 -4
-8 0 10 7 4 7 1 -3
-7 2 10 7 4 8 2 -2
-7 4 10 8 4 9 3 0
-7 6 10 8 4 9 4 0
-6 6 11 9 4 10 5 1
-7 5 11 9 5 10 5 1
-7 4 10 9 5 10 5 1
-8 3 10 9 6 10 5 1
-8 2 10 9 6 10 5 1
-9 1 9 9 7 9 4 0
-9 1 9 9 7 9 4 0
-8 2 9 10 7 9 4 0
-8 2 9 10 7 9 4 0
-8 2 9 10 7 9 4 0
-7 4 8 12 6 9 4 0
-7 6 9 13 7 10 5 0
-6 8 9 15 8 10 5 1
-6 10 10 17 9 11 6 1
-6 12 10 18 10 11 6 1
-4 13 11 19 11 12 7 2
-3 13 11 20 12 13 8 3
-2 12 11 21 13 14 9 4
0 12 11 22 14 15 10 5
1 12 11 22 14 15 10 5
2 11 11 23 15 16 11 6
1 11 11 24 16 16 11 6
1 10 11 25 16 16 12 6
0 10 11 26 17 16 12 6
0 10 11 27 17 16 12 6
0 10 12 28 18 17 13 7
2 11 11 28 18 17 14 8
4 12 11 28 18 18 15 9
5 14 10 28 18 18 16 10
7 15 10 28 18 18 16 11
8 16 9 27 18 19 17 12
7 15 9 27 18 19 17 13
6 14 9 27 18 19 17 14
5 13 9 27 18 19 17 15
5 13 9 27 18 19 17 16
5 12 8 27 18 18 17 17
6 13 8 27 18 18 18 18
7 14 7 26 18 18 18 18
9 15 7 26 18 18 19 19
10 16 7 26 18 18 19 19
12 18 6 25 17 19 20 20
14 19 6 25 16 19 20 21
16 20 6 24 16 19 20 21
18 22 6 24 15 19 20 22
20 23 6 24 15 19 20 22
19 23 4 22 13 18 20 23
17 21 3 21 12 17 19 22
14 18 1 19 11 16 18 21
12 16 -2 17 9 15 17 20
9 14 -3 16 8 14 17 20
9 13 -4 15 7 13 16 19
11 14 -4 15 7 13 16 19
14 15 -4 15 7 13 16 19
16 16 -4 15 7 13 16 19
18 16 -4 15 7 13 16 19
19 17 -3 15 7 12 16 20
18 18 -3 14 6 12 16 20
17 18 -3 14 6 11 16 21
16 19 -3 13 5 11 16 21
15 19 -3 13 5 11 16 21
14 20 -2 12 4 10 15 22
15 19 -2 12 4 10 14 21
16 18 0 11 3 9 14 21
17 17 0 11 3 9 13 20
18 17 0 11 3 9 13 20
19 16 1 10 2 8 12 19
17 16 1 11 3 8 12 18
16 16 2 12 4 8 12 18
15 16 2 13 5 8 12 17
14 16 2 13 6 8 12 17
10 13 3 13 6 7 10 15
7 9 2 11 5 6 9 13
3 5 1 9 3 5 7 10
-2 1 0 8 1 4 5 8
-6 -4 -2 6 0 3 4 6
-7 -5 -3 5 -2 2 3 5
-5 -4 -3 5 -2 2 3 5
-4 -3 -2 6 0 2 3 5
-3 -2 -2 6 0 2 3 5
-2 -2 -2 6 0 2 3 5
0 0 0 7 1 2 3 5
0 0 0 8 1 2 3 4
0 -2 1 8 1 2 3 3
0 -2 1 9 1 2 3 2
0 -2 1 9 1 2 3 2
-2 -4 2 10 2 1 2 1
-4 -5 1 9 0 0 1 0
-5 -6 1 9 -2 -2 0 -2
-6 -8 0 8 -3 -3 -2 -3
-7 -9 0 8 -4 -3 -3 -4
-7 -9 -2 7 -5 -4 -4 -5
-6 -7 1 8 -4 -3 -3 -5
-5 -6 2 9 -3 -2 -2 -5
-3 -4 3 10 -2 0 0 -5
-2 -2 4 11 0 0 0 -5
0 0 5 12 1 1 1 -4
0 0 5 11 1 1 0 -5
0 0 4 11 0 0 0 -5
0 0 4 10 0 0 -2 -6
0 0 4 10 0 0 -2 -6
0 -3 3 9 -2 -2 -3 -7
0 -4 3 9 -2 -2 -3 -7
-2 -5 3 9 -2 -2 -4 -7
-2 -7 3 9 -2 -2 -4 -7
-2 -8 3 9 -2 -2 -4 -7
-4 -9 4 9 -3 -3 -5 -8
-5 -8 5 10 -2 -2 -4 -8
-6 -7 5 10 -2 -2 -4 -7
-8 -6 6 11 0 0 -3 -7
-9 -6 6 11 0 0 -3 -7
-10 -5 7 12 1 1 -2 -6
-10 -5 7 12 1 1 -2 -6
-10 -4 7 12 1 1 -2 -5
-10 -4 7 12 1 1 -2 -5
-10 -4 7 12 1 1 -2 -5
-9 -3 7 13 1 1 -2 -4
-9 -3 7 15 1 1 -2 -4
-9 -3 7 16 2 1 0 -4
-9 -3 7 18 2 1 0 -4
-9 -3 7 20 2 1 0 -4
-8 -3 8 21 3 2 1 -3
-8 -3 8 21 3 2 1 -3
-8 -2 8 21 3 2 1 -3
-8 -2 8 21 3 2 1 -3
-8 -2 8 21 3 2 1 -3
-7 0 7 20 4 3 0 -4
-7 0 7 20 5 3 0 -4
-7 0 8 20 5 4 1 -4
-7 0 8 20 6 4 1 -4
-7 0 8 20 6 4 1 -4
-7 -2 9 20 7 5 2 -3
-9 -3 9 19 7 4 1 -4
-10 -4 9 19 7 3 1 -4
-11 -5 9 18 7 3 0 -5
-12 -6 9 18 7 2 0 -5
-12 -6 9 17 6 2 -2 -6
-9 -4 10 18 6 3 0 -5
-7 0 10 18 7 4 1 -4
-5 2 11 19 7 6 1 -4
-2 4 11 19 7 7 2 -3
0 5 12 20 8 8 3 -2
0 5 11 19 8 8 3 -2
-2 4 11 19 8 7 4 0
-2 4 10 18 8 7 4 0
-2 4 10 18 8 7 4 0
-3 3 9 17 9 6 5 1
-3 3 9 17 9 6 5 1
-3 3 9 17 8 6 5 1
-3 3 9 17 8 6 5 1
-3 3 9 17 8 6 5 1
-3 2 10 18 6 7 5 1
-5 2 9 17 5 5 3 0
-6 2 9 16 4 4 2 -2
-7 2 8 16 2 3 1 -2
-8 2 8 15 1 2 0 -3
-9 2 7 14 0 1 -2 -4
-9 1 6 14 1 2 0 -4
-9 0 6 13 2 3 0 -4
-9 0 5 13 2 4 1 -4
-9 -2 5 13 3 5 1 -4
-8 -3 4 12 4 6 2 -3
-8 -3 4 12 3 5 2 -3
-8 -2 5 12 3 5 2 -3
-8 -2 5 12 2 4 2 -3
-8 -2 5 12 2 4 2 -3
-6 1 6 12 1 3 1 -3
-5 2 6 12 1 3 1 -3
-3 3 5 11 1 2 1 -4
-2 5 5 11 1 2 1 -4
1 6 5 11 1 2 1 -4
2 7 4 10 1 1 0 -5
1 6 4 10 1 1 0 -5
0 6 5 10 2 2 0 -5
0 5 5 10 2 2 0 -5
-2 5 5 10 2 2 0 -5
-3 4 6 10 3 3 1 -4
-4 2 5 9 2 3 1 -4
-5 1 4 8 2 3 0 -4
-5 -2 4 7 1 3 0 -4
-6 -3 3 6 1 3 0 -4
-7 -4 2 5 0 2 -2 -5
-7 -3 2 5 0 2 -2 -5
-6 -2 2 5 0 2 -2 -6
-6 0 2 5 0 2 -2 -6
-6 1 2 5 0 2 -2 -6
-5 1 3 5 1 2 0 -7
-6 0 3 4 0 1 -2 -8
-7 -3 2 2 -2 0 -3 -9
-7 -4 2 1 -3 -2 -4 -10
-8 -6 2 -2 -4 -3 -5 -11
-9 -7 1 -3 -5 -4 -6 -12
-8 -6 1 -3 -5 -4 -6 -11
-8 -6 1 -3 -5 -3 -6 -11
-7 -5 1 -3 -5 -3 -6 -10
-7 -5 1 -3 -5 -3 -6 -10
-6 -4 2 -2 -4 -2 -5 -9
-6 -3 2 -2 -4 -2 -4 -9
-6 -3 2 0 -4 -2 -4 -8
-6 -2 2 0 -4 -2 -3 -8
-6 -2 2 0 -4 -2 -3 -8
-5 0 2 1 -3 0 -2 -7
-3 1 3 1 -3 0 -2 -7
-2 2 3 1 -3 1 -2 -7
1 3 4 1 -3 1 -2 -7
2 4 4 1 -3 1 -2 -7
2 5 5 1 -2 2 0 -6
1 6 5 1 -2 2 0 -6
-2 6 6 1 -2 2 0 -6
-3 7 6 1 -2 2 0 -6
-5 7 6 1 -2 2 0 -6
-6 9 8 2 0 3 -2 -6
-4 11 9 4 2 4 1 -4
-3 12 11 5 3 6 2 -3
0 14 12 7 5 7 4 -2
1 16 14 9 7 9 5 0
2 17 15 10 8 10 6 1
2 18 14 10 8 10 6 1
2 18 13 9 8 10 7 2
2 19 12 9 8 10 7 2
2 19 11 9 8 10 7 2
3 20 10 8 8 9 8 3
4 20 10 8 8 11 8 4
5 20 10 8 8 12 9 4
6 20 10 8 8 14 9 5
7 20 10 8 8 15 9 5
8 21 9 8 9 16 10 6
8 21 8 7 9 15 10 5
8 21 7 7 9 14 10 5
8 21 7 6 9 14 10 4
8 21 6 6 9 13 10 4
8 19 5 4 7 12 9 3
6 15 5 2 5 11 8 3
4 11 5 0 3 10 7 2
2 8 5 -3 1 10 7 2
0 4 5 -5 -2 9 6 2
-2 2 4 -6 -3 8 5 1
-3 0 3 -6 -3 6 3 0
-4 -2 2 -7 -3 5 2 -2
-5 -4 1 -7 -3 3 0 -3
-6 -5 0 -7 -3 2 -2 -4
-7 -6 -2 -8 -4 1 -3 -5
-7 -6 -2 -8 -4 1 -4 -5
-7 -5 -3 -9 -5 0 -5 -6
-7 -5 -3 -10 -6 0 -5 -7
-7 -5 -3 -10 -6 0 -6 -7
-6 -4 -4 -11 -7 -2 -7 -8
-6 -4 -4 -11 -7 -2 -7 -8
-5 -4 -5 -12 -8 -3 -7 -9
-4 -4 -5 -12 -9 -3 -7 -10
-4 -4 -5 -12 -9 -3 -7 -10
-3 -3 -6 -13 -10 -4 -8 -11
-3 -3 -6 -12 -10 -4 -8 -11
-3 -4 -5 -11 -10 -4 -8 -11
-3 -5 -5 -11 -10 -4 -8 -11
-3 -5 -5 -10 -10 -4 -8 -11
-4 -6 -4 -9 -9 -4 -7 -12
-4 -7 -4 -10 -9 -4 -7 -12
-5 -8 -5 -11 -10 -5 -8 -13
-6 -8 -6 -11 -11 -5 -9 -13
-6 -9 -6 -12 -11 -5 -9 -13
-7 -10 -7 -13 -12 -6 -10 -14
-7 -10 -7 -12 -12 -6 -10 -14
-8 -11 -6 -11 -11 -6 -10 -14
-9 -12 -5 -10 -11 -6 -10 -14
-9 -12 -5 -9 -11 -6 -10 -14
-10 -13 -4 -8 -10 -6 -10 -14
-10 -12 -4 -8 -10 -5 -9 -13
-9 -11 -4 -7 -9 -4 -8 -12
-9 -10 -4 -6 -8 -3 -7 -11
-9 -9 -4 -6 -8 -2 -6 -10
-8 -8 -3 -5 -7 0 -5 -9
-8 -8 -3 -6 -7 -2 -6 -10
-8 -9 -3 -7 -8 -3 -7 -11
-8 -9 -3 -7 -9 -3 -7 -12
-8 -9 -3 -8 -9 -4 -8 -13
-8 -10 -4 -9 -10 -5 -9 -14
-8 -10 -4 -9 -10 -5 -9 -14
-8 -10 -4 -9 -10 -5 -9 -14
-8 -10 -4 -9 -10 -5 -9 -14
-8 -10 -4 -9 -10 -5 -9 -14
-8 -9 0 -7 -9 -6 -8 -15
-10 -11 3 -4 -8 -5 -9 -16
-12 -12 6 0 -6 -4 -10 -18
-14 -14 10 4 -4 -3 -11 -19
-16 -15 13 7 -2 -2 -12 -21
-15 -15 19 16 7 6 -8 -19
-12 -12 25 27 20 16 1 -14
-8 -9 32 38 32 26 9 -9
-4 -6 38 51 45 36 17 -4
0 -3 46 62 58 48 25 2
8 3 47 66 66 58 37 13
18 9 42 64 72 70 52 27
29 14 36 62 78 81 67 43
39 20 32 60 85 93 81 57
50 25 27 58 91 104 96 72
55 26 13 38 79 99 98 78
53 23 -8 7 54 81 92 77
51 19 -28 -25 29 64 85 75
50 15 -49 -57 5 47 78 74
48 12 -69 -89 -20 29 71 73
40 7 -81 -113 -48 4 50 58
30 2 -90 -133 -76 -28 18 34
19 -4 -98 -153 -106 -59 -13 11
9 -9 -106 -174 -135 -91 -45 -13
-2 -14 -113 -194 -163 -121 -75 -36
-8 -17 -114 -195 -171 -132 -89 -48
-9 -17 -108 -184 -160 -126 -87 -50
-11 -17 -102 -172 -151 -118 -86 -52
-13 -17 -97 -159 -142 -112 -83 -54
-15 -17 -91 -147 -132 -106 -82 -57
-16 -19 -83 -134 -121 -98 -78 -57
-15 -23 -76 -120 -109 -89 -72 -54
-14 -26 -69 -106 -98 -79 -65 -51
-13 -29 -62 -93 -86 -70 -59 -48
-12 -32 -55 -78 -74 -61 -53 -45
-11 -31 -48 -66 -64 -53 -47 -40
-9 -25 -39 -56 -54 -44 -39 -35
-7 -18 -31 -45 -45 -35 -32 -30
-6 -12 -23 -34 -34 -27 -26 -25
-4 -6 -15 -24 -24 -19 -19 -20
-3 -2 -11 -19 -20 -15 -16 -18
-4 1 -11 -19 -19 -15 -16 -18
-5 3 -10 -18 -18 -14 -16 -18
-5 5 -9 -17 -18 -13 -16 -18
-6 7 -9 -17 -17 -13 -16 -18
-7 8 -8 -16 -16 -12 -15 -18
-8 7 -7 -15 -14 -12 -14 -18
-9 6 -6 -13 -13 -11 -13 -17
-9 6 -5 -12 -11 -10 -13 -16
-10 5 -4 -11 -10 -10 -12 -16
-11 4 -3 -9 -9 -9 -11 -15
-11 4 -3 -8 -8 -8 -11 -15
-10 4 -2 -6 -7 -7 -10 -14
-10 4 0 -4 -6 -7 -9 -14
-10 4 0 -2 -5 -6 -9 -14
-9 5 1 0 -4 -5 -8 -13
-9 4 1 0 -4 -5 -8 -13
-10 3 1 1 -4 -6 -9 -14
-10 3 1 1 -4 -6 -9 -14
-10 2 1 1 -4 -6 -9 -14
-11 1 0 2 -5 -7 -10 -15
-10 2 0 2 -5 -7 -10 -15
-9 3 1 2 -5 -6 -9 -14
-9 4 2 2 -5 -5 -9 -14
-8 5 2 2 -5 -5 -9 -14
-7 6 3 2 -5 -4 -8 -13
-7 6 3 2 -5 -4 -8 -13
-6 6 3 1 -5 -4 -8 -13
-6 6 3 1 -5 -4 -8 -13
-6 6 3 1 -5 -4 -8 -13
-5 7 4 0 -5 -3 -7 -12
-4 7 4 0 -5 -3 -7 -12
-3 7 4 0 -5 -3 -7 -12
-3 7 4 0 -5 -3 -7 -12
-2 7 4 0 -5 -3 -7 -12
0 8 3 0 -5 -2 -6 -12
-3 7 3 0 -5 -2 -6 -12
-5 6 3 0 -4 -3 -6 -13
-6 6 3 0 -4 -3 -6 -13
-8 5 3 0 -4 -3 -6 -13
-9 4 2 -2 -3 -4 -6 -14
-7 5 3 0 -3 -3 -6 -13
-6 7 4 1 -2 -2 -5 -12
-5 8 4 2 0 -2 -5 -12
-3 9 5 3 0 0 -5 -11
-2 10 6 4 1 1 -4 -10
-3 9 6 3 0 1 -5 -10
-5 7 5 1 -2 0 -6 -11
-6 6 4 0 -3 -2 -7 -11
-7 5 4 -2 -4 -2 -8 -11
-7 4 3 -3 -5 -3 -9 -12
-5 5 4 0 -3 -2 -8 -12
-3 7 5 1 -2 0 -6 -12
0 8 5 2 0 0 -5 -12
3 9 6 4 2 1 -4 -12
4 10 7 5 3 2 -3 -11
2 10 7 5 3 2 -3 -11
1 10 6 4 3 2 -3 -10
0 10 6 4 3 2 -3 -10
-3 10 6 4 3 2 -3 -10
-4 10 5 3 3 1 -3 -9
-4 10 5 3 3 1 -3 -9
-5 9 4 4 3 1 -2 -8
-6 8 4 4 3 1 -2 -7
-6 8 4 4 3 1 -2 -7
-7 7 3 5 4 2 0 -6
-7 7 3 5 4 2 0 -6
-7 7 3 5 4 2 0 -7
-7 7 3 5 4 2 0 -7
-7 7 3 5 4 2 0 -7
-7 7 3 5 4 2 -2 -8
-5 9 4 6 5 3 0 -6
-4 10 5 7 7 4 1 -5
-3 11 5 8 8 4 2 -4
0 13 6 9 9 5 3 -2
1 14 7 10 10 6 4 0
1 14 7 10 10 6 4 0
0 13 6 11 10 6 4 0
0 12 6 11 10 6 4 0
0 12 6 11 10 6 4 0
-2 11 5 12 11 7 5 0
0 11 5 13 12 8 6 1
1 12 6 14 14 9 7 2
1 13 7 14 15 10 8 3
2 13 7 15 16 11 9 4
3 14 8 16 17 12 10 5
3 14 7 16 17 12 10 5
2 15 6 16 17 12 10 5
2 16 6 16 17 12 10 5
2 16 5 16 17 12 10 5
2 18 4 16 16 11 9 6
4 20 4 16 16 12 11 8
7 23 5 17 17 13 12 9
10 25 6 17 18 13 13 10
12 27 6 17 18 14 15 12
14 29 7 18 19 15 16 13
14 29 7 18 18 15 16 13
15 28 6 17 17 14 16 13
15 27 5 16 16 14 16 13
15 27 5 16 15 14 16 13
16 26 4 15 14 13 16 13
16 26 3 14 14 13 16 13
16 26 2 13 14 13 16 14
16 26 1 12 14 13 16 15
16 26 0 11 14 13 16 15
16 26 -2 10 13 12 16 16
16 26 -3 9 12 11 16 16
16 26 -4 8 11 10 16 16
16 26 -4 7 10 10 16 16
16 26 -5 6 9 9 16 16
17 27 -6 5 8 8 15 16
17 26 -6 4 8 8 15 16
16 24 -6 2 7 7 14 15
15 23 -6 1 6 6 13 15
15 22 -6 0 6 6 13 15
14 21 -7 -2 5 5 12 14
14 21 -7 -3 4 5 12 14
15 22 -7 -4 3 5 12 14
16 22 -7 -4 3 5 12 14
16 22 -7 -5 2 5 12 14
17 23 -7 -6 1 4 11 13
17 23 -7 -7 1 4 11 13
17 23 -7 -7 1 4 11 13
17 23 -7 -8 0 3 11 13
17 23 -7 -9 0 3 11 13
18 23 -8 -10 -2 2 11 13
17 23 -8 -10 -2 2 10 13
16 23 -8 -10 -2 2 9 12
14 23 -8 -10 -2 1 8 11
13 23 -8 -10 -2 1 7 11
12 21 -7 -10 -3 0 6 10
10 17 -7 -10 -3 -2 6 8
9 14 -7 -10 -3 -2 5 7
7 11 -7 -10 -4 -3 4 6
5 7 -7 -10 -4 -4 4 4
4 6 -6 -10 -5 -5 3 3
6 8 -4 -9 -4 -4 3 3
8 10 -3 -9 -3 -3 4 3
10 12 0 -8 -2 -2 5 3
12 14 2 -7 0 0 5 3
13 16 3 -6 1 1 6 4
11 14 3 -6 1 0 5 2
9 12 2 -6 0 0 4 1
7 10 1 -6 -2 -2 3 -2
5 8 1 -6 -2 -3 2 -4
4 6 0 -7 -3 -4 1 -5
3 6 0 -7 -3 -4 1 -5
3 6 1 -7 -3 -4 0 -5
2 6 2 -7 -3 -5 -2 -5
1 6 2 -7 -3 -5 -2 -5
0 6 3 -7 -3 -6 -3 -5
0 6 3 -7 -3 -6 -3 -5
0 5 3 -7 -3 -6 -3 -5
-2 4 3 -7 -3 -7 -4 -6
-2 4 3 -7 -3 -7 -4 -6
-3 3 2 -6 -4 -8 -5 -7
-5 2 2 -6 -4 -8 -5 -7
-6 1 2 -6 -4 -8 -6 -8
-8 -2 2 -6 -4 -9 -7 -9
-10 -3 2 -6 -4 -9 -7 -9
-11 -4 2 -7 -5 -10 -8 -10
-9 -4 2 -7 -5 -10 -8 -10
-7 -4 2 -7 -5 -10 -8 -10
-5 -4 2 -7 -5 -10 -8 -10
-3 -4 2 -7 -5 -10 -8 -10
0 -5 3 -7 -5 -9 -7 -10
-3 -4 3 -7 -5 -9 -7 -10
-4 -3 4 -7 -5 -9 -7 -10
-5 -2 5 -6 -4 -9 -6 -9
-7 0 5 -6 -4 -9 -6 -9
-8 1 6 -5 -3 -8 -5 -8
-8 1 6 -5 -2 -7 -5 -8
-7 1 6 -5 -2 -7 -5 -8
-6 1 6 -5 0 -6 -6 -8
-6 1 6 -5 1 -5 -6 -8
-5 0 6 -6 2 -4 -7 -8
-5 0 6 -6 2 -4 -7 -8
-6 -2 6 -6 2 -4 -7 -8
-7 -3 6 -6 2 -5 -7 -8
-7 -3 6 -6 2 -5 -7 -8
-8 -4 6 -5 1 -6 -6 -7
-8 -4 6 -5 1 -6 -5 -6
-8 -4 6 -4 1 -6 -4 -6
-8 -3 6 -3 2 -5 -3 -5
-8 -3 6 -3 2 -5 -2 -4
-7 -2 6 -2 3 -4 0 -3
-7 1 6 -2 3 -4 0 -3
-7 2 6 -2 3 -4 0 -3
-7 3 6 -2 3 -4 0 -3
-7 5 6 -2 3 -4 0 -3
-6 6 6 -2 4 -3 -2 -4
-6 6 7 -2 4 -3 -2 -4
-6 6 7 0 5 -2 0 -3
-5 5 8 1 6 0 1 -2
-5 5 9 1 6 0 1 -2
-4 4 10 2 7 1 2 0
-4 4 10 2 7 1 2 0
-4 4 10 2 7 1 2 0
-4 3 10 2 8 1 2 -2
-4 3 10 2 8 1 2 -2
-4 2 11 3 9 1 1 -3
-4 2 11 3 9 1 1 -3
-5 2 11 3 9 1 1 -3
-6 1 11 2 9 2 1 -3
-6 1 11 2 9 2 1 -3
-7 0 10 1 9 3 1 -2
-7 0 9 0 9 3 1 -2
-6 0 9 0 9 3 1 -2
-5 0 8 -2 9 3 1 -2
-5 0 7 -3 9 3 1 -2
-4 -2 6 -4 8 3 2 0
-4 -2 6 -4 8 3 2 0
-5 -2 6 -4 8 3 2 0
-6 -2 6 -4 8 2 2 0
-6 -2 6 -4 8 2 2 0
-7 -2 7 -4 7 1 2 0
-6 0 7 -4 7 1 2 0
-6 0 6 -4 7 1 2 0
-5 1 5 -5 6 0 2 1
-4 2 5 -5 6 0 2 1
-3 3 4 -6 5 -2 1 2
-2 4 5 -6 5 -2 1 2
1 5 6 -6 5 -2 1 2
2 6 7 -6 6 0 1 2
4 7 8 -6 6 0 1 2
5 8 9 -6 7 1 2 2
3 7 8 -6 7 0 2 1
1 5 8 -7 7 0 1 1
-2 4 7 -8 6 -2 0 0
-3 2 6 -8 6 -3 0 -2
-5 1 5 -9 5 -4 -2 -3
-4 1 5 -9 5 -4 -2 -3
-3 2 5 -9 5 -3 -2 -3
0 3 6 -9 5 -2 0 -2
1 3 6 -9 5 -2 0 -2
1 3 7 -9 6 0 1 0
-3 1 6 -9 6 0 1 0
-6 -3 5 -9 6 0 1 0
-9 -5 4 -9 5 -2 1 0
-13 -8 3 -9 5 -2 1 0
-15 -10 2 -9 4 -3 1 0
-13 -10 2 -9 4 -3 1 -2
-12 -9 2 -9 4 -4 1 -2
-10 -8 2 -10 3 -5 0 -3
-8 -8 2 -10 3 -5 0 -4
-7 -7 2 -11 2 -6 -2 -5
-7 -7 2 -11 2 -6 -2 -5
-7 -6 2 -11 2 -6 -2 -5
-7 -5 2 -11 3 -6 -2 -5
-7 -5 2 -11 3 -6 -2 -5
-6 -4 2 -10 4 -6 -3 -6
-6 -4 2 -10 4 -6 -3 -6
-6 -4 2 -9 4 -6 -3 -6
-6 -4 2 -8 3 -5 -3 -6
-6 -4 2 -8 3 -5 -3 -6
-5 -4 2 -7 2 -4 -4 -7
-3 0 4 -4 4 -2 -2 -5
1 4 6 -2 6 1 1 -3
3 7 8 1 8 3 3 0
6 10 10 3 9 4 4 1
8 13 12 5 11 6 6 3
5 10 11 4 11 6 5 3
3 8 10 3 11 5 5 3
1 5 9 1 10 4 4 2
-2 3 8 0 10 4 3 2
-4 1 7 -2 9 3 2 1
-3 2 8 0 10 3 3 1
-2 3 9 0 10 4 3 2
0 5 10 1 11 5 4 3
1 6 11 2 12 5 5 3
2 7 12 3 13 6 6 4
2 9 13 3 13 7 6 5
2 11 14 4 14 7 7 5
2 13 15 5 15 8 8 6
2 15 16 5 15 9 8 7
2 17 17 6 16 10 9 8
3 17 16 6 16 10 9 8
4 17 16 6 16 10 10 8
5 18 15 5 16 10 11 9
6 18 14 5 16 10 11 9
7 19 13 4 15 10 12 10
7 18 12 4 15 10 12 10
7 18 11 4 15 10 12 10
7 17 9 4 15 10 12 10
7 16 8 4 15 10 12 10
7 15 7 4 16 11 12 10
7 15 7 4 16 11 12 10
7 15 7 3 16 11 12 10
7 15 7 2 15 11 12 10
7 15 7 2 15 11 12 10
8 14 6 1 14 10 12 11
6 11 5 -2 12 8 10 10
4 8 5 -3 10 7 9 9
2 5 4 -5 8 5 7 8
1 2 3 -6 7 4 6 7
-2 0 2 -8 5 2 4 6
-3 -3 1 -8 4 1 3 4
-4 -6 1 -9 4 1 2 3
-6 -8 0 -10 3 0 1 1
-7 -10 -2 -10 2 -2 0 0
-8 -12 -3 -11 1 -3 -2 -3
-7 -11 -3 -11 1 -3 -2 -3
-7 -11 -3 -11 1 -3 -2 -3
-6 -10 -3 -10 1 -3 -2 -3
-5 -9 -3 -10 1 -3 -2 -3
-4 -8 -2 -9 1 -4 -3 -2
-5 -10 -2 -9 1 -4 -3 -2
-6 -11 -2 -9 0 -5 -3 -3
-7 -13 -3 -9 -2 -6 -4 -4
-8 -14 -3 -9 -2 -6 -4 -4
-9 -16 -4 -8 -3 -7 -5 -5
-9 -16 -4 -8 -3 -7 -5 -5
-9 -15 -4 -8 -3 -7 -5 -5
-9 -14 -3 -8 -3 -7 -5 -6
-9 -14 -3 -8 -3 -7 -5 -6
-8 -13 -2 -8 -3 -8 -6 -7
-7 -13 -2 -8 -3 -8 -6 -7
-6 -13 -3 -8 -3 -8 -6 -7
-5 -13 -4 -8 -3 -8 -6 -7
-4 -13 -4 -8 -3 -8 -6 -7
-3 -14 -5 -7 -3 -7 -5 -6
-4 -14 -5 -7 -3 -7 -5 -6
-6 -14 -5 -7 -3 -8 -5 -6
-7 -15 -5 -8 -4 -9 -6 -7
-9 -15 -5 -8 -4 -9 -6 -7
-10 -16 -5 -9 -5 -10 -7 -8
-10 -16 -5 -9 -5 -10 -7 -8
-10 -16 -5 -8 -5 -10 -7 -8
-9 -15 -4 -8 -5 -10 -7 -8
-9 -15 -4 -7 -5 -10 -7 -8
-8 -14 -3 -6 -5 -10 -7 -7
-8 -14 -3 -5 -5 -10 -7 -7
-8 -13 -3 -4 -5 -10 -7 -7
-8 -13 -3 -3 -4 -10 -7 -6
-8 -12 -3 0 -4 -10 -7 -6
-9 -11 -3 1 -3 -9 -7 -5
-9 -11 -3 1 -3 -9 -7 -5
-9 -11 -3 1 -3 -9 -7 -6
-9 -12 -3 1 -3 -9 -7 -6
-9 -12 -3 1 -3 -9 -7 -7
-8 -13 -2 4 1 -9 -7 -8
-8 -13 7 15 8 -4 -7 -8
-9 -13 14 25 16 2 -7 -8
-9 -14 22 36 23 7 -7 -8
-10 -14 29 47 30 12 -7 -8
-10 -14 36 58 40 20 -2 -5
-3 -9 42 70 56 35 15 7
4 -4 48 82 70 51 30 18
10 1 53 95 86 66 46 29
16 6 58 107 100 81 61 40
23 11 56 110 109 94 76 53
32 15 35 88 103 99 91 68
42 19 16 65 97 104 104 85
51 23 -5 43 90 109 118 100
60 28 -25 20 84 114 133 115
64 28 -44 -6 66 106 133 119
51 15 -58 -38 25 66 97 94
37 2 -72 -71 -16 25 61 69
24 -12 -87 -104 -57 -15 25 44
11 -25 -102 -137 -98 -56 -11 19
1 -34 -112 -160 -129 -88 -39 -3
-4 -31 -113 -163 -137 -98 -52 -14
-9 -29 -114 -166 -144 -109 -63 -25
-13 -27 -115 -170 -152 -120 -75 -36
-17 -24 -116 -173 -160 -131 -87 -48
-21 -23 -115 -171 -163 -137 -95 -56
-18 -26 -108 -155 -150 -127 -90 -56
-16 -30 -100 -140 -137 -116 -85 -56
-14 -34 -93 -124 -123 -106 -79 -56
-11 -38 -86 -109 -110 -96 -74 -56
-9 -40 -77 -94 -97 -86 -68 -55
-8 -36 -67 -79 -83 -75 -60 -49
-7 -32 -57 -65 -71 -65 -53 -43
-6 -28 -47 -51 -59 -55 -45 -36
-4 -24 -36 -36 -46 -45 -36 -31
-3 -20 -27 -25 -35 -35 -30 -26
-4 -16 -24 -20 -31 -31 -26 -23
-4 -12 -20 -15 -26 -27 -23 -21
-5 -8 -16 -10 -21 -23 -19 -18
-6 -3 -12 -5 -17 -18 -16 -15
-7 1 -9 0 -13 -15 -13 -13
-7 4 -8 2 -12 -14 -13 -13
-6 7 -8 4 -10 -13 -12 -13
-6 10 -7 6 -9 -12 -12 -12
-5 13 -6 8 -7 -11 -11 -12
-4 16 -5 10 -6 -10 -10 -11
-4 13 -4 10 -6 -10 -10 -11
-5 11 -4 10 -6 -10 -9 -11
-5 9 -3 10 -5 -10 -9 -11
-6 6 -2 10 -5 -10 -8 -11
-7 4 0 10 -4 -9 -7 -12
-7 4 0 10 -4 -9 -7 -12
-8 3 0 11 -4 -9 -7 -12
-8 3 0 11 -4 -9 -8 -12
-9 2 0 12 -4 -9 -8 -12
-10 1 -2 13 -3 -8 -9 -11
-10 1 -2 13 -3 -8 -9 -11
-10 1 -2 13 -3 -8 -9 -11
-10 1 -2 13 -3 -8 -9 -11
-10 1 -2 13 -3 -8 -9 -11
-10 1 -2 12 -3 -8 -8 -11
-10 1 0 13 -3 -8 -8 -11
-10 1 0 13 -2 -7 -8 -10
-9 1 1 14 -2 -7 -7 -10
-9 1 2 15 0 -6 -7 -9
-8 2 3 16 1 -5 -6 -8
-8 2 3 16 1 -5 -6 -8
-7 3 3 16 1 -5 -6 -8
-7 3 3 16 0 -5 -7 -8
-6 4 3 16 0 -5 -7 -8
-5 5 2 15 -2 -6 -8 -9
-5 5 3 16 0 -5 -7 -8
-5 5 3 17 2 -4 -6 -8
-6 4 4 18 3 -3 -5 -7
-6 4 5 19 4 -2 -4 -6
-7 3 6 20 6 0 -3 -5
-7 3 6 18 5 0 -3 -5
-7 3 5 17 5 0 -3 -5
-7 3 5 15 4 -2 -3 -6
-7 3 4 14 3 -2 -3 -6
-6 3 3 12 2 -3 -4 -7
-6 3 3 11 2 -3 -4 -7
-6 3 3 10 3 -3 -4 -7
-7 2 3 9 3 -3 -4 -7
-7 2 3 7 4 -3 -4 -7
-8 1 2 6 5 -4 -5 -8
-7 2 2 6 5 -4 -5 -8
-7 2 2 6 5 -4 -5 -8
-6 3 3 6 5 -3 -4 -7
-5 4 3 6 5 -3 -4 -7
-4 5 4 5 5 -2 -3 -6
-4 5 4 5 5 -2 -3 -6
-4 5 4 5 5 -2 -3 -6
-4 5 4 5 5 -2 -3 -6
-4 5 4 5 5 -2 -3 -6
-5 4 4 4 5 -2 -3 -6
-5 4 4 4 5 -2 -3 -6
-6 4 4 4 5 -2 -3 -6
-6 4 4 4 6 -2 -3 -7
-7 4 4 4 6 -2 -3 -7
-8 3 3 3 7 0 -3 -8
-8 4 3 3 7 0 -3 -8
-7 5 3 4 8 0 -3 -7
-6 6 3 5 8 1 -2 -7
-5 8 3 6 9 1 -2 -6
-4 9 4 7 10 2 0 -5
-4 9 4 7 10 2 0 -5
-4 9 4 7 10 3 1 -4
-4 9 4 7 11 4 2 -3
-4 9 4 7 11 5 3 -2
-4 10 5 8 12 6 4 0
-3 10 5 8 12 6 4 0
-2 11 5 8 12 6 5 1
0 11 6 9 13 6 5 1
1 12 6 9 13 6 6 2
2 13 7 10 14 7 7 3
2 13 7 10 14 8 7 3
2 13 7 10 15 9 8 4
2 13 8 11 15 10 9 5
2 13 8 11 16 11 10 6
1 14 9 12 17 12 11 7
1 14 9 12 17 12 11 7
1 13 9 12 17 12 11 7
1 13 9 12 17 12 11 6
1 12 9 12 17 12 11 6
1 11 8 12 17 11 10 5
1 11 8 12 17 11 10 5
1 11 8 12 17 11 10 5
1 11 7 11 17 12 11 5
1 11 7 11 17 12 11 5
1 12 6 10 17 13 12 6
2 12 6 10 17 14 12 7
3 13 6 10 18 15 13 9
4 14 6 11 18 16 14 11
5 15 6 11 19 17 15 12
6 16 7 12 20 18 16 14
8 18 6 12 20 18 16 14
9 19 5 12 20 18 17 14
11 21 4 12 20 18 17 15
13 23 3 12 20 18 18 15
15 25 2 12 20 18 19 16
15 25 2 12 20 18 19 16
15 26 2 11 20 18 19 16
15 26 2 11 19 18 19 16
15 27 2 10 19 18 19 16
16 28 2 9 18 18 20 17
16 27 2 8 17 18 20 17
15 25 1 6 16 18 20 17
15 24 0 5 15 17 20 18
14 23 -2 4 14 17 20 18
13 21 -3 2 13 16 20 19
14 22 -3 2 13 16 20 19
15 23 -4 2 12 15 20 19
16 24 -4 2 12 15 19 19
17 25 -5 2 11 14 19 19
18 26 -6 1 10 13 18 20
18 25 -6 0 9 12 18 20
19 24 -7 -2 8 11 17 20
20 23 -8 -3 7 10 16 20
21 22 -9 -4 6 9 15 20
22 21 -10 -5 5 8 14 19
21 21 -9 -5 5 8 14 19
19 21 -8 -5 5 8 14 18
17 21 -7 -5 5 8 14 17
16 21 -5 -5 5 8 14 16
14 22 -4 -6 4 7 14 15
14 22 -4 -6 4 7 14 14
14 21 -4 -6 4 7 13 13
13 20 -4 -6 4 7 12 12
13 19 -4 -6 4 7 11 10
12 18 -4 -5 4 6 10 9
10 16 -4 -5 4 6 9 9
8 13 -4 -5 4 5 8 8
6 11 -3 -5 3 4 7 7
4 8 -3 -5 3 3 5 6
2 6 -2 -4 2 2 4 5
2 6 -2 -4 2 2 4 5
2 6 -2 -4 3 2 4 5
2 5 -2 -4 3 2 4 5
2 5 -2 -4 4 2 4 5
3 4 0 -5 5 2 5 4
1 4 0 -5 5 2 5 3
0 4 0 -5 4 2 4 2
-3 4 0 -4 3 1 3 1
-5 4 0 -4 2 1 2 -2
-7 4 1 -3 1 0 1 -3
-6 4 1 -3 1 0 1 -3
-4 4 1 -3 1 0 0 -4
-3 3 1 -4 1 -2 0 -4
-2 3 1 -4 1 -2 -2 -5
1 2 0 -5 0 -3 -3 -6
1 1 0 -5 0 -3 -3 -6
0 -2 1 -5 0 -3 -3 -6
-2 -4 1 -5 0 -3 -4 -6
-3 -5 2 -5 0 -3 -4 -6
-4 -7 3 -4 0 -4 -5 -7
-5 -7 3 -5 -2 -4 -5 -7
-7 -7 2 -6 -3 -5 -6 -8
-9 -7 1 -7 -4 -5 -6 -9
-10 -7 0 -8 -5 -6 -7 -10
-12 -7 -2 -10 -7 -7 -8 -11
-11 -7 -2 -9 -7 -7 -8 -11
-9 -6 0 -8 -7 -7 -8 -11
-8 -5 0 -7 -7 -7 -8 -11
-7 -4 1 -6 -7 -7 -8 -11
-5 -3 2 -5 -6 -6 -7 -10
-5 -3 2 -5 -6 -6 -7 -10
-5 -3 2 -5 -6 -6 -7 -10
-5 -3 2 -5 -6 -6 -7 -10
-5 -3 2 -5 -6 -6 -7 -10
-4 -3 2 -5 -5 -5 -6 -9
-4 -4 2 -5 -5 -5 -6 -9
-5 -5 2 -4 -5 -5 -6 -9
-6 -6 2 -4 -5 -5 -6 -9
-7 -7 2 -3 -5 -5 -6 -9
-8 -8 3 -2 -4 -5 -7 -10
-7 -6 3 0 -4 -4 -6 -10
-5 -3 4 2 -3 -3 -5 -9
-3 0 5 3 -2 -2 -4 -9
-2 2 6 4 0 0 -3 -8
1 5 7 6 1 1 -2 -7
0 4 7 6 1 1 -2 -7
-2 3 7 6 1 1 -2 -6
-3 2 7 6 2 2 -2 -6
-4 1 7 6 2 2 -2 -5
-6 -2 7 7 3 3 0 -4
-6 -2 7 7 3 3 0 -4
-6 -2 7 7 3 3 0 -4
-6 -2 7 7 4 4 1 -4
-6 -2 7 7 4 4 1 -4
-5 0 8 8 5 5 2 -3
-5 0 8 8 5 5 2 -3
-5 0 8 8 5 5 2 -3
-5 0 8 8 5 5 2 -3
-5 0 8 8 5 5 2 -3
-5 0 9 8 5 5 3 -4
-5 0 9 8 5 5 3 -4
-5 1 10 8 5 5 3 -4
-4 2 10 9 6 6 3 -4
-4 3 11 9 6 6 3 -4
-3 4 12 10 7 7 4 -3
-4 4 12 10 7 7 4 -3
-5 3 12 9 7 7 4 -3
-6 2 11 9 7 7 4 -3
-7 1 11 8 7 7 4 -3
-8 0 10 7 8 8 5 -2
-8 -3 10 6 7 7 5 -2
-8 -4 9 5 6 6 4 -3
-8 -6 8 4 5 5 3 -4
-8 -8 7 3 4 4 2 -5
-8 -10 6 2 3 3 1 -6
-7 -8 6 3 3 3 1 -6
-6 -5 6 4 4 3 2 -5
-5 -3 7 5 5 3 2 -5
-4 0 7 6 6 3 3 -4
-2 3 8 8 7 4 4 -3
-2 3 8 7 6 4 4 -3
-3 2 7 6 5 4 4 -3
-3 1 6 5 4 3 4 -3
-4 0 5 4 3 3 4 -3
-5 -2 4 2 2 2 3 -4
-5 -2 4 2 2 2 3 -4
-5 -2 5 2 3 2 3 -4
-4 0 6 2 3 2 3 -4
-4 0 7 2 4 2 3 -4
-3 1 8 3 5 3 4 -3
-3 1 8 3 5 3 4 -3
-2 2 8 3 5 3 4 -3
-2 3 8 3 6 3 4 -3
0 4 8 3 6 3 4 -3
1 5 7 3 7 4 4 -2
1 4 7 3 7 4 4 -2
0 3 7 3 6 3 4 -2
0 2 7 3 6 3 3 -3
-2 1 7 3 5 2 3 -3
-3 0 6 2 4 1 2 -4
-4 0 6 2 4 1 2 -4
-5 0 5 1 3 1 2 -4
-6 -2 5 0 2 0 1 -4
-7 -2 4 -2 1 0 1 -4
-8 -3 3 -3 0 -2 0 -5
-8 -3 3 -3 0 -2 0 -5
-7 -3 3 -3 0 -2 0 -5
-7 -2 3 -3 0 -3 0 -5
-6 -2 3 -3 0 -3 0 -5
-5 0 2 -2 -2 -4 0 -5
-5 0 2 -2 -2 -4 0 -5
-5 -2 2 -2 -2 -4 0 -5
-5 -2 2 -3 -2 -4 0 -4
-5 -3 2 -3 -2 -4 0 -4
-6 -4 1 -4 -2 -3 -2 -3
-6 -4 1 -4 -2 -3 -2 -3
-6 -4 2 -4 -2 -3 -2 -3
-6 -4 3 -4 -2 -3 0 -3
-6 -4 4 -4 -2 -3 0 -3
-6 -4 5 -3 -2 -3 1 -4
-6 -4 5 -3 -2 -3 1 -4
-6 -3 5 -3 -2 -2 1 -4
-6 -3 5 -3 -2 -2 1 -4
-6 -2 5 -3 -2 0 1 -4
-7 0 5 -3 -3 1 0 -3
-7 0 5 -3 -3 1 0 -3
-7 0 6 -2 -2 1 0 -3
-7 0 7 0 -2 1 1 -2
-7 0 8 1 0 1 1 -2
-7 -2 9 2 1 2 2 0
-6 1 9 2 1 2 3 0
-4 3 10 3 2 2 4 1
-3 5 11 3 2 3 6 2
0 7 12 4 3 3 7 3
2 9 13 5 4 4 9 4
1 9 13 5 4 4 9 4
0 8 13 6 4 4 9 4
-2 8 14 6 4 5 9 4
-3 7 14 7 4 5 9 4
-4 6 15 8 5 6 8 4
-4 8 15 8 5 6 8 4
-3 10 15 9 6 7 9 5
-2 12 16 9 6 8 10 5
0 14 16 10 7 9 11 6
1 16 17 11 8 10 12 7
2 16 16 11 8 10 12 8
3 16 15 11 9 10 13 9
5 15 13 10 9 11 13 10
6 15 12 10 10 11 14 11
8 14 10 9 11 12 15 12
8 14 10 9 11 12 15 12
8 15 10 9 11 12 15 12
7 15 10 9 11 13 15 12
7 16 10 9 11 13 15 12
6 17 9 10 12 14 16 12
6 17 9 9 11 13 15 11
6 16 8 8 10 11 14 10
6 16 8 7 8 10 12 9
6 15 7 6 7 8 11 8
7 14 6 4 5 6 9 6
6 12 5 4 4 6 9 6
5 10 4 4 3 6 9 5
3 8 3 4 2 5 8 5
2 6 2 4 1 5 8 4
0 4 1 3 -2 4 7 3
-2 3 1 3 -2 4 6 2
-3 1 1 4 -2 3 5 1
-4 0 2 4 -2 2 3 0
-5 -3 2 5 -2 1 2 -2
-6 -5 3 6 -3 0 0 -3
-6 -5 3 6 -3 0 0 -3
-5 -5 2 5 -3 -2 0 -3
-4 -5 2 4 -4 -2 0 -4
-3 -5 1 3 -4 -3 0 -4
-2 -6 0 2 -5 -4 0 -5
-3 -7 0 1 -5 -4 0 -5
-5 -9 0 0 -6 -5 -2 -5
-7 -10 0 -2 -6 -5 -3 -6
-9 -12 0 -3 -7 -6 -4 -6
-11 -14 -2 -5 -8 -7 -5 -7
-11 -14 -2 -5 -8 -7 -5 -7
-10 -14 -2 -5 -8 -7 -5 -7
-9 -14 -3 -6 -9 -7 -5 -7
-8 -14 -3 -6 -9 -7 -5 -7
-7 -13 -4 -7 -10 -7 -4 -8
-7 -13 -4 -7 -10 -7 -4 -8
-7 -14 -4 -7 -10 -7 -4 -8
-7 -14 -3 -7 -10 -7 -4 -8
-7 -15 -3 -7 -10 -7 -4 -8
-8 -16 -2 -8 -10 -7 -5 -7
-8 -16 -2 -8 -10 -7 -5 -7
-8 -16 -2 -8 -10 -7 -5 -7
-8 -15 -2 -8 -10 -7 -5 -7
-8 -15 -2 -8 -10 -7 -5 -7
-9 -14 0 -7 -9 -7 -4 -6
-9 -14 0 -7 -9 -7 -4 -6
-8 -13 0 -7 -9 -7 -4 -6
-8 -13 0 -7 -9 -7 -4 -7
-7 -12 0 -7 -9 -7 -4 -7
-6 -11 0 -7 -10 -7 -4 -8
-6 -11 0 -7 -10 -7 -4 -8
-7 -12 0 -7 -10 -7 -4 -8
-8 -12 0 -7 -10 -7 -4 -8
-9 -13 0 -7 -10 -7 -4 -8
-10 -14 0 -7 -10 -6 -4 -9
-10 -14 3 -4 -9 -6 -4 -10
-10 -14 6 0 -7 -6 -5 -11
-9 -14 9 3 -5 -6 -5 -12
-9 -14 12 6 -3 -6 -6 -13
-8 -15 16 10 0 -6 -7 -14
-9 -14 22 21 10 3 -2 -11
-10 -13 29 32 20 12 5 -8
-11 -11 35 44 30 21 11 -4
-12 -10 43 55 40 30 17 0
-13 -8 50 67 52 39 23 4
-5 1 48 68 62 54 38 18
4 9 46 70 72 68 55 32
12 17 43 72 82 84 71 47
20 25 40 74 93 98 88 61
29 34 37 76 103 113 104 76
36 32 15 47 86 107 104 80
44 30 -9 17 67 100 104 85
51 28 -32 -13 50 93 104 89
58 26 -56 -43 31 86 104 93
66 24 -79 -72 13 78 104 97
52 12 -91 -100 -25 36 67 70
37 0 -102 -128 -64 -6 30 43
23 -12 -114 -154 -102 -48 -8 15
9 -24 -126 -182 -141 -90 -45 -13
-6 -36 -137 -210 -179 -132 -81 -39
-7 -35 -131 -199 -172 -129 -82 -43
-8 -32 -122 -188 -163 -124 -82 -46
-9 -30 -115 -177 -155 -120 -81 -49
-10 -27 -107 -165 -147 -116 -81 -52
-10 -25 -100 -154 -139 -112 -81 -55
-10 -27 -92 -140 -127 -102 -75 -56
-9 -31 -83 -127 -114 -93 -70 -56
-8 -34 -76 -112 -102 -83 -64 -55
-7 -38 -68 -99 -90 -74 -59 -55
-6 -41 -61 -86 -78 -65 -54 -55
-4 -36 -51 -72 -66 -55 -45 -47
-3 -30 -40 -60 -54 -45 -36 -38
-2 -23 -30 -48 -41 -34 -28 -30
0 -17 -20 -35 -29 -24 -20 -22
1 -11 -10 -23 -18 -14 -12 -15
0 -10 -8 -21 -17 -13 -11 -14
-3 -11 -7 -19 -16 -12 -11 -14
-5 -12 -6 -18 -15 -11 -10 -14
-7 -13 -5 -16 -14 -10 -10 -14
-9 -14 -4 -15 -14 -10 -10 -14
-10 -15 -3 -14 -12 -9 -9 -13
-9 -14 -2 -13 -11 -8 -8 -12
-8 -13 0 -12 -9 -7 -7 -12
-7 -12 1 -11 -8 -6 -6 -11
-6 -11 2 -10 -7 -5 -6 -11
-5 -10 3 -9 -6 -4 -5 -10
-5 -9 3 -8 -5 -3 -4 -9
-5 -8 4 -7 -5 -2 -4 -9
-5 -7 4 -6 -4 0 -3 -8
-5 -6 4 -6 -4 1 -3 -8
-4 -5 5 -5 -3 2 -2 -7
-5 -6 5 -5 -3 2 -2 -7
-6 -7 5 -5 -3 2 -2 -7
-7 -8 5 -5 -3 2 -2 -7
-7 -8 5 -5 -3 2 -2 -7
-8 -9 6 -4 -3 2 -2 -7
-8 -9 6 -5 -3 2 -2 -7
-8 -9 5 -5 -3 2 -2 -7
-8 -9 5 -6 -3 2 -2 -7
-8 -9 5 -6 -3 2 -2 -7
-8 -8 4 -7 -3 2 -3 -7
-8 -8 4 -6 -2 2 -3 -7
-8 -8 5 -6 0 2 -3 -6
-8 -8 5 -5 1 2 -3 -6
-8 -8 5 -5 1 2 -3 -6
-9 -7 6 -4 2 2 -2 -5
-9 -8 6 -4 1 2 -2 -5
-9 -9 6 -4 1 2 -3 -5
-9 -10 6 -4 0 2 -3 -5
-9 -11 6 -4 0 2 -3 -5
-10 -12 6 -3 -2 3 -4 -5
-9 -11 6 -3 -2 3 -4 -5
-9 -10 6 -3 0 3 -3 -5
-8 -9 6 -3 0 3 -3 -5
-8 -9 6 -3 0 3 -3 -5
-7 -8 6 -3 1 4 -2 -4
-7 -7 6 -3 1 4 -2 -3
-7 -6 6 -3 1 4 0 -3
-7 -5 6 -3 1 4 0 -2
-7 -5 6 -3 1 4 0 -2
-7 -4 6 -2 2 5 1 1
-8 -5 6 -2 2 5 1 2
-9 -6 6 0 2 5 1 3
-10 -7 6 0 2 5 1 4
-11 -8 6 0 2 5 1 5
-11 -9 7 1 1 4 1 6
-9 -8 7 1 2 4 1 6
-8 -7 7 2 2 5 1 6
-6 -6 7 2 3 5 1 6
-5 -5 7 2 3 5 1 6
-4 -4 8 3 4 6 2 7
-3 -4 9 4 5 6 3 7
-2 -3 9 4 5 7 3 7
0 -3 10 5 6 7 4 7
1 -3 10 5 6 7 4 7
1 -2 11 6 7 8 5 8
0 -2 11 6 7 8 5 8
-2 -2 10 5 8 8 4 7
-3 -2 10 5 8 8 4 7
-4 -2 10 5 8 8 4 7
-5 -2 9 4 9 8 3 6
-5 -2 9 4 9 8 3 6
-6 -2 9 4 9 8 3 6
-6 -2 9 4 9 8 3 6
-6 -2 9 4 9 8 3 6
-7 -3 9 6 9 8 4 7
-6 -3 9 7 10 9 5 7
-5 -2 10 9 10 9 6 7
-4 -2 10 10 11 10 7 7
-4 -2 10 11 11 10 7 7
-3 1 11 12 12 11 8 6
-2 2 11 13 13 12 8 6
-2 3 11 13 14 13 9 7
0 4 11 14 15 14 9 7
0 5 11 14 16 14 9 7
1 6 12 15 17 15 10 8
2 6 12 15 17 15 10 9
2 6 11 15 17 15 10 9
3 6 11 15 17 15 10 10
3 6 11 15 17 15 10 10
4 6 10 16 17 15 10 11
3 6 10 16 17 15 11 11
3 6 10 16 18 16 12 11
2 6 10 16 18 16 13 11
2 6 10 16 18 16 13 11
1 6 10 16 19 17 14 13
1 6 10 16 19 18 15 14
2 7 9 16 19 18 15 15
2 7 9 16 19 19 16 16
2 7 9 16 19 19 16 17
5 10 8 17 20 20 17 18
7 12 9 18 21 21 18 18
9 14 9 19 21 22 19 19
12 16 10 20 22 23 20 19
14 18 10 21 22 24 21 19
15 18 10 21 22 25 22 20
14 17 9 19 21 24 22 21
13 16 7 18 20 23 22 21
12 15 6 16 19 22 22 22
12 14 5 15 18 22 22 22
11 13 4 14 17 21 21 23
11 13 3 13 17 21 21 23
11 13 3 13 16 20 21 23
11 13 2 12 16 20 21 23
11 13 2 12 16 20 21 23
13 13 1 10 15 19 21 22
14 14 0 8 14 19 21 23
16 15 0 6 13 18 20 23
17 16 -2 4 12 18 20 24
18 17 -2 3 12 18 20 24
19 18 -3 2 11 17 19 25
20 19 -2 2 11 17 19 26
21 20 -2 2 11 17 19 27
22 21 0 2 11 17 19 28
22 21 0 2 11 17 19 28
22 21 1 3 10 16 19 29
20 19 0 3 9 15 18 28
19 17 -2 3 8 14 17 27
17 16 -3 3 7 13 16 26
16 14 -4 3 6 13 16 26
15 12 -5 4 5 12 15 25
14 11 -5 4 5 12 14 24
13 10 -5 4 5 11 13 24
12 9 -5 4 5 11 12 23
11 8 -5 4 5 11 12 23
10 7 -5 5 4 10 11 22
11 8 -4 6 4 10 11 21
11 9 -3 7 4 10 11 20
12 10 -2 8 4 10 11 19
12 10 -2 8 4 10 11 18
12 10 0 9 5 9 11 17
11 9 0 9 5 9 10 16
9 7 1 8 5 8 10 15
8 6 1 8 5 8 9 14
7 5 1 8 5 8 9 13
5 3 2 6 5 7 7 11
2 0 2 5 4 6 5 10
0 -3 1 3 3 5 3 8
-3 -5 1 2 2 4 2 7
-5 -7 1 1 1 3 0 6
-5 -8 0 0 0 2 -2 5
-4 -7 0 0 0 2 -2 5
-3 -6 0 -2 0 1 -2 5
-2 -5 0 -2 0 1 -2 5
0 -5 0 -2 0 1 -2 5
1 -4 0 -3 0 0 -3 5
1 -4 1 -3 0 0 -2 6
1 -4 1 -2 1 1 -2 7
1 -4 2 -2 1 1 0 8
1 -4 2 -2 1 1 0 8
0 -4 3 0 2 2 1 9
-2 -5 3 -2 2 2 1 8
-2 -5 3 -3 1 1 0 7
-3 -6 3 -4 1 1 0 6
-3 -6 3 -4 1 1 0 6
-4 -7 3 -5 0 0 -2 5
-4 -7 2 -5 -2 0 -3 5
-3 -7 2 -5 -2 -2 -3 5
-3 -7 1 -5 -3 -2 -4 5
-3 -7 1 -5 -3 -2 -4 5
-2 -8 0 -6 -4 -3 -5 4
-3 -8 0 -6 -4 -3 -5 4
-4 -9 1 -5 -4 -3 -5 4
-5 -9 1 -5 -4 -3 -5 4
-6 -9 1 -5 -4 -3 -5 4
-6 -9 2 -4 -3 -4 -5 3
-5 -8 2 -3 -3 -4 -5 3
-4 -7 3 -3 -3 -3 -5 3
-3 -6 3 -2 -3 -3 -5 3
-2 -5 3 -2 -3 -3 -5 3
0 -4 4 0 -2 -2 -4 3
-2 -5 4 1 0 -2 -4 3
-3 -5 4 1 0 -2 -3 3
-4 -6 4 2 1 -2 -3 3
-5 -6 4 2 1 -2 -3 3
-6 -7 4 3 2 0 -2 4
-6 -7 5 3 2 1 -2 4
-6 -7 5 3 3 1 -2 4
-6 -7 6 3 3 2 -2 4
-6 -7 6 3 3 2 -2 4
-5 -6 7 4 4 3 0 4
-5 -6 7 4 4 3 0 4
-5 -6 7 4 4 3 0 4
-5 -6 7 4 4 3 0 4
-5 -6 7 4 4 3 0 4
-6 -7 7 5 5 3 0 3
-6 -7 7 5 5 3 0 3
-6 -7 7 5 5 3 0 3
-6 -7 7 5 5 3 0 3
-6 -7 7 5 5 3 0 3
-6 -6 8 6 5 4 -2 3
-6 -5 9 7 6 5 0 4
-5 -4 10 8 7 5 1 5
-5 -3 11 9 8 6 2 6
-5 -2 11 9 8 6 3 7
-4 0 12 10 9 7 4 8
-4 0 12 11 9 7 4 8
-5 0 11 11 9 7 4 9
-5 0 11 12 9 7 4 9
-5 0 11 12 9 7 4 9
-6 -2 10 13 8 7 4 10
-6 -2 10 14 8 7 4 10
-5 -2 11 14 9 7 4 10
-5 -2 11 15 9 7 4 10
-5 -2 11 15 9 7 4 10
-4 0 12 16 10 8 5 10
-4 0 11 14 10 7 4 10
-5 -2 10 13 9 7 4 9
-5 -2 9 12 9 6 3 9
-5 -2 9 11 9 6 3 9
-6 -3 8 10 8 5 2 8
-6 -4 8 10 8 5 1 7
-7 -5 8 10 8 5 1 7
-7 -6 8 10 8 5 0 6
-7 -7 8 10 8 5 0 6
-8 -8 7 11 8 4 -2 5
-8 -7 7 11 8 4 -2 5
-7 -7 7 10 7 3 -2 5
-7 -6 7 10 7 3 -2 5
-7 -6 7 10 7 3 -2 5
-6 -5 6 9 6 2 0 6
-7 -5 6 9 6 3 0 6
-7 -5 7 9 7 3 1 6
-8 -5 7 9 7 4 1 6
-8 -5 7 9 7 4 1 6
-9 -5 8 10 8 5 2 7
-7 -4 8 9 8 5 2 7
-6 -3 8 8 7 4 1 6
-5 -2 8 7 7 4 1 6
-4 -2 8 7 7 4 1 6
-3 0 8 6 6 3 0 5
-4 -2 7 6 6 3 0 5
-4 -2 6 5 6 3 0 5
-5 -3 5 5 6 3 0 5
-5 -3 5 5 6 3 0 5
-6 -4 4 4 5 3 -2 6
-6 -5 4 3 4 3 -2 6
-6 -5 4 2 3 2 -2 5
-6 -6 4 1 2 2 -2 5
-6 -6 4 1 2 2 -2 5
-5 -7 3 0 1 1 -3 4
-4 -7 4 0 2 1 -3 4
-4 -6 4 1 2 1 -3 4
-3 -6 5 1 3 1 -3 4
-3 -6 5 1 3 1 -3 4
-2 -5 6 2 4 2 -2 5
-2 -5 6 2 4 2 -2 5
-3 -4 6 2 4 2 -2 6
-3 -4 6 2 4 2 -2 6
-3 -4 6 2 4 2 -2 6
-4 -3 5 1 4 2 -2 7
-4 -4 5 0 3 1 -2 6
-4 -4 4 0 2 1 -3 6
-4 -5 4 -2 1 0 -3 5
-4 -5 4 -2 1 0 -3 5
-6 -7 3 -3 0 -2 -4 4
-7 -8 3 -3 0 -2 -4 4
-8 -10 3 -3 0 -2 -5 3
-10 -12 3 -3 0 -2 -5 3
-11 -13 3 -3 0 -2 -5 3
-12 -14 2 -3 -2 -3 -6 2
-10 -12 2 -3 -2 -3 -6 2
-9 -11 1 -3 -2 -3 -6 2
-8 -10 1 -3 -2 -3 -6 2
-7 -9 1 -3 -2 -3 -6 2
-6 -7 1 -2 0 -2 -5 2
-6 -6 3 0 1 0 -4 3
-5 -5 6 1 1 0 -4 4
-5 -3 8 2 2 1 -3 5
-5 -2 10 2 2 1 -3 5
-4 0 11 3 3 2 -2 6
-5 -2 10 4 3 2 -2 6
-6 -3 9 5 3 2 -2 5
-7 -4 8 6 3 2 -2 5
-7 -4 7 6 3 2 -2 5
-6 -2 7 8 4 3 -2 5
-3 3 10 10 7 6 1 6
1 7 13 13 9 8 4 8
5 11 15 15 12 11 6 10
8 15 18 17 14 13 8 11
8 16 18 18 15 14 9 12
5 13 16 16 14 12 8 10
2 10 15 15 13 11 7 9
0 8 13 14 12 10 6 8
-4 5 11 13 11 9 6 7
-4 5 10 12 10 8 5 6
-2 6 10 13 10 8 6 7
1 8 9 14 11 9 7 8
3 10 9 15 11 9 8 9
5 11 9 15 11 9 8 9
6 12 8 15 12 10 9 10
6 12 7 14 12 10 8 10
7 11 6 13 11 9 8 10
7 11 5 11 11 9 7 10
7 11 4 10 11 9 7 10
8 10 3 9 10 8 6 9
7 9 3 9 10 7 6 8
6 9 3 9 10 7 5 8
5 8 3 9 10 6 5 7
4 8 3 9 10 6 5 7
2 6 2 8 9 5 4 6
0 3 2 7 8 4 3 4
-2 0 2 6 7 3 2 3
-4 -3 2 6 6 3 1 2
-6 -6 2 5 5 2 0 1
-7 -7 1 4 3 0 -2 0
-7 -7 0 3 2 -2 -4 -2
-7 -7 -2 2 1 -3 -5 -3
-7 -7 -3 1 -2 -5 -6 -4
-7 -7 -4 0 -3 -6 -7 -5
-6 -8 -5 -2 -4 -7 -8 -6
-6 -9 -5 -2 -4 -7 -8 -6
-6 -10 -5 -3 -4 -8 -8 -7
-6 -10 -5 -3 -4 -8 -8 -7
-6 -11 -5 -3 -4 -8 -8 -7
-7 -12 -6 -4 -5 -9 -9 -8
-8 -12 -6 -4 -5 -9 -9 -8
-9 -12 -6 -4 -5 -9 -9 -8
-9 -12 -6 -4 -5 -9 -9 -8
-10 -12 -6 -4 -5 -9 -9 -8
-11 -12 -6 -5 -5 -9 -9 -9
-10 -12 -6 -5 -5 -9 -9 -9
-10 -12 -5 -4 -4 -9 -9 -8
-9 -12 -5 -4 -4 -9 -9 -8
-9 -12 -5 -4 -4 -9 -9 -8
-8 -12 -4 -3 -3 -8 -8 -7
-8 -13 -4 -4 -4 -9 -8 -8
-9 -13 -5 -4 -4 -9 -9 -8
-9 -14 -5 -5 -5 -10 -9 -9
-9 -14 -5 -5 -5 -10 -9 -9
-10 -15 -6 -6 -6 -11 -10 -10
-9 -14 -6 -6 -6 -11 -10 -10
-8 -13 -6 -6 -6 -10 -10 -10
-8 -13 -6 -6 -6 -10 -10 -10
-7 -12 -6 -6 -6 -10 -10 -10
-6 -11 -5 -5 -5 -9 -9 -10
-7 -12 -5 -5 -6 -10 -9 -11
-8 -12 -5 -6 -6 -11 -10 -11
-8 -13 -5 -6 -7 -11 -10 -12
-9 -13 -5 -6 -7 -12 -10 -12
-10 -14 -6 -7 -8 -13 -11 -13
-10 -14 -6 -6 -8 -13 -11 -13
-10 -14 -5 -6 -8 -12 -11 -13
-10 -14 -5 -5 -8 -12 -11 -13
-10 -14 -5 -5 -8 -12 -11 -13
-11 -14 -3 0 -6 -11 -11 -13
-11 -14 0 4 -3 -9 -11 -14
-11 -13 2 9 1 -8 -11 -14
-11 -13 5 14 3 -7 -11 -15
-11 -13 7 18 6 -6 -11 -15
-11 -12 13 27 14 2 -6 -14
-10 -10 20 38 24 10 0 -10
-9 -9 28 50 35 19 6 -6
-9 -7 36 60 46 27 12 -2
-8 -6 44 71 56 36 18 3
-2 -2 45 75 64 47 29 14
8 4 40 74 71 59 45 27
16 10 36 74 77 70 59 40
25 15 32 73 85 82 73 54
33 20 28 73 91 94 88 67
38 22 12 52 79 91 91 71
44 20 -10 22 58 80 87 72
48 19 -32 -8 36 70 82 73
52 17 -54 -37 15 60 78 73
56 16 -75 -67 -7 50 75 74
49 9 -90 -93 -36 20 51 58
34 -2 -101 -117 -70 -19 17 32
20 -12 -112 -142 -103 -57 -17 6
7 -22 -122 -166 -137 -95 -51 -20
-8 -32 -134 -191 -170 -134 -85 -47
-13 -34 -132 -190 -174 -141 -94 -55
-11 -30 -122 -176 -162 -133 -91 -56
-10 -26 -113 -160 -150 -126 -88 -56
-8 -23 -104 -146 -139 -117 -85 -57
-7 -19 -94 -132 -128 -109 -81 -57
-6 -20 -87 -118 -116 -101 -77 -58
-7 -25 -79 -106 -105 -92 -71 -56
-7 -30 -72 -94 -95 -83 -66 -55
-8 -36 -65 -81 -83 -75 -61 -53
-8 -41 -59 -69 -72 -66 -55 -52
-9 -39 -50 -58 -61 -57 -48 -47
-8 -32 -40 -47 -50 -48 -40 -39
-8 -26 -30 -35 -39 -38 -32 -33
-7 -19 -21 -24 -28 -29 -25 -26
-7 -13 -12 -13 -17 -19 -17 -20
-6 -10 -8 -9 -13 -16 -14 -17
-7 -10 -7 -7 -11 -15 -13 -16
-7 -10 -6 -6 -10 -14 -12 -16
-8 -10 -5 -4 -9 -14 -12 -15
-8 -10 -4 -3 -8 -13 -11 -15
-9 -10 -3 -2 -7 -12 -10 -14
-9 -10 0 1 -6 -10 -9 -13
-9 -9 1 2 -5 -9 -9 -13
-9 -9 2 3 -4 -8 -8 -12
-9 -9 3 4 -3 -7 -8 -12
-9 -8 4 5 -2 -6 -7 -11
-9 -8 4 5 -2 -6 -7 -11
-9 -8 3 4 -2 -6 -7 -11
-9 -8 3 3 -2 -6 -7 -11
-9 -8 3 3 -2 -6 -7 -11
-9 -9 2 2 -3 -7 -6 -11
-9 -9 2 3 -3 -7 -6 -11
-8 -9 3 4 -2 -6 -6 -10
-8 -9 3 4 0 -6 -6 -9
-8 -9 3 5 0 -6 -6 -9
-7 -8 4 6 1 -5 -5 -8
-7 -8 4 6 1 -5 -5 -8
-7 -8 4 6 1 -5 -5 -9
-7 -8 4 6 1 -5 -5 -10
-7 -8 4 6 1 -5 -5 -10
-8 -8 3 6 1 -5 -4 -11
-8 -8 3 6 1 -4 -4 -11
-7 -7 4 7 2 -3 -3 -10
-7 -7 5 8 3 -3 -3 -9
-7 -7 5 8 3 -2 -3 -9
-6 -6 6 9 4 0 -2 -8
-6 -6 6 9 4 0 -2 -8
-7 -6 5 8 3 0 -3 -8
-8 -6 4 7 2 0 -3 -8
-8 -6 4 7 2 0 -3 -8
-9 -7 3 6 1 0 -4 -9
-9 -7 3 6 1 0 -4 -9
-9 -8 3 6 0 0 -4 -10
-9 -8 3 6 0 0 -4 -10
-9 -8 3 6 0 0 -4 -10
-9 -9 3 7 -2 0 -5 -11
-9 -8 3 7 -2 1 -4 -11
-8 -6 3 8 0 2 -3 -10
-8 -5 3 9 1 2 -2 -9
-8 -4 3 9 1 3 0 -9
-7 -3 4 10 2 4 1 -8
-6 -3 4 10 2 4 1 -8
-5 -2 4 10 3 4 1 -8
-4 -2 4 10 3 4 1 -8
-3 -2 4 10 3 4 1 -8
-2 0 3 10 4 4 1 -7
-3 0 3 10 4 4 1 -7
-4 -2 3 10 3 4 0 -7
-5 -2 3 10 3 4 -2 -7
-6 -2 3 10 3 4 -2 -7
-7 -3 4 11 2 3 -3 -8
-7 -3 5 12 2 3 -3 -8
-6 -2 6 13 3 4 -2 -7
-6 -2 6 14 4 5 -2 -6
-6 -2 7 15 4 5 -2 -6
-5 0 8 16 5 6 0 -5
-5 0 8 16 5 6 0 -5
-6 -2 7 15 4 5 -2 -6
-6 -2 6 14 3 5 -2 -7
-6 -2 6 14 3 5 -2 -7
-7 -3 5 13 2 4 -3 -8
-6 -2 6 15 4 6 -2 -7
-5 0 7 16 6 7 1 -6
-4 0 7 18 7 9 2 -5
-3 1 8 19 9 10 3 -4
-2 2 9 20 10 11 4 -3
-2 2 9 20 10 11 4 -3
-2 2 9 19 9 10 4 -3
-2 2 9 19 9 10 4 -3
-2 2 9 19 9 10 4 -3
0 3 9 18 8 9 3 -4
0 3 9 19 8 10 3 -4
1 4 9 20 9 11 4 -3
1 5 9 20 10 11 5 -3
1 5 9 21 10 12 5 -3
2 6 8 22 11 13 6 -2
2 6 9 22 11 13 6 -2
1 6 10 21 11 13 7 -2
1 6 10 21 11 13 7 -2
1 6 11 21 11 13 7 -2
0 6 12 20 12 14 8 0
1 6 12 21 12 14 8 0
2 7 12 22 13 15 9 1
2 7 12 22 14 16 10 2
3 7 12 23 14 16 10 2
4 8 12 24 15 17 11 3
5 10 10 24 15 17 11 3
6 12 9 23 15 18 11 4
6 13 7 23 15 18 11 4
7 15 6 23 15 18 11 4
8 16 5 22 14 19 12 5
9 16 5 22 14 19 14 6
10 17 5 22 15 20 15 8
10 17 5 22 15 21 17 9
11 17 5 22 15 21 18 10
12 18 5 23 16 22 19 11
13 18 4 22 15 22 19 11
14 18 3 21 14 21 18 10
15 18 2 21 14 20 17 10
16 18 1 20 13 20 17 10
17 19 0 19 12 19 16 9
17 19 0 18 11 19 16 10
18 20 -2 16 10 19 17 11
18 21 -3 15 10 19 18 11
18 21 -3 14 9 19 18 12
19 22 -4 13 8 20 19 13
18 21 -4 12 7 18 19 13
17 20 -5 11 6 17 18 13
17 19 -5 10 5 15 17 13
16 18 -5 9 4 14 17 13
15 17 -6 8 3 13 16 12
16 17 -6 8 3 13 16 12
17 18 -6 8 3 12 16 12
18 19 -6 8 3 12 16 12
19 19 -6 8 3 12 16 12
20 20 -5 8 2 11 15 11
19 19 -5 8 0 10 14 10
18 17 -6 8 -2 9 12 9
17 16 -7 8 -4 8 11 8
16 15 -7 8 -5 7 10 7
15 14 -8 7 -6 6 9 6
15 14 -7 8 -5 6 9 6
15 15 -6 9 -4 6 9 6
15 15 -6 9 -4 6 9 6
15 15 -5 10 -3 6 9 6
16 16 -4 11 -2 7 9 6
14 16 -4 11 -2 6 8 5
13 15 -4 11 -3 5 7 4
12 14 -4 11 -4 5 7 3
10 14 -4 11 -4 4 6 2
9 13 -4 10 -5 3 5 1
9 11 -4 10 -5 3 5 1
10 10 -3 10 -4 4 5 0
10 9 -3 10 -4 5 5 0
10 7 -3 10 -4 5 5 0
11 6 -2 11 -3 6 6 -2
11 6 -2 11 -3 6 6 -2
11 6 -2 10 -3 5 5 -3
11 6 -2 9 -3 4 5 -4
11 6 -2 9 -3 4 5 -4
10 5 0 8 -3 3 4 -5
8 4 0 8 -3 3 3 -6
7 2 0 7 -4 3 2 -7
6 1 0 7 -4 3 2 -8
4 0 0 7 -4 3 1 -9
3 -2 -2 6 -5 2 0 -10
2 -4 -2 5 -6 1 0 -10
0 -6 -2 4 -7 0 0 -10
-2 -7 -2 4 -7 -2 0 -10
-3 -9 -2 3 -8 -3 0 -10
-4 -10 -2 2 -9 -4 -2 -10
-4 -10 -2 2 -9 -4 -3 -10
-4 -9 -2 2 -9 -4 -4 -11
-4 -8 -2 2 -9 -4 -5 -11
-4 -8 -2 2 -9 -4 -6 -11
-3 -7 -2 1 -10 -4 -7 -12
-3 -7 -2 1 -10 -4 -7 -12
-4 -7 -2 1 -10 -5 -6 -12
-5 -7 -2 1 -10 -5 -6 -12
-5 -7 -2 1 -10 -5 -6 -12
-6 -7 0 1 -10 -6 -5 -13
-5 -7 0 1 -10 -6 -5 -13
-3 -6 0 2 -9 -5 -5 -12
-2 -5 0 2 -9 -5 -5 -12
0 -5 0 2 -9 -5 -5 -12
1 -4 0 3 -8 -4 -4 -11
0 -4 0 3 -8 -4 -4 -11
-3 -5 1 4 -7 -4 -4 -11
-4 -5 2 5 -7 -4 -4 -11
-5 -5 2 5 -7 -4 -4 -11
-6 -6 3 6 -6 -3 -3 -11
-5 -5 4 6 -6 -3 -3 -11
-4 -4 5 7 -5 -2 -2 -11
-3 -4 5 8 -4 0 -2 -11
-2 -3 6 8 -4 0 -2 -11
0 -2 7 9 -3 1 0 -10
0 -2 7 9 -3 1 0 -10
0 -2 7 9 -3 1 0 -10
0 -2 7 9 -3 1 0 -10
0 -2 7 9 -3 1 0 -10
-2 -3 6 9 -3 0 -2 -11
-3 -2 6 10 -3 0 -2 -10
-4 0 7 12 -2 1 0 -9
-4 0 7 13 -2 1 0 -8
-5 1 7 14 -2 1 0 -7
-6 2 8 15 0 2 1 -6
-6 3 8 15 0 2 1 -6
-5 4 9 15 1 3 2 -7
-4 4 10 15 2 4 3 -7
-4 5 10 15 2 4 3 -7
-3 6 11 15 3 5 4 -8
-3 5 11 15 3 5 4 -8
-4 4 11 14 3 5 3 -8
-4 3 11 14 3 5 3 -8
-4 2 11 14 3 5 3 -8
-5 1 10 13 2 4 2 -9
-5 1 10 13 2 4 2 -9
-5 2 11 14 3 4 3 -9
-5 3 11 14 3 4 3 -9
-5 3 11 14 3 4 3 -9
-4 4 12 15 4 5 4 -8
-3 4 12 15 4 5 4 -8
-2 4 11 14 3 5 4 -8
0 4 11 14 3 5 4 -8
1 4 11 14 3 5 4 -8
2 3 10 13 2 4 3 -8
2 3 10 12 2 4 3 -8
2 2 10 11 1 3 3 -8
2 2 10 11 0 3 3 -8
2 2 10 10 0 3 3 -8
3 1 9 9 -2 2 3 -8
1 0 9 9 -2 2 3 -8
0 -2 9 9 -2 2 3 -8
-2 -4 9 9 -2 2 3 -8
-4 -5 9 9 -2 2 3 -8
-4 -5 8 9 0 2 3 -8
-2 -3 8 9 0 2 3 -8
1 0 8 9 0 2 3 -7
4 3 9 9 1 3 4 -6
6 5 9 9 1 3 4 -6
8 7 10 9 2 4 5 -5
8 7 10 9 2 4 5 -5
7 7 10 9 2 4 5 -5
6 7 9 9 1 4 4 -6
6 7 9 9 1 4 4 -6
5 7 8 8 0 3 3 -7
3 5 7 7 -2 2 2 -8
2 3 7 6 -2 1 1 -9
0 1 6 4 -3 0 0 -11
-3 -2 5 3 -4 -2 -2 -12
-4 -4 4 2 -5 -3 -3 -13
-4 -3 5 3 -4 -3 -3 -12
-3 -3 5 3 -4 -2 -2 -12
-2 -2 6 4 -3 0 0 -11
-2 0 7 5 -2 0 0 -10
0 1 8 6 0 1 1 -9
1 3 8 6 0 1 1 -9
2 4 7 5 0 1 1 -9
3 5 6 4 -2 0 1 -9
4 7 6 4 -2 0 1 -9
5 8 5 3 -3 -2 0 -9
4 6 5 3 -3 -2 0 -9
3 5 5 3 -3 -2 0 -9
2 3 5 4 -3 -2 0 -9
1 1 5 4 -3 -2 0 -9
0 0 6 5 -2 0 1 -9
0 0 6 5 -2 0 1 -9
0 0 6 5 -2 0 1 -9
0 1 6 5 -2 0 1 -9
0 1 6 5 -2 0 1 -9
1 1 6 4 -3 -2 1 -9
0 -2 6 3 -4 -2 1 -9
-2 -5 5 3 -4 -2 0 -10
-3 -8 4 2 -5 -3 -2 -11
-4 -10 4 1 -6 -3 -2 -11
-4 -11 3 0 -7 -4 -3 -12
-2 -8 3 0 -7 -4 -3 -12
1 -5 3 1 -6 -4 -3 -12
4 0 4 2 -5 -4 -2 -11
6 3 4 2 -5 -4 -2 -11
8 5 5 3 -4 -3 0 -10
6 4 6 4 -3 -2 1 -9
5 4 7 5 -2 0 2 -8
3 3 9 6 0 1 4 -7
1 2 10 7 1 2 5 -6
0 1 11 8 2 3 6 -5
0 1 10 8 2 3 6 -6
0 2 10 8 2 3 5 -6
-2 3 9 8 1 2 4 -7
-2 3 8 8 1 2 4 -8
-3 4 7 7 0 1 3 -9
-3 5 7 7 0 1 3 -9
-2 5 7 7 0 1 3 -9
0 6 7 8 1 2 3 -8
0 7 7 8 1 2 3 -8
1 8 8 9 2 3 4 -7
2 9 10 10 3 3 4 -6
3 10 11 11 3 4 5 -6
4 12 12 12 4 5 6 -5
5 13 14 13 5 5 6 -4
6 14 15 14 6 6 7 -3
7 16 14 14 6 6 8 -2
7 17 13 14 6 7 8 0
8 19 12 15 7 8 9 2
9 21 11 15 7 8 10 3
10 22 10 16 8 9 11 4
12 22 10 16 8 9 11 4
13 22 9 16 9 10 12 4
14 21 8 16 10 11 13 4
16 21 8 16 10 11 13 4
17 20 7 16 11 12 14 5
16 19 7 16 11 12 14 5
16 19 7 16 11 12 14 5
15 18 7 16 11 12 14 5
14 17 7 16 11 12 14 5
13 16 8 15 11 12 13 4
12 16 8 13 9 10 13 4
11 16 8 12 7 9 12 4
9 15 8 10 5 7 11 3
8 15 8 8 3 5 11 3
7 13 7 7 1 4 10 2
7 11 6 7 1 4 9 2
7 8 5 7 1 3 8 1
7 5 4 6 1 2 6 0
7 2 3 6 1 2 5 0
6 0 2 5 0 1 4 -2
5 0 2 4 0 0 4 -3
4 0 2 3 -2 -2 3 -3
2 0 2 2 -3 -3 2 -4
1 0 2 1 -3 -4 2 -5
0 0 1 0 -4 -5 1 -6
1 0 1 0 -4 -5 1 -6
1 0 1 0 -4 -5 1 -6
2 1 1 0 -4 -5 1 -6
3 1 1 0 -4 -5 1 -6
4 2 1 -2 -3 -4 0 -7
3 1 1 -2 -3 -4 0 -7
2 0 1 -2 -3 -4 0 -7
0 -3 1 -2 -4 -5 -2 -7
-2 -4 1 -2 -4 -5 -2 -7
-3 -5 0 -3 -5 -6 -3 -8
-5 -6 -2 -4 -6 -7 -4 -9
-6 -8 -3 -4 -7 -8 -5 -10
-8 -9 -4 -5 -8 -9 -6 -12
-10 -11 -5 -6 -9 -10 -7 -13
-11 -12 -6 -7 -10 -11 -8 -14
-9 -12 -5 -7 -9 -10 -8 -13
-7 -12 -5 -6 -9 -10 -7 -11
-5 -12 -4 -5 -8 -9 -6 -10
-4 -12 -3 -5 -7 -8 -6 -8
-2 -12 -2 -4 -6 -7 -5 -7
0 -10 -2 -3 -6 -7 -5 -7
1 -9 -2 0 -5 -7 -5 -6
2 -7 -2 1 -4 -6 -4 -5
3 -5 -2 3 -4 -6 -4 -5
4 -4 0 4 -3 -5 -3 -4
3 -4 0 4 -3 -5 -3 -4
1 -4 0 4 -3 -5 -3 -4
0 -5 0 4 -3 -5 -3 -5
-3 -5 0 4 -3 -5 -3 -5
-4 -6 -2 4 -4 -6 -4 -6
-4 -5 -2 4 -4 -6 -4 -6
-4 -5 -2 4 -4 -6 -4 -5
-3 -4 -2 5 -4 -6 -3 -4
-3 -3 -2 5 -4 -6 -3 -4
-2 -2 0 7 -3 -5 -2 -3
-5 -4 3 10 0 -5 -2 -4
-7 -6 5 13 1 -5 -3 -5
-10 -8 8 16 3 -4 -4 -7
-12 -9 10 20 5 -4 -4 -8
-13 -10 14 25 10 1 -3 -8
-10 -8 21 36 20 9 4 -4
-6 -5 28 47 31 18 10 1
-3 -3 35 57 42 27 16 4
1 1 42 67 53 35 22 8
8 5 46 74 62 46 31 15
18 10 43 74 69 57 45 28
29 15 38 74 75 68 58 42
40 21 35 74 82 79 72 55
52 26 32 74 89 92 86 68
59 30 22 63 87 96 95 76
61 27 3 34 67 87 92 79
62 25 -18 6 47 77 90 82
64 23 -37 -22 27 68 87 85
66 21 -57 -51 8 59 85 88
63 17 -73 -77 -17 39 71 80
53 11 -82 -100 -49 4 38 56
42 5 -91 -122 -80 -33 7 31
30 -2 -100 -145 -112 -69 -25 8
19 -9 -109 -169 -144 -105 -58 -17
11 -13 -113 -179 -161 -128 -78 -34
6 -13 -108 -168 -153 -122 -78 -36
2 -14 -102 -156 -145 -117 -78 -39
-3 -15 -96 -145 -136 -112 -78 -43
-8 -15 -90 -134 -128 -108 -78 -46
-11 -17 -83 -121 -118 -101 -75 -48
-8 -19 -77 -109 -107 -93 -69 -47
-6 -22 -70 -98 -96 -85 -63 -46
-3 -25 -64 -86 -86 -75 -57 -44
0 -28 -58 -73 -74 -67 -51 -43
2 -29 -50 -61 -64 -58 -45 -39
1 -27 -40 -50 -53 -50 -37 -33
0 -24 -32 -39 -43 -40 -31 -26
-2 -21 -23 -28 -32 -32 -24 -20
-3 -18 -14 -17 -21 -23 -18 -14
-4 -16 -8 -9 -14 -17 -13 -9
-4 -14 -7 -7 -12 -15 -12 -9
-5 -12 -5 -5 -11 -14 -10 -8
-6 -10 -4 -3 -9 -12 -9 -7
-6 -8 -2 0 -8 -11 -7 -7
-7 -6 0 2 -6 -9 -6 -6
-7 -6 0 3 -5 -9 -6 -6
-8 -7 0 5 -5 -8 -6 -7
-9 -8 0 6 -4 -7 -6 -8
-9 -8 0 8 -3 -7 -6 -8
-10 -9 1 9 -2 -6 -5 -9
-8 -7 3 9 0 -6 -4 -8
-6 -5 4 9 1 -5 -3 -7
-4 -3 6 9 2 -4 -2 -6
-3 -2 7 9 3 -4 0 -5
0 1 9 10 4 -3 1 -4
0 1 9 10 4 -3 1 -4
-2 0 9 11 4 -3 1 -4
-3 -2 9 12 4 -3 0 -4
-3 -2 9 12 4 -3 0 -4
-4 -3 8 13 5 -3 -2 -5
-3 -3 8 13 5 -3 -2 -5
-3 -2 9 13 5 -2 -2 -5
-2 0 10 13 5 0 0 -4
0 0 10 13 5 0 0 -4
1 1 11 12 6 1 1 -3
-2 0 11 11 6 1 1 -3
-3 -2 11 10 5 0 1 -4
-5 -3 10 8 4 -2 1 -5
-6 -4 10 7 4 -2 1 -5
-8 -5 9 6 3 -3 0 -6
-8 -5 9 6 3 -3 0 -6
-8 -5 9 6 3 -3 0 -6
-8 -6 9 5 3 -3 0 -6
-8 -6 9 5 3 -3 0 -6
-7 -7 8 4 2 -2 -2 -7
-7 -7 8 4 2 -2 -2 -7
-7 -7 8 4 2 -2 -2 -7
-7 -6 8 4 2 -2 -2 -7
-7 -6 8 4 2 -2 -2 -7
-7 -5 7 4 2 -2 -3 -7
-6 -5 8 4 3 -2 -2 -7
-5 -5 9 5 3 -2 0 -6
-4 -4 10 5 4 0 1 -6
-3 -4 11 6 5 0 2 -5
-2 -3 12 7 6 1 3 -4
-3 -4 11 7 6 1 3 -4
-5 -5 11 7 6 1 2 -4
-6 -6 10 6 6 0 2 -4
-8 -7 9 6 6 0 1 -4
-9 -8 8 5 5 -2 0 -5
-9 -8 8 5 5 -2 0 -5
-9 -8 8 5 5 -2 0 -5
-8 -8 8 5 6 0 0 -5
-8 -8 8 5 6 0 0 -5
-7 -7 8 6 7 1 1 -4
-6 -6 8 6 7 1 1 -4
-6 -5 8 7 8 1 1 -4
-5 -4 8 7 8 1 2 -4
-4 -3 8 8 9 1 2 -4
-3 -2 9 9 10 2 3 -3
-3 -2 9 9 10 2 3 -3
-3 -2 9 9 10 2 3 -3
-3 -2 10 10 10 2 3 -3
-3 -2 10 10 10 2 3 -3
-4 -2 11 11 9 2 2 -3
-3 -2 11 13 10 3 3 -3
-2 -2 11 15 10 4 3 -3
0 0 11 17 11 5 4 -2
1 0 11 19 12 7 5 -2
2 1 12 21 13 8 6 0
2 2 12 21 13 8 6 1
2 2 12 21 13 8 7 1
2 3 12 22 13 8 7 2
2 4 12 22 13 8 8 3
2 5 13 23 14 9 9 4
1 5 13 23 15 9 9 4
1 5 13 23 15 10 10 4
0 4 13 23 16 10 10 4
-2 4 13 23 17 11 11 4
-3 3 12 24 18 12 12 5
-2 3 12 24 18 12 12 5
-2 3 11 24 18 12 12 5
0 3 11 24 18 12 12 6
1 3 10 24 18 12 12 6
2 4 9 23 18 12 11 7
2 5 9 24 18 12 11 8
3 6 9 25 19 12 11 8
3 7 10 26 19 12 12 9
4 8 10 27 20 12 12 10
5 9 11 28 21 13 13 11
5 9 10 28 21 13 13 11
5 8 10 27 20 13 14 11
5 8 9 27 20 14 14 12
5 7 8 26 19 14 15 12
4 6 7 25 18 15 16 13
5 7 7 25 18 15 16 13
5 9 7 25 19 16 17 14
6 10 8 26 19 16 17 14
7 11 8 26 20 17 18 15
8 13 9 27 21 18 19 16
10 14 8 25 21 18 19 16
13 15 7 23 20 18 19 16
15 16 6 22 20 18 19 16
17 18 5 20 19 18 19 16
19 19 4 18 18 17 20 17
18 19 4 17 18 17 20 17
18 19 3 17 17 16 20 18
17 19 3 16 17 16 20 18
16 19 2 15 16 15 20 19
15 18 1 14 15 14 20 20
16 18 1 12 14 14 20 20
17 18 1 10 13 14 20 20
18 18 0 8 12 13 20 20
19 18 0 6 11 13 20 20
20 17 -2 4 10 12 20 21
20 17 -2 4 9 11 19 21
19 16 -2 4 9 11 19 21
19 16 -2 3 8 10 18 20
18 15 -2 3 7 9 17 20
17 14 -3 2 6 8 16 19
18 14 -3 2 6 8 16 19
19 15 -3 1 6 8 16 19
20 15 -3 1 5 8 16 18
21 16 -3 0 5 8 16 18
22 17 -4 -2 4 7 16 17
20 15 -4 -2 4 7 16 17
19 13 -4 -2 4 7 16 17
17 12 -3 -2 4 6 15 16
16 10 -3 -2 4 6 15 16
14 8 -2 -2 4 5 14 15
13 8 0 -2 4 5 14 15
12 8 0 -2 4 5 14 14
11 8 1 -2 4 5 13 14
9 8 2 -2 4 5 13 13
8 7 3 -3 3 4 12 12
7 6 3 -3 3 4 11 11
7 4 3 -2 3 4 10 9
6 3 3 -2 3 3 9 8
5 2 3 0 3 3 8 7
4 0 4 1 4 2 7 5
4 0 4 1 4 2 7 5
4 0 4 1 4 2 7 4
4 0 4 1 4 2 6 3
4 0 4 1 4 2 6 2
3 -2 5 1 3 3 5 1
3 -3 5 1 3 3 5 1
2 -4 5 1 3 3 4 0
1 -5 4 1 3 2 3 -2
0 -6 4 1 3 2 2 -3
-2 -7 3 0 2 1 1 -4
-2 -7 3 0 2 1 1 -4
-3 -7 3 0 2 0 1 -4
-3 -6 4 0 1 0 0 -4
-4 -6 4 0 1 -2 0 -4
-5 -5 5 -2 0 -3 -2 -5
-7 -8 4 -3 -2 -3 -3 -6
-9 -12 3 -5 -3 -4 -4 -8
-11 -15 2 -6 -4 -4 -5 -10
-13 -18 0 -7 -5 -5 -6 -11
-15 -21 -2 -9 -6 -6 -7 -13
-13 -19 1 -7 -6 -6 -7 -12
-11 -17 3 -5 -5 -5 -6 -10
-9 -14 4 -3 -4 -4 -6 -8
-7 -12 6 0 -3 -3 -5 -7
-5 -10 8 2 -2 -2 -4 -5
-5 -10 8 1 -2 -2 -4 -5
-5 -10 7 0 -2 -3 -4 -6
-5 -10 6 -2 -2 -3 -4 -7
-5 -10 5 -3 -2 -4 -4 -8
-6 -11 4 -4 -2 -5 -3 -9
-6 -11 4 -4 -2 -5 -3 -9
-6 -11 5 -4 -2 -4 -3 -8
-6 -11 5 -3 -2 -4 -2 -8
-6 -11 6 -3 -2 -3 -2 -7
-7 -11 7 -2 0 -2 0 -6
-7 -11 7 -2 0 -2 0 -6
-8 -11 7 -2 0 -2 0 -6
-9 -11 8 0 1 -2 0 -6
-10 -11 8 0 1 -2 0 -6
-11 -10 9 1 2 -3 -2 -6
-10 -10 9 1 2 -3 -2 -5
-9 -10 9 2 2 -2 -2 -4
-8 -9 9 2 3 -2 -2 -3
-7 -9 9 3 3 0 -2 -2
-6 -8 9 4 4 1 0 0
-7 -8 9 4 4 1 0 0
-8 -9 9 4 5 1 0 0
-9 -9 9 5 5 2 1 -2
-11 -10 9 5 6 2 1 -2
-12 -11 9 6 7 3 2 -3
-12 -11 9 6 7 3 2 -3
-11 -10 9 7 7 3 2 -3
-11 -9 9 8 7 3 2 -3
-10 -8 9 9 7 3 2 -3
-9 -7 8 10 6 3 1 -3
-9 -7 8 10 6 3 1 -3
-10 -8 8 10 6 3 1 -3
-11 -9 8 9 6 2 0 -4
-12 -10 8 9 6 2 0 -4
-13 -11 8 8 5 1 -2 -5
-11 -10 8 8 6 2 0 -5
-10 -9 8 8 7 3 2 -4
-8 -8 9 8 8 4 3 -4
-6 -6 9 8 10 6 4 -3
-4 -5 10 9 11 7 6 -2
-4 -5 10 9 11 7 6 -2
-5 -5 10 10 11 7 6 -2
-5 -5 10 10 11 7 6 -2
-6 -5 10 11 11 7 6 -2
-7 -5 10 12 10 6 5 0
-7 -6 10 11 10 6 5 0
-7 -7 9 10 9 6 5 0
-7 -8 8 9 9 5 4 0
-7 -10 7 8 8 5 4 0
-7 -11 6 7 7 4 3 -2
-7 -11 6 7 7 4 3 -2
-8 -11 6 6 6 3 3 -2
-9 -11 6 6 6 3 2 -3
-10 -11 6 5 5 2 2 -3
-11 -11 7 4 4 1 1 -4
-9 -9 7 5 4 2 1 -3
-8 -7 8 6 5 3 2 0
-6 -4 8 7 6 4 3 1
-4 -2 9 8 7 5 4 2
-2 1 10 9 8 6 5 4
-2 0 10 9 8 6 5 4
-3 -2 10 8 7 5 4 4
-4 -3 9 7 7 5 4 4
-5 -5 9 6 6 4 3 4
-6 -6 8 5 5 3 2 5
-7 -6 8 5 5 3 2 5
-8 -7 7 4 4 2 1 4
-9 -8 7 3 3 1 1 4
-10 -9 6 2 2 0 0 3
-11 -10 5 1 1 -2 -2 2
-11 -10 5 1 1 -2 -2 2
-12 -10 4 1 0 -3 -2 1
-12 -11 3 1 0 -3 -2 1
-13 -11 2 1 -2 -4 -2 0
-14 -12 1 0 -3 -5 -2 -2
-12 -11 2 0 -2 -5 -2 0
-11 -10 3 0 0 -4 -2 1
-9 -9 4 0 1 -3 -2 2
-7 -8 5 0 2 -2 -2 3
-5 -6 6 1 3 0 -2 4
-4 -6 5 1 3 0 -2 4
-2 -6 4 0 2 0 -2 4
1 -6 3 0 2 0 -2 3
2 -6 2 -2 1 0 -2 3
4 -5 1 -3 0 -2 -2 2
2 -5 1 -2 0 -2 -2 2
1 -5 1 0 0 -2 -2 2
-2 -5 2 1 0 -2 -2 2
-4 -5 2 2 0 -2 -2 2
-6 -5 3 4 1 -3 0 1
-6 -6 3 4 1 -3 0 1
-7 -8 3 4 1 -3 0 1
-7 -9 2 4 1 -3 0 1
-8 -10 2 4 1 -3 0 1
-9 -12 1 3 0 -2 -2 1
-8 -10 1 3 0 -2 -2 1
-7 -9 1 3 0 -2 -2 1
-6 -7 2 3 0 -2 -2 0
-5 -5 2 3 0 -2 -2 0
-3 -3 3 4 0 -3 -3 -2
-3 -3 3 4 0 -3 -3 -2
-4 -4 4 4 0 -2 -3 -2
-5 -4 4 4 1 -2 -2 -2
-6 -5 5 4 1 0 -2 -2
-7 -6 6 4 2 1 0 0
-7 -6 6 4 2 1 0 0
-7 -6 6 4 2 1 0 0
-7 -5 6 3 2 1 0 0
-7 -5 6 3 2 1 0 0
-6 -4 6 2 2 1 1 -2
-6 -4 7 2 2 1 1 -2
-6 -3 8 2 3 2 1 0
-7 -3 9 2 4 2 1 1
-7 -2 10 2 5 3 1 2
-8 0 11 3 6 4 1 3
-8 0 11 4 6 4 1 3
-8 0 11 5 6 4 1 3
-8 0 11 6 6 4 2 3
-8 0 11 7 6 4 2 3
-7 0 12 8 5 4 3 4
-6 1 12 9 6 5 4 4
-5 3 12 10 7 6 5 5
-4 5 13 11 9 7 6 6
-3 6 13 12 10 8 7 7
-2 8 14 14 12 10 8 8
-2 8 14 14 12 10 8 8
0 9 13 14 12 10 9 8
1 10 13 13 12 11 9 9
2 11 12 13 12 11 10 9
3 12 11 12 12 12 11 10
3 12 10 12 11 11 10 10
4 12 9 11 10 10 9 10
4 12 7 10 9 9 8 9
5 12 6 9 8 8 7 9
6 11 4 8 7 7 6 8
6 10 4 8 7 7 6 8
6 9 4 7 7 7 6 8
6 7 3 6 7 7 6 7
6 6 3 5 7 7 6 7
5 4 2 4 6 6 6 6
5 3 2 4 6 6 6 6
4 2 2 3 5 5 5 5
3 1 2 2 4 5 4 4
2 0 2 1 3 4 3 3
1 -2 2 0 2 3 2 2
-2 -3 2 -2 2 2 1 1
-3 -4 2 -3 1 1 0 -2
-5 -5 2 -5 0 0 -2 -3
-7 -6 2 -6 -2 -2 -3 -5
-9 -8 3 -8 -3 -4 -5 -7
-9 -9 2 -8 -3 -4 -5 -7
-10 -10 1 -8 -4 -5 -6 -7
-10 -11 0 -9 -5 -5 -7 -8
-11 -12 -2 -9 -6 -6 -8 -8
-12 -13 -3 -10 -7 -7 -9 -9
-11 -13 -3 -10 -7 -7 -9 -9
-10 -13 -3 -10 -7 -7 -9 -8
-9 -13 -3 -10 -7 -7 -8 -8
-8 -13 -3 -10 -7 -7 -8 -7
-6 -13 -3 -9 -6 -6 -7 -6
-8 -13 -3 -9 -6 -6 -7 -7
-11 -14 -3 -9 -7 -7 -8 -8
-13 -14 -4 -10 -7 -7 -8 -9
-15 -15 -4 -10 -8 -8 -9 -10
-18 -16 -5 -11 -9 -9 -10 -11
-17 -16 -5 -11 -9 -9 -10 -11
-16 -16 -5 -11 -9 -9 -11 -11
-14 -16 -5 -11 -9 -9 -11 -11
-13 -16 -5 -11 -9 -9 -12 -11
-11 -17 -5 -10 -9 -10 -13 -12
-11 -16 -5 -10 -9 -9 -12 -11
-10 -15 -4 -9 -8 -8 -11 -10
-10 -13 -4 -9 -7 -7 -9 -9
-9 -12 -3 -8 -6 -6 -8 -8
-8 -10 -2 -7 -5 -4 -6 -6
-8 -10 -2 -7 -5 -4 -6 -6
-9 -10 -2 -7 -6 -5 -7 -7
-9 -11 -2 -7 -7 -6 -7 -8
-10 -11 -2 -7 -8 -7 -8 -9
-11 -12 -3 -6 -9 -8 -9 -10
-11 -12 -3 -6 -9 -8 -9 -10
-10 -12 -3 -6 -9 -8 -9 -10
-10 -11 -3 -6 -8 -8 -9 -10
-9 -11 -3 -6 -8 -8 -9 -10
-8 -10 -4 -5 -7 -7 -8 -10
-9 -11 -4 -5 -7 -7 -8 -10
-10 -13 -4 -6 -7 -7 -9 -11
-11 -14 -4 -7 -8 -8 -9 -11
-12 -16 -4 -8 -8 -8 -10 -12
-14 -18 -5 -9 -9 -9 -11 -13
-14 -17 3 -4 -6 -7 -11 -13
-15 -16 9 1 -2 -5 -10 -13
-15 -15 16 6 2 -3 -9 -13
-16 -14 22 11 5 0 -8 -13
-17 -13 29 17 10 3 -7 -14
-13 -11 34 31 25 16 4 -7
-8 -9 39 47 40 29 14 0
-4 -7 45 62 56 43 24 7
1 -5 51 77 71 56 34 13
6 -2 56 92 86 69 46 21
17 6 43 79 88 79 61 37
28 13 30 68 90 90 76 55
39 19 17 56 93 100 93 71
51 26 5 44 95 110 108 89
62 33 -9 31 96 119 122 105
52 23 -24 0 63 92 102 93
43 14 -40 -31 29 64 81 80
33 4 -56 -62 -4 36 61 68
23 -6 -72 -93 -37 9 40 56
14 -16 -88 -122 -70 -19 20 43
9 -17 -94 -136 -91 -43 -3 24
3 -18 -100 -149 -111 -66 -26 5
-4 -19 -106 -162 -132 -90 -49 -15
-9 -20 -113 -175 -152 -113 -71 -34
-15 -21 -119 -188 -173 -136 -94 -53
-15 -22 -113 -175 -162 -129 -92 -54
-16 -23 -106 -162 -151 -121 -90 -56
-17 -24 -100 -150 -141 -114 -88 -58
-18 -25 -94 -137 -130 -106 -86 -60
-19 -26 -87 -124 -119 -99 -83 -62
-17 -26 -77 -109 -105 -88 -74 -57
-14 -26 -67 -95 -92 -76 -65 -51
-11 -27 -58 -79 -78 -66 -57 -46
-8 -27 -48 -64 -64 -55 -48 -40
-5 -28 -38 -50 -51 -44 -38 -34
-5 -26 -32 -43 -44 -37 -34 -31
-5 -23 -26 -34 -37 -32 -29 -28
-6 -21 -20 -27 -30 -26 -24 -24
-6 -18 -14 -20 -23 -20 -20 -21
-7 -15 -8 -12 -16 -14 -15 -17
-8 -15 -7 -10 -14 -13 -14 -17
-10 -14 -6 -7 -12 -12 -13 -16
-11 -14 -4 -5 -10 -11 -12 -15
-13 -13 -3 -2 -8 -10 -11 -14
-15 -12 0 2 -6 -8 -10 -13
-14 -11 0 2 -6 -7 -10 -13
-13 -10 0 3 -5 -6 -10 -13
-11 -9 0 3 -4 -5 -10 -13
-10 -8 0 4 -3 -4 -10 -13
-8 -6 1 5 -2 -2 -9 -12
-8 -6 1 5 -2 -2 -9 -12
-8 -6 2 5 -2 -2 -9 -12
-9 -6 2 6 -2 -2 -9 -12
-9 -6 3 6 -2 -2 -9 -12
-10 -6 4 7 0 -3 -8 -12
-10 -6 4 7 0 -3 -7 -11
-9 -6 4 7 1 -2 -6 -10
-8 -6 5 7 1 -2 -5 -9
-7 -6 5 7 2 0 -4 -8
-6 -5 6 7 3 1 -2 -7
-7 -5 6 7 3 1 -2 -7
-8 -6 6 7 3 1 -3 -8
-9 -6 6 7 2 0 -3 -9
-10 -7 6 7 2 0 -4 -10
-12 -8 7 6 1 -2 -5 -11
-12 -8 7 6 1 -2 -5 -11
-11 -8 7 6 1 -2 -5 -11
-11 -8 7 6 1 0 -5 -11
-10 -8 7 6 1 0 -5 -11
-9 -9 7 7 2 1 -4 -10
-9 -9 7 7 2 1 -4 -10
-9 -8 7 7 2 1 -4 -10
-9 -7 7 7 2 0 -5 -10
-9 -6 7 7 2 0 -5 -10
-8 -5 6 6 1 -2 -6 -11
-8 -5 6 6 2 0 -5 -10
-8 -5 6 7 3 1 -4 -9
-8 -5 7 8 4 2 -3 -8
-8 -5 7 9 5 3 -2 -7
-8 -6 8 10 7 4 0 -5
-8 -6 8 10 7 4 0 -5
-8 -7 8 10 7 4 0 -5
-8 -7 7 9 6 3 0 -6
-8 -8 7 9 6 3 0 -6
-7 -9 6 8 5 2 -2 -7
-7 -9 6 8 5 2 -2 -7
-7 -9 6 8 5 2 -2 -7
-7 -9 6 7 4 2 -3 -7
-7 -9 6 7 4 2 -3 -7
-7 -8 6 6 3 1 -4 -8
-6 -7 6 7 3 1 -4 -8
-5 -5 6 9 4 1 -3 -8
-4 -3 6 10 4 1 -3 -8
-3 0 6 12 5 1 -2 -8
0 2 7 14 6 2 0 -7
-2 1 7 14 6 2 0 -7
-2 0 7 14 6 2 0 -7
-3 -3 7 14 6 2 0 -7
-4 -4 7 14 6 2 0 -7
-5 -5 7 14 6 2 0 -7
-6 -6 7 15 5 3 -2 -7
-6 -6 7 16 6 4 -2 -7
-6 -6 8 17 7 5 -2 -6
-6 -6 8 18 8 6 -2 -6
-6 -6 8 19 9 6 -2 -6
-5 -5 9 20 10 7 0 -5
-5 -4 8 20 10 7 0 -4
-5 -3 8 19 10 7 1 -4
-5 -2 7 19 10 7 1 -3
-5 -2 7 19 10 7 1 -3
-5 1 6 19 9 7 2 -2
-4 2 6 21 10 7 3 -2
-3 3 7 23 11 8 3 0
-2 4 7 25 12 8 4 0
-2 5 7 26 12 8 4 0
0 6 8 27 13 9 5 1
1 6 8 27 14 10 6 2
1 7 8 27 15 11 7 3
2 7 8 27 16 12 8 4
2 7 8 27 16 13 8 5
3 8 9 30 17 14 9 6
3 9 9 32 17 14 9 6
3 9 9 35 17 14 10 6
3 10 9 37 17 14 10 6
3 10 9 39 17 14 10 6
3 11 10 40 16 14 11 6
3 11 10 40 17 14 11 7
2 11 9 40 17 15 11 8
2 11 9 40 18 15 11 9
2 11 9 40 18 15 11 9
3 11 8 42 19 17 13 11
6 13 8 42 19 18 15 12
9 15 9 42 20 20 16 13
12 17 9 42 20 21 18 14
15 18 9 42 20 22 19 15
16 19 9 39 21 22 20 16
15 19 8 35 20 21 19 16
14 18 7 31 19 20 18 16
13 18 6 27 18 19 17 16
12 18 5 23 17 18 17 16
11 17 4 21 16 17 16 15
11 16 3 19 15 17 16 15
11 15 2 18 15 17 16 15
11 14 1 16 14 17 16 15
11 13 0 15 14 17 16 15
11 13 -2 13 13 16 16 15
13 14 -2 12 13 16 17 15
15 15 -2 11 12 16 18 16
17 16 -2 10 12 16 19 16
18 17 -2 9 12 16 19 16
19 18 -2 8 11 16 20 17
19 18 -2 8 11 16 20 18
19 19 -3 8 11 16 21 18
19 19 -3 8 11 16 21 19
19 19 -3 8 11 16 21 19
18 19 -5 5 9 15 20 19
17 17 -6 2 7 13 18 18
15 16 -8 -2 4 10 16 16
14 14 -9 -5 2 8 14 15
13 13 -10 -7 0 6 12 14
12 12 -10 -7 -2 5 11 13
13 13 -8 -5 0 6 12 13
13 14 -6 -4 1 7 12 14
14 15 -4 -2 2 8 13 14
14 15 -3 0 3 9 13 14
14 15 -3 0 4 10 14 15
12 13 -4 -2 3 9 13 14
11 11 -5 -4 2 8 12 13
9 9 -6 -5 1 7 11 12
8 7 -7 -6 1 6 11 12
7 6 -7 -6 0 5 10 11
7 6 -6 -4 0 5 10 11
8 7 -4 -3 1 5 10 10
8 7 -3 0 1 5 10 10
8 7 -2 1 1 5 10 10
9 8 0 2 2 6 10 9
8 8 0 1 2 6 9 8
8 8 0 1 2 6 9 7
7 8 0 0 2 6 8 6
7 8 0 0 2 6 8 6
6 7 1 -2 3 5 7 4
6 6 1 -2 3 4 6 3
6 5 1 -2 2 4 5 1
6 4 1 -2 2 3 4 0
6 4 1 -2 2 3 3 -2
5 2 2 -2 1 2 2 -3
4 1 2 -3 0 1 1 -4
3 0 1 -4 -2 0 0 -5
2 -2 1 -5 -3 -2 -2 -6
1 -3 1 -6 -3 -2 -3 -7
0 -4 1 -6 -4 -3 -4 -8
-2 -4 2 -5 -4 -3 -4 -8
-3 -4 4 -3 -5 -4 -3 -8
-4 -4 5 -2 -5 -4 -3 -8
-5 -4 6 0 -5 -4 -3 -8
-6 -5 7 1 -6 -5 -2 -9
-5 -5 6 0 -5 -5 -3 -9
-4 -5 6 -2 -5 -4 -3 -8
-3 -5 5 -3 -4 -4 -4 -8
-2 -5 5 -4 -4 -4 -4 -8
0 -5 4 -5 -3 -3 -5 -7
-2 -6 4 -5 -3 -3 -5 -8
-3 -8 3 -5 -3 -3 -6 -8
-4 -9 3 -5 -3 -3 -6 -9
-5 -10 3 -5 -3 -3 -6 -9
-6 -11 2 -4 -3 -3 -7 -10
-7 -10 3 -4 -3 -3 -7 -10
-8 -9 4 -3 -3 -3 -6 -10
-9 -8 5 -3 -3 -3 -6 -10
-9 -7 6 -3 -3 -3 -6 -10
-10 -6 7 -2 -4 -4 -5 -9
-10 -7 6 -2 -4 -4 -5 -9
-10 -8 5 -2 -4 -4 -6 -9
-10 -9 4 -2 -4 -4 -6 -9
-10 -10 4 -2 -4 -4 -6 -9
-10 -10 3 0 -4 -4 -7 -9
-8 -8 4 1 -3 -3 -6 -9
-6 -6 5 2 -3 -2 -5 -8
-4 -4 6 3 -2 0 -4 -8
-3 -3 6 4 -2 0 -4 -8
-2 -2 7 5 0 1 -3 -7
-2 -3 7 6 0 1 -3 -7
-3 -4 7 6 1 1 -3 -7
-3 -5 7 7 1 1 -3 -7
-3 -5 7 7 1 1 -3 -7
-5 -6 8 8 2 0 -3 -7
-6 -7 8 8 2 0 -3 -7
-7 -8 8 8 2 1 -3 -7
-8 -9 8 8 2 1 -3 -7
-9 -9 8 8 2 1 -3 -7
-8 -7 7 9 4 2 -2 -6
-6 -4 8 10 5 3 0 -5
-3 0 9 12 6 4 0 -4
1 4 10 13 7 5 1 -3
3 7 11 14 8 5 1 -3
3 7 12 15 9 6 2 -2
1 5 12 15 9 6 2 -2
-2 4 11 14 8 6 2 -2
-3 2 11 14 8 6 2 -2
-5 1 11 14 8 6 2 -2
-5 0 10 13 7 6 3 -3
-3 1 10 13 8 6 3 -2
0 2 10 13 9 7 3 0
1 3 10 13 10 7 3 1
3 4 10 13 10 7 3 1
3 4 10 14 11 8 4 2
2 3 10 13 10 7 4 1
0 2 10 12 10 7 4 1
-2 1 10 11 9 6 4 0
-3 0 10 11 9 6 4 0
-4 -2 10 10 8 5 3 -2
-4 0 10 10 9 6 4 -2
-3 1 11 10 9 7 5 0
-3 2 11 10 10 8 6 0
-3 2 11 10 10 9 6 0
-2 2 11 11 11 9 6 1
-3 1 10 10 10 8 5 0
-4 -2 9 9 9 6 4 -2
-5 -3 8 8 8 5 3 -3
-5 -4 7 8 7 4 2 -3
-6 -5 6 7 6 3 1 -4
-6 -5 6 7 6 3 1 -4
-6 -5 5 7 6 3 1 -4
-6 -5 5 7 6 3 1 -4
-6 -5 5 7 6 3 1 -4
-6 -5 4 6 6 2 1 -4
-5 -4 5 7 7 3 2 -3
-4 -3 6 7 7 3 3 -2
-3 -2 7 8 8 4 4 0
-3 0 8 8 8 4 4 1
-2 1 9 9 9 5 5 2
-2 0 8 8 8 4 4 1
-2 -2 8 8 7 3 3 0
-2 -3 7 7 6 2 2 -2
-2 -3 7 7 5 2 2 -3
-2 -4 6 6 4 1 1 -4
-3 -4 6 6 4 1 1 -4
-4 -4 6 6 4 0 0 -4
-5 -4 6 6 4 0 0 -4
-5 -4 6 6 4 0 0 -4
-5 -4 7 6 5 -2 -2 -5
-4 -3 7 6 5 0 0 -4
-3 -2 7 6 5 0 0 -4
0 0 7 6 5 1 1 -3
1 0 7 6 5 1 1 -3
2 1 6 6 4 1 2 -2
1 0 6 6 3 0 1 -3
0 -2 5 5 3 -2 1 -3
-2 -3 5 5 2 -3 0 -4
-3 -3 5 5 2 -4 0 -4
-4 -4 4 4 1 -5 -2 -5
-4 -4 4 5 1 -5 -2 -5
-4 -4 5 6 1 -5 -2 -5
-4 -4 5 7 1 -5 -2 -5
-4 -4 5 7 1 -5 -2 -5
-5 -4 6 8 1 -4 0 -4
-5 -4 6 8 1 -4 0 -4
-4 -5 6 8 1 -4 -2 -4
-4 -5 6 8 1 -4 -2 -4
-4 -5 6 8 1 -4 -2 -4
-3 -6 6 7 0 -4 -3 -5
-4 -6 6 7 0 -4 -3 -5
-4 -5 6 7 0 -4 -3 -5
-5 -5 6 7 0 -4 -3 -5
-5 -5 6 7 0 -4 -3 -5
-6 -4 5 7 -2 -5 -3 -6
-6 -5 5 7 -2 -5 -3 -6
-6 -6 4 7 -2 -5 -3 -6
-6 -7 4 7 -2 -5 -3 -6
-6 -7 4 7 -2 -5 -3 -6
-6 -8 3 7 -2 -4 -2 -5
-6 -7 3 6 -2 -4 -2 -5
-6 -6 3 6 -2 -4 -2 -5
-6 -5 3 5 -2 -4 -2 -5
-6 -5 3 5 -2 -4 -2 -5
-5 -4 4 4 -2 -5 0 -4
-3 -3 5 4 -2 -5 0 -4
-2 -2 5 4 0 -5 0 -4
0 0 6 4 0 -5 0 -4
1 1 6 4 0 -5 0 -4
2 2 7 5 1 -5 0 -4
0 1 8 5 2 -4 0 -4
-2 0 8 5 3 -3 0 -4
-3 -2 9 5 4 -2 0 -4
-4 -2 9 5 5 0 0 -4
-5 -3 10 6 6 1 1 -4
-4 -2 10 6 6 1 1 -4
-4 0 11 7 6 1 2 -3
-3 1 11 7 6 1 2 -3
-3 2 11 7 6 1 2 -3
-2 3 12 8 6 1 3 -2
-2 3 13 9 6 1 3 0
-3 3 13 9 6 1 3 0
-3 3 14 10 6 1 3 1
-3 3 14 10 6 1 3 1
-4 4 15 11 7 1 3 2
-2 4 15 11 8 2 4 3
0 4 14 11 9 3 5 4
1 4 14 11 10 4 6 5
2 4 14 11 10 4 7 5
4 6 13 11 11 6 8 7
5 8 13 11 12 7 9 8
6 10 13 12 13 9 9 9
8 12 13 12 14 11 10 11
9 14 13 12 15 12 10 12
10 15 12 13 16 13 11 13
10 14 12 12 15 12 11 12
10 14 12 12 15 11 10 12
10 13 12 11 14 10 10 11
10 13 12 11 14 10 10 11
10 12 10 9 12 8 9 10
9 11 8 7 10 6 8 10
9 10 6 5 8 4 8 9
8 9 4 3 6 2 7 9
8 9 2 1 4 0 7 9
6 7 1 0 3 -2 6 8
5 5 1 0 3 -2 5 7
3 2 1 -2 2 -2 4 6
1 0 1 -2 2 -2 3 5
0 -3 1 -2 2 -2 3 4
-2 -4 1 -3 1 -3 2 3
-3 -5 2 -3 1 -3 1 2
-4 -6 3 -3 0 -4 0 1
-5 -7 5 -3 0 -4 -2 0
-5 -7 6 -3 0 -4 -2 0
-6 -8 7 -4 -2 -5 -3 -2
-5 -7 6 -5 -2 -6 -3 -2
-4 -7 5 -5 -2 -6 -3 -2
-3 -6 4 -6 -2 -7 -3 -2
-2 -6 4 -6 -2 -7 -3 -2
0 -5 3 -7 -3 -8 -4 -2
-3 -5 3 -7 -3 -8 -4 -2
-4 -5 3 -7 -3 -8 -4 -2
-5 -5 3 -7 -3 -8 -4 -2
-6 -5 3 -7 -3 -8 -4 -2
-7 -5 4 -6 -4 -9 -5 -2
-7 -6 4 -7 -5 -9 -5 -3
-7 -7 3 -8 -5 -10 -6 -4
-7 -8 3 -9 -6 -10 -6 -5
-7 -8 3 -9 -6 -10 -6 -5
-7 -10 2 -10 -7 -11 -7 -6
-8 -11 2 -10 -7 -12 -7 -7
-9 -12 2 -11 -7 -13 -8 -8
-10 -14 2 -11 -7 -14 -8 -9
-11 -15 2 -11 -7 -14 -8 -9
-12 -15 1 -12 -8 -14 -9 -9
-11 -14 2 -11 -7 -13 -8 -8
-10 -13 3 -10 -6 -11 -7 -7
-9 -11 4 -9 -5 -9 -6 -5
-9 -10 5 -8 -5 -8 -5 -4
-8 -9 6 -7 -4 -7 -4 -3
-8 -9 5 -8 -5 -8 -5 -4
-8 -9 4 -9 -5 -9 -5 -4
-8 -9 3 -10 -6 -10 -6 -5
-8 -9 2 -10 -6 -10 -6 -5
-7 -10 1 -11 -7 -11 -7 -6
-7 -10 1 -11 -7 -11 -7 -6
-8 -11 1 -11 -7 -11 -7 -6
-8 -11 1 -11 -7 -11 -7 -6
-8 -11 1 -11 -7 -11 -7 -6
-9 -12 2 -11 -7 -11 -8 -6
-9 -12 2 -11 -7 -11 -8 -6
-8 -12 2 -10 -7 -10 -8 -6
-8 -12 2 -10 -7 -10 -8 -6
-8 -12 2 -10 -7 -10 -8 -6
-8 -12 5 -7 -5 -9 -7 -5
-9 -13 9 -3 -3 -9 -7 -6
-10 -13 13 2 1 -8 -8 -7
-12 -14 16 6 3 -8 -8 -7
-13 -14 20 10 5 -8 -8 -8
-13 -13 26 19 14 1 -5 -7
-11 -11 33 31 26 10 3 -3
-10 -8 40 44 37 20 10 1
-8 -5 47 56 50 29 16 5
-6 -2 54 68 62 39 23 9
4 5 54 72 71 53 37 21
14 12 50 72 79 67 54 35
25 19 46 72 89 80 70 51
36 26 42 72 97 95 87 66
48 33 37 72 105 109 103 81
51 34 19 52 94 107 107 88
51 32 -3 21 73 99 105 91
51 30 -25 -9 53 90 103 94
51 28 -48 -38 32 80 101 97
51 26 -70 -69 13 72 99 100
44 18 -85 -96 -20 38 70 80
32 8 -96 -122 -58 -4 33 53
20 -2 -107 -149 -96 -47 -5 24
9 -12 -118 -175 -133 -89 -43 -5
-3 -22 -130 -201 -171 -131 -80 -32
-8 -25 -128 -199 -175 -139 -91 -43
-9 -23 -119 -186 -164 -134 -90 -46
-10 -22 -111 -173 -155 -128 -89 -49
-12 -21 -103 -159 -145 -122 -88 -52
-13 -20 -95 -146 -136 -116 -87 -56
-14 -21 -87 -133 -124 -108 -81 -55
-12 -24 -78 -119 -112 -98 -75 -52
-11 -28 -71 -106 -100 -89 -69 -49
-10 -31 -63 -92 -88 -78 -62 -46
-9 -35 -56 -78 -75 -69 -56 -43
-8 -33 -46 -66 -63 -59 -49 -37
-7 -28 -35 -54 -52 -49 -40 -32
-7 -23 -25 -41 -40 -38 -32 -26
-6 -19 -15 -30 -29 -28 -24 -20
-6 -14 -5 -18 -18 -18 -17 -14
-5 -12 -2 -14 -14 -15 -14 -12
-5 -11 0 -12 -12 -15 -13 -11
-6 -10 0 -11 -11 -14 -12 -10
-6 -10 1 -10 -10 -14 -12 -10
-6 -9 1 -9 -9 -14 -11 -9
-7 -8 2 -7 -8 -12 -10 -8
-7 -8 2 -6 -6 -11 -9 -8
-7 -8 3 -5 -5 -10 -8 -8
-7 -8 3 -3 -4 -8 -8 -8
-7 -8 3 -2 -3 -7 -7 -8
-8 -8 4 0 -2 -6 -6 -7
-10 -9 4 0 -2 -6 -6 -7
-11 -9 5 -2 -2 -6 -7 -7
-12 -10 5 -2 -2 -6 -7 -7
-13 -10 5 -2 -2 -6 -7 -7
-13 -11 6 -3 -3 -7 -8 -8
-12 -9 8 0 -2 -6 -7 -6
-10 -8 9 1 0 -5 -6 -5
-9 -6 11 3 1 -4 -6 -4
-7 -5 12 4 2 -3 -5 -3
-6 -4 13 5 3 -2 -4 -2
-5 -2 13 5 3 -2 -4 -2
-4 0 12 5 3 -2 -4 -2
-3 1 12 5 3 -2 -4 -2
-2 2 12 5 3 -2 -4 -2
-2 2 11 5 3 -2 -4 -3
-4 1 11 5 3 -2 -4 -3
-5 -2 11 6 3 -2 -4 -4
-7 -3 11 6 3 -2 -4 -4
-9 -5 11 6 3 -2 -4 -4
-10 -6 10 7 3 -2 -5 -5
-11 -7 10 6 2 -2 -5 -5
-12 -8 9 5 2 -3 -6 -5
-13 -9 9 5 1 -3 -6 -5
-14 -10 9 4 1 -3 -6 -5
-14 -9 8 4 0 -3 -7 -5
-13 -6 9 6 1 -2 -5 -3
-11 -2 10 7 2 1 -4 -2
-10 2 11 9 3 2 -2 1
-8 5 12 11 4 4 0 3
-7 6 13 12 5 5 1 4
-7 3 13 11 4 3 0 3
-7 1 12 10 3 2 -2 2
-7 -3 12 9 3 1 -2 1
-7 -6 12 8 2 0 -3 0
-6 -7 11 7 1 -2 -4 -2
-5 -5 11 8 3 -2 -4 0
-4 -4 11 8 4 0 -3 0
-3 -2 11 9 6 0 -3 1
-2 0 11 9 7 0 -3 1
0 1 12 10 8 1 -2 2
-2 0 12 10 7 0 -3 2
-3 -2 12 9 6 0 -3 3
-4 -3 12 9 6 -2 -4 3
-5 -4 12 9 5 -2 -4 3
-6 -5 11 8 4 -3 -5 4
-5 -5 11 8 4 -3 -5 4
-4 -4 11 8 5 -3 -5 3
-3 -4 11 8 5 -3 -5 3
-2 -4 11 8 5 -3 -5 3
0 -2 11 9 6 -2 -4 2
0 0 12 11 8 1 -2 3
0 2 12 12 9 2 0 4
0 3 13 13 11 4 1 4
0 5 13 14 12 5 2 5
-2 6 14 15 13 6 3 6
-2 5 14 15 13 6 2 5
-3 5 13 14 12 5 1 4
-3 4 13 14 12 5 1 3
-3 4 13 14 12 5 0 2
-4 3 12 13 11 4 -2 1
-3 3 12 13 11 4 0 2
-2 4 12 13 12 5 1 3
0 4 12 13 12 6 1 3
1 4 12 13 12 6 2 4
2 5 11 13 13 7 3 5
2 5 11 13 13 7 3 5
1 4 11 14 14 7 3 6
0 4 11 15 14 7 3 6
0 4 11 15 14 7 3 6
-2 3 12 16 15 8 4 7
0 5 12 16 15 8 4 8
2 6 12 17 15 9 5 10
3 8 12 17 15 9 6 11
4 9 12 17 15 9 6 12
5 10 13 18 16 10 7 13
5 10 13 18 18 11 8 13
6 11 14 19 19 12 10 14
6 12 14 20 21 13 11 14
6 12 14 20 22 14 12 14
7 13 15 21 23 15 13 15
7 14 15 21 23 15 13 15
8 16 14 21 22 15 13 16
8 17 13 21 22 15 13 17
8 18 13 21 22 15 13 17
9 19 12 20 21 16 13 18
9 19 12 20 21 16 13 18
9 18 12 21 21 17 14 18
9 18 12 21 21 17 15 18
9 18 12 21 21 17 15 18
10 17 11 22 22 18 16 18
11 18 11 21 22 18 17 18
13 19 11 20 22 19 18 19
14 19 11 19 22 19 19 20
16 20 11 18 22 19 20 20
17 21 10 16 22 20 21 21
17 20 9 15 20 19 20 21
16 19 7 13 19 17 19 21
15 19 6 11 17 16 19 21
15 18 5 9 16 15 18 21
15 18 4 8 15 14 17 21
17 19 4 8 15 14 17 22
19 21 3 7 14 14 17 23
21 22 3 6 13 14 17 23
23 24 3 6 13 14 17 24
23 25 2 5 12 14 18 25
21 23 1 5 11 13 17 25
19 22 0 4 10 12 16 24
17 20 0 3 9 12 16 24
14 19 -2 3 8 11 15 24
13 18 -3 2 7 10 14 23
15 19 -3 2 7 10 14 23
17 20 -3 1 7 9 14 23
18 20 -3 0 7 9 14 23
20 21 -3 0 7 9 14 23
21 22 -2 -2 7 8 13 22
21 21 -2 -2 7 8 12 21
20 20 -3 -3 6 7 11 19
19 19 -3 -4 6 6 11 18
19 18 -3 -4 6 6 10 17
18 17 -4 -5 5 5 9 16
17 15 -4 -5 5 5 8 15
16 14 -4 -5 4 4 7 13
15 12 -4 -5 4 4 6 12
14 11 -4 -5 4 4 5 11
13 10 -3 -5 3 3 4 10
13 10 -2 -3 4 3 4 10
12 10 1 -2 6 3 5 10
11 10 2 1 7 3 6 10
11 10 3 2 8 3 6 10
9 10 4 3 9 4 7 9
8 8 4 3 8 3 6 8
6 5 4 2 6 2 5 6
4 3 4 1 5 1 5 4
2 0 4 1 4 0 4 2
1 -2 3 0 3 -2 3 1
3 1 3 0 4 -2 2 1
4 2 3 0 5 0 1 2
6 4 3 0 6 1 1 3
7 5 3 0 7 1 0 3
6 4 4 1 7 2 -2 3
2 1 3 0 5 1 -4 2
-3 -3 2 -3 3 0 -5 0
-7 -7 1 -4 1 0 -7 -3
-11 -10 0 -5 -2 -2 -8 -5
-13 -12 -2 -6 -3 -3 -9 -6
-12 -12 0 -6 -3 -3 -9 -6
-11 -11 1 -5 -2 -4 -8 -5
-10 -11 2 -4 -2 -5 -8 -4
-9 -11 3 -4 -2 -5 -8 -4
-8 -10 4 -3 0 -6 -7 -3
-8 -9 4 -3 0 -6 -7 -3
-7 -8 4 -3 0 -6 -7 -3
-7 -8 4 -3 0 -6 -7 -3
-7 -7 4 -3 0 -6 -7 -3
-6 -6 4 -4 -2 -5 -7 -2
-5 -6 4 -4 -2 -5 -7 -2
-4 -6 4 -4 -2 -5 -7 -3
-4 -6 4 -4 -2 -5 -7 -4
-3 -6 4 -4 -2 -5 -7 -4
-2 -6 3 -3 -3 -5 -8 -5
-2 -6 4 0 -2 -4 -8 -5
0 -5 5 1 0 -3 -7 -4
1 -4 5 3 1 -3 -6 -4
1 -4 6 4 2 -2 -6 -4
2 -3 7 5 3 0 -5 -3
1 -4 7 5 3 0 -5 -3
0 -6 7 5 3 -2 -6 -4
-2 -7 7 5 3 -2 -6 -4
-3 -8 7 5 3 -2 -6 -4
-4 -9 8 5 2 -3 -7 -5
-4 -7 8 6 3 -2 -6 -5
-4 -6 9 7 4 0 -5 -4
-4 -4 10 8 4 1 -5 -3
-4 -3 10 9 5 2 -4 -3
-3 -2 11 10 6 3 -3 -2
-3 -2 11 10 6 3 -3 -2
-2 -2 10 10 6 3 -3 -2
0 -2 10 10 6 3 -3 -2
0 -2 10 10 6 3 -3 -2
1 0 9 10 7 4 -3 -3
0 0 9 10 7 4 -3 -3
-2 0 9 10 7 4 -2 -3
-3 0 9 10 7 4 -2 -3
-4 0 9 10 7 4 -2 -3
-5 0 10 10 8 5 0 -4
-5 0 10 10 8 5 0 -3
-5 1 11 11 9 6 1 -2
-5 1 11 11 10 7 1 -2
-5 1 11 11 10 7 1 0
-5 2 12 12 11 8 2 1
-5 1 12 12 11 8 2 1
-6 0 12 12 11 7 1 0
-6 -2 12 12 11 7 1 0
-6 -3 12 12 11 7 1 0
-7 -4 11 11 11 6 0 -2
-7 -4 11 11 11 6 0 -2
-6 -3 11 12 11 7 1 0
-6 -2 11 13 11 8 1 0
-6 -2 11 13 11 8 1 0
-5 0 11 14 12 9 2 1
-5 1 11 14 12 9 2 1
-5 2 11 13 12 8 2 1
-5 2 11 12 12 8 2 1
-5 3 11 12 12 8 2 1
-6 4 11 11 11 7 2 0
-6 3 10 9 11 7 2 0
-6 1 9 8 10 6 1 0
-6 0 9 7 10 6 1 0
-6 -2 8 5 10 6 1 0
-7 -3 7 4 9 5 0 -2
-5 0 8 4 10 6 1 0
-3 2 9 5 11 7 2 1
0 4 9 6 11 7 2 1
2 6 10 6 12 8 3 2
3 7 11 7 13 9 4 3
3 7 11 6 13 8 4 2
2 6 11 5 12 7 3 1
2 5 11 5 12 7 2 1
2 5 11 4 12 6 2 0
1 4 10 3 11 5 1 -2
1 4 10 3 11 5 1 -2
0 3 9 3 10 5 1 -2
0 2 8 3 10 5 1 -2
0 2 8 3 10 5 1 -2
-2 1 7 4 9 5 0 -3
-3 0 7 4 9 5 0 -3
-4 -2 6 3 9 5 0 -3
-5 -3 6 2 9 5 0 -3
-6 -4 6 2 9 5 0 -3
-7 -5 5 1 8 5 1 -2
-7 -5 5 1 8 4 1 -3
-6 -5 4 0 7 3 0 -4
-6 -5 4 -2 7 3 -2 -4
-6 -5 4 -2 7 2 -2 -5
-5 -6 3 -3 6 1 -3 -6
-5 -6 3 -3 6 1 -3 -6
-5 -7 2 -3 5 0 -3 -7
-5 -8 1 -3 4 0 -3 -7
-5 -8 1 -3 4 0 -3 -7
-6 -9 0 -3 3 -2 -3 -8
-4 -7 1 -3 3 -2 -3 -8
-3 -5 2 -3 4 0 -3 -7
-2 -3 3 -3 4 0 -3 -6
1 0 4 -3 4 0 -3 -6
2 1 5 -4 5 1 -2 -5
2 0 5 -4 5 1 -2 -5
1 -2 4 -4 4 1 -2 -6
0 -2 4 -4 4 1 -2 -6
0 -3 4 -4 4 1 -2 -6
-2 -4 3 -5 3 0 -3 -7
-2 -4 3 -5 3 0 -3 -7
-3 -3 2 -5 3 0 -3 -7
-3 -3 2 -5 3 0 -3 -7
-3 -3 2 -5 3 0 -3 -7
-4 -2 1 -6 2 -2 -3 -6
-4 -3 1 -6 2 -2 -3 -6
-5 -4 1 -6 2 -2 -3 -6
-6 -5 1 -6 2 -2 -3 -6
-6 -6 1 -6 2 -2 -3 -6
-7 -7 0 -7 2 -2 -3 -6
-7 -7 0 -7 2 -2 -3 -6
-7 -7 1 -8 1 -3 -3 -7
-7 -7 1 -8 1 -4 -3 -8
-7 -7 1 -8 1 -4 -3 -8
-8 -8 2 -9 0 -5 -3 -9
-8 -8 2 -8 1 -4 -3 -8
-7 -7 2 -7 2 -3 -2 -7
-6 -6 3 -6 3 -2 0 -6
-6 -6 3 -5 4 0 0 -5
-5 -5 4 -4 5 1 1 -4
-3 -4 4 -3 5 1 1 -4
-2 -3 4 -3 5 1 1 -4
1 0 3 -2 5 1 1 -5
3 1 3 0 5 1 1 -5
4 2 2 1 4 0 1 -6
2 1 2 1 4 0 1 -6
1 0 2 1 4 0 1 -6
0 -3 2 0 4 0 0 -6
-3 -4 2 0 4 0 0 -6
-4 -5 3 -2 4 -2 -2 -7
-5 -6 3 -2 4 -2 -2 -7
-6 -7 3 -2 4 -2 -2 -7
-8 -8 3 0 4 -2 -2 -7
-9 -9 3 0 4 -2 -2 -7
-10 -10 2 1 4 -2 -2 -7
-8 -8 2 1 4 0 0 -7
-7 -7 2 1 5 0 0 -7
-6 -5 2 2 6 1 1 -7
-4 -3 2 2 6 2 2 -7
-3 -2 3 3 7 3 3 -6
-3 -2 4 3 7 3 3 -6
-3 0 4 4 8 3 3 -5
-2 1 5 5 9 3 3 -4
-2 1 6 5 9 3 3 -4
0 2 7 6 10 3 4 -3
0 1 7 6 10 3 4 -3
0 1 8 7 10 3 4 -3
0 0 9 8 11 3 4 -3
0 -2 9 8 11 3 4 -3
0 -3 10 9 12 4 4 -2
1 -2 8 9 12 5 5 0
1 0 7 9 12 6 6 0
2 2 6 9 12 7 7 1
3 3 4 9 12 8 8 2
4 4 3 8 13 9 9 3
4 4 3 8 13 9 9 3
4 4 3 8 13 9 9 3
4 3 3 8 13 9 9 3
4 3 3 8 13 9 9 3
4 2 2 9 13 8 9 3
5 2 2 9 13 8 9 3
5 2 2 9 12 7 8 3
6 2 2 9 11 6 7 2
7 2 2 9 11 6 7 2
8 2 2 8 10 5 6 1
6 0 1 6 9 4 5 0
4 -4 0 5 8 3 4 -2
2 -6 -3 4 7 2 3 -4
0 -9 -4 2 6 1 2 -5
-2 -11 -5 1 5 0 1 -6
-2 -10 -5 1 4 0 1 -6
-2 -9 -5 1 4 0 1 -6
-3 -8 -4 0 3 0 0 -7
-3 -7 -4 0 2 0 0 -7
-4 -6 -3 -2 1 -2 -2 -8
-4 -7 -3 -2 1 -3 -3 -8
-5 -8 -3 -2 0 -4 -3 -9
-6 -10 -4 -2 -2 -6 -4 -10
-6 -11 -4 -2 -2 -7 -5 -10
-7 -12 -5 -3 -3 -8 -6 -11
-10 -14 -5 -3 -3 -8 -6 -12
-12 -16 -5 -3 -4 -9 -7 -12
-14 -18 -6 -3 -5 -10 -8 -13
-16 -20 -6 -3 -5 -10 -8 -14
-18 -22 -7 -4 -6 -11 -9 -15
-16 -20 -7 -4 -6 -11 -9 -15
-15 -19 -7 -4 -6 -11 -9 -15
-14 -17 -7 -4 -6 -11 -9 -14
-12 -15 -7 -4 -6 -11 -9 -14
-11 -14 -7 -4 -6 -10 -9 -13
-11 -14 -7 -4 -6 -10 -9 -13
-10 -14 -7 -4 -6 -10 -9 -13
-9 -14 -7 -4 -6 -10 -9 -13
-9 -14 -7 -4 -6 -10 -9 -13
-8 -15 -7 -5 -6 -10 -8 -13
-9 -15 -7 -5 -6 -10 -8 -13
-10 -15 -7 -5 -6 -10 -8 -13
-12 -16 -6 -5 -6 -9 -7 -13
-13 -16 -6 -5 -6 -9 -7 -13
-14 -17 -5 -4 -5 -8 -6 -12
-12 -15 -5 -4 -5 -8 -6 -12
-11 -14 -5 -4 -5 -8 -6 -12
-10 -12 -5 -4 -4 -7 -6 -12
-8 -10 -5 -4 -4 -7 -6 -12
-7 -9 -4 -3 -3 -6 -5 -11
-8 -10 -4 -3 -3 -6 -5 -11
-9 -11 -4 -3 -3 -6 -5 -11
-10 -13 -5 -3 -4 -7 -6 -12
-11 -14 -5 -3 -4 -7 -6 -12
-12 -15 -6 -3 -5 -8 -7 -13
-11 -14 -6 -3 -5 -8 -7 -13
-10 -12 -6 -3 -5 -8 -7 -13
-9 -11 -6 -3 -5 -8 -7 -13
-8 -9 -6 -3 -5 -8 -7 -13
-7 -8 -5 -3 -5 -9 -8 -13
-7 -9 -5 -3 -5 -9 -8 -13
-7 -11 -5 -3 -5 -9 -8 -13
-8 -12 -5 -3 -5 -8 -8 -13
-8 -14 -5 -3 -5 -8 -8 -13
-9 -15 -5 -2 -4 -7 -8 -12
-11 -15 1 4 0 -6 -8 -13
-13 -15 6 9 3 -6 -8 -14
-15 -15 10 13 6 -5 -9 -15
-16 -15 15 18 9 -4 -9 -16
-16 -14 21 26 16 2 -7 -15
-11 -9 28 38 29 13 2 -10
-6 -4 35 52 42 24 11 -4
0 1 44 64 55 35 19 2
5 6 51 77 68 47 28 7
11 10 54 85 78 58 38 16
21 14 48 81 84 69 53 30
30 17 42 77 89 79 68 44
40 21 34 74 94 91 82 58
50 24 28 71 99 102 97 71
56 25 16 56 93 105 104 80
55 20 -7 23 68 93 99 80
54 14 -29 -9 45 80 93 79
53 8 -52 -40 20 68 87 78
52 3 -73 -73 -4 56 81 78
47 -3 -92 -101 -31 33 65 68
35 -8 -101 -124 -63 -5 32 44
24 -12 -111 -147 -95 -41 0 18
12 -16 -121 -171 -127 -79 -33 -7
1 -21 -132 -193 -158 -116 -66 -31
-7 -24 -136 -202 -174 -138 -87 -48
-9 -25 -128 -188 -162 -132 -86 -50
-11 -26 -118 -174 -152 -124 -85 -53
-13 -28 -109 -159 -141 -118 -83 -56
-14 -29 -101 -145 -130 -111 -82 -59
-16 -30 -92 -131 -118 -104 -79 -60
-13 -31 -83 -116 -106 -94 -72 -57
-11 -32 -74 -103 -94 -85 -65 -53
-8 -33 -65 -89 -81 -74 -58 -50
-6 -34 -57 -74 -69 -64 -52 -47
-4 -34 -49 -62 -58 -55 -45 -43
-5 -30 -40 -52 -49 -47 -38 -37
-7 -26 -32 -43 -39 -38 -32 -32
-8 -23 -25 -33 -29 -30 -26 -27
-10 -19 -17 -23 -20 -22 -19 -22
-11 -16 -12 -17 -14 -17 -15 -19
-10 -14 -9 -14 -13 -16 -14 -18
-10 -12 -7 -11 -11 -14 -13 -17
-9 -10 -4 -9 -10 -13 -11 -15
-8 -9 -2 -6 -8 -11 -10 -14
-7 -7 1 -4 -7 -10 -9 -13
-8 -7 1 -4 -6 -10 -9 -13
-9 -7 1 -4 -6 -9 -9 -13
-10 -7 1 -4 -5 -8 -8 -13
-11 -7 1 -4 -4 -8 -8 -13
-12 -8 1 -3 -3 -7 -7 -13
-12 -8 2 -2 -2 -7 -7 -13
-12 -8 3 0 -2 -6 -7 -12
-12 -8 5 1 0 -5 -6 -11
-12 -8 6 2 1 -5 -6 -11
-11 -8 7 3 2 -4 -5 -10
-10 -7 7 3 2 -4 -5 -10
-9 -6 7 3 3 -3 -5 -10
-7 -5 7 4 4 -2 -4 -10
-6 -4 7 4 4 -2 -4 -10
-5 -3 7 5 5 0 -3 -10
-6 -4 6 4 5 0 -3 -10
-7 -4 6 4 5 0 -3 -10
-8 -5 5 3 5 -2 -3 -10
-9 -6 4 2 5 -2 -3 -10
-10 -7 3 1 4 -3 -3 -11
-10 -7 3 1 5 -2 -2 -10
-10 -7 4 2 5 -2 -2 -9
-10 -6 5 3 6 0 0 -8
-10 -6 5 3 7 1 1 -7
-9 -5 6 4 8 2 2 -6
-9 -5 6 4 7 2 2 -6
-8 -5 6 4 7 1 2 -6
-7 -4 5 4 6 0 1 -6
-7 -4 5 4 5 0 1 -6
-6 -3 4 4 4 -2 0 -6
-6 -4 4 4 4 -2 0 -6
-6 -4 4 4 4 -2 0 -7
-7 -5 4 4 4 -2 -2 -8
-7 -6 4 4 4 -2 -2 -8
-8 -7 3 3 4 -3 -3 -9
-7 -6 3 3 4 -3 -3 -9
-7 -6 3 3 4 -2 -2 -8
-6 -5 4 3 4 0 0 -7
-5 -4 4 3 4 0 0 -7
-4 -3 5 4 5 1 1 -6
-6 -4 5 4 5 0 0 -6
-7 -5 5 4 5 0 0 -6
-9 -7 5 4 5 -2 -2 -7
-10 -8 5 4 5 -3 -3 -7
-12 -9 4 4 4 -4 -4 -8
-10 -8 4 5 4 -4 -4 -8
-9 -6 5 5 5 -3 -3 -8
-7 -5 6 6 6 -2 -2 -7
-6 -3 6 7 6 -2 -2 -7
-4 -2 7 8 7 0 0 -6
-3 0 8 9 8 1 1 -5
-2 2 8 10 9 2 1 -5
1 3 9 11 10 3 2 -4
2 5 10 12 11 4 3 -3
3 6 11 13 12 5 4 -2
1 4 10 12 12 5 4 -2
-2 2 10 12 11 4 3 -2
-4 0 9 11 10 3 2 -3
-5 -2 8 10 10 3 2 -3
-7 -4 7 9 9 2 1 -4
-7 -4 7 9 9 2 1 -4
-7 -4 7 10 10 2 1 -4
-7 -4 7 10 10 3 1 -4
-7 -4 7 11 11 3 1 -4
-8 -3 8 12 12 4 2 -5
-7 0 8 12 12 4 2 -4
-7 2 8 12 13 5 3 -4
-6 3 9 13 13 5 3 -3
-5 5 9 13 14 6 4 -2
-4 7 10 14 15 7 5 0
-4 6 10 14 15 7 5 0
-4 5 10 14 15 7 5 0
-3 4 10 14 15 7 5 0
-3 3 10 14 15 7 5 0
-2 2 11 13 15 7 6 1
-2 2 11 13 15 7 6 1
-2 2 10 13 15 7 6 1
-2 2 10 13 15 7 6 1
-2 2 9 13 15 7 6 1
-3 3 8 13 14 7 6 1
0 5 8 14 15 8 7 2
3 8 9 15 17 9 8 3
5 10 9 16 18 10 9 4
7 12 10 18 20 12 11 5
9 14 11 19 21 13 12 6
9 14 11 18 21 13 12 6
9 13 10 18 20 13 12 6
10 13 10 17 20 13 12 6
10 12 9 16 19 13 12 6
11 11 8 15 18 12 12 6
11 11 8 15 18 12 12 7
11 12 8 15 19 12 13 9
11 12 8 15 19 13 13 10
11 13 8 15 20 13 14 12
11 14 7 16 21 14 15 13
11 14 6 14 21 14 15 13
11 14 5 13 20 14 15 13
11 15 4 11 20 14 15 14
11 15 2 10 19 14 15 14
11 16 1 8 18 13 16 15
13 17 1 8 18 13 16 15
15 19 1 8 18 13 17 16
17 20 1 8 18 14 17 16
19 22 1 8 18 14 18 17
21 23 2 8 18 15 19 18
21 22 2 7 17 14 19 18
21 22 2 6 16 14 18 18
21 21 2 5 15 13 18 18
21 20 2 4 13 12 17 18
20 19 1 3 12 11 16 17
20 19 0 2 11 11 16 17
20 19 -2 2 11 10 16 17
20 18 -3 1 10 10 15 16
20 18 -4 0 9 9 15 16
20 17 -5 -2 8 8 14 15
20 17 -5 -2 8 8 14 15
20 17 -4 -2 8 8 14 15
20 17 -4 0 8 8 14 16
20 17 -3 0 8 8 14 16
19 18 -2 1 7 7 14 17
18 17 -2 1 7 7 13 16
17 17 -2 1 6 6 12 15
16 16 -2 1 6 6 11 14
14 15 -2 1 5 5 9 12
13 14 -3 1 4 4 8 11
12 12 -3 1 4 4 8 10
11 10 -3 1 4 3 7 9
10 8 -3 1 4 3 7 8
8 6 -3 1 4 2 6 6
7 4 -3 1 4 1 5 5
7 4 -3 1 4 1 5 4
7 4 -2 1 4 1 5 4
8 5 -2 2 4 1 4 3
8 5 0 2 4 1 4 2
9 6 1 3 3 0 3 1
9 6 1 3 3 0 3 1
9 6 1 3 3 0 3 1
10 6 1 3 4 1 3 1
10 6 1 3 4 1 3 1
11 7 2 3 5 2 4 0
10 5 2 3 5 2 3 -2
8 3 2 3 5 2 2 -3
7 2 2 3 4 1 1 -4
6 0 2 3 4 1 -2 -6
4 -3 1 3 3 0 -3 -7
3 -3 1 2 3 -2 -3 -7
2 -3 1 1 2 -2 -3 -7
1 -4 1 0 2 -3 -4 -8
0 -4 1 -3 1 -4 -4 -8
-2 -5 0 -4 0 -5 -5 -9
-2 -6 0 -4 0 -5 -5 -9
-2 -7 0 -4 0 -5 -5 -9
-3 -8 0 -4 0 -5 -5 -9
-3 -10 0 -4 0 -5 -5 -9
-4 -11 1 -3 0 -4 -5 -10
-2 -8 1 -2 0 -4 -4 -9
0 -6 1 -2 0 -3 -4 -8
2 -4 2 0 1 -3 -3 -7
3 0 2 1 1 -2 -2 -6
5 2 3 2 2 0 0 -5
4 1 3 1 2 -2 -2 -6
3 0 3 1 2 -2 -3 -7
2 -2 3 0 2 -3 -4 -8
1 -4 3 -2 2 -4 -5 -10
0 -5 2 -3 2 -5 -6 -11
0 -5 2 -3 2 -5 -6 -11
-2 -5 2 -3 2 -5 -6 -11
-3 -5 3 -3 2 -4 -5 -11
-4 -5 3 -3 2 -4 -5 -11
-5 -6 4 -2 2 -3 -4 -10
-5 -6 4 -2 2 -3 -4 -10
-6 -6 5 0 2 -3 -4 -9
-6 -6 5 0 3 -2 -4 -9
-7 -6 6 1 3 -2 -4 -8
-8 -6 7 2 4 0 -3 -7
-7 -6 7 2 4 0 -3 -7
-5 -5 7 2 4 0 -3 -6
-3 -4 7 2 4 1 -3 -6
-2 -3 7 2 4 1 -3 -5
1 -2 7 3 4 2 -2 -4
1 -2 7 3 4 2 -2 -4
2 -2 7 4 5 3 0 -3
2 0 8 5 6 3 0 -3
3 0 8 6 7 4 1 -2
4 1 9 7 8 5 2 0
3 1 9 7 8 5 2 0
2 1 9 7 8 5 2 0
1 1 9 8 8 5 2 0
-2 1 9 8 8 5 2 0
-3 1 10 9 9 6 2 1
-3 1 10 9 9 6 2 1
-3 1 10 9 9 6 2 0
-3 1 10 8 9 6 2 0
-3 1 10 8 9 6 2 -2
-3 0 9 7 9 6 2 -3
-3 0 9 7 9 6 2 -3
-3 0 9 7 9 6 2 -2
-2 0 9 8 9 6 2 0
-2 0 9 8 9 6 2 1
0 1 10 9 8 6 1 2
1 2 10 9 9 6 1 2
2 3 10 9 10 7 2 2
3 4 10 9 11 7 2 2
4 6 10 9 12 8 3 2
5 7 9 10 13 9 4 1
5 7 9 10 13 9 4 1
5 6 9 10 13 9 4 1
4 6 9 9 13 9 4 1
4 5 9 9 13 9 4 1
3 4 9 8 12 10 4 0
3 4 9 8 12 10 4 0
3 4 9 8 12 10 4 0
3 3 8 8 12 10 4 0
3 3 8 8 12 10 4 0
2 2 7 7 11 9 3 1
2 2 7 7 11 9 3 1
1 1 7 7 11 9 3 1
1 0 7 7 10 8 2 1
0 -2 7 7 10 8 2 1
-2 -3 8 7 9 7 1 0
-2 -3 8 7 9 7 1 0
-2 -3 8 7 9 7 1 0
-2 -2 8 6 9 6 0 -2
-2 -2 8 6 9 6 0 -2
-2 0 7 5 8 5 -2 -3
-2 0 7 5 8 5 -2 -3
-2 0 7 5 8 5 -2 -3
-3 0 7 5 8 5 0 -3
-3 0 7 5 8 5 0 -3
-4 0 6 5 8 5 1 -2
-4 0 5 4 8 5 1 -2
-4 -2 4 3 7 5 0 -2
-4 -2 3 2 7 5 0 -3
-4 -3 2 1 6 5 -2 -3
-5 -4 1 0 5 4 -3 -4
-3 -2 2 1 5 4 -3 -4
0 0 3 2 5 4 -2 -3
2 2 4 3 6 5 0 -2
4 4 5 4 6 5 1 0
6 6 6 5 7 6 2 1
5 4 5 5 7 6 2 1
3 2 3 4 6 5 2 1
2 0 1 3 5 5 1 0
1 -3 0 2 4 4 1 0
-2 -5 -3 1 3 3 0 -2
-2 -4 -3 1 3 3 0 -2
0 -3 -2 1 3 3 0 -2
0 -2 -2 1 3 3 0 -3
1 0 0 1 3 3 0 -3
2 1 1 0 4 4 -2 -4
2 0 1 0 4 3 -3 -4
1 -2 1 -2 3 2 -4 -4
0 -3 1 -2 3 1 -5 -5
-2 -4 1 -3 2 -2 -6 -5
-3 -5 0 -4 1 -3 -7 -6
-3 -4 0 -4 1 -2 -6 -6
-2 -3 1 -3 1 0 -5 -5
-2 -2 2 -3 2 1 -4 -5
0 0 3 -2 2 3 -3 -4
1 1 4 0 3 4 -2 -3
0 1 4 0 3 4 -2 -3
-2 0 3 0 3 4 -2 -3
-3 -2 3 -2 2 3 -3 -3
-4 -3 2 -2 2 3 -3 -3
-5 -4 1 -3 1 2 -4 -4
-5 -4 1 -3 1 2 -4 -4
-4 -4 1 -3 1 2 -4 -4
-4 -3 1 -3 1 2 -4 -4
-3 -3 1 -3 1 2 -4 -4
-2 -2 0 -3 0 1 -4 -4
-2 -2 0 -3 0 1 -4 -4
-2 -3 0 -3 0 1 -4 -4
-2 -3 0 -4 0 1 -5 -5
-2 -4 0 -4 0 1 -5 -5
-2 -5 -2 -5 0 1 -6 -6
-2 -5 -2 -5 0 1 -6 -6
-2 -4 0 -5 0 1 -5 -6
-2 -4 0 -5 0 2 -5 -5
-2 -3 1 -5 0 2 -4 -5
-2 -2 2 -4 1 3 -3 -4
-2 -2 2 -4 1 3 -3 -4
-2 -3 2 -4 1 3 -3 -4
-2 -4 1 -4 1 3 -4 -4
-2 -5 1 -4 1 3 -4 -4
-2 -6 0 -5 1 3 -5 -4
-2 -6 0 -5 1 3 -5 -4
-2 -6 -2 -5 1 3 -5 -4
-2 -6 -2 -5 1 3 -5 -4
-2 -6 -3 -5 1 3 -5 -4
-3 -5 -4 -6 1 2 -5 -5
-3 -5 -4 -5 2 2 -5 -5
-3 -4 -3 -4 3 2 -5 -4
-2 -4 -2 -3 4 3 -4 -3
-2 -3 0 -2 5 3 -4 -2
0 -2 1 0 6 4 -3 0
0 -2 1 0 6 4 -3 0
0 0 1 0 6 4 -3 0
0 0 2 0 6 5 -3 0
0 1 2 0 6 5 -3 0
0 2 3 0 5 6 -2 -2
0 2 3 0 5 6 -2 -2
0 2 4 1 6 6 -2 -2
1 2 4 2 6 6 -2 -2
1 2 5 3 7 6 -2 -2
2 3 6 4 8 7 0 -2
3 3 6 5 8 8 0 0
5 3 6 6 8 9 0 1
7 3 7 7 8 10 0 2
8 3 7 8 8 11 0 3
10 3 8 9 8 13 0 4
10 3 8 9 9 13 1 5
9 4 8 9 10 13 3 6
8 5 8 9 12 14 5 7
7 6 8 9 13 14 6 8
6 7 7 10 15 15 8 9
7 7 6 9 14 15 8 9
8 8 5 8 13 15 8 9
10 8 4 7 12 14 7 8
11 9 3 6 11 14 7 8
13 10 1 4 10 13 6 7
13 9 1 4 10 13 6 7
13 8 1 3 10 12 5 7
13 7 0 3 9 12 4 6
13 6 0 2 9 11 3 6
13 4 -2 1 8 10 2 5
12 4 -2 1 8 10 2 5
11 3 -2 1 8 9 2 4
9 3 -2 0 7 9 1 4
8 2 -2 0 7 8 1 3
6 1 -3 -2 6 7 0 2
6 0 -3 -2 6 6 -2 1
5 -2 -3 -2 5 5 -3 0
4 -3 -3 -3 5 4 -4 -2
3 -4 -3 -3 4 3 -5 -3
2 -5 -4 -4 3 2 -6 -5
2 -5 -4 -4 3 2 -6 -5
1 -5 -4 -5 3 2 -6 -5
1 -5 -5 -5 2 1 -7 -6
0 -5 -5 -6 2 1 -7 -6
-2 -6 -6 -7 1 0 -8 -7
-2 -6 -6 -7 1 0 -8 -7
-3 -6 -6 -7 1 0 -8 -7
-4 -6 -6 -7 1 0 -8 -7
-5 -6 -6 -7 1 0 -8 -7
-6 -5 -6 -8 0 1 -8 -6
-5 -5 -6 -8 0 1 -8 -6
-4 -5 -6 -8 0 0 -8 -6
-3 -5 -5 -8 -2 0 -8 -7
-2 -5 -5 -8 -2 -2 -8 -7
0 -6 -4 -8 -3 -3 -9 -8
-2 -7 -4 -8 -3 -3 -9 -8
-4 -8 -5 -8 -3 -3 -9 -8
-6 -9 -5 -8 -3 -3 -9 -8
-8 -10 -6 -8 -3 -3 -9 -8
-10 -12 -7 -7 -2 -2 -10 -8
-9 -11 -7 -7 -2 -2 -10 -8
-7 -10 -7 -6 -2 -2 -10 -8
-5 -9 -7 -6 -2 -2 -10 -7
-3 -8 -7 -5 -2 -2 -10 -7
0 -7 -6 -4 -2 0 -9 -6
0 -7 -6 -4 -2 0 -9 -6
0 -7 -6 -4 -2 0 -9 -6
-2 -7 -7 -4 -2 0 -9 -7
-2 -7 -7 -4 -2 0 -9 -7
-3 -7 -8 -4 0 -2 -9 -8
-5 -9 -8 -4 0 -2 -9 -8
-7 -11 -8 -4 0 -2 -9 -8
-9 -13 -8 -3 0 -2 -9 -8
-11 -15 -8 -3 0 -2 -9 -8
-14 -18 -7 -2 -2 -3 -10 -9
-13 -17 -7 -2 -2 -3 -10 -9
-11 -15 -7 -2 -2 -3 -10 -9
-10 -14 -7 -2 -2 -3 -10 -9
-8 -12 -7 -2 -2 -3 -10 -9
-6 -10 -7 0 0 -4 -11 -9
-6 -9 -7 0 0 -4 -11 -9
-6 -8 -7 0 0 -4 -10 -8
-5 -7 -7 0 0 -3 -9 -8
-5 -6 -7 0 0 -3 -8 -7
-4 -4 -6 1 1 -2 -7 -6
-5 -5 -5 2 1 -2 -7 -6
-6 -6 -3 3 2 -2 -7 -6
-8 -7 -2 4 3 -2 -7 -7
-9 -8 1 5 4 -2 -7 -7
-11 -10 3 7 5 0 -8 -8
-10 -8 11 18 15 7 -6 -8
-9 -6 18 28 24 14 -3 -7
-8 -3 26 39 34 20 0 -6
-7 0 33 51 45 27 3 -5
-5 3 42 61 54 34 6 -4
4 6 42 65 64 48 21 10
11 9 40 69 74 61 35 23
19 12 40 73 85 74 51 36
26 16 39 77 95 88 65 50
34 19 37 80 105 101 79 63
43 21 17 56 92 99 85 73
50 23 -4 31 79 97 91 84
58 25 -24 7 67 95 97 94
65 27 -46 -18 54 93 102 104
73 29 -65 -43 39 88 106 113
58 18 -76 -70 2 49 72 88
43 8 -88 -98 -36 9 37 61
28 -3 -99 -124 -74 -30 3 35
13 -14 -110 -152 -112 -69 -32 9
-2 -24 -121 -179 -149 -107 -65 -16
-5 -23 -117 -173 -147 -109 -69 -23
-8 -21 -113 -165 -144 -111 -74 -30
-11 -20 -109 -159 -142 -113 -78 -37
-14 -18 -105 -153 -139 -115 -82 -46
-18 -16 -101 -146 -136 -117 -88 -53
-16 -18 -95 -133 -124 -108 -82 -53
-13 -20 -88 -120 -113 -98 -77 -52
-11 -22 -80 -108 -102 -89 -72 -52
-8 -24 -74 -95 -91 -78 -66 -51
-5 -27 -67 -82 -79 -69 -61 -50
-5 -26 -58 -70 -68 -60 -54 -44
-5 -25 -49 -58 -56 -51 -47 -38
-6 -24 -38 -45 -45 -40 -39 -32
-6 -23 -29 -32 -32 -31 -32 -26
-7 -21 -20 -20 -21 -22 -25 -20
-7 -17 -17 -16 -17 -19 -22 -18
-8 -12 -14 -12 -13 -15 -19 -15
-8 -8 -10 -8 -9 -12 -16 -13
-9 -3 -7 -4 -5 -8 -13 -10
-10 3 -3 1 1 -4 -10 -7
-10 2 -3 2 1 -4 -10 -7
-10 0 -3 3 2 -4 -10 -7
-11 -3 -3 5 2 -4 -10 -7
-11 -5 -3 6 3 -4 -10 -7
-12 -7 -3 8 4 -3 -10 -7
-12 -7 -3 8 4 -3 -9 -7
-11 -7 -2 9 4 -2 -8 -6
-11 -7 -2 9 5 -2 -6 -6
-10 -7 0 10 5 0 -5 -5
-9 -6 1 11 6 1 -3 -4
-9 -6 1 11 7 1 -3 -4
-8 -5 2 12 8 2 -3 -4
-7 -4 3 12 9 3 -3 -4
-6 -3 4 13 10 4 -3 -4
-5 -2 5 14 11 5 -4 -3
-5 -3 5 13 11 5 -4 -3
-6 -4 5 12 10 4 -4 -4
-7 -5 4 11 9 3 -5 -4
-8 -6 4 10 8 2 -5 -5
-9 -8 3 9 7 1 -6 -6
-9 -8 3 9 7 1 -6 -6
-9 -8 3 9 8 1 -5 -6
-10 -7 4 10 9 2 -5 -6
-10 -7 4 10 10 2 -4 -6
-11 -6 5 11 11 3 -3 -6
-10 -5 5 11 11 3 -3 -6
-8 -4 4 11 10 3 -3 -6
-6 -3 4 10 10 3 -3 -5
-4 -2 3 10 9 3 -3 -5
-2 0 2 9 8 2 -3 -4
-3 -2 2 9 8 2 -3 -4
-4 -3 2 9 8 2 -3 -5
-6 -5 2 10 9 2 -4 -5
-7 -6 2 10 9 2 -4 -6
-9 -8 1 11 10 1 -5 -7
-8 -7 2 11 10 1 -5 -7
-7 -6 3 11 10 2 -4 -7
-6 -5 4 11 10 2 -4 -6
-5 -4 5 11 10 3 -3 -6
-4 -3 6 10 11 4 -2 -5
-4 -3 6 10 11 4 -2 -5
-4 -4 6 10 10 4 -3 -5
-4 -4 5 10 10 3 -3 -5
-4 -5 5 10 9 3 -4 -5
-5 -6 4 9 8 2 -5 -6
-5 -6 4 9 8 2 -5 -6
-6 -6 4 9 8 3 -4 -5
-6 -5 5 9 9 3 -4 -5
-7 -5 5 9 9 4 -3 -4
-8 -4 6 9 10 5 -2 -3
