I II V1 V2 V3 V4 V5 V6
12 -18 19 -11 32 -58 13 12
15 -19 19 -12 31 -58 12 10
13 -18 23 -3 38 -53 16 11
11 -21 22 -6 36 -56 12 8
4 -26 27 -8 36 -52 17 14
-2 -28 29 -3 42 -48 22 19
-1 -25 26 -5 39 -49 21 18
7 -20 25 -13 34 -51 19 18
9 -22 26 -9 33 -49 23 20
7 -20 30 0 35 -50 20 16
8 -20 27 -2 35 -51 19 14
8 -23 24 -7 33 -52 17 13
4 -22 25 1 39 -47 21 14
5 -16 25 0 41 -45 21 16
7 -18 26 -7 38 -47 22 17
7 -20 32 -5 41 -44 25 20
6 -19 33 -3 41 -44 26 19
7 -21 28 -9 36 -49 24 17
11 -20 29 -5 39 -48 26 17
10 -18 30 4 42 -50 23 15
7 -17 34 5 44 -49 24 16
7 -19 36 0 41 -50 23 16
7 -19 35 0 43 -48 23 14
12 -16 32 0 41 -49 20 11
11 -21 30 -9 40 -49 22 11
7 -21 29 -7 43 -47 24 12
3 -18 29 -2 45 -44 26 15
7 -18 29 -8 40 -48 24 16
4 -17 31 -3 44 -46 28 19
-5 -18 33 2 46 -45 28 19
-4 -18 29 -3 41 -48 27 16
-1 -20 31 -4 43 -47 28 19
-2 -18 35 1 49 -42 31 19
0 -18 31 0 46 -45 27 16
5 -21 32 -5 43 -47 29 16
7 -25 28 -2 43 -48 27 14
8 -22 31 -2 42 -50 27 13
7 -22 35 -7 40 -50 29 19
8 -21 36 -10 42 -48 34 21
8 -17 38 -6 43 -47 32 19
4 -20 35 -8 40 -49 30 17
1 -21 30 -5 42 -51 30 17
1 -17 32 3 49 -45 34 19
-1 -18 28 2 46 -49 30 17
0 -26 13 -9 42 -54 28 15
7 -20 3 -9 44 -53 28 15
11 -17 4 -7 45 -53 28 13
9 -22 -2 -13 41 -60 24 12
5 -24 -7 -14 39 -59 25 13
2 -17 -9 -5 43 -55 28 16
0 -15 -11 -4 43 -54 29 17
-7 -18 -11 -7 44 -53 30 20
-6 -18 -11 -4 49 -49 32 18
-3 -19 -12 -8 43 -53 29 15
-3 -24 -15 -15 40 -56 28 16
-1 -25 -21 -13 40 -57 28 17
3 -22 -21 -10 40 -58 27 17
5 -22 -22 -15 36 -61 25 15
7 -23 -19 -16 36 -59 26 16
2 -21 -20 -12 39 -60 26 15
-2 -23 -23 -14 38 -63 23 12
-1 -24 -21 -13 40 -61 25 14
1 -20 -19 -8 46 -55 30 16
-2 -20 -17 -8 44 -55 29 18
-2 -26 -19 -17 39 -57 30 18
-2 -24 -23 -15 41 -54 32 21
1 -21 -25 -12 40 -55 32 21
-4 -25 -27 -20 35 -59 29 20
-1 -24 -28 -16 36 -59 32 18
1 -20 -28 -11 36 -59 28 14
-4 -25 -24 -16 32 -62 25 11
-6 -25 -26 -18 34 -60 25 11
-3 -17 -24 -10 39 -56 29 12
-1 -14 -24 -12 39 -57 27 13
1 -22 -23 -21 33 -61 25 13
0 -23 -16 -15 34 -60 26 13
0 -22 -19 -12 36 -59 28 16
2 -25 -23 -15 31 -66 23 14
-1 -27 -21 -17 31 -64 24 13
-8 -22 -21 -9 36 -59 28 14
-5 -24 -26 -14 32 -63 24 11
1 -23 -26 -17 30 -65 22 8
-3 -21 -22 -11 36 -59 25 10
-10 -25 -23 -16 34 -61 23 10
-5 -30 -25 -23 29 -65 22 9
-4 -25 -26 -16 32 -63 25 11
-1 -20 -23 -15 33 -62 25 15
1 -23 -19 -19 29 -66 23 15
-2 -25 -25 -19 30 -64 24 15
-10 -23 -23 -17 34 -63 24 15
-13 -26 -27 -20 31 -67 20 11
-7 -25 -30 -22 30 -69 18 9
2 -18 -25 -13 35 -66 20 8
-1 -17 -27 -15 34 -66 21 10
-3 -23 -29 -26 28 -68 21 12
-3 -21 -24 -25 31 -64 25 15
-8 -23 -18 -25 29 -63 27 15
-7 -23 -23 -26 26 -64 26 17
-2 -22 -25 -21 29 -63 27 16
-8 -21 -26 -19 34 -65 23 12
-9 -23 -25 -17 32 -66 23 12
-7 -23 -24 -17 31 -67 22 11
-3 -21 -23 -12 34 -66 23 10
-2 -21 -25 -15 30 -69 20 7
-2 -23 -22 -17 25 -69 21 10
0 -19 -21 -15 28 -65 24 12
-11 -22 -16 -20 29 -64 25 12
-14 -27 -12 -28 23 -66 22 11
-8 -25 -18 -23 22 -67 23 12
-7 -20 -23 -20 22 -68 19 10
-7 -20 -19 -20 22 -69 19 9
-6 -19 -21 -12 24 -67 20 10
-12 -21 -24 -7 28 -66 20 9
-12 -22 -23 -10 25 -67 17 7
-7 -27 -23 -21 19 -70 14 8
-3 -27 -24 -25 18 -71 15 7
1 -25 -28 -26 17 -72 13 7
2 -26 -30 -28 9 -76 11 7
-6 -25 -26 -25 14 -71 17 11
-12 -18 -17 -18 19 -67 19 12
-13 -20 -17 -21 17 -70 16 11
-11 -25 -22 -19 17 -70 15 9
-9 -21 -21 -14 23 -66 18 10
-9 -22 -23 -18 20 -69 15 8
-4 -28 -24 -26 16 -71 15 9
-7 -27 -21 -26 17 -69 17 10
-7 -22 -11 -21 18 -66 21 12
-8 -24 -5 -25 13 -70 20 12
-7 -26 -18 -23 14 -71 20 11
-5 -22 -23 -17 16 -70 17 8
-6 -21 -20 -18 15 -71 16 8
-3 -20 -19 -20 16 -71 15 7
-6 -18 -19 -15 20 -65 20 9
-11 -23 -21 -15 20 -67 16 7
-13 -30 -16 -24 16 -68 17 10
-5 -23 -18 -23 16 -66 18 9
0 -19 -15 -20 14 -65 18 9
-1 -22 -15 -26 10 -68 16 11
-6 -23 -18 -25 12 -66 19 13
-14 -23 -21 -20 13 -66 17 11
-17 -24 -21 -19 13 -66 16 12
-19 -26 -20 -19 13 -65 17 11
-10 -17 -13 -13 18 -60 20 11
-6 -16 -14 -15 15 -61 18 8
-8 -22 -18 -22 11 -64 15 9
-8 -24 -20 -21 11 -64 16 8
-9 -22 -18 -20 11 -63 15 7
-6 -25 -19 -25 5 -68 12 5
-6 -26 -15 -20 7 -66 13 7
-12 -24 -12 -14 11 -63 14 8
-17 -24 -11 -18 11 -62 14 9
-15 -24 -14 -18 12 -61 16 9
-12 -25 -14 -12 16 -60 13 6
-10 -25 -16 -19 11 -62 10 4
-10 -27 -19 -26 9 -64 10 6
-8 -24 -18 -22 10 -62 13 7
-12 -21 -12 -20 10 -59 14 9
-15 -25 -11 -24 6 -61 14 9
-9 -23 -9 -19 8 -60 14 9
-7 -19 -6 -14 9 -60 11 5
-11 -18 -10 -16 8 -62 9 4
-7 -14 -10 -10 11 -60 10 5
-8 -12 -6 -5 16 -57 11 5
-13 -14 -10 -6 14 -60 9 2
-10 -16 -6 -14 15 -59 11 5
-5 -12 -4 -11 18 -54 15 6
-4 -6 5 -7 20 -51 18 11
-7 -9 8 -12 13 -54 16 12
-11 -10 1 -11 13 -52 18 14
-4 -4 2 -10 13 -52 17 10
0 -2 -2 -6 15 -51 14 9
-1 -3 -1 1 17 -49 16 7
-1 -4 3 11 24 -46 17 7
-7 -6 0 4 23 -48 16 7
-11 -10 5 -4 21 -49 17 9
-9 -7 7 1 24 -46 21 11
-5 -1 5 3 24 -44 21 11
-4 0 5 -3 21 -44 22 12
1 0 2 -2 22 -44 21 13
4 3 -2 2 21 -45 17 10
4 3 -13 2 20 -47 15 7
4 0 -14 -6 18 -48 14 5
5 1 -14 -5 19 -48 13 3
4 -3 -14 -13 12 -53 8 1
7 -6 -12 -21 6 -57 8 3
5 2 -15 -21 9 -54 14 7
-3 2 -13 -18 10 -51 16 10
-6 -2 -15 -27 3 -56 14 8
-4 -3 -20 -28 4 -55 14 7
1 2 -21 -24 3 -57 10 4
0 -1 -13 -24 1 -57 10 4
-2 -6 -7 -22 1 -57 10 2
3 -1 -13 -17 4 -54 11 1
6 0 -12 -22 2 -57 8 1
0 -11 -16 -27 -2 -57 7 3
2 -14 -20 -23 -2 -59 7 2
-1 -14 -20 -24 -3 -59 5 0
0 -16 -20 -33 -11 -66 1 -4
4 -15 -18 -31 -11 -66 0 -3
1 -11 -17 -26 -9 -65 -1 -4
-6 -14 -13 -23 -10 -66 -4 -3
-3 -14 -12 -21 -7 -67 -4 -4
-6 -11 -7 -14 -1 -63 -2 -3
-11 -12 -5 -15 -3 -65 -4 -5
-15 -19 -6 -25 -4 -66 -5 -7
-17 -23 -5 -28 -8 -68 -6 -9
-17 -23 -4 -27 -10 -69 -8 -9
-15 -26 -9 -29 -16 -74 -11 -10
-11 -28 -11 -28 -17 -75 -13 -13
-11 -24 -2 -28 -16 -76 -16 -15
-13 -26 -4 -32 -17 -79 -19 -17
-15 -26 -1 -27 -14 -76 -16 -16
-18 -24 -3 -22 -9 -73 -13 -16
-24 -27 -4 -27 -12 -74 -17 -16
-20 -29 -2 -31 -13 -73 -14 -12
-15 -27 -6 -25 -13 -74 -13 -11
-16 -28 -3 -24 -15 -75 -16 -11
-12 -29 -6 -33 -19 -77 -18 -12
-13 -29 -4 -28 -17 -77 -16 -14
-16 -28 3 -26 -13 -77 -19 -15
-17 -27 -2 -27 -12 -76 -18 -14
-15 -28 -2 -28 -12 -76 -16 -14
-13 -25 4 -25 -10 -76 -16 -16
-21 -27 2 -25 -10 -75 -16 -15
-20 -29 4 -27 -12 -76 -15 -13
-18 -27 4 -22 -7 -74 -13 -12
-19 -27 -2 -25 -9 -76 -15 -12
-16 -32 -3 -28 -15 -79 -16 -14
-16 -31 2 -24 -12 -78 -14 -13
-13 -24 3 -16 -9 -76 -13 -12
-13 -24 4 -16 -9 -78 -14 -12
-19 -29 7 -11 -7 -78 -13 -13
-23 -28 9 -8 -1 -75 -12 -13
-24 -30 11 -6 1 -73 -14 -16
-20 -36 14 1 6 -60 -14 -20
-18 -37 22 22 17 -38 -12 -23
-13 -37 24 35 25 -25 -13 -23
-5 -43 22 36 24 -20 -15 -26
4 -42 26 59 41 1 -2 -20
17 -32 38 102 72 30 16 -8
32 -23 39 125 102 64 43 12
52 -14 34 145 128 101 74 35
79 3 30 181 161 143 111 65
106 25 14 170 180 186 156 105
132 43 -20 112 176 222 206 154
159 67 -56 56 167 259 252 198
180 90 -84 11 160 291 290 234
191 105 -112 -38 140 316 317 266
199 115 -132 -89 122 332 336 290
196 113 -147 -145 83 316 322 286
168 106 -152 -214 34 282 288 267
127 104 -146 -260 0 257 252 245
87 108 -128 -278 -12 241 219 218
58 114 -116 -289 -22 227 192 198
27 100 -96 -296 -46 194 151 160
-10 81 -74 -298 -79 142 93 109
-44 62 -65 -305 -125 70 22 49
-69 36 -64 -306 -162 13 -35 1
-81 19 -58 -294 -172 -12 -64 -28
-79 7 -57 -273 -169 -22 -79 -44
-74 -5 -54 -246 -160 -12 -76 -48
-69 -7 -49 -215 -142 4 -67 -45
-59 -5 -41 -186 -123 22 -57 -42
-53 -2 -40 -167 -107 34 -50 -37
-44 -2 -41 -148 -90 48 -37 -29
-38 -3 -37 -124 -70 65 -26 -21
-35 -7 -31 -101 -55 74 -18 -17
-23 -11 -27 -80 -42 81 -14 -16
-14 -16 -15 -54 -27 92 -6 -14
-7 -18 -10 -38 -17 98 -6 -17
-1 -21 -8 -30 -13 97 -6 -18
-4 -25 -2 -25 -7 100 -3 -17
-4 -23 5 -16 0 105 2 -17
-10 -24 5 -12 3 104 2 -16
-5 -25 8 -14 -1 101 -1 -16
-2 -23 9 -9 1 102 3 -10
-6 -27 6 -10 1 98 2 -10
-8 -30 6 -15 0 96 1 -9
-7 -29 8 -8 4 101 5 -9
-7 -27 7 1 9 102 3 -11
-7 -28 14 3 10 100 2 -11
-3 -27 13 7 14 100 3 -11
-3 -24 15 11 19 103 6 -10
-3 -28 11 8 13 99 5 -11
-6 -34 15 5 8 96 3 -12
-4 -32 17 5 7 93 2 -11
-2 -29 14 9 8 93 4 -7
-5 -33 12 4 5 88 1 -9
-5 -32 15 11 8 91 3 -9
-5 -28 13 18 13 91 3 -12
-9 -30 22 14 16 92 3 -11
-5 -30 18 13 18 93 5 -8
-4 -27 17 16 21 96 7 -8
-3 -29 13 9 16 91 5 -9
1 -33 14 8 12 91 6 -6
4 -33 13 12 15 91 6 -7
4 -31 13 12 14 87 4 -9
2 -36 14 7 7 81 0 -12
-3 -35 21 16 15 85 3 -10
-7 -29 19 28 20 87 5 -9
-4 -29 16 22 22 87 4 -9
-2 -31 15 19 20 88 6 -8
-3 -28 19 24 21 91 11 -5
-2 -28 17 17 17 88 11 -5
3 -34 17 12 10 85 9 -6
7 -32 14 17 10 85 9 -7
7 -27 12 24 12 85 9 -8
7 -28 16 21 9 83 6 -9
5 -29 21 22 13 85 9 -10
-4 -26 23 25 17 87 10 -9
-7 -28 16 22 17 87 9 -10
-3 -30 19 19 16 87 10 -8
1 -24 19 27 22 91 15 -6
1 -28 13 29 18 89 12 -7
3 -33 13 22 17 88 13 -6
8 -29 17 28 18 88 15 -5
10 -27 17 29 15 82 10 -10
11 -29 11 28 11 77 6 -14
11 -26 17 33 16 81 10 -13
4 -21 18 38 25 86 11 -12
1 -21 20 38 26 87 11 -11
3 -25 19 36 25 87 12 -11
8 -23 19 40 30 89 15 -9
11 -21 15 45 26 88 14 -8
8 -26 15 37 23 87 17 -5
3 -26 17 36 23 88 18 -5
1 -25 19 37 22 87 17 -5
2 -28 13 38 20 84 15 -5
6 -24 20 47 26 88 19 -4
9 -18 19 52 30 89 18 -6
12 -17 15 51 32 88 16 -7
15 -19 17 52 31 90 18 -6
14 -17 19 50 34 92 20 -5
16 -17 17 49 33 90 20 -5
14 -18 17 54 31 91 22 -2
12 -20 18 61 34 90 23 -1
12 -17 21 58 37 92 25 0
14 -18 18 55 37 90 25 2
16 -18 21 61 41 94 29 3
16 -13 23 71 47 97 30 2
13 -17 22 70 45 96 27 -1
17 -17 21 67 46 98 29 1
22 -9 25 78 51 101 32 3
26 -7 25 73 51 99 32 5
29 -9 23 74 47 98 33 8
26 -10 21 78 49 100 35 10
26 -7 21 82 53 102 38 15
33 -6 18 80 53 100 37 16
33 -10 26 87 56 102 38 13
30 -5 27 92 62 104 37 12
26 -6 25 95 64 105 38 14
26 -6 28 98 68 110 43 19
29 -1 26 107 76 117 48 23
34 -2 22 107 74 116 49 25
38 -3 24 109 72 115 51 27
42 -2 26 110 75 116 51 27
48 -1 22 107 73 113 49 25
48 -2 25 107 72 112 51 26
44 0 29 113 80 118 57 30
47 3 26 115 82 119 56 30
46 4 24 117 80 119 57 33
50 3 22 122 79 122 60 36
55 8 23 126 84 126 66 39
54 10 25 122 85 127 69 42
45 3 23 115 83 127 72 45
45 1 25 118 83 129 73 45
55 5 24 118 79 125 70 44
54 7 31 119 80 127 73 50
48 8 27 125 88 132 78 55
51 10 26 128 88 131 75 51
53 8 23 123 86 127 71 49
57 10 23 122 84 126 71 48
56 12 22 129 87 128 74 50
57 13 19 126 85 127 73 50
54 8 22 123 85 128 76 55
50 11 27 126 86 129 78 58
54 13 25 123 83 127 79 60
55 8 23 117 76 122 73 58
57 7 18 115 77 120 71 56
56 10 15 118 77 120 69 54
52 8 17 116 76 118 69 56
52 13 20 117 80 121 72 58
50 17 17 111 83 121 74 60
50 17 14 105 75 116 71 58
49 14 17 99 71 115 73 60
48 13 17 95 68 113 71 57
53 15 11 87 63 109 66 56
54 11 18 78 56 103 61 53
51 11 20 80 57 102 61 49
44 14 12 80 55 100 59 47
33 8 13 71 50 96 56 44
32 4 12 65 48 93 54 40
32 8 22 67 51 91 54 39
28 8 21 59 45 84 48 37
25 3 15 48 39 80 47 36
28 6 15 48 40 80 47 37
28 7 10 47 36 77 42 33
27 2 14 41 32 69 37 29
25 -2 15 38 29 66 35 24
21 -1 12 37 29 64 31 20
24 0 14 32 26 61 29 20
22 -3 15 29 24 58 26 20
16 -6 24 31 27 57 29 19
11 -7 17 23 20 52 25 18
-4 -12 15 15 19 52 27 22
-10 -9 20 17 21 55 31 25
-8 -14 15 12 14 46 23 19
-1 -13 12 6 8 36 16 14
4 -7 22 10 7 37 16 12
-1 -4 22 14 12 37 15 11
2 -4 16 11 10 34 11 9
4 -2 18 14 12 36 12 10
1 0 21 16 16 36 14 9
-4 -6 16 8 10 34 11 9
-4 -15 16 -2 3 29 9 10
-6 -15 14 0 1 29 8 9
-10 -13 12 1 3 28 10 10
-13 -15 13 -4 0 24 8 10
-14 -14 20 2 5 27 11 11
-18 -11 20 6 8 28 11 10
-20 -14 13 0 3 24 6 7
-14 -14 11 -3 1 21 4 6
-10 -10 13 -2 4 24 6 7
-16 -11 10 -9 2 22 3 8
-17 -13 17 -7 1 21 4 10
-19 -12 14 0 4 23 5 11
-14 -11 12 1 2 17 1 5
-9 -11 12 -3 -4 12 -3 1
-11 -10 17 -3 0 15 2 1
-15 -6 18 1 4 19 3 2
-17 -11 18 -2 2 18 0 2
-15 -13 14 -2 1 14 -1 0
-14 -11 17 -1 3 15 1 -2
-16 -14 14 -7 -2 9 -2 -3
-14 -16 14 -10 -4 8 0 0
-13 -15 11 -10 -6 8 0 0
-18 -17 11 -9 -6 8 1 2
-16 -14 10 -9 -8 6 1 2
-13 -12 16 -3 -2 9 3 2
-18 -6 18 6 4 15 7 4
-22 -9 17 0 6 16 8 4
-21 -10 17 -3 4 14 7 1
-16 -7 23 3 7 19 12 2
-19 -9 16 -2 5 16 10 3
-19 -12 14 -4 4 15 11 3
-13 -8 17 2 8 16 13 2
-16 -10 18 4 7 12 10 -2
-12 -14 21 -1 3 6 1 -7
-9 -12 18 2 8 5 1 -9
-9 -9 15 3 6 2 -4 -15
-5 -8 15 -5 3 -2 -6 -16
-11 -5 12 -5 6 1 -1 -12
-25 1 22 8 16 10 9 -5
-25 1 22 6 14 12 9 -3
-22 -5 17 0 12 10 9 -1
-24 -7 15 4 12 10 7 -2
-22 -7 15 2 12 9 8 -2
-16 -7 18 -1 11 6 6 -1
-12 -4 21 6 14 8 9 -1
-15 -1 17 9 15 8 7 -5
-14 -5 14 3 10 3 3 -9
-19 -4 17 1 12 3 5 -9
-23 -1 28 7 13 5 5 -7
-24 -4 24 6 11 3 3 -5
-19 -7 19 1 12 2 4 -4
-20 -8 17 3 14 2 4 -6
-19 -6 17 4 12 1 3 -6
-15 -7 15 -1 8 -2 1 -4
-13 -2 19 2 9 -2 3 -4
-14 5 19 6 15 2 4 -2
-18 0 15 3 15 2 5 -1
-22 -3 17 4 18 5 6 1
-19 -2 19 7 16 4 5 -1
-20 -4 15 -1 10 1 3 -2
-19 -3 18 5 13 3 8 2
-23 0 22 9 15 4 9 0
-24 0 18 5 15 1 8 -1
-19 -1 17 4 13 -1 8 -1
-16 2 17 12 18 1 8 -2
-15 4 18 9 18 1 4 -7
-13 1 19 4 16 -2 2 -10
-12 -1 19 -1 13 -4 0 -11
-12 2 18 7 15 -2 -1 -12
-12 -1 13 9 14 -5 -2 -13
-17 -2 14 5 14 -5 1 -8
-24 0 18 7 22 1 7 -2
-28 -2 16 6 17 -2 5 -3
-24 -3 13 2 11 -5 1 -5
-22 0 16 3 13 -1 5 -4
-20 6 19 7 17 3 7 -5
-19 6 16 2 14 0 5 -6
-21 2 14 0 13 -1 5 -6
-20 4 17 2 17 2 6 -5
-19 5 18 1 15 3 7 -4
-18 1 16 0 14 2 6 -3
-13 4 20 3 16 2 3 -7
-13 4 19 2 11 -5 -3 -11
-16 0 15 -7 7 -10 -7 -15
-15 5 15 -4 13 -5 -5 -14
-20 5 23 -2 17 0 -2 -14
-24 1 23 -3 15 0 -1 -13
-24 1 24 -2 16 2 1 -9
-22 1 18 -2 16 3 2 -8
-22 1 18 -2 12 3 1 -7
-22 1 18 -6 10 5 0 -6
-23 1 17 -2 12 10 -1 -9
-26 1 13 0 14 14 -3 -12
-26 -1 16 -5 12 16 -6 -15
-23 3 17 -3 13 22 -7 -17
-19 8 14 -1 16 30 -6 -18
-21 2 15 -8 11 33 -10 -18
-15 2 16 -8 9 39 -11 -15
-16 6 16 3 15 50 -5 -12
-26 3 15 1 13 55 -6 -11
-27 -2 17 -4 13 59 -6 -12
-22 -1 16 -5 11 63 -6 -12
-22 0 14 -5 9 66 -8 -13
-24 -5 13 -6 5 66 -10 -15
-22 -3 17 -7 8 74 -9 -15
-20 -1 18 -5 8 76 -13 -19
-24 -1 13 -4 7 78 -14 -18
-35 -3 16 -4 12 84 -11 -15
-32 -1 21 -3 12 88 -8 -15
-26 0 16 -14 6 84 -13 -16
-23 -2 13 -18 4 86 -13 -16
-25 -3 10 -10 6 88 -15 -15
-26 -3 9 -13 2 86 -21 -18
-22 -1 14 -19 -3 82 -24 -18
-26 0 18 -13 3 88 -21 -17
-30 2 14 -13 6 90 -21 -18
-31 -1 10 -9 6 90 -22 -18
-33 -5 7 -9 8 92 -21 -17
-36 -2 13 -8 8 94 -18 -17
-37 -4 11 -13 5 91 -21 -18
-35 -8 11 -20 2 90 -20 -18
-32 -7 14 -14 3 92 -19 -18
-33 -7 12 -14 2 91 -20 -20
-35 -12 3 -22 -3 85 -23 -23
-33 -8 4 -19 -1 86 -22 -24
-30 -4 8 -20 -4 84 -24 -26
-26 -3 7 -20 -7 83 -25 -25
-26 -4 2 -21 -2 87 -23 -24
-29 -3 4 -13 3 90 -20 -23
-30 -4 3 -18 -3 83 -25 -24
-32 -6 5 -23 -6 81 -24 -23
-36 -6 1 -20 -5 81 -25 -21
-34 -5 2 -16 -6 81 -25 -21
-29 -9 0 -20 -8 76 -30 -23
-27 -6 10 -16 -3 79 -28 -23
-29 -1 11 -9 4 83 -25 -22
-34 -4 11 -13 3 81 -25 -21
-38 -8 7 -13 3 82 -24 -21
-35 -7 3 -14 3 83 -21 -22
-33 -9 -1 -24 -4 78 -25 -22
-35 -13 -2 -26 -3 78 -25 -20
-32 -13 1 -25 -5 74 -29 -25
-31 -7 5 -22 -5 74 -28 -21
-28 -2 2 -24 -5 72 -29 -17
-26 0 2 -22 0 73 -26 -19
-28 2 3 -23 -1 72 -28 -22
-34 -2 -1 -23 -1 70 -30 -22
-30 -2 -3 -23 -2 68 -32 -24
-28 -2 -2 -16 1 69 -30 -23
-31 -5 -5 -23 -4 64 -34 -25
-32 -7 -4 -26 -5 64 -32 -23
-29 -4 -2 -25 -3 65 -31 -24
-31 -4 -3 -30 -6 63 -34 -25
-35 -6 -5 -32 -7 62 -34 -23
-35 -4 2 -22 -2 67 -30 -20
-36 -1 -1 -22 -2 67 -31 -24
-34 -3 -4 -25 -4 65 -33 -25
-29 -4 -5 -26 -5 64 -34 -27
-22 1 -2 -22 0 65 -33 -30
-22 0 -2 -25 -2 62 -36 -29
-21 -4 2 -30 -5 59 -37 -27
-23 -3 -3 -30 -5 60 -35 -25
-39 -5 -3 -27 -2 63 -32 -19
-41 -5 -5 -30 -4 62 -34 -16
-33 -4 -1 -27 -3 62 -34 -17
-31 1 1 -26 -2 62 -34 -21
-29 2 -4 -22 -2 61 -33 -21
-30 0 -6 -23 -3 59 -34 -22
-32 0 -2 -23 3 62 -31 -20
-29 1 -7 -28 0 58 -29 -21
-28 -6 -7 -29 -1 56 -25 -19
-30 -7 -7 -25 -1 57 -19 -18
-32 -8 -4 -26 0 55 -15 -18
-33 -13 -5 -28 -3 50 -16 -20
-28 -9 -1 -20 -1 51 -13 -20
-25 -6 0 -16 -2 51 -14 -23
-30 -8 3 -21 -2 50 -13 -24
-32 -7 2 -27 -1 51 -9 -21
-36 -9 6 -24 1 53 -9 -19
-37 -13 -3 -28 -2 48 -12 -19
-28 -9 -10 -28 -4 46 -12 -17
-22 -5 -8 -26 -3 45 -12 -17
-21 -4 -9 -28 -2 45 -12 -19
-27 -8 -8 -30 -1 42 -13 -17
-26 -7 -3 -24 0 42 -12 -16
-25 -2 -4 -22 1 42 -11 -16
-32 -6 -6 -25 0 40 -11 -15
-36 -10 -2 -27 1 38 -11 -16
-34 -10 2 -21 3 40 -10 -16
-32 -14 -8 -27 -3 34 -13 -17
-32 -16 -6 -26 -2 34 -12 -14
-31 -16 -5 -27 1 34 -12 -13
-27 -12 -5 -28 1 35 -11 -14
-29 -14 -3 -27 3 32 -11 -15
-29 -14 -3 -23 3 33 -10 -15
-24 -9 -2 -23 5 34 -10 -14
-18 -8 -7 -29 1 29 -13 -15
-22 -9 -4 -27 4 28 -11 -14
-28 -8 4 -20 9 33 -8 -11
-32 -11 7 -20 10 31 -7 -8
-27 -14 4 -19 8 29 -8 -9
-25 -14 0 -18 10 27 -10 -10
-24 -16 0 -21 7 23 -14 -12
-21 -18 0 -32 3 18 -16 -14
-19 -16 3 -26 6 20 -15 -16
-26 -16 -1 -26 6 20 -16 -18
-33 -17 0 -31 8 21 -14 -14
-35 -18 -2 -33 7 19 -13 -13
-36 -18 -7 -29 6 19 -13 -12
-35 -18 -9 -31 5 17 -15 -11
-32 -18 -9 -33 5 17 -13 -7
-28 -12 -2 -28 6 18 -10 -7
-31 -16 -6 -29 6 16 -15 -10
-28 -18 -5 -35 3 11 -17 -13
-21 -13 -3 -31 5 13 -17 -14
-23 -10 -4 -26 10 13 -16 -14
-29 -8 -3 -25 10 13 -14 -11
-29 -11 -2 -23 12 13 -13 -12
-25 -11 -4 -21 11 11 -16 -13
-24 -15 -5 -26 7 6 -20 -13
-22 -18 -2 -26 6 4 -20 -11
-27 -19 1 -29 5 4 -18 -12
-30 -17 -3 -30 7 7 -16 -8
-23 -16 -4 -30 6 6 -16 -8
-24 -14 0 -26 11 9 -13 -8
-23 -9 -1 -21 17 13 -11 -10
-21 -13 -9 -23 13 9 -15 -11
-29 -14 -8 -20 15 11 -14 -10
-33 -13 -3 -19 16 10 -13 -11
-32 -16 -8 -26 10 4 -15 -13
-29 -18 -12 -31 4 0 -15 -13
-28 -16 -10 -30 5 -2 -16 -16
-27 -17 -2 -31 7 -4 -18 -16
-24 -16 -4 -31 9 -4 -18 -14
-24 -12 0 -22 15 -1 -14 -12
-27 -10 -2 -16 18 1 -14 -13
-29 -13 -1 -18 18 -1 -15 -15
-22 -15 -3 -26 13 -4 -18 -15
-21 -13 2 -22 16 -1 -15 -13
-28 -16 -3 -26 14 -4 -15 -10
-32 -21 -6 -30 13 -4 -12 -6
-28 -14 -8 -32 10 -4 -11 -7
-30 -14 -8 -30 11 -5 -11 -7
-27 -13 -7 -31 9 -8 -14 -7
-23 -12 -9 -27 12 -9 -14 -9
-21 -10 -8 -22 15 -9 -16 -11
-17 -11 -8 -25 13 -12 -18 -12
-16 -12 -13 -33 10 -15 -22 -15
-19 -12 -11 -28 13 -13 -20 -16
-20 -15 -11 -31 12 -14 -20 -14
-27 -18 -7 -28 14 -12 -17 -10
-30 -12 -6 -20 17 -9 -14 -9
-30 -10 -6 -19 18 -8 -13 -7
-29 -8 -9 -23 17 -9 -13 -8
-26 -6 -3 -14 23 -6 -12 -8
-35 -6 -6 -11 22 -8 -15 -10
-33 -5 -6 -17 24 -6 -13 -7
-25 0 0 -13 27 -2 -8 -5
-23 0 2 -8 30 -1 -7 -4
-24 0 -1 -10 24 -8 -9 -5
-20 1 0 -16 23 -8 -8 -3
-16 7 1 -14 26 -6 -5 0
-16 8 1 -12 28 -5 -4 1
-15 2 -4 -17 23 -10 -9 -2
-13 5 0 -9 30 -5 -4 1
-20 9 0 -5 36 -4 -3 2
-24 5 -1 -3 36 -4 -6 2
-21 3 3 -5 34 -6 -7 0
-14 5 3 -3 38 -6 -8 -2
-9 7 -3 -5 38 -9 -12 -7
-5 7 -4 -3 40 -8 -12 -6
-7 12 -6 1 45 -5 -11 -4
-10 13 -9 -6 44 -5 -10 -1
-17 10 -12 -16 40 -6 -9 0
-20 11 -14 -13 42 -4 -7 4
-17 15 -18 -10 40 -6 -7 5
-15 14 -24 -16 37 -8 -8 6
-13 14 -28 -23 34 -10 -7 6
-11 15 -28 -24 33 -10 -8 5
-9 12 -31 -31 25 -18 -14 -1
-2 10 -31 -31 25 -18 -13 0
0 10 -31 -26 28 -19 -13 0
-7 5 -27 -25 28 -21 -16 -1
-14 2 -28 -25 28 -21 -15 0
-10 5 -23 -22 33 -18 -14 0
-7 10 -27 -20 32 -20 -17 -2
-12 6 -28 -23 31 -22 -18 -3
-15 1 -25 -30 28 -24 -20 -5
-11 5 -25 -28 26 -26 -21 -8
-14 3 -33 -25 24 -29 -22 -7
-20 1 -33 -27 23 -30 -23 -4
-16 7 -31 -28 25 -29 -22 -5
-16 8 -34 -35 19 -35 -28 -9
-17 3 -37 -41 16 -40 -31 -8
-15 5 -31 -32 22 -36 -28 -9
-14 8 -27 -28 23 -36 -30 -12
-13 6 -24 -30 25 -37 -32 -12
-13 0 -23 -33 21 -41 -38 -15
-17 0 -19 -30 22 -41 -37 -17
-25 -2 -19 -29 26 -41 -37 -14
-24 -6 -22 -32 24 -42 -37 -13
-18 -1 -20 -35 23 -45 -38 -15
-21 1 -20 -33 26 -42 -36 -13
-26 -1 -23 -35 26 -43 -35 -10
-23 -1 -24 -30 27 -42 -35 -10
-22 1 -25 -26 29 -43 -38 -15
-20 3 -29 -31 26 -47 -41 -17
-14 7 -27 -34 25 -47 -40 -17
-12 10 -21 -36 22 -49 -42 -21
-14 7 -29 -44 17 -55 -48 -23
-14 3 -30 -43 16 -56 -49 -23
-18 1 -29 -38 19 -54 -47 -22
-19 1 -31 -36 23 -53 -48 -19
-15 5 -29 -35 22 -56 -48 -19
-15 10 -25 -33 26 -51 -43 -16
-14 11 -22 -34 24 -54 -48 -19
-10 7 -27 -36 23 -56 -51 -20
-9 6 -27 -34 27 -54 -49 -19
-9 6 -27 -26 29 -50 -45 -18
-18 5 -27 -34 27 -52 -46 -17
-28 4 -24 -31 29 -48 -41 -12
-24 7 -21 -26 33 -47 -40 -11
-18 10 -18 -30 29 -50 -44 -14
-15 9 -26 -36 23 -57 -48 -16
-14 9 -26 -32 25 -54 -46 -17
-15 10 -23 -28 30 -51 -48 -21
-14 5 -23 -25 31 -52 -49 -21
-18 1 -18 -12 36 -49 -49 -21
-21 1 -8 2 46 -42 -49 -21
-21 -1 -6 8 50 -44 -54 -27
-10 -6 -3 19 58 -40 -54 -32
-3 -7 -1 32 64 -36 -52 -34
2 -10 -2 42 72 -25 -47 -30
8 -7 4 59 95 0 -27 -16
22 3 11 94 127 37 5 7
41 17 1 115 154 70 35 29
61 29 0 143 184 108 71 56
91 48 -15 161 216 158 123 102
116 74 -34 139 226 204 181 156
139 96 -66 82 219 236 230 205
154 111 -103 16 200 260 270 246
170 137 -126 -31 179 276 304 283
181 154 -152 -83 152 283 324 309
173 143 -171 -144 113 266 316 313
151 141 -179 -203 68 229 289 299
111 142 -173 -249 27 178 243 269
76 144 -151 -275 5 136 194 231
47 154 -129 -284 -1 111 165 205
9 146 -111 -284 -16 72 118 162
-22 125 -97 -291 -52 5 48 103
-51 99 -83 -297 -94 -72 -23 45
-77 86 -71 -295 -124 -131 -78 -1
-85 75 -71 -289 -143 -158 -103 -28
-83 53 -76 -284 -160 -180 -125 -47
-71 42 -73 -261 -156 -179 -127 -56
-62 41 -77 -233 -138 -165 -122 -57
-59 34 -69 -200 -119 -151 -114 -53
-53 31 -61 -176 -101 -137 -105 -49
-42 37 -60 -156 -82 -123 -97 -44
-37 35 -61 -144 -79 -116 -91 -41
-34 31 -60 -122 -62 -102 -81 -34
-31 33 -55 -96 -44 -88 -72 -32
-31 29 -45 -75 -25 -76 -65 -30
-27 22 -35 -59 -12 -67 -61 -26
-22 18 -26 -44 -2 -60 -55 -25
-15 18 -26 -37 4 -55 -54 -25
-13 11 -31 -33 4 -54 -53 -27
-13 9 -32 -26 6 -51 -50 -25
-17 11 -26 -10 12 -45 -45 -21
-22 11 -22 -11 10 -45 -46 -21
-17 9 -21 -15 8 -49 -50 -23
-16 10 -21 -11 10 -50 -52 -26
-16 9 -19 -4 11 -49 -51 -23
-14 6 -14 -5 10 -50 -51 -23
-15 7 -15 2 16 -44 -48 -23
-17 9 -19 -1 16 -42 -49 -23
-15 7 -18 -3 15 -44 -49 -22
-8 11 -15 -3 16 -42 -47 -20
-7 15 -16 5 19 -38 -44 -20
-7 13 -15 3 13 -42 -47 -21
-11 5 -18 0 7 -47 -50 -21
-10 6 -18 1 7 -45 -48 -21
-12 8 -14 1 5 -45 -48 -20
-9 9 -19 -4 5 -46 -48 -20
-3 11 -16 3 11 -43 -47 -23
-6 8 -17 2 8 -44 -50 -27
-2 8 -19 -2 4 -46 -52 -30
6 12 -17 -1 6 -43 -50 -31
1 9 -18 11 12 -38 -47 -31
-12 6 -13 12 14 -35 -43 -25
-13 5 -8 16 12 -36 -44 -23
-15 8 -5 18 13 -34 -43 -22
-14 8 -10 11 12 -35 -44 -22
-11 5 -11 9 8 -36 -47 -25
-10 4 -15 12 10 -33 -45 -24
-13 5 -13 20 11 -31 -43 -24
-10 6 -16 13 8 -32 -42 -23
-5 9 -18 9 7 -32 -41 -22
-6 11 -15 16 10 -28 -37 -22
-7 9 -13 10 5 -32 -38 -21
-6 4 -13 11 2 -33 -39 -23
-6 6 -16 17 5 -31 -40 -25
-4 3 -18 14 2 -34 -44 -29
-3 3 -19 6 -3 -36 -45 -29
-3 9 -15 8 4 -30 -40 -28
-9 14 -16 16 8 -26 -38 -27
-16 8 -16 20 6 -25 -36 -24
-13 7 -18 19 5 -23 -34 -23
-14 9 -14 22 8 -19 -31 -23
-12 6 -8 16 4 -21 -30 -20
-1 10 -13 21 1 -21 -32 -20
0 11 -15 27 2 -22 -31 -22
-5 7 -16 22 0 -24 -33 -24
2 6 -15 18 -4 -26 -37 -24
8 10 -15 27 2 -23 -36 -24
9 13 -19 23 1 -23 -38 -27
0 12 -12 25 7 -16 -30 -21
-9 11 -11 31 9 -12 -25 -17
-6 14 -6 41 12 -8 -23 -16
-4 12 -6 32 8 -11 -24 -15
-2 8 -11 32 5 -13 -25 -15
3 8 -14 36 5 -11 -25 -17
6 12 -12 40 6 -11 -24 -19
5 12 -12 38 6 -11 -25 -19
7 15 -9 47 12 -7 -23 -20
5 13 -9 43 13 -6 -24 -20
3 13 -16 43 11 -7 -23 -18
5 18 -14 48 12 -5 -19 -16
5 20 -8 51 15 -1 -17 -17
7 18 -12 41 9 -6 -21 -20
8 14 -9 50 10 -6 -22 -17
6 18 -8 60 17 2 -15 -13
7 20 -8 58 17 5 -11 -12
6 14 -10 56 14 4 -12 -12
3 13 -5 62 18 11 -9 -13
6 14 -10 64 23 15 -8 -14
11 18 -9 65 24 18 -7 -10
18 19 -6 69 25 23 -3 -6
18 18 -8 70 26 26 -4 -7
21 19 -14 62 19 22 -7 -7
26 21 -11 69 20 23 -8 -7
24 22 -9 83 23 27 -6 -7
22 25 -8 94 29 30 -5 -7
19 22 -5 92 31 34 -4 -5
13 22 -1 98 38 44 6 3
15 29 -2 98 40 50 11 9
21 30 -2 94 40 54 15 13
25 29 -9 92 35 56 18 16
24 28 -11 101 36 62 22 17
22 23 -12 100 31 57 20 16
30 28 -10 100 32 60 21 17
37 33 -10 105 36 62 22 17
35 31 -9 109 32 60 18 14
38 32 -3 115 34 62 19 16
37 36 -6 116 41 70 24 17
34 32 -3 117 43 71 23 17
34 28 1 115 40 72 22 19
33 28 -4 113 38 75 25 23
35 31 -5 122 43 82 32 28
30 27 -7 119 41 81 32 29
31 25 -5 118 38 81 31 31
33 30 -5 125 40 84 32 34
34 31 -8 124 39 82 31 31
37 31 -11 124 36 79 27 29
44 33 -1 127 41 84 31 30
43 32 -2 128 40 83 31 29
48 37 -3 125 41 83 30 27
45 39 0 126 42 89 34 30
41 35 -3 129 42 90 36 32
38 34 -7 119 34 85 34 35
38 31 -9 112 31 85 33 36
41 36 -6 115 30 86 34 38
44 36 -6 118 26 83 32 35
46 33 -11 113 21 79 27 32
47 38 -9 121 24 83 31 34
47 41 -7 120 26 83 30 33
50 40 -9 111 22 81 27 30
49 41 -3 108 21 83 31 34
45 43 -3 111 20 84 35 35
38 41 -7 100 13 81 34 35
34 36 -7 94 7 79 33 35
31 37 -9 97 7 77 32 34
29 37 -8 93 2 74 29 31
32 35 -8 78 -4 66 22 26
34 33 -7 75 -9 64 19 22
35 35 -9 69 -13 61 16 17
33 33 -13 67 -16 59 13 17
32 31 -10 65 -18 57 11 15
31 34 -8 63 -21 53 9 13
24 32 -10 54 -29 48 5 11
18 29 -11 48 -30 47 7 12
14 31 -6 51 -28 51 9 12
13 30 -3 46 -31 48 7 8
13 24 -9 40 -38 40 -1 3
11 20 -9 43 -42 35 -5 -2
16 29 -14 37 -46 31 -9 -4
13 30 -12 35 -49 28 -10 -3
10 28 -8 28 -47 28 -10 -4
12 28 -9 27 -52 26 -13 -10
9 20 -12 25 -62 20 -19 -15
8 15 -13 20 -65 17 -21 -16
12 20 -11 16 -63 19 -19 -15
6 24 -8 16 -63 19 -17 -15
1 21 -7 13 -66 15 -20 -16
-1 17 -2 18 -67 11 -24 -21
0 19 -4 16 -66 12 -25 -24
1 22 0 13 -64 13 -25 -24
-3 18 -4 11 -68 13 -25 -23
0 19 -9 8 -75 8 -29 -27
4 18 -13 0 -81 1 -34 -30
3 18 -11 4 -82 1 -34 -30
4 23 -6 6 -80 1 -34 -30
4 23 -12 5 -83 -3 -36 -31
-4 23 -11 2 -85 -3 -35 -27
0 26 -3 8 -80 2 -31 -24
-2 24 -2 5 -83 2 -31 -24
-2 20 -9 -1 -86 1 -32 -25
0 22 -12 -4 -87 -1 -35 -28
0 22 -12 -1 -85 -1 -36 -30
0 20 -13 -1 -90 -4 -36 -29
-4 19 -10 5 -90 -1 -34 -24
-7 19 -8 2 -87 1 -33 -25
-4 21 -8 5 -88 1 -32 -31
-6 17 -10 2 -93 -2 -36 -33
-2 18 -10 2 -94 -3 -38 -33
7 23 -8 3 -95 -2 -38 -31
7 20 -5 2 -97 -5 -40 -33
8 19 -10 -1 -96 -4 -40 -33
4 21 -4 5 -91 -1 -38 -31
1 21 -4 3 -96 -4 -40 -31
-2 23 -1 5 -97 -2 -37 -27
-2 23 2 13 -97 -2 -37 -29
2 22 -4 5 -101 -8 -42 -34
9 20 -8 -4 -107 -13 -47 -38
8 22 -9 3 -102 -8 -45 -37
1 25 -8 7 -99 -5 -41 -36
-3 23 -7 5 -101 -4 -39 -36
-5 20 -4 2 -102 -3 -40 -36
-4 21 -6 1 -99 -2 -40 -40
3 21 -8 -3 -102 -4 -41 -40
8 22 -5 3 -105 -4 -40 -37
5 23 -7 12 -103 -1 -38 -33
-5 19 -5 12 -103 1 -34 -30
-3 15 -6 5 -105 0 -34 -29
4 18 -1 11 -100 5 -31 -27
5 22 -2 14 -102 7 -29 -27
-3 21 0 14 -99 10 -25 -25
-3 21 1 13 -100 10 -26 -26
3 25 0 12 -100 10 -26 -26
2 22 -2 9 -102 8 -27 -25
-1 18 0 8 -104 5 -29 -25
-4 18 0 20 -102 6 -28 -26
-4 20 2 14 -103 7 -28 -26
4 21 -6 7 -105 5 -30 -27
13 27 -4 14 -103 8 -29 -29
12 27 -1 13 -105 6 -30 -33
10 24 -4 12 -106 6 -30 -31
8 26 0 12 -103 8 -27 -27
6 29 5 15 -103 10 -24 -26
6 29 -1 10 -108 8 -24 -25
6 27 -4 6 -111 7 -23 -23
7 29 -3 13 -111 8 -22 -24
8 28 -7 15 -111 6 -24 -27
9 25 -9 5 -116 3 -28 -30
14 29 -2 11 -113 6 -26 -31
8 30 -7 14 -111 8 -26 -32
3 26 -7 20 -111 7 -27 -30
2 25 -6 19 -109 9 -26 -25
12 32 3 20 -106 13 -22 -21
15 32 1 19 -108 12 -21 -18
9 28 2 20 -108 11 -18 -17
8 25 1 16 -113 9 -21 -21
9 25 2 22 -115 8 -21 -24
6 24 2 18 -117 8 -23 -26
9 28 2 19 -115 11 -21 -29
13 31 -3 16 -116 12 -22 -30
18 30 -8 11 -120 10 -24 -27
17 31 -8 10 -121 10 -24 -25
12 33 -4 14 -116 14 -19 -22
9 31 -1 14 -120 13 -19 -21
5 27 6 19 -117 14 -16 -18
7 28 -2 21 -116 12 -18 -21
12 33 3 19 -121 10 -20 -23
7 32 -1 21 -123 10 -19 -22
5 30 1 22 -119 16 -14 -19
5 31 -1 20 -117 16 -15 -20
9 28 -5 13 -122 11 -18 -22
8 25 -7 12 -126 11 -19 -20
10 27 -7 20 -124 11 -17 -19
11 24 -8 15 -129 7 -22 -21
12 23 -6 13 -133 5 -24 -23
16 29 -3 16 -132 4 -27 -27
16 27 -5 17 -133 0 -30 -30
13 25 -4 15 -136 -3 -33 -30
9 29 1 17 -130 1 -29 -28
9 30 3 16 -128 4 -29 -27
14 30 4 11 -132 3 -27 -26
14 28 -2 12 -134 3 -27 -27
6 28 -1 13 -132 9 -22 -23
3 25 7 12 -133 8 -22 -22
5 22 3 8 -138 4 -24 -23
7 22 -4 9 -139 3 -25 -25
14 23 -8 9 -143 0 -31 -31
22 23 -6 4 -148 -3 -35 -33
20 26 -8 9 -144 1 -31 -31
10 26 -5 16 -141 4 -30 -29
4 25 -1 17 -138 6 -28 -25
3 27 0 15 -137 7 -25 -23
5 28 0 15 -138 8 -24 -23
6 25 -2 4 -144 2 -29 -25
8 22 -4 0 -149 -1 -30 -25
11 24 -4 3 -151 -3 -33 -27
17 26 2 7 -151 -4 -35 -29
22 23 -5 4 -152 -6 -35 -31
18 21 -5 11 -146 -2 -31 -29
4 27 1 16 -141 5 -24 -24
-3 27 2 14 -141 7 -23 -22
-1 26 -1 16 -146 5 -24 -23
6 29 0 11 -147 5 -23 -25
9 28 -9 -1 -153 -1 -29 -27
14 26 -8 2 -154 0 -28 -26
15 24 -9 4 -156 -1 -29 -29
11 24 -8 3 -156 -2 -31 -30
8 22 -5 5 -156 -1 -30 -29
6 21 -3 9 -154 0 -31 -28
7 23 3 8 -154 -2 -33 -30
5 25 4 7 -154 -2 -35 -32
5 23 3 7 -156 -3 -35 -34
4 24 -2 9 -154 0 -33 -32
5 23 -4 2 -159 -3 -33 -33
8 20 -3 -3 -166 -7 -36 -34
6 20 1 1 -165 -5 -35 -33
8 23 -2 0 -166 -4 -35 -33
7 19 -6 -4 -169 -6 -35 -32
7 18 -5 3 -165 -4 -33 -31
8 19 -6 6 -165 -5 -35 -34
8 18 -7 2 -168 -6 -37 -34
8 17 -5 6 -167 -5 -35 -33
8 22 -2 9 -164 -3 -33 -34
8 23 -1 8 -166 -3 -35 -32
5 18 1 6 -169 -4 -36 -30
-2 14 8 3 -165 -2 -32 -27
-7 13 5 0 -166 -2 -32 -27
-1 14 0 -1 -173 -5 -35 -28
2 14 -2 4 -170 -5 -34 -29
2 14 1 5 -171 -6 -36 -31
1 13 0 1 -176 -8 -38 -31
7 15 0 3 -176 -6 -34 -28
9 19 4 7 -175 -4 -32 -29
12 21 0 -5 -178 -6 -34 -29
2 17 3 1 -177 -3 -31 -27
-1 17 0 3 -177 -4 -32 -30
3 19 -2 7 -176 -4 -34 -32
2 16 -2 1 -177 -5 -35 -33
5 17 1 8 -176 -4 -35 -35
7 15 4 8 -176 -7 -39 -38
8 12 -4 0 -183 -14 -43 -42
10 12 -7 -7 -188 -17 -44 -43
13 14 -6 -8 -188 -14 -42 -40
4 17 -4 -7 -188 -11 -39 -36
2 19 0 -2 -185 -6 -34 -31
0 16 -4 1 -185 -6 -34 -33
-2 14 -2 5 -186 -5 -34 -34
0 17 1 4 -185 -5 -33 -32
3 20 2 6 -181 -3 -30 -30
3 22 0 1 -182 -4 -33 -33
1 18 0 5 -185 -7 -35 -35
3 17 5 1 -187 -9 -37 -36
5 19 2 3 -188 -8 -38 -38
2 17 -4 1 -189 -10 -38 -37
-2 14 3 4 -192 -10 -39 -35
3 13 2 -1 -195 -11 -41 -36
4 14 -4 -8 -195 -13 -41 -35
5 16 -4 -5 -196 -11 -40 -35
0 14 -2 2 -192 -9 -36 -34
-5 14 -3 -1 -192 -8 -35 -34
-4 18 1 1 -190 -6 -32 -29
-2 17 0 -1 -195 -8 -34 -31
6 18 2 0 -197 -8 -34 -35
8 13 -3 -5 -203 -13 -40 -37
5 8 -7 -7 -204 -13 -39 -36
3 10 -2 -4 -201 -10 -38 -36
1 11 4 -3 -201 -9 -37 -36
4 10 0 -8 -202 -10 -37 -34
6 13 -3 -1 -200 -8 -35 -32
4 14 -5 -3 -201 -9 -36 -35
3 13 -3 -7 -203 -9 -35 -35
3 14 -3 -5 -203 -7 -33 -33
1 15 -4 -3 -201 -5 -32 -34
0 14 -6 -5 -205 -7 -34 -34
-1 10 -3 -2 -206 -10 -37 -34
1 14 2 5 -206 -10 -36 -35
3 16 0 1 -206 -11 -37 -37
6 11 -4 -8 -211 -15 -39 -38
11 14 -6 -6 -209 -14 -39 -40
6 14 2 -2 -207 -12 -38 -39
5 13 -1 -10 -211 -11 -37 -37
8 13 -2 -11 -212 -10 -35 -36
6 14 0 -7 -211 -9 -34 -35
4 15 -6 -9 -214 -11 -35 -34
0 13 -7 -3 -213 -9 -33 -31
-4 12 -7 -7 -215 -9 -34 -33
-2 14 -7 -9 -215 -8 -33 -33
-1 12 -5 -10 -219 -12 -35 -34
2 11 -6 -7 -215 -11 -33 -35
8 17 1 -4 -216 -10 -34 -36
3 14 1 -6 -218 -11 -35 -36
2 14 -2 -7 -218 -10 -34 -36
7 16 -2 0 -216 -11 -36 -39
8 15 -3 -9 -220 -16 -40 -43
7 9 -7 -6 -221 -16 -41 -40
1 8 -3 -3 -217 -13 -38 -36
-5 9 0 -5 -216 -11 -35 -34
-4 8 -5 -8 -220 -14 -36 -34
2 11 -2 -2 -219 -11 -34 -34
4 13 -2 -5 -222 -12 -36 -36
8 15 -7 -7 -221 -10 -34 -33
4 12 -6 -11 -221 -8 -30 -30
6 15 -6 -10 -221 -7 -30 -33
6 13 -6 -4 -223 -8 -30 -33
5 9 -6 -4 -225 -10 -32 -32
10 14 -5 -6 -224 -10 -32 -31
13 17 -3 -10 -226 -12 -34 -31
7 14 -1 -9 -223 -11 -32 -28
1 14 4 -1 -219 -8 -27 -27
0 14 -5 -4 -223 -10 -31 -32
0 13 -5 -10 -224 -11 -32 -32
3 13 1 -6 -224 -10 -30 -33
6 17 -7 -5 -225 -12 -33 -36
4 15 -7 -5 -227 -14 -34 -33
4 10 -7 -6 -228 -14 -33 -29
7 13 -4 -10 -229 -14 -33 -30
10 15 -4 -7 -227 -13 -33 -30
8 13 -6 -6 -228 -15 -34 -30
6 15 -3 -2 -226 -12 -30 -28
3 14 -2 -3 -229 -14 -32 -30
4 13 -1 -8 -230 -15 -33 -29
4 14 0 -10 -227 -13 -29 -28
-1 14 -6 -1 -221 -10 -26 -26
0 13 -6 -2 -221 -14 -30 -30
4 14 -3 -5 -218 -16 -30 -31
8 17 -1 -5 -211 -17 -29 -32
11 19 -1 -5 -204 -15 -30 -30
13 19 -3 -6 -198 -15 -29 -28
13 21 2 -2 -188 -14 -28 -31
6 22 5 -2 -180 -11 -27 -27
2 21 6 -1 -172 -10 -24 -24
4 23 3 0 -166 -10 -22 -24
7 23 1 7 -161 -8 -21 -22
7 21 1 11 -159 -9 -21 -20
8 21 5 7 -153 -7 -18 -17
8 22 2 3 -146 -7 -18 -19
7 19 3 1 -142 -7 -19 -18
9 15 1 -2 -142 -11 -22 -20
12 17 2 7 -136 -11 -21 -21
11 20 5 5 -132 -9 -21 -21
8 19 11 5 -127 -7 -18 -19
4 18 12 11 -121 -5 -15 -15
7 26 6 8 -115 -3 -13 -14
12 25 4 4 -117 -4 -16 -16
11 23 4 13 -110 -1 -12 -10
15 26 1 20 -102 3 -7 -8
14 26 -2 17 -99 4 -7 -9
11 25 -2 14 -97 5 -5 -7
11 26 -4 8 -96 4 -7 -7
6 23 -10 -2 -100 0 -10 -9
7 20 -14 -4 -99 -2 -10 -11
8 18 -18 -3 -101 -6 -14 -17
11 16 -19 -5 -104 -8 -18 -20
12 11 -19 -11 -105 -12 -21 -21
8 5 -18 -10 -107 -14 -21 -19
9 8 -13 -8 -103 -13 -21 -18
6 12 -11 -11 -102 -12 -18 -14
-6 9 -10 -11 -98 -11 -16 -11
-2 10 -9 -4 -97 -12 -17 -14
-1 12 -15 -11 -100 -15 -21 -17
-2 10 -14 -18 -101 -15 -21 -17
0 6 -16 -17 -99 -16 -22 -17
0 5 -15 -13 -99 -17 -22 -16
-3 2 -14 -18 -99 -21 -24 -17
-2 0 -13 -21 -103 -24 -24 -18
-1 2 -14 -18 -100 -24 -22 -18
-2 3 -9 -12 -99 -23 -21 -16
-6 -4 -10 -21 -100 -26 -24 -18
-6 -4 -12 -23 -98 -24 -23 -19
-7 0 -12 -19 -96 -25 -26 -21
-8 -3 -14 -19 -93 -30 -29 -24
-5 -4 -15 -16 -90 -30 -31 -25
-8 -4 -9 -11 -90 -31 -31 -25
-9 -6 -10 -16 -91 -34 -35 -28
-9 -8 -10 -14 -90 -34 -34 -28
-14 -9 -8 -12 -87 -31 -31 -25
-24 -10 -7 -16 -88 -33 -31 -24
-24 -12 -11 -21 -90 -35 -32 -24
-19 -9 -11 -16 -90 -34 -31 -26
-18 -8 -10 -16 -87 -33 -32 -26
-20 -10 -10 -12 -87 -33 -31 -25
-17 -9 -11 -19 -84 -32 -30 -26
-16 -7 -7 -17 -82 -30 -28 -27
-20 -13 -11 -20 -83 -31 -30 -26
-18 -15 -9 -20 -80 -30 -29 -26
-13 -10 -10 -20 -78 -31 -31 -26
-14 -10 -11 -17 -77 -34 -33 -28
-14 -12 -13 -22 -77 -38 -36 -28
-10 -9 -11 -20 -74 -35 -32 -26
-9 -9 -7 -27 -77 -36 -34 -27
-16 -11 -7 -25 -75 -35 -32 -26
-27 -13 -12 -20 -69 -32 -29 -22
-25 -12 -10 -19 -69 -31 -32 -22
-21 -17 -13 -21 -69 -33 -34 -22
-14 -15 -11 -17 -69 -33 -34 -21
-14 -14 -8 -12 -64 -32 -31 -20
-16 -15 -1 -14 -65 -33 -32 -20
-17 -17 -5 -23 -65 -35 -34 -22
-23 -17 -7 -16 -60 -33 -31 -20
-25 -16 -8 -13 -59 -33 -33 -20
-17 -11 -7 -13 -58 -33 -32 -22
-15 -13 -3 -6 -55 -32 -33 -25
-18 -15 5 2 -49 -29 -33 -27
-13 -16 4 6 -43 -27 -35 -30
-13 -21 11 22 -30 -23 -35 -34
-18 -25 17 36 -19 -17 -34 -35
-17 -26 17 42 -13 -12 -32 -34
-3 -27 14 54 -2 -3 -24 -28
13 -18 30 91 35 29 0 -13
26 -9 27 121 71 67 30 10
39 -3 27 146 103 104 66 37
51 7 28 172 140 151 108 70
74 30 17 180 170 201 162 115
102 56 -8 126 167 237 218 169
125 80 -42 68 156 276 274 222
142 104 -78 15 138 302 316 262
154 128 -108 -37 113 316 349 296
155 138 -134 -95 90 329 375 325
151 133 -152 -153 53 310 366 325
126 130 -156 -205 5 267 332 309
86 126 -146 -245 -36 215 285 282
50 129 -127 -266 -59 173 236 244
18 139 -114 -275 -67 146 205 219
-17 125 -102 -284 -92 97 150 174
-43 103 -81 -287 -130 27 78 114
-63 86 -68 -290 -170 -55 0 51
-78 69 -66 -290 -203 -120 -64 -2
-81 54 -68 -286 -222 -156 -98 -34
-78 38 -68 -269 -232 -176 -117 -53
-79 24 -60 -243 -221 -170 -116 -57
-72 16 -55 -207 -201 -150 -105 -53
-68 12 -44 -184 -179 -134 -95 -49
-63 12 -47 -163 -156 -117 -84 -43
-57 13 -44 -149 -142 -104 -76 -39
-49 17 -44 -125 -125 -89 -65 -32
-44 20 -43 -98 -106 -77 -55 -28
-43 15 -39 -80 -90 -64 -48 -26
-33 5 -29 -60 -73 -52 -41 -26
-22 2 -18 -39 -53 -39 -34 -23
-19 -2 -19 -33 -44 -33 -31 -21
-16 -5 -12 -24 -37 -26 -27 -16
-20 -7 -5 -15 -34 -22 -23 -12
-23 -8 -2 -9 -31 -20 -23 -12
-20 -7 -5 -5 -35 -23 -26 -15
-18 -8 -3 -3 -33 -21 -26 -15
-16 -7 2 0 -30 -23 -28 -16
-16 -8 -2 2 -30 -26 -32 -20
-20 -12 -1 1 -27 -26 -33 -21
-26 -10 1 9 -18 -20 -28 -17
-29 -8 4 9 -16 -18 -25 -17
-22 -5 0 3 -18 -17 -23 -15
-18 -6 1 3 -18 -15 -20 -12
-17 -7 -2 4 -19 -15 -19 -13
-16 -10 -5 0 -22 -17 -21 -15
-14 -9 -2 5 -21 -14 -18 -15
-12 -8 1 7 -18 -14 -19 -16
-13 -9 -2 7 -20 -17 -24 -17
-21 -12 1 12 -18 -17 -24 -14
-23 -10 0 23 -9 -13 -19 -12
-21 -6 5 22 -5 -11 -18 -12
-22 -8 5 19 -6 -10 -16 -12
-24 -10 6 18 -4 -9 -15 -9
-22 -8 5 19 -6 -10 -18 -10
-20 -10 -3 10 -13 -14 -21 -13
-19 -9 -1 13 -13 -13 -19 -12
-19 -8 0 15 -9 -13 -19 -10
-17 -8 -3 15 -12 -16 -22 -14
-15 -11 0 16 -10 -17 -22 -14
-10 -5 1 22 -4 -12 -18 -13
-11 -3 2 20 -4 -11 -19 -13
-14 -6 4 16 -5 -9 -18 -12
-19 -11 6 15 -5 -9 -17 -10
-17 -8 -1 15 -5 -9 -16 -10
-15 -9 -3 17 -9 -11 -17 -11
-12 -7 3 20 -9 -9 -15 -10
-13 -3 3 23 -4 -6 -14 -8
-15 -4 -1 22 -5 -6 -15 -9
-13 -6 1 24 -5 -6 -16 -10
-14 -4 7 31 4 -3 -13 -10
-16 -5 4 29 5 -3 -15 -13
-16 -6 4 25 6 0 -13 -12
-17 -9 1 25 4 -1 -13 -11
-14 -9 4 26 2 -1 -14 -11
-6 -5 5 22 1 -2 -13 -9
-5 -6 10 32 1 -2 -14 -10
-8 -5 11 34 5 -1 -13 -8
-17 -5 9 30 7 1 -12 -8
-19 -6 7 30 9 0 -13 -9
-11 0 9 38 17 4 -11 -8
-6 1 7 38 18 5 -11 -8
-4 0 2 37 15 7 -10 -9
-4 -3 -1 40 15 6 -8 -6
-2 -2 4 34 14 7 -8 -5
-6 -2 3 32 13 8 -5 -1
-12 -4 2 38 17 11 -2 2
-11 -3 1 42 18 9 -5 -2
-9 -3 6 44 21 10 -5 -3
-9 -3 5 47 23 10 -4 -2
-5 0 5 50 28 13 -1 -1
-5 2 6 49 32 16 -1 0
-12 -1 3 46 32 19 2 0
-11 -1 4 48 31 19 4 1
-4 4 3 49 33 22 4 2
-1 6 0 46 32 19 3 0
1 4 0 56 33 19 3 0
-2 4 4 66 37 23 4 2
-7 5 4 68 41 25 5 1
-3 3 9 62 43 26 6 2
4 5 9 65 47 28 7 5
10 9 5 72 46 27 5 3
8 7 3 70 51 32 11 7
0 5 4 73 52 35 16 12
3 10 6 77 53 38 19 13
2 10 9 72 54 41 22 16
0 10 13 78 57 45 25 18
0 11 9 86 62 49 26 20
1 10 10 92 65 48 24 19
3 11 12 95 68 47 24 20
9 12 12 102 75 54 29 22
9 13 14 100 77 55 30 22
13 16 11 104 81 59 33 24
17 16 10 107 79 59 35 25
15 15 10 101 81 62 36 26
14 15 8 99 80 62 38 27
11 15 10 106 83 67 42 31
14 23 8 110 86 69 44 35
18 23 11 113 89 70 45 34
22 22 10 113 88 70 45 34
27 25 11 123 96 76 51 37
25 24 13 126 98 77 53 39
22 24 11 124 98 80 55 40
26 25 9 120 98 81 57 40
26 25 10 119 97 83 57 40
26 24 12 114 94 84 59 43
33 26 12 121 95 86 60 46
37 29 6 125 98 86 61 49
37 27 4 123 98 86 61 49
34 22 1 122 98 85 61 49
36 23 4 124 103 88 64 51
38 28 5 126 106 91 66 53
32 26 5 127 107 94 71 56
25 26 9 131 109 97 76 61
27 28 9 131 108 98 78 63
35 28 6 121 101 94 75 58
42 31 6 120 102 94 74 57
41 34 6 123 103 92 71 57
36 35 11 122 102 90 70 58
34 34 8 122 99 87 68 57
31 29 7 121 99 89 70 54
33 30 4 111 98 87 66 53
38 33 4 107 95 86 67 52
36 32 0 103 93 85 68 52
40 35 -3 100 91 85 68 53
40 30 -6 92 83 80 63 51
35 27 -6 87 79 76 61 50
37 29 -3 87 80 74 60 49
40 30 -6 85 77 69 54 43
39 28 -6 80 72 63 50 38
33 26 -3 80 74 63 51 37
28 25 -3 75 70 59 46 35
26 28 -3 69 69 58 45 35
22 28 -5 59 65 55 44 35
15 25 -5 57 63 52 42 32
9 26 -4 54 60 49 40 32
7 23 -5 44 53 42 37 28
10 22 -7 44 49 38 33 26
10 19 -7 40 46 34 28 19
9 17 -8 36 44 29 22 14
12 17 -5 40 46 28 20 13
9 15 -9 40 44 22 15 8
4 13 -5 29 43 20 15 6
2 13 -2 19 39 20 14 6
-4 11 -9 15 33 17 13 4
-3 9 -12 7 27 11 7 2
-3 5 -10 11 25 6 5 -1
-5 2 -11 12 23 4 2 -6
-3 3 -9 8 22 1 -2 -8
-1 4 -9 7 19 -4 -4 -10
-1 7 -6 9 23 -3 -4 -11
-5 8 -12 14 24 -3 -3 -10
-12 4 -8 5 23 -3 -3 -11
-11 2 -5 -5 21 -5 -4 -10
-10 2 -10 -5 18 -7 -5 -13
-11 3 -10 -8 15 -10 -8 -14
-7 2 -12 -8 12 -12 -11 -16
-4 2 -13 -6 10 -18 -16 -22
-7 2 -13 -8 9 -19 -19 -24
-12 0 -14 -12 8 -20 -20 -23
-13 2 -10 -4 15 -19 -18 -23
-13 5 -10 -2 14 -21 -19 -25
-11 3 -7 -9 12 -23 -20 -26
-12 2 -10 -17 12 -21 -19 -23
-15 2 -9 -11 12 -19 -15 -20
-17 -2 -11 -15 7 -20 -17 -20
-16 -3 -13 -13 7 -20 -16 -19
-12 1 -14 -9 10 -20 -17 -20
-9 3 -16 -11 8 -24 -20 -27
-8 1 -14 -15 7 -27 -26 -32
-8 0 -13 -10 11 -28 -28 -31
-11 3 -13 -12 11 -28 -27 -29
-18 3 -4 -11 15 -24 -24 -25
-16 2 -4 -13 16 -24 -21 -24
-13 5 -10 -13 17 -21 -19 -24
-16 3 -12 -17 13 -23 -20 -23
-19 -1 -13 -21 13 -24 -21 -23
-19 0 -10 -16 14 -25 -21 -23
-17 2 -15 -12 13 -25 -22 -24
-14 1 -14 -16 16 -25 -22 -23
-15 -1 -14 -16 17 -23 -22 -25
-16 -2 -16 -19 15 -25 -25 -28
-12 -4 -16 -19 16 -25 -27 -28
-10 -1 -12 -15 19 -25 -25 -26
-13 4 -10 -9 23 -21 -22 -22
-15 4 -9 -14 21 -24 -23 -22
-20 -3 -7 -14 19 -25 -24 -23
-18 0 -8 -12 20 -25 -24 -23
-11 5 -8 -14 20 -23 -25 -24
-12 0 -10 -18 18 -26 -27 -25
-12 3 -7 -14 23 -24 -24 -25
-11 6 -10 -18 23 -24 -26 -25
-12 4 -13 -20 24 -24 -27 -26
-19 2 -11 -12 29 -20 -22 -22
-20 3 -8 -10 32 -17 -20 -22
-16 5 -4 -16 30 -19 -22 -22
-12 4 -7 -16 29 -20 -23 -21
-12 3 -11 -14 28 -21 -25 -21
-10 5 -11 -12 30 -21 -25 -23
-3 6 -10 -13 30 -22 -27 -25
-1 7 -9 -10 33 -21 -26 -26
-7 5 -11 -14 32 -22 -28 -29
-16 0 -13 -17 33 -21 -28 -27
-18 1 -7 -16 35 -18 -25 -24
-19 6 -4 -8 41 -14 -22 -22
-15 6 -10 -11 35 -17 -24 -22
-12 4 -5 -4 36 -20 -25 -22
-12 3 -7 -3 35 -23 -27 -27
-14 5 -7 3 38 -19 -26 -28
-12 8 -6 -4 39 -20 -26 -26
-11 8 -7 -8 41 -17 -23 -23
-8 8 -10 -12 38 -19 -24 -23
-10 7 -11 -14 39 -16 -22 -20
-11 4 -9 -14 39 -15 -20 -19
-11 2 -12 -7 41 -14 -20 -20
-12 2 -13 -11 39 -19 -23 -22
-12 2 -9 -13 41 -16 -21 -21
-14 8 -3 -9 47 -13 -17 -19
-17 9 -2 -11 45 -13 -18 -19
-11 7 -4 -16 39 -17 -23 -24
-8 6 -10 -2 43 -11 -21 -22
-3 10 -9 -8 44 -13 -23 -22
-3 10 -4 -8 45 -11 -22 -20
-8 6 -8 0 46 -11 -18 -19
-14 7 -3 1 48 -9 -16 -16
-14 6 -1 -7 46 -10 -17 -16
-12 2 -10 -14 43 -12 -18 -17
-10 5 -3 -12 46 -13 -19 -16
-10 3 -5 -12 45 -14 -22 -20
-5 5 -8 -12 44 -16 -23 -20
1 7 -7 -10 47 -14 -22 -21
-5 7 -9 -11 51 -14 -21 -21
-8 8 -10 -7 55 -10 -19 -18
-6 6 -3 -8 55 -9 -18 -19
-7 4 -8 -12 55 -11 -21 -22
-15 1 -9 -15 51 -15 -23 -21
-11 5 -6 -14 48 -14 -22 -19
-7 7 -8 -12 48 -14 -22 -20
-8 8 -6 -8 49 -14 -22 -22
-13 6 -8 -13 50 -15 -24 -25
-11 6 -8 -14 54 -13 -22 -21
-11 5 -11 -15 54 -14 -22 -22
-11 2 -14 -17 51 -18 -25 -24
-12 4 -8 -16 51 -16 -24 -20
-11 7 -5 -20 49 -14 -23 -20
-11 4 -9 -21 46 -18 -26 -23
-9 1 -12 -18 48 -18 -26 -22
-9 0 -11 -18 46 -21 -25 -24
-7 3 -11 -21 46 -22 -26 -25
-8 2 -3 -22 47 -22 -26 -26
-10 4 -4 -20 50 -20 -26 -26
-12 5 -8 -18 53 -20 -27 -26
-15 4 0 -16 56 -19 -26 -24
-13 4 -5 -19 54 -20 -28 -23
-12 4 -6 -15 53 -20 -28 -22
-14 4 -10 -24 50 -23 -28 -21
-10 5 -10 -25 48 -22 -27 -20
-11 5 -10 -23 48 -21 -26 -21
-16 2 -3 -24 50 -22 -27 -22
-13 6 -5 -21 54 -22 -27 -23
-12 3 -9 -20 55 -20 -27 -24
-11 4 -10 -22 54 -22 -28 -27
-8 4 -12 -26 54 -23 -28 -25
-8 3 -13 -27 54 -22 -27 -23
-8 4 -9 -23 53 -20 -25 -24
-10 2 -12 -28 50 -24 -27 -23
-10 1 -11 -28 52 -24 -28 -25
-9 4 -9 -28 54 -25 -29 -26
-10 4 -4 -29 56 -24 -27 -24
-9 4 -12 -34 55 -27 -28 -24
-7 4 -9 -28 58 -24 -26 -24
-7 3 -10 -29 57 -25 -27 -26
-11 1 -6 -28 57 -23 -26 -28
-10 0 -6 -31 57 -24 -28 -28
-10 0 -8 -30 59 -24 -27 -27
-12 0 -10 -33 57 -25 -27 -26
-13 -2 -8 -32 57 -24 -26 -25
-13 -2 -9 -28 58 -22 -24 -23
-8 2 -11 -25 59 -23 -24 -24
-8 -1 -10 -31 59 -26 -26 -23
-9 -1 -7 -28 62 -22 -26 -23
-12 0 -10 -25 64 -24 -26 -23
-12 -3 -12 -27 63 -25 -28 -24
-4 3 -11 -30 63 -24 -26 -24
-7 4 -8 -33 62 -24 -25 -22
-7 2 -12 -38 57 -28 -27 -23
-5 0 -10 -31 58 -27 -27 -25
-9 -2 -8 -30 60 -26 -28 -26
-13 1 -5 -22 66 -22 -25 -23
-13 -1 -5 -19 65 -23 -26 -24
-13 -3 -3 -29 65 -24 -26 -24
-13 0 -5 -32 65 -25 -27 -24
-8 1 -4 -33 64 -24 -25 -23
-4 1 -8 -36 63 -26 -26 -26
-3 1 -9 -33 61 -27 -28 -28
-2 -1 -11 -37 58 -28 -29 -27
-4 -1 -9 -35 59 -27 -27 -24
-16 -1 -7 -30 64 -22 -22 -19
-18 -1 -4 -30 66 -21 -19 -16
-12 0 -5 -33 65 -20 -21 -18
-11 0 -4 -30 70 -20 -21 -20
-14 0 -5 -32 71 -20 -20 -20
-12 -1 -7 -30 70 -21 -22 -20
-16 -1 -8 -27 70 -21 -22 -22
-17 0 -6 -30 72 -20 -20 -21
-14 -2 -1 -35 67 -21 -23 -21
-19 -4 0 -36 66 -23 -24 -19
-14 -1 -7 -37 65 -22 -23 -16
-13 -2 -8 -35 64 -24 -24 -16
-13 -6 -11 -39 64 -23 -24 -17
-9 -2 -10 -36 69 -20 -22 -18
-8 -1 -7 -37 69 -23 -24 -22
-3 -1 -7 -35 70 -23 -22 -22
-3 -2 -7 -34 68 -24 -23 -22
-13 -3 -3 -33 72 -20 -19 -20
-12 -6 -4 -37 67 -24 -24 -24
-12 -8 -9 -38 67 -24 -23 -23
-5 -2 -6 -39 66 -24 -23 -22
-4 -1 -5 -35 68 -23 -22 -24
-18 -7 1 -36 70 -21 -21 -21
-18 -7 -2 -34 72 -23 -22 -20
-13 -3 -3 -34 71 -20 -22 -19
-15 -2 -5 -32 73 -19 -20 -18
-17 -5 -4 -34 73 -19 -19 -18
-16 -4 -2 -34 72 -19 -20 -17
-12 -5 -4 -33 68 -20 -23 -21
-11 -6 -3 -30 71 -19 -22 -18
-11 -5 -1 -31 71 -19 -22 -19
-10 -4 0 -36 71 -21 -25 -19
-5 -3 1 -39 71 -21 -27 -20
-10 -4 -1 -34 74 -19 -24 -18
-14 -4 -6 -37 73 -19 -23 -19
-7 -4 -7 -38 71 -21 -26 -20
-1 -3 -8 -35 70 -20 -26 -21
-6 -3 -6 -34 72 -20 -25 -21
-6 -4 -8 -35 70 -21 -25 -19
-6 -5 -6 -34 70 -20 -26 -20
-10 -5 -3 -33 73 -18 -24 -19
-14 -5 4 -33 76 -17 -20 -17
-13 -4 2 -39 73 -17 -22 -16
-14 -3 3 -39 74 -17 -22 -15
-14 -4 0 -36 74 -17 -21 -12
-14 -5 -3 -32 74 -15 -18 -10
-16 -6 -4 -36 74 -15 -20 -11
-10 -4 -2 -34 75 -17 -21 -14
-8 -6 0 -38 73 -19 -23 -17
-6 -4 -4 -37 73 -20 -23 -17
-7 -2 -4 -31 75 -17 -22 -18
-10 -7 -3 -32 75 -18 -25 -19
-14 -7 -3 -40 73 -17 -24 -18
-10 -4 -5 -33 74 -16 -23 -16
-5 -2 -6 -36 72 -17 -25 -16
-6 -4 -4 -40 73 -17 -24 -16
-7 -8 -8 -39 71 -17 -26 -18
-13 -10 -3 -30 74 -16 -23 -18
-12 -10 -6 -33 73 -17 -24 -20
-3 -8 -7 -35 73 -19 -25 -19
-3 -3 0 -35 77 -16 -25 -16
-10 -3 -2 -37 79 -15 -26 -15
-14 -5 -1 -41 77 -14 -23 -14
-11 -1 0 -33 81 -11 -20 -10
-6 -2 -4 -34 77 -13 -23 -15
-6 -5 -5 -38 76 -15 -24 -14
-4 -5 -7 -39 76 -13 -24 -13
-12 -8 -4 -40 76 -11 -22 -14
-18 -12 -6 -44 75 -12 -24 -17
-13 -8 -3 -39 76 -13 -22 -18
-8 -5 -5 -34 76 -13 -24 -19
-10 -6 -4 -37 77 -14 -25 -18
-11 -6 -2 -37 79 -13 -25 -14
-8 -4 -1 -33 79 -12 -26 -15
-1 -1 0 -36 79 -13 -28 -17
0 -1 0 -38 80 -13 -28 -17
0 -1 0 -40 79 -13 -26 -16
-4 -5 -1 -39 78 -14 -26 -18
-6 -9 -7 -43 72 -15 -29 -19
-5 -8 -1 -44 71 -15 -27 -17
-2 -5 2 -43 70 -13 -27 -15
-1 -5 -4 -38 69 -13 -27 -16
-6 -6 3 -38 70 -10 -26 -15
-10 -4 3 -32 73 -7 -22 -14
-11 -3 6 -33 73 -6 -22 -13
-9 -5 4 -33 71 -7 -21 -12
-5 -3 5 -35 67 -8 -24 -13
-1 -3 0 -38 63 -10 -25 -15
-1 -8 -5 -45 55 -14 -29 -19
-1 -9 -5 -49 54 -14 -29 -19
1 -8 -2 -50 51 -15 -30 -19
1 -8 -4 -44 51 -16 -31 -21
1 -4 0 -42 54 -10 -30 -20
5 -1 7 -32 59 -6 -26 -16
0 0 3 -35 58 -8 -28 -16
-7 -6 5 -34 55 -7 -28 -15
-6 -6 5 -35 55 -6 -27 -14
-3 -4 6 -37 51 -8 -27 -14
3 -3 2 -39 46 -11 -29 -17
6 -7 -2 -36 48 -9 -28 -15
5 -7 0 -39 47 -10 -29 -16
-2 -9 1 -43 45 -11 -29 -14
-4 -6 0 -42 45 -7 -27 -12
3 -1 4 -38 51 -3 -23 -11
2 -3 2 -40 48 -7 -28 -17
3 -3 4 -40 47 -5 -28 -16
2 -4 5 -38 48 -2 -26 -13
-2 -4 10 -38 47 -4 -26 -13
-8 -4 6 -38 46 -4 -27 -13
-8 -6 8 -38 48 1 -23 -9
-5 -5 6 -40 44 -3 -27 -10
3 -2 2 -44 40 -5 -28 -12
4 -5 1 -48 37 -5 -31 -13
5 -4 4 -45 39 -3 -29 -12
2 -4 6 -46 37 -4 -31 -10
-1 -8 1 -47 34 -4 -29 -7
0 -7 1 -45 35 0 -28 -7
1 -4 2 -44 36 1 -26 -8
1 -2 2 -45 34 0 -26 -9
5 -1 6 -42 34 4 -23 -6
-6 1 8 -35 40 7 -21 0
-10 1 13 -28 44 9 -20 1
-9 -2 9 -34 41 6 -23 -3
0 4 10 -28 44 10 -21 -1
19 14 10 -31 43 9 -23 -1
23 13 6 -35 41 7 -22 -1
19 12 7 -37 39 8 -21 2
17 14 9 -32 41 11 -15 6
12 12 12 -31 43 12 -16 6
4 11 15 -27 46 16 -13 8
2 10 18 -19 46 17 -12 9
3 9 20 -19 49 17 -10 9
10 9 13 -25 47 16 -13 6
15 8 13 -23 45 17 -14 3
16 11 14 -19 46 17 -13 2
20 13 13 -16 48 19 -12 2
17 14 11 -11 52 22 -10 7
21 19 13 -12 52 21 -8 9
19 16 5 -18 46 20 -9 10
18 14 -3 -31 41 19 -9 12
24 17 -4 -30 38 19 -9 11
26 17 -1 -29 36 18 -10 10
21 15 -1 -35 33 17 -10 11
21 17 -2 -29 36 21 -7 10
15 13 -1 -29 33 20 -8 11
16 9 -1 -37 27 17 -11 10
16 5 -6 -34 22 15 -13 8
18 3 -6 -35 19 12 -15 6
24 3 -9 -44 12 7 -18 5
22 2 -10 -48 9 6 -19 5
16 1 -8 -48 10 4 -20 4
20 6 -6 -45 13 3 -19 5
14 6 0 -41 16 8 -16 10
9 6 4 -38 16 10 -15 11
9 7 3 -39 13 9 -16 10
9 4 3 -43 10 6 -17 8
12 1 -1 -48 6 3 -20 3
17 2 -1 -53 4 1 -24 0
22 -2 -3 -57 -1 -3 -27 0
23 -2 -6 -56 -3 -4 -27 1
15 -2 -5 -54 -2 -2 -25 3
5 -1 4 -52 0 -1 -23 5
5 -1 5 -49 0 1 -23 4
7 -2 3 -47 2 1 -22 3
3 -4 5 -47 3 1 -25 2
3 -7 3 -48 1 -1 -26 0
5 -4 5 -48 2 0 -27 1
10 -1 5 -49 2 0 -27 1
8 -5 2 -54 -3 -6 -31 -3
6 -10 2 -54 -4 -6 -29 -3
4 -12 6 -53 -5 -7 -31 -4
9 -10 8 -53 -7 -8 -32 -2
12 -6 3 -54 -7 -6 -30 0
5 -7 10 -49 -5 -5 -29 0
6 -7 11 -52 -5 -6 -31 0
7 -9 8 -50 -7 -5 -29 -2
5 -9 12 -44 -4 -2 -27 2
9 -6 16 -47 -3 -1 -26 1
5 -10 10 -53 -6 -3 -28 -1
10 -12 7 -50 -9 -3 -28 -2
6 -10 14 -46 -5 1 -24 2
-2 -14 12 -51 -7 -2 -25 2
-2 -15 11 -55 -9 -2 -25 2
6 -7 16 -51 -7 2 -22 5
11 -7 14 -54 -10 -2 -27 4
10 -11 14 -54 -13 -3 -27 3
9 -11 15 -53 -13 -2 -26 5
9 -9 18 -51 -14 1 -24 6
7 -11 18 -51 -16 1 -24 6
8 -11 14 -47 -16 -1 -24 6
10 -8 13 -47 -18 -2 -25 4
8 -7 16 -39 -19 -2 -27 -1
7 -11 23 -42 -22 -5 -31 -7
7 -13 24 -37 -21 -5 -32 -8
7 -15 25 -20 -15 -2 -35 -6
4 -18 32 -6 -5 3 -32 -4
6 -17 40 2 7 12 -29 -6
11 -19 41 9 9 16 -27 -9
17 -21 42 27 17 25 -19 -4
25 -17 46 53 46 54 3 10
42 -6 47 86 78 87 28 26
70 5 41 104 104 121 58 48
81 12 40 127 136 158 94 77
99 32 37 135 162 206 142 117
117 55 7 85 162 243 196 165
133 76 -30 27 146 279 252 221
160 104 -51 -21 133 312 302 267
173 126 -80 -70 114 332 337 305
179 142 -112 -132 86 344 366 338
178 142 -131 -201 44 330 367 348
157 134 -135 -256 -11 289 340 337
127 133 -140 -304 -62 235 296 310
95 133 -129 -333 -90 193 253 281
54 137 -112 -342 -103 163 216 252
15 132 -85 -333 -114 129 177 216
-14 112 -73 -334 -154 62 105 156
-32 92 -73 -349 -198 -20 26 92
-46 71 -68 -351 -238 -91 -44 35
-58 50 -61 -341 -264 -136 -90 -7
-59 32 -60 -322 -269 -156 -113 -30
-51 19 -50 -291 -263 -158 -118 -38
-38 15 -46 -261 -245 -142 -113 -41
-28 15 -43 -233 -223 -123 -101 -36
-28 20 -37 -201 -196 -98 -82 -24
-25 23 -27 -175 -173 -76 -67 -17
-20 22 -24 -151 -155 -60 -55 -10
-15 20 -26 -124 -140 -48 -47 -5
-6 16 -16 -100 -125 -35 -40 -1
0 7 -2 -80 -113 -25 -33 1
3 -1 2 -67 -105 -16 -27 3
3 -5 7 -59 -97 -9 -25 4
3 -6 5 -53 -94 -5 -23 5
8 -4 11 -45 -91 -5 -21 5
9 -1 18 -33 -87 1 -16 7
10 -2 12 -37 -89 0 -19 6
16 2 16 -36 -92 0 -19 6
15 0 19 -30 -92 0 -18 7
10 -5 19 -19 -93 -1 -20 3
13 -5 21 -20 -94 -3 -21 1
18 -1 20 -21 -95 -4 -23 0
17 -3 20 -18 -97 -5 -23 -4
18 -4 24 -21 -98 -3 -22 1
20 -9 24 -23 -97 1 -19 4
20 -5 26 -15 -95 3 -16 7
18 -4 28 -9 -100 2 -14 6
13 -3 27 -14 -101 6 -13 6
9 -4 32 -15 -101 5 -13 7
10 -5 28 -12 -103 2 -15 4
9 -6 26 -9 -105 3 -16 3
11 -7 24 -6 -108 1 -21 3
14 -7 23 -8 -110 2 -18 8
14 -8 26 -13 -111 4 -15 9
17 -7 25 -18 -115 3 -14 8
23 -3 22 -15 -114 6 -13 8
22 -7 18 -11 -120 3 -14 5
18 -9 21 -8 -120 3 -16 5
21 -7 26 -8 -122 1 -16 4
21 -5 29 -9 -122 3 -16 2
14 -8 26 -7 -124 4 -15 4
13 -7 23 -1 -123 5 -13 5
13 -7 27 -1 -125 5 -15 4
15 -9 36 -2 -127 6 -16 4
16 -9 30 1 -131 7 -13 5
16 -6 26 4 -129 10 -12 5
18 -7 26 4 -134 8 -13 3
19 -7 26 0 -135 7 -14 1
16 -9 28 0 -139 5 -15 1
16 -7 30 4 -138 9 -13 3
17 -9 26 2 -140 8 -14 3
21 -9 27 -1 -142 6 -15 2
25 -8 25 2 -146 7 -14 1
24 -8 24 6 -147 8 -16 0
23 -10 25 9 -148 9 -15 1
22 -6 29 9 -148 13 -12 2
14 -8 34 10 -150 14 -10 5
16 -9 29 8 -153 14 -12 5
16 -9 27 10 -155 14 -11 4
15 -8 30 22 -152 14 -13 4
22 -6 35 26 -153 15 -12 5
22 -5 33 23 -154 16 -11 4
22 -8 37 25 -155 18 -11 3
19 -7 34 32 -154 20 -9 5
21 -7 32 28 -156 20 -6 7
18 -6 34 28 -157 23 -3 9
16 -9 30 24 -162 20 -6 7
24 -4 28 30 -164 22 -6 7
24 -5 27 30 -167 21 -5 9
20 -6 29 33 -167 24 -2 9
20 -5 33 35 -166 26 0 13
21 -2 31 33 -166 27 2 14
19 -2 34 37 -163 31 6 16
27 -3 32 38 -165 31 5 13
34 -3 34 39 -168 28 2 9
31 -1 37 45 -167 31 4 10
22 -3 34 47 -166 35 8 17
16 -2 36 48 -166 38 11 21
22 -1 35 52 -169 38 10 21
23 -2 34 60 -171 38 9 18
24 -5 39 55 -171 39 9 17
27 -2 37 57 -171 39 11 18
30 -1 37 62 -169 41 13 20
31 3 42 65 -168 45 16 22
29 3 39 67 -167 46 19 25
25 1 38 71 -168 48 22 26
26 1 37 79 -170 51 23 27
31 7 38 85 -169 54 27 28
33 9 38 88 -168 55 27 29
33 7 40 97 -167 58 28 29
33 1 37 83 -172 56 26 27
37 4 35 86 -173 55 27 27
37 3 42 97 -173 59 30 30
35 3 43 94 -172 63 32 30
39 6 38 97 -171 65 34 31
41 9 40 108 -166 71 41 36
38 11 43 116 -164 76 44 40
43 13 44 119 -163 76 45 40
41 12 48 123 -163 78 47 42
38 14 49 128 -164 79 48 44
40 15 46 122 -167 78 50 44
42 15 46 119 -171 79 52 46
43 16 45 116 -173 83 55 49
43 15 41 117 -175 85 55 50
42 13 39 120 -178 86 59 55
50 19 43 131 -177 89 63 58
56 21 40 135 -176 91 64 59
60 21 43 134 -180 92 63 57
57 21 46 139 -179 93 62 57
52 23 42 135 -181 96 63 60
50 25 43 137 -183 98 66 63
50 26 45 138 -183 100 68 64
51 26 47 133 -186 100 69 64
53 29 40 134 -188 102 71 65
51 24 37 134 -192 103 74 67
50 22 39 136 -193 102 77 68
53 21 38 133 -199 100 78 68
61 24 39 132 -205 97 78 68
71 26 40 131 -209 97 81 67
69 27 40 128 -212 97 81 63
61 26 42 129 -216 97 83 64
57 26 42 130 -217 98 86 67
52 26 46 127 -220 97 88 69
44 26 49 125 -221 99 90 69
49 27 38 124 -222 97 93 71
51 26 39 121 -219 95 94 71
54 29 42 112 -204 92 92 70
54 27 39 106 -161 88 89 67
52 24 41 102 -118 84 91 67
54 27 38 96 -85 83 91 66
53 27 29 90 -29 81 90 64
50 25 31 95 19 81 91 63
47 25 38 85 50 78 90 59
43 22 33 75 69 72 84 52
51 25 26 69 87 68 83 52
53 27 28 63 102 65 81 51
41 20 31 50 114 61 78 49
35 19 25 47 125 59 76 46
32 17 22 47 137 57 74 46
29 19 25 45 146 54 72 44
32 15 29 42 152 50 69 41
30 12 19 33 159 44 65 36
31 13 18 33 169 43 64 35
29 12 20 31 175 40 61 32
24 8 21 27 180 35 58 29
19 3 20 20 183 31 55 27
15 0 19 11 183 27 52 24
20 4 18 11 187 24 51 23
23 5 26 15 188 20 49 22
17 1 20 13 187 13 43 17
16 -1 18 6 190 11 41 16
16 0 20 6 198 13 43 16
13 1 21 3 205 14 44 17
10 -1 19 -1 206 11 42 15
11 -5 15 -5 204 7 39 11
15 -4 18 -4 208 6 37 11
18 -3 23 -4 207 5 36 9
11 -4 24 -2 212 6 38 10
7 -6 22 2 213 5 39 11
4 -8 23 -1 214 3 36 9
6 -8 21 -4 215 0 33 7
6 -9 19 -3 216 -2 31 7
9 -8 15 0 217 -4 30 6
17 -8 11 -5 218 -5 30 4
18 -8 9 -6 217 -6 30 5
15 -6 12 -1 222 -3 31 5
17 -6 17 -8 221 -4 30 4
9 -8 18 -6 223 -6 29 4
5 -9 17 -4 225 -5 32 7
7 -5 15 -2 228 -3 31 6
7 -8 17 2 228 -4 31 6
11 -5 12 -2 231 -5 31 6
8 -6 15 -5 230 -6 28 5
5 -9 18 -7 229 -8 24 3
6 -8 17 -7 229 -9 24 3
5 -9 24 -4 232 -6 25 5
6 -7 20 2 232 -6 25 5
7 -7 17 0 232 -6 26 5
10 -8 16 -1 230 -8 25 4
9 -6 22 -2 231 -7 24 2
5 -7 23 -1 232 -8 24 3
4 -7 25 2 236 -7 25 4
7 -6 26 3 238 -7 23 3
7 -10 23 0 235 -9 20 1
2 -14 24 0 233 -6 21 4
6 -10 27 1 234 -5 23 5
11 -8 19 1 229 -8 22 5
13 -7 14 2 229 -8 23 6
8 -7 18 3 230 -6 25 8
1 -10 16 5 230 -6 25 7
3 -8 15 3 231 -5 25 6
5 -8 17 8 233 -4 25 7
7 -6 16 8 232 -6 22 3
12 -1 18 11 234 -4 22 4
9 -6 17 5 233 -5 22 5
6 -8 18 9 231 -5 23 6
6 -7 16 9 230 -5 22 6
8 -9 15 9 231 -6 21 6
10 -9 19 13 229 -8 21 4
5 -9 20 12 230 -6 23 3
8 -7 22 11 229 -7 22 3
8 -8 26 15 229 -8 22 1
7 -10 18 15 228 -7 22 1
11 -8 17 19 229 -7 22 1
11 -7 15 12 226 -8 21 0
9 -5 22 11 228 -5 23 0
4 -5 19 14 227 -4 24 4
1 -9 15 11 226 -8 22 2
1 -9 17 9 223 -9 21 0
0 -6 19 11 226 -6 23 1
3 -4 18 10 226 -7 23 1
6 -3 18 13 229 -6 25 1
4 -4 18 21 227 -5 24 1
4 -6 19 17 224 -7 20 -2
10 -5 14 14 223 -7 20 -1
11 -4 15 15 222 -7 20 -1
15 -4 14 12 219 -10 19 -2
17 -3 16 9 219 -10 20 -2
8 -2 15 12 222 -7 23 1
4 -3 15 13 220 -7 22 1
3 -7 21 13 218 -9 20 -1
2 -7 16 11 216 -11 19 0
9 -1 13 12 218 -8 20 0
10 -2 13 9 219 -8 20 -2
6 -5 11 9 218 -8 20 -1
4 -7 12 15 219 -6 22 0
1 -7 12 17 218 -5 23 1
-2 -5 15 22 217 -5 23 0
-2 -7 14 21 212 -8 21 -3
4 -6 12 15 211 -9 20 -7
8 -8 12 13 206 -13 17 -9
0 -12 13 23 205 -14 15 -7
0 -8 12 31 206 -12 17 -4
7 -5 14 24 204 -14 16 -3
8 -4 14 13 202 -11 19 -2
4 -4 13 18 207 -6 22 1
6 -5 12 18 202 -8 20 -2
5 -4 12 19 201 -10 19 -3
1 -4 13 17 201 -10 20 -2
-1 -5 14 14 198 -11 18 -4
6 -3 15 16 197 -13 16 -7
6 -1 17 16 198 -12 17 -5
-6 -8 12 19 197 -11 18 -2
-5 -10 10 14 196 -13 16 -3
-1 -11 7 10 192 -13 16 -6
-1 -10 9 13 196 -11 16 -6
1 -9 7 10 193 -13 15 -6
1 -9 9 9 187 -13 13 -7
2 -6 11 17 188 -13 13 -5
-1 -6 12 18 186 -14 11 -7
-1 -8 12 13 182 -17 9 -8
3 -8 7 10 180 -18 7 -11
3 -7 8 8 180 -17 8 -11
3 -7 6 7 177 -18 6 -12
6 -7 5 7 176 -19 6 -10
3 -8 7 10 176 -16 7 -9
0 -9 9 13 176 -14 10 -6
-5 -10 8 13 174 -14 10 -7
-3 -10 5 9 169 -18 6 -7
1 -8 5 10 168 -16 7 -6
0 -9 7 11 168 -15 8 -7
1 -7 13 13 169 -15 7 -9
-2 -7 11 15 168 -15 6 -10
-4 -8 5 13 166 -17 4 -12
-4 -9 7 14 164 -17 5 -11
-4 -9 8 14 166 -15 5 -12
1 -9 8 8 159 -19 1 -15
6 -9 10 7 155 -22 -2 -15
4 -8 7 10 152 -22 -1 -13
1 -7 6 16 155 -19 0 -11
2 -8 7 15 153 -21 -2 -13
-1 -9 4 15 150 -19 -3 -14
-1 -10 3 13 150 -21 -3 -14
-1 -12 4 8 147 -22 -6 -16
0 -14 2 1 143 -24 -6 -15
-1 -11 5 4 143 -20 -4 -14
-10 -10 7 12 143 -19 -2 -11
-11 -11 5 14 139 -18 -2 -10
-7 -10 3 11 137 -17 0 -10
-10 -11 9 11 136 -17 -1 -13
-4 -9 8 11 134 -20 -4 -13
-7 -10 5 13 134 -19 -4 -12
-7 -8 7 12 133 -18 -4 -14
-5 -9 2 6 131 -19 -8 -18
-5 -11 5 8 129 -19 -7 -15
-2 -10 4 8 127 -20 -9 -17
-2 -10 3 6 122 -23 -11 -19
0 -13 -2 5 119 -25 -12 -19
-2 -13 0 10 120 -24 -10 -18
-7 -13 3 14 121 -22 -9 -15
-9 -15 6 10 116 -24 -11 -16
-4 -13 0 9 117 -22 -10 -14
-1 -13 -2 5 116 -23 -10 -15
-7 -16 2 0 113 -24 -11 -16
-2 -12 2 0 112 -21 -10 -17
-4 -12 -2 4 113 -21 -9 -17
-7 -14 2 7 109 -22 -11 -17
-11 -14 0 10 108 -23 -11 -17
-7 -15 -1 3 107 -25 -12 -19
-4 -13 0 11 104 -24 -14 -20
-5 -14 -2 11 102 -26 -15 -19
-5 -15 -2 -1 101 -25 -14 -18
-5 -16 -5 5 99 -25 -15 -19
-5 -16 -7 1 95 -27 -16 -21
-2 -12 -7 -3 96 -24 -13 -19
-3 -14 -8 2 96 -22 -13 -19
-7 -17 -3 -2 93 -25 -15 -20
-7 -16 -4 -1 91 -24 -16 -20
-2 -16 -9 -6 85 -26 -18 -21
0 -14 -8 -3 84 -25 -18 -19
-2 -14 2 1 81 -26 -18 -21
-9 -17 1 2 82 -26 -18 -20
-7 -15 -7 -2 82 -25 -17 -20
-3 -16 -9 -8 78 -26 -19 -21
-4 -18 -11 -6 76 -27 -19 -22
-5 -20 -10 -4 74 -26 -19 -23
-8 -19 -7 -6 70 -27 -20 -22
-13 -16 -6 -5 71 -24 -17 -20
-13 -15 -6 -7 69 -24 -16 -21
-8 -14 0 -9 66 -23 -18 -20
-7 -15 -6 -7 64 -23 -19 -21
-9 -19 -9 -4 64 -23 -20 -21
-14 -21 -9 -14 64 -23 -19 -20
-11 -19 -7 -12 61 -22 -20 -20
-11 -19 -6 -18 59 -23 -19 -20
-7 -15 -7 -11 58 -23 -19 -20
-3 -14 -10 -14 54 -23 -20 -22
-8 -17 -4 -18 51 -25 -23 -23
-10 -20 -3 -17 52 -24 -21 -22
-7 -20 -10 -17 46 -26 -23 -23
-7 -22 -11 -15 45 -26 -25 -24
-7 -19 -12 -19 43 -27 -27 -23
-8 -19 -12 -23 42 -28 -26 -24
-5 -19 -11 -26 39 -29 -27 -25
-5 -20 -11 -26 38 -30 -27 -25
-7 -20 -13 -21 40 -26 -23 -22
-2 -17 -13 -21 37 -26 -24 -22
-1 -17 -14 -16 35 -27 -25 -24
-2 -19 -16 -19 29 -29 -29 -27
0 -17 -14 -16 31 -28 -28 -27
-1 -20 -10 -18 25 -29 -30 -29
0 -17 -14 -17 25 -28 -30 -28
-2 -18 -10 -18 23 -28 -30 -28
-6 -20 -8 -29 19 -29 -31 -25
-12 -20 -12 -24 18 -27 -27 -21
-10 -22 -8 -21 18 -28 -27 -22
-4 -21 -17 -25 14 -30 -30 -26
-3 -20 -20 -27 13 -30 -31 -27
-3 -23 -19 -29 11 -30 -32 -27
2 -17 -19 -24 9 -31 -33 -28
2 -18 -17 -24 6 -30 -35 -30
-2 -18 -20 -24 4 -30 -35 -30
-4 -19 -20 -26 2 -31 -37 -31
-6 -21 -13 -28 -1 -32 -39 -33
-11 -24 -18 -22 0 -29 -38 -28
-10 -22 -19 -22 1 -28 -36 -25
-8 -21 -22 -30 -6 -31 -39 -26
-7 -20 -19 -25 -6 -30 -39 -27
-5 -23 -20 -28 -9 -31 -40 -29
-6 -23 -19 -32 -11 -31 -40 -28
-9 -22 -13 -27 -10 -28 -38 -26
-10 -24 -17 -30 -13 -31 -40 -27
-5 -22 -21 -31 -15 -32 -42 -30
-1 -22 -21 -31 -18 -32 -42 -30
-4 -23 -19 -26 -18 -28 -39 -28
-4 -18 -19 -19 -17 -27 -37 -29
-8 -20 -19 -27 -20 -27 -39 -30
-7 -20 -20 -31 -23 -28 -43 -33
-2 -20 -16 -27 -26 -31 -46 -33
-1 -20 -16 -26 -26 -33 -47 -32
3 -18 -20 -31 -27 -33 -46 -32
4 -18 -20 -34 -28 -36 -47 -35
1 -19 -16 -36 -27 -34 -45 -32
0 -19 -15 -32 -26 -32 -45 -29
-1 -20 -18 -29 -25 -31 -43 -30
-7 -16 -15 -25 -21 -29 -40 -26
-7 -14 -17 -28 -21 -28 -40 -27
-8 -17 -23 -36 -25 -31 -46 -31
-4 -17 -26 -39 -29 -34 -49 -35
-2 -16 -23 -37 -29 -34 -48 -35
-7 -18 -20 -34 -29 -33 -48 -35
-7 -16 -21 -32 -26 -31 -45 -31
-3 -13 -17 -31 -24 -30 -44 -33
3 -12 -17 -32 -25 -31 -46 -34
-1 -13 -17 -35 -25 -30 -44 -32
-9 -16 -17 -32 -24 -29 -42 -29
-5 -14 -17 -34 -25 -31 -43 -31
-3 -14 -14 -39 -27 -32 -46 -31
-2 -15 -19 -41 -27 -33 -47 -31
-1 -13 -19 -33 -27 -31 -44 -29
-5 -14 -19 -33 -27 -31 -47 -31
-7 -15 -18 -35 -27 -30 -45 -29
-8 -15 -18 -26 -24 -28 -44 -30
-8 -14 -18 -25 -25 -30 -47 -30
-4 -11 -16 -27 -24 -28 -44 -29
0 -12 -15 -31 -23 -29 -45 -30
3 -12 -14 -34 -24 -30 -48 -33
2 -11 -14 -31 -23 -30 -49 -34
-2 -11 -14 -30 -21 -30 -47 -31
-6 -12 -13 -32 -20 -30 -45 -28
-10 -11 -10 -32 -22 -28 -45 -28
-9 -12 -14 -37 -27 -29 -45 -27
-7 -11 -13 -39 -26 -28 -43 -27
-6 -12 -14 -37 -28 -29 -43 -29
-6 -11 -17 -37 -28 -29 -44 -29
-5 -12 -16 -37 -26 -28 -43 -28
-3 -10 -16 -35 -25 -27 -43 -27
-5 -9 -14 -37 -28 -28 -44 -29
-6 -10 -15 -37 -27 -27 -41 -28
-6 -13 -20 -38 -28 -28 -44 -31
-6 -11 -18 -39 -28 -29 -44 -32
-4 -8 -14 -40 -30 -29 -43 -31
1 -11 -17 -40 -32 -31 -45 -33
3 -7 -17 -37 -31 -29 -46 -31
-3 -6 -14 -34 -30 -30 -45 -31
-7 -10 -12 -34 -26 -28 -42 -29
-8 -10 -14 -36 -27 -29 -44 -30
-8 -10 -13 -39 -28 -28 -45 -29
-9 -6 -12 -40 -27 -27 -42 -27
-6 -3 -12 -38 -25 -23 -40 -23
-8 -4 -14 -36 -25 -24 -40 -25
-6 -4 -14 -33 -26 -25 -41 -24
-1 -4 -14 -38 -27 -26 -41 -25
3 -2 -17 -35 -28 -26 -41 -26
1 -4 -12 -34 -26 -25 -40 -27
1 -5 -15 -38 -28 -27 -41 -28
4 -2 -13 -40 -28 -25 -41 -29
7 -1 -14 -39 -30 -27 -42 -29
9 1 -13 -33 -29 -25 -41 -28
9 6 -10 -32 -24 -21 -38 -25
2 9 -4 -24 -15 -15 -31 -18
1 12 0 -19 -10 -12 -29 -15
6 14 3 -18 -9 -11 -29 -16
7 13 2 -23 -9 -11 -29 -16
9 14 2 -24 -9 -11 -27 -16
4 12 2 -22 -7 -9 -25 -16
0 12 -1 -18 -7 -9 -26 -16
2 9 1 -17 -7 -11 -28 -19
5 9 5 -18 -6 -10 -27 -17
7 7 9 -16 -3 -8 -26 -16
10 10 0 -13 -1 -6 -24 -13
14 14 -3 -15 0 -5 -23 -11
13 15 -2 -11 6 -2 -20 -9
11 15 2 -8 10 1 -17 -7
17 18 -3 -6 10 1 -17 -6
18 19 -3 -4 11 2 -16 -6
13 17 -3 -3 11 3 -14 -5
9 16 -7 -9 8 4 -13 -6
5 15 -12 -13 4 1 -16 -7
6 11 -17 -17 2 -3 -18 -8
9 13 -18 -17 0 -5 -21 -10
14 14 -11 -21 1 -5 -20 -8
13 14 -16 -26 -1 -6 -22 -9
14 10 -15 -26 -2 -7 -22 -10
14 6 -17 -30 -5 -10 -25 -13
12 4 -16 -24 -4 -10 -23 -9
10 6 -17 -28 -6 -12 -23 -8
11 8 -19 -34 -10 -13 -24 -9
6 9 -18 -33 -9 -11 -22 -6
4 7 -14 -37 -12 -13 -23 -8
4 3 -15 -45 -16 -15 -25 -12
1 -1 -22 -43 -16 -16 -26 -14
4 -3 -23 -38 -17 -19 -29 -16
10 0 -20 -29 -17 -18 -28 -15
15 2 -17 -31 -15 -19 -29 -18
15 1 -18 -29 -13 -19 -29 -18
10 2 -14 -31 -13 -19 -28 -13
-1 -3 -15 -37 -16 -19 -28 -13
-5 -5 -14 -39 -18 -20 -29 -15
-2 -3 -12 -32 -18 -20 -29 -13
0 -2 -11 -33 -19 -20 -29 -13
-4 -2 -8 -33 -18 -21 -28 -14
-9 -6 -14 -32 -19 -22 -30 -18
-11 -8 -11 -33 -17 -22 -31 -19
-8 -5 -6 -35 -16 -21 -31 -20
-5 -4 -6 -34 -15 -20 -29 -19
-9 -5 -4 -37 -18 -23 -32 -22
-8 -6 -3 -37 -19 -24 -33 -24
-8 -6 -9 -36 -19 -24 -32 -22
-9 -3 -2 -32 -18 -23 -32 -20
-13 -8 -1 -32 -20 -24 -34 -21
-11 -8 -10 -34 -21 -25 -34 -20
-5 -5 -11 -39 -20 -25 -34 -22
-4 -6 -11 -42 -22 -25 -37 -24
-3 -8 -12 -40 -23 -27 -38 -24
-4 -9 -16 -40 -25 -28 -38 -23
-7 -10 -10 -36 -24 -27 -35 -21
-8 -10 -9 -30 -25 -27 -35 -21
-10 -12 -6 -33 -25 -27 -34 -21
-11 -10 -1 -30 -24 -26 -35 -22
-10 -7 -3 -26 -24 -25 -33 -21
-9 -7 -8 -34 -26 -26 -34 -22
-8 -8 -11 -32 -26 -27 -35 -23
-7 -9 -8 -33 -26 -27 -34 -23
-8 -10 -9 -29 -27 -26 -34 -24
-8 -9 -8 -28 -24 -25 -34 -24
-7 -9 -9 -32 -25 -25 -36 -25
-6 -8 -6 -31 -28 -25 -36 -23
-12 -10 -2 -24 -26 -23 -33 -20
-11 -14 -6 -32 -30 -27 -37 -24
-9 -15 -2 -23 -28 -27 -38 -26
-9 -14 7 -8 -21 -21 -35 -25
-11 -16 20 5 -9 -15 -34 -27
-7 -17 23 20 3 -10 -34 -29
-5 -23 24 29 8 -9 -36 -34
3 -24 23 44 14 -4 -34 -35
12 -20 26 71 34 14 -20 -27
22 -14 34 106 63 44 3 -9
38 -4 32 129 93 78 32 15
55 5 31 149 119 111 61 39
77 17 29 161 144 147 98 68
105 42 6 129 153 185 144 110
139 67 -34 73 148 218 191 154
161 89 -68 26 147 257 240 199
177 106 -93 -10 139 283 277 236
188 122 -125 -65 123 298 304 266
194 131 -153 -132 94 299 317 287
187 127 -168 -196 46 270 303 283
162 124 -174 -257 0 229 271 268
127 128 -171 -300 -35 191 237 246
88 129 -153 -320 -55 159 203 222
55 130 -133 -318 -66 134 176 200
21 118 -112 -321 -95 86 126 157
-11 100 -102 -324 -130 21 63 106
-36 76 -94 -330 -174 -56 -8 48
-59 51 -85 -324 -210 -120 -68 -4
-69 35 -82 -309 -221 -148 -99 -33
-65 21 -76 -286 -219 -156 -111 -48
-59 10 -68 -253 -203 -147 -109 -52
-52 5 -65 -224 -185 -134 -101 -51
-43 8 -62 -188 -160 -116 -90 -47
-42 9 -55 -164 -135 -95 -77 -41
-33 13 -47 -141 -116 -78 -67 -36
-25 13 -42 -118 -99 -65 -56 -27
-19 5 -39 -93 -84 -53 -48 -23
-14 0 -23 -68 -65 -38 -39 -19
-10 -3 -13 -47 -51 -29 -34 -16
-7 -8 -7 -36 -43 -24 -31 -17
-8 -9 -4 -28 -37 -20 -28 -14
-10 -12 -3 -24 -38 -21 -30 -16
-6 -12 2 -12 -36 -19 -29 -15
-7 -15 2 -14 -33 -18 -29 -16
-7 -12 5 -10 -29 -17 -29 -19
-4 -12 8 -8 -30 -17 -29 -21
-2 -14 8 -11 -35 -21 -34 -22
-6 -18 9 -11 -33 -19 -35 -22
-7 -19 11 -8 -34 -18 -35 -23
-3 -19 6 -6 -31 -16 -33 -20
3 -18 9 -1 -29 -14 -32 -19
2 -19 6 1 -31 -16 -33 -21
-2 -19 13 3 -29 -15 -31 -20
-5 -19 16 1 -26 -11 -26 -16
-9 -18 16 5 -23 -8 -25 -16
-10 -19 16 11 -23 -9 -26 -17
-6 -21 17 11 -25 -10 -28 -17
-6 -23 20 14 -23 -9 -29 -18
-2 -19 17 15 -21 -9 -28 -19
-5 -20 18 21 -20 -8 -26 -17
-2 -23 19 17 -22 -9 -28 -19
0 -23 20 12 -22 -8 -28 -20
0 -20 23 7 -22 -8 -27 -19
1 -21 23 12 -20 -5 -25 -15
-1 -23 23 17 -20 -6 -24 -16
-1 -27 19 13 -21 -9 -28 -18
1 -27 22 17 -22 -10 -29 -18
2 -24 25 17 -19 -8 -27 -16
1 -23 25 26 -17 -7 -26 -16
-4 -24 28 26 -13 -2 -22 -12
-5 -26 23 21 -15 -4 -23 -14
-1 -23 25 21 -15 -2 -21 -11
0 -22 30 18 -16 -1 -20 -9
1 -24 26 22 -17 -1 -19 -9
5 -24 24 22 -20 -3 -21 -13
5 -26 22 19 -22 -5 -24 -16
4 -25 30 21 -22 -4 -24 -17
1 -26 31 31 -17 -2 -23 -18
2 -22 27 30 -18 -2 -24 -18
8 -22 28 30 -16 -3 -24 -17
7 -22 26 32 -14 0 -23 -15
5 -21 25 28 -11 3 -20 -13
6 -20 23 25 -11 2 -20 -12
2 -23 22 31 -10 3 -17 -12
-2 -24 24 37 -12 5 -17 -11
0 -25 24 36 -13 4 -17 -9
3 -27 23 38 -16 3 -19 -11
6 -24 22 41 -14 5 -19 -10
8 -23 27 42 -11 5 -18 -7
3 -24 29 41 -9 7 -17 -7
2 -26 26 40 -9 8 -17 -8
5 -25 27 39 -8 10 -16 -9
7 -22 27 36 -8 10 -14 -9
12 -19 33 43 -6 11 -14 -8
13 -20 32 46 -6 11 -14 -6
10 -22 31 47 -5 10 -14 -5
8 -23 28 49 -3 12 -13 -5
8 -24 30 50 -2 13 -13 -7
10 -21 29 60 0 15 -11 -5
8 -22 30 66 2 17 -9 -5
9 -23 30 60 2 18 -9 -5
11 -23 31 57 4 20 -9 -5
13 -22 30 58 4 21 -6 -2
17 -21 31 64 7 22 -4 -1
20 -21 30 62 6 21 -5 0
20 -17 32 69 8 23 -2 2
21 -17 32 70 9 23 -1 3
20 -17 32 75 12 25 -3 3
18 -16 37 76 15 26 -2 3
17 -15 38 80 16 29 -1 4
18 -17 34 88 17 29 -1 4
19 -16 33 91 19 31 1 4
18 -15 36 88 20 32 3 5
21 -14 38 86 22 35 5 8
22 -13 43 97 25 39 10 10
23 -13 41 102 26 40 10 10
29 -12 43 103 27 38 9 11
29 -12 50 109 31 42 13 14
27 -13 48 104 34 44 14 14
25 -15 38 105 34 47 16 14
26 -17 33 104 33 46 17 14
27 -14 34 104 32 49 20 16
32 -7 38 110 35 54 25 20
35 -9 37 120 37 55 24 19
36 -8 40 122 40 56 26 22
34 -7 39 124 44 59 30 27
30 -6 41 128 47 63 33 32
28 -3 51 131 50 68 39 35
31 -3 44 130 51 69 39 34
32 -4 40 130 52 70 40 33
42 -4 45 130 52 71 40 34
49 -3 47 133 52 70 41 32
45 -1 43 136 54 74 45 35
38 -3 48 143 58 79 48 38
40 -5 43 143 56 77 46 36
43 -2 41 147 56 76 47 38
51 1 47 145 56 76 47 39
54 3 46 144 58 78 49 41
50 5 45 146 60 80 53 44
39 -2 47 149 62 82 54 47
35 -5 47 146 61 83 54 47
42 0 46 145 62 86 57 49
50 5 45 150 64 88 60 52
46 3 42 145 64 87 60 53
45 0 41 139 58 84 56 50
51 -1 38 140 55 81 55 47
54 1 39 144 56 81 55 47
50 2 42 147 57 80 55 45
49 4 45 147 56 80 54 47
50 2 41 142 56 78 52 48
48 2 39 133 55 79 52 49
51 6 40 130 54 80 53 50
49 7 43 125 54 81 54 52
49 4 34 127 51 78 51 50
47 4 38 124 47 74 49 47
49 5 41 113 42 71 46 46
55 5 35 106 36 67 43 44
52 3 26 105 34 65 41 42
44 0 24 102 35 65 42 42
42 3 30 97 35 66 44 45
39 2 26 89 31 64 43 44
33 -3 22 83 26 63 43 43
31 -4 22 78 23 61 42 41
33 -6 22 71 18 57 38 38
37 -4 23 65 14 52 34 35
35 -5 26 61 12 50 31 31
32 -7 24 59 10 44 25 28
27 -7 24 63 12 45 26 29
14 -10 23 60 12 43 24 29
8 -13 25 55 10 41 21 28
15 -15 26 40 5 36 17 24
18 -17 22 32 -1 32 13 20
15 -17 24 37 -4 31 14 18
15 -19 23 36 -9 26 10 16
12 -21 21 24 -12 22 7 14
15 -19 20 22 -13 20 6 12
18 -19 17 23 -16 16 2 10
9 -19 18 24 -16 15 3 9
3 -21 20 24 -17 12 1 8
3 -25 19 24 -17 9 -2 6
-1 -24 31 20 -16 11 0 7
-4 -23 35 17 -17 10 -1 7
-2 -22 25 13 -18 10 0 10
2 -22 28 4 -20 8 1 10
2 -27 21 2 -25 2 -2 8
8 -23 20 0 -31 -2 -4 5
5 -20 22 7 -30 -1 -4 5
2 -26 21 4 -33 -4 -7 0
0 -28 17 -3 -37 -6 -10 -4
-5 -29 16 -7 -35 -6 -10 -6
-5 -28 14 -11 -36 -5 -12 -6
-2 -28 11 -11 -36 -5 -11 -6
-7 -29 13 0 -33 -3 -11 -4
-7 -27 13 -5 -34 -4 -10 1
-8 -26 17 1 -34 -4 -9 5
-8 -26 14 -3 -35 -5 -9 2
-3 -27 17 -4 -36 -7 -11 0
-4 -30 15 -5 -36 -9 -12 -4
-6 -35 8 -8 -39 -11 -15 -8
-5 -35 7 -10 -40 -11 -16 -7
3 -24 13 -2 -36 -7 -11 -1
7 -20 15 -5 -36 -5 -8 0
-3 -26 21 -1 -35 -6 -8 2
-10 -32 17 -4 -37 -10 -9 1
-2 -26 15 -6 -39 -11 -11 0
-3 -25 15 -2 -38 -9 -10 0
-4 -27 15 -3 -37 -8 -11 -1
-4 -30 16 -6 -37 -9 -11 -5
-9 -32 15 -4 -37 -11 -14 -7
-8 -29 15 0 -34 -9 -12 -1
-6 -29 18 1 -33 -8 -11 0
-3 -28 21 -3 -33 -9 -11 -2
-1 -27 19 -6 -32 -8 -13 -4
-4 -29 17 -2 -29 -7 -10 -1
-6 -30 24 0 -28 -8 -10 0
-1 -30 22 -6 -36 -10 -10 0
1 -29 16 -6 -37 -12 -11 0
0 -27 20 -4 -36 -10 -9 2
-5 -27 18 0 -32 -8 -9 2
-7 -28 21 0 -29 -8 -9 2
-6 -26 23 3 -26 -5 -6 4
-5 -27 23 3 -25 -5 -4 5
-5 -27 17 3 -27 -6 -6 4
-4 -27 15 1 -27 -7 -7 4
-2 -30 12 -4 -29 -10 -9 1
-1 -27 12 0 -28 -9 -8 0
-10 -27 17 7 -24 -5 -4 3
-11 -30 17 6 -22 -7 -5 4
-9 -29 17 2 -23 -8 -7 3
-8 -29 18 1 -20 -9 -7 3
-5 -29 20 0 -18 -8 -7 3
-6 -29 16 -4 -20 -8 -5 2
-9 -30 16 1 -21 -5 -3 -1
-3 -27 19 3 -20 -4 -2 0
-1 -24 19 1 -20 -4 -3 0
-4 -25 22 0 -20 -4 -2 3
-5 -27 19 2 -20 -4 -2 1
-4 -30 16 0 -23 -9 -6 -4
-5 -30 17 -1 -22 -9 -8 -2
-7 -28 19 5 -21 -8 -6 1
-8 -29 19 5 -22 -11 -8 0
-5 -29 14 0 -20 -10 -7 0
-2 -28 15 2 -18 -8 -5 0
6 -22 16 1 -15 -7 -2 3
4 -24 16 3 -13 -7 -3 1
0 -26 18 8 -14 -7 -3 0
-2 -27 15 15 -13 -7 -3 1
-5 -28 16 6 -13 -6 -2 2
-5 -28 17 6 -14 -7 -4 -1
-7 -26 18 9 -11 -7 -2 2
-7 -27 18 6 -11 -6 -1 3
-6 -28 17 1 -12 -6 -1 4
-3 -27 14 3 -12 -7 -2 4
-4 -28 14 1 -13 -8 -3 4
-4 -29 15 0 -11 -6 -2 4
-6 -28 17 0 -10 -6 -2 5
-5 -28 14 0 -12 -7 -2 4
1 -25 14 10 -13 -8 -4 1
2 -25 13 7 -14 -9 -7 -3
-1 -26 12 2 -14 -11 -8 -1
-3 -27 11 -2 -12 -12 -8 -1
-3 -28 14 0 -11 -11 -9 -1
-1 -25 15 -3 -9 -9 -6 1
-3 -27 15 -8 -8 -8 -4 3
-3 -28 19 -7 -10 -8 -4 3
-1 -27 15 -4 -13 -9 -5 3
-1 -29 9 -5 -15 -13 -7 0
1 -31 11 -2 -14 -13 -8 -1
4 -28 10 -1 -12 -12 -9 -3
2 -29 9 -3 -13 -15 -11 -3
3 -27 16 -2 -11 -14 -8 -2
2 -28 12 -6 -11 -14 -8 -3
-4 -31 12 -13 -13 -14 -9 -4
-1 -28 13 -13 -12 -12 -8 -1
-4 -28 16 -12 -8 -10 -6 2
-13 -28 21 -8 -6 -9 -4 6
-14 -29 21 0 -4 -8 -1 5
-10 -30 14 0 -4 -12 -4 2
-6 -30 12 -10 -7 -14 -8 -2
-3 -31 10 -12 -12 -16 -11 -4
-1 -34 10 -14 -14 -19 -13 -5
3 -27 12 -12 -12 -16 -12 -3
0 -25 15 -11 -6 -12 -8 0
0 -28 16 -12 -4 -13 -8 -1
2 -29 10 -15 -9 -15 -10 -3
3 -30 9 -18 -14 -20 -14 -4
-3 -28 13 -23 -14 -22 -12 -4
-5 -25 13 -22 -12 -20 -10 -1
-5 -24 17 -24 -13 -20 -12 -2
-1 -23 8 -23 -13 -19 -12 -4
0 -24 6 -16 -9 -18 -12 -6
0 -26 8 -21 -9 -20 -13 -7
-2 -26 9 -17 -11 -20 -13 -7
-4 -29 7 -18 -11 -20 -11 -5
-5 -30 11 -20 -9 -19 -10 -2
-5 -31 13 -22 -12 -20 -11 1
-2 -31 10 -19 -13 -22 -12 1
-6 -28 11 -20 -12 -21 -9 1
-7 -29 9 -16 -8 -20 -8 -1
-5 -27 11 -16 -6 -19 -9 -4
-2 -28 12 -18 -6 -19 -8 -2
-3 -33 8 -26 -9 -23 -11 -4
-1 -31 9 -26 -11 -22 -13 -6
1 -31 12 -22 -8 -19 -11 -6
3 -29 8 -24 -9 -20 -12 -6
1 -24 5 -26 -6 -20 -12 -4
-8 -27 3 -22 -5 -21 -11 -5
-13 -30 4 -23 -6 -23 -13 -7
-10 -29 6 -21 -5 -23 -15 -8
-3 -29 6 -22 -9 -26 -18 -10
3 -27 15 -27 -8 -25 -16 -9
0 -28 13 -22 -6 -26 -14 -8
-5 -27 7 -20 -6 -24 -13 -6
-6 -27 11 -20 -2 -20 -9 -5
-12 -30 11 -12 0 -16 -7 -3
-14 -31 10 -19 0 -16 -8 -2
-11 -33 9 -24 0 -18 -9 -4
-11 -36 9 -21 -3 -18 -9 -4
-10 -33 9 -16 -2 -18 -8 -2
-7 -32 5 -20 -2 -21 -13 -7
-3 -30 7 -17 0 -20 -13 -9
-5 -27 6 -18 4 -19 -12 -9
-5 -26 8 -21 1 -22 -15 -11
-3 -25 12 -19 0 -25 -15 -10
-4 -26 7 -24 -4 -27 -18 -9
-5 -28 1 -29 -8 -27 -18 -8
0 -25 1 -24 -9 -26 -17 -7
1 -22 2 -24 -7 -24 -16 -6
-7 -24 11 -23 -4 -21 -14 -5
-9 -21 9 -17 0 -19 -13 -6
-7 -24 7 -15 4 -18 -12 -6
-4 -26 4 -24 2 -21 -13 -9
-8 -28 6 -22 2 -20 -11 -5
-8 -28 8 -20 3 -17 -7 0
-8 -27 6 -23 3 -14 -5 4
-11 -28 2 -24 1 -15 -5 3
-12 -27 3 -21 2 -16 -6 1
-9 -28 0 -22 0 -18 -9 -3
-6 -27 -1 -23 -2 -21 -12 -7
-6 -24 2 -22 1 -22 -14 -10
-8 -27 2 -22 1 -21 -13 -10
-5 -31 0 -29 -7 -27 -16 -14
-1 -28 0 -35 -7 -27 -18 -15
-1 -25 -3 -36 -3 -24 -16 -14
-10 -24 0 -28 0 -20 -11 -7
-15 -22 5 -19 3 -16 -9 -3
-14 -23 10 -20 0 -20 -11 -6
-13 -26 8 -23 -1 -22 -13 -9
-14 -25 6 -21 -1 -22 -13 -7
-15 -26 5 -21 -3 -23 -15 -10
-17 -31 1 -25 -5 -25 -18 -13
-13 -31 -3 -29 -7 -29 -21 -16
-8 -26 -1 -26 -6 -28 -19 -15
-4 -21 3 -26 -2 -23 -17 -13
-5 -23 3 -24 -2 -23 -15 -10
-3 -21 1 -23 -3 -23 -15 -10
-8 -21 1 -21 -2 -21 -12 -9
-15 -21 2 -19 -2 -21 -11 -9
-12 -17 4 -18 -1 -20 -10 -8
-14 -17 3 -13 0 -18 -7 -6
-14 -19 3 -15 -1 -19 -8 -5
-13 -22 2 -25 -1 -20 -8 -5
-14 -25 -2 -27 -5 -23 -11 -8
-13 -25 -2 -25 -4 -22 -9 -8
-12 -24 -1 -20 -3 -22 -10 -10
-9 -20 4 -22 -3 -24 -14 -14
-5 -17 2 -21 1 -23 -14 -14
-6 -20 1 -18 1 -23 -14 -12
-9 -20 4 -24 1 -23 -15 -12
-16 -21 8 -25 0 -21 -12 -9
-17 -22 3 -24 -2 -21 -12 -9
-15 -21 3 -26 -1 -19 -11 -8
-12 -20 -1 -27 -1 -18 -10 -10
-16 -22 6 -23 0 -17 -9 -10
-19 -21 8 -18 2 -17 -8 -9
-15 -22 -2 -23 -5 -22 -12 -12
-13 -22 -4 -27 -7 -24 -13 -13
-10 -18 -2 -23 -2 -22 -11 -11
-8 -17 -3 -26 -2 -21 -12 -11
-5 -15 1 -25 -1 -22 -12 -12
-5 -19 1 -25 -1 -23 -13 -13
-7 -21 0 -23 -3 -23 -13 -13
-14 -18 1 -19 1 -18 -8 -8
-23 -18 7 -15 5 -15 -5 -5
-22 -19 8 -17 3 -16 -7 -8
-23 -19 4 -15 2 -19 -8 -12
-23 -19 2 -21 3 -22 -10 -15
-14 -14 4 -24 -2 -23 -11 -17
-11 -15 0 -25 -4 -23 -14 -20
-6 -16 -4 -27 -4 -23 -14 -18
-6 -15 -2 -22 -3 -22 -11 -13
-5 -18 -1 -25 -4 -22 -11 -14
-6 -18 -4 -22 -6 -23 -12 -15
-12 -16 1 -15 -3 -19 -8 -11
-18 -15 8 -19 1 -16 -4 -9
-16 -14 6 -21 0 -15 -4 -8
-15 -13 8 -19 -1 -16 -4 -10
-21 -13 11 -17 0 -16 -3 -10
-21 -15 9 -20 3 -15 -4 -9
-20 -17 -2 -23 1 -16 -5 -12
-14 -15 -2 -26 -2 -19 -8 -15
-12 -18 0 -23 -6 -20 -10 -16
-13 -16 -1 -26 -9 -22 -11 -18
-11 -12 -1 -27 -8 -23 -13 -18
-13 -12 -1 -17 -6 -19 -10 -13
-16 -14 -2 -21 -5 -18 -8 -11
-12 -12 -3 -21 -4 -18 -8 -12
-18 -14 0 -21 -5 -19 -9 -12
-17 -17 4 -22 -7 -20 -9 -12
-18 -18 8 -19 -2 -17 -7 -10
-18 -18 1 -21 -5 -20 -6 -9
-15 -16 1 -20 -7 -20 -6 -8
-18 -18 -2 -18 -6 -20 -5 -10
-18 -15 3 -16 -4 -17 -5 -12
-16 -12 0 -17 -4 -16 -3 -13
-16 -13 -6 -21 -9 -21 -9 -16
-14 -12 -5 -23 -8 -21 -10 -17
-12 -7 -4 -17 -3 -20 -9 -16
-13 -8 -3 -13 -1 -19 -9 -15
-15 -10 -1 -15 2 -19 -8 -15
-15 -9 1 -16 3 -16 -7 -13
-14 -10 1 -20 -1 -17 -7 -15
-11 -11 -5 -29 -6 -20 -9 -18
-12 -10 -3 -28 -5 -20 -10 -19
-15 -9 -6 -20 1 -16 -7 -16
-18 -10 -5 -16 1 -15 -6 -14
-21 -13 -3 -15 0 -17 -5 -15
-19 -11 -1 -16 -2 -20 -8 -15
-13 -9 -2 -17 -7 -23 -10 -18
-14 -8 -3 -20 -6 -23 -9 -20
-15 -9 -4 -23 -4 -21 -10 -22
-19 -11 -5 -23 -4 -19 -9 -21
-20 -10 -4 -25 -2 -17 -8 -19
-16 -8 -1 -23 -3 -19 -8 -18
-16 -10 -3 -25 -5 -21 -10 -19
-18 -8 -7 -22 -1 -20 -8 -18
-20 -9 -4 -19 -1 -18 -4 -15
-16 -8 -11 -23 -5 -20 -5 -16
-15 -6 -10 -22 -3 -19 -4 -16
-19 -8 -6 -21 -1 -18 -3 -15
-18 -10 -1 -13 2 -15 -2 -12
-17 -11 -5 -17 0 -16 -4 -13
-16 -10 2 -22 -4 -18 -3 -13
-16 -10 -2 -24 -4 -18 -4 -13
-17 -10 -7 -21 -2 -17 -2 -13
-13 -7 -10 -21 -4 -19 -3 -16
-16 -6 -6 -17 -2 -18 -1 -18
-17 -3 -8 -17 -1 -18 -4 -20
-11 0 -9 -17 0 -19 -6 -22
-14 -3 -9 -15 -1 -20 -9 -22
-18 0 -6 -13 2 -18 -7 -18
-14 4 -6 -12 4 -15 -4 -14
-10 8 -4 -7 6 -11 1 -12
-7 9 -2 -7 7 -10 1 -10
-11 9 -3 -7 8 -10 0 -10
-9 8 -3 -6 8 -10 2 -9
-9 8 3 -4 10 -8 5 -6
-7 12 4 1 13 -3 9 -4
-3 15 0 -2 14 -3 11 -3
-10 15 4 1 16 0 14 0
-16 13 6 -1 15 -3 12 -3
-11 12 7 1 13 -6 9 -7
-3 13 4 5 15 -4 11 -8
-3 12 1 -2 15 -6 9 -9
-4 14 3 2 18 -3 10 -9
-6 14 -1 6 24 0 11 -6
-6 15 1 10 25 0 11 -4
-2 17 3 12 27 2 13 -4
1 19 2 11 28 5 15 -2
3 20 2 7 27 6 18 1
3 20 -5 5 26 7 20 3
-6 16 -12 -3 20 4 19 3
-8 14 -11 -3 18 2 18 2
-3 14 -14 -7 14 -2 14 -2
0 16 -19 -7 10 -6 10 -6
2 18 -17 -7 10 -6 10 -7
2 13 -14 -15 9 -9 7 -10
4 10 -20 -15 7 -10 5 -11
1 10 -23 -11 6 -11 4 -13
-9 11 -23 -13 4 -13 4 -13
-14 13 -18 -9 6 -11 5 -12
-14 14 -16 -13 5 -13 3 -14
-13 15 -23 -21 2 -14 2 -13
-12 15 -23 -21 -1 -16 1 -14
-13 10 -25 -22 -4 -17 0 -15
-16 8 -24 -18 -4 -18 0 -13
-18 6 -19 -19 -2 -16 4 -10
-17 6 -17 -20 -1 -18 3 -10
-12 9 -17 -20 0 -17 3 -9
-13 5 -22 -20 -4 -19 2 -13
-11 4 -25 -18 -5 -21 -1 -15
-8 9 -25 -22 -5 -21 -2 -16
-9 8 -25 -23 -5 -24 -4 -19
-15 5 -20 -22 -4 -25 -5 -21
-25 3 -14 -19 1 -22 -4 -20
-29 2 -14 -15 1 -22 -4 -20
-29 5 -10 -7 2 -19 -1 -18
-29 3 -10 -11 1 -19 -2 -19
-28 3 -11 -15 -2 -23 -5 -24
-27 3 -12 -16 -1 -23 -4 -23
-25 0 -19 -20 -4 -28 -9 -25
-24 0 -19 -25 -7 -29 -9 -23
-29 1 -17 -25 -6 -27 -7 -22
-33 1 -18 -25 -6 -27 -5 -23
-30 2 -18 -21 -6 -26 -6 -24
-28 3 -17 -21 -8 -27 -7 -27
-27 4 -13 -21 -6 -30 -6 -28
-26 5 -8 -20 -4 -30 -8 -27
-30 2 -10 -18 -3 -28 -7 -27
-29 6 -9 -11 -1 -27 -4 -24
-27 7 -11 -16 -3 -27 -3 -23
-24 5 -16 -26 -9 -29 -5 -24
-24 5 -14 -19 -10 -28 -3 -23
-32 3 -16 -21 -10 -29 -4 -23
-32 1 -19 -21 -11 -29 -5 -25
-31 0 -15 -22 -10 -29 -7 -24
-27 1 -18 -16 -8 -28 -7 -25
-21 4 -20 -13 -6 -27 -6 -26
-28 5 -13 -14 -3 -25 -6 -25
-27 8 -11 -15 -3 -26 -6 -25
-27 9 -15 -16 -7 -31 -12 -30
-29 8 -14 -23 -13 -34 -14 -34
-31 7 -12 -17 -10 -31 -14 -37
-38 5 -5 -5 -1 -26 -10 -34
-38 1 -4 3 5 -23 -11 -32
-35 -3 3 13 13 -21 -12 -34
-32 -6 7 27 18 -19 -14 -40
-26 -9 9 38 27 -13 -11 -38
-20 -9 14 42 32 -7 -7 -36
-18 -13 16 61 45 7 4 -28
-7 -7 13 87 73 33 23 -13
21 11 15 120 105 72 56 11
37 21 13 144 133 108 90 37
59 32 11 165 164 147 126 66
89 53 -5 170 184 188 173 109
114 75 -31 126 186 225 224 159
138 98 -64 74 179 257 274 206
156 118 -91 19 160 277 309 241
165 132 -117 -33 139 293 340 276
172 143 -142 -87 118 302 361 301
162 135 -155 -144 77 278 345 301
140 134 -162 -202 28 235 314 287
106 135 -151 -250 -10 185 269 257
66 140 -136 -264 -23 151 225 225
29 149 -116 -260 -27 126 194 198
-6 136 -100 -267 -49 79 142 149
-35 117 -80 -282 -87 11 72 87
-67 95 -65 -289 -130 -63 -1 27
-86 79 -61 -287 -162 -117 -52 -17
-93 67 -63 -275 -174 -142 -74 -41
-95 49 -63 -262 -183 -156 -89 -54
-95 37 -58 -242 -173 -146 -86 -56
-89 35 -53 -215 -157 -132 -77 -55
-76 31 -49 -189 -142 -123 -73 -55
-69 29 -46 -164 -126 -109 -66 -52
-61 31 -44 -135 -105 -90 -53 -44
-55 32 -40 -112 -87 -76 -43 -38
-50 29 -32 -91 -71 -65 -34 -32
-45 28 -28 -71 -54 -52 -28 -28
-38 21 -22 -50 -43 -44 -23 -28
-34 12 -17 -34 -33 -38 -21 -26
-31 6 -15 -29 -26 -35 -18 -27
-31 9 -7 -18 -17 -27 -12 -23
-30 10 -3 -15 -10 -22 -8 -21
-26 9 -7 -11 -11 -23 -9 -23
-20 11 -4 -5 -7 -19 -8 -22
-19 10 -5 -3 -5 -18 -10 -23
-21 7 -4 6 -7 -25 -17 -26
-27 6 3 10 -4 -25 -17 -24
-31 5 2 17 -1 -23 -17 -24
-28 7 -2 14 0 -24 -19 -26
-26 6 -1 9 0 -21 -17 -26
-28 5 4 5 1 -20 -14 -25
-28 4 0 2 2 -19 -13 -23
-29 3 -5 4 0 -17 -12 -21
-28 3 -3 10 1 -14 -9 -18
-27 5 6 15 4 -12 -7 -17
-23 4 3 17 4 -15 -11 -19
-22 3 0 17 4 -16 -13 -22
-23 4 2 21 7 -13 -12 -23
-18 3 -2 14 5 -17 -14 -28
-18 4 -2 16 6 -14 -14 -25
-17 5 4 19 7 -12 -12 -24
-19 5 1 19 6 -13 -12 -24
-27 2 7 15 7 -12 -10 -22
-22 0 6 16 7 -13 -11 -22
-24 3 5 25 8 -12 -9 -19
-24 5 4 29 10 -11 -11 -19
-27 2 1 26 8 -12 -11 -20
-29 1 6 29 10 -10 -9 -18
-26 1 3 23 8 -13 -10 -19
-19 1 -1 18 8 -14 -12 -19
-17 4 2 19 11 -10 -9 -18
-18 2 2 23 13 -11 -9 -18
-22 3 5 30 15 -9 -7 -15
-25 1 5 28 12 -10 -7 -15
-24 1 3 29 9 -10 -7 -15
-20 5 4 32 15 -7 -6 -13
-18 6 4 28 16 -7 -6 -13
-18 8 9 27 17 -5 -5 -14
-18 8 4 27 17 -5 -5 -15
-16 7 -2 31 14 -7 -8 -18
-12 8 -4 33 11 -8 -10 -21
-11 6 -2 30 11 -9 -11 -21
-12 6 1 31 14 -7 -8 -16
-15 9 4 33 17 -3 -4 -11
-13 8 0 30 18 -3 -4 -12
-15 5 1 29 16 -3 -5 -11
-15 1 4 33 14 -5 -5 -13
-19 -2 -1 38 14 -5 -6 -15
-15 3 0 37 15 -4 -5 -14
-12 6 2 34 19 1 -1 -14
-8 8 1 36 20 4 0 -16
-9 8 5 38 20 2 -2 -15
-9 7 -2 32 17 -2 -7 -15
-12 7 -1 37 18 1 -5 -14
-10 9 1 45 23 2 -2 -14
-8 6 2 44 20 -2 -6 -17
-7 7 1 50 23 -1 -6 -17
-5 10 4 51 25 1 -4 -15
-5 9 3 45 24 1 -4 -15
-7 10 0 48 25 4 -1 -11
-3 10 0 47 26 7 5 -8
-4 11 6 48 27 8 6 -6
-8 11 2 55 33 15 12 0
-8 11 4 60 36 19 16 2
-8 11 3 60 36 19 18 2
-6 9 -2 56 34 18 17 2
0 12 -3 58 34 18 15 1
3 14 0 64 35 17 15 0
6 13 0 64 37 17 15 -1
6 12 8 69 44 21 17 0
8 13 10 81 50 25 19 0
6 15 4 77 52 27 20 2
7 16 9 75 52 28 23 5
9 16 5 76 51 29 24 6
11 18 6 75 50 30 27 9
8 14 5 83 53 32 28 11
7 11 4 92 52 34 27 11
13 14 4 89 55 35 27 10
20 18 0 92 58 36 29 12
21 17 2 88 56 36 28 12
20 20 1 92 60 41 33 16
9 23 3 99 67 48 42 22
10 22 5 101 71 50 44 23
19 26 6 107 69 50 41 20
23 26 5 103 69 49 40 21
23 25 6 105 70 49 42 26
20 21 5 110 69 51 43 24
20 20 4 106 68 53 44 24
23 22 2 112 71 56 46 27
30 25 -1 112 74 57 47 26
36 28 2 113 76 60 50 27
35 28 3 118 80 63 53 30
35 28 3 117 82 66 53 32
36 27 10 118 81 68 54 34
37 26 10 125 79 66 55 34
37 26 4 126 77 67 57 37
39 28 3 128 81 70 59 38
40 30 5 131 85 74 62 41
39 31 7 132 85 78 65 45
38 30 6 130 83 75 64 42
36 30 5 124 80 75 65 43
38 32 7 123 78 73 63 45
38 30 -2 126 79 74 64 46
43 32 -2 126 77 75 66 46
48 34 -1 126 76 74 66 48
48 37 -1 128 73 73 66 49
46 38 2 125 77 77 68 50
41 38 6 128 82 80 69 51
44 36 5 127 81 76 65 50
42 36 5 126 77 73 64 49
37 33 0 114 72 71 64 49
29 30 -4 108 70 70 65 53
32 30 -8 107 66 68 65 54
42 34 -9 102 62 68 65 52
40 33 -4 103 63 67 64 50
38 30 -2 105 62 63 60 48
41 29 -1 97 58 60 56 44
39 31 1 91 58 61 59 44
36 32 2 85 54 58 58 43
33 32 -2 79 48 56 57 44
30 31 -8 74 47 55 55 43
26 25 -13 66 43 49 51 39
29 24 -9 64 41 47 48 37
30 23 -13 60 38 43 43 31
28 22 -12 59 32 35 34 24
29 22 -10 53 27 27 28 19
23 22 -9 42 23 25 27 19
13 24 -5 47 26 28 30 21
5 23 0 52 28 28 30 23
6 19 -2 41 24 26 26 19
5 17 1 48 25 25 27 18
6 17 -4 41 24 23 26 18
2 12 -5 31 21 21 25 17
1 10 -4 30 15 19 23 14
4 11 -7 22 11 13 19 10
0 9 -7 16 7 8 15 7
-2 9 -6 15 4 6 13 5
-5 11 -11 18 2 3 9 2
-5 14 -12 17 -1 -1 6 -1
-8 14 -11 12 -2 -2 3 -4
-12 12 -12 7 -4 -5 0 -4
-11 12 -12 10 -3 -7 0 -3
-8 10 -9 7 -2 -7 -1 -3
-9 6 -11 6 -8 -9 -3 -7
-11 3 -6 7 -10 -9 -2 -7
-12 1 -6 3 -14 -10 -3 -9
-9 0 -8 1 -14 -11 -4 -10
-9 1 -14 -2 -15 -12 -6 -10
-13 1 -14 1 -18 -15 -7 -10
-19 2 -10 -4 -18 -15 -7 -10
-23 3 -5 -4 -15 -13 -3 -9
-17 5 -1 -4 -15 -12 -3 -6
-13 6 3 -2 -14 -12 -3 -6
-11 5 -5 1 -15 -11 -2 -7
-12 4 -3 3 -16 -12 -3 -9
-12 1 -1 -5 -20 -18 -10 -15
-16 -2 -4 -8 -23 -19 -11 -12
-20 -1 -6 1 -23 -15 -6 -6
-25 -1 -6 -1 -20 -12 -2 -4
-22 0 -7 -8 -21 -12 -3 -7
-19 -1 -9 -7 -23 -13 -6 -9
-13 -1 -11 -5 -24 -16 -8 -10
-13 1 -11 -3 -25 -17 -9 -9
-19 -1 -9 0 -24 -17 -9 -10
-25 -1 -4 2 -23 -17 -11 -10
-25 3 -5 -5 -23 -17 -11 -9
-21 3 -9 -7 -23 -20 -12 -13
-16 0 -15 -4 -28 -23 -16 -18
-13 -1 -12 5 -28 -25 -17 -19
-17 1 -8 3 -28 -22 -15 -18
-15 5 -10 -7 -24 -18 -11 -15
-13 6 -11 -13 -27 -19 -13 -16
-14 6 -13 -14 -31 -21 -14 -18
-7 9 -10 -7 -30 -22 -15 -19
-9 5 -10 -5 -30 -23 -17 -19
-18 2 -8 -5 -28 -20 -15 -14
-23 2 -2 -3 -25 -15 -10 -9
-24 2 -5 -5 -23 -13 -9 -9
-20 2 -5 -7 -24 -14 -11 -11
-16 0 -6 -8 -27 -15 -9 -11
-14 -2 -11 -7 -29 -15 -8 -11
-8 1 -8 -5 -28 -13 -6 -8
-12 2 -7 -5 -27 -11 -6 -8
-19 1 -5 1 -24 -8 -3 -6
-25 -2 -4 1 -24 -7 -4 -7
-25 -1 -6 -1 -25 -9 -6 -7
-21 5 -3 5 -23 -9 -5 -7
-16 7 3 2 -20 -8 -5 -5
-10 8 -1 -1 -26 -12 -8 -7
-12 8 -8 -3 -28 -11 -7 -7
-14 5 -6 -7 -26 -9 -5 -7
-11 1 -4 -7 -32 -9 -7 -8
-14 1 0 -1 -29 -6 -5 -5
-15 1 -7 1 -27 -5 -2 -2
-15 4 -5 6 -25 -3 -1 -2
-17 4 -6 3 -27 -5 -4 -6
-13 5 -8 0 -29 -6 -5 -10
-13 6 -8 -3 -32 -8 -7 -13
-13 8 -5 -3 -32 -10 -10 -16
-14 9 -9 1 -30 -10 -10 -15
-11 10 -10 0 -28 -9 -10 -14
-14 8 -8 -3 -23 -5 -6 -10
-14 10 -9 -6 -24 -4 -3 -8
-13 10 -10 -1 -27 -2 0 -5
-15 7 -9 2 -29 -1 0 -4
-15 5 -9 6 -32 -4 -2 -4
-10 2 -12 1 -32 -7 -4 -5
-5 3 -11 3 -29 -6 -4 -5
-2 5 -6 6 -27 -5 -2 -4
-4 1 -4 2 -29 -5 -2 -4
-2 1 -7 -4 -30 -5 -1 -6
-2 5 -3 -2 -27 0 3 -3
-11 8 -5 1 -26 3 7 0
-11 5 -12 -1 -29 -1 2 -5
-10 6 -12 1 -31 -4 -3 -9
-13 7 -10 5 -28 -3 -2 -8
-16 5 -4 4 -25 -2 0 -7
-12 5 -7 0 -27 -4 -2 -9
-7 4 -7 -3 -28 -8 -5 -10
-3 4 -12 -5 -31 -9 -5 -10
3 7 -13 -9 -33 -8 -2 -7
-6 9 -9 -5 -27 -2 2 -3
-15 5 -2 1 -26 0 3 -3
-12 3 -4 -5 -25 -5 -1 -6
-11 5 -7 1 -26 -6 -2 -7
-8 7 -12 1 -30 -7 -3 -9
-5 5 -13 -4 -30 -8 -4 -11
-8 2 -11 -6 -31 -10 -7 -13
-4 2 -8 -10 -34 -14 -10 -16
-6 0 -11 -10 -34 -13 -9 -14
-13 -1 -8 -10 -32 -11 -6 -13
-12 5 -6 -10 -31 -8 -4 -10
-11 7 -2 -7 -29 -4 -2 -10
-14 1 0 -6 -30 -7 -3 -11
-13 -1 -4 -5 -34 -9 -5 -11
-14 -3 -6 -11 -36 -11 -5 -9
-12 -2 -13 -16 -39 -11 -6 -10
-8 0 -11 -17 -39 -11 -4 -10
-7 -3 -18 -12 -41 -12 -6 -12
-8 -1 -15 -8 -40 -11 -4 -10
-2 -1 -13 -12 -39 -12 -6 -12
2 2 -17 -16 -40 -13 -7 -14
4 7 -15 -4 -36 -10 -5 -12
-3 5 -13 -6 -35 -10 -3 -10
-8 3 -11 -5 -34 -10 -4 -11
-11 3 -10 -2 -35 -11 -7 -12
-10 3 -10 -9 -38 -15 -9 -12
-11 4 -1 -12 -35 -13 -6 -9
-14 3 -7 -6 -37 -14 -8 -9
-17 -2 -13 -13 -41 -19 -12 -11
-12 -1 -12 -22 -42 -18 -10 -11
-8 0 -10 -20 -42 -17 -9 -12
-8 2 -11 -17 -45 -20 -12 -14
-7 1 -9 -17 -44 -17 -9 -13
-8 -1 -6 -13 -41 -13 -8 -13
-6 -2 -10 -13 -40 -13 -9 -15
-7 -3 -10 -8 -38 -14 -8 -16
-7 -2 -6 -6 -37 -14 -8 -15
-6 -2 -7 -12 -40 -15 -10 -16
-12 -4 -10 -17 -42 -16 -10 -16
-16 -1 -8 -18 -37 -14 -8 -14
-14 0 -10 -18 -37 -14 -9 -14
-12 2 -13 -16 -38 -15 -10 -15
-9 3 -8 -15 -36 -17 -9 -14
-6 3 -15 -16 -40 -17 -8 -12
-8 1 -15 -16 -41 -17 -7 -11
-12 -1 -11 -15 -40 -17 -6 -12
-14 -2 -8 -14 -40 -19 -7 -13
-12 1 -10 -13 -42 -19 -9 -15
-12 3 -8 -18 -42 -19 -7 -15
-14 2 -6 -20 -41 -18 -6 -18
-9 1 -7 -24 -40 -19 -8 -20
-12 -1 -13 -21 -42 -19 -9 -16
-13 -1 -14 -17 -43 -18 -6 -13
-11 -1 -14 -13 -42 -16 -4 -13
-11 -3 -14 -11 -41 -17 -6 -15
-9 -3 -6 -9 -38 -17 -7 -17
-7 -2 -3 -13 -37 -18 -6 -19
-11 -3 0 -16 -38 -19 -8 -21
-11 -5 -8 -19 -42 -20 -9 -22
-15 -6 -11 -21 -43 -20 -8 -23
-14 -4 -6 -19 -44 -21 -9 -22
-11 -4 -13 -23 -44 -21 -8 -21
-10 -4 -18 -24 -43 -24 -10 -20
-12 -3 -14 -20 -42 -21 -5 -15
-14 0 -11 -19 -39 -17 -2 -13
-11 0 -15 -14 -38 -18 -2 -15
-11 0 -14 -14 -39 -19 -1 -14
-14 0 -9 -18 -41 -18 -2 -13
-11 1 -15 -20 -42 -18 -1 -12
-11 -1 -10 -21 -42 -18 -1 -11
-13 -5 -7 -23 -44 -21 -5 -13
-10 -3 -12 -21 -46 -23 -6 -15
-11 -4 -15 -17 -46 -24 -6 -16
-13 -3 -11 -17 -46 -23 -7 -15
-9 -2 -10 -17 -44 -23 -8 -16
-6 -3 -15 -16 -45 -25 -9 -19
-7 -2 -14 -11 -43 -23 -9 -19
-9 0 -12 -15 -40 -22 -8 -20
-10 -3 -13 -23 -40 -22 -8 -19
-7 -3 -10 -22 -37 -19 -4 -18
-8 -8 -8 -24 -41 -20 -4 -16
-6 -8 -9 -27 -45 -21 -6 -16
-8 -6 -9 -20 -39 -18 -3 -12
-15 -4 -9 -14 -33 -13 -1 -11
-17 -4 -12 -15 -40 -17 -4 -13
-14 -2 -12 -19 -39 -19 -4 -15
-14 -4 -13 -19 -41 -21 -7 -15
-16 -7 -15 -17 -42 -20 -8 -16
-12 -4 -8 -13 -37 -17 -4 -15
-6 -2 -4 -13 -37 -15 -2 -15
-6 -3 -6 -12 -37 -17 -3 -16
-7 -7 -8 -18 -39 -19 -5 -18
-9 -4 -10 -17 -40 -20 -8 -19
-11 1 -5 -19 -40 -19 -9 -21
-14 0 -8 -24 -43 -22 -14 -23
-16 -1 -9 -18 -36 -21 -12 -22
-17 -5 -5 -17 -32 -19 -11 -21
-12 -4 -9 -13 -31 -18 -12 -20
-6 -2 -14 -13 -36 -19 -9 -16
-4 -5 -12 -21 -38 -18 -6 -14
-11 -8 -11 -23 -37 -16 -4 -10
-17 -10 -9 -17 -36 -13 -2 -8
-15 -12 -10 -14 -40 -17 -7 -11
-15 -10 -8 -16 -42 -19 -9 -14
-19 -7 -10 -21 -39 -21 -12 -16
-20 -5 -5 -23 -38 -20 -10 -14
-14 -1 -8 -26 -41 -22 -11 -17
-15 -3 -13 -26 -37 -18 -10 -16
-15 -4 -13 -28 -38 -18 -10 -16
-13 -4 -8 -18 -34 -15 -8 -16
-11 -8 -12 -15 -36 -17 -10 -18
-7 -8 -15 -24 -38 -17 -10 -18
-10 -6 -12 -26 -39 -18 -11 -18
-11 -5 -10 -26 -40 -21 -17 -21
-7 -4 -13 -23 -43 -24 -19 -22
-5 -4 -14 -18 -39 -23 -17 -21
-5 -1 -12 -11 -34 -20 -14 -20
-13 -3 -10 -6 -31 -17 -11 -19
-19 -11 -11 -19 -35 -18 -12 -18
-18 -14 -13 -20 -41 -20 -12 -19
-14 -12 -13 -27 -44 -22 -16 -22
-9 -6 -8 -22 -39 -20 -15 -21
-10 -4 -8 -21 -35 -18 -14 -19
-5 -2 -10 -17 -35 -17 -13 -19
-3 -4 -8 -15 -33 -16 -13 -19
-9 -7 -3 -16 -32 -16 -11 -19
-21 -10 -3 -14 -32 -17 -10 -17
-21 -9 -3 -18 -34 -17 -10 -17
-17 -11 -7 -22 -38 -20 -13 -20
-12 -9 -12 -20 -39 -20 -13 -19
-11 -7 -13 -16 -37 -21 -15 -18
-8 -3 -11 -19 -39 -21 -18 -20
-4 -2 -11 -21 -40 -22 -20 -22
-5 -2 -11 -23 -42 -24 -23 -25
-11 -5 -11 -29 -42 -25 -25 -25
-9 -5 -14 -29 -37 -22 -20 -21
-9 -5 -7 -22 -33 -19 -16 -16
-9 -3 -1 -18 -30 -16 -14 -14
-12 -2 -10 -22 -28 -13 -13 -13
-15 2 -9 -18 -26 -11 -9 -11
-18 2 -9 -21 -26 -11 -10 -13
-19 -6 -9 -21 -30 -14 -16 -17
-16 -11 -14 -26 -37 -19 -18 -17
-11 -11 -10 -21 -37 -18 -16 -16
-12 -10 -11 -14 -35 -18 -17 -15
-9 -7 -8 -15 -33 -19 -19 -17
-7 -4 -6 -17 -30 -19 -20 -20
-6 -4 -5 -17 -31 -20 -24 -26
-9 -5 -5 -18 -33 -23 -26 -28
-7 -5 -10 -23 -36 -24 -25 -27
-8 0 -9 -28 -34 -22 -22 -25
-7 3 -2 -24 -31 -19 -20 -23
-12 -2 -4 -18 -29 -16 -18 -18
-13 -1 -5 -12 -25 -13 -16 -15
-11 1 -6 -7 -25 -13 -15 -15
-8 -2 -5 -16 -26 -15 -18 -17
-5 0 0 -18 -26 -14 -17 -14
-7 0 -4 -12 -24 -12 -15 -12
-5 1 -3 -13 -21 -9 -14 -12
-2 8 2 -15 -17 -8 -13 -14
-1 10 1 -9 -19 -11 -16 -15
3 12 6 -9 -18 -10 -16 -15
-2 11 5 -2 -16 -9 -14 -13
-5 11 5 -5 -16 -9 -15 -14
-2 10 4 -7 -15 -9 -13 -15
-5 0 2 -12 -19 -11 -17 -18
-1 -3 0 -15 -22 -14 -19 -18
-9 -1 0 -11 -18 -8 -13 -12
-7 9 5 -9 -14 -1 -6 -4
-3 14 2 -4 -8 4 -1 0
-1 14 -4 -9 -6 4 -2 -3
1 14 -5 -4 -5 5 -2 -3
9 19 -7 1 -6 7 -1 -4
15 21 -9 -1 -8 5 -4 -8
14 21 -11 -4 -11 -1 -9 -12
15 20 -14 -11 -14 -2 -12 -12
12 18 -14 -17 -15 -6 -16 -12
7 15 -15 -19 -16 -8 -17 -12
5 10 -14 -19 -14 -5 -14 -11
-1 7 -8 -19 -13 -2 -12 -8
-2 3 -7 -13 -11 -2 -11 -8
0 4 -14 -12 -15 -2 -9 -5
3 8 -16 -19 -14 -3 -9 -4
7 12 -16 -16 -17 -6 -11 -7
1 8 -11 -14 -13 -6 -12 -8
0 8 -9 -14 -14 -8 -15 -12
4 9 -15 -19 -19 -12 -18 -18
2 5 -16 -30 -22 -15 -21 -19
1 0 -15 -33 -28 -15 -21 -16
1 -1 -13 -28 -29 -13 -18 -14
-1 -3 -18 -28 -30 -13 -17 -14
0 -2 -13 -32 -32 -14 -19 -14
3 -3 -18 -34 -34 -19 -24 -18
4 0 -16 -31 -32 -20 -26 -18
3 -3 -14 -27 -29 -19 -26 -19
1 -6 -16 -31 -33 -24 -28 -22
2 -3 -16 -31 -34 -23 -29 -25
0 -2 -14 -30 -33 -25 -32 -27
-9 -4 -12 -33 -30 -23 -30 -24
-11 -6 -5 -31 -30 -24 -32 -26
-16 -8 -4 -26 -27 -26 -33 -26
-18 -6 -8 -23 -25 -26 -32 -26
-17 -6 -8 -31 -29 -28 -33 -28
-16 -8 -12 -37 -34 -30 -36 -29
-14 -10 -12 -38 -35 -28 -34 -29
-13 -10 -10 -38 -37 -27 -33 -28
-14 -9 -12 -38 -36 -25 -29 -25
-12 -8 -12 -34 -35 -25 -29 -24
-10 -11 -17 -35 -36 -26 -31 -23
-10 -11 -16 -35 -33 -25 -30 -23
-9 -10 -15 -32 -34 -28 -31 -25
-11 -13 -12 -33 -34 -28 -32 -25
-11 -14 -12 -32 -34 -25 -30 -25
-11 -11 -12 -34 -34 -25 -30 -26
-13 -13 -10 -35 -34 -25 -31 -26
-11 -10 -11 -34 -31 -23 -27 -25
-12 -11 -9 -34 -32 -23 -28 -27
-9 -10 -9 -32 -28 -25 -30 -29
-14 -15 -13 -36 -29 -25 -31 -29
-17 -13 -12 -38 -28 -26 -32 -28
-13 -10 -7 -30 -29 -25 -31 -27
-10 -10 -7 -30 -32 -26 -31 -27
-9 -11 -13 -35 -32 -27 -32 -30
-10 -11 -13 -31 -29 -26 -32 -32
-12 -14 -14 -33 -30 -27 -34 -32
-8 -11 -10 -25 -27 -27 -34 -31
-11 -14 -9 -25 -27 -27 -36 -34
-8 -12 -3 -22 -22 -26 -36 -35
-9 -14 4 -10 -14 -22 -36 -35
-12 -17 5 0 -10 -22 -37 -39
-13 -23 13 7 -1 -18 -37 -40
-12 -28 13 18 8 -11 -35 -39
-6 -30 14 24 15 -1 -29 -36
7 -25 14 38 34 18 -15 -28
22 -20 19 62 62 47 9 -10
33 -12 18 92 93 84 44 13
44 -3 17 121 130 125 83 42
68 12 13 145 168 175 130 80
98 34 -2 156 197 229 190 133
123 66 -22 121 203 273 249 189
143 92 -53 73 186 298 293 235
158 111 -88 11 155 311 328 273
157 135 -112 -51 127 324 364 309
149 140 -131 -104 100 326 376 327
133 130 -145 -158 56 296 352 313
104 122 -149 -216 -2 243 309 285
69 122 -139 -245 -38 193 253 244
37 128 -114 -248 -43 165 217 213
9 129 -95 -249 -48 136 178 179
-18 118 -76 -260 -73 83 116 124
-41 100 -62 -268 -112 9 39 59
-60 81 -49 -267 -150 -66 -38 -3
-72 70 -42 -261 -170 -111 -83 -42
-83 53 -42 -254 -187 -139 -105 -60
-79 32 -49 -252 -200 -161 -121 -71
-73 19 -53 -240 -194 -154 -118 -66
-71 13 -50 -218 -179 -139 -106 -58
-61 12 -47 -187 -159 -122 -96 -52
-53 10 -46 -166 -142 -109 -88 -53
-45 14 -47 -145 -127 -95 -80 -51
-40 20 -43 -124 -110 -81 -70 -46
-35 21 -40 -108 -93 -69 -63 -40
-27 19 -33 -92 -79 -57 -55 -34
-21 13 -28 -71 -65 -47 -48 -31
-15 4 -22 -58 -53 -40 -41 -26
-11 -2 -19 -43 -40 -29 -33 -23
-15 -3 -9 -26 -30 -21 -24 -19
-17 -4 -7 -23 -24 -17 -23 -17
-17 -9 -7 -21 -24 -15 -23 -18
-17 -9 -3 -19 -23 -15 -23 -20
-14 -5 -5 -18 -21 -15 -22 -18
-15 -7 -4 -15 -21 -16 -23 -17
-14 -6 -2 -6 -20 -16 -25 -19
-14 -5 0 2 -15 -13 -24 -17
-14 -7 0 -4 -15 -16 -26 -17
-11 -8 -2 -4 -16 -16 -25 -18
-7 -6 2 -4 -15 -14 -23 -18
-4 -5 -4 -10 -15 -13 -23 -19
-3 -10 -5 -8 -14 -13 -23 -19
-5 -10 2 2 -14 -12 -22 -19
-7 -8 2 6 -13 -11 -21 -14
-6 -9 -4 -5 -12 -11 -20 -14
-4 -12 -7 -5 -15 -11 -20 -17
-5 -9 -5 -4 -16 -11 -22 -18
-5 -8 0 0 -13 -12 -23 -18
-10 -7 3 1 -8 -8 -20 -17
-14 -3 6 3 -2 -2 -14 -11
-13 -5 -3 0 -5 -4 -15 -11
-18 -13 -1 -5 -7 -3 -12 -10
-14 -13 0 -2 -6 0 -9 -9
-12 -11 1 1 -5 -1 -11 -8
-8 -10 -3 5 -6 -3 -14 -11
-4 -9 1 7 -5 -4 -14 -13
-7 -8 1 7 -4 -4 -14 -15
-11 -12 -2 6 -3 -4 -14 -15
-7 -14 -4 1 -5 -4 -14 -13
-1 -10 -1 6 -3 0 -9 -9
0 -8 -1 7 0 1 -7 -6
0 -10 2 4 -2 0 -7 -6
-3 -7 -2 5 -1 3 -4 -5
-4 -7 -1 13 0 2 -4 -4
-4 -6 3 15 1 2 -4 -2
-10 -8 3 11 1 3 -4 -3
-17 -9 10 21 5 2 -5 -5
-13 -9 14 23 6 2 -6 -6
-13 -10 9 17 8 6 -2 -4
-13 -11 6 17 6 6 -1 -5
-10 -10 6 16 4 4 -2 -4
-7 -9 1 12 1 5 -1 -3
-4 -7 -2 17 -1 6 -1 -5
0 -2 -1 16 0 5 -2 -6
-2 -2 5 15 1 5 -2 -8
-6 -5 2 19 4 6 -1 -9
-5 -4 -1 25 9 8 0 -5
-2 -4 -3 25 6 6 -1 1
-1 -4 -1 23 8 8 3 3
-3 -5 -4 20 7 11 6 3
-2 -8 -5 10 4 9 4 1
0 -10 -3 11 4 9 4 3
-3 -10 -5 15 6 12 5 3
0 -4 -5 21 8 11 6 3
-3 1 3 29 13 15 9 8
-8 -2 9 31 17 19 11 12
-6 -2 3 33 18 19 11 10
-2 -2 1 30 15 15 6 6
1 -1 3 28 19 18 8 6
4 3 2 29 25 23 13 9
4 3 -3 30 22 23 12 8
-2 -4 -6 32 21 23 12 8
3 -2 0 34 24 28 17 14
11 3 2 35 25 29 20 19
11 2 3 46 29 31 22 20
8 0 4 53 31 33 23 20
7 2 4 47 34 34 24 22
9 2 2 46 39 36 27 24
14 1 4 45 40 37 26 24
15 1 3 48 41 39 28 25
12 3 4 53 44 43 29 27
8 3 7 54 47 47 33 28
10 5 6 59 51 49 36 29
11 7 7 61 52 50 36 28
4 6 3 62 53 52 37 30
3 7 7 65 54 55 39 32
9 10 5 69 59 58 41 36
11 8 4 77 63 60 43 40
12 8 5 84 70 67 47 43
15 7 1 85 69 66 47 40
21 9 -1 80 68 66 46 40
21 11 3 79 68 69 49 44
21 12 3 85 70 73 51 47
25 16 1 88 76 76 57 52
25 15 3 93 78 76 60 55
17 13 9 96 80 81 64 58
16 16 12 106 85 85 68 60
19 13 12 105 83 84 67 60
26 15 10 102 85 91 71 66
27 18 7 99 88 96 77 71
29 19 9 104 90 99 80 75
31 22 6 105 90 100 82 78
27 21 8 108 93 105 88 81
26 21 5 110 92 103 85 78
26 18 7 114 91 100 82 74
27 15 12 121 91 100 79 71
38 20 9 111 91 98 77 71
50 26 7 107 92 98 79 73
49 27 8 108 93 102 81 74
42 28 9 113 94 106 86 76
34 26 10 114 96 106 88 79
30 24 11 112 97 108 90 84
36 25 14 110 96 108 88 85
37 25 7 115 94 106 87 85
30 24 3 116 94 105 90 87
29 24 2 112 92 107 90 89
33 27 2 105 91 106 90 88
33 26 3 101 89 104 91 88
34 25 0 102 87 106 92 88
39 29 3 99 86 105 92 89
40 30 -2 98 84 101 90 87
39 27 -3 89 78 96 86 84
39 29 4 91 78 97 86 84
35 31 -4 91 79 96 85 83
33 31 -3 88 76 94 84 82
36 31 -3 87 72 90 79 80
27 27 5 76 72 86 76 79
24 25 5 72 69 82 74 79
27 23 2 66 65 77 70 75
26 22 0 63 59 72 66 70
22 21 -3 58 56 69 63 68
19 18 -6 51 48 64 59 65
17 19 -2 50 49 64 61 69
13 22 0 48 44 59 58 66
11 16 -5 30 38 53 52 61
7 10 -8 29 36 48 47 55
1 12 -2 33 40 50 48 57
2 11 -2 32 38 46 44 55
4 11 -1 27 35 43 39 50
5 11 1 23 31 37 34 45
7 9 3 11 24 28 29 41
6 7 1 4 17 25 27 39
-3 5 0 13 20 25 27 40
-2 5 -1 13 14 20 22 37
-2 3 0 15 14 18 19 35
-3 5 4 10 12 16 18 35
-8 4 6 9 16 14 17 34
-14 0 4 4 15 11 15 32
-12 -2 5 -3 7 7 10 28
-11 -1 -1 1 6 6 9 20
-11 -2 -4 -2 6 7 10 12
-7 2 -2 -8 2 4 8 4
-13 -2 -2 -8 0 2 6 -2
-14 -5 -1 -3 0 0 7 -6
-17 -5 -3 0 1 -1 6 -7
-24 -7 -3 -5 1 -2 6 -12
-21 -4 -2 -6 2 -1 5 -16
-16 -2 0 -4 4 -4 4 -19
-13 -5 -2 0 1 -5 4 -21
-14 -4 -1 -2 0 -6 3 -23
-20 -7 9 -7 2 -5 3 -24
-19 -6 1 -20 -3 -8 1 -26
-15 -6 6 -14 -2 -7 1 -26
-17 -6 3 -17 -2 -9 0 -28
-18 -6 -1 -14 0 -9 0 -28
-19 -7 0 -14 -3 -11 -1 -28
-24 -8 2 -15 -3 -11 -1 -30
-22 -8 2 -13 -2 -11 -1 -32
-21 -10 1 -15 -4 -12 -3 -36
-20 -7 -2 -15 -3 -12 -2 -35
-19 -5 1 -13 -1 -10 -2 -34
-14 -4 -2 -19 -6 -13 -3 -35
-11 -3 1 -21 -6 -12 -2 -35
-13 -6 -4 -21 -7 -13 -4 -36
-18 -9 -2 -18 -6 -12 -4 -35
-19 -8 -1 -11 -2 -9 -1 -32
-23 -8 0 -8 0 -7 -1 -32
-25 -6 4 -12 1 -8 1 -33
-21 -6 3 -11 2 -8 0 -36
-20 -5 2 -12 0 -10 -2 -37
-20 -4 3 -9 0 -7 1 -32
-14 -3 -3 -14 -3 -8 0 -34
-13 -5 -2 -19 -6 -9 -1 -35
-13 -5 -2 -16 -7 -14 -4 -39
-16 -6 0 -15 -6 -13 -4 -37
-20 -3 1 -15 -3 -11 -1 -34
-22 -1 6 -6 6 -7 1 -34
-19 -2 4 -7 5 -9 -1 -35
-17 -5 0 -8 2 -12 -3 -36
-22 -6 -1 -7 3 -10 -1 -35
-23 -7 1 -13 1 -11 -2 -35
-19 -6 -6 -17 -1 -12 -2 -36
-21 -4 1 -14 4 -7 1 -33
-20 -2 1 -17 6 -6 2 -32
-18 -2 4 -14 8 -3 4 -31
-17 -2 1 -18 5 -7 0 -31
-19 -4 4 -10 6 -7 2 -30
-25 -3 8 -2 11 -3 6 -26
-21 -4 4 -9 11 -4 6 -26
-14 -2 3 -18 9 -4 5 -27
-19 -4 1 -17 11 -2 9 -23
-26 -5 0 -17 13 2 12 -18
-25 -5 -2 -17 12 3 13 -20
-24 -4 -3 -14 13 2 11 -22
-21 0 0 -7 15 2 10 -25
-20 2 4 -5 19 4 11 -25
-19 2 5 -4 20 4 9 -26
-11 0 6 -7 19 0 5 -27
-9 -1 4 -9 19 -1 3 -28
-8 1 3 -6 21 2 7 -25
-11 3 4 -9 22 3 11 -23
-17 -1 1 -10 19 4 13 -19
-20 0 1 -11 18 8 17 -15
-21 -1 2 -12 18 10 19 -10
-22 -2 2 -6 17 11 20 -10
-20 -1 2 -1 19 12 20 -12
-20 1 1 -1 21 13 20 -13
-22 -1 1 -1 21 11 18 -15
-24 -1 4 -1 22 12 18 -15
-25 -3 3 -3 19 11 17 -16
-18 -2 0 -6 18 10 16 -17
-13 -1 -5 -9 16 10 15 -18
-11 1 -5 -6 16 10 15 -17
-10 2 -3 -11 14 7 13 -18
-11 2 3 -3 16 8 12 -17
-12 6 8 -2 21 12 16 -14
-14 6 7 5 22 12 17 -17
-18 -1 6 2 19 8 12 -20
-24 -2 7 2 19 10 15 -18
-22 -2 4 -1 18 11 16 -18
-19 0 0 -7 16 10 17 -17
-20 -1 2 -9 17 13 19 -14
-19 -3 0 -7 15 11 18 -13
-14 -1 1 -9 14 8 15 -13
-19 -1 3 -6 15 7 14 -13
-27 -3 10 1 18 9 16 -14
-23 0 10 7 20 10 15 -17
-22 -3 6 3 18 7 11 -23
-20 -5 7 1 15 4 8 -26
-21 -4 9 -2 18 9 12 -21
-21 -4 12 0 17 9 13 -16
-15 -3 6 -8 10 7 13 -15
-16 -1 8 -11 7 9 16 -15
-20 -3 5 -7 6 9 14 -15
-17 -5 2 1 8 8 12 -15
-19 -5 3 -3 8 8 12 -14
-26 -4 3 -3 12 7 14 -12
-27 -5 7 -2 12 6 13 -13
-25 -4 8 -3 11 6 13 -13
-27 -1 3 -8 14 10 16 -11
-30 -2 7 -10 15 10 15 -13
-29 -4 2 -11 12 8 13 -13
-23 -2 0 -15 11 9 12 -14
-23 -3 0 -14 8 6 9 -16
-28 -9 -1 -11 5 3 6 -17
-22 -8 -1 -11 6 3 6 -18
-18 -5 0 -9 7 1 4 -19
-18 -3 -1 -7 7 0 2 -19
-27 -2 5 -3 13 4 8 -13
-29 -2 13 -1 15 6 10 -10
-30 -1 17 1 16 8 11 -10
-30 -3 11 2 16 6 10 -12
-32 -6 9 0 15 4 8 -14
-31 -5 10 -1 13 0 4 -17
-28 -6 7 -6 11 -3 -1 -21
-18 -4 4 -15 8 -6 -3 -22
-24 -7 7 -10 12 -1 0 -20
-27 -13 4 -7 13 0 0 -18
-24 -10 4 -9 12 1 2 -16
-30 -11 5 -8 14 2 4 -15
-37 -12 11 -4 15 2 4 -16
-32 -5 10 -7 14 2 6 -16
-30 -3 9 -10 16 6 8 -15
-29 0 11 -15 12 5 5 -16
-28 -3 14 -14 11 4 3 -18
-28 -5 10 -12 8 1 2 -18
-24 -3 9 -9 8 -1 0 -18
-23 -2 5 -6 9 -4 -1 -16
-29 -6 9 -3 7 -5 -2 -15
-24 -4 7 -6 10 -2 1 -13
-25 -2 5 -11 10 0 3 -11
-30 -3 10 -13 12 3 8 -8
-37 -5 10 -8 13 8 10 -8
-35 -6 8 -8 12 7 9 -9
-31 -4 13 -8 13 7 8 -10
-28 -5 16 -7 14 5 6 -12
-24 -5 12 -1 14 4 2 -13
-27 -8 14 0 13 2 1 -12
-28 -8 12 1 13 1 1 -11
-29 -6 12 -6 14 1 1 -11
-28 -5 10 -13 10 0 -1 -12
-34 -12 5 -19 5 -1 -1 -12
-33 -13 4 -13 3 0 -1 -12
-28 -9 10 -14 4 0 -1 -12
-26 -8 5 -13 3 -2 -1 -13
-26 -10 2 -8 3 -2 -2 -12
-27 -10 6 -8 5 0 -1 -10
-31 -11 7 -5 8 2 1 -8
-34 -13 8 -7 8 1 1 -10
-31 -10 11 -6 9 2 1 -11
-25 -7 12 -8 7 0 -2 -16
-25 -10 11 -8 5 -4 -6 -20
-30 -9 15 -2 7 -2 -6 -19
-40 -7 17 -1 9 -1 -4 -11
-39 -5 13 -8 8 -2 -4 -10
-31 -3 12 -7 6 -3 -3 -10
-30 -4 8 -3 5 -3 -3 -12
-27 -6 6 -13 2 -4 -5 -14
-22 -7 5 -15 0 -6 -7 -17
-20 -7 4 -13 1 -6 -8 -18
-23 -7 10 -10 3 -4 -6 -17
-29 -10 14 -4 4 -2 -4 -14
-30 -8 15 -10 2 -2 -3 -11
-33 -7 12 -15 4 -1 -1 -8
-38 -9 12 -13 4 -2 1 -5
-33 -11 9 -9 1 -4 -1 -7
-39 -11 8 -6 6 0 2 -7
-47 -12 12 -4 9 1 3 -5
-38 -5 16 -7 8 1 4 -3
-34 0 8 -2 11 1 3 -5
-35 -2 9 0 9 -2 -2 -9
-34 -6 14 -10 6 -6 -6 -10
-31 -9 13 -12 5 -5 -6 -11
-26 -10 2 -13 3 -7 -7 -12
-22 -11 5 -17 2 -8 -9 -13
-23 -11 6 -17 0 -9 -8 -12
-21 -8 5 -13 0 -10 -6 -10
-16 -6 9 -8 -1 -8 -5 -9
-18 -8 10 -6 1 -6 -2 -6
-18 -4 13 -4 3 0 4 -2
-21 -4 10 -5 7 2 4 -3
-25 -9 5 -9 3 -1 1 -7
-25 -9 8 -8 0 -2 1 -9
-32 -10 12 -3 2 -2 0 -9
-35 -11 11 -5 3 -2 -3 -12
-34 -12 13 -9 1 -5 -6 -14
-28 -10 9 -14 -4 -9 -11 -17
-29 -8 7 -13 -4 -10 -12 -15
-27 -7 6 -12 -4 -11 -11 -16
-28 -9 6 -10 -2 -9 -8 -14
-28 -8 12 -11 3 -5 -6 -10
-24 -8 9 -15 0 -6 -5 -8
-26 -10 9 -13 2 -2 -1 -6
-24 -8 5 -16 1 -2 0 -5
-22 -8 4 -11 1 -2 0 -4
-21 -8 7 -6 0 -4 -2 -8
-26 -7 12 -9 1 -5 -4 -9
-28 -9 6 -16 -2 -9 -7 -11
-21 -6 3 -14 -4 -11 -8 -13
-24 -8 8 -8 -1 -7 -5 -10
-30 -9 9 -4 5 -1 0 -5
-32 -9 4 -1 7 -4 -1 -4
-32 -9 3 -6 5 -4 -2 -5
-23 -3 3 -9 0 -7 -5 -5
-20 -1 7 -10 -2 -9 -8 -9
-21 0 11 -11 0 -7 -6 -8
-21 -2 6 -5 1 -6 -5 -8
-25 -7 3 -11 -2 -10 -7 -8
-20 -9 7 -10 -4 -11 -8 -9
-17 -12 5 -16 -5 -11 -8 -8
-15 -13 3 -17 -5 -12 -9 -9
-24 -12 10 -13 -3 -11 -6 -6
-32 -9 9 -8 -3 -10 -5 -5
-34 -5 7 -8 -3 -10 -7 -6
-33 -5 11 -8 0 -6 -7 -8
-28 -6 15 -8 0 -8 -9 -9
-21 -3 12 -9 2 -9 -11 -10
-22 -6 7 -10 4 -10 -10 -8
-23 -10 3 -12 3 -10 -8 -6
-19 -7 4 -13 0 -11 -8 -6
-17 -9 1 -21 -6 -16 -13 -9
-21 -13 5 -20 -7 -15 -12 -7
-21 -11 9 -9 -1 -9 -7 -2
-17 -8 5 -12 -3 -14 -8 -2
-17 -6 6 -13 -2 -11 -6 -2
-18 -6 8 -13 1 -8 -2 0
-23 -7 12 -9 0 -11 -4 0
-25 -9 15 -2 2 -9 -3 2
-26 -11 11 -5 3 -7 -2 0
-21 -9 11 -4 5 -6 -3 0
-18 -10 10 -3 5 -10 -8 -3
-18 -12 6 -11 0 -12 -9 -5
-16 -8 9 -9 2 -10 -7 -4
-18 -5 10 -4 4 -8 -6 1
-21 -1 10 0 6 -7 -3 5
-19 1 9 -8 4 -7 -2 5
-17 0 10 -4 5 -11 -4 0
-15 1 16 -2 8 -10 -4 -1
-14 4 12 5 15 -4 -2 1
-14 7 13 7 17 -3 -1 2
-14 11 17 8 21 1 2 6
-13 9 15 2 19 1 4 11
-8 9 15 -5 14 -2 3 11
-8 8 12 -2 13 -2 2 11
-13 5 16 2 14 -1 3 12
-6 5 20 2 14 -3 2 10
-2 4 16 3 16 -8 -2 6
1 0 15 2 14 -9 -4 3
-3 3 18 3 18 -4 0 6
-14 4 24 13 24 4 7 9
-15 5 22 15 27 7 8 9
-10 7 17 10 24 5 7 11
-9 8 17 10 24 5 9 16
-4 14 17 14 27 9 12 20
-2 15 14 12 28 9 14 22
-5 11 15 11 26 7 14 20
-5 13 10 9 22 5 11 14
-1 12 11 -1 17 -1 6 10
5 11 9 -6 15 -1 6 8
4 11 9 -5 18 1 7 7
-5 8 10 -3 20 3 9 9
-6 6 9 0 18 3 11 11
-4 7 7 1 20 5 12 13
-6 6 8 -5 17 1 10 13
-3 3 5 -4 14 -1 9 16
2 3 3 -7 9 -5 5 13
1 6 2 0 10 -7 4 12
-1 4 2 2 11 -10 2 12
-4 4 2 -6 9 -11 3 13
-6 5 5 -7 9 -11 2 11
-8 1 7 -11 7 -11 0 10
-9 -3 4 -12 4 -12 0 8
-2 -3 5 -11 0 -15 -4 0
2 -3 1 -12 -5 -20 -8 -1
1 -2 0 -19 -6 -24 -6 1
-5 -1 7 -8 -5 -22 -1 3
-7 -2 8 -6 -3 -20 2 4
-14 -3 5 -8 -1 -17 3 7
-18 -4 7 -4 1 -14 5 11
-22 -7 8 -11 -1 -15 5 10
-20 -11 5 -14 -4 -18 2 8
-17 -13 1 -15 -7 -22 -2 4
-15 -11 7 -12 -7 -21 -1 2
-18 -13 8 -15 -7 -24 -5 -3
-17 -13 8 -16 -7 -27 -9 -6
-16 -12 10 -8 -8 -29 -11 -4
-14 -12 11 -9 -7 -31 -12 -3
-10 -10 9 -14 -10 -31 -13 -2
-12 -10 7 -14 -10 -30 -11 -3
-10 -12 5 -16 -10 -32 -12 -4
-17 -12 15 -15 -8 -29 -10 0
-23 -14 12 -16 -10 -28 -7 2
-20 -13 8 -14 -12 -31 -10 -2
-14 -10 10 -13 -11 -32 -12 -3
-12 -11 8 -19 -14 -33 -14 -5
-11 -11 7 -21 -19 -36 -17 -5
-15 -10 9 -18 -16 -34 -14 -3
-19 -14 5 -18 -15 -33 -14 -1
-24 -16 7 -16 -12 -31 -10 -1
-23 -15 10 -10 -11 -31 -12 -1
-21 -12 11 -11 -12 -31 -14 2
-20 -15 9 -9 -12 -30 -13 4
-17 -14 12 -10 -11 -30 -10 2
-12 -10 11 -13 -13 -32 -13 1
-9 -9 16 -9 -13 -32 -14 1
-13 -12 15 -9 -14 -35 -16 -3
-9 -10 13 -7 -12 -34 -19 -4
-5 -9 15 -7 -10 -31 -20 -4
-8 -10 20 -4 -9 -31 -21 -6
-10 -11 23 4 -4 -30 -23 -9
-11 -17 27 22 4 -28 -26 -11
-14 -27 28 36 10 -27 -28 -17
-13 -30 33 40 18 -22 -27 -21
-10 -29 42 54 25 -15 -23 -18
-2 -29 52 68 43 4 -10 -8
7 -25 45 97 76 35 13 7
20 -14 41 121 110 71 46 30
37 -2 42 143 139 108 81 57
55 11 45 171 176 157 127 92
84 37 30 175 203 208 182 141
117 65 -7 123 194 244 237 195
137 86 -42 66 179 280 291 244
147 108 -65 19 165 309 337 287
152 128 -90 -34 141 324 370 321
157 139 -117 -89 116 335 394 351
151 132 -135 -145 76 316 386 354
130 132 -140 -201 25 275 356 337
98 134 -129 -247 -17 227 310 305
59 134 -107 -259 -33 195 268 269
29 138 -93 -262 -41 168 232 237
0 124 -80 -263 -64 115 172 187
-24 104 -61 -271 -107 36 92 121
-56 84 -47 -270 -146 -46 10 57
-72 66 -45 -271 -177 -114 -57 7
-80 50 -50 -269 -202 -156 -99 -25
-79 33 -51 -253 -220 -186 -122 -45
-66 22 -50 -230 -211 -182 -121 -51
-58 13 -46 -209 -189 -162 -111 -49
-51 15 -33 -179 -166 -138 -97 -44
-46 17 -27 -153 -141 -117 -83 -36
-42 19 -26 -128 -119 -99 -69 -27
-30 19 -29 -109 -106 -87 -61 -20
-26 18 -24 -86 -89 -75 -51 -13
-29 19 -17 -67 -69 -60 -40 -8
-25 11 -4 -47 -53 -49 -35 -5
-21 -2 3 -29 -42 -44 -32 -5
-18 -5 2 -16 -30 -35 -26 -3
-17 -5 7 -11 -23 -28 -22 0
-12 -8 7 -10 -24 -29 -21 -2
-10 -9 10 -8 -22 -28 -19 -2
-11 -10 13 -3 -23 -29 -21 -3
-8 -9 12 1 -24 -31 -21 -5
-2 -5 14 9 -20 -27 -18 -5
-8 -7 17 6 -18 -30 -22 -8
-13 -10 13 6 -16 -30 -24 -8
-12 -10 15 13 -14 -27 -22 -7
-7 -10 19 12 -13 -26 -22 -7
-9 -10 18 11 -11 -21 -19 -4
-9 -12 13 8 -13 -24 -18 -4
-10 -11 16 15 -12 -22 -17 -4
-12 -9 19 20 -10 -20 -15 -3
-13 -11 16 19 -10 -22 -15 -4
-2 -8 15 16 -11 -25 -17 -5
2 -6 17 21 -9 -27 -19 -7
1 -9 19 26 -7 -30 -22 -9
1 -10 19 24 -5 -30 -22 -10
0 -9 22 26 -2 -25 -17 -6
2 -11 14 15 -6 -24 -18 -6
0 -12 14 6 -10 -25 -16 -6
0 -12 10 11 -13 -24 -15 -8
-6 -15 13 17 -12 -22 -14 -3
-8 -13 10 21 -10 -22 -14 -1
-6 -11 16 25 -7 -21 -13 -1
-6 -5 21 35 -3 -20 -14 -2
-8 -7 24 31 -5 -22 -15 -4
-5 -8 16 32 -2 -21 -15 -6
0 -6 20 32 4 -17 -12 -5
6 -11 16 28 1 -18 -14 -6
4 -13 17 25 -2 -17 -12 -5
-1 -14 12 26 -2 -17 -11 -4
0 -11 13 33 -2 -17 -11 -3
5 -9 14 34 -4 -21 -14 -5
6 -11 18 35 -3 -21 -14 -6
5 -9 18 33 -2 -21 -16 -7
9 -7 18 32 0 -19 -14 -7
6 -10 24 33 3 -15 -10 -4
-4 -12 28 40 7 -11 -5 -1
-6 -14 28 41 6 -11 -5 -2
0 -13 23 36 5 -10 -3 1
2 -9 20 42 8 -8 -1 5
-2 -13 19 37 6 -9 -2 4
2 -13 17 39 0 -12 -6 1
7 -8 19 46 5 -10 -3 3
-1 -9 18 48 8 -9 -2 3
-2 -9 18 46 9 -6 0 4
0 -10 19 56 10 -6 -1 1
0 -10 22 52 13 -5 0 2
3 -9 22 51 14 -6 -2 1
6 -8 21 55 13 -5 -1 2
8 -7 22 58 17 -3 0 5
12 -5 22 58 17 0 2 4
11 -5 21 52 13 -4 0 0
10 -5 25 50 12 -4 1 -1
17 -4 21 47 10 -7 -4 -1
12 -4 15 53 12 -3 -1 5
8 -2 22 58 16 3 4 12
3 -3 20 60 22 8 7 10
6 -2 20 59 25 10 8 10
9 -3 19 60 24 11 8 10
17 0 18 69 24 9 7 10
18 1 18 72 25 11 9 12
11 -5 22 74 27 14 11 11
11 -7 23 79 29 16 13 13
8 -6 29 75 31 17 14 14
5 -4 33 75 35 22 19 18
8 0 30 79 38 25 22 20
9 0 30 81 39 27 23 19
11 -3 29 84 37 25 20 17
18 1 29 88 40 29 23 19
23 4 27 90 43 30 24 18
19 6 28 93 46 34 29 22
16 6 31 94 46 37 31 24
22 7 26 96 44 37 32 25
27 11 25 99 46 39 32 23
30 10 31 104 51 42 35 23
30 6 30 107 56 42 32 21
28 4 29 109 60 45 35 24
34 4 25 107 63 48 37 28
36 5 28 110 63 52 41 31
27 6 34 113 68 57 47 40
16 5 35 114 71 63 55 47
21 7 33 123 72 65 57 48
34 14 32 134 75 66 58 47
43 18 26 130 76 64 55 42
46 21 23 135 79 66 54 41
40 18 26 134 82 70 57 46
38 16 30 143 87 75 62 52
43 15 26 143 86 77 64 54
44 15 28 132 85 79 68 56
47 19 29 140 89 84 73 60
49 17 26 138 87 83 73 59
57 19 19 136 83 80 70 56
61 24 24 149 88 85 74 58
56 21 25 143 86 80 71 55
53 23 24 149 93 82 73 58
50 27 31 147 98 86 77 62
51 26 36 149 96 89 79 62
47 23 31 153 99 92 81 65
51 21 22 138 95 91 81 65
52 24 25 137 92 92 83 68
52 28 24 141 92 93 84 69
50 26 26 143 92 92 82 69
56 27 22 142 92 90 83 67
61 32 22 150 94 91 83 69
51 29 30 150 93 91 84 71
47 27 35 146 92 91 87 74
45 27 30 140 89 93 87 75
51 25 19 133 85 90 84 75
54 26 21 130 87 92 89 80
44 29 23 121 85 93 91 81
36 26 20 116 80 89 90 79
44 24 15 107 72 80 84 75
48 20 11 100 63 75 81 72
55 23 8 99 56 70 76 69
53 23 8 96 53 67 74 65
48 21 10 92 51 65 70 61
50 23 11 89 53 65 69 58
49 21 11 80 47 61 65 54
45 19 16 75 46 60 64 52
45 20 9 70 42 57 60 49
44 20 10 65 38 51 55 50
46 21 14 64 33 46 51 49
35 18 18 63 31 41 49 44
25 15 14 61 29 37 45 39
28 12 15 55 25 29 39 33
26 13 20 48 22 25 35 29
29 15 19 41 22 24 34 28
27 10 16 29 14 19 29 25
23 6 15 30 11 16 27 24
26 7 15 35 6 14 25 22
27 4 12 29 3 10 21 17
30 2 8 20 -5 1 13 10
30 2 12 22 -6 -3 10 6
26 6 14 25 -5 -3 8 5
16 4 14 19 -8 -7 5 3
9 3 18 20 -8 -9 5 3
5 1 18 13 -8 -9 6 2
6 -2 17 12 -12 -9 5 2
8 -4 16 11 -13 -10 6 2
12 -2 12 11 -17 -13 4 1
14 -3 9 5 -20 -17 1 -3
14 -7 8 -3 -24 -20 -1 -3
11 -6 11 3 -22 -18 4 2
5 -4 17 8 -18 -17 4 4
5 -5 15 3 -21 -19 2 2
10 -3 18 4 -22 -20 1 0
7 -1 14 7 -21 -19 1 -2
4 -2 9 -2 -26 -21 -1 -5
14 -4 6 -9 -31 -25 -3 -11
15 -1 5 -6 -27 -20 0 -10
2 -3 15 3 -21 -16 2 -7
3 -7 14 -2 -24 -17 -2 -5
6 -7 9 7 -28 -21 -3 -3
8 -5 4 5 -29 -24 -6 -4
7 -5 8 0 -28 -24 -6 -4
5 -5 8 -5 -29 -24 -6 -6
4 -5 10 0 -28 -22 -4 -7
4 -9 9 -1 -30 -23 -7 -8
5 -9 8 -4 -30 -24 -6 -7
5 -9 6 -5 -30 -24 -7 -9
6 -8 10 -8 -31 -25 -7 -8
5 -8 12 -10 -30 -21 -4 -6
8 -8 14 -4 -27 -23 -3 -7
10 -8 10 1 -30 -26 -7 -9
5 -10 11 -2 -29 -25 -6 -8
5 -9 10 -4 -28 -22 -3 -4
9 -4 11 3 -22 -18 -1 -2
11 -7 10 -1 -27 -22 -4 -4
10 -10 10 -3 -27 -21 -3 -4
7 -7 15 1 -26 -17 0 -3
5 -7 16 -3 -27 -17 -1 -3
2 -10 11 -3 -31 -18 -2 -4
5 -7 17 -2 -30 -18 -1 -6
8 -5 11 1 -30 -19 -4 -8
10 -4 10 2 -31 -21 -7 -11
14 -4 11 0 -28 -21 -8 -11
16 -3 11 -2 -28 -21 -9 -10
16 -5 9 -11 -28 -20 -8 -9
17 -11 8 -15 -34 -24 -8 -8
14 -7 5 -7 -32 -21 -2 -1
10 -4 5 -1 -29 -17 2 3
10 -5 8 -6 -30 -16 2 1
11 -3 9 2 -25 -13 3 -1
13 0 7 -3 -25 -16 0 -6
17 -1 6 -8 -25 -17 -2 -7
13 -1 11 -3 -22 -15 -1 -6
10 -3 9 0 -24 -15 -3 -9
11 -5 9 -3 -25 -13 -2 -6
9 -5 12 -1 -23 -10 1 -5
13 -2 12 -3 -22 -10 2 -5
16 -2 11 -4 -24 -13 0 -7
14 -4 11 -2 -25 -14 -3 -9
16 -2 16 -1 -23 -15 -3 -7
17 -2 12 -4 -22 -16 -3 -5
16 -2 11 -5 -21 -16 -3 -6
19 3 13 -4 -17 -12 2 -5
11 5 16 9 -11 -6 8 -1
6 -2 12 7 -14 -6 6 -2
10 -3 8 1 -17 -8 6 -3
12 -3 14 2 -17 -6 8 -1
7 -2 16 0 -17 -6 9 2
10 -2 13 2 -18 -6 9 1
14 -1 11 4 -17 -7 9 0
10 -1 10 5 -17 -10 7 -1
9 -3 9 0 -18 -11 4 -5
6 -4 16 2 -17 -10 6 -3
8 -1 15 2 -15 -8 6 -3
7 -3 13 9 -13 -4 9 -2
8 -5 15 7 -15 -6 8 -2
10 -4 13 9 -15 -7 8 -2
10 -5 17 10 -16 -9 6 -2
17 -1 13 10 -17 -10 8 1
20 3 16 7 -15 -9 9 1
18 0 11 -2 -18 -12 6 -1
17 -2 10 -3 -20 -14 4 -1
12 -4 9 -4 -20 -13 5 0
14 -2 10 -3 -20 -13 6 -2
16 -5 11 -5 -23 -13 4 -6
19 -3 10 -3 -22 -11 6 -6
19 0 9 3 -19 -7 10 -3
18 0 10 0 -21 -10 6 -5
19 -3 12 1 -24 -12 4 -2
18 -4 10 -2 -23 -13 4 -2
12 -1 13 2 -20 -12 4 0
8 -4 17 8 -20 -11 6 2
11 -2 12 6 -20 -11 6 3
14 1 13 5 -19 -11 6 3
12 -2 15 1 -22 -12 4 2
14 -2 12 -6 -25 -15 5 0
16 1 8 -6 -23 -13 5 -1
15 1 8 -3 -23 -14 4 -1
14 -3 6 -5 -29 -18 0 -1
14 -4 9 1 -28 -20 -1 -2
19 -4 6 -5 -31 -24 -7 -9
25 -4 4 -4 -34 -28 -11 -16
23 -3 4 -5 -32 -26 -10 -15
20 -1 5 -4 -28 -23 -8 -12
15 -2 8 -1 -26 -24 -7 -9
7 -3 15 11 -23 -20 0 -2
1 -4 13 1 -21 -18 2 3
1 -4 11 -3 -21 -16 5 6
-2 -6 13 -7 -23 -16 6 9
-1 -5 19 -2 -27 -15 6 9
4 0 12 0 -25 -15 4 5
6 0 10 -4 -26 -18 1 0
7 0 16 1 -25 -19 0 -4
5 -4 7 1 -24 -19 -2 -7
5 -8 9 -5 -28 -22 -6 -9
15 -8 3 -14 -35 -27 -11 -12
18 -6 5 -19 -38 -29 -12 -10
22 -5 6 -19 -41 -32 -13 -9
16 -8 9 -12 -40 -30 -10 -4
10 -9 11 -6 -36 -27 -5 1
9 -5 8 -5 -33 -26 -5 1
14 -5 10 -10 -33 -27 -4 -2
13 -7 13 -9 -32 -26 -4 -5
10 -8 10 -9 -33 -26 -5 -8
7 -7 9 -4 -33 -26 -5 -9
7 -8 10 -1 -34 -27 -6 -11
13 -8 8 -3 -36 -30 -9 -15
11 -9 5 -12 -38 -30 -11 -11
5 -9 3 -13 -39 -30 -9 -4
2 -7 9 -12 -35 -27 -3 -1
2 -6 9 -8 -36 -27 -5 -4
8 -5 7 -6 -37 -26 -6 -7
11 -7 4 -3 -36 -27 -7 -8
10 -7 7 -3 -34 -25 -7 -7
16 -6 15 -10 -35 -25 -9 -7
17 -8 8 -9 -39 -30 -11 -8
18 -6 7 -12 -40 -31 -10 -7
12 -5 11 -11 -40 -29 -6 -4
9 -8 5 -16 -43 -30 -7 -4
8 -6 7 -8 -42 -30 -7 -5
7 -3 10 -2 -41 -31 -8 -6
5 -5 5 -7 -41 -31 -9 -7
6 -5 2 -6 -36 -32 -8 -7
5 -4 9 -4 -33 -29 -6 -5
1 -5 9 -12 -35 -31 -9 -8
-1 -6 5 -11 -35 -30 -8 -7
8 -7 3 -7 -36 -29 -8 -8
16 -5 5 -3 -38 -30 -8 -8
16 -6 8 -14 -43 -30 -8 -7
10 -8 4 -17 -45 -30 -8 -6
11 -7 2 -15 -44 -29 -7 -6
7 -10 4 -9 -44 -29 -9 -8
7 -10 2 -11 -43 -31 -10 -10
9 -4 5 -10 -39 -27 -8 -7
5 -4 6 -12 -38 -27 -9 -6
1 -7 7 -14 -39 -27 -8 -5
2 -7 8 -9 -39 -28 -8 -7
1 -7 4 -6 -40 -29 -8 -7
-1 -10 2 -11 -41 -30 -9 -11
1 -8 3 -15 -39 -30 -9 -11
6 -2 4 -13 -39 -31 -10 -9
6 -6 3 -9 -40 -31 -11 -8
4 -9 7 -12 -39 -31 -10 -7
10 -6 6 -10 -40 -29 -11 -8
15 -4 3 -15 -41 -30 -13 -11
15 -5 0 -18 -41 -30 -13 -12
14 -8 1 -18 -42 -33 -15 -13
12 -10 -1 -13 -43 -33 -15 -13
14 -9 0 -9 -44 -33 -14 -11
15 -8 4 -8 -41 -31 -13 -11
11 -7 2 -13 -44 -32 -14 -12
6 -7 8 -17 -43 -30 -12 -10
0 -10 4 -12 -40 -27 -11 -10
5 -8 1 -15 -42 -28 -14 -14
7 -8 -2 -13 -42 -30 -16 -14
8 -7 -1 -12 -43 -28 -13 -10
8 -6 4 -12 -43 -32 -15 -11
15 -4 4 -14 -45 -35 -18 -16
12 -5 3 -17 -44 -35 -16 -16
5 -3 15 -10 -41 -30 -12 -13
1 -2 9 -12 -42 -30 -14 -14
-2 -5 4 -19 -44 -33 -16 -12
0 -4 1 -19 -46 -32 -16 -11
4 -6 -2 -13 -47 -31 -14 -11
9 -5 -1 -9 -46 -31 -13 -11
4 -8 -1 -15 -46 -29 -10 -9
4 -7 -3 -22 -48 -29 -10 -10
10 -8 3 -24 -48 -29 -11 -11
7 -8 2 -20 -49 -29 -12 -13
4 -4 2 -9 -43 -25 -10 -8
4 0 7 -8 -40 -26 -11 -5
1 -4 11 -11 -42 -30 -13 -6
0 -7 4 -12 -43 -32 -12 -6
2 -6 3 -16 -44 -31 -10 -6
1 -10 2 -22 -47 -33 -13 -10
5 -10 -1 -18 -49 -32 -12 -11
10 -7 -2 -14 -46 -31 -12 -16
10 -7 -1 -14 -45 -33 -15 -20
5 -8 2 -12 -44 -32 -15 -18
-1 -7 8 -12 -41 -28 -11 -12
2 0 5 -10 -38 -26 -11 -11
4 -5 -1 -14 -45 -30 -14 -12
0 -7 7 -14 -46 -31 -16 -11
1 -6 8 -16 -43 -27 -13 -12
4 -7 1 -18 -44 -28 -13 -12
6 -5 1 -13 -42 -27 -10 -10
7 -5 1 -10 -44 -28 -10 -9
7 -9 4 -16 -47 -31 -14 -13
10 -7 4 -14 -46 -32 -15 -12
14 -6 3 -13 -45 -31 -13 -13
9 -5 2 -16 -44 -32 -13 -13
4 -6 1 -22 -44 -32 -12 -12
4 -6 0 -21 -43 -31 -11 -11
4 -4 6 -17 -42 -29 -9 -12
7 -5 6 -16 -42 -28 -9 -12
6 -8 -2 -12 -41 -28 -8 -11
4 -8 4 -16 -40 -27 -7 -10
4 -7 4 -17 -42 -28 -7 -10
9 -8 0 -19 -46 -29 -8 -10
13 -7 -1 -16 -44 -29 -7 -14
5 -7 0 -17 -42 -29 -9 -15
3 -7 -1 -19 -46 -31 -11 -15
7 -6 3 -21 -43 -30 -10 -14
2 -6 4 -15 -40 -25 -7 -13
-3 -5 7 -9 -38 -22 -4 -10
-8 -5 7 -5 -36 -20 0 -9
-7 -5 8 -6 -35 -20 -1 -10
1 -5 6 -7 -39 -23 -6 -13
2 -8 2 -7 -42 -27 -10 -15
1 -9 2 -13 -41 -28 -10 -16
0 -8 6 -15 -40 -30 -11 -16
-1 -10 2 -18 -42 -30 -13 -14
5 -6 0 -21 -41 -27 -11 -12
10 -3 6 -16 -41 -23 -9 -13
7 -7 3 -19 -44 -25 -10 -14
6 -6 0 -15 -42 -23 -7 -12
2 -5 8 -15 -40 -22 -7 -12
2 -5 6 -18 -42 -24 -8 -15
1 -4 1 -11 -42 -24 -9 -15
0 -4 2 -12 -39 -23 -8 -17
-1 -1 6 -12 -37 -23 -9 -17
-3 -2 4 -14 -39 -24 -10 -15
-3 -2 6 -20 -39 -23 -10 -14
0 0 6 -18 -39 -20 -7 -15
-5 0 4 -20 -37 -18 -4 -11
-1 -1 5 -16 -37 -18 -2 -9
9 2 1 -14 -36 -17 -1 -9
14 5 -1 -16 -37 -16 0 -7
17 7 4 -17 -36 -14 1 -5
17 9 7 -13 -32 -11 2 -7
13 12 11 -8 -26 -7 5 -6
8 13 15 -2 -23 -7 5 -5
2 11 15 6 -19 -6 5 -7
5 12 23 12 -19 -8 1 -7
9 8 17 -1 -22 -10 -1 -7
9 6 17 -8 -24 -11 1 -5
12 7 16 -9 -23 -9 4 -2
14 8 13 -7 -23 -5 7 0
8 7 14 -6 -21 -3 10 4
4 9 13 -2 -15 1 15 8
-1 12 11 5 -10 4 16 9
2 16 12 11 -8 4 16 10
2 19 17 14 -3 9 20 12
5 22 16 19 0 11 20 12
7 18 12 18 -4 9 18 7
11 14 4 5 -11 4 14 3
15 16 -5 -11 -17 1 10 2
22 16 -9 -14 -21 -1 8 4
24 11 -10 -12 -24 -4 6 5
21 10 -11 0 -22 -3 8 5
14 8 -2 -3 -22 -3 7 4
9 5 4 -7 -20 -3 7 4
11 8 6 -8 -18 -1 9 4
8 8 5 -11 -19 -1 9 1
5 5 -5 -12 -25 -3 5 0
5 2 -9 -16 -27 -8 3 -2
7 2 -7 -21 -29 -10 2 -1
8 3 -12 -25 -34 -13 -1 -3
7 0 -8 -26 -34 -14 -2 -4
2 1 -3 -21 -29 -13 0 -3
3 3 -8 -19 -31 -16 -3 -6
7 3 -8 -16 -35 -20 -6 -8
1 3 -5 -15 -31 -14 0 -3
-3 3 -1 -22 -29 -10 3 -1
-7 -4 -1 -26 -36 -12 0 -3
-2 -7 -1 -26 -37 -13 -1 -3
4 -5 -3 -26 -36 -13 -2 -3
6 -2 -12 -32 -37 -17 -4 -4
5 -4 -5 -28 -36 -16 -3 -4
0 -6 1 -22 -32 -17 -4 -8
-3 -5 -2 -19 -32 -17 -6 -12
-1 -7 -3 -19 -33 -19 -9 -15
0 -9 -7 -24 -35 -22 -12 -16
-3 -7 -2 -23 -33 -21 -11 -14
-4 -9 3 -23 -33 -22 -13 -15
-4 -10 2 -22 -32 -22 -11 -13
-10 -8 1 -20 -31 -19 -7 -11
-13 -9 4 -19 -33 -20 -8 -12
-13 -11 -1 -29 -36 -23 -10 -14
-16 -8 2 -27 -32 -19 -6 -11
-12 -5 -2 -26 -33 -18 -7 -11
-8 -8 -4 -27 -34 -20 -10 -13
-11 -9 0 -27 -30 -17 -8 -12
-12 -8 1 -21 -29 -15 -6 -11
-9 -7 -3 -26 -29 -15 -8 -10
-12 -10 -4 -27 -31 -17 -7 -7
-12 -9 -2 -26 -35 -19 -10 -8
-9 -6 -3 -28 -35 -18 -12 -9
-5 -11 -5 -33 -37 -20 -18 -12
-3 -9 -2 -22 -33 -18 -21 -14
-5 -9 -2 -19 -33 -21 -28 -16
-10 -10 -2 -21 -33 -21 -30 -14
-12 -10 1 -21 -29 -19 -30 -10
-5 -7 0 -21 -30 -20 -34 -14
-9 -11 -2 -24 -30 -21 -38 -15
-14 -13 4 -20 -28 -17 -36 -13
-11 -10 4 -13 -25 -16 -38 -14
-11 -7 9 -10 -22 -16 -40 -14
-16 -12 13 -6 -20 -14 -41 -15
-15 -13 16 5 -14 -14 -43 -17
-16 -13 21 11 -7 -9 -44 -20
-14 -19 24 23 -1 -6 -47 -24
-9 -21 23 35 6 -2 -47 -24
-5 -22 27 46 16 7 -43 -22
3 -21 32 71 39 29 -28 -12
16 -13 35 106 73 62 -1 8
29 -3 37 132 106 100 33 31
49 8 39 157 138 137 63 56
76 25 27 172 170 180 108 92
105 50 3 142 179 221 159 138
135 75 -34 87 167 257 211 187
157 100 -64 37 161 295 262 234
165 117 -85 -7 145 318 299 272
175 138 -118 -65 126 336 332 308
174 139 -149 -132 91 331 340 325
156 129 -158 -197 41 298 320 319
124 133 -152 -251 -6 254 287 301
85 135 -142 -288 -38 208 240 272
52 137 -130 -301 -57 172 198 239
20 135 -109 -296 -66 142 160 206
-9 121 -87 -294 -100 77 91 147
-30 103 -73 -302 -142 -3 13 85
-52 81 -77 -305 -181 -79 -59 27
-69 63 -72 -292 -203 -127 -104 -12
-78 45 -70 -285 -215 -152 -130 -36
-79 25 -64 -264 -213 -155 -136 -44
-72 19 -58 -229 -194 -140 -127 -44
-68 15 -53 -201 -175 -124 -120 -43
-63 11 -48 -180 -156 -108 -111 -38
-52 20 -42 -146 -129 -87 -96 -29
-42 26 -41 -118 -111 -72 -87 -28
-35 24 -40 -106 -95 -60 -78 -24
-27 23 -27 -83 -78 -50 -71 -21
-23 18 -16 -59 -60 -38 -65 -22
-17 10 -14 -45 -47 -28 -61 -21
-16 0 -4 -35 -36 -21 -58 -17
-13 -1 1 -30 -33 -19 -58 -17
-10 -2 1 -24 -30 -16 -55 -14
-13 -6 -1 -21 -28 -14 -53 -12
-9 -3 4 -12 -26 -11 -50 -11
-10 0 12 -7 -24 -10 -49 -11
-12 -2 10 -4 -24 -11 -49 -11
-11 -2 10 -1 -20 -7 -46 -12
-13 0 13 8 -15 -6 -47 -14
-17 -4 10 9 -14 -7 -48 -15
-14 -6 13 10 -12 -6 -46 -11
-15 -4 18 12 -10 -3 -44 -8
-13 -4 8 5 -12 -4 -45 -12
-15 -5 9 9 -13 -5 -44 -10
-18 -7 11 17 -10 -3 -41 -7
-18 -4 13 17 -8 -3 -41 -8
-14 -7 13 17 -9 -5 -41 -9
-10 -7 14 18 -11 -5 -43 -12
-5 -3 26 22 -9 -3 -43 -14
-11 -5 22 13 -7 -3 -43 -14
-15 -6 14 11 -4 0 -38 -8
-14 -3 13 23 -1 4 -34 -6
-12 -6 10 22 -2 3 -33 -5
-13 -6 10 14 -5 1 -31 -4
-11 -4 9 21 -7 3 -31 -5
-13 -3 10 18 -7 2 -33 -9
-16 -5 13 18 -7 2 -33 -7
-18 -5 12 22 -4 3 -33 -4
-16 -3 15 26 -4 4 -34 -6
-14 -4 15 26 -5 1 -35 -8
-15 -6 17 22 -3 2 -33 -5
-13 -3 16 26 0 7 -30 -5
-10 -5 17 25 0 7 -31 -8
-9 -8 21 23 -3 4 -32 -8
-1 -8 15 28 -6 2 -36 -11
0 -5 13 30 -5 -1 -38 -12
-10 -3 21 32 3 6 -30 -5
-14 -4 19 32 3 5 -29 -4
-11 -5 17 32 2 4 -30 -8
-9 -4 16 32 0 3 -32 -11
-6 -5 14 29 0 3 -31 -8
-7 -3 16 38 4 8 -28 -5
-8 0 16 36 6 11 -25 -5
-7 -2 21 33 4 11 -26 -5
-6 -1 19 37 7 14 -23 -2
-3 2 19 39 6 12 -25 -6
-3 0 17 38 5 10 -28 -5
-3 2 16 38 5 9 -28 -4
-8 2 16 46 7 12 -27 -2
-9 -2 15 50 5 11 -29 -3
-5 -2 18 45 7 13 -25 -2
-3 0 20 39 8 16 -23 -1
1 0 20 45 10 17 -21 -1
4 -1 23 47 8 14 -23 -1
5 0 26 47 11 16 -20 0
1 5 30 51 16 21 -18 0
-11 2 33 57 20 26 -14 7
-11 1 25 61 20 25 -15 5
-7 3 29 65 21 25 -16 1
-4 3 23 65 20 23 -18 -1
-3 1 16 60 22 24 -15 3
-3 3 19 61 27 27 -11 4
-2 3 21 59 25 26 -11 7
4 1 20 55 22 24 -10 9
4 2 20 62 26 29 -5 11
5 5 24 69 27 32 -3 11
3 4 25 75 30 34 0 15
-7 2 29 76 35 37 2 16
-7 5 31 83 37 40 3 13
-1 4 30 84 36 37 1 9
5 3 20 80 34 36 -1 7
6 7 21 90 40 42 4 13
8 7 23 90 42 45 6 13
4 5 22 84 43 48 8 15
-4 5 28 88 49 55 14 19
-2 8 24 90 46 54 11 19
7 11 28 99 47 53 13 22
11 15 24 105 51 55 15 23
9 13 22 106 53 57 14 22
5 12 21 103 54 58 15 24
3 9 24 106 58 62 19 28
7 12 26 112 61 68 23 29
13 14 25 119 61 69 24 28
19 12 20 115 59 67 23 28
22 15 23 116 64 71 26 30
25 22 24 122 66 75 28 30
30 26 24 129 68 75 29 32
30 26 28 133 72 77 30 37
32 26 27 134 74 79 30 36
33 26 28 137 76 80 31 36
31 23 37 134 80 85 35 40
31 22 30 137 82 87 36 43
31 23 26 133 82 89 40 47
31 23 31 134 80 91 43 49
33 27 32 139 83 93 45 51
32 29 26 144 84 94 44 49
31 28 26 150 86 94 45 49
30 26 29 149 87 95 46 50
34 29 31 149 89 98 47 52
35 32 31 146 88 97 49 55
39 34 32 150 89 101 53 60
42 31 34 147 88 102 53 58
47 31 28 140 86 100 50 55
48 30 22 141 83 99 49 55
42 28 24 142 84 101 51 57
45 31 22 145 83 102 50 57
43 31 23 145 80 100 50 58
34 29 23 144 81 100 52 61
35 32 23 149 84 101 52 60
42 34 28 137 81 97 49 59
45 33 23 132 81 96 50 60
44 34 17 135 81 99 53 62
40 34 16 132 78 99 54 63
37 32 17 123 75 98 56 65
37 33 20 125 74 98 55 62
36 35 16 120 71 95 52 59
34 35 17 125 68 93 51 59
34 34 26 130 65 89 49 58
34 34 26 119 62 87 46 53
30 34 19 105 56 84 45 52
29 30 13 91 54 80 42 52
29 31 16 96 55 83 43 51
27 28 14 92 50 78 40 49
24 22 8 83 44 70 36 47
27 23 7 73 41 67 33 43
28 25 12 68 37 62 29 37
21 22 9 66 33 58 25 34
11 19 8 63 32 56 22 36
10 21 12 64 33 53 20 36
11 20 18 55 30 51 17 33
11 17 10 49 27 46 14 29
3 16 7 46 24 45 14 27
0 15 9 34 18 42 12 24
1 11 19 33 13 38 9 24
1 12 17 33 14 38 9 22
2 13 11 32 12 34 4 18
2 12 7 31 7 28 -1 14
3 10 7 34 5 23 -5 11
-5 5 9 35 5 18 -9 7
-13 1 14 26 3 17 -10 7
-15 3 10 27 2 17 -9 8
-12 4 7 21 -3 15 -10 4
-12 3 8 12 -9 12 -12 2
-12 0 5 7 -13 11 -13 2
-12 1 4 10 -11 14 -11 4
-12 6 6 18 -11 14 -13 4
-15 4 7 20 -10 12 -12 3
-13 4 7 22 -9 9 -15 -1
-9 8 7 18 -9 7 -17 -4
-6 6 9 10 -14 2 -21 -7
-13 2 11 10 -11 5 -17 -4
-22 4 20 22 -7 9 -14 -1
-19 1 16 11 -14 5 -18 -3
-15 -3 8 3 -16 1 -18 -5
-17 0 8 3 -11 5 -15 -3
-17 4 7 2 -11 5 -16 -3
-20 2 6 4 -12 3 -16 -4
-18 1 4 17 -14 1 -18 -4
-19 4 3 14 -14 0 -19 -6
-17 3 2 8 -18 0 -19 -7
-17 -1 0 3 -20 -1 -19 -7
-10 1 2 -2 -20 -2 -20 -5
-11 1 -1 -7 -22 -2 -19 -4
-14 -4 4 -12 -25 -4 -20 -5
-11 0 5 -10 -22 0 -17 -2
-14 3 -1 -4 -23 0 -17 -4
-14 0 -1 -2 -24 -2 -19 -6
-14 0 8 2 -22 -4 -21 -9
-24 -2 7 11 -18 -4 -23 -9
-25 -3 7 4 -18 -4 -23 -6
-17 -1 8 -5 -21 -4 -21 -7
-14 2 5 -5 -21 -1 -20 -8
-15 5 8 0 -19 1 -18 -5
-17 1 12 -1 -24 -1 -19 -2
-20 -1 10 7 -20 1 -17 -1
-25 -1 3 10 -18 1 -19 -3
-21 0 4 10 -17 -4 -22 -6
-17 0 7 7 -15 -3 -21 -6
-16 3 5 8 -15 -4 -22 -9
-20 2 7 6 -14 -3 -21 -6
-19 0 7 0 -16 -3 -19 -3
-16 1 4 -3 -16 -1 -18 -4
-14 3 5 -1 -16 0 -16 -4
-15 1 8 6 -15 0 -15 -2
-14 3 10 7 -14 0 -16 -3
-11 6 6 11 -13 -2 -19 -5
-16 1 3 8 -13 -4 -21 -5
-13 -1 4 3 -15 -5 -22 -6
-12 2 6 8 -15 -3 -21 -7
-14 4 12 10 -13 -1 -18 -3
-12 2 8 6 -13 2 -14 -1
-20 0 7 7 -9 5 -10 1
-26 0 14 10 -8 8 -7 4
-24 2 12 7 -7 7 -7 4
-21 5 9 13 -6 8 -7 2
-15 8 8 13 -8 5 -11 -2
-14 3 6 13 -10 2 -15 -4
-12 1 4 6 -11 -1 -19 -6
-7 3 10 12 -8 1 -17 -5
-9 2 9 12 -7 0 -15 -3
-17 1 9 9 -6 3 -11 1
-21 3 14 12 -5 6 -8 6
-21 3 13 11 -6 7 -7 6
-16 2 10 5 -10 3 -10 4
-18 2 6 16 -10 5 -10 2
-17 4 11 19 -8 4 -12 0
-18 1 8 16 -8 2 -14 -1
-12 1 3 17 -9 -3 -17 -6
-8 2 5 18 -9 -4 -19 -7
-9 1 6 12 -10 -5 -17 -4
-14 1 6 3 -9 -2 -13 0
-12 4 5 3 -12 -1 -12 -2
-7 5 6 10 -14 1 -12 -1
-7 4 6 3 -14 1 -9 2
-7 6 2 6 -12 5 -7 4
-17 6 11 10 -10 5 -7 3
-22 5 6 16 -7 7 -7 5
-15 7 7 17 -8 3 -9 1
-12 8 7 17 -7 3 -10 0
-7 8 7 13 -10 0 -13 -2
-9 6 7 17 -9 0 -11 1
-14 4 6 9 -10 -3 -13 -1
-15 3 8 12 -11 -2 -13 0
-18 2 6 18 -11 -2 -12 2
-16 5 7 14 -11 -1 -10 2
-14 9 13 20 -9 1 -9 3
-15 7 12 15 -11 0 -10 3
-13 5 12 10 -11 -2 -10 2
-13 6 9 12 -9 0 -8 1
-12 2 4 7 -12 -3 -11 -1
-10 2 1 5 -14 -6 -13 0
-10 2 3 3 -12 -7 -14 -1
-13 5 8 5 -9 -4 -11 2
-12 6 8 9 -8 -3 -9 4
-18 3 11 11 -6 -2 -7 2
-22 5 7 5 -7 -3 -8 3
-21 5 6 0 -11 -6 -10 2
-15 4 6 1 -14 -10 -14 -2
-5 5 6 10 -13 -13 -17 -6
-8 0 4 12 -14 -14 -18 -9
-10 2 5 11 -14 -15 -18 -7
-6 5 8 2 -13 -15 -18 -5
-9 3 3 -3 -14 -16 -18 -2
-10 3 3 -1 -16 -14 -16 2
-13 3 10 5 -13 -10 -13 3
-18 2 8 -3 -14 -11 -14 1
-19 1 7 1 -13 -11 -13 2
-13 4 12 4 -13 -11 -13 0
-12 3 9 7 -12 -12 -14 -2
-13 1 -1 5 -16 -15 -17 -6
-13 0 0 2 -16 -16 -16 -5
-11 3 5 2 -15 -14 -15 -5
-9 -1 3 -4 -17 -16 -19 -4
-9 -3 -2 -8 -21 -19 -20 -4
-10 1 6 1 -16 -14 -16 -2
-9 3 1 -4 -17 -15 -18 -4
-17 0 1 -7 -17 -17 -18 -4
-16 1 4 1 -17 -15 -17 -3
-14 5 6 6 -14 -16 -16 -3
-15 3 3 0 -16 -16 -17 -4
-9 0 0 -8 -19 -21 -18 -6
-6 1 -4 -11 -21 -20 -18 -7
-9 3 -2 -11 -18 -18 -15 -4
-13 1 -2 -12 -20 -16 -15 -2
-13 1 3 -8 -19 -15 -14 -2
-17 2 1 -3 -16 -13 -13 -3
-20 -2 2 -6 -18 -16 -17 -4
-20 -2 6 -2 -18 -17 -16 -6
-17 1 6 5 -16 -17 -15 -4
-16 -2 2 -4 -19 -19 -16 -4
-14 -3 1 -4 -20 -19 -16 -3
-10 0 5 -2 -17 -20 -17 -2
-8 1 3 -2 -16 -20 -16 1
-12 1 6 1 -16 -20 -18 0
-18 -2 15 7 -12 -17 -16 -2
