I II V1 V2 V3 V4 V5 V6
-11 -4 -4 -4 -9 -6 -8 -11
-11 -4 -4 -4 -9 -6 -8 -11
-11 -5 -4 -4 -9 -6 -8 -11
-11 -5 -4 -4 -9 -6 -8 -11
-11 -6 -4 -4 -9 -6 -8 -11
-11 -6 -4 -4 -9 -6 -8 -11
-11 -7 -5 -4 -10 -6 -9 -12
-11 -8 -5 -4 -10 -6 -9 -12
-11 -8 -5 -4 -10 -7 -10 -12
-11 -9 -5 -4 -10 -7 -10 -12
-11 -9 -5 -4 -10 -7 -10 -12
-12 -10 -5 -5 -10 -8 -11 -13
-12 -10 -5 -6 -11 -8 -11 -13
-12 -10 -5 -6 -11 -9 -12 -14
-12 -10 -5 -7 -12 -9 -12 -14
-12 -10 -5 -7 -12 -9 -12 -14
-13 -10 -6 -7 -13 -10 -13 -15
-12 -9 -5 -6 -12 -9 -12 -14
-11 -9 -4 -5 -11 -8 -11 -14
-10 -8 -3 -4 -10 -7 -10 -13
-9 -8 -3 -3 -10 -6 -9 -13
-8 -7 -2 -2 -9 -5 -8 -12
-8 -7 -3 -2 -9 -5 -8 -12
-9 -8 -4 -3 -10 -6 -8 -12
-9 -8 -5 -3 -10 -6 -8 -12
-9 -8 -5 -3 -10 -6 -8 -12
-10 -9 -6 -4 -11 -7 -9 -13
-10 -10 -6 -4 -11 -7 -9 -13
-10 -10 -6 -4 -11 -7 -9 -13
-10 -11 -6 -4 -11 -7 -9 -13
-10 -11 -6 -4 -11 -7 -9 -13
-10 -12 -5 -4 -11 -8 -10 -14
-11 -11 -5 -4 -11 -8 -10 -14
-12 -10 -5 -4 -12 -8 -11 -14
-13 -9 -5 -4 -12 -8 -11 -14
-13 -9 -5 -4 -12 -8 -11 -14
-14 -8 -6 -5 -13 -9 -12 -15
-14 -9 -6 -5 -12 -8 -11 -15
-14 -9 -5 -4 -11 -8 -11 -14
-14 -10 -5 -4 -10 -7 -10 -14
-14 -10 -5 -4 -10 -7 -10 -14
-12 -9 -3 -2 -8 -5 -8 -12
-11 -7 0 1 -7 -4 -7 -10
-9 -5 1 3 -6 -2 -6 -9
-8 -3 3 5 -5 0 -5 -7
-7 0 4 7 -4 1 -4 -6
-6 1 5 8 -3 2 -3 -5
-7 1 5 8 -3 2 -3 -6
-7 1 4 7 -3 1 -4 -6
-8 1 4 7 -3 1 -4 -7
-8 1 4 7 -3 1 -4 -7
-9 1 4 6 -4 0 -5 -8
-9 2 5 7 -3 1 -4 -7
-8 3 7 8 -2 2 -3 -6
-8 4 8 9 0 3 -2 -5
-8 5 9 10 0 3 0 -4
-7 9 10 11 2 5 2 -2
-6 13 10 12 4 6 3 1
-5 16 11 13 5 8 5 3
-4 20 11 14 7 9 6 5
-4 23 11 15 8 10 7 6
-3 24 12 16 9 11 8 7
-2 24 11 15 9 11 8 7
0 23 11 14 9 11 8 8
1 23 10 13 9 11 8 8
1 23 10 13 9 11 8 8
2 22 9 12 8 12 9 9
3 22 8 11 7 11 9 9
4 23 7 10 7 11 8 8
5 23 6 9 6 10 8 8
5 23 6 9 6 10 8 8
6 23 4 6 3 8 6 7
6 22 2 4 1 6 5 6
5 20 0 2 -2 4 4 5
5 19 -3 0 -4 2 3 4
5 18 -5 -3 -6 1 2 3
4 15 -6 -4 -7 0 1 2
3 13 -6 -3 -7 0 1 2
3 10 -6 -2 -6 1 1 2
2 8 -6 0 -6 1 1 2
2 6 -6 0 -6 1 1 2
0 3 -7 0 -6 0 -2 0
-3 0 -8 -3 -8 -3 -4 -3
-4 -3 -8 -4 -10 -5 -7 -6
-6 -6 -9 -6 -12 -7 -9 -8
-7 -8 -9 -7 -13 -9 -11 -10
-8 -10 -10 -8 -14 -10 -12 -11
-9 -11 -10 -8 -14 -10 -12 -11
-9 -13 -10 -8 -14 -10 -12 -11
-10 -14 -10 -8 -14 -10 -12 -11
-10 -15 -10 -8 -14 -10 -12 -11
-11 -16 -10 -9 -15 -11 -13 -12
-11 -17 -10 -9 -16 -11 -13 -12
-11 -17 -10 -9 -16 -12 -13 -12
-11 -18 -10 -9 -17 -12 -13 -12
-11 -18 -10 -9 -17 -12 -13 -12
-11 -19 -9 -10 -18 -13 -14 -13
-11 -19 -9 -10 -18 -14 -15 -14
-11 -18 -9 -11 -19 -15 -16 -14
-11 -18 -9 -11 -19 -16 -17 -15
-11 -18 -9 -11 -19 -16 -18 -15
-11 -17 -10 -12 -20 -17 -19 -16
-11 -17 -10 -12 -20 -17 -19 -16
-11 -18 -10 -12 -19 -17 -19 -16
-11 -18 -10 -12 -19 -17 -19 -16
-11 -18 -10 -12 -19 -17 -19 -16
-12 -19 -11 -11 -18 -17 -18 -17
-12 -19 -11 -11 -18 -17 -18 -17
-12 -19 -12 -12 -19 -18 -19 -17
-12 -19 -12 -12 -19 -18 -19 -17
-12 -19 -12 -12 -19 -18 -19 -17
-13 -19 -13 -13 -20 -19 -20 -18
-13 -19 -13 -13 -20 -18 -20 -18
-12 -19 -13 -13 -19 -18 -20 -17
-12 -19 -13 -13 -19 -17 -20 -17
-12 -19 -13 -13 -19 -17 -20 -17
-11 -18 -13 -12 -18 -16 -19 -16
-11 -18 -12 -11 -18 -16 -19 -16
-11 -19 -12 -10 -17 -17 -20 -17
-11 -19 -11 -9 -17 -17 -20 -17
-11 -19 -11 -8 -17 -17 -20 -17
-12 -20 -7 1 -9 -12 -17 -16
-11 -20 -3 9 0 -6 -12 -14
-10 -19 2 17 8 2 -7 -12
-9 -19 5 25 16 9 -2 -9
-9 -19 9 33 24 16 4 -7
0 -13 15 51 46 36 21 9
9 -7 21 70 68 58 40 24
18 -2 27 89 92 80 60 40
27 5 34 108 115 102 79 56
36 11 40 128 138 123 99 72
45 21 40 134 153 139 112 86
53 32 37 139 169 153 126 99
61 44 35 144 183 167 139 112
69 55 33 149 198 181 152 125
78 66 31 154 213 195 165 138
67 66 9 110 176 164 143 123
53 63 -15 60 132 128 114 105
39 60 -39 10 88 91 86 86
25 57 -63 -41 44 55 57 67
11 54 -88 -92 -2 18 28 49
4 44 -102 -119 -31 -7 7 31
-4 33 -116 -145 -59 -30 -13 15
-11 22 -130 -170 -87 -53 -32 -2
-17 12 -144 -194 -114 -76 -53 -18
-24 2 -157 -220 -142 -99 -72 -34
-23 -2 -150 -206 -137 -96 -71 -35
-20 -4 -139 -187 -127 -90 -66 -33
-17 -6 -128 -169 -116 -82 -62 -31
-14 -7 -117 -149 -105 -75 -57 -29
-11 -9 -106 -131 -95 -68 -52 -27
-10 -11 -95 -116 -87 -63 -49 -26
-9 -12 -83 -102 -78 -59 -47 -25
-9 -13 -72 -89 -71 -54 -44 -24
-8 -14 -61 -75 -63 -50 -40 -23
-8 -15 -50 -61 -55 -45 -38 -23
-7 -16 -44 -54 -50 -40 -35 -21
-7 -16 -39 -48 -45 -37 -33 -20
-7 -16 -34 -41 -39 -33 -30 -18
-7 -16 -30 -34 -34 -30 -27 -17
-7 -16 -25 -28 -29 -26 -25 -16
-7 -15 -23 -25 -27 -25 -24 -15
-7 -14 -21 -23 -26 -24 -23 -15
-7 -14 -19 -20 -24 -23 -23 -14
-7 -13 -17 -17 -22 -22 -22 -14
-7 -13 -15 -15 -21 -21 -22 -14
-6 -12 -14 -13 -19 -19 -21 -13
-6 -12 -13 -12 -18 -18 -20 -12
-6 -13 -13 -11 -16 -17 -20 -12
-6 -13 -12 -10 -15 -16 -19 -11
-6 -13 -12 -9 -14 -15 -19 -11
-5 -14 -11 -8 -13 -14 -18 -10
-5 -13 -11 -8 -13 -14 -18 -10
-5 -13 -10 -7 -13 -14 -18 -10
-5 -12 -10 -7 -13 -14 -18 -10
-5 -12 -10 -7 -13 -14 -18 -10
-5 -11 -9 -6 -14 -14 -18 -9
-5 -12 -9 -5 -13 -14 -18 -9
-5 -12 -9 -4 -13 -14 -18 -8
-5 -13 -9 -3 -12 -14 -18 -8
-5 -13 -9 -2 -12 -14 -18 -8
-5 -14 -8 0 -11 -13 -17 -7
-5 -14 -8 0 -11 -13 -17 -7
-5 -14 -7 0 -11 -13 -17 -7
-5 -14 -7 0 -11 -13 -17 -7
-5 -14 -7 0 -11 -13 -17 -7
-6 -13 -6 0 -10 -12 -17 -8
-6 -13 -5 0 -9 -12 -17 -8
-5 -13 -5 0 -9 -12 -17 -8
-5 -13 -4 0 -8 -12 -17 -8
-5 -13 -4 0 -8 -12 -17 -8
-4 -12 -3 1 -7 -11 -16 -8
-4 -11 -3 1 -6 -10 -16 -7
-3 -9 -3 1 -5 -10 -16 -7
-3 -7 -3 1 -4 -9 -16 -6
-3 -6 -3 1 -4 -9 -16 -6
-2 -5 -3 2 -3 -8 -15 -5
-2 -6 -3 2 -3 -8 -15 -5
0 -7 -3 3 -3 -8 -14 -5
0 -8 -3 3 -3 -8 -14 -5
0 -8 -3 3 -3 -8 -14 -5
1 -9 -4 4 -3 -8 -13 -4
2 -8 -4 4 -3 -8 -13 -4
2 -8 -4 4 -4 -8 -13 -4
3 -7 -4 4 -4 -8 -13 -4
3 -7 -4 4 -4 -8 -13 -4
4 -6 -4 4 -4 -8 -13 -5
5 -5 -3 5 -3 -7 -12 -4
5 -4 -3 6 -2 -6 -11 -3
6 -3 -2 7 1 -5 -10 -2
6 -2 -2 7 2 -4 -9 0
7 0 0 8 3 -3 -8 1
7 -2 -2 8 3 -3 -8 1
7 -3 -2 8 3 -3 -8 1
7 -4 -3 8 3 -3 -8 1
7 -4 -3 8 3 -3 -8 1
6 -5 -4 9 2 -3 -9 0
6 -5 -3 9 3 -2 -8 0
7 -4 -2 10 4 0 -7 0
7 -4 0 10 5 1 -6 0
7 -4 1 10 6 1 -6 0
8 -2 2 11 7 2 -5 0
8 0 2 11 7 2 -5 0
8 1 2 11 7 2 -4 0
8 3 2 11 7 2 -4 0
8 4 2 11 7 2 -4 0
9 5 1 12 7 3 -3 1
10 5 1 13 8 4 -2 2
10 5 1 14 9 5 0 2
11 5 1 15 10 6 1 3
11 5 1 16 10 6 2 3
12 5 2 17 11 7 3 4
12 6 2 19 13 8 4 5
13 8 2 20 14 9 5 6
13 10 2 21 15 10 6 7
13 11 2 22 16 11 7 8
14 12 2 23 17 12 8 9
15 12 2 23 18 13 9 10
16 12 2 24 19 14 10 11
17 12 2 24 20 15 11 12
18 12 2 24 21 16 12 12
19 13 2 25 22 17 13 13
21 14 2 25 22 18 14 13
22 16 2 25 22 18 15 14
23 18 2 25 22 19 16 14
24 19 2 25 22 19 17 14
25 20 2 26 23 21 19 15
25 21 2 27 25 22 20 17
26 21 2 27 26 23 21 18
26 22 2 28 27 25 23 19
26 22 2 28 28 26 24 20
27 24 3 29 29 27 25 21
28 25 3 29 29 27 26 22
29 26 2 29 29 28 26 22
30 28 2 29 29 28 27 23
30 29 2 29 29 28 27 23
31 30 1 30 30 29 28 24
31 31 1 29 30 29 28 24
31 32 1 28 30 30 28 24
31 33 1 27 30 30 28 24
31 33 1 27 30 30 28 24
32 34 0 26 31 31 29 23
32 34 0 26 31 31 30 24
32 34 0 26 31 32 30 25
32 34 0 26 31 32 31 26
32 34 0 26 31 32 31 26
33 33 0 25 32 33 32 27
32 33 0 25 32 33 32 27
32 33 0 25 32 33 32 27
31 33 0 25 32 33 32 27
31 33 0 25 32 33 32 27
30 33 0 25 33 33 33 28
30 34 0 25 32 33 33 28
30 34 0 25 32 33 32 27
30 35 0 25 31 33 32 27
30 35 0 25 31 33 32 27
31 35 0 24 30 32 31 26
30 34 0 24 30 31 30 25
29 33 1 24 30 31 30 24
28 31 1 24 30 30 29 23
28 30 1 24 30 30 29 23
27 29 2 24 29 29 28 22
26 28 2 24 28 28 27 21
26 27 3 24 28 27 26 20
25 26 3 24 27 26 25 19
25 26 3 24 27 25 24 19
24 25 4 23 26 23 22 17
22 23 4 22 24 22 20 15
21 22 4 21 23 21 18 13
20 21 4 20 22 19 16 11
19 20 4 20 21 18 14 9
18 19 3 19 19 17 13 8
17 18 3 18 18 16 12 7
17 17 3 18 17 15 11 7
16 16 3 17 15 14 10 6
16 15 3 17 14 13 10 6
15 13 3 16 13 11 8 4
14 12 3 15 11 9 7 3
13 11 3 15 10 8 6 2
12 9 3 14 9 6 4 0
11 8 3 14 8 4 3 -2
10 7 3 12 7 3 2 -3
9 5 2 11 6 2 0 -4
8 4 2 10 5 1 -2 -4
7 3 1 8 4 0 -3 -5
6 2 1 7 3 -2 -4 -5
5 1 0 6 2 -3 -5 -6
5 1 -2 5 2 -4 -5 -7
5 1 -3 5 1 -4 -6 -8
5 1 -4 4 1 -5 -6 -9
5 1 -4 4 1 -5 -6 -9
4 2 -5 3 0 -6 -7 -10
4 0 -5 3 -2 -6 -7 -10
3 -2 -5 2 -2 -7 -7 -10
3 -3 -5 2 -3 -7 -7 -10
3 -4 -5 2 -3 -7 -7 -10
2 -5 -5 1 -4 -8 -8 -11
2 -4 -5 1 -5 -8 -9 -12
2 -4 -5 1 -5 -8 -9 -13
2 -3 -5 1 -6 -8 -10 -13
2 -3 -5 1 -6 -8 -10 -14
2 -2 -6 0 -7 -9 -11 -15
2 -3 -6 0 -7 -9 -10 -15
2 -4 -5 0 -7 -8 -10 -14
2 -4 -5 0 -7 -8 -9 -14
2 -5 -5 0 -7 -8 -9 -14
1 -6 -4 1 -6 -7 -8 -13
2 -6 -4 1 -6 -7 -8 -13
2 -5 -4 1 -6 -8 -8 -13
3 -5 -4 1 -6 -8 -8 -13
3 -5 -4 1 -6 -8 -8 -13
4 -4 -5 0 -6 -9 -8 -13
3 -4 -5 0 -6 -9 -8 -13
3 -4 -5 0 -6 -9 -8 -13
2 -4 -5 0 -6 -9 -8 -13
2 -4 -5 0 -6 -9 -8 -13
1 -5 -4 -2 -7 -9 -9 -14
1 -5 -3 -2 -6 -9 -9 -14
1 -5 -3 -2 -6 -9 -8 -14
1 -5 -2 -2 -5 -9 -8 -14
1 -5 -2 -2 -5 -9 -8 -14
1 -4 0 0 -4 -8 -7 -14
1 -4 0 0 -4 -8 -7 -14
2 -3 0 0 -4 -8 -7 -13
2 -3 0 0 -4 -8 -7 -13
2 -3 0 0 -4 -8 -7 -13
3 -2 0 0 -5 -7 -7 -12
3 -2 0 0 -5 -7 -7 -12
3 -3 0 1 -5 -7 -6 -11
3 -3 0 1 -5 -7 -6 -11
3 -3 0 1 -5 -7 -6 -11
2 -4 -2 2 -5 -7 -5 -10
2 -4 -2 2 -5 -7 -5 -10
3 -3 -2 2 -4 -7 -5 -10
3 -3 -2 2 -4 -7 -5 -10
3 -3 -2 2 -4 -7 -5 -10
4 -2 -2 1 -3 -7 -5 -11
4 -2 -2 1 -3 -7 -5 -11
4 -2 -2 1 -3 -6 -4 -10
4 -2 -2 1 -3 -6 -4 -10
4 -2 -2 1 -3 -6 -4 -10
3 0 0 1 -2 -5 -3 -9
3 0 0 1 -2 -5 -3 -9
3 -2 0 1 -2 -5 -3 -9
3 -2 0 1 -2 -5 -3 -9
3 -2 0 1 -2 -5 -3 -9
2 -3 0 1 -2 -5 -3 -8
1 -3 0 1 -2 -5 -3 -8
1 -4 0 1 -2 -5 -3 -8
0 -4 0 1 -2 -5 -3 -8
0 -4 0 1 -2 -5 -3 -8
-2 -5 0 2 -2 -5 -3 -8
-2 -4 1 2 -2 -5 -3 -8
-2 -3 1 2 -2 -5 -3 -8
-2 -2 2 2 -2 -5 -3 -8
-2 0 2 2 -2 -5 -3 -8
0 1 3 1 -2 -5 -3 -9
-2 1 3 1 -2 -5 -3 -9
-2 0 3 1 -2 -5 -3 -9
-3 0 3 1 -2 -5 -3 -9
-3 0 3 1 -2 -5 -3 -9
-4 -2 2 2 -2 -4 -2 -8
-4 -3 2 2 -2 -4 -2 -8
-5 -3 2 2 -2 -4 -2 -8
-5 -4 2 2 -2 -4 -2 -8
-5 -4 2 2 -2 -4 -2 -8
-6 -5 3 3 0 -4 0 -8
-7 -4 3 2 0 -4 0 -8
-7 -4 3 2 0 -4 0 -7
-8 -3 3 1 0 -4 0 -7
-8 -3 3 1 0 -4 0 -7
-9 -2 3 0 -2 -3 1 -6
-9 -4 3 0 -2 -3 0 -6
-9 -5 2 0 -3 -4 0 -6
-9 -6 2 0 -3 -4 -2 -6
-9 -7 2 0 -3 -4 -2 -6
-10 -8 1 0 -4 -5 -3 -7
-10 -8 1 0 -4 -5 -3 -7
-9 -8 1 0 -4 -4 -3 -7
-9 -8 1 0 -4 -4 -3 -7
-9 -8 1 0 -4 -4 -3 -7
-8 -7 1 0 -3 -3 -2 -6
-8 -5 1 0 -3 -3 -2 -6
-8 -4 1 1 -3 -3 -2 -5
-8 -2 1 1 -3 -3 -2 -5
-8 1 1 1 -3 -3 -2 -5
-9 1 2 2 -2 -2 0 -4
-12 -3 2 1 -3 -4 -2 -6
-14 -5 2 0 -4 -5 -3 -7
-17 -8 2 -2 -4 -6 -3 -8
-20 -11 2 -3 -5 -7 -4 -9
-21 -12 1 -4 -6 -8 -5 -10
-20 -11 1 -4 -6 -8 -5 -10
-19 -11 1 -4 -6 -7 -5 -10
-19 -10 1 -4 -6 -7 -5 -10
-18 -10 1 -4 -6 -7 -5 -10
-17 -9 1 -3 -6 -6 -5 -10
-17 -9 1 -3 -6 -6 -5 -10
-18 -9 1 -3 -6 -6 -5 -9
-18 -9 1 -3 -6 -6 -5 -9
-18 -9 1 -3 -6 -6 -5 -9
-19 -8 2 -4 -6 -6 -5 -8
-19 -8 2 -4 -6 -6 -5 -8
-20 -9 1 -4 -6 -6 -5 -8
-20 -10 1 -4 -6 -6 -5 -8
-20 -10 1 -4 -6 -6 -5 -8
-21 -11 0 -3 -6 -5 -4 -9
-21 -11 1 -3 -6 -5 -4 -9
-21 -10 2 -2 -5 -5 -4 -8
-21 -10 2 0 -5 -5 -4 -8
-21 -10 3 0 -5 -5 -4 -8
-21 -9 4 1 -4 -4 -4 -7
-21 -9 4 1 -4 -4 -4 -7
-22 -9 4 1 -4 -4 -4 -7
-22 -9 4 1 -4 -4 -4 -7
-22 -9 4 1 -4 -4 -4 -7
-23 -8 5 1 -4 -3 -3 -7
-24 -8 5 1 -4 -3 -3 -7
-25 -9 6 1 -4 -3 -3 -7
-25 -10 6 1 -4 -3 -3 -7
-26 -10 6 1 -4 -3 -3 -7
-27 -11 7 1 -4 -3 -3 -6
-26 -10 7 1 -4 -3 -3 -6
-25 -8 7 1 -4 -2 -2 -6
-24 -7 7 1 -4 -2 -2 -6
-23 -6 7 1 -4 -2 -2 -6
-22 -5 7 2 -3 0 0 -6
-23 -6 7 2 -3 0 0 -6
-25 -7 7 2 -3 -2 -2 -6
-26 -7 7 2 -3 -2 -2 -6
-27 -8 7 2 -3 -2 -2 -6
-28 -9 7 1 -4 -3 -3 -6
-28 -9 7 1 -4 -3 -3 -6
-29 -10 7 1 -4 -3 -2 -6
-29 -10 7 1 -4 -3 -2 -6
-29 -10 7 1 -4 -3 -2 -6
-30 -11 6 1 -3 -2 0 -5
-30 -11 6 1 -3 -2 0 -5
-31 -12 6 0 -4 -2 0 -6
-32 -12 6 0 -4 -2 0 -6
-32 -12 6 0 -4 -2 0 -6
-33 -13 5 -2 -5 -3 -2 -7
-32 -13 5 -2 -5 -3 -2 -7
-31 -13 5 -2 -5 -3 -2 -7
-31 -13 5 -2 -5 -3 -2 -7
-30 -13 5 -2 -5 -3 -2 -7
-29 -12 4 -2 -6 -3 -2 -6
-29 -12 4 -2 -6 -3 -2 -6
-29 -12 4 -2 -5 -3 0 -6
-29 -12 4 -2 -4 -3 0 -6
-29 -12 4 -2 -4 -3 0 -6
-28 -12 5 0 -3 -2 1 -5
-28 -12 5 0 -3 -2 1 -5
-28 -12 5 0 -3 0 2 -4
-28 -12 5 0 -3 0 2 -4
-28 -12 5 0 -3 0 2 -4
-27 -11 5 1 -2 1 3 -3
-27 -11 5 1 -2 1 3 -3
-27 -11 4 1 -3 0 2 -4
-27 -11 4 1 -3 -2 1 -5
-27 -11 4 1 -3 -2 1 -5
-27 -12 3 0 -4 -3 0 -6
-26 -12 3 0 -4 -3 0 -6
-25 -12 3 -2 -5 -3 -2 -6
-25 -12 3 -2 -5 -3 -2 -6
-24 -12 3 -2 -5 -3 -2 -6
-23 -12 3 -3 -6 -4 -3 -6
-24 -12 3 -3 -6 -4 -3 -6
-26 -12 3 -3 -6 -4 -3 -6
-27 -12 3 -3 -6 -4 -3 -6
-28 -12 3 -3 -6 -4 -3 -6
-29 -12 2 -3 -6 -4 -3 -6
-27 -12 2 -3 -6 -4 -3 -6
-26 -11 3 -3 -6 -4 -3 -6
-24 -10 3 -3 -6 -4 -3 -6
-23 -10 3 -3 -6 -4 -3 -6
-22 -9 4 -3 -6 -3 -2 -6
-22 -9 4 -3 -6 -3 -2 -6
-22 -9 3 -3 -6 -3 -3 -6
-22 -9 3 -3 -6 -3 -3 -6
-22 -9 3 -3 -6 -3 -3 -6
-22 -10 2 -4 -7 -3 -4 -6
-23 -11 2 -4 -7 -3 -4 -6
-24 -12 2 -5 -8 -4 -5 -6
-24 -13 2 -5 -9 -5 -5 -6
-25 -14 2 -5 -9 -5 -5 -6
-26 -15 3 -6 -10 -6 -6 -5
-25 -14 3 -6 -10 -6 -6 -5
-23 -13 3 -6 -10 -6 -6 -6
-22 -12 3 -6 -10 -6 -6 -6
-21 -11 3 -6 -10 -6 -6 -6
-20 -10 3 -5 -10 -5 -6 -7
-20 -11 3 -5 -10 -5 -6 -7
-21 -12 3 -6 -10 -5 -5 -7
-21 -13 3 -6 -10 -5 -5 -7
-21 -14 3 -6 -10 -5 -5 -7
-22 -15 2 -7 -10 -6 -4 -6
-21 -15 2 -7 -10 -6 -4 -6
-20 -15 2 -7 -10 -6 -4 -6
-20 -15 2 -7 -10 -6 -4 -6
-19 -15 2 -7 -10 -6 -4 -6
-18 -15 1 -6 -10 -5 -5 -7
-18 -15 1 -6 -10 -5 -5 -7
-19 -14 1 -7 -10 -6 -6 -7
-19 -14 1 -7 -10 -6 -6 -7
-19 -14 1 -7 -10 -6 -6 -7
-20 -13 0 -8 -11 -7 -7 -8
-19 -13 0 -8 -11 -7 -7 -8
-18 -12 0 -7 -11 -7 -7 -8
-17 -12 0 -7 -11 -7 -7 -8
-16 -12 0 -7 -11 -7 -7 -8
-15 -11 1 -6 -11 -7 -7 -7
-15 -11 1 -6 -10 -7 -7 -7
-15 -10 1 -6 -9 -7 -7 -6
-15 -10 1 -6 -9 -7 -7 -6
-15 -10 1 -6 -8 -7 -7 -6
-15 -9 2 -6 -7 -6 -6 -5
-15 -8 4 -4 -6 -4 -4 -4
-15 -6 6 -2 -5 -2 -3 -3
-15 -5 7 0 -4 0 -2 -2
-15 -4 9 2 -3 2 1 0
-14 -3 10 3 -2 3 2 1
-13 -3 10 3 -2 2 2 0
-12 -2 10 2 -2 1 2 -2
-12 -2 10 1 -2 0 2 -2
-11 -2 10 1 -2 -2 2 -3
-10 0 9 1 -2 -3 1 -4
-10 0 11 3 0 0 2 -2
-10 0 12 5 1 2 3 0
-10 0 13 7 2 3 4 1
-10 0 15 9 3 5 5 3
-9 3 16 10 4 6 6 4
-7 7 16 10 4 6 6 4
-5 11 15 9 4 7 7 4
-4 15 14 9 4 7 7 4
-2 19 14 9 4 7 7 4
0 20 13 8 4 8 8 5
1 18 11 8 4 8 8 5
2 16 10 8 4 8 9 6
2 14 9 8 4 8 9 7
3 11 7 8 4 8 9 7
4 10 6 8 5 9 10 8
5 12 6 8 5 9 10 8
7 13 5 7 4 8 9 8
8 14 5 6 3 7 9 8
9 16 5 6 3 7 9 8
10 16 4 5 2 6 8 7
10 14 2 3 1 5 7 6
10 12 0 1 0 4 6 5
10 10 -2 0 -2 3 5 5
10 8 -4 -3 -3 2 4 4
9 6 -5 -4 -4 1 3 3
6 4 -5 -4 -5 -2 2 2
4 2 -5 -5 -7 -4 0 1
1 0 -5 -6 -8 -6 -2 0
-2 -3 -5 -6 -9 -8 -3 -2
-4 -4 -6 -7 -10 -9 -4 -3
-5 -6 -6 -8 -11 -10 -5 -5
-6 -8 -6 -9 -13 -11 -7 -6
-7 -10 -6 -10 -14 -11 -8 -7
-8 -12 -6 -11 -15 -12 -9 -9
-9 -13 -6 -12 -16 -13 -10 -10
-9 -15 -6 -12 -16 -13 -10 -10
-9 -17 -7 -12 -17 -14 -11 -11
-9 -18 -8 -12 -17 -15 -12 -12
-9 -20 -8 -12 -17 -15 -12 -12
-9 -21 -9 -13 -18 -16 -13 -13
-9 -21 -9 -14 -18 -16 -14 -13
-9 -21 -10 -15 -18 -16 -15 -13
-9 -21 -10 -15 -18 -16 -15 -13
-9 -21 -10 -16 -18 -16 -16 -13
-10 -21 -11 -17 -19 -17 -17 -14
-10 -21 -11 -17 -19 -17 -17 -14
-10 -22 -11 -17 -20 -18 -17 -15
-10 -23 -11 -17 -20 -19 -17 -16
-10 -23 -11 -17 -20 -19 -17 -16
-10 -24 -11 -17 -21 -20 -18 -17
-11 -25 -11 -17 -21 -20 -18 -17
-12 -26 -11 -16 -21 -20 -18 -17
-12 -26 -11 -16 -21 -20 -18 -17
-13 -27 -11 -16 -21 -20 -18 -17
-14 -28 -10 -15 -20 -19 -18 -16
-14 -27 -10 -15 -20 -19 -18 -16
-13 -25 -9 -15 -20 -18 -17 -16
-12 -24 -8 -15 -20 -18 -17 -16
-12 -23 -8 -15 -20 -18 -17 -16
-11 -22 -7 -14 -19 -17 -16 -15
-11 -22 -7 -14 -19 -17 -16 -15
-11 -22 -7 -13 -18 -17 -16 -15
-11 -22 -7 -12 -18 -17 -16 -15
-11 -22 -7 -12 -18 -17 -16 -15
-12 -21 -4 -8 -15 -16 -16 -15
-12 -21 3 1 -10 -12 -14 -14
-11 -21 9 9 -5 -9 -13 -13
-11 -21 14 16 0 -6 -12 -12
-11 -21 20 24 5 -2 -10 -11
-8 -19 24 34 16 8 -3 -6
-3 -15 27 47 32 23 11 5
3 -10 31 60 49 39 25 15
7 -6 34 73 65 55 38 24
12 -2 37 86 81 70 52 34
19 7 40 102 103 90 69 48
29 17 43 121 130 114 90 64
39 28 46 142 155 138 111 81
50 39 49 161 181 161 132 99
60 50 51 181 207 186 152 115
65 57 43 173 210 190 158 123
65 60 21 134 185 172 147 121
65 63 0 95 160 154 136 119
64 67 -23 56 136 136 125 116
64 70 -45 18 111 117 113 114
56 66 -66 -24 75 90 92 100
39 52 -87 -67 30 51 60 74
24 37 -107 -111 -16 12 27 49
8 23 -128 -154 -61 -27 -5 23
-9 10 -148 -198 -107 -66 -37 -3
-17 1 -155 -215 -129 -86 -54 -16
-17 -2 -147 -201 -123 -82 -54 -17
-17 -4 -138 -187 -118 -79 -54 -18
-17 -7 -129 -174 -113 -75 -54 -20
-17 -9 -120 -159 -108 -72 -54 -21
-17 -12 -109 -145 -101 -68 -53 -22
-17 -14 -97 -129 -92 -63 -49 -22
-17 -17 -85 -112 -82 -58 -45 -22
-17 -20 -71 -96 -73 -53 -40 -21
-17 -22 -59 -79 -64 -48 -36 -21
-18 -24 -49 -66 -57 -43 -33 -20
-18 -23 -43 -58 -50 -38 -31 -18
-18 -22 -35 -50 -44 -34 -29 -17
-18 -21 -29 -40 -37 -29 -26 -16
-18 -20 -22 -32 -31 -25 -24 -14
-18 -19 -18 -26 -27 -22 -22 -13
-18 -19 -16 -24 -25 -21 -21 -13
-18 -19 -15 -22 -24 -21 -21 -13
-18 -18 -14 -20 -23 -20 -20 -12
-18 -18 -12 -18 -21 -19 -19 -12
-18 -17 -11 -15 -20 -18 -18 -11
-18 -17 -9 -13 -18 -17 -18 -11
-18 -16 -7 -11 -16 -16 -17 -10
-18 -15 -5 -9 -14 -14 -16 -9
-18 -15 -3 -7 -12 -13 -16 -9
-17 -14 -2 -5 -11 -12 -15 -8
-17 -14 -2 -5 -11 -12 -15 -8
-17 -14 -2 -5 -11 -12 -15 -8
-18 -15 -2 -5 -12 -12 -15 -8
-18 -15 -2 -5 -12 -12 -15 -8
-19 -16 -2 -5 -13 -12 -15 -9
-17 -16 0 -3 -12 -11 -15 -8
-16 -16 1 -2 -11 -11 -15 -8
-15 -16 2 1 -9 -10 -14 -7
-13 -16 3 3 -8 -9 -14 -6
-12 -17 4 4 -7 -8 -13 -5
-12 -16 4 4 -7 -8 -13 -5
-12 -16 4 4 -7 -8 -13 -5
-12 -15 4 4 -7 -8 -13 -5
-12 -14 4 4 -7 -8 -13 -5
-13 -13 3 5 -7 -7 -13 -4
-13 -13 4 5 -7 -7 -13 -4
-13 -13 4 6 -6 -7 -13 -4
-13 -13 5 7 -5 -7 -13 -4
-13 -13 6 7 -5 -7 -13 -4
-14 -14 7 8 -4 -6 -12 -4
-14 -14 7 8 -4 -6 -12 -4
-14 -14 7 8 -4 -6 -12 -4
-13 -13 7 8 -4 -6 -12 -3
-13 -13 7 8 -4 -6 -12 -3
-12 -12 6 8 -4 -5 -12 -2
-12 -12 6 8 -4 -5 -12 -2
-12 -12 6 8 -4 -5 -12 -2
-12 -12 6 8 -3 -5 -12 -3
-12 -12 6 8 -3 -5 -12 -3
-12 -12 6 9 -2 -5 -11 -4
-10 -10 6 9 -2 -5 -11 -3
-9 -9 6 9 -2 -4 -11 -3
-7 -8 6 10 0 -3 -11 -2
-5 -6 6 10 0 -3 -11 0
-4 -5 7 11 1 -2 -10 1
-4 -5 7 11 1 -2 -10 1
-4 -6 7 11 1 -2 -10 1
-5 -7 7 11 1 -2 -10 1
-5 -7 7 11 1 -2 -10 1
-6 -8 7 12 2 0 -9 0
-5 -8 7 12 2 0 -9 0
-5 -8 7 12 2 0 -9 0
-4 -8 7 12 2 1 -9 0
-3 -8 7 12 2 1 -9 0
-2 -9 6 12 3 2 -8 1
-2 -9 7 13 4 2 -8 1
-2 -8 7 13 5 2 -8 2
-2 -7 8 14 6 3 -7 3
-2 -7 9 15 7 3 -7 3
0 -6 10 16 8 4 -6 4
1 -6 10 16 8 4 -6 4
2 -6 10 16 8 5 -6 4
3 -5 10 16 8 6 -5 5
4 -5 10 16 8 6 -5 5
5 -4 9 16 9 7 -4 6
5 -4 9 17 10 8 -3 7
5 -3 9 19 10 9 -3 7
5 -2 10 20 11 10 -2 8
5 -2 10 22 12 11 0 9
4 0 11 23 13 12 1 10
4 1 11 23 13 12 1 10
4 2 11 23 13 12 1 10
4 3 12 23 14 13 2 11
4 4 12 23 14 13 2 11
4 5 13 24 15 14 3 12
5 6 13 25 16 15 4 13
7 8 13 26 18 17 5 14
8 9 13 27 19 18 7 16
10 11 13 28 21 20 8 17
11 12 13 29 22 21 9 18
11 12 13 29 22 21 9 19
11 12 13 29 22 21 10 19
11 12 13 29 22 21 11 20
11 12 13 29 22 21 11 21
12 13 12 30 23 22 12 22
13 14 13 31 25 24 14 24
14 14 13 33 27 26 15 25
16 15 14 34 29 28 17 27
17 16 15 36 31 29 19 29
18 17 16 37 33 31 20 30
18 18 16 37 33 31 20 31
18 18 15 37 33 31 21 31
18 19 14 36 34 31 22 32
18 20 14 36 34 31 22 33
18 21 13 35 35 32 23 34
19 21 13 35 35 33 24 35
19 21 13 35 36 34 24 35
20 22 13 35 37 35 25 36
21 22 13 35 37 36 26 37
22 23 13 36 38 37 27 38
22 24 12 36 38 37 27 38
22 25 12 35 38 37 27 38
22 26 11 34 38 37 27 38
22 27 10 34 38 37 27 38
22 28 9 33 37 36 27 38
22 28 9 33 37 36 28 39
23 29 9 33 37 37 28 39
24 30 9 33 38 38 29 40
24 30 9 33 38 38 30 42
25 31 10 33 39 39 31 43
25 31 10 33 39 39 31 43
24 31 9 32 39 39 31 43
23 30 8 31 39 39 30 43
23 30 8 31 39 39 30 43
22 29 7 30 38 38 29 43
22 29 7 30 38 38 29 43
22 29 8 30 38 38 29 43
22 29 9 30 38 38 29 43
22 29 9 30 38 38 29 43
22 29 10 31 38 39 29 42
21 29 10 31 38 38 28 40
21 29 10 31 37 37 28 39
20 29 9 30 36 35 27 38
19 29 9 30 36 34 26 37
18 29 8 29 35 33 25 36
17 27 8 29 34 32 23 35
16 25 8 28 33 31 21 33
14 23 8 27 31 30 19 32
13 21 8 27 30 29 18 30
12 19 9 26 29 28 16 29
11 18 9 25 28 26 15 28
11 17 8 24 26 24 13 26
10 16 7 23 25 22 12 25
9 15 7 22 23 21 10 23
8 14 6 21 22 19 9 22
8 13 6 21 21 18 8 22
8 13 6 20 21 18 7 22
8 12 6 19 20 17 6 21
8 11 6 19 19 16 5 21
8 10 7 18 18 15 4 20
7 8 6 16 16 13 3 18
5 7 5 15 14 11 1 17
4 5 4 13 12 9 0 15
2 4 3 12 11 7 -3 14
1 2 2 10 9 5 -4 12
1 1 2 10 8 5 -5 12
1 0 2 10 7 5 -6 11
0 -2 2 9 6 5 -8 10
0 -3 2 9 5 5 -9 10
-2 -4 2 8 4 4 -10 9
-2 -4 2 7 4 4 -10 9
-2 -5 2 7 4 3 -10 9
-2 -6 1 6 4 2 -10 9
-2 -6 1 5 4 2 -10 9
-3 -7 0 4 3 1 -10 8
-3 -7 0 4 2 1 -10 8
-3 -8 0 4 2 0 -11 8
-4 -9 0 3 1 -2 -12 7
-4 -9 0 3 0 -2 -12 7
-5 -10 1 2 -2 -3 -13 6
-4 -9 1 2 -2 -3 -13 6
-2 -8 1 2 -2 -3 -13 6
0 -7 1 1 -2 -3 -13 6
2 -6 1 1 -2 -3 -13 6
3 -5 0 0 -2 -2 -13 7
2 -6 0 0 -2 -2 -13 7
2 -6 0 0 -2 -2 -13 7
1 -7 1 0 -2 -2 -13 7
0 -8 1 0 -2 -2 -13 7
-2 -9 2 1 -3 -3 -13 6
-2 -9 2 1 -3 -3 -13 6
-2 -9 1 0 -3 -4 -13 6
-3 -8 0 -2 -3 -5 -14 6
-3 -8 0 -2 -3 -5 -14 6
-4 -7 -2 -3 -4 -6 -15 6
-4 -7 -2 -3 -4 -6 -15 6
-4 -7 -2 -3 -4 -6 -15 6
-4 -6 0 -2 -4 -6 -15 6
-4 -6 0 -2 -4 -6 -15 6
-3 -5 1 0 -4 -5 -16 5
-3 -5 1 0 -4 -5 -16 5
-3 -6 1 0 -4 -5 -16 5
-4 -6 1 -2 -4 -5 -16 5
-4 -7 1 -2 -4 -5 -16 5
-5 -8 0 -3 -4 -5 -15 6
-5 -8 0 -3 -4 -5 -15 6
-5 -8 0 -2 -4 -5 -15 6
-4 -8 1 -2 -3 -4 -15 6
-4 -8 1 0 -3 -4 -15 6
-3 -8 2 1 -2 -3 -14 7
-2 -8 2 1 -2 -3 -14 7
0 -8 2 1 -2 -3 -14 7
1 -8 2 1 -2 -3 -13 7
2 -8 2 1 -2 -3 -13 7
3 -7 1 0 -2 -4 -12 7
2 -7 1 0 -2 -4 -12 7
2 -7 1 0 -2 -4 -12 7
1 -7 1 0 -2 -4 -12 7
0 -7 1 0 -2 -4 -12 7
-2 -6 2 0 -2 -4 -13 7
-2 -5 2 0 -2 -4 -13 7
-2 -4 2 0 -2 -4 -13 7
-2 -3 2 1 0 -4 -12 8
-2 -2 2 1 0 -4 -12 8
0 0 1 2 1 -3 -11 9
0 -2 1 2 1 -3 -11 9
0 -3 1 2 1 -3 -11 9
0 -4 1 1 0 -3 -11 9
0 -5 1 1 0 -3 -11 9
0 -6 2 0 -2 -4 -12 8
0 -6 2 0 -2 -4 -12 8
0 -6 2 0 -2 -4 -12 8
1 -5 1 0 0 -4 -12 8
1 -5 1 0 0 -4 -12 8
2 -4 0 -2 1 -5 -12 8
2 -4 0 -2 1 -5 -12 8
2 -4 0 -2 1 -5 -12 8
2 -4 0 -2 0 -5 -12 8
2 -4 0 -2 0 -5 -12 8
1 -4 0 -3 -2 -4 -13 7
1 -4 0 -3 -2 -4 -13 7
1 -4 0 -3 -2 -4 -13 7
1 -4 0 -3 -2 -4 -14 7
1 -4 0 -3 -2 -4 -14 7
1 -4 -2 -4 -3 -5 -15 6
1 -5 -2 -4 -3 -5 -15 6
1 -5 -2 -4 -3 -5 -15 6
1 -6 -3 -4 -3 -6 -15 6
1 -7 -3 -4 -3 -6 -15 6
1 -8 -4 -3 -2 -7 -14 7
1 -8 -4 -3 -2 -7 -14 7
1 -7 -4 -3 -2 -7 -14 7
1 -7 -4 -4 -3 -7 -14 7
1 -6 -4 -4 -3 -7 -14 7
2 -5 -5 -5 -4 -8 -15 6
1 -5 -5 -5 -4 -8 -15 6
1 -5 -5 -5 -4 -8 -15 5
0 -5 -5 -5 -5 -8 -15 5
-2 -5 -5 -5 -5 -8 -15 4
-3 -5 -5 -4 -6 -9 -16 3
-3 -6 -5 -4 -6 -9 -16 3
-2 -7 -5 -4 -6 -9 -16 3
-2 -8 -5 -4 -6 -9 -16 3
0 -10 -5 -4 -6 -9 -16 3
1 -11 -5 -5 -6 -8 -16 3
1 -11 -5 -5 -6 -8 -16 3
0 -11 -5 -5 -6 -8 -16 3
0 -11 -5 -5 -7 -9 -16 2
-2 -11 -5 -5 -7 -9 -16 2
-3 -10 -5 -6 -8 -10 -17 1
-3 -9 -5 -6 -8 -10 -17 1
-3 -7 -5 -6 -8 -10 -17 1
-3 -6 -4 -6 -8 -10 -17 1
-3 -5 -4 -6 -8 -10 -17 1
-3 -3 -3 -7 -7 -10 -16 2
-3 -4 -3 -7 -7 -10 -16 2
-3 -5 -3 -7 -7 -10 -16 2
-2 -6 -3 -7 -8 -11 -16 2
-2 -8 -3 -7 -8 -11 -16 2
0 -9 -4 -8 -9 -12 -17 1
0 -9 -4 -8 -9 -12 -17 1
0 -8 -4 -8 -9 -12 -17 1
1 -8 -4 -8 -9 -12 -17 1
1 -7 -4 -8 -9 -12 -17 1
2 -6 -4 -8 -9 -12 -17 1
2 -7 -4 -8 -9 -12 -17 1
1 -9 -4 -8 -9 -12 -17 1
1 -10 -4 -9 -9 -13 -17 1
0 -11 -4 -9 -9 -13 -17 1
-2 -13 -3 -10 -10 -14 -18 0
-2 -13 -3 -10 -10 -14 -18 0
-2 -13 -3 -10 -10 -14 -18 0
-2 -12 -4 -10 -10 -14 -18 0
-2 -12 -4 -10 -10 -14 -18 0
-3 -11 -5 -10 -10 -13 -17 0
-3 -10 -5 -10 -10 -13 -17 0
-3 -9 -5 -10 -10 -13 -17 0
-3 -8 -5 -11 -11 -13 -18 -2
-3 -7 -5 -11 -11 -13 -18 -2
-2 -6 -5 -12 -12 -14 -19 -3
-3 -7 -5 -12 -12 -14 -19 -3
-3 -8 -5 -11 -12 -14 -19 -3
-4 -9 -5 -11 -11 -13 -18 -2
-5 -10 -5 -10 -11 -13 -18 -2
-6 -11 -4 -9 -10 -12 -17 0
-5 -11 -4 -9 -10 -12 -17 0
-4 -11 -4 -9 -10 -12 -17 0
-3 -10 -4 -9 -10 -12 -17 0
0 -10 -4 -9 -10 -12 -17 0
1 -9 -4 -10 -9 -13 -17 -2
1 -9 -4 -10 -9 -13 -17 -2
0 -10 -4 -10 -9 -13 -17 -2
-2 -11 -5 -11 -10 -14 -17 -2
-3 -12 -5 -11 -10 -14 -17 -2
-4 -13 -6 -12 -11 -15 -18 -3
-3 -12 -6 -12 -11 -15 -18 -3
-2 -11 -6 -12 -11 -15 -18 -3
0 -10 -6 -12 -11 -15 -18 -3
1 -9 -6 -12 -11 -15 -18 -3
2 -8 -5 -13 -11 -14 -19 -4
2 -8 -5 -13 -11 -14 -19 -4
1 -9 -6 -13 -11 -14 -19 -4
1 -9 -6 -13 -12 -15 -20 -4
0 -10 -7 -13 -12 -15 -20 -4
-2 -11 -8 -13 -13 -16 -21 -4
-2 -11 -8 -13 -13 -16 -21 -4
-2 -11 -7 -13 -13 -16 -21 -4
-2 -11 -7 -13 -12 -15 -20 -4
-2 -11 -6 -13 -12 -15 -20 -4
-2 -10 -5 -13 -11 -14 -19 -4
-2 -10 -5 -13 -11 -14 -19 -4
-2 -10 -5 -13 -11 -14 -19 -4
-2 -11 -6 -14 -11 -14 -19 -4
-2 -11 -6 -14 -11 -14 -19 -4
-3 -12 -7 -15 -12 -15 -20 -5
-3 -12 -7 -15 -12 -15 -20 -5
-3 -12 -7 -15 -12 -15 -20 -5
-3 -11 -6 -14 -11 -14 -19 -5
-3 -11 -6 -14 -11 -14 -19 -5
-4 -10 -5 -13 -10 -13 -18 -4
-4 -10 -5 -13 -10 -13 -18 -4
-3 -10 -5 -13 -10 -14 -19 -4
-3 -10 -6 -13 -11 -14 -19 -4
-2 -10 -6 -13 -11 -15 -20 -4
0 -10 -7 -14 -12 -16 -21 -5
0 -10 -7 -14 -12 -16 -21 -5
-2 -10 -7 -14 -12 -16 -21 -5
-2 -10 -7 -14 -12 -16 -20 -5
-3 -10 -7 -14 -12 -16 -20 -5
-4 -9 -7 -14 -11 -15 -19 -6
-4 -9 -7 -14 -11 -15 -19 -6
-5 -10 -7 -14 -11 -15 -19 -6
-5 -10 -8 -14 -11 -15 -19 -5
-6 -11 -8 -14 -11 -15 -19 -5
-7 -12 -9 -13 -10 -15 -19 -4
-7 -11 -9 -13 -10 -15 -19 -4
-6 -10 -9 -13 -10 -15 -19 -4
-6 -9 -9 -13 -10 -15 -19 -4
-5 -8 -9 -13 -10 -15 -19 -4
-4 -7 -8 -13 -11 -14 -18 -5
-4 -7 -8 -13 -11 -14 -18 -5
-4 -8 -8 -13 -11 -14 -18 -5
-5 -9 -9 -13 -11 -14 -18 -5
-5 -10 -9 -13 -11 -14 -18 -5
-6 -11 -10 -12 -11 -15 -19 -5
-6 -11 -10 -12 -11 -15 -19 -5
-6 -11 -10 -12 -11 -15 -19 -5
-6 -11 -9 -12 -10 -14 -19 -5
-6 -11 -9 -12 -10 -14 -19 -5
-6 -10 -8 -12 -9 -13 -20 -6
-5 -9 -8 -12 -9 -13 -20 -6
-4 -8 -8 -11 -9 -13 -20 -6
-3 -7 -8 -11 -9 -13 -20 -6
0 -6 -8 -10 -9 -13 -20 -6
1 -5 -7 -9 -9 -13 -19 -5
1 -5 -6 -8 -8 -13 -19 -5
1 -5 -4 -6 -6 -12 -18 -4
1 -4 -2 -5 -5 -11 -17 -3
1 -4 0 -4 -4 -10 -16 -2
1 -3 2 -2 -2 -9 -15 0
1 -3 2 -2 -2 -9 -15 0
1 -2 2 -2 -2 -9 -15 0
2 -2 2 -2 -2 -8 -14 0
2 0 2 -2 -2 -8 -14 0
3 1 1 -3 -2 -7 -13 1
3 3 2 -2 -2 -7 -13 1
3 4 4 1 -2 -7 -13 1
3 6 6 2 0 -6 -12 2
3 8 7 3 0 -6 -12 2
4 10 9 5 1 -5 -11 3
5 11 9 5 2 -4 -10 4
7 13 9 5 3 -3 -9 5
8 14 9 5 4 -2 -8 6
9 15 9 5 6 0 -7 7
11 17 9 6 7 1 -6 8
11 18 9 6 7 1 -6 8
11 20 8 6 7 2 -6 8
11 21 8 6 7 2 -5 8
11 22 7 6 7 3 -5 8
11 24 6 6 8 4 -4 9
11 23 5 6 8 4 -4 9
11 21 4 5 7 4 -4 9
11 19 3 4 7 3 -4 9
11 18 2 3 6 3 -4 9
12 16 1 2 5 2 -5 8
12 14 0 1 5 1 -6 7
12 12 -2 0 4 -2 -7 6
13 10 -3 -2 3 -3 -8 5
13 7 -5 -3 2 -4 -10 3
14 5 -6 -4 1 -6 -11 2
13 5 -6 -4 1 -6 -11 2
12 5 -6 -5 0 -6 -12 1
11 5 -6 -5 -2 -7 -13 1
10 5 -6 -6 -3 -7 -14 0
9 6 -6 -7 -4 -8 -15 -2
6 2 -6 -8 -6 -9 -16 -4
3 -3 -6 -9 -7 -11 -18 -5
0 -7 -7 -10 -9 -13 -20 -7
-4 -10 -7 -11 -11 -14 -21 -9
-7 -14 -8 -13 -13 -16 -23 -11
-7 -14 -8 -13 -13 -16 -23 -11
-6 -14 -8 -13 -13 -16 -23 -11
-6 -14 -8 -13 -13 -16 -23 -11
-5 -14 -8 -13 -13 -16 -23 -11
-4 -15 -7 -13 -13 -15 -23 -11
-4 -15 -7 -13 -13 -15 -23 -11
-5 -15 -7 -13 -13 -16 -23 -11
-6 -15 -7 -13 -14 -16 -23 -11
-7 -15 -7 -13 -14 -17 -23 -11
-8 -16 -8 -14 -15 -18 -24 -12
-8 -16 -8 -14 -15 -18 -25 -12
-8 -17 -8 -15 -16 -19 -26 -13
-8 -18 -9 -15 -16 -19 -27 -13
-8 -19 -9 -16 -17 -20 -28 -14
-9 -20 -10 -17 -18 -21 -29 -15
-9 -20 -10 -17 -18 -21 -29 -15
-9 -20 -10 -16 -18 -21 -29 -15
-9 -20 -9 -16 -17 -21 -29 -16
-9 -20 -9 -15 -17 -21 -29 -16
-8 -20 -8 -14 -16 -21 -28 -17
-8 -20 -8 -14 -16 -21 -28 -17
-7 -19 -8 -14 -16 -21 -28 -17
-7 -19 -8 -13 -16 -21 -28 -17
-6 -18 -8 -13 -16 -21 -28 -17
-5 -17 -8 -12 -15 -20 -27 -16
-5 -17 -8 -12 -15 -20 -27 -16
-6 -17 -8 -12 -15 -20 -27 -16
-6 -17 -7 -12 -15 -20 -27 -16
-7 -17 -7 -12 -15 -20 -27 -16
-8 -18 -6 -13 -14 -19 -26 -16
-8 -18 -3 -8 -12 -19 -26 -16
-8 -18 1 -4 -10 -19 -26 -17
-7 -18 5 2 -8 -19 -26 -17
-7 -18 8 7 -5 -19 -26 -18
-6 -17 11 12 -2 -18 -26 -19
-2 -15 13 21 10 -6 -17 -12
3 -12 16 30 22 7 -7 -5
6 -10 18 39 33 18 3 3
10 -8 20 49 46 30 12 10
15 -4 24 60 59 45 23 18
25 6 32 84 87 69 45 34
36 16 40 107 114 94 66 51
47 25 49 131 142 119 87 67
57 35 57 154 170 144 108 84
67 45 64 174 194 167 128 99
71 53 48 152 190 164 128 102
76 61 32 132 186 162 129 106
80 69 17 110 181 160 130 109
86 77 2 90 177 158 131 113
88 84 -15 65 167 151 129 114
69 69 -39 14 114 108 94 91
51 56 -63 -37 61 64 59 66
32 42 -87 -89 8 20 25 43
14 28 -111 -140 -46 -24 -10 19
-3 15 -133 -186 -93 -63 -40 -3
-4 12 -134 -188 -99 -68 -46 -8
-5 9 -135 -189 -104 -72 -50 -13
-6 6 -137 -191 -109 -77 -55 -19
-7 2 -138 -193 -115 -81 -59 -24
-8 -2 -139 -193 -119 -87 -64 -29
-6 -4 -124 -173 -110 -80 -61 -29
-4 -6 -110 -152 -100 -75 -58 -29
-2 -8 -96 -132 -91 -69 -55 -29
1 -11 -81 -111 -80 -63 -52 -29
3 -13 -68 -92 -71 -58 -49 -29
2 -13 -59 -81 -64 -53 -46 -28
0 -14 -50 -71 -56 -48 -43 -27
-3 -15 -41 -61 -49 -44 -39 -25
-5 -16 -32 -51 -41 -38 -36 -24
-7 -17 -24 -40 -34 -33 -33 -22
-7 -16 -22 -36 -31 -31 -32 -21
-7 -15 -19 -32 -28 -29 -30 -20
-6 -14 -16 -28 -25 -27 -28 -19
-6 -13 -14 -24 -21 -25 -26 -18
-5 -12 -11 -20 -18 -23 -24 -17
-5 -12 -9 -18 -17 -22 -24 -17
-5 -13 -7 -16 -15 -21 -23 -17
-5 -13 -5 -14 -14 -19 -23 -16
-5 -14 -3 -11 -12 -18 -22 -16
-6 -15 0 -9 -10 -16 -21 -15
-6 -14 0 -9 -10 -16 -21 -15
-6 -13 0 -9 -10 -16 -21 -15
-5 -12 -2 -9 -10 -16 -21 -15
-5 -11 -2 -9 -10 -16 -21 -15
-4 -9 -3 -9 -10 -15 -20 -16
-4 -10 -3 -8 -10 -15 -20 -16
-4 -11 -2 -7 -9 -15 -20 -16
-5 -12 -2 -6 -8 -14 -19 -16
-5 -13 0 -5 -7 -14 -19 -16
-6 -14 1 -3 -6 -13 -18 -16
-6 -14 1 -3 -6 -13 -18 -16
-6 -14 1 -3 -6 -13 -18 -16
-6 -14 1 -4 -7 -13 -19 -16
-6 -14 1 -4 -7 -13 -19 -16
-5 -13 1 -5 -8 -13 -20 -15
-5 -13 1 -5 -7 -13 -20 -15
-5 -12 2 -4 -6 -12 -19 -15
-4 -11 3 -4 -5 -12 -19 -15
-4 -10 4 -3 -4 -11 -18 -15
-3 -9 5 -2 -3 -10 -17 -15
-3 -9 5 -2 -3 -10 -17 -15
-3 -9 5 -2 -3 -10 -17 -15
-3 -9 5 -2 -3 -10 -17 -15
-3 -9 5 -2 -3 -10 -17 -15
-3 -10 4 -2 -4 -10 -16 -15
-3 -10 4 -2 -4 -10 -16 -15
-3 -10 4 0 -3 -10 -16 -15
-2 -10 5 0 -2 -9 -16 -14
-2 -10 5 1 0 -9 -16 -14
0 -9 6 2 1 -8 -15 -13
0 -9 6 2 1 -8 -15 -13
0 -9 5 2 1 -8 -15 -13
1 -9 5 2 1 -8 -14 -13
1 -9 4 2 1 -8 -14 -13
2 -9 3 1 1 -7 -13 -12
2 -9 4 1 1 -7 -13 -12
2 -8 5 2 1 -6 -13 -12
2 -7 6 3 2 -6 -12 -11
2 -6 7 4 2 -5 -12 -11
3 -5 9 5 3 -4 -11 -10
3 -5 9 5 3 -4 -11 -10
3 -5 8 5 3 -4 -11 -10
3 -5 7 5 3 -5 -11 -10
3 -5 6 5 3 -5 -11 -10
4 -6 5 4 3 -6 -11 -10
4 -6 5 5 3 -6 -11 -10
4 -5 5 6 4 -5 -11 -10
5 -4 6 7 4 -5 -11 -10
5 -3 6 8 5 -4 -11 -10
6 -2 7 9 6 -3 -10 -10
6 -2 7 9 6 -3 -10 -10
6 -2 7 9 6 -2 -10 -9
5 -3 7 9 7 -2 -9 -9
5 -3 7 9 7 0 -9 -8
4 -4 6 10 8 1 -8 -7
4 -4 6 11 9 1 -7 -7
5 -3 7 13 10 2 -6 -6
5 -2 8 14 12 2 -4 -6
6 0 9 16 13 3 -3 -5
7 1 10 18 15 4 0 -4
7 2 10 18 15 5 0 -4
8 3 10 18 15 6 0 -3
9 4 10 18 15 7 1 -2
10 5 10 18 15 8 1 0
11 7 11 18 15 9 2 1
11 7 11 19 16 9 3 1
11 7 12 20 17 10 4 2
11 6 12 21 18 11 5 2
11 6 13 22 19 12 6 3
10 5 14 24 21 13 7 4
11 7 14 24 21 14 8 5
12 9 13 24 21 15 9 6
13 12 12 25 21 16 10 7
14 14 11 25 21 17 11 8
16 17 10 26 22 18 13 10
16 17 10 26 22 18 13 10
16 17 10 26 22 18 13 10
17 18 10 26 23 18 13 11
17 18 10 26 23 18 13 11
18 19 10 27 24 19 14 12
19 19 10 27 25 20 15 13
20 19 10 28 26 22 16 14
21 20 10 28 28 23 17 15
22 20 10 29 29 25 18 16
23 21 10 30 31 27 19 18
23 21 10 30 31 27 20 18
23 22 10 30 32 27 21 19
24 23 10 30 33 28 23 20
24 24 10 30 34 28 24 21
25 25 9 31 35 29 26 22
25 25 9 31 35 29 26 23
25 26 8 30 35 29 26 24
24 26 8 30 34 30 26 25
24 27 7 29 34 30 26 26
23 28 6 28 33 31 27 27
23 28 6 28 33 31 27 27
23 29 6 28 34 32 28 28
24 29 6 28 34 32 29 28
24 30 6 28 35 33 30 29
25 31 6 28 36 34 31 30
26 32 6 27 36 34 31 30
27 33 6 26 36 34 31 30
28 34 6 25 35 34 31 30
29 35 6 24 35 34 31 30
30 36 5 23 34 33 30 30
30 36 5 23 34 33 30 30
29 35 5 23 34 33 30 30
29 34 5 23 34 33 30 29
28 33 5 23 34 33 30 29
27 32 4 23 33 32 29 28
27 32 4 23 33 32 29 28
26 32 4 23 33 32 28 27
26 31 4 23 33 32 28 27
25 31 4 23 33 32 27 26
24 30 4 23 32 31 26 25
23 29 4 23 32 30 25 25
22 27 4 23 31 29 24 24
21 26 5 23 31 28 22 24
21 24 5 23 30 28 21 23
20 23 5 23 30 27 20 23
18 21 6 22 28 25 18 21
16 19 6 21 26 24 16 19
14 18 5 21 24 22 15 17
12 16 5 20 22 21 13 15
10 15 5 20 21 20 12 13
9 14 4 19 20 18 10 12
9 13 4 18 20 16 9 11
8 12 4 17 19 15 7 10
8 11 4 16 19 13 6 9
8 10 4 16 19 12 5 9
7 9 4 15 17 10 3 7
6 8 3 14 15 8 1 6
5 7 2 13 13 7 0 4
4 6 1 12 11 5 -3 3
4 5 1 12 9 4 -4 2
3 4 0 10 8 3 -5 1
2 3 0 9 7 3 -5 1
1 2 0 8 7 3 -5 0
0 1 0 7 6 3 -5 0
0 0 0 6 6 3 -5 0
-2 -2 0 5 5 2 -6 -2
-2 -2 0 4 4 1 -7 -2
-2 -3 -2 4 3 0 -7 -3
-2 -3 -2 3 2 -2 -8 -3
-2 -3 -2 3 2 -2 -8 -3
-2 -4 -3 2 1 -3 -9 -4
-3 -4 -3 2 0 -4 -10 -5
-3 -4 -3 1 -2 -5 -11 -6
-4 -4 -3 1 -3 -6 -12 -7
-4 -4 -3 1 -3 -7 -12 -7
-5 -4 -3 0 -4 -8 -13 -8
-5 -4 -3 0 -4 -8 -13 -8
-5 -4 -3 -2 -5 -8 -13 -8
-5 -4 -3 -2 -5 -8 -13 -8
-5 -4 -3 -2 -5 -8 -13 -8
-4 -6 -4 -3 -6 -8 -14 -8
-5 -7 -4 -3 -5 -8 -13 -8
-6 -8 -4 -2 -5 -8 -13 -8
-7 -9 -4 -2 -4 -8 -12 -8
-8 -10 -4 -2 -4 -8 -12 -8
-9 -11 -3 0 -3 -7 -11 -7
-8 -10 -3 0 -3 -7 -11 -7
-7 -9 -3 0 -4 -7 -11 -7
-6 -8 -3 0 -4 -7 -11 -7
-6 -8 -3 0 -4 -7 -11 -7
-5 -7 -4 -2 -5 -6 -12 -6
-5 -7 -3 -2 -5 -7 -12 -6
-5 -6 -3 -2 -5 -7 -13 -6
-5 -6 -2 -2 -5 -8 -13 -6
-5 -6 -2 -2 -5 -8 -13 -6
-6 -5 0 -2 -6 -9 -14 -6
-5 -5 0 -2 -6 -9 -14 -6
-5 -4 0 -2 -6 -9 -14 -6
-4 -4 0 -2 -6 -9 -14 -6
-4 -4 0 -2 -6 -9 -14 -6
-3 -3 0 -2 -7 -8 -13 -6
-4 -3 0 0 -6 -7 -13 -5
-4 -4 0 0 -6 -7 -12 -5
-5 -4 0 1 -5 -6 -12 -4
-5 -4 0 1 -5 -6 -12 -4
-6 -5 0 2 -4 -5 -11 -3
-6 -5 0 2 -4 -5 -11 -3
-5 -5 0 2 -4 -5 -11 -3
-5 -5 0 2 -4 -5 -11 -3
-5 -5 0 2 -4 -5 -11 -3
-4 -5 -2 2 -4 -5 -10 -3
-4 -5 -2 2 -4 -5 -10 -3
-4 -5 -2 2 -4 -5 -11 -3
-4 -5 -2 2 -4 -5 -11 -3
-4 -5 -2 2 -4 -5 -11 -3
-4 -6 -3 2 -5 -5 -12 -4
-4 -5 -3 2 -5 -5 -12 -4
-4 -4 -4 1 -5 -5 -12 -4
-4 -3 -4 1 -5 -5 -12 -4
-4 -3 -4 1 -5 -5 -12 -4
-3 -2 -5 0 -6 -6 -13 -4
-3 -2 -5 1 -5 -5 -12 -4
-3 -3 -4 1 -5 -5 -12 -4
-3 -3 -4 2 -4 -4 -11 -4
-3 -3 -4 2 -4 -4 -11 -4
-2 -4 -3 3 -3 -3 -10 -3
-2 -4 -3 2 -3 -3 -10 -3
-2 -4 -4 2 -3 -3 -10 -2
-2 -4 -4 1 -3 -3 -10 -2
-2 -4 -4 1 -3 -3 -10 -2
-2 -4 -5 0 -3 -3 -9 0
-2 -4 -4 1 -3 -3 -9 0
-2 -4 -3 1 -3 -3 -10 -2
-2 -4 -2 2 -3 -3 -10 -2
-2 -4 0 2 -3 -3 -10 -2
0 -4 1 3 -2 -4 -11 -3
-2 -4 0 2 -2 -4 -11 -3
-3 -4 0 2 -2 -4 -11 -3
-4 -4 -2 1 -2 -4 -11 -3
-4 -4 -2 1 -2 -4 -11 -3
-5 -5 -3 0 -3 -4 -12 -4
-5 -5 -3 0 -3 -4 -12 -4
-5 -5 -3 0 -3 -4 -12 -3
-5 -5 -3 0 -3 -4 -12 -3
-5 -5 -3 0 -3 -4 -12 -3
-4 -4 -3 0 -2 -4 -11 -2
-4 -5 -3 -2 -3 -5 -11 -3
-4 -6 -3 -2 -4 -6 -11 -3
-4 -7 -3 -3 -5 -7 -11 -4
-4 -7 -3 -3 -5 -7 -11 -4
-5 -8 -4 -4 -6 -8 -12 -5
-5 -8 -4 -4 -6 -8 -12 -5
-4 -7 -4 -4 -6 -7 -11 -4
-4 -7 -4 -4 -6 -7 -11 -4
-4 -7 -4 -4 -6 -7 -11 -4
-3 -6 -3 -4 -5 -6 -10 -3
-4 -6 -3 -5 -6 -7 -10 -3
-4 -6 -3 -5 -6 -7 -11 -3
-5 -6 -3 -6 -7 -8 -11 -3
-5 -6 -3 -6 -7 -8 -11 -3
-6 -6 -3 -7 -8 -9 -12 -4
-6 -7 -3 -7 -8 -9 -13 -5
-6 -8 -3 -6 -8 -9 -13 -6
-6 -9 -3 -6 -8 -9 -14 -7
-6 -10 -3 -6 -8 -9 -14 -7
-7 -11 -2 -5 -8 -9 -15 -8
-7 -10 -2 -6 -8 -9 -15 -7
-7 -9 -3 -7 -9 -9 -15 -7
-7 -8 -3 -8 -9 -9 -15 -6
-7 -7 -3 -8 -9 -9 -15 -6
-8 -6 -4 -9 -10 -9 -14 -5
-8 -6 -4 -8 -10 -9 -14 -5
-7 -7 -4 -8 -10 -9 -14 -5
-7 -7 -4 -7 -10 -9 -14 -5
-7 -7 -4 -7 -10 -9 -14 -5
-6 -8 -3 -6 -9 -9 -14 -6
-7 -8 -3 -7 -9 -9 -14 -6
-7 -8 -3 -7 -10 -9 -14 -6
-8 -8 -3 -8 -10 -9 -14 -6
-8 -8 -3 -8 -10 -9 -14 -6
-9 -8 -4 -9 -11 -10 -15 -7
-8 -8 -4 -9 -11 -10 -15 -7
-7 -8 -4 -8 -11 -10 -15 -7
-6 -8 -4 -8 -11 -10 -15 -7
-5 -8 -4 -8 -11 -10 -15 -7
-4 -8 -4 -7 -11 -10 -15 -6
-5 -9 -4 -8 -11 -10 -15 -6
-6 -10 -5 -8 -11 -10 -15 -6
-7 -11 -5 -9 -11 -10 -15 -6
-7 -11 -5 -9 -11 -10 -15 -6
-8 -12 -6 -10 -11 -10 -15 -5
-8 -11 -6 -10 -11 -11 -16 -6
-8 -10 -6 -10 -12 -11 -16 -6
-8 -9 -6 -10 -12 -12 -17 -7
-8 -9 -6 -10 -12 -12 -17 -7
-8 -8 -6 -11 -13 -13 -18 -8
-8 -8 -6 -11 -13 -13 -18 -8
-8 -8 -6 -11 -13 -13 -18 -8
-8 -8 -6 -11 -13 -13 -18 -8
-8 -8 -6 -11 -13 -13 -18 -8
-7 -9 -6 -11 -14 -12 -17 -7
-7 -9 -6 -11 -14 -12 -17 -7
-7 -9 -6 -11 -14 -12 -17 -7
-7 -9 -6 -11 -14 -12 -17 -7
-7 -9 -6 -11 -14 -12 -17 -7
-8 -9 -5 -11 -14 -12 -17 -7
-8 -9 -5 -11 -14 -12 -17 -7
-8 -10 -5 -11 -14 -12 -17 -6
-8 -10 -5 -11 -14 -12 -17 -6
-8 -10 -5 -11 -14 -12 -17 -6
-7 -11 -4 -10 -13 -11 -16 -5
-7 -11 -4 -10 -13 -11 -16 -5
-7 -11 -4 -10 -13 -11 -16 -6
-7 -11 -4 -10 -13 -11 -16 -6
-7 -11 -4 -10 -13 -11 -16 -6
-8 -11 -3 -10 -13 -12 -16 -7
-8 -11 -3 -10 -13 -12 -16 -7
-8 -11 -4 -10 -13 -11 -16 -7
-8 -11 -4 -10 -13 -11 -16 -7
-8 -11 -4 -10 -13 -11 -16 -7
-8 -10 -5 -10 -12 -10 -17 -6
-8 -10 -5 -10 -12 -10 -17 -6
-8 -10 -4 -10 -12 -10 -16 -6
-8 -10 -4 -10 -12 -10 -16 -6
-8 -10 -4 -10 -12 -10 -16 -6
-8 -11 -3 -10 -12 -11 -15 -7
-8 -11 -3 -10 -12 -11 -15 -7
-8 -11 -3 -10 -12 -11 -15 -7
-8 -11 -3 -10 -12 -11 -15 -7
-8 -11 -3 -10 -12 -11 -15 -7
-9 -10 -3 -10 -12 -11 -16 -6
-9 -10 -3 -10 -12 -11 -16 -6
-9 -10 -3 -10 -12 -12 -16 -7
-9 -10 -3 -10 -12 -12 -16 -7
-9 -10 -3 -10 -12 -12 -16 -7
-9 -9 -4 -10 -13 -13 -16 -8
-9 -9 -3 -10 -13 -13 -16 -8
-10 -9 -3 -9 -13 -12 -15 -7
-10 -9 -2 -9 -13 -12 -15 -7
-10 -9 -2 -9 -13 -12 -15 -7
-11 -8 0 -8 -12 -11 -14 -6
-11 -8 0 -8 -12 -11 -14 -6
-10 -7 0 -8 -12 -11 -14 -6
-10 -7 0 -8 -12 -11 -14 -6
-10 -7 0 -8 -12 -11 -14 -6
-9 -6 1 -7 -12 -10 -13 -5
-9 -6 1 -6 -12 -10 -13 -5
-9 -6 2 -5 -11 -9 -13 -5
-9 -6 2 -4 -11 -9 -13 -5
-9 -6 2 -4 -11 -9 -13 -5
-8 -4 4 -2 -9 -7 -11 -3
-7 -2 5 0 -8 -6 -10 -2
-6 1 6 1 -7 -5 -9 0
-5 3 7 3 -5 -3 -8 1
-4 5 8 4 -4 -2 -7 2
-3 6 9 5 -3 0 -6 3
-3 6 9 5 -3 -2 -6 3
-3 5 8 4 -4 -2 -7 2
-3 5 8 4 -4 -3 -7 2
-3 5 8 4 -4 -3 -7 2
-4 4 8 4 -4 -3 -7 2
-3 4 10 6 -2 0 -5 3
-2 4 12 8 1 2 -3 5
0 4 14 10 2 3 -2 7
1 4 16 12 4 5 1 8
2 7 17 13 5 6 2 9
2 11 16 12 5 6 2 10
3 15 15 11 5 6 3 11
3 18 14 10 5 6 3 12
3 22 14 10 5 6 3 12
4 23 13 9 6 7 4 13
5 23 12 9 6 7 4 13
6 22 11 9 6 7 4 13
7 22 10 9 6 7 4 13
8 22 9 9 6 7 4 13
9 21 8 8 5 8 4 12
9 20 7 7 4 8 4 12
9 19 6 6 4 7 4 11
9 18 5 5 3 7 4 11
9 17 4 5 3 7 4 11
10 15 3 4 2 6 3 10
9 12 2 2 0 5 2 9
8 10 1 1 -2 4 1 8
7 7 0 0 -3 3 0 7
7 5 0 -2 -4 2 -2 7
6 3 -2 -4 -6 0 -4 5
5 1 -3 -6 -8 -3 -5 3
4 -2 -4 -8 -10 -5 -7 1
3 -3 -5 -9 -12 -7 -9 -2
2 -5 -5 -11 -14 -9 -10 -4
0 -6 -6 -12 -15 -10 -11 -5
-3 -8 -6 -12 -16 -11 -12 -6
-5 -9 -6 -12 -16 -12 -13 -7
-6 -10 -6 -12 -17 -13 -14 -8
-8 -11 -6 -12 -17 -13 -14 -9
-9 -12 -5 -11 -18 -14 -15 -10
-8 -12 -5 -11 -18 -14 -15 -10
-8 -12 -5 -11 -18 -14 -15 -9
-7 -12 -5 -11 -18 -14 -15 -9
-7 -12 -5 -11 -18 -14 -15 -9
-6 -11 -6 -12 -17 -15 -14 -8
-7 -12 -7 -13 -18 -16 -16 -10
-8 -13 -8 -14 -19 -16 -17 -11
-9 -14 -9 -15 -20 -17 -18 -12
-9 -14 -10 -15 -21 -17 -19 -13
-10 -15 -11 -16 -22 -18 -20 -14
-10 -16 -11 -16 -22 -17 -19 -14
-10 -16 -11 -16 -22 -17 -19 -14
-10 -17 -11 -16 -22 -16 -18 -14
-10 -17 -11 -16 -22 -16 -18 -14
-10 -18 -10 -15 -21 -15 -17 -13
-10 -18 -10 -15 -21 -16 -18 -13
-11 -18 -10 -15 -21 -16 -18 -13
-11 -18 -10 -15 -21 -17 -19 -13
-11 -18 -10 -15 -21 -17 -19 -13
-12 -17 -11 -16 -22 -18 -20 -14
-12 -16 -11 -16 -22 -18 -20 -14
-12 -16 -11 -16 -21 -17 -20 -14
-12 -15 -11 -16 -21 -17 -20 -14
-12 -15 -11 -16 -21 -17 -20 -14
-11 -14 -11 -15 -20 -16 -19 -13
-11 -14 -11 -15 -20 -16 -19 -13
-11 -14 -11 -15 -19 -16 -19 -13
-11 -14 -11 -15 -19 -16 -19 -13
-11 -14 -11 -15 -19 -16 -19 -13
-11 -13 -7 -10 -15 -14 -18 -14
-11 -14 -2 -3 -10 -10 -16 -13
-11 -14 4 5 -5 -7 -14 -12
-11 -15 9 13 1 -4 -12 -11
-11 -15 14 20 5 1 -10 -10
-7 -12 18 32 19 14 2 0
0 -7 20 46 36 30 17 11
7 -2 23 59 54 47 31 21
13 4 25 72 71 63 46 32
20 9 28 86 89 79 60 44
29 19 32 105 112 101 79 59
38 30 36 125 138 126 101 76
48 40 40 145 164 149 121 93
58 52 45 165 190 174 142 110
67 63 49 186 216 197 163 128
68 67 35 161 202 187 158 127
65 69 16 122 175 165 143 120
62 71 -3 82 146 144 129 113
59 73 -22 44 118 122 113 106
56 75 -41 5 91 101 99 99
44 66 -63 -37 50 66 71 78
28 52 -85 -80 6 27 39 55
13 37 -106 -123 -39 -11 7 30
-4 23 -128 -166 -85 -50 -25 6
-19 9 -149 -210 -130 -88 -57 -19
-23 5 -151 -212 -137 -95 -63 -25
-22 3 -144 -198 -131 -90 -60 -24
-21 2 -137 -186 -123 -85 -57 -24
-20 1 -131 -173 -117 -79 -54 -23
-20 0 -123 -160 -111 -74 -51 -23
-18 -3 -112 -145 -104 -69 -49 -22
-17 -5 -100 -129 -96 -66 -47 -22
-16 -8 -87 -113 -88 -62 -46 -22
-14 -10 -74 -97 -79 -58 -44 -22
-13 -12 -62 -80 -71 -54 -41 -22
-12 -13 -53 -70 -64 -49 -38 -22
-12 -13 -46 -61 -58 -44 -35 -21
-12 -13 -38 -52 -51 -38 -31 -20
-12 -13 -31 -44 -44 -34 -28 -18
-12 -13 -24 -34 -36 -29 -24 -17
-13 -12 -21 -29 -33 -27 -23 -16
-12 -11 -19 -26 -31 -26 -22 -14
-12 -9 -17 -23 -30 -25 -21 -13
-11 -8 -15 -20 -28 -24 -20 -12
-11 -6 -13 -17 -26 -23 -19 -11
-10 -5 -11 -15 -24 -21 -18 -10
-11 -6 -10 -13 -23 -20 -17 -10
-11 -7 -9 -12 -21 -19 -16 -9
-12 -8 -7 -10 -20 -17 -15 -9
-12 -9 -6 -8 -18 -16 -14 -9
-13 -10 -5 -7 -17 -15 -13 -8
-13 -11 -5 -7 -17 -15 -13 -7
-13 -12 -5 -6 -17 -15 -12 -7
-13 -12 -5 -6 -17 -15 -12 -6
-13 -13 -5 -6 -17 -15 -12 -6
-14 -13 -6 -5 -16 -14 -11 -5
-12 -12 -5 -4 -15 -14 -11 -5
-11 -11 -4 -3 -14 -15 -12 -6
-10 -9 -4 -3 -14 -15 -12 -6
-9 -8 -3 -2 -13 -15 -12 -6
-8 -7 -2 0 -12 -16 -13 -7
-8 -7 -2 0 -12 -15 -13 -7
-8 -7 -2 0 -12 -15 -12 -6
-8 -7 -2 0 -12 -14 -12 -6
-8 -7 -2 0 -12 -14 -12 -6
-7 -7 -2 1 -13 -13 -11 -5
-7 -7 0 1 -13 -13 -11 -5
-7 -7 1 2 -12 -12 -11 -5
-7 -7 1 2 -12 -12 -11 -5
-7 -7 2 2 -12 -12 -11 -5
-7 -6 3 3 -11 -11 -10 -4
-7 -6 3 3 -11 -11 -10 -4
-7 -5 3 3 -11 -11 -11 -4
-7 -5 3 3 -11 -11 -11 -4
-7 -5 3 3 -11 -11 -11 -4
-7 -4 3 2 -10 -11 -12 -4
-7 -4 3 3 -9 -10 -11 -4
-6 -4 4 4 -8 -10 -10 -3
-6 -4 4 4 -7 -9 -10 -3
-6 -4 4 5 -6 -9 -9 -3
-5 -5 5 6 -5 -8 -8 -2
-5 -4 5 6 -5 -8 -8 -2
-5 -4 5 6 -5 -8 -8 -2
-5 -3 5 6 -5 -8 -8 -2
-5 -3 5 6 -5 -8 -8 -2
-4 -2 5 6 -5 -8 -7 0
-4 -2 5 7 -4 -8 -7 0
-4 -2 5 7 -4 -8 -7 0
-4 -2 5 8 -3 -8 -7 0
-4 -2 5 8 -3 -8 -7 0
-4 -2 6 9 -2 -7 -6 0
-3 0 6 9 -2 -7 -6 0
-2 1 6 9 -2 -7 -6 0
0 1 6 9 -2 -7 -6 0
1 2 6 9 -2 -7 -6 0
2 3 5 10 -2 -6 -6 1
2 3 6 11 0 -5 -6 1
2 2 7 12 1 -4 -5 2
2 2 7 13 1 -3 -5 2
2 2 8 14 2 -2 -5 2
2 1 9 15 3 0 -4 3
2 2 9 15 3 0 -4 3
2 3 8 15 3 0 -3 4
2 3 8 15 3 0 -3 4
2 4 8 15 3 0 -3 4
1 5 7 15 3 0 -2 5
1 5 9 17 5 2 1 6
1 5 10 18 6 3 2 7
1 5 11 20 7 5 3 8
1 5 12 21 8 6 4 9
0 5 13 22 9 7 5 10
1 6 13 23 10 7 6 11
1 6 12 24 11 8 7 12
2 7 12 24 11 8 7 12
2 7 12 25 12 8 8 13
3 9 12 27 13 10 9 14
4 11 13 28 15 11 11 16
4 13 15 30 16 13 12 17
5 15 16 31 17 14 14 19
5 17 18 33 18 16 15 20
6 18 19 34 19 17 16 21
7 18 17 34 19 17 16 21
8 19 16 33 19 17 16 21
9 19 15 33 19 17 16 21
10 19 14 33 19 17 16 21
11 20 13 32 19 17 17 21
11 22 13 33 21 19 18 23
12 23 14 34 22 20 20 24
12 24 14 34 24 21 21 26
12 25 14 35 25 22 23 27
13 26 15 36 26 23 24 28
14 26 15 36 27 25 25 30
14 26 15 36 28 26 26 31
15 26 15 36 28 27 27 32
15 26 15 36 29 28 28 33
16 25 16 36 30 29 29 34
16 27 16 36 31 29 30 34
17 28 16 37 32 30 31 35
18 30 16 37 32 31 31 35
18 31 16 37 33 31 32 35
19 32 15 38 34 32 33 36
19 32 14 38 34 32 33 37
19 31 13 37 34 32 34 38
19 31 13 36 34 32 34 38
19 31 12 36 34 32 34 39
19 30 11 35 33 33 35 40
19 30 11 35 33 33 35 40
19 31 11 35 33 33 35 40
19 31 11 35 33 33 35 40
19 31 11 35 33 33 35 40
19 32 11 34 34 33 36 42
20 34 11 33 34 33 36 42
21 35 11 32 34 33 36 42
21 37 11 32 34 33 36 42
22 38 11 31 34 33 36 42
23 39 10 30 33 32 36 42
23 39 10 30 33 32 36 42
22 38 11 30 33 32 36 40
21 37 12 30 33 32 36 40
21 37 12 30 33 32 36 40
20 35 13 31 33 32 35 39
19 34 13 31 33 31 34 38
18 32 12 31 32 30 33 37
17 31 12 31 31 30 33 37
16 29 12 31 31 29 32 36
15 28 11 30 30 28 30 34
13 27 11 30 29 26 29 33
12 25 12 30 28 25 27 31
10 24 13 30 27 23 25 30
9 23 13 30 26 22 23 28
8 21 14 29 24 21 22 27
7 20 14 28 23 20 21 26
5 18 13 26 21 18 19 24
4 16 13 25 20 17 18 23
3 14 13 24 18 16 17 22
2 13 12 23 17 15 16 21
2 12 12 23 17 14 15 20
1 11 12 23 16 12 13 19
1 11 12 23 15 11 12 18
1 10 12 23 15 10 11 17
0 9 13 22 13 9 10 16
0 7 12 20 12 7 9 15
-2 6 11 19 10 6 7 14
-3 4 10 17 9 4 6 14
-3 3 9 16 7 3 5 13
-4 2 8 15 6 2 4 12
-4 2 8 15 6 2 4 11
-5 2 8 14 5 1 3 10
-6 2 8 14 5 0 2 9
-6 2 8 14 5 0 2 8
-7 1 7 13 4 -2 1 7
-7 1 7 12 3 -2 1 7
-7 0 6 11 2 -3 0 7
-7 0 6 11 1 -3 0 7
-7 0 6 10 0 -3 0 7
-8 -2 5 9 -2 -4 -2 6
-8 -3 5 9 -2 -4 -2 6
-9 -4 5 9 -2 -4 -2 6
-10 -4 5 9 -2 -4 -2 6
-10 -5 5 9 -2 -4 -2 6
-11 -6 6 10 -2 -5 -3 6
-11 -6 6 10 -2 -5 -3 6
-11 -5 6 9 -3 -6 -4 5
-11 -5 6 9 -4 -6 -4 5
-11 -5 6 9 -4 -6 -4 5
-10 -4 5 8 -5 -7 -5 4
-10 -4 5 8 -5 -7 -5 4
-10 -4 5 8 -5 -7 -5 4
-10 -4 5 8 -5 -7 -5 4
-10 -4 5 8 -5 -7 -5 4
-11 -4 5 8 -5 -6 -6 4
-11 -4 5 8 -5 -6 -6 4
-11 -5 5 8 -5 -6 -6 4
-11 -6 5 8 -5 -6 -6 4
-11 -6 5 8 -5 -6 -6 4
-12 -7 4 8 -5 -6 -5 4
-12 -7 4 8 -5 -6 -5 4
-12 -6 4 8 -5 -5 -5 3
-12 -6 4 8 -5 -5 -5 3
-12 -6 4 8 -5 -5 -5 3
-11 -5 5 8 -4 -4 -5 2
-11 -5 5 8 -4 -4 -5 2
-10 -4 5 8 -4 -4 -4 2
-10 -4 5 8 -4 -4 -4 2
-10 -4 5 8 -4 -4 -4 2
-9 -3 4 7 -4 -5 -3 2
-10 -3 4 7 -4 -5 -3 2
-11 -3 4 7 -4 -5 -4 2
-11 -3 4 7 -4 -5 -4 2
-12 -3 4 7 -4 -5 -4 2
-13 -2 3 7 -5 -6 -5 1
-13 -2 3 7 -5 -5 -5 1
-12 -3 3 7 -5 -4 -4 2
-11 -3 3 7 -5 -4 -3 3
-11 -3 3 7 -5 -3 -3 3
-10 -4 3 8 -4 -2 -2 4
-10 -4 3 8 -4 -2 -2 4
-10 -4 4 8 -3 -2 -2 4
-10 -4 5 8 -3 -2 -2 4
-10 -4 5 8 -3 -2 -2 4
-9 -5 6 9 -2 -2 -2 3
-9 -5 6 9 -2 -2 -2 3
-9 -5 5 8 -2 -2 -2 3
-9 -5 5 8 -2 -2 -2 3
-9 -5 5 8 -2 -2 -2 3
-10 -4 4 7 -3 -2 -3 3
-10 -4 4 7 -3 -2 -3 3
-9 -4 4 7 -3 -2 -3 2
-9 -4 4 7 -3 -2 -3 2
-9 -4 4 7 -3 -2 -3 2
-8 -4 3 8 -3 -2 -3 1
-8 -3 3 8 -3 -2 -3 1
-8 -2 3 8 -3 -2 -3 2
-8 0 3 8 -3 -2 -3 2
-8 1 3 8 -3 -2 -3 2
-8 2 3 7 -3 0 -2 3
-8 1 3 7 -3 0 -2 3
-9 -2 4 7 -2 0 -2 3
-9 -3 4 7 -2 0 -2 3
-9 -4 4 7 -2 0 -2 3
-10 -5 5 8 0 0 0 4
-10 -5 5 8 0 0 0 4
-9 -5 5 7 0 0 0 4
-9 -5 5 7 0 0 0 4
-9 -5 5 7 0 0 0 4
-8 -6 4 6 -2 0 -2 3
-8 -6 4 6 -2 0 -2 3
-9 -6 4 6 -2 0 -2 2
-9 -6 4 6 -2 0 -2 2
-9 -6 4 6 -2 0 -2 2
-10 -6 4 5 -3 -2 -3 1
-10 -6 4 5 -3 -2 -3 1
-10 -7 4 4 -4 -2 -3 1
-10 -8 4 4 -4 -2 -3 1
-10 -8 4 4 -4 -2 -3 1
-11 -9 4 3 -5 -2 -3 1
-11 -9 4 3 -5 -2 -3 1
-11 -8 4 2 -6 -3 -4 1
-11 -8 4 2 -6 -4 -4 1
-11 -8 4 2 -6 -4 -4 1
-11 -7 5 1 -7 -5 -5 0
-11 -7 5 1 -7 -5 -5 0
-11 -7 4 1 -7 -5 -5 0
-11 -7 4 1 -7 -5 -5 0
-11 -7 4 1 -7 -5 -5 0
-11 -6 3 0 -8 -5 -5 0
-11 -7 4 0 -8 -5 -5 0
-12 -8 5 0 -8 -5 -5 0
-13 -9 5 0 -8 -5 -5 0
-13 -10 6 0 -8 -5 -5 0
-14 -11 7 0 -8 -5 -6 -2
-14 -11 7 0 -8 -5 -6 -2
-13 -10 7 -2 -8 -6 -6 -2
-13 -9 7 -2 -8 -6 -6 -2
-13 -9 7 -2 -8 -6 -6 -2
-12 -8 6 -3 -9 -7 -7 -3
-12 -8 6 -3 -9 -7 -7 -3
-12 -9 6 -3 -9 -7 -7 -3
-12 -10 6 -3 -9 -7 -7 -3
-12 -10 6 -3 -9 -7 -7 -3
-12 -11 6 -3 -10 -7 -7 -3
-12 -11 6 -3 -10 -7 -7 -3
-11 -11 6 -4 -10 -7 -7 -3
-11 -11 6 -4 -10 -7 -7 -3
-11 -11 6 -4 -10 -7 -7 -3
-10 -10 7 -5 -11 -8 -8 -3
-10 -10 7 -5 -11 -8 -8 -3
-11 -9 7 -5 -11 -8 -8 -3
-11 -9 7 -5 -11 -8 -8 -3
-11 -9 7 -5 -11 -8 -8 -3
-12 -8 6 -4 -11 -8 -8 -3
-12 -8 6 -4 -11 -8 -8 -3
-11 -9 6 -5 -11 -8 -8 -3
-11 -9 6 -5 -11 -8 -8 -3
-11 -9 6 -5 -11 -8 -8 -3
-10 -10 6 -6 -12 -9 -7 -2
-10 -10 6 -6 -12 -9 -7 -2
-10 -11 6 -6 -11 -9 -8 -3
-10 -11 6 -6 -11 -9 -8 -4
-10 -11 6 -6 -11 -9 -8 -4
-10 -12 7 -6 -10 -10 -9 -5
-10 -12 7 -6 -11 -10 -9 -5
-10 -11 6 -7 -12 -10 -10 -5
-10 -11 6 -8 -13 -10 -10 -5
-10 -11 6 -8 -14 -10 -10 -5
-10 -10 5 -9 -15 -10 -11 -6
-10 -10 5 -9 -15 -10 -11 -6
-11 -11 6 -9 -15 -11 -11 -6
-12 -11 6 -9 -15 -11 -11 -6
-12 -11 6 -9 -15 -11 -11 -6
-13 -12 7 -8 -14 -12 -12 -6
-12 -12 7 -8 -14 -12 -12 -6
-11 -12 7 -8 -14 -11 -12 -5
-11 -12 7 -8 -14 -11 -12 -5
-10 -12 7 -8 -14 -11 -12 -5
-9 -13 8 -7 -13 -10 -11 -4
-10 -12 8 -7 -13 -10 -11 -5
-11 -11 8 -7 -13 -11 -11 -6
-12 -11 8 -7 -13 -12 -11 -6
-13 -10 8 -7 -13 -12 -11 -7
-14 -9 7 -7 -14 -13 -12 -8
-14 -10 7 -7 -14 -13 -12 -7
-13 -12 7 -7 -13 -12 -11 -6
-12 -13 7 -7 -13 -11 -11 -6
-12 -14 7 -7 -13 -11 -11 -5
-11 -15 7 -6 -12 -10 -10 -4
-11 -14 7 -6 -12 -10 -10 -4
-11 -13 7 -6 -12 -10 -10 -4
-11 -12 7 -6 -13 -10 -10 -5
-11 -11 7 -6 -13 -10 -10 -5
-12 -10 7 -6 -14 -11 -10 -6
-11 -10 7 -6 -14 -11 -10 -6
-11 -10 7 -6 -14 -11 -10 -6
-10 -10 6 -6 -14 -11 -10 -6
-9 -10 6 -6 -14 -11 -10 -6
-8 -11 5 -6 -13 -11 -10 -5
-8 -11 5 -6 -13 -11 -10 -5
-8 -11 5 -6 -13 -11 -10 -5
-9 -12 4 -6 -13 -11 -10 -5
-9 -12 4 -6 -13 -11 -10 -5
-10 -13 3 -6 -14 -11 -11 -6
-10 -13 3 -6 -14 -11 -11 -6
-10 -13 2 -6 -14 -11 -11 -6
-10 -14 1 -6 -14 -11 -11 -6
-10 -14 1 -6 -14 -11 -11 -6
-11 -15 0 -7 -13 -11 -10 -6
-11 -15 0 -7 -13 -11 -10 -6
-11 -15 0 -7 -13 -11 -10 -6
-11 -14 0 -8 -13 -11 -11 -6
-11 -14 0 -8 -13 -11 -11 -6
-11 -13 0 -9 -14 -12 -12 -7
-11 -13 0 -9 -14 -12 -12 -7
-11 -13 0 -9 -14 -12 -12 -7
-11 -13 0 -9 -14 -12 -12 -7
-11 -13 0 -9 -14 -12 -12 -7
-11 -12 1 -8 -14 -13 -11 -6
-11 -12 1 -8 -14 -13 -11 -6
-11 -12 1 -8 -14 -13 -11 -6
-10 -12 1 -8 -14 -13 -11 -6
-10 -12 1 -8 -14 -13 -11 -6
-9 -13 0 -9 -15 -13 -12 -7
-9 -13 0 -9 -15 -13 -12 -7
-9 -13 1 -9 -14 -13 -11 -6
-9 -13 2 -8 -13 -12 -10 -5
-9 -13 2 -8 -13 -12 -10 -5
-8 -12 3 -7 -12 -11 -9 -4
-8 -10 3 -6 -11 -11 -9 -4
-8 -9 3 -5 -11 -11 -8 -3
-8 -8 4 -4 -10 -10 -7 -2
-8 -6 4 -3 -9 -10 -7 -2
-7 -5 5 -2 -8 -9 -6 0
-6 -3 6 -2 -8 -8 -6 0
-5 -2 7 0 -8 -7 -6 0
-4 0 8 1 -7 -6 -5 0
-3 2 9 1 -7 -5 -5 0
-2 3 10 2 -6 -4 -4 1
-2 3 10 2 -6 -4 -4 1
-2 2 10 3 -6 -4 -4 1
-3 1 11 4 -6 -4 -3 2
-3 1 11 4 -6 -4 -3 2
-4 0 12 5 -5 -4 -2 3
-3 2 12 5 -4 -3 -2 3
-2 4 12 5 -3 -3 0 3
0 6 12 5 -2 -2 1 4
1 8 12 5 0 0 1 4
2 9 13 6 1 1 2 5
2 9 13 6 1 1 2 5
2 10 12 6 1 1 2 5
2 11 11 6 1 1 2 5
2 11 11 6 1 1 2 5
3 12 10 7 2 2 3 6
4 12 9 7 2 2 3 6
5 12 8 7 2 3 4 7
7 12 7 7 1 4 5 8
8 12 6 7 1 4 5 8
9 12 5 7 0 5 6 9
9 11 4 6 -2 4 5 8
9 10 3 5 -2 3 4 7
9 8 1 3 -3 1 3 6
9 7 0 2 -4 0 2 5
9 6 -2 1 -5 -2 1 4
9 5 -3 0 -5 -2 1 4
9 5 -3 0 -6 -2 0 3
9 4 -4 -2 -7 -3 -2 2
9 3 -5 -3 -7 -3 -2 2
7 1 -6 -4 -8 -4 -3 1
5 -3 -6 -6 -9 -6 -5 -2
2 -5 -6 -7 -9 -8 -7 -4
0 -8 -6 -8 -10 -10 -9 -6
-4 -11 -6 -10 -11 -11 -10 -7
-6 -13 -7 -11 -12 -13 -12 -9
-7 -13 -7 -11 -13 -13 -12 -9
-7 -14 -7 -11 -14 -14 -13 -10
-8 -15 -8 -12 -16 -15 -14 -11
-9 -15 -8 -12 -17 -15 -14 -11
-10 -16 -9 -13 -18 -16 -15 -12
-10 -17 -9 -13 -18 -16 -15 -12
-10 -18 -9 -14 -18 -16 -15 -13
-10 -20 -9 -15 -19 -17 -16 -14
-10 -21 -9 -15 -19 -17 -16 -14
-10 -22 -9 -16 -20 -18 -17 -15
-10 -22 -9 -16 -20 -18 -17 -15
-10 -22 -9 -16 -20 -18 -17 -15
-10 -22 -10 -16 -20 -18 -17 -16
-10 -22 -10 -16 -20 -18 -17 -16
-11 -22 -11 -17 -21 -19 -18 -17
-11 -22 -11 -17 -21 -19 -18 -17
-11 -22 -11 -17 -21 -19 -18 -17
-11 -22 -11 -17 -21 -19 -18 -17
-11 -22 -11 -17 -21 -19 -18 -17
-10 -22 -10 -18 -20 -18 -18 -16
-10 -22 -10 -18 -20 -18 -18 -16
-10 -22 -10 -18 -20 -18 -18 -16
-10 -22 -11 -18 -21 -19 -18 -16
-10 -22 -11 -18 -21 -19 -18 -16
-11 -21 -12 -18 -22 -20 -19 -17
-11 -21 -12 -18 -22 -20 -19 -17
-11 -21 -12 -18 -22 -20 -19 -17
-12 -21 -12 -18 -22 -20 -19 -17
-12 -21 -12 -18 -22 -20 -19 -17
-13 -20 -12 -17 -21 -19 -18 -16
-13 -20 -12 -17 -21 -19 -18 -16
-13 -20 -12 -17 -21 -19 -18 -16
-13 -20 -12 -16 -21 -19 -18 -16
-13 -20 -12 -16 -21 -19 -18 -16
-12 -21 -11 -12 -18 -16 -16 -17
-13 -19 -4 -2 -10 -11 -12 -15
-13 -18 4 8 -3 -5 -8 -13
-14 -16 11 17 6 2 -4 -11
-15 -14 17 27 13 7 1 -10
-13 -12 23 40 26 18 10 -3
-4 -7 27 58 47 37 26 11
6 -3 30 76 68 57 43 24
15 2 34 95 89 76 59 37
24 7 37 113 110 96 75 51
34 14 40 127 130 114 92 64
46 27 40 135 147 132 109 78
57 40 39 143 164 148 127 93
68 53 38 150 182 165 143 106
79 66 38 158 199 182 160 120
84 73 28 145 196 182 163 126
73 70 2 97 157 151 140 112
64 67 -25 48 118 120 117 99
54 64 -51 0 79 91 94 86
44 61 -77 -49 42 60 70 72
33 55 -98 -90 6 31 48 58
23 43 -111 -117 -25 5 26 40
12 30 -124 -144 -56 -21 4 23
2 18 -137 -172 -86 -47 -18 6
-10 6 -150 -199 -116 -73 -39 -12
-17 -3 -154 -211 -133 -89 -54 -23
-14 -4 -142 -192 -124 -82 -51 -23
-12 -6 -130 -174 -116 -77 -48 -23
-9 -7 -117 -155 -107 -72 -46 -23
-7 -9 -105 -138 -99 -67 -43 -23
-5 -10 -93 -120 -90 -62 -39 -24
-6 -13 -81 -107 -81 -57 -36 -23
-7 -15 -69 -94 -73 -52 -33 -23
-8 -18 -58 -79 -64 -47 -30 -22
-9 -20 -47 -66 -56 -43 -27 -21
-10 -22 -37 -55 -49 -37 -25 -20
-10 -20 -32 -49 -44 -34 -22 -19
-10 -19 -28 -43 -39 -30 -20 -18
-10 -17 -24 -36 -34 -27 -18 -17
-10 -16 -19 -29 -29 -24 -16 -16
-11 -14 -15 -25 -26 -21 -14 -15
-11 -14 -13 -22 -24 -20 -13 -14
-11 -14 -10 -19 -22 -18 -12 -13
-12 -14 -7 -17 -20 -17 -11 -11
-12 -14 -4 -14 -19 -15 -10 -10
-13 -15 -2 -12 -17 -14 -9 -9
-13 -15 -2 -12 -17 -14 -9 -9
-12 -14 -2 -11 -17 -14 -9 -10
-11 -13 -2 -10 -17 -14 -9 -11
-11 -13 -2 -10 -17 -14 -9 -11
-10 -12 -2 -9 -16 -14 -9 -12
-10 -12 -2 -9 -16 -14 -9 -12
-10 -12 0 -9 -16 -14 -9 -12
-10 -12 1 -9 -15 -13 -9 -12
-10 -12 1 -9 -15 -13 -9 -12
-9 -11 2 -8 -14 -12 -8 -11
-9 -11 2 -7 -14 -11 -8 -11
-9 -11 2 -6 -14 -11 -8 -11
-9 -11 3 -5 -13 -10 -7 -10
-9 -11 3 -4 -13 -9 -7 -10
-9 -12 4 -3 -12 -8 -6 -9
-9 -12 4 -3 -12 -8 -6 -9
-9 -12 4 -3 -11 -8 -6 -9
-9 -11 4 -3 -10 -8 -6 -8
-9 -11 4 -3 -10 -8 -6 -8
-9 -10 4 -2 -9 -8 -5 -7
-9 -10 4 -2 -9 -8 -5 -7
-9 -10 4 -2 -9 -8 -5 -7
-9 -11 4 -2 -9 -8 -5 -8
-9 -11 4 -2 -9 -8 -5 -8
-10 -12 4 0 -8 -8 -5 -9
-10 -12 4 0 -8 -7 -4 -8
-10 -12 4 0 -7 -7 -4 -8
-10 -12 5 1 -6 -6 -3 -7
-10 -12 5 1 -6 -5 -2 -6
-9 -11 6 2 -5 -4 0 -5
-8 -10 6 2 -5 -4 0 -5
-8 -10 7 3 -4 -4 0 -5
-7 -9 8 4 -3 -3 0 -5
-6 -8 8 4 -3 -3 0 -5
-5 -7 9 5 -2 -2 1 -5
-5 -7 9 5 -2 -2 1 -5
-5 -7 9 5 -2 -2 1 -5
-5 -7 9 6 -2 -2 1 -5
-5 -7 9 6 -2 -2 1 -5
-4 -7 8 7 -3 -2 0 -5
-4 -7 8 7 -3 -2 0 -5
-4 -7 8 7 -2 -2 0 -5
-4 -7 8 8 -2 0 1 -5
-4 -7 8 8 0 0 1 -5
-4 -7 9 9 1 1 2 -5
-4 -7 9 9 1 1 2 -5
-4 -7 9 9 1 1 2 -4
-4 -7 9 9 1 1 2 -4
-4 -7 9 9 1 1 2 -3
-3 -7 10 9 2 1 3 -2
-3 -6 11 10 3 2 4 -2
-2 -5 11 11 4 3 4 -2
-2 -4 12 12 5 4 5 0
0 -2 13 13 6 6 6 0
1 0 14 14 7 7 7 1
1 0 14 14 7 7 7 1
1 0 14 15 7 7 8 1
1 0 15 15 7 8 8 2
1 0 15 16 7 8 9 2
1 1 16 17 7 9 10 3
1 2 16 17 8 9 10 3
2 2 16 18 9 10 10 3
2 3 16 18 10 10 11 4
3 4 16 19 11 11 11 4
4 5 16 20 12 12 12 5
4 5 17 21 13 13 14 6
4 5 17 22 14 15 15 8
5 5 18 23 15 16 17 9
5 5 19 24 17 18 18 11
6 6 20 25 18 19 20 12
7 7 20 25 18 20 20 12
7 9 20 25 18 20 20 12
8 10 19 25 18 21 20 12
9 12 19 25 18 22 20 12
10 13 18 25 19 23 21 12
10 13 18 26 20 24 23 13
10 13 18 26 22 25 24 15
10 13 19 27 23 26 26 16
10 13 19 28 25 28 27 18
11 13 20 29 26 29 29 19
12 15 20 29 26 29 30 20
13 17 20 29 27 30 31 21
14 19 21 29 27 30 32 22
16 21 21 29 28 31 33 24
17 23 22 30 29 32 34 25
17 24 22 30 30 33 35 26
18 24 22 30 30 35 36 26
18 25 22 30 31 36 37 27
19 26 22 30 32 38 39 28
20 27 21 30 33 39 40 29
20 28 21 30 34 39 42 30
21 29 21 30 34 39 43 30
21 30 21 30 35 40 44 31
22 31 21 30 36 40 45 32
23 32 21 29 37 42 46 33
23 32 21 29 37 42 46 33
23 32 21 28 37 42 46 33
24 32 20 28 36 42 46 33
24 32 20 27 36 42 46 33
25 31 19 26 35 43 45 33
25 32 19 26 35 43 46 34
24 33 19 26 35 43 46 34
24 34 18 26 36 44 47 35
23 35 18 26 36 44 48 36
22 36 17 27 37 45 49 37
22 36 17 27 37 45 49 37
22 36 17 27 37 45 49 37
23 36 17 26 37 45 49 37
23 36 17 26 37 45 49 37
24 37 18 25 37 46 49 37
24 37 18 25 37 46 49 37
24 36 18 25 37 46 49 37
24 36 18 25 37 46 49 36
24 35 18 25 37 46 49 36
23 34 19 26 36 46 49 35
22 33 19 25 36 45 48 34
22 32 19 25 35 44 46 32
21 31 19 24 35 43 45 31
20 30 19 23 34 40 44 30
19 29 18 22 33 39 42 28
18 29 18 22 32 37 39 26
17 29 18 22 30 35 37 25
16 28 18 21 29 34 36 23
15 28 18 21 28 32 34 22
14 27 17 20 26 30 32 20
13 23 17 19 25 29 31 19
12 19 17 18 24 28 30 19
11 16 17 17 23 27 29 18
10 12 17 16 22 26 28 17
9 9 18 15 21 25 27 16
8 8 18 13 19 23 25 14
6 8 17 12 18 21 24 13
5 7 17 10 16 20 22 11
4 6 16 9 15 18 21 10
2 5 15 7 13 16 19 8
2 5 15 7 12 16 19 8
2 5 15 7 12 15 18 8
2 5 15 6 11 15 18 7
2 5 15 6 10 14 17 7
3 6 15 5 9 13 16 6
2 5 15 4 8 12 15 5
2 4 14 3 7 11 13 4
1 3 14 2 6 10 12 3
0 1 13 0 5 9 11 1
-2 0 12 -2 4 8 9 0
-2 0 12 -2 3 8 9 0
-2 0 11 -3 2 7 9 0
-2 0 11 -4 1 6 9 0
-2 0 10 -5 0 5 9 0
-3 -2 9 -6 -2 4 8 -2
-3 -2 9 -6 -2 4 8 -2
-3 -3 9 -6 -2 4 7 -2
-3 -3 8 -7 -2 3 7 -2
-3 -4 8 -7 -2 3 6 -2
-3 -5 7 -8 -3 2 5 -2
-3 -5 7 -8 -3 2 5 -2
-3 -4 7 -8 -3 2 5 -2
-3 -4 7 -8 -3 2 6 -2
-3 -3 7 -8 -3 2 6 -2
-4 -2 7 -8 -3 3 7 -2
-4 -2 7 -8 -3 3 7 -2
-4 -3 7 -8 -3 3 7 -2
-4 -3 7 -8 -3 3 6 -2
-4 -4 7 -8 -3 3 6 -2
-4 -5 7 -8 -4 2 5 -3
-4 -5 7 -8 -4 2 5 -3
-4 -5 7 -8 -4 2 5 -3
-4 -5 7 -8 -4 2 5 -2
-4 -5 7 -8 -4 2 5 -2
-3 -5 6 -7 -3 2 6 0
-3 -5 6 -7 -3 2 6 0
-3 -5 6 -7 -3 2 6 -2
-3 -5 6 -7 -3 2 5 -2
-3 -5 6 -7 -3 2 5 -3
-4 -6 5 -6 -4 2 4 -4
-4 -6 5 -6 -4 2 4 -4
-4 -6 5 -6 -4 2 4 -4
-4 -6 5 -6 -4 2 4 -4
-4 -6 5 -6 -4 2 4 -4
-4 -5 4 -5 -5 1 4 -3
-4 -5 4 -5 -5 1 4 -3
-4 -4 4 -5 -5 1 4 -3
-3 -3 4 -5 -5 1 4 -3
-3 -2 4 -5 -5 1 4 -3
-2 0 4 -5 -4 1 4 -2
-2 0 4 -5 -4 1 4 -2
-2 -2 4 -4 -4 1 4 0
-2 -3 5 -4 -4 1 5 0
-2 -4 5 -3 -4 1 5 1
0 -5 6 -2 -3 2 6 2
0 -5 6 -2 -3 2 6 2
1 -4 6 -2 -3 2 6 2
1 -3 6 -2 -3 3 6 2
2 -2 6 -2 -3 3 6 2
3 0 5 -3 -2 4 6 2
3 0 5 -3 -2 4 6 2
3 0 5 -3 -2 3 6 2
2 -2 6 -2 -2 3 5 1
2 -2 6 -2 -2 2 5 1
1 -3 7 0 -2 1 4 0
1 -3 7 0 -2 1 4 0
1 -3 7 0 -2 1 4 0
1 -3 7 0 -2 1 4 0
1 -3 7 0 -2 1 4 0
0 -4 7 -2 -2 2 5 0
0 -4 7 -2 -2 2 5 0
0 -4 7 -3 -2 2 5 0
1 -4 7 -3 -2 2 5 0
1 -4 7 -4 -2 2 5 0
2 -4 6 -5 0 1 5 1
2 -4 6 -5 0 1 5 1
2 -4 6 -5 0 1 5 1
2 -4 6 -5 0 1 5 1
2 -4 6 -5 0 1 5 1
2 -5 5 -5 0 2 5 1
2 -5 5 -5 0 2 5 1
2 -5 5 -5 0 2 5 1
2 -4 5 -5 0 2 5 1
2 -4 5 -5 0 2 5 1
2 -3 5 -4 -2 2 4 1
2 -3 5 -4 -2 2 4 1
2 -3 5 -5 -3 1 3 1
2 -3 4 -5 -3 0 3 0
2 -3 4 -6 -4 -2 2 0
1 -3 3 -7 -5 -3 1 -2
1 -3 3 -7 -5 -3 1 -2
1 -3 3 -7 -5 -3 1 -2
0 -3 3 -6 -5 -3 1 -2
0 -3 3 -6 -5 -3 1 -2
-2 -2 2 -5 -5 -2 1 -2
-2 -2 2 -5 -5 -2 1 -2
-2 -2 2 -6 -5 -2 1 -2
-2 -2 2 -6 -5 -2 1 -2
-2 -2 2 -7 -5 -2 1 -2
-2 -3 3 -8 -6 -2 2 -2
-2 -3 3 -8 -6 -2 2 -2
-2 -3 2 -8 -7 -3 2 -2
0 -3 1 -8 -7 -3 1 -2
0 -3 0 -8 -8 -4 1 -2
1 -4 -2 -8 -9 -5 0 -3
1 -4 -2 -8 -9 -5 0 -3
1 -5 -2 -8 -9 -5 0 -3
1 -5 -2 -8 -9 -5 -2 -3
1 -6 -2 -8 -9 -5 -2 -3
0 -7 -2 -7 -9 -5 -3 -3
0 -7 -2 -7 -9 -5 -3 -3
0 -7 -2 -7 -10 -5 -3 -3
0 -7 -3 -7 -10 -6 -3 -4
0 -7 -3 -7 -11 -6 -3 -4
0 -7 -4 -8 -12 -7 -4 -5
0 -7 -4 -8 -12 -7 -4 -5
0 -7 -4 -8 -12 -7 -3 -5
0 -7 -3 -7 -11 -7 -3 -5
0 -7 -3 -7 -11 -7 -2 -5
1 -6 -2 -6 -10 -6 0 -4
1 -6 -2 -6 -10 -6 0 -4
1 -6 -3 -7 -11 -6 0 -4
1 -6 -3 -8 -11 -7 0 -5
1 -6 -4 -9 -12 -7 0 -5
0 -7 -5 -10 -13 -8 -2 -6
0 -7 -5 -10 -13 -8 -2 -6
0 -7 -4 -9 -12 -7 -2 -6
0 -7 -3 -8 -11 -7 0 -6
0 -7 -2 -7 -10 -6 0 -6
1 -7 0 -6 -9 -5 1 -5
1 -7 0 -6 -9 -5 0 -5
1 -7 0 -7 -10 -6 -2 -5
1 -8 -2 -8 -11 -7 -3 -6
1 -8 -2 -9 -12 -8 -4 -6
0 -9 -3 -10 -13 -9 -5 -7
0 -9 -3 -10 -13 -9 -5 -7
0 -9 -2 -10 -13 -9 -5 -7
0 -9 -2 -10 -13 -8 -5 -7
0 -9 0 -10 -13 -8 -5 -7
0 -10 1 -10 -12 -7 -4 -7
0 -10 1 -10 -12 -7 -4 -7
0 -10 1 -10 -12 -7 -4 -7
0 -10 1 -10 -12 -8 -4 -7
0 -10 1 -10 -12 -8 -4 -7
0 -9 0 -9 -13 -9 -5 -7
0 -9 0 -9 -13 -9 -5 -7
0 -9 0 -9 -13 -9 -5 -7
0 -9 -2 -9 -13 -9 -5 -7
0 -9 -2 -9 -13 -9 -5 -7
1 -8 -3 -9 -13 -9 -4 -8
1 -8 -3 -9 -13 -9 -4 -8
1 -8 -3 -9 -13 -9 -4 -8
0 -8 -2 -9 -13 -9 -4 -8
0 -8 -2 -9 -13 -9 -4 -8
-2 -8 0 -10 -13 -9 -5 -8
-2 -8 0 -10 -13 -9 -5 -8
-2 -9 0 -10 -13 -9 -5 -8
-2 -10 0 -10 -13 -9 -5 -8
-2 -11 0 -10 -13 -9 -5 -8
-3 -12 1 -9 -12 -9 -4 -8
-3 -11 1 -9 -12 -9 -4 -8
-3 -10 0 -9 -12 -9 -4 -8
-3 -9 0 -9 -13 -10 -5 -8
-3 -8 -2 -9 -13 -10 -5 -8
-3 -7 -3 -10 -14 -11 -6 -9
-3 -8 -3 -10 -14 -11 -6 -9
-3 -9 -3 -10 -14 -11 -6 -9
-3 -10 -3 -10 -14 -11 -6 -9
-3 -11 -3 -10 -14 -11 -6 -9
-4 -12 -3 -10 -14 -10 -5 -8
-4 -12 -3 -10 -14 -10 -5 -8
-3 -11 -3 -10 -14 -10 -5 -8
-3 -11 -3 -10 -14 -11 -5 -8
-2 -10 -3 -10 -14 -11 -5 -8
0 -9 -3 -10 -15 -12 -6 -9
0 -9 -3 -10 -15 -12 -6 -9
0 -10 -3 -10 -15 -12 -6 -9
-2 -11 -3 -10 -15 -12 -6 -9
-2 -12 -3 -10 -15 -12 -6 -9
-3 -13 -4 -11 -15 -12 -7 -9
-3 -12 -4 -11 -15 -12 -7 -9
-3 -11 -4 -12 -15 -12 -7 -9
-2 -10 -4 -12 -16 -13 -8 -10
-2 -9 -4 -13 -16 -13 -8 -10
0 -8 -4 -14 -17 -14 -9 -11
0 -8 -4 -14 -17 -14 -9 -11
0 -8 -4 -13 -16 -13 -8 -10
0 -9 -4 -12 -16 -12 -8 -10
0 -9 -4 -11 -15 -11 -7 -9
0 -10 -4 -10 -14 -10 -6 -8
0 -9 -4 -10 -14 -10 -6 -8
0 -8 -4 -10 -14 -10 -6 -8
0 -7 -4 -9 -14 -10 -6 -8
0 -6 -4 -9 -14 -10 -6 -8
1 -5 -3 -8 -13 -9 -6 -7
1 -5 -2 -8 -12 -9 -6 -7
1 -4 0 -7 -11 -8 -6 -7
1 -3 1 -6 -10 -8 -5 -6
1 -2 2 -5 -9 -7 -5 -6
1 0 3 -4 -8 -6 -4 -5
2 0 3 -4 -8 -6 -4 -5
3 1 3 -4 -8 -6 -4 -5
4 2 3 -3 -8 -6 -4 -5
5 3 3 -3 -8 -6 -4 -5
7 4 3 -2 -9 -6 -4 -5
6 4 3 -2 -9 -6 -4 -5
5 4 3 -2 -9 -6 -4 -5
4 3 3 -2 -9 -5 -4 -4
3 3 3 -2 -9 -5 -4 -4
2 2 4 0 -8 -4 -3 -3
4 5 4 0 -8 -3 -2 -2
6 8 4 1 -7 -2 0 0
8 11 5 2 -6 0 1 1
10 14 5 3 -5 1 2 2
12 17 6 4 -4 2 4 3
12 17 6 4 -4 2 4 3
12 18 6 4 -3 2 4 4
12 19 6 4 -2 3 5 4
12 20 6 4 0 3 5 5
13 21 6 4 1 4 6 6
13 21 5 4 1 4 6 6
13 20 4 3 1 4 6 6
14 19 3 2 0 4 6 5
14 18 2 1 0 4 6 5
15 17 0 0 -2 3 5 4
15 15 0 0 -2 3 4 4
14 13 -2 -2 -3 2 3 4
14 11 -3 -3 -4 1 2 3
13 9 -4 -4 -5 0 1 3
12 7 -5 -5 -6 -2 0 2
11 7 -5 -6 -6 -2 0 2
10 6 -5 -7 -7 -3 0 1
9 6 -5 -8 -8 -3 -2 0
8 5 -5 -9 -9 -4 -2 -2
6 4 -6 -11 -10 -5 -3 -3
5 3 -6 -11 -10 -5 -3 -3
3 2 -6 -11 -11 -6 -4 -4
1 0 -6 -11 -11 -6 -5 -5
-2 -2 -6 -11 -12 -7 -6 -6
-4 -4 -6 -12 -13 -8 -7 -7
-4 -6 -6 -12 -14 -9 -8 -8
-4 -8 -6 -12 -15 -10 -9 -9
-5 -10 -6 -13 -16 -12 -10 -10
-5 -12 -6 -13 -17 -13 -11 -11
-6 -15 -6 -14 -19 -15 -13 -13
-6 -15 -6 -14 -19 -15 -13 -13
-7 -15 -7 -14 -19 -16 -14 -13
-7 -16 -7 -15 -20 -16 -14 -13
-8 -16 -8 -15 -20 -17 -15 -13
-9 -17 -9 -16 -21 -18 -16 -13
-9 -17 -9 -16 -21 -18 -16 -13
-9 -17 -9 -16 -21 -18 -16 -14
-9 -17 -9 -17 -21 -19 -16 -14
-9 -17 -9 -17 -21 -19 -16 -15
-8 -18 -8 -18 -21 -20 -17 -16
-8 -18 -8 -18 -21 -20 -17 -16
-8 -19 -8 -18 -21 -20 -17 -16
-8 -19 -8 -17 -21 -20 -17 -17
-8 -20 -8 -17 -21 -20 -17 -17
-8 -21 -8 -16 -22 -19 -18 -18
-8 -21 -8 -16 -22 -19 -18 -18
-8 -20 -8 -15 -22 -19 -17 -17
-8 -20 -8 -15 -22 -18 -17 -17
-8 -19 -8 -14 -22 -18 -16 -16
-9 -18 -7 -13 -21 -17 -15 -15
-9 -18 -7 -13 -21 -17 -15 -15
-10 -19 -7 -13 -21 -17 -15 -15
-11 -19 -7 -13 -20 -17 -16 -15
-12 -20 -7 -13 -20 -17 -16 -15
-13 -21 -7 -13 -19 -18 -17 -15
-13 -21 -7 -13 -19 -18 -17 -15
-13 -21 -7 -13 -19 -18 -17 -16
-12 -21 -7 -13 -20 -18 -17 -17
-12 -21 -7 -13 -20 -18 -17 -18
-11 -21 -7 -12 -21 -18 -18 -19
-11 -19 -2 -4 -14 -13 -15 -17
-10 -17 4 5 -7 -8 -11 -14
-9 -15 9 13 1 -2 -7 -12
-8 -13 14 22 9 4 -3 -9
-7 -10 19 30 16 10 2 -6
2 -7 24 48 37 30 19 8
9 -4 29 65 59 50 36 21
17 1 34 84 80 70 54 35
25 4 39 101 101 91 71 49
33 8 46 118 122 110 89 62
44 20 45 127 140 126 104 75
54 32 44 136 156 142 118 89
64 45 43 144 174 157 134 102
74 58 42 152 190 174 148 116
85 70 40 160 206 189 163 130
72 68 18 112 168 156 139 114
60 66 -6 64 128 123 114 99
48 64 -28 16 88 91 91 84
34 62 -52 -32 48 59 66 68
22 59 -74 -80 9 26 42 53
13 48 -90 -109 -22 2 20 36
4 36 -105 -137 -54 -23 -2 19
-6 25 -120 -165 -85 -49 -22 2
-15 14 -137 -193 -115 -73 -44 -15
-25 3 -152 -222 -146 -98 -65 -32
-22 2 -141 -203 -136 -92 -61 -31
-18 0 -130 -185 -126 -85 -57 -30
-15 -2 -118 -166 -115 -78 -53 -29
-11 -4 -107 -147 -105 -71 -49 -28
-7 -6 -95 -129 -95 -64 -44 -26
-8 -8 -85 -115 -89 -60 -41 -26
-9 -11 -73 -102 -82 -56 -39 -26
-10 -13 -63 -89 -76 -52 -36 -25
-11 -16 -52 -75 -70 -48 -34 -25
-12 -19 -40 -62 -63 -43 -31 -24
-12 -18 -35 -56 -58 -39 -29 -23
-12 -17 -30 -49 -53 -36 -27 -22
-12 -16 -25 -43 -48 -33 -25 -20
-12 -15 -20 -35 -43 -30 -23 -19
-12 -14 -15 -28 -36 -26 -20 -17
-12 -14 -14 -26 -35 -25 -20 -17
-12 -14 -13 -24 -33 -24 -19 -16
-12 -14 -12 -22 -32 -22 -19 -16
-12 -14 -11 -20 -30 -21 -18 -15
-12 -13 -10 -17 -28 -19 -17 -14
-12 -13 -9 -16 -27 -19 -17 -14
-12 -13 -7 -15 -26 -19 -16 -14
-11 -13 -6 -15 -26 -18 -16 -14
-11 -13 -4 -14 -25 -18 -15 -14
-11 -13 -3 -13 -24 -18 -15 -14
-10 -13 -2 -12 -23 -17 -14 -13
-10 -13 -2 -11 -23 -17 -14 -13
-10 -13 -2 -11 -23 -17 -14 -13
-10 -13 -2 -10 -23 -17 -14 -13
-10 -13 -2 -10 -23 -17 -14 -13
-10 -12 0 -9 -23 -17 -14 -12
-10 -13 1 -8 -22 -17 -14 -12
-10 -13 1 -7 -21 -16 -14 -12
-10 -14 2 -6 -20 -16 -14 -12
-10 -14 2 -5 -20 -16 -14 -12
-10 -15 3 -4 -19 -15 -14 -12
-10 -15 3 -4 -18 -15 -14 -12
-10 -14 3 -4 -17 -15 -14 -12
-10 -14 3 -4 -16 -15 -14 -12
-10 -14 3 -4 -16 -15 -14 -12
-10 -13 4 -4 -15 -14 -14 -12
-10 -13 4 -4 -14 -14 -14 -12
-10 -13 4 -3 -14 -13 -13 -12
-10 -13 4 -3 -13 -13 -13 -12
-10 -13 4 -3 -13 -13 -13 -12
-10 -14 5 -2 -12 -12 -12 -11
-10 -14 5 -2 -12 -12 -12 -11
-10 -13 5 -2 -13 -13 -13 -11
-10 -13 5 -2 -13 -13 -13 -11
-10 -13 5 -2 -13 -13 -13 -11
-9 -12 4 -3 -14 -14 -14 -11
-9 -12 4 -3 -13 -13 -13 -11
-9 -12 5 -2 -12 -12 -13 -10
-9 -12 5 -2 -11 -11 -12 -10
-9 -12 5 -2 -11 -11 -12 -10
-8 -11 6 0 -10 -10 -11 -9
-7 -10 6 0 -10 -10 -11 -9
-6 -8 7 1 -10 -10 -11 -9
-5 -7 7 1 -10 -10 -11 -9
-4 -6 7 1 -10 -10 -11 -9
-3 -5 8 2 -9 -9 -11 -9
-3 -6 8 2 -9 -9 -10 -9
-3 -7 8 3 -8 -8 -10 -9
-3 -8 8 3 -8 -8 -9 -9
-3 -8 8 3 -8 -8 -9 -9
-4 -9 8 4 -7 -7 -8 -8
-4 -9 8 4 -7 -7 -8 -7
-3 -9 9 4 -6 -7 -8 -7
-3 -9 9 4 -6 -7 -8 -6
-3 -9 9 4 -6 -7 -8 -6
-2 -8 10 5 -5 -7 -7 -5
-2 -7 10 6 -5 -7 -7 -5
0 -6 10 6 -4 -6 -7 -5
0 -5 10 7 -4 -6 -7 -5
0 -5 10 7 -4 -6 -7 -5
1 -4 10 8 -3 -5 -6 -4
1 -4 10 8 -2 -4 -5 -4
1 -4 10 8 -2 -3 -5 -3
1 -4 10 8 0 -2 -4 -3
1 -4 10 8 0 -2 -4 -3
1 -3 10 8 1 0 -3 -2
1 -3 10 9 2 1 -2 0
1 -2 10 11 2 1 -2 0
1 -2 10 12 3 2 0 1
1 -2 10 13 3 2 0 1
2 1 11 14 4 3 1 2
2 2 11 14 4 3 1 3
2 4 11 14 4 4 2 4
2 5 11 14 4 4 2 5
2 6 11 14 4 4 2 5
4 7 10 15 6 6 4 7
5 7 10 16 8 7 5 8
7 7 10 17 9 8 7 9
8 7 10 18 11 9 8 10
9 7 10 19 12 10 9 11
10 7 11 20 14 12 11 13
11 9 11 20 15 13 12 14
11 11 11 21 16 15 14 16
12 13 11 21 17 16 15 17
12 15 11 21 18 17 16 18
13 16 10 22 19 18 17 19
13 16 10 22 20 18 17 19
13 16 9 22 21 18 17 19
13 16 9 22 22 18 17 19
13 16 9 22 22 18 17 19
14 17 8 21 24 19 18 20
15 18 8 21 26 20 19 21
15 19 8 21 27 20 20 23
16 20 8 21 29 21 21 24
16 20 8 21 30 21 22 25
17 21 7 22 31 22 23 26
18 22 7 22 31 23 23 26
18 23 7 22 32 23 24 27
19 24 7 22 32 24 24 27
19 24 7 22 32 24 24 27
20 25 7 22 33 25 25 28
21 26 6 22 33 26 26 29
21 27 5 22 34 26 26 30
22 28 4 22 34 27 27 31
22 28 4 22 34 27 27 31
23 29 3 22 35 28 28 32
23 29 3 21 35 28 28 32
22 29 3 21 34 27 28 32
22 29 3 20 34 27 28 32
22 29 3 20 34 27 28 32
21 28 3 19 33 26 29 31
21 28 3 19 33 26 29 31
21 28 3 19 33 26 29 31
21 28 3 19 33 26 29 31
21 28 3 19 33 26 29 31
21 29 2 18 32 26 28 32
20 29 3 19 32 26 28 32
20 28 4 19 32 26 28 32
19 28 5 20 32 26 28 32
19 28 5 20 32 26 28 32
18 27 6 21 33 27 28 32
17 27 6 21 33 26 27 31
16 26 6 21 33 26 26 30
15 26 6 21 33 25 25 29
14 26 6 21 33 25 24 29
13 25 7 20 32 23 22 27
12 24 7 20 31 21 20 25
11 23 7 19 30 19 18 23
10 22 7 19 29 17 16 21
9 21 7 19 28 16 15 20
8 20 7 18 26 14 13 18
7 19 7 17 24 13 11 17
7 18 7 16 23 12 10 15
6 17 7 15 21 11 8 14
6 16 7 15 20 10 7 13
4 13 6 14 18 8 5 11
3 10 6 13 16 6 4 10
1 7 6 12 15 4 2 8
0 5 6 11 13 2 1 7
-2 2 6 10 12 1 0 6
-3 1 5 9 11 0 -2 5
-3 1 4 8 10 -2 -3 4
-4 1 4 7 9 -2 -3 4
-4 1 3 6 8 -3 -4 3
-4 1 3 6 8 -3 -4 3
-5 0 2 5 7 -4 -5 2
-6 0 2 4 6 -5 -6 1
-6 -2 2 4 5 -5 -6 0
-7 -2 2 3 4 -6 -7 -2
-7 -2 2 3 3 -6 -7 -2
-8 -3 3 2 2 -7 -8 -3
-8 -3 3 2 2 -7 -8 -3
-7 -3 3 2 2 -8 -9 -3
-7 -3 3 2 2 -8 -9 -3
-7 -3 3 2 2 -8 -9 -3
-6 -4 3 2 2 -9 -10 -3
-7 -5 3 1 1 -9 -10 -3
-7 -6 3 0 1 -10 -11 -3
-8 -7 3 -2 0 -10 -11 -3
-8 -7 3 -2 0 -10 -11 -3
-9 -8 3 -3 -2 -11 -12 -3
-9 -8 3 -3 -2 -11 -12 -3
-9 -7 2 -4 -3 -12 -12 -4
-9 -7 2 -4 -3 -12 -12 -4
-9 -7 2 -4 -3 -12 -12 -4
-10 -6 1 -5 -4 -13 -13 -5
-10 -6 1 -5 -4 -13 -13 -5
-10 -7 2 -5 -4 -13 -13 -5
-10 -7 2 -5 -4 -13 -13 -5
-10 -7 2 -5 -4 -13 -13 -5
-11 -8 3 -4 -3 -12 -13 -6
-11 -8 3 -4 -3 -12 -13 -6
-11 -9 2 -4 -3 -12 -13 -6
-11 -9 2 -4 -3 -12 -13 -6
-11 -9 2 -4 -3 -12 -13 -6
-12 -10 1 -4 -3 -12 -14 -5
-12 -10 1 -3 -3 -12 -14 -5
-12 -9 1 -3 -3 -12 -14 -5
-12 -9 1 -2 -3 -12 -14 -5
-12 -9 1 -2 -3 -12 -14 -5
-11 -8 2 0 -4 -12 -13 -5
-11 -8 2 -2 -4 -12 -13 -6
-11 -7 2 -3 -4 -12 -13 -6
-11 -7 2 -4 -4 -12 -13 -7
-11 -7 2 -4 -4 -12 -13 -7
-11 -6 1 -5 -5 -13 -14 -8
-11 -6 1 -4 -4 -12 -13 -7
-11 -7 1 -3 -4 -11 -12 -6
-11 -7 1 -2 -3 -10 -11 -5
-11 -7 1 -2 -3 -10 -11 -5
-10 -8 2 0 -2 -9 -10 -4
-10 -8 2 0 -2 -10 -11 -4
-11 -7 2 0 -2 -10 -11 -4
-11 -7 2 0 -2 -11 -12 -4
-11 -7 2 0 -2 -11 -12 -4
-12 -6 1 -2 -3 -12 -13 -5
-12 -6 1 -2 -3 -12 -13 -5
-11 -6 1 -2 -3 -11 -12 -5
-11 -6 1 -2 -3 -11 -12 -5
-11 -6 1 -2 -3 -11 -12 -5
-10 -6 2 -2 -2 -10 -11 -5
-10 -6 2 0 -2 -10 -11 -4
-9 -6 2 0 0 -10 -11 -4
-9 -6 2 1 0 -10 -11 -3
-9 -6 2 1 0 -10 -11 -3
-8 -5 2 2 1 -10 -10 -2
-8 -5 2 2 1 -10 -10 -2
-8 -5 3 2 1 -9 -10 -2
-8 -5 3 2 1 -9 -10 -2
-8 -5 3 2 1 -9 -10 -2
-7 -5 4 2 1 -8 -9 0
-7 -5 4 2 1 -8 -9 0
-8 -5 4 1 1 -8 -9 0
-8 -5 4 1 1 -8 -9 0
-8 -5 4 1 1 -8 -9 0
-9 -6 3 0 1 -9 -8 -2
-9 -6 3 0 1 -9 -8 -2
-10 -6 3 0 1 -9 -8 -2
-10 -6 3 0 1 -9 -8 -2
-10 -6 3 0 1 -9 -8 -2
-11 -6 4 1 0 -9 -9 -3
-11 -6 4 1 0 -9 -10 -3
-10 -6 3 1 -2 -9 -10 -3
-10 -6 3 1 -2 -9 -11 -3
-10 -6 3 1 -2 -9 -11 -3
-9 -7 2 0 -3 -9 -12 -4
-9 -7 2 0 -3 -9 -12 -4
-9 -7 2 0 -3 -9 -12 -4
-9 -7 2 0 -3 -9 -12 -4
-9 -7 2 0 -3 -9 -12 -4
-10 -6 3 0 -4 -9 -11 -3
-10 -6 3 0 -4 -9 -11 -3
-9 -6 3 0 -4 -9 -11 -3
-9 -6 3 0 -4 -9 -11 -3
-9 -6 3 0 -4 -9 -11 -3
-8 -6 2 -2 -4 -8 -11 -3
-9 -6 2 -3 -5 -8 -11 -4
-9 -7 1 -3 -5 -9 -12 -4
-10 -7 1 -4 -6 -9 -12 -5
-10 -7 1 -4 -6 -9 -12 -5
-11 -8 0 -5 -7 -10 -13 -6
-11 -8 0 -5 -7 -10 -13 -6
-11 -8 0 -5 -7 -10 -13 -6
-11 -8 0 -5 -7 -10 -13 -6
-11 -8 0 -5 -7 -10 -13 -6
-10 -9 0 -6 -7 -10 -14 -6
-10 -9 0 -6 -7 -10 -14 -6
-10 -9 0 -6 -8 -10 -14 -6
-10 -9 0 -6 -8 -10 -14 -6
-10 -9 0 -6 -8 -10 -14 -6
-10 -9 0 -6 -9 -10 -14 -7
-10 -9 0 -7 -9 -11 -14 -7
-10 -9 0 -7 -9 -11 -14 -7
-10 -9 0 -8 -9 -12 -14 -7
-10 -9 0 -8 -9 -12 -14 -7
-10 -10 0 -9 -10 -13 -15 -8
-10 -10 0 -9 -10 -13 -15 -8
-10 -9 0 -9 -10 -13 -15 -8
-10 -9 0 -9 -10 -13 -15 -8
-10 -9 0 -9 -10 -13 -15 -8
-10 -8 0 -9 -10 -14 -16 -8
-10 -8 0 -9 -10 -14 -16 -8
-10 -8 0 -9 -10 -14 -15 -8
-10 -8 0 -9 -10 -14 -15 -8
-10 -8 0 -9 -10 -14 -15 -8
-9 -9 1 -9 -10 -13 -14 -7
-10 -10 1 -9 -10 -13 -14 -7
-11 -10 1 -8 -10 -12 -14 -7
-12 -11 1 -8 -10 -12 -14 -7
-12 -11 1 -8 -10 -12 -14 -7
-13 -12 2 -7 -10 -11 -13 -7
-12 -12 2 -7 -10 -11 -13 -7
-11 -11 2 -7 -10 -11 -13 -7
-10 -11 2 -7 -10 -11 -13 -7
-10 -11 2 -7 -10 -11 -13 -7
-9 -10 1 -7 -9 -11 -12 -6
-9 -10 1 -7 -9 -11 -12 -6
-9 -9 1 -8 -9 -11 -12 -6
-9 -9 1 -8 -9 -11 -12 -6
-9 -9 1 -8 -9 -11 -12 -6
-8 -8 0 -9 -10 -12 -13 -7
-9 -9 0 -9 -10 -12 -13 -7
-9 -9 0 -9 -10 -12 -13 -7
-10 -10 0 -9 -10 -12 -13 -7
-10 -10 0 -9 -10 -12 -13 -7
-11 -11 -2 -8 -9 -13 -13 -7
-11 -11 -2 -8 -9 -13 -13 -7
-10 -11 -2 -8 -9 -13 -13 -7
-10 -11 -2 -8 -9 -13 -13 -7
-10 -11 -2 -8 -9 -13 -13 -7
-9 -11 0 -8 -10 -12 -12 -7
-9 -10 0 -8 -10 -12 -12 -7
-9 -9 0 -8 -11 -12 -12 -7
-9 -8 0 -8 -11 -12 -12 -7
-9 -7 0 -8 -11 -12 -12 -7
-9 -6 -2 -8 -12 -12 -12 -8
-9 -6 -2 -8 -12 -12 -12 -8
-9 -7 -2 -8 -12 -12 -12 -8
-9 -7 -2 -8 -12 -12 -12 -8
-9 -7 -2 -8 -12 -12 -12 -8
-10 -8 -2 -8 -11 -13 -13 -8
-10 -8 -2 -8 -11 -13 -13 -7
-9 -9 -2 -8 -11 -12 -12 -7
-9 -9 -2 -8 -11 -12 -12 -6
-9 -9 -2 -8 -11 -12 -12 -6
-8 -10 0 -8 -10 -11 -11 -5
-8 -10 0 -8 -10 -11 -11 -5
-8 -10 0 -8 -10 -11 -11 -6
-8 -10 0 -8 -10 -11 -11 -6
-8 -10 0 -8 -10 -11 -11 -6
-9 -9 0 -8 -10 -11 -12 -7
-10 -9 0 -8 -10 -11 -12 -7
-10 -10 -2 -8 -11 -12 -12 -7
-11 -10 -2 -8 -11 -12 -12 -7
-11 -10 -2 -8 -11 -12 -12 -7
-12 -11 -3 -9 -12 -13 -13 -8
-11 -10 -3 -9 -12 -13 -13 -8
-10 -9 -2 -9 -12 -13 -13 -8
-9 -8 -2 -9 -12 -13 -13 -8
-8 -8 -2 -9 -12 -13 -13 -8
-7 -7 0 -8 -11 -12 -12 -8
-7 -7 0 -8 -11 -12 -12 -8
-7 -7 0 -8 -10 -12 -12 -8
-7 -7 0 -8 -10 -12 -12 -8
-7 -7 0 -8 -10 -12 -12 -8
-8 -6 1 -8 -9 -11 -11 -7
-8 -6 2 -7 -9 -10 -11 -7
-8 -5 2 -6 -8 -10 -10 -6
-8 -5 3 -6 -8 -9 -10 -6
-8 -5 3 -5 -8 -9 -10 -6
-7 -3 4 -4 -7 -8 -9 -5
-7 -2 5 -3 -7 -7 -8 -4
-7 0 5 -2 -6 -6 -8 -4
-7 2 6 -2 -6 -6 -7 -3
-7 3 6 0 -6 -5 -7 -3
-7 4 7 1 -5 -4 -6 -2
-6 5 8 2 -5 -4 -6 -2
-6 5 8 2 -4 -4 -6 0
-5 6 9 3 -4 -4 -6 0
-5 6 9 3 -4 -4 -6 0
-4 7 10 4 -2 -3 -5 1
-3 8 11 5 0 0 -3 3
-3 8 11 6 1 1 -2 4
-2 9 12 7 3 2 0 5
-2 9 12 8 4 3 1 6
1 11 13 9 5 4 2 7
2 13 13 8 5 5 3 8
4 14 12 8 6 5 4 9
5 16 12 7 6 6 5 9
7 18 12 7 6 6 6 10
8 19 10 6 7 7 7 11
8 19 9 6 7 7 7 11
9 19 8 5 7 7 7 11
9 19 6 5 7 7 7 11
9 19 5 5 7 7 7 11
10 18 4 4 6 6 6 11
10 17 3 2 4 5 5 10
10 15 2 1 2 4 4 9
10 14 2 0 0 3 3 8
10 12 1 -2 -3 2 2 7
10 11 0 -3 -4 1 1 6
10 11 0 -4 -4 0 1 6
10 11 0 -5 -4 0 0 5
10 11 0 -5 -4 -2 0 5
10 11 0 -6 -4 -2 0 5
10 8 0 -7 -3 -3 -3 4
7 5 -2 -8 -5 -4 -4 2
5 1 -3 -9 -6 -5 -6 1
3 -3 -4 -9 -7 -6 -7 0
0 -7 -5 -10 -8 -7 -9 -2
-2 -8 -6 -11 -9 -8 -10 -3
-4 -9 -6 -12 -10 -9 -11 -5
-5 -9 -6 -12 -11 -10 -11 -6
-7 -10 -6 -13 -12 -10 -12 -8
-8 -10 -6 -13 -13 -11 -12 -9
-9 -11 -5 -14 -14 -12 -13 -10
-8 -11 -6 -14 -14 -13 -13 -10
-7 -11 -6 -15 -15 -13 -14 -10
-6 -11 -7 -15 -15 -14 -14 -10
-5 -11 -7 -15 -15 -14 -14 -10
-4 -12 -8 -16 -16 -15 -15 -11
-5 -13 -8 -16 -16 -15 -16 -11
-5 -14 -9 -17 -17 -16 -17 -12
-6 -15 -9 -17 -17 -16 -17 -12
-6 -16 -9 -17 -17 -16 -18 -12
-7 -17 -10 -18 -18 -17 -19 -13
-7 -15 -10 -18 -18 -17 -19 -13
-7 -14 -10 -18 -18 -17 -19 -13
-7 -12 -10 -18 -18 -17 -19 -13
-7 -11 -10 -18 -18 -17 -19 -13
-8 -11 -9 -19 -19 -17 -18 -14
-8 -13 -8 -18 -18 -17 -18 -14
-8 -15 -7 -17 -18 -16 -18 -13
-8 -17 -7 -17 -17 -16 -18 -13
-8 -19 -6 -16 -17 -16 -18 -13
-8 -20 -5 -15 -16 -15 -17 -12
-8 -20 -5 -15 -16 -15 -17 -12
-8 -19 -5 -15 -16 -15 -17 -12
-8 -19 -5 -15 -16 -15 -17 -12
-8 -19 -5 -15 -16 -15 -17 -12
-8 -18 -5 -16 -16 -14 -17 -12
-8 -18 -4 -14 -15 -14 -17 -12
-8 -18 -3 -13 -14 -14 -17 -13
-8 -18 -3 -11 -13 -14 -17 -13
-8 -18 -2 -10 -12 -14 -17 -13
-8 -17 3 -4 -7 -11 -15 -13
-8 -15 8 5 0 -5 -11 -12
-8 -13 13 13 7 1 -7 -10
-8 -11 18 21 13 6 -4 -9
-8 -9 23 29 19 12 1 -7
-3 -4 27 45 36 27 14 4
7 3 31 64 59 48 31 17
16 10 35 82 80 68 49 30
25 16 39 102 103 89 66 45
34 22 44 120 125 109 84 58
44 32 46 132 144 128 101 72
54 44 45 140 161 144 117 86
64 55 44 147 179 160 134 100
74 66 44 154 197 178 151 113
85 77 43 161 215 194 168 128
82 79 25 132 195 180 158 125
73 75 -2 82 155 148 135 110
63 72 -27 33 116 117 111 97
54 68 -54 -16 76 86 87 84
45 65 -79 -64 36 55 63 70
33 56 -98 -101 2 26 39 54
23 45 -113 -132 -31 -2 16 35
12 33 -128 -161 -64 -29 -8 17
2 21 -143 -192 -97 -57 -31 -2
-10 10 -158 -222 -130 -85 -55 -20
-13 5 -155 -220 -135 -91 -61 -27
-10 2 -143 -200 -124 -85 -58 -27
-8 -2 -130 -180 -114 -78 -54 -26
-5 -5 -116 -159 -105 -72 -50 -26
-2 -8 -104 -139 -95 -66 -47 -26
0 -9 -92 -123 -86 -60 -44 -25
-2 -10 -81 -109 -77 -55 -40 -25
-3 -11 -70 -96 -69 -50 -38 -24
-4 -11 -59 -82 -61 -45 -35 -23
-5 -12 -48 -68 -52 -39 -32 -23
-6 -13 -40 -59 -46 -35 -30 -22
-6 -13 -35 -53 -41 -32 -28 -21
-6 -12 -29 -47 -36 -29 -25 -19
-6 -11 -24 -39 -31 -26 -23 -18
-6 -11 -18 -33 -26 -23 -20 -17
-7 -10 -15 -29 -23 -21 -19 -16
-7 -10 -14 -27 -21 -20 -18 -16
-7 -10 -12 -25 -19 -18 -17 -15
-7 -10 -10 -22 -17 -17 -17 -15
-7 -10 -8 -20 -15 -16 -16 -15
-7 -10 -7 -19 -14 -15 -15 -14
-7 -10 -6 -18 -13 -15 -15 -14
-7 -10 -5 -16 -12 -14 -14 -13
-7 -10 -5 -15 -12 -13 -14 -13
-7 -10 -4 -14 -11 -13 -14 -13
-7 -11 -3 -13 -10 -12 -13 -12
-7 -11 -3 -13 -10 -12 -13 -12
-7 -11 -2 -13 -10 -11 -13 -12
-7 -11 0 -13 -10 -11 -13 -12
-7 -11 0 -13 -10 -11 -13 -12
-6 -10 1 -13 -11 -10 -13 -12
-6 -10 1 -12 -11 -10 -13 -12
-5 -10 1 -11 -10 -10 -13 -12
-5 -10 1 -11 -9 -10 -13 -12
-5 -10 1 -10 -9 -10 -13 -12
-4 -9 2 -9 -8 -9 -12 -11
-4 -9 2 -9 -8 -9 -12 -11
-4 -10 2 -9 -8 -9 -12 -11
-4 -10 2 -9 -8 -9 -12 -11
-4 -10 2 -9 -8 -9 -12 -11
-5 -11 2 -8 -7 -10 -13 -12
-4 -11 3 -7 -6 -9 -12 -11
-3 -10 4 -6 -5 -8 -11 -10
-3 -9 5 -5 -4 -8 -10 -10
-2 -9 6 -4 -3 -7 -9 -9
0 -8 7 -3 -2 -6 -8 -8
0 -8 7 -3 -2 -6 -8 -8
0 -7 7 -3 -2 -6 -8 -8
0 -6 7 -3 -2 -6 -8 -8
0 -6 7 -3 -2 -6 -8 -8
0 -5 6 -2 -2 -6 -8 -8
0 -5 6 0 -2 -6 -8 -8
1 -4 6 1 0 -5 -8 -8
1 -4 6 1 0 -4 -8 -8
1 -4 6 2 0 -4 -8 -8
2 -3 7 3 1 -3 -8 -8
2 -3 7 3 1 -3 -8 -8
2 -4 7 3 2 -2 -7 -7
2 -5 7 3 2 -2 -7 -6
2 -5 7 3 2 -2 -7 -6
2 -6 7 2 3 0 -6 -5
2 -6 7 2 3 1 -6 -5
2 -6 7 3 3 2 -6 -5
2 -6 7 3 3 2 -6 -5
2 -6 7 3 3 3 -6 -5
3 -5 8 4 4 4 -6 -6
4 -4 8 4 4 4 -6 -6
6 -3 8 4 5 4 -5 -6
7 -3 8 4 5 4 -5 -6
8 -2 8 4 5 4 -5 -6
9 0 9 4 6 5 -4 -5
8 0 9 5 7 6 -4 -5
7 -2 10 6 8 7 -4 -5
6 -2 10 6 8 7 -4 -5
5 -2 10 7 9 8 -4 -5
4 -3 11 8 10 9 -3 -5
4 -3 11 8 10 9 -3 -4
5 -2 12 9 10 10 -2 -3
6 0 12 9 10 10 -2 -3
6 0 12 9 10 10 -2 -2
7 1 13 10 11 11 0 0
7 2 13 12 13 12 2 1
8 3 13 13 14 13 3 2
9 4 13 15 16 14 5 3
9 5 13 16 17 15 6 4
10 6 14 17 18 16 7 5
10 6 14 17 18 17 7 5
10 6 14 18 18 18 8 6
10 6 14 18 18 19 8 6
10 6 14 18 18 20 8 6
11 7 14 19 20 21 9 7
11 9 15 20 21 22 10 8
12 11 16 21 23 24 12 9
12 12 17 22 25 25 13 10
12 14 18 23 27 26 14 11
13 15 19 24 28 27 15 12
14 15 18 24 28 27 16 13
15 16 17 25 28 28 17 14
15 16 17 26 28 29 17 14
16 16 16 26 28 29 18 15
17 17 15 27 29 30 19 16
17 19 15 27 30 30 19 16
18 20 15 28 31 31 20 17
19 22 15 28 31 32 20 18
19 23 15 28 32 32 20 18
20 24 16 29 33 33 21 19
22 24 16 29 34 35 23 21
23 25 16 30 35 36 25 22
25 25 16 30 36 38 26 24
26 25 16 30 37 39 28 25
27 26 17 31 38 40 29 26
27 27 17 31 38 40 29 26
27 29 16 31 38 42 30 27
27 30 16 31 38 42 30 27
27 31 16 31 38 42 30 27
26 32 15 30 39 43 31 28
27 32 15 30 39 43 32 29
28 33 14 30 40 44 33 30
29 34 14 30 40 44 33 30
30 34 14 30 40 44 34 31
31 35 13 29 42 45 35 32
31 35 13 29 42 45 35 32
31 34 13 29 42 46 36 32
31 34 13 29 42 46 37 32
31 34 13 29 42 46 37 32
30 33 13 28 43 47 38 33
30 34 13 28 43 47 38 33
30 36 12 27 43 47 37 33
30 37 12 27 43 47 37 33
30 38 12 27 43 47 37 33
31 39 11 26 42 46 36 33
31 37 11 26 42 46 36 33
30 36 11 26 42 46 36 33
29 35 11 26 42 46 36 33
29 33 11 26 42 46 36 33
28 32 12 27 42 45 36 32
26 31 12 27 40 44 34 31
25 30 12 27 39 43 33 30
24 29 12 27 38 43 32 29
22 28 12 27 37 42 30 28
21 27 13 26 36 40 29 27
20 25 13 26 35 39 28 26
19 23 13 25 34 37 27 24
18 22 13 24 34 36 26 23
17 20 13 24 33 35 25 22
16 19 14 23 32 33 23 20
16 19 14 21 30 31 21 18
15 18 13 20 28 29 19 16
15 17 12 19 26 27 17 14
15 17 12 17 24 25 15 12
14 15 11 16 23 23 13 10
13 13 11 15 21 22 11 9
11 11 12 14 20 20 10 8
10 9 12 13 19 19 9 8
9 7 12 12 17 18 7 7
8 6 13 11 16 17 6 6
7 4 13 11 15 17 6 5
6 3 12 10 14 16 5 4
6 2 12 9 14 15 4 4
5 0 12 9 13 15 4 3
4 -2 11 8 12 14 3 2
4 -2 11 7 11 13 2 1
4 -2 10 6 10 12 1 0
4 -2 10 5 10 11 0 0
4 -2 10 4 9 10 -2 -2
3 -3 9 3 8 9 -3 -3
2 -3 9 3 8 9 -3 -3
1 -4 8 3 7 8 -4 -4
1 -4 7 3 6 8 -4 -4
0 -4 7 3 6 8 -4 -4
-2 -5 6 2 5 7 -5 -5
0 -5 6 2 4 7 -5 -5
1 -4 6 1 3 6 -6 -6
1 -4 6 1 3 5 -6 -7
2 -4 6 1 2 5 -6 -7
3 -3 5 0 1 4 -7 -8
3 -3 5 0 1 4 -7 -8
3 -4 4 0 1 4 -7 -7
3 -5 4 0 1 4 -7 -7
3 -5 4 0 1 4 -7 -7
2 -6 3 0 1 5 -6 -6
2 -6 3 0 1 5 -6 -6
1 -6 4 0 1 4 -6 -6
1 -6 4 0 1 4 -6 -6
1 -6 4 0 1 4 -6 -6
0 -6 5 -2 1 3 -7 -7
0 -6 5 -2 1 3 -7 -7
0 -5 5 -2 1 3 -7 -7
0 -5 5 -2 1 3 -7 -7
0 -5 5 -2 1 3 -7 -7
1 -4 5 -2 1 3 -6 -6
1 -5 5 -2 1 3 -6 -6
1 -6 5 0 1 3 -6 -6
1 -6 5 0 1 3 -6 -6
1 -7 5 0 1 3 -6 -6
1 -8 6 1 1 3 -6 -6
1 -8 6 1 1 3 -6 -6
1 -7 6 1 1 3 -6 -6
1 -7 6 1 1 3 -6 -6
1 -7 6 1 1 3 -6 -6
1 -6 7 0 1 3 -6 -5
1 -6 7 0 1 3 -6 -5
1 -6 7 0 1 3 -6 -5
0 -7 8 0 1 3 -6 -5
0 -7 8 0 1 3 -6 -5
-2 -8 9 0 2 3 -5 -4
-2 -8 9 0 2 3 -5 -4
-2 -8 9 0 2 3 -4 -4
-2 -7 10 0 2 4 -3 -4
-2 -7 10 0 2 4 -3 -4
-2 -6 11 1 2 5 -2 -4
-2 -6 11 1 2 5 -2 -4
-2 -5 11 1 2 5 -2 -4
-2 -4 11 1 2 5 -2 -4
-2 -4 11 1 2 5 -2 -4
0 -3 10 1 2 4 -3 -5
1 -4 10 1 2 4 -3 -5
1 -4 10 1 2 4 -3 -5
2 -5 10 1 2 4 -2 -4
3 -6 10 1 2 4 -2 -4
4 -7 9 1 3 5 0 -3
3 -7 9 1 3 5 0 -3
2 -7 9 1 3 5 0 -3
1 -6 9 0 2 4 -2 -3
0 -6 9 0 2 4 -2 -3
-2 -5 8 -2 1 3 -3 -4
-2 -5 8 -2 1 3 -3 -4
-2 -6 8 -2 1 3 -3 -4
-2 -7 8 -2 1 3 -3 -4
-2 -7 8 -2 1 3 -3 -4
-2 -8 9 -3 1 3 -3 -5
0 -7 9 -3 1 3 -3 -5
0 -7 9 -3 1 3 -3 -5
1 -6 9 -2 1 3 -3 -5
2 -5 9 -2 1 3 -3 -5
3 -4 10 0 2 4 -3 -4
2 -5 10 0 2 4 -3 -4
1 -6 10 0 2 3 -3 -4
0 -7 9 0 1 2 -3 -4
-2 -8 9 0 1 2 -3 -4
-3 -9 8 -2 0 1 -4 -5
-3 -9 8 -2 0 1 -4 -5
-2 -8 8 -2 0 1 -4 -5
0 -7 8 -2 0 1 -4 -5
0 -7 8 -2 0 1 -4 -5
1 -6 8 -2 0 2 -3 -4
1 -6 8 -3 0 1 -3 -4
1 -6 8 -3 -2 1 -3 -5
1 -6 7 -4 -3 0 -4 -6
1 -6 7 -5 -3 -2 -4 -6
2 -7 6 -6 -4 -3 -5 -7
1 -7 6 -6 -4 -3 -5 -7
1 -8 6 -6 -4 -3 -5 -7
0 -9 6 -6 -3 -3 -5 -7
-2 -9 6 -6 -3 -3 -5 -7
-3 -10 7 -6 -2 -2 -4 -6
-3 -10 7 -6 -2 -2 -4 -6
-3 -10 7 -6 -2 -2 -4 -6
-3 -10 7 -6 -3 -3 -5 -6
-3 -10 7 -6 -3 -3 -5 -6
-2 -11 7 -6 -4 -4 -6 -6
-2 -11 7 -6 -4 -4 -6 -6
-3 -12 7 -6 -4 -4 -6 -6
-4 -13 7 -7 -5 -4 -7 -6
-4 -13 7 -7 -5 -4 -7 -6
-5 -14 6 -8 -6 -5 -8 -7
-5 -14 6 -8 -6 -5 -8 -7
-5 -14 6 -8 -6 -5 -8 -7
-5 -14 6 -8 -6 -5 -8 -7
-5 -14 6 -8 -6 -5 -8 -7
-5 -13 7 -7 -6 -6 -8 -6
-5 -13 7 -7 -6 -6 -8 -6
-5 -13 7 -7 -6 -6 -8 -6
-5 -13 7 -7 -6 -5 -8 -6
-5 -13 7 -7 -6 -5 -8 -6
-5 -12 6 -7 -7 -4 -8 -6
-5 -12 6 -7 -7 -4 -8 -6
-5 -12 6 -7 -7 -4 -8 -6
-4 -11 6 -6 -7 -4 -7 -6
-4 -11 6 -6 -7 -4 -7 -6
-3 -10 7 -5 -6 -4 -6 -5
-3 -11 7 -5 -6 -4 -6 -5
-3 -11 7 -5 -6 -4 -6 -5
-3 -12 6 -5 -7 -4 -7 -5
-3 -13 6 -5 -7 -4 -7 -5
-4 -14 5 -6 -8 -5 -8 -6
-4 -14 5 -6 -8 -5 -8 -6
-4 -13 5 -6 -8 -5 -8 -6
-5 -12 5 -6 -8 -6 -9 -6
-5 -12 5 -6 -8 -6 -9 -6
-6 -11 5 -6 -8 -7 -10 -7
-6 -11 5 -6 -8 -7 -10 -7
-6 -12 5 -6 -8 -6 -9 -6
-6 -13 6 -5 -8 -5 -8 -5
-6 -13 6 -5 -8 -5 -8 -5
-6 -14 7 -4 -7 -4 -7 -4
-6 -14 6 -5 -8 -5 -8 -5
-6 -14 6 -5 -8 -6 -8 -6
-6 -14 5 -6 -9 -7 -9 -7
-6 -14 4 -7 -10 -8 -10 -8
-5 -13 3 -8 -11 -9 -11 -9
-5 -13 3 -8 -11 -9 -11 -9
-5 -13 4 -7 -11 -8 -10 -9
-5 -13 5 -6 -10 -7 -9 -8
-5 -13 5 -6 -10 -7 -9 -8
-5 -13 6 -5 -9 -6 -8 -7
-5 -13 6 -5 -9 -6 -8 -7
-5 -14 5 -5 -9 -7 -9 -7
-5 -15 4 -5 -9 -8 -10 -7
-5 -15 4 -5 -9 -8 -10 -7
-6 -16 3 -6 -10 -9 -11 -8
-6 -15 3 -6 -10 -8 -10 -8
-6 -14 4 -5 -10 -8 -10 -7
-5 -13 5 -4 -9 -7 -9 -6
-5 -12 5 -4 -9 -6 -8 -6
-4 -11 6 -3 -8 -5 -7 -5
-4 -12 6 -3 -8 -5 -7 -5
-4 -12 5 -3 -9 -6 -7 -6
-4 -13 4 -4 -10 -7 -8 -7
-4 -14 4 -4 -10 -7 -8 -7
-5 -15 3 -5 -11 -8 -9 -8
-5 -15 3 -5 -11 -8 -9 -8
-5 -15 3 -5 -11 -8 -9 -8
-5 -16 3 -5 -11 -8 -9 -8
-5 -16 3 -5 -11 -8 -9 -8
-6 -17 4 -4 -10 -8 -9 -7
-6 -16 3 -4 -10 -8 -9 -7
-5 -14 3 -5 -10 -8 -9 -7
-4 -13 2 -6 -10 -8 -9 -7
-4 -11 1 -6 -10 -8 -9 -7
-3 -10 0 -7 -10 -9 -10 -8
-3 -11 0 -7 -10 -9 -10 -8
-3 -11 0 -7 -10 -9 -10 -8
-3 -12 0 -6 -10 -9 -10 -8
-3 -13 0 -6 -10 -9 -10 -8
-3 -14 1 -5 -10 -8 -9 -8
-3 -14 1 -5 -10 -8 -9 -8
-4 -14 1 -5 -10 -8 -9 -8
-5 -14 1 -5 -10 -8 -9 -8
-5 -14 1 -5 -10 -8 -9 -8
-6 -15 1 -5 -10 -9 -9 -9
-6 -15 1 -5 -10 -9 -9 -9
-6 -14 1 -6 -10 -9 -9 -9
-5 -13 0 -7 -10 -9 -9 -9
-5 -13 0 -7 -10 -9 -9 -9
-4 -12 -2 -8 -11 -10 -10 -10
-4 -12 -2 -8 -11 -10 -10 -10
-4 -12 0 -8 -11 -10 -10 -10
-5 -13 1 -7 -11 -10 -10 -10
-5 -13 1 -7 -11 -10 -10 -10
-6 -14 2 -6 -12 -10 -11 -10
-6 -14 2 -6 -12 -10 -11 -10
-6 -13 2 -6 -12 -10 -11 -10
-5 -12 2 -6 -11 -9 -10 -9
-5 -12 2 -6 -11 -9 -10 -9
-4 -11 2 -5 -10 -8 -9 -8
-4 -10 2 -4 -10 -8 -9 -8
-4 -10 3 -3 -9 -8 -8 -7
-3 -9 4 -2 -8 -7 -7 -6
-3 -8 4 0 -8 -7 -7 -6
-2 -7 5 1 -7 -6 -6 -5
-2 -6 5 1 -7 -5 -6 -5
-2 -5 5 1 -6 -5 -6 -5
-2 -3 5 1 -5 -4 -5 -4
-2 -2 5 1 -5 -3 -5 -4
-2 0 5 1 -4 -2 -4 -3
-2 0 5 2 -4 -2 -4 -3
-2 -2 5 3 -4 -2 -4 -3
-2 -3 6 4 -3 -2 -4 -3
-2 -3 6 5 -3 -2 -4 -3
-2 -4 7 6 -2 0 -3 -2
0 0 7 6 -2 0 -2 0
0 2 7 6 0 1 0 1
1 5 7 6 1 2 2 2
2 7 7 6 1 2 3 3
3 9 8 7 2 3 4 4
5 12 8 7 2 3 4 4
7 14 8 7 2 4 4 4
9 17 7 7 2 5 4 5
10 19 7 7 2 5 4 5
12 21 6 6 3 6 5 6
12 18 6 5 3 6 5 6
12 16 5 4 3 6 5 6
12 13 4 3 2 5 4 5
12 11 4 2 2 5 4 5
11 9 3 1 1 4 3 4
11 8 2 0 -2 2 2 4
11 7 0 -2 -4 0 2 4
11 6 -2 -3 -6 -3 1 3
11 5 -4 -4 -8 -4 0 3
11 4 -5 -5 -10 -6 -2 2
10 2 -5 -5 -10 -6 -2 2
8 1 -5 -5 -10 -6 -3 1
7 -2 -5 -5 -9 -6 -4 0
5 -3 -5 -5 -9 -6 -4 0
4 -5 -5 -5 -8 -5 -5 -2
2 -7 -5 -6 -10 -6 -6 -3
1 -9 -6 -7 -11 -7 -7 -4
-2 -11 -7 -9 -13 -9 -8 -5
-3 -13 -7 -10 -14 -10 -9 -6
-5 -15 -8 -11 -16 -11 -10 -7
-6 -15 -8 -11 -16 -11 -11 -8
-7 -15 -8 -11 -16 -12 -11 -9
-8 -16 -8 -11 -17 -13 -12 -10
-9 -16 -8 -11 -17 -13 -13 -11
-10 -17 -7 -12 -18 -14 -14 -12
-10 -17 -7 -13 -18 -15 -14 -12
-10 -18 -8 -14 -18 -16 -14 -13
-10 -19 -9 -15 -19 -17 -15 -14
-10 -19 -9 -16 -19 -18 -15 -14
-11 -20 -10 -17 -20 -19 -16 -15
-11 -20 -10 -17 -20 -19 -16 -15
-11 -20 -10 -17 -20 -19 -16 -15
-11 -20 -10 -17 -20 -19 -16 -15
-11 -20 -10 -17 -20 -19 -16 -15
-10 -21 -10 -16 -20 -19 -17 -16
-10 -21 -10 -16 -20 -19 -17 -16
-10 -22 -10 -16 -20 -19 -17 -16
-11 -22 -10 -16 -21 -19 -18 -16
-11 -23 -10 -16 -21 -19 -18 -16
-12 -24 -11 -17 -22 -20 -19 -17
-12 -23 -11 -17 -22 -20 -19 -17
-12 -23 -11 -16 -22 -20 -19 -17
-12 -22 -10 -16 -21 -20 -19 -17
-12 -21 -10 -15 -21 -20 -19 -17
-12 -20 -9 -14 -20 -19 -18 -16
-13 -21 -9 -14 -20 -19 -18 -16
-14 -21 -9 -14 -20 -19 -18 -16
-15 -22 -9 -15 -20 -19 -18 -16
-16 -23 -9 -15 -20 -19 -18 -16
-17 -24 -9 -16 -21 -19 -19 -17
-17 -24 -6 -13 -19 -19 -19 -17
-16 -24 -3 -10 -18 -19 -19 -17
-16 -24 2 -7 -16 -18 -19 -17
-15 -24 5 -4 -15 -18 -19 -17
-14 -24 9 2 -11 -15 -16 -16
-13 -22 12 11 0 -5 -9 -11
-11 -20 16 21 9 5 0 -5
-10 -18 20 30 19 14 8 1
-8 -16 24 40 28 23 15 6
-4 -12 29 54 43 36 26 14
7 -3 36 77 68 59 46 28
17 6 44 100 94 81 65 43
27 15 51 122 119 104 85 57
37 24 58 145 144 127 103 72
48 32 60 160 163 144 118 85
56 42 49 154 167 149 126 92
64 51 36 148 170 154 132 100
72 60 25 142 174 159 139 108
80 69 13 137 177 164 145 115
82 75 -3 115 165 157 142 116
66 68 -26 59 118 118 111 96
50 62 -50 3 70 79 80 75
33 56 -74 -54 23 39 51 56
18 50 -98 -110 -25 1 20 35
5 43 -116 -152 -62 -30 -4 19
1 33 -120 -161 -75 -40 -14 10
-4 23 -124 -171 -88 -52 -24 2
-8 14 -129 -180 -101 -62 -33 -8
-12 5 -134 -189 -114 -73 -44 -16
-15 -3 -134 -191 -121 -80 -51 -23
-13 -5 -119 -171 -112 -75 -48 -23
-12 -8 -106 -151 -103 -69 -45 -23
-10 -10 -92 -132 -94 -64 -41 -23
-9 -12 -78 -111 -85 -58 -38 -23
-7 -14 -66 -94 -76 -53 -36 -23
-8 -15 -57 -83 -69 -49 -33 -22
-8 -15 -49 -72 -62 -44 -31 -22
-9 -16 -39 -62 -55 -39 -29 -21
-10 -17 -31 -51 -48 -35 -26 -20
-11 -18 -24 -41 -43 -31 -24 -19
-11 -18 -21 -37 -38 -29 -23 -18
-11 -17 -18 -32 -35 -26 -21 -18
-12 -17 -15 -28 -31 -24 -20 -17
-12 -16 -12 -24 -28 -22 -19 -16
-13 -15 -9 -20 -25 -20 -17 -15
-13 -15 -7 -18 -24 -19 -16 -15
-12 -15 -5 -16 -23 -18 -16 -15
-12 -15 -3 -14 -22 -17 -15 -14
-11 -15 0 -12 -21 -16 -14 -14
-10 -14 2 -10 -20 -15 -13 -13
-10 -14 2 -10 -20 -15 -13 -13
-11 -14 2 -10 -20 -15 -13 -13
-11 -13 2 -10 -19 -15 -13 -13
-12 -13 2 -10 -19 -15 -13 -13
-13 -12 1 -9 -18 -15 -13 -13
-13 -13 1 -8 -18 -15 -13 -13
-13 -15 2 -8 -18 -15 -13 -13
-13 -16 2 -7 -18 -15 -13 -13
-13 -17 3 -6 -18 -15 -13 -13
-13 -19 4 -5 -17 -14 -12 -13
-12 -17 5 -4 -16 -13 -11 -13
-12 -16 6 -3 -15 -12 -11 -13
-11 -14 7 -2 -14 -11 -10 -13
-10 -13 8 0 -12 -10 -9 -13
-9 -11 9 1 -11 -9 -8 -12
-9 -11 9 1 -11 -9 -8 -12
-9 -12 9 1 -11 -9 -8 -12
-9 -12 9 1 -11 -9 -9 -12
-9 -13 9 1 -11 -9 -9 -12
-10 -14 8 2 -12 -10 -10 -11
-10 -14 8 2 -12 -10 -10 -11
-10 -14 8 2 -12 -10 -10 -11
-10 -13 8 2 -12 -10 -10 -11
-10 -13 8 2 -12 -10 -10 -11
-11 -12 8 2 -11 -10 -10 -12
-11 -11 9 2 -11 -10 -10 -12
-10 -11 9 3 -10 -10 -9 -11
-10 -10 10 3 -10 -9 -9 -11
-9 -9 11 4 -9 -9 -8 -10
-8 -8 12 5 -8 -8 -7 -9
-8 -8 12 5 -8 -8 -7 -9
-8 -8 12 5 -8 -8 -7 -9
-8 -8 11 5 -7 -8 -7 -9
-8 -8 11 5 -7 -8 -7 -9
-7 -9 10 4 -6 -8 -6 -10
-7 -9 10 4 -6 -8 -6 -10
-7 -9 11 5 -6 -7 -6 -9
-7 -9 11 6 -5 -7 -6 -9
-7 -9 12 7 -5 -6 -6 -8
-8 -9 13 8 -4 -5 -5 -7
-8 -9 13 8 -4 -5 -5 -7
-7 -9 13 8 -4 -5 -5 -7
-7 -8 13 8 -3 -5 -5 -7
-6 -8 13 8 -3 -5 -5 -7
-5 -7 12 7 -2 -4 -4 -8
-5 -7 12 7 -2 -4 -4 -8
-5 -6 13 8 0 -4 -4 -8
-4 -6 13 9 0 -3 -3 -7
-4 -5 14 10 1 -3 -3 -7
-3 -4 15 11 2 -2 -2 -6
-3 -4 15 11 2 -2 -2 -6
-3 -4 15 11 2 0 -2 -6
-3 -4 16 12 3 0 0 -5
-3 -4 16 12 3 1 0 -5
-2 -4 17 13 4 2 1 -4
-2 -3 17 14 4 2 1 -4
-2 -2 17 15 4 3 2 -4
-2 0 17 16 5 4 2 -3
-2 1 17 17 5 5 3 -3
0 2 18 18 6 6 4 -2
0 2 18 18 7 6 4 -2
0 2 18 18 8 6 4 0
0 2 18 18 9 6 5 0
0 2 18 18 10 6 5 1
1 2 17 19 11 7 6 2
2 3 17 19 11 8 6 2
3 4 17 20 11 10 7 3
4 5 18 20 11 11 8 3
5 6 18 21 11 12 9 4
6 7 19 22 12 14 10 5
6 7 19 23 13 14 11 5
6 7 19 24 15 14 12 6
6 7 19 25 16 15 13 7
6 7 19 26 17 15 14 8
6 8 20 27 19 16 15 9
7 10 20 27 19 17 16 9
9 12 20 28 20 18 18 10
11 14 20 29 20 19 20 11
12 16 20 30 21 21 21 12
14 18 21 31 22 22 23 13
14 18 21 31 23 22 24 14
14 18 21 31 24 23 25 16
14 18 21 31 25 24 26 17
14 18 21 31 27 25 27 18
14 18 20 32 28 26 28 20
14 19 20 32 28 27 29 21
15 20 20 33 29 28 30 22
16 21 20 34 29 29 31 23
17 23 20 35 30 31 32 24
18 24 21 36 31 32 33 25
18 24 21 36 31 32 33 25
19 25 21 36 31 32 33 25
19 25 21 35 32 33 34 25
20 26 21 35 32 33 34 25
21 27 20 34 33 34 35 26
21 28 20 34 33 34 35 26
21 29 20 34 34 34 36 27
22 30 20 34 34 35 36 28
22 32 20 34 35 35 37 29
23 33 21 33 36 36 38 30
23 33 20 32 36 36 38 30
23 33 19 31 35 36 38 30
22 32 18 30 35 36 38 30
22 32 17 29 34 36 38 30
21 31 16 28 33 36 39 30
22 32 16 28 33 36 39 30
23 34 17 29 33 36 39 30
24 35 18 29 33 36 39 30
25 36 19 30 33 36 39 30
26 38 20 31 33 35 38 29
25 36 20 31 33 35 38 29
24 35 20 31 33 35 38 29
23 33 19 31 33 35 37 29
22 31 19 31 33 35 37 29
21 29 18 31 34 35 36 29
20 28 18 31 33 34 35 28
19 27 18 30 32 32 33 26
18 26 18 30 31 31 32 24
17 25 18 29 29 30 31 23
16 24 18 28 28 28 29 21
16 23 18 27 28 27 28 20
15 22 18 26 27 26 26 19
14 21 18 25 27 25 25 18
13 19 18 23 26 23 24 16
12 18 18 22 25 22 22 15
11 17 18 22 24 21 21 14
10 16 18 22 23 20 20 13
9 15 18 21 22 19 19 12
7 14 18 21 20 17 18 11
6 13 17 20 19 16 17 10
4 11 17 19 18 15 15 9
3 10 16 17 16 13 14 8
1 8 15 15 14 12 12 7
-2 6 14 14 13 11 10 5
-4 4 13 12 11 9 8 4
-4 2 13 12 10 8 8 3
-4 1 13 12 9 7 8 2
-4 -2 13 11 8 6 7 1
-4 -4 13 11 7 5 7 0
-4 -6 14 10 5 4 6 -3
-4 -5 14 10 5 4 5 -3
-4 -3 13 9 5 4 4 -3
-4 -2 13 9 4 3 3 -3
-4 0 12 8 4 3 2 -3
-3 2 11 7 3 2 1 -4
-3 2 11 7 3 2 1 -4
-3 1 11 6 2 1 1 -4
-4 0 11 6 2 1 1 -5
-4 -2 11 5 1 0 1 -5
-5 -3 10 4 0 -2 0 -6
-6 -4 10 4 -2 -2 0 -6
-7 -5 9 4 -3 -2 0 -6
-8 -6 9 3 -4 -3 0 -7
-9 -7 8 3 -5 -3 0 -7
-10 -8 7 2 -6 -4 -2 -8
-10 -8 7 2 -6 -4 -2 -8
-10 -7 7 2 -6 -4 -2 -8
-9 -6 7 2 -6 -4 -2 -8
-9 -5 7 2 -6 -4 -2 -8
-8 -4 7 1 -5 -5 -3 -9
-8 -4 7 1 -5 -5 -3 -9
-8 -5 7 1 -5 -5 -3 -9
-8 -6 7 1 -5 -5 -3 -9
-8 -7 7 1 -5 -5 -3 -9
-8 -8 8 0 -5 -5 -3 -8
-8 -8 8 0 -5 -5 -3 -8
-8 -7 8 0 -5 -5 -3 -8
-7 -6 8 0 -5 -5 -3 -8
-7 -5 8 0 -5 -5 -3 -8
-6 -4 7 0 -5 -5 -4 -8
-6 -4 7 0 -5 -5 -4 -8
-6 -4 7 0 -5 -5 -4 -8
-6 -4 7 1 -5 -5 -4 -8
-6 -4 7 1 -5 -5 -4 -8
-6 -5 8 2 -5 -6 -4 -9
-6 -5 8 2 -5 -6 -4 -9
-5 -4 8 2 -5 -6 -4 -9
-5 -3 8 2 -5 -5 -4 -8
-4 -2 8 2 -5 -5 -4 -8
-3 0 9 3 -5 -4 -3 -7
-3 -2 9 3 -5 -4 -3 -7
-4 -3 9 3 -5 -4 -3 -7
-4 -4 10 3 -4 -4 -2 -7
-5 -5 10 3 -4 -4 -2 -7
-6 -6 11 4 -3 -3 0 -7
-6 -6 11 4 -3 -3 0 -7
-6 -5 11 4 -3 -3 0 -7
-5 -4 11 4 -3 -3 0 -7
-5 -3 11 4 -3 -3 0 -7
-4 -2 10 4 -3 -3 -2 -6
-4 -2 10 4 -3 -3 -2 -6
-5 -3 10 4 -3 -3 -2 -6
-5 -4 10 4 -3 -3 -2 -6
-6 -5 10 4 -3 -3 -2 -6
-7 -6 9 5 -3 -4 -2 -5
-7 -6 9 5 -3 -4 -2 -5
-7 -6 9 5 -3 -4 -2 -5
-7 -5 9 5 -3 -4 -2 -4
-7 -5 9 5 -3 -4 -2 -4
-6 -4 9 5 -3 -4 -3 -3
-6 -4 9 5 -3 -4 -3 -3
-6 -4 9 5 -3 -4 -3 -3
-5 -4 8 5 -3 -4 -3 -3
-5 -4 8 5 -3 -4 -3 -3
-4 -5 7 6 -2 -3 -2 -3
-4 -5 7 6 -2 -3 -2 -3
-4 -5 7 6 -2 -3 -2 -3
-4 -5 8 6 -3 -3 -2 -3
-4 -5 8 6 -3 -3 -2 -3
-4 -5 9 7 -4 -4 -2 -3
-4 -5 9 7 -4 -4 -2 -3
-4 -5 8 6 -4 -4 -2 -3
-4 -5 8 6 -4 -4 -2 -4
-4 -5 7 5 -4 -4 -2 -4
-4 -5 6 4 -4 -5 -3 -5
-4 -5 6 4 -4 -5 -3 -5
-4 -5 6 4 -4 -5 -3 -5
-4 -5 6 4 -4 -6 -3 -5
-4 -5 6 4 -4 -6 -3 -5
-3 -5 7 4 -5 -7 -4 -5
-3 -5 7 4 -5 -7 -4 -5
-3 -5 7 4 -5 -7 -4 -5
-3 -5 7 3 -5 -7 -4 -5
-3 -5 7 3 -5 -7 -4 -5
-3 -6 8 2 -4 -6 -3 -4
-3 -6 8 2 -4 -6 -3 -4
-3 -6 8 1 -5 -7 -4 -4
-4 -5 7 1 -6 -7 -4 -5
-4 -5 7 0 -7 -8 -5 -5
-5 -4 6 -2 -8 -9 -6 -6
-5 -5 6 -2 -8 -9 -6 -6
-5 -6 6 -2 -8 -9 -6 -6
-6 -7 6 0 -8 -9 -6 -6
-6 -8 6 0 -8 -9 -6 -6
-7 -9 6 1 -9 -8 -5 -7
-7 -8 6 1 -9 -8 -5 -7
-6 -7 6 1 -9 -8 -5 -7
-6 -6 6 0 -9 -9 -6 -7
-5 -5 6 0 -9 -9 -6 -7
-4 -3 6 -2 -10 -10 -7 -8
-4 -4 6 -2 -10 -10 -7 -8
-4 -5 6 0 -10 -10 -7 -8
-4 -6 6 0 -10 -10 -7 -8
-4 -7 6 1 -10 -10 -7 -8
-5 -9 6 2 -9 -9 -7 -7
-5 -9 6 2 -9 -9 -7 -7
-5 -9 6 2 -9 -9 -7 -7
-5 -9 6 1 -10 -10 -7 -8
-5 -9 6 1 -10 -10 -7 -8
-5 -8 5 0 -11 -11 -8 -9
-5 -8 5 0 -11 -11 -8 -9
-5 -8 5 0 -11 -11 -8 -9
-6 -8 5 -2 -11 -11 -8 -9
-6 -8 5 -2 -11 -11 -8 -9
-7 -9 4 -3 -10 -12 -8 -10
-7 -9 4 -3 -10 -11 -8 -10
-7 -9 5 -2 -10 -10 -7 -9
-7 -9 6 0 -10 -9 -6 -8
-7 -9 7 1 -10 -8 -5 -7
-6 -9 8 2 -10 -6 -4 -6
-6 -9 7 2 -10 -6 -4 -6
-6 -9 6 2 -10 -7 -5 -7
-6 -10 4 1 -11 -7 -5 -7
-6 -10 3 1 -11 -8 -6 -8
-6 -11 1 0 -12 -9 -7 -9
-6 -11 1 0 -12 -9 -7 -9
-6 -10 1 0 -12 -9 -7 -9
-6 -9 1 -2 -12 -10 -7 -9
-6 -8 1 -2 -12 -10 -7 -9
-6 -7 2 -3 -12 -11 -8 -10
-6 -7 2 -3 -12 -11 -8 -10
-6 -7 2 -3 -12 -11 -8 -10
-7 -8 2 -3 -12 -11 -8 -10
-7 -8 2 -3 -12 -11 -8 -10
-8 -9 2 -4 -12 -11 -8 -10
-8 -9 2 -4 -12 -11 -8 -10
-8 -9 2 -4 -12 -11 -8 -10
-7 -9 2 -4 -12 -11 -8 -10
-7 -9 2 -4 -12 -11 -8 -10
-6 -8 2 -3 -13 -11 -7 -9
-6 -8 2 -3 -13 -11 -7 -9
-6 -8 2 -3 -13 -11 -7 -9
-6 -8 2 -3 -13 -11 -8 -9
-6 -8 2 -3 -13 -11 -8 -9
-7 -8 2 -3 -13 -12 -9 -10
-7 -8 2 -3 -13 -12 -9 -10
-7 -8 2 -3 -13 -12 -9 -10
-7 -9 2 -3 -13 -12 -9 -10
-7 -9 2 -3 -13 -12 -9 -10
-7 -10 1 -3 -14 -13 -9 -11
-7 -10 1 -3 -14 -13 -9 -11
-7 -10 1 -3 -14 -13 -9 -11
-7 -9 1 -3 -14 -13 -9 -11
-7 -9 1 -3 -14 -13 -9 -11
-6 -8 1 -4 -13 -12 -8 -10
-6 -8 1 -4 -13 -12 -8 -10
-6 -9 1 -4 -13 -12 -8 -10
-7 -9 1 -3 -13 -12 -8 -10
-7 -10 1 -3 -13 -12 -8 -10
-8 -11 1 -2 -14 -13 -9 -10
-8 -10 1 -2 -14 -13 -9 -10
-8 -9 1 -2 -14 -13 -9 -10
-7 -8 1 -2 -14 -13 -9 -10
-7 -7 1 -2 -14 -13 -9 -10
-6 -6 0 -3 -14 -13 -9 -10
-6 -6 0 -3 -14 -13 -9 -10
-6 -6 1 -3 -14 -13 -9 -10
-6 -7 1 -3 -14 -13 -9 -10
-6 -7 2 -3 -14 -13 -9 -10
-6 -8 3 -3 -14 -13 -9 -10
-6 -8 3 -3 -14 -13 -9 -10
-6 -8 2 -3 -14 -13 -9 -10
-6 -8 1 -3 -14 -13 -9 -10
-6 -8 0 -3 -14 -13 -9 -10
-5 -8 -2 -4 -14 -12 -9 -10
-5 -8 -2 -4 -14 -12 -9 -10
-5 -9 0 -4 -14 -12 -9 -10
-5 -9 0 -4 -14 -12 -9 -10
-5 -10 1 -4 -14 -12 -9 -10
-4 -11 2 -4 -13 -13 -9 -11
-4 -11 2 -4 -13 -13 -9 -11
-4 -10 2 -4 -13 -13 -9 -11
-5 -10 1 -4 -14 -13 -9 -11
-5 -9 1 -4 -14 -13 -9 -11
-6 -8 0 -5 -15 -12 -9 -11
-6 -7 0 -5 -15 -12 -9 -11
-6 -6 0 -5 -15 -12 -9 -11
-5 -5 0 -5 -15 -12 -9 -11
-5 -4 0 -5 -15 -12 -9 -11
-4 -3 1 -6 -16 -13 -9 -11
-4 -3 1 -6 -16 -13 -9 -11
-4 -3 2 -5 -15 -12 -8 -11
-4 -3 3 -4 -14 -11 -8 -10
-4 -3 4 -3 -13 -10 -7 -10
-4 -4 5 -2 -12 -9 -6 -9
-4 -4 6 -2 -12 -9 -6 -9
-4 -4 7 0 -11 -8 -6 -9
-4 -3 8 1 -10 -8 -5 -9
-4 -3 9 2 -9 -7 -5 -9
-4 -2 10 3 -8 -6 -4 -8
-4 0 10 3 -8 -6 -4 -8
-3 1 10 3 -8 -5 -3 -8
-3 3 10 3 -7 -4 -2 -8
-2 4 10 3 -7 -3 0 -8
0 6 11 4 -6 -2 1 -7
0 6 11 4 -6 -2 1 -7
0 6 12 5 -6 -2 1 -7
0 5 12 5 -5 -2 0 -6
0 5 13 6 -5 -2 0 -6
0 5 13 6 -5 -2 0 -6
0 6 14 7 -4 0 0 -5
0 9 14 7 -3 1 1 -5
0 12 14 8 -2 2 2 -4
0 15 14 8 0 3 3 -4
0 17 14 8 0 4 4 -4
0 18 14 9 1 5 5 -2
1 19 14 9 2 6 6 0
3 19 14 9 2 7 6 2
4 20 14 9 3 8 7 3
5 20 14 9 3 8 7 4
7 21 13 9 4 9 8 5
8 21 11 8 3 9 8 5
9 20 10 6 3 8 7 5
10 20 8 5 2 8 7 5
11 20 7 4 2 8 7 5
12 17 5 3 0 6 6 3
12 15 4 2 -3 5 5 2
13 13 3 1 -4 3 5 1
13 11 2 0 -6 2 4 0
13 9 1 -2 -7 1 4 -2
13 8 0 -3 -8 0 3 -3
12 7 0 -3 -8 0 2 -3
11 7 -2 -4 -9 -2 1 -4
10 6 -2 -4 -9 -2 0 -4
9 6 -2 -4 -9 -2 0 -4
7 4 -3 -5 -11 -3 -3 -6
5 2 -4 -6 -13 -4 -5 -8
3 1 -4 -7 -14 -5 -7 -10
1 -2 -5 -8 -16 -6 -9 -12
0 -3 -5 -9 -17 -7 -10 -13
-2 -5 -6 -10 -18 -8 -11 -14
-2 -6 -6 -10 -18 -9 -11 -14
-3 -8 -6 -10 -18 -10 -12 -15
-3 -9 -6 -10 -18 -11 -12 -15
-3 -10 -6 -10 -18 -12 -12 -15
-4 -11 -7 -12 -19 -13 -13 -16
-4 -12 -7 -13 -20 -14 -14 -17
-5 -13 -8 -15 -20 -14 -14 -18
-5 -14 -8 -16 -21 -15 -15 -19
-5 -14 -8 -17 -21 -15 -15 -19
-6 -15 -9 -18 -22 -16 -16 -20
-6 -15 -9 -18 -22 -16 -16 -20
-6 -15 -9 -18 -22 -16 -16 -19
-6 -15 -9 -18 -22 -16 -16 -19
-6 -15 -9 -18 -22 -16 -16 -19
-7 -15 -10 -17 -22 -16 -16 -18
-7 -15 -10 -17 -22 -16 -16 -18
-7 -14 -10 -17 -23 -16 -16 -19
-7 -14 -10 -17 -23 -16 -16 -19
-7 -14 -10 -17 -23 -16 -16 -19
-8 -13 -10 -17 -24 -16 -17 -20
-8 -14 -10 -17 -24 -16 -17 -20
-8 -15 -10 -17 -24 -16 -16 -20
-8 -16 -10 -17 -24 -16 -16 -20
-8 -16 -10 -17 -24 -16 -16 -20
-9 -17 -10 -17 -24 -17 -15 -20
-9 -17 -10 -16 -23 -16 -15 -20
-9 -16 -9 -16 -23 -16 -15 -19
-9 -16 -9 -15 -22 -15 -15 -19
-9 -16 -9 -15 -22 -15 -15 -19
-8 -15 -7 -13 -21 -14 -14 -18
-8 -16 -6 -11 -21 -15 -15 -19
-8 -17 -5 -9 -20 -15 -15 -20
-8 -18 -4 -7 -20 -16 -16 -21
-8 -19 -3 -6 -20 -16 -16 -22
-9 -18 3 3 -12 -11 -12 -20
-8 -15 7 11 -4 -4 -7 -16
-7 -12 12 19 4 5 0 -12
-6 -9 17 27 12 12 6 -8
-5 -6 21 35 20 19 11 -4
6 2 27 55 43 39 28 10
16 10 33 75 65 60 47 23
25 17 39 96 88 80 64 36
35 25 46 116 111 102 82 50
46 32 52 137 134 122 100 63
56 42 50 140 145 134 112 73
66 52 45 142 155 145 123 85
76 61 40 144 165 155 135 95
88 70 36 146 176 165 146 105
98 80 32 148 186 177 157 116
85 77 9 102 149 147 135 103
69 73 -17 51 107 113 109 87
54 68 -43 0 66 79 84 70
38 63 -67 -52 24 46 57 54
23 59 -93 -103 -18 12 31 37
15 49 -103 -123 -39 -7 16 24
8 38 -113 -143 -60 -24 1 12
0 28 -122 -161 -81 -41 -15 0
-8 17 -132 -180 -102 -59 -30 -13
-15 7 -142 -198 -122 -76 -45 -26
-14 4 -133 -184 -117 -74 -45 -27
-11 2 -120 -166 -109 -69 -41 -27
-8 -2 -108 -149 -101 -64 -39 -27
-5 -4 -96 -131 -93 -59 -36 -27
-2 -6 -83 -113 -85 -54 -34 -27
-2 -7 -73 -101 -77 -49 -31 -27
-4 -8 -64 -89 -70 -45 -29 -26
-6 -9 -54 -76 -63 -40 -26 -26
-8 -10 -44 -64 -56 -35 -24 -25
-9 -10 -33 -52 -49 -31 -22 -25
-10 -10 -29 -47 -45 -28 -20 -24
-10 -9 -25 -40 -39 -26 -18 -23
-9 -8 -21 -35 -35 -24 -16 -23
-9 -7 -18 -29 -31 -21 -14 -22
-9 -6 -14 -24 -27 -19 -12 -22
-8 -5 -11 -21 -25 -17 -11 -21
-8 -6 -9 -19 -24 -16 -10 -20
-8 -7 -7 -17 -22 -14 -9 -19
-8 -8 -5 -14 -21 -13 -8 -18
-8 -8 -3 -12 -20 -12 -8 -18
-8 -9 -2 -11 -19 -11 -7 -17
-8 -9 -2 -10 -18 -11 -7 -17
-8 -9 -2 -9 -17 -11 -7 -17
-8 -9 -2 -8 -16 -11 -7 -17
-8 -9 -2 -8 -16 -11 -7 -17
-7 -8 -2 -7 -15 -10 -7 -18
-7 -8 -2 -7 -15 -10 -7 -18
-7 -7 -2 -7 -16 -10 -6 -18
-7 -7 -2 -7 -16 -10 -6 -18
-7 -7 -2 -7 -16 -10 -6 -18
-6 -6 -3 -6 -17 -9 -5 -17
-6 -7 -2 -6 -16 -9 -5 -17
-7 -7 0 -5 -16 -9 -5 -17
-7 -8 1 -5 -15 -9 -5 -17
-7 -8 1 -5 -15 -9 -5 -17
-8 -9 2 -4 -14 -8 -6 -17
-8 -9 2 -4 -14 -8 -6 -17
-8 -8 2 -4 -13 -8 -6 -17
-8 -8 2 -4 -13 -8 -6 -17
-8 -8 2 -4 -13 -8 -6 -17
-7 -7 3 -3 -12 -8 -6 -18
-7 -7 3 -3 -12 -8 -6 -18
-7 -6 3 -2 -12 -8 -6 -18
-7 -6 3 -2 -12 -8 -6 -18
-7 -6 3 -2 -12 -8 -6 -18
-6 -5 4 0 -11 -7 -5 -17
-6 -5 4 1 -11 -6 -4 -17
-5 -5 5 1 -10 -6 -3 -16
-5 -5 5 2 -10 -5 -2 -16
-5 -5 5 2 -10 -5 -2 -16
-4 -4 6 3 -9 -4 0 -15
-4 -4 6 3 -8 -4 0 -15
-4 -4 6 3 -8 -4 1 -14
-4 -4 6 3 -7 -4 1 -14
-4 -4 6 3 -7 -4 1 -14
-3 -4 7 4 -6 -3 2 -13
-3 -4 7 4 -6 -3 2 -13
-3 -3 6 4 -6 -3 2 -13
-3 -3 6 4 -6 -3 2 -13
-3 -3 6 4 -6 -3 2 -13
-2 -2 5 4 -7 -3 1 -13
-2 -2 6 4 -6 -2 1 -13
-2 0 6 5 -5 -2 2 -13
-2 0 7 5 -4 0 2 -13
-2 0 7 5 -4 0 2 -13
0 1 8 6 -3 1 3 -13
1 1 8 6 -2 2 4 -12
2 1 8 6 -2 2 4 -12
3 1 8 6 0 3 5 -11
3 1 8 6 0 3 5 -11
4 1 7 7 1 4 6 -10
4 1 7 8 1 4 6 -10
4 2 7 8 1 4 6 -10
4 2 7 9 1 4 6 -10
4 2 7 9 1 4 6 -10
3 3 7 11 2 3 6 -9
3 3 7 12 3 4 7 -8
3 3 7 13 4 4 8 -8
3 3 7 14 5 5 9 -7
3 3 7 15 6 5 10 -7
4 4 7 16 7 6 11 -6
4 4 7 16 7 7 11 -6
4 5 7 16 7 8 12 -5
4 5 7 16 7 9 12 -5
4 5 7 16 7 9 12 -5
4 7 8 15 8 11 13 -4
5 8 9 16 9 12 14 -3
6 10 10 16 10 13 15 -2
7 12 11 17 11 14 16 0
7 13 12 17 11 15 16 1
8 14 13 18 12 16 17 2
8 14 13 19 13 17 18 3
9 14 13 20 14 17 19 3
9 14 13 21 15 18 20 4
9 14 13 22 15 18 20 4
11 16 13 23 16 19 21 5
12 17 13 23 17 20 22 6
13 18 13 23 18 21 23 7
15 19 13 23 19 22 24 8
16 20 13 23 19 23 24 8
18 21 14 23 21 25 26 10
19 22 14 24 22 26 27 11
20 23 14 25 23 27 28 12
21 24 14 26 24 28 30 13
22 24 14 26 25 29 31 14
23 25 15 27 26 30 32 15
23 25 15 27 26 31 33 16
23 25 15 27 27 32 34 17
23 25 15 27 27 33 35 18
23 25 15 27 27 33 35 18
23 26 14 27 28 34 36 19
24 27 14 27 29 34 36 19
25 28 14 27 29 35 37 19
26 29 14 27 30 35 37 19
27 30 14 27 30 35 37 19
28 31 14 27 31 36 38 20
28 32 13 26 31 36 38 20
29 33 13 26 30 35 38 21
29 34 12 25 30 35 38 21
29 35 12 25 30 35 38 21
30 36 11 24 29 34 38 22
29 36 11 24 29 35 39 23
29 36 11 24 30 36 40 23
28 36 11 24 30 37 42 24
28 36 11 24 30 37 43 24
27 37 11 23 31 38 44 25
27 37 11 23 31 38 44 25
27 37 11 23 30 38 44 25
27 37 11 23 30 38 44 25
27 37 11 23 30 38 44 25
27 38 12 22 29 37 43 24
26 37 12 23 29 37 43 24
26 37 13 23 29 37 42 24
25 36 13 24 29 37 42 24
25 36 13 24 29 37 42 24
24 34 14 25 30 36 39 23
24 33 14 25 29 35 38 22
23 32 14 24 28 34 37 21
23 30 14 24 27 33 35 20
23 29 14 24 27 33 34 20
22 28 13 23 26 31 32 19
20 27 14 23 26 30 31 18
19 26 14 23 26 28 30 17
18 25 15 23 26 26 28 16
17 24 15 23 26 25 27 16
15 22 16 23 24 23 25 14
14 21 15 22 22 22 24 11
13 19 14 21 19 20 22 9
11 17 13 19 17 18 20 6
10 16 13 18 15 17 19 4
9 15 12 17 14 16 18 3
8 14 12 16 13 15 16 2
8 13 11 15 12 14 15 2
7 12 11 14 11 13 14 1
7 12 11 13 11 13 13 1
6 11 10 12 9 12 12 0
5 9 9 11 8 11 11 -3
5 8 9 10 7 10 10 -4
4 7 8 9 5 9 9 -5
4 6 8 8 4 8 9 -6
3 5 7 7 3 7 8 -7
2 4 7 6 2 6 7 -7
1 4 7 6 2 5 7 -7
0 3 7 5 1 4 6 -7
-2 3 7 5 1 4 6 -7
-3 2 6 4 0 3 5 -8
-3 2 6 4 -2 3 5 -8
-3 2 6 4 -2 2 5 -8
-3 2 6 4 -3 2 5 -8
-3 2 6 4 -3 2 5 -8
-2 3 6 3 -4 1 4 -9
-2 2 6 3 -4 1 4 -9
-3 1 6 2 -4 0 3 -9
-3 0 6 2 -4 0 3 -9
-3 0 6 2 -4 0 3 -9
-4 -2 6 1 -5 -2 2 -10
-4 -2 6 1 -5 -2 2 -10
-4 -2 6 1 -5 -2 2 -10
-4 -2 6 1 -5 -2 2 -10
-4 -2 6 1 -5 -2 2 -10
-4 -2 5 0 -6 -2 1 -10
-5 -2 5 0 -6 -2 1 -10
-5 -3 4 -2 -6 -3 0 -11
-6 -3 4 -2 -6 -3 0 -11
-6 -3 4 -2 -6 -3 0 -11
-7 -4 3 -3 -7 -4 -2 -12
-6 -3 3 -3 -7 -4 -2 -12
-6 -2 3 -2 -7 -4 -2 -12
-5 0 3 -2 -7 -4 -2 -12
-5 0 3 -2 -7 -4 -2 -12
-4 1 4 0 -8 -3 0 -11
-4 1 4 0 -8 -3 0 -11
-4 1 4 0 -8 -3 0 -11
-4 1 4 0 -8 -3 0 -11
-4 1 4 0 -8 -3 0 -11
-3 0 5 0 -7 -4 0 -10
-3 0 5 0 -7 -4 0 -10
-4 1 5 0 -7 -4 0 -10
-4 1 5 0 -7 -4 0 -10
-4 1 5 0 -7 -4 0 -10
-5 2 4 0 -6 -4 1 -9
-5 2 5 1 -5 -4 1 -9
-4 2 5 1 -5 -3 1 -9
-4 2 6 2 -4 -3 1 -9
-4 2 6 2 -4 -3 1 -9
-3 1 7 3 -3 -2 1 -8
-3 0 6 2 -4 -2 1 -8
-4 0 5 1 -5 -2 1 -8
-4 -2 4 0 -6 -2 1 -8
-4 -2 3 0 -6 -2 1 -8
-5 -3 2 -2 -7 -3 1 -9
-5 -2 3 -2 -6 -3 1 -8
-4 -2 4 0 -6 -2 2 -8
-4 0 5 0 -5 -2 2 -7
-4 0 5 0 -5 -2 2 -7
-3 1 6 1 -4 0 3 -6
-2 1 6 1 -4 0 3 -6
0 1 6 0 -5 0 3 -6
0 1 6 0 -5 0 3 -6
1 1 6 0 -5 0 3 -6
2 0 7 -2 -6 0 2 -7
1 -3 6 -2 -6 0 2 -7
0 -4 6 -2 -6 0 2 -7
0 -5 5 -2 -6 0 2 -7
-2 -6 5 -2 -6 0 2 -7
-3 -7 4 -2 -5 -2 2 -6
-3 -6 4 -2 -5 -2 2 -6
-3 -5 4 -2 -5 -2 2 -6
-3 -4 4 -2 -5 -2 2 -6
-3 -3 4 -2 -5 -2 2 -6
-4 -2 3 0 -5 -2 1 -7
-4 -2 3 0 -5 -2 1 -7
-3 -2 3 0 -5 -2 1 -7
-3 -2 3 0 -5 -2 1 -7
-3 -2 3 0 -5 -2 1 -7
-2 0 4 0 -4 -3 1 -7
-2 0 4 0 -4 -3 1 -7
-2 0 4 0 -4 -3 1 -7
-2 0 4 0 -4 -3 1 -7
-2 0 4 0 -4 -3 1 -7
0 -2 3 0 -5 -2 1 -6
-2 -3 3 0 -5 -2 1 -6
-2 -3 3 0 -5 -2 1 -6
-3 -4 3 0 -5 -2 1 -6
-3 -4 3 0 -5 -2 1 -6
-4 -5 3 0 -6 -3 0 -7
-5 -5 3 0 -6 -3 0 -7
-5 -5 4 -2 -6 -3 0 -7
-6 -5 4 -2 -6 -3 0 -7
-6 -5 4 -2 -6 -3 0 -7
-7 -5 5 -3 -6 -4 1 -6
-7 -5 5 -3 -6 -4 1 -6
-7 -6 5 -3 -7 -4 0 -6
-7 -6 5 -3 -7 -4 0 -6
-7 -6 5 -3 -7 -4 0 -6
-6 -7 4 -3 -8 -5 -2 -7
-5 -7 4 -4 -8 -5 -3 -7
-5 -6 3 -5 -9 -6 -3 -8
-4 -6 3 -5 -9 -6 -4 -8
-4 -6 3 -6 -9 -6 -4 -8
-3 -5 2 -7 -10 -7 -5 -9
-3 -5 2 -7 -10 -7 -5 -9
-4 -6 2 -7 -10 -7 -5 -9
-4 -6 2 -7 -10 -7 -5 -9
-4 -6 2 -7 -10 -7 -5 -9
-5 -7 2 -7 -11 -7 -5 -9
-5 -7 2 -6 -11 -7 -5 -9
-4 -7 2 -6 -11 -7 -5 -9
-4 -7 2 -5 -11 -7 -5 -9
-4 -7 2 -5 -11 -7 -5 -9
-3 -6 2 -4 -10 -8 -5 -9
-4 -6 2 -5 -10 -8 -5 -9
-4 -6 2 -5 -11 -8 -6 -10
-5 -6 2 -6 -11 -8 -6 -10
-5 -6 2 -6 -11 -8 -6 -10
-6 -6 1 -7 -12 -8 -7 -11
-6 -6 1 -7 -12 -8 -6 -11
-6 -6 1 -7 -12 -8 -6 -10
-6 -6 1 -7 -12 -8 -5 -10
-6 -6 1 -7 -12 -8 -5 -10
-7 -7 2 -7 -11 -7 -4 -9
-7 -7 1 -8 -12 -7 -4 -10
-8 -8 0 -8 -12 -8 -5 -10
-8 -8 0 -9 -13 -8 -5 -11
-8 -8 -2 -9 -13 -8 -5 -11
-9 -9 -3 -10 -14 -9 -6 -12
-9 -9 -3 -10 -14 -9 -6 -12
-9 -9 -2 -10 -14 -9 -6 -12
-9 -9 -2 -10 -14 -9 -6 -12
-9 -9 -2 -10 -14 -9 -6 -12
-8 -8 0 -9 -13 -8 -5 -11
-8 -9 0 -9 -13 -8 -5 -11
-9 -9 0 -9 -13 -8 -5 -11
-9 -10 0 -9 -13 -8 -5 -11
-9 -10 0 -9 -13 -8 -5 -11
-10 -11 0 -9 -12 -9 -4 -10
-9 -10 0 -9 -12 -9 -4 -10
-9 -9 0 -9 -12 -9 -4 -10
-8 -9 0 -9 -12 -9 -4 -10
-8 -8 0 -9 -12 -9 -4 -10
-7 -7 -2 -9 -12 -9 -5 -11
-7 -7 -2 -9 -12 -9 -5 -11
-7 -8 -2 -9 -12 -9 -5 -11
-7 -8 -2 -9 -12 -9 -5 -11
-7 -8 -2 -9 -12 -9 -5 -11
-7 -9 -3 -9 -13 -9 -6 -10
-7 -9 -3 -9 -13 -9 -6 -10
-7 -9 -3 -9 -13 -9 -6 -10
-7 -9 -3 -9 -13 -9 -6 -10
-7 -9 -3 -9 -13 -9 -6 -10
-8 -9 -3 -9 -13 -10 -6 -11
-7 -9 -3 -9 -13 -10 -6 -11
-7 -8 -3 -9 -13 -10 -7 -11
-6 -8 -3 -9 -13 -10 -7 -11
-6 -8 -3 -9 -13 -10 -7 -11
-5 -7 -3 -10 -13 -9 -8 -10
-6 -8 -3 -10 -13 -9 -8 -11
-7 -8 -3 -10 -14 -10 -8 -11
-7 -9 -3 -10 -14 -10 -8 -12
-8 -9 -3 -10 -14 -10 -8 -12
-9 -10 -3 -11 -15 -11 -8 -13
-9 -10 -3 -11 -14 -11 -8 -12
-8 -10 -3 -11 -14 -11 -8 -12
-8 -10 -3 -11 -13 -11 -8 -11
-8 -10 -3 -11 -13 -11 -8 -11
-7 -10 -2 -10 -12 -10 -7 -10
-7 -10 -2 -10 -12 -10 -7 -10
-7 -10 -2 -9 -12 -10 -7 -11
-7 -10 -2 -9 -12 -10 -7 -11
-7 -10 -2 -9 -12 -10 -7 -11
-6 -9 -2 -8 -12 -11 -7 -12
-6 -9 -2 -8 -12 -11 -7 -12
-6 -9 -2 -9 -13 -11 -7 -11
-6 -9 -2 -9 -13 -11 -7 -11
-6 -9 -2 -9 -13 -11 -7 -11
-5 -9 -2 -10 -14 -11 -8 -10
-5 -9 -2 -10 -14 -11 -8 -10
-6 -10 -2 -10 -15 -12 -9 -11
-6 -10 -2 -10 -15 -12 -9 -11
-6 -10 -2 -10 -15 -12 -9 -11
-7 -11 -3 -11 -16 -13 -10 -12
-7 -11 -3 -10 -15 -13 -9 -11
-7 -11 -2 -9 -14 -12 -8 -10
-7 -11 -2 -8 -13 -11 -8 -10
-7 -11 -2 -7 -12 -11 -7 -9
-6 -11 0 -6 -11 -10 -6 -8
-6 -11 0 -6 -11 -10 -6 -8
-6 -10 0 -7 -12 -11 -7 -9
-6 -10 0 -7 -13 -11 -8 -10
-6 -10 0 -7 -13 -11 -8 -10
-5 -9 -2 -8 -14 -12 -9 -11
-5 -8 0 -7 -13 -11 -8 -10
-5 -7 2 -6 -11 -10 -7 -8
-5 -6 3 -5 -10 -10 -6 -7
-5 -5 4 -4 -9 -9 -5 -6
-6 -4 5 -3 -8 -8 -4 -5
-6 -3 5 -3 -8 -8 -4 -5
-6 -2 5 -2 -8 -7 -4 -6
-6 -2 5 -2 -8 -7 -4 -6
-6 0 5 -2 -8 -7 -4 -6
-5 1 6 0 -8 -6 -4 -7
-4 2 7 0 -8 -6 -4 -7
-3 3 8 1 -7 -5 -3 -6
-3 3 8 1 -6 -4 -3 -5
-2 4 9 1 -6 -4 -3 -5
0 5 10 2 -5 -3 -2 -4
0 5 10 3 -5 -3 -2 -4
-2 5 11 4 -5 -3 -2 -4
-2 5 12 4 -5 -3 -2 -4
-2 5 12 5 -5 -3 -2 -4
-3 6 13 6 -4 -3 0 -4
-2 7 13 6 -3 -2 1 -3
0 9 12 6 -2 1 2 -2
1 11 12 6 0 2 3 0
2 13 12 6 1 3 4 1
3 14 11 7 2 4 5 2
5 15 11 7 2 4 5 3
7 16 10 7 3 4 6 5
8 16 9 7 3 4 6 6
10 17 9 7 3 4 6 7
11 17 7 7 4 4 7 8
11 16 6 6 3 4 6 7
11 14 4 5 2 3 5 6
11 12 2 4 1 3 5 5
11 10 0 3 0 3 4 4
10 9 -2 2 -2 2 3 3
10 8 -2 0 -4 0 2 3
11 7 -3 -3 -6 -3 0 2
12 6 -4 -4 -7 -4 -2 2
12 5 -4 -6 -9 -6 -3 2
13 3 -5 -7 -10 -7 -4 1
11 2 -5 -7 -10 -7 -4 0
9 0 -5 -7 -10 -7 -5 -2
8 -3 -5 -7 -10 -7 -5 -3
6 -5 -5 -7 -10 -7 -5 -4
5 -6 -5 -7 -11 -8 -6 -5
4 -6 -5 -8 -12 -10 -8 -6
2 -7 -6 -10 -13 -11 -9 -8
1 -8 -6 -11 -14 -13 -11 -9
0 -8 -6 -12 -15 -14 -12 -10
-2 -9 -7 -13 -16 -15 -13 -11
-3 -10 -7 -13 -16 -15 -13 -11
-4 -12 -7 -13 -17 -15 -14 -12
-5 -13 -7 -13 -17 -15 -14 -12
-6 -14 -7 -13 -17 -15 -14 -12
-7 -15 -8 -14 -18 -16 -15 -13
-8 -17 -8 -14 -19 -17 -16 -13
-9 -18 -9 -15 -20 -18 -17 -14
-9 -20 -10 -16 -20 -18 -17 -14
-10 -21 -10 -16 -21 -19 -18 -14
-11 -22 -11 -17 -22 -20 -19 -15
-11 -22 -11 -17 -22 -20 -19 -15
-11 -22 -11 -17 -22 -20 -19 -16
-11 -22 -11 -17 -22 -20 -19 -16
-11 -22 -11 -17 -22 -20 -19 -16
-10 -21 -12 -17 -22 -20 -20 -17
-10 -21 -11 -17 -22 -20 -20 -17
-10 -21 -10 -16 -22 -20 -20 -17
-10 -21 -9 -16 -22 -20 -20 -17
-10 -21 -8 -16 -22 -20 -20 -17
-11 -21 -7 -15 -21 -20 -19 -16
-11 -21 -7 -15 -21 -20 -19 -16
-11 -20 -7 -15 -21 -20 -19 -16
-11 -19 -7 -15 -21 -20 -19 -16
-11 -19 -7 -15 -21 -20 -19 -16
-11 -18 -8 -15 -21 -19 -19 -16
-11 -18 -8 -15 -21 -19 -19 -16
-11 -19 -8 -15 -21 -19 -19 -16
-11 -19 -8 -15 -21 -19 -19 -16
-11 -19 -8 -15 -21 -19 -19 -16
-11 -20 -8 -13 -19 -19 -19 -16
-11 -20 -6 -8 -17 -18 -19 -17
-12 -21 -4 -3 -15 -17 -19 -18
-12 -21 -2 3 -13 -16 -19 -18
-12 -21 2 8 -10 -15 -19 -19
-11 -21 4 16 -3 -8 -15 -16
-5 -18 7 25 10 4 -4 -9
1 -16 10 35 22 15 7 0
6 -13 13 45 34 27 17 7
11 -11 15 54 46 38 27 14
20 -3 21 72 67 57 44 27
30 9 29 96 94 82 65 44
42 21 38 119 121 107 86 60
53 32 47 143 148 132 107 76
64 45 55 167 176 156 129 93
70 52 51 164 185 165 138 101
74 58 35 141 178 162 137 103
77 63 21 117 172 158 136 105
80 68 6 95 164 154 135 107
84 73 -10 71 157 150 134 109
75 70 -29 33 126 125 114 97
56 58 -53 -16 74 81 79 73
37 46 -76 -66 23 39 46 50
18 33 -100 -115 -28 -4 12 26
0 21 -123 -164 -79 -46 -23 3
-10 14 -135 -187 -103 -66 -39 -10
-10 12 -135 -187 -106 -68 -41 -14
-11 10 -135 -187 -109 -71 -45 -17
-12 8 -135 -187 -112 -73 -47 -21
-12 6 -135 -187 -115 -75 -49 -24
-13 4 -129 -176 -113 -75 -50 -26
-12 1 -115 -156 -104 -70 -47 -26
-10 -4 -101 -137 -95 -65 -45 -27
-9 -7 -88 -117 -86 -60 -41 -27
-8 -10 -73 -98 -76 -55 -39 -27
-7 -12 -63 -83 -69 -50 -36 -28
-7 -12 -55 -73 -62 -45 -33 -26
-6 -13 -47 -62 -55 -40 -30 -24
-6 -14 -37 -52 -48 -35 -28 -23
-6 -14 -29 -41 -41 -31 -25 -21
-5 -15 -24 -35 -36 -28 -23 -20
-6 -15 -22 -31 -33 -26 -22 -20
-8 -15 -20 -28 -31 -24 -21 -19
-9 -15 -18 -24 -28 -23 -21 -19
-10 -15 -16 -21 -26 -21 -20 -19
-11 -14 -14 -18 -24 -20 -19 -18
-9 -14 -12 -16 -22 -19 -18 -18
-8 -14 -10 -14 -20 -18 -16 -17
-7 -14 -8 -12 -19 -17 -15 -16
-5 -14 -6 -10 -17 -16 -14 -16
-4 -13 -4 -8 -16 -15 -13 -15
-5 -13 -5 -8 -16 -15 -13 -15
-6 -13 -6 -9 -17 -15 -14 -16
-6 -13 -6 -9 -17 -15 -14 -16
-7 -13 -7 -9 -17 -15 -14 -16
-8 -12 -8 -10 -18 -16 -15 -17
-8 -12 -8 -9 -17 -16 -15 -17
-7 -12 -7 -7 -16 -15 -15 -17
-6 -12 -6 -6 -15 -14 -15 -17
-6 -12 -6 -5 -14 -14 -15 -17
-5 -13 -5 -4 -13 -13 -14 -16
-5 -13 -5 -4 -13 -13 -14 -16
-5 -13 -4 -4 -13 -12 -13 -16
-5 -13 -4 -4 -13 -12 -12 -16
-5 -13 -4 -4 -13 -12 -12 -16
-6 -13 -3 -4 -12 -11 -11 -15
-6 -13 -3 -4 -12 -11 -11 -15
-7 -13 -2 -3 -11 -11 -11 -15
-7 -13 0 -2 -10 -11 -11 -15
-7 -13 0 -2 -10 -11 -11 -15
-8 -12 1 0 -9 -11 -11 -15
-7 -12 1 0 -9 -11 -11 -15
-6 -12 0 0 -9 -10 -10 -15
-6 -12 0 0 -9 -9 -9 -15
-5 -12 0 0 -9 -9 -9 -15
-4 -11 -2 0 -8 -8 -8 -15
-4 -11 -2 0 -8 -8 -8 -15
-5 -11 0 1 -8 -8 -8 -15
-5 -11 0 2 -8 -8 -8 -15
-5 -11 0 2 -8 -8 -8 -15
-6 -12 1 3 -7 -8 -7 -14
-5 -11 1 3 -7 -8 -7 -14
-4 -10 1 3 -7 -8 -7 -14
-4 -10 1 3 -7 -8 -7 -14
-3 -9 1 3 -7 -8 -7 -14
-2 -8 1 2 -7 -8 -7 -15
-2 -8 1 2 -6 -8 -7 -15
-2 -9 2 3 -5 -7 -7 -15
-2 -9 2 3 -5 -6 -7 -15
-2 -9 2 3 -4 -6 -7 -15
-2 -10 3 4 -3 -5 -7 -15
0 -8 3 4 -3 -5 -7 -15
1 -7 2 4 -3 -5 -6 -15
2 -6 2 4 -3 -5 -5 -15
3 -4 2 4 -3 -5 -5 -15
4 -3 1 5 -3 -4 -4 -15
4 -3 2 5 -3 -4 -4 -15
4 -3 3 6 -2 -4 -4 -15
4 -3 4 7 -2 -4 -4 -15
4 -3 5 7 -2 -4 -4 -15
5 -4 6 8 0 -3 -3 -14
5 -4 6 8 0 -3 -3 -14
5 -4 6 8 0 -3 -3 -14
5 -5 6 8 0 -2 -2 -14
5 -5 6 8 0 -2 -2 -14
4 -6 5 8 1 0 0 -13
4 -5 5 9 1 0 0 -13
4 -5 5 9 2 0 0 -13
5 -4 6 10 3 1 1 -12
5 -3 6 11 3 1 1 -12
6 -2 7 12 4 2 2 -11
6 -2 7 12 5 3 3 -11
6 0 7 13 5 4 4 -10
6 1 8 14 6 6 6 -9
6 1 8 14 7 7 7 -9
6 2 9 15 8 8 8 -8
7 3 9 16 9 9 8 -7
7 4 9 17 10 9 9 -7
8 6 10 18 12 10 10 -6
9 7 10 19 13 11 10 -5
10 8 11 20 14 12 11 -4
10 8 11 20 14 13 13 -3
11 9 11 20 14 14 14 -2
12 10 10 20 15 16 15 0
12 10 10 20 15 17 17 1
13 11 9 21 16 18 18 2
14 13 9 21 17 19 19 2
15 14 9 21 18 20 20 3
17 15 9 22 20 21 22 4
18 17 9 22 21 22 23 4
19 18 10 23 22 23 24 5
19 18 10 23 22 23 24 5
20 19 10 24 22 23 25 5
21 20 10 25 22 24 26 6
21 20 10 25 22 24 26 6
22 21 9 26 23 25 27 7
23 21 9 26 24 26 28 8
23 21 9 26 24 27 29 9
24 21 9 26 25 28 30 10
25 21 9 26 26 29 31 11
26 22 8 27 27 30 32 12
26 23 8 27 27 30 33 13
26 23 8 27 28 30 33 13
26 24 7 26 29 31 34 14
26 25 7 26 29 31 35 15
27 26 6 25 30 32 36 16
27 26 6 25 30 32 36 16
27 26 6 25 30 32 36 16
26 27 6 24 29 32 36 16
26 27 6 24 29 32 36 16
25 28 6 23 28 33 35 15
25 28 6 23 28 33 35 15
25 28 6 23 29 33 36 16
25 28 7 24 30 33 37 17
25 28 7 24 30 33 37 17
26 29 8 25 31 34 38 18
26 29 8 25 31 34 38 18
26 29 8 25 31 34 38 18
26 28 9 26 30 34 38 17
26 28 9 26 30 34 38 17
25 27 10 27 29 34 37 16
25 27 10 27 29 34 37 15
25 27 10 27 28 34 36 14
24 27 10 27 27 33 35 13
24 27 10 27 27 33 35 12
23 26 10 26 26 32 34 11
21 26 10 26 26 31 33 10
20 25 10 26 25 30 33 9
19 24 10 25 24 29 32 8
17 24 10 25 24 28 31 7
16 23 11 24 23 27 30 6
16 23 11 24 22 25 28 5
16 22 11 24 21 24 26 4
15 21 10 23 20 23 24 2
15 21 10 23 19 21 22 1
14 19 9 22 18 20 20 0
13 16 10 21 17 19 19 -2
12 14 10 21 17 18 18 -3
11 11 11 20 16 17 17 -4
10 8 12 19 15 16 16 -5
9 6 13 18 14 15 15 -6
7 5 12 17 12 13 13 -8
6 4 11 16 10 12 12 -9
5 2 9 15 8 10 10 -10
3 1 8 14 6 8 8 -12
2 0 7 13 4 7 7 -13
2 -2 7 13 4 7 7 -14
2 -3 7 12 4 6 6 -14
1 -5 8 11 3 5 5 -15
1 -6 8 11 3 5 5 -16
0 -7 9 10 2 4 4 -17
0 -6 9 9 1 4 4 -17
0 -6 9 8 1 3 3 -17
0 -5 9 7 0 2 2 -17
0 -4 9 6 -2 2 2 -17
-2 -3 8 5 -3 1 1 -18
-2 -3 8 5 -3 1 1 -18
-2 -3 8 5 -3 1 1 -18
-2 -4 8 5 -4 1 0 -19
-2 -4 8 5 -4 1 0 -19
-3 -5 8 4 -5 0 -2 -20
-3 -5 8 3 -5 0 -2 -20
-3 -6 7 3 -5 0 -3 -20
-3 -7 6 2 -6 -2 -4 -21
-3 -7 6 1 -6 -2 -4 -21
-4 -8 5 0 -7 -3 -5 -22
-4 -8 5 0 -7 -3 -5 -22
-3 -8 5 0 -7 -3 -5 -22
-2 -8 6 0 -7 -3 -5 -22
-2 -8 6 0 -7 -3 -5 -22
0 -7 7 0 -8 -4 -5 -22
0 -7 7 0 -8 -4 -5 -22
0 -7 7 0 -8 -4 -5 -22
-2 -8 7 0 -8 -4 -4 -22
-2 -8 7 0 -8 -4 -4 -22
-3 -9 6 0 -7 -4 -3 -22
-3 -9 6 0 -7 -4 -3 -22
-3 -9 6 0 -7 -4 -3 -22
-3 -9 6 0 -7 -4 -3 -22
-3 -9 6 0 -7 -4 -3 -22
-3 -8 7 0 -7 -4 -3 -22
-3 -8 7 0 -7 -4 -3 -22
-4 -9 7 0 -7 -4 -3 -22
-5 -10 7 0 -7 -4 -3 -22
-5 -10 7 0 -7 -4 -3 -22
-6 -11 8 1 -7 -3 -4 -22
-6 -10 8 1 -7 -3 -4 -22
-5 -9 8 1 -7 -3 -4 -22
-4 -7 8 1 -7 -3 -4 -22
-4 -6 8 1 -7 -3 -4 -22
-3 -5 9 2 -7 -4 -4 -22
-3 -5 9 2 -7 -4 -4 -22
-2 -5 9 2 -7 -4 -4 -22
0 -5 9 2 -6 -4 -4 -22
0 -5 9 2 -6 -4 -4 -22
1 -4 9 2 -5 -3 -3 -22
0 -5 9 2 -5 -3 -3 -22
-2 -5 9 2 -5 -3 -3 -22
-3 -6 8 2 -5 -2 -3 -22
-4 -7 8 2 -5 -2 -3 -22
-5 -8 7 3 -5 0 -2 -22
-4 -8 7 3 -5 0 -2 -22
-2 -7 7 2 -5 0 -2 -22
0 -6 7 1 -6 0 -2 -22
2 -6 7 1 -6 0 -2 -22
3 -5 7 0 -7 -2 -3 -22
3 -5 7 1 -6 -2 -3 -22
2 -5 8 1 -6 0 -2 -21
1 -6 9 2 -5 1 0 -20
1 -6 9 3 -4 1 0 -20
0 -7 10 4 -3 2 1 -19
0 -7 10 4 -3 2 1 -19
0 -7 10 4 -3 2 1 -19
0 -7 10 4 -4 1 1 -20
0 -7 10 4 -4 1 1 -20
0 -7 10 3 -5 0 0 -21
0 -7 10 3 -5 0 0 -21
0 -7 9 3 -5 0 0 -21
0 -7 8 2 -6 0 -2 -22
0 -7 8 2 -6 0 -2 -22
0 -6 7 1 -7 -2 -3 -23
0 -6 7 1 -7 -2 -3 -23
0 -6 7 1 -7 -2 -3 -23
-2 -6 7 1 -7 -2 -3 -23
-2 -6 7 1 -7 -2 -3 -23
-3 -7 7 0 -6 -2 -3 -24
-3 -8 7 0 -6 -2 -3 -24
-4 -8 7 0 -6 -2 -3 -24
-5 -9 7 0 -6 -2 -3 -24
-5 -10 7 0 -6 -2 -3 -24
-6 -11 7 0 -6 -3 -3 -23
-5 -11 7 0 -6 -3 -3 -23
-4 -11 7 0 -6 -3 -3 -23
-3 -11 7 0 -6 -3 -3 -23
-2 -11 7 0 -6 -3 -3 -23
0 -10 8 -2 -7 -3 -3 -22
0 -10 8 -2 -7 -3 -3 -22
-2 -10 8 -3 -7 -3 -3 -22
-3 -10 8 -4 -8 -3 -3 -22
-3 -10 8 -4 -8 -3 -3 -22
-4 -9 7 -5 -9 -4 -4 -23
-4 -9 6 -5 -10 -4 -5 -23
-4 -9 5 -6 -10 -4 -5 -23
-4 -9 4 -7 -11 -5 -6 -23
-4 -9 3 -7 -12 -5 -7 -23
-5 -10 2 -8 -13 -6 -8 -23
-5 -10 2 -7 -13 -6 -7 -21
-5 -10 3 -7 -12 -6 -7 -19
-5 -10 4 -6 -11 -5 -6 -17
-5 -10 4 -5 -11 -5 -5 -15
-5 -9 5 -4 -10 -4 -4 -13
-5 -9 5 -5 -10 -4 -4 -13
-5 -9 4 -5 -10 -4 -4 -13
-5 -9 3 -6 -10 -5 -5 -14
-5 -9 3 -7 -10 -5 -5 -14
-4 -10 2 -8 -10 -6 -6 -15
-4 -10 2 -8 -10 -6 -6 -15
-4 -10 2 -8 -10 -6 -6 -15
-5 -11 3 -7 -10 -6 -6 -15
-5 -11 3 -7 -10 -6 -6 -15
-6 -12 4 -6 -11 -6 -6 -15
-6 -12 4 -6 -11 -6 -6 -15
-6 -12 4 -6 -11 -6 -6 -15
-6 -12 4 -7 -12 -7 -6 -15
-6 -12 4 -7 -12 -7 -6 -15
-6 -12 3 -8 -13 -8 -6 -16
-6 -12 3 -8 -13 -8 -6 -16
-6 -12 3 -8 -13 -8 -6 -16
-6 -12 4 -8 -13 -8 -6 -16
-6 -12 4 -8 -13 -8 -6 -16
-5 -11 5 -8 -13 -8 -6 -15
-5 -11 5 -8 -13 -8 -6 -15
-5 -10 5 -8 -13 -8 -6 -15
-4 -10 5 -8 -13 -8 -6 -15
-4 -9 5 -8 -13 -8 -6 -15
-3 -8 4 -8 -13 -7 -7 -16
-4 -10 4 -8 -13 -7 -7 -16
-5 -11 4 -8 -13 -7 -7 -16
-6 -13 4 -8 -13 -7 -7 -17
-8 -14 4 -8 -13 -7 -7 -17
-9 -16 4 -9 -13 -8 -8 -18
-9 -16 4 -9 -13 -8 -8 -18
-9 -15 4 -9 -13 -8 -8 -18
-9 -15 4 -9 -13 -8 -8 -18
-9 -14 4 -9 -13 -8 -8 -18
-9 -13 3 -10 -14 -8 -8 -18
-9 -13 3 -10 -14 -8 -8 -18
-8 -12 3 -10 -14 -8 -8 -18
-8 -12 3 -10 -14 -8 -8 -18
-7 -11 3 -10 -14 -8 -8 -18
-6 -10 3 -9 -13 -9 -8 -19
-6 -10 3 -9 -13 -9 -8 -19
-6 -10 3 -9 -13 -9 -8 -19
-7 -11 4 -9 -13 -8 -8 -19
-7 -11 4 -9 -13 -8 -8 -19
-8 -12 5 -8 -13 -7 -7 -18
-8 -12 5 -8 -13 -7 -7 -18
-8 -12 5 -8 -13 -7 -7 -18
-8 -12 5 -8 -13 -7 -7 -18
-8 -12 5 -8 -13 -7 -7 -18
-8 -12 4 -9 -13 -7 -7 -17
-8 -12 4 -9 -13 -7 -7 -17
-8 -12 4 -9 -13 -7 -7 -17
-8 -13 4 -9 -13 -7 -7 -17
-8 -13 4 -9 -13 -7 -7 -17
-9 -14 3 -9 -13 -7 -7 -16
-9 -14 3 -9 -13 -7 -7 -16
-9 -14 3 -9 -13 -7 -7 -16
-9 -14 3 -9 -13 -7 -7 -16
-9 -14 3 -9 -13 -7 -7 -16
-9 -13 3 -9 -12 -7 -8 -16
-9 -13 3 -9 -12 -7 -8 -16
-9 -13 3 -9 -12 -7 -8 -16
-9 -13 3 -9 -12 -7 -8 -16
-9 -13 3 -9 -12 -7 -8 -16
-8 -12 2 -8 -13 -7 -8 -16
-8 -11 3 -7 -13 -7 -8 -16
-8 -11 5 -5 -12 -7 -7 -16
-8 -10 6 -4 -12 -6 -7 -15
-8 -9 8 -2 -11 -6 -6 -15
-8 -8 9 0 -10 -5 -5 -14
-7 -6 10 1 -9 -4 -4 -13
-6 -3 10 1 -8 -3 -3 -12
-5 0 11 2 -7 -2 -2 -11
-3 2 12 3 -5 0 1 -9
-2 4 13 4 -4 1 2 -8
-2 4 13 4 -4 1 2 -8
-3 4 13 4 -4 0 1 -9
-3 4 12 4 -5 0 1 -9
-4 4 12 4 -5 -2 0 -10
-5 3 11 3 -6 -3 -2 -11
-5 3 12 4 -5 -2 0 -10
-5 3 12 4 -4 0 1 -10
-5 3 13 5 -3 1 2 -9
-5 3 14 6 -2 3 3 -8
-4 3 15 7 0 4 4 -7
-3 5 15 7 0 4 4 -6
-2 8 15 7 0 4 5 -5
0 10 15 7 1 5 5 -4
2 12 15 7 1 5 6 -2
3 14 14 7 2 6 7 0
4 15 13 7 2 6 7 0
5 16 12 7 2 6 8 0
6 17 11 7 3 7 8 1
8 18 10 7 3 7 9 1
9 19 9 6 4 8 10 2
9 17 7 5 2 6 9 1
9 16 6 3 1 5 7 0
9 14 4 2 -2 3 6 -2
9 13 3 1 -3 2 5 -3
8 11 1 -2 -5 0 3 -4
8 9 1 -2 -5 0 3 -4
8 7 1 -2 -5 0 3 -5
9 6 0 -3 -5 0 3 -5
9 4 0 -3 -5 0 3 -6
10 2 -2 -4 -5 1 3 -7
7 -2 -2 -4 -6 0 2 -8
4 -4 -2 -5 -7 -2 1 -8
1 -7 -2 -5 -8 -3 0 -9
-2 -10 -2 -6 -9 -5 -2 -10
-5 -12 -2 -7 -10 -6 -3 -11
-6 -13 -2 -8 -11 -7 -5 -12
-8 -14 -2 -9 -13 -8 -6 -13
-9 -15 -2 -10 -14 -9 -8 -14
-10 -16 -2 -11 -15 -11 -9 -16
-12 -17 -3 -12 -17 -12 -11 -17
-12 -18 -3 -12 -17 -12 -11 -17
-12 -18 -3 -12 -17 -12 -11 -17
-12 -19 -3 -12 -17 -12 -11 -18
-12 -20 -3 -12 -17 -12 -11 -18
-13 -21 -4 -13 -16 -13 -11 -19
-13 -21 -4 -13 -17 -13 -11 -19
-13 -22 -4 -13 -17 -14 -12 -19
-14 -22 -5 -14 -18 -14 -12 -19
-14 -23 -5 -14 -19 -15 -13 -19
-15 -24 -6 -15 -20 -16 -14 -19
-15 -24 -6 -15 -20 -16 -14 -19
-15 -23 -5 -15 -20 -16 -14 -19
-15 -23 -5 -15 -20 -16 -14 -19
-15 -22 -4 -15 -20 -16 -14 -19
-15 -21 -3 -14 -21 -17 -14 -19
-15 -21 -3 -14 -21 -17 -14 -19
-15 -21 -3 -14 -21 -17 -14 -19
-15 -21 -3 -14 -20 -16 -13 -19
-15 -21 -3 -14 -20 -16 -13 -19
-15 -20 -2 -15 -19 -15 -12 -20
-15 -20 -2 -15 -19 -15 -12 -20
-15 -20 -2 -15 -19 -15 -12 -20
-16 -20 -2 -15 -19 -15 -12 -20
-16 -20 -2 -15 -19 -15 -12 -20
-17 -19 -2 -14 -18 -15 -11 -19
-17 -20 -2 -14 -18 -15 -11 -19
-16 -21 -2 -14 -17 -15 -12 -19
-16 -22 -2 -14 -17 -14 -12 -20
-15 -24 -2 -14 -16 -14 -13 -20
-14 -25 -2 -13 -14 -13 -14 -21
-14 -24 3 -6 -10 -11 -13 -20
-15 -22 8 2 -6 -9 -11 -19
-15 -20 13 8 0 -7 -10 -18
-16 -19 18 15 4 -5 -9 -17
-16 -17 22 23 11 1 -4 -14
-9 -13 24 36 27 18 11 -3
-2 -9 26 49 45 34 26 9
5 -5 29 61 61 51 40 19
12 0 31 74 77 68 55 30
20 6 33 89 96 87 71 43
29 17 38 109 122 109 92 60
39 28 43 130 148 133 112 76
50 39 47 150 174 156 134 93
60 51 51 171 200 180 154 110
68 60 52 179 215 194 168 122
64 62 33 140 187 171 152 114
60 64 15 101 159 148 137 107
56 66 -4 62 131 126 121 99
52 68 -22 22 103 103 105 91
46 68 -40 -17 71 77 87 80
30 54 -62 -60 28 39 56 57
14 40 -83 -102 -15 3 24 33
-3 27 -104 -145 -58 -34 -7 11
-18 14 -126 -187 -101 -72 -38 -13
-31 3 -142 -219 -135 -101 -63 -31
-28 3 -136 -205 -128 -96 -59 -30
-25 3 -129 -192 -120 -91 -55 -29
-22 2 -121 -179 -114 -86 -51 -28
-19 2 -115 -166 -107 -80 -48 -27
-16 1 -107 -152 -100 -75 -44 -26
-16 -4 -95 -137 -92 -71 -43 -26
-16 -7 -82 -121 -85 -67 -41 -26
-16 -11 -69 -105 -76 -63 -40 -27
-16 -15 -57 -90 -69 -59 -39 -27
-17 -18 -46 -75 -61 -55 -38 -28
-17 -18 -39 -67 -55 -50 -34 -27
-17 -18 -33 -58 -49 -46 -31 -25
-17 -18 -27 -50 -43 -40 -27 -23
-17 -18 -20 -41 -35 -36 -23 -22
-18 -17 -15 -34 -30 -32 -20 -20
-17 -16 -12 -30 -28 -30 -19 -19
-16 -14 -10 -26 -25 -29 -17 -18
-15 -13 -7 -22 -23 -27 -16 -17
-14 -12 -5 -19 -20 -25 -15 -16
-13 -10 -2 -15 -18 -23 -13 -15
-13 -10 -2 -15 -17 -23 -13 -15
-13 -10 0 -14 -16 -23 -13 -15
-13 -11 0 -13 -15 -23 -13 -15
-13 -11 1 -12 -14 -23 -13 -15
-14 -12 2 -11 -13 -22 -14 -16
-14 -12 2 -11 -13 -22 -14 -16
-14 -12 2 -11 -13 -22 -14 -16
-14 -12 1 -11 -13 -22 -14 -15
-14 -12 1 -11 -13 -22 -14 -15
-15 -13 0 -11 -14 -21 -13 -14
-15 -13 1 -10 -13 -21 -13 -14
-15 -13 2 -9 -12 -20 -12 -13
-14 -13 3 -8 -11 -19 -12 -13
-14 -13 5 -6 -9 -18 -11 -12
-13 -13 6 -5 -8 -17 -10 -11
-13 -13 6 -5 -8 -17 -10 -11
-13 -13 5 -5 -8 -17 -10 -11
-13 -13 5 -5 -8 -17 -10 -11
-13 -13 4 -5 -8 -17 -10 -11
-12 -12 3 -5 -8 -17 -10 -10
-12 -12 3 -5 -8 -17 -10 -10
-12 -12 4 -5 -8 -17 -10 -10
-12 -12 5 -5 -8 -17 -10 -10
-12 -12 6 -5 -8 -17 -10 -10
-13 -12 7 -4 -7 -17 -10 -9
-13 -12 7 -4 -7 -17 -10 -9
-13 -12 7 -4 -7 -17 -10 -9
-13 -11 6 -4 -7 -17 -10 -9
-13 -11 6 -4 -7 -17 -10 -9
-12 -10 5 -3 -6 -17 -10 -10
-12 -10 5 -3 -6 -17 -10 -10
-11 -10 5 -2 -5 -17 -10 -10
-10 -10 5 0 -5 -16 -9 -10
-9 -10 5 1 -4 -16 -9 -10
-8 -9 6 2 -3 -15 -8 -9
-8 -9 6 2 -3 -15 -8 -9
-8 -9 6 2 -3 -15 -8 -9
-8 -9 6 2 -3 -14 -8 -9
-8 -9 6 2 -3 -14 -8 -9
-8 -9 6 2 -2 -13 -8 -8
-8 -9 6 2 -2 -13 -8 -8
-8 -9 6 2 -2 -13 -8 -8
-8 -8 6 3 0 -13 -8 -8
-8 -8 6 3 0 -13 -8 -8
-8 -7 7 4 1 -13 -7 -7
-8 -7 7 4 1 -13 -7 -7
-7 -7 7 4 2 -12 -6 -6
-7 -6 7 4 2 -12 -5 -5
-6 -6 7 4 3 -11 -4 -4
-5 -5 7 4 4 -10 -3 -3
-5 -5 7 4 4 -10 -3 -3
-6 -5 7 5 4 -10 -3 -3
-6 -6 8 6 5 -10 -3 -3
-7 -6 8 7 5 -10 -3 -3
-8 -7 9 8 6 -10 -4 -3
-8 -6 9 8 6 -10 -4 -3
-7 -5 9 8 6 -9 -4 -2
-7 -4 9 9 6 -8 -3 0
-6 -3 9 9 6 -7 -3 1
-5 -2 10 10 7 -6 -2 2
-5 0 10 10 7 -6 -2 2
-5 1 10 10 8 -5 0 2
-5 2 9 11 8 -5 0 3
-5 3 9 11 9 -4 1 3
-4 5 8 12 10 -3 2 4
-4 5 8 13 11 -2 3 5
-4 5 9 14 12 0 4 6
-3 4 9 15 13 1 5 7
-3 4 10 16 14 2 6 8
-2 3 11 18 16 4 8 10
-2 4 11 18 16 4 8 10
-2 5 11 18 16 4 8 10
0 6 11 18 17 5 9 11
0 7 11 18 17 5 9 11
1 9 10 18 18 6 10 12
2 10 10 18 18 7 10 12
3 11 10 18 19 8 11 13
4 12 9 18 20 9 12 13
5 13 9 18 21 10 13 14
6 15 8 19 22 11 14 15
7 15 8 19 23 11 15 16
8 16 8 19 24 12 16 17
9 16 8 20 25 12 17 18
10 17 8 20 26 13 18 19
11 18 9 21 27 14 19 21
11 19 9 21 27 15 20 22
12 20 9 21 28 16 21 23
13 21 8 22 28 17 23 24
14 22 8 22 29 18 24 25
15 23 7 23 30 19 26 27
15 23 7 23 30 19 26 27
16 24 7 23 31 20 27 27
16 24 7 23 31 20 27 28
17 25 7 23 32 21 28 28
18 26 8 24 33 22 29 29
18 26 8 24 33 22 29 29
18 27 8 24 33 23 29 30
18 27 7 23 33 23 30 30
18 28 7 23 33 24 30 31
18 29 6 22 33 25 31 32
18 29 6 22 33 25 31 32
18 29 6 22 33 25 31 32
18 30 6 22 33 25 31 32
18 30 6 22 33 25 31 32
17 31 7 21 32 26 30 33
17 31 7 21 32 26 30 33
17 31 7 20 32 26 30 33
17 31 6 19 32 26 30 33
17 31 6 18 32 26 30 33
18 32 5 17 32 26 31 33
18 31 5 17 32 26 31 33
17 30 5 17 32 26 31 33
17 29 6 17 32 25 30 32
16 28 6 17 32 25 30 32
15 27 7 18 31 24 29 31
15 27 7 18 31 24 29 31
15 27 7 18 31 24 28 31
15 28 8 18 31 24 28 31
15 28 8 18 31 24 27 31
15 29 9 18 30 23 26 30
14 28 9 18 30 22 25 30
13 27 9 18 30 21 23 29
12 25 10 18 29 19 22 28
11 24 10 18 29 18 20 27
10 22 11 17 28 16 18 26
9 21 11 17 27 16 17 25
8 20 11 17 26 15 15 23
7 19 11 17 25 14 13 21
6 18 11 17 24 13 11 19
5 16 11 16 22 12 9 17
4 14 11 15 21 11 8 16
3 12 11 14 20 9 7 15
1 10 11 13 18 8 6 13
0 8 11 12 17 6 5 12
-3 6 10 11 15 4 4 10
-4 6 10 10 14 3 3 9
-5 6 9 9 12 1 2 8
-6 6 8 8 10 0 0 7
-7 6 7 7 8 -3 -2 6
-8 5 6 5 6 -5 -4 4
-8 5 6 5 6 -5 -4 4
-8 4 6 4 5 -5 -5 3
-8 4 7 4 5 -5 -6 3
-8 3 7 3 4 -5 -7 2
-8 2 8 2 3 -6 -8 1
-8 2 8 2 3 -6 -8 1
-9 1 7 1 2 -7 -9 0
-9 1 6 1 1 -7 -9 -2
-10 0 5 0 0 -8 -10 -3
-11 -2 4 -2 -2 -9 -11 -4
-11 -2 4 -2 -2 -9 -11 -4
-11 -2 4 -2 -2 -9 -11 -4
