I II V1 V2 V3 V4 V5 V6
-5 -18 -4 -4 -21 -22 -20 -7
-5 -18 -4 -4 -21 -22 -20 -7
-5 -18 -4 -4 -22 -22 -20 -8
-6 -19 -5 -4 -22 -22 -21 -8
-6 -19 -5 -4 -23 -22 -21 -9
-6 -19 -5 -4 -23 -22 -21 -9
-7 -20 -6 -5 -24 -23 -22 -10
-6 -19 -6 -5 -24 -23 -22 -10
-6 -19 -6 -5 -24 -23 -22 -10
-5 -18 -6 -5 -24 -23 -22 -10
-5 -18 -6 -5 -24 -23 -22 -10
-4 -17 -7 -5 -23 -23 -22 -9
-5 -17 -7 -5 -23 -23 -22 -9
-5 -17 -7 -5 -23 -23 -22 -10
-6 -17 -7 -5 -23 -23 -22 -10
-6 -17 -7 -5 -23 -23 -22 -10
-7 -16 -8 -6 -24 -23 -21 -11
-7 -16 -8 -6 -24 -23 -21 -11
-7 -16 -8 -6 -24 -23 -22 -11
-7 -16 -8 -6 -24 -23 -22 -11
-7 -16 -8 -6 -24 -23 -22 -11
-7 -17 -9 -6 -23 -24 -23 -10
-7 -17 -9 -6 -23 -24 -23 -10
-6 -17 -8 -6 -24 -24 -22 -10
-6 -17 -8 -6 -24 -24 -22 -10
-6 -17 -8 -6 -24 -24 -22 -10
-5 -18 -7 -6 -25 -23 -21 -11
-4 -17 -7 -6 -25 -23 -21 -11
-4 -16 -7 -6 -25 -23 -21 -11
-3 -15 -7 -6 -25 -23 -21 -11
-3 -14 -7 -6 -25 -23 -21 -11
-3 -13 -7 -6 -24 -23 -22 -10
-4 -14 -7 -6 -24 -23 -22 -10
-6 -15 -7 -6 -25 -23 -22 -11
-7 -16 -7 -6 -25 -23 -22 -11
-8 -17 -7 -6 -25 -23 -22 -11
-8 -18 -8 -6 -25 -24 -23 -12
-7 -18 -8 -6 -24 -24 -23 -12
-6 -18 -7 -7 -23 -24 -23 -11
-5 -18 -7 -7 -22 -24 -23 -11
-4 -18 -7 -7 -21 -24 -23 -11
-3 -17 -6 -8 -20 -23 -23 -10
-3 -17 -6 -8 -21 -23 -23 -10
-4 -17 -6 -8 -21 -23 -23 -10
-4 -17 -6 -8 -22 -23 -23 -10
-4 -17 -6 -8 -22 -23 -23 -10
-5 -16 -7 -7 -23 -22 -22 -11
-5 -16 -8 -7 -23 -22 -22 -11
-5 -16 -8 -7 -23 -22 -22 -11
-5 -16 -9 -7 -23 -22 -22 -11
-5 -16 -9 -7 -23 -22 -22 -11
-6 -15 -9 -6 -22 -23 -23 -10
-6 -15 -8 -6 -22 -23 -23 -10
-6 -16 -7 -6 -22 -23 -22 -10
-6 -16 -6 -6 -22 -23 -22 -10
-6 -16 -5 -6 -22 -23 -22 -10
-5 -17 -4 -7 -23 -24 -21 -9
-5 -17 -4 -7 -23 -24 -21 -9
-4 -17 -5 -7 -23 -24 -21 -9
-4 -17 -5 -7 -23 -24 -21 -9
-4 -17 -5 -7 -23 -24 -21 -9
-3 -16 -6 -7 -23 -24 -22 -10
-4 -16 -6 -7 -23 -24 -22 -10
-4 -16 -6 -7 -23 -24 -22 -10
-5 -16 -6 -7 -23 -24 -22 -10
-5 -16 -6 -7 -23 -24 -22 -10
-6 -16 -5 -7 -24 -23 -23 -11
-6 -16 -5 -7 -24 -23 -23 -11
-5 -16 -5 -7 -24 -23 -23 -10
-5 -16 -5 -7 -24 -23 -23 -10
-5 -16 -5 -7 -24 -23 -23 -10
-4 -15 -6 -8 -23 -23 -22 -9
-5 -15 -6 -8 -23 -23 -22 -9
-5 -15 -6 -8 -23 -23 -22 -10
-6 -15 -6 -8 -23 -23 -22 -10
-6 -15 -6 -8 -23 -23 -22 -10
-7 -16 -5 -8 -24 -22 -22 -11
-7 -16 -5 -8 -23 -22 -22 -10
-6 -15 -5 -8 -23 -22 -22 -10
-6 -15 -5 -8 -22 -22 -22 -9
-6 -15 -5 -8 -22 -22 -22 -9
-5 -14 -5 -8 -21 -22 -22 -8
-5 -14 -5 -7 -21 -22 -22 -8
-4 -13 -5 -6 -21 -22 -22 -8
-4 -13 -5 -5 -21 -22 -22 -8
-4 -13 -5 -4 -21 -22 -22 -8
-3 -12 -4 -3 -20 -21 -21 -8
-3 -11 -4 -3 -19 -20 -21 -8
-3 -10 -3 -2 -19 -20 -20 -7
-3 -9 -3 -2 -18 -19 -20 -7
-3 -8 -3 -2 -18 -19 -20 -7
-3 -6 -2 0 -17 -18 -19 -6
-3 -5 0 1 -17 -17 -19 -6
-3 -4 0 1 -16 -17 -18 -6
-3 -3 1 2 -16 -16 -18 -6
-3 -2 1 2 -16 -16 -18 -6
-2 0 2 3 -15 -15 -17 -5
-2 0 2 3 -15 -15 -17 -5
-3 -2 3 3 -15 -15 -17 -5
-3 -2 3 3 -15 -15 -17 -5
-3 -2 3 3 -15 -15 -17 -5
-4 0 4 3 -15 -16 -17 -6
-3 2 3 3 -15 -15 -16 -5
-2 5 3 3 -14 -15 -14 -4
0 7 2 3 -14 -14 -13 -3
1 9 2 3 -14 -14 -12 -3
2 10 0 1 -13 -13 -11 -2
2 10 -3 -2 -14 -13 -12 -2
2 9 -4 -3 -15 -14 -12 -2
2 9 -6 -5 -16 -14 -13 -2
2 9 -7 -6 -16 -14 -13 -2
1 8 -8 -7 -17 -15 -14 0
0 7 -9 -8 -18 -15 -15 0
0 7 -9 -9 -18 -16 -15 -2
-2 6 -10 -10 -19 -16 -16 -2
-2 6 -10 -10 -19 -16 -16 -2
-3 5 -11 -11 -19 -17 -17 -3
-2 5 -11 -10 -18 -16 -16 -2
-2 6 -10 -9 -17 -15 -15 -2
0 6 -10 -8 -16 -14 -14 0
0 6 -10 -8 -15 -13 -14 0
1 7 -9 -7 -14 -12 -13 1
2 6 -9 -7 -14 -12 -13 1
2 5 -8 -7 -15 -13 -14 0
3 4 -8 -7 -15 -13 -14 0
3 4 -8 -7 -15 -13 -14 0
3 2 -7 -9 -17 -15 -16 -3
1 1 -8 -10 -18 -17 -17 -5
-2 0 -9 -11 -20 -18 -18 -6
-4 -2 -10 -12 -21 -20 -19 -8
-5 -3 -11 -13 -22 -21 -20 -9
-6 -4 -12 -14 -23 -22 -21 -10
-6 -5 -12 -14 -24 -22 -21 -10
-6 -5 -12 -15 -24 -23 -22 -10
-6 -6 -12 -15 -25 -23 -22 -10
-6 -6 -12 -15 -25 -23 -22 -10
-5 -7 -13 -16 -26 -24 -23 -9
-5 -7 -14 -16 -26 -24 -23 -9
-5 -8 -14 -16 -26 -24 -24 -10
-5 -8 -15 -16 -26 -24 -24 -10
-5 -8 -15 -16 -26 -24 -24 -10
-5 -9 -16 -17 -26 -25 -25 -11
-5 -9 -16 -17 -26 -25 -25 -11
-4 -9 -16 -17 -27 -25 -25 -11
-4 -9 -16 -17 -27 -25 -25 -11
-4 -9 -16 -17 -27 -25 -25 -11
-3 -8 -17 -18 -28 -26 -26 -11
-3 -9 -16 -17 -27 -25 -26 -11
-4 -10 -15 -16 -26 -25 -25 -11
-4 -11 -14 -15 -25 -24 -25 -11
-4 -11 -14 -15 -24 -24 -25 -11
-5 -12 -13 -14 -23 -23 -24 -10
-5 -12 -13 -14 -24 -23 -24 -10
-5 -11 -13 -15 -24 -24 -24 -10
-5 -11 -13 -15 -25 -24 -24 -10
-5 -11 -13 -15 -25 -24 -24 -10
-6 -10 -14 -16 -26 -25 -24 -10
-6 -10 -14 -16 -26 -25 -24 -10
-6 -10 -14 -16 -26 -25 -25 -11
-6 -10 -14 -16 -26 -25 -25 -11
-6 -10 -14 -16 -26 -25 -25 -11
-5 -9 -15 -16 -25 -26 -26 -12
-5 -9 -15 -16 -25 -26 -26 -12
-5 -9 -15 -16 -25 -26 -26 -12
-5 -9 -15 -16 -25 -26 -26 -12
-5 -9 -15 -16 -25 -26 -26 -12
-6 -10 -14 -11 -22 -22 -26 -12
-6 -9 -12 -5 -18 -18 -25 -12
-6 -9 -10 3 -13 -14 -24 -11
-6 -8 -8 9 -9 -10 -23 -11
-6 -8 -6 16 -5 -6 -23 -11
-3 2 -2 23 12 9 -14 -6
1 11 3 31 30 24 -3 -2
4 21 8 39 49 40 8 4
6 31 12 48 67 56 19 9
9 40 16 56 86 71 29 14
16 54 -6 12 93 101 54 34
24 68 -31 -43 99 133 81 57
31 81 -58 -98 105 164 108 79
39 96 -85 -152 111 195 135 102
47 110 -111 -206 117 227 162 125
50 129 -150 -269 96 251 190 149
52 148 -191 -333 68 274 219 173
54 169 -232 -397 40 297 247 196
56 188 -273 -462 13 319 276 221
58 209 -314 -525 -15 342 304 244
53 200 -326 -534 -25 334 293 238
45 187 -335 -533 -32 319 272 225
37 173 -342 -532 -40 304 252 213
29 159 -350 -530 -48 289 231 199
22 146 -357 -529 -55 275 212 186
13 126 -346 -507 -90 202 164 156
5 103 -329 -481 -128 120 114 123
-4 81 -314 -455 -166 38 63 90
-13 60 -298 -430 -205 -45 13 57
-21 38 -281 -404 -244 -127 -38 24
-24 31 -258 -369 -233 -135 -50 14
-25 26 -233 -331 -213 -129 -54 8
-27 22 -207 -294 -191 -121 -57 3
-29 18 -183 -257 -170 -115 -61 -4
-30 13 -157 -219 -149 -109 -65 -10
-28 12 -138 -190 -129 -98 -60 -10
-25 12 -119 -163 -109 -86 -52 -8
-21 12 -100 -136 -90 -73 -44 -6
-18 12 -81 -108 -70 -61 -36 -4
-14 12 -63 -81 -51 -49 -28 -2
-12 12 -52 -66 -40 -44 -25 0
-11 11 -44 -53 -33 -38 -22 1
-9 10 -34 -39 -25 -33 -20 1
-7 9 -26 -26 -17 -29 -18 2
-6 8 -17 -13 -10 -24 -16 2
-5 7 -14 -7 -7 -23 -15 3
-4 7 -11 -4 -5 -23 -15 2
-4 7 -9 1 -3 -22 -16 1
-3 7 -7 5 0 -22 -16 0
-3 7 -5 9 2 -22 -16 -2
-2 8 -3 12 4 -20 -17 -3
-2 7 -2 15 5 -18 -16 -2
-2 6 1 19 6 -16 -15 -2
-2 5 3 22 8 -14 -14 0
-2 4 4 25 9 -12 -14 0
-3 3 5 26 10 -11 -13 1
-2 3 5 27 10 -11 -13 0
-2 3 6 28 11 -11 -14 0
0 3 6 29 11 -11 -14 -2
0 3 6 29 11 -11 -14 -2
1 2 8 31 13 -12 -14 -3
1 2 9 34 14 -11 -13 -2
2 2 11 36 16 -10 -12 0
2 2 13 38 18 -9 -10 1
2 2 14 40 19 -8 -9 1
3 2 15 42 20 -7 -8 2
3 2 15 42 20 -6 -8 2
3 2 14 42 20 -6 -8 2
3 2 14 42 20 -5 -8 2
3 2 14 42 20 -5 -8 2
2 2 13 44 20 -3 -9 1
2 2 13 46 22 -2 -8 1
2 2 14 48 23 0 -7 2
2 2 14 49 24 2 -6 2
2 2 14 51 25 3 -6 2
2 1 15 52 26 4 -5 3
2 1 16 54 26 4 -5 3
2 1 16 55 26 4 -5 3
2 1 17 56 26 4 -5 3
2 1 17 57 26 4 -5 3
1 1 18 58 27 4 -6 3
1 2 18 60 28 5 -5 3
1 2 19 61 29 6 -4 3
1 3 19 62 30 7 -3 3
1 3 19 63 31 7 -2 3
2 4 20 64 32 8 0 4
2 4 20 65 33 9 0 4
2 4 21 65 33 9 0 5
2 4 21 66 34 10 0 5
2 4 21 66 34 10 0 5
2 4 22 68 35 11 -2 6
2 5 22 70 36 12 -2 6
3 6 22 73 37 13 0 6
3 7 22 75 38 14 0 6
3 8 22 77 39 14 0 6
4 9 22 78 40 15 1 6
4 9 22 78 43 16 2 6
5 9 23 78 44 17 2 6
5 9 23 78 45 18 3 6
5 9 23 78 46 19 3 6
6 10 24 80 48 21 4 7
6 10 26 84 50 23 5 8
6 11 27 87 52 25 6 9
6 11 28 91 53 26 7 10
6 11 29 94 55 28 8 10
7 12 30 96 57 29 9 11
7 12 30 98 58 29 10 11
7 13 30 100 60 30 11 11
7 13 30 102 62 30 12 11
7 13 30 104 63 30 13 11
8 15 30 107 65 32 14 12
8 17 32 110 66 34 16 13
9 18 33 113 68 36 17 14
9 20 34 116 70 38 18 15
9 22 35 119 71 40 19 16
10 23 36 122 72 42 20 17
10 22 36 125 74 43 20 18
10 21 36 128 75 43 20 18
10 20 36 130 76 44 20 19
10 20 36 133 77 44 20 19
10 20 38 137 80 47 21 20
11 21 40 141 85 50 22 21
12 23 42 145 89 53 23 22
13 25 44 149 93 57 25 23
13 26 46 153 97 60 26 23
14 27 47 154 98 61 27 24
14 27 47 156 99 62 28 25
14 27 47 157 100 62 29 25
14 27 47 158 101 63 30 26
14 27 47 159 102 63 31 26
14 28 48 162 105 66 33 27
15 30 49 167 107 69 35 28
15 31 49 170 110 72 38 29
16 33 50 174 113 75 40 30
16 35 50 178 116 78 43 31
17 36 51 179 117 79 44 32
17 36 51 179 117 79 44 33
17 37 51 179 117 79 44 34
17 37 51 179 117 79 44 35
17 37 51 179 117 79 44 35
18 38 52 180 118 79 44 36
18 38 52 180 119 80 45 36
18 39 52 180 119 81 45 37
18 39 52 180 120 84 46 37
18 39 52 180 120 85 46 37
19 40 52 180 121 86 47 38
18 40 52 177 120 85 47 38
18 40 51 174 119 85 48 39
17 40 51 172 119 84 48 39
17 40 51 169 118 84 48 39
16 39 49 164 115 82 49 40
16 40 48 160 112 81 49 40
17 42 46 156 109 81 49 42
17 42 45 152 106 80 49 42
17 43 43 148 103 80 49 42
18 44 40 142 100 78 49 43
17 43 38 136 97 75 47 43
16 42 36 130 93 72 46 42
16 42 34 123 90 70 45 42
15 40 32 117 86 67 44 42
14 39 30 111 81 65 43 40
14 38 28 105 77 62 42 40
14 38 27 99 72 59 40 40
14 37 25 93 68 57 39 40
14 37 23 87 64 54 38 40
14 35 21 80 59 51 35 38
13 33 18 74 55 47 32 35
12 31 16 68 51 43 29 31
11 29 14 62 47 38 26 28
10 27 11 56 43 35 22 24
9 26 10 52 38 31 20 22
8 25 9 49 34 28 18 21
8 24 8 45 30 24 16 20
7 23 7 42 26 21 14 18
7 22 6 37 22 17 12 17
5 19 5 34 19 14 10 15
4 16 4 31 16 12 8 13
3 13 4 28 14 9 6 11
1 10 3 25 12 6 3 8
0 6 3 21 9 3 1 6
-2 5 2 20 7 1 0 5
0 4 2 19 5 -2 -2 5
0 4 2 19 3 -3 -3 4
1 3 2 18 1 -5 -3 4
1 3 2 18 -2 -7 -4 4
2 2 1 16 -4 -9 -6 2
1 0 0 14 -6 -12 -8 0
0 -2 -2 12 -8 -15 -10 -3
0 -3 -3 10 -11 -17 -13 -5
-2 -4 -4 8 -13 -20 -15 -7
-3 -5 -5 7 -14 -21 -16 -8
-3 -5 -5 7 -15 -21 -16 -8
-2 -5 -5 6 -15 -21 -16 -8
-2 -5 -5 6 -16 -21 -16 -8
-2 -5 -5 6 -16 -21 -16 -8
0 -4 -4 5 -17 -21 -15 -8
0 -5 -4 5 -17 -21 -15 -8
0 -5 -4 5 -16 -21 -15 -9
0 -6 -4 5 -16 -21 -15 -9
0 -6 -4 5 -16 -21 -15 -9
-2 -7 -3 6 -15 -20 -15 -10
-2 -7 -3 6 -15 -20 -15 -10
-2 -7 -3 5 -16 -20 -15 -10
-2 -7 -3 5 -16 -20 -15 -10
-2 -7 -3 5 -16 -20 -15 -10
-2 -7 -4 4 -17 -21 -15 -9
-2 -8 -5 3 -18 -22 -16 -10
-2 -8 -5 2 -19 -22 -17 -10
-2 -9 -6 2 -20 -23 -17 -11
-2 -9 -6 1 -21 -23 -18 -11
-2 -10 -7 0 -22 -24 -19 -12
-2 -10 -6 0 -22 -24 -19 -12
-2 -10 -6 1 -21 -23 -19 -12
-2 -10 -5 1 -21 -23 -19 -12
-2 -10 -5 1 -21 -23 -19 -12
-3 -11 -4 2 -20 -22 -18 -12
-3 -11 -4 2 -20 -22 -18 -12
-3 -11 -4 2 -20 -22 -18 -12
-3 -11 -4 2 -20 -22 -18 -12
-3 -11 -4 2 -20 -22 -18 -12
-2 -10 -5 2 -19 -22 -17 -11
-2 -10 -5 2 -19 -22 -16 -11
-2 -9 -4 2 -19 -22 -16 -11
-2 -9 -4 2 -19 -22 -15 -11
-2 -9 -4 2 -19 -22 -15 -11
-2 -8 -3 3 -19 -21 -14 -10
-3 -9 -4 3 -19 -22 -15 -10
-4 -10 -4 3 -20 -22 -16 -11
-4 -10 -5 3 -20 -23 -16 -11
-5 -11 -5 3 -20 -23 -17 -11
-6 -12 -6 3 -21 -24 -18 -12
-6 -10 -4 4 -19 -24 -18 -12
-5 -9 -3 5 -18 -23 -18 -12
-5 -8 -2 6 -17 -23 -18 -12
-5 -7 0 7 -16 -23 -18 -12
-4 -6 1 8 -15 -22 -17 -12
-3 -6 1 8 -15 -22 -17 -12
-2 -7 1 8 -15 -21 -17 -11
-2 -7 1 8 -15 -21 -17 -11
0 -7 1 8 -15 -21 -17 -11
1 -8 0 7 -15 -20 -16 -10
0 -8 0 7 -15 -20 -16 -10
-2 -8 0 7 -15 -20 -16 -11
-3 -8 0 7 -15 -20 -16 -11
-4 -8 0 7 -15 -20 -16 -11
-5 -7 -2 7 -14 -21 -16 -12
-5 -7 -2 7 -14 -21 -16 -12
-4 -7 -2 8 -14 -21 -16 -12
-4 -7 -2 8 -14 -21 -16 -12
-4 -7 -2 8 -14 -21 -16 -12
-3 -8 -2 9 -15 -21 -17 -13
-3 -8 -2 9 -15 -21 -17 -13
-3 -8 0 10 -15 -20 -16 -12
-3 -8 1 10 -15 -20 -16 -11
-3 -8 1 10 -15 -20 -16 -11
-2 -7 2 11 -14 -19 -15 -10
-2 -7 2 11 -14 -19 -15 -10
-2 -7 1 10 -15 -20 -16 -11
-2 -7 1 10 -15 -21 -16 -12
-2 -7 1 10 -15 -21 -16 -12
-3 -8 0 9 -16 -22 -17 -13
-3 -8 0 9 -16 -22 -17 -13
-3 -8 0 9 -16 -22 -17 -13
-3 -8 0 9 -16 -22 -17 -13
-3 -8 0 9 -16 -22 -17 -13
-3 -8 0 8 -16 -21 -17 -14
-3 -8 0 8 -16 -21 -17 -14
-3 -8 0 7 -16 -22 -17 -14
-3 -8 0 7 -16 -22 -17 -14
-3 -8 0 7 -16 -22 -17 -14
-4 -9 0 6 -17 -23 -17 -15
-4 -8 0 6 -17 -22 -17 -15
-3 -7 0 6 -17 -21 -17 -15
-3 -7 0 6 -17 -21 -17 -15
-3 -6 0 6 -17 -20 -17 -15
-2 -6 0 6 -16 -19 -17 -14
-3 -7 0 5 -16 -21 -17 -14
-4 -9 0 3 -17 -22 -18 -14
-4 -10 0 2 -18 -24 -19 -14
-5 -12 0 1 -18 -25 -19 -14
-6 -13 -2 0 -19 -26 -20 -14
-5 -12 -2 0 -19 -26 -20 -14
-4 -10 -2 1 -19 -25 -19 -14
-3 -9 -2 1 -19 -24 -19 -14
-2 -8 -2 1 -19 -24 -19 -14
0 -7 -2 2 -18 -23 -18 -15
0 -7 -2 2 -18 -23 -18 -15
0 -8 -2 1 -18 -23 -18 -15
0 -8 -2 1 -18 -23 -18 -15
0 -8 -2 1 -18 -23 -18 -15
-2 -9 0 0 -18 -24 -18 -16
-2 -9 0 0 -19 -24 -18 -16
0 -9 0 -2 -20 -24 -19 -16
0 -9 0 -3 -20 -24 -19 -16
0 -9 0 -3 -21 -24 -19 -16
1 -9 -2 -4 -22 -25 -20 -15
1 -9 -2 -4 -22 -25 -20 -15
0 -9 -2 -5 -22 -26 -20 -16
-2 -9 -2 -5 -22 -26 -20 -17
-2 -9 -2 -5 -22 -26 -20 -17
-3 -10 -3 -6 -21 -27 -21 -18
-3 -10 -3 -6 -21 -27 -21 -18
-3 -11 -3 -5 -21 -26 -20 -17
-3 -12 -3 -5 -21 -26 -19 -16
-3 -12 -3 -5 -21 -26 -19 -16
-3 -13 -3 -4 -21 -25 -18 -15
-3 -13 -3 -5 -21 -25 -19 -15
-3 -13 -3 -6 -22 -26 -20 -16
-3 -13 -3 -7 -23 -27 -20 -17
-3 -13 -3 -8 -23 -27 -21 -17
-3 -14 -3 -9 -24 -28 -22 -18
-3 -14 -3 -9 -23 -28 -21 -18
-2 -14 -3 -8 -22 -27 -20 -18
-2 -14 -3 -7 -22 -27 -20 -18
-2 -14 -3 -7 -21 -27 -19 -18
0 -14 -3 -6 -20 -26 -18 -17
0 -14 -3 -6 -20 -26 -19 -17
0 -14 -3 -7 -21 -26 -20 -17
0 -14 -3 -8 -21 -26 -20 -17
0 -14 -3 -8 -21 -26 -21 -17
-2 -14 -2 -9 -22 -27 -22 -18
-2 -14 -2 -9 -22 -27 -22 -18
-2 -14 -3 -9 -22 -27 -22 -18
-2 -14 -3 -9 -22 -27 -22 -18
-2 -14 -3 -9 -22 -27 -22 -18
-2 -13 -4 -8 -23 -27 -22 -17
-2 -13 -4 -8 -23 -27 -22 -17
-2 -14 -4 -8 -23 -27 -22 -17
-2 -15 -4 -8 -23 -27 -22 -17
-2 -15 -4 -8 -23 -27 -22 -17
-2 -16 -3 -9 -23 -27 -21 -18
-2 -16 -3 -9 -23 -27 -21 -18
-2 -16 -3 -9 -23 -27 -21 -18
-2 -16 -3 -9 -23 -27 -21 -18
-2 -16 -3 -9 -23 -27 -21 -18
0 -16 -4 -10 -24 -28 -22 -19
0 -16 -4 -10 -24 -28 -22 -19
0 -16 -3 -10 -24 -28 -22 -19
0 -16 -3 -10 -24 -28 -22 -19
0 -16 -3 -10 -24 -28 -22 -19
-2 -16 -2 -10 -23 -29 -22 -19
-2 -16 -2 -10 -23 -29 -22 -19
-2 -16 -3 -10 -23 -28 -22 -19
-2 -16 -3 -10 -23 -28 -22 -19
-2 -16 -3 -10 -23 -28 -22 -19
0 -17 -4 -11 -24 -27 -22 -18
0 -17 -4 -11 -24 -27 -22 -18
0 -17 -4 -11 -24 -27 -22 -18
0 -17 -4 -11 -24 -27 -22 -18
0 -17 -4 -11 -24 -27 -22 -18
0 -16 -3 -11 -23 -28 -21 -18
0 -16 -3 -11 -23 -28 -21 -18
1 -16 -3 -10 -23 -28 -20 -18
1 -16 -3 -10 -23 -28 -20 -18
1 -16 -3 -10 -23 -28 -20 -18
2 -17 -2 -9 -22 -27 -19 -18
2 -17 -2 -10 -22 -27 -19 -19
1 -17 -2 -11 -23 -27 -20 -20
1 -17 -2 -11 -23 -27 -21 -20
1 -17 -2 -12 -23 -27 -21 -21
0 -18 -3 -13 -24 -28 -22 -22
0 -18 -3 -13 -24 -28 -22 -21
0 -17 -2 -13 -24 -28 -22 -20
0 -17 -2 -13 -24 -28 -22 -20
0 -17 -2 -13 -24 -28 -22 -19
0 -16 0 -12 -23 -27 -22 -18
0 -16 0 -12 -23 -27 -22 -18
0 -15 0 -13 -23 -28 -22 -19
0 -15 0 -13 -23 -28 -22 -19
0 -15 0 -13 -23 -28 -22 -19
1 -14 0 -14 -24 -29 -23 -20
1 -14 0 -14 -24 -29 -23 -20
1 -15 0 -14 -24 -29 -23 -20
1 -16 0 -14 -24 -29 -23 -20
1 -16 0 -14 -24 -29 -23 -20
1 -17 0 -14 -23 -28 -22 -19
1 -17 0 -14 -23 -28 -22 -19
1 -17 0 -14 -24 -28 -22 -20
1 -17 0 -14 -24 -28 -22 -20
1 -17 0 -14 -24 -28 -22 -20
0 -17 0 -15 -25 -27 -23 -21
0 -17 0 -15 -25 -27 -23 -21
1 -17 0 -14 -24 -27 -22 -21
1 -17 0 -14 -24 -27 -22 -21
1 -17 0 -14 -24 -27 -22 -21
2 -17 1 -13 -23 -27 -21 -20
2 -16 1 -13 -23 -27 -21 -20
3 -15 0 -14 -23 -28 -22 -20
3 -14 0 -14 -23 -28 -23 -20
3 -13 0 -14 -23 -28 -23 -20
4 -12 -2 -15 -24 -29 -24 -21
4 -12 -2 -15 -24 -29 -24 -21
3 -13 -2 -15 -24 -28 -23 -20
2 -13 -2 -15 -24 -27 -23 -20
2 -13 -2 -15 -24 -27 -23 -20
1 -14 -2 -14 -24 -26 -22 -19
1 -14 -2 -14 -24 -26 -22 -19
0 -15 -2 -14 -24 -26 -22 -19
0 -15 -2 -14 -24 -26 -22 -19
0 -15 -2 -14 -24 -26 -22 -19
-2 -16 -2 -14 -25 -27 -23 -20
-2 -16 -2 -14 -25 -27 -23 -20
-2 -17 -2 -14 -24 -27 -23 -20
-2 -17 -2 -14 -24 -27 -23 -20
-2 -17 -2 -14 -24 -27 -23 -20
0 -18 0 -15 -23 -27 -23 -19
0 -17 0 -15 -23 -27 -23 -19
0 -16 0 -15 -23 -27 -23 -19
0 -16 0 -15 -23 -27 -23 -19
0 -15 0 -15 -23 -27 -23 -19
1 -14 0 -15 -23 -28 -22 -20
1 -14 0 -15 -23 -28 -22 -20
0 -15 0 -15 -23 -28 -22 -20
0 -16 0 -15 -23 -28 -22 -20
0 -16 0 -15 -23 -28 -22 -20
-2 -17 1 -14 -24 -27 -22 -19
0 -17 1 -14 -24 -27 -22 -19
1 -17 1 -14 -24 -27 -22 -19
1 -17 1 -14 -24 -27 -22 -19
2 -17 1 -14 -24 -27 -22 -19
3 -17 0 -15 -23 -27 -21 -20
2 -17 0 -15 -23 -27 -21 -19
1 -18 1 -15 -24 -27 -21 -18
0 -19 1 -15 -24 -27 -21 -18
-2 -19 1 -15 -24 -27 -21 -17
-3 -20 2 -16 -25 -28 -22 -16
-3 -20 2 -16 -25 -28 -22 -17
-3 -20 1 -17 -25 -28 -23 -18
-3 -20 0 -18 -25 -28 -24 -18
-3 -20 0 -18 -25 -28 -24 -19
-2 -19 -2 -19 -26 -29 -25 -20
-2 -19 -2 -18 -26 -28 -24 -20
-2 -18 -2 -17 -25 -27 -22 -20
-2 -17 -2 -17 -25 -27 -21 -20
-2 -17 -2 -16 -25 -26 -20 -20
-3 -16 -2 -15 -24 -25 -19 -19
-3 -16 -2 -16 -24 -25 -19 -19
-3 -16 -2 -17 -24 -25 -20 -18
-3 -16 -2 -17 -24 -25 -20 -17
-3 -16 -2 -18 -24 -25 -20 -17
-2 -17 -2 -19 -25 -26 -21 -16
-2 -17 -2 -19 -25 -26 -21 -16
0 -17 -2 -19 -25 -26 -21 -16
0 -17 -2 -19 -25 -26 -21 -16
0 -17 -2 -19 -25 -26 -21 -16
1 -17 0 -18 -24 -26 -21 -16
1 -17 0 -18 -24 -26 -21 -16
0 -18 0 -18 -24 -26 -21 -17
-2 -18 0 -18 -24 -26 -21 -17
-2 -18 0 -18 -24 -26 -21 -17
-3 -19 -2 -18 -25 -27 -22 -18
-3 -19 -2 -18 -25 -27 -22 -18
-3 -18 -2 -18 -25 -27 -22 -18
-3 -17 -2 -18 -25 -27 -22 -18
-3 -17 -2 -18 -25 -27 -22 -18
-2 -16 0 -19 -24 -26 -21 -17
-2 -16 0 -19 -24 -26 -21 -17
-2 -17 0 -19 -24 -26 -21 -17
-2 -17 0 -19 -24 -26 -21 -17
-2 -17 0 -19 -24 -26 -21 -17
-3 -18 -2 -18 -24 -27 -22 -17
-3 -18 -2 -18 -24 -27 -22 -17
-3 -18 -2 -17 -24 -27 -22 -17
-3 -17 0 -16 -24 -26 -21 -16
-3 -17 0 -16 -24 -26 -21 -16
-3 -16 1 -15 -23 -25 -20 -15
-3 -15 2 -15 -22 -25 -20 -15
-3 -14 2 -15 -22 -24 -19 -15
-2 -12 3 -15 -21 -23 -18 -14
-2 -11 4 -15 -20 -23 -18 -14
0 -10 5 -14 -19 -22 -17 -13
0 -10 6 -14 -18 -22 -17 -13
-2 -10 6 -14 -18 -22 -17 -13
-3 -10 7 -13 -17 -22 -17 -13
-3 -10 8 -13 -16 -22 -17 -13
-4 -11 9 -12 -15 -21 -18 -13
-4 -10 10 -10 -15 -21 -18 -13
-3 -9 10 -9 -15 -20 -18 -12
-2 -8 11 -7 -15 -19 -17 -11
-2 -7 12 -5 -15 -19 -17 -11
0 -6 13 -4 -15 -18 -16 -10
0 -6 13 -3 -15 -18 -16 -10
0 -6 13 -3 -15 -18 -15 -9
-2 -6 13 -2 -14 -17 -14 -8
-2 -6 13 0 -14 -17 -14 -8
-3 -6 13 1 -13 -16 -13 -7
-3 -4 11 -2 -13 -16 -13 -7
-3 -3 10 -3 -13 -16 -13 -7
-2 -2 8 -4 -14 -16 -13 -7
-2 1 6 -6 -14 -16 -13 -7
0 2 5 -7 -15 -16 -12 -6
0 2 3 -7 -16 -16 -12 -6
0 3 2 -7 -16 -16 -12 -6
1 4 1 -8 -17 -17 -12 -6
1 4 -2 -8 -18 -17 -12 -6
2 5 -3 -9 -19 -18 -13 -7
2 5 -3 -9 -19 -18 -13 -7
2 4 -3 -9 -19 -18 -13 -7
2 3 -2 -9 -19 -18 -13 -7
2 3 -2 -9 -19 -18 -13 -7
1 2 0 -10 -18 -17 -13 -6
1 2 0 -9 -18 -17 -13 -6
1 1 0 -9 -18 -17 -13 -6
1 0 0 -8 -17 -17 -13 -6
1 0 0 -7 -17 -17 -13 -6
0 -2 0 -6 -16 -16 -13 -7
0 -3 0 -6 -16 -16 -13 -7
0 -4 0 -6 -16 -16 -13 -7
0 -5 1 -7 -16 -16 -13 -7
0 -6 1 -7 -16 -16 -13 -7
-2 -7 2 -8 -16 -17 -12 -8
-2 -8 1 -9 -18 -19 -14 -10
-2 -8 0 -10 -20 -21 -16 -11
-2 -9 -2 -12 -22 -23 -18 -12
-2 -10 -3 -13 -24 -25 -20 -14
-3 -11 -4 -14 -25 -26 -21 -15
-3 -12 -4 -14 -25 -26 -21 -15
-4 -12 -4 -14 -25 -26 -21 -15
-5 -13 -5 -14 -25 -27 -21 -16
-5 -14 -5 -14 -25 -27 -21 -16
-6 -15 -6 -15 -26 -28 -22 -17
-6 -15 -6 -14 -26 -28 -22 -17
-6 -15 -5 -14 -25 -28 -21 -16
-5 -15 -4 -13 -24 -27 -20 -15
-5 -15 -4 -12 -24 -27 -20 -15
-4 -14 -3 -11 -23 -26 -19 -14
-4 -14 -3 -11 -23 -26 -19 -14
-5 -15 -3 -11 -23 -26 -19 -14
-6 -16 -3 -12 -24 -26 -20 -15
-6 -16 -3 -12 -24 -26 -20 -15
-7 -17 -3 -13 -25 -25 -21 -16
-7 -17 -3 -13 -25 -25 -21 -16
-7 -17 -3 -13 -25 -25 -21 -16
-6 -17 -3 -13 -25 -25 -21 -16
-6 -17 -3 -13 -25 -25 -21 -16
-5 -18 -2 -12 -25 -25 -20 -16
-5 -18 -2 -12 -25 -25 -20 -16
-5 -18 -2 -12 -25 -25 -20 -16
-6 -18 -2 -12 -25 -25 -21 -17
-6 -18 -2 -12 -25 -25 -21 -17
-7 -18 -3 -12 -24 -26 -22 -18
-7 -18 -3 -12 -24 -26 -22 -18
-7 -18 -3 -12 -24 -26 -22 -18
-7 -18 -3 -12 -24 -26 -22 -18
-7 -18 -3 -12 -24 -26 -22 -18
-6 -18 -3 -11 -23 -25 -23 -17
-6 -18 -3 -11 -23 -25 -23 -17
-6 -17 -3 -11 -23 -25 -23 -17
-6 -16 -3 -10 -22 -25 -23 -17
-6 -16 -3 -10 -22 -25 -23 -17
-5 -15 0 -5 -17 -23 -22 -18
-5 -13 2 7 -7 -16 -20 -18
-5 -11 4 19 5 -9 -19 -17
-5 -9 7 30 15 -2 -17 -16
-5 -8 9 42 26 6 -15 -16
-2 -2 11 49 39 20 -7 -11
4 9 12 49 59 44 11 2
10 19 13 49 77 67 28 14
15 29 15 49 96 91 46 25
20 39 16 49 115 114 63 37
26 53 3 18 121 141 86 55
31 72 -33 -58 109 171 117 79
37 91 -68 -135 96 201 148 105
44 110 -104 -211 82 232 180 131
49 130 -139 -287 70 262 212 155
53 145 -172 -349 53 285 237 176
52 156 -200 -391 28 300 256 190
51 169 -228 -432 4 314 273 203
49 180 -257 -473 -21 328 292 218
48 191 -284 -515 -46 343 310 232
44 189 -302 -533 -66 331 304 229
34 167 -303 -516 -82 280 259 201
24 143 -304 -498 -99 229 215 174
15 119 -306 -481 -115 177 171 146
6 97 -307 -464 -132 126 126 118
-3 76 -301 -443 -150 72 84 92
-11 61 -280 -418 -171 17 45 65
-18 45 -261 -392 -191 -39 7 39
-25 28 -241 -366 -212 -95 -32 13
-32 13 -222 -341 -232 -151 -71 -13
-37 3 -201 -311 -234 -178 -92 -29
-34 4 -181 -277 -207 -158 -81 -27
-32 5 -159 -243 -181 -139 -71 -26
-29 7 -138 -210 -153 -119 -62 -24
-27 8 -117 -175 -127 -100 -52 -22
-24 9 -99 -146 -104 -85 -45 -21
-21 8 -83 -122 -88 -74 -40 -19
-18 7 -68 -100 -71 -64 -36 -17
-15 6 -53 -76 -54 -55 -32 -15
-11 5 -37 -54 -37 -45 -28 -14
-9 4 -26 -36 -26 -37 -25 -12
-8 4 -21 -27 -21 -34 -23 -12
-7 4 -16 -18 -16 -31 -22 -12
-5 4 -10 -10 -11 -28 -20 -12
-4 4 -5 0 -6 -25 -18 -12
-3 3 0 7 -2 -23 -17 -12
-3 3 2 10 2 -22 -17 -12
-3 2 4 13 4 -21 -17 -12
-2 1 6 16 6 -20 -17 -12
-2 1 7 19 8 -19 -17 -12
0 0 9 21 10 -18 -18 -13
0 0 10 24 10 -17 -18 -13
0 0 11 26 10 -16 -18 -13
0 0 13 28 11 -15 -18 -13
0 0 14 30 11 -14 -18 -13
0 -2 15 32 12 -13 -17 -14
0 -2 16 34 15 -12 -17 -14
0 -2 17 36 17 -11 -17 -14
0 -3 18 38 19 -9 -16 -14
0 -3 19 39 21 -8 -16 -14
-2 -4 20 42 23 -7 -15 -15
-2 -4 20 42 23 -7 -15 -15
0 -3 20 42 23 -7 -15 -14
1 -2 20 42 22 -6 -14 -13
1 -2 20 42 22 -6 -14 -13
2 0 21 43 21 -5 -13 -12
2 -2 21 44 22 -5 -13 -12
2 -2 21 45 23 -4 -13 -12
1 -3 21 46 24 -3 -13 -13
1 -4 21 47 25 -3 -13 -13
0 -5 21 48 26 -2 -12 -14
0 -3 22 50 27 0 -11 -13
0 -2 23 51 28 2 -9 -12
0 1 25 53 30 3 -8 -11
0 2 26 54 31 5 -6 -10
1 4 27 56 32 6 -5 -9
1 4 27 56 33 6 -5 -9
1 4 27 56 33 6 -5 -9
1 4 27 56 34 7 -6 -9
1 4 27 56 35 7 -6 -9
1 3 27 57 36 8 -7 -10
1 3 27 58 36 9 -6 -10
1 3 27 59 36 9 -5 -10
2 3 27 61 36 10 -3 -10
2 3 27 62 36 11 -2 -10
3 4 28 63 37 12 0 -9
3 4 28 63 38 12 0 -9
3 4 28 64 38 12 0 -9
2 4 28 65 39 12 0 -8
2 4 28 65 40 12 0 -8
1 5 28 66 42 13 -2 -7
2 5 29 68 43 15 0 -7
3 6 30 70 44 17 1 -7
4 7 32 72 46 19 2 -6
5 7 33 74 47 20 3 -6
6 8 34 76 48 22 4 -5
6 8 34 78 49 23 4 -5
5 8 34 79 51 23 4 -5
4 7 34 81 52 24 4 -5
4 7 34 82 54 25 4 -5
3 6 34 85 55 26 5 -4
4 7 34 87 56 27 6 -3
5 7 34 88 58 28 7 -3
6 8 35 90 59 29 8 -2
7 9 35 91 61 30 9 0
8 10 36 93 62 31 10 1
9 11 37 96 65 33 11 2
9 12 37 99 68 34 11 2
10 14 38 101 70 36 12 3
11 15 39 104 73 37 13 4
12 16 40 107 75 39 14 5
12 16 40 110 77 42 15 5
12 16 40 113 79 44 17 5
12 16 42 116 81 46 18 5
12 16 42 119 82 47 20 5
11 16 43 122 85 49 21 6
11 16 44 126 88 50 21 7
11 16 44 129 91 51 22 7
11 16 45 132 94 52 22 8
11 16 46 135 97 54 23 9
10 17 47 138 99 55 24 10
11 18 48 141 101 58 26 11
12 18 49 144 103 61 28 13
13 19 50 147 105 63 29 14
15 20 51 150 107 66 31 16
16 21 52 152 109 68 33 17
16 22 53 155 112 70 34 18
16 23 54 158 114 72 34 19
16 24 55 161 116 73 35 20
16 26 56 164 119 75 36 21
15 27 57 167 121 77 37 22
15 27 57 168 122 79 38 22
15 28 57 168 123 81 39 23
15 28 57 169 125 82 40 23
15 29 57 170 127 85 43 24
16 30 58 171 128 87 44 25
17 31 58 172 128 87 45 25
18 31 58 172 129 87 46 25
19 32 58 173 129 88 47 25
21 33 58 174 130 88 48 25
22 34 57 175 131 89 49 26
22 34 57 175 131 90 50 27
21 34 57 175 131 91 50 28
21 34 58 175 131 92 51 29
20 34 58 175 131 93 52 30
19 35 59 175 132 94 53 31
19 35 59 171 130 93 53 31
19 35 59 168 128 93 52 31
19 35 58 164 127 92 52 31
19 35 58 161 125 91 51 31
20 36 57 157 121 90 50 31
19 36 55 152 117 88 50 31
18 36 52 147 113 86 50 31
17 36 50 141 109 84 50 31
16 36 48 136 105 81 50 31
15 37 46 131 101 79 50 31
15 37 44 125 98 76 48 30
15 36 42 118 94 74 46 29
15 36 39 112 91 71 44 28
15 35 37 106 87 68 42 27
15 34 35 100 82 65 39 26
14 33 34 93 77 62 37 25
13 32 32 87 72 59 34 23
12 31 31 80 68 55 32 22
11 30 29 74 63 52 30 20
10 29 28 68 58 48 28 19
9 27 27 64 54 45 25 18
8 26 26 59 50 40 23 16
7 24 25 54 46 36 21 15
6 23 23 50 42 32 18 13
5 21 22 46 37 28 16 12
4 17 21 42 34 25 13 9
4 14 20 38 30 21 10 7
3 11 19 34 27 18 7 4
2 8 18 31 23 14 4 1
1 5 17 28 20 11 2 -2
1 5 17 26 18 8 0 -3
1 5 16 23 15 6 -3 -4
1 4 16 21 13 4 -4 -5
1 4 15 19 11 1 -6 -6
0 3 14 17 9 -2 -8 -7
0 1 14 15 7 -4 -9 -8
0 -3 14 14 4 -7 -10 -10
0 -5 13 12 2 -9 -11 -11
0 -7 13 11 0 -11 -12 -12
-2 -9 12 9 -3 -13 -13 -14
-2 -9 12 9 -3 -13 -14 -14
-2 -9 12 9 -3 -14 -14 -15
-2 -10 12 9 -4 -14 -15 -15
-2 -10 12 9 -4 -15 -16 -16
-3 -11 11 8 -5 -16 -17 -17
-3 -11 11 8 -6 -17 -17 -17
-3 -11 11 7 -7 -17 -17 -17
-2 -11 11 7 -8 -18 -17 -17
-2 -11 11 6 -10 -19 -17 -17
0 -11 12 5 -11 -20 -18 -17
-2 -13 12 5 -11 -20 -18 -17
-4 -14 12 4 -11 -20 -18 -18
-5 -16 11 4 -12 -21 -19 -18
-6 -17 11 3 -12 -21 -19 -19
-8 -19 10 2 -13 -22 -20 -20
-8 -18 10 2 -13 -22 -20 -20
-7 -17 10 2 -13 -22 -20 -20
-7 -16 10 2 -13 -21 -20 -20
-6 -15 10 2 -13 -21 -20 -20
-5 -14 11 3 -13 -20 -20 -20
-5 -14 11 3 -13 -20 -20 -20
-5 -14 11 3 -13 -20 -20 -20
-5 -14 11 3 -13 -21 -20 -20
-5 -14 11 3 -13 -21 -20 -20
-4 -14 11 2 -12 -22 -21 -20
-4 -14 11 2 -12 -22 -21 -20
-5 -14 11 2 -13 -22 -21 -20
-5 -14 11 2 -13 -22 -21 -20
-6 -14 11 2 -14 -22 -21 -20
-7 -14 11 3 -15 -21 -21 -20
-7 -14 11 3 -14 -21 -21 -20
-7 -14 11 4 -14 -21 -21 -20
-6 -14 11 4 -13 -21 -21 -20
-6 -14 11 5 -12 -21 -21 -20
-5 -14 12 6 -11 -20 -20 -20
-5 -14 12 6 -11 -20 -20 -20
-5 -14 12 6 -11 -20 -20 -20
-5 -15 12 6 -11 -20 -20 -20
-5 -15 12 6 -11 -20 -20 -20
-6 -16 11 6 -12 -21 -20 -21
-6 -16 11 6 -12 -21 -20 -21
-6 -16 11 6 -11 -21 -20 -21
-6 -17 11 6 -11 -21 -20 -21
-6 -17 11 6 -10 -21 -20 -21
-7 -18 10 7 -9 -21 -20 -21
-7 -18 10 7 -9 -21 -20 -21
-7 -18 10 7 -9 -20 -20 -21
-7 -17 11 7 -9 -20 -20 -21
-7 -17 11 7 -9 -19 -20 -21
-7 -16 12 8 -10 -18 -19 -21
-7 -16 12 8 -10 -18 -19 -21
-7 -16 12 8 -9 -18 -19 -21
-7 -15 12 8 -8 -18 -19 -20
-7 -15 12 8 -7 -18 -19 -20
-6 -14 12 9 -6 -19 -20 -19
-5 -14 12 9 -6 -19 -20 -19
-4 -14 12 9 -6 -19 -20 -19
-3 -14 12 9 -7 -19 -20 -20
0 -14 12 9 -7 -19 -20 -20
1 -14 13 10 -8 -19 -20 -21
-2 -14 13 10 -8 -19 -20 -21
-4 -15 13 10 -8 -19 -20 -21
-5 -16 13 10 -7 -18 -20 -21
-7 -17 13 10 -7 -18 -20 -21
-9 -18 13 9 -6 -17 -19 -21
-9 -17 13 9 -6 -17 -19 -21
-8 -16 13 9 -6 -17 -19 -21
-8 -15 13 9 -6 -17 -19 -21
-7 -13 13 9 -6 -17 -19 -21
-6 -12 13 10 -7 -16 -19 -21
-6 -13 13 10 -7 -16 -19 -21
-7 -14 13 10 -7 -16 -19 -21
-8 -15 13 10 -6 -16 -19 -21
-9 -16 13 10 -6 -16 -19 -21
-10 -17 14 9 -5 -16 -19 -21
-9 -17 14 9 -5 -16 -19 -21
-8 -17 14 9 -6 -16 -19 -21
-7 -16 14 9 -6 -17 -19 -21
-6 -16 14 9 -7 -17 -19 -21
-5 -15 13 9 -8 -18 -20 -21
-5 -15 13 9 -8 -18 -20 -21
-5 -15 13 8 -8 -18 -20 -21
-5 -15 12 7 -9 -19 -21 -21
-5 -15 12 6 -9 -19 -21 -21
-6 -14 11 5 -10 -20 -22 -22
-6 -14 11 5 -10 -20 -22 -22
-6 -14 11 5 -10 -20 -22 -22
-6 -15 11 5 -11 -20 -21 -21
-6 -15 11 5 -11 -20 -21 -21
-6 -16 11 6 -12 -19 -20 -20
-6 -16 11 6 -12 -19 -20 -20
-6 -16 11 6 -12 -19 -20 -20
-6 -16 11 5 -12 -20 -20 -20
-6 -16 11 5 -12 -20 -20 -20
-5 -15 12 4 -12 -21 -20 -20
-5 -15 12 4 -12 -21 -20 -20
-6 -15 12 4 -13 -21 -20 -21
-6 -16 11 3 -13 -21 -21 -22
-7 -16 11 3 -14 -21 -21 -23
-8 -17 10 2 -15 -21 -22 -24
-8 -17 10 2 -15 -21 -22 -24
-8 -17 10 2 -15 -21 -22 -24
-7 -16 11 2 -15 -22 -23 -24
-7 -16 11 2 -15 -22 -23 -24
-6 -15 12 1 -15 -23 -24 -25
-6 -15 12 1 -15 -23 -24 -25
-6 -15 12 1 -15 -23 -24 -24
-6 -15 11 1 -16 -23 -24 -24
-6 -15 11 1 -16 -23 -24 -23
-5 -15 10 1 -17 -24 -24 -22
-5 -15 10 1 -17 -24 -24 -22
-5 -15 9 0 -17 -24 -24 -22
-5 -15 8 0 -17 -24 -24 -22
-5 -15 7 -2 -17 -24 -24 -22
-4 -14 6 -3 -18 -25 -24 -22
-4 -14 6 -3 -18 -25 -24 -22
-5 -14 6 -3 -18 -25 -24 -22
-5 -13 7 -2 -18 -25 -24 -21
-6 -13 7 -2 -18 -25 -24 -21
-7 -12 8 0 -17 -25 -23 -20
-7 -13 8 0 -18 -25 -24 -21
-8 -14 8 -2 -19 -26 -25 -22
-8 -15 7 -3 -20 -27 -26 -23
-9 -16 7 -4 -21 -28 -27 -25
-10 -17 6 -5 -22 -29 -28 -26
-10 -17 6 -5 -22 -29 -28 -26
-9 -16 6 -4 -22 -29 -28 -25
-9 -16 6 -4 -21 -29 -27 -25
-8 -15 6 -3 -21 -29 -27 -24
-7 -14 7 -2 -20 -28 -26 -23
-7 -14 7 -2 -20 -28 -26 -23
-7 -15 7 -3 -20 -28 -26 -23
-7 -15 6 -3 -21 -28 -26 -24
-7 -16 6 -4 -21 -28 -26 -24
-8 -17 5 -5 -22 -29 -27 -25
-8 -17 5 -5 -22 -29 -27 -25
-8 -17 5 -5 -22 -29 -27 -25
-8 -16 5 -5 -22 -29 -27 -25
-8 -16 5 -5 -22 -29 -27 -25
-8 -15 4 -5 -22 -28 -27 -24
-8 -15 4 -5 -22 -28 -27 -24
-8 -15 4 -5 -22 -28 -27 -24
-8 -15 5 -5 -22 -28 -27 -24
-8 -15 5 -5 -22 -28 -27 -24
-8 -14 6 -6 -23 -29 -27 -25
-8 -14 6 -6 -23 -29 -27 -25
-8 -14 6 -6 -23 -29 -27 -24
-8 -15 6 -6 -23 -29 -27 -24
-8 -15 6 -6 -23 -29 -27 -23
-7 -16 5 -5 -24 -29 -27 -22
-7 -16 5 -5 -24 -29 -27 -22
-7 -17 5 -5 -24 -29 -27 -22
-8 -17 5 -5 -24 -30 -27 -23
-8 -18 5 -5 -24 -30 -27 -23
-9 -19 5 -5 -23 -31 -26 -24
-9 -19 5 -5 -23 -31 -26 -24
-9 -18 5 -5 -23 -31 -26 -24
-9 -17 5 -5 -23 -30 -26 -24
-9 -16 5 -5 -23 -30 -26 -24
-9 -15 4 -6 -23 -29 -27 -24
-9 -15 4 -6 -23 -29 -27 -24
-9 -15 4 -6 -23 -29 -27 -24
-9 -15 4 -6 -23 -29 -27 -24
-9 -15 4 -6 -23 -29 -27 -24
-10 -16 3 -6 -23 -30 -28 -23
-10 -16 3 -6 -23 -30 -28 -23
-10 -16 3 -6 -23 -30 -28 -23
-10 -16 3 -6 -23 -30 -28 -23
-10 -16 3 -6 -23 -30 -28 -23
-11 -17 2 -6 -24 -31 -28 -23
-11 -17 2 -6 -24 -31 -28 -23
-11 -16 2 -6 -24 -31 -28 -23
-10 -15 3 -6 -24 -31 -28 -23
-10 -14 3 -6 -24 -31 -28 -23
-9 -13 4 -6 -23 -31 -27 -23
-9 -13 4 -6 -23 -31 -27 -23
-9 -13 4 -6 -23 -31 -27 -23
-9 -13 4 -6 -23 -31 -27 -23
-9 -13 4 -6 -23 -31 -27 -23
-8 -13 4 -6 -24 -32 -27 -23
-8 -13 4 -6 -24 -32 -27 -23
-8 -13 4 -6 -24 -32 -26 -23
-8 -14 4 -6 -24 -31 -26 -23
-8 -14 4 -6 -24 -31 -25 -23
-8 -15 4 -6 -24 -30 -24 -22
-8 -15 4 -6 -24 -30 -24 -22
-8 -15 4 -7 -24 -31 -25 -22
-9 -15 3 -7 -25 -31 -25 -23
-9 -15 3 -8 -25 -32 -26 -23
-10 -16 2 -9 -26 -33 -27 -24
-10 -16 2 -9 -26 -33 -27 -24
-10 -16 2 -9 -26 -33 -27 -24
-9 -16 2 -9 -26 -33 -27 -24
-9 -16 2 -9 -26 -33 -27 -24
-8 -16 3 -9 -25 -33 -28 -24
-9 -16 3 -9 -25 -33 -28 -24
-10 -16 3 -9 -25 -33 -28 -24
-11 -17 3 -9 -25 -33 -28 -24
-12 -17 3 -9 -25 -33 -28 -24
-13 -18 2 -9 -25 -33 -28 -24
-12 -18 2 -9 -25 -33 -28 -24
-11 -18 2 -9 -25 -33 -28 -24
-10 -18 1 -9 -25 -33 -28 -24
-9 -18 1 -9 -25 -33 -28 -24
-7 -17 0 -10 -26 -34 -28 -24
-7 -17 0 -10 -26 -34 -28 -24
-8 -17 0 -9 -26 -34 -28 -23
-8 -17 1 -8 -26 -33 -27 -23
-9 -17 1 -7 -26 -33 -27 -22
-10 -16 2 -6 -25 -32 -26 -21
-10 -16 2 -6 -25 -32 -26 -21
-10 -16 2 -7 -25 -32 -26 -21
-11 -16 2 -7 -24 -32 -26 -21
-11 -16 2 -8 -24 -32 -26 -21
-12 -16 3 -9 -23 -32 -27 -22
-12 -16 3 -9 -23 -32 -27 -22
-12 -16 3 -9 -23 -32 -27 -22
-12 -16 3 -9 -24 -32 -27 -22
-12 -16 3 -9 -24 -32 -27 -22
-11 -17 2 -9 -25 -32 -26 -21
-11 -17 2 -9 -25 -32 -26 -21
-11 -17 2 -9 -25 -32 -26 -21
-11 -17 2 -9 -25 -32 -26 -21
-11 -17 2 -9 -25 -32 -26 -21
-10 -16 1 -9 -25 -33 -25 -21
-10 -16 1 -9 -25 -33 -25 -21
-10 -16 1 -9 -25 -33 -25 -21
-11 -16 1 -9 -25 -33 -25 -21
-11 -16 1 -9 -25 -33 -25 -21
-12 -17 2 -9 -24 -33 -24 -20
-12 -17 2 -9 -24 -33 -24 -20
-11 -16 2 -9 -24 -33 -24 -20
-11 -16 2 -9 -24 -34 -24 -21
-10 -15 2 -9 -24 -34 -24 -21
-9 -14 3 -10 -24 -35 -25 -22
-9 -14 3 -9 -24 -34 -25 -22
-9 -13 4 -8 -24 -33 -25 -21
-9 -13 4 -7 -23 -32 -24 -20
-9 -12 5 -6 -23 -31 -24 -19
-10 -11 6 -5 -22 -30 -23 -18
-10 -10 6 -5 -21 -30 -23 -18
-10 -9 7 -5 -20 -29 -22 -18
-10 -8 8 -5 -19 -28 -21 -17
-10 -7 9 -5 -18 -27 -20 -17
-9 -6 10 -4 -16 -26 -19 -16
-9 -6 10 -4 -16 -26 -19 -16
-9 -6 11 -3 -16 -26 -19 -16
-8 -6 11 -3 -17 -26 -19 -16
-8 -6 12 -2 -17 -26 -19 -16
-7 -5 13 0 -18 -26 -18 -16
-7 -5 13 0 -18 -26 -18 -16
-7 -5 13 0 -17 -26 -18 -16
-7 -5 13 0 -16 -26 -18 -16
-7 -5 13 0 -15 -26 -18 -16
-8 -6 12 1 -14 -25 -17 -15
-7 -4 12 1 -14 -25 -16 -15
-6 0 11 0 -14 -25 -15 -14
-5 2 11 0 -14 -24 -14 -13
-4 5 10 -2 -14 -24 -13 -12
-2 8 9 -3 -15 -23 -12 -11
-2 8 8 -4 -15 -23 -12 -11
-3 7 6 -5 -16 -24 -13 -11
-3 7 5 -6 -16 -25 -13 -11
-4 6 3 -7 -17 -26 -14 -11
-5 5 1 -8 -18 -27 -15 -11
-5 5 1 -8 -18 -27 -15 -11
-5 5 1 -8 -18 -27 -15 -11
-6 5 1 -8 -19 -27 -14 -11
-6 5 1 -8 -19 -27 -14 -11
-7 4 1 -8 -20 -27 -13 -11
-7 3 1 -8 -20 -27 -13 -11
-7 2 1 -8 -20 -27 -13 -10
-7 1 2 -8 -19 -26 -13 -10
-7 0 2 -8 -19 -26 -13 -9
-6 -3 3 -7 -18 -25 -12 -8
-6 -4 3 -7 -18 -25 -12 -8
-7 -6 3 -7 -18 -25 -12 -9
-7 -7 3 -7 -19 -25 -13 -9
-8 -9 3 -7 -19 -25 -13 -10
-9 -11 4 -7 -20 -25 -14 -11
-9 -12 3 -8 -21 -26 -15 -12
-10 -13 2 -9 -22 -28 -16 -13
-11 -14 1 -10 -23 -30 -17 -14
-12 -15 0 -11 -24 -32 -18 -15
-13 -16 -2 -13 -25 -34 -20 -16
-13 -16 -2 -13 -25 -34 -20 -16
-13 -16 -2 -13 -26 -34 -20 -16
-12 -16 -2 -14 -26 -34 -20 -16
-12 -16 -2 -14 -27 -34 -20 -16
-11 -16 -2 -15 -28 -35 -20 -16
-11 -16 -2 -15 -28 -35 -20 -16
-11 -16 -2 -15 -28 -35 -20 -16
-11 -16 -2 -15 -28 -34 -20 -16
-11 -16 -2 -15 -28 -34 -20 -16
-12 -17 -3 -15 -27 -33 -20 -16
-12 -17 -3 -15 -27 -33 -20 -16
-12 -17 -3 -15 -27 -33 -20 -16
-13 -17 -3 -15 -28 -33 -20 -16
-13 -17 -3 -15 -28 -33 -20 -16
-14 -16 -3 -14 -29 -34 -20 -16
-14 -16 -3 -14 -29 -34 -20 -16
-13 -16 -3 -14 -29 -34 -20 -16
-13 -17 -3 -14 -28 -34 -20 -16
-12 -17 -3 -14 -28 -34 -20 -16
-11 -18 -2 -14 -27 -35 -19 -16
-11 -18 -2 -14 -27 -35 -19 -16
-11 -18 -2 -14 -27 -34 -19 -16
-10 -18 -2 -14 -27 -34 -19 -16
-10 -18 -2 -14 -27 -33 -19 -16
-9 -18 0 -14 -26 -32 -18 -16
-10 -18 0 -14 -26 -32 -18 -16
-11 -18 0 -14 -26 -33 -19 -16
-13 -18 -2 -14 -26 -34 -19 -17
-14 -18 -2 -14 -26 -35 -20 -17
-16 -19 -3 -15 -27 -36 -21 -18
-16 -19 -3 -15 -27 -36 -21 -18
-16 -19 -3 -15 -27 -36 -20 -18
-16 -20 -3 -14 -27 -35 -20 -18
-16 -20 -3 -14 -27 -35 -19 -18
-16 -21 -2 -13 -26 -34 -18 -17
-16 -21 2 -5 -18 -29 -17 -16
-15 -20 6 5 -10 -24 -15 -15
-15 -19 10 14 0 -19 -13 -14
-14 -18 14 23 8 -14 -11 -13
-13 -17 18 32 17 -8 -9 -12
-10 -7 20 39 36 13 5 -3
-7 4 22 47 56 34 19 8
-3 15 24 54 75 56 33 18
1 25 26 61 95 76 47 28
5 36 28 68 114 98 61 38
12 53 0 4 114 130 91 61
20 69 -29 -60 113 162 120 85
27 86 -58 -123 112 194 150 107
35 102 -87 -188 111 226 181 130
44 119 -115 -252 110 259 211 153
44 134 -148 -304 78 275 232 172
43 149 -182 -356 46 292 255 190
43 164 -216 -408 14 308 276 209
42 180 -248 -461 -18 324 299 227
40 195 -282 -513 -51 342 321 246
32 174 -284 -504 -66 301 284 223
23 152 -286 -494 -82 259 247 199
14 130 -289 -484 -99 218 211 175
5 108 -291 -475 -115 176 174 151
-5 86 -295 -465 -132 134 136 127
-12 69 -281 -442 -158 66 93 99
-19 53 -267 -420 -185 -2 50 71
-26 35 -254 -397 -212 -70 7 43
-32 19 -239 -376 -237 -138 -35 15
-39 3 -226 -353 -264 -205 -78 -13
-40 2 -204 -319 -239 -188 -73 -14
-40 2 -184 -285 -214 -169 -67 -14
-40 1 -162 -252 -188 -149 -60 -13
-40 1 -142 -218 -162 -130 -54 -13
-40 1 -121 -185 -137 -110 -48 -13
-37 0 -104 -159 -117 -98 -41 -10
-32 0 -88 -135 -98 -86 -35 -8
-27 1 -70 -110 -79 -73 -30 -6
-22 1 -54 -86 -60 -61 -24 -4
-17 1 -37 -61 -41 -50 -19 -2
-15 2 -30 -50 -34 -45 -17 0
-14 1 -23 -38 -28 -40 -15 1
-13 0 -17 -28 -21 -36 -13 2
-12 -2 -10 -17 -15 -32 -11 3
-11 -2 -4 -7 -9 -28 -10 3
-10 -3 0 -3 -6 -26 -9 4
-10 -3 3 2 -4 -25 -8 4
-10 -4 5 5 0 -24 -8 4
-10 -4 8 9 2 -23 -7 4
-10 -4 10 12 4 -22 -7 4
-10 -5 11 15 5 -21 -6 3
-10 -5 11 17 6 -20 -6 4
-9 -5 12 19 6 -20 -6 4
-9 -5 12 21 7 -19 -6 5
-9 -5 12 23 7 -19 -6 5
-8 -6 14 25 9 -17 -6 6
-8 -6 15 26 11 -15 -5 6
-8 -6 16 28 13 -14 -5 6
-8 -6 17 29 15 -12 -4 6
-8 -6 18 30 17 -11 -4 6
-8 -6 19 31 18 -10 -3 5
-7 -6 20 32 18 -9 -3 5
-6 -5 21 32 17 -8 -3 5
-5 -5 22 33 17 -7 -3 5
-5 -5 22 33 17 -6 -3 5
-4 -4 23 34 17 -5 -2 6
-5 -4 23 35 19 -4 0 7
-5 -4 23 36 20 -3 1 7
-6 -4 23 37 22 -2 2 8
-6 -4 23 38 23 -2 3 8
-7 -5 24 40 24 0 4 9
-7 -5 24 42 24 0 4 9
-6 -5 25 43 24 0 4 9
-6 -5 25 44 24 0 4 9
-6 -5 25 45 24 0 4 9
-5 -4 26 46 25 1 5 10
-5 -3 26 47 26 2 6 11
-5 -3 27 48 28 3 6 11
-5 -2 27 49 29 4 7 12
-5 -2 27 49 30 4 7 12
-6 0 28 50 31 6 8 13
-5 0 28 50 31 7 8 13
-4 1 29 51 31 9 9 13
-3 1 29 51 31 10 9 13
-3 1 29 51 31 11 9 13
-2 2 30 53 31 12 10 13
-2 2 30 54 32 12 10 13
-3 2 30 56 33 12 10 13
-3 2 30 57 34 12 10 13
-3 2 30 58 35 12 10 13
-4 3 30 59 36 14 11 14
-4 4 30 60 37 15 12 14
-4 5 30 61 38 17 12 14
-4 6 30 62 39 18 13 14
-4 6 30 63 39 19 13 14
-4 7 30 66 43 21 14 15
-4 7 31 68 45 22 15 16
-4 7 31 70 48 24 16 17
-4 7 32 72 50 25 17 18
-4 7 32 74 52 26 18 19
-3 7 33 76 53 27 19 20
-3 8 33 78 53 28 19 20
-2 8 34 79 53 28 20 21
-2 9 34 81 53 29 20 21
-2 9 34 82 53 29 20 21
0 10 35 86 56 31 21 22
0 10 36 89 59 32 22 23
0 11 37 92 62 34 22 23
0 11 38 95 65 35 23 24
0 11 39 97 68 36 23 24
1 13 40 100 70 39 25 26
2 14 42 102 72 42 27 28
3 16 43 105 73 45 29 30
4 17 44 107 75 47 31 32
5 18 45 109 76 49 33 33
6 19 46 112 79 51 34 34
6 20 47 116 82 53 35 34
6 21 48 119 86 55 36 34
6 22 49 122 88 57 37 34
6 22 50 126 91 59 37 34
5 23 51 129 93 61 39 35
5 23 52 132 95 63 42 36
5 24 52 135 97 65 44 36
5 24 53 138 99 67 46 37
5 24 53 141 101 69 47 37
5 25 54 144 104 71 48 38
6 26 55 146 107 73 49 39
7 26 55 149 110 75 50 40
8 27 56 152 113 77 51 42
8 27 56 154 116 79 51 43
9 29 57 156 117 81 53 44
10 30 57 158 118 84 54 45
11 31 57 159 119 86 55 46
12 32 57 161 120 88 56 47
12 33 57 162 120 89 57 47
13 34 57 163 122 91 59 48
14 35 58 164 125 93 60 49
15 36 58 165 127 94 62 50
16 37 59 167 129 96 63 51
16 38 59 167 131 97 64 52
17 39 60 168 132 98 65 53
17 40 60 168 131 98 66 54
16 40 60 167 130 99 66 55
16 42 60 167 129 99 67 56
16 42 60 167 128 99 67 57
15 43 60 163 127 100 68 58
15 43 59 160 126 100 68 58
15 43 58 157 126 99 68 58
15 43 57 155 125 99 68 58
15 43 56 152 125 99 68 58
15 44 54 147 120 97 67 59
14 44 52 142 116 95 67 59
13 43 51 137 111 93 67 59
12 43 49 132 107 91 67 59
12 43 48 127 103 89 67 59
11 42 46 120 99 86 65 59
11 42 43 113 96 84 63 58
11 42 40 107 92 80 61 56
11 42 38 101 88 77 59 55
11 42 36 94 85 75 58 54
11 39 34 88 79 71 55 53
9 38 32 82 74 68 53 52
7 37 30 76 69 64 51 51
5 36 28 71 64 60 48 50
4 35 26 65 59 57 46 49
3 32 24 60 55 53 43 46
2 28 22 55 51 49 39 44
2 25 20 49 46 44 36 40
1 22 19 44 42 39 34 37
1 19 17 38 37 35 31 35
0 18 16 34 33 31 28 32
-2 17 15 31 29 28 26 30
-3 16 14 28 24 24 23 28
-4 15 13 24 20 21 20 25
-4 15 12 21 16 17 18 23
-5 13 11 19 14 15 16 22
-5 10 11 17 12 12 14 21
-5 8 11 15 10 10 12 21
-5 6 11 13 9 8 11 20
-5 4 11 11 7 6 9 20
-4 3 10 9 4 4 8 18
-4 3 8 8 2 1 7 17
-5 2 7 7 -2 -2 6 16
-5 2 5 6 -5 -4 5 15
-5 2 4 5 -7 -6 4 14
-6 0 3 3 -8 -7 2 12
-6 -2 3 2 -9 -8 1 11
-7 -4 4 1 -10 -8 0 9
-7 -5 4 0 -11 -9 -2 8
-7 -6 4 -2 -11 -9 -3 7
-8 -7 5 -3 -12 -10 -4 6
-8 -7 5 -3 -13 -11 -4 6
-7 -7 5 -4 -13 -11 -4 6
-7 -7 5 -4 -14 -12 -4 6
-7 -7 5 -4 -14 -12 -4 6
-6 -8 5 -5 -15 -13 -5 6
-6 -9 4 -5 -16 -13 -6 5
-7 -9 4 -6 -16 -14 -7 4
-7 -10 3 -6 -17 -14 -8 3
-7 -10 3 -6 -17 -14 -8 3
-8 -11 2 -7 -18 -15 -9 2
-8 -11 2 -7 -18 -15 -9 2
-8 -11 2 -7 -18 -15 -8 2
-8 -11 2 -7 -18 -15 -8 2
-8 -11 2 -7 -18 -15 -8 2
-8 -12 3 -8 -19 -14 -7 3
-8 -12 3 -8 -19 -14 -7 3
-8 -12 3 -8 -19 -15 -7 2
-8 -12 3 -8 -19 -15 -7 2
-8 -12 3 -8 -19 -15 -7 2
-7 -12 3 -8 -19 -16 -8 1
-8 -12 3 -8 -20 -16 -9 1
-8 -13 2 -8 -21 -16 -9 0
-9 -13 2 -8 -22 -16 -10 0
-9 -13 2 -8 -22 -16 -10 0
-10 -14 1 -8 -23 -17 -11 -2
-9 -13 1 -8 -22 -16 -10 -2
-8 -12 2 -8 -22 -15 -10 0
-7 -11 2 -8 -21 -14 -9 0
-7 -10 2 -8 -21 -14 -9 0
-6 -9 3 -7 -20 -13 -8 1
-6 -9 3 -6 -20 -13 -8 1
-6 -10 3 -5 -19 -13 -8 1
-6 -10 3 -4 -19 -13 -8 1
-6 -10 3 -4 -19 -13 -8 1
-6 -11 4 -3 -18 -13 -7 1
-6 -11 4 -3 -18 -13 -7 1
-7 -12 4 -3 -18 -13 -8 1
-7 -12 4 -3 -18 -13 -8 1
-7 -12 4 -3 -18 -13 -8 1
-8 -13 3 -4 -19 -14 -9 0
-8 -12 4 -3 -18 -13 -9 0
-8 -12 4 -2 -17 -13 -8 0
-8 -11 5 0 -16 -12 -8 0
-8 -11 5 0 -16 -12 -8 0
-8 -10 6 1 -15 -11 -7 1
-8 -10 6 1 -15 -11 -7 1
-8 -10 6 1 -15 -11 -7 1
-8 -10 6 1 -15 -11 -7 1
-8 -10 6 1 -15 -11 -7 1
-7 -10 7 2 -14 -11 -7 1
-7 -10 6 2 -14 -11 -7 0
-7 -11 6 2 -14 -11 -7 0
-7 -11 5 2 -14 -11 -7 -2
-7 -11 5 2 -14 -11 -7 -2
-8 -12 4 2 -14 -13 -8 -3
-8 -12 5 3 -14 -16 -8 -3
-8 -12 5 4 -13 -19 -8 -2
-8 -12 6 5 -13 -22 -8 -2
-8 -12 6 6 -13 -25 -8 -2
-7 -11 7 7 -12 -26 -7 0
-7 -11 7 6 -12 -26 -7 0
-8 -10 7 5 -12 -26 -8 -2
-8 -10 7 4 -12 -26 -8 -2
-8 -10 7 4 -12 -26 -8 -2
-9 -9 6 3 -13 -27 -9 -3
-9 -9 6 3 -13 -27 -9 -3
-9 -10 6 3 -13 -27 -9 -3
-9 -10 6 3 -13 -27 -9 -3
-9 -10 6 3 -13 -27 -9 -3
-8 -11 5 4 -13 -26 -10 -4
-8 -11 5 4 -13 -26 -10 -4
-7 -11 5 4 -13 -26 -10 -4
-7 -11 5 4 -13 -26 -10 -4
-7 -11 5 4 -13 -26 -10 -4
-6 -11 6 5 -14 -26 -9 -3
-6 -10 6 5 -14 -26 -9 -3
-6 -10 6 5 -13 -25 -9 -3
-6 -9 6 5 -13 -25 -9 -3
-6 -9 6 5 -13 -25 -9 -3
-5 -8 6 4 -12 -24 -10 -3
-5 -8 5 3 -13 -24 -10 -3
-5 -9 5 3 -13 -24 -10 -4
-5 -9 4 2 -14 -24 -10 -4
-5 -9 4 2 -14 -24 -10 -4
-4 -10 3 1 -15 -25 -11 -5
-4 -11 3 1 -15 -25 -11 -5
-4 -11 3 0 -15 -25 -11 -5
-4 -12 3 0 -15 -25 -11 -5
-4 -12 3 0 -15 -25 -11 -5
-5 -13 2 -2 -16 -24 -12 -5
-6 -13 2 -2 -16 -24 -12 -5
-6 -13 2 -3 -17 -24 -13 -6
-7 -13 2 -3 -17 -24 -13 -6
-7 -13 2 -3 -17 -24 -13 -6
-8 -13 1 -4 -18 -25 -14 -7
-7 -13 1 -4 -18 -25 -14 -7
-7 -12 1 -4 -18 -26 -14 -7
-6 -12 1 -4 -18 -26 -14 -7
-6 -12 1 -4 -18 -26 -14 -7
-5 -11 0 -5 -19 -27 -15 -6
-5 -12 0 -5 -19 -27 -15 -6
-5 -12 0 -5 -19 -26 -15 -7
-5 -13 0 -5 -19 -26 -15 -7
-5 -13 0 -5 -19 -26 -15 -7
-6 -14 -2 -6 -20 -25 -15 -8
-6 -13 -2 -6 -20 -25 -15 -8
-5 -13 -2 -7 -20 -26 -16 -8
-5 -12 -2 -7 -20 -26 -16 -8
-5 -12 -2 -7 -20 -26 -16 -8
-4 -11 0 -8 -21 -27 -17 -9
-4 -11 0 -8 -22 -27 -17 -9
-4 -11 -2 -8 -22 -27 -17 -9
-4 -11 -2 -8 -23 -27 -17 -9
-4 -11 -2 -8 -23 -27 -17 -9
-5 -11 -3 -9 -24 -26 -18 -10
-5 -12 -3 -9 -24 -27 -18 -10
-5 -13 -3 -9 -24 -27 -18 -11
-5 -14 -3 -9 -24 -28 -18 -11
-5 -15 -3 -9 -24 -28 -18 -11
-6 -16 -4 -10 -24 -29 -19 -12
-6 -16 -4 -10 -24 -29 -19 -12
-6 -15 -4 -10 -24 -28 -19 -12
-6 -15 -4 -10 -24 -28 -19 -12
-6 -15 -4 -10 -24 -28 -19 -12
-5 -14 -4 -9 -23 -27 -19 -11
-4 -13 -4 -9 -23 -27 -19 -11
-3 -12 -4 -9 -23 -27 -19 -11
-2 -11 -4 -9 -23 -27 -19 -11
-2 -11 -4 -9 -23 -27 -19 -11
0 -10 -4 -10 -22 -27 -19 -12
-2 -11 -4 -10 -23 -27 -19 -12
-2 -12 -4 -10 -23 -27 -20 -12
-3 -13 -4 -10 -24 -27 -20 -12
-3 -14 -4 -10 -24 -27 -20 -12
-4 -15 -4 -11 -25 -27 -21 -13
-4 -15 -4 -11 -25 -27 -21 -13
-4 -15 -4 -11 -24 -26 -21 -13
-4 -15 -4 -11 -24 -26 -21 -13
-4 -15 -4 -11 -24 -26 -21 -13
-5 -16 -3 -11 -23 -25 -20 -12
-5 -16 -3 -11 -23 -25 -20 -12
-5 -16 -3 -11 -24 -25 -20 -12
-5 -16 -3 -11 -24 -25 -20 -12
-5 -16 -3 -11 -24 -25 -20 -12
-5 -15 -4 -11 -25 -25 -20 -13
-5 -15 -4 -11 -25 -25 -21 -13
-5 -15 -5 -12 -25 -26 -21 -13
-5 -15 -5 -12 -25 -26 -22 -13
-5 -15 -5 -12 -25 -26 -22 -13
-4 -16 -6 -13 -24 -27 -23 -14
-4 -16 -6 -13 -24 -27 -23 -14
-4 -16 -6 -13 -24 -27 -23 -14
-4 -16 -6 -13 -24 -27 -23 -14
-4 -16 -6 -13 -24 -27 -23 -14
-4 -16 -6 -12 -25 -27 -23 -15
-4 -16 -6 -12 -25 -27 -23 -15
-4 -16 -6 -12 -25 -27 -23 -15
-4 -16 -6 -12 -25 -27 -23 -15
-4 -16 -6 -12 -25 -27 -23 -15
-4 -15 -6 -12 -25 -28 -24 -15
-4 -15 -6 -12 -25 -28 -24 -15
-3 -15 -6 -11 -25 -27 -24 -15
-3 -15 -6 -11 -25 -27 -24 -15
-3 -15 -6 -11 -25 -27 -24 -15
-2 -15 -5 -10 -24 -26 -23 -16
-2 -15 -5 -11 -24 -26 -23 -16
-3 -15 -5 -11 -25 -26 -23 -16
-3 -15 -5 -12 -25 -26 -23 -16
-3 -15 -5 -12 -25 -26 -23 -16
-4 -16 -6 -13 -26 -26 -24 -17
-4 -16 -6 -13 -26 -26 -24 -17
-4 -16 -6 -13 -26 -26 -24 -17
-4 -16 -6 -13 -26 -26 -24 -17
-4 -16 -6 -13 -26 -26 -24 -17
-5 -17 -7 -12 -25 -26 -24 -17
-5 -16 -7 -12 -25 -26 -24 -17
-4 -16 -7 -12 -25 -26 -24 -17
-4 -15 -7 -12 -25 -26 -24 -17
-4 -15 -7 -12 -25 -26 -24 -17
-3 -14 -6 -12 -24 -25 -24 -18
-3 -14 -6 -12 -24 -25 -24 -18
-3 -15 -6 -12 -24 -25 -24 -18
-3 -15 -6 -12 -24 -25 -24 -18
-3 -15 -6 -12 -24 -25 -24 -18
-2 -16 -7 -12 -25 -25 -25 -18
-2 -16 -7 -12 -25 -25 -25 -18
-2 -16 -7 -12 -25 -25 -25 -19
-2 -16 -7 -12 -25 -25 -25 -19
-2 -16 -7 -12 -25 -25 -25 -19
-2 -15 -7 -13 -25 -26 -25 -20
-2 -15 -7 -12 -25 -26 -25 -20
-2 -15 -7 -12 -25 -26 -25 -19
-2 -15 -7 -11 -25 -26 -25 -19
-2 -15 -7 -11 -25 -26 -25 -19
0 -15 -6 -10 -24 -25 -26 -18
0 -15 -6 -10 -24 -25 -26 -18
-2 -16 -6 -11 -24 -25 -26 -19
-2 -16 -6 -11 -24 -25 -26 -19
-2 -16 -6 -11 -24 -25 -26 -19
-3 -17 -7 -12 -23 -26 -26 -20
-2 -17 -7 -11 -23 -26 -26 -20
-2 -17 -7 -11 -23 -26 -25 -19
0 -17 -7 -10 -23 -26 -25 -19
0 -17 -7 -10 -23 -26 -25 -19
1 -18 -6 -9 -23 -25 -24 -18
0 -18 -6 -9 -23 -25 -24 -18
-2 -18 -6 -9 -23 -25 -25 -18
-2 -18 -6 -9 -23 -25 -25 -18
-3 -18 -6 -9 -23 -25 -25 -18
-4 -19 -5 -10 -23 -25 -26 -19
-4 -19 -5 -10 -23 -25 -26 -19
-3 -18 -5 -10 -23 -25 -26 -19
-3 -18 -5 -10 -23 -25 -26 -19
-3 -18 -5 -10 -23 -25 -26 -19
-2 -17 -6 -11 -23 -26 -26 -19
-2 -18 -6 -11 -23 -26 -26 -19
-2 -18 -6 -11 -23 -25 -26 -19
-2 -19 -6 -11 -23 -25 -26 -19
-2 -19 -6 -11 -23 -25 -26 -19
-3 -20 -5 -12 -23 -24 -25 -18
-3 -20 -5 -12 -23 -24 -25 -18
-2 -19 -5 -11 -23 -24 -24 -17
-2 -19 -5 -11 -23 -24 -24 -17
-2 -19 -5 -11 -23 -24 -24 -17
0 -18 -4 -10 -23 -24 -23 -16
0 -18 -4 -10 -23 -24 -23 -16
-2 -18 -4 -11 -23 -24 -24 -17
-2 -18 -4 -11 -23 -24 -24 -17
-2 -18 -4 -11 -23 -24 -24 -17
-3 -17 -4 -12 -23 -25 -25 -18
-3 -17 -4 -12 -23 -25 -25 -18
-3 -17 -4 -12 -23 -25 -25 -18
-3 -17 -4 -12 -23 -25 -25 -18
-3 -17 -4 -12 -23 -25 -25 -18
-2 -16 -5 -12 -24 -25 -25 -19
-2 -18 -5 -12 -24 -25 -25 -19
-2 -19 -5 -12 -24 -25 -25 -19
-2 -20 -5 -12 -24 -25 -25 -19
-2 -21 -5 -12 -24 -25 -25 -19
0 -22 -5 -13 -24 -25 -25 -18
-2 -21 -5 -13 -24 -25 -25 -18
-3 -20 -5 -13 -24 -26 -25 -19
-3 -20 -5 -13 -24 -26 -25 -19
-4 -19 -5 -13 -24 -26 -25 -19
-5 -18 -6 -14 -25 -27 -24 -20
-5 -18 -5 -13 -24 -26 -24 -19
-4 -17 -4 -12 -24 -26 -23 -18
-4 -17 -4 -12 -23 -25 -23 -18
-4 -17 -3 -11 -23 -25 -23 -17
-3 -16 -2 -10 -22 -24 -22 -16
-3 -17 -2 -11 -22 -24 -23 -16
-4 -18 -3 -12 -23 -25 -23 -17
-4 -19 -3 -12 -23 -25 -24 -17
-4 -20 -3 -13 -23 -25 -24 -17
-5 -21 -4 -14 -24 -26 -25 -18
-5 -20 -4 -13 -24 -26 -24 -18
-5 -19 -4 -12 -24 -26 -23 -17
-5 -18 -4 -11 -24 -26 -23 -16
-5 -17 -4 -10 -24 -26 -22 -16
-4 -16 -3 -9 -23 -25 -21 -15
-4 -16 -2 -9 -22 -24 -21 -15
-4 -15 1 -8 -21 -22 -21 -14
-4 -15 2 -7 -20 -21 -21 -14
-4 -15 3 -7 -19 -20 -21 -14
-3 -14 4 -6 -18 -19 -21 -13
-3 -14 4 -6 -18 -19 -21 -13
-3 -13 5 -6 -17 -19 -20 -13
-3 -12 6 -6 -16 -19 -19 -13
-3 -12 6 -6 -16 -19 -19 -13
-4 -11 7 -5 -15 -20 -18 -12
-4 -11 7 -4 -15 -20 -18 -12
-4 -10 8 -3 -15 -19 -18 -12
-4 -10 8 -3 -15 -19 -18 -12
-4 -10 8 -2 -15 -19 -18 -12
-3 -9 9 0 -14 -18 -17 -11
-3 -8 9 0 -13 -18 -16 -11
-3 -6 9 0 -12 -18 -15 -10
-3 -5 9 0 -12 -18 -15 -10
-3 -4 9 0 -11 -18 -14 -10
-3 -3 8 -2 -10 -18 -13 -9
-3 -3 7 -3 -11 -18 -13 -9
-2 -2 5 -5 -13 -18 -13 -9
0 0 3 -6 -14 -18 -13 -9
0 0 1 -8 -15 -18 -13 -9
1 1 0 -9 -16 -17 -14 -9
1 1 0 -9 -16 -17 -14 -9
1 0 0 -10 -17 -17 -14 -9
1 0 0 -10 -17 -17 -14 -9
1 0 0 -10 -17 -17 -14 -9
0 -2 -2 -11 -18 -18 -14 -8
0 -2 -2 -11 -18 -18 -14 -8
1 -2 -2 -11 -18 -18 -14 -8
2 -2 -2 -11 -18 -18 -14 -8
2 -2 -2 -11 -18 -18 -14 -8
3 -3 -2 -11 -18 -19 -15 -8
2 -4 -2 -11 -18 -19 -15 -8
1 -5 0 -10 -17 -19 -15 -8
0 -6 0 -9 -16 -19 -15 -8
-2 -7 0 -9 -16 -19 -15 -8
-3 -8 1 -8 -15 -18 -15 -9
-3 -10 1 -9 -16 -19 -15 -10
-3 -11 0 -10 -18 -20 -16 -11
-3 -13 -2 -10 -19 -20 -17 -12
-3 -14 -2 -11 -20 -21 -17 -13
-2 -15 -3 -12 -21 -22 -18 -14
-3 -15 -3 -12 -21 -22 -18 -14
-4 -16 -3 -13 -22 -23 -19 -15
-4 -16 -3 -14 -22 -24 -20 -15
-5 -16 -3 -14 -22 -24 -20 -15
-6 -17 -4 -15 -23 -25 -21 -16
-6 -17 -4 -15 -24 -25 -21 -16
-5 -17 -4 -15 -25 -26 -21 -16
-5 -17 -4 -15 -25 -27 -21 -16
-5 -17 -4 -15 -26 -27 -21 -16
-4 -17 -5 -16 -27 -28 -22 -16
-4 -18 -5 -16 -27 -28 -22 -16
-5 -19 -5 -16 -27 -28 -23 -17
-6 -19 -5 -16 -27 -28 -23 -18
-6 -20 -5 -16 -27 -28 -23 -18
-7 -21 -6 -16 -27 -28 -24 -19
-7 -20 -6 -16 -27 -28 -24 -19
-7 -19 -5 -15 -27 -28 -24 -19
-7 -19 -5 -15 -27 -28 -24 -19
-7 -18 -5 -15 -27 -28 -24 -19
-6 -17 -4 -14 -27 -27 -23 -18
-6 -17 -4 -14 -27 -27 -23 -18
-6 -17 -3 -13 -26 -26 -22 -18
-6 -17 -2 -12 -26 -26 -22 -18
-6 -17 -2 -12 -26 -26 -22 -18
-5 -18 0 -11 -25 -25 -21 -17
-5 -18 0 -11 -25 -25 -21 -17
-5 -19 0 -11 -25 -26 -21 -18
-5 -19 0 -11 -25 -26 -21 -19
-5 -19 0 -11 -25 -26 -21 -19
-6 -20 -2 -12 -24 -27 -22 -20
-6 -20 -2 -12 -24 -27 -22 -20
-7 -20 -2 -12 -24 -27 -22 -20
-8 -20 -2 -12 -24 -27 -22 -20
-8 -20 -2 -12 -24 -27 -22 -20
-9 -21 -2 -11 -23 -27 -23 -19
-9 -21 0 -10 -21 -25 -23 -19
-9 -20 1 -8 -19 -24 -22 -19
-9 -19 1 -6 -17 -22 -22 -19
-9 -19 2 -4 -15 -21 -22 -19
-9 -15 6 5 -6 -14 -18 -18
-7 -10 11 19 9 -4 -12 -14
-5 -5 17 32 23 7 -6 -11
-3 1 23 47 38 18 0 -7
1 6 28 60 53 28 6 -3
5 15 26 53 69 50 21 8
10 26 18 29 87 79 42 23
16 36 9 6 104 108 62 37
22 48 0 -17 120 137 84 53
27 59 -10 -40 138 167 104 67
33 76 -41 -97 134 195 132 90
40 99 -91 -177 113 223 164 116
47 121 -140 -257 92 252 197 144
53 144 -188 -336 71 279 229 171
60 165 -237 -415 50 308 262 197
61 177 -270 -461 33 322 278 212
57 180 -291 -481 20 327 282 216
52 183 -313 -503 7 331 286 220
48 186 -335 -523 -7 337 290 225
43 188 -356 -544 -20 342 295 229
35 176 -360 -540 -44 304 268 213
25 149 -351 -518 -74 234 217 180
16 123 -342 -496 -105 164 165 147
6 97 -332 -474 -136 95 114 114
-4 70 -322 -452 -166 25 64 81
-11 53 -304 -424 -184 -22 29 57
-16 40 -277 -390 -191 -53 8 38
-20 28 -251 -356 -198 -83 -15 20
-25 16 -224 -322 -205 -114 -37 1
-30 4 -198 -289 -213 -145 -59 -18
-31 -2 -174 -256 -200 -148 -65 -25
-29 1 -152 -224 -172 -129 -57 -21
-26 3 -130 -191 -143 -109 -49 -18
-24 5 -107 -159 -114 -90 -40 -15
-22 7 -86 -127 -86 -71 -32 -12
-19 8 -69 -102 -66 -59 -27 -10
-16 8 -56 -83 -55 -52 -23 -10
-14 7 -44 -65 -43 -45 -20 -9
-11 6 -31 -47 -31 -37 -17 -8
-9 6 -19 -28 -19 -30 -14 -8
-7 4 -11 -17 -13 -26 -12 -7
-7 3 -8 -12 -10 -25 -12 -8
-6 1 -4 -6 -7 -24 -13 -9
-5 -2 1 0 -4 -23 -14 -9
-5 -4 5 6 0 -22 -14 -10
-4 -5 8 10 2 -21 -15 -11
-4 -5 10 14 4 -19 -15 -11
-4 -5 12 17 6 -18 -15 -11
-4 -5 14 21 7 -17 -15 -11
-4 -5 16 24 9 -15 -15 -11
-4 -6 17 26 10 -14 -14 -12
-4 -8 18 28 11 -13 -13 -12
-5 -10 19 29 12 -12 -12 -12
-6 -11 20 30 13 -12 -12 -12
-6 -13 21 32 14 -11 -11 -12
-7 -14 22 33 15 -10 -10 -11
-5 -12 22 34 16 -9 -9 -11
-3 -10 23 35 18 -8 -8 -10
-2 -9 24 35 19 -8 -8 -10
1 -7 24 36 20 -7 -7 -10
2 -6 25 37 21 -6 -6 -9
2 -6 26 39 21 -5 -6 -9
2 -6 27 42 21 -4 -6 -9
2 -6 27 43 21 -4 -6 -9
2 -6 28 45 21 -3 -6 -9
1 -7 29 46 21 -2 -5 -9
0 -7 29 47 21 -2 -5 -9
-2 -8 29 48 22 0 -5 -10
-2 -9 29 48 23 1 -5 -10
-3 -9 29 49 23 1 -5 -10
-4 -10 29 50 24 2 -4 -11
-4 -9 29 51 25 3 -4 -11
-3 -7 30 53 26 5 -3 -10
-3 -6 31 54 26 6 -2 -9
-3 -5 31 55 27 7 -2 -9
-2 -4 32 56 28 8 0 -8
-2 -4 33 57 30 8 0 -8
0 -3 34 58 31 9 0 -7
0 -3 34 58 32 9 0 -7
0 -3 35 59 34 9 0 -7
1 -2 36 60 35 10 1 -6
1 -2 36 61 35 10 1 -6
0 -3 36 62 35 10 2 -6
0 -3 36 62 35 10 2 -6
0 -3 36 63 35 10 2 -6
-2 -4 35 65 34 11 3 -7
-2 -4 35 67 36 12 3 -7
0 -3 36 69 37 13 3 -7
0 -3 36 71 38 13 3 -7
0 -3 36 73 40 14 3 -7
1 -2 37 74 42 15 4 -8
1 0 38 74 43 17 5 -7
2 1 39 75 44 18 6 -6
3 1 39 76 45 19 6 -5
3 2 40 76 46 21 7 -4
4 3 42 78 47 22 8 -3
4 3 42 80 49 23 8 -3
3 3 43 82 51 24 9 -3
3 3 44 85 52 24 10 -3
3 3 44 87 54 25 10 -3
2 3 45 90 55 26 11 -3
3 4 46 92 57 27 11 -2
4 6 47 94 59 29 12 0
4 7 47 96 61 30 13 1
5 8 48 98 63 31 13 2
6 9 49 100 64 33 14 3
6 10 50 103 66 35 16 4
7 11 51 107 68 37 17 5
7 11 52 110 70 39 18 5
7 12 53 113 72 42 20 6
8 13 54 116 74 43 21 7
8 13 55 119 76 45 23 8
8 13 56 122 78 47 24 9
8 13 56 125 80 48 25 9
8 13 57 128 82 50 27 10
8 14 58 131 86 51 28 11
9 15 59 134 88 53 29 12
10 16 60 138 91 55 31 13
10 16 60 141 93 57 32 13
11 17 61 144 95 59 33 14
12 18 62 147 98 60 34 15
12 19 62 149 100 62 35 15
12 19 63 151 102 64 36 16
12 20 64 154 104 66 37 17
12 21 64 156 106 68 38 17
12 22 65 159 109 70 39 18
13 23 66 162 111 72 40 19
13 24 67 164 113 74 42 20
14 25 68 168 116 76 44 21
15 26 69 171 118 78 45 22
16 27 70 173 120 80 46 23
16 27 70 174 121 82 47 24
16 28 70 175 122 84 48 25
16 29 71 177 125 85 49 26
16 29 71 178 126 87 50 27
16 30 72 179 127 88 51 28
16 31 72 179 128 89 52 28
16 32 72 179 128 89 52 29
17 34 71 179 129 90 53 30
17 35 71 179 130 91 54 30
18 36 70 180 131 92 55 31
18 36 70 178 131 92 55 31
18 36 70 177 131 92 56 32
17 36 70 176 130 93 57 33
17 36 70 174 130 93 57 33
16 35 69 172 128 94 58 34
16 35 67 168 126 93 58 34
16 35 66 163 123 93 58 34
16 36 64 159 120 92 57 34
16 36 62 155 118 91 57 34
15 37 61 150 115 90 56 34
15 37 59 144 112 88 56 34
15 37 57 139 109 86 55 34
15 37 55 133 105 84 54 34
15 37 53 127 102 81 54 34
14 38 52 121 99 79 53 33
14 38 50 115 95 77 52 33
14 38 48 109 91 74 52 32
14 38 46 103 87 71 51 31
14 38 44 97 84 69 50 31
13 37 40 91 78 66 48 30
13 35 38 85 74 62 45 28
12 33 36 78 70 59 43 26
11 31 34 72 65 55 39 24
11 29 32 66 61 51 36 22
10 27 29 60 56 48 33 20
9 25 27 56 52 44 31 18
8 23 25 51 47 39 28 16
6 21 23 47 43 35 26 13
5 19 21 42 37 32 23 11
4 17 19 37 33 28 21 9
4 15 19 34 30 25 19 8
3 13 19 31 27 22 18 7
2 11 19 27 24 18 17 6
2 9 19 24 21 15 15 5
1 7 18 22 18 12 13 4
1 5 17 20 15 9 11 2
1 4 16 18 13 7 8 0
0 3 15 16 10 4 6 -3
0 1 14 14 7 1 3 -5
-2 0 13 12 5 -2 1 -7
-2 0 13 10 3 -4 0 -7
-2 -2 13 9 1 -5 -2 -8
-2 -3 12 7 -2 -7 -3 -9
-2 -3 12 5 -4 -9 -4 -9
-3 -4 11 4 -5 -10 -5 -10
-3 -5 11 4 -6 -10 -5 -10
-3 -5 11 3 -7 -11 -5 -11
-3 -6 11 2 -8 -12 -6 -12
-3 -7 11 2 -9 -12 -6 -12
-4 -8 10 1 -10 -13 -7 -13
-4 -8 10 1 -11 -13 -7 -13
-4 -8 10 1 -11 -14 -8 -13
-4 -8 10 0 -12 -15 -9 -14
-4 -8 10 0 -13 -15 -9 -14
-3 -7 10 -2 -14 -16 -10 -15
-3 -7 10 -2 -14 -16 -10 -15
-3 -7 10 -2 -14 -16 -10 -15
-3 -8 10 -2 -14 -16 -10 -15
-3 -8 10 -2 -14 -16 -10 -15
-4 -9 9 -3 -14 -17 -9 -16
-4 -9 9 -3 -14 -17 -9 -16
-4 -9 9 -3 -14 -17 -9 -16
-4 -10 9 -3 -15 -17 -9 -16
-4 -10 9 -3 -15 -17 -9 -16
-4 -11 8 -4 -16 -16 -10 -16
-4 -11 8 -4 -16 -16 -10 -16
-4 -11 8 -4 -16 -16 -10 -16
-4 -12 9 -3 -16 -16 -9 -16
-4 -12 9 -3 -16 -16 -9 -16
-5 -13 10 -2 -15 -15 -8 -17
-5 -13 10 -2 -15 -15 -8 -17
-5 -12 10 -2 -15 -15 -8 -17
-4 -11 10 -2 -15 -16 -8 -16
-4 -11 10 -2 -15 -16 -8 -16
-3 -10 9 -3 -16 -17 -9 -15
-3 -10 9 -3 -16 -17 -9 -15
-4 -10 9 -3 -16 -17 -9 -15
-5 -10 9 -3 -15 -16 -9 -15
-5 -10 9 -3 -15 -16 -9 -15
-6 -10 8 -3 -14 -15 -9 -14
-5 -10 8 -3 -14 -15 -9 -14
-4 -10 8 -3 -14 -15 -9 -14
-3 -9 9 -2 -14 -15 -8 -14
-2 -9 9 -2 -14 -15 -8 -14
0 -8 10 0 -14 -14 -7 -15
0 -8 10 0 -14 -14 -7 -15
-2 -9 10 1 -13 -14 -7 -15
-3 -10 10 2 -12 -14 -7 -15
-3 -10 10 2 -12 -14 -7 -15
-4 -11 9 3 -11 -15 -8 -16
-4 -11 9 3 -11 -15 -8 -16
-4 -11 9 3 -11 -16 -9 -16
-3 -11 10 3 -11 -17 -10 -16
-3 -11 10 3 -11 -17 -10 -16
-2 -11 11 2 -12 -18 -11 -16
-2 -11 11 3 -12 -17 -11 -16
-2 -11 11 3 -12 -17 -11 -16
-2 -11 11 4 -12 -16 -10 -16
-2 -11 11 5 -12 -15 -10 -16
-3 -11 10 6 -12 -14 -9 -16
-3 -11 10 6 -12 -14 -9 -16
-3 -10 11 6 -12 -14 -9 -16
-3 -9 12 7 -11 -14 -8 -15
-3 -9 12 7 -11 -14 -8 -15
-2 -8 13 8 -10 -13 -7 -14
-3 -9 13 8 -10 -13 -7 -14
-3 -9 13 8 -10 -13 -7 -14
-4 -10 12 8 -10 -14 -8 -15
-5 -11 12 8 -10 -14 -8 -15
-6 -12 11 7 -10 -15 -9 -16
-6 -12 11 7 -10 -15 -9 -16
-6 -12 11 7 -10 -15 -9 -16
-5 -11 12 7 -10 -15 -9 -16
-5 -11 12 7 -10 -15 -9 -16
-4 -10 13 7 -10 -14 -8 -15
-4 -10 13 7 -10 -14 -8 -15
-4 -10 13 7 -10 -14 -8 -15
-4 -10 13 8 -10 -14 -8 -15
-4 -10 13 8 -10 -14 -8 -15
-4 -9 12 9 -10 -13 -8 -16
-4 -9 12 9 -10 -13 -8 -16
-4 -9 12 8 -10 -14 -8 -16
-4 -8 12 7 -10 -15 -8 -16
-4 -8 12 7 -10 -15 -8 -16
-3 -7 12 6 -11 -16 -9 -15
-3 -7 12 6 -11 -16 -9 -15
-3 -7 11 6 -11 -16 -9 -15
-3 -6 10 6 -11 -16 -9 -14
-3 -6 10 6 -11 -16 -9 -14
-2 -5 9 7 -11 -16 -9 -13
-2 -5 9 7 -11 -16 -9 -13
-2 -6 9 7 -12 -16 -9 -13
-2 -7 10 7 -13 -16 -9 -13
-2 -7 10 7 -13 -16 -9 -13
-3 -8 11 6 -14 -15 -9 -14
-3 -8 11 6 -14 -15 -9 -14
-3 -8 11 6 -14 -15 -9 -14
-4 -9 10 6 -14 -15 -10 -15
-4 -9 10 6 -14 -15 -10 -15
-5 -10 9 6 -14 -16 -11 -16
-5 -10 9 5 -14 -16 -11 -16
-5 -10 9 4 -15 -16 -11 -16
-5 -10 9 3 -16 -17 -11 -16
-5 -10 9 2 -16 -17 -11 -16
-5 -9 9 1 -17 -18 -10 -16
-5 -9 9 1 -17 -18 -10 -16
-5 -9 9 1 -17 -18 -10 -16
-4 -8 8 1 -17 -18 -10 -17
-4 -8 8 1 -17 -18 -10 -17
-3 -7 7 2 -16 -18 -11 -18
-3 -7 7 2 -16 -18 -11 -18
-3 -8 7 2 -16 -18 -11 -18
-3 -9 7 2 -16 -17 -11 -17
-3 -9 7 2 -16 -17 -11 -17
-3 -10 8 1 -16 -16 -11 -16
-3 -10 8 1 -16 -16 -11 -16
-3 -10 8 1 -16 -17 -11 -16
-3 -10 8 0 -17 -18 -11 -16
-3 -10 8 0 -17 -18 -11 -16
-4 -10 8 -2 -18 -19 -11 -16
-4 -10 8 -2 -18 -19 -11 -16
-4 -10 8 -2 -18 -19 -11 -16
-4 -10 8 -2 -18 -19 -11 -16
-4 -10 8 -2 -18 -19 -11 -16
-3 -10 7 0 -19 -19 -12 -15
-3 -10 7 0 -19 -19 -12 -15
-3 -10 7 0 -19 -19 -12 -15
-4 -10 7 0 -19 -19 -12 -16
-4 -10 7 0 -19 -19 -12 -16
-5 -11 7 0 -18 -18 -12 -17
-5 -11 7 0 -18 -18 -12 -17
-5 -10 7 0 -18 -18 -12 -17
-4 -9 6 -2 -19 -19 -12 -16
-4 -9 6 -2 -19 -19 -12 -16
-3 -8 5 -3 -20 -20 -12 -15
-4 -9 5 -3 -20 -20 -12 -15
-4 -10 5 -3 -20 -20 -12 -15
-5 -12 5 -3 -20 -20 -12 -15
-6 -13 5 -3 -20 -20 -12 -15
-7 -14 6 -2 -20 -21 -13 -15
-6 -14 6 -2 -20 -21 -13 -15
-5 -13 6 -2 -20 -21 -13 -15
-4 -12 6 -3 -20 -21 -13 -16
-3 -12 6 -3 -20 -21 -13 -16
-2 -11 5 -4 -20 -21 -14 -17
-2 -11 5 -4 -20 -21 -14 -17
-2 -11 5 -4 -20 -21 -14 -17
-2 -11 5 -3 -20 -21 -14 -17
-2 -11 5 -3 -20 -21 -14 -17
-2 -10 5 -2 -19 -20 -15 -18
-3 -11 5 -2 -20 -20 -15 -18
-3 -11 5 -2 -20 -20 -15 -18
-4 -12 5 -3 -21 -21 -15 -17
-5 -13 5 -3 -22 -21 -15 -17
-6 -14 4 -4 -23 -22 -14 -16
-6 -14 4 -4 -23 -22 -14 -16
-5 -14 4 -4 -23 -22 -14 -16
-5 -13 4 -4 -22 -22 -14 -16
-4 -13 4 -4 -22 -22 -14 -16
-3 -12 4 -3 -21 -21 -15 -16
-3 -12 4 -3 -21 -21 -15 -16
-3 -12 4 -3 -21 -21 -15 -16
-4 -12 5 -2 -20 -20 -14 -16
-4 -12 5 -2 -20 -20 -14 -16
-5 -11 6 0 -19 -19 -13 -15
-5 -11 6 0 -19 -19 -13 -15
-5 -11 6 0 -19 -19 -13 -15
-5 -12 5 -2 -20 -20 -14 -15
-5 -12 5 -2 -20 -20 -14 -15
-5 -13 4 -3 -21 -21 -15 -15
-5 -13 4 -3 -21 -21 -15 -15
-5 -13 4 -3 -21 -21 -15 -15
-5 -13 4 -3 -20 -21 -15 -15
-5 -13 4 -3 -20 -21 -15 -15
-4 -14 5 -3 -19 -20 -14 -14
-4 -14 5 -3 -19 -20 -14 -14
-4 -14 5 -3 -19 -20 -14 -14
-4 -14 5 -3 -19 -20 -14 -14
-4 -14 5 -3 -19 -20 -14 -14
-5 -14 4 -2 -20 -21 -15 -15
-5 -14 4 -2 -20 -21 -15 -15
-5 -15 4 -2 -20 -21 -15 -15
-5 -15 4 -3 -20 -21 -15 -15
-5 -16 4 -3 -20 -21 -15 -15
-4 -17 3 -4 -20 -22 -15 -14
-3 -16 3 -4 -20 -22 -15 -14
-3 -14 4 -3 -20 -22 -15 -14
-2 -13 4 -3 -20 -21 -15 -14
0 -11 5 -2 -20 -21 -15 -14
1 -10 6 0 -20 -20 -14 -14
0 -11 6 -2 -20 -20 -14 -14
-2 -13 6 -2 -20 -20 -14 -14
-3 -14 5 -3 -20 -20 -14 -14
-4 -16 5 -4 -20 -20 -14 -14
-5 -17 4 -5 -21 -21 -15 -15
-5 -17 4 -5 -21 -21 -15 -15
-5 -17 4 -5 -21 -21 -15 -15
-5 -16 3 -5 -21 -21 -15 -15
-5 -16 3 -5 -21 -21 -15 -15
-6 -15 2 -4 -22 -21 -16 -16
-6 -15 2 -4 -22 -21 -16 -16
-5 -15 2 -4 -22 -21 -16 -16
-5 -15 3 -4 -21 -21 -16 -16
-4 -15 3 -4 -21 -21 -16 -16
-3 -15 4 -4 -20 -20 -16 -15
-3 -15 4 -4 -20 -20 -16 -15
-3 -15 4 -4 -20 -20 -16 -15
-4 -15 4 -4 -20 -20 -16 -15
-4 -15 4 -4 -20 -20 -16 -15
-5 -15 3 -4 -21 -21 -16 -16
-5 -15 3 -4 -21 -21 -16 -16
-5 -15 3 -4 -21 -21 -16 -16
-5 -15 3 -3 -21 -21 -16 -15
-5 -15 3 -3 -21 -21 -16 -15
-4 -15 4 -2 -20 -21 -15 -14
-4 -15 4 -2 -20 -21 -15 -14
-4 -15 4 -2 -20 -21 -15 -14
-4 -15 4 -2 -20 -21 -16 -14
-4 -15 4 -2 -20 -21 -16 -14
-4 -14 3 -2 -21 -22 -17 -15
-4 -14 3 -2 -21 -22 -17 -15
-4 -14 3 -2 -21 -22 -17 -15
-4 -15 3 -2 -21 -22 -17 -14
-4 -15 3 -2 -21 -22 -17 -14
-3 -16 3 -2 -20 -21 -16 -13
-3 -16 3 -2 -20 -21 -16 -13
-3 -16 3 -2 -20 -21 -16 -13
-3 -16 3 -2 -20 -21 -16 -13
-3 -16 3 -2 -20 -21 -16 -13
-4 -15 3 -2 -20 -21 -17 -13
-4 -15 3 -2 -20 -21 -17 -13
-4 -15 3 -2 -20 -21 -16 -13
-4 -14 3 -2 -20 -21 -16 -12
-4 -14 3 -2 -20 -21 -15 -12
-4 -13 4 -3 -20 -20 -14 -11
-4 -13 4 -3 -20 -20 -14 -11
-4 -13 4 -3 -20 -20 -14 -12
-4 -14 4 -3 -20 -20 -14 -12
-4 -14 4 -3 -20 -20 -14 -13
-5 -15 3 -3 -20 -20 -15 -14
-5 -15 3 -3 -20 -20 -15 -14
-5 -15 3 -3 -20 -20 -15 -14
-5 -15 3 -3 -21 -20 -16 -14
-5 -15 3 -3 -21 -20 -16 -14
-4 -15 2 -4 -22 -21 -17 -13
-4 -15 2 -4 -22 -21 -17 -13
-4 -15 2 -4 -21 -21 -17 -13
-4 -15 2 -3 -21 -21 -17 -13
-4 -15 2 -3 -20 -21 -17 -13
-4 -15 3 -2 -19 -21 -17 -12
-4 -16 3 -2 -19 -21 -17 -12
-4 -17 3 -3 -19 -21 -17 -12
-4 -18 3 -3 -19 -21 -17 -12
-4 -20 3 -4 -19 -21 -17 -12
-4 -21 2 -5 -20 -21 -17 -12
-4 -21 2 -5 -20 -21 -17 -12
-4 -20 2 -5 -20 -21 -17 -12
-4 -19 2 -5 -20 -21 -17 -12
-4 -18 2 -5 -20 -21 -17 -12
-5 -17 2 -5 -21 -22 -16 -12
-5 -17 2 -5 -21 -22 -16 -12
-5 -17 2 -5 -21 -22 -16 -12
-5 -17 3 -5 -20 -21 -16 -12
-5 -17 3 -5 -20 -21 -16 -12
-4 -16 4 -5 -19 -20 -15 -11
-4 -16 4 -5 -19 -20 -15 -11
-4 -16 4 -5 -19 -20 -15 -11
-4 -16 4 -4 -19 -20 -15 -11
-4 -16 4 -4 -19 -20 -15 -11
-5 -15 3 -3 -18 -20 -16 -12
-5 -15 3 -3 -18 -20 -16 -12
-4 -14 4 -3 -17 -19 -15 -11
-3 -14 5 -3 -16 -18 -15 -10
-2 -13 6 -3 -15 -17 -14 -9
0 -12 7 -2 -14 -16 -13 -8
-2 -12 7 -2 -14 -16 -13 -8
-3 -11 7 0 -14 -16 -13 -8
-4 -10 7 1 -13 -15 -13 -8
-5 -9 7 2 -13 -15 -13 -8
-6 -8 8 3 -12 -14 -12 -7
-6 -8 9 3 -12 -14 -12 -7
-5 -8 11 3 -12 -13 -12 -6
-5 -7 12 4 -11 -13 -12 -6
-4 -7 13 4 -11 -12 -12 -5
-3 -6 15 5 -10 -11 -11 -4
-3 -6 15 5 -10 -11 -11 -4
-3 -6 15 6 -10 -11 -11 -4
-3 -7 15 6 -10 -11 -11 -4
-3 -7 15 7 -10 -11 -11 -4
-3 -8 14 8 -9 -11 -10 -5
-3 -6 14 7 -9 -11 -10 -5
-3 -5 13 6 -9 -11 -9 -4
-2 -3 13 5 -9 -10 -9 -3
-2 0 12 4 -9 -10 -8 -2
0 2 11 3 -8 -9 -7 0
0 2 10 3 -8 -9 -7 0
0 2 9 2 -9 -10 -7 0
0 2 8 1 -9 -10 -7 0
0 2 6 0 -10 -11 -7 0
1 1 5 -2 -11 -12 -7 0
1 1 5 -2 -11 -12 -7 0
1 1 5 -2 -11 -12 -7 0
1 0 5 -2 -11 -11 -7 1
1 0 5 -2 -11 -11 -7 1
1 -2 6 -2 -12 -10 -6 2
1 -2 6 -2 -12 -10 -6 2
1 -2 6 -2 -12 -10 -6 2
1 -3 6 0 -11 -10 -6 1
1 -3 6 0 -11 -10 -6 1
2 -4 5 1 -10 -9 -7 0
2 -5 5 1 -10 -9 -7 0
1 -6 5 1 -10 -9 -7 0
0 -7 6 1 -10 -10 -7 1
-2 -8 6 1 -10 -10 -7 1
-3 -9 7 2 -10 -11 -6 2
-3 -11 6 0 -12 -11 -7 1
-3 -13 5 -2 -13 -12 -9 0
-4 -15 4 -4 -15 -13 -11 -2
-4 -17 3 -6 -17 -14 -12 -3
-5 -19 2 -8 -19 -15 -14 -4
-5 -19 2 -8 -19 -15 -14 -4
-5 -19 2 -8 -19 -15 -15 -5
-6 -19 2 -9 -19 -16 -15 -5
-6 -19 2 -9 -19 -16 -16 -6
-7 -18 1 -10 -20 -17 -17 -7
-7 -18 1 -10 -20 -17 -17 -7
-7 -18 1 -10 -20 -18 -17 -7
-7 -18 1 -10 -20 -18 -17 -8
-7 -18 1 -10 -20 -19 -17 -8
-6 -19 0 -11 -21 -20 -17 -9
-6 -19 0 -11 -21 -20 -17 -9
-6 -20 0 -11 -21 -20 -17 -9
-6 -20 1 -11 -21 -20 -17 -9
-6 -21 1 -11 -21 -20 -17 -9
-6 -22 2 -10 -20 -19 -17 -8
-6 -22 2 -10 -20 -19 -17 -8
-6 -22 2 -10 -20 -19 -17 -8
-6 -22 2 -10 -20 -20 -17 -8
-6 -22 2 -10 -20 -20 -17 -8
-6 -22 2 -10 -21 -21 -18 -9
-6 -22 2 -10 -21 -21 -18 -9
-6 -22 2 -10 -21 -21 -18 -9
-6 -23 3 -10 -20 -20 -18 -9
-6 -23 3 -10 -20 -20 -18 -9
-6 -24 4 -10 -19 -19 -17 -8
-6 -24 4 -10 -19 -19 -17 -8
-6 -24 4 -10 -19 -19 -17 -8
-6 -24 5 -9 -18 -18 -17 -8
-6 -24 5 -9 -18 -18 -17 -8
-7 -23 6 -8 -17 -17 -18 -9
-7 -23 6 -8 -17 -17 -18 -9
-7 -23 6 -8 -17 -17 -18 -9
-7 -23 5 -8 -17 -17 -17 -9
-7 -23 5 -8 -17 -17 -17 -9
-7 -22 4 -8 -17 -18 -16 -9
-7 -20 7 1 -10 -13 -15 -8
-7 -19 10 8 -2 -8 -13 -7
-6 -17 14 16 7 -3 -11 -6
-6 -15 17 24 14 2 -10 -5
-5 -12 20 32 23 9 -7 -3
-2 -4 23 40 42 27 6 6
2 6 26 50 59 45 17 13
4 15 30 58 76 62 29 21
7 23 33 66 95 80 40 29
11 33 32 65 110 100 55 39
18 48 3 6 115 133 82 61
25 63 -27 -54 119 164 111 82
33 78 -58 -113 125 196 140 104
40 93 -88 -172 130 228 168 126
48 109 -119 -232 130 259 196 147
50 129 -159 -295 103 280 223 171
52 149 -199 -357 75 303 250 194
54 170 -239 -420 49 325 277 219
57 190 -279 -483 21 347 304 242
58 205 -314 -536 -4 362 324 261
50 189 -320 -533 -13 335 298 243
40 172 -326 -529 -22 306 271 226
31 155 -332 -526 -31 277 244 209
23 138 -339 -522 -40 248 218 191
14 121 -343 -516 -54 214 188 172
6 100 -324 -488 -95 139 139 140
-3 79 -306 -461 -136 65 90 107
-11 58 -288 -434 -177 -10 40 75
-19 37 -270 -406 -217 -83 -9 43
-27 19 -251 -378 -249 -147 -51 15
-28 15 -226 -341 -225 -137 -50 11
-29 11 -201 -303 -200 -127 -49 7
-31 7 -177 -265 -176 -115 -47 2
-32 3 -152 -227 -151 -105 -46 -3
-34 -2 -129 -191 -128 -95 -44 -7
-29 0 -110 -164 -108 -83 -38 -5
-24 2 -92 -138 -89 -71 -33 -3
-19 4 -72 -110 -69 -60 -28 0
-15 5 -54 -83 -50 -48 -23 2
-10 7 -36 -59 -32 -37 -18 4
-9 5 -29 -47 -25 -33 -16 4
-8 3 -21 -35 -19 -29 -14 4
-7 1 -14 -23 -13 -24 -12 4
-6 -2 -6 -12 -7 -20 -10 4
-4 -4 2 0 0 -16 -8 5
-4 -4 4 3 2 -16 -8 5
-4 -5 5 6 4 -16 -9 4
-3 -5 7 10 6 -16 -10 4
-3 -6 9 13 9 -16 -11 3
-2 -7 11 16 11 -15 -12 2
-2 -7 12 18 11 -14 -12 2
-2 -8 14 21 12 -13 -12 2
-2 -8 15 23 12 -12 -11 2
-2 -9 17 25 13 -11 -11 2
-3 -10 19 28 14 -9 -10 2
-3 -11 19 29 15 -9 -10 2
-3 -12 20 30 16 -9 -10 2
-3 -13 20 32 17 -9 -10 2
-3 -14 21 33 18 -9 -10 2
-2 -15 22 35 20 -9 -10 1
-2 -14 23 36 20 -7 -9 1
-2 -13 24 38 21 -6 -8 2
-3 -12 25 39 22 -4 -7 2
-3 -11 26 42 23 -2 -6 3
-4 -9 27 44 24 1 -5 4
-4 -9 27 44 25 1 -5 4
-3 -9 27 44 26 1 -5 4
-2 -8 28 44 27 1 -4 4
0 -8 28 44 28 1 -4 4
1 -7 29 45 29 2 -3 5
1 -7 29 46 29 3 -3 5
1 -7 29 47 29 4 -3 5
1 -7 29 49 29 5 -3 5
1 -7 29 50 29 6 -3 5
2 -8 30 52 28 7 -3 5
2 -8 30 52 29 7 -3 5
2 -7 31 52 30 7 -3 5
2 -7 31 53 31 7 -3 5
2 -6 32 53 32 7 -3 5
3 -5 33 54 34 8 -3 5
3 -5 33 55 34 8 -3 5
3 -5 33 56 34 9 -2 5
2 -4 33 57 34 10 0 6
2 -4 33 58 34 11 1 6
1 -3 33 60 34 12 2 7
1 -3 33 61 35 12 2 7
1 -3 34 62 36 12 2 7
2 -3 34 63 37 13 2 7
2 -3 35 64 38 13 2 7
3 -2 36 65 40 14 2 8
3 0 36 65 42 15 2 8
4 2 37 66 43 16 3 8
5 3 37 67 44 17 4 9
6 5 38 68 45 18 5 9
7 7 39 69 46 20 6 10
7 6 39 71 47 21 6 10
7 5 39 74 49 22 7 11
6 4 40 77 51 23 7 11
6 3 40 79 53 24 8 12
5 2 42 82 55 26 9 13
5 3 42 85 55 27 9 13
5 4 43 87 56 28 10 13
6 5 43 89 56 29 11 14
6 6 44 91 57 30 12 14
7 7 45 93 58 32 13 15
7 7 45 95 60 33 13 15
7 7 45 97 62 34 13 16
7 7 46 99 65 35 14 16
7 7 46 101 67 36 14 17
8 8 47 104 70 37 15 18
8 8 47 106 71 38 16 18
8 9 47 109 72 40 17 19
8 9 48 111 73 42 19 20
8 10 48 114 74 44 20 21
9 11 49 117 75 46 22 22
10 11 50 120 78 47 22 22
11 12 51 122 81 49 23 22
12 13 52 126 85 50 24 23
13 14 53 129 88 52 25 23
14 15 54 132 91 54 26 24
14 16 55 135 92 56 27 25
14 17 56 138 94 58 29 26
13 18 57 141 96 60 30 28
13 19 58 145 98 62 32 29
12 20 59 148 100 64 34 31
13 20 59 150 102 65 34 31
14 20 59 152 104 67 35 31
15 21 59 155 107 68 36 32
16 21 59 157 109 70 37 32
17 22 60 160 112 72 38 33
17 22 60 162 113 74 39 34
17 23 61 164 115 76 42 35
17 24 62 168 116 78 43 37
17 25 63 170 118 80 45 38
17 26 64 173 120 82 47 40
18 27 64 173 121 82 47 40
19 28 64 173 123 84 47 40
20 30 64 173 125 84 48 42
21 31 64 173 127 85 48 42
23 33 64 173 129 86 49 43
22 33 64 173 129 87 50 44
21 33 64 173 129 88 51 45
20 33 63 173 129 89 52 46
19 33 63 173 129 90 53 47
18 33 62 174 128 92 55 48
18 33 62 172 128 92 55 48
19 34 61 169 127 92 55 48
20 34 61 167 127 92 55 48
21 35 60 163 126 92 55 48
22 36 59 160 125 91 55 49
22 36 58 156 121 90 55 49
21 36 56 152 117 89 55 49
21 36 55 148 114 88 55 49
20 36 53 144 110 87 55 49
19 36 51 139 106 86 54 50
18 35 49 133 103 84 54 50
17 34 47 126 100 80 53 49
16 33 44 119 96 77 52 49
15 32 42 113 93 74 51 48
14 30 38 106 89 71 50 47
14 30 37 101 85 69 48 46
14 30 36 96 80 67 46 45
13 31 35 90 75 64 44 44
13 31 34 85 71 62 42 43
12 32 32 78 66 59 39 40
11 30 30 73 62 55 36 38
10 28 28 67 58 51 33 36
8 25 26 61 54 47 30 34
7 23 24 55 50 43 27 32
5 20 21 49 46 37 24 29
5 19 20 45 42 34 22 27
5 18 19 40 36 30 20 25
5 17 18 36 32 27 17 23
5 16 17 32 27 23 15 21
5 15 16 27 22 19 12 18
4 12 16 25 20 16 10 16
3 9 15 22 18 13 7 14
2 6 14 19 15 10 5 12
1 3 13 16 13 7 2 10
-2 -2 12 13 10 3 -2 8
-2 -3 12 12 9 2 -2 8
-2 -4 11 11 7 1 -3 7
-2 -5 11 10 5 -2 -4 6
-2 -6 10 9 3 -3 -5 5
-3 -7 9 7 1 -5 -6 4
-3 -7 9 6 0 -6 -7 3
-3 -7 9 5 -3 -8 -8 2
-3 -8 9 4 -4 -10 -10 1
-3 -8 9 3 -6 -12 -11 0
-3 -9 8 1 -8 -14 -13 -2
-3 -9 8 1 -9 -14 -13 -2
-3 -9 8 0 -10 -14 -13 -2
-3 -9 8 0 -11 -15 -13 -2
-3 -9 8 -2 -12 -15 -13 -2
-4 -9 8 -3 -14 -16 -13 -3
-4 -9 8 -3 -14 -16 -13 -3
-4 -10 7 -4 -14 -17 -13 -3
-4 -10 7 -5 -14 -17 -14 -3
-4 -11 6 -6 -14 -18 -14 -3
-3 -12 5 -7 -15 -19 -15 -4
-3 -12 5 -7 -15 -19 -15 -4
-3 -12 5 -7 -15 -19 -15 -4
-3 -11 5 -7 -15 -19 -15 -5
-3 -11 5 -7 -15 -19 -15 -5
-2 -10 5 -7 -16 -18 -16 -6
-2 -10 5 -7 -16 -18 -16 -6
-2 -11 5 -7 -16 -18 -16 -5
-2 -11 5 -7 -16 -18 -16 -5
-2 -12 5 -7 -16 -18 -16 -4
-2 -12 5 -7 -16 -18 -16 -4
-3 -13 4 -7 -16 -17 -15 -3
-3 -13 4 -7 -16 -17 -15 -4
-3 -13 4 -7 -17 -18 -14 -5
-3 -13 4 -7 -17 -18 -14 -6
-3 -13 4 -7 -17 -18 -14 -6
-2 -12 5 -8 -18 -19 -13 -7
-3 -12 5 -8 -18 -19 -14 -7
-4 -13 5 -8 -18 -19 -15 -7
-5 -13 5 -8 -18 -19 -16 -7
-6 -13 5 -8 -18 -19 -17 -7
-7 -14 4 -8 -17 -18 -18 -8
-6 -15 4 -8 -17 -18 -18 -8
-5 -16 4 -8 -17 -18 -17 -8
-4 -17 4 -8 -17 -18 -17 -8
-3 -17 4 -8 -17 -18 -17 -8
-2 -18 3 -7 -17 -18 -16 -9
-3 -17 3 -7 -17 -19 -16 -9
-4 -16 3 -7 -17 -19 -16 -9
-5 -15 3 -7 -17 -20 -16 -9
-5 -15 3 -7 -17 -20 -16 -9
-6 -14 3 -6 -17 -21 -16 -8
-6 -14 4 -5 -17 -20 -16 -8
-5 -13 5 -4 -17 -19 -16 -8
-5 -13 6 -3 -17 -18 -16 -8
-5 -13 6 -3 -17 -17 -16 -8
-4 -12 7 -2 -16 -16 -16 -9
-4 -12 7 -2 -15 -16 -16 -9
-4 -12 7 -2 -15 -17 -16 -9
-4 -12 7 -2 -14 -17 -16 -9
-4 -12 7 -2 -14 -17 -16 -9
-3 -13 6 -3 -13 -18 -16 -8
-3 -12 6 -3 -13 -17 -15 -8
-2 -11 6 -2 -13 -17 -15 -7
-2 -10 6 -2 -13 -16 -14 -7
-2 -9 6 -2 -13 -16 -14 -7
0 -8 6 0 -14 -15 -13 -6
-2 -9 6 0 -14 -16 -14 -7
-3 -10 5 0 -14 -17 -15 -7
-4 -11 5 0 -14 -18 -16 -8
-4 -12 5 0 -14 -19 -16 -8
-5 -13 4 -2 -13 -20 -17 -9
-4 -12 5 0 -13 -19 -16 -9
-4 -11 5 0 -13 -18 -16 -8
-3 -10 6 1 -13 -17 -15 -8
-3 -10 6 1 -13 -16 -15 -8
-2 -9 7 2 -13 -15 -14 -7
-2 -10 7 1 -13 -16 -14 -7
-2 -10 6 0 -13 -17 -15 -8
-2 -11 6 -2 -13 -18 -15 -8
-2 -11 6 -2 -13 -18 -15 -8
-3 -12 5 -3 -14 -19 -16 -9
-3 -12 5 -3 -14 -18 -16 -9
-4 -12 5 -3 -14 -17 -16 -9
-4 -12 5 -3 -14 -16 -16 -9
-4 -12 5 -3 -14 -16 -16 -9
-5 -11 4 -2 -15 -15 -16 -9
-4 -11 4 -2 -15 -15 -16 -9
-3 -11 4 -2 -15 -16 -16 -9
-2 -11 4 -2 -15 -16 -16 -9
0 -11 4 -2 -15 -16 -16 -9
1 -10 4 -3 -14 -17 -16 -9
0 -11 4 -3 -14 -17 -16 -9
-2 -12 4 -3 -15 -17 -16 -9
-3 -13 4 -3 -15 -17 -16 -9
-4 -13 4 -3 -15 -17 -16 -9
-5 -14 4 -4 -16 -16 -16 -9
-4 -14 4 -4 -16 -16 -16 -9
-4 -14 4 -4 -16 -16 -16 -9
-3 -14 4 -4 -16 -16 -16 -9
-3 -14 4 -4 -16 -16 -16 -9
-2 -13 4 -4 -15 -17 -17 -9
-3 -13 4 -4 -15 -17 -17 -9
-3 -13 4 -4 -15 -17 -17 -10
-4 -13 4 -4 -15 -17 -17 -10
-4 -13 4 -4 -15 -17 -17 -10
-5 -14 3 -5 -16 -17 -18 -11
-5 -14 2 -6 -16 -18 -18 -11
-4 -13 2 -6 -17 -18 -19 -11
-4 -13 1 -7 -17 -19 -19 -11
-4 -13 1 -7 -17 -19 -19 -11
-3 -12 0 -8 -18 -20 -20 -12
-3 -12 0 -8 -18 -20 -20 -12
-3 -12 0 -8 -19 -20 -20 -12
-3 -12 0 -8 -19 -20 -20 -12
-3 -12 0 -8 -19 -20 -20 -12
-2 -12 -2 -9 -20 -21 -19 -11
-2 -13 -2 -9 -20 -22 -19 -12
-2 -14 -3 -10 -21 -22 -20 -12
-2 -15 -3 -10 -21 -23 -20 -13
-2 -15 -3 -10 -21 -23 -20 -13
-3 -16 -4 -11 -22 -24 -21 -14
-3 -15 -3 -11 -21 -23 -21 -14
-3 -15 -2 -11 -21 -23 -21 -14
-3 -14 0 -11 -20 -22 -21 -14
-3 -14 0 -11 -20 -22 -21 -14
-3 -13 1 -11 -19 -21 -22 -13
-3 -14 0 -11 -20 -22 -22 -13
-3 -14 0 -11 -20 -22 -22 -14
-3 -15 -2 -11 -21 -23 -22 -14
-3 -15 -2 -11 -21 -23 -22 -14
-3 -16 -3 -12 -22 -24 -22 -15
-3 -16 -3 -12 -22 -24 -22 -15
-3 -16 -3 -12 -22 -24 -22 -15
-3 -16 -3 -12 -22 -24 -22 -15
-3 -16 -3 -12 -22 -24 -22 -15
-4 -17 -4 -12 -22 -24 -22 -16
-4 -16 -4 -12 -22 -24 -22 -16
-3 -16 -4 -12 -22 -24 -22 -16
-3 -15 -4 -12 -22 -24 -22 -16
-3 -15 -4 -12 -22 -24 -22 -16
-2 -14 -3 -13 -23 -23 -22 -16
-2 -15 -3 -13 -24 -23 -22 -16
-3 -16 -3 -13 -24 -23 -22 -16
-3 -17 -3 -13 -25 -23 -22 -16
-3 -17 -3 -13 -25 -23 -22 -16
-4 -18 -4 -13 -26 -24 -23 -16
-4 -18 -4 -13 -26 -24 -23 -16
-3 -17 -4 -13 -25 -24 -23 -16
-3 -17 -4 -13 -25 -24 -23 -16
-3 -17 -4 -13 -25 -24 -23 -16
-2 -16 -5 -14 -24 -24 -23 -17
-2 -16 -5 -14 -24 -24 -23 -17
-2 -16 -5 -14 -24 -24 -23 -17
-2 -16 -5 -14 -24 -24 -23 -17
-2 -16 -5 -14 -24 -24 -23 -17
-3 -15 -5 -14 -24 -25 -22 -17
-3 -16 -5 -14 -24 -25 -22 -17
-3 -16 -5 -14 -24 -25 -23 -17
-3 -17 -5 -14 -24 -25 -23 -17
-3 -17 -5 -14 -24 -25 -23 -17
-3 -18 -5 -13 -24 -24 -24 -17
-3 -18 -5 -13 -24 -24 -24 -17
-3 -18 -5 -13 -24 -24 -23 -17
-3 -18 -5 -13 -24 -24 -23 -17
-3 -18 -5 -13 -24 -24 -23 -17
-4 -18 -5 -14 -25 -24 -22 -18
-4 -18 -5 -14 -25 -24 -22 -18
-4 -18 -5 -14 -25 -24 -23 -18
-4 -18 -5 -14 -25 -24 -23 -18
-4 -18 -5 -14 -25 -24 -23 -18
-4 -18 -5 -14 -25 -25 -24 -18
-4 -19 -5 -14 -26 -25 -24 -18
-4 -19 -6 -15 -26 -26 -24 -18
-4 -20 -6 -15 -27 -26 -24 -18
-4 -20 -6 -15 -27 -26 -24 -18
-4 -20 -7 -16 -28 -27 -25 -19
-4 -19 -6 -15 -27 -26 -24 -18
-3 -17 -5 -14 -26 -26 -24 -18
-3 -16 -4 -13 -25 -25 -23 -17
-3 -15 -4 -13 -25 -25 -23 -17
-2 -14 -3 -12 -24 -24 -22 -16
-3 -15 -3 -12 -24 -24 -22 -16
-3 -15 -4 -13 -24 -24 -23 -17
-4 -16 -4 -13 -24 -24 -23 -17
-4 -16 -4 -13 -24 -24 -23 -17
-5 -17 -5 -14 -25 -25 -24 -18
-4 -17 -5 -14 -25 -25 -24 -18
-4 -16 -5 -14 -25 -25 -24 -18
-3 -16 -5 -14 -25 -25 -24 -18
-3 -16 -5 -14 -25 -25 -24 -18
-2 -15 -5 -13 -24 -25 -23 -18
-3 -15 -5 -13 -24 -25 -23 -18
-4 -16 -5 -13 -24 -25 -24 -18
-5 -16 -5 -13 -24 -25 -24 -18
-5 -16 -5 -13 -24 -25 -24 -18
-6 -17 -5 -13 -25 -26 -25 -18
-6 -17 -5 -13 -25 -26 -25 -18
-5 -18 -5 -13 -25 -26 -24 -18
-5 -18 -5 -13 -25 -26 -24 -18
-5 -18 -5 -13 -25 -26 -24 -18
-4 -19 -4 -14 -25 -25 -23 -19
-4 -18 -4 -14 -25 -25 -23 -19
-4 -18 -4 -13 -25 -25 -23 -19
-4 -17 -4 -13 -25 -25 -23 -19
-4 -17 -4 -13 -25 -25 -23 -19
-4 -16 -4 -12 -25 -26 -24 -18
-4 -16 -4 -12 -25 -26 -24 -18
-4 -16 -4 -12 -25 -26 -24 -18
-4 -16 -4 -12 -25 -26 -24 -18
-4 -16 -4 -12 -25 -26 -24 -18
-4 -16 -4 -12 -24 -25 -23 -18
-4 -17 -4 -12 -24 -25 -23 -18
-4 -17 -4 -13 -25 -26 -23 -18
-4 -18 -4 -13 -25 -26 -23 -18
-4 -18 -4 -13 -25 -26 -23 -18
-5 -19 -5 -14 -26 -27 -24 -17
-5 -19 -5 -14 -26 -27 -24 -17
-5 -19 -5 -14 -26 -27 -24 -18
-5 -19 -5 -14 -26 -27 -24 -18
-5 -19 -5 -14 -26 -27 -24 -18
-6 -18 -4 -13 -25 -27 -24 -19
-5 -17 -3 -12 -25 -26 -23 -18
-4 -16 -3 -11 -24 -25 -23 -17
-3 -15 -2 -10 -24 -24 -22 -16
-2 -15 -2 -10 -24 -24 -22 -15
0 -14 0 -9 -23 -23 -21 -14
-2 -15 0 -10 -23 -24 -22 -15
-3 -16 0 -10 -24 -24 -22 -16
-4 -17 0 -11 -24 -25 -23 -17
-5 -17 0 -11 -24 -25 -23 -18
-6 -18 -2 -12 -25 -26 -24 -19
-5 -18 -2 -12 -25 -26 -24 -19
-4 -17 -2 -12 -25 -26 -24 -19
-3 -17 -2 -12 -25 -26 -24 -19
-3 -17 -2 -12 -25 -26 -24 -19
-2 -16 -3 -12 -24 -26 -23 -18
-3 -16 -3 -12 -24 -26 -23 -18
-3 -17 -3 -12 -24 -26 -23 -18
-4 -17 -3 -12 -24 -26 -23 -18
-4 -17 -3 -12 -24 -26 -23 -18
-5 -18 -3 -13 -25 -27 -24 -17
-5 -17 -3 -13 -25 -27 -24 -17
-5 -16 -3 -13 -25 -27 -24 -17
-5 -15 -3 -13 -25 -27 -24 -17
-5 -15 -3 -13 -25 -27 -24 -17
-5 -14 -3 -13 -24 -26 -23 -16
-5 -16 -3 -13 -24 -26 -23 -16
-5 -17 -3 -13 -24 -26 -23 -16
-5 -18 -3 -13 -24 -26 -23 -16
-5 -19 -3 -13 -24 -26 -23 -16
-5 -20 -4 -12 -25 -26 -24 -17
-5 -19 -4 -12 -25 -26 -24 -17
-5 -18 -4 -12 -25 -26 -24 -17
-5 -17 -4 -12 -25 -26 -24 -17
-5 -16 -4 -12 -25 -26 -24 -17
-5 -15 -3 -12 -25 -26 -23 -16
-5 -15 -3 -12 -25 -26 -23 -16
-4 -16 -3 -12 -25 -26 -23 -16
-4 -16 -3 -12 -25 -26 -23 -16
-4 -16 -3 -12 -25 -26 -23 -16
-3 -17 -3 -12 -24 -25 -23 -16
-4 -17 -3 -12 -24 -25 -23 -16
-5 -17 -2 -12 -24 -25 -23 -16
-6 -17 -2 -12 -24 -25 -23 -16
-6 -17 -2 -12 -24 -25 -23 -16
-7 -16 0 -12 -25 -24 -22 -16
-7 -16 0 -12 -25 -24 -22 -16
-6 -16 0 -12 -24 -24 -22 -16
-6 -16 0 -12 -24 -24 -22 -16
-6 -16 0 -12 -24 -24 -22 -16
-5 -15 0 -12 -23 -24 -21 -15
-5 -15 0 -10 -23 -24 -21 -15
-5 -15 0 -9 -23 -23 -21 -14
-5 -15 0 -8 -23 -23 -21 -14
-5 -15 0 -7 -23 -23 -21 -14
-5 -14 0 -6 -23 -22 -20 -13
-5 -13 2 -6 -22 -22 -20 -13
-5 -11 3 -6 -22 -21 -19 -12
-5 -9 4 -6 -21 -21 -19 -12
-5 -8 5 -6 -21 -21 -19 -12
-4 -7 6 -5 -20 -20 -18 -11
-4 -7 6 -5 -19 -19 -17 -11
-3 -6 7 -4 -18 -19 -17 -10
-3 -6 7 -4 -17 -18 -16 -10
-3 -6 7 -4 -16 -18 -16 -10
-2 -5 8 -3 -15 -17 -15 -9
-2 -5 9 -2 -15 -17 -15 -9
-3 -5 9 -2 -14 -17 -15 -9
-3 -5 10 0 -14 -17 -15 -9
-3 -5 10 0 -14 -17 -15 -9
-4 -4 11 1 -13 -17 -16 -10
-4 -2 11 1 -13 -17 -16 -9
-4 1 11 1 -13 -17 -15 -8
-4 2 11 1 -13 -17 -15 -7
-4 4 11 1 -13 -17 -15 -6
-3 5 9 1 -12 -16 -14 -5
-3 5 7 -2 -14 -16 -14 -5
-2 5 5 -4 -15 -16 -14 -6
-2 5 3 -5 -16 -16 -14 -6
-2 5 1 -7 -17 -16 -14 -6
0 5 0 -8 -18 -17 -13 -7
0 4 0 -8 -18 -17 -13 -7
0 3 0 -9 -18 -17 -13 -6
0 2 0 -9 -18 -17 -13 -6
0 1 0 -9 -18 -17 -13 -6
0 0 0 -10 -19 -18 -13 -5
0 0 0 -10 -19 -18 -13 -5
1 1 0 -10 -19 -18 -13 -5
1 1 0 -10 -19 -18 -13 -5
1 1 0 -10 -19 -18 -13 -5
2 2 0 -9 -18 -17 -13 -5
2 1 0 -8 -17 -17 -13 -5
1 0 1 -7 -16 -16 -13 -5
1 -2 1 -6 -15 -16 -13 -5
1 -2 1 -5 -15 -16 -13 -5
0 -4 2 -5 -14 -16 -12 -5
-2 -7 2 -6 -15 -18 -14 -7
-3 -10 1 -8 -16 -19 -15 -9
-4 -12 1 -10 -17 -21 -16 -11
-5 -15 1 -11 -18 -23 -17 -13
-6 -16 0 -12 -19 -24 -18 -14
-6 -16 0 -12 -20 -24 -18 -14
-6 -16 -2 -13 -21 -24 -19 -14
-6 -16 -2 -13 -22 -24 -19 -14
-6 -16 -2 -13 -23 -24 -19 -14
-6 -15 -3 -14 -24 -25 -20 -13
-6 -15 -3 -14 -24 -25 -20 -13
-6 -15 -3 -14 -24 -25 -20 -14
-6 -15 -3 -14 -24 -25 -20 -14
-6 -15 -3 -14 -24 -25 -20 -14
-6 -15 -3 -13 -23 -25 -21 -15
-6 -15 -3 -13 -23 -25 -21 -15
-5 -15 -4 -13 -23 -25 -21 -15
-5 -15 -4 -13 -23 -25 -21 -15
-5 -15 -4 -13 -23 -25 -21 -15
-4 -14 -5 -14 -24 -24 -22 -16
-4 -15 -5 -14 -24 -24 -22 -16
-4 -16 -5 -14 -24 -25 -22 -16
-4 -17 -5 -14 -24 -25 -22 -16
-4 -18 -5 -14 -24 -25 -22 -16
-5 -19 -4 -13 -25 -26 -22 -17
-5 -19 -4 -13 -25 -25 -22 -17
-5 -18 -3 -13 -25 -25 -22 -17
-5 -18 -3 -13 -25 -24 -22 -17
-5 -18 -3 -13 -25 -24 -22 -17
-6 -17 -2 -13 -24 -23 -21 -16
-7 -17 -2 -13 -24 -23 -21 -16
-8 -18 -2 -13 -24 -23 -21 -16
-8 -18 -2 -13 -24 -23 -21 -16
-9 -18 -2 -13 -24 -23 -21 -16
-10 -19 -2 -13 -23 -24 -22 -17
-10 -18 -2 -13 -23 -24 -22 -18
-9 -18 -2 -13 -23 -24 -23 -18
-9 -17 -2 -13 -23 -24 -23 -19
-9 -17 -2 -13 -23 -24 -23 -19
-8 -16 -2 -9 -20 -23 -23 -20
-8 -16 2 -4 -14 -19 -21 -20
-8 -16 5 3 -9 -16 -20 -19
-8 -16 7 8 -3 -12 -18 -19
-8 -16 10 14 3 -8 -16 -19
-5 -9 13 24 16 4 -9 -14
-2 0 17 36 32 19 1 -7
2 8 20 48 49 33 10 1
5 17 24 60 65 49 19 7
9 25 28 71 81 64 28 14
14 37 15 43 93 92 51 30
21 51 -6 -4 101 125 77 50
28 63 -27 -50 110 157 105 70
35 76 -48 -95 119 190 132 91
43 90 -68 -141 128 223 158 110
47 109 -103 -204 110 248 187 134
49 131 -142 -274 81 271 217 158
52 152 -182 -344 53 295 245 183
55 174 -222 -413 24 317 275 209
58 195 -262 -484 -5 340 305 233
54 192 -279 -505 -21 337 299 231
45 180 -288 -506 -33 321 277 217
36 167 -299 -508 -46 306 256 203
28 154 -308 -509 -57 290 235 189
20 141 -317 -511 -69 275 214 175
11 121 -312 -495 -98 212 172 147
2 100 -301 -473 -134 131 121 114
-8 77 -288 -449 -169 49 70 81
-17 56 -276 -427 -204 -33 20 49
-26 34 -265 -403 -240 -115 -30 16
-29 24 -245 -371 -237 -136 -47 2
-30 19 -222 -336 -218 -131 -49 -5
-31 14 -199 -300 -199 -124 -50 -11
-31 9 -176 -264 -180 -119 -52 -17
-32 4 -153 -228 -160 -114 -54 -23
-31 2 -134 -197 -140 -103 -51 -24
-28 3 -114 -171 -119 -91 -45 -22
-25 4 -96 -143 -98 -77 -38 -20
-22 4 -77 -115 -77 -64 -32 -18
-19 5 -59 -88 -56 -51 -26 -16
-17 6 -47 -70 -44 -44 -23 -15
-14 5 -37 -56 -35 -37 -20 -14
-11 4 -28 -41 -26 -32 -17 -13
-9 4 -19 -27 -17 -27 -15 -13
-6 3 -10 -13 -8 -21 -12 -12
-5 2 -6 -6 -4 -19 -11 -11
-5 1 -4 -3 -3 -19 -12 -13
-5 0 -2 1 0 -19 -13 -14
-5 -2 1 4 1 -19 -13 -16
-5 -3 3 8 3 -19 -14 -17
-5 -4 5 11 5 -17 -15 -18
-5 -4 6 15 7 -15 -13 -17
-5 -3 8 18 8 -13 -12 -17
-5 -3 9 22 10 -11 -10 -16
-5 -3 11 25 12 -9 -9 -16
-4 -2 12 27 13 -8 -8 -15
-4 -3 13 27 13 -8 -8 -15
-4 -4 14 28 14 -7 -8 -15
-4 -5 14 28 14 -7 -8 -15
-4 -6 15 28 14 -7 -8 -15
-4 -7 16 30 15 -6 -8 -15
-4 -6 16 32 17 -5 -7 -15
-4 -6 17 34 18 -4 -7 -15
-4 -5 17 36 19 -3 -6 -15
-4 -5 17 38 20 -2 -6 -15
-3 -4 18 39 21 0 -5 -14
-3 -4 19 39 22 1 -5 -14
-3 -4 19 40 22 2 -4 -14
-3 -4 20 40 23 2 -4 -14
-3 -4 20 40 23 3 -4 -14
-2 -5 21 42 24 4 -3 -13
-2 -4 21 44 24 5 -2 -13
-2 -4 21 45 24 6 -2 -13
-2 -3 21 46 24 6 0 -13
-2 -3 21 47 24 7 0 -13
-2 -2 22 48 25 8 1 -13
-2 -2 22 48 26 8 1 -13
-2 -2 22 49 26 8 1 -13
-2 -2 22 49 27 8 1 -13
-2 -2 22 49 27 8 1 -13
0 -2 23 51 28 9 0 -13
0 -2 23 52 30 10 2 -12
1 0 23 54 31 12 3 -12
1 0 23 55 32 13 4 -11
1 0 23 57 33 15 5 -11
2 1 24 58 34 16 6 -10
2 1 25 58 35 16 6 -10
2 1 25 58 36 16 6 -10
2 1 26 58 36 16 6 -10
2 1 26 58 37 16 6 -10
1 1 27 60 38 17 5 -11
1 1 27 62 40 18 7 -10
1 1 28 65 42 20 8 -9
1 1 28 67 44 22 10 -9
1 1 28 70 45 24 11 -8
1 2 29 71 46 25 12 -7
1 3 29 71 46 25 12 -7
1 4 29 71 47 26 12 -7
1 4 29 71 48 26 12 -7
1 5 29 71 48 26 12 -7
0 6 29 73 50 28 12 -7
1 7 29 76 51 29 13 -6
2 8 30 78 53 31 14 -4
3 9 31 81 54 32 15 -3
4 10 31 85 56 34 16 -2
5 11 32 87 58 35 17 0
5 11 32 88 60 36 18 0
5 11 33 90 62 37 19 0
5 11 33 92 64 38 19 0
5 11 33 94 66 39 20 0
6 12 34 96 67 40 21 1
6 12 34 98 68 43 21 1
7 13 34 101 69 44 22 1
7 14 34 103 70 46 22 1
7 14 34 106 71 47 22 1
8 15 34 108 73 49 24 2
8 15 35 111 76 50 25 4
8 15 36 114 79 52 27 5
8 15 37 117 82 53 28 7
8 15 38 119 86 55 30 8
7 17 39 123 89 57 32 9
9 18 40 127 91 59 33 10
10 20 42 130 93 62 35 12
12 22 43 133 96 64 37 13
13 24 44 136 98 67 39 14
14 25 45 139 100 69 40 15
14 25 45 141 102 70 42 15
14 25 46 143 104 72 44 16
14 25 46 145 106 74 45 17
14 25 46 148 108 76 46 17
15 27 47 150 110 78 47 18
15 28 47 152 112 79 48 19
16 30 47 154 114 81 49 21
16 31 47 156 116 84 50 22
16 33 47 158 118 86 51 23
17 34 47 159 119 87 52 24
17 34 47 160 121 88 53 24
16 34 48 161 122 90 54 25
16 34 48 162 125 91 55 25
16 34 48 163 126 92 56 25
15 33 49 164 127 93 57 26
15 34 49 164 127 93 57 26
15 35 49 164 127 94 58 27
15 36 49 164 127 95 59 27
15 37 49 164 127 95 59 27
15 38 48 162 126 96 60 28
16 38 48 160 125 96 60 29
17 39 47 157 123 95 60 30
18 40 47 155 122 95 60 30
19 40 47 152 121 95 60 31
20 42 46 149 119 94 61 32
19 42 46 146 118 94 61 32
18 40 45 143 116 93 61 32
17 40 45 139 114 92 61 32
16 40 45 136 112 92 61 32
15 39 44 131 109 90 61 33
15 39 43 123 104 87 60 33
15 38 40 117 100 84 59 32
15 37 39 110 96 80 59 32
15 37 38 104 91 78 58 32
14 36 36 98 87 75 56 31
14 36 33 92 81 72 54 30
14 36 31 87 77 69 52 28
14 36 28 80 73 66 50 27
14 36 26 75 68 64 48 26
13 34 24 69 64 60 46 24
12 33 22 64 60 56 43 22
11 31 21 58 56 52 39 19
10 29 19 52 52 48 36 17
9 27 18 47 48 44 33 14
8 26 17 42 44 39 30 13
6 24 16 37 38 35 27 12
5 22 15 33 34 32 24 10
3 21 15 28 30 28 21 9
2 19 14 24 25 24 19 8
1 18 13 21 22 21 16 6
1 16 13 19 20 18 14 4
1 14 12 16 17 15 12 1
1 13 11 14 15 12 10 -2
1 11 11 11 12 10 8 -5
0 10 10 9 10 7 6 -6
0 8 9 7 8 4 5 -7
-2 6 8 5 5 2 3 -8
-2 5 8 3 3 -2 1 -9
-2 3 7 1 0 -4 -2 -10
-3 2 6 0 -2 -6 -3 -11
-3 1 6 -2 -3 -7 -3 -12
-4 0 7 -3 -4 -8 -4 -13
-4 -2 7 -3 -5 -9 -5 -14
-4 -3 7 -4 -6 -10 -5 -15
-5 -4 8 -5 -7 -11 -6 -16
-5 -6 7 -5 -9 -12 -7 -16
-5 -7 6 -6 -10 -13 -8 -16
-5 -9 6 -7 -12 -14 -8 -16
-5 -10 5 -7 -13 -15 -9 -16
-5 -11 4 -8 -14 -16 -10 -17
-5 -11 4 -8 -14 -16 -10 -17
-5 -11 5 -8 -14 -16 -10 -18
-5 -11 5 -8 -14 -16 -10 -18
-5 -11 5 -8 -14 -16 -10 -18
-4 -10 6 -9 -14 -17 -9 -19
-4 -10 6 -9 -14 -17 -9 -19
-4 -10 6 -10 -15 -17 -9 -19
-4 -10 6 -11 -15 -17 -9 -19
-4 -10 6 -11 -15 -17 -9 -19
-3 -9 5 -12 -16 -17 -10 -19
-3 -9 5 -12 -16 -17 -10 -19
-4 -9 5 -12 -16 -18 -10 -19
-5 -9 5 -12 -16 -18 -10 -19
-5 -9 5 -12 -16 -18 -10 -19
-6 -10 6 -13 -16 -19 -11 -20
-6 -10 6 -13 -16 -19 -11 -20
-5 -10 6 -13 -17 -19 -11 -20
-5 -10 6 -13 -17 -19 -11 -20
-5 -10 6 -13 -17 -19 -11 -20
-4 -11 5 -12 -18 -19 -11 -20
-4 -11 5 -12 -17 -19 -11 -20
-4 -10 6 -12 -16 -19 -10 -19
-4 -9 6 -12 -16 -19 -10 -19
-4 -9 6 -12 -15 -19 -10 -19
-4 -8 7 -11 -14 -18 -9 -18
-4 -8 7 -11 -14 -18 -9 -18
-4 -8 7 -11 -15 -18 -9 -18
-4 -8 7 -11 -15 -18 -9 -18
-4 -8 7 -11 -15 -18 -9 -18
-4 -9 6 -12 -16 -17 -9 -19
-5 -9 6 -12 -16 -17 -9 -19
-6 -10 6 -11 -16 -18 -9 -19
-7 -10 6 -10 -16 -18 -9 -19
-8 -10 6 -10 -16 -18 -9 -19
-9 -11 6 -9 -15 -19 -10 -18
-8 -11 6 -9 -15 -19 -10 -18
-7 -10 6 -9 -15 -19 -10 -19
-7 -9 6 -9 -15 -19 -10 -19
-6 -9 6 -9 -15 -19 -10 -19
-5 -8 6 -8 -15 -18 -11 -20
-6 -8 6 -8 -14 -18 -11 -20
-7 -9 7 -8 -13 -17 -10 -20
-7 -9 7 -8 -13 -17 -10 -20
-8 -9 7 -8 -12 -17 -10 -20
-9 -10 8 -7 -11 -16 -9 -19
-9 -10 8 -7 -11 -16 -9 -19
-8 -9 8 -6 -11 -15 -9 -19
-8 -8 8 -5 -11 -15 -9 -19
-8 -8 8 -5 -11 -15 -9 -19
-7 -7 9 -4 -11 -14 -8 -18
-7 -7 9 -4 -11 -14 -8 -18
-6 -8 9 -4 -11 -14 -7 -17
-5 -9 9 -4 -11 -14 -7 -17
-5 -9 9 -4 -11 -14 -7 -17
-4 -10 9 -4 -10 -14 -6 -16
-5 -10 9 -4 -10 -14 -6 -16
-7 -10 9 -4 -11 -14 -6 -17
-8 -10 9 -4 -12 -14 -6 -17
-9 -10 9 -4 -12 -14 -6 -17
-10 -9 9 -5 -13 -15 -7 -18
-9 -9 9 -5 -12 -15 -7 -18
-7 -8 9 -5 -11 -14 -7 -18
-6 -8 9 -5 -11 -14 -7 -18
-5 -8 9 -5 -10 -14 -7 -18
-4 -7 10 -4 -9 -13 -7 -17
-4 -7 10 -4 -9 -13 -7 -17
-5 -8 9 -5 -9 -14 -7 -17
-6 -8 9 -5 -9 -14 -7 -17
-6 -8 9 -5 -9 -14 -7 -17
-7 -9 8 -6 -10 -15 -8 -17
-7 -9 8 -6 -10 -15 -8 -17
-6 -8 8 -6 -10 -15 -8 -17
-6 -7 8 -6 -10 -15 -8 -17
-6 -7 8 -6 -10 -15 -8 -17
-5 -6 9 -5 -10 -15 -7 -18
-5 -7 9 -5 -10 -15 -7 -18
-6 -8 8 -6 -11 -15 -7 -18
-6 -8 8 -6 -12 -15 -7 -18
-6 -9 8 -6 -12 -15 -7 -18
-7 -10 7 -7 -13 -16 -8 -17
-7 -10 7 -7 -13 -16 -8 -17
-7 -10 7 -7 -13 -17 -9 -17
-7 -10 7 -7 -13 -17 -9 -17
-7 -10 7 -7 -13 -17 -9 -17
-7 -9 8 -8 -13 -18 -10 -18
-7 -9 8 -8 -13 -18 -10 -18
-7 -9 8 -9 -13 -18 -10 -18
-7 -9 8 -9 -13 -18 -10 -18
-7 -9 8 -9 -13 -18 -10 -18
-7 -9 7 -10 -14 -17 -10 -18
-6 -9 7 -10 -14 -17 -10 -18
-5 -9 7 -11 -14 -18 -10 -18
-4 -9 7 -12 -14 -19 -10 -18
-3 -9 7 -12 -14 -19 -10 -18
-2 -8 7 -13 -15 -20 -11 -19
-3 -8 7 -13 -15 -20 -11 -19
-4 -8 7 -13 -16 -20 -11 -19
-4 -8 7 -13 -16 -20 -11 -19
-5 -8 7 -13 -16 -20 -11 -19
-6 -7 6 -12 -17 -19 -10 -19
-6 -8 6 -12 -17 -20 -11 -19
-6 -9 6 -12 -17 -21 -11 -19
-6 -10 6 -13 -17 -22 -12 -19
-6 -11 6 -13 -17 -23 -13 -19
-7 -12 6 -14 -18 -24 -14 -20
-7 -12 6 -14 -18 -24 -14 -20
-7 -12 6 -14 -18 -23 -14 -20
-7 -11 6 -14 -18 -22 -13 -20
-7 -11 6 -14 -18 -22 -13 -20
-7 -10 6 -14 -18 -21 -12 -19
-7 -10 6 -14 -18 -21 -12 -19
-7 -10 6 -14 -18 -21 -12 -19
-7 -11 6 -14 -18 -21 -12 -19
-7 -11 6 -14 -18 -21 -12 -19
-6 -12 6 -14 -18 -22 -12 -18
-6 -12 6 -14 -18 -22 -12 -18
-6 -12 6 -14 -18 -22 -12 -18
-6 -13 6 -14 -19 -22 -12 -18
-6 -13 6 -14 -19 -22 -12 -18
-6 -14 6 -15 -20 -23 -13 -18
-6 -14 6 -15 -20 -23 -13 -18
-6 -14 5 -15 -20 -23 -13 -19
-6 -14 4 -16 -20 -24 -14 -20
-6 -14 4 -16 -20 -24 -14 -20
-6 -13 3 -17 -21 -25 -15 -21
-6 -13 3 -17 -21 -25 -15 -21
-6 -13 3 -16 -21 -25 -15 -21
-6 -13 3 -15 -21 -24 -15 -20
-6 -13 3 -15 -21 -24 -15 -20
-7 -13 4 -14 -20 -23 -14 -19
-7 -13 4 -14 -20 -23 -14 -19
-7 -13 4 -14 -20 -23 -14 -19
-6 -13 4 -14 -19 -23 -14 -19
-6 -13 4 -14 -19 -23 -14 -19
-5 -12 5 -15 -18 -23 -14 -18
-5 -12 5 -15 -19 -23 -14 -18
-5 -13 5 -15 -19 -23 -14 -18
-6 -14 5 -15 -20 -23 -14 -18
-6 -14 5 -15 -21 -23 -14 -18
-7 -15 4 -15 -22 -23 -14 -19
-7 -15 4 -15 -21 -23 -14 -19
-7 -14 4 -15 -21 -23 -14 -19
-6 -13 4 -15 -20 -23 -14 -19
-6 -13 4 -15 -19 -23 -14 -19
-5 -12 4 -16 -18 -22 -14 -19
-5 -12 4 -16 -18 -22 -14 -19
-5 -12 4 -16 -18 -22 -14 -19
-5 -13 4 -16 -19 -23 -14 -19
-5 -13 4 -16 -19 -23 -14 -19
-6 -14 4 -16 -20 -24 -15 -18
-6 -14 4 -16 -20 -24 -15 -18
-6 -14 4 -16 -20 -24 -15 -18
-6 -13 5 -16 -20 -24 -15 -18
-6 -13 5 -16 -20 -24 -15 -18
-6 -12 6 -15 -20 -24 -14 -18
-6 -12 6 -15 -20 -24 -14 -18
-6 -12 5 -15 -21 -24 -14 -18
-6 -13 4 -16 -22 -24 -14 -18
-6 -13 4 -16 -22 -24 -14 -18
-7 -14 3 -17 -23 -25 -15 -19
-7 -14 3 -17 -23 -25 -15 -19
-7 -14 3 -17 -23 -25 -15 -19
-7 -14 3 -17 -22 -25 -15 -19
-7 -14 3 -17 -22 -25 -15 -19
-7 -15 3 -16 -21 -25 -16 -18
-7 -15 3 -16 -21 -25 -16 -18
-7 -15 3 -16 -21 -25 -16 -18
-6 -14 3 -16 -21 -25 -16 -18
-6 -14 3 -16 -21 -25 -16 -18
-5 -13 3 -15 -22 -25 -15 -18
-5 -13 3 -15 -22 -25 -15 -18
-5 -13 3 -15 -22 -25 -15 -18
-6 -13 3 -15 -22 -25 -15 -18
-6 -13 3 -15 -22 -25 -15 -18
-7 -13 4 -16 -21 -24 -15 -17
-6 -13 4 -16 -21 -24 -15 -17
-6 -13 4 -16 -21 -24 -15 -17
-5 -13 4 -15 -21 -24 -15 -17
-4 -13 4 -15 -21 -24 -15 -17
-3 -13 4 -14 -21 -24 -15 -17
-4 -14 4 -14 -21 -25 -15 -17
-5 -15 4 -14 -21 -25 -15 -17
-7 -17 4 -15 -22 -26 -16 -17
-8 -18 4 -15 -22 -27 -16 -17
-9 -19 3 -16 -23 -28 -17 -17
-8 -19 3 -16 -23 -27 -17 -17
-7 -19 3 -16 -23 -27 -17 -17
-6 -18 4 -16 -22 -26 -16 -18
-5 -18 4 -16 -22 -25 -16 -18
-4 -17 5 -15 -21 -24 -15 -19
-4 -16 5 -15 -21 -24 -15 -19
-5 -16 5 -15 -21 -24 -15 -18
-6 -15 5 -15 -21 -24 -15 -17
-6 -14 5 -15 -21 -24 -15 -17
-7 -13 4 -16 -22 -24 -14 -16
-7 -13 4 -16 -22 -24 -14 -16
-7 -13 4 -16 -22 -24 -15 -16
-7 -14 4 -15 -22 -25 -16 -17
-7 -14 4 -15 -22 -25 -16 -17
-6 -15 3 -14 -22 -26 -17 -18
-6 -15 3 -14 -22 -26 -17 -18
-6 -15 3 -14 -22 -26 -16 -17
-6 -14 3 -13 -22 -26 -15 -16
-6 -14 3 -13 -22 -26 -15 -16
-7 -13 4 -12 -22 -25 -14 -15
-7 -13 4 -12 -22 -25 -14 -15
-7 -13 4 -12 -22 -25 -14 -15
-7 -13 4 -13 -22 -25 -14 -15
-7 -13 4 -13 -22 -25 -14 -15
-7 -14 3 -14 -22 -24 -15 -16
-7 -14 3 -14 -22 -24 -15 -16
-7 -14 3 -14 -22 -24 -15 -16
-7 -14 3 -14 -22 -24 -15 -16
-7 -14 3 -14 -22 -24 -15 -16
-8 -15 4 -14 -22 -24 -14 -16
-8 -15 4 -14 -22 -24 -14 -16
-8 -15 4 -14 -22 -24 -14 -16
-8 -14 5 -13 -21 -24 -14 -16
-8 -14 5 -13 -21 -24 -14 -16
-7 -13 6 -12 -20 -23 -13 -15
-7 -13 6 -12 -20 -23 -13 -15
-7 -13 6 -12 -20 -23 -12 -15
-6 -12 7 -11 -20 -22 -11 -14
-6 -12 7 -11 -20 -22 -11 -14
-5 -11 8 -10 -19 -21 -10 -13
-5 -9 9 -9 -18 -20 -10 -13
-5 -7 10 -9 -18 -19 -10 -13
-6 -5 11 -8 -17 -18 -10 -13
-6 -4 12 -7 -16 -17 -10 -13
-7 -2 13 -6 -15 -16 -9 -12
-7 -2 13 -5 -15 -16 -9 -12
-7 -3 14 -5 -14 -16 -9 -12
-7 -4 15 -4 -13 -16 -8 -12
-7 -4 15 -3 -13 -16 -8 -12
-6 -5 16 -2 -12 -17 -7 -11
-6 -4 16 -2 -12 -17 -7 -11
-6 -4 16 -2 -12 -17 -7 -11
-6 -3 16 -2 -12 -16 -6 -10
-6 -2 16 -2 -12 -16 -6 -10
-5 0 17 0 -11 -15 -5 -9
-5 1 15 0 -11 -15 -5 -9
-4 2 14 0 -11 -15 -4 -9
-3 3 12 -2 -11 -14 -3 -8
-3 4 10 -2 -11 -14 -3 -8
-2 5 9 -3 -11 -13 -2 -7
-2 5 9 -4 -12 -13 -2 -7
-3 5 8 -4 -12 -14 -3 -7
-4 5 7 -5 -13 -15 -4 -8
-4 5 7 -6 -14 -15 -4 -8
-5 4 6 -7 -15 -16 -5 -9
-5 4 6 -7 -15 -16 -5 -9
-5 4 6 -7 -15 -16 -5 -9
-5 4 6 -7 -15 -16 -5 -9
-5 4 6 -7 -15 -16 -5 -9
-5 3 6 -8 -16 -16 -5 -9
-4 3 6 -8 -16 -16 -5 -9
-4 3 6 -8 -16 -16 -5 -9
-3 3 6 -7 -16 -16 -5 -9
-2 3 6 -7 -16 -16 -5 -9
0 2 6 -6 -15 -16 -4 -8
0 0 6 -6 -15 -16 -4 -8
0 -2 6 -6 -15 -16 -5 -9
0 -4 7 -6 -15 -16 -6 -10
0 -5 7 -6 -15 -16 -6 -10
-2 -7 8 -5 -15 -17 -7 -11
-3 -8 7 -6 -16 -18 -7 -12
-3 -10 5 -8 -17 -19 -8 -12
-4 -11 4 -9 -19 -20 -9 -13
-5 -13 2 -11 -20 -21 -9 -14
-6 -14 1 -12 -21 -22 -10 -15
-6 -14 1 -12 -21 -22 -10 -15
-7 -14 1 -12 -22 -22 -11 -15
-8 -14 1 -12 -23 -23 -12 -15
-8 -14 1 -12 -23 -23 -12 -15
-9 -15 1 -11 -24 -24 -13 -16
-9 -15 1 -11 -24 -24 -13 -16
-9 -15 1 -11 -24 -24 -13 -16
-8 -16 2 -11 -24 -24 -13 -16
-8 -16 2 -11 -24 -24 -13 -16
-7 -17 3 -11 -23 -23 -14 -17
-7 -17 3 -11 -23 -23 -14 -17
-7 -17 3 -11 -23 -23 -14 -17
-7 -16 3 -11 -23 -23 -13 -16
-7 -16 3 -11 -23 -23 -13 -16
-6 -15 4 -10 -22 -22 -12 -15
-6 -16 4 -10 -22 -22 -12 -15
-6 -17 4 -10 -22 -22 -12 -15
-7 -19 4 -10 -22 -22 -12 -15
-7 -20 4 -10 -22 -22 -12 -15
-8 -21 4 -9 -22 -21 -11 -16
-8 -21 4 -9 -22 -21 -11 -16
-8 -21 4 -9 -22 -21 -11 -16
-9 -21 5 -8 -22 -21 -12 -17
-9 -21 5 -8 -22 -21 -12 -17
-10 -20 6 -7 -21 -21 -13 -18
-10 -20 6 -7 -21 -21 -13 -18
-9 -20 6 -7 -21 -21 -13 -18
-8 -20 6 -7 -21 -21 -12 -18
-8 -20 6 -7 -21 -21 -12 -18
-7 -20 5 -7 -21 -21 -11 -18
-7 -20 5 -7 -21 -21 -12 -18
-8 -20 5 -7 -21 -21 -12 -18
-9 -20 5 -6 -21 -21 -13 -18
-9 -20 5 -6 -21 -21 -14 -18
-10 -21 6 -2 -18 -19 -14 -18
-9 -18 10 9 -8 -13 -11 -18
-8 -15 14 19 2 -7 -8 -17
-6 -12 19 30 12 0 -5 -16
-5 -9 23 40 22 6 -2 -16
-3 -5 26 49 35 18 6 -12
2 5 27 54 56 40 20 0
6 13 28 60 76 62 35 10
10 21 29 65 96 85 50 21
14 30 31 70 116 107 64 31
19 42 23 52 130 133 85 48
25 60 -7 -16 125 164 116 72
32 78 -36 -85 120 196 148 98
38 97 -66 -153 115 228 180 123
46 115 -96 -222 111 260 212 149
51 132 -126 -284 97 286 239 171
49 143 -156 -331 63 301 256 185
48 155 -186 -379 29 315 273 199
46 167 -217 -426 -4 328 290 213
45 178 -246 -473 -37 343 307 227
40 179 -268 -503 -66 338 306 229
31 156 -270 -490 -85 286 264 201
22 134 -272 -478 -103 235 221 175
13 111 -273 -466 -121 185 179 147
4 90 -275 -453 -139 134 137 120
-6 69 -273 -437 -158 81 95 94
-12 54 -258 -413 -178 24 56 68
-19 39 -242 -390 -197 -33 18 44
-26 24 -227 -366 -217 -90 -21 18
-33 10 -212 -342 -236 -147 -60 -8
-38 -2 -194 -315 -242 -182 -86 -25
-36 -2 -175 -283 -217 -163 -76 -23
-35 -2 -155 -251 -190 -144 -67 -22
-33 -2 -135 -218 -164 -126 -58 -20
-32 -2 -115 -185 -138 -107 -50 -19
-29 0 -97 -154 -114 -91 -41 -17
-25 0 -81 -131 -96 -79 -36 -15
-21 0 -65 -107 -77 -67 -31 -12
-17 0 -50 -83 -59 -56 -25 -10
-13 0 -34 -60 -40 -44 -20 -8
-10 -2 -22 -40 -26 -34 -16 -6
-9 -2 -16 -30 -21 -31 -14 -6
-8 -2 -11 -21 -16 -27 -13 -6
-7 -3 -6 -11 -10 -24 -11 -6
-6 -3 1 -2 -5 -20 -10 -6
-5 -4 5 7 0 -17 -8 -5
-5 -4 8 10 3 -16 -8 -5
-5 -5 10 13 5 -15 -8 -5
-4 -5 12 17 8 -14 -7 -5
-4 -6 15 20 11 -13 -7 -5
-3 -7 17 23 13 -12 -6 -5
-3 -7 18 26 13 -11 -6 -5
-3 -7 19 28 14 -10 -6 -5
-3 -7 20 30 14 -9 -6 -5
-3 -7 21 33 15 -7 -6 -5
-2 -6 22 35 16 -6 -5 -5
-2 -6 23 36 18 -5 -4 -4
-2 -6 24 37 19 -4 -4 -4
-2 -7 25 38 21 -3 -3 -3
-2 -7 26 39 22 0 -2 -2
0 -8 27 40 24 1 0 0
0 -8 27 42 24 1 0 0
0 -8 27 43 24 2 1 0
1 -7 27 44 24 2 1 0
1 -7 27 45 24 3 2 0
2 -6 27 46 24 4 3 1
2 -6 27 47 25 5 3 1
2 -6 27 48 27 5 3 1
2 -6 28 49 28 6 3 1
2 -6 28 50 29 7 3 1
2 -7 29 51 31 8 3 2
2 -7 29 52 31 8 3 2
2 -7 29 53 31 9 3 2
2 -7 29 54 31 9 3 3
2 -7 29 55 31 10 3 3
1 -8 29 56 31 11 4 4
1 -7 29 56 32 11 4 4
1 -7 29 56 33 11 4 4
1 -6 30 57 34 12 5 4
1 -5 30 57 35 12 5 4
1 -4 31 58 36 13 6 4
1 -3 31 59 36 14 7 5
2 -2 32 61 37 16 7 5
2 0 32 62 37 17 8 6
3 2 33 63 38 18 9 7
4 3 34 65 39 20 10 8
4 2 34 65 40 20 10 8
4 1 34 66 42 20 10 8
4 0 34 66 43 20 10 8
4 -3 34 67 45 20 10 8
5 -4 34 68 46 20 10 7
5 -2 34 70 46 22 11 8
6 1 34 72 47 24 12 8
6 4 35 73 47 25 13 9
7 6 35 75 48 27 15 10
8 8 36 77 49 29 16 11
8 8 36 78 51 29 16 11
9 8 36 79 53 29 16 11
9 7 36 80 54 30 16 11
10 7 36 81 56 30 16 11
11 6 37 82 58 31 16 12
11 6 38 86 59 33 17 13
11 6 38 88 61 34 19 14
10 6 39 90 62 36 20 15
10 6 40 93 63 37 21 16
9 7 42 95 65 39 23 17
9 7 42 97 67 40 23 17
9 7 42 98 69 43 23 17
9 7 42 100 71 44 23 18
9 7 42 101 73 45 23 18
9 7 40 103 75 47 24 19
9 8 42 106 76 48 25 19
10 9 43 110 78 50 26 20
10 10 44 113 80 51 27 21
11 11 45 116 81 52 29 22
12 12 46 119 84 54 30 23
12 13 46 122 87 56 31 24
13 14 46 125 90 58 32 25
13 15 47 128 93 60 33 26
14 17 47 131 95 62 35 27
15 18 48 133 98 64 36 28
15 18 48 136 100 66 37 29
15 19 49 139 102 68 38 30
15 20 50 142 104 70 39 31
15 21 51 145 106 72 42 32
15 22 52 148 108 74 43 33
15 22 52 151 111 77 45 34
16 23 53 153 114 79 47 35
17 23 54 156 117 82 48 36
18 24 55 159 120 86 50 38
19 25 56 161 123 88 52 39
19 26 56 162 123 89 53 39
19 27 56 164 125 91 54 40
19 28 56 167 126 92 55 42
19 29 56 168 127 93 57 43
20 30 56 170 128 95 58 44
20 31 56 170 129 96 58 44
21 32 56 170 130 97 59 45
22 33 56 171 131 98 60 45
23 34 56 171 133 100 61 46
24 35 56 172 134 101 62 47
24 35 56 172 134 101 62 48
24 36 56 172 134 102 62 49
23 37 55 171 133 102 62 50
23 38 55 171 133 103 62 51
22 39 54 170 132 104 63 52
22 39 54 165 131 104 63 52
22 39 54 162 130 103 63 52
22 39 54 158 129 102 63 52
22 39 54 154 127 101 63 52
23 40 53 151 126 100 63 52
23 40 52 146 121 99 63 52
22 40 51 142 117 97 63 52
22 39 50 137 113 95 62 52
21 39 48 133 109 94 62 52
20 38 47 128 105 92 61 52
20 38 45 121 101 88 60 52
19 38 44 114 97 85 59 52
19 38 42 108 93 80 58 52
18 38 39 102 90 76 57 52
17 39 37 95 85 73 56 51
16 38 34 89 79 69 52 49
15 37 32 81 74 65 49 47
14 36 29 75 69 61 46 45
12 34 27 69 64 58 42 43
11 33 24 63 59 54 38 40
11 32 24 58 55 50 35 37
10 30 23 54 52 46 33 35
10 28 22 49 48 42 30 32
9 27 21 45 44 37 28 30
8 25 20 40 40 33 25 27
8 22 19 36 35 29 22 26
8 19 18 33 31 25 19 24
8 17 17 29 27 21 17 23
8 14 16 25 23 18 14 22
7 11 15 22 19 14 11 20
6 8 15 20 16 11 8 18
4 6 14 17 14 8 6 16
3 3 14 15 11 5 3 14
2 1 13 12 9 2 1 12
0 -3 12 10 6 -2 -3 10
0 -3 12 10 5 -3 -3 10
0 -3 12 9 4 -4 -3 9
0 -3 12 9 3 -5 -3 9
0 -3 12 8 1 -6 -3 8
0 -3 11 7 0 -7 -4 7
0 -4 11 6 -2 -8 -5 7
0 -6 11 5 -3 -9 -6 6
0 -8 11 4 -4 -10 -7 5
0 -9 11 3 -5 -12 -8 4
-2 -11 11 2 -6 -13 -9 3
-2 -11 11 2 -7 -13 -9 2
-2 -11 10 1 -9 -14 -9 1
-3 -11 9 0 -11 -15 -10 0
-3 -11 8 -2 -12 -16 -10 -2
-4 -11 7 -3 -14 -17 -11 -3
-4 -11 7 -3 -14 -17 -11 -3
-4 -11 7 -3 -14 -17 -11 -3
-4 -11 7 -4 -14 -17 -12 -3
-4 -11 7 -4 -14 -17 -12 -3
-3 -12 8 -5 -13 -18 -13 -3
-3 -12 8 -5 -13 -18 -13 -3
-3 -12 8 -5 -14 -18 -13 -4
-2 -12 7 -5 -14 -19 -13 -5
-2 -12 7 -5 -15 -19 -13 -6
0 -12 6 -6 -16 -20 -14 -7
0 -12 6 -6 -16 -20 -14 -7
0 -12 7 -6 -16 -20 -14 -6
0 -12 7 -6 -15 -20 -14 -6
0 -12 8 -6 -15 -20 -14 -5
-2 -12 9 -7 -14 -19 -14 -4
-2 -12 9 -6 -14 -19 -14 -4
-2 -12 9 -5 -15 -19 -14 -4
-3 -12 9 -4 -15 -19 -14 -4
-3 -12 9 -3 -16 -19 -14 -4
-4 -11 10 0 -17 -20 -13 -5
-4 -11 10 0 -17 -20 -13 -5
-4 -12 10 0 -17 -20 -13 -5
-4 -12 10 0 -17 -20 -13 -6
-4 -13 10 0 -17 -20 -13 -6
-4 -14 9 0 -16 -20 -14 -7
-4 -14 9 0 -16 -20 -14 -7
-4 -13 9 0 -16 -20 -14 -6
-3 -12 9 1 -16 -19 -14 -6
-3 -11 9 1 -16 -19 -14 -5
-2 -10 10 2 -16 -18 -14 -4
-2 -10 10 2 -16 -18 -14 -4
-2 -11 10 2 -15 -18 -14 -4
-3 -11 9 2 -15 -18 -14 -4
-3 -12 9 2 -14 -18 -14 -4
-4 -13 8 3 -13 -18 -14 -5
-4 -13 8 3 -13 -18 -14 -5
-4 -12 8 4 -13 -18 -13 -5
-4 -12 9 4 -13 -18 -13 -5
-4 -11 9 5 -13 -18 -12 -5
-3 -10 10 6 -13 -17 -11 -4
-3 -10 10 6 -13 -17 -11 -4
-3 -10 10 6 -13 -17 -11 -4
-3 -10 10 6 -12 -17 -12 -4
-3 -10 10 6 -12 -17 -12 -4
-2 -10 10 5 -11 -17 -13 -5
-2 -10 10 6 -11 -17 -13 -5
-2 -10 10 7 -10 -16 -13 -5
-2 -10 10 8 -10 -15 -12 -5
-2 -10 10 9 -9 -14 -12 -5
0 -9 11 10 -8 -13 -11 -5
0 -9 11 9 -8 -13 -11 -5
-2 -9 11 8 -8 -13 -11 -5
-2 -10 10 7 -8 -14 -11 -5
-3 -10 10 6 -8 -14 -11 -5
-4 -11 9 5 -9 -15 -12 -6
-4 -11 9 5 -9 -15 -12 -6
-3 -10 9 5 -9 -15 -12 -6
-3 -9 9 5 -9 -14 -12 -6
-2 -8 9 5 -9 -14 -12 -6
0 -7 9 6 -9 -13 -12 -6
0 -7 9 6 -9 -13 -12 -6
0 -7 9 6 -9 -13 -12 -6
0 -7 9 6 -9 -13 -12 -6
0 -7 9 6 -9 -13 -12 -6
1 -7 9 5 -8 -14 -12 -7
1 -7 9 5 -8 -14 -12 -7
0 -7 9 5 -8 -14 -12 -7
0 -8 9 5 -8 -14 -12 -7
-2 -8 9 5 -8 -14 -12 -7
-3 -9 9 5 -8 -13 -12 -6
-3 -9 9 5 -8 -13 -12 -6
-3 -9 9 4 -8 -14 -12 -6
-3 -9 9 3 -8 -14 -13 -6
-3 -9 9 2 -8 -15 -13 -6
-2 -10 8 1 -9 -16 -14 -7
-2 -10 8 1 -9 -16 -14 -7
-2 -10 8 1 -9 -16 -14 -7
-2 -10 8 2 -10 -16 -14 -7
-2 -10 8 2 -10 -16 -14 -7
-2 -11 7 3 -11 -16 -13 -6
-2 -11 7 3 -11 -16 -13 -6
-2 -11 7 2 -11 -16 -13 -6
-2 -11 7 2 -11 -16 -13 -7
-2 -11 7 1 -11 -16 -13 -7
-2 -12 6 0 -12 -17 -14 -8
-2 -12 6 0 -12 -17 -14 -8
-2 -12 6 0 -13 -17 -14 -8
-2 -11 6 0 -13 -18 -14 -8
-2 -11 6 0 -14 -18 -14 -8
0 -10 5 -2 -15 -19 -15 -9
0 -10 5 -2 -15 -19 -15 -9
0 -10 5 -3 -15 -19 -16 -9
0 -11 4 -3 -15 -19 -16 -10
0 -11 4 -4 -15 -19 -17 -10
1 -12 3 -5 -15 -20 -18 -11
1 -12 3 -5 -15 -20 -18 -11
1 -12 3 -5 -16 -20 -18 -11
0 -12 3 -5 -16 -20 -18 -11
0 -12 3 -5 -17 -20 -18 -11
-2 -12 3 -5 -18 -20 -17 -10
-2 -12 3 -5 -18 -20 -17 -10
-2 -13 3 -5 -18 -20 -17 -10
-2 -13 3 -5 -17 -20 -17 -11
-2 -14 3 -5 -17 -20 -17 -11
0 -15 3 -6 -16 -21 -18 -12
0 -15 3 -6 -16 -21 -18 -12
0 -15 3 -6 -16 -21 -18 -12
-2 -15 3 -6 -16 -21 -18 -11
-2 -15 3 -6 -16 -21 -18 -11
-3 -14 4 -5 -17 -20 -17 -10
-3 -14 4 -5 -17 -20 -17 -10
-3 -14 4 -6 -17 -20 -18 -11
-3 -14 4 -6 -18 -21 -18 -11
-3 -14 4 -7 -18 -21 -19 -12
-2 -15 3 -8 -19 -22 -20 -13
-2 -15 3 -8 -19 -22 -20 -13
-2 -15 3 -8 -19 -22 -20 -13
-2 -14 3 -8 -19 -22 -19 -12
-2 -14 3 -8 -19 -22 -19 -12
-2 -13 2 -8 -19 -22 -18 -11
-2 -13 2 -8 -19 -22 -18 -11
-2 -14 2 -9 -19 -23 -18 -12
-2 -14 1 -10 -20 -24 -19 -12
-2 -15 1 -11 -20 -25 -19 -13
-3 -16 0 -12 -21 -26 -20 -14
-3 -16 0 -12 -21 -26 -20 -14
-3 -16 0 -11 -21 -25 -20 -14
-2 -16 0 -11 -21 -24 -20 -14
-2 -16 0 -10 -21 -23 -20 -14
0 -16 0 -9 -20 -22 -19 -14
0 -16 0 -9 -20 -22 -19 -14
0 -16 0 -9 -20 -22 -19 -14
0 -16 0 -10 -21 -23 -20 -14
0 -16 0 -10 -21 -23 -20 -14
-2 -16 0 -11 -22 -24 -21 -15
-2 -16 0 -11 -22 -24 -21 -15
-2 -16 0 -11 -22 -24 -21 -15
-3 -16 0 -12 -22 -24 -21 -15
-3 -16 0 -12 -22 -24 -21 -15
-4 -17 -2 -13 -23 -25 -22 -16
-3 -16 -2 -13 -23 -25 -22 -16
-2 -15 -2 -13 -23 -25 -22 -16
1 -14 -2 -13 -23 -25 -22 -17
2 -13 -2 -13 -23 -25 -22 -17
4 -12 -2 -13 -22 -25 -23 -18
3 -13 -2 -13 -22 -25 -23 -18
2 -14 -2 -13 -22 -25 -23 -18
1 -16 -2 -13 -23 -25 -23 -18
0 -17 -2 -13 -23 -25 -23 -18
-3 -19 -3 -14 -24 -25 -23 -17
-3 -19 -3 -14 -24 -25 -23 -17
-2 -18 -3 -14 -23 -25 -23 -17
-2 -17 -3 -13 -23 -25 -23 -17
0 -16 -3 -13 -22 -25 -23 -17
1 -15 -3 -12 -21 -25 -24 -18
1 -15 -3 -12 -21 -25 -24 -18
1 -15 -3 -12 -22 -25 -24 -18
0 -15 -3 -12 -22 -25 -24 -18
0 -15 -3 -12 -23 -25 -24 -18
-2 -16 -3 -12 -24 -24 -23 -18
-2 -16 -3 -12 -24 -24 -23 -18
-2 -16 -3 -12 -23 -24 -23 -18
-2 -16 -3 -12 -23 -24 -23 -18
-2 -16 -3 -12 -22 -24 -23 -18
-3 -15 -3 -13 -21 -24 -22 -19
-3 -15 -3 -13 -21 -24 -22 -19
-3 -15 -3 -13 -22 -24 -22 -19
-3 -16 -3 -13 -22 -25 -23 -19
-3 -16 -3 -13 -23 -25 -23 -19
-3 -17 -4 -14 -24 -26 -24 -18
-3 -17 -4 -14 -24 -26 -24 -18
-2 -17 -4 -14 -24 -26 -24 -18
-2 -17 -4 -13 -23 -26 -24 -19
0 -17 -4 -13 -23 -26 -24 -19
1 -17 -3 -12 -22 -26 -25 -20
1 -17 -3 -12 -22 -26 -25 -20
0 -17 -3 -12 -22 -26 -25 -20
0 -17 -3 -12 -23 -26 -24 -20
-2 -17 -3 -12 -23 -26 -24 -20
-3 -17 -4 -13 -24 -25 -23 -19
-3 -17 -4 -13 -24 -25 -23 -19
-3 -18 -4 -13 -24 -25 -23 -19
-3 -18 -4 -14 -24 -25 -24 -20
-3 -19 -4 -14 -24 -25 -24 -20
-3 -20 -4 -15 -24 -26 -25 -21
-3 -20 -4 -15 -24 -26 -25 -21
-3 -20 -4 -15 -24 -26 -25 -21
-3 -20 -4 -15 -24 -26 -25 -20
-3 -20 -4 -15 -24 -26 -25 -20
-3 -20 -4 -15 -24 -26 -24 -19
-3 -21 -4 -15 -24 -26 -24 -19
-3 -22 -4 -15 -24 -26 -24 -19
-2 -23 -3 -14 -23 -25 -24 -19
-2 -24 -3 -14 -23 -25 -24 -19
0 -26 -2 -13 -22 -24 -23 -20
0 -26 -2 -13 -22 -24 -23 -20
0 -26 -2 -13 -22 -24 -23 -20
1 -25 0 -13 -23 -23 -22 -19
1 -25 0 -13 -23 -23 -22 -19
2 -24 1 -13 -24 -22 -21 -18
2 -24 1 -13 -24 -22 -21 -18
1 -24 1 -13 -24 -22 -22 -18
0 -24 0 -13 -24 -23 -22 -19
-2 -24 0 -13 -24 -23 -23 -19
-3 -24 -2 -13 -24 -24 -24 -20
-3 -24 -2 -13 -24 -24 -24 -20
-3 -24 -2 -13 -24 -24 -24 -20
-2 -24 -2 -14 -24 -24 -24 -20
-2 -24 -2 -14 -24 -24 -24 -20
0 -24 -2 -15 -24 -24 -23 -19
0 -24 -2 -15 -24 -24 -23 -19
0 -24 -2 -15 -24 -24 -23 -19
0 -24 -2 -15 -24 -24 -23 -19
0 -24 -2 -15 -24 -24 -23 -19
0 -25 0 -14 -24 -24 -22 -19
0 -25 0 -14 -24 -24 -22 -19
-2 -25 0 -14 -24 -24 -22 -19
-3 -25 -2 -14 -24 -24 -22 -19
-4 -25 -2 -14 -24 -24 -22 -19
-5 -25 -3 -13 -25 -24 -23 -19
-5 -25 -3 -13 -25 -24 -23 -19
-5 -25 -3 -13 -25 -24 -23 -19
-4 -24 -3 -13 -25 -24 -23 -19
-4 -24 -3 -13 -25 -24 -23 -19
-3 -23 -3 -14 -24 -23 -23 -19
-3 -23 -3 -14 -24 -23 -23 -19
-3 -23 -2 -13 -24 -23 -23 -19
-3 -23 -2 -12 -23 -22 -22 -19
-3 -23 0 -11 -23 -22 -22 -19
-3 -23 0 -11 -23 -22 -22 -19
-2 -22 1 -10 -22 -21 -21 -18
-3 -21 1 -10 -22 -21 -21 -18
-3 -21 2 -10 -22 -21 -21 -18
-4 -20 2 -10 -22 -21 -21 -18
-4 -20 2 -10 -22 -21 -21 -18
-4 -18 4 -10 -21 -20 -20 -17
-3 -16 5 -9 -20 -19 -19 -16
-2 -15 7 -8 -20 -18 -18 -16
0 -13 8 -7 -19 -17 -17 -15
1 -12 9 -6 -19 -16 -16 -15
2 -11 10 -5 -18 -15 -15 -14
1 -12 10 -4 -18 -15 -15 -14
1 -12 11 -3 -17 -15 -15 -14
0 -13 11 -2 -17 -15 -15 -14
0 -13 11 -2 -17 -15 -15 -14
-2 -13 12 0 -16 -16 -16 -13
-2 -12 12 0 -16 -16 -16 -13
-3 -10 13 0 -15 -15 -15 -13
-3 -9 13 0 -15 -15 -15 -13
-3 -8 13 0 -15 -15 -15 -13
-4 -7 13 1 -14 -14 -14 -12
-3 -6 11 0 -14 -14 -13 -11
-2 -5 9 0 -14 -13 -13 -10
0 -4 7 -2 -14 -13 -12 -9
0 -3 6 -2 -14 -13 -12 -9
1 -2 5 -4 -14 -12 -11 -8
1 -2 4 -5 -15 -12 -11 -8
2 -2 3 -6 -16 -13 -11 -8
2 -2 2 -7 -17 -13 -11 -8
2 -2 2 -8 -17 -13 -11 -8
3 0 1 -9 -18 -14 -11 -8
2 0 0 -9 -18 -15 -12 -8
2 -2 0 -9 -19 -15 -12 -9
1 -2 -2 -9 -19 -16 -13 -9
1 -2 -2 -9 -19 -16 -13 -9
0 -3 -3 -9 -20 -17 -14 -10
0 -4 -2 -8 -20 -17 -13 -10
1 -5 -2 -8 -19 -16 -13 -9
1 -6 0 -7 -19 -16 -12 -9
1 -6 0 -7 -19 -16 -12 -9
1 -8 1 -6 -18 -15 -11 -8
0 -9 1 -6 -18 -15 -12 -8
-2 -11 1 -6 -18 -15 -12 -9
-3 -12 1 -6 -18 -15 -13 -9
-4 -13 1 -6 -18 -15 -13 -9
-5 -14 2 -7 -18 -17 -14 -10
-5 -15 1 -8 -20 -19 -15 -11
-5 -15 1 -9 -21 -20 -15 -12
-5 -16 0 -10 -23 -22 -16 -13
-5 -16 0 -11 -24 -23 -16 -13
-5 -17 -2 -12 -25 -24 -17 -14
-5 -17 -3 -12 -26 -24 -18 -15
-6 -18 -3 -13 -26 -25 -19 -16
-6 -18 -4 -13 -27 -25 -20 -17
-6 -18 -4 -13 -27 -25 -20 -17
-7 -19 -5 -14 -28 -26 -21 -18
-7 -19 -5 -14 -27 -26 -21 -18
-8 -19 -5 -14 -27 -26 -21 -18
-8 -19 -5 -14 -26 -26 -21 -18
-8 -19 -5 -14 -26 -26 -21 -18
-9 -20 -6 -13 -25 -26 -21 -17
-9 -20 -6 -13 -25 -26 -21 -17
-8 -19 -6 -13 -25 -26 -21 -17
-8 -19 -6 -13 -25 -26 -21 -17
-8 -19 -6 -13 -25 -26 -21 -17
-7 -18 -5 -13 -25 -27 -22 -18
-6 -18 -4 -13 -25 -27 -22 -18
-6 -18 -4 -13 -24 -26 -21 -17
-5 -18 -3 -13 -24 -26 -21 -17
-5 -18 -3 -13 -24 -26 -21 -17
-4 -18 -2 -12 -23 -25 -20 -16
-5 -19 -2 -12 -23 -25 -20 -17
-6 -20 -2 -12 -23 -25 -21 -17
-7 -21 -2 -12 -23 -25 -21 -18
-8 -21 -2 -12 -23 -25 -21 -18
-9 -22 -2 -12 -23 -26 -22 -19
-8 -22 -2 -12 -23 -26 -22 -19
-7 -21 -3 -12 -24 -26 -22 -19
-6 -21 -3 -12 -24 -26 -22 -19
-6 -21 -3 -12 -24 -26 -22 -19
-5 -20 -4 -12 -24 -26 -22 -18
-6 -19 -3 -10 -22 -25 -22 -18
-6 -18 -2 -9 -20 -25 -22 -19
-7 -17 0 -7 -18 -24 -22 -19
-7 -16 1 -6 -16 -24 -22 -19
-8 -13 6 7 -5 -16 -19 -19
-7 -10 11 19 7 -9 -15 -17
-7 -8 16 31 19 0 -11 -15
-6 -5 21 44 30 7 -8 -13
-6 -3 26 57 43 15 -4 -12
0 9 25 53 61 38 13 1
6 20 22 47 80 64 31 13
11 31 19 40 99 90 49 25
17 43 17 34 118 115 66 37
22 54 14 28 138 141 84 51
28 72 -27 -47 128 171 114 75
34 92 -71 -127 113 200 146 100
42 112 -115 -207 100 231 179 126
48 132 -159 -287 86 261 211 151
54 151 -203 -368 72 292 242 177
54 162 -233 -408 53 307 257 190
52 173 -262 -445 33 321 270 202
51 183 -290 -482 14 336 283 215
49 193 -319 -519 -7 350 297 227
48 203 -348 -556 -26 364 310 238
38 182 -347 -541 -47 313 272 215
29 157 -343 -521 -68 255 228 186
20 132 -339 -499 -90 196 183 158
11 107 -333 -479 -111 138 139 130
1 82 -329 -457 -133 79 94 101
-7 64 -308 -431 -152 28 60 76
-14 48 -284 -402 -173 -21 26 51
-21 30 -261 -374 -192 -71 -8 26
-28 14 -237 -346 -212 -120 -41 2
-35 -4 -214 -318 -232 -171 -75 -23
-35 -4 -190 -284 -210 -158 -72 -24
-32 0 -168 -249 -181 -139 -63 -22
-30 3 -145 -215 -153 -119 -55 -19
-28 5 -122 -180 -126 -100 -46 -16
-26 8 -100 -145 -97 -80 -36 -14
-23 9 -83 -121 -80 -71 -32 -12
-20 8 -69 -100 -66 -62 -28 -11
-17 7 -54 -78 -51 -53 -24 -10
-14 6 -39 -57 -36 -44 -21 -9
-11 5 -24 -35 -21 -34 -17 -8
-10 3 -18 -26 -16 -32 -16 -7
-9 2 -13 -18 -12 -30 -15 -7
-8 1 -7 -11 -9 -28 -15 -7
-7 0 -2 -3 -5 -26 -14 -7
-7 -2 4 6 0 -24 -14 -7
-6 -3 5 9 2 -23 -13 -6
-5 -4 6 12 4 -22 -13 -7
-5 -5 7 15 5 -22 -14 -8
-4 -6 8 17 7 -21 -14 -9
-4 -6 9 20 8 -21 -14 -10
-3 -7 11 22 9 -19 -15 -11
-3 -7 13 24 10 -18 -14 -11
-3 -7 15 26 11 -17 -13 -11
-3 -7 17 27 12 -16 -12 -11
-3 -7 19 29 12 -15 -12 -11
-4 -6 20 31 14 -14 -11 -10
-4 -6 20 33 16 -13 -11 -10
-4 -6 21 35 17 -12 -11 -10
-4 -6 21 36 19 -11 -11 -10
-4 -6 21 38 20 -10 -11 -10
-4 -6 22 40 21 -8 -9 -9
-4 -6 23 42 22 -7 -8 -8
-4 -5 24 43 22 -5 -7 -7
-4 -5 25 44 23 -4 -6 -6
-4 -5 25 45 23 -3 -5 -6
-3 -4 26 46 24 -2 -4 -5
-3 -4 26 46 25 -2 -4 -6
-3 -4 26 47 26 -3 -5 -6
-3 -4 26 47 27 -3 -5 -7
-3 -4 26 47 27 -3 -5 -7
-2 -3 27 49 28 -3 -6 -8
-2 -4 27 50 28 -2 -5 -7
-3 -5 28 51 28 1 -4 -7
-3 -6 28 52 28 2 -3 -6
-3 -6 28 53 28 3 -2 -6
-3 -7 29 54 29 4 0 -5
-2 -6 29 55 30 4 0 -5
0 -6 30 56 31 4 0 -5
1 -5 30 57 32 4 0 -5
2 -5 30 57 32 4 0 -5
3 -4 31 59 33 5 -2 -5
2 -3 31 60 33 6 0 -5
2 -3 32 62 34 7 0 -5
1 -2 32 63 34 8 1 -5
1 -2 32 64 34 9 1 -5
0 0 33 66 36 10 2 -4
0 0 33 67 37 11 2 -3
0 0 34 69 39 12 3 -3
0 0 34 70 42 13 3 -2
0 0 34 71 43 13 3 -2
0 -2 35 73 44 14 4 0
0 0 35 74 44 15 4 0
0 1 36 75 44 16 5 1
0 2 36 76 44 17 5 1
0 3 36 77 44 17 5 1
1 4 37 79 46 18 6 2
2 4 37 81 49 19 6 2
2 4 38 84 51 20 7 2
3 4 38 86 53 21 7 2
3 4 38 88 55 22 7 2
4 5 39 90 57 24 9 3
4 6 40 92 58 25 10 4
4 7 40 94 59 26 12 5
4 8 42 95 60 27 14 6
4 8 42 97 61 28 15 7
4 9 44 100 63 30 16 8
4 9 45 103 66 31 17 9
4 9 46 105 68 33 17 9
4 9 47 108 70 35 18 10
4 9 48 111 72 36 18 10
5 10 49 114 74 38 19 11
6 11 50 116 75 39 20 12
6 12 50 119 77 40 21 12
7 13 51 121 79 42 22 13
7 13 51 125 80 43 23 13
8 15 52 129 84 46 25 14
8 16 53 132 87 48 26 15
8 18 54 136 89 50 27 15
8 20 55 139 92 53 29 16
8 21 56 143 95 55 30 16
9 22 57 146 97 57 31 18
10 22 59 149 99 59 33 19
11 21 60 152 101 61 34 21
12 21 61 155 103 62 35 23
12 21 62 158 105 64 36 24
13 21 63 160 108 66 38 25
14 22 63 163 110 68 39 26
14 23 64 165 113 70 40 27
15 25 64 169 115 72 43 28
15 26 64 171 118 74 44 28
16 27 65 173 119 76 45 29
16 27 66 174 120 77 46 30
16 28 67 175 121 78 47 31
16 28 68 177 122 80 48 32
16 28 68 178 122 81 49 33
16 29 69 179 125 82 50 34
16 30 69 180 126 85 51 35
16 30 69 181 128 86 51 35
16 31 69 182 130 87 52 36
16 31 69 182 131 88 52 36
16 32 68 182 131 89 53 37
16 34 68 181 130 89 54 38
17 35 67 179 129 89 54 38
17 36 67 177 127 89 55 39
17 37 67 176 126 89 55 39
18 38 66 173 125 90 56 40
18 39 65 171 125 90 56 40
17 40 64 168 123 89 56 40
17 42 63 165 123 89 56 40
17 43 63 162 123 89 56 40
16 44 61 157 119 87 55 42
16 44 59 151 115 86 55 42
15 44 56 146 111 84 55 42
15 44 54 140 107 81 55 42
15 44 52 135 103 80 55 42
14 43 49 129 100 77 53 43
13 42 47 121 96 74 52 42
13 42 44 115 92 72 51 40
12 40 42 109 89 69 49 39
12 40 38 103 85 66 48 38
11 38 37 97 80 64 46 37
10 37 35 91 76 61 45 36
10 36 34 85 72 59 44 35
9 34 33 78 68 56 42 34
9 33 32 73 63 54 40 33
7 30 29 67 59 50 37 30
6 27 26 62 55 45 33 27
5 25 24 57 50 39 29 24
3 22 21 52 46 34 26 20
2 19 18 47 40 29 22 17
1 17 17 43 37 27 20 16
1 16 17 39 33 24 19 15
1 15 17 36 29 22 17 15
1 13 17 32 26 19 15 14
1 12 17 29 22 17 14 14
2 10 16 26 19 14 11 11
1 8 14 24 16 10 8 9
1 6 13 21 13 6 5 6
0 4 12 19 10 3 2 4
0 2 11 16 7 -2 -2 1
-2 1 10 14 5 -3 -3 0
-3 0 10 13 4 -5 -3 0
-3 0 10 12 3 -6 -4 0
-4 -2 10 10 1 -7 -4 0
-4 -2 10 9 0 -8 -4 0
-5 -3 11 8 -2 -10 -5 -2
-4 -4 11 7 -3 -11 -7 -3
-4 -4 10 7 -4 -13 -8 -4
-3 -5 10 6 -5 -15 -9 -5
-3 -5 10 6 -6 -16 -10 -6
-2 -6 9 5 -8 -17 -11 -7
-3 -7 9 5 -9 -17 -11 -7
-3 -8 9 4 -10 -17 -11 -7
-4 -9 9 4 -12 -17 -11 -7
-4 -9 9 4 -13 -17 -11 -7
-5 -10 8 3 -14 -17 -10 -6
-5 -10 8 2 -14 -18 -10 -7
-5 -10 8 2 -14 -18 -11 -7
-5 -10 8 1 -14 -19 -11 -8
-5 -10 8 1 -14 -19 -11 -8
-5 -11 8 0 -14 -20 -12 -9
-5 -12 8 0 -14 -20 -12 -9
-5 -12 8 0 -15 -20 -12 -8
-5 -13 8 0 -15 -20 -12 -8
-5 -13 8 0 -15 -20 -12 -8
-5 -14 7 -2 -16 -19 -13 -7
-5 -14 7 -2 -16 -19 -13 -7
-5 -14 7 -2 -15 -19 -13 -7
-5 -14 7 -2 -15 -19 -13 -7
-5 -14 7 -2 -15 -19 -13 -7
-4 -15 7 -3 -14 -20 -12 -8
-5 -15 7 -3 -14 -20 -12 -8
-5 -15 7 -3 -15 -20 -12 -8
-6 -15 7 -3 -15 -20 -12 -8
-6 -15 7 -3 -15 -20 -12 -8
-7 -15 6 -2 -16 -20 -12 -9
-6 -15 6 -2 -16 -20 -12 -9
-5 -15 7 -2 -16 -20 -12 -9
-4 -15 7 -2 -16 -20 -12 -9
-3 -15 7 -2 -16 -20 -12 -9
-2 -14 8 0 -15 -19 -13 -10
-3 -14 8 0 -16 -19 -13 -10
-4 -14 8 1 -16 -19 -12 -9
-4 -14 8 1 -17 -19 -12 -9
-5 -14 8 1 -17 -19 -12 -9
-6 -14 8 2 -18 -18 -11 -8
-6 -14 8 2 -16 -18 -11 -8
-6 -15 9 3 -15 -18 -12 -8
-6 -15 9 3 -14 -18 -12 -8
-6 -15 9 3 -13 -18 -12 -8
-7 -16 10 4 -12 -18 -13 -8
-7 -15 10 4 -12 -18 -13 -8
-6 -14 11 5 -12 -17 -12 -8
-6 -13 11 5 -12 -17 -12 -8
-6 -12 11 5 -12 -17 -12 -8
-5 -11 12 6 -13 -16 -11 -7
-5 -12 12 6 -13 -16 -11 -7
-5 -12 11 6 -12 -16 -12 -8
-5 -13 11 6 -12 -16 -12 -8
-5 -13 11 6 -12 -16 -12 -8
-5 -14 10 7 -11 -17 -13 -9
-5 -13 10 7 -11 -17 -13 -9
-5 -12 10 7 -12 -17 -12 -9
-5 -12 10 7 -12 -17 -12 -9
-5 -11 10 7 -12 -17 -12 -9
-4 -10 11 6 -13 -17 -11 -8
-4 -11 11 6 -12 -17 -11 -8
-4 -11 11 6 -12 -17 -12 -8
-4 -12 11 6 -11 -17 -12 -8
-4 -12 11 6 -11 -17 -12 -8
-5 -13 12 7 -10 -17 -13 -8
-5 -13 12 7 -10 -17 -13 -8
-5 -13 12 7 -10 -17 -12 -7
-5 -13 12 7 -10 -17 -12 -7
-5 -13 12 7 -10 -17 -12 -7
-5 -12 12 7 -11 -17 -11 -6
-5 -12 12 7 -11 -17 -11 -7
-5 -12 12 7 -11 -17 -11 -7
-5 -12 12 7 -11 -17 -11 -8
-5 -12 12 7 -11 -17 -11 -8
-5 -11 13 8 -11 -18 -12 -9
-5 -11 13 8 -11 -18 -12 -9
-6 -11 13 7 -12 -17 -12 -9
-6 -11 13 7 -12 -17 -12 -9
-6 -11 13 7 -12 -17 -12 -9
-7 -10 12 6 -13 -16 -12 -8
-7 -10 12 6 -13 -16 -12 -8
-7 -10 12 5 -13 -17 -12 -8
-7 -10 12 5 -13 -17 -12 -8
-7 -10 12 5 -13 -17 -12 -8
-6 -10 13 4 -12 -18 -13 -9
-5 -10 13 4 -12 -18 -13 -9
-4 -10 13 4 -13 -18 -12 -8
-4 -10 13 4 -13 -18 -12 -8
-3 -10 13 4 -13 -18 -12 -8
-2 -10 13 4 -14 -17 -11 -7
-3 -10 13 3 -14 -18 -12 -8
-3 -10 12 3 -15 -18 -13 -9
-4 -10 12 2 -15 -19 -13 -9
-4 -10 12 2 -15 -19 -14 -10
-5 -11 11 1 -16 -20 -15 -11
-5 -11 11 1 -16 -20 -15 -11
-5 -11 11 0 -17 -20 -15 -10
-5 -11 11 0 -17 -20 -15 -10
-5 -11 11 0 -17 -20 -15 -10
-6 -12 10 -2 -18 -20 -14 -9
-5 -12 10 -2 -18 -20 -14 -9
-5 -11 10 -2 -18 -20 -14 -9
-4 -11 10 -2 -18 -20 -14 -9
-4 -11 10 -2 -18 -20 -14 -9
-3 -10 9 -2 -17 -20 -14 -10
-3 -10 9 -2 -17 -20 -14 -10
-3 -10 9 -2 -18 -20 -14 -10
-3 -10 9 -2 -18 -20 -14 -10
-3 -10 9 -2 -18 -20 -14 -10
-4 -10 9 -3 -19 -21 -15 -9
-4 -11 9 -4 -19 -22 -16 -10
-5 -12 8 -4 -19 -22 -16 -10
-5 -12 8 -5 -19 -23 -17 -11
-5 -13 8 -5 -19 -23 -17 -11
-6 -14 7 -6 -20 -24 -18 -12
-5 -13 7 -6 -21 -24 -18 -12
-5 -13 7 -6 -21 -23 -18 -12
-4 -12 7 -6 -22 -23 -18 -12
-4 -12 7 -6 -22 -23 -18 -12
-3 -11 7 -7 -23 -22 -17 -13
-3 -12 7 -7 -23 -22 -17 -13
-4 -12 7 -7 -22 -22 -17 -13
-4 -13 7 -7 -22 -22 -17 -13
-4 -13 7 -7 -22 -22 -17 -13
-5 -14 7 -7 -21 -23 -17 -12
-5 -13 7 -7 -21 -23 -17 -12
-5 -13 7 -7 -22 -23 -17 -12
-5 -12 7 -7 -22 -23 -17 -12
-5 -12 7 -7 -22 -23 -17 -12
-4 -11 7 -7 -23 -23 -17 -11
-4 -11 7 -7 -23 -23 -17 -11
-4 -12 7 -8 -23 -23 -17 -12
-4 -12 7 -8 -23 -23 -17 -12
-4 -12 7 -8 -23 -23 -17 -12
-5 -13 6 -9 -22 -24 -18 -13
-5 -13 6 -9 -22 -24 -18 -13
-5 -12 7 -9 -23 -23 -18 -12
-5 -12 7 -9 -23 -23 -18 -12
-5 -12 7 -9 -23 -23 -18 -12
-4 -11 8 -8 -24 -22 -17 -11
-3 -11 8 -8 -23 -22 -17 -11
-3 -11 8 -8 -23 -23 -17 -11
-2 -11 8 -8 -22 -23 -17 -11
-2 -11 8 -8 -22 -23 -17 -11
0 -11 8 -8 -21 -24 -17 -12
0 -11 8 -8 -21 -24 -17 -12
-2 -12 7 -8 -22 -24 -17 -12
-3 -13 7 -8 -23 -24 -17 -12
-3 -13 7 -8 -23 -24 -17 -12
-4 -14 6 -9 -24 -24 -18 -13
-4 -14 6 -9 -24 -24 -18 -13
-5 -15 6 -10 -24 -24 -19 -13
-6 -15 6 -10 -24 -24 -19 -13
-6 -15 6 -10 -24 -24 -19 -13
-7 -16 5 -11 -23 -24 -20 -13
-7 -16 5 -11 -23 -24 -20 -13
-7 -16 6 -11 -23 -24 -19 -13
-7 -16 6 -11 -23 -24 -19 -13
-7 -16 6 -11 -23 -24 -19 -13
-6 -17 7 -10 -24 -24 -18 -13
-6 -16 7 -10 -24 -24 -18 -13
-5 -14 7 -10 -23 -24 -18 -13
-4 -13 7 -10 -23 -24 -18 -13
-4 -12 7 -10 -23 -24 -18 -13
-3 -11 6 -10 -22 -25 -19 -13
-3 -11 6 -10 -22 -24 -19 -13
-3 -12 7 -9 -22 -23 -18 -12
-3 -12 7 -9 -22 -23 -17 -12
-3 -12 7 -9 -22 -22 -17 -12
-2 -13 8 -8 -22 -21 -16 -11
-2 -14 8 -9 -22 -21 -16 -12
-2 -15 7 -10 -22 -22 -17 -13
-2 -15 7 -10 -22 -23 -18 -13
-2 -16 7 -11 -22 -23 -18 -14
-3 -17 6 -12 -23 -24 -19 -15
-3 -15 6 -12 -23 -24 -19 -15
-2 -14 7 -11 -24 -24 -18 -14
-2 -12 7 -11 -24 -24 -18 -13
-2 -11 7 -11 -24 -24 -18 -13
0 -10 8 -10 -25 -23 -17 -12
0 -11 8 -10 -25 -23 -17 -12
-2 -13 8 -10 -24 -23 -17 -12
-2 -14 8 -10 -23 -23 -17 -12
-2 -15 8 -10 -23 -23 -17 -12
-3 -16 7 -10 -22 -23 -18 -12
-3 -16 7 -10 -22 -23 -18 -12
-3 -16 7 -10 -23 -23 -18 -12
-3 -16 7 -10 -23 -23 -18 -12
-3 -16 7 -10 -23 -23 -18 -12
-4 -17 6 -11 -24 -23 -18 -13
-4 -17 6 -11 -24 -23 -18 -13
-3 -16 6 -11 -23 -23 -18 -13
-2 -16 6 -11 -23 -23 -18 -13
-2 -16 6 -11 -23 -23 -18 -13
0 -15 6 -10 -22 -23 -19 -13
0 -15 6 -10 -22 -23 -19 -13
0 -15 6 -11 -23 -23 -19 -14
0 -15 6 -11 -24 -23 -19 -14
0 -15 6 -11 -24 -23 -19 -14
-2 -15 6 -12 -25 -24 -19 -15
-2 -15 6 -12 -25 -24 -19 -15
-2 -14 6 -12 -25 -24 -20 -15
-2 -14 6 -12 -25 -24 -20 -15
-2 -14 6 -12 -25 -24 -20 -15
0 -13 5 -13 -25 -25 -21 -15
-2 -15 5 -13 -25 -25 -21 -15
-4 -16 6 -13 -25 -25 -20 -15
-5 -18 6 -13 -25 -25 -20 -15
-6 -19 6 -13 -25 -25 -20 -15
-7 -20 7 -12 -24 -24 -19 -14
-5 -19 7 -12 -24 -24 -19 -14
-3 -18 6 -12 -24 -24 -19 -14
-2 -17 6 -12 -24 -24 -19 -14
1 -16 6 -12 -24 -24 -19 -14
2 -15 5 -12 -23 -23 -19 -15
1 -15 5 -12 -23 -23 -19 -15
0 -15 6 -12 -22 -23 -18 -14
-2 -15 6 -12 -22 -23 -17 -14
-3 -15 6 -12 -22 -23 -17 -14
-4 -16 7 -11 -21 -22 -16 -13
-4 -16 7 -11 -21 -22 -16 -13
-4 -16 7 -11 -21 -23 -17 -14
-4 -16 7 -11 -21 -23 -17 -14
-4 -16 7 -11 -21 -23 -17 -14
-4 -15 7 -12 -22 -24 -18 -15
-4 -15 7 -12 -22 -24 -18 -15
-3 -14 6 -12 -22 -24 -18 -15
-3 -14 6 -12 -22 -24 -18 -15
-3 -14 6 -12 -22 -24 -18 -15
-2 -13 5 -12 -23 -23 -18 -14
-2 -13 5 -12 -23 -23 -18 -14
-2 -14 5 -12 -22 -23 -18 -14
-2 -15 5 -12 -22 -23 -18 -14
-2 -15 5 -12 -22 -23 -18 -14
0 -16 6 -12 -21 -22 -18 -15
0 -16 6 -12 -21 -22 -18 -15
0 -15 6 -12 -22 -22 -18 -14
0 -15 6 -12 -22 -22 -18 -13
0 -15 6 -12 -22 -22 -18 -13
-2 -14 7 -11 -23 -22 -17 -12
-2 -14 7 -11 -23 -22 -17 -13
-2 -14 6 -12 -23 -23 -18 -14
-2 -14 5 -13 -23 -23 -18 -14
-2 -14 5 -13 -23 -23 -18 -15
-3 -15 4 -14 -24 -24 -19 -16
-3 -15 4 -14 -24 -24 -19 -16
-2 -15 4 -14 -24 -24 -18 -15
0 -15 4 -14 -24 -24 -18 -15
0 -15 4 -14 -24 -24 -18 -15
1 -14 5 -13 -23 -23 -17 -14
1 -14 5 -13 -23 -23 -17 -14
2 -14 5 -13 -23 -23 -18 -14
3 -14 5 -13 -23 -23 -18 -14
3 -14 5 -13 -23 -23 -18 -14
4 -14 5 -12 -23 -24 -19 -14
3 -13 5 -12 -23 -24 -19 -14
2 -12 5 -11 -22 -23 -18 -14
1 -12 5 -11 -21 -22 -17 -14
0 -11 5 -11 -21 -22 -17 -14
-2 -10 6 -10 -20 -21 -16 -13
-2 -10 7 -9 -20 -21 -16 -13
-2 -9 8 -8 -19 -20 -16 -13
-2 -8 8 -7 -19 -20 -16 -13
-2 -8 9 -6 -19 -20 -16 -13
0 -6 10 -5 -18 -19 -15 -13
2 -4 12 -4 -17 -18 -14 -12
3 -2 13 -3 -16 -17 -13 -11
4 1 14 -3 -15 -16 -12 -11
6 3 16 -2 -14 -15 -11 -10
7 4 17 0 -13 -14 -10 -9
7 4 17 0 -13 -14 -10 -9
6 3 17 0 -13 -15 -10 -10
5 2 17 0 -13 -15 -10 -10
5 2 17 0 -13 -15 -10 -10
4 2 16 1 -13 -16 -11 -11
4 4 16 1 -13 -15 -11 -10
5 6 15 1 -13 -14 -10 -9
5 8 15 1 -13 -13 -10 -9
5 10 15 1 -13 -12 -10 -8
6 11 13 0 -13 -11 -9 -7
6 10 11 -3 -13 -12 -9 -7
6 9 9 -4 -14 -13 -9 -7
6 9 7 -5 -15 -13 -9 -7
6 8 4 -7 -15 -14 -9 -7
6 7 3 -8 -16 -15 -10 -7
6 7 3 -8 -16 -15 -10 -7
6 7 3 -9 -17 -15 -10 -8
6 7 3 -9 -18 -15 -10 -8
6 7 3 -9 -18 -15 -10 -8
6 7 2 -10 -19 -16 -10 -9
6 7 2 -10 -19 -16 -10 -9
6 6 2 -9 -18 -15 -9 -9
6 5 2 -9 -17 -15 -8 -9
6 5 2 -9 -17 -15 -8 -9
6 4 2 -8 -16 -14 -7 -8
6 4 2 -8 -16 -14 -7 -8
7 4 3 -7 -17 -14 -7 -8
7 4 3 -7 -17 -14 -7 -8
7 4 3 -7 -17 -14 -7 -8
8 3 4 -6 -18 -15 -8 -8
6 1 4 -7 -19 -16 -9 -9
5 -2 3 -8 -20 -17 -10 -10
4 -4 3 -9 -20 -18 -11 -11
2 -6 3 -10 -21 -19 -12 -12
1 -7 2 -11 -22 -20 -13 -13
2 -7 2 -11 -23 -20 -13 -13
3 -6 1 -12 -24 -21 -13 -13
4 -5 1 -13 -24 -21 -13 -13
5 -5 1 -13 -25 -21 -13 -13
6 -4 0 -14 -26 -22 -14 -14
6 -6 0 -14 -26 -22 -14 -14
5 -7 0 -14 -26 -23 -15 -15
4 -8 0 -14 -26 -24 -15 -16
4 -10 0 -14 -26 -24 -15 -16
3 -11 -2 -15 -25 -25 -16 -17
3 -11 -2 -15 -25 -25 -16 -17
2 -11 -2 -15 -25 -25 -16 -17
2 -11 -2 -15 -25 -25 -16 -17
2 -11 -2 -15 -25 -25 -16 -17
1 -11 -3 -15 -26 -26 -17 -17
1 -11 -3 -15 -26 -26 -17 -17
1 -11 -3 -15 -26 -26 -17 -17
1 -11 -3 -15 -26 -26 -17 -17
1 -11 -3 -15 -26 -26 -17 -17
2 -10 -2 -14 -25 -25 -18 -18
2 -10 -2 -14 -25 -25 -18 -18
2 -10 -2 -13 -25 -25 -17 -18
2 -10 -2 -13 -25 -25 -17 -18
2 -10 -2 -13 -25 -25 -17 -18
3 -10 0 -12 -25 -24 -16 -18
3 -10 0 -12 -25 -24 -16 -18
3 -11 0 -13 -25 -24 -17 -18
3 -12 0 -13 -25 -24 -18 -18
3 -12 0 -13 -25 -24 -18 -18
4 -13 -2 -14 -24 -25 -19 -19
4 -13 -2 -14 -24 -25 -19 -19
4 -12 -2 -14 -24 -25 -18 -18
4 -12 -2 -14 -24 -25 -18 -18
4 -12 -2 -14 -24 -25 -18 -18
3 -11 1 -10 -22 -23 -17 -17
3 -11 3 -4 -16 -19 -15 -17
2 -12 6 4 -10 -15 -13 -18
2 -12 9 11 -4 -11 -12 -18
2 -12 11 17 3 -7 -10 -18
3 -8 15 26 15 4 -4 -16
7 4 19 36 33 20 7 -8
11 15 23 47 52 36 17 0
15 25 27 57 69 53 27 7
19 36 31 67 88 69 37 15
24 50 21 46 100 93 56 29
31 64 -7 -10 106 126 84 50
38 78 -34 -64 113 157 110 70
47 93 -62 -119 120 189 138 92
54 107 -90 -175 127 222 165 112
59 125 -124 -234 118 250 193 136
62 145 -165 -300 92 273 222 160
64 164 -206 -364 65 297 251 185
67 185 -248 -430 38 321 279 210
70 205 -289 -494 13 345 308 234
68 210 -315 -528 -6 350 313 241
60 195 -323 -527 -14 334 290 226
51 181 -331 -527 -23 317 268 212
42 167 -340 -526 -32 301 245 197
33 152 -348 -525 -40 284 224 183
24 134 -345 -512 -65 235 188 159
15 111 -328 -486 -106 151 138 127
5 89 -311 -461 -146 68 88 93
-5 66 -295 -435 -187 -15 37 60
-15 44 -277 -408 -228 -99 -13 27
-20 29 -256 -378 -239 -139 -39 8
-21 25 -230 -340 -218 -132 -40 3
-21 21 -204 -302 -195 -123 -40 -3
-22 17 -179 -264 -174 -116 -41 -8
-23 13 -153 -226 -152 -108 -43 -13
-23 10 -132 -193 -131 -99 -41 -16
-19 10 -113 -165 -111 -87 -36 -14
-16 10 -94 -139 -92 -75 -31 -13
-12 11 -75 -112 -72 -63 -26 -12
-8 11 -57 -85 -53 -52 -21 -10
-6 12 -44 -65 -38 -43 -18 -9
-4 11 -35 -52 -31 -38 -16 -8
-2 10 -27 -39 -25 -34 -14 -8
1 9 -19 -26 -18 -29 -12 -7
3 8 -11 -14 -11 -25 -10 -6
4 7 -5 -6 -7 -22 -9 -5
4 7 -3 -2 -6 -22 -9 -6
4 6 1 3 -5 -22 -9 -7
4 5 4 7 -4 -21 -9 -9
4 5 6 10 -3 -21 -9 -10
4 4 8 14 0 -20 -10 -11
4 3 10 16 2 -19 -10 -11
4 3 11 19 4 -19 -10 -11
5 2 13 22 6 -18 -9 -10
5 1 15 24 8 -17 -9 -10
6 0 16 26 10 -16 -8 -9
6 0 16 28 12 -14 -8 -9
6 0 17 29 13 -13 -8 -9
6 0 18 31 14 -12 -8 -9
6 0 18 33 16 -10 -8 -9
7 0 19 34 17 -9 -8 -9
7 0 20 36 17 -8 -7 -9
7 1 20 37 18 -7 -7 -9
7 2 21 38 19 -6 -6 -9
7 2 22 40 19 -5 -5 -9
7 3 23 42 20 -4 -4 -8
7 3 23 42 20 -4 -4 -8
7 2 23 43 21 -4 -4 -8
7 1 24 44 22 -4 -4 -8
7 1 24 44 22 -4 -4 -8
6 0 25 45 23 -3 -3 -7
6 1 25 46 23 -3 -3 -7
6 2 25 46 23 -3 -3 -7
6 3 25 47 23 -2 -2 -7
6 4 25 48 23 -2 -2 -7
6 5 25 49 24 0 0 -6
6 5 25 50 24 0 0 -6
6 4 25 50 25 1 0 -6
6 3 26 51 26 2 0 -6
6 3 26 52 26 2 0 -6
7 2 27 53 27 3 0 -6
7 3 27 55 28 4 0 -6
7 4 27 56 28 5 0 -6
7 5 27 58 29 6 1 -6
7 6 27 60 30 7 1 -6
8 7 28 61 31 8 2 -6
8 7 29 62 33 9 2 -5
8 7 30 63 35 9 3 -5
8 7 31 65 37 10 4 -4
8 7 32 66 39 11 4 -3
9 7 33 67 42 12 5 -2
9 7 33 69 42 13 6 -2
9 7 33 70 42 14 6 -2
10 8 33 71 42 15 7 0
10 8 33 73 42 16 8 0
11 9 34 74 43 17 9 1
11 10 34 75 45 17 9 1
11 10 35 75 46 18 9 1
11 11 36 76 47 19 9 2
11 12 36 77 49 19 9 2
11 13 37 78 50 20 10 3
11 13 37 81 50 21 11 3
11 13 37 84 51 23 11 3
11 14 37 86 52 24 12 3
11 14 37 88 52 26 13 3
12 15 37 90 54 27 14 4
12 15 38 93 56 28 14 4
12 15 38 95 59 29 14 4
12 16 39 97 61 31 15 5
12 16 40 99 64 32 15 5
