I II V1 V2 V3 V4 V5 V6
15 -8 21 8 -11 -1 -27 -33
0 -1 24 21 -5 9 -18 -27
-7 -8 35 36 3 17 -6 -17
-3 -14 26 14 -5 3 -27 -29
3 -8 21 15 -2 5 -25 -30
7 -1 25 21 -1 6 -21 -24
0 -9 25 24 -1 5 -20 -31
-5 -15 22 18 -9 4 -25 -34
-3 -9 30 27 -2 11 -12 -28
-2 -4 32 26 -3 8 -17 -27
-1 -8 37 29 2 11 -15 -19
-5 -2 25 26 0 6 -18 -23
1 0 27 30 -2 9 -13 -26
3 -7 30 28 -11 3 -25 -39
7 -9 25 33 -3 8 -18 -34
12 -8 23 30 -3 11 -13 -30
1 -7 30 22 6 12 -14 -30
-6 -4 26 19 2 12 -17 -31
-5 -5 24 39 17 24 2 -17
4 -7 20 32 9 16 -3 -24
4 -6 18 29 1 15 -5 -22
-3 -8 25 34 7 20 -1 -19
4 -11 27 41 7 18 -2 -21
8 -10 26 30 -6 9 -17 -33
5 -4 20 34 -4 12 -8 -29
-9 -3 36 42 12 21 2 -18
-5 -4 32 39 8 19 0 -19
2 -6 19 32 -7 12 -11 -23
4 1 26 42 3 19 2 -20
8 -3 30 41 6 15 -2 -21
9 -8 32 36 8 15 -3 -21
5 -13 40 37 8 23 7 -18
-4 -9 46 40 14 27 16 -12
2 -13 28 37 7 18 1 -21
3 -10 30 50 11 24 7 -15
3 -11 29 53 11 25 9 -17
3 -3 38 51 11 23 4 -23
12 -7 36 44 9 21 2 -28
12 -1 32 45 19 30 15 -20
9 1 24 39 13 24 10 -24
3 -4 27 40 23 25 10 -24
8 -7 31 45 13 25 10 -16
16 -2 32 46 20 25 13 -16
12 -4 23 36 10 18 -1 -29
0 -7 29 47 27 31 14 -15
1 -5 28 51 29 34 24 -14
2 0 29 47 24 32 17 -20
5 -1 30 45 15 28 7 -25
6 5 39 56 25 36 24 -14
6 9 30 53 17 28 15 -21
5 1 30 48 17 31 15 -18
11 -10 28 48 28 32 15 -20
17 -13 35 59 32 37 24 -14
8 -8 37 58 25 32 11 -20
0 -3 35 65 29 39 19 -13
5 -4 38 61 29 43 26 -10
-2 -5 40 58 34 43 25 -13
-2 4 37 57 28 43 22 -15
9 10 40 68 42 48 41 -7
4 5 41 61 33 41 31 -13
0 -3 39 70 33 45 31 -11
14 -7 30 63 27 43 27 -14
17 -5 38 76 30 43 31 -7
3 -4 36 69 33 39 23 -13
2 0 38 65 33 43 28 -12
13 0 35 71 43 45 35 -9
14 4 36 78 42 41 33 -5
10 6 38 68 38 39 25 -3
12 6 47 75 50 50 43 3
7 -1 48 73 48 49 40 -3
14 3 43 75 44 45 33 -10
17 6 46 75 42 46 35 -11
18 6 46 75 41 46 41 -9
37 2 41 71 20 33 17 -25
33 0 39 77 32 42 28 -13
11 12 40 78 39 45 33 -9
8 10 41 80 34 47 35 -7
16 3 43 70 34 43 31 -12
12 10 49 75 43 54 48 3
8 8 44 81 43 57 48 9
11 7 40 76 44 54 44 3
13 8 50 74 39 52 43 -1
12 6 52 82 41 53 47 1
11 1 48 81 34 45 30 -11
8 3 43 81 39 51 42 0
8 9 41 79 40 49 43 -3
12 15 42 76 36 45 38 -6
27 20 36 67 30 39 29 -10
17 17 38 87 43 53 52 7
6 13 41 84 41 54 49 13
7 20 34 78 35 49 43 5
0 15 39 83 43 51 48 0
11 14 40 82 37 49 47 1
14 7 36 69 29 39 31 -11
16 11 45 75 33 46 41 -3
15 21 51 82 42 51 52 3
19 19 43 74 36 50 50 6
18 17 41 72 33 50 44 6
16 20 46 78 49 60 62 23
19 20 46 73 38 54 55 18
16 24 44 74 39 51 52 9
8 25 43 67 33 51 53 10
9 26 36 67 32 52 57 14
14 18 34 63 34 48 46 9
15 17 39 70 40 54 57 13
9 23 43 81 34 55 60 16
21 20 43 67 27 48 50 9
6 14 47 68 30 50 52 9
4 24 56 77 44 61 71 25
11 26 51 60 35 52 58 19
11 23 44 46 36 52 54 12
8 18 39 50 36 56 60 15
15 18 42 59 35 54 61 11
22 25 28 45 24 43 39 -3
25 23 39 49 26 51 50 4
6 26 57 47 33 54 57 9
-12 22 52 47 36 59 60 13
-9 19 45 33 26 53 51 7
1 21 53 39 30 55 62 14
4 18 53 38 21 47 52 7
-2 9 42 31 19 44 48 1
4 12 43 26 24 44 46 3
-1 18 50 28 26 47 53 5
-10 6 38 22 16 44 42 -1
-10 9 37 27 24 48 51 9
-5 10 36 25 25 45 52 7
-7 3 39 33 22 43 49 6
2 4 39 31 17 37 41 -3
4 7 46 31 29 45 56 3
9 3 39 21 23 35 46 -2
6 -1 35 18 15 32 41 -4
-4 -1 35 18 19 33 42 -5
-10 5 40 22 26 35 47 -2
-8 4 40 -1 4 22 27 -20
-9 6 41 10 15 30 36 -11
-16 2 42 24 21 39 47 1
-14 11 40 12 14 32 39 -11
-11 11 45 9 7 30 36 -11
-4 6 45 27 25 37 48 -2
3 6 38 19 19 26 34 -15
-3 6 36 17 14 24 29 -13
-17 0 46 21 13 29 36 -3
-18 1 55 16 15 29 40 -2
-16 2 54 2 7 20 29 -13
-2 3 48 10 6 20 28 -15
2 3 42 17 11 22 29 -16
1 4 43 11 10 22 28 -12
-4 3 43 4 21 25 26 -12
-5 6 53 19 29 35 43 2
-10 7 51 17 17 28 35 -5
-16 7 51 16 13 28 31 -17
-4 0 44 12 9 27 32 -14
2 1 43 13 12 27 35 -14
1 7 39 11 8 18 19 -20
-2 4 37 10 15 22 27 -13
-7 3 39 8 22 26 31 -15
-9 2 43 9 18 28 31 -10
-11 -1 48 5 22 30 28 -8
-13 6 54 21 31 42 48 3
-19 3 53 21 22 41 48 -3
-10 1 45 11 17 35 40 -10
-3 0 44 12 21 36 40 -9
-8 9 46 22 20 37 44 -6
-13 7 42 17 13 28 28 -16
-14 0 53 25 32 35 39 -6
-15 -3 51 24 31 36 43 -3
-17 -2 41 19 16 31 37 -2
-5 -5 33 15 6 24 30 -11
1 -2 41 22 22 34 45 -6
-9 -1 48 24 28 36 44 -1
-4 10 40 8 14 30 34 -11
-3 4 40 1 14 33 38 -5
-2 7 36 10 17 37 47 1
-5 -1 38 10 11 29 33 -8
-2 -2 45 16 20 35 40 -5
4 5 37 7 20 29 38 -11
1 6 44 5 28 30 34 -12
-13 1 48 13 23 34 35 -9
-17 6 49 20 24 39 46 0
3 12 40 10 14 23 28 -13
1 10 40 11 10 27 28 -14
-7 6 42 7 11 30 34 -6
-6 4 50 12 18 32 44 4
1 -8 49 9 5 24 31 -12
-1 -5 55 11 10 29 34 -9
-9 4 57 13 16 30 38 -3
-13 -3 54 11 13 28 37 -1
1 -1 47 5 5 23 28 -13
1 4 42 15 18 31 42 2
-6 5 46 3 9 22 32 -7
-7 3 37 -2 6 23 31 -15
-13 -1 37 2 6 28 36 -11
-15 4 43 8 14 31 43 -7
-10 -4 40 0 3 24 28 -14
-6 -8 45 5 18 28 34 -8
-1 -3 36 3 20 26 34 -10
-13 -1 39 5 15 27 35 -12
-13 -4 37 -1 8 25 31 -14
5 4 37 4 14 25 39 -9
-2 -1 44 4 8 20 32 -9
-8 -3 39 -1 8 21 30 -10
-5 2 41 -1 3 21 32 -8
-5 6 41 -1 6 21 36 -7
-10 -2 32 -8 2 17 26 -14
-13 1 39 -1 1 22 33 -3
-5 5 38 -3 0 16 31 -8
4 0 35 -1 -2 17 28 -14
-2 -3 35 2 0 17 26 -18
-11 -1 52 17 16 27 44 -5
-9 -3 50 1 5 20 32 -15
-17 -13 45 -7 0 18 28 -12
-13 -10 44 -3 7 20 29 -6
-10 -3 55 8 12 23 34 -12
-13 -8 39 -7 -3 9 14 -22
-4 3 36 -12 -3 10 17 -26
-2 5 33 -12 -7 14 22 -22
-4 -3 39 -13 -3 15 24 -16
-9 -8 43 -6 5 17 25 -15
-6 3 41 3 15 22 38 -8
-13 8 41 6 3 19 34 -8
-9 -2 42 -3 3 17 32 -9
-12 -5 41 -7 -1 16 28 -11
-14 -2 45 -3 -4 16 32 -10
-19 -2 50 -8 -15 6 13 -21
-12 -3 49 0 -3 10 18 -18
-3 1 39 -2 3 9 20 -19
-6 -3 36 -4 -1 11 21 -23
-5 -5 38 -11 -6 11 17 -24
-13 -1 52 -3 8 24 38 -10
-7 2 36 -10 0 14 30 -18
4 4 27 -23 -12 6 20 -24
0 -5 34 -17 -7 12 25 -12
-13 -2 37 -11 -2 18 37 -2
-17 -7 35 -16 -7 8 20 -20
-6 -5 33 -12 0 9 19 -17
-3 2 43 -7 -10 9 20 -17
-14 0 39 -7 -10 13 29 -16
-20 -7 49 -17 -3 13 25 -10
-12 2 46 -2 2 20 35 -2
-6 -2 42 6 -10 14 29 -13
-2 -1 42 -6 -8 11 21 -15
-10 -1 40 -4 2 13 27 -12
-28 -1 53 3 7 16 34 -8
-22 -12 43 -14 -11 7 15 -20
-3 -4 30 -19 -9 3 13 -20
-5 -6 31 -15 -12 5 17 -16
-8 -4 30 -13 -14 5 17 -17
-4 0 28 -18 -19 -1 9 -25
1 1 37 -5 -7 9 24 -13
-12 -3 43 -10 -8 8 20 -15
-16 -3 41 -14 -7 6 17 -20
-10 -5 47 -8 -4 8 21 -16
-10 -6 48 -8 -2 11 28 -12
-16 -11 35 -13 -12 6 12 -24
-1 1 42 -6 -12 5 13 -26
-6 5 44 -5 -6 5 17 -22
-6 -1 42 -12 -10 2 15 -22
-8 -3 43 -13 -10 3 14 -22
-6 4 49 -6 3 10 26 -17
-3 3 36 -11 -3 5 18 -18
-12 -4 35 -17 -16 4 15 -18
-23 -9 45 -16 -13 7 19 -19
-19 -8 49 -7 -4 11 24 -12
-15 -12 43 -11 -11 0 6 -28
0 -9 41 -12 -5 4 11 -25
1 -1 37 -13 -13 7 16 -18
-5 3 39 -17 -8 3 12 -22
-11 -4 49 -12 -13 3 12 -23
-8 -9 56 6 -1 11 28 -13
-5 -3 41 -1 -10 1 13 -20
-7 4 40 -9 -18 -2 8 -24
-13 0 46 -18 -4 2 13 -19
-12 0 41 -10 -8 7 22 -12
-16 -10 33 -18 -15 2 11 -21
-12 -10 33 -17 -8 7 17 -17
-5 3 35 -19 -12 4 17 -20
-8 1 38 -18 0 5 17 -15
-18 -2 38 -16 -7 6 13 -18
-16 0 48 0 2 14 29 -11
-14 -2 49 -6 -6 4 18 -19
-22 -7 44 -8 -3 7 18 -13
-22 -11 43 -11 2 10 20 -11
-8 -7 37 -14 -6 5 19 -19
-7 -4 29 -29 -28 -6 -1 -33
-19 -4 44 -21 -8 4 14 -18
-16 -8 40 -18 -10 5 18 -13
-8 -3 43 -13 -14 2 18 -19
-5 2 42 -20 -12 -2 5 -23
-8 0 52 -13 3 8 22 -13
-8 -5 56 -19 -13 1 15 -22
-17 -6 43 -21 -12 0 14 -24
-20 0 38 -12 -8 3 15 -19
-22 0 46 -12 -2 5 19 -14
-16 -13 39 -25 -17 -6 6 -26
-13 -17 44 -24 -10 0 10 -23
-11 -14 38 -17 -13 1 12 -18
-11 -7 38 -19 -12 -1 8 -23
-11 -3 41 -25 -23 -3 4 -22
-2 -2 43 -19 -6 3 18 -15
0 -8 41 -19 -2 1 15 -21
-3 -1 46 -20 -5 2 14 -25
2 0 39 -18 -16 -1 12 -20
-7 -4 37 -12 -16 4 21 -15
-16 -10 37 -19 -16 -4 6 -25
-18 -5 45 -15 2 1 13 -18
-9 -6 42 -12 -2 0 14 -17
-2 -2 33 -17 -10 -4 8 -22
0 -2 35 -19 -17 -6 4 -24
-3 0 47 -5 -4 3 23 -11
-12 -4 51 -7 -6 1 16 -19
-12 -8 44 -8 -6 -1 14 -23
-9 -4 40 -9 -11 -2 15 -24
-15 6 43 -24 -15 0 22 -17
-22 -4 49 -28 -20 -4 6 -26
-20 3 45 -22 -13 -1 10 -22
-10 -2 31 -13 -15 1 14 -19
-13 -9 38 -4 -12 1 14 -15
-15 -11 33 -14 -19 -3 6 -20
5 -11 40 -16 -13 0 16 -18
13 -10 44 -29 -23 -9 7 -26
2 -9 37 -27 -27 -6 7 -22
-20 -8 43 -16 -11 4 16 -11
-25 3 41 -17 -4 6 22 -7
-16 -8 31 -28 -22 -4 3 -23
-14 -5 37 -19 -18 -2 8 -20
-17 -1 37 -13 -11 1 14 -19
-16 -2 37 -19 -12 -1 10 -19
-13 -9 41 -29 -20 -4 5 -24
-10 5 42 -20 -9 1 15 -20
-16 7 46 -21 -16 -3 9 -24
-15 3 39 -22 -21 -5 3 -24
-9 -4 38 -20 -10 -2 7 -19
-9 -1 37 -13 -12 0 13 -21
-14 -6 35 -27 -16 -8 -2 -29
-11 -10 39 -17 -15 -4 6 -24
-14 -6 42 -15 -10 -1 11 -21
-15 -2 35 -21 -10 -3 7 -20
-15 -6 44 -24 -17 -6 0 -24
-10 -4 45 -21 -6 1 14 -18
-3 -8 31 -24 -11 -5 7 -22
-16 -11 37 -21 -16 -4 7 -24
-5 -9 43 -19 -18 -4 8 -24
4 -11 47 -17 -15 -4 9 -21
-2 -9 31 -34 -24 -14 -7 -34
-5 -6 40 -19 -19 -4 5 -24
-13 -3 51 -12 -15 1 14 -17
-13 0 37 -21 -13 -5 7 -23
-12 -11 36 -17 -10 -6 3 -25
-17 -9 43 -11 0 3 16 -12
-16 -9 43 -22 -5 -3 10 -19
-14 -10 40 -25 -11 -5 5 -23
-18 -5 36 -25 -8 -5 8 -24
-5 -2 41 -24 -12 -6 8 -25
-4 -5 34 -36 -25 -16 -6 -31
-2 -2 42 -34 -23 -10 0 -29
-6 0 42 -21 -15 -3 9 -22
-12 2 35 -21 -14 -5 5 -25
-6 -3 33 -26 -16 -9 -3 -26
-7 4 46 -13 2 -1 13 -18
-16 1 47 -11 -8 0 10 -16
-8 -2 42 -22 -12 -4 2 -22
-8 -1 49 -25 -7 -2 5 -17
-8 9 47 -16 -6 0 11 -12
-8 6 41 -26 -17 -7 0 -24
-14 2 54 -20 -6 3 12 -13
-12 8 59 -18 -2 6 15 -15
-10 7 54 -9 -3 5 13 -18
-13 5 52 -5 -1 5 10 -18
-3 15 64 7 8 14 26 -7
2 15 60 0 -4 3 12 -19
-6 10 64 -4 -2 3 9 -19
-2 9 69 -5 2 5 13 -13
3 10 61 1 -1 4 16 -14
8 12 47 -13 -11 -3 -1 -25
-1 24 50 -10 -1 7 13 -12
-9 24 65 -4 10 19 26 1
-11 20 60 2 10 20 28 2
-1 14 50 -6 -6 12 18 -10
6 21 46 4 6 16 29 -4
17 19 38 -9 2 6 19 -10
26 12 33 -21 -8 -1 8 -19
34 14 35 -23 -15 -2 8 -21
21 17 45 -17 -10 4 18 -13
-2 11 41 -25 -3 1 8 -17
-15 12 43 -15 4 12 22 -5
-15 13 43 -12 1 14 26 3
-10 6 48 -13 -5 8 17 -5
3 -1 36 -22 -11 3 10 -9
7 3 37 -11 2 9 28 -3
1 9 32 -19 -5 4 19 -11
-11 12 38 -16 -2 5 17 -7
-16 6 30 -18 -8 2 17 -9
-7 9 25 -20 -7 -2 15 -11
1 -9 25 -36 -18 -15 -4 -25
1 -8 30 -40 -22 -13 -1 -25
-7 -2 29 -39 -22 -12 4 -18
-13 -3 34 -34 -23 -16 -4 -23
-11 -6 35 -41 -31 -19 -12 -29
-8 -1 36 -37 -13 -13 3 -22
-17 -10 37 -33 -12 -13 -1 -28
-24 -11 40 -29 -20 -12 2 -24
-19 -11 39 -27 -17 -14 0 -21
-19 -4 40 -31 -19 -13 3 -19
-3 -6 29 -46 -30 -27 -16 -33
3 -14 29 -33 -22 -21 -8 -31
-6 -9 32 -29 -26 -18 -1 -26
-7 -11 36 -28 -31 -22 -7 -30
-5 -11 30 -43 -36 -27 -17 -37
-12 -9 35 -33 -20 -15 2 -19
-16 -8 35 -33 -21 -19 -7 -27
-3 -11 30 -36 -28 -24 -13 -36
7 -7 32 -43 -30 -27 -15 -40
2 -2 34 -35 -23 -25 -10 -34
-22 -11 36 -32 -24 -21 -13 -30
-33 -6 45 -26 -15 -11 0 -22
-29 -6 41 -23 -15 -8 5 -20
-24 -15 38 -26 -21 -9 3 -19
-22 -20 31 -36 -27 -16 -8 -24
-13 -11 37 -34 -11 -12 3 -23
-6 -6 31 -41 -23 -18 -7 -30
-12 -12 28 -44 -31 -19 -10 -29
-9 -11 25 -35 -31 -19 -11 -28
-7 -11 32 -22 -20 -15 -4 -27
-11 -17 36 -44 -27 -23 -19 -39
-7 -18 38 -37 -15 -17 -8 -30
-8 -15 39 -27 -14 -13 -2 -25
-10 -8 43 -24 -9 -9 -4 -24
-14 0 43 -17 -6 -12 -8 -30
-21 0 58 10 17 2 11 -16
-26 -5 71 24 28 9 6 -18
-26 -6 81 48 41 20 8 -18
-19 -15 93 79 62 39 18 -18
-13 -19 107 106 89 60 42 -4
4 -15 100 110 90 70 41 -3
29 -5 99 131 113 102 69 19
41 8 97 142 146 148 119 56
60 20 83 146 175 195 167 105
87 40 70 135 191 245 221 153
105 72 56 121 206 292 286 205
114 81 46 90 184 300 304 234
112 69 43 72 169 284 296 226
98 49 44 63 162 275 291 218
83 51 60 48 162 273 293 224
61 45 53 -4 132 243 259 197
27 37 59 -44 104 215 242 183
6 39 54 -94 62 163 206 153
-15 15 41 -152 -11 79 133 96
-39 -6 44 -200 -86 -20 43 32
-60 -4 48 -208 -130 -99 -18 -13
-80 4 55 -214 -162 -147 -73 -56
-88 15 66 -220 -157 -146 -89 -71
-88 31 54 -226 -148 -141 -91 -78
-86 32 42 -213 -141 -134 -88 -76
-84 20 29 -220 -149 -136 -99 -87
-77 10 16 -212 -150 -126 -85 -78
-70 -2 4 -187 -142 -117 -76 -74
-63 -1 -2 -179 -134 -111 -75 -73
-53 -7 -6 -175 -128 -103 -75 -69
-47 -11 -4 -138 -94 -73 -41 -48
-30 -5 -14 -116 -89 -66 -40 -44
-22 5 -3 -86 -70 -57 -39 -39
-33 -4 22 -55 -43 -36 -22 -28
-22 -2 27 -47 -38 -29 -15 -24
-12 -2 17 -52 -43 -37 -33 -39
-16 5 23 -39 -24 -28 -19 -27
-17 -1 32 -29 -17 -21 -9 -22
-13 -6 32 -34 -26 -22 -15 -27
-5 -5 33 -41 -31 -27 -23 -35
0 -6 43 -26 -18 -14 -3 -21
6 -11 46 -22 -19 -18 -4 -27
-4 -15 37 -28 -18 -19 -7 -25
-20 -10 28 -23 -16 -14 -4 -24
-25 -6 30 -9 -6 -7 7 -15
-14 -7 20 -25 -20 -23 -12 -29
-2 -10 25 -17 -16 -17 -8 -24
-10 -7 31 -15 -4 -12 -3 -19
-14 -10 30 -16 -5 -13 -7 -16
-8 -10 29 -18 -12 -15 -14 -21
-2 1 31 -16 -12 -9 0 -18
5 -7 29 -20 -16 -14 -8 -21
6 -15 31 -19 -16 -15 -12 -22
-3 -12 32 -8 -15 -11 -8 -21
-15 -6 39 8 -9 -6 1 -12
-17 -7 33 -9 -17 -16 -17 -27
-10 -9 32 -4 -6 -12 -10 -20
-9 -9 31 -1 -1 -9 -3 -14
-10 -18 35 -6 -10 -10 -7 -15
-16 -13 33 -13 -18 -12 -15 -21
-13 -2 30 -3 -2 -5 0 -12
5 -4 20 -10 -9 -17 -16 -22
7 -11 25 -3 -3 -13 -16 -18
0 -14 37 -5 -6 -7 -10 -9
-5 -6 35 -9 -9 -8 -7 -9
-13 -15 26 -11 -9 -10 -17 -15
-4 -7 29 -12 -4 -6 -10 -16
2 -5 30 -9 -1 -5 -4 -13
0 -10 30 -9 1 -8 -10 -13
2 -17 24 -14 0 -13 -19 -22
-7 -12 29 0 12 0 2 -8
-15 -12 34 0 5 -2 -4 -2
-14 -15 32 1 -2 -4 -8 -12
-4 -11 24 -1 -1 -4 -8 -15
-9 -4 27 -3 3 -2 -3 -12
-16 -15 30 -8 -8 -6 -14 -19
-9 -15 32 -2 3 1 -5 -10
2 -5 25 0 5 -1 -4 -12
0 -5 32 4 3 0 -1 -16
8 -10 27 0 0 -5 -4 -20
7 -8 30 12 12 3 8 -4
14 -5 18 0 1 -8 -8 -16
11 -3 15 -9 -9 -9 -14 -24
-17 -5 33 4 4 0 -3 -14
-16 -4 34 21 14 5 7 -2
-7 -11 26 9 1 -4 -11 -13
0 -8 29 7 8 2 0 -11
3 -6 25 4 14 2 5 -8
7 -6 30 2 6 1 0 -4
4 -5 23 3 -2 -1 -6 -5
2 -4 30 19 9 9 12 3
3 -13 32 16 8 1 2 -3
-7 -15 37 7 9 3 -1 -9
-12 -11 32 6 10 8 4 0
-2 -2 32 11 2 7 8 2
0 -5 23 0 -8 -4 -10 -17
-5 -5 21 13 6 4 -3 -12
-1 -4 24 19 13 6 3 -4
7 -6 20 11 2 2 -4 -6
12 -1 21 2 -7 -2 -11 -11
12 1 37 21 3 7 7 3
1 -1 24 16 3 1 -1 -4
-7 7 23 16 3 1 -7 -13
-9 1 20 15 10 5 -2 -5
-6 -2 21 18 13 9 8 0
-8 -4 15 7 -5 1 -8 -11
-3 -10 16 6 5 6 -1 -6
7 -5 13 7 11 5 0 -4
2 -2 28 13 9 7 0 -5
8 -4 26 16 5 6 -5 -7
17 -2 24 23 9 13 11 3
16 -9 19 12 6 6 2 1
12 -10 15 13 5 5 -5 -3
8 -7 21 19 6 11 3 1
5 1 23 26 13 13 9 6
4 -3 20 20 6 5 -8 -6
4 -1 29 33 13 12 -2 -1
5 4 24 27 17 13 3 -2
4 3 18 16 12 12 3 -4
-5 -3 13 20 7 14 2 -5
8 3 22 31 21 24 16 9
16 0 22 22 15 14 6 2
13 2 16 15 14 11 -3 -3
20 2 15 25 18 14 4 3
11 3 21 40 31 22 18 12
5 4 17 28 19 12 -1 -2
7 7 21 32 24 19 8 4
7 3 25 32 28 20 11 7
15 2 19 28 23 16 6 5
18 5 16 23 13 13 -3 2
15 11 20 40 26 24 17 16
15 10 16 35 24 17 6 6
8 6 26 32 30 20 3 6
7 9 23 28 25 22 5 8
16 12 18 35 29 26 14 16
17 6 8 25 25 19 -2 4
8 9 15 33 30 28 8 11
6 8 17 38 38 29 15 15
9 5 18 35 31 26 11 13
11 6 19 27 22 23 2 8
16 11 20 37 37 30 21 15
18 7 14 37 33 25 11 9
14 8 11 40 28 28 7 12
10 12 17 47 29 30 14 17
21 12 14 59 35 31 14 16
13 3 8 44 34 25 2 9
15 9 10 45 37 30 11 16
26 16 17 49 38 30 16 20
12 14 25 55 43 32 18 26
10 16 24 41 33 28 16 19
21 20 19 51 46 37 27 27
23 13 17 47 34 30 13 21
20 13 13 42 29 27 6 14
15 24 11 43 34 29 13 17
16 21 18 53 45 35 23 23
18 15 6 42 32 26 5 14
22 15 4 43 36 30 9 22
19 19 8 48 52 36 19 29
17 24 8 43 41 35 19 30
18 20 7 41 29 30 10 25
23 23 9 56 42 40 31 36
17 22 16 51 41 35 24 33
15 30 11 49 37 29 10 25
19 23 7 52 40 30 12 29
13 22 7 48 51 35 21 36
20 27 3 32 31 23 2 17
26 22 7 42 34 30 15 30
26 17 10 49 40 34 17 32
15 28 8 38 40 34 16 31
2 26 8 31 33 36 15 34
12 25 5 38 36 43 33 46
23 31 4 36 35 32 19 36
26 29 4 36 28 30 11 34
25 32 6 39 33 32 15 34
19 30 9 48 35 38 25 39
12 27 5 32 23 28 6 32
8 27 11 30 34 38 20 42
10 31 10 23 33 40 23 44
12 31 6 17 33 37 19 40
13 24 -4 15 37 37 15 35
12 28 -3 25 38 44 32 46
9 36 1 16 28 34 19 36
22 33 -6 7 24 29 11 34
24 30 -4 11 24 30 12 37
22 32 15 14 28 32 19 34
8 25 -5 9 17 25 5 24
-3 17 -6 16 26 36 16 37
2 21 3 17 34 38 22 40
12 28 -6 2 22 23 9 26
6 21 -14 -2 15 22 -1 23
4 26 -3 3 25 29 17 33
-1 20 -6 4 30 27 10 32
-6 10 -8 9 25 28 8 35
-6 10 -1 -2 21 25 7 32
-2 17 1 0 21 25 13 29
10 15 -17 -15 3 12 -6 15
18 17 -16 -12 16 13 -6 19
21 22 -16 -16 16 13 4 20
7 14 -12 -15 19 14 1 20
-9 12 -2 -16 8 13 -5 22
-13 15 3 -1 21 23 11 40
-7 11 -3 0 13 13 -2 24
-3 2 -12 -11 13 8 -10 14
-6 6 -11 -17 13 11 -6 18
-6 5 -7 -8 14 15 3 21
0 2 -21 -22 0 3 -17 7
4 3 -25 -21 9 7 -13 13
4 13 -26 -22 11 4 -13 17
6 9 -22 -23 13 3 -15 16
-5 1 -16 -27 12 1 -21 9
2 10 -15 -17 16 7 -6 20
1 14 -21 -21 3 1 -16 14
-2 7 -19 -22 4 2 -20 10
-10 5 -12 -11 17 9 -15 16
-10 6 -11 -9 17 11 -7 23
2 0 -18 -19 -1 -3 -29 11
9 6 -25 -14 8 1 -24 12
1 8 -22 -18 19 11 -10 22
-8 2 -20 -21 19 13 -9 24
-15 1 -24 -23 18 10 -17 18
-10 4 -15 -13 18 18 -3 25
-5 9 -18 -17 6 10 -13 13
6 6 -25 -18 3 4 -22 7
3 4 -14 -16 4 7 -20 14
3 7 -21 -5 16 10 -9 18
-1 5 -33 -24 7 1 -22 7
-3 8 -29 -25 14 7 -13 15
-8 8 -19 -17 19 14 -7 23
-7 5 -21 -14 11 11 -11 18
-5 7 -33 -24 -4 1 -26 8
0 8 -28 -19 9 6 -11 14
8 5 -30 -17 4 2 -21 8
13 5 -35 -17 3 -1 -30 2
0 8 -32 -17 7 6 -23 11
-8 16 -24 -7 17 12 -13 19
-11 8 -19 -11 10 6 -27 11
-18 7 -21 -9 14 15 -16 19
-10 12 -23 -14 17 15 -10 22
1 12 -34 -20 14 11 -14 23
3 4 -38 -23 9 7 -23 14
4 11 -27 -12 27 17 -4 28
13 1 -29 -15 17 7 -14 18
9 -1 -32 -10 6 4 -25 14
4 6 -34 -14 9 5 -23 16
-4 5 -32 -6 19 11 -13 23
3 -2 -41 -15 1 1 -31 11
9 -2 -41 -29 4 5 -25 15
-8 5 -32 -23 13 11 -16 24
-5 9 -25 -17 10 11 -17 27
-6 4 -28 -30 5 8 -23 20
-9 3 -30 -16 16 19 -5 32
-8 5 -33 -21 12 12 -10 30
0 3 -41 -24 6 4 -23 18
-3 2 -42 -21 8 7 -20 18
-10 4 -33 -13 24 14 -9 27
-5 1 -33 -27 10 2 -32 13
9 2 -35 -33 1 3 -28 18
7 3 -48 -27 1 2 -24 17
-5 1 -40 -28 12 4 -23 19
-10 -3 -33 -39 2 2 -28 16
-2 2 -30 -27 5 11 -9 27
-1 4 -33 -24 6 8 -14 23
-13 5 -42 -27 5 4 -23 18
-10 6 -40 -26 10 5 -23 23
-2 0 -34 -17 12 7 -16 25
-7 -9 -42 -37 1 -3 -35 19
0 -1 -41 -40 0 -2 -33 21
10 3 -47 -38 3 -3 -29 21
-1 -3 -45 -34 -3 -2 -29 23
-3 -1 -45 -36 -12 -5 -36 17
2 8 -42 -26 -1 1 -19 25
-5 7 -43 -32 -5 -2 -30 23
-8 6 -42 -38 -3 -5 -31 21
-2 5 -35 -36 -1 -4 -33 17
4 6 -38 -31 2 -1 -27 20
-1 -2 -49 -48 -13 -9 -45 15
-8 1 -43 -46 -7 -6 -38 22
-5 2 -35 -29 5 1 -29 25
6 7 -44 -36 -5 -6 -37 18
-7 7 -51 -52 -13 -10 -45 11
-5 3 -46 -41 0 -1 -27 24
-8 -2 -48 -48 -11 -7 -34 23
-15 -1 -46 -47 -10 -7 -35 22
-13 2 -45 -38 -2 -6 -33 21
-13 2 -31 -28 8 1 -22 26
-6 5 -45 -41 -5 -9 -39 13
-1 7 -54 -39 -4 -8 -36 15
0 4 -50 -39 -7 -6 -36 19
1 5 -55 -46 -2 -10 -41 20
-6 -1 -56 -56 -14 -14 -46 13
-2 6 -51 -42 -1 -1 -24 25
4 0 -52 -45 -5 -7 -38 19
-1 0 -59 -48 -14 -13 -47 13
-5 4 -50 -45 -12 -10 -44 14
0 -1 -49 -37 -4 -5 -33 20
-1 -7 -58 -48 -13 -12 -49 12
-2 -1 -55 -42 -7 -9 -42 21
-7 1 -50 -31 -2 -3 -34 27
-12 8 -54 -41 1 -8 -39 19
-18 -2 -48 -46 -7 -9 -42 17
-18 -3 -53 -43 1 0 -26 28
-14 1 -56 -52 -9 -7 -34 24
-6 5 -58 -62 -22 -14 -47 12
1 2 -69 -52 -18 -13 -48 12
-3 8 -69 -43 -12 -12 -43 13
-7 -3 -66 -47 -22 -21 -60 3
-4 4 -60 -47 -11 -15 -52 10
5 2 -56 -44 -4 -12 -43 19
3 -4 -68 -47 -12 -14 -48 13
-12 -3 -63 -56 -13 -12 -51 13
-12 -6 -57 -43 -6 -1 -32 27
-1 -4 -64 -50 -10 -9 -43 16
-1 -5 -64 -50 -11 -12 -50 12
-9 -6 -62 -46 -6 -13 -49 16
-14 -4 -66 -44 -7 -7 -38 21
-18 -7 -67 -54 -19 -15 -53 14
-10 -9 -67 -49 -9 -10 -49 17
-9 -4 -56 -47 -1 -4 -39 28
-14 -2 -61 -47 -2 -6 -42 24
-12 -3 -62 -59 -16 -13 -50 17
-1 10 -59 -51 -13 -7 -38 24
11 3 -70 -55 -19 -15 -50 13
7 -2 -69 -56 -24 -17 -55 10
-6 -7 -58 -49 -18 -11 -48 20
-13 -9 -63 -37 -7 -5 -40 28
-9 -11 -68 -51 -18 -18 -60 9
-8 -9 -61 -52 -14 -13 -54 17
-1 5 -63 -53 -12 -13 -49 21
2 4 -64 -57 -17 -14 -49 14
-2 -3 -70 -64 -21 -19 -58 7
-3 11 -69 -50 -10 -11 -41 20
-23 3 -71 -51 -1 -7 -39 27
-33 -4 -65 -50 -7 -7 -42 29
-14 -5 -68 -58 -11 -10 -46 21
-3 -5 -72 -55 -4 -11 -44 19
-11 -8 -75 -63 -18 -18 -59 9
-11 -7 -74 -58 -20 -13 -55 22
-2 -2 -74 -57 -19 -17 -55 18
-2 -2 -69 -61 -11 -16 -56 12
-4 -3 -77 -68 -22 -19 -63 13
5 6 -76 -63 -14 -13 -49 21
3 2 -74 -63 -22 -15 -52 14
-1 -2 -71 -59 -19 -16 -58 13
-2 0 -72 -59 -18 -18 -57 10
-14 2 -70 -59 -7 -12 -48 15
-14 -7 -70 -57 -24 -21 -66 4
-10 -6 -60 -59 -25 -18 -59 10
-3 -5 -63 -61 -23 -16 -56 17
9 -8 -72 -65 -21 -19 -62 6
-6 -5 -71 -67 -15 -17 -65 7
-12 -6 -66 -57 -3 -6 -45 20
-20 -8 -66 -51 -6 -7 -46 19
-19 -3 -70 -55 -9 -11 -52 16
-1 3 -74 -64 -23 -20 -60 13
4 1 -77 -62 -4 -13 -48 14
-2 -3 -85 -69 -18 -20 -63 6
-11 -9 -72 -63 -18 -12 -54 13
-16 -7 -67 -56 -12 -6 -46 20
-8 -9 -75 -57 -22 -14 -57 11
-1 -10 -76 -69 -28 -24 -71 -1
-5 -3 -75 -58 -13 -16 -48 14
-11 -4 -77 -60 -14 -17 -54 7
-8 1 -76 -66 -20 -16 -61 5
1 -3 -78 -59 -12 -16 -60 11
-4 -6 -73 -52 1 -9 -49 20
-14 -4 -81 -72 -13 -16 -64 9
-23 -1 -75 -69 -9 -12 -56 16
-14 1 -77 -59 -6 -12 -49 14
-5 -2 -81 -61 -17 -15 -56 12
-4 -7 -82 -71 -21 -22 -68 0
-2 -2 -80 -57 -14 -13 -50 16
-8 -6 -83 -62 -17 -16 -59 16
-14 -3 -83 -67 -18 -19 -64 4
-3 -3 -83 -67 -23 -21 -65 1
11 -6 -85 -60 -19 -19 -55 5
7 3 -82 -75 -29 -29 -77 -12
8 3 -84 -76 -27 -26 -71 -6
0 -3 -84 -68 -13 -17 -60 4
-19 -4 -79 -61 -11 -11 -56 11
-29 -8 -80 -74 -19 -15 -64 8
-17 -9 -75 -61 -10 -7 -47 17
-9 -8 -89 -64 -10 -12 -55 5
-17 -12 -89 -72 -16 -16 -64 3
-18 -10 -83 -68 -18 -13 -61 7
-15 -5 -74 -61 -14 -11 -51 10
-9 -8 -96 -78 -29 -24 -73 -5
-3 -9 -89 -75 -18 -20 -62 -2
3 -5 -86 -73 -15 -18 -60 1
4 -9 -77 -76 -12 -18 -64 -2
-5 -7 -83 -76 -14 -21 -72 -6
-7 0 -83 -60 -7 -11 -54 8
-7 7 -81 -67 -14 -19 -63 -3
0 -5 -92 -70 -20 -24 -71 -6
5 -7 -82 -77 -24 -24 -71 0
1 -2 -83 -74 -14 -18 -61 2
-11 -8 -91 -76 -23 -21 -72 -6
-6 -4 -84 -74 -21 -18 -66 -1
-6 5 -87 -69 -15 -16 -60 1
-13 -2 -77 -62 -10 -14 -60 4
-17 -6 -81 -76 -13 -20 -69 -2
-21 -5 -78 -62 -5 -9 -51 9
-11 -5 -79 -63 -5 -16 -57 0
-6 -12 -79 -60 -11 -19 -60 -3
-2 -12 -86 -63 -13 -23 -69 -6
-3 -3 -84 -63 -6 -23 -65 -5
-10 -9 -79 -78 -18 -26 -74 -7
-5 -7 -84 -83 -19 -23 -71 -5
3 2 -91 -89 -16 -23 -67 -7
5 -6 -88 -81 -18 -22 -69 -2
-3 -12 -88 -83 -25 -21 -74 -2
-11 -2 -76 -71 -5 -9 -52 9
-6 -4 -78 -74 -7 -17 -60 1
-7 -6 -81 -76 -9 -21 -68 -6
-9 -6 -77 -71 -11 -18 -66 -4
-10 -6 -67 -66 -11 -14 -55 3
-16 -4 -71 -74 -17 -23 -73 -10
-31 -3 -64 -70 -8 -15 -66 3
-21 -4 -68 -70 -17 -16 -63 0
-3 -9 -73 -81 -20 -20 -69 -4
1 -15 -77 -84 -27 -26 -80 -15
-4 -6 -63 -63 -17 -16 -61 -4
-3 -12 -56 -72 -19 -19 -62 -7
-6 -11 -62 -81 -17 -21 -69 -10
-3 -2 -64 -78 -21 -20 -70 -10
-8 -1 -54 -68 -13 -14 -58 -4
-15 -10 -52 -77 -29 -24 -77 -16
-12 -11 -51 -83 -16 -21 -70 -11
-1 -11 -52 -78 -8 -19 -65 -6
-7 -8 -43 -64 -6 -15 -64 -1
-10 -8 -46 -79 -25 -20 -74 -11
1 0 -43 -81 -19 -16 -63 -7
3 -3 -42 -85 -16 -20 -67 -12
-1 -4 -40 -81 -13 -22 -73 -15
-9 -7 -38 -67 -10 -17 -67 -4
-23 -7 -30 -60 1 -9 -53 6
-20 -13 -32 -82 -14 -20 -69 -10
-15 -15 -32 -81 -12 -16 -64 -6
2 -4 -40 -77 -20 -24 -69 -9
6 -4 -30 -76 -21 -24 -74 -14
4 -8 -31 -85 -23 -27 -80 -21
-11 0 -15 -73 -4 -15 -58 -7
-22 -2 -8 -78 -12 -17 -63 -6
-10 -6 -6 -80 -16 -19 -72 -12
-6 -6 -3 -73 -12 -17 -70 -15
-3 0 10 -65 3 -11 -60 -7
-2 6 3 -75 -18 -23 -78 -19
-2 2 16 -78 -2 -11 -67 -4
-8 3 22 -72 14 -3 -53 4
-8 0 16 -74 6 -5 -58 3
-5 2 20 -79 -3 -10 -68 -9
2 6 26 -68 2 -2 -49 4
6 3 22 -75 -6 -10 -63 -4
1 3 20 -76 -8 -8 -68 -8
-5 6 19 -76 -5 -5 -62 -8
-7 12 20 -61 5 0 -51 -4
-1 10 20 -59 -5 -7 -66 -13
2 11 27 -63 6 3 -57 0
3 22 22 -62 15 6 -47 7
7 24 18 -70 5 5 -47 1
15 20 8 -78 1 -3 -62 -8
15 18 10 -69 11 8 -42 8
4 17 9 -68 6 2 -50 1
6 10 -2 -65 -4 -2 -57 -6
11 11 -6 -73 -5 -4 -55 -7
-1 23 -1 -74 5 1 -44 3
-5 16 2 -85 -9 -5 -57 -5
0 6 14 -86 -3 0 -48 1
8 -1 -7 -78 5 3 -39 6
18 10 -11 -79 -8 -4 -46 -5
2 4 -13 -82 -4 -4 -46 -1
-5 6 -3 -65 16 8 -26 11
4 9 -9 -79 9 -2 -38 1
12 6 -14 -86 -6 -8 -49 -5
6 5 -10 -91 0 -4 -44 2
4 7 0 -83 8 3 -32 15
-4 -5 -14 -87 -17 -8 -50 1
-3 2 -14 -87 -21 -9 -50 -5
-1 0 -9 -93 -8 -10 -44 -4
2 -7 -11 -95 -9 -13 -49 -5
1 -13 -21 -100 -17 -17 -57 -11
-5 -9 -16 -88 -10 -8 -36 1
-6 -8 -25 -94 -12 -14 -40 -3
-11 -11 -28 -100 -21 -16 -46 -6
-19 -14 -18 -94 -17 -13 -44 4
-16 -13 -18 -89 -12 -11 -37 6
-14 -14 -27 -103 -25 -25 -57 -13
-12 -19 -17 -101 -25 -23 -55 -7
0 -14 -24 -100 -17 -20 -49 -3
1 -12 -22 -106 -12 -20 -49 -3
-5 -12 -27 -105 -19 -23 -56 -5
-12 -13 -8 -84 -6 -9 -34 11
-14 -21 -7 -82 -16 -12 -38 10
-1 -20 -18 -103 -29 -19 -49 4
-5 -20 -16 -96 -28 -15 -42 6
-3 -14 -13 -90 -20 -14 -34 10
-7 -25 -18 -96 -17 -21 -51 3
-10 -26 -22 -91 -20 -18 -46 11
-7 -15 -19 -96 -18 -14 -33 19
-11 -14 -22 -101 -14 -16 -37 16
-22 -16 -21 -103 -18 -18 -44 12
-16 -11 -14 -90 -1 -6 -23 28
-19 -13 -6 -91 -18 -12 -28 24
-12 -11 -13 -103 -22 -17 -37 19
-8 -11 -19 -99 -14 -14 -33 27
-7 -14 -15 -94 -15 -10 -20 42
-10 -14 -16 -103 -27 -20 -35 37
-11 -11 -17 -94 -25 -19 -30 51
-2 -16 -14 -97 -12 -16 -24 53
-3 -10 -10 -97 -9 -17 -29 51
-14 -13 0 -96 -15 -17 -31 49
-12 -6 13 -74 4 -7 -14 59
-6 -6 6 -62 21 -7 -24 51
-14 -8 23 -45 27 2 -22 59
-14 -10 51 -10 47 23 0 76
0 -9 58 15 73 41 15 78
7 -21 50 27 77 51 15 77
16 -21 54 46 103 83 54 98
31 -16 50 62 121 119 88 126
52 5 33 63 137 156 128 153
78 11 13 57 163 202 175 191
103 44 -3 52 188 257 242 252
142 77 -28 26 187 277 274 279
134 72 -29 11 176 286 295 301
123 53 -28 20 163 272 291 297
125 45 -27 9 174 264 292 295
92 42 -19 -25 152 249 271 283
61 47 -7 -48 143 236 262 279
29 51 -1 -87 119 207 246 266
8 40 -16 -143 61 145 193 224
-17 10 -28 -208 -12 55 112 161
-49 -1 -21 -228 -67 -28 47 115
-68 -1 -10 -247 -121 -106 -32 55
-71 15 -4 -274 -142 -139 -77 23
-76 22 6 -283 -130 -132 -77 9
-89 25 5 -265 -117 -114 -61 10
-91 10 -11 -269 -124 -120 -78 -10
-91 8 -24 -266 -127 -116 -73 -10
-81 2 -36 -257 -124 -106 -57 -4
-65 -9 -47 -244 -123 -103 -57 -4
-53 -17 -52 -233 -122 -101 -63 -6
-43 -10 -58 -204 -99 -78 -35 19
-40 -6 -68 -190 -91 -72 -33 16
-23 -5 -72 -171 -80 -63 -34 11
-6 -5 -63 -133 -61 -46 -22 19
-17 -6 -43 -110 -36 -32 -4 36
-19 -9 -33 -102 -36 -34 -18 21
-21 -10 -31 -108 -29 -23 -8 29
-11 -7 -24 -105 -21 -14 5 40
-6 -6 -13 -90 -17 -11 8 42
-9 -9 -13 -88 -20 -17 -2 39
-7 -7 -6 -79 -11 -8 16 50
-8 -12 -13 -84 -18 -14 11 46
-9 -19 -12 -88 -29 -19 0 37
-5 -12 -15 -86 -24 -18 4 34
-4 -8 -18 -78 -12 -12 12 41
0 -15 -31 -98 -28 -25 -10 32
-4 -13 -22 -97 -26 -16 1 40
-17 -6 -20 -84 -12 -4 20 54
-5 -10 -19 -77 -11 -6 22 49
-4 -15 -16 -88 -24 -10 16 46
-4 -12 -14 -80 -12 0 30 58
-4 -12 -19 -74 -14 -4 24 49
-7 -10 -22 -86 -14 -9 16 44
-1 -15 -22 -84 -14 -9 13 38
0 -16 -17 -74 -2 -4 25 44
-10 -22 -14 -79 -9 -10 8 32
-18 -21 3 -71 3 -3 17 40
-9 -11 0 -62 8 -2 21 39
-6 -13 -1 -60 -1 -5 17 37
-3 -14 3 -73 -15 -13 2 29
0 -9 5 -67 -11 -8 17 34
5 -9 4 -74 -16 -10 12 25
-2 -12 8 -77 -14 -9 9 26
-8 -14 19 -72 -5 -2 19 34
-2 -16 29 -60 2 5 33 42
-4 -17 25 -73 -13 -8 13 31
-10 -19 38 -63 -1 -3 23 42
-1 -12 40 -58 0 3 34 53
5 -11 33 -66 -10 -3 31 54
-10 -18 37 -71 -4 -3 27 51
-9 -14 49 -51 14 11 51 69
-5 -12 46 -53 8 6 48 67
7 -15 41 -58 -1 -2 37 58
4 -15 50 -53 3 5 46 65
2 -11 54 -40 4 12 59 76
-1 -15 46 -47 -3 3 44 66
-2 -19 48 -40 6 7 52 68
2 -12 49 -31 10 9 58 71
6 -14 51 -36 3 8 56 67
2 -14 49 -50 -4 3 46 60
-9 -7 54 -30 10 16 67 69
-2 -12 52 -23 5 12 62 62
2 -19 48 -21 6 5 52 55
5 -16 42 -24 1 5 56 52
-2 -10 42 -13 14 11 67 54
-7 -11 33 -23 1 -1 47 46
-4 -9 33 -23 3 4 56 48
-3 -10 25 -22 14 9 67 48
-2 -7 24 -23 15 8 65 46
8 -9 16 -31 1 0 50 34
12 -12 24 -19 9 9 68 38
11 -7 16 -25 2 3 62 38
2 -13 18 -25 -2 4 58 33
-1 -14 21 -20 6 8 64 32
-3 -11 8 -6 14 14 75 32
-2 -11 -4 -16 -3 2 55 14
-7 -9 8 -12 11 13 68 23
-9 -12 7 5 16 19 80 25
-10 -11 -2 -3 12 13 72 16
-6 -14 -11 -12 7 6 61 9
14 -16 -12 -1 9 9 75 15
19 -13 -20 -2 2 1 66 8
6 -8 -16 -4 5 3 64 8
-7 -4 -19 -3 10 6 67 7
-2 -2 -18 -1 15 11 75 12
9 -10 -26 -7 -3 1 54 -2
5 -14 -17 2 13 10 65 8
11 -10 -20 10 22 15 81 16
14 -8 -25 -1 11 9 73 13
9 -8 -28 2 4 4 64 13
8 -10 -25 21 28 16 84 24
5 -12 -32 22 26 11 79 19
11 -9 -38 15 17 4 65 9
18 -11 -40 16 11 2 63 4
13 -10 -34 33 11 10 76 10
5 -11 -29 24 7 4 61 1
2 -9 -20 34 15 10 69 9
12 1 -16 45 15 14 78 12
11 -2 -24 42 19 14 80 14
9 -8 -25 50 18 10 72 5
15 -3 -16 60 30 20 88 16
23 5 -22 62 25 12 79 6
9 -2 -28 72 23 12 73 6
-7 -3 -18 81 30 20 82 12
-3 -1 -10 85 35 27 93 15
17 -1 -18 73 13 9 67 -4
17 5 -28 92 20 15 72 -1
3 4 -16 115 32 28 89 13
0 -2 -8 125 35 29 91 16
13 -12 -20 129 27 20 76 3
28 -3 -12 142 34 27 91 5
23 4 -12 155 29 23 86 -1
24 1 -22 160 29 19 78 -8
18 3 -23 174 35 22 83 -7
13 2 -18 200 45 32 97 1
11 -1 -25 200 36 21 78 -13
13 1 -19 222 35 30 88 -3
16 2 -16 238 45 35 99 1
18 5 -15 239 33 31 91 -5
7 1 -21 243 32 32 90 -10
5 0 -17 262 46 44 113 2
18 6 -21 260 43 34 104 -10
22 4 -25 262 40 30 96 -16
26 8 -32 275 34 30 95 -17
25 12 -28 285 47 34 109 -9
25 -1 -36 278 37 29 92 -23
16 1 -32 289 44 39 102 -13
14 11 -25 295 48 45 113 -9
17 11 -35 295 42 37 104 -14
20 1 -49 286 31 33 95 -19
22 7 -39 305 51 43 114 -8
26 13 -49 304 43 39 109 -15
21 14 -49 299 34 35 98 -21
7 10 -41 310 48 42 108 -15
11 11 -43 314 53 46 121 -8
25 15 -56 294 41 33 97 -22
34 12 -50 301 41 37 99 -16
25 12 -45 314 49 48 118 -9
17 17 -52 324 45 48 116 -10
19 12 -61 321 39 40 96 -17
22 17 -46 330 53 50 116 -7
18 11 -39 323 47 44 111 -13
5 16 -52 308 38 43 98 -13
12 20 -51 307 44 44 99 -9
24 24 -53 317 54 45 105 -10
25 24 -62 305 46 34 89 -23
24 18 -58 312 46 41 96 -11
28 20 -59 315 48 44 103 -6
30 21 -63 314 50 39 97 -7
22 21 -55 314 42 34 84 -13
25 23 -54 327 52 42 99 -11
22 22 -56 319 50 37 94 -17
18 11 -54 310 43 34 84 -18
25 10 -62 314 43 37 87 -12
17 21 -61 321 51 45 100 -1
8 24 -68 307 41 33 79 -17
17 24 -70 312 45 39 87 -9
23 31 -68 316 45 44 99 -2
20 27 -61 314 43 43 97 -4
12 24 -60 302 35 36 80 -12
14 28 -55 316 47 43 94 -1
27 26 -61 311 42 33 83 -10
12 22 -51 301 35 27 75 -17
7 15 -54 296 37 32 81 -10
17 19 -63 302 42 38 84 -3
10 17 -76 288 32 28 63 -13
5 19 -74 287 34 32 67 -12
11 22 -67 292 38 36 77 -7
25 15 -65 281 26 28 69 -11
34 11 -76 272 17 18 53 -23
26 15 -72 277 33 31 74 -6
10 13 -71 274 31 25 69 -11
4 8 -75 264 30 19 59 -15
1 12 -71 269 33 17 54 -17
2 15 -72 268 37 22 62 -12
-1 12 -60 249 22 11 41 -22
-2 8 -67 253 20 16 44 -18
2 9 -73 262 29 18 54 -14
-4 10 -65 248 34 16 51 -14
2 7 -72 232 28 6 34 -23
9 9 -68 230 36 14 52 -11
3 11 -72 217 24 6 44 -18
-3 6 -76 205 16 0 30 -29
3 -2 -72 210 15 -3 27 -30
7 2 -64 216 17 -2 32 -28
7 4 -73 195 3 -14 12 -38
4 3 -81 192 4 -10 14 -33
6 6 -78 191 15 -8 22 -27
1 3 -73 189 18 -8 19 -25
-3 4 -81 178 6 -14 7 -25
0 10 -81 187 18 -4 28 -19
-7 3 -66 184 10 -7 26 -19
-8 1 -75 178 7 -15 10 -23
-12 -2 -76 170 13 -14 11 -22
-12 -4 -74 172 19 -10 19 -13
-5 -1 -81 163 5 -21 -2 -30
-9 -4 -81 159 12 -16 2 -28
-2 -3 -81 158 13 -12 9 -22
0 -3 -73 144 16 -12 5 -24
3 -4 -80 132 6 -20 -8 -26
10 0 -77 145 19 -9 10 -15
6 4 -67 147 27 -9 10 -23
3 0 -75 135 13 -14 0 -27
-1 -2 -78 133 17 -10 4 -22
-8 15 -68 138 22 -4 17 -15
2 5 -76 126 6 -17 -2 -33
4 -6 -64 129 10 -12 -1 -25
2 -8 -64 136 17 -6 9 -16
-1 -2 -76 129 16 -8 7 -22
-7 -7 -77 123 9 -12 -2 -26
-11 4 -71 125 12 -5 12 -19
-4 11 -72 129 13 -11 4 -24
0 2 -74 121 18 -13 -3 -22
6 2 -75 115 11 -14 -3 -21
14 8 -81 120 17 -8 10 -17
11 6 -75 107 13 -16 -6 -28
-9 -1 -54 109 19 -6 4 -18
-13 2 -73 120 28 0 17 -4
-4 3 -70 105 23 -8 7 -15
4 -3 -67 91 11 -18 -7 -27
2 2 -62 97 16 -9 11 -14
-5 4 -74 87 7 -12 5 -22
9 1 -77 85 0 -21 -11 -32
12 -2 -73 87 7 -19 -7 -28
2 -3 -65 104 20 -10 9 -16
-12 -5 -65 102 13 -14 -3 -22
-13 -7 -59 89 9 -13 0 -17
-7 0 -59 83 15 -12 6 -17
-10 1 -70 68 14 -15 1 -20
1 1 -75 46 -4 -25 -15 -29
9 4 -62 62 9 -14 7 -12
13 5 -63 58 12 -20 2 -15
-1 0 -72 48 8 -25 -8 -17
-14 8 -69 50 7 -20 -3 -14
0 11 -78 52 6 -19 2 -17
5 -1 -75 44 -4 -27 -13 -27
5 -3 -72 50 3 -21 -8 -19
6 1 -75 53 10 -18 0 -17
8 3 -68 48 12 -21 -2 -19
3 -3 -67 39 9 -27 -10 -26
-6 0 -63 43 16 -16 8 -14
-12 8 -63 41 15 -18 4 -18
-7 3 -74 28 2 -23 -6 -22
-7 4 -72 33 -1 -19 -1 -20
-8 1 -68 48 6 -15 8 -15
-1 -6 -75 29 -3 -28 -13 -30
7 -2 -71 24 -1 -28 -14 -24
1 0 -70 34 9 -22 -3 -14
-11 0 -60 37 2 -23 -4 -17
-2 -7 -60 20 -4 -27 -14 -24
5 -3 -65 26 8 -19 1 -15
4 1 -71 19 8 -24 -2 -22
-2 -6 -74 8 2 -30 -12 -28
-5 1 -69 14 -2 -31 -12 -23
-5 7 -60 20 -2 -23 6 -16
8 -1 -68 7 -12 -37 -16 -33
1 -3 -67 1 -11 -32 -16 -25
-5 -1 -44 15 -4 -22 -4 -15
-1 1 -53 13 -7 -28 -8 -20
-2 -1 -56 3 -10 -34 -22 -27
-12 6 -48 8 2 -18 2 -15
-6 6 -59 2 -2 -25 -4 -19
-4 -9 -56 -4 -4 -30 -13 -25
0 -12 -61 -1 -10 -29 -13 -24
1 -4 -62 5 -2 -25 -3 -17
0 -8 -59 -5 -14 -37 -22 -30
-24 -9 -49 5 -12 -28 -15 -21
-20 -4 -54 4 -7 -24 -5 -15
-8 -4 -65 -1 -13 -30 -9 -21
2 -2 -73 -13 -20 -38 -29 -33
8 3 -58 0 -12 -30 -11 -20
12 0 -58 3 -12 -33 -9 -19
8 -7 -57 -3 -18 -37 -20 -27
1 -3 -56 -7 -13 -33 -18 -24
-9 -4 -52 2 -5 -25 0 -14
-11 -10 -57 -6 -14 -31 -16 -22
-9 -6 -52 -15 -15 -30 -18 -26
-6 -1 -58 -2 -16 -30 -12 -24
-2 -4 -64 -7 -14 -33 -15 -29
1 -5 -65 -20 -27 -38 -29 -36
0 1 -46 -4 -12 -28 -11 -20
-3 5 -53 -4 -12 -34 -11 -23
-6 -2 -58 -17 -21 -38 -19 -25
2 -1 -56 -21 -17 -37 -14 -28
10 -4 -50 -8 -14 -28 0 -21
2 -8 -52 -11 -21 -32 -14 -27
-8 -5 -51 -6 -13 -27 -13 -16
-13 -9 -48 0 -6 -21 2 -5
-9 -8 -53 -9 -6 -24 -3 -18
-4 -6 -57 -23 -24 -34 -24 -32
-4 -4 -46 -6 -15 -28 -12 -25
-6 -5 -45 -5 -20 -30 -13 -22
-12 -10 -40 -7 -21 -32 -20 -25
-11 -8 -38 -2 -18 -25 -13 -17
-8 -4 -36 -1 -12 -18 -1 -11
-5 -5 -49 -19 -27 -33 -22 -30
-2 -2 -51 -23 -29 -34 -22 -30
-6 -3 -42 -16 -20 -26 -11 -21
-7 -2 -53 -17 -26 -29 -12 -21
-7 -7 -51 -29 -25 -36 -23 -24
-6 -5 -46 -27 -15 -30 -11 -19
-8 -5 -42 -12 -26 -31 -8 -23
0 -1 -36 -14 -32 -34 -20 -30
0 -5 -40 -25 -24 -31 -19 -30
-5 -3 -29 -13 -16 -24 -8 -21
-14 -10 -43 -8 -24 -30 -21 -30
-14 -10 -44 -12 -27 -25 -17 -22
-8 -1 -40 -11 -18 -19 -5 -13
3 -2 -44 -16 -21 -23 -7 -15
8 -3 -45 -27 -35 -30 -23 -30
-3 -4 -37 -18 -20 -18 -3 -18
-7 -9 -46 -21 -13 -19 1 -14
-15 -8 -49 -22 -16 -24 -8 -20
-18 -15 -48 -16 -12 -22 -12 -17
2 -4 -42 -18 -13 -26 -11 -22
6 -2 -42 -24 -35 -35 -25 -38
-4 -12 -39 -28 -23 -26 -21 -26
-3 -17 -36 -18 -11 -17 -7 -16
3 -7 -27 -14 -21 -20 -7 -21
1 -8 -37 -26 -30 -25 -18 -28
-7 -9 -31 -19 -17 -13 0 -12
-16 -11 -24 -5 -22 -14 1 -19
-13 -15 -33 -10 -32 -23 -12 -28
-9 -9 -31 -13 -26 -19 -11 -20
2 0 -34 -21 -22 -21 -6 -24
-1 -6 -40 -32 -35 -28 -20 -34
-11 -12 -31 -22 -22 -17 -11 -23
-3 -8 -30 -19 -23 -13 1 -12
2 -11 -25 -23 -24 -16 -1 -16
-8 -16 -25 -27 -23 -15 -9 -20
-8 -11 -23 -17 -9 -5 9 -4
0 -11 -28 -24 -18 -12 7 -15
-8 -18 -32 -25 -24 -14 -3 -17
-13 -12 -32 -18 -24 -10 -2 -12
-6 -4 -30 -17 -17 -9 6 -13
-8 -10 -36 -27 -32 -18 -12 -26
-16 0 -31 -22 -26 -15 -9 -21
-9 -1 -28 -23 -21 -11 -2 -16
2 -10 -32 -25 -34 -15 -7 -23
2 -11 -31 -31 -34 -20 -19 -22
1 -13 -26 -13 -15 -10 1 -13
-8 -15 -22 -10 -17 -8 5 -14
-10 -13 -18 -23 -23 -10 -4 -20
-12 -13 -16 -19 -26 -10 -2 -16
-10 -3 -25 -8 -21 -3 8 -13
0 -10 -26 -29 -35 -13 -12 -32
3 -16 -35 -29 -34 -8 -10 -26
-8 -12 -25 -17 -18 0 5 -13
-9 -15 -25 -12 -19 -6 0 -13
-15 -11 -21 -22 -29 -13 -12 -20
-18 -8 -7 -4 -19 3 12 -7
-11 -12 -2 0 -18 4 15 -6
-4 -15 -16 -12 -29 -1 5 -11
1 -8 -20 -10 -32 -3 3 -14
5 -2 -22 -5 -16 1 12 -10
-3 -10 -19 -16 -35 -7 -1 -25
-15 -20 -11 -10 -27 0 3 -13
-10 -15 -14 -11 -16 6 11 -7
-11 -19 -11 -14 -20 5 11 -10
-16 -20 -16 -20 -23 -3 -3 -22
-15 -11 -4 -7 -25 5 13 -8
-7 -10 -8 -11 -29 3 14 -9
1 -15 -19 -16 -38 -3 -1 -19
6 -15 -9 -17 -30 0 4 -15
5 -17 6 -9 -20 11 21 -3
-5 -22 0 -13 -33 1 3 -16
-3 -23 -4 -20 -30 -2 -3 -17
-2 -14 -3 -19 -32 0 3 -21
-7 -12 -1 -15 -28 4 8 -21
-8 -22 -7 -27 -38 1 -2 -25
-10 -14 1 -20 -28 9 11 -14
-7 -7 -7 -24 -30 6 12 -12
-5 -21 -10 -29 -31 1 1 -16
0 -14 -10 -20 -27 1 2 -16
-8 -9 4 -3 -20 10 21 -7
-15 -13 -8 -22 -30 2 4 -17
-10 -18 -9 -10 -25 6 4 -11
-4 -10 -6 -5 -18 7 12 -8
-13 -9 -6 -12 -21 4 13 -3
-14 -13 -1 -23 -33 -1 4 -5
-11 -15 5 -15 -25 7 15 0
-14 -18 -4 -16 -24 6 15 -7
-10 -24 -9 -27 -33 0 4 -15
-2 -20 -12 -24 -29 -2 2 -19
3 -20 -6 -5 -20 5 17 -8
-11 -17 -13 -23 -33 -2 -1 -15
-19 -18 -3 -23 -31 4 3 -11
-3 -15 -3 -14 -19 10 16 -8
-2 -12 0 -13 -18 6 15 -8
-10 -13 -8 -20 -25 0 3 -16
-7 -9 5 -18 -18 6 18 -6
4 -11 10 -14 -27 0 11 -12
4 -22 -4 -15 -34 -3 1 -19
-7 -20 -2 -19 -27 -2 2 -18
-1 -13 -8 -13 -29 -2 7 -14
-5 -14 -15 -23 -37 -11 -10 -23
-10 -20 -17 -30 -30 -6 -7 -18
-4 -14 -10 -21 -21 1 6 -12
-10 -3 -9 -31 -26 0 8 -15
0 -12 -19 -46 -42 -9 -7 -21
14 -8 -12 -35 -34 -3 8 -14
6 -6 -7 -20 -31 -4 7 -14
-8 -14 -2 -23 -31 -4 0 -11
-17 -18 5 -20 -25 -2 4 -8
0 -15 2 -13 -23 0 11 -7
1 -16 -7 -18 -35 -10 -7 -16
-12 -14 -13 -19 -29 -3 -4 -18
-16 -3 -8 -18 -19 4 9 -11
-5 -6 -4 -26 -29 -3 4 -15
-4 -14 -8 -27 -31 -9 -8 -25
-13 -12 1 -14 -18 2 12 -5
-11 -16 -5 -19 -14 -2 16 -5
-18 -19 -6 -15 -23 -6 7 -10
-14 -18 -13 -24 -27 -4 13 -6
-4 -7 -11 -21 -24 2 19 8
-6 -11 -12 -21 -32 -4 4 -4
-2 -14 -8 -35 -26 -1 3 -11
4 -8 -10 -28 -20 1 13 -9
-12 -8 -9 -16 -22 3 15 -8
-9 -7 -2 -24 -25 -4 -1 -15
3 8 1 -17 -17 1 11 -6
2 2 3 -18 -9 4 16 -2
-8 -2 3 -18 -18 1 8 -11
-11 -3 6 -7 -13 2 10 -7
-9 1 12 5 -1 11 24 7
-4 3 -3 -19 -20 -4 1 -14
5 5 -9 -21 -20 -4 -2 -17
2 9 7 -18 -12 4 14 -4
-4 2 7 -17 -10 7 14 -1
4 1 2 -25 -15 0 0 -15
13 16 3 -25 -6 7 14 -8
17 25 -6 -23 -12 7 19 0
19 29 -5 -30 -10 6 14 1
-5 24 7 -7 2 15 25 8
-17 21 16 5 17 23 38 22
-7 13 5 -17 0 6 15 2
2 11 3 -22 -15 4 10 1
10 20 6 -27 -11 7 20 -3
5 18 -3 -29 -13 5 16 -9
10 8 -4 -39 -22 -2 1 -17
17 12 -4 -31 -8 3 14 -5
11 22 1 -28 -12 0 18 -6
11 15 -10 -25 -19 -1 11 -8
9 11 -11 -17 -17 3 17 4
9 10 -1 -15 -3 10 30 11
11 5 -7 -30 -7 0 14 2
6 7 -10 -28 -14 1 16 3
14 10 -7 -23 -7 3 21 -1
6 5 -12 -12 2 8 24 5
-11 2 -10 -20 -6 5 16 5
-10 1 2 -21 1 11 31 9
-2 -7 -4 -27 -7 2 22 1
5 -9 -9 -34 -25 -9 3 -13
6 -6 -7 -33 -26 -13 -1 -15
-4 -4 -10 -19 -14 -6 12 -7
-11 -11 -15 -25 -19 -13 0 -16
-5 -7 -4 -18 -27 -14 -3 -17
-5 -6 1 -21 -21 -8 9 -10
-13 -14 -7 -30 -17 -10 8 -11
-12 -19 -14 -41 -28 -18 -4 -16
-11 -13 -11 -36 -25 -13 9 -12
-1 -13 -15 -32 -20 -15 8 -16
-2 -15 -10 -43 -28 -22 -9 -24
-8 -7 -16 -39 -23 -23 -11 -24
-6 -4 -9 -24 -14 -15 1 -18
-12 -13 -10 -30 -28 -22 -14 -24
-7 -15 -9 -38 -29 -19 -13 -23
-1 -10 -9 -30 -21 -14 -1 -17
-10 -7 -5 -35 -25 -15 -1 -13
-6 -9 -10 -45 -33 -23 -14 -20
-7 -4 -17 -35 -19 -14 5 -12
-5 -10 -13 -29 -22 -13 5 -8
-14 -16 4 -30 -17 -16 -5 -14
-4 -12 7 -32 -24 -23 -14 -25
5 -8 -7 -27 -17 -18 -4 -21
12 -16 -20 -39 -27 -24 -14 -30
10 -18 -16 -44 -29 -21 -15 -26
-2 -10 -19 -26 -19 -10 2 -15
-12 -9 -8 -31 -17 -13 0 -12
-10 -15 -9 -49 -27 -22 -15 -23
-16 -9 -10 -34 -10 -11 4 -8
-20 -10 -5 -21 -17 -11 6 -5
-9 -15 -3 -23 -14 -17 -10 -15
-9 -15 -2 -15 -5 -13 -9 -11
-22 -7 6 -1 2 0 6 -1
-24 0 11 3 7 -1 -9 -20
-11 -5 21 20 18 6 -9 -24
-1 -9 35 52 56 25 14 -15
-10 -16 59 77 67 41 27 -8
1 -28 59 91 67 52 23 -12
25 -25 69 119 97 86 60 12
38 -16 68 145 124 119 98 42
44 -8 55 146 142 155 127 80
66 10 46 144 172 204 178 129
92 38 29 142 196 260 245 180
103 60 18 112 187 286 274 214
97 82 4 85 184 298 299 236
92 57 15 83 180 291 300 235
97 34 14 65 166 278 285 219
88 32 12 24 154 268 267 201
62 42 29 0 148 261 269 202
35 45 48 -31 116 224 242 179
9 26 22 -86 55 158 185 138
-19 8 20 -138 -18 72 115 87
-42 -5 28 -159 -77 -25 37 37
-62 -10 41 -185 -135 -114 -51 -27
-79 -2 42 -186 -147 -137 -85 -51
-69 13 44 -185 -145 -135 -89 -60
-66 17 28 -210 -150 -134 -98 -73
-71 14 8 -222 -158 -132 -108 -84
-69 10 -5 -197 -145 -115 -84 -69
-63 9 -13 -186 -134 -110 -77 -61
-73 3 -26 -190 -137 -108 -78 -64
-62 0 -42 -179 -127 -101 -76 -65
-44 4 -43 -146 -117 -84 -51 -54
-43 -4 -51 -130 -105 -77 -55 -50
-37 -6 -59 -108 -87 -61 -49 -41
-33 -6 -41 -64 -50 -39 -21 -25
-27 -9 -29 -46 -47 -34 -21 -24
-20 -9 -24 -44 -52 -35 -34 -30
-16 -5 -16 -23 -30 -16 -13 -15
-12 -1 -13 -20 -21 -12 -6 -16
2 -11 -9 -10 -19 -18 -15 -22
3 -16 -3 -18 -13 -20 -18 -20
-3 -13 5 -12 -3 -12 0 -2
-7 -13 -1 -10 -15 -14 -11 -9
-13 -17 -6 -13 -14 -10 -14 -12
-9 -19 5 6 -8 -3 -2 -9
-1 -15 4 -2 -19 -13 -11 -19
-7 -16 -9 -20 -21 -22 -29 -26
-13 -14 -4 1 -6 -8 -10 -11
-11 -11 -5 10 -7 -2 -2 -10
-6 -10 -5 -13 -15 -9 -16 -19
-10 -13 6 -14 -5 -5 -9 -12
-8 -16 0 -9 -4 0 5 -8
-1 -20 -8 -14 -17 -11 -18 -17
-10 -23 0 -8 -13 -9 -21 -14
-11 -16 2 2 5 -3 -11 -12
7 -10 -8 0 -6 -8 -15 -20
6 -14 -19 -10 -25 -17 -25 -29
-2 -13 -5 -5 -11 -4 -10 -14
1 -13 -7 0 -7 -3 -4 -8
0 -16 -6 -6 -17 -9 -16 -13
-2 -17 -5 6 -5 -4 -12 -9
-2 -10 0 26 6 2 2 3
4 -15 -5 12 -6 -9 -16 -8
-1 -18 -3 5 -10 -7 -16 -7
-12 -18 -3 3 2 4 1 2
-6 -24 -4 5 -2 7 4 2
-1 -18 -3 3 -16 -2 -9 -6
-5 -12 -2 11 -3 4 1 6
-2 -8 -6 17 1 2 0 0
-3 -11 -5 10 -1 0 -11 -8
-2 -12 -1 2 -7 1 -11 -12
-4 -12 18 9 7 8 4 0
-12 -21 10 9 -8 -1 -9 -7
-5 -25 3 8 -5 -2 -17 -15
7 -16 0 13 5 2 -7 -13
-2 -12 1 15 7 1 -10 -17
0 -16 -9 14 -5 -5 -23 -27
6 -8 1 24 4 5 0 -12
12 -1 -10 22 4 2 0 -11
18 -13 -16 14 1 -3 -13 -12
9 -17 -12 12 -5 2 -7 -3
-2 -3 -5 20 3 10 7 11
10 -10 3 13 -5 1 -9 -6
9 -21 4 18 0 2 -13 -8
-4 -18 10 26 5 12 2 3
-9 -13 11 35 12 14 2 0
-8 -12 4 19 3 11 -11 -10
-5 -8 0 24 12 17 2 2
-5 -11 8 31 22 14 3 -2
-3 -16 0 21 5 8 -7 -6
0 -17 -4 18 3 11 -5 -7
-1 -13 3 35 12 20 11 6
-1 -15 7 29 -2 9 -2 2
-1 -17 -1 19 4 6 -9 -1
10 -14 -2 29 7 8 -4 1
15 -10 1 30 1 4 -9 -6
11 -5 -3 24 -11 -3 -24 -16
6 -3 10 38 7 14 -1 4
3 -10 8 48 17 17 5 7
7 -12 6 43 11 8 -9 4
0 -14 14 44 17 11 -4 8
2 -13 11 47 24 20 10 12
7 -16 4 32 18 10 -8 -4
6 -19 8 26 12 12 -7 0
0 -14 9 37 19 19 7 11
-10 -5 1 43 20 16 0 6
-8 -7 -18 31 5 8 -19 -8
3 -8 -7 54 16 17 2 4
17 -6 1 59 23 18 9 3
23 -7 -2 40 12 14 -8 -1
5 -3 3 45 24 23 0 5
-6 -8 10 55 37 36 21 22
3 -5 11 49 18 22 2 8
6 4 0 48 15 14 -11 1
-1 -1 -6 56 22 22 4 10
-1 -9 -1 44 23 19 -1 10
-3 -17 5 40 22 18 -9 5
-2 -12 11 62 35 33 12 22
21 -3 8 54 32 29 10 16
25 -11 8 45 20 22 -4 3
12 -17 4 52 28 27 1 5
14 -16 6 63 41 39 17 14
20 -10 -2 47 25 27 -2 0
13 -4 -8 63 21 26 -6 0
7 5 -4 66 34 36 10 13
3 8 0 63 41 33 6 11
-1 -7 11 60 33 29 -5 7
-1 -8 9 72 41 38 13 22
9 -10 2 73 38 34 13 21
18 -15 5 66 32 27 -2 12
13 -6 7 76 38 33 3 17
14 4 7 81 43 42 19 23
11 2 8 75 36 40 14 27
-3 1 11 75 36 41 12 22
2 -4 22 82 45 44 19 24
17 4 18 76 44 39 13 18
15 1 7 84 37 33 2 15
15 -2 7 92 46 39 14 30
16 -1 12 87 50 34 13 32
21 -5 3 82 38 25 -1 11
22 -1 5 83 40 30 2 10
24 5 6 90 54 39 18 20
27 9 -2 86 43 33 5 11
25 6 3 82 44 39 6 16
9 5 13 105 57 55 28 33
4 7 11 105 52 55 29 34
11 7 7 92 43 43 13 20
22 6 11 102 53 46 22 25
21 10 13 107 51 43 23 29
6 -4 17 101 50 39 14 22
8 -6 16 101 52 43 13 22
23 5 6 109 55 49 26 26
15 9 8 100 45 44 15 23
20 13 2 104 39 45 12 26
31 21 0 93 50 44 17 31
32 20 1 93 43 41 14 29
25 6 2 96 39 39 6 24
18 2 10 107 51 52 27 37
12 3 8 114 54 54 32 43
9 4 7 111 43 47 20 35
10 5 15 119 40 49 22 36
19 13 10 120 56 59 38 43
26 10 1 109 43 47 17 25
17 10 9 101 38 44 10 24
10 16 12 110 63 49 22 32
8 12 9 110 55 47 19 32
18 14 7 98 35 37 2 18
26 16 5 114 43 45 18 30
18 16 18 123 48 51 30 47
18 15 14 100 39 45 19 39
20 20 9 99 38 44 20 34
17 27 15 113 50 52 37 47
9 19 15 111 49 51 29 43
5 8 12 104 48 49 24 47
26 22 6 98 42 43 25 44
23 20 7 97 38 45 24 38
22 18 7 92 33 39 8 24
22 26 0 90 43 48 21 38
18 25 2 98 50 51 28 39
14 24 2 101 45 49 21 32
13 24 13 93 53 55 28 40
18 28 14 104 60 62 44 52
24 20 10 96 36 46 23 36
14 12 13 90 28 35 8 30
7 11 12 93 45 44 22 40
5 13 13 97 56 50 30 47
-1 8 8 89 43 46 18 43
1 5 11 96 43 49 25 45
10 9 7 93 43 45 23 39
5 9 -1 72 28 38 12 25
12 12 -5 66 29 40 13 26
20 17 -2 68 38 43 26 33
9 10 -4 66 25 34 12 26
-1 3 2 80 31 33 8 31
-7 7 10 81 44 39 19 34
-9 13 9 77 29 36 13 29
-7 8 9 61 19 26 -2 18
6 5 2 64 23 29 5 19
16 8 -5 66 18 24 5 21
2 1 0 67 19 21 -4 15
-9 2 10 73 24 25 -1 18
1 1 19 82 29 33 16 28
2 -5 4 58 14 22 0 19
-6 -9 -6 60 13 20 -7 16
-3 -4 -8 72 25 27 6 27
6 1 1 61 21 22 2 19
3 -1 -13 59 10 12 -9 7
-6 8 -4 74 26 19 3 15
-6 10 4 65 25 16 1 16
-14 3 0 62 15 12 -13 10
-10 1 -1 61 22 14 -10 15
0 4 8 71 27 20 4 22
5 -2 5 62 13 5 -14 5
0 -9 4 52 11 6 -20 5
-1 -7 2 60 14 14 -5 14
4 -10 -4 67 14 12 -8 8
-12 -19 -8 62 8 7 -20 7
-10 -6 -1 73 25 18 -3 17
2 5 -3 78 25 18 1 14
-4 2 4 64 12 11 -14 8
-3 -2 5 52 11 10 -14 6
10 -3 2 59 21 15 -4 8
1 -5 -6 54 12 10 -15 3
-17 -6 9 61 21 15 -15 9
-13 -3 16 69 22 20 -5 17
1 4 -1 67 18 12 -10 10
-7 -2 1 56 18 10 -16 10
-12 -11 2 82 30 25 3 21
-9 -9 0 85 23 26 4 22
-5 -1 -7 58 18 13 -14 7
-12 1 -5 72 25 18 -9 9
-9 4 -3 76 25 24 4 18
1 -4 -7 63 20 10 -18 5
4 -6 -8 54 14 6 -26 2
-7 -6 1 71 22 19 -8 14
-4 -2 -2 77 25 18 -7 15
6 -3 -4 78 15 11 -19 5
9 0 1 87 20 22 -3 16
6 3 5 88 25 25 7 22
-9 3 10 71 25 21 -6 16
-4 5 15 58 25 19 -7 12
-2 7 -1 73 40 25 5 16
-2 4 -2 67 36 15 -11 8
3 2 -4 67 23 13 -19 5
3 8 -3 72 31 18 -7 14
-6 0 2 75 33 23 -2 21
-5 -2 -11 63 19 18 -14 12
-4 -1 -3 73 28 28 1 24
-5 5 -6 72 28 26 6 22
-3 0 -9 60 19 19 -4 17
-1 -3 -15 63 27 24 0 19
1 9 -4 70 41 32 13 26
5 7 -14 54 14 20 -4 15
5 4 -4 54 7 8 -19 4
5 4 3 62 19 12 -11 8
-1 -4 -6 62 17 11 -11 6
-2 -11 -15 56 13 7 -22 2
-1 -9 -7 70 24 20 -3 12
-3 -2 -1 72 21 21 3 14
-5 8 -12 51 11 15 -7 8
-2 3 -15 51 12 18 -3 11
-2 8 -6 62 23 22 7 18
-5 3 -3 57 20 15 -4 9
4 4 -13 43 16 8 -16 1
11 3 -15 54 24 15 -3 12
9 2 1 47 19 13 -4 14
1 1 -15 36 11 2 -20 -2
-11 8 -7 47 20 13 -5 6
-8 5 0 60 20 17 2 8
-2 -5 -9 41 6 12 -7 1
7 -5 -7 37 10 18 1 10
-3 3 -2 60 25 25 18 25
-4 5 -15 44 14 11 -2 11
4 3 -20 33 9 4 -12 10
1 0 -8 37 15 11 2 9
-6 -1 -7 40 9 11 3 8
-18 -12 0 42 9 10 -7 4
-10 -4 -8 36 18 13 4 7
-5 -1 -12 38 18 16 11 11
0 -1 -18 28 -5 5 -9 -3
-1 1 -9 29 7 8 -6 2
-5 0 -6 40 22 16 9 16
-6 1 -11 33 7 7 -1 9
-8 4 -13 20 1 6 -8 5
-6 5 -8 24 5 11 3 16
-1 -2 -14 20 7 6 3 15
-2 -17 -17 11 -6 2 -8 4
-4 -6 -19 18 7 12 6 6
-1 4 -10 24 19 16 12 13
-7 2 -10 22 12 6 -3 1
-11 5 -20 23 1 2 -8 -2
-1 8 -18 28 6 6 1 4
0 -3 -14 26 1 0 -7 -2
-1 -3 -9 21 -10 -5 -17 -7
4 -3 -6 27 6 1 -4 -1
-1 -4 -6 18 7 0 -4 0
-10 -11 5 16 -9 -1 -11 -3
-21 -14 8 25 5 10 4 8
-17 -4 -2 24 11 9 9 9
-5 -4 -14 11 0 -3 -3 -1
-7 -10 -19 1 1 -1 -1 0
-7 -4 -9 15 6 6 6 7
2 -1 -17 5 -9 -6 -10 -11
4 -6 -17 -2 -15 -8 -15 -14
2 -3 -16 -7 -3 1 -2 -8
3 -1 -16 6 -4 -2 -2 -3
3 -8 -20 -3 -13 -8 -12 -9
0 -3 -5 8 -2 1 4 -1
-14 0 1 15 7 7 14 5
-8 -1 -15 3 -5 -4 -3 -5
6 -3 -16 -5 -8 -7 -3 -10
-6 1 -7 8 -1 2 11 4
-8 0 -18 -11 -2 -5 -2 -7
-9 -9 -19 -16 -5 -5 -8 -9
-13 -14 -10 2 3 2 6 2
-15 -8 -5 19 5 1 6 2
-2 0 -20 3 -16 -13 -15 -12
6 7 -19 -10 -5 -8 -5 -8
-4 1 -16 -3 2 -1 7 -3
-9 -2 -24 -12 -3 -6 -5 -7
-4 -5 -14 -13 -8 -7 -4 -2
-8 1 -7 -3 4 3 12 11
-12 -4 -15 -6 -2 -5 5 -1
-10 -11 -19 -11 -8 -7 -2 -5
-9 -6 -14 -8 0 -4 6 3
-9 -5 -23 -13 -4 -7 -1 -1
-8 -1 -29 -24 -22 -18 -19 -16
-9 -2 -21 -18 -10 -5 0 -3
-1 -1 -15 -13 -3 0 8 -1
-3 -5 -9 -19 -8 -5 1 -8
-10 -7 9 -13 -6 -6 0 -4
-14 2 1 -2 0 -1 9 0
-10 -4 -13 -12 -10 -9 -2 -10
-3 -8 -21 -24 -14 -14 -7 -16
-3 -6 -16 -19 -12 -9 -1 -4
-6 -7 -13 -20 -7 -11 -4 -4
-2 -8 -22 -29 -19 -21 -19 -18
-3 -11 -12 -18 -13 -10 -3 -8
-6 -7 -12 -9 0 -7 4 -2
-5 -7 -18 -5 -7 -10 -1 -8
-8 -6 -18 -12 -8 -10 1 -10
-14 -6 -10 -1 4 -2 10 0
-12 -6 -14 -16 -6 -14 -4 -12
-6 -5 -20 -31 -12 -16 -11 -10
-5 6 -16 -17 1 -8 4 -8
-8 4 -6 -17 -11 -10 1 -10
-7 -8 -20 -31 -22 -21 -17 -20
4 2 -27 -29 -17 -17 -7 -14
8 4 -12 -26 -9 -13 2 -6
10 1 -15 -31 -19 -21 -9 -18
-6 -1 -9 -27 -11 -16 -4 -12
-6 -5 -5 -14 -4 -7 10 -1
-3 0 -11 -14 -13 -16 -5 -16
-11 -4 -14 -28 -18 -17 -9 -18
-17 -5 -10 -13 2 -9 6 -7
-17 -2 -11 -17 2 -11 5 -7
-21 -7 -14 -30 -8 -16 -8 -18
-16 -5 -4 -22 -1 -8 6 -5
-2 -4 -2 -23 -9 -9 12 -6
4 -1 -12 -41 -19 -23 -4 -19
0 -2 -16 -39 -18 -20 -4 -13
-3 -1 -7 -27 -12 -12 6 -9
2 -10 -17 -33 -21 -19 -4 -19
-5 -14 -21 -37 -11 -19 -8 -19
-18 -3 -3 -24 -2 -10 6 -8
-16 2 -9 -10 -5 -13 4 -11
-11 -5 -20 -25 -17 -22 -12 -23
-6 -2 -14 -19 -11 -16 -3 -11
-8 1 -13 -16 -3 -12 7 -2
-19 -4 -17 -14 -12 -15 -2 -12
-16 -2 -17 -16 -18 -18 -4 -16
-7 6 -8 -23 -9 -14 6 -8
4 -2 -7 -40 -23 -27 -12 -20
5 -9 -11 -43 -32 -27 -19 -23
-6 -8 -2 -23 -15 -14 1 -13
-10 -8 -10 -21 -14 -17 -1 -13
-9 -7 -19 -40 -25 -27 -18 -19
-8 -3 0 -29 -6 -16 0 -12
-8 4 11 -23 1 -15 5 -10
-9 0 -9 -37 -14 -23 -8 -18
-4 -6 -11 -28 -26 -24 -9 -14
-1 -4 -4 -24 -17 -17 4 -7
-10 -10 -5 -37 -23 -24 -6 -18
-22 -7 -1 -41 -20 -22 -10 -20
-15 8 2 -34 -14 -15 2 -10
-8 4 -5 -32 -9 -19 -1 -11
0 -4 -9 -37 -12 -26 -14 -23
5 1 -8 -36 -3 -17 -3 -11
-6 3 -6 -15 -1 -15 7 -3
-6 1 -10 -11 -17 -25 -12 -17
-8 -1 -4 -28 -22 -25 -13 -20
-6 2 -4 -33 -12 -19 -1 -10
-1 4 -8 -41 -22 -27 -11 -18
-5 -10 -5 -41 -26 -28 -16 -15
-15 -7 -12 -28 -15 -20 -6 -8
-14 -5 -4 -20 -19 -21 -8 -9
-6 -7 -8 -41 -30 -33 -25 -26
2 0 -11 -29 -17 -27 -17 -16
-6 5 -9 -33 -17 -23 -4 -10
-15 0 -8 -52 -22 -24 -6 -12
-8 2 -15 -45 -20 -23 -9 -8
-10 5 -20 -28 -13 -17 -2 -6
-5 -2 2 -41 -23 -28 -17 -21
-3 -7 4 -47 -24 -33 -27 -27
-7 -12 -1 -39 -6 -26 -14 -18
-7 -4 -10 -34 -18 -31 -19 -23
-12 1 -19 -48 -31 -38 -33 -27
-11 -2 -10 -41 -19 -27 -18 -14
-15 -4 -4 -24 -8 -18 -3 -4
-25 -12 -4 -37 -15 -21 -12 -10
-20 -6 -2 -32 -13 -22 -13 -14
-2 4 -9 -11 -8 -22 -5 -7
-5 1 -6 -23 -21 -29 -16 -18
-15 1 -2 -47 -20 -27 -21 -21
-8 9 -7 -40 -7 -21 -9 -15
1 8 -2 -37 -10 -21 -9 -11
1 6 -4 -38 -18 -26 -22 -19
-6 10 -3 -27 -1 -15 -8 -11
-6 12 6 -33 1 -10 4 2
-7 9 10 -31 -12 -18 -8 -9
3 8 6 -31 -8 -21 -13 -9
11 12 4 -29 0 -15 0 -4
2 11 2 -36 -9 -20 -9 -5
-3 14 -1 -38 -6 -23 -20 -16
-8 22 0 -29 1 -16 -6 -12
-11 18 5 -31 0 -17 -6 -11
-6 18 2 -34 -10 -22 -17 -16
-3 29 1 -32 -3 -13 -3 -3
3 32 5 -26 2 -11 6 0
5 24 17 -34 0 -16 -8 -3
10 25 14 -32 -3 -18 -8 -3
6 29 12 -22 3 -10 5 5
3 25 -2 -34 -2 -15 -4 -2
1 17 -3 -33 -14 -20 -13 -9
2 22 -8 -42 -10 -15 -2 -4
4 29 -16 -48 -14 -22 -10 -3
-2 26 -13 -59 -25 -29 -21 -11
-7 21 -7 -35 -3 -16 -6 -6
-2 24 -6 -30 0 -16 -2 -4
3 13 -2 -36 -17 -23 -18 -12
10 13 -3 -45 -17 -27 -19 -13
8 12 -1 -33 -5 -19 -6 -3
6 13 -10 -37 -4 -23 -13 -10
5 10 -20 -46 -14 -26 -21 -18
10 14 -11 -44 -16 -23 -12 -13
10 12 -10 -50 -12 -23 -14 -9
-4 8 -8 -46 -16 -27 -20 -16
-11 9 7 -36 -9 -19 -8 -9
-5 12 2 -47 -8 -21 -7 -10
-15 4 -7 -63 -17 -32 -23 -18
-12 2 3 -57 -25 -37 -25 -19
-6 1 -2 -35 -20 -33 -14 -15
-10 -6 -9 -49 -24 -41 -27 -20
-16 -7 2 -52 -32 -42 -33 -25
-18 -5 1 -51 -28 -34 -20 -19
-17 -7 9 -53 -26 -39 -26 -25
-12 -8 2 -58 -38 -48 -40 -34
-1 -4 -8 -54 -27 -45 -33 -30
-4 -6 -6 -44 -17 -39 -19 -22
-6 -11 -5 -47 -30 -45 -32 -24
-18 -4 -5 -59 -32 -42 -32 -26
-28 -5 -3 -49 -19 -32 -11 -16
-12 -1 -14 -64 -36 -49 -34 -32
-5 -6 -17 -64 -47 -56 -48 -39
-6 -4 -8 -62 -42 -48 -36 -29
-6 3 4 -55 -42 -50 -37 -29
-7 -8 1 -59 -43 -53 -46 -30
-21 -7 -2 -47 -22 -42 -32 -18
-24 -2 1 -35 -21 -39 -24 -17
-5 -2 -10 -59 -43 -52 -43 -33
-1 -4 -13 -76 -39 -50 -44 -34
-4 -2 -3 -54 -30 -43 -31 -26
-6 -6 -13 -70 -33 -53 -44 -37
-15 -8 -14 -70 -45 -56 -53 -39
-27 -8 -1 -57 -31 -41 -33 -20
-9 -6 -8 -60 -38 -47 -39 -25
0 -6 -16 -67 -44 -58 -57 -39
-8 -1 0 -53 -20 -47 -41 -28
-11 5 6 -30 -13 -44 -31 -20
-12 6 9 -46 -20 -47 -39 -27
-17 4 19 -45 -8 -38 -34 -21
-29 7 25 -20 10 -24 -18 -17
-23 5 35 -9 15 -26 -29 -29
-24 -4 44 11 29 -16 -32 -28
-18 -4 58 44 58 5 -12 -17
-2 -9 66 62 72 23 1 -13
11 -13 72 86 79 40 4 -7
22 -10 82 105 109 77 42 20
38 6 79 122 142 119 89 53
51 19 59 127 160 162 126 91
63 39 47 127 187 218 188 150
73 68 43 113 212 268 253 207
77 87 27 67 190 280 276 229
79 86 16 40 174 269 269 230
87 59 14 28 165 258 268 223
91 53 18 -7 151 247 262 214
54 41 25 -49 123 231 242 199
20 40 27 -91 101 206 224 184
2 41 28 -141 57 160 193 159
-10 22 15 -184 -21 79 115 101
-23 4 3 -222 -96 -23 30 38
-46 0 17 -247 -154 -116 -39 -11
-69 5 23 -273 -200 -186 -108 -59
-83 16 22 -276 -205 -196 -140 -88
-84 25 16 -273 -194 -185 -130 -87
-77 27 -10 -272 -189 -183 -134 -98
-75 24 -39 -277 -188 -184 -144 -108
-66 20 -45 -265 -181 -171 -129 -98
-61 15 -37 -245 -161 -157 -111 -85
-53 8 -52 -228 -163 -151 -116 -88
-46 3 -52 -204 -146 -136 -103 -78
-61 6 -36 -157 -110 -105 -63 -53
-50 -1 -41 -134 -103 -95 -67 -45
-26 5 -44 -120 -87 -85 -72 -49
-19 7 -17 -89 -56 -64 -44 -33
-17 1 -10 -74 -48 -57 -39 -26
-22 -2 -13 -63 -49 -60 -51 -35
-21 -1 4 -50 -35 -50 -34 -29
-14 1 18 -53 -25 -48 -29 -28
-6 -5 5 -59 -32 -54 -44 -35
-5 0 8 -46 -32 -49 -42 -34
-6 -5 8 -28 -16 -39 -25 -19
2 -14 2 -27 -22 -49 -36 -32
-2 -17 -1 -24 -27 -51 -45 -37
-15 -7 7 -17 -20 -40 -27 -23
-18 -5 12 -18 -18 -37 -25 -25
-18 2 5 -38 -26 -48 -42 -39
-25 6 7 -29 -17 -37 -28 -26
-14 0 8 -23 -10 -34 -17 -22
-11 -6 11 -33 -20 -43 -31 -35
-15 -8 13 -33 -13 -39 -31 -30
-13 -6 6 -36 -5 -31 -18 -22
-6 -15 4 -40 -21 -39 -29 -27
-9 -17 11 -36 -29 -42 -38 -30
-11 -12 20 -18 -11 -34 -24 -21
-10 -8 21 -27 -13 -37 -24 -18
-9 -14 6 -27 -23 -43 -39 -30
-5 -11 6 -23 -15 -35 -27 -28
-11 -4 24 -22 -10 -29 -12 -19
-17 -7 12 -33 -21 -37 -29 -25
-14 -10 8 -18 -19 -35 -28 -19
-10 -2 17 -14 -6 -29 -16 -15
-5 -9 8 -18 -19 -41 -33 -27
-6 -9 -2 -22 -27 -47 -46 -34
-2 -11 8 -24 -13 -40 -33 -27
5 -12 13 -29 -15 -40 -35 -27
8 -6 11 -33 -22 -46 -47 -37
10 -3 12 -20 -16 -38 -35 -28
-1 -1 19 -8 -1 -29 -18 -18
-22 -7 16 -9 -10 -27 -25 -14
-20 -10 17 -18 -10 -29 -28 -17
-15 -5 26 -14 0 -23 -16 -17
-13 -5 11 -26 -12 -35 -29 -29
-14 -12 4 -32 -9 -40 -39 -36
-9 -6 9 -21 -4 -32 -26 -27
-10 -3 12 -18 -3 -30 -25 -28
1 -9 9 -15 -12 -36 -37 -32
4 -7 9 -7 -2 -25 -20 -22
-8 -7 14 6 8 -17 -5 -12
-2 -8 11 -4 -6 -25 -20 -24
0 -5 15 -8 -2 -25 -19 -24
0 -3 22 -2 8 -18 -6 -18
4 -6 17 -16 -2 -26 -14 -22
0 -14 15 -18 -11 -31 -30 -28
-8 -10 17 -4 4 -22 -15 -18
0 -6 7 -5 -3 -29 -20 -22
-1 -14 5 -5 -11 -36 -34 -33
-11 -12 14 -2 3 -24 -16 -23
-21 -11 26 7 7 -14 1 -10
-11 -9 30 0 -9 -25 -18 -21
-3 -7 27 -3 -4 -25 -17 -26
-6 -9 26 -1 11 -14 0 -11
-7 -8 19 -3 8 -19 -10 -18
-3 -7 20 -11 -12 -28 -27 -32
-1 -5 16 1 -8 -20 -13 -23
-6 -8 15 6 2 -16 -6 -16
-15 -12 22 1 0 -21 -13 -19
-6 -4 21 3 2 -19 -8 -19
6 0 15 13 5 -16 -3 -16
10 -11 18 9 -1 -22 -15 -20
12 -7 22 7 -4 -20 -15 -16
6 -4 21 1 4 -11 0 -8
4 -13 13 -2 3 -18 -9 -18
1 -13 20 2 -5 -19 -20 -19
-2 -7 21 14 6 -13 -4 -11
-5 -3 15 12 9 -14 -6 -16
-4 -15 19 0 3 -17 -16 -23
1 -10 22 5 7 -13 -9 -17
14 -2 18 6 15 -12 -1 -12
10 -6 16 6 5 -14 -12 -15
0 -6 20 9 15 -11 -7 -12
1 -2 31 20 25 -3 8 -1
8 -2 20 16 6 -16 -6 -15
11 -5 7 7 1 -21 -20 -24
1 -6 16 35 17 -3 3 -6
-17 -5 20 36 21 2 10 -3
-10 -7 14 16 10 -8 -8 -14
9 -3 7 12 13 -6 -3 -9
18 2 14 11 17 -4 5 -5
14 -1 17 4 10 -7 -6 -15
2 -4 24 22 19 -4 -2 -12
4 4 22 30 25 2 14 -2
0 2 17 27 18 -1 8 -5
1 -3 14 24 12 -6 -10 -15
13 5 15 27 15 -3 1 -2
17 7 18 26 24 -2 2 -1
-6 2 14 37 27 -2 -4 -8
-6 -3 17 42 28 8 11 0
2 2 16 45 28 7 15 1
3 9 15 39 21 0 -1 -10
5 14 17 29 26 -1 0 -13
13 10 17 33 25 5 10 -4
21 2 21 22 17 -3 -5 -15
18 0 5 25 18 -9 -17 -21
16 3 6 36 26 3 2 -7
12 10 14 40 28 6 6 -5
6 2 16 25 22 3 -3 -10
3 4 19 36 32 15 10 3
6 13 33 49 46 22 24 10
5 5 21 47 36 14 10 0
9 -1 18 59 39 16 12 4
12 5 19 64 44 21 23 10
16 9 20 47 38 10 9 -3
21 -2 10 37 25 4 -5 -5
20 8 12 48 37 12 10 4
12 12 15 56 48 17 16 4
13 14 19 42 37 10 4 0
16 15 23 45 45 18 13 7
20 19 25 52 52 23 26 12
24 18 10 48 34 15 10 2
22 13 12 49 36 18 15 6
17 13 32 68 52 27 31 19
18 10 22 51 44 20 20 10
8 2 17 50 35 20 11 5
0 9 26 60 44 30 27 16
6 15 18 51 38 23 21 13
12 18 7 51 25 14 5 10
18 14 21 58 35 23 17 12
18 19 26 58 46 28 34 17
17 19 21 50 44 23 22 13
10 16 20 58 46 24 24 16
18 20 27 64 42 27 33 20
19 21 17 58 33 19 22 11
20 22 9 49 25 12 6 3
31 25 16 52 38 19 19 12
20 22 28 54 42 24 24 18
19 15 25 51 29 16 10 7
17 22 21 59 45 23 21 17
19 30 20 62 47 27 33 22
17 29 22 56 36 20 27 14
9 32 26 52 46 25 29 20
6 30 27 50 54 33 38 27
19 28 16 35 38 21 24 18
25 23 17 33 29 16 12 14
20 30 24 37 39 26 29 24
14 29 18 45 38 26 33 26
16 29 18 38 26 15 15 8
19 25 28 43 34 25 27 22
18 24 25 47 43 30 42 32
21 26 18 35 33 22 25 22
10 25 20 31 42 29 34 25
5 30 22 35 48 31 42 27
15 25 12 32 33 20 27 14
10 21 18 21 28 16 16 9
7 30 17 27 38 20 29 17
15 29 26 24 30 17 28 20
9 20 27 8 17 14 21 15
-2 18 14 22 25 23 29 21
-1 21 14 26 36 24 41 23
2 19 5 16 21 14 21 12
1 17 16 14 17 13 20 14
7 18 19 14 20 14 27 18
6 17 13 2 10 6 13 3
-1 14 9 -8 6 3 3 1
2 16 16 12 25 11 19 9
15 8 23 2 19 3 13 1
11 6 1 -12 9 -5 -3 -10
1 5 6 -7 7 1 8 -2
2 12 11 -6 18 6 23 5
-3 14 3 -12 3 -3 5 -5
-3 7 2 -12 2 -4 4 -2
-3 4 11 -14 14 3 19 8
8 5 8 -27 3 -10 2 -11
11 5 13 -34 -7 -18 -13 -19
4 8 15 -16 0 -4 10 -1
-6 6 6 -2 5 -5 10 -5
-7 1 13 -11 3 -12 -6 -15
-6 10 17 -11 6 -8 3 -6
-3 13 14 -1 8 -6 13 0
1 -2 12 -13 -3 -13 0 -8
1 -1 5 -20 -8 -13 1 -12
-5 -3 13 -16 3 -4 12 -5
-2 0 0 -20 1 -13 1 -15
-2 2 -5 -33 -10 -22 -13 -25
2 3 3 -20 -1 -12 4 -14
6 1 8 -13 1 -14 3 -15
0 -1 7 -15 -4 -18 -11 -19
-6 2 14 8 6 -9 1 -7
3 8 14 6 4 -5 13 -1
-1 0 12 -17 5 -12 1 -5
-3 0 21 -12 6 -7 4 -5
-2 -1 14 -6 10 -5 9 -4
-10 -3 15 -17 15 -12 -3 -11
-9 2 6 -26 3 -19 -20 -25
1 3 6 -20 1 -14 -8 -16
-3 -1 11 -4 4 -11 -1 -11
-16 -1 7 -20 -3 -11 -6 -13
-6 1 9 -17 1 -6 0 -8
3 2 10 -10 13 0 14 -4
5 1 4 -22 3 -11 -3 -12
1 -2 8 -17 1 -9 -2 -7
3 -4 8 -15 7 -2 10 -4
7 3 6 -19 -7 -15 -6 -17
5 -3 -2 -20 -9 -15 -16 -22
-1 -2 9 -9 9 -4 2 -11
-12 -2 11 3 11 -2 3 -10
-16 1 4 -13 7 -6 -5 -16
-7 0 6 -8 14 -4 -2 -15
4 5 10 7 20 1 12 -8
2 -2 2 -8 5 -8 -2 -15
-6 -7 5 -5 10 -4 0 -2
-7 -3 6 -4 15 5 16 9
-4 2 4 -7 8 -2 8 -5
-1 -6 17 -16 -5 -8 -8 -13
-4 -1 18 -14 9 0 9 -2
-2 2 6 -2 5 -4 6 -7
5 6 -4 -5 -10 -15 -13 -20
0 3 10 -2 3 -3 2 -12
6 8 18 14 15 1 13 -6
8 3 6 -7 3 -6 2 -13
6 3 7 -13 4 -6 0 -9
7 7 16 -6 8 -1 12 -3
0 13 16 -10 -3 -5 5 -10
-6 -3 11 -21 -6 -9 -6 -13
-6 -1 7 -13 6 -2 9 -4
-13 -5 6 -9 3 -3 9 -7
-8 -6 -1 -15 -7 -13 -9 -19
8 4 -3 -2 1 -11 -2 -13
11 11 -3 -12 4 -8 10 -4
8 1 -3 -25 -12 -12 -3 -14
9 -2 3 -23 -12 -11 -3 -14
5 4 -1 -14 4 -6 9 -5
-1 5 3 -21 0 -11 2 -10
2 2 1 -24 -11 -15 -11 -18
7 3 8 -15 2 -8 4 -5
1 -1 0 -8 3 -6 6 -5
-1 -11 -3 -16 -8 -10 -4 -15
-4 -1 -10 -23 -5 -8 2 -13
1 3 -3 -14 2 -4 16 -7
-4 -2 -2 -31 -6 -13 1 -17
-4 2 -3 -33 -2 -14 -4 -18
-1 -3 1 -20 5 -6 11 -10
6 -5 -1 -22 -15 -14 0 -15
4 -6 -6 -27 -24 -21 -14 -23
1 -4 0 -16 -11 -13 -1 -10
-3 -5 -2 -16 -10 -13 0 -12
-10 -1 2 -16 -16 -16 -8 -17
-7 2 7 -17 -12 -11 0 -13
-6 4 1 -11 2 -6 14 -2
-1 -9 3 -25 -7 -14 0 -11
0 -6 -3 -27 -15 -14 -3 -14
1 10 -6 -19 -6 -11 8 -10
-1 -3 -8 -23 -12 -16 -1 -16
8 -4 -6 -25 -25 -25 -18 -28
-2 2 9 -21 -11 -14 2 -12
-7 -3 -4 -24 -14 -13 3 -11
9 -5 -4 -30 -23 -22 -13 -26
4 -4 -5 -28 -9 -13 1 -18
-12 -4 6 -13 -2 -5 20 -4
-2 -4 -7 -22 -18 -18 -1 -18
0 -4 -13 -28 -25 -19 -7 -16
5 -5 -7 -20 -13 -12 4 -8
6 -13 -8 -24 -14 -18 -3 -19
-6 -19 -5 -38 -28 -22 -15 -26
-4 -2 6 -24 -20 -16 -3 -19
-5 0 7 -26 -12 -19 -4 -21
-12 -9 8 -28 -14 -19 -12 -25
-11 -7 14 -24 -14 -11 4 -17
-11 -5 7 -25 -9 -6 16 -7
-2 -9 1 -35 -28 -20 -1 -22
4 -5 -1 -36 -28 -20 -7 -24
-3 -4 -4 -25 -13 -12 9 -14
6 -8 -1 -29 -23 -22 -1 -23
11 -15 -8 -27 -35 -31 -21 -31
7 -9 -12 -21 -30 -25 -6 -24
2 -7 -10 -26 -23 -22 -8 -25
7 -11 -14 -34 -28 -27 -18 -29
10 -8 -9 -13 -23 -19 -6 -23
1 0 -2 -2 -9 -12 10 -15
6 -1 -13 -33 -20 -24 -8 -26
12 -1 -12 -39 -25 -24 -11 -26
1 -5 1 -29 -16 -12 7 -15
-3 -12 -4 -26 -19 -15 0 -18
-9 -15 -15 -39 -23 -19 -14 -26
-22 -11 2 -26 -11 -9 3 -13
-21 -7 -2 -31 -19 -12 1 -12
6 -5 -28 -45 -32 -28 -20 -25
4 -7 -17 -34 -17 -17 -7 -19
4 1 -2 -29 -10 -9 11 -11
13 -7 -8 -36 -20 -21 -7 -23
10 -10 -11 -35 -24 -18 -6 -24
2 -7 -14 -14 -15 -10 9 -13
1 -7 -19 -27 -18 -18 3 -18
-6 -4 -14 -36 -28 -23 -13 -27
1 -2 -8 -22 -15 -17 2 -18
5 -4 -18 -34 -22 -22 3 -19
1 -8 -14 -36 -28 -27 -13 -29
-1 -9 -6 -38 -19 -22 -6 -26
-5 -4 -14 -33 -8 -14 7 -16
-7 -8 -12 -33 -17 -21 -6 -23
-5 -5 -20 -38 -35 -22 -9 -26
-2 -1 -11 -33 -24 -16 3 -17
3 -2 -16 -28 -31 -25 -6 -28
6 -10 -26 -39 -34 -32 -25 -41
-2 -11 -19 -22 -15 -18 -2 -26
-5 -8 -14 -22 -20 -20 -5 -28
-1 -5 -27 -38 -38 -28 -19 -38
-8 -10 -15 -16 -18 -17 -5 -25
2 -6 -20 -8 -6 -16 4 -20
5 -5 -31 -38 -24 -25 -10 -23
-1 -8 -19 -37 -26 -20 -8 -20
0 -9 -15 -26 -21 -15 3 -15
1 -9 -13 -33 -24 -19 -1 -21
-2 -11 -16 -39 -32 -24 -14 -31
-2 -16 -15 -22 -17 -15 5 -18
8 -10 -26 -23 -20 -20 0 -26
16 -10 -25 -31 -36 -30 -18 -37
11 -6 -19 -38 -27 -25 -11 -32
-2 -1 -9 -37 -15 -14 13 -19
-2 -13 -21 -42 -29 -18 -1 -24
0 -17 -19 -31 -26 -17 -2 -25
-13 -14 -5 -14 -17 -9 10 -16
-9 -11 -18 -17 -29 -19 0 -22
1 -16 -28 -31 -33 -28 -18 -30
5 -11 -26 -35 -21 -20 -1 -22
9 -7 -35 -26 -24 -19 -1 -26
5 -9 -32 -37 -31 -25 -12 -31
-2 -13 -18 -14 -25 -19 -3 -26
1 -8 -8 -7 -12 -12 13 -19
-1 -14 -17 -20 -31 -22 -4 -30
-7 -18 -10 -29 -24 -16 0 -24
-1 -14 -17 -34 -23 -15 6 -18
-2 -13 -27 -45 -36 -25 -3 -33
-3 -20 -19 -45 -41 -27 -16 -37
-1 -13 -16 -15 -24 -17 -1 -26
0 -9 -15 -15 -25 -17 2 -24
0 -6 -23 -26 -31 -23 -10 -35
3 -1 -24 -30 -26 -20 -1 -27
3 -6 -17 -19 -19 -12 16 -13
1 -11 -26 -27 -30 -20 -2 -21
-7 -15 -22 -20 -26 -19 -1 -25
-2 -12 -18 -13 -15 -13 9 -19
3 -11 -21 -24 -34 -21 -2 -29
2 -20 -30 -32 -41 -25 -16 -34
4 -19 -26 -21 -26 -17 3 -20
7 -15 -19 -36 -32 -20 -1 -24
1 -16 -36 -40 -29 -23 -10 -30
0 -12 -33 -32 -28 -21 -2 -30
14 -7 -30 -30 -28 -18 8 -25
21 -10 -25 -37 -39 -28 -7 -33
6 -12 -25 -32 -30 -22 1 -25
-12 -11 -11 -6 -15 -9 15 -18
-18 -19 -9 -13 -21 -12 10 -18
-24 -29 -24 -22 -27 -19 -5 -22
-11 -25 -20 -15 -21 -13 8 -20
7 -15 -23 -27 -26 -22 1 -26
2 -17 -27 -41 -28 -26 -8 -31
0 -16 -13 -43 -20 -16 6 -22
3 -11 -14 -22 -16 -10 24 -16
9 -15 -33 -37 -30 -21 -1 -32
13 -12 -31 -38 -35 -21 0 -30
11 -10 -28 -14 -26 -15 11 -21
5 -13 -20 -20 -31 -19 5 -21
-4 -18 -8 -40 -38 -24 -5 -30
0 -15 -11 -25 -31 -18 5 -26
0 -16 -22 -17 -27 -19 2 -24
-17 -19 -22 -14 -23 -19 -4 -26
-14 -15 -30 -18 -30 -15 2 -21
-3 -8 -19 -22 -17 -10 15 -19
-1 -13 -14 -37 -24 -20 -2 -32
0 -19 -25 -24 -23 -17 1 -25
2 -11 -21 -15 -16 -13 11 -13
7 -13 -30 -29 -34 -21 4 -25
-9 -23 -31 -36 -33 -23 -8 -29
-9 -19 -25 -21 -21 -15 5 -23
1 -13 -20 -21 -19 -19 2 -27
-4 -13 -13 -25 -21 -21 -5 -26
-9 -17 -13 -22 -29 -17 2 -24
-3 -14 -20 -14 -13 -10 19 -14
4 -16 -11 -33 -23 -21 -2 -29
7 -17 -10 -43 -30 -21 -1 -30
7 -14 -13 -21 -27 -13 13 -17
4 -18 -19 -28 -29 -16 5 -26
2 -20 -32 -40 -41 -25 -12 -34
0 -14 -20 -32 -27 -15 6 -21
3 -10 -26 -32 -28 -18 6 -22
-3 -14 -30 -36 -33 -21 -3 -30
-5 -15 -16 -25 -22 -18 5 -26
-2 -6 -10 -20 -19 -15 12 -21
-5 -14 -26 -32 -24 -20 0 -31
-4 -13 -26 -32 -29 -19 -1 -31
-3 -4 -13 -21 -23 -13 11 -24
-8 -11 -8 -22 -22 -17 10 -25
-2 -16 -33 -39 -33 -27 -13 -35
-3 -8 -27 -20 -23 -15 5 -22
-7 -14 -16 -21 -11 -12 10 -18
-1 -14 -10 -39 -25 -22 -4 -26
2 -15 -3 -20 -24 -18 2 -18
3 -15 -7 -18 -14 -12 17 -18
2 -16 -24 -35 -29 -21 0 -30
-3 -10 -21 -36 -33 -19 0 -24
-2 -6 -16 -24 -25 -16 8 -21
5 -15 -20 -31 -31 -23 0 -32
-4 -21 -23 -37 -34 -28 -14 -39
-9 -16 -18 -21 -22 -18 4 -26
-8 -12 -13 -14 -26 -18 6 -26
-7 -18 -15 -23 -31 -23 -5 -29
0 -15 -20 -40 -24 -19 0 -30
-6 -13 -20 -24 -12 -7 22 -18
-19 -19 -22 -27 -21 -14 7 -26
-18 -13 -11 -34 -21 -13 4 -23
-15 -10 -11 -26 -17 -10 13 -18
-12 -8 -26 -23 -24 -20 0 -30
-3 -18 -30 -40 -31 -29 -17 -39
0 -15 -21 -32 -29 -21 -3 -29
2 -9 -14 -22 -24 -20 0 -28
3 -9 -21 -33 -27 -27 -10 -35
2 -4 -14 -36 -21 -22 -1 -29
7 6 -16 -24 -11 -13 18 -19
2 5 -13 -28 -19 -18 2 -29
-1 -6 -10 -18 -11 -13 6 -21
2 3 -8 -15 -2 -9 14 -17
-8 4 -12 -16 -10 -13 10 -24
-16 -2 -9 -23 -25 -15 -4 -29
0 0 -4 -22 -8 -8 12 -16
-1 8 7 -26 -1 -6 16 -12
2 9 7 -28 -11 -10 6 -14
3 3 1 -14 -10 -10 8 -14
5 13 3 5 -4 -4 23 -7
5 11 -9 -13 -14 -10 12 -13
1 8 -7 -11 -3 -4 17 -12
2 12 -1 4 1 3 32 -5
-7 18 2 0 -2 3 30 -4
-8 17 5 -9 -14 -3 10 -14
1 19 13 -9 -1 5 25 -2
2 16 14 -10 -2 3 24 -8
3 14 0 -24 -9 -6 9 -14
3 14 -10 -21 -5 -4 14 -9
9 20 -10 -11 -1 0 30 -3
11 17 -7 -23 -9 -10 14 -12
11 13 -9 -31 -13 -8 12 -13
9 9 -3 -16 -2 -1 24 -6
-5 5 -2 -26 0 -3 23 -6
0 0 -18 -39 -21 -15 3 -19
5 0 -10 -20 -7 -6 16 -8
6 -1 -1 -20 -3 -5 16 -10
9 -2 -13 -26 -12 -13 3 -21
12 3 -4 -27 -9 -8 9 -15
6 5 3 -23 -4 2 28 -5
-6 -1 1 -23 -5 -4 18 -11
-3 6 -10 -12 -4 -6 13 -13
2 -1 -10 -22 -7 -2 21 -9
-1 -8 -6 -26 -15 -9 14 -14
-3 -11 -10 -42 -21 -18 -6 -28
-6 -9 -10 -38 -17 -14 7 -17
-5 -9 -9 -36 -19 -17 7 -13
-14 -15 -15 -41 -25 -23 -4 -26
-14 -16 -16 -39 -15 -20 -1 -26
-10 -10 -12 -38 -14 -15 16 -14
-8 -7 -13 -36 -35 -28 -5 -32
-11 -9 -11 -28 -31 -25 -5 -29
-11 -11 -8 -23 -14 -17 10 -21
-3 -12 -11 -36 -26 -27 -4 -33
-7 -13 -19 -53 -37 -33 -19 -39
-16 -18 -12 -40 -18 -18 8 -21
-13 -18 -11 -35 -20 -21 4 -26
-5 -17 -20 -47 -26 -29 -10 -30
-1 -6 -18 -49 -30 -28 -9 -29
-2 -2 -3 -34 -18 -21 7 -23
-13 -21 -4 -42 -20 -23 -1 -30
-32 -17 -12 -36 -22 -18 1 -25
-27 -7 -7 -41 -18 -14 11 -20
-14 -12 -1 -51 -29 -24 2 -27
-3 -21 -21 -59 -41 -32 -21 -30
2 -9 -18 -47 -27 -24 -6 -19
-14 -6 -14 -41 -23 -22 -3 -23
-21 -9 -12 -42 -21 -26 -9 -33
-18 -15 1 -28 -14 -19 1 -25
-20 -16 7 -20 -9 -13 15 -16
-17 -13 -6 -43 -22 -26 -5 -30
-10 -12 -9 -43 -19 -28 -7 -32
-3 -15 -7 -43 -20 -25 -4 -25
3 -10 -20 -56 -33 -32 -13 -30
-6 -13 -18 -50 -34 -36 -29 -41
-17 -3 12 -25 -12 -20 -9 -26
-22 -1 19 -15 0 -15 -5 -24
-31 -8 30 -3 6 -12 -9 -32
-24 -7 39 20 27 0 -4 -24
-10 -6 54 53 64 21 21 -12
-7 -13 55 71 65 30 16 -20
16 -16 60 97 78 46 28 -15
29 -15 62 113 96 76 58 7
40 -10 54 121 120 107 85 27
50 -1 49 128 143 148 117 59
61 20 51 154 179 212 191 121
87 49 32 141 194 261 248 168
102 72 12 101 189 288 282 205
99 83 8 86 197 309 319 245
105 74 23 83 194 303 332 251
106 48 13 54 163 281 307 231
91 44 15 31 160 273 301 228
70 43 20 10 148 255 292 218
35 45 12 -61 101 213 253 184
7 35 -8 -136 32 147 185 143
-6 19 -10 -185 -35 67 127 97
-43 -1 -7 -223 -96 -30 44 40
-79 -5 5 -248 -159 -117 -43 -19
-95 7 20 -247 -172 -149 -81 -55
-91 23 28 -239 -151 -137 -71 -58
-78 25 9 -257 -167 -146 -94 -78
-76 15 -4 -260 -172 -147 -99 -89
-73 4 -8 -245 -156 -137 -85 -81
-65 -2 -38 -236 -156 -135 -90 -89
-56 -10 -42 -225 -163 -134 -101 -93
-54 -5 -48 -194 -137 -112 -74 -75
-55 -11 -51 -170 -114 -95 -58 -63
-46 -17 -53 -149 -102 -81 -56 -58
-32 -13 -34 -115 -75 -60 -41 -48
-27 -2 -21 -66 -48 -36 -11 -29
-29 -7 -19 -52 -44 -33 -19 -33
-33 -12 -8 -36 -36 -26 -15 -27
-24 -10 -1 -37 -17 -17 -4 -22
-13 -8 -5 -46 -8 -19 -7 -25
-15 -13 -8 -54 -15 -26 -24 -33
-19 -4 -6 -36 -15 -18 -11 -25
-14 -8 -10 -41 -20 -19 -11 -26
-10 -19 -11 -53 -31 -26 -23 -35
-12 -20 -8 -46 -17 -20 -17 -32
-1 -10 5 -33 -2 -11 0 -22
2 -6 -4 -37 -22 -21 -14 -31
-11 -13 -9 -29 -13 -18 -14 -27
-17 -16 -7 -26 -7 -11 -3 -23
-6 -5 -7 -35 -10 -16 -9 -27
-2 -15 -5 -36 -19 -24 -25 -36
-5 -14 -2 -33 -15 -16 -10 -29
-6 -8 3 -48 -18 -17 -10 -28
-14 -14 4 -45 -13 -19 -19 -32
-9 -19 0 -31 1 -13 -12 -27
-2 -15 5 -21 -4 -6 3 -16
-10 -18 0 -27 -12 -15 -8 -26
-6 -20 -5 -19 -13 -14 -9 -28
-9 -15 -2 -9 -10 -10 -6 -19
-6 -13 -7 -18 -9 -14 -10 -27
-2 -16 3 -35 -24 -21 -25 -38
-5 -13 14 -21 -8 -10 -9 -22
-1 -17 5 -22 -10 -9 -8 -16
2 -21 -8 -27 -20 -17 -21 -25
1 -22 -8 -30 -15 -14 -17 -27
-1 -7 -5 -26 -2 -4 0 -19
-17 -15 0 -20 -8 -6 -13 -22
-21 -14 -2 -15 -7 -6 -16 -19
-17 -9 1 -16 -2 -2 -9 -15
-11 -13 2 -19 -9 -7 -16 -21
-6 -21 -4 -33 -24 -12 -28 -30
-8 -24 4 -19 6 4 -6 -13
-13 -17 7 -16 3 2 -7 -19
-4 -14 -1 -19 -11 -6 -16 -29
-3 -15 -4 -11 -7 -1 -11 -22
-5 -13 6 3 8 8 7 -12
-8 -16 -3 -14 -1 1 -11 -22
-12 -15 -2 -11 -3 1 -12 -25
-11 -13 1 -11 6 7 -1 -18
-5 -16 -4 -12 4 5 -5 -18
4 -23 -6 -21 -14 -6 -25 -33
7 -21 1 -2 3 6 -5 -18
-3 -16 -2 3 7 7 -1 -13
-6 -12 6 -7 5 1 -8 -24
-5 -7 10 0 10 5 -6 -22
-3 -4 12 14 18 12 11 -13
-11 -10 14 -4 14 5 -4 -23
-13 -18 7 2 16 5 -5 -22
-9 -15 0 27 16 10 5 -16
2 -13 -4 31 3 3 -3 -23
-1 -19 0 4 -7 -7 -25 -30
-8 -11 14 12 10 7 -4 -15
-1 -11 12 5 8 7 -4 -14
1 -18 -2 9 1 0 -12 -21
1 -5 -13 22 -2 3 -7 -16
-3 -7 4 18 18 19 15 -2
-11 -14 2 6 4 11 -2 -11
1 -14 -3 -10 3 7 -7 -19
10 -15 2 -6 9 11 -2 -19
9 -13 3 -6 -1 8 -7 -20
15 -14 -6 -20 -18 -3 -27 -29
6 -15 1 2 -1 11 -7 -15
-18 -12 10 9 6 20 1 -12
-21 -12 28 2 7 15 -6 -15
-9 -13 20 -3 10 15 -6 -17
2 0 7 15 24 22 11 -10
7 -3 3 9 6 13 -9 -20
3 -5 6 3 -3 12 -7 -21
-2 -5 19 10 10 22 5 -11
2 -9 -2 1 5 19 -1 -15
5 -14 -9 -13 -4 12 -17 -25
-1 -4 6 -2 13 22 1 -13
2 -3 4 -5 7 21 2 -15
13 -11 -1 -7 5 15 -8 -22
15 -16 2 -5 9 18 -10 -16
9 -13 6 5 27 31 12 -1
-2 -11 14 -1 12 23 2 -10
-8 -11 12 1 12 26 6 -4
3 -4 6 5 20 30 13 -1
7 -4 5 2 10 23 4 -6
2 -15 2 -15 3 17 -10 -16
4 -8 5 7 18 25 8 -4
8 -9 6 11 21 22 2 -7
5 -9 8 -7 11 17 -8 -11
5 -9 12 -1 24 21 1 -3
11 -2 4 10 27 26 15 7
11 -5 3 9 10 19 -4 -4
5 -6 2 14 14 23 -3 -9
1 -5 5 4 24 31 9 -3
12 2 2 4 21 26 3 -5
9 -3 -5 -4 7 18 -17 -16
8 -2 8 8 21 29 3 -4
8 0 16 11 29 32 4 -1
3 -4 6 4 18 26 -8 -8
16 0 5 0 13 26 -7 -5
31 3 12 29 23 35 11 0
21 -3 12 17 13 31 -5 -13
-10 0 17 17 21 44 4 -3
-11 -7 28 32 36 54 16 10
9 0 15 9 29 45 6 -3
21 1 0 -9 14 36 -14 -16
17 6 9 1 32 51 6 -2
10 4 11 10 35 57 12 3
8 2 3 10 22 54 2 -1
18 5 7 15 28 56 2 2
19 11 15 28 52 62 19 12
14 3 9 13 38 54 2 -2
10 -1 3 15 30 55 2 -4
11 0 12 22 33 61 15 4
14 2 14 21 36 56 11 2
16 1 17 5 31 47 -6 -6
8 10 19 16 34 57 15 5
11 6 14 33 37 55 17 9
11 7 6 21 26 49 5 6
7 9 3 31 30 54 11 7
12 19 20 32 43 60 28 17
14 16 12 14 31 47 9 5
15 11 6 13 38 46 6 9
19 13 5 22 51 51 15 12
21 16 3 13 47 45 10 15
16 12 3 8 29 35 -12 -1
17 18 3 11 34 45 6 3
17 21 4 13 35 43 8 6
18 15 7 14 30 39 1 0
10 14 8 15 34 47 7 4
18 22 7 20 50 50 23 10
26 18 -1 10 36 36 2 -3
24 16 6 12 31 39 0 0
25 19 12 19 37 44 10 9
23 16 3 2 33 40 10 8
14 11 6 -11 27 35 -8 5
11 16 16 11 40 48 15 22
7 18 18 24 45 49 20 19
9 17 10 22 35 42 8 9
23 23 1 16 29 40 6 8
25 25 7 23 42 47 24 17
12 19 13 11 33 46 16 12
17 24 12 5 31 45 11 12
10 28 13 3 35 51 21 25
11 26 12 2 37 50 21 18
9 16 9 -10 25 40 0 5
8 20 11 -3 37 51 17 17
9 28 12 1 37 50 16 19
4 23 3 -15 28 44 8 15
3 19 12 -5 38 51 14 19
10 27 25 2 54 56 31 22
14 20 16 -13 32 44 10 10
10 22 26 -8 26 49 11 10
19 24 16 -3 32 50 17 14
13 20 7 -7 30 46 14 9
8 15 -2 -28 17 38 -7 1
4 22 17 -28 31 47 10 10
-8 22 17 -35 29 46 12 13
-2 11 5 -41 25 40 0 3
8 7 2 -29 18 39 -2 -1
10 15 8 -31 37 47 15 11
11 13 -2 -45 15 34 -6 -5
9 15 -3 -34 13 33 -7 -6
4 11 -2 -23 28 45 7 6
6 7 2 -32 22 41 1 4
-3 -1 6 -45 7 34 -17 -5
-3 2 10 -45 22 42 0 5
6 3 9 -48 14 36 -1 2
12 0 0 -57 -1 27 -15 -5
-1 6 -3 -46 9 28 -13 -8
-5 9 6 -34 31 37 2 1
-7 5 3 -41 12 27 -15 -10
-11 2 5 -41 16 28 -16 -5
0 1 9 -34 17 31 -10 2
11 1 2 -44 20 22 -16 -11
11 -7 -12 -59 0 10 -36 -27
2 5 -5 -47 9 25 -17 -7
-9 8 1 -45 10 28 -11 -4
-14 1 5 -43 7 23 -20 -7
-14 0 4 -47 10 25 -17 -4
-9 2 11 -37 18 33 0 3
-1 0 5 -52 0 19 -21 -6
0 1 6 -51 -3 19 -26 -9
-11 1 7 -42 12 28 -14 -3
-6 3 1 -46 10 23 -18 -5
-4 0 -9 -51 -9 11 -40 -15
-6 4 -3 -43 8 25 -20 -6
2 4 6 -39 17 27 -15 -4
-5 1 15 -39 4 23 -22 -6
-13 8 7 -37 9 24 -21 -2
-2 8 6 -27 22 31 -2 5
5 -3 -1 -55 2 18 -23 -10
-3 -3 -8 -47 11 23 -21 -3
-10 -5 8 -33 20 35 -8 8
-6 -6 2 -46 9 27 -13 -1
1 -9 -7 -62 -3 18 -36 -10
-3 1 -9 -45 5 30 -18 10
-6 1 -8 -47 12 30 -16 14
-8 -1 -8 -52 7 24 -24 10
-3 4 -4 -49 11 24 -25 12
4 11 4 -35 25 30 -5 19
10 5 -9 -48 7 16 -28 7
16 3 -4 -37 3 16 -32 12
12 2 -8 -27 18 25 -15 18
-2 3 -4 -45 20 23 -15 21
-27 -6 15 -49 15 27 -28 24
-23 -4 14 -28 23 38 -10 42
-15 -2 6 -24 21 33 -10 38
-9 0 -5 -42 9 24 -19 28
-7 -3 -2 -50 9 26 -16 32
-9 0 4 -28 29 36 2 46
-4 1 -1 -28 13 24 -10 34
-7 6 4 -39 10 20 -15 30
-7 7 11 -36 18 25 -12 35
0 8 3 -37 10 17 -14 29
-2 -2 -4 -54 2 7 -34 20
-6 1 1 -46 12 19 -18 34
1 6 -1 -39 12 17 -18 32
2 3 -4 -40 7 12 -27 28
-4 3 -5 -38 8 16 -24 31
-11 4 8 -22 26 27 -2 44
-6 3 -1 -49 6 13 -22 34
-1 1 -2 -53 7 13 -24 32
-5 6 -7 -30 16 20 -13 38
9 8 -8 -40 7 15 -18 37
3 5 -17 -54 -7 2 -41 28
-8 5 -13 -36 5 16 -21 39
-14 2 15 -43 11 20 -12 42
-12 -2 5 -46 8 13 -24 33
-7 0 -11 -48 7 14 -26 36
-3 6 -1 -40 11 20 -9 44
0 1 -9 -61 -1 7 -27 27
1 -4 -2 -42 0 9 -27 29
0 -3 -9 -37 7 13 -18 37
1 -2 -1 -55 3 9 -24 31
9 -7 -10 -73 -16 -6 -48 15
16 1 -2 -65 -9 4 -30 24
14 1 -9 -51 -3 5 -29 25
-6 -5 -12 -48 -2 4 -32 22
-24 -3 -9 -51 9 10 -27 32
-19 1 1 -41 24 20 -3 42
-12 -3 -10 -58 -5 5 -29 25
-13 -2 -4 -64 -9 4 -32 26
-9 3 -11 -54 2 9 -22 36
-6 1 -18 -62 6 6 -22 28
-6 -3 -22 -75 -10 -5 -47 17
-6 4 -15 -56 0 7 -29 32
-4 2 -2 -55 -2 9 -25 31
-2 -3 -7 -56 -3 3 -34 26
-12 -3 -14 -60 2 5 -34 30
-6 1 -1 -57 13 13 -15 42
10 -1 -21 -79 -7 -4 -39 24
5 -6 -24 -76 -7 1 -37 31
16 -4 -19 -72 -2 3 -32 34
14 0 -21 -74 -7 -3 -33 30
-5 -5 -11 -70 -17 -5 -48 21
-16 1 0 -48 -2 10 -26 40
-14 4 -7 -50 -1 9 -24 41
-6 1 -12 -71 -9 1 -35 26
-9 -6 -12 -78 -7 3 -29 28
-10 1 -8 -64 3 9 -14 38
-9 5 -11 -71 -11 -1 -36 23
-5 -1 -12 -74 -6 -3 -41 24
2 0 -6 -70 -2 -1 -38 28
1 2 -15 -68 -6 -4 -39 24
-11 -2 -26 -79 -25 -10 -48 12
-11 0 -17 -59 -11 3 -26 30
-3 7 -15 -63 -12 1 -32 32
-4 1 -17 -70 -14 -6 -43 20
-11 -1 -12 -71 -6 1 -36 27
-16 5 -7 -59 10 9 -16 38
-6 0 -12 -77 -10 -6 -40 26
14 -12 -9 -83 -19 -9 -46 22
4 -7 -18 -83 -15 -5 -38 24
-4 -4 -24 -77 -3 -3 -34 26
-13 -14 -22 -79 -13 -8 -51 17
-16 -5 -12 -66 -4 2 -33 30
-9 -3 -21 -74 -6 -1 -31 28
-7 -6 -24 -77 -16 -6 -41 26
-10 -7 -4 -78 -17 0 -38 31
-3 -2 -10 -70 -4 7 -19 38
-8 -2 -22 -75 -1 -5 -36 24
-4 2 -14 -79 -4 -7 -43 23
-1 2 -14 -81 -7 -6 -40 27
5 0 -23 -80 -20 -12 -44 22
1 -8 -24 -86 -19 -18 -59 15
-11 -1 -17 -70 -6 -5 -39 28
-18 6 -14 -72 -6 -1 -31 30
-15 2 -15 -79 -17 -7 -41 23
-2 -2 -20 -81 -17 -10 -46 26
5 11 -22 -61 -7 -4 -29 34
4 -4 -15 -71 -16 -11 -42 21
3 -6 -21 -82 -16 -13 -46 20
0 -1 -20 -75 -11 -6 -37 28
-3 2 -18 -80 -16 -11 -40 23
-10 -10 -16 -91 -25 -16 -57 16
-12 -8 -1 -79 -6 -2 -38 32
-9 -3 -14 -81 -8 -4 -39 27
-20 -3 -14 -79 -8 -7 -44 26
-16 -8 -13 -77 -12 -4 -42 30
1 -1 -18 -75 -2 0 -27 34
9 -2 -24 -91 -18 -12 -44 20
6 -4 -17 -93 -23 -14 -48 20
1 -3 -15 -87 -12 -5 -37 29
1 3 -28 -87 -9 -8 -38 25
-4 -4 -29 -91 -24 -17 -58 15
0 -2 -14 -74 -18 -7 -43 32
-10 0 -10 -95 -10 -5 -39 32
-19 -6 -19 -88 -15 -7 -46 32
-14 -12 -25 -79 -16 -1 -42 39
-5 -1 -23 -68 -3 6 -24 46
3 -3 -24 -81 -17 -6 -43 33
-3 1 -23 -94 -17 -7 -46 28
-7 0 -23 -88 -16 -4 -39 35
-2 4 -19 -93 -18 -6 -41 33
-4 -9 -16 -105 -16 -13 -57 26
-4 -2 -20 -90 5 -5 -40 41
-6 -6 -20 -89 -6 -3 -36 39
-18 -8 -19 -85 -16 -5 -41 35
-14 -1 -21 -94 -18 -7 -44 35
-5 1 -19 -86 -5 0 -27 44
3 -4 -25 -95 -18 -10 -45 36
-1 1 -26 -95 -12 -9 -45 32
-9 -4 -16 -80 -4 -2 -33 39
-4 -5 -10 -82 -15 -5 -37 37
-2 -5 -21 -116 -32 -18 -59 26
-6 -3 -17 -102 -16 -6 -41 42
-3 -4 -19 -75 -8 -4 -38 41
-12 -9 -18 -91 -10 -6 -41 42
-20 -9 -20 -94 -13 -2 -39 49
-12 7 -12 -83 1 6 -21 51
-4 2 -25 -93 -8 -7 -42 36
-2 -5 -30 -96 -18 -9 -44 35
4 -7 -31 -94 -17 -5 -40 36
6 -8 -27 -92 -9 -6 -40 36
7 -8 -24 -108 -26 -17 -60 25
-3 7 -17 -93 -14 -6 -37 38
-23 4 -6 -100 -8 1 -27 50
-16 -4 -26 -111 -18 -2 -34 47
-11 1 -35 -102 -17 -4 -38 43
1 9 -21 -91 -6 4 -19 52
10 -8 -33 -109 -19 -6 -36 38
3 -15 -37 -115 -18 -4 -41 40
-10 -4 -21 -101 -16 2 -32 54
-12 2 -16 -102 -7 1 -31 52
-10 -8 -24 -119 -18 -9 -50 40
-2 -5 -17 -100 -14 -1 -34 47
6 -8 -22 -99 -11 -1 -27 45
6 -7 -26 -107 -24 -7 -40 44
-2 -6 -18 -112 -15 1 -37 49
1 2 -13 -96 3 10 -18 58
3 -2 -25 -91 -12 0 -34 44
-2 -2 -33 -98 -21 -2 -38 42
-8 1 -28 -100 -12 5 -31 49
-9 5 -25 -102 -12 4 -31 47
-17 -8 -19 -114 -26 -2 -48 39
-16 2 -19 -100 -14 8 -30 55
-12 8 -27 -102 -12 7 -28 52
-10 -1 -24 -111 -15 1 -39 43
-11 -9 -18 -104 -12 8 -33 52
-4 2 -18 -84 1 16 -11 67
8 -1 -25 -102 -13 1 -33 48
5 -2 -33 -108 -19 -3 -37 47
-4 -1 -28 -102 -15 0 -30 59
-2 -1 -27 -93 -12 -3 -29 59
0 -7 -40 -114 -23 -12 -49 45
-7 -6 -34 -106 -7 -1 -35 57
-18 -3 -33 -94 -6 3 -28 61
5 -2 -45 -103 -19 -8 -43 45
22 -7 -34 -123 -25 -10 -46 47
11 1 -18 -107 -3 7 -18 69
-4 -1 -21 -114 -8 0 -32 58
-3 -1 -24 -110 -17 -4 -35 56
-7 1 -30 -100 -7 1 -28 59
-11 -4 -30 -101 -5 -1 -27 58
-3 -9 -32 -107 -24 -13 -52 42
4 -4 -24 -106 -17 -7 -37 49
-3 -8 -26 -104 -8 0 -30 54
-9 -8 -25 -109 -9 1 -33 56
-9 -10 -26 -115 -17 1 -33 57
-9 -1 -27 -102 -4 13 -9 71
-5 0 -37 -102 -19 2 -26 64
-7 -1 -32 -98 -14 1 -27 58
-6 -1 -18 -105 -9 6 -18 61
0 2 -27 -105 -14 -2 -21 56
-3 -1 -34 -117 -28 -15 -43 43
-7 1 -34 -101 -14 -2 -22 56
-7 -2 -31 -104 -9 0 -21 60
-15 -4 -27 -107 -14 -1 -22 59
-14 -8 -20 -108 -8 4 -17 64
-6 -2 -24 -95 0 13 5 73
-2 2 -37 -102 -18 1 -16 60
-4 -5 -40 -106 -20 -1 -23 61
-11 -4 -32 -103 -5 7 -14 70
-7 2 -24 -104 -2 4 -13 65
-1 -4 -37 -110 -26 -11 -37 46
-3 -1 -32 -108 -10 1 -18 60
0 0 -36 -116 -11 1 -16 60
0 0 -38 -109 -17 -5 -24 52
4 -6 -40 -106 -19 -1 -22 56
0 -3 -26 -100 0 11 1 73
-10 -5 -31 -113 -14 3 -18 58
-10 -6 -38 -116 -19 1 -22 56
-1 -8 -40 -112 -16 3 -17 59
9 3 -33 -112 -11 -5 -21 54
10 -8 -40 -130 -24 -15 -42 42
17 -4 -39 -118 -19 -6 -23 53
7 3 -27 -118 -12 -1 -13 56
-17 1 -35 -112 -16 0 -15 61
-12 -1 -35 -106 -16 3 -16 60
4 2 -26 -84 -3 9 2 65
-2 -4 -38 -106 -6 0 -15 53
-16 -2 -38 -107 -4 4 -18 60
-17 -2 -34 -106 -6 8 -9 72
-8 0 -42 -108 -8 4 -12 62
-6 0 -50 -116 -29 -7 -33 50
-3 0 -38 -108 -12 6 -12 66
-2 6 -31 -110 -13 7 -12 64
-5 6 -36 -114 -16 2 -20 59
-2 1 -36 -108 -12 6 -18 59
-7 11 -19 -95 7 20 6 72
-10 3 -30 -100 -6 12 -11 62
-3 2 -35 -107 -11 8 -19 58
5 11 -32 -108 -4 9 -14 61
2 16 -24 -103 -5 11 -11 61
1 10 -29 -109 -7 5 -26 55
5 12 -16 -94 4 15 -7 69
-6 16 5 -86 12 17 -4 69
-3 13 -9 -94 -1 14 -6 63
7 8 -23 -90 2 15 -10 62
9 20 -18 -78 22 27 9 78
9 25 -21 -86 12 19 -8 68
3 17 -22 -92 7 22 -10 69
-8 19 -8 -92 15 32 2 74
4 18 -13 -96 12 30 0 69
12 23 -34 -117 -4 13 -28 51
18 24 -29 -99 8 23 -7 61
16 22 -36 -99 3 21 -4 59
14 26 -44 -110 -9 15 -18 51
22 20 -31 -109 -5 18 -16 53
21 21 -18 -94 13 30 10 68
12 21 -44 -113 -4 21 -11 57
14 17 -40 -105 -9 18 -17 54
22 14 -44 -97 -4 17 -13 53
18 15 -45 -99 -2 18 -12 51
25 5 -56 -115 -18 5 -38 42
26 3 -49 -110 -3 15 -22 51
9 7 -40 -100 2 22 -12 57
4 8 -42 -106 -10 19 -19 53
-2 5 -45 -103 0 27 -14 57
-6 10 -30 -91 21 37 10 69
0 0 -44 -103 5 20 -16 54
8 3 -51 -112 -12 11 -28 46
4 6 -49 -107 -5 14 -22 42
-6 -2 -45 -103 -1 12 -22 41
-10 -9 -49 -120 -15 0 -46 27
-11 -1 -47 -119 -6 7 -33 36
-5 4 -56 -116 -14 5 -32 33
-6 -2 -53 -119 -16 3 -37 28
-12 -12 -51 -115 -12 6 -36 32
-10 -2 -39 -100 6 15 -15 43
-1 -3 -51 -116 -22 -1 -38 28
-5 -10 -43 -108 -21 1 -37 29
-9 -8 -39 -101 -8 9 -29 34
0 -4 -49 -110 -19 1 -36 25
-1 -15 -61 -118 -30 -7 -56 13
-9 -16 -43 -108 -12 7 -35 28
-3 -8 -34 -109 -18 4 -33 27
8 -7 -47 -115 -22 -2 -45 26
1 -13 -41 -106 -20 1 -46 27
-8 -8 -32 -95 -7 12 -26 33
-14 -6 -40 -105 -17 4 -43 22
-5 -9 -39 -108 -19 2 -48 21
2 -9 -39 -106 -12 7 -40 25
-1 3 -45 -111 -17 1 -43 21
2 -4 -51 -121 -38 -11 -64 0
0 -3 -29 -113 -16 3 -43 13
1 -5 -28 -107 -20 1 -42 12
2 -7 -39 -98 -24 -5 -49 5
-3 -9 -40 -81 -23 -2 -46 9
-6 -4 -41 -71 -5 6 -26 19
-10 -5 -37 -86 -13 -2 -41 9
-2 -7 -25 -84 -19 -4 -47 12
-1 -8 -28 -80 -13 1 -36 18
-7 -2 -37 -66 -2 4 -35 11
-8 -2 -25 -63 -16 -5 -59 -6
-5 -1 5 -27 10 8 -40 6
-10 -3 14 -9 33 21 -28 11
-1 -3 12 8 40 26 -29 4
6 -7 30 24 64 43 -18 11
3 -9 39 60 94 73 20 31
17 -13 30 83 95 83 19 28
34 -9 24 110 117 108 42 47
51 2 29 125 140 148 88 87
70 20 16 143 159 197 142 127
91 41 2 114 167 233 175 157
109 70 3 109 191 283 242 216
120 85 -3 87 196 300 283 253
127 71 -17 71 185 285 274 253
137 60 -29 67 164 262 251 241
126 62 -18 69 177 265 268 241
89 56 -14 24 151 238 238 215
60 57 -13 -22 121 206 209 196
36 54 -13 -73 78 161 175 173
6 36 -15 -126 13 88 114 123
-27 10 -22 -183 -68 -11 17 54
-50 7 -12 -204 -104 -79 -36 17
-68 23 10 -205 -129 -119 -78 -20
-73 26 17 -199 -125 -121 -92 -38
-80 31 21 -201 -117 -116 -98 -51
-76 29 18 -182 -102 -105 -79 -44
-75 17 3 -188 -121 -119 -99 -64
-76 5 -22 -177 -123 -115 -101 -70
-70 -1 -44 -167 -112 -104 -88 -61
-65 -6 -46 -155 -110 -96 -80 -55
-46 -9 -63 -162 -117 -104 -100 -69
-30 -2 -67 -122 -97 -81 -72 -53
-21 -2 -65 -85 -77 -68 -61 -41
-17 -2 -38 -57 -59 -55 -51 -34
-14 -6 -30 -32 -38 -44 -42 -28
-8 10 -27 -2 -16 -30 -19 -19
-2 9 -34 1 -20 -39 -34 -31
6 0 -24 3 -26 -38 -35 -33
-1 -6 -17 14 -12 -28 -23 -22
-15 -3 -16 25 -8 -25 -12 -22
-14 -10 -15 25 -24 -37 -34 -37
-12 -2 -10 35 -16 -28 -18 -26
-7 -6 -17 40 -15 -28 -14 -23
-3 -11 -20 44 -15 -33 -19 -27
-10 -8 -21 45 -16 -32 -15 -24
2 1 -17 64 0 -26 1 -19
10 -8 -13 53 -6 -37 -13 -33
10 -7 -11 50 -13 -37 -14 -29
-11 -5 -11 63 -3 -26 2 -14
-6 0 -18 66 1 -30 -1 -20
4 -5 -35 41 -18 -47 -26 -38
-1 -10 -22 54 1 -36 -9 -18
0 -8 -22 61 0 -38 -3 -20
-5 -10 -22 62 -16 -41 -11 -28
-4 -8 -23 60 -14 -41 -14 -33
2 -3 -13 74 4 -28 12 -20
7 -10 -4 67 -10 -44 -8 -36
10 -12 -6 69 -14 -45 -15 -36
3 -7 -8 73 -5 -41 -8 -30
0 -3 -12 72 -7 -43 -9 -31
-7 -12 -5 82 -21 -53 -29 -38
-6 -11 5 88 -10 -46 -14 -29
-2 -10 -4 88 -2 -44 -10 -27
9 -9 -9 74 -9 -52 -19 -32
15 -10 -12 81 -11 -52 -22 -37
6 -4 5 100 7 -37 7 -21
-4 -1 -5 97 -5 -46 -11 -38
-5 -7 10 98 -7 -44 -12 -38
-11 -8 11 117 8 -34 6 -27
-3 -7 6 120 10 -38 5 -29
3 -14 -2 109 -12 -49 -17 -42
10 -6 7 126 0 -39 6 -29
-1 -9 14 142 0 -36 14 -24
-4 -7 10 144 0 -42 7 -24
-4 -5 7 142 3 -41 7 -20
0 0 10 164 16 -31 29 -12
10 -2 2 152 1 -41 12 -20
12 -5 5 153 0 -42 9 -19
11 -2 5 154 11 -39 20 -17
5 -4 4 151 8 -37 25 -9
-4 -14 9 138 -3 -45 5 -19
-5 -8 17 162 15 -31 27 -8
9 1 12 158 11 -35 31 -3
14 -4 14 156 7 -43 20 -9
1 -7 12 158 8 -41 21 -14
-9 -5 18 184 31 -26 45 2
2 -4 12 173 9 -42 23 -14
5 -9 13 165 2 -42 20 -16
3 -10 14 164 10 -37 27 -9
6 -3 15 157 10 -39 28 -12
0 -2 21 139 -4 -50 7 -21
0 -5 29 159 14 -39 32 -6
-1 -3 24 165 19 -37 37 1
-2 -4 13 162 12 -46 25 -8
4 -2 8 152 3 -47 22 -16
6 4 12 163 22 -37 45 -5
21 2 1 149 6 -51 21 -23
25 -6 10 143 -2 -48 21 -20
18 -7 18 150 2 -45 27 -11
12 -10 22 159 9 -43 31 -12
1 -12 17 134 1 -49 11 -20
-5 -9 22 146 15 -34 33 -6
3 -8 31 159 17 -30 39 -2
8 -7 18 158 13 -34 34 -7
2 -6 19 159 7 -34 35 -10
6 3 28 172 23 -21 58 6
1 2 26 167 14 -31 40 -6
1 -3 23 161 16 -31 35 -11
23 -1 17 160 13 -33 36 -12
16 -1 18 166 15 -31 41 -8
9 -4 13 155 3 -42 21 -21
15 2 23 158 11 -29 45 -4
11 2 20 161 14 -26 46 -5
11 3 28 162 13 -28 39 -8
10 3 19 165 16 -25 43 -9
20 4 24 190 30 -14 67 5
22 1 22 181 20 -24 48 -10
18 1 17 182 12 -24 46 -11
18 6 23 182 21 -21 53 -5
4 10 21 189 28 -14 59 0
6 2 13 183 14 -25 36 -16
12 1 22 190 25 -14 55 -1
15 -1 20 189 26 -12 63 4
15 -1 16 196 22 -16 52 -4
19 2 17 198 21 -16 47 -7
24 9 22 210 38 -3 70 5
24 7 18 205 26 -14 53 -8
10 4 22 218 29 -8 58 0
8 5 21 231 38 -4 68 9
20 2 15 224 35 -4 66 4
25 -5 4 198 9 -21 40 -7
12 2 22 216 26 -5 63 11
16 8 37 232 32 -1 70 8
16 6 31 216 29 -8 59 -1
18 2 23 210 31 -8 57 1
13 8 23 233 43 7 83 16
8 6 11 228 33 -1 67 2
12 8 20 231 36 -1 64 5
17 9 20 241 39 3 72 10
21 11 14 227 39 5 76 12
12 3 15 215 29 -1 58 -1
20 10 13 225 32 2 69 7
25 12 16 232 47 2 72 8
24 10 25 234 41 0 65 7
26 5 25 231 34 0 60 6
24 16 26 248 59 13 85 22
22 11 29 234 43 4 66 5
23 7 29 234 36 4 61 3
24 12 37 246 41 9 70 10
23 16 33 252 44 10 74 11
25 12 24 238 26 -1 57 7
28 15 25 240 37 10 73 17
24 14 27 249 45 13 77 19
23 11 27 256 46 13 73 16
28 9 24 258 43 10 67 9
32 19 24 270 54 21 87 19
30 17 31 256 41 9 65 4
28 23 43 258 39 7 57 -1
32 29 22 251 43 11 63 4
39 22 22 264 40 12 68 7
29 13 24 243 34 5 50 -2
23 20 21 254 48 18 70 11
34 18 32 259 43 18 71 11
36 28 21 263 32 12 60 1
21 31 18 264 37 13 60 2
15 28 35 282 52 31 85 23
6 31 27 279 49 25 70 15
22 27 24 272 46 19 60 11
29 22 32 279 47 23 63 13
25 23 34 276 45 24 65 12
17 16 30 263 28 14 45 -1
16 22 47 283 44 27 69 16
20 27 59 293 51 30 70 20
22 23 54 292 43 25 60 12
26 20 45 279 39 24 56 11
41 26 55 279 53 33 78 26
37 25 52 277 50 26 62 19
25 27 49 286 52 30 61 21
15 19 59 279 52 36 71 29
20 24 60 279 51 34 74 26
21 23 52 266 26 21 45 8
21 31 54 274 35 27 53 17
18 34 55 273 45 30 60 20
16 24 51 280 52 30 54 18
22 23 53 271 40 26 45 13
26 35 63 288 52 35 69 24
20 27 60 272 46 27 52 13
12 24 57 264 50 27 45 13
17 23 58 276 42 28 47 17
20 18 60 267 45 29 50 17
1 14 67 249 34 22 32 7
10 18 56 250 36 27 45 14
21 16 47 256 33 24 44 10
9 13 56 250 35 23 39 6
5 10 56 239 34 20 36 5
15 20 63 254 41 31 56 16
12 18 55 243 29 20 35 2
3 13 49 236 27 22 32 11
8 14 45 233 31 23 35 7
12 11 47 230 32 19 36 -1
13 7 41 207 13 4 7 -19
12 13 58 211 28 8 19 -6
11 12 61 214 27 7 18 -12
27 5 54 211 15 -1 5 -23
25 1 42 193 16 -3 2 -25
10 8 52 215 31 12 27 -9
1 5 53 200 23 9 15 -15
-5 0 48 181 22 9 11 -13
-12 8 46 191 27 14 19 -12
-7 7 51 186 31 15 21 -12
5 -3 39 165 12 -1 -9 -30
7 0 46 174 21 7 5 -15
-4 -3 42 175 23 11 12 -13
-1 -7 33 163 19 3 0 -27
8 -6 35 156 19 0 -9 -29
8 2 48 167 36 14 13 -16
7 6 42 142 16 3 0 -32
10 13 35 135 11 1 -9 -36
2 8 36 137 22 6 -1 -30
2 8 39 135 19 7 4 -21
10 -8 43 121 7 -4 -21 -37
-1 -4 45 145 26 9 -2 -25
-4 1 41 149 24 11 4 -26
-11 -2 35 133 26 9 -3 -28
-12 -4 32 132 25 7 -8 -28
2 3 43 134 34 19 17 -16
9 2 29 119 20 6 -10 -38
6 5 25 114 14 3 -18 -39
11 9 27 120 14 4 -14 -39
18 12 26 111 18 6 -13 -36
12 -1 31 101 5 -1 -30 -45
1 -6 38 124 23 8 -12 -32
-3 0 47 123 22 11 -7 -28
-3 3 34 111 25 9 -13 -33
-4 3 39 114 27 6 -17 -34
1 11 30 122 35 16 2 -21
6 4 23 92 17 6 -15 -35
7 -1 27 83 10 4 -18 -38
-7 7 29 100 17 13 -9 -27
3 4 36 105 20 15 -7 -23
4 -5 19 78 7 6 -27 -35
-1 1 16 91 21 14 -11 -28
8 -1 16 101 19 15 -6 -30
16 -1 13 86 11 9 -15 -35
11 -7 12 87 12 9 -18 -31
10 4 28 98 31 20 5 -21
0 4 21 77 23 13 -11 -30
-4 1 10 70 18 9 -19 -34
-9 6 12 82 16 11 -17 -29
-4 8 18 83 20 13 -10 -25
-5 -7 25 62 13 6 -27 -36
6 -7 15 70 18 12 -10 -27
15 0 11 71 18 8 -13 -32
8 -1 9 66 23 7 -19 -31
2 -3 15 68 16 7 -22 -27
4 6 12 76 29 14 -4 -19
5 -3 12 57 21 7 -15 -27
1 -5 7 57 13 7 -16 -33
-3 0 5 59 16 10 -14 -28
9 6 6 61 15 9 -15 -26
8 0 -4 44 -1 -5 -40 -37
5 -1 5 49 8 3 -27 -30
8 4 6 49 10 1 -23 -33
12 1 2 47 2 -5 -32 -37
2 -5 4 50 14 0 -30 -24
-19 2 24 64 33 20 2 -4
-12 -3 7 53 15 9 -16 -23
8 -1 -5 38 1 -4 -33 -37
8 2 -5 35 1 -5 -31 -33
18 -2 -11 36 5 -1 -23 -30
12 -14 -7 27 -6 -8 -42 -42
3 -9 -5 43 10 0 -27 -32
-5 -2 1 42 8 4 -18 -26
-9 0 -7 28 0 0 -25 -31
-8 -7 -8 21 1 -1 -27 -31
-2 -3 7 39 16 11 -2 -14
-2 -5 1 29 9 1 -20 -22
-1 -7 -4 20 5 -3 -26 -25
-3 -2 7 23 18 2 -17 -20
-6 -2 5 23 15 6 -10 -15
-14 -6 -10 12 -2 -2 -30 -30
2 -2 -2 10 4 -2 -21 -28
19 1 -6 9 -4 -8 -24 -31
-2 -5 -7 14 3 -3 -23 -27
-9 -9 -5 16 5 -2 -19 -27
-2 0 0 29 14 7 -1 -15
-1 -5 -7 15 0 -4 -19 -29
-2 -8 -13 4 2 -5 -23 -34
-1 -4 -15 2 4 -4 -21 -27
2 -8 -7 7 9 -1 -14 -22
2 -11 -14 1 -3 -14 -36 -40
5 -5 -5 9 -1 -5 -22 -31
2 -7 -9 3 3 -6 -17 -31
-1 -10 -7 5 1 -8 -18 -34
-5 -8 -9 1 -4 -8 -26 -32
-2 -4 3 17 10 1 -6 -18
1 -5 -1 -8 -7 -10 -23 -34
7 -8 -17 -12 -8 -11 -29 -39
3 -8 -12 -7 -9 -7 -22 -33
8 -4 -11 -7 3 -5 -13 -28
1 -10 -11 -14 -16 -16 -37 -42
-7 1 -5 1 -3 -8 -20 -29
-3 3 -10 -6 3 -8 -16 -31
-6 -7 -19 -12 0 -7 -17 -28
-9 -9 -8 -11 -5 -6 -21 -29
-5 2 -2 5 2 0 -2 -17
-1 -7 -6 -9 -4 -10 -20 -25
-3 -11 -6 -10 -5 -10 -20 -25
-5 -12 -5 -13 1 -8 -17 -24
6 -11 -8 -13 5 -10 -17 -23
5 -18 -14 -28 -21 -20 -39 -40
3 -12 -11 -15 -7 -13 -25 -32
10 -3 -18 -20 -3 -14 -20 -28
4 -9 -12 -27 -12 -12 -18 -25
-2 -11 -11 -25 -14 -11 -21 -28
-6 -8 -10 2 8 5 6 -13
1 -8 -21 -14 -4 -10 -15 -28
7 -8 -25 -23 -17 -15 -23 -33
-1 -10 -16 -25 -7 -10 -17 -24
-6 -5 -9 -21 -4 -8 -11 -25
-18 -14 -2 -24 -12 -13 -25 -33
-15 -13 4 -17 1 -3 -6 -22
-5 -5 -11 -20 -6 -6 -7 -23
-5 -6 -4 -27 -7 -8 -13 -24
-12 -9 -12 -25 -10 -11 -19 -30
-1 -4 -5 -11 4 -3 0 -20
-2 -10 -7 -17 -8 -12 -15 -23
-2 -14 -8 -20 -6 -14 -19 -22
-1 -13 -11 -20 -1 -10 -13 -18
-6 -12 -9 -17 -7 -7 -5 -13
-4 -22 -17 -37 -25 -20 -29 -35
-5 -11 -7 -24 -11 -12 -13 -24
-6 -5 -6 -21 -7 -10 -9 -23
-2 0 -16 -31 -16 -15 -14 -26
-2 -7 -25 -28 -22 -19 -16 -27
1 -10 -9 -13 -5 -7 5 -18
0 -11 -9 -18 -16 -14 -7 -26
1 -10 -18 -26 -21 -16 -15 -23
-1 -7 -1 -22 -11 -13 -9 -13
-1 -4 0 -22 -7 -11 -3 -18
0 -13 -17 -41 -27 -27 -27 -33
2 -16 -11 -29 -17 -21 -15 -29
-1 -13 -6 -13 -8 -15 -8 -23
-7 -12 -8 -7 -7 -15 -9 -21
-22 -13 -5 -11 -13 -15 -11 -17
-27 -10 9 -4 7 0 16 -3
-4 -16 -3 -18 -5 -15 -2 -14
18 -15 -14 -30 -20 -23 -14 -23
8 -7 -5 -29 -23 -21 -11 -27
5 -7 -12 -13 -16 -17 -1 -25
5 -15 -22 -30 -28 -28 -23 -37
-1 -16 -9 -21 -11 -18 -6 -22
0 -11 -10 -17 -10 -15 1 -19
-6 -7 -4 -16 -17 -18 -5 -25
-11 -9 -7 -22 -20 -18 -8 -25
-16 -7 -3 -10 1 -5 16 -8
-13 -17 0 -12 -9 -13 3 -17
-11 -15 14 -13 -15 -14 -3 -19
-4 -17 6 -8 -10 -11 4 -16
5 -9 -3 -9 -14 -13 10 -18
5 -16 -14 -25 -24 -25 -15 -30
-16 -14 -2 -10 -11 -13 2 -13
-18 -14 5 -4 -7 -9 9 -12
-3 -9 -4 -17 -16 -19 -2 -21
-1 -13 -16 -28 -30 -25 -11 -25
-8 -2 -7 -5 -8 -12 15 -3
-3 -1 -10 -17 -15 -22 4 -18
-4 -11 -1 -15 -21 -24 -3 -20
-1 -15 0 -10 -19 -18 2 -20
2 -9 -1 -11 -16 -19 5 -22
-3 -17 -4 -28 -28 -29 -18 -30
-7 -19 -7 -17 -21 -22 -1 -17
-3 -16 1 -16 -26 -24 1 -20
0 -16 -11 -16 -27 -26 -3 -25
8 -21 -15 -20 -28 -30 -10 -26
3 -14 -1 -3 -14 -16 15 -6
3 -13 5 -13 -24 -23 4 -10
-7 -17 2 -16 -23 -23 5 -12
-16 -21 -2 -10 -11 -16 14 -11
-9 -10 -7 0 -10 -19 13 -8
-12 -13 -16 -20 -32 -30 -8 -22
-3 -9 -11 -16 -30 -22 6 -16
-1 -12 2 -13 -24 -17 15 -12
-4 -17 8 -12 -22 -18 15 -11
-1 -24 -5 -13 -29 -22 2 -12
-2 -19 -2 4 -13 -11 25 -1
-6 -16 -6 -9 -23 -21 11 -17
-12 -17 -8 -11 -24 -25 5 -19
-9 -12 -5 -11 -23 -23 7 -17
-13 -11 4 -2 -12 -16 20 -9
-15 -21 -4 -19 -25 -27 -2 -23
-7 -14 8 -15 -21 -20 11 -11
4 -11 3 -9 -14 -18 18 -8
4 -17 -6 -9 -21 -22 12 -12
-5 -19 -8 -16 -26 -24 6 -11
-15 -10 5 0 -11 -13 27 3
-11 -9 -7 -15 -23 -26 9 -13
0 -16 0 -18 -19 -25 4 -19
-4 -20 1 -15 -20 -21 10 -13
4 -6 -5 -10 -24 -26 9 -17
7 -6 -10 -25 -36 -40 -17 -33
5 -15 4 -16 -23 -29 -1 -19
-1 -18 20 -8 -20 -24 10 -15
-8 -16 14 -16 -25 -23 12 -12
-4 -19 4 -20 -30 -26 3 -14
-2 -8 9 0 -13 -16 22 -1
-5 -12 -2 -15 -30 -26 7 -14
-7 -17 -2 -21 -30 -24 4 -18
11 -21 7 -22 -29 -25 7 -14
15 -22 6 -18 -30 -23 8 -13
-5 -26 -3 -34 -39 -28 -9 -26
-21 -24 13 -21 -18 -12 12 -7
-14 -15 1 -11 -16 -12 17 0
-9 -10 8 -18 -19 -16 12 -4
-10 -11 13 -24 -23 -20 4 -10
-5 -4 4 -15 -11 -11 22 -1
4 -5 0 -22 -19 -22 9 -12
2 -12 -2 -23 -12 -22 2 -16
2 -9 1 -20 -5 -19 9 -11
1 -10 -4 -16 -12 -16 17 -7
-5 -20 -11 -34 -32 -28 -7 -18
-5 -17 -8 -30 -21 -19 5 0
-5 -5 -15 -33 -25 -21 8 -2
-8 -1 -13 -33 -28 -22 3 -16
-7 -13 1 -31 -28 -22 -1 -19
-8 -8 10 -15 -6 -9 25 0
2 -5 -15 -25 -17 -22 8 -11
3 -8 -6 -30 -23 -26 -1 -16
0 -12 2 -28 -17 -22 5 -12
8 -7 -1 -23 -18 -21 11 -10
5 -14 -3 -35 -38 -32 -14 -27
-16 -10 5 -25 -17 -16 6 -8
-16 -15 -2 -23 -12 -12 19 -7
1 -17 -3 -35 -26 -20 9 -13
2 -12 0 -35 -32 -24 -7 -19
2 -7 -3 -17 -17 -13 13 -12
-6 -7 -10 -23 -16 -17 5 -14
-9 -8 5 -23 -23 -17 3 -18
-11 -4 5 -22 -18 -20 0 -18
-6 -3 -7 -24 -20 -18 8 -11
3 -10 -12 -41 -32 -30 -13 -27
4 -11 -10 -33 -21 -22 2 -19
4 -5 -7 -22 -21 -20 7 -14
0 -6 -12 -24 -18 -21 1 -16
-2 -8 -12 -24 -23 -26 -8 -23
6 -8 2 -20 -8 -15 16 -10
12 -17 -9 -32 -29 -25 2 -20
-5 -16 -11 -39 -25 -18 2 -16
-16 -3 -5 -37 -24 -15 7 -9
-18 -3 -6 -26 -20 -11 17 -1
-12 -14 -6 -36 -32 -22 -6 -17
-10 -11 1 -32 -22 -14 12 -9
-6 -6 -5 -29 -20 -11 21 -5
6 -7 -17 -31 -22 -15 9 -12
0 -5 -17 -30 -25 -19 -2 -19
-1 0 0 -17 -5 -5 21 -1
2 4 -5 -32 -11 -12 12 -11
5 3 -6 -31 -13 -15 1 -15
8 8 -4 -22 -10 -11 8 -10
15 13 0 -18 -9 -11 13 -4
15 3 -9 -34 -28 -21 -8 -15
7 0 5 -21 -10 -4 13 -3
2 1 9 -12 -6 0 22 2
-5 -1 1 -10 -5 0 21 0
-3 2 1 -24 -11 -8 10 -9
0 13 15 -8 3 3 31 3
-3 19 10 -5 0 0 18 2
5 21 4 -13 -3 -4 11 0
17 23 -1 -19 -5 -3 14 1
14 20 6 -13 0 4 24 5
15 12 -8 -27 -18 -8 0 -12
9 22 -3 -19 -6 1 15 -1
14 22 3 -16 -2 -1 17 2
21 20 -8 -26 -9 -9 11 -4
25 19 -15 -38 -15 -11 3 -4
17 22 -10 -32 3 1 25 12
13 12 -12 -33 -8 -4 15 -3
8 8 -8 -28 -8 -5 12 -5
10 12 -9 -25 -5 -3 14 -2
18 11 -10 -22 -4 -1 21 1
14 -2 -16 -39 -20 -11 2 -14
7 3 -17 -37 -5 -2 13 -3
13 8 -16 -31 -2 2 18 0
11 8 -15 -31 -4 0 13 -5
5 6 -20 -32 4 -1 7 -8
3 12 -6 -12 13 10 29 6
3 3 -8 -16 8 -1 13 -6
12 -4 -8 -25 -1 -13 0 -15
11 -5 -10 -30 -10 -12 1 -14
4 -2 -11 -29 -9 -6 10 -8
3 -10 -20 -39 -26 -21 -14 -21
-8 -8 -4 -35 -15 -12 1 -14
-16 -5 -11 -29 -8 -6 8 -10
1 -10 -19 -39 -23 -17 -4 -19
10 -12 -28 -49 -32 -27 -14 -27
1 -4 -12 -25 -1 -12 10 -2
0 -11 -7 -29 -12 -17 1 -5
-3 -11 -15 -29 -23 -20 -6 -16
-3 -6 -13 -33 -23 -19 -3 -17
-5 -8 -12 -25 -20 -15 8 -12
-10 -14 -20 -32 -30 -23 -14 -24
-5 -13 -22 -35 -20 -16 -5 -15
3 -11 -20 -33 -23 -18 -2 -19
-11 -13 -15 -35 -18 -17 -2 -16
-5 -12 -25 -47 -28 -23 -17 -23
2 -10 -17 -34 -15 -12 5 -12
6 -6 -23 -39 -12 -21 -4 -23
11 -3 -24 -40 -23 -24 -13 -29
8 -9 -12 -31 -12 -17 -7 -21
10 -5 -18 -26 -16 -14 -1 -18
7 -10 -24 -52 -40 -29 -28 -34
-3 -14 -12 -47 -22 -15 -10 -18
-10 -13 -5 -35 -14 -10 -1 -8
-11 -10 -3 -35 -15 -15 -7 -18
-7 -15 -13 -43 -22 -20 -20 -22
-5 -11 -16 -25 -5 -7 5 -6
1 -5 -17 -32 -8 -14 -5 -13
0 -7 -24 -31 -23 -16 -12 -20
5 -4 -15 -21 -19 -19 -13 -24
4 -3 -1 -10 -4 -10 -2 -14
-6 -10 3 -19 -8 -13 -22 -23
-6 -6 15 -9 7 -3 -14 -21
7 -4 27 2 19 1 -9 -23
3 -6 30 20 27 3 -14 -32
-5 -16 36 55 50 19 -14 -36
-5 -23 50 105 90 56 27 -9
9 -31 59 115 93 67 33 -4
22 -30 61 136 102 92 52 11
41 -18 50 147 124 127 88 37
71 -10 44 154 156 175 144 88
83 14 26 139 173 221 188 130
97 52 10 129 200 280 261 195
110 79 1 109 209 306 304 241
108 73 -8 95 185 298 304 246
112 46 -5 76 164 277 279 225
106 44 18 73 183 288 301 240
84 33 26 46 168 274 283 222
54 33 29 2 137 247 252 198
28 33 34 -47 101 205 216 170
2 22 33 -91 43 135 163 124
-18 4 23 -160 -47 19 53 51
-38 1 25 -179 -102 -71 -20 1
-57 12 51 -182 -130 -127 -76 -45
-65 16 54 -180 -135 -136 -97 -62
-66 15 51 -196 -138 -134 -111 -74
-57 25 43 -189 -124 -124 -95 -74
-65 15 13 -200 -131 -122 -98 -78
-78 4 -13 -211 -129 -115 -93 -69
-74 4 -29 -195 -129 -109 -88 -62
-58 -1 -36 -168 -120 -100 -74 -53
-52 -13 -45 -169 -124 -103 -91 -67
-37 -7 -42 -151 -105 -85 -69 -52
-29 -10 -50 -120 -81 -64 -45 -38
-24 -11 -47 -90 -72 -50 -39 -30
-14 -7 -29 -72 -55 -40 -38 -27
-7 3 -23 -40 -32 -22 -10 -15
-26 4 -15 -34 -31 -21 -14 -20
-18 -7 -18 -32 -21 -20 -24 -25
10 -13 -20 -28 -23 -22 -26 -26
4 -10 -13 -9 -14 -12 -12 -17
-8 -13 -6 -21 -16 -17 -29 -24
-6 -14 9 -17 1 -8 -14 -12
-5 -7 5 -13 -8 -6 -9 -12
-7 -8 9 -16 -16 -11 -17 -19
-3 -14 -3 -19 -17 -11 -26 -26
-1 -8 -8 -2 4 3 2 -7
-11 -16 3 -2 0 -2 -8 -10
-8 -15 -2 -12 -4 -8 -20 -13
8 -5 -21 -20 -8 -13 -21 -16
6 -9 -10 -8 -2 -1 -4 -8
5 -22 -6 -22 -7 -8 -27 -21
-2 -20 9 -9 -3 0 -17 -14
2 -8 -2 -5 -6 -4 -13 -16
7 -10 -5 -11 -10 -10 -22 -20
5 -16 -5 -14 -15 -12 -29 -25
17 -7 -5 3 -1 0 -3 -16
21 -3 -6 -9 -10 -6 -15 -18
4 -8 -3 -8 -6 -3 -13 -13
-14 -7 6 -4 -2 2 -9 -2
-5 -7 -1 5 4 2 -5 -6
7 -13 -7 -1 -14 -13 -30 -20
4 -14 6 -2 -6 -3 -17 -9
9 -17 0 4 -2 -2 -15 -16
14 -14 -2 -1 -4 -6 -20 -22
8 -6 -10 -8 -18 -10 -29 -17
1 -5 -4 12 10 6 -5 1
-4 -14 -1 5 7 3 -12 -13
-12 -13 2 7 3 2 -18 -10
-14 -14 13 14 8 10 -8 -5
-2 -9 0 15 14 13 1 -2
7 -8 -3 -7 -7 -2 -25 -22
16 -14 -6 -3 -7 5 -15 -14
9 -15 -2 9 0 10 -5 -6
9 -17 2 8 4 7 -8 -11
7 -18 -6 -2 0 4 -17 -17
2 -8 -2 15 12 17 6 -2
4 -11 -1 9 4 10 -2 -7
5 -11 -1 2 -2 7 -12 -14
8 -16 5 11 15 12 -5 -7
10 -6 13 19 21 17 6 0
-2 -10 -1 4 -3 5 -18 -15
6 -10 -4 6 4 11 -10 -10
16 -14 0 8 11 12 -3 -8
14 -12 5 9 5 8 -10 -11
3 -16 11 6 6 4 -20 -15
-2 -13 12 27 17 16 0 -7
3 -14 1 20 9 8 -11 -17
4 -23 4 17 8 12 -10 -16
10 -15 -4 13 -1 13 -8 -13
15 0 -5 20 13 21 2 -8
3 -10 -2 7 2 12 -14 -19
13 -11 -6 11 14 14 -7 -11
9 -5 6 20 21 14 -4 -6
1 -8 10 24 10 11 -7 -6
6 -15 -2 20 7 7 -20 -14
12 -15 4 43 19 18 1 -4
17 -16 5 32 11 7 -11 -5
19 -12 4 14 9 4 -19 -9
2 -11 3 16 18 17 -3 -3
-12 -11 14 37 29 32 16 15
-5 -11 3 23 12 17 -8 0
12 -11 3 18 13 18 -4 -2
21 -7 3 22 15 20 3 1
7 -3 3 31 14 23 4 1
5 -10 -1 28 11 16 -10 -7
10 -12 5 47 37 27 11 4
11 -10 5 40 34 17 -2 -8
12 -2 -2 33 24 12 -14 -16
5 -2 5 40 22 22 -4 -7
7 3 24 47 32 33 11 -1
10 0 8 27 21 23 -12 -16
8 -1 7 28 23 25 -5 -9
10 -7 3 33 28 27 3 -1
13 -9 7 38 32 27 4 4
17 -13 6 36 29 24 -4 -2
22 -7 13 50 34 35 17 13
23 -7 8 46 25 30 10 7
9 -8 3 38 26 29 4 10
12 -4 9 46 29 28 1 5
9 -2 7 56 38 34 14 10
6 -9 6 45 25 24 -12 -6
15 -3 11 44 26 31 -2 1
18 1 1 42 32 34 4 3
14 2 10 47 31 32 0 -3
7 1 26 52 28 32 -6 -2
14 6 21 63 41 43 15 12
27 3 7 52 33 35 3 4
23 -2 11 54 34 32 -1 -1
8 -8 16 56 43 38 6 5
10 -8 27 65 54 46 17 21
14 -11 12 55 29 30 -10 2
12 -1 17 62 35 36 -5 -2
3 -4 25 70 52 45 9 8
-1 -11 25 69 50 45 9 10
8 -5 9 58 41 40 1 9
24 3 11 78 53 49 22 19
28 -1 -3 75 44 41 9 13
25 4 5 64 42 41 5 13
23 10 6 64 42 43 8 14
16 6 10 86 57 54 25 28
12 -3 13 78 46 44 2 15
22 4 28 76 47 45 4 12
27 4 27 80 47 43 7 11
23 0 12 80 48 41 9 11
20 2 8 81 47 39 -1 4
18 9 21 102 67 52 23 26
16 6 19 97 52 44 14 16
13 9 24 92 56 46 10 12
20 3 19 97 64 55 19 20
27 3 16 96 54 54 26 27
23 3 12 73 42 41 4 17
23 12 10 83 52 52 16 23
30 20 5 84 50 50 18 24
31 9 9 82 45 46 13 23
26 4 10 83 49 43 1 11
16 11 26 103 62 55 22 25
7 20 23 92 54 50 15 19
20 13 13 88 47 46 6 12
30 14 11 88 49 51 13 18
28 19 13 94 56 56 26 33
23 14 5 82 41 42 0 13
12 11 19 90 58 55 15 24
15 20 20 98 65 57 23 28
30 27 8 89 46 49 14 23
32 17 6 78 40 43 1 21
26 15 15 101 54 53 23 34
19 21 11 91 51 48 15 26
20 16 8 82 50 51 12 22
10 21 16 90 56 59 23 34
24 29 13 97 54 58 30 40
17 18 10 84 46 48 10 32
28 21 9 85 48 54 19 36
39 26 27 96 49 52 25 37
23 21 28 95 53 49 18 28
12 18 19 81 44 45 7 22
1 24 26 89 60 60 32 45
5 24 15 75 51 54 23 35
24 20 8 75 47 55 18 31
28 23 10 79 48 58 22 34
25 28 13 86 59 67 40 45
18 19 5 66 41 56 20 30
15 28 10 68 57 60 25 37
21 36 1 69 55 55 24 36
23 38 1 65 46 48 18 28
16 25 13 64 42 50 12 29
16 24 22 81 58 65 37 45
16 21 6 65 45 51 21 34
18 19 4 55 36 45 9 28
10 15 13 60 36 51 14 29
7 15 16 63 50 56 27 32
2 17 4 47 38 44 2 19
-2 21 6 51 40 53 11 26
10 18 17 50 42 52 19 29
18 15 12 48 40 44 11 23
19 6 10 39 33 34 0 13
20 7 9 56 45 44 19 27
8 7 9 59 45 42 11 25
7 5 9 52 37 40 5 21
12 5 10 48 34 40 5 22
11 12 14 53 36 43 14 23
11 9 4 38 18 27 -14 6
5 7 11 32 22 33 -6 12
-10 10 25 31 33 38 4 21
-17 14 27 32 29 34 -2 19
-4 2 5 35 25 26 -13 7
-2 7 6 48 34 36 5 19
8 6 4 48 23 31 -3 13
25 8 1 36 21 26 -13 8
16 15 -1 33 24 28 -8 9
-1 19 16 41 34 33 4 18
-9 4 11 31 14 19 -24 4
-1 3 6 38 22 23 -21 9
-1 4 8 38 25 27 -10 10
1 0 8 45 23 25 -11 10
6 -4 5 41 16 20 -23 2
9 8 18 56 37 30 -3 15
4 9 16 51 31 23 -11 11
2 7 12 50 22 24 -15 10
-3 6 11 49 23 26 -10 16
-5 0 17 54 39 32 3 17
-3 -2 6 39 20 19 -23 0
6 4 2 38 23 23 -22 3
5 6 3 38 31 28 -10 6
-1 1 -1 41 27 29 -9 6
5 3 -5 36 11 18 -26 -2
0 17 3 50 25 29 -7 11
-10 10 -2 49 32 28 -9 11
-7 6 1 50 32 27 -13 9
0 2 5 49 28 28 -13 8
-3 3 14 61 38 33 2 18
-3 3 8 42 22 21 -23 5
1 3 8 43 16 29 -16 7
8 9 10 49 25 32 -8 9
2 10 10 49 22 29 -11 8
-12 3 6 47 18 26 -24 7
0 9 21 61 37 38 -3 23
21 7 11 50 27 25 -15 5
16 2 -4 46 20 24 -19 -1
14 6 3 55 15 30 -14 9
14 9 21 64 26 30 -4 16
7 1 17 54 20 15 -31 0
-4 -3 23 50 36 24 -18 11
-9 8 15 49 33 31 -3 20
-8 11 13 53 30 33 -8 18
-2 7 4 44 26 25 -22 7
0 8 8 63 41 36 -1 24
0 10 2 56 27 28 -11 13
2 9 6 44 13 22 -24 3
10 17 2 44 15 23 -22 5
8 14 5 54 26 28 -9 14
1 -3 4 47 21 22 -25 11
-7 4 4 61 34 35 -9 27
-9 11 16 67 38 41 2 30
7 10 8 52 24 32 -8 15
8 7 -1 38 9 26 -22 4
-1 5 5 58 30 36 -2 19
4 4 5 51 28 25 -15 12
6 4 6 48 21 22 -23 7
-5 7 12 48 30 23 -19 14
-13 13 5 58 33 30 -5 27
2 9 -4 47 11 16 -30 8
8 6 -1 46 12 20 -25 7
11 6 5 53 21 25 -13 16
5 10 6 58 18 23 -15 14
1 7 2 44 4 19 -26 5
-2 13 5 52 20 34 -4 21
-5 11 4 55 24 26 -11 21
0 -3 7 55 15 21 -22 13
1 -6 9 56 10 19 -24 8
7 0 2 59 11 20 -19 11
5 -1 -4 42 9 12 -37 1
-6 -2 6 53 25 22 -24 10
-3 3 6 53 17 21 -14 12
14 12 -5 50 4 8 -30 -1
5 16 4 44 -3 3 -44 -8
0 13 21 62 15 23 -15 16
-3 5 13 64 12 19 -21 10
-3 11 -1 54 13 13 -32 3
-5 10 0 51 13 18 -24 13
0 6 1 57 15 24 -12 21
6 -1 2 49 -2 11 -33 7
7 7 5 48 3 12 -29 5
9 10 1 54 16 12 -23 4
3 7 -6 52 13 14 -27 7
-9 -1 -3 38 4 12 -37 6
-9 7 5 54 19 26 -15 17
0 3 -4 54 14 17 -19 8
1 -6 -4 54 8 8 -35 4
-8 -4 4 59 10 11 -34 6
-5 0 4 65 18 17 -21 14
-9 -8 -2 49 5 9 -40 2
-4 -18 4 55 9 18 -28 10
-5 -12 6 51 17 19 -17 13
-6 -2 -2 45 5 15 -25 8
-1 -5 -12 39 -6 11 -38 2
2 3 0 53 10 18 -20 14
1 6 5 53 5 8 -28 4
-9 0 2 61 1 7 -39 -1
-2 2 -10 54 6 10 -37 0
10 8 -2 54 11 14 -23 6
-5 -1 -2 45 -2 3 -47 -6
-8 -4 -2 51 7 6 -38 1
-5 3 3 50 1 8 -33 3
-3 -2 -3 41 -5 7 -37 -3
-11 -1 -1 40 -8 4 -46 -8
-12 0 -2 59 17 18 -23 5
-8 -5 -10 48 11 10 -34 -2
-7 -2 -2 50 -1 5 -41 -4
-9 -2 1 54 2 10 -34 5
0 -3 -1 54 14 15 -23 12
7 -4 -4 46 -6 1 -46 -9
10 1 0 44 -2 0 -41 -5
8 8 -3 49 6 3 -33 1
6 5 -9 43 3 0 -38 -3
-3 -4 -13 31 -12 -5 -48 -8
-13 -1 -5 51 2 11 -22 9
-10 3 0 62 2 7 -30 3
-2 1 -5 59 8 3 -39 0
-9 -1 -2 61 12 8 -34 2
-13 3 1 62 11 12 -22 7
-14 -5 -2 48 -5 2 -40 -5
-7 4 -7 43 -4 1 -41 -1
-3 -2 -4 47 5 6 -30 3
-12 -4 3 45 8 7 -28 9
-10 -7 -5 39 -1 -2 -43 1
0 2 -2 49 9 4 -29 6
3 10 -8 44 12 -1 -37 -11
4 5 -1 43 -5 -8 -46 -16
4 -7 -6 45 -8 -4 -41 -10
-4 -4 -4 42 0 3 -27 1
-4 -3 -9 30 -17 -11 -49 -10
-1 5 -6 36 -4 -1 -36 5
-2 4 2 38 4 3 -25 3
-7 1 7 35 -3 0 -30 -1
-6 -11 -6 30 -11 -2 -40 -7
-9 -1 -9 39 3 4 -25 1
-2 3 -7 43 -4 -2 -32 -9
6 -2 -7 36 -14 -8 -42 -18
-6 -5 -12 29 -9 -4 -38 -8
-8 -4 -3 39 -3 3 -22 5
-12 -16 -1 23 -12 -8 -39 -6
-11 -5 -5 24 -8 -4 -31 -5
-12 8 -8 31 -6 0 -23 -3
-5 3 -12 29 -9 -4 -29 -3
-4 -3 -16 20 -13 -12 -45 -16
-6 5 -5 32 -1 -4 -26 -7
-2 1 -8 23 -3 -9 -32 -11
-12 -6 -9 22 -4 -4 -32 -11
-22 -7 1 27 3 4 -21 1
-11 0 -3 32 1 3 -17 2
2 -6 -15 9 -20 -15 -46 -17
-1 -5 -13 10 -11 -9 -37 -8
0 -3 2 21 -5 -2 -24 -1
1 -2 -7 21 -12 -4 -27 -3
3 -6 -20 8 -15 -11 -40 -11
-6 1 -13 24 8 2 -15 5
-5 1 -9 17 -8 -4 -22 -1
-8 2 -14 8 -18 -9 -34 -9
-2 3 -15 8 -17 -13 -37 -18
12 1 0 19 -10 -8 -25 -10
-1 -5 -9 12 -18 -13 -39 -15
-14 -5 -3 8 -5 -7 -33 -9
-23 -5 2 9 0 -3 -23 1
-18 -7 -3 13 -5 -6 -26 -3
-10 -10 -2 -3 -14 -11 -35 -6
-9 4 -2 9 -4 0 -13 5
-9 5 -8 5 -8 -2 -18 -3
-5 2 -7 8 -11 -11 -30 -14
-1 2 -7 8 -14 -14 -33 -13
4 4 -11 7 -10 -10 -25 -5
0 -7 -11 -12 -19 -16 -41 -16
-5 -7 -11 -2 -9 -7 -32 -3
-7 -10 -9 4 -10 -8 -23 0
-5 -9 -14 1 -12 -11 -29 -7
-11 -11 -13 -8 -19 -11 -35 -12
-7 -5 5 8 -5 -1 -15 0
-3 -1 0 6 -7 -11 -24 -7
-15 -4 -6 -5 -17 -13 -28 -13
-18 -5 -4 -10 -12 -6 -19 -2
-3 6 -11 -6 -8 -3 -12 -1
5 4 -25 -18 -28 -21 -35 -22
-1 0 -13 -10 -21 -14 -25 -14
-14 -5 0 -4 -5 -7 -18 -1
-22 1 -2 -9 -2 -11 -24 -7
-12 -5 -16 -17 -18 -17 -36 -14
-13 0 -7 -5 -4 -4 -10 0
-8 4 -9 1 -12 -7 -16 -4
0 1 -9 -13 -20 -14 -26 -11
-2 -8 -14 -15 -21 -14 -25 -13
-5 -3 -9 -3 -11 -7 -13 -4
-6 -7 -13 -17 -20 -19 -32 -15
-4 -12 -11 -18 -21 -15 -30 -11
-2 -10 -11 -5 -14 -12 -20 -2
-11 -4 -6 -6 -14 -14 -24 -12
-12 -4 -11 -18 -23 -17 -33 -17
-6 1 -8 -6 1 -7 -13 -4
-15 1 -10 -6 -9 -11 -17 -4
-11 -6 -13 -15 -23 -16 -28 -11
-9 0 -8 -22 -23 -15 -25 -9
-13 8 -2 -16 -12 -10 -11 0
-14 0 -8 -28 -21 -18 -27 -5
-1 -4 -16 -31 -16 -16 -27 -10
5 6 -16 -25 -15 -14 -19 -1
-5 0 -8 -19 -18 -16 -20 -2
-13 -6 -8 -25 -32 -24 -34 -18
-10 8 -1 -18 -22 -17 -18 -7
-7 5 -7 -16 -17 -19 -21 -10
-7 2 -7 -23 -18 -23 -31 -18
-8 0 -9 -27 -24 -21 -28 -14
-7 2 0 -19 -11 -12 -11 -7
-5 -3 -1 -25 -27 -20 -30 -16
-9 -9 -4 -16 -17 -15 -24 -13
-2 -4 -10 -19 -11 -16 -19 -12
1 -4 -6 -28 -18 -19 -21 -8
-8 -2 -12 -34 -25 -23 -29 -13
-14 7 -3 -23 -14 -14 -7 -3
-9 5 -14 -25 -21 -18 -14 -11
-7 -1 2 -32 -30 -20 -23 -17
-5 -3 3 -29 -26 -19 -18 -14
0 2 2 -22 -18 -15 -9 -8
-6 0 2 -24 -24 -26 -29 -18
-10 0 1 -21 -21 -20 -23 -8
-12 5 5 -21 -12 -18 -14 -10
-10 -1 6 -21 -20 -18 -13 -12
-11 -4 -10 -28 -28 -24 -24 -17
-6 -3 -2 -22 -11 -14 -3 -3
7 1 -9 -31 -21 -22 -12 -12
8 0 -5 -39 -29 -26 -25 -17
7 2 0 -33 -20 -23 -21 -15
-3 15 0 -16 -10 -10 -3 -1
-9 9 8 -27 -17 -17 -16 -12
-18 11 9 -23 -2 -12 -13 -7
-11 24 5 -12 -4 -14 -10 -4
-4 18 7 -19 -8 -17 -15 -6
-5 11 0 -26 -18 -19 -24 -13
-4 24 11 -5 -5 -8 -2 1
10 22 7 -15 -14 -15 -8 -4
16 16 -4 -30 -15 -20 -18 -10
8 19 -5 -28 -17 -17 -15 -7
-5 24 10 -11 -2 -7 1 6
-13 17 9 -23 -7 -13 -12 -5
-8 23 1 -22 -7 -11 -13 -4
3 29 3 -22 -6 -3 -2 9
-1 24 16 -21 2 -2 -2 13
1 26 10 -28 -14 -9 -15 1
-1 34 15 -11 1 4 11 14
-4 38 4 -19 -3 -3 4 10
-3 34 -6 -34 -15 -12 -12 -1
2 30 -1 -32 -18 -15 -13 0
8 33 4 -31 -6 -13 -3 7
9 27 -6 -47 -20 -23 -21 -5
-5 20 -8 -43 -17 -17 -15 0
-7 19 3 -30 -15 -12 -4 9
4 17 7 -34 -15 -12 -6 9
9 16 -6 -41 -30 -20 -21 -6
8 17 0 -30 -16 -8 0 12
6 23 -6 -28 -19 -13 -3 4
2 23 -8 -32 -26 -19 -14 -1
7 22 -14 -31 -22 -19 -11 4
-3 23 -1 -24 -4 -8 6 13
-12 12 -3 -32 -13 -16 -14 -1
-12 10 0 -31 -16 -17 -14 0
-2 6 -5 -30 -19 -21 -12 -5
2 5 2 -35 -29 -27 -17 -9
-10 -1 -6 -44 -37 -35 -31 -17
-6 -3 -5 -40 -27 -32 -20 -10
4 1 -6 -44 -33 -39 -28 -16
-14 -3 -8 -43 -36 -37 -31 -16
-21 -4 -4 -46 -41 -33 -26 -14
-4 6 0 -42 -34 -31 -18 -11
4 -3 -16 -62 -51 -49 -41 -28
-6 -3 -6 -57 -40 -43 -36 -25
-14 -4 -2 -40 -34 -35 -23 -12
-9 -3 -10 -47 -36 -40 -31 -19
-8 -1 -11 -55 -39 -47 -40 -30
-7 4 -6 -49 -24 -36 -20 -13
5 1 -13 -59 -40 -44 -30 -21
-6 -5 -7 -57 -47 -45 -36 -21
-17 -8 7 -50 -37 -39 -30 -16
-12 2 4 -45 -35 -35 -19 -9
-13 -4 -5 -47 -46 -42 -34 -17
-16 -6 -4 -54 -39 -41 -34 -14
-20 -1 6 -43 -33 -35 -21 -9
-16 1 -1 -45 -33 -38 -22 -13
-11 -7 -4 -60 -48 -46 -40 -23
-11 3 4 -50 -36 -37 -22 -13
-6 -1 7 -50 -42 -42 -29 -22
-17 -6 0 -53 -41 -39 -32 -23
-19 -9 8 -53 -29 -38 -28 -16
-14 -1 14 -45 -26 -33 -13 -9
-15 -2 -1 -56 -40 -41 -33 -22
-9 -4 -14 -56 -44 -43 -35 -24
-7 2 -7 -47 -26 -38 -26 -17
-11 7 8 -40 -21 -34 -23 -14
-6 2 6 -42 -32 -40 -39 -20
-11 4 28 -16 -11 -25 -19 -12
-16 9 35 -1 0 -23 -17 -16
-11 9 43 8 15 -18 -23 -22
-12 -8 68 46 45 8 -8 -10
-9 -11 82 85 73 32 15 5
7 -5 78 89 73 36 7 1
17 -5 75 111 104 72 38 23
32 3 81 141 136 115 85 54
54 13 73 148 156 160 130 93
70 34 44 134 161 203 170 133
86 65 38 116 187 259 241 193
94 89 37 85 186 280 276 233
100 90 24 56 166 277 280 243
93 64 24 47 159 265 273 235
72 56 32 36 164 272 289 241
62 45 34 -16 133 247 254 211
29 41 42 -64 108 223 233 198
-6 38 40 -112 63 180 203 175
-12 23 15 -165 -8 107 143 122
-27 6 4 -207 -87 4 51 54
-49 -1 11 -227 -142 -91 -21 5
-64 10 28 -241 -194 -167 -90 -42
-68 18 26 -247 -200 -185 -122 -69
-74 25 18 -249 -185 -175 -121 -74
-84 36 10 -251 -178 -160 -105 -63
-80 27 -20 -262 -193 -171 -128 -82
-75 22 -37 -250 -181 -162 -124 -86
-74 16 -43 -220 -173 -147 -104 -75
-66 7 -44 -206 -164 -140 -99 -72
-50 1 -54 -204 -161 -138 -108 -74
-40 14 -47 -171 -141 -116 -80 -55
-35 13 -45 -152 -118 -98 -66 -39
-25 13 -40 -124 -94 -82 -60 -37
-24 12 -30 -91 -74 -63 -44 -27
-33 9 -7 -60 -48 -44 -22 -10
-29 3 -6 -55 -46 -50 -37 -21
-19 7 -12 -51 -45 -50 -40 -23
-11 3 -1 -43 -37 -41 -27 -13
-17 4 3 -35 -33 -38 -26 -12
-19 -4 -3 -40 -41 -46 -42 -26
-13 0 13 -28 -24 -36 -24 -15
-7 1 14 -29 -23 -39 -26 -21
5 4 -2 -33 -42 -47 -39 -30
3 5 1 -23 -34 -42 -36 -28
-5 4 4 -16 -17 -32 -16 -12
-12 -3 3 -30 -27 -38 -34 -21
-8 -9 4 -25 -24 -34 -31 -18
-4 -2 5 -21 -23 -36 -24 -6
4 -2 -2 -28 -27 -38 -30 -16
-13 -10 5 -30 -33 -39 -38 -23
-27 -5 28 -18 -12 -22 -13 -7
-17 -4 11 -18 -23 -27 -18 -10
-8 -8 4 -18 -31 -29 -27 -15
-7 -6 7 -14 -25 -27 -23 -13
-7 -8 20 -6 -16 -23 -11 -11
1 -8 5 -24 -32 -38 -33 -26
2 -7 -1 -15 -26 -32 -29 -18
-2 -2 1 -11 -20 -28 -17 -12
0 -4 9 -15 -27 -31 -18 -16
-4 -10 5 -21 -32 -38 -33 -20
-6 2 10 -3 -11 -31 -20 -8
-4 4 8 1 -16 -34 -24 -8
-8 -5 5 -11 -20 -34 -29 -13
-4 -8 15 -8 -15 -30 -23 -9
-6 -2 22 2 -4 -20 -10 -2
-12 -5 9 -10 -20 -31 -29 -18
-12 -3 8 -5 -13 -28 -28 -16
-16 -5 12 0 0 -19 -12 -5
-8 -3 12 -17 -6 -24 -20 -12
-7 -6 5 -23 -23 -33 -34 -19
-10 -8 17 -2 -6 -19 -11 -3
-7 -7 21 1 -3 -22 -12 -9
-6 -9 16 -5 -12 -27 -23 -15
-4 -10 5 1 -9 -27 -24 -10
4 -3 5 20 -4 -24 -13 -9
3 -11 6 7 -11 -30 -27 -18
-3 -11 20 6 -2 -25 -25 -10
3 0 11 4 -7 -22 -14 -8
6 5 3 -4 -10 -27 -20 -19
-13 -6 12 -5 -15 -24 -26 -20
-32 -3 23 20 7 -5 4 5
-26 -7 15 20 2 -13 -3 0
-1 -15 5 10 -9 -25 -20 -17
2 -10 7 6 -9 -23 -12 -15
1 -9 24 9 0 -17 -4 -8
1 -13 12 1 -8 -27 -22 -20
-3 -15 13 9 0 -21 -14 -13
-8 -8 18 19 8 -14 -3 -7
-5 -1 22 22 0 -16 -6 -10
-1 -6 13 11 -9 -26 -22 -17
2 -2 12 22 6 -17 -5 -5
8 1 11 19 -1 -21 -8 -15
2 -9 27 11 -10 -22 -13 -16
8 -7 14 10 -8 -21 -12 -12
12 -2 5 24 1 -15 1 -3
5 -4 2 13 -12 -24 -16 -12
-4 -4 11 9 -8 -17 -8 -5
-14 0 19 19 3 -8 4 3
-14 2 20 18 3 -10 -1 1
-5 -7 10 13 0 -18 -14 -9
4 -9 15 22 7 -8 4 0
11 0 10 28 1 -14 1 -7
-2 -1 10 27 1 -14 -7 -6
-8 -3 15 27 2 -12 -4 -1
2 1 13 40 8 -7 7 2
-7 -5 15 23 -3 -18 -12 -10
-12 -9 17 21 5 -8 -7 -1
4 -4 11 22 9 -6 4 4
8 -3 15 17 -1 -13 -5 -4
11 -3 12 11 -4 -18 -17 -9
9 1 11 31 5 -7 0 3
-2 5 15 35 5 -8 2 4
-2 0 19 33 5 -9 -6 1
4 -3 24 34 11 -7 -2 -3
9 -3 23 43 16 -1 10 1
-3 -2 22 35 6 -8 -5 -8
-20 -1 30 38 19 3 3 6
-6 8 15 37 26 4 10 7
4 5 9 39 19 -3 5 -3
-1 1 14 33 10 -6 -9 -7
6 4 18 43 24 3 9 5
12 2 17 48 25 -2 5 0
11 1 17 42 17 -4 -4 -3
12 4 14 49 20 -3 -2 -4
9 5 14 55 26 4 14 8
9 3 16 42 16 -4 -4 0
12 5 14 46 16 -1 -1 5
15 6 14 61 27 4 12 8
-2 -4 32 66 36 8 14 11
-9 -11 29 54 32 2 -1 2
8 -1 23 58 35 7 12 6
12 15 20 50 23 4 9 3
11 8 16 43 24 5 2 3
17 11 19 47 33 6 7 5
12 20 20 61 40 12 20 11
11 12 15 53 26 3 3 3
9 9 20 60 28 12 10 12
7 13 24 69 38 16 23 17
9 11 26 66 32 12 18 13
7 13 19 62 19 2 7 5
13 9 34 77 35 15 27 22
19 8 36 76 33 14 23 22
15 4 23 66 28 10 12 12
12 6 23 63 35 12 15 14
12 13 30 73 53 20 26 23
16 13 27 62 34 6 4 8
15 15 29 65 33 11 8 14
8 16 25 76 40 21 25 23
15 16 20 74 35 18 20 23
16 12 21 70 30 9 5 13
6 18 29 77 46 22 25 22
9 23 31 71 41 17 22 21
10 19 31 67 32 12 11 10
7 21 33 71 37 14 13 12
9 22 30 80 47 21 28 22
13 16 18 67 30 11 8 14
13 17 22 68 31 14 10 17
17 28 28 77 37 20 24 26
17 24 25 73 38 19 23 27
12 15 28 76 36 18 14 20
18 20 40 86 47 27 34 30
20 23 33 81 45 23 32 27
26 23 27 70 37 16 18 19
27 29 18 77 35 17 18 19
19 30 23 84 53 23 32 29
10 24 19 69 35 14 15 18
14 21 29 71 35 18 20 20
18 34 32 78 44 22 31 28
6 32 26 74 42 23 29 32
8 25 24 61 25 17 16 23
14 28 28 76 35 28 35 34
16 36 27 75 35 23 32 30
19 33 22 63 27 15 19 25
27 32 15 58 27 15 20 30
36 32 25 64 37 20 31 34
30 27 22 53 34 16 18 21
11 30 19 55 40 25 26 30
3 37 33 60 42 29 37 36
6 36 25 56 39 25 31 32
6 29 20 41 24 18 18 23
3 28 32 59 35 32 40 44
8 28 25 55 41 30 41 40
22 23 15 36 28 20 26 29
19 21 24 39 34 22 28 33
7 26 36 51 47 30 42 38
1 23 17 36 28 18 21 29
-1 20 17 35 31 21 22 26
-8 24 19 41 28 25 32 34
-6 26 15 39 22 18 24 29
1 19 22 30 16 9 10 22
8 18 22 36 26 17 26 27
8 17 22 35 29 14 24 23
7 14 17 19 12 6 12 17
4 18 18 10 12 6 12 18
0 19 22 31 30 19 31 26
-6 15 15 22 12 9 16 18
-4 11 12 15 10 7 11 14
7 18 7 12 14 7 16 15
2 19 8 7 15 1 10 8
1 5 10 2 0 -5 -3 4
6 6 15 16 10 2 14 10
10 19 8 14 3 -7 8 1
10 17 3 2 -6 -13 -2 -3
4 10 13 5 1 -8 4 2
-13 15 18 19 17 2 20 16
-18 15 21 5 9 -5 5 4
-9 13 13 6 8 -7 1 4
0 9 10 13 15 -4 11 10
-3 6 17 5 3 -7 6 6
-2 3 12 -4 -8 -13 -7 -5
-7 11 17 8 9 -2 10 10
-7 9 16 9 4 -6 11 7
-9 1 9 -3 -4 -12 -3 0
-11 0 12 -1 4 -11 -4 6
-6 7 14 9 19 -6 8 5
-4 4 13 8 1 -16 -8 -4
-1 4 13 5 -5 -14 -9 -3
-1 3 20 4 -2 -9 3 2
4 -2 18 1 0 -10 -1 3
6 -1 5 -11 -2 -20 -18 -12
3 2 8 10 11 -9 0 0
-9 5 15 12 6 -7 4 1
-22 1 17 -4 -1 -9 -5 0
-28 3 26 -1 7 -5 -1 4
-11 5 18 7 11 -1 10 9
7 1 5 -5 -3 -13 -10 -3
2 -2 10 -3 1 -9 -7 -1
-9 5 14 8 9 -3 6 6
-5 12 11 4 4 -6 0 -1
-6 8 16 4 -4 -12 -10 -9
-9 7 22 20 11 -2 11 7
-4 4 23 20 12 -2 9 7
-3 -1 13 15 10 -6 1 -2
-3 1 10 2 10 -6 -1 0
-4 9 21 1 15 1 12 11
1 4 14 -7 -1 -11 -5 -2
4 -2 6 -7 -3 -8 -8 -5
2 -1 10 7 6 0 7 4
-7 5 9 10 7 1 6 6
-7 8 9 6 9 -3 -4 0
-17 15 22 17 20 8 18 15
-13 17 19 17 14 2 15 11
-1 5 12 9 5 -5 -1 1
-5 7 9 1 2 -3 5 0
4 11 19 10 9 2 16 6
10 6 5 5 -2 -8 -3 -4
0 5 6 -4 0 -3 -2 0
-4 9 5 2 13 2 11 9
-3 1 1 5 20 2 8 7
-6 -4 4 -2 8 -3 -4 2
0 4 18 6 13 5 13 10
4 10 8 7 19 2 13 10
10 8 0 2 0 -7 -2 2
0 6 10 4 2 -7 -2 -2
-11 12 22 7 13 1 12 7
-9 5 10 2 2 -5 -2 2
-8 4 8 13 2 -4 -2 3
-5 7 9 7 7 -2 5 9
-2 2 12 -1 3 -4 1 5
-3 1 5 -13 -7 -12 -14 -5
-6 2 21 -1 16 1 8 9
-3 8 13 -3 15 -3 9 4
-1 7 -1 -2 0 -9 -6 -2
-4 2 7 4 -1 -6 -1 2
-7 -1 18 15 16 3 19 13
-4 2 16 5 11 -7 1 -1
-1 5 4 3 3 -7 -5 -1
-5 0 15 1 8 -2 5 5
-3 1 20 -7 3 -6 1 2
7 -2 14 -19 -8 -16 -14 -11
10 1 7 -9 -2 -6 4 -1
7 8 5 -5 -3 -9 5 -3
2 1 2 0 1 -13 -7 -8
-4 5 7 1 8 -9 -3 -2
-9 13 11 9 8 -1 11 7
-8 3 3 1 -8 -15 -9 -8
-12 1 5 2 6 -13 -9 -6
-20 -1 18 17 11 -3 8 6
-3 -1 17 0 2 -11 -2 3
5 -3 3 -17 -15 -21 -18 -10
-2 0 8 -15 -6 -10 -1 -2
-3 2 7 -14 3 -10 0 -3
-1 -5 -5 -19 -6 -13 -9 -8
-7 -5 2 -11 -9 -10 -5 -2
-13 3 13 3 5 0 15 8
-17 -4 7 -3 6 -8 1 2
-10 -2 7 -9 -5 -10 -8 -1
5 4 10 -13 -10 -12 0 -2
13 -1 -11 -17 -18 -20 -10 -12
-4 -9 -3 -20 -18 -18 -17 -11
-9 4 -8 -18 -4 -9 2 3
-5 3 -6 -14 0 -11 3 0
-10 -4 -4 -8 -7 -15 -10 -8
-8 0 -7 -12 -7 -15 -11 -6
-3 4 1 -13 -6 -10 3 3
-10 -5 -2 -15 -3 -13 -5 -3
-16 -8 -9 -18 1 -12 -9 -3
-4 1 -7 -11 -6 -6 1 0
3 1 -8 -12 -10 -10 0 -4
-12 -5 -2 -12 -11 -18 -13 -6
-8 2 4 2 -1 -10 0 1
-3 1 2 -8 -7 -13 -2 -3
0 -3 -6 -21 -17 -21 -17 -15
0 -2 -5 -16 -12 -16 -12 -11
2 7 1 -10 -4 -10 2 -5
2 4 -1 -20 -14 -20 -16 -14
-2 -4 -8 -22 -13 -18 -15 -12
-8 -11 -2 -18 -5 -9 -1 -3
-6 -9 -6 -17 -7 -12 -3 -7
-1 -2 -18 -30 -17 -24 -22 -21
-6 -5 -1 -12 -10 -11 -2 -6
5 -10 4 -9 0 -12 3 -5
4 -10 -9 -17 -11 -19 -11 -15
-4 -9 -8 -11 -7 -14 -8 -7
-20 -2 2 3 2 -3 10 3
-30 -5 0 -12 -7 -12 -4 -3
-19 -8 8 -15 -13 -14 -10 -3
-7 0 5 -9 -6 -14 -4 -5
3 2 -13 -14 -10 -21 -14 -11
4 -6 -12 -29 -19 -25 -23 -17
-4 -8 -7 -17 -1 -12 -1 -7
-13 -10 -5 -11 2 -7 7 -1
-13 -15 -2 -23 -8 -10 -6 -5
-5 -8 -3 -21 -12 -14 -10 -8
-10 -3 5 -4 3 -5 5 2
-12 -10 -1 -6 -5 -15 -12 -9
-5 -10 -7 -19 -14 -20 -19 -16
-1 -2 -9 -26 -8 -17 -10 -10
-12 -9 -9 -16 -9 -15 -10 -10
-4 -9 -10 -22 -25 -20 -23 -20
-5 -4 2 -15 -11 -10 -5 -8
-5 -4 -7 -15 -9 -11 -2 -5
3 -8 -14 -22 -19 -18 -14 -15
10 -12 -11 -19 -15 -17 -11 -9
9 0 -5 -12 -7 -12 2 -6
-3 -7 -12 -21 -13 -20 -13 -18
-17 -12 -6 -24 -9 -16 -16 -16
-17 -8 -1 -14 7 -8 -3 -4
-13 -5 -11 -22 -2 -13 -4 -8
-12 -12 -17 -31 -20 -16 -14 -15
-8 -11 -14 -19 -9 -5 4 -1
1 -10 -10 -16 -7 -10 6 -1
-4 -14 -11 -13 -12 -14 -9 -9
-4 -18 -4 -9 -11 -11 -5 -7
7 -12 -2 -8 -8 -10 0 -9
-7 -14 -6 -17 -10 -14 -10 -14
-14 -17 2 -17 -11 -12 -12 -11
-2 -12 10 -18 -3 -10 -5 -5
-2 -7 2 -22 -1 -10 -7 -10
-8 -15 -10 -29 -14 -16 -16 -17
-8 -13 -7 -23 -6 -9 -5 -12
-12 -6 -5 -20 -4 -10 -4 -10
-17 -13 -12 -24 -13 -14 -13 -13
-14 -8 -3 -14 -10 -10 -8 -11
-14 -4 2 -8 4 0 8 -1
-16 -12 -13 -20 -8 -9 -8 -12
-4 -14 -11 -22 -17 -13 -15 -11
-6 -13 -11 -14 -4 -11 -6 -8
-17 -16 -6 -12 -2 -8 -5 -11
-28 -22 1 -15 -10 -8 -12 -13
-5 -18 -14 -16 -11 -9 -6 -10
3 -7 -18 -17 -13 -16 -11 -15
-6 -17 -13 -16 -15 -16 -16 -15
-7 -11 -10 -13 -5 -14 -13 -15
-5 1 -3 -6 0 -9 0 -11
0 -16 -8 -21 -16 -17 -11 -19
0 -16 -9 -26 -13 -16 -16 -19
-5 -10 -10 -20 -5 -7 0 -9
-13 -14 -12 -12 -6 -7 -3 -5
-14 -18 -7 -14 -9 -12 -14 -14
-5 -11 -10 -7 -1 -7 -5 -14
3 -9 -17 -20 -7 -12 -8 -18
6 -16 -17 -31 -16 -16 -18 -23
-3 -16 -21 -22 -17 -10 -12 -18
-25 -16 -11 -6 5 3 7 -3
-25 -13 -13 -15 -3 -6 -7 -10
-8 -13 -14 -17 -8 -9 -13 -13
-7 -9 -14 -8 2 -3 -2 -6
-7 -10 -2 -9 0 -4 -1 -10
-6 -15 -15 -21 -15 -14 -17 -18
-9 -22 -13 -14 -3 -4 0 -8
-13 -19 -19 -11 -5 -3 4 -6
-9 -18 -18 -15 -17 -11 -11 -14
-9 -15 -12 -11 -13 -9 -10 -15
-3 -20 -16 -11 -6 -7 3 -13
1 -24 -17 -14 -12 -16 -14 -25
-11 -26 -11 -15 -3 -8 -12 -19
-16 -18 -8 -12 5 -1 1 -7
-8 -14 -14 -6 1 -4 -1 -11
-7 -19 -13 -19 -4 -12 -15 -20
-14 -17 8 -8 8 -1 3 -8
-21 -14 5 -4 5 0 9 -7
-14 -13 -16 -16 -9 -12 -6 -18
-7 -14 -12 -15 -10 -12 -7 -15
-9 -12 -8 -5 0 -7 7 -5
-7 -18 -13 -6 -10 -15 -15 -18
5 -19 -12 -14 -18 -19 -21 -26
10 -17 -8 -18 -15 -16 -11 -19
9 -14 -15 -16 -6 -11 -9 -18
-12 -19 -12 -23 -6 -10 -13 -18
-18 -18 -11 -11 5 -3 0 -10
-7 -12 -14 -12 -5 -4 3 -10
-10 -11 -17 -21 -11 -9 -9 -16
-13 -11 -21 -19 -3 -9 -5 -18
-10 -12 -13 1 10 -2 11 -8
-6 -16 -9 -10 -6 -12 -9 -20
-6 -22 -11 -13 -5 -11 -13 -19
-4 -18 -10 -6 5 -7 -2 -12
-13 -16 7 -7 1 -4 -1 -6
-18 -18 -4 -15 -10 -6 -10 -9
-12 -22 -9 -13 1 -1 3 0
-3 -14 -7 -15 4 -3 7 0
3 -7 -17 -29 -7 -11 -8 -14
-5 -11 -14 -20 -10 -8 -5 -6
-8 -14 -7 0 0 2 11 6
-7 -18 -12 -7 -13 -9 -5 -12
-10 -18 -15 -13 -8 -13 -14 -15
-7 -13 -10 -5 1 -5 -2 -10
-8 -12 -13 -7 -5 -6 -2 -12
-3 -16 -16 -20 -17 -16 -21 -23
3 -7 -8 -13 -9 -11 -10 -18
0 -8 -6 -11 -8 -9 -6 -15
-1 -11 -10 -22 -10 -10 -11 -14
-5 -15 -9 -13 -4 -5 -6 -16
-9 -13 -6 -6 -1 3 7 -6
-14 -15 -12 -13 -5 -5 0 -12
-11 -20 -8 -10 -9 -7 -8 -18
-3 -5 -13 -11 -3 -6 -7 -14
-8 -3 -2 -5 -1 -5 -5 -13
-10 -8 -6 -20 -16 -13 -18 -20
6 -8 -13 -21 -16 -10 -9 -9
1 -7 -14 -10 -10 -7 -4 -2
-12 -12 -12 -12 -1 -7 -11 -6
-15 -15 -5 -15 0 -3 -5 -9
-3 -12 -12 -11 2 0 4 -8
-3 -13 -6 -13 -6 -7 -10 -16
-4 -14 -2 -18 -11 -6 -12 -9
0 -9 0 -14 -7 -4 -3 -8
-5 -5 2 -11 -10 -7 -5 -13
-9 -8 0 -11 -18 -13 -18 -23
-5 -11 2 1 -5 -5 -7 -15
-6 -5 0 -10 -5 -6 -3 -14
-11 -8 -10 -22 -12 -7 -11 -18
3 -5 -12 -24 -8 -7 -11 -19
10 -4 -13 -13 -3 -1 2 -8
-3 -9 -17 -16 -10 -8 -10 -14
-13 -8 -11 -14 -5 -4 -9 -10
-10 -4 -6 -8 -1 3 5 -3
-6 -8 -13 -8 -5 -4 -3 -11
11 -11 -13 -22 -18 -15 -20 -24
12 -3 -13 -12 -10 -7 -7 -13
6 1 -9 -10 -3 -4 -2 -11
5 -2 -12 -22 -13 -10 -14 -18
6 -1 -7 -22 -8 -8 -13 -17
2 -1 3 2 10 4 4 -4
0 -4 -2 -11 1 -1 -6 -9
-6 1 -7 -10 0 0 -8 -9
0 9 6 4 3 8 6 2
7 9 8 -3 7 5 4 -3
2 3 3 -5 -2 1 -6 -9
-4 14 8 10 20 11 6 1
-1 14 15 8 21 9 7 0
6 5 9 1 3 1 -6 -14
14 8 3 -1 -2 -1 -7 -14
20 10 4 6 11 9 10 -3
2 11 0 6 6 7 1 -6
-1 7 1 0 11 10 -1 -3
8 21 6 4 23 14 10 3
4 29 11 2 20 16 12 5
3 22 10 -7 7 11 1 0
18 23 5 -3 17 19 15 13
16 31 -3 0 22 13 19 7
7 20 -4 -2 9 7 6 3
8 22 -2 -9 5 7 4 4
14 21 -1 1 10 9 13 2
19 18 -15 -11 -3 0 -3 -6
12 12 -7 -7 -4 2 -6 1
10 14 -5 7 3 9 9 8
8 15 -12 -4 15 9 9 7
-2 15 -17 -20 5 2 -3 1
8 8 -12 -11 9 11 11 7
21 12 -4 -2 10 11 15 4
21 10 -13 -10 -4 3 2 -4
25 13 -12 -13 2 4 2 0
20 16 -11 0 12 11 16 8
17 9 -14 -12 -4 0 0 -7
20 5 -11 -20 -6 -2 -7 -9
14 6 -14 -24 10 2 5 -2
-2 1 -17 -24 -2 -1 -3 -3
-6 -3 -14 -21 -17 -6 -15 -14
-7 -2 -5 -9 -7 0 -2 -3
-8 5 -6 -2 -2 -2 2 -1
1 -2 -13 -14 -3 -11 -13 -13
8 -1 -15 -17 -10 -13 -14 -13
8 5 -10 -11 -1 -10 -6 -12
7 -5 -18 -28 -16 -19 -20 -24
1 -11 -14 -28 -22 -16 -20 -21
-10 2 -5 -19 -9 -9 -7 -10
-7 -1 -8 -22 -12 -15 -15 -15
-4 -10 -12 -28 -22 -20 -26 -24
-6 -10 -7 -10 -6 -9 -9 -12
-7 -3 -6 -3 -4 -9 -4 -9
-4 -9 -12 -16 -11 -13 -15 -17
0 -13 -6 -17 -14 -12 -12 -15
2 -8 -2 -12 -8 -6 -1 -3
-4 -9 -15 -22 -16 -11 -12 -11
-12 -12 -17 -29 -10 -10 -13 -16
-5 -2 -15 -11 -12 -8 -3 -9
2 2 -15 -7 -18 -12 -9 -13
5 0 -24 -24 -28 -23 -29 -30
1 -8 -14 -15 -11 -11 -13 -17
1 -8 -3 -20 -8 -11 -6 -15
13 -3 -18 -33 -25 -22 -21 -27
14 -5 -11 -28 -16 -19 -19 -23
6 -6 0 -7 -5 -9 -5 -12
1 -8 -4 -11 -18 -15 -15 -16
-2 -11 -5 -17 -18 -14 -18 -12
-4 -9 -6 -20 -5 -8 -5 -7
-10 -10 -1 -25 -8 -8 -5 -7
-21 -18 -3 -14 -8 -9 -13 -14
-26 -6 4 2 11 3 -2 -3
-13 6 17 19 21 0 -5 -6
-6 0 25 29 24 -3 -19 -21
-5 6 33 46 37 7 -15 -16
2 4 46 74 62 31 7 -3
17 -8 53 85 73 41 5 -11
35 -12 60 108 85 60 16 -2
44 -11 66 140 112 93 53 28
42 -6 69 150 139 129 87 49
46 5 59 151 163 171 125 83
67 24 56 163 198 230 196 139
94 50 44 155 215 281 257 197
99 71 28 132 208 307 292 236
109 83 13 105 195 315 310 254
123 71 8 93 187 299 307 252
114 54 5 73 171 282 289 243
93 55 14 48 157 270 277 229
71 58 29 19 144 248 266 216
44 49 19 -34 103 210 233 191
7 45 4 -106 36 141 171 146
-13 25 -6 -154 -26 62 114 103
-33 13 0 -188 -91 -34 30 40
-59 8 7 -210 -148 -121 -58 -20
-75 16 15 -208 -156 -144 -89 -44
-81 29 20 -198 -136 -133 -83 -47
-71 29 7 -214 -148 -141 -105 -74
-61 17 -7 -226 -148 -142 -115 -83
-63 12 -13 -209 -139 -126 -95 -72
-67 5 -30 -193 -138 -120 -88 -69
-60 -4 -33 -187 -130 -118 -92 -71
-53 0 -35 -154 -121 -102 -64 -58
-39 -2 -43 -121 -103 -85 -54 -50
-27 -7 -48 -102 -91 -77 -59 -45
-20 -6 -36 -71 -71 -59 -47 -34
-19 -2 -15 -34 -36 -34 -22 -21
-16 -3 -12 -35 -36 -35 -32 -28
-3 -2 -11 -44 -34 -33 -38 -33
-2 3 -8 -38 -12 -22 -21 -22
-11 -1 4 -13 -9 -13 -13 -18
-3 -7 0 -18 -18 -23 -32 -27
5 -3 -1 -6 -10 -17 -20 -22
3 -2 8 3 -5 -14 -10 -17
-10 -8 11 -1 -8 -14 -14 -18
-15 -10 7 -3 -4 -11 -13 -14
-12 -6 6 0 2 -9 -5 -11
-18 -13 3 0 -3 -14 -16 -20
-11 -11 -5 -4 -11 -18 -25 -23
10 -5 -4 -1 -10 -18 -22 -24
20 1 -1 -2 -10 -19 -22 -25
12 -8 -5 -4 -13 -19 -27 -27
-1 -11 5 8 1 -7 -11 -13
-8 -9 5 11 6 -2 -1 -4
-20 -10 1 10 1 -9 -14 -13
-9 -8 0 6 -2 -10 -15 -16
4 -10 2 15 2 -3 -2 -3
6 -11 1 10 -10 -14 -18 -20
11 -13 3 9 -14 -17 -24 -26
2 -10 1 20 3 -6 -9 -14
1 -7 -5 1 -5 -10 -13 -16
-8 -8 -1 3 -15 -14 -22 -22
-12 -15 15 21 5 -2 -8 -12
1 -7 12 22 2 -4 -5 -12
16 -4 1 6 -11 -16 -20 -19
19 -3 -3 6 -9 -15 -19 -16
-2 -7 9 24 15 1 0 -1
-2 -7 10 14 7 -8 -15 -12
0 -16 8 10 -3 -10 -21 -18
5 -12 3 22 6 -1 -4 -10
8 -8 7 14 -1 -6 -10 -15
11 -8 -1 1 -5 -16 -29 -26
12 -7 -2 10 4 -5 -15 -17
11 -7 0 13 7 -5 -7 -16
1 -9 5 17 4 -6 -15 -19
-9 -8 16 24 10 -1 -9 -14
-16 -6 14 38 22 10 6 2
-20 -7 10 33 14 2 -6 -9
-15 -17 13 27 13 0 -13 -15
-14 -6 20 34 21 6 -1 -8
7 -8 3 22 12 -2 -8 -16
16 -14 2 14 -10 -16 -24 -29
9 -7 6 34 4 -4 -7 -15
6 -6 7 44 17 -1 -1 -13
4 -11 12 28 4 -8 -16 -21
1 -11 23 28 7 -2 -12 -17
2 -7 13 35 20 4 1 -8
8 -5 14 23 17 -5 -9 -17
2 -13 6 24 10 -3 -14 -17
-5 -11 14 39 22 8 2 -5
5 -4 18 36 16 5 0 -7
8 -2 5 23 7 -5 -15 -16
7 -3 5 37 17 3 -1 -11
12 -2 16 47 23 4 6 -6
19 -6 14 38 11 -5 -10 -11
8 -5 13 44 18 -3 -10 -13
-5 -5 15 52 26 6 4 -5
-2 -6 12 47 10 0 -4 -15
1 -11 8 39 8 -1 -11 -15
3 -11 16 40 19 7 1 -7
2 -5 12 40 18 7 1 -8
7 -4 -2 30 10 1 -11 -14
7 -1 2 37 18 5 0 -7
10 -2 9 48 19 8 8 -2
11 -3 4 36 7 -3 -7 -9
12 -14 6 38 23 1 -1 -10
2 -8 14 47 32 17 19 4
-18 -2 12 41 21 12 7 -2
-5 -10 4 36 13 4 -9 -11
13 -6 16 41 22 9 1 -3
8 -2 11 42 24 9 0 -3
10 -5 6 32 11 1 -10 -10
6 -3 18 44 25 12 7 1
6 1 18 49 29 14 17 0
8 -3 8 39 12 5 -1 -6
9 -2 5 37 9 3 -4 -10
1 -1 8 46 30 14 12 -1
19 -5 7 34 22 4 -2 -13
23 -9 12 37 12 2 -12 -17
12 -3 9 52 27 13 2 -6
12 -2 6 46 29 12 2 -6
11 -4 10 34 16 9 -8 -10
3 2 21 42 33 22 11 5
-4 5 29 53 44 26 25 12
-2 -3 18 47 30 19 9 1
8 0 10 38 24 19 9 -2
16 10 8 46 30 20 16 1
15 2 4 52 28 15 5 -1
12 -5 6 47 31 15 1 -2
13 0 11 53 37 23 13 8
4 3 12 57 37 23 14 9
17 7 8 52 21 13 -3 -2
32 5 13 51 28 18 8 0
21 0 23 62 35 28 22 7
4 4 15 57 33 22 11 5
0 4 21 60 38 27 16 9
0 10 28 68 49 35 32 17
11 13 19 60 36 24 13 6
11 2 13 59 42 25 9 2
5 10 16 71 48 31 23 10
15 9 11 63 48 28 15 5
22 -1 6 50 40 22 3 -2
11 0 20 61 48 33 18 13
3 7 35 79 54 38 29 18
13 5 21 72 38 26 12 5
34 14 9 60 30 21 6 0
26 21 16 74 41 31 22 11
25 14 14 65 32 23 10 4
45 8 12 53 27 17 0 0
34 12 10 65 46 30 20 13
13 12 20 83 53 34 24 21
4 9 36 72 44 31 13 14
1 7 35 77 49 43 31 27
6 18 25 76 51 44 35 28
15 17 14 63 39 30 14 10
12 12 20 70 48 33 16 11
16 17 29 91 59 42 37 24
19 21 18 78 52 34 22 14
18 18 16 81 46 31 12 11
30 22 20 88 55 34 24 17
41 20 20 82 44 30 19 13
28 12 18 75 40 28 11 11
12 18 32 77 52 41 30 28
1 24 34 76 53 46 40 30
16 21 20 64 41 36 26 21
28 21 15 70 42 35 21 20
30 27 28 89 53 43 38 31
28 22 20 75 44 35 26 25
16 17 20 69 49 37 23 25
21 36 21 76 59 41 29 27
22 42 21 76 52 40 30 33
19 25 17 71 43 36 21 27
17 28 24 80 57 45 35 32
12 32 30 83 55 46 43 35
13 31 25 73 45 38 31 26
18 32 25 73 51 39 29 29
11 29 25 76 61 49 42 42
19 28 23 68 45 40 29 31
24 34 16 56 33 38 19 26
18 32 20 71 46 47 35 38
19 29 39 78 48 48 38 37
25 29 30 55 42 38 25 27
23 33 16 59 52 46 36 35
23 33 20 58 59 48 46 40
