I II V1 V2 V3 V4 V5 V6
-3 -8 6 -6 -16 -11 -2 8
-6 -10 7 -4 -17 -12 0 -3
-9 -12 7 -5 -16 -10 4 -8
-8 -12 6 -8 -18 -13 -2 -9
-4 -9 7 -2 -16 -11 -2 -15
-1 -6 7 0 -15 -10 0 -13
-3 -6 7 -3 -16 -10 -2 -3
-3 -7 8 -6 -15 -9 0 -9
-5 -9 6 -5 -17 -10 -2 -10
-5 -9 6 -6 -18 -11 -2 -14
-2 -4 7 -6 -15 -10 0 -11
-2 -3 8 -2 -14 -9 3 -5
-4 -3 9 -1 -14 -8 3 -8
-5 -1 10 -3 -13 -7 -1 -10
-5 2 10 -2 -13 -8 -2 -7
-3 8 12 0 -11 -6 0 -8
2 10 14 5 -8 -3 4 2
3 14 15 3 -8 -3 8 3
3 14 16 2 -8 -2 10 0
-2 11 15 3 -9 -4 7 -2
-3 11 15 5 -9 -4 3 -3
-1 12 16 1 -9 -4 6 1
1 14 16 3 -9 -4 5 -6
2 14 17 9 -9 -4 3 -6
-2 12 15 3 -11 -6 3 -2
-3 12 17 2 -8 -3 4 0
-4 12 17 5 -8 -2 3 3
-5 13 18 7 -7 -1 4 3
-1 16 17 5 -7 -1 6 0
2 22 16 6 -5 -1 9 8
1 25 15 5 -6 2 10 9
4 27 13 4 -4 2 7 9
5 25 11 4 -4 2 11 9
5 22 10 5 -4 2 11 10
5 22 11 9 -1 5 9 12
4 22 12 7 -2 5 10 6
4 22 10 9 -3 4 11 1
3 19 9 6 -6 2 12 -2
5 21 7 5 -7 0 7 -1
6 20 5 -2 -10 -3 4 5
2 16 4 -2 -14 -6 3 4
5 17 5 -3 -12 -5 2 4
2 13 3 -5 -14 -7 -1 6
-2 11 3 -5 -14 -7 0 -5
-5 12 3 -6 -14 -7 2 -2
-3 7 4 -6 -14 -7 0 3
-3 4 3 -4 -18 -12 -4 -7
-9 -2 2 -9 -20 -12 -7 -9
-9 0 2 -15 -22 -13 -8 -14
-3 4 3 -11 -21 -15 -6 -6
-6 2 4 -8 -21 -15 -8 -7
-8 1 4 -10 -22 -18 -11 -14
-7 -1 3 -13 -21 -17 -9 -12
-8 -2 2 -15 -23 -18 -10 -13
-8 -2 2 -16 -24 -20 -13 -18
-7 -4 2 -14 -23 -19 -11 -15
-8 -6 -1 -14 -25 -21 -4 -15
-8 -7 -2 -15 -27 -22 -6 -16
-10 -7 -2 -18 -27 -23 -15 -19
-12 -10 -4 -22 -29 -25 -13 -22
-12 -7 -4 -21 -30 -23 -11 -20
-11 -8 -3 -20 -28 -25 -13 -22
-7 -4 0 -18 -26 -22 -11 -14
-4 0 -2 -19 -27 -23 -6 -10
-7 -2 -1 -20 -27 -24 -9 -16
-5 -1 -1 -18 -27 -24 -14 -20
-4 -3 -2 -20 -28 -23 -13 -18
-3 -3 -3 -18 -30 -21 -18 -15
-3 -3 -3 -20 -30 -21 -18 -11
-6 -4 -2 -21 -30 -26 -17 -24
-9 -4 -3 -21 -30 -26 -17 -16
-8 -4 -2 -21 -28 -24 -17 -10
-10 -4 0 -20 -27 -23 -17 -10
-12 -7 -1 -19 -28 -24 -18 -21
-17 -12 -4 -23 -30 -23 -19 -25
-19 -13 -3 -19 -29 -25 -19 -26
-12 -6 -3 -17 -29 -25 -15 -19
-8 -2 -2 -19 -28 -24 -13 -15
-9 -5 -2 -20 -28 -24 -15 -15
-13 -7 -4 -21 -29 -25 -16 -18
-12 -6 -2 -21 -29 -25 -16 -11
-8 -2 0 -17 -27 -23 -16 -14
-9 -3 0 -19 -28 -23 -16 -15
-9 -3 -1 -17 -27 -22 -17 -22
-9 -5 -1 -15 -25 -21 -17 -25
-9 -8 1 -10 -21 -18 -17 -23
-8 -14 4 -2 -16 -17 -18 -28
-7 -19 9 7 -12 -14 -20 -24
-4 -20 18 21 -3 -8 -16 -23
-3 -22 30 36 7 -3 -15 -35
-3 -18 43 51 21 6 -11 -36
-3 -13 56 67 35 17 0 -30
3 -3 66 80 47 28 7 -24
3 5 76 96 64 46 19 -13
4 12 78 118 86 71 41 3
11 27 81 130 108 97 68 25
16 42 84 140 128 126 96 49
26 64 86 157 154 160 133 75
35 92 69 157 174 192 168 115
41 121 49 151 187 219 205 159
48 152 24 146 205 255 248 198
48 183 -1 132 212 273 276 232
32 207 -15 78 171 233 262 245
6 207 -26 -12 75 132 196 225
-13 185 -39 -83 -12 35 114 168
-23 159 -56 -137 -77 -34 57 129
-32 125 -77 -191 -130 -85 12 91
-34 109 -97 -224 -164 -117 -17 62
-34 96 -105 -227 -171 -124 -26 45
-32 79 -110 -213 -164 -121 -36 28
-24 66 -117 -200 -152 -114 -44 20
-22 51 -115 -191 -149 -112 -48 12
-22 37 -108 -177 -145 -110 -51 -7
-16 32 -102 -161 -133 -102 -52 -9
-12 28 -94 -144 -123 -95 -52 -16
-11 26 -85 -128 -114 -90 -46 -22
-7 24 -75 -113 -102 -80 -42 -21
-8 22 -65 -97 -87 -69 -38 -12
-9 24 -51 -80 -73 -58 -28 -12
-7 26 -39 -61 -61 -48 -25 -6
-8 22 -28 -48 -49 -39 -21 -7
-10 19 -21 -41 -42 -33 -19 -3
-9 19 -12 -32 -35 -27 -17 -5
-6 18 -9 -28 -31 -24 -16 -12
-3 16 -7 -25 -29 -22 -13 -10
-6 12 -7 -19 -28 -21 -14 -1
-9 11 -6 -17 -26 -20 -13 -2
-7 10 -6 -19 -25 -19 -10 -5
-4 14 -4 -18 -24 -18 -9 -1
-5 14 -3 -17 -23 -18 -12 -6
-6 12 -2 -14 -22 -17 -14 -11
-5 11 -3 -13 -23 -19 -15 -12
-5 10 0 -12 -20 -16 -12 -10
-7 8 1 -12 -18 -13 -11 -14
-4 10 2 -11 -17 -11 -9 -12
-3 12 2 -8 -17 -9 -5 -14
-3 12 0 -8 -18 -10 -6 -10
1 14 2 -9 -15 -10 -5 -9
0 14 2 -7 -15 -9 -6 -6
-3 12 2 -4 -15 -12 -7 -6
-2 12 3 -6 -14 -11 -8 -11
-5 10 3 -6 -14 -11 -9 -6
-4 10 3 -5 -15 -11 -6 -7
-3 10 4 -5 -11 -9 -6 -12
-2 10 4 -4 -11 -8 -5 -9
-2 10 3 -3 -11 -8 -6 -6
-3 8 1 -6 -12 -8 -7 -12
-3 10 1 -6 -11 -7 -7 -13
-1 14 3 -2 -10 -6 -6 -11
-2 14 4 -2 -10 -7 -7 -8
-4 12 4 -3 -10 -7 -3 -5
-4 9 4 -4 -10 -9 -3 -13
-3 11 5 0 -9 -9 -6 -14
2 14 7 4 -7 -7 -4 -11
3 12 6 1 -7 -7 -6 -12
2 11 6 2 -7 -6 -3 -10
-1 12 6 5 -5 -5 0 -9
-2 11 4 0 -6 -5 -4 -5
-1 12 5 2 -7 -5 -4 1
0 12 4 1 -7 -4 -7 -7
1 12 4 1 -6 -3 -3 -3
-1 9 6 1 -6 -5 1 -4
-4 7 6 4 -6 -4 -2 -6
-5 5 7 3 -4 -3 -3 -4
-5 5 7 2 -4 -1 1 -5
-2 9 7 3 -3 -2 3 -4
4 15 7 5 -1 -1 1 0
4 15 6 4 -1 0 0 1
3 14 5 6 -3 1 1 -3
1 11 5 7 -3 0 0 -5
1 11 5 5 -2 0 -1 -9
4 14 5 8 -1 -1 -2 -3
3 14 8 15 1 1 0 -1
1 12 8 12 3 3 1 0
2 11 7 11 3 3 1 4
2 11 6 11 2 1 1 -2
2 11 5 7 2 1 7 -5
5 14 6 9 5 3 6 -2
3 14 4 11 3 4 3 5
5 16 5 14 3 3 2 0
8 18 7 15 5 5 4 -1
7 17 7 15 5 6 5 -1
7 18 7 20 6 7 6 0
8 17 8 18 9 10 6 0
10 20 8 19 9 10 8 9
10 19 7 18 10 12 10 9
8 16 3 15 9 9 7 9
5 15 4 21 9 8 7 2
5 16 3 25 9 8 9 -2
5 17 3 18 10 8 8 8
5 18 2 19 10 8 10 4
2 11 2 19 10 8 11 -2
2 13 1 18 10 7 8 -3
9 20 5 22 15 12 12 7
11 21 7 27 18 15 16 8
10 21 5 24 17 14 15 15
7 19 2 24 18 15 16 11
6 18 1 23 17 15 14 13
7 19 1 26 19 17 23 11
8 21 0 27 21 17 24 13
10 24 1 34 23 20 21 9
10 27 2 31 24 21 29 20
10 27 2 33 25 22 25 19
16 28 5 39 29 25 24 19
18 29 4 44 30 27 25 23
16 32 1 40 29 28 25 19
16 31 3 40 33 32 31 30
19 31 1 39 34 31 30 20
20 33 -1 43 34 32 32 19
19 35 1 46 36 34 33 30
13 33 1 47 39 36 37 28
16 33 1 49 41 38 42 32
20 35 -1 49 42 40 36 33
20 35 -2 52 44 42 41 33
22 37 -2 53 47 45 50 35
24 39 -5 52 47 46 53 35
28 47 -7 58 49 48 50 36
34 54 -6 59 53 52 55 47
30 51 -7 57 53 53 55 64
26 49 -8 56 53 56 55 54
28 51 -7 59 56 60 56 50
30 52 -7 63 58 61 58 51
31 51 -8 65 62 61 60 56
29 50 -8 65 64 65 69 55
34 55 -10 67 66 68 67 57
38 61 -10 69 66 69 68 57
35 63 -13 68 67 70 71 65
36 63 -11 70 70 73 75 68
37 66 -13 71 70 73 74 68
38 66 -13 69 69 73 77 67
39 69 -14 68 70 75 77 66
38 67 -13 70 71 77 78 65
39 68 -15 70 73 78 79 66
39 67 -15 72 74 79 78 71
38 65 -17 75 73 78 80 80
41 67 -18 72 72 78 84 74
42 70 -18 70 72 79 84 73
40 72 -19 71 73 79 85 70
41 73 -19 72 73 80 85 71
39 73 -21 66 70 78 83 72
41 74 -21 67 70 78 85 75
42 75 -19 67 70 78 84 79
42 74 -20 66 70 79 81 90
41 74 -19 66 68 77 80 81
40 72 -20 65 68 76 82 83
43 75 -21 66 67 76 80 85
43 74 -20 65 67 76 80 71
42 70 -20 60 63 72 80 74
40 69 -19 60 62 71 76 74
37 65 -18 58 58 67 67 61
32 61 -18 54 56 63 68 58
29 58 -16 53 54 61 72 62
27 56 -15 50 52 58 63 64
26 55 -10 49 52 57 58 61
24 51 -10 48 50 54 53 51
21 46 -10 42 46 48 49 41
19 43 -10 38 41 43 45 49
19 44 -8 36 38 40 43 45
19 44 -7 36 35 36 38 31
18 41 -5 34 32 32 34 32
17 35 -4 27 28 28 30 26
15 32 -1 24 25 24 23 17
13 29 -2 21 21 20 20 17
8 25 1 20 21 19 20 16
10 27 1 18 20 18 12 10
11 28 1 15 16 13 7 3
7 26 -1 12 11 9 5 1
5 21 1 12 10 6 6 -2
3 16 -1 9 5 2 -1 -4
-3 11 -2 6 1 -1 -4 -3
-5 9 -1 2 -1 -4 -6 -7
-4 6 0 2 -3 -6 -9 -6
-2 5 -2 -2 -6 -8 -11 -11
-3 5 -2 1 -6 -9 -13 -10
-4 6 0 2 -5 -8 -11 -6
0 10 2 -1 -4 -8 -11 -7
1 10 0 -5 -5 -9 -10 -12
-1 10 -2 -7 -7 -11 -12 -9
-1 8 -1 -7 -8 -12 -7 -10
0 8 -1 -8 -9 -13 -9 -11
2 10 -1 -7 -10 -12 -9 -13
-1 9 -1 -4 -10 -11 -12 -10
-1 8 1 -7 -10 -12 -11 -15
0 8 1 -3 -8 -10 -12 -15
-2 7 1 -4 -8 -10 -11 -9
-4 5 0 -6 -10 -12 -12 -10
-4 3 -2 -9 -12 -13 -16 -15
-8 -1 -5 -9 -14 -15 -19 -15
-7 0 -7 -12 -15 -16 -19 -14
-7 0 -6 -12 -15 -17 -16 -18
-7 1 -6 -13 -16 -17 -12 -15
-8 -1 -5 -8 -16 -17 -18 -13
-3 3 -5 -10 -15 -16 -15 -21
-4 2 -5 -10 -15 -16 -18 -22
-4 4 -4 -9 -15 -14 -16 -19
-4 3 -5 -11 -15 -15 -16 -14
-4 4 -6 -13 -15 -15 -18 -15
-3 7 -4 -12 -14 -13 -18 -14
-4 9 -4 -12 -15 -13 -17 -10
-5 6 -3 -10 -16 -14 -18 -15
-6 2 -5 -12 -16 -17 -21 -10
-5 3 -5 -12 -16 -16 -20 -14
-6 1 -6 -8 -16 -16 -17 -17
-10 1 -5 -11 -15 -15 -16 -16
-9 1 -4 -6 -14 -13 -15 -5
-7 1 -4 -7 -15 -15 -18 -14
-7 1 -4 -9 -16 -16 -19 -18
-5 4 -4 -10 -16 -16 -21 -18
0 9 -6 -10 -16 -16 -16 -18
-2 11 -5 -13 -16 -13 -15 -16
-4 8 -4 -12 -15 -12 -18 -14
-5 8 -5 -10 -15 -15 -20 -17
-3 6 -4 -9 -15 -14 -19 -17
-3 6 -4 -8 -15 -15 -19 -4
-3 7 -4 -7 -14 -14 -19 -16
-4 7 -4 -10 -15 -14 -18 -19
-5 6 -6 -12 -18 -16 -13 -12
-4 8 -5 -11 -17 -16 -15 -13
-1 10 -5 -11 -17 -15 -19 -15
-2 11 -5 -11 -16 -13 -19 -11
-2 12 -4 -11 -15 -13 -18 -8
-1 12 -2 -3 -15 -12 -16 -13
0 10 -5 -7 -15 -12 -13 -9
-3 8 -5 -11 -16 -11 -17 -14
-6 4 -8 -12 -17 -15 -18 -21
-5 6 -6 -11 -17 -14 -19 -18
-6 7 -6 -13 -16 -15 -21 -8
-2 12 -4 -11 -17 -14 -21 -13
-1 14 -4 -12 -16 -14 -20 -17
-1 12 -1 -7 -14 -12 -18 -13
0 13 -2 -5 -13 -12 -15 -16
1 14 0 -10 -13 -11 -16 -17
2 14 0 -10 -13 -12 -19 -17
-1 15 0 -11 -13 -13 -15 -13
-2 15 -2 -10 -14 -14 -17 -15
-3 11 -2 -10 -15 -15 -14 -15
1 12 -3 -12 -15 -14 -16 -16
-3 8 -4 -13 -18 -15 -18 -16
-5 8 -4 -13 -18 -16 -20 -17
-6 10 -2 -9 -17 -12 -20 -15
-6 8 0 -8 -16 -12 -19 -12
-4 10 0 -7 -16 -15 -19 -8
-5 9 -1 -9 -16 -13 -19 -8
-4 11 -1 -6 -15 -12 -18 -8
-2 11 -2 -10 -14 -12 -15 -13
0 11 -2 -10 -15 -12 -17 -14
0 10 -3 -11 -16 -13 -18 -3
3 12 -4 -12 -16 -13 -18 -6
2 11 -4 -11 -16 -13 -18 -10
2 12 -2 -7 -16 -14 -18 -4
-1 14 -2 -7 -17 -14 -19 -9
0 15 -2 -11 -17 -12 -18 -12
-1 15 0 -8 -14 -11 -17 -13
-3 13 -1 -10 -15 -13 -14 -10
-4 9 -1 -10 -15 -13 -14 -6
1 12 -1 -7 -15 -12 -17 -2
3 13 -2 -1 -15 -12 -18 -11
3 13 -3 -6 -14 -13 -19 -17
1 11 -4 -11 -16 -11 -18 -17
-4 10 -4 -11 -17 -14 -17 -14
0 10 -4 -8 -17 -12 -15 -15
-4 6 -4 -9 -18 -13 -21 -14
-2 6 -4 -8 -18 -16 -20 -8
0 10 -2 -10 -17 -15 -18 -11
-2 7 -3 -12 -18 -16 -22 -19
-3 5 -3 -12 -18 -17 -22 -20
-5 4 -6 -9 -19 -18 -19 -11
-4 6 -5 -10 -19 -17 -18 -8
-2 9 -4 -10 -18 -17 -21 -15
-5 7 -4 -11 -19 -17 -21 -14
0 11 -4 -9 -18 -16 -19 -10
4 14 -4 -10 -18 -16 -17 -11
3 12 -4 -9 -17 -14 -19 -13
3 12 -5 -9 -18 -14 -23 -12
3 12 -4 -10 -17 -13 -22 -7
2 11 -3 -7 -18 -16 -19 1
5 12 -3 -11 -17 -14 -18 -6
1 10 -6 -14 -18 -15 -21 -10
-4 4 -8 -16 -21 -20 -20 -18
-5 2 -9 -14 -22 -21 -25 -15
-6 0 -9 -15 -21 -20 -26 -12
-3 4 -7 -12 -20 -19 -21 -12
-3 5 -6 -13 -21 -19 -21 -12
0 5 -5 -13 -20 -19 -20 -8
-4 1 -7 -16 -23 -22 -21 -17
-5 -3 -9 -17 -24 -23 -24 -18
0 2 -8 -15 -21 -21 -22 -14
-1 3 -8 -16 -22 -20 -25 -8
-4 2 -8 -16 -23 -17 -25 -16
-2 3 -6 -12 -21 -18 -22 -16
0 4 -6 -11 -22 -20 -20 -16
-1 2 -7 -13 -23 -20 -18 -13
-1 -1 -7 -16 -23 -22 -21 -15
-4 -3 -8 -16 -23 -22 -24 -5
-4 0 -7 -15 -22 -20 -22 -11
-2 3 -7 -15 -22 -20 -22 -15
-1 2 -9 -16 -23 -23 -24 -19
-1 3 -10 -14 -23 -21 -25 -16
-1 2 -8 -16 -23 -21 -22 -17
1 2 -8 -15 -23 -23 -23 -18
-1 1 -8 -15 -23 -22 -25 -11
-4 -2 -10 -16 -25 -23 -26 -12
-1 -2 -9 -15 -24 -23 -25 -23
-5 -4 -10 -17 -24 -23 -22 -17
-8 -5 -9 -17 -23 -22 -22 -22
-5 -4 -10 -18 -24 -24 -25 -17
-4 -5 -12 -18 -24 -24 -28 -16
-5 -4 -11 -17 -24 -23 -26 -21
-1 -2 -9 -17 -23 -21 -22 -17
-2 -2 -10 -17 -24 -19 -24 -13
-1 -1 -8 -17 -23 -20 -26 -16
-2 0 -7 -15 -22 -19 -24 -18
0 -1 -7 -15 -22 -21 -27 -24
1 0 -8 -11 -23 -21 -27 -24
0 -1 -6 -10 -21 -20 -24 -17
-2 -3 -8 -13 -23 -19 -22 -18
-5 -5 -9 -15 -24 -16 -22 -13
-4 -6 -11 -18 -24 -20 -24 -16
-4 -8 -10 -14 -23 -22 -22 -24
-1 -4 -8 -10 -24 -21 -23 -22
0 -4 -8 -11 -24 -20 -25 -25
-2 -6 -9 -14 -25 -22 -27 -18
-5 -9 -10 -14 -26 -21 -30 -20
-2 -7 -10 -17 -25 -22 -30 -23
-2 -7 -10 -18 -26 -22 -30 -21
-7 -12 -11 -17 -26 -23 -31 -17
-6 -12 -11 -16 -27 -25 -31 -15
-3 -10 -11 -16 -26 -23 -29 -7
-5 -13 -11 -16 -26 -23 -26 -14
-7 -14 -10 -18 -25 -24 -24 -12
-6 -14 -10 -18 -25 -23 -26 -20
-6 -10 -9 -17 -24 -22 -26 -26
-4 -9 -7 -15 -24 -23 -28 -16
-1 -10 -7 -11 -22 -20 -25 -10
1 -7 -8 -12 -22 -17 -26 -11
2 -7 -9 -13 -21 -17 -23 -18
2 -9 -8 -12 -21 -19 -14 -20
2 -9 -10 -13 -22 -20 -20 -18
-1 -12 -10 -14 -23 -21 -24 -19
-1 -12 -9 -13 -22 -21 -27 -16
-2 -12 -10 -13 -24 -22 -28 -13
-8 -18 -11 -15 -25 -23 -26 -19
-3 -15 -11 -13 -25 -24 -28 -15
-4 -15 -10 -15 -23 -23 -26 -18
-4 -15 -11 -15 -24 -23 -27 -16
-3 -14 -12 -16 -24 -23 -26 -12
-2 -14 -12 -14 -23 -23 -26 -13
-5 -14 -11 -9 -23 -24 -28 -16
-3 -11 -10 -12 -22 -24 -29 -12
0 -14 -11 -9 -22 -24 -29 -17
1 -15 -12 -12 -23 -25 -28 -15
1 -16 -13 -17 -25 -26 -28 -19
0 -18 -12 -17 -24 -26 -30 -15
-3 -17 -12 -14 -23 -24 -26 -18
-6 -18 -12 -12 -22 -23 -25 -16
-3 -17 -12 -14 -22 -23 -27 -18
-2 -19 -14 -16 -24 -24 -30 -21
-3 -19 -14 -16 -24 -22 -30 -17
0 -17 -13 -14 -24 -24 -29 -13
-2 -18 -14 -13 -24 -25 -25 -13
-2 -19 -14 -15 -25 -25 -23 -17
0 -18 -15 -14 -26 -26 -27 -16
1 -18 -13 -14 -25 -25 -30 -17
0 -15 -11 -11 -23 -23 -28 -19
-4 -18 -10 -10 -22 -22 -28 -18
-6 -19 -12 -12 -22 -22 -28 -17
-3 -19 -12 -12 -23 -23 -28 -17
-2 -18 -12 -10 -24 -23 -31 -16
-2 -19 -11 -9 -22 -22 -23 -17
-2 -20 -10 -9 -21 -21 -25 -13
-3 -22 -11 -12 -23 -23 -28 -12
-4 -24 -11 -12 -23 -22 -26 -15
-6 -27 -11 -11 -22 -22 -28 -17
-7 -28 -13 -13 -24 -23 -31 -17
-5 -26 -13 -13 -25 -24 -30 -20
-5 -25 -13 -13 -24 -24 -28 -22
-3 -20 -15 -10 -26 -25 -27 -24
-2 -18 -13 -8 -22 -22 -25 -21
-3 -21 -13 -10 -21 -22 -26 -15
-4 -22 -13 -14 -23 -24 -29 -12
-3 -22 -11 -12 -21 -22 -27 -12
-1 -19 -12 -12 -21 -21 -26 -16
0 -18 -11 -12 -22 -22 -24 -16
0 -18 -12 -12 -22 -22 -24 -22
-2 -22 -14 -13 -23 -22 -21 -18
-5 -26 -15 -15 -24 -24 -23 -14
-3 -24 -13 -14 -24 -24 -26 -17
1 -19 -12 -12 -24 -23 -29 -16
-1 -19 -13 -12 -24 -23 -29 -13
-3 -22 -12 -14 -23 -23 -28 -13
-4 -22 -12 -14 -23 -23 -31 -20
-6 -23 -11 -11 -23 -22 -36 -19
-1 -19 -11 -11 -22 -22 -35 -14
0 -17 -12 -8 -22 -22 -35 -18
2 -16 -11 -10 -22 -21 -36 -18
3 -15 -11 -6 -22 -22 -38 -20
0 -17 -11 -10 -22 -20 -39 -19
-8 -24 -11 -12 -24 -21 -39 -12
-8 -23 -10 -8 -22 -22 -35 -10
-5 -20 -9 -10 -21 -22 -36 -10
-1 -17 -10 -10 -21 -21 -34 -8
0 -18 -11 -11 -21 -21 -34 -15
-3 -21 -10 -11 -21 -21 -37 -18
-2 -17 -12 -15 -23 -23 -34 -15
-2 -16 -12 -11 -22 -23 -34 -9
1 -16 -12 -10 -21 -19 -35 -11
1 -15 -12 -13 -21 -21 -35 -14
-3 -19 -11 -12 -22 -23 -34 -14
-3 -15 -10 -11 -22 -22 -35 -12
-1 -17 -9 -11 -22 -22 -37 -12
0 -19 -11 -12 -24 -24 -39 -9
1 -18 -10 -9 -23 -23 -38 -15
-2 -18 -9 -10 -23 -22 -34 -11
-1 -17 -9 -10 -21 -21 -32 -13
-1 -14 -9 -13 -20 -21 -34 -12
-1 -16 -10 -13 -21 -22 -35 -13
-4 -20 -10 -11 -22 -23 -37 -17
-4 -19 -11 -6 -22 -23 -37 -19
-4 -19 -12 -10 -23 -24 -32 -17
-7 -22 -11 -15 -23 -24 -33 -15
-10 -24 -12 -15 -24 -25 -35 -21
-11 -25 -15 -14 -26 -26 -41 -19
-9 -23 -12 -12 -24 -24 -36 -12
-2 -19 -11 -11 -21 -22 -33 -11
3 -13 -9 -12 -18 -19 -30 -13
1 -12 -8 -12 -19 -20 -31 -16
-2 -16 -10 -11 -22 -23 -36 -13
-2 -16 -9 -9 -20 -19 -33 -13
-2 -16 -9 -8 -20 -19 -32 -20
-5 -17 -10 -12 -21 -23 -33 -17
-8 -21 -11 -14 -22 -24 -36 -19
-11 -22 -10 -14 -22 -24 -35 -24
-7 -18 -9 -9 -21 -23 -33 -23
-3 -16 -10 -11 -20 -23 -33 -20
-6 -19 -10 -13 -19 -22 -32 -15
-7 -21 -11 -14 -19 -23 -32 -16
-8 -20 -13 -15 -19 -24 -30 -18
-4 -18 -12 -15 -19 -24 -26 -23
0 -14 -10 -13 -17 -22 -27 -16
-1 -12 -11 -15 -19 -24 -30 -14
0 -11 -10 -14 -18 -24 -27 -12
-4 -15 -9 -13 -17 -23 -29 -15
-5 -17 -10 -14 -18 -24 -33 -12
-5 -17 -11 -13 -20 -25 -32 -13
-4 -18 -12 -14 -19 -23 -32 -20
-5 -18 -10 -13 -18 -21 -27 -17
-6 -19 -10 -13 -19 -23 -27 -12
-4 -16 -9 -11 -16 -21 -25 -16
-1 -11 -8 -12 -15 -21 -21 -15
-2 -13 -8 -12 -16 -20 -25 -14
-2 -12 -8 -13 -17 -21 -31 -20
-3 -12 -10 -13 -17 -23 -29 -13
-7 -17 -11 -13 -20 -25 -26 -14
-8 -17 -10 -12 -19 -25 -28 -18
-7 -16 -11 -15 -19 -26 -32 -17
-8 -16 -11 -15 -19 -25 -32 -20
-5 -13 -10 -8 -18 -22 -28 -15
-4 -14 -10 -11 -16 -20 -27 -11
-5 -15 -11 -9 -17 -24 -27 -16
-4 -15 -10 -12 -17 -22 -28 -16
-4 -16 -8 -13 -16 -23 -26 -11
-4 -15 -8 -8 -14 -22 -27 -9
-5 -13 -7 -8 -15 -21 -27 -9
-7 -14 -8 -12 -15 -21 -28 -18
-6 -14 -9 -12 -16 -23 -28 -18
-6 -14 -10 -12 -17 -23 -29 -21
-3 -14 -10 -11 -17 -24 -28 -21
-1 -12 -10 -14 -16 -23 -28 -12
-4 -12 -9 -15 -16 -23 -25 -8
-6 -12 -9 -13 -15 -22 -26 -15
-5 -13 -10 -10 -16 -23 -28 -13
-5 -13 -9 -11 -16 -23 -27 -17
-2 -12 -8 -9 -15 -22 -26 -16
-3 -12 -9 -14 -17 -23 -28 -19
-6 -12 -9 -16 -17 -24 -26 -20
-8 -13 -8 -14 -14 -22 -25 -18
-9 -13 -9 -14 -15 -23 -24 -16
-7 -14 -9 -10 -15 -22 -23 -12
-5 -13 -9 -13 -16 -22 -26 -9
-6 -13 -11 -15 -16 -23 -25 -17
-8 -11 -8 -14 -15 -22 -23 -18
-1 -2 -3 -8 -11 -17 -21 -14
5 5 1 -5 -6 -14 -14 -15
4 8 1 -7 -7 -13 -12 -15
2 8 1 -3 -6 -14 -13 -10
-2 5 1 -1 -5 -13 -18 -10
-4 4 2 -2 -4 -11 -14 -10
-3 9 -1 -7 -6 -15 -15 -16
0 10 -1 -7 -8 -15 -20 -14
-4 4 1 -7 -8 -15 -18 0
-9 1 0 -8 -9 -15 -17 -5
-8 1 0 -8 -7 -14 -18 -14
-6 3 2 -8 -7 -13 -14 -12
-2 8 1 -7 -9 -16 -17 -12
-2 7 3 -2 -5 -12 -15 6
-2 10 5 2 -3 -11 -10 -2
0 16 6 0 -2 -10 -8 -6
0 22 5 -3 0 -7 -8 -2
-1 22 4 -2 1 -5 -7 8
1 23 2 -1 1 -5 -2 3
1 22 0 -2 1 -5 -3 -4
2 21 -1 -2 1 -5 -6 0
0 21 -1 -2 1 -5 -2 4
-2 20 -1 -2 0 -4 -5 6
-1 19 0 -1 0 -5 -6 9
1 21 -2 -6 -2 -7 -7 -2
1 20 -2 -7 -4 -8 -9 0
0 15 -2 -8 -5 -9 -9 -7
-3 12 -4 -11 -9 -12 -7 -11
-2 12 -3 -10 -8 -11 -10 -5
-5 9 -4 -7 -8 -11 -10 -8
-3 7 -5 -9 -7 -10 -11 -6
-1 5 -4 -6 -6 -11 -13 -6
-3 0 -6 -10 -10 -13 -14 -4
-6 -4 -5 -10 -10 -14 -12 -8
-6 -5 -5 -9 -11 -15 -12 -18
-9 -7 -7 -14 -14 -17 -17 -14
-7 -5 -4 -12 -11 -15 -12 -12
-7 -6 -2 -12 -12 -15 -12 -8
-8 -9 -3 -15 -14 -18 -17 -17
-5 -9 -4 -16 -16 -18 -20 -20
-6 -11 -6 -18 -18 -20 -19 -19
-11 -12 -5 -17 -17 -21 -17 -22
-10 -13 -6 -16 -19 -22 -17 -22
-10 -15 -6 -17 -19 -22 -17 -21
-10 -15 -5 -16 -18 -21 -17 -19
-11 -14 -9 -21 -21 -24 -21 -24
-13 -19 -8 -18 -21 -23 -23 -22
-12 -19 -8 -17 -21 -24 -22 -27
-14 -20 -8 -21 -21 -24 -22 -28
-11 -16 -5 -20 -20 -23 -20 -22
-7 -14 -5 -20 -20 -22 -21 -26
-8 -17 -5 -19 -20 -24 -20 -24
-7 -14 -5 -18 -20 -24 -20 -21
-7 -17 -6 -20 -20 -24 -23 -24
-4 -15 -6 -19 -20 -22 -21 -19
1 -9 -4 -17 -18 -21 -17 -12
-2 -13 -3 -17 -18 -20 -17 -18
-9 -16 -3 -18 -18 -20 -18 -18
-7 -13 -6 -19 -20 -21 -18 -21
-7 -14 -6 -19 -20 -21 -17 -23
-9 -19 -5 -15 -19 -21 -17 -19
-11 -20 -4 -15 -19 -21 -17 -21
-15 -23 -4 -16 -20 -20 -16 -24
-15 -22 -6 -18 -21 -22 -17 -23
-14 -23 -4 -19 -20 -20 -17 -24
-7 -19 0 -14 -17 -17 -14 -23
-7 -18 0 -16 -16 -17 -16 -24
-8 -21 0 -16 -16 -17 -16 -15
-7 -21 0 -14 -15 -16 -14 -15
-10 -27 -1 -10 -14 -15 -18 -20
-11 -34 3 -2 -8 -10 -17 -27
-8 -40 7 7 -5 -12 -16 -31
-5 -44 11 16 0 -8 -24 -34
0 -45 21 30 11 -3 -22 -38
-2 -44 34 49 25 6 -18 -41
-5 -41 45 68 38 15 -11 -35
-4 -34 58 78 51 26 -3 -36
-4 -26 69 91 66 40 9 -21
-2 -15 77 109 87 63 28 -4
1 -1 83 130 113 93 60 17
8 14 82 136 129 120 89 45
16 36 88 140 150 152 123 81
22 59 83 142 169 185 160 105
28 87 58 124 174 209 198 152
35 115 30 110 183 237 240 186
38 147 1 91 193 266 273 218
28 177 -18 60 179 259 284 238
2 187 -30 -12 101 175 230 224
-23 166 -37 -87 5 57 138 177
-34 142 -48 -130 -62 -24 67 128
-42 111 -64 -170 -113 -78 20 92
-48 80 -79 -208 -154 -118 -19 59
-45 67 -93 -221 -173 -135 -36 43
-38 55 -101 -212 -166 -131 -47 21
-27 47 -107 -200 -152 -120 -50 8
-20 37 -110 -188 -144 -113 -51 4
-18 22 -106 -179 -141 -111 -55 -7
-15 12 -99 -165 -134 -108 -55 -12
-21 3 -94 -150 -124 -99 -54 -18
-21 -2 -88 -137 -115 -94 -53 -15
-16 -4 -80 -120 -105 -85 -49 -26
-15 -7 -70 -102 -91 -75 -44 -28
-17 -7 -57 -83 -76 -62 -32 -18
-12 -5 -44 -65 -61 -51 -25 -10
-9 -5 -32 -48 -47 -36 -19 -15
-9 -6 -22 -38 -38 -29 -16 -7
-7 -6 -17 -31 -32 -28 -13 -3
-5 -6 -13 -24 -28 -23 -11 -13
-3 -6 -9 -17 -21 -17 -9 -11
-3 -9 -4 -12 -18 -15 -6 -13
-4 -12 -3 -9 -17 -14 -4 -14
-6 -13 -3 -10 -15 -14 -2 -10
-10 -17 -2 -9 -16 -14 -7 -9
-10 -19 -1 -8 -15 -14 -6 -13
-12 -20 1 -6 -14 -13 -7 -16
-9 -20 3 -1 -11 -8 -1 -19
-11 -23 1 -3 -12 -11 -4 -14
-10 -24 3 -3 -10 -11 -2 -9
-4 -19 5 0 -7 -8 -4 -9
0 -17 6 4 -5 -6 -4 -19
-5 -19 7 3 -5 -2 -4 -15
-4 -18 7 5 -5 -3 -2 -10
-1 -17 8 5 -4 -4 0 -14
1 -14 7 4 -5 -5 -5 -14
-1 -15 10 6 -4 -3 -1 -14
-3 -18 10 7 -3 -3 -1 -13
-5 -19 10 7 -3 -1 -3 -3
-9 -24 9 7 -4 -5 -1 -13
-8 -24 9 8 -4 -4 3 -11
-3 -20 9 7 -3 -4 0 -11
-3 -19 10 6 -2 -2 0 -5
-4 -16 11 7 0 -1 3 -2
-4 -20 11 8 0 0 1 0
-5 -22 9 9 -1 -3 -2 4
-5 -20 11 9 -1 -2 -1 -4
-5 -20 12 12 1 -1 0 -5
-5 -22 11 13 2 0 0 4
-5 -21 12 13 3 0 5 -7
-5 -21 12 12 2 1 3 -12
-2 -21 10 12 0 -1 0 -9
-3 -20 11 12 2 0 5 -9
-10 -20 14 13 4 3 10 -7
-6 -20 16 15 5 5 7 -4
1 -17 14 16 5 3 5 -4
0 -17 15 18 5 3 3 -5
1 -18 15 18 5 3 9 -10
2 -19 14 15 5 4 6 -7
2 -18 14 15 6 3 5 1
0 -19 13 15 5 4 7 -5
-5 -24 13 15 6 5 6 -8
-5 -24 14 18 7 5 8 -2
-4 -22 16 18 8 7 10 3
0 -19 15 22 9 7 11 -7
2 -17 16 22 10 8 10 -3
1 -17 16 20 10 7 10 -4
1 -19 16 22 11 11 10 3
-3 -19 15 23 12 10 13 7
-3 -21 14 22 11 8 10 2
-6 -23 14 20 11 9 9 -9
-6 -25 14 20 10 9 7 -10
-5 -23 13 19 10 8 8 -5
0 -15 14 21 11 11 7 0
2 -17 15 21 12 15 7 9
4 -17 16 22 12 12 9 10
1 -17 16 21 12 11 8 -1
-2 -19 16 23 14 12 11 -2
-1 -15 16 23 14 13 11 4
-1 -16 15 28 14 12 8 6
0 -18 16 33 16 15 9 3
3 -16 16 29 16 15 11 1
2 -14 16 29 16 16 11 -2
4 -13 16 29 17 16 10 2
3 -12 15 27 17 17 11 -2
-2 -16 14 27 17 16 13 -1
2 -16 14 27 18 17 12 7
4 -16 15 29 20 19 15 1
3 -17 13 29 19 18 12 1
5 -15 14 31 21 19 17 11
4 -13 15 31 21 23 17 8
2 -14 14 31 22 23 21 1
2 -16 14 35 21 20 20 -1
1 -16 14 37 23 22 18 8
4 -13 15 34 25 25 22 15
4 -12 14 35 26 25 19 12
9 -7 15 37 28 27 18 15
10 -6 16 39 30 31 19 18
9 -8 15 40 30 30 23 15
7 -8 15 42 31 29 26 17
7 -9 14 44 31 30 23 23
7 -6 13 49 32 30 24 20
12 -1 15 50 35 34 29 23
14 0 15 49 35 34 31 28
17 0 14 44 35 36 29 29
21 4 14 45 37 39 27 24
17 3 14 50 39 39 33 23
13 1 15 54 41 41 36 28
15 2 15 56 42 42 35 30
13 2 14 57 43 44 37 35
13 5 15 55 45 46 43 33
17 7 15 54 46 48 49 36
17 7 12 56 44 47 44 34
13 6 10 53 44 47 41 36
13 4 9 53 45 49 42 40
16 8 10 54 46 49 43 45
15 9 10 55 47 51 47 46
14 11 8 60 48 51 46 35
21 15 9 62 51 54 48 40
21 16 9 59 52 55 50 45
19 17 9 63 53 58 54 46
20 18 8 66 53 59 53 52
21 20 7 66 53 59 57 57
24 23 6 63 54 60 59 54
26 24 6 62 55 65 62 63
27 25 4 65 55 64 60 59
25 25 4 65 55 63 63 61
21 22 3 62 56 64 71 60
24 25 3 61 55 64 67 62
28 26 2 60 55 66 69 60
28 27 0 62 53 64 64 63
30 30 3 63 56 67 65 61
28 33 1 58 55 67 66 65
30 35 1 59 55 67 69 73
29 39 1 61 55 68 71 74
27 36 0 59 54 68 68 79
27 34 -3 57 52 67 70 73
31 36 -2 59 53 66 70 67
25 31 -6 57 50 63 66 64
25 32 -5 55 51 66 67 64
26 34 -4 50 50 65 67 61
22 32 -6 49 49 62 67 70
24 35 -7 47 47 60 70 79
26 36 -6 45 47 60 67 79
25 35 -5 49 46 60 67 73
29 37 -5 47 46 60 67 75
28 37 -7 45 44 56 66 80
27 36 -4 45 45 57 68 86
27 36 -4 43 42 54 68 63
26 35 -4 40 41 52 65 62
27 35 -4 40 39 53 65 73
23 33 -2 37 39 52 61 74
22 32 -2 35 37 48 61 61
21 29 -1 36 36 47 57 59
20 26 1 34 35 45 54 54
19 24 2 33 33 44 52 52
17 23 0 31 30 39 45 50
14 16 2 33 30 37 43 45
15 14 5 30 29 36 41 40
12 13 8 29 30 34 43 41
12 13 10 28 28 33 38 31
11 10 12 26 27 31 33 34
8 5 12 25 25 29 28 28
8 6 12 22 23 27 25 24
6 3 12 21 21 22 23 22
7 3 14 22 21 22 22 20
9 4 17 25 21 22 19 29
3 -4 15 24 18 19 15 22
3 -4 14 18 16 15 18 16
1 -7 14 16 15 13 14 11
-3 -12 14 14 12 10 10 8
-4 -15 15 15 11 9 6 4
-1 -14 15 12 10 7 6 9
1 -11 15 12 9 6 5 7
-1 -9 17 13 10 9 5 -1
-6 -11 16 13 7 8 5 -4
-6 -15 15 8 6 4 5 1
-5 -15 17 10 7 4 2 5
-4 -16 16 11 5 4 2 1
-2 -14 16 10 5 3 2 2
0 -13 17 16 5 3 1 1
-3 -17 17 13 4 3 0 -3
-5 -18 16 5 3 1 1 3
-6 -20 14 4 2 0 0 3
-8 -19 15 3 2 -1 0 2
-9 -19 16 4 1 -1 6 6
-8 -18 15 4 0 -2 1 2
-1 -14 16 5 1 -1 0 -5
2 -11 18 8 1 0 2 -5
0 -11 18 7 1 0 0 -6
-5 -15 18 5 1 -1 -2 -5
-3 -15 18 3 0 -2 1 -6
-1 -14 16 5 -1 -3 0 -5
-2 -14 15 2 -1 -4 -2 -6
-4 -15 15 2 -2 -4 -5 -3
-5 -14 16 3 -1 -2 -4 -1
-8 -16 15 4 -2 -3 -6 -4
-8 -16 15 4 -2 -3 -7 -9
-7 -13 16 2 -1 -3 -7 -6
-8 -18 15 4 -1 -4 -5 0
-11 -21 14 3 -2 -4 -3 -7
-11 -22 14 3 -1 -4 -4 -7
-10 -19 15 3 -2 -4 -4 -6
-1 -11 16 8 -1 -4 2 -6
6 -2 20 13 3 1 3 3
4 -2 20 10 4 1 2 3
0 -6 17 8 1 -2 -5 -5
-3 -12 16 5 -1 -3 -7 -6
-3 -15 16 3 0 -2 -5 -7
-4 -13 18 6 2 -1 -3 1
-4 -13 17 5 3 0 -3 7
1 -7 19 8 4 1 -1 8
2 -4 19 11 4 2 2 8
1 -5 18 8 2 0 5 -2
-2 -7 17 5 2 1 1 6
-4 -8 19 8 2 1 0 5
-1 -6 17 7 2 1 -2 3
-1 -10 18 8 2 1 -1 1
-3 -10 16 5 1 0 -5 -3
-3 -11 18 9 2 1 -5 -3
-2 -10 17 8 4 1 -4 0
-1 -5 19 12 4 1 -1 1
-3 -7 18 11 2 0 -2 7
-5 -9 16 5 2 -1 -3 1
-2 -7 17 5 3 0 -1 1
-3 -6 18 6 2 -1 -3 -2
-5 -8 17 7 1 0 -3 0
-3 -7 17 8 3 0 0 0
-3 -9 17 6 3 0 1 -2
-4 -10 19 6 3 0 -2 -3
-4 -11 17 5 3 0 -3 -4
-4 -10 18 7 3 0 -2 -3
-4 -8 17 6 3 3 -2 0
-3 -7 15 7 2 1 -1 -4
-3 -7 15 6 2 1 -2 0
-4 -9 17 5 2 1 3 -4
-4 -9 16 4 2 -1 -1 -2
-4 -6 16 4 1 -1 -6 -5
-4 -6 18 5 2 1 -5 -2
-1 -4 20 8 3 2 -4 0
1 -4 18 9 4 2 -4 3
-2 -5 18 11 2 0 -3 -3
-2 -5 18 10 3 0 -3 2
1 -3 18 9 4 2 -1 7
-2 -7 17 6 2 0 2 3
0 -4 17 6 1 1 3 7
0 -3 18 7 2 0 -1 -2
0 -4 19 6 2 1 -2 -2
2 -4 19 10 2 1 -1 -4
-1 -6 17 7 1 0 -6 -1
-2 -8 16 7 1 0 -5 -2
-4 -8 16 5 0 1 -5 -1
-5 -10 17 6 -1 -2 -5 4
-2 -7 15 3 -2 -3 -2 4
-1 -6 14 4 -1 -3 -3 -5
-6 -9 15 3 -3 -4 -3 -1
-6 -9 16 2 -2 -3 -6 3
-5 -8 17 1 -1 -3 -7 -1
-4 -8 19 2 0 -2 -3 0
-1 -4 19 4 0 -1 -1 -7
-1 -3 18 5 0 -2 -4 -1
-2 -2 19 3 0 -2 -2 -5
-1 0 18 2 -2 -3 -4 -8
-3 -5 17 2 -2 -4 -6 -7
-2 -4 16 1 -3 -5 -7 -8
-4 -7 16 1 -3 -4 -8 -8
-4 -7 16 3 -4 -5 -5 -11
-3 -5 17 5 -3 -4 -7 -3
-3 -5 16 -1 -4 -5 -9 -3
1 -4 15 1 -5 -5 -6 -6
1 -3 16 5 -4 -2 -7 -4
0 -5 16 2 -4 -4 -10 -7
-1 -4 15 3 -6 -7 -10 -7
-3 -5 15 0 -6 -8 -10 -7
-4 -4 16 3 -5 -8 -10 -4
-3 -4 14 0 -6 -8 -10 3
-3 -4 14 -3 -7 -8 -7 -3
-2 -4 14 -3 -6 -8 -3 -6
-4 -7 13 1 -6 -8 -6 -9
-5 -8 12 -1 -7 -10 -13 -8
-1 -4 14 -3 -6 -8 -6 -5
-3 -6 13 -4 -6 -9 -6 -5
-6 -9 12 -3 -8 -10 -11 0
-2 -4 13 -3 -8 -11 -10 -8
-3 -6 12 -5 -8 -11 -9 -10
-2 -2 10 -7 -10 -13 -8 -14
-8 -6 13 -5 -9 -12 -10 -6
-10 -11 12 -5 -8 -11 -12 -1
-9 -9 12 -4 -8 -8 -12 -10
-9 -9 10 -6 -9 -10 -14 -12
-9 -10 10 -4 -10 -13 -14 -8
-3 -5 12 -5 -7 -10 -12 1
-1 -3 11 -4 -8 -8 -8 2
0 0 12 -6 -7 -8 -11 -2
2 -1 11 -6 -7 -10 -12 -12
1 0 11 -5 -7 -9 -11 -1
1 1 11 -3 -8 -10 -7 -2
2 1 10 -2 -9 -10 -10 -5
3 0 11 -2 -7 -10 -9 -4
0 -2 9 -1 -9 -9 -11 -8
-1 -4 7 -4 -10 -9 -13 -15
-1 -4 7 -3 -9 -11 -12 -3
-2 -4 8 -4 -9 -11 -12 -6
-2 -3 8 -4 -9 -10 -11 -9
0 -2 7 -4 -9 -11 -11 -12
-5 -6 7 -6 -11 -12 -14 -12
-4 -5 7 -5 -11 -13 -14 -16
1 -2 6 -5 -10 -12 -11 -9
-2 -5 6 -4 -12 -13 -13 -7
-4 -5 5 -9 -12 -11 -13 -9
-4 -4 7 -8 -11 -10 -14 -7
-3 -6 5 -9 -12 -12 -10 -10
-1 -4 5 -8 -12 -12 -12 -12
-3 -3 6 -8 -11 -11 -14 -14
-5 -4 5 -8 -11 -10 -12 -12
-3 -4 5 -5 -12 -11 -13 -13
-3 -4 4 -4 -13 -12 -13 -16
0 -3 4 -8 -12 -11 -12 -14
-3 -3 5 -7 -11 -11 -11 -13
-5 -3 5 -6 -11 -8 -6 -12
-3 -3 2 -8 -12 -8 -9 -15
-5 -6 2 -6 -11 -12 -13 -11
-3 -5 3 -5 -13 -13 -13 -4
-5 -5 3 -8 -12 -11 -13 -5
-6 -8 1 -7 -12 -12 -14 -11
-7 -7 2 -7 -12 -13 -12 -11
-7 -8 2 -7 -13 -14 -15 -8
-5 -4 2 -8 -12 -14 -16 -10
0 -2 1 -9 -12 -14 -16 -7
2 -4 1 -8 -12 -11 -15 5
1 -3 3 -4 -10 -11 -9 3
-3 -2 3 -4 -9 -10 -11 -11
-3 -3 2 -7 -11 -13 -14 -9
-4 -4 1 -8 -11 -13 -11 -7
-6 -6 0 -9 -13 -15 -16 -7
-5 -5 0 -8 -12 -14 -14 -8
-7 -7 2 -5 -12 -13 -13 -7
-11 -9 0 -9 -13 -14 -14 -4
-6 -4 0 -7 -12 -14 -12 -4
-1 -1 3 2 -9 -10 -13 -7
2 0 2 -1 -10 -8 -11 -13
1 -1 1 -6 -9 -7 -14 -7
-1 -2 1 -6 -10 -12 -13 -5
1 -1 1 -5 -10 -12 -9 -3
1 -1 2 -4 -9 -10 -12 6
-2 -4 1 -5 -9 -12 -13 -1
0 -1 1 -7 -8 -10 -10 -6
-1 -2 2 -7 -9 -11 -7 -2
-3 -5 1 -6 -10 -12 -11 -3
-2 -5 1 1 -9 -11 -9 -1
-1 -4 1 0 -8 -10 -7 2
-1 -5 1 -5 -9 -11 -11 4
-1 -4 1 -8 -8 -9 -6 -2
-3 -4 -1 -7 -10 -10 -4 -6
-3 -5 0 -7 -10 -8 -6 2
-2 -5 -1 -8 -10 -9 -11 -1
0 -2 0 -5 -10 -9 -9 -5
1 -2 -1 -8 -10 -11 -13 -7
-1 -4 -1 -9 -10 -11 -10 -9
0 -5 -2 -8 -9 -11 -11 -5
-1 -6 -2 -5 -10 -11 -13 0
0 -6 -2 -8 -10 -12 -10 1
2 -2 -1 -10 -9 -8 -10 5
-2 -1 2 -8 -7 -6 -12 -3
-5 -5 0 -6 -9 -10 -11 -10
-3 -2 -1 -9 -10 -11 -11 -12
-5 -4 -3 -7 -11 -9 -6 -5
-5 -8 -3 -9 -11 -10 -14 0
-1 -6 -1 -10 -11 -12 -14 -4
-3 -8 -2 -6 -11 -12 -11 -10
-3 -7 -2 -6 -11 -12 -12 -8
-4 -6 -2 -8 -11 -11 -8 8
-4 -7 -3 -10 -9 -8 -11 1
-5 -8 -4 -11 -11 -9 -16 -6
-5 -9 -3 -9 -10 -11 -14 -13
-1 -5 -2 -9 -10 -10 -14 -6
1 -2 -2 -10 -10 -10 -8 -4
0 -3 -1 -9 -10 -9 -5 -4
-2 -5 -2 -9 -10 -10 -10 0
-3 -7 -3 -9 -11 -11 -12 -3
-1 -6 -3 -11 -10 -11 -7 -9
2 -2 -2 -8 -9 -10 -9 -11
0 -5 -1 -8 -8 -9 -11 -12
-3 -5 -1 -9 -8 -9 -11 -2
-1 -4 -1 -6 -9 -8 -11 7
-1 -5 -2 -7 -10 -9 -13 -6
-2 -4 -2 -6 -10 -8 -12 -10
-2 -5 -2 -9 -11 -9 -11 -17
-2 -6 -4 -6 -11 -9 -10 -5
-2 -5 -3 -5 -9 -7 -13 -8
-7 -9 -2 -8 -9 -7 -11 -5
-3 -5 -3 -9 -9 -7 -10 -2
-2 -5 -2 -8 -7 -5 -11 -3
-2 -5 -2 -7 -8 -6 -11 -8
0 -3 -1 -4 -7 -4 -5 -7
-2 -5 -3 -7 -8 -4 -9 -3
-4 -6 -3 -7 -9 -7 -9 -2
-4 -7 -2 -6 -9 -7 -10 2
-5 -8 -3 -8 -8 -6 -12 -3
-1 -5 -2 -7 -7 -2 -8 2
-1 -5 -3 -7 -8 -4 -8 0
-2 -8 -3 -8 -9 -6 -8 -12
0 -5 -3 -8 -8 -5 -7 -13
1 -5 -3 -8 -8 -4 -9 -8
1 -5 -2 -8 -8 -3 -10 2
3 -2 -3 -7 -7 -5 -10 -1
2 -2 -2 -4 -7 -5 -8 -3
2 -2 -1 -4 -6 -4 -8 -1
1 -4 -1 -6 -7 -4 -11 -12
0 -7 -3 -4 -7 -5 -10 -7
-2 -6 -3 -5 -7 -4 -10 -8
-3 -8 -4 -9 -8 -5 -8 -12
-2 -6 -4 -9 -7 -5 -10 -12
-3 -10 -3 -7 -6 -4 -10 -4
-3 -7 -1 -6 -5 -2 -7 -7
-3 -7 -1 -6 -5 -3 -7 -2
-5 -9 -1 -8 -6 -4 -10 -7
-4 -10 -1 -5 -6 -4 -9 -12
-2 -8 0 -4 -4 -3 -7 -7
-3 -8 -2 -7 -6 -5 -10 -7
1 -7 -1 -3 -5 -4 -8 -5
2 -7 -1 -3 -3 -2 -6 -5
-4 -12 -3 -6 -4 -3 -8 -1
-2 -9 -2 -8 -5 -3 -8 -8
-3 -12 -3 -9 -5 -4 -10 -8
-4 -14 -4 -10 -6 -5 -12 -11
-6 -14 -2 -9 -6 -4 -11 -8
-5 -14 -2 -6 -5 -3 -11 -9
-5 -13 -3 -7 -5 -3 -9 -13
0 -9 -2 -8 -4 -2 -6 -11
1 -8 0 -6 -3 -1 -5 -2
2 -7 -1 -7 -4 -2 -5 -5
-1 -10 -1 -8 -3 -1 -6 -5
-3 -10 -1 -6 -2 1 -7 -10
0 -6 -2 -4 -3 0 -7 -6
1 -9 -2 -6 -3 0 -5 -4
1 -8 1 -4 -2 1 0 1
2 -8 -1 -8 -4 -1 -4 -4
-1 -12 -3 -9 -5 -2 -4 -3
-3 -14 -3 -8 -5 -2 -4 0
-2 -12 -2 -8 -4 -2 -10 -3
-1 -12 -2 -5 -4 -1 -6 -1
-1 -11 -1 -6 -3 0 -8 -4
0 -10 -2 -4 -2 1 -4 -10
2 -9 -2 -4 -2 1 -6 -9
2 -10 -2 -6 -3 0 -9 -5
-1 -12 -1 -7 -3 1 -6 3
-2 -13 -2 -6 -4 2 -10 3
-3 -12 -2 -8 -4 0 -10 -4
0 -10 0 -7 -3 1 -8 3
2 -10 -1 -4 -3 1 -5 -1
-1 -12 -2 -4 -4 -1 -7 -11
-3 -13 -2 -7 -2 1 -6 -4
-5 -14 -1 -6 -2 5 -4 2
-4 -15 -1 -3 -3 3 -4 -9
0 -11 -1 -4 -2 2 -5 -4
-1 -11 0 -1 -1 2 -3 2
-1 -11 -1 -5 -2 3 -1 -5
-2 -11 1 -5 0 4 6 -8
-1 -12 -1 -3 -1 3 -1 -8
2 -10 0 -4 0 3 -5 -7
1 -11 0 -5 0 3 -4 -11
-2 -13 -1 -4 -2 4 -4 -3
-3 -14 0 -6 -1 5 -3 -2
-3 -14 1 -2 1 5 -2 1
2 -9 1 -3 2 6 -4 3
4 -7 2 -2 2 7 0 -5
5 -4 3 1 4 9 0 -3
7 -2 5 2 5 9 -2 -6
5 -3 6 1 5 10 -1 2
0 -1 7 2 7 12 4 11
1 0 7 6 9 13 5 12
0 -1 6 4 8 11 0 2
-1 0 8 3 8 13 3 1
4 6 11 5 10 15 3 7
4 6 10 4 9 15 3 6
5 7 10 5 10 14 4 10
4 4 11 7 9 14 3 8
1 1 10 5 9 14 8 5
2 1 8 1 8 12 10 -1
-1 0 9 8 9 14 5 7
3 4 11 10 12 16 4 8
6 7 13 6 13 19 9 25
3 6 11 5 12 25 9 15
5 8 10 5 13 21 7 17
11 14 9 6 15 21 12 11
10 14 8 10 16 23 12 13
10 15 7 13 17 25 11 14
11 15 7 11 19 27 15 17
14 15 8 15 18 24 14 13
16 15 6 15 19 23 14 15
14 12 6 14 18 24 15 11
12 7 4 14 14 21 13 14
7 -1 2 12 11 18 7 16
4 -4 0 8 9 16 5 10
3 -6 -1 3 8 15 4 9
2 -8 -2 1 8 15 6 12
1 -9 -2 0 9 16 11 11
3 -9 0 2 9 17 10 13
4 -8 0 1 8 17 11 10
3 -10 1 0 9 16 5 9
2 -13 -1 -1 6 13 0 8
1 -14 -1 -3 5 13 4 8
4 -12 0 -4 4 12 4 4
1 -14 -1 -4 3 11 2 4
0 -18 0 -2 4 14 0 9
-1 -18 1 -3 5 13 2 7
-2 -22 0 -3 3 11 1 3
-3 -24 -1 -3 2 10 -2 10
-3 -26 -2 -3 1 12 -4 5
-4 -27 -3 -2 1 11 -5 2
-3 -26 -2 -7 1 8 -5 13
-2 -25 -4 -8 1 8 -7 10
-1 -25 -2 -8 0 9 -6 2
0 -27 -3 -6 1 8 -3 6
-1 -29 -3 -6 -1 8 -2 6
-4 -32 -3 -2 -1 7 -5 1
-5 -33 -4 -6 -1 7 -7 1
-5 -33 -3 -4 0 8 -6 5
-1 -29 -1 -8 1 9 -5 11
1 -26 -1 -8 2 9 -5 5
3 -28 -3 -9 0 9 -5 -3
3 -29 -3 -3 0 10 -7 -6
1 -31 -4 -11 -2 8 -8 -5
-4 -31 -2 -10 0 10 -3 -3
-5 -31 -3 -9 0 13 -6 -7
-9 -34 -4 -9 0 11 -8 -12
-8 -35 -2 -5 0 11 -6 -8
-7 -37 -2 -8 0 16 0 -1
-3 -33 -2 -7 1 12 -1 -4
-2 -31 -3 -10 0 11 -3 1
-8 -36 -1 -11 0 11 -6 9
-9 -37 -2 -9 0 10 -6 2
-13 -39 -4 -10 1 10 -6 0
-12 -35 -4 -10 1 10 -6 -5
-4 -29 -1 -2 5 14 -1 -3
-3 -34 2 3 11 17 -1 -1
-2 -39 5 8 12 17 -2 4
1 -45 9 22 18 21 0 -8
1 -51 16 33 25 23 -3 -11
1 -52 27 45 35 30 -5 -11
1 -50 40 61 49 39 -3 -16
0 -43 55 82 65 51 4 -16
2 -37 65 91 75 59 11 -14
3 -27 76 107 91 78 27 1
8 -14 85 128 113 103 48 13
9 -3 90 141 136 128 74 35
12 10 92 145 153 154 101 71
22 31 94 156 175 187 139 98
30 57 78 155 193 218 174 126
35 86 54 149 204 246 214 160
43 116 29 144 218 274 251 202
45 151 0 125 230 307 290 236
36 178 -21 85 205 291 291 258
12 185 -38 -2 118 195 235 246
-11 165 -51 -79 24 85 149 205
-22 140 -68 -132 -44 10 84 156
-26 111 -80 -175 -95 -43 39 121
-27 90 -93 -207 -133 -80 6 98
-28 74 -108 -214 -149 -95 -14 80
-26 54 -114 -206 -141 -93 -19 54
-19 38 -118 -193 -131 -85 -27 41
-17 22 -118 -182 -125 -81 -34 26
-17 8 -113 -173 -123 -82 -41 8
-15 1 -105 -156 -112 -73 -43 -1
-12 -4 -97 -141 -103 -70 -42 -1
-13 -8 -89 -128 -93 -65 -41 0
-10 -7 -77 -108 -79 -54 -35 15
-6 -7 -65 -89 -64 -41 -28 7
-3 -1 -51 -71 -49 -29 -19 8
-5 -2 -38 -56 -36 -19 -11 3
-10 -9 -28 -43 -27 -12 -11 1
-7 -11 -21 -32 -17 -6 -7 3
-9 -13 -14 -23 -11 -1 -4 3
-11 -15 -10 -17 -7 3 -1 2
-7 -16 -7 -15 -4 3 1 10
-11 -21 -7 -14 -3 4 -2 4
-13 -25 -6 -11 -3 5 -2 -5
-10 -22 -6 -11 -2 5 -2 -3
-9 -21 -3 -8 0 8 -1 10
-7 -20 -1 -5 3 8 1 16
-8 -19 -1 -3 3 9 0 9
-8 -21 0 -6 3 9 0 10
-5 -22 2 -2 7 12 -1 4
-7 -23 2 1 9 15 3 7
-4 -21 4 3 11 15 3 6
-5 -22 4 3 10 14 3 -2
-5 -23 3 4 9 12 2 1
-6 -23 3 4 9 13 1 0
-7 -25 3 3 7 15 3 -5
-8 -24 5 1 9 14 1 -4
-5 -21 5 3 9 13 0 1
-4 -19 6 4 9 14 2 2
0 -16 8 10 13 17 2 3
-4 -20 8 10 14 15 3 -1
-5 -22 9 8 14 16 6 4
-4 -22 8 9 13 16 4 -3
-5 -22 7 7 13 16 4 -1
-6 -21 8 10 13 18 9 1
-5 -20 9 13 13 19 3 1
-7 -22 9 9 13 15 3 2
-8 -22 10 12 15 17 4 16
-8 -21 10 15 14 17 4 8
-5 -20 9 10 14 17 4 4
-6 -20 8 12 15 16 3 9
-7 -21 8 10 14 17 2 3
-6 -18 7 8 13 15 6 4
-6 -21 8 13 14 18 6 9
-8 -22 9 13 14 18 4 2
-6 -19 10 12 15 17 7 3
-4 -16 10 12 16 17 6 7
-3 -15 9 11 15 17 4 -5
-3 -15 11 12 16 19 9 0
-3 -16 11 13 17 18 7 2
-4 -17 9 12 17 17 6 -3
-3 -17 9 17 16 18 6 7
-3 -17 9 16 16 18 6 4
-3 -15 8 19 17 20 7 0
-3 -13 11 16 20 20 10 8
-2 -13 9 12 18 20 9 4
-2 -13 9 13 19 19 6 11
-2 -14 10 14 19 20 7 -4
-4 -16 11 14 18 20 13 3
-3 -16 12 16 21 24 12 2
-3 -15 11 21 20 22 11 5
-1 -13 10 20 20 21 10 9
-3 -13 10 17 20 22 9 1
-4 -15 10 21 22 23 7 9
-3 -14 10 21 23 24 9 9
-2 -13 10 19 22 23 8 9
-2 -13 10 16 22 23 13 -1
-4 -13 10 18 23 24 15 5
-8 -15 11 20 23 25 11 3
-4 -14 11 20 24 25 10 1
-3 -13 12 22 26 27 17 9
-4 -15 11 22 24 27 19 6
-5 -16 10 21 24 25 14 -2
-4 -14 9 21 25 24 13 5
-1 -12 11 23 27 27 17 9
1 -9 11 24 27 28 14 19
1 -8 11 24 28 28 18 12
1 -8 11 26 29 31 23 10
2 -8 10 29 28 30 16 7
0 -9 11 27 29 30 16 0
2 -8 11 29 31 32 18 6
2 -8 10 32 31 31 22 13
4 -6 11 31 33 32 20 17
4 -6 10 31 33 33 18 13
2 -7 10 33 34 34 22 15
1 -6 9 35 33 34 20 9
-2 -8 9 34 34 33 23 15
4 -3 9 36 35 34 21 22
8 0 10 36 37 39 25 14
8 0 11 38 39 40 24 17
7 0 11 43 39 39 25 24
4 -2 10 41 41 39 27 20
3 -3 9 41 40 39 30 17
4 -1 9 42 41 41 28 30
6 1 8 43 44 44 28 22
6 3 9 50 44 44 30 24
8 7 9 53 44 44 32 38
9 9 8 53 46 46 32 31
11 10 9 48 48 48 36 31
13 11 10 49 50 51 37 30
14 12 10 54 52 51 40 31
11 13 8 53 53 53 41 34
11 13 6 51 52 53 40 35
12 13 7 53 55 56 43 40
11 14 7 54 57 57 47 37
14 18 8 56 58 59 49 44
19 26 9 59 61 62 51 48
17 24 8 61 61 62 52 43
14 19 4 57 59 64 53 40
19 24 5 59 62 64 53 40
20 25 4 59 63 65 56 34
22 28 4 65 65 70 62 40
22 29 3 68 66 71 60 40
20 30 3 64 67 70 61 39
20 34 0 64 66 71 63 42
19 31 -1 64 66 71 62 45
21 32 -1 62 67 71 67 50
24 35 -1 64 67 73 67 51
27 38 0 63 69 74 66 52
27 40 0 65 69 78 69 52
21 38 -2 65 69 81 74 52
22 37 -3 62 69 77 72 49
24 41 -3 64 69 78 70 56
26 42 -3 63 68 76 69 61
27 42 -4 61 69 77 71 60
25 40 -5 61 65 74 69 63
21 38 -6 58 64 72 69 72
23 41 -6 60 65 74 70 70
25 44 -5 58 66 76 71 68
23 42 -5 57 65 73 71 56
23 43 -5 55 65 73 73 60
25 45 -8 55 62 71 71 64
25 43 -9 53 61 75 70 64
29 47 -9 50 60 72 72 65
29 48 -9 48 60 69 75 63
28 47 -8 49 59 69 78 62
28 48 -8 49 57 68 72 68
26 48 -7 50 56 64 71 81
22 45 -8 46 54 62 68 76
20 40 -8 44 51 59 69 66
18 37 -9 42 49 56 60 56
20 37 -7 44 49 56 65 64
20 36 -6 39 47 54 62 60
19 36 -6 33 45 53 55 54
18 35 -5 31 43 51 54 49
16 33 -4 28 41 48 51 41
17 32 -3 28 38 44 46 46
14 28 -2 31 38 43 44 43
13 25 -1 24 34 40 39 32
13 25 2 27 34 38 37 42
9 19 3 24 32 36 37 52
6 15 2 18 29 32 34 34
-1 8 2 15 26 28 25 21
-1 6 2 12 23 24 19 16
1 7 4 11 21 22 16 9
-2 3 4 12 19 19 16 14
-2 1 4 8 15 16 14 14
-5 -3 5 7 15 15 9 4
-7 -4 7 6 15 13 8 -8
-5 -4 7 7 11 11 5 -6
-6 -9 6 2 10 9 2 -10
-5 -8 7 1 9 8 2 -8
-2 -6 8 1 10 9 5 3
-4 -6 7 0 9 7 3 6
-6 -8 8 -1 8 5 -1 -11
-6 -8 8 -3 5 3 -3 -14
-5 -8 7 -3 2 0 -5 -7
-3 -10 7 -4 2 0 4 -15
-5 -12 7 -7 0 0 0 -19
-5 -13 6 -8 -2 -4 -8 -14
-9 -16 8 -7 0 -2 -6 -8
-15 -18 8 -8 -2 -2 -7 -15
-13 -18 6 -7 -2 -4 -6 -24
-12 -18 5 -10 -2 -4 -6 -15
-13 -18 4 -12 -3 -6 -10 -18
-14 -20 5 -10 -4 -6 -9 -23
-15 -21 4 -14 -7 -9 -7 -25
-13 -20 4 -13 -6 -8 -9 -22
-11 -17 6 -11 -5 -7 -7 -19
-8 -16 6 -8 -3 -6 -9 -18
-6 -16 6 -10 -4 -7 -6 -21
-7 -15 6 -13 -3 -8 1 -23
-9 -16 7 -13 -5 -8 -10 -17
-8 -15 7 -12 -5 -8 -12 -17
-10 -15 6 -12 -5 -7 -11 -21
-11 -16 6 -14 -6 -9 -8 -10
-10 -17 6 -14 -6 -9 -11 -6
-9 -16 6 -12 -7 -10 -13 -10
-6 -14 6 -13 -7 -9 -12 -4
-7 -15 7 -14 -8 -10 -12 -23
-9 -16 6 -13 -7 -10 -11 -20
-11 -18 6 -11 -6 -9 -12 -10
-15 -21 5 -10 -7 -10 -12 -16
-15 -19 5 -11 -8 -10 -9 -19
-14 -16 7 -12 -7 -8 -8 -10
-11 -15 8 -10 -6 -8 -10 -12
-9 -13 7 -11 -7 -9 -10 -10
-11 -16 7 -12 -7 -9 -9 -14
-13 -18 6 -14 -8 -9 -10 -16
-10 -17 7 -13 -8 -10 -6 -20
-10 -17 6 -13 -8 -9 -5 -13
-11 -16 7 -13 -7 -9 -11 -10
-8 -14 7 -11 -7 -8 -12 -13
-9 -15 6 -11 -7 -8 -12 -5
-9 -14 6 -14 -6 -9 -11 -2
-11 -15 7 -13 -6 -9 -7 -18
-11 -16 7 -10 -7 -9 -9 -17
-10 -15 7 -11 -6 -9 -10 -16
-9 -14 6 -14 -7 -10 -11 -11
-9 -16 6 -11 -6 -9 -13 -13
-6 -11 8 -9 -4 -8 -10 -11
-10 -14 10 -11 -4 -8 -9 -12
-12 -16 7 -13 -7 -9 -8 -19
-13 -17 7 -10 -6 -9 -9 -19
-11 -14 6 -11 -7 -9 -7 -15
-6 -11 6 -12 -6 -9 -7 -13
-7 -12 7 -14 -6 -9 -12 -9
-6 -12 8 -10 -6 -8 -8 0
-5 -10 7 -12 -7 -9 -4 -9
-7 -14 6 -13 -9 -7 -8 -15
-6 -13 5 -12 -9 -8 -2 -4
-10 -14 7 -10 -7 -9 -5 -6
-10 -13 6 -13 -8 -10 -8 -9
-10 -12 6 -8 -7 -9 -8 -18
-10 -13 5 -10 -8 -9 -9 -5
-10 -13 5 -13 -9 -9 -3 -10
-9 -11 6 -12 -7 -9 -7 -7
-12 -13 6 -11 -7 -9 -10 -10
-9 -12 7 -7 -6 -9 -8 -15
-8 -12 7 -9 -7 -10 -10 -18
-10 -14 7 -10 -8 -8 -10 -12
-10 -13 6 -9 -7 -7 -8 -21
-7 -11 6 -11 -8 -6 -7 -15
-4 -10 6 -11 -8 -9 -8 -20
-5 -10 7 -12 -7 -7 -8 -20
-7 -11 7 -12 -8 -7 -9 -19
-6 -11 7 -10 -9 -6 -4 -24
-8 -13 8 -9 -8 -8 -7 -19
-8 -13 7 -9 -8 -9 -9 -11
-8 -14 7 -11 -9 -9 -11 -11
-9 -17 6 -12 -9 -10 -9 -16
-10 -15 6 -13 -9 -10 -5 -10
-11 -15 6 -13 -9 -10 -9 -10
-9 -13 8 -12 -9 -9 -8 -8
-7 -11 8 -10 -9 -9 -4 -10
-9 -14 7 -13 -9 -9 -6 -14
-9 -14 7 -14 -10 -12 -9 -14
-10 -16 6 -13 -10 -10 -10 -8
-10 -17 4 -13 -10 -10 -8 -14
-7 -15 5 -12 -9 -7 -7 -10
-8 -15 4 -14 -10 -11 -7 -13
-9 -15 3 -14 -9 -11 -8 -9
-7 -14 3 -14 -10 -9 -9 -19
-8 -15 3 -12 -9 -9 -8 4
-9 -15 2 -13 -10 -11 -6 -9
-12 -18 3 -11 -11 -12 -9 -15
-12 -19 1 -14 -12 -15 -12 -9
-10 -18 1 -13 -12 -14 -12 -12
-9 -17 1 -15 -12 -13 -12 -11
-7 -16 2 -12 -12 -14 -10 -18
-5 -15 1 -10 -12 -15 -11 -20
-7 -17 1 -17 -12 -15 -12 -21
-7 -15 2 -17 -12 -15 -10 -19
-7 -15 4 -15 -11 -13 -9 -17
-9 -17 1 -17 -13 -15 -14 -8
-8 -15 1 -17 -12 -16 -14 -9
-10 -17 1 -17 -12 -16 -13 -22
-14 -20 0 -17 -13 -17 -13 -29
-13 -21 0 -18 -15 -18 -13 -21
-8 -20 0 -19 -14 -18 -13 -20
-8 -19 0 -19 -14 -15 -11 -27
-11 -20 0 -19 -13 -15 -13 -17
-13 -20 2 -18 -11 -15 -14 -9
-13 -21 1 -19 -13 -16 -15 -15
-15 -23 -2 -18 -15 -18 -15 -22
-14 -21 -1 -19 -14 -19 -17 -27
-13 -21 0 -20 -14 -17 -16 -18
-15 -23 -1 -21 -15 -18 -16 -12
-17 -27 -3 -23 -17 -20 -18 -17
-17 -27 -2 -24 -16 -20 -15 -21
-12 -23 0 -19 -14 -19 -15 -21
-5 -17 1 -17 -13 -17 -13 -18
-7 -19 1 -21 -14 -18 -14 -20
-7 -18 0 -23 -13 -18 -14 -18
-7 -19 0 -21 -14 -19 -15 -19
-12 -20 0 -20 -13 -18 -14 -23
-12 -20 0 -22 -13 -18 -15 -24
-9 -19 0 -20 -13 -19 -17 -25
-13 -22 1 -21 -13 -19 -15 -17
-16 -24 2 -20 -14 -20 -15 -22
-14 -23 1 -21 -15 -20 -16 -29
-12 -21 2 -22 -14 -19 -16 -11
-10 -19 1 -21 -14 -19 -16 -10
-10 -19 -1 -24 -16 -20 -16 -19
-10 -21 1 -19 -15 -19 -17 -18
-7 -19 0 -22 -15 -20 -14 -21
-10 -21 0 -20 -15 -20 -14 -23
-10 -21 0 -21 -16 -20 -11 -21
-10 -23 2 -20 -14 -18 -11 -20
-11 -23 2 -18 -14 -18 -17 -15
-11 -22 1 -22 -15 -20 -18 -32
-12 -25 1 -20 -15 -19 -17 -34
-10 -24 1 -21 -15 -19 -17 -26
-10 -23 0 -26 -17 -18 -15 -22
-10 -24 1 -23 -17 -17 -14 -25
-10 -22 1 -23 -15 -18 -16 -25
-8 -19 3 -24 -14 -19 -15 -27
-8 -21 3 -25 -14 -18 -12 -23
-10 -22 3 -24 -15 -16 -16 -24
-8 -19 2 -24 -14 -18 -13 -19
-8 -19 2 -24 -14 -20 -14 -19
-10 -23 0 -27 -16 -23 -19 -30
-9 -22 2 -23 -16 -19 -17 -27
-8 -23 2 -24 -16 -20 -16 -32
-12 -26 -1 -27 -18 -24 -20 -30
-13 -24 1 -21 -15 -23 -18 -26
-13 -22 3 -19 -15 -22 -16 -23
-11 -21 3 -21 -15 -22 -13 -23
-9 -22 2 -22 -15 -21 -15 -27
-10 -22 2 -25 -14 -22 -15 -22
-12 -24 1 -26 -16 -23 -18 -24
-11 -23 1 -23 -16 -22 -18 -22
-11 -24 0 -25 -17 -23 -18 -18
-13 -23 0 -24 -17 -24 -17 -19
-12 -24 -1 -22 -18 -24 -13 -23
-12 -24 -1 -25 -19 -25 -12 -31
-12 -23 -1 -27 -19 -26 -17 -27
-14 -27 -2 -28 -19 -25 -17 -28
-12 -24 -3 -26 -19 -25 -17 -37
-10 -22 -1 -26 -18 -24 -18 -36
-10 -22 0 -24 -16 -23 -17 -24
-8 -19 -1 -24 -17 -24 -18 -19
-6 -18 0 -23 -16 -22 -11 -19
-10 -21 -1 -27 -17 -23 -12 -23
-11 -21 -1 -28 -17 -24 -18 -19
-10 -21 0 -28 -18 -24 -18 -22
-10 -21 0 -26 -17 -23 -18 -21
-10 -20 -1 -27 -18 -24 -20 -26
-11 -23 0 -26 -18 -21 -17 -24
-12 -23 -1 -26 -19 -22 -18 -18
-12 -23 0 -26 -17 -22 -16 -16
-10 -21 0 -25 -16 -21 -15 -18
-8 -19 -1 -26 -17 -22 -18 -23
-9 -21 -2 -27 -16 -23 -17 -16
-8 -19 -3 -25 -18 -22 -18 -21
-10 -21 -2 -22 -17 -21 -17 -22
-11 -24 -3 -24 -18 -22 -18 -28
-11 -21 -2 -23 -17 -22 -16 -24
-14 -22 -1 -23 -16 -21 -14 -20
-12 -20 0 -23 -16 -20 -17 -29
-9 -16 1 -24 -16 -21 -17 -17
-7 -16 1 -23 -15 -20 -16 -17
-6 -16 -2 -24 -17 -22 -18 -25
-6 -15 -1 -24 -17 -21 -15 -25
-8 -16 0 -24 -17 -22 -17 -26
-9 -17 -1 -24 -17 -22 -17 -25
-8 -16 -1 -21 -18 -23 -16 -24
-12 -19 -2 -19 -18 -23 -15 -32
-11 -18 -2 -25 -19 -24 -17 -27
-9 -18 0 -23 -17 -22 -15 -20
-5 -13 0 -19 -16 -20 -17 -22
-5 -13 0 -14 -16 -20 -14 -14
-4 -12 1 -15 -16 -20 -15 -19
-7 -14 -1 -22 -18 -22 -18 -19
-6 -13 -1 -23 -18 -22 -19 -22
-5 -12 0 -17 -17 -21 -16 -24
-5 -13 -2 -16 -17 -19 -18 -18
-6 -15 -3 -24 -18 -21 -20 -21
-5 -15 -2 -21 -18 -21 -18 -22
-5 -12 2 -18 -15 -19 -15 -19
-4 -11 1 -19 -16 -20 -16 -19
-4 -13 1 -23 -16 -20 -17 -24
-6 -13 0 -24 -17 -21 -18 -27
-9 -17 -2 -23 -18 -22 -16 -24
-10 -18 -1 -22 -19 -21 -17 -25
-9 -17 -1 -22 -19 -21 -15 -25
-8 -16 -2 -23 -19 -22 -14 -17
-8 -16 -2 -24 -20 -22 -19 -19
-10 -19 -1 -21 -19 -21 -16 -25
-12 -19 -1 -22 -19 -20 -16 -10
-12 -18 -2 -24 -18 -21 -20 -21
-13 -20 -2 -24 -19 -21 -19 -30
-11 -18 -1 -22 -18 -20 -19 -23
-9 -15 -1 -19 -19 -21 -18 -17
-7 -13 0 -22 -18 -19 -18 -12
-8 -13 0 -23 -17 -16 -17 -17
-8 -13 -1 -23 -17 -18 -14 -22
-6 -12 -1 -19 -17 -20 -16 -23
-6 -11 -1 -18 -17 -20 -14 -22
-9 -16 -2 -20 -18 -21 -17 -21
-9 -16 -1 -20 -17 -21 -16 -22
-9 -16 -1 -21 -17 -20 -17 -15
-4 -11 1 -21 -16 -19 -16 -20
-3 -10 0 -21 -16 -19 -14 -19
-7 -14 -1 -22 -17 -20 -16 -18
-7 -15 -1 -20 -18 -21 -14 -17
-7 -13 -1 -21 -18 -20 -16 -14
-5 -10 0 -21 -17 -20 -15 -13
-2 -7 2 -16 -16 -19 -12 -16
-1 -6 0 -17 -17 -21 -17 -20
-3 -9 0 -17 -16 -20 -15 -14
-5 -11 0 -17 -16 -19 -14 -15
-7 -13 1 -17 -17 -19 -14 -15
-9 -12 1 -19 -17 -20 -14 -19
-10 -12 0 -22 -17 -20 -10 -22
-9 -13 -1 -22 -18 -20 -11 -14
-6 -10 1 -18 -16 -18 -10 -14
-7 -9 0 -18 -16 -18 -15 -23
-7 -12 1 -20 -16 -19 -14 -21
-7 -13 1 -19 -18 -19 -15 -9
-8 -13 0 -20 -17 -19 -10 -5
-6 -13 1 -18 -17 -18 -12 -12
-6 -13 1 -17 -17 -17 -15 -11
-7 -13 -1 -21 -19 -19 -17 -17
-7 -13 -1 -16 -17 -19 -16 -21
-6 -13 0 -16 -18 -18 -13 -16
-3 -8 1 -18 -17 -17 -13 -9
-2 -7 2 -18 -16 -17 -9 -15
-4 -12 2 -20 -16 -16 -8 -10
-4 -12 1 -19 -17 -14 -10 1
-2 -10 1 -19 -17 -16 -15 -8
-3 -12 0 -19 -17 -17 -13 -21
-4 -7 2 -16 -16 -16 -14 -12
-3 -8 2 -16 -15 -16 -14 -15
0 -8 2 -18 -15 -15 -15 -15
-3 -9 2 -18 -17 -17 -15 -20
-7 -12 1 -17 -18 -18 -17 -16
-7 -12 2 -12 -18 -17 -15 -3
-7 -15 2 -10 -17 -17 -17 12
-8 -14 1 -15 -17 -17 -16 -4
-7 -15 1 -16 -17 -17 -17 -19
-5 -13 1 -19 -17 -17 -17 -11
-3 -12 3 -17 -16 -16 -15 -9
-2 -9 2 -12 -16 -16 -16 -17
-3 -8 2 -15 -16 -17 -16 -18
-3 -9 3 -14 -15 -16 -13 -18
-4 -10 0 -18 -17 -17 -15 -9
-3 -10 2 -17 -15 -12 -16 -9
0 -8 3 -16 -15 -16 -13 -15
-4 -12 2 -17 -16 -17 -13 -18
-7 -13 2 -15 -17 -18 -16 -20
-7 -14 3 -16 -17 -17 -15 -19
-5 -11 2 -17 -17 -17 -14 -18
-3 -9 2 -16 -16 -16 -10 -8
-4 -10 2 -17 -16 -16 -10 -9
-6 -11 4 -16 -16 -16 -13 -18
-6 -11 4 -15 -16 -15 -13 -14
-6 -10 3 -13 -16 -15 -14 -19
-1 -6 5 -12 -14 -14 -11 -7
-2 -4 5 -12 -13 -14 -9 -15
-6 -7 6 -11 -13 -13 -9 -14
-4 -4 7 -9 -13 -14 -10 -16
-2 -1 9 -10 -11 -11 -9 -17
-2 2 11 -5 -7 -9 -6 -10
3 8 11 -6 -7 -7 -7 -4
4 10 11 -5 -6 -3 -5 -13
4 10 11 -5 -7 -4 -5 3
4 12 12 -3 -6 -6 -4 -1
3 10 12 0 -7 -7 -2 -9
1 7 12 -4 -7 -7 -5 -3
1 5 13 -3 -7 -7 -2 -2
0 7 11 -3 -9 -7 -5 0
2 10 12 -3 -7 -6 -2 -2
0 11 11 -4 -7 -6 -2 -8
2 12 14 -2 -4 -2 1 -8
2 15 14 1 -3 -2 2 7
1 15 12 -1 -3 0 5 8
3 17 10 1 -2 1 7 1
6 18 9 2 -2 3 2 -4
7 18 7 0 -2 1 1 -4
6 17 8 1 0 5 5 7
8 19 8 6 2 6 6 1
12 21 9 5 2 4 11 2
11 17 5 1 0 2 6 6
5 10 5 3 -2 2 2 6
5 11 5 4 -3 1 0 -2
7 12 3 -1 -5 -3 -1 -5
9 12 4 -3 -6 -3 1 15
7 9 2 -4 -8 -3 -2 9
2 6 3 -3 -6 -4 -1 -5
5 9 4 0 -5 -3 -1 -7
7 7 4 -3 -6 -4 -3 -3
3 -1 3 -6 -8 -5 -4 -1
-2 -7 3 -8 -10 -8 -5 -2
-7 -10 0 -12 -14 -12 -11 -9
-9 -12 -1 -12 -17 -14 -11 -8
-5 -10 0 -10 -16 -14 -10 -12
-5 -9 1 -11 -15 -13 -6 -17
-7 -10 1 -10 -16 -14 -10 -14
-8 -13 2 -11 -16 -15 -12 -7
-6 -12 2 -11 -15 -13 -11 -12
-1 -9 2 -11 -15 -11 -8 -8
2 -7 1 -12 -16 -12 -13 -10
0 -8 -1 -13 -17 -16 -13 -13
-3 -13 -3 -13 -19 -18 -10 -13
-6 -16 -4 -16 -20 -18 -16 -13
-5 -16 -3 -16 -19 -18 -14 -13
-6 -15 -1 -14 -19 -17 -15 -12
-6 -17 -2 -8 -19 -17 -17 -15
-4 -16 -3 -9 -21 -19 -18 -13
-7 -16 -4 -16 -22 -20 -19 -11
-7 -15 -3 -17 -22 -19 -17 -16
-5 -18 -3 -17 -20 -18 -16 -19
-5 -20 -4 -16 -22 -21 -19 -22
-5 -20 -4 -18 -22 -19 -18 -19
-4 -19 -5 -16 -23 -19 -15 -11
-3 -15 -2 -15 -20 -19 -16 -12
-1 -12 0 -15 -19 -17 -15 -12
-4 -17 -2 -11 -20 -18 -16 -17
-6 -16 -5 -13 -22 -20 -17 -28
-7 -17 -2 -15 -19 -18 -15 -25
-7 -18 -2 -15 -19 -18 -15 -23
-5 -17 -2 -13 -18 -19 -13 -17
-7 -17 -3 -10 -19 -19 -13 -21
-5 -14 -2 -15 -18 -19 -15 -10
-4 -13 -2 -14 -19 -18 -16 -8
-7 -17 -2 -12 -18 -18 -16 -18
-4 -15 -1 -12 -17 -16 -14 -25
-5 -18 -1 -12 -16 -17 -15 -29
-5 -21 -1 -9 -14 -15 -15 -21
-2 -19 3 1 -8 -11 -13 -19
-2 -28 8 8 -4 -9 -16 -20
2 -30 13 16 2 -7 -16 -24
5 -30 22 31 11 -1 -17 -18
3 -32 34 47 23 6 -15 -30
4 -26 48 68 40 18 -8 -31
6 -18 62 81 53 28 1 -26
4 -14 71 92 64 39 10 -20
8 -1 79 109 83 59 25 -12
10 8 85 125 105 84 54 15
14 21 90 136 125 111 83 30
24 40 92 147 146 140 118 59
32 61 83 157 168 175 152 86
40 92 61 150 182 203 181 131
42 119 42 143 198 231 218 168
48 152 16 139 216 267 260 208
51 187 -6 116 215 281 284 230
29 203 -24 45 152 218 252 224
0 190 -40 -42 56 107 176 191
-15 168 -51 -101 -21 20 106 158
-24 138 -68 -150 -79 -40 54 127
-27 111 -84 -193 -126 -85 13 99
-30 95 -100 -214 -152 -109 -11 76
-27 80 -107 -212 -155 -113 -24 57
-18 65 -111 -199 -144 -106 -29 38
-13 50 -111 -185 -134 -102 -33 31
-13 34 -107 -176 -134 -104 -43 10
-12 23 -100 -162 -126 -99 -46 -4
-10 16 -94 -145 -116 -92 -47 -3
-6 13 -83 -129 -106 -85 -44 -1
-7 10 -75 -114 -94 -76 -42 -7
-5 8 -64 -96 -80 -65 -36 -10
-3 10 -53 -80 -66 -52 -28 -7
-7 7 -42 -66 -56 -46 -25 11
-10 3 -32 -50 -46 -38 -20 1
-8 5 -20 -35 -34 -28 -12 2
-4 6 -10 -27 -25 -20 -9 -4
2 9 -5 -19 -19 -17 -9 -8
0 4 -2 -15 -15 -13 -8 -8
-4 -1 -2 -7 -14 -14 -9 1
2 1 1 -4 -12 -12 -9 1
4 2 0 -10 -12 -11 -7 -9
-1 -2 0 -13 -13 -11 -7 0
-2 -2 2 -11 -12 -12 -9 5
-3 -3 4 -9 -9 -9 -8 -7
-3 -2 5 -5 -8 -8 -7 -11
-5 -6 5 -3 -7 -7 -8 -5
-4 -7 6 -2 -6 -6 -8 -7
-2 -5 4 -4 -5 -4 -8 10
0 -3 6 -3 -4 -2 -5 6
0 -3 5 -1 -3 -3 -5 4
0 -2 6 -2 -3 -2 -4 5
0 -2 5 -3 -3 -2 -5 4
1 -2 6 -2 -3 -2 -6 4
-2 -6 8 -1 -2 -1 -6 2
-2 -5 8 2 -3 -3 -5 -2
3 -4 7 4 -2 -1 -7 1
3 -4 8 6 -1 -1 -6 -11
1 -7 7 5 -1 -1 -6 -5
-1 -8 7 7 0 -1 -5 3
-1 -8 7 9 0 -1 -4 2
2 -4 9 14 1 2 -3 -3
2 -3 8 10 1 1 1 -3
2 -2 9 11 1 1 1 -3
3 0 9 16 1 4 -5 -5
0 -4 9 17 0 1 -4 -2
1 -4 10 17 1 0 -1 -4
2 -1 12 17 3 2 2 4
-3 -2 13 21 5 4 2 10
-2 -3 11 16 4 3 -1 5
2 -1 11 19 5 4 0 -1
5 3 11 20 6 5 0 3
5 2 11 16 6 5 0 13
3 -1 10 16 4 3 -1 4
1 -1 11 21 6 5 0 8
-1 -2 12 22 5 3 3 6
-3 -5 12 20 6 4 3 -1
-1 -4 13 19 7 5 -1 4
3 -1 12 21 7 6 -2 1
5 1 13 22 9 7 1 6
8 3 13 20 10 8 1 -2
5 1 13 20 10 8 3 -2
8 4 13 20 11 9 11 10
6 4 14 22 12 12 7 10
3 2 13 24 13 12 2 6
6 6 14 27 14 11 4 15
6 5 14 24 14 11 6 13
4 0 15 26 14 14 6 12
3 -1 12 24 13 14 2 4
-2 -5 11 23 12 11 2 11
2 0 12 24 14 11 1 11
4 2 13 26 16 13 3 8
2 0 10 26 13 12 1 4
3 0 11 27 14 13 4 4
5 3 11 31 15 14 0 10
5 3 12 31 15 14 1 17
6 4 14 35 17 16 3 14
1 -1 13 34 17 16 0 10
2 -1 12 30 19 15 0 10
5 3 12 31 19 17 8 6
6 5 11 37 20 18 3 19
7 7 13 39 23 20 5 26
8 8 12 34 23 21 6 24
7 8 13 35 22 21 5 21
9 8 12 37 23 24 6 22
7 7 12 37 23 21 8 23
8 7 12 36 23 21 9 14
6 7 13 43 26 23 9 28
9 8 11 43 27 24 11 23
10 9 12 43 28 27 14 17
9 10 11 41 29 26 12 17
10 13 12 43 29 28 14 21
15 16 12 45 31 29 13 24
11 12 9 42 29 27 15 26
10 13 8 43 30 28 17 24
9 14 9 46 32 29 21 19
12 16 10 52 34 32 20 25
16 18 12 53 36 35 19 32
18 18 10 50 36 36 19 35
17 18 8 49 37 35 20 30
16 19 9 52 40 38 22 31
14 19 9 54 41 40 25 41
18 23 7 52 43 40 24 51
17 24 7 54 43 41 26 45
16 22 7 57 43 41 30 36
16 23 7 60 45 42 31 31
14 26 7 59 46 46 30 32
16 24 8 62 49 49 33 39
22 28 7 65 50 48 34 47
23 30 7 70 51 50 38 48
25 32 7 67 54 53 38 45
24 33 5 68 53 53 37 43
24 33 3 67 54 53 38 46
23 34 4 68 55 55 41 47
23 35 3 69 57 57 43 58
22 36 3 68 60 61 46 63
23 39 2 69 61 62 49 68
24 39 3 71 62 63 51 61
27 43 3 72 64 65 57 58
26 43 2 75 65 68 60 60
27 43 1 74 65 73 60 59
25 43 -1 75 65 71 60 55
28 46 -2 74 67 74 58 60
34 54 0 77 70 77 62 70
36 57 0 79 71 77 62 75
34 54 -2 76 70 76 64 80
36 56 -1 77 71 78 64 84
34 53 -2 79 70 76 64 81
31 52 -3 78 70 76 66 73
35 57 -2 78 71 77 68 82
39 61 -3 76 72 78 69 90
39 63 -3 76 73 80 71 97
39 63 -5 74 72 81 71 91
36 62 -4 75 71 82 72 86
36 63 -4 75 71 80 71 95
38 64 -5 76 72 80 71 89
36 63 -6 77 71 79 70 94
31 58 -6 71 69 77 70 88
30 58 -8 69 68 77 71 80
30 60 -8 68 68 76 72 82
33 63 -9 69 67 75 72 77
32 62 -9 67 66 74 73 83
32 65 -10 63 65 76 74 94
32 63 -10 61 62 71 71 93
33 65 -10 61 63 71 69 94
34 67 -9 60 63 71 69 89
34 65 -9 57 60 68 67 84
34 63 -7 58 60 70 66 80
29 59 -7 55 57 68 63 88
27 56 -7 53 56 65 62 85
28 56 -6 51 55 65 59 89
26 55 -6 52 53 61 57 86
26 54 -7 50 51 58 55 85
27 53 -5 51 48 53 50 72
23 48 -4 50 46 53 46 63
22 46 -1 45 45 50 45 63
22 42 -1 40 42 45 40 57
20 39 1 38 41 45 38 61
20 38 2 37 40 45 35 65
17 34 2 38 38 39 32 53
16 30 2 34 35 35 31 47
13 27 2 30 33 33 28 42
9 24 1 27 31 29 20 40
10 24 3 26 27 26 17 40
8 21 2 25 26 24 18 27
7 20 3 26 24 25 19 37
6 17 4 26 24 23 11 36
1 12 5 23 23 19 11 35
5 11 4 19 20 17 8 35
7 11 4 18 19 16 5 32
6 11 4 17 18 14 3 40
5 12 5 16 17 13 3 27
0 8 3 17 15 14 -1 21
-1 5 3 15 11 9 -3 31
1 7 2 13 12 8 -3 29
-2 6 3 15 10 8 -4 28
-2 3 3 14 9 6 -5 28
3 6 5 12 9 6 -4 23
7 10 5 10 10 7 -5 18
7 9 4 9 9 6 -4 13
2 5 4 10 9 5 -6 15
-1 2 3 12 7 4 -6 19
-1 3 1 7 6 3 -8 23
-4 0 0 5 3 1 -8 26
-2 1 1 3 4 2 -7 19
2 5 4 5 7 3 -5 15
2 4 2 4 7 2 -9 12
1 2 4 4 6 3 -7 17
0 1 3 4 7 4 -5 13
-3 0 3 4 6 5 -4 10
-3 2 1 4 5 4 -9 11
-2 3 0 4 4 1 -8 3
2 4 0 3 6 1 -5 5
2 4 2 2 6 2 -7 18
2 4 2 3 6 4 -9 14
3 6 3 10 7 5 -7 16
1 3 3 8 6 1 -9 20
-3 1 3 4 6 1 -1 3
-1 1 2 4 6 1 -4 4
-2 1 3 4 6 1 -6 10
2 6 1 3 5 1 -9 20
1 6 2 4 6 1 -8 16
0 5 2 5 6 2 -10 10
4 7 3 5 6 2 -8 14
6 9 6 7 8 7 -7 17
5 9 6 7 8 4 -6 12
4 7 5 8 7 4 -8 12
3 5 5 9 6 3 -7 18
6 7 4 7 7 3 -4 23
3 4 3 6 7 3 -5 25
1 3 4 9 8 4 -7 12
4 8 5 10 8 5 -5 17
3 6 3 7 7 3 -6 22
-4 0 1 6 5 0 -8 13
-3 1 1 5 6 0 -5 16
-6 -1 1 9 5 -1 -5 21
-5 0 2 11 7 2 -5 9
-3 -1 2 8 6 1 -8 6
3 3 2 11 8 3 -8 13
6 7 4 15 10 5 -5 18
5 7 2 13 9 6 -3 17
4 7 2 11 9 5 -3 7
4 8 2 11 10 7 -5 6
5 8 2 11 10 6 -4 8
5 10 2 9 11 7 -3 10
4 9 4 15 12 10 0 15
5 12 2 11 11 5 -2 5
4 8 4 12 12 6 -4 5
1 4 3 11 11 5 -5 8
1 4 2 10 10 6 -5 3
6 8 3 10 12 7 1 16
3 7 4 14 12 6 -2 13
0 8 2 14 12 5 -3 18
3 11 2 10 12 6 -3 9
3 9 2 9 12 5 -1 5
1 9 2 12 12 6 -1 5
1 8 2 12 12 6 -5 15
5 9 2 12 11 7 -6 14
7 9 3 12 13 8 -4 10
8 12 3 11 13 8 -1 13
8 13 4 14 12 7 -2 11
6 10 4 13 12 8 -4 4
3 7 3 8 11 10 -4 14
-1 5 2 8 10 5 -4 15
0 5 1 10 11 5 -3 14
2 7 2 9 11 5 -3 18
-1 6 2 12 10 4 0 6
-3 4 3 15 10 7 -2 1
-1 4 2 12 11 7 -2 10
1 6 4 10 11 6 0 12
3 9 4 12 11 6 -3 11
6 10 5 10 12 6 2 18
5 8 3 10 10 5 3 10
4 8 3 11 10 4 0 6
4 7 3 13 10 4 -2 2
2 6 2 11 9 3 2 -3
2 6 3 10 9 6 -3 9
2 4 3 9 9 6 -7 10
2 3 2 6 7 3 -7 3
1 3 2 6 8 3 -6 6
0 5 2 6 8 5 -4 17
3 7 3 12 9 4 4 18
5 9 3 11 10 5 -1 16
5 10 4 10 10 6 -4 5
4 11 3 8 10 4 -3 3
5 8 2 7 9 3 -3 14
3 5 1 7 7 1 -8 -1
4 5 2 11 8 2 -7 2
2 3 1 7 6 0 -9 9
9 9 3 9 8 3 -6 5
9 10 4 7 9 4 -5 9
5 6 3 5 7 2 -7 19
5 8 3 8 8 3 -3 14
4 7 2 5 6 0 -5 4
3 6 3 5 6 2 -5 11
4 6 3 5 6 2 -5 5
3 6 3 5 6 2 -6 9
7 9 4 5 8 4 -7 8
4 6 3 5 8 6 -7 6
4 4 1 4 6 2 -7 14
9 7 2 6 7 1 -7 5
6 5 1 5 6 0 -11 -1
4 5 2 4 6 2 -9 3
6 7 2 8 7 3 -8 9
4 6 2 6 7 1 -9 7
4 5 2 3 6 1 -9 9
1 1 0 1 4 -2 -11 16
1 0 2 6 5 0 -11 10
0 1 3 6 6 2 -8 1
-2 -2 1 6 5 0 -9 1
-3 -3 0 7 4 -1 -8 6
0 -2 0 3 4 0 -11 12
0 0 0 0 3 -2 -10 6
3 2 1 1 4 -1 -9 2
7 6 2 3 5 2 -8 8
7 6 3 7 5 1 -9 7
6 5 2 5 3 -1 -10 9
4 5 1 3 3 -1 -12 5
2 4 1 3 2 -3 -12 -1
0 0 3 7 4 -1 -10 10
-1 -1 1 1 2 -3 -11 8
1 1 1 0 2 -4 -11 12
2 1 1 3 1 -3 -11 -1
5 3 1 2 1 -2 -11 -4
7 4 1 3 1 -3 -9 3
7 4 1 6 2 -3 -11 5
7 4 0 8 1 -3 -11 8
7 4 1 3 2 -3 -11 8
3 0 1 2 2 -3 -8 2
1 0 1 2 2 -2 -9 5
2 -1 2 6 1 -1 -11 9
1 0 2 5 1 -2 -9 7
2 3 2 2 1 -2 -10 0
2 2 2 1 1 -2 -12 2
2 1 2 1 0 -3 -11 5
1 1 1 4 -1 -2 -12 -1
1 0 0 0 0 -4 -12 7
4 1 0 0 -1 -5 -10 3
1 1 2 3 1 -4 -7 6
-1 0 1 1 0 -3 -11 -1
3 -1 0 -1 -1 -4 -10 -2
3 0 0 2 0 -5 -11 0
2 0 -1 3 0 -4 -10 2
2 -1 -2 5 0 -2 -11 5
3 1 1 5 1 -4 -8 -8
8 8 1 5 1 -4 -7 5
8 7 1 1 0 -3 -10 9
6 4 3 6 2 0 -7 10
6 4 2 4 1 -2 -6 -7
5 1 0 0 0 -4 -11 -7
6 3 0 5 0 -1 -10 -10
7 6 0 4 0 -2 -11 -9
6 4 0 3 0 -3 -11 -1
5 5 1 3 0 -2 -10 -3
2 2 1 3 0 -3 -7 11
4 3 2 0 0 -4 -10 0
7 4 2 4 1 -3 -8 1
5 3 2 1 0 -4 -7 -7
7 3 3 2 2 -2 -8 -12
3 2 1 0 0 -3 -10 -3
3 1 1 3 0 -5 -9 -11
5 3 1 5 -1 -6 -8 -9
7 3 2 5 0 -4 -9 2
5 3 0 1 -1 -2 -10 -1
7 2 0 -1 -2 -3 -8 2
6 1 0 -2 -2 -5 -12 4
4 2 1 2 0 -4 -10 -6
4 4 2 2 0 -4 -10 -6
3 1 3 14 1 -3 -9 -14
5 2 3 9 1 -3 -8 -6
5 2 4 0 2 -3 -9 -6
2 -1 3 -1 0 -1 -11 -3
-1 -3 2 -1 -1 -1 -12 -5
0 -4 2 1 -1 -4 -12 -12
0 -4 3 2 -1 -3 -12 -3
2 -3 3 -1 -2 -6 -13 -4
4 -2 3 5 -1 -6 -10 2
2 -2 3 4 -1 -7 -6 1
0 -6 2 2 -2 -7 -6 -4
1 -4 1 -1 -3 -5 -12 -4
6 1 1 -1 -2 -5 -10 -5
5 3 2 -1 -2 -2 -11 -1
6 4 6 2 1 0 -5 -1
2 0 3 -1 -2 -8 -7 -1
0 -3 4 -1 -2 -8 -10 1
0 0 5 0 -1 -6 -9 4
2 0 4 2 -2 -6 -10 -1
7 2 5 2 -1 -6 -11 -2
8 4 5 2 0 -2 -10 -3
4 0 4 1 0 -4 -9 0
3 -1 3 3 -1 -7 -11 -2
2 0 4 3 -2 -6 -12 -4
4 0 4 1 1 -3 -9 -6
5 2 4 10 0 -3 -7 3
3 2 3 4 -1 -8 -8 12
2 -1 4 1 -1 -7 -8 0
3 0 4 0 -1 -7 -9 -12
3 2 3 -1 -2 -8 -13 0
6 4 7 4 0 -6 -10 19
5 4 6 7 0 -5 -7 16
5 3 4 1 0 -7 -8 -5
7 6 6 1 1 -5 -8 -2
6 5 6 1 0 -6 -9 3
5 5 6 2 -1 -6 -8 4
8 7 5 0 -1 -6 -9 4
5 4 5 -1 -1 -6 -10 -3
2 0 4 -2 -2 -8 -11 1
-2 -5 3 -2 -3 -6 -12 0
0 -2 5 2 -2 -6 -9 -5
6 5 5 0 -2 -5 -9 11
5 2 6 0 -2 -4 -9 13
6 3 6 0 -2 -5 -8 14
3 1 6 0 -3 -7 -9 2
2 0 5 -1 -3 -7 -11 4
5 5 6 3 -2 -5 -9 -9
4 3 6 3 -2 -5 -10 -10
2 0 5 1 -3 -7 -9 -8
3 0 6 1 -2 -5 -8 -2
2 0 5 -1 -3 -3 -10 3
3 0 4 1 -4 -6 -7 -4
4 1 4 1 -3 -8 -9 -2
8 2 4 -1 -3 -8 -10 -3
7 2 3 -2 -4 -9 -10 -10
3 -1 3 -3 -5 -7 -8 -5
-1 0 5 -2 -4 -6 -7 -2
1 2 6 -1 -2 -7 -9 2
2 3 5 1 -3 -8 -10 -3
4 4 5 -1 -3 -8 -11 7
4 1 5 -1 -3 -7 -10 -4
2 0 4 1 -4 -7 -10 6
4 3 5 1 -3 -7 -9 5
4 2 6 0 -2 -7 -9 3
0 0 5 2 -3 -6 -9 -4
-2 -2 4 -2 -5 -6 -7 -6
-3 -3 3 3 -5 -9 -6 -2
2 4 4 2 -4 -7 -2 6
4 6 6 0 -3 -6 -2 3
1 2 6 2 -5 -7 -8 2
3 2 5 -1 -5 -8 -9 10
5 3 3 -3 -6 -9 -10 -2
5 7 3 -3 -5 -9 -9 1
3 3 4 1 -4 -8 -10 4
-2 1 3 1 -6 -9 -10 5
-2 -1 3 2 -6 -10 -10 -1
-2 -1 3 -3 -7 -9 -10 -1
0 1 4 -2 -6 -7 -8 -3
5 5 6 0 -4 -6 -6 4
7 6 5 -1 -4 -4 -7 5
8 7 6 4 -4 -6 -4 0
6 6 6 4 -4 -7 -6 15
5 7 4 3 -6 -8 -9 18
6 7 6 6 -4 -6 -6 27
8 8 6 5 -4 -6 -6 16
6 8 4 1 -5 -7 -7 -4
6 7 5 -1 -5 -6 -8 -6
6 8 4 1 -5 -7 -6 3
3 4 4 -1 -5 -6 -4 0
1 1 4 -2 -5 -5 -9 1
-1 -1 4 -1 -5 -7 -9 -8
0 1 3 1 -5 -8 -8 -5
3 3 3 1 -5 -8 -5 -4
6 6 4 -2 -6 -10 -8 1
6 6 5 -2 -5 -10 -6 5
6 7 6 2 -4 -7 -1 10
5 6 5 2 -5 -5 -2 3
4 4 4 1 -5 -7 -7 2
3 4 5 0 -5 -7 -6 1
5 7 6 1 -3 -7 -6 -1
1 3 5 1 -5 -8 -6 -3
0 0 4 0 -7 -9 -11 -5
1 2 4 -2 -6 -9 -10 4
-1 0 3 -3 -7 -10 -11 4
-1 1 3 -2 -7 -11 -10 2
3 4 5 3 -5 -8 -9 8
4 5 5 3 -5 -8 -5 13
3 6 5 0 -5 -7 -7 12
4 6 5 3 -5 -7 -8 5
6 6 3 1 -7 -7 -9 -2
6 7 5 1 -4 -6 -7 2
7 10 5 3 -4 -5 -5 8
8 12 7 5 -2 -4 -3 11
5 13 10 4 -1 -2 -1 18
5 14 11 6 0 -3 1 12
6 19 13 10 3 0 6 11
5 18 12 9 2 -1 1 21
6 20 13 11 2 0 -1 16
7 21 15 11 3 0 1 11
4 19 14 9 2 -1 -1 11
7 21 15 11 3 0 1 23
4 20 14 8 3 0 2 33
3 19 15 7 2 1 1 21
6 19 14 10 2 1 0 16
4 18 12 10 0 -2 -1 6
3 18 12 11 1 -2 0 8
3 20 14 11 3 0 2 8
3 25 15 12 5 2 3 14
7 30 17 15 7 5 7 21
10 32 16 17 8 7 9 30
13 34 14 12 8 8 8 25
18 38 12 12 9 7 9 23
16 37 12 16 10 8 10 19
16 36 12 22 12 9 12 21
17 38 11 20 12 11 14 40
14 35 10 15 10 8 13 36
16 36 13 14 10 7 12 25
16 33 13 15 9 5 10 20
11 28 10 11 5 2 8 22
11 26 8 6 2 3 5 24
10 23 6 5 1 1 4 34
9 20 6 4 1 -2 3 34
8 19 7 5 1 -1 4 22
10 18 7 6 1 -1 3 24
11 19 7 5 0 -2 3 28
7 12 7 4 -2 -5 0 15
2 8 7 6 -5 -8 -3 13
4 9 7 2 -4 -5 -2 21
3 7 7 1 -5 -6 -2 34
4 8 6 4 -6 -9 -1 19
7 8 8 4 -5 -8 -1 22
1 2 6 -1 -8 -7 -6 12
0 1 6 -2 -8 -8 -6 6
0 4 5 -1 -9 -10 -6 9
-1 0 5 2 -9 -11 -2 5
3 1 5 0 -10 -11 -3 5
3 0 5 -4 -11 -12 -8 16
3 -2 5 -6 -11 -13 -9 13
1 -2 4 -6 -12 -14 -10 6
2 -2 3 -6 -12 -16 -9 -3
3 -2 5 -5 -12 -11 -7 -3
1 -1 3 -5 -14 -12 -10 -1
4 0 3 -4 -14 -13 -10 7
4 -2 4 -3 -12 -12 -9 -1
-1 -5 1 -9 -15 -13 -9 -11
-1 -4 -1 -9 -15 -16 -11 -2
-2 -7 1 -6 -14 -15 -12 7
-1 -8 2 -2 -13 -13 -10 8
2 -6 4 0 -12 -13 -7 5
2 -4 4 -1 -12 -15 -11 -1
-3 -8 4 0 -13 -15 -10 6
-4 -8 3 -6 -13 -15 -11 20
-3 -10 2 -7 -14 -17 -12 3
-1 -9 2 -6 -14 -17 -9 -6
2 -4 5 -3 -10 -12 -7 0
2 -3 6 -2 -10 -10 -5 -1
3 -2 5 -2 -10 -11 -6 2
3 -3 4 -2 -11 -12 -8 5
3 -4 3 -3 -12 -13 -8 4
3 -4 4 1 -11 -12 -8 13
1 -4 4 1 -10 -10 -8 6
2 -4 5 2 -8 -7 -7 2
2 -11 9 14 -3 -4 -8 -9
7 -14 12 19 2 -3 -4 -8
11 -17 17 28 6 -2 -9 -2
12 -22 23 37 13 0 -13 -10
12 -24 35 50 24 8 -12 -10
10 -22 45 67 38 18 -7 -10
8 -18 56 81 51 26 3 -16
9 -8 66 96 63 37 9 -16
11 2 77 113 82 56 29 -8
16 14 83 130 104 83 51 19
23 30 87 144 125 111 79 39
29 46 90 151 145 139 111 71
35 67 93 162 166 170 145 97
43 95 75 156 179 200 182 134
44 120 50 142 185 222 215 163
52 152 26 128 200 255 257 199
52 186 3 106 204 272 287 237
35 210 -9 62 164 235 272 240
9 207 -20 -24 69 130 198 216
-9 186 -28 -90 -12 32 116 181
-17 160 -46 -137 -70 -33 64 137
-24 124 -62 -176 -116 -82 21 106
-26 107 -78 -203 -150 -113 -12 81
-26 92 -90 -207 -159 -123 -27 63
-26 70 -98 -198 -150 -117 -38 51
-22 55 -104 -185 -141 -110 -41 33
-15 45 -99 -171 -133 -103 -42 25
-13 31 -95 -156 -128 -101 -41 13
-13 21 -90 -143 -118 -93 -41 3
-8 19 -85 -132 -109 -87 -43 7
-7 17 -78 -116 -100 -82 -41 -5
-3 17 -66 -100 -85 -72 -35 -7
-1 17 -54 -82 -71 -60 -28 -6
-1 17 -41 -63 -59 -50 -22 0
0 18 -28 -44 -45 -38 -15 18
1 18 -17 -32 -35 -30 -8 18
-3 14 -9 -24 -26 -22 -8 19
0 13 -3 -15 -21 -18 -6 10
2 11 -1 -13 -15 -15 -3 7
5 11 1 -8 -12 -12 2 7
5 9 3 -3 -9 -9 -1 13
5 8 4 -1 -8 -9 -1 11
4 8 4 -4 -8 -10 -1 8
2 5 6 -1 -9 -7 -1 6
0 4 7 -1 -8 -8 -4 6
0 3 9 1 -6 -6 -3 12
2 3 12 7 -3 -4 0 19
6 6 12 9 -1 -4 3 8
6 6 13 10 2 -1 2 3
7 7 12 9 2 0 4 10
8 7 13 10 4 0 7 19
8 6 11 8 3 -1 5 38
10 6 10 6 1 -3 1 24
11 7 12 9 0 -1 5 10
5 6 14 14 1 -1 4 6
4 6 14 15 2 0 2 5
6 6 15 12 2 2 3 10
4 2 15 11 2 2 6 15
5 4 15 14 4 4 6 7
7 5 15 15 5 2 7 0
8 6 13 12 5 2 4 8
5 5 12 15 5 3 5 13
4 5 13 13 6 5 8 20
5 7 14 13 5 1 7 12
4 5 15 12 5 1 5 10
1 3 14 15 4 0 3 2
1 2 16 22 7 2 4 7
2 2 15 17 6 1 5 8
6 4 15 15 9 4 4 4
8 5 15 16 9 5 6 9
8 6 14 16 9 6 6 16
9 7 14 16 7 5 6 2
10 9 13 17 7 4 5 2
11 10 15 17 7 4 7 20
12 10 16 21 7 4 6 18
11 9 16 21 8 4 7 16
13 10 18 20 10 6 9 16
9 5 16 19 10 8 8 14
9 4 14 18 11 9 8 9
12 7 13 22 10 7 10 12
10 5 13 23 11 7 11 9
8 5 14 18 11 7 12 8
7 6 13 17 11 8 11 11
4 4 14 19 11 10 14 10
8 7 16 20 13 10 17 19
6 3 14 19 12 8 15 22
3 0 12 19 11 11 8 10
7 2 15 22 14 14 12 16
9 5 15 24 16 12 11 13
11 5 16 27 16 15 14 11
11 5 13 23 15 14 12 6
5 3 11 20 14 11 12 14
3 2 12 21 14 11 12 21
7 5 12 26 13 12 12 4
10 9 15 25 16 15 11 17
11 11 16 28 18 17 13 21
13 11 16 24 18 18 15 12
11 9 15 24 17 16 15 17
13 12 15 25 19 16 14 16
14 11 17 29 21 18 18 15
14 10 13 28 20 18 19 24
9 6 11 25 19 17 17 9
10 8 11 26 19 17 18 7
13 10 12 29 19 17 19 17
12 10 13 28 19 17 16 26
12 12 14 31 20 19 20 20
14 12 14 35 22 23 20 17
11 8 15 34 23 22 21 19
11 9 14 31 24 21 22 22
10 9 13 32 26 24 26 22
14 11 12 34 26 26 25 22
17 16 13 34 27 27 25 14
20 20 13 34 28 28 26 23
18 19 13 35 28 28 27 28
16 16 10 35 26 26 26 41
13 14 10 35 28 27 31 36
17 16 12 41 31 31 30 27
20 18 12 44 31 31 29 36
24 22 13 47 35 35 32 38
24 24 12 46 37 37 36 36
18 22 12 47 37 38 37 40
21 23 10 48 36 40 36 35
21 24 9 46 36 41 35 28
19 23 9 45 35 37 38 33
19 24 12 50 38 42 38 39
21 27 11 52 40 45 40 46
22 29 11 50 41 44 41 41
19 28 11 56 42 43 43 38
19 26 9 56 46 47 44 32
21 26 7 53 46 49 45 39
26 30 7 55 47 50 47 38
30 35 7 55 49 51 50 47
26 33 5 55 48 52 50 57
27 34 6 58 49 55 54 52
27 34 5 61 48 55 53 52
25 34 4 60 49 56 53 53
23 35 5 61 52 59 56 52
28 40 4 63 53 60 59 52
31 41 4 66 57 63 61 54
29 39 1 69 55 66 64 52
28 40 -1 65 56 64 65 61
29 41 0 65 58 64 64 59
33 46 -1 65 58 68 66 64
34 49 -1 64 57 70 69 62
33 49 -1 68 60 71 68 64
35 51 -2 65 60 69 70 58
34 52 -2 65 61 74 73 57
36 53 -2 68 61 74 72 63
38 55 -2 69 64 75 74 64
38 57 -4 67 61 75 76 64
39 57 -5 67 60 78 74 62
37 57 -5 66 60 79 76 63
36 57 -7 60 59 75 76 68
35 58 -7 62 57 70 75 71
37 59 -6 64 57 69 75 75
37 60 -7 62 57 72 75 72
39 63 -8 64 57 71 74 65
39 63 -8 59 57 73 76 69
36 63 -10 56 55 69 76 76
35 64 -10 57 56 68 80 80
33 60 -11 55 54 65 78 77
33 58 -13 50 51 65 74 73
32 58 -15 47 50 64 72 65
31 58 -13 47 47 64 74 68
33 60 -13 46 46 62 74 74
34 62 -12 46 46 63 74 73
35 60 -11 44 45 63 73 73
36 62 -9 46 46 61 73 73
34 61 -8 48 47 60 72 68
28 58 -8 42 47 59 70 73
28 54 -9 40 45 54 67 63
29 55 -9 39 42 52 64 59
29 54 -8 37 43 52 64 63
27 50 -8 33 40 48 60 52
25 48 -8 31 38 44 52 49
24 45 -5 29 35 42 50 46
21 41 -4 27 32 39 47 43
22 39 -3 26 32 38 46 45
21 37 -2 24 31 36 41 43
19 35 1 29 30 36 41 38
19 34 2 29 28 33 36 30
16 29 2 21 26 29 32 36
12 25 0 16 22 24 27 18
7 20 2 15 22 24 28 29
5 16 3 17 20 21 23 23
7 17 5 21 21 20 19 18
11 18 8 18 20 21 20 21
9 15 7 19 19 17 18 13
8 13 7 9 18 15 13 13
8 13 8 10 18 14 15 11
10 13 7 9 16 16 12 12
13 14 9 12 16 17 14 6
11 11 7 11 12 10 11 3
7 7 6 5 10 8 8 10
4 4 6 2 9 5 6 14
4 3 6 3 8 4 4 10
3 4 7 6 8 3 4 -2
0 -1 7 3 7 2 6 -10
-1 -3 5 0 7 2 1 -11
0 -1 4 4 6 1 1 3
0 -2 3 -1 5 -1 0 0
3 -3 5 2 5 -1 -1 -4
2 -2 5 -3 4 0 0 0
-2 -4 4 -5 2 -2 -1 5
-6 -7 3 -2 1 -5 -3 3
-6 -7 3 -5 1 -4 -3 1
-5 -7 3 -5 1 -3 -4 3
-2 -5 6 -4 2 -3 -2 3
-1 -5 5 -5 2 -3 -2 2
0 -4 5 -3 3 -2 -1 5
-1 -3 4 -5 2 -2 -2 13
-2 -4 3 -6 2 -2 -2 15
-2 -3 2 -7 0 -5 -5 -3
-4 -5 3 1 0 -5 -3 -8
-4 -5 3 -4 1 -4 -4 -5
-3 -6 4 -5 0 -4 -4 -5
-2 -4 6 -6 1 -2 1 11
0 -4 7 -3 1 -3 0 1
1 -5 6 -3 2 -4 -3 -10
-2 -6 5 -7 0 -5 -1 -2
-1 -5 6 -6 2 -4 -2 1
-1 -2 7 0 3 -2 0 7
0 0 6 -1 3 -2 -2 4
0 -2 4 -6 1 -4 -2 6
-1 -5 4 -4 1 -4 -5 -3
-1 -5 4 -5 1 -4 -5 4
-3 -4 5 -2 3 -3 -3 -2
0 -4 5 -3 1 -3 -3 -7
2 -4 6 -4 1 0 -2 -13
0 -4 6 -4 1 4 -2 -8
1 -3 4 -4 2 -3 -3 -6
2 -2 5 0 3 -2 -2 3
0 -3 6 3 4 2 1 8
0 -1 5 -1 4 2 2 10
4 2 6 -2 5 3 1 10
7 3 7 0 5 3 1 1
4 0 6 -2 5 0 0 -5
0 -5 5 -1 3 -2 -3 -10
1 -6 4 1 5 0 1 -5
-2 -7 4 -2 4 -1 0 -3
-6 -10 3 -3 3 -1 -2 -6
-4 -8 3 0 2 -2 -1 -7
-4 -8 2 0 3 -2 -1 -7
-2 -6 2 0 2 -3 3 -8
-5 -7 4 1 3 -3 4 -1
-7 -8 5 1 4 -1 -1 -9
1 -2 5 3 5 1 -1 -10
1 -4 4 2 4 0 0 -10
0 -7 4 0 4 -1 -4 -12
0 -6 5 1 5 -1 -1 -10
3 -3 4 2 4 1 -1 0
2 -4 2 -1 2 0 -1 -1
-2 -9 0 0 1 -3 -3 -5
-6 -9 1 2 3 0 0 -1
-4 -5 4 4 4 3 3 5
1 0 5 5 5 4 4 -8
2 0 5 6 6 3 1 -6
0 -3 5 4 6 2 5 -2
-2 -7 4 2 6 3 1 -11
-2 -6 4 1 4 3 0 -13
-1 -4 4 1 5 2 0 -8
-1 -3 3 1 5 0 2 -14
-2 -6 2 2 2 0 1 -5
-5 -9 0 1 1 0 -2 -8
-5 -10 0 2 1 0 -2 -6
-4 -9 0 9 1 0 -2 -7
-3 -9 3 6 3 1 -2 -3
1 -6 3 5 2 0 -1 -9
0 -6 4 5 4 3 -1 -12
-2 -8 3 0 3 0 -1 -13
-1 -7 2 1 2 -1 -2 -17
-1 -6 1 0 2 -2 1 -11
-1 -6 1 0 1 -3 1 6
-1 -7 0 0 -1 -3 -2 4
-1 -7 0 -2 -1 -3 -4 -14
-1 -6 1 -1 -1 -1 -3 -17
-2 -7 0 -1 -1 -1 -2 -20
-5 -12 0 2 -2 0 -3 -14
-4 -10 1 2 -1 -2 -4 -10
-3 -11 1 -2 -1 -1 -4 -10
-2 -12 -1 -1 -2 -4 -4 -20
-1 -10 -1 -1 -2 -5 -3 -15
-6 -10 0 1 -1 -3 -1 -3
-3 -8 0 -3 -3 -1 -3 -9
1 -5 1 0 -2 -2 -3 -14
-1 -8 1 1 -2 -3 -3 -15
1 -7 1 -2 -1 1 -2 -11
1 -8 0 -2 -2 -1 -3 -11
-1 -9 0 0 -2 -4 -5 -6
0 -10 1 1 -3 -4 -4 -14
-1 -12 0 -4 -4 -5 -2 -12
-2 -12 -2 -6 -4 -5 -2 -23
-4 -12 -3 -7 -5 -7 -6 -22
-5 -13 -3 -7 -6 -8 -6 -17
-3 -11 -3 -8 -6 -8 -7 -19
-5 -14 -2 -8 -6 -8 -6 -14
-6 -17 -3 -8 -7 -10 -8 -19
-2 -13 -2 -7 -6 -8 -7 -16
-3 -12 -3 -5 -6 -4 -6 -26
-5 -15 -3 -7 -7 -5 -4 -25
-4 -15 -4 -9 -9 -8 -8 -22
-4 -15 -3 -8 -9 -7 -8 -20
-4 -15 -3 -6 -9 -9 -8 -20
-4 -15 -3 -8 -9 -9 -8 -18
-4 -15 -5 -7 -8 -10 -9 -22
-2 -12 -5 -6 -9 -9 -7 -24
-4 -14 -3 -8 -8 -8 -4 -19
-2 -13 -2 -8 -8 -9 -6 -8
-3 -13 -4 -9 -9 -7 -8 -14
-4 -15 -4 -9 -11 -7 -7 -17
-5 -13 -3 -6 -10 -9 -6 -17
-5 -14 -3 -7 -10 -9 -6 -20
-6 -15 -5 -8 -11 -9 -5 -15
-9 -19 -7 -11 -14 -11 -6 -13
-10 -20 -7 -12 -14 -13 -10 -18
-8 -19 -5 -10 -13 -12 -8 -17
-8 -19 -5 -8 -14 -11 -7 -16
-6 -18 -5 -8 -14 -7 -8 -21
-3 -15 -5 -5 -12 -6 -8 -14
-4 -17 -6 -7 -13 -9 -7 -9
-4 -14 -7 -8 -14 -11 -7 -18
-2 -13 -6 -8 -14 -11 -5 -27
-3 -14 -7 -12 -15 -12 -10 -20
-1 -15 -6 -9 -15 -14 -8 -19
-3 -16 -6 -9 -15 -14 -8 -27
-8 -20 -6 -12 -17 -15 -8 -30
-13 -24 -8 -10 -19 -16 -7 -29
-9 -22 -7 -4 -18 -16 -11 -18
-5 -18 -7 -11 -17 -14 -11 -25
-5 -18 -7 -11 -17 -14 -10 -26
-7 -20 -6 -9 -17 -14 -10 -15
-6 -20 -6 -10 -18 -14 -12 -20
-6 -20 -7 -8 -18 -14 -13 -23
-7 -19 -7 -9 -19 -14 -11 -23
-5 -17 -6 -7 -17 -15 -10 -11
-8 -21 -9 -15 -20 -15 -10 -19
-9 -24 -9 -14 -20 -14 -12 -9
-5 -20 -8 -11 -20 -15 -12 -17
-7 -23 -7 -11 -18 -14 -12 -19
-6 -22 -6 -11 -18 -15 -11 -12
-5 -22 -8 -12 -18 -15 -12 -16
-5 -22 -9 -11 -20 -15 -13 -20
-7 -22 -9 -11 -20 -15 -12 -21
-10 -22 -8 -12 -20 -17 -14 -28
-6 -18 -5 -12 -18 -14 -11 -20
-7 -19 -6 -13 -19 -13 -13 -15
-8 -21 -8 -14 -21 -14 -14 -21
-8 -20 -7 -13 -20 -15 -12 -22
-9 -21 -7 -11 -20 -14 -12 -25
-10 -21 -7 -12 -20 -16 -11 -28
-11 -22 -7 -14 -20 -16 -9 -26
-10 -23 -8 -16 -21 -14 -13 -24
-8 -22 -8 -15 -20 -16 -13 -26
-8 -22 -8 -16 -21 -17 -13 -25
-8 -19 -9 -15 -21 -17 -14 -28
-4 -16 -6 -13 -19 -14 -12 -21
-4 -18 -6 -14 -19 -13 -11 -19
-2 -17 -7 -12 -20 -14 -13 -22
0 -15 -5 -10 -18 -11 -9 -25
-4 -18 -5 -6 -18 -13 -7 -21
-3 -16 -6 -10 -18 -14 -11 -22
-2 -14 -6 -14 -18 -14 -10 -21
-5 -15 -5 -15 -19 -14 -10 -12
-9 -19 -5 -14 -20 -14 -10 -13
-12 -23 -6 -15 -21 -17 -13 -15
-8 -19 -5 -14 -19 -16 -11 -21
-6 -17 -3 -13 -18 -14 -10 -12
-9 -21 -5 -13 -20 -14 -13 -24
-11 -20 -7 -15 -20 -15 -14 -21
-7 -17 -7 -16 -20 -18 -13 -10
-6 -15 -8 -16 -20 -16 -14 -12
-6 -16 -5 -15 -19 -16 -13 -22
-7 -17 -5 -14 -20 -16 -12 -14
-4 -16 -3 -13 -18 -14 -11 -15
-3 -13 -4 -12 -18 -15 -12 -15
-7 -18 -4 -12 -18 -17 -12 -6
-9 -19 -4 -12 -18 -14 -13 -9
-10 -20 -5 -13 -18 -16 -14 -20
-8 -18 -4 -12 -17 -15 -12 -20
-5 -16 -4 -9 -18 -13 -12 -21
-8 -16 -6 -13 -18 -15 -13 -22
-10 -18 -6 -14 -19 -17 -13 -25
-8 -17 -5 -12 -17 -16 -13 -20
-6 -16 -5 -11 -19 -16 -14 -19
-5 -15 -5 -11 -18 -17 -13 -15
-2 -13 -4 -12 -17 -16 -13 -13
-6 -16 -5 -12 -18 -15 -12 -17
-7 -15 -4 -13 -17 -14 -12 -10
-8 -15 -5 -14 -16 -15 -8 -16
-8 -16 -5 -15 -17 -14 -9 -11
-5 -14 -5 -13 -17 -15 -13 -12
-7 -16 -4 -14 -17 -15 -14 -11
-7 -14 -5 -15 -17 -15 -14 -6
-6 -14 -3 -12 -16 -13 -12 -12
-5 -12 -3 -8 -15 -14 -11 -8
-3 -12 -4 -12 -15 -9 -12 -11
-6 -14 -4 -11 -15 -7 -9 -10
-4 -14 -4 -13 -15 -13 -9 -10
0 -11 -4 -12 -13 -12 -10 -16
1 -10 -4 -11 -15 -13 -12 -16
-2 -10 -2 -12 -15 -12 -12 -17
-6 -11 -2 -11 -14 -13 -11 -16
-5 -12 -3 -11 -15 -14 -12 -13
-6 -13 -4 -13 -17 -14 -12 -6
-4 -8 -5 -15 -16 -14 -12 -7
-1 -7 -4 -13 -14 -13 -11 -12
-3 -9 -4 -11 -14 -9 -11 -15
-7 -13 -3 -12 -14 -11 -11 -1
-7 -13 -2 -12 -14 -14 -11 -10
-5 -12 -1 -11 -12 -12 -9 -13
-3 -10 -2 -9 -13 -14 -8 -16
0 -6 -1 -8 -12 -11 -9 -9
-4 -7 0 -5 -11 -10 -9 -6
-6 -6 2 -3 -11 -10 -9 -9
-7 -2 6 -5 -9 -6 -7 -10
-4 3 8 -1 -5 -1 -5 -7
-1 6 7 -2 -5 -3 -4 -5
1 10 9 0 -4 -2 -3 5
1 10 10 0 -2 -1 -4 8
2 10 9 -3 -4 -2 -5 -4
-3 6 7 -5 -6 -2 -5 -7
-5 4 5 -6 -6 0 -7 -4
-2 6 8 -3 -4 -1 -6 7
-3 6 8 0 -5 -4 -4 9
-2 9 8 -3 -5 -5 -1 7
0 13 9 -2 -3 -4 3 -1
0 14 10 1 -1 -2 0 5
-1 15 11 4 2 1 2 12
-2 15 11 1 2 1 5 6
-1 15 9 0 1 3 2 1
-1 18 8 3 2 4 4 0
2 20 7 4 3 4 6 7
6 24 5 5 4 4 8 7
6 23 6 8 5 6 9 1
7 24 6 8 7 9 7 8
5 22 6 9 6 7 6 7
5 20 5 5 5 10 8 7
5 20 4 2 4 7 8 12
6 20 2 0 0 0 7 4
3 15 2 0 -2 -2 2 1
2 13 0 -1 -4 1 0 4
-1 11 -1 -4 -4 0 -2 -3
0 12 0 -4 -2 -1 -1 1
5 12 0 -3 -2 2 -2 0
2 7 -1 -3 -4 -2 -4 -6
3 6 0 -3 -5 -3 -5 -5
2 3 0 -3 -6 -6 -6 -2
-1 -2 0 -7 -6 -4 -5 0
-3 -2 0 -8 -8 -9 -7 2
-5 -5 -1 -7 -11 -10 -9 -6
-5 -6 0 -8 -10 -9 -6 -4
-4 -5 1 -10 -10 -7 -7 -3
-3 -6 1 -8 -10 -8 -10 1
-1 -5 1 -7 -10 -9 -11 -10
-2 -7 0 -10 -12 -11 -13 -9
-4 -10 -1 -14 -14 -14 -15 -8
-5 -10 -1 -13 -15 -15 -15 -15
-6 -9 0 -12 -13 -10 -13 -6
-4 -9 -1 -14 -14 -11 -14 -2
-4 -11 -1 -14 -15 -15 -15 -10
-9 -17 -3 -13 -15 -15 -15 -8
-6 -15 -3 -11 -16 -15 -16 -3
-5 -14 -3 -10 -16 -12 -15 -11
-2 -11 -1 -5 -16 -16 -14 -1
-2 -9 -1 -11 -14 -16 -14 7
-4 -11 -3 -9 -16 -16 -16 -3
-4 -12 -1 -11 -15 -17 -16 1
-2 -11 -1 -14 -14 -15 -15 -9
-3 -14 -1 -13 -13 -14 -15 -8
-2 -14 -1 -13 -14 -14 -15 -13
-3 -14 -2 -10 -14 -14 -15 -15
-5 -15 -3 -14 -15 -15 -15 -23
-3 -12 -2 -12 -14 -15 -15 -15
-5 -13 -1 -10 -13 -16 -13 -21
-5 -14 -3 -13 -14 -15 -12 -21
-4 -13 -2 -10 -13 -14 -13 -11
-6 -13 -1 -10 -14 -16 -12 -12
-4 -14 0 -11 -13 -15 -13 -25
-8 -15 -1 -13 -13 -13 -13 -28
-6 -14 1 -11 -11 -10 -11 -21
-4 -13 0 -10 -10 -10 -11 -25
-9 -18 -3 -12 -12 -12 -13 -23
-6 -17 -1 -8 -10 -11 -12 -34
-4 -21 2 -1 -5 -3 -11 -40
-6 -30 4 9 -2 -7 -14 -40
-4 -36 9 15 3 -4 -17 -43
2 -36 17 30 13 4 -14 -41
4 -35 28 48 26 8 -12 -44
2 -32 37 63 40 18 -10 -48
3 -27 50 77 52 28 -3 -44
1 -21 62 91 65 40 5 -30
4 -10 70 107 82 60 23 -23
10 4 76 130 106 85 47 -12
16 20 81 141 130 117 78 7
19 36 84 148 151 151 112 35
26 55 88 158 171 180 146 66
32 79 74 150 183 205 182 98
33 104 50 130 188 228 217 130
42 136 22 120 201 260 260 172
43 170 -2 99 203 280 292 210
27 195 -13 50 162 238 274 219
2 194 -25 -38 62 125 192 182
-20 169 -31 -104 -22 20 107 127
-28 145 -48 -148 -81 -45 52 88
-33 115 -63 -182 -125 -90 9 57
-36 92 -79 -212 -157 -119 -21 34
-34 76 -93 -217 -168 -132 -38 17
-31 59 -102 -206 -156 -125 -43 7
-29 46 -108 -195 -146 -116 -46 -8
-20 37 -108 -183 -138 -110 -47 -22
-15 25 -104 -170 -134 -107 -50 -23
-16 17 -99 -154 -123 -98 -43 -22
-15 12 -93 -141 -113 -94 -43 -37
-14 8 -86 -127 -105 -87 -47 -43
-13 4 -75 -109 -93 -78 -43 -40
-12 2 -65 -91 -79 -69 -36 -35
-12 2 -52 -72 -64 -57 -28 -31
-11 3 -37 -53 -47 -42 -20 -29
-6 9 -22 -35 -33 -27 -11 -27
-2 12 -14 -28 -25 -20 -7 -23
2 10 -10 -21 -21 -19 -6 -19
3 7 -7 -13 -16 -15 -5 -24
1 4 -3 -7 -13 -14 -2 -23
1 4 -1 -9 -10 -11 0 -25
5 7 1 -4 -6 -8 3 -23
5 5 3 -4 -5 -8 2 -24
1 -1 2 -5 -7 -10 0 -27
-3 -3 1 -4 -8 -12 -4 -28
-4 -5 2 -1 -5 -9 -3 -28
-6 -10 4 3 -2 -8 -1 -19
-1 -5 7 6 0 -3 2 -27
-1 -3 9 5 3 3 6 -19
-1 -5 7 4 4 -1 6 -22
-1 -6 7 5 3 0 2 -26
-5 -11 5 2 1 -2 -1 -32
-7 -11 5 3 2 -3 1 -31
-5 -10 6 4 2 -3 2 -25
-1 -7 8 6 3 0 0 -22
4 -2 11 9 7 2 4 -19
3 -3 11 9 7 0 4 -32
1 -5 12 13 8 1 5 -32
0 -6 10 15 8 -1 4 -28
-3 -10 10 14 7 1 5 -23
-2 -9 10 10 7 1 6 -20
2 -4 10 12 9 7 8 -27
3 -3 10 12 10 9 8 -21
2 -5 10 12 10 6 8 -20
-4 -9 11 12 9 3 7 -22
-7 -12 10 18 10 5 7 -20
-3 -9 10 18 11 3 9 -23
4 -4 12 15 12 2 9 -10
6 -4 14 17 14 5 10 -10
3 -6 12 19 13 6 5 -25
-1 -10 10 16 11 4 -4 -26
2 -9 10 13 11 6 -5 -22
3 -8 10 13 12 6 -6 -23
3 -5 12 14 12 3 -6 -19
2 -4 14 19 14 5 -5 -23
2 -6 14 21 15 7 -5 -19
2 -6 14 20 17 6 -4 -18
1 -6 14 21 17 7 -4 -14
1 -6 13 21 18 9 -2 -13
4 -4 13 18 18 7 -1 -28
5 -3 13 19 18 7 -1 -22
7 0 12 21 17 8 -1 -7
7 -3 12 21 19 7 -1 -17
3 -7 13 20 17 9 -2 -16
5 -4 14 23 19 9 -2 -12
4 -4 14 21 19 10 -2 -16
5 -4 14 22 21 11 2 -16
6 -6 13 25 19 11 0 -10
6 -8 13 25 20 11 -5 -5
5 -5 13 21 20 10 -6 -19
3 -4 14 23 23 16 -3 -5
4 -4 12 22 21 15 -5 -5
7 -2 12 23 23 13 -5 3
7 -3 12 25 22 12 -6 0
4 -5 11 24 23 12 -5 -16
4 -6 11 24 23 14 -3 -18
5 -5 12 26 24 17 -4 -9
9 0 14 28 26 16 -2 -6
9 0 13 29 28 19 -2 -9
6 -4 13 29 27 19 2 -3
7 -2 13 33 28 17 3 -1
6 -3 12 31 27 17 0 -9
7 -1 11 35 28 19 0 2
8 -2 13 37 28 20 1 3
6 -2 13 32 30 21 0 2
9 1 14 35 32 21 3 -4
10 2 14 37 33 23 4 -4
7 -2 14 35 33 23 4 0
8 0 13 36 35 27 6 -2
10 1 13 36 34 29 9 -10
11 3 13 38 35 26 13 -7
14 7 11 37 34 26 9 0
12 3 11 41 37 29 9 0
8 0 12 41 36 28 11 14
10 0 11 40 38 29 12 16
10 0 10 43 39 31 12 -1
9 1 11 45 41 34 13 3
11 4 12 48 42 33 16 6
11 3 10 45 44 36 17 1
13 5 10 44 43 37 18 3
17 9 12 47 46 39 21 20
18 12 11 49 48 41 24 9
22 15 11 54 51 44 26 10
20 15 12 56 51 42 27 15
20 14 12 52 52 44 27 20
17 10 10 53 52 45 27 12
17 10 9 58 53 46 28 13
18 13 11 62 56 48 31 14
20 16 9 62 57 50 33 20
24 19 8 65 58 51 36 17
22 19 9 67 60 53 38 25
19 19 8 62 61 55 39 30
22 21 7 62 64 59 41 24
25 22 7 64 65 59 45 35
28 25 7 66 66 59 46 32
24 23 6 67 66 63 50 28
23 22 5 67 67 64 51 34
27 29 6 72 69 64 53 40
28 32 4 70 70 65 52 41
30 31 4 73 72 68 57 37
34 35 4 73 74 73 61 39
33 35 2 71 73 71 59 42
33 36 1 71 75 73 61 47
35 40 1 72 74 75 64 51
34 39 0 74 76 76 67 54
36 41 1 75 77 77 67 49
39 42 0 75 78 79 68 53
35 39 -2 75 76 74 67 50
33 39 -1 74 78 80 70 51
29 39 -3 76 77 86 72 51
33 42 -4 75 77 81 70 56
37 47 -3 74 78 79 73 65
37 47 -5 71 78 80 73 68
37 46 -6 70 76 78 73 65
36 45 -6 72 75 78 72 60
33 43 -8 72 73 77 71 59
34 46 -6 69 75 77 73 71
34 46 -5 69 75 79 75 73
35 48 -6 69 75 78 75 68
40 52 -7 69 74 76 77 65
41 54 -9 67 74 75 74 71
40 54 -8 68 73 75 75 70
39 53 -10 64 72 74 75 66
38 50 -11 60 68 70 73 68
37 49 -10 61 66 70 72 68
35 49 -8 58 65 67 71 60
35 48 -8 55 65 69 70 65
36 48 -6 56 65 71 69 60
33 47 -7 53 63 65 66 63
30 43 -6 53 61 62 65 65
30 41 -6 49 59 59 62 50
29 42 -5 45 57 57 59 50
31 41 -3 45 56 56 57 60
27 37 -1 43 53 52 53 50
26 34 -1 42 51 49 48 44
24 31 1 41 50 46 47 44
17 23 0 36 46 42 42 44
16 21 3 37 44 40 37 37
15 19 3 35 42 38 33 33
14 16 4 30 39 33 29 27
16 16 4 32 37 31 26 29
13 14 5 28 35 27 23 28
12 12 5 25 33 27 21 16
9 9 8 24 32 25 19 14
5 3 9 22 29 22 14 13
6 2 9 22 28 19 14 14
6 -1 9 19 26 17 10 16
5 -2 10 19 25 15 9 17
7 -1 11 18 25 15 7 3
5 -3 10 16 23 13 6 3
2 -7 10 14 23 13 6 7
1 -6 12 13 22 11 3 3
2 -8 10 16 18 7 1 0
1 -9 12 15 18 7 1 2
3 -8 12 11 18 5 -1 3
4 -8 12 13 16 5 -1 1
6 -7 12 15 16 9 -1 2
4 -9 12 13 15 7 -2 11
1 -12 10 12 14 6 -3 -1
0 -13 10 9 12 3 -3 2
3 -12 10 6 12 3 -4 5
4 -10 10 5 12 3 -4 3
2 -10 11 8 13 3 -3 3
-1 -13 10 9 11 0 -4 1
-3 -15 10 4 10 -1 -4 5
-4 -16 10 4 10 -1 -5 4
-2 -13 11 7 10 -1 -5 4
-3 -14 13 9 11 -1 -4 3
-4 -16 10 5 11 0 -5 2
-1 -14 9 3 9 -2 -6 8
2 -13 12 4 11 0 -4 6
1 -12 11 4 10 0 -5 -4
1 -12 10 3 10 0 -5 -3
-1 -14 10 4 8 -2 -5 6
-1 -14 10 7 9 -1 -7 8
1 -10 12 7 10 0 -5 10
2 -12 11 6 11 3 -3 -3
0 -13 12 7 9 -2 -5 -2
-4 -15 13 9 11 1 -4 4
0 -12 11 7 10 3 -4 6
6 -7 11 7 12 7 -3 13
5 -8 11 7 11 2 -4 14
1 -12 10 8 11 3 -5 8
-2 -16 9 7 9 0 -5 0
-3 -16 10 5 10 0 -4 -5
-2 -13 10 4 9 2 -5 -3
-3 -17 9 7 10 0 -4 4
-4 -18 9 9 9 -1 -5 5
-2 -15 8 5 11 4 -5 9
0 -14 9 6 11 1 -4 10
0 -14 9 8 11 -2 -4 11
-1 -12 11 7 12 0 -3 8
0 -12 9 6 12 0 -3 8
-2 -14 11 6 11 0 -3 -2
-1 -12 11 8 13 2 -1 8
1 -10 13 10 14 2 0 16
2 -9 12 11 14 1 -1 11
-1 -13 12 10 14 1 1 9
1 -11 13 10 15 3 4 0
1 -11 12 10 14 2 4 0
0 -12 10 11 15 4 2 8
-3 -13 8 9 14 3 0 4
-5 -14 8 9 13 2 -1 2
-3 -14 9 7 13 2 0 1
0 -12 10 10 15 5 1 12
2 -9 10 11 15 6 1 9
5 -8 12 13 17 7 3 15
4 -8 12 17 17 8 2 12
2 -9 11 13 17 5 1 9
1 -11 11 10 16 3 1 13
3 -10 10 8 16 4 1 10
3 -9 10 10 15 4 1 6
3 -9 10 11 16 6 1 4
3 -7 8 8 14 6 1 9
-3 -11 6 7 13 2 -1 7
-3 -15 7 13 14 2 0 11
0 -13 9 12 15 2 1 13
-3 -13 10 10 16 4 1 2
-2 -12 9 9 16 4 2 4
1 -10 10 12 16 3 3 4
4 -8 10 14 17 5 2 4
4 -6 11 15 17 5 2 17
5 -5 12 12 18 8 3 11
2 -9 11 9 15 6 4 9
2 -10 9 10 15 4 3 13
1 -9 11 11 16 5 1 12
0 -10 10 15 16 4 3 6
2 -9 12 17 16 6 3 8
2 -9 11 13 16 4 3 8
2 -9 11 12 16 3 4 3
3 -10 10 10 15 5 6 2
0 -13 11 10 15 8 2 4
-4 -14 9 10 14 4 1 16
-4 -14 10 13 13 3 2 10
0 -11 10 13 13 3 2 8
2 -8 12 12 15 5 4 14
-3 -13 8 7 12 1 1 8
-2 -13 9 11 13 5 1 12
2 -8 11 12 16 8 3 10
3 -8 10 9 14 6 1 10
2 -10 8 8 13 4 1 11
2 -8 12 9 15 9 3 10
3 -7 11 10 14 7 2 13
3 -7 11 8 12 3 1 10
2 -7 10 11 12 2 0 6
1 -9 10 13 12 2 -1 25
1 -9 8 8 11 1 -1 16
0 -10 9 9 13 2 0 18
3 -8 8 10 14 1 0 11
4 -7 9 7 13 1 0 11
1 -9 7 7 11 0 -1 6
-2 -12 7 6 11 1 -2 7
-2 -10 7 7 10 3 0 5
-2 -12 8 5 10 3 -2 10
1 -8 8 6 11 3 -2 18
1 -9 7 6 11 3 0 10
1 -9 7 5 10 -2 -1 4
-1 -12 7 6 11 0 -1 13
-2 -14 7 4 9 -1 0 17
1 -11 9 6 11 0 1 9
1 -11 9 5 11 0 0 15
-1 -14 7 7 11 1 -3 17
-1 -12 5 7 11 -2 -3 12
-2 -13 7 7 11 0 -2 11
-1 -12 7 5 11 1 0 4
1 -9 8 5 11 3 1 3
-2 -12 8 3 10 0 0 8
0 -11 8 4 10 -2 -2 6
2 -9 8 3 12 -1 -2 3
2 -9 8 4 11 -2 -2 5
3 -9 8 7 11 -2 0 11
-2 -13 6 6 11 -2 -2 14
-4 -15 5 7 8 -4 -3 5
-4 -15 6 12 8 -3 -3 4
-5 -13 7 4 8 -1 -3 11
-3 -11 6 5 9 0 -2 11
0 -11 6 3 8 -1 -1 14
-1 -11 7 3 8 1 -1 12
-5 -12 8 6 9 1 -2 14
-5 -13 7 7 9 -2 -2 6
-3 -12 6 3 8 -1 -1 8
1 -7 7 5 10 -3 -1 11
2 -7 6 2 9 -3 -2 16
3 -6 8 3 10 0 -1 11
1 -7 9 6 11 1 0 13
-1 -7 8 4 11 1 -1 8
-2 -9 8 3 10 1 0 11
-2 -10 8 7 10 1 -1 12
2 -7 7 7 6 -1 -2 8
3 -8 7 4 6 0 0 15
4 -7 9 3 6 1 1 11
2 -8 7 5 5 2 0 3
-4 -14 4 4 1 -1 -3 6
-6 -15 5 3 0 2 -2 6
-3 -10 6 9 2 2 0 7
-4 -12 4 5 -1 -1 -1 5
-3 -12 5 1 0 -1 -3 13
-2 -11 5 2 1 -2 -2 10
-4 -13 5 0 0 -4 -2 3
1 -9 5 1 1 0 2 4
2 -7 5 3 1 5 2 8
2 -8 5 0 1 2 0 10
2 -7 4 -1 1 -1 -1 13
-2 -10 5 1 1 -1 -1 9
-4 -11 4 0 0 -3 -2 9
-5 -12 4 2 0 -1 -4 0
-6 -13 4 1 0 -2 -3 2
-5 -12 3 3 -1 -3 0 6
-1 -9 5 2 1 -1 1 9
1 -6 5 3 1 -1 0 11
3 -5 5 0 1 0 1 14
2 -7 5 2 1 2 0 8
1 -5 7 3 2 4 3 8
1 -4 8 6 3 3 3 7
-2 -7 7 2 3 1 1 13
-2 -7 7 6 3 3 0 14
-2 -7 5 6 2 0 0 5
-2 -7 4 4 3 1 0 12
-1 -6 4 7 2 3 -1 15
-1 -7 4 2 2 -2 -1 12
-1 -6 5 -1 2 -3 0 13
-2 -8 3 0 2 -3 -2 8
-3 -10 4 -2 1 -3 0 5
-1 -8 6 2 3 -2 1 19
-1 -8 5 3 2 -1 0 22
0 -6 6 2 3 2 0 17
-1 -5 5 -1 3 2 1 9
-3 -10 4 1 2 -1 0 5
-2 -7 5 1 2 1 1 10
-1 -7 4 -2 1 2 -1 8
-3 -10 4 -1 1 0 1 8
-3 -9 6 0 2 1 1 20
-2 -7 5 0 3 0 1 18
0 -5 7 2 3 0 2 19
3 -3 7 3 3 3 3 19
-1 -8 5 -1 1 1 2 13
-1 -8 6 -1 1 1 4 16
-1 -8 6 -2 2 1 1 24
-1 -8 5 -2 1 -1 1 19
-3 -7 6 -2 2 2 2 14
-6 -9 5 -2 2 1 3 12
-5 -11 3 -5 0 1 1 10
-3 -9 3 -2 0 -2 1 6
-1 -7 4 -3 0 -3 1 13
-1 -6 5 0 1 0 2 22
-4 -9 5 1 1 -2 0 21
-3 -6 5 1 1 0 3 13
0 -3 6 0 3 3 4 19
0 -4 5 -1 3 0 3 18
-1 -5 5 -2 2 1 3 22
-2 -4 5 1 2 2 4 16
-4 -8 4 -3 1 1 2 11
-2 -6 4 -4 1 1 2 16
-1 -4 5 -1 2 1 2 13
-3 -3 4 2 2 0 2 9
-3 -3 6 1 3 1 2 6
-2 -4 7 1 5 5 4 13
-1 -4 5 1 3 3 3 16
-3 -5 4 -2 3 2 3 14
-4 -7 3 -4 3 0 3 19
-4 -6 4 -2 3 6 4 13
-3 -5 3 -3 2 2 2 8
1 -2 5 -3 4 0 4 10
0 -1 7 -2 5 3 5 23
-4 -4 5 0 3 3 4 19
-4 -5 7 -1 5 5 4 10
-1 -3 6 0 4 3 6 17
-3 -5 5 -2 3 3 7 25
-1 -2 7 0 6 6 8 22
-1 -3 5 -2 4 4 7 15
-3 -5 4 0 2 1 5 24
0 -1 5 1 3 3 6 22
0 -1 5 1 2 4 5 29
-1 -2 6 2 4 3 6 24
2 2 5 1 4 2 6 18
-4 -5 5 1 3 2 5 15
-5 -6 4 -1 2 0 5 13
-2 -3 4 1 2 2 5 16
1 0 5 5 4 5 5 22
3 3 7 2 5 6 6 16
0 1 6 0 3 7 7 16
-1 -1 5 -2 3 4 5 15
-1 0 6 -1 4 5 5 21
-1 0 6 2 5 7 7 28
-3 0 6 1 6 7 8 17
-3 5 8 1 7 8 9 22
-5 9 10 3 8 10 10 25
-3 11 13 9 11 11 13 25
1 15 13 9 11 10 14 25
4 17 14 8 12 12 15 32
3 17 13 8 12 16 17 37
1 15 14 7 12 13 15 33
2 15 14 8 12 11 15 26
-3 13 13 7 11 16 15 25
-4 12 14 8 11 18 14 37
-1 15 17 13 13 15 16 38
0 18 17 12 13 17 17 34
3 19 15 10 12 17 15 32
0 20 18 13 16 20 18 39
-1 21 19 14 18 24 21 34
1 23 17 11 18 24 21 30
2 26 15 13 17 21 21 34
2 26 14 11 18 23 23 38
3 28 11 14 18 21 23 46
6 28 10 13 18 20 23 51
8 29 10 17 19 23 26 41
5 26 9 16 19 22 27 36
4 25 10 16 18 23 24 48
6 26 11 13 18 22 25 47
6 26 9 10 16 19 23 32
6 25 8 10 15 18 23 32
7 23 7 8 13 17 22 34
6 20 4 4 10 15 19 30
5 19 6 8 10 17 19 36
4 17 5 5 10 15 19 32
2 16 5 5 10 17 18 30
2 16 6 9 10 16 18 34
1 13 6 10 9 14 17 30
-1 8 5 4 7 12 14 27
-3 4 4 3 5 10 13 30
-3 3 2 0 2 9 11 26
-5 2 3 -2 3 7 11 30
-7 2 3 -4 2 7 10 29
-5 3 5 -3 2 8 11 21
-4 3 5 -2 3 8 12 16
-7 0 4 -4 2 7 9 20
-5 -1 3 -5 1 6 9 20
-7 -2 2 -6 0 7 9 18
-9 -4 0 -7 -2 10 7 17
-6 -3 1 -7 -1 8 8 15
-6 -4 -1 -8 -3 6 7 21
-6 -5 -2 -8 -4 4 5 15
-5 -5 0 -9 -3 7 7 15
-8 -7 1 -9 -3 6 8 18
-8 -7 1 -5 -3 4 8 16
-5 -6 1 -6 -3 6 8 15
-7 -7 0 -9 -3 5 10 13
-4 -4 1 -5 -2 5 9 9
-3 -3 2 -8 -1 6 9 10
-4 -5 2 -8 -1 7 9 9
-6 -6 0 -4 -2 5 9 9
-7 -7 -2 -8 -3 5 9 2
-5 -6 -1 -4 -2 7 10 5
-6 -8 0 -9 -2 4 9 11
-9 -10 0 -10 -3 6 8 7
-5 -6 1 -9 -2 9 8 6
-7 -6 2 -7 0 9 9 8
-9 -6 2 -8 0 8 11 -3
-7 -7 1 -8 0 7 10 -1
-7 -6 2 -7 1 8 13 1
-5 -3 1 -7 0 7 16 -5
0 -1 2 -7 1 7 14 -2
0 -3 2 -8 1 7 11 -3
-2 -5 2 -5 2 11 11 -7
-6 -7 3 -1 4 12 10 -1
-4 -9 7 8 10 15 12 4
-1 -13 10 17 13 16 8 -3
0 -20 15 30 19 18 8 -6
4 -20 23 43 28 24 8 -9
3 -21 36 54 41 30 11 -14
2 -16 50 72 55 41 16 -10
3 -8 61 89 69 51 25 -6
3 -2 73 106 83 64 35 3
6 7 81 119 102 85 53 18
12 20 87 141 124 112 77 33
15 35 90 148 142 140 103 50
21 52 94 157 165 169 135 78
29 73 89 168 189 202 172 108
33 99 65 161 201 228 207 146
41 128 44 152 214 257 246 180
46 163 19 145 233 291 286 216
44 194 -4 119 230 299 309 245
26 213 -19 49 166 237 275 245
1 204 -31 -37 67 128 197 210
-14 182 -44 -97 -10 38 125 168
-23 152 -61 -145 -69 -16 76 139
-29 122 -77 -186 -114 -63 31 107
-33 103 -94 -214 -142 -93 5 81
-33 84 -105 -212 -145 -100 -10 62
-27 68 -111 -197 -134 -94 -18 54
-19 60 -113 -180 -125 -87 -21 36
-15 46 -109 -172 -121 -84 -26 20
-16 31 -100 -158 -114 -81 -27 13
-14 25 -94 -142 -104 -74 -28 1
-15 19 -86 -125 -94 -69 -28 -4
-9 21 -76 -111 -82 -58 -22 -2
0 26 -63 -88 -65 -41 -14 -6
-1 25 -52 -72 -52 -34 -8 1
-3 24 -39 -58 -40 -23 -1 17
-5 22 -29 -44 -29 -12 3 17
-4 22 -18 -27 -17 0 9 2
-4 20 -10 -16 -9 4 12 9
-6 16 -6 -10 -5 4 13 10
-4 15 -3 -10 -2 5 13 7
-3 14 0 -5 1 8 15 6
-4 9 0 -3 1 12 16 8
-4 10 0 -4 3 13 13 3
-4 10 1 -3 4 11 14 2
-4 11 4 0 6 9 14 5
-5 9 4 1 6 11 13 3
-1 10 6 1 8 13 16 0
2 14 8 5 11 17 19 7
2 13 9 8 11 18 16 0
1 9 8 8 12 17 19 3
2 8 9 10 12 16 17 -3
4 8 9 6 11 15 14 -2
5 8 9 7 13 15 15 6
4 8 8 15 14 16 16 8
-3 7 10 20 15 19 17 10
-7 4 9 12 14 17 16 4
-5 5 9 11 14 16 16 2
-1 8 11 15 15 18 18 5
-1 8 13 14 16 19 17 9
-1 7 12 11 17 20 17 8
1 7 11 14 17 18 18 5
1 10 11 15 17 20 18 8
1 10 12 16 18 20 18 4
3 11 12 16 18 21 20 8
1 9 13 15 17 21 18 8
0 10 14 15 18 24 20 1
4 12 15 16 20 24 23 3
3 12 13 19 20 23 20 0
-2 7 14 19 18 21 19 -4
-2 6 14 16 19 23 19 -4
1 7 13 15 18 22 20 3
3 9 13 17 18 21 20 3
4 10 14 17 19 20 22 13
6 14 13 20 20 22 21 15
3 11 13 25 19 23 21 12
-1 8 13 20 20 21 20 8
0 8 13 16 20 21 20 -1
0 8 13 17 19 22 19 1
-1 7 14 21 21 22 20 1
1 9 14 20 22 26 21 -1
2 7 13 17 22 27 21 6
5 10 13 18 22 26 22 17
4 9 14 17 22 24 22 6
2 9 13 17 21 24 20 -1
3 11 14 20 21 24 21 4
3 11 15 23 22 24 21 7
3 13 15 20 22 24 22 5
3 12 15 23 24 27 24 7
2 10 15 24 25 27 23 17
4 11 15 28 26 29 24 7
4 10 14 23 26 28 23 5
2 10 13 23 26 27 24 8
5 10 12 21 25 27 23 6
2 9 12 21 24 29 22 15
2 11 13 22 25 30 25 12
3 12 14 25 26 33 25 9
3 11 13 25 27 34 24 13
2 9 13 24 29 32 26 15
5 11 13 28 29 32 27 16
8 14 14 29 31 35 27 20
9 14 14 29 31 35 31 19
8 14 14 28 31 35 30 14
5 12 12 29 31 32 28 10
3 11 12 30 31 34 28 13
4 12 13 31 32 37 29 16
4 12 13 33 31 38 28 13
4 10 11 29 30 38 27 14
6 13 12 32 34 45 30 13
9 19 15 36 38 44 33 25
7 18 14 38 38 43 34 18
9 17 13 38 38 45 34 14
14 21 13 38 40 47 36 19
14 21 13 38 39 47 35 25
13 20 12 39 40 46 37 19
9 18 11 39 40 45 37 20
9 18 12 41 41 45 38 22
10 19 11 43 42 46 43 24
8 19 13 45 45 52 44 20
7 22 13 47 44 50 42 20
12 25 15 51 47 52 45 22
15 24 14 48 49 56 47 26
15 25 13 49 51 56 48 30
18 30 13 53 52 64 48 29
20 32 13 54 55 62 51 31
19 32 12 53 54 59 50 34
17 32 13 54 55 59 51 34
22 36 13 56 55 61 53 33
24 37 13 57 58 64 58 33
20 33 11 58 58 64 58 37
19 32 10 58 59 66 56 37
21 34 10 59 61 69 59 28
20 33 10 62 62 70 61 35
20 36 10 63 63 72 63 44
20 38 9 63 65 73 68 44
24 42 10 64 66 74 69 44
27 45 11 69 68 78 69 45
24 43 9 70 68 79 68 49
24 43 8 70 69 79 70 52
23 42 8 72 72 81 74 47
23 43 5 70 71 81 74 44
25 45 5 70 72 86 76 53
23 44 3 70 73 84 76 62
27 49 4 76 74 85 81 62
29 54 4 75 76 92 82 66
31 56 3 73 77 93 83 71
34 59 3 74 77 91 84 68
37 62 3 75 79 91 84 61
37 62 3 78 80 98 88 71
36 60 3 78 82 97 91 77
34 60 2 77 82 95 92 69
36 61 1 78 82 97 95 72
36 63 1 77 82 96 96 75
37 62 -2 74 82 95 93 72
36 64 -3 73 81 96 92 77
39 65 -4 76 81 93 93 74
39 66 -3 77 81 96 96 75
44 72 -1 80 84 98 97 84
42 72 -1 77 84 97 98 82
41 71 -2 74 83 97 97 82
37 68 -3 73 82 97 96 88
35 65 -6 71 78 94 94 74
35 66 -5 73 78 96 95 83
38 68 -7 67 76 95 93 85
39 70 -6 66 74 93 92 81
39 73 -4 73 74 93 92 78
36 70 -6 67 71 89 90 77
35 72 -5 60 71 88 89 76
33 67 -3 60 70 86 89 75
29 62 -3 58 68 86 86 76
31 63 -4 56 67 87 86 75
31 61 -4 55 66 81 83 69
31 59 -4 52 62 79 80 69
31 57 -4 49 61 75 76 64
25 54 -4 47 58 72 73 62
21 51 -1 46 56 70 71 72
18 46 0 46 54 67 66 66
19 47 3 43 53 64 64 56
22 48 4 44 52 60 60 49
18 40 5 41 48 57 56 42
14 35 5 34 45 53 53 47
13 31 5 35 41 48 49 41
13 31 7 37 40 47 45 28
15 32 7 29 38 43 46 33
11 29 7 30 37 45 42 31
10 25 8 29 32 39 36 28
9 22 8 23 31 42 32 30
3 14 7 20 28 36 29 27
1 11 7 18 25 30 25 19
2 11 8 17 24 28 23 20
0 8 8 15 22 26 21 19
-1 6 8 13 20 25 19 12
-3 5 8 11 18 23 18 8
-1 5 9 10 18 23 17 5
3 9 10 13 18 19 16 9
2 7 10 11 17 19 15 20
0 7 10 9 16 20 14 16
0 3 7 6 13 16 11 0
-4 -2 7 5 11 14 11 3
0 0 7 6 13 16 12 8
2 4 8 7 14 17 11 2
3 4 8 6 13 15 10 1
1 1 7 5 12 14 9 -3
-1 -1 7 8 9 13 8 11
0 1 7 5 9 16 8 6
4 7 8 6 10 13 8 6
2 6 7 3 9 10 6 1
0 2 6 1 10 12 7 -1
-2 1 7 2 9 11 7 5
-1 -1 7 2 8 8 7 6
-5 -4 5 3 6 10 5 7
-1 -2 6 3 7 10 6 4
2 1 7 4 8 10 7 4
-2 -2 5 0 6 9 5 -4
-2 2 4 -1 6 8 6 -7
3 6 5 2 4 8 9 5
2 4 5 4 5 9 6 5
1 1 5 2 5 9 5 -3
-2 -2 5 0 4 7 4 -5
-5 -6 5 -1 4 7 4 -2
-3 -4 4 1 4 8 3 -4
-4 -2 7 0 5 10 6 -3
-5 -2 7 3 5 8 5 5
-3 -1 6 4 4 6 3 -2
-3 -2 5 -2 4 9 4 -2
-1 0 5 3 3 11 5 0
1 3 5 5 5 9 5 6
1 2 5 -1 3 5 5 -1
0 1 6 1 5 7 5 -2
-3 -1 5 5 4 7 4 -3
-6 -2 6 6 5 8 5 4
-5 -3 7 4 6 10 6 3
-4 -3 5 1 4 7 5 -2
-4 -1 4 1 4 7 3 1
-5 -2 3 1 3 9 3 0
-6 -2 4 1 3 7 5 1
-2 2 5 1 5 8 8 0
1 4 7 7 6 10 7 5
1 3 8 6 6 9 7 4
-2 2 7 4 5 9 5 4
-4 1 6 7 4 12 5 -5
2 3 4 9 4 9 6 -8
5 5 5 7 4 6 6 -3
0 1 4 0 4 9 5 -3
0 1 5 1 5 8 5 4
2 1 4 0 3 5 3 4
1 2 5 3 4 4 4 -5
1 2 6 3 5 5 6 -5
0 1 6 5 5 6 7 0
2 4 4 3 5 9 6 1
2 5 5 5 7 10 6 1
2 4 6 4 6 7 7 -1
1 1 5 2 5 5 5 1
-1 0 4 1 4 5 4 5
-1 1 4 1 3 3 4 0
-1 1 5 1 4 4 7 3
-3 0 4 2 3 4 6 8
-3 1 5 4 4 5 5 7
0 3 6 5 4 5 6 2
0 0 5 4 3 5 5 0
-1 0 4 3 4 4 3 -1
-1 -1 4 6 5 6 5 0
0 1 4 9 4 6 6 4
4 4 3 4 4 7 8 8
2 3 3 5 3 11 5 9
1 1 3 5 3 6 4 -1
0 2 2 3 2 4 3 -2
-2 -1 2 3 2 3 3 -1
-1 0 4 4 2 8 6 0
3 1 4 3 3 10 5 -1
0 2 3 3 4 9 6 -2
-2 0 6 5 5 9 6 2
0 0 4 4 3 5 5 6
3 2 2 2 2 6 3 9
0 2 3 2 2 5 4 3
-2 0 3 2 1 6 4 7
-2 0 2 2 1 4 2 10
-3 -1 1 2 0 1 0 5
-2 -3 3 1 0 2 2 7
-1 -2 3 0 0 3 1 7
-3 -4 2 0 0 3 0 3
0 0 3 2 0 2 0 -1
0 1 2 -1 -1 3 -1 -4
1 0 3 2 1 5 1 -3
0 -1 3 0 0 5 1 2
-2 -3 2 -1 -2 4 0 0
-2 -1 1 -2 -1 3 -1 -6
-1 -3 1 3 -1 1 -1 -8
-2 -5 1 -2 -2 1 -1 1
-1 -2 1 -2 -1 2 1 2
0 -2 1 -1 -1 3 2 -2
-2 -5 0 -4 -3 0 -1 -3
0 -4 1 -3 -3 4 -1 10
3 0 1 -2 -2 3 0 4
7 3 3 1 0 1 2 -1
7 3 2 1 -2 -2 1 1
1 -2 -1 -3 -4 -1 0 -4
5 -1 0 -5 -4 0 -1 -3
2 -3 -1 -6 -5 -3 -4 -3
-3 -5 -4 -8 -7 -3 -6 -11
-2 -7 0 -7 -6 -2 -4 -10
-1 -9 0 -3 -7 -3 -4 -8
2 -3 1 -3 -6 -1 -4 -4
4 -1 1 -3 -5 -3 -3 -1
2 -2 1 -3 -5 -3 -3 -2
-3 -5 1 -6 -5 -4 -1 -4
-4 -7 0 -7 -7 -4 -2 -5
-1 -5 -1 -9 -7 -3 -5 -2
3 -4 0 -8 -6 -2 -4 -4
0 -7 -2 -6 -7 -3 -5 -6
-3 -9 -2 -8 -7 -3 -6 -11
1 -5 -1 -7 -8 -3 -6 -8
-1 -7 -3 -11 -9 -2 -7 -1
0 -7 -4 -11 -11 -5 -8 -3
1 -7 -3 -12 -10 -7 -8 2
-1 -8 -2 -11 -9 -7 -4 7
-5 -9 0 -8 -8 -6 -3 -4
-7 -11 -2 -8 -11 -8 -8 -11
-5 -11 -1 -5 -10 -6 -7 -7
0 -6 -1 -6 -10 -2 -4 1
0 -5 0 -7 -8 -2 -3 -9
0 -6 -1 -8 -9 -4 -6 -12
-1 -8 -2 -10 -10 -5 -8 -10
0 -9 -3 -9 -11 -6 -8 -1
-1 -9 -3 -10 -11 -8 -8 1
-2 -10 -3 -13 -12 -8 -9 -3
-1 -7 0 -10 -10 -7 -8 -3
0 -8 -1 -11 -9 -8 -8 -9
-3 -11 -2 -11 -10 -7 -8 -5
-3 -11 -3 -10 -10 -7 -9 -4
-7 -16 -3 -12 -11 -9 -9 -7
-6 -15 -5 -11 -11 -10 -10 3
-6 -12 -3 -1 -10 -10 -10 1
-3 -10 -3 -6 -11 -11 -10 -2
4 -5 -2 -12 -10 -6 -8 -1
3 -6 -2 -12 -10 -6 -8 -10
0 -8 -2 -13 -10 -10 -8 -13
2 -7 -2 -11 -9 -8 -8 -13
0 -11 -2 -12 -9 -8 -9 -11
-1 -11 -3 -8 -11 -11 -9 -5
1 -10 -3 -11 -10 -10 -9 -15
-2 -13 -4 -13 -11 -12 -9 -8
-3 -15 -5 -15 -11 -12 -11 -10
-4 -15 -5 -13 -11 -13 -11 -13
-5 -16 -6 -15 -13 -13 -12 -16
-5 -18 -6 -13 -13 -13 -12 -14
-4 -18 -6 -15 -13 -11 -11 -14
-1 -15 -5 -15 -12 -10 -12 -7
-2 -16 -4 -15 -12 -9 -12 -13
-4 -16 -4 -15 -13 -9 -12 -12
0 -12 -3 -12 -11 -10 -9 -3
1 -8 -4 -12 -12 -12 -11 -8
-2 -13 -5 -15 -13 -11 -12 -10
-1 -12 -5 -16 -12 -9 -12 -9
-2 -11 -5 -16 -13 -13 -13 -8
-1 -13 -5 -13 -12 -13 -10 -3
-2 -13 -5 -14 -13 -13 -11 -10
-5 -17 -5 -16 -12 -12 -14 -13
-5 -19 -6 -17 -13 -14 -14 -17
-4 -17 -5 -17 -15 -15 -14 -15
-2 -17 -4 -11 -13 -13 -13 -14
0 -14 -7 -14 -13 -12 -12 -16
-1 -13 -7 -16 -14 -13 -14 -17
-2 -14 -6 -14 -14 -14 -14 -8
0 -16 -5 -13 -13 -15 -13 -8
-1 -15 -5 -15 -14 -15 -13 -13
-3 -17 -4 -13 -14 -15 -12 -9
-5 -19 -6 -11 -14 -14 -13 -2
-2 -17 -4 -13 -13 -12 -13 -8
1 -14 -4 -14 -13 -13 -13 -12
0 -16 -4 -16 -14 -12 -12 -14
1 -16 -7 -17 -14 -14 -14 -14
4 -13 -6 -16 -14 -15 -14 -13
3 -12 -6 -15 -14 -16 -14 -7
0 -14 -4 -17 -12 -14 -12 -8
2 -12 -4 -17 -14 -11 -12 -14
5 -9 -3 -15 -13 -12 -12 -10
6 -10 -5 -15 -13 -13 -10 -15
1 -14 -6 -17 -15 -13 -15 -13
-3 -18 -6 -18 -16 -13 -16 -12
-2 -19 -6 -19 -17 -16 -15 -6
-2 -20 -6 -18 -16 -16 -13 -12
-1 -19 -6 -15 -16 -15 -14 -12
-2 -19 -6 -13 -15 -16 -15 -10
1 -15 -4 -16 -16 -15 -15 -6
2 -15 -7 -17 -18 -17 -16 -11
-7 -20 -9 -16 -20 -20 -18 -13
-5 -20 -9 -18 -19 -17 -15 -14
-3 -19 -8 -17 -18 -15 -17 -16
-2 -19 -8 -13 -18 -14 -16 -8
-1 -20 -7 -16 -19 -16 -17 -8
-5 -23 -8 -18 -20 -17 -18 -15
-5 -22 -9 -22 -21 -16 -19 -19
1 -18 -9 -19 -20 -17 -18 -20
0 -17 -8 -18 -19 -17 -17 -10
-3 -20 -8 -19 -20 -15 -17 -11
-2 -20 -9 -20 -21 -17 -18 -18
-2 -20 -10 -19 -21 -16 -19 -9
0 -18 -9 -20 -20 -18 -18 -11
-4 -22 -8 -19 -20 -18 -18 -9
-2 -21 -8 -16 -19 -18 -17 -15
2 -17 -7 -11 -19 -16 -16 -10
0 -18 -8 -18 -20 -18 -16 -6
-2 -20 -9 -19 -20 -19 -17 -5
-2 -20 -9 -18 -19 -17 -17 -8
-3 -20 -8 -18 -19 -18 -16 -12
0 -18 -7 -17 -18 -19 -16 -15
0 -16 -7 -18 -18 -16 -16 -17
0 -18 -7 -17 -18 -16 -15 -10
3 -15 -6 -16 -18 -15 -15 -5
5 -13 -5 -16 -17 -15 -15 -12
6 -12 -4 -15 -16 -15 -14 -13
6 -11 -5 -14 -16 -13 -13 -10
5 -12 -5 -13 -15 -15 -14 -13
6 -10 -5 -14 -15 -15 -14 -11
5 -12 -7 -13 -16 -16 -15 -4
3 -14 -5 -13 -16 -15 -15 1
6 -11 -5 -10 -15 -13 -14 -7
3 -13 -6 -14 -16 -14 -16 -12
-3 -19 -7 -17 -18 -17 -17 -18
-5 -22 -8 -17 -17 -17 -18 -16
-5 -20 -9 -17 -17 -16 -17 -8
-2 -19 -6 -14 -16 -16 -16 -3
-1 -19 -6 -15 -16 -16 -15 -3
1 -16 -7 -11 -17 -14 -15 -7
0 -14 -6 -9 -16 -15 -14 -11
-2 -15 -4 -13 -14 -14 -14 -8
-1 -16 -5 -14 -15 -14 -14 -10
-3 -18 -5 -13 -16 -15 -14 -11
-5 -19 -5 -11 -17 -16 -15 -15
-3 -18 -5 -11 -15 -12 -14 -17
-4 -19 -5 -14 -16 -13 -14 -10
-5 -18 -5 -14 -16 -15 -13 -10
-3 -14 -5 -12 -15 -12 -13 -16
-2 -13 -4 -13 -14 -11 -13 -8
-1 -13 -5 -12 -13 -12 -13 -9
-3 -16 -5 -9 -14 -13 -13 -8
-3 -17 -4 -8 -13 -13 -13 -2
-2 -14 -5 -11 -14 -15 -13 0
-5 -17 -5 -10 -15 -15 -14 -3
-3 -12 -4 -9 -15 -12 -14 0
0 -11 -5 -9 -15 -16 -13 -8
1 -13 -4 -10 -13 -13 -9 -12
1 -12 -3 -7 -13 -14 -12 -11
1 -12 -6 -9 -13 -14 -12 -5
2 -12 -6 -13 -14 -14 -13 -7
3 -10 -4 -11 -13 -10 -12 -4
1 -10 -4 -10 -13 -11 -11 -8
1 -10 -4 -9 -14 -13 -12 -14
0 -11 -5 -9 -14 -14 -10 -11
-2 -14 -6 -11 -14 -15 -11 -8
-2 -14 -5 -12 -14 -15 -13 -6
0 -12 -4 -9 -13 -12 -11 -6
2 -9 -3 -7 -11 -6 -10 -3
0 -9 -3 -10 -11 -6 -9 -11
-2 -10 -3 -10 -12 -10 -10 -2
-1 -10 -3 -11 -11 -10 -9 -1
0 -8 -3 -10 -10 -11 -9 -5
1 -8 -3 -9 -10 -7 -6 -5
0 -9 -2 -9 -11 -6 -8 -4
-1 -11 -3 -9 -10 -11 -9 0
-2 -11 -4 -8 -11 -8 -9 1
-3 -12 -3 -9 -10 -5 -9 4
-2 -13 -2 -9 -10 -8 -8 -9
2 -7 -3 -7 -9 -10 -8 -12
4 -5 -1 -5 -8 -7 -7 -6
2 -6 -1 -8 -8 -8 -7 5
3 -5 -2 -9 -9 -9 -8 8
1 -7 -1 -9 -8 -6 -7 4
-1 -6 1 -8 -8 -4 -7 1
3 -3 1 -8 -7 -5 -4 1
1 -6 -1 -8 -8 -9 -5 -4
1 -8 -1 -7 -8 -9 -6 -5
3 -6 -2 -8 -8 -5 -6 -8
0 -9 -3 -6 -9 -5 -7 -8
-2 -10 -1 -6 -9 -9 -7 -6
-4 -11 -1 -6 -9 -8 -6 -2
-5 -12 -1 -9 -9 -6 -6 5
-7 -13 -1 -9 -7 -4 -6 1
-6 -13 -1 -9 -9 -6 -7 -6
2 -7 0 -7 -7 -6 -5 -5
4 -4 3 -4 -5 -6 -4 1
-1 -5 3 -3 -5 -5 -3 2
0 -4 2 -5 -5 -3 -3 -7
0 -4 2 -4 -5 -5 -4 -6
2 -1 3 -4 -5 -4 -2 -3
4 1 4 -4 -3 -1 -1 -3
2 3 5 -3 -2 -1 -1 1
3 8 9 3 1 2 2 8
5 12 13 7 4 5 4 7
4 12 11 6 3 4 5 5
2 10 10 2 2 4 4 4
4 11 9 2 2 3 4 4
3 12 7 0 1 3 3 3
0 8 9 -2 1 2 3 4
0 8 9 -1 1 1 2 11
1 9 11 0 1 5 3 11
0 8 11 5 2 3 3 1
0 11 11 4 2 1 2 1
2 12 12 4 4 7 4 2
2 14 13 7 5 5 6 5
4 17 15 7 7 8 7 4
5 19 16 9 8 7 8 5
6 22 14 8 9 8 9 10
10 25 13 6 10 12 12 9
8 23 9 8 9 10 10 10
8 25 8 11 9 10 11 21
11 27 8 10 10 12 12 22
12 26 10 10 12 13 13 22
13 25 11 12 12 11 14 11
14 25 12 11 12 12 14 13
13 24 10 8 9 8 11 14
16 26 10 10 10 8 11 9
14 22 7 8 7 5 9 9
8 16 3 1 3 2 6 6
5 14 0 0 0 -1 2 10
1 9 1 3 1 2 4 7
-1 5 4 1 2 2 4 5
-1 4 3 1 2 0 4 0
2 4 5 2 2 2 4 -2
2 4 6 3 2 1 4 6
-1 0 4 1 -1 -1 1 1
4 4 4 -2 -1 -3 0 3
6 4 5 -2 -2 -3 -1 -4
5 3 5 -3 -2 -3 -2 -5
1 0 6 -3 -2 -2 -2 -1
3 1 4 -3 -3 -4 -3 6
2 -1 4 0 -3 -3 -3 -1
3 -1 4 -1 -4 -5 -4 -3
2 -5 2 -6 -6 -7 -6 -7
0 -8 0 -6 -7 -9 -7 -3
-5 -8 1 -6 -7 -8 -6 4
-6 -7 3 -2 -6 -7 -5 0
-1 -7 2 -4 -7 -9 -6 -9
-1 -8 0 -9 -8 -7 -7 -9
-4 -11 0 -8 -8 -5 -8 -2
-2 -10 1 -7 -7 -5 -8 -5
0 -8 1 -9 -8 -8 -9 -7
-2 -7 -1 -9 -8 -8 -9 -9
-5 -10 -1 -7 -9 -9 -7 -9
-4 -10 -1 -8 -8 -8 -8 -3
0 -8 1 -8 -7 -9 -7 -7
0 -9 0 -8 -7 -8 -7 -5
-1 -11 1 -8 -8 -9 -7 -5
-2 -9 0 -9 -8 -9 -7 -5
-2 -10 2 -8 -8 -9 -8 -2
-1 -11 3 -6 -8 -8 -7 -6
-3 -12 2 -6 -7 -7 -7 -8
-3 -11 1 -5 -7 -7 -8 -8
3 -6 5 -1 -4 -2 -5 -6
1 -7 3 -3 -4 -3 -5 -6
0 -8 1 -4 -6 -3 -6 3
-2 -10 2 -6 -6 -7 -5 2
-4 -14 2 -6 -6 -7 -6 -5
-2 -12 2 -6 -7 -7 -6 -8
-2 -11 4 -3 -4 -2 -5 -6
1 -11 7 4 0 -1 -3 -8
4 -14 12 13 6 5 -2 -8
3 -23 13 19 9 4 -6 -13
2 -28 17 27 14 8 -8 -9
4 -29 25 42 22 9 -10 -17
4 -29 39 62 35 23 -7 -17
6 -20 54 80 51 34 2 -14
11 -9 69 95 66 43 12 -15
12 -2 78 108 80 62 24 -10
18 11 85 126 101 84 45 12
20 22 89 142 123 106 70 32
21 32 91 153 140 130 96 55
31 55 94 163 165 163 130 82
42 82 80 167 185 196 169 117
47 111 59 160 197 223 204 153
51 137 38 154 212 251 242 183
55 172 13 146 230 282 281 224
50 203 -6 115 214 277 288 245
24 209 -22 35 135 198 240 240
2 193 -36 -46 43 91 160 206
-11 168 -50 -100 -27 13 96 157
-18 137 -65 -150 -83 -43 46 118
-25 113 -81 -189 -123 -82 11 95
-25 99 -94 -206 -142 -100 -7 76
-19 85 -100 -197 -139 -99 -20 63
-11 67 -105 -181 -129 -91 -25 42
-9 52 -105 -167 -122 -90 -30 29
-13 35 -99 -156 -119 -90 -36 15
-10 28 -95 -141 -111 -85 -39 -2
-4 23 -88 -132 -101 -73 -39 -2
-5 18 -79 -113 -91 -69 -38 3
-2 18 -68 -95 -80 -63 -33 3
-2 18 -56 -79 -64 -47 -25 5
-3 18 -47 -62 -53 -38 -18 10
-7 14 -36 -48 -42 -33 -15 3
-5 16 -24 -36 -31 -23 -10 -1
-2 15 -13 -21 -19 -11 -3 4
-2 13 -7 -13 -13 -9 -1 4
-1 11 -2 -4 -7 -5 1 1
1 9 -1 -4 -5 -4 4 0
-1 7 1 0 -4 0 3 -3
0 7 3 0 -2 2 1 -2
3 7 2 0 -2 0 3 -4
0 3 2 3 -3 -2 2 -1
-3 3 3 4 -2 -2 0 9
-3 2 5 1 -1 -1 -1 8
1 4 6 3 1 4 0 0
3 6 8 8 4 6 2 -1
3 5 8 6 5 4 2 2
4 5 10 8 6 7 3 3
5 6 10 9 7 5 4 6
2 4 9 9 7 5 4 3
3 4 9 9 9 8 5 3
1 3 11 12 8 10 6 10
4 6 12 17 9 11 7 9
4 4 12 13 9 8 5 2
2 1 12 11 9 9 4 -6
3 4 14 14 11 11 5 -1
3 5 14 14 11 10 5 0
8 7 14 17 12 13 7 0
11 10 14 19 13 13 8 5
8 8 14 21 13 14 8 5
6 6 13 17 12 13 7 8
8 8 13 17 13 14 8 8
5 8 14 17 12 12 7 9
2 5 15 16 12 11 9 7
4 6 15 16 13 12 11 4
4 8 16 20 15 14 8 4
7 10 16 20 15 14 11 5
9 9 16 20 15 14 10 3
11 12 16 21 17 14 9 6
9 12 17 22 17 14 9 7
10 11 16 21 17 14 9 11
13 14 17 26 18 16 11 7
15 17 17 25 18 17 12 5
13 15 19 24 19 20 12 4
9 12 19 24 20 20 13 3
8 10 18 24 19 18 12 2
9 9 18 25 20 16 12 5
11 9 18 25 19 17 12 13
9 9 16 24 19 18 13 13
5 8 17 23 20 18 13 2
5 8 18 23 21 17 14 11
4 8 17 22 21 17 13 11
4 8 17 23 21 16 13 8
0 3 18 22 20 14 11 2
0 3 17 22 20 16 12 5
0 3 16 24 21 16 12 14
2 3 16 22 20 15 14 3
4 2 17 24 22 20 14 -1
5 5 15 29 22 21 16 1
3 5 16 27 22 17 14 4
5 7 17 28 22 18 16 8
6 7 16 28 24 19 16 13
7 9 16 29 25 20 17 19
7 9 17 30 25 21 17 18
8 9 17 30 26 22 17 14
7 9 18 31 28 25 20 13
7 8 17 31 27 23 17 8
8 8 18 31 27 23 17 11
9 11 16 30 28 27 18 11
7 9 17 32 27 26 18 17
10 11 16 32 28 24 19 23
10 13 16 34 29 24 21 16
8 12 16 35 30 24 21 13
10 15 17 36 31 28 23 12
10 13 16 36 32 28 23 19
9 11 16 36 32 28 22 21
10 11 16 41 33 29 23 25
11 12 17 43 35 32 25 33
15 18 17 40 37 32 28 27
13 16 17 41 36 35 28 22
14 16 16 41 37 38 29 21
19 23 18 46 39 36 32 22
17 22 17 44 39 34 31 22
15 19 17 44 39 35 31 22
15 20 17 44 40 35 31 25
14 19 17 48 42 37 32 24
17 22 18 50 44 38 34 30
20 27 18 49 46 40 36 32
21 28 18 51 48 43 39 36
21 28 19 53 49 44 40 30
22 29 19 53 49 46 41 30
23 32 19 53 51 47 43 32
24 33 18 55 51 47 43 38
26 36 19 58 54 49 45 41
25 36 18 59 55 51 47 32
25 35 17 62 57 52 48 42
28 37 17 63 58 54 49 40
29 39 17 65 59 55 51 38
23 35 14 66 58 55 51 40
24 36 13 65 60 58 52 39
29 40 12 63 60 57 53 41
30 42 13 65 64 58 57 44
31 43 12 67 64 60 57 47
27 40 11 70 64 61 58 56
25 40 12 71 67 64 61 58
31 45 11 72 68 65 62 47
33 46 10 72 69 68 63 52
33 47 9 72 71 70 66 52
28 48 9 73 73 71 69 54
30 51 9 76 74 74 71 56
34 54 8 77 75 74 72 60
35 57 8 81 77 76 75 60
37 61 8 78 77 77 76 59
34 59 8 78 79 78 78 65
32 58 6 76 78 77 78 72
34 59 6 82 79 78 80 72
35 59 5 81 80 80 81 69
36 62 4 78 80 82 83 70
35 64 4 78 81 83 85 68
38 66 4 80 81 81 86 76
40 68 4 78 81 82 87 74
38 68 3 75 80 81 87 70
37 67 2 76 79 81 87 78
40 69 1 78 78 81 87 77
40 70 3 76 80 81 88 76
39 71 2 79 80 82 88 73
39 70 0 76 78 81 87 74
39 71 1 73 78 82 88 75
40 73 2 72 77 81 88 73
37 70 -1 69 74 79 86 76
34 68 -2 68 73 77 86 75
37 73 -1 69 74 80 88 73
35 72 -2 69 73 78 86 79
34 71 -2 64 70 75 85 82
40 75 1 65 73 78 87 73
43 78 0 68 70 75 84 74
42 78 0 64 69 73 82 75
39 77 0 59 68 70 81 72
34 69 0 56 66 68 79 69
35 69 0 56 65 67 78 68
36 69 2 58 65 66 76 66
30 67 3 56 62 67 72 60
24 55 3 52 59 62 68 53
22 52 3 49 55 58 63 52
25 53 7 47 56 57 61 48
26 54 9 46 54 54 59 48
21 48 9 44 53 50 55 49
22 48 10 44 52 48 53 44
18 42 9 43 48 44 48 43
16 38 9 39 44 41 43 28
20 40 12 38 44 41 42 31
16 36 13 33 42 38 39 34
14 33 11 33 38 31 35 26
13 32 15 33 38 31 35 23
12 29 13 31 36 27 30 23
12 26 14 29 33 25 27 21
11 24 15 28 32 23 24 16
8 21 15 34 30 21 22 7
6 18 13 27 27 19 19 10
2 15 12 19 25 16 17 4
3 14 12 18 24 13 16 2
2 13 12 17 23 13 16 3
1 11 11 15 21 14 13 0
1 10 12 19 19 13 12 -2
-1 8 12 19 19 15 12 2
-2 7 12 20 18 14 13 -3
-1 8 14 15 20 14 13 -2
1 7 12 12 18 9 8 3
1 6 13 13 17 9 8 -2
0 7 14 12 17 9 9 -1
-1 7 13 13 16 7 8 -1
1 8 13 12 16 8 8 -3
4 10 13 11 14 5 7 2
5 9 12 10 15 4 8 4
5 9 11 10 14 5 6 -1
0 6 12 9 12 4 6 -2
-2 5 13 10 13 3 8 -5
0 5 12 10 13 3 7 2
2 7 12 10 12 6 5 3
7 12 15 11 14 6 8 -5
8 13 14 9 13 5 7 -6
7 15 14 10 13 6 7 -2
7 15 14 11 13 4 8 8
4 12 15 12 14 5 7 4
5 12 15 12 13 6 6 1
5 12 15 13 14 4 6 2
1 7 14 10 13 2 6 2
-1 8 14 9 14 4 7 0
-2 7 12 7 12 4 6 4
-1 9 12 9 11 2 6 2
-1 9 13 13 12 2 6 -2
-4 7 11 7 11 3 6 6
-5 2 13 8 11 4 8 10
-3 4 12 7 10 3 4 1
-1 7 14 8 13 2 5 2
1 9 15 9 13 3 5 -1
1 9 15 10 14 4 6 5
0 7 15 15 15 5 6 9
-2 7 11 12 12 3 6 7
-3 6 12 9 12 3 7 15
-2 10 11 9 12 5 7 12
-2 8 12 12 13 3 8 7
0 8 12 8 12 2 7 6
4 11 15 11 14 7 8 7
1 8 13 10 15 5 8 8
-1 6 13 10 14 3 10 4
-6 1 12 10 14 3 7 2
-9 1 12 9 13 3 5 11
1 9 15 14 15 6 8 14
5 13 16 16 15 5 9 15
2 11 15 13 15 6 13 14
-1 8 14 12 15 6 10 6
-4 7 13 12 13 7 7 5
3 11 13 13 13 6 7 7
7 14 14 15 15 5 9 13
4 10 13 11 15 4 8 11
1 9 14 12 15 4 8 4
-2 8 14 11 15 6 8 3
0 8 13 11 14 7 9 2
3 9 14 11 14 8 8 2
3 10 14 11 14 6 8 2
2 11 15 11 16 6 9 10
3 13 16 16 17 7 10 11
3 13 16 14 16 7 9 6
4 13 14 12 16 7 9 15
5 12 15 13 17 8 10 16
4 13 15 16 17 9 10 10
4 15 16 16 18 10 12 11
3 12 16 14 19 9 12 3
7 15 16 14 19 9 12 7
6 13 14 12 17 7 10 4
5 11 13 11 16 9 8 1
8 15 14 15 17 9 9 4
4 16 15 19 18 9 10 7
-4 11 15 20 18 10 10 3
-1 11 15 17 18 11 10 5
1 11 14 13 18 10 9 9
1 11 14 12 18 8 9 6
4 13 14 12 18 9 10 7
2 13 13 15 17 7 9 11
3 14 14 13 17 7 10 12
2 12 14 12 16 7 10 6
0 9 12 13 15 5 8 7
1 10 12 14 16 8 9 9
-1 10 11 11 16 6 10 5
0 11 13 13 18 8 11 3
4 12 13 12 16 8 9 5
1 12 13 13 15 6 7 6
1 10 13 12 16 7 8 0
0 9 11 13 14 8 6 4
2 12 13 14 16 10 8 14
4 15 14 13 16 9 8 7
0 13 13 12 14 4 7 0
-1 12 13 14 14 6 7 5
1 11 13 15 14 6 6 9
-2 7 12 14 14 2 6 4
0 9 11 11 13 2 5 1
1 10 13 11 15 4 7 4
1 11 12 10 14 4 6 12
2 12 13 13 15 6 8 12
0 9 12 12 14 5 6 7
-1 7 11 11 13 4 5 3
-3 6 11 10 11 3 4 3
0 9 12 8 12 4 5 3
3 14 15 13 14 6 8 4
1 12 13 11 13 7 6 1
-1 8 10 7 10 3 4 -6
-1 8 10 7 11 2 6 -3
0 7 9 7 9 1 6 -5
1 7 10 8 10 2 4 -1
-1 8 9 6 10 2 3 2
0 8 11 7 11 4 5 3
4 11 11 10 12 3 4 5
2 10 9 7 11 2 4 3
1 8 8 6 11 2 3 -2
5 11 10 7 12 2 6 3
2 9 11 8 12 4 5 0
0 9 11 9 11 3 5 2
-1 7 10 9 11 1 4 3
1 9 11 10 11 2 6 4
3 11 11 10 12 2 8 3
2 9 11 9 12 3 5 -2
4 11 11 6 11 2 4 -1
6 12 11 10 12 2 4 0
5 12 10 10 11 2 3 2
5 13 10 5 9 0 2 -1
5 11 11 6 10 1 3 -3
4 13 12 7 12 2 3 -2
6 12 12 8 13 3 5 -2
2 9 10 8 11 -1 3 -3
0 10 9 4 8 0 1 1
2 8 10 5 9 -1 1 -4
0 6 9 6 8 -2 1 -9
-1 4 8 5 7 -4 0 -7
-3 3 8 3 6 -3 0 -9
-4 1 8 4 6 -4 0 -11
-3 2 8 4 7 -3 0 -11
-3 4 8 6 7 -3 -1 -7
0 6 8 5 7 -3 -1 0
-1 6 8 7 8 -3 0 -5
-4 4 7 2 7 -3 0 -8
-4 4 7 4 7 -2 0 -1
-2 5 6 5 7 -2 1 1
-2 5 6 3 8 0 2 3
1 7 8 3 8 -1 2 -8
2 10 7 5 7 -3 1 -8
4 9 8 8 8 2 1 -4
1 6 7 3 8 -1 1 -5
-1 4 5 4 7 -4 0 -3
0 8 8 6 9 -1 2 -1
1 10 10 5 11 -1 4 -5
-2 5 8 4 9 -3 2 -7
-4 3 8 4 8 -5 1 -8
-5 4 8 6 8 -4 1 -3
-3 6 8 2 8 -4 1 -4
-2 4 8 4 8 -3 1 -4
-1 6 8 8 8 -3 1 -6
0 8 9 5 9 -2 3 -7
-1 7 7 2 8 -2 1 -5
-1 7 6 2 7 -1 0 -6
-1 8 7 2 8 -2 1 -10
0 9 7 2 7 -3 0 -9
-1 8 7 3 7 -3 2 -6
-2 6 6 2 7 -5 1 -9
-4 4 7 1 6 -6 -1 -13
-3 4 7 2 6 -7 -1 -13
-1 7 7 4 6 -5 -1 -9
3 10 8 3 7 -3 -1 -6
2 11 9 5 8 -3 1 4
3 13 6 6 6 -5 -1 -5
5 12 7 4 7 -4 0 -7
3 9 6 2 6 -6 0 -13
2 8 7 3 5 -7 0 -5
6 11 8 4 7 -3 1 -9
6 12 8 6 7 -2 1 -12
2 10 8 5 7 -5 1 -7
-3 7 8 4 7 -4 1 -5
-3 6 6 5 7 -4 -2 -8
-4 4 7 7 5 -5 -2 -6
-5 3 5 3 5 -6 -3 0
-5 4 5 1 6 -5 -2 -1
-2 5 5 3 7 -1 -1 -7
-2 6 5 5 6 -6 -2 -7
-1 6 5 4 6 -5 -1 -5
-1 6 5 3 7 -5 -2 -11
-3 5 6 4 8 -3 0 -6
0 7 6 4 7 -4 0 -4
1 7 5 4 7 -6 0 -4
0 6 5 3 7 -7 -1 -7
-1 7 6 6 6 -4 1 -5
-3 8 6 8 7 -3 0 -2
-1 7 6 5 7 -4 0 -2
1 8 6 5 6 -5 1 3
-1 6 5 4 6 -4 0 -3
2 7 4 3 6 -5 0 -3
1 6 5 5 6 -4 0 6
2 9 7 7 8 -2 2 3
4 12 8 8 9 -2 2 -2
3 9 6 4 7 -4 1 -4
1 7 5 4 6 -5 0 -7
-4 4 4 7 5 -5 -1 -9
-9 2 5 6 6 -4 0 -5
-4 5 4 4 4 -7 -1 2
0 7 5 3 6 -5 -2 3
-1 7 5 3 6 -6 -1 -1
-2 6 7 5 7 -5 0 4
-3 5 6 7 7 -4 0 -2
0 7 6 10 8 -5 1 -4
1 8 5 5 6 -3 0 -1
1 7 7 4 6 -1 2 -2
0 8 6 6 6 -3 1 -4
1 8 7 7 7 -4 1 -1
1 8 7 4 7 -4 1 -2
0 5 5 6 7 -3 1 1
1 7 6 8 7 -3 1 2
3 10 7 7 8 -4 2 1
0 6 4 4 7 -3 -1 -12
-2 6 5 6 8 0 1 -2
-2 7 5 6 8 -3 1 -1
-3 5 5 4 6 -5 -1 -5
-3 6 4 4 5 -4 -1 -4
-1 8 5 6 6 -5 1 -1
-4 5 4 4 5 -5 0 -9
-4 4 4 3 6 -4 0 -8
-5 3 3 3 6 -5 -1 -2
-5 3 4 5 7 -5 -1 -4
-1 7 5 5 8 -4 1 -3
0 8 4 5 7 -4 1 -4
0 8 4 7 6 -2 1 -8
1 7 4 10 6 -4 -1 -4
0 7 4 4 5 -5 -1 -9
0 9 5 4 6 -4 -1 -9
2 8 5 5 6 -4 0 -11
0 6 5 11 6 -4 0 -9
-4 8 5 9 6 -5 4 -4
-3 5 6 5 7 -4 3 0
-4 5 6 4 6 -1 0 -3
-5 5 6 4 6 -1 1 0
-3 5 4 4 5 -2 0 -6
-4 4 2 6 4 -4 -1 -4
-7 2 3 5 4 -6 -2 -6
-5 3 5 3 6 -4 0 -10
-1 6 6 4 7 -4 1 -11
-2 4 5 3 6 -6 2 -8
1 8 5 4 6 -5 0 -8
1 9 5 5 5 -5 -1 -11
-1 8 4 6 6 -6 -1 -11
-2 7 5 12 7 -4 0 -9
-4 7 3 9 6 -5 -1 -5
-2 8 4 6 7 -4 1 -2
2 12 6 10 9 -2 2 -5
1 9 2 7 5 -4 -1 -7
-3 4 1 5 4 -7 -2 -10
-9 0 2 4 4 -5 -2 -15
-5 4 1 5 5 -6 -1 -12
1 8 3 8 6 -6 -2 -4
0 8 4 11 6 -5 0 -7
1 10 4 11 6 -3 0 -9
4 12 5 8 6 -2 1 -9
0 10 5 11 6 -3 1 -2
1 10 5 9 7 -4 1 -6
1 11 4 6 5 -3 0 -9
1 12 3 7 4 -5 -1 -12
1 12 3 10 4 -5 0 -8
2 9 5 12 6 -2 1 -7
0 9 5 8 6 -1 1 -1
3 11 6 8 6 -2 1 -1
0 9 5 8 6 -2 1 -6
-3 6 4 6 7 -3 0 -7
-2 8 5 7 7 -1 1 -7
-2 8 5 7 7 -4 0 -10
-1 9 6 10 8 -2 0 3
-4 8 5 10 7 -3 -1 -2
-6 4 3 8 5 -5 -3 -10
-5 5 4 5 4 -9 -3 -12
-4 6 5 6 6 -7 -3 -11
-1 10 4 5 5 -6 -3 -11
0 10 6 6 6 -5 -1 -7
-1 8 6 6 6 -5 -1 -9
-1 9 6 7 6 -5 0 -6
-3 7 4 6 5 -5 -1 -9
-4 6 5 9 7 -3 1 -5
-3 7 6 8 8 -2 1 -2
-2 8 6 8 8 -2 1 -4
1 9 5 11 8 -3 1 -7
2 10 4 11 6 -4 -1 -12
2 7 4 8 6 -3 -1 -13
-3 9 5 9 7 -4 0 -6
-3 8 5 10 8 -1 0 -11
-2 8 4 8 6 -2 -1 -7
2 10 3 6 6 -4 -1 -5
0 9 4 7 6 -3 -1 -9
-2 8 4 6 6 -4 -1 -4
-4 8 5 7 6 -3 0 -10
-2 8 4 7 6 -2 1 -10
-3 8 4 9 8 -1 0 -5
-2 6 3 7 6 -4 -1 -11
-4 7 3 10 6 -4 -1 -12
-3 8 5 10 7 -2 0 -12
-1 9 4 12 7 -2 0 -10
2 12 5 10 8 -2 0 -8
1 12 4 10 7 -2 0 -9
0 10 4 9 6 -3 0 -5
-2 12 4 10 7 -3 0 -11
-1 13 6 12 8 -2 1 -8
2 12 8 15 11 -2 3 -2
0 13 8 13 10 0 3 -5
-1 13 8 15 10 2 3 -8
0 20 12 16 12 3 4 -6
0 24 13 18 15 4 5 -1
3 26 13 18 16 4 6 -1
4 28 14 18 17 7 7 -3
4 28 14 19 16 9 8 -3
2 26 13 21 15 4 7 -6
0 24 14 18 16 4 8 -3
-2 21 12 17 14 3 6 -4
1 26 13 21 14 4 7 -6
3 28 14 24 15 3 8 -7
4 28 14 20 16 5 9 -3
3 30 15 19 17 7 10 -1
5 33 15 21 18 9 11 0
3 33 15 25 20 10 11 -3
1 33 13 25 19 6 10 -5
-2 33 11 20 19 6 10 -2
-2 33 10 22 19 8 11 -1
-1 35 8 22 19 9 12 4
3 38 8 26 21 10 14 2
5 40 9 28 24 12 16 1
11 44 11 30 26 14 18 4
9 43 11 29 25 16 17 7
7 39 10 24 23 15 16 6
6 37 8 22 21 11 15 0
4 35 8 19 18 8 13 0
1 29 5 16 15 5 12 -2
2 29 3 18 13 5 9 0
2 32 2 18 13 4 9 -2
2 33 2 14 13 5 8 -2
3 28 3 15 13 5 8 -2
4 23 4 14 13 5 8 -2
3 21 3 12 11 4 5 -4
1 19 4 15 11 1 5 -2
-4 16 6 14 10 0 4 -4
-4 13 4 12 8 -2 2 -11
-2 14 2 13 5 -4 0 -10
-1 13 1 9 5 -4 -1 -8
1 13 3 10 7 -3 0 -4
-1 14 5 14 9 -2 2 -3
-3 12 5 11 8 -2 0 -6
-4 11 3 8 7 -2 -1 -10
-2 12 3 8 6 -3 -1 -10
-2 10 4 8 7 -2 -1 -15
0 11 4 8 6 -4 -2 -20
-2 9 2 6 3 -4 -4 -22
-6 7 1 7 2 -7 -4 -22
-6 7 1 8 3 -6 -4 -14
-7 5 -1 8 1 -5 -5 -18
-6 4 -2 7 1 -6 -6 -18
-6 3 -1 4 1 -9 -5 -18
-4 3 -1 4 1 -8 -5 -20
-4 5 -3 6 1 -8 -6 -17
-5 2 -3 6 2 -10 -6 -20
-5 3 -1 5 2 -8 -6 -20
-4 5 0 5 1 -8 -6 -17
-3 6 0 5 2 -6 -5 -9
-1 7 1 9 3 -5 -4 -16
1 11 2 10 3 -7 -4 -20
-1 9 0 7 2 -8 -5 -20
-2 7 0 8 3 -7 -6 -16
-3 7 0 9 3 -4 -6 -20
-4 6 1 9 3 -3 -6 -17
-4 6 1 6 3 -4 -6 -19
-4 6 1 7 3 -4 -5 -17
-1 8 1 7 4 -4 -4 -14
-1 9 2 11 5 -3 -3 -20
-3 6 1 10 5 -4 -3 -16
-7 -1 0 8 4 -6 -6 -21
-7 -4 1 14 8 -1 -4 -19
-2 -3 5 22 13 2 -5 -22
3 -7 9 30 19 4 -6 -24
4 -12 12 42 23 6 -9 -31
5 -18 23 58 33 14 -10 -37
4 -17 34 69 46 20 -7 -34
3 -11 46 85 60 29 -1 -36
3 -3 59 104 72 40 7 -32
4 5 69 120 89 58 21 -19
9 17 77 137 110 80 43 -6
12 30 82 155 135 109 73 15
16 43 82 160 152 137 102 37
21 65 86 170 172 170 136 71
28 89 80 167 191 199 174 109
31 113 56 154 198 224 209 139
42 145 30 139 208 254 249 179
46 180 3 122 218 282 288 219
36 212 -12 95 204 276 298 240
13 224 -24 23 126 190 242 226
-9 208 -31 -57 31 76 151 181
-20 183 -41 -102 -33 0 86 134
-28 151 -58 -146 -84 -52 37 101
-33 125 -71 -178 -124 -93 -1 68
-34 108 -87 -195 -145 -113 -22 45
-32 88 -97 -192 -141 -113 -34 29
-24 75 -107 -181 -131 -105 -38 14
-21 64 -107 -162 -122 -94 -37 7
-22 52 -100 -152 -116 -91 -40 -4
-19 39 -94 -140 -111 -89 -42 -11
-20 28 -92 -130 -104 -84 -44 -22
-16 27 -86 -112 -93 -77 -40 -23
-12 28 -77 -97 -81 -68 -36 -22
-12 24 -68 -82 -68 -58 -31 -18
-8 28 -54 -62 -54 -45 -22 -9
-7 27 -42 -42 -38 -34 -15 -7
-7 27 -29 -22 -25 -23 -9 -11
-10 25 -18 -15 -16 -14 -6 -12
-9 24 -14 -12 -13 -13 -4 -12
-5 22 -10 -6 -7 -9 -3 -11
-5 20 -7 0 -2 -4 0 -6
-3 19 -5 6 1 -2 1 -1
-1 19 -3 9 3 -1 1 -5
-1 20 -1 11 6 0 2 -6
0 21 1 10 7 2 2 -5
1 20 1 11 7 2 2 -3
-2 17 1 12 8 3 1 -5
0 17 3 14 9 4 0 -7
1 16 3 21 11 6 1 -7
1 16 4 22 11 6 1 -8
4 18 6 19 14 9 3 -8
3 16 6 21 15 12 3 -5
2 15 4 19 14 12 2 -6
1 16 7 24 15 9 3 -4
1 16 7 21 15 9 4 -4
4 19 9 23 16 11 6 -4
6 21 10 23 16 10 8 -3
1 15 10 24 16 12 4 2
0 12 9 29 16 14 5 -1
0 12 10 31 17 12 4 -7
0 13 9 24 16 13 5 -8
4 18 9 27 18 16 7 -6
4 16 7 25 17 15 6 -5
2 15 7 25 15 13 4 0
0 13 8 24 17 13 9 -2
-2 11 7 24 16 11 6 -3
0 13 8 26 17 13 7 1
2 16 10 28 20 13 8 6
2 14 9 26 20 14 8 2
2 14 9 30 20 14 7 -1
-1 13 10 28 21 15 8 -2
-2 13 11 28 22 19 9 -1
1 15 9 28 22 18 11 -1
1 17 9 27 20 15 8 1
4 18 11 27 22 19 11 8
3 17 10 30 21 16 10 4
4 20 9 30 20 16 11 7
5 21 11 34 23 23 13 9
7 21 10 33 23 22 13 6
6 20 10 32 24 20 12 14
0 14 9 29 24 18 11 3
2 15 9 29 23 18 12 0
7 19 8 31 24 18 13 4
7 20 8 33 24 19 14 2
5 19 9 31 25 21 13 2
5 18 9 31 25 21 13 2
3 15 7 28 24 22 11 3
2 15 9 32 26 23 12 7
2 13 8 33 27 23 12 5
0 12 7 36 27 22 13 3
1 14 9 34 28 23 13 5
5 18 11 35 30 25 15 6
11 25 11 38 31 26 18 2
15 31 14 41 33 30 23 9
13 28 10 41 32 29 21 6
11 26 8 38 30 25 18 5
11 24 9 38 31 26 19 6
11 26 10 38 30 26 18 6
12 27 10 41 31 26 19 5
7 20 10 42 32 27 19 2
6 20 10 43 33 30 20 6
8 21 10 42 34 33 23 6
8 20 9 41 35 37 23 7
9 22 9 41 35 34 22 5
6 19 6 38 33 33 20 10
4 17 5 39 32 30 20 8
5 18 6 43 33 32 22 6
7 20 6 41 34 34 22 4
9 21 7 43 36 37 24 4
9 22 9 45 38 38 26 5
7 21 8 44 38 39 26 12
13 25 8 47 41 40 28 18
17 28 7 48 43 42 31 9
18 30 8 48 43 42 31 15
21 32 7 49 44 44 32 20
19 31 6 49 43 43 33 14
17 28 6 52 44 45 33 13
16 28 7 53 46 46 34 16
12 25 5 51 44 44 33 13
12 25 5 52 46 45 34 13
13 26 5 53 47 46 35 16
12 24 6 54 49 48 38 16
15 27 4 54 50 51 42 16
18 31 3 58 51 54 39 21
21 35 5 61 52 55 42 23
21 36 5 59 53 56 43 23
21 35 3 62 53 56 44 21
19 35 4 64 56 58 46 21
21 38 4 62 56 59 47 27
21 37 3 64 57 61 48 28
23 36 2 68 59 64 51 28
24 37 2 67 60 64 53 30
25 39 1 66 61 67 54 36
25 41 1 68 62 68 55 40
24 45 -1 68 61 66 55 41
23 45 -1 70 63 70 56 46
25 46 -1 69 64 71 58 39
27 47 1 73 66 72 61 41
28 50 0 76 68 76 63 45
26 47 -1 75 70 79 65 51
29 48 -2 75 71 81 67 48
31 49 -4 77 71 79 69 46
32 51 -7 77 72 81 70 47
33 55 -4 76 74 84 73 56
33 62 -5 80 75 86 76 64
38 66 -6 82 76 88 78 62
41 67 -7 81 75 87 79 60
38 67 -6 80 76 89 82 59
41 69 -5 83 78 91 83 64
40 68 -6 82 79 94 86 64
40 70 -9 80 76 92 87 65
39 67 -9 79 76 92 86 66
34 62 -13 76 74 92 84 66
33 63 -13 76 73 91 84 64
33 63 -14 73 73 90 84 64
31 63 -14 72 73 90 84 70
33 69 -16 71 71 89 83 68
35 69 -16 73 71 88 84 74
38 68 -15 72 73 89 86 72
38 69 -15 73 72 89 87 72
38 70 -16 68 70 89 87 79
40 73 -16 70 70 89 87 75
42 77 -17 69 68 88 87 70
39 73 -17 68 68 89 87 71
37 72 -19 66 68 87 86 78
35 72 -21 64 64 84 84 74
34 71 -20 61 63 82 83 73
34 69 -16 59 63 82 84 73
31 65 -19 56 60 79 81 71
34 69 -18 59 61 80 81 72
37 70 -16 56 60 79 79 68
34 66 -17 54 58 75 76 69
32 65 -16 50 55 73 74 67
31 64 -15 48 53 71 72 67
32 63 -16 45 50 68 69 64
30 62 -13 47 50 67 67 61
28 60 -11 47 48 64 65 53
27 55 -8 48 47 64 62 48
25 53 -8 42 46 62 59 50
19 47 -6 40 44 58 54 49
18 44 -4 43 43 57 51 42
19 43 -4 38 41 54 47 36
20 42 -4 38 38 52 44 34
18 40 -2 34 38 50 42 29
16 39 -2 33 34 45 39 29
14 36 0 30 32 42 35 28
12 29 -1 28 30 40 31 25
9 26 1 31 29 39 28 24
9 23 2 27 28 37 27 15
11 23 3 25 27 35 25 13
15 27 5 24 28 36 24 13
15 26 4 24 26 35 23 14
13 24 3 22 24 31 20 7
13 23 5 21 24 31 19 6
9 21 3 21 21 27 16 7
9 20 3 21 19 26 13 10
7 18 5 22 19 25 13 3
4 14 6 17 17 23 11 5
6 16 5 17 14 22 9 2
7 18 3 15 13 20 8 1
4 10 5 16 15 22 8 2
2 7 5 15 13 23 8 -2
1 6 3 10 11 17 5 -7
0 5 2 9 10 16 5 -6
1 7 2 8 10 17 6 -1
-1 7 2 11 11 18 5 5
1 7 3 11 10 16 5 -1
4 10 5 10 10 18 7 1
3 8 5 12 10 19 6 5
3 7 5 12 9 19 6 2
2 7 6 13 10 20 6 4
3 7 5 11 10 17 5 9
8 12 7 10 11 18 6 5
7 12 6 10 10 18 4 4
5 11 5 13 9 16 4 5
5 11 3 18 8 14 4 3
2 8 5 12 8 14 4 -1
2 7 7 13 10 15 6 1
3 6 6 11 9 14 5 1
4 7 7 11 10 16 6 3
4 8 6 11 11 17 6 3
2 6 5 9 9 15 4 -3
1 5 6 10 7 15 3 -2
3 7 6 7 7 15 3 0
5 9 6 9 6 14 3 -4
2 7 4 10 6 15 2 -3
0 4 4 7 5 11 1 0
6 10 6 9 8 13 2 -2
6 11 5 9 8 14 3 -3
2 7 5 13 9 15 4 -1
2 7 6 15 10 17 3 0
3 11 5 12 9 15 3 -2
4 11 5 10 9 15 4 0
5 10 6 12 8 16 4 5
4 15 5 9 7 15 3 3
7 14 5 11 8 15 4 6
6 11 5 11 8 16 3 4
1 8 5 12 8 17 5 7
2 8 3 13 8 16 2 7
2 9 4 14 9 17 3 3
4 12 5 14 10 17 4 7
8 14 6 17 11 21 7 7
8 13 5 13 10 20 6 7
7 14 3 12 9 15 5 4
7 13 3 13 8 16 5 4
10 15 2 14 8 16 8 7
9 14 3 12 10 17 6 6
1 7 1 10 9 15 4 0
-2 4 1 10 8 15 3 1
2 8 3 13 10 17 5 7
5 9 2 13 11 17 5 9
3 8 3 12 11 16 6 10
5 10 3 15 12 18 7 12
1 7 2 12 12 18 7 9
3 9 0 9 10 17 5 12
5 12 0 9 9 17 3 6
4 9 0 12 9 16 3 8
7 11 3 13 11 19 6 9
8 12 4 13 12 19 6 5
5 9 4 14 13 19 7 7
8 11 3 11 11 18 7 12
7 13 2 10 11 17 6 14
7 11 4 11 12 20 6 19
4 11 4 14 13 20 8 11
5 10 3 15 11 17 7 10
4 9 2 15 12 19 7 14
6 14 2 13 12 17 6 11
6 11 4 13 12 18 7 11
5 9 5 12 11 19 6 15
2 6 4 11 11 20 4 9
2 5 4 10 11 17 4 5
0 3 3 10 11 17 4 7
4 6 1 9 9 15 3 6
6 9 3 10 11 17 5 8
6 10 2 9 10 15 5 9
6 11 4 12 12 17 6 10
8 13 5 13 14 19 8 10
9 16 4 10 12 19 5 9
8 13 5 11 10 15 5 12
7 11 5 10 10 16 4 14
8 10 4 9 10 16 5 6
8 10 3 10 10 15 4 8
5 6 4 7 8 15 2 9
2 3 1 8 8 12 2 5
4 6 0 6 6 13 2 5
1 2 2 7 7 13 2 11
3 4 3 8 6 13 4 11
6 8 3 8 8 15 1 11
5 10 3 6 6 13 1 15
4 7 2 7 6 10 0 13
4 7 3 7 7 15 2 13
2 5 0 7 6 15 0 9
2 4 0 4 5 13 -1 10
0 2 -1 4 4 9 -2 9
4 6 0 5 5 9 -1 6
3 4 0 6 5 8 -1 14
1 2 2 5 6 10 1 14
1 2 1 6 6 12 1 8
-1 1 1 6 5 10 1 7
0 1 0 6 3 9 -1 11
2 3 2 5 4 10 2 10
5 3 1 5 3 8 -1 10
6 6 2 4 4 9 -1 8
4 3 0 3 3 8 -2 7
4 4 0 1 1 6 -2 4
3 3 0 2 2 6 -1 10
1 2 0 3 1 7 -2 9
1 1 -2 5 0 6 -5 10
4 2 0 2 2 8 -2 9
1 0 -1 2 1 10 -3 9
1 1 0 5 1 10 -4 8
4 3 1 5 1 8 -2 5
10 8 1 4 2 9 -2 13
8 6 1 5 1 8 -3 11
6 5 -1 1 -1 6 -4 13
6 6 -1 3 1 5 -3 11
5 5 0 1 0 5 -4 5
3 3 1 2 0 6 -4 11
2 3 0 4 0 5 -4 11
3 7 -1 4 1 6 -4 8
8 8 -1 2 0 5 -3 9
8 4 0 2 0 5 -3 9
3 -1 -2 -1 -1 4 -6 7
0 -5 -2 -1 -2 4 -6 12
1 -3 -3 -3 -3 1 -7 15
0 -3 -2 0 -2 3 -5 15
3 1 -2 0 -2 4 -6 11
3 -1 -3 -1 -3 2 -6 8
1 -4 -4 0 -4 2 -7 7
2 0 -2 3 -2 3 -4 14
3 2 0 5 -2 2 -4 14
6 4 -1 3 -3 3 -6 11
5 3 -1 -1 -3 2 -7 13
4 3 -1 -2 -4 1 -8 14
8 7 1 3 -2 4 -7 15
6 6 0 4 -3 2 -7 10
6 5 -1 -1 -4 3 -9 7
4 3 -3 -1 -4 1 -9 8
-2 -2 -7 -4 -7 -2 -11 6
1 -3 -6 -4 -7 -1 -11 5
0 -4 -4 0 -5 0 -10 8
-3 -5 -6 -3 -7 -3 -11 6
-2 -3 -5 -4 -7 -3 -10 4
-1 -3 -5 -3 -6 -2 -10 8
1 -2 -5 -1 -7 -3 -9 10
3 -1 -4 4 -6 -1 -9 8
2 -1 -2 3 -4 1 -8 12
2 0 -2 -1 -3 2 -8 11
1 -1 -2 -2 -3 0 -8 8
2 -2 -3 -2 -4 -1 -9 7
5 1 -2 -1 -2 2 -8 10
6 3 -2 -1 -4 3 -8 12
5 1 -4 -3 -5 1 -8 13
2 0 -4 -2 -4 -1 -8 12
1 -1 -4 0 -5 -3 -9 11
3 0 -5 -1 -5 -2 -9 8
4 1 -6 -5 -6 -1 -9 6
3 2 -4 -4 -5 -2 -9 6
3 3 -3 -1 -5 -2 -9 6
4 0 -3 -2 -4 -2 -9 9
2 -2 -2 -2 -5 0 -8 13
2 -1 -3 -4 -6 -1 -9 10
3 0 -2 2 -4 4 -8 9
3 2 -1 2 -3 4 -7 12
6 4 -2 -1 -2 2 -6 8
9 7 -2 0 -2 3 -5 11
11 9 0 2 -1 5 -5 13
10 6 -2 -1 -3 1 -6 10
9 4 -1 1 -4 0 -7 9
6 1 -2 0 -3 0 -8 15
3 0 -3 3 -4 0 -7 16
3 2 -2 0 -3 3 -6 10
1 0 -4 -2 -4 0 -6 6
3 0 -2 2 -4 1 -6 9
6 4 -1 0 -4 2 -5 11
4 2 0 1 -3 2 -5 9
2 0 -2 -2 -5 -1 -8 5
3 1 -2 -1 -5 -1 -8 9
4 3 -1 -1 -3 -1 -7 16
7 5 0 0 -1 1 -6 12
8 5 -1 0 -2 0 -6 14
5 3 -2 3 -2 0 -6 14
5 2 -3 -2 -3 -1 -6 11
3 3 -1 -2 -3 -1 -5 11
3 2 -3 -3 -4 -1 -6 8
-2 -3 -2 -3 -5 -3 -7 9
-2 -4 -4 -4 -6 -4 -7 4
2 1 -1 -1 -4 -2 -7 4
3 3 1 0 -2 1 -5 3
2 3 1 1 -4 0 -6 9
3 3 0 1 -2 1 -5 8
3 4 -2 1 -3 1 -6 6
3 4 -1 0 -3 0 -5 9
3 3 -1 -1 -3 0 -5 6
3 2 -2 -2 -3 0 -5 8
2 2 -3 -1 -4 0 -5 6
-3 -1 -2 0 -4 0 -5 3
0 1 -1 1 -4 -1 -5 5
5 4 1 6 -2 -1 -3 8
6 5 1 5 -3 0 -4 13
7 7 0 6 -2 1 -4 8
5 4 0 3 -2 0 -4 6
2 2 -2 0 -4 -2 -5 6
5 5 -2 2 -1 0 -3 6
5 5 -2 1 0 1 -3 7
5 4 -3 1 -1 0 -3 10
4 6 -2 0 -2 2 -4 7
0 3 -3 1 -2 2 -3 9
0 1 -5 -1 -2 -1 -3 9
1 1 -6 -1 -2 0 -3 6
0 1 -6 -2 -4 -2 -5 2
1 1 -6 -2 -3 -1 -4 10
3 5 -7 -2 -3 2 -4 9
5 7 -5 0 -1 3 -2 8
6 13 -7 0 -2 0 -2 4
7 11 -6 2 -1 3 -1 2
5 9 -6 1 -1 1 -2 5
4 7 -6 2 0 3 -2 8
4 9 -5 2 0 4 -1 9
8 9 -3 3 1 4 0 6
4 5 -4 2 2 4 -1 2
1 1 -7 1 -1 0 -3 1
3 2 -7 0 -2 0 2 5
1 1 -7 1 -1 4 1 8
5 5 -6 1 -1 4 0 7
5 5 -7 2 -1 1 -1 4
2 2 -8 2 -1 -1 -1 7
2 3 -7 3 -1 1 -1 6
2 1 -7 4 1 3 0 8
3 2 -7 7 0 2 -2 5
4 4 -5 2 0 2 0 2
4 4 -6 4 0 2 0 1
7 7 -4 5 2 3 2 4
4 4 -3 6 2 4 2 5
3 4 -7 4 0 1 1 3
5 4 -7 2 0 2 0 7
3 3 -6 4 0 2 0 5
4 5 -5 6 1 3 0 6
2 6 -4 3 2 4 0 2
3 5 -6 4 1 5 -2 4
6 5 -5 4 1 3 -1 2
5 6 -5 5 1 2 -1 2
6 8 -4 11 2 3 1 9
7 9 -2 8 3 5 2 8
4 6 -1 7 4 7 4 9
3 6 -3 8 3 5 4 7
1 5 -3 7 4 6 4 13
6 9 -2 6 5 7 5 6
8 12 1 6 5 7 5 10
7 10 1 4 5 7 3 7
6 11 0 4 5 7 4 2
6 12 -1 5 5 6 4 4
3 12 0 5 6 6 4 8
3 15 3 8 8 9 8 9
-1 15 6 13 10 11 11 7
-1 15 4 13 10 11 10 6
5 21 7 15 12 13 12 11
8 24 9 16 13 14 15 17
8 25 8 12 12 16 12 10
9 25 9 13 13 14 11 7
9 25 8 14 13 11 11 7
10 26 9 17 13 14 11 13
10 26 9 13 14 15 12 15
5 23 9 13 13 13 11 18
6 24 10 13 15 14 12 13
5 25 10 14 16 16 14 19
6 28 11 16 18 16 17 16
10 32 10 19 18 17 18 17
11 33 9 18 18 19 19 17
14 38 9 18 20 19 20 18
14 38 7 23 19 21 21 18
17 40 6 19 20 21 21 22
22 45 9 20 24 25 24 24
18 42 9 25 24 26 23 26
17 41 10 29 25 27 24 22
18 42 9 25 24 23 23 22
17 39 7 19 21 21 26 20
15 35 7 17 19 18 23 20
11 29 4 15 16 15 17 21
8 27 1 13 13 12 14 21
8 25 2 11 13 14 14 20
6 22 2 14 13 14 15 13
2 17 0 11 11 12 12 13
5 16 0 6 10 11 11 10
8 16 1 7 9 10 11 7
7 16 2 8 8 8 9 5
4 11 3 6 7 8 8 7
4 10 4 9 6 7 8 10
4 10 4 6 8 8 8 9
2 9 4 7 8 7 7 4
1 7 3 5 7 6 6 2
4 6 4 7 7 6 7 8
4 6 3 7 5 5 6 9
3 7 3 5 5 5 4 0
2 5 3 5 5 5 5 1
3 4 3 2 3 4 3 0
8 9 3 5 5 4 4 3
7 8 4 5 4 5 3 1
5 4 4 2 3 5 3 -3
6 6 3 1 3 3 2 -5
2 2 3 0 3 2 2 -5
3 1 2 -2 1 1 1 -4
1 -1 1 -3 0 1 0 -3
0 -4 1 -2 1 0 0 -3
1 -4 1 0 1 0 0 0
-1 -5 1 -2 0 -1 -1 -1
0 -4 2 -1 0 -1 0 0
0 -4 3 5 2 0 2 -1
0 -4 3 5 2 2 2 -1
2 0 2 2 3 3 1 -2
3 1 5 4 4 3 2 -1
6 2 5 4 2 3 2 0
7 5 5 5 3 3 2 1
5 5 3 2 2 3 1 -2
3 1 4 -1 2 9 1 -6
3 -1 3 1 2 3 1 -9
0 0 5 3 2 4 2 -8
2 2 7 7 5 9 4 -1
5 4 7 5 6 7 5 1
2 2 6 6 5 6 4 -1
1 -2 6 3 4 7 2 0
2 -5 5 8 8 8 3 -3
5 -5 7 19 14 11 3 -10
7 -12 9 26 17 12 0 -14
8 -18 14 35 24 14 0 -15
13 -18 23 50 35 20 1 -15
14 -17 34 68 47 29 2 -21
13 -12 46 87 63 42 9 -17
13 -4 59 99 75 50 16 -13
14 3 69 113 89 64 26 -4
15 12 76 134 109 85 46 7
16 26 82 156 134 115 74 32
19 39 84 160 155 145 105 56
27 56 86 165 174 175 139 84
33 78 84 169 193 206 176 116
39 107 62 159 204 234 213 151
45 136 36 147 213 262 251 187
49 166 8 128 225 292 292 226
45 199 -13 102 217 297 308 251
23 217 -27 33 150 225 266 238
-1 204 -39 -53 47 103 176 195
-17 180 -47 -104 -25 15 102 152
-22 158 -65 -149 -79 -41 54 120
-24 130 -77 -182 -118 -81 15 89
-23 114 -93 -198 -144 -104 -11 67
-24 93 -104 -199 -145 -108 -25 48
-19 77 -111 -185 -133 -98 -29 34
-14 64 -112 -171 -122 -91 -30 29
-14 49 -108 -162 -120 -87 -35 13
-11 37 -103 -149 -113 -85 -37 4
-6 32 -97 -134 -102 -77 -34 -2
-6 27 -91 -119 -94 -73 -34 -5
-6 25 -83 -106 -83 -65 -31 -2
-1 23 -74 -88 -69 -56 -24 -1
0 24 -62 -69 -56 -43 -18 2
1 26 -49 -51 -41 -33 -12 10
3 28 -34 -33 -26 -17 -3 7
4 29 -22 -15 -14 -8 4 9
1 25 -15 -6 -8 -3 5 7
3 22 -12 -5 -4 -3 6 7
6 21 -8 -1 1 2 8 8
7 21 -6 3 4 4 8 8
6 19 -5 5 6 7 10 7
7 20 -5 7 6 8 8 9
6 18 -4 7 6 8 7 4
5 16 -2 9 7 5 7 3
4 15 -1 13 9 8 8 4
5 15 0 18 11 8 9 5
7 17 3 17 13 10 10 9
9 18 4 17 15 11 10 8
8 16 4 17 15 13 10 9
7 14 4 18 15 14 12 8
10 17 5 21 17 15 12 7
13 19 5 25 19 18 14 10
12 20 5 22 19 17 15 9
12 21 6 20 18 16 17 12
11 20 8 25 19 17 15 10
10 19 9 27 20 20 15 10
10 19 10 26 21 21 16 13
11 18 9 25 22 19 15 10
12 17 9 28 22 19 17 7
12 16 8 28 20 18 16 14
11 14 8 24 20 19 15 16
12 18 6 22 20 17 15 12
11 20 9 27 22 20 18 12
9 19 9 26 21 19 16 10
9 18 8 27 21 19 15 12
8 17 9 28 22 18 15 17
6 15 10 28 21 20 14 17
8 14 11 31 23 20 15 12
6 12 9 30 22 18 18 8
5 12 10 30 23 19 16 18
6 14 10 28 24 19 17 20
10 18 9 27 25 20 18 11
10 19 10 28 24 21 18 13
8 19 10 29 25 21 18 18
10 23 9 29 25 21 18 15
11 23 10 32 25 20 18 11
