I II V1 V2 V3 V4 V5 V6
-10 -13 13 2 -16 -29 -31 -37
-13 -14 16 6 -14 -27 -29 -36
-18 -19 16 8 -14 -27 -30 -37
-19 -21 17 11 -11 -26 -30 -37
-15 -20 18 14 -8 -24 -30 -37
-17 -20 18 16 -6 -22 -29 -38
-20 -21 17 16 -4 -22 -29 -39
-18 -20 18 16 -2 -20 -27 -38
-16 -20 18 18 2 -17 -24 -36
-16 -19 15 18 3 -16 -24 -36
-13 -16 18 21 6 -14 -21 -33
-8 -12 21 25 7 -11 -20 -31
-5 -12 22 26 7 -12 -21 -32
-10 -17 20 27 7 -14 -23 -34
-16 -20 20 27 7 -14 -25 -36
-18 -21 21 29 10 -13 -24 -36
-16 -20 22 30 13 -12 -23 -36
-14 -19 23 31 16 -11 -23 -36
-14 -20 24 32 17 -9 -23 -37
-13 -18 25 36 19 -7 -20 -35
-10 -15 27 40 22 -5 -19 -33
-9 -16 29 44 25 -3 -19 -32
-8 -15 29 46 26 -4 -20 -33
-5 -12 32 50 30 -3 -20 -33
-6 -10 36 55 35 2 -19 -32
-13 -15 38 58 40 5 -17 -32
-20 -20 39 60 45 6 -17 -33
-17 -18 39 63 47 8 -18 -34
-10 -13 42 67 52 13 -16 -33
-7 -11 43 72 58 15 -14 -31
-8 -10 45 76 62 18 -12 -29
-11 -12 47 82 66 21 -11 -28
-11 -14 49 88 69 23 -12 -29
-5 -12 51 93 75 25 -13 -30
-2 -9 55 100 84 29 -10 -30
-8 -11 57 105 90 33 -9 -30
-12 -16 58 109 96 36 -7 -31
-8 -13 60 115 103 40 -5 -30
-2 -8 63 121 110 46 -2 -28
1 -9 63 123 113 47 -2 -29
1 -9 64 129 118 51 0 -28
0 -6 69 137 127 58 4 -24
-7 -6 73 145 134 63 7 -22
-14 -11 74 150 140 67 8 -20
-15 -13 75 154 145 71 8 -21
-8 -9 77 157 150 73 9 -23
1 -6 78 159 156 76 10 -24
2 -6 77 162 161 82 13 -23
0 -7 77 165 167 88 16 -22
0 -4 78 170 172 93 20 -20
-2 1 80 174 178 99 24 -16
-4 1 81 177 181 104 27 -13
-5 2 81 179 183 107 30 -11
-3 8 84 181 187 111 34 -7
2 13 85 183 190 115 38 -3
7 15 81 180 190 115 39 -5
12 17 78 176 188 114 38 -6
16 20 78 173 189 117 40 -4
15 21 75 170 187 118 43 -3
12 20 71 165 185 117 45 0
11 20 69 163 182 117 46 3
11 21 67 158 177 116 46 5
11 23 66 154 174 115 47 7
13 24 63 148 168 111 46 8
11 22 59 141 161 109 46 8
9 23 55 135 156 108 47 9
9 24 51 127 151 105 47 9
7 21 47 116 143 101 47 9
5 22 43 106 133 97 47 10
5 26 39 99 125 93 48 12
3 26 35 90 114 87 46 13
1 23 33 81 104 81 44 13
2 24 30 74 94 73 40 13
5 25 27 68 86 67 37 13
5 25 24 61 77 62 34 13
2 23 22 54 69 56 32 11
1 20 18 45 61 50 28 7
3 19 15 38 54 45 26 6
3 19 14 32 47 39 24 5
-2 16 11 26 38 33 21 4
-6 12 10 22 32 28 19 4
-3 12 8 18 25 24 17 3
1 12 8 14 21 20 14 1
-3 9 8 12 18 16 11 0
-4 9 9 11 14 13 9 -2
0 12 10 10 12 12 10 0
-2 11 10 8 10 10 9 0
-6 6 7 3 6 6 5 -3
-7 2 4 -2 2 3 2 -6
-7 1 4 -3 0 1 1 -8
-8 1 4 -4 -3 -2 -2 -9
-5 3 4 -4 -6 -4 -3 -9
-4 2 5 -4 -7 -6 -4 -8
-7 -3 5 -5 -9 -8 -5 -9
-7 -4 4 -5 -10 -10 -7 -11
0 1 5 -4 -9 -8 -5 -10
1 2 6 -5 -9 -8 -5 -11
-5 -3 5 -8 -11 -10 -7 -11
-5 -5 5 -10 -13 -11 -7 -11
0 -2 3 -10 -13 -12 -6 -11
-2 2 4 -8 -10 -9 -4 -7
-5 2 3 -7 -10 -9 -4 -7
-6 0 4 -6 -11 -10 -4 -7
-3 0 4 -6 -12 -10 -5 -8
-2 -2 1 -8 -15 -13 -7 -11
-5 -4 -2 -10 -16 -15 -9 -14
-9 -4 2 -8 -14 -13 -8 -13
-9 -2 4 -9 -14 -14 -8 -13
-5 -2 5 -11 -15 -15 -9 -13
-3 0 3 -12 -16 -16 -10 -13
-3 2 3 -10 -15 -15 -9 -11
-2 3 3 -9 -14 -14 -9 -10
-3 0 3 -8 -15 -15 -9 -10
-6 -6 1 -10 -17 -18 -11 -12
-12 -7 3 -9 -15 -16 -10 -12
-16 -8 4 -9 -14 -15 -10 -12
-17 -7 5 -8 -13 -15 -10 -12
-13 -6 6 -8 -13 -14 -10 -12
-6 -5 5 -9 -15 -15 -11 -13
0 -3 5 -11 -16 -16 -11 -13
0 0 3 -12 -17 -17 -11 -13
0 2 3 -10 -16 -16 -10 -12
-2 3 4 -8 -15 -15 -9 -10
-10 0 7 -7 -13 -13 -8 -10
-16 -4 8 -6 -13 -14 -9 -10
-16 -6 7 -6 -14 -15 -10 -11
-14 -8 6 -8 -14 -15 -10 -12
-14 -6 6 -7 -13 -14 -9 -11
-11 0 8 -3 -10 -11 -6 -8
-4 4 8 -3 -10 -11 -6 -8
2 2 6 -7 -14 -14 -9 -11
3 -2 3 -10 -18 -17 -13 -14
0 -3 3 -9 -18 -18 -13 -14
-5 -4 3 -10 -18 -19 -14 -14
-7 -6 4 -9 -16 -17 -13 -14
-7 -3 4 -8 -14 -16 -12 -13
-5 1 7 -7 -12 -15 -11 -12
-6 1 9 -7 -11 -13 -10 -11
-7 1 8 -6 -9 -11 -8 -11
-7 2 8 -5 -10 -12 -7 -10
-7 3 9 -3 -9 -11 -6 -9
-7 3 9 -3 -9 -10 -6 -9
-7 4 8 -2 -9 -10 -6 -9
-11 5 10 0 -7 -10 -6 -7
-15 6 12 2 -4 -8 -4 -6
-10 10 13 3 -3 -6 -3 -5
1 16 12 2 -2 -6 -3 -5
1 17 11 2 0 -5 -2 -5
-6 14 9 2 -2 -5 -2 -6
-6 13 9 1 -2 -4 0 -5
-3 14 11 2 0 -3 2 -4
-2 12 10 2 -2 -4 1 -4
0 10 8 2 -2 -4 1 -4
1 10 7 2 0 -3 1 -4
-2 11 11 6 3 1 3 -2
0 13 10 7 5 2 4 -2
4 18 9 8 6 3 5 1
7 22 9 7 7 6 7 1
7 20 6 4 6 6 8 2
7 16 0 -3 1 1 5 0
6 16 -3 -8 -2 0 4 0
5 18 -3 -10 -3 0 5 2
7 21 -5 -10 -4 1 7 4
9 22 -7 -10 -5 1 7 5
9 22 -9 -11 -7 0 6 6
6 17 -11 -14 -9 -4 4 4
6 12 -13 -16 -12 -7 1 2
8 10 -14 -18 -13 -8 0 1
8 8 -14 -18 -13 -8 1 2
10 7 -15 -19 -14 -8 0 1
16 10 -14 -18 -13 -8 2 2
15 11 -12 -15 -12 -6 3 3
7 5 -12 -16 -14 -8 3 3
1 0 -13 -18 -18 -11 0 1
2 1 -12 -18 -19 -12 -2 1
6 4 -11 -16 -17 -11 0 2
9 4 -13 -18 -17 -13 -3 0
10 1 -14 -22 -20 -15 -6 -4
10 0 -12 -20 -19 -14 -4 -2
10 0 -11 -19 -19 -14 -3 -2
8 -4 -12 -20 -21 -16 -5 -3
5 -6 -10 -19 -22 -15 -7 -5
6 -5 -8 -18 -23 -17 -9 -7
9 -4 -6 -17 -23 -18 -11 -9
8 -5 -2 -15 -21 -17 -11 -9
2 -6 2 -13 -20 -16 -11 -10
-4 -9 2 -13 -21 -18 -11 -10
-7 -15 -2 -16 -24 -21 -15 -14
-10 -20 -3 -18 -26 -23 -16 -16
-8 -16 1 -16 -24 -21 -13 -14
-5 -11 5 -12 -22 -19 -11 -11
-9 -16 5 -13 -25 -21 -14 -13
-15 -21 1 -17 -29 -26 -19 -17
-15 -22 0 -18 -30 -27 -20 -19
-14 -21 1 -18 -30 -27 -20 -20
-15 -23 1 -17 -30 -28 -20 -20
-17 -23 0 -17 -29 -28 -20 -20
-16 -22 0 -18 -28 -27 -19 -20
-11 -21 1 -17 -28 -25 -19 -19
-11 -20 1 -16 -27 -25 -18 -17
-15 -21 0 -16 -28 -26 -19 -17
-15 -20 1 -16 -29 -27 -19 -17
-10 -17 3 -13 -28 -25 -18 -16
-5 -14 5 -12 -28 -25 -18 -16
-8 -16 5 -14 -29 -27 -19 -17
-13 -20 4 -15 -29 -26 -20 -18
-15 -22 3 -15 -30 -27 -20 -20
-18 -24 4 -15 -29 -27 -21 -20
-20 -27 1 -16 -30 -28 -22 -22
-19 -26 1 -16 -29 -27 -20 -21
-15 -23 2 -15 -29 -27 -19 -20
-14 -22 5 -13 -28 -26 -18 -18
-17 -22 8 -11 -27 -25 -17 -17
-17 -22 8 -11 -27 -25 -18 -17
-13 -21 4 -12 -29 -27 -20 -20
-7 -20 3 -12 -30 -27 -21 -21
-5 -18 4 -12 -28 -26 -18 -19
-7 -18 4 -11 -27 -24 -16 -17
-9 -20 4 -12 -28 -25 -17 -18
-11 -23 3 -14 -29 -26 -20 -22
-16 -29 6 -11 -28 -27 -23 -24
-20 -33 10 -3 -24 -27 -26 -27
-17 -31 16 10 -15 -22 -24 -27
-13 -25 18 23 -2 -13 -19 -22
-9 -19 19 39 15 2 -9 -15
-4 -16 19 55 29 18 4 -8
6 -14 19 66 47 39 21 3
15 -13 20 69 66 68 45 15
21 -14 16 59 79 99 71 30
32 -11 10 39 80 131 104 50
48 1 -4 7 72 164 141 74
61 18 -29 -38 69 218 197 114
82 46 -65 -93 76 295 275 167
110 75 -104 -141 84 366 350 221
134 92 -138 -183 70 393 387 255
144 98 -172 -225 30 364 380 267
146 103 -205 -269 -22 305 348 268
144 108 -232 -310 -85 226 300 259
132 103 -248 -352 -160 127 231 234
107 87 -259 -402 -249 15 149 198
76 66 -273 -461 -355 -104 63 156
48 44 -281 -504 -462 -228 -24 111
16 19 -274 -520 -544 -346 -111 59
-14 0 -257 -513 -587 -431 -185 9
-30 -8 -232 -483 -577 -452 -223 -30
-36 -9 -199 -426 -516 -416 -224 -51
-40 -10 -166 -360 -440 -364 -207 -60
-37 -10 -138 -302 -372 -312 -185 -60
-29 -8 -109 -245 -309 -262 -158 -56
-28 -6 -81 -191 -249 -215 -135 -54
-32 -6 -61 -148 -202 -179 -118 -55
-34 -7 -43 -111 -163 -148 -102 -53
-31 -5 -27 -78 -128 -118 -86 -47
-27 -4 -16 -54 -99 -96 -71 -39
-24 -7 -10 -39 -79 -79 -60 -36
-23 -12 -6 -29 -64 -66 -53 -35
-24 -14 1 -19 -49 -54 -46 -31
-23 -15 4 -10 -37 -44 -38 -29
-18 -14 6 -3 -29 -35 -32 -26
-13 -13 7 3 -25 -32 -31 -25
-11 -12 8 6 -23 -31 -31 -26
-8 -13 8 9 -23 -31 -32 -27
-9 -15 9 11 -22 -30 -32 -28
-15 -19 10 12 -20 -29 -33 -29
-21 -20 12 15 -16 -26 -32 -28
-22 -19 16 19 -11 -22 -28 -26
-20 -19 16 20 -8 -20 -27 -26
-16 -19 14 20 -9 -21 -28 -27
-10 -17 15 21 -7 -19 -25 -26
-8 -14 17 24 -3 -16 -23 -23
-10 -12 19 27 -2 -14 -22 -21
-13 -12 21 30 1 -12 -21 -20
-13 -14 20 32 0 -14 -22 -22
-12 -16 19 32 0 -15 -25 -23
-10 -17 17 31 0 -15 -26 -25
-8 -14 19 33 4 -13 -25 -25
-5 -10 21 35 8 -12 -24 -24
-5 -10 23 37 10 -9 -23 -23
-8 -14 23 38 11 -8 -22 -23
-11 -17 22 40 13 -7 -21 -22
-12 -16 23 44 15 -5 -21 -20
-11 -16 23 47 15 -5 -22 -21
-13 -18 26 51 18 -4 -21 -22
-16 -19 26 52 19 -4 -23 -23
-16 -19 30 56 23 0 -21 -23
-12 -17 32 61 29 3 -20 -23
-9 -16 33 64 34 5 -19 -23
-9 -18 31 65 36 6 -20 -24
-11 -19 33 69 40 8 -18 -24
-9 -18 36 74 45 11 -16 -23
-8 -17 42 80 50 15 -15 -21
-6 -15 44 87 54 18 -15 -21
-3 -10 49 95 62 22 -12 -20
-2 -8 52 102 69 25 -11 -19
-2 -8 54 107 75 28 -10 -20
0 -6 55 112 82 32 -9 -21
-3 -7 56 116 90 36 -7 -21
-8 -12 56 120 95 39 -6 -21
-11 -14 57 125 100 44 -4 -20
-9 -12 57 129 104 46 -4 -20
-6 -11 60 135 108 50 -3 -19
-7 -13 64 141 114 54 0 -19
-11 -16 65 146 119 56 -2 -19
-11 -15 68 152 127 61 1 -18
-3 -8 71 159 135 68 5 -17
3 -4 73 164 144 74 10 -15
3 -4 73 169 151 79 12 -14
2 -3 75 173 156 85 15 -12
1 -2 78 178 161 90 19 -10
3 1 78 180 165 94 20 -8
7 3 77 183 168 97 22 -7
8 5 77 187 171 101 26 -5
9 10 76 190 175 105 29 -2
11 14 75 191 179 108 31 2
10 14 74 190 181 112 34 3
8 15 73 187 182 114 36 4
11 18 73 185 183 116 38 5
15 20 71 182 182 117 40 6
15 20 69 178 180 117 42 7
14 19 67 175 177 116 43 10
12 20 64 170 173 115 42 11
5 19 63 168 170 116 45 13
0 17 62 164 167 115 46 15
5 18 59 158 162 111 44 15
13 21 55 151 156 108 44 14
15 22 49 142 149 105 44 14
11 22 45 132 143 103 44 15
7 21 43 122 137 100 45 18
3 21 39 113 129 97 46 20
5 22 34 105 119 91 45 22
10 25 29 97 109 86 43 22
12 27 26 90 98 79 40 21
10 25 22 79 87 70 36 19
9 21 20 69 76 62 31 17
11 21 19 61 68 57 28 17
15 23 16 55 62 52 27 16
14 24 10 47 54 46 24 15
8 22 7 40 48 43 23 15
5 20 6 35 40 38 23 15
4 18 6 29 33 33 20 14
1 16 7 24 25 26 15 12
-2 14 9 22 20 23 14 13
-2 14 9 20 16 19 12 13
1 11 5 15 10 14 8 10
3 8 2 10 5 9 4 5
6 10 2 9 3 8 4 5
7 11 2 6 2 6 3 4
5 7 -2 0 -4 2 -2 1
5 4 -5 -5 -10 -3 -5 -3
7 6 -4 -5 -12 -4 -5 -2
6 5 -4 -5 -14 -5 -6 0
1 2 -3 -6 -15 -7 -7 -2
-4 1 -2 -5 -16 -8 -7 -2
-7 2 -2 -4 -16 -8 -8 0
-8 1 -2 -4 -16 -9 -9 -2
-9 -4 -4 -6 -18 -11 -10 -5
-7 -4 -5 -9 -19 -12 -12 -6
-2 2 -4 -8 -17 -11 -10 -3
2 7 -3 -8 -17 -10 -9 -2
-3 4 -3 -9 -18 -11 -9 -2
-7 0 -3 -10 -21 -12 -9 -2
-4 1 -3 -9 -22 -12 -10 -2
2 4 -3 -10 -23 -15 -11 -4
0 2 -3 -11 -24 -17 -13 -4
-7 -3 -2 -10 -22 -15 -12 -3
-7 -4 -3 -11 -22 -16 -13 -5
-4 -4 -4 -13 -22 -17 -15 -6
2 -2 -3 -12 -21 -16 -14 -6
5 3 -2 -12 -21 -15 -13 -4
3 3 0 -11 -21 -14 -11 -3
-2 -2 0 -11 -23 -16 -12 -3
-4 -5 -4 -13 -26 -20 -15 -5
-4 -4 -4 -12 -25 -19 -15 -5
-5 -3 -4 -10 -23 -19 -15 -5
-7 -3 -3 -9 -22 -18 -15 -5
-5 0 -4 -10 -22 -18 -15 -6
0 4 -4 -9 -20 -17 -13 -6
-2 3 -5 -11 -20 -17 -15 -6
-6 0 -3 -12 -21 -16 -14 -6
-5 2 -3 -13 -21 -17 -12 -4
-2 4 -4 -12 -21 -17 -12 -3
1 4 -5 -11 -22 -18 -14 -3
2 4 -4 -10 -22 -19 -14 -4
2 3 -3 -10 -22 -19 -14 -4
1 4 0 -9 -21 -17 -13 -4
0 4 1 -9 -20 -16 -13 -5
-5 0 0 -12 -21 -19 -15 -7
-9 -4 -2 -12 -22 -19 -16 -7
-11 -4 -3 -11 -21 -18 -15 -7
-13 -4 -2 -9 -19 -17 -13 -6
-13 -5 -2 -9 -20 -17 -13 -6
-12 -4 2 -7 -19 -16 -12 -5
-10 -2 2 -7 -20 -17 -14 -7
-14 -4 3 -8 -20 -18 -16 -9
-19 -9 3 -7 -20 -17 -17 -10
-16 -11 -2 -10 -23 -20 -19 -14
-9 -10 -4 -12 -22 -20 -18 -14
-3 -4 -3 -10 -19 -17 -15 -12
1 5 1 -5 -16 -12 -11 -9
3 10 3 -3 -14 -11 -9 -7
1 11 7 -2 -13 -11 -8 -5
0 13 9 1 -11 -9 -7 -3
5 14 5 0 -11 -9 -8 -4
9 15 2 -2 -11 -10 -8 -5
6 16 3 0 -9 -8 -6 -4
-3 13 4 0 -9 -8 -5 -4
-6 8 4 -5 -9 -9 -6 -6
-8 4 3 -7 -10 -9 -6 -7
-12 4 2 -7 -11 -8 -6 -7
-12 6 5 -5 -9 -7 -5 -4
-6 11 7 -4 -8 -6 -5 -3
0 16 8 1 -7 -5 -4 0
-2 15 8 3 -6 -4 -3 0
-4 13 8 4 -3 -3 -2 1
-4 13 8 5 -2 0 1 2
-3 15 8 6 2 2 2 2
2 17 7 7 4 4 3 1
9 21 6 5 3 5 3 1
9 22 6 5 4 5 5 4
2 19 4 3 2 4 6 6
0 17 0 -2 0 4 6 6
5 20 -5 -3 -2 6 7 8
8 25 -9 -5 -3 5 7 9
9 25 -11 -7 -3 5 7 10
10 23 -13 -11 -5 4 5 9
6 20 -15 -15 -8 1 4 8
5 17 -17 -17 -10 -3 2 8
9 16 -19 -19 -14 -5 0 5
11 12 -21 -21 -16 -6 0 4
8 10 -21 -21 -16 -7 1 5
4 7 -20 -20 -16 -6 1 5
5 6 -19 -19 -16 -7 0 5
11 7 -16 -17 -15 -6 1 7
15 9 -16 -17 -15 -5 1 8
12 4 -18 -19 -19 -7 -3 6
7 -4 -22 -23 -22 -12 -7 2
7 0 -21 -24 -21 -12 -6 3
12 6 -18 -22 -19 -10 -4 4
15 7 -17 -20 -18 -9 -2 5
14 5 -16 -21 -20 -11 -3 5
10 2 -14 -20 -20 -10 -2 5
7 1 -13 -18 -21 -11 -3 4
4 0 -11 -18 -21 -13 -5 4
1 -4 -9 -19 -21 -15 -9 0
-5 -9 -8 -19 -22 -16 -13 -5
-12 -14 -7 -19 -23 -17 -16 -9
-16 -18 -8 -21 -24 -19 -19 -13
-16 -18 -8 -21 -24 -20 -19 -14
-9 -14 -6 -20 -24 -19 -17 -13
-2 -9 -5 -21 -25 -20 -17 -12
-5 -10 -4 -20 -26 -21 -18 -13
-11 -12 -2 -18 -26 -20 -17 -12
-11 -12 0 -17 -24 -20 -16 -12
-8 -13 0 -16 -24 -20 -18 -13
-8 -16 0 -17 -26 -22 -21 -16
-10 -19 0 -18 -27 -24 -21 -17
-13 -20 -3 -19 -26 -24 -22 -17
-16 -20 -3 -20 -27 -24 -21 -16
-15 -20 -3 -20 -27 -23 -20 -17
-12 -17 0 -18 -26 -22 -20 -16
-11 -18 0 -17 -27 -24 -21 -16
-12 -18 1 -18 -29 -26 -22 -17
-12 -17 4 -17 -27 -24 -21 -16
-12 -16 6 -14 -25 -22 -20 -14
-12 -19 4 -16 -26 -23 -20 -16
-10 -22 1 -18 -29 -26 -23 -19
-9 -23 0 -20 -29 -27 -24 -20
-12 -25 -2 -22 -29 -27 -25 -21
-15 -26 -2 -23 -31 -28 -24 -22
-13 -23 2 -20 -30 -25 -21 -18
-6 -20 4 -19 -29 -25 -21 -17
-9 -22 3 -18 -29 -25 -20 -17
-20 -27 4 -17 -28 -25 -20 -18
-26 -27 7 -14 -25 -21 -18 -16
-21 -24 7 -13 -24 -21 -19 -17
-14 -22 7 -14 -25 -22 -20 -19
-11 -20 9 -13 -22 -21 -18 -17
-11 -20 7 -13 -22 -20 -18 -17
-13 -22 2 -18 -27 -24 -22 -21
-15 -25 3 -19 -28 -25 -23 -22
-14 -25 4 -15 -27 -25 -23 -22
-12 -24 9 -10 -26 -26 -25 -24
-10 -25 12 -5 -23 -28 -30 -29
-6 -24 15 4 -17 -26 -31 -31
-4 -22 17 14 -7 -19 -28 -29
-5 -22 18 27 6 -8 -19 -23
-6 -20 20 43 22 10 -5 -14
-6 -19 24 61 43 32 15 -2
2 -19 23 67 61 59 36 11
16 -19 18 62 79 92 64 28
31 -15 12 44 84 122 95 47
45 -5 5 16 82 158 133 72
64 16 -16 -26 86 214 190 112
89 45 -54 -79 95 287 267 167
113 66 -96 -134 97 348 332 216
133 77 -135 -185 73 357 357 241
146 85 -169 -234 24 315 341 248
153 94 -204 -285 -40 243 298 243
150 98 -233 -331 -111 154 240 227
134 93 -249 -377 -192 50 164 198
105 77 -261 -429 -282 -57 86 162
71 60 -273 -486 -382 -162 11 126
42 44 -279 -529 -481 -273 -65 85
14 23 -272 -545 -558 -377 -143 37
-15 3 -259 -539 -597 -446 -205 -10
-37 -9 -238 -511 -582 -457 -233 -43
-48 -11 -210 -454 -522 -422 -230 -61
-54 -13 -178 -389 -446 -368 -212 -67
-56 -15 -146 -325 -377 -314 -185 -64
-53 -14 -114 -262 -308 -261 -156 -57
-48 -8 -85 -205 -247 -215 -133 -55
-43 -4 -59 -155 -197 -176 -114 -54
-37 -4 -40 -115 -157 -145 -99 -54
-34 -8 -24 -85 -121 -119 -86 -51
-31 -12 -15 -62 -95 -98 -74 -48
-30 -16 -9 -48 -74 -81 -63 -44
-30 -20 -4 -36 -58 -69 -56 -43
-25 -20 3 -24 -44 -56 -48 -39
-19 -18 7 -13 -33 -46 -40 -36
-15 -14 11 -5 -25 -38 -34 -33
-11 -12 14 2 -19 -33 -31 -31
-11 -13 17 7 -16 -30 -30 -30
-14 -15 19 12 -14 -28 -29 -30
-18 -18 20 15 -11 -26 -29 -30
-20 -20 20 17 -8 -25 -29 -31
-20 -20 19 17 -6 -25 -29 -32
-19 -20 18 17 -4 -24 -28 -32
-17 -20 18 16 -3 -23 -28 -32
-15 -18 19 18 0 -20 -26 -31
-13 -16 17 19 1 -19 -23 -30
-12 -16 16 20 2 -18 -24 -29
-12 -17 17 23 2 -17 -23 -28
-12 -16 21 27 4 -16 -22 -27
-9 -14 24 30 7 -16 -23 -28
-7 -12 26 33 10 -14 -23 -27
-10 -14 26 34 12 -14 -23 -30
-16 -16 26 34 14 -12 -21 -30
-20 -17 26 35 16 -10 -20 -28
-20 -17 25 36 17 -8 -20 -28
-19 -20 24 36 17 -8 -20 -30
-18 -21 24 39 19 -7 -20 -29
-18 -20 27 45 22 -5 -19 -28
-18 -18 30 51 27 0 -16 -26
-15 -19 32 54 30 0 -17 -27
-14 -20 31 55 31 0 -19 -29
-13 -20 32 57 34 2 -18 -30
-10 -18 35 61 40 5 -15 -28
-10 -15 39 65 47 9 -13 -25
-10 -14 38 68 49 11 -12 -24
-7 -13 38 70 52 11 -12 -24
-5 -14 42 76 55 13 -11 -23
-8 -15 46 82 59 16 -10 -22
-11 -17 48 89 64 19 -8 -22
-10 -18 51 94 70 21 -9 -24
-8 -17 55 101 76 25 -8 -25
-9 -16 55 106 84 30 -6 -26
-7 -16 53 110 90 31 -6 -27
-3 -14 54 114 94 34 -6 -26
-2 -12 55 119 100 40 -3 -24
-4 -12 56 125 106 44 0 -23
-4 -13 59 131 112 47 1 -22
-5 -13 65 138 117 51 3 -21
-10 -14 69 146 123 55 5 -19
-10 -15 71 152 131 58 6 -19
-7 -15 72 157 136 61 6 -20
-6 -15 73 161 142 64 7 -22
-2 -9 76 168 150 71 12 -20
2 -2 81 175 160 80 18 -15
0 0 82 178 165 86 20 -14
-4 -5 80 179 168 88 19 -15
-2 -4 80 183 170 91 20 -14
2 1 81 188 175 96 24 -12
2 4 79 190 178 99 27 -11
2 4 78 190 181 102 29 -9
5 6 77 190 183 106 33 -7
8 9 78 189 186 110 38 -4
6 9 77 187 188 112 42 0
4 8 73 184 187 113 44 2
4 10 71 185 187 116 48 7
8 14 72 184 187 119 52 11
11 15 69 180 184 118 52 12
9 14 68 176 181 117 52 13
6 14 66 173 178 116 52 13
7 17 65 169 176 114 52 15
11 21 63 162 172 113 50 15
14 26 62 157 168 113 52 17
17 29 60 149 162 111 54 17
18 28 55 138 154 107 53 17
14 26 49 128 144 102 51 17
11 23 43 117 134 96 49 17
11 22 36 108 122 90 46 17
12 24 34 101 114 85 46 19
10 27 35 96 107 80 46 21
9 26 31 86 98 73 42 19
10 21 26 74 86 64 35 15
7 18 22 65 75 58 32 13
4 17 20 58 69 53 30 13
3 15 16 48 61 48 28 11
5 12 8 37 50 39 23 7
3 11 7 32 43 34 22 7
0 11 8 29 38 31 21 9
2 12 8 27 32 27 19 9
6 13 8 24 26 23 17 8
4 12 8 21 21 18 13 6
-2 10 9 18 17 16 11 5
-4 10 10 16 16 15 11 6
-4 9 7 13 13 12 9 6
1 8 3 7 9 7 5 2
8 8 0 2 3 4 2 -3
8 9 -2 0 0 2 1 -3
1 7 1 1 -2 3 3 1
-5 3 2 2 -3 1 3 1
-3 3 3 1 -6 -2 2 0
4 5 5 1 -7 -4 1 0
5 6 5 0 -7 -5 1 -2
-2 3 4 0 -8 -6 1 -4
-6 2 4 -3 -8 -6 0 -4
-5 1 4 -6 -8 -7 -2 -4
-6 0 1 -8 -10 -8 -3 -5
-10 -2 -2 -9 -12 -9 -4 -5
-9 -4 -3 -10 -13 -10 -6 -6
-6 -6 -5 -11 -16 -13 -10 -8
-8 -8 -3 -9 -17 -15 -10 -8
-12 -10 -2 -9 -17 -16 -11 -10
-13 -11 -3 -12 -19 -18 -15 -14
-12 -9 0 -11 -17 -16 -13 -14
-7 -2 3 -8 -14 -15 -11 -12
-3 3 4 -7 -12 -13 -8 -10
-2 1 0 -10 -15 -15 -9 -11
-4 -2 0 -12 -17 -17 -11 -12
-6 -3 2 -11 -17 -18 -12 -11
-9 -5 3 -10 -18 -17 -12 -11
-10 -6 4 -8 -19 -18 -13 -11
-6 -4 6 -7 -18 -18 -13 -11
0 0 7 -5 -16 -16 -10 -9
2 1 5 -5 -15 -16 -8 -10
1 -3 1 -8 -15 -17 -11 -12
-5 -6 -3 -10 -16 -17 -12 -13
-10 -7 -3 -9 -16 -15 -10 -12
-10 -6 -2 -10 -16 -15 -9 -10
-9 -7 0 -10 -17 -17 -11 -9
-8 -6 1 -11 -19 -18 -12 -10
-6 -4 1 -11 -20 -19 -12 -12
-3 -3 2 -9 -19 -20 -14 -14
2 2 3 -6 -17 -19 -14 -14
2 2 3 -6 -17 -19 -14 -14
-5 -4 1 -9 -17 -20 -14 -15
-10 -7 1 -10 -18 -19 -12 -14
-10 -5 1 -11 -17 -18 -11 -13
-9 -3 1 -10 -16 -17 -9 -11
-8 -3 1 -10 -17 -17 -10 -12
-7 -4 2 -10 -18 -18 -11 -12
-5 -3 3 -8 -17 -17 -10 -11
-4 1 5 -4 -14 -15 -9 -9
-7 0 6 -3 -12 -15 -10 -10
-8 -3 4 -5 -14 -17 -12 -13
-6 -3 3 -7 -15 -19 -14 -16
-4 -2 3 -8 -15 -17 -14 -15
-4 0 2 -9 -15 -16 -12 -14
-5 -2 2 -9 -14 -15 -9 -13
-6 -3 2 -8 -13 -14 -9 -12
-8 0 3 -6 -12 -12 -8 -11
-8 3 5 -2 -9 -10 -6 -8
-5 5 7 0 -6 -9 -4 -6
-5 6 5 -3 -7 -10 -5 -8
-4 6 4 -2 -7 -10 -5 -9
-2 9 5 0 -4 -8 -4 -8
0 12 6 0 -2 -6 -2 -5
-3 14 9 1 -2 -4 2 -2
-2 16 10 0 -2 -4 2 0
2 14 8 0 -3 -4 1 -2
1 11 5 0 -4 -3 0 -3
0 10 5 3 -3 -2 2 -2
2 10 5 3 -2 -3 2 -2
3 11 6 3 0 -3 2 -2
-2 9 7 4 1 -2 2 -3
-7 5 5 3 1 -3 -2 -5
-8 2 4 2 0 -3 -3 -6
-5 6 4 -2 -2 0 0 -5
0 13 6 0 2 3 4 0
3 16 5 0 2 4 6 2
4 16 1 -3 0 2 5 2
1 17 0 -3 1 5 9 6
0 18 -3 -4 3 7 12 9
2 19 -8 -7 0 7 13 10
6 19 -12 -11 -4 3 12 9
13 16 -16 -17 -10 -4 6 5
18 12 -18 -20 -13 -8 2 2
16 10 -19 -22 -14 -9 0 1
15 10 -18 -20 -14 -8 1 1
21 13 -18 -19 -15 -9 1 1
21 13 -18 -17 -15 -8 3 4
17 11 -16 -16 -14 -6 4 6
17 12 -13 -15 -14 -6 4 7
18 13 -11 -15 -13 -6 4 8
14 8 -12 -17 -15 -8 3 6
8 2 -13 -19 -16 -10 0 3
4 -2 -12 -20 -17 -12 -3 1
4 -4 -13 -20 -18 -12 -3 1
5 -6 -14 -21 -21 -13 -4 -2
5 -7 -15 -23 -22 -14 -5 -3
7 -7 -14 -21 -23 -14 -5 -2
10 -5 -12 -20 -24 -15 -6 -2
8 -6 -11 -19 -25 -17 -8 -6
5 -8 -8 -18 -24 -17 -10 -8
7 -6 -6 -17 -22 -17 -9 -9
6 -4 -4 -16 -21 -16 -8 -8
-6 -9 -4 -18 -22 -17 -9 -8
-11 -14 -5 -19 -23 -19 -13 -11
-7 -15 -5 -19 -25 -22 -17 -14
-5 -15 -4 -20 -27 -25 -19 -16
-7 -15 -3 -19 -28 -25 -19 -16
-8 -15 0 -16 -28 -23 -18 -16
-10 -17 2 -15 -27 -24 -18 -15
-11 -18 3 -14 -26 -24 -18 -15
-11 -17 4 -14 -25 -23 -18 -15
-9 -16 3 -15 -25 -23 -17 -15
-9 -15 3 -16 -25 -23 -17 -14
-10 -16 3 -16 -25 -23 -16 -13
-13 -21 -3 -19 -28 -27 -20 -16
-16 -25 -6 -22 -31 -30 -23 -19
-15 -23 -5 -20 -31 -28 -23 -18
-10 -20 -2 -17 -29 -26 -21 -16
-8 -19 0 -16 -29 -26 -19 -15
-11 -18 4 -14 -27 -25 -18 -14
-13 -18 6 -14 -26 -24 -18 -14
-14 -20 5 -17 -28 -26 -20 -16
-13 -23 4 -18 -28 -26 -19 -16
-14 -25 3 -17 -28 -25 -19 -17
-15 -27 4 -17 -28 -26 -21 -19
-13 -25 3 -18 -30 -28 -22 -20
-6 -19 7 -14 -28 -26 -21 -17
-3 -16 8 -13 -27 -26 -21 -16
-7 -19 6 -13 -28 -27 -22 -18
-9 -20 7 -13 -27 -26 -21 -17
-10 -18 9 -12 -24 -23 -19 -17
-13 -20 6 -15 -25 -25 -20 -17
-16 -23 3 -16 -26 -25 -20 -17
-16 -24 3 -17 -26 -25 -19 -17
-15 -24 6 -17 -26 -24 -18 -17
-16 -25 7 -16 -26 -26 -21 -18
-18 -27 9 -13 -25 -27 -24 -21
-19 -29 12 -7 -23 -28 -27 -24
-16 -27 15 2 -19 -27 -29 -26
-13 -24 17 9 -12 -22 -26 -24
-12 -22 15 16 0 -11 -19 -19
-6 -19 14 30 14 4 -6 -13
5 -16 16 45 29 20 10 -4
12 -17 18 59 51 46 30 10
20 -18 18 66 77 85 63 29
35 -11 16 62 97 127 102 54
51 -2 12 48 103 168 144 81
66 14 -4 17 103 217 198 118
86 38 -33 -29 106 284 272 172
110 67 -70 -80 106 349 347 228
133 87 -106 -126 87 372 385 263
145 93 -138 -169 45 342 375 275
147 95 -171 -217 -16 275 332 269
139 96 -198 -267 -86 190 272 250
121 94 -214 -310 -160 91 198 221
97 87 -222 -356 -245 -18 116 184
66 75 -233 -415 -346 -130 33 144
34 58 -243 -468 -451 -249 -54 95
8 36 -244 -492 -533 -365 -142 39
-17 19 -233 -491 -576 -446 -215 -13
-40 7 -220 -476 -575 -471 -254 -54
-56 0 -199 -438 -531 -444 -256 -75
-55 -3 -174 -384 -466 -395 -237 -80
-49 -5 -145 -329 -401 -345 -213 -76
-46 -7 -114 -273 -335 -293 -182 -68
-46 -8 -86 -218 -271 -242 -155 -63
-44 -8 -60 -168 -216 -198 -133 -59
-40 -9 -38 -126 -171 -163 -112 -55
-37 -10 -24 -90 -132 -134 -96 -50
-30 -9 -16 -64 -100 -108 -80 -46
-23 -9 -10 -48 -77 -88 -67 -40
-21 -14 -5 -34 -59 -73 -58 -38
-25 -18 2 -23 -43 -62 -51 -36
-26 -19 5 -14 -31 -50 -43 -33
-22 -16 7 -9 -25 -41 -36 -30
-17 -16 8 -5 -19 -37 -34 -27
-14 -19 7 -3 -19 -37 -35 -28
-13 -19 9 2 -15 -33 -32 -27
-11 -14 15 10 -8 -28 -28 -22
-12 -12 18 14 -3 -25 -26 -20
-16 -15 19 15 1 -22 -25 -21
-19 -18 17 13 2 -23 -25 -23
-16 -17 16 12 4 -21 -24 -23
-11 -15 16 12 5 -19 -23 -23
-10 -15 18 15 7 -17 -22 -22
-13 -17 18 16 7 -17 -21 -21
-15 -17 19 19 7 -16 -21 -20
-13 -14 22 24 10 -13 -19 -18
-9 -11 25 28 14 -11 -16 -17
-11 -13 24 29 15 -12 -18 -19
-13 -15 23 29 17 -12 -19 -21
-10 -11 20 30 20 -11 -19 -21
-7 -7 21 32 24 -7 -17 -20
-6 -8 21 32 25 -5 -16 -19
-7 -11 22 32 25 -6 -17 -20
-9 -13 24 33 26 -5 -16 -19
-12 -14 26 35 26 -5 -17 -19
-12 -15 27 39 28 -4 -17 -20
-11 -16 27 44 32 -3 -17 -19
-12 -16 28 47 38 2 -17 -18
-13 -16 30 51 43 5 -16 -19
-13 -17 31 54 47 6 -16 -21
-14 -18 31 55 50 7 -15 -21
-13 -17 30 56 52 9 -15 -21
-13 -15 32 59 55 12 -11 -19
-12 -14 34 62 58 13 -11 -18
-12 -13 38 70 63 17 -9 -16
-10 -12 42 76 68 20 -6 -15
-5 -13 43 79 72 20 -7 -16
-6 -16 45 85 78 24 -7 -17
-9 -19 46 90 85 28 -5 -17
-7 -18 47 95 92 32 0 -15
-4 -14 48 99 100 36 2 -13
-3 -12 51 104 106 43 4 -11
-2 -11 53 110 112 47 6 -9
1 -10 55 115 115 49 7 -8
2 -10 56 119 117 50 5 -10
-2 -14 59 126 121 52 5 -12
-2 -15 59 131 127 54 4 -12
0 -11 64 139 137 62 8 -8
1 -6 69 146 147 71 15 -4
2 -5 70 151 155 77 19 -3
3 -5 69 153 159 81 21 -3
3 -3 69 156 164 87 25 1
2 -4 67 158 169 91 28 3
4 -2 66 160 171 95 30 6
3 2 68 164 175 100 34 10
-2 3 70 169 178 104 37 12
-5 1 71 171 181 106 39 13
0 3 71 171 184 109 42 14
9 9 72 170 185 112 44 14
12 14 72 170 188 114 46 15
14 16 69 168 189 116 47 17
17 17 66 162 186 116 48 18
19 16 63 157 181 113 47 18
14 13 61 155 179 112 48 21
6 10 57 153 175 112 49 21
2 10 54 150 171 110 49 21
2 13 53 148 170 110 51 25
4 18 54 145 168 110 52 29
8 22 55 140 164 109 54 31
11 25 54 134 160 108 56 34
10 24 50 126 155 105 56 36
7 22 42 113 145 100 54 35
6 22 36 104 135 95 53 36
6 22 30 96 126 89 51 38
8 22 23 87 115 81 48 38
11 22 19 76 103 74 44 35
12 23 19 69 94 68 40 34
11 23 20 64 88 64 38 35
9 20 16 55 78 57 35 33
4 16 12 48 71 51 33 31
-2 15 11 42 65 47 31 30
-2 17 11 37 59 45 31 31
1 18 10 32 52 39 30 32
4 18 9 27 45 33 27 31
7 17 6 22 37 27 23 30
7 15 5 19 30 22 21 29
4 12 5 17 26 17 18 28
1 10 3 13 21 14 15 26
-2 8 2 11 19 12 12 24
-4 8 1 7 17 9 10 22
-6 6 1 5 16 7 10 22
-9 2 1 1 11 5 9 20
-11 -2 0 -3 7 1 8 19
-11 -4 -3 -5 3 -3 6 19
-9 -2 -3 -4 2 -3 5 18
-9 1 -2 -4 1 -4 4 17
-9 2 1 -2 0 -6 0 16
-7 4 1 0 0 -7 -4 15
-5 6 1 0 0 -7 -3 15
-4 7 2 1 2 -5 0 16
-4 5 1 -4 0 -8 -3 14
-7 2 -2 -9 -4 -10 -6 11
-10 -2 -4 -11 -8 -13 -7 10
-9 -3 -5 -11 -10 -15 -9 9
-4 0 -4 -9 -10 -15 -9 10
1 5 -2 -8 -9 -15 -9 10
0 7 3 -5 -7 -15 -10 11
-5 4 3 -4 -8 -17 -12 9
-9 -2 2 -5 -8 -18 -13 8
-13 -4 3 -6 -8 -17 -12 8
-13 -5 2 -9 -9 -18 -13 8
-8 -2 0 -11 -11 -18 -12 8
-4 2 -3 -11 -13 -20 -12 8
-8 2 -3 -9 -13 -20 -13 9
-16 -4 -4 -9 -14 -21 -14 10
-24 -8 -2 -8 -13 -20 -13 11
-23 -8 1 -6 -11 -18 -12 11
-14 -3 2 -6 -11 -19 -13 10
-7 2 2 -6 -11 -19 -14 8
-9 1 1 -7 -11 -20 -14 8
-12 -2 0 -9 -11 -21 -14 9
-10 0 0 -10 -11 -19 -12 10
-10 1 0 -10 -12 -19 -10 12
-14 -3 -2 -10 -14 -21 -12 11
-12 -4 -3 -9 -14 -20 -12 10
-7 -2 -4 -8 -14 -20 -12 9
-9 0 0 -6 -13 -20 -12 10
-13 -3 1 -6 -13 -20 -14 8
-11 -4 -2 -8 -14 -21 -16 4
-8 -2 -2 -8 -13 -21 -15 5
-9 -2 -2 -9 -12 -20 -15 6
-12 -5 -2 -11 -13 -20 -15 6
-13 -6 -3 -11 -14 -20 -14 7
-12 -4 -3 -8 -12 -19 -12 10
-9 -3 -4 -7 -13 -18 -12 11
-7 -2 -4 -6 -13 -19 -12 10
-8 1 0 -3 -11 -18 -12 11
-9 2 3 -2 -9 -18 -13 10
-11 1 3 -4 -9 -18 -14 9
-14 0 3 -4 -7 -17 -13 9
-14 2 3 -2 -5 -14 -11 11
-11 4 1 -4 -6 -15 -11 11
-11 2 -2 -6 -7 -15 -9 10
-10 3 -3 -6 -7 -16 -9 10
-8 8 1 -2 -5 -12 -7 13
-4 14 3 2 -3 -9 -3 16
-2 18 6 6 1 -5 1 19
-4 18 7 7 3 -3 2 19
-9 14 6 6 4 -3 3 18
-9 10 3 2 1 -6 1 15
-8 9 1 -2 1 -7 0 15
-9 11 2 0 1 -6 1 16
-8 11 2 1 2 -5 2 17
-3 11 1 0 0 -7 -2 16
2 11 -2 0 -3 -8 -4 15
-4 8 -4 -2 -4 -8 -4 14
-13 2 -3 0 -3 -7 -3 15
-13 4 1 3 2 -4 0 17
-6 13 4 8 6 3 4 21
-2 19 6 9 10 6 8 24
-6 18 4 6 9 5 7 23
-8 15 -2 1 5 2 5 21
-4 16 -5 -2 4 3 7 23
2 20 -6 -4 4 5 9 26
4 22 -10 -7 2 3 8 27
1 20 -15 -9 -3 0 6 26
-3 14 -17 -14 -8 -6 2 23
-4 11 -17 -16 -12 -9 -2 22
-4 10 -16 -15 -11 -9 -2 21
-2 10 -18 -15 -12 -9 -2 20
4 12 -19 -15 -10 -6 1 21
12 16 -18 -15 -8 -4 4 23
12 16 -17 -15 -9 -4 5 23
8 11 -18 -17 -13 -8 3 21
7 7 -18 -18 -16 -9 0 21
7 6 -16 -17 -16 -10 1 21
3 2 -17 -17 -17 -12 0 19
1 0 -17 -16 -16 -11 0 18
1 0 -13 -14 -15 -10 0 18
-4 -3 -10 -13 -14 -9 0 17
-10 -8 -12 -16 -16 -11 -3 15
-10 -9 -15 -19 -19 -13 -5 13
-6 -8 -17 -22 -22 -16 -7 11
-7 -7 -15 -22 -23 -17 -9 11
-12 -10 -12 -19 -22 -16 -8 12
-12 -13 -8 -16 -22 -16 -8 10
-10 -13 -4 -14 -23 -18 -11 5
-10 -13 -2 -11 -22 -20 -12 0
-11 -13 0 -12 -23 -21 -14 -7
-12 -13 1 -13 -21 -20 -14 -9
-19 -14 2 -13 -21 -19 -13 -10
-27 -18 3 -12 -21 -20 -13 -11
-24 -19 0 -15 -24 -22 -15 -13
-13 -17 -4 -18 -26 -25 -17 -15
-10 -17 -4 -18 -27 -25 -18 -15
-13 -19 -3 -16 -27 -25 -19 -15
-15 -19 0 -16 -28 -26 -20 -16
-13 -18 1 -16 -26 -26 -20 -16
-15 -20 1 -18 -28 -27 -21 -18
-19 -21 2 -18 -26 -27 -20 -18
-18 -21 1 -17 -26 -25 -19 -17
-15 -20 -2 -19 -28 -26 -21 -17
-16 -20 0 -18 -28 -26 -19 -16
-14 -19 1 -18 -28 -26 -20 -16
-11 -17 3 -17 -27 -25 -20 -15
-8 -16 3 -17 -29 -27 -21 -17
-6 -16 4 -17 -29 -28 -21 -17
-6 -17 4 -18 -29 -28 -22 -18
-10 -20 3 -18 -29 -28 -21 -18
-14 -22 3 -19 -29 -29 -22 -18
-17 -24 3 -21 -30 -30 -23 -20
-19 -25 3 -21 -30 -29 -23 -20
-18 -25 2 -20 -29 -29 -22 -20
-19 -23 4 -18 -28 -28 -20 -18
-19 -24 5 -18 -29 -27 -19 -17
-20 -26 6 -18 -30 -27 -20 -18
-22 -27 7 -17 -29 -27 -20 -19
-23 -28 7 -16 -27 -25 -20 -17
-21 -28 7 -16 -27 -25 -20 -19
-17 -24 8 -16 -26 -25 -19 -19
-16 -21 10 -15 -24 -24 -18 -16
-19 -22 7 -15 -25 -24 -19 -16
-24 -27 6 -15 -24 -25 -21 -18
-25 -30 8 -13 -23 -27 -25 -21
-24 -33 12 -7 -20 -26 -28 -24
-21 -35 12 -2 -17 -25 -31 -27
-17 -33 11 6 -8 -20 -26 -26
-11 -24 13 21 8 -3 -13 -16
-2 -14 20 43 30 23 10 1
6 -10 23 59 54 49 33 15
12 -13 22 65 78 84 61 31
23 -11 19 62 99 125 98 54
34 -4 14 51 104 163 140 79
48 7 0 24 98 201 185 111
65 28 -26 -17 93 259 250 157
87 59 -61 -65 96 332 331 216
108 85 -99 -109 91 388 398 267
126 97 -132 -150 62 393 418 294
134 104 -160 -192 15 352 398 300
133 111 -188 -236 -39 288 358 294
126 114 -210 -276 -101 207 298 274
109 107 -220 -315 -173 106 221 241
80 93 -225 -361 -262 -7 136 201
47 75 -234 -414 -368 -134 43 153
16 55 -237 -448 -467 -267 -56 99
-13 31 -229 -455 -534 -382 -151 38
-37 12 -216 -451 -561 -450 -221 -17
-51 0 -199 -429 -543 -456 -251 -56
-57 -9 -177 -383 -486 -415 -245 -73
-59 -12 -148 -326 -416 -362 -223 -74
-57 -15 -121 -275 -352 -311 -196 -69
-52 -17 -96 -227 -291 -262 -170 -66
-48 -16 -71 -180 -236 -218 -146 -63
-44 -14 -51 -140 -190 -181 -127 -59
-41 -15 -35 -105 -151 -148 -109 -54
-43 -17 -23 -76 -117 -119 -92 -48
-40 -17 -16 -56 -91 -98 -76 -40
-35 -19 -11 -43 -72 -81 -65 -36
-29 -23 -8 -33 -57 -69 -58 -34
-25 -22 -4 -24 -43 -57 -50 -31
-25 -19 3 -14 -29 -44 -40 -25
-25 -18 6 -9 -22 -36 -34 -21
-20 -17 9 -6 -18 -32 -32 -20
-15 -15 11 -2 -16 -30 -31 -19
-15 -16 12 4 -14 -27 -30 -19
-18 -19 11 7 -12 -27 -30 -21
-16 -19 11 9 -10 -26 -32 -22
-15 -19 12 10 -7 -24 -31 -22
-18 -19 12 11 -3 -22 -30 -22
-15 -16 13 12 1 -19 -28 -21
-8 -13 11 10 0 -19 -28 -23
-11 -16 12 9 0 -19 -26 -22
-21 -20 12 8 -2 -20 -26 -22
-22 -22 11 10 -2 -20 -27 -21
-19 -20 13 14 2 -18 -26 -18
-18 -18 15 18 5 -16 -24 -16
-15 -16 17 22 10 -12 -22 -15
-10 -15 18 24 13 -10 -22 -15
-10 -14 17 24 15 -10 -22 -16
-14 -15 19 26 19 -8 -20 -15
-17 -18 18 24 18 -7 -20 -16
-18 -22 16 22 17 -7 -20 -17
-16 -24 14 22 16 -8 -22 -19
-15 -23 16 25 19 -7 -22 -18
-14 -20 19 32 22 -4 -20 -16
-10 -14 24 39 27 0 -19 -15
-4 -9 27 45 32 2 -18 -15
-5 -10 26 46 34 3 -19 -17
-10 -14 25 47 38 5 -18 -18
-12 -16 27 49 44 9 -16 -17
-9 -17 27 50 47 10 -16 -17
-10 -18 28 53 50 13 -13 -16
-11 -16 30 56 54 15 -11 -14
-10 -13 34 63 59 19 -8 -10
-8 -12 36 70 64 23 -7 -9
-8 -13 37 77 69 26 -6 -9
-9 -15 37 81 75 28 -8 -11
-12 -19 39 84 79 30 -8 -13
-14 -21 40 85 82 32 -8 -15
-13 -20 45 92 92 38 -4 -13
-11 -17 48 98 100 44 0 -10
-10 -16 49 101 105 48 3 -9
-7 -15 52 107 110 52 6 -8
1 -12 52 112 113 55 6 -8
3 -11 54 118 118 57 6 -8
-5 -14 57 123 125 61 7 -8
-11 -17 59 129 131 64 6 -8
-10 -15 60 134 137 69 9 -9
-3 -10 61 139 143 74 12 -8
1 -7 61 141 147 78 15 -8
1 -8 61 142 151 84 18 -6
1 -6 61 144 157 90 23 -3
4 -2 62 147 162 95 27 2
5 1 62 150 164 99 29 5
8 2 61 151 165 101 32 6
13 5 62 154 168 105 35 8
16 9 63 157 172 109 38 10
12 9 63 158 175 112 40 12
5 7 62 156 175 113 43 13
1 4 59 151 174 112 44 12
2 4 57 147 171 112 44 12
3 7 56 144 168 113 46 15
3 10 55 142 168 113 48 17
6 14 53 138 163 112 48 18
11 18 53 135 158 109 48 19
12 21 51 133 155 108 49 21
10 21 47 129 151 106 48 22
8 19 43 122 145 103 47 21
6 19 40 114 141 101 48 22
2 20 36 106 135 99 49 23
-5 17 33 98 128 95 48 24
-7 16 29 89 118 90 48 25
2 19 24 79 107 84 46 24
12 22 20 71 97 77 43 24
13 22 17 66 88 71 40 24
6 20 16 61 81 65 39 25
1 19 15 55 74 60 37 24
4 22 12 48 66 55 34 23
7 25 10 44 61 52 33 24
3 23 7 37 56 48 32 24
-2 17 3 28 48 42 28 22
-2 13 -2 19 38 34 24 18
0 12 -2 16 31 29 21 18
-5 9 -3 13 24 23 18 16
-9 4 -4 8 16 17 13 13
-9 1 -5 7 11 12 10 11
-4 3 -3 7 10 10 9 10
1 7 -3 5 8 9 7 9
-4 7 -3 4 7 8 7 8
-10 4 -5 0 4 5 5 6
-10 3 -6 -3 2 3 3 5
-4 6 -6 -4 0 2 3 5
-2 6 -6 -6 -3 -2 2 5
-7 1 -5 -6 -6 -4 1 4
-12 -4 -5 -8 -11 -6 -3 2
-12 -5 -5 -7 -12 -7 -3 2
-9 -3 -5 -7 -11 -8 -4 0
-4 0 -6 -6 -10 -8 -5 -2
-3 3 -5 -6 -9 -8 -4 -2
-7 2 -6 -8 -9 -9 -5 -4
-11 -2 -6 -9 -10 -8 -5 -4
-11 -3 -6 -12 -12 -9 -5 -6
-11 -4 -6 -14 -14 -12 -6 -6
-11 -7 -8 -16 -18 -15 -8 -7
-12 -8 -9 -15 -18 -15 -8 -7
-13 -5 -8 -12 -17 -15 -8 -6
-13 -3 -5 -9 -15 -14 -7 -5
-13 -3 -4 -10 -16 -15 -10 -7
-13 -5 -3 -12 -17 -17 -12 -9
-12 -5 -3 -12 -15 -16 -11 -9
-11 -6 -5 -13 -16 -16 -12 -9
-13 -10 -5 -15 -18 -17 -12 -10
-14 -11 -5 -16 -19 -18 -12 -10
-12 -8 -5 -16 -20 -19 -12 -10
-9 -5 -5 -15 -22 -19 -13 -9
-9 -6 -3 -12 -20 -18 -13 -10
-6 -4 2 -9 -17 -16 -11 -9
-5 0 3 -8 -15 -15 -11 -9
-9 -3 0 -9 -16 -16 -12 -11
-13 -7 -4 -10 -17 -17 -13 -11
-13 -7 -4 -12 -17 -16 -12 -10
-15 -6 -4 -13 -17 -16 -10 -9
-16 -7 -5 -14 -18 -16 -10 -9
-13 -5 -5 -13 -18 -17 -11 -9
-7 1 -3 -10 -17 -16 -10 -8
-4 2 -3 -8 -17 -16 -11 -9
-2 2 -3 -8 -17 -17 -13 -10
-2 0 -4 -9 -19 -18 -14 -12
-7 -4 -5 -12 -18 -18 -14 -13
-13 -8 -6 -14 -18 -19 -15 -15
-13 -9 -6 -14 -18 -18 -15 -14
-11 -6 -6 -13 -17 -17 -13 -13
-8 -3 -6 -12 -17 -17 -10 -12
-8 -3 -5 -10 -17 -17 -10 -11
-8 -4 -4 -9 -18 -18 -11 -12
-9 -6 -3 -8 -17 -18 -11 -11
-10 -7 -2 -7 -17 -18 -12 -11
-11 -6 1 -6 -15 -15 -12 -11
-10 0 1 -5 -12 -13 -10 -10
-9 2 2 -4 -10 -11 -7 -8
-9 2 0 -5 -9 -11 -7 -8
-6 2 -3 -8 -10 -12 -8 -9
-4 3 -4 -9 -11 -12 -7 -9
-2 5 -2 -7 -10 -10 -5 -7
-2 9 0 -6 -9 -9 -4 -5
-2 11 1 -3 -7 -7 -3 -3
-5 10 1 -2 -6 -6 -4 -5
-7 8 1 -3 -6 -6 -6 -7
-6 10 0 -4 -7 -7 -6 -8
-2 13 0 -4 -5 -6 -5 -7
-2 16 2 -3 0 -3 0 -4
-4 18 3 0 3 2 3 0
-5 18 3 2 2 2 4 1
-6 16 2 2 0 3 4 2
-9 14 3 4 2 4 6 3
-8 15 3 6 4 5 6 4
0 14 3 6 3 4 5 2
2 10 3 2 1 2 3 0
-2 8 0 -2 0 2 3 -2
-4 10 -3 -4 0 3 5 1
-4 13 -6 -6 1 5 6 3
-2 17 -9 -10 0 6 7 4
3 20 -12 -12 -3 4 7 5
7 22 -15 -14 -6 3 6 5
5 19 -17 -16 -9 1 5 4
4 16 -19 -19 -13 -4 1 2
9 15 -19 -19 -16 -7 -2 0
13 15 -18 -18 -16 -8 -2 0
9 10 -18 -18 -15 -8 -2 0
0 2 -19 -20 -15 -9 -2 -2
-3 0 -18 -19 -14 -6 0 2
2 3 -19 -19 -14 -6 2 3
7 3 -19 -19 -14 -6 3 3
9 2 -22 -22 -19 -10 -2 1
7 -3 -21 -23 -22 -12 -5 -2
1 -6 -19 -22 -22 -13 -6 -3
-3 -7 -15 -18 -20 -12 -5 -2
0 -6 -13 -17 -20 -12 -5 -2
6 -4 -12 -17 -19 -12 -5 -3
8 0 -13 -17 -18 -11 -5 -3
6 -3 -13 -18 -19 -12 -5 -3
2 -8 -15 -22 -23 -15 -8 -5
-2 -9 -15 -22 -23 -17 -10 -7
-2 -7 -10 -18 -22 -16 -11 -8
-3 -9 -7 -15 -22 -16 -11 -9
-7 -14 -6 -15 -23 -18 -13 -12
-11 -17 -4 -15 -23 -19 -15 -13
-9 -14 -3 -16 -25 -20 -16 -13
-7 -14 -3 -17 -26 -21 -16 -14
-11 -19 -3 -19 -27 -24 -18 -17
-15 -22 -5 -21 -28 -25 -20 -18
-15 -22 -6 -21 -28 -24 -19 -17
-12 -18 -4 -17 -27 -23 -18 -15
-9 -14 0 -15 -26 -21 -15 -12
-7 -14 1 -15 -27 -23 -18 -14
-8 -18 1 -16 -28 -26 -21 -17
-10 -19 3 -15 -28 -26 -20 -17
-11 -19 3 -15 -27 -25 -18 -17
-12 -21 2 -16 -28 -25 -20 -18
-13 -23 1 -17 -28 -27 -22 -20
-12 -22 1 -19 -29 -26 -22 -19
-11 -20 2 -18 -28 -25 -20 -17
-13 -20 1 -17 -28 -25 -20 -17
-15 -21 2 -15 -27 -24 -19 -17
-13 -21 1 -16 -29 -25 -20 -17
-10 -21 1 -16 -29 -25 -21 -17
-10 -22 2 -16 -29 -25 -22 -18
-13 -24 2 -16 -30 -27 -23 -20
-14 -25 3 -16 -30 -27 -23 -20
-11 -23 3 -16 -28 -25 -21 -19
-8 -20 6 -14 -27 -23 -19 -17
-11 -23 4 -15 -28 -24 -20 -18
-14 -28 4 -17 -31 -26 -23 -21
-17 -30 3 -18 -32 -27 -24 -22
-17 -28 5 -16 -30 -25 -22 -20
-17 -26 6 -14 -29 -24 -21 -19
-16 -26 6 -13 -29 -25 -22 -21
-15 -27 6 -13 -30 -25 -24 -22
-13 -27 4 -15 -30 -26 -25 -24
-14 -29 5 -15 -30 -26 -25 -24
-16 -30 6 -14 -29 -26 -26 -25
-17 -32 8 -9 -26 -25 -27 -26
-18 -35 10 0 -21 -23 -28 -28
-17 -34 15 11 -10 -17 -25 -25
-13 -25 20 26 6 -5 -18 -20
-7 -16 26 46 27 15 -2 -10
0 -10 28 60 47 36 16 2
9 -10 25 66 64 61 35 13
19 -11 20 65 82 93 62 26
26 -9 13 53 92 127 94 45
29 -5 7 30 88 160 130 68
38 6 -8 -5 78 200 175 98
62 30 -37 -50 79 264 241 144
89 61 -76 -95 90 345 325 200
112 86 -115 -135 91 405 391 250
134 100 -147 -173 68 413 414 277
147 108 -178 -213 26 378 400 287
144 112 -206 -252 -24 318 366 285
131 110 -229 -289 -85 240 315 271
115 99 -240 -329 -161 138 242 241
95 81 -252 -382 -257 19 154 200
66 63 -259 -434 -365 -111 63 156
38 44 -259 -468 -468 -248 -35 103
9 20 -246 -476 -540 -369 -131 46
-20 1 -228 -465 -568 -441 -202 -6
-39 -11 -204 -430 -544 -446 -231 -40
-43 -15 -175 -374 -477 -401 -226 -59
-43 -15 -145 -317 -404 -347 -205 -63
-44 -16 -117 -264 -340 -295 -180 -59
-45 -16 -88 -211 -275 -244 -151 -54
-41 -14 -63 -165 -222 -201 -131 -55
-35 -12 -47 -129 -181 -169 -116 -56
-29 -11 -33 -97 -144 -140 -102 -52
-27 -11 -22 -70 -112 -113 -86 -46
-28 -11 -14 -50 -88 -91 -70 -37
-28 -15 -9 -36 -69 -75 -60 -32
-27 -20 -4 -25 -54 -63 -53 -30
-25 -22 2 -17 -41 -54 -48 -29
-24 -22 6 -10 -31 -45 -41 -27
-22 -22 7 -7 -25 -39 -38 -27
-20 -22 9 -2 -20 -34 -34 -25
-17 -20 10 3 -17 -30 -32 -24
-14 -18 12 8 -15 -28 -31 -23
-13 -17 11 10 -13 -28 -31 -22
-13 -17 13 13 -10 -25 -30 -21
-11 -17 17 16 -8 -23 -29 -21
-12 -20 18 15 -7 -23 -30 -23
-13 -21 16 13 -6 -23 -31 -24
-13 -19 17 15 -4 -21 -29 -23
-12 -17 18 17 0 -19 -26 -21
-10 -15 18 19 2 -18 -25 -20
-9 -14 18 21 2 -17 -25 -19
-10 -15 19 23 3 -16 -24 -20
-13 -17 19 23 3 -17 -25 -22
-15 -20 19 26 4 -16 -26 -22
-15 -20 19 28 6 -15 -26 -23
-13 -19 20 30 10 -13 -24 -22
-12 -18 23 31 14 -11 -23 -22
-13 -16 25 34 16 -8 -21 -20
-16 -16 24 35 18 -8 -20 -19
-17 -17 24 36 19 -7 -20 -19
-13 -16 26 39 22 -4 -19 -18
-9 -15 26 42 23 -4 -19 -18
-6 -15 24 44 23 -5 -21 -18
-6 -15 26 47 26 -3 -22 -18
-8 -16 29 51 31 0 -21 -17
-12 -17 33 55 36 3 -20 -16
-13 -16 35 59 42 6 -19 -15
-13 -14 36 63 46 10 -17 -15
-8 -13 37 66 50 11 -17 -16
-3 -11 38 68 54 12 -17 -16
-2 -12 39 71 56 14 -17 -16
-7 -16 40 77 60 16 -16 -17
-9 -18 40 81 64 17 -16 -18
-6 -14 45 90 71 22 -15 -19
-2 -11 49 97 79 26 -13 -18
-3 -13 50 100 84 28 -14 -21
-7 -18 49 102 89 30 -15 -23
-12 -18 52 108 96 36 -11 -21
-13 -14 57 116 104 44 -5 -18
-12 -10 63 123 113 50 -2 -14
-8 -10 63 127 116 52 -2 -15
-3 -12 62 130 118 53 -2 -17
0 -13 64 136 125 56 0 -18
2 -10 66 141 131 60 1 -17
2 -8 71 149 140 68 6 -14
-2 -6 73 155 149 75 10 -12
-3 -5 74 159 155 80 13 -10
0 -5 73 160 158 82 14 -11
1 -3 72 162 162 86 16 -11
-2 -2 72 165 168 92 19 -8
-2 -2 73 169 171 96 22 -6
4 3 74 173 174 100 25 -4
10 9 77 175 178 105 28 0
9 10 76 175 179 107 30 1
6 9 72 173 179 108 31 1
8 11 71 172 182 112 34 3
10 14 70 170 183 114 35 4
7 13 68 167 181 113 36 4
7 12 68 162 178 112 36 5
13 14 66 156 173 110 36 6
16 16 63 152 169 109 36 7
13 18 61 151 167 110 40 10
11 19 59 147 163 108 43 12
11 19 56 141 158 107 42 14
12 22 52 136 154 106 44 15
15 28 48 130 149 104 46 18
16 29 43 119 142 101 46 18
11 25 38 109 132 96 44 18
9 24 34 99 121 89 42 18
11 26 32 91 112 85 42 20
12 27 28 81 102 79 39 19
7 23 23 72 91 71 37 18
2 18 18 62 79 61 32 15
0 16 15 57 71 56 30 14
2 17 14 52 64 52 29 14
3 19 13 46 58 48 27 14
5 20 12 39 52 43 25 12
8 20 10 32 44 37 22 10
6 16 6 25 36 31 18 8
1 11 3 19 28 26 15 7
2 12 2 15 22 21 12 5
8 14 3 13 16 15 10 4
10 13 2 9 11 10 7 2
8 14 4 9 9 9 6 2
7 13 3 8 5 6 4 1
9 10 -2 4 2 2 1 -4
10 9 -4 1 -2 0 -2 -6
6 9 -4 -2 -4 -2 -2 -5
-2 5 -4 -4 -6 -4 -2 -5
-8 0 -6 -7 -11 -8 -6 -7
-8 -2 -4 -8 -13 -9 -6 -6
-9 -2 -3 -8 -14 -11 -6 -6
-11 -2 -2 -7 -14 -11 -6 -5
-9 1 0 -6 -13 -10 -7 -5
-6 4 2 -5 -12 -9 -6 -4
-6 3 1 -5 -12 -9 -6 -4
-10 -3 -3 -7 -13 -11 -8 -7
-13 -7 -4 -10 -16 -14 -10 -10
-13 -10 -4 -12 -17 -16 -11 -12
-9 -9 -5 -14 -20 -18 -13 -13
-8 -7 -5 -13 -21 -18 -13 -13
-7 -6 -4 -11 -21 -18 -12 -11
-2 -4 -6 -12 -22 -20 -14 -12
3 0 -5 -10 -21 -19 -14 -12
3 3 -3 -9 -20 -18 -13 -12
1 3 -2 -7 -18 -17 -12 -11
-4 1 0 -8 -18 -16 -13 -11
-9 -2 -2 -9 -19 -17 -13 -11
-10 -2 -3 -10 -18 -17 -11 -11
-5 0 -3 -12 -19 -17 -11 -10
-4 -2 -5 -14 -23 -19 -14 -10
-7 -5 -6 -15 -24 -21 -15 -11
-7 -7 -6 -13 -23 -21 -15 -12
-7 -6 -3 -10 -22 -20 -16 -11
-9 -7 -3 -10 -22 -21 -16 -13
-12 -8 -4 -11 -21 -21 -17 -14
-11 -6 -5 -11 -19 -20 -16 -13
-9 0 -3 -9 -18 -17 -13 -11
-9 1 -3 -10 -19 -18 -12 -12
-8 -2 -4 -11 -20 -18 -13 -12
-3 -2 -4 -13 -22 -19 -14 -13
3 1 -3 -12 -23 -19 -14 -12
4 1 -5 -11 -23 -21 -15 -13
3 2 -4 -10 -22 -20 -15 -12
0 3 0 -7 -20 -19 -12 -10
-5 0 0 -7 -18 -18 -12 -10
-8 -4 -2 -9 -18 -19 -14 -12
-8 -5 -2 -10 -19 -20 -15 -13
-7 -6 -3 -11 -19 -21 -16 -13
-5 -6 -6 -12 -20 -22 -17 -15
-5 -6 -5 -12 -21 -22 -17 -15
-8 -6 -4 -11 -21 -22 -16 -13
-11 -6 -2 -9 -20 -21 -15 -11
-12 -5 -2 -8 -19 -20 -15 -11
-9 -2 1 -6 -17 -20 -14 -11
-7 4 3 -3 -13 -16 -11 -8
-6 6 4 -3 -11 -13 -9 -7
-5 5 2 -4 -11 -13 -9 -8
-2 7 0 -6 -11 -13 -8 -8
3 11 -3 -6 -11 -12 -8 -7
4 12 -3 -5 -11 -12 -8 -6
2 9 -3 -6 -13 -13 -9 -7
-2 7 1 -4 -11 -12 -8 -6
-4 7 3 -3 -11 -12 -8 -6
-8 6 4 -3 -10 -11 -9 -6
-11 8 7 -4 -7 -10 -7 -5
-11 9 8 -3 -6 -10 -7 -6
-10 9 9 0 -5 -10 -7 -7
-9 9 8 1 -5 -9 -6 -6
-6 11 5 1 -4 -8 -5 -5
1 16 4 1 -4 -6 -3 -2
6 20 3 1 -4 -5 -2 0
4 20 4 4 0 -3 1 1
1 17 3 5 0 -2 0 1
3 15 2 4 -2 -3 0 -2
5 15 0 1 -3 -4 -2 -3
2 16 -2 -3 -2 -3 0 -2
1 17 -5 -5 -3 -2 3 0
2 18 -8 -8 -4 -2 4 1
1 18 -11 -10 -3 0 5 3
1 17 -15 -12 -6 -2 4 4
4 18 -17 -14 -10 -5 2 4
7 18 -18 -16 -12 -6 1 4
9 16 -17 -15 -12 -6 -2 3
10 13 -17 -15 -14 -9 -5 0
7 9 -17 -16 -14 -10 -5 -2
2 4 -18 -17 -14 -10 -5 -2
3 3 -19 -17 -13 -10 -4 -2
8 5 -19 -17 -13 -9 -2 1
11 5 -21 -18 -15 -10 -3 2
11 4 -21 -21 -18 -12 -4 1
14 4 -20 -22 -20 -14 -5 1
13 4 -19 -21 -20 -14 -6 2
7 1 -18 -20 -21 -15 -8 1
1 -4 -15 -19 -22 -15 -7 0
0 -7 -14 -20 -22 -17 -8 -3
1 -8 -13 -19 -20 -16 -8 -2
3 -8 -11 -17 -20 -16 -7 -3
3 -9 -9 -16 -19 -15 -6 -3
3 -10 -10 -17 -20 -16 -8 -4
-2 -11 -10 -16 -21 -17 -10 -6
-9 -14 -8 -15 -22 -19 -12 -9
-12 -15 -6 -15 -24 -21 -14 -10
-14 -17 -3 -14 -23 -20 -14 -10
-17 -18 -3 -16 -24 -23 -16 -13
-14 -17 -2 -14 -22 -23 -16 -13
-11 -15 -5 -15 -23 -24 -17 -15
-13 -17 -7 -16 -25 -24 -19 -16
-14 -19 -7 -16 -25 -24 -19 -16
-14 -18 -4 -16 -24 -23 -18 -15
-13 -18 -2 -17 -26 -25 -19 -16
-13 -18 0 -17 -28 -26 -20 -16
-13 -16 0 -16 -27 -26 -20 -16
-13 -16 2 -15 -25 -24 -19 -15
-14 -18 1 -15 -26 -25 -20 -16
-14 -20 -3 -17 -28 -28 -23 -19
-12 -23 -5 -19 -28 -30 -24 -21
-13 -24 -5 -19 -29 -30 -23 -21
-14 -24 -5 -20 -30 -30 -23 -22
-13 -20 -2 -17 -28 -27 -21 -19
-9 -16 2 -14 -26 -26 -19 -17
-8 -15 3 -13 -26 -26 -19 -16
-10 -18 3 -13 -26 -26 -21 -17
-12 -20 1 -13 -28 -27 -22 -19
-13 -22 1 -14 -28 -28 -23 -20
-13 -22 2 -15 -28 -28 -23 -20
-13 -21 2 -15 -28 -27 -23 -20
-12 -20 2 -15 -27 -26 -22 -20
-12 -21 3 -14 -26 -26 -21 -20
-14 -22 4 -14 -26 -26 -21 -19
-15 -22 4 -14 -27 -28 -21 -20
-15 -23 3 -13 -27 -28 -22 -20
-17 -23 3 -12 -26 -27 -21 -19
-19 -23 4 -12 -25 -25 -22 -19
-14 -22 4 -12 -26 -26 -22 -20
-10 -20 7 -10 -24 -25 -21 -19
-11 -20 8 -10 -23 -25 -21 -19
-16 -26 7 -11 -24 -27 -24 -23
-19 -30 10 -5 -20 -27 -27 -26
-17 -29 14 5 -14 -25 -28 -27
-13 -29 16 15 -6 -21 -27 -27
-12 -29 16 25 6 -12 -20 -25
-9 -25 17 42 22 4 -9 -17
-4 -19 21 59 43 27 11 -5
5 -15 21 67 64 55 32 9
16 -15 14 63 79 84 56 22
26 -12 9 46 86 115 86 38
36 -3 5 19 80 149 122 62
51 14 -12 -20 75 194 172 97
71 39 -45 -70 80 265 243 146
97 69 -87 -120 88 342 322 200
121 88 -123 -164 81 387 373 241
135 93 -157 -207 49 376 381 261
137 96 -194 -253 -4 322 356 264
134 101 -227 -296 -63 250 314 257
128 103 -245 -336 -130 159 255 239
113 94 -255 -380 -212 54 179 210
89 78 -262 -434 -309 -61 97 173
57 60 -268 -482 -415 -183 12 131
23 34 -264 -506 -508 -306 -77 81
-8 9 -252 -507 -568 -408 -161 26
-28 -8 -234 -488 -579 -456 -216 -18
-39 -14 -208 -443 -536 -439 -229 -46
-47 -14 -175 -379 -460 -386 -216 -57
-46 -12 -144 -316 -386 -331 -192 -57
-40 -10 -115 -261 -321 -280 -166 -55
-44 -8 -86 -205 -259 -230 -140 -51
-47 -7 -62 -159 -207 -189 -121 -51
-43 -7 -46 -123 -166 -158 -107 -52
-37 -9 -32 -93 -132 -132 -93 -50
-35 -9 -22 -67 -102 -107 -78 -44
-29 -6 -13 -50 -79 -86 -65 -36
-17 -6 -7 -36 -62 -71 -55 -33
-12 -9 -4 -24 -47 -60 -49 -31
-13 -11 0 -15 -34 -50 -43 -30
-17 -14 4 -7 -26 -43 -37 -28
-21 -18 6 -3 -21 -38 -35 -28
-22 -19 9 1 -17 -35 -34 -27
-21 -18 12 6 -14 -31 -32 -25
-21 -16 13 10 -11 -29 -31 -24
-20 -16 13 14 -8 -27 -30 -24
-19 -17 13 15 -7 -25 -29 -25
-17 -15 15 18 -3 -24 -26 -24
-13 -11 17 19 1 -22 -25 -23
-14 -13 16 18 1 -22 -26 -25
-14 -18 14 17 0 -23 -27 -27
-12 -17 15 18 2 -21 -26 -26
-11 -16 16 20 3 -19 -25 -24
-17 -18 15 21 2 -20 -26 -24
-21 -20 16 24 4 -19 -26 -24
-16 -20 19 26 7 -18 -25 -23
-13 -19 19 28 9 -17 -25 -23
-16 -20 18 28 10 -17 -25 -24
-18 -18 19 31 13 -14 -23 -23
-13 -11 23 35 18 -11 -21 -20
-8 -6 25 38 21 -8 -19 -20
-5 -8 24 38 21 -9 -20 -22
-4 -11 22 38 20 -10 -22 -23
-5 -11 23 42 22 -8 -21 -21
-8 -14 25 45 25 -7 -21 -21
-12 -16 27 49 28 -6 -21 -20
-10 -15 28 53 31 -4 -21 -21
-8 -13 29 56 35 -3 -21 -22
-9 -10 31 61 42 2 -18 -20
-11 -9 33 65 47 6 -16 -19
-10 -11 34 67 49 8 -15 -20
-10 -13 34 70 52 8 -15 -20
-11 -15 36 73 56 10 -16 -21
-10 -14 38 77 60 13 -16 -21
-6 -13 42 85 66 17 -13 -20
-4 -11 44 91 71 19 -12 -20
-5 -11 47 99 78 24 -10 -18
-8 -12 48 104 85 26 -9 -19
-9 -13 49 108 91 29 -8 -19
-7 -12 51 113 97 32 -7 -19
-5 -11 55 119 103 37 -5 -18
-6 -12 56 123 107 39 -4 -19
-7 -12 59 129 113 46 -3 -19
-3 -8 62 136 120 51 1 -17
1 -4 66 144 129 57 4 -13
0 -3 69 151 136 61 6 -12
-2 -3 70 156 143 65 7 -12
0 -4 73 160 148 69 10 -12
-3 -4 74 165 155 74 14 -11
-5 -3 75 170 161 80 17 -9
-5 -2 76 173 168 86 20 -7
-4 0 77 175 172 89 22 -7
-6 2 78 179 177 96 26 -3
-4 4 78 183 181 101 29 1
3 4 75 183 182 101 29 0
5 4 74 183 184 103 30 -2
2 7 75 183 186 108 32 1
1 9 76 183 188 110 35 3
4 11 73 181 187 110 35 3
10 14 71 178 187 111 37 4
12 16 69 175 186 112 39 5
10 14 65 171 183 111 39 5
8 13 63 168 180 112 42 7
6 16 63 167 180 114 45 12
6 21 62 163 178 114 48 15
12 25 60 157 174 112 48 16
16 25 55 149 167 109 46 15
14 23 52 143 161 106 46 16
12 24 51 134 154 103 46 17
13 27 49 125 147 101 47 19
14 27 42 115 137 95 45 18
15 26 33 104 127 88 43 17
17 27 28 95 116 82 40 18
18 29 28 88 107 78 40 20
15 29 27 78 97 72 38 20
13 28 23 70 87 65 37 20
16 29 20 64 79 61 36 20
15 28 18 57 72 56 34 19
8 21 12 46 62 48 28 15
2 16 9 38 54 42 25 13
1 16 9 33 48 37 24 13
1 17 8 29 42 32 22 12
1 14 6 23 34 27 19 12
1 11 4 19 27 21 16 10
-2 8 2 14 22 16 12 9
-5 5 0 10 16 11 8 6
-8 3 -3 7 10 8 5 4
-7 4 -3 5 8 6 4 4
-2 9 -3 2 6 4 3 4
4 12 1 2 5 3 5 6
1 9 1 0 3 2 4 5
-6 4 -3 -5 -2 -3 1 3
-5 4 -4 -6 -5 -4 -2 3
0 6 -4 -6 -7 -5 -3 4
3 7 -2 -7 -7 -7 -4 4
7 10 -2 -7 -8 -9 -5 3
8 10 0 -6 -8 -9 -4 4
3 7 -2 -8 -9 -11 -5 2
-3 3 -2 -9 -11 -11 -6 1
-2 5 -2 -9 -11 -10 -5 2
0 5 -4 -11 -12 -11 -7 0
-5 1 -4 -13 -14 -14 -9 -2
-7 -2 -5 -15 -16 -16 -10 -4
-6 0 -3 -14 -16 -14 -8 -2
-4 1 -2 -13 -16 -14 -8 -2
-5 0 -3 -15 -17 -17 -9 -3
-6 -2 -4 -14 -17 -16 -10 -3
-5 0 -3 -14 -17 -16 -9 -3
-4 1 0 -13 -16 -16 -8 -3
-4 1 -2 -15 -16 -17 -9 -3
-4 0 -3 -15 -17 -17 -10 -3
-4 -3 -4 -16 -17 -17 -10 -3
-3 -2 -5 -16 -18 -17 -11 -3
5 4 -4 -14 -17 -16 -10 -2
7 5 -3 -13 -16 -15 -9 1
0 0 -5 -15 -18 -17 -11 0
-8 -4 -5 -15 -18 -18 -12 -3
-6 0 -2 -13 -16 -17 -9 -2
-3 4 -2 -13 -16 -17 -8 0
1 6 -2 -14 -15 -16 -8 0
3 6 0 -13 -15 -16 -9 -2
1 4 0 -13 -16 -16 -10 -3
-8 0 -2 -14 -17 -16 -10 -3
-13 -2 -3 -13 -17 -15 -9 -3
-9 0 1 -10 -15 -14 -7 0
-4 2 1 -11 -16 -16 -9 -2
-3 0 2 -11 -16 -16 -10 -2
0 -2 1 -12 -17 -17 -11 -4
4 -2 0 -14 -18 -18 -12 -6
3 -2 -3 -15 -18 -19 -12 -7
-3 -2 -2 -12 -16 -17 -10 -5
-5 -2 -2 -11 -15 -16 -10 -4
-3 -2 -4 -13 -17 -17 -11 -5
1 -2 -7 -14 -19 -19 -11 -6
-2 -2 -4 -11 -18 -17 -10 -4
-11 -2 1 -8 -15 -14 -8 0
-16 -3 2 -8 -14 -13 -8 1
-14 -4 0 -11 -16 -16 -10 -3
-12 -5 0 -11 -16 -17 -12 -6
-10 -5 -2 -12 -17 -19 -13 -8
-9 -5 -3 -12 -16 -18 -13 -9
-9 -4 -3 -11 -15 -16 -13 -9
-8 0 -2 -11 -15 -15 -13 -8
-3 3 1 -10 -14 -14 -11 -7
3 5 1 -10 -13 -14 -11 -7
0 8 3 -8 -11 -12 -9 -6
-5 7 5 -5 -8 -10 -6 -4
-9 6 5 -4 -6 -9 -5 -3
-9 6 5 -4 -5 -7 -5 -2
-7 7 5 -5 -5 -6 -6 -2
-7 9 4 -6 -7 -7 -6 -3
-7 10 6 -4 -6 -7 -4 1
-7 10 8 -2 -3 -5 -3 2
-8 7 5 -4 -5 -6 -5 0
-7 5 2 -5 -6 -7 -6 -2
3 12 3 0 -3 -4 -3 2
11 19 5 3 1 0 0 4
10 18 4 2 2 0 1 3
5 13 1 0 0 -4 -2 2
2 11 -2 -4 -3 -5 -3 2
2 11 -3 -6 -3 -4 -2 3
4 14 -6 -8 -3 -3 1 4
3 17 -8 -10 -3 0 3 7
1 18 -9 -11 -2 3 6 11
2 17 -11 -12 -3 3 7 12
4 16 -15 -17 -8 -3 4 9
3 13 -18 -21 -12 -6 1 6
4 9 -19 -22 -15 -9 -3 4
9 9 -20 -23 -17 -11 -5 2
12 8 -21 -24 -17 -11 -5 3
11 7 -21 -24 -17 -10 -4 5
11 3 -23 -26 -19 -12 -5 4
8 -2 -23 -25 -19 -12 -4 5
5 -3 -21 -24 -19 -11 -2 6
5 -3 -20 -23 -19 -12 -2 7
7 -3 -21 -25 -21 -15 -4 5
11 -4 -21 -27 -23 -16 -5 4
13 -2 -19 -26 -23 -16 -5 4
12 0 -17 -25 -21 -16 -5 4
9 -2 -17 -25 -21 -15 -5 4
9 -4 -18 -25 -21 -14 -5 3
5 -8 -17 -23 -20 -13 -4 4
1 -9 -16 -24 -22 -15 -6 2
-2 -11 -13 -24 -23 -16 -8 0
-3 -13 -11 -23 -24 -19 -10 -3
-5 -14 -8 -21 -23 -19 -11 -5
-8 -15 -6 -20 -23 -19 -12 -6
-12 -19 -5 -20 -24 -20 -14 -8
-16 -22 -8 -24 -27 -24 -18 -11
-18 -23 -9 -24 -27 -25 -18 -12
-17 -23 -8 -23 -28 -25 -18 -13
-14 -24 -6 -23 -28 -26 -19 -14
-10 -22 -5 -23 -29 -26 -20 -15
-6 -21 -5 -23 -30 -27 -21 -16
-5 -21 -4 -21 -29 -27 -20 -15
-8 -21 0 -19 -26 -25 -18 -13
-10 -20 0 -17 -25 -23 -17 -12
-11 -20 1 -15 -24 -22 -17 -11
-13 -22 -3 -17 -27 -25 -20 -15
-14 -23 -4 -20 -28 -26 -23 -18
-13 -20 -2 -21 -29 -27 -23 -19
-11 -17 2 -19 -27 -26 -21 -17
-10 -15 4 -17 -25 -24 -20 -16
-10 -16 4 -16 -25 -25 -20 -17
-10 -18 3 -17 -27 -26 -20 -17
-12 -21 1 -18 -28 -28 -20 -18
-16 -26 1 -20 -31 -29 -21 -20
-17 -29 -2 -23 -34 -33 -26 -23
-15 -27 0 -22 -33 -33 -26 -22
-14 -23 1 -20 -32 -31 -24 -21
-18 -23 3 -19 -30 -28 -22 -19
-16 -25 3 -19 -31 -30 -23 -20
-7 -25 3 -18 -31 -30 -23 -20
1 -21 4 -18 -31 -29 -23 -20
1 -21 5 -18 -30 -29 -22 -20
-3 -23 3 -18 -30 -29 -22 -21
-7 -24 4 -17 -28 -27 -21 -21
-9 -25 3 -17 -28 -27 -20 -21
-14 -28 4 -16 -26 -26 -20 -21
-17 -31 4 -17 -27 -27 -21 -22
-15 -31 5 -17 -28 -27 -22 -22
-13 -29 9 -14 -26 -28 -22 -23
-16 -30 12 -8 -24 -29 -25 -25
-17 -33 15 1 -20 -29 -29 -29
-15 -33 18 10 -12 -26 -27 -29
-12 -30 17 19 -2 -19 -21 -26
-7 -26 16 32 10 -6 -11 -20
2 -20 19 50 27 14 5 -11
10 -15 20 61 47 37 24 3
19 -15 19 61 66 67 49 16
29 -14 16 47 78 100 79 33
42 -6 12 24 78 131 113 56
55 8 -3 -11 75 174 158 88
73 27 -35 -59 80 238 225 134
98 52 -78 -113 87 311 301 188
121 71 -118 -164 78 351 350 228
134 76 -152 -213 42 336 352 243
138 79 -185 -263 -17 275 319 242
139 88 -218 -312 -83 194 269 232
135 91 -240 -356 -157 98 202 211
119 84 -251 -401 -239 -8 128 180
94 72 -261 -456 -333 -113 51 144
64 57 -274 -511 -438 -223 -27 105
31 33 -276 -540 -530 -336 -106 60
-3 8 -269 -547 -591 -430 -180 10
-26 -8 -253 -530 -604 -472 -227 -31
-35 -9 -224 -485 -563 -453 -237 -55
-40 -8 -190 -421 -490 -405 -224 -66
-49 -11 -158 -356 -418 -352 -201 -67
-53 -15 -128 -295 -348 -297 -173 -62
-51 -15 -97 -235 -283 -246 -147 -58
-47 -14 -69 -183 -226 -203 -126 -57
-41 -13 -50 -140 -181 -170 -109 -57
-35 -12 -34 -104 -143 -140 -95 -54
-28 -8 -20 -74 -109 -112 -77 -47
-20 -5 -11 -54 -85 -91 -62 -40
-19 -11 -5 -40 -68 -76 -54 -38
-19 -18 0 -28 -52 -65 -48 -36
-15 -17 5 -16 -37 -53 -40 -32
-13 -15 10 -7 -27 -43 -33 -29
-13 -16 12 -2 -22 -38 -31 -28
-13 -17 13 3 -19 -36 -30 -29
-11 -18 15 6 -17 -34 -30 -29
-13 -19 18 10 -15 -31 -29 -29
-15 -22 17 12 -13 -31 -30 -30
-14 -22 17 14 -11 -30 -30 -31
-11 -20 18 17 -7 -27 -27 -30
-12 -19 18 18 -3 -25 -24 -28
-16 -20 19 18 1 -22 -23 -26
-18 -21 19 19 0 -21 -22 -27
-17 -23 16 18 -2 -23 -23 -29
-13 -20 18 22 1 -21 -22 -27
-8 -12 23 27 6 -16 -20 -24
-5 -8 27 32 9 -14 -19 -22
-7 -10 27 32 11 -15 -21 -25
-11 -16 27 32 10 -17 -24 -29
-12 -18 26 30 9 -19 -26 -32
-10 -17 25 32 12 -17 -23 -29
-7 -16 25 35 17 -12 -19 -26
-5 -15 24 36 19 -10 -17 -25
-3 -14 24 39 21 -9 -16 -25
-2 -13 26 43 23 -8 -15 -24
-6 -15 29 47 24 -6 -15 -23
-11 -18 31 50 27 -6 -16 -23
-15 -18 33 53 30 -5 -17 -24
-12 -16 36 58 34 -2 -17 -24
0 -12 36 61 37 1 -16 -25
6 -8 36 63 43 3 -15 -25
3 -9 37 65 49 7 -14 -24
-2 -14 36 67 51 7 -14 -24
-3 -16 36 71 53 8 -14 -24
-5 -17 39 76 57 10 -13 -24
-8 -18 43 82 62 12 -13 -24
-9 -17 46 90 67 16 -11 -22
-9 -17 49 95 72 19 -10 -22
-8 -18 51 99 77 22 -10 -23
-5 -17 54 105 85 26 -8 -23
-5 -16 56 110 92 30 -5 -23
-6 -16 60 117 100 37 0 -20
-7 -16 63 123 107 42 4 -19
-7 -13 64 132 112 46 6 -18
-6 -11 65 139 117 50 9 -16
0 -10 65 143 122 53 9 -17
5 -8 68 148 128 56 9 -17
8 -5 73 156 135 61 11 -15
6 -4 77 162 142 66 12 -15
0 -7 78 165 148 71 13 -15
-4 -8 77 169 155 74 14 -15
-3 -6 77 172 160 78 16 -14
1 -4 77 176 165 82 19 -13
6 0 75 178 169 87 21 -11
9 2 77 181 172 91 23 -8
6 2 81 185 176 97 28 -5
3 3 82 189 181 102 33 -2
5 5 82 192 186 106 37 2
9 8 81 192 188 108 39 3
10 11 81 193 190 111 42 5
11 11 79 191 192 112 44 7
10 10 76 187 191 112 44 7
10 12 74 184 189 112 46 8
13 14 72 181 187 112 46 9
17 16 70 177 183 111 45 9
17 16 69 173 179 110 45 10
13 17 68 170 177 110 46 12
13 20 66 165 175 110 48 15
17 23 63 159 170 109 49 17
18 23 59 152 162 105 49 18
21 25 54 143 157 103 50 20
27 30 49 133 150 100 51 21
26 33 46 125 142 97 53 23
21 31 43 117 134 94 54 26
16 29 38 107 123 88 51 27
12 26 33 96 110 80 47 24
9 24 30 88 101 73 45 24
7 24 28 80 95 69 46 25
7 21 25 73 87 64 43 24
9 18 20 62 74 54 35 19
13 17 15 51 63 46 30 15
14 18 13 43 55 40 27 14
11 19 13 39 51 37 25 14
14 22 12 35 45 32 23 14
17 23 11 29 36 26 20 12
11 17 9 24 29 20 15 10
3 13 10 22 25 17 13 9
5 14 11 21 23 16 13 10
8 15 8 18 20 13 13 9
4 11 7 14 15 9 11 7
-5 6 6 10 11 5 9 6
-7 4 6 7 10 5 9 6
-6 6 5 7 9 4 9 7
-5 6 2 4 5 0 6 5
-4 2 -2 0 -2 -6 2 2
0 -4 -3 -4 -7 -10 -4 -2
2 -5 -2 -5 -10 -14 -7 -5
1 -3 2 -5 -11 -14 -7 -5
2 3 4 -3 -9 -11 -5 -3
4 8 5 0 -7 -9 -3 0
4 8 3 -2 -6 -10 -3 0
2 5 1 -4 -7 -10 -4 -3
2 4 -3 -6 -11 -12 -6 -4
3 3 -4 -8 -14 -14 -6 -4
4 1 -6 -10 -16 -17 -8 -5
3 0 -4 -10 -18 -18 -9 -6
0 0 1 -8 -16 -17 -8 -4
-4 0 2 -6 -15 -16 -8 -4
-6 -5 1 -6 -15 -18 -10 -5
-8 -7 1 -8 -16 -20 -12 -8
-6 -3 2 -8 -14 -19 -11 -7
0 4 4 -7 -12 -16 -8 -5
4 5 3 -8 -14 -16 -9 -6
2 2 2 -9 -15 -18 -9 -7
-4 -3 1 -9 -15 -19 -9 -7
-5 -3 1 -8 -16 -19 -9 -7
1 0 2 -7 -17 -18 -8 -5
5 3 3 -6 -17 -18 -8 -5
3 4 7 -5 -14 -16 -6 -2
0 1 7 -5 -14 -16 -7 -3
-2 -4 3 -7 -15 -18 -10 -6
-4 -5 1 -8 -16 -19 -11 -8
-9 -7 0 -8 -15 -18 -10 -8
-13 -11 -4 -10 -18 -21 -11 -9
-12 -10 -3 -11 -18 -21 -11 -8
-6 -3 -2 -11 -18 -20 -10 -7
-2 1 1 -9 -18 -19 -8 -5
0 2 1 -8 -18 -20 -9 -6
1 4 2 -7 -16 -19 -9 -5
0 5 3 -5 -15 -19 -9 -7
-5 3 4 -5 -14 -18 -8 -6
-4 5 3 -8 -14 -18 -9 -6
0 4 3 -8 -14 -18 -9 -7
-3 1 0 -10 -17 -21 -11 -9
-4 -2 0 -10 -18 -23 -13 -9
-3 -3 -3 -10 -19 -23 -14 -10
-6 -6 -4 -8 -20 -24 -15 -11
-7 -6 0 -6 -19 -23 -14 -11
-3 -2 2 -6 -17 -21 -14 -10
-2 1 4 -6 -16 -19 -12 -9
-3 2 5 -6 -13 -17 -11 -8
-3 5 7 -5 -10 -15 -8 -7
-3 7 7 -4 -9 -14 -6 -5
-3 5 6 -4 -10 -14 -5 -5
-3 4 4 -5 -11 -14 -5 -5
-3 6 4 -3 -9 -11 -3 -2
1 8 2 -3 -9 -10 -2 -2
3 9 2 0 -6 -9 -2 0
3 11 4 3 -4 -7 0 1
3 13 8 5 -2 -4 1 2
7 14 9 1 -2 -6 -3 0
10 15 7 -3 -3 -7 -5 -2
9 15 6 -3 -4 -7 -5 -3
5 15 7 -3 -5 -8 -5 -4
4 14 7 -2 -5 -9 -5 -4
4 14 6 0 -5 -7 -3 -2
3 14 4 2 -4 -5 0 1
2 16 6 5 1 -3 3 4
3 16 7 6 4 2 5 6
4 13 5 4 2 0 4 4
2 13 3 3 2 -2 4 4
2 18 4 4 3 1 5 6
3 20 3 2 3 3 7 9
1 20 -2 -3 3 4 9 10
1 24 -4 -3 3 6 13 13
6 27 -7 -4 2 7 14 15
9 24 -13 -7 -3 4 11 14
11 19 -18 -14 -8 -2 6 10
15 17 -20 -17 -12 -5 3 9
17 17 -19 -17 -12 -6 3 9
18 17 -20 -19 -14 -8 2 8
17 16 -19 -19 -15 -8 2 8
14 14 -18 -19 -14 -7 3 8
11 11 -18 -19 -14 -7 3 8
9 8 -19 -20 -15 -8 1 7
10 6 -19 -20 -16 -9 0 6
14 6 -18 -21 -19 -11 -3 5
14 6 -17 -22 -21 -14 -5 4
5 2 -15 -21 -20 -14 -4 6
1 -3 -15 -22 -21 -15 -4 4
3 -3 -15 -22 -21 -15 -4 5
5 -4 -17 -24 -23 -16 -5 4
4 -5 -16 -24 -23 -15 -4 4
4 -4 -13 -21 -20 -13 -2 6
5 -3 -11 -18 -18 -11 0 7
8 1 -9 -17 -19 -12 -3 5
8 3 -6 -14 -19 -14 -5 2
7 2 -4 -13 -19 -15 -7 0
3 -5 -5 -14 -23 -18 -12 -5
-7 -12 -5 -16 -25 -21 -14 -8
-14 -16 -7 -19 -27 -24 -17 -11
-13 -15 -6 -19 -27 -23 -16 -11
-5 -10 -5 -19 -27 -22 -15 -11
0 -6 1 -16 -23 -19 -12 -9
-2 -7 1 -17 -23 -20 -13 -9
-5 -11 -2 -17 -25 -21 -14 -10
-5 -13 -4 -16 -27 -23 -15 -12
-5 -12 -4 -16 -27 -22 -14 -12
-9 -15 -4 -17 -28 -23 -15 -13
-13 -20 -4 -19 -29 -25 -18 -16
-14 -21 -3 -19 -28 -26 -20 -17
-11 -19 -3 -18 -28 -25 -19 -16
-9 -17 -2 -17 -28 -25 -18 -15
-10 -17 -2 -18 -30 -27 -20 -17
-12 -19 1 -18 -29 -27 -20 -17
-8 -19 1 -18 -30 -27 -22 -19
-5 -16 2 -16 -29 -25 -21 -18
-9 -16 5 -13 -27 -23 -18 -16
-13 -20 4 -15 -28 -25 -20 -17
-12 -19 3 -15 -28 -25 -20 -17
-7 -15 3 -15 -28 -24 -19 -17
-5 -14 3 -15 -26 -24 -17 -17
-9 -19 2 -17 -28 -25 -18 -17
-13 -25 1 -19 -30 -27 -20 -20
-15 -27 4 -18 -29 -27 -20 -19
-14 -25 4 -16 -29 -27 -20 -19
-13 -22 5 -15 -30 -27 -21 -19
-11 -20 7 -14 -28 -25 -20 -17
-7 -18 7 -15 -27 -24 -21 -18
-4 -15 8 -13 -26 -23 -19 -18
-4 -14 6 -14 -25 -23 -18 -19
-8 -18 3 -15 -26 -24 -19 -20
-12 -23 0 -17 -28 -27 -22 -24
-13 -26 3 -14 -27 -27 -23 -25
-13 -25 6 -10 -25 -27 -25 -26
-15 -25 11 -3 -20 -25 -26 -26
-13 -25 13 4 -16 -24 -27 -27
-10 -22 14 12 -7 -15 -20 -21
-6 -18 15 26 8 0 -7 -12
2 -13 19 46 26 19 11 0
12 -11 23 63 49 44 31 12
22 -10 23 71 75 80 62 30
32 -7 20 68 96 122 99 53
43 0 16 55 103 161 139 78
59 9 0 25 99 202 186 110
84 29 -33 -22 94 261 253 158
110 56 -70 -75 91 326 327 214
130 75 -105 -122 74 359 372 255
140 84 -133 -165 34 338 370 269
146 90 -162 -213 -24 275 332 264
144 97 -192 -263 -93 191 273 246
129 97 -212 -308 -164 94 199 218
103 90 -221 -352 -246 -12 117 181
75 79 -231 -408 -345 -123 34 141
48 66 -240 -463 -448 -242 -50 97
18 44 -242 -488 -534 -358 -138 44
-15 20 -233 -491 -583 -446 -214 -11
-39 8 -219 -478 -587 -477 -254 -50
-52 5 -198 -441 -545 -452 -258 -72
-57 2 -174 -387 -478 -402 -240 -80
-60 -5 -146 -329 -410 -350 -216 -77
-59 -10 -117 -274 -344 -298 -187 -71
-58 -13 -89 -220 -278 -246 -158 -65
-57 -15 -65 -173 -226 -205 -137 -63
-51 -18 -48 -134 -182 -172 -120 -61
-43 -16 -32 -98 -142 -138 -103 -55
-33 -11 -21 -70 -108 -110 -86 -48
-25 -8 -11 -51 -83 -89 -70 -40
-17 -9 -4 -35 -64 -73 -58 -35
-14 -9 5 -21 -46 -58 -48 -30
-12 -10 10 -12 -32 -46 -38 -26
-11 -11 12 -7 -24 -36 -32 -24
-12 -13 12 -2 -18 -31 -28 -22
-14 -15 11 3 -15 -30 -29 -22
-16 -18 10 4 -16 -31 -31 -26
-14 -18 11 7 -15 -30 -33 -27
-11 -14 13 11 -11 -27 -32 -26
-8 -12 14 13 -7 -24 -29 -25
-7 -14 13 13 -6 -23 -28 -27
-10 -19 13 12 -4 -21 -26 -27
-13 -20 15 12 0 -17 -23 -24
-12 -17 18 16 4 -13 -19 -19
-11 -15 20 18 6 -11 -17 -18
-13 -16 19 19 6 -13 -18 -17
-12 -15 18 22 6 -12 -19 -18
-7 -12 21 27 9 -10 -17 -16
-5 -12 22 28 11 -9 -17 -16
-6 -13 23 30 13 -8 -17 -17
-7 -12 24 32 16 -6 -16 -17
-7 -12 24 33 19 -4 -16 -17
-7 -14 21 31 19 -5 -19 -19
-9 -16 19 31 18 -6 -21 -19
-13 -18 20 33 20 -6 -20 -17
-14 -16 22 35 22 -4 -19 -14
-12 -13 25 40 25 -2 -17 -11
-10 -12 25 44 27 0 -17 -11
-11 -11 27 49 33 3 -15 -10
-10 -8 29 53 39 8 -13 -9
-8 -8 33 58 46 13 -9 -9
-5 -8 32 58 48 13 -10 -12
-2 -9 32 58 49 13 -11 -13
1 -10 32 59 51 13 -12 -14
-4 -13 32 60 54 15 -11 -12
-8 -15 35 64 57 17 -10 -9
-8 -14 38 71 62 21 -8 -7
-7 -13 42 78 67 23 -6 -6
-9 -13 45 86 75 27 -4 -5
-8 -14 47 91 82 30 -3 -6
-5 -12 47 95 88 33 -3 -7
-5 -13 46 98 91 36 -4 -8
-9 -14 47 100 96 40 -3 -8
-11 -15 50 105 103 46 1 -7
-10 -16 51 110 108 50 5 -5
-8 -17 52 115 112 53 7 -2
-6 -16 54 121 117 57 9 0
0 -14 58 128 123 61 10 0
3 -12 64 135 132 66 13 1
1 -11 66 141 139 72 15 1
-3 -10 69 148 146 78 18 2
-4 -8 69 152 152 82 20 4
1 -3 68 154 157 87 22 5
9 3 66 155 161 90 25 7
13 5 65 156 164 94 28 9
11 3 65 157 167 98 31 11
10 2 67 161 170 103 35 16
14 5 69 163 173 106 38 19
14 5 69 165 176 109 42 22
8 5 69 167 179 112 43 24
8 8 70 168 182 115 45 26
15 13 70 167 184 117 47 29
17 15 65 162 182 117 47 30
13 14 61 157 179 117 49 30
11 13 58 154 177 117 51 31
11 15 57 151 173 116 52 32
11 16 56 147 169 114 52 34
11 17 55 143 164 111 52 34
13 18 52 138 158 107 50 34
15 18 49 133 154 106 50 34
14 19 46 126 151 105 51 35
13 23 45 120 147 106 54 38
15 28 44 114 143 105 57 43
15 29 38 105 134 101 57 44
11 23 33 95 123 95 56 45
10 23 30 87 112 88 53 45
11 27 27 81 104 82 52 47
9 26 24 75 96 77 50 46
3 22 20 67 87 69 45 44
1 20 17 58 76 61 38 39
4 22 15 53 70 55 36 36
7 22 13 45 62 49 32 33
5 18 10 35 54 42 28 29
2 14 8 28 46 35 25 28
1 12 7 24 38 32 23 28
3 14 7 21 33 29 22 29
4 16 7 19 29 26 22 29
4 14 5 15 22 20 19 28
2 9 1 9 15 13 13 24
0 7 -2 6 11 10 11 21
-2 7 -2 5 10 10 11 22
-2 8 1 3 10 10 12 22
-3 7 0 0 6 7 9 20
-7 4 0 -2 5 5 8 19
-10 2 -3 -5 1 2 6 18
-11 2 -2 -4 1 1 7 19
-8 4 -2 -4 -2 -2 6 19
-5 4 0 -2 -3 -3 4 18
-3 3 0 -3 -5 -5 2 16
-8 -3 0 -6 -8 -8 -2 13
-14 -8 1 -8 -10 -10 -4 11
-14 -8 2 -8 -9 -10 -4 12
-7 0 3 -6 -7 -8 -2 14
0 6 2 -6 -7 -7 0 15
-3 5 -2 -8 -9 -9 -2 14
-5 1 -6 -10 -13 -13 -5 12
-3 0 -6 -11 -16 -15 -8 9
-2 0 -4 -11 -17 -16 -10 7
-8 -4 1 -10 -16 -17 -11 6
-16 -6 2 -9 -15 -17 -11 5
-16 -4 3 -8 -14 -16 -11 6
-8 2 4 -7 -13 -16 -11 6
-5 3 2 -9 -14 -18 -13 4
-9 0 2 -10 -15 -18 -13 5
-7 0 1 -11 -16 -18 -14 5
-2 3 2 -10 -17 -18 -14 6
-5 2 3 -8 -16 -17 -12 6
-14 -7 1 -8 -16 -18 -13 5
-17 -9 2 -8 -17 -18 -13 6
-12 -5 3 -7 -16 -17 -12 7
-10 -3 5 -6 -15 -16 -10 7
-12 -4 5 -7 -14 -16 -10 7
-13 -5 3 -10 -16 -18 -12 5
-15 -7 1 -11 -16 -19 -12 5
-14 -9 -3 -14 -19 -22 -13 4
-11 -9 -4 -14 -21 -24 -16 1
-8 -6 -3 -13 -21 -24 -16 2
-6 0 0 -10 -18 -21 -12 5
-7 4 3 -6 -14 -17 -9 8
-11 3 3 -5 -13 -16 -8 7
-13 0 4 -5 -13 -16 -8 6
-10 -2 3 -8 -14 -18 -10 5
-11 -4 4 -9 -14 -17 -9 5
-14 -8 5 -8 -12 -15 -7 5
-13 -9 2 -8 -14 -16 -8 4
-13 -9 1 -8 -15 -16 -9 4
-13 -9 0 -7 -15 -17 -10 4
-13 -7 1 -6 -15 -19 -13 2
-12 -6 3 -6 -15 -19 -13 2
-10 -5 5 -6 -14 -16 -12 2
-9 -2 7 -4 -11 -13 -9 5
-7 4 9 -2 -7 -11 -7 7
-6 6 10 -3 -7 -11 -8 6
-9 2 7 -5 -9 -13 -9 4
-12 0 4 -6 -9 -12 -8 5
-10 3 3 -4 -8 -9 -6 6
-7 7 3 -2 -6 -7 -4 7
-5 7 3 1 -5 -7 -3 9
-3 8 4 1 -4 -6 -2 9
-3 9 6 1 -3 -5 0 9
-7 8 6 1 -3 -5 0 8
-10 6 6 1 -2 -4 0 8
-9 6 4 -2 -2 -5 -2 6
-6 7 3 -3 -3 -5 -3 5
1 12 4 -2 -2 -3 -2 7
3 16 6 1 1 0 2 9
-5 16 9 4 3 2 4 11
-8 14 9 6 5 4 5 12
-5 11 7 6 4 3 5 11
-5 8 5 4 4 3 5 10
-8 6 2 2 3 2 5 9
-9 5 0 -2 2 2 5 9
-5 9 -4 -5 1 2 4 9
0 14 -6 -6 1 3 6 11
1 19 -6 -7 2 4 8 12
2 23 -5 -8 2 5 9 15
5 25 -8 -10 -2 5 9 15
11 24 -15 -15 -8 0 6 13
11 21 -19 -17 -11 -4 3 13
5 17 -18 -16 -12 -3 3 13
-3 13 -14 -14 -10 -3 4 13
1 12 -13 -14 -9 -3 5 12
5 11 -13 -16 -10 -4 4 11
5 7 -14 -18 -12 -5 3 9
4 4 -15 -20 -14 -7 2 8
5 4 -15 -20 -15 -8 1 9
6 6 -15 -19 -16 -9 1 9
8 5 -16 -20 -18 -12 0 8
10 4 -17 -20 -21 -14 -4 5
7 2 -15 -19 -20 -13 -4 5
-5 -6 -15 -20 -21 -14 -7 2
-14 -15 -15 -21 -22 -17 -9 -2
-14 -13 -13 -20 -20 -16 -8 0
-6 -5 -11 -19 -18 -13 -4 3
-2 -3 -11 -20 -20 -14 -5 2
-8 -6 -10 -19 -22 -17 -9 -2
-10 -7 -6 -16 -21 -17 -9 -2
-4 -2 -2 -12 -20 -16 -9 -2
-3 -3 2 -10 -19 -15 -8 0
-13 -12 2 -11 -21 -17 -9 -4
-22 -19 0 -14 -24 -20 -12 -8
-21 -19 -3 -16 -25 -22 -13 -10
-17 -20 -5 -19 -27 -24 -16 -12
-15 -20 -6 -21 -28 -25 -17 -14
-10 -18 -2 -19 -28 -25 -17 -13
-8 -17 -2 -18 -29 -26 -19 -13
-14 -20 -2 -19 -30 -27 -21 -15
-17 -20 0 -18 -30 -26 -20 -15
-11 -17 2 -16 -27 -24 -19 -14
-6 -15 1 -16 -28 -25 -21 -15
-6 -16 3 -16 -27 -25 -20 -15
-8 -15 5 -15 -26 -24 -19 -14
-11 -15 4 -15 -25 -24 -18 -14
-16 -20 1 -16 -27 -24 -19 -15
-22 -24 -2 -18 -29 -26 -21 -17
-21 -26 -2 -20 -31 -28 -24 -18
-16 -25 -2 -20 -32 -30 -25 -19
-14 -24 0 -19 -32 -30 -24 -19
-16 -23 3 -16 -29 -28 -22 -17
-15 -22 6 -15 -28 -27 -21 -15
-12 -20 7 -15 -28 -26 -20 -15
-13 -20 6 -16 -28 -26 -20 -15
-15 -22 4 -17 -30 -27 -22 -17
-18 -25 4 -19 -32 -28 -23 -21
-18 -24 4 -19 -32 -29 -23 -24
-17 -23 4 -17 -31 -29 -22 -25
-17 -22 6 -15 -30 -27 -21 -24
-20 -25 7 -14 -29 -27 -21 -24
-20 -28 6 -14 -29 -28 -23 -25
-16 -28 5 -14 -30 -29 -24 -26
-14 -27 5 -14 -30 -28 -24 -26
-18 -28 5 -14 -29 -27 -23 -25
-19 -28 4 -14 -28 -26 -23 -24
-15 -26 4 -14 -28 -26 -24 -25
-13 -26 7 -10 -26 -27 -26 -26
-13 -29 10 -5 -23 -27 -28 -29
-13 -30 13 4 -17 -24 -28 -29
-11 -27 14 10 -9 -18 -23 -27
-8 -23 15 21 6 -4 -13 -20
-7 -20 17 38 23 15 3 -11
-3 -17 21 57 46 40 24 4
7 -17 20 67 69 73 52 20
17 -17 17 64 91 114 88 40
29 -9 12 51 99 152 127 66
46 7 4 30 96 192 172 98
63 29 -19 -7 92 248 236 143
84 59 -55 -55 92 322 317 200
110 88 -91 -100 87 380 386 253
135 105 -121 -139 63 391 412 284
147 115 -150 -179 18 354 397 293
147 121 -178 -221 -36 293 358 286
136 119 -201 -262 -98 212 300 268
113 106 -218 -304 -174 107 219 233
84 89 -225 -352 -264 -8 132 191
52 75 -232 -406 -368 -132 37 143
20 57 -233 -442 -467 -263 -60 90
-12 31 -228 -453 -535 -382 -156 30
-38 11 -213 -446 -562 -451 -225 -22
-54 -2 -195 -424 -546 -460 -254 -60
-60 -9 -172 -378 -490 -421 -248 -77
-57 -11 -146 -324 -424 -368 -227 -79
-53 -13 -119 -275 -360 -316 -200 -74
-53 -16 -93 -226 -298 -265 -172 -69
-49 -14 -69 -178 -239 -218 -147 -65
-39 -10 -49 -136 -192 -180 -127 -60
-34 -11 -33 -102 -154 -149 -109 -56
-29 -12 -23 -76 -121 -123 -94 -51
-21 -9 -13 -54 -93 -98 -77 -41
-18 -9 -7 -37 -72 -79 -64 -35
-22 -16 -3 -27 -57 -67 -56 -33
-26 -22 1 -18 -44 -56 -50 -31
-27 -24 4 -12 -33 -46 -44 -28
-20 -20 5 -8 -26 -39 -39 -26
-14 -16 9 -2 -20 -33 -35 -23
-13 -14 10 3 -17 -29 -33 -21
-14 -14 12 6 -14 -26 -30 -19
-13 -15 13 9 -12 -25 -29 -19
-13 -18 12 10 -11 -24 -30 -21
-16 -20 11 12 -9 -23 -31 -24
-13 -18 13 14 -4 -20 -28 -23
-7 -13 15 17 2 -17 -24 -21
-5 -10 15 17 3 -14 -23 -20
-8 -11 15 17 5 -13 -22 -19
-7 -9 16 16 5 -13 -21 -17
-4 -6 19 20 7 -11 -18 -14
-7 -8 18 22 6 -10 -19 -14
-13 -15 17 23 5 -11 -21 -17
-17 -20 16 23 4 -14 -24 -20
-16 -20 17 26 7 -12 -23 -20
-15 -20 18 28 11 -9 -22 -18
-16 -19 20 29 16 -7 -20 -17
-14 -16 22 31 19 -5 -20 -17
-11 -13 21 32 21 -5 -18 -17
-11 -14 21 34 24 -2 -16 -15
-11 -15 20 35 25 0 -17 -15
-10 -14 21 38 25 1 -17 -15
-10 -13 22 43 27 2 -17 -14
-10 -13 24 46 30 3 -17 -14
-8 -14 28 50 34 7 -15 -15
-7 -15 29 52 39 10 -14 -15
-10 -16 28 52 44 10 -15 -15
-12 -15 27 54 47 12 -14 -15
-9 -12 29 58 51 15 -11 -13
-4 -9 32 62 55 18 -9 -11
0 -8 34 67 58 20 -10 -11
-2 -9 38 73 64 24 -8 -10
-3 -9 38 77 68 25 -8 -10
-4 -10 40 84 74 29 -6 -10
-5 -11 43 90 80 33 -3 -9
-7 -12 45 93 87 36 -2 -9
-8 -14 47 96 93 40 0 -9
-6 -14 49 98 97 45 1 -9
-4 -14 48 100 100 46 2 -10
-4 -15 48 104 105 50 2 -9
-4 -14 51 110 110 54 3 -9
-2 -12 55 117 116 58 6 -8
-3 -12 58 125 122 60 6 -8
-3 -11 61 131 130 65 8 -7
4 -4 65 139 137 72 13 -5
8 1 65 143 144 77 17 -3
3 -4 63 143 148 80 18 -3
-3 -6 62 145 152 85 21 -3
-2 -2 65 149 159 92 27 2
3 4 65 151 162 96 29 5
5 3 64 150 162 99 29 3
7 2 64 152 164 101 31 4
10 4 64 154 168 104 33 7
9 7 65 158 172 109 36 10
5 7 65 159 173 111 40 12
7 8 64 158 173 112 42 12
12 12 62 154 173 113 42 12
15 14 59 151 172 113 43 13
15 15 56 148 171 112 45 15
19 18 55 145 168 112 47 17
23 22 55 143 165 113 49 18
20 24 54 140 162 113 50 21
14 24 52 136 157 112 50 22
13 24 50 132 153 110 49 24
14 25 47 125 147 106 48 23
12 25 44 118 143 105 49 25
8 26 40 111 137 102 50 26
5 26 36 104 130 99 50 28
6 27 30 93 120 93 49 27
7 27 26 84 111 87 47 26
10 27 22 75 101 80 43 25
14 29 20 69 92 73 40 24
15 30 18 64 82 67 38 24
12 27 15 57 74 61 36 23
6 24 13 51 67 57 34 22
3 24 12 45 60 52 32 21
4 23 10 37 52 47 28 19
8 21 6 29 43 39 24 16
11 20 3 23 35 32 22 14
6 16 -2 17 29 27 19 13
-4 9 -3 13 22 21 15 11
-5 8 0 11 18 18 14 11
2 13 1 11 15 16 14 11
3 15 1 11 13 15 12 11
0 11 1 9 10 11 9 9
2 11 2 6 8 8 7 7
7 12 1 3 5 5 6 6
7 8 -2 -3 0 3 4 3
4 5 -5 -7 -5 -2 2 0
3 6 -5 -7 -7 -3 1 0
2 8 -4 -6 -7 -3 1 1
-3 6 -4 -5 -8 -4 0 1
-5 6 -3 -5 -9 -6 0 0
-2 8 0 -4 -8 -6 0 -2
-2 7 -2 -5 -9 -8 -3 -5
-5 3 -2 -7 -11 -10 -5 -7
-9 2 0 -7 -11 -10 -5 -6
-8 0 -2 -10 -13 -11 -7 -7
-5 -3 -5 -14 -17 -14 -9 -10
-5 -2 -7 -15 -18 -15 -10 -9
-6 2 -6 -12 -17 -14 -9 -7
-6 3 -5 -10 -16 -13 -8 -5
-3 4 -5 -10 -18 -15 -10 -7
3 7 -4 -8 -17 -15 -10 -8
4 6 0 -9 -16 -16 -10 -8
1 3 -2 -11 -17 -18 -12 -9
-2 0 -5 -13 -19 -20 -13 -12
0 -2 -6 -15 -20 -20 -13 -12
-3 -2 -6 -15 -20 -18 -11 -10
-5 0 -6 -15 -20 -19 -11 -9
-5 0 -6 -14 -21 -19 -11 -10
-4 0 -6 -14 -22 -19 -12 -11
-3 0 -4 -12 -21 -18 -12 -9
0 3 -2 -10 -20 -17 -13 -10
1 5 0 -9 -18 -16 -12 -10
-2 4 0 -8 -16 -16 -10 -10
-5 2 0 -9 -15 -16 -9 -9
-7 1 -3 -11 -16 -17 -10 -11
-8 -3 -4 -14 -18 -18 -12 -11
-8 -4 -4 -14 -19 -18 -11 -10
-7 -2 -5 -13 -19 -17 -11 -9
-8 1 -4 -10 -18 -16 -10 -7
-5 3 -3 -9 -17 -16 -10 -7
-2 4 1 -7 -16 -16 -9 -7
-5 2 2 -6 -16 -16 -10 -8
-9 -2 1 -8 -17 -18 -12 -10
-6 -3 -2 -11 -19 -20 -15 -13
-4 -3 -2 -12 -19 -20 -16 -13
-7 -6 -3 -12 -19 -20 -16 -13
-8 -5 -4 -12 -18 -20 -16 -12
-2 1 -4 -11 -18 -19 -14 -11
4 6 -2 -10 -17 -17 -11 -9
0 5 1 -8 -16 -18 -12 -9
-6 1 2 -8 -15 -17 -12 -9
-6 3 4 -5 -12 -14 -9 -7
0 9 5 -3 -10 -11 -6 -5
2 13 4 -2 -7 -9 -5 -4
4 15 3 -3 -6 -7 -4 -4
6 16 1 -5 -7 -7 -3 -4
8 17 -2 -6 -8 -7 -4 -4
6 17 -2 -6 -9 -8 -4 -4
3 16 0 -5 -8 -7 -4 -3
-4 14 1 -4 -7 -7 -3 -3
-6 14 2 -4 -6 -7 -4 -3
-2 16 3 -4 -6 -7 -4 -4
3 18 2 -4 -6 -7 -4 -4
0 17 4 -3 -3 -5 -3 -3
-2 18 5 0 0 -2 0 -3
2 19 4 1 1 -2 2 0
0 17 3 0 0 -3 2 0
-5 14 3 2 1 1 3 1
-2 13 2 2 0 2 4 1
3 13 1 3 0 2 5 2
1 13 -2 1 -3 0 3 0
-3 13 -2 0 -2 0 2 -2
0 14 -2 -4 -2 1 3 0
3 19 -2 -5 1 3 6 3
8 24 -5 -8 0 4 8 4
12 28 -9 -11 0 5 10 7
12 28 -12 -14 -4 3 10 9
9 26 -15 -16 -8 1 8 8
10 24 -16 -16 -11 -2 7 8
14 24 -17 -16 -12 -4 6 7
17 22 -16 -14 -12 -5 6 7
15 16 -17 -14 -13 -6 4 5
13 11 -19 -16 -14 -8 2 2
15 12 -19 -18 -14 -7 2 2
18 15 -17 -17 -13 -5 4 3
17 14 -16 -17 -12 -5 5 4
15 12 -18 -19 -15 -6 4 4
16 11 -19 -20 -16 -7 4 5
17 11 -16 -19 -17 -8 4 6
16 9 -14 -18 -18 -9 1 5
11 3 -13 -19 -21 -12 -3 2
8 -2 -12 -19 -21 -13 -4 0
8 -2 -11 -18 -21 -13 -3 -2
8 -2 -10 -19 -21 -14 -5 -2
6 -4 -11 -20 -22 -15 -7 -4
3 -4 -8 -18 -21 -15 -6 -4
4 -3 -6 -16 -20 -15 -7 -5
5 -4 -5 -16 -22 -16 -9 -8
3 -7 -6 -16 -24 -19 -10 -10
-3 -10 -4 -15 -23 -20 -11 -10
-5 -11 0 -15 -24 -21 -13 -11
-6 -12 1 -16 -27 -23 -16 -14
-7 -14 0 -18 -28 -24 -17 -15
-9 -15 -2 -18 -26 -24 -17 -14
-9 -14 0 -17 -25 -22 -15 -13
-8 -12 -2 -18 -25 -24 -15 -13
-8 -14 -3 -19 -27 -25 -16 -14
-9 -17 -2 -19 -29 -26 -17 -14
-12 -17 0 -18 -29 -25 -16 -15
-16 -20 2 -17 -27 -24 -17 -15
-19 -22 0 -17 -30 -26 -19 -18
-18 -23 1 -17 -30 -27 -20 -19
-13 -19 2 -16 -28 -25 -20 -18
-9 -14 2 -15 -27 -25 -19 -18
-4 -13 0 -17 -27 -25 -20 -18
-5 -13 1 -17 -28 -25 -19 -18
-8 -15 2 -17 -28 -25 -19 -18
-10 -18 2 -18 -29 -27 -20 -18
-9 -19 1 -18 -30 -28 -21 -18
-8 -18 2 -17 -30 -28 -21 -18
-8 -17 4 -15 -30 -27 -20 -18
-10 -18 6 -14 -29 -26 -20 -17
-13 -19 7 -14 -28 -25 -20 -17
-14 -23 4 -16 -30 -27 -22 -19
-13 -24 2 -18 -31 -27 -23 -20
-7 -20 1 -18 -30 -27 -22 -19
0 -18 2 -19 -30 -28 -22 -20
-2 -20 2 -19 -31 -28 -23 -20
-10 -22 4 -18 -32 -28 -23 -20
-18 -24 6 -16 -30 -27 -22 -20
-25 -25 7 -14 -28 -25 -21 -19
-23 -23 8 -12 -27 -24 -20 -18
-16 -21 8 -12 -28 -25 -21 -20
-12 -23 9 -12 -28 -28 -25 -24
-12 -25 11 -7 -24 -26 -27 -26
-13 -26 15 3 -15 -23 -25 -25
-13 -25 14 10 -6 -18 -23 -25
-8 -23 14 22 7 -7 -15 -19
3 -16 16 37 24 11 0 -11
14 -6 19 53 45 36 20 4
22 0 19 62 66 66 45 18
29 1 15 58 81 98 72 33
39 4 12 43 87 131 106 54
50 11 3 17 79 163 142 77
61 22 -19 -22 71 209 190 109
76 47 -53 -70 73 278 264 158
96 76 -90 -114 84 358 346 217
115 96 -124 -152 77 402 399 260
132 104 -156 -191 45 393 406 278
144 113 -188 -232 -4 345 382 282
146 119 -216 -272 -58 278 342 276
130 112 -232 -308 -121 191 283 258
104 95 -240 -349 -201 86 206 225
75 77 -246 -401 -299 -35 118 184
50 60 -254 -450 -408 -169 23 136
25 37 -252 -475 -501 -302 -74 79
-3 15 -237 -474 -555 -406 -162 24
-26 0 -219 -455 -563 -454 -219 -22
-37 -6 -194 -412 -521 -436 -232 -50
-39 -7 -164 -355 -451 -385 -219 -60
-38 -7 -134 -300 -382 -331 -195 -60
-38 -7 -103 -245 -315 -279 -166 -55
-38 -7 -76 -193 -254 -230 -142 -52
-40 -7 -58 -152 -206 -192 -126 -53
-41 -10 -43 -117 -166 -160 -111 -53
-37 -11 -29 -89 -133 -133 -96 -50
-30 -8 -20 -67 -103 -108 -80 -43
-21 -5 -13 -49 -79 -86 -65 -34
-15 -7 -8 -35 -63 -70 -56 -30
-14 -12 -3 -25 -49 -60 -50 -28
-13 -14 1 -17 -37 -51 -45 -28
-11 -12 6 -9 -28 -41 -38 -25
-10 -9 10 0 -20 -35 -34 -21
-10 -10 13 3 -16 -32 -32 -20
-12 -13 13 4 -16 -31 -31 -21
-16 -19 9 1 -18 -33 -33 -24
-19 -21 8 2 -16 -32 -32 -23
-14 -18 13 8 -10 -26 -28 -19
-10 -14 15 11 -7 -25 -26 -18
-14 -19 13 10 -7 -25 -27 -19
-18 -21 12 11 -6 -24 -28 -20
-10 -14 15 15 0 -21 -24 -18
0 -9 15 17 2 -19 -22 -17
-8 -14 12 16 2 -19 -23 -18
-17 -19 11 15 0 -20 -26 -19
-17 -18 12 16 1 -19 -25 -18
-14 -14 16 21 6 -16 -22 -16
-17 -14 18 24 9 -13 -21 -14
-21 -18 17 23 9 -14 -23 -16
-18 -22 14 19 7 -18 -27 -20
-12 -23 13 20 7 -19 -28 -22
-8 -20 17 27 11 -14 -25 -20
-7 -16 20 30 14 -12 -23 -18
-7 -13 22 34 19 -9 -21 -14
-5 -8 25 40 23 -5 -19 -12
-2 -4 27 44 27 -4 -17 -10
-4 -7 29 46 30 -3 -16 -10
-9 -12 27 46 30 -2 -18 -12
-11 -15 28 49 34 1 -18 -12
-8 -15 30 52 38 2 -17 -12
-8 -16 30 55 42 5 -16 -12
-7 -17 30 57 45 7 -16 -13
-4 -15 32 63 51 10 -12 -11
2 -9 36 69 56 13 -10 -9
1 -8 42 75 62 17 -8 -6
-2 -10 42 78 65 18 -9 -8
0 -10 43 82 70 19 -9 -9
0 -9 45 88 76 23 -9 -9
-3 -11 46 93 82 26 -8 -10
-3 -10 49 100 90 30 -6 -9
1 -8 50 104 96 34 -4 -8
-2 -9 51 108 101 38 -3 -8
-4 -10 54 112 106 40 -2 -8
0 -7 58 117 112 45 1 -7
1 -7 60 123 117 50 2 -7
-3 -10 60 128 122 52 3 -8
0 -8 62 134 129 56 5 -7
5 -3 67 141 138 64 8 -4
6 -2 68 145 144 68 10 -4
5 -2 70 149 150 73 13 -3
4 0 71 153 156 78 16 -2
3 -2 70 155 159 82 19 -4
2 -3 71 158 163 87 22 -5
3 0 71 161 169 91 25 -4
3 1 72 164 173 96 28 0
3 3 70 167 176 99 31 1
5 5 70 168 178 102 33 3
7 7 68 167 179 105 34 3
6 8 66 167 180 108 36 4
9 10 65 165 182 110 38 6
14 14 64 163 181 111 39 8
13 14 63 160 179 112 43 10
6 12 61 156 177 112 45 11
3 11 58 152 173 110 44 12
7 14 56 148 170 109 44 13
11 20 55 144 165 109 46 16
13 23 54 138 161 107 47 18
13 22 50 132 155 105 46 19
11 22 46 125 149 103 46 19
11 23 40 116 143 100 47 21
13 23 35 107 136 96 46 21
13 23 31 99 127 92 46 21
14 25 29 91 119 87 48 23
16 30 28 84 112 84 48 26
15 32 25 76 102 78 47 26
12 31 23 70 94 73 47 28
10 29 20 62 85 67 44 27
9 27 16 54 75 60 40 25
8 24 11 46 64 52 35 22
6 20 7 36 54 45 30 19
4 16 4 28 46 37 26 16
3 14 3 23 37 32 23 14
4 14 2 18 30 26 20 12
2 12 0 14 24 22 18 10
1 11 -2 10 19 17 16 9
1 11 -2 9 15 14 15 9
2 11 0 7 12 11 13 8
4 7 -3 2 6 6 8 4
7 5 -4 -2 1 2 4 1
6 5 -3 -3 -2 0 3 0
2 5 -3 -3 -3 -2 4 0
-2 3 -6 -6 -5 -5 3 -2
-2 2 -9 -9 -8 -8 2 -4
-3 0 -9 -10 -10 -9 0 -4
-5 -2 -8 -11 -12 -9 -2 -5
-4 -4 -8 -12 -16 -12 -4 -7
-3 -5 -8 -14 -17 -14 -6 -7
-2 -2 -7 -13 -16 -14 -6 -6
-2 1 -7 -12 -15 -13 -4 -5
-7 0 -7 -12 -15 -14 -4 -5
-13 -5 -6 -14 -17 -14 -6 -7
-13 -5 -5 -14 -17 -14 -6 -7
-7 -2 -8 -15 -18 -15 -7 -8
-8 -4 -10 -18 -21 -18 -9 -10
-11 -9 -13 -20 -23 -19 -11 -12
-9 -10 -12 -19 -23 -19 -10 -12
-5 -8 -11 -19 -23 -20 -11 -11
-3 -6 -11 -19 -23 -20 -11 -10
-3 -4 -10 -17 -22 -18 -9 -9
-3 -3 -10 -17 -21 -18 -9 -9
-2 0 -9 -16 -21 -18 -9 -10
0 -2 -10 -17 -23 -19 -10 -12
-2 -3 -10 -19 -23 -20 -11 -12
-3 -2 -9 -19 -22 -20 -10 -11
-4 1 -8 -16 -21 -20 -10 -10
-5 -2 -7 -16 -22 -21 -10 -10
-9 -5 -7 -17 -22 -22 -11 -10
-11 -7 -8 -18 -23 -22 -12 -11
-11 -9 -8 -17 -23 -22 -12 -11
-8 -7 -9 -17 -23 -22 -12 -11
-2 -3 -7 -16 -21 -21 -11 -9
1 -2 -6 -15 -21 -18 -10 -9
-3 -5 -8 -17 -22 -19 -10 -10
-4 -7 -8 -18 -23 -21 -11 -10
-5 -5 -7 -16 -21 -19 -9 -8
-6 -4 -6 -15 -20 -18 -8 -6
-8 -5 -6 -15 -19 -19 -8 -7
-6 -5 -7 -16 -20 -20 -10 -9
-3 -4 -7 -15 -19 -19 -10 -9
-4 -5 -9 -17 -20 -20 -11 -10
-8 -8 -8 -17 -20 -20 -11 -11
-6 -5 -8 -17 -20 -20 -11 -11
-5 -4 -8 -17 -20 -20 -11 -10
-8 -9 -9 -18 -21 -21 -12 -11
-12 -12 -9 -19 -23 -23 -14 -13
-10 -9 -7 -17 -21 -21 -13 -11
-8 -6 -6 -16 -20 -21 -13 -10
-9 -8 -7 -16 -20 -21 -13 -11
-10 -10 -7 -16 -20 -21 -13 -12
-7 -6 -6 -13 -17 -19 -10 -9
-3 0 -4 -11 -15 -15 -8 -8
-3 2 -5 -11 -14 -13 -7 -8
-5 3 -6 -12 -14 -14 -6 -7
-5 6 -6 -11 -13 -12 -4 -5
-5 8 -4 -9 -11 -10 -3 -3
-4 7 -5 -9 -12 -11 -4 -5
-2 7 -4 -10 -11 -11 -5 -5
0 9 -2 -8 -10 -10 -5 -5
-5 8 0 -6 -9 -8 -4 -6
-6 6 -3 -8 -9 -9 -5 -7
-7 6 -2 -8 -8 -9 -4 -6
-12 7 2 -5 -7 -7 -2 -4
-13 7 2 -4 -6 -6 0 -4
-3 9 0 -6 -7 -7 -2 -5
7 14 -3 -6 -7 -7 -2 -4
5 15 -2 -4 -5 -4 2 0
3 14 -2 -2 -3 -4 3 2
5 14 -3 -3 -3 -3 2 1
10 14 -5 -7 -5 -4 0 -3
14 15 -8 -10 -6 -5 0 -3
11 16 -10 -11 -5 -3 3 1
6 17 -12 -12 -5 0 4 3
5 18 -15 -14 -5 0 5 4
3 17 -17 -16 -6 0 7 6
-3 14 -20 -18 -8 -2 7 7
-2 13 -23 -21 -11 -4 6 7
9 14 -24 -24 -15 -8 2 4
14 10 -23 -26 -19 -11 -2 2
11 4 -23 -25 -19 -12 -3 0
9 3 -23 -23 -18 -11 -2 2
8 4 -22 -22 -15 -8 1 3
8 4 -21 -21 -14 -6 3 4
13 2 -22 -24 -16 -9 2 3
14 0 -24 -26 -20 -12 -2 2
9 -4 -23 -25 -21 -12 0 3
7 -4 -23 -23 -21 -12 1 5
12 0 -24 -24 -21 -13 0 4
15 2 -21 -25 -22 -14 -3 3
9 -3 -19 -24 -23 -14 -3 2
1 -11 -20 -25 -25 -16 -5 1
-2 -12 -19 -25 -25 -16 -5 0
1 -10 -17 -23 -23 -14 -3 0
3 -10 -16 -22 -23 -15 -3 -2
3 -11 -15 -23 -24 -16 -6 -4
0 -14 -12 -20 -23 -16 -8 -6
-5 -17 -9 -19 -23 -17 -9 -7
-6 -20 -9 -20 -25 -20 -12 -10
-7 -21 -10 -22 -28 -23 -15 -13
-8 -21 -10 -23 -30 -25 -18 -16
-9 -21 -8 -22 -29 -25 -18 -16
-11 -20 -4 -20 -28 -24 -17 -15
-14 -23 -3 -21 -29 -25 -19 -16
-17 -26 -4 -23 -30 -28 -19 -18
-18 -28 -3 -22 -30 -27 -20 -18
-15 -25 0 -20 -29 -25 -19 -17
-11 -20 4 -17 -26 -23 -16 -15
-9 -17 4 -17 -26 -24 -16 -14
-13 -20 3 -16 -27 -24 -18 -15
-17 -22 3 -17 -27 -24 -19 -17
-13 -20 2 -17 -28 -25 -20 -17
-8 -19 2 -17 -27 -25 -19 -16
-8 -19 0 -18 -28 -25 -19 -16
-11 -20 2 -16 -26 -24 -18 -15
-11 -19 3 -16 -26 -24 -18 -15
-12 -21 3 -17 -28 -25 -19 -16
-13 -27 2 -21 -31 -28 -22 -20
-15 -30 2 -22 -33 -31 -23 -21
-17 -29 4 -21 -32 -29 -22 -19
-14 -24 4 -20 -30 -26 -20 -18
-9 -20 6 -17 -28 -26 -20 -17
-6 -21 5 -17 -29 -26 -20 -18
-10 -25 4 -17 -30 -27 -20 -19
-13 -28 3 -19 -32 -30 -22 -21
-10 -28 3 -20 -31 -30 -23 -21
-8 -25 6 -18 -29 -26 -20 -19
-13 -25 7 -17 -28 -24 -19 -18
-16 -25 7 -16 -27 -25 -19 -16
-14 -25 6 -16 -28 -24 -18 -16
-13 -25 4 -17 -29 -25 -19 -18
-17 -26 5 -16 -27 -25 -19 -18
-17 -28 7 -14 -25 -26 -19 -19
-14 -29 11 -10 -24 -27 -22 -22
-13 -29 15 -2 -19 -26 -24 -25
-13 -31 16 6 -13 -23 -25 -26
-11 -32 13 16 -3 -17 -21 -24
-5 -30 11 27 9 -6 -15 -20
3 -25 15 43 26 13 2 -11
9 -20 20 55 48 39 23 2
16 -17 19 59 68 72 49 17
25 -16 15 50 80 105 78 36
37 -9 10 28 78 137 112 58
52 4 -3 -6 72 175 153 87
69 22 -32 -54 71 232 214 127
92 50 -72 -105 78 309 293 180
111 73 -108 -149 80 370 359 229
126 85 -140 -189 58 381 384 257
135 93 -172 -230 15 344 369 267
140 101 -206 -275 -41 278 330 263
133 99 -232 -318 -108 192 275 246
115 87 -245 -360 -186 88 201 218
92 72 -256 -409 -278 -24 119 180
64 56 -264 -462 -381 -141 36 140
36 35 -267 -496 -481 -268 -52 92
8 13 -256 -504 -552 -381 -138 39
-22 -8 -237 -493 -581 -449 -203 -8
-45 -19 -215 -458 -556 -451 -228 -39
-49 -17 -184 -400 -488 -407 -222 -57
-44 -12 -150 -335 -410 -349 -199 -58
-39 -11 -123 -278 -344 -298 -174 -55
-38 -12 -96 -223 -281 -247 -146 -51
-37 -9 -69 -173 -224 -202 -124 -49
-35 -8 -49 -132 -180 -168 -110 -50
-32 -11 -36 -101 -144 -141 -97 -51
-29 -11 -27 -76 -113 -117 -83 -48
-27 -11 -20 -58 -89 -96 -71 -41
-25 -13 -12 -41 -69 -78 -59 -35
-20 -13 -5 -27 -52 -63 -49 -31
-18 -14 1 -16 -37 -51 -41 -28
-18 -17 3 -12 -30 -45 -39 -29
-16 -20 5 -7 -24 -41 -37 -29
-15 -19 6 -2 -20 -37 -35 -28
-16 -18 8 4 -16 -32 -32 -25
-13 -17 10 9 -13 -29 -29 -23
-9 -14 11 11 -10 -28 -28 -22
-8 -13 12 13 -8 -26 -28 -22
-11 -15 14 14 -6 -25 -27 -23
-13 -19 12 13 -6 -25 -28 -25
-14 -20 11 13 -5 -25 -29 -25
-15 -21 14 16 -3 -22 -26 -24
-15 -21 13 16 0 -22 -25 -24
-13 -21 11 16 0 -22 -26 -24
-11 -21 12 19 1 -20 -25 -23
-12 -21 13 22 3 -18 -24 -23
-13 -21 15 25 7 -17 -23 -22
-13 -20 17 27 10 -14 -22 -21
-15 -20 18 29 10 -14 -22 -22
-16 -19 18 31 13 -13 -21 -21
-14 -17 21 34 17 -10 -20 -19
-13 -16 22 35 19 -8 -18 -19
-13 -16 21 37 21 -7 -17 -19
-13 -18 20 40 23 -6 -18 -19
-11 -19 19 43 23 -7 -20 -21
-9 -17 21 45 25 -7 -20 -21
-7 -16 22 47 28 -7 -20 -22
-10 -19 25 49 30 -5 -21 -22
-13 -22 23 50 31 -5 -22 -25
-13 -22 24 53 35 -3 -22 -25
-8 -20 27 58 42 2 -20 -22
-6 -19 28 62 45 5 -18 -21
-12 -20 29 66 50 7 -17 -20
-18 -21 32 71 55 9 -17 -19
-19 -21 36 78 59 13 -14 -18
-12 -17 40 87 66 18 -11 -17
-3 -10 43 93 73 21 -9 -15
-2 -9 45 98 78 24 -8 -16
-5 -12 47 103 82 27 -8 -18
-3 -12 48 106 88 29 -8 -18
-2 -11 52 111 96 35 -6 -15
-5 -12 54 116 102 39 -5 -15
-8 -15 54 121 108 40 -3 -16
-9 -18 53 127 112 43 -3 -16
-9 -19 54 132 117 48 -2 -16
-9 -19 58 139 123 52 1 -16
-7 -17 59 144 130 55 1 -17
-6 -15 60 150 136 60 2 -16
-8 -13 63 155 143 65 6 -15
-7 -11 65 160 151 70 9 -14
3 -6 65 163 157 75 12 -11
17 3 66 165 160 79 14 -10
20 8 69 171 167 86 19 -7
8 4 68 175 173 91 23 -4
0 1 69 178 177 96 26 -2
4 4 69 180 179 99 28 0
9 8 71 182 183 102 31 3
9 10 72 184 187 107 34 5
9 12 71 183 188 109 36 6
10 13 69 181 188 111 38 7
7 12 67 179 189 112 39 9
5 12 64 176 187 113 40 10
9 11 60 170 184 110 40 9
11 7 57 163 179 107 38 9
8 7 56 160 175 107 38 9
8 11 56 159 174 108 42 12
14 18 54 156 172 108 43 14
18 23 50 151 168 107 43 16
18 24 45 144 161 105 43 17
18 25 42 137 155 103 45 19
17 26 39 127 148 101 45 21
14 25 34 116 139 96 45 21
11 25 29 106 129 90 44 21
10 25 26 98 119 85 43 22
7 25 24 91 111 80 42 22
4 23 20 84 102 74 40 23
8 23 15 74 92 67 36 21
12 24 12 65 82 61 33 19
9 22 9 58 73 55 31 19
2 16 4 49 63 48 28 16
-4 12 2 39 55 42 24 15
-5 12 3 33 49 38 23 15
0 14 1 27 42 32 20 14
7 16 -2 22 34 25 17 13
12 17 -3 19 28 21 14 12
9 16 -5 17 23 18 12 12
6 13 -5 14 18 15 10 11
6 12 -5 10 14 12 8 10
3 10 -5 7 12 8 7 8
-5 6 -8 4 8 5 4 5
-9 4 -9 1 5 2 1 4
-8 2 -8 -4 1 -2 -2 2
-7 -2 -9 -7 -5 -8 -5 -2
-5 -2 -10 -7 -7 -8 -6 -2
1 2 -11 -7 -8 -9 -6 -2
2 2 -11 -7 -9 -10 -7 -2
2 0 -13 -10 -12 -13 -10 -6
-2 -3 -13 -11 -13 -13 -10 -6
-7 -7 -12 -11 -13 -14 -10 -5
-11 -9 -13 -13 -14 -17 -12 -6
-10 -10 -15 -15 -15 -17 -13 -7
-8 -9 -15 -14 -17 -17 -14 -7
-9 -6 -14 -12 -15 -17 -12 -6
-8 -2 -11 -10 -11 -14 -10 -2
-3 1 -13 -10 -14 -15 -10 -3
-4 -2 -14 -11 -16 -17 -11 -4
-10 -4 -11 -12 -15 -17 -11 -3
-10 0 -7 -10 -14 -15 -11 -3
-2 5 -6 -9 -13 -14 -10 -3
2 4 -8 -11 -14 -17 -12 -5
-3 0 -10 -13 -15 -18 -13 -7
-5 -4 -12 -14 -16 -18 -13 -7
-5 -3 -11 -12 -16 -18 -11 -7
-2 -2 -11 -12 -17 -18 -13 -7
2 -2 -10 -11 -17 -18 -14 -7
-3 -3 -11 -12 -18 -19 -14 -7
-9 -6 -11 -13 -19 -21 -15 -8
-6 -7 -10 -12 -19 -20 -15 -8
2 -4 -12 -12 -20 -20 -15 -9
2 -2 -13 -12 -20 -20 -14 -9
0 -5 -14 -14 -20 -21 -15 -9
3 -5 -15 -15 -21 -21 -16 -10
0 0 -14 -11 -18 -19 -13 -7
-5 2 -11 -7 -14 -16 -9 -3
-9 1 -11 -8 -15 -16 -10 -4
-10 -5 -11 -9 -17 -19 -12 -6
-8 -6 -11 -10 -17 -20 -13 -7
-6 -6 -12 -11 -18 -20 -14 -8
-9 -8 -12 -11 -18 -20 -14 -8
-12 -10 -11 -12 -18 -21 -15 -9
-12 -9 -12 -12 -18 -21 -15 -9
-9 -6 -13 -12 -18 -20 -13 -8
-8 -5 -13 -11 -17 -20 -13 -8
-7 -6 -14 -11 -18 -20 -15 -8
-4 -5 -13 -10 -18 -20 -14 -8
-2 0 -11 -9 -17 -20 -13 -7
-5 0 -10 -9 -16 -20 -13 -7
-8 -4 -12 -10 -17 -20 -15 -9
-5 -5 -12 -9 -17 -20 -15 -9
-2 -3 -13 -9 -16 -21 -15 -10
-5 -4 -12 -10 -15 -20 -14 -9
-9 -4 -8 -8 -13 -16 -12 -8
-7 3 -7 -5 -10 -15 -9 -6
-5 5 -6 -3 -8 -13 -8 -4
-7 4 -8 -4 -9 -13 -9 -5
-9 4 -9 -4 -10 -13 -9 -6
-11 4 -9 -3 -7 -12 -7 -4
-10 5 -9 -2 -7 -11 -7 -4
-6 8 -9 0 -5 -9 -6 -3
-5 11 -9 1 -3 -8 -4 -3
-8 9 -11 -3 -4 -9 -5 -3
-9 8 -9 -4 -5 -8 -4 -3
-6 10 -7 -3 -3 -7 -3 -3
-3 11 -6 -2 -3 -7 -3 -2
-2 9 -8 -2 -5 -8 -5 -3
-2 9 -8 0 -5 -7 -4 -2
2 13 -7 3 -2 -5 -2 0
7 15 -8 4 2 -2 0 1
5 14 -9 4 2 0 0 1
0 11 -10 2 1 -2 -2 1
1 10 -11 1 2 -3 -2 1
2 13 -11 1 2 0 1 2
1 16 -14 -3 2 0 2 4
3 19 -17 -6 2 1 4 6
6 21 -19 -8 0 0 3 7
7 21 -23 -11 -4 -2 3 7
6 21 -27 -14 -6 -4 3 7
7 21 -29 -15 -8 -5 2 6
9 16 -30 -19 -13 -9 -3 3
8 9 -33 -23 -16 -13 -7 0
6 5 -34 -24 -17 -13 -8 -2
3 3 -34 -21 -17 -13 -7 -2
1 1 -35 -21 -17 -14 -7 -2
5 1 -34 -21 -15 -12 -5 1
9 4 -33 -18 -14 -10 -2 4
10 5 -30 -17 -15 -10 0 5
11 6 -27 -17 -17 -11 -2 5
11 6 -19 -19 -19 -13 -4 4
9 3 -11 -19 -19 -13 -5 3
5 2 -7 -18 -18 -12 -4 3
3 -2 -10 -20 -19 -14 -5 2
1 -5 -11 -20 -19 -14 -6 1
1 -7 -10 -19 -19 -14 -5 0
4 -8 -10 -19 -20 -16 -8 -3
7 -9 -10 -20 -23 -20 -11 -7
6 -9 -7 -17 -21 -19 -11 -6
-2 -9 -4 -13 -19 -17 -11 -6
-10 -16 -3 -13 -21 -19 -14 -8
-13 -20 -4 -16 -25 -24 -18 -13
-13 -17 -2 -17 -25 -24 -18 -14
-9 -12 1 -16 -23 -22 -16 -13
-5 -11 1 -16 -23 -22 -17 -14
-8 -16 -4 -19 -27 -26 -21 -17
-11 -19 -5 -18 -28 -26 -22 -17
-9 -17 -3 -17 -27 -26 -21 -17
-12 -18 -4 -16 -27 -26 -20 -17
-18 -23 -6 -18 -28 -27 -22 -17
-18 -25 -5 -18 -28 -27 -23 -18
-15 -22 -3 -17 -27 -25 -21 -16
-14 -18 2 -15 -24 -23 -18 -14
-14 -17 4 -14 -23 -23 -18 -14
-13 -20 2 -16 -26 -25 -20 -16
-14 -21 -2 -19 -28 -28 -22 -19
-12 -20 0 -19 -28 -27 -21 -18
-8 -17 2 -17 -27 -26 -20 -17
-7 -16 2 -16 -28 -27 -21 -17
-9 -18 2 -16 -28 -27 -21 -17
-11 -20 2 -16 -28 -28 -21 -17
-15 -24 1 -18 -30 -30 -24 -20
-18 -25 1 -17 -30 -30 -24 -21
-18 -24 2 -17 -29 -28 -22 -20
-18 -24 3 -16 -28 -27 -22 -20
-20 -26 2 -16 -28 -27 -22 -21
-21 -27 3 -14 -27 -27 -21 -19
-20 -26 4 -14 -28 -27 -21 -19
-18 -25 4 -14 -29 -28 -22 -20
-13 -23 4 -15 -28 -27 -21 -19
-8 -19 6 -13 -27 -26 -21 -18
-6 -18 6 -13 -27 -25 -21 -19
-9 -20 5 -13 -26 -25 -21 -19
-13 -24 4 -14 -26 -25 -21 -20
-16 -27 6 -12 -25 -24 -20 -21
-16 -26 9 -9 -24 -25 -21 -23
-16 -28 13 -4 -21 -26 -25 -25
-18 -32 15 5 -17 -26 -27 -28
-17 -33 17 15 -11 -23 -27 -28
-13 -29 20 28 2 -14 -20 -23
-8 -22 21 44 16 1 -9 -17
1 -15 23 59 32 19 7 -9
11 -12 25 68 52 44 26 4
22 -12 20 63 69 72 50 17
31 -11 15 48 78 104 79 33
37 -8 9 23 76 136 112 56
48 5 -8 -16 75 179 158 88
71 29 -43 -68 80 244 225 134
101 58 -85 -122 88 316 300 187
126 77 -122 -168 80 352 345 226
141 85 -155 -214 42 331 344 240
147 91 -189 -263 -16 270 311 239
145 97 -221 -309 -81 188 262 229
136 95 -242 -355 -159 89 194 205
115 81 -255 -404 -246 -19 116 172
87 64 -267 -463 -342 -123 39 135
55 46 -276 -516 -445 -234 -37 96
23 24 -274 -541 -536 -346 -116 50
-8 3 -262 -541 -590 -431 -186 4
-32 -8 -243 -520 -593 -462 -225 -31
-44 -9 -216 -470 -545 -436 -230 -52
-47 -9 -185 -403 -471 -387 -216 -62
-53 -12 -153 -340 -398 -333 -192 -63
-61 -15 -119 -278 -329 -279 -162 -56
-62 -13 -88 -219 -266 -229 -136 -51
-51 -7 -61 -169 -213 -189 -116 -50
-35 -4 -45 -129 -173 -159 -103 -53
-29 -5 -31 -95 -137 -133 -90 -52
-27 -6 -18 -67 -105 -108 -75 -45
-23 -6 -8 -47 -80 -87 -61 -37
-21 -8 -2 -32 -62 -71 -51 -33
-21 -12 4 -21 -48 -60 -44 -31
-17 -13 9 -12 -35 -49 -38 -30
-13 -12 10 -4 -27 -41 -34 -28
-11 -14 12 2 -22 -37 -32 -28
-11 -17 14 5 -20 -36 -32 -29
-12 -18 16 7 -20 -36 -33 -31
-11 -17 19 12 -17 -33 -31 -29
-10 -15 21 17 -12 -30 -29 -28
-9 -12 21 20 -8 -28 -28 -27
-9 -10 22 22 -5 -24 -27 -27
-13 -12 22 22 -3 -22 -25 -27
-16 -14 21 23 1 -20 -24 -27
-15 -14 21 24 3 -18 -23 -26
-14 -17 19 22 1 -20 -25 -28
-16 -20 17 21 -2 -23 -28 -30
-16 -20 18 24 -2 -22 -28 -30
-15 -19 20 28 2 -20 -25 -27
-14 -18 21 31 6 -18 -24 -26
-15 -20 22 32 7 -18 -25 -28
-13 -18 26 35 11 -16 -24 -27
-9 -15 27 37 13 -14 -24 -27
-8 -15 27 39 16 -13 -23 -27
-13 -17 27 39 18 -11 -22 -27
-16 -19 27 42 19 -10 -21 -25
-11 -17 28 46 21 -9 -21 -23
-3 -12 28 49 23 -9 -21 -24
-3 -12 31 53 26 -7 -20 -24
-13 -18 34 57 29 -5 -20 -25
-18 -21 35 58 31 -5 -19 -26
-14 -18 38 63 36 0 -18 -25
-8 -15 38 67 43 3 -17 -25
-4 -12 38 69 47 5 -17 -25
-2 -8 42 73 52 10 -14 -23
-4 -7 44 78 56 13 -11 -23
-9 -12 45 82 58 13 -12 -23
-9 -15 45 87 61 13 -13 -23
-5 -14 47 92 65 15 -13 -22
-7 -16 50 97 70 17 -14 -22
-11 -19 53 103 76 21 -12 -23
-7 -15 55 111 85 27 -9 -21
0 -9 58 117 93 32 -5 -20
-2 -9 60 121 99 36 -3 -21
-7 -12 63 128 105 40 0 -19
-8 -10 64 136 110 44 3 -17
-5 -8 68 143 116 48 5 -15
-5 -9 70 149 122 52 6 -15
-4 -8 74 156 130 56 7 -15
0 -3 78 164 137 62 9 -13
3 -3 80 169 142 65 9 -14
3 -6 80 170 146 67 8 -16
0 -9 79 172 150 69 9 -17
-3 -8 78 175 156 74 12 -16
0 -5 79 180 163 81 16 -14
4 -2 81 185 169 87 20 -11
4 0 82 189 174 91 24 -8
5 3 84 191 177 94 25 -6
11 8 87 194 181 99 28 -3
17 10 86 195 182 101 29 -3
18 10 84 195 184 103 31 -3
18 13 82 195 187 107 35 1
16 15 84 195 191 111 40 5
14 15 80 191 190 113 43 6
16 17 79 189 190 114 44 9
17 20 80 188 189 115 47 11
14 20 79 185 186 114 48 13
13 18 74 179 179 110 47 13
14 18 67 173 173 107 44 12
12 19 65 168 171 108 45 13
11 21 62 161 167 106 45 14
14 23 60 154 161 104 45 15
18 24 55 143 154 99 43 14
18 24 50 133 146 96 43 14
15 24 47 126 139 93 45 16
13 24 44 117 131 91 47 18
16 25 38 107 119 84 45 18
20 26 34 99 110 78 43 18
19 28 31 91 100 72 39 18
14 27 29 82 92 67 38 19
9 25 27 75 85 63 38 19
7 24 25 67 75 57 35 18
5 21 21 57 66 51 31 16
4 19 18 48 58 44 28 14
3 19 16 42 52 39 26 14
1 18 12 35 45 33 22 12
0 13 9 29 35 26 16 9
1 11 7 24 28 20 12 6
3 11 8 22 23 16 11 6
2 10 9 19 20 14 11 6
-2 7 7 16 16 11 8 4
-3 4 3 12 11 6 5 1
1 5 2 7 8 3 4 0
7 8 4 6 6 1 3 0
7 9 5 4 4 0 2 -2
3 8 4 0 -2 -4 -2 -4
0 8 4 -2 -5 -5 -2 -4
0 7 6 1 -5 -4 -2 -3
-2 6 5 1 -6 -6 -3 -5
-2 7 5 1 -6 -7 -4 -6
1 8 3 0 -7 -8 -5 -6
1 6 3 -2 -8 -9 -5 -6
-5 4 4 -3 -8 -10 -5 -6
-10 1 5 -4 -8 -10 -5 -6
-10 -3 3 -6 -10 -12 -7 -8
-10 -6 0 -9 -13 -14 -9 -9
-13 -8 0 -10 -16 -16 -9 -9
-9 -7 2 -8 -16 -15 -9 -8
3 1 3 -6 -15 -15 -9 -8
10 6 5 -4 -13 -15 -8 -8
6 5 3 -6 -14 -17 -10 -10
0 2 0 -7 -15 -17 -11 -12
-4 2 0 -7 -14 -16 -11 -11
-3 3 0 -7 -14 -17 -12 -10
-3 2 -2 -9 -17 -19 -13 -12
-6 0 -2 -9 -17 -19 -12 -12
-10 -4 0 -8 -16 -19 -11 -11
-11 -3 0 -7 -17 -19 -12 -11
-8 1 2 -5 -16 -17 -11 -10
-4 4 5 -4 -14 -15 -9 -8
-2 3 5 -5 -15 -17 -11 -10
-5 -2 3 -7 -17 -18 -12 -12
-9 -5 -2 -9 -17 -20 -14 -13
-12 -8 -2 -10 -17 -20 -14 -14
-11 -8 -3 -11 -19 -21 -16 -15
-12 -6 -4 -11 -21 -22 -16 -15
-10 -3 -3 -9 -19 -19 -12 -11
-2 3 -3 -9 -18 -18 -10 -10
6 7 -2 -7 -16 -16 -10 -9
2 4 -2 -8 -16 -19 -13 -10
-8 -4 -2 -8 -17 -21 -16 -12
-12 -6 -2 -9 -18 -21 -16 -13
-12 -5 0 -9 -16 -19 -14 -13
-10 -3 1 -10 -16 -20 -15 -13
-6 -2 -2 -10 -17 -21 -17 -14
-2 1 -2 -10 -19 -22 -16 -14
-2 4 1 -8 -17 -21 -14 -12
-3 5 3 -5 -15 -19 -12 -10
-5 4 3 -5 -16 -19 -12 -10
-9 -2 3 -5 -16 -19 -12 -10
-8 -4 3 -6 -16 -19 -14 -12
-7 -3 4 -5 -15 -16 -12 -12
-11 -3 4 -5 -13 -15 -11 -12
-13 -4 3 -6 -14 -16 -11 -12
-12 -5 1 -6 -13 -15 -10 -12
-10 -3 2 -4 -12 -13 -8 -10
-6 5 2 -3 -10 -11 -7 -8
0 13 5 1 -8 -8 -4 -4
-3 15 7 4 -4 -6 -2 0
-8 12 8 4 -4 -7 -4 -3
-4 10 8 2 -5 -9 -6 -6
1 11 6 -2 -7 -10 -7 -9
-2 10 4 -3 -7 -10 -7 -9
-4 9 3 -3 -6 -9 -6 -9
0 11 5 -2 -4 -7 -4 -8
2 16 7 2 -2 -4 1 -5
1 17 8 4 0 -3 2 -3
-2 13 7 4 -2 -3 1 -3
0 10 6 2 -2 -3 0 -3
2 11 6 4 1 -2 1 0
0 13 7 7 4 2 4 2
-2 14 6 7 4 2 4 2
3 18 2 2 3 0 2 1
4 20 1 2 3 2 4 1
2 20 0 0 3 4 7 4
6 19 -4 -5 0 3 6 4
11 21 -8 -9 -4 1 4 3
13 26 -10 -10 -5 0 4 4
13 26 -14 -13 -7 -3 3 4
11 21 -16 -15 -10 -7 1 3
7 16 -17 -16 -14 -10 -3 2
5 11 -17 -17 -14 -11 -4 1
5 9 -19 -18 -15 -11 -4 1
6 9 -19 -19 -14 -9 -2 2
7 9 -18 -19 -13 -8 1 4
11 8 -17 -18 -14 -8 1 3
13 7 -18 -18 -16 -9 -2 2
13 7 -17 -18 -17 -10 -2 4
13 8 -17 -19 -18 -11 -3 5
10 5 -17 -20 -21 -14 -5 4
7 3 -17 -20 -20 -14 -7 2
8 3 -16 -19 -20 -14 -8 0
10 2 -16 -19 -20 -14 -7 -2
7 0 -16 -19 -20 -13 -5 -2
3 -4 -16 -21 -20 -13 -5 -4
-3 -7 -14 -21 -22 -15 -7 -5
-4 -8 -11 -22 -23 -18 -10 -8
-2 -8 -7 -18 -22 -17 -10 -8
0 -7 -5 -15 -21 -17 -11 -9
-2 -6 -5 -15 -21 -18 -12 -10
-3 -6 -5 -16 -22 -20 -14 -11
-4 -8 -5 -18 -24 -22 -16 -13
-7 -13 -4 -20 -25 -23 -18 -16
-11 -17 -6 -23 -27 -25 -20 -17
-13 -18 -7 -23 -28 -25 -21 -17
-12 -15 -7 -23 -28 -26 -22 -18
-12 -16 -7 -21 -27 -25 -20 -16
-13 -17 -9 -21 -29 -25 -21 -17
-13 -14 -5 -18 -26 -23 -20 -16
-9 -10 1 -15 -22 -21 -17 -14
-4 -12 1 -17 -24 -24 -19 -16
-2 -15 -4 -21 -28 -27 -23 -20
-9 -18 -3 -21 -28 -27 -22 -18
-19 -21 -2 -20 -26 -24 -20 -17
-19 -22 -2 -21 -26 -25 -21 -18
-9 -18 1 -19 -26 -25 -20 -17
-2 -12 4 -17 -25 -25 -19 -15
-9 -13 5 -14 -24 -22 -17 -12
-17 -18 2 -16 -26 -24 -19 -14
-19 -23 2 -17 -26 -24 -20 -15
-14 -23 2 -18 -29 -27 -23 -18
-10 -19 2 -17 -28 -26 -22 -17
-9 -17 3 -17 -26 -26 -22 -18
-10 -17 2 -18 -27 -27 -23 -19
-11 -19 1 -18 -28 -28 -25 -20
-10 -20 -2 -19 -29 -30 -26 -22
-10 -20 0 -20 -30 -30 -27 -22
-14 -22 1 -20 -31 -30 -28 -23
-22 -25 2 -19 -29 -30 -28 -23
-24 -26 3 -17 -28 -28 -26 -22
-17 -22 4 -14 -26 -25 -23 -20
-8 -16 7 -13 -23 -22 -19 -17
-6 -13 9 -11 -20 -19 -16 -14
-11 -16 8 -12 -21 -20 -17 -16
-16 -22 7 -13 -23 -25 -22 -21
-15 -26 7 -10 -22 -29 -30 -26
-13 -26 10 -3 -18 -29 -34 -29
-14 -25 13 6 -12 -24 -32 -29
-14 -23 12 14 -5 -16 -24 -26
-11 -21 12 26 7 -3 -13 -18
-6 -21 15 44 22 14 4 -10
1 -20 19 60 46 40 26 4
14 -16 19 67 72 78 58 23
32 -7 16 61 92 120 95 47
49 2 9 43 94 156 133 71
66 14 -8 10 90 199 182 105
87 36 -38 -38 89 263 252 154
108 61 -76 -90 88 325 323 207
129 78 -113 -137 67 347 358 241
143 87 -142 -180 24 316 350 253
145 93 -170 -227 -36 252 310 248
133 94 -196 -275 -104 169 252 232
113 90 -215 -319 -178 68 176 201
93 82 -226 -365 -261 -38 94 164
67 74 -236 -424 -358 -145 17 126
37 61 -246 -476 -461 -259 -64 81
8 38 -247 -498 -543 -372 -150 28
-21 17 -240 -501 -590 -454 -223 -25
-45 6 -228 -486 -589 -479 -259 -63
-59 0 -206 -448 -544 -450 -260 -82
-62 -3 -179 -393 -475 -399 -241 -88
-56 -5 -148 -335 -407 -347 -215 -82
-50 -5 -118 -275 -339 -294 -184 -75
-50 -3 -90 -219 -273 -241 -156 -69
-49 -3 -64 -170 -218 -198 -135 -66
-44 -7 -47 -131 -176 -165 -117 -65
-36 -9 -30 -96 -137 -134 -99 -59
-31 -7 -19 -70 -106 -107 -82 -53
-27 -8 -12 -51 -82 -87 -68 -47
-26 -13 -5 -36 -64 -71 -57 -43
-26 -15 0 -25 -49 -59 -50 -40
-26 -15 4 -15 -35 -47 -43 -37
-23 -15 6 -10 -27 -39 -37 -35
-17 -15 8 -5 -22 -34 -35 -33
-12 -14 9 -2 -19 -32 -34 -34
-9 -14 9 3 -16 -29 -32 -33
-11 -13 11 6 -13 -28 -30 -32
-15 -16 13 9 -10 -25 -30 -32
-15 -19 13 9 -11 -27 -33 -37
-10 -15 17 12 -8 -25 -33 -36
-8 -12 18 13 -4 -23 -31 -34
-13 -16 16 12 -3 -22 -29 -33
-17 -18 14 11 -3 -21 -26 -32
-17 -16 18 15 2 -17 -22 -27
-19 -16 19 17 3 -16 -22 -27
-19 -17 19 20 3 -15 -21 -27
-14 -16 19 23 6 -14 -22 -27
-10 -15 20 25 9 -12 -22 -27
-13 -17 20 25 9 -11 -22 -28
-15 -19 20 26 11 -11 -22 -28
-12 -17 22 28 16 -8 -21 -27
-4 -11 21 28 18 -7 -21 -29
0 -10 21 30 20 -5 -18 -28
-6 -12 21 31 21 -4 -18 -27
-11 -14 24 35 24 0 -17 -25
-11 -13 26 38 26 2 -15 -24
-13 -11 28 45 30 4 -12 -22
-15 -12 30 49 34 6 -11 -22
-15 -14 31 52 37 7 -12 -24
-14 -16 31 52 39 7 -14 -27
-16 -18 30 53 42 7 -16 -29
-22 -20 30 55 45 10 -15 -28
-26 -22 31 56 48 12 -13 -28
-25 -21 33 60 51 14 -12 -26
-16 -18 35 64 55 17 -11 -26
-8 -15 37 70 60 20 -10 -27
-5 -12 40 76 65 21 -10 -28
-3 -10 46 85 72 26 -9 -27
4 -5 50 92 78 29 -8 -27
4 -6 53 97 84 32 -6 -27
-7 -14 53 99 89 34 -7 -29
-15 -19 51 101 93 36 -7 -31
-13 -16 51 106 100 42 -3 -29
-6 -10 53 112 107 49 4 -23
-3 -8 54 118 112 54 7 -22
-4 -10 57 123 117 58 9 -21
-3 -10 61 131 125 62 11 -19
2 -6 63 139 133 67 12 -18
4 -4 65 145 139 72 15 -17
3 -4 66 149 145 75 17 -17
2 -4 67 149 149 78 17 -18
2 -5 68 151 153 84 20 -17
3 -3 67 154 158 88 23 -15
3 1 67 157 162 93 26 -13
3 3 68 159 165 97 29 -10
6 5 69 162 170 101 32 -8
10 6 71 167 174 106 38 -5
10 6 70 167 176 109 40 -5
6 6 69 165 177 111 43 -4
6 8 69 165 179 113 45 -3
9 11 68 165 180 115 46 0
9 13 68 167 181 118 48 3
11 19 66 163 180 119 50 6
15 23 64 159 178 119 52 9
15 22 63 155 173 119 53 9
11 19 60 151 168 116 52 9
9 20 58 147 165 115 53 10
10 23 57 145 164 116 55 12
13 25 52 138 158 113 54 12
16 25 45 129 151 107 52 10
15 24 42 120 145 104 51 11
13 24 40 112 138 102 52 12
14 24 35 102 128 95 51 10
14 23 30 94 119 89 48 10
10 22 25 85 108 82 45 9
6 24 23 79 101 79 45 12
11 29 20 73 93 74 43 14
13 29 19 65 82 67 38 12
10 25 17 56 72 60 34 8
8 23 16 50 65 55 33 8
7 24 14 44 58 51 31 8
3 22 12 36 52 46 29 7
0 20 9 30 45 40 27 7
1 21 8 26 42 37 26 8
0 20 7 22 35 33 23 7
-2 17 6 20 28 29 22 5
1 14 3 16 22 23 19 2
3 10 2 11 16 18 16 -2
2 7 1 6 10 12 12 -5
-3 7 1 4 8 9 10 -6
-8 6 1 5 7 9 10 -3
-9 6 0 2 4 8 10 -3
-7 7 0 -3 1 6 9 -4
-3 8 -2 -5 -2 3 6 -5
1 6 -5 -7 -5 0 3 -8
0 3 -6 -9 -9 -4 0 -11
-2 3 -5 -8 -10 -6 -3 -12
1 7 1 -5 -9 -6 -4 -10
2 10 6 -2 -8 -6 -4 -9
-4 8 6 -3 -9 -8 -6 -10
-11 3 3 -5 -10 -9 -7 -12
-14 -2 0 -6 -11 -11 -8 -12
-13 -4 -4 -10 -14 -15 -10 -15
-12 -4 -5 -13 -16 -16 -12 -15
-11 -3 -5 -14 -18 -16 -14 -16
-12 -3 -4 -12 -19 -16 -13 -15
-12 -2 -3 -11 -18 -16 -12 -15
-11 -2 1 -10 -17 -15 -11 -14
-11 0 2 -9 -17 -15 -11 -14
-13 1 3 -6 -15 -14 -10 -13
-12 1 0 -9 -16 -16 -11 -14
-8 2 -3 -11 -16 -15 -10 -14
-8 3 -5 -13 -16 -15 -10 -14
-11 1 -5 -12 -16 -15 -10 -12
-11 -3 -5 -13 -18 -16 -11 -13
-10 -3 -4 -13 -18 -16 -12 -14
-12 -5 -2 -12 -19 -18 -13 -14
-14 -6 1 -10 -19 -19 -14 -14
-13 -3 3 -7 -17 -17 -12 -12
-12 1 3 -8 -17 -17 -12 -12
-10 0 1 -10 -18 -18 -13 -13
-5 0 -3 -12 -19 -18 -14 -14
0 3 -2 -11 -17 -17 -12 -12
1 3 0 -11 -17 -18 -11 -11
-3 1 -3 -13 -20 -19 -13 -12
-5 -2 -2 -12 -20 -19 -14 -13
-6 1 1 -11 -19 -19 -15 -13
-7 2 3 -8 -17 -17 -14 -12
-9 1 3 -6 -16 -17 -13 -13
-9 1 1 -7 -16 -18 -13 -12
-6 2 0 -8 -16 -18 -13 -13
-5 2 0 -9 -15 -17 -12 -13
-5 1 -2 -11 -16 -18 -12 -13
-6 -2 -2 -12 -17 -19 -12 -13
-9 -4 0 -11 -17 -18 -12 -12
-12 -4 0 -8 -16 -16 -11 -11
-9 -3 -2 -8 -16 -17 -11 -12
-7 -2 -2 -7 -16 -17 -11 -12
-10 -4 -2 -8 -15 -17 -11 -12
-13 -7 0 -9 -15 -17 -11 -13
-13 -5 1 -9 -14 -16 -12 -13
-9 1 4 -8 -11 -14 -11 -13
-5 8 5 -6 -9 -11 -8 -11
-2 13 5 -5 -7 -10 -7 -9
0 14 4 -5 -7 -8 -5 -7
0 14 3 -4 -7 -8 -4 -7
-2 13 4 -3 -6 -7 -3 -6
-5 11 6 1 -4 -4 0 -5
-9 10 8 2 -3 -2 2 -4
-10 11 9 3 0 -2 3 -2
-8 14 9 3 2 1 4 0
-9 14 7 1 1 0 3 -2
-13 12 5 0 0 -2 2 -4
-13 12 6 2 1 0 2 -3
-8 13 6 2 2 1 2 -3
-7 13 5 1 1 1 1 -4
-4 14 4 1 -2 -2 -2 -5
5 18 5 3 1 1 -2 -6
8 20 6 6 2 3 2 -4
3 18 5 4 2 3 3 -3
-2 16 3 0 1 3 4 -3
0 17 1 -5 0 3 4 -2
6 19 -4 -8 -2 3 6 2
13 22 -9 -11 -4 3 7 4
15 26 -11 -11 -3 6 10 8
9 26 -14 -11 -2 6 11 10
0 21 -17 -13 -5 3 10 10
-3 18 -17 -14 -10 -2 7 9
3 14 -19 -18 -13 -6 3 5
3 11 -21 -20 -14 -7 2 3
-2 9 -18 -18 -12 -4 4 5
-2 10 -15 -17 -11 -3 5 7
3 12 -15 -17 -12 -4 4 6
5 12 -16 -18 -11 -4 4 6
6 11 -16 -19 -13 -4 3 6
7 9 -16 -19 -15 -5 2 6
7 9 -17 -19 -17 -7 2 5
7 8 -18 -19 -18 -8 1 4
4 4 -17 -20 -20 -10 -2 2
3 1 -14 -20 -20 -12 -3 0
4 0 -13 -19 -18 -13 -4 0
5 1 -13 -18 -18 -12 -3 1
4 2 -13 -17 -18 -12 -3 2
1 -2 -13 -19 -20 -14 -5 1
-3 -6 -12 -20 -23 -17 -9 -4
-6 -9 -9 -19 -24 -17 -11 -7
-7 -12 -6 -16 -23 -17 -12 -9
-5 -13 -7 -16 -25 -20 -16 -13
-4 -11 -5 -16 -25 -20 -16 -14
-5 -8 1 -14 -22 -18 -14 -11
-6 -8 2 -15 -22 -19 -15 -11
-6 -9 1 -17 -24 -20 -16 -13
-9 -11 0 -18 -25 -21 -16 -13
-15 -15 -2 -18 -25 -23 -17 -14
-16 -16 -2 -18 -26 -23 -18 -14
-12 -12 -2 -16 -26 -22 -18 -14
-12 -11 1 -14 -24 -21 -16 -13
-13 -13 1 -14 -26 -21 -17 -14
-13 -14 1 -14 -27 -22 -18 -17
-11 -14 1 -15 -27 -23 -18 -17
-14 -17 1 -16 -27 -24 -19 -16
-17 -19 1 -17 -28 -24 -20 -17
-13 -18 2 -17 -28 -25 -20 -16
-9 -16 2 -18 -27 -25 -19 -16
-8 -18 1 -18 -29 -26 -21 -17
-12 -21 1 -18 -29 -26 -21 -17
-16 -23 3 -17 -29 -26 -22 -18
-16 -22 2 -17 -30 -27 -24 -20
-15 -19 3 -14 -28 -25 -21 -18
-14 -17 6 -10 -24 -24 -20 -17
-14 -19 5 -11 -26 -25 -21 -19
-13 -19 4 -13 -27 -26 -22 -21
-11 -17 5 -14 -26 -26 -22 -20
-9 -17 4 -15 -26 -27 -23 -21
-10 -20 3 -16 -27 -27 -23 -21
-14 -21 2 -15 -28 -27 -23 -20
-18 -22 4 -13 -26 -25 -21 -18
-19 -24 5 -12 -25 -24 -19 -17
-16 -26 6 -12 -25 -23 -18 -17
-15 -27 6 -12 -24 -23 -19 -17
-16 -23 5 -12 -25 -23 -20 -18
-16 -20 4 -13 -25 -24 -22 -19
-16 -20 8 -11 -23 -24 -22 -19
-17 -22 13 -4 -19 -23 -23 -21
-19 -21 16 5 -12 -21 -25 -21
-17 -20 18 12 -6 -18 -23 -21
-14 -20 16 18 3 -10 -18 -18
-11 -17 17 32 18 7 -5 -10
0 -12 18 49 34 25 11 -2
12 -10 18 62 55 51 32 10
22 -10 18 69 81 89 64 27
31 -7 16 63 98 130 103 51
43 1 11 47 101 168 144 77
58 16 -5 18 96 212 197 114
78 43 -34 -26 94 276 270 168
102 73 -73 -75 92 345 349 226
119 94 -109 -118 76 382 399 268
129 103 -138 -157 42 368 404 288
136 109 -165 -200 -11 316 375 288
138 115 -190 -245 -71 244 324 276
129 115 -204 -284 -138 153 256 251
106 107 -211 -323 -216 48 173 214
76 94 -219 -374 -311 -70 85 169
40 74 -229 -426 -416 -199 -13 117
4 47 -229 -451 -504 -328 -112 57
-29 23 -219 -452 -552 -426 -198 0
-54 9 -204 -439 -559 -465 -247 -45
-67 -2 -187 -406 -523 -447 -258 -72
-64 -7 -164 -358 -462 -401 -244 -83
-50 -4 -139 -307 -395 -351 -219 -80
-40 -2 -109 -253 -327 -295 -187 -70
-40 -5 -81 -202 -266 -244 -159 -66
-43 -9 -61 -159 -215 -203 -140 -65
-40 -11 -41 -121 -172 -168 -121 -62
-35 -9 -26 -90 -135 -137 -103 -57
-29 -8 -16 -65 -103 -110 -86 -50
-23 -7 -12 -48 -79 -90 -72 -41
-21 -9 -8 -32 -59 -73 -61 -35
-22 -12 -2 -21 -44 -60 -53 -32
-23 -16 3 -14 -32 -50 -46 -30
-20 -16 5 -10 -25 -41 -40 -28
-15 -14 9 -4 -16 -33 -34 -24
-13 -12 10 1 -11 -29 -30 -21
-13 -13 10 4 -8 -27 -29 -20
-14 -14 12 7 -6 -26 -30 -21
-14 -14 14 10 -4 -26 -31 -22
-13 -13 15 13 0 -25 -30 -21
-12 -11 16 15 3 -22 -27 -20
-11 -10 17 16 5 -20 -24 -20
-10 -10 17 16 7 -18 -23 -20
-10 -11 15 15 7 -18 -23 -21
-13 -15 13 14 7 -18 -23 -22
-16 -18 11 14 6 -19 -24 -23
-15 -17 11 18 8 -16 -23 -21
-14 -17 12 22 10 -15 -23 -21
-13 -16 15 24 11 -15 -24 -22
-9 -12 18 26 15 -13 -24 -22
-7 -10 20 28 18 -11 -23 -22
-9 -12 21 29 20 -10 -24 -22
-13 -13 23 30 23 -7 -21 -20
-16 -12 24 33 28 -3 -17 -17
-16 -12 22 34 29 -2 -17 -17
-11 -13 20 33 27 -4 -19 -18
-6 -12 19 33 26 -4 -20 -19
-8 -12 21 39 30 0 -18 -17
-9 -11 22 45 34 1 -17 -16
-5 -11 24 47 37 2 -17 -17
1 -11 25 49 40 3 -18 -19
2 -11 28 51 45 5 -17 -19
-4 -11 29 53 49 7 -15 -19
-10 -15 29 56 53 11 -13 -18
-12 -18 29 58 56 13 -13 -19
-9 -15 32 63 60 15 -12 -18
-9 -11 36 69 66 19 -9 -16
-12 -12 37 74 70 22 -7 -15
-10 -13 37 78 74 24 -8 -16
-5 -12 39 84 79 27 -8 -17
-4 -11 42 90 86 31 -7 -16
-7 -12 48 97 95 37 -2 -13
-4 -10 49 99 100 39 1 -13
1 -9 49 103 105 44 3 -13
-2 -11 49 107 110 48 4 -12
-6 -13 50 110 114 50 5 -12
-7 -11 53 116 119 54 7 -11
-7 -10 57 123 126 58 10 -9
-5 -10 57 128 130 59 10 -9
1 -7 60 135 136 65 12 -9
5 1 64 142 144 71 16 -7
6 5 67 147 152 78 19 -5
5 4 66 149 157 81 22 -4
6 4 66 150 160 86 23 -5
8 5 67 153 164 92 27 -2
7 5 66 155 168 96 30 1
6 2 64 155 168 97 30 1
8 2 63 156 170 98 31 2
10 3 63 156 171 99 32 2
11 5 63 156 173 102 33 2
11 8 63 157 175 106 36 4
10 11 62 157 177 108 39 7
8 14 61 156 177 111 43 10
7 16 60 152 175 111 44 11
6 15 59 149 173 111 45 13
8 17 57 145 170 110 47 14
15 21 55 141 165 109 47 15
17 23 53 138 161 107 47 16
12 22 53 136 159 106 49 18
10 25 52 131 155 106 51 20
13 27 50 125 151 105 52 21
12 26 44 116 144 100 50 21
10 26 38 108 137 95 49 22
12 27 33 99 128 90 48 22
16 29 27 89 117 85 46 21
18 30 24 79 108 79 45 22
17 31 23 72 100 74 44 23
16 31 21 65 92 69 42 23
14 31 18 59 84 62 39 22
11 27 15 53 75 55 35 20
10 24 13 48 68 50 33 19
10 25 12 40 61 46 31 17
9 25 11 35 56 43 30 19
5 21 7 29 49 36 27 18
2 16 3 23 40 31 24 16
1 12 0 16 32 24 20 13
-4 8 -2 11 24 18 16 11
-7 9 1 12 22 16 15 11
-2 14 4 13 20 14 15 12
7 17 3 10 15 10 11 10
6 13 2 5 10 7 8 7
1 9 1 3 8 5 7 6
1 9 0 1 6 3 6 4
3 9 -2 -3 2 0 4 2
3 7 -3 -5 -2 -3 2 1
-3 4 -5 -6 -5 -5 0 0
-7 0 -4 -7 -6 -7 0 1
-7 0 -2 -6 -7 -8 -2 1
-3 4 0 -6 -8 -9 -3 0
2 6 0 -5 -8 -10 -4 0
0 5 0 -6 -9 -12 -6 -3
-6 2 1 -7 -9 -13 -7 -4
-9 1 0 -9 -9 -13 -7 -5
-8 4 -2 -9 -10 -12 -7 -4
-3 7 -3 -9 -11 -13 -6 -4
3 9 -4 -10 -12 -14 -6 -3
4 8 -6 -13 -15 -16 -8 -4
3 7 -4 -12 -15 -16 -9 -5
1 7 0 -9 -13 -16 -8 -5
-2 5 0 -9 -13 -16 -9 -6
-4 -2 -4 -13 -17 -21 -14 -11
-9 -6 -4 -14 -18 -23 -16 -12
-13 -5 -2 -13 -16 -20 -14 -10
-12 -3 -2 -13 -15 -18 -13 -9
-5 1 -4 -14 -16 -19 -13 -9
4 5 -4 -14 -17 -19 -12 -9
7 5 -3 -13 -17 -19 -12 -9
1 0 -4 -13 -19 -21 -13 -10
-9 -5 -2 -13 -20 -22 -14 -10
-13 -4 1 -11 -18 -20 -13 -8
-13 -2 2 -9 -16 -19 -12 -7
-9 0 2 -8 -14 -18 -11 -6
-2 3 -2 -10 -15 -21 -13 -8
3 2 -4 -12 -17 -21 -14 -9
3 1 -5 -13 -18 -22 -14 -8
0 0 -5 -13 -19 -23 -13 -8
-5 2 -3 -12 -18 -22 -12 -7
-6 6 1 -8 -16 -19 -10 -5
-2 8 2 -6 -15 -18 -9 -4
-2 5 2 -7 -16 -19 -11 -6
-3 2 0 -9 -17 -21 -13 -8
-2 2 0 -10 -16 -20 -12 -7
-3 2 -2 -10 -16 -20 -12 -7
-7 -2 -3 -12 -17 -20 -13 -7
-8 -3 -4 -12 -17 -21 -12 -7
-7 0 -4 -11 -17 -20 -12 -6
-8 -2 -2 -10 -16 -19 -12 -6
-13 -6 -2 -9 -17 -19 -12 -7
-13 -6 -3 -10 -17 -20 -13 -7
-7 0 -3 -9 -15 -19 -13 -7
-2 4 0 -7 -12 -16 -11 -6
-3 7 2 -5 -9 -14 -9 -5
1 13 4 -3 -6 -10 -5 -2
6 20 5 0 -3 -6 0 2
5 19 4 -3 -3 -6 1 2
4 15 0 -7 -6 -9 -2 -2
4 16 -2 -7 -7 -10 -3 -3
2 17 1 -4 -5 -8 -2 0
1 15 1 -4 -6 -8 -3 -2
3 15 3 -4 -5 -7 -2 -2
8 21 7 0 -3 -4 1 1
8 22 8 1 0 -4 2 1
4 15 3 -3 -3 -6 -3 -3
4 12 1 -3 -3 -6 -4 -4
10 20 2 1 0 -4 0 1
12 24 3 2 2 -2 4 3
7 22 2 1 2 0 4 2
7 21 4 4 4 2 5 4
10 23 5 6 5 3 6 5
8 21 2 4 3 1 4 3
5 17 -2 2 2 0 4 2
5 17 -3 -2 2 0 4 4
8 19 -6 -7 0 0 6 5
11 21 -10 -12 -3 -2 5 4
10 21 -14 -14 -5 -2 6 5
7 20 -17 -17 -8 -3 6 6
5 19 -18 -20 -11 -4 6 6
5 18 -18 -19 -13 -6 6 6
10 19 -17 -17 -12 -5 6 7
15 18 -17 -15 -11 -4 6 8
13 13 -17 -17 -13 -6 4 6
6 8 -15 -17 -13 -7 3 5
5 7 -14 -17 -12 -6 4 6
10 9 -12 -16 -11 -5 5 8
15 11 -12 -18 -13 -7 4 8
15 9 -14 -20 -15 -9 2 7
13 3 -17 -21 -18 -10 1 6
12 4 -16 -20 -18 -10 1 4
14 7 -13 -17 -16 -10 1 5
15 6 -11 -16 -17 -11 0 4
12 2 -11 -18 -19 -13 -3 2
9 2 -8 -18 -17 -12 -3 3
8 3 -7 -17 -18 -12 -2 2
4 -2 -8 -19 -21 -15 -5 0
0 -7 -8 -21 -24 -18 -9 -5
-3 -11 -7 -20 -25 -19 -12 -8
-4 -13 -5 -19 -26 -19 -13 -9
0 -11 -6 -18 -27 -21 -14 -11
5 -8 -6 -18 -27 -22 -15 -12
4 -9 -6 -19 -28 -24 -17 -13
0 -11 -4 -19 -28 -25 -17 -14
0 -10 -2 -18 -27 -24 -16 -15
1 -10 1 -18 -27 -23 -16 -15
-2 -14 0 -19 -27 -24 -17 -15
-5 -17 -3 -19 -28 -26 -19 -16
-5 -17 -3 -19 -29 -26 -19 -16
-6 -17 -3 -19 -30 -26 -20 -17
-12 -20 1 -18 -29 -26 -20 -16
-17 -22 3 -18 -29 -26 -20 -17
-19 -21 3 -15 -28 -26 -20 -17
-14 -20 2 -15 -28 -26 -21 -18
-9 -19 2 -15 -28 -27 -21 -18
-7 -20 -2 -18 -30 -28 -23 -21
-11 -21 1 -16 -28 -26 -20 -18
-11 -19 3 -16 -28 -25 -19 -16
-6 -16 4 -16 -29 -26 -19 -16
-3 -18 1 -20 -32 -29 -22 -20
-11 -22 2 -19 -31 -28 -21 -20
-17 -23 4 -17 -30 -26 -20 -19
-15 -22 5 -15 -29 -26 -19 -18
-13 -23 5 -16 -30 -27 -20 -19
-16 -27 4 -17 -31 -28 -22 -22
-18 -27 5 -15 -30 -27 -22 -23
-15 -22 7 -14 -28 -26 -19 -22
-12 -20 11 -13 -26 -24 -18 -18
-9 -20 10 -15 -27 -25 -19 -20
-8 -20 8 -14 -28 -25 -19 -20
-9 -20 7 -13 -27 -24 -18 -18
-10 -22 6 -15 -28 -25 -19 -19
-12 -26 4 -16 -31 -28 -22 -23
-13 -26 6 -16 -30 -28 -22 -24
-12 -26 7 -15 -29 -28 -24 -25
-11 -25 11 -12 -27 -27 -24 -26
-12 -25 16 -5 -20 -25 -25 -27
-13 -26 19 7 -11 -21 -24 -27
-8 -24 20 17 1 -13 -20 -25
3 -18 20 30 16 1 -11 -19
7 -13 21 46 33 20 5 -9
6 -16 20 57 51 43 23 2
12 -17 20 60 69 71 46 14
27 -10 19 55 85 107 77 33
39 0 16 39 88 141 114 56
48 8 5 11 80 178 154 82
60 22 -21 -31 74 229 211 119
82 51 -60 -80 78 303 287 172
109 81 -99 -123 85 375 363 227
128 98 -133 -162 70 401 402 263
139 105 -162 -202 32 377 399 277
144 113 -190 -242 -16 323 370 278
139 115 -215 -279 -74 250 323 268
127 104 -231 -320 -148 150 253 239
103 84 -240 -368 -234 36 168 201
72 67 -248 -421 -337 -85 79 159
44 50 -253 -463 -442 -216 -13 111
17 25 -248 -480 -525 -343 -109 54
-12 5 -234 -477 -568 -432 -189 1
-33 -3 -211 -448 -557 -453 -228 -36
-49 -6 -179 -397 -498 -419 -228 -57
-54 -10 -149 -339 -428 -366 -213 -65
-48 -11 -123 -284 -363 -315 -189 -64
-39 -8 -96 -231 -299 -263 -160 -59
-39 -5 -68 -181 -238 -215 -135 -56
-38 -7 -50 -140 -191 -178 -118 -56
-30 -11 -38 -109 -157 -151 -107 -58
-26 -12 -28 -82 -124 -126 -93 -55
-27 -11 -19 -61 -97 -101 -77 -47
-29 -10 -10 -45 -75 -80 -63 -38
-27 -12 -3 -31 -58 -65 -53 -34
-20 -13 3 -20 -44 -54 -47 -32
-14 -15 7 -12 -33 -46 -41 -32
-13 -16 10 -5 -27 -39 -37 -30
-14 -16 13 1 -19 -33 -33 -27
-13 -16 16 6 -16 -30 -30 -26
-11 -18 15 7 -16 -29 -31 -27
-10 -19 14 7 -14 -29 -31 -28
-10 -16 15 10 -10 -26 -29 -26
-9 -12 18 13 -7 -22 -26 -24
-9 -11 19 17 -3 -20 -24 -23
-10 -13 16 15 -3 -21 -25 -25
-11 -17 15 14 -4 -22 -27 -27
-13 -18 16 15 -3 -22 -27 -27
-17 -19 16 17 -2 -21 -26 -27
-19 -21 14 17 -3 -21 -27 -27
-17 -22 14 18 -3 -20 -28 -28
-17 -20 16 20 1 -18 -27 -29
-16 -18 20 25 6 -14 -24 -27
-11 -14 22 28 10 -12 -23 -25
-4 -11 21 29 11 -12 -24 -26
-2 -9 22 30 14 -10 -23 -26
-3 -11 21 29 15 -11 -24 -27
-5 -13 21 29 15 -11 -25 -27
-7 -14 24 33 18 -8 -22 -24
-11 -13 27 38 22 -4 -19 -21
-12 -12 30 43 26 -2 -18 -20
-9 -12 30 44 27 0 -18 -20
-7 -13 30 46 28 0 -19 -21
-11 -17 30 49 31 1 -19 -22
-12 -16 31 53 36 4 -18 -22
-7 -12 33 57 42 7 -17 -22
-4 -11 34 60 45 8 -17 -23
-6 -14 35 63 49 9 -18 -24
-11 -19 34 65 51 9 -19 -25
-14 -21 31 66 52 9 -20 -27
-13 -20 34 73 58 14 -17 -25
-7 -15 39 81 66 20 -13 -21
-3 -9 45 88 72 24 -11 -21
0 -7 49 92 78 28 -10 -21
1 -9 50 97 82 30 -9 -22
0 -10 51 102 90 33 -8 -21
-4 -9 55 109 98 38 -5 -19
-7 -10 58 114 104 42 -3 -18
-6 -11 60 119 109 46 -2 -18
1 -9 61 125 114 50 0 -18
2 -8 63 130 119 54 2 -17
-6 -11 64 135 125 57 3 -17
-11 -12 66 140 131 61 4 -16
-10 -11 67 145 137 65 5 -16
-9 -10 69 149 143 70 8 -15
-6 -8 71 151 148 73 9 -14
1 -4 74 156 154 79 13 -12
7 1 75 160 160 85 17 -10
8 3 74 163 165 89 20 -8
3 2 75 167 170 95 23 -5
2 4 75 170 173 100 26 -3
6 9 74 172 176 104 29 0
11 11 75 173 179 107 31 3
11 11 74 172 179 108 32 4
9 12 72 171 180 109 34 3
5 14 72 171 182 112 36 6
2 15 71 169 182 114 38 8
2 16 70 168 182 116 42 11
5 20 68 165 180 117 45 13
6 21 65 161 176 115 45 15
6 18 61 154 170 112 43 15
7 16 57 147 163 109 42 14
8 19 56 142 159 107 43 15
11 23 54 136 154 105 44 16
13 23 49 127 147 102 43 15
14 24 44 118 140 98 43 15
15 28 42 112 135 97 44 18
16 29 36 105 127 93 44 20
13 27 30 95 116 86 42 20
13 25 26 84 105 78 38 19
15 26 24 75 95 72 35 18
14 24 21 67 85 66 33 16
8 23 20 61 78 62 33 17
4 24 19 56 71 59 33 18
5 22 14 49 62 51 29 15
6 20 10 40 52 43 24 12
5 18 9 35 45 38 23 12
1 16 9 30 38 34 22 12
-4 14 8 25 32 30 19 10
-3 13 6 19 26 24 14 8
1 12 3 15 20 20 11 5
2 11 0 12 14 14 9 2
2 11 0 10 11 11 8 2
4 13 1 8 8 9 7 2
2 13 2 6 5 8 6 2
-3 10 1 2 2 4 3 1
-4 7 1 0 -2 2 2 0
-4 5 -2 -4 -5 -2 0 -3
-7 4 0 -3 -5 -3 0 -3
-9 3 0 -3 -7 -4 -2 -2
-9 1 -3 -6 -11 -7 -4 -4
-8 -2 -3 -8 -13 -9 -6 -6
-5 0 -2 -8 -14 -10 -7 -6
-5 2 2 -6 -13 -10 -6 -5
-8 0 1 -8 -15 -12 -7 -6
-9 -3 -2 -9 -16 -13 -8 -7
-7 -2 -2 -10 -16 -13 -9 -8
-10 -4 -2 -10 -16 -14 -9 -9
-14 -9 -3 -11 -18 -16 -10 -10
-15 -8 -3 -9 -19 -16 -10 -9
-10 -2 -2 -8 -18 -15 -9 -7
-6 1 -2 -8 -19 -15 -9 -7
-6 1 -2 -10 -20 -17 -11 -8
-4 2 -2 -11 -21 -18 -12 -9
-2 1 0 -12 -21 -18 -13 -10
-4 -5 -2 -13 -22 -19 -14 -12
-6 -7 0 -12 -22 -19 -13 -12
-3 -3 0 -12 -22 -18 -13 -11
0 1 1 -10 -20 -17 -11 -9
-3 -2 1 -9 -20 -17 -12 -9
-4 -4 0 -10 -22 -18 -13 -10
-3 -6 -2 -11 -23 -19 -14 -11
-7 -7 -2 -11 -22 -19 -14 -11
-12 -8 -2 -9 -21 -19 -13 -12
-12 -5 -2 -9 -20 -18 -13 -11
-11 -3 -3 -9 -19 -18 -13 -10
-13 -5 -4 -12 -20 -19 -14 -10
-17 -10 -4 -13 -22 -20 -15 -11
-15 -11 -5 -15 -23 -22 -16 -13
-13 -9 -3 -13 -22 -20 -14 -11
-11 -4 1 -11 -22 -19 -12 -8
-10 0 3 -9 -20 -17 -11 -7
-7 1 2 -8 -19 -17 -12 -7
-2 2 0 -9 -20 -18 -13 -9
1 2 -3 -10 -21 -20 -13 -10
-2 1 -3 -11 -21 -20 -14 -11
-2 2 -3 -11 -21 -20 -15 -11
-7 0 -3 -9 -20 -20 -14 -11
-15 -7 -3 -10 -20 -20 -14 -11
-16 -10 -2 -10 -21 -20 -14 -11
-13 -8 0 -9 -21 -19 -13 -9
-11 -6 1 -8 -20 -19 -12 -8
-10 -4 3 -7 -18 -18 -12 -8
-9 0 5 -5 -16 -16 -11 -6
-9 -3 1 -7 -17 -17 -12 -9
-11 -5 0 -8 -17 -18 -12 -10
-10 -3 1 -6 -14 -16 -11 -9
-10 3 2 -5 -12 -13 -8 -7
-12 5 2 -5 -11 -11 -6 -5
-13 7 4 -4 -10 -10 -4 -4
-13 9 4 -2 -9 -9 -4 -2
-11 10 4 0 -8 -8 -3 0
-7 11 4 -2 -8 -9 -4 -2
-4 11 6 -2 -7 -8 -5 -2
-6 12 7 0 -6 -8 -5 -3
-8 12 6 -3 -7 -9 -6 -4
-7 13 7 -2 -6 -8 -5 -4
-5 12 4 -2 -7 -8 -5 -4
-3 10 1 -2 -7 -9 -5 -4
-2 10 1 -3 -8 -8 -5 -3
-7 10 4 1 -6 -5 -2 1
-9 11 6 3 -4 -4 0 2
-5 11 5 4 -3 -3 0 2
1 12 1 1 -5 -4 -3 0
1 14 1 1 -4 -3 0 2
-4 16 2 2 -2 0 4 5
-8 16 0 -2 -2 1 6 6
-5 16 -5 -6 -5 0 5 6
1 20 -9 -8 -4 0 6 7
4 24 -11 -8 -3 2 9 10
6 24 -13 -9 -4 2 9 12
10 23 -16 -14 -10 -4 5 9
10 17 -17 -16 -14 -8 1 6
3 10 -16 -16 -15 -9 0 6
-3 7 -18 -16 -15 -10 -2 5
2 7 -19 -18 -16 -11 -3 5
6 5 -20 -19 -17 -13 -5 2
4 1 -21 -20 -17 -13 -6 1
1 -2 -20 -19 -17 -12 -5 2
5 1 -18 -19 -18 -12 -4 4
10 5 -16 -18 -19 -13 -3 5
11 5 -17 -19 -20 -14 -4 4
9 1 -18 -21 -22 -17 -7 2
8 0 -17 -22 -24 -19 -10 0
6 1 -15 -19 -23 -18 -8 1
3 -2 -15 -18 -22 -18 -8 1
0 -5 -14 -18 -22 -18 -9 1
-5 -9 -12 -18 -23 -18 -9 0
-12 -12 -12 -19 -24 -20 -10 -4
-14 -15 -12 -18 -24 -20 -12 -5
-13 -14 -10 -17 -24 -20 -12 -6
-11 -13 -8 -15 -24 -21 -11 -6
-10 -12 -4 -14 -23 -21 -12 -6
-9 -11 -3 -14 -24 -22 -14 -7
-9 -12 -2 -14 -25 -23 -15 -8
-13 -14 -2 -15 -25 -24 -15 -9
-18 -17 -4 -16 -26 -25 -16 -11
-19 -20 -4 -15 -26 -24 -15 -11
-17 -20 -6 -17 -27 -26 -17 -13
-16 -20 -5 -17 -27 -26 -18 -14
-16 -20 -3 -17 -27 -25 -17 -14
-14 -17 1 -15 -26 -24 -15 -11
-10 -13 1 -15 -27 -25 -17 -11
-9 -14 1 -15 -28 -26 -19 -12
-9 -15 -2 -16 -28 -28 -21 -15
-9 -17 -2 -17 -28 -28 -22 -17
-13 -21 -4 -17 -29 -29 -24 -18
-17 -24 -3 -17 -29 -29 -23 -18
-16 -24 1 -16 -28 -28 -21 -16
-13 -21 2 -16 -28 -28 -21 -16
-13 -20 1 -15 -29 -28 -21 -17
-13 -21 1 -16 -31 -31 -24 -19
-14 -21 0 -17 -32 -31 -26 -20
-19 -22 3 -14 -30 -28 -23 -18
-24 -22 5 -12 -28 -27 -21 -16
-24 -23 4 -13 -28 -29 -23 -18
-20 -23 3 -13 -28 -29 -23 -18
-16 -20 2 -13 -27 -28 -22 -17
-18 -21 3 -14 -27 -28 -21 -16
-20 -25 3 -15 -29 -29 -23 -18
-18 -26 3 -16 -31 -31 -25 -20
-17 -25 4 -14 -30 -29 -23 -19
-16 -23 4 -14 -28 -28 -23 -18
-15 -21 6 -13 -27 -25 -21 -18
-14 -20 7 -12 -26 -25 -21 -17
-14 -21 4 -13 -28 -27 -24 -19
-15 -26 4 -11 -27 -30 -28 -23
-15 -29 8 -5 -23 -30 -29 -26
-14 -29 14 7 -14 -26 -28 -25
-13 -27 17 18 -3 -19 -24 -22
-9 -23 18 33 12 -5 -15 -16
-6 -18 18 49 28 13 0 -9
0 -15 18 60 48 34 16 2
12 -12 17 64 65 61 36 12
24 -10 13 57 79 91 63 26
28 -9 7 39 81 122 95 46
34 -3 -2 12 75 157 133 70
51 15 -23 -30 72 207 187 106
72 42 -59 -81 78 281 264 158
94 66 -100 -128 85 354 338 212
113 80 -134 -169 71 384 378 245
127 86 -163 -211 33 359 375 260
137 96 -196 -256 -20 301 343 261
141 106 -225 -298 -81 222 294 250
129 102 -241 -337 -154 125 227 227
98 81 -252 -385 -241 14 147 192
64 62 -261 -440 -343 -102 64 152
38 46 -265 -483 -447 -224 -22 107
11 24 -258 -499 -529 -344 -110 56
-19 0 -245 -497 -576 -434 -188 3
-38 -15 -228 -474 -573 -463 -230 -37
-46 -16 -199 -422 -517 -429 -232 -58
-49 -13 -168 -359 -440 -372 -214 -64
-50 -13 -137 -300 -369 -318 -187 -61
-45 -13 -107 -242 -305 -266 -158 -56
-40 -10 -79 -190 -245 -219 -136 -54
-39 -7 -57 -147 -196 -181 -118 -54
-37 -8 -40 -111 -157 -150 -104 -54
-33 -8 -27 -82 -123 -123 -90 -52
-31 -7 -18 -60 -96 -101 -75 -46
-31 -11 -12 -44 -75 -83 -64 -40
-30 -18 -7 -32 -59 -71 -56 -38
-28 -20 -3 -21 -46 -60 -50 -37
-28 -20 3 -11 -34 -48 -44 -34
-29 -20 8 -3 -25 -38 -36 -31
-25 -18 10 3 -19 -34 -33 -29
-17 -18 10 5 -18 -33 -34 -30
-13 -18 12 9 -15 -29 -32 -30
-13 -17 13 12 -12 -28 -31 -31
-13 -17 14 14 -9 -26 -30 -30
-15 -18 16 17 -6 -24 -28 -30
-17 -20 14 17 -5 -24 -30 -31
-17 -23 12 14 -6 -25 -33 -33
-17 -24 11 14 -6 -24 -33 -34
-16 -22 13 16 -4 -23 -30 -33
-11 -19 14 18 0 -21 -28 -31
-7 -14 16 22 3 -19 -26 -30
-8 -11 19 28 7 -15 -23 -26
-13 -12 21 32 11 -13 -21 -25
-17 -15 20 31 11 -13 -21 -26
-15 -16 20 31 10 -13 -24 -30
-13 -17 20 29 11 -14 -25 -31
-14 -18 21 31 14 -12 -24 -29
-12 -15 21 33 16 -10 -23 -30
-6 -11 22 36 20 -8 -21 -28
-5 -9 22 39 22 -8 -21 -27
-12 -12 25 43 24 -5 -20 -26
-19 -15 28 47 27 -3 -19 -26
-19 -15 30 50 29 -2 -19 -26
-14 -14 32 53 31 0 -19 -27
-8 -14 31 54 32 0 -21 -29
-7 -16 30 56 35 0 -22 -31
-11 -20 30 58 40 2 -21 -32
-16 -24 29 59 42 2 -22 -34
-17 -24 30 62 45 4 -21 -34
-13 -18 36 70 54 11 -16 -29
-9 -12 38 77 60 15 -13 -28
-8 -14 39 82 64 17 -12 -27
-5 -15 42 86 67 18 -14 -29
-4 -14 45 92 72 21 -14 -28
-9 -15 50 98 78 26 -11 -28
-11 -15 53 104 87 30 -9 -27
-9 -13 55 110 94 34 -7 -26
-11 -16 55 113 97 35 -7 -28
-13 -20 56 117 101 37 -7 -30
-10 -17 58 122 108 43 -5 -28
-4 -9 62 131 115 50 -2 -25
2 -5 65 140 122 55 3 -25
4 -4 68 146 130 58 5 -24
1 -5 68 148 135 60 4 -25
-2 -7 67 152 140 63 5 -26
1 -7 67 157 146 68 8 -25
0 -9 68 160 152 73 10 -24
-2 -8 70 163 157 78 11 -23
0 -5 72 169 163 85 16 -22
0 -2 75 174 170 89 21 -19
-4 0 76 178 175 95 24 -17
-2 1 76 181 179 99 26 -15
5 4 75 183 183 102 29 -13
11 9 75 183 185 106 32 -11
12 12 75 185 188 111 35 -7
7 11 74 183 189 112 38 -7
4 9 73 180 188 112 38 -7
7 9 70 176 185 112 39 -6
9 10 66 173 184 112 40 -6
9 12 63 169 182 112 43 -5
11 16 63 167 181 114 45 -2
13 19 63 163 178 113 45 1
12 21 61 160 175 112 47 2
13 24 60 155 171 112 47 3
16 26 57 149 165 111 48 4
13 26 55 143 161 110 50 6
10 25 50 134 153 105 49 6
10 24 44 123 144 100 47 6
13 24 37 113 135 95 46 6
13 24 34 104 126 89 45 7
12 23 29 93 113 81 40 5
10 23 27 86 102 76 38 5
7 22 24 77 94 71 37 5
2 18 21 68 85 64 34 5
4 16 16 59 74 56 29 1
9 17 14 51 66 50 26 -2
9 20 14 46 61 47 26 1
5 22 14 43 57 45 28 4
2 20 12 37 51 40 27 3
1 16 7 30 40 32 22 -2
2 14 5 26 33 27 18 -3
4 13 3 21 27 22 14 -5
-2 8 3 17 22 18 12 -7
-11 2 2 13 16 14 8 -9
-11 1 2 10 12 10 5 -12
-5 3 1 6 9 5 2 -14
-4 2 -2 2 4 1 -2 -17
-8 -2 -2 1 1 0 -2 -17
-10 0 -2 0 0 0 -2 -16
-5 4 -2 0 0 -2 0 -15
4 8 0 0 -3 -3 -2 -15
7 7 -2 -3 -7 -5 -4 -17
3 2 -4 -6 -10 -8 -7 -20
-3 -2 -4 -7 -11 -10 -8 -21
0 -2 -4 -8 -12 -11 -9 -22
3 1 -2 -8 -12 -11 -8 -22
3 0 -2 -9 -13 -12 -9 -23
0 -2 -3 -11 -14 -13 -10 -23
-4 0 -4 -10 -13 -12 -9 -23
-7 -2 -5 -10 -13 -13 -10 -23
-8 -3 -5 -10 -14 -14 -10 -23
-4 0 -4 -9 -15 -14 -10 -25
0 3 -3 -9 -16 -15 -11 -26
0 2 -3 -11 -18 -16 -12 -27
-3 2 -3 -11 -17 -15 -11 -26
-5 2 0 -8 -14 -13 -9 -23
-7 1 1 -7 -13 -12 -9 -22
-8 -2 0 -9 -16 -14 -9 -21
-9 -5 -2 -11 -17 -16 -8 -17
-13 -7 -2 -10 -18 -16 -8 -10
-14 -8 0 -9 -18 -16 -8 -6
-11 -6 -2 -8 -18 -15 -9 -6
-6 -4 -2 -7 -16 -15 -9 -4
-5 -4 -4 -8 -17 -15 -10 -3
-9 -8 -5 -10 -18 -16 -10 -4
-13 -13 -7 -13 -20 -19 -13 -7
-17 -14 -5 -13 -19 -19 -13 -5
-15 -10 -4 -12 -18 -16 -12 -3
-11 -5 -3 -10 -16 -14 -9 0
-6 0 -3 -9 -15 -14 -8 1
-4 0 -4 -10 -17 -16 -10 -2
-5 -5 -5 -10 -19 -17 -12 -4
-4 -4 -4 -10 -19 -17 -13 -5
-2 0 -2 -9 -18 -16 -12 -4
1 0 -2 -10 -18 -16 -13 -4
-2 -5 -4 -12 -19 -18 -14 -7
-7 -9 -5 -13 -19 -19 -15 -7
-10 -9 -4 -12 -19 -19 -14 -7
-8 -8 -4 -11 -18 -18 -13 -6
-6 -6 -4 -10 -17 -18 -12 -5
-7 -5 -2 -9 -17 -17 -12 -4
-9 -5 1 -7 -16 -15 -11 -4
-7 -3 2 -7 -15 -15 -11 -4
-4 0 2 -5 -13 -14 -10 -3
-3 2 3 -5 -13 -13 -9 -3
-4 0 2 -7 -14 -15 -10 -5
-4 -3 1 -9 -15 -17 -11 -6
-5 -3 1 -8 -14 -16 -11 -5
-6 2 2 -6 -11 -12 -8 -3
-6 5 4 -4 -9 -10 -5 -2
-7 6 4 -2 -8 -8 -5 0
-7 7 4 0 -7 -7 -4 1
-4 8 4 -2 -7 -8 -4 0
0 9 4 -2 -6 -7 -5 0
-3 9 6 0 -5 -6 -3 0
-8 8 7 1 -4 -5 -2 1
-10 7 6 0 -3 -6 -2 1
-12 7 5 -2 -4 -7 -4 -2
-13 6 8 1 -3 -6 -2 1
-10 9 10 3 0 -4 0 2
-2 11 9 3 0 -4 1 2
4 12 6 3 0 -3 2 1
3 14 6 4 1 -2 3 3
1 13 6 5 3 1 4 4
-2 9 4 4 2 1 3 3
-3 8 1 2 1 -2 2 2
-2 10 1 1 1 -2 2 2
1 10 -2 -2 0 -2 1 2
0 11 -4 -5 -2 -3 2 3
1 14 -5 -6 -2 -2 5 6
5 17 -7 -6 -2 1 6 8
7 18 -11 -8 -4 2 7 8
10 17 -16 -12 -7 0 6 8
10 14 -19 -17 -12 -6 2 5
6 7 -22 -20 -16 -11 -4 1
6 5 -24 -21 -18 -13 -7 -2
13 10 -20 -18 -15 -11 -5 2
16 11 -19 -17 -14 -9 -3 4
13 5 -20 -20 -16 -12 -4 2
8 0 -22 -22 -19 -14 -6 1
6 -3 -21 -21 -19 -12 -5 2
8 -2 -20 -19 -20 -12 -3 3
12 2 -20 -21 -21 -14 -4 3
11 2 -19 -21 -21 -13 -4 3
12 2 -18 -22 -22 -14 -5 2
14 5 -15 -21 -21 -13 -4 4
13 5 -15 -21 -21 -14 -4 3
8 0 -15 -23 -23 -15 -5 1
5 -5 -14 -21 -22 -15 -4 0
3 -6 -12 -19 -20 -15 -5 1
-2 -8 -9 -17 -20 -14 -6 0
-7 -12 -8 -17 -22 -15 -7 -4
-7 -13 -6 -16 -23 -18 -10 -7
-3 -11 -4 -14 -22 -18 -11 -7
1 -9 -4 -15 -23 -18 -12 -9
-2 -11 -4 -16 -24 -20 -14 -10
-5 -14 -4 -18 -25 -22 -16 -12
-5 -16 -5 -19 -27 -24 -18 -15
-5 -17 -7 -19 -27 -25 -18 -17
-8 -17 -6 -19 -27 -25 -18 -16
-10 -17 -6 -19 -28 -26 -20 -16
-11 -19 -4 -20 -29 -26 -21 -17
-12 -20 -2 -19 -28 -26 -21 -17
-13 -19 1 -16 -27 -25 -20 -16
-13 -17 2 -16 -25 -24 -19 -16
-12 -18 1 -17 -26 -26 -21 -17
-10 -20 0 -18 -28 -27 -21 -17
-11 -18 1 -17 -27 -26 -21 -17
-11 -17 2 -16 -26 -25 -19 -16
-10 -18 1 -17 -27 -26 -21 -17
-10 -20 0 -19 -29 -27 -22 -18
-13 -20 0 -18 -28 -26 -21 -18
-14 -19 0 -18 -28 -26 -21 -18
-15 -20 -3 -19 -30 -28 -23 -19
-16 -22 1 -17 -29 -27 -22 -19
-17 -20 4 -15 -27 -25 -20 -18
-15 -20 4 -16 -28 -26 -21 -18
-13 -24 3 -17 -29 -27 -22 -19
-15 -29 0 -20 -32 -30 -25 -23
-16 -32 0 -21 -32 -32 -26 -23
-14 -29 1 -19 -32 -32 -26 -22
-16 -25 3 -17 -31 -30 -24 -22
-18 -22 3 -16 -30 -28 -23 -21
-14 -20 5 -15 -28 -27 -21 -19
-8 -18 7 -14 -27 -26 -21 -19
-4 -17 5 -16 -28 -28 -22 -21
0 -17 3 -17 -28 -29 -24 -22
2 -19 3 -17 -28 -29 -25 -23
-5 -20 6 -13 -27 -29 -25 -24
-12 -24 9 -7 -24 -30 -28 -27
-13 -24 13 2 -19 -29 -30 -29
-13 -23 16 13 -10 -24 -28 -28
-11 -20 18 25 2 -15 -22 -24
-6 -18 19 39 15 -3 -13 -19
2 -15 21 55 30 14 3 -10
12 -15 19 63 47 36 20 0
23 -15 15 61 64 65 43 13
34 -11 13 49 75 98 72 31
47 -3 9 27 74 130 107 54
63 12 -8 -12 70 171 152 85
82 35 -43 -65 72 235 219 132
105 61 -81 -117 78 309 296 186
125 78 -119 -165 70 348 345 226
138 86 -152 -215 33 331 347 242
141 91 -185 -264 -23 273 316 244
135 95 -220 -312 -89 193 267 233
125 93 -244 -358 -164 95 199 207
110 86 -256 -403 -247 -12 121 175
85 73 -264 -457 -341 -116 45 140
51 56 -273 -509 -441 -227 -32 100
19 30 -273 -534 -530 -341 -113 53
-8 7 -263 -537 -588 -433 -189 2
-29 -6 -247 -519 -597 -471 -234 -38
-45 -9 -222 -473 -551 -448 -240 -60
-48 -8 -191 -408 -478 -398 -225 -69
-43 -4 -158 -344 -405 -344 -200 -67
-35 0 -127 -283 -337 -290 -172 -61
-32 -2 -97 -227 -275 -241 -147 -58
-34 -3 -70 -177 -221 -201 -128 -56
-33 0 -48 -133 -177 -166 -110 -54
-28 2 -29 -96 -138 -136 -94 -49
-23 4 -18 -67 -107 -109 -77 -43
-19 3 -13 -51 -83 -91 -65 -37
-15 -4 -10 -38 -67 -78 -57 -34
-13 -11 -5 -27 -54 -67 -51 -33
-14 -15 0 -17 -40 -56 -44 -31
-15 -15 3 -11 -31 -48 -39 -29
-15 -14 8 -4 -24 -39 -34 -26
-14 -12 12 4 -19 -34 -30 -23
-13 -10 14 9 -15 -31 -28 -21
-10 -11 16 12 -13 -30 -28 -22
-7 -14 15 13 -13 -31 -30 -25
-4 -15 16 16 -10 -30 -30 -26
-2 -12 18 18 -7 -30 -29 -25
-5 -13 18 18 -5 -28 -28 -24
-11 -16 15 17 -4 -26 -29 -25
-9 -14 14 18 -3 -25 -29 -25
-4 -11 15 20 -2 -24 -28 -24
-6 -14 15 22 0 -23 -27 -24
-10 -19 15 24 0 -24 -28 -26
-10 -18 16 25 1 -24 -27 -27
-7 -16 17 28 3 -22 -26 -26
-4 -14 19 30 6 -20 -25 -25
-5 -13 21 32 9 -18 -24 -23
-10 -13 22 34 13 -15 -22 -23
-16 -16 21 36 15 -14 -21 -24
-18 -16 20 37 16 -14 -23 -25
-15 -13 25 40 19 -11 -21 -23
-8 -9 27 43 18 -12 -21 -22
-2 -9 27 46 20 -12 -22 -23
-2 -11 28 49 23 -11 -22 -24
-5 -14 30 53 25 -9 -22 -23
-7 -15 31 56 29 -8 -21 -23
-5 -13 30 59 33 -7 -21 -24
-3 -12 30 61 37 -4 -20 -23
-4 -12 33 64 42 0 -17 -21
-7 -12 35 69 46 3 -15 -20
-7 -13 36 72 50 5 -15 -20
-4 -14 36 75 52 5 -16 -21
0 -12 39 82 56 8 -16 -21
0 -10 44 90 62 13 -14 -20
0 -10 49 97 69 17 -11 -18
3 -10 49 101 74 19 -11 -20
3 -12 51 105 79 21 -11 -21
-3 -13 54 111 87 25 -9 -21
-9 -13 58 119 95 31 -5 -18
-12 -13 59 126 102 35 -3 -17
-13 -14 59 130 106 37 -3 -18
-10 -13 62 136 111 40 0 -17
3 -8 63 141 114 43 0 -18
13 -5 65 147 120 46 0 -18
13 -5 67 153 127 50 1 -18
6 -5 69 159 134 55 4 -18
5 -3 73 167 142 61 8 -15
8 3 76 173 151 68 13 -13
9 5 77 177 157 74 16 -11
7 4 78 179 162 78 18 -10
5 2 79 182 168 82 21 -8
7 3 78 185 172 87 24 -6
12 7 77 189 175 91 27 -4
14 11 78 192 178 95 30 -2
14 11 79 194 180 98 32 1
18 12 77 193 182 99 32 1
23 14 77 191 183 100 33 2
21 14 75 188 182 101 33 2
14 13 76 189 184 105 37 5
12 16 77 189 185 108 43 10
14 19 75 186 184 109 45 13
15 19 71 181 180 107 43 13
12 17 68 176 175 104 40 11
12 19 66 173 171 103 40 12
14 22 65 169 168 102 42 13
15 23 61 161 163 100 43 14
11 23 58 155 158 99 45 16
7 22 53 146 152 96 44 16
5 20 49 136 145 93 43 16
7 19 42 122 135 86 39 14
13 21 35 112 125 80 39 15
17 27 32 106 116 77 39 17
17 32 33 102 110 75 43 22
16 31 29 93 100 69 40 22
14 25 24 82 89 62 35 20
13 21 20 71 78 55 31 17
12 19 18 63 70 50 29 16
10 19 15 55 62 44 26 14
12 19 12 48 54 37 24 13
18 22 10 40 46 32 21 11
20 24 9 34 40 29 20 12
15 23 6 29 34 25 19 13
8 17 5 24 27 20 16 11
