I II V1 V2 V3 V4 V5 V6
-14 -15 4 -15 -17 -22 -24 -17
-14 -17 3 -16 -18 -24 -26 -19
-12 -17 2 -15 -19 -24 -27 -20
-9 -15 3 -14 -17 -23 -27 -20
-8 -15 3 -15 -19 -25 -28 -21
-11 -16 3 -16 -19 -25 -27 -20
-13 -15 2 -17 -19 -25 -26 -19
-12 -14 2 -17 -20 -25 -25 -18
-10 -13 1 -18 -21 -25 -25 -19
-11 -15 2 -18 -21 -24 -24 -18
-12 -18 3 -17 -19 -22 -21 -17
-14 -19 4 -16 -19 -22 -20 -16
-15 -18 3 -16 -19 -23 -20 -16
-15 -18 4 -16 -18 -22 -19 -16
-14 -19 4 -15 -17 -21 -18 -16
-13 -19 3 -16 -18 -23 -20 -18
-13 -17 4 -15 -17 -22 -20 -17
-12 -15 4 -14 -17 -22 -19 -17
-10 -13 4 -15 -18 -22 -19 -18
-11 -10 6 -14 -16 -20 -17 -17
-13 -8 6 -13 -15 -18 -15 -15
-12 -5 6 -13 -16 -19 -15 -14
-9 -3 6 -13 -16 -20 -14 -14
-8 -3 5 -15 -16 -20 -14 -15
-8 -3 5 -15 -16 -19 -14 -14
-9 1 8 -12 -13 -18 -13 -13
-11 3 11 -10 -11 -15 -11 -11
-12 4 13 -8 -10 -14 -9 -8
-11 4 13 -8 -10 -14 -8 -8
-9 4 14 -7 -9 -14 -8 -8
-10 5 14 -7 -8 -13 -8 -8
-10 6 13 -6 -9 -12 -8 -8
-7 8 14 -6 -7 -11 -7 -7
-3 10 14 -6 -6 -12 -6 -6
-2 13 12 -6 -6 -11 -6 -6
-4 15 13 -5 -5 -9 -4 -4
-4 17 12 -6 -5 -9 -3 -4
-4 17 12 -8 -6 -9 -5 -5
-4 17 10 -10 -7 -10 -4 -5
-4 17 7 -11 -6 -10 -3 -4
-3 18 5 -12 -7 -10 -4 -4
0 18 4 -11 -9 -11 -5 -5
2 16 3 -12 -10 -11 -5 -6
5 14 0 -13 -10 -11 -5 -7
6 13 -2 -12 -9 -12 -6 -6
4 13 0 -10 -8 -11 -5 -4
4 11 1 -10 -8 -11 -5 -5
4 9 2 -9 -8 -10 -5 -5
2 6 3 -9 -8 -9 -5 -4
2 4 1 -12 -12 -11 -7 -5
1 2 1 -14 -14 -14 -8 -6
-2 -2 1 -14 -16 -16 -11 -9
-4 -6 1 -16 -18 -18 -14 -12
-7 -10 1 -18 -19 -20 -16 -14
-10 -13 1 -19 -20 -22 -18 -16
-11 -16 1 -19 -21 -23 -19 -18
-11 -16 -2 -21 -23 -26 -20 -20
-11 -17 -2 -23 -24 -27 -21 -20
-10 -18 -2 -24 -26 -27 -22 -21
-11 -19 -2 -24 -27 -28 -23 -22
-14 -20 -3 -25 -28 -29 -23 -22
-15 -21 -4 -26 -29 -30 -24 -23
-12 -21 -4 -27 -29 -31 -24 -23
-10 -21 -4 -29 -30 -31 -25 -25
-13 -21 -3 -28 -28 -30 -24 -24
-14 -23 -4 -28 -29 -30 -25 -25
-12 -22 -5 -27 -29 -30 -25 -25
-13 -21 -5 -27 -29 -30 -26 -26
-14 -21 -5 -27 -29 -31 -27 -26
-11 -21 -5 -28 -29 -32 -28 -26
-9 -20 -4 -28 -28 -31 -27 -25
-11 -21 -2 -26 -28 -31 -26 -24
-12 -22 -2 -26 -28 -30 -26 -24
-11 -23 -4 -28 -29 -31 -26 -24
-11 -23 -5 -28 -30 -31 -25 -24
-13 -23 -5 -27 -29 -30 -24 -23
-13 -23 -6 -27 -29 -30 -24 -22
-11 -25 -8 -28 -31 -31 -26 -24
-10 -27 -9 -28 -33 -34 -29 -28
-8 -28 -9 -27 -35 -36 -32 -31
-5 -33 -5 -23 -34 -37 -35 -34
-4 -38 0 -15 -31 -38 -38 -38
-7 -39 6 -7 -26 -34 -36 -37
-7 -34 13 6 -16 -27 -29 -32
-4 -23 20 22 1 -13 -19 -22
1 -8 26 40 21 8 0 -8
8 7 33 62 44 30 19 10
18 18 40 93 70 58 40 29
32 33 49 130 104 93 67 55
47 58 56 168 145 136 102 87
58 90 63 204 192 187 147 128
70 127 64 237 237 238 192 170
85 168 57 253 274 285 234 211
98 212 36 248 304 327 277 253
106 252 7 232 325 365 317 294
110 272 -28 204 328 381 337 315
106 262 -61 163 298 357 320 302
90 220 -86 108 234 295 268 258
72 162 -104 38 148 203 191 192
55 103 -122 -38 57 106 109 120
32 51 -136 -117 -28 11 31 51
9 12 -141 -186 -97 -64 -29 -6
-7 -6 -135 -212 -128 -99 -57 -34
-13 -13 -120 -192 -120 -97 -58 -41
-11 -21 -105 -163 -107 -89 -57 -44
-8 -34 -92 -145 -104 -89 -61 -49
-8 -43 -74 -126 -98 -86 -62 -51
-8 -44 -57 -102 -88 -79 -60 -51
-7 -41 -43 -80 -75 -69 -54 -47
-6 -36 -32 -64 -63 -59 -47 -40
-6 -32 -24 -52 -53 -51 -39 -35
-7 -32 -19 -45 -46 -46 -36 -33
-9 -31 -15 -39 -43 -44 -35 -32
-10 -31 -10 -34 -39 -40 -34 -31
-12 -30 -8 -31 -37 -39 -34 -32
-16 -31 -7 -29 -35 -38 -33 -30
-16 -32 -7 -30 -35 -38 -33 -30
-12 -31 -10 -31 -36 -39 -35 -32
-9 -30 -10 -31 -37 -39 -36 -32
-10 -30 -10 -30 -37 -39 -35 -32
-10 -31 -11 -29 -37 -39 -35 -32
-10 -31 -11 -29 -38 -41 -36 -33
-11 -31 -8 -27 -36 -39 -34 -32
-12 -30 -4 -24 -33 -36 -31 -31
-11 -29 -4 -25 -32 -37 -32 -33
-10 -28 -5 -25 -33 -37 -34 -34
-10 -28 -5 -25 -32 -36 -33 -33
-10 -26 -6 -23 -31 -36 -32 -32
-11 -25 -6 -24 -29 -35 -31 -30
-11 -26 -7 -25 -30 -35 -31 -30
-10 -26 -7 -26 -31 -36 -31 -31
-9 -26 -7 -25 -31 -35 -31 -31
-9 -25 -6 -24 -31 -35 -31 -31
-9 -26 -4 -23 -30 -35 -31 -31
-10 -26 -3 -22 -30 -36 -31 -31
-9 -26 -2 -20 -28 -35 -30 -30
-3 -24 -4 -20 -29 -35 -30 -30
-2 -22 -4 -21 -28 -33 -28 -29
-10 -23 -2 -20 -26 -31 -25 -26
-16 -24 -3 -19 -26 -30 -24 -25
-14 -23 -4 -19 -27 -31 -24 -24
-8 -22 -4 -21 -29 -32 -25 -26
-6 -22 -6 -23 -31 -33 -27 -28
-7 -21 -6 -21 -30 -32 -27 -28
-8 -21 -5 -19 -27 -32 -26 -28
-8 -20 -4 -17 -24 -30 -25 -27
-7 -19 -4 -14 -21 -28 -24 -26
-7 -17 -2 -11 -18 -25 -22 -24
-7 -17 0 -10 -18 -23 -20 -21
-6 -17 -2 -12 -19 -24 -21 -21
-5 -19 0 -11 -19 -23 -20 -19
-6 -20 -2 -11 -19 -23 -21 -18
-7 -21 -2 -10 -19 -23 -20 -19
-6 -21 0 -8 -17 -22 -19 -18
-6 -19 2 -5 -15 -20 -16 -16
-7 -18 3 -3 -13 -19 -16 -15
-7 -17 3 -2 -12 -18 -16 -15
-4 -15 2 -2 -11 -18 -16 -16
0 -13 1 1 -10 -17 -15 -15
1 -12 2 3 -8 -14 -12 -13
2 -11 2 4 -8 -13 -12 -12
0 -11 4 6 -7 -12 -11 -10
0 -10 4 8 -6 -11 -10 -11
4 -9 5 10 -4 -9 -9 -9
4 -8 5 12 -2 -7 -7 -8
3 -6 7 16 3 -4 -4 -5
6 -5 8 20 6 0 -2 -3
10 -3 8 23 9 2 0 -2
10 1 9 26 12 5 3 1
3 4 11 30 16 9 7 5
-5 5 14 34 20 14 12 10
-8 6 16 38 23 18 15 14
-8 9 16 42 25 20 17 16
-5 12 18 45 28 23 19 17
0 15 18 48 29 24 21 18
2 17 19 52 32 26 24 20
4 19 19 56 36 31 27 24
6 23 21 60 42 36 30 28
7 27 22 63 47 40 34 31
9 29 23 67 51 46 37 33
10 30 24 71 55 50 40 36
12 34 25 74 57 52 42 38
17 35 25 75 58 53 42 39
19 36 24 77 59 54 43 40
17 37 26 79 61 58 47 45
18 40 26 81 65 61 51 49
24 43 24 82 66 63 52 51
26 45 24 84 69 65 55 54
24 47 24 86 71 68 59 58
24 49 23 85 71 69 60 59
25 49 23 84 71 70 60 57
24 49 24 82 70 70 60 58
25 51 24 82 70 70 61 59
29 52 23 82 70 69 60 59
30 51 23 82 71 70 62 60
30 52 22 82 71 71 62 60
29 53 22 81 72 72 63 61
28 52 22 81 71 72 62 59
26 51 22 80 70 71 62 59
27 52 20 77 68 67 61 58
29 52 19 75 67 66 60 58
30 50 18 72 65 66 58 57
27 49 18 71 63 65 57 56
23 48 19 70 63 64 56 56
23 47 20 68 60 63 55 55
24 46 19 65 57 58 53 52
22 40 17 62 54 55 51 49
20 38 13 57 51 51 47 45
18 37 13 54 48 50 45 43
15 36 12 51 46 47 43 40
14 35 12 47 43 43 38 37
16 33 11 42 38 37 34 32
16 30 12 38 35 34 30 30
12 27 12 36 33 30 27 26
8 23 13 33 30 28 25 24
6 20 12 29 26 25 22 21
6 17 10 25 22 21 19 19
5 15 8 21 20 17 15 15
5 13 5 18 16 14 12 12
4 11 4 15 14 11 10 10
2 8 4 13 11 8 8 8
0 5 4 10 8 5 6 6
-4 3 3 7 5 2 4 4
-4 2 2 4 3 -2 2 2
-4 0 0 0 0 -5 -2 -2
-5 -3 -2 -4 -4 -7 -4 -4
-7 -5 -2 -5 -5 -8 -4 -4
-9 -6 1 -5 -6 -8 -4 -4
-9 -6 2 -6 -6 -9 -6 -6
-10 -7 2 -8 -7 -11 -8 -8
-10 -10 2 -9 -7 -13 -10 -10
-10 -11 1 -10 -9 -14 -11 -11
-8 -12 -2 -14 -12 -17 -13 -13
-8 -12 -3 -16 -13 -18 -14 -14
-11 -11 -4 -15 -12 -17 -13 -13
-13 -12 -4 -13 -11 -16 -12 -13
-12 -12 -4 -14 -11 -17 -13 -14
-10 -12 -5 -16 -13 -18 -14 -14
-11 -11 -5 -17 -14 -18 -15 -14
-13 -11 -4 -17 -14 -17 -14 -13
-11 -10 -3 -16 -12 -16 -12 -11
-10 -10 -2 -15 -11 -15 -11 -11
-12 -14 0 -15 -11 -15 -11 -11
-14 -16 0 -15 -12 -16 -13 -12
-13 -15 0 -14 -12 -16 -12 -12
-10 -13 1 -14 -11 -16 -12 -12
-8 -13 2 -14 -10 -16 -12 -12
-11 -13 2 -13 -11 -16 -11 -11
-14 -12 1 -13 -11 -16 -10 -9
-13 -12 0 -13 -12 -16 -10 -9
-11 -14 0 -14 -13 -16 -11 -10
-13 -13 -2 -13 -14 -17 -12 -11
-14 -12 1 -12 -12 -16 -11 -12
-11 -12 2 -11 -12 -17 -12 -13
-8 -13 3 -11 -12 -17 -13 -13
-9 -13 3 -12 -13 -17 -14 -14
-11 -14 3 -12 -13 -17 -14 -14
-12 -15 3 -12 -14 -17 -12 -13
-12 -15 2 -13 -15 -17 -12 -12
-11 -15 1 -15 -16 -17 -14 -13
-10 -14 0 -15 -16 -18 -14 -13
-9 -14 -3 -16 -18 -19 -14 -14
-11 -15 -3 -15 -18 -19 -13 -13
-12 -15 0 -14 -17 -18 -12 -12
-12 -15 1 -14 -16 -18 -12 -12
-12 -15 2 -14 -15 -18 -14 -14
-11 -15 1 -14 -15 -19 -14 -14
-11 -15 1 -13 -15 -18 -14 -14
-11 -15 1 -13 -16 -19 -14 -14
-11 -14 1 -14 -17 -19 -15 -15
-11 -14 1 -15 -17 -20 -15 -15
-12 -14 0 -16 -17 -20 -15 -14
-12 -14 -2 -16 -18 -20 -16 -15
-11 -15 0 -16 -18 -21 -17 -15
-9 -16 1 -17 -19 -22 -17 -16
-9 -17 2 -17 -18 -21 -17 -16
-11 -17 3 -16 -17 -20 -16 -16
-12 -17 3 -17 -18 -22 -17 -17
-9 -16 1 -18 -20 -23 -18 -17
-9 -16 1 -18 -20 -23 -17 -17
-10 -17 2 -18 -20 -22 -17 -17
-7 -16 -2 -21 -23 -25 -20 -20
-5 -16 -2 -21 -22 -24 -19 -20
-6 -16 -3 -20 -21 -25 -19 -21
-9 -16 0 -19 -20 -24 -18 -19
-12 -16 1 -17 -19 -23 -17 -18
-13 -16 2 -16 -18 -22 -17 -17
-12 -14 3 -16 -17 -21 -17 -17
-9 -12 4 -15 -16 -19 -15 -15
-8 -11 4 -14 -15 -19 -14 -14
-11 -10 6 -11 -13 -19 -12 -12
-10 -9 7 -11 -13 -19 -12 -12
-7 -6 7 -11 -14 -19 -13 -12
-5 -4 8 -11 -14 -19 -13 -12
-7 -5 9 -12 -13 -18 -12 -11
-9 -5 9 -12 -14 -17 -12 -11
-9 -2 10 -11 -13 -16 -10 -9
-9 0 12 -8 -12 -14 -8 -8
-10 -2 14 -6 -10 -12 -7 -7
-10 0 13 -6 -10 -12 -8 -8
-9 2 12 -6 -9 -12 -8 -9
-7 4 13 -5 -8 -12 -7 -8
-5 6 14 -4 -7 -11 -5 -7
-3 7 14 -4 -6 -10 -4 -5
-2 8 14 -5 -8 -10 -4 -5
-3 10 13 -5 -7 -9 -3 -3
-4 12 12 -6 -7 -9 -3 -4
-6 12 12 -6 -6 -9 -2 -3
-5 12 9 -9 -8 -10 -3 -3
-4 12 7 -10 -9 -11 -4 -2
0 13 6 -9 -8 -9 -3 -2
2 14 5 -8 -8 -8 -3 -2
4 14 4 -8 -8 -8 -3 -3
5 12 3 -8 -8 -10 -3 -3
3 10 2 -9 -9 -10 -4 -4
4 9 2 -9 -9 -10 -5 -4
6 8 3 -8 -9 -9 -4 -3
5 6 3 -7 -10 -10 -4 -2
3 5 3 -9 -12 -11 -5 -3
1 3 2 -12 -14 -13 -6 -5
1 0 2 -14 -16 -16 -8 -8
0 -4 2 -16 -18 -18 -11 -10
-5 -8 2 -16 -19 -19 -12 -11
-9 -11 1 -17 -21 -21 -15 -13
-11 -15 2 -18 -21 -22 -16 -15
-11 -17 2 -19 -22 -24 -18 -18
-11 -19 1 -20 -23 -26 -19 -20
-12 -21 0 -21 -24 -27 -21 -20
-11 -20 -2 -22 -25 -27 -22 -20
-10 -20 0 -22 -25 -27 -21 -20
-10 -21 -2 -25 -28 -29 -23 -22
-11 -21 -4 -27 -31 -32 -25 -24
-13 -21 -4 -26 -30 -33 -24 -24
-14 -21 -3 -26 -29 -32 -24 -24
-14 -21 -3 -26 -29 -32 -24 -24
-14 -21 -4 -27 -30 -33 -25 -25
-14 -22 -5 -28 -30 -33 -25 -26
-13 -23 -6 -28 -31 -32 -25 -25
-14 -21 -5 -27 -31 -30 -24 -23
-17 -19 -4 -27 -31 -30 -24 -23
-16 -21 -3 -28 -31 -30 -24 -23
-13 -21 -2 -27 -30 -30 -24 -24
-11 -21 -2 -27 -29 -31 -25 -25
-10 -21 -2 -27 -29 -31 -25 -25
-9 -22 0 -26 -28 -31 -24 -24
-7 -23 0 -25 -27 -31 -23 -22
-9 -24 0 -24 -26 -30 -23 -22
-14 -26 -2 -24 -27 -30 -24 -24
-14 -28 -2 -24 -28 -30 -24 -25
-11 -32 -2 -24 -30 -33 -27 -27
-10 -38 0 -21 -31 -34 -29 -30
-12 -43 4 -16 -29 -33 -31 -32
-11 -43 9 -8 -23 -31 -30 -32
-5 -36 13 3 -16 -26 -27 -30
-2 -24 21 18 0 -13 -17 -21
-3 -10 30 39 22 10 2 -3
3 6 37 62 44 31 20 14
15 17 45 91 67 56 39 32
29 29 52 123 96 87 64 55
44 51 60 158 132 126 96 86
60 81 65 194 174 172 137 125
76 118 68 226 216 221 181 165
92 158 66 244 253 266 224 207
107 201 49 243 282 306 264 248
121 239 19 225 300 337 299 284
128 260 -15 195 298 348 316 304
119 251 -44 158 271 329 303 295
101 213 -66 104 212 270 254 253
79 157 -86 36 133 186 183 190
57 100 -103 -38 50 97 106 119
30 49 -119 -116 -28 11 33 52
6 13 -129 -181 -90 -59 -22 -2
-10 -3 -124 -204 -116 -90 -47 -28
-15 -9 -110 -184 -110 -88 -49 -32
-16 -20 -98 -159 -101 -82 -51 -37
-14 -32 -87 -144 -100 -85 -58 -46
-13 -41 -71 -126 -96 -85 -60 -49
-13 -45 -54 -103 -86 -78 -57 -48
-10 -41 -38 -82 -72 -68 -51 -45
-7 -35 -27 -65 -59 -57 -44 -38
-9 -31 -19 -53 -49 -48 -36 -34
-12 -30 -14 -46 -44 -44 -32 -30
-15 -30 -10 -41 -40 -41 -30 -29
-17 -31 -7 -36 -38 -41 -30 -29
-15 -32 -6 -35 -38 -43 -32 -31
-13 -32 -5 -35 -38 -43 -33 -32
-13 -32 -4 -34 -36 -41 -33 -32
-14 -31 -3 -32 -34 -40 -31 -31
-14 -30 -4 -31 -33 -39 -30 -30
-14 -30 -5 -32 -34 -39 -31 -31
-14 -29 -6 -33 -35 -40 -32 -31
-14 -28 -5 -33 -35 -39 -31 -32
-14 -29 -4 -32 -35 -39 -31 -32
-15 -30 0 -29 -33 -37 -31 -31
-16 -31 2 -27 -30 -35 -29 -29
-15 -32 3 -25 -29 -34 -29 -29
-14 -32 2 -26 -30 -36 -31 -30
-14 -31 1 -25 -29 -35 -30 -29
-14 -29 0 -25 -29 -35 -29 -28
-14 -28 -2 -25 -30 -36 -28 -28
-14 -28 -2 -25 -30 -36 -28 -28
-14 -27 -2 -25 -29 -35 -27 -28
-13 -26 -2 -25 -29 -34 -26 -28
-11 -25 0 -26 -29 -34 -27 -30
-15 -27 2 -24 -26 -32 -27 -29
-18 -28 3 -23 -25 -32 -27 -28
-15 -27 2 -24 -26 -33 -26 -27
-12 -26 2 -25 -27 -34 -26 -27
-13 -25 2 -24 -26 -33 -25 -26
-14 -25 2 -23 -26 -32 -23 -24
-13 -26 0 -23 -27 -32 -23 -23
-12 -27 0 -23 -27 -31 -23 -23
-13 -27 0 -24 -26 -31 -23 -23
-12 -27 1 -22 -25 -30 -22 -23
-13 -26 1 -21 -24 -30 -21 -22
-14 -25 3 -20 -23 -29 -20 -22
-13 -23 3 -19 -22 -29 -20 -21
-12 -21 3 -18 -19 -27 -18 -19
-12 -18 4 -18 -18 -26 -17 -19
-9 -18 4 -17 -18 -25 -17 -18
-7 -18 3 -16 -18 -24 -17 -19
-8 -18 2 -15 -18 -24 -17 -19
-10 -19 3 -15 -17 -23 -17 -18
-10 -19 4 -14 -16 -23 -17 -19
-8 -19 6 -13 -15 -22 -15 -17
-9 -20 7 -12 -16 -22 -15 -17
-10 -21 9 -10 -15 -22 -14 -16
-8 -18 8 -9 -13 -21 -13 -15
-6 -16 8 -7 -10 -18 -10 -14
-5 -13 7 -6 -8 -16 -10 -13
-6 -11 6 -5 -7 -16 -10 -13
-6 -10 6 -3 -6 -14 -8 -11
-3 -9 8 0 -5 -12 -7 -11
-2 -8 10 4 -2 -10 -6 -10
-3 -8 13 7 1 -8 -4 -8
-3 -8 14 9 3 -7 -3 -7
0 -8 14 11 4 -4 -2 -4
3 -4 12 11 5 -3 0 -2
5 2 12 13 7 0 3 1
7 4 12 16 10 3 6 3
8 5 12 18 13 6 8 5
9 6 12 21 16 9 10 7
11 10 13 25 18 12 13 8
13 13 15 31 22 15 15 11
14 14 16 35 25 18 17 13
15 16 19 39 28 22 19 15
18 19 21 42 31 24 21 18
21 22 19 43 32 25 24 21
21 24 18 44 33 29 28 25
22 27 19 48 36 34 33 30
24 32 19 51 39 37 38 35
26 33 20 54 45 42 42 38
30 34 20 55 47 44 43 38
33 35 21 58 48 46 43 39
34 35 21 59 49 47 44 42
32 37 24 63 53 50 47 46
31 42 25 66 55 53 49 48
31 44 26 68 58 55 51 49
33 45 26 67 59 57 53 51
35 47 25 67 59 58 54 52
33 48 26 69 62 61 57 55
32 48 26 70 63 63 58 56
35 49 25 68 63 63 57 56
39 49 22 66 59 59 54 54
39 49 21 65 59 59 55 55
37 50 23 67 61 61 57 56
35 51 23 67 62 61 57 56
37 52 20 65 60 60 56 55
39 52 18 62 57 59 55 54
37 51 18 60 56 58 54 53
33 49 20 59 56 58 54 54
32 50 19 58 56 57 53 53
32 50 19 57 56 56 53 52
31 49 19 57 56 56 52 52
29 46 20 56 54 55 52 51
26 44 19 52 51 52 49 48
25 43 19 50 49 49 46 45
26 40 18 47 45 46 42 40
25 37 16 45 44 43 39 38
24 35 15 40 39 38 36 35
22 33 15 36 36 35 34 34
18 30 14 32 33 32 32 32
15 28 13 28 30 29 30 30
15 25 13 25 26 25 26 27
11 21 14 23 24 23 24 25
5 18 15 21 21 21 23 23
4 16 15 20 20 19 21 21
8 16 12 15 15 13 15 16
6 13 11 11 12 10 12 13
1 9 11 9 10 8 9 12
1 7 11 7 8 6 8 10
3 5 9 3 5 3 5 8
0 3 8 0 2 1 4 6
-9 0 11 1 4 1 5 6
-12 -2 11 0 3 1 4 5
-9 -4 9 -4 -2 -4 1 2
-6 -5 6 -7 -6 -8 -5 -4
-6 -4 6 -9 -6 -9 -7 -5
-8 -4 7 -10 -5 -9 -5 -3
-7 -5 5 -12 -8 -11 -6 -5
-7 -6 3 -15 -11 -13 -8 -8
-8 -8 4 -16 -12 -14 -9 -9
-8 -9 4 -18 -14 -17 -11 -11
-8 -8 4 -17 -14 -19 -13 -13
-9 -8 4 -17 -14 -18 -13 -12
-10 -8 5 -17 -13 -17 -12 -10
-11 -8 3 -18 -13 -17 -12 -11
-13 -9 4 -17 -12 -15 -11 -11
-14 -10 5 -17 -12 -14 -10 -9
-12 -12 4 -18 -14 -15 -12 -10
-10 -11 3 -19 -15 -17 -14 -12
-9 -10 2 -20 -15 -18 -14 -12
-11 -11 3 -19 -15 -17 -13 -11
-14 -12 5 -18 -15 -17 -12 -11
-13 -12 6 -18 -15 -17 -11 -10
-11 -10 6 -17 -14 -17 -11 -10
-9 -9 5 -17 -14 -17 -12 -10
-9 -11 3 -17 -14 -17 -12 -10
-11 -11 3 -17 -13 -16 -11 -9
-14 -9 4 -16 -12 -16 -11 -9
-16 -9 7 -15 -11 -15 -11 -9
-14 -10 8 -16 -11 -14 -11 -9
-12 -9 7 -16 -12 -15 -11 -9
-11 -8 7 -16 -14 -16 -11 -9
-10 -10 6 -16 -15 -16 -12 -9
-11 -12 6 -16 -15 -16 -11 -9
-14 -12 7 -15 -15 -16 -10 -9
-14 -12 7 -15 -15 -16 -10 -9
-9 -11 4 -18 -16 -17 -12 -11
-6 -10 1 -18 -16 -17 -13 -11
-9 -9 3 -16 -15 -16 -12 -9
-15 -9 6 -15 -12 -14 -10 -8
-15 -9 7 -16 -12 -15 -11 -9
-10 -10 7 -17 -14 -18 -14 -12
-10 -11 8 -15 -13 -19 -14 -13
-13 -12 8 -14 -12 -18 -13 -13
-13 -12 7 -15 -13 -18 -13 -12
-12 -12 6 -16 -14 -18 -13 -12
-11 -11 5 -18 -16 -18 -14 -12
-11 -10 6 -17 -16 -18 -14 -12
-12 -9 6 -17 -15 -17 -14 -12
-14 -8 5 -17 -15 -17 -14 -13
-15 -9 5 -16 -14 -16 -13 -13
-14 -11 5 -17 -15 -17 -14 -14
-13 -14 5 -17 -15 -18 -15 -14
-12 -15 5 -17 -16 -19 -16 -14
-13 -14 5 -17 -16 -20 -16 -14
-13 -14 4 -18 -17 -21 -16 -14
-12 -13 1 -19 -18 -21 -16 -15
-12 -12 2 -18 -17 -19 -15 -14
-12 -11 1 -19 -18 -21 -15 -14
-13 -11 3 -21 -18 -21 -15 -14
-14 -12 3 -22 -20 -22 -17 -16
-13 -14 4 -21 -19 -21 -17 -16
-10 -14 4 -21 -20 -21 -17 -16
-10 -13 4 -20 -19 -21 -17 -15
-13 -11 7 -15 -16 -19 -15 -14
-13 -10 8 -14 -15 -20 -15 -14
-13 -9 8 -16 -14 -19 -15 -13
-11 -7 7 -16 -15 -19 -15 -13
-8 -6 6 -15 -16 -18 -14 -12
-9 -5 6 -15 -15 -16 -12 -10
-13 -5 7 -16 -14 -15 -11 -8
-14 -4 8 -16 -15 -16 -11 -10
-12 -3 11 -14 -14 -16 -10 -10
-7 -2 12 -11 -11 -14 -9 -10
-4 1 12 -11 -11 -15 -10 -10
-4 2 11 -12 -10 -15 -10 -10
-6 2 9 -12 -10 -14 -10 -9
-8 3 12 -9 -8 -11 -8 -7
-6 5 11 -9 -9 -11 -9 -8
-2 7 10 -10 -10 -12 -9 -9
-2 10 10 -8 -8 -11 -8 -8
-5 12 13 -5 -5 -7 -4 -5
-4 15 11 -7 -5 -8 -4 -5
-3 18 10 -10 -6 -8 -4 -5
-4 18 8 -10 -7 -8 -4 -4
-2 18 6 -11 -8 -9 -4 -4
1 17 4 -13 -9 -9 -4 -4
1 18 3 -11 -8 -8 -3 -2
3 18 1 -11 -9 -9 -4 0
6 18 0 -12 -9 -9 -4 0
5 17 2 -11 -8 -8 -2 1
7 17 3 -11 -8 -8 -3 -2
9 16 3 -10 -8 -8 -3 -3
8 15 3 -9 -7 -8 -3 -4
7 13 3 -9 -8 -9 -4 -5
4 10 4 -9 -8 -9 -6 -5
0 7 3 -11 -9 -10 -6 -5
-4 4 2 -12 -11 -11 -7 -5
-3 0 0 -14 -14 -14 -9 -7
0 -5 -2 -18 -18 -17 -12 -10
-3 -8 -4 -22 -23 -21 -15 -13
-5 -11 -3 -22 -25 -23 -17 -15
-8 -13 -2 -23 -25 -25 -19 -17
-14 -15 0 -23 -24 -25 -20 -19
-15 -16 1 -22 -23 -25 -19 -19
-13 -17 0 -22 -24 -25 -20 -20
-11 -18 -4 -24 -26 -27 -22 -22
-12 -19 -5 -25 -26 -27 -23 -22
-11 -19 -4 -25 -26 -27 -24 -23
-9 -19 -5 -26 -27 -29 -26 -24
-11 -21 -4 -27 -28 -29 -25 -24
-15 -22 -4 -27 -29 -30 -25 -24
-14 -21 -4 -28 -31 -30 -24 -23
-10 -21 -5 -29 -33 -31 -24 -23
-9 -20 -6 -31 -34 -32 -24 -24
-11 -20 -6 -29 -32 -31 -23 -23
-12 -19 -6 -28 -31 -29 -23 -23
-10 -19 -6 -28 -30 -29 -24 -24
-8 -18 -7 -29 -31 -29 -24 -24
-10 -17 -5 -27 -30 -27 -22 -22
-11 -16 -3 -27 -30 -27 -22 -22
-10 -18 -4 -28 -30 -30 -24 -24
-9 -20 -6 -28 -30 -30 -24 -24
-10 -20 -5 -26 -28 -27 -23 -23
-10 -21 -5 -24 -28 -28 -23 -24
-9 -23 -6 -25 -29 -29 -25 -25
-6 -26 -8 -25 -30 -31 -28 -28
-3 -32 -8 -23 -32 -33 -32 -32
0 -37 -6 -18 -33 -36 -36 -36
-2 -37 0 -12 -30 -35 -36 -37
-3 -33 8 0 -21 -28 -31 -32
-2 -22 17 17 -5 -13 -19 -21
4 -7 23 35 16 7 0 -6
13 8 28 57 36 28 17 10
21 19 36 85 61 53 37 28
30 32 46 118 92 85 62 51
44 52 52 153 126 122 93 79
61 80 55 187 164 167 130 115
79 116 58 217 205 214 171 155
95 158 58 237 244 259 214 196
107 201 45 239 275 301 256 239
117 238 16 220 293 336 294 277
123 261 -17 190 294 351 314 301
121 256 -49 150 265 332 303 296
105 219 -71 100 210 277 258 259
80 167 -89 37 136 197 190 198
58 112 -104 -33 58 111 116 132
36 63 -120 -109 -21 23 44 62
13 25 -132 -180 -87 -52 -15 5
-8 6 -130 -211 -118 -89 -43 -25
-16 -4 -118 -196 -116 -91 -48 -33
-14 -15 -105 -170 -108 -86 -51 -39
-9 -28 -95 -154 -109 -90 -60 -50
-10 -38 -78 -136 -104 -88 -64 -55
-13 -43 -60 -111 -93 -80 -62 -55
-11 -40 -43 -88 -80 -72 -56 -52
-8 -35 -30 -69 -67 -62 -49 -46
-7 -29 -21 -55 -55 -51 -40 -37
-5 -26 -16 -48 -49 -46 -36 -34
-4 -27 -14 -45 -47 -44 -35 -33
-8 -29 -11 -40 -45 -43 -35 -33
-12 -29 -7 -36 -40 -40 -33 -32
-14 -28 -5 -34 -39 -39 -34 -32
-13 -28 -5 -33 -39 -39 -34 -33
-12 -29 -5 -32 -40 -40 -35 -34
-12 -30 -7 -32 -40 -40 -35 -35
-13 -31 -7 -32 -39 -39 -34 -34
-13 -30 -7 -34 -39 -40 -34 -34
-11 -27 -7 -34 -38 -40 -34 -34
-9 -26 -6 -33 -38 -39 -33 -34
-12 -27 -5 -30 -37 -38 -33 -35
-14 -29 -4 -27 -36 -38 -33 -35
-13 -28 -3 -27 -36 -38 -33 -35
-10 -28 -3 -27 -36 -38 -34 -35
-9 -28 -4 -27 -37 -38 -33 -35
-11 -26 -5 -27 -36 -36 -32 -33
-12 -25 -5 -27 -35 -35 -30 -31
-11 -23 -4 -27 -34 -35 -28 -29
-10 -23 -4 -26 -33 -35 -28 -29
-14 -25 -3 -26 -32 -34 -27 -29
-18 -26 1 -23 -30 -32 -26 -27
-21 -26 4 -21 -28 -31 -26 -27
-23 -26 6 -20 -27 -31 -26 -27
-26 -25 10 -18 -27 -30 -25 -26
-30 -24 11 -17 -26 -28 -23 -24
-30 -24 10 -16 -25 -26 -22 -23
-26 -24 9 -17 -24 -25 -22 -23
-24 -22 7 -18 -25 -27 -23 -24
-23 -21 6 -18 -25 -27 -22 -23
-21 -21 4 -19 -26 -28 -23 -23
-22 -21 5 -19 -26 -29 -24 -24
-25 -22 8 -16 -23 -26 -22 -23
-25 -23 7 -16 -23 -26 -22 -23
-22 -23 4 -15 -25 -27 -22 -24
-19 -21 3 -15 -26 -27 -23 -23
-18 -19 4 -14 -24 -25 -21 -22
-18 -17 5 -13 -22 -22 -18 -19
-17 -17 5 -12 -20 -21 -16 -18
-15 -17 3 -13 -21 -21 -17 -18
-17 -17 5 -13 -19 -20 -16 -18
-18 -18 7 -11 -19 -20 -16 -18
-16 -16 9 -7 -18 -18 -16 -18
-14 -15 11 -6 -17 -17 -16 -18
-14 -17 12 -5 -16 -16 -15 -17
-12 -16 10 -3 -15 -15 -13 -16
-9 -12 8 -2 -13 -13 -10 -14
-8 -9 4 -3 -12 -12 -11 -13
-9 -9 4 0 -10 -9 -9 -11
-10 -7 6 2 -8 -9 -8 -10
-10 -6 9 4 -5 -8 -6 -9
-7 -8 11 7 -4 -8 -7 -10
-5 -9 12 8 -5 -8 -8 -11
-3 -7 13 11 -5 -6 -6 -10
-2 -4 13 15 -2 -3 -4 -7
-2 -2 14 18 3 1 -2 -5
0 1 14 20 5 4 2 -2
0 2 15 22 9 7 7 3
2 4 14 23 10 7 7 3
4 5 14 26 12 10 7 4
6 8 16 29 16 13 11 7
11 11 16 32 18 15 12 9
14 12 16 37 21 19 15 13
13 12 16 40 23 22 17 14
10 12 20 47 27 26 20 17
10 16 24 53 33 31 25 20
14 22 23 54 35 33 28 23
17 27 20 54 37 35 30 26
17 28 21 56 39 40 34 30
20 31 21 59 43 46 38 33
25 33 21 62 46 49 42 36
28 35 21 64 48 51 44 38
26 36 24 68 53 56 48 43
24 39 25 71 55 58 50 46
28 44 26 73 57 60 52 47
34 44 26 74 59 61 53 49
36 44 24 74 59 62 53 50
33 45 25 75 60 64 55 51
27 48 26 76 61 66 57 54
27 50 24 75 61 66 58 55
32 50 20 72 60 64 57 53
34 49 19 71 61 64 57 53
30 49 22 73 61 65 57 54
28 49 25 75 62 66 58 55
29 49 26 74 61 66 57 54
29 48 25 72 61 65 57 54
28 49 23 71 61 66 58 55
30 50 21 69 60 67 59 55
31 51 19 67 58 65 58 53
30 50 19 64 56 61 56 52
28 49 20 61 54 59 54 51
27 47 21 61 52 58 53 50
25 45 22 61 51 56 52 48
26 42 21 57 48 54 49 46
26 39 20 53 46 50 46 42
20 38 19 52 45 49 44 40
15 39 19 50 44 48 44 39
15 37 17 46 40 45 42 36
15 33 14 40 36 40 38 33
13 31 15 38 34 39 36 33
10 29 14 34 31 36 33 30
8 23 15 30 26 31 29 26
7 18 14 26 21 25 24 23
6 16 15 24 19 22 21 20
5 15 14 22 16 19 18 16
3 11 12 20 14 16 17 13
1 9 10 16 12 13 14 11
-2 9 10 12 10 11 14 11
-4 8 10 8 8 9 12 9
-2 8 7 4 4 5 7 5
-3 7 6 2 2 4 5 3
-6 4 7 0 0 1 3 0
-6 0 7 -4 -4 -4 0 -5
-6 -3 8 -6 -6 -6 -4 -8
-6 -5 7 -8 -9 -8 -7 -10
-8 -7 8 -8 -9 -9 -8 -9
-11 -9 8 -8 -11 -11 -9 -10
-13 -9 9 -9 -11 -13 -8 -10
-13 -9 8 -12 -13 -14 -8 -11
-14 -10 6 -14 -14 -14 -8 -12
-14 -11 3 -17 -17 -15 -10 -13
-14 -11 3 -18 -19 -16 -11 -13
-12 -11 3 -20 -20 -19 -13 -15
-11 -12 3 -19 -19 -18 -14 -16
-11 -13 4 -17 -16 -17 -13 -16
-11 -11 3 -16 -16 -17 -13 -15
-10 -10 2 -17 -16 -17 -12 -14
-10 -10 3 -18 -17 -17 -12 -14
-11 -11 3 -17 -17 -17 -11 -12
-14 -13 4 -16 -17 -16 -10 -11
-17 -15 4 -17 -17 -16 -10 -11
-17 -15 3 -18 -19 -16 -11 -12
-13 -14 2 -19 -20 -17 -12 -14
-11 -14 1 -20 -20 -20 -14 -16
-13 -13 3 -18 -18 -20 -15 -17
-14 -12 7 -14 -15 -17 -13 -15
-13 -11 7 -13 -14 -15 -11 -14
-13 -12 6 -15 -15 -16 -12 -15
-14 -12 5 -17 -18 -19 -14 -16
-16 -13 5 -16 -17 -18 -12 -15
-16 -13 4 -17 -16 -17 -12 -15
-14 -13 4 -17 -17 -17 -12 -15
-11 -13 4 -17 -19 -18 -13 -16
-10 -13 4 -17 -20 -18 -14 -17
-12 -14 5 -16 -20 -18 -14 -16
-14 -14 5 -16 -19 -18 -14 -15
-14 -14 5 -16 -17 -17 -12 -13
-14 -13 5 -15 -16 -15 -10 -12
-13 -13 5 -15 -17 -16 -11 -12
-13 -14 7 -14 -17 -16 -11 -12
-12 -15 6 -16 -19 -18 -12 -13
-12 -16 5 -18 -22 -20 -14 -15
-12 -17 5 -18 -22 -20 -15 -16
-12 -16 5 -18 -21 -20 -15 -16
-12 -15 5 -16 -20 -19 -14 -15
-12 -13 4 -16 -19 -18 -15 -15
-9 -12 4 -16 -17 -18 -14 -15
-8 -12 3 -17 -18 -19 -14 -16
-12 -11 4 -17 -18 -18 -14 -16
-14 -12 4 -17 -18 -18 -14 -16
-12 -12 3 -18 -19 -19 -16 -18
-8 -12 2 -20 -23 -22 -17 -20
-11 -13 4 -18 -21 -21 -15 -18
-14 -15 4 -18 -21 -22 -16 -18
-15 -18 5 -17 -21 -22 -16 -18
-14 -17 6 -19 -21 -22 -17 -18
-11 -15 6 -21 -21 -21 -18 -20
-11 -15 4 -21 -22 -22 -18 -20
-15 -16 3 -20 -22 -22 -17 -18
-16 -16 3 -20 -22 -23 -17 -18
-14 -18 4 -21 -23 -23 -17 -17
-13 -19 4 -21 -24 -23 -18 -18
-12 -18 3 -20 -23 -22 -19 -19
-12 -17 2 -20 -22 -23 -18 -19
-12 -15 2 -19 -22 -22 -17 -18
-13 -14 3 -18 -21 -21 -16 -17
-14 -12 4 -17 -19 -20 -16 -16
-15 -10 7 -14 -16 -18 -14 -14
-14 -8 8 -14 -15 -18 -13 -14
-10 -6 8 -15 -16 -19 -14 -15
-10 -4 9 -16 -18 -20 -14 -15
-10 -4 10 -16 -18 -21 -14 -16
-12 -5 10 -15 -17 -19 -13 -15
-13 -6 11 -13 -16 -16 -11 -13
-13 -4 12 -11 -14 -15 -9 -11
-11 -2 13 -10 -12 -14 -8 -10
-9 0 11 -10 -12 -15 -8 -12
-10 1 11 -10 -11 -15 -8 -11
-11 3 13 -8 -10 -13 -8 -9
-10 5 14 -7 -10 -13 -8 -9
-5 8 11 -10 -12 -14 -9 -10
-4 10 12 -9 -12 -14 -8 -10
-6 13 13 -8 -10 -12 -5 -8
-8 15 13 -7 -8 -10 -3 -5
-8 16 11 -9 -9 -10 -3 -5
-9 15 11 -9 -8 -10 -3 -5
-11 13 10 -10 -7 -10 -4 -5
-10 14 8 -11 -7 -10 -3 -4
-7 16 4 -12 -8 -10 -4 -5
-5 17 1 -12 -8 -10 -4 -4
-2 16 0 -14 -11 -11 -4 -5
1 13 3 -15 -12 -11 -4 -4
1 10 6 -13 -11 -11 -4 -3
1 8 5 -10 -9 -9 -3 -2
1 7 5 -7 -7 -8 0 0
1 6 4 -9 -8 -10 -3 -3
-2 4 3 -11 -9 -11 -5 -6
-4 2 2 -12 -9 -11 -5 -6
-5 0 1 -13 -11 -12 -7 -8
-7 -3 0 -16 -14 -15 -10 -11
-9 -7 1 -17 -16 -19 -12 -13
-10 -11 2 -18 -20 -22 -15 -16
-11 -15 2 -21 -24 -26 -19 -20
-12 -18 2 -23 -25 -28 -21 -21
-14 -19 1 -22 -24 -27 -22 -22
-14 -19 -2 -21 -24 -26 -21 -21
-12 -20 -5 -23 -24 -26 -21 -21
-12 -20 -5 -24 -24 -27 -22 -21
-14 -21 -4 -24 -24 -28 -22 -21
-14 -21 -4 -26 -26 -29 -24 -22
-13 -21 -4 -29 -28 -30 -25 -23
-13 -23 -4 -30 -30 -31 -26 -24
-13 -24 -4 -29 -30 -31 -26 -24
-13 -24 -4 -29 -30 -31 -25 -25
-12 -23 -4 -28 -29 -31 -25 -26
-11 -24 -4 -27 -28 -31 -25 -26
-11 -24 -4 -26 -28 -31 -25 -25
-13 -22 -4 -26 -27 -31 -24 -24
-16 -22 -3 -25 -27 -32 -24 -23
-16 -22 -5 -28 -28 -33 -25 -24
-14 -22 -7 -30 -30 -35 -27 -25
-12 -22 -5 -27 -28 -33 -26 -24
-11 -23 -4 -26 -26 -31 -24 -24
-11 -26 -5 -26 -27 -32 -26 -27
-11 -27 -4 -25 -27 -33 -28 -28
-12 -28 -3 -24 -27 -34 -30 -29
-12 -32 -3 -21 -28 -33 -32 -30
-9 -38 -3 -18 -29 -36 -35 -34
-3 -44 -2 -15 -29 -38 -38 -38
0 -44 3 -6 -24 -34 -36 -37
-2 -38 7 6 -14 -27 -30 -33
0 -26 15 23 5 -11 -17 -21
4 -11 23 43 25 9 0 -7
10 4 31 65 48 32 19 10
19 14 38 95 74 59 39 29
31 28 48 132 109 95 68 56
44 51 56 169 149 137 103 89
60 82 61 204 192 185 145 127
76 118 62 234 236 235 188 168
90 158 55 248 273 280 230 209
100 200 35 245 303 324 274 252
106 240 4 224 320 360 313 289
110 264 -32 191 320 377 336 312
108 258 -63 150 295 360 325 306
96 221 -89 97 237 303 276 265
75 165 -107 32 157 217 204 203
52 107 -122 -43 68 120 123 133
25 53 -131 -119 -18 23 45 61
2 14 -136 -189 -91 -60 -24 -2
-11 -6 -135 -222 -129 -103 -59 -36
-12 -14 -126 -208 -129 -106 -65 -46
-12 -24 -111 -179 -117 -98 -65 -48
-12 -37 -98 -159 -112 -97 -68 -53
-9 -47 -83 -140 -108 -97 -71 -58
-7 -49 -65 -115 -97 -91 -69 -60
-8 -46 -45 -90 -81 -78 -61 -55
-9 -39 -30 -69 -65 -65 -52 -47
-8 -32 -23 -55 -53 -54 -43 -38
-7 -29 -19 -48 -46 -48 -39 -35
-8 -28 -17 -45 -45 -47 -39 -35
-9 -28 -14 -40 -43 -47 -39 -36
-7 -29 -11 -36 -39 -45 -38 -36
-6 -30 -8 -33 -37 -43 -39 -37
-6 -31 -6 -32 -37 -44 -41 -38
-8 -32 -5 -31 -37 -44 -41 -37
-9 -31 -5 -31 -37 -44 -40 -37
-8 -31 -6 -30 -36 -43 -39 -36
-6 -30 -8 -30 -36 -43 -39 -37
-6 -29 -7 -30 -37 -43 -39 -36
-8 -28 -6 -30 -38 -44 -39 -36
-8 -27 -4 -30 -38 -44 -40 -35
-7 -27 -3 -28 -37 -43 -38 -34
-5 -27 -3 -27 -35 -40 -37 -34
-4 -28 -4 -27 -33 -38 -35 -33
-4 -28 -4 -26 -33 -38 -34 -33
-4 -28 -3 -26 -33 -39 -34 -33
-5 -27 0 -24 -31 -38 -34 -33
-5 -27 1 -23 -30 -36 -34 -32
-4 -27 2 -24 -29 -36 -34 -32
-5 -27 2 -25 -29 -37 -34 -32
-7 -28 2 -24 -28 -37 -34 -31
-9 -29 1 -23 -27 -36 -34 -30
-7 -29 1 -24 -28 -37 -35 -31
-3 -28 2 -23 -28 -37 -35 -31
1 -27 2 -23 -28 -36 -35 -32
1 -27 2 -23 -27 -35 -32 -30
-4 -26 2 -22 -26 -33 -30 -28
-6 -25 1 -22 -25 -32 -29 -28
-3 -23 -3 -22 -24 -33 -30 -29
1 -21 -3 -22 -24 -33 -31 -29
1 -21 0 -21 -25 -34 -32 -30
-2 -22 4 -18 -23 -33 -33 -30
-2 -23 7 -17 -22 -33 -33 -31
-2 -24 5 -16 -21 -32 -33 -30
-3 -25 4 -14 -19 -30 -31 -28
-2 -24 2 -14 -18 -29 -29 -27
1 -21 1 -14 -18 -28 -28 -26
2 -20 0 -14 -18 -28 -26 -25
1 -18 2 -15 -18 -26 -24 -22
0 -15 4 -14 -17 -25 -22 -21
-2 -15 6 -11 -15 -24 -20 -20
1 -17 7 -9 -15 -23 -19 -21
4 -18 7 -8 -14 -24 -20 -21
3 -18 9 -6 -12 -22 -21 -21
1 -18 10 -2 -8 -19 -20 -20
3 -17 9 2 -5 -16 -18 -18
5 -15 7 3 -5 -15 -18 -17
6 -14 7 5 -4 -13 -16 -16
7 -14 7 4 -4 -14 -19 -17
9 -13 8 5 -3 -14 -19 -16
11 -12 10 8 0 -13 -17 -16
13 -11 10 11 1 -12 -15 -15
12 -11 13 16 5 -8 -11 -12
12 -7 14 20 8 -5 -10 -11
14 -4 16 24 12 -2 -8 -10
16 -3 14 26 13 1 -7 -8
15 -3 13 28 15 4 -5 -5
15 0 15 31 18 7 -2 -2
18 2 18 35 22 10 2 2
22 2 18 37 24 12 2 3
22 3 20 42 27 15 5 5
23 4 21 47 31 20 8 8
26 7 22 52 35 24 12 12
28 12 24 57 39 29 16 16
29 16 26 61 43 32 19 18
32 18 25 63 47 36 22 21
35 20 25 67 51 40 25 23
36 25 28 72 57 47 30 28
35 27 30 76 62 52 35 32
34 27 29 78 63 54 36 34
36 28 29 81 63 55 36 34
38 30 31 85 67 59 39 37
40 34 32 87 70 62 42 38
40 36 33 89 73 64 45 42
40 37 34 91 76 67 48 44
40 38 33 91 76 68 49 46
39 38 32 91 78 71 51 49
40 40 31 90 77 71 51 51
44 42 28 88 75 70 50 50
44 42 27 87 75 70 50 50
39 44 29 90 77 72 52 53
40 46 30 91 77 73 52 53
45 47 28 88 76 72 50 52
47 47 28 86 76 72 50 52
47 48 26 84 74 71 50 50
47 48 25 84 76 71 51 51
43 49 25 84 77 71 51 53
38 48 25 82 76 71 51 54
38 48 23 77 72 68 47 51
42 46 21 72 67 63 43 48
40 44 20 68 64 60 39 46
38 42 21 66 61 57 37 44
37 39 21 64 59 54 34 42
35 37 21 61 56 51 32 37
32 35 22 58 55 49 30 35
34 33 20 53 51 46 27 32
35 30 17 49 47 43 24 30
30 30 17 47 44 39 21 27
26 29 17 45 44 37 20 26
25 26 16 38 39 33 16 24
20 21 17 35 35 28 12 22
16 16 18 31 31 24 9 18
15 12 17 26 26 18 5 13
13 10 17 24 22 16 3 11
11 8 17 23 21 15 2 10
10 7 15 18 19 14 2 8
7 4 14 14 16 11 -2 6
3 2 14 12 14 8 -5 3
0 0 14 10 11 4 -8 1
0 -3 13 7 8 1 -11 -2
-2 -5 11 4 4 -4 -14 -6
-3 -7 11 2 1 -6 -17 -9
-4 -8 11 0 1 -7 -18 -9
-5 -9 10 -3 -2 -9 -19 -10
-5 -11 9 -4 -2 -11 -20 -10
-5 -12 6 -6 -5 -12 -21 -11
-6 -12 6 -7 -6 -13 -21 -11
-8 -12 6 -10 -8 -15 -22 -13
-7 -11 5 -12 -10 -17 -23 -14
-4 -11 5 -15 -13 -18 -25 -16
-5 -12 5 -16 -14 -19 -26 -18
-10 -14 7 -13 -13 -18 -24 -17
-11 -15 5 -14 -14 -20 -26 -18
-8 -15 5 -16 -16 -21 -27 -19
-8 -14 6 -16 -15 -21 -27 -19
-11 -15 5 -16 -13 -19 -26 -18
-11 -17 4 -16 -12 -19 -26 -18
-10 -16 3 -18 -14 -20 -27 -19
-11 -15 3 -18 -15 -20 -27 -18
-13 -16 4 -17 -14 -19 -26 -16
-11 -16 5 -16 -14 -19 -26 -16
-9 -17 5 -17 -15 -20 -26 -17
-7 -17 7 -15 -13 -19 -25 -16
-6 -16 7 -15 -14 -19 -27 -17
-8 -18 7 -16 -14 -20 -27 -18
-10 -19 6 -17 -15 -21 -27 -18
-9 -19 4 -18 -17 -22 -27 -18
-8 -18 1 -20 -19 -23 -27 -19
-10 -16 1 -20 -18 -22 -26 -18
-11 -15 3 -19 -18 -21 -25 -17
-8 -14 3 -19 -18 -22 -26 -18
-8 -14 4 -18 -17 -22 -26 -19
-12 -13 5 -16 -15 -20 -25 -17
-12 -11 5 -16 -15 -20 -26 -17
-9 -13 5 -16 -15 -19 -26 -18
-8 -16 4 -16 -15 -20 -27 -19
-11 -16 3 -16 -16 -20 -26 -18
-13 -16 3 -15 -15 -20 -26 -17
-13 -16 4 -14 -15 -19 -26 -16
-12 -16 4 -15 -15 -19 -25 -16
-12 -17 4 -16 -17 -21 -26 -17
-11 -17 4 -17 -18 -22 -28 -19
-10 -18 5 -17 -17 -22 -29 -20
-11 -19 5 -15 -15 -22 -28 -20
-12 -19 5 -15 -16 -23 -28 -20
-13 -18 6 -15 -16 -22 -28 -20
-12 -18 6 -15 -15 -22 -27 -18
-12 -18 6 -15 -15 -22 -27 -18
-11 -19 5 -16 -15 -22 -27 -19
-9 -18 4 -17 -16 -22 -27 -19
-11 -17 3 -18 -18 -23 -27 -19
-14 -17 3 -18 -18 -23 -27 -19
-14 -18 2 -17 -17 -23 -27 -20
-12 -18 2 -17 -17 -23 -27 -21
-12 -18 2 -18 -19 -23 -28 -21
-14 -18 2 -19 -20 -24 -28 -22
-13 -18 2 -20 -20 -24 -29 -22
-11 -18 2 -21 -21 -25 -29 -23
-11 -18 2 -21 -20 -25 -28 -22
-12 -17 2 -21 -20 -24 -26 -20
-12 -15 4 -19 -19 -23 -24 -18
-12 -13 6 -17 -17 -22 -23 -18
-10 -12 7 -15 -16 -21 -22 -17
-8 -12 7 -13 -16 -20 -21 -16
-7 -11 8 -12 -14 -18 -19 -13
-8 -7 8 -12 -12 -16 -16 -12
-8 -4 7 -14 -12 -17 -15 -12
-8 -4 6 -15 -15 -20 -17 -13
-9 -5 5 -17 -16 -21 -17 -13
-9 -2 6 -16 -14 -20 -16 -13
-8 1 9 -13 -11 -18 -14 -13
-8 2 11 -11 -9 -16 -13 -13
-10 1 13 -8 -9 -14 -12 -12
-13 2 16 -5 -6 -13 -10 -10
-12 5 16 -3 -5 -12 -10 -9
-11 6 18 -3 -2 -10 -8 -7
-10 6 15 -4 -2 -10 -6 -5
-8 9 12 -6 -3 -10 -5 -5
-5 12 9 -8 -5 -11 -5 -5
-5 13 7 -10 -6 -11 -6 -5
-8 14 8 -9 -5 -11 -6 -5
-8 15 8 -10 -6 -12 -7 -7
-6 15 7 -12 -9 -14 -8 -8
-6 14 5 -13 -11 -15 -8 -8
-7 12 4 -14 -12 -14 -8 -8
-5 12 3 -14 -11 -12 -5 -6
1 13 1 -13 -10 -12 -4 -4
3 14 0 -13 -10 -12 -3 -4
4 14 -2 -14 -11 -13 -4 -5
6 12 -3 -14 -11 -13 -5 -5
5 10 -2 -13 -10 -13 -5 -5
1 8 0 -11 -9 -12 -5 -5
-2 6 3 -10 -8 -11 -5 -5
-3 3 3 -11 -10 -12 -7 -6
-7 -2 2 -12 -12 -15 -9 -7
-9 -6 0 -15 -15 -18 -12 -10
-8 -9 -4 -19 -20 -22 -16 -14
-9 -12 -3 -20 -21 -23 -17 -16
-13 -15 -3 -22 -22 -24 -18 -18
-13 -18 -3 -25 -24 -26 -20 -20
-11 -20 -5 -26 -27 -28 -22 -22
-10 -21 -4 -26 -27 -28 -22 -22
-11 -20 -3 -26 -28 -29 -23 -23
-11 -21 -3 -27 -29 -31 -25 -25
-12 -24 -4 -28 -30 -32 -26 -26
-14 -23 -5 -29 -32 -32 -26 -26
-17 -21 -3 -27 -29 -31 -23 -23
-17 -21 -3 -26 -28 -30 -23 -23
-16 -22 -4 -28 -30 -32 -23 -24
-17 -23 -4 -28 -31 -34 -24 -25
-18 -21 -2 -26 -31 -33 -23 -24
-16 -21 0 -26 -31 -33 -24 -23
-16 -23 -2 -27 -31 -33 -25 -23
-16 -24 -3 -28 -32 -34 -27 -24
-14 -23 -4 -28 -31 -33 -26 -24
-11 -22 -4 -26 -29 -30 -24 -23
-9 -21 -6 -27 -29 -31 -24 -24
-10 -21 -6 -27 -29 -31 -25 -24
-10 -21 -6 -26 -29 -31 -25 -24
-8 -20 -6 -27 -30 -32 -26 -25
-8 -21 -6 -27 -30 -32 -26 -26
-9 -27 -4 -26 -31 -34 -29 -28
-8 -33 -3 -24 -33 -37 -32 -31
-7 -38 0 -19 -33 -37 -36 -35
-7 -41 4 -10 -28 -35 -37 -37
-5 -39 8 2 -21 -30 -34 -35
-3 -31 14 15 -8 -21 -25 -28
1 -17 22 32 11 -5 -12 -17
5 1 29 54 34 19 8 1
12 14 38 82 61 45 29 19
22 26 46 116 91 73 51 38
34 44 56 155 129 113 82 66
48 71 64 194 174 161 122 103
60 105 70 231 224 217 171 148
71 144 68 256 268 269 218 193
82 187 53 260 301 315 263 235
95 231 23 246 325 357 307 277
102 267 -14 221 341 387 342 311
99 281 -48 187 334 392 351 322
89 263 -74 141 293 356 322 299
70 214 -95 79 219 279 257 243
51 152 -112 5 127 181 174 172
33 92 -129 -74 32 77 88 97
13 42 -137 -150 -54 -18 11 28
-7 9 -137 -203 -113 -83 -40 -20
-17 -5 -128 -211 -130 -104 -58 -39
-18 -13 -116 -185 -118 -96 -57 -43
-16 -22 -106 -160 -111 -91 -58 -47
-16 -32 -91 -141 -107 -91 -62 -52
-15 -37 -72 -118 -99 -87 -62 -55
-12 -38 -54 -95 -86 -77 -60 -54
-8 -35 -40 -76 -74 -70 -56 -52
-11 -29 -30 -60 -61 -59 -48 -44
-14 -25 -20 -47 -51 -51 -40 -37
-15 -25 -15 -41 -46 -47 -36 -34
-15 -25 -13 -36 -44 -45 -34 -34
-14 -26 -11 -32 -41 -43 -34 -34
-12 -27 -10 -30 -40 -43 -34 -34
-12 -28 -9 -30 -39 -44 -34 -34
-12 -28 -8 -29 -38 -43 -35 -35
-14 -29 -6 -27 -35 -40 -35 -35
-15 -30 -6 -26 -35 -40 -35 -35
-14 -29 -7 -27 -37 -41 -36 -36
-13 -28 -5 -26 -36 -40 -35 -35
-14 -28 -5 -25 -35 -41 -34 -34
-14 -28 -5 -25 -36 -43 -34 -34
-12 -27 -5 -26 -37 -43 -34 -34
-13 -26 -5 -25 -36 -41 -33 -34
-16 -25 -2 -22 -33 -39 -31 -34
-15 -24 -2 -21 -32 -38 -30 -34
-11 -23 0 -21 -30 -37 -30 -33
-11 -23 -2 -22 -31 -37 -30 -32
-11 -25 -3 -23 -33 -39 -33 -34
-10 -26 -4 -22 -32 -38 -33 -33
-10 -25 -4 -21 -31 -37 -32 -32
-11 -26 -3 -20 -31 -37 -32 -33
-9 -27 0 -19 -31 -37 -31 -33
-6 -26 0 -19 -31 -36 -30 -31
-7 -24 1 -18 -29 -34 -27 -30
-10 -23 2 -17 -28 -31 -25 -28
-10 -22 0 -18 -29 -32 -27 -29
-7 -22 -4 -19 -30 -32 -28 -30
-5 -21 -4 -18 -29 -33 -28 -30
-5 -20 -3 -17 -27 -33 -27 -30
-8 -19 -2 -16 -25 -33 -27 -29
-7 -19 0 -16 -26 -33 -27 -30
-4 -18 2 -15 -25 -33 -27 -30
-4 -18 2 -14 -25 -31 -27 -30
-11 -20 4 -11 -22 -29 -24 -28
-14 -22 3 -11 -22 -29 -24 -28
-12 -21 5 -10 -20 -28 -24 -26
-8 -21 4 -10 -21 -28 -24 -25
-7 -21 3 -10 -22 -28 -24 -25
-9 -20 2 -9 -23 -28 -23 -25
-11 -19 3 -6 -21 -25 -20 -23
-9 -18 4 -5 -20 -23 -19 -22
-7 -18 4 -4 -19 -23 -19 -24
-5 -16 4 -4 -19 -22 -18 -24
-6 -14 4 -2 -18 -21 -17 -23
-7 -13 4 1 -17 -19 -16 -22
-5 -13 4 3 -15 -18 -17 -22
0 -13 2 2 -15 -18 -17 -21
1 -11 3 5 -14 -17 -16 -20
0 -9 6 8 -11 -15 -13 -18
-3 -8 7 10 -8 -13 -12 -16
-4 -8 9 13 -6 -11 -9 -14
-2 -9 8 13 -7 -11 -9 -15
1 -9 8 15 -6 -9 -8 -14
1 -8 8 18 -3 -7 -6 -13
2 -5 10 22 2 -4 -5 -11
5 0 11 26 6 0 -3 -9
7 4 12 30 10 3 1 -5
9 8 13 33 13 6 4 -2
12 10 13 35 13 8 6 1
14 10 14 38 14 10 6 1
12 10 16 43 17 14 10 2
13 14 17 47 20 17 12 4
19 18 18 51 24 20 15 7
22 21 19 55 28 24 18 10
17 22 21 59 33 29 22 15
14 24 23 63 37 34 26 19
15 27 21 64 39 37 28 21
17 30 22 68 44 42 32 24
21 32 22 72 47 45 35 27
23 35 22 74 51 48 38 30
24 37 24 78 55 52 42 32
28 40 25 79 57 54 43 33
32 42 25 81 58 56 46 36
34 44 26 82 60 59 49 40
33 46 26 84 61 61 50 44
32 46 27 86 63 64 52 45
34 48 25 85 62 64 52 46
36 49 23 85 63 65 54 47
35 51 22 85 64 66 55 48
35 52 23 85 66 67 57 48
34 56 25 87 68 70 59 50
34 57 25 85 68 70 60 51
33 54 24 84 67 70 60 52
33 54 23 82 66 69 59 52
34 57 23 84 66 69 58 52
35 57 24 82 66 68 58 52
35 56 23 79 64 66 56 51
32 55 24 79 65 67 57 52
30 53 23 77 64 66 56 50
29 52 23 75 62 63 55 48
28 50 22 72 59 60 53 46
27 48 23 69 57 59 52 44
25 47 23 66 54 57 50 43
23 45 21 62 52 55 48 42
23 45 20 59 49 51 45 38
24 44 19 56 46 47 40 34
22 40 20 52 43 44 38 32
18 36 20 49 39 40 35 29
13 34 21 46 37 37 32 27
8 31 21 42 33 34 29 24
7 28 20 38 30 31 27 21
8 25 18 33 26 27 23 17
9 23 17 30 23 23 20 14
9 22 15 25 20 19 16 11
9 19 14 22 16 14 13 8
8 17 13 19 13 9 10 5
4 14 14 17 10 7 8 2
1 11 14 14 7 5 5 -2
1 10 12 10 3 2 2 -5
0 9 9 6 -2 -2 0 -6
0 8 8 3 -4 -4 -2 -7
-2 6 8 1 -6 -6 -4 -9
-2 4 6 -2 -8 -8 -6 -10
-2 3 6 -3 -9 -9 -7 -10
-3 2 6 -5 -11 -12 -9 -12
-4 0 7 -7 -13 -14 -11 -14
-5 -4 7 -8 -14 -15 -12 -16
-6 -4 7 -9 -15 -16 -13 -17
-7 -4 6 -10 -14 -15 -13 -18
-11 -6 7 -11 -14 -15 -12 -18
-12 -8 6 -13 -15 -17 -12 -18
-12 -7 6 -13 -15 -17 -13 -17
-11 -5 6 -14 -17 -18 -12 -16
-10 -5 5 -15 -18 -19 -13 -18
-9 -7 2 -17 -20 -21 -17 -20
-12 -8 1 -18 -20 -22 -18 -22
-12 -9 2 -18 -20 -21 -18 -22
-12 -8 3 -17 -20 -21 -18 -23
-12 -7 4 -15 -19 -20 -17 -22
-13 -7 5 -15 -19 -21 -17 -21
-14 -7 6 -14 -19 -20 -16 -20
-14 -7 6 -13 -18 -18 -15 -19
-13 -7 5 -14 -18 -18 -15 -18
-12 -8 4 -14 -18 -19 -16 -20
-12 -9 3 -13 -18 -20 -17 -20
-12 -9 3 -13 -17 -20 -16 -19
-11 -8 3 -15 -18 -20 -16 -18
-14 -8 5 -15 -18 -20 -14 -17
-15 -8 5 -16 -20 -20 -14 -18
-14 -9 4 -16 -21 -21 -14 -19
-12 -9 5 -15 -19 -21 -13 -19
-10 -7 5 -14 -19 -21 -14 -20
-9 -7 4 -15 -19 -20 -14 -19
-10 -8 4 -15 -18 -19 -15 -19
-11 -7 5 -14 -17 -19 -16 -20
-12 -6 6 -13 -16 -19 -17 -21
-9 -8 3 -15 -18 -21 -19 -22
-7 -8 3 -15 -18 -21 -18 -21
-9 -6 5 -14 -19 -21 -18 -20
-12 -7 7 -13 -19 -20 -17 -19
-12 -8 7 -14 -20 -21 -17 -19
-11 -9 7 -14 -20 -21 -17 -18
-13 -8 8 -13 -18 -20 -15 -17
-13 -8 8 -13 -19 -20 -14 -17
-12 -10 7 -14 -19 -20 -17 -20
-12 -12 7 -14 -19 -21 -18 -19
-10 -11 6 -17 -20 -22 -18 -19
-9 -11 5 -17 -21 -23 -18 -20
-10 -11 6 -15 -20 -23 -18 -20
-13 -12 5 -15 -20 -23 -18 -21
-14 -12 4 -16 -20 -22 -18 -21
-12 -10 4 -15 -20 -23 -18 -20
-10 -11 5 -17 -21 -24 -18 -20
-11 -14 3 -20 -23 -26 -20 -22
-14 -15 3 -20 -24 -25 -21 -23
-15 -13 5 -18 -21 -24 -21 -22
-13 -12 6 -19 -22 -24 -21 -22
-11 -12 5 -19 -23 -25 -21 -24
-10 -10 5 -18 -23 -25 -21 -24
-11 -8 6 -16 -21 -24 -20 -22
-10 -6 7 -15 -20 -23 -19 -21
-7 -3 7 -14 -20 -22 -19 -20
-5 0 7 -14 -19 -21 -18 -19
-7 -2 8 -12 -17 -19 -16 -17
-11 -2 9 -11 -16 -18 -14 -16
-12 0 10 -11 -15 -18 -14 -16
-10 0 9 -12 -16 -18 -14 -17
-9 1 8 -11 -15 -18 -14 -17
-8 3 9 -11 -15 -18 -13 -16
-6 6 10 -11 -16 -19 -12 -16
-6 6 12 -9 -14 -18 -12 -15
-9 6 12 -7 -12 -16 -12 -15
-10 8 13 -6 -10 -15 -10 -13
-9 10 14 -6 -8 -13 -8 -12
-7 12 12 -6 -8 -12 -8 -12
-6 14 11 -6 -8 -11 -7 -11
-4 16 10 -7 -8 -11 -6 -9
-3 18 9 -9 -9 -12 -6 -9
-3 19 9 -9 -9 -12 -5 -9
-5 20 10 -8 -8 -10 -3 -8
-8 19 10 -8 -8 -10 -3 -8
-10 18 8 -9 -10 -12 -5 -9
-8 18 7 -10 -10 -13 -5 -8
-2 18 5 -11 -10 -12 -4 -7
5 17 2 -12 -11 -12 -5 -8
6 16 1 -13 -11 -13 -7 -8
6 15 -2 -13 -12 -14 -7 -9
9 15 -3 -13 -13 -15 -8 -9
12 15 -4 -15 -15 -16 -9 -9
12 13 -6 -16 -16 -18 -10 -10
10 11 -9 -18 -18 -19 -11 -11
6 9 -8 -18 -18 -18 -10 -11
2 8 -4 -17 -17 -17 -9 -11
-2 6 0 -18 -17 -17 -8 -11
-2 3 -3 -20 -19 -19 -11 -14
0 -2 -6 -22 -22 -23 -15 -17
-2 -5 -6 -25 -25 -26 -19 -20
-5 -8 -4 -25 -26 -28 -21 -22
-9 -11 -2 -25 -25 -27 -21 -22
-9 -14 -2 -25 -26 -28 -22 -22
-9 -17 -3 -26 -28 -29 -23 -23
-11 -20 -3 -27 -29 -30 -24 -23
-12 -21 -3 -27 -28 -30 -24 -23
-12 -21 -4 -28 -29 -30 -24 -24
-11 -22 -5 -29 -30 -31 -25 -25
-12 -23 -7 -29 -30 -32 -25 -26
-14 -22 -7 -29 -29 -31 -25 -25
-16 -21 -5 -28 -28 -31 -24 -24
-17 -20 -4 -29 -28 -31 -24 -25
-16 -21 -7 -32 -31 -34 -26 -28
-14 -22 -9 -33 -34 -35 -28 -29
-14 -23 -8 -32 -34 -35 -28 -29
-14 -23 -7 -32 -33 -35 -27 -28
-12 -22 -7 -31 -33 -34 -26 -27
-10 -21 -8 -31 -33 -33 -26 -27
-13 -21 -7 -30 -31 -31 -24 -26
-15 -21 -7 -31 -32 -32 -24 -26
-15 -22 -8 -33 -33 -33 -24 -26
-12 -22 -8 -32 -33 -32 -24 -25
-11 -21 -9 -31 -32 -31 -24 -25
-10 -23 -8 -29 -31 -31 -24 -25
-9 -28 -11 -30 -35 -35 -28 -30
-7 -33 -9 -29 -36 -38 -32 -34
-3 -36 -5 -23 -34 -39 -34 -36
1 -35 -2 -13 -29 -36 -34 -37
-3 -32 5 0 -19 -30 -30 -33
-6 -22 12 15 -2 -17 -19 -24
1 -8 19 34 18 3 -3 -10
11 8 27 59 43 27 17 7
19 20 37 90 69 55 37 26
30 34 47 127 101 88 64 50
47 56 55 163 140 130 97 80
61 87 60 201 185 177 139 120
72 123 62 233 230 228 184 164
89 165 55 250 268 275 229 206
105 211 35 245 298 318 272 250
114 252 4 225 317 354 312 288
113 275 -30 195 321 372 337 314
106 269 -61 156 296 356 325 308
93 231 -86 102 236 299 277 268
74 173 -105 31 152 211 202 203
50 107 -122 -46 62 113 120 131
23 51 -136 -123 -21 20 44 60
5 13 -145 -193 -91 -57 -19 2
-7 -6 -141 -223 -124 -96 -49 -30
-14 -15 -128 -207 -121 -98 -54 -38
-14 -25 -115 -182 -111 -93 -54 -43
-11 -36 -102 -163 -107 -91 -58 -47
-10 -44 -85 -143 -102 -89 -59 -50
-12 -46 -65 -118 -91 -80 -57 -49
-9 -41 -49 -96 -76 -71 -52 -46
-4 -34 -37 -78 -63 -60 -45 -40
-4 -28 -31 -66 -52 -52 -38 -36
-8 -26 -26 -59 -46 -48 -35 -34
-9 -27 -25 -57 -46 -48 -35 -35
-9 -28 -24 -55 -45 -48 -35 -35
-11 -29 -21 -52 -44 -47 -34 -35
-11 -30 -18 -50 -41 -45 -34 -34
-12 -31 -16 -49 -41 -45 -35 -34
-14 -31 -14 -48 -40 -44 -34 -33
-13 -30 -15 -49 -41 -45 -35 -34
-11 -31 -15 -49 -40 -45 -35 -34
-12 -31 -14 -48 -39 -44 -34 -34
-13 -29 -14 -47 -39 -43 -33 -34
-12 -30 -14 -47 -39 -43 -32 -34
-13 -32 -14 -46 -38 -43 -32 -35
-14 -34 -12 -44 -36 -41 -31 -34
-14 -32 -12 -43 -36 -41 -32 -34
-14 -31 -10 -40 -35 -40 -32 -33
-12 -31 -12 -41 -35 -41 -32 -33
-11 -31 -12 -41 -34 -40 -32 -33
-12 -29 -12 -41 -34 -39 -31 -32
-11 -28 -12 -41 -35 -40 -31 -33
-12 -28 -12 -41 -35 -40 -31 -33
-14 -30 -11 -40 -34 -39 -31 -32
-16 -31 -10 -39 -33 -39 -31 -32
-16 -30 -10 -39 -32 -40 -31 -33
-15 -30 -10 -38 -31 -39 -30 -31
-13 -30 -9 -38 -31 -38 -29 -31
-10 -28 -8 -38 -30 -37 -28 -30
-10 -27 -10 -38 -32 -38 -28 -30
-10 -25 -10 -37 -33 -38 -27 -29
-9 -24 -10 -36 -30 -36 -26 -28
-10 -23 -11 -37 -29 -35 -26 -27
-11 -23 -12 -38 -29 -35 -27 -27
-9 -22 -13 -39 -31 -37 -28 -28
-8 -22 -12 -37 -31 -37 -27 -27
-7 -21 -12 -36 -31 -37 -27 -27
-8 -21 -8 -34 -28 -34 -26 -25
-10 -21 -6 -31 -25 -33 -25 -25
-10 -23 -7 -31 -25 -32 -24 -24
-8 -24 -8 -33 -26 -31 -25 -25
-7 -24 -8 -32 -23 -30 -24 -24
-12 -23 -7 -29 -20 -29 -22 -23
-13 -22 -6 -27 -19 -28 -20 -21
-10 -21 -5 -26 -18 -27 -19 -20
-11 -22 -4 -25 -18 -26 -19 -20
-11 -22 -4 -23 -17 -24 -17 -18
-5 -19 -4 -22 -16 -23 -16 -17
-5 -18 -5 -22 -15 -22 -15 -17
-9 -17 -6 -21 -14 -20 -15 -16
-10 -15 -6 -19 -12 -19 -14 -16
-7 -13 -7 -18 -12 -19 -14 -17
-5 -11 -8 -17 -11 -18 -14 -17
-4 -10 -6 -15 -10 -17 -13 -16
-2 -9 -5 -14 -8 -16 -11 -14
0 -8 -4 -11 -5 -13 -7 -12
0 -7 -2 -7 -2 -10 -5 -9
-2 -6 2 -3 3 -7 -3 -6
0 -6 4 2 7 -5 -3 -6
2 -4 4 5 9 -2 -2 -4
3 0 3 7 10 1 1 -2
3 2 5 11 14 5 5 3
5 4 4 12 15 6 7 5
7 5 4 15 17 8 9 7
9 7 4 18 18 9 12 9
10 10 7 22 21 12 14 11
10 12 10 27 26 18 18 14
10 14 11 32 31 22 21 17
12 17 12 36 36 26 24 20
18 22 11 37 37 29 26 22
21 26 12 40 39 31 29 25
21 28 11 44 44 34 31 27
21 31 10 47 47 37 34 31
22 33 11 50 51 42 37 34
26 34 11 52 52 44 39 36
29 36 12 53 53 47 42 39
32 39 12 53 53 49 44 42
34 43 13 55 55 52 48 45
36 46 13 58 57 55 51 48
37 48 13 59 59 58 54 51
39 49 12 58 59 58 54 51
39 50 12 58 60 59 55 52
35 52 13 61 64 62 58 55
34 53 15 62 66 63 59 56
36 53 14 61 64 62 58 55
40 52 13 59 62 60 57 54
42 53 12 58 61 60 57 54
37 55 13 60 63 63 60 56
34 55 13 61 64 65 61 57
34 53 13 59 65 65 60 57
35 52 12 58 64 65 60 58
35 54 11 59 65 65 60 58
33 54 11 58 64 64 59 59
30 51 12 54 60 60 57 57
28 46 11 50 56 56 54 54
30 45 10 48 53 52 52 52
31 45 10 45 51 51 50 50
30 44 12 45 51 51 50 50
28 43 13 43 50 49 48 48
27 42 13 39 48 46 44 45
26 39 13 36 45 44 39 40
23 37 11 32 40 39 35 36
21 34 10 28 36 34 32 32
18 30 8 23 30 28 28 27
14 25 7 19 27 24 25 24
9 23 8 19 27 22 25 23
7 25 7 16 26 21 24 22
8 23 4 12 24 20 21 20
9 20 1 8 20 16 18 16
9 17 0 3 15 11 13 12
6 15 0 -2 11 7 10 9
2 13 1 -3 8 5 8 7
0 11 2 -5 7 4 6 6
0 7 1 -8 4 1 4 4
0 3 1 -10 0 -4 1 1
-4 0 1 -12 -3 -7 0 -2
-6 -3 2 -13 -4 -8 -3 -4
-8 -4 2 -14 -4 -8 -3 -4
-8 -5 2 -15 -4 -9 -4 -4
-6 -6 1 -17 -6 -10 -5 -4
-7 -6 0 -18 -7 -11 -6 -6
-9 -6 -2 -20 -8 -13 -7 -7
-10 -6 -4 -22 -10 -15 -9 -8
-8 -7 -4 -24 -13 -16 -10 -9
-9 -9 -4 -24 -14 -16 -11 -9
-10 -9 -6 -25 -14 -18 -12 -11
-12 -9 -5 -25 -13 -17 -12 -11
-12 -9 -4 -24 -12 -16 -10 -10
-11 -7 -4 -23 -12 -15 -9 -9
-9 -5 -5 -24 -14 -16 -11 -10
-10 -7 -4 -25 -14 -17 -13 -11
-13 -10 -3 -25 -16 -17 -12 -11
-13 -11 -4 -26 -16 -18 -12 -11
-13 -13 -5 -28 -17 -21 -14 -13
-15 -15 -5 -27 -17 -21 -14 -14
-15 -14 -6 -28 -18 -22 -15 -16
-12 -10 -5 -27 -18 -23 -16 -18
-11 -10 -3 -26 -17 -22 -15 -18
-11 -11 -4 -25 -15 -21 -15 -17
-13 -10 -4 -24 -13 -19 -14 -17
-15 -9 0 -21 -9 -17 -13 -15
-17 -9 0 -19 -9 -17 -13 -14
-14 -10 -2 -21 -11 -18 -14 -14
-10 -11 -6 -25 -17 -20 -17 -15
-10 -13 -8 -27 -21 -22 -18 -15
-12 -14 -7 -26 -21 -20 -15 -11
-14 -12 -5 -24 -18 -19 -13 -11
-14 -11 -4 -23 -16 -18 -12 -11
-12 -11 -5 -23 -16 -18 -12 -12
-11 -12 -5 -23 -16 -18 -12 -12
-13 -12 -4 -22 -16 -20 -13 -13
-14 -12 -4 -23 -17 -22 -14 -14
-12 -12 -3 -23 -17 -22 -14 -14
-12 -12 0 -22 -16 -21 -13 -14
-13 -12 1 -21 -16 -20 -13 -13
-13 -13 2 -22 -16 -19 -14 -14
-13 -14 3 -22 -15 -18 -15 -14
-14 -14 2 -22 -16 -19 -15 -15
-14 -15 0 -21 -16 -19 -16 -15
-11 -15 -4 -22 -17 -20 -17 -16
-9 -14 -6 -23 -16 -21 -17 -17
-13 -14 -5 -21 -16 -20 -15 -15
-15 -15 -3 -22 -18 -21 -17 -16
-14 -14 -2 -23 -20 -25 -19 -18
-14 -14 0 -22 -20 -25 -18 -18
-13 -13 0 -23 -20 -25 -18 -19
-12 -14 0 -22 -19 -24 -17 -18
-12 -15 2 -20 -17 -22 -17 -18
-12 -15 3 -20 -16 -21 -17 -18
-13 -14 3 -19 -16 -20 -16 -17
-14 -13 1 -19 -16 -21 -17 -17
-15 -13 0 -18 -15 -21 -15 -16
-15 -10 1 -18 -14 -19 -15 -15
-13 -9 2 -18 -15 -19 -15 -15
-12 -9 3 -17 -15 -19 -15 -15
-14 -8 4 -14 -12 -18 -14 -14
-15 -7 6 -12 -10 -16 -13 -14
-13 -5 6 -13 -11 -17 -13 -14
-8 -5 4 -17 -14 -19 -14 -14
-6 -5 3 -20 -17 -20 -15 -14
-11 -4 4 -18 -15 -18 -12 -11
-13 0 3 -16 -13 -16 -10 -10
-12 2 4 -13 -11 -14 -9 -9
-9 4 5 -11 -9 -14 -9 -10
-6 6 6 -10 -10 -14 -11 -11
-5 7 7 -10 -9 -15 -11 -12
-6 7 8 -8 -7 -13 -11 -12
-8 7 9 -8 -6 -12 -9 -10
-7 10 8 -9 -6 -11 -8 -9
-5 12 7 -9 -6 -11 -7 -8
-5 12 6 -9 -7 -11 -6 -7
-6 12 5 -10 -7 -12 -6 -7
-5 12 4 -12 -7 -12 -6 -7
-5 13 3 -13 -8 -11 -6 -7
-5 13 4 -12 -6 -9 -5 -6
-3 14 3 -12 -6 -9 -4 -6
0 13 3 -11 -7 -9 -4 -4
2 12 1 -12 -9 -11 -5 -5
3 10 -3 -12 -10 -12 -7 -6
3 10 -3 -11 -8 -10 -6 -5
5 11 -4 -11 -8 -10 -6 -5
5 8 -4 -10 -10 -12 -8 -6
1 4 -2 -11 -10 -13 -8 -7
-4 2 0 -11 -10 -13 -8 -7
-6 -2 1 -11 -11 -14 -9 -8
-8 -5 2 -11 -11 -15 -10 -9
-8 -8 0 -14 -14 -17 -12 -12
-9 -11 -3 -18 -18 -20 -15 -15
-10 -15 -5 -21 -21 -22 -18 -18
-11 -16 -4 -22 -22 -24 -19 -18
-12 -16 -4 -24 -23 -26 -20 -19
-13 -16 -4 -25 -26 -28 -22 -21
-12 -17 -5 -27 -28 -30 -23 -22
-13 -19 -5 -27 -29 -31 -24 -23
-14 -21 -4 -26 -28 -30 -24 -23
-13 -22 -4 -26 -29 -30 -24 -23
-13 -23 -5 -26 -30 -32 -25 -25
-16 -26 -4 -26 -30 -32 -26 -25
-18 -27 -4 -26 -30 -32 -26 -26
-18 -27 -6 -27 -30 -32 -27 -27
-18 -26 -7 -28 -30 -33 -27 -28
-15 -25 -8 -30 -32 -35 -29 -31
-12 -23 -8 -30 -32 -34 -28 -30
-11 -22 -8 -29 -31 -32 -27 -28
-13 -22 -8 -29 -30 -32 -28 -28
-14 -23 -8 -29 -31 -33 -28 -29
-14 -23 -8 -29 -32 -34 -28 -28
-14 -23 -7 -29 -33 -33 -25 -26
-14 -24 -4 -28 -31 -32 -24 -25
-14 -24 -5 -27 -30 -31 -24 -26
-13 -23 -5 -26 -28 -30 -24 -26
-13 -22 -4 -24 -28 -30 -24 -25
-13 -24 -4 -26 -30 -32 -26 -27
-13 -29 -3 -25 -32 -34 -28 -29
-13 -34 -2 -23 -34 -36 -30 -31
-12 -38 2 -18 -33 -35 -32 -33
-7 -40 3 -10 -29 -34 -33 -34
-2 -39 6 1 -22 -29 -30 -33
0 -31 14 15 -9 -19 -23 -26
1 -18 24 33 11 -2 -7 -14
5 -4 31 55 32 20 12 3
11 9 38 81 57 46 32 21
21 22 47 114 87 76 57 43
36 43 54 149 120 112 86 69
52 70 60 186 160 157 122 104
64 105 63 220 204 207 168 146
76 146 62 243 245 258 213 190
92 190 50 247 278 301 256 232
105 233 23 230 300 339 298 274
111 264 -12 199 307 363 327 306
110 270 -44 162 292 360 330 312
102 245 -68 116 247 318 298 285
80 196 -87 57 176 242 234 230
56 136 -102 -13 92 152 156 162
32 77 -118 -88 8 58 77 91
9 33 -129 -161 -67 -27 8 25
-14 8 -130 -207 -115 -82 -36 -20
-24 -6 -119 -205 -124 -96 -50 -35
-22 -16 -108 -180 -115 -90 -50 -39
-16 -29 -98 -160 -112 -90 -55 -46
-17 -38 -85 -144 -111 -93 -61 -53
-18 -41 -64 -119 -101 -87 -59 -54
-14 -40 -47 -97 -90 -77 -55 -52
-13 -38 -32 -76 -76 -66 -48 -47
-14 -34 -22 -60 -63 -55 -40 -40
-17 -30 -12 -48 -51 -45 -34 -34
-18 -29 -6 -40 -47 -41 -32 -32
-18 -30 -2 -35 -46 -41 -31 -33
-18 -30 1 -32 -44 -41 -32 -34
-21 -31 3 -30 -41 -39 -32 -34
-21 -32 4 -28 -40 -38 -30 -33
-17 -31 2 -28 -41 -40 -31 -35
-17 -29 4 -27 -39 -38 -31 -34
-18 -29 5 -26 -38 -37 -28 -32
-17 -30 3 -27 -40 -38 -29 -33
-16 -30 3 -28 -41 -40 -30 -34
-18 -29 5 -26 -40 -39 -29 -32
-18 -29 5 -25 -40 -39 -28 -32
-17 -30 5 -24 -39 -38 -28 -31
-18 -31 5 -24 -40 -38 -28 -31
-20 -32 6 -24 -40 -39 -29 -32
-19 -30 7 -23 -38 -38 -29 -31
-18 -28 7 -23 -35 -34 -26 -30
-17 -27 8 -22 -35 -33 -25 -29
-16 -27 7 -22 -37 -35 -27 -32
-15 -28 8 -22 -36 -35 -27 -32
-18 -29 10 -20 -33 -32 -25 -29
-21 -31 11 -19 -33 -33 -25 -29
-20 -31 12 -19 -34 -35 -26 -30
-17 -30 13 -20 -35 -36 -28 -31
-17 -31 11 -21 -35 -36 -28 -32
-20 -31 10 -19 -32 -33 -26 -30
-19 -28 9 -19 -30 -30 -23 -27
-14 -26 6 -23 -33 -32 -23 -28
-13 -26 3 -24 -33 -32 -23 -28
-14 -25 3 -24 -33 -33 -23 -29
-17 -24 6 -23 -31 -32 -23 -28
-19 -26 8 -20 -29 -32 -23 -28
-19 -29 10 -17 -26 -31 -22 -27
-16 -30 10 -17 -27 -31 -23 -28
-16 -30 12 -16 -27 -31 -23 -27
-21 -29 14 -14 -24 -28 -20 -24
-23 -28 13 -14 -22 -27 -19 -23
-19 -25 10 -14 -22 -27 -18 -23
-16 -23 8 -14 -21 -26 -17 -23
-16 -23 8 -12 -19 -24 -16 -22
-18 -24 9 -11 -17 -24 -16 -22
-20 -25 9 -10 -16 -25 -18 -22
-20 -26 9 -9 -15 -24 -20 -24
-20 -25 9 -8 -14 -23 -18 -23
-19 -23 9 -7 -14 -23 -17 -22
-17 -23 9 -5 -13 -23 -16 -22
-16 -22 11 -3 -10 -20 -14 -22
-17 -21 12 0 -7 -17 -12 -20
-18 -21 12 2 -4 -15 -10 -17
-17 -20 10 2 -3 -15 -9 -16
-16 -18 11 4 -2 -13 -8 -14
-16 -18 13 7 1 -11 -7 -14
-17 -20 14 10 3 -10 -7 -14
-18 -20 15 13 6 -7 -3 -10
-18 -18 15 14 7 -5 1 -7
-16 -16 17 18 10 0 4 -5
-14 -14 18 21 13 4 6 -3
-13 -11 18 23 15 5 8 0
-11 -9 18 26 17 6 9 1
-9 -6 20 31 23 10 11 3
-8 -4 20 34 27 14 13 5
-9 -3 21 38 29 17 16 8
-8 -3 23 43 31 20 18 9
-5 0 25 47 35 24 22 14
1 3 24 49 37 27 25 17
2 5 23 51 42 31 29 21
0 7 23 54 46 36 34 26
1 11 23 56 49 38 36 28
4 14 23 59 51 40 37 29
8 17 23 61 54 43 38 30
13 21 23 62 56 45 40 31
17 24 25 65 58 49 43 33
15 25 27 69 62 53 48 37
12 26 27 73 66 57 53 43
14 28 27 74 68 60 55 45
16 30 27 76 71 63 58 48
16 32 27 76 73 66 60 50
17 33 26 77 74 67 61 51
20 33 25 77 74 66 60 50
22 33 24 76 73 65 59 50
20 34 25 76 72 66 60 52
20 35 24 76 71 66 62 53
23 36 22 75 71 67 62 52
25 38 20 73 71 67 62 51
25 40 22 73 73 68 63 53
24 42 24 74 74 69 64 54
22 39 23 73 75 70 64 55
19 39 21 71 73 68 63 55
19 39 21 70 73 67 62 54
21 40 19 68 71 67 62 53
19 37 19 66 71 67 62 53
17 34 18 62 67 62 59 50
16 31 18 59 64 59 56 47
14 29 17 55 61 56 53 45
12 27 16 51 57 52 50 43
9 26 18 49 55 50 50 42
9 25 19 45 52 46 48 38
7 25 19 42 49 44 47 36
5 23 17 38 47 42 44 33
5 21 16 35 46 39 42 30
3 17 17 33 45 37 38 28
1 12 17 31 40 31 33 24
1 9 16 26 34 24 26 18
1 6 14 20 28 19 22 15
-2 4 13 15 24 15 19 12
-5 1 12 12 21 13 17 10
-6 0 10 8 18 11 17 8
-7 0 7 4 14 7 14 5
-8 0 7 1 12 4 11 2
-8 -4 9 -3 9 1 8 -2
-8 -7 9 -6 7 -3 5 -4
-10 -9 9 -6 7 -4 3 -6
-14 -10 10 -6 8 -4 3 -7
-17 -11 9 -8 6 -5 2 -8
-14 -13 7 -11 4 -7 0 -9
-11 -14 4 -14 1 -9 -3 -11
-10 -14 1 -17 -2 -10 -5 -13
-12 -15 1 -20 -5 -12 -6 -13
-12 -16 2 -21 -6 -13 -7 -14
-13 -17 4 -21 -6 -12 -6 -12
-16 -18 6 -21 -7 -12 -5 -11
-21 -20 7 -21 -8 -14 -5 -11
-20 -21 5 -23 -9 -16 -7 -14
-18 -21 3 -25 -12 -18 -8 -15
-18 -21 2 -26 -12 -18 -8 -15
-17 -21 -2 -25 -11 -18 -9 -15
-16 -21 -3 -26 -12 -20 -10 -16
-17 -20 0 -26 -13 -20 -10 -16
-19 -20 2 -25 -13 -19 -9 -15
-20 -21 1 -26 -13 -19 -8 -15
-21 -22 -2 -27 -13 -20 -8 -16
-21 -21 1 -26 -13 -20 -8 -16
-19 -19 2 -26 -13 -20 -9 -17
-19 -19 1 -27 -14 -21 -10 -18
-21 -19 0 -27 -14 -21 -11 -20
-20 -18 2 -26 -12 -19 -10 -20
-16 -17 3 -26 -11 -19 -11 -20
-15 -18 3 -26 -11 -19 -11 -19
-17 -18 2 -26 -12 -19 -11 -19
-18 -19 1 -26 -12 -19 -11 -17
-18 -18 3 -25 -10 -17 -9 -15
-16 -18 4 -23 -9 -16 -8 -13
-15 -18 3 -24 -10 -17 -9 -14
-14 -18 1 -26 -12 -19 -11 -17
-14 -16 1 -25 -12 -19 -10 -17
-15 -15 1 -25 -12 -18 -9 -17
-15 -15 1 -25 -12 -18 -9 -16
-14 -14 2 -24 -12 -18 -8 -15
-12 -13 3 -23 -11 -17 -7 -15
-11 -13 2 -24 -12 -18 -8 -15
-13 -14 2 -25 -13 -20 -9 -16
-14 -16 3 -24 -13 -21 -10 -17
-12 -17 5 -24 -14 -22 -11 -19
-12 -15 7 -22 -12 -21 -11 -18
-14 -15 5 -22 -12 -21 -11 -18
-16 -17 3 -21 -11 -19 -10 -16
-15 -16 0 -23 -14 -22 -12 -18
-13 -15 0 -26 -17 -24 -15 -20
-13 -14 0 -27 -17 -24 -15 -20
-15 -15 1 -26 -16 -22 -12 -18
-18 -17 3 -25 -15 -20 -10 -18
-18 -20 4 -25 -15 -19 -10 -18
-15 -21 1 -26 -17 -21 -12 -20
-14 -20 -2 -27 -17 -22 -13 -21
-16 -18 0 -27 -17 -22 -13 -20
-14 -16 1 -27 -18 -22 -13 -19
-13 -15 0 -27 -17 -22 -13 -18
-14 -14 0 -26 -17 -22 -12 -18
-15 -16 1 -25 -17 -22 -11 -18
-15 -16 1 -25 -16 -21 -11 -17
-14 -13 2 -24 -15 -20 -11 -17
-15 -10 3 -24 -16 -21 -11 -18
-16 -11 4 -24 -17 -22 -12 -19
-17 -10 4 -25 -19 -24 -13 -20
-17 -8 4 -23 -17 -22 -11 -19
-14 -6 5 -22 -16 -20 -10 -17
-14 -7 8 -22 -14 -19 -8 -15
-17 -8 8 -22 -14 -19 -8 -15
-18 -8 8 -20 -14 -18 -9 -16
-15 -6 9 -18 -11 -16 -8 -14
-13 -4 9 -17 -10 -15 -8 -13
-10 -5 11 -16 -10 -15 -8 -12
-10 -6 12 -16 -11 -16 -9 -13
-11 -5 14 -16 -11 -15 -9 -12
-12 1 15 -13 -9 -13 -6 -10
-13 5 16 -9 -4 -9 -2 -7
-11 8 16 -10 -4 -8 1 -6
-8 10 15 -13 -7 -11 0 -8
-7 13 12 -15 -7 -12 0 -7
-8 14 10 -16 -7 -10 2 -6
-8 15 9 -17 -8 -10 1 -7
-7 15 7 -19 -11 -13 -3 -9
-7 14 7 -18 -10 -12 -3 -8
-8 14 5 -18 -10 -12 -3 -8
-8 14 7 -17 -9 -11 -3 -8
-6 14 6 -17 -10 -12 -3 -8
-4 14 4 -17 -10 -11 -2 -7
-2 13 0 -19 -12 -13 -4 -8
1 11 -4 -20 -13 -13 -4 -8
1 11 -3 -21 -12 -11 -3 -6
0 9 -2 -19 -11 -9 0 -4
-2 6 1 -18 -13 -11 -2 -4
-3 3 1 -19 -16 -14 -6 -7
-3 2 1 -20 -17 -16 -9 -10
-2 0 1 -20 -17 -18 -10 -12
-5 -6 1 -22 -19 -19 -12 -14
-13 -9 2 -21 -17 -18 -11 -13
-14 -10 2 -20 -16 -19 -13 -14
-9 -12 -2 -23 -20 -24 -18 -19
-7 -15 -3 -25 -24 -28 -21 -21
-10 -16 0 -24 -26 -29 -23 -21
-12 -18 1 -23 -27 -29 -23 -21
-12 -21 -2 -24 -28 -30 -24 -23
-13 -21 -3 -26 -28 -30 -24 -23
-14 -20 -4 -28 -29 -30 -24 -24
-14 -20 -4 -27 -29 -31 -26 -25
-14 -22 -5 -27 -29 -31 -27 -26
-15 -24 -6 -26 -29 -32 -28 -26
-16 -23 -6 -26 -30 -33 -30 -27
-14 -21 -4 -26 -30 -32 -30 -27
-11 -20 -4 -26 -30 -33 -31 -28
-12 -21 -4 -26 -31 -34 -34 -29
-14 -23 -4 -26 -32 -35 -36 -31
-14 -23 -4 -25 -30 -33 -36 -29
-12 -22 -4 -23 -28 -31 -34 -27
-13 -23 -4 -22 -27 -30 -33 -25
-13 -23 -4 -21 -27 -30 -33 -24
-11 -24 -4 -21 -27 -30 -34 -24
-11 -24 -4 -22 -28 -31 -35 -25
-11 -25 -4 -22 -30 -32 -36 -27
-11 -26 -5 -23 -31 -33 -38 -29
-10 -27 -6 -23 -33 -35 -40 -31
-9 -31 -7 -20 -33 -37 -43 -32
-8 -36 -5 -15 -32 -37 -45 -33
-7 -40 1 -7 -29 -36 -48 -36
-4 -41 6 4 -24 -33 -48 -38
0 -36 11 15 -15 -27 -45 -35
2 -26 17 31 3 -12 -31 -25
4 -12 25 51 24 10 -13 -9
9 3 33 75 48 34 9 11
21 16 42 107 78 65 33 33
33 34 50 146 115 102 63 59
44 58 59 184 157 149 101 94
57 90 63 218 203 199 143 132
74 126 63 244 246 250 186 173
89 167 52 256 281 297 230 215
100 212 27 245 309 342 274 260
104 253 -6 218 327 378 314 301
101 273 -40 184 329 394 336 323
93 260 -69 143 301 372 320 313
77 215 -93 89 236 307 264 266
56 156 -109 20 148 213 183 195
35 99 -123 -58 54 108 95 118
15 47 -132 -136 -36 7 14 45
-8 11 -132 -196 -106 -72 -49 -13
-21 -6 -126 -215 -136 -107 -76 -40
-20 -15 -116 -198 -133 -106 -79 -48
-15 -27 -108 -174 -124 -101 -81 -53
-13 -39 -96 -154 -121 -101 -88 -60
-11 -44 -78 -131 -113 -97 -89 -64
-8 -45 -60 -105 -100 -89 -86 -63
-6 -43 -44 -80 -85 -77 -78 -58
-7 -36 -30 -62 -70 -66 -68 -50
-9 -30 -21 -48 -57 -54 -60 -43
-10 -29 -15 -38 -50 -48 -57 -37
-10 -31 -12 -32 -46 -44 -55 -35
-11 -32 -10 -29 -44 -43 -55 -35
-9 -33 -8 -27 -43 -41 -55 -35
-6 -33 -7 -27 -44 -44 -58 -38
-7 -33 -7 -26 -44 -45 -60 -40
-12 -34 -7 -25 -40 -45 -60 -40
-13 -34 -5 -22 -39 -43 -58 -38
-10 -32 -4 -21 -40 -43 -58 -39
-9 -32 -3 -22 -39 -41 -58 -37
-10 -33 -5 -24 -41 -43 -60 -38
-9 -33 -3 -23 -41 -44 -60 -38
-7 -32 -3 -22 -40 -44 -60 -38
-8 -33 0 -20 -38 -41 -59 -36
-8 -34 0 -20 -38 -43 -60 -38
-9 -34 0 -20 -38 -44 -61 -39
-9 -33 0 -20 -37 -41 -59 -37
-8 -31 1 -19 -36 -39 -58 -36
-7 -31 1 -17 -36 -38 -57 -36
-6 -31 0 -19 -37 -39 -58 -37
-7 -30 -2 -20 -38 -39 -59 -36
-8 -29 0 -19 -38 -38 -59 -36
-6 -30 0 -17 -37 -37 -60 -35
-5 -30 1 -16 -36 -37 -59 -34
-6 -30 2 -15 -34 -36 -58 -33
-7 -30 4 -14 -33 -35 -57 -32
-8 -31 6 -12 -32 -33 -54 -30
-8 -30 6 -12 -31 -33 -52 -29
-5 -29 4 -13 -31 -33 -52 -30
-3 -28 2 -14 -31 -33 -53 -30
-4 -27 2 -14 -31 -32 -53 -30
-3 -26 1 -14 -31 -33 -56 -32
1 -26 2 -13 -31 -34 -58 -33
1 -25 4 -11 -31 -33 -57 -32
-3 -26 5 -9 -30 -32 -56 -32
-4 -26 6 -7 -28 -31 -54 -31
-5 -24 6 -7 -27 -30 -52 -29
-5 -22 6 -7 -27 -27 -49 -26
-3 -22 4 -8 -29 -29 -50 -29
1 -22 2 -10 -29 -29 -50 -29
0 -22 3 -8 -28 -28 -49 -28
-2 -21 5 -6 -26 -26 -50 -27
0 -20 6 -3 -24 -24 -50 -27
0 -19 5 -2 -23 -24 -50 -27
-2 -19 7 1 -21 -25 -49 -27
-3 -20 8 2 -20 -24 -49 -27
-4 -19 9 4 -18 -21 -46 -25
-4 -17 11 7 -16 -18 -41 -21
0 -17 11 9 -15 -17 -40 -20
4 -17 10 8 -16 -18 -40 -21
5 -17 10 9 -14 -16 -38 -20
6 -15 10 12 -11 -13 -36 -17
9 -13 10 14 -9 -11 -35 -16
8 -11 11 18 -6 -9 -34 -13
4 -10 14 22 -3 -7 -33 -12
4 -8 14 25 1 -4 -31 -11
9 -7 13 27 2 -3 -30 -11
13 -5 12 27 2 -2 -29 -11
13 -4 14 32 6 4 -26 -9
13 0 15 36 11 8 -22 -5
16 2 16 39 14 11 -20 -4
15 4 19 46 19 15 -17 -2
14 5 22 51 24 20 -14 4
16 6 23 55 28 24 -11 8
20 8 23 58 30 27 -8 10
22 11 23 61 34 30 -6 12
23 14 23 65 38 34 -2 16
24 17 24 69 42 38 3 19
27 19 23 72 45 42 6 22
28 22 24 76 48 47 10 25
27 24 25 77 51 51 13 28
29 28 27 79 54 54 16 30
32 32 28 82 57 57 19 32
33 35 29 87 62 61 22 35
35 36 29 90 66 63 24 37
36 38 29 91 68 65 26 39
35 40 29 92 68 67 28 43
34 43 29 94 70 70 30 46
37 43 28 93 70 71 29 45
36 42 29 93 72 73 30 46
31 43 30 94 74 76 33 49
31 45 29 95 75 76 34 49
36 46 28 94 75 75 33 48
35 47 28 93 73 75 34 48
33 45 28 92 72 75 35 50
35 44 26 89 71 74 35 50
37 46 24 87 70 74 36 51
36 47 24 87 70 75 38 53
36 47 23 86 71 76 39 54
37 47 24 84 71 75 38 53
37 47 24 80 69 72 35 51
34 45 24 77 64 67 31 47
29 40 24 75 61 64 29 46
28 39 24 71 59 61 27 44
27 39 24 68 56 58 24 40
24 37 24 66 55 57 23 39
23 35 22 63 52 54 21 37
21 33 21 60 49 51 19 34
20 32 21 57 47 49 17 32
21 31 19 53 44 46 14 29
21 29 18 48 39 42 11 27
19 27 18 43 34 36 8 23
16 24 18 38 30 31 4 20
13 21 18 35 27 27 1 16
14 17 16 31 23 23 -5 11
14 15 16 27 20 19 -8 8
11 13 15 24 17 16 -10 5
7 10 16 22 16 14 -11 5
7 8 14 17 11 9 -16 0
8 4 12 12 6 4 -20 -4
5 0 12 8 3 1 -21 -5
1 -2 9 5 -2 -3 -24 -8
1 -2 8 3 -5 -5 -27 -10
-2 -5 9 2 -6 -5 -27 -11
-4 -7 8 0 -8 -8 -28 -13
-3 -7 8 -3 -8 -10 -29 -14
0 -7 7 -7 -9 -12 -31 -16
-2 -8 6 -8 -11 -13 -32 -16
-7 -9 7 -8 -12 -13 -31 -16
-9 -11 8 -9 -13 -13 -31 -15
-8 -12 7 -11 -13 -13 -32 -15
-7 -13 7 -12 -14 -14 -32 -16
-5 -13 7 -12 -15 -15 -32 -17
-2 -13 4 -14 -18 -18 -35 -20
-3 -14 3 -15 -19 -21 -37 -22
-5 -13 5 -14 -17 -20 -36 -20
-6 -12 5 -14 -17 -20 -35 -19
-7 -13 5 -15 -18 -20 -34 -19
-8 -13 5 -15 -18 -19 -33 -19
-8 -13 4 -16 -18 -18 -32 -18
-9 -13 5 -16 -18 -17 -32 -18
-11 -14 6 -15 -18 -17 -32 -19
-10 -13 4 -15 -17 -19 -34 -21
-7 -12 4 -15 -16 -18 -34 -21
-6 -12 4 -15 -17 -19 -34 -21
-9 -12 5 -14 -17 -20 -33 -21
-10 -13 4 -15 -18 -21 -34 -21
-8 -14 4 -16 -19 -21 -34 -20
-7 -13 3 -17 -20 -21 -35 -21
-10 -11 5 -14 -18 -17 -31 -18
-10 -12 4 -15 -18 -16 -30 -17
-7 -13 2 -17 -19 -19 -32 -19
-8 -12 2 -15 -17 -19 -30 -19
-9 -10 4 -12 -14 -17 -29 -17
-9 -10 6 -12 -15 -17 -29 -18
-8 -11 5 -14 -17 -18 -31 -19
-8 -13 5 -15 -17 -18 -30 -18
-9 -13 5 -16 -18 -19 -31 -18
-10 -13 5 -16 -18 -19 -31 -17
-9 -12 5 -15 -17 -17 -29 -17
-8 -13 5 -15 -17 -16 -28 -16
-8 -14 3 -15 -17 -17 -28 -17
-9 -15 1 -14 -17 -16 -28 -18
-9 -13 0 -16 -18 -17 -30 -18
-8 -11 1 -16 -17 -18 -30 -17
-7 -11 1 -15 -18 -18 -30 -18
-7 -13 1 -16 -20 -21 -31 -20
-8 -14 3 -16 -19 -20 -31 -19
-7 -13 3 -15 -19 -20 -31 -20
-7 -12 4 -14 -17 -19 -29 -19
-9 -13 6 -14 -18 -19 -29 -19
-11 -14 6 -15 -19 -19 -29 -19
-11 -14 5 -17 -21 -20 -30 -19
-12 -15 4 -17 -21 -19 -29 -18
-12 -16 3 -17 -21 -20 -28 -19
-9 -17 2 -19 -22 -22 -29 -20
-8 -16 3 -19 -22 -22 -28 -21
-10 -15 2 -19 -22 -22 -27 -21
-10 -14 2 -18 -22 -22 -27 -20
-9 -13 2 -19 -22 -23 -27 -20
-10 -12 3 -18 -21 -22 -26 -19
-9 -10 4 -16 -20 -21 -24 -19
-5 -7 5 -15 -19 -20 -23 -19
-5 -5 6 -14 -17 -19 -22 -19
-10 -4 8 -12 -14 -17 -20 -16
-11 -4 9 -10 -12 -16 -18 -14
-8 -5 8 -11 -13 -17 -18 -13
-7 -3 8 -11 -13 -16 -17 -13
-7 0 8 -11 -13 -16 -17 -13
-9 1 10 -9 -11 -13 -15 -12
-10 1 12 -9 -11 -13 -15 -12
-8 3 12 -9 -11 -14 -14 -11
-4 4 11 -9 -10 -14 -13 -11
-4 5 11 -7 -9 -12 -12 -10
-6 6 12 -6 -8 -11 -11 -9
-5 8 11 -5 -8 -10 -10 -9
0 12 10 -6 -8 -10 -10 -9
1 16 10 -6 -6 -9 -7 -7
-2 18 8 -8 -6 -9 -6 -6
-4 19 6 -10 -7 -9 -6 -6
-2 20 6 -12 -9 -9 -5 -5
0 20 7 -12 -10 -10 -5 -4
0 18 5 -15 -11 -12 -7 -5
2 18 3 -15 -10 -11 -6 -4
4 19 3 -13 -8 -9 -5 -3
4 18 1 -11 -8 -8 -3 -2
5 16 -3 -13 -10 -11 -5 -2
6 14 -2 -13 -11 -11 -5 0
7 15 -4 -13 -11 -10 -4 0
7 14 -4 -13 -10 -9 -3 0
5 13 -2 -14 -10 -8 -2 0
3 11 2 -12 -9 -8 -2 0
3 8 2 -12 -10 -10 -4 -2
1 5 0 -14 -12 -13 -8 -5
-2 1 0 -16 -14 -15 -11 -8
-3 -4 0 -17 -16 -17 -13 -10
-4 -7 -2 -20 -19 -20 -15 -13
-6 -11 -2 -21 -20 -22 -18 -16
-10 -14 0 -22 -21 -24 -19 -18
-14 -15 0 -23 -24 -25 -20 -18
-15 -16 0 -23 -23 -25 -19 -18
-12 -17 -3 -25 -25 -26 -21 -21
-11 -18 -4 -27 -26 -27 -21 -23
-11 -19 -4 -27 -26 -28 -22 -22
-10 -19 -6 -29 -28 -30 -25 -24
-9 -20 -5 -30 -30 -32 -26 -25
-8 -21 -5 -30 -30 -32 -25 -25
-8 -21 -4 -28 -30 -32 -25 -25
-8 -20 -3 -28 -30 -31 -26 -25
-8 -20 -3 -28 -30 -31 -26 -25
-9 -21 -3 -28 -29 -31 -25 -24
-12 -21 -2 -28 -28 -30 -24 -23
-14 -22 -3 -28 -29 -30 -24 -23
-14 -24 -4 -30 -31 -31 -25 -24
-12 -25 -7 -32 -34 -34 -28 -27
-11 -24 -7 -30 -32 -33 -27 -25
-10 -23 -6 -28 -30 -31 -25 -23
-10 -22 -9 -29 -30 -31 -25 -24
-12 -24 -10 -30 -31 -31 -25 -24
-14 -25 -10 -30 -32 -32 -26 -25
-13 -24 -10 -31 -33 -33 -27 -25
-12 -24 -8 -29 -32 -33 -28 -26
-8 -27 -8 -26 -34 -35 -30 -31
-6 -34 -6 -22 -35 -37 -33 -35
-5 -41 -2 -15 -31 -37 -36 -37
-3 -44 2 -7 -27 -35 -37 -39
1 -39 8 5 -18 -29 -32 -34
1 -29 16 22 0 -14 -20 -22
1 -15 25 45 22 8 0 -5
7 1 31 68 47 32 20 14
18 14 40 99 75 61 43 34
28 29 52 137 111 98 72 59
39 54 61 176 154 143 109 92
54 87 65 212 200 194 153 131
68 126 66 242 250 248 201 176
79 169 57 260 293 301 250 220
92 215 33 255 324 347 295 265
101 256 -2 232 345 385 335 304
101 279 -39 200 346 401 356 325
91 273 -70 161 323 386 348 320
76 236 -94 107 264 327 298 279
60 179 -111 37 176 236 220 213
42 115 -128 -41 78 130 133 137
19 59 -138 -120 -16 26 49 63
0 20 -141 -187 -92 -59 -19 2
-14 0 -135 -215 -129 -101 -52 -32
-15 -13 -124 -199 -128 -103 -58 -43
-13 -22 -113 -174 -117 -97 -59 -48
-13 -35 -98 -152 -112 -95 -63 -53
-16 -44 -78 -130 -104 -92 -63 -54
-16 -47 -60 -104 -92 -82 -61 -52
-12 -45 -45 -81 -77 -72 -56 -49
-10 -38 -32 -62 -63 -62 -48 -44
-9 -33 -24 -50 -52 -53 -41 -38
-11 -32 -19 -43 -46 -49 -39 -38
-13 -32 -15 -37 -44 -48 -38 -37
-14 -33 -11 -33 -40 -46 -37 -36
-14 -33 -10 -30 -38 -45 -36 -35
-14 -34 -10 -30 -39 -46 -37 -36
-15 -35 -9 -29 -39 -45 -36 -35
-16 -35 -9 -29 -38 -45 -36 -35
-13 -35 -10 -29 -38 -45 -36 -36
-12 -35 -11 -28 -38 -44 -36 -37
-14 -36 -10 -26 -36 -43 -36 -36
-15 -35 -9 -25 -36 -41 -35 -36
-14 -34 -9 -26 -37 -43 -36 -37
-14 -33 -6 -24 -37 -43 -35 -37
-14 -33 -4 -22 -35 -40 -33 -35
-14 -32 -4 -23 -34 -40 -34 -36
-15 -35 -5 -22 -34 -41 -34 -37
-15 -36 -7 -23 -35 -43 -36 -38
-13 -35 -7 -23 -35 -43 -35 -37
-14 -34 -7 -22 -34 -40 -34 -37
-15 -33 -6 -22 -32 -39 -33 -36
-14 -33 -5 -21 -31 -38 -32 -35
-12 -32 -5 -21 -32 -38 -32 -36
-12 -34 -5 -21 -33 -39 -33 -36
-14 -35 -3 -19 -33 -39 -33 -36
-14 -34 -3 -19 -33 -39 -33 -35
-14 -34 -3 -18 -33 -39 -32 -34
-13 -33 -4 -19 -34 -38 -31 -33
-13 -32 -4 -18 -33 -36 -29 -32
-15 -32 -2 -16 -31 -34 -28 -31
-16 -32 -2 -16 -32 -35 -28 -32
-15 -31 -2 -18 -33 -36 -29 -33
-14 -30 0 -17 -32 -35 -28 -33
-12 -29 -2 -15 -31 -35 -28 -33
-10 -28 -2 -14 -29 -34 -27 -33
-11 -27 0 -13 -29 -33 -27 -32
-13 -29 1 -13 -28 -32 -26 -32
-13 -28 0 -12 -28 -31 -25 -30
-12 -27 -2 -12 -27 -30 -24 -29
-13 -27 -3 -11 -27 -30 -24 -29
-13 -28 -2 -9 -25 -28 -22 -27
-11 -26 -4 -9 -26 -28 -23 -27
-10 -24 0 -7 -25 -26 -21 -26
-12 -25 0 -6 -25 -27 -21 -27
-14 -26 -2 -5 -24 -27 -21 -26
-12 -24 -2 -5 -23 -26 -20 -26
-11 -22 0 -2 -21 -24 -19 -25
-12 -22 0 1 -20 -22 -18 -25
-12 -22 1 3 -17 -21 -17 -25
-11 -21 1 6 -15 -19 -15 -24
-10 -20 3 9 -13 -17 -15 -22
-10 -20 5 10 -13 -17 -15 -23
-9 -21 7 12 -12 -17 -14 -23
-9 -21 10 16 -9 -14 -12 -21
-9 -19 11 18 -7 -12 -11 -20
-9 -17 12 20 -5 -10 -10 -19
-7 -15 12 24 -2 -8 -6 -17
-5 -13 11 26 1 -5 -3 -14
-3 -12 10 27 4 -3 0 -13
0 -11 10 30 6 1 2 -12
3 -8 11 33 7 4 3 -9
4 -6 13 37 11 7 5 -6
3 -5 14 42 15 11 8 -4
4 -4 15 46 17 13 9 -2
7 0 16 49 19 15 11 1
8 2 18 54 23 18 14 4
11 4 18 58 27 21 16 6
14 8 19 62 30 25 18 7
14 12 20 66 35 31 22 10
13 16 21 70 40 35 26 13
15 20 22 73 46 39 29 16
19 22 22 75 49 43 32 19
20 24 22 78 51 47 36 22
21 25 22 80 52 50 39 26
24 28 23 82 54 52 42 29
25 30 24 85 57 55 45 32
24 31 25 87 59 58 48 35
24 31 25 88 60 60 51 37
26 33 24 88 62 63 53 39
28 34 23 89 64 64 55 43
27 35 22 89 64 65 56 43
25 36 22 88 64 65 56 44
22 37 24 90 67 68 59 46
22 39 24 90 67 68 59 45
25 40 23 89 66 67 59 43
27 40 22 87 64 66 57 42
29 42 20 85 64 65 56 39
30 43 19 84 65 65 55 38
29 44 20 84 66 66 56 40
27 43 20 84 65 65 56 42
25 40 20 82 64 65 56 43
25 38 18 78 61 62 54 39
25 36 18 76 58 61 52 38
23 34 19 74 56 59 51 37
21 33 18 72 54 57 50 37
20 31 16 68 51 53 47 35
17 29 15 65 48 50 46 33
13 28 15 62 47 49 46 31
10 27 14 58 44 46 44 28
9 24 13 54 40 42 39 25
8 23 14 52 37 39 36 22
7 22 16 49 34 36 33 19
5 18 16 45 31 32 29 16
4 14 15 39 27 27 24 11
3 12 15 37 25 24 21 8
1 9 16 36 23 21 19 7
-3 3 15 33 19 16 15 3
-6 0 14 28 16 13 13 1
-6 0 12 24 13 11 11 -2
-7 -3 11 21 10 8 9 -4
-9 -7 11 19 8 5 8 -6
-12 -8 10 15 4 3 5 -9
-12 -9 9 12 2 0 2 -12
-13 -11 8 9 -2 -4 -2 -15
-14 -13 8 7 -4 -6 -4 -17
-16 -15 7 5 -6 -8 -6 -19
-17 -16 7 4 -7 -10 -8 -21
-17 -16 6 1 -9 -12 -9 -23
-17 -16 4 -3 -11 -14 -10 -23
-17 -17 3 -6 -14 -16 -13 -25
-17 -18 1 -7 -16 -18 -15 -26
-17 -19 0 -8 -17 -19 -15 -27
-17 -19 -2 -8 -18 -19 -15 -27
-17 -20 0 -9 -18 -19 -16 -28
-17 -20 0 -9 -18 -20 -16 -29
-17 -21 1 -9 -18 -20 -16 -28
-18 -21 1 -11 -19 -22 -17 -29
-20 -21 2 -13 -18 -21 -16 -29
-21 -20 1 -14 -17 -21 -15 -28
-22 -20 1 -15 -17 -20 -15 -28
-21 -20 1 -16 -18 -20 -15 -28
-20 -20 0 -18 -20 -21 -16 -29
-19 -20 0 -18 -20 -22 -16 -29
-20 -20 1 -19 -21 -22 -16 -28
-23 -20 3 -19 -20 -20 -15 -27
-24 -21 3 -18 -20 -20 -14 -27
-22 -21 1 -19 -21 -22 -16 -28
-20 -21 1 -18 -20 -21 -15 -27
-21 -20 1 -18 -19 -20 -14 -27
-23 -21 2 -17 -18 -19 -15 -26
-23 -21 1 -17 -18 -20 -15 -26
-21 -20 0 -18 -18 -20 -15 -27
-21 -19 0 -18 -19 -20 -15 -28
-22 -19 2 -17 -19 -21 -16 -28
-22 -19 3 -17 -19 -22 -17 -28
-21 -19 2 -17 -19 -21 -17 -28
-20 -20 2 -16 -18 -20 -16 -28
-18 -20 1 -17 -18 -20 -17 -29
-16 -20 -2 -19 -20 -22 -19 -30
-18 -19 -2 -19 -21 -22 -20 -30
-21 -18 1 -17 -18 -20 -17 -28
-19 -18 2 -17 -18 -21 -17 -28
-17 -20 3 -18 -18 -22 -18 -28
-19 -21 3 -18 -19 -22 -19 -29
-21 -22 4 -19 -21 -22 -19 -29
-19 -22 5 -18 -20 -23 -19 -29
-18 -21 5 -19 -21 -24 -20 -30
-19 -21 5 -19 -20 -23 -19 -29
-20 -21 5 -18 -19 -21 -17 -28
-19 -22 5 -18 -19 -22 -18 -29
-18 -22 4 -19 -20 -24 -21 -31
-19 -21 4 -19 -20 -23 -20 -31
-18 -21 4 -17 -19 -23 -19 -30
-16 -20 3 -17 -20 -24 -19 -31
-16 -20 3 -17 -20 -24 -20 -32
-19 -20 4 -17 -20 -24 -19 -32
-19 -21 3 -19 -21 -24 -20 -32
-18 -21 3 -20 -22 -25 -20 -31
-18 -21 2 -20 -22 -23 -20 -30
-19 -21 2 -20 -23 -23 -20 -29
-19 -24 1 -22 -24 -25 -20 -30
-18 -25 0 -24 -25 -26 -21 -31
-15 -23 1 -23 -25 -26 -20 -29
-14 -21 2 -21 -25 -25 -20 -29
-15 -21 2 -22 -25 -27 -22 -31
-16 -22 3 -21 -24 -27 -23 -31
-17 -22 3 -20 -21 -24 -21 -30
-17 -19 5 -18 -19 -21 -18 -27
-14 -16 6 -16 -17 -19 -16 -24
-12 -14 5 -17 -17 -20 -17 -25
-12 -12 6 -16 -16 -20 -17 -24
-13 -10 7 -15 -16 -19 -15 -23
-12 -8 7 -15 -16 -19 -14 -23
-12 -7 7 -14 -16 -19 -14 -22
-12 -6 9 -14 -15 -18 -12 -22
-13 -5 12 -12 -13 -16 -11 -21
-12 -4 13 -11 -12 -15 -11 -21
-10 -3 14 -10 -12 -16 -12 -21
-8 0 14 -9 -10 -14 -10 -19
-6 2 14 -9 -9 -14 -10 -18
-7 4 14 -8 -9 -13 -9 -17
-9 5 14 -9 -9 -12 -9 -17
-8 7 12 -8 -8 -11 -9 -17
-3 9 10 -9 -9 -12 -9 -17
-3 11 9 -10 -9 -12 -8 -16
-7 13 10 -9 -8 -11 -7 -13
-9 14 11 -7 -6 -9 -6 -12
-7 13 11 -9 -7 -9 -5 -11
-5 12 10 -10 -8 -10 -5 -11
-3 12 8 -10 -8 -9 -4 -11
0 12 6 -10 -8 -9 -3 -11
2 11 4 -12 -9 -10 -4 -10
3 9 1 -13 -11 -11 -5 -10
4 8 1 -12 -12 -11 -4 -9
5 9 2 -11 -10 -9 -3 -8
3 7 1 -11 -10 -10 -4 -10
0 4 1 -10 -11 -10 -5 -11
0 3 1 -12 -11 -12 -6 -11
0 2 2 -12 -11 -11 -5 -10
0 0 1 -13 -13 -13 -8 -13
-3 -3 1 -13 -14 -14 -10 -15
-7 -6 2 -15 -15 -16 -12 -16
-8 -9 0 -18 -17 -19 -14 -19
-8 -11 -2 -20 -20 -22 -16 -21
-8 -12 -3 -21 -22 -24 -19 -24
-7 -15 -2 -23 -23 -26 -21 -26
-10 -16 -3 -25 -25 -28 -23 -26
-14 -15 -3 -25 -26 -28 -22 -25
-14 -16 -2 -24 -26 -27 -21 -24
-11 -18 -3 -26 -27 -28 -22 -25
-8 -19 -4 -27 -28 -29 -22 -25
-9 -21 -4 -27 -28 -29 -22 -24
-11 -21 -4 -28 -28 -30 -24 -24
-13 -22 -3 -27 -27 -30 -24 -23
-12 -22 -4 -26 -28 -29 -24 -23
-10 -23 -4 -26 -28 -29 -24 -23
-10 -24 -4 -26 -28 -30 -24 -22
-9 -21 -2 -26 -27 -29 -23 -21
-9 -21 0 -25 -26 -27 -22 -20
-10 -21 -2 -26 -27 -28 -23 -20
-10 -23 -3 -26 -28 -29 -23 -19
-11 -25 -3 -28 -29 -30 -24 -19
-9 -24 -2 -28 -28 -30 -24 -19
-7 -22 -3 -28 -29 -31 -25 -20
-7 -21 -3 -28 -30 -31 -25 -19
-11 -21 -3 -27 -29 -30 -24 -18
-13 -22 -3 -26 -28 -29 -24 -17
-11 -23 -4 -26 -28 -29 -25 -18
-7 -28 -4 -25 -28 -30 -27 -20
-5 -33 -2 -21 -29 -31 -30 -22
-5 -38 2 -14 -27 -32 -32 -24
-3 -39 6 -6 -23 -30 -33 -24
0 -34 13 5 -14 -25 -29 -20
3 -22 20 19 1 -13 -19 -10
7 -8 27 37 19 7 -3 6
12 5 34 60 43 30 18 24
19 17 43 90 69 57 38 44
32 32 51 126 102 91 65 68
48 54 58 161 140 130 98 99
60 85 64 199 184 179 140 139
75 123 65 231 230 231 186 182
90 165 60 250 271 280 231 226
101 209 42 248 304 323 274 268
110 250 11 231 325 360 313 308
117 274 -25 202 327 379 336 331
115 270 -57 163 302 362 325 327
101 233 -83 109 242 306 279 290
81 176 -104 42 159 221 206 226
60 113 -120 -32 71 126 127 153
38 57 -136 -112 -15 30 48 79
16 16 -143 -186 -87 -51 -17 19
0 -5 -138 -219 -123 -93 -50 -16
-9 -12 -122 -201 -120 -95 -55 -25
-10 -21 -108 -172 -108 -87 -55 -29
-8 -33 -95 -153 -103 -87 -60 -36
-6 -39 -80 -134 -98 -86 -62 -43
-6 -40 -60 -107 -86 -77 -59 -43
-6 -40 -44 -85 -70 -67 -54 -38
-5 -35 -34 -68 -57 -57 -48 -34
-6 -28 -26 -55 -46 -48 -39 -28
-11 -24 -20 -48 -40 -43 -35 -26
-13 -24 -16 -44 -38 -40 -33 -26
-12 -25 -12 -40 -36 -38 -32 -25
-9 -26 -10 -38 -35 -39 -33 -27
-9 -29 -8 -37 -35 -38 -33 -29
-11 -29 -7 -36 -35 -38 -34 -30
-10 -28 -7 -33 -33 -38 -34 -28
-9 -28 -7 -32 -33 -37 -33 -30
-9 -28 -7 -32 -32 -36 -32 -30
-10 -27 -7 -31 -31 -36 -32 -30
-12 -27 -7 -31 -30 -35 -31 -29
-12 -28 -7 -32 -31 -36 -32 -31
-12 -28 -6 -30 -30 -36 -32 -32
-11 -28 -4 -28 -28 -33 -30 -31
-10 -28 -3 -27 -28 -33 -30 -32
-12 -27 -3 -27 -27 -33 -30 -33
-11 -26 -4 -27 -28 -33 -31 -35
-7 -26 -5 -26 -27 -32 -30 -34
-5 -27 -7 -28 -29 -33 -30 -31
-6 -26 -7 -28 -28 -33 -31 -29
-7 -23 -7 -27 -27 -32 -30 -28
-6 -21 -7 -28 -27 -32 -29 -27
-6 -21 -6 -28 -26 -32 -29 -26
-7 -22 -6 -27 -25 -32 -28 -26
-9 -22 -4 -26 -24 -31 -27 -24
-10 -21 -2 -25 -23 -30 -26 -24
-7 -20 -3 -24 -23 -30 -26 -22
-5 -20 -4 -24 -24 -29 -26 -21
-4 -20 -4 -24 -24 -30 -26 -21
-7 -20 -4 -24 -24 -30 -25 -19
-8 -20 -5 -24 -24 -30 -25 -17
-6 -20 -6 -24 -24 -30 -25 -16
-3 -18 -7 -24 -24 -30 -25 -15
-5 -17 -6 -23 -21 -28 -23 -14
-5 -17 -4 -22 -19 -27 -22 -13
-3 -18 -3 -20 -18 -26 -21 -12
-3 -17 -4 -19 -18 -26 -22 -10
-4 -15 -4 -18 -16 -23 -19 -7
-5 -15 -4 -17 -15 -23 -19 -7
-4 -15 -3 -17 -14 -23 -20 -7
-3 -15 -3 -17 -14 -23 -20 -6
0 -15 -2 -17 -15 -24 -21 -5
1 -15 0 -16 -16 -25 -22 -5
-2 -17 2 -14 -14 -23 -20 -4
-6 -17 4 -12 -11 -21 -18 -2
-6 -16 6 -8 -8 -17 -15 3
-2 -14 4 -7 -7 -15 -13 5
0 -12 3 -6 -5 -13 -11 7
1 -11 2 -5 -4 -13 -11 9
4 -10 2 -4 -3 -13 -11 10
4 -9 3 -2 -2 -11 -10 11
3 -8 4 0 0 -10 -9 13
3 -7 4 0 0 -10 -8 15
5 -6 5 2 2 -7 -7 17
6 -5 9 8 7 -3 -4 21
6 -2 10 12 11 0 -2 23
7 2 10 14 12 1 0 25
9 3 10 17 14 4 1 28
8 3 11 20 17 8 5 32
7 4 12 23 18 10 8 35
10 5 11 23 17 10 9 37
14 7 11 24 20 12 10 39
16 10 13 30 24 17 14 43
18 13 14 34 28 21 17 46
18 16 15 36 32 25 20 49
21 19 14 40 35 28 22 49
23 23 14 45 38 31 25 50
24 26 14 49 43 35 29 53
26 28 14 50 45 38 32 54
30 32 16 54 48 42 37 58
33 36 17 57 52 47 43 61
34 38 19 61 56 50 46 63
33 40 19 63 59 53 48 63
34 42 20 66 60 55 48 64
37 44 20 68 62 57 50 65
38 45 19 68 63 58 51 66
35 45 19 71 66 61 54 68
35 47 18 72 67 63 57 69
36 49 19 72 68 65 59 70
37 51 19 72 68 66 60 71
36 52 20 73 70 67 61 72
35 53 21 73 71 68 61 73
37 53 21 73 70 69 62 73
39 53 19 71 68 68 61 71
39 53 18 69 68 67 62 71
38 54 17 69 69 67 63 70
38 54 16 69 69 69 64 69
38 55 15 69 70 70 65 69
38 56 15 67 69 68 64 67
38 56 15 66 68 67 63 65
37 56 15 64 67 66 62 64
35 54 14 63 65 65 60 61
33 52 15 61 62 63 59 58
32 49 16 60 61 62 58 57
30 47 15 57 60 60 56 54
28 46 13 54 57 56 54 51
28 45 11 51 54 52 50 48
27 44 12 49 53 51 48 46
25 40 12 46 50 49 47 43
24 37 10 39 46 46 43 37
22 35 7 34 40 42 39 32
18 34 7 31 38 39 37 30
13 31 10 31 37 37 35 28
10 25 11 28 34 34 32 25
9 21 9 23 29 29 28 20
10 20 9 19 25 25 24 16
9 16 8 17 23 22 21 13
6 11 7 13 21 19 19 10
4 9 7 10 18 16 15 6
5 9 5 8 16 12 10 1
6 6 3 4 12 7 5 -4
3 3 2 2 9 5 3 -7
-3 3 3 -2 7 2 1 -10
-5 2 3 -5 4 -2 -3 -14
-2 -2 2 -8 0 -6 -6 -18
-2 -4 3 -9 -3 -8 -7 -20
-7 -5 3 -9 -3 -8 -8 -21
-10 -5 3 -11 -3 -8 -7 -21
-10 -4 2 -14 -5 -9 -9 -22
-9 -4 2 -16 -7 -11 -9 -24
-10 -5 1 -17 -8 -11 -10 -26
-11 -7 0 -19 -10 -13 -11 -28
-13 -8 1 -20 -12 -14 -12 -29
-12 -10 0 -21 -13 -15 -13 -30
-10 -11 -2 -20 -13 -15 -14 -32
-8 -11 -4 -21 -14 -17 -15 -34
-8 -10 -4 -21 -15 -18 -15 -35
-11 -8 -4 -21 -14 -16 -14 -34
-13 -7 -2 -21 -12 -14 -13 -33
-12 -8 -2 -20 -12 -14 -13 -34
-10 -9 -2 -20 -12 -14 -14 -36
-10 -10 -4 -21 -12 -14 -15 -37
-13 -12 -3 -19 -12 -15 -15 -36
-13 -13 -3 -19 -13 -15 -15 -36
-11 -13 0 -19 -13 -15 -15 -37
-11 -14 2 -19 -14 -15 -16 -37
-14 -15 4 -19 -14 -14 -15 -36
-13 -14 4 -19 -13 -14 -13 -36
-11 -12 1 -20 -14 -15 -13 -37
-11 -11 0 -19 -13 -14 -13 -39
-10 -11 1 -18 -12 -13 -13 -40
-8 -11 1 -19 -13 -14 -15 -43
-11 -11 1 -18 -13 -16 -16 -45
-14 -12 2 -17 -13 -17 -18 -47
-12 -12 2 -17 -14 -18 -20 -48
-10 -11 1 -18 -16 -20 -22 -51
-12 -10 1 -18 -15 -20 -22 -52
-14 -9 1 -18 -14 -19 -20 -51
-11 -8 2 -19 -14 -19 -18 -48
-9 -8 1 -21 -16 -19 -20 -47
-12 -11 2 -20 -16 -19 -19 -46
-13 -12 3 -19 -16 -18 -18 -46
-11 -13 4 -16 -15 -17 -17 -43
-11 -13 3 -17 -14 -18 -19 -43
-14 -13 3 -18 -15 -19 -19 -43
-14 -13 3 -18 -15 -19 -19 -41
-13 -14 3 -17 -14 -18 -18 -40
-12 -14 1 -20 -16 -20 -21 -41
-14 -14 2 -19 -16 -19 -20 -40
-14 -13 2 -18 -14 -17 -19 -39
-14 -11 1 -17 -13 -16 -19 -39
-16 -12 2 -17 -13 -16 -18 -38
-15 -13 1 -18 -16 -17 -19 -39
-13 -15 1 -19 -17 -19 -20 -38
-9 -14 1 -20 -18 -21 -21 -39
-7 -13 1 -21 -20 -21 -22 -38
-12 -15 3 -19 -19 -20 -21 -36
-15 -17 3 -20 -20 -21 -21 -36
-13 -15 2 -21 -20 -21 -20 -35
-10 -13 0 -21 -18 -20 -19 -34
-11 -12 -2 -21 -17 -19 -19 -34
-13 -13 -2 -22 -19 -21 -21 -35
-12 -14 1 -21 -20 -23 -23 -36
-10 -13 1 -20 -19 -23 -23 -35
-10 -11 2 -17 -17 -20 -22 -34
-10 -9 2 -16 -17 -20 -21 -33
-10 -8 4 -14 -15 -18 -19 -31
-10 -7 4 -15 -15 -18 -18 -31
-9 -4 4 -15 -14 -17 -16 -30
-7 0 5 -15 -15 -17 -16 -29
-7 0 5 -16 -15 -16 -16 -28
-9 -2 4 -16 -14 -15 -16 -28
-9 0 5 -14 -14 -16 -15 -28
-9 1 10 -12 -11 -14 -14 -25
-9 1 11 -10 -10 -13 -14 -23
-7 1 10 -10 -11 -13 -15 -24
-6 2 9 -9 -9 -13 -15 -24
-7 6 11 -8 -8 -10 -13 -22
-9 7 14 -6 -6 -7 -9 -18
-8 8 14 -5 -6 -8 -9 -16
-6 10 13 -5 -6 -8 -8 -14
-5 13 10 -7 -6 -9 -7 -14
-2 15 8 -8 -6 -9 -7 -12
-2 16 7 -10 -7 -11 -8 -12
-5 17 8 -10 -8 -11 -8 -13
-6 17 7 -12 -10 -13 -10 -15
-3 17 5 -12 -10 -13 -10 -15
0 18 3 -11 -9 -11 -8 -13
2 19 0 -11 -8 -10 -8 -11
4 19 -3 -9 -7 -8 -7 -10
6 18 -4 -10 -9 -9 -8 -11
7 16 -4 -10 -9 -10 -7 -11
6 14 -3 -11 -10 -11 -7 -10
5 13 -2 -11 -10 -11 -8 -10
3 10 1 -10 -9 -9 -6 -8
0 6 1 -10 -9 -9 -7 -8
0 4 0 -12 -11 -10 -9 -10
2 1 -3 -15 -14 -13 -11 -11
0 -3 -3 -16 -17 -15 -12 -11
-3 -6 -4 -19 -20 -18 -14 -13
-5 -9 -6 -22 -23 -22 -17 -16
-9 -12 -4 -22 -24 -23 -18 -17
-13 -15 -3 -22 -25 -24 -20 -19
-13 -16 -3 -25 -27 -27 -23 -21
-12 -17 -3 -24 -26 -27 -23 -22
-11 -18 -3 -22 -25 -27 -24 -23
-11 -18 -3 -23 -26 -28 -25 -24
-12 -19 -3 -23 -25 -27 -25 -23
-12 -20 -3 -24 -26 -28 -24 -23
-10 -21 -2 -25 -28 -29 -25 -23
-12 -22 -3 -26 -29 -30 -25 -23
-16 -23 -4 -28 -31 -32 -26 -23
-15 -23 -5 -28 -32 -33 -26 -23
-13 -23 -6 -28 -32 -33 -26 -24
-13 -23 -7 -28 -33 -33 -27 -24
-13 -24 -8 -30 -34 -33 -27 -23
-12 -23 -7 -30 -34 -33 -26 -23
-11 -22 -6 -29 -33 -32 -25 -21
-10 -21 -6 -29 -32 -32 -25 -22
-10 -21 -6 -27 -31 -31 -24 -22
-11 -21 -6 -28 -31 -31 -23 -22
-10 -21 -8 -29 -31 -31 -23 -23
-10 -20 -6 -27 -30 -31 -21 -21
-12 -20 -5 -26 -29 -30 -20 -20
-13 -21 -2 -24 -27 -28 -19 -20
-11 -24 -3 -24 -28 -30 -21 -23
-8 -27 -3 -23 -29 -31 -24 -26
-4 -30 -3 -20 -29 -32 -26 -29
0 -36 -2 -15 -29 -33 -29 -32
0 -38 4 -7 -25 -32 -28 -33
-2 -32 11 6 -14 -24 -22 -27
0 -20 19 21 2 -10 -10 -17
5 -6 25 38 20 8 6 -5
13 8 31 62 42 30 25 12
22 21 42 91 68 57 47 31
33 35 51 127 100 90 72 57
48 55 57 160 134 128 105 86
63 84 60 193 172 172 145 122
80 120 62 224 215 222 190 165
95 163 58 242 255 270 235 209
107 209 42 240 286 312 279 251
118 250 12 220 305 348 317 289
121 274 -20 190 307 365 337 315
114 268 -49 152 283 352 326 312
99 233 -75 99 227 298 278 273
84 180 -97 34 149 215 204 212
65 121 -112 -36 65 123 126 143
39 67 -124 -111 -15 32 50 73
11 28 -133 -181 -82 -47 -15 13
-7 8 -129 -212 -118 -88 -48 -21
-10 0 -118 -200 -120 -93 -57 -31
-6 -11 -108 -175 -112 -89 -60 -36
-4 -24 -98 -157 -109 -90 -66 -45
-6 -35 -81 -138 -103 -88 -69 -49
-9 -39 -59 -110 -91 -78 -66 -48
-6 -36 -39 -85 -76 -68 -62 -44
1 -30 -24 -64 -62 -56 -56 -37
-2 -24 -17 -51 -50 -47 -49 -31
-7 -21 -12 -41 -41 -39 -45 -27
-7 -21 -8 -36 -37 -36 -44 -25
-5 -21 -6 -33 -37 -36 -45 -26
-5 -21 -5 -32 -38 -37 -47 -26
-6 -22 -2 -31 -38 -38 -48 -26
-5 -22 0 -30 -36 -38 -50 -28
-5 -22 0 -28 -34 -37 -50 -29
-7 -21 0 -27 -33 -35 -50 -29
-7 -21 1 -26 -32 -35 -50 -28
-3 -21 1 -26 -32 -36 -52 -29
0 -20 1 -28 -34 -37 -54 -29
-2 -20 1 -27 -35 -37 -55 -29
-4 -20 3 -25 -34 -35 -54 -27
-3 -21 4 -24 -33 -35 -55 -26
-3 -21 4 -24 -32 -35 -55 -26
-4 -21 4 -23 -31 -34 -56 -27
-5 -21 4 -22 -30 -33 -56 -26
-4 -19 5 -21 -29 -33 -54 -25
1 -17 4 -21 -30 -33 -56 -26
3 -15 4 -20 -30 -33 -58 -26
2 -15 5 -21 -31 -33 -60 -26
2 -15 6 -21 -31 -33 -61 -26
4 -16 7 -20 -30 -33 -61 -26
4 -16 8 -20 -29 -32 -61 -25
1 -16 9 -17 -28 -30 -60 -23
1 -16 10 -15 -26 -27 -59 -21
3 -16 10 -15 -25 -27 -59 -21
4 -14 8 -16 -24 -27 -59 -19
3 -13 7 -16 -24 -27 -60 -18
1 -14 7 -16 -24 -27 -61 -19
2 -14 5 -19 -26 -28 -63 -20
4 -14 5 -20 -28 -30 -65 -21
3 -13 6 -19 -28 -30 -65 -21
1 -12 9 -16 -26 -27 -61 -20
2 -10 9 -14 -23 -26 -58 -19
6 -9 8 -13 -22 -25 -59 -21
8 -8 8 -11 -21 -25 -60 -22
5 -7 9 -9 -19 -24 -58 -20
2 -6 10 -8 -18 -24 -57 -19
4 -5 9 -9 -18 -23 -56 -19
9 -5 7 -10 -19 -23 -55 -18
7 -6 8 -9 -18 -21 -52 -16
5 -7 9 -8 -17 -19 -50 -15
5 -8 10 -7 -16 -18 -49 -15
9 -6 9 -7 -16 -18 -49 -16
11 -4 10 -5 -15 -18 -48 -15
9 -3 11 -2 -13 -16 -46 -14
6 -3 13 3 -9 -12 -41 -11
6 0 14 4 -7 -11 -40 -9
8 1 14 5 -6 -10 -40 -7
11 1 13 6 -6 -9 -39 -6
13 3 14 9 -4 -8 -38 -4
16 4 15 11 -2 -7 -37 -3
16 5 14 12 0 -6 -36 -5
16 5 16 16 2 -3 -34 -4
17 7 19 20 5 0 -31 -2
17 8 20 23 8 3 -28 2
15 9 20 25 9 5 -26 4
16 9 19 26 10 8 -23 6
20 10 17 27 10 10 -21 7
22 14 16 29 12 11 -19 9
22 16 17 33 17 15 -15 14
24 18 18 37 21 18 -13 16
29 21 20 42 24 21 -9 18
31 24 21 46 27 25 -7 20
33 27 23 50 30 28 -5 21
34 30 25 54 34 32 1 25
34 34 26 58 39 36 7 29
33 36 26 62 43 40 10 31
33 37 26 66 48 46 14 34
32 40 26 69 51 50 18 37
35 43 26 72 54 54 21 40
38 46 25 73 56 56 23 44
39 48 26 75 57 58 25 48
39 50 29 77 59 60 27 50
44 51 30 78 60 61 28 49
47 52 31 80 62 63 31 50
47 54 28 81 64 65 34 52
47 56 28 85 67 68 38 54
46 58 29 86 69 70 40 56
44 59 31 86 71 73 44 58
44 60 31 84 69 71 44 59
44 58 31 84 68 71 43 61
45 57 30 82 68 72 43 62
47 58 30 84 68 73 43 62
49 59 29 84 68 73 44 62
46 59 27 85 70 74 46 64
45 60 24 82 70 74 47 64
47 61 22 79 68 73 47 64
47 62 21 77 68 73 47 63
46 62 19 77 67 72 47 62
45 62 21 74 66 70 45 59
44 60 25 72 62 67 39 56
44 57 27 69 58 63 36 53
40 53 29 68 57 62 33 53
36 51 27 65 55 61 32 52
33 50 24 60 52 58 31 51
31 47 22 57 50 55 31 50
30 45 21 54 47 52 29 48
31 44 19 51 44 48 25 44
30 43 18 47 40 44 21 38
25 39 20 45 39 43 18 36
23 33 21 43 38 40 16 35
22 29 19 37 34 35 10 31
20 26 20 34 30 31 5 28
16 22 21 31 26 26 -2 25
15 20 19 27 22 22 -9 21
16 18 16 23 19 20 -12 19
13 17 14 20 17 17 -14 17
12 15 13 16 14 14 -14 14
14 15 10 13 11 11 -17 12
13 15 9 11 8 8 -20 9
9 12 11 9 6 7 -22 8
5 11 13 7 4 5 -24 6
4 9 14 5 2 2 -26 4
5 7 13 2 0 -2 -29 1
5 3 12 1 -3 -3 -29 0
5 1 8 -5 -7 -6 -31 -4
4 0 8 -6 -8 -8 -32 -5
2 1 6 -8 -9 -9 -33 -5
-2 2 6 -8 -8 -9 -31 -4
-2 1 6 -9 -8 -10 -32 -5
2 -2 6 -10 -9 -11 -34 -7
2 -5 6 -11 -11 -13 -35 -8
-3 -7 8 -11 -12 -13 -35 -8
-3 -7 9 -13 -13 -14 -36 -9
2 -7 8 -14 -13 -14 -35 -9
2 -7 6 -13 -12 -13 -33 -8
-4 -8 5 -10 -9 -10 -31 -6
-6 -7 5 -10 -9 -10 -31 -6
-5 -7 7 -11 -9 -10 -31 -6
-4 -7 5 -14 -13 -14 -33 -8
-6 -8 5 -15 -16 -16 -34 -9
-7 -8 6 -14 -15 -15 -32 -6
-3 -7 6 -14 -15 -14 -31 -6
-2 -7 6 -13 -13 -12 -28 -4
-4 -7 4 -13 -11 -12 -28 -4
-5 -5 3 -12 -11 -12 -28 -5
-3 -5 3 -13 -13 -14 -30 -7
0 -6 4 -15 -15 -16 -32 -9
-3 -7 5 -15 -15 -17 -32 -10
-7 -7 5 -14 -14 -15 -31 -9
-9 -7 7 -13 -13 -13 -29 -8
-8 -7 8 -13 -13 -14 -29 -9
-7 -9 8 -13 -13 -15 -30 -10
-7 -11 9 -11 -11 -13 -29 -10
-7 -9 9 -10 -10 -12 -28 -9
-5 -7 8 -9 -9 -11 -27 -8
-7 -7 5 -11 -11 -13 -29 -10
-8 -8 4 -12 -12 -14 -28 -9
-5 -8 3 -12 -13 -15 -28 -9
-3 -7 2 -13 -15 -15 -29 -9
-7 -8 4 -12 -14 -14 -27 -8
-9 -8 4 -14 -16 -16 -28 -9
-5 -8 3 -17 -18 -19 -30 -11
-4 -9 3 -18 -19 -19 -29 -12
-7 -9 6 -16 -16 -17 -27 -11
-8 -10 9 -13 -13 -15 -25 -9
-7 -12 8 -12 -14 -16 -25 -9
-7 -12 7 -12 -13 -16 -26 -10
-10 -11 9 -13 -12 -15 -26 -9
-10 -11 8 -14 -14 -16 -26 -10
-6 -12 5 -18 -18 -20 -28 -11
-5 -14 2 -20 -21 -23 -29 -13
-7 -14 3 -19 -21 -22 -28 -13
-8 -13 4 -18 -19 -19 -26 -12
-8 -13 4 -18 -17 -18 -25 -12
-11 -13 5 -17 -15 -16 -24 -11
-11 -13 5 -15 -15 -17 -24 -12
-7 -12 4 -17 -18 -20 -27 -14
-6 -12 3 -18 -20 -22 -28 -14
-7 -12 2 -18 -21 -22 -29 -15
-6 -12 2 -17 -18 -20 -27 -13
-6 -11 4 -17 -16 -19 -24 -12
-8 -9 6 -14 -13 -16 -21 -10
-9 -6 7 -11 -10 -14 -19 -9
-7 -3 5 -11 -11 -15 -20 -11
-4 -2 4 -13 -14 -17 -22 -13
-4 -2 4 -14 -16 -19 -23 -13
-6 -2 5 -15 -17 -20 -23 -14
-9 -3 8 -14 -14 -18 -21 -12
-9 1 9 -14 -13 -17 -20 -11
-7 3 10 -13 -13 -16 -19 -10
-6 3 12 -11 -11 -14 -16 -7
-8 2 15 -9 -9 -12 -15 -7
-10 2 17 -7 -8 -11 -13 -6
-9 3 15 -7 -9 -12 -13 -7
-9 3 13 -7 -10 -12 -12 -6
-10 6 12 -7 -8 -11 -11 -5
-7 11 11 -6 -5 -9 -8 -2
-3 14 9 -8 -6 -9 -9 -2
-4 15 9 -10 -7 -10 -10 -3
-7 16 10 -9 -6 -10 -8 -2
-8 16 10 -10 -6 -10 -7 -2
-5 15 9 -11 -7 -11 -9 -4
-4 13 6 -13 -9 -12 -10 -5
-4 12 2 -14 -10 -12 -10 -6
-2 13 0 -13 -10 -11 -9 -4
1 14 0 -13 -10 -10 -8 0
3 12 -2 -14 -9 -10 -7 0
2 9 0 -14 -9 -9 -6 0
0 8 0 -12 -10 -10 -7 0
1 7 1 -11 -9 -11 -6 0
1 5 2 -11 -10 -12 -6 -2
-2 4 1 -12 -11 -13 -7 -3
-3 1 1 -12 -12 -13 -9 -5
-5 -5 0 -16 -16 -17 -11 -8
-7 -10 -3 -20 -20 -21 -15 -12
-9 -13 -2 -22 -22 -22 -16 -13
-9 -13 -3 -23 -23 -24 -18 -14
-11 -16 -4 -23 -24 -26 -19 -16
-13 -19 -6 -25 -26 -29 -22 -19
-12 -20 -6 -26 -27 -31 -24 -22
-14 -21 -5 -26 -27 -30 -24 -22
-16 -21 -6 -27 -28 -32 -26 -23
-15 -23 -6 -28 -29 -33 -27 -24
-14 -24 -6 -28 -29 -32 -27 -25
-16 -25 -4 -26 -27 -29 -23 -22
-18 -25 -3 -26 -26 -29 -23 -22
-17 -27 -3 -27 -29 -31 -25 -23
-16 -28 -5 -31 -33 -34 -27 -26
-15 -30 -8 -32 -33 -35 -27 -26
-14 -31 -9 -33 -33 -35 -27 -26
-14 -31 -8 -32 -34 -35 -27 -27
-15 -31 -8 -31 -34 -35 -27 -26
-14 -30 -9 -31 -34 -35 -27 -26
-14 -29 -10 -32 -34 -35 -28 -28
-16 -29 -10 -32 -33 -34 -27 -27
-17 -29 -9 -30 -33 -33 -27 -26
-16 -27 -9 -30 -32 -33 -26 -26
-14 -26 -10 -30 -33 -33 -26 -26
-16 -29 -9 -30 -32 -33 -26 -26
-17 -32 -9 -31 -33 -35 -27 -27
-15 -34 -8 -31 -34 -37 -30 -29
-16 -36 -6 -29 -35 -38 -32 -30
-16 -43 -5 -25 -36 -40 -35 -34
-13 -49 -4 -19 -35 -40 -39 -38
-8 -51 1 -11 -30 -38 -39 -39
-7 -47 7 1 -22 -32 -35 -35
-8 -38 12 14 -10 -23 -27 -27
-6 -25 19 31 10 -5 -12 -14
-2 -11 25 52 33 20 9 3
5 2 32 80 60 47 30 22
16 14 42 114 91 77 54 44
33 32 52 151 126 115 85 71
48 61 59 187 169 161 123 106
61 96 63 222 217 216 172 149
73 135 60 245 260 268 219 193
85 177 47 250 294 314 264 237
93 221 18 232 318 354 307 279
98 253 -21 202 327 382 338 312
100 260 -58 162 312 381 342 319
91 235 -87 114 266 340 307 290
71 185 -105 55 192 262 240 234
48 128 -119 -18 104 167 159 163
25 72 -131 -96 14 65 76 90
2 24 -137 -169 -67 -28 2 20
-17 -6 -138 -218 -123 -93 -49 -28
-23 -18 -130 -221 -140 -112 -67 -47
-21 -25 -119 -198 -133 -107 -69 -51
-18 -37 -107 -175 -124 -103 -70 -55
-15 -48 -92 -154 -119 -101 -71 -59
-15 -52 -73 -128 -108 -94 -69 -59
-16 -52 -55 -101 -92 -83 -64 -57
-16 -49 -40 -79 -78 -73 -59 -52
-14 -43 -30 -63 -65 -62 -51 -46
-14 -38 -22 -53 -55 -54 -46 -40
-16 -37 -16 -45 -47 -48 -40 -37
-15 -36 -12 -38 -44 -46 -38 -36
-14 -36 -9 -34 -41 -44 -38 -35
-14 -38 -8 -34 -44 -46 -40 -38
-17 -40 -6 -33 -45 -46 -43 -38
-17 -40 -5 -31 -43 -46 -43 -38
-16 -41 -4 -30 -41 -45 -41 -38
-16 -43 -3 -31 -43 -45 -41 -37
-15 -45 -2 -29 -41 -44 -40 -36
-15 -45 -2 -27 -39 -43 -39 -34
-16 -44 -2 -26 -38 -41 -38 -33
-17 -43 -2 -25 -39 -40 -38 -33
-17 -43 -2 -24 -38 -40 -38 -33
-15 -41 -3 -25 -40 -41 -39 -34
-14 -40 -3 -26 -41 -43 -39 -36
-14 -39 -2 -25 -39 -41 -38 -35
-14 -38 -2 -24 -36 -39 -37 -35
-14 -36 1 -22 -35 -38 -36 -34
-14 -36 2 -21 -35 -40 -38 -35
-15 -37 2 -22 -36 -40 -38 -35
-14 -37 2 -22 -36 -40 -37 -33
-13 -37 2 -21 -36 -39 -35 -31
-13 -35 -2 -22 -36 -39 -34 -32
-12 -32 0 -23 -36 -37 -33 -31
-10 -30 0 -23 -36 -37 -32 -31
-11 -32 -2 -23 -35 -37 -33 -32
-15 -34 0 -22 -34 -37 -34 -32
-16 -33 1 -20 -33 -37 -34 -32
-14 -34 2 -19 -32 -36 -32 -32
-13 -34 3 -18 -32 -36 -32 -32
-14 -34 3 -18 -32 -36 -31 -31
-15 -33 3 -18 -32 -35 -31 -30
-14 -33 3 -16 -30 -34 -30 -30
-11 -33 2 -16 -30 -33 -31 -31
-11 -33 3 -15 -30 -33 -31 -30
-14 -32 4 -13 -28 -33 -30 -30
-15 -31 4 -13 -28 -32 -30 -29
-14 -31 3 -14 -29 -32 -30 -29
-12 -30 2 -14 -29 -32 -29 -29
-10 -29 2 -13 -28 -30 -27 -28
-9 -27 2 -13 -27 -29 -25 -26
-9 -28 1 -12 -26 -28 -25 -24
-9 -28 1 -10 -25 -28 -25 -25
-10 -28 3 -6 -23 -26 -24 -24
-9 -28 3 -6 -24 -27 -25 -25
-8 -28 3 -4 -22 -26 -25 -25
-8 -25 4 -3 -19 -23 -24 -23
-11 -24 4 0 -17 -20 -22 -22
-11 -26 4 2 -15 -19 -21 -23
-8 -26 4 4 -14 -18 -20 -22
-5 -22 6 5 -13 -17 -18 -20
-5 -21 9 8 -11 -15 -16 -17
-5 -21 10 12 -8 -12 -15 -17
-5 -19 11 15 -6 -10 -13 -15
-3 -18 10 17 -5 -8 -11 -14
0 -17 11 19 -3 -7 -11 -14
1 -17 12 21 1 -5 -10 -13
0 -15 14 25 5 0 -6 -9
1 -12 14 29 8 3 -2 -6
4 -10 13 32 10 5 0 -5
4 -7 14 36 13 8 3 -2
4 -5 16 40 16 11 6 3
7 -2 17 45 20 15 10 6
9 3 18 48 23 20 13 8
11 4 19 51 26 23 16 11
14 5 19 54 29 26 18 13
16 7 19 58 35 30 21 16
17 9 20 62 39 35 25 19
17 13 22 67 44 39 27 22
19 16 25 73 48 44 31 26
20 18 26 75 51 48 34 29
19 19 26 78 53 50 36 30
19 21 26 80 57 55 40 32
19 24 27 84 62 60 45 37
21 26 27 86 63 61 47 40
25 27 25 86 63 61 46 39
30 29 24 85 64 62 48 42
29 32 24 86 65 64 50 44
24 32 27 90 68 68 55 49
24 33 26 89 69 69 56 50
27 34 26 88 69 69 57 50
27 35 26 87 68 69 56 50
26 34 23 86 67 68 56 49
28 36 22 84 67 69 56 50
28 38 21 82 67 69 56 50
28 39 21 82 68 70 58 50
27 40 21 82 69 71 59 51
28 43 21 81 69 71 59 51
29 42 21 80 68 69 58 49
29 39 20 77 66 68 57 48
26 38 19 75 64 67 55 48
25 37 18 73 62 64 53 47
24 35 18 70 59 61 51 46
22 34 18 67 57 58 49 44
19 33 18 63 53 55 47 42
17 31 18 59 49 51 44 37
17 29 18 56 47 49 43 36
14 27 19 54 46 48 42 35
12 24 17 50 44 44 37 31
12 20 16 46 38 39 34 28
12 16 15 40 34 34 29 24
7 13 15 39 31 32 27 21
2 11 15 36 29 28 24 19
1 8 14 31 24 24 20 15
3 5 11 26 19 19 16 11
2 2 10 23 15 15 12 7
1 2 10 19 13 12 10 6
0 4 10 16 11 9 8 4
-2 2 11 14 8 5 5 0
-7 -2 10 12 6 3 3 -2
-9 -6 10 8 4 0 2 -4
-9 -9 10 5 0 -4 -2 -7
-11 -12 10 2 -3 -6 -4 -9
-12 -13 10 0 -5 -8 -5 -9
-12 -13 7 -4 -8 -10 -6 -9
-10 -15 5 -6 -10 -12 -9 -11
-10 -16 3 -8 -12 -14 -11 -13
-14 -17 4 -8 -12 -14 -11 -13
-16 -18 3 -9 -13 -16 -12 -15
-16 -19 1 -12 -15 -17 -13 -17
-14 -20 1 -15 -17 -19 -14 -18
-13 -20 1 -17 -18 -20 -15 -18
-12 -20 0 -18 -21 -23 -17 -21
-14 -21 0 -19 -22 -23 -17 -21
-16 -21 -2 -20 -24 -24 -18 -23
-19 -21 0 -19 -23 -24 -17 -22
-18 -21 0 -19 -22 -23 -17 -22
-17 -21 -2 -19 -21 -23 -17 -21
-17 -21 -2 -19 -22 -24 -19 -22
-18 -21 -2 -19 -22 -24 -18 -22
-17 -21 -2 -19 -21 -22 -18 -21
-15 -20 -3 -20 -22 -24 -18 -22
-14 -19 -2 -18 -21 -23 -18 -22
-16 -19 -2 -17 -21 -22 -19 -21
-17 -21 1 -16 -21 -22 -18 -21
-17 -21 2 -16 -21 -23 -18 -21
-17 -21 3 -16 -19 -21 -16 -20
-18 -21 3 -15 -19 -21 -16 -19
-17 -21 3 -15 -20 -22 -17 -19
-15 -21 2 -17 -22 -23 -17 -20
-15 -21 1 -18 -22 -24 -17 -20
-16 -22 1 -18 -23 -25 -18 -19
-17 -22 0 -19 -24 -24 -17 -20
-18 -21 0 -19 -24 -23 -16 -20
-17 -20 -2 -19 -23 -23 -17 -20
-16 -19 0 -17 -21 -21 -16 -20
-16 -19 1 -15 -20 -20 -15 -20
-16 -20 1 -17 -20 -21 -16 -21
-16 -21 1 -17 -20 -23 -17 -22
-17 -20 1 -17 -20 -22 -17 -21
-16 -20 2 -18 -21 -22 -18 -21
-14 -20 3 -19 -22 -23 -20 -22
-15 -21 4 -17 -21 -23 -19 -22
-17 -21 5 -15 -20 -21 -17 -19
-19 -22 4 -16 -21 -23 -16 -19
-19 -24 1 -19 -24 -25 -18 -21
-18 -25 1 -19 -23 -24 -19 -21
-17 -24 3 -17 -22 -23 -17 -21
-17 -23 2 -18 -23 -24 -19 -22
-18 -23 3 -17 -23 -24 -19 -22
-18 -22 3 -19 -23 -24 -19 -22
-18 -22 4 -19 -23 -25 -18 -21
-17 -21 2 -20 -25 -27 -18 -22
-16 -21 -2 -21 -27 -28 -19 -25
-14 -21 -2 -21 -26 -27 -19 -25
-14 -21 -2 -21 -27 -27 -19 -24
-16 -21 0 -21 -26 -27 -19 -23
-15 -21 0 -21 -25 -27 -19 -23
-14 -21 -3 -22 -26 -27 -19 -23
-14 -21 -4 -23 -26 -27 -19 -23
-16 -21 -3 -22 -25 -26 -19 -22
-14 -21 0 -20 -24 -26 -19 -21
-14 -21 1 -19 -24 -25 -19 -21
-14 -21 2 -18 -23 -23 -18 -19
-14 -19 3 -16 -20 -21 -16 -17
-14 -17 3 -15 -19 -21 -15 -16
-12 -15 3 -15 -19 -20 -13 -16
-9 -13 2 -16 -20 -21 -14 -17
-9 -11 2 -16 -19 -22 -13 -18
-11 -10 5 -14 -18 -20 -12 -16
-11 -9 5 -16 -18 -21 -12 -17
-14 -8 7 -15 -17 -20 -11 -16
-16 -6 8 -13 -16 -18 -11 -16
-15 -4 9 -12 -15 -17 -11 -15
-11 -3 9 -12 -15 -18 -12 -16
-10 -4 10 -12 -15 -18 -13 -15
-12 -5 10 -10 -14 -16 -10 -13
-11 -4 11 -8 -12 -14 -6 -10
-9 0 12 -7 -9 -12 -5 -8
-7 4 12 -7 -9 -11 -5 -7
-6 6 12 -8 -9 -11 -5 -7
-7 7 11 -9 -11 -13 -5 -8
-10 8 10 -10 -11 -14 -3 -7
-12 9 9 -12 -12 -13 -3 -7
-11 9 7 -13 -12 -13 -4 -8
-8 9 5 -14 -13 -14 -5 -9
-6 11 3 -15 -14 -14 -4 -8
-5 12 2 -14 -13 -13 -3 -6
-3 11 -2 -15 -14 -15 -6 -8
-3 9 -4 -15 -14 -15 -5 -8
-3 7 -3 -14 -13 -14 -4 -7
0 6 -4 -16 -15 -15 -6 -9
0 5 -3 -15 -14 -14 -5 -9
-2 3 -2 -13 -13 -14 -5 -9
-4 3 -2 -14 -14 -15 -8 -11
-5 0 -2 -14 -15 -17 -9 -13
-9 -5 -3 -15 -17 -18 -10 -15
-10 -9 0 -15 -17 -18 -11 -15
-8 -10 0 -18 -19 -21 -14 -17
-8 -14 -2 -20 -22 -23 -17 -19
-14 -19 0 -20 -22 -24 -17 -20
-19 -21 -3 -24 -26 -27 -20 -22
-20 -21 -3 -24 -26 -28 -20 -22
-19 -22 -3 -24 -26 -28 -21 -23
-16 -24 -4 -25 -28 -29 -23 -24
-14 -25 -5 -27 -30 -30 -23 -25
-14 -26 -7 -28 -31 -31 -24 -25
-12 -26 -8 -29 -31 -32 -24 -27
-12 -27 -8 -31 -32 -34 -26 -29
-14 -28 -7 -31 -33 -34 -26 -29
-19 -28 -4 -29 -31 -32 -25 -26
-18 -28 -4 -29 -32 -33 -26 -28
-16 -28 -4 -29 -32 -33 -26 -28
-15 -27 -5 -30 -33 -33 -28 -29
-14 -26 -6 -31 -34 -34 -29 -30
-16 -28 -6 -30 -33 -34 -29 -30
-17 -30 -7 -30 -33 -33 -29 -29
-15 -28 -8 -30 -33 -34 -28 -28
-14 -27 -7 -29 -32 -32 -26 -27
-16 -28 -7 -29 -31 -32 -26 -28
-17 -29 -7 -29 -31 -31 -27 -27
-14 -27 -6 -28 -30 -31 -25 -26
-12 -26 -8 -29 -31 -32 -26 -27
-14 -29 -8 -28 -33 -33 -26 -27
-14 -32 -8 -27 -35 -34 -28 -29
-12 -37 -6 -25 -35 -36 -31 -32
-9 -43 -3 -19 -34 -36 -34 -35
-7 -47 2 -11 -31 -36 -35 -37
-7 -45 5 -2 -24 -33 -34 -36
-6 -37 11 10 -14 -25 -28 -32
-6 -25 20 28 6 -8 -14 -20
-3 -10 28 49 29 14 5 -5
6 6 35 76 54 39 25 13
17 18 46 111 85 71 49 34
31 34 56 148 122 109 78 62
45 61 63 187 167 156 119 98
56 97 67 223 216 211 165 141
69 138 66 251 262 265 215 187
85 183 51 256 297 311 259 229
94 225 21 240 321 352 301 271
98 260 -16 213 335 383 337 306
99 275 -51 179 327 389 348 321
92 259 -77 136 288 356 323 302
75 210 -99 74 215 281 259 248
56 146 -115 3 123 184 177 178
35 84 -131 -75 31 82 92 102
13 33 -139 -152 -54 -13 16 33
-4 2 -141 -208 -115 -82 -37 -17
-13 -14 -133 -218 -135 -107 -60 -39
-16 -23 -119 -192 -124 -102 -61 -45
-15 -34 -106 -165 -115 -95 -63 -49
-11 -45 -91 -146 -112 -94 -67 -55
-10 -50 -71 -122 -103 -88 -66 -56
-12 -50 -53 -97 -90 -78 -62 -55
-12 -48 -38 -76 -74 -67 -54 -48
-11 -41 -30 -62 -62 -58 -47 -43
-10 -37 -22 -52 -52 -50 -40 -38
-12 -35 -16 -45 -46 -46 -34 -36
-14 -33 -12 -39 -44 -44 -28 -35
-14 -34 -11 -36 -43 -44 -26 -35
-12 -35 -9 -35 -41 -44 -26 -36
-12 -36 -8 -34 -41 -44 -26 -37
-14 -37 -7 -31 -39 -43 -24 -37
-15 -38 -5 -29 -38 -41 -23 -36
-14 -38 -5 -29 -38 -41 -23 -36
-14 -37 -4 -28 -37 -41 -22 -35
-14 -36 -4 -28 -36 -41 -21 -35
-14 -34 -5 -29 -38 -41 -21 -35
-14 -34 -5 -29 -39 -41 -20 -35
-13 -35 -5 -28 -39 -41 -21 -35
-13 -36 -4 -28 -39 -41 -21 -36
-15 -36 -3 -26 -37 -39 -21 -36
-17 -37 -2 -24 -36 -38 -20 -35
-19 -36 -2 -23 -34 -38 -19 -34
-16 -35 -2 -23 -33 -37 -19 -34
-12 -33 -3 -23 -33 -38 -20 -34
-11 -34 -3 -23 -33 -37 -20 -33
-14 -35 -4 -24 -34 -37 -19 -33
-15 -35 -2 -23 -33 -37 -19 -32
-13 -33 1 -23 -33 -38 -20 -32
-10 -31 1 -23 -34 -38 -20 -33
-11 -32 1 -23 -34 -38 -21 -33
-13 -33 2 -22 -33 -37 -20 -33
-14 -32 2 -21 -32 -36 -19 -32
-14 -31 3 -20 -30 -34 -18 -31
-12 -29 3 -19 -29 -33 -18 -30
-11 -29 2 -19 -29 -34 -19 -31
-11 -29 1 -20 -30 -35 -20 -31
-10 -29 2 -19 -30 -35 -19 -30
-10 -28 3 -18 -29 -33 -19 -30
-11 -28 3 -18 -28 -31 -19 -29
-12 -27 4 -16 -27 -30 -17 -29
-12 -26 4 -14 -26 -30 -16 -27
-8 -24 1 -15 -26 -31 -16 -27
-5 -23 -2 -15 -26 -31 -15 -26
-8 -24 0 -13 -24 -28 -14 -24
-11 -23 1 -12 -22 -26 -13 -23
-7 -22 -2 -13 -23 -27 -14 -24
-6 -21 1 -11 -22 -26 -13 -23
-9 -21 5 -9 -20 -24 -12 -22
-10 -21 5 -9 -19 -23 -12 -24
-8 -21 4 -7 -18 -23 -12 -24
-6 -20 4 -5 -17 -23 -12 -22
-6 -20 5 -2 -15 -21 -10 -19
-5 -19 6 1 -13 -19 -8 -18
-5 -17 7 2 -12 -19 -8 -18
-5 -16 8 4 -9 -16 -6 -16
-3 -16 8 6 -8 -14 -5 -15
2 -15 8 7 -8 -14 -5 -15
2 -15 10 10 -6 -12 -4 -13
-2 -15 12 14 -2 -8 -2 -10
-2 -14 13 17 1 -6 0 -9
4 -13 13 19 2 -6 -2 -9
7 -11 12 20 2 -5 0 -9
8 -9 12 22 4 -2 2 -7
7 -7 14 28 10 3 7 -3
7 -4 15 32 14 7 10 1
6 -2 17 36 18 11 14 5
7 1 18 38 20 13 15 7
9 2 19 42 21 17 17 10
12 3 18 43 22 19 19 11
13 4 19 47 26 22 22 14
13 7 20 52 30 26 25 18
16 12 21 56 34 31 27 21
24 16 21 59 37 34 30 24
25 19 21 62 40 36 33 26
22 21 20 64 43 38 35 27
24 24 20 67 46 40 38 30
29 29 22 69 50 45 42 32
30 32 23 71 53 49 45 34
29 34 23 73 55 52 47 36
30 36 24 75 57 54 50 39
34 38 23 76 57 55 51 40
33 39 24 77 59 57 53 42
29 40 24 79 63 61 56 46
30 42 24 80 65 63 58 48
33 42 24 80 65 64 59 49
30 43 25 80 66 66 61 51
30 44 26 81 68 67 63 54
34 46 24 80 67 67 63 54
34 46 23 79 67 69 63 54
32 45 22 79 67 69 63 55
33 45 22 79 66 68 62 54
36 46 20 76 64 67 62 54
35 48 21 76 66 68 64 55
34 49 21 76 66 69 63 56
34 48 22 74 65 67 62 54
33 47 22 72 64 65 61 53
31 45 22 71 63 63 60 53
29 43 23 70 62 63 59 53
28 40 23 66 59 60 56 50
26 37 22 62 55 56 52 47
25 35 21 59 52 54 49 45
24 33 20 56 49 51 48 42
20 31 19 52 46 48 46 39
16 28 19 49 44 45 45 37
14 27 18 45 40 42 42 35
16 26 15 39 36 37 36 30
17 24 15 35 32 32 31 27
13 22 16 33 29 28 29 24
6 18 17 30 27 26 27 22
2 14 18 28 25 25 25 20
3 13 17 26 22 21 21 16
4 12 15 22 19 16 18 13
3 9 13 17 15 12 15 11
2 5 13 15 12 9 14 9
1 3 13 12 10 7 12 8
-2 1 12 7 7 4 9 5
-5 -4 13 6 5 2 6 2
-8 -6 12 3 2 -2 3 -2
-5 -9 10 0 -3 -5 1 -6
-2 -11 9 -3 -6 -7 -3 -7
-4 -11 9 -4 -6 -8 -4 -7
-9 -12 9 -5 -5 -8 -3 -7
-11 -12 7 -8 -8 -10 -3 -8
-10 -12 7 -10 -9 -11 -4 -9
-8 -12 6 -11 -11 -13 -6 -11
-9 -13 5 -13 -12 -14 -6 -12
-11 -14 4 -14 -13 -14 -6 -11
-10 -13 4 -15 -14 -15 -6 -12
-10 -13 4 -15 -15 -17 -7 -13
-14 -15 6 -16 -15 -17 -7 -13
-14 -16 6 -15 -14 -16 -7 -13
-12 -15 4 -17 -15 -17 -8 -14
-11 -15 2 -20 -17 -19 -9 -15
-12 -15 2 -18 -17 -19 -8 -14
-12 -15 1 -17 -16 -18 -8 -14
-10 -15 -2 -19 -18 -19 -10 -15
-9 -15 -2 -19 -19 -20 -11 -18
-11 -13 0 -18 -18 -21 -12 -18
-13 -13 2 -18 -17 -20 -11 -17
-13 -13 3 -18 -16 -18 -9 -16
-13 -12 4 -16 -15 -17 -8 -15
-13 -12 5 -15 -13 -15 -7 -14
-14 -14 5 -15 -12 -15 -6 -13
-15 -15 6 -15 -12 -15 -7 -13
-12 -14 4 -16 -14 -17 -9 -14
-9 -12 3 -16 -16 -18 -10 -14
-11 -13 3 -17 -18 -19 -10 -15
-14 -15 2 -18 -18 -20 -11 -17
-14 -15 1 -18 -17 -20 -12 -17
-14 -15 2 -17 -16 -19 -11 -18
-14 -14 3 -16 -15 -18 -10 -18
-14 -13 5 -14 -14 -17 -9 -15
-14 -11 6 -15 -14 -17 -9 -14
-12 -12 7 -15 -14 -17 -9 -13
-10 -13 5 -17 -16 -19 -12 -17
-11 -15 6 -16 -16 -18 -12 -16
-11 -16 8 -15 -15 -18 -11 -15
-10 -17 8 -14 -15 -18 -11 -15
-10 -18 8 -14 -15 -19 -12 -15
-12 -18 8 -15 -15 -18 -11 -14
-14 -18 7 -16 -17 -19 -11 -15
-15 -17 5 -17 -18 -20 -12 -16
-16 -16 4 -19 -20 -21 -12 -16
-15 -16 4 -19 -19 -22 -12 -16
-13 -14 4 -19 -19 -21 -12 -17
-11 -13 3 -19 -18 -21 -13 -17
-14 -13 4 -18 -19 -21 -13 -18
-17 -14 5 -18 -20 -22 -15 -19
-17 -16 6 -18 -19 -21 -14 -19
-14 -17 5 -18 -20 -23 -16 -19
-14 -17 4 -18 -21 -23 -16 -19
-14 -18 3 -20 -22 -24 -17 -20
-14 -17 3 -20 -20 -23 -15 -19
-14 -16 4 -19 -18 -21 -13 -18
-11 -14 3 -20 -21 -23 -15 -18
-9 -13 3 -21 -22 -23 -15 -18
-10 -12 5 -20 -21 -22 -14 -17
-11 -11 6 -17 -17 -20 -12 -16
-10 -10 7 -16 -16 -20 -13 -16
-9 -9 8 -15 -15 -19 -12 -15
-9 -7 10 -14 -14 -18 -11 -14
-9 -6 10 -13 -14 -16 -11 -13
-10 -6 9 -14 -14 -17 -11 -13
-11 -5 10 -15 -14 -18 -12 -14
-12 -3 12 -12 -12 -17 -10 -13
-11 0 14 -11 -12 -16 -9 -11
-9 1 15 -11 -12 -16 -10 -11
-10 1 15 -10 -11 -15 -10 -12
-10 2 16 -8 -9 -13 -8 -10
-10 3 17 -8 -9 -12 -6 -9
-8 4 17 -7 -9 -12 -6 -9
-7 6 16 -8 -8 -11 -5 -8
-7 9 15 -8 -7 -10 -5 -8
-7 11 13 -8 -7 -10 -4 -7
-4 13 10 -11 -9 -12 -5 -8
-2 14 9 -13 -10 -13 -5 -9
-4 14 10 -12 -9 -13 -5 -9
-6 14 10 -12 -10 -14 -6 -10
-4 13 8 -14 -11 -14 -7 -10
0 13 5 -14 -11 -14 -6 -10
-2 13 4 -13 -10 -13 -5 -9
-3 13 4 -13 -9 -12 -5 -7
-3 11 2 -14 -10 -12 -5 -7
0 10 1 -14 -10 -12 -4 -7
0 10 1 -14 -10 -11 -4 -5
0 9 0 -15 -11 -11 -4 -6
-2 7 -2 -16 -14 -14 -6 -7
-3 3 -2 -16 -15 -16 -7 -8
-4 1 -2 -18 -17 -18 -9 -11
-3 -2 -3 -19 -18 -19 -12 -13
-5 -4 0 -19 -18 -19 -13 -14
-8 -6 -2 -21 -20 -21 -15 -16
-10 -10 -3 -24 -23 -23 -17 -18
-13 -13 -2 -25 -25 -25 -20 -19
-14 -14 -2 -24 -25 -26 -21 -20
-15 -16 -2 -26 -26 -27 -23 -22
-16 -21 -4 -29 -29 -30 -25 -24
-17 -25 -4 -29 -30 -31 -26 -25
-16 -26 -4 -29 -30 -31 -26 -26
-17 -25 -3 -29 -30 -31 -26 -26
-18 -26 -3 -29 -30 -32 -27 -25
-16 -28 -6 -31 -32 -33 -29 -26
-15 -28 -7 -34 -35 -36 -31 -29
-16 -27 -6 -33 -35 -37 -31 -30
-16 -26 -5 -32 -34 -36 -30 -29
-15 -25 -5 -33 -34 -36 -30 -30
-17 -24 -4 -33 -33 -35 -30 -29
-20 -25 -4 -32 -33 -34 -29 -28
-20 -26 -4 -32 -33 -33 -28 -28
-18 -26 -4 -32 -33 -33 -27 -28
-17 -26 -6 -33 -35 -35 -29 -29
-17 -27 -7 -33 -34 -35 -29 -28
-18 -28 -8 -34 -33 -34 -29 -27
-17 -27 -6 -32 -32 -33 -28 -26
-14 -26 -8 -34 -35 -35 -30 -28
-13 -27 -10 -35 -37 -36 -32 -30
-14 -29 -9 -33 -36 -35 -31 -29
-18 -32 -5 -29 -33 -33 -29 -28
-20 -38 -3 -28 -34 -36 -32 -31
-15 -45 -2 -27 -36 -40 -37 -36
-12 -50 2 -20 -35 -40 -39 -40
-12 -49 6 -11 -29 -37 -38 -39
-13 -41 10 1 -20 -29 -32 -34
-12 -27 17 16 -2 -15 -20 -25
-7 -12 23 36 20 8 0 -10
3 2 30 60 43 31 18 8
16 15 37 90 67 56 36 26
28 31 47 125 99 89 64 52
40 54 56 161 138 131 98 84
52 86 63 199 182 180 142 125
66 125 64 230 225 231 188 168
82 168 57 243 262 278 232 210
96 211 35 237 288 318 274 253
104 247 4 216 304 351 310 289
106 265 -32 183 302 362 326 308
97 252 -59 145 271 341 311 298
80 210 -80 91 207 278 258 253
63 151 -100 21 125 189 182 186
45 90 -118 -55 38 95 102 113
19 39 -131 -131 -43 3 27 45
-6 5 -136 -193 -105 -67 -29 -10
-18 -13 -130 -215 -131 -98 -55 -36
-21 -21 -118 -195 -127 -97 -59 -44
-18 -30 -107 -170 -117 -93 -60 -49
-19 -41 -93 -150 -112 -93 -63 -53
-21 -50 -75 -131 -106 -89 -64 -55
-20 -51 -59 -106 -96 -81 -62 -55
-16 -48 -44 -85 -82 -72 -56 -51
-15 -43 -32 -68 -69 -61 -48 -45
-17 -38 -26 -57 -59 -53 -43 -40
-20 -36 -20 -50 -53 -48 -38 -37
-19 -35 -17 -46 -50 -46 -37 -36
-20 -36 -13 -40 -47 -44 -35 -34
-22 -39 -12 -39 -47 -44 -37 -35
-21 -40 -13 -41 -49 -46 -39 -37
-18 -40 -14 -41 -49 -47 -39 -38
-18 -39 -13 -39 -48 -47 -38 -37
-20 -39 -11 -37 -46 -45 -36 -36
-22 -39 -10 -36 -45 -44 -36 -36
-20 -39 -9 -34 -44 -41 -36 -35
-19 -39 -10 -34 -44 -41 -37 -37
-22 -39 -9 -35 -44 -43 -37 -38
-23 -39 -7 -33 -43 -43 -37 -36
-21 -39 -6 -31 -43 -43 -37 -35
-19 -40 -6 -31 -40 -43 -36 -36
-18 -41 -7 -32 -41 -43 -37 -37
-18 -43 -7 -31 -41 -41 -37 -37
-19 -39 -7 -30 -40 -41 -36 -36
-21 -38 -4 -27 -37 -38 -33 -33
-22 -38 -3 -27 -37 -37 -32 -33
-22 -38 -3 -26 -37 -37 -32 -33
-21 -36 -4 -27 -37 -37 -33 -34
-19 -36 -5 -28 -38 -39 -34 -34
-19 -37 -4 -27 -37 -38 -33 -33
-20 -36 -3 -26 -36 -38 -33 -33
-19 -35 -4 -27 -37 -39 -33 -33
-17 -36 -5 -27 -36 -39 -33 -32
-14 -36 -7 -28 -36 -39 -33 -33
-14 -33 -7 -27 -36 -39 -33 -34
-17 -32 -6 -25 -35 -37 -32 -32
-18 -32 -6 -25 -35 -36 -30 -31
-16 -32 -8 -26 -38 -38 -32 -33
-15 -31 -9 -27 -37 -39 -34 -35
-16 -30 -6 -25 -35 -37 -31 -32
-16 -30 -5 -24 -34 -35 -30 -31
-16 -30 -7 -24 -34 -35 -30 -31
-17 -29 -7 -23 -33 -34 -30 -31
-17 -26 -6 -21 -31 -33 -28 -29
-15 -23 -5 -19 -29 -31 -25 -28
-14 -22 -4 -18 -28 -30 -26 -27
-13 -22 -4 -19 -28 -30 -26 -27
-15 -23 -4 -19 -28 -29 -25 -27
-15 -23 -3 -18 -28 -29 -25 -27
-12 -23 -4 -17 -29 -30 -26 -28
-10 -23 -3 -16 -27 -29 -24 -27
-11 -23 -2 -12 -23 -27 -23 -26
-13 -22 0 -8 -20 -24 -22 -25
-15 -22 1 -6 -18 -21 -20 -23
-14 -21 1 -6 -17 -19 -18 -21
-10 -21 1 -5 -17 -18 -18 -19
-8 -20 1 -3 -15 -17 -17 -18
-9 -19 2 0 -12 -14 -14 -15
-11 -18 2 2 -11 -12 -12 -13
-10 -17 3 5 -9 -10 -10 -11
-6 -17 3 6 -8 -10 -10 -11
-4 -16 3 7 -7 -10 -9 -11
-3 -15 4 9 -6 -8 -8 -10
-2 -13 5 13 -2 -4 -5 -7
1 -10 6 16 1 -2 -4 -6
2 -7 7 20 5 2 0 -5
2 -6 8 23 8 5 2 -2
1 -3 11 28 12 8 5 2
4 0 12 31 15 10 6 4
9 2 13 34 17 11 7 5
12 4 13 36 19 15 10 7
11 6 14 40 23 20 14 12
12 8 14 44 26 23 17 16
13 11 15 47 29 27 20 18
14 14 17 51 32 31 24 22
16 16 18 54 35 35 27 25
19 18 18 56 37 38 30 28
20 21 18 58 40 42 35 32
22 24 17 59 42 43 36 32
25 25 17 61 43 45 37 34
26 27 17 62 45 47 38 36
25 29 17 64 47 50 42 39
25 31 19 67 50 53 45 43
28 35 17 67 51 54 45 42
31 38 16 66 52 53 46 43
30 39 16 66 52 55 48 44
28 40 17 68 55 58 50 47
30 42 16 68 55 58 51 47
32 43 14 67 55 58 51 48
31 44 14 66 54 59 52 48
29 44 13 65 54 59 51 48
29 45 13 64 54 59 51 48
31 45 12 64 55 58 51 49
32 46 12 64 56 59 53 50
32 46 12 63 55 59 53 49
32 46 12 61 53 57 51 48
28 45 13 61 52 57 49 47
25 44 14 62 53 57 50 48
25 44 13 60 52 56 49 46
27 43 11 56 49 52 46 43
26 39 11 53 47 49 44 42
23 35 9 49 44 46 40 39
20 32 9 46 39 42 37 36
16 29 11 44 36 40 36 35
14 28 12 42 35 38 35 33
15 27 10 37 32 35 31 30
14 24 9 34 30 32 30 28
12 21 7 30 26 27 26 23
10 18 8 29 24 26 24 22
9 16 7 26 22 23 21 20
7 13 6 23 20 20 18 17
3 11 6 20 18 17 15 14
-2 9 6 18 16 15 13 13
-3 7 6 15 13 12 11 11
-2 4 4 10 9 8 8 7
0 2 3 6 6 4 5 4
1 1 3 4 3 1 3 2
0 0 2 1 0 -3 0 -2
-6 -5 1 -2 -4 -5 -4 -5
-11 -7 3 -3 -4 -5 -5 -6
-12 -8 3 -5 -4 -7 -6 -7
-11 -9 1 -8 -6 -9 -7 -9
-11 -10 -2 -9 -7 -11 -8 -11
-11 -12 -5 -12 -10 -14 -10 -11
-13 -14 -5 -13 -13 -14 -11 -10
-14 -15 -6 -16 -16 -17 -13 -13
-15 -16 -5 -17 -16 -17 -14 -15
-14 -16 -4 -17 -16 -18 -14 -15
-14 -15 -4 -18 -18 -19 -15 -16
-14 -15 -4 -20 -19 -21 -16 -17
-14 -17 -4 -21 -19 -22 -16 -18
-12 -16 -4 -21 -19 -23 -17 -19
-12 -15 -3 -20 -18 -21 -16 -19
-13 -15 -3 -20 -17 -19 -16 -17
-13 -15 -3 -20 -18 -20 -16 -17
-14 -15 -4 -21 -19 -22 -16 -18
-16 -15 -3 -20 -18 -21 -15 -17
-17 -16 -2 -19 -17 -20 -14 -17
-16 -17 -3 -19 -18 -20 -15 -18
-14 -17 -4 -19 -18 -21 -16 -18
-14 -17 -4 -19 -18 -21 -16 -17
-15 -18 -4 -19 -18 -20 -15 -17
-17 -17 -5 -19 -18 -21 -16 -18
-18 -17 -4 -18 -17 -19 -15 -16
-16 -17 -3 -18 -17 -19 -15 -15
-15 -17 -4 -19 -18 -21 -16 -17
-14 -17 -4 -20 -18 -21 -17 -18
-14 -16 -4 -19 -18 -21 -17 -18
-14 -16 -4 -17 -17 -21 -17 -18
-17 -16 -3 -16 -15 -20 -16 -17
-17 -16 -4 -17 -15 -20 -16 -17
-16 -17 -4 -18 -16 -20 -16 -18
-16 -17 -4 -17 -16 -19 -16 -19
-15 -15 -3 -17 -16 -20 -16 -18
-14 -14 -3 -17 -16 -21 -16 -18
-15 -15 -4 -19 -18 -22 -17 -19
-18 -17 -4 -21 -20 -23 -18 -20
-18 -15 -4 -21 -22 -23 -16 -18
-15 -13 -4 -22 -23 -25 -17 -19
-14 -14 -5 -21 -22 -24 -18 -20
-14 -16 -5 -20 -18 -23 -17 -21
-15 -15 -3 -17 -16 -21 -16 -20
-16 -15 -3 -16 -15 -20 -16 -20
-17 -16 -3 -16 -16 -20 -16 -19
-16 -17 -4 -18 -18 -22 -18 -20
-16 -17 -4 -20 -20 -24 -20 -21
-17 -17 -4 -21 -21 -25 -21 -20
-17 -16 -4 -21 -20 -24 -19 -17
-16 -18 -4 -21 -20 -24 -19 -17
-15 -20 -5 -22 -22 -25 -21 -18
-17 -20 -6 -22 -22 -25 -20 -19
-17 -20 -5 -22 -21 -26 -20 -20
-14 -20 -4 -23 -23 -26 -20 -20
-13 -19 -5 -24 -25 -28 -21 -21
-15 -19 -5 -24 -24 -27 -20 -20
-17 -20 -6 -24 -24 -28 -20 -21
-16 -21 -7 -25 -25 -28 -21 -22
-15 -20 -7 -25 -25 -28 -21 -23
-17 -19 -7 -25 -23 -27 -21 -23
-17 -19 -6 -24 -22 -27 -22 -24
-14 -19 -6 -24 -22 -27 -23 -24
-14 -20 -7 -24 -23 -27 -24 -24
-15 -20 -7 -23 -23 -26 -23 -23
-15 -19 -6 -22 -22 -25 -22 -22
-15 -18 -4 -22 -20 -24 -20 -19
-14 -16 -4 -20 -20 -22 -18 -17
-12 -12 -3 -19 -19 -20 -16 -15
-7 -9 -4 -19 -18 -21 -16 -17
-5 -7 -2 -18 -17 -22 -17 -18
-9 -8 1 -16 -16 -21 -16 -17
-15 -9 6 -14 -13 -18 -13 -14
-16 -7 6 -15 -14 -20 -15 -15
-14 -5 6 -15 -14 -20 -15 -14
-10 -2 4 -16 -14 -20 -15 -15
-9 0 3 -16 -15 -20 -14 -15
-8 1 3 -16 -17 -21 -14 -16
-10 2 5 -13 -14 -19 -12 -14
-12 2 5 -13 -13 -18 -12 -14
-14 2 7 -11 -11 -16 -11 -13
-12 4 9 -9 -10 -14 -10 -11
-10 6 10 -8 -8 -13 -9 -10
-8 8 11 -8 -6 -11 -7 -7
-7 11 10 -8 -5 -10 -5 -4
-6 14 8 -11 -7 -11 -4 -4
-5 12 6 -12 -8 -11 -4 -4
-6 10 5 -13 -10 -12 -5 -4
-4 12 2 -14 -12 -13 -7 -6
2 16 0 -15 -11 -13 -6 -7
2 18 0 -13 -10 -12 -5 -6
0 16 0 -13 -10 -12 -6 -6
0 15 -2 -13 -11 -13 -6 -6
3 14 -4 -12 -9 -11 -5 -6
5 12 -5 -11 -9 -11 -6 -6
4 10 -4 -11 -10 -12 -7 -7
2 8 -3 -12 -11 -13 -8 -8
1 6 -3 -14 -14 -14 -10 -9
4 3 -5 -17 -16 -17 -12 -12
5 0 -6 -20 -17 -19 -13 -13
1 -5 -5 -20 -18 -19 -14 -14
-6 -9 -2 -18 -17 -19 -14 -13
-11 -13 -2 -20 -18 -20 -15 -15
-14 -16 -2 -21 -20 -23 -17 -17
-15 -16 -2 -23 -24 -27 -20 -20
-15 -19 0 -24 -26 -28 -21 -21
-15 -21 0 -26 -28 -30 -23 -22
-16 -20 -2 -26 -28 -30 -23 -23
-16 -19 -3 -26 -28 -30 -23 -23
-15 -21 -5 -27 -29 -32 -24 -25
-15 -22 -7 -30 -31 -34 -27 -26
-14 -23 -9 -30 -30 -33 -27 -26
-13 -23 -8 -29 -30 -32 -26 -25
-12 -23 -7 -29 -30 -33 -25 -25
-13 -24 -7 -30 -32 -35 -27 -26
-14 -24 -7 -30 -32 -35 -28 -26
-14 -24 -7 -30 -32 -35 -27 -26
-15 -23 -7 -28 -32 -34 -26 -25
-15 -22 -8 -29 -32 -35 -28 -28
-15 -22 -8 -28 -29 -34 -29 -28
-14 -23 -5 -28 -28 -33 -28 -27
-14 -24 -3 -28 -29 -32 -26 -26
-16 -25 -4 -28 -30 -32 -26 -26
-17 -25 -5 -28 -31 -32 -26 -27
-16 -25 -6 -27 -30 -30 -26 -26
-16 -25 -6 -27 -29 -30 -26 -25
-15 -25 -7 -29 -30 -32 -27 -26
-15 -26 -5 -27 -29 -31 -26 -26
-15 -29 -4 -25 -31 -33 -28 -28
-14 -36 -4 -23 -34 -37 -32 -33
-11 -43 -3 -20 -34 -40 -37 -38
-6 -43 0 -13 -31 -39 -38 -39
-9 -36 4 -3 -22 -31 -32 -35
-13 -28 11 12 -8 -21 -22 -27
-10 -17 18 28 9 -4 -10 -15
-3 -3 25 50 30 18 9 2
8 12 32 74 54 42 28 20
20 23 39 105 79 69 51 40
35 38 45 138 112 105 79 67
51 65 50 175 151 149 116 102
66 100 56 211 195 199 160 145
81 140 57 234 235 247 205 188
95 184 46 238 266 290 247 230
108 227 21 222 287 325 286 271
118 257 -13 193 293 347 313 299
116 259 -44 158 274 340 312 302
103 230 -69 110 228 295 274 273
85 179 -90 49 156 219 211 218
63 121 -106 -19 78 134 137 151
34 65 -119 -91 1 47 64 82
6 21 -131 -163 -70 -35 -2 19
-13 -2 -133 -207 -114 -85 -41 -22
-22 -10 -122 -205 -121 -97 -55 -38
-25 -20 -108 -178 -111 -92 -56 -43
-21 -33 -98 -157 -106 -91 -60 -49
-19 -46 -86 -140 -104 -91 -65 -55
-22 -51 -67 -117 -96 -86 -65 -55
-21 -51 -50 -95 -83 -77 -61 -53
-15 -46 -40 -78 -74 -69 -57 -50
-14 -40 -31 -62 -62 -59 -49 -44
-18 -38 -22 -51 -52 -51 -40 -37
-21 -36 -18 -45 -47 -46 -37 -35
-20 -35 -15 -40 -46 -45 -37 -36
-20 -35 -11 -37 -44 -45 -37 -38
-22 -35 -9 -36 -41 -45 -37 -39
-23 -36 -9 -35 -40 -45 -38 -39
-22 -38 -9 -35 -40 -45 -39 -39
-21 -37 -10 -35 -40 -45 -39 -39
-21 -35 -8 -32 -38 -43 -37 -37
-23 -35 -6 -30 -37 -43 -36 -36
-24 -37 -5 -31 -37 -43 -36 -36
-23 -38 -6 -33 -39 -44 -37 -36
-21 -38 -6 -32 -40 -45 -38 -36
-22 -38 -6 -31 -41 -46 -39 -37
-25 -39 -5 -30 -39 -45 -38 -36
-24 -39 -4 -29 -38 -41 -36 -35
-21 -38 -4 -29 -37 -41 -35 -36
-20 -38 -5 -28 -36 -41 -35 -36
-23 -38 -4 -27 -36 -40 -34 -34
-26 -38 -3 -27 -36 -40 -33 -34
-24 -37 -3 -27 -35 -40 -33 -35
-20 -36 -2 -27 -34 -38 -32 -33
-20 -36 -2 -27 -34 -38 -33 -33
-23 -36 1 -26 -35 -40 -34 -35
-23 -35 1 -27 -36 -40 -33 -35
-18 -32 0 -27 -35 -39 -33 -34
-16 -32 -2 -26 -36 -39 -34 -34
-17 -34 -2 -27 -35 -39 -34 -34
-18 -34 -2 -27 -35 -39 -34 -34
-20 -33 0 -24 -32 -37 -32 -32
-22 -34 1 -22 -31 -36 -30 -31
-20 -35 1 -24 -32 -36 -31 -32
-18 -34 0 -23 -32 -36 -32 -33
-19 -34 2 -21 -30 -35 -30 -31
-19 -34 2 -21 -29 -34 -30 -31
-17 -32 0 -21 -30 -35 -32 -32
-14 -31 -2 -19 -28 -34 -32 -32
-15 -31 -2 -19 -26 -34 -32 -32
-19 -31 0 -18 -25 -32 -29 -30
-21 -31 -2 -19 -24 -31 -27 -28
-19 -29 0 -18 -24 -29 -26 -26
-18 -28 0 -18 -26 -29 -26 -27
-18 -30 1 -17 -25 -28 -26 -28
-16 -29 1 -17 -25 -28 -26 -27
-14 -27 1 -15 -24 -28 -24 -26
-14 -26 1 -13 -23 -27 -24 -25
-16 -26 4 -10 -20 -24 -22 -23
-18 -25 5 -8 -18 -23 -20 -21
-16 -24 4 -9 -18 -22 -20 -22
-13 -23 3 -9 -18 -22 -21 -21
-9 -21 3 -7 -17 -21 -19 -20
-8 -21 2 -5 -14 -19 -17 -19
-11 -21 3 0 -11 -15 -16 -17
-13 -21 4 2 -10 -13 -15 -16
-14 -21 4 4 -9 -13 -13 -15
-14 -20 7 8 -6 -10 -11 -11
-11 -18 10 10 -4 -8 -9 -9
-9 -16 10 13 0 -5 -6 -7
-6 -15 10 15 2 -3 -3 -5
-3 -12 8 16 3 0 -2 -4
-2 -9 9 19 4 1 0 -4
0 -7 10 21 6 3 1 -3
3 -5 11 25 10 6 3 0
3 -4 12 29 13 9 5 2
2 -3 13 33 15 12 8 5
5 2 12 35 17 14 10 7
11 5 11 37 19 16 12 8
10 9 13 43 25 21 17 12
8 12 15 48 31 27 22 17
10 14 16 51 33 31 25 20
15 17 16 52 35 33 27 23
19 19 17 53 37 35 30 26
21 20 19 56 40 39 32 29
19 22 20 60 44 44 35 32
17 23 21 63 46 47 38 35
17 25 20 65 48 49 39 35
18 27 22 68 51 52 40 36
22 29 22 69 54 54 43 38
25 31 22 70 56 56 46 42
23 32 21 70 58 58 48 44
18 33 21 71 58 58 48 46
18 33 21 71 58 58 50 48
22 34 21 71 58 60 51 49
25 36 20 71 58 61 51 49
27 37 19 70 58 61 52 49
25 37 20 71 60 63 54 52
23 37 19 70 60 64 55 53
22 38 18 69 60 63 54 52
24 38 16 67 59 61 53 51
27 40 15 64 56 59 51 50
27 40 15 63 55 58 51 49
23 38 14 60 55 57 50 49
20 37 14 59 53 55 48 47
19 36 16 60 52 56 48 47
19 35 15 56 48 52 46 44
17 33 14 53 46 50 44 42
16 32 13 51 45 47 40 38
15 31 14 49 44 45 39 37
16 28 13 46 42 43 37 35
16 25 11 43 38 40 35 33
12 22 13 40 36 38 33 31
7 19 14 36 33 34 30 28
6 16 13 32 27 28 26 24
7 15 12 28 23 25 22 21
4 14 11 23 20 21 20 18
-2 10 10 20 18 18 17 15
-3 8 9 18 16 16 14 12
1 6 8 15 15 13 12 10
0 3 8 12 11 10 8 7
-3 0 8 10 8 8 6 5
-6 -4 8 7 7 5 4 4
-11 -6 8 4 5 3 2 2
-13 -9 8 1 2 0 -2 0
-11 -11 7 -3 -2 -4 -4 -3
-10 -13 4 -6 -6 -7 -6 -5
-11 -14 2 -8 -9 -10 -8 -7
-12 -14 0 -11 -11 -12 -10 -9
-11 -14 0 -11 -10 -12 -9 -10
-12 -13 0 -11 -9 -12 -9 -10
-12 -12 1 -13 -10 -12 -9 -11
-11 -13 1 -16 -13 -15 -11 -13
-13 -16 0 -18 -14 -17 -14 -15
-17 -18 0 -18 -15 -18 -15 -15
-20 -19 0 -18 -16 -19 -16 -16
-21 -20 1 -19 -17 -20 -16 -17
-20 -21 0 -21 -20 -21 -18 -17
-18 -21 0 -23 -22 -23 -18 -18
-15 -21 -2 -25 -23 -25 -19 -18
-14 -23 -2 -25 -24 -26 -20 -19
-15 -23 1 -24 -23 -24 -20 -18
-19 -23 0 -24 -22 -23 -19 -18
-20 -23 -2 -24 -22 -24 -19 -19
-20 -21 -2 -24 -22 -23 -19 -20
-20 -20 0 -23 -21 -23 -19 -20
-19 -20 1 -21 -19 -22 -18 -18
-17 -19 0 -21 -18 -21 -16 -18
-16 -19 1 -20 -17 -21 -16 -17
-16 -20 2 -20 -17 -22 -17 -19
-17 -21 1 -21 -18 -22 -18 -20
-19 -21 0 -23 -20 -23 -20 -20
-18 -21 -2 -22 -19 -22 -20 -19
-14 -20 0 -22 -20 -22 -20 -19
-13 -20 1 -23 -21 -23 -20 -18
-16 -21 0 -24 -22 -25 -21 -20
-21 -21 0 -20 -20 -22 -18 -18
-21 -21 0 -18 -18 -21 -17 -17
-19 -20 -2 -20 -19 -23 -18 -17
-18 -19 -3 -22 -21 -23 -17 -18
-16 -18 -3 -20 -19 -21 -16 -16
-16 -17 -2 -20 -19 -21 -16 -16
-18 -18 0 -20 -19 -22 -17 -16
-18 -18 1 -19 -20 -23 -17 -17
-17 -19 2 -20 -21 -24 -18 -18
-17 -20 2 -21 -20 -24 -19 -19
-16 -20 2 -21 -20 -24 -20 -20
-17 -21 3 -21 -20 -23 -20 -20
-19 -21 2 -21 -21 -23 -19 -21
-19 -20 1 -21 -21 -23 -19 -21
-19 -21 1 -21 -21 -23 -19 -20
-19 -21 1 -22 -22 -23 -19 -20
-20 -20 1 -23 -23 -24 -20 -21
-20 -20 1 -24 -23 -25 -22 -22
-18 -20 0 -23 -24 -26 -23 -22
-15 -20 0 -23 -24 -27 -23 -23
-16 -21 1 -21 -23 -27 -23 -22
-17 -21 2 -21 -23 -27 -23 -22
-19 -22 2 -22 -23 -27 -23 -22
-16 -21 0 -24 -25 -29 -24 -23
-14 -20 0 -24 -25 -28 -23 -23
-14 -19 0 -24 -25 -26 -21 -22
-14 -19 1 -23 -22 -24 -20 -20
-14 -19 1 -22 -20 -24 -20 -19
-17 -19 -2 -24 -23 -27 -23 -21
-19 -21 0 -25 -27 -29 -23 -22
-17 -21 1 -25 -27 -29 -22 -21
-15 -21 0 -24 -27 -29 -22 -21
-15 -19 -2 -23 -23 -27 -20 -19
-15 -17 0 -21 -21 -24 -19 -17
-13 -16 0 -21 -21 -25 -19 -18
-12 -16 0 -22 -23 -26 -21 -19
-14 -15 1 -20 -22 -25 -21 -18
-14 -13 3 -18 -20 -23 -18 -16
-14 -11 6 -17 -19 -22 -17 -16
-14 -11 8 -18 -19 -22 -17 -16
-13 -12 7 -19 -19 -22 -17 -16
-11 -11 8 -18 -18 -21 -16 -15
-11 -7 10 -15 -16 -19 -15 -15
-14 -5 10 -14 -16 -20 -14 -15
-15 -6 9 -16 -16 -20 -15 -14
-14 -7 8 -15 -16 -20 -14 -14
-13 -4 9 -14 -15 -19 -13 -13
-13 0 11 -12 -14 -17 -12 -12
-13 1 12 -11 -13 -17 -12 -11
-13 2 12 -11 -10 -16 -12 -11
-13 5 13 -10 -9 -14 -10 -9
-11 7 13 -11 -10 -14 -9 -8
-7 8 11 -12 -11 -13 -9 -9
-7 8 9 -13 -11 -13 -9 -9
-10 8 7 -14 -12 -15 -9 -9
-10 8 6 -16 -13 -15 -9 -8
-6 11 3 -18 -14 -15 -9 -8
-5 13 0 -18 -13 -14 -8 -6
-6 11 -2 -17 -13 -15 -8 -6
-2 8 -4 -17 -15 -16 -9 -7
2 6 -5 -16 -14 -15 -9 -7
1 5 -4 -15 -14 -15 -9 -7
0 5 0 -14 -12 -14 -8 -6
-2 4 1 -12 -11 -13 -7 -6
-2 3 2 -13 -12 -14 -8 -6
-5 -2 2 -15 -15 -17 -10 -8
-8 -6 2 -17 -18 -20 -13 -9
-6 -9 0 -20 -20 -23 -14 -11
-4 -12 -3 -23 -24 -25 -17 -15
-6 -15 -3 -25 -26 -28 -20 -17
-12 -18 -2 -26 -27 -28 -21 -19
-15 -20 -2 -26 -28 -30 -23 -21
-17 -21 -2 -25 -27 -29 -23 -22
-18 -21 -3 -26 -26 -28 -23 -22
-16 -21 -4 -28 -27 -29 -24 -23
-14 -23 -5 -28 -29 -30 -26 -25
-17 -26 -4 -29 -30 -32 -27 -26
-19 -27 -4 -30 -31 -33 -27 -27
-15 -27 -5 -32 -33 -34 -28 -27
-14 -27 -5 -32 -33 -33 -27 -26
-16 -27 -6 -31 -32 -33 -27 -25
-19 -27 -5 -30 -33 -34 -26 -25
-20 -27 -3 -29 -33 -34 -25 -25
-18 -27 -3 -29 -32 -33 -25 -24
-15 -26 -2 -29 -32 -32 -25 -24
-13 -27 -5 -30 -33 -34 -27 -26
-14 -29 -6 -30 -32 -35 -28 -27
-14 -29 -7 -30 -33 -36 -28 -28
-14 -28 -6 -31 -33 -36 -27 -27
-13 -28 -5 -31 -33 -35 -26 -26
-12 -27 -8 -31 -34 -36 -27 -26
-11 -26 -10 -31 -34 -36 -28 -26
-11 -25 -9 -30 -34 -34 -27 -26
-13 -27 -6 -29 -33 -34 -27 -27
-14 -29 -6 -30 -36 -37 -30 -29
-12 -35 -5 -28 -38 -40 -33 -31
-10 -41 -4 -24 -38 -43 -37 -35
-7 -44 1 -17 -35 -41 -38 -39
-6 -41 4 -6 -26 -35 -36 -38
-4 -34 9 8 -15 -27 -30 -32
-2 -22 17 24 3 -10 -17 -21
2 -8 26 44 24 12 4 -4
11 5 34 67 47 35 23 14
21 14 43 98 73 63 46 34
32 30 50 134 106 99 74 61
46 55 55 170 147 143 111 95
62 87 60 204 192 194 154 135
79 122 59 230 233 241 195 174
96 163 50 240 267 284 237 215
110 209 26 229 292 323 278 256
118 246 -7 202 305 356 315 293
120 262 -40 168 301 366 332 310
114 246 -71 125 267 340 311 295
99 203 -95 68 203 273 255 246
76 148 -112 2 121 184 178 181
53 91 -126 -70 35 89 97 108
30 43 -135 -145 -48 -6 19 36
9 9 -139 -208 -112 -80 -40 -21
-3 -10 -133 -227 -138 -112 -66 -47
-2 -18 -122 -206 -132 -109 -67 -52
4 -25 -110 -180 -122 -103 -67 -55
4 -35 -98 -161 -119 -104 -72 -61
3 -44 -81 -139 -114 -100 -71 -63
2 -46 -63 -114 -102 -91 -67 -61
3 -44 -48 -93 -88 -80 -60 -57
4 -37 -36 -74 -73 -68 -52 -50
5 -31 -28 -60 -60 -57 -44 -43
7 -28 -23 -53 -53 -52 -40 -38
9 -28 -19 -49 -51 -50 -40 -38
7 -30 -13 -41 -48 -49 -39 -37
5 -32 -9 -38 -47 -49 -40 -38
4 -33 -7 -38 -46 -48 -40 -38
3 -33 -6 -36 -44 -46 -39 -37
2 -31 -5 -34 -41 -44 -37 -35
2 -30 -8 -34 -43 -45 -38 -35
4 -30 -9 -34 -45 -47 -38 -37
5 -29 -10 -36 -46 -48 -38 -38
6 -28 -10 -37 -46 -47 -38 -38
7 -28 -8 -34 -44 -46 -36 -37
8 -27 -5 -32 -43 -45 -36 -37
9 -26 -2 -32 -41 -44 -35 -36
6 -28 0 -32 -41 -45 -36 -37
3 -31 0 -30 -39 -45 -37 -38
4 -31 0 -29 -38 -44 -38 -38
7 -28 -3 -30 -39 -44 -38 -37
6 -28 -5 -30 -39 -44 -36 -37
5 -27 -6 -30 -40 -44 -36 -37
5 -27 -6 -30 -39 -43 -36 -36
5 -27 -5 -30 -39 -43 -35 -35
6 -27 -4 -31 -39 -43 -35 -36
8 -25 -3 -31 -39 -43 -36 -37
10 -23 -3 -30 -40 -44 -37 -37
11 -23 0 -28 -38 -41 -35 -35
10 -23 0 -26 -35 -38 -33 -33
7 -22 1 -24 -32 -36 -30 -29
7 -21 0 -23 -32 -35 -29 -29
8 -20 -3 -25 -33 -36 -30 -30
9 -20 -2 -25 -34 -36 -31 -30
9 -21 0 -24 -34 -36 -31 -30
7 -21 1 -21 -31 -35 -30 -30
8 -21 1 -21 -31 -35 -30 -30
11 -21 1 -22 -31 -35 -30 -31
11 -21 1 -21 -31 -35 -30 -31
9 -21 3 -20 -30 -34 -29 -30
9 -21 3 -19 -29 -32 -28 -29
11 -20 0 -19 -29 -34 -28 -29
11 -18 -2 -20 -30 -34 -28 -28
10 -16 -2 -20 -29 -33 -28 -27
11 -16 0 -18 -29 -32 -28 -26
12 -17 2 -16 -28 -31 -27 -26
13 -18 3 -16 -26 -31 -27 -27
12 -18 5 -14 -25 -30 -26 -27
12 -17 6 -10 -22 -27 -23 -24
14 -15 5 -9 -20 -26 -22 -23
13 -15 5 -8 -18 -22 -19 -21
11 -15 3 -5 -16 -20 -17 -19
13 -12 4 -3 -14 -18 -16 -17
15 -9 3 -2 -13 -18 -17 -17
14 -9 5 1 -12 -18 -17 -17
14 -10 7 4 -11 -15 -14 -16
16 -9 10 6 -8 -13 -13 -15
21 -7 10 7 -8 -12 -13 -16
23 -6 11 10 -5 -10 -11 -14
23 -4 12 15 1 -6 -8 -12
20 0 14 19 5 -2 -5 -9
17 0 15 24 9 3 0 -5
19 1 14 26 10 5 1 -3
26 3 11 25 10 5 1 -2
29 7 11 27 11 6 2 1
28 9 15 34 16 11 6 5
29 11 19 39 21 16 11 8
31 13 21 44 24 19 13 10
30 14 20 48 28 23 16 12
28 17 19 52 32 27 18 15
30 21 20 55 35 31 22 19
33 24 21 57 37 33 26 22
33 25 21 61 42 37 29 25
34 28 21 64 46 40 31 27
39 30 22 66 47 44 32 28
43 33 23 68 50 46 34 30
40 34 26 72 54 51 38 34
40 35 24 73 55 52 39 35
43 36 24 75 56 53 40 36
45 39 25 77 59 56 42 38
46 45 24 78 63 60 45 43
46 47 24 81 65 63 48 46
45 48 25 81 66 66 51 48
43 48 27 80 67 67 52 49
42 48 28 80 67 66 52 49
43 47 28 82 68 68 52 49
45 49 26 82 68 69 52 50
46 49 24 81 68 69 52 51
45 49 26 80 69 69 54 52
44 49 26 79 69 68 54 52
42 49 26 79 69 69 55 53
43 49 23 76 66 66 55 52
46 50 20 72 63 64 53 50
46 50 19 68 60 62 52 49
43 49 19 67 60 62 50 48
38 48 21 67 60 62 50 48
37 47 21 65 60 61 49 46
38 45 19 62 57 58 46 44
39 44 18 59 55 55 43 40
36 42 18 57 54 53 40 39
31 39 19 55 52 51 39 38
27 36 20 52 49 47 37 37
29 33 19 48 45 43 34 33
32 31 16 40 37 35 28 27
30 28 17 37 34 31 26 25
24 24 18 34 32 29 23 21
19 20 19 31 30 26 20 18
17 16 18 28 28 22 16 14
17 15 18 26 25 19 12 12
16 14 16 22 20 15 9 9
14 12 15 18 16 12 8 8
14 9 13 14 13 9 5 5
12 7 11 10 10 6 2 3
8 5 11 7 8 5 1 2
5 3 12 7 6 3 -2 1
7 0 12 4 3 -2 -5 -4
8 -5 11 2 1 -5 -7 -5
6 -6 10 -3 -3 -8 -8 -7
4 -7 9 -5 -5 -10 -9 -9
2 -8 9 -7 -6 -11 -10 -10
-3 -9 10 -7 -6 -10 -10 -9
-3 -8 9 -9 -7 -11 -11 -10
3 -8 8 -10 -9 -13 -13 -11
4 -9 7 -13 -11 -14 -15 -13
1 -11 7 -15 -14 -17 -16 -14
0 -11 7 -15 -13 -17 -16 -15
-2 -11 6 -16 -13 -17 -17 -15
-4 -13 5 -17 -15 -18 -17 -17
-4 -14 6 -15 -15 -18 -17 -17
0 -12 4 -16 -15 -19 -18 -18
2 -11 4 -17 -15 -20 -17 -18
1 -13 3 -18 -16 -20 -17 -17
-2 -13 2 -18 -16 -20 -17 -17
-4 -11 3 -17 -14 -18 -16 -15
-6 -11 4 -16 -15 -19 -16 -15
-6 -13 5 -17 -17 -20 -18 -16
-5 -15 4 -19 -19 -22 -20 -18
-4 -13 4 -19 -20 -23 -20 -19
-4 -12 4 -18 -18 -21 -19 -19
-5 -13 4 -17 -16 -20 -18 -18
-6 -14 4 -18 -16 -19 -18 -19
-7 -13 5 -18 -15 -19 -18 -18
-5 -12 5 -18 -16 -20 -19 -19
-4 -12 4 -17 -15 -20 -19 -18
-6 -12 6 -15 -15 -19 -18 -17
-5 -12 6 -16 -17 -21 -19 -19
-2 -12 5 -17 -18 -22 -21 -21
-2 -12 4 -18 -18 -23 -21 -21
-5 -13 5 -14 -15 -20 -18 -19
-6 -13 4 -15 -15 -20 -19 -18
-6 -13 3 -16 -16 -21 -20 -18
-7 -13 3 -17 -16 -21 -20 -18
-5 -13 3 -17 -17 -21 -20 -18
-4 -14 4 -18 -17 -20 -20 -18
-5 -13 6 -17 -17 -21 -19 -17
-7 -13 8 -16 -17 -21 -19 -18
-6 -14 7 -16 -18 -21 -20 -19
-5 -14 7 -16 -18 -21 -19 -19
-5 -14 7 -16 -17 -21 -18 -19
-4 -15 7 -16 -16 -21 -19 -19
-4 -15 5 -17 -17 -22 -20 -19
-7 -15 5 -18 -17 -21 -20 -19
-9 -14 5 -18 -17 -21 -20 -19
-7 -14 5 -17 -18 -21 -20 -18
-6 -15 4 -18 -18 -21 -20 -18
-6 -16 3 -19 -20 -23 -22 -19
-8 -17 3 -19 -20 -23 -22 -19
-9 -16 2 -20 -21 -24 -21 -19
-7 -15 1 -20 -22 -25 -22 -20
-5 -14 0 -21 -22 -26 -22 -20
-6 -14 0 -21 -21 -25 -21 -20
-8 -15 0 -21 -21 -25 -22 -21
-8 -16 1 -21 -21 -25 -22 -21
-8 -16 2 -21 -22 -25 -22 -22
-9 -16 3 -21 -22 -26 -22 -22
-11 -16 4 -21 -22 -25 -22 -22
-12 -17 3 -22 -23 -27 -23 -23
-13 -17 3 -22 -24 -28 -24 -24
-12 -18 2 -21 -23 -27 -24 -24
-9 -15 1 -22 -22 -26 -23 -24
-6 -13 -2 -22 -22 -26 -23 -24
-6 -12 0 -21 -21 -25 -22 -22
-8 -10 1 -19 -20 -24 -20 -19
-9 -7 2 -17 -18 -22 -17 -16
-8 -5 5 -16 -16 -20 -16 -15
-8 -5 6 -15 -16 -20 -16 -15
-9 -5 6 -16 -16 -20 -16 -15
-10 -5 9 -15 -15 -20 -14 -15
-12 -5 11 -14 -15 -21 -16 -17
-11 -4 12 -13 -14 -20 -15 -16
-10 0 11 -12 -13 -19 -14 -16
-8 1 11 -12 -13 -19 -14 -16
-6 1 11 -12 -13 -19 -14 -15
-5 2 11 -11 -12 -18 -13 -14
-6 4 12 -9 -10 -16 -12 -12
