I II V1 V2 V3 V4 V5 V6
-5 -19 4 10 8 7 3 -25
11 -16 3 9 8 7 3 -25
18 -14 4 11 10 9 5 -23
12 -14 7 13 13 11 8 -21
9 -15 7 14 14 12 8 -21
14 -15 5 12 14 13 9 -21
18 -11 3 10 13 12 8 -20
19 -6 1 9 13 12 8 -19
20 -5 0 9 13 11 9 -18
20 -4 0 10 13 12 10 -16
19 -4 0 11 14 12 10 -16
21 -5 1 12 14 14 11 -15
23 -7 2 12 15 16 13 -14
22 -7 3 15 19 19 16 -10
19 -4 3 17 22 21 19 -7
16 -4 3 18 24 23 21 -7
16 -2 3 17 24 24 22 -6
22 3 0 14 21 21 20 -7
30 7 -4 12 20 20 19 -7
30 8 -4 14 21 22 21 -3
27 8 -4 14 23 24 23 -2
30 8 -6 12 22 23 23 -3
33 5 -5 12 22 24 25 0
33 4 -4 12 22 24 24 1
31 4 -3 13 23 25 24 2
33 5 -4 13 23 25 25 2
35 8 -5 11 22 25 24 2
38 10 -5 11 22 25 25 2
42 12 -8 8 20 23 23 1
42 12 -10 6 18 22 23 1
37 11 -10 5 18 23 24 3
35 9 -10 6 19 24 26 5
34 7 -10 8 21 26 28 6
34 7 -11 8 20 26 28 6
37 6 -12 5 18 25 27 5
38 6 -12 4 17 24 26 5
37 9 -13 1 14 22 24 4
34 13 -14 0 13 21 22 3
35 14 -15 -2 12 19 21 1
37 14 -14 -2 12 19 21 3
36 13 -15 -3 11 18 20 4
32 9 -12 -2 13 19 21 5
31 5 -10 0 13 19 22 5
31 3 -11 -2 11 17 20 3
28 2 -12 -2 11 17 19 1
24 1 -12 -2 10 16 17 -2
23 2 -12 -2 9 15 16 -2
21 6 -11 0 8 14 15 -2
20 5 -10 -3 6 10 12 -6
24 3 -10 -4 4 8 9 -10
27 2 -9 -4 3 5 6 -12
22 -2 -6 1 6 6 6 -12
15 -8 -2 4 8 6 7 -13
13 -11 0 5 8 7 6 -14
13 -12 -2 5 6 5 2 -14
10 -13 -4 5 5 4 0 -14
8 -13 -3 6 5 3 1 -14
9 -10 -2 5 3 1 0 -17
7 -11 2 4 1 -2 -3 -18
2 -13 2 4 0 -3 -4 -19
0 -15 1 4 -2 -4 -5 -21
1 -16 3 6 0 -4 -5 -21
2 -17 5 7 1 -4 -6 -21
1 -20 7 8 2 -4 -6 -20
-2 -22 7 7 1 -5 -8 -22
-4 -21 7 5 -3 -6 -9 -24
-7 -19 8 5 -3 -6 -10 -23
-9 -17 6 2 -7 -10 -12 -25
-10 -17 4 -2 -11 -13 -15 -27
-10 -19 3 -3 -11 -13 -14 -27
-9 -21 2 -4 -11 -14 -15 -28
-8 -23 1 -4 -11 -15 -16 -29
-6 -24 3 -2 -10 -14 -15 -27
-8 -25 6 1 -9 -13 -14 -25
-13 -27 5 0 -10 -14 -16 -27
-14 -29 3 -3 -12 -16 -19 -30
-9 -26 0 -5 -15 -19 -21 -32
-4 -22 1 -5 -15 -18 -21 -31
-6 -21 0 -5 -14 -17 -20 -30
-10 -20 0 -5 -13 -15 -18 -28
-9 -20 1 -4 -12 -15 -16 -27
-8 -21 2 -3 -11 -14 -15 -25
-10 -24 3 -2 -10 -13 -13 -23
-11 -24 5 0 -10 -13 -13 -22
-8 -24 5 0 -9 -13 -13 -23
-8 -23 4 -2 -10 -14 -15 -25
-9 -21 4 -2 -11 -15 -16 -25
-8 -18 2 -4 -12 -16 -18 -25
-7 -17 1 -5 -13 -16 -19 -26
-10 -17 2 -4 -12 -14 -18 -25
-12 -17 3 -2 -10 -12 -16 -23
-12 -18 4 -2 -10 -13 -15 -21
-8 -21 3 -2 -10 -13 -14 -22
-4 -23 1 -3 -11 -15 -16 -24
-4 -24 0 -3 -10 -15 -18 -25
-8 -23 1 -2 -8 -14 -17 -23
-9 -19 1 -2 -9 -14 -17 -23
-7 -16 0 -3 -10 -15 -18 -23
-7 -15 0 -4 -12 -17 -19 -25
-8 -16 0 -4 -12 -17 -19 -25
-8 -17 0 -4 -12 -17 -19 -24
-9 -19 2 -2 -11 -16 -16 -21
-12 -21 5 2 -9 -13 -13 -19
-11 -22 6 2 -8 -12 -13 -19
-8 -22 5 1 -7 -13 -14 -20
-9 -20 5 1 -7 -13 -15 -21
-14 -18 6 1 -7 -13 -15 -20
-15 -17 5 0 -8 -14 -17 -21
-14 -17 3 -3 -11 -16 -18 -22
-16 -17 3 -3 -12 -16 -18 -22
-16 -17 2 -3 -13 -16 -19 -22
-16 -21 1 -3 -13 -16 -19 -22
-15 -25 3 -3 -12 -15 -18 -20
-10 -25 4 -2 -11 -14 -18 -19
-4 -22 4 1 -8 -12 -16 -19
-2 -20 4 1 -8 -12 -15 -19
-7 -19 6 1 -7 -12 -14 -17
-12 -16 6 0 -7 -12 -14 -17
-12 -13 5 0 -7 -12 -14 -17
-10 -13 5 1 -7 -12 -14 -17
-11 -15 4 1 -8 -13 -14 -17
-12 -18 4 0 -8 -14 -15 -16
-12 -21 4 1 -8 -13 -14 -16
-10 -21 2 0 -10 -14 -16 -18
-7 -20 0 -2 -10 -15 -17 -20
-6 -17 2 0 -8 -13 -15 -19
-8 -14 6 1 -6 -12 -12 -15
-9 -10 6 1 -6 -12 -13 -14
-6 -9 4 0 -8 -13 -14 -15
-6 -8 4 1 -9 -13 -14 -15
-4 -8 7 2 -7 -12 -14 -14
2 -9 10 5 -4 -9 -13 -12
3 -9 11 8 -3 -9 -12 -11
-6 -10 15 11 0 -8 -9 -9
-7 -10 16 12 2 -6 -8 -7
-2 -8 14 11 2 -6 -9 -8
-2 -3 15 10 1 -7 -9 -8
-6 2 15 10 0 -8 -9 -7
-5 3 14 8 -3 -9 -10 -9
-2 3 12 7 -4 -10 -12 -11
1 1 10 6 -5 -11 -13 -12
0 -4 9 8 -2 -10 -12 -10
-3 -6 10 12 2 -7 -8 -6
-2 -2 15 17 6 -2 -5 -3
0 3 21 22 11 4 1 3
-3 5 21 21 11 5 2 4
-2 6 17 16 7 2 0 4
2 10 15 13 4 0 -2 2
5 12 13 11 3 -3 -4 0
3 11 14 12 4 -3 -3 1
0 9 15 13 4 -3 -3 3
1 4 12 10 2 -4 -6 0
3 0 9 8 0 -5 -7 -2
4 -2 7 8 0 -6 -7 -2
4 -2 6 7 0 -7 -7 -2
7 -2 4 2 -4 -9 -9 -3
5 2 1 -4 -7 -12 -12 -5
-2 4 1 -4 -8 -13 -12 -5
-5 2 -2 -5 -9 -15 -13 -6
0 -2 -3 -8 -11 -17 -16 -9
5 -6 -4 -10 -13 -19 -19 -12
3 -10 -3 -9 -14 -19 -20 -12
-5 -15 1 -8 -13 -17 -18 -11
-12 -17 2 -7 -14 -17 -16 -11
-15 -17 3 -8 -15 -18 -16 -11
-15 -16 1 -10 -17 -21 -19 -14
-14 -16 -3 -13 -20 -24 -21 -17
-15 -16 -7 -16 -22 -27 -24 -20
-16 -16 -7 -15 -21 -26 -25 -19
-16 -14 -7 -14 -19 -24 -24 -17
-13 -12 -6 -15 -20 -25 -25 -18
-12 -15 -5 -16 -22 -27 -26 -19
-16 -20 -3 -15 -22 -27 -26 -18
-20 -22 1 -12 -20 -24 -23 -16
-18 -20 0 -12 -20 -24 -24 -17
-14 -19 -2 -14 -22 -26 -25 -19
-12 -17 -4 -14 -23 -28 -26 -19
-10 -14 -6 -16 -24 -30 -28 -20
-9 -13 -8 -19 -26 -31 -29 -22
-14 -15 -7 -18 -23 -29 -28 -20
-18 -16 -7 -17 -22 -28 -28 -20
-20 -17 -5 -15 -20 -25 -27 -19
-21 -18 -4 -15 -20 -25 -26 -18
-22 -19 -3 -14 -19 -25 -25 -17
-21 -19 -4 -13 -20 -26 -25 -17
-20 -18 -4 -14 -19 -25 -25 -18
-20 -14 -4 -14 -18 -24 -24 -17
-19 -10 -3 -13 -18 -24 -23 -18
-17 -10 -3 -14 -19 -25 -25 -20
-15 -15 -2 -13 -21 -27 -28 -22
-15 -20 0 -12 -22 -30 -33 -26
-12 -27 2 -6 -21 -33 -36 -30
-6 -31 7 5 -17 -32 -36 -32
1 -26 14 19 -6 -25 -30 -28
8 -13 24 39 13 -9 -17 -16
19 8 34 63 37 14 3 3
38 30 38 84 63 37 22 20
65 57 38 102 93 66 48 43
87 89 42 122 130 105 85 77
96 130 48 142 168 151 132 123
96 179 54 152 199 195 183 176
93 223 58 154 222 234 230 227
90 255 51 143 234 262 265 266
88 279 35 121 237 279 290 294
82 297 22 92 229 283 302 307
69 292 11 60 203 263 287 295
46 261 1 25 161 219 248 258
19 220 -11 -15 111 168 200 213
-4 175 -26 -59 57 114 151 167
-19 122 -37 -97 1 54 93 110
-38 68 -39 -122 -53 -11 28 48
-63 17 -39 -139 -99 -66 -28 -7
-78 -18 -39 -146 -121 -95 -61 -37
-75 -29 -38 -136 -113 -92 -64 -43
-64 -31 -38 -116 -94 -77 -57 -36
-59 -33 -36 -98 -80 -68 -52 -35
-53 -32 -31 -83 -70 -62 -50 -35
-37 -25 -26 -68 -58 -54 -44 -31
-24 -20 -21 -51 -44 -44 -36 -25
-20 -20 -15 -36 -32 -35 -29 -20
-18 -22 -10 -27 -25 -31 -26 -18
-17 -26 -7 -19 -20 -26 -22 -16
-16 -30 -5 -15 -17 -23 -20 -13
-14 -31 -3 -13 -16 -22 -20 -11
-14 -30 2 -12 -15 -22 -19 -11
-17 -32 4 -9 -14 -20 -17 -10
-17 -31 3 -10 -16 -21 -18 -12
-14 -29 1 -11 -17 -22 -18 -13
-14 -29 1 -9 -15 -22 -18 -12
-11 -30 0 -9 -16 -22 -19 -13
-10 -32 -2 -11 -17 -22 -21 -14
-15 -37 2 -8 -15 -21 -19 -12
-19 -44 6 -4 -12 -18 -17 -10
-14 -46 7 -3 -11 -18 -17 -10
-8 -47 6 -4 -12 -19 -16 -11
-12 -48 10 0 -9 -17 -14 -9
-17 -46 13 2 -7 -15 -12 -7
-17 -41 13 2 -6 -14 -10 -5
-16 -40 12 1 -6 -13 -10 -5
-15 -43 11 2 -6 -12 -10 -4
-10 -45 10 1 -6 -12 -10 -5
-8 -46 10 3 -5 -11 -9 -5
-11 -48 12 6 -2 -9 -6 -2
-10 -47 11 6 -2 -9 -6 -2
-7 -43 9 6 -3 -10 -8 -3
-8 -43 10 7 -2 -9 -8 -4
-11 -41 11 7 0 -8 -7 -3
-11 -38 11 6 -2 -9 -7 -3
-11 -36 10 5 -3 -10 -6 -2
-11 -36 10 6 0 -8 -4 1
-8 -36 10 6 1 -7 -4 0
-6 -38 9 6 0 -6 -5 -2
-7 -41 9 7 1 -6 -5 -2
-5 -40 10 9 2 -5 -4 0
-4 -38 10 10 3 -4 -3 2
-5 -38 11 11 4 -5 -3 2
-6 -37 10 11 4 -4 -4 2
-2 -31 9 9 4 -4 -4 2
2 -28 8 9 4 -4 -3 3
-2 -28 8 8 4 -4 -2 5
-7 -30 10 9 5 -3 0 6
-7 -32 10 10 4 -4 0 5
-3 -35 10 11 5 -3 0 5
7 -34 9 12 7 0 2 6
11 -31 10 15 9 2 4 7
6 -31 12 17 11 5 5 7
1 -30 11 15 10 5 4 6
2 -27 10 13 10 5 6 7
5 -24 10 13 10 5 7 9
5 -22 11 14 10 6 8 10
3 -21 11 14 11 7 10 11
4 -23 11 15 12 9 12 13
7 -25 10 17 14 9 12 13
8 -25 10 19 16 10 12 15
5 -24 11 20 17 11 13 16
6 -24 9 18 16 10 12 14
11 -23 6 15 14 8 9 10
15 -18 2 12 12 7 8 8
14 -16 5 15 15 11 12 13
9 -14 10 19 21 16 18 20
10 -11 12 22 24 19 22 23
19 -10 10 20 23 19 21 22
25 -11 11 21 24 20 22 24
25 -11 11 22 26 22 24 25
25 -10 10 21 25 22 24 25
26 -10 10 22 25 22 25 26
26 -7 10 22 26 24 25 27
25 0 8 20 27 24 24 26
26 3 6 19 26 23 24 26
28 2 4 18 25 23 25 26
29 2 1 17 25 23 25 25
28 1 2 19 28 26 28 29
26 -2 5 22 31 29 31 33
27 -2 4 23 33 31 32 35
28 -2 3 22 33 32 33 35
29 1 3 20 31 32 33 34
32 4 1 18 31 31 32 33
34 8 -2 16 30 31 33 35
33 10 -3 14 30 30 34 37
32 10 -3 14 29 31 35 37
32 10 -4 12 27 30 35 36
32 8 -4 12 26 31 35 38
30 5 -2 14 29 33 37 40
30 4 -3 14 29 32 35 39
33 4 -6 10 25 28 32 35
37 4 -10 5 21 24 28 31
39 7 -13 2 18 22 26 30
38 12 -12 3 19 23 27 33
33 13 -10 4 21 26 31 35
29 11 -9 4 22 26 31 34
28 9 -10 1 20 24 30 33
30 6 -9 1 19 24 30 34
31 3 -11 1 18 24 31 35
30 2 -9 2 18 25 32 36
28 2 -7 3 20 26 32 36
26 2 -7 2 17 23 29 33
25 2 -8 1 15 21 26 30
23 4 -9 -2 13 19 24 29
21 4 -9 -2 12 16 22 27
22 4 -9 -3 11 14 20 25
25 2 -9 -3 9 12 17 22
23 -5 -8 -2 8 11 14 19
19 -12 -5 1 8 11 14 18
15 -16 -3 3 8 10 13 16
11 -16 1 5 9 9 12 16
9 -16 3 7 9 8 11 15
10 -15 2 6 7 5 8 11
11 -11 -2 3 3 3 6 9
11 -9 0 3 3 2 5 8
8 -11 1 4 2 1 2 5
5 -14 2 4 0 -2 -2 3
3 -17 3 6 1 -3 -3 2
1 -21 6 8 3 -2 0 3
-3 -22 8 10 4 -2 0 2
1 -21 7 10 3 -3 -2 -2
3 -20 7 9 1 -5 -4 -3
2 -18 7 8 -3 -6 -6 -3
0 -17 5 4 -6 -8 -8 -5
-3 -17 5 2 -7 -10 -9 -6
-5 -19 6 3 -6 -10 -9 -6
-8 -20 6 3 -6 -10 -8 -6
-12 -25 7 4 -5 -9 -7 -4
-11 -29 8 5 -4 -8 -7 -4
-5 -30 7 3 -6 -11 -10 -6
-5 -31 5 1 -8 -14 -13 -8
-10 -33 6 2 -8 -14 -13 -8
-12 -31 6 2 -9 -13 -13 -8
-10 -27 6 0 -10 -15 -13 -9
-10 -26 4 -4 -12 -17 -16 -12
-15 -28 5 -4 -11 -16 -16 -11
-16 -28 4 -4 -12 -17 -16 -11
-10 -28 3 -4 -13 -17 -15 -11
-8 -30 5 -2 -12 -16 -15 -11
-11 -32 6 0 -10 -15 -14 -10
-12 -31 5 -2 -10 -15 -14 -11
-10 -28 5 0 -10 -15 -14 -12
-11 -25 6 1 -9 -13 -13 -11
-14 -22 6 0 -9 -13 -13 -11
-12 -21 5 -2 -10 -14 -14 -11
-10 -21 6 0 -9 -13 -14 -10
-10 -20 5 0 -8 -14 -13 -9
-8 -21 4 0 -9 -15 -13 -9
-5 -25 4 0 -9 -14 -13 -10
-5 -27 4 1 -7 -13 -12 -8
-8 -26 4 1 -7 -13 -12 -7
-6 -24 4 1 -7 -12 -12 -8
-2 -21 4 -2 -9 -13 -14 -10
-3 -19 2 -5 -13 -16 -17 -13
-7 -20 2 -5 -13 -16 -16 -13
-13 -19 4 -2 -10 -13 -13 -10
-17 -17 5 0 -8 -10 -11 -8
-15 -18 5 1 -9 -10 -11 -9
-12 -22 3 0 -11 -13 -14 -11
-11 -24 1 -3 -11 -16 -15 -12
-12 -24 1 -3 -9 -15 -16 -12
-10 -22 4 1 -7 -13 -14 -10
-9 -18 6 2 -7 -13 -15 -10
-10 -15 5 0 -9 -14 -15 -12
-11 -17 2 -3 -11 -16 -17 -14
-7 -18 -3 -5 -13 -18 -19 -15
-2 -15 -2 -5 -12 -16 -16 -11
-4 -14 2 -3 -10 -12 -12 -7
-9 -17 3 1 -7 -10 -11 -7
-8 -19 2 0 -8 -12 -13 -8
-4 -18 1 -2 -10 -14 -15 -9
-6 -17 3 0 -9 -14 -15 -8
-12 -17 4 1 -7 -12 -13 -7
-15 -13 4 0 -7 -14 -13 -8
-14 -12 5 0 -8 -15 -14 -8
-13 -14 5 -2 -9 -15 -16 -9
-13 -17 5 -2 -9 -15 -17 -10
-13 -19 5 -2 -9 -14 -15 -10
-11 -22 5 -2 -9 -14 -15 -11
-9 -23 5 -2 -9 -13 -14 -10
-9 -21 4 -3 -10 -15 -14 -10
-8 -19 3 -3 -10 -16 -15 -12
-6 -17 2 -4 -11 -16 -17 -14
-5 -14 0 -6 -13 -16 -18 -15
-5 -12 2 -4 -11 -14 -16 -11
-7 -10 4 -2 -8 -13 -14 -8
-9 -10 5 1 -7 -12 -13 -7
-10 -11 6 3 -5 -11 -13 -7
-5 -15 7 4 -4 -11 -13 -7
0 -16 7 3 -5 -11 -14 -7
-4 -13 10 6 -3 -8 -11 -5
-8 -9 14 10 3 -4 -6 -2
-5 -3 14 10 3 -4 -7 -2
-2 2 12 7 0 -6 -9 -3
-4 1 13 7 -3 -6 -8 -4
-7 0 14 8 -3 -6 -7 -4
-6 0 13 8 -3 -7 -9 -4
-5 -4 13 9 -2 -7 -8 -3
-3 -8 12 10 1 -8 -8 -3
2 -9 9 9 0 -8 -10 -5
4 -6 9 10 1 -7 -9 -6
4 0 11 13 5 -4 -6 -3
6 6 14 15 8 0 -3 3
6 11 14 14 7 1 -2 4
-3 13 15 14 6 2 0 5
-10 11 14 13 5 2 0 5
-7 10 12 10 3 -2 -4 4
-2 9 12 10 2 -3 -4 4
-2 4 12 11 3 -2 -4 3
-2 0 9 9 1 -4 -5 2
1 -2 7 6 -2 -5 -4 2
1 0 4 3 -3 -6 -5 2
-3 2 2 1 -4 -7 -6 0
-2 3 -2 -5 -8 -11 -10 -4
6 4 -5 -8 -12 -15 -13 -7
9 3 -5 -8 -13 -15 -12 -7
6 1 -6 -9 -14 -15 -14 -8
2 -4 -6 -9 -14 -14 -14 -7
-7 -8 -4 -8 -12 -13 -13 -5
-14 -12 -2 -7 -11 -13 -13 -6
-14 -15 -2 -10 -14 -17 -18 -11
-11 -16 -4 -14 -19 -23 -23 -16
-9 -14 -6 -16 -21 -25 -25 -18
-11 -11 -7 -16 -22 -24 -25 -19
-17 -10 -5 -14 -19 -22 -21 -16
-19 -10 -3 -13 -18 -22 -19 -15
-17 -10 -3 -15 -20 -24 -23 -16
-15 -15 -3 -15 -21 -24 -25 -17
-15 -20 -4 -15 -22 -25 -25 -19
-15 -21 -5 -16 -22 -25 -25 -19
-15 -21 -6 -16 -22 -25 -25 -19
-13 -20 -6 -18 -23 -26 -26 -20
-14 -17 -8 -20 -24 -28 -28 -21
-17 -15 -7 -19 -22 -25 -26 -20
-17 -14 -7 -19 -23 -25 -26 -20
-16 -12 -7 -19 -23 -26 -27 -20
-15 -11 -6 -18 -23 -26 -26 -20
-13 -14 -7 -18 -23 -27 -26 -20
-11 -18 -7 -18 -23 -26 -26 -20
-16 -20 -6 -17 -22 -25 -25 -20
-21 -19 -3 -15 -19 -23 -23 -17
-20 -18 -3 -15 -19 -23 -23 -18
-16 -16 -5 -16 -21 -24 -25 -19
-14 -12 -7 -18 -24 -27 -27 -23
-13 -11 -8 -19 -24 -27 -27 -22
-13 -12 -8 -19 -23 -27 -28 -22
-16 -15 -7 -18 -23 -27 -30 -23
-20 -21 -6 -16 -23 -29 -32 -27
-17 -28 -3 -12 -23 -32 -36 -32
-6 -31 2 -4 -22 -33 -39 -36
3 -28 11 10 -15 -29 -37 -35
5 -18 21 28 2 -17 -27 -25
12 1 29 49 23 1 -13 -12
27 22 34 71 47 23 7 5
51 43 35 92 75 51 31 25
76 71 36 113 112 87 62 55
92 112 45 138 156 135 109 99
93 162 57 158 196 186 164 155
87 212 63 164 225 230 217 210
80 251 59 157 242 264 257 253
79 281 43 134 247 283 283 281
78 304 25 104 246 296 304 304
68 315 12 73 234 293 307 310
45 299 3 43 203 264 282 286
22 256 -9 3 154 214 237 243
9 209 -29 -48 95 156 185 194
-10 158 -45 -92 36 96 130 141
-36 99 -47 -119 -20 33 67 82
-58 37 -47 -141 -74 -31 2 22
-68 -6 -52 -157 -116 -81 -49 -27
-70 -24 -53 -153 -124 -96 -68 -48
-64 -28 -47 -131 -104 -81 -61 -43
-52 -26 -43 -110 -87 -69 -53 -37
-41 -23 -40 -95 -76 -65 -51 -37
-38 -23 -34 -76 -62 -55 -45 -34
-35 -21 -26 -56 -46 -41 -34 -26
-28 -20 -19 -40 -33 -31 -28 -21
-23 -22 -14 -30 -27 -26 -24 -18
-19 -27 -9 -22 -21 -23 -21 -15
-17 -29 -7 -17 -18 -21 -20 -15
-16 -28 -5 -14 -16 -21 -20 -15
-15 -27 -4 -13 -16 -21 -21 -16
-16 -27 -2 -12 -16 -21 -21 -16
-18 -26 -2 -12 -17 -21 -22 -17
-20 -28 0 -12 -17 -20 -21 -16
-18 -29 -2 -13 -17 -21 -21 -17
-16 -31 -2 -12 -16 -20 -20 -16
-14 -35 1 -10 -13 -18 -19 -14
-13 -39 3 -9 -13 -17 -18 -14
-14 -43 4 -7 -13 -18 -17 -14
-15 -45 6 -5 -11 -17 -16 -13
-15 -46 7 -3 -10 -16 -16 -12
-15 -41 5 -3 -11 -16 -17 -13
-14 -38 3 -4 -12 -16 -18 -14
-14 -38 4 -5 -11 -15 -17 -13
-14 -41 7 -3 -8 -13 -14 -12
-13 -44 8 -2 -7 -13 -14 -12
-12 -48 8 -2 -7 -12 -14 -11
-12 -53 10 1 -6 -10 -13 -10
-13 -54 11 3 -4 -9 -12 -9
-13 -54 12 5 -2 -7 -9 -7
-11 -53 11 5 -2 -7 -10 -8
-10 -51 10 4 -3 -9 -12 -11
-8 -48 10 4 -3 -9 -12 -11
-8 -45 10 4 -2 -8 -10 -8
-7 -45 10 3 -3 -9 -10 -8
-7 -47 11 4 -2 -7 -9 -7
-6 -49 11 4 0 -6 -8 -6
-8 -50 11 6 1 -5 -7 -5
-11 -50 11 7 1 -5 -7 -5
-9 -49 9 7 3 -5 -7 -7
-6 -48 9 9 4 -5 -6 -7
-8 -45 10 10 5 -4 -6 -5
-11 -40 10 10 5 -4 -6 -4
-8 -38 11 10 6 -3 -5 -2
-6 -37 11 9 5 -2 -4 0
-7 -36 11 10 5 0 -3 0
-7 -39 11 11 7 2 -2 1
-7 -43 12 13 8 3 0 3
-6 -41 11 12 7 2 0 1
-5 -41 10 12 8 3 2 1
0 -40 11 13 8 4 2 2
1 -36 11 13 9 4 2 3
2 -31 11 14 11 5 3 3
1 -28 10 15 12 6 4 3
1 -26 12 16 13 7 7 5
1 -26 13 16 15 9 8 6
5 -29 13 16 15 9 7 6
8 -31 13 17 15 10 7 6
5 -32 14 19 17 11 8 5
4 -32 14 19 18 11 8 6
8 -31 12 19 18 11 8 7
13 -28 11 18 17 10 7 6
14 -24 10 19 17 11 8 6
12 -22 9 18 18 12 9 6
9 -20 9 19 19 15 11 9
9 -18 10 19 22 17 14 11
14 -18 12 21 24 20 17 16
21 -19 13 22 24 20 18 16
21 -20 11 22 23 19 17 14
15 -19 12 24 26 21 18 16
14 -17 13 26 28 23 20 18
16 -13 13 27 29 24 21 19
18 -10 11 25 29 24 21 19
18 -8 8 23 29 24 22 19
19 -6 8 23 30 26 22 20
20 -6 8 25 31 28 24 22
23 -7 7 25 31 29 26 23
29 -9 6 24 29 28 26 23
32 -11 4 22 27 26 24 23
33 -9 3 21 28 26 24 23
32 -7 4 23 32 30 28 26
28 -4 5 23 33 31 30 28
27 -2 2 22 33 31 30 27
29 1 1 19 33 30 30 26
31 2 2 19 32 32 31 27
28 3 3 20 33 35 34 30
28 1 3 20 34 36 35 33
31 -2 1 19 33 35 34 33
33 -2 0 17 31 33 32 30
33 0 0 17 30 32 32 28
33 0 -2 16 30 33 33 29
33 3 -4 15 29 32 32 29
29 6 -6 13 27 30 31 28
25 6 -6 12 26 29 31 28
30 6 -7 9 24 27 30 27
34 6 -9 6 22 25 28 25
30 3 -7 7 23 26 30 27
24 0 -6 8 24 28 31 29
25 -2 -6 8 23 27 31 29
30 -2 -6 7 21 26 29 26
34 0 -6 6 19 25 26 23
33 4 -7 4 17 21 23 22
29 6 -8 3 15 19 22 21
24 4 -8 2 15 17 21 19
22 1 -7 2 14 17 20 18
21 0 -6 3 14 16 18 18
20 -4 -3 5 14 15 18 17
19 -9 0 6 14 15 17 16
18 -12 0 7 12 12 13 13
14 -13 1 9 12 12 12 12
12 -13 3 9 11 10 11 9
15 -13 2 7 9 7 6 2
14 -11 1 5 6 4 3 -3
8 -10 3 7 8 6 5 0
6 -10 7 9 9 7 6 2
6 -14 7 8 6 4 3 1
5 -19 5 7 3 0 1 -2
4 -24 5 6 2 -3 -2 -4
5 -25 6 6 1 -5 -4 -6
5 -25 6 6 1 -5 -6 -7
4 -24 7 7 1 -5 -6 -8
2 -21 7 8 0 -6 -6 -8
0 -18 6 6 -2 -8 -8 -10
-2 -20 5 5 -2 -9 -8 -12
-3 -22 4 3 -5 -11 -10 -15
-7 -25 4 2 -6 -11 -11 -16
-11 -29 4 2 -6 -10 -12 -16
-11 -31 5 2 -6 -11 -13 -15
-9 -30 5 3 -5 -10 -12 -14
-8 -29 6 3 -5 -9 -13 -14
-7 -29 5 1 -8 -12 -16 -17
-6 -28 4 -2 -11 -16 -19 -19
-9 -25 4 -3 -12 -18 -19 -19
-13 -24 7 0 -10 -15 -15 -17
-14 -23 8 1 -10 -14 -14 -16
-12 -25 6 -3 -11 -15 -16 -18
-11 -28 4 -5 -12 -17 -18 -19
-12 -31 7 -2 -10 -14 -16 -17
-11 -32 7 0 -9 -14 -14 -16
-10 -31 6 -2 -11 -15 -15 -17
-11 -30 4 -3 -12 -16 -16 -17
-15 -28 3 -3 -12 -15 -16 -17
-16 -25 4 -3 -12 -16 -17 -19
-14 -23 5 -2 -10 -14 -17 -18
-10 -22 3 -4 -10 -15 -17 -17
-6 -24 0 -7 -12 -18 -19 -20
-7 -26 0 -7 -12 -18 -19 -20
-10 -29 1 -6 -12 -18 -19 -19
-11 -30 2 -5 -12 -17 -18 -18
-9 -30 0 -6 -14 -18 -19 -21
-13 -28 2 -3 -11 -15 -16 -19
-17 -24 6 2 -7 -11 -14 -16
-16 -20 6 1 -7 -12 -15 -17
-11 -19 4 0 -8 -14 -15 -17
-9 -20 4 -2 -8 -16 -15 -17
-11 -20 5 -2 -8 -15 -15 -17
-13 -22 5 -2 -9 -14 -15 -17
-14 -27 6 -2 -9 -14 -14 -16
-10 -28 4 -2 -10 -16 -16 -18
-4 -26 2 -2 -10 -16 -16 -19
-2 -24 2 -2 -10 -16 -16 -19
-6 -22 2 -2 -10 -16 -17 -19
-10 -20 3 0 -10 -16 -18 -20
-10 -19 3 -2 -10 -16 -17 -20
-9 -18 3 -3 -10 -16 -17 -19
-7 -17 2 -4 -10 -16 -18 -19
-6 -18 3 -4 -10 -15 -18 -19
-9 -23 6 0 -7 -13 -15 -16
-13 -25 7 1 -7 -13 -15 -16
-11 -24 5 0 -10 -15 -17 -17
-7 -22 5 0 -10 -16 -16 -18
-9 -19 4 -2 -11 -17 -18 -20
-13 -17 4 -2 -11 -17 -18 -20
-11 -17 2 -3 -13 -17 -18 -19
-8 -18 2 -4 -11 -16 -18 -17
-6 -19 1 -6 -13 -19 -20 -20
-5 -22 0 -7 -13 -18 -20 -21
-11 -26 3 -3 -10 -15 -18 -17
-18 -26 6 1 -8 -13 -15 -14
-16 -25 6 0 -9 -14 -15 -16
-9 -24 3 -4 -12 -17 -18 -19
-9 -23 2 -5 -14 -19 -20 -20
-13 -21 1 -7 -16 -20 -22 -21
-15 -19 2 -5 -14 -18 -20 -19
-11 -17 3 -4 -11 -15 -18 -16
-8 -14 4 -3 -9 -14 -16 -14
-8 -16 4 -2 -8 -14 -15 -14
-7 -19 4 -2 -10 -14 -16 -14
-4 -20 5 0 -10 -14 -16 -15
1 -17 7 3 -7 -11 -13 -14
3 -14 8 5 -5 -10 -12 -12
2 -10 8 5 -6 -11 -13 -13
-3 -8 9 5 -6 -11 -13 -15
-4 -7 11 7 -3 -10 -12 -14
0 -4 13 8 -2 -8 -10 -9
4 -2 13 8 -2 -7 -10 -7
3 -4 15 9 0 -6 -8 -7
2 -6 15 9 0 -6 -8 -7
0 -7 15 10 0 -6 -9 -7
-4 -7 15 10 0 -7 -9 -7
-8 -7 15 11 1 -6 -8 -7
-7 -5 15 12 1 -7 -9 -7
-3 1 14 12 2 -7 -9 -7
2 5 14 13 3 -6 -8 -7
4 9 16 15 5 -2 -5 -5
4 12 16 16 5 0 -3 -2
2 10 16 15 4 0 -2 0
0 6 14 13 3 -3 -5 -2
2 4 12 10 2 -4 -7 -2
5 3 12 10 1 -5 -7 -2
4 5 12 10 1 -4 -6 -3
-2 7 11 10 0 -5 -6 -4
-3 6 6 6 -5 -9 -9 -7
4 3 0 0 -10 -13 -14 -11
8 3 -3 -4 -12 -15 -15 -12
8 5 0 -4 -11 -13 -14 -11
5 3 2 -2 -8 -11 -12 -7
4 -3 1 -4 -8 -12 -13 -8
5 -5 0 -5 -11 -15 -16 -11
3 -6 0 -6 -12 -16 -17 -13
0 -7 0 -6 -12 -15 -17 -14
3 -7 -4 -9 -15 -18 -20 -16
5 -6 -7 -13 -19 -21 -23 -18
0 -7 -6 -14 -19 -22 -23 -17
-10 -9 -5 -14 -19 -22 -23 -17
-13 -11 -5 -14 -20 -23 -24 -19
-11 -16 -5 -14 -20 -24 -24 -18
-12 -18 -4 -14 -21 -23 -22 -17
-14 -19 -2 -12 -21 -23 -22 -16
-15 -18 -3 -12 -21 -24 -24 -17
-17 -18 -3 -13 -22 -25 -25 -19
-19 -17 -4 -14 -22 -25 -27 -20
-17 -15 -5 -15 -22 -25 -28 -21
-14 -15 -7 -16 -23 -26 -29 -22
-15 -16 -7 -18 -24 -27 -29 -22
-17 -16 -6 -17 -24 -27 -27 -21
-14 -17 -7 -18 -24 -26 -27 -20
-11 -17 -8 -18 -24 -27 -27 -20
-11 -17 -8 -17 -24 -27 -27 -19
-12 -18 -8 -16 -23 -26 -26 -19
-13 -17 -7 -16 -23 -26 -26 -20
-13 -15 -8 -18 -24 -26 -27 -21
-14 -13 -8 -17 -24 -26 -27 -21
-14 -12 -8 -17 -24 -26 -27 -20
-16 -12 -7 -16 -23 -25 -27 -19
-18 -12 -5 -15 -21 -23 -25 -18
-17 -15 -5 -14 -20 -23 -25 -16
-12 -18 -7 -16 -23 -26 -26 -17
-8 -19 -8 -17 -24 -27 -27 -19
-8 -19 -7 -16 -24 -27 -28 -21
-8 -20 -6 -15 -25 -29 -31 -23
-7 -22 -3 -11 -25 -32 -35 -27
-7 -23 3 -4 -23 -32 -37 -30
-5 -18 12 10 -15 -27 -34 -27
4 -7 21 26 1 -15 -24 -18
17 10 31 50 23 6 -7 -2
35 24 37 73 50 30 16 19
58 43 42 99 84 61 43 44
84 73 42 120 120 98 75 74
101 116 47 142 159 143 120 117
99 165 54 156 194 188 170 169
92 215 59 161 219 226 217 219
92 254 51 153 232 254 251 256
96 283 35 133 237 272 275 284
97 304 19 105 233 280 293 307
88 306 7 73 216 272 292 308
68 277 -3 40 181 239 264 280
43 232 -15 1 133 192 221 238
16 187 -32 -47 79 141 174 192
-7 139 -47 -90 21 81 117 138
-25 82 -54 -122 -37 16 52 73
-48 30 -59 -147 -90 -47 -10 13
-68 -6 -59 -158 -123 -89 -53 -28
-76 -22 -55 -148 -123 -96 -67 -46
-68 -26 -53 -129 -106 -85 -62 -46
-56 -27 -49 -109 -91 -73 -55 -43
-47 -31 -41 -92 -78 -64 -50 -40
-38 -32 -31 -70 -61 -52 -41 -35
-28 -30 -25 -51 -45 -39 -32 -30
-19 -28 -20 -36 -34 -32 -27 -25
-13 -24 -13 -29 -28 -27 -24 -22
-10 -19 -9 -23 -23 -24 -21 -22
-13 -17 -8 -18 -21 -23 -20 -23
-18 -20 -8 -18 -21 -24 -21 -25
-19 -25 -7 -17 -21 -23 -22 -26
-17 -27 -5 -16 -21 -23 -22 -29
-18 -32 -2 -13 -19 -21 -21 -30
-20 -37 0 -12 -18 -22 -21 -31
-17 -38 1 -10 -16 -21 -19 -30
-14 -35 3 -8 -14 -19 -18 -29
-12 -35 4 -8 -13 -17 -18 -29
-11 -36 3 -9 -14 -18 -19 -32
-12 -37 2 -9 -14 -19 -18 -33
-12 -38 4 -8 -13 -17 -17 -33
-9 -38 4 -6 -13 -15 -16 -33
-7 -38 4 -5 -13 -16 -16 -35
-11 -43 7 -2 -10 -14 -13 -33
-15 -49 9 1 -7 -11 -11 -31
-16 -52 10 3 -5 -9 -9 -30
-16 -52 9 2 -6 -9 -10 -33
-13 -51 8 1 -7 -10 -10 -34
-7 -47 9 1 -6 -10 -9 -34
-5 -45 11 3 -4 -9 -8 -34
-9 -46 12 4 -4 -7 -8 -35
-10 -47 11 4 -4 -6 -9 -36
-8 -48 11 5 -2 -5 -7 -36
-8 -48 12 7 1 -4 -6 -36
-9 -49 12 7 1 -4 -5 -35
-10 -49 13 8 1 -3 -4 -35
-10 -48 13 8 2 -3 -4 -37
-6 -44 11 7 1 -4 -5 -40
0 -39 8 5 -2 -6 -7 -46
2 -38 7 4 -4 -7 -9 -49
0 -37 6 3 -4 -7 -9 -49
-5 -37 7 4 -3 -6 -7 -47
-7 -38 8 6 0 -5 -6 -45
-5 -43 9 8 2 -3 -3 -40
1 -43 9 7 2 -3 -3 -39
2 -39 9 8 3 0 0 -39
-2 -38 10 10 5 2 2 -37
-5 -38 10 11 7 4 3 -35
-4 -35 8 9 4 2 0 -38
0 -32 7 8 2 0 -3 -39
4 -31 6 7 2 -2 -3 -39
2 -31 9 10 5 2 0 -36
-3 -31 12 15 9 5 3 -33
-2 -34 12 15 10 6 4 -31
2 -35 10 14 10 7 5 -31
6 -34 10 14 10 7 6 -31
8 -32 10 15 11 8 6 -30
7 -30 10 16 14 10 8 -27
6 -26 9 15 13 10 7 -27
6 -23 7 15 12 9 7 -28
7 -24 7 14 12 10 7 -28
9 -24 7 14 13 11 7 -27
10 -22 8 16 15 11 9 -26
9 -22 10 18 18 13 13 -23
9 -22 10 18 19 15 15 -20
13 -21 11 19 20 16 16 -19
19 -19 10 19 19 16 15 -19
23 -17 7 17 17 15 14 -21
24 -15 5 15 16 15 14 -22
22 -12 4 16 17 16 15 -20
20 -11 4 17 18 17 16 -18
18 -11 5 19 21 19 18 -16
18 -11 6 20 23 20 19 -14
22 -12 6 20 24 21 20 -13
25 -13 6 20 25 22 21 -13
26 -13 6 21 26 24 22 -11
27 -12 4 21 26 25 22 -10
27 -10 5 22 28 28 25 -8
26 -5 3 20 27 28 25 -7
29 2 1 19 26 27 25 -6
33 5 2 20 28 28 28 -2
33 4 2 20 29 28 29 2
28 0 2 20 29 29 30 3
29 -3 2 20 30 30 30 3
36 0 1 19 30 30 31 3
43 1 -2 18 29 30 31 3
44 1 -4 18 28 30 31 3
44 1 -6 15 25 28 30 2
42 3 -8 12 23 27 29 1
38 6 -8 13 23 27 29 2
38 8 -6 13 25 28 31 3
39 10 -6 12 25 28 31 3
39 8 -7 11 24 27 29 4
36 4 -8 11 24 28 30 5
34 2 -6 12 25 29 33 9
36 3 -7 10 24 28 32 8
37 4 -8 9 22 27 30 6
35 5 -7 9 22 28 30 7
34 9 -8 8 20 25 29 6
33 10 -9 7 19 23 27 4
32 8 -9 6 18 22 26 3
32 5 -10 5 18 22 25 3
34 4 -11 4 16 20 23 2
35 0 -10 4 16 21 23 2
34 -4 -9 4 15 21 22 1
30 -4 -7 5 14 19 21 0
25 -6 -6 4 13 16 19 -3
22 -9 -6 4 13 14 17 -5
24 -8 -6 4 11 11 15 -8
28 -4 -6 5 9 9 13 -10
25 -3 -4 6 10 9 11 -11
19 -6 -3 6 9 8 9 -11
15 -10 1 8 9 9 9 -12
15 -13 2 10 10 9 9 -12
15 -16 3 11 10 8 8 -12
15 -17 3 10 8 6 6 -14
13 -17 4 10 7 4 4 -16
8 -17 4 8 6 3 3 -18
6 -15 3 7 4 0 0 -22
4 -15 3 7 3 -2 -3 -23
2 -17 4 7 2 -3 -5 -23
0 -18 5 7 1 -4 -6 -24
-2 -21 7 8 2 -4 -6 -22
-3 -25 7 8 1 -4 -6 -23
-3 -26 7 8 1 -4 -6 -23
-3 -25 6 6 -2 -6 -8 -24
-4 -26 6 6 -3 -7 -7 -24
-5 -27 6 4 -3 -8 -7 -24
-5 -25 4 2 -6 -10 -9 -26
-4 -23 2 -2 -8 -13 -12 -28
-7 -23 2 -2 -8 -13 -12 -28
-10 -24 2 -3 -8 -14 -12 -27
-7 -25 3 -2 -9 -14 -13 -28
-4 -29 2 -2 -10 -14 -15 -29
-6 -32 1 -3 -11 -15 -16 -30
-11 -32 2 -3 -11 -15 -16 -29
-12 -30 3 -2 -11 -15 -16 -28
-9 -28 3 0 -8 -12 -14 -26
-6 -23 3 0 -9 -12 -13 -26
-7 -20 2 -2 -10 -13 -14 -27
-9 -21 2 -2 -10 -13 -15 -26
-9 -22 1 -4 -12 -14 -16 -27
-7 -23 1 -4 -12 -15 -16 -28
-9 -27 1 -4 -11 -15 -16 -27
-13 -31 3 -2 -8 -13 -14 -25
-13 -31 4 -2 -8 -14 -13 -25
-8 -28 3 -2 -9 -15 -15 -26
-7 -24 4 0 -8 -13 -13 -24
-9 -20 4 0 -8 -12 -12 -23
-9 -18 1 -3 -10 -14 -16 -26
-6 -20 0 -4 -11 -15 -17 -27
-6 -20 0 -5 -11 -16 -17 -26
-6 -20 0 -4 -11 -16 -16 -25
-4 -23 1 -4 -11 -15 -15 -24
-2 -25 0 -4 -11 -15 -15 -24
-3 -26 1 -3 -11 -15 -15 -24
-9 -27 1 -3 -11 -15 -16 -24
-17 -27 3 0 -8 -12 -13 -22
-17 -23 3 1 -7 -12 -12 -20
-9 -18 2 1 -9 -13 -14 -21
-4 -17 2 -2 -11 -14 -15 -22
-4 -17 0 -4 -13 -16 -17 -23
-5 -18 0 -3 -11 -17 -18 -23
-6 -21 1 -2 -10 -15 -15 -23
-8 -23 2 -2 -8 -13 -13 -22
-12 -22 4 1 -6 -10 -12 -20
-13 -22 5 2 -5 -10 -12 -19
-9 -22 4 1 -6 -11 -12 -20
-7 -18 3 -2 -9 -14 -13 -21
-9 -14 4 2 -9 -14 -14 -20
-10 -14 4 1 -9 -14 -15 -21
-11 -17 2 -2 -10 -15 -16 -21
-11 -18 2 -2 -10 -14 -16 -22
-10 -19 3 0 -9 -13 -14 -20
-7 -19 2 0 -9 -13 -12 -17
-7 -19 1 -2 -9 -14 -13 -17
-8 -19 0 -2 -10 -15 -15 -19
-9 -19 -2 -2 -10 -15 -15 -21
-5 -17 -2 -4 -12 -17 -18 -23
0 -15 -2 -5 -13 -19 -21 -24
1 -15 -2 -5 -13 -19 -20 -24
-6 -16 -3 -4 -12 -18 -18 -23
-12 -17 1 -2 -10 -16 -16 -20
-11 -19 2 -2 -9 -15 -17 -19
-7 -20 2 -2 -9 -14 -16 -18
-7 -20 3 0 -8 -13 -14 -18
-9 -19 3 1 -8 -12 -14 -18
-8 -18 3 1 -9 -13 -13 -15
-4 -14 0 -3 -12 -16 -16 -17
-5 -10 0 0 -10 -15 -16 -19
-7 -9 2 3 -7 -13 -13 -17
-6 -8 4 6 -5 -11 -11 -13
0 -7 6 7 -5 -11 -12 -13
5 -7 7 7 -4 -10 -11 -12
5 -7 10 9 0 -7 -8 -9
0 -8 12 11 2 -6 -7 -8
-5 -6 14 13 3 -5 -7 -8
-3 -4 14 12 2 -5 -8 -8
3 0 12 10 -3 -6 -10 -9
3 1 8 7 -6 -10 -13 -12
0 1 8 7 -5 -9 -12 -12
0 1 10 10 -2 -6 -9 -10
3 1 10 12 0 -5 -8 -8
2 -2 12 14 3 -3 -7 -6
2 0 14 18 6 1 -4 -2
3 3 15 20 8 3 -2 2
5 6 14 19 7 2 -2 0
7 7 12 16 5 0 -3 -2
7 9 10 13 2 -3 -4 -3
5 11 9 11 0 -4 -5 -4
5 12 9 11 1 -4 -5 -3
8 12 10 12 2 -4 -5 -2
9 10 8 10 0 -5 -6 -2
5 4 7 9 1 -3 -4 0
2 0 5 6 -2 -4 -5 -2
3 -2 3 3 -5 -7 -7 -4
5 -2 0 0 -8 -11 -10 -6
5 -4 -2 -2 -9 -12 -11 -6
8 -3 -6 -6 -13 -16 -15 -9
10 -2 -10 -10 -18 -21 -20 -13
6 -5 -11 -11 -18 -22 -20 -13
-3 -7 -8 -9 -16 -19 -18 -10
-6 -7 -4 -6 -14 -17 -16 -9
-2 -10 -5 -7 -15 -19 -18 -11
-2 -14 -6 -10 -19 -22 -20 -14
-6 -16 -7 -12 -21 -25 -22 -17
-9 -16 -7 -13 -22 -25 -23 -18
-11 -15 -5 -11 -19 -23 -22 -16
-16 -14 -4 -10 -20 -23 -23 -16
-20 -14 -5 -11 -21 -23 -25 -17
-19 -15 -6 -12 -20 -24 -25 -19
-17 -15 -6 -13 -20 -25 -25 -20
-17 -16 -7 -15 -22 -26 -27 -21
-17 -19 -8 -16 -24 -27 -28 -21
-15 -20 -7 -15 -23 -25 -26 -20
-14 -18 -6 -15 -22 -25 -25 -19
-14 -17 -6 -15 -22 -25 -25 -19
-14 -15 -6 -14 -21 -25 -25 -19
-13 -12 -7 -15 -23 -26 -26 -19
-12 -10 -8 -15 -23 -27 -26 -18
-8 -11 -9 -16 -24 -28 -27 -20
-3 -12 -10 -18 -26 -29 -28 -22
-4 -13 -10 -17 -26 -29 -28 -21
-13 -16 -8 -15 -22 -26 -25 -18
-20 -17 -7 -14 -20 -24 -24 -17
-20 -17 -6 -13 -20 -24 -24 -17
-16 -17 -6 -13 -20 -23 -24 -16
-15 -15 -7 -13 -21 -23 -23 -16
-17 -12 -7 -14 -21 -24 -23 -16
-18 -12 -5 -12 -22 -24 -23 -17
-17 -14 -4 -11 -22 -25 -26 -19
-12 -17 -3 -10 -23 -28 -30 -24
-4 -22 0 -8 -24 -32 -36 -31
0 -26 7 3 -20 -30 -35 -32
-2 -21 18 18 -7 -21 -28 -25
3 -9 27 36 11 -6 -17 -14
17 10 35 58 34 15 1 4
43 30 36 77 59 38 20 20
71 55 33 95 87 65 46 40
95 87 34 116 121 101 81 74
107 129 42 136 159 145 128 120
109 178 48 147 187 186 174 170
106 222 51 151 206 220 218 217
108 253 46 145 219 245 251 254
113 275 35 128 224 262 273 279
113 287 19 101 214 263 282 292
97 277 7 69 188 243 269 281
70 248 -4 34 148 205 236 250
45 215 -18 -8 101 158 194 210
23 175 -36 -57 46 104 145 161
-2 123 -47 -95 -9 47 89 109
-27 68 -49 -121 -59 -12 28 53
-55 19 -51 -141 -102 -64 -25 1
-77 -17 -49 -145 -121 -92 -57 -31
-79 -31 -44 -132 -112 -90 -62 -37
-65 -34 -43 -113 -95 -77 -57 -35
-51 -35 -43 -98 -83 -69 -54 -35
-41 -34 -37 -83 -73 -63 -52 -36
-31 -27 -30 -64 -59 -51 -44 -29
-23 -19 -24 -46 -44 -39 -34 -20
-20 -17 -16 -32 -30 -30 -24 -14
-18 -17 -9 -23 -23 -25 -21 -12
-14 -17 -6 -17 -19 -22 -19 -10
-12 -22 -5 -13 -17 -20 -18 -9
-14 -27 -3 -12 -16 -19 -18 -10
-13 -29 -2 -12 -16 -20 -20 -13
-10 -30 -2 -10 -16 -21 -21 -13
-8 -31 -4 -11 -19 -23 -22 -12
-10 -29 -4 -11 -19 -22 -21 -11
-11 -27 -2 -11 -17 -20 -20 -12
-10 -28 -2 -11 -17 -20 -20 -14
-10 -29 -3 -11 -17 -20 -21 -13
-12 -30 0 -9 -16 -20 -20 -12
-17 -34 3 -6 -13 -17 -19 -10
-21 -38 6 -4 -11 -14 -17 -9
-22 -37 7 -3 -10 -13 -14 -7
-17 -35 7 -2 -10 -12 -14 -8
-13 -31 6 -2 -11 -13 -15 -9
-12 -27 5 -3 -12 -14 -16 -9
-11 -25 4 -5 -13 -15 -17 -9
-8 -27 3 -5 -14 -17 -18 -11
-10 -29 3 -5 -13 -17 -18 -12
-13 -28 3 -3 -11 -17 -16 -10
-11 -30 5 0 -8 -14 -15 -8
-6 -31 6 2 -6 -11 -13 -6
-3 -29 7 3 -4 -9 -12 -4
-2 -27 7 4 -4 -8 -11 -3
0 -27 5 1 -6 -10 -13 -6
-2 -25 2 -2 -8 -12 -15 -9
-3 -22 0 -3 -10 -14 -15 -10
-3 -22 2 -2 -8 -11 -13 -8
-6 -22 4 1 -5 -8 -11 -5
-11 -22 7 5 -2 -6 -8 -2
-9 -24 8 6 0 -6 -8 0
-2 -24 6 4 0 -7 -10 -2
4 -23 3 3 -4 -8 -11 -3
2 -23 5 3 -3 -7 -8 0
0 -20 8 5 1 -4 -5 2
-2 -17 6 6 0 -4 -5 2
-3 -17 4 6 -2 -5 -5 4
-4 -17 4 5 -2 -4 -3 4
-2 -16 4 5 0 -4 -3 4
3 -15 3 4 -2 -4 -4 3
6 -17 4 6 0 -2 -3 4
8 -18 5 6 2 0 -2 5
8 -17 3 6 2 -2 -3 4
7 -18 3 7 3 -2 -3 5
8 -17 3 7 4 0 -4 6
11 -13 2 7 4 1 -3 6
7 -10 2 8 4 1 0 6
4 -9 3 9 6 3 2 7
12 -9 1 7 4 2 1 6
17 -8 1 7 4 2 2 7
13 -9 5 11 10 7 6 11
14 -10 5 13 13 9 7 13
21 -9 2 11 10 6 5 11
22 -8 2 11 9 7 6 12
17 -6 3 12 11 9 7 13
15 0 2 13 11 9 8 14
16 4 0 12 11 9 8 13
15 3 2 14 13 11 10 15
18 2 1 12 13 11 10 14
22 2 0 11 13 11 10 14
23 -2 0 11 14 12 11 16
22 -5 2 15 18 17 15 21
22 -2 4 17 20 19 16 23
22 3 5 18 20 19 18 23
26 6 5 19 22 21 19 24
33 10 1 16 20 20 18 23
39 13 -3 13 18 18 17 22
36 13 -3 13 19 19 20 25
30 12 0 16 22 22 24 28
28 11 -2 15 23 24 26 28
30 9 -3 14 23 23 24 29
31 6 -4 14 24 24 24 31
34 7 -3 15 24 25 26 32
40 11 -3 16 23 26 26 32
43 14 -5 15 23 26 25 32
39 17 -6 15 23 25 26 32
37 21 -7 13 21 24 26 31
40 23 -8 10 20 24 26 31
44 22 -10 8 19 23 25 31
42 20 -10 8 19 23 26 31
38 17 -9 9 21 25 28 32
40 13 -9 9 22 27 28 34
44 12 -10 8 20 26 27 35
45 14 -10 8 19 26 27 34
45 17 -10 8 19 25 27 34
44 20 -11 6 18 24 27 34
42 22 -12 4 16 22 27 34
42 22 -13 3 15 21 26 33
47 21 -15 0 12 19 23 30
49 20 -16 -3 10 18 22 29
47 16 -15 -2 11 18 23 29
45 12 -14 -2 12 18 23 29
42 11 -15 -3 10 17 22 28
37 10 -13 1 10 18 22 29
35 11 -11 1 11 17 21 28
35 14 -11 -2 9 15 19 25
35 14 -13 -4 6 11 15 20
32 11 -14 -5 5 8 12 17
28 8 -13 -4 5 8 12 16
25 5 -11 0 6 8 12 17
24 3 -7 3 8 10 11 17
26 0 -5 4 8 10 10 16
28 0 -4 4 5 7 8 12
27 -3 -5 3 3 5 6 10
24 -5 -5 3 3 3 4 8
16 -3 -3 4 3 3 4 9
10 0 -2 3 2 1 2 6
10 -3 -2 3 2 0 0 3
15 -5 -5 1 -2 -4 -5 -2
17 -8 -6 1 -4 -6 -8 -4
14 -11 -5 3 -3 -6 -7 -3
9 -15 -2 5 0 -4 -4 0
1 -17 3 7 1 -3 -2 2
-5 -18 5 7 0 -4 -3 1
-4 -19 4 4 -4 -6 -6 -4
-3 -17 2 1 -7 -9 -9 -7
-3 -15 2 1 -9 -11 -11 -6
-2 -13 3 1 -9 -12 -11 -5
-2 -12 2 0 -8 -12 -12 -7
-5 -16 1 0 -9 -13 -13 -8
-9 -21 2 0 -8 -12 -12 -6
-7 -22 3 0 -8 -12 -12 -7
-3 -21 2 -2 -10 -13 -13 -9
-2 -21 2 -3 -11 -15 -14 -10
-6 -22 2 -3 -11 -15 -15 -10
-11 -19 2 -4 -11 -14 -16 -10
-12 -17 0 -6 -13 -15 -19 -11
-13 -20 -2 -7 -15 -16 -18 -13
-15 -21 -4 -8 -15 -17 -18 -15
-13 -21 -3 -6 -15 -17 -18 -15
-6 -22 -3 -6 -14 -17 -19 -14
-5 -23 -2 -6 -12 -15 -17 -12
-8 -24 1 -4 -11 -14 -15 -10
-8 -24 1 -4 -12 -16 -16 -11
-6 -23 1 -5 -12 -16 -17 -12
-6 -21 -2 -6 -14 -17 -19 -14
-5 -18 -4 -7 -16 -18 -20 -16
-3 -17 -3 -6 -15 -17 -19 -15
-5 -15 0 -6 -13 -15 -18 -13
-9 -17 0 -5 -13 -14 -17 -12
-10 -21 0 -4 -12 -14 -17 -13
-8 -23 1 -4 -11 -13 -16 -12
-6 -24 2 -4 -12 -14 -16 -11
-6 -25 1 -5 -14 -16 -17 -12
-8 -24 0 -4 -12 -16 -17 -12
-6 -20 0 -5 -13 -17 -17 -13
-3 -16 -2 -5 -14 -18 -19 -14
-7 -15 0 -5 -13 -16 -17 -13
-13 -17 1 -3 -10 -14 -14 -10
-10 -18 0 -5 -12 -16 -16 -11
-5 -21 0 -5 -12 -16 -16 -11
-6 -24 1 -5 -11 -15 -16 -12
-7 -23 1 -4 -11 -15 -17 -13
-8 -23 1 -3 -11 -15 -17 -13
-9 -22 1 -3 -11 -15 -16 -12
-10 -18 1 -5 -12 -15 -14 -11
-11 -15 1 -4 -12 -15 -14 -10
-12 -15 -2 -5 -12 -15 -16 -13
-9 -16 -3 -7 -13 -17 -16 -14
-5 -16 -4 -7 -14 -18 -17 -13
-5 -18 -3 -5 -12 -16 -17 -11
-8 -21 1 -3 -10 -14 -15 -11
-12 -21 2 -2 -10 -12 -14 -11
-10 -20 2 -3 -12 -14 -16 -11
-7 -19 1 -4 -13 -15 -19 -12
-5 -16 -2 -6 -15 -18 -21 -14
-7 -14 -2 -6 -15 -19 -20 -15
-9 -15 -2 -7 -14 -18 -20 -15
-9 -16 -3 -8 -14 -18 -20 -16
-7 -17 -2 -7 -14 -17 -18 -15
-5 -19 0 -6 -14 -16 -18 -14
-6 -22 0 -5 -13 -15 -17 -13
-11 -23 1 -3 -12 -14 -16 -12
-15 -23 3 -2 -11 -13 -15 -11
-13 -21 2 -2 -11 -14 -16 -12
-8 -17 -2 -6 -14 -17 -19 -15
-7 -16 -2 -6 -14 -17 -19 -15
-10 -15 1 -4 -12 -15 -16 -12
-10 -14 3 -2 -9 -13 -13 -9
-7 -13 2 0 -9 -12 -13 -9
-4 -14 3 1 -8 -11 -13 -9
-4 -15 6 3 -6 -9 -10 -6
-4 -13 8 6 -4 -6 -7 -3
-4 -11 10 8 -3 -5 -7 -2
-2 -8 11 8 -2 -5 -7 -4
1 -3 11 8 -2 -5 -8 -6
3 1 9 6 -3 -7 -9 -7
5 0 8 6 -4 -7 -9 -6
7 -2 9 6 -4 -7 -9 -5
8 -4 9 6 -5 -7 -9 -6
5 -8 11 8 -3 -6 -7 -4
0 -10 13 11 1 -3 -5 0
-2 -9 12 11 1 -2 -5 0
3 -7 9 10 -2 -4 -7 -2
6 -3 8 8 -2 -5 -8 -3
6 5 8 10 0 -4 -5 0
5 10 9 13 2 -2 -4 2
5 12 10 14 3 -2 -4 2
3 12 12 13 4 0 -4 2
0 8 11 12 2 -2 -3 3
0 2 8 11 1 -3 -5 2
4 0 7 10 1 -3 -5 1
9 4 9 11 2 -2 -3 2
10 5 11 11 3 0 -2 4
6 2 7 8 0 -3 -5 2
2 3 4 3 -4 -6 -8 -3
1 4 2 1 -7 -7 -9 -4
2 4 0 -2 -9 -9 -10 -5
4 2 -4 -5 -11 -11 -10 -6
5 0 -6 -7 -13 -13 -12 -7
5 -6 -6 -7 -13 -13 -11 -7
3 -10 -6 -7 -14 -13 -12 -7
1 -11 -6 -8 -16 -15 -14 -9
0 -12 -8 -10 -17 -18 -17 -12
0 -11 -8 -10 -17 -20 -20 -15
-5 -10 -7 -11 -19 -21 -22 -17
-12 -10 -7 -11 -21 -23 -24 -16
-15 -11 -8 -12 -21 -24 -24 -16
-15 -13 -8 -14 -23 -25 -25 -19
-15 -15 -5 -13 -21 -23 -24 -19
-14 -17 -4 -11 -20 -22 -24 -17
-12 -19 -4 -12 -20 -22 -24 -17
-10 -20 -4 -13 -21 -22 -24 -19
-11 -20 -4 -13 -21 -23 -25 -20
-15 -18 -4 -13 -20 -22 -24 -19
-18 -16 -5 -14 -21 -23 -24 -19
-17 -14 -7 -16 -23 -25 -26 -22
-14 -14 -10 -17 -25 -26 -27 -24
-15 -15 -9 -16 -23 -25 -26 -21
-18 -16 -7 -14 -22 -24 -24 -18
-16 -17 -6 -13 -22 -23 -25 -18
-13 -21 -8 -14 -22 -24 -25 -20
-16 -21 -7 -14 -21 -23 -24 -20
-19 -20 -6 -13 -20 -22 -24 -19
-17 -18 -6 -13 -21 -22 -24 -19
-15 -15 -6 -14 -22 -23 -25 -20
-16 -13 -7 -15 -23 -24 -25 -20
-15 -13 -8 -17 -24 -27 -26 -22
-10 -14 -10 -19 -25 -28 -28 -22
-10 -15 -9 -17 -25 -26 -27 -22
-16 -18 -6 -12 -21 -21 -25 -18
-17 -21 -5 -11 -21 -23 -25 -18
-14 -22 -5 -11 -23 -26 -30 -24
-12 -23 1 -7 -22 -28 -34 -29
-10 -24 7 2 -19 -28 -35 -30
-3 -17 13 12 -13 -24 -33 -29
5 -4 20 27 2 -13 -25 -22
12 12 28 50 26 8 -7 -5
28 27 33 69 52 31 15 15
58 47 33 89 80 59 39 36
92 75 34 109 115 95 73 66
111 113 40 130 150 138 117 110
111 160 48 144 180 181 165 161
108 206 51 147 199 215 210 207
110 243 44 140 210 237 240 243
113 270 30 123 213 251 264 269
112 284 14 98 203 253 272 280
102 278 2 67 179 235 261 271
72 248 -6 35 144 201 232 245
37 210 -12 2 104 161 197 214
19 167 -25 -41 57 114 154 174
4 117 -37 -82 3 59 100 122
-26 65 -38 -111 -48 1 39 65
-57 16 -40 -132 -92 -53 -18 8
-76 -17 -41 -141 -117 -88 -56 -30
-80 -29 -41 -136 -117 -92 -67 -45
-67 -31 -41 -119 -102 -80 -61 -44
-53 -31 -40 -102 -89 -70 -56 -41
-50 -31 -32 -83 -73 -59 -49 -38
-49 -31 -23 -63 -55 -46 -37 -34
-36 -31 -18 -44 -40 -34 -29 -29
-21 -30 -13 -30 -30 -26 -23 -25
-16 -26 -8 -21 -22 -20 -18 -19
-14 -26 -5 -15 -17 -17 -15 -17
-13 -26 -7 -14 -18 -19 -17 -18
-17 -26 -5 -12 -17 -18 -18 -19
-21 -27 -4 -12 -18 -18 -19 -21
-17 -30 -3 -11 -18 -19 -19 -21
-15 -31 -2 -11 -18 -20 -18 -21
-17 -32 1 -9 -16 -17 -18 -20
-18 -36 2 -7 -14 -15 -17 -22
-14 -43 2 -7 -13 -15 -18 -22
-14 -46 3 -7 -13 -16 -18 -21
-19 -46 7 -4 -11 -13 -15 -17
-18 -41 8 -2 -10 -11 -14 -15
-13 -37 8 0 -10 -11 -14 -16
-13 -36 7 0 -10 -11 -14 -16
-16 -39 10 2 -8 -8 -12 -14
-17 -41 11 4 -5 -6 -10 -12
-15 -44 11 4 -6 -6 -9 -11
-13 -48 11 3 -7 -8 -9 -11
-14 -53 12 5 -5 -6 -7 -9
-14 -54 12 5 -4 -5 -5 -8
-12 -54 12 6 -4 -5 -6 -8
-8 -50 11 5 -4 -5 -7 -10
-6 -45 10 5 -3 -4 -7 -9
-8 -44 9 5 -3 -5 -7 -10
-11 -45 10 5 -3 -4 -7 -9
-9 -45 9 5 -2 -4 -8 -10
-5 -45 10 6 0 -4 -6 -8
-4 -47 11 8 1 -3 -4 -7
-6 -48 12 8 2 0 -3 -6
-10 -48 12 9 2 1 -2 -5
-13 -46 14 12 4 4 2 -2
-11 -41 15 12 5 4 0 -2
-5 -37 12 9 2 2 -4 -5
0 -36 10 7 1 0 -4 -6
-4 -35 10 8 2 1 -3 -7
-7 -35 11 10 5 3 0 -4
-7 -37 12 12 8 6 4 2
-7 -39 14 14 10 8 6 4
-7 -38 13 14 9 9 6 3
-4 -36 13 13 8 9 6 3
1 -34 11 11 6 6 5 2
2 -34 11 11 7 5 3 1
2 -31 9 10 7 5 2 0
2 -28 8 10 7 6 3 1
4 -28 8 10 8 6 3 1
8 -28 9 11 8 7 2 2
12 -28 8 10 8 6 2 2
8 -31 9 13 9 9 5 3
-2 -33 11 15 12 12 9 6
-5 -32 12 17 14 14 12 9
3 -28 12 16 14 14 12 9
8 -27 12 15 15 12 10 8
4 -25 10 14 14 12 9 8
4 -21 10 16 15 14 10 10
9 -18 9 17 16 15 12 11
11 -20 8 17 16 16 13 11
7 -22 8 16 15 16 13 11
7 -23 10 17 16 17 15 13
12 -20 12 19 20 20 18 16
18 -16 13 21 22 23 21 19
21 -16 10 20 22 23 20 17
22 -15 6 17 20 21 18 15
23 -11 3 16 19 20 17 15
23 -6 3 16 20 21 18 17
23 -5 4 18 21 22 19 18
22 -5 6 20 24 25 23 20
23 -6 6 21 26 26 24 21
24 -7 6 21 27 27 25 23
24 -7 5 20 28 28 26 24
27 -6 3 17 26 26 25 24
29 -5 3 17 26 27 26 25
30 -3 4 19 28 29 28 26
33 2 4 20 30 30 29 28
36 5 1 18 28 30 28 27
38 4 -2 17 26 29 28 26
35 4 -4 17 27 30 28 27
31 3 -3 16 28 31 31 29
31 2 -2 16 29 33 33 32
36 1 -4 13 27 31 32 31
39 2 -6 11 25 30 32 30
39 2 -7 10 23 29 30 29
38 2 -8 9 21 28 28 28
34 5 -8 8 21 27 28 29
31 9 -7 7 21 27 28 29
33 10 -6 8 22 28 28 30
36 9 -6 8 22 28 28 30
37 6 -8 6 20 26 27 28
38 3 -8 5 19 27 28 28
39 0 -7 5 19 27 28 30
38 0 -8 4 18 25 28 30
36 -2 -8 3 17 24 27 28
30 -3 -8 2 16 23 26 27
24 0 -8 3 17 24 27 29
25 3 -10 1 14 22 24 27
30 4 -12 -3 11 19 21 24
32 3 -12 -3 10 18 19 22
30 0 -12 -2 10 17 19 23
27 -6 -11 -2 10 16 18 22
23 -10 -9 0 11 16 18 20
20 -10 -8 1 11 15 17 18
19 -10 -5 3 11 16 15 16
19 -9 -3 4 11 15 13 15
19 -7 -5 3 8 11 9 11
16 -5 -5 3 7 9 7 9
10 -7 -3 3 7 8 5 8
9 -9 1 4 7 8 4 6
10 -11 3 5 7 8 4 5
9 -14 3 7 6 7 4 3
8 -17 5 8 6 6 4 0
7 -18 6 8 6 4 3 -2
6 -20 6 8 5 3 1 -3
4 -21 5 7 3 1 -2 -7
1 -19 4 4 0 -2 -6 -10
-3 -17 4 5 0 -3 -7 -11
-6 -18 5 5 -2 -4 -7 -11
-5 -20 4 4 -3 -6 -10 -13
-4 -23 4 4 -3 -6 -9 -13
-6 -25 5 5 -2 -5 -9 -12
-8 -27 5 5 -2 -4 -9 -11
-7 -27 4 3 -4 -6 -10 -13
-5 -27 4 2 -6 -8 -11 -15
-6 -27 4 2 -6 -8 -12 -16
-11 -25 3 1 -7 -9 -14 -18
-13 -24 3 -2 -8 -10 -16 -19
-12 -25 1 -4 -10 -12 -17 -21
-11 -24 2 -3 -10 -12 -17 -19
-12 -23 4 -2 -9 -10 -14 -17
-13 -28 6 0 -8 -9 -12 -16
-12 -32 7 1 -8 -9 -13 -16
-11 -32 6 1 -7 -9 -14 -16
-14 -32 7 2 -6 -9 -13 -15
-16 -31 8 2 -6 -11 -14 -15
-16 -29 7 0 -8 -13 -15 -15
-13 -27 6 -2 -9 -13 -17 -17
-14 -27 5 -3 -10 -13 -18 -18
-16 -26 5 -3 -10 -12 -17 -17
-13 -24 5 -2 -10 -12 -16 -17
-11 -26 5 0 -9 -11 -14 -16
-14 -28 5 0 -9 -10 -14 -16
-14 -28 3 -4 -11 -10 -16 -17
-11 -27 3 -5 -11 -11 -17 -18
-8 -25 3 -3 -9 -11 -16 -16
-8 -21 2 -2 -8 -12 -15 -16
-11 -19 2 -4 -9 -13 -16 -18
-14 -19 3 -4 -10 -13 -17 -19
-12 -19 2 -5 -11 -13 -17 -18
-7 -19 3 -4 -11 -12 -16 -15
-5 -21 4 -3 -10 -11 -14 -13
-8 -23 4 -3 -10 -11 -15 -15
-11 -25 3 -3 -11 -12 -15 -16
-15 -25 5 0 -9 -11 -13 -15
-18 -23 4 0 -9 -12 -14 -17
-17 -22 2 -3 -11 -15 -16 -19
-14 -20 1 -5 -13 -17 -19 -20
-12 -18 2 -4 -12 -16 -19 -20
-11 -17 3 -2 -10 -15 -18 -20
-10 -18 4 0 -8 -13 -18 -19
-12 -21 6 2 -6 -11 -17 -17
-15 -24 6 2 -5 -10 -16 -16
-16 -24 5 1 -5 -9 -13 -15
-14 -23 2 -2 -7 -11 -15 -16
-14 -21 0 -5 -10 -13 -18 -18
-15 -18 1 -5 -11 -13 -17 -18
-15 -15 0 -5 -13 -14 -18 -19
-14 -15 0 -4 -14 -15 -20 -20
-12 -16 1 -4 -13 -16 -21 -21
-11 -17 3 -2 -11 -15 -21 -20
-14 -19 6 1 -9 -14 -18 -18
-15 -21 5 0 -10 -16 -18 -18
-14 -21 5 -3 -10 -15 -19 -19
-13 -21 5 -3 -10 -14 -19 -19
-9 -20 4 -4 -11 -15 -19 -20
-4 -17 0 -7 -14 -18 -21 -22
-6 -17 0 -7 -14 -17 -21 -22
-14 -19 2 -4 -12 -15 -19 -19
-16 -19 3 -3 -10 -13 -17 -17
-15 -17 6 0 -8 -12 -15 -14
-17 -18 6 0 -8 -13 -15 -15
-17 -19 6 0 -8 -13 -15 -14
-13 -17 7 2 -6 -10 -13 -12
-11 -15 7 4 -5 -9 -12 -12
-9 -12 6 4 -6 -10 -13 -13
-4 -7 7 3 -7 -10 -14 -14
-2 -3 9 5 -6 -9 -15 -14
-3 -2 13 7 -5 -9 -14 -13
-7 -2 15 10 -2 -9 -12 -11
-9 -4 16 12 0 -8 -11 -9
-6 -7 15 11 0 -8 -11 -9
-4 -10 15 10 0 -8 -11 -9
-9 -10 15 10 1 -7 -10 -9
-13 -9 16 11 1 -6 -9 -8
-10 -7 17 11 1 -5 -7 -7
-8 -3 16 10 0 -5 -8 -7
-12 -2 15 10 0 -5 -8 -6
-12 -2 16 12 1 -5 -8 -6
-5 4 17 15 3 -2 -6 -4
0 9 18 18 7 2 -4 -2
-3 6 17 19 8 3 -3 -2
-5 2 15 16 6 2 -4 -3
-6 0 12 11 3 0 -6 -4
-7 1 11 9 2 -2 -6 -4
-6 5 12 11 3 1 -5 -2
-2 10 11 10 2 0 -5 -3
2 11 7 6 -2 -5 -8 -6
1 7 6 5 -4 -7 -8 -5
-2 6 5 3 -5 -8 -9 -6
-4 5 4 2 -6 -8 -9 -6
-5 1 5 1 -6 -8 -8 -4
-4 -3 3 -2 -9 -10 -10 -5
1 -3 1 -3 -10 -12 -12 -6
0 -4 2 -3 -9 -12 -12 -6
-5 -5 2 -4 -10 -12 -14 -7
-8 -4 2 -5 -11 -14 -15 -9
-10 -4 0 -7 -14 -16 -16 -11
-16 -8 1 -8 -15 -18 -17 -12
-18 -11 0 -10 -18 -20 -20 -15
-17 -14 -4 -14 -20 -23 -22 -17
-17 -17 -4 -14 -20 -24 -23 -18
-20 -19 -3 -13 -20 -24 -24 -18
-18 -18 -4 -14 -20 -24 -25 -18
-15 -17 -2 -11 -18 -22 -23 -17
-17 -15 -2 -12 -19 -22 -23 -17
-17 -14 -5 -16 -23 -24 -26 -20
-13 -13 -7 -17 -24 -26 -27 -21
-13 -13 -8 -17 -24 -26 -27 -20
-17 -14 -7 -18 -24 -27 -26 -20
-18 -17 -6 -19 -24 -27 -26 -21
-15 -18 -6 -18 -23 -27 -26 -21
-15 -18 -4 -16 -22 -26 -25 -19
-18 -18 -2 -15 -22 -25 -25 -17
-23 -19 0 -13 -20 -23 -23 -15
-23 -19 -2 -15 -22 -24 -24 -17
-19 -17 -5 -18 -24 -27 -26 -19
-18 -15 -5 -18 -24 -26 -26 -19
-22 -16 -5 -17 -22 -25 -26 -18
-25 -17 -4 -15 -20 -24 -25 -18
-22 -17 -4 -14 -21 -24 -25 -18
-18 -17 -2 -14 -21 -24 -25 -19
-20 -19 1 -13 -20 -23 -24 -17
-22 -21 1 -12 -19 -22 -24 -16
-20 -22 -3 -13 -21 -26 -28 -19
-18 -22 -3 -13 -22 -27 -30 -23
-18 -21 0 -11 -21 -30 -34 -28
-13 -23 4 -5 -21 -31 -38 -32
-5 -24 8 5 -17 -31 -40 -34
-2 -20 14 17 -8 -25 -36 -30
2 -9 27 39 15 -6 -19 -15
16 7 38 64 39 18 3 4
36 24 43 87 68 44 25 24
59 47 43 106 99 73 52 49
84 79 44 125 133 110 88 82
98 125 48 142 170 156 137 130
99 178 52 150 198 198 186 181
94 225 54 150 219 234 230 229
94 259 44 137 228 258 262 265
93 283 28 114 230 273 284 289
86 296 16 86 221 275 295 302
68 282 10 56 196 256 279 290
46 246 4 25 155 216 242 257
22 206 -7 -13 107 167 198 214
-2 163 -23 -56 54 112 149 165
-26 113 -34 -94 -3 51 87 105
-49 61 -36 -123 -58 -15 19 39
-66 16 -38 -145 -106 -71 -38 -16
-79 -14 -37 -150 -128 -100 -69 -48
-79 -25 -37 -139 -118 -96 -70 -54
-67 -28 -38 -121 -101 -81 -62 -51
-56 -31 -36 -105 -88 -72 -56 -48
-48 -31 -31 -89 -75 -64 -51 -46
-39 -27 -25 -70 -59 -52 -41 -39
-31 -21 -21 -52 -44 -40 -32 -33
-23 -16 -18 -40 -34 -35 -27 -32
-17 -9 -13 -31 -28 -29 -25 -30
-17 -6 -9 -23 -25 -26 -23 -30
-18 -7 -8 -18 -23 -25 -23 -31
-16 -7 -6 -17 -23 -25 -23 -32
-12 -9 -6 -18 -24 -27 -25 -33
-10 -13 -4 -17 -23 -26 -25 -34
-13 -16 -3 -16 -22 -25 -23 -36
-19 -16 -3 -16 -21 -25 -23 -38
-27 -16 0 -13 -18 -22 -20 -36
-27 -14 1 -12 -18 -22 -21 -36
-18 -10 -2 -14 -20 -24 -23 -39
-15 -8 -2 -14 -21 -25 -24 -40
-18 -9 0 -13 -21 -27 -26 -41
-18 -11 1 -13 -20 -26 -25 -39
-14 -11 -2 -12 -20 -25 -24 -39
-11 -13 1 -8 -16 -22 -22 -37
-11 -14 3 -7 -14 -19 -20 -36
-11 -13 3 -8 -16 -19 -19 -35
-12 -11 2 -9 -18 -21 -20 -35
-14 -9 1 -9 -18 -21 -21 -35
-16 -7 1 -8 -17 -20 -21 -34
-13 -6 -2 -9 -18 -22 -21 -34
-7 -5 -2 -10 -17 -22 -21 -35
-2 -4 -3 -10 -17 -22 -22 -35
-4 -5 1 -8 -14 -19 -20 -33
-10 -9 4 -5 -13 -17 -18 -31
-17 -11 8 -3 -9 -15 -15 -28
-17 -11 8 -2 -9 -13 -13 -26
-11 -10 5 -4 -11 -15 -14 -27
-7 -7 2 -6 -12 -17 -15 -29
-6 -2 2 -6 -10 -16 -15 -29
-6 2 4 -4 -8 -14 -14 -28
-8 1 4 -2 -9 -14 -14 -27
-10 -2 4 -2 -10 -13 -14 -26
-9 -3 2 -2 -10 -13 -13 -26
-7 -7 2 1 -8 -11 -12 -25
-6 -9 4 2 -7 -10 -11 -24
-4 -5 4 2 -6 -9 -9 -22
-3 -3 3 2 -5 -9 -8 -21
0 0 2 1 -6 -9 -8 -21
1 3 1 -2 -7 -11 -9 -22
1 6 2 -2 -7 -11 -9 -22
0 5 4 2 -4 -10 -8 -21
0 4 5 3 -2 -7 -7 -20
3 2 5 4 1 -5 -7 -20
5 0 5 6 2 -3 -6 -19
6 0 6 7 5 0 -3 -17
5 3 6 7 5 1 -2 -16
4 5 5 7 5 1 0 -16
2 6 5 7 5 1 0 -14
3 9 4 7 4 1 0 -14
4 11 3 6 4 1 0 -14
6 10 2 6 4 1 0 -14
8 9 3 7 5 2 1 -13
10 9 3 8 6 2 2 -12
12 10 3 9 7 4 3 -11
14 10 4 11 9 6 5 -9
12 12 5 12 11 8 7 -7
10 14 5 13 12 9 9 -5
13 16 3 11 11 7 8 -7
15 19 0 7 9 5 6 -9
13 20 0 8 10 7 8 -7
14 19 0 9 13 10 8 -3
16 18 -2 9 13 11 9 1
17 18 -4 9 13 12 11 1
22 18 -5 10 14 14 14 2
28 18 -5 12 16 16 16 5
28 21 -4 12 17 17 18 9
24 23 -2 13 18 20 21 11
22 25 0 13 20 21 22 11
22 27 -2 12 21 21 22 10
24 28 -2 11 19 21 22 11
27 29 -2 12 20 22 23 13
29 29 -2 12 22 24 25 14
30 28 -4 11 22 23 25 14
29 25 -5 11 23 24 26 15
28 24 -7 10 23 25 25 15
29 26 -8 10 23 26 26 17
32 28 -8 9 23 25 24 17
32 30 -10 7 20 23 22 16
28 33 -12 5 18 23 24 15
27 35 -13 3 17 23 25 17
29 33 -14 1 15 21 24 16
31 30 -16 -2 13 19 23 16
32 30 -15 0 14 20 25 17
34 30 -14 0 15 21 27 18
33 30 -12 1 17 22 28 20
32 29 -13 -3 14 20 27 19
31 28 -12 -3 14 20 27 18
30 30 -12 -4 13 19 26 17
29 33 -13 -7 11 17 23 15
28 33 -14 -9 10 16 22 14
31 30 -15 -9 9 15 20 12
33 29 -16 -10 8 15 19 11
35 27 -18 -11 7 14 17 11
32 24 -17 -10 6 15 18 12
27 21 -15 -9 6 15 19 13
24 19 -15 -10 4 11 17 11
21 17 -16 -11 3 8 14 9
17 18 -14 -10 3 7 12 8
16 22 -11 -8 4 8 12 7
14 24 -8 -7 3 7 10 5
11 19 -8 -7 1 5 7 1
9 14 -9 -7 0 3 5 -2
9 11 -8 -6 1 4 5 -2
7 6 -5 -3 1 4 4 -2
8 3 -3 -2 1 2 3 -3
8 6 0 1 2 1 3 -3
8 7 2 3 2 1 2 -4
8 6 -2 2 -2 -4 -4 -8
8 8 -5 -2 -6 -8 -8 -13
8 10 -3 -2 -7 -9 -9 -14
6 8 1 1 -6 -9 -9 -14
1 5 4 3 -5 -7 -9 -13
-6 0 6 5 -4 -6 -10 -13
-8 -5 7 5 -4 -5 -9 -13
-6 -8 7 5 -4 -6 -9 -14
-4 -8 5 2 -6 -10 -11 -16
-5 -8 3 0 -9 -12 -13 -17
-6 -7 3 -2 -11 -14 -15 -18
-7 -4 4 -3 -12 -14 -16 -19
-7 -2 3 -4 -13 -16 -16 -20
-7 -3 3 -4 -12 -16 -16 -21
-6 -5 3 -3 -12 -16 -16 -19
-6 -9 3 -2 -11 -15 -16 -18
-6 -12 3 -2 -10 -14 -16 -17
-8 -14 3 -3 -10 -15 -16 -18
-12 -15 4 -3 -11 -15 -15 -18
-14 -15 5 -2 -11 -14 -15 -17
-14 -12 4 -3 -12 -16 -15 -18
-12 -8 2 -5 -14 -18 -17 -20
-11 -5 0 -8 -16 -20 -20 -21
-8 -6 1 -8 -17 -21 -21 -21
-8 -9 2 -7 -17 -20 -21 -21
-13 -12 2 -6 -16 -19 -19 -20
-17 -16 5 -3 -12 -16 -17 -17
-18 -17 5 -3 -11 -14 -16 -17
-15 -15 6 -3 -10 -14 -14 -16
-12 -13 5 -3 -12 -16 -15 -17
-12 -11 4 -3 -12 -17 -17 -18
-14 -7 1 -4 -12 -19 -19 -20
-14 -5 0 -6 -14 -19 -21 -22
-10 -5 0 -7 -16 -20 -22 -23
-7 -7 1 -6 -15 -19 -21 -21
-10 -10 4 -4 -13 -18 -18 -17
-17 -15 7 0 -11 -15 -16 -15
-18 -17 5 -3 -12 -16 -18 -17
-17 -17 4 -4 -13 -17 -16 -16
-15 -16 5 -3 -12 -16 -14 -14
-12 -12 5 -4 -12 -16 -15 -15
-11 -9 2 -6 -15 -18 -17 -18
-11 -8 0 -9 -18 -21 -20 -20
-10 -8 1 -7 -16 -19 -19 -19
-9 -7 1 -6 -14 -17 -18 -18
-10 -7 2 -3 -11 -16 -15 -16
-8 -9 2 -2 -11 -16 -17 -15
-7 -11 2 -2 -11 -16 -18 -16
-9 -11 3 -2 -11 -16 -17 -16
-13 -10 3 0 -11 -16 -17 -15
-16 -9 3 -3 -12 -17 -17 -16
-17 -8 3 -4 -13 -17 -17 -16
-17 -7 3 -4 -14 -17 -17 -16
-14 -7 3 -5 -14 -18 -18 -17
-13 -8 4 -4 -13 -17 -18 -17
-12 -10 4 -2 -11 -16 -17 -15
-9 -12 5 0 -10 -15 -16 -14
-6 -13 4 -3 -12 -17 -17 -15
-6 -12 5 -4 -12 -17 -17 -16
-10 -11 5 -3 -11 -16 -16 -15
-14 -9 6 -2 -10 -16 -15 -14
-11 -7 3 -5 -13 -18 -17 -15
-9 -6 1 -8 -15 -20 -19 -16
-13 -7 3 -5 -13 -18 -17 -16
-15 -8 3 -4 -11 -16 -17 -14
-11 -9 1 -4 -12 -17 -18 -15
-10 -12 1 -4 -13 -17 -18 -15
-16 -15 3 -2 -10 -15 -15 -13
-16 -15 3 -2 -10 -15 -14 -12
-10 -12 3 -3 -10 -15 -15 -12
-4 -8 6 -2 -9 -13 -13 -12
-3 -3 6 0 -7 -11 -11 -11
-7 2 8 2 -7 -10 -10 -9
-10 3 12 5 -3 -8 -8 -7
-7 3 13 7 -2 -7 -8 -6
-5 2 12 7 -2 -8 -8 -6
-6 -2 15 11 2 -5 -5 -3
-7 -4 17 12 3 -3 -4 0
-3 -3 16 10 0 -5 -6 -3
4 0 12 7 -4 -10 -9 -6
5 1 11 6 -5 -12 -11 -8
-4 3 12 7 -4 -11 -11 -7
-13 4 13 8 -3 -9 -11 -6
-12 3 12 9 -3 -9 -11 -6
-6 5 12 11 -2 -7 -10 -5
0 9 13 13 2 -5 -7 -3
0 9 16 17 6 0 -3 3
-3 7 17 17 7 0 -2 3
-6 7 15 13 3 -4 -3 2
-6 6 12 9 0 -7 -6 -2
-3 7 10 7 0 -7 -7 -3
1 11 10 7 1 -6 -7 -2
0 14 11 8 1 -5 -6 0
-4 12 12 8 1 -4 -6 0
-3 9 8 5 -2 -6 -9 -3
2 6 6 2 -5 -9 -11 -4
3 1 4 0 -7 -11 -12 -6
1 -4 3 -2 -7 -12 -13 -6
-5 -5 3 -3 -7 -11 -12 -5
-10 -5 3 -3 -7 -11 -11 -4
-9 -5 1 -5 -10 -13 -12 -5
-5 -4 -4 -10 -14 -18 -17 -9
-4 -3 -5 -13 -17 -20 -20 -12
-8 -5 -3 -12 -16 -19 -20 -12
-14 -10 -2 -11 -17 -19 -21 -14
-17 -16 -3 -14 -19 -22 -23 -16
-17 -19 -3 -14 -19 -22 -23 -18
-12 -18 -2 -12 -17 -20 -21 -16
-11 -17 -3 -13 -18 -21 -23 -16
-16 -17 -3 -13 -19 -20 -24 -16
-18 -17 -4 -15 -20 -22 -25 -18
-15 -14 -7 -17 -21 -24 -26 -20
-13 -15 -9 -19 -24 -27 -27 -21
-17 -16 -7 -18 -23 -26 -26 -18
-21 -17 -5 -16 -22 -24 -25 -18
-19 -17 -6 -16 -22 -25 -25 -19
-15 -19 -5 -15 -22 -27 -26 -19
-10 -20 -5 -16 -23 -27 -27 -20
-10 -20 -4 -16 -22 -26 -27 -20
-16 -20 -3 -15 -21 -25 -26 -19
-22 -18 -2 -13 -19 -23 -24 -17
-22 -15 -4 -15 -21 -24 -24 -17
-17 -15 -5 -16 -22 -24 -24 -17
-17 -16 -5 -17 -22 -25 -24 -18
-20 -17 -4 -17 -21 -24 -24 -18
-19 -19 -5 -18 -23 -25 -25 -19
-17 -23 -6 -17 -23 -25 -25 -19
-20 -24 -5 -15 -20 -23 -24 -19
-24 -24 -3 -14 -18 -23 -23 -17
-23 -22 -5 -15 -21 -25 -25 -19
-21 -21 -5 -16 -23 -27 -27 -22
-22 -20 -3 -15 -24 -29 -30 -25
-19 -23 0 -13 -25 -33 -36 -30
-10 -28 3 -7 -25 -35 -40 -35
-3 -28 8 4 -21 -33 -39 -36
2 -22 18 21 -7 -24 -30 -28
9 -10 31 48 17 -3 -13 -13
21 10 40 73 45 22 8 7
39 31 45 96 74 49 31 27
58 55 50 120 110 84 63 55
76 92 52 141 147 125 103 91
89 141 55 154 181 168 149 138
88 192 57 157 209 209 196 188
79 235 56 153 229 243 239 235
78 268 45 136 239 269 271 271
84 292 26 107 240 286 294 297
78 302 13 77 234 292 305 309
56 285 3 48 207 270 287 292
27 247 -5 13 163 226 247 253
9 204 -20 -31 109 172 199 206
1 161 -41 -80 49 110 144 154
-16 110 -52 -119 -12 43 79 93
-44 54 -53 -143 -66 -23 14 29
-71 6 -52 -154 -109 -73 -38 -20
-85 -20 -49 -152 -123 -95 -64 -44
-78 -28 -47 -137 -112 -88 -63 -46
-65 -33 -41 -114 -92 -72 -53 -37
-57 -36 -36 -95 -77 -63 -47 -34
-48 -37 -30 -77 -64 -54 -43 -31
-35 -34 -26 -59 -49 -44 -36 -27
-25 -28 -22 -44 -36 -34 -29 -21
-18 -22 -16 -34 -30 -29 -25 -19
-14 -20 -12 -28 -26 -27 -24 -19
-15 -20 -8 -22 -22 -25 -22 -19
-20 -22 -6 -18 -20 -23 -20 -17
-21 -25 -4 -16 -18 -21 -19 -15
-18 -30 -3 -15 -18 -21 -20 -16
-17 -32 -2 -12 -17 -20 -19 -15
-18 -31 0 -11 -17 -20 -19 -15
-19 -30 -3 -13 -18 -21 -20 -16
-19 -28 -4 -13 -19 -22 -22 -19
-20 -24 -5 -14 -20 -23 -22 -19
-21 -24 -5 -17 -22 -25 -24 -20
-19 -25 -3 -16 -21 -26 -24 -21
-18 -24 0 -13 -19 -23 -23 -20
-18 -26 3 -9 -16 -21 -21 -17
-16 -31 2 -9 -16 -21 -21 -18
-10 -32 0 -9 -17 -21 -22 -19
-10 -29 0 -9 -15 -19 -20 -17
-14 -27 2 -7 -14 -18 -17 -15
-14 -26 2 -7 -14 -19 -18 -16
-14 -22 1 -8 -15 -20 -19 -17
-17 -21 3 -7 -14 -19 -18 -15
-19 -23 4 -5 -13 -19 -19 -15
-17 -24 5 -3 -11 -17 -18 -15
-13 -24 5 -3 -10 -16 -17 -14
-12 -25 5 0 -9 -15 -16 -13
-11 -26 5 0 -8 -15 -16 -12
-11 -24 4 -2 -8 -14 -15 -11
-10 -22 4 0 -7 -12 -13 -10
-10 -19 2 -2 -8 -14 -14 -11
-10 -15 -2 -4 -11 -16 -15 -13
-10 -13 0 -4 -11 -16 -14 -13
-10 -15 1 -3 -11 -16 -14 -14
-7 -14 2 -2 -11 -17 -15 -13
-3 -15 2 -2 -10 -16 -14 -10
-3 -17 4 2 -7 -13 -12 -7
-3 -20 4 3 -4 -11 -11 -8
-3 -19 1 1 -5 -11 -13 -10
-7 -17 3 3 -4 -9 -10 -7
-13 -16 5 6 1 -7 -6 -3
-13 -14 4 4 -2 -8 -6 -4
-11 -13 2 2 -4 -9 -7 -4
-8 -12 3 4 -3 -7 -6 -3
-6 -11 4 7 1 -5 -5 0
-4 -13 4 8 2 -4 -4 1
-3 -15 4 9 2 -4 -3 2
1 -15 5 10 3 -2 0 1
1 -14 4 9 5 1 0 1
-4 -13 4 9 6 0 -2 0
-2 -9 3 8 5 -2 -4 -2
6 -2 2 7 5 -2 -3 -2
8 3 3 8 7 1 1 1
6 2 2 9 7 2 1 1
6 0 2 9 7 2 1 0
9 -3 2 10 8 3 2 2
12 -4 4 13 10 6 4 6
13 -6 4 14 12 7 6 7
10 -5 5 15 14 10 8 8
7 -2 6 16 15 12 11 10
10 3 3 13 13 9 9 9
14 6 0 11 12 8 7 8
12 7 -2 12 12 9 8 9
8 8 1 14 14 11 11 11
9 9 2 15 16 12 12 12
13 9 0 14 16 12 12 12
15 6 2 17 19 15 15 15
19 5 1 18 20 17 16 15
22 7 -2 17 20 17 16 16
22 10 -2 16 21 18 18 18
21 13 -3 16 22 19 20 20
19 16 -3 16 23 21 22 21
17 17 -5 14 22 20 21 21
16 17 -5 14 22 21 22 22
19 17 -5 14 23 23 24 24
26 16 -5 14 24 23 24 25
31 15 -6 13 23 24 24 26
34 16 -5 15 26 27 27 28
34 19 -4 15 27 28 29 30
28 19 -4 15 27 29 31 32
21 20 -4 15 28 29 32 33
24 23 -7 13 26 27 31 31
31 25 -11 9 23 25 28 28
33 24 -13 7 20 23 26 27
34 22 -15 5 19 21 25 26
37 19 -15 4 19 22 25 26
37 17 -13 5 19 24 27 28
31 17 -11 6 21 26 29 30
27 17 -10 6 21 26 30 31
26 16 -9 6 21 26 30 31
26 17 -11 3 18 23 28 29
26 20 -14 0 15 19 25 27
25 22 -15 -4 13 17 23 25
22 20 -15 -3 13 17 23 26
23 19 -15 -2 13 17 22 25
27 17 -16 -4 11 15 20 22
28 12 -16 -4 10 14 20 22
27 9 -12 -2 11 16 21 23
26 11 -11 -2 12 17 20 22
26 14 -11 -3 11 14 18 19
23 14 -12 -4 8 12 15 17
22 14 -14 -6 5 8 11 14
21 13 -13 -6 3 6 10 11
18 12 -11 -3 4 6 10 10
12 9 -8 0 4 6 9 9
10 4 -6 1 4 5 7 7
11 -3 -4 4 5 5 5 6
11 -5 -4 4 4 3 3 4
9 -5 -2 5 4 2 4 4
8 -5 -2 5 3 0 3 3
6 -4 -3 5 1 -3 0 1
1 -3 -4 4 -2 -6 -5 -2
-2 -3 -2 3 -3 -7 -6 -4
0 -5 -2 3 -4 -9 -7 -7
-3 -7 0 3 -4 -10 -7 -9
-9 -10 2 5 -4 -8 -6 -9
-12 -14 5 8 -2 -7 -6 -7
-10 -18 4 7 -4 -8 -8 -9
-6 -19 2 3 -6 -11 -12 -12
-3 -17 2 2 -7 -13 -13 -13
0 -15 1 0 -10 -16 -16 -15
-5 -13 1 -2 -11 -17 -16 -15
-12 -14 2 -2 -10 -16 -15 -14
-11 -16 3 -2 -10 -17 -16 -15
-5 -17 2 -4 -13 -19 -19 -17
-5 -18 1 -4 -13 -19 -19 -17
-10 -23 3 1 -11 -16 -17 -15
-11 -24 4 1 -11 -15 -16 -14
-10 -22 4 0 -12 -15 -16 -15
-13 -22 2 -4 -14 -18 -19 -18
-18 -21 1 -4 -15 -19 -19 -17
-20 -17 1 -4 -14 -18 -18 -16
-18 -15 0 -4 -14 -18 -19 -18
-16 -16 1 -4 -13 -19 -20 -19
-15 -17 2 -4 -13 -19 -20 -18
-15 -18 2 -4 -14 -19 -19 -17
-16 -22 3 -3 -13 -18 -18 -16
-15 -24 2 -3 -13 -18 -18 -16
-15 -25 1 -3 -13 -17 -17 -16
-17 -24 1 -4 -15 -18 -18 -17
-14 -19 0 -6 -15 -18 -20 -18
-6 -15 -4 -10 -17 -21 -22 -19
-3 -15 -5 -11 -19 -23 -23 -20
-11 -17 -3 -7 -16 -21 -20 -19
-20 -16 0 -3 -12 -18 -17 -16
-18 -17 0 -2 -11 -17 -16 -14
-12 -21 -2 -2 -12 -17 -17 -16
-8 -23 -4 -4 -15 -19 -19 -18
-10 -20 0 -3 -13 -18 -18 -17
-12 -17 4 1 -10 -15 -16 -15
-12 -15 3 0 -12 -17 -18 -15
-13 -14 0 -5 -14 -18 -20 -16
-15 -14 1 -5 -13 -17 -19 -15
-11 -14 0 -5 -15 -19 -21 -16
-8 -16 0 -4 -15 -19 -21 -16
-10 -17 2 -3 -14 -19 -19 -14
-11 -18 4 0 -12 -16 -17 -12
-11 -20 2 -2 -12 -16 -17 -13
-12 -21 2 -2 -11 -15 -16 -13
-10 -18 2 0 -11 -15 -16 -12
-6 -15 2 -2 -11 -14 -17 -12
-6 -12 -2 -5 -13 -16 -18 -14
-7 -10 -2 -6 -14 -17 -18 -14
-9 -9 0 -4 -13 -16 -18 -14
-13 -11 2 -2 -10 -14 -16 -11
-15 -14 3 1 -9 -13 -14 -10
-13 -17 2 0 -9 -13 -14 -11
-13 -18 2 0 -10 -14 -15 -12
-12 -17 3 0 -9 -14 -14 -12
-8 -16 2 -3 -11 -16 -16 -14
-9 -15 1 -4 -12 -17 -18 -16
-17 -11 2 -3 -11 -17 -18 -15
-18 -9 2 -2 -11 -16 -17 -12
-14 -10 1 -3 -11 -17 -18 -13
-12 -11 0 -2 -11 -18 -19 -14
-13 -13 2 0 -10 -17 -18 -13
-10 -17 3 1 -10 -16 -17 -13
-5 -18 3 0 -11 -16 -17 -13
-7 -15 2 -2 -11 -16 -18 -12
-10 -13 2 -2 -10 -14 -17 -10
-8 -12 0 -3 -12 -16 -18 -12
-6 -9 -3 -4 -14 -18 -17 -13
-4 -7 0 -2 -12 -17 -16 -11
-3 -6 2 1 -10 -16 -16 -11
-2 -5 4 2 -9 -15 -16 -11
-3 -5 8 6 -6 -12 -13 -8
-8 -7 12 9 -3 -9 -11 -5
-10 -8 14 11 -2 -8 -10 -6
-5 -6 14 9 -2 -8 -10 -8
-2 -4 13 8 -3 -9 -11 -7
-5 -2 12 8 -3 -9 -13 -7
-11 0 12 8 -3 -9 -13 -8
-8 1 10 6 -5 -11 -14 -10
-2 2 7 4 -7 -13 -16 -12
1 1 7 5 -6 -11 -15 -10
0 -2 9 8 -4 -9 -11 -6
-2 -2 12 13 1 -6 -7 -2
-2 2 14 18 5 -2 -4 2
-2 6 15 19 9 2 0 5
1 10 14 18 8 2 0 5
2 13 13 16 6 1 -2 5
2 14 10 11 0 -5 -6 0
1 12 8 7 -4 -8 -9 -3
2 11 8 7 -4 -8 -10 -3
4 11 10 10 0 -6 -8 -2
3 9 10 11 1 -6 -7 1
-2 4 9 10 -2 -7 -7 2
-6 2 7 8 -3 -8 -8 1
-5 1 6 5 -4 -8 -9 0
-2 1 3 3 -6 -10 -11 -4
-2 1 0 -2 -8 -13 -14 -7
-3 1 -4 -6 -11 -16 -17 -9
0 1 -6 -8 -14 -17 -17 -11
2 0 -7 -8 -15 -18 -17 -11
-2 -3 -5 -7 -14 -17 -18 -11
-2 -6 -4 -7 -14 -17 -17 -11
2 -9 -4 -8 -15 -18 -18 -12
-3 -13 -5 -9 -16 -19 -20 -14
-10 -14 -5 -10 -17 -20 -21 -15
-14 -14 -5 -12 -19 -21 -23 -15
-11 -13 -6 -13 -20 -23 -24 -17
-8 -10 -8 -15 -22 -25 -26 -18
-11 -11 -7 -16 -23 -26 -26 -19
-16 -15 -6 -15 -23 -25 -26 -20
-17 -17 -6 -15 -22 -25 -27 -21
-17 -18 -7 -16 -24 -26 -26 -22
-19 -23 -6 -15 -24 -26 -24 -18
-22 -27 -6 -13 -22 -24 -23 -15
-22 -26 -8 -15 -23 -25 -24 -18
-17 -22 -9 -16 -23 -26 -25 -20
-12 -17 -9 -17 -24 -27 -25 -20
-11 -15 -10 -19 -26 -28 -27 -19
-13 -13 -9 -17 -25 -27 -26 -18
-16 -13 -7 -14 -23 -24 -24 -17
-17 -14 -7 -13 -23 -24 -24 -17
-17 -18 -6 -13 -22 -24 -24 -16
-14 -22 -6 -13 -22 -24 -25 -17
-16 -24 -5 -12 -20 -22 -23 -16
-20 -24 -4 -12 -19 -21 -21 -13
-23 -22 -3 -11 -19 -20 -20 -12
-20 -19 -5 -12 -21 -22 -22 -15
-19 -17 -7 -14 -22 -23 -24 -17
-20 -17 -8 -14 -23 -24 -24 -17
-19 -17 -10 -15 -25 -27 -26 -19
-15 -21 -10 -15 -27 -30 -30 -24
-11 -27 -6 -11 -28 -33 -36 -30
-8 -32 3 -2 -24 -34 -39 -33
-5 -30 13 14 -15 -29 -36 -31
2 -18 24 33 3 -15 -23 -21
10 0 34 56 25 6 -6 -4
24 21 40 80 53 30 15 17
49 45 40 100 81 56 37 37
72 73 42 122 116 92 71 67
89 110 46 143 155 137 114 110
93 156 52 156 189 182 162 159
90 204 55 160 214 222 212 211
87 242 51 154 230 252 251 252
91 269 36 136 237 273 277 281
93 287 19 106 235 283 294 302
81 290 4 73 218 275 293 302
58 270 -5 44 185 246 268 278
32 235 -18 5 138 199 224 236
13 193 -38 -45 81 146 176 191
-6 142 -53 -88 24 86 119 140
-24 84 -58 -119 -32 21 57 78
-48 28 -57 -140 -82 -39 -4 21
-69 -15 -57 -152 -119 -83 -49 -21
-80 -35 -52 -144 -122 -94 -64 -38
-74 -37 -47 -121 -103 -80 -56 -35
-62 -35 -43 -102 -86 -67 -47 -32
-51 -34 -39 -88 -75 -62 -46 -35
-40 -31 -35 -72 -64 -54 -43 -35
-32 -27 -30 -54 -49 -43 -33 -28
-26 -26 -23 -36 -35 -32 -24 -20
-21 -24 -17 -27 -28 -28 -22 -17
-17 -24 -13 -20 -23 -24 -20 -17
-18 -27 -10 -15 -21 -22 -19 -17
-21 -29 -6 -11 -18 -19 -18 -17
-19 -29 -6 -12 -18 -20 -19 -17
-17 -29 -5 -12 -19 -20 -19 -15
-16 -28 -6 -13 -20 -22 -21 -16
-17 -24 -5 -13 -20 -23 -22 -18
-19 -23 -4 -13 -20 -23 -22 -19
-22 -25 -4 -13 -21 -22 -20 -18
-23 -27 -4 -13 -21 -22 -20 -17
-20 -29 -3 -11 -21 -21 -19 -17
-17 -33 0 -10 -19 -20 -19 -16
-17 -34 0 -10 -18 -20 -18 -15
-19 -31 0 -7 -16 -18 -17 -14
-22 -29 1 -5 -15 -17 -16 -13
-23 -27 1 -5 -14 -17 -16 -14
-19 -25 -3 -8 -15 -17 -18 -16
-17 -23 -3 -8 -15 -17 -16 -16
-17 -23 -3 -7 -14 -16 -14 -14
-15 -23 -3 -7 -14 -17 -15 -15
-13 -24 -3 -6 -15 -16 -15 -14
-16 -26 1 -4 -13 -14 -14 -12
-17 -27 4 -2 -10 -12 -11 -10
-16 -27 4 0 -8 -11 -10 -9
-16 -27 2 -2 -9 -12 -12 -9
-15 -26 0 -4 -11 -13 -15 -10
-13 -21 0 -4 -12 -14 -15 -11
-13 -18 1 -3 -11 -13 -15 -10
-14 -17 1 -2 -10 -12 -13 -8
-10 -17 0 -2 -10 -12 -12 -8
-6 -18 0 -2 -10 -11 -12 -8
-8 -22 2 1 -7 -9 -10 -6
-13 -23 2 2 -5 -9 -9 -5
-14 -22 3 3 -5 -9 -9 -5
-12 -21 4 4 -4 -8 -8 -3
-12 -18 4 5 -4 -8 -7 -2
-14 -15 4 5 -4 -7 -6 0
-16 -15 3 5 -5 -6 -6 0
-14 -15 2 5 -4 -6 -6 0
-8 -14 0 3 -6 -8 -7 -3
-3 -14 0 3 -6 -7 -7 -3
-3 -16 -2 3 -6 -7 -8 -3
-5 -17 -2 4 -4 -6 -8 -3
-4 -17 0 5 -2 -4 -6 0
0 -14 2 6 1 -3 -4 2
2 -10 2 7 2 -3 -2 2
3 -6 1 6 1 -5 -4 1
5 -6 -2 4 -3 -5 -5 -2
7 -7 -4 2 -3 -5 -6 -2
5 -5 0 7 3 -2 -2 2
-2 -3 4 13 8 4 4 8
-2 -7 5 13 9 5 4 9
1 -10 3 12 8 4 2 9
2 -9 4 13 10 7 3 9
1 -6 5 14 11 8 4 10
3 -2 2 13 10 7 4 11
5 2 -2 11 9 5 4 11
6 4 -2 10 8 5 4 10
9 6 0 12 10 8 6 11
15 8 -2 12 11 8 7 12
16 7 0 13 12 9 8 14
13 4 3 15 14 12 11 17
10 3 4 17 17 16 15 21
10 5 4 17 19 19 17 22
15 6 1 15 18 17 15 20
20 8 -4 13 17 15 14 19
23 13 -5 12 16 16 14 20
23 17 -5 11 16 16 14 19
22 17 -4 13 18 19 17 21
25 19 -5 13 18 19 18 22
26 19 -5 14 19 21 21 24
23 15 -3 16 22 23 23 27
24 14 -4 15 22 23 24 29
28 15 -5 14 22 23 25 30
32 17 -6 13 22 23 25 31
32 20 -8 12 22 24 25 31
29 23 -8 11 22 25 25 31
26 24 -8 11 22 26 26 32
27 25 -9 10 20 24 25 32
30 27 -11 8 20 25 26 32
32 24 -11 7 20 26 27 32
31 19 -9 8 21 25 27 34
29 18 -9 9 22 26 28 35
29 20 -10 8 22 26 28 35
30 21 -11 7 21 25 28 35
32 22 -13 5 18 22 27 33
35 24 -14 2 15 20 24 31
35 26 -15 0 13 18 22 31
35 24 -15 -2 13 17 22 32
33 21 -15 -2 13 18 22 31
31 19 -15 -3 11 18 21 31
29 17 -14 -3 10 17 23 32
29 16 -14 -3 10 17 24 33
29 14 -15 -4 9 16 21 30
26 14 -16 -5 8 14 18 28
23 17 -16 -5 8 12 17 27
23 19 -14 -5 7 12 17 25
24 19 -13 -7 5 10 13 21
26 16 -12 -5 5 9 11 21
26 13 -11 -5 3 8 10 19
20 7 -10 -4 3 6 9 18
14 1 -9 -3 3 5 8 18
15 1 -8 0 3 4 6 16
17 4 -4 4 6 7 8 16
15 4 -3 5 6 6 8 15
14 4 -4 3 3 3 4 10
16 6 -7 -2 -3 -3 -2 2
13 5 -5 1 -3 -3 -4 1
2 2 -3 3 -2 -4 -3 0
-7 -3 1 4 0 -4 -3 -3
-2 -5 1 3 -3 -5 -6 -7
4 -8 2 4 -3 -6 -6 -9
4 -9 2 4 -3 -6 -7 -12
1 -10 2 4 -4 -7 -8 -14
-3 -11 3 4 -5 -7 -9 -15
-8 -11 3 3 -6 -9 -11 -14
-10 -10 2 2 -6 -9 -11 -14
-7 -9 0 -2 -9 -11 -13 -16
-3 -9 0 -2 -10 -13 -15 -17
-4 -9 0 0 -11 -13 -15 -17
-5 -12 2 1 -10 -12 -14 -16
-7 -15 3 1 -10 -14 -15 -16
-11 -17 4 1 -9 -13 -15 -16
-14 -17 5 1 -10 -12 -16 -17
-14 -17 5 -2 -11 -14 -15 -18
-12 -15 3 -3 -12 -16 -17 -20
-13 -12 1 -5 -14 -17 -20 -22
-14 -13 0 -6 -14 -17 -20 -21
-14 -13 -2 -8 -15 -18 -20 -21
-13 -12 1 -7 -13 -17 -19 -22
-10 -12 3 -5 -12 -15 -19 -20
-6 -16 2 -5 -14 -17 -21 -20
-8 -19 1 -6 -14 -18 -20 -21
-10 -19 1 -6 -13 -17 -19 -22
-9 -17 1 -5 -13 -17 -20 -21
-7 -15 0 -6 -14 -18 -22 -24
-9 -11 0 -6 -13 -18 -21 -24
-12 -9 -2 -7 -14 -17 -20 -22
-14 -9 -2 -6 -13 -16 -18 -18
-15 -10 -4 -7 -14 -17 -18 -19
-14 -14 -4 -7 -14 -16 -18 -21
-10 -17 -3 -7 -13 -16 -17 -21
-9 -17 0 -6 -12 -15 -16 -19
-11 -16 2 -4 -11 -14 -16 -18
-12 -15 3 -4 -10 -14 -16 -18
-12 -13 2 -5 -11 -15 -16 -19
-11 -9 1 -5 -12 -16 -17 -19
-9 -8 0 -5 -12 -16 -17 -19
-6 -8 -3 -7 -14 -18 -18 -21
-7 -9 -4 -8 -15 -18 -18 -22
-15 -12 0 -5 -12 -15 -15 -17
-17 -17 1 -4 -10 -13 -15 -15
-11 -17 0 -6 -12 -15 -16 -17
-6 -15 0 -6 -12 -15 -17 -19
-9 -11 2 -3 -11 -14 -17 -18
-10 -11 1 -3 -11 -15 -16 -18
-11 -10 0 -4 -12 -16 -17 -18
-14 -9 1 -4 -12 -16 -17 -18
-17 -10 1 -4 -12 -16 -17 -18
-17 -12 1 -4 -10 -16 -17 -18
-13 -13 1 -4 -10 -16 -18 -19
-9 -15 1 -4 -11 -17 -19 -19
-7 -15 1 -3 -11 -16 -17 -16
-6 -13 3 -2 -9 -14 -14 -14
-2 -12 2 -3 -10 -14 -15 -16
-2 -11 -2 -5 -12 -17 -18 -19
-9 -7 0 -4 -11 -15 -16 -18
-13 -3 1 -3 -11 -15 -14 -16
-12 -4 2 -3 -11 -16 -14 -16
-11 -7 2 -3 -11 -16 -15 -16
-11 -10 2 -4 -11 -15 -15 -16
-10 -14 3 -2 -10 -14 -15 -15
-11 -15 5 1 -8 -13 -15 -15
-13 -14 5 0 -7 -12 -15 -14
-12 -13 5 0 -9 -12 -15 -14
-12 -11 5 0 -9 -12 -14 -14
-12 -10 4 -2 -10 -14 -15 -17
-9 -10 3 -4 -11 -16 -17 -18
-10 -11 3 -2 -10 -16 -16 -17
-11 -12 3 -2 -8 -15 -16 -16
-8 -14 1 -4 -10 -16 -17 -17
-6 -16 1 -4 -11 -16 -17 -17
-5 -15 4 1 -9 -12 -14 -15
-2 -12 6 3 -5 -10 -12 -13
1 -8 8 5 -4 -8 -11 -10
-2 -3 8 6 -4 -9 -11 -9
-5 3 8 5 -5 -11 -12 -12
-5 4 9 6 -4 -11 -11 -11
-5 4 12 9 -2 -8 -9 -9
-5 5 13 8 -2 -8 -10 -8
-6 2 14 9 -2 -8 -9 -8
-6 -3 14 9 0 -9 -9 -7
-3 0 15 10 1 -8 -8 -7
1 1 15 11 2 -6 -7 -6
0 0 14 11 3 -5 -7 -7
0 2 11 9 1 -7 -9 -8
2 6 10 9 1 -6 -8 -7
5 10 11 10 2 -5 -6 -5
6 13 12 14 5 -3 -4 -2
5 13 14 17 8 1 0 3
3 10 13 16 6 0 0 3
2 8 14 15 4 -3 1 2
5 9 15 14 3 -3 0 2
7 10 13 12 2 -3 -4 1
7 9 11 10 1 -4 -6 0
6 11 10 10 1 -4 -5 -2
8 13 8 7 0 -5 -6 -4
11 11 3 1 -5 -9 -9 -7
10 9 1 0 -7 -11 -11 -8
3 8 2 1 -6 -10 -10 -7
-4 4 3 1 -6 -9 -9 -5
-4 -3 2 0 -7 -11 -9 -5
-3 -7 2 -3 -8 -12 -10 -5
-4 -8 2 -4 -9 -13 -10 -6
0 -7 0 -6 -11 -15 -12 -7
4 -4 -5 -9 -15 -20 -17 -10
1 -3 -5 -9 -16 -21 -19 -13
-6 -5 -4 -11 -17 -21 -19 -14
-9 -7 -5 -12 -20 -23 -22 -15
-11 -9 -3 -12 -19 -22 -22 -15
-13 -12 -2 -12 -18 -22 -22 -15
-13 -16 0 -11 -17 -21 -21 -15
-13 -17 -2 -11 -18 -23 -22 -16
-14 -17 -2 -12 -18 -23 -23 -17
-14 -16 -3 -12 -18 -23 -22 -18
-16 -15 -4 -13 -20 -25 -23 -19
-20 -15 -5 -15 -21 -25 -23 -20
-22 -14 -6 -16 -23 -26 -25 -22
-18 -14 -7 -16 -24 -26 -26 -20
-12 -14 -8 -17 -25 -27 -27 -20
-9 -16 -7 -17 -25 -28 -27 -20
-12 -19 -4 -14 -23 -26 -26 -19
-17 -20 0 -12 -19 -23 -24 -18
-18 -18 -2 -13 -19 -24 -25 -18
-17 -17 -3 -14 -20 -24 -24 -17
-18 -17 -4 -14 -21 -25 -25 -18
-20 -15 -4 -13 -20 -24 -24 -18
-17 -13 -4 -13 -20 -25 -24 -18
-15 -14 -5 -14 -21 -26 -24 -19
-16 -17 -5 -15 -22 -25 -25 -20
-17 -19 -6 -16 -22 -26 -25 -21
-17 -22 -5 -14 -21 -25 -24 -19
-18 -23 -3 -12 -19 -23 -22 -17
-18 -21 -2 -11 -18 -24 -23 -17
-16 -19 -2 -11 -20 -25 -26 -20
-14 -20 0 -10 -22 -29 -32 -27
-15 -24 2 -8 -22 -34 -38 -33
-13 -26 9 3 -18 -32 -38 -34
-4 -20 18 17 -8 -25 -31 -28
7 -8 28 34 9 -10 -19 -17
18 7 35 55 30 10 -2 -2
38 21 39 75 55 33 18 16
66 39 39 96 86 62 43 37
90 70 40 117 121 100 78 71
104 113 47 138 159 144 125 117
107 164 52 148 188 184 172 167
102 212 52 148 206 217 214 213
103 246 42 139 218 241 246 250
109 270 25 119 220 256 269 274
107 283 11 93 214 261 279 286
91 273 3 65 193 246 271 279
67 241 -3 34 158 213 240 251
44 203 -13 -3 114 169 201 216
22 162 -30 -50 61 117 154 173
2 113 -45 -92 4 58 96 116
-23 61 -49 -120 -50 -5 31 54
-52 16 -51 -142 -97 -61 -25 -3
-77 -16 -49 -149 -122 -94 -59 -35
-83 -27 -44 -139 -118 -95 -66 -47
-69 -28 -41 -120 -102 -83 -62 -46
-57 -30 -39 -103 -87 -73 -57 -45
-54 -34 -34 -87 -74 -65 -52 -46
-46 -32 -29 -68 -60 -55 -45 -40
-34 -26 -24 -52 -46 -44 -36 -33
-28 -21 -17 -35 -32 -33 -28 -26
-22 -17 -12 -27 -25 -28 -26 -25
-15 -11 -9 -23 -23 -26 -25 -24
-12 -9 -8 -20 -21 -26 -25 -26
-16 -10 -6 -18 -20 -25 -24 -26
-18 -12 -6 -18 -22 -26 -25 -26
-19 -14 -4 -16 -21 -25 -25 -26
-19 -18 -3 -14 -20 -24 -24 -26
-18 -20 -4 -14 -20 -24 -24 -26
-17 -19 -5 -14 -21 -25 -25 -26
-15 -17 -3 -12 -18 -23 -23 -24
-16 -14 -2 -13 -17 -24 -22 -23
-15 -11 -3 -14 -20 -25 -24 -25
-15 -12 -3 -14 -21 -25 -26 -26
-17 -14 -2 -13 -20 -24 -25 -26
-16 -14 0 -12 -19 -24 -25 -25
-11 -15 0 -11 -19 -24 -26 -26
-11 -18 0 -9 -17 -23 -24 -24
-15 -19 1 -7 -15 -21 -22 -22
-18 -18 2 -7 -14 -20 -22 -22
-17 -16 3 -6 -12 -19 -21 -21
-15 -12 2 -7 -12 -20 -20 -22
-12 -9 2 -7 -13 -19 -20 -21
-12 -9 2 -7 -13 -18 -20 -20
-9 -10 0 -8 -14 -20 -22 -23
-6 -11 1 -7 -13 -19 -21 -23
-8 -12 3 -5 -11 -16 -19 -21
-11 -13 5 -2 -9 -14 -17 -18
-9 -12 5 -3 -9 -14 -15 -17
-7 -11 3 -3 -9 -14 -15 -17
-11 -10 4 -2 -7 -13 -14 -16
-15 -9 4 0 -6 -12 -13 -15
-13 -8 1 -5 -10 -14 -17 -18
-9 -8 -2 -6 -11 -15 -18 -19
-7 -6 -2 -5 -10 -15 -16 -18
-7 -5 1 -3 -7 -14 -14 -15
-7 -7 1 0 -6 -11 -14 -13
-5 -10 2 2 -4 -9 -13 -13
-3 -9 3 2 -4 -9 -11 -12
-2 -7 2 1 -5 -10 -10 -13
-2 -6 1 0 -5 -9 -10 -13
-4 -3 1 -2 -5 -9 -10 -13
-5 1 1 0 -5 -8 -10 -11
-4 1 0 0 -5 -10 -11 -12
-3 0 0 0 -4 -9 -10 -12
0 2 1 2 -2 -7 -9 -10
3 1 2 3 0 -5 -7 -9
4 -5 2 4 2 -3 -6 -7
3 -6 1 3 1 -4 -7 -8
5 -3 2 4 2 -3 -5 -6
6 1 2 4 2 -3 -4 -6
5 4 2 4 3 0 -2 -4
6 7 -2 3 2 -3 -3 -5
7 9 -3 3 1 -4 -4 -6
3 8 0 6 4 0 -2 -5
2 8 2 9 7 3 1 -3
6 9 2 10 8 5 3 0
9 7 0 9 8 5 1 -2
9 6 0 9 9 7 3 0
10 7 -2 9 9 7 5 2
12 9 -2 9 10 8 7 4
14 14 -3 7 9 7 6 4
16 19 -4 7 9 7 6 5
18 20 -5 7 10 7 7 6
20 20 -5 8 11 8 9 7
21 21 -4 10 15 11 12 10
22 20 -3 11 16 14 13 12
22 17 0 12 18 16 15 13
26 16 -2 12 18 17 16 13
30 19 -4 10 17 16 15 13
33 21 -6 10 17 17 16 14
31 24 -7 9 17 17 17 13
28 28 -7 9 17 18 18 16
27 28 -8 10 18 19 19 18
30 28 -9 9 19 19 19 18
34 29 -9 9 19 20 20 18
35 28 -9 9 20 22 22 20
35 24 -9 9 22 24 23 21
33 22 -10 8 20 24 24 22
30 23 -11 8 20 23 25 22
28 26 -11 8 21 24 26 22
31 31 -11 6 20 23 25 22
36 36 -12 4 18 22 24 24
38 35 -14 1 15 20 22 22
38 32 -16 -3 13 18 21 20
35 30 -15 -3 13 18 22 21
32 27 -14 -2 13 18 23 22
35 24 -15 -2 13 18 22 21
40 24 -16 -3 12 17 21 19
38 26 -15 -3 12 18 23 21
35 28 -14 -2 14 20 24 25
32 31 -15 -4 13 18 23 24
32 33 -18 -7 9 15 20 21
33 32 -20 -8 8 14 18 19
33 30 -19 -8 8 14 18 19
30 27 -17 -7 9 14 18 20
30 23 -16 -7 8 12 17 18
30 19 -16 -8 7 11 14 15
28 17 -15 -7 7 11 13 14
27 16 -16 -9 5 8 11 12
25 15 -15 -7 5 9 12 12
22 17 -13 -5 6 9 12 13
21 19 -13 -6 3 7 10 11
20 18 -13 -5 2 6 7 7
19 15 -12 -5 1 4 4 3
18 11 -11 -3 1 3 3 1
15 8 -8 -2 1 2 3 1
11 4 -4 2 2 3 4 2
10 2 -3 2 2 1 2 0
10 1 -3 1 0 -3 -2 -4
8 0 -3 0 -2 -4 -4 -5
6 -2 -4 -2 -3 -6 -5 -7
6 1 -6 -4 -5 -9 -9 -10
6 3 -6 -4 -6 -9 -12 -12
-2 1 -2 0 -4 -7 -9 -10
-11 -2 1 2 -3 -6 -7 -9
-12 -5 2 2 -3 -7 -8 -9
-6 -8 0 1 -6 -8 -11 -13
-2 -9 1 1 -6 -9 -11 -14
0 -7 2 1 -6 -9 -11 -13
-5 -8 2 0 -7 -11 -12 -13
-9 -9 2 0 -8 -12 -13 -13
-10 -7 1 -2 -9 -13 -14 -14
-8 -7 -2 -4 -10 -14 -16 -16
-6 -9 -2 -5 -11 -15 -17 -18
-8 -12 0 -4 -10 -13 -16 -18
-10 -14 1 -3 -10 -13 -16 -17
-12 -16 2 -2 -9 -12 -15 -16
-13 -15 3 -2 -9 -11 -14 -15
-13 -14 3 -3 -10 -13 -15 -15
-12 -14 2 -5 -11 -15 -16 -16
-12 -12 -2 -7 -13 -17 -18 -19
-15 -10 -4 -9 -14 -18 -19 -20
-17 -10 -4 -9 -16 -19 -21 -20
-14 -10 -4 -9 -17 -20 -22 -22
-10 -10 -3 -8 -17 -19 -23 -21
-9 -13 -4 -9 -16 -19 -23 -20
-11 -17 -4 -8 -14 -17 -21 -19
-14 -17 -2 -5 -12 -14 -18 -17
-16 -13 2 -4 -10 -12 -16 -14
-13 -12 0 -5 -12 -14 -16 -16
-6 -11 -4 -8 -14 -17 -20 -20
-6 -10 -7 -10 -16 -19 -22 -20
-9 -9 -6 -9 -15 -18 -20 -18
-9 -9 -6 -9 -15 -18 -19 -20
-10 -10 -5 -8 -14 -18 -20 -21
-11 -13 -3 -7 -13 -17 -19 -20
-9 -14 1 -4 -10 -14 -15 -17
-10 -12 2 -2 -9 -13 -14 -17
-15 -13 2 -2 -9 -13 -14 -16
-17 -14 0 -5 -12 -15 -15 -17
-17 -12 -3 -5 -12 -15 -15 -17
-12 -9 -5 -8 -14 -18 -17 -19
-10 -6 -4 -8 -13 -18 -18 -19
-11 -5 -2 -6 -11 -16 -18 -18
-12 -8 0 -4 -10 -15 -17 -18
-14 -12 1 -3 -8 -14 -17 -18
-12 -13 3 -2 -7 -12 -17 -17
-8 -10 3 -2 -8 -12 -17 -15
-7 -9 2 -4 -10 -14 -16 -16
-10 -9 1 -4 -11 -15 -16 -16
-13 -7 2 -3 -11 -14 -16 -16
-15 -6 1 -4 -12 -16 -17 -17
-17 -8 0 -5 -13 -18 -18 -19
-17 -10 -2 -6 -13 -18 -19 -19
-14 -12 -2 -7 -13 -18 -19 -19
-13 -14 0 -5 -13 -16 -18 -19
-12 -15 2 -2 -10 -14 -16 -16
-11 -14 2 -2 -9 -13 -16 -16
-12 -13 2 -4 -10 -14 -17 -18
-13 -12 1 -3 -11 -15 -17 -17
-13 -8 1 -2 -10 -14 -17 -15
-13 -6 0 -3 -11 -15 -17 -15
-15 -8 1 -2 -11 -16 -15 -15
-15 -7 0 -3 -11 -17 -17 -16
-12 -7 0 -4 -10 -15 -18 -16
-10 -10 2 -3 -9 -13 -16 -15
-11 -13 2 -2 -8 -12 -15 -14
-11 -14 2 -2 -9 -13 -16 -14
-12 -13 2 -3 -10 -15 -16 -14
-16 -11 3 -3 -10 -14 -17 -14
-17 -10 2 -4 -11 -14 -18 -15
-15 -9 1 -5 -12 -16 -19 -16
-14 -8 0 -7 -14 -18 -20 -17
-15 -8 1 -6 -14 -18 -19 -17
-17 -9 1 -5 -14 -18 -18 -18
-16 -12 0 -5 -14 -18 -19 -19
-13 -15 -2 -6 -13 -17 -20 -18
-10 -14 0 -5 -12 -16 -19 -16
-8 -10 3 -2 -10 -14 -16 -13
-7 -6 5 1 -7 -12 -14 -11
-5 -3 5 2 -7 -12 -13 -12
-4 1 3 0 -8 -13 -15 -14
-4 2 4 2 -8 -13 -15 -14
-7 3 7 4 -5 -11 -15 -13
-5 3 9 5 -4 -11 -14 -10
-2 3 10 7 -3 -9 -11 -7
-3 3 12 9 -2 -7 -10 -6
-6 2 12 9 0 -6 -10 -7
-9 2 13 8 -2 -7 -10 -7
-11 2 13 8 -3 -7 -10 -6
-10 4 11 8 -3 -7 -9 -6
-6 6 8 6 -4 -8 -10 -7
-4 7 6 6 -4 -8 -10 -6
-4 8 9 9 0 -5 -8 -4
0 12 12 12 3 -2 -5 -2
2 14 13 15 5 1 -2 2
2 13 15 16 6 1 -2 3
2 11 13 14 4 -2 -4 0
0 10 11 12 2 -4 -5 -3
-5 9 10 11 2 -4 -4 -2
-7 12 10 11 2 -4 -4 0
-4 14 9 10 1 -5 -6 -2
0 12 6 8 -3 -8 -7 -4
-2 9 3 5 -5 -9 -8 -4
-4 7 2 3 -6 -9 -9 -4
-7 4 1 2 -6 -10 -10 -5
-10 1 1 1 -7 -11 -11 -6
-10 0 2 1 -7 -10 -11 -5
-5 -2 -2 -3 -11 -12 -13 -8
1 -3 -6 -7 -14 -16 -17 -13
-2 -2 -8 -10 -17 -19 -17 -14
-6 0 -8 -10 -17 -19 -17 -13
-8 -2 -7 -10 -18 -20 -18 -13
-13 -5 -6 -10 -17 -20 -19 -14
-17 -9 -4 -10 -17 -21 -21 -15
-14 -12 -5 -12 -19 -23 -23 -16
-11 -15 -4 -11 -19 -24 -22 -16
-11 -15 -4 -11 -18 -23 -21 -16
-13 -15 -4 -12 -19 -24 -21 -16
-14 -15 -3 -12 -20 -23 -21 -15
-16 -13 -5 -13 -21 -24 -23 -16
-19 -11 -6 -15 -22 -25 -24 -19
-22 -13 -7 -15 -23 -26 -25 -19
-23 -16 -8 -16 -24 -27 -26 -20
-22 -17 -8 -16 -24 -28 -27 -22
-21 -17 -7 -15 -23 -26 -27 -22
-22 -18 -4 -13 -20 -23 -26 -17
-24 -17 -3 -11 -20 -23 -24 -17
-22 -14 -3 -11 -21 -24 -23 -18
-18 -14 -5 -11 -21 -24 -23 -18
-19 -14 -7 -14 -22 -25 -25 -19
-22 -12 -7 -15 -22 -25 -26 -20
-21 -11 -6 -13 -21 -24 -24 -19
-17 -11 -7 -13 -21 -24 -24 -19
-16 -13 -7 -14 -22 -25 -25 -20
-17 -17 -7 -15 -22 -25 -25 -20
-18 -18 -6 -14 -22 -25 -25 -20
-17 -17 -6 -13 -21 -25 -24 -19
-18 -16 -6 -13 -21 -24 -23 -19
-22 -14 -5 -11 -19 -22 -23 -19
-22 -10 -2 -9 -17 -21 -23 -18
-20 -11 -2 -9 -20 -26 -26 -22
-20 -17 2 -5 -21 -29 -31 -28
-19 -20 7 2 -18 -30 -35 -31
-15 -19 15 14 -9 -24 -31 -28
-6 -12 23 30 6 -11 -22 -21
8 2 31 51 26 8 -8 -8
25 19 38 72 52 31 14 13
47 39 39 92 79 57 37 33
73 66 39 110 111 91 69 61
99 107 39 127 143 130 108 98
109 156 45 140 173 170 154 146
107 201 49 144 194 203 198 194
111 237 43 138 205 228 232 234
117 263 29 123 210 244 258 262
117 275 15 103 206 253 273 278
109 268 2 74 187 241 268 275
91 242 -10 42 153 210 240 250
60 210 -16 9 115 172 207 220
31 174 -28 -33 69 128 168 183
6 130 -44 -78 12 70 112 132
-20 79 -50 -112 -41 9 49 70
-46 31 -49 -133 -86 -45 -9 15
-68 -6 -46 -142 -115 -82 -49 -25
-78 -22 -44 -140 -121 -95 -66 -47
-74 -28 -39 -122 -106 -83 -60 -47
-65 -30 -36 -104 -89 -71 -53 -43
-57 -29 -34 -91 -78 -65 -51 -43
-50 -26 -30 -76 -68 -60 -47 -44
-39 -22 -25 -58 -52 -48 -37 -38
-28 -14 -22 -43 -38 -37 -30 -34
-23 -5 -18 -33 -30 -30 -27 -30
-19 -4 -14 -26 -26 -28 -27 -27
-16 -6 -11 -21 -25 -27 -25 -26
-14 -8 -9 -19 -23 -25 -23 -26
-14 -11 -8 -18 -23 -25 -24 -27
-15 -14 -6 -16 -22 -25 -25 -28
-17 -14 -5 -16 -22 -24 -25 -28
-21 -13 -3 -14 -19 -22 -23 -25
-24 -12 -2 -14 -20 -23 -23 -25
-26 -10 -4 -14 -22 -25 -24 -27
-27 -8 -4 -15 -22 -24 -23 -27
-23 -9 -4 -15 -22 -24 -24 -28
-19 -10 -4 -16 -23 -26 -26 -30
-20 -10 -4 -13 -22 -24 -25 -29
-21 -11 1 -9 -17 -20 -20 -24
-16 -12 1 -8 -16 -20 -20 -24
-13 -13 1 -8 -15 -20 -20 -24
-16 -13 0 -10 -16 -20 -20 -25
-17 -13 -2 -12 -18 -21 -21 -25
-17 -10 -2 -11 -17 -20 -22 -25
-17 -5 -2 -10 -16 -19 -21 -24
-14 -2 -2 -10 -15 -18 -21 -23
-10 -2 -2 -9 -15 -19 -20 -24
-9 -4 0 -8 -14 -19 -20 -24
-13 -7 3 -4 -11 -15 -16 -21
-16 -10 6 0 -9 -12 -14 -19
-16 -9 5 -2 -8 -12 -14 -19
-13 -8 4 -3 -9 -13 -14 -19
-12 -7 2 -4 -10 -14 -15 -20
-14 -5 1 -5 -10 -14 -16 -20
-14 -4 -2 -5 -11 -15 -16 -21
-12 -4 -4 -7 -13 -16 -17 -22
-13 -6 -3 -6 -12 -16 -15 -19
-15 -6 0 -5 -10 -13 -13 -16
-15 -6 2 -3 -7 -10 -11 -14
-12 -7 3 -2 -6 -10 -10 -13
-6 -5 2 -2 -7 -11 -10 -14
0 -3 -2 -5 -9 -12 -12 -17
-4 -3 -2 -4 -9 -11 -11 -14
-10 1 0 -4 -8 -10 -11 -13
-13 3 0 -3 -7 -10 -9 -13
-13 3 0 -3 -6 -9 -9 -12
-12 2 0 -2 -5 -8 -9 -12
-8 1 -2 -2 -5 -8 -10 -14
-6 -2 0 -2 -4 -8 -10 -14
-7 -5 0 0 -3 -7 -8 -12
-8 -6 0 2 -3 -6 -7 -11
-5 -3 1 3 -2 -4 -6 -9
1 3 2 3 0 -4 -4 -8
4 7 0 2 0 -5 -4 -9
1 8 -2 1 0 -3 -4 -8
-4 9 0 2 1 0 -4 -7
-3 10 -2 3 2 0 -4 -6
2 10 -2 3 3 1 -3 -5
5 8 -3 3 4 1 -2 -5
3 6 2 7 7 4 3 -2
4 8 2 8 8 5 3 0
11 9 -2 6 6 4 2 -2
15 10 -5 4 5 5 1 -3
13 13 -4 4 7 6 2 -3
8 16 -2 6 9 8 4 1
6 16 -2 7 9 8 5 2
9 15 -2 8 10 8 6 3
12 14 -4 7 10 8 6 2
12 12 -3 8 13 11 8 4
12 12 -2 11 16 14 11 6
17 15 -4 11 18 17 13 8
23 18 -6 9 17 17 13 9
24 20 -8 7 14 15 13 8
25 24 -10 5 12 14 12 8
29 28 -11 3 13 15 12 11
31 28 -11 3 13 16 13 12
25 27 -8 7 16 19 18 15
17 29 -4 11 19 23 24 19
20 29 -4 11 19 23 24 20
30 26 -6 9 18 21 22 18
33 26 -8 7 17 21 21 17
30 26 -9 7 19 22 23 19
28 27 -10 6 19 22 24 20
30 31 -13 3 17 22 23 19
31 34 -12 2 17 22 23 19
33 34 -14 -2 14 20 21 17
33 31 -15 -2 13 19 19 16
31 29 -13 1 14 20 21 18
29 28 -9 3 16 23 23 22
29 26 -9 3 16 23 24 22
32 26 -12 1 14 21 22 21
33 26 -15 -3 13 19 21 20
32 26 -18 -5 10 17 20 18
33 28 -21 -8 7 14 17 15
33 30 -20 -10 7 14 16 16
31 29 -18 -10 7 14 16 17
29 26 -19 -11 5 12 16 16
26 23 -19 -11 4 12 15 14
24 20 -16 -9 6 14 17 16
28 19 -15 -8 8 15 18 17
30 19 -14 -8 8 15 18 16
28 19 -14 -9 6 13 15 13
24 18 -13 -10 4 11 13 10
22 19 -13 -10 2 9 11 9
20 20 -14 -10 1 7 9 7
19 18 -15 -10 -2 3 6 5
18 16 -16 -10 -3 1 3 2
19 16 -14 -8 -3 0 1 0
20 12 -11 -6 0 1 1 -2
16 7 -9 -4 1 1 1 -3
13 4 -8 -3 1 0 -2 -4
11 4 -7 -2 1 0 -2 -4
7 4 -6 0 0 -2 -4 -5
3 4 -6 0 -2 -4 -6 -6
5 4 -5 -3 -4 -5 -8 -7
6 4 -6 -5 -6 -7 -10 -11
5 2 -5 -5 -7 -10 -11 -13
3 1 -4 -5 -7 -11 -13 -14
3 -4 -2 -3 -6 -10 -14 -15
4 -8 0 -2 -7 -11 -15 -17
2 -11 0 -2 -7 -12 -16 -18
-3 -12 1 0 -6 -11 -16 -18
-10 -11 3 0 -5 -11 -16 -17
-15 -9 3 0 -6 -13 -16 -16
-13 -6 1 -5 -10 -15 -17 -17
-11 -6 1 -5 -11 -15 -18 -17
-9 -7 0 -6 -13 -17 -21 -20
-6 -9 -2 -6 -14 -17 -21 -20
-4 -12 -3 -6 -14 -17 -22 -20
-6 -15 -2 -5 -12 -16 -20 -20
-10 -16 0 -5 -10 -15 -19 -20
-13 -17 0 -6 -11 -15 -19 -20
-14 -17 -2 -9 -14 -17 -21 -21
-14 -14 0 -9 -15 -18 -21 -22
-12 -10 1 -10 -15 -18 -22 -23
-12 -11 2 -8 -15 -17 -22 -22
-13 -13 2 -7 -15 -18 -23 -21
-14 -14 2 -7 -15 -19 -22 -21
-14 -15 4 -5 -13 -16 -20 -19
-12 -16 3 -5 -13 -16 -20 -19
-11 -17 3 -6 -13 -17 -20 -20
-14 -17 3 -7 -13 -17 -20 -20
-16 -15 3 -5 -12 -17 -20 -19
-14 -12 2 -4 -11 -16 -20 -18
-13 -10 1 -5 -12 -16 -20 -19
-12 -10 0 -7 -14 -17 -21 -21
-12 -11 1 -7 -13 -16 -20 -20
-12 -12 1 -7 -14 -17 -21 -20
-12 -15 1 -7 -14 -17 -20 -19
-10 -17 0 -6 -13 -16 -20 -19
-9 -17 0 -5 -12 -16 -21 -19
-8 -16 0 -6 -13 -17 -22 -20
-9 -15 2 -6 -13 -17 -21 -20
-10 -12 2 -6 -13 -17 -21 -21
-12 -10 2 -6 -14 -17 -22 -20
-12 -11 2 -6 -14 -17 -22 -19
-12 -11 1 -6 -14 -17 -21 -20
-13 -11 1 -5 -13 -16 -20 -19
-15 -12 1 -4 -12 -15 -20 -18
-14 -16 2 -3 -11 -15 -19 -17
-11 -17 2 -4 -10 -15 -19 -19
-11 -15 3 -3 -9 -14 -18 -18
-11 -14 2 -3 -10 -15 -20 -19
-12 -13 -2 -6 -12 -16 -22 -21
-13 -12 -3 -9 -14 -18 -24 -22
-13 -11 -2 -8 -14 -18 -24 -21
-12 -11 2 -5 -12 -16 -21 -17
-9 -11 4 -3 -11 -15 -19 -18
-8 -12 5 -2 -11 -16 -20 -18
-10 -14 6 0 -10 -16 -20 -17
-11 -15 7 1 -9 -15 -19 -16
-6 -15 4 -2 -12 -17 -21 -19
-4 -13 2 -4 -13 -18 -22 -20
-5 -10 1 -6 -15 -19 -23 -22
-5 -8 0 -8 -16 -20 -25 -23
-6 -8 2 -8 -15 -18 -24 -22
-10 -8 2 -6 -13 -17 -22 -19
-12 -10 2 -5 -12 -17 -21 -18
-13 -14 2 -5 -13 -17 -20 -18
-13 -17 2 -3 -13 -18 -21 -19
-10 -17 1 -3 -13 -19 -21 -18
-7 -14 1 -4 -13 -18 -21 -18
-7 -12 1 -4 -13 -17 -19 -17
-8 -9 3 -4 -12 -16 -20 -17
-11 -8 3 -5 -13 -17 -22 -19
-14 -10 5 -5 -12 -17 -22 -20
-14 -12 5 -5 -13 -17 -23 -20
-13 -13 4 -4 -12 -16 -22 -18
-14 -14 4 -4 -12 -16 -21 -17
-15 -17 5 -3 -11 -16 -21 -18
-14 -18 4 -4 -12 -18 -22 -19
-12 -17 3 -4 -10 -17 -20 -18
-10 -16 5 -3 -9 -15 -18 -15
-7 -12 5 -3 -11 -16 -18 -16
-5 -7 5 -3 -10 -16 -17 -15
-6 -2 6 -2 -9 -14 -16 -13
-7 0 8 2 -7 -12 -15 -12
-6 0 10 4 -7 -12 -15 -12
-2 -3 13 7 -5 -9 -12 -10
2 -3 15 8 -4 -9 -11 -10
2 -2 15 8 -4 -9 -12 -11
4 -2 15 8 -4 -9 -12 -10
7 0 14 6 -7 -12 -14 -11
5 2 14 5 -7 -12 -14 -12
-2 4 15 5 -6 -11 -13 -11
-5 3 13 4 -6 -12 -14 -11
0 1 8 2 -8 -14 -16 -13
4 -2 8 3 -8 -14 -15 -14
6 -2 10 5 -5 -12 -14 -13
5 1 14 11 1 -6 -10 -7
3 6 18 17 6 0 -5 1
0 9 21 21 10 4 1 4
-4 10 19 18 7 2 -3 2
-5 10 17 13 3 -3 -6 -2
-3 11 14 9 1 -6 -8 -3
0 12 14 9 1 -6 -7 -3
3 12 14 10 1 -7 -6 -4
7 11 10 8 -2 -8 -9 -8
8 7 7 5 -4 -9 -11 -7
6 4 6 3 -4 -9 -11 -7
2 2 5 3 -4 -9 -10 -6
-2 1 3 1 -6 -9 -11 -7
-2 -2 0 -4 -10 -12 -13 -8
3 1 -3 -7 -14 -16 -16 -12
5 1 -4 -10 -15 -19 -16 -14
4 -3 -8 -14 -18 -21 -18 -16
0 -6 -9 -14 -20 -23 -20 -18
-7 -7 -6 -12 -19 -23 -20 -18
-11 -12 -2 -11 -17 -22 -21 -18
-10 -16 0 -11 -17 -23 -23 -19
-11 -17 0 -12 -18 -23 -24 -20
-14 -17 1 -11 -18 -23 -25 -19
-16 -17 1 -11 -19 -23 -25 -19
-14 -15 0 -12 -19 -23 -26 -20
-13 -12 -4 -14 -20 -24 -25 -21
-13 -13 -4 -14 -20 -25 -23 -19
-14 -15 -5 -15 -21 -26 -24 -20
-17 -16 -5 -15 -22 -26 -25 -20
-18 -18 -5 -15 -22 -27 -26 -21
-16 -20 -5 -15 -22 -27 -25 -21
-12 -20 -5 -15 -22 -27 -25 -20
-11 -19 -6 -16 -23 -27 -26 -21
-15 -17 -6 -15 -22 -26 -25 -21
-20 -16 -7 -15 -23 -27 -25 -20
-19 -12 -8 -17 -24 -28 -26 -20
-16 -12 -8 -18 -26 -29 -27 -21
-15 -14 -6 -17 -26 -30 -27 -21
-18 -16 -5 -16 -25 -29 -27 -21
-20 -19 -4 -15 -22 -27 -26 -21
-20 -22 -4 -14 -22 -26 -25 -22
-19 -22 -4 -15 -22 -27 -27 -24
-17 -22 -5 -16 -24 -27 -27 -24
-16 -20 -5 -16 -24 -27 -27 -22
-17 -17 -4 -15 -23 -26 -26 -22
-19 -16 -5 -15 -22 -26 -26 -22
-18 -17 -5 -15 -23 -26 -27 -23
-16 -20 -4 -15 -24 -29 -30 -27
-14 -23 1 -10 -22 -31 -33 -31
-11 -27 6 -2 -20 -31 -35 -34
-4 -27 13 12 -14 -27 -33 -32
5 -17 21 29 1 -18 -26 -25
12 0 32 50 23 3 -8 -10
26 17 37 70 46 25 11 7
53 38 37 88 70 49 30 25
84 64 35 105 101 78 58 50
104 100 36 125 138 119 100 90
106 144 43 140 173 164 150 141
101 192 48 146 198 205 200 193
105 232 45 141 214 235 239 235
110 260 31 126 221 257 268 267
109 279 17 103 221 268 285 287
102 282 4 73 203 260 283 288
85 262 -5 42 170 229 257 265
53 227 -11 11 129 188 219 230
27 188 -22 -28 82 143 178 191
10 140 -35 -72 28 87 127 140
-11 84 -43 -106 -28 23 64 79
-39 29 -41 -128 -76 -34 4 21
-65 -14 -40 -143 -113 -79 -41 -25
-77 -37 -39 -143 -124 -97 -63 -48
-74 -46 -38 -130 -112 -89 -62 -50
-68 -46 -36 -112 -95 -76 -55 -47
-64 -46 -33 -96 -82 -68 -50 -45
-56 -41 -29 -81 -70 -61 -47 -45
-45 -37 -25 -64 -56 -51 -39 -41
-32 -32 -21 -47 -41 -40 -31 -37
-23 -28 -18 -33 -31 -32 -26 -33
-21 -27 -11 -23 -23 -26 -21 -30
-20 -29 -6 -15 -19 -22 -19 -29
-17 -33 -5 -13 -19 -21 -19 -30
-14 -35 -4 -13 -18 -20 -19 -31
-16 -37 -2 -11 -17 -19 -19 -31
-18 -37 2 -8 -15 -18 -17 -32
-18 -36 1 -9 -16 -19 -18 -37
-17 -35 1 -10 -17 -21 -18 -37
-17 -37 2 -9 -16 -20 -17 -37
-16 -39 4 -7 -14 -18 -16 -35
-14 -41 4 -7 -15 -17 -16 -34
-17 -47 5 -5 -13 -16 -14 -32
-20 -51 9 0 -10 -14 -11 -30
-17 -50 8 -2 -11 -15 -13 -32
-14 -47 8 -2 -11 -15 -14 -32
-15 -44 10 2 -8 -12 -12 -30
-17 -41 10 2 -7 -10 -10 -29
-17 -40 8 1 -9 -12 -12 -32
-14 -39 8 0 -10 -14 -14 -31
-11 -38 8 1 -9 -14 -13 -29
-13 -40 8 2 -8 -12 -12 -28
-14 -45 9 3 -5 -10 -11 -28
-12 -46 9 4 -5 -9 -11 -28
-7 -44 9 4 -5 -10 -10 -28
-6 -43 8 4 -6 -11 -10 -28
-8 -43 8 5 -5 -11 -9 -28
-9 -39 8 3 -5 -10 -10 -28
-9 -35 8 2 -5 -9 -10 -26
-12 -35 9 4 -4 -8 -8 -24
-13 -36 10 5 -4 -7 -6 -23
-10 -35 7 4 -4 -8 -8 -24
-9 -36 7 4 -3 -8 -7 -25
-12 -38 9 7 0 -6 -5 -24
-13 -38 10 8 0 -5 -4 -22
-9 -37 9 8 0 -6 -4 -21
-5 -37 7 6 -3 -7 -5 -22
-7 -34 6 6 -3 -6 -5 -22
-6 -30 3 3 -5 -7 -7 -23
2 -28 3 3 -5 -7 -6 -24
5 -27 3 3 -3 -5 -5 -22
2 -26 4 5 0 -3 -2 -20
-2 -28 7 10 4 1 2 -16
-3 -30 9 13 7 2 4 -14
-2 -30 10 14 8 3 4 -14
0 -28 10 14 8 3 4 -14
2 -26 9 13 8 3 3 -14
2 -23 9 12 8 2 3 -14
1 -21 7 11 6 3 4 -13
0 -22 7 11 8 5 6 -12
0 -23 7 11 8 6 6 -12
3 -23 6 10 8 6 5 -14
7 -24 6 12 9 6 6 -14
10 -24 7 13 11 8 8 -11
9 -22 8 15 13 11 11 -8
7 -20 8 17 13 12 12 -6
6 -17 7 16 14 11 13 -6
6 -15 6 16 16 13 14 -4
9 -12 5 15 15 13 14 -4
13 -11 4 16 14 13 14 -3
16 -10 2 14 12 12 13 -4
16 -9 2 12 13 13 13 -3
16 -10 3 13 15 14 15 -2
18 -12 3 15 17 17 18 1
17 -12 4 18 20 20 21 4
14 -10 5 20 22 22 22 7
17 -8 4 20 22 21 22 7
24 -3 0 16 19 19 19 4
24 2 -2 14 19 20 20 4
20 1 0 15 22 23 23 7
18 0 0 16 24 25 25 8
20 1 0 15 24 27 27 11
23 2 2 16 25 29 30 15
25 3 2 18 27 32 32 16
29 3 1 17 28 32 32 16
35 5 -2 14 26 30 31 15
37 8 -3 14 26 29 32 16
33 11 -3 14 26 29 32 16
29 12 -3 14 25 30 32 18
27 12 -4 14 25 30 33 19
26 11 -6 13 25 30 33 20
27 10 -8 10 24 30 33 20
29 8 -9 9 23 29 33 21
31 6 -9 9 23 30 34 21
33 4 -9 8 23 30 35 22
35 5 -10 7 21 28 33 21
33 7 -11 6 20 27 32 20
29 10 -11 5 19 27 32 20
30 12 -13 1 17 25 30 18
37 10 -16 -3 13 22 27 15
39 8 -17 -4 12 21 25 14
35 6 -16 -4 12 21 25 14
29 2 -14 -4 12 21 26 15
26 0 -14 -3 14 21 28 16
26 1 -14 -3 13 21 29 17
25 2 -12 -3 12 22 29 18
22 3 -11 -3 11 20 27 16
17 3 -10 -3 10 19 26 15
17 3 -12 -5 8 16 23 12
20 0 -13 -6 6 13 20 9
21 -2 -12 -6 5 12 17 7
21 -3 -12 -6 4 10 14 5
20 -7 -9 -4 4 10 14 5
17 -12 -5 0 7 11 13 4
13 -13 -3 2 7 9 11 2
9 -14 0 3 7 9 11 2
9 -14 -3 4 5 7 10 0
10 -12 -3 3 4 6 8 -3
10 -10 -4 2 3 3 5 -5
10 -11 -5 2 1 1 3 -7
8 -14 -5 1 -2 -2 2 -10
6 -15 -2 2 -2 0 1 -10
1 -17 4 7 2 2 2 -6
-4 -20 6 9 4 2 3 -6
-2 -22 5 8 3 0 1 -9
0 -22 5 7 1 -3 -3 -12
-4 -22 5 7 0 -4 -5 -13
-6 -21 3 6 -3 -6 -7 -15
-6 -20 2 5 -4 -7 -8 -16
-7 -20 2 4 -5 -9 -9 -18
-9 -20 3 3 -5 -9 -9 -18
-9 -22 3 2 -7 -11 -11 -20
-9 -26 4 2 -7 -11 -12 -19
-10 -28 5 3 -6 -10 -11 -18
-8 -28 6 2 -7 -11 -12 -19
-3 -26 6 1 -10 -13 -13 -20
-4 -26 5 0 -11 -14 -15 -20
-9 -25 3 0 -11 -14 -15 -20
-14 -23 2 0 -10 -14 -14 -19
-16 -25 2 -2 -11 -15 -14 -19
-16 -26 1 -3 -12 -17 -16 -21
-16 -27 1 -3 -12 -16 -16 -21
-14 -30 2 -2 -12 -15 -16 -22
-12 -31 3 0 -11 -14 -15 -21
-8 -29 4 0 -10 -13 -16 -21
-6 -26 6 1 -9 -12 -13 -19
-9 -25 6 2 -9 -12 -13 -19
-14 -24 5 1 -8 -11 -13 -19
-16 -22 3 0 -8 -11 -12 -18
-15 -22 4 0 -9 -12 -12 -18
-13 -23 3 -3 -11 -14 -16 -19
-13 -23 1 -4 -12 -14 -16 -20
-13 -24 2 0 -9 -12 -13 -18
-13 -25 2 1 -8 -11 -13 -18
-13 -26 2 1 -9 -12 -13 -19
-11 -25 1 -2 -11 -15 -15 -20
-10 -24 2 0 -11 -14 -14 -19
-10 -22 2 0 -10 -14 -13 -18
-13 -20 2 0 -11 -14 -14 -18
-14 -18 2 -2 -10 -14 -13 -17
-13 -18 0 -3 -10 -15 -14 -17
-13 -21 -3 -4 -11 -16 -15 -18
-13 -25 -3 -5 -13 -17 -16 -18
-10 -25 0 -3 -11 -14 -16 -19
-6 -23 3 1 -8 -12 -15 -18
-8 -22 3 1 -7 -12 -15 -19
-14 -21 5 2 -6 -12 -14 -17
-17 -19 6 3 -6 -11 -13 -16
-13 -17 6 3 -6 -11 -13 -15
-9 -17 5 3 -6 -11 -13 -16
-8 -17 4 2 -6 -11 -14 -17
-10 -17 4 1 -7 -11 -13 -17
-12 -20 4 1 -8 -11 -12 -17
-14 -22 3 1 -8 -11 -12 -18
-13 -21 4 2 -6 -10 -10 -15
-9 -20 4 2 -6 -10 -11 -14
-7 -19 3 1 -7 -11 -14 -16
-11 -17 2 1 -7 -12 -15 -18
-14 -15 5 2 -6 -11 -13 -16
-12 -15 5 2 -7 -11 -13 -14
-11 -15 5 2 -6 -11 -12 -13
-10 -16 4 2 -5 -10 -10 -13
-8 -17 5 1 -6 -10 -10 -14
-12 -19 8 3 -4 -8 -9 -12
-16 -21 8 4 -4 -7 -8 -10
-15 -20 5 2 -7 -9 -11 -12
-9 -18 3 0 -9 -12 -13 -14
-6 -16 2 -2 -10 -13 -15 -16
-9 -13 3 -2 -10 -13 -16 -16
-15 -14 6 1 -7 -11 -14 -14
-16 -15 6 0 -8 -12 -15 -16
-14 -16 3 -3 -10 -14 -16 -17
-15 -19 1 -5 -11 -15 -17 -17
-17 -22 1 -5 -12 -16 -18 -17
-16 -20 2 -5 -12 -15 -18 -18
-11 -16 5 -3 -10 -12 -17 -17
-9 -15 5 0 -8 -11 -14 -16
-10 -15 3 0 -9 -12 -14 -15
-9 -13 2 -2 -10 -13 -14 -14
-5 -11 3 -2 -11 -14 -14 -14
-4 -10 5 1 -8 -12 -12 -12
-9 -8 8 4 -4 -9 -9 -8
-10 -7 9 7 -2 -7 -7 -5
-5 -7 8 6 -2 -7 -9 -7
-4 -7 10 7 0 -6 -9 -7
-3 -6 13 8 0 -7 -9 -6
3 -4 14 8 0 -7 -10 -6
1 -2 14 8 0 -5 -9 -6
-8 1 16 10 2 -3 -7 -5
-11 1 16 10 2 -3 -7 -4
-6 -2 14 8 -2 -5 -8 -6
-4 -5 11 7 -3 -7 -9 -7
-8 -8 11 7 -3 -7 -7 -6
-10 -9 13 10 0 -5 -6 -4
-5 -7 15 13 3 -2 -5 0
3 0 15 15 5 1 -3 1
3 6 16 18 8 3 0 2
-2 10 18 19 9 5 0 2
-5 12 15 17 8 3 -2 1
-4 11 12 13 4 0 -4 0
-3 9 11 10 2 -3 -6 -3
-2 10 12 10 3 -2 -6 -3
-2 10 13 10 3 0 -5 -2
-2 6 11 9 2 -3 -6 -2
0 4 7 6 -2 -5 -8 -3
-2 2 4 3 -4 -7 -9 -3
-4 1 3 1 -5 -8 -10 -3
-5 1 2 -2 -6 -8 -10 -4
-4 1 0 -5 -9 -10 -12 -5
1 1 -3 -8 -11 -12 -13 -6
1 0 -4 -8 -12 -13 -14 -6
-2 -2 -4 -8 -13 -14 -14 -6
-4 -7 -3 -7 -13 -15 -14 -6
-6 -11 -2 -7 -12 -15 -16 -8
-9 -12 1 -6 -11 -14 -16 -9
-14 -13 0 -6 -10 -14 -16 -9
-17 -14 -3 -8 -13 -17 -18 -11
-17 -13 -4 -10 -14 -19 -20 -12
-13 -11 -5 -13 -17 -20 -22 -15
-11 -12 -5 -14 -18 -21 -23 -16
-13 -14 -6 -15 -19 -23 -24 -18
-16 -17 -6 -15 -20 -23 -24 -18
-17 -20 -5 -16 -21 -24 -24 -18
-18 -22 -4 -15 -20 -24 -24 -17
-18 -22 -4 -15 -20 -24 -25 -18
-17 -20 -5 -15 -21 -24 -26 -18
-18 -19 -5 -15 -20 -24 -26 -17
-19 -17 -6 -16 -22 -25 -27 -18
-19 -16 -6 -17 -22 -25 -27 -18
-19 -14 -6 -17 -22 -24 -26 -16
-17 -12 -7 -18 -22 -24 -26 -16
-18 -13 -7 -18 -22 -24 -26 -16
-21 -17 -7 -17 -21 -23 -25 -16
-22 -20 -6 -17 -21 -23 -26 -17
-19 -21 -5 -17 -21 -24 -27 -19
-16 -20 -6 -17 -23 -25 -27 -19
-15 -17 -4 -14 -21 -23 -25 -17
-17 -12 -5 -15 -20 -23 -26 -19
-18 -11 -6 -16 -21 -24 -26 -20
-17 -13 -7 -16 -22 -24 -27 -20
-18 -15 -6 -15 -21 -24 -27 -20
-21 -17 -5 -14 -20 -24 -28 -20
-19 -20 -4 -12 -21 -26 -31 -23
-14 -26 2 -5 -20 -28 -34 -28
-9 -28 9 5 -15 -27 -36 -31
-2 -22 17 19 -5 -21 -32 -29
10 -10 26 37 11 -8 -22 -21
19 10 34 61 34 14 -6 -6
30 30 40 86 62 39 18 15
53 52 42 105 92 68 45 36
77 80 43 126 127 104 78 68
91 118 48 144 164 148 122 112
92 165 54 155 199 194 174 165
92 213 54 154 222 232 220 215
95 251 45 141 236 261 256 254
94 277 27 118 241 281 283 282
89 294 11 90 236 289 299 299
75 293 -3 58 217 278 292 296
54 266 -11 24 180 242 260 266
31 227 -20 -12 134 195 218 225
16 185 -34 -56 80 143 171 180
-3 135 -47 -97 22 81 112 125
-26 75 -49 -126 -34 16 47 63
-52 21 -47 -143 -85 -45 -14 6
-69 -15 -48 -154 -119 -87 -56 -34
-75 -26 -47 -149 -122 -96 -69 -49
-70 -26 -47 -132 -107 -85 -64 -46
-63 -23 -46 -113 -90 -72 -57 -41
-56 -21 -43 -98 -79 -66 -53 -39
-45 -18 -38 -82 -68 -60 -48 -37
-30 -15 -34 -64 -55 -50 -41 -33
-22 -12 -27 -48 -41 -39 -34 -26
-21 -10 -18 -35 -31 -31 -29 -21
-18 -8 -13 -28 -26 -27 -25 -19
-14 -7 -10 -23 -25 -26 -24 -20
-14 -7 -9 -20 -23 -25 -25 -20
-17 -7 -8 -20 -23 -25 -26 -21
-18 -6 -9 -20 -23 -27 -28 -22
-17 -5 -10 -21 -24 -27 -28 -23
-17 -5 -10 -20 -23 -25 -27 -23
-16 -5 -9 -19 -23 -25 -26 -23
-15 -6 -9 -19 -23 -27 -26 -22
-17 -7 -7 -17 -22 -26 -25 -21
-20 -9 -4 -14 -20 -23 -24 -19
-21 -10 -2 -13 -20 -24 -25 -20
-21 -10 -2 -14 -20 -25 -26 -22
-22 -9 -3 -14 -20 -24 -27 -24
-21 -6 -5 -14 -20 -23 -27 -23
-18 -2 -4 -13 -18 -22 -26 -23
-14 2 -5 -13 -18 -22 -25 -23
-11 2 -4 -15 -19 -22 -25 -23
-9 0 -3 -15 -19 -22 -25 -22
-6 -3 -3 -13 -17 -21 -24 -21
-7 -4 -3 -11 -16 -19 -22 -20
-12 -5 -2 -10 -14 -19 -21 -17
-14 -6 0 -8 -13 -18 -20 -16
-10 -3 -4 -9 -15 -19 -22 -17
-6 3 -6 -10 -17 -20 -22 -18
-4 6 -5 -10 -15 -19 -20 -18
-3 6 -5 -10 -15 -18 -20 -18
-5 6 -6 -10 -14 -18 -21 -18
-8 6 -7 -11 -14 -18 -20 -17
-9 5 -5 -8 -11 -15 -18 -15
-11 4 -2 -5 -9 -13 -16 -13
-15 4 0 -5 -8 -12 -16 -13
-19 4 0 -4 -7 -11 -15 -13
-19 6 1 -2 -6 -11 -13 -11
-15 7 -2 -4 -8 -13 -14 -12
-9 9 -5 -7 -11 -16 -17 -15
-3 10 -5 -6 -11 -15 -16 -15
0 13 -4 -6 -10 -14 -15 -14
-5 14 -2 -4 -7 -10 -12 -13
-9 12 0 -2 -5 -8 -11 -12
-7 11 0 0 -6 -8 -10 -10
-2 12 -3 -2 -6 -9 -11 -9
2 13 -3 -2 -6 -9 -12 -11
3 14 -3 -2 -5 -9 -12 -12
4 17 -3 0 -4 -9 -11 -12
2 19 -3 1 -3 -6 -9 -10
-4 20 -4 2 0 -5 -8 -8
-4 20 -5 0 -2 -6 -9 -8
-3 19 -7 -3 -3 -6 -10 -9
-2 19 -6 -2 -2 -5 -7 -8
2 19 -5 1 1 -3 -4 -6
5 21 -5 2 2 -2 -4 -5
4 22 -4 4 3 0 -4 -4
4 23 -2 5 4 1 -4 -4
8 26 -4 4 4 0 -5 -5
12 29 -5 4 5 1 -3 -4
11 30 -5 5 7 4 1 0
7 30 -5 6 9 6 2 0
7 31 -5 5 10 6 3 2
11 31 -6 5 11 8 5 5
14 31 -7 5 10 9 6 4
16 32 -8 4 10 8 5 3
17 34 -9 4 9 9 6 3
16 35 -9 5 9 11 7 5
15 38 -9 5 11 12 8 6
17 43 -10 5 11 12 8 6
18 45 -10 6 13 13 9 8
17 46 -9 7 15 15 12 12
19 47 -9 7 16 16 14 14
23 45 -10 5 15 16 14 14
25 44 -11 4 14 16 14 14
27 46 -12 4 14 16 14 15
32 49 -13 3 15 17 16 16
37 52 -15 2 15 17 17 16
34 53 -14 3 17 18 19 17
31 54 -14 3 18 19 20 18
29 54 -16 1 17 19 20 19
25 53 -15 2 18 22 23 21
24 52 -15 2 20 23 24 22
29 52 -17 0 18 22 23 22
36 52 -19 -4 15 20 22 21
42 52 -22 -7 11 17 18 18
43 52 -23 -8 11 17 17 16
35 52 -21 -6 13 18 19 19
27 55 -20 -4 14 19 21 23
27 57 -21 -6 13 17 21 21
31 58 -23 -10 11 16 19 19
30 58 -23 -10 12 17 20 20
28 58 -24 -12 10 16 20 19
27 55 -22 -11 11 17 21 20
28 51 -21 -11 9 18 21 20
30 49 -21 -12 7 16 19 19
31 46 -23 -14 5 13 17 17
29 44 -21 -13 6 13 18 17
26 44 -21 -13 4 12 16 16
23 43 -20 -14 3 11 14 14
21 38 -19 -14 3 10 12 13
22 36 -19 -13 2 8 9 11
24 35 -19 -13 1 6 9 9
22 31 -16 -11 2 6 9 8
18 25 -13 -10 3 5 7 7
13 18 -11 -7 3 4 6 4
10 15 -9 -6 3 3 5 2
11 16 -5 -4 4 4 6 2
12 17 -4 -2 3 4 4 3
8 15 -3 -2 2 3 2 2
6 11 -4 -3 1 1 -2 -2
7 8 -4 -2 0 -2 -3 -4
6 5 -3 -2 -2 -3 -4 -5
3 1 1 1 0 -4 -4 -4
4 -5 3 3 1 -4 -5 -5
5 -7 2 3 0 -7 -7 -7
1 -8 4 5 1 -5 -7 -8
-4 -9 6 6 1 -4 -8 -10
-3 -11 6 6 1 -5 -9 -11
1 -15 4 4 -2 -8 -11 -14
1 -16 5 3 -4 -9 -12 -13
-6 -16 7 3 -3 -7 -10 -11
-11 -17 8 4 -2 -6 -9 -10
-10 -19 7 4 -3 -7 -10 -11
-9 -21 6 3 -5 -9 -12 -12
-10 -22 6 3 -6 -11 -13 -12
-8 -21 5 2 -7 -12 -13 -13
-5 -20 3 0 -9 -14 -15 -14
-5 -18 3 -2 -9 -15 -15 -15
-12 -18 5 1 -7 -14 -14 -15
-17 -17 5 2 -6 -12 -13 -14
-15 -17 5 2 -6 -12 -14 -14
-11 -17 3 -2 -8 -14 -17 -16
-12 -20 6 0 -6 -12 -15 -14
-12 -23 6 0 -7 -13 -16 -15
-9 -25 6 0 -8 -13 -18 -16
-8 -26 5 -3 -8 -14 -19 -17
-10 -26 7 -3 -8 -15 -19 -18
-9 -23 8 0 -8 -14 -17 -16
-8 -21 6 -2 -10 -14 -16 -16
-10 -21 3 -4 -11 -15 -18 -17
-15 -21 2 -4 -12 -16 -19 -17
-17 -19 3 -4 -11 -16 -18 -17
-13 -20 4 -2 -9 -15 -18 -16
-8 -21 3 -3 -10 -16 -19 -17
-9 -21 3 -3 -11 -16 -20 -18
-12 -20 4 -2 -9 -14 -18 -17
-13 -18 3 -2 -9 -15 -18 -18
-13 -17 2 -3 -9 -16 -19 -19
-12 -17 1 -4 -11 -18 -20 -20
-10 -18 -2 -6 -12 -19 -22 -21
-10 -19 1 -4 -11 -18 -19 -20
-11 -17 2 -3 -10 -17 -18 -19
-12 -17 5 1 -7 -13 -16 -15
-14 -18 7 3 -4 -10 -14 -13
-17 -19 5 2 -5 -12 -15 -14
-16 -20 3 0 -7 -14 -17 -17
-11 -20 1 -3 -10 -17 -20 -20
-8 -17 -3 -5 -12 -18 -22 -22
-11 -14 0 -3 -9 -15 -19 -21
-13 -11 4 3 -4 -12 -15 -17
-13 -9 5 4 -3 -11 -13 -15
-14 -12 6 5 -3 -11 -13 -13
-13 -15 5 3 -5 -12 -15 -13
-9 -17 5 3 -6 -12 -16 -14
-8 -17 3 1 -6 -13 -17 -15
-12 -17 5 3 -4 -10 -15 -14
-13 -14 5 3 -4 -11 -14 -13
-12 -12 5 2 -4 -11 -13 -12
-9 -11 4 1 -6 -13 -15 -15
-7 -11 3 -2 -8 -14 -17 -17
-5 -12 2 -3 -8 -16 -17 -18
-5 -13 0 -3 -9 -17 -18 -18
-5 -15 0 -2 -9 -16 -18 -18
-10 -17 2 1 -7 -14 -17 -17
-16 -17 4 3 -4 -12 -15 -15
-17 -17 4 3 -4 -12 -15 -15
-16 -15 2 2 -5 -13 -16 -15
-13 -12 0 0 -7 -14 -17 -16
-13 -10 1 0 -7 -14 -16 -15
-14 -11 2 -2 -8 -14 -16 -14
-13 -11 2 -2 -8 -14 -15 -14
-11 -12 3 -3 -8 -14 -15 -14
-12 -14 4 -2 -8 -14 -15 -14
-10 -16 4 -3 -9 -16 -16 -14
-6 -16 2 -4 -11 -18 -18 -15
-7 -15 1 -4 -10 -18 -18 -15
-14 -15 2 0 -7 -15 -16 -14
-17 -14 1 -2 -8 -16 -18 -16
-16 -14 0 -3 -8 -17 -18 -17
-15 -14 0 -3 -8 -17 -18 -17
-15 -14 0 -4 -9 -17 -18 -17
-14 -14 0 -4 -11 -17 -19 -18
-10 -15 0 -4 -13 -18 -19 -19
-6 -15 1 -2 -11 -17 -18 -16
-6 -11 2 1 -9 -15 -15 -13
-8 -6 5 3 -5 -12 -13 -11
-5 -4 6 3 -5 -12 -14 -11
2 -3 4 2 -6 -14 -16 -13
-2 0 7 4 -5 -12 -15 -12
-10 2 11 8 -2 -9 -12 -9
-13 2 12 9 2 -8 -10 -7
-7 2 11 8 1 -8 -11 -8
-3 0 11 7 0 -8 -11 -8
-5 -2 13 8 1 -8 -10 -8
-6 -2 13 9 1 -8 -9 -8
-3 -2 12 8 -2 -9 -11 -10
-3 -2 11 9 -2 -9 -12 -11
-5 0 9 9 -2 -10 -13 -12
-3 2 7 9 0 -11 -14 -13
1 5 8 10 1 -9 -12 -11
1 8 10 14 4 -6 -8 -7
-4 10 12 15 6 -3 -7 -5
-5 9 12 14 5 -2 -6 -4
-4 6 11 11 3 -3 -7 -4
-7 5 10 10 1 -6 -8 -5
-9 7 12 11 3 -5 -5 -3
-2 12 14 14 5 -3 -2 2
5 15 12 13 5 -3 -5 0
3 12 7 10 4 -5 -7 -4
4 10 3 6 0 -9 -10 -7
7 10 1 3 -4 -12 -11 -8
3 8 1 1 -5 -12 -12 -8
-5 2 0 0 -6 -13 -12 -8
-6 -2 -2 -2 -7 -14 -12 -8
-2 -2 -5 -5 -10 -16 -16 -12
-2 -2 -6 -7 -12 -17 -18 -14
-5 -3 -5 -7 -12 -17 -19 -13
-6 -2 -6 -9 -13 -19 -20 -15
-6 -4 -7 -11 -15 -22 -22 -18
-9 -7 -7 -11 -16 -23 -24 -19
-12 -10 -6 -12 -18 -25 -26 -20
-12 -11 -6 -12 -17 -24 -26 -19
-12 -14 -5 -11 -15 -24 -24 -18
-14 -16 -5 -10 -16 -24 -24 -17
-17 -16 -5 -10 -17 -24 -24 -17
-18 -15 -5 -11 -18 -24 -25 -18
-19 -16 -6 -13 -19 -25 -26 -19
-18 -17 -7 -15 -21 -27 -27 -21
-16 -17 -9 -16 -23 -29 -28 -22
-14 -17 -11 -19 -25 -31 -29 -23
-12 -16 -9 -17 -24 -28 -28 -22
-10 -14 -8 -15 -21 -25 -25 -19
-16 -15 -7 -13 -18 -24 -23 -17
-22 -17 -7 -14 -19 -25 -24 -18
-22 -17 -8 -14 -19 -25 -25 -18
-20 -17 -7 -14 -18 -25 -26 -16
-21 -16 -7 -13 -18 -25 -26 -17
-18 -13 -7 -12 -18 -26 -27 -17
-16 -10 -6 -12 -17 -25 -26 -16
-19 -11 -6 -12 -17 -25 -25 -16
-23 -12 -6 -12 -17 -25 -24 -16
-21 -13 -6 -12 -17 -24 -25 -16
-18 -15 -6 -13 -16 -24 -25 -15
-18 -17 -6 -13 -17 -24 -24 -15
-18 -17 -6 -12 -17 -24 -24 -15
-19 -17 -6 -11 -17 -24 -25 -15
-18 -18 -5 -10 -19 -26 -26 -18
-17 -19 -3 -9 -20 -30 -31 -22
-14 -21 2 -4 -20 -33 -36 -27
-12 -25 8 7 -14 -31 -37 -29
-9 -20 17 24 -2 -22 -30 -23
2 -5 28 46 18 -5 -17 -10
17 14 38 69 44 17 4 9
35 29 42 91 71 42 24 27
56 51 43 112 102 71 50 50
80 84 44 133 138 109 87 82
98 128 49 151 176 153 133 128
102 177 53 159 204 195 180 176
103 224 48 155 222 228 220 220
105 259 37 143 234 255 255 258
105 282 22 120 239 274 282 288
99 295 8 92 234 281 296 307
85 283 -5 61 213 266 286 301
62 251 -14 27 175 229 254 268
40 210 -27 -11 128 182 211 225
25 168 -45 -56 74 129 162 177
7 118 -56 -96 16 66 104 120
-18 65 -59 -124 -41 2 39 58
-46 16 -59 -144 -89 -56 -18 4
-69 -15 -57 -152 -118 -92 -56 -33
-75 -26 -53 -141 -117 -96 -66 -47
-66 -27 -52 -122 -101 -85 -62 -47
-53 -28 -49 -105 -87 -74 -57 -44
-44 -28 -41 -90 -74 -66 -53 -41
-35 -23 -34 -72 -60 -56 -47 -40
-28 -18 -29 -55 -45 -46 -38 -36
-23 -15 -23 -40 -33 -37 -31 -31
-18 -10 -16 -30 -25 -30 -27 -28
-14 -5 -13 -22 -22 -27 -25 -28
-13 -5 -11 -17 -19 -25 -23 -28
-16 -7 -8 -14 -16 -22 -20 -26
-18 -8 -7 -13 -16 -22 -21 -26
-17 -10 -7 -13 -17 -24 -22 -28
-15 -12 -8 -13 -18 -25 -22 -30
-13 -13 -8 -13 -18 -25 -23 -32
-17 -14 -7 -13 -18 -26 -23 -34
-21 -15 -7 -13 -18 -26 -23 -35
-18 -12 -7 -13 -17 -26 -22 -36
-13 -8 -7 -12 -18 -26 -22 -36
-10 -7 -5 -10 -16 -24 -22 -36
-12 -7 -4 -10 -15 -23 -22 -38
-15 -9 -2 -8 -13 -21 -20 -37
-15 -10 -2 -7 -13 -21 -20 -38
-14 -12 0 -5 -12 -19 -19 -38
-13 -10 1 -6 -12 -19 -19 -39
-10 -9 0 -7 -13 -19 -19 -40
-8 -7 -2 -7 -13 -20 -20 -45
-9 -6 -3 -6 -12 -20 -20 -47
-9 -5 -2 -5 -12 -21 -19 -46
-9 -4 -2 -6 -12 -21 -19 -47
-12 -4 0 -5 -11 -19 -18 -47
-12 -5 1 -4 -9 -17 -18 -47
-9 -7 0 -3 -10 -18 -17 -46
-7 -7 1 0 -8 -15 -15 -44
-7 -5 1 0 -7 -14 -14 -43
-6 -5 1 -2 -7 -15 -15 -44
-5 -5 -2 -3 -8 -17 -16 -45
-4 -4 -3 -3 -8 -16 -15 -44
-5 -3 -3 -4 -9 -17 -16 -44
-9 -2 -3 -3 -10 -17 -17 -44
-10 -2 -2 -2 -9 -15 -16 -41
-8 -2 0 0 -7 -14 -14 -40
-6 -2 1 2 -5 -12 -12 -39
-4 -3 0 1 -6 -13 -13 -39
-4 -5 0 2 -4 -12 -11 -38
-4 -5 0 2 -3 -11 -10 -36
-5 0 1 3 -2 -10 -9 -35
-4 5 0 3 -2 -9 -9 -35
-2 7 0 3 -2 -8 -8 -34
3 7 -3 2 -3 -10 -8 -35
5 6 -2 3 -2 -9 -8 -35
4 5 0 4 1 -7 -7 -34
0 3 2 7 3 -4 -5 -32
-6 2 4 9 6 0 -3 -28
-8 2 4 10 7 0 0 -26
-7 3 4 10 8 1 1 -25
-3 4 2 8 7 1 -2 -27
2 6 0 5 6 -2 -4 -29
5 8 -3 4 5 -4 -5 -30
7 10 -2 7 6 -2 -3 -27
6 11 -2 8 8 1 0 -24
9 12 -4 8 8 1 1 -24
14 13 -3 9 8 2 2 -23
14 15 0 12 11 5 4 -20
10 16 2 13 13 8 7 -17
12 17 1 12 13 7 7 -17
16 18 -2 10 12 7 7 -17
15 20 -2 11 14 8 9 -16
13 22 -2 11 15 10 9 -15
14 23 -3 10 15 10 9 -15
17 22 -4 10 16 11 11 -14
21 21 -6 9 15 12 11 -13
24 21 -5 11 16 13 13 -9
26 22 -3 13 19 17 17 -5
21 23 -3 14 21 19 20 -3
19 24 -5 14 21 19 21 -3
23 27 -6 13 21 19 22 -2
26 31 -7 13 21 19 22 0
25 34 -7 13 22 20 23 1
26 34 -5 14 24 22 25 3
29 34 -4 15 25 22 26 4
31 34 -6 14 25 21 24 5
31 33 -9 12 23 21 23 4
32 32 -10 11 23 23 24 4
35 34 -10 11 24 25 25 4
38 37 -11 11 24 24 25 5
39 39 -11 10 24 24 25 6
38 40 -12 8 23 24 26 7
36 39 -14 6 21 23 26 7
33 37 -15 4 19 22 26 6
32 34 -15 4 20 23 27 8
33 34 -15 4 20 24 27 9
36 35 -15 5 20 24 27 10
39 35 -17 2 18 23 26 9
44 35 -19 -2 16 19 24 7
44 35 -20 -3 15 18 23 7
39 36 -19 -4 15 19 24 7
34 36 -17 -4 15 19 24 8
31 36 -17 -4 15 18 24 8
29 35 -17 -4 14 17 23 7
26 33 -17 -5 14 17 23 6
27 30 -17 -6 13 17 22 5
31 27 -18 -8 10 15 19 2
32 25 -17 -7 9 14 19 2
29 25 -17 -7 8 12 17 4
23 24 -15 -6 8 11 16 4
21 22 -15 -6 7 9 14 0
22 22 -15 -6 5 7 11 -5
21 22 -15 -7 3 5 8 -7
14 19 -11 -3 5 6 9 -6
13 16 -11 -3 5 5 6 -7
17 14 -11 -4 3 2 2 -10
18 11 -9 -3 3 0 0 -12
18 8 -9 -3 1 -3 -2 -14
19 8 -10 -3 -2 -5 -3 -16
16 8 -8 -2 -3 -6 -4 -17
8 7 -5 1 0 -5 -4 -16
1 7 -4 1 0 -5 -5 -17
0 7 -3 2 -2 -7 -6 -18
3 7 -4 1 -4 -8 -8 -20
3 5 -4 0 -5 -9 -9 -21
-3 1 -3 1 -4 -9 -10 -21
-6 -3 1 3 -4 -9 -10 -22
-5 -4 2 2 -3 -9 -11 -23
-6 -4 0 0 -5 -9 -13 -25
-9 -5 0 0 -6 -11 -14 -25
-11 -7 0 -3 -8 -14 -14 -24
-9 -6 -2 -4 -10 -16 -16 -25
-7 -4 -3 -5 -11 -17 -18 -27
-9 -4 -3 -5 -12 -17 -20 -28
-11 -6 0 -3 -10 -16 -19 -27
-11 -8 -2 -4 -10 -17 -20 -28
-10 -11 0 -4 -11 -17 -19 -27
-10 -11 -2 -4 -12 -17 -20 -27
-9 -11 -2 -5 -12 -17 -20 -27
-9 -11 -2 -5 -13 -18 -20 -27
-12 -11 0 -4 -13 -17 -19 -27
-15 -9 -2 -6 -13 -18 -20 -28
-11 -8 -4 -8 -16 -21 -22 -30
-2 -9 -6 -10 -18 -23 -24 -32
0 -10 -5 -10 -18 -23 -25 -32
-9 -11 -3 -8 -15 -21 -23 -29
-13 -13 0 -7 -14 -20 -21 -27
-9 -14 -3 -8 -13 -20 -20 -27
-7 -11 -4 -7 -13 -18 -19 -27
-12 -9 -2 -5 -11 -15 -16 -23
-17 -9 0 -4 -11 -15 -15 -22
-18 -9 -2 -4 -11 -15 -16 -23
-15 -9 0 -4 -12 -16 -17 -25
-12 -8 0 -5 -13 -18 -19 -28
-13 -8 0 -7 -14 -20 -21 -29
-14 -9 1 -6 -13 -18 -21 -27
-13 -11 1 -6 -13 -18 -21 -26
-11 -13 1 -6 -12 -17 -20 -25
-12 -12 0 -6 -11 -17 -19 -24
-11 -12 -2 -6 -11 -16 -19 -25
-10 -12 -4 -7 -13 -17 -20 -27
-9 -9 -4 -8 -14 -18 -19 -25
-9 -7 -3 -7 -14 -18 -19 -24
-10 -7 0 -5 -12 -17 -17 -22
-11 -9 1 -4 -10 -15 -17 -22
-10 -10 0 -4 -10 -15 -17 -22
-7 -10 0 -3 -11 -16 -18 -23
-8 -11 1 -2 -10 -15 -19 -24
-12 -11 3 0 -8 -14 -17 -22
-14 -11 3 -3 -10 -15 -18 -21
-13 -10 2 -4 -11 -16 -17 -21
-11 -9 1 -5 -12 -16 -17 -21
-8 -8 0 -6 -13 -17 -19 -22
-6 -8 0 -4 -13 -17 -19 -22
-8 -7 0 -4 -13 -16 -19 -22
-11 -8 0 -3 -12 -16 -18 -21
-14 -12 1 0 -9 -14 -16 -18
-15 -14 1 -2 -10 -14 -16 -19
-12 -14 0 -3 -12 -17 -18 -21
-11 -13 1 -3 -12 -18 -19 -21
-12 -11 3 -2 -10 -16 -17 -20
-13 -9 3 -2 -10 -15 -18 -21
-10 -9 1 -4 -12 -16 -21 -23
-6 -12 -2 -6 -14 -19 -23 -25
-3 -14 -3 -9 -15 -21 -22 -27
-5 -14 -3 -8 -14 -19 -21 -26
-10 -14 1 -3 -11 -16 -18 -21
-13 -14 3 1 -10 -14 -16 -18
-17 -14 3 0 -10 -14 -15 -17
-23 -14 4 0 -10 -13 -15 -16
-22 -12 4 0 -10 -14 -15 -16
-12 -7 2 -2 -12 -16 -17 -19
-7 -4 3 -2 -11 -16 -17 -20
-10 -5 3 -2 -11 -16 -17 -19
-10 -7 2 -3 -12 -17 -18 -19
-9 -10 0 -4 -13 -18 -20 -19
-12 -13 2 -2 -12 -16 -18 -17
-14 -13 3 0 -11 -15 -17 -16
-13 -13 3 -2 -11 -16 -17 -16
-13 -15 2 -3 -13 -17 -18 -18
-10 -14 1 -4 -13 -18 -18 -18
-6 -10 0 -5 -13 -18 -19 -18
-8 -8 1 -4 -13 -17 -18 -17
-16 -9 2 -4 -13 -15 -17 -16
-17 -12 2 -4 -12 -15 -18 -17
-15 -12 2 -4 -13 -17 -19 -17
-15 -12 3 -3 -13 -16 -17 -15
-15 -13 5 -2 -11 -14 -16 -16
-10 -12 4 -3 -11 -15 -17 -17
-4 -9 3 -3 -11 -16 -18 -17
-2 -5 3 -3 -11 -16 -17 -15
-4 0 5 0 -10 -15 -14 -13
-7 1 8 2 -9 -13 -13 -12
-8 1 11 5 -7 -10 -11 -12
-7 1 11 6 -7 -9 -11 -11
-7 0 14 9 -4 -7 -9 -8
-9 -3 15 10 -3 -6 -8 -6
-8 -5 15 10 -3 -7 -9 -7
-4 -4 14 8 -5 -9 -10 -9
-2 -3 13 8 -6 -10 -11 -11
-4 -2 12 8 -5 -10 -11 -10
-7 -2 12 8 -4 -9 -11 -8
-3 2 10 7 -5 -10 -11 -8
5 6 9 7 -6 -10 -11 -8
5 10 12 12 0 -5 -8 -3
0 11 15 17 4 0 -4 1
-2 11 15 18 4 0 -3 1
3 12 14 16 2 -3 -4 0
2 12 13 13 -2 -5 -6 -2
-3 10 13 11 -2 -6 -6 -3
0 10 11 10 -2 -6 -7 -5
6 12 10 10 -2 -6 -7 -5
4 11 9 9 -3 -7 -7 -4
-4 7 7 8 -5 -8 -8 -5
-8 5 5 5 -7 -9 -9 -5
-5 3 3 3 -9 -11 -10 -5
-2 -2 2 1 -10 -13 -11 -5
-2 -4 1 0 -10 -12 -11 -5
-4 -5 -2 -3 -11 -12 -11 -6
-6 -8 -2 -4 -12 -13 -12 -7
-5 -9 -4 -7 -14 -16 -15 -10
-6 -7 -6 -10 -17 -19 -18 -13
-6 -6 -6 -11 -19 -20 -19 -14
-6 -9 -6 -12 -20 -22 -21 -15
-9 -12 -5 -13 -21 -22 -22 -16
-15 -14 -2 -10 -20 -21 -23 -17
-17 -16 0 -9 -18 -20 -22 -16
-15 -17 0 -9 -18 -20 -20 -14
-13 -17 -2 -10 -19 -21 -20 -14
-17 -17 -2 -10 -20 -21 -21 -15
-20 -17 -4 -12 -20 -22 -23 -18
-17 -17 -6 -15 -22 -25 -24 -19
-14 -17 -7 -16 -23 -26 -24 -19
-16 -16 -5 -15 -22 -25 -24 -17
-17 -16 -5 -15 -22 -25 -25 -16
-15 -16 -5 -15 -23 -26 -26 -18
-14 -19 -5 -14 -24 -26 -26 -18
-16 -22 -5 -13 -23 -26 -26 -17
-14 -20 -4 -12 -22 -25 -25 -16
-13 -17 -4 -11 -22 -24 -25 -16
-15 -18 -4 -12 -22 -24 -25 -17
-17 -18 -6 -14 -24 -26 -27 -19
-17 -17 -4 -12 -23 -25 -25 -17
-17 -16 -2 -10 -21 -23 -23 -15
-21 -17 -2 -11 -21 -23 -23 -15
-23 -18 -3 -12 -22 -24 -24 -17
-21 -18 -3 -12 -22 -25 -25 -17
-17 -19 -3 -12 -22 -25 -25 -18
-16 -19 -4 -13 -22 -25 -25 -17
-16 -20 -5 -13 -22 -25 -25 -17
-17 -19 -5 -12 -22 -25 -25 -18
-20 -18 -3 -9 -21 -25 -26 -18
-18 -20 3 -4 -21 -27 -30 -21
-12 -23 10 5 -18 -27 -32 -25
-8 -21 18 19 -10 -22 -29 -23
-2 -14 26 34 4 -11 -21 -17
11 0 36 55 24 7 -7 -4
30 17 42 75 48 27 11 12
54 35 43 94 74 52 32 30
75 58 44 114 108 86 63 59
91 94 46 134 145 126 104 97
99 141 49 146 175 167 150 144
102 189 51 150 196 202 195 192
102 228 45 146 211 232 233 234
106 255 32 132 219 254 262 265
114 273 16 109 218 265 279 283
115 273 2 79 203 260 280 285
99 251 -11 46 174 231 257 265
73 215 -20 11 134 191 221 232
52 177 -33 -30 87 145 179 194
30 132 -49 -73 31 90 129 146
3 79 -54 -106 -25 29 69 90
-28 30 -51 -128 -71 -26 11 35
-55 -9 -49 -142 -108 -71 -36 -10
-71 -30 -47 -143 -123 -94 -62 -35
-69 -37 -47 -132 -117 -93 -66 -44
-57 -38 -46 -113 -101 -80 -60 -40
-49 -37 -41 -99 -88 -71 -54 -38
-49 -34 -34 -82 -74 -62 -49 -33
-48 -30 -27 -62 -59 -50 -41 -26
-37 -24 -22 -45 -45 -38 -33 -19
-24 -17 -19 -34 -36 -34 -30 -17
-17 -13 -15 -27 -31 -31 -28 -16
-19 -13 -10 -20 -26 -27 -25 -15
-22 -14 -7 -17 -23 -25 -23 -14
-20 -15 -5 -15 -22 -23 -22 -13
-18 -17 -3 -15 -22 -24 -23 -14
-18 -19 -3 -14 -21 -24 -24 -15
-18 -19 -4 -14 -21 -24 -23 -16
-18 -18 -5 -14 -22 -25 -23 -16
-18 -16 -4 -12 -22 -24 -23 -15
-18 -14 -3 -12 -21 -24 -23 -15
-18 -13 -4 -13 -23 -25 -25 -16
-17 -13 0 -11 -21 -23 -23 -14
-15 -13 1 -10 -20 -23 -23 -14
-14 -17 1 -9 -20 -23 -23 -14
-16 -19 1 -8 -19 -22 -21 -14
-17 -17 4 -4 -16 -19 -18 -11
-16 -15 6 -2 -14 -16 -17 -10
-11 -14 3 -4 -16 -18 -18 -12
-10 -14 1 -5 -16 -18 -18 -12
-13 -12 1 -6 -16 -17 -18 -11
-15 -11 1 -6 -15 -18 -18 -10
-17 -13 1 -6 -16 -19 -18 -11
-17 -13 1 -5 -15 -18 -18 -11
-12 -10 1 -4 -15 -18 -18 -12
-7 -11 2 -3 -13 -16 -17 -12
-5 -14 2 -3 -12 -16 -18 -13
-5 -15 2 -2 -11 -14 -17 -11
-5 -13 3 0 -11 -14 -17 -9
-6 -12 2 0 -11 -14 -16 -9
-8 -10 1 -3 -12 -14 -15 -9
-11 -8 1 -3 -11 -13 -13 -7
-13 -7 3 1 -9 -11 -10 -3
-12 -7 3 1 -9 -11 -9 -5
-10 -7 3 3 -8 -10 -9 -5
-9 -9 3 3 -7 -8 -8 -3
-5 -10 3 3 -7 -8 -9 -2
-4 -10 3 3 -6 -7 -9 0
-5 -9 3 3 -6 -9 -8 0
-4 -7 2 1 -7 -10 -8 -2
-2 -4 1 1 -7 -9 -8 -2
0 -2 1 2 -6 -8 -7 0
1 -2 1 2 -6 -7 -7 1
1 -3 1 3 -6 -7 -7 0
0 -4 2 4 -4 -5 -6 -2
2 -5 1 4 -3 -5 -6 -2
5 -7 2 6 -2 -3 -5 1
7 -5 1 5 -2 -3 -5 2
5 -3 1 5 0 -2 -4 4
-2 1 2 7 2 1 -2 6
-4 4 2 7 2 1 0 6
2 6 2 6 2 0 0 5
8 6 1 6 3 1 0 5
8 6 2 8 5 3 2 7
6 6 4 11 7 6 5 9
10 5 3 11 6 5 5 9
14 5 1 9 5 4 4 9
15 7 0 8 6 5 5 10
14 9 0 10 7 7 7 12
14 11 0 10 8 8 8 12
14 12 1 11 10 9 9 13
16 14 0 11 11 9 10 12
17 16 0 11 11 10 11 14
15 16 1 13 12 12 13 17
14 15 2 14 14 15 14 20
18 14 0 14 13 15 14 18
22 13 0 13 14 15 13 18
22 16 0 14 16 16 16 21
23 19 1 15 17 19 20 25
25 22 -2 13 17 19 21 26
27 24 -4 12 18 18 20 26
27 25 -7 11 18 19 20 26
28 26 -6 12 19 21 23 28
30 27 -7 11 18 21 23 28
33 27 -8 10 18 21 22 27
34 25 -8 11 18 22 23 28
35 24 -6 12 20 24 27 32
36 27 -8 11 21 25 29 33
34 29 -10 10 20 25 27 32
33 28 -11 9 19 25 26 32
34 29 -11 8 19 26 27 34
35 31 -11 7 19 26 29 34
39 33 -10 7 20 26 31 35
46 34 -12 5 18 24 29 33
50 31 -14 2 15 22 26 30
45 26 -14 1 14 22 26 30
36 25 -12 4 17 25 30 34
34 26 -11 5 19 26 33 36
38 28 -13 3 17 25 31 35
40 30 -14 0 15 23 29 33
38 31 -13 0 15 23 29 33
35 30 -14 -2 13 22 27 32
34 29 -15 -4 11 21 24 32
35 27 -16 -6 9 19 23 31
35 24 -16 -6 8 19 22 30
33 20 -15 -6 8 19 23 29
30 19 -13 -4 9 19 24 29
27 19 -11 -3 9 18 23 29
28 19 -13 -7 5 14 19 25
31 18 -15 -9 3 10 15 21
32 18 -15 -10 3 9 15 19
29 18 -14 -9 2 8 12 18
24 16 -13 -8 1 7 9 15
21 13 -12 -7 0 5 8 13
21 8 -10 -6 0 3 7 12
23 5 -10 -5 -3 2 5 9
23 4 -7 -2 0 2 4 8
17 3 -7 -2 0 2 2 7
8 1 -5 0 0 1 2 6
6 1 -5 -2 -2 -2 0 4
8 3 -4 -2 -3 -3 -2 3
8 2 -3 -2 -5 -4 -4 2
6 1 -2 0 -5 -5 -6 1
5 0 0 2 -4 -5 -6 0
5 -5 1 3 -4 -6 -6 -2
3 -9 3 3 -4 -7 -7 -3
4 -11 3 3 -6 -7 -7 -4
4 -11 3 2 -6 -8 -9 -4
0 -10 3 2 -6 -8 -10 -4
-5 -10 3 1 -7 -8 -11 -5
-4 -9 0 -3 -9 -11 -13 -7
-3 -8 -2 -5 -11 -13 -15 -9
-6 -11 -2 -4 -11 -12 -14 -9
-10 -11 1 -2 -9 -11 -14 -9
-10 -10 3 -2 -9 -10 -14 -9
-9 -11 3 -2 -10 -12 -14 -9
-5 -13 1 -3 -12 -13 -15 -10
-2 -14 0 -5 -13 -14 -17 -12
-3 -16 1 -5 -13 -15 -17 -12
-7 -16 2 -5 -12 -15 -16 -13
-8 -15 0 -7 -14 -16 -17 -14
-4 -15 -4 -9 -17 -19 -20 -15
1 -15 -4 -10 -19 -20 -21 -16
2 -15 -4 -10 -19 -21 -22 -16
-2 -17 -3 -10 -18 -20 -22 -17
-6 -19 -2 -8 -17 -19 -21 -16
-9 -20 0 -7 -15 -18 -20 -15
-15 -21 1 -6 -14 -17 -18 -13
-18 -20 2 -5 -13 -15 -15 -10
-15 -17 3 -3 -11 -13 -14 -10
-6 -13 0 -6 -13 -15 -17 -13
-5 -13 -2 -7 -15 -16 -17 -12
-11 -16 0 -7 -15 -17 -16 -12
-14 -17 0 -7 -15 -17 -17 -13
-12 -19 -2 -8 -15 -17 -18 -14
-7 -20 -3 -7 -15 -18 -19 -14
-5 -17 -2 -6 -15 -16 -19 -14
-3 -15 2 -4 -12 -14 -17 -14
1 -15 2 -6 -13 -16 -18 -15
-2 -16 0 -7 -14 -17 -19 -14
-8 -16 0 -7 -13 -16 -18 -13
-11 -15 1 -5 -12 -15 -17 -12
-7 -15 0 -5 -13 -16 -18 -13
-5 -14 1 -5 -12 -15 -18 -13
-8 -14 4 -3 -10 -13 -16 -12
-12 -17 6 1 -7 -10 -13 -10
-12 -17 4 1 -8 -11 -13 -11
-7 -16 2 -3 -10 -12 -16 -12
-6 -17 2 -3 -10 -12 -15 -11
-8 -16 1 -3 -11 -12 -14 -11
-9 -13 0 -4 -11 -13 -15 -11
-8 -12 0 -5 -11 -13 -15 -11
-10 -14 1 -5 -12 -14 -15 -12
-11 -16 1 -6 -13 -15 -17 -13
-9 -17 1 -5 -13 -15 -16 -12
-6 -17 3 -3 -10 -13 -14 -10
-6 -15 5 0 -8 -11 -12 -9
-8 -14 5 0 -8 -11 -12 -8
-5 -14 3 -2 -9 -12 -14 -9
0 -11 2 -3 -11 -13 -16 -11
-4 -9 2 -3 -11 -13 -16 -12
-8 -10 2 -5 -11 -14 -16 -13
-6 -13 1 -6 -13 -16 -18 -16
-5 -14 1 -6 -13 -16 -19 -17
-6 -15 2 -4 -11 -14 -18 -14
-4 -16 2 -3 -10 -13 -17 -12
-3 -16 2 -2 -10 -13 -17 -12
-7 -14 4 0 -9 -10 -16 -12
-11 -14 4 0 -9 -10 -16 -12
-10 -15 3 -3 -10 -12 -17 -13
-3 -14 0 -6 -12 -15 -19 -16
1 -13 -2 -7 -14 -17 -20 -16
-2 -13 0 -6 -13 -15 -18 -12
-3 -13 1 -6 -13 -15 -17 -12
-4 -14 1 -5 -13 -15 -17 -13
-8 -16 1 -3 -12 -14 -15 -12
-11 -17 3 -2 -10 -14 -15 -12
-7 -16 4 -3 -10 -14 -15 -11
-3 -15 2 -5 -13 -16 -17 -11
-4 -14 0 -6 -14 -17 -18 -12
-7 -13 1 -7 -13 -18 -18 -13
-7 -12 0 -7 -15 -18 -19 -14
-4 -13 0 -7 -16 -18 -19 -14
-8 -14 1 -8 -16 -17 -19 -13
-15 -16 3 -6 -13 -15 -17 -11
-15 -18 4 -5 -12 -15 -16 -11
-10 -20 2 -6 -13 -17 -17 -13
-11 -20 2 -7 -13 -17 -17 -13
-14 -18 2 -6 -13 -15 -17 -13
-13 -17 1 -8 -15 -16 -19 -14
-12 -15 1 -8 -15 -16 -19 -13
-11 -14 1 -8 -15 -16 -17 -13
-9 -15 1 -7 -16 -17 -17 -13
-7 -17 0 -8 -17 -19 -21 -14
-10 -17 1 -6 -15 -18 -21 -12
-13 -18 3 -4 -13 -16 -18 -11
-11 -19 2 -5 -12 -17 -17 -12
-8 -20 0 -8 -14 -19 -20 -15
-8 -19 1 -7 -14 -18 -21 -14
-7 -16 3 -5 -12 -16 -19 -12
-4 -12 3 -5 -13 -17 -17 -11
0 -11 3 -5 -13 -17 -16 -10
-2 -10 4 -4 -13 -17 -15 -9
-4 -8 5 -2 -12 -15 -15 -9
-7 -8 8 1 -9 -13 -13 -7
-9 -9 10 4 -8 -12 -12 -6
-5 -9 10 4 -8 -13 -14 -8
0 -7 8 3 -8 -13 -14 -9
-2 -5 9 3 -7 -12 -14 -8
-6 -5 10 3 -7 -11 -13 -8
-8 -5 8 2 -9 -14 -15 -10
-4 -3 7 2 -10 -13 -15 -10
2 0 8 5 -7 -11 -12 -8
6 2 8 6 -5 -9 -11 -7
9 5 8 7 -4 -7 -9 -4
12 8 10 9 -2 -4 -6 -2
10 8 11 12 2 -2 -4 0
4 8 12 11 2 -2 -4 2
0 7 10 8 -2 -6 -6 1
-2 6 8 5 -5 -8 -8 -2
-3 6 7 5 -5 -8 -8 -3
-4 8 9 8 -2 -5 -5 2
3 8 8 7 -3 -6 -6 2
7 7 5 4 -5 -8 -8 -2
4 4 3 2 -6 -9 -8 -3
1 0 1 0 -8 -11 -9 -4
5 -3 -2 -4 -11 -14 -12 -6
9 -3 -5 -7 -13 -16 -15 -8
6 -3 -5 -7 -13 -15 -14 -8
2 -4 -5 -8 -14 -16 -14 -8
1 -5 -7 -10 -17 -18 -16 -9
1 -7 -8 -13 -19 -21 -18 -12
-3 -9 -7 -13 -19 -21 -19 -13
-8 -12 -6 -12 -19 -20 -19 -14
-13 -14 -5 -12 -19 -22 -20 -15
-16 -16 -4 -11 -20 -22 -20 -14
-15 -17 -5 -13 -20 -23 -23 -15
-13 -18 -7 -16 -22 -26 -25 -18
-11 -18 -7 -16 -23 -26 -25 -19
-10 -17 -8 -17 -24 -26 -25 -20
-12 -16 -8 -17 -24 -24 -25 -20
-15 -16 -7 -16 -23 -24 -25 -19
-17 -17 -6 -15 -22 -25 -24 -18
-18 -17 -7 -15 -23 -25 -25 -19
-18 -18 -7 -16 -24 -26 -26 -21
-17 -20 -7 -15 -23 -25 -25 -20
-17 -21 -7 -15 -22 -24 -25 -19
-16 -20 -8 -16 -22 -25 -25 -19
-17 -19 -8 -17 -23 -25 -25 -20
-17 -20 -8 -17 -23 -24 -25 -21
-17 -19 -9 -18 -24 -26 -27 -22
-14 -17 -8 -19 -24 -26 -26 -22
-14 -16 -8 -18 -23 -26 -25 -21
-15 -17 -8 -18 -23 -25 -25 -20
-11 -19 -9 -20 -25 -27 -26 -21
-5 -20 -11 -22 -28 -30 -29 -24
-11 -20 -9 -18 -26 -28 -27 -23
-21 -19 -5 -14 -21 -24 -24 -19
-23 -18 -4 -13 -20 -23 -23 -18
-20 -17 -5 -14 -19 -22 -24 -18
-17 -16 -5 -14 -20 -23 -25 -19
-14 -15 -6 -13 -21 -26 -27 -22
-12 -17 -5 -11 -22 -27 -31 -26
-11 -21 1 -5 -20 -27 -33 -29
-12 -21 10 8 -13 -24 -31 -29
-9 -16 20 24 1 -15 -24 -23
3 -3 29 43 18 -2 -13 -13
19 14 35 62 39 19 4 2
38 31 37 79 62 39 22 17
64 53 35 96 88 66 45 37
93 84 34 114 119 100 77 69
111 121 35 128 150 138 118 109
112 164 38 135 174 174 162 154
110 209 39 135 192 206 204 199
117 241 30 126 202 230 235 234
126 261 14 109 205 245 257 259
128 270 0 85 199 250 266 272
121 260 -15 52 176 232 255 262
101 231 -26 18 140 195 224 231
74 196 -34 -16 98 154 188 198
48 157 -45 -56 51 109 147 161
15 106 -53 -93 -2 55 95 113
-20 51 -52 -119 -51 -4 36 57
-48 5 -50 -138 -93 -54 -18 6
-67 -26 -48 -146 -119 -87 -55 -30
-75 -43 -44 -138 -119 -93 -66 -43
-68 -47 -41 -121 -105 -85 -63 -43
-60 -49 -39 -104 -89 -73 -57 -39
-56 -49 -33 -88 -75 -64 -51 -35
-49 -46 -30 -74 -64 -56 -46 -33
-38 -41 -28 -59 -53 -48 -40 -30
-30 -37 -23 -44 -40 -38 -34 -26
-24 -33 -16 -31 -30 -30 -27 -20
-18 -32 -9 -22 -23 -25 -21 -15
-17 -34 -6 -17 -19 -22 -21 -14
-19 -38 0 -13 -16 -20 -19 -11
-16 -38 1 -11 -16 -20 -19 -11
-10 -37 1 -11 -16 -21 -20 -13
-12 -38 1 -10 -16 -20 -20 -14
-15 -43 0 -11 -16 -20 -21 -15
-15 -44 0 -12 -17 -20 -21 -15
-13 -41 0 -12 -17 -21 -21 -14
-13 -40 1 -10 -16 -19 -19 -12
-14 -41 3 -8 -15 -18 -18 -11
-17 -44 5 -7 -14 -17 -18 -11
-22 -48 8 -3 -11 -14 -16 -10
-24 -51 10 0 -9 -13 -14 -8
-17 -51 10 1 -9 -14 -14 -8
-13 -49 11 4 -6 -11 -13 -6
-14 -46 13 6 -3 -8 -11 -5
-14 -45 12 5 -3 -8 -10 -5
-13 -47 10 3 -5 -9 -11 -5
-14 -48 9 2 -6 -9 -11 -5
-15 -48 9 0 -6 -10 -12 -6
-13 -51 9 1 -6 -11 -12 -7
-11 -52 11 4 -4 -9 -10 -6
-11 -51 12 6 -2 -7 -8 -4
-9 -49 10 6 -3 -8 -8 -5
-4 -48 7 6 -3 -8 -10 -6
-6 -46 9 6 -2 -7 -11 -6
-13 -44 12 7 1 -4 -9 -3
-16 -44 11 6 1 -4 -8 -2
-14 -46 10 4 0 -6 -8 -2
-11 -46 10 5 0 -6 -9 -3
-5 -45 10 6 -2 -7 -9 -4
-3 -46 9 6 0 -6 -6 -2
-5 -46 11 9 2 -3 -2 3
-8 -45 13 11 5 1 1 4
-7 -43 12 10 4 1 0 2
-4 -40 9 8 2 -2 -2 1
-4 -37 9 9 2 0 -2 3
-8 -34 10 10 4 1 1 5
-8 -35 10 9 4 1 0 4
-6 -38 8 8 3 -2 -3 2
-6 -39 9 10 5 2 -2 4
-6 -37 13 14 10 7 4 8
-3 -36 12 14 10 6 4 7
1 -36 11 11 8 5 3 5
2 -35 11 11 9 5 3 6
1 -33 10 12 10 7 4 8
1 -31 9 11 9 7 4 9
1 -29 11 13 11 9 7 12
2 -27 12 14 12 11 8 13
6 -25 9 13 12 9 8 11
8 -25 7 13 11 8 7 10
6 -27 8 14 13 10 8 11
6 -29 9 16 14 12 9 13
11 -28 8 16 14 12 9 14
14 -25 7 15 14 13 10 14
12 -23 7 15 15 16 13 16
13 -20 5 14 15 15 12 16
15 -18 3 12 13 13 11 15
17 -17 3 12 14 14 12 16
15 -15 3 13 16 16 13 17
9 -15 6 17 20 19 17 20
11 -16 8 19 23 22 18 23
19 -17 7 19 24 22 20 23
20 -16 7 19 24 24 21 24
20 -12 7 20 25 26 22 26
24 -7 6 19 25 25 23 27
23 -3 4 19 25 26 25 27
20 0 3 19 27 27 26 28
25 2 1 17 26 28 26 30
32 2 0 15 24 27 26 29
31 -2 1 16 26 28 29 30
28 -6 2 16 27 29 30 31
31 -5 0 16 27 30 30 33
37 1 -3 15 26 28 29 33
35 2 -4 14 28 30 30 34
32 3 -4 15 28 32 32 35
35 8 -5 14 27 31 32 35
36 11 -6 14 28 32 34 37
28 8 -4 15 29 35 36 39
27 6 -6 13 26 33 34 37
35 7 -9 11 24 31 33 35
39 9 -9 10 25 32 36 38
34 8 -7 13 28 35 38 42
29 7 -6 12 28 34 37 39
29 6 -8 9 25 31 33 35
32 8 -9 6 23 29 32 35
35 12 -10 6 23 29 32 37
38 13 -11 4 22 28 31 36
40 9 -13 0 19 25 27 32
40 7 -13 0 18 24 25 31
37 7 -12 0 17 24 26 32
31 5 -10 2 19 26 30 34
30 3 -11 3 19 26 31 34
32 3 -12 2 17 24 29 33
32 4 -11 1 16 23 27 32
29 4 -11 1 15 21 26 31
27 3 -10 0 13 20 24 28
32 2 -12 -4 9 15 19 24
36 0 -13 -5 7 13 16 21
30 -3 -12 -4 7 12 14 19
19 -7 -8 0 9 14 14 18
14 -10 -4 2 10 14 14 17
15 -11 -2 3 10 13 13 16
13 -10 0 4 11 12 12 15
10 -11 1 5 11 11 12 15
10 -12 -2 4 8 9 9 13
13 -13 -4 2 5 6 6 9
12 -14 -3 2 4 5 3 7
8 -16 0 2 4 5 2 6
4 -18 1 4 5 4 2 5
2 -21 3 6 5 4 2 5
0 -23 3 6 4 2 0 3
-2 -23 4 6 4 2 -3 0
-3 -22 5 8 4 1 -4 -3
-2 -22 5 7 4 1 -4 -4
-3 -22 5 6 3 0 -5 -3
-5 -21 4 5 1 -3 -6 -2
-5 -20 2 1 -3 -7 -9 -7
-6 -21 2 1 -4 -7 -9 -8
-9 -23 4 2 -4 -7 -9 -6
-12 -26 4 1 -6 -9 -10 -8
-9 -29 4 0 -7 -11 -12 -10
-5 -29 5 0 -7 -10 -13 -10
-6 -27 6 3 -5 -8 -12 -8
-7 -24 4 1 -6 -10 -14 -10
-7 -24 3 -2 -8 -11 -15 -12
-7 -24 1 -3 -9 -12 -16 -13
-6 -23 1 -3 -9 -13 -16 -13
-5 -23 0 -5 -10 -13 -16 -13
-8 -25 1 -4 -10 -12 -15 -12
-13 -27 0 -5 -11 -14 -17 -13
-13 -29 1 -4 -11 -15 -17 -13
-7 -27 2 -3 -10 -14 -15 -12
-4 -28 2 -2 -9 -13 -14 -11
-5 -28 2 -5 -10 -15 -17 -12
-8 -27 1 -7 -11 -15 -19 -14
-11 -25 0 -6 -11 -15 -18 -14
-11 -23 1 -5 -12 -15 -17 -13
-11 -22 1 -5 -11 -14 -17 -13
-11 -23 1 -4 -11 -14 -16 -14
-10 -25 0 -5 -11 -15 -17 -14
-8 -28 -2 -5 -12 -16 -18 -15
-6 -28 -2 -6 -13 -17 -19 -14
-5 -27 1 -5 -12 -16 -17 -12
-3 -25 1 -5 -12 -16 -17 -13
0 -23 1 -4 -11 -16 -16 -12
-3 -20 1 -3 -10 -15 -17 -12
-9 -19 2 -3 -10 -15 -17 -13
-13 -20 5 0 -8 -13 -15 -11
-14 -20 5 1 -7 -11 -14 -10
-14 -21 5 0 -7 -11 -14 -9
-12 -23 4 -2 -8 -12 -14 -9
-8 -23 3 -2 -9 -12 -15 -10
-5 -22 3 -2 -9 -12 -14 -11
-6 -21 3 -2 -9 -12 -12 -11
-7 -20 4 -2 -8 -12 -13 -11
-8 -18 4 0 -8 -11 -13 -11
-11 -18 5 1 -7 -10 -13 -10
-10 -18 3 0 -8 -12 -14 -10
-4 -18 0 -3 -11 -15 -16 -12
-3 -18 -2 -3 -11 -15 -16 -13
-9 -21 2 0 -8 -13 -15 -11
-13 -23 2 1 -8 -13 -15 -11
-12 -22 2 2 -7 -12 -14 -10
-10 -21 2 1 -8 -12 -14 -11
-9 -19 1 -2 -9 -12 -15 -12
-8 -17 -2 -4 -11 -14 -16 -13
-4 -16 -2 -5 -12 -14 -16 -13
-4 -16 0 -5 -11 -14 -15 -13
-7 -17 2 -3 -10 -13 -15 -12
-8 -17 2 -3 -10 -13 -16 -13
-6 -19 2 -3 -11 -15 -18 -14
-10 -20 3 0 -9 -15 -17 -12
-13 -19 5 1 -8 -14 -15 -10
-10 -16 5 1 -8 -13 -14 -10
-6 -13 4 0 -9 -14 -16 -12
-8 -13 3 0 -9 -14 -16 -12
-12 -15 3 -2 -9 -14 -16 -12
-14 -17 2 -3 -10 -15 -16 -13
-11 -18 0 -4 -12 -16 -17 -14
-8 -20 -2 -6 -13 -17 -20 -16
-8 -22 0 -5 -13 -16 -19 -16
-10 -24 1 -4 -12 -15 -17 -15
-12 -21 2 -3 -10 -14 -17 -14
-12 -18 2 -2 -10 -14 -17 -13
-11 -17 2 -3 -10 -14 -16 -13
-8 -15 3 -2 -10 -13 -15 -12
-6 -13 3 -3 -11 -14 -16 -13
-9 -14 3 -3 -11 -14 -16 -13
-11 -16 2 -4 -13 -16 -17 -14
-10 -18 3 -5 -14 -17 -19 -16
-9 -20 3 -4 -14 -17 -18 -16
-7 -21 0 -5 -15 -19 -19 -17
-4 -19 -3 -5 -16 -19 -20 -17
-5 -17 -4 -6 -15 -18 -20 -16
-6 -16 -4 -6 -14 -18 -19 -15
-9 -15 -4 -6 -13 -18 -18 -13
-12 -16 -3 -7 -15 -19 -18 -15
-16 -17 -2 -7 -15 -18 -18 -15
-16 -17 1 -6 -15 -17 -17 -15
-14 -17 1 -5 -14 -17 -18 -13
-14 -17 2 -4 -12 -17 -18 -14
-14 -17 2 -5 -13 -17 -18 -15
-11 -17 1 -6 -14 -17 -19 -14
-8 -17 1 -6 -14 -18 -19 -14
-8 -17 0 -7 -15 -20 -19 -15
-7 -16 -3 -8 -16 -21 -20 -17
-4 -15 -5 -10 -19 -22 -22 -19
-8 -16 -3 -9 -18 -20 -22 -18
-14 -17 -2 -8 -17 -19 -21 -16
-11 -17 -2 -9 -17 -20 -20 -15
-6 -17 -2 -8 -16 -20 -20 -14
-10 -17 0 -7 -15 -19 -20 -15
-13 -17 1 -6 -14 -19 -19 -15
-9 -16 1 -5 -14 -19 -19 -15
-5 -12 2 -3 -12 -17 -17 -14
-7 -8 5 0 -10 -14 -15 -13
-5 -6 6 1 -9 -13 -13 -11
-3 -5 6 2 -9 -13 -12 -8
-7 -5 8 3 -8 -11 -11 -5
-9 -5 10 5 -7 -10 -10 -6
-5 -6 10 6 -6 -9 -10 -7
1 -6 9 5 -7 -10 -12 -7
-2 -6 10 7 -7 -10 -11 -6
-4 -3 10 6 -8 -10 -11 -7
-3 0 8 4 -9 -11 -11 -8
0 1 5 3 -10 -13 -13 -10
-2 1 5 3 -8 -13 -12 -9
-2 2 6 5 -7 -11 -11 -8
2 6 9 8 -4 -8 -9 -4
6 9 12 12 1 -4 -6 0
5 9 13 14 4 0 -4 1
1 8 15 16 4 1 -2 3
2 9 13 12 0 -3 -3 2
6 9 9 8 -4 -6 -5 1
4 7 8 7 -5 -6 -5 1
-3 8 10 10 -2 -4 -3 2
-2 10 9 9 -3 -5 -5 0
3 9 4 5 -7 -8 -8 -3
2 5 0 1 -10 -11 -10 -5
0 1 0 0 -11 -14 -12 -6
3 0 0 -3 -12 -16 -13 -7
5 -2 -4 -6 -15 -19 -16 -10
2 -6 -5 -8 -15 -18 -16 -9
-5 -10 -6 -7 -15 -18 -16 -9
-8 -11 -6 -8 -15 -18 -16 -10
-7 -8 -7 -9 -17 -18 -18 -10
-4 -5 -6 -11 -19 -20 -19 -12
-6 -6 -6 -10 -19 -20 -19 -13
-10 -10 -5 -10 -20 -22 -20 -15
-10 -14 -6 -12 -23 -24 -24 -18
-10 -15 -5 -11 -22 -23 -25 -19
-10 -15 -3 -10 -21 -22 -24 -17
-10 -15 -5 -11 -21 -24 -23 -17
-13 -16 -5 -10 -20 -24 -21 -16
-17 -14 -6 -11 -22 -24 -22 -17
-16 -12 -8 -14 -24 -26 -24 -20
-16 -14 -8 -16 -25 -27 -25 -20
-18 -15 -9 -16 -26 -28 -25 -21
-19 -17 -9 -17 -27 -30 -26 -22
-19 -18 -8 -16 -27 -29 -27 -21
-17 -20 -7 -15 -26 -29 -28 -21
-13 -18 -7 -14 -25 -27 -27 -21
-11 -16 -6 -13 -24 -26 -26 -20
-13 -17 -7 -13 -23 -26 -26 -19
-17 -17 -8 -13 -22 -24 -25 -18
-17 -14 -8 -14 -23 -24 -24 -18
-16 -14 -7 -14 -23 -24 -23 -18
-17 -14 -7 -15 -24 -24 -23 -18
-17 -13 -7 -14 -23 -23 -22 -16
-16 -13 -6 -13 -23 -23 -22 -15
-13 -14 -8 -14 -25 -26 -24 -19
-12 -16 -10 -15 -25 -27 -25 -20
-17 -17 -8 -13 -23 -25 -24 -18
-21 -18 -5 -12 -22 -24 -24 -18
-18 -17 -4 -11 -22 -24 -25 -19
-15 -13 -3 -9 -21 -25 -27 -20
-17 -13 3 -3 -18 -23 -27 -21
-16 -16 8 6 -14 -23 -28 -23
-7 -17 14 15 -9 -21 -28 -25
0 -11 22 31 4 -12 -22 -20
3 1 33 52 24 6 -7 -7
16 15 39 71 45 24 10 7
42 31 42 89 67 46 27 21
69 52 39 106 94 72 51 43
91 82 40 123 128 108 87 77
104 123 42 137 158 147 129 119
110 169 44 143 183 183 174 165
115 210 42 140 198 214 214 209
119 241 30 130 207 237 244 244
123 264 14 110 212 253 267 268
123 273 -3 85 202 255 275 279
114 257 -15 53 177 234 262 269
93 224 -24 19 138 196 228 238
68 190 -31 -14 97 155 190 203
43 152 -43 -54 49 108 147 163
15 105 -51 -93 -6 51 93 111
-15 56 -48 -116 -54 -7 35 55
-43 13 -45 -134 -96 -56 -18 4
-66 -17 -45 -143 -121 -89 -54 -28
-78 -30 -43 -137 -121 -94 -65 -40
-73 -36 -41 -120 -107 -85 -61 -41
-59 -37 -43 -106 -95 -76 -58 -41
-49 -36 -41 -95 -87 -72 -57 -40
-45 -33 -35 -78 -72 -62 -50 -35
-40 -28 -30 -60 -58 -51 -41 -29
-33 -20 -27 -46 -46 -41 -35 -23
-23 -14 -20 -33 -36 -34 -29 -19
-17 -12 -13 -25 -30 -29 -25 -17
-17 -11 -11 -20 -28 -28 -25 -17
-19 -12 -8 -16 -24 -26 -23 -15
-15 -14 -5 -14 -23 -25 -21 -15
-11 -14 -5 -14 -23 -26 -23 -16
-13 -15 -5 -14 -23 -25 -23 -16
-17 -16 -5 -14 -22 -24 -23 -17
-20 -17 -4 -13 -21 -23 -22 -15
-22 -16 -3 -12 -21 -23 -22 -14
-20 -13 -2 -11 -21 -23 -22 -13
-13 -12 -4 -13 -24 -25 -24 -14
-10 -13 -5 -13 -25 -27 -25 -16
-15 -16 -5 -12 -23 -26 -24 -16
-17 -17 -3 -9 -21 -24 -23 -14
-15 -16 -3 -8 -19 -23 -23 -14
-12 -14 -2 -6 -17 -21 -23 -14
-10 -12 -2 -7 -17 -21 -23 -14
-9 -9 -2 -7 -17 -21 -22 -13
-12 -6 -4 -7 -18 -21 -21 -12
-14 -7 -6 -8 -18 -22 -21 -12
-15 -8 -5 -7 -18 -22 -20 -12
-16 -7 0 -6 -15 -20 -18 -10
-14 -6 2 -5 -14 -17 -17 -10
-10 -9 1 -5 -14 -17 -18 -11
-7 -11 1 -4 -14 -17 -19 -11
-8 -10 3 -3 -13 -15 -18 -10
-11 -8 4 -2 -12 -14 -17 -8
-11 -6 3 -2 -13 -13 -16 -7
-8 -4 0 -4 -14 -15 -17 -8
-7 -4 -2 -5 -14 -16 -15 -7
-8 -5 -3 -5 -14 -17 -15 -7
-8 -5 -4 -5 -13 -16 -16 -9
-7 -5 -5 -5 -13 -16 -18 -10
-7 -9 -5 -5 -13 -16 -16 -10
-6 -9 -3 -3 -11 -13 -14 -7
0 -5 -2 -2 -9 -11 -14 -6
4 -2 -2 0 -9 -10 -13 -5
2 -2 -3 -2 -10 -11 -11 -4
-6 -2 -3 0 -9 -10 -8 0
-10 0 -2 1 -9 -10 -8 1
-8 -2 -3 0 -10 -11 -9 0
-3 -2 -4 0 -9 -12 -10 -2
1 -2 0 1 -7 -11 -9 -2
3 -2 2 3 -5 -10 -7 0
1 -4 4 5 -3 -8 -6 1
-2 -4 4 6 -2 -6 -5 1
0 -2 4 5 0 -4 -3 2
1 5 3 4 0 -4 -2 3
2 9 1 3 -2 -4 -2 4
2 8 -3 2 -3 -3 -3 5
4 7 -5 1 -4 -3 -4 5
6 7 -5 2 -2 -2 -4 5
8 7 -3 4 2 0 -2 6
7 4 -2 7 4 3 1 6
8 4 0 8 6 4 3 7
11 5 -3 7 7 5 3 9
14 8 -5 7 7 6 3 10
15 13 -5 7 7 6 4 11
12 17 -4 8 8 7 6 13
10 17 -4 8 8 8 7 15
14 16 -6 5 6 6 6 14
21 17 -8 3 5 4 5 13
22 17 -6 5 7 7 8 15
20 17 -5 8 9 10 11 17
19 18 -5 10 12 12 13 19
17 20 -5 12 15 14 16 22
19 20 -5 12 15 15 17 23
23 21 -7 10 14 15 16 23
24 26 -7 10 16 17 18 25
25 30 -8 9 17 19 20 27
26 30 -8 8 17 20 21 28
24 28 -8 8 17 21 22 29
22 27 -8 9 18 23 24 29
25 27 -9 9 19 24 25 29
28 28 -10 9 19 25 25 30
29 29 -12 8 19 26 25 30
31 30 -15 6 17 24 24 30
30 31 -15 5 17 24 24 31
33 34 -14 5 19 25 24 33
39 37 -15 5 18 25 25 33
45 36 -17 4 17 23 24 33
47 35 -18 2 15 20 22 30
46 33 -17 0 14 20 22 29
38 31 -14 2 16 22 25 33
28 31 -12 4 19 25 27 36
27 31 -13 3 19 26 27 35
33 32 -15 1 17 24 27 35
35 32 -16 -3 15 23 27 36
32 33 -16 -3 15 23 27 36
28 34 -16 -4 14 23 28 36
29 33 -18 -6 12 21 27 35
33 31 -21 -9 9 19 24 32
35 29 -22 -11 7 17 21 29
31 27 -20 -10 8 18 21 28
27 25 -19 -9 8 18 22 28
29 23 -21 -10 7 16 20 26
31 23 -21 -12 5 14 19 25
30 23 -19 -11 3 12 17 24
26 23 -17 -10 3 12 16 24
23 23 -17 -10 2 10 14 23
20 20 -17 -9 1 7 10 20
21 17 -17 -10 -3 4 5 14
22 13 -15 -8 -2 4 3 12
20 12 -12 -6 0 5 5 13
14 11 -9 -3 2 6 7 14
11 9 -8 -2 2 5 5 12
11 6 -9 -4 -2 2 2 8
8 4 -9 -4 -4 0 -2 5
3 4 -9 -5 -7 -5 -5 2
1 3 -8 -6 -6 -6 -6 1
3 2 -7 -5 -7 -7 -8 0
4 1 -5 -3 -7 -7 -9 -3
8 0 -5 -3 -7 -8 -9 -4
11 -2 -5 -4 -9 -9 -10 -5
10 -4 -4 -3 -9 -10 -11 -6
3 -4 -2 1 -6 -9 -10 -6
-5 -4 1 3 -4 -8 -9 -4
-7 -4 1 3 -5 -8 -10 -4
-6 -5 0 2 -7 -10 -13 -8
-8 -6 0 1 -8 -10 -15 -9
-10 -7 0 0 -9 -11 -15 -9
-9 -9 -2 -2 -10 -13 -17 -11
-9 -10 -3 -4 -11 -15 -19 -13
-11 -12 1 -3 -10 -13 -17 -12
-11 -12 1 -2 -9 -12 -15 -11
-8 -11 -2 -3 -10 -13 -16 -13
-9 -12 -2 -4 -12 -15 -17 -12
-13 -12 -2 -5 -15 -17 -18 -12
-12 -11 -3 -7 -16 -18 -19 -13
-11 -13 -4 -9 -18 -20 -20 -15
-11 -15 -5 -10 -19 -21 -21 -16
-11 -14 -7 -10 -19 -21 -22 -16
-9 -13 -7 -9 -17 -19 -21 -15
-11 -13 -3 -6 -14 -16 -18 -13
-14 -14 2 -4 -12 -15 -17 -13
-14 -15 4 -3 -11 -14 -17 -14
-10 -13 2 -5 -12 -15 -18 -14
-10 -11 0 -7 -14 -16 -18 -14
-12 -10 -2 -8 -15 -16 -18 -14
-12 -10 -4 -9 -16 -18 -19 -15
-12 -12 -5 -10 -17 -19 -20 -16
-15 -14 -5 -9 -16 -19 -21 -16
