I II V1 V2 V3 V4 V5 V6
0 3 8 23 5 -4 1 -5
-4 2 8 23 5 -3 1 -5
-5 2 9 23 4 -4 0 -7
-4 4 11 23 5 -4 0 -7
-4 3 11 23 5 -3 0 -6
-5 0 9 21 3 -4 -2 -7
-6 -2 9 21 4 -5 -2 -7
-5 0 9 21 4 -5 -2 -6
-4 0 9 21 5 -2 0 -5
-4 0 9 21 6 -2 0 -5
-4 0 10 20 7 -3 0 -5
-5 -2 8 18 4 -5 0 -6
-8 -6 8 19 4 -2 1 -6
-10 -7 8 19 4 -2 1 -6
-10 -6 7 17 3 -3 0 -5
-9 -4 8 16 3 -3 1 -5
-6 -2 10 17 5 -3 1 -5
-5 0 11 17 6 -3 1 -5
-5 0 10 17 6 -2 1 -5
-6 -2 10 17 6 -2 0 -5
-7 -3 8 15 4 -4 -2 -6
-7 -2 8 13 3 -4 -3 -7
-7 0 9 14 4 -3 0 -6
-7 -2 8 13 4 -3 -2 -6
-9 -4 8 12 3 -3 -2 -6
-10 -5 9 13 3 -3 -2 -6
-10 -6 9 12 3 -4 -3 -7
-11 -7 8 10 4 -5 -3 -7
-11 -5 7 9 2 -5 -4 -9
-9 -3 9 10 2 -4 -2 -7
-6 0 10 10 3 -4 -2 -6
-4 2 12 12 5 -2 1 -4
-5 4 14 14 6 0 2 -4
-5 8 15 16 8 3 3 -2
-4 12 15 15 10 5 4 0
-3 14 15 15 10 4 4 0
-2 15 18 16 10 4 4 1
0 15 19 15 10 5 4 1
0 15 19 14 11 6 5 1
-2 15 20 13 11 7 6 2
-3 15 20 13 12 6 5 2
-3 16 21 13 12 7 6 3
-3 18 22 14 12 7 6 3
-3 20 22 14 13 7 6 4
-3 21 21 13 14 7 7 5
-3 21 19 12 12 7 7 6
-3 22 17 10 12 7 8 7
0 22 14 7 11 6 8 7
1 23 9 5 9 5 7 6
3 23 8 6 11 7 8 8
4 24 8 6 11 8 9 9
5 25 8 6 12 9 11 10
8 26 8 7 13 10 12 12
10 27 7 7 14 10 13 13
12 27 3 5 13 9 12 12
13 26 0 3 10 7 11 11
11 23 0 3 8 6 10 9
7 19 1 2 8 6 9 8
5 14 1 1 7 4 6 6
3 10 1 -2 6 3 5 5
2 6 2 -3 5 1 3 4
1 2 2 -4 2 -3 1 1
1 1 3 -5 1 -4 0 0
-2 0 4 -7 0 -5 -2 -2
-6 -4 4 -9 -4 -9 -6 -6
-10 -5 6 -8 -5 -10 -7 -7
-9 -5 7 -9 -6 -10 -7 -7
-6 -6 5 -11 -6 -10 -8 -7
-6 -6 4 -11 -5 -10 -8 -7
-8 -6 4 -13 -6 -11 -8 -8
-11 -8 2 -14 -8 -13 -9 -9
-12 -9 2 -15 -9 -14 -10 -9
-11 -9 3 -15 -8 -14 -10 -9
-9 -7 2 -16 -8 -14 -10 -9
-7 -6 3 -15 -7 -13 -10 -9
-8 -8 4 -15 -8 -14 -10 -9
-10 -10 4 -14 -9 -15 -10 -10
-11 -11 3 -15 -9 -16 -12 -12
-9 -10 1 -16 -9 -17 -12 -12
-9 -10 0 -18 -10 -17 -12 -12
-10 -10 1 -18 -10 -17 -12 -12
-11 -11 1 -18 -11 -19 -12 -13
-13 -12 4 -16 -10 -19 -13 -14
-15 -13 8 -11 -6 -18 -13 -15
-16 -13 17 1 2 -14 -13 -15
-16 -10 28 15 10 -10 -11 -15
-19 -6 42 31 24 -4 -7 -12
-21 2 53 49 43 8 3 -4
-17 11 59 67 61 25 15 8
-4 22 63 89 85 47 35 25
18 36 61 106 109 71 60 45
37 55 57 107 127 96 86 68
50 72 45 82 128 115 109 93
62 87 23 43 116 126 129 114
77 96 -9 -6 93 128 141 131
92 107 -50 -61 60 122 147 140
101 119 -96 -118 21 109 147 147
105 120 -149 -179 -29 81 134 142
98 108 -204 -236 -87 37 101 117
81 80 -242 -273 -133 -11 55 78
59 34 -248 -282 -162 -58 2 27
28 -12 -239 -291 -192 -107 -53 -26
-7 -37 -230 -320 -234 -156 -100 -67
-36 -46 -217 -342 -265 -188 -128 -89
-53 -47 -192 -320 -256 -188 -129 -92
-56 -48 -162 -264 -217 -165 -113 -85
-52 -54 -133 -207 -178 -144 -99 -78
-46 -55 -105 -168 -148 -127 -90 -74
-38 -47 -79 -132 -116 -104 -73 -63
-32 -33 -61 -100 -87 -80 -55 -49
-26 -24 -48 -77 -66 -66 -41 -37
-21 -20 -36 -60 -52 -56 -33 -29
-16 -18 -27 -48 -41 -49 -28 -24
-12 -17 -20 -38 -33 -43 -24 -20
-12 -17 -15 -33 -29 -40 -22 -19
-13 -18 -12 -31 -27 -39 -21 -19
-13 -18 -10 -29 -25 -39 -21 -19
-13 -18 -8 -29 -23 -38 -20 -19
-13 -19 -6 -26 -21 -37 -18 -18
-13 -20 -4 -24 -19 -37 -18 -18
-14 -20 -3 -24 -19 -37 -19 -19
-13 -20 -3 -23 -20 -38 -19 -19
-13 -19 -2 -22 -20 -38 -19 -19
-14 -19 1 -20 -19 -37 -19 -18
-15 -19 2 -18 -17 -36 -19 -18
-15 -21 3 -18 -17 -37 -19 -18
-16 -22 3 -18 -16 -37 -19 -18
-17 -23 2 -19 -16 -38 -19 -18
-17 -23 3 -18 -16 -37 -19 -17
-16 -22 3 -17 -15 -36 -18 -16
-15 -21 3 -16 -14 -37 -17 -17
-12 -19 4 -15 -14 -37 -17 -16
-10 -16 7 -13 -12 -35 -16 -15
-11 -16 7 -12 -12 -35 -16 -15
-12 -17 8 -11 -11 -34 -15 -15
-11 -16 8 -11 -11 -35 -16 -14
-10 -16 7 -12 -11 -35 -15 -13
-10 -16 7 -12 -10 -35 -14 -15
-9 -15 7 -11 -9 -34 -14 -14
-8 -14 8 -12 -9 -33 -13 -14
-10 -15 8 -12 -9 -34 -13 -14
-11 -16 8 -11 -10 -35 -14 -15
-12 -16 8 -10 -10 -36 -15 -16
-12 -15 9 -8 -10 -36 -15 -16
-9 -12 9 -7 -7 -34 -14 -16
-4 -8 9 -5 -4 -32 -11 -13
-2 -6 11 -4 -3 -31 -9 -10
-3 -8 10 -4 -3 -31 -9 -9
-5 -11 7 -5 -5 -33 -11 -10
-6 -11 8 -5 -5 -33 -10 -10
-6 -10 7 -5 -5 -34 -10 -11
-6 -11 8 -3 -4 -33 -10 -11
-6 -12 8 -3 -3 -34 -10 -11
-5 -10 8 -2 -2 -34 -10 -11
-3 -9 10 1 1 -32 -9 -9
0 -8 9 3 1 -32 -8 -9
0 -9 9 2 2 -31 -7 -9
-2 -10 9 -2 3 -30 -6 -7
1 -10 8 -2 3 -30 -5 -7
2 -8 8 1 4 -30 -5 -7
2 -8 8 3 5 -29 -5 -7
1 -8 8 7 5 -30 -4 -6
1 -9 7 10 5 -31 -5 -6
1 -10 7 13 6 -30 -4 -6
4 -8 9 17 9 -26 -2 -4
6 -6 10 21 11 -24 0 -2
6 -7 9 24 11 -23 0 -3
6 -8 9 30 12 -20 1 -3
6 -8 9 34 13 -18 2 -3
6 -8 9 35 15 -15 3 -2
8 -8 9 36 14 -13 2 0
10 -7 10 39 15 -11 3 0
12 -6 11 43 18 -9 6 1
13 -7 11 46 21 -7 8 2
14 -8 10 48 22 -5 7 3
16 -6 10 50 22 -3 8 4
18 -4 9 50 23 -3 9 4
19 -4 8 51 25 1 11 5
20 -4 8 55 27 3 12 5
23 -3 9 56 28 6 12 5
26 0 10 58 29 9 13 6
26 0 10 61 30 10 13 6
26 -2 10 64 31 11 13 6
26 -2 10 65 31 12 14 5
25 -3 10 66 31 14 14 5
24 -3 9 67 31 14 13 5
26 -3 10 68 32 15 13 6
29 0 11 70 35 18 15 7
34 3 13 73 37 21 16 8
37 6 15 75 38 24 18 9
35 6 16 75 38 25 17 9
32 3 16 75 37 25 16 8
31 3 16 76 36 25 15 8
31 3 16 77 39 27 17 8
31 3 16 78 38 29 17 8
32 2 16 77 37 32 16 8
33 2 17 77 37 32 15 8
33 2 17 77 37 32 15 8
32 3 17 77 37 32 16 8
32 4 17 76 37 31 16 8
31 4 19 78 38 32 17 10
30 5 20 78 38 32 17 11
30 6 20 77 38 31 17 11
30 6 20 78 39 31 17 11
29 6 21 78 39 31 18 11
27 6 20 77 37 30 17 11
27 8 22 78 38 32 19 13
30 11 22 76 39 32 19 13
29 13 23 74 39 31 19 13
26 13 23 72 40 32 19 13
23 13 23 70 39 31 18 12
20 13 22 68 37 29 17 12
18 12 22 66 35 27 16 11
16 12 24 64 36 28 17 11
16 13 25 63 36 28 17 11
14 13 23 59 32 25 14 9
10 11 22 53 30 22 13 8
7 9 22 49 27 22 11 7
5 7 20 46 25 21 10 5
2 5 20 43 24 19 9 4
-3 4 19 39 23 17 7 4
-4 4 18 36 20 15 6 2
-3 5 17 33 17 12 5 0
0 8 18 32 16 11 5 0
1 9 17 30 14 10 3 -2
-3 6 17 27 12 8 1 -4
-5 3 16 23 10 5 -2 -5
-4 2 15 20 9 4 -2 -6
-5 0 12 18 5 2 -4 -7
-8 -3 11 14 3 -2 -6 -9
-10 -3 9 12 2 -3 -8 -9
-8 -2 10 12 1 -4 -8 -9
-7 0 11 13 1 -3 -6 -8
-8 0 12 12 1 -3 -5 -7
-8 -2 12 11 1 -4 -6 -8
-8 -3 12 10 1 -4 -6 -9
-11 -4 11 10 1 -5 -6 -9
-12 -5 11 10 0 -5 -6 -9
-12 -6 10 9 0 -6 -7 -10
-13 -7 10 9 0 -6 -8 -10
-13 -7 10 9 0 -7 -9 -10
-11 -5 9 8 -2 -8 -9 -11
-9 -3 9 10 0 -7 -8 -10
-9 -3 10 11 1 -7 -8 -9
-9 -3 10 11 1 -7 -8 -9
-9 -3 10 11 1 -8 -7 -9
-9 -3 10 10 0 -9 -7 -9
-10 -5 10 9 0 -9 -7 -9
-12 -6 10 9 0 -9 -8 -9
-12 -8 9 9 0 -10 -8 -10
-12 -8 9 8 1 -10 -8 -10
-12 -6 8 8 0 -10 -9 -10
-12 -5 9 9 0 -10 -8 -9
-13 -6 10 9 0 -11 -8 -10
-13 -6 10 8 0 -11 -8 -11
-13 -6 10 9 0 -11 -8 -10
-11 -4 10 9 1 -11 -7 -8
-10 -4 11 8 2 -10 -6 -7
-11 -6 10 7 1 -11 -6 -8
-12 -8 9 6 -2 -11 -7 -9
-12 -8 10 6 -2 -11 -7 -10
-12 -6 10 7 -2 -11 -7 -10
-13 -7 11 8 0 -11 -7 -9
-14 -8 10 7 0 -13 -8 -10
-14 -9 11 7 1 -12 -7 -10
-14 -8 10 5 0 -14 -8 -10
-15 -8 10 5 0 -14 -8 -9
-15 -8 10 5 0 -14 -7 -8
-12 -6 10 5 1 -14 -6 -8
-10 -4 12 6 3 -13 -5 -7
-9 -3 12 5 1 -14 -7 -8
-11 -4 13 6 0 -14 -6 -8
-12 -4 13 7 1 -14 -6 -8
-11 0 15 9 3 -12 -4 -5
-9 3 16 10 5 -10 -2 -4
-7 4 19 11 7 -9 -2 -3
-6 6 20 11 7 -9 -2 -2
-5 8 20 10 6 -9 -2 -2
-6 6 19 10 7 -10 -2 -3
-8 4 19 9 7 -10 -2 -3
-8 6 22 10 7 -10 0 -3
-8 8 24 11 7 -11 -2 -3
-9 11 24 11 7 -12 -2 -3
-9 12 24 11 8 -12 0 -2
-8 12 22 11 9 -14 1 0
-8 11 20 10 9 -15 2 1
-8 12 17 7 8 -14 2 1
-7 13 13 3 5 -14 2 1
-6 14 9 2 5 -12 2 2
-3 16 8 3 8 -9 5 5
1 18 8 4 8 -7 6 6
1 18 8 4 8 -6 6 5
1 18 7 4 7 -5 5 5
4 19 6 5 8 -3 6 5
8 19 4 3 8 -2 6 5
8 17 2 2 7 -2 6 6
4 12 1 -2 5 -2 4 5
2 10 1 -4 3 -3 3 3
2 8 1 -4 2 -3 3 2
1 4 2 -5 2 -2 1 0
-2 -2 3 -6 0 -4 -2 -3
-3 -4 2 -7 -2 -5 -5 -6
-4 -6 2 -8 -4 -5 -6 -7
-8 -8 4 -9 -6 -6 -9 -10
-13 -12 7 -10 -7 -6 -10 -13
-16 -15 8 -12 -9 -8 -13 -15
-18 -19 6 -15 -10 -8 -15 -16
-19 -20 5 -16 -10 -7 -15 -16
-17 -18 6 -15 -10 -5 -14 -15
-17 -19 5 -16 -11 -4 -15 -15
-20 -21 4 -19 -13 -5 -17 -17
-20 -22 3 -24 -13 -5 -17 -17
-20 -21 3 -24 -13 -3 -16 -17
-22 -23 1 -24 -14 -3 -16 -18
-25 -26 1 -25 -15 -2 -17 -18
-26 -27 3 -23 -14 1 -17 -18
-23 -25 2 -23 -14 1 -17 -18
-22 -24 2 -21 -14 3 -16 -17
-23 -26 1 -21 -15 4 -16 -17
-24 -28 -3 -22 -16 2 -18 -19
-25 -29 -3 -22 -17 3 -19 -19
-25 -29 -2 -20 -17 4 -18 -19
-25 -28 1 -15 -15 6 -17 -17
-26 -28 5 -10 -11 9 -17 -18
-28 -27 13 1 -6 12 -17 -19
-30 -23 24 16 6 19 -14 -17
-32 -16 37 32 20 28 -8 -13
-34 -8 48 51 36 43 2 -5
-30 0 54 67 54 59 14 6
-18 8 57 86 75 80 32 20
2 20 55 102 96 103 52 36
19 33 53 108 113 129 74 58
36 51 45 95 119 150 99 82
57 68 26 65 114 161 118 103
76 80 -4 22 94 163 131 119
89 90 -43 -34 61 156 137 131
96 99 -89 -96 20 142 135 138
99 99 -145 -160 -31 114 120 131
93 86 -201 -220 -89 71 89 107
76 59 -241 -258 -137 22 43 69
50 15 -252 -272 -171 -27 -12 17
16 -27 -245 -286 -205 -76 -67 -36
-21 -51 -235 -312 -241 -119 -106 -71
-52 -58 -222 -327 -264 -143 -128 -86
-67 -58 -196 -302 -252 -139 -127 -87
-69 -57 -165 -244 -215 -118 -112 -80
-64 -63 -135 -187 -178 -99 -100 -76
-60 -68 -106 -145 -148 -82 -91 -72
-56 -63 -81 -110 -118 -61 -76 -63
-51 -52 -62 -78 -91 -39 -60 -50
-44 -43 -49 -54 -72 -25 -48 -40
-34 -36 -37 -34 -57 -15 -38 -32
-29 -32 -29 -20 -45 -7 -32 -26
-27 -33 -24 -12 -37 -4 -29 -23
-27 -34 -20 -8 -35 -2 -27 -23
-28 -35 -15 -3 -31 1 -25 -20
-29 -36 -12 1 -28 2 -24 -20
-31 -38 -10 3 -27 1 -25 -21
-32 -40 -8 4 -26 2 -25 -21
-33 -40 -8 5 -26 2 -26 -21
-33 -40 -6 7 -25 1 -26 -21
-32 -39 -5 9 -25 1 -25 -20
-31 -39 -4 10 -25 -3 -26 -21
-32 -39 -2 13 -23 -4 -25 -20
-31 -38 -2 14 -23 -4 -25 -20
-27 -36 -2 15 -21 -3 -23 -19
-26 -34 -2 15 -21 1 -22 -17
-28 -35 -2 16 -22 3 -22 -17
-29 -35 -2 16 -23 4 -22 -17
-28 -34 1 17 -20 7 -21 -15
-26 -32 2 19 -19 9 -21 -15
-25 -31 5 23 -17 12 -19 -14
-25 -32 5 24 -17 12 -19 -14
-25 -34 6 26 -15 14 -18 -12
-24 -34 5 27 -15 15 -19 -13
-24 -34 5 28 -16 16 -19 -13
-26 -35 3 27 -16 16 -20 -14
-27 -35 3 28 -15 18 -19 -13
-26 -33 4 30 -14 20 -18 -11
-24 -31 4 30 -14 21 -18 -12
-22 -29 5 32 -14 22 -17 -11
-21 -27 5 35 -14 23 -16 -10
-21 -28 6 36 -13 25 -16 -10
-21 -28 6 37 -12 26 -16 -10
-19 -27 6 39 -12 28 -16 -10
-20 -29 7 42 -11 29 -14 -9
-22 -30 6 40 -10 30 -15 -10
-22 -30 4 39 -10 30 -16 -11
-21 -30 4 42 -10 33 -14 -10
-21 -29 4 44 -9 35 -13 -8
-19 -28 5 46 -8 38 -13 -7
-16 -25 6 49 -7 43 -12 -6
-14 -21 6 51 -6 45 -10 -5
-14 -21 6 52 -5 45 -10 -4
-14 -22 6 53 -5 45 -11 -5
-13 -23 5 54 -5 45 -11 -6
-14 -25 6 53 -4 45 -10 -5
-15 -26 5 55 -3 45 -10 -4
-14 -26 4 55 -3 45 -10 -4
-13 -25 5 57 -2 46 -8 -2
-13 -24 3 57 -3 45 -9 -3
-13 -24 3 60 -3 44 -8 -3
-11 -22 3 63 0 45 -7 0
-9 -20 5 66 2 46 -6 2
-6 -19 5 68 3 47 -5 2
-4 -19 6 71 6 48 -3 4
-5 -20 6 70 6 48 -3 4
-5 -21 5 71 6 49 -3 5
-6 -22 3 72 5 49 -3 5
-5 -23 3 74 6 49 -2 5
-4 -21 3 76 7 50 1 6
-2 -17 3 80 8 50 2 7
3 -14 4 84 10 51 2 8
5 -12 5 87 12 51 3 9
5 -13 5 89 14 52 4 9
5 -14 5 93 16 53 4 10
7 -14 5 95 17 54 7 12
9 -14 4 96 17 54 7 12
9 -15 4 97 17 55 7 12
12 -14 4 100 19 56 9 13
15 -12 5 103 21 58 10 14
17 -11 5 105 20 57 9 14
16 -12 5 107 20 57 9 14
16 -12 6 111 22 56 10 15
16 -13 7 117 24 57 11 15
16 -15 7 120 25 57 11 15
17 -15 5 119 24 56 10 14
17 -15 6 118 25 56 11 15
17 -14 7 119 27 58 13 17
20 -12 7 120 28 58 14 18
24 -8 9 121 29 58 14 20
25 -8 9 121 27 56 13 19
23 -10 9 121 27 55 13 18
23 -9 9 120 27 55 13 17
27 -5 12 123 30 58 16 20
29 -4 13 123 31 58 16 22
27 -6 12 121 30 57 15 21
26 -6 12 119 30 56 15 21
25 -5 12 118 30 56 14 21
24 -4 12 117 29 55 14 21
23 -3 11 116 29 55 14 21
23 -2 12 117 29 55 14 21
24 0 12 116 29 54 14 21
23 1 12 116 30 54 15 22
22 1 14 116 31 54 16 22
21 1 14 114 31 54 16 22
22 3 15 112 32 55 16 23
22 5 17 112 34 56 17 25
22 6 18 111 34 57 18 25
19 6 17 108 34 56 19 25
16 6 16 105 33 54 18 24
14 6 17 105 33 52 18 24
12 6 17 102 32 51 17 23
10 6 17 99 31 51 16 23
7 5 16 96 29 50 15 22
7 5 16 92 27 49 15 20
6 6 16 88 26 48 14 21
5 4 15 84 25 46 13 20
2 2 15 80 23 45 12 20
-2 3 15 77 22 44 10 19
-2 4 14 72 19 40 8 17
-3 4 15 70 18 39 9 17
-5 1 13 65 14 36 6 16
-8 -3 10 60 10 32 4 12
-11 -5 9 56 8 29 2 9
-11 -6 10 54 8 29 1 10
-11 -5 10 50 6 27 0 8
-10 -5 10 47 5 25 0 8
-11 -5 8 45 4 24 -2 8
-13 -8 8 42 4 23 -3 7
-16 -11 8 38 1 22 -5 6
-17 -12 7 38 0 21 -5 6
-18 -13 5 36 -3 20 -6 5
-19 -14 6 35 -3 19 -6 5
-17 -12 7 35 0 20 -5 6
-13 -9 8 35 1 19 -5 6
-10 -7 8 34 2 20 -4 7
-8 -6 7 33 2 21 -3 8
-7 -4 7 33 2 21 -2 9
-9 -5 7 32 2 21 -2 9
-10 -6 6 29 0 19 -4 7
-12 -6 7 29 -2 18 -5 6
-13 -8 8 29 -2 18 -5 5
-14 -8 7 29 0 17 -6 5
-14 -8 7 28 0 16 -6 5
-14 -8 7 28 0 15 -5 5
-13 -7 7 28 2 17 -4 7
-12 -6 7 28 3 17 -4 8
-13 -7 8 28 3 18 -2 9
-13 -8 7 24 2 15 -4 7
-13 -8 7 23 1 14 -6 5
-12 -7 8 24 1 14 -5 5
-12 -6 9 24 2 14 -5 6
-12 -6 8 24 2 14 -5 6
-13 -7 9 23 2 13 -5 6
-15 -11 10 23 3 13 -5 6
-15 -11 9 21 3 13 -5 6
-14 -9 7 20 2 12 -5 6
-14 -9 7 20 3 13 -4 7
-14 -9 7 19 3 13 -4 7
-14 -8 6 17 1 11 -5 6
-14 -7 6 17 1 11 -5 5
-13 -7 7 16 0 10 -5 5
-13 -8 7 16 0 9 -6 3
-14 -9 8 16 1 10 -7 3
-15 -10 7 15 1 9 -7 3
-15 -10 7 13 1 8 -7 3
-15 -10 7 12 0 7 -7 2
-15 -10 7 12 0 8 -6 2
-14 -9 9 13 2 8 -4 4
-14 -8 8 11 1 6 -6 2
-16 -9 8 11 0 6 -5 2
-14 -7 9 11 1 6 -5 2
-11 -2 11 13 3 9 -3 3
-8 3 14 15 6 12 0 5
-6 5 16 16 7 13 2 8
-6 6 18 16 7 13 3 7
-8 5 18 15 8 13 4 7
-8 5 17 13 9 12 3 6
-6 6 16 13 9 12 3 6
-5 7 18 13 8 11 2 6
-7 9 20 14 7 11 2 6
-8 10 21 15 8 11 3 6
-7 11 22 15 9 11 4 7
-7 12 21 14 9 10 4 6
-7 13 19 12 9 11 5 6
-7 15 16 9 8 10 5 6
-5 16 13 7 7 9 4 7
-3 18 10 6 8 10 6 9
1 20 6 5 8 11 7 10
4 24 5 6 10 12 8 11
6 26 6 9 11 13 10 12
5 23 6 8 9 12 9 12
3 20 5 7 9 11 8 11
6 22 3 6 9 11 9 11
11 23 0 5 9 11 11 13
12 20 -3 3 7 9 9 12
8 16 -4 -2 6 7 7 10
7 16 -2 -2 6 7 7 10
7 15 0 -3 6 6 6 8
6 11 0 -4 5 4 4 6
5 6 1 -5 3 1 2 2
5 3 1 -5 1 -2 0 0
3 1 1 -8 -3 -5 -4 -4
-3 -4 2 -9 -4 -6 -6 -7
-8 -7 5 -9 -5 -7 -6 -8
-10 -10 6 -11 -6 -9 -7 -8
-12 -11 5 -13 -7 -10 -8 -9
-13 -12 3 -14 -8 -12 -9 -10
-14 -12 4 -14 -7 -12 -9 -11
-13 -12 3 -16 -9 -14 -12 -13
-13 -12 3 -17 -10 -15 -13 -13
-13 -11 3 -17 -10 -15 -12 -13
-13 -11 2 -16 -10 -15 -12 -13
-12 -11 2 -16 -10 -15 -12 -13
-13 -12 1 -17 -11 -16 -12 -14
-15 -14 2 -16 -10 -16 -11 -14
-15 -14 1 -17 -10 -17 -12 -15
-14 -14 1 -18 -11 -18 -13 -17
-12 -13 0 -18 -11 -17 -13 -17
-11 -12 1 -17 -10 -17 -12 -17
-13 -13 0 -17 -12 -18 -12 -18
-15 -15 0 -17 -13 -19 -13 -19
-16 -15 1 -16 -11 -19 -14 -20
-17 -14 5 -11 -8 -17 -13 -20
-17 -12 14 0 2 -12 -10 -18
-17 -7 25 13 12 -6 -6 -16
-19 0 38 32 29 5 2 -11
-20 9 50 53 49 19 13 -3
-12 19 57 71 67 35 27 9
3 28 57 88 85 53 43 21
22 37 54 104 102 71 60 36
37 49 52 111 118 91 80 56
54 64 45 102 127 109 103 77
74 79 28 74 121 119 121 96
96 92 3 35 103 120 132 110
110 103 -30 -19 75 114 137 120
119 112 -75 -85 34 100 136 126
123 113 -130 -156 -21 70 119 116
116 101 -184 -222 -80 26 88 93
97 72 -224 -268 -134 -25 39 53
67 29 -239 -290 -174 -76 -17 1
32 -10 -236 -308 -206 -123 -66 -48
-5 -29 -231 -336 -239 -160 -102 -79
-38 -35 -221 -349 -257 -179 -118 -92
-56 -38 -197 -323 -244 -174 -116 -92
-57 -39 -166 -267 -207 -154 -103 -88
-54 -48 -137 -213 -172 -136 -93 -87
-52 -54 -109 -170 -142 -119 -83 -83
-47 -46 -83 -135 -114 -101 -71 -77
-38 -32 -63 -103 -86 -79 -55 -64
-31 -23 -47 -77 -65 -63 -41 -54
-24 -19 -34 -58 -50 -52 -32 -47
-20 -16 -25 -43 -37 -45 -26 -40
-17 -15 -19 -34 -31 -39 -22 -37
-15 -15 -15 -30 -27 -38 -20 -38
-16 -16 -12 -27 -23 -38 -19 -37
-17 -19 -11 -27 -22 -38 -20 -37
-18 -21 -8 -25 -22 -37 -20 -38
-18 -21 -6 -23 -20 -36 -19 -38
-17 -19 -4 -22 -19 -36 -18 -38
-16 -18 -3 -20 -19 -37 -19 -39
-17 -17 0 -18 -18 -38 -20 -40
-17 -18 1 -18 -17 -37 -19 -40
-17 -19 2 -18 -16 -37 -19 -41
-16 -20 2 -16 -16 -36 -18 -40
-16 -20 2 -16 -15 -36 -17 -39
-16 -20 2 -17 -14 -36 -16 -39
-15 -19 2 -17 -14 -36 -16 -40
-15 -18 2 -16 -14 -35 -15 -40
-16 -17 3 -16 -14 -36 -16 -40
-17 -17 3 -16 -15 -36 -17 -41
-17 -17 4 -15 -15 -36 -17 -41
-17 -15 6 -13 -12 -36 -15 -40
-14 -13 7 -11 -10 -38 -14 -40
-12 -13 7 -9 -10 -38 -15 -41
-13 -13 8 -8 -9 -36 -13 -41
-13 -12 6 -11 -10 -35 -14 -43
-13 -13 6 -10 -9 -32 -13 -43
-12 -14 6 -9 -9 -31 -13 -43
-12 -12 5 -9 -8 -32 -14 -43
-12 -11 6 -9 -9 -30 -13 -44
-12 -11 7 -7 -9 -28 -13 -45
-12 -11 8 -6 -8 -25 -12 -45
-12 -11 8 -6 -7 -23 -13 -46
-11 -12 8 -5 -6 -21 -12 -46
-9 -11 8 -3 -4 -20 -10 -45
-6 -8 7 -4 -3 -18 -10 -45
-4 -7 8 -2 -2 -15 -8 -44
-4 -6 9 0 -2 -12 -7 -44
-4 -6 8 -3 -3 -12 -7 -45
-8 -9 7 -2 -3 -12 -8 -46
-9 -12 7 1 -3 -12 -9 -46
-6 -10 7 1 -3 -10 -9 -47
-4 -7 8 3 1 -7 -7 -45
-3 -7 8 4 0 -6 -7 -45
-3 -8 8 5 2 -4 -5 -44
0 -6 7 5 2 -3 -4 -44
2 -4 7 7 4 2 -2 -41
2 -5 7 8 4 3 -2 -43
0 -6 6 7 3 3 -3 -44
0 -5 6 8 2 4 -4 -44
1 -6 6 10 2 5 -4 -45
1 -5 7 12 4 8 -2 -45
3 -4 8 15 8 11 -2 -44
6 -2 9 17 9 14 1 -41
8 0 9 18 10 16 2 -41
9 0 7 18 10 17 2 -43
9 -2 7 20 11 20 4 -41
9 -3 7 21 12 22 5 -41
10 -2 6 22 13 23 4 -44
11 0 7 25 14 25 5 -43
13 1 7 27 14 26 5 -44
14 1 7 29 16 28 5 -44
15 0 7 31 17 30 6 -44
16 0 7 34 18 33 7 -43
18 2 7 35 20 35 9 -41
20 4 6 36 21 36 9 -43
22 3 4 38 21 38 9 -43
21 1 3 39 21 40 10 -44
22 2 2 39 22 42 11 -43
25 5 3 42 23 44 11 -43
28 7 6 45 25 49 12 -43
31 9 7 47 26 50 12 -43
34 11 7 49 28 51 13 -43
37 11 8 52 28 52 14 -41
37 10 8 53 29 52 15 -41
35 8 8 53 30 52 15 -43
36 8 9 55 31 53 16 -43
36 9 8 56 30 52 16 -43
36 8 8 56 31 52 15 -44
34 6 8 56 30 51 14 -46
33 6 8 57 30 49 13 -47
35 8 10 59 31 50 14 -47
38 9 12 61 33 51 15 -46
39 11 12 62 33 51 16 -45
42 12 12 62 34 51 17 -45
44 14 12 63 34 52 18 -45
46 16 12 63 34 52 18 -44
44 16 14 64 34 53 19 -44
43 17 14 64 35 52 19 -45
42 18 14 64 35 52 18 -46
40 19 14 64 35 51 18 -47
39 20 14 65 35 51 18 -47
39 20 14 64 36 50 18 -47
37 18 15 64 35 51 19 -47
35 16 15 63 36 51 19 -47
33 17 16 62 37 52 20 -47
33 19 15 62 37 51 20 -48
33 21 15 61 37 51 20 -48
32 23 16 60 38 51 21 -47
30 24 16 59 36 50 19 -49
29 24 18 58 36 50 19 -50
27 24 18 56 36 49 18 -52
25 23 18 54 35 48 18 -53
22 22 18 53 35 49 18 -52
20 22 18 51 33 47 17 -53
18 22 18 48 32 46 17 -52
15 19 17 45 30 45 16 -54
13 16 15 40 28 43 15 -57
11 16 14 36 25 38 12 -59
11 17 14 34 23 37 11 -60
11 18 15 33 22 37 11 -61
11 18 15 31 20 35 11 -62
9 16 15 28 18 32 8 -64
6 12 14 26 16 30 6 -66
5 10 14 23 16 29 6 -67
5 11 12 20 13 27 4 -68
2 9 11 18 11 26 4 -68
0 7 11 16 9 25 3 -68
0 7 11 13 8 23 1 -68
-4 6 9 12 6 21 -2 -69
-7 4 9 12 5 20 -2 -68
-6 4 9 11 5 20 -2 -67
-4 7 9 10 5 20 -2 -66
-4 6 11 12 6 21 -2 -64
-5 5 10 11 6 20 -2 -62
-5 3 9 10 5 20 0 -61
-4 3 8 9 4 19 -2 -61
-4 3 8 9 4 18 -2 -60
-4 3 7 8 4 17 -3 -59
-4 3 7 7 3 16 -3 -58
-4 5 8 9 4 17 -3 -57
-4 7 8 9 3 16 -3 -56
-6 4 8 8 3 15 -3 -56
-8 2 5 6 2 13 -4 -57
-6 4 6 7 4 14 -2 -54
-4 6 7 7 5 16 0 -51
-2 8 8 8 5 16 0 -49
-2 7 8 8 6 16 1 -47
-3 6 8 8 6 15 1 -46
-4 5 8 8 4 14 0 -47
-5 3 7 8 4 13 -2 -47
-6 3 8 9 6 13 -2 -45
-6 3 9 10 7 13 -2 -43
-6 2 9 10 6 13 -2 -43
-6 2 8 9 5 12 -2 -41
-7 1 7 7 5 12 -2 -40
-8 1 7 7 5 13 -2 -39
-9 0 7 6 4 12 -3 -40
-8 0 8 6 4 12 -3 -39
-7 1 8 5 3 10 -3 -38
-6 2 9 6 3 10 -3 -37
-7 2 8 6 3 9 -4 -36
-8 1 8 5 3 8 -4 -34
-10 -3 8 4 3 7 -5 -34
-11 -6 8 3 3 6 -4 -33
-11 -6 8 3 3 6 -4 -31
-8 -3 9 5 4 9 -2 -28
-4 1 11 6 5 10 0 -26
-4 3 10 5 4 10 -2 -27
-5 4 10 5 4 9 0 -25
-4 6 10 6 5 9 0 -23
-5 7 12 7 6 10 1 -21
-6 9 13 8 8 11 2 -19
-5 10 14 9 8 12 3 -17
-4 12 15 9 9 13 4 -14
-4 14 17 10 9 14 5 -12
-4 14 18 10 10 14 6 -11
-4 14 19 10 10 13 7 -10
-4 14 20 10 10 12 6 -9
-5 15 21 10 11 12 5 -9
-5 15 22 11 11 11 5 -8
-4 17 22 11 11 12 6 -7
-3 19 21 11 12 13 8 -5
0 22 19 9 12 13 8 -3
1 23 18 8 12 13 9 -2
2 25 14 6 10 12 9 1
4 26 9 3 9 12 9 2
6 27 6 4 11 13 10 4
8 28 5 5 12 13 11 7
11 29 6 7 12 14 12 9
13 30 6 7 12 14 12 10
13 29 4 6 12 13 12 11
12 27 2 5 12 13 13 13
13 24 -2 3 11 12 12 13
12 21 -3 1 9 10 10 12
11 19 -2 -2 7 7 8 10
10 17 2 -3 6 6 7 8
8 14 3 -2 5 6 7 7
7 11 1 -3 3 2 4 4
5 7 1 -5 2 -2 1 1
3 4 1 -7 0 -4 0 -2
0 1 3 -7 -2 -6 -2 -4
-4 -2 4 -8 -3 -7 -4 -6
-6 -4 6 -9 -5 -10 -6 -8
-7 -6 5 -11 -6 -12 -8 -9
-10 -8 4 -13 -7 -12 -8 -10
-13 -8 3 -13 -6 -12 -7 -11
-12 -8 3 -14 -6 -12 -7 -11
-10 -8 2 -16 -8 -13 -8 -11
-10 -8 2 -16 -8 -14 -8 -11
-10 -7 3 -17 -8 -14 -8 -11
-10 -6 2 -18 -9 -15 -9 -12
-10 -7 2 -18 -9 -15 -10 -11
-12 -10 1 -19 -9 -16 -10 -12
-12 -10 0 -21 -9 -17 -11 -14
-12 -10 0 -22 -9 -18 -11 -13
-13 -11 0 -22 -9 -18 -11 -12
-11 -11 -3 -23 -10 -18 -11 -13
-10 -8 -2 -23 -10 -18 -11 -13
-10 -7 -2 -24 -10 -19 -12 -14
-11 -9 0 -24 -10 -20 -12 -14
-12 -8 3 -21 -8 -19 -11 -13
-14 -6 9 -15 -2 -17 -9 -11
-17 -4 16 -5 6 -13 -7 -11
-18 0 27 11 18 -6 -2 -8
-18 10 40 30 36 8 8 -2
-15 21 52 50 56 24 21 10
-6 29 56 67 74 39 34 22
9 34 56 84 92 56 50 35
27 44 53 94 106 73 67 51
46 57 50 94 118 91 89 70
63 70 40 76 121 105 108 91
84 80 21 46 112 111 120 106
103 90 -8 4 91 107 128 116
115 101 -44 -54 58 98 130 127
122 107 -91 -124 11 76 122 127
122 103 -145 -199 -48 39 99 112
110 86 -196 -266 -109 -11 57 79
85 51 -227 -306 -158 -62 6 33
52 10 -233 -325 -194 -110 -46 -17
15 -16 -229 -349 -227 -150 -87 -54
-23 -28 -223 -378 -253 -177 -111 -72
-51 -32 -207 -376 -256 -184 -117 -78
-59 -30 -180 -331 -228 -169 -108 -73
-56 -31 -150 -269 -189 -147 -95 -68
-55 -45 -122 -218 -159 -132 -88 -68
-52 -51 -98 -179 -134 -117 -80 -66
-46 -43 -74 -143 -103 -98 -66 -56
-39 -31 -57 -113 -77 -79 -51 -44
-32 -24 -41 -89 -59 -65 -39 -34
-24 -17 -31 -69 -46 -55 -30 -28
-18 -13 -25 -57 -35 -50 -25 -23
-17 -14 -20 -52 -32 -47 -23 -21
-18 -16 -16 -48 -29 -46 -23 -22
-19 -17 -12 -44 -25 -45 -21 -20
-20 -18 -11 -41 -24 -44 -21 -20
-19 -20 -11 -40 -24 -45 -22 -22
-19 -21 -10 -38 -22 -45 -22 -21
-19 -19 -8 -35 -21 -44 -21 -19
-20 -19 -6 -33 -22 -45 -20 -19
-20 -19 -5 -32 -22 -46 -21 -20
-21 -20 -3 -29 -20 -46 -21 -20
-22 -21 -3 -28 -19 -47 -21 -21
-22 -22 -2 -26 -18 -46 -20 -20
-22 -22 0 -24 -16 -45 -19 -19
-19 -21 0 -24 -16 -45 -20 -19
-18 -19 -2 -23 -17 -45 -20 -20
-19 -19 0 -21 -16 -44 -18 -18
-20 -18 1 -19 -16 -44 -18 -18
-20 -17 1 -18 -16 -45 -19 -18
-20 -18 3 -15 -16 -46 -19 -18
-20 -19 4 -14 -16 -48 -20 -19
-20 -18 5 -12 -15 -47 -19 -19
-19 -18 4 -11 -15 -46 -18 -19
-18 -19 5 -9 -14 -46 -17 -18
-17 -19 5 -8 -13 -46 -18 -18
-17 -18 4 -7 -14 -46 -18 -18
-17 -17 3 -7 -15 -47 -19 -19
-17 -17 4 -6 -13 -46 -18 -19
-18 -17 5 -4 -11 -47 -17 -18
-20 -19 3 -2 -13 -49 -19 -20
-21 -21 4 1 -12 -49 -19 -19
-19 -19 5 3 -9 -47 -17 -18
-15 -17 5 4 -9 -47 -16 -17
-12 -16 4 5 -9 -47 -16 -16
-10 -14 4 5 -8 -48 -15 -16
-12 -14 4 6 -8 -49 -14 -15
-14 -16 4 6 -9 -49 -14 -14
-14 -15 3 7 -8 -48 -13 -14
-12 -14 4 9 -8 -47 -13 -13
-12 -13 4 11 -8 -46 -14 -15
-13 -15 5 13 -9 -45 -14 -16
-13 -17 6 15 -9 -43 -14 -16
-13 -18 6 16 -9 -40 -14 -15
-13 -19 6 18 -7 -38 -12 -14
-13 -18 4 17 -7 -38 -12 -15
-11 -16 3 19 -6 -35 -11 -14
-8 -14 2 21 -6 -33 -11 -13
-6 -13 2 22 -4 -33 -11 -12
-6 -12 2 24 -3 -31 -10 -11
-5 -11 3 27 -3 -30 -10 -11
-5 -11 4 30 -3 -28 -9 -10
-4 -12 4 32 -2 -27 -9 -10
-4 -12 4 34 0 -25 -8 -10
-3 -12 3 37 1 -22 -6 -9
-3 -13 1 37 2 -20 -6 -7
-2 -13 1 39 3 -18 -6 -7
0 -13 2 42 4 -15 -5 -6
1 -12 1 43 5 -15 -5 -6
1 -13 1 44 5 -16 -6 -8
0 -13 2 49 6 -14 -5 -8
3 -11 3 52 7 -12 -4 -7
8 -8 4 56 9 -10 -3 -5
10 -7 5 59 11 -7 -2 -5
11 -7 5 61 13 -4 2 -4
12 -7 3 62 14 -2 3 -4
14 -7 3 65 15 1 4 -2
16 -6 2 67 15 2 4 0
18 -5 2 68 16 3 3 -2
19 -3 2 71 16 8 3 -3
20 -2 2 74 16 8 3 -3
21 -2 2 77 17 9 4 -2
22 -2 2 79 19 8 4 -2
21 -5 3 81 20 9 5 0
19 -8 1 82 19 8 5 -2
19 -9 2 85 20 10 7 1
21 -8 2 86 21 11 7 1
21 -8 2 88 21 11 8 1
24 -7 1 88 22 11 8 1
30 0 4 91 23 11 8 2
33 3 6 94 25 12 9 3
32 2 8 98 26 12 8 3
30 0 9 102 25 11 7 1
29 0 10 104 25 11 9 2
29 1 9 103 26 10 9 3
29 2 9 102 27 10 10 4
30 2 8 101 27 10 11 5
29 3 8 101 26 10 10 4
29 2 8 100 26 9 10 3
28 2 8 100 25 8 9 2
27 2 9 101 25 8 9 3
26 3 10 102 26 8 10 4
26 5 11 102 27 9 10 4
26 6 14 102 29 10 10 5
26 7 13 99 29 9 9 4
24 6 12 97 29 9 10 4
22 6 11 96 30 10 10 4
20 6 11 94 30 10 10 4
18 6 11 91 28 9 8 3
14 7 12 89 26 8 9 2
13 9 13 89 26 9 10 3
13 10 14 88 28 10 10 3
13 12 14 86 27 8 10 3
13 13 16 84 27 10 11 6
13 14 15 79 26 14 11 6
9 12 14 75 24 25 9 5
6 8 13 71 22 33 8 4
4 7 12 68 20 31 6 3
2 7 11 63 17 25 4 1
0 6 11 58 14 23 3 -2
-3 4 11 57 12 22 2 0
-4 3 10 54 11 20 0 -3
-6 1 10 50 8 18 -2 -4
-8 -2 8 46 5 15 -4 -7
-10 -4 8 44 4 13 -5 -9
-11 -3 8 39 3 12 -6 -9
-11 -2 6 36 1 10 -7 -10
-12 -4 6 33 -2 7 -9 -11
-14 -6 7 32 -2 6 -9 -11
-13 -5 7 31 -2 6 -9 -11
-10 -3 6 32 -2 6 -8 -9
-10 -3 7 31 -2 6 -8 -8
-12 -5 9 30 -2 5 -8 -9
-14 -6 10 29 -3 5 -9 -10
-13 -7 9 27 -4 4 -9 -9
-14 -7 8 25 -4 3 -9 -10
-14 -6 7 24 -4 3 -9 -11
-15 -6 7 23 -3 3 -8 -11
-15 -6 6 22 -4 2 -10 -12
-15 -7 5 21 -5 1 -11 -13
-16 -7 6 23 -3 2 -10 -12
-15 -7 7 23 -3 2 -11 -12
-14 -6 9 23 -2 2 -10 -10
-12 -7 9 21 -3 1 -11 -13
-13 -7 10 21 -3 1 -11 -13
-13 -6 8 20 -3 1 -10 -12
-13 -5 8 19 -2 1 -9 -10
-14 -7 7 18 -3 1 -10 -11
-16 -8 6 17 -4 -2 -11 -12
-15 -9 6 17 -5 -2 -11 -12
-12 -9 8 18 -4 0 -9 -10
-12 -9 8 18 -2 2 -7 -8
-14 -10 7 17 -2 2 -7 -8
-15 -11 7 17 -2 2 -7 -8
-14 -10 6 17 -2 1 -8 -8
-14 -9 6 16 -2 0 -8 -7
-14 -9 6 14 -2 1 -8 -8
-13 -8 7 14 -2 0 -8 -10
-12 -6 8 13 -2 0 -8 -10
-12 -6 8 12 -3 -2 -9 -9
-13 -6 7 11 -4 -3 -9 -9
-12 -6 6 11 -3 -3 -9 -9
-11 -5 5 9 -3 -3 -9 -10
-13 -6 6 9 -3 -2 -9 -10
-14 -7 8 8 -4 -3 -8 -10
-14 -7 9 6 -4 -4 -8 -10
-13 -7 9 6 -3 -4 -8 -9
-13 -7 8 6 -3 -4 -9 -10
-14 -7 8 5 -4 -5 -9 -10
-14 -6 9 6 -3 -4 -9 -10
-13 -3 9 6 -3 -4 -9 -10
-11 0 12 8 1 -3 -7 -8
-9 2 15 10 3 -2 -5 -6
-10 3 16 11 4 1 -4 -5
-10 3 15 11 5 2 -2 -3
-10 4 15 11 4 1 -2 -3
-10 5 16 10 4 2 -2 -3
-9 5 16 10 4 2 -2 -3
-9 7 18 10 5 2 -2 -2
-9 9 20 9 4 1 -2 -3
-9 11 20 10 4 1 -2 -3
-8 13 19 11 5 3 1 0
-7 15 18 11 6 4 2 1
-5 16 17 10 7 4 1 2
-6 16 15 7 6 3 1 2
-7 15 10 2 3 1 0 1
-6 16 8 2 5 2 2 2
-2 19 6 2 7 4 4 3
3 21 6 4 8 5 5 4
4 21 7 4 8 4 6 5
4 21 6 4 8 5 7 6
5 21 5 4 7 6 7 6
6 18 2 2 5 4 6 5
7 14 0 0 4 4 5 4
6 12 0 -2 3 3 4 3
5 11 1 -3 3 2 4 2
4 9 1 -4 2 1 3 2
2 6 1 -5 1 0 2 1
0 2 3 -6 0 -3 0 -3
-3 0 3 -7 -3 -6 -4 -5
-5 -4 3 -9 -6 -10 -7 -8
-8 -7 4 -10 -8 -12 -8 -10
-12 -9 4 -12 -9 -13 -10 -12
-15 -13 4 -14 -10 -15 -13 -14
-17 -16 5 -15 -11 -17 -14 -16
-17 -15 5 -16 -11 -16 -13 -15
-17 -14 5 -16 -10 -15 -13 -14
-17 -14 4 -16 -10 -16 -12 -13
-17 -13 3 -17 -13 -17 -13 -14
-17 -13 2 -18 -14 -17 -14 -15
-17 -13 1 -18 -14 -17 -14 -16
-16 -13 1 -17 -14 -16 -14 -16
-16 -13 2 -17 -13 -16 -14 -16
-17 -15 2 -17 -13 -17 -14 -17
-18 -17 2 -18 -12 -18 -14 -17
-18 -17 2 -18 -12 -16 -14 -17
-17 -16 2 -19 -13 -15 -14 -16
-17 -17 1 -19 -14 -14 -15 -15
-19 -18 1 -20 -15 -14 -16 -14
-21 -20 3 -19 -14 -14 -16 -14
-23 -23 4 -17 -13 -12 -15 -13
-23 -22 10 -10 -8 -8 -13 -11
-23 -19 18 2 2 -3 -12 -10
-23 -14 29 15 12 4 -9 -7
-23 -6 43 34 30 15 1 2
-21 7 52 54 51 31 12 13
-11 18 57 74 71 50 29 28
6 27 56 92 90 69 47 45
26 37 52 107 110 92 67 63
45 50 46 113 126 113 89 86
60 64 36 100 132 130 110 108
77 75 17 68 120 137 126 126
98 86 -10 22 96 134 135 139
113 98 -41 -34 61 125 138 149
119 107 -80 -99 18 106 133 150
117 103 -127 -166 -38 71 109 137
104 87 -173 -228 -99 23 70 108
80 56 -206 -271 -150 -27 23 67
47 14 -216 -293 -187 -74 -29 16
7 -19 -212 -315 -222 -119 -77 -30
-31 -33 -206 -344 -255 -155 -111 -58
-60 -38 -196 -352 -268 -171 -126 -70
-71 -39 -175 -318 -247 -159 -119 -69
-68 -40 -146 -258 -205 -134 -104 -62
-63 -48 -120 -205 -172 -117 -95 -60
-57 -53 -97 -168 -147 -103 -88 -58
-50 -47 -74 -133 -118 -83 -73 -49
-43 -36 -54 -100 -89 -62 -56 -35
-35 -28 -39 -74 -66 -45 -41 -24
-29 -25 -28 -54 -50 -32 -32 -16
-23 -23 -20 -40 -39 -25 -27 -12
-21 -22 -13 -31 -31 -20 -22 -10
-21 -24 -9 -26 -27 -17 -21 -9
-22 -28 -7 -23 -25 -17 -22 -10
-22 -29 -5 -22 -25 -17 -23 -11
-19 -26 -4 -23 -23 -15 -21 -11
-17 -23 -2 -21 -21 -13 -20 -11
-18 -22 0 -20 -20 -13 -21 -12
-20 -22 -2 -18 -20 -12 -21 -12
-20 -22 1 -16 -18 -12 -20 -11
-20 -22 6 -13 -16 -11 -19 -8
-19 -22 8 -11 -15 -9 -18 -6
-18 -22 7 -10 -14 -8 -17 -4
-17 -23 7 -9 -13 -6 -16 -2
-17 -24 8 -8 -12 -6 -15 1
-18 -24 8 -8 -11 -6 -15 3
-18 -23 8 -8 -11 -5 -13 5
-18 -22 8 -8 -11 -4 -14 6
-17 -21 8 -7 -10 -4 -13 8
-16 -20 9 -6 -11 -4 -14 8
-17 -20 11 -5 -11 -4 -14 9
-17 -20 11 -4 -10 -4 -13 10
-17 -20 12 -2 -9 -3 -13 11
-18 -21 13 0 -7 0 -12 14
-17 -21 11 1 -6 0 -12 16
-14 -19 9 0 -7 1 -12 16
-11 -16 11 2 -8 2 -11 17
-12 -16 11 4 -6 2 -11 20
-13 -16 12 7 -5 3 -10 22
-12 -15 12 10 -4 3 -10 22
-10 -13 14 12 -3 2 -10 24
-12 -14 15 13 -2 3 -10 25
-13 -16 15 13 0 4 -10 26
-11 -15 14 14 1 5 -9 27
-10 -15 12 13 2 4 -10 28
-10 -16 12 13 2 5 -9 30
-10 -16 12 13 3 5 -8 31
-8 -15 12 14 3 5 -7 34
-8 -14 12 14 2 5 -8 36
-9 -14 13 16 2 6 -7 38
-10 -15 13 17 3 6 -6 39
-7 -14 12 18 3 7 -6 40
-5 -12 12 20 4 11 -4 43
-4 -10 12 22 6 12 -3 45
-4 -9 12 22 7 12 -3 48
0 -7 11 22 7 13 -2 49
0 -8 10 22 7 14 -2 50
-2 -9 10 23 9 14 0 52
-2 -8 11 25 9 15 0 53
0 -6 11 27 9 15 -2 53
1 -7 11 30 10 16 0 55
2 -8 11 33 12 17 1 57
4 -8 12 35 13 20 2 58
5 -7 13 38 14 21 4 59
6 -6 13 39 15 22 5 59
8 -5 13 39 16 24 5 59
10 -5 12 40 16 25 6 59
10 -5 11 44 19 25 7 59
10 -6 11 46 19 26 7 60
9 -7 11 46 19 25 6 59
11 -5 12 49 20 26 8 59
13 -3 14 54 23 29 11 61
15 -3 13 57 25 31 12 61
17 -3 13 58 26 32 13 60
19 0 13 60 27 33 13 60
20 0 12 62 28 33 14 61
21 0 12 63 29 34 13 61
22 -2 13 65 31 36 15 62
23 -2 14 67 31 36 15 62
25 0 13 69 32 36 16 62
29 2 14 72 34 38 18 63
30 4 14 75 37 40 19 64
31 3 14 78 38 42 19 64
33 3 15 80 38 43 20 65
35 5 16 82 40 45 23 67
37 6 15 85 42 45 23 66
35 4 15 85 42 45 23 64
34 3 15 84 40 45 22 65
34 4 16 86 43 46 23 66
34 5 16 87 43 46 23 65
33 5 18 89 44 46 23 65
33 5 18 90 45 45 22 65
34 6 19 91 45 45 22 63
35 6 21 93 46 46 22 63
35 6 22 92 45 45 22 62
34 5 21 91 44 44 21 61
33 4 23 91 46 45 23 62
34 5 22 92 46 46 23 62
36 7 21 92 46 46 23 62
36 7 21 92 46 46 23 62
35 8 21 92 46 45 22 61
34 10 22 93 47 46 23 62
34 11 22 93 47 46 24 63
33 13 24 93 48 47 26 64
32 14 24 92 48 47 26 63
30 15 23 90 47 47 25 62
30 18 23 89 47 48 26 62
29 19 25 88 48 48 26 62
25 17 25 86 47 48 25 62
22 18 26 84 47 48 26 62
21 18 26 80 46 46 24 60
19 16 25 77 44 46 23 58
19 16 24 75 43 45 22 56
21 18 24 74 43 45 23 56
20 19 25 71 42 44 23 57
16 17 25 66 38 43 22 56
14 15 23 64 37 42 21 54
12 14 23 60 35 39 19 52
9 12 23 55 29 34 14 48
5 9 23 51 26 32 12 46
4 8 21 48 24 29 10 45
4 8 21 46 22 28 9 43
3 8 22 45 22 28 9 42
2 7 22 42 19 25 6 39
0 4 21 38 16 24 5 38
-3 2 18 33 13 21 3 35
-3 2 17 30 11 20 2 35
-2 3 19 31 12 22 4 35
0 5 17 30 11 21 3 34
0 6 15 28 10 19 1 32
1 8 15 28 9 18 1 32
0 8 17 28 10 19 2 33
-3 6 15 26 9 19 1 32
-5 3 14 25 9 17 0 30
-5 3 14 23 8 16 0 29
-4 4 13 22 8 17 0 29
-4 4 14 22 9 18 0 30
-4 5 14 21 8 17 0 29
-4 5 13 21 7 16 0 28
-3 6 14 22 8 16 0 28
0 7 14 23 8 17 0 28
1 8 15 22 8 16 0 27
1 8 15 22 8 18 1 27
0 7 16 23 9 18 3 28
0 5 17 23 10 18 3 28
0 3 15 21 8 16 0 26
-3 2 14 19 7 15 -2 25
-4 2 13 18 8 15 -2 24
-3 4 13 18 9 16 0 24
-2 7 13 19 8 14 -2 23
-2 6 14 21 8 14 -2 24
-3 5 14 19 7 13 -3 23
-2 6 13 19 6 14 -2 23
0 7 13 19 6 13 -2 21
0 6 13 17 6 13 -2 20
0 4 11 15 6 14 -2 20
-2 4 10 15 7 14 0 20
-2 5 11 15 8 14 0 21
-3 5 11 14 7 14 -2 20
-4 2 12 15 7 13 0 20
-4 2 11 14 7 12 0 18
-4 3 11 14 7 12 0 17
-3 4 12 15 7 12 -2 16
-4 1 12 16 6 11 -2 16
-5 0 12 13 5 10 -2 15
-5 3 12 12 6 12 -2 16
-4 5 13 13 8 14 0 16
-3 6 15 14 9 14 1 16
-3 8 16 14 9 14 1 16
-3 10 18 15 10 15 3 17
-2 12 18 15 10 14 3 17
-2 13 17 14 9 14 3 16
-3 12 18 15 10 14 4 15
-4 11 18 15 11 15 4 15
-5 10 18 14 11 14 4 15
-5 11 18 14 11 13 3 14
-5 13 18 13 10 12 2 13
-5 15 21 15 13 14 5 14
-4 19 21 15 13 14 5 13
-3 20 19 15 13 14 5 14
-2 21 18 14 12 13 6 15
-2 21 17 11 11 12 6 15
0 22 13 7 9 11 6 14
3 24 9 5 10 11 6 14
7 28 9 7 13 14 9 17
9 29 10 8 14 15 11 17
7 26 9 8 12 15 11 17
6 25 8 7 12 15 11 18
7 25 5 6 12 13 11 18
7 23 2 3 9 11 11 16
7 21 0 2 7 9 10 14
6 19 1 1 7 8 9 12
6 17 2 0 6 7 7 10
5 14 1 -2 5 5 5 8
3 11 2 -3 5 4 4 6
3 8 2 -5 2 0 1 3
3 4 1 -7 -2 -5 -3 -2
-3 0 2 -9 -3 -7 -4 -4
-7 -5 2 -12 -6 -10 -8 -7
-10 -8 1 -13 -8 -13 -10 -10
-11 -8 0 -15 -10 -17 -12 -12
-11 -8 0 -16 -10 -17 -12 -14
-12 -7 2 -16 -10 -17 -11 -15
-12 -8 5 -16 -9 -18 -11 -16
-13 -10 6 -17 -8 -20 -12 -18
-14 -12 4 -19 -10 -24 -14 -20
-16 -14 4 -20 -11 -25 -15 -21
-15 -14 3 -22 -12 -25 -15 -20
-13 -13 2 -24 -14 -25 -17 -21
-14 -15 1 -25 -15 -25 -17 -22
-15 -17 1 -25 -15 -26 -17 -23
-16 -17 0 -26 -15 -26 -17 -25
-17 -16 0 -27 -16 -26 -17 -26
-17 -18 -2 -29 -16 -25 -18 -26
-18 -19 -4 -32 -17 -25 -18 -28
-19 -20 -4 -32 -17 -23 -18 -29
-20 -21 -4 -31 -16 -21 -17 -30
-20 -22 -2 -29 -14 -18 -17 -31
-18 -20 5 -23 -9 -15 -17 -32
-19 -18 14 -12 -2 -13 -17 -35
-23 -15 26 5 12 -6 -14 -33
-26 -8 39 23 29 6 -7 -27
-21 4 49 44 51 24 7 -16
-10 14 55 65 74 47 27 2
7 24 54 85 98 71 49 20
25 36 51 99 120 96 73 43
40 51 44 91 130 117 96 65
55 63 26 55 121 130 116 89
68 71 -4 3 96 130 128 105
79 76 -38 -55 58 119 131 113
86 84 -74 -112 18 107 131 119
86 90 -114 -174 -28 84 119 115
80 87 -157 -236 -85 46 92 97
69 74 -199 -291 -141 -3 52 63
49 44 -223 -320 -179 -48 4 18
20 -3 -223 -332 -208 -94 -51 -37
-16 -43 -215 -355 -244 -141 -102 -88
-52 -57 -206 -389 -280 -179 -137 -116
-75 -56 -191 -388 -287 -189 -148 -124
-80 -52 -166 -340 -256 -170 -135 -117
-75 -54 -140 -277 -212 -142 -116 -108
-68 -61 -116 -228 -178 -122 -105 -104
-61 -61 -92 -187 -148 -104 -94 -98
-53 -53 -70 -149 -117 -78 -76 -85
-46 -45 -57 -120 -92 -58 -60 -71
-39 -39 -48 -100 -74 -44 -50 -62
-33 -35 -38 -81 -59 -32 -40 -55
-28 -32 -31 -69 -48 -24 -34 -49
-23 -29 -27 -62 -43 -20 -31 -44
-21 -27 -21 -56 -38 -16 -28 -40
-21 -28 -16 -51 -35 -14 -27 -38
-22 -30 -13 -48 -33 -12 -27 -37
-23 -33 -11 -45 -30 -10 -26 -36
-24 -37 -12 -45 -30 -11 -27 -37
-25 -39 -13 -44 -30 -10 -27 -36
-25 -38 -11 -40 -29 -9 -27 -35
-26 -37 -9 -37 -29 -9 -27 -35
-27 -39 -8 -36 -29 -9 -27 -34
-28 -37 -5 -33 -28 -7 -26 -33
-25 -33 -3 -31 -27 -7 -27 -33
-22 -31 -2 -30 -24 -5 -26 -30
-22 -33 -3 -29 -23 -3 -25 -30
-24 -35 -2 -26 -23 -2 -25 -28
-26 -37 -3 -25 -23 -2 -26 -28
-27 -38 -3 -25 -23 0 -26 -27
-27 -38 -3 -23 -23 2 -26 -26
-25 -37 -3 -21 -22 3 -25 -24
-24 -36 -3 -20 -20 4 -23 -22
-25 -37 -3 -18 -20 5 -22 -21
-26 -38 -4 -17 -22 5 -24 -22
-23 -35 -2 -15 -21 6 -24 -21
-19 -31 1 -14 -19 9 -22 -19
-20 -31 -2 -13 -19 10 -21 -18
-22 -35 -4 -13 -20 10 -21 -16
-24 -35 -3 -12 -19 12 -20 -15
-25 -35 1 -10 -20 13 -20 -14
-25 -35 2 -7 -20 14 -19 -14
-22 -34 2 -6 -17 15 -19 -13
-20 -33 2 -4 -15 17 -19 -13
-19 -32 1 -2 -15 18 -19 -12
-19 -32 1 0 -14 18 -18 -11
-19 -32 1 -2 -15 19 -17 -10
-21 -33 0 0 -15 19 -17 -8
-22 -35 -2 1 -14 20 -16 -6
-21 -34 -3 1 -14 20 -17 -5
-19 -32 -3 3 -14 21 -17 -3
-19 -32 0 6 -12 23 -16 0
-19 -32 2 9 -10 25 -14 1
-18 -32 2 10 -9 26 -15 1
-19 -32 2 11 -10 25 -16 2
-19 -33 1 11 -10 25 -16 3
-18 -32 0 14 -9 28 -15 4
-17 -31 -2 15 -8 30 -14 6
-16 -31 -2 17 -7 31 -12 8
-15 -31 -3 17 -7 31 -12 9
-13 -30 -3 19 -6 33 -11 10
-13 -31 1 23 -3 36 -9 12
-13 -31 1 25 1 37 -8 13
-12 -29 1 28 2 38 -8 13
-11 -27 1 31 2 39 -8 13
-9 -28 0 32 0 39 -8 13
-8 -29 1 33 1 40 -7 15
-8 -29 1 36 3 44 -6 16
-8 -29 1 39 6 46 -5 19
-8 -30 1 42 6 47 -3 21
-7 -30 -3 42 5 46 -5 20
-7 -30 0 46 8 48 -3 22
-5 -29 1 49 10 51 -2 22
-4 -29 2 54 12 53 1 23
2 -26 2 57 14 54 1 24
5 -24 3 62 17 57 4 28
4 -24 2 64 18 59 5 30
5 -26 1 66 18 60 5 31
6 -27 1 68 19 61 5 32
8 -26 1 70 20 61 6 33
11 -25 4 74 23 64 7 36
13 -24 6 79 25 66 10 38
14 -24 6 82 28 69 10 40
15 -24 5 84 26 69 9 40
16 -23 6 87 26 69 10 42
18 -21 7 89 28 71 12 44
20 -20 5 90 29 72 13 45
19 -22 6 91 29 73 13 46
17 -23 6 91 27 72 12 46
17 -22 7 92 28 73 13 47
18 -20 8 95 30 75 15 49
19 -19 8 98 31 76 16 49
20 -18 8 99 31 76 15 49
21 -17 9 101 32 76 13 49
19 -17 8 101 31 75 12 48
17 -18 9 102 31 75 13 50
17 -18 9 102 30 76 13 51
17 -19 10 103 31 77 14 52
16 -20 11 104 32 77 13 52
18 -18 10 104 32 78 14 51
19 -16 9 105 33 84 15 51
20 -13 11 106 34 84 16 52
21 -11 12 107 34 84 16 52
19 -11 13 106 33 82 16 51
17 -12 14 106 33 81 16 51
17 -10 15 108 34 81 17 53
16 -9 15 107 34 80 17 52
11 -11 15 106 33 78 16 51
8 -13 14 107 31 76 14 49
8 -11 14 107 32 75 15 49
9 -7 15 104 31 74 15 48
10 -3 16 103 32 75 16 49
11 1 17 100 33 75 16 48
12 4 18 97 32 73 15 47
10 3 18 94 29 71 14 45
6 0 16 90 27 68 12 43
2 -3 16 86 25 65 11 40
-2 -5 15 80 22 62 8 39
-3 -6 14 75 19 60 7 37
-4 -6 12 70 16 57 5 35
-5 -7 12 67 14 55 4 33
-7 -8 12 63 12 52 3 31
-8 -8 12 59 8 48 1 28
-9 -9 12 56 6 46 -2 27
-10 -10 11 52 5 43 -4 26
-12 -12 9 49 3 39 -5 25
-14 -13 8 46 1 38 -6 23
-15 -13 8 43 -2 36 -6 20
-15 -13 8 40 -3 34 -8 19
-14 -13 8 38 -3 32 -9 18
-14 -14 7 36 -5 31 -10 17
-16 -16 9 36 -5 30 -10 17
-17 -17 7 33 -7 27 -11 13
-18 -18 7 32 -6 26 -11 13
-19 -17 6 31 -7 25 -12 12
-20 -18 7 32 -6 25 -11 12
-18 -17 8 31 -6 24 -11 13
-15 -15 8 31 -5 25 -10 14
-14 -15 7 30 -5 24 -9 15
-13 -16 7 29 -4 23 -8 16
-12 -14 7 28 -5 23 -8 15
-13 -14 7 28 -6 22 -9 14
-14 -16 7 29 -5 22 -9 14
-14 -15 8 28 -3 22 -8 13
-15 -14 9 28 -2 22 -7 14
-15 -16 9 28 -2 21 -8 13
-14 -16 9 27 -2 20 -8 12
-14 -16 9 26 -2 19 -8 12
-16 -18 7 25 -4 18 -9 11
-17 -20 6 23 -5 17 -9 10
-16 -19 6 22 -4 18 -7 11
-15 -16 6 22 -4 17 -7 10
-13 -16 7 23 -3 18 -7 10
-12 -15 7 22 -3 17 -8 8
-11 -12 8 22 -3 17 -8 8
-11 -11 8 22 -3 16 -8 7
-12 -12 9 20 -3 15 -8 7
-13 -14 9 19 -4 14 -9 5
-14 -15 9 17 -4 13 -8 5
-14 -17 8 16 -4 11 -8 5
-14 -16 8 17 -4 13 -7 6
-13 -15 7 17 -4 13 -7 5
-13 -15 8 16 -3 13 -6 6
-12 -14 9 17 0 13 -5 7
-11 -10 9 18 0 13 -5 6
-10 -6 9 18 1 13 -5 6
-9 -3 11 18 2 14 -3 7
-9 -3 13 19 3 15 -2 8
-10 -3 13 18 3 14 -2 8
-9 -3 14 17 4 14 0 8
-6 0 14 17 4 13 -2 7
-6 0 15 18 4 13 -2 7
-7 0 17 19 5 13 -2 7
-5 3 18 20 7 14 -2 8
-4 7 19 19 7 14 0 8
-4 9 20 18 8 13 1 8
-5 11 20 18 9 14 4 10
-4 15 19 18 9 15 6 12
-3 16 17 17 10 15 7 13
-5 14 15 13 8 13 6 12
-4 13 11 9 5 12 5 10
-2 17 8 7 6 12 5 10
2 20 7 6 7 12 6 11
2 21 8 7 7 13 7 11
2 21 7 6 7 12 7 12
1 21 7 6 7 11 7 12
2 21 6 6 7 12 8 12
4 21 3 4 6 11 7 10
4 17 2 3 6 10 7 9
3 14 2 2 4 7 5 7
2 13 2 0 2 5 3 5
4 12 3 0 3 4 4 5
4 9 4 0 4 3 4 5
4 5 3 -3 2 0 1 2
3 1 3 -5 0 -4 -2 -2
0 -3 4 -7 -3 -7 -4 -5
-6 -8 4 -9 -6 -12 -8 -9
-11 -12 5 -11 -8 -13 -11 -13
-13 -14 5 -13 -9 -15 -12 -15
-11 -14 5 -14 -10 -16 -12 -16
-8 -10 4 -14 -11 -17 -13 -17
-8 -8 4 -15 -12 -19 -14 -17
-9 -10 3 -17 -13 -20 -15 -19
-10 -12 3 -18 -14 -22 -17 -20
-12 -13 2 -19 -14 -23 -18 -21
-12 -13 2 -20 -15 -24 -19 -22
-12 -13 2 -20 -15 -24 -19 -23
-13 -13 3 -19 -14 -22 -18 -23
-13 -14 2 -21 -14 -23 -18 -24
-12 -14 1 -22 -15 -23 -18 -24
-10 -14 -2 -23 -16 -24 -20 -25
-11 -16 -2 -23 -16 -26 -20 -25
-14 -18 -2 -25 -16 -27 -20 -25
-15 -19 -3 -26 -17 -28 -21 -25
-14 -19 -2 -24 -16 -27 -21 -25
-15 -19 0 -21 -13 -26 -20 -25
-14 -18 6 -14 -8 -23 -18 -25
-14 -14 14 -3 0 -21 -19 -27
-16 -9 28 12 11 -16 -18 -28
-20 -4 42 30 27 -6 -13 -25
-19 2 51 50 47 9 -3 -17
-8 11 55 71 69 27 13 -5
9 24 55 91 94 51 35 14
26 39 52 102 115 77 62 37
42 55 39 84 119 97 86 62
53 69 18 38 105 105 103 82
65 78 -10 -15 79 107 116 99
75 86 -43 -67 47 104 125 112
80 94 -80 -124 7 93 126 119
80 101 -122 -185 -40 70 115 117
75 99 -171 -247 -96 31 89 98
62 82 -214 -298 -150 -18 48 66
44 50 -234 -320 -185 -63 -3 19
21 1 -229 -319 -207 -108 -57 -35
-10 -38 -219 -335 -241 -158 -111 -87
-45 -54 -212 -365 -282 -201 -149 -116
-65 -54 -197 -364 -290 -214 -159 -123
-68 -48 -172 -315 -256 -191 -145 -115
-63 -48 -146 -257 -212 -164 -126 -106
-58 -53 -124 -213 -181 -147 -114 -101
-52 -53 -101 -176 -151 -129 -103 -94
-46 -45 -77 -137 -116 -103 -82 -78
-34 -30 -62 -109 -92 -83 -67 -66
-23 -18 -48 -87 -71 -67 -54 -54
-14 -10 -37 -70 -56 -56 -45 -47
-12 -10 -30 -60 -47 -51 -40 -43
-14 -14 -26 -55 -41 -48 -38 -43
-14 -15 -22 -51 -36 -44 -35 -41
-13 -14 -19 -48 -33 -41 -33 -39
-12 -15 -17 -46 -32 -39 -32 -38
-11 -16 -16 -45 -31 -39 -31 -37
-11 -17 -15 -45 -30 -39 -31 -38
-13 -18 -14 -45 -30 -40 -32 -39
-16 -19 -12 -43 -29 -39 -33 -38
-17 -20 -10 -41 -28 -38 -33 -39
-17 -20 -10 -40 -27 -38 -33 -39
-15 -19 -10 -40 -26 -37 -33 -40
-13 -16 -9 -37 -23 -35 -31 -38
-12 -15 -7 -37 -21 -35 -30 -38
-11 -14 -8 -38 -21 -36 -31 -38
-11 -14 -9 -38 -22 -36 -31 -39
-13 -15 -9 -39 -23 -36 -32 -39
-14 -16 -8 -39 -23 -36 -32 -38
-15 -17 -7 -37 -22 -35 -31 -37
-15 -16 -7 -35 -22 -35 -30 -37
-13 -14 -6 -34 -21 -34 -29 -37
-11 -11 -6 -34 -20 -33 -29 -37
-9 -10 -6 -34 -19 -32 -29 -36
-9 -12 -5 -33 -17 -31 -27 -35
-9 -11 -5 -32 -16 -31 -26 -35
-9 -9 -6 -33 -17 -30 -26 -35
-8 -10 -6 -33 -18 -30 -26 -36
-9 -11 -5 -32 -17 -30 -26 -36
-10 -11 -4 -32 -17 -30 -27 -37
-11 -11 -4 -31 -17 -30 -28 -37
-11 -11 -4 -30 -16 -30 -27 -36
-9 -10 -5 -29 -15 -28 -26 -36
-8 -9 -4 -27 -13 -26 -24 -34
-7 -8 -4 -27 -12 -26 -23 -34
-5 -7 -4 -28 -12 -26 -23 -33
-4 -6 -5 -29 -12 -25 -23 -33
-4 -7 -4 -28 -12 -24 -22 -33
-5 -9 -3 -27 -11 -23 -22 -33
-5 -7 -3 -26 -10 -24 -23 -34
-4 -5 -2 -25 -9 -24 -23 -33
-3 -4 -2 -24 -8 -24 -22 -31
-3 -3 0 -23 -7 -22 -19 -30
-3 -2 0 -21 -5 -19 -17 -29
-3 -2 0 -21 -4 -18 -17 -28
-2 -3 0 -20 -4 -17 -17 -27
1 -4 -3 -19 -4 -17 -16 -27
1 -4 -2 -18 -3 -17 -15 -27
0 -3 0 -17 -3 -16 -15 -27
0 -2 1 -15 0 -15 -15 -26
1 -2 1 -14 0 -15 -14 -26
4 0 2 -12 2 -14 -13 -25
6 2 2 -10 4 -12 -12 -23
7 3 1 -10 4 -11 -11 -23
5 0 2 -8 6 -9 -10 -21
6 0 -2 -9 5 -10 -11 -22
8 0 -2 -6 7 -9 -9 -20
9 0 -3 -5 8 -9 -7 -21
8 0 -2 -3 9 -8 -6 -20
8 0 -2 0 10 -8 -6 -21
10 1 0 3 12 -7 -5 -19
14 4 0 6 13 -7 -5 -19
18 6 0 8 14 -6 -4 -18
17 4 0 11 17 -4 -2 -18
16 1 1 13 19 -2 1 -16
18 2 1 15 20 0 1 -16
22 5 0 18 21 1 2 -14
24 6 0 20 23 3 4 -14
23 4 -2 22 24 3 5 -13
23 4 0 25 25 4 4 -13
25 5 1 28 26 4 5 -13
26 5 1 29 26 3 6 -12
27 5 2 30 28 5 7 -11
30 7 3 34 30 8 9 -10
33 8 5 37 32 9 10 -8
33 6 4 36 31 8 9 -9
33 5 4 38 32 9 10 -8
35 7 3 39 32 9 11 -9
36 10 4 39 33 10 11 -9
36 11 6 43 33 11 11 -8
34 11 7 43 33 10 10 -9
33 8 7 45 34 9 11 -7
34 8 6 44 35 8 10 -6
35 9 8 47 36 9 12 -5
35 10 8 46 34 9 13 -5
34 10 9 45 34 9 12 -4
33 8 10 45 34 9 12 -3
31 6 10 45 33 9 13 -3
29 6 9 44 32 10 13 -3
30 7 9 43 32 9 11 -3
30 7 11 45 34 9 12 -3
29 8 14 47 35 9 13 -3
30 11 14 47 35 9 13 -2
30 14 13 47 36 10 13 -2
28 14 13 44 35 9 12 -2
26 13 13 42 35 9 12 -3
25 13 13 42 35 11 12 0
24 16 13 39 34 11 13 0
23 18 14 38 34 12 15 1
20 18 15 37 34 11 14 1
17 17 16 34 33 10 12 0
15 16 16 32 32 8 11 -2
12 15 16 29 30 8 11 -3
9 15 16 26 29 6 11 -4
8 15 15 23 27 6 10 -4
7 15 15 19 24 5 9 -5
6 15 14 16 22 4 7 -6
4 15 13 14 20 3 6 -6
4 14 12 10 18 0 4 -9
2 13 12 7 15 -3 2 -10
-3 11 12 5 14 -5 1 -10
-4 8 12 4 13 -6 0 -10
-4 8 10 2 11 -7 -2 -11
-4 9 9 -2 8 -8 -4 -13
-4 11 10 -3 8 -8 -2 -11
-3 12 8 -6 5 -9 -4 -12
-5 9 6 -8 3 -10 -5 -13
-7 6 6 -10 1 -11 -7 -15
-7 6 6 -11 1 -12 -8 -14
-8 5 6 -11 1 -13 -8 -15
-9 4 5 -11 0 -14 -10 -16
-9 4 6 -11 -2 -14 -10 -16
-10 3 6 -11 0 -14 -8 -15
-11 0 5 -13 0 -14 -9 -17
-11 0 5 -13 0 -14 -8 -16
-10 0 5 -13 0 -13 -7 -14
-10 1 2 -14 -2 -14 -7 -15
-11 0 2 -13 -2 -13 -7 -14
-11 -2 3 -13 -3 -13 -7 -14
-11 0 4 -11 -2 -13 -7 -13
-11 0 5 -12 -2 -14 -8 -14
-13 -2 5 -12 -3 -14 -8 -14
-14 -3 7 -11 -2 -13 -7 -13
-13 -3 7 -10 1 -12 -6 -13
-12 -2 7 -8 3 -10 -4 -11
-11 -2 6 -10 2 -11 -6 -13
-12 -2 6 -9 2 -11 -6 -12
-14 -2 6 -9 1 -11 -6 -12
-13 0 7 -7 2 -11 -5 -12
-11 1 6 -6 2 -11 -5 -12
-9 2 6 -6 2 -10 -5 -12
-10 2 6 -6 1 -10 -5 -12
-11 1 7 -5 2 -9 -4 -11
-11 0 7 -5 2 -9 -4 -11
-11 0 7 -6 2 -8 -4 -11
-12 0 6 -7 2 -9 -5 -11
-13 0 6 -6 3 -8 -4 -10
-11 0 5 -7 2 -8 -5 -11
-11 -2 6 -6 1 -8 -5 -11
-10 -2 6 -5 1 -9 -5 -11
-10 0 8 -4 1 -8 -4 -10
-11 0 9 -3 2 -7 -3 -9
-9 2 10 -3 3 -7 -2 -9
-9 3 10 -2 4 -5 -2 -8
-9 4 11 1 6 -4 1 -5
-9 6 13 2 8 -2 2 -4
-8 7 13 2 8 -2 3 -4
-8 10 15 4 9 0 3 -4
-7 12 16 5 10 1 3 -4
-8 11 18 5 10 1 3 -4
-8 11 18 5 10 0 3 -4
-7 12 19 6 11 1 4 -3
-7 13 21 8 12 3 5 0
-9 13 22 9 14 5 7 1
-10 13 21 9 14 5 7 0
-7 15 20 9 13 5 7 1
-5 18 18 9 13 6 9 3
-6 17 15 6 12 5 8 3
-7 18 13 3 9 4 7 3
-7 19 11 2 8 4 8 4
-6 20 8 1 8 4 8 4
-5 20 8 3 10 6 9 6
-4 21 8 4 10 7 10 7
-2 23 9 5 12 9 12 9
1 23 8 5 13 10 13 10
2 21 7 5 14 11 14 12
3 20 3 4 11 9 13 13
6 20 2 3 10 9 12 12
7 19 3 3 11 9 13 12
5 18 4 3 10 9 13 11
4 16 5 3 9 8 12 11
5 14 5 2 9 6 10 9
6 11 6 2 7 5 8 7
4 6 5 0 6 3 4 4
1 1 5 -2 5 1 3 3
-4 -2 5 -4 1 -3 0 -2
-8 -6 7 -4 0 -4 -2 -3
-12 -10 7 -6 -4 -6 -5 -6
-13 -12 6 -7 -5 -8 -7 -8
-13 -12 6 -8 -6 -9 -8 -8
-13 -12 7 -8 -7 -10 -8 -8
-14 -13 8 -8 -8 -11 -9 -9
-15 -14 7 -9 -8 -12 -10 -10
-15 -15 6 -10 -9 -13 -11 -11
-14 -14 4 -11 -10 -13 -11 -11
-13 -13 5 -11 -9 -12 -10 -9
-13 -13 5 -11 -9 -12 -10 -9
-12 -13 3 -12 -10 -14 -11 -10
-13 -14 3 -12 -10 -13 -11 -10
-13 -14 3 -12 -12 -14 -13 -12
-12 -14 4 -12 -12 -14 -12 -12
-12 -14 5 -13 -12 -15 -12 -11
-13 -15 4 -14 -13 -16 -12 -11
-15 -16 4 -13 -12 -15 -12 -11
-17 -18 6 -10 -9 -14 -12 -12
-18 -20 10 -4 -5 -13 -13 -13
-19 -18 18 7 2 -12 -15 -15
-19 -12 31 22 14 -6 -12 -13
-20 -2 47 42 31 6 -5 -7
-17 8 58 62 50 20 7 2
-9 18 64 84 72 38 23 15
5 27 64 103 96 61 44 33
23 39 59 110 115 85 67 54
36 56 49 93 120 105 91 76
50 72 27 52 112 118 111 99
66 86 0 6 92 126 128 119
80 98 -36 -46 62 122 138 134
88 108 -78 -104 26 114 143 145
91 113 -129 -164 -19 97 137 146
92 109 -185 -225 -73 60 113 132
81 92 -233 -271 -126 13 73 101
61 54 -255 -290 -160 -35 23 55
36 2 -249 -295 -187 -82 -32 -2
4 -37 -239 -314 -225 -135 -88 -52
-30 -56 -229 -346 -267 -181 -128 -85
-52 -59 -211 -348 -281 -200 -144 -97
-57 -55 -180 -302 -254 -185 -134 -93
-54 -55 -148 -239 -208 -157 -115 -85
-50 -58 -121 -190 -171 -136 -103 -78
-45 -53 -96 -151 -139 -114 -89 -69
-38 -40 -72 -115 -107 -91 -70 -56
-32 -30 -54 -87 -80 -70 -53 -41
-26 -24 -40 -66 -62 -56 -41 -32
-20 -19 -31 -52 -49 -47 -35 -26
-17 -18 -25 -43 -38 -39 -30 -21
-17 -20 -21 -38 -35 -37 -28 -20
-17 -22 -17 -35 -33 -35 -27 -19
-18 -23 -13 -32 -29 -34 -26 -19
-19 -24 -10 -30 -26 -33 -25 -18
-19 -26 -7 -26 -25 -31 -24 -16
-19 -27 -6 -25 -25 -32 -25 -17
-19 -27 -5 -24 -24 -31 -25 -17
-17 -25 -5 -22 -23 -31 -24 -17
-15 -23 -4 -20 -22 -30 -22 -17
-16 -23 -4 -20 -21 -30 -22 -18
-17 -24 -3 -20 -21 -30 -22 -17
-18 -25 -4 -20 -21 -30 -23 -18
-19 -26 -3 -20 -20 -30 -23 -17
-17 -25 -3 -20 -20 -29 -24 -17
-13 -21 0 -19 -18 -28 -23 -16
-10 -16 4 -16 -15 -25 -20 -13
-9 -14 5 -15 -14 -25 -19 -12
-11 -16 4 -13 -14 -26 -20 -12
-12 -17 4 -13 -14 -26 -20 -13
-13 -17 3 -13 -15 -27 -21 -14
-13 -18 3 -14 -16 -27 -22 -15
-14 -19 4 -13 -16 -26 -21 -15
-14 -18 3 -14 -15 -25 -21 -15
-13 -18 3 -14 -14 -25 -20 -14
-13 -17 5 -11 -13 -24 -19 -11
-12 -17 6 -10 -13 -24 -18 -11
-13 -17 6 -11 -12 -24 -18 -12
-14 -17 5 -10 -12 -23 -18 -12
-14 -18 6 -8 -11 -23 -17 -12
-13 -18 6 -8 -10 -23 -17 -12
-10 -15 7 -6 -9 -21 -15 -11
-7 -12 7 -5 -7 -19 -14 -10
-7 -12 6 -5 -7 -18 -13 -8
-8 -14 6 -5 -6 -17 -14 -7
-8 -15 6 -5 -5 -17 -15 -8
-9 -15 6 -4 -5 -17 -14 -8
-8 -13 5 -4 -5 -17 -13 -8
-7 -12 5 -3 -5 -17 -14 -9
-6 -11 6 -2 -4 -17 -13 -9
-6 -11 7 -2 -3 -16 -11 -8
-6 -12 7 0 -2 -16 -11 -7
-7 -13 6 2 -2 -15 -11 -6
-7 -13 6 1 -2 -15 -11 -6
-7 -14 6 1 -2 -14 -10 -5
-6 -14 6 3 0 -14 -10 -5
-5 -13 5 4 0 -14 -10 -5
-4 -12 5 5 0 -14 -10 -5
-4 -11 6 8 2 -12 -9 -4
-3 -11 5 10 3 -11 -7 -3
-2 -10 4 10 4 -10 -6 -2
1 -9 4 12 5 -8 -5 -2
1 -8 5 13 5 -9 -5 -2
-2 -10 4 13 6 -8 -5 -2
-2 -10 5 15 7 -6 -4 0
2 -9 6 17 9 -4 -3 1
5 -7 7 20 11 -4 0 2
7 -5 7 22 13 -3 1 3
10 -2 7 26 15 0 2 4
13 0 8 29 16 2 4 5
13 -3 8 31 18 2 5 7
12 -4 7 32 18 2 4 6
12 -5 7 34 19 3 6 7
12 -6 6 36 21 4 8 7
14 -4 6 38 23 6 9 8
16 -2 6 40 24 8 9 8
18 0 7 44 26 8 10 9
19 0 7 46 28 8 11 10
19 -2 7 47 27 8 10 9
19 -4 7 49 28 9 11 11
20 -4 8 51 30 11 14 12
23 -3 7 52 30 11 13 12
26 0 8 55 31 12 14 13
29 2 9 57 33 14 16 15
31 3 10 59 34 15 17 16
32 4 10 60 35 15 17 15
32 4 11 61 35 15 17 14
32 3 12 62 36 16 17 14
31 3 14 64 38 16 17 14
31 5 15 65 38 16 18 15
31 5 16 66 38 16 19 16
31 3 17 66 38 16 18 16
30 2 18 67 38 16 17 16
29 1 18 67 38 16 18 16
29 1 18 68 38 16 19 17
28 1 19 70 39 18 20 19
29 2 19 69 39 17 20 19
30 4 18 68 38 16 20 18
30 5 19 68 38 17 20 18
30 7 20 69 39 17 21 18
31 8 20 69 40 17 21 19
30 8 20 68 39 16 20 18
26 7 20 66 37 15 18 17
24 8 21 66 38 17 20 19
22 8 22 64 39 18 20 19
19 6 23 63 39 18 19 19
16 4 23 61 38 17 18 19
16 5 22 59 37 16 17 18
17 9 24 59 38 17 19 20
17 11 24 57 37 16 19 20
16 11 23 54 36 16 18 19
15 12 24 51 34 16 18 19
14 12 26 48 34 17 18 19
11 10 23 44 31 15 16 17
7 7 22 40 30 14 16 17
6 7 21 36 28 12 15 15
4 7 21 33 26 11 14 15
3 7 20 29 23 8 12 12
0 6 18 27 20 6 9 11
-4 4 18 25 19 5 8 10
-4 2 18 22 17 4 7 8
-4 2 17 19 14 3 6 7
-5 0 15 15 11 0 3 6
-7 -2 13 12 9 -3 1 5
-9 -3 12 8 8 -3 1 4
-10 -4 11 7 6 -4 1 3
-11 -5 10 5 4 -6 -2 1
-11 -5 10 2 3 -7 -3 1
-11 -4 11 3 3 -7 -4 0
-11 -4 10 3 3 -6 -3 0
-11 -5 10 2 3 -6 -3 -2
-11 -5 10 1 3 -7 -4 -3
-9 -4 10 1 2 -7 -4 -3
-9 -3 10 2 2 -7 -3 -3
-9 -4 9 2 2 -6 -3 -2
-10 -4 10 3 3 -5 -2 0
-11 -5 10 3 3 -5 -3 0
-11 -5 10 2 3 -5 -3 0
-11 -7 9 3 4 -5 -2 0
-11 -6 9 3 4 -6 -2 0
-10 -5 8 2 3 -6 -2 -2
-12 -7 8 2 2 -5 -3 -2
-15 -10 10 2 2 -5 -2 -2
-14 -9 10 2 3 -5 -2 -2
-13 -7 9 2 4 -4 -2 -2
-14 -8 9 1 3 -4 -2 0
-15 -10 10 2 2 -5 -2 0
-14 -9 10 4 4 -4 1 0
-10 -5 10 5 4 -3 1 1
-6 0 12 6 4 -3 0 1
-6 0 13 6 6 -3 1 2
-9 -2 12 6 6 -2 2 2
-9 -3 11 4 4 -3 1 2
-9 -3 12 3 4 -3 1 1
-11 -5 11 2 3 -3 1 1
-13 -8 10 2 3 -3 1 1
-14 -8 10 2 2 -4 0 -2
-14 -7 11 3 4 -3 1 0
-12 -4 12 5 4 -3 1 0
-10 -2 14 6 5 -2 1 1
-11 -3 14 7 6 0 2 1
-12 -3 13 6 6 -2 2 1
-11 0 15 8 7 0 3 2
-10 2 16 9 9 2 5 4
-10 3 17 9 10 5 6 4
-9 5 19 10 11 6 8 5
-8 7 21 12 12 5 8 6
-8 8 20 11 12 5 7 6
-9 8 21 11 11 5 7 5
-7 11 23 12 12 7 8 6
-5 13 25 13 14 7 9 8
-6 13 27 14 15 8 10 9
-7 13 28 14 14 8 9 8
-7 13 28 15 15 9 11 9
-6 14 25 14 16 10 11 9
-5 15 24 15 16 12 13 10
-5 16 22 12 15 10 12 9
-6 14 18 8 12 8 10 8
-8 12 12 5 10 7 10 8
-6 14 9 5 10 8 10 9
1 20 10 8 14 11 13 12
7 25 13 11 16 14 16 15
9 25 12 11 16 14 17 14
7 22 10 11 16 14 17 15
6 19 5 9 15 13 16 14
6 16 4 7 13 12 15 13
4 13 4 6 12 11 15 12
0 11 6 5 11 9 13 11
0 12 6 4 9 8 11 9
5 13 7 5 9 8 11 9
8 12 8 6 9 8 11 9
6 8 8 4 8 6 9 8
3 3 7 1 4 3 6 5
0 0 6 -3 2 0 3 3
-5 -5 6 -5 1 -4 1 0
-9 -8 8 -4 0 -5 0 -2
-12 -10 8 -5 -3 -7 -3 -6
-13 -10 9 -6 -2 -6 -4 -5
-13 -10 10 -6 -2 -6 -4 -4
-14 -10 10 -6 -3 -5 -3 -4
-13 -11 10 -8 -3 -7 -5 -6
-12 -12 9 -8 -4 -8 -5 -7
-13 -13 10 -7 -4 -7 -4 -6
-13 -14 9 -8 -4 -7 -5 -6
-14 -15 8 -8 -4 -6 -4 -5
-15 -15 7 -8 -5 -7 -5 -6
-15 -15 7 -7 -6 -8 -5 -6
-15 -14 7 -7 -5 -8 -4 -6
-14 -13 7 -7 -5 -8 -4 -6
-13 -14 8 -8 -6 -9 -4 -6
-15 -16 7 -10 -7 -11 -6 -8
-17 -18 7 -10 -8 -11 -7 -8
-18 -19 6 -10 -8 -11 -8 -9
-18 -19 9 -6 -4 -9 -7 -8
-18 -17 17 4 3 -5 -5 -7
-18 -14 28 19 12 1 -2 -5
-19 -7 42 35 26 8 3 -2
-20 2 53 53 43 19 11 4
-19 11 61 71 61 35 24 16
-9 20 64 89 80 54 40 30
8 30 63 105 101 75 59 47
25 42 58 112 117 96 79 65
42 59 51 101 126 114 102 87
59 76 34 70 122 128 123 109
77 89 6 26 104 133 138 127
93 101 -33 -28 74 130 145 139
103 113 -78 -90 36 119 148 148
108 115 -133 -155 -15 95 137 145
105 105 -189 -215 -71 57 110 127
90 84 -233 -259 -120 10 68 93
65 45 -251 -279 -157 -40 15 45
32 -2 -243 -289 -189 -88 -39 -9
-5 -32 -237 -316 -227 -135 -87 -52
-39 -47 -227 -342 -260 -169 -115 -73
-61 -50 -203 -331 -261 -176 -122 -79
-66 -48 -170 -278 -227 -156 -110 -74
-66 -52 -136 -214 -182 -129 -93 -66
-65 -56 -105 -165 -147 -108 -80 -62
-61 -50 -78 -128 -116 -88 -67 -53
-58 -38 -56 -93 -83 -64 -48 -38
-56 -31 -39 -67 -60 -46 -34 -26
-50 -27 -28 -49 -45 -34 -26 -19
-41 -22 -19 -33 -31 -24 -18 -12
-36 -19 -12 -23 -23 -18 -11 -7
-34 -19 -8 -19 -19 -16 -9 -6
-34 -20 -4 -18 -17 -15 -10 -6
-35 -21 2 -15 -14 -13 -9 -5
-34 -21 3 -13 -13 -13 -10 -6
-33 -20 5 -10 -12 -12 -9 -7
-34 -21 6 -10 -12 -11 -10 -7
-35 -22 8 -10 -10 -11 -10 -6
-36 -23 9 -9 -10 -11 -9 -5
-36 -24 10 -8 -10 -12 -9 -4
-35 -22 10 -7 -9 -11 -8 -4
-33 -20 11 -5 -7 -10 -7 -4
-34 -21 11 -5 -8 -11 -8 -4
-34 -23 10 -7 -8 -13 -8 -4
-34 -23 11 -6 -7 -12 -7 -4
-32 -20 12 -5 -6 -12 -7 -4
-33 -20 13 -4 -5 -12 -7 -3
-35 -22 13 -5 -7 -13 -9 -4
-33 -22 14 -5 -7 -13 -10 -4
-30 -18 17 0 -5 -11 -8 0
-28 -15 16 1 -3 -10 -6 1
-30 -17 17 2 -2 -8 -5 2
-32 -19 16 2 -3 -8 -6 1
-32 -19 15 2 -3 -9 -6 1
-31 -18 14 1 -4 -11 -8 0
-30 -17 15 3 -2 -8 -6 1
-27 -14 16 4 0 -7 -5 2
-26 -14 15 3 -2 -7 -5 2
-28 -16 17 5 0 -7 -4 2
-27 -16 17 6 0 -7 -3 2
-25 -14 17 6 1 -6 -2 3
-26 -14 16 6 1 -6 -3 2
-27 -15 17 7 2 -5 -2 2
-26 -15 17 8 3 -5 -2 2
-25 -15 16 8 3 -5 -3 2
-25 -14 17 8 3 -4 -2 2
-24 -12 17 10 4 -3 0 3
-23 -11 16 10 5 -2 1 4
-23 -12 17 11 5 -2 1 4
-23 -15 17 12 5 -2 1 5
-23 -15 17 14 7 0 2 7
-21 -13 17 14 8 0 3 7
-22 -14 17 16 9 1 4 8
-22 -16 17 15 9 0 4 9
-20 -14 16 15 9 0 2 7
-16 -10 17 17 9 1 4 8
-15 -8 16 18 9 2 4 9
-16 -9 15 17 9 1 3 8
-16 -10 17 19 11 4 5 10
-12 -8 18 22 12 5 7 12
-10 -5 19 24 14 6 8 13
-10 -5 19 26 16 8 9 13
-10 -6 18 27 16 8 9 13
-10 -6 17 27 16 8 9 13
-9 -7 16 27 16 7 8 12
-8 -7 15 29 17 8 9 13
-6 -6 15 30 18 9 9 13
-4 -4 16 33 20 11 11 14
-4 -2 17 35 21 12 12 15
-3 -3 17 37 22 13 12 16
-3 -4 16 39 22 13 12 15
-4 -6 16 42 23 14 13 15
-4 -8 17 44 24 15 15 16
-2 -6 17 46 26 16 16 17
6 0 17 48 29 18 17 18
12 2 19 52 31 21 19 20
12 2 19 54 32 22 20 21
12 2 19 56 33 23 20 21
15 3 19 57 34 23 21 21
14 1 19 60 34 24 22 22
12 -2 18 60 34 23 21 21
13 -2 16 61 34 22 20 20
16 1 18 64 37 24 23 23
19 3 19 65 39 25 24 24
23 5 20 66 39 25 23 24
26 7 20 67 38 24 23 24
25 8 20 68 38 25 24 24
24 7 20 68 38 25 24 24
22 5 21 67 38 25 23 23
21 5 22 69 39 26 24 24
22 5 22 70 39 25 24 23
23 6 23 71 40 25 24 23
23 7 22 69 39 24 23 22
21 6 23 69 39 24 23 22
20 5 23 69 39 24 22 22
21 5 25 70 39 24 22 22
21 5 26 70 39 25 23 23
22 6 25 68 39 24 22 22
21 6 26 69 39 24 22 22
21 7 27 69 39 24 22 23
20 8 27 69 39 25 22 24
20 9 28 70 40 26 23 24
19 11 28 70 42 25 23 24
18 12 28 68 43 25 24 24
16 12 29 67 43 26 24 25
15 12 29 65 40 25 22 24
14 11 29 64 40 26 22 23
12 12 28 62 39 24 22 22
9 11 29 61 39 25 22 22
7 10 29 59 38 24 23 24
8 11 29 56 37 23 22 23
8 12 29 54 37 23 23 23
4 11 30 50 35 22 21 22
0 9 28 47 33 19 20 21
-3 8 27 43 30 18 18 20
-2 9 27 42 30 19 18 20
-2 11 26 38 29 18 17 18
-2 11 26 35 27 16 15 17
-4 10 26 32 23 13 14 16
-5 8 25 29 20 12 12 15
-7 7 24 26 18 10 11 13
-9 5 22 22 17 8 9 11
-10 2 20 19 15 6 7 9
-11 1 19 17 12 4 6 8
-13 0 18 14 10 3 4 7
-15 0 17 11 7 2 3 5
-16 -3 18 11 7 1 3 4
-17 -5 16 8 6 1 2 3
-17 -6 16 8 6 0 2 4
-15 -4 16 7 4 -2 2 3
-16 -4 16 8 5 -2 3 4
-17 -6 15 7 4 0 1 2
-17 -6 15 7 4 0 2 2
-16 -5 15 6 5 -2 2 2
-16 -5 15 5 5 -2 1 2
-16 -4 16 6 5 -2 1 3
-15 -4 15 5 4 -2 1 2
-15 -3 15 5 4 -2 2 3
-17 -4 15 5 4 0 2 3
-18 -5 15 6 3 -2 2 4
-19 -6 14 5 2 -4 1 2
-19 -6 13 4 2 -4 1 2
-20 -8 13 4 3 -3 1 3
-19 -8 13 4 4 -3 1 2
-17 -6 15 6 5 -3 1 3
-14 -3 16 6 6 0 3 3
-12 0 16 6 6 -2 1 3
-11 0 15 6 6 0 1 4
-11 -2 15 6 6 0 1 4
-11 -2 14 6 6 -2 2 4
-12 -2 14 6 6 -2 2 4
-14 -3 14 6 7 -2 2 3
-14 -3 14 6 6 0 2 3
-14 0 14 6 6 -2 2 3
-13 0 15 5 6 -2 2 2
-15 -4 14 3 4 -2 0 2
-17 -6 14 2 4 -3 0 2
-17 -6 13 1 4 -3 0 2
-14 -4 13 1 3 -4 -2 1
-13 -3 13 2 3 -3 -2 1
-15 -3 13 3 4 -2 0 2
-15 -3 14 3 4 0 1 2
-14 -2 15 4 5 0 2 1
-13 0 17 6 7 1 3 4
-11 1 18 6 7 2 3 4
-10 4 19 6 8 3 4 5
-8 7 21 8 11 5 5 6
-9 8 22 10 12 6 6 6
-9 9 22 10 12 6 6 6
-9 8 22 10 11 5 6 6
-10 8 22 10 12 5 7 7
-11 9 23 10 13 6 7 7
-10 9 24 10 12 5 6 6
-11 10 25 10 11 5 7 6
-10 12 28 11 12 6 7 7
-7 16 29 12 14 8 8 7
-7 17 29 12 15 8 10 8
-7 17 26 10 14 8 9 7
-7 17 24 9 13 8 8 8
-5 18 21 7 11 7 8 8
-2 20 17 6 11 7 9 9
4 23 14 7 13 8 11 11
8 27 13 8 15 11 14 14
9 27 12 8 14 11 14 14
8 24 12 9 16 12 14 15
8 24 10 8 15 12 14 15
9 23 7 7 13 12 14 14
9 22 4 5 11 10 12 12
9 19 5 4 11 10 13 12
8 17 7 5 11 10 14 12
6 14 8 5 12 9 14 12
4 10 8 4 11 8 12 10
3 6 6 2 9 6 10 7
2 3 7 1 7 5 8 6
1 2 6 -3 4 1 4 3
-2 1 6 -5 1 -2 2 1
-5 0 5 -7 0 -3 -2 -3
-8 -3 8 -6 0 -3 -2 -4
-8 -5 8 -8 -3 -6 -5 -6
-8 -7 8 -8 -4 -6 -5 -6
-10 -8 8 -8 -4 -6 -5 -6
-11 -8 8 -9 -4 -7 -5 -6
-11 -8 8 -9 -5 -7 -5 -6
-13 -9 7 -9 -5 -9 -5 -7
-15 -10 7 -11 -7 -10 -6 -8
-16 -11 6 -12 -9 -10 -6 -8
-16 -11 6 -11 -8 -9 -6 -8
-15 -10 6 -11 -7 -9 -7 -9
-14 -10 7 -9 -7 -9 -6 -9
-14 -11 7 -9 -7 -9 -6 -9
-15 -12 7 -10 -7 -8 -6 -9
-16 -13 7 -10 -7 -8 -5 -8
-15 -14 7 -10 -7 -7 -5 -8
-14 -12 7 -10 -6 -7 -6 -8
-13 -11 7 -9 -6 -8 -6 -8
-14 -11 9 -7 -5 -7 -5 -7
-15 -10 13 0 0 -4 -3 -7
-16 -8 22 10 8 1 0 -5
-18 -3 35 26 20 8 4 -2
-19 6 48 47 37 20 13 6
-19 15 59 66 56 34 25 15
-13 23 64 84 73 51 38 28
3 32 63 98 90 66 55 42
23 44 59 109 106 84 72 56
40 57 56 111 120 103 92 74
57 72 48 97 126 120 113 95
75 85 29 68 118 130 130 112
94 94 3 25 98 130 139 126
107 105 -35 -30 67 123 144 136
117 114 -82 -96 24 107 141 141
120 112 -139 -169 -33 73 121 130
114 97 -192 -231 -93 28 85 104
94 67 -227 -270 -141 -21 37 63
63 24 -237 -290 -178 -70 -17 11
25 -12 -232 -311 -212 -116 -66 -35
-12 -29 -227 -339 -244 -151 -99 -62
-41 -35 -216 -348 -259 -168 -113 -72
-55 -36 -188 -315 -240 -159 -109 -70
-55 -38 -154 -253 -200 -136 -94 -63
-51 -46 -123 -196 -164 -115 -80 -60
-48 -48 -98 -156 -135 -99 -71 -58
-44 -39 -72 -119 -103 -76 -56 -47
-38 -29 -51 -87 -75 -55 -39 -33
-33 -24 -35 -63 -55 -39 -27 -24
-27 -20 -25 -46 -40 -29 -19 -18
-21 -17 -17 -33 -31 -22 -13 -13
-19 -16 -12 -27 -26 -19 -10 -11
-20 -18 -9 -24 -24 -17 -10 -10
-20 -20 -6 -21 -22 -16 -10 -10
-20 -19 -2 -18 -18 -15 -9 -10
-19 -20 1 -16 -17 -14 -8 -9
-19 -21 2 -15 -17 -15 -9 -10
-21 -21 4 -13 -15 -14 -9 -10
-19 -20 6 -12 -15 -13 -9 -10
-18 -19 6 -11 -15 -13 -8 -9
-19 -20 7 -10 -14 -13 -7 -9
-20 -21 8 -9 -13 -13 -6 -8
-19 -20 10 -9 -12 -12 -6 -9
-19 -20 10 -8 -11 -11 -5 -8
-18 -20 11 -7 -10 -10 -5 -8
-17 -20 11 -7 -11 -10 -5 -9
-17 -19 12 -6 -10 -8 -5 -8
-19 -20 12 -5 -9 -9 -4 -6
-21 -21 12 -5 -9 -10 -5 -6
-20 -22 11 -5 -10 -14 -6 -7
-20 -22 11 -4 -10 -15 -5 -6
-17 -18 13 -3 -8 -14 -4 -5
-14 -15 14 0 -6 -12 -2 -4
-13 -15 13 0 -8 -12 -3 -4
-13 -15 13 1 -7 -11 -3 -3
-12 -14 14 1 -6 -9 0 -3
-13 -15 14 1 -7 -9 0 -4
-14 -15 15 2 -6 -7 1 -3
-13 -14 14 2 -5 -7 0 -4
-14 -15 15 4 -5 -7 1 -4
-16 -16 14 5 -4 -7 1 -5
-15 -16 14 5 -5 -8 -2 -6
-13 -15 15 5 -4 -7 -3 -6
-11 -14 15 7 -3 -5 1 -4
-10 -13 16 9 0 -3 3 -2
-10 -14 16 8 0 -3 2 -3
-13 -16 15 8 0 -3 2 -3
-15 -18 14 8 1 -3 3 -3
-13 -16 14 9 2 -2 4 -2
-10 -14 15 11 3 0 4 0
-9 -14 15 12 3 0 5 0
-9 -15 16 12 4 1 5 0
-6 -13 15 13 4 1 4 0
-5 -13 15 14 4 2 6 1
-6 -13 14 15 4 2 5 2
-5 -11 15 15 5 3 6 1
-3 -8 15 17 7 5 7 3
-2 -8 14 17 7 6 8 4
0 -7 14 18 8 7 9 4
1 -7 15 20 8 7 8 4
1 -7 15 21 9 7 8 3
0 -7 16 23 10 8 9 3
0 -7 16 24 11 10 9 4
3 -7 16 26 12 11 11 5
6 -6 16 28 13 11 12 6
7 -5 16 28 13 11 11 7
7 -7 16 30 15 12 12 8
7 -8 15 31 15 13 13 8
7 -6 16 33 18 16 15 10
9 -4 15 35 18 16 15 9
9 -4 14 36 18 15 15 8
11 -3 13 36 18 15 14 8
14 -2 14 38 20 17 16 10
14 -3 14 40 22 19 18 12
13 -4 14 43 23 20 18 12
17 -2 14 45 24 20 18 12
21 1 15 48 27 23 21 13
22 1 16 51 28 24 23 14
23 0 16 52 28 24 23 15
24 0 14 53 27 23 21 14
24 -2 15 55 28 24 22 14
22 -3 16 56 30 25 23 15
23 -3 15 56 29 25 23 14
26 0 15 58 30 26 24 16
29 1 14 59 30 25 23 16
30 2 16 61 33 27 25 17
32 5 16 63 34 28 26 18
35 8 18 65 36 30 27 20
38 10 17 65 36 29 27 19
37 9 18 65 35 28 26 18
34 8 18 66 34 27 25 17
34 8 18 66 34 27 25 17
34 8 19 67 35 28 25 18
34 8 20 67 35 28 25 18
35 10 20 67 35 27 25 18
37 11 22 67 36 28 25 18
35 11 23 68 37 28 27 20
32 10 23 68 37 27 26 19
31 10 24 68 37 27 25 19
31 10 25 69 38 27 26 20
32 10 24 68 37 26 25 19
31 10 24 68 38 27 26 20
30 10 24 68 37 27 26 20
28 10 25 68 38 28 27 21
26 11 25 67 38 28 27 22
26 12 26 65 39 29 28 22
27 15 25 64 39 30 28 22
26 17 26 64 39 30 29 23
22 15 26 62 37 28 28 22
18 13 26 59 35 26 27 20
16 13 26 57 35 26 26 20
16 16 27 54 35 26 25 19
16 16 28 53 34 26 25 19
15 16 27 50 32 25 24 19
13 15 27 47 31 25 23 18
10 13 26 44 30 25 23 18
7 12 25 39 27 23 21 16
5 10 23 36 24 21 19 14
4 11 23 33 22 19 18 13
5 12 24 33 23 19 18 13
3 11 23 31 21 17 16 12
-2 9 23 27 18 15 14 10
-2 10 22 23 15 13 12 8
1 11 22 22 15 13 12 9
0 10 22 20 14 12 11 8
-4 7 20 16 12 11 10 8
-6 4 19 15 11 10 9 7
-7 1 17 12 8 6 6 4
-8 1 17 10 6 5 5 3
-7 2 17 10 5 4 5 3
-6 3 17 11 6 4 5 4
-6 3 18 11 6 5 5 4
-7 2 17 9 5 4 4 3
-9 1 16 8 4 2 3 2
-10 0 16 7 4 2 4 2
-11 -2 15 6 4 2 3 1
-11 -3 14 6 5 2 4 1
-12 -4 13 5 5 1 3 1
-12 -3 14 5 5 1 3 1
-11 -2 14 6 4 1 2 1
-10 0 15 7 5 2 3 1
-9 -2 15 7 5 2 3 0
-10 -3 14 5 4 0 2 0
-11 -4 14 6 4 0 2 0
-10 -3 13 5 4 1 2 0
-8 0 14 5 5 2 4 0
-7 1 15 6 6 3 5 2
-7 3 16 7 8 4 6 4
-6 2 15 7 8 3 6 3
-8 1 15 8 7 3 5 3
-9 1 15 8 7 3 5 2
-8 2 15 8 7 3 4 1
-7 2 15 7 7 2 3 1
-9 0 14 6 7 1 2 0
-12 -3 13 6 6 0 2 1
-13 -4 14 6 6 0 3 1
-11 -4 15 6 7 2 4 2
-9 -2 15 7 8 3 5 3
-7 0 15 7 8 2 5 4
-8 -2 14 5 7 1 4 3
-11 -4 13 5 6 0 4 2
-12 -4 14 4 6 -2 3 1
-10 0 16 6 8 1 4 3
-9 1 16 7 8 2 4 3
-10 0 15 7 8 2 4 3
-9 2 15 6 8 1 5 3
-8 6 18 8 11 4 8 6
-8 9 20 10 13 7 10 9
-7 11 21 10 14 7 9 10
-5 13 21 10 13 6 9 9
-4 14 24 11 14 7 12 10
-4 14 25 12 15 8 11 9
-6 13 26 11 14 8 10 9
-7 13 27 11 14 8 10 8
-4 16 28 12 15 8 11 9
-3 19 30 12 16 9 12 10
-3 20 28 12 16 10 12 11
-3 20 24 11 16 9 12 11
-3 20 20 8 15 8 10 9
-4 20 19 7 14 8 11 10
-3 20 15 5 13 7 11 10
2 21 11 5 13 8 11 11
6 23 9 6 13 10 13 13
11 26 9 7 14 11 15 13
12 27 9 7 14 11 15 13
11 26 8 5 15 12 15 14
10 25 7 6 15 12 15 16
10 22 5 5 13 11 15 16
9 18 3 1 10 8 12 12
6 14 3 0 9 7 10 10
3 12 3 -2 7 5 9 8
3 11 6 0 8 5 9 9
4 10 7 1 8 5 8 8
5 8 7 0 6 3 6 4
5 6 6 -3 5 1 4 3
2 3 5 -6 3 0 2 1
-4 -2 4 -8 0 -5 -2 -3
-11 -7 6 -9 -3 -7 -4 -6
-13 -8 7 -10 -5 -9 -7 -9
-13 -7 8 -10 -5 -9 -7 -9
-12 -7 8 -10 -5 -9 -7 -9
-12 -8 9 -10 -5 -8 -7 -9
-14 -9 8 -12 -6 -10 -7 -8
-14 -9 6 -13 -7 -12 -7 -9
-14 -10 5 -14 -9 -12 -8 -9
-14 -12 5 -14 -8 -11 -8 -8
-13 -11 5 -13 -7 -10 -7 -9
-11 -9 6 -13 -6 -9 -6 -8
-12 -10 6 -14 -7 -10 -7 -9
-13 -11 7 -13 -7 -12 -7 -10
-10 -10 7 -12 -6 -11 -6 -9
-10 -8 7 -11 -6 -11 -6 -8
-12 -10 5 -14 -8 -12 -7 -10
-14 -13 5 -14 -9 -13 -8 -10
-13 -13 6 -14 -8 -12 -7 -9
-14 -13 7 -13 -7 -11 -6 -9
-16 -13 8 -9 -4 -10 -5 -9
-18 -12 13 -2 4 -7 -4 -8
-19 -7 26 14 14 1 0 -5
-20 2 38 32 28 10 6 -2
-21 11 51 54 48 25 18 8
-18 20 60 73 66 43 32 20
-4 29 63 91 85 60 49 32
16 37 60 105 103 77 65 47
34 47 54 114 117 95 82 62
53 62 48 108 128 112 102 81
73 76 34 86 127 125 119 100
95 86 12 50 110 127 129 113
111 96 -18 4 84 120 135 125
122 109 -57 -56 49 109 138 133
129 114 -105 -129 -3 84 125 127
125 103 -159 -203 -66 39 92 104
107 78 -205 -262 -126 -12 47 68
78 38 -229 -295 -171 -64 -7 19
40 -4 -230 -315 -205 -111 -58 -30
1 -28 -229 -343 -239 -149 -97 -65
-33 -35 -221 -361 -260 -169 -114 -77
-52 -33 -201 -344 -253 -169 -115 -79
-56 -31 -171 -290 -217 -148 -101 -73
-54 -38 -142 -231 -180 -128 -91 -71
-54 -49 -114 -184 -151 -111 -82 -71
-53 -49 -88 -147 -122 -93 -71 -65
-46 -38 -62 -111 -91 -68 -53 -52
-37 -28 -45 -82 -66 -50 -37 -39
-28 -21 -32 -62 -49 -37 -27 -32
-18 -14 -22 -45 -34 -26 -18 -24
-12 -10 -17 -35 -26 -21 -15 -21
-12 -12 -13 -31 -24 -20 -14 -20
-15 -14 -10 -28 -21 -19 -13 -20
-14 -15 -7 -25 -19 -17 -11 -19
-14 -16 -6 -24 -18 -17 -12 -20
-15 -19 -4 -23 -17 -17 -12 -20
-17 -20 -3 -22 -16 -16 -12 -19
-19 -21 -2 -21 -15 -16 -12 -19
-19 -21 0 -22 -16 -17 -12 -20
-19 -21 1 -21 -15 -17 -11 -20
-19 -20 3 -19 -14 -16 -11 -19
-18 -19 4 -18 -13 -15 -11 -21
-17 -19 6 -16 -12 -15 -11 -21
-15 -18 6 -15 -13 -15 -11 -21
-13 -16 6 -14 -11 -14 -10 -21
-13 -15 6 -14 -11 -12 -9 -20
-13 -15 7 -14 -10 -12 -8 -18
-13 -15 8 -13 -10 -12 -8 -18
-13 -16 8 -11 -9 -12 -8 -18
-13 -16 7 -12 -10 -12 -8 -18
-12 -15 8 -10 -9 -12 -7 -18
-11 -13 10 -8 -6 -10 -6 -17
-10 -13 10 -7 -5 -10 -6 -17
-11 -14 8 -8 -7 -13 -8 -19
-11 -15 10 -8 -7 -12 -8 -20
-11 -15 11 -7 -6 -10 -7 -20
-11 -14 10 -7 -6 -11 -7 -20
-11 -13 10 -7 -6 -11 -7 -19
-11 -14 10 -7 -6 -12 -6 -19
-13 -17 10 -5 -5 -11 -6 -18
-14 -19 10 -4 -5 -10 -7 -19
-13 -17 11 -4 -3 -10 -6 -18
-9 -14 11 -2 0 -8 -3 -16
-6 -12 11 -2 0 -8 -2 -16
-4 -10 11 0 1 -7 0 -15
-4 -10 11 0 2 -5 0 -13
-5 -11 8 -2 0 -6 -3 -15
-7 -12 7 -2 0 -7 -3 -16
-5 -11 7 0 0 -6 -2 -15
-4 -10 10 3 2 -3 2 -13
-3 -10 10 3 2 -3 1 -13
-4 -10 10 5 4 -2 2 -12
-4 -11 9 4 4 -2 2 -13
-4 -11 9 4 3 -3 2 -14
-2 -10 9 5 4 -2 2 -14
0 -9 9 7 5 0 3 -13
0 -9 9 7 5 0 3 -12
0 -9 8 7 4 -2 2 -12
2 -8 8 8 5 -2 3 -13
4 -7 8 10 7 0 3 -12
3 -8 8 11 7 1 3 -12
4 -7 9 14 10 3 5 -11
8 -4 9 15 11 3 7 -10
13 0 9 17 12 4 7 -9
16 0 11 20 14 6 8 -8
15 -2 11 21 15 6 8 -8
12 -5 10 21 15 6 8 -8
13 -5 9 22 15 5 8 -8
15 -3 10 25 16 7 10 -8
16 -3 10 26 16 8 9 -8
14 -6 8 26 16 8 9 -9
14 -8 7 28 18 10 9 -9
15 -8 7 31 20 12 11 -8
17 -7 8 32 20 14 12 -7
19 -6 8 32 20 15 12 -7
21 -4 7 34 21 15 12 -7
24 0 7 36 23 18 14 -6
28 2 7 39 26 21 16 -3
31 4 8 43 28 22 18 1
32 4 8 44 28 22 18 0
32 3 10 46 29 23 18 1
32 2 10 47 29 23 17 1
33 2 11 50 32 24 19 1
34 1 11 52 33 24 19 1
36 2 12 52 33 24 18 1
38 3 13 53 33 25 19 0
38 2 13 54 34 25 20 1
37 1 13 55 34 25 19 2
36 1 13 56 34 24 19 3
34 0 15 57 34 24 20 4
35 0 16 57 34 24 19 3
36 2 16 58 35 25 20 3
38 4 15 58 33 24 20 3
38 4 15 58 33 24 20 3
37 4 16 58 33 24 19 2
35 3 15 58 33 24 18 1
34 3 15 57 33 23 18 1
35 5 16 57 33 23 17 1
36 7 17 58 33 22 18 2
37 9 16 58 33 22 18 3
38 10 15 58 34 23 18 3
38 10 16 58 35 24 19 4
37 11 17 58 35 23 19 4
35 10 17 58 34 22 19 4
32 9 18 56 35 23 20 4
29 8 20 55 36 23 20 4
28 9 22 55 36 24 21 5
28 10 21 54 35 25 22 6
27 10 20 51 35 24 20 5
26 11 21 49 34 25 20 5
25 14 22 47 33 25 21 6
23 15 23 46 33 24 20 5
19 14 21 44 32 22 19 4
15 14 22 43 31 22 19 5
14 14 22 39 29 21 18 4
11 13 23 36 28 20 17 4
7 11 22 34 27 20 17 4
5 10 20 31 25 17 14 3
2 8 21 29 22 15 13 2
-2 6 22 26 20 13 11 0
-3 4 21 24 18 12 11 0
-3 2 19 21 16 9 9 -3
-4 0 18 18 13 7 7 -4
-6 -2 16 15 11 6 6 -5
-6 -2 16 13 11 5 6 -4
-6 -2 16 11 10 5 6 -4
-7 0 15 10 8 3 4 -6
-7 0 14 9 6 2 2 -7
-7 1 12 7 5 0 0 -8
-8 0 12 7 5 0 0 -8
-10 0 11 7 5 -2 1 -8
-11 -2 10 5 3 -3 0 -10
-12 -3 9 5 3 -3 0 -10
-13 -5 9 4 3 -3 -2 -10
-12 -5 10 3 3 -4 -2 -10
-10 -3 12 3 2 -3 0 -10
-8 0 14 4 3 -2 1 -9
-8 1 14 4 3 -2 0 -9
-9 1 13 4 3 -2 0 -9
-10 0 13 5 4 0 1 -7
-9 0 11 4 4 -2 0 -7
-9 -2 12 4 5 0 1 -6
-10 -3 12 3 4 -3 0 -8
-12 -4 9 1 3 -4 -2 -10
-14 -5 8 -2 1 -5 -4 -11
-15 -5 9 0 4 -4 -2 -9
-12 -2 11 2 4 -3 0 -8
-6 2 13 3 4 -3 -2 -7
-4 6 15 4 3 -3 0 -5
-4 5 15 6 5 0 3 -3
-5 3 15 5 5 1 2 -4
-5 2 14 4 4 0 0 -6
-5 1 13 3 4 -2 0 -6
-7 0 12 2 4 -3 0 -5
-8 0 9 0 2 -4 -3 -8
-9 0 9 1 2 -4 -3 -7
-8 0 11 1 4 -3 0 -7
-8 -2 10 0 2 -4 -3 -9
-10 -4 10 0 3 -5 -4 -9
-11 -5 10 1 3 -5 -4 -8
-11 -4 11 2 3 -3 -3 -7
-11 -4 11 2 3 -3 -2 -7
-10 -4 11 1 2 -4 -2 -7
-9 -4 10 0 2 -4 -3 -6
-7 1 11 1 3 -4 -2 -5
-5 5 15 4 6 0 2 -4
-4 7 16 5 7 1 4 -2
-5 7 17 5 7 2 3 -2
-6 8 17 5 7 2 3 -2
-6 8 17 5 8 2 3 -2
-7 9 18 6 9 1 3 -2
-6 10 19 6 10 2 4 1
-3 13 21 7 12 3 6 3
-2 15 23 9 13 5 8 5
-4 15 24 8 12 4 7 4
-4 16 25 9 12 5 6 5
-3 17 24 8 11 4 6 5
-3 18 20 6 10 4 6 4
-4 18 18 5 10 4 7 3
-3 19 18 5 11 4 8 5
0 19 14 4 10 4 8 6
2 19 9 2 10 4 8 6
4 21 8 4 12 7 10 8
7 23 7 5 13 8 11 9
9 24 7 4 12 7 11 10
9 24 7 4 13 7 11 11
9 23 7 4 14 8 12 11
9 20 5 2 11 6 10 9
7 16 4 0 9 5 9 9
5 14 4 0 7 4 8 8
4 11 5 -2 7 3 7 7
3 8 7 0 7 4 6 6
3 5 6 -2 5 2 3 3
3 2 5 -4 4 1 2 2
3 1 3 -7 1 -4 0 0
-2 -4 3 -10 -3 -7 -4 -4
-5 -7 3 -12 -5 -10 -7 -8
-8 -8 4 -12 -6 -11 -9 -9
-9 -8 6 -12 -7 -11 -9 -9
-10 -10 6 -11 -7 -11 -9 -8
-10 -10 7 -11 -6 -10 -8 -8
-11 -9 8 -11 -6 -10 -8 -8
-12 -10 5 -14 -9 -12 -10 -10
-13 -13 5 -14 -11 -13 -10 -10
-13 -13 5 -15 -10 -13 -9 -10
-12 -13 5 -15 -10 -12 -9 -11
-10 -12 4 -16 -11 -12 -9 -11
-12 -13 4 -15 -10 -12 -10 -10
-14 -14 3 -15 -9 -13 -11 -10
-15 -14 3 -15 -9 -12 -11 -10
-13 -12 2 -17 -10 -13 -11 -10
-10 -10 2 -17 -10 -12 -10 -9
-9 -9 2 -18 -11 -12 -11 -11
-11 -11 1 -18 -12 -13 -12 -12
-14 -13 2 -17 -12 -13 -12 -12
-16 -15 3 -16 -11 -12 -12 -12
-17 -16 9 -10 -5 -9 -11 -12
-18 -14 18 3 5 -5 -9 -10
-18 -8 30 19 18 3 -4 -6
-19 2 43 39 36 16 6 2
-16 13 54 62 58 33 20 14
-7 24 59 81 79 53 36 28
10 35 57 101 101 73 55 44
32 46 52 119 123 98 77 64
51 60 47 128 140 120 102 87
67 76 34 111 143 137 123 108
84 87 13 72 129 142 138 125
100 92 -17 19 99 135 143 134
110 102 -51 -41 60 122 143 140
114 109 -89 -106 14 101 135 139
111 105 -133 -172 -43 65 109 125
98 89 -179 -233 -101 16 69 94
74 58 -210 -273 -149 -33 20 53
40 14 -216 -293 -185 -80 -32 3
2 -23 -210 -317 -221 -128 -82 -45
-37 -43 -205 -350 -258 -165 -117 -73
-65 -49 -197 -359 -274 -182 -133 -85
-72 -44 -174 -321 -249 -169 -123 -80
-64 -37 -145 -260 -207 -143 -106 -72
-55 -40 -120 -207 -173 -122 -95 -68
-51 -44 -97 -168 -144 -106 -85 -64
-47 -40 -73 -131 -113 -85 -69 -54
-40 -32 -56 -101 -86 -65 -54 -40
-32 -25 -43 -77 -65 -50 -41 -30
-27 -21 -31 -57 -49 -37 -32 -22
-23 -21 -24 -44 -37 -29 -25 -17
-20 -21 -19 -37 -32 -25 -22 -15
-17 -20 -15 -33 -29 -24 -21 -14
-14 -15 -9 -27 -23 -20 -17 -11
-11 -12 -4 -23 -18 -17 -15 -9
-12 -13 -2 -22 -16 -17 -16 -9
-14 -18 0 -20 -15 -16 -15 -8
-15 -19 -2 -22 -17 -18 -18 -10
-17 -20 0 -21 -17 -18 -18 -10
-18 -20 2 -18 -16 -18 -17 -10
-19 -20 3 -16 -14 -17 -17 -10
-19 -20 3 -16 -13 -17 -17 -10
-18 -21 3 -16 -14 -17 -17 -11
-16 -20 4 -15 -14 -17 -17 -9
-14 -16 5 -15 -12 -15 -16 -8
-14 -15 6 -13 -10 -13 -14 -7
-16 -17 6 -13 -11 -13 -14 -8
-18 -21 5 -14 -12 -15 -16 -9
-20 -21 6 -13 -11 -15 -16 -10
-20 -20 6 -12 -10 -14 -16 -10
-19 -19 7 -11 -10 -13 -15 -8
-16 -18 6 -10 -9 -12 -14 -8
-11 -14 6 -8 -7 -10 -11 -6
-9 -12 8 -6 -5 -9 -9 -2
-10 -13 9 -6 -4 -8 -10 -2
-11 -14 10 -5 -4 -8 -10 -3
-10 -12 9 -5 -4 -7 -9 -3
-10 -13 10 -5 -2 -6 -8 -2
-12 -14 9 -5 -3 -6 -9 -3
-11 -13 9 -4 -4 -8 -10 -2
-9 -12 9 -3 -3 -7 -10 0
-8 -12 10 -2 -2 -6 -9 0
-9 -13 9 -3 -2 -6 -9 -3
-10 -13 9 -3 -2 -8 -9 -3
-10 -12 9 -3 0 -10 -9 -3
-9 -10 10 -2 2 -10 -8 -2
-8 -8 10 0 2 -11 -8 -2
-6 -7 8 0 2 -10 -7 0
-5 -5 7 -2 1 -10 -7 -2
-5 -6 8 0 2 -9 -6 0
-5 -7 8 1 2 -9 -6 0
-5 -8 9 2 3 -8 -6 1
-5 -8 9 4 4 -7 -5 2
-4 -8 10 5 5 -7 -4 4
-4 -8 10 6 7 -6 -2 4
-3 -7 9 7 7 -6 -2 3
-2 -7 8 9 8 -5 0 3
-3 -8 8 10 8 -4 0 4
-4 -8 7 10 7 -5 0 4
-3 -8 7 12 8 -5 0 4
-3 -8 9 14 10 -4 1 5
-2 -7 9 16 11 -4 0 5
1 -5 9 18 12 -3 2 5
3 -4 10 20 13 -2 4 7
6 -2 12 22 16 1 6 9
8 -2 12 24 16 2 6 9
9 -2 11 26 17 4 6 9
9 -3 10 28 17 4 6 9
10 -4 8 29 17 4 6 8
13 -2 7 30 18 3 6 8
17 3 9 34 21 5 8 12
18 5 10 37 24 8 12 14
18 4 8 38 24 8 13 15
19 6 8 40 25 7 12 14
19 7 9 43 26 9 12 14
19 5 9 45 26 10 12 12
20 4 9 46 26 10 13 12
21 4 9 49 29 12 14 14
22 4 10 53 31 14 15 17
24 3 10 54 31 13 15 17
25 2 10 56 32 13 15 18
25 1 10 58 34 14 16 18
25 0 9 59 34 14 18 18
26 0 11 61 36 17 21 20
28 1 12 63 38 18 22 22
30 2 12 65 39 19 22 21
31 1 12 67 39 19 22 20
30 0 11 66 37 17 20 20
28 0 12 67 37 19 21 21
29 1 13 69 38 19 21 22
30 3 15 71 40 21 22 22
31 4 17 73 44 23 23 23
33 6 16 72 43 21 22 21
34 8 16 72 43 19 21 20
34 8 15 72 42 19 21 20
32 5 15 72 43 21 22 21
29 5 16 72 43 21 22 21
30 7 17 72 42 21 22 22
31 8 17 72 40 21 22 23
29 7 18 74 42 20 22 24
28 8 19 74 43 21 22 24
30 12 19 75 45 23 23 25
33 15 19 76 46 23 24 24
34 17 19 75 47 23 24 24
34 18 19 73 47 23 25 24
30 18 20 71 46 23 24 24
26 18 21 70 46 24 24 25
25 19 22 68 45 24 24 25
24 20 22 66 44 23 23 25
20 18 22 63 42 22 22 24
16 15 21 60 39 20 21 22
14 15 20 57 38 20 20 22
12 14 21 56 38 20 20 23
10 14 20 52 36 17 19 20
8 13 19 48 35 16 18 19
7 12 19 45 33 15 17 18
5 12 19 40 30 14 14 16
3 11 18 35 26 10 11 14
1 10 17 31 23 8 9 12
-3 9 15 27 19 5 7 10
-6 7 13 24 16 3 6 8
-6 5 12 21 14 0 3 5
-5 6 15 22 14 0 2 5
-4 7 16 19 13 -2 1 4
-4 6 15 16 11 -4 1 3
-4 5 15 15 11 -3 1 4
-5 4 13 13 9 -3 0 4
-6 3 12 10 7 -5 -2 4
-7 1 10 9 6 -6 -2 3
-7 1 9 8 4 -6 -3 2
-7 2 9 7 3 -6 -3 1
-8 4 10 7 4 -5 -3 1
-8 5 10 7 4 -6 -3 1
-7 4 10 6 4 -7 -3 1
-7 3 9 5 4 -7 -4 0
-9 2 9 4 4 -7 -5 0
-10 0 9 4 3 -6 -5 0
-10 0 9 2 2 -7 -5 -2
-10 0 9 2 2 -7 -5 -3
-10 0 9 4 2 -6 -5 -2
-9 0 9 4 2 -6 -4 -2
-10 0 10 5 2 -6 -3 0
-12 -2 10 5 3 -6 -4 0
-12 -3 9 5 4 -6 -4 0
-10 0 7 4 4 -6 -3 0
-8 1 7 4 4 -5 -3 0
-9 0 6 3 3 -5 -4 -2
-12 -2 6 3 3 -6 -4 0
-12 -2 7 2 2 -7 -4 0
-10 0 9 3 2 -7 -5 0
-10 0 9 3 2 -7 -5 -2
-13 -3 7 1 2 -9 -6 -4
-13 -3 7 1 1 -10 -7 -4
-11 -3 8 3 3 -8 -5 -2
-11 -4 7 2 3 -8 -5 -3
-12 -5 6 1 2 -8 -6 -3
-12 -4 6 0 1 -8 -6 -4
-11 -3 7 1 1 -6 -4 -4
-10 0 7 0 0 -6 -5 -4
-8 2 8 1 0 -6 -6 -4
-8 3 8 1 1 -5 -6 -5
-9 1 8 1 1 -6 -7 -5
-7 1 8 2 2 -5 -7 -4
-5 5 10 5 5 -4 -3 0
-6 6 13 6 8 -2 0 3
-7 6 14 6 8 -2 0 3
-8 5 14 5 7 -2 0 2
-9 4 13 3 7 -2 -2 1
-7 7 14 5 8 1 2 3
-4 10 16 7 9 2 3 4
-6 11 16 7 9 2 2 3
-8 11 17 7 10 2 2 2
-7 12 19 7 11 2 2 2
-6 14 20 8 11 2 3 3
-7 15 18 7 12 4 4 4
-4 15 16 8 12 5 5 5
0 18 14 8 13 7 7 7
1 19 14 6 12 8 9 9
-2 19 11 2 8 5 7 7
-2 19 8 0 7 4 7 7
1 22 5 2 9 6 8 9
5 25 5 4 11 6 9 10
8 27 9 6 13 8 10 12
8 28 9 5 12 7 10 11
8 26 7 3 12 6 10 11
6 23 4 1 11 7 11 11
5 21 1 -2 9 6 10 11
5 20 -2 -4 8 5 8 9
4 19 1 -3 8 5 8 9
5 18 2 -3 6 4 7 8
6 17 1 -3 6 4 6 6
6 12 1 -3 5 2 4 3
3 7 2 -5 3 0 2 2
2 3 2 -7 0 -5 -2 1
0 0 2 -9 -3 -8 -4 -3
-4 -4 5 -11 -5 -9 -6 -6
-9 -8 7 -12 -5 -9 -7 -8
-9 -9 6 -12 -5 -10 -9 -9
-8 -7 6 -13 -6 -12 -10 -9
-10 -8 6 -14 -8 -14 -11 -10
-14 -12 5 -15 -9 -14 -11 -10
-15 -14 3 -16 -10 -15 -12 -11
-13 -12 2 -16 -10 -15 -12 -12
-11 -9 2 -15 -9 -14 -11 -11
-9 -8 2 -16 -8 -14 -11 -11
-10 -8 1 -16 -9 -14 -11 -11
-11 -9 1 -16 -9 -13 -10 -10
-11 -8 -2 -17 -10 -14 -11 -10
-8 -7 0 -17 -11 -15 -12 -10
-8 -5 1 -19 -13 -16 -12 -10
-11 -7 2 -19 -12 -16 -12 -11
-13 -9 2 -20 -13 -16 -13 -12
-13 -10 2 -19 -13 -15 -14 -12
-13 -12 2 -18 -12 -15 -14 -12
-13 -13 4 -13 -7 -13 -13 -12
-14 -14 10 -3 0 -10 -12 -12
-17 -13 22 12 11 -4 -9 -10
-20 -9 34 29 26 4 -4 -7
-21 0 45 49 45 17 5 0
-15 13 55 71 68 35 20 12
-2 26 59 93 93 59 39 29
17 38 59 114 117 85 64 50
33 50 54 121 136 110 90 72
47 63 39 99 137 127 112 95
60 74 17 52 119 134 130 116
74 84 -12 -2 91 133 140 131
87 93 -47 -54 55 125 145 140
91 102 -85 -111 13 108 141 143
87 102 -128 -174 -39 76 121 134
76 92 -175 -235 -99 30 85 107
60 71 -212 -279 -148 -18 40 71
37 32 -224 -296 -181 -63 -11 22
9 -16 -217 -306 -211 -111 -66 -32
-25 -45 -207 -333 -252 -160 -113 -76
-55 -52 -199 -358 -283 -191 -140 -96
-70 -49 -180 -338 -273 -188 -137 -95
-68 -41 -153 -279 -229 -161 -118 -86
-60 -40 -128 -224 -189 -138 -103 -77
-54 -46 -104 -182 -159 -121 -94 -72
-49 -44 -82 -145 -131 -102 -80 -64
-40 -34 -62 -111 -100 -78 -62 -50
-32 -24 -48 -86 -76 -60 -47 -36
-26 -19 -36 -65 -58 -47 -35 -28
-23 -19 -28 -50 -45 -37 -28 -23
-22 -20 -23 -43 -37 -33 -26 -20
-22 -22 -18 -37 -33 -31 -25 -19
-21 -22 -16 -35 -30 -30 -25 -20
-19 -20 -14 -32 -27 -27 -24 -19
-17 -19 -13 -30 -26 -26 -23 -19
-17 -19 -10 -27 -23 -24 -21 -17
-16 -18 -8 -25 -20 -23 -19 -16
-15 -17 -5 -23 -18 -21 -17 -14
-17 -19 -4 -21 -18 -21 -18 -14
-19 -20 -3 -20 -18 -22 -18 -14
-19 -22 -3 -20 -17 -21 -19 -15
-19 -24 -3 -19 -16 -21 -19 -15
-18 -23 1 -18 -14 -19 -17 -13
-16 -20 2 -19 -14 -19 -16 -12
-16 -20 3 -19 -15 -19 -15 -12
-16 -21 2 -18 -15 -19 -15 -12
-16 -20 2 -17 -13 -18 -13 -10
-17 -19 2 -16 -13 -18 -14 -11
-17 -19 2 -16 -14 -19 -15 -12
-17 -19 3 -14 -13 -18 -15 -12
-16 -18 3 -14 -11 -18 -15 -12
-16 -19 4 -13 -10 -16 -13 -11
-16 -20 4 -13 -11 -16 -14 -12
-15 -19 3 -14 -12 -17 -15 -13
-13 -16 4 -13 -11 -15 -13 -10
-11 -13 4 -12 -10 -14 -11 -8
-11 -12 5 -11 -8 -12 -10 -7
-13 -14 6 -11 -7 -12 -10 -7
-14 -15 8 -9 -6 -11 -10 -8
-13 -15 7 -8 -6 -12 -10 -9
-11 -14 7 -7 -6 -12 -10 -10
-11 -14 7 -7 -5 -12 -10 -10
-13 -17 6 -8 -6 -13 -12 -11
-17 -19 5 -9 -7 -14 -12 -11
-17 -17 3 -10 -7 -15 -11 -10
-15 -15 3 -8 -6 -12 -10 -8
-14 -14 4 -7 -5 -10 -10 -9
-12 -13 6 -5 -3 -9 -10 -8
-8 -9 8 -3 0 -7 -8 -7
-8 -9 7 0 1 -7 -7 -6
-11 -12 5 0 1 -7 -7 -6
-11 -13 4 0 1 -6 -6 -7
-9 -11 4 0 1 -6 -5 -6
-9 -11 5 0 3 -5 -4 -4
-7 -9 5 1 3 -3 -5 -4
-3 -6 6 3 5 -2 -3 -2
-2 -6 6 4 6 -2 0 0
-3 -8 6 4 6 -2 0 0
-3 -8 6 6 6 0 0 0
-4 -8 7 8 7 1 0 0
-4 -9 6 8 7 0 -2 -2
-3 -7 5 10 8 2 0 -2
1 -3 6 14 12 6 3 2
0 -4 5 13 12 4 3 1
-3 -7 4 12 11 2 1 0
0 -7 5 15 12 4 4 2
4 -3 8 19 15 7 6 5
6 -2 8 21 17 8 6 5
7 -4 8 23 19 8 7 5
6 -5 10 26 21 9 8 6
6 -6 8 28 21 9 8 6
6 -7 7 29 22 10 8 5
7 -7 6 30 22 11 8 4
8 -8 5 30 22 11 8 4
10 -6 6 33 25 13 10 6
15 0 6 37 27 15 12 8
19 3 6 40 29 16 14 9
21 3 6 42 29 15 14 9
21 2 7 45 30 16 15 9
20 2 7 47 31 16 15 9
21 2 7 49 31 16 15 8
23 2 8 50 32 17 16 9
25 3 9 52 33 19 16 10
28 4 9 53 34 19 16 10
28 4 9 53 35 19 16 10
26 2 8 55 35 20 16 10
24 0 8 56 35 20 17 10
25 1 10 56 35 22 20 12
26 2 11 58 36 22 21 13
25 0 11 59 36 22 20 13
24 0 12 59 36 21 19 12
26 2 14 60 36 22 20 12
28 4 14 61 38 21 19 12
29 5 15 61 39 20 18 12
32 8 17 62 39 21 19 13
33 9 17 62 38 21 20 14
29 5 17 62 37 21 20 14
24 1 16 60 36 19 18 12
23 1 15 59 35 18 17 11
24 5 17 60 37 19 19 12
26 9 18 60 38 19 20 13
26 10 18 60 37 20 20 13
25 11 18 59 37 21 21 13
24 12 17 57 37 20 20 12
21 12 15 54 36 19 19 12
18 12 16 53 36 20 19 13
17 14 17 53 37 21 20 13
18 16 17 52 37 20 19 13
18 16 18 50 35 20 18 13
14 15 20 48 35 20 18 14
12 14 21 46 35 18 19 14
12 15 20 43 32 17 17 12
11 16 19 39 30 16 16 10
9 15 18 34 29 14 14 8
5 13 17 30 27 11 13 7
2 11 16 27 24 11 11 6
2 12 15 24 22 10 10 6
0 12 13 19 19 8 8 5
-4 10 12 16 17 6 6 4
-6 8 11 12 14 3 4 1
-7 8 12 10 13 0 2 -2
-9 6 13 8 10 -3 0 -3
-9 4 13 6 7 -5 -2 -4
-5 7 13 4 6 -5 -2 -5
-4 6 13 2 5 -5 -2 -5
-9 2 12 0 2 -6 -4 -6
-13 -2 11 -4 1 -8 -6 -8
-13 -3 10 -5 -2 -9 -7 -10
-14 -4 9 -5 -2 -9 -7 -10
-14 -4 8 -5 -3 -10 -8 -10
-11 -2 6 -6 -3 -10 -7 -10
-9 1 7 -6 -2 -9 -6 -8
-10 0 9 -5 0 -8 -5 -7
-12 -2 7 -7 -2 -10 -7 -9
-16 -3 6 -9 -3 -11 -8 -10
-16 -4 7 -8 -3 -10 -8 -10
-15 -3 6 -8 -3 -11 -9 -10
-14 -2 6 -8 -3 -11 -10 -10
-13 -3 7 -7 -4 -12 -10 -10
-12 -4 7 -7 -4 -12 -10 -10
-11 -3 7 -5 -2 -11 -9 -10
-9 0 8 -6 0 -9 -8 -10
-9 0 8 -6 0 -7 -7 -9
-9 0 7 -6 0 -8 -8 -10
-9 0 5 -7 -2 -10 -8 -11
-11 -3 6 -7 -2 -10 -8 -11
-14 -6 6 -7 -2 -9 -8 -11
-14 -5 7 -6 -2 -9 -8 -11
-13 -4 8 -4 0 -8 -7 -9
-13 -4 8 -5 0 -9 -8 -10
-13 -4 6 -7 -2 -10 -9 -11
-12 -4 6 -8 -3 -11 -9 -11
-14 -6 7 -8 -3 -11 -8 -11
-17 -9 5 -9 -4 -11 -10 -12
-16 -8 4 -9 -5 -11 -10 -12
-11 -3 7 -7 -3 -9 -9 -11
-8 0 9 -6 0 -9 -8 -10
-9 0 10 -5 0 -9 -9 -11
-11 -2 9 -5 0 -9 -8 -10
-10 0 10 -4 1 -8 -7 -8
-9 1 10 -4 1 -7 -5 -6
-9 2 12 -2 4 -5 -3 -4
-9 4 13 0 5 -4 -2 -4
-8 7 14 0 5 -4 -3 -4
-8 8 14 -2 5 -3 -2 -4
-8 8 14 -2 5 -3 -2 -4
-9 9 15 0 6 -3 -2 -4
-9 10 16 1 7 -2 0 -4
-9 11 16 1 7 -3 -2 -5
-9 12 19 3 8 -3 -2 -5
-8 13 20 4 8 -3 -3 -4
-7 14 21 5 9 1 1 -3
-7 16 19 4 9 1 3 -2
-5 19 17 2 9 1 3 1
-2 21 16 2 9 3 4 3
-2 21 14 -2 8 2 4 4
-2 21 11 -5 5 0 3 2
1 22 7 -6 5 0 2 1
1 22 7 -4 6 1 2 2
-2 21 8 -4 6 1 2 2
-3 20 7 -5 5 0 2 1
0 20 5 -3 7 2 4 2
4 21 4 -3 7 3 5 3
7 21 3 -3 7 4 6 4
7 19 2 -5 6 3 5 4
6 17 3 -5 5 2 4 4
6 17 4 -5 5 1 4 4
4 14 2 -6 4 0 4 3
1 7 3 -5 4 -2 3 2
0 1 3 -6 1 -4 0 -2
-2 0 3 -7 0 -5 -2 -3
0 -2 4 -9 -3 -7 -4 -5
-4 -5 5 -10 -4 -11 -7 -8
-7 -8 5 -12 -7 -13 -9 -12
-10 -10 5 -13 -9 -14 -10 -12
-12 -11 5 -14 -10 -14 -11 -13
-13 -13 4 -16 -10 -16 -12 -15
-16 -14 3 -18 -11 -17 -13 -16
-15 -14 3 -19 -12 -17 -14 -17
-15 -14 4 -19 -14 -19 -16 -17
-17 -16 3 -19 -14 -20 -17 -17
-18 -18 3 -19 -14 -19 -17 -17
-15 -18 2 -19 -13 -19 -17 -18
-12 -17 3 -19 -13 -19 -16 -18
-12 -15 3 -18 -13 -19 -15 -17
-13 -14 1 -20 -14 -20 -16 -18
-14 -16 0 -20 -14 -19 -17 -18
-14 -17 -2 -20 -14 -19 -17 -18
-13 -16 1 -18 -14 -19 -16 -18
-12 -16 2 -18 -15 -20 -17 -18
-11 -18 4 -16 -13 -20 -17 -18
-13 -19 7 -12 -9 -18 -16 -17
-16 -19 14 -4 -3 -16 -15 -17
-19 -20 24 9 6 -12 -15 -19
-24 -16 36 23 17 -7 -13 -19
-24 -6 50 43 34 5 -5 -13
-18 6 58 64 57 22 9 -2
-6 18 63 87 81 45 27 14
10 30 63 108 106 69 51 36
26 44 57 110 122 94 76 59
38 58 44 84 123 112 100 82
50 70 21 35 106 120 117 103
66 80 -11 -15 78 120 129 119
77 90 -48 -67 47 117 136 132
80 99 -89 -126 7 105 135 137
79 101 -136 -186 -44 77 120 130
74 94 -186 -243 -100 35 90 108
59 73 -225 -284 -149 -13 46 72
36 29 -236 -297 -178 -58 -7 23
11 -21 -226 -300 -204 -107 -63 -33
-18 -52 -217 -325 -245 -157 -113 -78
-49 -62 -207 -349 -281 -194 -144 -101
-64 -59 -187 -330 -276 -195 -146 -104
-65 -54 -157 -273 -232 -169 -127 -93
-59 -55 -132 -219 -192 -144 -110 -85
-54 -58 -107 -177 -161 -126 -98 -79
-49 -53 -82 -140 -129 -103 -82 -68
-41 -43 -61 -104 -97 -77 -63 -53
-34 -34 -47 -79 -74 -60 -50 -41
-27 -29 -36 -60 -58 -48 -39 -32
-21 -25 -27 -46 -44 -38 -31 -25
-18 -23 -19 -35 -33 -33 -26 -21
-18 -24 -14 -31 -30 -31 -25 -20
-19 -27 -9 -29 -27 -29 -24 -20
-19 -30 -8 -27 -24 -27 -24 -19
-20 -32 -7 -25 -23 -27 -24 -20
-20 -31 -5 -24 -22 -26 -23 -18
-19 -29 -3 -22 -21 -25 -21 -18
-20 -30 0 -20 -19 -24 -21 -18
-21 -31 1 -18 -19 -25 -23 -19
-20 -30 4 -16 -17 -25 -23 -18
-18 -28 6 -14 -16 -24 -21 -18
-16 -25 6 -12 -14 -21 -20 -16
-16 -25 6 -13 -12 -20 -18 -15
-17 -27 6 -13 -13 -20 -17 -14
-18 -29 5 -14 -14 -21 -17 -14
-19 -30 4 -16 -15 -21 -18 -16
-20 -30 6 -14 -14 -20 -17 -15
-20 -30 8 -13 -13 -19 -17 -14
-20 -29 7 -12 -13 -19 -18 -14
-18 -27 9 -9 -11 -18 -16 -13
-13 -23 10 -7 -7 -15 -14 -11
-11 -21 11 -5 -5 -13 -13 -11
-13 -22 10 -5 -6 -14 -14 -11
-15 -23 9 -7 -8 -15 -15 -12
-15 -23 8 -7 -8 -15 -15 -12
-14 -22 8 -7 -7 -15 -14 -11
-13 -21 9 -6 -6 -15 -14 -11
-12 -20 11 -5 -6 -14 -14 -11
-14 -22 11 -3 -6 -14 -14 -11
-15 -24 11 -3 -6 -15 -14 -11
-15 -24 11 -3 -5 -14 -14 -11
-15 -23 11 -2 -3 -13 -13 -11
-15 -23 11 0 -3 -13 -13 -10
-15 -22 9 -3 -4 -14 -13 -10
-14 -20 7 -3 -5 -14 -12 -10
-12 -19 7 -3 -3 -12 -12 -9
-11 -18 8 0 0 -11 -11 -8
-12 -19 8 0 -3 -13 -12 -9
-13 -19 10 2 -2 -12 -11 -9
-11 -16 11 2 1 -11 -10 -8
-8 -14 12 5 3 -9 -9 -7
-7 -13 12 6 5 -8 -8 -6
-7 -14 11 7 5 -8 -7 -5
-6 -13 10 6 4 -8 -7 -5
-5 -13 9 8 5 -6 -6 -4
-4 -13 9 9 6 -4 -5 -3
-5 -14 8 9 6 -4 -6 -4
-7 -16 10 11 7 -5 -6 -3
-8 -17 9 12 6 -6 -7 -4
-7 -16 11 15 9 -4 -4 -2
-3 -13 12 18 11 -2 -2 0
2 -10 13 20 14 1 1 2
2 -10 12 21 15 2 2 2
1 -10 10 22 15 3 2 2
1 -10 8 22 15 3 2 3
1 -12 8 23 15 4 3 3
0 -14 7 24 16 4 3 2
0 -13 9 27 18 4 3 3
2 -11 9 29 19 4 3 2
5 -9 11 33 22 6 6 3
8 -6 12 37 24 8 7 5
11 -6 12 39 26 9 8 6
10 -8 11 40 26 10 9 6
9 -9 10 42 27 11 9 7
12 -8 9 44 28 12 10 8
14 -6 9 46 29 14 12 8
15 -5 10 49 32 16 14 9
16 -6 12 52 33 15 14 8
17 -7 14 55 34 15 14 8
20 -5 14 57 35 15 15 9
22 -3 14 59 37 17 16 11
23 -3 13 61 37 17 16 10
23 -3 14 62 38 19 17 11
23 0 14 63 39 20 17 12
24 0 13 63 38 19 17 11
26 0 14 65 38 20 19 11
28 2 14 65 39 21 19 11
28 2 15 66 39 20 18 11
27 1 16 67 39 19 18 11
27 1 17 69 40 19 19 12
27 2 17 69 42 19 18 12
27 2 17 70 43 20 18 11
27 2 18 70 44 21 20 13
26 2 17 69 42 20 19 12
25 1 18 68 40 20 18 12
25 1 19 68 39 20 19 13
25 1 20 69 40 19 19 14
26 2 20 69 40 18 19 13
25 3 22 70 42 19 20 14
25 4 22 70 43 20 20 14
24 4 23 70 44 20 20 13
24 6 23 71 44 20 20 13
22 7 24 70 45 22 22 15
20 6 23 67 44 22 22 14
18 6 22 65 40 21 21 15
17 8 23 63 42 21 21 16
16 10 24 61 43 21 22 16
16 12 25 61 42 21 22 16
15 14 27 61 42 21 22 16
14 16 24 57 39 19 19 14
12 16 23 54 38 17 18 13
10 15 23 50 37 16 18 12
8 15 23 47 35 16 17 13
6 15 22 43 33 14 15 12
5 15 22 39 31 13 14 11
4 14 21 34 28 11 12 9
1 10 20 31 25 10 12 9
-4 6 17 26 20 6 8 5
-7 4 16 23 18 4 6 3
-6 6 16 21 17 3 6 3
-5 7 17 19 15 2 5 2
-8 5 17 16 13 -2 3 1
-11 2 15 12 10 -5 0 -2
-8 4 13 10 10 -5 0 -2
-5 5 11 8 8 -5 -2 -3
-8 3 9 5 5 -5 -2 -3
-11 2 9 3 4 -7 -2 -4
-12 2 10 4 4 -7 -3 -5
-13 0 10 3 4 -9 -4 -5
-14 -2 9 2 3 -11 -5 -7
-13 0 9 3 3 -9 -5 -7
-12 0 8 3 2 -9 -5 -7
-14 -2 8 0 3 -9 -5 -8
-16 -4 9 -2 2 -10 -5 -8
-17 -6 9 -2 0 -10 -6 -8
-16 -6 9 -2 0 -9 -6 -8
-14 -4 9 -2 2 -8 -5 -7
-11 0 9 0 2 -9 -5 -7
-11 0 10 1 2 -8 -3 -6
-13 -3 9 1 3 -9 -4 -7
-15 -5 9 1 3 -9 -4 -7
-14 -4 8 1 3 -8 -6 -8
-13 -3 8 0 3 -7 -4 -6
-12 -3 9 0 3 -7 -3 -6
-13 -4 9 1 4 -7 -4 -5
-11 -2 8 0 3 -7 -4 -5
-10 1 9 0 4 -7 -4 -5
-11 0 9 1 3 -7 -4 -5
-13 -4 9 2 4 -8 -4 -5
-14 -5 9 1 4 -9 -5 -7
-15 -6 9 1 4 -8 -5 -7
-16 -7 10 1 5 -7 -4 -7
-16 -8 10 0 4 -7 -4 -7
-16 -8 10 0 4 -7 -4 -6
-15 -8 9 0 3 -6 -4 -5
-14 -9 9 -2 3 -6 -4 -6
-15 -8 9 -3 3 -6 -4 -7
-15 -6 9 -2 3 -7 -4 -8
-13 -4 10 -2 4 -7 -4 -7
-12 -2 11 1 4 -6 -4 -7
-11 0 13 2 4 -5 -3 -6
-10 1 14 2 5 -4 -2 -5
-11 3 16 2 7 -2 1 -2
-10 6 17 4 10 1 3 1
-6 9 18 6 12 2 4 2
-6 10 18 6 12 3 5 3
-8 8 17 3 9 1 3 1
-11 7 16 3 8 -2 1 -2
-9 8 18 4 8 -3 0 -2
-8 10 19 5 9 -2 1 0
-9 9 21 7 10 1 3 0
-10 10 22 8 12 2 4 2
-9 13 22 8 14 5 7 5
-7 16 19 6 13 5 7 6
-6 18 16 4 11 4 7 5
-5 19 16 2 10 4 7 5
-4 20 13 0 10 4 7 6
-3 21 9 -3 8 3 6 5
-2 20 8 -2 8 3 7 6
-3 20 8 0 9 4 8 7
-2 21 9 1 11 5 10 9
3 25 9 2 11 6 10 10
7 26 7 2 11 7 11 11
7 24 3 0 10 7 11 10
6 21 1 -3 8 5 9 7
6 19 2 -3 7 5 10 7
5 16 3 -4 6 4 8 7
4 13 2 -4 6 3 6 4
2 11 3 -4 4 1 5 3
1 8 5 -3 4 -3 4 2
1 4 5 -4 2 -5 1 0
-2 0 4 -6 0 -6 -2 -3
-4 -4 5 -9 -2 -9 -4 -5
-7 -7 4 -11 -5 -12 -7 -8
-11 -9 4 -12 -7 -14 -10 -11
-12 -10 3 -15 -9 -15 -12 -13
-12 -10 2 -16 -9 -15 -12 -14
-12 -9 2 -16 -10 -15 -13 -15
-12 -9 1 -16 -11 -16 -13 -15
-13 -11 2 -16 -12 -17 -14 -16
-15 -12 2 -16 -12 -18 -15 -17
-15 -13 2 -16 -13 -18 -16 -17
-13 -13 2 -16 -11 -18 -15 -16
-11 -13 2 -17 -11 -19 -15 -17
-12 -14 1 -17 -12 -18 -15 -17
-13 -15 0 -18 -14 -19 -16 -19
-12 -15 -2 -18 -14 -19 -16 -19
-11 -13 -2 -19 -14 -19 -17 -19
-11 -12 0 -18 -14 -20 -16 -18
-10 -12 0 -18 -15 -21 -17 -19
-8 -12 2 -17 -14 -20 -17 -19
-9 -12 4 -15 -12 -19 -17 -19
-11 -13 9 -8 -8 -16 -15 -19
-13 -12 17 2 1 -14 -15 -19
-14 -10 29 17 11 -8 -13 -19
-16 -4 44 35 26 2 -6 -16
-16 6 55 56 46 16 4 -8
-7 18 61 76 67 34 19 6
11 30 62 99 92 59 42 25
28 44 59 110 113 85 65 47
40 58 51 95 120 104 88 67
51 72 32 56 112 116 107 89
64 82 3 8 93 121 121 107
77 92 -32 -41 65 121 132 122
88 104 -73 -98 30 115 137 133
93 112 -122 -159 -15 96 131 132
92 109 -178 -220 -69 62 109 119
82 93 -227 -269 -122 18 71 91
64 60 -251 -290 -159 -29 24 49
43 10 -248 -294 -186 -77 -32 -8
12 -33 -238 -310 -222 -129 -87 -59
-21 -54 -228 -340 -264 -175 -128 -92
-46 -59 -213 -349 -284 -197 -145 -105
-53 -55 -185 -309 -261 -185 -138 -102
-50 -54 -154 -245 -215 -155 -119 -93
-45 -58 -127 -196 -177 -133 -105 -87
-40 -54 -101 -159 -145 -113 -92 -79
-33 -40 -77 -123 -113 -89 -73 -66
-25 -30 -59 -94 -88 -68 -57 -51
-20 -27 -45 -72 -68 -54 -45 -41
-15 -23 -33 -55 -54 -43 -36 -35
-8 -17 -25 -44 -43 -35 -30 -29
-4 -15 -21 -37 -36 -32 -28 -27
-4 -17 -19 -36 -34 -32 -29 -28
-7 -21 -17 -35 -32 -31 -28 -28
-7 -22 -13 -32 -29 -28 -26 -26
-5 -20 -12 -31 -29 -27 -25 -26
-4 -20 -9 -29 -27 -26 -24 -26
-4 -21 -8 -28 -27 -27 -25 -26
-4 -21 -8 -27 -27 -29 -27 -27
-5 -22 -6 -25 -25 -28 -26 -26
-4 -21 -5 -25 -24 -28 -27 -26
-4 -20 -4 -24 -24 -27 -26 -25
-4 -20 -4 -24 -24 -26 -25 -24
-3 -20 -3 -23 -22 -25 -24 -23
-3 -19 -4 -24 -22 -25 -24 -23
-3 -21 -4 -24 -22 -24 -24 -23
-3 -22 -4 -24 -23 -25 -25 -25
-3 -21 -3 -23 -22 -25 -25 -24
-2 -19 -3 -22 -21 -25 -25 -24
-2 -18 0 -20 -20 -24 -23 -22
0 -17 1 -18 -19 -23 -22 -21
1 -17 1 -17 -18 -23 -21 -20
2 -18 1 -17 -17 -22 -20 -19
2 -18 1 -17 -17 -21 -19 -18
1 -19 1 -18 -17 -21 -19 -19
2 -19 -2 -19 -17 -21 -20 -20
2 -19 0 -19 -18 -22 -22 -20
1 -19 0 -19 -19 -23 -23 -21
0 -19 2 -17 -17 -22 -22 -20
3 -18 1 -15 -16 -21 -21 -21
7 -16 3 -13 -15 -20 -20 -20
8 -15 4 -11 -12 -18 -18 -18
8 -14 3 -12 -13 -20 -19 -19
6 -17 1 -13 -13 -19 -19 -19
4 -19 -2 -15 -14 -19 -20 -20
6 -17 -2 -14 -13 -17 -18 -19
13 -12 2 -10 -10 -14 -15 -15
16 -8 3 -10 -9 -14 -14 -15
15 -9 3 -8 -9 -15 -15 -15
15 -11 3 -8 -9 -15 -15 -15
16 -10 2 -7 -9 -14 -15 -15
16 -9 3 -5 -8 -13 -13 -14
17 -8 2 -5 -7 -12 -13 -14
19 -8 1 -5 -6 -12 -12 -14
19 -8 1 -5 -5 -10 -12 -13
18 -8 1 -5 -4 -9 -11 -12
19 -7 1 -4 -5 -11 -12 -13
21 -7 1 -3 -6 -12 -13 -14
21 -7 1 0 -5 -11 -13 -14
21 -8 1 2 -3 -10 -11 -12
22 -8 1 4 -2 -10 -11 -12
24 -7 2 6 0 -9 -10 -11
25 -7 2 6 1 -8 -9 -10
25 -7 1 6 2 -8 -9 -10
26 -7 0 6 3 -6 -9 -10
27 -7 -2 6 3 -6 -9 -11
27 -7 0 9 4 -5 -8 -10
30 -5 1 12 5 -4 -6 -9
33 -4 0 14 6 -3 -6 -9
34 -5 0 17 8 -3 -5 -9
34 -6 2 21 11 0 -3 -8
36 -6 1 23 12 0 -3 -7
38 -4 1 24 12 2 0 -6
42 -3 0 26 14 3 0 -6
44 0 1 28 16 4 1 -6
44 -2 1 29 17 5 2 -6
46 -2 0 31 18 6 2 -7
50 0 1 35 19 7 2 -7
54 2 3 38 20 8 2 -6
54 2 4 43 22 9 4 -4
54 1 4 45 23 8 5 -3
55 0 3 46 24 8 5 -3
55 0 3 47 24 9 6 -3
58 2 4 48 27 11 8 -3
62 5 4 48 27 11 9 -2
62 7 6 51 29 14 11 1
60 6 7 52 29 13 10 2
58 4 7 53 29 11 9 0
55 3 8 53 28 11 8 0
51 1 9 55 29 12 9 1
50 1 11 57 29 12 9 1
50 3 13 57 30 13 10 2
50 4 15 59 31 14 12 5
50 4 15 59 32 15 14 6
49 3 14 57 31 14 12 5
46 2 15 57 31 15 12 6
43 2 16 58 31 15 13 6
40 2 16 58 31 15 12 6
39 3 17 59 31 14 12 7
38 5 18 61 33 16 13 8
39 7 20 64 36 17 15 10
39 9 20 64 37 18 17 11
36 11 21 63 37 18 18 13
33 12 21 62 38 18 18 13
32 12 23 62 39 21 20 15
29 12 23 59 38 21 19 14
25 12 22 56 37 20 18 13
23 14 24 55 37 20 18 14
21 15 25 55 37 19 18 14
16 12 26 53 36 19 18 13
9 9 25 50 34 18 16 11
5 8 26 48 34 18 15 11
5 10 27 45 33 17 16 11
5 12 27 42 33 17 17 12
4 13 26 38 31 17 16 12
1 12 25 34 29 16 15 11
-4 9 24 30 26 14 13 9
-8 8 23 28 24 11 11 7
-9 9 22 26 22 10 11 7
-12 10 21 24 20 9 10 7
-14 8 19 20 18 6 7 4
-17 7 19 18 17 6 7 5
-18 6 17 14 14 4 5 3
-20 4 17 13 13 4 5 3
-20 3 15 9 11 3 3 2
-18 4 15 6 9 2 2 0
-18 4 16 6 8 1 2 -2
-19 4 14 4 5 -2 0 -4
-21 2 14 3 5 -3 0 -4
-22 0 15 2 4 -5 -3 -5
-23 -2 14 1 3 -6 -4 -7
-24 -4 13 1 3 -6 -4 -6
-23 -2 12 0 3 -5 -3 -6
-22 1 12 0 4 -5 -2 -5
-21 1 13 0 4 -4 0 -3
-20 0 13 -2 4 -3 0 -3
-21 -2 13 0 3 -4 -2 -4
-24 -5 12 -3 1 -7 -5 -6
-26 -7 12 -3 1 -7 -5 -6
-24 -5 13 0 2 -5 -3 -5
-20 -2 12 0 3 -4 -3 -5
-17 2 13 1 4 -3 0 -2
-14 3 12 1 4 -4 -2 -2
-16 0 11 0 4 -5 -2 -2
-19 -3 9 -3 2 -7 -3 -3
-21 -4 8 -5 1 -6 -4 -4
-22 -5 10 -5 0 -5 -3 -3
-21 -3 10 -3 1 -5 -3 -3
-19 0 12 -2 2 -5 -2 -4
-19 0 13 -2 3 -5 -2 -4
-18 -2 13 0 4 -5 -2 -4
-17 -2 12 -2 3 -6 -3 -5
-17 -2 12 -2 4 -6 -2 -4
-17 0 11 -3 4 -6 -2 -3
-17 -3 11 -2 4 -6 -3 -4
-17 -4 10 -3 1 -7 -4 -5
-17 -4 9 -4 1 -7 -4 -6
-18 -4 9 -5 0 -8 -5 -6
-19 -5 10 -4 1 -7 -4 -7
-18 -4 10 -3 0 -7 -4 -7
-17 -4 11 -3 1 -7 -4 -6
-17 -3 12 -3 2 -7 -4 -6
-17 -3 13 -2 3 -6 -4 -5
-16 -2 12 -3 3 -6 -3 -5
-13 0 12 -3 3 -5 -2 -4
-10 4 13 0 4 -4 1 -4
-10 8 17 3 8 2 5 0
-10 10 18 4 9 2 5 1
-10 10 19 5 9 2 5 1
-11 9 19 4 9 1 4 -2
-13 7 17 2 7 -3 1 -3
-13 7 18 2 7 -3 1 -3
-11 10 20 2 8 -3 2 -2
-11 12 21 2 9 -2 3 1
-12 12 22 2 9 -2 4 1
-12 13 23 3 10 1 5 2
-10 15 22 3 9 1 5 1
-7 18 20 2 9 2 6 0
-4 21 20 3 9 3 6 2
-3 23 19 2 10 3 6 2
-4 22 15 1 10 3 7 4
-4 21 10 -2 8 2 7 4
-3 21 8 -3 9 2 8 4
0 23 8 0 10 4 9 6
3 24 8 0 9 5 10 6
5 24 6 0 10 5 11 7
6 23 4 -2 9 4 10 6
7 23 1 -5 6 2 8 4
7 21 0 -6 4 1 7 3
5 19 0 -6 4 0 6 2
3 16 1 -5 4 0 6 1
0 12 1 -7 2 -3 4 1
0 8 2 -8 1 -5 3 0
1 5 2 -8 1 -6 1 -3
1 3 2 -9 0 -6 0 -4
0 0 3 -10 -2 -7 -3 -5
-2 -2 3 -11 -3 -8 -3 -7
-4 -4 5 -11 -4 -10 -4 -8
-5 -5 5 -13 -6 -12 -7 -11
-8 -8 4 -14 -8 -14 -9 -12
-11 -10 5 -15 -8 -15 -9 -13
-13 -8 4 -16 -9 -15 -9 -13
-13 -8 3 -17 -10 -16 -10 -14
-12 -9 2 -18 -11 -18 -11 -15
-13 -9 0 -20 -12 -18 -12 -17
-14 -9 -2 -20 -12 -18 -12 -16
-14 -9 -2 -20 -12 -18 -12 -16
-13 -9 -2 -21 -13 -19 -13 -17
-13 -10 1 -19 -12 -18 -12 -16
-13 -10 1 -18 -11 -17 -12 -16
-12 -11 1 -18 -11 -16 -12 -16
-12 -12 0 -19 -12 -17 -12 -16
-14 -13 0 -21 -13 -17 -12 -17
-15 -13 -2 -21 -12 -17 -13 -16
-14 -13 1 -19 -11 -16 -13 -15
-14 -14 4 -17 -10 -16 -13 -16
-16 -14 10 -9 -5 -15 -13 -17
-17 -10 20 3 5 -11 -11 -17
-16 -2 33 20 16 -5 -6 -14
-17 7 48 40 33 8 2 -8
-16 16 57 60 53 23 14 3
-8 25 62 78 72 43 29 16
7 36 63 96 95 64 50 34
23 48 60 106 115 88 72 54
36 62 53 97 127 108 97 76
53 80 37 67 125 125 119 100
71 97 9 25 109 133 135 119
88 108 -30 -27 81 132 145 134
99 120 -76 -85 47 126 151 146
106 127 -133 -147 1 106 145 147
107 120 -192 -208 -55 71 121 133
98 103 -240 -257 -106 25 84 103
78 68 -264 -278 -145 -25 33 58
49 18 -259 -287 -176 -73 -23 3
14 -20 -249 -312 -215 -124 -75 -46
-19 -37 -239 -344 -256 -165 -112 -75
-43 -44 -220 -347 -271 -184 -129 -89
-51 -45 -187 -302 -245 -171 -121 -87
-49 -45 -151 -235 -199 -144 -105 -79
-45 -48 -121 -184 -161 -122 -93 -75
-44 -47 -94 -146 -129 -100 -78 -67
-38 -37 -71 -114 -99 -78 -61 -54
-32 -28 -53 -87 -74 -59 -45 -40
-26 -22 -40 -67 -58 -47 -35 -32
-21 -17 -30 -52 -44 -36 -27 -25
-16 -13 -24 -41 -34 -30 -22 -21
-14 -14 -21 -37 -31 -29 -22 -21
-15 -16 -17 -34 -30 -28 -22 -21
-16 -16 -13 -30 -28 -26 -21 -20
-16 -17 -10 -28 -26 -25 -20 -20
-16 -18 -7 -26 -23 -25 -19 -20
-14 -17 -5 -25 -22 -25 -19 -20
-15 -16 -4 -24 -21 -24 -19 -19
-15 -17 -4 -22 -21 -24 -18 -19
-15 -18 -2 -21 -20 -23 -18 -19
-15 -18 1 -19 -18 -21 -17 -18
-15 -18 1 -19 -18 -21 -17 -18
-15 -18 1 -18 -18 -22 -17 -17
-15 -18 2 -18 -17 -20 -16 -17
-16 -18 2 -18 -16 -20 -17 -17
-16 -19 2 -18 -15 -20 -17 -17
-16 -20 3 -18 -15 -21 -17 -16
-16 -20 3 -18 -15 -20 -17 -16
-16 -20 3 -17 -14 -20 -17 -16
-15 -19 2 -17 -14 -19 -16 -16
-13 -18 4 -15 -13 -19 -15 -15
-12 -16 5 -15 -12 -19 -15 -16
-13 -16 6 -13 -11 -18 -13 -14
-11 -14 6 -13 -11 -18 -14 -14
-8 -12 8 -11 -9 -15 -12 -13
-7 -12 7 -11 -9 -14 -12 -14
-7 -12 7 -11 -9 -14 -12 -14
-8 -12 8 -10 -8 -14 -12 -13
-10 -14 7 -10 -9 -14 -13 -13
-12 -16 6 -10 -9 -16 -13 -16
-13 -17 6 -9 -9 -16 -13 -16
-12 -15 8 -8 -8 -15 -12 -15
-10 -12 9 -7 -7 -14 -10 -15
-8 -11 8 -5 -5 -13 -9 -14
-7 -10 8 -4 -4 -12 -9 -13
-7 -10 8 -4 -3 -12 -9 -13
-6 -11 8 -4 -3 -12 -8 -12
-5 -10 8 -4 -2 -11 -7 -12
-4 -9 9 -3 0 -9 -7 -11
-3 -9 8 -3 1 -9 -7 -12
-4 -9 6 -4 0 -11 -8 -13
-4 -9 6 -3 0 -11 -7 -12
-2 -9 9 1 1 -8 -5 -10
-2 -9 9 2 2 -8 -5 -9
-4 -11 8 2 3 -7 -5 -8
-3 -11 8 4 4 -6 -4 -7
-3 -10 8 5 4 -5 -4 -7
-2 -9 8 5 6 -5 -3 -6
1 -8 8 7 6 -4 -2 -5
4 -6 8 9 7 -2 -2 -4
5 -5 7 10 8 -2 0 -4
5 -6 6 11 8 -3 0 -4
5 -7 8 14 9 -3 1 -3
5 -5 9 15 10 -2 1 -3
7 -3 10 17 13 2 4 1
9 0 10 18 14 3 6 2
11 0 11 20 15 4 6 3
12 0 10 21 16 3 6 2
13 0 9 23 17 4 7 3
14 0 9 25 19 6 8 3
15 0 9 26 21 6 7 2
15 0 9 28 21 7 8 3
16 0 8 31 21 8 9 2
18 0 8 32 23 8 9 2
20 1 9 34 25 9 10 3
22 2 9 37 26 10 12 3
23 3 10 40 28 11 13 5
24 2 9 40 28 11 13 5
24 1 9 43 28 12 12 5
27 3 10 45 29 13 13 5
30 5 12 49 33 16 16 8
33 7 12 50 33 16 16 8
32 5 11 51 32 15 16 6
31 3 11 51 33 14 15 7
34 5 13 53 34 16 17 8
36 8 16 56 37 19 20 10
36 7 15 57 37 19 19 10
35 6 13 56 36 17 17 10
36 7 15 56 35 18 17 10
38 10 16 58 36 19 19 10
39 12 17 59 38 19 19 10
39 13 18 59 38 19 18 10
38 13 18 59 37 18 18 10
37 12 19 60 38 18 19 11
37 11 18 60 37 17 18 11
37 11 18 60 37 18 18 11
36 12 20 59 38 19 19 12
36 12 20 59 38 19 19 13
37 13 21 61 38 19 19 13
37 14 22 61 38 20 20 13
36 15 22 60 39 20 20 13
34 14 21 59 38 20 20 13
32 14 22 61 39 21 20 14
32 15 23 61 42 22 21 15
31 16 23 60 42 22 22 16
30 17 23 58 42 22 23 16
30 19 24 57 43 23 23 17
31 22 24 56 43 23 23 18
31 22 24 54 40 22 22 17
27 21 23 51 38 21 22 16
24 19 24 49 37 20 22 16
23 19 23 45 35 19 20 14
21 20 24 44 35 19 21 15
20 21 24 42 34 19 20 16
20 21 24 37 33 18 20 15
20 21 24 35 31 18 19 14
18 20 23 32 29 16 17 12
14 18 20 26 25 11 14 10
10 15 17 22 21 8 12 7
7 14 17 19 20 7 10 6
5 12 17 16 19 7 9 5
4 10 16 13 15 4 6 3
2 9 15 10 12 2 4 1
3 10 15 8 11 1 4 2
4 12 14 7 11 1 4 2
4 10 15 7 10 1 4 2
5 10 13 4 8 -3 1 -2
5 10 12 2 7 -4 0 -3
2 6 11 1 6 -5 -2 -4
-2 2 10 -2 3 -6 -3 -5
-5 0 9 -3 2 -7 -4 -6
-5 0 8 -4 1 -8 -4 -6
-4 1 8 -3 2 -7 -3 -4
-4 3 9 -3 3 -6 -3 -4
-4 4 10 -2 4 -6 -3 -2
-4 3 9 -3 2 -6 -3 -3
-4 3 10 -3 2 -6 -2 -3
-2 5 11 -2 4 -6 0 -2
0 5 11 0 6 -5 0 0
-2 4 9 -2 5 -6 -2 -3
-4 2 11 0 6 -5 1 -2
-4 1 10 -2 5 -6 0 -3
-5 1 9 -2 4 -6 -2 -4
-5 0 9 -3 4 -6 -2 -5
-6 0 8 -3 4 -6 -2 -5
-6 0 8 -3 3 -6 -2 -5
-5 0 7 -3 3 -6 -2 -5
-7 0 8 -4 4 -6 -2 -4
-8 0 8 -5 3 -7 -3 -5
-6 0 7 -5 2 -7 -3 -6
-5 0 8 -4 3 -6 -2 -4
-4 1 10 -2 5 -5 0 -3
-4 3 10 0 6 -5 1 -3
-4 3 9 0 5 -5 1 -3
-6 0 8 -3 3 -5 -2 -3
-6 0 8 -4 3 -5 -2 -3
-5 0 8 -4 3 -5 -2 -3
-6 -2 9 -4 4 -5 -2 -3
-7 -2 8 -5 4 -6 -2 -4
-8 -2 9 -6 3 -6 -2 -5
-9 -3 9 -5 3 -5 -2 -5
-10 -5 9 -4 3 -6 -2 -5
-11 -6 9 -4 4 -6 -2 -5
-11 -7 8 -5 3 -7 -3 -6
-12 -8 9 -5 3 -7 -3 -6
-10 -6 9 -5 3 -7 -4 -6
-7 -3 9 -6 3 -7 -3 -6
-6 0 10 -6 3 -7 -3 -6
-6 0 9 -6 3 -6 -3 -6
-6 1 10 -5 4 -5 -2 -5
-6 2 11 -4 5 -4 0 -3
-6 5 13 -2 7 -3 2 -3
-5 7 14 1 9 0 4 0
-6 7 16 2 10 1 5 1
-8 6 17 2 10 1 5 1
-7 8 18 3 10 2 5 1
-4 11 21 4 12 3 6 2
-4 12 21 3 11 2 6 1
-5 13 22 3 11 1 5 1
-4 16 23 5 12 3 6 3
-2 18 24 7 14 5 8 5
-2 18 22 6 14 4 8 5
-3 17 19 3 12 2 7 4
-2 17 17 2 11 2 6 4
-2 17 14 0 10 2 6 3
-2 16 9 -4 8 1 6 2
1 16 6 -4 8 1 7 3
4 19 6 -3 9 3 8 6
6 21 6 0 11 5 10 8
9 22 6 1 12 6 11 9
10 23 5 0 12 6 11 8
12 23 5 1 11 7 12 10
12 23 2 0 10 7 12 10
12 21 -2 -3 8 4 9 8
9 18 0 -3 7 3 8 7
6 15 1 -4 7 3 8 6
6 14 2 -4 6 2 7 5
6 11 2 -6 4 0 5 2
5 7 1 -8 1 -5 2 -2
2 3 2 -9 0 -6 0 -4
-2 1 1 -10 -3 -8 -3 -5
-4 -2 1 -11 -5 -10 -5 -8
-5 -3 4 -10 -5 -11 -7 -10
-7 -4 6 -11 -5 -12 -8 -10
-9 -6 5 -13 -6 -13 -9 -11
-11 -8 3 -14 -7 -14 -10 -11
-12 -8 3 -15 -8 -14 -9 -11
-12 -8 1 -17 -9 -15 -10 -12
-14 -9 1 -18 -10 -16 -11 -13
-16 -10 1 -18 -10 -16 -11 -13
-14 -9 2 -17 -9 -15 -10 -12
-12 -8 3 -15 -8 -14 -8 -11
-11 -9 2 -16 -9 -15 -10 -12
-11 -9 2 -16 -9 -16 -11 -13
-9 -7 2 -16 -9 -15 -9 -12
-9 -8 2 -16 -8 -14 -8 -12
-12 -11 1 -18 -10 -15 -10 -13
-12 -11 0 -19 -11 -15 -10 -13
-11 -10 0 -18 -11 -15 -10 -13
-11 -9 0 -18 -10 -16 -10 -13
-12 -8 3 -15 -8 -14 -9 -13
-14 -8 7 -11 -5 -13 -8 -12
-17 -9 14 -2 3 -10 -7 -12
-19 -6 24 11 12 -5 -5 -12
-20 3 37 31 29 7 4 -5
-18 14 50 52 49 23 16 5
-11 25 56 68 67 39 30 16
5 36 57 86 87 57 47 30
25 48 55 101 105 77 65 47
42 61 54 108 122 100 89 68
55 75 47 96 130 118 110 90
70 87 29 68 127 131 128 109
90 99 1 27 109 133 140 125
107 114 -38 -28 79 129 147 137
118 127 -89 -94 36 114 146 142
121 123 -149 -164 -19 84 129 134
115 107 -207 -228 -77 39 95 111
99 80 -245 -269 -128 -12 49 71
72 38 -256 -288 -165 -61 -6 19
37 -4 -251 -308 -201 -110 -58 -30
1 -27 -244 -339 -239 -150 -96 -62
-27 -32 -231 -355 -260 -173 -115 -75
-41 -32 -204 -329 -248 -170 -114 -77
-47 -36 -171 -270 -211 -148 -101 -72
-48 -45 -138 -211 -172 -127 -90 -70
-46 -47 -109 -168 -139 -107 -79 -66
-39 -38 -83 -132 -108 -87 -65 -56
-35 -28 -62 -102 -81 -67 -50 -45
-31 -22 -46 -77 -62 -51 -37 -34
-25 -18 -35 -59 -48 -40 -28 -27
-19 -16 -27 -46 -35 -32 -21 -22
-16 -16 -21 -39 -30 -28 -19 -19
-16 -16 -18 -36 -28 -28 -19 -19
-18 -17 -14 -33 -25 -27 -17 -19
-17 -16 -12 -31 -23 -25 -16 -17
-14 -15 -9 -28 -21 -23 -15 -15
-14 -16 -7 -27 -19 -23 -14 -15
-16 -17 -6 -27 -19 -23 -15 -16
-18 -18 -5 -26 -19 -23 -15 -17
-19 -19 -4 -24 -18 -22 -15 -16
-18 -19 -4 -24 -18 -23 -15 -17
-17 -18 -2 -22 -15 -22 -14 -15
-17 -18 1 -19 -15 -21 -15 -15
-18 -20 1 -19 -16 -21 -14 -16
-19 -20 0 -20 -15 -21 -14 -16
-19 -20 1 -20 -14 -21 -14 -16
-19 -19 0 -19 -14 -20 -14 -17
-18 -18 1 -18 -14 -20 -14 -17
-14 -13 3 -17 -12 -20 -13 -15
-11 -10 5 -14 -10 -18 -12 -14
-11 -11 4 -15 -11 -19 -13 -15
-12 -13 3 -15 -12 -20 -14 -16
-13 -14 4 -13 -11 -18 -13 -14
-12 -15 5 -12 -10 -18 -12 -14
-12 -15 5 -12 -10 -17 -12 -15
-14 -16 6 -12 -9 -16 -11 -14
-15 -15 6 -12 -9 -16 -10 -14
-15 -14 6 -11 -9 -15 -10 -14
-13 -13 6 -11 -9 -16 -11 -15
-12 -12 6 -10 -8 -15 -11 -15
-11 -11 7 -9 -7 -15 -10 -14
-11 -11 7 -8 -7 -15 -10 -15
-12 -13 5 -8 -8 -15 -11 -16
-11 -14 4 -7 -7 -15 -10 -14
-9 -11 6 -5 -4 -12 -8 -12
-7 -9 7 -5 -3 -12 -7 -11
-7 -9 6 -5 -3 -13 -7 -12
-8 -9 6 -5 -4 -13 -7 -12
-8 -9 5 -6 -4 -13 -7 -12
-10 -10 6 -5 -3 -12 -7 -11
-11 -12 6 -4 -2 -12 -7 -11
-9 -12 4 -4 -3 -13 -7 -12
-6 -10 4 -3 -2 -11 -7 -10
-2 -6 5 1 1 -8 -3 -8
0 -5 7 2 3 -7 -2 -6
0 -5 7 2 3 -6 -2 -6
0 -4 7 3 4 -6 -2 -6
0 -4 6 4 4 -6 0 -6
0 -5 6 4 4 -7 0 -7
-2 -6 6 7 5 -5 1 -6
1 -6 6 8 5 -5 0 -6
3 -5 6 11 8 -4 1 -3
3 -4 5 12 9 -3 2 -4
3 -5 6 13 10 -3 3 -3
3 -6 6 13 10 -2 3 -3
6 -4 5 13 10 0 4 -3
7 -3 5 16 12 2 6 -2
8 -3 5 16 11 1 5 -3
8 -4 6 18 13 2 6 -2
8 -4 6 21 15 4 7 0
9 -4 5 22 15 4 7 0
10 -4 5 23 17 5 8 1
11 -4 4 24 18 5 8 1
13 -4 3 26 18 5 8 0
15 -3 4 29 20 7 10 2
18 0 4 30 21 9 11 2
20 1 5 32 23 10 12 3
23 3 6 35 24 10 13 5
25 5 6 37 25 11 14 6
26 6 7 40 27 13 16 7
26 5 7 42 27 12 16 7
26 2 7 44 28 12 16 7
27 2 8 46 29 13 17 7
29 3 8 47 30 14 17 8
31 3 8 47 30 14 17 8
32 4 7 47 30 15 17 8
33 5 8 49 31 16 18 10
33 6 8 50 32 16 18 10
34 6 9 51 32 16 18 10
33 5 10 53 34 17 18 11
33 4 11 53 34 17 18 11
33 5 13 54 34 17 19 12
33 5 13 54 33 17 19 12
33 5 11 54 32 16 18 10
33 6 11 53 33 16 17 9
35 9 14 54 35 18 18 11
36 11 14 55 35 18 19 12
35 10 12 54 34 17 18 12
34 8 13 54 34 16 18 12
34 9 14 55 35 16 19 12
34 10 16 57 37 18 21 14
34 12 17 57 37 19 22 15
33 12 18 56 37 19 22 15
32 12 19 57 38 20 22 15
31 14 18 56 37 20 22 14
30 15 19 55 39 22 23 16
29 15 19 54 38 22 23 16
26 15 18 51 37 20 21 14
22 14 18 49 36 19 21 14
21 15 19 49 36 20 21 14
20 16 19 47 36 19 21 14
20 17 19 46 36 18 21 15
21 20 21 45 36 19 21 15
20 20 20 42 34 18 20 14
18 19 20 37 31 16 19 13
15 18 19 34 30 15 18 12
13 17 18 31 28 14 16 10
10 14 17 27 25 11 14 8
7 11 16 23 22 8 11 6
5 11 16 21 21 8 11 5
4 11 15 18 18 6 10 4
3 9 14 15 16 4 8 3
0 6 14 13 14 2 6 1
-3 3 13 11 13 0 5 0
-5 0 12 8 11 -3 4 0
-6 0 10 5 9 -4 1 -3
-6 0 9 2 6 -5 0 -3
-6 0 9 1 4 -6 0 -3
-5 2 10 2 6 -5 0 -3
-4 4 10 1 6 -5 1 -4
-4 3 9 0 5 -6 0 -4
-7 0 9 -2 4 -6 0 -4
-9 -4 7 -3 2 -7 -2 -5
-9 -3 8 -3 3 -6 0 -4
-8 0 7 -4 4 -5 0 -4
-8 0 7 -4 4 -6 0 -4
-8 0 8 -4 3 -6 0 -4
-7 0 8 -3 4 -6 0 -3
-6 1 8 -2 4 -6 -2 -3
-4 1 9 0 5 -5 0 -3
-4 1 10 1 6 -5 1 -2
-7 0 9 -2 5 -5 1 -2
-9 -3 7 -4 4 -6 0 -4
-9 -4 6 -4 3 -7 -3 -5
-9 -4 6 -3 2 -6 -3 -5
-7 -3 6 -3 3 -5 -2 -4
-5 1 8 -2 5 -4 0 -3
-4 4 9 0 6 -3 1 0
-5 4 8 -2 5 -4 0 -2
-6 2 8 -2 5 -4 0 -3
-8 1 8 0 5 -4 0 -3
-8 1 7 0 5 -4 0 -3
-6 2 8 1 6 -4 0 -3
-4 3 9 2 6 -4 2 0
-4 3 9 2 7 -4 1 -2
-6 1 8 0 6 -5 0 -3
-9 0 8 -2 4 -5 -2 -4
-10 0 8 -2 5 -5 -2 -3
-9 0 7 -3 4 -6 -3 -4
-9 0 8 -3 4 -5 -2 -4
-8 -2 8 -3 4 -5 -2 -4
-8 -2 8 -3 3 -5 -2 -4
-8 0 7 -2 3 -5 -2 -4
-8 0 9 0 4 -4 0 -3
-7 1 9 -2 4 -4 -2 -3
-7 0 9 -3 4 -4 0 -3
-10 -3 7 -5 2 -6 -3 -5
-13 -5 7 -4 2 -6 -3 -5
-11 -3 8 -4 3 -5 -2 -4
-7 1 10 -4 3 -5 -2 -3
-6 3 12 -2 5 -2 1 -2
-7 3 13 0 6 -2 1 -2
-8 3 13 1 6 -2 1 -2
-8 3 13 1 7 -2 1 -2
-8 4 14 1 8 0 2 0
-8 6 16 2 9 2 4 1
-6 9 16 2 9 2 4 1
-4 11 17 3 10 2 4 2
-4 12 18 3 10 2 4 2
-4 13 20 4 11 3 4 2
-4 15 20 3 11 3 3 1
-4 15 21 5 11 4 5 2
-5 15 23 7 12 5 7 5
-4 16 22 6 12 5 7 5
-3 17 20 4 12 6 6 4
-3 17 17 3 11 5 6 4
-4 17 14 2 11 5 7 5
0 19 10 0 10 3 6 5
5 21 7 0 10 5 7 6
9 24 6 1 11 6 9 7
12 26 8 4 14 9 12 9
14 27 8 5 13 9 12 10
13 25 7 6 14 10 12 11
12 23 4 5 13 9 11 10
12 20 2 4 12 8 11 9
11 19 0 2 10 7 10 7
10 17 0 0 8 5 10 7
6 15 1 -2 7 3 9 6
5 12 1 -3 6 3 7 5
4 9 1 -4 4 2 5 3
3 6 1 -5 3 0 3 1
4 5 1 -7 1 -4 1 -2
5 5 1 -7 -2 -6 -2 -4
2 3 2 -7 -2 -6 -2 -4
-3 1 4 -7 -2 -6 -3 -4
-6 0 4 -9 -4 -9 -5 -7
-9 -3 6 -9 -5 -9 -6 -8
-12 -6 4 -12 -7 -11 -8 -10
-15 -7 2 -14 -8 -12 -9 -10
-15 -6 2 -13 -7 -11 -8 -10
-15 -7 3 -14 -8 -11 -9 -11
-15 -10 2 -14 -9 -12 -10 -12
-17 -12 3 -13 -8 -12 -10 -12
-18 -11 3 -13 -8 -12 -10 -12
-15 -10 1 -15 -9 -13 -11 -13
-14 -9 1 -15 -8 -12 -10 -14
-15 -9 0 -15 -8 -12 -10 -14
-16 -9 -2 -17 -10 -13 -12 -15
-16 -11 -2 -17 -11 -14 -13 -15
-16 -10 0 -17 -11 -14 -12 -15
-14 -8 0 -17 -10 -13 -12 -15
-12 -7 1 -17 -11 -13 -12 -14
-14 -8 2 -15 -11 -13 -12 -15
-16 -8 4 -13 -9 -13 -11 -15
-17 -7 9 -6 -4 -9 -9 -13
-17 -4 18 7 7 -3 -6 -10
-17 4 31 24 22 7 2 -6
-17 15 46 46 43 20 13 4
-13 25 55 66 61 35 25 14
-7 32 59 85 78 53 39 26
9 40 58 101 96 69 54 38
30 52 55 114 113 88 72 55
48 64 53 116 128 108 95 75
65 78 42 99 131 122 114 95
87 93 24 70 125 131 131 112
107 105 -5 28 104 130 138 123
119 115 -41 -29 71 121 141 132
128 121 -92 -100 23 100 132 133
129 116 -149 -177 -39 61 106 116
117 96 -201 -241 -100 12 65 86
92 61 -233 -281 -151 -43 13 39
57 17 -239 -303 -187 -92 -39 -12
17 -16 -236 -326 -222 -134 -85 -52
-21 -30 -232 -353 -252 -164 -111 -73
-47 -32 -218 -354 -259 -174 -120 -79
-56 -32 -191 -313 -235 -159 -112 -76
-55 -35 -159 -252 -194 -137 -98 -71
-52 -43 -129 -199 -159 -119 -89 -70
-49 -45 -100 -158 -131 -102 -78 -66
-44 -36 -76 -123 -102 -81 -64 -56
-36 -25 -55 -93 -75 -61 -49 -44
-28 -17 -38 -69 -56 -46 -36 -34
-22 -14 -29 -52 -44 -36 -28 -27
-20 -14 -24 -40 -34 -30 -23 -23
-19 -14 -19 -35 -28 -28 -21 -21
-18 -14 -13 -31 -24 -25 -20 -20
-16 -14 -11 -29 -23 -24 -20 -19
-16 -14 -9 -28 -21 -24 -19 -19
-18 -15 -7 -26 -19 -22 -17 -19
-19 -15 -6 -24 -19 -22 -17 -19
-19 -16 -4 -23 -18 -21 -17 -19
-19 -15 -3 -23 -18 -21 -18 -20
-18 -14 -2 -21 -17 -20 -17 -20
-17 -14 0 -20 -16 -21 -17 -20
-16 -15 2 -20 -15 -21 -18 -19
-17 -16 2 -19 -14 -21 -17 -19
-18 -16 2 -19 -14 -21 -17 -19
-17 -15 4 -19 -13 -19 -16 -17
-16 -13 4 -19 -12 -18 -15 -17
-17 -13 4 -18 -12 -18 -15 -17
-16 -12 4 -17 -12 -18 -15 -17
-14 -11 5 -15 -12 -18 -14 -17
-13 -10 7 -13 -11 -17 -14 -16
-15 -12 7 -13 -11 -17 -14 -16
-17 -14 7 -12 -10 -16 -14 -15
-15 -13 6 -12 -10 -15 -14 -15
-13 -12 6 -12 -9 -14 -14 -15
-14 -12 6 -12 -9 -14 -14 -14
-15 -13 4 -12 -10 -14 -15 -16
-16 -14 5 -11 -9 -13 -14 -16
-17 -14 5 -11 -9 -14 -13 -16
-18 -16 5 -10 -9 -14 -14 -16
-18 -17 5 -8 -9 -14 -14 -16
-17 -17 5 -9 -9 -14 -14 -16
-15 -15 6 -8 -7 -12 -13 -15
-12 -13 8 -6 -6 -11 -11 -14
-6 -7 9 -5 -3 -9 -9 -12
-4 -4 9 -3 0 -7 -7 -10
-6 -7 6 -5 -3 -8 -9 -12
-8 -9 6 -4 -3 -8 -9 -12
-6 -8 7 -4 -2 -8 -8 -11
-6 -9 7 -4 -2 -8 -8 -11
-8 -10 6 -3 -4 -9 -8 -12
-8 -10 6 -3 -3 -9 -8 -12
-8 -10 6 -2 -2 -8 -8 -11
-8 -10 6 0 1 -6 -7 -11
-7 -9 6 1 2 -5 -7 -11
-4 -7 6 2 3 -4 -6 -10
-3 -5 6 3 3 -4 -5 -9
-4 -6 5 4 3 -3 -5 -8
-4 -6 5 4 3 -3 -5 -8
-4 -8 6 5 4 -3 -4 -8
-4 -9 6 6 3 -3 -4 -8
-2 -9 6 9 4 -2 -3 -6
1 -5 6 10 6 1 -2 -5
5 -2 7 12 8 3 0 -4
6 -3 7 13 9 3 1 -4
4 -5 5 13 7 2 0 -4
3 -5 6 14 9 3 0 -3
6 -3 6 16 11 5 2 -3
9 0 5 18 12 5 3 -3
11 1 5 19 13 5 3 -2
11 0 5 22 14 7 5 1
10 0 4 23 14 6 5 1
9 -3 4 23 14 7 5 1
8 -6 3 23 15 6 5 0
7 -8 2 24 15 6 5 0
11 -6 1 25 16 6 5 1
18 0 3 29 18 9 7 3
25 5 6 32 22 12 10 6
29 9 9 36 25 15 12 9
28 7 8 38 25 15 13 9
26 3 6 39 24 13 12 7
26 2 5 40 23 12 11 6
27 4 6 42 25 13 12 7
29 5 6 44 26 14 13 7
30 6 5 43 26 14 13 7
31 6 5 43 27 14 13 7
32 7 4 44 26 14 12 7
32 7 5 45 27 14 13 7
32 7 5 46 27 15 13 7
32 7 6 47 27 15 13 7
32 7 6 47 26 15 13 7
32 7 7 49 28 15 13 9
34 8 9 50 28 15 14 9
34 7 10 51 30 17 15 10
32 6 10 51 31 17 15 11
32 8 10 51 31 17 15 11
35 11 11 52 31 17 15 11
36 13 11 52 32 18 15 11
35 12 11 52 32 19 16 12
33 11 11 52 32 19 16 12
34 12 12 53 31 19 16 11
35 14 13 53 32 19 17 12
35 14 14 54 34 20 18 13
35 15 15 55 35 21 18 13
34 16 16 56 36 22 19 15
34 17 15 55 36 22 19 15
32 17 15 54 37 23 20 16
28 17 14 53 37 23 20 16
24 16 15 53 37 23 20 17
22 15 16 51 37 22 20 16
23 17 17 50 37 22 19 16
23 18 19 50 37 23 20 17
22 19 20 49 37 23 21 17
23 19 20 47 36 23 20 17
20 18 20 44 35 22 19 16
14 15 19 39 32 19 16 14
12 14 18 35 30 17 15 13
11 14 17 33 27 16 14 11
9 13 15 29 24 13 11 9
5 12 14 25 22 11 9 7
3 10 15 22 20 9 7 6
1 9 16 20 19 7 6 6
-2 9 16 18 17 7 5 6
-3 8 14 14 14 5 4 3
-4 6 13 12 12 3 3 1
-4 4 13 10 11 2 3 1
-5 3 14 9 10 2 2 1
-6 3 13 7 8 0 1 0
-7 2 11 5 7 -3 -2 -3
-8 1 10 3 4 -4 -3 -3
-9 0 8 1 2 -5 -4 -4
-9 -2 8 1 3 -5 -4 -2
-8 -2 7 0 3 -5 -4 -2
-7 0 9 0 4 -4 -2 -2
-5 2 10 1 4 -4 -2 -3
-5 2 8 0 4 -5 -2 -3
-5 1 6 -2 3 -5 -3 -3
-6 1 6 -3 3 -5 -4 -3
-8 1 8 -2 4 -4 -3 -2
-8 1 10 0 5 -4 -2 -2
-7 2 10 2 6 -4 -2 -2
-6 1 10 2 5 -4 -2 -2
-8 0 11 2 5 -4 -2 -2
-8 0 10 1 5 -4 -2 -2
-8 -2 8 0 4 -5 -3 -4
-10 -4 8 0 3 -6 -4 -4
-9 -3 8 -2 2 -6 -4 -4
-8 0 8 1 4 -4 -2 -2
-8 0 8 0 5 -3 0 -2
-9 -2 9 1 6 -2 0 0
-7 1 9 2 4 -4 -2 0
-5 3 13 5 7 -2 1 1
-4 3 14 4 7 -3 0 0
-5 1 13 3 7 -3 0 -2
-7 0 12 3 7 -3 0 -2
-9 0 10 1 6 -4 -2 -2
-9 -3 9 1 5 -4 -3 -2
-10 -3 9 1 5 -4 -3 -3
-10 -3 10 1 5 -4 -3 -2
-10 -3 10 1 5 -4 -4 -2
-11 -3 10 1 5 -3 -3 -2
-11 -4 9 0 3 -4 -2 -3
-11 -4 9 -2 4 -5 -2 -3
-11 -4 9 -2 4 -5 -3 -3
-11 -4 10 0 4 -5 -2 -2
-11 -4 9 -2 4 -5 -2 -2
-11 -5 9 -3 3 -6 -3 -4
-11 -6 9 -3 4 -5 -3 -4
-10 -4 10 -4 3 -5 -4 -4
-9 -3 10 -4 3 -6 -4 -4
-11 -5 8 -4 2 -8 -5 -4
-14 -7 7 -5 2 -9 -6 -5
-14 -7 7 -5 2 -9 -7 -6
-14 -7 8 -5 2 -8 -6 -6
-15 -8 9 -5 1 -8 -5 -6
-12 -5 10 -5 2 -8 -5 -6
-7 1 11 -5 2 -7 -4 -5
-6 2 13 -2 5 -5 -2 -4
-8 1 12 -2 5 -6 -3 -5
-7 2 12 0 5 -6 -3 -4
-5 4 15 2 6 -5 -2 -2
-5 7 15 3 7 -3 0 -2
-5 9 17 4 9 0 2 1
-4 11 19 6 11 1 3 2
-3 12 19 6 11 2 4 3
-5 13 17 4 9 1 2 2
-7 13 19 4 9 1 3 2
-5 14 21 6 11 2 4 2
-3 16 24 8 13 5 6 3
-3 16 23 8 13 5 7 4
-4 15 19 5 9 2 4 1
-5 13 15 2 8 0 2 0
-5 13 14 1 8 0 2 2
-3 14 12 1 9 1 4 4
2 15 9 1 11 2 6 6
5 15 7 2 12 3 8 7
8 18 7 4 13 6 10 9
10 21 6 4 13 8 11 10
12 23 6 5 14 8 11 11
13 23 5 5 13 7 10 10
10 20 4 4 12 7 10 10
10 18 3 2 11 5 8 8
11 18 2 0 10 3 7 7
10 15 3 0 9 3 7 6
6 12 4 0 9 2 6 5
5 10 3 -3 6 0 4 3
3 7 2 -4 4 -2 2 2
1 3 1 -6 1 -4 1 0
-3 2 1 -8 -2 -6 -2 -4
-3 0 2 -9 -3 -9 -3 -5
-4 -3 3 -11 -6 -12 -7 -7
-9 -5 6 -9 -4 -11 -6 -7
-11 -6 6 -10 -4 -11 -6 -8
-12 -6 6 -12 -6 -12 -7 -10
-11 -7 5 -13 -7 -12 -8 -10
-11 -7 4 -13 -8 -13 -9 -10
-13 -9 4 -14 -9 -13 -9 -11
-16 -11 4 -14 -9 -14 -10 -11
-17 -10 5 -14 -8 -14 -10 -11
-14 -8 4 -14 -8 -13 -10 -11
-10 -7 5 -12 -8 -13 -10 -10
-10 -6 4 -13 -9 -14 -10 -11
-10 -8 4 -13 -9 -14 -10 -10
-11 -9 3 -14 -9 -14 -10 -10
-12 -10 2 -15 -10 -14 -11 -10
-14 -12 3 -16 -10 -15 -10 -10
-16 -14 3 -17 -11 -16 -11 -11
-15 -15 2 -18 -11 -17 -11 -11
-15 -14 2 -18 -10 -16 -10 -11
-16 -13 3 -16 -9 -14 -9 -9
-15 -11 7 -11 -7 -13 -8 -9
-15 -8 13 -3 0 -11 -6 -8
-15 -3 22 10 10 -5 -3 -7
-17 3 34 29 27 7 6 1
-19 10 46 50 47 22 18 10
-15 20 53 70 67 39 31 21
-3 30 56 91 87 57 48 33
18 39 54 111 107 77 65 49
40 52 52 126 127 99 87 68
60 68 48 125 140 119 110 89
78 84 35 105 141 133 129 108
99 95 14 72 129 137 141 123
119 106 -15 26 105 133 148 136
131 118 -52 -34 68 122 149 143
135 121 -98 -107 17 97 137 140
129 110 -152 -186 -50 51 104 118
108 86 -199 -249 -112 -2 58 80
76 46 -225 -287 -162 -55 4 31
37 3 -227 -311 -199 -103 -49 -17
-5 -23 -227 -341 -236 -144 -91 -54
-44 -33 -222 -364 -262 -170 -113 -71
-65 -35 -204 -352 -258 -173 -116 -75
-69 -33 -176 -299 -223 -151 -103 -70
-67 -37 -146 -237 -183 -129 -91 -66
-65 -45 -115 -189 -152 -114 -82 -63
-61 -41 -87 -149 -122 -96 -70 -56
-57 -34 -64 -114 -93 -72 -54 -45
-55 -28 -48 -87 -70 -56 -40 -35
-51 -24 -32 -64 -51 -43 -30 -25
-45 -18 -21 -46 -36 -30 -21 -18
-39 -15 -15 -36 -28 -24 -16 -14
-38 -15 -9 -31 -23 -22 -15 -13
-38 -16 -5 -29 -20 -21 -14 -13
-39 -17 0 -25 -15 -18 -11 -11
-39 -17 1 -24 -14 -17 -11 -10
-38 -18 2 -23 -14 -17 -10 -10
-38 -19 1 -22 -13 -17 -10 -10
-37 -19 1 -20 -13 -16 -10 -11
-38 -19 3 -19 -13 -16 -10 -11
-39 -19 4 -19 -12 -17 -10 -11
-38 -19 5 -19 -11 -17 -11 -11
-38 -20 6 -18 -10 -17 -10 -11
-38 -20 7 -16 -10 -16 -10 -11
-38 -20 8 -15 -10 -15 -9 -11
-37 -20 8 -16 -10 -15 -9 -11
-38 -20 8 -16 -10 -14 -8 -10
-37 -19 8 -14 -9 -13 -7 -9
-36 -18 8 -14 -9 -13 -7 -9
-35 -18 9 -13 -8 -13 -7 -9
-36 -18 10 -12 -7 -12 -7 -8
-35 -17 11 -11 -6 -13 -7 -8
-34 -16 13 -9 -5 -11 -5 -7
-33 -14 14 -8 -4 -10 -4 -7
-33 -14 12 -8 -4 -10 -5 -7
-35 -17 10 -10 -6 -12 -7 -9
-37 -20 9 -11 -7 -12 -7 -10
-37 -19 8 -10 -7 -11 -6 -10
-35 -16 9 -9 -5 -10 -6 -9
-31 -13 11 -7 -3 -9 -5 -8
-29 -12 12 -5 -2 -9 -4 -8
-28 -12 12 -5 -2 -10 -5 -8
-28 -13 13 -4 0 -10 -5 -7
-30 -15 13 -4 0 -9 -4 -6
-29 -14 12 -3 0 -8 -3 -5
-24 -10 11 -3 1 -7 0 -4
-23 -9 11 -3 1 -7 1 -3
-24 -11 8 -4 0 -8 0 -4
-26 -12 8 -3 1 -8 -2 -5
-25 -11 9 -2 2 -8 -2 -5
-25 -11 8 -2 3 -9 -3 -5
-24 -13 8 0 2 -9 -3 -5
-23 -12 9 0 2 -8 -2 -4
-22 -11 9 0 3 -6 0 -3
-22 -11 10 2 5 -5 2 -2
-21 -11 10 3 7 -4 3 0
-20 -9 10 3 7 -4 4 0
-19 -9 9 4 7 -5 4 0
-18 -9 9 5 7 -4 4 0
-17 -9 10 6 7 -3 4 0
-17 -10 9 6 8 -2 3 0
-18 -12 9 8 8 -2 4 0
-17 -13 8 8 8 -3 4 0
-16 -12 7 9 7 -2 5 2
-14 -10 6 12 9 2 7 4
-11 -8 6 12 10 1 8 3
-10 -6 7 13 11 2 8 4
-9 -5 8 15 13 2 9 4
-9 -5 8 16 14 3 8 4
-8 -4 6 17 14 4 8 3
-6 -3 6 19 15 4 9 4
-4 -3 6 21 16 5 9 4
-2 -3 7 24 18 7 10 6
1 -3 8 27 20 9 12 7
0 -5 8 29 21 10 13 7
-2 -6 6 29 21 10 14 8
-2 -7 4 29 21 10 13 7
2 -5 4 31 21 10 14 8
5 -2 4 33 22 11 15 9
9 1 6 36 25 13 16 10
12 4 7 39 27 14 17 11
13 4 9 43 29 15 18 13
14 3 9 44 29 16 19 13
15 1 10 45 29 16 19 14
15 0 10 47 29 16 19 14
14 -2 10 47 30 17 19 14
14 -3 8 47 29 16 18 12
16 -2 8 48 30 16 19 12
19 0 8 49 32 17 19 12
19 0 9 50 33 17 19 12
17 0 9 52 33 17 20 13
17 1 9 52 31 15 19 13
18 2 11 53 33 17 20 14
19 3 12 54 35 19 21 15
20 4 12 55 36 19 21 15
20 5 12 54 36 18 21 15
21 5 11 52 35 17 20 15
20 6 12 53 36 17 21 16
19 6 12 54 36 17 21 15
16 4 12 54 35 18 21 15
13 1 12 54 35 17 20 14
13 0 12 55 35 17 20 14
16 3 12 56 37 18 22 16
18 9 14 57 39 21 24 18
20 14 16 58 42 24 27 20
20 16 17 58 43 25 27 21
17 15 16 58 42 25 27 22
14 13 15 57 39 23 25 21
13 12 16 56 39 22 23 19
14 13 17 55 39 22 23 19
15 15 18 54 39 23 24 20
14 16 20 54 39 23 25 21
13 16 21 53 40 23 26 22
10 15 19 50 38 21 25 20
6 12 18 46 36 20 23 18
2 10 18 42 34 18 20 17
0 10 18 37 31 16 20 16
-3 10 19 35 30 15 19 15
-4 10 18 32 28 13 16 13
-5 8 18 28 24 10 13 11
-9 5 16 24 20 6 10 8
-10 4 13 20 15 2 7 5
-11 4 13 19 15 3 7 5
-11 3 13 16 14 2 7 5
-11 3 13 14 13 2 6 4
-9 4 13 12 12 1 5 4
-8 5 13 10 11 0 4 4
-11 4 11 7 8 -4 2 1
-14 1 9 4 6 -5 1 0
-15 0 9 3 5 -6 0 -2
-16 0 9 3 5 -5 0 0
-17 0 9 2 4 -7 -2 -2
-17 -2 8 0 2 -9 -2 -3
-18 -3 9 0 3 -8 -2 -3
-18 -4 9 -2 4 -6 -2 -3
-19 -5 10 0 4 -6 -2 -2
-19 -6 10 -2 3 -7 -3 -3
-18 -7 9 -2 2 -8 -3 -3
-19 -7 9 0 3 -7 -2 -2
-19 -6 7 -2 2 -8 -2 -2
-19 -6 6 -2 2 -7 -2 -2
-18 -7 6 -2 1 -8 -3 -3
-19 -8 8 0 2 -7 -2 -2
-17 -6 10 0 4 -6 1 1
-15 -4 9 0 4 -4 2 1
-16 -5 8 -2 3 -4 1 1
-18 -6 7 -3 2 -5 0 0
-18 -5 7 -3 2 -5 1 0
-17 -4 7 -3 2 -6 0 -2
-16 -3 8 -3 3 -6 -2 0
-15 0 9 -2 3 -5 0 0
-15 0 9 -2 3 -6 0 0
-15 -2 9 -2 4 -6 -2 0
-13 -3 8 -2 4 -6 -2 -2
-12 -3 9 0 5 -5 -2 -2
-13 -4 8 -2 5 -5 -2 -3
-14 -3 8 -3 4 -5 -2 -3
-12 -2 7 -2 5 -5 -2 -2
-13 -2 7 -3 3 -6 -3 -3
-14 -3 8 -4 3 -7 -4 -3
-13 -2 8 -5 2 -7 -4 -3
-14 -4 8 -4 2 -8 -4 -3
-18 -7 7 -5 0 -9 -6 -5
-19 -8 8 -6 0 -9 -5 -6
-19 -7 8 -4 3 -7 -3 -5
-18 -7 6 -6 3 -7 -4 -5
-17 -7 6 -7 1 -8 -6 -6
-15 -6 6 -7 1 -9 -6 -7
-14 -4 7 -7 1 -8 -5 -7
-13 -4 7 -7 0 -7 -5 -6
-13 -3 7 -7 -2 -8 -6 -5
-12 -3 9 -5 1 -8 -5 -4
-12 -4 10 -5 2 -7 -4 -3
-13 -4 11 -4 4 -5 -4 -3
-14 0 11 -4 4 -4 -3 -4
-13 3 13 -2 5 -3 -2 -2
-10 6 13 -2 6 -2 -2 -2
-8 9 14 0 7 0 0 0
-6 10 13 0 8 1 1 1
-5 10 13 1 9 2 1 1
-7 10 17 2 11 3 3 3
-9 10 21 4 12 3 4 4
-9 11 22 3 10 0 2 3
-8 11 21 3 10 1 2 3
-10 11 20 3 11 3 3 3
-11 10 16 1 9 2 3 2
-10 10 13 -2 7 1 2 2
-8 14 11 -3 6 1 3 3
-5 17 10 -3 6 1 3 5
1 19 7 -3 7 2 4 8
6 23 5 -2 8 4 6 10
9 26 5 1 10 5 8 11
9 26 6 1 10 5 8 10
8 25 7 1 9 5 7 8
9 25 7 1 10 6 8 8
9 24 7 1 10 6 8 8
8 20 5 -2 8 4 7 7
6 16 2 -3 6 2 5 6
4 14 1 -4 5 1 4 4
4 12 2 -4 4 0 4 3
4 10 4 -4 4 0 3 3
3 7 5 -4 2 -3 1 2
1 3 4 -6 0 -6 -2 -2
-2 -2 4 -8 -4 -8 -4 -4
-4 -5 4 -11 -7 -11 -8 -7
-8 -7 5 -12 -7 -11 -9 -8
-12 -8 5 -12 -7 -11 -9 -9
-13 -9 4 -14 -10 -13 -11 -11
-15 -10 3 -15 -11 -15 -12 -11
-18 -11 5 -15 -10 -14 -12 -11
-18 -11 7 -14 -9 -12 -11 -12
-14 -10 7 -12 -9 -12 -12 -12
-11 -10 7 -12 -10 -14 -12 -11
-12 -12 6 -13 -10 -15 -12 -12
-14 -13 5 -14 -9 -15 -12 -12
-12 -13 3 -16 -11 -14 -13 -12
-13 -14 3 -17 -11 -14 -13 -11
-16 -15 0 -19 -13 -16 -14 -13
-19 -16 -2 -19 -14 -16 -14 -13
-20 -15 -4 -19 -14 -16 -14 -12
-19 -14 -2 -18 -14 -17 -15 -12
-16 -12 1 -18 -14 -18 -16 -13
-13 -10 3 -16 -13 -18 -16 -13
-13 -9 4 -16 -12 -17 -16 -13
-16 -12 8 -12 -8 -15 -15 -13
-18 -14 14 -3 -2 -12 -13 -12
-19 -11 23 10 9 -6 -9 -11
-20 -3 35 29 25 6 -2 -5
-20 7 47 50 45 21 8 4
-14 18 56 72 67 40 24 18
3 31 59 95 92 63 44 34
23 44 57 117 116 87 66 52
40 54 52 132 137 111 91 73
58 67 44 125 148 133 114 97
74 80 26 93 141 145 134 118
91 89 -2 43 115 141 142 131
104 97 -36 -16 79 131 145 141
112 107 -75 -79 36 113 142 144
110 110 -118 -146 -19 81 123 135
101 101 -164 -211 -80 36 89 109
82 79 -202 -261 -134 -13 44 73
55 40 -217 -285 -172 -60 -8 26
17 -4 -212 -304 -205 -109 -62 -26
-25 -34 -205 -337 -247 -155 -108 -67
-58 -46 -201 -363 -277 -186 -135 -88
-73 -46 -186 -346 -269 -184 -135 -91
-71 -44 -159 -289 -229 -159 -119 -85
-66 -47 -133 -232 -191 -139 -107 -79
-60 -53 -108 -189 -163 -123 -99 -77
-52 -48 -82 -151 -133 -103 -85 -67
-40 -34 -62 -115 -102 -79 -66 -52
-32 -25 -47 -89 -78 -61 -51 -39
-28 -23 -36 -67 -60 -48 -39 -30
-26 -22 -27 -51 -46 -38 -31 -23
-24 -21 -21 -43 -37 -33 -27 -20
-22 -20 -16 -38 -33 -31 -26 -19
-20 -19 -12 -35 -29 -29 -25 -19
-18 -18 -10 -32 -26 -27 -23 -18
-20 -19 -8 -29 -24 -25 -22 -17
-21 -20 -5 -26 -22 -24 -22 -16
-20 -21 -3 -26 -21 -25 -22 -16
-20 -22 -3 -26 -22 -25 -23 -17
-20 -22 -2 -22 -20 -23 -22 -17
-18 -20 1 -19 -16 -22 -21 -16
-16 -18 2 -19 -16 -22 -22 -16
-17 -19 2 -20 -16 -21 -22 -15
-17 -20 1 -20 -16 -20 -21 -15
-16 -19 2 -19 -14 -19 -18 -12
-17 -20 1 -19 -14 -19 -18 -12
-19 -22 2 -18 -12 -18 -18 -13
-20 -22 2 -18 -13 -19 -19 -15
-21 -22 2 -18 -14 -21 -21 -16
-21 -22 3 -17 -14 -22 -23 -16
-20 -22 5 -15 -12 -20 -21 -16
-19 -21 6 -14 -11 -18 -20 -16
-17 -20 6 -14 -11 -17 -19 -15
-15 -20 7 -13 -10 -16 -17 -13
-16 -20 7 -13 -10 -16 -17 -12
-17 -21 7 -13 -9 -16 -17 -12
-17 -21 5 -13 -10 -17 -18 -13
-17 -21 5 -13 -10 -17 -18 -13
-15 -19 6 -13 -10 -16 -19 -14
-12 -16 7 -10 -8 -14 -17 -13
-11 -13 7 -8 -6 -14 -15 -11
-10 -12 6 -9 -7 -14 -15 -10
-10 -12 5 -10 -8 -13 -15 -10
-11 -15 6 -9 -6 -12 -13 -9
-12 -15 6 -10 -5 -12 -12 -8
-11 -14 6 -9 -5 -11 -12 -9
-10 -15 6 -8 -5 -11 -13 -9
-9 -15 7 -6 -4 -11 -13 -8
-8 -13 8 -4 -2 -9 -10 -6
-8 -13 8 -2 1 -7 -9 -5
-9 -16 6 -2 1 -8 -10 -6
-9 -17 7 -2 1 -8 -10 -6
-8 -17 6 -2 0 -9 -11 -7
-8 -17 6 0 0 -8 -10 -6
-7 -16 6 -2 1 -7 -9 -5
-5 -14 4 -3 1 -6 -8 -5
-4 -12 5 1 3 -3 -6 -4
-3 -11 6 4 6 -2 -4 -3
-3 -11 7 5 5 -3 -6 -4
-5 -13 6 5 4 -5 -8 -6
-6 -15 6 6 5 -5 -8 -6
-4 -13 7 9 7 -2 -7 -5
0 -10 7 12 9 1 -5 -3
3 -9 7 12 8 0 -3 -2
5 -9 7 14 9 2 0 2
6 -9 6 15 10 4 1 4
5 -9 5 16 11 4 1 3
5 -9 5 17 12 3 1 2
4 -9 5 20 13 3 1 2
4 -10 4 22 13 3 1 3
4 -11 5 24 15 5 3 4
6 -11 5 27 17 6 3 4
8 -11 7 30 19 7 6 5
10 -11 7 33 20 7 7 6
14 -8 6 35 23 9 9 8
19 -4 6 38 25 12 11 9
19 -3 6 42 28 15 13 11
18 -5 4 44 30 15 14 11
19 -6 4 45 30 14 13 11
20 -7 5 48 29 15 13 10
21 -8 6 51 31 17 14 11
22 -7 7 51 32 18 15 12
24 -6 7 53 33 18 15 13
26 -6 7 54 33 17 15 13
25 -7 8 56 34 19 16 13
24 -7 9 56 35 20 16 13
26 -6 10 58 36 20 16 13
28 -5 9 60 36 20 17 13
28 -4 9 61 36 21 18 13
27 -5 10 63 37 21 18 13
25 -6 10 63 37 20 17 13
26 -6 11 63 37 19 17 13
27 -4 12 63 37 20 17 14
27 -4 11 64 37 20 17 14
26 -4 12 65 38 21 18 15
29 0 13 66 39 22 19 17
31 4 14 66 40 24 21 19
31 3 13 67 40 23 21 19
30 2 14 68 42 24 21 19
31 4 15 70 43 24 21 19
32 6 17 72 44 25 22 20
31 6 16 70 44 24 21 19
29 5 15 69 43 24 21 19
27 5 14 69 44 25 23 20
24 4 13 68 45 25 23 21
22 3 13 65 43 24 21 19
22 5 14 64 42 24 21 19
25 11 17 65 44 27 24 21
26 15 18 65 46 29 25 22
23 14 17 62 44 26 23 19
18 11 19 60 43 25 21 18
16 11 20 57 40 22 19 16
14 10 21 55 39 21 17 15
11 8 21 52 37 20 15 13
9 8 20 48 36 19 14 13
7 7 19 45 34 19 14 13
5 6 18 40 31 17 12 12
3 4 17 35 27 13 10 9
1 3 15 30 23 10 8 7
-3 3 13 27 21 10 7 6
-4 3 12 25 19 8 5 4
-4 3 12 22 17 6 3 2
-4 3 13 19 15 5 1 2
-4 3 14 18 14 5 1 2
-6 1 13 14 13 3 1 2
-9 -2 13 11 10 0 -2 0
-10 -5 11 9 8 -2 -3 -2
-10 -5 11 8 8 -2 -4 -2
-10 -6 10 6 6 -4 -5 -2
-13 -8 9 5 4 -6 -7 -4
-15 -9 9 4 4 -7 -8 -6
-14 -9 9 3 3 -7 -9 -6
-12 -9 8 1 1 -9 -11 -7
-13 -10 9 2 1 -9 -9 -6
-12 -8 9 1 3 -7 -7 -4
-10 -4 9 2 3 -5 -6 -2
-9 -4 7 1 2 -6 -6 -3
-11 -6 8 2 3 -6 -6 -3
-12 -7 7 0 2 -7 -8 -5
-13 -7 8 1 2 -6 -7 -5
-12 -8 9 2 3 -6 -7 -6
-10 -7 9 2 3 -6 -7 -5
-9 -6 8 2 3 -6 -7 -5
-11 -8 8 1 1 -7 -9 -6
-14 -11 8 0 1 -8 -9 -7
-13 -10 8 0 2 -7 -8 -6
-12 -7 8 0 2 -6 -7 -5
-11 -5 8 0 2 -6 -6 -5
-10 -4 7 0 2 -6 -7 -5
-10 -6 7 -2 1 -7 -8 -6
-11 -8 7 0 2 -7 -8 -7
-12 -8 9 1 3 -5 -6 -6
-12 -8 9 1 3 -4 -5 -4
-11 -7 9 0 2 -5 -5 -4
-11 -7 9 0 2 -5 -6 -4
-12 -7 8 -2 1 -5 -8 -5
-13 -10 9 0 2 -5 -8 -5
-14 -12 8 -2 1 -6 -8 -5
-13 -11 7 -3 0 -8 -8 -5
-11 -10 8 -2 1 -8 -8 -5
-10 -9 8 -3 1 -8 -7 -5
-10 -8 8 -3 1 -7 -5 -4
-10 -6 7 -4 0 -6 -5 -4
-11 -7 7 -3 1 -6 -6 -4
-11 -9 6 -3 0 -7 -7 -5
-11 -10 5 -4 -2 -8 -9 -7
-11 -8 5 -4 -2 -8 -10 -7
-12 -9 7 -3 0 -8 -9 -7
-14 -10 8 -5 -3 -9 -10 -9
-14 -11 9 -5 -4 -9 -11 -9
-13 -10 10 -2 1 -7 -9 -7
-11 -6 11 0 3 -5 -6 -5
-9 0 11 1 3 -4 -4 -4
-7 2 13 2 5 -2 -2 -2
-6 3 15 3 6 0 -2 0
-6 2 16 2 4 -2 -2 -3
-6 3 16 1 4 -2 -2 -2
-7 5 17 4 6 1 0 0
-6 7 18 5 7 1 0 1
-5 9 19 7 7 2 0 1
-4 11 20 7 9 4 2 3
-3 13 21 7 11 6 4 5
-3 15 18 7 12 6 5 6
-2 14 16 6 12 5 5 6
-3 13 14 5 11 4 6 6
-4 13 11 2 9 4 5 5
-4 15 8 -4 6 3 4 4
-3 16 6 -4 6 4 5 5
1 17 5 -3 6 4 5 4
3 20 8 2 10 8 8 7
5 21 8 4 11 8 9 8
5 19 5 3 10 6 7 7
4 17 3 1 8 5 7 7
5 18 1 0 8 6 9 9
6 17 0 -2 7 7 8 9
6 15 -2 -4 5 5 6 6
5 13 0 -4 4 3 5 5
3 9 1 -4 4 1 3 3
0 3 2 -6 1 -4 -3 -2
-2 -2 2 -7 -2 -6 -5 -4
-2 -4 2 -9 -5 -9 -7 -6
-5 -7 3 -10 -6 -11 -8 -8
-7 -10 5 -11 -7 -13 -9 -9
-7 -9 6 -12 -8 -14 -10 -11
-9 -10 6 -13 -8 -14 -11 -12
-13 -14 6 -14 -9 -14 -12 -13
-14 -15 5 -14 -9 -14 -12 -14
-13 -13 4 -15 -10 -15 -12 -14
-14 -13 3 -17 -12 -17 -14 -15
-15 -14 2 -17 -13 -18 -14 -15
-15 -16 1 -17 -13 -19 -15 -16
-15 -17 1 -18 -13 -19 -16 -16
-17 -18 1 -18 -13 -19 -16 -15
-17 -18 0 -17 -13 -19 -16 -15
-16 -19 1 -17 -12 -19 -15 -14
-16 -20 2 -17 -13 -19 -15 -13
-16 -20 1 -18 -14 -18 -16 -14
-17 -21 0 -19 -15 -19 -17 -15
-19 -22 0 -19 -15 -19 -17 -16
-20 -23 -2 -18 -15 -20 -17 -15
-19 -21 1 -15 -12 -19 -15 -14
-17 -19 7 -8 -7 -16 -14 -13
-15 -18 13 2 1 -13 -14 -14
-17 -17 21 13 9 -11 -14 -15
-22 -12 34 30 24 -2 -9 -12
-24 -5 48 53 45 13 2 -4
-18 4 54 74 66 32 16 8
-3 17 56 98 92 57 37 25
17 33 57 119 118 86 65 49
35 52 53 121 136 111 92 75
48 66 39 93 134 128 115 100
59 76 14 44 113 133 131 120
71 84 -18 -9 82 130 141 134
81 94 -54 -63 48 120 145 143
87 102 -92 -122 6 105 142 148
84 102 -137 -186 -50 73 122 137
72 92 -185 -246 -109 26 85 110
53 68 -219 -285 -156 -22 39 71
29 26 -226 -298 -186 -69 -16 18
0 -22 -215 -308 -218 -120 -72 -37
-34 -50 -205 -337 -261 -171 -119 -78
-62 -56 -195 -355 -287 -199 -144 -98
-73 -53 -175 -325 -269 -191 -140 -97
-71 -51 -147 -264 -223 -161 -120 -86
-66 -54 -123 -212 -186 -141 -107 -79
-60 -57 -101 -174 -159 -124 -98 -75
-54 -52 -77 -136 -128 -101 -81 -64
-47 -45 -61 -105 -98 -79 -64 -51
-39 -36 -50 -81 -77 -65 -52 -41
-33 -29 -38 -60 -60 -52 -40 -31
-29 -25 -30 -45 -47 -43 -32 -24
-25 -24 -24 -36 -38 -37 -28 -21
-20 -23 -19 -32 -34 -35 -26 -19
-19 -22 -12 -27 -29 -31 -23 -17
-19 -22 -9 -24 -26 -29 -22 -15
-20 -25 -8 -23 -26 -28 -23 -16
-23 -28 -6 -22 -25 -28 -22 -16
-23 -29 -6 -22 -23 -27 -22 -16
-22 -27 -5 -19 -22 -27 -22 -16
-24 -28 -3 -17 -21 -27 -21 -17
-24 -30 0 -15 -19 -27 -21 -17
-22 -28 1 -14 -18 -26 -21 -16
-20 -26 2 -14 -17 -25 -21 -15
-19 -25 3 -13 -15 -23 -19 -14
-18 -24 2 -14 -15 -24 -19 -14
-18 -25 1 -14 -16 -24 -19 -14
-20 -26 1 -13 -17 -22 -18 -14
-19 -25 3 -11 -15 -21 -17 -14
