I II V1 V2 V3 V4 V5 V6
0 8 13 19 20 10 31 4
0 7 13 19 19 9 30 4
-2 6 13 18 18 8 29 4
-3 5 12 17 16 7 28 4
-4 4 12 16 15 6 27 4
-4 3 12 16 14 5 26 4
-5 1 11 15 13 4 25 3
-6 0 11 14 13 3 24 2
-7 -2 11 14 12 2 23 1
-8 -3 11 13 12 1 22 0
-8 -4 11 13 12 1 21 -2
-9 -5 10 12 10 0 20 -3
-9 -5 9 11 9 -2 19 -3
-9 -5 9 10 8 -3 18 -3
-9 -5 8 9 7 -4 17 -3
-9 -5 8 8 6 -4 16 -3
-9 -5 7 7 5 -5 15 -4
-10 -6 7 7 5 -5 14 -4
-11 -7 7 7 5 -5 14 -5
-12 -8 7 7 5 -5 13 -5
-13 -8 7 7 5 -5 13 -5
-14 -9 8 8 6 -6 12 -6
-14 -9 8 8 5 -6 12 -6
-14 -9 8 7 5 -6 11 -6
-14 -9 8 7 4 -6 11 -6
-14 -9 8 7 4 -6 11 -6
-13 -9 7 6 3 -7 10 -6
-12 -9 7 6 4 -7 10 -7
-12 -8 7 6 5 -7 10 -7
-11 -8 7 6 6 -7 10 -8
-11 -8 7 6 6 -7 10 -8
-10 -7 7 7 7 -7 9 -9
-10 -7 7 7 7 -7 9 -9
-11 -6 7 7 6 -7 9 -9
-11 -6 7 7 6 -7 9 -9
-11 -6 7 7 6 -7 9 -9
-12 -5 8 8 5 -6 8 -8
-13 -5 8 8 6 -6 8 -8
-14 -6 9 8 6 -6 8 -8
-15 -6 9 8 7 -6 8 -8
-15 -6 9 8 7 -6 8 -8
-14 -7 10 9 8 -6 7 -8
-12 -7 10 9 7 -7 6 -8
-9 -7 9 8 6 -7 5 -8
-7 -7 9 8 5 -8 4 -8
-5 -7 9 8 5 -8 4 -8
-5 -6 9 9 5 -8 4 -8
-7 -4 11 11 7 -6 5 -7
-8 -2 13 13 9 -5 7 -6
-10 1 15 15 11 -3 8 -5
-11 2 17 17 13 -2 9 -5
-11 3 18 18 14 0 10 -4
-9 4 18 18 14 0 10 -3
-8 5 18 18 14 0 10 -3
-6 6 18 18 14 0 10 -2
-5 6 18 18 14 0 10 -2
-4 7 19 19 13 1 9 0
-4 7 19 19 13 1 9 0
-4 7 18 19 13 0 8 0
-4 7 18 19 13 0 8 0
-4 7 18 19 13 0 8 0
-4 6 17 18 13 -2 7 0
-3 7 16 17 13 -2 7 0
-3 7 15 17 12 -2 7 0
-2 8 14 16 12 -2 7 0
-2 8 14 16 12 -2 7 0
0 9 13 15 11 -2 7 1
0 10 13 16 12 0 7 1
1 11 13 17 13 1 8 2
1 12 13 18 14 2 8 2
1 13 13 18 14 3 8 2
2 14 12 17 13 3 8 3
3 13 11 15 11 1 6 2
4 12 9 12 9 -2 5 1
5 11 8 10 7 -4 3 0
5 10 7 8 5 -5 2 -2
6 8 6 7 4 -6 1 -3
6 6 6 6 3 -7 0 -4
5 4 5 6 2 -8 -2 -4
5 2 5 5 1 -9 -3 -5
5 1 5 5 0 -10 -4 -5
3 0 4 4 -2 -11 -5 -6
2 -2 4 3 -3 -12 -6 -6
1 -3 3 2 -4 -13 -7 -7
0 -4 3 1 -5 -14 -8 -7
-2 -4 3 1 -6 -14 -9 -7
-5 -6 2 0 -7 -15 -10 -8
-7 -8 3 0 -7 -15 -10 -8
-9 -10 3 0 -7 -15 -11 -8
-11 -12 4 0 -7 -15 -11 -8
-13 -13 4 0 -7 -15 -11 -8
-14 -14 5 1 -7 -16 -12 -9
-15 -15 5 0 -8 -17 -13 -9
-15 -15 5 -2 -9 -18 -14 -9
-16 -16 5 -3 -10 -19 -15 -9
-16 -16 5 -3 -11 -19 -16 -9
-17 -17 5 -4 -12 -20 -17 -10
-17 -17 5 -4 -12 -20 -18 -11
-17 -18 5 -4 -13 -20 -18 -12
-17 -18 5 -4 -13 -20 -19 -13
-17 -18 5 -4 -13 -20 -19 -14
-16 -19 4 -4 -14 -21 -20 -15
-17 -19 4 -4 -14 -21 -20 -15
-18 -19 4 -4 -14 -22 -20 -15
-19 -19 4 -4 -14 -22 -20 -15
-19 -19 4 -4 -14 -22 -20 -15
-20 -19 5 -4 -14 -23 -21 -15
-19 -19 4 -4 -15 -23 -22 -16
-18 -20 4 -4 -16 -23 -23 -16
-17 -20 3 -4 -17 -23 -24 -17
-17 -20 3 -4 -18 -23 -24 -17
-16 -21 2 -5 -19 -24 -25 -18
-17 -21 2 -5 -19 -24 -25 -18
-17 -21 2 -6 -19 -24 -25 -18
-18 -21 2 -6 -19 -24 -25 -18
-18 -21 2 -6 -19 -24 -25 -18
-19 -21 3 -7 -19 -25 -25 -19
-19 -21 3 -7 -19 -25 -26 -20
-19 -21 3 -7 -20 -25 -26 -20
-19 -21 3 -7 -20 -25 -27 -21
-19 -21 3 -7 -20 -25 -27 -21
-20 -21 3 -6 -20 -26 -28 -22
-20 -21 3 -6 -19 -26 -28 -22
-20 -21 4 -5 -18 -25 -27 -22
-20 -21 4 -5 -17 -25 -27 -22
-20 -21 4 -5 -16 -25 -27 -22
-21 -21 5 -4 -15 -24 -26 -21
-21 -21 5 -4 -14 -24 -26 -21
-22 -22 5 -4 -14 -24 -26 -21
-22 -22 5 -4 -13 -24 -26 -21
-22 -22 5 -4 -13 -24 -26 -21
-22 -23 4 -4 -10 -25 -27 -20
-21 -23 5 -3 -8 -25 -27 -20
-20 -23 5 -2 -5 -24 -27 -20
-19 -23 6 0 -2 -24 -27 -20
-18 -23 6 0 1 -24 -27 -20
-16 -20 12 11 13 -15 -22 -18
-15 -17 19 22 25 -6 -16 -14
-13 -13 26 33 38 5 -10 -11
-12 -10 32 46 51 14 -3 -8
-11 -6 39 57 64 23 4 -5
3 3 40 67 81 44 21 7
18 11 40 76 100 65 39 20
32 19 40 86 117 87 58 32
47 27 40 95 136 107 76 45
62 36 40 104 153 129 95 57
63 52 46 106 162 146 118 76
61 68 51 107 171 163 142 97
60 85 56 108 178 181 165 117
58 101 62 109 186 198 189 138
57 117 67 110 194 215 213 158
33 109 57 80 153 169 178 144
8 98 45 46 105 112 134 122
-19 87 31 10 57 56 91 102
-45 74 19 -26 9 0 47 80
-70 63 6 -61 -40 -57 4 60
-75 45 -13 -85 -62 -77 -18 42
-77 25 -33 -107 -79 -94 -36 24
-79 6 -53 -130 -97 -109 -55 6
-81 -14 -73 -151 -114 -126 -73 -13
-83 -33 -93 -174 -132 -142 -92 -30
-78 -38 -92 -166 -129 -139 -93 -35
-71 -40 -86 -153 -120 -132 -91 -37
-63 -43 -79 -140 -112 -126 -89 -39
-56 -46 -74 -128 -104 -118 -86 -43
-48 -48 -68 -114 -97 -111 -83 -45
-44 -46 -59 -100 -83 -101 -76 -43
-39 -40 -50 -85 -69 -90 -69 -38
-36 -36 -40 -69 -56 -77 -62 -35
-32 -31 -30 -54 -41 -66 -55 -31
-28 -27 -21 -39 -27 -55 -47 -27
-27 -26 -17 -33 -22 -50 -44 -26
-26 -25 -14 -29 -17 -47 -41 -25
-25 -24 -11 -26 -12 -43 -39 -24
-24 -23 -9 -22 -8 -39 -36 -23
-24 -23 -6 -18 -3 -35 -34 -22
-22 -22 -5 -16 1 -34 -33 -21
-21 -22 -4 -15 3 -33 -32 -21
-20 -22 -3 -13 6 -32 -31 -21
-19 -22 -2 -11 9 -31 -30 -21
-18 -22 0 -10 11 -31 -30 -21
-17 -22 1 -9 12 -30 -29 -20
-16 -21 1 -9 13 -30 -29 -20
-15 -21 1 -9 14 -30 -28 -19
-14 -20 1 -9 15 -30 -28 -19
-14 -20 1 -9 16 -30 -28 -19
-13 -19 1 -9 18 -29 -27 -18
-14 -19 1 -8 20 -28 -27 -18
-15 -20 1 -8 22 -27 -26 -18
-16 -20 1 -7 23 -26 -26 -18
-17 -20 1 -7 25 -26 -26 -18
-18 -21 2 -6 26 -25 -25 -18
-18 -21 2 -7 27 -25 -24 -17
-17 -20 2 -7 28 -25 -24 -17
-17 -20 2 -8 29 -25 -23 -16
-17 -20 2 -8 29 -25 -23 -16
-14 -19 2 -9 30 -25 -22 -15
-12 -19 1 -9 31 -25 -23 -16
-9 -18 1 -9 32 -25 -23 -17
-7 -18 0 -9 33 -25 -24 -18
-4 -18 0 -9 33 -25 -24 -18
-3 -17 -2 -10 35 -26 -25 -18
-4 -17 -2 -9 37 -25 -24 -17
-5 -17 -2 -9 39 -24 -24 -16
-6 -17 -2 -8 42 -23 -23 -15
-7 -17 -2 -8 44 -23 -23 -14
-8 -16 -2 -7 45 -22 -22 -13
-7 -16 -2 -7 45 -21 -21 -13
-6 -15 -2 -6 46 -20 -20 -13
-5 -15 -2 -6 46 -19 -19 -13
-4 -15 -2 -6 46 -19 -18 -13
-2 -14 -3 -5 47 -17 -17 -12
0 -14 -3 -5 47 -16 -16 -11
2 -14 -3 -5 47 -15 -15 -10
4 -14 -3 -5 47 -13 -14 -8
5 -14 -3 -5 47 -12 -13 -7
6 -15 -4 -4 48 -11 -11 -6
7 -14 -4 -4 49 -9 -10 -6
7 -13 -5 -4 50 -8 -9 -5
8 -12 -5 -4 51 -7 -7 -5
8 -12 -5 -4 51 -6 -6 -5
10 -10 -6 -4 52 -4 -5 -4
12 -9 -7 -4 52 -3 -3 -4
14 -7 -8 -4 53 0 -2 -3
16 -5 -9 -4 53 2 0 -3
18 -4 -10 -4 53 3 1 -3
20 -3 -11 -3 55 6 3 -2
23 -2 -12 -2 57 9 6 0
25 0 -12 0 59 11 8 1
28 1 -13 1 60 14 11 2
30 2 -13 1 62 17 13 3
34 4 -14 2 63 19 15 5
38 6 -16 2 65 22 17 7
43 9 -17 2 66 24 20 10
47 11 -18 2 67 27 22 12
51 13 -19 2 68 29 24 14
53 15 -20 2 70 32 26 16
55 17 -21 2 71 34 29 18
57 19 -21 2 72 37 31 20
59 20 -22 2 74 39 34 22
61 22 -22 2 75 43 36 24
62 24 -23 3 76 45 38 26
63 25 -23 4 77 46 39 28
64 26 -23 5 77 48 42 30
65 28 -23 6 78 50 44 31
65 29 -23 6 78 51 45 33
66 30 -22 7 79 52 46 34
68 31 -22 7 79 52 46 34
69 32 -22 7 78 52 47 35
70 33 -22 7 78 52 47 35
71 33 -22 7 78 52 47 35
70 34 -21 8 77 52 48 36
67 35 -20 8 77 52 48 37
65 36 -19 8 77 52 49 38
62 37 -18 8 77 52 49 39
59 37 -18 8 77 52 49 39
58 38 -17 9 76 52 49 39
57 38 -15 9 74 51 48 38
56 38 -14 9 73 49 46 36
55 38 -13 9 72 47 44 34
54 38 -12 9 71 46 43 33
51 37 -10 9 70 44 40 32
48 36 -9 11 69 42 38 31
45 36 -8 12 68 39 36 31
42 35 -6 13 67 38 35 30
38 35 -5 14 67 36 33 30
35 33 -4 15 65 34 30 27
32 31 -3 15 63 31 28 25
29 28 -2 15 61 29 25 22
25 26 0 15 59 26 23 20
22 24 1 15 57 24 20 17
20 23 2 16 56 21 17 15
19 22 3 16 54 19 15 12
17 21 4 16 53 16 12 10
15 20 5 16 52 13 9 7
14 19 6 16 51 10 6 5
11 17 7 15 49 9 4 4
9 16 8 15 48 8 3 3
6 15 9 16 47 7 1 2
3 13 10 16 45 6 -2 1
0 12 10 16 44 6 -3 1
-2 11 11 16 42 4 -4 0
-2 9 11 15 39 2 -5 -2
-3 8 11 14 36 0 -6 -3
-3 7 11 12 34 -3 -7 -4
-3 6 11 11 32 -5 -7 -5
-4 5 12 10 31 -6 -9 -7
-4 3 11 10 30 -8 -10 -8
-5 2 11 10 30 -9 -12 -10
-5 1 10 10 29 -10 -14 -12
-5 0 10 10 29 -11 -15 -13
-7 -2 9 9 28 -12 -16 -14
-9 -2 9 9 27 -12 -16 -14
-11 -3 9 8 26 -12 -16 -13
-13 -3 9 8 25 -12 -16 -13
-15 -3 9 8 25 -12 -16 -13
-16 -4 10 7 24 -12 -17 -12
-14 -4 9 6 22 -13 -18 -13
-13 -5 8 5 21 -14 -18 -14
-12 -5 7 4 20 -15 -19 -15
-11 -5 7 4 19 -15 -19 -15
-10 -6 6 3 18 -16 -20 -16
-10 -6 6 3 18 -16 -20 -16
-10 -5 6 3 17 -16 -20 -16
-10 -5 6 3 17 -16 -20 -16
-10 -5 6 3 17 -16 -20 -16
-10 -4 6 3 16 -16 -19 -15
-11 -4 7 4 16 -15 -19 -15
-12 -4 7 4 16 -15 -19 -14
-13 -4 8 5 16 -14 -19 -14
-13 -4 8 5 16 -14 -19 -14
-14 -5 9 6 16 -13 -19 -13
-14 -5 9 6 16 -13 -19 -13
-14 -5 9 6 16 -13 -19 -13
-14 -5 9 6 16 -13 -19 -13
-14 -5 9 6 16 -13 -19 -13
-14 -5 8 5 15 -14 -19 -12
-14 -5 8 5 15 -14 -18 -11
-14 -6 8 6 15 -14 -18 -11
-14 -6 8 6 15 -14 -17 -10
-14 -6 8 6 15 -14 -17 -10
-13 -7 9 7 14 -14 -16 -9
-14 -7 9 7 14 -14 -16 -10
-14 -7 9 7 14 -14 -16 -11
-15 -7 9 7 14 -14 -16 -11
-15 -7 9 7 14 -14 -16 -12
-15 -7 10 6 13 -14 -17 -13
-14 -7 10 6 13 -14 -17 -13
-13 -7 10 7 13 -13 -17 -14
-11 -7 10 7 13 -13 -17 -14
-10 -7 10 7 13 -13 -17 -14
-9 -5 10 9 14 -11 -16 -14
-8 -3 12 10 15 -10 -14 -12
-7 0 13 11 16 -9 -13 -11
-7 2 15 13 17 -7 -12 -9
-6 4 17 14 18 -6 -11 -7
-5 5 18 15 19 -5 -10 -6
-4 5 18 15 19 -5 -10 -6
-4 6 18 16 19 -5 -10 -6
-3 6 18 16 19 -5 -10 -6
-3 6 18 16 19 -5 -10 -6
-2 7 18 17 18 -4 -9 -6
-3 8 18 17 18 -4 -9 -5
-3 8 17 16 17 -4 -8 -5
-4 9 17 16 17 -4 -8 -4
-4 9 17 16 17 -4 -8 -4
-4 10 16 15 16 -5 -7 -3
-3 11 15 15 16 -5 -7 -3
-2 11 14 15 15 -5 -8 -4
1 12 13 15 15 -5 -8 -4
2 12 12 15 15 -5 -8 -4
4 13 11 14 14 -5 -9 -5
5 13 11 14 14 -5 -9 -5
6 14 11 14 14 -5 -8 -4
8 14 11 14 14 -5 -8 -4
9 14 11 14 14 -5 -8 -4
10 14 11 12 12 -5 -7 -3
9 11 10 10 10 -6 -8 -4
8 9 8 8 8 -8 -8 -4
8 7 7 6 6 -9 -9 -5
7 4 5 4 4 -11 -9 -5
6 3 4 3 3 -12 -10 -6
4 1 4 2 1 -12 -11 -7
3 0 4 1 0 -12 -12 -7
1 -3 4 1 -2 -12 -12 -8
0 -4 4 0 -3 -12 -13 -8
-2 -5 3 -2 -4 -13 -14 -9
-2 -5 3 -2 -5 -15 -16 -10
-3 -6 3 -2 -6 -16 -17 -11
-3 -6 3 -2 -6 -17 -18 -12
-3 -6 3 -2 -7 -18 -19 -13
-5 -7 3 -2 -8 -19 -20 -14
-8 -9 4 -2 -8 -19 -20 -14
-10 -10 5 -2 -9 -19 -20 -14
-12 -12 5 -2 -9 -19 -20 -14
-15 -13 6 -2 -9 -19 -20 -14
-16 -14 7 -3 -10 -20 -19 -13
-16 -15 6 -4 -11 -21 -21 -15
-16 -16 5 -5 -12 -22 -22 -16
-16 -16 5 -5 -13 -22 -23 -17
-16 -17 4 -6 -14 -23 -24 -18
-15 -18 3 -7 -15 -24 -25 -19
-15 -18 3 -7 -15 -24 -25 -19
-16 -17 4 -6 -15 -24 -25 -18
-16 -17 4 -6 -15 -24 -25 -18
-16 -17 4 -6 -15 -24 -25 -18
-17 -16 5 -5 -15 -24 -25 -17
-17 -17 5 -5 -15 -24 -25 -17
-17 -18 4 -6 -16 -24 -25 -18
-17 -18 4 -6 -16 -24 -25 -18
-17 -19 4 -6 -16 -24 -25 -18
-16 -20 3 -7 -17 -24 -26 -19
-16 -20 3 -7 -17 -24 -26 -19
-16 -20 3 -7 -17 -24 -26 -19
-16 -20 3 -7 -17 -24 -26 -19
-16 -20 3 -7 -17 -24 -26 -19
-17 -20 2 -7 -18 -24 -25 -20
-17 -20 2 -7 -18 -24 -25 -20
-17 -20 1 -8 -19 -24 -26 -20
-17 -20 1 -8 -19 -24 -26 -20
-17 -20 1 -8 -19 -24 -26 -20
-17 -20 0 -9 -20 -25 -27 -20
-18 -20 1 -8 -20 -25 -26 -20
-19 -20 1 -8 -19 -24 -26 -20
-20 -20 2 -7 -19 -24 -25 -20
-21 -20 2 -7 -19 -24 -25 -20
-22 -20 3 -6 -18 -23 -24 -19
-21 -20 3 -6 -18 -23 -24 -19
-20 -20 3 -6 -18 -23 -24 -19
-20 -20 3 -6 -18 -23 -24 -19
-19 -20 3 -6 -18 -23 -24 -19
-18 -21 3 -6 -18 -23 -25 -20
-18 -21 3 -6 -18 -23 -25 -20
-19 -21 3 -6 -18 -23 -25 -20
-19 -21 3 -6 -18 -23 -25 -20
-19 -21 3 -6 -18 -23 -25 -20
-20 -21 5 -2 -15 -21 -24 -21
-19 -20 10 6 -9 -17 -22 -21
-18 -18 14 13 -2 -12 -20 -21
-18 -17 19 20 6 -7 -18 -21
-17 -15 23 27 12 -2 -16 -21
-10 -11 26 35 24 11 -7 -16
1 -5 28 45 37 26 6 -8
12 2 30 54 52 42 18 1
22 8 32 63 66 57 30 10
32 14 34 72 80 72 43 18
43 25 37 82 97 96 65 34
53 39 40 92 115 123 92 54
64 54 45 101 134 150 118 74
74 67 48 111 152 178 145 95
85 81 51 120 170 204 172 115
74 89 53 112 160 203 176 123
53 92 53 93 134 185 167 125
30 96 52 74 108 167 158 127
9 100 52 55 82 148 149 128
-14 103 52 35 56 131 140 130
-30 94 37 6 23 92 111 115
-43 76 17 -29 -15 43 71 91
-56 58 -5 -64 -52 -8 31 65
-68 40 -25 -99 -90 -57 -9 40
-81 23 -46 -134 -128 -106 -49 16
-83 7 -59 -149 -143 -126 -67 0
-79 -8 -67 -153 -146 -129 -75 -13
-74 -23 -75 -157 -149 -132 -83 -25
-69 -37 -83 -160 -152 -135 -91 -37
-64 -52 -93 -164 -155 -138 -99 -49
-59 -55 -89 -154 -147 -131 -97 -52
-54 -51 -77 -135 -131 -116 -88 -49
-48 -46 -66 -115 -114 -103 -79 -45
-43 -40 -55 -96 -98 -90 -70 -40
-36 -35 -44 -75 -80 -75 -62 -37
-33 -32 -36 -63 -69 -66 -56 -34
-30 -31 -29 -54 -61 -60 -51 -32
-28 -29 -23 -46 -53 -53 -46 -30
-25 -28 -17 -36 -45 -46 -41 -27
-22 -26 -11 -28 -36 -39 -36 -25
-21 -25 -8 -23 -32 -36 -34 -24
-19 -25 -7 -22 -31 -34 -34 -24
-18 -24 -6 -20 -29 -33 -33 -23
-16 -24 -6 -18 -28 -31 -33 -23
-15 -24 -5 -16 -26 -30 -33 -23
-14 -23 -4 -15 -25 -29 -31 -22
-14 -23 -4 -14 -24 -28 -30 -21
-13 -23 -3 -12 -23 -26 -28 -20
-12 -23 -2 -11 -22 -25 -27 -20
-12 -23 -2 -10 -21 -24 -25 -19
-11 -22 0 -9 -20 -23 -24 -18
-11 -22 0 -9 -20 -23 -24 -18
-11 -21 0 -9 -20 -22 -23 -17
-11 -21 0 -9 -20 -21 -22 -17
-11 -21 0 -9 -20 -21 -22 -17
-12 -20 0 -8 -19 -20 -21 -16
-12 -20 0 -8 -19 -20 -21 -16
-11 -20 0 -7 -18 -20 -21 -16
-11 -20 0 -7 -18 -20 -21 -16
-11 -20 0 -7 -18 -20 -21 -16
-10 -20 0 -6 -17 -20 -20 -17
-10 -20 0 -6 -17 -20 -20 -17
-9 -20 0 -7 -17 -20 -20 -17
-8 -20 0 -7 -17 -20 -20 -17
-8 -20 0 -7 -17 -20 -20 -17
-7 -19 1 -8 -16 -19 -20 -16
-7 -19 1 -8 -16 -19 -19 -15
-7 -19 1 -8 -15 -18 -18 -14
-7 -19 1 -8 -15 -18 -17 -14
-7 -19 1 -8 -15 -18 -16 -13
-7 -19 0 -7 -14 -17 -15 -12
-6 -19 -2 -7 -14 -17 -15 -12
-5 -18 -3 -8 -14 -16 -14 -12
-5 -18 -3 -8 -14 -15 -14 -12
-4 -18 -4 -8 -14 -15 -14 -12
-3 -17 -5 -9 -14 -14 -13 -11
-2 -17 -5 -8 -12 -12 -12 -11
0 -16 -5 -7 -11 -11 -11 -10
1 -16 -5 -7 -9 -9 -11 -9
2 -16 -5 -6 -8 -8 -10 -9
3 -15 -4 -5 -7 -7 -9 -8
5 -14 -4 -5 -6 -5 -8 -7
7 -13 -5 -5 -5 -3 -6 -6
8 -12 -5 -5 -5 -2 -5 -6
10 -11 -5 -5 -4 1 -4 -5
12 -10 -6 -5 -3 2 -2 -4
14 -9 -6 -5 -2 4 0 -3
16 -8 -6 -5 0 6 2 -2
18 -7 -6 -5 1 7 4 0
20 -6 -6 -5 2 9 6 1
22 -5 -7 -4 4 11 8 2
23 -4 -9 -4 6 14 10 4
25 -2 -10 -3 8 17 12 5
27 0 -12 -3 10 20 14 7
29 1 -13 -3 12 22 17 8
31 3 -14 -2 14 25 19 10
34 4 -14 -2 16 28 22 12
37 6 -15 0 18 31 25 14
40 8 -15 0 20 34 28 16
43 10 -15 0 22 37 30 18
46 11 -16 1 23 40 33 20
49 13 -17 1 25 43 35 22
52 14 -19 2 27 46 37 24
55 16 -20 2 28 48 39 26
58 17 -21 2 30 51 42 29
60 19 -22 3 31 53 44 30
61 20 -22 3 33 55 46 32
63 22 -22 4 35 58 49 33
64 24 -22 4 36 60 51 35
65 26 -22 4 38 62 53 36
66 27 -23 5 39 64 55 37
66 29 -23 5 39 65 57 39
66 30 -24 6 39 66 58 40
66 32 -24 6 39 66 60 43
66 33 -24 6 39 67 61 44
66 34 -25 7 40 68 62 45
66 34 -24 8 42 68 62 45
66 34 -22 10 43 69 63 46
66 34 -21 11 43 69 63 47
66 34 -20 12 44 69 63 47
65 35 -19 13 45 70 64 48
64 35 -18 13 44 68 64 47
62 35 -17 13 43 67 63 46
61 35 -16 13 43 66 63 45
60 35 -15 13 42 64 63 44
58 35 -14 13 40 63 61 43
54 35 -12 15 40 62 59 43
51 35 -10 16 40 60 57 42
48 35 -9 17 40 59 55 42
45 35 -7 19 40 58 52 42
40 33 -6 20 39 56 50 39
37 31 -4 20 38 54 47 37
33 28 -3 20 36 51 45 35
29 26 -2 20 35 49 42 33
25 24 1 20 34 47 39 30
23 22 2 20 33 44 36 28
22 22 3 20 31 42 33 26
21 22 4 20 29 38 31 23
20 22 5 20 28 36 28 21
19 22 6 20 26 34 26 19
18 21 7 21 25 31 23 17
16 20 7 21 23 28 20 15
14 18 7 21 21 25 17 13
12 17 7 21 19 22 15 11
10 16 7 21 17 19 12 9
8 14 8 21 16 17 10 8
6 12 8 20 16 15 9 7
4 10 9 19 15 13 7 5
2 8 10 19 14 12 6 4
-2 6 10 18 14 10 5 3
-3 5 11 17 13 9 4 2
-3 4 11 17 11 8 2 1
-4 2 11 16 10 6 1 0
-5 1 11 15 9 5 0 -2
-5 0 11 15 7 4 -3 -3
-6 -2 10 14 6 3 -4 -4
-7 -2 10 13 6 3 -4 -5
-8 -3 10 12 5 2 -5 -6
-8 -3 10 12 4 1 -5 -6
-9 -3 10 11 4 1 -5 -7
-10 -4 10 10 3 0 -6 -8
-10 -5 10 10 2 -2 -7 -8
-11 -6 9 9 1 -3 -8 -9
-11 -6 8 9 1 -4 -8 -9
-11 -7 8 9 0 -5 -9 -9
-12 -8 7 8 -2 -6 -10 -10
-12 -8 7 8 -2 -6 -10 -10
-13 -8 7 7 -3 -7 -11 -9
-13 -8 7 7 -3 -7 -12 -9
-13 -8 7 7 -3 -7 -12 -9
-14 -8 8 6 -4 -8 -13 -8
-14 -8 8 6 -4 -8 -13 -8
-13 -8 8 6 -4 -8 -13 -8
-13 -8 8 6 -4 -8 -13 -8
-13 -8 8 6 -4 -8 -13 -8
-12 -8 8 7 -4 -8 -13 -9
-12 -8 8 7 -4 -8 -13 -9
-12 -9 8 7 -4 -8 -12 -10
-12 -9 8 7 -4 -8 -12 -11
-12 -9 8 7 -4 -8 -12 -11
-13 -10 8 6 -4 -7 -11 -12
-13 -10 8 6 -4 -7 -11 -12
-13 -9 8 6 -4 -8 -12 -12
-13 -8 8 6 -4 -8 -13 -12
-13 -8 8 6 -4 -8 -13 -12
-14 -7 7 5 -4 -9 -14 -13
-14 -7 7 5 -4 -9 -14 -12
-14 -8 8 6 -4 -9 -13 -11
-14 -8 9 6 -4 -9 -12 -10
-14 -8 9 6 -4 -9 -12 -9
-13 -9 10 7 -3 -8 -11 -8
-13 -9 10 7 -3 -8 -11 -8
-13 -9 9 7 -3 -8 -11 -8
-13 -9 9 7 -3 -8 -11 -8
-13 -9 9 7 -3 -8 -11 -8
-13 -8 9 8 -3 -8 -12 -9
-12 -7 11 10 -2 -8 -11 -9
-10 -6 13 12 0 -7 -10 -8
-9 -5 15 13 0 -6 -9 -8
-8 -4 17 15 1 -6 -8 -8
-7 -3 18 16 2 -5 -7 -7
-7 0 18 16 3 -4 -7 -7
-7 2 17 16 4 -3 -7 -7
-7 4 17 16 4 -3 -7 -7
-7 6 17 16 5 -2 -7 -7
-8 7 16 16 6 0 -8 -6
-8 7 16 16 6 0 -8 -6
-7 6 16 16 6 0 -7 -5
-6 6 16 16 6 0 -6 -5
-6 6 16 16 6 0 -6 -5
-5 5 16 16 5 0 -5 -4
-4 5 15 16 5 0 -5 -4
-4 6 15 15 5 0 -5 -4
-3 7 14 14 5 0 -5 -3
-2 7 13 14 5 0 -5 -3
0 8 12 13 4 0 -5 -2
2 9 12 14 5 1 -4 -2
3 9 12 14 6 1 -4 0
5 10 12 15 7 2 -3 1
7 11 12 16 8 3 -2 1
8 12 13 16 8 4 0 2
7 10 12 14 6 2 -3 1
6 9 11 11 4 0 -4 1
4 7 9 8 1 -3 -6 0
3 5 8 6 -2 -5 -8 -2
2 4 7 4 -4 -7 -9 -3
2 3 7 4 -4 -7 -9 -3
2 2 7 3 -5 -8 -9 -3
2 0 6 2 -6 -9 -10 -3
2 -2 6 2 -6 -9 -10 -3
3 -3 5 1 -7 -10 -11 -4
1 -3 5 1 -7 -10 -11 -5
-2 -4 5 1 -7 -10 -12 -6
-4 -5 5 1 -8 -10 -13 -8
-6 -5 5 1 -8 -10 -13 -9
-7 -6 4 1 -9 -11 -14 -10
-9 -8 4 0 -10 -13 -16 -11
-10 -9 4 0 -11 -14 -17 -12
-12 -10 4 -2 -13 -15 -18 -14
-14 -12 4 -3 -14 -17 -20 -15
-15 -13 3 -4 -15 -18 -21 -16
-15 -14 3 -4 -15 -18 -21 -17
-15 -15 3 -4 -15 -19 -22 -17
-15 -17 3 -4 -16 -20 -23 -18
-15 -18 3 -4 -16 -20 -23 -19
-15 -19 4 -5 -17 -21 -24 -20
-15 -19 4 -5 -17 -21 -24 -20
-16 -19 4 -5 -17 -21 -24 -20
-17 -19 4 -5 -17 -21 -24 -20
-17 -19 4 -5 -17 -21 -24 -20
-18 -20 5 -4 -17 -22 -24 -20
-18 -20 5 -5 -17 -22 -24 -20
-18 -20 4 -5 -17 -22 -24 -20
-17 -20 3 -6 -18 -23 -24 -20
-17 -20 3 -7 -18 -23 -24 -20
-16 -19 2 -8 -19 -24 -25 -20
-16 -19 2 -8 -19 -24 -25 -20
-16 -19 2 -8 -19 -24 -25 -20
-16 -20 3 -8 -18 -24 -25 -19
-16 -20 3 -8 -18 -24 -25 -19
-17 -21 4 -7 -17 -23 -25 -18
-17 -21 4 -7 -17 -23 -25 -18
-17 -21 4 -7 -18 -24 -25 -19
-17 -22 3 -7 -19 -25 -26 -20
-17 -22 3 -7 -19 -25 -26 -20
-18 -23 2 -8 -20 -26 -27 -21
-18 -23 2 -8 -20 -26 -27 -21
-18 -23 2 -8 -19 -26 -27 -21
-19 -23 2 -7 -18 -26 -27 -22
-19 -23 2 -7 -18 -26 -27 -22
-20 -23 3 -6 -17 -25 -27 -23
-20 -23 3 -6 -18 -25 -27 -23
-20 -23 3 -6 -18 -26 -27 -23
-20 -23 3 -7 -19 -27 -27 -23
-20 -23 3 -7 -20 -27 -27 -23
-19 -24 2 -8 -21 -28 -28 -23
-19 -24 2 -8 -20 -27 -28 -23
-19 -24 2 -7 -20 -27 -28 -23
-19 -24 2 -6 -19 -26 -27 -22
-19 -24 2 -6 -18 -25 -27 -22
-20 -24 2 -5 -17 -24 -26 -21
-20 -24 4 -3 -15 -24 -26 -21
-20 -25 5 0 -14 -24 -25 -21
-19 -26 6 2 -13 -24 -24 -21
-19 -26 8 3 -11 -24 -24 -21
-17 -26 11 10 -5 -20 -20 -19
-14 -23 17 21 10 -7 -13 -17
-11 -20 22 33 23 7 -5 -14
-8 -17 28 45 37 20 4 -12
-4 -13 33 57 51 33 11 -9
4 -6 37 68 67 53 26 1
17 6 39 79 88 80 51 18
29 18 40 91 108 107 75 35
43 30 43 102 128 135 100 53
55 43 45 112 148 161 125 70
60 56 47 117 160 180 145 89
52 72 50 112 159 187 159 107
44 88 53 107 158 194 174 127
35 103 56 102 156 201 188 146
27 119 60 97 155 209 202 165
14 121 56 76 132 185 190 164
-6 105 40 35 76 120 140 135
-26 88 24 -6 21 55 90 106
-46 71 9 -46 -34 -10 38 76
-65 54 -8 -87 -90 -75 -12 47
-77 36 -24 -118 -126 -116 -47 23
-77 19 -44 -136 -138 -126 -60 8
-77 1 -62 -153 -150 -135 -73 -9
-77 -17 -80 -171 -161 -144 -88 -24
-77 -34 -100 -189 -174 -153 -101 -40
-75 -46 -108 -192 -176 -155 -107 -50
-68 -47 -100 -175 -162 -145 -101 -49
-61 -48 -91 -157 -150 -134 -95 -48
-53 -49 -82 -140 -137 -123 -89 -46
-46 -50 -73 -122 -123 -113 -82 -45
-39 -50 -65 -106 -110 -102 -75 -43
-36 -45 -56 -92 -96 -91 -68 -39
-33 -39 -47 -76 -82 -78 -61 -36
-30 -35 -37 -62 -68 -67 -53 -33
-26 -30 -28 -47 -54 -56 -46 -30
-24 -27 -21 -36 -45 -48 -40 -28
-24 -26 -17 -31 -40 -44 -37 -27
-24 -26 -13 -26 -35 -40 -35 -25
-24 -25 -10 -22 -31 -36 -33 -24
-24 -24 -6 -17 -27 -33 -31 -22
-23 -23 -3 -14 -24 -30 -29 -21
-21 -23 -3 -13 -23 -29 -29 -21
-19 -23 -3 -12 -22 -29 -28 -21
-17 -23 -3 -11 -21 -28 -27 -21
-15 -23 -3 -10 -20 -27 -27 -21
-13 -24 -3 -9 -19 -26 -26 -21
-13 -24 -3 -9 -19 -26 -26 -21
-13 -24 -3 -9 -19 -26 -26 -21
-14 -23 -3 -9 -19 -25 -26 -20
-14 -23 -3 -9 -19 -25 -26 -20
-15 -22 -2 -9 -19 -24 -25 -19
-14 -22 -2 -9 -19 -24 -25 -19
-13 -22 -2 -9 -19 -24 -24 -19
-11 -21 -2 -8 -18 -23 -23 -19
-10 -21 -2 -8 -18 -23 -23 -19
-9 -20 -2 -7 -17 -22 -22 -18
-9 -20 -2 -7 -17 -22 -22 -18
-9 -20 -2 -7 -17 -21 -21 -17
-10 -20 -2 -7 -16 -20 -20 -16
-10 -20 -2 -7 -16 -20 -20 -16
-11 -20 -2 -6 -15 -19 -19 -15
-11 -20 -2 -6 -15 -19 -19 -15
-11 -20 -2 -6 -15 -18 -19 -14
-10 -20 -2 -5 -15 -17 -18 -13
-10 -20 -2 -5 -15 -17 -18 -13
-9 -21 -3 -4 -14 -16 -17 -12
-9 -20 -3 -4 -14 -16 -16 -12
-8 -19 -3 -4 -13 -16 -16 -12
-7 -17 -3 -5 -12 -16 -15 -11
-7 -16 -3 -5 -12 -16 -14 -11
-6 -15 -2 -6 -11 -15 -13 -10
-4 -15 -3 -6 -11 -14 -13 -10
-3 -15 -3 -5 -10 -13 -12 -10
0 -15 -4 -4 -9 -11 -11 -10
2 -15 -5 -4 -9 -10 -11 -10
3 -15 -6 -3 -8 -9 -10 -10
3 -15 -6 -3 -8 -8 -9 -9
3 -15 -6 -3 -7 -7 -8 -8
3 -14 -6 -3 -6 -6 -6 -7
3 -14 -6 -3 -6 -5 -5 -6
3 -13 -7 -4 -5 -4 -4 -5
5 -12 -7 -3 -3 0 -2 -4
6 -11 -8 -3 0 3 1 -2
8 -10 -9 -2 2 5 3 0
9 -9 -9 0 4 8 4 2
11 -8 -10 1 6 10 6 3
14 -6 -10 1 7 13 8 4
16 -5 -10 1 9 15 10 6
18 -3 -11 1 10 18 12 7
20 -2 -11 1 12 20 13 9
23 1 -12 1 13 23 16 10
26 2 -13 1 16 26 19 12
29 3 -15 1 18 30 22 14
32 4 -16 1 20 33 25 16
35 5 -18 1 22 36 28 17
37 6 -19 2 24 40 31 19
40 8 -20 3 27 44 34 22
44 11 -21 4 29 47 38 24
46 13 -23 6 32 50 43 27
49 15 -24 7 34 53 46 29
51 17 -25 8 36 57 49 31
52 19 -25 9 39 60 52 33
52 21 -25 10 42 64 55 35
53 23 -25 12 45 67 57 37
54 24 -25 13 47 70 60 38
55 26 -24 14 49 73 62 40
56 27 -24 14 50 74 63 43
56 28 -24 14 50 75 65 45
57 29 -24 14 51 76 66 47
58 30 -24 14 52 77 68 48
59 31 -23 15 53 78 69 50
60 32 -23 15 53 78 69 50
62 34 -23 15 53 79 69 50
63 35 -23 15 53 80 70 50
65 37 -23 15 53 80 70 50
66 38 -24 15 52 81 71 51
63 38 -23 16 52 81 71 51
60 37 -22 17 52 81 71 51
58 36 -20 18 53 80 71 51
55 36 -19 19 53 80 71 51
53 35 -18 20 54 79 70 50
51 35 -17 20 53 77 68 49
49 34 -16 20 52 75 66 48
47 33 -15 20 51 73 64 46
45 33 -14 20 50 71 62 45
43 32 -13 21 49 69 60 44
40 32 -11 21 48 66 57 43
38 32 -9 21 46 63 55 42
36 31 -7 21 45 60 52 40
35 31 -6 21 43 57 50 39
32 30 -4 22 42 54 48 38
29 28 -2 23 39 51 45 35
26 26 1 23 37 48 42 32
23 24 2 24 36 46 38 29
20 22 4 25 34 43 35 26
17 20 6 26 32 39 33 24
15 19 6 26 30 36 30 23
12 18 6 26 29 33 27 22
10 17 7 25 27 31 24 21
8 16 7 25 26 28 21 19
6 15 8 24 24 26 18 18
4 13 8 23 22 23 15 15
3 10 8 23 21 20 13 12
1 8 8 22 19 18 11 9
0 6 8 21 18 15 8 6
-3 4 9 20 16 13 6 3
-3 4 9 20 15 12 5 2
-4 3 9 19 14 10 4 2
-4 3 9 19 13 9 3 1
-5 2 9 18 11 7 1 0
-6 1 10 17 10 6 0 -2
-6 1 10 16 10 6 -2 -3
-6 1 9 15 9 5 -3 -3
-6 0 9 14 9 5 -4 -4
-6 0 8 13 8 4 -5 -5
-5 -2 7 12 7 3 -6 -6
-6 -2 7 12 6 2 -6 -6
-8 -2 7 12 5 1 -7 -6
-9 -3 7 11 4 0 -7 -6
-11 -3 7 11 3 -3 -8 -6
-12 -4 7 10 2 -4 -9 -7
-12 -4 7 10 1 -4 -9 -7
-11 -4 7 9 1 -5 -10 -8
-11 -5 7 9 0 -5 -10 -8
-10 -5 7 8 -2 -6 -11 -9
-9 -6 6 7 -3 -7 -12 -10
-10 -6 6 7 -3 -7 -12 -10
-11 -7 6 7 -3 -7 -12 -10
-12 -7 7 8 -3 -7 -12 -9
-14 -8 7 8 -3 -7 -12 -9
-15 -9 8 9 -2 -7 -13 -8
-15 -9 8 9 -2 -7 -13 -8
-15 -9 8 9 -2 -7 -13 -8
-15 -9 8 9 -2 -8 -13 -9
-15 -9 8 9 -2 -8 -13 -9
-14 -9 7 10 0 -9 -12 -10
-14 -9 7 9 -2 -9 -12 -10
-13 -9 7 8 -2 -10 -12 -10
-13 -8 6 7 -3 -10 -13 -11
-12 -8 6 6 -4 -11 -13 -11
-11 -7 5 5 -5 -12 -14 -12
-11 -7 5 5 -5 -12 -14 -12
-11 -7 5 6 -4 -12 -14 -11
-12 -7 6 6 -4 -11 -14 -11
-12 -7 6 7 -3 -11 -14 -10
-13 -7 7 8 -2 -10 -14 -9
-13 -7 7 8 -2 -10 -14 -9
-12 -7 7 8 -2 -10 -14 -9
-12 -6 8 8 -2 -10 -14 -9
-11 -6 8 8 -2 -10 -14 -9
-10 -5 9 9 0 -9 -13 -9
-10 -3 10 11 2 -7 -12 -8
-10 1 12 13 3 -6 -10 -8
-9 3 13 14 5 -4 -9 -7
-9 5 14 16 6 -3 -8 -6
-8 7 16 18 8 0 -6 -5
-6 7 16 18 8 0 -6 -5
-5 8 16 18 7 0 -6 -5
-3 8 16 17 7 -2 -6 -5
-2 9 16 17 6 -2 -6 -5
1 10 15 16 5 -3 -6 -4
0 9 15 16 5 -3 -6 -4
-3 9 15 16 5 -3 -6 -4
-4 8 15 16 5 -3 -6 -4
-5 7 15 16 5 -3 -6 -4
-7 6 15 16 5 -2 -6 -4
-5 7 14 16 5 -2 -6 -4
-3 9 14 15 5 -2 -6 -3
0 10 13 15 5 -2 -5 -3
2 11 12 14 5 -2 -5 -2
4 13 11 13 4 0 -4 0
5 13 10 13 5 0 -4 0
6 13 10 13 5 0 -4 0
7 14 9 14 6 1 -4 0
9 14 8 14 7 1 -4 0
10 15 7 15 8 2 -3 1
9 14 6 13 7 1 -3 1
9 14 6 12 5 0 -4 1
8 13 5 10 4 -2 -4 0
7 12 4 9 3 -3 -5 0
6 11 3 7 1 -4 -6 -2
5 9 3 6 0 -5 -7 -3
5 8 3 5 -2 -6 -8 -4
4 6 2 4 -3 -7 -9 -5
3 5 2 2 -5 -8 -10 -7
2 3 1 1 -6 -9 -11 -8
1 2 1 1 -7 -10 -12 -8
-2 2 1 1 -7 -10 -12 -9
-3 1 1 1 -8 -11 -13 -9
-4 0 1 1 -9 -12 -14 -10
-6 -2 1 0 -10 -13 -15 -11
-6 -4 1 -2 -11 -14 -17 -12
-6 -6 1 -2 -12 -16 -18 -13
-7 -8 1 -3 -13 -17 -20 -14
-7 -10 1 -4 -15 -18 -21 -16
-8 -12 0 -5 -16 -20 -23 -17
-8 -12 0 -5 -16 -20 -23 -18
-9 -12 0 -5 -17 -21 -24 -18
-9 -13 0 -5 -17 -21 -24 -19
-10 -13 0 -5 -18 -22 -25 -20
-11 -14 -2 -6 -19 -23 -26 -21
-11 -14 -2 -6 -19 -23 -26 -21
-12 -15 -2 -6 -19 -23 -26 -21
-12 -15 -2 -6 -19 -24 -25 -21
-13 -16 -2 -6 -19 -24 -25 -21
-14 -17 0 -7 -19 -25 -24 -21
-14 -17 0 -7 -19 -25 -24 -21
-13 -17 0 -7 -19 -25 -25 -22
-13 -17 -2 -7 -20 -25 -25 -22
-12 -17 -2 -7 -20 -25 -26 -23
-11 -17 -3 -8 -21 -25 -27 -24
-12 -18 -3 -8 -21 -25 -27 -24
-14 -19 -2 -8 -21 -25 -27 -23
-15 -20 0 -8 -20 -25 -26 -23
-16 -21 1 -8 -20 -25 -26 -22
-18 -22 2 -7 -19 -24 -25 -21
-18 -22 2 -7 -19 -24 -25 -21
-18 -22 1 -8 -20 -25 -25 -21
-17 -22 1 -9 -21 -25 -26 -22
-17 -22 0 -10 -22 -26 -26 -22
-16 -21 -2 -11 -23 -27 -27 -23
-16 -21 -2 -11 -23 -27 -27 -23
-16 -21 -2 -11 -23 -27 -27 -23
-16 -20 -2 -11 -23 -27 -28 -23
-16 -20 -2 -11 -23 -27 -28 -23
-15 -19 -2 -10 -22 -28 -29 -24
-15 -19 -2 -10 -22 -28 -29 -24
-15 -19 -2 -10 -22 -28 -29 -24
-15 -20 -2 -10 -22 -28 -29 -24
-15 -20 -2 -10 -22 -28 -29 -24
-15 -21 -2 -10 -22 -27 -28 -23
-15 -21 -2 -10 -22 -27 -28 -23
-15 -21 -2 -10 -22 -27 -28 -23
-15 -21 -2 -9 -22 -27 -28 -23
-15 -21 -2 -9 -22 -27 -28 -23
-14 -20 -2 -8 -21 -27 -28 -24
-14 -20 2 -4 -18 -27 -28 -24
-14 -20 5 1 -14 -27 -28 -25
-14 -20 8 5 -11 -27 -27 -25
-14 -20 10 9 -8 -27 -27 -26
-12 -19 13 14 -2 -23 -24 -26
-6 -14 18 26 13 -7 -14 -21
0 -9 23 37 28 9 -4 -15
6 -3 27 50 44 25 7 -10
12 3 32 61 59 42 17 -4
19 10 36 73 75 61 30 6
29 23 39 85 97 91 58 24
39 35 44 97 118 121 87 44
50 48 47 108 140 151 114 63
60 61 50 119 161 182 142 82
66 73 53 127 177 206 165 101
53 85 53 111 167 202 171 113
39 97 53 95 156 199 176 126
26 108 53 79 146 195 182 138
14 119 53 63 136 191 187 150
0 127 49 43 116 176 182 155
-17 109 29 3 61 110 132 126
-34 91 10 -37 5 45 81 96
-51 73 -10 -77 -52 -21 30 66
-67 55 -29 -116 -108 -87 -20 36
-81 37 -48 -150 -154 -140 -63 10
-76 20 -63 -160 -160 -145 -73 -5
-72 3 -77 -171 -168 -150 -85 -19
-68 -15 -93 -180 -174 -155 -96 -33
-64 -33 -107 -190 -180 -160 -107 -48
-59 -48 -117 -195 -183 -162 -115 -60
-54 -46 -106 -176 -166 -148 -106 -56
-49 -43 -95 -155 -150 -135 -97 -53
-43 -40 -83 -136 -133 -120 -88 -50
-37 -37 -72 -116 -116 -106 -78 -46
-32 -35 -62 -98 -100 -94 -69 -43
-28 -32 -54 -85 -89 -83 -64 -40
-24 -30 -45 -71 -77 -74 -58 -37
-20 -27 -36 -58 -65 -65 -53 -35
-17 -25 -27 -45 -54 -55 -47 -32
-13 -22 -20 -33 -44 -47 -41 -30
-13 -22 -18 -30 -40 -44 -39 -29
-13 -21 -15 -27 -37 -40 -36 -28
-14 -20 -13 -23 -33 -38 -34 -27
-14 -19 -10 -20 -30 -35 -31 -25
-15 -18 -8 -17 -27 -32 -29 -24
-15 -18 -8 -16 -27 -32 -29 -24
-14 -18 -7 -15 -26 -31 -29 -25
-14 -19 -7 -14 -26 -31 -29 -25
-13 -19 -6 -12 -25 -30 -29 -26
-12 -20 -5 -11 -24 -29 -29 -27
-12 -20 -5 -11 -24 -29 -28 -26
-12 -19 -5 -11 -23 -28 -27 -24
-11 -18 -5 -11 -23 -27 -26 -23
-11 -17 -5 -11 -22 -26 -25 -22
-10 -16 -4 -11 -21 -25 -24 -20
-10 -16 -4 -11 -21 -25 -24 -20
-9 -16 -4 -11 -21 -25 -24 -21
-9 -16 -4 -11 -21 -25 -24 -22
-8 -16 -4 -11 -21 -25 -24 -23
-7 -17 -4 -10 -20 -25 -25 -24
-7 -17 -4 -10 -20 -25 -25 -24
-7 -17 -4 -10 -20 -24 -24 -23
-7 -17 -4 -10 -20 -24 -23 -22
-7 -17 -4 -10 -20 -23 -22 -21
-8 -18 -3 -10 -19 -22 -21 -20
-7 -18 -3 -10 -19 -22 -21 -20
-6 -18 -3 -10 -19 -22 -21 -20
-5 -18 -4 -10 -19 -21 -21 -20
-4 -18 -4 -10 -19 -21 -21 -20
-2 -17 -5 -9 -18 -20 -21 -21
-2 -17 -5 -9 -18 -20 -20 -20
0 -16 -5 -9 -18 -19 -19 -19
1 -15 -5 -9 -17 -19 -18 -18
2 -14 -5 -9 -17 -18 -17 -17
3 -13 -6 -10 -16 -17 -16 -16
3 -13 -6 -10 -15 -16 -15 -16
3 -13 -6 -9 -13 -14 -14 -15
3 -13 -6 -8 -11 -12 -13 -15
3 -13 -6 -7 -10 -11 -12 -14
2 -14 -6 -6 -8 -9 -11 -13
4 -12 -6 -6 -8 -9 -10 -13
6 -11 -7 -6 -8 -8 -9 -12
8 -9 -8 -7 -8 -7 -8 -12
10 -7 -9 -7 -8 -6 -7 -11
12 -5 -10 -8 -7 -5 -6 -10
12 -5 -10 -7 -5 -3 -5 -10
13 -5 -10 -5 -3 1 -4 -10
13 -5 -10 -4 0 3 -3 -9
14 -5 -10 -3 3 5 -2 -9
15 -5 -11 0 5 8 0 -8
17 -4 -11 0 6 10 3 -6
19 -3 -12 0 7 12 6 -4
21 -2 -13 0 8 14 9 -2
23 0 -14 0 9 17 12 1
25 2 -15 -2 11 19 15 3
28 3 -15 0 13 22 17 4
31 5 -16 1 16 26 20 6
34 7 -17 2 19 29 22 8
37 8 -18 3 21 33 24 9
40 10 -19 5 24 36 27 11
44 12 -19 5 26 39 31 13
46 14 -20 5 28 44 34 16
49 16 -20 5 30 47 38 19
52 19 -21 5 33 51 42 21
55 21 -22 6 35 54 46 24
56 23 -22 7 37 57 48 26
57 25 -22 8 39 60 51 29
58 27 -22 9 42 63 54 31
59 29 -22 10 45 66 56 33
61 31 -23 12 47 69 59 36
61 31 -23 12 47 70 60 37
61 32 -23 12 48 71 61 39
62 33 -23 12 48 72 63 42
62 34 -23 12 49 73 64 43
63 35 -23 13 50 74 66 45
63 35 -23 13 50 74 66 45
63 36 -23 13 50 74 66 45
63 37 -22 14 50 74 66 45
63 38 -22 14 50 74 66 45
63 39 -21 15 51 75 67 45
62 39 -20 15 51 75 67 45
61 40 -19 15 51 75 67 45
60 40 -18 16 51 75 67 45
59 42 -17 16 51 75 67 45
58 43 -16 17 51 74 67 46
55 42 -14 17 51 72 65 45
52 40 -13 18 50 70 63 44
49 38 -11 19 49 68 61 42
46 37 -9 20 48 65 58 40
43 35 -7 21 47 63 56 38
39 35 -6 21 46 60 53 37
37 34 -5 21 44 57 50 36
34 34 -4 21 43 54 47 34
31 33 -3 21 40 51 44 33
28 32 0 21 38 48 40 31
26 30 1 21 36 45 38 29
24 28 2 21 34 42 35 26
22 26 3 21 32 38 32 24
20 24 4 21 29 35 30 22
18 22 6 22 27 32 27 19
16 21 7 22 26 29 25 17
13 20 8 22 24 27 22 15
10 19 9 22 23 24 19 13
8 18 10 22 21 21 17 10
5 16 11 21 19 18 14 8
4 14 11 21 18 17 13 7
3 12 11 20 17 15 11 6
2 10 11 20 16 14 9 4
1 7 11 19 15 12 7 3
0 5 12 18 14 10 5 1
-2 5 12 17 13 9 3 0
-4 5 12 16 11 7 1 -2
-6 4 12 15 10 5 -2 -3
-8 4 12 14 8 3 -4 -4
-10 3 12 12 6 1 -6 -6
-10 2 11 12 5 0 -6 -7
-10 1 10 11 4 -2 -7 -8
-9 0 9 11 3 -3 -8 -9
-9 -2 8 10 2 -4 -9 -10
-8 -3 7 9 1 -6 -10 -11
-8 -3 7 9 1 -6 -10 -11
-8 -3 8 9 0 -6 -10 -11
-9 -3 8 9 0 -6 -10 -11
-9 -3 9 9 -2 -6 -10 -11
-10 -3 10 8 -3 -6 -10 -11
-10 -3 10 8 -3 -6 -11 -11
-10 -4 9 8 -3 -7 -12 -12
-10 -5 9 7 -4 -8 -13 -13
-10 -6 8 7 -4 -9 -14 -14
-10 -7 7 6 -5 -10 -15 -15
-11 -7 7 6 -5 -10 -15 -15
-12 -6 7 6 -5 -10 -14 -14
-13 -6 8 5 -5 -10 -14 -14
-14 -5 8 5 -5 -10 -13 -13
-15 -4 9 4 -5 -10 -12 -12
-15 -4 9 4 -5 -10 -12 -12
-15 -4 9 4 -5 -10 -12 -12
-14 -5 9 4 -5 -11 -13 -13
-14 -5 9 4 -5 -11 -13 -13
-13 -6 8 4 -6 -12 -14 -14
-13 -6 8 4 -6 -12 -14 -14
-13 -6 8 4 -6 -12 -14 -14
-13 -6 8 4 -6 -12 -14 -14
-13 -6 8 4 -6 -12 -14 -14
-12 -5 8 4 -6 -12 -15 -14
-12 -5 8 4 -6 -12 -15 -14
-13 -6 8 4 -6 -12 -15 -14
-14 -7 9 5 -6 -12 -15 -14
-15 -8 9 5 -6 -12 -15 -14
-16 -9 10 6 -5 -12 -16 -14
-15 -9 10 6 -5 -12 -16 -14
-14 -9 10 6 -5 -12 -15 -14
-13 -8 10 6 -5 -11 -15 -14
-12 -8 10 6 -5 -11 -14 -14
-10 -7 9 5 -4 -10 -13 -13
-10 -6 10 6 -3 -10 -13 -12
-10 -5 12 8 -2 -9 -12 -11
-10 -3 13 10 1 -9 -11 -10
-10 -2 15 12 2 -8 -10 -9
-9 1 17 14 4 -7 -9 -8
-9 1 17 14 4 -7 -9 -8
-8 2 17 14 4 -7 -9 -8
-8 3 17 14 4 -6 -8 -7
-7 4 17 14 4 -6 -8 -7
-6 5 17 14 4 -5 -7 -6
-6 5 17 14 4 -5 -7 -6
-5 6 16 14 4 -6 -7 -6
-4 6 16 13 3 -6 -7 -7
-3 7 15 13 3 -7 -7 -7
-2 8 14 12 2 -8 -8 -8
-2 8 14 12 2 -7 -8 -8
-3 8 14 12 2 -6 -8 -8
-3 8 14 12 3 -5 -7 -7
-4 8 14 12 3 -4 -7 -7
-5 8 15 12 4 -3 -6 -6
-3 8 15 12 4 -3 -6 -6
0 9 15 13 5 -2 -5 -5
2 10 14 14 5 -2 -4 -4
4 11 14 15 6 0 -3 -3
6 12 13 16 7 1 -2 -2
6 11 12 14 6 0 -3 -2
6 10 10 12 4 -2 -4 -2
5 8 9 9 2 -4 -6 -3
5 7 7 7 0 -5 -7 -3
4 5 5 4 -3 -7 -9 -4
4 5 5 3 -4 -8 -10 -5
4 4 4 2 -5 -9 -11 -6
4 3 4 1 -6 -10 -12 -7
4 2 3 0 -7 -11 -13 -8
4 1 2 -2 -8 -12 -14 -10
3 1 2 -2 -8 -12 -14 -10
1 0 2 -2 -8 -12 -15 -11
0 -2 3 -2 -9 -13 -15 -11
-3 -3 3 -2 -9 -13 -16 -12
-5 -4 4 -3 -10 -14 -17 -13
-6 -6 4 -3 -10 -15 -17 -13
-8 -8 4 -3 -11 -16 -18 -14
-9 -10 4 -3 -11 -17 -18 -15
-11 -12 4 -3 -12 -18 -19 -16
-13 -15 3 -4 -13 -19 -20 -17
-13 -15 3 -4 -14 -20 -21 -17
-13 -15 3 -5 -15 -21 -22 -18
-12 -15 3 -5 -16 -22 -23 -18
-12 -15 3 -6 -17 -23 -24 -19
-11 -14 2 -7 -18 -25 -25 -20
-11 -15 2 -7 -18 -25 -25 -20
-12 -16 2 -8 -18 -25 -25 -20
-13 -17 1 -8 -19 -25 -25 -20
-14 -18 1 -9 -19 -25 -25 -20
-15 -20 0 -10 -20 -25 -25 -20
-15 -20 0 -10 -20 -25 -25 -20
-16 -20 0 -10 -20 -25 -25 -20
-17 -20 0 -10 -20 -25 -25 -20
-18 -20 0 -10 -20 -25 -25 -20
-19 -19 1 -9 -19 -25 -25 -20
-19 -19 1 -9 -19 -25 -25 -20
-19 -20 1 -9 -19 -25 -25 -20
-19 -20 1 -9 -19 -25 -26 -21
-19 -21 1 -9 -19 -25 -26 -21
-20 -22 2 -10 -20 -26 -27 -22
-20 -22 2 -10 -20 -26 -27 -22
-19 -21 2 -10 -20 -26 -27 -22
-18 -21 2 -10 -20 -26 -27 -22
-17 -20 2 -10 -20 -26 -27 -22
-16 -19 1 -9 -20 -26 -27 -21
-16 -19 1 -9 -20 -26 -27 -21
-16 -20 1 -9 -20 -26 -27 -21
-16 -20 1 -9 -20 -26 -27 -21
-16 -21 1 -9 -20 -26 -27 -21
-17 -22 1 -10 -21 -27 -27 -22
-17 -22 1 -10 -21 -27 -27 -22
-17 -22 1 -10 -21 -27 -28 -22
-18 -22 1 -10 -21 -27 -28 -22
-18 -22 1 -10 -21 -27 -29 -22
-18 -22 1 -10 -21 -27 -29 -22
-19 -23 1 -10 -21 -27 -30 -23
-19 -23 1 -10 -21 -27 -30 -23
-18 -23 1 -10 -21 -27 -30 -23
-18 -23 1 -10 -21 -27 -30 -23
-18 -23 1 -10 -21 -27 -30 -23
-17 -23 2 -9 -21 -27 -29 -24
-16 -23 3 -7 -19 -26 -29 -24
-16 -23 5 -5 -17 -25 -28 -24
-15 -23 6 -3 -15 -24 -28 -24
-15 -23 7 0 -13 -23 -28 -24
-12 -20 13 12 1 -12 -21 -21
-9 -16 19 24 14 0 -14 -17
-7 -13 25 36 27 10 -7 -14
-4 -9 31 49 40 21 1 -10
-2 -6 37 61 53 31 8 -7
11 5 40 72 72 57 30 9
23 15 43 84 92 82 52 23
35 25 45 95 111 108 74 38
48 35 47 106 131 134 97 54
60 45 49 117 150 159 118 68
58 61 52 114 153 173 141 89
55 76 54 110 155 185 163 110
51 92 56 106 157 198 186 131
48 108 58 102 159 212 209 151
45 123 60 98 161 224 231 172
22 111 45 56 109 162 183 148
-2 98 28 14 55 99 132 121
-24 84 12 -28 1 35 81 96
-48 69 -6 -70 -54 -29 30 70
-70 56 -22 -111 -108 -93 -20 44
-72 36 -41 -131 -123 -106 -37 26
-74 17 -60 -149 -138 -119 -54 10
-76 -3 -79 -166 -152 -132 -70 -8
-78 -22 -98 -185 -165 -144 -87 -24
-80 -41 -117 -203 -180 -156 -103 -41
-74 -43 -110 -188 -170 -148 -100 -43
-66 -44 -101 -171 -157 -139 -95 -44
-58 -44 -92 -154 -145 -130 -90 -45
-51 -45 -82 -137 -133 -119 -85 -46
-43 -45 -73 -119 -120 -110 -80 -46
-38 -43 -63 -104 -106 -99 -73 -44
-34 -39 -53 -88 -92 -87 -66 -40
-30 -35 -43 -72 -77 -75 -59 -37
-26 -32 -33 -56 -63 -64 -53 -34
-22 -29 -23 -40 -49 -53 -46 -31
-21 -27 -19 -35 -45 -49 -43 -29
-21 -26 -16 -31 -40 -45 -39 -28
-21 -25 -12 -26 -36 -40 -36 -26
-21 -24 -9 -22 -32 -36 -33 -25
-21 -23 -6 -18 -28 -32 -30 -24
-19 -22 -5 -17 -27 -31 -29 -23
-17 -22 -5 -16 -26 -31 -29 -23
-15 -22 -5 -15 -25 -31 -29 -24
-13 -22 -5 -14 -24 -31 -29 -24
-11 -22 -5 -14 -24 -31 -29 -24
-10 -23 -5 -13 -23 -30 -29 -25
-11 -23 -4 -12 -22 -29 -28 -24
-12 -23 -3 -12 -22 -28 -27 -23
-13 -23 -2 -11 -21 -27 -26 -22
-13 -23 -2 -11 -21 -26 -25 -22
-14 -22 0 -10 -20 -25 -24 -21
-13 -22 -2 -10 -20 -25 -24 -21
-13 -22 -2 -10 -20 -25 -24 -21
-12 -22 -3 -10 -20 -25 -24 -21
-12 -22 -3 -10 -20 -25 -24 -21
-11 -23 -4 -10 -19 -25 -24 -21
-10 -22 -4 -10 -19 -24 -23 -20
-9 -21 -3 -10 -19 -23 -22 -19
-8 -20 -3 -10 -19 -22 -21 -18
-8 -19 -3 -10 -19 -22 -21 -18
-7 -18 -2 -9 -18 -21 -20 -17
-6 -19 -2 -9 -18 -21 -20 -17
-6 -19 -3 -9 -18 -21 -20 -17
-5 -20 -3 -9 -18 -21 -20 -17
-5 -20 -3 -9 -18 -21 -20 -17
-4 -21 -4 -8 -17 -22 -19 -18
-4 -20 -4 -8 -16 -21 -18 -17
-4 -20 -3 -8 -15 -20 -17 -16
-4 -19 -3 -8 -14 -19 -16 -15
-4 -19 -3 -8 -14 -18 -16 -15
-4 -18 -2 -7 -13 -17 -15 -14
-2 -18 -3 -7 -13 -17 -15 -14
1 -18 -4 -8 -13 -16 -14 -14
3 -18 -5 -8 -13 -16 -14 -14
5 -18 -5 -8 -13 -16 -14 -14
6 -16 -6 -9 -11 -14 -12 -14
6 -15 -6 -8 -10 -12 -10 -12
7 -13 -6 -8 -9 -11 -8 -11
7 -12 -6 -7 -8 -9 -6 -9
7 -11 -6 -7 -7 -8 -5 -8
8 -10 -7 -6 -5 -6 -3 -7
8 -10 -7 -5 -3 -4 -2 -6
8 -10 -7 -4 -2 -2 0 -6
8 -10 -7 -3 1 1 1 -5
8 -10 -7 -2 2 2 2 -5
11 -9 -8 0 3 5 4 -3
14 -7 -9 0 4 7 6 -2
17 -5 -10 0 5 9 7 0
20 -3 -11 0 6 11 9 1
23 0 -11 0 7 13 10 2
26 1 -12 0 10 16 13 4
29 2 -13 1 12 19 15 5
32 3 -14 2 14 22 18 7
34 4 -15 3 17 25 21 8
37 5 -15 3 19 28 23 9
39 8 -16 4 22 32 27 12
42 10 -17 5 24 35 30 15
44 12 -17 5 26 39 34 18
46 15 -18 6 29 44 38 20
47 17 -18 6 31 47 42 23
50 19 -19 7 33 50 45 24
53 21 -20 8 35 52 47 25
56 23 -20 9 37 54 49 26
59 25 -21 10 39 57 51 27
62 26 -21 10 42 59 53 28
64 28 -22 11 43 61 55 30
65 30 -22 11 43 62 57 32
67 32 -22 11 44 63 58 34
68 34 -22 11 44 64 60 36
69 35 -22 11 44 65 61 38
70 36 -23 11 45 66 62 40
69 36 -22 12 46 67 63 42
68 37 -22 13 47 68 64 43
67 37 -21 14 48 69 65 44
66 37 -21 14 48 70 65 45
65 38 -20 15 49 71 66 46
64 38 -19 15 49 71 66 46
64 39 -18 15 49 70 67 47
63 39 -17 15 49 70 67 47
63 39 -17 15 49 70 67 47
61 40 -16 15 49 68 67 47
60 39 -15 15 48 65 65 45
59 39 -14 16 47 63 63 44
58 38 -13 16 46 61 61 42
57 38 -12 16 45 59 59 40
53 37 -10 17 44 57 57 39
49 36 -8 18 43 56 56 38
45 36 -6 18 42 54 54 37
40 35 -5 19 40 53 53 36
36 35 -3 19 39 52 52 35
34 33 0 20 37 48 48 31
32 31 1 20 35 45 44 28
30 29 2 20 33 42 40 25
29 27 3 20 31 37 36 21
27 25 4 20 29 34 32 18
23 23 5 21 28 31 30 17
19 21 6 21 27 29 27 16
15 20 6 21 26 27 25 15
11 18 7 21 25 24 23 14
7 17 7 21 24 22 21 13
6 15 8 20 22 19 18 10
6 14 8 19 20 17 16 8
5 12 8 19 18 14 13 6
5 11 8 18 16 11 10 3
5 10 8 18 14 9 8 1
4 9 9 16 12 7 7 0
3 8 9 15 11 6 6 -2
3 8 9 14 10 5 5 -2
2 7 9 13 9 4 4 -3
2 7 9 12 8 3 3 -3
0 5 9 11 7 2 2 -4
-3 3 9 11 7 1 1 -5
-5 1 9 11 6 0 0 -5
-7 -2 9 11 6 -2 -2 -6
-9 -4 9 11 6 -2 -2 -6
-10 -5 9 11 5 -3 -3 -7
-10 -5 9 10 4 -4 -4 -8
-9 -5 8 8 3 -5 -5 -8
-9 -5 8 7 2 -6 -6 -9
-9 -5 8 6 1 -6 -6 -9
-8 -5 7 5 0 -7 -7 -10
-8 -5 7 4 -2 -8 -8 -11
-9 -5 6 4 -3 -9 -9 -12
-9 -5 6 3 -4 -10 -10 -13
-9 -5 6 3 -4 -10 -10 -13
-10 -5 5 2 -5 -11 -11 -14
-11 -4 5 2 -5 -11 -11 -14
-11 -4 6 3 -5 -11 -10 -14
-12 -3 6 3 -5 -11 -10 -14
-12 -3 6 3 -5 -11 -10 -14
-13 -2 7 4 -4 -10 -9 -14
-12 -3 7 4 -4 -10 -9 -14
-11 -4 6 4 -5 -11 -9 -14
-10 -5 6 4 -5 -11 -9 -14
-10 -5 6 4 -5 -11 -9 -14
-9 -6 5 3 -6 -12 -10 -14
-9 -6 5 3 -6 -12 -10 -14
-9 -5 6 4 -6 -12 -10 -14
-9 -5 6 4 -6 -12 -10 -14
-9 -5 6 4 -6 -12 -10 -14
-8 -4 7 5 -5 -11 -10 -14
-8 -4 7 5 -5 -11 -10 -14
-8 -5 7 5 -5 -12 -10 -14
-8 -5 7 5 -5 -12 -10 -14
-8 -5 7 5 -5 -12 -10 -14
-9 -6 6 5 -5 -13 -11 -13
-10 -6 6 5 -5 -13 -11 -13
-11 -6 7 5 -5 -12 -11 -13
-12 -6 7 5 -5 -12 -11 -13
-12 -6 7 5 -5 -12 -11 -13
-13 -6 8 5 -5 -11 -10 -13
-12 -6 8 5 -5 -11 -10 -13
-12 -6 8 6 -5 -11 -10 -13
-11 -6 8 6 -5 -11 -10 -13
-11 -6 8 6 -5 -11 -10 -13
-9 -6 9 8 -3 -11 -10 -13
-8 -5 10 9 -2 -10 -10 -12
-7 -4 12 10 0 -9 -9 -11
-6 -3 14 11 2 -8 -9 -10
-5 -2 15 12 3 -7 -9 -9
-4 1 16 13 4 -6 -8 -8
-3 3 16 14 4 -6 -7 -8
-2 5 16 14 4 -6 -6 -8
0 6 16 15 4 -6 -5 -8
1 8 16 15 4 -6 -5 -8
2 9 15 16 5 -5 -4 -8
2 9 15 16 5 -5 -4 -8
1 9 15 15 4 -5 -4 -8
1 9 15 15 4 -5 -4 -8
1 9 15 15 4 -5 -4 -8
0 10 14 14 3 -6 -3 -7
0 10 13 13 3 -6 -3 -6
1 10 12 13 3 -6 -4 -6
1 10 11 12 3 -6 -4 -5
1 10 11 12 3 -6 -4 -5
3 9 10 11 2 -7 -5 -4
4 10 10 11 3 -6 -3 -3
5 11 10 12 4 -5 -2 -2
7 12 10 12 5 -4 0 0
8 13 10 12 5 -3 1 0
9 13 10 12 5 -3 1 0
8 12 8 10 3 -5 -2 -3
7 11 6 7 0 -8 -4 -5
6 9 5 5 -3 -10 -6 -6
6 8 3 3 -5 -12 -8 -8
5 6 2 2 -6 -13 -9 -9
5 5 2 1 -7 -13 -10 -10
5 4 1 1 -8 -13 -10 -10
5 2 1 0 -9 -13 -11 -11
5 1 1 0 -9 -13 -11 -11
5 0 0 -2 -10 -14 -12 -12
3 -2 0 -2 -10 -15 -12 -12
2 -3 0 -2 -11 -16 -13 -12
1 -4 0 -2 -11 -17 -13 -12
0 -5 0 -2 -11 -17 -13 -12
-3 -6 -2 -3 -12 -18 -14 -13
-4 -7 -2 -4 -12 -19 -15 -14
-5 -8 0 -4 -13 -19 -16 -15
-7 -9 0 -5 -13 -20 -17 -16
-8 -9 0 -5 -13 -20 -18 -17
-9 -10 1 -6 -14 -21 -19 -18
-10 -12 1 -6 -15 -22 -20 -18
-10 -13 1 -6 -16 -23 -20 -19
-11 -14 1 -6 -17 -24 -21 -19
-11 -15 1 -6 -17 -24 -21 -19
-12 -16 0 -7 -18 -25 -22 -20
-12 -16 0 -7 -18 -25 -22 -20
-12 -16 0 -7 -18 -25 -22 -20
-12 -16 0 -7 -18 -25 -22 -20
-12 -16 0 -7 -18 -25 -22 -20
-12 -16 0 -7 -18 -25 -23 -21
-13 -17 0 -7 -18 -25 -23 -21
-14 -17 0 -7 -18 -25 -23 -21
-15 -18 0 -7 -18 -25 -23 -21
-15 -18 0 -7 -18 -25 -23 -21
-16 -19 0 -6 -19 -24 -24 -21
-16 -19 0 -7 -19 -24 -24 -21
-16 -19 0 -7 -19 -24 -24 -21
-16 -19 0 -8 -19 -24 -24 -21
-16 -19 0 -8 -19 -24 -24 -21
-16 -20 0 -9 -19 -25 -25 -21
-16 -20 0 -9 -19 -25 -25 -21
-17 -21 -2 -9 -20 -25 -25 -21
-17 -21 -2 -9 -20 -25 -25 -21
-17 -21 -2 -9 -20 -25 -25 -21
-18 -22 -3 -9 -21 -26 -26 -20
-17 -22 -3 -9 -21 -26 -26 -21
-16 -21 -2 -9 -20 -26 -26 -21
-15 -21 -2 -9 -20 -26 -26 -22
-14 -21 -2 -9 -20 -26 -26 -22
-13 -20 0 -9 -19 -26 -27 -23
-13 -20 0 -9 -19 -26 -27 -23
-14 -21 0 -9 -19 -26 -27 -22
-14 -21 0 -9 -19 -26 -27 -22
-14 -21 0 -9 -19 -26 -27 -22
-15 -22 1 -8 -18 -25 -27 -21
-15 -22 1 -8 -18 -25 -27 -21
-15 -22 1 -8 -18 -25 -27 -21
-15 -22 1 -8 -18 -25 -27 -21
-15 -22 1 -8 -18 -25 -27 -21
-16 -21 2 -5 -16 -24 -28 -21
-16 -21 4 1 -12 -22 -27 -21
-17 -21 6 5 -8 -20 -26 -21
-17 -21 8 10 -4 -18 -25 -21
-17 -21 10 14 2 -16 -25 -21
-13 -16 14 23 12 -6 -17 -18
-6 -11 19 33 25 8 -7 -13
2 -6 23 44 37 21 4 -8
10 1 28 54 51 34 14 -3
17 6 32 64 63 47 24 3
27 16 36 75 81 70 47 17
39 27 38 86 101 97 72 34
51 38 42 97 120 123 98 51
63 50 45 108 140 149 123 68
75 61 48 119 159 176 149 85
69 72 49 113 158 182 160 98
57 84 49 101 150 179 165 110
44 96 49 89 142 176 172 122
31 107 49 76 134 174 178 135
19 119 49 64 126 171 183 147
2 110 35 32 85 127 152 131
-16 93 17 -7 34 70 107 105
-33 75 -3 -46 -17 13 62 79
-52 59 -22 -86 -67 -45 17 53
-69 42 -41 -124 -118 -102 -27 27
-72 24 -56 -142 -137 -121 -48 9
-70 6 -70 -151 -145 -129 -60 -6
-67 -12 -83 -161 -152 -135 -72 -21
-64 -30 -97 -171 -160 -141 -85 -36
-61 -48 -110 -181 -169 -148 -97 -52
-57 -51 -106 -170 -158 -141 -95 -54
-52 -48 -94 -150 -142 -128 -87 -50
-48 -45 -82 -130 -126 -114 -77 -47
-43 -41 -70 -110 -109 -101 -68 -43
-38 -38 -59 -91 -93 -88 -60 -38
-34 -35 -50 -77 -80 -77 -54 -36
-30 -33 -41 -66 -70 -69 -49 -34
-27 -30 -34 -55 -61 -61 -44 -31
-23 -27 -26 -44 -51 -52 -38 -29
-19 -24 -19 -32 -40 -44 -33 -27
-17 -23 -15 -27 -36 -39 -31 -26
-15 -23 -13 -24 -33 -37 -30 -25
-14 -23 -12 -21 -30 -35 -29 -25
-12 -23 -10 -18 -28 -33 -28 -24
-10 -23 -8 -15 -25 -31 -27 -24
-10 -23 -7 -14 -24 -30 -26 -23
-11 -23 -5 -12 -23 -28 -26 -22
-13 -23 -4 -11 -22 -27 -25 -21
-14 -23 -3 -10 -21 -26 -25 -21
-16 -23 -2 -9 -20 -25 -25 -20
-16 -22 0 -8 -19 -24 -24 -19
-15 -21 -2 -9 -19 -24 -24 -20
-13 -20 -2 -9 -19 -24 -23 -20
-12 -20 -3 -10 -19 -24 -23 -21
-10 -19 -3 -10 -19 -24 -23 -21
-9 -18 -4 -11 -20 -25 -21 -22
-7 -18 -4 -11 -20 -25 -19 -22
-6 -18 -4 -11 -20 -25 -18 -22
-5 -18 -4 -11 -20 -25 -16 -22
-4 -18 -4 -11 -20 -25 -14 -22
-3 -18 -5 -10 -20 -24 -12 -21
-4 -18 -5 -10 -19 -23 -10 -20
-5 -17 -5 -10 -18 -22 -9 -20
-5 -17 -5 -10 -18 -22 -7 -19
-6 -17 -5 -10 -17 -21 -5 -19
-7 -16 -4 -9 -16 -20 -3 -18
-6 -16 -4 -9 -16 -20 0 -18
-5 -16 -4 -9 -16 -19 1 -18
-5 -16 -4 -9 -16 -19 3 -18
-4 -16 -4 -9 -16 -19 5 -18
-3 -16 -4 -8 -15 -18 7 -17
0 -16 -5 -8 -15 -18 8 -16
1 -15 -6 -8 -15 -17 10 -16
3 -15 -6 -8 -15 -17 11 -15
4 -15 -7 -8 -15 -17 13 -15
5 -14 -8 -9 -15 -15 15 -14
5 -13 -7 -9 -13 -14 17 -12
4 -13 -7 -8 -12 -12 19 -11
4 -12 -6 -8 -10 -11 22 -9
4 -12 -6 -8 -9 -9 24 -8
4 -11 -5 -7 -8 -8 25 -7
5 -11 -6 -6 -7 -7 27 -7
7 -10 -6 -6 -7 -7 28 -7
8 -10 -7 -5 -6 -6 29 -7
10 -10 -7 -5 -6 -6 30 -7
12 -9 -8 -4 -5 -4 32 -7
13 -8 -8 -4 -3 -2 34 -6
15 -7 -8 -3 -2 1 36 -5
16 -6 -8 -3 1 3 38 -4
18 -5 -8 -3 2 5 40 -3
20 -4 -9 -2 3 7 42 -2
23 -3 -11 -2 5 9 44 1
26 -2 -12 0 6 11 45 2
29 0 -14 0 8 13 47 4
32 1 -15 0 9 15 48 5
34 3 -16 1 11 18 50 6
37 4 -17 1 13 21 53 7
39 6 -17 2 15 24 55 8
43 7 -18 2 17 27 57 8
46 9 -18 2 19 30 60 9
47 11 -19 3 21 33 62 12
49 14 -19 4 23 36 65 15
50 16 -20 5 25 39 67 18
51 18 -20 5 27 43 70 21
52 21 -20 6 29 46 73 24
55 23 -21 7 31 48 75 25
58 24 -22 8 32 50 77 26
61 26 -22 8 34 52 79 27
64 27 -23 9 35 55 81 28
67 29 -23 9 37 57 84 29
69 30 -24 10 38 58 85 31
71 31 -24 10 39 59 86 33
72 32 -24 10 39 60 87 34
73 33 -24 10 40 61 87 36
74 34 -24 10 40 62 88 38
75 35 -23 10 42 63 89 39
73 36 -22 10 42 64 89 42
72 36 -21 11 43 64 90 43
70 37 -21 11 43 65 90 44
69 37 -20 11 43 65 90 45
68 38 -19 12 44 66 91 46
67 38 -19 12 44 65 90 46
66 39 -18 13 43 65 90 46
66 39 -18 13 43 64 89 46
65 39 -18 13 43 64 89 46
64 40 -17 14 42 62 87 44
63 40 -16 14 40 60 85 43
62 40 -15 14 39 58 81 40
61 40 -15 14 38 56 79 38
60 40 -14 14 37 54 76 36
57 39 -12 15 36 52 74 35
53 37 -10 16 36 51 73 34
49 35 -8 17 35 49 71 33
45 33 -5 18 34 47 69 32
40 31 -3 19 34 45 67 31
36 29 -2 20 33 43 65 30
32 28 1 20 33 42 63 28
27 26 2 21 32 39 61 27
23 24 4 22 31 37 59 25
19 22 5 22 31 35 57 24
17 21 6 23 29 33 54 22
17 20 6 23 27 30 51 19
16 19 6 22 25 27 47 17
16 19 6 21 22 24 43 14
16 18 6 21 20 21 39 11
14 16 6 20 19 19 36 10
11 14 6 20 17 17 34 8
8 12 7 20 16 15 32 7
5 9 8 20 14 13 30 5
2 7 8 20 13 11 28 4
1 6 9 19 12 10 27 3
-2 5 9 19 12 9 26 3
-3 4 10 18 11 8 25 2
-5 4 10 17 11 8 24 2
-6 3 10 17 11 7 23 2
-7 2 11 16 10 5 21 1
-7 2 10 15 8 4 20 0
-6 1 9 13 7 2 18 -3
-6 0 9 12 5 1 17 -4
-6 0 8 11 4 -2 15 -5
-5 -2 7 10 3 -3 14 -6
-5 -2 7 10 3 -3 13 -6
-6 -3 6 9 2 -4 12 -7
-7 -3 6 9 1 -4 12 -7
-7 -3 6 9 1 -4 11 -7
-8 -4 5 8 0 -5 10 -8
-9 -4 5 8 0 -5 10 -8
-10 -4 6 8 0 -5 10 -7
-10 -4 7 8 0 -5 10 -7
-11 -4 7 8 0 -5 10 -7
-12 -4 8 9 1 -5 9 -6
-11 -4 8 9 1 -5 9 -6
-10 -4 8 8 0 -6 8 -7
-10 -4 8 7 0 -6 7 -7
-9 -4 8 7 0 -6 7 -7
-8 -5 8 6 -2 -7 6 -8
-8 -5 8 6 -2 -7 6 -8
-9 -6 7 6 -3 -7 6 -9
-10 -6 6 6 -3 -7 6 -10
-10 -6 6 6 -3 -7 6 -10
-11 -7 5 6 -4 -8 5 -11
-11 -7 5 7 -3 -8 5 -11
-11 -6 6 8 -2 -8 5 -10
-11 -5 6 8 -2 -8 5 -9
-11 -5 6 9 0 -8 5 -9
-10 -4 7 10 1 -7 4 -8
-10 -5 7 10 1 -7 4 -8
-10 -6 7 10 1 -7 4 -7
-10 -6 7 10 1 -7 4 -7
-10 -7 7 10 1 -7 4 -7
-10 -8 8 10 1 -6 5 -6
-10 -8 8 10 1 -6 4 -6
-10 -8 8 10 0 -7 3 -6
-10 -8 8 10 0 -7 3 -6
-10 -8 8 10 0 -7 2 -6
-10 -9 8 9 -2 -8 1 -6
-10 -9 8 9 -2 -8 1 -6
-11 -8 9 10 0 -7 1 -6
-12 -8 10 10 0 -7 1 -6
-12 -8 10 10 0 -7 1 -6
-12 -6 11 11 1 -6 2 -7
-11 -4 12 12 2 -5 2 -6
-9 -2 13 14 4 -4 3 -5
-7 1 14 15 5 -4 4 -5
-5 3 15 16 6 -3 4 -4
-4 4 16 17 7 -2 5 -3
-3 4 16 17 7 -2 5 -3
-2 5 16 18 7 -2 5 -2
-2 5 16 18 7 -2 5 -2
0 5 16 18 7 -2 5 -2
1 6 16 19 8 0 6 0
1 6 16 19 7 0 6 0
0 6 15 18 6 -2 5 -2
-2 6 14 17 6 -2 5 -2
-2 6 14 17 5 -2 5 -2
-2 5 13 16 4 -3 4 -3
0 6 12 16 4 -3 4 -2
2 7 11 16 5 -2 4 0
4 7 11 16 5 -2 4 0
6 8 10 16 5 -2 4 1
7 9 9 15 6 0 5 2
7 9 9 15 6 1 5 2
7 10 9 15 7 2 6 3
7 11 9 15 8 2 6 3
7 11 9 15 8 3 6 3
8 12 9 15 8 3 6 4
7 11 9 13 6 1 4 3
6 10 8 11 3 -2 2 2
5 9 7 9 1 -4 0 1
4 8 7 6 -2 -7 -3 0
3 6 6 5 -4 -8 -4 -2
3 4 5 4 -5 -8 -4 -3
3 2 4 3 -6 -9 -5 -4
3 0 4 3 -6 -10 -6 -4
3 -4 3 2 -7 -10 -6 -5
2 -5 2 1 -8 -11 -7 -6
2 -6 2 1 -8 -11 -8 -7
1 -7 2 1 -9 -12 -9 -8
0 -8 2 1 -9 -13 -10 -9
0 -9 2 1 -9 -13 -11 -10
-3 -10 1 0 -10 -14 -12 -11
-5 -11 1 0 -10 -15 -13 -11
-8 -12 1 0 -11 -16 -14 -12
-10 -12 1 0 -11 -17 -15 -13
-12 -13 1 0 -11 -18 -16 -13
-14 -14 2 -2 -12 -19 -17 -14
-14 -15 2 -2 -13 -20 -18 -14
-14 -16 2 -3 -14 -21 -19 -15
-14 -16 2 -4 -15 -21 -19 -16
-14 -17 2 -4 -16 -22 -20 -16
-15 -18 1 -5 -17 -23 -21 -17
-15 -18 1 -5 -17 -23 -21 -17
-16 -19 1 -5 -17 -23 -21 -17
-17 -19 1 -5 -17 -23 -21 -17
-17 -19 1 -5 -17 -23 -21 -17
-18 -20 2 -4 -17 -23 -22 -17
-18 -20 2 -4 -17 -23 -22 -17
-19 -21 2 -4 -16 -23 -22 -17
-19 -21 2 -4 -16 -23 -22 -17
-19 -21 2 -4 -16 -23 -22 -17
-20 -22 3 -4 -15 -23 -23 -17
-20 -22 3 -4 -15 -23 -23 -17
-19 -22 2 -5 -16 -23 -24 -18
-19 -22 2 -6 -17 -23 -24 -18
-19 -22 2 -6 -17 -23 -24 -18
-18 -21 1 -7 -18 -24 -25 -19
-18 -21 1 -7 -18 -24 -25 -19
-18 -21 1 -7 -18 -24 -26 -19
-18 -21 1 -7 -18 -24 -26 -19
-18 -21 1 -7 -18 -24 -26 -19
-19 -21 1 -6 -19 -25 -27 -20
-19 -21 1 -6 -19 -25 -27 -20
-19 -22 1 -6 -19 -25 -27 -20
-19 -22 1 -6 -19 -25 -27 -20
-19 -22 1 -6 -19 -25 -27 -20
-20 -23 1 -6 -19 -24 -26 -21
-20 -23 1 -6 -19 -24 -26 -21
-19 -23 1 -6 -19 -24 -26 -21
-19 -23 1 -6 -19 -24 -26 -21
-19 -23 1 -6 -19 -24 -26 -21
-18 -23 1 -5 -18 -25 -27 -22
-18 -23 1 -5 -18 -25 -27 -22
-18 -23 0 -6 -19 -25 -27 -22
-18 -23 0 -6 -19 -25 -27 -22
-18 -23 0 -6 -19 -25 -27 -22
-19 -23 0 -6 -19 -25 -28 -21
-19 -22 2 -2 -16 -23 -27 -21
-19 -21 5 3 -13 -20 -26 -21
-19 -21 7 6 -11 -17 -26 -21
-19 -20 9 10 -8 -15 -25 -21
-15 -17 13 17 2 -7 -20 -20
-8 -12 17 28 15 6 -11 -15
1 -6 22 38 28 17 -2 -9
8 0 26 50 42 29 8 -4
16 5 30 61 55 42 16 2
25 13 34 71 71 61 33 13
36 23 36 81 90 86 56 30
47 33 39 92 109 111 79 47
58 44 42 102 128 137 103 63
68 55 44 112 146 162 127 80
68 65 46 114 151 173 140 94
57 76 48 107 144 169 144 105
45 88 49 99 136 164 148 115
32 99 50 92 128 160 152 127
20 110 52 85 119 156 156 137
5 108 45 60 91 127 138 131
-15 92 27 21 44 73 96 106
-34 76 11 -18 -5 20 55 81
-54 60 -7 -58 -53 -33 13 57
-73 44 -24 -97 -100 -86 -29 32
-82 27 -39 -121 -127 -115 -55 13
-79 10 -53 -133 -135 -121 -67 -2
-76 -8 -67 -143 -143 -129 -78 -16
-74 -25 -80 -154 -150 -135 -91 -30
-71 -43 -95 -164 -158 -141 -102 -46
-66 -51 -98 -162 -156 -140 -105 -52
-60 -48 -88 -145 -142 -129 -97 -50
-54 -45 -77 -128 -128 -117 -90 -47
-48 -43 -68 -111 -114 -106 -82 -44
-41 -39 -58 -94 -100 -95 -74 -41
-36 -36 -50 -79 -89 -85 -68 -38
-33 -33 -43 -68 -78 -76 -63 -36
-30 -30 -34 -57 -68 -68 -57 -34
-27 -28 -27 -47 -58 -60 -52 -32
-24 -25 -20 -35 -48 -52 -47 -30
-22 -23 -15 -28 -41 -46 -44 -28
-21 -23 -13 -26 -39 -44 -41 -27
-20 -23 -11 -23 -37 -40 -39 -26
-19 -23 -9 -20 -35 -38 -37 -26
-18 -23 -7 -18 -33 -36 -35 -25
-17 -23 -6 -16 -31 -34 -34 -24
-17 -23 -6 -15 -30 -33 -34 -24
-16 -22 -6 -14 -29 -32 -34 -24
-15 -22 -6 -13 -29 -32 -34 -24
-15 -22 -6 -12 -28 -31 -34 -24
-14 -21 -5 -11 -27 -30 -34 -24
-14 -21 -5 -11 -27 -30 -34 -24
-14 -21 -4 -11 -27 -30 -33 -24
-14 -21 -3 -11 -27 -30 -32 -23
-14 -21 -3 -11 -27 -30 -32 -23
-15 -21 -2 -10 -26 -31 -31 -22
-13 -21 -2 -10 -26 -31 -31 -22
-12 -21 -2 -10 -26 -31 -31 -22
-11 -21 -2 -10 -26 -31 -31 -23
-9 -21 -2 -10 -26 -31 -31 -23
-8 -20 -3 -11 -26 -30 -31 -24
-8 -20 -3 -11 -26 -30 -31 -23
-8 -20 -3 -11 -26 -30 -31 -23
-7 -19 -4 -11 -26 -30 -31 -22
-7 -19 -4 -11 -26 -30 -31 -21
-6 -18 -5 -12 -25 -29 -30 -20
-6 -18 -5 -12 -25 -29 -29 -20
-6 -17 -5 -12 -25 -28 -29 -20
-7 -16 -5 -12 -25 -27 -28 -20
-7 -16 -5 -12 -25 -27 -27 -20
-8 -15 -5 -11 -24 -26 -26 -19
-7 -15 -5 -11 -24 -26 -26 -19
-6 -14 -5 -11 -24 -26 -26 -19
-4 -13 -5 -11 -24 -26 -26 -19
-3 -13 -5 -11 -24 -26 -26 -19
0 -12 -6 -12 -23 -25 -25 -18
2 -12 -8 -12 -23 -25 -25 -18
4 -12 -9 -12 -23 -25 -25 -18
6 -11 -10 -13 -23 -24 -25 -19
8 -11 -12 -13 -23 -24 -25 -19
10 -10 -13 -14 -23 -23 -25 -20
10 -10 -12 -13 -21 -21 -23 -18
10 -9 -11 -13 -20 -19 -20 -16
9 -8 -10 -12 -18 -17 -17 -14
9 -8 -9 -11 -16 -15 -15 -12
8 -7 -8 -10 -15 -13 -13 -11
10 -7 -9 -10 -14 -12 -13 -11
12 -7 -9 -10 -14 -12 -12 -10
14 -7 -10 -9 -13 -11 -11 -9
16 -7 -11 -9 -12 -10 -11 -9
18 -8 -12 -8 -11 -8 -10 -8
19 -7 -12 -8 -9 -6 -8 -6
20 -6 -12 -7 -8 -4 -6 -5
21 -5 -12 -6 -6 0 -4 -4
22 -4 -12 -6 -4 2 -2 -2
24 -2 -13 -5 -3 5 1 0
29 1 -14 -5 0 7 3 1
33 3 -15 -5 1 9 5 2
37 5 -17 -5 2 11 7 3
42 7 -18 -5 4 13 9 4
46 9 -19 -4 5 16 11 6
49 11 -20 -4 7 19 14 8
51 13 -21 -4 9 22 16 10
54 15 -22 -4 11 25 19 13
57 17 -23 -4 13 28 22 15
59 18 -24 -3 14 30 24 17
61 20 -25 -3 16 32 26 18
63 22 -25 -3 17 34 28 19
65 24 -26 -3 18 36 30 21
67 26 -27 -3 20 38 32 22
68 28 -28 -3 21 39 34 23
68 30 -28 -2 22 42 36 25
68 31 -28 0 23 43 37 26
68 32 -27 1 25 45 39 28
68 34 -27 2 26 47 42 30
69 35 -26 3 27 48 43 31
71 35 -26 3 27 48 43 31
72 35 -26 3 27 48 43 31
74 35 -26 3 26 48 43 32
76 35 -26 3 26 48 43 32
77 35 -26 2 25 48 44 33
75 36 -24 3 25 48 44 34
74 36 -23 4 25 48 44 34
73 37 -21 5 26 48 45 35
71 38 -19 6 26 48 45 36
69 39 -18 7 27 47 46 37
65 38 -16 7 27 47 44 35
61 38 -15 8 27 46 42 34
57 37 -14 9 26 45 39 32
54 36 -12 9 26 45 38 30
50 35 -11 10 25 44 36 29
47 34 -9 11 25 42 34 28
44 34 -7 12 25 39 33 28
40 33 -5 14 24 37 31 27
36 32 -3 15 24 35 29 26
33 31 0 16 23 32 27 25
31 29 1 16 22 30 25 23
29 27 1 16 21 28 23 21
26 25 2 17 19 25 20 19
24 24 3 17 18 23 18 17
22 22 4 18 17 20 15 15
20 20 4 18 15 18 13 13
18 18 5 18 14 15 10 11
16 16 6 17 12 13 8 9
14 15 6 17 10 10 5 7
11 13 7 16 9 8 3 5
9 12 8 16 9 7 2 4
7 12 8 16 9 6 1 2
4 11 9 16 8 5 -2 1
2 10 10 16 8 4 -3 -2
0 9 11 16 7 3 -4 -3
0 7 11 15 5 1 -6 -4
0 5 10 13 4 0 -7 -4
-2 3 9 12 2 -3 -9 -5
-2 2 9 10 0 -5 -11 -6
-3 0 8 9 -2 -6 -12 -7
-3 -2 8 9 -3 -7 -12 -7
-3 -2 7 9 -4 -8 -13 -7
-3 -3 6 8 -5 -9 -14 -7
-3 -4 6 8 -6 -10 -14 -7
-4 -5 5 7 -7 -11 -15 -8
-7 -5 5 7 -7 -11 -15 -8
-9 -5 5 7 -7 -11 -15 -8
-11 -5 6 7 -7 -11 -15 -8
-13 -5 6 7 -7 -11 -15 -8
-15 -6 7 7 -6 -12 -14 -9
-14 -6 7 7 -7 -12 -14 -9
-14 -6 7 6 -7 -12 -15 -9
-13 -7 7 5 -8 -12 -16 -10
-12 -7 7 5 -9 -12 -16 -10
-11 -8 7 4 -10 -13 -17 -11
-11 -8 7 4 -10 -13 -17 -11
-11 -8 7 4 -10 -13 -17 -11
-11 -8 7 3 -10 -13 -17 -11
-11 -8 7 3 -10 -13 -17 -11
-12 -9 6 2 -10 -14 -17 -12
-12 -9 6 2 -10 -14 -17 -12
-11 -9 6 3 -10 -14 -17 -12
-10 -9 6 4 -10 -14 -17 -13
-10 -9 6 4 -10 -14 -17 -13
-9 -8 6 5 -9 -14 -17 -14
-10 -8 6 5 -9 -14 -17 -13
-10 -8 6 5 -9 -14 -17 -12
-11 -8 6 5 -9 -14 -16 -10
-12 -8 6 5 -9 -14 -16 -9
-13 -9 7 6 -8 -13 -15 -8
-13 -9 7 6 -8 -13 -15 -8
-13 -9 7 6 -8 -13 -15 -8
-13 -9 6 6 -8 -13 -15 -8
-13 -9 6 6 -8 -13 -15 -8
-12 -10 5 5 -7 -13 -15 -9
-12 -10 5 5 -7 -13 -15 -9
-12 -10 5 5 -7 -13 -15 -9
-12 -9 6 5 -7 -13 -15 -10
-12 -9 6 5 -7 -13 -15 -10
-11 -8 7 5 -8 -13 -16 -11
-11 -8 7 5 -8 -13 -16 -11
-11 -8 7 5 -8 -13 -16 -11
-11 -8 7 5 -8 -13 -16 -11
-11 -8 7 5 -8 -13 -16 -11
-10 -9 7 5 -8 -13 -17 -12
-10 -6 9 7 -7 -12 -15 -11
-10 -4 11 9 -6 -10 -14 -11
-10 -2 13 11 -5 -9 -12 -10
-10 1 14 12 -4 -7 -11 -9
-11 3 16 14 -3 -6 -9 -8
-10 3 16 15 -2 -6 -9 -7
-8 3 16 15 0 -6 -9 -7
-7 3 16 16 1 -6 -9 -6
-5 3 16 17 2 -6 -9 -5
-4 3 17 18 3 -5 -8 -4
-3 3 16 17 2 -5 -8 -4
-2 3 15 15 2 -5 -9 -5
0 3 14 14 1 -6 -10 -6
1 3 13 12 0 -6 -10 -6
2 2 12 11 -2 -7 -11 -7
2 3 12 11 -2 -7 -10 -7
3 4 12 11 -2 -7 -10 -6
4 6 12 12 0 -7 -9 -5
4 7 12 12 0 -7 -8 -5
5 8 12 13 1 -6 -7 -4
5 8 12 13 2 -5 -6 -3
5 9 12 14 3 -4 -6 0
5 10 12 15 4 -2 -5 1
5 10 12 15 5 0 -4 3
5 11 11 15 6 1 -3 4
6 9 9 13 3 -2 -4 3
7 7 8 10 1 -4 -6 1
8 5 6 7 -3 -6 -7 0
9 4 5 4 -5 -8 -9 -3
10 2 3 2 -7 -10 -10 -4
8 1 3 2 -8 -11 -11 -5
6 0 3 2 -9 -12 -11 -5
4 -3 2 1 -11 -13 -12 -6
3 -4 2 1 -12 -14 -13 -7
1 -5 1 0 -13 -15 -14 -8
1 -6 1 0 -13 -15 -14 -8
0 -6 1 0 -13 -15 -14 -8
-2 -7 2 0 -12 -15 -15 -9
-2 -8 2 0 -12 -15 -15 -9
-3 -9 3 0 -11 -16 -16 -10
-4 -10 3 0 -12 -16 -17 -10
-5 -11 3 0 -12 -17 -18 -10
-6 -12 3 -2 -13 -18 -19 -11
-7 -13 3 -2 -14 -18 -20 -11
-8 -14 2 -3 -15 -19 -21 -12
-9 -15 2 -3 -16 -19 -21 -13
-10 -16 2 -3 -17 -20 -22 -13
-11 -18 2 -4 -18 -21 -23 -14
-12 -19 2 -4 -19 -21 -23 -15
-13 -20 2 -5 -20 -22 -24 -16
-13 -20 2 -5 -20 -22 -24 -16
-13 -20 2 -5 -20 -22 -24 -16
-14 -20 3 -5 -19 -22 -24 -16
-14 -20 3 -5 -19 -22 -24 -16
-15 -20 4 -4 -18 -23 -24 -17
-15 -20 4 -4 -18 -23 -24 -17
-16 -21 4 -4 -18 -23 -24 -17
-16 -21 4 -4 -18 -23 -24 -17
-17 -22 4 -4 -18 -23 -24 -17
-18 -23 4 -5 -19 -24 -25 -18
-18 -23 4 -5 -19 -24 -25 -18
-18 -23 3 -5 -19 -24 -25 -18
-18 -23 3 -6 -20 -24 -25 -18
-18 -23 2 -6 -20 -24 -25 -18
-19 -22 1 -7 -21 -24 -25 -19
-19 -22 1 -7 -21 -24 -25 -19
-19 -22 1 -7 -21 -24 -25 -19
-19 -22 1 -6 -20 -24 -25 -19
-19 -22 1 -6 -20 -24 -25 -19
-18 -21 2 -5 -19 -24 -25 -20
-18 -21 2 -5 -19 -24 -25 -20
-18 -22 2 -5 -19 -24 -25 -19
-18 -22 3 -5 -19 -24 -24 -19
-18 -23 3 -5 -19 -24 -24 -18
-17 -24 4 -6 -19 -24 -23 -17
-17 -24 4 -6 -19 -24 -23 -17
-17 -24 4 -6 -19 -24 -23 -17
-17 -25 4 -6 -19 -24 -24 -17
-17 -25 4 -6 -19 -24 -24 -17
-17 -26 3 -7 -19 -24 -25 -18
-17 -26 3 -7 -19 -24 -25 -18
-17 -26 3 -7 -19 -24 -25 -18
-17 -25 3 -7 -19 -24 -25 -19
-17 -25 3 -7 -19 -24 -25 -19
-17 -24 3 -6 -19 -23 -24 -20
-17 -24 5 -3 -17 -22 -24 -20
-16 -24 7 1 -15 -21 -24 -20
-16 -24 9 4 -13 -20 -24 -20
-15 -24 11 7 -11 -18 -24 -20
-13 -23 14 12 -6 -14 -23 -19
-8 -18 19 22 8 -3 -15 -15
-3 -13 23 32 20 9 -6 -11
3 -9 28 43 32 21 3 -7
8 -4 32 53 46 32 12 -3
16 4 36 63 60 48 24 5
29 14 37 73 79 74 48 21
43 24 38 85 99 100 71 37
57 33 39 95 118 127 95 54
70 44 40 106 138 153 118 69
78 56 43 113 152 172 138 86
68 70 46 110 149 176 148 101
58 85 50 106 147 179 158 116
49 99 54 102 144 182 170 132
38 113 58 98 141 185 180 147
25 119 57 84 125 172 176 151
3 103 43 46 74 113 131 126
-19 87 28 7 25 56 86 101
-41 70 14 -31 -25 -3 40 75
-64 54 0 -70 -75 -60 -4 50
-80 36 -16 -103 -114 -104 -39 27
-79 19 -34 -120 -127 -113 -53 11
-78 1 -54 -138 -139 -123 -66 -6
-77 -18 -72 -156 -151 -133 -79 -21
-76 -36 -91 -174 -163 -142 -92 -37
-73 -50 -103 -183 -170 -147 -101 -50
-65 -50 -95 -165 -156 -137 -96 -50
-57 -50 -86 -149 -143 -127 -90 -50
-49 -50 -77 -132 -130 -116 -85 -50
-40 -50 -69 -114 -117 -106 -78 -50
-34 -50 -60 -99 -104 -96 -73 -50
-30 -46 -51 -85 -92 -85 -66 -46
-27 -40 -41 -71 -79 -74 -59 -40
-24 -36 -33 -58 -66 -64 -52 -36
-21 -32 -24 -44 -54 -54 -45 -32
-18 -28 -17 -33 -45 -46 -39 -28
-16 -27 -14 -29 -40 -43 -37 -27
-14 -26 -12 -26 -37 -39 -35 -26
-12 -25 -9 -22 -33 -36 -34 -25
-10 -24 -6 -19 -30 -33 -32 -24
-8 -23 -4 -16 -27 -30 -30 -23
-8 -23 -4 -16 -27 -29 -30 -23
-8 -23 -4 -15 -26 -29 -30 -23
-9 -23 -3 -15 -26 -28 -29 -22
-9 -23 -3 -14 -25 -27 -29 -22
-10 -23 -2 -13 -24 -26 -28 -21
-10 -23 -2 -12 -24 -25 -27 -21
-10 -23 -2 -12 -23 -25 -25 -20
-10 -22 -2 -11 -23 -24 -24 -20
-10 -22 -2 -10 -22 -23 -23 -19
-9 -21 -2 -9 -21 -22 -21 -18
-8 -21 -2 -9 -21 -22 -21 -18
-7 -21 -3 -9 -21 -22 -21 -18
-6 -21 -3 -9 -21 -22 -22 -18
-4 -21 -4 -9 -21 -22 -22 -18
-3 -21 -5 -10 -21 -22 -23 -19
-3 -21 -5 -10 -21 -22 -23 -19
-3 -21 -5 -10 -21 -22 -22 -18
-3 -20 -4 -9 -21 -21 -22 -18
-3 -20 -4 -9 -21 -21 -21 -17
-2 -19 -3 -8 -20 -20 -20 -16
0 -19 -3 -8 -20 -20 -20 -16
0 -19 -3 -8 -20 -20 -20 -16
1 -19 -4 -9 -19 -20 -20 -17
2 -19 -4 -9 -19 -20 -20 -17
3 -20 -5 -10 -18 -20 -20 -18
3 -19 -5 -10 -18 -19 -19 -17
3 -18 -5 -10 -18 -18 -18 -16
3 -17 -5 -10 -18 -17 -17 -15
3 -15 -5 -10 -18 -16 -15 -14
4 -14 -6 -9 -17 -15 -14 -13
5 -14 -6 -9 -17 -15 -14 -13
6 -14 -7 -9 -16 -15 -14 -13
7 -15 -7 -9 -16 -14 -14 -13
8 -15 -8 -9 -15 -14 -14 -13
9 -16 -9 -10 -14 -13 -14 -14
9 -16 -9 -10 -14 -12 -12 -13
10 -15 -9 -10 -13 -10 -10 -12
10 -14 -9 -9 -12 -8 -9 -11
11 -13 -9 -9 -11 -7 -7 -9
12 -12 -10 -8 -10 -5 -5 -8
14 -12 -11 -8 -9 -4 -5 -8
16 -11 -12 -8 -8 -2 -4 -7
18 -10 -13 -8 -7 1 -4 -6
20 -9 -15 -8 -6 2 -3 -5
22 -8 -16 -9 -5 4 -2 -4
25 -7 -16 -9 -4 6 1 -3
28 -5 -16 -8 -2 8 3 0
31 -4 -16 -8 1 11 6 2
33 -3 -16 -7 2 13 8 3
36 0 -17 -6 4 15 10 5
38 1 -17 -6 6 18 13 6
40 3 -18 -5 8 22 15 8
44 5 -18 -5 9 25 18 9
46 6 -19 -4 11 28 21 10
48 8 -20 -3 13 31 23 12
50 10 -21 -3 14 33 26 14
52 12 -22 -3 16 36 29 16
55 14 -23 -3 18 38 32 17
57 16 -24 -3 19 42 34 19
59 18 -25 -2 21 44 37 21
62 18 -26 -2 22 46 39 22
65 19 -28 -2 24 49 42 23
68 19 -29 -2 26 51 44 24
70 20 -30 -2 27 54 46 25
73 21 -32 -2 29 56 48 26
73 23 -31 0 30 58 50 28
73 25 -30 2 32 59 52 31
73 28 -29 3 33 61 54 33
73 30 -28 4 34 63 56 36
74 32 -27 6 36 65 58 38
74 33 -27 6 36 65 58 38
74 34 -27 6 36 65 59 38
74 35 -27 6 36 65 59 39
74 36 -27 6 36 65 60 39
75 37 -28 5 37 66 61 40
75 37 -28 5 37 66 61 40
74 37 -27 6 37 65 60 40
74 37 -26 6 37 64 59 40
73 37 -25 7 37 63 58 40
72 37 -24 8 36 62 57 39
68 37 -22 9 36 61 57 39
64 37 -20 10 36 60 56 38
60 36 -18 11 36 59 55 37
57 36 -16 13 36 58 54 36
53 35 -14 14 35 57 53 35
51 35 -14 14 34 54 50 33
50 34 -13 14 32 52 47 31
48 33 -12 14 30 49 45 29
46 32 -11 14 29 47 42 27
44 31 -10 14 27 44 38 25
40 29 -9 14 27 40 35 23
37 27 -7 14 26 38 33 21
35 25 -6 15 25 35 30 19
32 23 -5 15 24 33 28 17
29 21 -3 16 23 30 25 15
27 19 -2 16 22 28 23 14
24 17 1 17 21 26 22 12
22 15 3 17 20 24 20 11
19 13 4 18 19 22 18 10
17 11 6 19 18 20 16 8
16 11 6 18 17 18 13 6
15 11 5 16 15 15 10 4
14 10 5 15 14 13 7 1
12 10 4 14 13 10 4 -2
11 9 3 12 11 8 1 -4
10 9 3 12 10 7 1 -4
9 8 3 12 8 6 0 -4
8 7 4 12 7 5 0 -4
7 6 4 12 6 3 -2 -4
6 5 5 11 4 2 -3 -5
6 4 5 10 3 1 -4 -7
6 3 5 9 2 -2 -6 -8
6 2 4 8 1 -3 -7 -10
6 1 4 7 0 -4 -8 -12
6 0 3 6 -2 -6 -10 -14
6 0 3 6 -3 -6 -10 -14
5 0 3 5 -4 -7 -11 -14
4 0 3 4 -5 -7 -11 -14
3 0 3 3 -7 -8 -12 -14
2 -2 3 2 -8 -9 -13 -15
2 -2 3 2 -8 -9 -13 -15
2 -3 3 2 -8 -10 -13 -16
2 -3 2 2 -8 -10 -14 -16
2 -4 2 2 -8 -11 -14 -17
1 -5 1 1 -9 -12 -15 -18
1 -5 1 1 -9 -12 -15 -18
1 -6 1 1 -10 -13 -15 -18
0 -7 1 1 -10 -13 -16 -18
0 -8 1 1 -11 -14 -16 -18
-2 -9 1 1 -12 -15 -17 -18
-2 -9 1 1 -12 -15 -17 -18
-2 -8 1 1 -12 -15 -17 -18
-2 -7 1 1 -11 -15 -17 -17
-2 -6 1 1 -11 -15 -17 -17
0 -5 1 0 -10 -14 -17 -16
0 -5 1 0 -10 -14 -17 -16
0 -5 1 0 -10 -14 -17 -16
-2 -6 1 1 -10 -14 -17 -16
-2 -6 1 1 -10 -14 -17 -16
-3 -7 2 2 -10 -13 -16 -17
-2 -7 2 2 -10 -13 -16 -17
0 -7 2 2 -10 -13 -16 -17
1 -7 2 2 -10 -13 -17 -17
2 -7 2 2 -10 -13 -17 -17
3 -6 3 1 -10 -13 -18 -18
3 -6 3 1 -10 -13 -18 -18
3 -6 3 1 -10 -13 -17 -18
3 -5 3 1 -9 -13 -17 -17
3 -5 3 1 -9 -13 -16 -17
3 -4 2 1 -8 -14 -15 -16
3 -3 4 3 -8 -14 -15 -16
3 0 5 4 -7 -14 -15 -16
4 1 7 6 -6 -13 -14 -16
4 2 9 8 -5 -13 -14 -16
5 4 11 10 -4 -12 -13 -15
5 4 11 10 -4 -11 -12 -14
5 4 11 10 -3 -10 -11 -12
6 5 11 11 -2 -9 -10 -10
6 5 11 11 0 -8 -9 -9
7 6 11 12 1 -6 -7 -7
8 6 11 12 1 -6 -7 -7
9 6 10 12 0 -6 -8 -8
10 6 10 12 0 -6 -9 -9
11 6 9 12 -2 -6 -10 -10
13 5 8 11 -3 -7 -11 -11
12 6 8 11 -3 -7 -11 -11
11 7 8 10 -3 -7 -10 -10
10 8 7 10 -3 -7 -9 -9
9 9 7 9 -3 -7 -8 -8
8 10 6 8 -4 -7 -7 -7
10 11 6 8 -3 -6 -7 -7
13 12 6 9 -2 -5 -6 -6
15 13 6 10 0 -4 -6 -6
17 14 6 11 1 -3 -5 -5
20 16 6 12 3 0 -4 -4
20 15 6 11 2 -2 -4 -4
20 13 5 10 1 -4 -5 -4
19 11 4 8 0 -6 -6 -5
19 10 3 7 -2 -7 -7 -5
18 8 2 5 -3 -9 -8 -6
18 8 1 3 -5 -10 -9 -7
17 7 0 2 -7 -11 -10 -8
17 6 -2 0 -9 -13 -12 -9
16 5 -3 -3 -11 -14 -13 -10
15 4 -4 -5 -13 -16 -15 -12
14 3 -4 -5 -13 -16 -15 -13
13 2 -4 -5 -13 -16 -15 -14
12 1 -4 -5 -13 -16 -16 -15
11 0 -4 -5 -13 -16 -16 -16
10 -2 -3 -4 -14 -17 -17 -17
9 -4 -3 -4 -14 -18 -18 -17
8 -6 -3 -4 -15 -19 -19 -17
6 -8 -3 -5 -15 -20 -20 -18
5 -11 -3 -5 -16 -21 -21 -18
3 -13 -3 -6 -17 -22 -22 -19
1 -13 -3 -6 -17 -22 -22 -19
-2 -14 -3 -6 -17 -22 -22 -19
-4 -14 -3 -6 -18 -23 -22 -19
-7 -15 -3 -6 -18 -23 -22 -19
-9 -16 -2 -7 -19 -24 -23 -19
-9 -16 -2 -7 -19 -24 -23 -19
-9 -17 -3 -7 -19 -25 -23 -19
-8 -17 -3 -8 -20 -25 -23 -20
-8 -18 -4 -8 -20 -26 -23 -20
-7 -19 -5 -9 -21 -27 -24 -21
-9 -19 -4 -9 -21 -27 -24 -21
-12 -19 -3 -8 -21 -27 -24 -21
-14 -19 -2 -8 -20 -27 -25 -22
-16 -19 0 -7 -20 -27 -25 -22
-19 -19 1 -6 -19 -27 -26 -23
-19 -19 1 -6 -19 -27 -26 -23
-18 -19 1 -6 -19 -27 -26 -23
-17 -19 1 -6 -19 -26 -26 -23
-16 -19 1 -6 -19 -26 -26 -23
-15 -19 0 -7 -20 -25 -26 -23
-15 -19 0 -7 -20 -25 -26 -23
-15 -19 0 -7 -20 -25 -26 -22
-16 -20 0 -7 -20 -26 -26 -22
-16 -20 0 -7 -20 -26 -26 -21
-17 -21 1 -7 -21 -27 -26 -20
-17 -21 1 -7 -21 -27 -26 -20
-18 -21 1 -7 -21 -27 -26 -20
-18 -21 0 -7 -21 -27 -26 -20
-19 -21 0 -7 -21 -27 -26 -20
-20 -22 -2 -8 -20 -26 -25 -20
-20 -22 -2 -8 -20 -25 -25 -20
-21 -22 -2 -8 -19 -24 -24 -19
-21 -22 -2 -7 -18 -23 -24 -19
-22 -22 -2 -7 -17 -22 -23 -18
-23 -21 0 -6 -16 -21 -22 -17
-23 -21 0 -6 -16 -21 -22 -17
-23 -21 0 -6 -17 -22 -23 -18
-23 -21 0 -6 -18 -23 -23 -18
-23 -21 0 -6 -19 -24 -24 -19
-22 -22 0 -7 -20 -25 -25 -20
-22 -22 0 -7 -19 -24 -25 -20
-22 -22 1 -7 -17 -23 -25 -20
-22 -22 2 -7 -15 -22 -25 -20
-22 -22 3 -7 -13 -21 -25 -20
-22 -22 4 -5 -11 -20 -24 -20
-20 -19 10 8 2 -9 -18 -17
-18 -17 16 21 14 2 -11 -13
-15 -14 21 33 26 12 -5 -10
-13 -11 27 47 38 22 3 -7
-10 -8 33 59 52 34 10 -2
3 3 35 70 72 61 33 15
15 13 37 81 93 88 57 30
27 23 39 93 112 114 80 47
39 32 42 104 133 141 104 63
52 44 44 115 152 168 128 79
49 60 48 114 155 182 152 101
47 76 52 112 158 196 176 122
44 93 56 110 161 211 200 143
40 109 61 108 165 224 225 164
36 125 65 104 165 234 244 184
12 109 51 65 112 169 191 156
-12 95 37 25 59 104 138 129
-35 80 23 -14 6 38 86 101
-60 66 10 -53 -48 -26 32 73
-82 51 -5 -91 -99 -88 -19 46
-82 33 -25 -111 -114 -101 -35 29
-82 16 -46 -132 -130 -114 -53 13
-82 -3 -66 -152 -146 -128 -69 -5
-82 -20 -87 -174 -161 -141 -87 -21
-81 -37 -106 -193 -177 -153 -103 -37
-75 -40 -100 -179 -165 -145 -99 -38
-68 -44 -94 -164 -155 -136 -94 -39
-62 -47 -88 -150 -144 -128 -90 -40
-56 -50 -81 -136 -133 -118 -86 -41
-49 -54 -75 -122 -122 -110 -80 -43
-44 -49 -66 -106 -107 -98 -72 -38
-39 -45 -56 -90 -92 -86 -65 -34
-34 -39 -47 -73 -77 -73 -57 -30
-29 -34 -36 -57 -62 -62 -50 -26
-24 -29 -27 -41 -48 -50 -41 -22
-24 -28 -23 -36 -44 -46 -39 -21
-24 -27 -20 -31 -38 -41 -36 -20
-23 -26 -16 -26 -34 -37 -33 -18
-23 -25 -12 -20 -30 -33 -30 -17
-22 -24 -8 -15 -25 -29 -27 -15
-22 -24 -8 -14 -24 -28 -27 -15
-22 -24 -7 -13 -23 -27 -26 -14
-22 -25 -7 -11 -21 -26 -25 -14
-22 -25 -6 -10 -20 -25 -24 -13
-21 -26 -5 -8 -18 -23 -23 -12
-21 -26 -5 -8 -18 -23 -22 -11
-20 -26 -4 -8 -17 -22 -21 -10
-20 -26 -4 -7 -16 -21 -20 -9
-19 -26 -3 -7 -15 -20 -19 -8
-18 -25 -2 -6 -14 -19 -17 -7
-18 -25 -2 -6 -14 -19 -17 -7
-18 -25 -2 -6 -14 -19 -17 -7
-17 -24 -3 -6 -14 -18 -17 -8
-17 -24 -3 -6 -14 -18 -17 -8
-16 -23 -4 -7 -14 -17 -17 -9
-16 -23 -4 -7 -14 -17 -17 -8
-16 -23 -3 -6 -13 -17 -16 -7
-15 -23 -3 -6 -13 -16 -15 -5
-15 -23 -2 -5 -12 -16 -14 -4
-14 -22 0 -4 -11 -15 -13 -2
-14 -22 0 -4 -11 -15 -13 -2
-13 -22 -2 -4 -11 -15 -13 -2
-13 -22 -2 -4 -11 -14 -13 -2
-12 -22 -3 -4 -11 -14 -13 -2
-11 -21 -4 -5 -11 -13 -12 -3
-10 -21 -4 -5 -11 -13 -12 -3
-9 -21 -4 -5 -11 -12 -11 -3
-8 -20 -4 -5 -10 -12 -11 -2
-7 -20 -4 -5 -10 -11 -10 -2
-5 -19 -5 -5 -9 -10 -9 0
-5 -19 -5 -5 -9 -9 -9 0
-5 -19 -5 -5 -9 -8 -8 0
-4 -19 -5 -5 -8 -7 -8 0
-4 -19 -5 -5 -8 -6 -7 0
-3 -19 -6 -6 -7 -5 -6 -2
-3 -19 -6 -5 -6 -4 -5 0
-3 -18 -6 -4 -5 -3 -4 2
-2 -17 -6 -3 -3 0 -2 4
-2 -16 -6 -2 -2 1 0 6
0 -15 -6 0 1 3 2 8
2 -15 -7 0 1 4 2 8
5 -15 -8 0 1 5 2 8
7 -15 -9 -2 2 6 3 8
10 -15 -10 -2 2 7 3 8
13 -14 -12 -3 3 9 4 8
13 -12 -12 -2 5 12 7 10
13 -10 -12 0 8 15 11 13
13 -8 -11 1 10 18 14 15
13 -6 -11 2 13 21 18 18
12 -3 -10 4 16 25 22 21
16 -2 -11 4 18 28 24 22
20 0 -13 4 20 31 26 23
24 1 -15 4 22 34 28 25
28 2 -17 4 24 37 30 26
33 4 -19 4 26 40 33 28
33 5 -20 4 28 44 36 30
34 6 -21 5 30 47 40 33
35 8 -22 5 32 51 44 35
36 9 -23 6 34 54 48 38
37 11 -24 7 36 58 52 42
40 12 -24 8 38 61 54 43
45 14 -24 9 40 64 56 45
48 16 -24 10 44 66 59 46
52 18 -24 11 46 69 61 48
55 19 -24 12 48 72 63 49
56 21 -24 13 49 74 65 51
57 23 -24 13 50 76 67 52
57 24 -24 13 51 77 69 53
58 26 -24 13 52 79 71 54
58 27 -24 13 52 80 73 55
59 28 -25 13 53 81 74 56
59 29 -25 14 53 81 74 57
59 30 -25 14 54 82 74 58
59 31 -25 15 54 82 74 59
59 31 -25 15 54 82 74 59
59 32 -23 16 55 84 74 60
57 33 -22 17 55 84 75 60
55 33 -20 18 55 84 75 61
53 34 -19 19 55 84 76 61
52 34 -18 19 55 84 76 61
50 35 -17 20 54 80 75 61
48 34 -16 20 53 78 73 59
46 33 -16 20 52 75 70 58
44 32 -15 20 51 73 68 56
43 31 -15 20 50 71 66 55
39 30 -12 20 48 68 63 54
36 29 -10 21 47 66 61 53
33 28 -8 21 45 63 59 52
30 27 -6 22 44 61 57 51
27 27 -4 22 43 59 55 50
25 25 -3 23 40 55 51 47
23 23 -2 23 38 52 48 44
21 21 0 23 37 48 44 40
19 19 1 23 35 45 40 37
17 18 1 23 34 42 37 34
14 16 3 24 32 38 34 32
11 15 5 24 30 35 31 30
8 14 6 24 29 33 28 28
5 13 8 24 27 30 25 26
3 12 9 24 26 28 23 24
2 10 10 24 24 26 21 22
1 8 10 24 23 24 19 20
1 7 10 24 21 22 17 18
0 5 10 24 20 20 15 16
0 4 10 24 19 18 13 15
-2 3 11 22 17 15 11 13
-3 2 10 21 15 13 9 11
-4 1 10 20 14 11 7 9
-5 0 9 19 12 9 5 7
-5 0 9 18 11 7 3 6
-7 -2 8 17 10 6 2 5
-8 -3 8 16 10 5 1 5
-10 -3 8 16 9 5 0 4
-11 -4 8 15 9 4 -2 4
-12 -4 8 15 9 4 -2 4
-13 -5 9 14 8 3 -3 3
-13 -6 9 13 7 2 -4 3
-13 -6 9 12 6 1 -4 2
-13 -7 9 11 5 0 -5 2
-13 -7 9 11 4 -2 -5 2
-12 -8 9 10 3 -3 -6 1
-13 -8 9 10 3 -3 -6 0
-13 -8 8 10 3 -4 -7 -2
-14 -8 8 10 3 -4 -7 -3
-14 -8 8 10 3 -4 -7 -3
-15 -9 7 9 1 -6 -9 -4
-14 -9 6 8 0 -7 -10 -5
-14 -9 5 7 -2 -9 -11 -6
-13 -9 4 6 -3 -10 -12 -7
-13 -9 4 5 -4 -11 -13 -7
-13 -9 3 4 -5 -12 -14 -8
-14 -9 4 5 -4 -11 -13 -8
-15 -10 5 6 -4 -10 -12 -7
-16 -10 6 7 -3 -9 -11 -7
-17 -10 7 8 -3 -8 -11 -7
-18 -11 8 9 -2 -7 -10 -6
-17 -11 8 9 -2 -7 -10 -6
-16 -10 8 8 -2 -8 -10 -6
-15 -10 8 8 -2 -8 -10 -6
-15 -10 8 8 -2 -8 -10 -6
-14 -9 8 7 -3 -9 -10 -6
-14 -9 8 7 -3 -9 -10 -6
-14 -9 8 7 -3 -9 -11 -6
-14 -9 8 7 -3 -9 -11 -6
-14 -9 8 7 -3 -9 -11 -6
-13 -10 7 7 -4 -10 -12 -7
-13 -10 7 7 -3 -10 -12 -7
-14 -10 8 8 -3 -9 -11 -7
-14 -10 8 8 -2 -9 -11 -7
-14 -10 8 8 -2 -9 -11 -7
-14 -8 10 10 0 -8 -10 -6
-13 -6 11 11 1 -7 -9 -5
-12 -4 12 13 2 -6 -8 -5
-11 -2 13 14 3 -5 -7 -4
-10 1 14 15 4 -4 -7 -4
-9 2 15 16 5 -3 -6 -3
-9 3 15 16 6 -3 -6 -2
-8 4 16 17 6 -2 -5 0
-8 5 16 17 7 -2 -5 1
-8 5 16 17 7 -2 -5 2
-7 6 17 18 7 0 -4 2
-6 6 17 17 6 -2 -5 1
-5 6 16 17 5 -3 -6 0
-4 6 16 16 4 -4 -7 -2
-4 6 16 16 3 -5 -7 -3
-3 6 15 15 2 -6 -7 -3
-4 7 15 15 3 -5 -6 -2
-5 7 14 15 4 -4 -4 0
-6 8 14 15 5 -3 -3 1
-6 8 14 15 5 -3 -2 2
-5 9 13 14 6 -2 0 3
-2 10 13 14 6 0 0 3
2 10 13 14 7 1 0 3
5 11 13 14 7 2 0 3
8 11 13 14 7 3 0 3
9 12 12 14 8 3 0 4
8 12 11 12 7 1 -2 3
7 11 10 11 6 -2 -3 3
6 11 9 9 5 -4 -4 2
5 11 9 8 4 -5 -5 2
4 9 8 7 2 -6 -6 0
3 7 7 6 0 -7 -7 -2
2 5 6 5 -2 -8 -8 -3
1 3 5 4 -4 -9 -9 -4
0 1 4 3 -5 -9 -9 -5
-2 0 3 2 -6 -10 -10 -6
-3 -2 3 2 -6 -10 -11 -6
-3 -2 3 2 -6 -10 -11 -7
-4 -3 3 2 -6 -10 -12 -7
-4 -3 3 2 -6 -10 -12 -7
-6 -5 4 3 -8 -12 -14 -9
-8 -7 4 2 -9 -13 -15 -10
-9 -9 4 2 -11 -14 -16 -11
-11 -11 4 1 -12 -15 -17 -12
-12 -12 4 1 -13 -16 -18 -13
-13 -13 3 0 -14 -17 -19 -14
-14 -14 3 0 -15 -18 -19 -15
-14 -14 3 -2 -15 -19 -19 -15
-15 -15 3 -2 -16 -20 -19 -16
-15 -15 3 -2 -16 -20 -19 -16
-16 -16 4 -3 -17 -21 -20 -17
-16 -17 3 -3 -18 -22 -21 -18
-16 -18 3 -4 -19 -22 -21 -18
-16 -19 2 -4 -20 -23 -22 -19
-16 -19 2 -4 -20 -23 -22 -19
-16 -20 1 -5 -21 -24 -23 -20
-16 -20 1 -5 -20 -24 -23 -20
-17 -20 1 -5 -20 -24 -23 -20
-17 -20 1 -5 -19 -24 -23 -20
-17 -20 1 -5 -19 -24 -23 -20
-18 -19 2 -5 -18 -24 -24 -19
-18 -20 2 -5 -18 -24 -24 -19
-18 -20 2 -6 -19 -25 -24 -20
-18 -21 2 -6 -19 -25 -24 -20
-18 -21 2 -6 -19 -25 -24 -20
-17 -22 2 -7 -20 -26 -25 -21
-17 -21 2 -7 -20 -26 -25 -21
-17 -21 2 -7 -20 -27 -26 -22
-17 -20 2 -7 -20 -27 -26 -22
-17 -20 2 -7 -20 -27 -26 -22
-16 -19 1 -8 -21 -28 -27 -23
-17 -20 1 -8 -21 -28 -27 -23
-18 -20 1 -8 -21 -28 -27 -23
-19 -21 1 -8 -21 -28 -27 -23
-20 -21 1 -8 -21 -28 -27 -23
-21 -22 1 -8 -21 -28 -27 -23
-20 -22 1 -8 -21 -28 -27 -23
-19 -22 1 -8 -21 -28 -27 -23
-18 -22 1 -8 -21 -28 -27 -23
-18 -22 1 -8 -21 -28 -27 -23
-18 -21 2 -8 -20 -28 -27 -24
-19 -21 2 -8 -20 -28 -27 -24
-21 -22 2 -8 -20 -28 -27 -24
-22 -22 2 -8 -20 -28 -27 -24
-23 -22 2 -8 -20 -28 -27 -24
-22 -23 3 -6 -19 -27 -26 -24
-20 -23 4 -2 -16 -25 -25 -24
-18 -23 6 2 -13 -23 -25 -24
-15 -23 8 6 -10 -21 -24 -24
-13 -23 9 9 -7 -19 -24 -24
-9 -18 14 20 7 -7 -16 -20
-4 -14 20 32 21 7 -6 -15
1 -9 25 45 35 20 4 -10
5 -4 31 57 50 33 13 -4
10 2 37 69 64 48 22 2
20 13 40 80 85 74 46 18
31 25 44 93 106 103 72 36
43 37 48 105 128 132 98 55
54 50 51 116 149 161 123 73
65 63 54 129 171 190 150 92
58 77 55 123 170 195 161 106
46 92 55 113 162 196 172 120
34 107 55 104 155 197 181 135
23 121 55 94 148 198 191 149
11 136 55 85 142 199 200 162
-7 123 40 46 93 146 160 142
-25 105 21 2 36 80 110 114
-44 86 3 -43 -19 16 61 87
-62 67 -17 -88 -75 -50 11 58
-80 48 -36 -132 -132 -114 -39 30
-81 29 -53 -148 -147 -131 -58 12
-78 11 -70 -159 -156 -138 -71 -5
-74 -9 -87 -172 -164 -145 -85 -20
-71 -27 -103 -183 -173 -152 -98 -36
-68 -47 -120 -195 -181 -159 -110 -53
-62 -48 -113 -182 -170 -151 -106 -54
-56 -45 -101 -162 -154 -138 -98 -51
-50 -43 -89 -143 -138 -124 -90 -48
-44 -39 -76 -123 -122 -111 -80 -45
-37 -36 -64 -104 -106 -98 -72 -41
-34 -34 -54 -90 -94 -88 -66 -39
-31 -31 -46 -75 -81 -77 -60 -36
-27 -29 -36 -62 -69 -68 -54 -34
-24 -26 -28 -49 -57 -58 -48 -32
-21 -24 -19 -35 -46 -49 -41 -30
-20 -23 -16 -30 -40 -45 -38 -28
-19 -22 -13 -26 -36 -41 -35 -27
-18 -21 -11 -23 -33 -37 -33 -26
-17 -20 -8 -19 -29 -34 -30 -24
-17 -20 -6 -16 -26 -31 -28 -23
-16 -19 -5 -15 -25 -30 -27 -22
-15 -19 -5 -14 -24 -30 -27 -22
-14 -19 -5 -13 -24 -30 -27 -23
-13 -19 -5 -12 -23 -30 -27 -23
-12 -19 -5 -11 -23 -30 -27 -23
-11 -18 -6 -10 -22 -30 -27 -24
-11 -18 -6 -10 -22 -29 -27 -24
-11 -18 -5 -10 -21 -28 -26 -24
-11 -18 -5 -10 -21 -27 -26 -24
-11 -18 -5 -10 -21 -26 -26 -24
-10 -18 -4 -10 -20 -25 -25 -23
-10 -18 -4 -9 -20 -25 -25 -22
-10 -18 -4 -8 -20 -25 -24 -21
-10 -18 -4 -7 -20 -25 -24 -20
-10 -18 -4 -7 -20 -25 -24 -20
-11 -18 -4 -6 -19 -25 -23 -19
-11 -17 -4 -6 -18 -24 -22 -19
-11 -16 -4 -6 -18 -23 -21 -18
-11 -15 -4 -6 -17 -22 -20 -18
-11 -14 -4 -6 -17 -21 -19 -18
-9 -13 -3 -7 -16 -20 -18 -17
-7 -13 -4 -7 -16 -20 -18 -17
-5 -13 -4 -7 -16 -20 -19 -17
-3 -13 -5 -7 -16 -20 -19 -17
0 -13 -5 -7 -16 -20 -19 -17
1 -14 -6 -8 -16 -21 -19 -18
0 -13 -6 -8 -15 -19 -18 -17
-2 -12 -5 -7 -14 -18 -17 -16
-3 -11 -5 -7 -13 -17 -15 -15
-4 -11 -5 -7 -13 -16 -14 -14
-4 -10 -4 -6 -12 -15 -13 -13
-2 -10 -4 -6 -12 -14 -13 -13
1 -10 -5 -5 -11 -14 -13 -13
2 -10 -5 -5 -11 -13 -13 -13
4 -10 -5 -5 -11 -13 -13 -13
5 -9 -6 -4 -9 -11 -12 -13
5 -8 -6 -4 -8 -9 -10 -11
6 -7 -6 -4 -7 -7 -8 -9
6 -6 -6 -4 -5 -6 -6 -8
6 -6 -6 -4 -4 -4 -4 -6
8 -5 -7 -3 -2 -2 -3 -5
10 -4 -8 -3 0 0 -2 -5
12 -3 -8 -2 1 2 0 -4
14 -2 -9 -2 3 4 1 -4
16 -2 -9 -2 4 5 2 -4
18 1 -10 0 6 8 5 -2
20 2 -10 1 8 11 7 1
22 4 -11 2 10 14 10 3
23 6 -11 3 12 17 12 4
25 7 -11 3 14 20 15 6
28 8 -12 4 16 23 18 8
30 9 -13 5 18 26 20 9
33 10 -14 6 20 29 23 10
35 11 -15 7 22 32 26 12
38 12 -16 7 24 35 29 13
42 14 -17 8 26 38 32 16
45 17 -18 8 28 43 35 18
48 19 -18 9 31 46 38 21
52 22 -19 9 33 49 42 24
55 24 -19 9 35 53 45 27
57 26 -20 10 37 56 47 29
59 27 -21 11 39 58 50 31
60 28 -21 12 42 61 52 32
62 30 -22 13 44 63 55 34
64 31 -22 13 46 66 57 36
65 33 -23 14 47 68 59 38
65 34 -23 14 48 70 61 39
64 35 -23 15 49 71 64 42
64 37 -23 15 50 73 66 44
64 38 -23 15 51 75 68 45
63 39 -22 16 52 76 69 46
63 40 -22 16 52 76 69 47
64 42 -22 16 52 76 69 47
64 43 -22 16 52 76 69 48
64 43 -22 16 52 76 69 48
65 44 -21 16 53 76 68 49
63 45 -20 16 52 75 68 49
62 45 -19 17 52 74 67 49
61 46 -17 17 51 72 67 49
60 46 -16 17 51 71 67 49
58 47 -15 18 50 69 65 47
57 45 -13 19 50 68 63 46
56 44 -12 19 49 67 62 45
54 43 -11 20 49 65 60 43
53 42 -10 20 49 64 58 42
49 40 -8 21 47 62 56 39
45 39 -6 22 45 59 53 38
40 38 -5 22 44 56 51 36
36 37 -3 23 42 54 48 34
32 37 0 23 39 51 46 33
29 35 1 24 37 48 43 31
27 33 2 24 36 46 39 29
24 32 2 24 35 43 36 26
22 30 3 24 33 39 32 24
20 28 3 24 32 36 29 22
19 26 4 23 30 33 27 20
17 24 5 22 28 31 25 19
16 22 6 22 26 28 24 17
15 20 6 21 24 25 22 16
14 18 7 21 22 22 20 14
11 16 8 20 21 20 18 12
7 15 9 20 20 19 16 10
4 13 10 21 19 17 13 9
0 12 11 21 19 16 11 7
-5 10 12 21 18 14 9 5
-6 9 13 21 16 12 7 3
-6 8 12 20 14 10 5 2
-6 7 12 18 11 8 4 0
-6 7 11 17 9 6 2 -2
-6 6 11 15 7 4 0 -4
-5 5 10 14 6 3 -2 -5
-5 5 10 14 5 1 -4 -6
-5 4 9 13 5 0 -5 -6
-5 4 9 13 4 -2 -6 -7
-5 4 9 13 4 -3 -7 -7
-6 3 8 12 3 -4 -8 -8
-7 3 8 12 3 -4 -8 -8
-8 2 8 11 3 -4 -8 -7
-9 2 8 11 3 -4 -8 -7
-10 2 8 11 3 -4 -8 -7
-11 1 8 10 2 -4 -8 -7
-11 1 7 9 1 -5 -9 -8
-11 0 7 9 0 -6 -10 -9
-11 0 6 8 0 -7 -11 -11
-11 0 6 8 -2 -8 -12 -12
-10 -2 5 7 -3 -9 -13 -13
-9 0 6 7 -3 -9 -13 -12
-9 0 6 7 -3 -9 -13 -11
-8 1 7 7 -3 -9 -13 -11
-8 1 7 7 -3 -9 -13 -10
-7 2 8 6 -4 -9 -12 -9
-8 1 8 6 -4 -9 -12 -10
-9 0 7 7 -4 -9 -12 -10
-9 0 7 7 -4 -9 -12 -11
-10 -2 7 7 -4 -9 -12 -11
-11 -3 6 8 -4 -9 -13 -12
-12 -3 6 8 -4 -9 -13 -11
-13 -3 7 8 -3 -9 -12 -10
-13 -3 7 8 -3 -9 -12 -10
-14 -3 7 8 -3 -9 -12 -9
-15 -2 8 8 -2 -8 -11 -8
-15 -3 8 8 -3 -9 -12 -9
-14 -3 8 8 -3 -9 -12 -9
-14 -4 8 8 -4 -10 -13 -10
-14 -4 8 8 -4 -10 -13 -10
-13 -5 7 8 -5 -11 -14 -11
-13 -5 7 8 -5 -11 -14 -11
-12 -4 7 8 -5 -11 -14 -11
-12 -4 7 8 -5 -11 -14 -11
-12 -4 7 8 -5 -11 -14 -11
-11 -3 7 7 -4 -11 -13 -11
-11 0 9 8 -3 -10 -12 -10
-11 1 10 9 -2 -9 -11 -10
-11 3 11 9 0 -8 -11 -9
-11 4 12 10 1 -7 -10 -9
-11 6 13 11 2 -6 -9 -8
-9 7 14 13 3 -5 -8 -7
-8 9 15 14 4 -4 -8 -6
-7 10 15 15 5 -4 -7 -5
-6 12 16 16 6 -3 -7 -4
-5 13 17 17 7 -2 -6 -3
-5 12 17 17 7 -2 -6 -3
-5 12 17 17 7 -2 -6 -3
-5 11 17 17 7 -2 -6 -3
-5 11 17 17 7 -2 -6 -3
-5 10 17 18 6 -3 -6 -4
-3 11 16 17 5 -4 -6 -4
0 12 15 16 4 -4 -7 -4
3 13 14 15 4 -5 -7 -4
5 14 13 14 3 -5 -7 -4
6 15 12 13 3 -5 -7 -5
5 15 12 14 4 -3 -6 -4
5 15 12 15 6 -2 -4 -4
4 15 12 16 7 1 -3 -3
4 15 12 17 9 3 0 -3
3 16 12 17 9 4 1 -2
3 15 11 15 7 2 -2 -2
3 14 10 14 6 1 -3 -2
3 14 10 12 4 -2 -4 -2
3 13 9 10 2 -3 -5 -2
4 12 7 8 0 -5 -6 -3
5 10 6 6 -2 -7 -8 -4
5 9 4 5 -4 -8 -9 -5
6 7 3 3 -5 -10 -10 -6
6 6 1 1 -7 -12 -11 -7
6 5 0 0 -8 -13 -12 -8
3 4 0 0 -8 -13 -13 -8
1 3 0 0 -8 -13 -13 -8
-2 3 0 0 -8 -13 -14 -8
-5 2 0 0 -8 -13 -14 -8
-6 0 1 0 -9 -14 -15 -7
-6 -3 1 0 -10 -15 -16 -9
-6 -5 1 0 -10 -15 -17 -10
-6 -7 1 0 -11 -16 -17 -11
-6 -9 1 0 -11 -16 -18 -12
-7 -10 0 -2 -12 -17 -19 -13
-9 -11 0 -3 -13 -18 -20 -13
-10 -12 1 -3 -13 -18 -20 -14
-11 -12 1 -4 -14 -19 -21 -14
-12 -13 1 -4 -14 -19 -21 -14
-13 -14 2 -5 -15 -20 -22 -15
-14 -14 2 -5 -15 -21 -22 -15
-15 -15 2 -5 -16 -22 -23 -16
-15 -16 2 -5 -17 -22 -23 -16
-16 -16 2 -5 -17 -23 -23 -16
-17 -17 1 -6 -18 -24 -24 -17
-17 -17 1 -6 -18 -24 -24 -17
-17 -17 1 -6 -18 -24 -24 -18
-17 -17 1 -6 -18 -24 -24 -18
-17 -17 1 -6 -18 -24 -24 -18
-18 -17 1 -6 -18 -24 -24 -19
-18 -17 1 -6 -18 -24 -24 -19
-18 -18 1 -6 -18 -24 -25 -19
-18 -18 1 -6 -18 -24 -25 -19
-18 -18 1 -6 -18 -24 -25 -19
-19 -19 1 -7 -19 -25 -26 -19
-19 -19 1 -7 -19 -25 -26 -19
-18 -19 1 -7 -19 -25 -26 -20
-18 -19 1 -7 -19 -25 -26 -20
-18 -19 1 -7 -19 -25 -26 -20
-17 -19 1 -7 -18 -26 -26 -21
-17 -19 1 -7 -18 -26 -26 -21
-18 -20 1 -7 -19 -26 -26 -20
-18 -20 1 -7 -19 -26 -26 -20
-18 -20 1 -7 -19 -26 -26 -20
-19 -21 0 -7 -20 -25 -25 -19
-19 -21 0 -7 -20 -25 -25 -19
-20 -21 1 -7 -20 -25 -25 -19
-21 -21 1 -7 -20 -25 -25 -19
-21 -21 1 -7 -20 -25 -25 -19
-22 -21 2 -7 -19 -25 -25 -19
-21 -21 2 -7 -19 -25 -25 -19
-20 -21 1 -8 -19 -26 -26 -20
-19 -21 1 -8 -19 -26 -27 -20
-18 -21 1 -8 -19 -26 -27 -20
-17 -22 0 -9 -20 -27 -28 -21
-17 -22 0 -9 -20 -27 -28 -21
-18 -22 0 -9 -20 -27 -28 -21
-19 -22 0 -9 -20 -27 -28 -21
-19 -22 0 -9 -20 -27 -28 -21
-19 -22 4 -2 -14 -22 -25 -22
-17 -19 11 10 -3 -14 -20 -22
-14 -16 17 21 9 -6 -16 -21
-12 -13 24 33 20 3 -12 -21
-9 -11 31 45 31 11 -7 -21
0 -4 35 56 46 26 6 -13
11 5 36 66 63 47 23 1
23 13 38 76 79 68 39 14
35 21 39 87 97 89 57 26
47 29 42 98 113 109 73 39
52 43 45 104 129 133 97 58
53 59 50 108 143 156 122 80
55 76 54 111 157 181 149 102
56 93 58 115 172 205 175 125
57 109 63 119 186 230 201 146
44 114 58 100 162 207 189 146
21 110 46 64 114 154 153 130
-3 105 33 28 66 100 116 114
-26 101 21 -7 18 47 80 98
-50 97 9 -43 -30 -7 44 81
-62 81 -10 -72 -64 -43 15 63
-67 58 -31 -99 -89 -67 -10 43
-73 34 -53 -126 -112 -91 -33 22
-78 12 -74 -152 -137 -115 -58 2
-83 -12 -96 -179 -160 -139 -81 -19
-82 -24 -103 -183 -166 -146 -92 -29
-74 -30 -99 -172 -160 -141 -92 -34
-67 -35 -95 -161 -153 -136 -93 -39
-59 -41 -90 -150 -146 -131 -93 -44
-51 -47 -86 -140 -139 -126 -93 -49
-46 -48 -77 -124 -127 -116 -89 -49
-40 -43 -67 -107 -111 -103 -79 -46
-36 -38 -56 -91 -95 -91 -71 -41
-32 -33 -46 -73 -79 -77 -62 -38
-27 -28 -35 -56 -64 -64 -53 -34
-25 -26 -28 -46 -54 -57 -48 -32
-24 -25 -24 -40 -49 -52 -44 -30
-23 -24 -20 -34 -44 -48 -40 -28
-22 -23 -15 -28 -38 -44 -37 -27
-21 -22 -11 -23 -33 -38 -34 -25
-20 -21 -9 -20 -31 -36 -32 -24
-20 -21 -9 -19 -30 -35 -32 -24
-20 -22 -8 -18 -29 -34 -31 -24
-20 -22 -7 -17 -29 -33 -30 -24
-20 -22 -7 -16 -28 -32 -30 -24
-19 -23 -6 -15 -27 -31 -29 -23
-18 -23 -6 -14 -26 -31 -29 -23
-17 -22 -5 -13 -25 -30 -28 -23
-17 -22 -5 -13 -25 -29 -28 -23
-16 -22 -5 -12 -24 -29 -28 -23
-15 -21 -4 -11 -23 -28 -27 -22
-14 -21 -4 -11 -23 -28 -27 -22
-13 -20 -4 -12 -23 -28 -27 -22
-12 -19 -4 -12 -23 -28 -27 -22
-11 -19 -4 -12 -23 -28 -27 -22
-10 -18 -5 -13 -22 -28 -27 -22
-10 -18 -5 -12 -21 -26 -25 -21
-10 -17 -4 -11 -20 -25 -24 -20
-10 -17 -3 -11 -20 -23 -22 -20
-10 -17 -3 -10 -19 -22 -21 -19
-10 -16 -2 -9 -18 -21 -20 -18
-8 -16 -3 -9 -18 -21 -20 -18
-6 -16 -4 -10 -18 -22 -20 -19
-4 -16 -5 -10 -18 -22 -20 -19
-2 -16 -6 -10 -18 -22 -20 -19
0 -15 -7 -11 -19 -23 -21 -20
0 -15 -7 -11 -19 -22 -20 -19
-2 -14 -6 -10 -18 -21 -19 -18
-3 -14 -6 -10 -17 -20 -19 -18
-3 -14 -6 -10 -17 -19 -18 -17
-4 -13 -5 -9 -16 -18 -17 -16
-3 -13 -5 -9 -16 -18 -17 -16
-2 -13 -6 -9 -15 -18 -17 -16
-2 -13 -6 -9 -15 -18 -17 -16
0 -13 -6 -9 -15 -18 -17 -16
1 -12 -7 -9 -14 -17 -16 -15
1 -12 -7 -9 -13 -15 -14 -14
2 -11 -7 -8 -12 -13 -13 -12
3 -10 -7 -8 -11 -12 -12 -11
3 -10 -7 -8 -10 -10 -10 -10
5 -9 -6 -7 -9 -9 -9 -9
7 -9 -7 -7 -9 -8 -8 -9
9 -8 -8 -7 -8 -7 -7 -9
11 -8 -9 -7 -8 -6 -7 -9
13 -8 -10 -7 -8 -5 -6 -9
14 -7 -11 -6 -6 -3 -4 -7
14 -5 -11 -5 -4 1 -2 -5
15 -4 -11 -4 0 3 1 -3
15 -3 -11 -3 2 6 3 0
15 0 -11 -2 4 8 6 3
18 1 -11 0 6 11 8 4
22 2 -12 0 7 13 9 4
26 4 -14 0 9 15 11 4
30 5 -16 0 10 17 13 4
35 6 -18 0 11 19 15 4
37 8 -19 -2 13 22 17 5
38 9 -19 0 16 25 20 7
39 11 -20 1 18 29 23 10
39 13 -20 2 21 32 26 12
40 15 -20 3 23 36 29 14
43 16 -21 4 26 39 32 17
46 18 -21 4 28 43 35 19
49 20 -22 5 30 45 38 22
52 22 -22 5 32 48 40 24
55 24 -22 5 34 50 44 26
57 25 -23 6 35 52 46 28
59 27 -23 6 36 54 48 30
61 29 -23 7 37 56 50 31
62 31 -23 8 37 58 51 32
64 33 -23 8 38 60 53 34
65 34 -23 9 39 61 54 35
65 34 -23 9 39 61 54 35
65 34 -23 9 40 61 55 36
65 34 -23 9 42 61 55 36
65 34 -23 9 42 61 55 36
65 35 -24 9 43 62 56 37
64 36 -22 9 43 62 57 38
63 37 -21 10 43 63 58 40
63 37 -20 11 43 63 59 42
62 38 -18 11 43 63 60 43
61 39 -17 12 44 64 61 44
59 39 -17 12 43 62 59 43
57 38 -16 12 42 61 57 42
56 38 -16 12 42 60 56 42
54 38 -16 12 40 58 54 40
52 37 -14 13 39 57 53 39
49 36 -12 13 39 55 51 38
46 35 -10 14 38 54 50 37
43 35 -8 15 37 53 49 36
39 34 -6 15 37 51 47 35
36 33 -5 16 36 49 45 33
34 31 -4 16 34 46 42 31
32 29 -3 16 33 43 38 28
30 28 -3 16 32 40 36 25
28 26 -2 16 30 37 33 23
25 25 0 17 29 34 30 21
21 23 2 18 28 32 28 20
17 22 4 19 26 30 26 18
13 21 6 19 25 28 24 17
9 19 8 20 24 26 22 16
6 17 9 21 23 24 19 14
5 15 9 20 21 22 17 12
4 12 9 19 20 20 15 10
4 9 9 19 19 18 13 8
3 7 9 18 17 16 11 6
1 5 8 17 16 14 9 5
-2 5 8 17 15 12 7 3
-4 4 9 16 13 10 6 2
-6 3 9 15 12 9 5 1
-8 3 9 15 11 7 3 -2
-9 2 10 14 10 6 2 -3
-9 0 9 13 9 4 0 -5
-9 -2 8 12 7 2 -3 -6
-9 -3 8 12 6 1 -4 -7
-9 -5 7 11 5 -2 -6 -9
-9 -6 6 10 4 -3 -7 -10
-11 -6 6 10 4 -3 -7 -10
-13 -6 6 10 4 -3 -7 -10
-14 -6 6 10 4 -3 -7 -10
-16 -6 6 10 4 -3 -7 -10
-17 -6 7 9 4 -3 -7 -11
-17 -6 7 8 3 -4 -8 -11
-16 -7 6 7 1 -6 -10 -12
-15 -7 5 6 0 -7 -11 -12
-15 -7 5 5 -2 -8 -12 -12
-14 -8 4 4 -3 -9 -13 -13
-14 -8 4 4 -3 -9 -13 -13
-14 -8 4 4 -3 -9 -13 -13
-15 -8 4 4 -3 -9 -12 -13
-15 -8 4 4 -3 -9 -12 -13
-16 -8 5 4 -3 -8 -11 -13
-15 -8 5 4 -3 -8 -11 -13
-15 -8 5 4 -4 -8 -12 -13
-14 -8 5 4 -5 -9 -13 -13
-13 -8 5 4 -5 -9 -13 -13
-12 -9 4 4 -6 -10 -14 -14
-13 -9 5 4 -5 -9 -13 -13
-13 -9 6 5 -4 -8 -12 -12
-14 -9 7 6 -2 -7 -11 -11
-15 -9 8 6 0 -6 -10 -10
-16 -9 9 7 1 -5 -9 -9
-16 -9 9 7 1 -5 -9 -9
-15 -9 8 7 1 -6 -9 -9
-14 -9 7 6 0 -7 -10 -9
-14 -9 7 6 0 -7 -10 -9
-13 -9 6 5 -2 -8 -11 -10
-13 -9 6 5 -2 -8 -11 -10
-13 -8 6 5 -2 -8 -11 -10
-13 -7 7 6 -2 -8 -11 -11
-13 -7 7 6 -2 -8 -11 -11
-12 -6 8 7 -3 -9 -10 -12
-12 -6 8 7 -3 -9 -10 -12
-12 -6 8 7 -3 -9 -10 -12
-13 -6 8 7 -3 -8 -10 -12
-13 -6 8 7 -3 -8 -10 -12
-14 -6 7 7 -2 -7 -11 -11
-12 -4 9 9 0 -6 -10 -10
-11 -2 10 10 1 -6 -10 -9
-10 1 11 11 3 -5 -9 -8
-8 3 13 13 4 -4 -8 -7
-7 5 14 14 5 -3 -7 -6
-6 6 15 15 6 -2 -6 -6
-5 7 15 16 7 0 -5 -5
-4 9 16 18 9 1 -4 -4
-3 10 17 19 10 2 -3 -4
-2 11 18 20 11 3 -2 -3
-2 11 18 20 11 3 -2 -3
0 11 18 20 11 3 -2 -3
1 11 18 19 10 2 -2 -3
1 11 18 19 10 2 -2 -3
2 10 17 18 9 1 -3 -3
2 10 17 18 9 1 -3 -3
2 10 16 17 9 1 -3 -3
2 10 15 16 8 1 -3 -3
2 10 15 16 8 1 -3 -3
3 9 14 15 7 1 -3 -2
4 11 14 15 8 2 -2 0
5 12 14 16 9 2 0 0
7 14 14 17 11 3 1 1
8 16 14 17 12 4 2 2
9 17 13 17 12 5 3 3
9 15 11 15 10 3 1 2
9 13 9 13 7 1 -2 1
9 11 7 10 5 -2 -4 -2
9 9 5 8 2 -4 -6 -3
9 7 3 6 0 -6 -8 -4
8 6 3 5 -2 -7 -8 -4
8 6 3 5 -2 -7 -8 -5
7 5 3 4 -3 -8 -8 -6
6 4 3 3 -4 -9 -8 -6
5 3 2 2 -5 -10 -9 -7
3 1 2 2 -5 -10 -9 -7
1 0 3 2 -5 -10 -9 -7
-2 -3 4 3 -5 -11 -9 -8
-4 -5 4 3 -5 -11 -9 -8
-6 -6 5 4 -5 -12 -10 -9
-6 -7 5 3 -6 -12 -11 -10
-6 -8 5 2 -7 -12 -11 -10
-6 -10 4 0 -9 -13 -12 -11
-6 -11 4 -2 -10 -13 -13 -12
-7 -12 3 -3 -11 -14 -14 -13
-8 -13 3 -3 -11 -15 -16 -14
-9 -13 3 -3 -12 -16 -17 -14
-10 -14 3 -4 -13 -17 -18 -15
-11 -15 3 -4 -13 -18 -20 -16
-12 -16 2 -5 -14 -19 -21 -17
-13 -17 2 -5 -14 -19 -21 -17
-14 -17 2 -5 -14 -19 -21 -17
-16 -18 2 -5 -14 -19 -20 -17
-17 -19 2 -5 -14 -19 -20 -17
-18 -20 3 -5 -14 -20 -19 -17
-18 -20 3 -5 -14 -20 -19 -17
-18 -20 3 -5 -15 -20 -20 -17
-18 -20 3 -5 -16 -20 -21 -17
-18 -20 3 -5 -16 -20 -21 -17
-19 -21 2 -6 -17 -21 -22 -18
-19 -21 2 -6 -17 -21 -22 -18
-19 -21 2 -6 -17 -22 -22 -18
-18 -21 2 -6 -17 -23 -23 -18
-18 -21 2 -6 -17 -23 -23 -18
-17 -22 2 -7 -18 -24 -24 -19
-17 -22 2 -7 -18 -24 -24 -19
-17 -22 2 -7 -18 -24 -24 -19
-18 -22 2 -7 -18 -24 -25 -19
-18 -22 2 -7 -18 -24 -25 -19
-19 -22 2 -8 -18 -25 -26 -20
-19 -22 2 -8 -18 -25 -26 -20
-19 -22 2 -8 -18 -25 -26 -20
-19 -22 2 -8 -18 -25 -26 -20
-19 -22 2 -8 -18 -25 -26 -20
-20 -23 2 -7 -18 -25 -25 -21
-20 -23 2 -7 -18 -25 -25 -21
-20 -23 2 -7 -18 -25 -25 -21
-20 -23 2 -8 -18 -25 -25 -22
-20 -23 2 -8 -18 -25 -25 -22
-21 -23 1 -9 -19 -26 -26 -23
-21 -23 1 -9 -19 -26 -26 -23
-21 -23 1 -9 -19 -26 -26 -23
-21 -23 1 -9 -19 -26 -26 -23
-21 -23 1 -9 -19 -26 -26 -23
-21 -22 2 -9 -19 -26 -26 -22
-21 -22 2 -8 -18 -26 -26 -23
-21 -22 2 -6 -18 -26 -26 -23
-21 -23 2 -5 -17 -27 -27 -24
-21 -23 2 -3 -16 -27 -27 -25
-19 -23 3 3 -11 -24 -26 -25
-16 -19 10 13 2 -14 -20 -21
-12 -15 17 24 13 -4 -14 -18
-9 -11 24 35 25 7 -8 -14
-6 -7 31 46 37 17 -2 -11
3 0 36 56 51 32 10 -4
17 8 36 66 67 54 29 10
31 16 36 76 85 76 48 22
45 24 37 86 101 98 67 35
59 33 37 96 118 120 86 48
67 45 39 102 130 139 106 64
63 61 45 102 135 152 129 85
60 78 50 102 140 167 150 105
56 95 54 102 144 181 173 127
53 112 59 102 149 194 194 147
40 117 57 89 134 182 191 152
15 104 44 52 86 126 146 129
-10 91 29 15 37 68 101 105
-35 77 16 -21 -11 12 56 82
-60 64 3 -58 -59 -45 11 59
-76 49 -14 -88 -94 -85 -23 38
-77 30 -32 -109 -110 -98 -39 21
-79 12 -51 -130 -126 -111 -56 4
-80 -8 -69 -151 -141 -124 -72 -13
-82 -26 -88 -172 -156 -138 -90 -30
-81 -38 -98 -180 -163 -145 -99 -41
-74 -41 -91 -165 -153 -137 -96 -44
-67 -44 -85 -150 -143 -130 -93 -46
-60 -46 -77 -136 -133 -121 -90 -48
-53 -48 -71 -120 -123 -114 -86 -49
-47 -49 -63 -106 -112 -105 -81 -50
-43 -44 -54 -93 -99 -95 -74 -46
-38 -38 -46 -78 -86 -83 -67 -41
-34 -33 -36 -65 -72 -73 -61 -38
-30 -28 -27 -51 -59 -62 -54 -34
-27 -24 -20 -40 -50 -54 -49 -31
-25 -24 -17 -36 -47 -51 -46 -31
-24 -24 -14 -32 -43 -48 -44 -30
-22 -24 -11 -28 -39 -45 -41 -29
-21 -24 -8 -24 -36 -41 -39 -29
-19 -23 -6 -21 -33 -39 -37 -28
-18 -23 -6 -21 -33 -39 -37 -28
-17 -23 -6 -21 -32 -39 -37 -28
-16 -23 -6 -21 -31 -38 -37 -28
-15 -23 -6 -21 -31 -38 -37 -28
-14 -24 -6 -20 -30 -37 -36 -27
-15 -24 -5 -19 -29 -36 -35 -26
-15 -24 -4 -17 -28 -35 -34 -25
-16 -23 -2 -16 -26 -33 -32 -24
-17 -23 0 -14 -25 -32 -31 -23
-18 -22 1 -13 -24 -31 -30 -22
-17 -22 1 -13 -24 -31 -30 -22
-16 -22 0 -14 -25 -31 -30 -22
-15 -22 -2 -15 -26 -31 -30 -23
-14 -22 -2 -15 -26 -31 -30 -23
-13 -21 -3 -16 -27 -32 -31 -24
-13 -20 -3 -15 -27 -32 -31 -24
-13 -20 -3 -15 -26 -31 -30 -24
-13 -19 -3 -14 -25 -30 -29 -23
-13 -18 -3 -13 -25 -30 -29 -23
-14 -17 -3 -12 -24 -29 -28 -22
-13 -17 -3 -12 -24 -29 -28 -22
-12 -17 -3 -13 -24 -29 -28 -22
-11 -17 -3 -14 -24 -29 -28 -22
-10 -17 -3 -14 -24 -29 -28 -22
-9 -18 -4 -15 -25 -30 -28 -23
-9 -17 -4 -15 -25 -30 -27 -23
-8 -17 -4 -15 -25 -29 -27 -22
-7 -16 -5 -15 -25 -28 -26 -21
-7 -15 -5 -15 -25 -28 -25 -21
-6 -14 -6 -14 -24 -27 -24 -20
-5 -14 -6 -14 -24 -27 -24 -20
-4 -14 -6 -14 -23 -27 -24 -19
-3 -13 -6 -14 -22 -26 -23 -18
-2 -13 -6 -14 -22 -26 -23 -18
0 -12 -7 -14 -21 -25 -22 -17
1 -12 -7 -14 -20 -24 -21 -17
2 -12 -7 -14 -19 -22 -21 -17
3 -11 -8 -14 -17 -21 -20 -16
4 -11 -8 -14 -16 -19 -19 -16
5 -10 -9 -13 -15 -18 -18 -15
7 -9 -10 -13 -15 -17 -18 -15
8 -8 -10 -13 -15 -15 -17 -15
10 -7 -11 -13 -14 -14 -16 -15
11 -6 -12 -13 -14 -12 -16 -15
13 -5 -13 -12 -13 -11 -15 -14
15 -4 -13 -12 -11 -9 -13 -13
18 -3 -13 -12 -10 -7 -11 -11
20 -2 -13 -11 -8 -5 -9 -10
22 0 -13 -11 -7 -4 -8 -8
24 1 -14 -10 -5 -2 -6 -7
26 2 -14 -9 -3 2 -3 -5
29 3 -15 -8 0 5 0 -4
31 4 -15 -7 2 8 2 -2
33 6 -16 -6 4 11 5 0
35 7 -17 -5 6 13 7 2
38 9 -18 -5 7 16 10 4
42 11 -19 -5 9 18 12 6
44 12 -20 -5 10 20 14 8
47 14 -22 -5 12 23 17 10
50 16 -23 -4 13 25 19 12
54 18 -23 -4 15 27 21 13
57 21 -24 -4 16 30 24 15
61 23 -24 -4 18 32 26 16
65 25 -25 -4 19 34 28 18
68 27 -26 -4 21 36 30 19
68 28 -26 -4 22 38 32 21
68 29 -26 -4 23 40 34 24
69 30 -26 -3 24 42 36 26
69 31 -26 -3 26 44 38 28
70 32 -25 -2 27 46 40 30
70 33 -25 0 27 47 40 30
70 35 -24 1 27 47 42 31
69 36 -24 2 28 48 42 31
69 38 -23 3 28 49 43 32
68 39 -22 4 29 50 44 33
68 39 -22 4 29 50 44 33
68 39 -22 4 29 50 44 33
68 40 -21 4 29 49 44 33
68 40 -21 4 29 49 44 33
68 42 -20 5 29 48 43 33
65 40 -19 5 29 47 43 33
62 39 -18 6 29 46 42 33
58 38 -17 6 29 45 42 33
55 36 -15 7 29 44 40 33
52 35 -14 8 28 43 39 32
49 35 -12 9 28 42 37 31
46 35 -10 10 28 40 35 30
43 34 -9 11 27 39 34 29
39 34 -7 13 27 37 32 28
36 33 -5 14 26 36 30 27
35 31 -4 14 25 33 28 25
33 29 -2 14 23 30 26 23
32 28 0 15 22 27 24 21
30 26 2 15 20 24 22 19
28 24 3 16 19 22 20 17
25 22 4 16 19 21 18 15
21 21 6 16 18 20 16 13
18 19 7 17 18 19 14 12
14 18 9 17 17 18 12 10
11 16 10 18 16 17 10 8
9 14 10 18 15 14 8 6
8 12 10 17 14 12 5 5
6 11 10 17 13 9 3 3
5 9 10 16 11 6 1 2
3 7 10 15 10 4 -2 0
3 6 10 14 8 2 -4 -3
2 6 10 12 5 0 -6 -4
2 5 10 11 3 -3 -7 -6
1 4 10 9 1 -5 -9 -7
0 3 9 8 -2 -7 -11 -9
-4 3 9 8 -2 -7 -11 -9
-6 2 9 8 -2 -7 -12 -9
-8 2 8 8 -2 -8 -12 -10
-11 1 8 8 -2 -8 -13 -10
-13 0 7 9 -2 -9 -14 -11
-13 0 7 8 -3 -10 -14 -11
-13 -2 7 7 -4 -10 -15 -11
-12 -2 7 6 -5 -11 -15 -11
-12 -3 7 4 -6 -12 -16 -11
-11 -4 6 3 -7 -13 -17 -11
-11 -4 6 3 -7 -13 -17 -11
-11 -4 6 3 -7 -13 -17 -11
-10 -5 6 2 -8 -14 -17 -12
-10 -5 6 2 -8 -14 -17 -12
-9 -6 5 1 -9 -15 -18 -13
-9 -6 5 1 -9 -15 -18 -13
-9 -6 5 1 -9 -15 -18 -13
-9 -5 5 1 -9 -15 -19 -13
-9 -5 5 1 -9 -15 -19 -13
-10 -4 6 1 -9 -16 -20 -13
-10 -4 6 1 -9 -16 -19 -13
-10 -5 6 1 -9 -15 -18 -13
-9 -5 6 2 -8 -15 -17 -12
-9 -6 6 2 -8 -14 -16 -12
-8 -7 6 3 -7 -13 -15 -11
-9 -7 6 3 -7 -13 -15 -11
-9 -7 6 3 -7 -13 -15 -11
-10 -7 6 2 -7 -14 -15 -11
-11 -7 6 2 -7 -14 -15 -11
-12 -7 6 1 -8 -15 -15 -12
-12 -7 6 1 -8 -15 -15 -12
-12 -7 6 1 -8 -15 -15 -12
-12 -7 6 1 -8 -15 -16 -12
-12 -7 6 1 -8 -15 -16 -12
-12 -7 5 2 -9 -14 -17 -12
-12 -7 5 2 -9 -14 -17 -12
-12 -7 5 2 -9 -14 -17 -12
-12 -7 5 2 -8 -14 -17 -13
-12 -7 5 2 -8 -14 -17 -13
-13 -6 6 3 -7 -15 -17 -14
-13 -6 7 4 -6 -14 -17 -14
-12 -5 8 5 -5 -14 -17 -14
-12 -5 9 6 -4 -13 -16 -14
-11 -4 11 8 -3 -12 -16 -14
-10 -3 12 9 -2 -11 -15 -13
-9 0 13 10 -2 -10 -14 -12
-8 2 14 11 0 -9 -12 -11
-7 3 15 12 1 -8 -11 -10
-6 5 16 13 2 -6 -10 -8
-5 7 17 14 3 -5 -8 -7
-4 7 17 14 3 -5 -8 -7
-3 7 16 14 3 -5 -9 -7
-2 7 16 14 2 -5 -9 -7
1 7 15 14 2 -5 -10 -7
2 7 14 13 1 -6 -11 -6
1 7 14 13 1 -6 -11 -6
-2 6 14 13 1 -6 -11 -6
-3 6 14 13 1 -6 -11 -5
-4 5 14 13 1 -6 -11 -5
-6 4 14 12 2 -6 -10 -4
-5 5 14 12 2 -6 -9 -3
-3 6 14 12 3 -5 -7 -2
-2 7 13 12 3 -5 -6 0
0 8 13 12 4 -4 -5 2
2 9 12 12 5 -3 -3 3
4 10 12 12 4 -3 -3 3
6 11 11 12 3 -3 -4 3
7 12 10 11 2 -3 -4 2
9 13 9 11 1 -3 -5 2
11 14 8 10 0 -4 -6 1
11 12 7 8 -2 -6 -7 0
10 9 6 6 -4 -8 -8 -2
9 7 5 4 -5 -9 -9 -3
8 4 3 2 -6 -11 -11 -4
7 2 2 0 -8 -13 -12 -5
6 1 2 0 -8 -13 -12 -5
5 0 2 -2 -9 -14 -13 -5
4 -2 1 -2 -9 -14 -14 -6
2 -3 1 -3 -10 -15 -15 -6
1 -4 0 -4 -11 -16 -16 -7
0 -4 0 -4 -11 -16 -16 -8
-2 -5 0 -4 -11 -17 -17 -9
-3 -5 0 -4 -12 -17 -17 -10
-4 -6 0 -4 -12 -18 -18 -11
-5 -7 1 -5 -13 -19 -19 -12
-7 -9 1 -5 -13 -19 -19 -12
-9 -10 1 -5 -14 -19 -19 -13
-11 -12 2 -5 -14 -20 -20 -14
-13 -14 2 -5 -15 -20 -20 -15
-15 -16 3 -6 -16 -21 -21 -16
-15 -16 3 -6 -16 -21 -21 -16
-15 -16 3 -6 -16 -21 -22 -16
-15 -16 2 -7 -17 -22 -22 -16
-15 -16 2 -7 -17 -22 -23 -16
-15 -17 1 -8 -18 -23 -24 -17
-15 -17 1 -8 -18 -23 -24 -17
-15 -18 1 -8 -18 -23 -24 -17
-15 -18 1 -8 -18 -23 -24 -17
-15 -19 1 -8 -18 -23 -24 -17
-16 -20 2 -7 -17 -24 -23 -16
-16 -20 2 -7 -17 -24 -23 -16
-16 -20 2 -7 -18 -24 -23 -17
-16 -20 2 -7 -18 -24 -23 -17
-16 -20 2 -7 -19 -24 -23 -18
-16 -20 2 -8 -20 -25 -24 -19
-16 -20 2 -8 -20 -25 -24 -19
-16 -20 2 -8 -20 -25 -24 -19
-16 -21 2 -8 -20 -25 -25 -19
-16 -21 2 -8 -20 -25 -25 -19
-17 -22 3 -8 -20 -25 -26 -20
-17 -22 3 -8 -20 -25 -26 -20
-17 -22 3 -8 -20 -25 -26 -20
-17 -21 2 -8 -19 -24 -25 -19
-17 -21 2 -8 -19 -24 -25 -19
-16 -20 1 -7 -18 -23 -24 -18
-16 -20 1 -7 -18 -23 -24 -18
-16 -20 1 -7 -18 -23 -24 -18
-17 -20 1 -7 -18 -23 -24 -18
-17 -20 1 -7 -18 -23 -24 -18
-18 -21 2 -8 -19 -24 -25 -18
-18 -21 2 -8 -19 -24 -25 -18
-18 -22 2 -8 -19 -24 -25 -18
-18 -22 2 -8 -19 -24 -25 -18
-18 -23 2 -8 -19 -24 -25 -18
-18 -24 2 -8 -20 -25 -26 -19
-18 -24 2 -8 -20 -25 -26 -19
-18 -24 2 -7 -19 -24 -26 -19
-19 -23 3 -7 -18 -23 -25 -19
-19 -23 3 -6 -17 -22 -25 -19
-20 -22 4 -4 -15 -20 -24 -19
-19 -21 9 5 -7 -14 -21 -18
-18 -19 14 14 2 -8 -18 -16
-17 -18 19 22 10 -2 -14 -15
-15 -17 24 31 18 5 -11 -14
-12 -14 29 39 27 14 -6 -11
0 -8 29 49 43 31 10 -2
12 0 30 58 58 49 24 8
23 7 31 66 72 67 39 17
35 14 32 75 88 85 54 26
46 22 33 85 104 104 71 37
51 38 39 95 121 132 100 61
56 55 46 104 140 159 128 85
61 71 51 114 157 187 155 108
66 87 57 125 176 215 184 132
67 101 62 129 185 231 203 150
43 100 57 102 147 188 175 144
19 98 53 74 108 145 146 138
-5 96 48 48 70 101 117 132
-28 95 43 21 32 58 90 126
-50 90 35 -8 -5 17 61 115
-58 71 15 -39 -35 -14 32 89
-67 53 -7 -71 -65 -45 3 63
-75 34 -28 -103 -95 -75 -26 36
-83 16 -49 -135 -126 -106 -55 10
-91 -2 -67 -161 -151 -133 -79 -14
-83 -14 -72 -161 -151 -133 -83 -22
-75 -25 -77 -161 -151 -133 -88 -30
-67 -37 -82 -161 -152 -134 -92 -38
-60 -49 -87 -161 -152 -134 -96 -48
-53 -59 -91 -157 -151 -133 -99 -55
-48 -54 -79 -138 -134 -118 -90 -51
-44 -49 -67 -117 -116 -104 -80 -46
-39 -44 -56 -97 -99 -90 -70 -41
-34 -39 -45 -76 -81 -75 -61 -37
-30 -34 -34 -58 -65 -63 -53 -33
-27 -32 -28 -51 -58 -56 -49 -31
-24 -29 -23 -43 -51 -50 -44 -28
-22 -27 -17 -35 -44 -44 -39 -26
-19 -25 -12 -27 -36 -37 -35 -24
-16 -22 -7 -20 -29 -31 -31 -21
-16 -22 -7 -19 -28 -30 -31 -21
-16 -22 -6 -18 -26 -29 -30 -20
-16 -23 -6 -17 -25 -28 -29 -20
-16 -23 -5 -16 -24 -27 -28 -19
-15 -24 -4 -15 -22 -26 -27 -18
-15 -24 -4 -13 -21 -25 -27 -18
-15 -24 -3 -12 -20 -24 -26 -18
-15 -23 -2 -10 -19 -23 -25 -18
-15 -23 0 -8 -18 -22 -24 -18
-14 -22 1 -6 -17 -20 -23 -17
-14 -22 1 -6 -17 -20 -23 -17
-14 -22 1 -6 -17 -20 -23 -16
-13 -22 1 -6 -17 -20 -23 -16
-13 -22 1 -6 -17 -20 -23 -15
-12 -21 0 -7 -16 -19 -22 -14
-12 -21 0 -7 -16 -19 -22 -14
-12 -21 0 -7 -16 -19 -21 -14
-11 -21 0 -7 -16 -19 -21 -14
-11 -21 0 -7 -16 -19 -20 -14
-10 -21 1 -8 -17 -19 -19 -14
-10 -21 1 -8 -17 -19 -19 -14
-9 -21 0 -8 -17 -19 -19 -15
-8 -20 0 -8 -17 -18 -19 -15
-7 -20 -2 -8 -17 -18 -19 -16
-6 -19 -3 -9 -16 -17 -19 -17
-6 -19 -3 -9 -15 -16 -18 -16
-5 -19 -3 -8 -14 -15 -17 -15
-5 -19 -2 -7 -13 -14 -16 -13
-4 -19 -2 -6 -12 -13 -15 -12
-3 -19 0 -5 -10 -11 -13 -10
-3 -19 0 -5 -10 -11 -13 -10
-2 -19 -2 -6 -10 -11 -13 -10
-2 -18 -3 -6 -10 -11 -13 -10
0 -18 -4 -7 -10 -11 -13 -10
1 -17 -5 -8 -10 -10 -12 -9
2 -17 -5 -8 -10 -9 -11 -8
3 -16 -5 -8 -9 -8 -10 -7
5 -15 -5 -7 -8 -7 -8 -6
6 -14 -5 -7 -7 -6 -7 -5
8 -13 -5 -6 -6 -4 -5 -4
8 -13 -6 -6 -6 -3 -5 -4
8 -12 -7 -6 -6 -2 -5 -4
9 -12 -8 -6 -5 0 -4 -4
9 -11 -9 -6 -5 1 -4 -4
10 -10 -10 -7 -4 2 -3 -4
12 -10 -10 -6 -2 5 0 -2
13 -9 -10 -5 1 7 3 1
15 -9 -11 -4 3 10 5 3
17 -8 -11 -3 6 13 7 5
19 -7 -12 -2 8 16 10 7
22 -6 -12 -2 9 18 12 8
25 -4 -13 -2 10 20 14 9
28 -3 -13 -2 12 22 16 10
32 0 -14 -2 13 25 18 11
35 2 -15 -2 15 27 20 13
38 4 -16 -2 17 30 23 14
40 6 -17 0 19 33 26 16
44 8 -18 1 21 36 29 17
47 11 -19 2 23 40 32 19
50 13 -21 3 25 44 35 21
51 13 -21 3 26 47 37 24
53 14 -22 3 28 49 40 27
54 14 -22 3 30 52 44 30
56 15 -23 3 32 55 46 33
58 16 -24 2 34 58 49 36
59 18 -24 3 35 60 51 37
60 20 -24 4 36 63 54 38
62 22 -24 6 38 65 56 40
63 24 -24 7 39 67 58 42
65 26 -24 9 42 70 61 44
65 26 -24 9 42 70 61 44
65 27 -24 9 43 70 61 44
65 28 -24 9 44 71 62 44
65 29 -24 9 45 71 62 44
64 30 -24 10 46 72 63 44
64 31 -24 10 46 72 63 45
64 32 -23 10 46 72 63 46
64 34 -22 11 46 72 63 47
64 35 -21 11 46 72 63 48
63 37 -20 12 46 73 64 49
61 36 -19 12 46 73 64 49
59 35 -18 12 46 72 64 48
57 34 -17 12 46 72 64 48
55 33 -16 12 46 71 64 47
53 31 -14 13 45 70 63 46
52 31 -13 14 45 68 61 45
51 31 -11 15 44 65 59 44
49 31 -10 16 44 62 56 43
48 31 -8 17 43 60 54 42
46 30 -6 19 42 57 51 40
42 29 -6 19 40 54 48 38
37 28 -6 19 38 52 45 35
33 27 -6 19 37 49 42 33
29 26 -6 19 35 46 37 30
25 25 -5 19 33 43 34 27
22 24 -2 20 33 42 33 27
20 23 2 21 32 40 32 26
17 22 5 22 31 38 30 25
14 21 8 23 30 37 29 24
11 20 11 25 29 35 27 23
11 18 11 25 27 32 24 21
10 15 11 24 25 29 21 18
10 13 10 23 23 26 18 15
9 10 10 22 21 22 15 12
8 7 9 21 18 19 12 9
5 7 10 21 18 18 11 8
2 6 11 21 17 17 10 7
-2 5 12 21 17 16 8 5
-5 4 13 21 16 15 7 4
-8 3 14 21 15 13 5 2
-8 3 14 20 14 12 4 2
-8 2 13 19 13 10 3 1
-7 1 12 17 12 8 1 1
-7 0 11 16 11 6 0 0
-6 -2 10 14 10 4 -3 -2
-6 -2 10 14 9 4 -3 -2
-6 -2 10 13 8 3 -4 -2
-6 -3 9 13 7 3 -5 -3
-6 -3 9 12 6 2 -6 -3
-7 -4 8 11 4 1 -7 -4
-7 -4 8 11 4 0 -8 -4
-8 -5 8 10 3 -2 -9 -5
-9 -6 8 10 3 -3 -10 -5
-10 -7 8 9 2 -4 -11 -6
-11 -8 7 8 1 -6 -12 -7
-11 -8 7 8 1 -6 -12 -7
-11 -7 7 8 0 -6 -12 -8
-12 -7 7 7 0 -7 -12 -8
-12 -6 7 7 -2 -7 -12 -9
-13 -5 8 6 -3 -8 -12 -10
-13 -5 8 6 -3 -8 -12 -10
-14 -6 9 6 -3 -8 -12 -9
-14 -6 9 7 -3 -8 -11 -9
-15 -7 10 7 -3 -8 -11 -8
-16 -8 11 8 -3 -7 -10 -7
-15 -8 11 8 -3 -7 -10 -7
-14 -8 11 8 -3 -7 -10 -7
-13 -8 11 8 -3 -7 -10 -7
-12 -8 11 8 -3 -7 -10 -7
-10 -8 10 7 -3 -7 -11 -7
-10 -8 10 7 -3 -7 -11 -7
-10 -8 10 7 -3 -7 -11 -8
-11 -8 10 7 -4 -8 -12 -8
-11 -8 10 7 -4 -8 -12 -9
-12 -9 9 7 -5 -9 -13 -10
-12 -9 9 7 -5 -9 -13 -10
-13 -9 9 7 -5 -8 -12 -9
-13 -9 10 7 -4 -8 -11 -8
-14 -9 10 7 -4 -7 -10 -7
-15 -9 11 8 -3 -6 -9 -6
-15 -9 11 8 -3 -6 -9 -6
-14 -8 11 8 -2 -6 -9 -6
-13 -7 11 9 -2 -6 -9 -6
-12 -6 11 9 0 -6 -9 -6
-11 -5 11 10 1 -6 -9 -6
-10 -3 12 11 1 -5 -8 -6
-9 0 13 13 2 -4 -7 -5
-8 2 15 14 3 -3 -6 -5
-7 4 16 16 4 -2 -5 -4
-5 6 18 18 5 1 -3 -3
-5 6 18 18 5 1 -3 -3
-5 6 18 18 5 1 -3 -3
-5 6 17 17 5 1 -4 -3
-5 6 17 17 5 1 -4 -3
-5 6 16 16 5 0 -5 -3
-5 6 16 16 5 0 -5 -3
-5 7 16 16 5 0 -5 -3
-6 7 16 16 5 0 -5 -3
-6 8 16 16 5 0 -5 -3
-7 9 16 16 4 0 -4 -2
-5 9 16 16 4 0 -4 -2
-3 10 15 16 4 0 -3 0
0 10 15 16 4 0 -3 1
2 11 14 16 4 0 -2 2
5 12 13 15 5 1 0 3
5 12 13 15 5 1 0 3
6 12 13 15 5 1 0 3
7 12 13 15 5 1 0 3
8 12 13 15 5 1 0 3
9 13 12 14 5 1 -2 3
7 11 11 13 4 0 -3 2
5 9 10 11 2 -2 -4 1
3 7 9 9 0 -4 -5 0
1 5 8 7 -3 -5 -6 -2
-2 3 6 5 -5 -7 -7 -4
-2 3 6 5 -5 -7 -7 -4
-3 2 6 5 -5 -7 -7 -4
-3 2 6 5 -5 -7 -7 -4
-4 1 6 5 -5 -7 -7 -4
-4 1 6 5 -5 -7 -7 -4
-5 -2 7 4 -5 -8 -7 -5
-5 -4 7 3 -6 -10 -9 -6
-6 -6 6 2 -7 -12 -11 -7
-6 -8 6 1 -8 -14 -13 -8
-6 -10 6 1 -9 -15 -14 -9
-8 -12 5 0 -10 -16 -15 -10
-10 -13 5 0 -11 -17 -16 -11
-12 -14 5 0 -12 -17 -16 -11
-14 -15 5 0 -13 -18 -17 -12
-15 -16 5 0 -13 -18 -17 -12
-16 -17 5 -2 -14 -19 -18 -14
-16 -18 5 -3 -15 -20 -19 -15
-16 -18 5 -3 -16 -21 -20 -16
-16 -19 5 -4 -17 -22 -21 -17
-16 -19 5 -4 -18 -23 -22 -18
-17 -20 4 -5 -19 -24 -23 -19
-17 -20 4 -5 -19 -24 -23 -19
-17 -20 4 -5 -19 -24 -23 -19
-17 -20 4 -5 -19 -24 -23 -19
-17 -20 4 -5 -19 -24 -23 -19
-17 -19 4 -5 -18 -23 -23 -19
-17 -19 4 -5 -18 -24 -23 -19
-17 -19 3 -6 -19 -24 -24 -19
-17 -19 3 -6 -19 -25 -24 -19
-17 -19 3 -6 -19 -25 -24 -19
-16 -20 2 -7 -20 -26 -25 -19
-16 -20 2 -7 -20 -26 -25 -19
-16 -20 2 -7 -20 -26 -25 -20
-16 -20 2 -7 -20 -26 -25 -20
-16 -20 2 -7 -20 -26 -25 -20
-16 -20 2 -8 -20 -27 -26 -21
-16 -20 2 -8 -20 -27 -26 -21
-17 -20 2 -8 -21 -27 -26 -21
-17 -20 2 -8 -21 -27 -26 -21
-17 -20 2 -8 -21 -27 -26 -21
-18 -21 1 -8 -22 -27 -26 -21
-18 -22 1 -8 -22 -27 -26 -21
-18 -22 1 -7 -21 -27 -25 -21
-18 -23 1 -7 -21 -27 -25 -21
-18 -23 1 -7 -21 -27 -25 -21
-19 -24 1 -6 -20 -27 -24 -21
-20 -24 1 -6 -20 -27 -25 -21
-21 -24 1 -6 -20 -27 -25 -21
-22 -24 1 -6 -20 -27 -26 -21
-22 -24 1 -6 -20 -27 -26 -21
-23 -25 1 -7 -21 -28 -27 -22
-22 -25 1 -7 -21 -28 -26 -22
-22 -25 1 -7 -20 -27 -26 -22
-21 -25 1 -7 -20 -27 -25 -22
-21 -25 1 -7 -20 -27 -25 -22
-19 -24 6 1 -13 -22 -23 -22
-17 -24 10 8 -6 -18 -22 -22
-15 -24 14 15 2 -13 -21 -23
-13 -24 18 23 8 -9 -20 -23
-11 -24 22 30 15 -5 -19 -23
-2 -16 25 42 31 15 -3 -14
8 -8 28 53 49 35 15 -3
17 2 31 65 66 55 31 8
26 10 34 76 84 75 48 19
35 19 36 88 101 96 65 30
40 34 42 97 118 125 94 53
45 50 46 106 137 154 123 77
49 65 51 115 155 183 153 101
54 80 56 125 174 213 183 125
58 96 60 134 192 242 213 148
39 97 59 109 159 206 199 146
19 97 56 81 123 167 183 142
-2 98 53 55 87 127 165 137
-22 98 50 27 51 86 149 132
-43 98 48 0 15 46 132 128
-53 80 25 -33 -21 8 91 100
-62 61 3 -66 -56 -31 48 72
-72 42 -21 -100 -92 -69 4 44
-81 22 -44 -133 -127 -107 -39 15
-91 3 -67 -165 -161 -145 -82 -14
-87 -10 -74 -169 -164 -148 -89 -23
-79 -22 -80 -170 -164 -148 -92 -30
-73 -34 -87 -170 -164 -148 -96 -38
-66 -46 -93 -171 -164 -148 -100 -46
-60 -58 -99 -171 -164 -148 -103 -54
-54 -55 -90 -152 -148 -135 -95 -52
-49 -51 -77 -132 -131 -119 -86 -47
-43 -46 -66 -111 -112 -104 -75 -43
-36 -40 -55 -90 -94 -89 -65 -38
-31 -36 -43 -69 -76 -73 -55 -34
-29 -35 -36 -59 -67 -66 -51 -32
-28 -34 -30 -51 -59 -60 -47 -30
-27 -34 -24 -41 -51 -53 -43 -28
-26 -33 -18 -32 -43 -47 -38 -26
-25 -33 -12 -23 -34 -40 -34 -24
-23 -31 -11 -21 -32 -38 -32 -23
-21 -29 -10 -19 -30 -36 -31 -23
-19 -27 -9 -17 -28 -34 -30 -23
-17 -25 -8 -15 -26 -32 -29 -23
-16 -24 -8 -14 -25 -31 -28 -23
-15 -23 -6 -12 -24 -30 -27 -22
-15 -23 -5 -11 -23 -30 -26 -22
-16 -23 -4 -10 -22 -29 -26 -22
-16 -23 -3 -9 -21 -29 -25 -22
-16 -23 -2 -8 -20 -29 -25 -22
-17 -23 0 -7 -19 -28 -24 -21
-16 -23 -2 -8 -19 -28 -24 -21
-16 -23 -3 -9 -20 -27 -23 -21
-15 -23 -4 -10 -20 -27 -23 -21
-15 -23 -4 -10 -20 -27 -23 -21
-14 -23 -5 -11 -20 -25 -21 -20
-14 -22 -4 -10 -19 -24 -20 -19
-13 -22 -4 -9 -18 -23 -19 -18
-13 -21 -3 -8 -17 -22 -18 -17
-13 -21 -3 -7 -16 -21 -17 -16
-12 -20 -2 -6 -15 -20 -16 -15
-12 -20 -3 -6 -16 -20 -16 -15
-12 -20 -3 -7 -16 -21 -17 -16
-12 -20 -4 -7 -17 -21 -17 -16
-12 -20 -4 -7 -17 -21 -17 -16
-12 -20 -5 -8 -18 -22 -18 -17
-11 -20 -4 -7 -17 -21 -17 -16
-11 -20 -4 -7 -16 -20 -16 -16
-10 -20 -3 -6 -15 -19 -15 -15
-10 -20 -3 -6 -14 -19 -14 -15
-8 -19 -3 -5 -13 -18 -13 -14
-6 -19 -4 -6 -13 -18 -13 -14
-4 -19 -6 -7 -13 -17 -13 -13
-2 -19 -7 -8 -13 -17 -13 -13
1 -19 -8 -8 -13 -17 -13 -13
2 -19 -9 -9 -13 -15 -11 -12
2 -18 -9 -8 -12 -13 -9 -11
1 -17 -8 -7 -10 -12 -8 -10
1 -16 -8 -6 -9 -10 -6 -9
1 -15 -8 -6 -8 -9 -5 -8
0 -14 -7 -5 -7 -7 -4 -7
1 -13 -8 -5 -7 -6 -3 -6
1 -13 -8 -5 -6 -5 -2 -5
2 -12 -9 -5 -6 -4 0 -4
2 -12 -9 -5 -6 -3 1 -4
4 -11 -10 -6 -4 1 4 -2
6 -11 -10 -5 0 3 6 1
7 -10 -11 -4 2 6 8 2
9 -10 -11 -3 4 9 11 4
10 -10 -11 -3 6 11 13 5
12 -8 -12 -2 8 14 15 6
14 -6 -13 -2 9 16 17 7
16 -5 -13 -2 11 18 18 8
17 -3 -14 -2 12 21 20 9
19 -2 -14 -2 13 23 21 10
22 1 -15 -2 16 26 25 12
26 3 -16 0 18 30 28 15
29 4 -17 1 20 33 32 17
33 6 -18 2 23 37 35 19
36 7 -19 3 25 40 39 21
39 9 -20 4 27 44 43 24
42 11 -21 4 29 48 46 26
45 13 -21 5 31 51 49 28
48 14 -22 5 33 55 51 31
50 16 -22 5 35 58 54 33
52 18 -23 6 37 60 56 35
53 20 -23 7 38 62 59 36
55 22 -23 8 40 64 61 38
57 23 -23 9 43 66 63 40
58 25 -23 10 44 68 65 42
59 26 -24 11 45 69 66 43
60 27 -24 11 45 70 67 44
61 27 -24 10 45 70 67 45
62 28 -24 10 45 71 68 46
63 28 -24 10 45 71 68 47
63 29 -25 10 45 72 69 48
60 30 -24 11 46 73 70 49
58 30 -24 13 47 73 71 49
56 31 -23 14 48 74 72 50
54 31 -23 15 49 74 73 50
52 32 -21 16 50 74 73 50
51 32 -20 16 49 72 72 49
49 32 -18 15 48 70 70 48
48 32 -17 15 47 69 68 47
47 32 -16 15 46 67 67 46
45 32 -14 14 45 65 65 45
44 32 -13 15 44 63 63 44
43 31 -11 16 43 61 61 43
42 31 -9 17 42 59 60 42
40 31 -8 18 40 57 58 42
36 29 -6 19 38 54 55 39
32 26 -5 19 37 52 53 36
28 24 -4 20 36 49 50 34
24 22 -2 20 35 46 47 32
20 20 0 20 34 44 45 30
18 18 2 21 32 40 42 27
16 17 3 21 31 38 39 25
14 16 4 21 29 35 36 22
13 14 5 21 27 33 34 20
11 13 6 21 26 30 31 17
8 11 7 22 24 27 28 15
6 10 8 22 23 25 26 14
3 9 8 21 21 23 23 13
1 7 9 21 19 20 21 11
-3 6 9 21 18 18 18 10
-4 5 10 20 17 16 16 8
-4 4 10 20 16 14 14 7
-4 4 9 19 15 12 12 6
-4 3 9 19 14 11 11 5
-4 3 9 19 14 9 9 4
-6 1 8 18 12 8 8 2
-7 0 8 17 11 7 7 0
-8 -2 8 16 10 6 6 -3
-9 -4 8 15 8 5 5 -4
-10 -5 8 15 7 4 4 -6
-11 -6 8 14 6 3 3 -7
-11 -7 8 13 5 2 2 -7
-11 -7 7 12 5 1 1 -7
-11 -8 7 11 4 0 0 -7
-11 -8 7 10 4 0 0 -7
-12 -9 6 9 3 -2 -2 -8
-12 -9 6 9 2 -3 -3 -8
-12 -10 6 8 1 -4 -3 -9
-12 -10 6 8 0 -5 -4 -9
-12 -10 6 8 0 -6 -4 -9
-13 -11 6 7 -2 -7 -5 -10
-14 -10 6 7 -2 -7 -5 -10
-15 -10 7 8 0 -6 -5 -10
-16 -9 7 8 0 -6 -5 -10
-17 -9 7 8 0 -6 -5 -10
-18 -8 8 9 1 -5 -4 -10
-18 -8 7 8 1 -5 -4 -10
-18 -8 7 8 0 -6 -5 -10
-18 -8 6 7 0 -6 -5 -10
-18 -8 6 7 0 -6 -5 -10
-17 -9 5 6 -2 -7 -6 -10
-17 -9 5 6 -2 -7 -6 -10
-16 -9 6 6 -2 -7 -6 -11
-16 -9 6 6 -2 -7 -6 -11
-16 -9 6 6 -2 -7 -6 -11
-15 -8 7 6 -3 -8 -7 -12
-15 -8 7 6 -3 -8 -7 -12
-15 -9 7 6 -2 -8 -7 -11
-15 -9 7 6 -2 -8 -7 -11
-15 -9 7 6 -2 -8 -7 -11
-15 -10 6 7 0 -8 -7 -10
-15 -10 7 7 0 -8 -7 -10
-16 -10 8 8 0 -7 -7 -10
-16 -10 9 8 0 -7 -7 -10
-16 -10 9 8 0 -7 -7 -10
-16 -8 10 9 1 -6 -7 -9
-13 -6 11 10 2 -5 -6 -9
-11 -4 12 10 3 -5 -5 -8
-8 -3 13 11 4 -4 -4 -8
-6 0 13 11 4 -4 -3 -8
-5 1 14 12 5 -3 -2 -7
-5 2 15 13 6 -2 -2 -6
-5 2 16 14 7 0 -2 -6
-5 3 17 15 8 1 -2 -5
-5 3 17 16 8 1 -2 -5
-6 4 18 17 9 2 0 -4
-5 5 17 16 8 1 0 -5
-4 5 16 15 7 0 0 -5
-3 6 15 14 6 -2 0 -6
-2 6 14 14 5 -3 0 -6
0 7 13 13 4 -4 -2 -6
-2 7 13 13 5 -4 -2 -5
-3 7 13 14 5 -3 -2 -4
-4 7 13 14 6 -3 -2 -2
-4 7 13 14 6 -3 -2 0
-4 8 14 15 7 -2 0 1
-2 10 13 14 7 -2 0 0
1 11 13 14 7 0 0 0
2 12 12 13 7 0 0 -2
4 13 12 13 7 0 0 -2
5 14 11 12 7 1 1 -3
5 13 10 11 6 0 1 -3
6 13 9 10 5 -2 0 -4
6 12 8 9 4 -3 0 -4
6 12 7 9 3 -4 0 -4
7 10 6 7 1 -5 -2 -5
6 9 5 5 0 -6 -3 -6
5 7 4 3 -2 -7 -4 -6
4 5 3 2 -4 -8 -5 -7
4 4 2 0 -5 -8 -5 -7
3 3 1 -2 -6 -9 -6 -8
3 2 1 -2 -6 -10 -7 -9
2 1 1 -2 -7 -10 -8 -9
2 0 1 -2 -7 -11 -9 -10
2 -2 1 -2 -7 -11 -10 -10
0 -4 2 -2 -8 -13 -11 -11
-3 -6 2 -2 -9 -14 -13 -12
-4 -7 2 -2 -9 -16 -14 -12
-6 -9 2 -2 -10 -18 -15 -13
-8 -11 2 -2 -10 -19 -16 -13
-9 -12 1 -3 -11 -20 -17 -14
-9 -13 1 -4 -13 -20 -18 -16
-10 -14 1 -4 -14 -21 -19 -17
-10 -15 1 -5 -15 -21 -20 -18
-10 -15 1 -5 -16 -21 -20 -19
-11 -16 0 -6 -17 -22 -21 -20
-11 -17 0 -6 -17 -22 -21 -20
-12 -17 0 -7 -17 -23 -22 -21
-12 -18 0 -7 -17 -23 -22 -21
-12 -18 0 -7 -17 -23 -22 -21
-13 -19 1 -8 -18 -24 -23 -22
-14 -19 1 -8 -18 -24 -23 -22
-15 -20 1 -8 -18 -24 -23 -22
-16 -20 1 -8 -18 -24 -23 -22
-17 -20 1 -8 -18 -24 -23 -22
-18 -21 1 -7 -19 -24 -24 -22
-18 -21 1 -7 -19 -24 -24 -22
-18 -21 1 -7 -19 -24 -24 -22
-18 -21 1 -7 -19 -24 -24 -22
-18 -21 1 -7 -19 -24 -24 -22
-19 -21 1 -8 -20 -25 -25 -22
-19 -21 1 -8 -20 -25 -25 -22
-19 -21 1 -8 -19 -25 -25 -22
-19 -21 1 -8 -19 -25 -25 -22
-19 -21 1 -8 -19 -25 -25 -22
-18 -22 2 -7 -18 -25 -24 -22
-18 -22 1 -8 -19 -25 -25 -22
-18 -22 1 -9 -20 -26 -26 -23
-18 -22 0 -9 -20 -26 -27 -23
-18 -22 0 -10 -21 -26 -28 -23
-17 -23 -2 -11 -22 -27 -29 -24
-17 -23 -2 -10 -22 -27 -29 -24
-16 -23 0 -10 -22 -27 -29 -24
-16 -23 0 -9 -22 -27 -29 -24
-16 -23 0 -9 -22 -27 -29 -24
-15 -22 1 -8 -21 -27 -29 -24
-16 -22 1 -8 -21 -27 -29 -24
-16 -22 1 -8 -21 -27 -29 -24
-17 -22 1 -8 -21 -27 -29 -24
-17 -22 1 -8 -21 -27 -29 -24
-18 -22 1 -9 -22 -28 -30 -25
-18 -22 2 -7 -21 -28 -30 -25
-17 -23 2 -6 -20 -28 -30 -25
-17 -23 3 -5 -20 -28 -30 -25
-17 -23 3 -4 -19 -28 -30 -25
-16 -22 8 5 -10 -20 -26 -25
-15 -19 14 16 2 -11 -20 -23
-15 -16 20 27 14 0 -15 -20
-14 -13 26 38 25 9 -10 -18
-14 -9 32 50 36 19 -5 -16
-2 0 35 61 54 38 12 -6
14 9 36 72 73 63 31 9
29 19 38 84 92 87 52 23
46 29 39 95 111 110 72 36
61 39 42 106 130 134 92 51
65 54 46 110 141 153 114 70
62 71 51 110 148 171 139 93
60 88 57 111 155 188 162 114
58 105 62 111 162 206 187 137
55 121 67 111 170 224 211 158
36 118 59 86 136 187 186 150
12 105 44 47 86 129 141 128
-13 93 29 9 35 71 96 105
-37 79 14 -30 -15 13 52 82
-62 67 0 -68 -66 -46 7 60
-70 50 -20 -95 -94 -75 -21 39
-72 29 -40 -118 -112 -94 -40 21
-74 10 -61 -141 -131 -111 -61 3
-76 -11 -82 -163 -150 -130 -81 -17
-78 -30 -103 -186 -169 -147 -102 -35
-75 -37 -104 -183 -168 -147 -106 -41
-69 -40 -96 -166 -156 -138 -102 -44
-63 -44 -88 -151 -146 -130 -98 -45
-56 -46 -80 -136 -135 -120 -94 -47
-50 -49 -72 -120 -124 -111 -90 -48
-46 -47 -63 -105 -111 -101 -83 -47
-41 -41 -53 -90 -97 -90 -76 -43
-37 -36 -44 -74 -82 -78 -70 -39
-33 -31 -34 -60 -68 -67 -63 -35
-29 -26 -24 -45 -55 -56 -56 -32
-27 -24 -19 -36 -48 -50 -53 -30
-25 -24 -16 -32 -43 -46 -50 -29
-24 -24 -13 -27 -38 -41 -47 -28
-22 -24 -10 -22 -34 -37 -45 -28
-21 -24 -6 -18 -30 -34 -41 -27
-20 -23 -5 -16 -28 -32 -40 -26
-19 -23 -5 -15 -27 -31 -39 -25
-19 -22 -4 -14 -26 -30 -39 -24
-18 -22 -4 -13 -25 -30 -38 -24
-18 -22 -4 -12 -24 -29 -38 -23
-17 -21 -3 -11 -23 -28 -37 -22
-17 -21 -2 -9 -22 -26 -35 -20
-17 -21 0 -8 -21 -25 -34 -19
-17 -21 1 -7 -20 -23 -33 -18
-17 -21 2 -6 -19 -22 -32 -17
-17 -20 3 -5 -18 -21 -31 -16
-17 -20 2 -5 -19 -22 -32 -17
-17 -20 2 -6 -19 -22 -32 -18
-17 -20 1 -6 -20 -23 -33 -18
-17 -20 1 -6 -20 -23 -33 -19
-15 -20 0 -7 -21 -24 -34 -20
-14 -20 0 -7 -20 -23 -34 -20
-12 -20 1 -7 -19 -22 -33 -19
-11 -20 1 -7 -19 -22 -33 -19
-9 -20 1 -7 -18 -21 -33 -19
-8 -19 2 -6 -17 -20 -32 -18
-8 -19 2 -6 -17 -20 -32 -18
-8 -19 1 -6 -17 -20 -31 -18
-8 -19 1 -6 -17 -20 -31 -18
-8 -19 1 -6 -17 -20 -31 -18
-9 -20 0 -5 -17 -18 -30 -16
-9 -20 0 -4 -16 -17 -29 -15
-10 -19 1 -4 -15 -15 -28 -13
-10 -19 1 -3 -15 -14 -27 -12
-10 -19 1 -3 -14 -12 -26 -10
-11 -18 2 -2 -13 -11 -25 -9
-10 -17 2 -2 -12 -11 -25 -9
-9 -17 1 -2 -12 -11 -25 -9
-9 -16 1 -2 -11 -11 -25 -9
-8 -16 1 -2 -11 -11 -25 -9
-6 -15 0 -2 -10 -9 -25 -9
-5 -14 0 0 -8 -8 -24 -8
-3 -13 0 0 -7 -6 -22 -7
-2 -13 0 1 -5 -5 -21 -6
1 -12 0 1 -4 -3 -19 -5
2 -11 1 2 -3 -2 -18 -4
2 -11 0 2 -2 1 -18 -4
2 -11 -2 2 -2 2 -17 -3
2 -11 -2 2 0 3 -17 -3
2 -11 -3 2 0 4 -17 -3
3 -9 -4 3 2 6 -15 -2
6 -8 -4 3 4 8 -13 0
9 -6 -4 4 6 11 -11 2
12 -5 -4 5 8 13 -9 3
15 -3 -4 5 10 16 -7 4
18 -2 -5 6 12 18 -5 6
21 0 -6 6 13 20 -4 7
23 2 -8 7 15 22 -2 9
26 3 -9 8 16 25 1 10
29 4 -10 8 18 27 3 12
32 6 -11 9 20 29 5 14
35 8 -11 9 22 32 8 16
38 10 -12 10 24 35 11 18
42 13 -12 10 26 38 14 20
45 15 -12 10 28 42 17 22
48 16 -13 11 29 45 19 24
50 18 -14 11 31 47 20 26
52 19 -15 12 32 49 22 28
54 21 -15 12 34 52 24 30
56 22 -16 12 35 54 26 32
57 24 -17 13 37 56 28 34
57 25 -17 14 38 58 30 36
57 27 -16 15 40 60 32 38
57 29 -15 16 42 63 35 40
57 31 -15 17 44 65 37 43
56 32 -14 18 45 66 38 44
56 33 -14 18 45 66 38 44
57 34 -14 18 45 66 37 44
58 34 -14 18 45 66 37 44
58 35 -14 18 45 66 37 44
59 36 -15 18 45 66 36 45
59 36 -15 18 45 66 36 45
59 37 -14 18 45 66 36 45
59 38 -13 18 45 66 36 45
59 38 -13 18 45 66 36 45
58 39 -12 19 45 65 36 44
56 39 -11 19 44 63 35 43
54 38 -10 20 43 62 33 42
52 38 -10 20 42 60 32 42
49 38 -9 20 40 59 30 40
46 37 -7 21 39 58 29 39
43 37 -5 22 39 57 28 38
39 36 -2 24 39 55 27 37
35 35 1 25 39 54 26 36
32 35 4 26 39 53 25 35
29 33 5 27 37 50 22 33
27 31 5 27 36 47 18 30
25 29 6 26 34 44 14 28
23 27 7 26 33 40 10 25
20 24 7 26 31 37 6 22
18 22 8 25 30 34 3 21
15 21 9 25 29 32 1 20
13 19 11 25 27 30 -2 19
10 17 12 25 26 28 -4 19
7 15 13 25 25 25 -7 18
6 14 14 26 23 23 -9 16
4 13 14 26 22 21 -11 14
2 11 14 25 20 19 -14 11
1 10 14 25 18 17 -16 9
-2 9 14 25 16 14 -19 6
-4 8 15 24 15 13 -20 5
-5 7 15 24 14 11 -22 3
-7 5 15 23 13 10 -23 2
-9 4 15 22 12 8 -25 0
-11 3 15 22 11 7 -26 -2
-12 2 16 21 10 6 -27 -3
-12 1 15 21 8 4 -29 -4
-13 0 14 20 7 3 -31 -5
-14 -2 13 19 5 1 -32 -5
-14 -3 12 19 4 0 -34 -6
-15 -4 11 18 3 -2 -35 -7
-15 -4 11 17 3 -2 -35 -7
-14 -4 11 15 2 -3 -36 -8
-13 -4 11 14 2 -3 -36 -8
-13 -4 11 13 2 -3 -36 -8
-12 -5 12 12 1 -4 -37 -9
-12 -5 12 12 0 -4 -37 -9
-13 -5 11 11 -2 -5 -38 -10
-14 -5 10 10 -2 -6 -39 -11
-14 -5 10 10 -3 -6 -39 -11
-15 -4 9 9 -4 -7 -40 -12
-15 -4 9 9 -4 -7 -40 -12
-16 -4 9 9 -4 -8 -41 -11
-16 -4 9 9 -4 -8 -41 -11
-16 -4 9 9 -4 -8 -41 -11
-17 -4 10 10 -4 -9 -43 -10
-17 -4 10 10 -4 -9 -43 -10
-17 -5 10 10 -4 -9 -44 -10
-17 -6 10 10 -4 -9 -44 -10
-17 -6 10 10 -4 -9 -44 -10
-18 -7 10 9 -5 -9 -45 -10
-18 -7 10 9 -5 -9 -45 -10
-18 -7 10 9 -5 -9 -45 -10
-18 -7 10 9 -5 -9 -45 -10
-18 -7 10 9 -5 -9 -45 -10
-17 -8 10 10 -4 -8 -45 -10
-17 -8 10 10 -4 -8 -45 -10
-16 -7 10 10 -4 -8 -45 -10
-16 -6 10 10 -4 -8 -45 -10
-16 -6 10 10 -4 -8 -45 -10
-15 -5 9 9 -4 -8 -45 -9
-15 -5 9 9 -4 -8 -45 -9
-15 -4 9 9 -4 -8 -45 -9
-15 -4 9 9 -4 -8 -45 -9
-15 -4 9 9 -4 -8 -45 -9
-15 -3 9 9 -5 -9 -46 -10
-14 -3 9 10 -4 -9 -46 -10
-13 -2 10 11 -3 -9 -46 -9
-13 0 11 11 -3 -9 -46 -9
-12 0 11 12 -2 -9 -46 -9
-11 2 12 13 0 -8 -46 -8
-10 5 13 14 1 -7 -46 -8
-9 7 15 16 2 -6 -45 -7
-9 10 16 17 3 -5 -44 -6
-8 12 17 18 4 -4 -44 -6
-7 14 18 19 5 -3 -43 -5
-7 13 18 19 5 -3 -43 -4
-7 12 18 19 5 -3 -43 -3
-7 12 18 19 5 -3 -43 -3
-7 11 18 19 5 -3 -43 -2
-7 10 17 19 5 -2 -43 0
-6 10 16 18 5 -2 -43 0
-5 9 15 17 5 -2 -43 0
-4 8 15 17 5 -2 -43 0
-3 8 14 16 5 -2 -43 0
0 7 13 15 4 -3 -43 -2
1 8 13 15 4 -3 -43 -2
3 10 12 15 5 -2 -43 -2
5 11 12 15 5 0 -43 -2
7 12 12 15 5 0 -43 -2
8 13 11 15 6 1 -43 0
8 13 11 14 5 1 -43 0
7 13 11 13 4 0 -44 0
6 13 11 13 4 0 -44 0
6 13 11 12 3 0 -44 0
5 12 10 11 2 -2 -45 -2
5 10 8 9 0 -4 -46 -3
4 8 6 8 -3 -5 -48 -4
4 6 5 7 -4 -6 -49 -5
4 3 3 5 -6 -8 -50 -6
3 2 2 4 -7 -9 -51 -7
3 1 2 4 -7 -9 -51 -7
2 0 2 4 -8 -10 -52 -8
1 0 2 4 -8 -11 -53 -8
1 -2 2 4 -8 -11 -53 -8
0 -3 2 3 -9 -12 -54 -9
-3 -5 2 2 -10 -13 -54 -10
-4 -7 2 1 -11 -14 -53 -11
-5 -8 2 1 -11 -15 -53 -12
-7 -10 2 0 -12 -16 -53 -13
-8 -11 1 -2 -13 -17 -52 -14
-9 -12 1 -2 -14 -18 -51 -14
-11 -13 1 -3 -15 -20 -50 -15
-12 -14 1 -4 -15 -21 -50 -15
-13 -15 1 -4 -16 -22 -49 -15
-14 -16 2 -5 -17 -23 -48 -16
-15 -16 2 -5 -18 -23 -48 -16
-16 -17 1 -6 -19 -24 -48 -16
-16 -17 1 -6 -19 -24 -48 -16
-17 -17 1 -6 -20 -24 -48 -16
-18 -18 0 -7 -21 -25 -47 -17
-18 -18 0 -7 -21 -25 -45 -17
-17 -18 0 -7 -21 -25 -43 -18
-17 -18 0 -7 -21 -25 -40 -18
-17 -18 0 -7 -21 -25 -38 -18
-16 -17 1 -7 -20 -25 -37 -19
-17 -17 1 -7 -20 -25 -35 -19
-18 -18 1 -7 -20 -25 -34 -19
-18 -19 1 -7 -20 -25 -33 -19
-19 -19 1 -7 -20 -25 -31 -19
-20 -20 1 -6 -19 -25 -30 -18
-20 -20 1 -6 -19 -25 -28 -18
-19 -20 1 -6 -19 -25 -27 -18
-18 -20 1 -6 -19 -25 -26 -18
-18 -20 1 -6 -19 -25 -24 -18
-17 -20 0 -6 -19 -24 -23 -19
-17 -20 0 -6 -19 -24 -23 -19
-17 -21 -2 -6 -20 -25 -22 -20
-17 -21 -2 -6 -20 -25 -22 -21
-17 -21 -2 -6 -20 -25 -22 -21
-17 -22 -3 -7 -21 -26 -21 -22
-17 -22 -3 -7 -21 -26 -19 -22
-17 -22 -2 -8 -21 -26 -17 -22
-17 -22 -2 -8 -21 -26 -15 -22
-17 -22 -2 -8 -21 -26 -13 -22
-16 -21 0 -9 -21 -25 -12 -21
-17 -21 0 -9 -21 -25 -12 -21
-18 -21 0 -9 -21 -25 -11 -21
-18 -21 0 -9 -21 -25 -10 -21
-19 -21 0 -9 -21 -25 -10 -21
-20 -22 -2 -9 -21 -25 -9 -21
-20 -22 -2 -9 -21 -25 -8 -21
-19 -23 -2 -9 -21 -25 -7 -22
-19 -23 -2 -9 -21 -25 -6 -23
-19 -23 -2 -9 -21 -25 -5 -23
-17 -23 2 -3 -17 -23 0 -24
-15 -20 8 8 -7 -15 6 -22
-13 -16 14 18 4 -8 12 -21
-11 -13 20 28 14 0 18 -20
-9 -10 26 38 24 8 24 -18
-2 -5 29 48 37 21 35 -12
11 4 31 58 54 42 53 0
24 11 33 68 70 62 71 12
37 18 34 78 87 81 89 23
50 26 36 89 103 102 106 34
58 38 38 96 117 123 128 51
62 55 43 100 132 145 152 71
65 71 47 105 145 168 177 92
68 89 51 110 158 190 202 113
72 105 55 114 173 213 227 134
62 113 53 102 158 200 224 138
37 109 44 71 113 151 190 123
13 106 35 39 69 101 156 108
-13 103 26 9 24 51 122 93
-37 99 17 -23 -20 1 89 78
-54 86 2 -53 -55 -35 61 62
-61 63 -20 -79 -79 -59 37 44
-67 40 -40 -107 -103 -81 15 25
-74 17 -62 -135 -128 -104 -8 7
-81 -6 -83 -162 -151 -127 -30 -12
-83 -21 -94 -173 -162 -138 -43 -24
-77 -28 -90 -163 -156 -136 -45 -30
-71 -34 -87 -154 -150 -134 -47 -35
-65 -41 -83 -144 -144 -131 -49 -40
-59 -49 -79 -135 -138 -129 -51 -47
-53 -51 -73 -122 -128 -120 -50 -49
-47 -46 -65 -108 -114 -108 -43 -47
-40 -40 -56 -93 -100 -95 -34 -45
-34 -35 -48 -77 -87 -82 -27 -43
-28 -30 -38 -62 -72 -69 -19 -40
-24 -27 -31 -51 -63 -60 -13 -37
-24 -27 -26 -45 -56 -54 -9 -34
-23 -27 -21 -37 -50 -49 -5 -32
-22 -26 -16 -31 -44 -43 0 -29
-22 -26 -11 -24 -37 -36 4 -26
-21 -25 -8 -20 -33 -33 7 -24
-20 -25 -8 -20 -33 -33 7 -24
-19 -24 -8 -19 -33 -33 7 -24
-18 -23 -7 -18 -32 -33 6 -25
-17 -23 -7 -18 -32 -33 6 -25
-16 -22 -6 -17 -31 -32 5 -26
-16 -22 -6 -16 -30 -32 6 -25
-15 -22 -5 -15 -29 -31 6 -25
-14 -22 -4 -14 -28 -30 7 -24
-14 -22 -4 -13 -27 -30 8 -23
-13 -21 -3 -12 -26 -29 9 -22
-13 -21 -3 -12 -26 -29 9 -22
-12 -21 -4 -12 -26 -29 9 -22
-11 -21 -5 -13 -26 -29 9 -22
-11 -21 -5 -13 -26 -29 9 -22
-10 -21 -6 -14 -27 -28 8 -23
-10 -21 -6 -14 -27 -27 8 -23
-9 -21 -6 -13 -27 -26 9 -22
-8 -21 -6 -12 -26 -25 10 -21
-8 -21 -6 -12 -26 -24 10 -21
-7 -20 -5 -11 -25 -23 11 -20
-7 -20 -5 -11 -25 -23 11 -20
-6 -20 -6 -11 -25 -23 10 -20
-5 -20 -7 -12 -25 -24 9 -20
-5 -20 -7 -12 -25 -24 9 -20
-4 -21 -8 -13 -25 -25 8 -21
-4 -21 -8 -13 -24 -24 9 -20
-4 -20 -8 -13 -24 -23 10 -19
-3 -19 -8 -12 -23 -21 11 -18
-3 -19 -8 -12 -22 -20 12 -17
-2 -18 -7 -11 -21 -19 13 -16
-2 -18 -7 -11 -21 -19 13 -16
0 -18 -7 -11 -21 -19 13 -16
1 -17 -7 -11 -20 -19 13 -16
1 -17 -7 -11 -20 -19 13 -16
2 -16 -8 -12 -19 -18 13 -17
4 -16 -8 -12 -19 -16 14 -16
5 -15 -8 -12 -19 -15 15 -15
7 -14 -9 -11 -18 -14 17 -14
9 -14 -9 -11 -18 -12 18 -13
10 -13 -10 -10 -17 -11 19 -12
10 -13 -10 -9 -15 -9 20 -11
10 -13 -10 -9 -13 -8 20 -10
9 -13 -10 -8 -11 -6 21 -9
9 -13 -10 -7 -10 -4 22 -8
9 -12 -10 -6 -8 -3 23 -7
12 -10 -10 -6 -7 0 24 -6
15 -9 -10 -6 -6 1 25 -6
18 -8 -11 -6 -5 3 27 -5
21 -6 -11 -6 -4 5 28 -4
24 -5 -12 -6 -3 6 29 -3
26 -4 -13 -6 0 9 31 -2
29 -4 -14 -6 2 11 32 0
31 -3 -16 -6 4 13 34 1
34 -2 -17 -6 5 15 36 2
37 0 -18 -5 7 18 38 4
39 2 -18 -4 9 21 42 6
43 3 -19 -4 11 24 45 8
45 4 -20 -3 13 27 48 11
48 6 -20 -2 15 30 51 13
51 7 -21 0 17 32 53 15
54 9 -22 0 18 35 55 16
57 11 -23 0 20 37 57 17
60 13 -25 0 21 39 59 19
63 15 -26 0 23 42 60 20
65 17 -27 0 24 45 62 21
65 20 -27 1 26 47 64 23
66 22 -27 2 28 49 66 24
67 24 -27 3 30 52 68 26
67 26 -27 4 31 54 70 28
68 28 -26 5 33 56 72 29
68 28 -26 5 33 56 72 30
68 29 -26 5 33 57 72 31
67 30 -25 5 33 58 73 33
67 30 -25 5 33 58 73 34
66 31 -24 5 34 59 74 35
66 32 -23 6 34 59 75 35
66 33 -23 7 35 59 75 36
66 35 -22 9 36 60 76 37
66 36 -21 10 36 60 77 37
65 37 -20 11 37 61 78 38
63 37 -20 11 36 59 75 37
62 37 -20 11 36 57 73 36
60 37 -19 12 35 55 71 35
58 37 -19 12 34 54 69 34
56 37 -17 13 33 52 67 33
51 36 -15 13 33 52 67 33
47 34 -12 14 33 51 66 33
43 33 -9 15 33 50 65 32
37 31 -6 15 33 50 65 32
34 30 -4 16 33 48 63 31
33 28 -3 17 32 45 59 28
32 26 -3 18 30 42 56 26
30 24 -2 19 29 38 52 23
29 23 0 20 27 35 49 21
27 21 1 21 26 33 46 19
23 21 2 21 25 31 44 18
20 20 3 21 24 29 43 17
16 19 5 21 23 27 40 15
13 19 6 21 22 26 38 14
10 18 7 21 21 23 36 12
9 15 7 21 19 21 33 10
8 13 7 20 17 18 30 7
7 11 7 19 15 16 27 5
6 9 7 19 14 13 23 2
5 7 8 18 12 11 21 0
4 6 8 18 11 9 20 -2
2 5 8 18 10 8 18 -3
1 4 9 18 9 6 17 -5
-2 3 9 18 8 4 15 -6
-3 2 10 17 7 3 14 -7
-5 2 10 17 6 2 13 -7
-7 1 10 16 5 1 12 -7
-9 0 10 15 4 0 10 -8
-11 0 10 15 3 -2 9 -8
-13 -2 9 14 2 -3 8 -9
-12 -2 8 13 1 -4 7 -10
-12 -2 8 11 1 -4 6 -10
-11 -3 7 10 0 -5 5 -11
-10 -3 6 8 -2 -6 4 -12
-9 -4 5 7 -3 -7 3 -13
-11 -5 5 7 -4 -7 3 -13
-12 -6 6 7 -4 -7 2 -13
-14 -8 7 7 -5 -8 1 -13
-16 -9 7 7 -6 -8 1 -13
-17 -10 8 6 -7 -9 0 -14
-16 -10 8 6 -7 -9 0 -14
-16 -10 8 6 -7 -9 0 -14
-15 -9 8 6 -7 -10 0 -14
-14 -9 8 6 -7 -10 0 -14
-13 -8 7 5 -7 -11 -2 -14
-14 -8 7 5 -7 -11 -2 -14
-15 -8 7 5 -7 -11 -2 -14
-17 -8 7 4 -7 -12 -3 -14
-18 -8 7 4 -7 -12 -3 -14
-19 -7 6 3 -8 -13 -4 -15
-18 -7 6 3 -8 -13 -4 -15
-17 -7 6 4 -8 -13 -4 -15
-16 -7 7 5 -7 -12 -4 -15
-15 -7 7 5 -7 -12 -4 -15
-14 -6 8 6 -6 -11 -4 -15
-14 -6 8 6 -7 -11 -5 -15
-14 -7 8 5 -7 -12 -5 -15
-13 -8 8 4 -8 -13 -6 -15
-13 -8 8 4 -9 -13 -7 -15
-12 -9 7 3 -10 -14 -8 -16
-13 -8 8 4 -9 -13 -7 -15
-14 -7 8 4 -8 -12 -6 -14
-16 -6 9 5 -6 -11 -5 -13
-17 -5 10 6 -5 -10 -4 -12
-18 -4 11 7 -4 -9 -3 -11
-18 -3 11 7 -4 -9 -3 -10
-18 -3 11 7 -4 -9 -3 -9
-17 -2 12 8 -3 -8 -3 -8
-17 0 12 8 -3 -8 -3 -7
-16 1 13 9 -2 -7 -2 -6
-14 2 14 10 0 -6 0 -6
-13 4 15 12 1 -6 0 -6
-11 5 16 13 2 -5 1 -6
-10 7 17 15 3 -4 2 -6
-8 8 18 16 4 -3 3 -6
-8 8 18 16 3 -4 2 -6
-8 8 18 15 3 -5 1 -6
-9 8 17 14 2 -6 -2 -7
-9 8 17 14 1 -7 -3 -7
-10 7 16 13 0 -8 -4 -8
-8 8 15 13 0 -7 -4 -7
-5 9 15 13 1 -7 -3 -7
-3 11 14 13 2 -6 -2 -6
0 12 13 13 2 -5 -2 -5
2 13 12 13 3 -4 0 -4
2 13 12 13 3 -3 0 -4
2 13 12 13 3 -3 0 -4
2 14 12 13 4 -2 1 -3
2 14 12 13 4 0 1 -3
3 15 13 13 5 1 2 -2
2 14 12 12 4 0 2 -2
1 13 11 11 4 -2 2 -2
0 11 9 10 3 -3 1 -2
-2 10 8 9 2 -4 1 -2
-3 9 7 8 1 -5 0 -3
-3 8 6 6 -2 -7 -3 -4
-2 7 5 4 -4 -9 -5 -5
-2 6 4 3 -6 -10 -7 -6
0 4 2 1 -8 -12 -9 -8
1 3 1 -2 -10 -14 -11 -9
-2 2 1 -2 -10 -14 -11 -9
-3 2 2 -2 -10 -14 -11 -10
-5 1 2 -2 -10 -14 -11 -10
-6 0 3 -2 -10 -14 -11 -11
-8 -2 4 0 -10 -14 -10 -12
-10 -4 4 0 -10 -15 -11 -12
-13 -6 4 -2 -11 -16 -12 -12
-15 -8 4 -2 -11 -17 -13 -13
-17 -10 4 -3 -12 -18 -15 -13
-19 -12 4 -4 -13 -19 -16 -14
-19 -12 4 -4 -13 -19 -17 -15
-19 -12 4 -4 -14 -19 -18 -15
-19 -13 4 -4 -14 -20 -19 -16
-19 -13 4 -4 -15 -20 -20 -17
-18 -14 3 -5 -16 -21 -21 -18
-18 -15 3 -5 -16 -21 -21 -18
-17 -16 3 -5 -16 -22 -22 -18
-17 -17 3 -5 -17 -22 -22 -18
-16 -18 3 -5 -17 -23 -23 -18
-15 -19 2 -6 -18 -24 -24 -18
-15 -19 2 -6 -18 -24 -24 -18
-16 -19 2 -6 -18 -24 -24 -19
-16 -20 2 -6 -18 -24 -24 -19
-17 -20 2 -6 -18 -24 -24 -20
-18 -21 3 -7 -17 -24 -25 -21
-19 -21 3 -7 -17 -24 -25 -21
-19 -21 3 -7 -18 -24 -25 -21
-20 -20 3 -7 -18 -25 -25 -21
-21 -20 3 -7 -19 -25 -25 -21
-22 -19 2 -8 -20 -26 -26 -21
-21 -19 2 -8 -20 -26 -26 -21
-21 -19 2 -8 -20 -26 -26 -21
-20 -20 2 -8 -19 -26 -26 -20
-19 -20 2 -8 -19 -26 -26 -20
-18 -21 3 -7 -18 -25 -25 -19
-18 -21 3 -7 -18 -25 -25 -19
-18 -21 3 -7 -18 -25 -25 -19
-19 -22 3 -7 -19 -25 -25 -20
