I II V1 V2 V3 V4 V5 V6
-5 -29 -6 1 -18 -18 -27 -2
-5 -29 -6 1 -18 -18 -27 -2
-5 -28 -6 1 -18 -17 -27 -2
-4 -27 -6 1 -18 -17 -27 -2
-4 -26 -6 1 -18 -16 -27 -2
-4 -26 -6 1 -18 -16 -27 -2
-3 -25 -7 2 -19 -15 -27 0
-3 -25 -8 2 -19 -15 -26 0
-3 -25 -8 2 -18 -15 -26 0
-3 -25 -9 2 -18 -15 -25 0
-3 -25 -9 2 -18 -15 -25 0
-4 -24 -10 1 -17 -15 -24 -2
-4 -23 -9 2 -16 -15 -24 -2
-3 -23 -9 3 -15 -15 -23 -2
-3 -22 -8 4 -14 -15 -23 -2
-3 -22 -8 5 -13 -15 -23 -2
-2 -21 -7 6 -12 -16 -22 0
0 -22 -7 6 -11 -15 -21 0
1 -22 -7 6 -10 -15 -20 1
2 -23 -7 6 -9 -14 -19 1
2 -23 -7 6 -9 -14 -19 1
3 -24 -8 7 -8 -13 -18 2
3 -23 -8 7 -7 -13 -18 2
3 -23 -8 7 -7 -13 -17 1
3 -22 -8 7 -6 -13 -17 1
3 -22 -8 7 -6 -13 -17 1
3 -21 -8 8 -5 -13 -16 0
4 -21 -8 8 -4 -13 -16 0
5 -21 -8 8 -4 -14 -16 0
6 -21 -8 8 -3 -14 -16 0
7 -21 -8 8 -3 -14 -16 0
8 -20 -9 9 0 -14 -14 -2
8 -20 -9 10 2 -13 -13 -2
9 -20 -10 12 4 -11 -11 0
9 -20 -10 13 6 -10 -10 0
9 -20 -10 14 7 -9 -9 0
10 -20 -11 15 8 -8 -8 1
11 -19 -12 15 9 -7 -8 1
12 -19 -12 15 10 -7 -7 2
13 -18 -13 15 11 -6 -7 2
14 -18 -13 15 11 -6 -7 2
16 -17 -14 15 13 -4 -5 4
18 -16 -15 16 14 -3 -3 5
19 -15 -16 17 16 0 -2 7
21 -14 -17 18 17 1 1 8
22 -13 -17 19 18 2 2 9
24 -11 -18 20 19 4 4 10
26 -10 -19 20 20 5 5 11
27 -9 -20 20 21 7 6 12
29 -8 -21 20 22 8 7 13
30 -7 -22 20 22 9 8 14
31 -6 -24 20 23 10 10 16
31 -5 -25 20 23 11 11 18
31 -4 -26 19 23 11 13 20
31 -3 -27 19 23 12 14 22
31 -2 -28 19 23 12 15 23
32 0 -29 18 22 13 16 24
33 1 -29 17 22 13 17 25
34 2 -30 16 23 14 18 25
35 3 -30 15 23 14 19 26
35 4 -30 14 23 14 20 26
36 5 -31 12 23 15 21 27
36 6 -31 11 22 14 20 27
35 7 -31 10 21 13 20 26
35 8 -31 9 20 12 19 26
35 8 -31 8 19 12 19 26
34 9 -32 6 18 11 18 25
33 9 -31 4 17 11 18 25
32 9 -31 3 16 11 18 25
31 9 -30 1 15 11 18 25
31 9 -30 0 14 11 18 25
29 10 -28 -2 12 8 17 25
27 10 -26 -2 11 6 15 24
26 10 -25 -3 9 4 14 22
24 10 -23 -3 8 2 12 21
23 10 -22 -3 7 0 11 20
21 9 -20 -4 6 -3 10 19
19 8 -19 -4 5 -5 9 18
17 7 -17 -4 5 -6 8 17
15 6 -16 -4 4 -8 7 16
13 6 -15 -4 4 -9 6 16
11 4 -13 -5 3 -10 4 14
9 2 -11 -5 2 -11 3 12
7 1 -10 -4 1 -12 2 11
5 -2 -8 -4 0 -13 1 9
3 -3 -7 -4 0 -13 0 8
2 -4 -6 -3 -2 -14 -3 6
1 -4 -6 -3 -2 -14 -4 4
0 -5 -6 -3 -2 -15 -6 3
-2 -5 -6 -3 -2 -15 -7 1
-2 -5 -6 -3 -2 -15 -8 0
-3 -6 -6 -3 -3 -16 -9 -2
-4 -7 -5 -3 -3 -17 -10 -3
-5 -8 -4 -3 -3 -18 -11 -3
-6 -9 -3 -3 -3 -19 -12 -4
-7 -10 -3 -3 -3 -19 -13 -4
-8 -11 -2 -2 -4 -20 -14 -5
-8 -11 -2 -2 -4 -20 -14 -6
-8 -12 -2 -3 -4 -20 -15 -7
-8 -12 -2 -3 -4 -20 -15 -8
-8 -12 -2 -3 -4 -20 -15 -8
-9 -13 -3 -4 -4 -21 -16 -9
-9 -13 -2 -4 -4 -22 -16 -9
-9 -13 -2 -3 -4 -22 -17 -10
-9 -13 0 -3 -4 -23 -17 -10
-9 -13 0 -3 -4 -23 -17 -10
-9 -14 1 -2 -5 -24 -18 -11
-10 -14 1 -2 -5 -23 -18 -11
-10 -14 1 -2 -5 -22 -18 -11
-11 -14 1 -2 -5 -21 -18 -11
-11 -14 1 -2 -5 -21 -18 -11
-12 -15 1 0 -4 -20 -17 -11
-12 -15 1 1 -4 -20 -17 -11
-11 -14 1 1 -3 -19 -16 -11
-11 -14 1 2 -3 -19 -16 -11
-11 -14 1 2 -3 -19 -16 -11
-10 -13 2 3 -2 -17 -15 -11
-10 -13 3 4 -2 -15 -15 -11
-9 -13 4 5 -2 -14 -14 -11
-9 -13 5 6 -2 -12 -14 -11
-9 -13 5 7 -2 -11 -14 -11
-8 -14 6 8 0 -10 -13 -10
-8 -14 6 8 0 -10 -13 -10
-8 -14 6 8 -2 -9 -13 -11
-8 -14 6 8 -2 -9 -13 -11
-8 -14 6 8 -2 -9 -13 -11
-9 -13 6 9 -3 -8 -14 -12
-9 -13 6 9 -3 -7 -13 -12
-9 -14 6 9 -2 -6 -12 -12
-9 -14 6 9 -2 -5 -11 -12
-9 -14 6 9 -2 -5 -11 -12
-8 -15 6 10 0 -4 -10 -11
-8 -14 6 10 0 -4 -10 -11
-8 -13 6 10 0 -4 -10 -10
-8 -12 6 10 0 -4 -10 -10
-8 -12 6 10 0 -4 -10 -10
-7 -11 6 10 0 -4 -9 -9
-6 -11 6 10 0 -4 -9 -9
-5 -10 7 10 -2 -4 -9 -9
-4 -10 7 10 -2 -4 -9 -9
-3 -10 7 10 -2 -4 -9 -9
-2 -9 8 10 -3 -3 -9 -10
-2 -9 9 10 -3 -2 -9 -10
-3 -9 10 11 -3 -2 -9 -9
-3 -9 11 11 -3 0 -9 -9
-3 -9 11 11 -3 0 -9 -9
-4 -7 13 13 -3 1 -8 -7
-4 -4 14 14 -2 2 -6 -5
-4 0 16 15 0 3 -4 -4
-4 2 17 16 1 4 -2 -2
-4 5 18 17 2 4 1 0
-4 6 19 18 3 5 2 1
-4 7 20 18 3 6 2 1
-4 7 21 18 3 7 2 1
-4 8 22 18 3 8 2 1
-4 8 23 18 3 8 2 1
-3 10 24 19 4 9 2 1
-3 13 24 19 5 9 3 2
-3 15 24 19 5 10 4 3
-3 17 24 19 6 10 5 4
-3 19 24 19 6 10 5 4
-3 20 24 19 7 11 6 5
-3 20 24 19 7 12 6 5
-3 21 24 19 7 12 7 6
-3 21 24 19 7 13 7 6
-3 21 24 19 7 13 7 6
-4 21 23 18 7 13 8 7
-4 20 22 17 6 12 7 6
-4 18 20 15 5 11 6 5
-4 16 18 14 4 10 5 4
-4 15 17 13 4 9 4 4
-3 13 16 12 3 8 3 3
-3 12 16 12 2 7 3 3
-3 10 16 12 2 6 2 2
-3 8 16 12 1 5 2 2
-3 7 16 12 1 5 2 2
-2 4 15 10 -2 4 0 0
-3 2 14 9 -3 3 -3 -4
-4 0 13 8 -4 3 -5 -6
-5 -4 12 7 -5 2 -6 -8
-5 -6 11 6 -6 2 -8 -10
-6 -8 10 5 -8 0 -9 -11
-7 -9 9 4 -9 -3 -10 -12
-8 -10 9 3 -10 -5 -11 -12
-9 -12 8 2 -11 -6 -12 -13
-10 -13 8 1 -12 -8 -13 -13
-11 -14 7 0 -13 -9 -14 -14
-11 -15 7 -2 -14 -9 -14 -14
-11 -16 6 -3 -14 -10 -15 -15
-11 -17 6 -4 -15 -10 -15 -15
-11 -17 6 -4 -15 -10 -15 -15
-11 -18 5 -5 -16 -11 -16 -16
-11 -18 5 -5 -16 -12 -16 -16
-11 -18 5 -5 -16 -12 -16 -16
-11 -18 5 -5 -16 -13 -16 -16
-11 -18 5 -5 -16 -13 -16 -16
-11 -18 5 -5 -17 -14 -17 -17
-11 -19 5 -5 -17 -14 -17 -17
-11 -20 5 -6 -17 -14 -18 -17
-11 -21 5 -6 -17 -14 -18 -17
-11 -21 5 -6 -17 -14 -18 -17
-11 -22 5 -7 -17 -13 -19 -18
-11 -22 5 -7 -17 -13 -19 -18
-11 -22 5 -7 -17 -14 -19 -17
-11 -22 5 -7 -17 -14 -19 -17
-11 -22 5 -7 -17 -14 -19 -17
-12 -21 4 -8 -16 -15 -18 -16
-12 -21 4 -8 -16 -15 -19 -16
-12 -21 4 -8 -16 -15 -19 -17
-12 -21 4 -8 -16 -15 -20 -17
-12 -21 4 -8 -16 -15 -20 -17
-9 -23 7 0 -12 -14 -21 -19
-6 -25 12 9 -7 -12 -22 -22
-4 -27 17 17 -2 -10 -23 -24
0 -28 21 26 4 -8 -24 -26
3 -30 26 35 9 -6 -24 -28
4 -21 37 50 23 8 -15 -20
5 -8 51 65 38 23 0 -9
5 5 64 80 55 37 13 3
6 18 77 97 71 53 26 14
6 30 91 112 88 68 39 26
8 59 79 100 100 92 68 54
9 91 61 81 111 116 99 86
10 122 43 62 123 142 131 117
12 154 24 43 135 167 161 149
13 186 7 24 146 192 193 181
6 196 -21 -5 135 188 197 189
-5 202 -50 -35 116 176 193 191
-16 207 -78 -65 98 163 189 194
-26 214 -107 -96 80 151 186 196
-37 219 -136 -127 62 139 182 199
-39 196 -144 -137 33 106 152 175
-37 165 -148 -143 3 70 117 143
-36 135 -152 -149 -28 33 82 110
-35 103 -155 -155 -60 -3 47 78
-34 72 -159 -161 -91 -39 12 46
-31 54 -144 -146 -91 -47 0 30
-29 39 -122 -124 -81 -47 -7 19
-26 24 -101 -103 -73 -46 -14 7
-24 9 -79 -81 -65 -46 -21 -5
-21 -7 -58 -60 -56 -46 -27 -16
-20 -12 -47 -48 -50 -43 -29 -19
-19 -14 -37 -38 -44 -39 -28 -19
-18 -17 -28 -29 -37 -36 -28 -20
-17 -19 -18 -20 -31 -32 -27 -20
-16 -22 -9 -11 -25 -29 -27 -20
-15 -24 -7 -9 -23 -28 -26 -21
-15 -25 -5 -8 -22 -28 -28 -22
-14 -26 -4 -8 -21 -28 -29 -23
-14 -28 -3 -7 -20 -28 -30 -24
-14 -29 -2 -7 -20 -28 -31 -24
-13 -30 0 -6 -19 -28 -32 -25
-13 -30 0 -5 -18 -28 -32 -25
-13 -30 0 -5 -17 -28 -32 -25
-13 -30 0 -4 -16 -28 -32 -25
-13 -30 0 -4 -16 -28 -32 -25
-13 -30 1 -3 -15 -28 -31 -26
-13 -31 1 -3 -14 -28 -31 -26
-13 -31 1 -3 -13 -28 -31 -26
-13 -32 1 -3 -12 -28 -31 -26
-13 -32 1 -3 -12 -28 -31 -26
-12 -33 2 -4 -11 -29 -31 -27
-12 -33 3 -3 -11 -28 -31 -26
-12 -32 3 -2 -10 -28 -30 -25
-12 -32 4 0 -10 -27 -30 -24
-12 -32 4 0 -10 -27 -30 -24
-13 -31 5 1 -9 -26 -29 -23
-12 -30 4 0 -9 -26 -29 -23
-11 -30 4 0 -10 -25 -28 -23
-10 -29 3 -2 -10 -25 -28 -23
-9 -29 3 -2 -10 -25 -28 -23
-8 -28 2 -3 -11 -24 -27 -22
-8 -27 3 -2 -11 -23 -27 -22
-8 -27 3 -2 -11 -23 -26 -21
-8 -26 4 0 -11 -22 -26 -21
-8 -26 4 0 -11 -22 -26 -21
-9 -25 5 1 -11 -21 -25 -20
-9 -26 5 1 -11 -21 -25 -20
-9 -27 5 1 -11 -21 -25 -21
-9 -28 5 1 -11 -21 -25 -21
-9 -28 5 1 -11 -21 -25 -21
-8 -29 4 1 -12 -21 -26 -22
-8 -29 4 1 -11 -20 -25 -22
-8 -29 4 2 -10 -20 -24 -22
-8 -29 4 2 -9 -19 -23 -22
-8 -29 4 2 -9 -19 -23 -22
-8 -28 3 3 -8 -18 -22 -21
-8 -27 3 3 -8 -18 -22 -21
-7 -26 3 3 -7 -18 -22 -21
-7 -25 3 3 -7 -18 -22 -21
-7 -24 3 3 -7 -18 -22 -21
-6 -23 2 3 -6 -17 -21 -20
-5 -23 2 3 -5 -17 -20 -20
-5 -23 2 4 -5 -17 -20 -20
-4 -23 2 4 -4 -17 -19 -20
-4 -23 2 4 -4 -17 -19 -20
-3 -22 3 5 -3 -16 -18 -19
-2 -22 3 5 -2 -16 -17 -19
-2 -22 3 6 0 -16 -17 -19
0 -22 3 6 1 -16 -16 -19
0 -22 3 6 1 -16 -16 -19
1 -23 2 7 2 -15 -15 -20
1 -22 2 8 4 -14 -14 -20
1 -21 2 8 5 -14 -14 -20
1 -20 2 9 6 -13 -13 -20
1 -19 2 9 7 -13 -13 -20
2 -18 2 10 8 -12 -12 -19
3 -18 1 10 10 -11 -12 -19
4 -17 0 10 11 -11 -11 -19
6 -17 -2 10 12 -10 -11 -19
7 -17 -3 10 13 -10 -11 -19
8 -16 -4 11 14 -9 -10 -18
9 -16 -4 11 15 -9 -8 -18
10 -15 -4 12 16 -8 -7 -17
10 -15 -4 12 17 -8 -6 -17
11 -15 -4 12 18 -8 -5 -17
13 -14 -5 13 20 -6 -3 -15
15 -13 -6 14 22 -4 0 -14
16 -12 -7 15 23 0 1 -12
18 -11 -8 15 25 2 3 -11
20 -10 -9 16 27 4 5 -9
22 -8 -10 17 28 5 7 -7
23 -7 -11 17 28 6 8 -6
25 -5 -11 17 28 7 9 -5
26 -4 -12 17 28 8 11 -3
28 -2 -12 17 28 9 12 -2
29 1 -13 17 28 10 13 1
29 2 -14 16 29 11 15 2
29 3 -15 15 29 11 16 3
29 5 -16 15 30 12 17 5
29 6 -17 14 30 12 18 6
29 7 -18 13 31 13 19 7
30 8 -18 12 31 13 19 8
31 8 -18 12 30 13 19 9
31 9 -18 11 30 13 19 9
32 9 -18 11 30 13 19 10
33 10 -19 9 29 13 20 11
32 10 -19 7 27 12 19 11
31 11 -20 5 26 11 19 10
31 11 -20 3 25 10 18 10
30 11 -20 1 24 9 18 10
28 12 -20 0 23 8 17 9
27 12 -19 0 22 7 17 9
25 12 -18 0 21 6 16 9
24 12 -16 0 21 6 16 9
22 12 -15 0 20 5 16 9
20 13 -14 -2 19 4 15 9
18 12 -12 -2 18 3 14 8
17 11 -11 -2 18 3 13 8
15 10 -10 -2 17 2 12 7
13 9 -9 -2 17 2 11 7
11 8 -7 -2 16 0 9 5
9 7 -5 -2 14 -3 7 3
8 6 -4 -2 13 -5 5 2
6 5 -2 -2 12 -7 3 0
4 4 1 -2 11 -9 1 -3
3 2 2 -3 10 -10 -2 -5
2 0 3 -3 10 -10 -3 -6
1 -2 3 -3 10 -11 -4 -7
0 -4 4 -3 10 -11 -6 -9
-2 -6 4 -3 10 -11 -7 -10
-3 -7 5 -2 9 -12 -8 -11
-4 -7 6 -2 7 -14 -9 -11
-5 -7 6 -2 6 -15 -10 -12
-6 -7 7 -2 5 -17 -11 -12
-7 -7 7 -2 4 -18 -12 -12
-8 -6 8 -3 3 -19 -13 -13
-8 -8 8 -3 3 -19 -13 -15
-9 -9 8 -3 3 -19 -14 -16
-9 -10 8 -3 3 -19 -14 -17
-9 -11 8 -3 3 -19 -14 -18
-10 -12 7 -3 3 -20 -15 -19
-11 -12 7 -3 3 -20 -15 -19
-11 -12 7 -3 2 -20 -16 -19
-12 -12 7 -3 2 -20 -16 -19
-12 -12 7 -3 2 -20 -16 -19
-13 -12 6 -4 1 -21 -17 -20
-13 -12 6 -3 1 -20 -17 -20
-13 -12 6 -2 2 -20 -17 -20
-13 -12 6 -2 2 -19 -17 -20
-13 -12 6 0 2 -19 -17 -20
-14 -13 7 1 3 -18 -16 -20
-14 -13 8 2 3 -17 -15 -20
-14 -13 9 3 4 -16 -15 -20
-14 -13 10 3 4 -16 -14 -20
-14 -13 11 4 4 -15 -14 -20
-13 -14 12 5 5 -14 -13 -20
-12 -14 12 5 5 -14 -13 -20
-12 -13 11 5 5 -14 -13 -20
-11 -13 11 5 5 -14 -13 -20
-11 -13 11 5 5 -14 -13 -20
-10 -12 10 5 5 -14 -14 -21
-10 -12 11 7 5 -12 -14 -21
-10 -12 11 8 6 -11 -13 -20
-10 -12 12 9 6 -10 -13 -20
-10 -12 12 10 6 -9 -13 -20
-10 -13 13 11 7 -8 -12 -19
-10 -13 13 11 7 -8 -12 -19
-10 -13 13 11 7 -7 -12 -19
-10 -13 13 11 7 -7 -12 -19
-10 -13 13 11 7 -7 -12 -19
-10 -14 13 10 6 -6 -12 -19
-10 -13 13 10 6 -6 -12 -19
-9 -13 13 10 6 -6 -11 -19
-9 -12 13 10 6 -6 -11 -19
-9 -12 13 10 6 -6 -11 -19
-8 -11 14 11 5 -5 -10 -18
-7 -11 13 11 5 -5 -10 -18
-7 -11 13 10 5 -5 -10 -18
-6 -11 12 10 5 -5 -10 -18
-6 -11 12 10 5 -5 -10 -18
-5 -12 11 9 4 -5 -9 -18
-5 -10 12 9 4 -4 -9 -17
-5 -9 12 9 4 -3 -8 -16
-5 -8 13 9 4 -3 -8 -16
-5 -7 13 9 4 -2 -8 -15
-4 -6 14 9 3 0 -7 -14
-4 -4 15 9 3 0 -6 -13
-3 -3 16 10 3 0 -5 -12
-3 0 16 11 3 0 -4 -11
-3 1 17 11 3 0 -3 -10
-2 3 18 12 4 1 -2 -9
-2 4 19 13 5 2 -2 -8
-2 6 20 14 6 3 0 -7
-2 7 21 15 6 4 1 -7
-2 9 22 16 7 5 1 -6
-3 10 23 17 8 6 2 -5
-3 12 24 17 8 6 3 -4
-3 13 25 17 8 7 4 -3
-3 15 25 17 8 8 4 -2
-3 16 26 17 8 8 5 0
-2 17 27 18 8 9 6 1
-2 18 27 18 8 9 6 1
-3 20 27 18 9 9 7 2
-4 21 27 18 9 9 8 2
-4 22 27 18 9 9 8 2
-5 23 25 18 10 10 9 3
-4 21 23 17 8 9 8 3
-3 20 21 15 7 8 6 3
-2 18 18 13 5 7 5 3
0 17 16 11 4 6 4 3
1 16 15 10 3 5 3 2
1 15 15 10 3 5 3 2
1 13 15 10 3 5 3 1
1 12 15 10 3 5 3 0
1 11 15 10 3 5 3 0
0 9 16 10 2 4 3 -2
0 6 15 10 2 4 2 -3
-2 3 14 10 1 3 1 -4
-3 0 13 10 0 2 1 -5
-3 -3 12 10 0 2 0 -6
-4 -5 11 8 -3 0 -3 -7
-5 -7 11 7 -4 -2 -5 -9
-6 -8 11 5 -6 -4 -7 -10
-6 -10 11 4 -7 -5 -9 -12
-7 -11 11 2 -9 -7 -11 -13
-8 -12 10 1 -10 -8 -12 -14
-8 -13 9 0 -10 -8 -12 -14
-9 -15 8 -2 -11 -9 -13 -15
-10 -16 7 -3 -12 -10 -13 -15
-10 -17 6 -4 -12 -10 -13 -15
-11 -18 5 -5 -13 -11 -14 -16
-11 -18 5 -5 -13 -11 -14 -16
-11 -18 5 -6 -14 -12 -15 -16
-11 -18 5 -6 -15 -13 -15 -16
-11 -18 5 -6 -15 -13 -15 -16
-11 -19 5 -7 -16 -14 -16 -17
-11 -19 5 -7 -16 -14 -16 -17
-11 -20 4 -7 -17 -14 -16 -18
-11 -20 4 -7 -18 -14 -16 -18
-11 -20 4 -7 -18 -14 -16 -18
-10 -21 3 -8 -19 -14 -17 -19
-10 -21 3 -8 -19 -14 -17 -19
-10 -21 3 -8 -20 -15 -17 -19
-10 -21 3 -8 -20 -15 -17 -19
-10 -21 3 -8 -20 -15 -17 -19
-10 -20 3 -8 -21 -16 -18 -19
-10 -20 3 -8 -21 -16 -18 -19
-10 -21 3 -8 -20 -15 -18 -18
-10 -21 3 -8 -19 -15 -18 -18
-10 -21 3 -8 -19 -15 -18 -18
-9 -22 2 -7 -18 -14 -17 -18
-8 -23 3 -5 -17 -14 -18 -19
-6 -25 4 -2 -16 -14 -20 -21
-4 -26 4 1 -16 -14 -21 -23
-2 -27 5 4 -15 -14 -22 -25
0 -26 13 14 -8 -11 -21 -25
2 -23 25 30 5 -3 -16 -21
3 -20 36 47 16 6 -12 -18
5 -16 49 63 28 14 -8 -15
6 -13 61 79 39 22 -3 -12
8 6 66 87 55 40 16 6
11 34 65 86 71 65 44 32
14 62 63 85 89 90 70 59
17 90 62 85 105 114 98 86
20 118 61 84 122 139 126 111
18 144 46 68 130 156 149 136
11 168 21 44 130 168 171 160
3 192 -4 20 130 180 193 184
-5 216 -29 -5 130 192 215 207
-13 240 -54 -29 130 204 236 231
-18 233 -76 -55 104 183 222 223
-22 203 -98 -81 62 138 182 192
-26 174 -120 -109 19 93 142 160
-31 143 -142 -136 -24 48 102 129
-35 113 -163 -162 -67 2 62 98
-36 91 -162 -163 -83 -19 38 74
-32 72 -145 -145 -79 -24 25 57
-29 54 -128 -128 -76 -29 12 39
-26 36 -110 -109 -73 -34 0 22
-23 18 -93 -92 -70 -39 -14 5
-21 7 -77 -77 -65 -40 -20 -4
-20 2 -65 -65 -59 -39 -22 -7
-19 -4 -53 -53 -53 -37 -24 -10
-18 -9 -40 -41 -48 -35 -25 -13
-17 -14 -28 -29 -41 -33 -27 -15
-16 -18 -20 -22 -37 -32 -28 -17
-15 -20 -17 -19 -34 -30 -28 -18
-14 -22 -13 -15 -32 -28 -27 -19
-13 -24 -10 -12 -29 -27 -27 -19
-12 -27 -6 -8 -27 -25 -27 -20
-11 -28 -4 -6 -25 -24 -26 -21
-11 -28 -4 -6 -25 -24 -26 -21
-11 -29 -3 -6 -24 -23 -25 -21
-11 -30 -2 -6 -24 -22 -25 -21
-11 -30 -2 -6 -24 -22 -25 -21
-10 -31 0 -5 -23 -21 -24 -21
-10 -31 0 -5 -22 -21 -24 -21
-9 -30 0 -5 -21 -22 -25 -22
-9 -30 0 -5 -21 -22 -25 -22
-9 -30 0 -5 -20 -22 -25 -22
-8 -29 1 -4 -19 -23 -26 -23
-8 -29 1 -4 -19 -23 -26 -22
-8 -29 1 -4 -18 -22 -25 -21
-8 -29 1 -4 -17 -22 -25 -20
-8 -29 1 -4 -17 -22 -25 -19
-7 -29 0 -5 -16 -21 -24 -18
-7 -29 0 -5 -16 -21 -24 -18
-6 -29 1 -5 -16 -20 -23 -18
-6 -29 1 -5 -16 -19 -23 -18
-6 -29 1 -5 -16 -19 -23 -18
-5 -29 2 -4 -16 -18 -22 -17
-5 -29 2 -4 -16 -18 -22 -17
-5 -28 2 -4 -16 -17 -22 -16
-5 -27 2 -4 -16 -16 -22 -16
-5 -27 2 -4 -16 -16 -22 -16
-4 -26 2 -3 -17 -15 -21 -15
-4 -26 2 -3 -17 -15 -21 -15
-4 -26 2 -2 -17 -15 -21 -15
-4 -26 2 -2 -17 -15 -21 -15
-4 -26 2 -2 -17 -15 -21 -15
-4 -25 3 0 -17 -14 -20 -14
-4 -25 3 0 -17 -13 -20 -14
-4 -25 3 1 -16 -12 -19 -13
-4 -25 3 1 -16 -12 -18 -13
-4 -25 3 1 -16 -11 -18 -13
-4 -25 3 2 -15 -10 -17 -12
-4 -25 3 2 -15 -10 -17 -14
-3 -24 3 2 -14 -10 -17 -15
-3 -24 3 2 -14 -10 -17 -16
-3 -24 3 2 -14 -10 -17 -18
-2 -23 2 3 -13 -10 -16 -19
-2 -23 2 3 -12 -10 -16 -19
0 -23 2 3 -11 -10 -16 -18
1 -23 2 3 -10 -10 -16 -18
1 -23 2 3 -9 -10 -16 -18
2 -22 2 4 -8 -9 -16 -17
2 -22 2 4 -8 -9 -16 -17
2 -22 2 5 -7 -9 -15 -17
2 -22 2 6 -7 -9 -14 -17
2 -22 2 6 -7 -9 -14 -17
1 -21 2 7 -6 -8 -13 -17
2 -20 2 7 -6 -8 -13 -17
3 -19 1 7 -5 -8 -12 -17
3 -19 1 7 -4 -8 -11 -17
4 -18 1 7 -4 -8 -11 -17
5 -17 0 6 -3 -7 -10 -18
5 -17 0 6 -2 -7 -10 -18
6 -17 -2 7 1 -6 -9 -18
7 -17 -2 7 2 -6 -8 -18
7 -17 -2 7 3 -6 -8 -18
8 -16 -3 8 4 -5 -7 -17
10 -16 -3 8 5 -3 -6 -16
11 -15 -4 9 7 -2 -5 -15
12 -15 -4 10 8 0 -5 -15
14 -15 -4 10 9 2 -4 -14
15 -14 -5 11 10 3 -3 -13
17 -14 -6 11 11 4 0 -12
19 -13 -7 11 13 5 2 -10
20 -13 -8 11 14 5 3 -9
22 -13 -9 11 15 6 5 -8
23 -11 -10 12 16 7 6 -6
24 -9 -11 12 17 9 8 -4
25 -7 -12 12 19 11 10 -2
26 -5 -12 12 20 12 12 1
27 -3 -13 12 21 14 14 3
28 0 -14 12 22 15 15 4
30 1 -15 12 22 15 16 5
31 2 -16 12 22 16 17 6
32 3 -16 12 22 16 18 7
34 4 -17 12 22 16 19 8
35 5 -18 12 23 17 20 9
35 7 -18 11 23 17 20 9
35 9 -19 10 22 17 21 10
35 10 -19 10 22 17 22 11
35 12 -19 9 22 17 22 11
36 13 -20 8 21 18 23 12
36 13 -20 7 21 18 23 12
35 13 -20 5 20 17 23 13
34 13 -20 4 19 17 23 14
34 13 -20 3 19 17 23 14
33 13 -21 2 18 16 22 15
32 13 -21 2 17 15 22 15
31 14 -20 1 15 14 22 15
30 15 -19 1 14 14 22 15
29 15 -19 1 13 13 22 15
28 16 -18 0 12 12 21 14
26 15 -16 0 12 11 20 14
24 14 -15 -2 11 10 19 13
23 14 -14 -2 11 9 18 12
21 13 -12 -2 11 8 17 12
20 12 -11 -3 10 7 16 11
18 10 -9 -3 10 5 14 10
16 8 -7 -3 9 4 12 8
14 7 -5 -3 8 3 10 7
12 5 -3 -3 8 1 8 6
11 4 -2 -2 7 0 7 5
10 4 0 -2 7 -2 5 3
9 4 1 -2 6 -3 4 1
7 3 3 -2 5 -4 3 -2
6 3 4 -2 5 -5 1 -4
5 2 5 -2 4 -6 0 -5
3 0 6 -2 4 -6 -2 -5
2 -2 6 -2 3 -6 -2 -6
1 -4 7 -2 2 -7 -3 -7
-2 -6 8 -2 2 -7 -4 -7
-3 -7 9 0 1 -8 -5 -8
-4 -7 9 0 1 -9 -6 -9
-4 -7 9 0 0 -10 -7 -10
-5 -8 9 0 -2 -12 -9 -12
-6 -8 9 0 -2 -13 -10 -13
-7 -9 9 -2 -3 -14 -11 -14
-7 -9 9 -2 -3 -14 -11 -14
-7 -9 9 -2 -3 -14 -11 -15
-8 -10 9 -2 -3 -14 -12 -16
-8 -10 9 -2 -3 -14 -12 -16
-9 -11 8 -3 -3 -15 -13 -17
-9 -11 8 -3 -3 -15 -13 -17
-9 -12 8 -3 -3 -15 -13 -17
-10 -13 8 -2 -3 -14 -13 -17
-10 -13 8 -2 -3 -14 -13 -17
-11 -14 8 0 -2 -13 -12 -17
-10 -14 8 0 -2 -13 -12 -17
-10 -14 8 1 -2 -13 -12 -17
-9 -14 8 2 0 -13 -12 -17
-8 -14 8 2 0 -13 -12 -17
-7 -13 8 3 1 -13 -12 -16
-7 -13 8 4 2 -12 -12 -16
-7 -13 8 4 2 -12 -12 -16
-8 -13 9 5 3 -11 -11 -16
-8 -13 9 6 4 -10 -11 -16
-9 -14 10 7 5 -9 -10 -15
-9 -14 10 7 5 -9 -10 -15
-9 -14 10 7 5 -8 -10 -15
-9 -14 10 7 5 -7 -10 -15
-9 -14 10 7 5 -7 -10 -15
-8 -14 11 8 5 -6 -9 -15
-8 -14 11 8 5 -6 -9 -15
-8 -14 11 8 5 -6 -9 -15
-8 -14 11 8 4 -6 -9 -15
-8 -14 11 8 4 -6 -9 -15
-7 -13 11 9 3 -6 -9 -15
-7 -13 11 9 3 -6 -9 -15
-7 -13 11 9 3 -5 -9 -15
-6 -13 11 9 3 -4 -9 -14
-6 -13 11 9 3 -4 -9 -14
-5 -14 12 10 3 -3 -8 -13
-5 -14 12 10 3 -3 -8 -13
-5 -14 12 10 3 -3 -8 -13
-5 -14 12 10 3 -3 -8 -13
-5 -14 12 10 3 -3 -8 -13
-6 -14 12 11 3 -2 -8 -13
-6 -14 12 11 2 -2 -8 -13
-5 -14 12 10 1 -2 -8 -13
-4 -14 11 9 0 -2 -8 -13
-4 -14 11 9 -2 -2 -8 -13
-3 -14 10 8 -3 -3 -8 -12
-3 -14 10 8 -3 -3 -8 -12
-3 -14 10 8 -3 -3 -8 -12
-3 -13 10 8 -3 -4 -8 -12
-3 -13 10 8 -3 -4 -8 -12
-2 -12 11 7 -4 -5 -9 -12
-2 -10 11 8 -3 -4 -8 -11
-2 -9 12 8 -2 -3 -7 -10
-2 -8 13 9 0 -2 -5 -8
-2 -6 13 10 1 0 -4 -7
-3 -5 14 11 2 1 -3 -6
-3 -3 16 12 2 1 -3 -5
-3 -2 17 12 2 2 -2 -5
-3 0 18 13 3 3 0 -4
-3 2 20 14 3 3 0 -3
-2 3 21 15 4 4 1 -2
-2 5 22 15 5 5 2 0
-2 7 22 15 5 5 2 0
-2 9 23 15 6 6 3 1
-2 10 24 15 7 7 4 2
-2 12 25 16 8 8 5 3
-2 14 25 17 9 8 6 3
-2 15 26 17 9 9 6 3
-2 17 27 18 10 10 7 4
-2 19 27 19 11 10 8 4
-2 20 28 20 12 11 9 5
-2 20 26 19 11 11 9 5
-2 20 25 18 11 11 9 5
-2 20 24 16 10 11 9 5
-2 20 22 15 9 11 9 5
-3 20 21 14 8 10 8 6
-2 18 20 14 8 10 8 6
0 16 20 14 7 10 7 6
1 14 19 13 6 9 6 6
2 12 18 13 6 9 6 6
3 10 17 12 5 8 5 5
3 9 17 12 5 7 4 4
3 8 16 11 4 7 4 4
2 6 15 10 3 6 3 3
2 5 15 10 3 5 2 2
1 3 14 9 2 4 1 1
0 0 14 8 1 3 0 -2
-2 -4 14 7 0 2 -2 -4
-4 -7 13 5 -3 0 -4 -6
-5 -10 13 4 -4 -2 -5 -8
-6 -12 12 3 -5 -3 -6 -10
-7 -12 11 2 -6 -4 -7 -10
-7 -13 11 1 -7 -5 -8 -11
-8 -14 10 0 -9 -7 -10 -12
-9 -14 9 -2 -10 -8 -11 -12
-10 -15 8 -3 -11 -9 -12 -13
-10 -16 8 -3 -12 -9 -13 -13
-10 -16 7 -4 -13 -10 -13 -14
-10 -17 6 -5 -14 -11 -14 -15
-10 -18 6 -5 -15 -11 -15 -15
-10 -19 5 -6 -16 -12 -16 -16
-10 -19 5 -6 -16 -12 -16 -16
-10 -20 5 -6 -16 -12 -16 -16
-10 -21 5 -6 -16 -12 -16 -16
-10 -21 5 -6 -16 -12 -16 -16
-11 -22 4 -6 -16 -12 -16 -15
-10 -22 4 -6 -16 -12 -16 -15
-10 -22 4 -6 -16 -12 -17 -16
-9 -21 3 -7 -17 -13 -18 -17
-8 -21 3 -7 -17 -13 -18 -17
-7 -20 2 -8 -18 -14 -19 -18
-7 -20 2 -8 -18 -14 -19 -18
-8 -20 2 -8 -18 -14 -19 -18
-9 -20 2 -8 -18 -14 -19 -18
-9 -20 2 -8 -18 -14 -19 -18
-10 -21 2 -7 -18 -13 -19 -18
-10 -21 2 -7 -18 -13 -19 -18
-10 -22 2 -7 -18 -13 -19 -18
-10 -23 2 -7 -18 -13 -19 -18
-10 -23 2 -7 -18 -13 -19 -18
-9 -24 4 -6 -17 -12 -18 -18
-6 -27 8 2 -14 -12 -19 -20
-3 -29 12 9 -10 -12 -20 -23
1 -31 15 16 -7 -12 -22 -26
5 -33 19 22 -4 -12 -23 -29
7 -31 26 32 5 -7 -20 -28
8 -19 39 49 21 9 -9 -18
10 -7 53 64 36 24 3 -9
11 5 65 79 52 39 14 2
13 17 78 95 67 54 26 12
14 37 81 100 82 73 46 30
15 69 68 87 96 100 78 64
15 101 55 73 109 126 111 97
16 134 40 60 122 152 144 131
17 165 27 47 136 179 177 163
14 188 9 28 140 193 197 186
4 194 -19 2 127 185 197 191
-8 200 -46 -24 112 177 197 195
-18 206 -72 -51 99 170 197 200
-29 214 -99 -77 85 161 197 205
-36 205 -118 -97 64 142 182 196
-35 172 -123 -106 31 104 144 160
-34 138 -129 -116 -2 66 105 126
-32 104 -135 -126 -33 27 67 90
-31 69 -140 -136 -66 -11 28 55
-30 44 -138 -136 -86 -35 2 29
-27 32 -119 -118 -80 -36 -6 19
-25 21 -100 -102 -75 -37 -13 9
-23 10 -81 -85 -70 -38 -20 -2
-21 -2 -63 -67 -65 -39 -27 -12
-19 -10 -48 -53 -59 -39 -32 -19
-19 -12 -39 -45 -54 -36 -30 -19
-18 -14 -30 -35 -48 -32 -29 -19
-17 -16 -22 -27 -41 -29 -27 -19
-17 -18 -13 -18 -35 -26 -26 -19
-16 -20 -7 -12 -31 -23 -24 -20
-15 -23 -6 -11 -30 -23 -24 -20
-14 -26 -4 -9 -28 -22 -24 -20
-12 -28 -3 -8 -27 -21 -24 -21
-11 -31 0 -6 -25 -21 -24 -21
-10 -33 1 -5 -24 -20 -25 -22
-10 -32 1 -5 -24 -20 -25 -22
-10 -32 1 -6 -24 -20 -25 -22
-10 -31 1 -7 -24 -20 -25 -22
-10 -30 1 -7 -24 -20 -25 -22
-9 -29 1 -8 -24 -20 -26 -22
-9 -29 1 -8 -23 -20 -26 -22
-9 -29 2 -8 -23 -20 -26 -22
-9 -29 3 -7 -22 -19 -26 -22
-9 -29 3 -7 -21 -19 -26 -22
-8 -29 4 -6 -20 -18 -26 -22
-8 -29 4 -6 -20 -18 -26 -21
-8 -29 4 -6 -20 -18 -26 -21
-8 -29 5 -5 -20 -17 -25 -20
-8 -29 5 -5 -20 -17 -25 -19
-8 -28 6 -4 -19 -16 -24 -18
-8 -28 6 -4 -19 -16 -24 -18
-8 -28 6 -4 -19 -16 -24 -18
-7 -28 6 -4 -19 -15 -24 -18
-7 -28 6 -4 -19 -15 -24 -18
-6 -28 6 -4 -19 -14 -25 -18
-6 -27 6 -4 -19 -14 -24 -18
-6 -26 6 -4 -19 -13 -24 -17
-6 -25 5 -4 -20 -12 -23 -16
-6 -24 5 -4 -20 -12 -22 -16
-6 -23 4 -5 -21 -11 -21 -15
-6 -23 4 -5 -21 -10 -21 -15
-6 -23 4 -5 -21 -10 -21 -15
-5 -23 4 -4 -20 -9 -21 -15
-5 -23 4 -4 -20 -8 -21 -15
-4 -23 4 -3 -19 -7 -21 -15
-4 -23 4 -3 -19 -7 -21 -15
-4 -23 4 -3 -19 -7 -20 -15
-4 -23 4 -3 -19 -7 -20 -14
-4 -23 4 -3 -19 -7 -19 -14
-5 -22 4 -3 -19 -7 -18 -13
-4 -22 4 -3 -19 -7 -18 -13
-3 -22 4 -3 -19 -7 -18 -13
-2 -22 4 -2 -19 -7 -18 -13
0 -22 4 -2 -19 -7 -18 -13
1 -21 3 0 -18 -8 -17 -14
1 -21 3 0 -18 -8 -16 -14
1 -20 3 0 -17 -7 -15 -13
1 -20 2 0 -17 -7 -14 -13
1 -19 2 0 -16 -6 -13 -12
1 -18 1 0 -15 -5 -12 -11
1 -18 1 0 -14 -5 -12 -11
1 -18 1 1 -14 -5 -12 -11
1 -18 2 1 -13 -5 -12 -11
1 -18 2 2 -12 -5 -12 -11
2 -19 3 3 -11 -6 -12 -12
2 -19 3 3 -10 -5 -12 -11
3 -19 3 3 -10 -5 -11 -10
3 -18 3 3 -9 -4 -11 -9
4 -18 3 3 -8 -3 -10 -8
5 -17 2 4 -7 -2 -9 -7
6 -16 2 4 -6 -2 -9 -7
8 -16 2 4 -5 0 -9 -7
9 -15 1 4 -4 0 -9 -7
11 -14 1 4 -2 1 -9 -7
12 -13 0 5 0 2 -8 -7
12 -12 0 5 1 3 -7 -6
13 -12 -2 5 1 4 -6 -5
13 -11 -2 5 2 5 -5 -4
14 -10 -3 5 3 7 -4 -3
15 -9 -4 6 4 8 -3 -2
18 -7 -5 6 5 9 -2 0
20 -6 -6 6 6 11 1 1
22 -4 -7 6 7 12 2 2
25 -3 -8 6 9 14 4 4
27 0 -9 7 10 15 5 5
27 2 -10 7 10 16 8 7
28 4 -10 7 10 18 10 10
28 5 -11 8 10 19 12 12
29 7 -12 8 10 21 15 14
30 9 -13 9 11 22 17 16
31 10 -14 8 11 22 17 17
32 11 -15 8 11 22 17 17
33 12 -16 7 11 22 18 18
35 14 -18 6 11 22 18 19
36 15 -19 5 11 22 19 20
36 17 -19 5 11 22 20 21
36 19 -19 4 11 22 22 23
36 20 -19 4 11 23 23 24
36 22 -19 3 11 23 25 26
36 24 -19 2 11 24 26 27
36 23 -19 1 11 24 26 27
36 23 -19 1 11 24 26 27
35 22 -18 0 10 23 26 27
35 21 -18 -2 10 23 26 27
34 20 -17 -3 9 22 25 26
32 20 -16 -3 9 21 25 26
31 20 -15 -3 9 21 24 27
29 21 -14 -3 8 20 24 27
28 21 -12 -3 8 19 23 28
26 22 -11 -3 7 18 22 29
25 22 -10 -3 7 17 21 28
23 21 -8 -3 7 16 20 27
22 21 -7 -2 7 15 19 26
21 20 -6 -2 7 14 17 24
19 19 -4 0 6 13 16 23
17 18 -3 0 6 12 14 21
14 16 0 0 5 10 11 20
12 15 1 0 5 9 9 18
10 14 2 0 4 8 7 17
8 12 4 0 3 6 5 15
8 10 5 0 2 5 4 14
8 9 5 0 1 4 2 12
7 7 6 0 0 3 1 11
7 6 7 0 -2 2 0 10
6 4 8 0 -3 1 -3 8
4 3 8 0 -3 1 -4 8
2 3 9 0 -4 1 -4 7
-2 2 9 0 -4 1 -5 7
-4 1 10 0 -5 1 -6 6
-6 0 11 0 -6 0 -7 5
-6 -2 11 0 -6 0 -8 4
-6 -3 11 0 -6 -2 -9 2
-7 -4 11 0 -6 -2 -10 1
-7 -6 11 0 -6 -3 -11 0
-8 -7 10 0 -7 -4 -12 -3
-8 -7 10 0 -7 -4 -12 -3
-8 -7 10 0 -7 -4 -12 -3
-9 -7 10 0 -7 -4 -12 -3
-9 -7 10 0 -7 -4 -12 -3
-10 -8 9 0 -8 -5 -12 -4
-10 -8 9 0 -8 -5 -12 -4
-9 -8 9 0 -8 -5 -12 -4
-9 -8 9 1 -8 -4 -12 -4
-8 -8 9 1 -8 -4 -12 -4
-7 -8 10 2 -7 -3 -12 -4
-7 -8 10 3 -7 -3 -12 -4
-7 -8 10 3 -7 -2 -12 -4
-7 -8 10 4 -7 -2 -12 -3
-7 -8 10 5 -7 0 -12 -3
-8 -8 11 6 -7 1 -11 -2
-8 -8 11 6 -7 1 -11 -2
-8 -8 11 6 -7 1 -11 -2
-7 -8 11 7 -7 1 -11 -2
-7 -8 11 7 -7 1 -11 -2
-6 -9 11 8 -6 2 -10 -2
-6 -9 11 8 -6 2 -10 -2
-6 -9 11 8 -6 2 -10 -2
-6 -9 11 8 -6 2 -10 -2
-6 -9 11 8 -6 2 -10 -2
-7 -8 12 9 -5 3 -10 -2
-7 -8 12 9 -5 3 -10 -2
-7 -8 12 9 -5 3 -10 -2
-7 -8 12 9 -5 3 -10 -2
-7 -8 12 9 -5 3 -10 -2
-7 -7 11 9 -6 3 -10 -2
-7 -7 11 9 -6 3 -10 -2
-6 -7 11 9 -6 3 -10 -2
-5 -7 11 9 -6 3 -9 0
-4 -7 11 9 -6 3 -9 0
-3 -8 11 9 -6 4 -8 1
-3 -8 11 9 -6 4 -8 1
-3 -8 11 9 -6 4 -8 1
-3 -8 10 9 -6 4 -8 1
-3 -8 10 9 -6 4 -8 1
-3 -7 9 8 -7 3 -9 1
-3 -7 9 8 -7 3 -9 1
-3 -7 9 8 -8 3 -9 1
-3 -7 9 7 -9 3 -9 1
-3 -7 9 7 -10 3 -9 1
-4 -7 9 6 -11 2 -9 1
-4 -7 9 6 -11 2 -9 1
-4 -7 9 6 -11 2 -9 1
-4 -7 9 6 -11 2 -9 1
-4 -7 9 6 -11 2 -9 1
-4 -7 8 5 -11 1 -8 0
-4 -7 8 5 -11 1 -8 0
-4 -7 9 5 -11 1 -8 0
-3 -6 10 5 -11 1 -8 0
-3 -6 11 5 -11 1 -8 0
-2 -5 12 5 -12 2 -7 1
-2 -4 12 6 -12 2 -7 1
0 -2 13 7 -11 2 -6 2
0 1 13 8 -10 2 -6 2
1 2 14 10 -9 2 -5 3
2 4 15 11 -8 3 -4 4
2 5 16 11 -8 4 -4 5
1 7 17 11 -7 5 -4 6
0 8 18 11 -6 6 -3 7
-2 9 20 11 -5 7 -3 8
-3 11 21 12 -4 8 -2 9
-3 13 21 13 -3 9 0 9
-3 15 22 14 -2 10 1 10
-3 17 23 15 0 11 2 11
-3 19 24 17 2 12 4 12
-2 21 25 18 3 13 5 13
-2 22 25 18 3 13 5 13
-2 23 25 18 3 13 5 13
-3 24 25 17 3 13 6 13
-3 26 25 17 3 13 6 13
-4 27 25 16 3 12 7 14
-3 25 24 15 2 12 7 14
0 23 23 13 1 11 7 14
2 21 22 12 0 10 6 14
3 19 21 11 -2 9 6 14
5 17 20 9 -3 8 5 13
5 17 19 9 -3 8 5 13
5 17 17 9 -4 8 5 12
4 16 15 9 -4 7 4 11
4 16 14 9 -5 7 4 10
3 15 12 8 -6 6 3 9
3 11 12 8 -6 6 3 8
2 8 12 8 -6 5 2 7
2 5 12 8 -6 5 1 6
1 1 12 8 -6 4 0 5
0 -3 11 7 -5 3 -2 4
-2 -4 11 6 -6 1 -4 2
-3 -6 10 4 -8 0 -5 0
-4 -8 9 2 -10 -3 -7 -3
-6 -9 8 1 -11 -5 -9 -5
-7 -11 7 -2 -13 -7 -11 -7
-7 -12 7 -2 -13 -7 -11 -8
-8 -13 7 -2 -14 -8 -12 -9
-8 -14 7 -3 -14 -8 -12 -10
-9 -16 7 -3 -15 -9 -13 -12
-10 -17 6 -4 -16 -10 -14 -13
-10 -17 6 -4 -16 -10 -14 -13
-10 -17 6 -4 -17 -11 -14 -13
-10 -17 5 -5 -17 -11 -15 -13
-10 -17 5 -5 -18 -12 -15 -13
-10 -17 4 -6 -19 -13 -16 -12
-10 -17 4 -6 -19 -13 -16 -12
-10 -17 4 -6 -18 -13 -16 -13
-10 -17 4 -6 -18 -13 -16 -13
-10 -17 4 -6 -17 -13 -16 -14
-10 -17 3 -7 -16 -14 -17 -15
-10 -17 3 -7 -16 -14 -17 -15
-10 -17 3 -7 -16 -14 -17 -16
-9 -17 3 -7 -16 -14 -17 -17
-9 -17 3 -7 -16 -14 -17 -18
-8 -16 3 -8 -17 -15 -17 -19
-8 -16 3 -8 -17 -15 -17 -19
-8 -16 3 -8 -17 -15 -17 -20
-9 -17 3 -8 -16 -15 -17 -21
-9 -17 3 -8 -16 -15 -17 -22
-10 -18 2 -8 -15 -16 -18 -23
-9 -19 2 -7 -15 -16 -19 -24
-7 -20 2 -5 -14 -16 -20 -26
-6 -21 3 -4 -14 -16 -21 -28
-5 -22 3 -3 -13 -16 -22 -29
-3 -24 5 2 -11 -17 -23 -31
0 -22 14 15 0 -13 -22 -31
3 -20 24 28 10 -10 -20 -32
5 -18 33 42 19 -6 -19 -33
7 -16 44 55 29 -3 -18 -34
10 -11 52 67 40 5 -13 -32
12 14 56 72 59 30 13 -9
14 37 59 77 76 55 38 15
16 61 63 82 94 79 64 37
19 86 66 87 112 104 90 61
21 110 67 89 128 128 115 86
17 138 48 68 135 146 142 113
14 165 27 48 141 163 169 141
10 193 7 26 147 182 194 169
7 221 -14 6 153 200 221 196
2 241 -34 -16 154 210 238 216
-7 216 -59 -43 115 169 204 188
-16 190 -83 -68 75 128 171 160
-25 164 -107 -94 36 87 136 132
-33 140 -132 -120 -3 46 102 104
-41 115 -152 -142 -36 9 70 76
-38 94 -140 -132 -43 -4 52 55
-34 73 -128 -122 -48 -15 32 32
-31 53 -115 -112 -53 -26 14 11
-27 32 -103 -103 -59 -38 -5 -12
-24 14 -91 -93 -63 -49 -21 -31
-23 9 -77 -79 -56 -47 -22 -34
-22 4 -64 -67 -48 -46 -23 -37
-20 -2 -51 -55 -40 -44 -25 -41
-19 -6 -37 -41 -32 -41 -26 -45
-17 -11 -25 -30 -25 -39 -28 -48
-16 -13 -21 -26 -22 -38 -28 -49
-15 -16 -17 -22 -20 -37 -28 -51
-14 -18 -12 -18 -17 -36 -27 -53
-13 -20 -8 -14 -14 -35 -27 -54
-12 -23 -4 -10 -11 -34 -26 -56
-12 -23 -4 -10 -11 -34 -26 -56
-12 -23 -4 -10 -10 -34 -26 -57
-11 -23 -3 -10 -9 -34 -26 -57
-11 -23 -3 -10 -8 -34 -26 -58
-10 -24 -2 -11 -7 -34 -27 -59
-10 -24 -2 -11 -6 -34 -27 -60
-10 -24 0 -11 -5 -34 -27 -61
-10 -24 0 -10 -4 -34 -27 -62
-10 -24 1 -10 -3 -34 -27 -63
-10 -23 2 -9 -2 -35 -28 -64
-10 -23 2 -9 -2 -35 -27 -64
-10 -23 2 -9 0 -34 -26 -64
-10 -23 2 -9 1 -33 -25 -63
-10 -23 2 -9 2 -32 -24 -63
-9 -23 3 -8 3 -31 -23 -62
-9 -23 3 -8 3 -31 -23 -62
-9 -23 3 -7 3 -31 -23 -62
-9 -23 4 -7 2 -31 -24 -63
-9 -23 4 -6 2 -31 -24 -63
-9 -22 5 -5 1 -30 -25 -64
-9 -22 5 -5 -3 -30 -25 -64
-8 -22 5 -6 -6 -30 -24 -63
-8 -22 5 -6 -9 -30 -24 -62
-7 -22 5 -7 -13 -30 -23 -61
-6 -22 5 -8 -16 -29 -22 -60
-6 -22 5 -8 -16 -29 -22 -60
-6 -21 5 -8 -16 -29 -22 -60
-6 -21 5 -8 -17 -29 -22 -60
-6 -20 5 -8 -17 -29 -22 -60
-5 -19 6 -9 -18 -30 -21 -61
-5 -19 6 -9 -18 -30 -21 -61
-5 -19 6 -9 -17 -29 -20 -61
-4 -19 6 -8 -17 -28 -20 -61
-4 -19 6 -8 -16 -27 -19 -61
-3 -20 7 -7 -15 -26 -18 -61
-3 -20 7 -7 -15 -26 -18 -61
-3 -20 7 -7 -15 -26 -18 -61
-3 -20 6 -7 -15 -27 -18 -61
-3 -20 6 -7 -15 -27 -18 -61
-3 -19 5 -8 -14 -28 -18 -62
-3 -19 5 -8 -14 -28 -18 -62
-3 -18 5 -8 -13 -28 -17 -62
-2 -18 5 -8 -13 -28 -17 -62
-2 -17 5 -8 -12 -28 -16 -62
0 -16 6 -9 -11 -27 -15 -61
0 -16 6 -9 -11 -27 -15 -61
0 -16 6 -9 -11 -27 -15 -61
0 -16 6 -8 -10 -27 -15 -61
0 -16 6 -8 -10 -27 -15 -61
-2 -16 7 -7 -9 -28 -15 -61
-2 -16 7 -7 -7 -27 -14 -60
0 -15 7 -7 -5 -26 -12 -59
0 -15 6 -7 -3 -25 -11 -58
1 -14 6 -7 1 -24 -9 -57
2 -13 5 -8 3 -22 -7 -56
3 -13 5 -8 3 -22 -7 -56
4 -13 5 -7 4 -22 -7 -56
5 -13 4 -6 5 -21 -7 -56
6 -13 4 -5 6 -21 -7 -56
7 -12 3 -4 7 -20 -7 -56
8 -11 3 -4 8 -19 -6 -55
9 -10 2 -4 9 -18 -5 -54
10 -8 2 -4 10 -17 -4 -53
11 -7 1 -4 11 -16 -3 -52
12 -5 0 -5 13 -15 0 -51
13 -5 0 -5 13 -15 0 -51
15 -5 0 -4 14 -14 1 -51
16 -5 -2 -3 14 -13 2 -50
18 -5 -2 -2 15 -12 3 -50
20 -5 -3 0 16 -11 4 -49
21 -4 -4 0 17 -10 6 -47
22 -3 -5 0 18 -8 8 -45
23 0 -6 -2 19 -6 10 -43
24 1 -7 -2 20 -4 12 -40
26 3 -9 -3 21 -2 15 -38
27 4 -10 -3 21 -2 16 -37
28 6 -11 -3 21 0 17 -36
30 7 -13 -3 21 1 18 -35
31 9 -14 -3 21 2 19 -34
33 11 -16 -4 22 3 21 -33
33 12 -16 -4 22 3 22 -32
33 13 -16 -5 22 3 23 -30
33 14 -16 -6 22 3 25 -28
33 15 -16 -7 22 3 26 -26
33 16 -16 -8 22 4 28 -24
33 17 -16 -8 22 4 28 -23
34 18 -16 -8 22 4 29 -22
34 19 -15 -8 22 4 29 -21
35 20 -15 -8 22 4 30 -20
36 21 -14 -9 21 5 31 -19
35 21 -14 -10 21 5 31 -19
33 21 -14 -11 20 4 30 -19
31 21 -14 -12 19 3 30 -20
29 21 -14 -13 18 2 29 -20
27 21 -15 -15 17 1 28 -21
27 21 -14 -15 17 1 27 -21
26 21 -13 -15 17 0 25 -21
25 20 -11 -15 17 -2 23 -21
24 20 -10 -15 17 -3 21 -21
23 19 -8 -15 16 -4 19 -21
22 18 -7 -15 16 -4 19 -21
20 16 -5 -14 16 -5 18 -22
18 15 -3 -14 15 -6 18 -22
16 13 0 -13 15 -7 17 -23
14 11 2 -12 14 -8 16 -24
13 11 3 -12 14 -8 15 -25
11 10 4 -12 13 -9 13 -26
10 9 6 -11 13 -10 11 -28
8 8 7 -11 12 -11 9 -29
6 7 9 -10 11 -12 7 -31
5 7 9 -10 11 -12 6 -32
4 6 10 -10 11 -13 4 -33
2 5 11 -10 10 -14 2 -35
1 4 12 -10 10 -15 0 -36
-2 3 13 -10 9 -16 -3 -38
-3 2 13 -10 9 -16 -3 -38
-4 1 13 -10 9 -16 -4 -38
-5 0 13 -10 8 -17 -4 -39
-6 -2 13 -10 8 -17 -5 -39
-7 -4 12 -10 7 -18 -6 -40
-7 -5 12 -10 7 -18 -6 -40
-8 -6 12 -10 7 -18 -6 -40
-9 -7 12 -10 7 -18 -6 -41
-10 -8 12 -10 7 -18 -6 -41
-11 -9 13 -9 6 -18 -7 -43
-11 -9 13 -9 6 -18 -7 -43
-11 -9 13 -9 6 -18 -8 -43
-11 -10 13 -9 5 -19 -9 -43
-11 -10 13 -9 5 -19 -10 -43
-10 -11 13 -8 4 -20 -11 -44
-10 -11 13 -8 4 -19 -11 -44
-10 -11 13 -7 5 -18 -11 -44
-10 -11 13 -6 6 -17 -10 -43
-10 -11 13 -5 7 -16 -10 -43
-10 -11 12 -4 8 -15 -9 -41
-10 -11 12 -4 8 -15 -9 -41
-10 -11 12 -3 8 -15 -9 -41
-10 -11 13 -3 8 -15 -9 -41
-10 -11 13 -2 8 -15 -9 -41
-10 -11 14 0 8 -15 -9 -41
-10 -11 14 0 8 -14 -9 -40
-10 -11 14 1 8 -13 -9 -39
-10 -11 14 1 9 -12 -9 -38
-10 -11 14 2 9 -11 -9 -37
-10 -10 14 3 10 -10 -8 -35
-10 -10 14 3 10 -10 -8 -35
-9 -10 14 3 9 -10 -8 -35
-8 -10 14 3 8 -10 -8 -35
-7 -10 14 3 7 -10 -8 -35
-6 -11 13 3 6 -11 -9 -36
-6 -11 13 3 6 -11 -9 -36
-6 -11 13 3 6 -11 -9 -36
-6 -11 13 3 6 -10 -9 -36
-6 -11 13 3 6 -10 -9 -36
-7 -11 12 4 5 -9 -10 -35
-7 -11 12 4 5 -9 -10 -35
-7 -11 12 4 4 -9 -10 -34
-6 -10 12 4 4 -9 -9 -33
-6 -10 12 4 3 -9 -9 -32
-5 -9 12 3 2 -8 -8 -31
-5 -9 12 3 2 -8 -8 -31
-5 -9 12 3 2 -8 -8 -30
-6 -9 12 3 1 -8 -8 -30
-6 -9 12 3 1 -8 -8 -29
-7 -9 12 2 0 -8 -8 -28
-7 -9 12 2 0 -8 -8 -28
-6 -9 12 2 -2 -8 -8 -28
-6 -10 12 2 -2 -8 -8 -28
-5 -10 12 2 -3 -8 -8 -28
-5 -10 12 2 -3 -8 -8 -28
-4 -11 11 2 -4 -8 -9 -28
-4 -11 11 2 -4 -8 -9 -28
-4 -11 11 2 -4 -8 -9 -27
-4 -11 11 2 -4 -8 -9 -27
-4 -11 11 2 -4 -8 -9 -27
-3 -11 10 2 -5 -8 -10 -26
-3 -10 11 2 -5 -8 -9 -25
-2 -9 12 3 -5 -8 -9 -24
-2 -8 13 3 -5 -8 -8 -23
-2 -8 13 3 -5 -8 -8 -22
0 -6 15 4 -4 -7 -7 -21
-2 -4 16 5 -3 -6 -6 -20
-2 -2 17 6 -2 -4 -5 -19
-3 1 18 7 0 -3 -4 -18
-3 3 19 8 1 -2 -4 -17
-4 5 20 9 2 0 -3 -15
-3 7 21 10 2 1 -3 -14
-2 9 21 11 3 2 -3 -12
0 11 22 12 3 3 -3 -11
0 12 22 12 3 3 -3 -10
1 14 23 13 5 5 0 -8
0 16 24 14 6 6 2 -6
0 18 24 15 7 8 4 -4
-2 20 25 16 8 9 6 -2
-2 21 25 17 9 10 7 0
-3 22 26 18 10 11 8 1
-3 22 26 18 9 11 8 1
-2 21 26 17 8 11 7 2
-2 21 26 17 7 11 7 2
-2 21 26 17 7 11 7 2
0 19 25 15 5 10 6 3
1 18 23 14 4 9 5 3
2 17 21 13 3 8 4 3
3 16 19 12 2 7 3 3
3 15 17 11 1 6 2 3
4 13 16 10 0 5 1 4
4 12 16 10 0 5 1 3
4 10 16 10 0 5 1 2
4 9 16 10 0 5 1 1
4 8 16 10 0 5 1 1
2 5 15 9 -2 4 -2 0
1 2 14 8 -3 2 -4 -2
-2 -2 14 7 -4 0 -6 -3
-3 -5 13 6 -5 -3 -8 -4
-4 -8 13 5 -6 -4 -9 -4
-5 -10 12 4 -8 -5 -11 -5
-6 -12 11 3 -10 -6 -12 -6
-7 -14 10 2 -11 -7 -13 -7
-8 -16 9 1 -13 -8 -14 -8
-8 -17 9 0 -14 -9 -15 -8
-9 -18 8 -2 -15 -10 -16 -9
-9 -18 7 -3 -16 -10 -16 -10
-9 -18 6 -3 -16 -11 -16 -10
-9 -18 5 -4 -17 -11 -16 -11
-9 -18 4 -4 -17 -11 -16 -11
-9 -18 3 -5 -18 -12 -16 -12
-9 -18 3 -5 -18 -12 -17 -12
-9 -19 3 -5 -18 -12 -17 -11
-9 -19 3 -5 -18 -12 -18 -11
-9 -19 3 -5 -18 -12 -18 -11
-8 -20 4 -5 -17 -13 -19 -10
-8 -20 4 -5 -17 -13 -19 -10
-8 -20 4 -5 -17 -13 -19 -9
-8 -20 4 -5 -17 -13 -19 -9
-8 -20 4 -5 -17 -13 -19 -9
-7 -21 3 -6 -18 -13 -19 -8
-7 -21 3 -6 -18 -13 -20 -9
-8 -21 2 -6 -18 -13 -20 -9
-8 -21 2 -6 -18 -13 -21 -10
-8 -21 2 -6 -18 -13 -21 -10
-9 -21 1 -5 -19 -14 -22 -11
-9 -21 1 -5 -19 -14 -22 -11
-9 -20 1 -6 -19 -15 -22 -11
-9 -20 1 -6 -19 -15 -22 -11
-9 -20 1 -6 -19 -15 -22 -11
-6 -22 2 -2 -19 -15 -22 -11
-3 -25 4 5 -17 -14 -22 -12
0 -28 6 11 -15 -13 -23 -13
3 -32 8 17 -13 -12 -23 -14
5 -35 10 23 -11 -11 -23 -15
6 -28 23 38 4 1 -17 -11
6 -20 36 55 19 13 -9 -5
6 -11 51 70 34 24 -2 2
6 -3 64 87 50 35 7 7
6 7 78 102 64 48 15 13
9 37 70 95 80 73 46 44
12 69 60 86 96 101 77 75
15 101 50 75 111 129 109 107
17 133 39 65 127 156 142 139
20 164 29 55 142 184 174 171
12 180 7 29 135 185 183 185
1 194 -18 3 123 184 191 197
-10 207 -43 -24 112 182 198 211
-20 222 -66 -51 102 181 206 223
-31 235 -91 -77 91 180 214 236
-32 207 -104 -95 56 140 179 206
-33 176 -117 -110 19 98 140 172
-34 143 -130 -126 -18 56 101 138
-35 111 -143 -141 -55 13 62 104
-35 78 -155 -156 -93 -29 23 69
-33 61 -142 -142 -92 -33 11 55
-30 46 -124 -124 -86 -34 2 42
-27 30 -106 -106 -80 -35 -8 28
-23 14 -89 -89 -74 -36 -18 15
-20 -2 -71 -70 -69 -37 -27 3
-19 -6 -60 -58 -63 -36 -28 1
-18 -9 -49 -47 -56 -34 -28 0
-17 -12 -38 -35 -50 -31 -28 -2
-16 -15 -27 -24 -43 -28 -28 -3
-15 -18 -16 -13 -36 -26 -28 -4
-14 -21 -13 -11 -34 -25 -28 -5
-14 -23 -11 -9 -32 -24 -29 -6
-13 -26 -9 -7 -30 -24 -29 -7
-13 -29 -6 -5 -28 -23 -30 -8
-13 -31 -4 -4 -27 -23 -30 -8
-12 -32 -3 -3 -26 -22 -31 -9
-12 -32 -2 -2 -25 -22 -31 -9
-12 -32 0 -2 -24 -21 -30 -9
-12 -32 1 0 -23 -21 -30 -9
-12 -32 2 0 -23 -21 -30 -9
-11 -33 3 1 -22 -20 -29 -9
-10 -33 3 1 -21 -20 -29 -9
-10 -32 3 1 -21 -21 -29 -9
-9 -32 3 1 -20 -21 -29 -9
-9 -32 3 1 -20 -21 -29 -9
-8 -31 3 0 -19 -22 -29 -8
-7 -31 3 0 -19 -21 -29 -8
-7 -31 3 0 -18 -21 -28 -7
-6 -31 3 0 -18 -20 -28 -7
-6 -31 3 0 -18 -20 -28 -7
-5 -30 2 1 -17 -19 -27 -6
-5 -31 3 2 -17 -18 -27 -6
-6 -31 3 3 -17 -17 -26 -5
-6 -32 4 4 -17 -16 -26 -5
-6 -32 4 4 -17 -15 -26 -5
-7 -33 5 5 -17 -14 -25 -4
-7 -32 4 4 -18 -14 -25 -4
-7 -31 4 3 -19 -14 -25 -4
-7 -30 3 2 -20 -14 -25 -4
-7 -29 3 1 -21 -14 -25 -4
-6 -28 2 0 -22 -13 -25 -3
-6 -28 2 0 -22 -13 -24 -3
-6 -28 2 1 -22 -12 -24 -3
-6 -28 2 1 -22 -12 -23 -3
-6 -28 2 1 -22 -12 -23 -3
-6 -28 1 2 -21 -11 -22 -4
-6 -28 1 2 -21 -11 -22 -4
-6 -28 1 2 -20 -11 -22 -4
-6 -28 1 2 -20 -11 -22 -4
-6 -28 1 2 -20 -11 -22 -4
-6 -27 2 3 -19 -11 -22 -4
-5 -26 2 3 -18 -11 -21 -4
-4 -26 1 4 -17 -10 -20 -4
-3 -25 1 4 -16 -10 -19 -4
-3 -25 1 4 -16 -10 -19 -4
-2 -24 0 5 -15 -9 -18 -5
-2 -24 0 5 -14 -9 -18 -5
-3 -24 1 6 -13 -9 -18 -5
-3 -24 1 6 -12 -9 -18 -5
-3 -24 1 6 -11 -9 -18 -5
-4 -23 2 7 -10 -8 -18 -4
-3 -23 2 7 -10 -8 -18 -4
-2 -23 2 7 -10 -8 -17 -4
0 -23 2 7 -10 -8 -17 -4
0 -23 2 7 -10 -8 -17 -4
1 -24 1 8 -9 -7 -16 -4
1 -23 1 8 -9 -7 -16 -4
2 -23 0 8 -8 -7 -16 -4
2 -22 0 8 -8 -7 -16 -4
2 -22 0 8 -8 -7 -16 -4
3 -21 -2 9 -6 -7 -14 -5
4 -21 -2 9 -4 -6 -13 -4
5 -20 -2 10 -2 -5 -12 -4
6 -20 -2 10 0 -4 -11 -3
6 -20 -2 10 2 -3 -10 -3
8 -19 -3 11 3 -2 -8 -2
9 -19 -3 12 4 0 -7 0
10 -19 -3 13 5 1 -6 1
12 -19 -3 14 6 2 -5 2
13 -19 -3 14 7 3 -4 2
15 -18 -5 15 8 5 -2 3
16 -17 -7 15 9 6 0 4
17 -16 -9 14 10 7 1 5
19 -15 -10 14 11 9 3 6
20 -14 -12 14 12 10 4 7
22 -12 -14 13 13 11 5 9
23 -11 -15 13 13 11 5 10
24 -9 -16 13 13 11 5 11
25 -7 -18 13 13 11 5 12
26 -6 -19 13 13 11 5 13
28 -4 -20 13 13 13 7 15
29 -3 -20 13 13 14 10 16
30 -2 -21 13 14 15 12 18
31 0 -21 13 14 17 14 20
32 1 -21 13 14 18 16 21
33 3 -22 12 15 19 17 22
33 4 -23 11 15 19 17 23
33 5 -23 10 15 19 17 24
33 6 -24 9 15 19 17 25
33 7 -24 8 15 19 17 25
34 8 -25 7 15 19 17 26
34 8 -25 6 15 19 18 26
33 8 -25 5 14 18 19 26
33 8 -25 4 14 18 20 26
33 8 -25 3 14 18 21 26
32 9 -24 2 12 17 22 27
31 9 -24 1 11 16 22 27
30 9 -24 0 10 16 22 28
29 9 -24 -2 9 15 22 28
28 9 -24 -2 8 15 22 28
26 9 -22 -3 7 14 21 29
24 9 -21 -3 7 13 20 28
22 9 -19 -3 7 12 19 27
21 9 -17 -3 7 11 17 26
19 9 -16 -3 7 10 16 25
17 10 -14 -4 7 9 15 23
15 9 -12 -4 6 7 14 22
13 9 -10 -4 5 6 13 21
11 8 -8 -4 4 5 12 19
9 8 -6 -4 3 4 11 18
8 7 -5 -3 2 2 8 16
7 6 -4 -3 1 0 6 14
6 5 -3 -3 1 -3 3 12
5 4 -2 -3 0 -5 1 10
4 3 -2 -3 0 -7 -3 8
2 2 0 -4 -2 -8 -4 7
1 0 1 -3 -2 -8 -4 6
-2 -2 2 -2 0 -9 -5 5
-4 -3 3 0 0 -9 -5 4
-5 -4 4 0 0 -9 -5 4
-6 -5 5 1 1 -10 -6 3
-8 -6 5 0 1 -10 -7 2
-9 -6 5 0 0 -10 -7 2
-10 -7 5 -2 0 -10 -8 1
-11 -7 5 -2 0 -10 -8 1
-12 -8 5 -3 -2 -11 -9 0
-12 -8 5 -3 -2 -12 -10 -3
-12 -9 5 -2 -2 -12 -11 -4
-12 -9 5 -2 -2 -13 -12 -5
-12 -9 5 -2 -2 -13 -13 -6
-11 -10 6 0 0 -14 -14 -7
-11 -11 6 1 0 -14 -14 -7
-11 -12 7 1 0 -14 -13 -7
-11 -13 7 2 0 -14 -13 -7
-11 -13 7 2 0 -14 -13 -7
-11 -14 8 3 1 -13 -12 -7
-11 -13 8 3 1 -12 -12 -7
-11 -12 7 3 1 -12 -12 -7
-11 -11 7 3 1 -11 -12 -7
-11 -10 7 3 1 -11 -12 -7
-12 -9 6 3 0 -10 -12 -8
-12 -9 7 5 0 -8 -12 -8
-12 -9 8 6 1 -7 -12 -8
-12 -9 9 7 1 -6 -12 -8
-12 -9 9 8 1 -5 -12 -8
-11 -9 10 9 2 -4 -11 -9
-11 -9 10 9 2 -3 -10 -9
-10 -10 10 9 2 -2 -9 -8
-10 -10 10 9 2 0 -8 -8
-10 -10 10 9 2 1 -8 -8
-9 -11 10 10 1 2 -7 -7
-9 -11 10 10 1 2 -7 -7
-8 -11 10 11 2 2 -7 -8
-8 -11 10 11 2 2 -7 -8
-8 -11 10 11 2 2 -7 -8
-7 -10 10 12 2 3 -7 -9
-7 -10 10 12 1 3 -7 -9
-7 -10 10 11 0 3 -8 -9
-7 -10 10 11 -3 3 -8 -9
-7 -10 10 11 -4 3 -8 -9
-8 -9 9 10 -5 2 -9 -9
-7 -9 9 10 -5 2 -9 -9
-7 -10 10 10 -5 2 -9 -9
-6 -10 10 10 -5 2 -9 -9
-6 -10 10 10 -5 2 -9 -9
-5 -11 11 9 -4 1 -10 -9
-5 -10 11 10 -4 3 -8 -8
-4 -9 12 11 -4 4 -7 -7
-4 -8 12 12 -4 5 -6 -6
-4 -8 12 12 -4 6 -5 -5
-3 -7 13 13 -3 7 -4 -4
-3 -6 13 13 -3 7 -4 -4
-3 -5 13 13 -3 7 -3 -5
-3 -4 13 13 -3 7 -3 -5
-3 -3 13 13 -3 7 -3 -5
-4 0 15 15 -3 8 -2 -5
-4 2 17 16 -2 9 0 -4
-3 4 19 17 0 10 1 -3
-3 6 21 19 1 11 2 0
-3 8 23 20 2 12 3 1
-2 10 24 21 3 13 4 2
-2 11 24 21 3 13 4 3
-2 12 24 21 3 13 4 3
-2 14 24 21 3 13 4 4
-2 15 24 21 3 13 4 4
-2 17 24 20 3 14 5 5
-3 19 24 20 3 14 6 5
-3 21 25 21 4 14 6 5
-4 23 25 21 4 14 7 5
-4 25 25 21 4 14 7 5
-5 26 26 22 5 14 8 5
-5 24 25 21 5 14 8 5
-4 23 25 20 5 13 8 5
-4 22 24 19 5 13 8 5
-4 21 24 18 5 13 8 5
-3 20 22 17 4 12 7 6
-2 19 21 16 3 10 7 6
-2 18 19 15 2 9 6 6
0 17 17 14 1 8 6 6
0 16 16 13 0 7 6 6
1 13 15 12 -2 6 5 5
1 10 15 12 -2 5 4 3
1 7 15 11 -2 5 4 2
1 4 15 11 -2 4 3 1
1 1 15 11 -2 4 3 0
0 -2 14 10 -3 2 1 -3
-2 -3 13 9 -5 0 -3 -4
-3 -4 12 8 -6 -4 -5 -5
-4 -6 12 7 -7 -6 -7 -7
-5 -7 11 6 -8 -8 -10 -8
-6 -9 10 5 -9 -9 -11 -9
-6 -10 9 3 -11 -10 -12 -10
-7 -12 9 2 -12 -10 -13 -11
-7 -13 8 1 -13 -11 -13 -11
-7 -15 8 0 -14 -11 -14 -12
-8 -16 7 -2 -15 -12 -15 -13
-8 -16 7 -2 -15 -12 -15 -13
-9 -17 6 -3 -16 -12 -15 -13
-9 -17 6 -3 -16 -12 -15 -13
-9 -17 6 -3 -16 -12 -15 -13
-10 -18 5 -4 -17 -13 -15 -14
-10 -18 5 -4 -17 -13 -15 -14
-10 -18 4 -5 -17 -13 -15 -14
-10 -18 4 -5 -17 -13 -15 -14
-10 -18 4 -5 -17 -13 -15 -14
-11 -19 3 -6 -18 -12 -16 -15
-11 -19 3 -6 -19 -14 -17 -15
-11 -19 3 -7 -19 -15 -17 -15
-11 -19 3 -7 -20 -16 -18 -15
-11 -19 3 -7 -20 -17 -18 -15
-10 -18 3 -8 -21 -18 -19 -14
-10 -18 2 -8 -21 -17 -19 -13
-10 -18 2 -8 -20 -17 -19 -13
-10 -18 1 -8 -20 -16 -19 -12
-10 -18 1 -8 -20 -16 -19 -12
-9 -19 0 -6 -19 -15 -18 -11
-8 -21 1 -5 -19 -15 -19 -13
-7 -22 2 -4 -19 -15 -19 -14
-7 -23 2 -2 -19 -15 -20 -15
-6 -24 3 0 -19 -15 -20 -16
-4 -25 10 11 -12 -12 -20 -17
0 -24 20 25 -2 -7 -19 -16
2 -23 29 39 10 0 -18 -16
4 -22 38 54 20 6 -16 -15
7 -21 49 68 31 12 -15 -15
9 -3 53 75 47 29 3 2
11 22 55 79 64 53 27 25
13 47 56 84 82 75 52 48
16 71 58 88 100 99 75 71
18 97 60 91 117 121 100 94
16 122 47 75 125 141 125 119
11 149 26 51 128 158 149 147
6 175 6 25 131 177 174 174
1 201 -15 1 133 194 198 200
-5 228 -36 -24 136 212 223 228
-11 225 -62 -56 105 187 210 222
-18 209 -92 -91 59 142 178 200
-25 192 -120 -124 14 98 147 180
-32 175 -149 -159 -32 53 115 158
-39 158 -178 -194 -77 8 85 138
-40 138 -178 -192 -92 -11 63 116
-36 116 -164 -175 -90 -19 46 96
-32 94 -151 -157 -89 -27 29 75
-28 72 -138 -140 -87 -35 12 55
-24 50 -123 -122 -86 -44 -6 34
-21 35 -109 -105 -79 -47 -13 23
-20 24 -93 -89 -72 -46 -16 17
-18 13 -76 -72 -65 -45 -20 11
-17 3 -61 -56 -57 -44 -23 5
-15 -9 -45 -39 -50 -43 -26 -2
-14 -14 -36 -31 -45 -40 -28 -4
-13 -17 -30 -26 -40 -37 -28 -5
-12 -19 -25 -20 -37 -34 -28 -6
-12 -21 -20 -15 -33 -31 -28 -6
-11 -24 -14 -10 -30 -28 -28 -7
-10 -25 -12 -8 -28 -27 -28 -8
-10 -25 -12 -8 -26 -27 -29 -8
-9 -25 -12 -7 -25 -26 -29 -9
-9 -25 -12 -7 -24 -26 -30 -9
-9 -25 -12 -7 -23 -26 -30 -9
-8 -26 -11 -6 -22 -25 -31 -10
-8 -28 -10 -6 -22 -27 -32 -11
-8 -29 -10 -6 -21 -28 -32 -11
-8 -30 -9 -6 -21 -30 -33 -12
-8 -31 -9 -6 -21 -31 -33 -12
-8 -32 -8 -5 -20 -32 -34 -13
-7 -31 -8 -5 -18 -30 -32 -11
-7 -30 -8 -5 -17 -29 -31 -10
-6 -30 -8 -5 -15 -28 -30 -8
-6 -29 -8 -5 -14 -27 -29 -7
-5 -28 -7 -4 -13 -26 -28 -6
-5 -28 -7 -4 -13 -25 -28 -6
-5 -28 -7 -4 -14 -25 -28 -6
-5 -28 -7 -4 -14 -24 -28 -6
-5 -28 -7 -4 -14 -24 -28 -6
-6 -29 -7 -3 -15 -23 -29 -5
-5 -28 -7 -3 -16 -21 -28 -3
-5 -27 -7 -3 -16 -20 -28 -2
-4 -27 -7 -3 -17 -18 -27 0
-4 -26 -7 -3 -17 -17 -27 1
-3 -25 -7 -3 -18 -16 -26 2
-3 -25 -6 -3 -18 -16 -26 2
-3 -25 -6 -2 -18 -15 -26 2
-3 -25 -5 -2 -18 -15 -26 2
-3 -25 -5 -2 -18 -15 -26 2
-2 -25 -4 0 -19 -14 -25 1
-2 -25 -5 0 -19 -14 -25 1
0 -25 -7 0 -18 -14 -25 2
0 -25 -8 0 -18 -14 -25 2
0 -25 -9 0 -18 -14 -25 2
1 -25 -10 -2 -17 -13 -24 3
1 -24 -10 -2 -17 -13 -24 3
1 -23 -10 -2 -17 -13 -24 2
1 -22 -10 -2 -17 -13 -24 1
1 -21 -10 -2 -17 -13 -24 1
2 -20 -10 0 -18 -14 -24 0
2 -20 -10 0 -16 -14 -24 0
2 -21 -10 1 -15 -13 -23 1
2 -22 -10 1 -13 -12 -23 2
2 -22 -10 1 -12 -12 -23 2
3 -23 -11 2 -11 -11 -22 3
4 -22 -11 2 -10 -11 -22 3
5 -21 -11 3 -9 -11 -22 3
5 -20 -11 4 -9 -11 -22 3
6 -19 -11 4 -8 -11 -22 3
7 -18 -10 5 -7 -12 -21 2
7 -18 -10 5 -7 -12 -20 2
7 -18 -10 5 -6 -11 -19 2
7 -18 -10 5 -6 -11 -19 2
7 -18 -10 5 -6 -11 -18 2
7 -19 -11 4 -4 -10 -17 3
8 -19 -11 5 -3 -9 -16 3
9 -19 -11 7 0 -8 -15 4
9 -19 -11 8 2 -8 -14 4
10 -19 -11 9 4 -7 -13 4
11 -19 -11 10 5 -6 -12 5
12 -19 -11 10 5 -5 -12 5
14 -18 -12 11 6 -4 -11 6
15 -18 -12 11 6 -4 -10 6
16 -18 -12 11 6 -3 -10 6
18 -17 -13 12 7 -2 -9 7
19 -15 -14 12 8 -2 -9 7
21 -14 -16 12 9 0 -8 8
23 -12 -17 12 9 1 -8 8
25 -11 -18 12 10 1 -8 8
26 -10 -19 13 12 3 -6 9
27 -10 -20 13 13 5 -5 10
28 -10 -21 13 15 7 -3 11
29 -10 -22 13 16 9 0 11
30 -10 -23 13 18 11 2 12
31 -8 -24 13 19 12 3 14
32 -7 -26 13 19 12 4 16
34 -5 -27 13 19 13 5 18
35 -4 -29 13 19 13 5 20
36 -2 -30 13 19 13 6 22
37 0 -31 14 20 14 8 23
37 1 -31 13 20 14 9 24
38 2 -31 11 20 15 11 26
38 2 -31 10 20 16 12 27
38 3 -31 9 20 16 14 28
39 4 -30 8 20 17 15 29
39 4 -31 7 19 16 14 29
38 4 -32 5 17 15 13 29
38 4 -32 4 16 14 13 29
38 4 -33 3 15 13 12 29
37 5 -34 2 14 12 11 28
37 6 -34 1 13 12 11 28
36 8 -34 -2 12 11 12 28
35 9 -34 -3 12 11 12 28
35 10 -34 -4 11 11 12 28
34 11 -33 -5 10 9 13 28
33 11 -32 -6 9 8 11 27
31 11 -31 -7 7 6 10 26
30 11 -30 -8 6 4 8 26
29 11 -29 -9 5 2 7 25
27 11 -27 -10 4 1 6 24
24 10 -25 -10 3 -2 4 23
21 9 -23 -10 1 -3 3 22
18 8 -21 -10 0 -5 1 21
16 7 -18 -10 -2 -6 0 20
14 6 -17 -10 -3 -7 -2 19
12 4 -15 -10 -3 -8 -4 18
10 2 -13 -9 -3 -9 -5 16
9 1 -12 -8 -3 -9 -7 15
7 -2 -10 -8 -3 -10 -8 14
6 -3 -9 -7 -4 -11 -9 13
5 -3 -8 -7 -4 -12 -10 11
4 -4 -7 -7 -4 -13 -11 10
4 -5 -6 -7 -4 -14 -11 8
3 -5 -5 -7 -4 -15 -12 7
2 -6 -4 -8 -5 -16 -13 6
1 -6 -4 -8 -5 -16 -14 5
0 -7 -4 -8 -5 -17 -15 4
0 -8 -4 -8 -5 -18 -15 3
-2 -8 -4 -8 -5 -18 -16 2
-3 -9 -3 -7 -6 -19 -17 1
-4 -9 -3 -7 -6 -19 -17 0
-6 -10 -3 -7 -6 -19 -17 -2
-7 -11 -3 -7 -6 -19 -17 -2
-8 -11 -3 -7 -6 -19 -17 -3
-9 -12 -2 -7 -6 -19 -18 -4
-9 -12 -2 -7 -6 -20 -19 -5
-9 -12 -2 -7 -6 -21 -20 -6
-9 -12 -2 -7 -6 -21 -20 -6
-9 -12 -2 -7 -6 -22 -21 -7
-9 -13 0 -6 -7 -23 -22 -8
-9 -13 0 -5 -6 -22 -22 -8
-9 -13 0 -4 -4 -20 -21 -8
-9 -13 0 -4 -3 -19 -21 -8
-9 -13 0 -3 -2 -18 -21 -8
-9 -13 0 -2 0 -17 -20 -7
-9 -13 0 0 0 -16 -19 -7
-9 -13 1 1 -2 -15 -18 -7
-9 -13 2 1 -2 -14 -18 -7
-9 -13 2 2 -2 -13 -17 -7
-8 -14 3 3 -3 -12 -16 -7
-8 -14 3 3 -3 -12 -16 -7
-8 -13 3 3 -3 -11 -16 -7
-8 -13 3 3 -3 -10 -16 -7
-8 -13 3 3 -3 -10 -16 -7
-7 -12 3 4 -3 -9 -16 -8
-7 -12 3 4 -3 -9 -16 -8
-7 -12 3 5 -3 -8 -15 -8
-7 -12 3 6 -3 -8 -15 -8
-7 -12 3 6 -3 -8 -15 -8
-8 -13 4 7 -4 -7 -14 -8
-8 -13 4 7 -4 -7 -14 -8
-7 -12 5 7 -4 -6 -14 -8
-6 -11 5 7 -4 -5 -14 -8
-6 -11 5 7 -4 -5 -14 -8
-5 -10 6 7 -4 -4 -13 -7
-4 -10 6 7 -4 -3 -13 -7
-3 -9 6 8 -4 -2 -12 -7
-3 -9 6 8 -4 -2 -11 -7
-2 -9 6 8 -4 0 -11 -7
0 -8 7 9 -3 1 -10 -6
0 -8 7 9 -3 1 -10 -6
1 -7 8 9 -3 1 -10 -6
1 -6 8 9 -3 1 -10 -6
1 -6 8 9 -3 1 -10 -6
2 -5 10 10 -3 1 -11 -6
1 -3 13 12 -2 2 -9 -4
0 0 15 14 1 4 -7 -2
0 1 18 15 2 6 -6 0
-2 3 20 17 3 8 -4 2
-3 4 22 18 4 9 -3 3
-3 6 22 18 4 9 -3 3
-2 8 22 18 5 9 -2 4
0 10 22 18 5 9 0 5
0 12 22 18 5 9 0 5
1 13 21 17 6 9 1 6
1 14 23 18 6 10 2 6
0 15 24 20 7 11 3 7
0 16 25 21 8 11 3 8
0 17 27 22 8 12 4 8
-2 18 28 23 9 13 5 9
-2 18 27 22 9 13 5 9
-2 19 26 21 9 13 6 9
-2 20 26 20 9 13 6 9
-2 20 25 19 9 13 6 9
-3 21 24 18 8 12 7 9
-2 20 22 16 7 11 6 9
1 19 20 15 5 10 4 8
2 18 18 14 4 9 3 7
3 17 16 12 3 8 2 7
4 16 15 11 2 7 1 6
3 14 15 11 2 7 1 6
2 12 15 12 3 7 1 5
1 10 15 12 3 7 1 4
0 8 15 12 3 7 1 4
-2 6 15 13 4 6 1 2
-2 4 14 11 2 4 -2 0
-3 1 13 10 0 2 -4 -4
-3 -2 13 9 -2 0 -6 -6
-3 -4 12 7 -4 -3 -8 -8
-4 -6 11 6 -5 -4 -9 -10
-4 -8 11 5 -6 -5 -10 -10
-5 -10 10 3 -8 -6 -11 -10
-6 -11 10 2 -9 -6 -12 -10
-6 -13 10 1 -10 -7 -13 -10
-7 -14 9 0 -11 -8 -14 -11
-8 -15 8 0 -11 -9 -14 -11
-9 -16 7 -2 -12 -10 -15 -12
-9 -16 7 -3 -13 -10 -15 -13
-10 -17 6 -3 -13 -11 -15 -13
-11 -18 5 -4 -14 -12 -16 -14
-11 -18 5 -4 -14 -12 -17 -15
-11 -18 5 -5 -15 -13 -18 -16
-11 -18 5 -6 -15 -14 -18 -16
-11 -18 5 -6 -15 -14 -19 -17
-10 -19 4 -7 -16 -15 -20 -18
-10 -20 4 -7 -16 -15 -20 -18
-10 -21 5 -6 -16 -15 -20 -18
-10 -21 5 -6 -16 -15 -20 -18
-10 -22 5 -6 -16 -15 -20 -18
-10 -23 6 -5 -16 -15 -19 -17
-10 -23 6 -5 -16 -15 -19 -17
-10 -22 5 -6 -16 -15 -19 -17
-10 -21 4 -6 -16 -15 -19 -17
-10 -21 4 -6 -16 -15 -19 -17
-10 -20 3 -7 -16 -14 -18 -18
-10 -20 3 -7 -16 -14 -18 -18
-10 -21 3 -7 -16 -15 -18 -18
-10 -21 3 -7 -16 -15 -18 -18
-10 -21 3 -7 -16 -15 -18 -18
-10 -22 6 -2 -14 -15 -19 -18
-6 -24 10 7 -9 -13 -19 -20
-3 -26 15 16 -3 -11 -20 -22
1 -28 20 24 3 -9 -21 -24
5 -30 24 32 8 -7 -21 -26
7 -25 33 45 18 2 -16 -22
7 -13 46 60 34 16 -4 -12
8 0 59 76 51 30 9 -2
9 11 72 92 66 45 20 9
9 23 85 107 82 59 32 19
10 47 84 107 96 79 55 40
10 79 67 89 108 104 87 72
11 112 50 70 120 130 118 104
12 145 32 52 133 154 150 136
12 178 16 33 145 180 182 168
8 197 -7 9 140 188 197 185
-3 203 -35 -22 115 176 193 188
-13 209 -63 -54 91 163 190 191
-24 215 -92 -86 66 151 187 194
-34 221 -119 -117 43 139 183 197
-40 210 -137 -136 18 115 164 185
-38 179 -142 -142 -7 79 131 153
-37 148 -146 -148 -31 45 97 122
-35 118 -151 -154 -56 10 63 91
-33 88 -156 -160 -80 -26 29 60
-31 64 -149 -153 -91 -45 8 38
-27 49 -129 -132 -82 -46 0 26
-24 33 -107 -110 -74 -46 -9 14
-21 18 -86 -89 -66 -47 -17 2
-17 2 -64 -66 -58 -48 -25 -10
-15 -8 -49 -51 -51 -48 -30 -17
-15 -11 -39 -41 -46 -45 -30 -18
-15 -14 -31 -33 -39 -41 -29 -18
-15 -17 -22 -24 -34 -37 -28 -19
-15 -20 -13 -15 -28 -34 -28 -20
-14 -22 -8 -10 -25 -32 -27 -21
-14 -24 -7 -9 -23 -31 -27 -22
-14 -25 -6 -8 -22 -31 -27 -22
-13 -27 -4 -6 -21 -30 -27 -23
-13 -29 -3 -5 -19 -29 -27 -24
-12 -30 -2 -4 -18 -28 -27 -25
-12 -30 -2 -4 -17 -28 -27 -25
-12 -30 -2 -4 -17 -28 -27 -25
-12 -30 -2 -4 -16 -28 -27 -25
-12 -30 -2 -4 -15 -28 -27 -25
-11 -29 0 -4 -14 -29 -26 -24
-11 -29 1 -4 -13 -29 -26 -24
-10 -29 1 -4 -12 -29 -26 -24
-9 -30 2 -3 -10 -30 -26 -24
-9 -30 3 -3 -9 -30 -26 -24
-8 -31 4 -2 -8 -31 -27 -25
-8 -31 4 -2 -8 -30 -26 -25
-8 -31 4 0 -7 -29 -26 -24
-9 -31 4 1 -6 -27 -25 -23
-9 -31 4 1 -6 -26 -24 -23
-10 -31 4 2 -5 -25 -23 -22
-10 -30 4 2 -6 -25 -23 -22
-9 -30 4 2 -6 -25 -23 -22
-8 -29 4 1 -7 -25 -24 -22
-8 -28 4 1 -8 -25 -24 -22
-7 -27 3 0 -9 -26 -25 -23
-7 -27 3 0 -9 -25 -24 -22
-7 -27 3 1 -9 -24 -24 -22
-8 -27 4 2 -9 -23 -23 -21
-8 -27 4 2 -9 -22 -22 -20
-9 -26 5 3 -10 -21 -21 -19
-9 -26 5 3 -10 -21 -21 -19
-8 -26 5 3 -10 -21 -21 -19
-7 -26 5 3 -10 -20 -20 -19
-7 -26 5 3 -10 -20 -20 -19
-6 -25 4 2 -9 -19 -19 -19
-6 -25 4 2 -9 -19 -19 -19
-6 -24 4 3 -8 -19 -19 -19
-6 -23 4 4 -7 -19 -18 -19
-6 -23 4 4 -7 -19 -18 -19
-5 -22 3 5 -6 -18 -17 -19
-5 -22 3 5 -5 -18 -17 -19
-5 -22 3 5 -5 -18 -17 -19
-4 -23 3 6 -4 -18 -17 -19
-4 -23 3 6 -3 -18 -17 -19
-3 -24 4 7 -2 -17 -17 -19
-3 -23 4 7 -2 -17 -17 -19
-3 -23 3 7 -2 -17 -16 -19
-3 -22 2 7 -2 -17 -15 -19
-3 -21 2 7 -2 -17 -15 -19
-2 -20 1 6 0 -16 -14 -20
-2 -20 1 6 0 -16 -14 -20
-2 -20 1 7 0 -16 -14 -20
0 -21 2 8 1 -16 -14 -21
0 -21 2 8 1 -16 -14 -21
1 -22 3 9 2 -17 -14 -22
1 -21 3 10 4 -17 -14 -21
1 -21 2 10 5 -16 -14 -21
2 -20 1 11 7 -15 -13 -20
2 -19 1 12 9 -15 -13 -19
3 -18 0 13 10 -14 -12 -18
4 -18 0 13 11 -13 -11 -18
5 -18 0 13 12 -13 -10 -18
6 -18 0 13 14 -12 -8 -18
7 -18 0 13 15 -11 -7 -18
8 -17 -2 14 16 -10 -6 -17
9 -17 -2 14 17 -9 -5 -17
10 -17 -3 15 18 -9 -4 -16
12 -17 -4 16 20 -8 -3 -15
13 -17 -4 16 21 -7 -2 -15
14 -16 -5 17 22 -6 0 -14
16 -15 -6 17 23 -4 1 -13
18 -14 -6 17 24 -3 3 -12
20 -12 -7 17 25 0 4 -11
22 -11 -8 17 26 2 6 -10
24 -10 -9 18 27 3 7 -9
25 -9 -10 18 28 4 9 -7
25 -7 -11 18 29 5 11 -5
26 -6 -13 19 30 7 13 -3
27 -4 -14 19 31 8 14 0
28 -3 -15 20 32 9 16 2
29 -2 -15 20 32 9 16 3
29 0 -15 19 32 9 16 4
30 2 -15 18 32 10 16 5
31 3 -15 18 32 10 16 6
32 4 -16 17 32 11 17 7
32 5 -16 15 32 11 18 8
32 7 -17 14 31 11 18 8
32 8 -18 12 30 10 19 9
32 10 -18 10 30 10 20 10
33 11 -19 9 29 9 21 11
33 11 -19 8 28 9 21 11
33 11 -19 7 27 9 21 11
33 11 -19 6 26 9 21 12
33 11 -19 5 25 9 21 12
34 10 -20 4 24 9 20 13
32 10 -19 4 24 8 20 13
30 10 -18 4 23 8 20 13
28 10 -17 4 22 7 20 13
26 10 -16 4 22 6 20 13
24 10 -15 3 21 5 19 14
23 10 -14 3 20 3 18 12
22 10 -12 2 19 2 16 10
20 9 -11 1 17 0 15 8
19 9 -9 1 16 -3 13 7
18 8 -8 0 15 -4 12 5
15 7 -6 0 14 -5 10 4
13 6 -4 0 13 -6 9 3
10 4 -2 1 11 -8 7 2
8 3 0 1 10 -9 5 1
6 2 2 2 9 -10 4 0
5 2 2 2 8 -11 2 -3
5 1 2 2 8 -13 0 -5
4 0 3 1 7 -14 -3 -7
3 0 3 1 6 -16 -5 -9
2 -2 4 0 5 -17 -7 -11
0 -3 5 0 5 -17 -7 -11
-3 -4 6 0 5 -17 -7 -11
-5 -5 7 0 5 -17 -8 -11
-7 -6 8 0 5 -17 -8 -11
-9 -7 9 0 5 -17 -9 -12
-9 -8 9 0 5 -18 -9 -13
-9 -9 9 0 5 -18 -10 -13
-9 -10 9 0 4 -19 -11 -14
-9 -11 9 0 4 -20 -11 -15
-10 -12 8 1 3 -21 -12 -16
-10 -12 8 1 3 -21 -12 -16
-10 -12 8 1 3 -21 -12 -16
-11 -12 8 1 3 -21 -12 -16
-11 -12 8 1 3 -21 -12 -16
-12 -13 8 0 3 -21 -13 -16
-12 -13 8 0 3 -21 -13 -16
-12 -13 8 0 3 -21 -13 -16
-11 -13 8 1 4 -21 -13 -17
-11 -13 8 1 4 -21 -13 -17
-10 -12 8 2 5 -20 -14 -18
-10 -12 8 3 5 -19 -14 -18
-10 -12 8 4 5 -18 -13 -18
-10 -12 9 5 5 -16 -12 -18
-10 -12 9 6 5 -15 -12 -18
-10 -13 10 7 6 -14 -11 -18
-10 -13 10 7 6 -14 -11 -18
-10 -13 10 8 6 -14 -11 -18
-10 -13 11 9 6 -14 -11 -18
-10 -13 11 9 6 -14 -11 -18
-11 -12 12 10 6 -13 -10 -17
-11 -12 12 10 6 -13 -10 -17
-10 -12 12 10 6 -12 -10 -17
-9 -12 12 10 6 -11 -10 -17
-9 -12 12 10 6 -11 -10 -17
-8 -11 12 10 5 -10 -10 -17
-8 -11 12 10 5 -9 -10 -17
-8 -11 12 10 5 -8 -9 -17
-8 -12 12 11 6 -7 -8 -17
-8 -12 12 11 6 -6 -8 -17
-8 -13 12 12 7 -5 -7 -16
-8 -13 12 12 7 -5 -7 -16
-8 -12 12 12 7 -5 -6 -15
-8 -11 12 12 6 -5 -5 -14
-8 -11 12 12 6 -5 -5 -14
-7 -10 12 12 5 -5 -4 -13
-6 -9 12 12 5 -5 -4 -13
-5 -8 12 12 5 -5 -4 -13
-4 -7 13 12 5 -5 -4 -13
-3 -6 13 12 5 -5 -4 -13
-2 -5 14 13 4 -4 -5 -13
-2 -4 15 14 4 -3 -4 -12
-2 -3 17 14 4 -3 -3 -11
-3 0 18 15 5 -2 -2 -9
-3 1 20 16 5 0 0 -8
-4 2 21 17 6 1 1 -7
-4 3 21 18 6 2 1 -7
-3 4 22 19 6 2 1 -7
-2 5 23 20 7 3 2 -6
-2 6 23 21 7 4 2 -6
0 7 24 22 8 5 3 -5
0 9 24 22 8 6 4 -4
0 11 24 22 8 6 5 -2
0 13 24 22 9 7 6 0
0 15 24 22 9 8 7 2
0 17 25 21 10 9 8 3
0 18 25 21 10 9 8 4
0 19 25 21 10 9 8 4
0 20 25 20 10 9 8 5
0 21 25 20 10 9 8 6
-2 22 25 19 10 9 9 7
-2 20 24 18 9 9 9 7
-2 18 23 17 8 9 9 7
0 17 22 16 7 9 8 6
0 15 20 15 6 9 8 6
1 13 19 14 5 9 7 5
1 13 18 14 5 9 7 5
1 12 18 14 5 8 7 4
1 12 17 13 5 8 6 4
1 11 16 13 5 7 6 3
2 10 15 12 4 6 5 2
2 8 14 12 3 5 4 1
2 6 14 11 1 4 4 -2
1 4 13 11 0 3 3 -3
1 2 12 10 -3 2 2 -5
0 0 11 9 -4 1 1 -6
-2 -4 10 7 -6 -2 -2 -7
-3 -6 10 5 -7 -4 -4 -8
-4 -8 9 4 -9 -5 -6 -9
-5 -11 8 2 -10 -7 -8 -10
-6 -13 7 0 -12 -9 -10 -11
-7 -14 7 0 -12 -9 -10 -11
-7 -15 7 0 -13 -9 -10 -11
-8 -16 6 -2 -13 -10 -11 -11
-9 -17 6 -2 -14 -10 -11 -11
-10 -18 5 -3 -15 -11 -12 -12
-10 -18 5 -3 -15 -11 -13 -12
-10 -18 5 -4 -15 -12 -14 -13
-10 -19 5 -4 -16 -12 -15 -13
-10 -19 5 -5 -16 -13 -16 -14
-11 -20 4 -6 -17 -14 -17 -15
-11 -20 4 -6 -17 -14 -17 -15
-11 -20 4 -6 -17 -14 -17 -15
-11 -19 3 -6 -18 -14 -17 -15
-11 -19 3 -6 -18 -14 -17 -15
-11 -18 2 -7 -19 -15 -17 -14
-11 -19 2 -7 -19 -15 -17 -14
-11 -19 2 -7 -19 -15 -17 -14
-11 -20 2 -7 -19 -15 -17 -14
-11 -21 2 -7 -19 -15 -17 -14
-10 -22 1 -8 -20 -15 -18 -15
-10 -22 1 -8 -20 -15 -18 -15
-11 -22 1 -8 -20 -15 -17 -15
-11 -22 1 -8 -20 -14 -17 -14
-12 -22 1 -8 -20 -14 -16 -14
-13 -21 0 -8 -19 -13 -15 -13
-10 -23 1 -6 -18 -13 -16 -15
-8 -24 2 -3 -17 -13 -17 -17
-6 -26 3 0 -16 -13 -18 -19
-3 -27 4 2 -15 -13 -20 -21
0 -29 8 8 -11 -12 -21 -23
1 -26 19 23 0 -5 -18 -21
3 -23 30 38 11 3 -16 -18
4 -20 42 54 22 10 -13 -16
6 -17 54 70 33 17 -10 -14
7 -7 62 81 46 28 0 -5
10 20 62 84 64 53 26 20
12 47 62 85 81 77 54 46
15 74 62 87 99 102 80 70
18 101 62 88 116 127 108 96
19 127 55 84 130 149 134 120
12 152 32 59 130 163 156 145
5 178 10 34 130 179 179 170
-3 203 -13 10 131 193 201 194
-10 229 -35 -15 131 209 224 219
-17 240 -58 -40 120 207 231 230
-22 214 -82 -70 77 161 194 201
-27 187 -108 -99 34 114 157 173
-32 160 -133 -129 -8 68 119 144
-37 134 -157 -157 -51 21 82 116
-41 109 -172 -175 -82 -14 52 91
-38 90 -155 -157 -80 -20 36 71
-35 69 -139 -140 -78 -25 22 53
-32 50 -122 -123 -76 -31 8 34
-29 30 -106 -106 -74 -36 -7 16
-26 14 -91 -90 -71 -41 -18 2
-24 8 -77 -77 -64 -41 -20 -3
-23 2 -64 -64 -58 -40 -22 -7
-21 -4 -50 -51 -52 -40 -24 -10
-20 -10 -36 -38 -45 -39 -26 -14
-18 -15 -25 -27 -39 -38 -28 -17
-17 -18 -21 -23 -36 -35 -28 -17
-15 -20 -17 -19 -33 -32 -27 -18
-14 -23 -12 -15 -30 -29 -27 -18
-13 -26 -8 -11 -28 -27 -26 -19
-11 -28 -4 -7 -25 -24 -25 -20
-11 -29 -4 -7 -24 -24 -25 -20
-11 -30 -4 -7 -23 -24 -25 -20
-10 -31 -4 -7 -22 -24 -25 -20
-10 -32 -4 -7 -21 -24 -25 -20
-9 -33 -5 -7 -20 -23 -26 -21
-9 -33 -4 -7 -20 -23 -26 -21
-9 -33 -4 -7 -20 -23 -26 -21
-9 -33 -3 -6 -20 -24 -26 -21
-9 -33 -2 -6 -20 -24 -26 -21
-10 -33 0 -5 -19 -25 -27 -21
-10 -32 0 -5 -18 -25 -27 -21
-10 -32 0 -5 -18 -25 -27 -21
-10 -31 0 -5 -17 -25 -27 -21
-10 -30 0 -5 -16 -25 -27 -21
-9 -29 -2 -6 -15 -26 -27 -21
-9 -29 -2 -6 -15 -25 -26 -21
-9 -29 0 -6 -15 -23 -25 -21
-8 -29 0 -6 -15 -22 -24 -20
-8 -29 1 -6 -15 -21 -23 -20
-7 -28 2 -5 -16 -19 -22 -19
-7 -28 2 -5 -16 -19 -22 -19
-7 -28 2 -5 -16 -18 -22 -18
-7 -28 2 -5 -16 -17 -22 -18
-7 -28 2 -5 -16 -16 -22 -17
-6 -28 1 -4 -15 -15 -22 -16
-6 -28 1 -4 -16 -15 -22 -16
-6 -27 1 -4 -17 -15 -22 -16
-6 -27 1 -4 -18 -15 -22 -16
-6 -26 1 -4 -19 -15 -22 -16
-6 -25 1 -5 -20 -16 -21 -15
-6 -25 1 -5 -19 -16 -21 -15
-6 -25 1 -5 -18 -16 -21 -15
-6 -24 0 -5 -17 -16 -21 -15
-6 -24 0 -5 -16 -16 -21 -15
-5 -23 -2 -5 -15 -15 -20 -16
-5 -23 -2 -5 -15 -15 -20 -16
-5 -23 -2 -5 -15 -15 -20 -16
-4 -23 -2 -4 -15 -14 -20 -16
-4 -23 -2 -4 -15 -14 -20 -16
-3 -24 -2 -3 -15 -13 -19 -15
-3 -24 -2 -3 -15 -13 -19 -15
-3 -24 -2 -2 -14 -13 -19 -15
-3 -23 -2 -2 -13 -13 -19 -15
-3 -23 -2 0 -12 -13 -19 -15
-2 -22 -2 1 -11 -13 -18 -14
-2 -22 -2 1 -11 -13 -18 -14
-2 -22 -2 1 -10 -13 -18 -14
0 -22 -2 2 -9 -12 -18 -14
0 -22 -2 2 -8 -12 -18 -14
1 -21 -2 3 -7 -11 -17 -14
1 -21 -2 3 -6 -11 -17 -14
1 -21 -2 3 -5 -11 -16 -14
2 -20 -2 3 -4 -10 -15 -14
2 -20 -2 3 -3 -10 -14 -14
3 -19 -2 4 -2 -9 -13 -13
4 -19 -2 4 -2 -9 -13 -13
5 -19 -2 4 0 -9 -13 -13
6 -18 -3 5 1 -9 -12 -13
7 -18 -3 5 2 -9 -12 -13
8 -17 -4 6 3 -8 -11 -12
9 -16 -4 6 4 -7 -10 -12
11 -15 -5 7 6 -6 -8 -12
13 -14 -5 7 8 -5 -6 -12
14 -13 -6 8 9 -3 -5 -12
16 -12 -7 9 11 -2 -3 -11
17 -12 -7 9 11 -2 -2 -10
18 -12 -8 9 12 0 0 -8
19 -11 -9 9 12 1 1 -7
20 -11 -10 9 13 2 2 -6
21 -10 -11 9 14 3 3 -4
22 -9 -12 9 15 4 4 -3
23 -8 -13 9 16 6 6 0
24 -7 -14 9 17 8 7 1
26 -5 -16 9 18 9 8 2
27 -4 -17 10 19 11 10 4
28 -2 -17 10 19 11 11 5
29 0 -18 10 19 11 12 6
30 2 -18 9 19 12 13 7
32 4 -19 9 19 12 15 9
33 6 -20 8 19 13 16 10
33 6 -20 7 19 13 16 10
34 6 -21 6 19 13 16 11
35 6 -22 5 19 13 17 11
36 6 -23 3 19 13 17 12
37 6 -24 2 19 14 18 13
36 6 -24 2 19 14 18 13
35 7 -24 2 18 14 18 14
34 8 -23 2 18 13 18 14
33 9 -23 2 17 13 18 15
32 10 -22 1 16 12 19 16
32 10 -22 0 15 12 19 16
31 10 -22 -3 14 11 19 16
31 10 -21 -5 13 10 19 16
30 10 -21 -6 12 9 19 16
29 11 -20 -8 11 8 18 16
27 11 -19 -8 11 7 17 15
26 11 -17 -8 10 5 16 14
24 11 -16 -8 9 4 15 13
22 11 -15 -8 8 3 13 12
20 11 -13 -8 7 1 12 11
18 11 -12 -8 6 1 11 10
16 10 -11 -8 5 0 9 9
14 9 -10 -8 4 -2 8 8
12 8 -9 -8 3 -3 7 6
10 7 -8 -8 2 -4 5 5
8 6 -7 -8 2 -5 3 4
7 5 -5 -8 2 -6 2 2
5 4 -3 -7 1 -7 0 0
3 3 -2 -7 1 -9 -3 -2
1 2 1 -6 0 -10 -5 -4
0 1 1 -6 0 -10 -6 -4
-2 -2 2 -6 0 -11 -7 -5
-3 -3 3 -6 -2 -11 -8 -6
-5 -4 4 -6 -2 -12 -9 -7
-6 -6 5 -5 -3 -13 -10 -8
-6 -6 5 -5 -3 -13 -10 -9
-7 -7 5 -5 -3 -14 -11 -10
-8 -7 6 -5 -4 -14 -11 -11
-9 -8 6 -5 -4 -15 -12 -12
-10 -9 7 -5 -5 -16 -13 -13
-10 -9 7 -5 -5 -16 -14 -14
-10 -10 7 -5 -5 -16 -15 -15
-10 -10 7 -5 -5 -16 -16 -16
-10 -11 7 -5 -5 -16 -17 -17
-11 -12 6 -6 -5 -16 -18 -18
-11 -12 6 -6 -5 -16 -18 -18
-11 -12 6 -6 -5 -16 -17 -18
-11 -12 6 -5 -5 -17 -17 -18
-11 -12 6 -5 -5 -17 -16 -18
-11 -11 7 -4 -6 -18 -15 -18
-11 -11 7 -4 -5 -18 -15 -18
-11 -11 7 -3 -4 -17 -15 -18
-11 -12 7 -3 -3 -16 -15 -17
-11 -12 7 -2 -2 -15 -15 -17
-10 -13 7 0 0 -14 -15 -16
-10 -13 7 0 0 -14 -15 -16
-10 -13 8 1 0 -13 -14 -16
-10 -13 8 1 0 -13 -14 -16
-10 -13 9 2 0 -12 -13 -16
-10 -13 10 3 0 -11 -12 -16
-10 -13 10 3 0 -11 -12 -16
-10 -13 9 3 0 -11 -13 -16
-9 -12 9 3 0 -10 -13 -16
-9 -12 8 3 0 -10 -14 -16
-8 -11 7 4 0 -9 -15 -17
-8 -11 7 4 0 -9 -15 -17
-8 -11 8 4 0 -9 -15 -17
-8 -11 8 5 0 -8 -14 -17
-8 -11 9 5 0 -8 -14 -17
-9 -12 10 6 -2 -7 -13 -18
-9 -12 10 6 -2 -7 -13 -18
-8 -12 10 6 -2 -7 -13 -18
-8 -12 10 6 -2 -7 -13 -18
-7 -12 10 6 -2 -7 -13 -18
-6 -12 10 6 -2 -6 -13 -17
-6 -12 10 6 -2 -6 -13 -17
-6 -12 10 6 -2 -6 -13 -17
-6 -12 10 6 -2 -6 -13 -17
-6 -12 10 6 -2 -6 -13 -17
-6 -12 11 6 -2 -5 -12 -17
-6 -12 11 6 -2 -5 -12 -17
-6 -12 11 6 -2 -5 -12 -16
-5 -12 11 6 -2 -5 -11 -16
-5 -12 11 6 -2 -5 -11 -15
-4 -12 11 6 -3 -5 -10 -14
-4 -11 11 6 -3 -5 -10 -14
-4 -9 12 6 -3 -4 -10 -13
-4 -7 13 7 -3 -3 -9 -13
-4 -6 14 7 -3 -2 -9 -12
-4 -4 15 8 -3 0 -8 -11
-4 -3 16 8 -3 0 -8 -11
-4 -2 17 9 -2 1 -8 -10
-3 0 18 10 0 1 -7 -9
-3 1 19 11 1 2 -7 -8
-2 3 21 12 2 3 -6 -7
-2 4 21 12 2 3 -6 -6
-2 5 22 13 2 3 -5 -5
-2 6 23 14 3 4 -5 -4
-2 7 24 15 3 4 -4 -3
-3 8 25 16 4 5 -3 -2
-3 10 25 16 4 5 -3 -2
-3 12 25 16 5 6 -2 -2
-2 14 25 16 6 7 0 0
-2 17 25 16 7 8 1 0
0 19 25 17 8 9 2 1
0 19 25 17 8 9 2 1
-2 19 26 17 8 9 3 2
-3 19 26 17 7 10 3 2
-4 19 27 17 7 10 4 3
-5 19 28 17 6 11 5 4
-4 18 26 16 5 10 5 4
-3 17 23 14 4 9 4 3
-2 16 21 13 3 8 3 3
0 15 19 11 2 7 2 2
1 13 16 9 0 6 1 1
1 12 16 9 0 6 1 1
1 11 16 9 0 6 1 1
1 9 16 8 0 6 1 1
1 8 16 8 0 6 1 1
0 6 15 7 0 6 0 1
0 4 15 6 -2 4 -3 -2
-2 1 14 5 -4 2 -5 -4
-2 -2 13 4 -5 0 -7 -6
-3 -4 12 3 -7 -3 -9 -8
-4 -7 11 1 -9 -5 -11 -10
-5 -8 11 0 -10 -6 -12 -11
-6 -9 10 -2 -11 -7 -13 -12
-7 -10 10 -3 -12 -8 -14 -13
-8 -11 9 -4 -13 -9 -15 -14
-10 -13 8 -5 -15 -11 -17 -16
-10 -14 8 -5 -15 -11 -17 -16
-10 -15 8 -5 -15 -11 -17 -16
-10 -16 8 -5 -15 -11 -17 -16
-10 -17 8 -5 -15 -11 -17 -16
-10 -19 7 -6 -15 -11 -17 -15
-10 -19 7 -6 -15 -11 -17 -15
-10 -19 7 -6 -16 -11 -17 -15
-10 -19 7 -6 -17 -11 -17 -16
-10 -19 7 -6 -18 -11 -17 -16
-11 -20 6 -7 -19 -12 -18 -17
-11 -20 6 -7 -19 -12 -18 -17
-11 -20 6 -7 -19 -12 -18 -17
-10 -20 5 -8 -20 -12 -19 -18
-10 -20 5 -8 -20 -12 -19 -18
-9 -20 4 -9 -21 -13 -20 -19
-9 -20 4 -9 -21 -13 -20 -19
-9 -20 4 -9 -21 -13 -20 -19
-9 -20 4 -8 -21 -13 -20 -19
-9 -20 4 -8 -21 -13 -20 -19
-9 -19 4 -7 -21 -13 -20 -19
-9 -19 4 -7 -21 -13 -20 -19
-9 -19 4 -7 -21 -13 -20 -19
-9 -20 4 -8 -21 -13 -20 -19
-9 -20 4 -8 -21 -13 -20 -19
-10 -21 4 -9 -22 -12 -20 -19
-8 -23 7 -3 -20 -12 -21 -21
-5 -25 11 5 -18 -11 -22 -23
-3 -27 14 11 -15 -11 -23 -26
1 -29 17 18 -13 -10 -24 -28
4 -31 21 25 -9 -9 -26 -31
6 -21 34 40 7 5 -16 -23
8 -10 48 57 23 18 -5 -15
10 1 61 73 39 31 6 -6
12 11 74 90 56 45 16 3
14 23 87 105 71 59 28 13
15 55 73 93 86 85 59 45
16 86 61 80 100 111 91 75
17 117 49 68 113 137 122 107
18 149 35 57 128 162 154 139
20 180 22 44 141 187 184 170
10 190 -4 17 129 182 186 177
-2 200 -29 -10 116 176 189 184
-12 211 -56 -35 104 171 191 192
-22 221 -81 -62 92 165 194 199
-32 230 -106 -88 78 157 195 205
-32 195 -114 -100 45 118 158 171
-32 161 -122 -111 11 79 120 136
-32 128 -132 -122 -22 40 82 101
-32 94 -140 -135 -56 2 45 66
-32 61 -148 -146 -88 -35 9 33
-30 48 -129 -129 -82 -36 1 21
-27 35 -110 -111 -78 -37 -8 10
-24 22 -91 -95 -73 -39 -15 -3
-21 9 -72 -77 -68 -40 -23 -14
-18 -4 -54 -61 -63 -43 -31 -26
-18 -6 -45 -52 -58 -40 -31 -26
-17 -8 -35 -43 -52 -37 -31 -27
-16 -10 -27 -33 -47 -34 -30 -28
-15 -12 -18 -24 -41 -31 -30 -29
-14 -15 -9 -15 -35 -28 -29 -30
-13 -17 -8 -14 -34 -28 -29 -31
-12 -19 -6 -13 -32 -27 -29 -32
-11 -22 -5 -11 -30 -26 -29 -33
-10 -24 -3 -10 -28 -25 -29 -34
-9 -27 0 -8 -26 -24 -30 -36
-9 -27 1 -8 -26 -24 -30 -36
-9 -28 2 -7 -25 -24 -30 -36
-9 -29 3 -6 -24 -23 -29 -36
-9 -30 4 -5 -23 -23 -29 -36
-9 -31 5 -4 -22 -22 -28 -35
-9 -31 5 -4 -22 -22 -28 -35
-9 -30 5 -4 -22 -23 -28 -35
-8 -29 4 -4 -22 -23 -29 -35
-8 -28 4 -4 -22 -24 -29 -35
-7 -27 3 -5 -21 -25 -30 -36
-7 -27 3 -5 -21 -25 -30 -36
-7 -27 4 -5 -21 -25 -29 -36
-7 -28 4 -5 -20 -25 -29 -36
-7 -28 5 -5 -20 -25 -28 -36
-8 -29 6 -4 -19 -24 -27 -35
-8 -29 6 -4 -19 -24 -27 -35
-7 -29 6 -4 -19 -23 -27 -35
-6 -28 6 -4 -19 -22 -27 -34
-5 -28 6 -4 -19 -21 -27 -34
-4 -27 5 -4 -19 -20 -27 -33
-4 -27 5 -4 -19 -20 -27 -33
-4 -27 5 -4 -19 -19 -27 -32
-4 -26 6 -4 -19 -18 -26 -32
-4 -26 6 -4 -19 -17 -26 -31
-5 -25 7 -3 -20 -16 -25 -30
-5 -25 7 -3 -20 -16 -25 -30
-5 -25 7 -3 -20 -15 -25 -30
-4 -25 7 -3 -20 -15 -24 -30
-4 -25 7 -3 -20 -14 -24 -30
-3 -24 6 -2 -20 -13 -23 -31
-3 -24 6 -2 -20 -13 -22 -31
-3 -23 6 -2 -20 -13 -21 -31
-3 -23 6 0 -19 -13 -20 -30
-3 -22 6 0 -19 -13 -19 -30
-4 -21 5 1 -18 -13 -18 -29
-4 -21 5 1 -18 -13 -18 -29
-4 -21 5 1 -18 -13 -18 -29
-3 -21 5 1 -17 -13 -18 -30
-3 -21 5 1 -17 -13 -18 -30
-2 -22 4 1 -16 -13 -19 -31
-2 -22 4 1 -16 -13 -19 -31
0 -21 4 1 -16 -13 -19 -31
0 -20 4 1 -16 -13 -19 -31
1 -19 4 1 -16 -13 -19 -31
2 -18 3 1 -16 -14 -18 -32
2 -18 3 1 -15 -14 -18 -32
3 -18 3 1 -14 -14 -18 -32
3 -18 3 2 -13 -13 -18 -33
4 -18 3 2 -12 -13 -18 -33
5 -17 2 3 -10 -12 -18 -34
5 -17 2 3 -9 -12 -17 -34
5 -17 2 3 -8 -12 -16 -34
5 -17 2 3 -8 -12 -16 -34
5 -17 2 3 -7 -12 -15 -34
5 -17 2 3 -6 -12 -14 -34
6 -17 2 4 -4 -12 -13 -33
7 -17 1 4 -3 -11 -12 -32
8 -17 1 5 0 -11 -11 -31
9 -17 0 5 1 -10 -10 -30
10 -17 0 5 2 -10 -10 -30
11 -16 -2 6 4 -8 -9 -29
12 -15 -2 7 5 -7 -8 -28
12 -15 -3 7 6 -5 -7 -27
13 -14 -3 8 7 -4 -6 -26
13 -14 -3 8 8 -3 -5 -26
15 -12 -5 9 9 -2 -4 -25
17 -11 -6 9 10 0 -3 -24
19 -9 -8 9 11 1 -2 -23
21 -8 -9 9 12 2 0 -22
23 -7 -10 9 12 3 1 -22
24 -5 -11 8 13 4 3 -20
25 -3 -12 8 14 5 5 -18
26 -2 -12 8 14 6 7 -17
27 1 -13 8 15 7 9 -15
28 2 -13 8 15 8 10 -14
30 4 -14 9 16 9 12 -12
31 5 -14 9 16 10 13 -10
32 7 -15 9 17 11 15 -9
33 8 -15 9 17 12 16 -7
34 9 -15 9 17 12 17 -6
35 10 -16 8 18 13 18 -4
35 11 -16 7 18 13 19 -3
35 11 -17 7 18 14 19 0
35 12 -17 6 18 14 20 1
35 12 -17 6 18 14 20 2
34 13 -18 4 17 15 21 3
33 13 -18 3 16 14 20 3
33 14 -18 2 15 13 20 3
32 14 -18 1 14 12 19 3
32 14 -18 0 13 12 19 3
31 15 -17 -2 12 11 18 3
30 16 -16 -2 12 11 18 3
29 16 -15 -3 12 11 18 3
28 17 -14 -3 12 11 18 3
28 17 -14 -3 12 11 18 3
26 17 -12 -4 11 10 19 4
24 16 -11 -4 10 9 18 4
22 15 -9 -4 10 8 17 3
20 14 -8 -4 9 7 16 3
19 13 -7 -4 9 6 16 3
16 12 -5 -4 8 4 14 1
14 11 -3 -4 7 3 12 0
11 11 -2 -3 7 2 10 -2
9 10 1 -3 6 1 8 -3
7 10 2 -3 6 0 6 -4
6 8 4 -2 5 -2 4 -6
5 6 5 -2 5 -3 3 -7
4 4 6 -2 4 -3 1 -8
3 2 7 -2 4 -4 0 -9
3 1 8 -2 4 -4 -2 -10
1 0 9 0 3 -5 -3 -11
-2 0 10 0 2 -6 -4 -12
-3 -2 10 0 1 -7 -5 -13
-5 -2 11 0 0 -8 -6 -14
-6 -2 11 0 0 -8 -6 -14
-7 -4 12 1 -2 -9 -7 -15
-8 -5 12 0 -2 -10 -8 -16
-9 -6 11 -2 -3 -10 -9 -17
-10 -7 11 -3 -3 -11 -10 -18
-10 -8 11 -3 -3 -11 -10 -18
-11 -9 10 -4 -4 -12 -11 -19
-11 -9 10 -3 -4 -12 -12 -20
-11 -9 9 -3 -4 -13 -13 -20
-11 -9 9 -2 -4 -13 -14 -21
-11 -9 9 -2 -4 -13 -14 -21
-12 -9 8 0 -5 -14 -15 -22
-12 -10 9 0 -4 -13 -15 -22
-13 -10 10 1 -4 -13 -14 -22
-13 -11 11 1 -3 -12 -14 -22
-13 -11 11 1 -3 -12 -14 -22
-14 -12 12 2 -2 -11 -13 -23
-14 -12 12 3 -2 -10 -13 -23
-14 -12 12 4 -2 -10 -13 -22
-14 -12 12 5 -2 -9 -13 -22
-14 -12 12 6 -2 -9 -13 -22
-13 -12 12 7 0 -8 -12 -21
-12 -12 12 7 1 -7 -12 -21
-12 -12 12 8 2 -7 -11 -20
-11 -12 12 8 3 -6 -11 -20
-11 -12 12 8 3 -6 -11 -20
-10 -13 12 9 4 -5 -10 -19
-10 -12 12 9 3 -5 -10 -19
-10 -12 12 9 2 -5 -11 -19
-10 -11 12 9 1 -5 -11 -19
-10 -11 12 9 1 -5 -11 -19
-10 -10 12 9 0 -6 -12 -19
-10 -10 12 9 0 -6 -12 -19
-9 -10 11 9 0 -6 -12 -19
-9 -10 11 9 0 -6 -12 -19
-9 -10 11 9 0 -6 -12 -19
-8 -11 10 9 1 -5 -11 -19
-8 -11 10 9 1 -5 -11 -19
-8 -10 10 9 0 -5 -11 -18
-8 -10 10 9 0 -5 -11 -18
-8 -10 10 9 0 -5 -11 -18
-9 -9 11 10 -2 -4 -10 -17
-9 -9 11 10 -2 -4 -10 -17
-9 -9 11 10 -2 -4 -10 -16
-9 -9 11 10 -2 -4 -10 -16
-9 -9 11 10 -2 -4 -10 -16
-8 -10 10 9 -2 -3 -9 -15
-7 -10 10 9 -2 -3 -9 -15
-7 -10 10 9 -2 -3 -8 -14
-6 -10 10 9 -2 -3 -8 -14
-6 -10 10 9 -2 -3 -8 -14
-5 -9 11 9 -3 -2 -7 -13
-5 -9 12 9 -3 -2 -7 -13
-5 -9 12 10 -3 -2 -7 -13
-5 -9 13 10 -3 -2 -7 -13
-5 -9 13 10 -3 -2 -7 -13
-6 -8 14 11 -3 0 -6 -11
-6 -6 15 11 -2 0 -5 -10
-5 -4 15 11 -2 1 -5 -8
-5 -2 16 11 0 1 -4 -7
-5 0 16 11 0 1 -4 -6
-4 2 18 12 1 2 -3 -5
-4 3 19 13 2 3 -2 -4
-5 5 20 14 3 4 0 -4
-5 6 21 15 4 5 1 -3
-5 7 22 16 5 6 1 -3
-6 9 23 17 6 7 3 0
-6 11 23 18 7 8 4 1
-5 13 24 18 7 9 5 3
-5 15 24 19 8 10 6 4
-5 17 24 19 8 10 7 5
-4 18 25 20 9 11 8 6
-4 19 25 20 9 11 8 6
-5 20 25 20 9 12 9 6
-5 21 25 20 9 12 9 6
-5 21 25 20 9 12 9 6
-6 21 25 20 9 12 10 6
-6 20 23 18 8 11 9 6
-5 18 21 17 8 10 8 6
-5 17 19 15 7 9 7 6
-5 16 17 14 7 8 6 6
-4 14 16 13 6 7 5 6
-4 13 16 13 5 6 5 5
-3 11 16 12 4 5 4 5
-3 10 16 12 3 4 4 4
-3 9 16 12 2 4 4 4
-2 6 15 11 1 3 3 2
-3 4 15 11 1 2 2 1
-4 1 15 10 0 2 1 0
-5 -3 15 10 0 1 0 -2
-5 -5 15 10 0 1 -2 -3
-7 -7 13 8 -3 -2 -4 -5
-8 -9 11 5 -5 -4 -7 -7
-9 -11 10 3 -7 -6 -9 -9
-10 -13 8 1 -8 -8 -11 -10
-11 -15 7 -2 -10 -10 -13 -12
-12 -16 6 -3 -11 -11 -14 -13
-12 -16 6 -3 -12 -11 -14 -13
-12 -16 6 -3 -13 -11 -14 -13
-12 -16 6 -3 -14 -11 -14 -13
-12 -16 6 -3 -14 -11 -14 -13
-11 -15 5 -3 -15 -12 -14 -14
-11 -16 5 -3 -15 -12 -14 -14
-11 -17 4 -4 -16 -12 -14 -14
-11 -18 4 -4 -16 -12 -14 -14
-11 -19 4 -4 -16 -12 -14 -14
-12 -20 3 -5 -17 -12 -15 -14
-12 -20 3 -5 -17 -12 -15 -14
-12 -20 3 -5 -17 -12 -15 -14
-12 -20 3 -5 -17 -12 -15 -14
-12 -20 3 -5 -17 -12 -15 -14
-13 -20 2 -5 -18 -12 -15 -14
-13 -20 2 -5 -18 -12 -15 -14
-13 -21 1 -5 -18 -13 -16 -14
-13 -21 1 -5 -18 -13 -16 -14
-13 -21 1 -5 -18 -13 -16 -14
-13 -22 0 -6 -19 -14 -17 -14
-13 -22 0 -6 -19 -14 -17 -14
-13 -22 0 -6 -19 -14 -17 -14
-13 -22 0 -6 -19 -14 -17 -14
-13 -22 0 -6 -19 -14 -17 -14
-11 -22 1 -5 -19 -14 -17 -16
-10 -25 2 -2 -18 -14 -18 -17
-9 -27 3 1 -17 -14 -18 -18
-7 -29 4 3 -16 -14 -19 -20
-6 -31 4 5 -15 -14 -19 -21
-4 -30 13 17 -6 -9 -19 -22
-2 -27 24 31 5 -2 -17 -21
1 -25 34 46 14 6 -15 -20
2 -22 46 60 24 13 -13 -19
4 -19 56 74 34 19 -11 -18
7 4 59 79 51 40 12 4
10 29 60 82 68 64 38 29
14 55 61 85 86 87 65 54
17 80 62 88 103 110 92 79
20 107 63 91 120 134 117 105
18 133 47 73 125 151 142 131
14 159 25 52 127 167 165 156
10 185 4 29 129 183 189 183
5 212 -17 8 131 198 214 209
1 237 -38 -15 133 215 237 234
-7 220 -62 -39 102 183 212 216
-15 192 -85 -65 63 140 175 186
-23 164 -108 -91 25 97 139 156
-30 137 -132 -116 -14 54 102 128
-38 109 -155 -141 -52 11 65 98
-38 89 -148 -137 -60 -4 47 77
-35 69 -133 -124 -62 -12 30 58
-32 50 -118 -112 -64 -21 15 39
-29 30 -103 -100 -66 -29 0 20
-26 11 -89 -89 -68 -38 -17 2
-24 4 -75 -76 -65 -39 -20 -5
-22 0 -63 -64 -59 -37 -22 -7
-20 -5 -51 -53 -54 -35 -23 -10
-19 -10 -38 -40 -48 -33 -24 -12
-17 -14 -26 -29 -41 -31 -25 -15
-15 -17 -20 -24 -39 -30 -26 -16
-14 -19 -17 -20 -36 -28 -26 -18
-13 -22 -13 -16 -34 -27 -26 -19
-11 -24 -9 -13 -31 -26 -26 -20
-10 -27 -5 -9 -29 -25 -26 -21
-9 -28 -4 -8 -28 -24 -25 -22
-9 -29 -3 -8 -27 -24 -25 -22
-9 -29 -3 -8 -26 -23 -25 -22
-9 -30 -2 -8 -25 -23 -25 -22
-9 -30 -2 -8 -24 -23 -25 -22
-10 -31 0 -7 -23 -22 -25 -22
-10 -31 1 -6 -22 -22 -25 -22
-9 -31 2 -5 -21 -22 -25 -22
-9 -31 3 -4 -20 -22 -25 -22
-9 -31 3 -4 -20 -22 -25 -22
-8 -30 4 -3 -19 -21 -24 -22
-7 -30 4 -4 -19 -21 -24 -22
-7 -30 3 -4 -19 -21 -24 -22
-6 -30 3 -5 -19 -21 -24 -22
-6 -30 3 -5 -19 -21 -24 -22
-5 -29 2 -6 -18 -22 -25 -23
-5 -28 2 -6 -18 -22 -25 -22
-5 -28 3 -6 -18 -21 -25 -21
-5 -27 3 -6 -18 -21 -25 -20
-5 -27 3 -6 -18 -21 -25 -19
-5 -26 4 -5 -19 -20 -24 -18
-5 -26 4 -5 -19 -19 -24 -17
-5 -26 3 -5 -19 -18 -23 -17
-5 -26 3 -5 -19 -17 -23 -16
-5 -26 3 -5 -19 -16 -23 -16
-4 -27 2 -4 -19 -15 -22 -15
-4 -27 3 -4 -19 -14 -22 -15
-4 -26 3 -3 -19 -14 -21 -15
-4 -26 4 -3 -19 -13 -21 -15
-4 -26 4 -3 -19 -13 -21 -15
-3 -25 5 -2 -20 -12 -20 -14
-2 -25 5 -2 -19 -12 -19 -14
-2 -25 4 -2 -18 -12 -19 -14
0 -25 4 -2 -17 -12 -18 -14
0 -25 4 -2 -17 -12 -18 -14
1 -26 3 -3 -16 -11 -17 -14
1 -25 3 -2 -16 -11 -17 -14
1 -24 3 -2 -16 -11 -17 -14
1 -23 3 0 -16 -11 -17 -14
1 -22 3 0 -16 -11 -17 -14
2 -21 3 1 -15 -11 -17 -14
2 -21 3 1 -14 -11 -17 -14
2 -21 3 1 -13 -11 -17 -15
2 -21 3 1 -12 -11 -17 -15
2 -21 3 1 -12 -11 -17 -15
3 -22 2 0 -11 -10 -16 -16
3 -21 2 0 -11 -10 -15 -16
3 -21 2 1 -11 -10 -15 -16
3 -20 2 1 -11 -10 -14 -16
3 -20 2 1 -11 -10 -14 -16
4 -19 3 2 -11 -11 -13 -16
5 -18 2 2 -9 -11 -13 -16
6 -18 2 2 -8 -11 -13 -16
7 -17 1 2 -7 -11 -13 -16
8 -17 1 2 -6 -11 -13 -16
9 -16 0 1 -5 -11 -13 -17
9 -16 0 1 -4 -11 -13 -17
9 -16 0 2 -3 -11 -12 -17
9 -16 0 2 -2 -11 -12 -17
9 -16 0 2 -2 -11 -12 -17
11 -15 0 3 1 -10 -11 -16
12 -14 -2 3 2 -9 -9 -15
13 -13 -3 3 3 -8 -8 -14
15 -12 -4 3 5 -7 -7 -13
16 -12 -4 3 6 -7 -6 -13
18 -11 -5 4 7 -6 -5 -12
19 -10 -6 4 8 -4 -4 -11
20 -9 -7 4 9 -3 -3 -11
22 -8 -8 4 10 -2 -2 -10
23 -7 -8 4 10 0 0 -10
25 -5 -9 5 11 2 2 -8
27 -4 -10 5 12 3 4 -7
28 -3 -11 5 13 4 6 -5
30 0 -12 5 14 6 8 -3
32 1 -12 5 15 7 10 -2
33 2 -13 6 16 8 11 0
34 3 -14 6 16 8 12 2
35 4 -15 5 16 9 13 3
36 5 -16 5 16 9 14 4
37 5 -16 5 16 9 15 5
38 7 -17 4 15 10 16 7
38 9 -17 4 15 10 17 8
39 10 -18 3 15 10 18 9
39 12 -18 3 15 10 19 11
39 14 -18 3 15 10 20 12
40 15 -19 2 15 11 21 13
39 15 -19 1 15 11 21 13
38 15 -19 0 15 11 21 13
37 15 -19 -2 15 11 21 13
37 15 -19 -2 15 11 21 13
36 15 -20 -3 14 10 21 13
36 16 -19 -4 13 10 21 13
36 17 -19 -4 13 9 22 14
36 17 -18 -5 12 9 22 14
36 18 -18 -5 12 9 22 14
34 19 -16 -6 11 8 23 15
32 18 -15 -6 11 7 22 15
29 18 -14 -6 10 6 21 14
27 17 -12 -6 10 6 20 14
25 17 -11 -6 10 5 19 14
23 15 -9 -6 9 4 17 13
21 13 -8 -6 9 2 15 11
18 12 -6 -6 8 1 14 10
16 10 -5 -6 8 0 12 9
14 8 -3 -6 8 -2 10 8
13 7 0 -5 7 -3 8 6
12 7 1 -4 6 -5 7 4
11 6 3 -3 6 -6 6 3
11 6 4 -3 5 -7 4 1
10 6 6 -2 5 -8 3 -2
8 4 7 0 4 -9 2 -3
6 3 7 0 4 -9 0 -4
4 1 8 0 4 -10 -2 -4
2 0 8 0 4 -10 -3 -5
0 -3 8 0 4 -10 -4 -5
-2 -4 9 -2 3 -11 -5 -6
-3 -5 10 -2 2 -12 -6 -8
-4 -6 10 -2 2 -12 -7 -9
-5 -7 11 -2 1 -13 -7 -10
-6 -8 11 -2 1 -13 -8 -11
-7 -9 12 -2 0 -14 -9 -12
-7 -9 12 -2 0 -14 -9 -12
-8 -10 11 -2 0 -14 -10 -13
-8 -10 11 -2 0 -14 -10 -13
-8 -10 11 -2 0 -14 -10 -13
-9 -11 10 -2 0 -15 -11 -14
-10 -11 10 -2 0 -15 -12 -14
-10 -12 10 -2 0 -15 -13 -14
-11 -12 10 -2 0 -15 -13 -14
-11 -12 10 -2 0 -15 -14 -14
-12 -13 11 0 -2 -15 -15 -15
-11 -13 11 1 0 -15 -14 -15
-11 -13 11 1 0 -14 -13 -15
-10 -13 11 2 1 -14 -13 -15
-10 -13 11 2 1 -14 -12 -15
-9 -12 10 3 2 -13 -11 -16
-9 -12 11 4 2 -13 -11 -16
-9 -12 11 4 2 -12 -11 -16
-9 -12 12 5 2 -12 -11 -16
-9 -12 12 5 2 -12 -11 -16
-10 -12 13 6 3 -11 -10 -15
-9 -12 13 6 3 -11 -10 -15
-9 -11 12 6 3 -11 -10 -15
-8 -11 12 6 3 -11 -10 -15
-8 -11 12 6 3 -11 -10 -15
-7 -10 11 6 2 -11 -11 -15
-7 -11 11 7 2 -10 -11 -14
-8 -11 11 8 2 -9 -10 -14
-8 -12 11 8 2 -9 -10 -13
-8 -12 11 9 2 -8 -10 -13
-9 -13 12 10 3 -7 -9 -12
-8 -13 12 10 3 -7 -9 -12
-8 -13 12 9 3 -7 -9 -12
-7 -13 12 9 3 -7 -9 -12
-7 -13 12 9 3 -7 -9 -12
-6 -12 11 8 2 -8 -10 -13
-6 -12 11 8 2 -8 -10 -13
-6 -12 12 8 1 -8 -10 -13
-6 -12 12 8 1 -8 -10 -13
-6 -12 12 8 1 -8 -10 -13
-6 -11 13 8 0 -7 -9 -13
-6 -12 13 8 0 -7 -9 -13
-6 -12 13 7 0 -8 -9 -13
-6 -13 13 7 0 -8 -9 -13
-6 -13 13 7 0 -8 -9 -13
-6 -14 12 6 -2 -9 -10 -13
-6 -14 12 6 -3 -9 -10 -13
-7 -14 11 5 -4 -9 -10 -13
-7 -14 11 5 -4 -9 -10 -13
-7 -14 11 5 -5 -9 -10 -13
-8 -14 10 4 -6 -9 -10 -12
-7 -12 10 4 -5 -8 -9 -12
-6 -11 10 4 -5 -8 -8 -11
-5 -9 10 4 -4 -7 -8 -11
-4 -8 10 4 -4 -7 -7 -11
-3 -7 11 5 -3 -6 -6 -10
-3 -5 13 7 -3 -5 -5 -8
-3 -4 14 8 -3 -4 -5 -7
-3 -2 16 9 -3 -4 -4 -5
-3 0 18 10 -3 -3 -4 -4
-4 1 19 11 -2 -2 -3 -3
-4 3 19 12 1 0 -2 -2
-4 4 20 13 2 1 -2 -2
-4 6 20 13 3 1 0 0
-4 7 20 14 4 2 0 0
-4 9 21 15 5 3 1 1
-4 10 23 16 6 4 2 3
-4 12 24 17 7 5 3 4
-4 13 26 17 7 5 3 5
-4 15 27 18 8 6 4 6
-4 16 28 19 9 7 5 7
-4 17 28 19 9 7 6 8
-4 18 27 19 9 8 7 8
-4 18 27 19 9 8 7 9
-4 19 27 19 9 8 8 9
-4 20 25 17 9 9 9 10
-2 19 24 16 7 8 8 9
0 17 22 14 6 7 7 8
2 16 21 12 4 6 7 8
3 15 19 10 3 5 6 7
4 14 18 9 2 4 5 6
3 13 17 9 2 4 5 6
2 11 16 8 1 4 4 5
1 10 15 8 1 4 3 5
0 9 14 8 1 4 3 5
-2 7 13 7 0 3 2 4
-2 5 13 7 0 2 1 2
-2 2 13 7 0 1 -2 1
-2 0 13 7 0 1 -3 -2
-2 -4 13 7 0 0 -4 -3
-3 -6 13 5 -3 -2 -5 -4
-5 -8 12 4 -4 -4 -7 -5
-6 -10 11 2 -6 -5 -8 -7
-8 -13 10 1 -8 -7 -10 -8
-9 -15 9 -2 -10 -8 -11 -9
-10 -16 8 -3 -11 -9 -12 -10
-10 -16 8 -3 -12 -9 -12 -10
-10 -16 7 -4 -13 -10 -13 -11
-10 -16 7 -4 -14 -11 -13 -11
-10 -16 7 -4 -15 -11 -13 -11
-11 -17 6 -5 -16 -12 -14 -12
-11 -17 6 -5 -16 -12 -14 -12
-11 -18 5 -6 -16 -13 -15 -13
-11 -19 4 -6 -16 -13 -15 -13
-11 -19 4 -6 -16 -13 -15 -13
-10 -20 3 -7 -17 -14 -16 -14
-10 -20 3 -7 -17 -14 -16 -14
-10 -20 3 -7 -18 -14 -17 -14
-10 -20 3 -7 -18 -14 -17 -14
-10 -20 3 -7 -18 -14 -17 -14
-9 -20 3 -7 -19 -15 -18 -14
-9 -20 3 -7 -19 -15 -18 -14
-9 -20 3 -7 -19 -16 -18 -15
-9 -20 3 -7 -19 -16 -18 -15
-9 -20 3 -7 -19 -16 -18 -15
-9 -19 3 -8 -18 -17 -19 -16
-9 -20 3 -8 -18 -17 -19 -16
-10 -21 2 -9 -19 -17 -19 -16
-10 -21 2 -9 -19 -17 -19 -16
-10 -22 2 -9 -19 -17 -19 -16
-10 -23 1 -9 -20 -18 -20 -16
-9 -24 1 -8 -19 -18 -20 -17
-7 -25 2 -6 -18 -17 -20 -18
-6 -25 2 -5 -17 -17 -20 -19
-4 -26 2 -3 -16 -17 -20 -20
-2 -27 9 7 -10 -13 -20 -21
2 -26 18 21 0 -7 -19 -21
4 -25 28 35 9 0 -17 -21
7 -24 37 49 18 6 -16 -21
10 -23 48 63 27 11 -15 -21
11 -7 54 72 42 27 2 -7
12 18 58 77 59 50 26 16
14 44 61 82 77 72 51 39
15 69 65 88 95 94 75 62
16 94 69 93 112 116 100 86
15 120 60 82 122 136 126 111
11 147 39 63 129 154 151 140
7 175 20 43 135 173 177 168
3 202 0 23 140 191 202 196
-2 229 -20 3 146 210 228 224
-8 226 -43 -21 127 193 219 220
-15 201 -67 -48 89 153 186 193
-22 177 -91 -73 51 114 153 168
-29 152 -115 -100 13 74 120 141
-37 128 -139 -127 -25 35 88 114
-39 105 -142 -132 -44 12 63 92
-35 85 -131 -121 -50 1 45 70
-32 64 -118 -112 -57 -12 26 49
-29 44 -107 -103 -63 -24 8 27
-26 22 -95 -93 -69 -36 -11 7
-23 12 -82 -82 -68 -41 -19 -4
-22 8 -69 -70 -62 -40 -21 -8
-20 4 -57 -59 -55 -39 -22 -11
-18 0 -44 -47 -48 -38 -24 -14
-16 -5 -31 -35 -40 -37 -25 -17
-15 -9 -23 -28 -36 -35 -26 -19
-14 -12 -18 -23 -33 -33 -26 -19
-13 -15 -14 -19 -30 -31 -26 -20
-13 -19 -10 -15 -27 -29 -26 -21
-12 -22 -5 -10 -25 -26 -26 -21
-11 -24 -3 -8 -23 -25 -25 -22
-11 -24 -3 -8 -23 -25 -25 -22
-10 -25 -3 -8 -22 -24 -26 -23
-10 -26 -3 -8 -21 -24 -26 -24
-10 -26 -3 -8 -21 -24 -26 -24
-9 -27 -2 -8 -20 -23 -27 -25
-9 -27 0 -8 -20 -23 -27 -25
-9 -26 1 -7 -19 -23 -27 -25
-9 -26 1 -6 -19 -23 -27 -25
-9 -26 2 -6 -19 -23 -27 -25
-8 -25 3 -5 -18 -22 -26 -25
-8 -25 3 -5 -17 -21 -26 -24
-7 -24 3 -5 -15 -20 -25 -23
-6 -24 3 -5 -14 -20 -24 -23
-6 -24 3 -5 -13 -19 -24 -22
-5 -23 3 -5 -12 -18 -23 -21
-5 -23 3 -5 -12 -18 -23 -21
-5 -23 4 -4 -13 -18 -23 -21
-5 -23 5 -3 -14 -18 -23 -21
-5 -23 5 -3 -14 -18 -23 -21
-6 -23 6 -2 -15 -17 -22 -20
-5 -22 6 -2 -15 -17 -22 -20
-4 -21 5 -2 -15 -16 -22 -20
-4 -21 5 -2 -15 -15 -22 -20
-3 -20 5 -2 -15 -15 -22 -20
-2 -19 4 -3 -15 -14 -21 -19
-2 -19 4 -3 -15 -14 -21 -19
-2 -19 5 -2 -16 -14 -20 -18
-2 -19 5 -2 -16 -14 -20 -18
-2 -19 5 -2 -16 -14 -20 -18
-2 -18 6 0 -17 -13 -19 -17
-2 -18 5 0 -16 -13 -19 -17
0 -17 4 0 -15 -12 -19 -17
0 -17 4 0 -15 -11 -19 -17
0 -17 3 0 -14 -11 -19 -17
1 -16 2 0 -13 -10 -18 -18
1 -16 2 0 -13 -10 -18 -18
1 -16 3 1 -12 -10 -17 -18
1 -16 4 2 -11 -10 -17 -18
1 -16 4 2 -11 -10 -17 -18
1 -16 5 3 -10 -11 -16 -17
1 -16 5 3 -9 -11 -16 -17
1 -15 5 3 -8 -10 -15 -17
1 -15 5 3 -7 -9 -14 -17
1 -15 5 3 -6 -9 -14 -17
0 -14 4 3 -5 -8 -13 -16
1 -14 4 3 -5 -9 -13 -16
2 -14 4 3 -5 -10 -13 -17
2 -14 4 3 -5 -10 -13 -17
3 -14 4 3 -5 -11 -13 -17
4 -13 3 4 -5 -12 -14 -18
5 -12 3 4 -5 -12 -14 -18
6 -11 2 4 -4 -11 -14 -18
6 -10 1 4 -3 -11 -14 -18
7 -9 1 4 -3 -11 -14 -18
8 -8 0 4 -2 -10 -14 -18
8 -8 0 4 0 -10 -13 -18
9 -8 0 5 1 -10 -12 -18
10 -8 0 6 2 -10 -12 -18
10 -8 0 6 3 -10 -11 -18
11 -8 1 7 4 -9 -10 -18
12 -8 0 7 5 -7 -9 -18
14 -7 -3 6 6 -6 -8 -17
15 -7 -4 6 7 -5 -8 -16
16 -7 -5 6 8 -3 -7 -16
17 -6 -6 5 9 -2 -6 -15
18 -5 -6 6 10 0 -5 -14
19 -3 -6 7 11 1 -3 -13
20 -2 -6 7 12 2 -2 -12
21 0 -6 8 13 3 0 -11
22 1 -7 9 14 4 1 -10
23 1 -8 9 14 6 3 -8
24 2 -10 8 15 7 5 -7
24 3 -11 8 16 8 7 -6
25 3 -12 8 16 10 9 -4
27 5 -13 7 17 11 10 -3
29 7 -14 7 17 11 11 0
31 9 -15 7 17 12 13 2
33 11 -16 7 17 13 14 4
35 13 -17 7 17 13 15 6
36 15 -18 8 17 14 16 7
36 17 -18 7 17 14 16 7
37 18 -19 6 17 15 17 8
38 19 -20 6 17 15 18 8
38 21 -20 5 17 15 18 8
39 22 -21 4 18 16 19 9
39 22 -21 4 18 16 20 10
38 23 -20 4 18 16 21 12
38 24 -19 4 18 16 22 13
38 24 -19 4 18 16 23 14
37 25 -18 4 18 16 24 15
37 25 -18 3 18 16 24 15
37 25 -18 2 17 15 24 15
37 25 -18 1 17 14 24 15
37 25 -18 0 17 14 24 15
36 25 -18 -2 16 13 24 15
34 25 -16 -2 16 11 22 15
32 25 -14 -2 15 10 21 14
30 25 -13 -2 15 9 20 13
28 25 -11 -2 15 7 18 13
27 24 -10 -2 14 6 17 12
25 23 -9 -2 14 5 15 11
23 22 -8 0 13 4 14 9
21 21 -8 0 13 3 13 8
19 20 -7 0 13 2 11 7
18 19 -5 1 12 1 10 6
16 18 -3 2 12 0 9 4
14 16 0 3 12 -2 8 2
12 15 2 3 12 -3 7 1
10 14 4 4 12 -4 6 -2
9 13 6 5 11 -5 5 -3
7 11 6 5 11 -6 3 -5
5 9 6 5 10 -7 1 -7
4 7 6 5 9 -7 -2 -8
2 5 6 5 9 -8 -4 -10
1 4 6 5 8 -9 -5 -11
0 3 7 5 8 -9 -7 -12
-2 1 8 5 7 -10 -8 -14
-3 0 8 5 7 -11 -9 -15
-4 -2 9 5 7 -11 -11 -16
-5 -3 10 5 6 -12 -12 -17
-5 -4 10 5 6 -12 -12 -17
-5 -5 10 5 6 -12 -12 -18
-6 -7 9 4 6 -13 -13 -19
-6 -8 9 4 6 -13 -13 -19
-7 -9 8 3 5 -14 -14 -20
-7 -9 8 3 5 -14 -14 -20
-7 -9 8 4 5 -14 -14 -21
-7 -9 8 5 5 -14 -14 -22
-7 -9 8 5 5 -14 -14 -22
-8 -9 8 6 4 -15 -15 -23
-8 -9 8 6 4 -15 -15 -23
-8 -9 8 6 4 -15 -15 -23
-8 -9 7 6 4 -15 -15 -23
-8 -9 7 6 4 -15 -15 -23
-9 -9 6 6 4 -15 -15 -24
-9 -9 6 7 4 -15 -15 -24
-9 -9 6 7 4 -15 -15 -24
-8 -9 6 8 4 -14 -15 -24
-8 -9 6 9 4 -14 -15 -24
-7 -8 7 10 5 -13 -14 -25
-7 -8 7 10 5 -13 -14 -25
-7 -8 7 10 5 -12 -14 -25
-7 -8 7 10 6 -11 -14 -25
-7 -8 7 10 6 -11 -14 -25
-6 -9 6 10 7 -10 -13 -24
-6 -9 6 11 7 -10 -13 -24
-6 -9 6 11 7 -10 -13 -24
-6 -9 7 12 7 -10 -13 -24
-6 -9 7 13 7 -10 -13 -24
-6 -9 8 14 7 -11 -14 -25
-6 -9 8 14 7 -11 -14 -25
-6 -9 8 14 7 -11 -14 -25
-6 -9 8 13 7 -11 -14 -25
-6 -9 8 13 7 -11 -14 -25
-5 -9 8 12 6 -11 -13 -26
-5 -9 8 12 6 -11 -13 -26
-5 -9 8 12 6 -11 -13 -26
-5 -9 8 12 5 -11 -13 -26
-5 -9 8 12 5 -11 -13 -26
-5 -10 9 12 4 -11 -14 -26
-5 -10 8 12 4 -11 -14 -26
-5 -10 7 11 3 -11 -14 -26
-5 -10 6 10 2 -11 -14 -26
-5 -10 5 10 2 -11 -14 -26
-4 -9 4 9 1 -12 -13 -27
-4 -9 4 9 1 -12 -13 -27
-4 -9 5 9 1 -12 -13 -27
-4 -9 6 9 1 -12 -14 -27
-4 -9 6 9 1 -12 -14 -27
-5 -9 7 9 1 -12 -15 -26
-5 -9 7 8 1 -12 -15 -26
-5 -9 6 7 0 -13 -15 -26
-5 -9 5 6 -2 -14 -16 -27
-5 -9 5 5 -2 -14 -16 -27
-5 -9 4 4 -3 -15 -17 -28
-5 -9 4 4 -3 -15 -17 -28
-5 -9 4 4 -3 -15 -17 -28
-4 -8 4 4 -4 -15 -17 -28
-4 -8 4 4 -4 -15 -17 -28
-3 -7 4 4 -5 -15 -18 -27
-3 -6 4 4 -4 -14 -17 -27
-3 -5 5 4 -4 -13 -16 -27
-2 -3 6 4 -3 -12 -14 -26
-2 -2 6 4 -2 -11 -13 -26
0 0 7 3 0 -10 -12 -25
0 2 9 4 0 -10 -11 -23
0 3 10 5 1 -9 -11 -22
-2 4 12 7 2 -8 -10 -21
-2 6 14 8 2 -8 -9 -19
-3 7 15 9 3 -7 -8 -18
-3 8 15 11 3 -6 -7 -16
-3 9 16 12 4 -5 -6 -15
-3 11 17 13 5 -3 -4 -13
-3 12 17 15 5 -2 -3 -11
-2 13 18 16 6 0 -2 -10
-2 15 19 16 6 0 -2 -8
-2 16 20 17 7 1 -2 -7
-2 18 21 18 8 2 0 -6
-2 20 22 18 8 2 0 -4
-2 21 23 19 9 3 1 -3
-2 21 22 18 8 3 1 -3
-2 21 22 17 8 3 1 -3
-2 21 21 16 7 3 2 -3
-2 21 20 15 6 3 2 -3
0 21 19 14 5 4 3 -2
1 19 18 14 4 4 3 -2
1 18 17 13 4 4 3 -2
2 17 16 12 3 3 2 -2
3 15 15 12 2 3 2 -2
4 14 14 11 1 2 1 -3
4 12 14 11 1 2 1 -3
3 10 13 11 1 2 1 -3
2 8 12 11 1 2 0 -4
2 6 12 11 1 2 0 -4
1 3 11 10 -2 1 -2 -5
0 1 10 8 -4 -2 -5 -6
-2 -2 9 6 -6 -4 -7 -7
-4 -5 8 4 -9 -6 -9 -9
-5 -7 7 3 -11 -8 -11 -10
-6 -9 6 1 -13 -10 -13 -11
-6 -10 6 0 -13 -10 -13 -11
-6 -11 6 0 -13 -10 -13 -11
-6 -12 6 -2 -14 -10 -13 -11
-6 -13 6 -3 -14 -10 -13 -11
-6 -14 5 -4 -15 -11 -13 -12
-6 -15 5 -4 -16 -11 -13 -12
-7 -16 5 -4 -17 -11 -14 -12
-8 -17 4 -5 -18 -11 -15 -12
-8 -18 4 -5 -19 -11 -15 -12
-9 -19 3 -6 -20 -12 -16 -12
-9 -19 3 -6 -20 -12 -16 -12
-9 -19 3 -6 -20 -12 -16 -11
-9 -18 3 -6 -20 -12 -16 -10
-9 -18 3 -6 -20 -12 -16 -10
-9 -17 2 -5 -19 -12 -16 -9
-9 -17 2 -5 -19 -12 -16 -9
-9 -17 2 -5 -19 -12 -16 -9
-9 -17 2 -5 -19 -12 -16 -9
-9 -17 2 -5 -19 -12 -16 -9
-9 -17 3 -6 -20 -12 -16 -9
-9 -17 3 -6 -20 -12 -16 -9
-9 -18 3 -6 -20 -12 -16 -9
-9 -19 3 -6 -20 -12 -16 -9
-9 -19 3 -6 -20 -12 -16 -9
-9 -20 2 -7 -20 -12 -15 -9
-9 -20 2 -7 -20 -12 -15 -9
-9 -20 2 -7 -20 -12 -15 -9
-9 -21 2 -7 -21 -12 -15 -10
-9 -21 2 -7 -21 -12 -15 -10
-7 -22 3 -4 -21 -12 -16 -11
-4 -24 6 5 -16 -10 -16 -12
0 -25 9 12 -12 -9 -17 -14
3 -27 12 20 -8 -7 -18 -15
6 -29 15 27 -3 -5 -18 -17
8 -25 22 37 7 2 -14 -14
8 -12 36 53 22 17 -2 -3
8 2 51 67 37 32 12 8
8 15 65 82 54 48 25 19
8 28 79 98 69 63 38 30
9 49 84 102 84 82 59 50
11 80 69 88 97 109 92 84
12 113 55 73 109 136 126 116
14 146 39 59 121 161 158 150
16 178 25 45 135 188 192 183
13 198 7 25 137 200 212 204
2 201 -20 -3 121 188 206 204
-10 203 -47 -30 105 177 202 205
-21 206 -73 -59 89 164 198 206
-32 209 -100 -87 72 153 193 206
-39 198 -117 -106 52 132 177 195
-38 165 -121 -112 23 97 140 160
-36 132 -126 -118 -6 62 104 127
-35 99 -129 -124 -34 27 67 93
-33 66 -133 -131 -63 -8 31 58
-32 40 -130 -129 -80 -30 6 33
-29 29 -111 -112 -75 -32 -2 23
-27 17 -93 -96 -71 -33 -8 13
-24 6 -74 -79 -67 -35 -15 3
-22 -6 -57 -63 -62 -36 -21 -7
-20 -14 -43 -50 -57 -37 -26 -14
-19 -15 -34 -41 -52 -34 -25 -14
-17 -17 -27 -33 -46 -31 -25 -14
-16 -18 -20 -25 -40 -28 -24 -15
-14 -20 -12 -17 -34 -25 -23 -15
-13 -21 -7 -12 -30 -22 -22 -16
-12 -22 -5 -11 -29 -22 -22 -16
-12 -22 -4 -10 -28 -22 -22 -16
-11 -23 -2 -9 -27 -22 -22 -17
-10 -24 0 -8 -26 -22 -22 -17
-9 -25 2 -7 -25 -21 -21 -18
-9 -25 2 -7 -24 -21 -21 -18
-9 -26 3 -7 -23 -21 -21 -18
-9 -27 4 -6 -22 -20 -21 -18
-9 -27 4 -6 -21 -20 -21 -18
-9 -28 5 -5 -20 -19 -21 -18
-9 -28 5 -5 -20 -19 -21 -18
-9 -29 5 -5 -20 -19 -21 -18
-9 -30 6 -5 -20 -19 -21 -17
-9 -30 6 -5 -20 -19 -21 -17
-8 -31 7 -5 -19 -19 -20 -16
-8 -31 7 -5 -19 -18 -20 -16
-8 -31 7 -5 -19 -18 -20 -16
-8 -30 7 -5 -19 -17 -19 -15
-8 -30 7 -5 -19 -16 -19 -15
-8 -29 7 -4 -18 -15 -18 -14
-8 -29 7 -4 -18 -15 -18 -14
-8 -29 7 -4 -18 -14 -18 -13
-8 -29 7 -4 -18 -13 -18 -12
-8 -29 7 -4 -18 -13 -18 -12
-7 -29 7 -4 -19 -12 -18 -11
-7 -28 7 -4 -19 -12 -18 -11
-7 -27 7 -4 -19 -12 -18 -11
-7 -26 7 -4 -19 -12 -17 -11
-7 -25 7 -4 -19 -12 -17 -11
-7 -24 6 -4 -19 -11 -16 -10
-7 -24 6 -4 -19 -11 -16 -10
-7 -24 6 -4 -19 -11 -16 -10
-7 -24 6 -4 -19 -11 -16 -11
-7 -24 6 -4 -19 -11 -16 -11
-7 -24 7 -3 -19 -10 -16 -12
-7 -24 7 -3 -19 -10 -16 -12
-6 -24 7 -3 -19 -10 -16 -12
-5 -24 7 -3 -18 -10 -16 -11
-5 -24 7 -3 -18 -10 -16 -11
-4 -23 7 -2 -17 -10 -15 -10
-4 -23 7 -2 -17 -10 -15 -10
-4 -23 7 -2 -17 -10 -15 -11
-3 -22 7 -2 -17 -10 -15 -12
-3 -22 7 -2 -17 -10 -15 -12
-2 -21 7 -3 -17 -11 -15 -13
-2 -21 7 -3 -16 -11 -15 -13
-2 -21 7 -3 -15 -10 -15 -13
-2 -21 7 -2 -14 -10 -14 -13
-2 -21 7 -2 -12 -9 -14 -13
-2 -21 7 0 -11 -8 -13 -14
-2 -21 7 0 -10 -8 -12 -14
0 -21 7 1 -9 -8 -11 -14
0 -21 7 1 -8 -8 -10 -13
1 -21 7 2 -6 -8 -9 -13
2 -20 7 3 -5 -7 -8 -12
3 -20 7 3 -4 -6 -7 -11
4 -19 7 3 -4 -6 -6 -11
5 -19 6 3 -3 -5 -5 -10
6 -18 6 3 -2 -4 -4 -9
7 -17 5 3 0 -3 -3 -8
7 -16 5 3 0 -3 -3 -8
8 -15 4 3 0 -3 -4 -8
8 -14 4 3 0 -3 -4 -9
9 -13 3 3 0 -3 -5 -9
10 -12 2 2 1 -3 -6 -10
11 -12 2 2 3 -2 -4 -8
12 -12 2 2 4 1 -3 -7
13 -12 1 2 6 2 0 -5
15 -12 1 2 7 4 1 -4
16 -12 0 3 9 5 3 -2
17 -11 0 3 9 5 4 0
19 -11 0 3 9 5 5 1
20 -10 -2 4 10 6 6 2
22 -9 -2 4 10 6 8 3
23 -8 -3 5 11 7 9 4
24 -6 -5 5 12 9 11 7
25 -4 -6 5 13 10 13 9
26 -3 -8 4 14 12 14 11
28 0 -9 4 15 13 16 14
29 2 -11 3 16 15 18 16
30 3 -12 3 16 15 18 16
31 5 -13 3 16 15 18 16
32 6 -14 3 17 15 19 16
33 8 -15 3 17 15 19 16
34 9 -16 3 18 16 20 17
34 9 -16 3 17 16 20 19
34 9 -16 2 17 16 21 21
34 9 -16 2 16 16 21 22
34 9 -16 1 15 16 22 24
34 10 -16 0 14 16 23 26
34 11 -16 -2 14 16 23 26
34 11 -16 -4 14 15 23 26
33 12 -16 -5 13 15 23 26
33 13 -16 -7 13 14 23 26
32 14 -16 -8 12 13 24 26
31 14 -15 -8 12 13 24 26
29 14 -14 -8 12 13 24 26
28 13 -13 -9 12 13 23 26
26 13 -12 -9 12 13 23 26
25 12 -11 -10 12 13 22 27
24 12 -10 -10 12 11 20 26
23 12 -9 -10 11 10 19 25
22 12 -8 -10 11 8 17 24
21 12 -6 -10 10 7 16 23
20 13 -5 -10 9 5 14 22
18 12 -3 -9 9 5 14 22
15 10 0 -9 9 5 14 22
13 9 2 -8 9 5 13 21
11 8 4 -7 9 5 13 21
9 6 6 -6 9 4 12 20
8 4 6 -6 9 2 10 18
6 3 7 -6 9 1 8 16
5 1 7 -6 8 -2 6 15
4 0 8 -6 8 -3 4 13
2 -3 9 -5 7 -5 2 11
1 -3 9 -5 7 -5 1 10
0 -3 9 -5 7 -5 0 8
-2 -3 10 -5 6 -6 -2 7
-4 -3 10 -5 6 -6 -3 6
-5 -4 11 -6 5 -7 -4 4
-5 -4 12 -6 5 -8 -5 3
-6 -4 12 -6 5 -9 -6 2
-6 -5 13 -6 4 -10 -7 1
-7 -5 14 -6 4 -12 -9 -2
-8 -6 15 -6 3 -13 -10 -3
-8 -8 15 -6 3 -13 -10 -3
-8 -10 15 -5 3 -13 -10 -3
-9 -11 15 -5 3 -13 -10 -3
-9 -13 15 -4 3 -13 -10 -3
-10 -15 14 -3 4 -12 -10 -4
-10 -15 14 -3 4 -12 -10 -4
-10 -15 14 -3 4 -12 -10 -5
-10 -14 14 -3 4 -12 -10 -5
-10 -14 14 -3 4 -12 -10 -6
-11 -13 14 -2 4 -11 -11 -7
-11 -13 14 -2 4 -10 -11 -7
-11 -13 14 -2 4 -9 -10 -6
-11 -12 14 0 4 -8 -10 -6
-11 -12 14 0 4 -7 -9 -5
-10 -11 13 1 5 -6 -8 -4
-10 -11 13 1 5 -6 -8 -4
-10 -11 13 1 5 -6 -8 -4
-9 -11 13 2 4 -6 -9 -4
-9 -11 13 2 4 -6 -9 -4
-8 -12 14 3 3 -6 -10 -5
-8 -12 14 3 3 -6 -10 -5
-8 -12 14 3 3 -5 -10 -5
-8 -11 13 4 3 -5 -10 -5
-8 -11 13 4 3 -4 -10 -5
-8 -10 12 5 3 -3 -9 -5
-8 -10 12 5 3 -3 -9 -5
-8 -10 13 5 3 -3 -9 -6
-8 -11 13 6 2 -3 -9 -6
-8 -11 14 6 2 -3 -9 -7
-8 -12 15 7 1 -2 -10 -8
-8 -12 15 7 1 -2 -10 -8
-8 -12 15 7 1 -2 -10 -8
-7 -12 14 7 1 -2 -10 -8
-7 -12 14 7 1 -2 -10 -8
-6 -11 13 6 0 -2 -9 -7
-6 -11 13 6 0 -2 -9 -6
-6 -11 13 6 0 -2 -8 -5
-6 -11 13 6 0 -2 -7 -4
-6 -11 13 6 0 -2 -6 -3
-5 -12 12 6 -2 0 -5 -2
-5 -12 12 6 -2 0 -5 -2
-5 -12 12 6 -2 -2 -6 -3
-4 -12 12 5 -3 -2 -7 -3
-4 -12 12 5 -3 -3 -8 -4
-3 -11 11 4 -4 -4 -9 -5
-3 -11 11 4 -4 -4 -9 -5
-3 -11 11 4 -4 -4 -9 -5
-3 -11 11 5 -4 -4 -8 -5
-3 -11 11 5 -4 -4 -8 -5
-4 -11 12 6 -5 -3 -7 -6
-4 -11 12 6 -5 -3 -7 -6
-4 -11 12 6 -5 -3 -7 -6
-4 -11 12 6 -5 -3 -7 -5
-4 -11 12 6 -5 -3 -7 -5
-3 -10 13 6 -6 -3 -7 -4
-3 -8 14 7 -6 -3 -7 -4
-2 -6 15 8 -5 -3 -7 -4
-2 -5 16 9 -5 -2 -7 -4
0 -3 17 10 -4 -2 -7 -4
1 0 18 11 -3 0 -6 -3
1 2 18 11 -3 1 -5 -2
1 4 19 11 -3 2 -4 1
0 6 20 11 -2 3 -3 2
0 8 21 11 -2 4 0 3
-2 10 22 12 0 5 1 5
-2 11 23 14 2 7 3 6
-2 13 24 16 3 9 4 7
0 14 25 18 5 12 6 8
0 15 26 20 7 14 8 10
1 17 27 22 9 16 10 11
1 17 27 22 9 16 10 11
0 18 28 22 8 16 10 11
0 19 28 21 7 15 10 11
-2 20 29 21 6 15 10 11
-3 21 30 20 5 14 9 12
-3 20 27 18 4 13 8 11
-3 19 24 17 3 12 6 10
-3 18 21 15 2 11 5 9
-3 17 18 13 1 9 4 8
-2 16 15 11 0 8 2 7
-2 15 15 11 0 8 2 7
0 14 15 11 0 8 2 7
0 13 15 11 0 8 2 7
1 11 15 11 0 8 2 7
2 10 14 11 -2 7 1 7
2 7 14 10 -3 6 1 5
1 3 13 9 -5 5 0 3
1 0 12 8 -6 4 -2 1
0 -4 11 7 -7 2 -3 -2
-2 -7 10 6 -9 1 -4 -4
-3 -8 10 5 -9 0 -5 -4
-4 -9 9 4 -10 -3 -6 -5
-5 -10 9 3 -11 -4 -7 -5
-7 -12 8 1 -12 -5 -9 -6
-8 -13 7 0 -13 -7 -10 -7
-8 -14 7 0 -13 -7 -11 -7
-8 -15 7 0 -14 -8 -12 -8
-8 -16 7 0 -14 -9 -13 -8
-8 -17 7 0 -15 -10 -14 -9
-7 -18 6 0 -16 -11 -15 -10
-7 -18 6 0 -16 -11 -15 -10
-8 -18 5 -2 -16 -11 -15 -10
-8 -18 5 -3 -17 -12 -16 -11
-9 -18 4 -4 -17 -12 -16 -11
-10 -19 3 -5 -18 -13 -17 -12
-10 -20 3 -5 -18 -13 -17 -12
-10 -21 3 -5 -18 -13 -17 -12
-9 -22 3 -5 -18 -13 -17 -12
-9 -23 3 -5 -18 -13 -17 -12
-8 -24 2 -5 -17 -13 -17 -11
-8 -24 2 -5 -17 -13 -17 -11
-8 -24 2 -5 -17 -14 -17 -11
-8 -24 1 -6 -18 -15 -17 -12
-8 -24 1 -6 -18 -16 -17 -12
-9 -23 0 -7 -19 -17 -18 -13
-9 -23 0 -7 -19 -17 -18 -13
-9 -23 0 -7 -19 -17 -18 -13
-9 -23 0 -7 -19 -17 -19 -13
-9 -23 0 -7 -19 -17 -19 -13
-9 -23 -2 -6 -19 -18 -20 -13
-8 -24 0 -3 -17 -17 -20 -13
-6 -26 1 1 -16 -16 -20 -13
-5 -28 2 5 -14 -15 -20 -14
-4 -29 4 8 -12 -13 -20 -14
-2 -31 6 13 -9 -11 -21 -15
0 -27 18 28 3 -4 -17 -13
2 -24 29 44 14 5 -13 -11
3 -20 40 60 25 12 -9 -9
4 -17 52 75 35 19 -6 -6
6 -9 62 89 48 30 3 1
9 19 61 89 66 55 30 27
12 47 60 89 84 80 58 55
15 74 59 89 101 105 87 82
18 102 58 89 118 131 114 109
20 129 54 85 134 153 141 136
13 151 30 59 133 164 161 158
6 175 8 32 131 175 182 181
-2 197 -16 7 129 185 202 204
-9 221 -38 -20 128 196 223 227
-16 237 -62 -47 119 199 236 242
-21 212 -87 -75 75 153 196 213
-26 186 -111 -105 31 108 157 183
-31 161 -136 -134 -13 62 118 154
-36 136 -159 -162 -57 17 79 125
-41 112 -179 -186 -95 -22 45 97
-37 92 -161 -165 -90 -26 31 79
-33 72 -145 -146 -86 -29 18 62
-30 53 -128 -127 -81 -33 6 46
-26 33 -111 -107 -76 -36 -8 28
-22 15 -95 -89 -72 -40 -19 13
-21 8 -80 -75 -65 -38 -20 10
-20 1 -67 -62 -58 -36 -22 7
-19 -7 -54 -49 -52 -34 -24 4
-18 -14 -40 -35 -45 -31 -25 1
-17 -20 -28 -23 -38 -29 -27 -3
-16 -22 -24 -20 -36 -29 -27 -4
-14 -25 -21 -16 -33 -28 -27 -5
-13 -27 -17 -13 -30 -27 -27 -6
-12 -29 -14 -9 -28 -26 -27 -7
-10 -32 -10 -6 -25 -25 -27 -9
-10 -32 -10 -6 -24 -25 -26 -9
-10 -32 -9 -5 -23 -25 -25 -9
-10 -32 -8 -5 -22 -25 -23 -10
-10 -32 -7 -4 -21 -25 -22 -10
-10 -32 -6 -3 -20 -25 -20 -11
-10 -32 -6 -3 -19 -25 -20 -11
-10 -32 -6 -2 -17 -25 -20 -11
-9 -33 -5 -2 -15 -25 -21 -10
-9 -33 -5 0 -14 -25 -21 -10
-8 -34 -4 1 -12 -24 -22 -9
-8 -34 -4 1 -12 -24 -22 -9
-8 -33 -4 1 -12 -23 -22 -8
-8 -33 -5 1 -12 -23 -21 -7
-8 -32 -5 1 -12 -22 -21 -6
-8 -31 -6 0 -11 -21 -20 -5
-8 -31 -6 0 -12 -21 -21 -5
-8 -31 -5 0 -13 -21 -22 -5
-8 -31 -4 1 -14 -21 -23 -5
-8 -31 -3 1 -15 -21 -24 -5
-8 -32 -2 2 -16 -21 -25 -4
-8 -32 -2 2 -16 -20 -25 -4
-8 -32 -3 2 -16 -19 -24 -4
-8 -32 -3 1 -16 -17 -24 -3
-8 -32 -4 1 -16 -16 -23 -3
-7 -32 -5 0 -17 -14 -22 -2
-7 -32 -5 0 -17 -14 -22 -2
-7 -31 -5 0 -17 -14 -22 -2
-7 -30 -5 0 -18 -13 -21 0
-7 -29 -5 0 -18 -13 -21 0
-7 -28 -4 1 -19 -12 -20 1
-7 -28 -4 1 -19 -12 -20 1
-7 -28 -4 1 -19 -12 -20 1
-7 -29 -4 1 -18 -12 -20 1
-7 -29 -4 1 -18 -12 -20 1
-7 -30 -5 1 -17 -11 -19 2
-7 -30 -5 1 -16 -11 -19 2
-6 -30 -5 1 -15 -11 -18 2
-6 -29 -6 2 -14 -11 -18 2
-5 -29 -6 2 -13 -11 -17 2
-4 -28 -7 3 -12 -10 -16 3
-4 -27 -7 3 -12 -10 -16 3
-3 -26 -7 3 -12 -10 -16 3
-3 -25 -7 3 -12 -11 -15 3
-2 -24 -7 3 -12 -11 -15 3
0 -23 -7 3 -11 -12 -14 3
0 -23 -7 3 -10 -12 -14 3
0 -23 -7 4 -9 -12 -14 3
1 -23 -7 4 -8 -12 -14 3
1 -23 -7 5 -7 -12 -14 3
2 -24 -8 6 -6 -11 -14 3
2 -24 -8 6 -5 -11 -13 4
2 -24 -8 6 -4 -10 -12 5
2 -23 -8 6 -3 -9 -10 6
2 -23 -8 6 -2 -8 -9 7
3 -22 -8 6 0 -7 -7 8
3 -22 -8 6 1 -7 -7 8
3 -22 -8 7 2 -6 -7 8
4 -23 -8 8 3 -6 -7 8
4 -23 -8 9 4 -5 -7 8
5 -24 -8 10 5 -4 -6 9
7 -23 -9 10 5 -4 -6 9
9 -21 -11 10 6 -4 -5 9
11 -19 -12 9 6 -3 -4 9
13 -17 -14 9 7 -3 -3 9
15 -15 -16 8 8 -2 -2 8
16 -15 -16 8 9 0 0 9
17 -15 -16 9 10 1 1 11
18 -16 -17 9 11 2 2 13
19 -16 -17 10 12 3 3 15
20 -17 -18 11 13 5 5 17
21 -16 -19 11 14 6 6 18
22 -15 -20 11 15 8 7 19
24 -14 -21 11 16 9 8 20
25 -13 -22 11 17 11 9 21
27 -11 -23 10 19 13 11 22
28 -10 -24 10 19 13 12 23
29 -9 -25 10 19 14 13 25
30 -8 -26 10 19 14 14 27
31 -7 -27 10 19 15 15 29
32 -6 -28 10 19 16 16 31
32 -5 -29 9 19 16 16 32
33 -3 -30 8 19 16 17 33
33 -2 -31 7 19 16 18 34
34 1 -32 6 19 16 19 35
35 3 -34 4 19 16 20 36
35 3 -34 3 18 16 20 36
35 3 -34 2 17 16 20 36
35 4 -34 1 16 16 21 36
35 4 -34 0 15 16 21 36
34 5 -34 -3 14 15 22 37
34 5 -34 -4 13 14 22 37
34 6 -34 -5 12 13 22 38
34 6 -34 -7 11 12 21 38
34 7 -34 -8 10 11 21 39
33 8 -33 -10 8 10 20 40
32 8 -32 -10 8 10 20 40
30 8 -30 -10 8 10 19 39
29 9 -29 -10 7 9 19 39
27 9 -27 -10 7 9 18 38
25 10 -25 -10 6 8 17 37
23 9 -24 -10 6 7 15 36
21 8 -22 -10 5 5 13 34
18 6 -21 -10 4 3 11 32
16 5 -19 -10 3 1 9 30
13 3 -17 -10 2 -2 7 28
13 3 -16 -10 2 -3 7 28
12 3 -14 -10 1 -4 6 27
11 2 -13 -10 1 -5 6 26
10 2 -11 -10 0 -6 5 25
9 1 -9 -10 -2 -7 4 24
8 0 -9 -10 -2 -7 3 23
6 -2 -8 -10 -2 -8 2 22
5 -3 -8 -10 -2 -8 1 21
3 -4 -7 -10 -2 -9 0 20
1 -6 -6 -9 -2 -10 -3 18
0 -7 -5 -9 -2 -11 -4 17
-3 -8 -4 -9 -2 -12 -6 15
-4 -9 -3 -8 -3 -13 -8 14
-6 -10 -2 -8 -3 -14 -10 12
-8 -11 0 -7 -4 -16 -12 10
-8 -11 0 -7 -4 -16 -12 10
-8 -11 0 -7 -4 -16 -12 10
-9 -11 0 -7 -4 -16 -12 10
-9 -11 0 -7 -4 -16 -12 10
-10 -12 -2 -8 -3 -15 -11 11
-10 -12 -2 -8 -3 -15 -11 11
-10 -13 -2 -7 -3 -15 -11 11
-10 -14 0 -7 -3 -15 -11 10
-10 -15 0 -6 -3 -15 -11 10
-9 -16 1 -5 -3 -15 -11 9
-9 -16 1 -5 -3 -14 -11 9
-9 -15 1 -4 -3 -13 -11 9
-9 -15 1 -3 -3 -12 -10 9
-9 -14 1 -2 -3 -11 -10 9
-9 -13 2 0 -2 -9 -9 9
-9 -13 2 0 -2 -9 -9 9
-9 -14 2 1 -2 -8 -9 9
-9 -15 3 1 -2 -8 -9 10
-9 -16 3 2 -2 -7 -9 10
-10 -17 4 3 -3 -6 -10 11
-10 -17 4 3 -3 -5 -10 11
-10 -17 4 3 -3 -4 -10 11
-9 -16 3 3 -4 -3 -9 11
-9 -16 3 3 -4 -2 -9 11
-8 -15 2 2 -5 0 -8 11
-8 -15 2 2 -5 0 -8 11
-8 -15 3 3 -5 0 -8 11
-8 -15 3 3 -5 1 -7 12
-8 -15 4 4 -5 1 -7 12
-7 -14 5 5 -5 2 -6 13
-7 -14 5 5 -5 2 -6 13
-7 -13 5 5 -5 2 -6 13
-7 -13 5 5 -5 3 -6 13
-7 -12 5 5 -5 3 -6 13
-6 -11 4 6 -5 4 -7 12
-6 -11 4 6 -5 4 -7 12
-6 -11 4 6 -6 4 -7 12
-6 -12 4 6 -6 4 -7 12
-6 -12 4 6 -7 4 -7 12
-7 -13 5 6 -8 5 -7 13
-7 -13 5 6 -8 5 -7 13
-6 -12 5 6 -8 5 -6 13
-5 -11 5 6 -9 5 -6 13
-4 -10 5 6 -9 5 -5 13
-3 -9 5 5 -10 6 -4 14
-3 -9 6 6 -9 6 -4 13
-2 -9 7 7 -8 7 -3 11
-2 -8 8 9 -7 7 -3 10
0 -8 9 10 -6 8 -2 8
1 -7 10 12 -4 9 0 6
1 -5 11 12 -4 9 0 6
0 -3 13 12 -4 10 1 6
0 1 15 13 -3 11 2 6
-2 3 17 13 -3 12 3 6
-3 6 19 14 -2 13 4 7
-2 7 19 14 -2 13 4 7
0 8 19 15 -2 14 4 7
1 9 19 16 0 14 4 7
2 10 19 17 0 15 4 7
3 11 19 17 0 15 4 7
3 13 21 18 1 16 5 8
2 15 22 18 2 17 6 9
1 16 23 19 3 17 7 10
0 18 24 19 4 18 8 11
-2 19 25 19 5 18 8 11
-3 20 25 20 6 18 9 12
-3 19 24 19 5 16 8 11
-3 19 23 18 4 14 7 10
-3 18 22 17 3 12 6 9
-3 18 21 16 2 10 6 9
-2 17 20 15 1 9 5 8
0 16 19 14 1 9 5 8
0 15 18 14 1 9 5 7
1 14 17 13 1 9 5 7
1 14 17 13 1 9 5 7
2 11 16 12 2 10 4 6
1 9 16 12 1 9 3 5
1 6 15 11 0 8 3 4
0 4 15 11 -2 7 2 3
0 2 15 11 -2 6 2 2
-3 -2 14 9 -3 4 0 0
-5 -5 13 8 -4 2 -3 -3
-6 -8 12 7 -5 1 -5 -5
-8 -11 11 6 -6 -2 -7 -7
-9 -13 10 5 -7 -3 -9 -9
-10 -14 9 3 -9 -5 -10 -10
-10 -15 9 2 -10 -7 -11 -11
-10 -15 8 0 -12 -8 -12 -12
-10 -16 8 -2 -13 -10 -13 -13
-10 -16 8 -3 -14 -11 -14 -14
-9 -17 7 -4 -15 -12 -15 -15
-9 -18 7 -4 -15 -12 -15 -15
-9 -18 6 -5 -16 -13 -16 -15
-9 -19 6 -5 -16 -13 -16 -15
-9 -19 6 -5 -16 -13 -16 -15
-9 -20 5 -6 -17 -14 -17 -16
-9 -20 5 -6 -17 -14 -17 -16
-9 -21 5 -6 -16 -14 -17 -16
-9 -21 5 -6 -16 -14 -17 -16
-9 -21 5 -6 -16 -14 -17 -16
-10 -22 4 -6 -15 -13 -16 -16
-10 -22 4 -6 -15 -14 -17 -17
-10 -22 4 -6 -15 -15 -18 -17
-10 -22 4 -6 -15 -16 -19 -18
-10 -22 4 -6 -15 -16 -19 -18
-10 -21 5 -7 -16 -17 -20 -19
-10 -21 5 -7 -16 -17 -20 -19
-10 -21 5 -7 -17 -18 -20 -19
-10 -21 5 -7 -17 -18 -20 -19
-10 -21 5 -7 -17 -18 -20 -19
-10 -22 4 -6 -17 -19 -21 -19
-9 -24 4 -5 -16 -19 -21 -19
-8 -25 4 -4 -15 -19 -21 -19
-7 -27 4 -3 -14 -19 -21 -19
-7 -28 4 -2 -13 -19 -21 -19
-4 -29 12 12 -4 -15 -20 -20
-2 -29 21 25 5 -11 -19 -21
2 -29 29 38 14 -8 -19 -21
4 -29 38 52 22 -4 -18 -22
6 -29 48 65 31 0 -18 -22
8 -9 53 72 49 21 3 -5
10 13 57 79 66 43 24 15
11 34 62 87 84 65 46 34
13 56 67 93 101 87 67 54
14 77 71 100 118 108 89 73
13 107 55 80 125 128 115 102
11 138 35 58 132 147 142 131
8 168 16 35 138 167 170 159
6 197 -4 13 144 186 196 189
4 228 -23 -10 150 204 223 218
-5 223 -52 -44 112 171 201 204
-14 214 -81 -77 70 133 175 187
-22 205 -111 -112 28 94 149 171
-31 196 -140 -146 -14 55 122 153
-39 188 -170 -180 -56 17 97 137
-38 160 -162 -172 -64 3 76 114
-35 132 -152 -158 -69 -10 57 91
-33 102 -142 -145 -75 -22 37 68
-30 73 -132 -132 -81 -34 17 45
-28 44 -121 -118 -87 -48 -3 22
-25 31 -105 -102 -79 -49 -9 14
-23 21 -88 -86 -71 -49 -13 6
-20 10 -71 -69 -62 -49 -18 -2
-18 -2 -54 -53 -53 -49 -23 -10
-16 -13 -37 -36 -44 -49 -27 -17
-14 -16 -30 -29 -39 -46 -28 -18
-13 -19 -25 -23 -35 -43 -28 -19
-12 -21 -19 -18 -31 -39 -28 -19
-11 -24 -14 -12 -27 -37 -28 -20
-10 -26 -8 -6 -23 -34 -28 -20
-9 -27 -7 -5 -21 -33 -27 -21
-9 -27 -7 -5 -19 -33 -27 -21
-8 -28 -6 -5 -18 -32 -27 -21
-8 -28 -6 -5 -16 -32 -27 -21
-8 -28 -6 -5 -15 -32 -27 -21
-7 -29 -4 -4 -14 -31 -26 -22
-7 -29 -3 -3 -13 -32 -26 -23
-8 -30 -2 -2 -13 -33 -27 -23
-8 -30 0 0 -12 -34 -27 -24
-8 -30 1 0 -12 -34 -27 -24
-9 -31 2 1 -10 -35 -28 -25
-8 -31 2 1 -9 -35 -28 -25
-8 -31 1 0 -8 -35 -27 -25
-7 -31 1 0 -7 -35 -27 -25
-7 -31 1 0 -6 -35 -27 -25
-6 -32 0 -2 -5 -35 -26 -24
-6 -32 0 0 -5 -35 -26 -24
-6 -32 1 1 -5 -34 -26 -24
-6 -32 1 2 -5 -34 -26 -24
-6 -32 1 2 -5 -34 -26 -24
-5 -31 2 3 -6 -32 -25 -24
-5 -31 2 3 -6 -31 -24 -23
-5 -30 2 3 -7 -29 -23 -22
-5 -30 2 3 -7 -28 -22 -21
-5 -30 2 3 -7 -27 -22 -20
-5 -29 1 2 -8 -26 -21 -19
-5 -29 1 2 -8 -26 -21 -19
-4 -28 2 3 -9 -25 -21 -19
-4 -28 2 3 -9 -25 -21 -19
-4 -28 2 3 -9 -25 -21 -19
-3 -27 3 4 -10 -24 -21 -19
-3 -27 2 4 -10 -24 -21 -19
-3 -26 1 3 -10 -24 -21 -20
-3 -26 0 3 -10 -24 -21 -20
-3 -26 0 3 -10 -24 -21 -20
-2 -25 -2 3 -10 -23 -21 -21
-2 -25 0 4 -9 -23 -21 -21
0 -25 0 5 -8 -23 -20 -21
0 -25 1 6 -7 -23 -20 -21
0 -25 1 7 -6 -23 -20 -21
1 -26 2 8 -5 -23 -19 -20
1 -25 1 8 -5 -22 -19 -20
2 -25 1 7 -4 -22 -18 -20
2 -24 0 7 -4 -21 -18 -20
2 -24 0 7 -4 -21 -18 -20
3 -23 -2 6 -3 -20 -17 -21
3 -23 -2 6 -3 -20 -17 -21
3 -23 -2 7 -3 -20 -17 -21
3 -23 -2 7 -3 -20 -17 -21
3 -23 -2 7 -3 -20 -17 -21
4 -22 -2 8 0 -21 -16 -22
5 -22 -2 9 2 -20 -15 -22
5 -21 -2 9 3 -20 -14 -22
6 -21 -2 10 5 -19 -13 -22
6 -21 -2 10 6 -19 -12 -22
7 -20 -2 11 7 -18 -11 -21
7 -20 -2 12 7 -18 -11 -21
8 -20 -2 12 7 -18 -11 -21
8 -20 -2 13 7 -18 -11 -21
8 -20 -2 13 7 -18 -11 -21
9 -20 -3 14 9 -17 -10 -21
10 -20 -3 14 11 -16 -9 -21
11 -19 -4 14 13 -15 -8 -21
12 -19 -4 14 15 -14 -7 -21
12 -19 -4 14 17 -14 -7 -21
14 -18 -5 14 18 -12 -5 -19
16 -17 -5 15 19 -11 -4 -18
18 -16 -6 16 20 -9 -2 -17
19 -15 -6 17 21 -8 0 -16
21 -15 -6 18 22 -7 1 -15
22 -13 -8 19 23 -5 3 -13
23 -12 -10 19 24 -4 4 -12
24 -11 -12 18 25 -3 6 -11
25 -10 -13 18 26 -2 7 -10
25 -9 -15 18 26 0 8 -9
27 -8 -16 17 27 1 9 -8
29 -7 -17 17 27 1 9 -7
31 -6 -17 17 27 2 10 -7
32 -5 -18 17 27 2 10 -6
34 -5 -18 17 27 2 10 -6
35 -3 -20 17 28 3 12 -4
36 -2 -21 16 28 4 13 -3
36 1 -22 15 28 4 15 0
37 3 -23 14 28 5 16 2
37 4 -24 13 28 5 17 3
38 5 -25 12 27 6 18 4
38 5 -25 11 27 5 18 4
37 5 -24 10 26 5 18 4
37 5 -24 9 26 4 18 4
37 5 -24 9 26 4 18 4
36 6 -23 7 25 3 18 5
35 7 -23 6 24 3 18 6
35 8 -23 4 23 3 18 7
34 9 -23 2 22 3 18 8
34 10 -23 1 21 3 18 9
32 11 -23 0 19 1 18 10
31 11 -22 -2 18 0 17 9
29 11 -21 -3 16 -3 15 8
27 11 -20 -4 14 -5 13 7
26 11 -19 -5 13 -6 12 6
24 10 -17 -6 12 -7 11 5
22 9 -16 -6 11 -8 10 4
20 9 -15 -6 10 -9 9 3
18 8 -13 -6 9 -10 8 2
16 8 -12 -6 9 -11 7 1
14 6 -10 -7 8 -12 5 -2
13 5 -9 -6 7 -13 4 -3
11 4 -7 -5 7 -14 3 -4
9 2 -5 -4 6 -15 2 -6
8 1 -4 -4 6 -15 1 -7
6 0 -3 -3 5 -16 -2 -8
5 -2 -2 -3 4 -17 -3 -9
4 -2 0 -4 4 -18 -4 -10
3 -3 1 -4 3 -19 -5 -11
2 -3 1 -4 3 -19 -6 -11
1 -4 2 -5 2 -20 -8 -13
-2 -6 3 -4 2 -21 -10 -14
-3 -7 4 -4 2 -22 -12 -15
-4 -8 5 -3 2 -23 -13 -17
-5 -9 5 -3 2 -23 -15 -18
-6 -10 6 -2 1 -24 -16 -19
-6 -10 6 -2 1 -24 -16 -19
-7 -10 6 -2 2 -24 -16 -19
-7 -10 6 -2 2 -24 -16 -19
-7 -10 6 -2 2 -24 -16 -19
-8 -11 6 -3 3 -24 -16 -20
-8 -12 6 -3 3 -24 -16 -20
-8 -12 6 -2 2 -25 -17 -20
-8 -13 6 -2 2 -25 -17 -20
-8 -13 6 -2 2 -25 -17 -20
-9 -14 6 0 1 -26 -18 -20
-9 -14 6 0 1 -25 -18 -21
-9 -13 6 0 1 -24 -18 -21
-9 -13 6 0 1 -23 -18 -22
-9 -13 6 0 1 -23 -18 -22
-8 -12 5 -2 2 -22 -18 -23
-8 -12 6 1 2 -22 -18 -23
-9 -13 7 2 2 -21 -17 -22
-9 -13 8 3 2 -21 -17 -22
-9 -13 9 4 2 -21 -17 -22
-10 -14 10 5 3 -20 -16 -21
-10 -14 10 5 3 -18 -16 -21
-9 -13 9 6 3 -17 -15 -21
-9 -13 9 6 3 -16 -15 -21
-9 -13 9 6 3 -15 -15 -21
-8 -12 8 7 3 -14 -14 -21
-8 -12 8 7 3 -14 -14 -21
-7 -12 9 7 3 -14 -14 -21
-7 -12 9 7 3 -14 -14 -21
-7 -12 9 7 3 -14 -14 -21
-6 -11 10 8 2 -12 -14 -20
-6 -11 10 8 2 -11 -14 -20
-6 -11 10 8 2 -10 -13 -20
-6 -11 10 8 2 -8 -13 -20
-6 -11 10 8 2 -7 -13 -20
-6 -11 10 9 2 -6 -12 -19
-5 -10 10 9 2 -6 -12 -19
-4 -10 11 10 2 -6 -12 -18
-3 -9 11 10 2 -6 -12 -18
-3 -9 11 10 2 -6 -12 -18
-2 -8 12 11 2 -6 -11 -17
-2 -7 12 11 2 -5 -10 -16
-2 -6 13 11 2 -4 -9 -15
-2 -5 13 11 2 -3 -8 -14
-2 -5 13 11 2 -2 -8 -14
0 -3 15 12 2 1 -6 -13
0 0 17 14 3 2 -5 -11
0 2 19 15 4 3 -4 -10
0 3 20 16 5 5 -2 -9
0 5 22 17 6 6 0 -8
1 6 23 18 7 7 1 -7
1 8 23 18 7 7 1 -6
1 9 23 17 6 7 1 -6
1 10 23 17 6 7 1 -5
1 11 23 17 6 7 1 -5
1 13 23 16 5 7 1 -4
1 16 25 17 6 8 2 -2
1 18 26 18 6 8 3 0
1 21 27 19 7 9 4 1
1 23 28 19 7 9 5 2
0 24 29 20 8 10 6 3
0 23 28 20 8 10 6 3
0 23 27 19 8 11 6 3
0 22 26 19 8 11 6 3
0 22 25 19 8 11 6 3
-2 20 23 17 7 12 7 4
0 19 22 16 6 10 7 3
1 17 21 15 5 9 6 2
2 15 19 13 3 8 6 1
2 14 18 12 2 7 6 1
3 13 17 11 1 6 5 0
3 13 16 11 1 6 5 0
2 12 16 10 1 6 4 0
2 12 15 10 1 6 4 0
2 12 15 10 1 6 4 0
1 9 14 9 1 5 2 -2
0 5 14 9 -2 4 1 -3
-2 2 13 8 -3 4 -2 -5
-3 -2 13 8 -4 3 -4 -7
-3 -6 13 8 -5 3 -5 -8
-4 -7 12 6 -7 1 -7 -9
-6 -9 11 4 -9 -3 -9 -11
-7 -10 10 3 -10 -5 -10 -12
-8 -11 9 1 -12 -8 -12 -13
-9 -12 8 -2 -14 -10 -14 -14
-10 -13 7 -3 -15 -11 -15 -15
-10 -14 7 -3 -15 -11 -15 -15
-10 -15 7 -4 -15 -11 -15 -15
-10 -16 7 -4 -15 -11 -15 -15
-10 -17 7 -4 -15 -11 -15 -15
-10 -18 7 -5 -16 -11 -15 -15
-10 -18 7 -6 -16 -11 -15 -15
-10 -18 6 -6 -16 -11 -16 -16
-10 -18 6 -7 -16 -11 -16 -16
-10 -18 6 -7 -16 -11 -16 -16
-10 -17 5 -8 -17 -12 -17 -17
-10 -17 5 -8 -17 -12 -17 -17
-10 -17 5 -8 -18 -12 -17 -16
-10 -17 5 -8 -18 -12 -17 -16
-10 -17 5 -8 -18 -12 -17 -16
-10 -18 5 -8 -19 -12 -17 -15
-10 -18 5 -8 -19 -13 -17 -15
-10 -18 4 -9 -20 -14 -17 -15
-10 -18 4 -9 -20 -14 -17 -15
-10 -18 4 -9 -20 -15 -17 -15
-11 -19 3 -10 -21 -16 -18 -16
-11 -19 3 -10 -21 -16 -18 -16
-11 -19 4 -10 -21 -15 -18 -16
-11 -19 4 -10 -21 -15 -18 -16
-11 -19 4 -10 -21 -15 -18 -16
-9 -20 6 -6 -19 -13 -18 -17
-6 -22 8 0 -15 -12 -18 -18
-3 -25 10 4 -11 -11 -19 -19
1 -28 12 9 -7 -9 -19 -19
4 -31 14 13 -3 -8 -19 -20
5 -25 25 28 10 3 -13 -16
5 -14 39 47 25 16 -3 -8
6 -4 54 65 40 30 8 0
6 8 68 84 56 44 18 8
6 19 82 103 71 57 28 15
8 45 77 98 85 79 54 40
9 77 64 85 98 104 85 73
11 109 50 70 111 130 116 105
12 141 36 56 125 155 148 138
14 173 23 42 138 181 179 170
8 189 1 18 132 184 189 183
-3 199 -26 -11 118 177 191 190
-14 210 -52 -38 104 170 192 197
-24 221 -78 -67 90 162 194 204
-35 231 -104 -95 75 155 196 212
-38 211 -118 -110 48 126 171 190
-37 178 -127 -121 16 88 134 157
-36 144 -136 -133 -17 50 97 125
-35 111 -145 -144 -50 11 61 92
-34 78 -153 -155 -82 -27 24 58
-32 58 -142 -146 -88 -38 8 40
-29 44 -122 -126 -80 -39 0 29
-26 29 -102 -106 -74 -39 -8 18
-24 15 -82 -87 -68 -40 -16 6
-21 1 -62 -67 -61 -40 -23 -6
-20 -6 -50 -55 -55 -39 -26 -10
-19 -9 -40 -46 -50 -36 -26 -12
-18 -12 -31 -36 -44 -33 -26 -13
-17 -14 -21 -26 -38 -30 -26 -14
-16 -17 -12 -17 -32 -27 -26 -15
-15 -19 -8 -14 -30 -26 -25 -16
-14 -20 -7 -12 -29 -26 -25 -17
-13 -22 -5 -11 -28 -26 -26 -18
-12 -23 -4 -9 -27 -26 -26 -18
-11 -25 -2 -8 -26 -26 -26 -19
-10 -26 0 -7 -25 -26 -27 -20
-10 -27 0 -6 -23 -25 -27 -20
-11 -28 1 -6 -22 -25 -27 -20
-11 -29 1 -5 -20 -24 -27 -20
-11 -30 1 -5 -19 -24 -27 -20
-12 -31 2 -4 -18 -23 -26 -20
-11 -31 2 -4 -17 -23 -25 -20
-10 -31 2 -4 -16 -23 -25 -19
-10 -31 2 -4 -16 -23 -24 -19
-9 -31 2 -4 -15 -23 -24 -19
-8 -31 2 -4 -14 -23 -23 -18
-8 -31 2 -4 -14 -23 -23 -17
-7 -30 3 -4 -14 -23 -23 -17
-7 -30 3 -4 -14 -23 -23 -16
-7 -30 3 -4 -14 -23 -23 -16
-6 -29 4 -3 -13 -23 -23 -15
-6 -28 4 -3 -13 -23 -23 -15
-7 -28 4 -3 -14 -22 -23 -15
-7 -27 4 -3 -14 -22 -23 -15
-7 -27 4 -3 -14 -22 -23 -15
-8 -26 4 -3 -15 -21 -24 -16
-8 -26 4 -3 -15 -19 -23 -15
-8 -26 4 -3 -16 -18 -22 -14
-8 -26 4 -3 -16 -17 -22 -14
-8 -26 4 -3 -16 -16 -21 -13
-7 -26 4 -4 -17 -15 -20 -12
-6 -26 4 -4 -17 -15 -20 -12
-5 -26 4 -3 -16 -15 -20 -12
-5 -26 4 -3 -16 -15 -20 -12
-4 -26 4 -3 -16 -15 -20 -12
-3 -25 3 -2 -15 -14 -19 -12
-3 -25 3 -2 -15 -14 -18 -12
-4 -25 3 -2 -14 -13 -18 -12
-4 -25 3 -2 -14 -13 -17 -12
-4 -25 3 -2 -14 -13 -17 -12
-5 -24 4 0 -13 -12 -16 -11
-4 -24 4 1 -12 -12 -16 -11
-3 -24 4 1 -12 -12 -16 -11
-3 -24 4 2 -11 -12 -16 -11
-2 -24 4 2 -11 -12 -16 -11
0 -23 3 3 -10 -12 -16 -12
0 -22 3 3 -9 -12 -16 -12
0 -22 3 3 -9 -12 -15 -12
0 -21 3 3 -8 -12 -15 -12
0 -21 3 3 -8 -12 -15 -12
0 -20 2 3 -7 -11 -14 -11
0 -20 2 3 -7 -11 -14 -11
0 -20 2 4 -7 -11 -14 -11
0 -20 2 4 -7 -11 -14 -11
0 -20 2 4 -7 -11 -14 -11
1 -20 2 5 -5 -11 -14 -11
3 -19 2 5 -4 -10 -12 -10
4 -19 2 6 -2 -10 -11 -9
5 -18 2 6 0 -9 -10 -9
6 -18 2 6 2 -9 -9 -8
7 -17 2 7 3 -8 -8 -7
8 -17 1 7 3 -8 -8 -7
9 -18 0 7 4 -7 -7 -7
10 -18 0 7 5 -7 -7 -7
11 -18 -2 7 5 -7 -7 -7
12 -19 -3 8 7 -6 -6 -7
13 -18 -3 8 8 -4 -5 -7
14 -17 -4 8 10 -3 -3 -6
14 -16 -4 8 11 0 -2 -5
15 -15 -4 8 13 1 0 -5
17 -14 -5 9 14 2 1 -4
18 -13 -6 9 15 3 3 -3
20 -12 -8 10 17 4 4 0
22 -11 -9 11 18 5 6 1
24 -10 -10 11 19 6 7 2
25 -9 -11 12 20 7 9 4
25 -7 -11 12 20 9 10 5
26 -6 -12 12 21 10 12 7
27 -4 -13 12 22 12 14 9
27 -3 -13 12 22 13 16 11
29 -2 -14 12 23 14 17 12
30 -2 -15 12 23 14 17 13
32 0 -16 11 24 14 18 15
33 1 -17 10 24 14 18 16
35 1 -18 10 24 14 18 17
36 2 -19 9 25 15 19 18
36 3 -19 9 25 15 20 19
36 4 -19 9 24 16 21 20
36 5 -19 9 24 16 22 21
36 6 -19 9 24 16 23 22
36 7 -19 8 23 17 24 23
35 8 -19 6 23 17 24 23
34 9 -19 5 22 16 24 24
34 9 -19 3 21 15 24 24
33 10 -19 2 21 15 24 24
32 11 -19 1 20 14 23 25
31 12 -19 0 20 14 23 25
30 13 -18 -2 19 13 23 25
30 13 -18 -2 18 13 23 25
29 14 -18 -3 18 13 23 25
27 15 -16 -4 17 11 22 26
26 15 -15 -4 15 10 20 25
24 14 -13 -4 14 8 19 23
23 13 -11 -4 12 6 17 22
21 13 -9 -4 11 4 16 21
19 12 -7 -5 10 3 14 19
17 11 -6 -5 10 2 13 18
15 10 -4 -5 9 0 11 16
13 9 -3 -5 8 -2 9 15
11 8 0 -5 8 -3 7 13
9 6 1 -5 7 -4 6 12
8 4 2 -4 7 -4 5 10
6 2 4 -3 7 -5 3 8
4 0 5 -3 7 -5 2 7
2 -3 6 -2 7 -5 1 5
1 -4 7 0 6 -6 0 4
0 -4 7 0 6 -7 -2 4
-2 -5 7 0 5 -8 -3 3
-3 -6 7 0 4 -8 -3 2
-4 -6 7 0 4 -9 -4 2
-5 -7 8 -2 3 -10 -5 1
-5 -7 8 -2 3 -10 -5 1
-6 -8 9 -2 3 -11 -6 0
-7 -9 9 -2 3 -12 -7 -2
-7 -9 9 -2 3 -12 -7 -2
-8 -10 10 -2 2 -13 -8 -3
-8 -10 10 -2 2 -13 -8 -4
-9 -11 10 -2 2 -14 -9 -5
-9 -11 10 -2 2 -15 -10 -5
-9 -11 10 -2 2 -15 -10 -6
-10 -12 9 -2 1 -16 -11 -7
-10 -12 9 -2 1 -16 -11 -7
-10 -12 9 -2 2 -16 -11 -7
-10 -12 9 -2 3 -16 -11 -7
-10 -12 9 -2 3 -16 -11 -7
-10 -13 9 0 4 -15 -11 -8
-10 -13 9 1 4 -14 -10 -8
-10 -13 10 2 5 -13 -9 -7
-10 -13 10 2 6 -12 -9 -6
-10 -13 10 3 6 -11 -8 -6
-9 -12 11 4 7 -10 -7 -5
-9 -12 11 4 7 -10 -8 -6
-8 -13 11 5 6 -10 -9 -7
-7 -13 11 5 6 -10 -9 -7
-7 -13 11 5 6 -10 -10 -8
-6 -14 11 6 5 -9 -11 -9
-6 -14 11 6 5 -9 -11 -9
-7 -13 11 7 5 -8 -10 -9
-7 -12 11 7 5 -8 -9 -9
-7 -12 11 7 5 -8 -9 -9
-8 -11 12 8 5 -7 -8 -10
-7 -11 12 8 5 -7 -8 -10
-6 -11 12 9 5 -6 -8 -10
-5 -11 12 9 5 -5 -8 -10
-4 -11 12 9 5 -5 -8 -10
-3 -11 13 10 6 -4 -7 -9
-3 -11 13 10 6 -4 -7 -9
-3 -11 12 9 5 -4 -7 -9
-3 -11 11 9 5 -4 -7 -9
-3 -11 11 9 5 -4 -7 -9
-4 -11 10 8 4 -3 -7 -8
-4 -11 10 8 4 -3 -7 -8
-4 -11 11 9 4 -3 -7 -8
-4 -11 12 10 4 -3 -7 -8
-4 -11 12 10 4 -3 -7 -8
-3 -11 13 11 4 -2 -6 -8
-2 -9 13 11 4 -2 -6 -8
0 -7 14 11 4 0 -5 -7
0 -6 14 11 4 1 -4 -7
1 -4 14 11 4 1 -4 -7
2 -3 15 12 5 2 -3 -6
2 0 16 13 5 2 -3 -6
1 1 18 14 6 2 -2 -6
1 3 19 15 7 2 -2 -6
1 4 20 16 7 2 -2 -6
0 6 21 17 8 2 0 -5
0 7 21 17 8 4 1 -3
1 9 22 17 9 5 3 -2
1 11 22 17 10 6 4 0
1 13 22 17 10 8 5 2
2 14 23 18 11 9 6 3
2 15 24 18 11 9 6 3
1 16 25 18 11 10 7 4
0 17 25 18 11 10 7 4
0 18 26 18 11 10 7 4
-2 19 27 19 11 11 8 5
-2 19 26 19 11 11 8 5
-2 19 25 18 10 11 8 5
-2 19 24 17 9 11 8 5
-2 19 23 17 9 11 8 5
0 19 22 16 8 10 8 6
2 17 20 15 7 10 8 5
3 16 18 14 6 9 7 4
4 15 17 13 5 8 7 4
6 13 15 12 4 8 7 3
7 11 14 11 3 7 6 2
6 10 14 11 3 7 6 2
5 8 14 11 2 7 5 1
4 6 14 11 2 7 4 0
3 4 14 11 2 7 4 0
2 2 15 10 1 6 3 -2
1 -2 14 9 -2 4 1 -3
0 -5 13 7 -3 2 -2 -5
-2 -7 13 6 -4 1 -4 -6
-3 -10 12 5 -6 -2 -6 -7
-4 -12 11 4 -7 -3 -7 -8
-5 -13 10 2 -9 -5 -8 -9
-6 -14 8 0 -11 -7 -10 -10
-7 -15 7 -2 -12 -9 -11 -11
-8 -16 6 -4 -14 -11 -12 -12
-9 -17 5 -5 -15 -12 -13 -13
-9 -17 5 -5 -15 -12 -14 -13
-9 -17 5 -5 -15 -12 -15 -14
-9 -17 5 -5 -15 -12 -15 -14
-9 -17 5 -5 -15 -12 -16 -14
-8 -17 5 -5 -16 -12 -17 -15
-8 -17 5 -5 -16 -12 -17 -15
-9 -18 4 -6 -16 -13 -17 -16
-9 -18 4 -7 -16 -13 -17 -16
-9 -18 4 -7 -16 -13 -17 -16
-10 -19 3 -8 -17 -14 -16 -17
-10 -19 3 -8 -17 -14 -16 -17
-10 -19 3 -8 -18 -14 -16 -17
-10 -19 3 -8 -18 -14 -16 -17
-10 -19 3 -8 -18 -14 -16 -17
-9 -20 3 -7 -19 -13 -17 -17
-9 -20 3 -7 -19 -13 -17 -17
-9 -20 3 -8 -19 -13 -17 -17
-9 -20 3 -8 -19 -13 -17 -17
-9 -20 3 -8 -19 -13 -17 -17
-9 -21 3 -9 -19 -12 -16 -16
-9 -22 3 -9 -19 -12 -16 -16
-10 -23 3 -9 -19 -12 -16 -17
-10 -24 3 -9 -19 -12 -16 -18
-10 -25 3 -9 -19 -12 -16 -18
-10 -26 4 -4 -18 -13 -17 -19
-6 -28 8 5 -13 -11 -18 -21
-2 -29 11 13 -9 -9 -19 -23
2 -30 14 21 -4 -8 -19 -25
6 -32 18 30 1 -6 -20 -27
8 -26 27 42 12 4 -14 -22
9 -13 40 57 28 20 0 -11
10 2 55 72 45 36 14 2
10 16 69 88 61 53 28 14
11 30 84 102 78 69 43 26
12 54 82 103 93 90 66 49
13 88 67 87 105 115 98 81
14 120 51 71 117 141 130 114
14 153 34 55 130 167 162 147
15 187 18 39 143 191 194 180
11 203 -4 17 137 197 207 196
0 203 -31 -12 113 184 201 194
-12 204 -59 -40 89 170 194 193
-22 205 -87 -69 65 155 187 192
-33 205 -113 -98 40 141 181 190
-39 190 -129 -114 18 117 159 173
-37 158 -131 -119 -5 84 126 141
-36 126 -134 -124 -27 50 91 108
-35 94 -136 -129 -49 16 56 75
-33 61 -138 -134 -71 -18 21 43
-31 39 -131 -129 -80 -35 2 22
-28 28 -112 -111 -74 -36 -5 13
-25 16 -93 -93 -69 -37 -11 4
-23 5 -73 -75 -64 -37 -17 -6
-20 -7 -55 -58 -58 -38 -23 -15
-18 -13 -41 -46 -53 -38 -26 -20
-17 -15 -33 -37 -47 -35 -26 -20
-17 -16 -25 -29 -41 -32 -26 -20
-16 -17 -17 -21 -36 -28 -25 -21
-15 -19 -9 -13 -30 -25 -25 -21
-14 -20 -5 -9 -27 -23 -24 -22
-13 -22 -5 -9 -27 -23 -24 -23
-13 -24 -4 -9 -27 -23 -24 -24
-12 -26 -3 -9 -26 -23 -24 -25
-11 -28 -3 -9 -26 -23 -24 -26
-10 -30 -2 -8 -25 -23 -25 -27
-10 -30 -2 -8 -25 -23 -25 -27
-10 -30 -2 -7 -25 -23 -25 -27
-10 -30 -2 -6 -24 -23 -25 -27
-10 -30 -2 -6 -24 -23 -25 -27
-10 -29 0 -5 -23 -23 -26 -26
-10 -29 1 -5 -21 -23 -26 -26
-10 -29 1 -5 -20 -22 -26 -26
-10 -29 2 -4 -19 -21 -26 -26
-10 -29 3 -4 -17 -21 -26 -26
-9 -30 4 -3 -16 -20 -25 -26
-9 -30 4 -3 -16 -20 -25 -25
-9 -30 4 -3 -16 -20 -25 -25
-9 -29 4 -3 -15 -19 -24 -24
-9 -29 4 -3 -15 -19 -24 -23
-9 -28 4 -3 -14 -18 -23 -22
-9 -28 4 -3 -14 -18 -23 -22
-9 -28 4 -3 -14 -17 -23 -22
-8 -28 5 -3 -15 -16 -22 -22
-8 -28 5 -3 -15 -16 -22 -22
-7 -28 6 -2 -16 -15 -21 -23
-7 -28 6 -2 -16 -15 -21 -23
-7 -28 6 -2 -16 -15 -21 -23
-7 -27 6 -2 -17 -15 -21 -22
-7 -27 6 -2 -17 -15 -21 -22
-7 -26 5 -2 -18 -15 -20 -21
-7 -26 5 -2 -18 -15 -20 -21
-7 -26 5 -2 -18 -15 -20 -21
-7 -26 5 -2 -18 -15 -20 -21
-7 -26 5 -2 -18 -15 -20 -21
-6 -26 4 0 -18 -15 -21 -21
-6 -25 4 0 -18 -15 -21 -21
-6 -25 4 0 -18 -15 -20 -21
-5 -24 4 0 -17 -14 -19 -21
-5 -23 4 0 -17 -14 -19 -21
-4 -22 4 0 -16 -13 -18 -20
-4 -22 4 1 -15 -13 -18 -20
-4 -22 4 1 -14 -13 -18 -20
-4 -22 4 2 -12 -12 -17 -20
-4 -22 4 3 -11 -12 -17 -20
-4 -23 5 4 -10 -11 -16 -20
-4 -23 5 4 -10 -11 -16 -20
-4 -22 5 4 -10 -11 -16 -20
-3 -21 5 5 -10 -11 -15 -20
-3 -21 5 5 -10 -11 -15 -20
-2 -20 4 6 -9 -10 -14 -19
0 -20 4 6 -8 -10 -14 -19
0 -20 4 6 -8 -10 -14 -19
1 -20 4 6 -7 -10 -13 -19
2 -20 4 6 -6 -10 -13 -19
3 -20 3 6 -5 -10 -12 -19
3 -20 3 6 -4 -10 -12 -19
3 -19 3 6 -4 -10 -11 -19
4 -18 3 6 -3 -10 -10 -19
4 -18 3 6 -2 -10 -10 -19
5 -17 2 5 0 -9 -9 -19
5 -17 2 6 2 -8 -8 -19
6 -16 2 6 3 -7 -8 -19
7 -15 1 7 5 -6 -7 -19
7 -15 1 8 7 -5 -6 -19
8 -14 0 9 8 -4 -5 -18
9 -13 0 9 8 -3 -4 -17
10 -13 -2 9 9 -3 -4 -16
12 -12 -3 10 10 -2 -3 -15
13 -11 -3 10 10 0 -2 -14
14 -10 -4 11 11 1 0 -13
16 -10 -5 11 12 2 1 -13
18 -9 -5 11 13 2 2 -13
20 -8 -6 11 14 3 3 -12
21 -8 -7 11 15 4 4 -12
23 -7 -8 11 16 5 5 -11
23 -5 -9 11 16 7 7 -9
23 -3 -10 11 17 8 8 -7
24 0 -12 10 18 9 10 -5
24 1 -13 10 18 11 12 -4
25 3 -14 9 19 12 13 -2
27 3 -14 9 19 12 15 1
28 4 -15 9 19 13 16 2
30 5 -16 8 19 14 18 3
32 5 -16 8 19 14 20 5
33 6 -17 7 20 15 21 6
33 8 -17 6 19 15 21 7
33 9 -17 5 19 15 21 8
33 11 -18 4 18 15 21 9
33 13 -18 3 17 15 21 10
33 14 -19 2 16 15 22 11
32 14 -19 1 16 14 22 11
32 14 -19 0 16 13 22 11
31 15 -19 -2 15 12 21 11
30 15 -19 -3 15 11 21 11
29 16 -18 -4 14 10 20 10
28 16 -17 -4 14 10 20 10
26 16 -16 -4 13 10 19 10
25 16 -15 -5 12 9 18 10
23 16 -14 -5 12 9 18 10
22 16 -13 -6 11 8 17 11
20 15 -11 -6 11 7 16 10
19 13 -10 -6 10 6 15 10
17 12 -8 -6 9 4 13 9
15 10 -6 -6 9 3 12 8
14 9 -5 -5 8 2 11 7
12 8 -3 -5 8 1 10 6
11 8 -2 -4 8 1 8 5
9 7 1 -3 7 0 7 3
7 6 3 -3 7 -2 5 2
6 5 4 -2 6 -3 4 1
4 4 5 -2 6 -4 2 0
2 2 6 -2 6 -5 1 -3
0 1 8 -2 5 -6 -2 -4
-2 -2 9 -2 5 -7 -4 -6
-4 -3 10 0 4 -8 -5 -7
-5 -3 10 0 3 -9 -6 -8
-6 -3 10 0 2 -9 -7 -9
-7 -3 11 0 1 -10 -8 -10
-8 -3 11 0 0 -11 -9 -11
-9 -4 12 0 -2 -12 -10 -12
-9 -5 12 0 -2 -12 -10 -12
-10 -7 12 0 -2 -12 -10 -13
-11 -8 12 0 -2 -12 -10 -14
-11 -10 12 0 -2 -12 -10 -14
-12 -11 11 -2 -2 -12 -11 -15
-12 -11 11 -2 -2 -12 -11 -15
-12 -11 11 -2 -2 -12 -11 -15
-13 -11 11 0 -2 -12 -11 -15
-13 -11 11 0 -2 -12 -11 -15
-14 -12 10 1 0 -11 -12 -15
-14 -12 10 1 0 -11 -12 -15
-14 -12 10 1 0 -11 -12 -15
-14 -12 11 1 0 -11 -12 -16
-14 -12 11 1 0 -11 -12 -16
-15 -13 12 2 1 -11 -13 -17
-15 -13 12 2 1 -11 -13 -17
-15 -13 12 2 1 -11 -13 -17
-14 -12 12 2 1 -11 -13 -17
-14 -12 12 2 1 -11 -13 -17
-13 -11 11 2 1 -10 -13 -17
-13 -11 11 3 1 -10 -13 -17
-12 -11 11 4 1 -9 -13 -17
-11 -11 11 5 2 -8 -13 -17
-11 -11 11 6 2 -8 -13 -17
-10 -11 12 7 3 -7 -12 -17
-10 -11 12 7 3 -7 -12 -17
-10 -11 12 7 3 -6 -12 -16
-10 -11 12 7 3 -5 -12 -15
-10 -11 12 7 3 -5 -12 -15
-10 -11 12 8 2 -4 -11 -14
-10 -12 12 8 2 -4 -11 -14
-10 -12 12 8 2 -4 -11 -14
-10 -13 12 9 3 -3 -10 -14
-10 -14 12 9 3 -3 -10 -14
-9 -15 13 10 4 -2 -9 -13
-9 -14 13 10 4 -2 -9 -13
-9 -14 13 10 3 -2 -9 -13
-9 -13 13 10 2 -2 -9 -13
-9 -12 13 10 2 -2 -9 -13
-9 -11 13 9 1 0 -10 -14
-9 -11 13 9 1 0 -10 -14
-8 -11 12 9 1 0 -10 -14
-7 -11 11 8 0 -2 -10 -14
-7 -11 11 8 0 -2 -10 -14
-6 -12 10 7 -2 -3 -11 -15
-6 -12 10 7 -2 -3 -10 -14
-6 -11 11 7 -2 -3 -10 -13
-6 -10 12 7 -2 -3 -9 -12
-6 -10 12 7 -2 -3 -8 -11
-6 -9 13 8 -3 -2 -7 -10
-6 -9 13 8 -3 -2 -7 -10
-6 -8 13 8 -3 -2 -7 -10
-6 -7 13 8 -3 -2 -7 -10
-6 -7 13 8 -3 -2 -7 -10
-5 -6 13 9 -4 -2 -7 -10
-5 -4 15 10 -2 0 -6 -9
-5 -2 17 12 0 1 -5 -8
-5 1 19 13 2 3 -3 -6
-5 3 21 15 3 4 -2 -5
-4 5 23 16 5 5 0 -4
-4 6 23 16 5 5 0 -3
-4 7 23 16 5 6 0 -2
-4 9 23 17 6 7 1 1
-4 10 23 17 6 7 1 2
-4 11 24 18 7 8 2 3
-4 13 24 18 7 9 3 4
-4 16 25 18 7 9 4 4
-3 18 26 19 8 10 5 5
-3 20 26 19 8 11 6 6
-2 22 27 20 9 12 7 7
-2 21 26 19 9 12 7 7
-2 20 25 19 9 12 7 7
-2 19 23 18 8 12 7 6
-2 18 22 17 8 12 7 6
-2 17 21 16 7 11 6 5
-2 16 20 16 6 10 5 5
0 16 19 15 5 9 5 5
1 15 18 14 3 8 4 5
1 14 17 14 2 7 3 5
2 13 16 13 1 6 2 5
2 11 16 13 1 6 2 4
1 9 15 13 1 6 1 4
0 7 14 12 1 6 0 3
0 5 14 12 1 6 0 2
-2 3 13 11 0 5 -2 1
-2 0 12 9 -3 3 -4 -3
-2 -4 12 8 -4 0 -7 -5
-3 -6 11 6 -6 -3 -9 -7
-3 -9 10 5 -7 -5 -11 -10
-4 -11 9 3 -9 -7 -13 -12
-5 -12 9 2 -10 -8 -13 -12
-6 -12 8 2 -10 -8 -14 -12
-7 -13 8 1 -11 -9 -14 -13
-9 -14 7 0 -12 -10 -15 -13
-10 -15 6 -2 -13 -11 -16 -14
-10 -15 6 -2 -13 -11 -16 -14
-10 -16 6 -3 -13 -11 -16 -14
-10 -16 5 -3 -14 -12 -16 -14
-10 -17 5 -4 -14 -12 -16 -14
-10 -18 4 -5 -15 -13 -17 -15
-10 -18 4 -5 -15 -13 -17 -15
-10 -19 4 -5 -15 -13 -17 -15
-10 -19 4 -5 -16 -13 -17 -15
-10 -20 4 -5 -16 -13 -17 -15
-10 -21 3 -6 -17 -13 -18 -15
-10 -21 3 -6 -17 -13 -18 -15
-10 -21 3 -6 -17 -13 -18 -15
-10 -21 3 -6 -17 -13 -18 -15
-10 -21 3 -6 -17 -13 -18 -15
-10 -20 4 -6 -17 -13 -18 -15
-10 -20 4 -6 -17 -13 -18 -15
-10 -21 3 -6 -17 -13 -18 -15
-10 -21 3 -6 -17 -13 -19 -15
-10 -22 2 -6 -17 -13 -19 -15
-10 -23 1 -7 -18 -14 -20 -14
-10 -23 1 -7 -18 -14 -20 -14
-10 -23 1 -7 -18 -14 -20 -14
-10 -23 1 -7 -18 -14 -20 -14
-10 -23 1 -7 -18 -14 -20 -14
-9 -23 2 -6 -18 -14 -20 -15
-6 -25 5 2 -15 -13 -21 -16
-3 -27 8 8 -11 -11 -22 -17
1 -29 12 15 -8 -10 -23 -18
4 -31 15 21 -4 -8 -24 -20
7 -30 21 30 4 -3 -22 -19
8 -19 35 47 19 11 -11 -10
9 -8 49 62 34 25 1 -2
10 4 62 78 50 38 12 8
12 15 75 95 65 53 24 16
13 32 82 103 80 70 42 32
15 64 69 91 94 96 74 65
17 96 57 78 108 122 106 98
18 128 45 66 121 148 139 131
20 159 31 54 136 175 172 163
19 184 15 37 143 191 195 188
8 191 -12 11 129 183 195 192
-5 198 -38 -16 115 175 195 197
-16 204 -64 -41 101 167 195 202
-27 212 -91 -68 88 157 195 206
-36 207 -111 -90 69 141 184 201
-35 174 -117 -100 37 104 146 167
-34 139 -123 -109 6 67 108 132
-33 105 -130 -118 -26 30 70 97
-31 70 -136 -129 -57 -7 32 63
-30 43 -137 -132 -79 -33 4 35
-27 31 -118 -115 -75 -34 -4 25
-25 20 -100 -99 -70 -35 -11 15
-23 9 -82 -82 -66 -36 -18 5
-20 -3 -64 -66 -62 -37 -25 -5
-18 -11 -49 -52 -57 -38 -30 -13
-16 -14 -40 -44 -52 -35 -29 -13
-15 -16 -32 -35 -47 -32 -29 -14
-13 -18 -24 -27 -40 -29 -28 -14
-12 -21 -16 -19 -35 -27 -27 -15
-10 -23 -10 -13 -31 -24 -26 -16
-10 -25 -8 -12 -30 -24 -26 -16
-10 -26 -7 -11 -29 -23 -26 -17
-10 -28 -5 -10 -28 -23 -27 -17
-10 -29 -4 -9 -26 -22 -27 -18
-11 -31 -2 -8 -25 -21 -28 -19
-11 -31 -2 -7 -24 -21 -28 -19
-11 -31 0 -7 -23 -21 -28 -19
-10 -31 0 -6 -22 -20 -27 -18
-10 -31 1 -5 -21 -20 -27 -18
-9 -32 2 -4 -20 -19 -26 -17
-8 -32 2 -4 -20 -19 -26 -17
-8 -32 2 -4 -20 -19 -26 -17
-7 -32 2 -4 -19 -19 -26 -17
-6 -32 2 -4 -19 -19 -26 -17
-5 -32 2 -5 -18 -19 -26 -17
-5 -32 2 -5 -18 -19 -26 -17
-5 -31 2 -5 -18 -19 -26 -17
-5 -31 2 -5 -18 -19 -26 -16
-5 -30 2 -5 -18 -19 -26 -16
-4 -29 2 -4 -18 -18 -26 -15
-4 -29 2 -4 -18 -17 -26 -15
-4 -29 3 -4 -18 -16 -25 -15
-4 -28 3 -4 -18 -15 -25 -14
-4 -28 4 -4 -18 -13 -24 -14
-4 -27 5 -3 -19 -12 -23 -13
-4 -27 5 -3 -19 -12 -23 -13
-4 -27 5 -3 -19 -11 -23 -12
-3 -26 5 -3 -19 -11 -22 -12
-3 -26 5 -3 -19 -10 -22 -11
-2 -25 4 -3 -19 -9 -21 -10
-2 -25 4 -3 -19 -9 -21 -10
-2 -25 4 -3 -19 -9 -21 -10
-2 -25 4 -3 -20 -9 -21 -10
-2 -25 4 -3 -20 -9 -21 -10
-2 -25 3 -3 -21 -9 -22 -11
-2 -25 3 -3 -21 -9 -22 -11
-2 -24 3 -3 -20 -9 -22 -11
-2 -24 3 -2 -20 -9 -21 -11
-2 -23 3 -2 -19 -9 -21 -11
0 -22 3 0 -18 -8 -20 -10
0 -22 3 0 -18 -8 -20 -10
0 -22 3 0 -18 -8 -20 -10
1 -22 3 0 -17 -7 -19 -10
1 -22 3 0 -17 -7 -19 -10
2 -22 2 0 -16 -6 -18 -10
2 -22 2 0 -16 -6 -18 -10
3 -22 2 0 -16 -6 -17 -10
3 -21 2 0 -16 -6 -17 -10
4 -21 2 0 -16 -6 -16 -10
5 -20 1 1 -15 -6 -15 -10
5 -20 1 1 -15 -6 -15 -10
5 -20 1 1 -15 -6 -15 -11
5 -19 1 1 -14 -6 -15 -11
5 -19 1 1 -14 -6 -15 -12
6 -18 1 1 -13 -6 -15 -13
7 -18 1 1 -12 -6 -15 -13
8 -17 1 1 -11 -6 -15 -12
9 -17 1 2 -10 -5 -14 -12
10 -16 1 2 -8 -5 -14 -11
11 -15 0 3 -7 -4 -13 -10
12 -15 0 3 -7 -3 -13 -10
13 -14 0 3 -6 -2 -12 -9
14 -14 -2 4 -5 0 -11 -9
15 -13 -2 4 -4 1 -10 -8
16 -12 -3 5 -3 2 -9 -7
17 -12 -4 5 -3 2 -9 -7
19 -12 -5 5 -3 2 -9 -7
20 -11 -6 5 -2 2 -9 -7
21 -11 -7 5 -2 2 -9 -7
23 -10 -8 4 0 3 -8 -6
23 -9 -8 4 1 5 -6 -5
24 -8 -8 5 3 7 -4 -4
25 -7 -9 5 5 9 -2 -3
26 -5 -9 6 6 11 1 -2
27 -4 -10 7 8 13 3 0
29 -3 -11 7 8 13 4 2
31 0 -12 7 8 14 6 4
33 2 -13 7 8 15 8 6
35 3 -15 7 8 16 9 8
37 5 -16 6 8 17 11 10
37 6 -16 6 8 18 12 11
38 8 -17 6 8 19 13 13
38 10 -17 6 9 20 14 14
39 11 -18 6 9 21 16 15
40 13 -19 5 10 22 17 17
40 13 -19 4 10 22 18 18
42 14 -19 3 10 22 19 20
42 15 -20 2 10 22 20 21
43 16 -20 1 10 22 21 22
44 17 -21 0 9 23 22 24
44 17 -21 0 9 23 22 24
44 18 -21 -2 9 22 22 25
43 19 -21 -2 8 22 22 25
43 20 -21 -3 8 21 22 26
42 21 -20 -4 7 20 22 27
40 21 -19 -4 7 20 22 27
39 21 -17 -4 7 20 22 27
38 21 -16 -4 7 20 22 27
