I II V1 V2 V3 V4 V5 V6
-66 -107 -136 -265 -215 -184 -125 -96
-60 -99 -132 -248 -201 -172 -114 -88
-53 -90 -124 -227 -185 -160 -105 -81
-51 -85 -105 -192 -156 -135 -88 -68
-47 -68 -78 -149 -120 -106 -65 -52
-38 -58 -50 -105 -86 -79 -46 -40
-31 -43 -31 -73 -64 -60 -36 -34
-28 -35 -17 -50 -46 -46 -27 -28
-21 -32 -11 -38 -37 -39 -24 -27
-16 -31 -4 -27 -29 -33 -18 -23
-15 -24 -2 -22 -24 -29 -16 -23
-11 -22 1 -19 -20 -26 -14 -21
-8 -23 3 -16 -17 -23 -12 -20
-4 -21 2 -15 -16 -23 -11 -21
-4 -19 1 -14 -16 -22 -12 -22
-16 -20 6 -5 -9 -16 -7 -16
-21 -24 11 1 -5 -12 -4 -13
-13 -20 10 0 -5 -13 -5 -15
-4 -14 7 -3 -8 -17 -9 -19
-5 -20 11 -1 -5 -14 -6 -17
-2 -19 9 -2 -7 -15 -7 -18
-7 -18 12 2 -3 -10 -2 -14
-8 -11 10 2 -4 -11 -1 -14
-3 -9 6 -1 -6 -13 -5 -16
-1 -13 5 -1 -6 -15 -6 -18
-5 -24 13 7 0 -8 0 -10
-15 -29 18 13 5 -5 3 -9
-16 -19 15 11 2 -8 1 -12
-14 -7 13 9 -1 -11 -3 -15
-13 -6 11 8 -1 -12 -3 -15
-4 -2 12 9 0 -11 -2 -14
-5 9 15 11 2 -8 1 -12
-10 2 15 11 3 -7 2 -10
-7 -16 19 17 8 -2 8 -5
0 -26 21 19 8 0 7 -6
2 -33 20 20 8 -1 6 -7
3 -22 17 18 5 -5 2 -12
-1 -4 13 15 2 -8 -2 -16
-12 -3 17 18 5 -4 2 -13
-18 -7 24 24 13 4 8 -6
-18 -3 22 23 12 4 8 -8
-13 0 19 19 11 4 6 -9
-9 -5 16 18 10 2 4 -10
-5 -9 17 20 13 5 7 -7
-6 -11 19 23 15 7 8 -7
-7 -5 17 24 14 6 7 -8
-5 -3 21 30 17 11 12 -4
-4 4 21 31 18 12 11 -7
1 -1 21 33 19 13 11 -6
5 -3 22 34 21 11 11 -6
3 -9 18 32 19 10 9 -8
6 -13 16 31 19 10 8 -8
9 -4 17 34 21 12 11 -6
9 3 21 40 26 18 16 -1
5 3 25 46 30 23 20 2
-2 5 26 50 33 25 22 3
-5 5 26 52 32 23 20 1
-4 2 29 57 36 27 22 4
-1 -2 28 59 36 27 23 3
4 5 25 56 34 24 19 -1
4 5 26 60 38 27 21 1
5 7 27 63 41 32 25 4
10 9 30 69 46 35 29 8
16 9 31 72 50 38 33 9
18 17 27 71 47 37 31 7
13 18 26 76 49 37 29 7
9 15 25 79 50 38 29 7
12 21 25 82 54 40 31 6
17 13 29 88 59 44 34 8
24 11 31 92 64 47 36 11
31 20 26 91 62 46 34 9
34 18 27 93 65 50 37 13
29 5 28 98 69 55 43 17
20 6 35 107 79 65 51 25
21 13 39 113 84 71 56 30
22 24 33 112 82 67 52 25
22 28 31 113 83 68 53 24
29 34 27 111 81 66 52 22
37 37 29 114 83 68 53 24
35 29 32 117 86 71 56 27
32 26 30 117 86 72 56 27
39 31 27 114 85 70 56 27
41 38 26 112 83 69 56 26
41 41 27 112 85 71 57 28
41 39 26 114 84 72 58 29
39 41 25 113 82 72 55 27
37 38 29 117 86 75 60 32
38 36 30 118 87 76 61 34
39 33 31 117 85 75 60 33
38 38 27 109 80 70 55 29
33 34 28 108 80 71 57 31
34 31 30 108 81 73 59 33
41 34 31 107 81 74 61 35
47 42 30 103 78 71 56 33
51 50 24 96 70 64 51 27
45 54 22 93 67 61 49 25
41 42 23 93 66 61 48 25
50 28 26 92 67 62 49 27
45 30 27 91 65 61 49 27
24 33 31 91 67 62 52 29
19 30 33 89 68 62 52 31
26 26 31 83 64 58 49 28
28 29 30 79 60 55 46 24
31 32 27 72 55 52 42 20
33 32 21 64 46 44 34 14
36 25 24 63 45 44 35 15
25 17 25 63 43 42 33 14
14 20 30 64 44 42 34 15
13 28 30 60 40 38 32 14
15 26 28 55 36 33 27 9
16 22 28 52 34 31 25 8
17 18 27 45 30 27 21 5
18 11 25 42 28 26 19 3
18 6 26 40 27 24 20 3
8 0 26 37 25 21 18 3
-3 9 24 33 19 19 15 0
-5 18 23 29 15 14 10 -5
0 11 23 27 12 13 9 -8
4 13 23 24 10 11 7 -10
0 7 24 23 11 10 7 -7
-6 4 26 23 11 12 9 -6
-3 5 28 23 12 13 9 -5
1 4 26 19 10 11 8 -8
0 1 23 14 6 8 5 -12
-2 -3 20 10 3 5 3 -16
-3 -2 20 9 2 5 1 -16
-3 -6 21 9 2 3 1 -17
-2 0 18 5 -2 -1 -3 -20
-2 -4 20 7 0 0 -2 -20
-3 -7 21 7 1 0 -1 -22
-1 -5 18 2 -4 -3 -5 -25
2 0 15 -2 -7 -7 -8 -29
-2 2 13 -5 -10 -8 -9 -31
-5 -2 10 -8 -12 -12 -12 -33
-10 -2 14 -7 -11 -10 -10 -31
-18 -1 14 -7 -13 -11 -9 -33
-17 -1 15 -6 -12 -11 -9 -32
-16 -15 21 0 -8 -5 -4 -26
-13 -24 23 3 -5 -2 -1 -24
-9 -19 22 1 -6 -5 -4 -25
-9 -13 19 -5 -10 -8 -7 -30
-8 -13 17 -5 -11 -8 -8 -31
-3 -16 18 -5 -10 -8 -8 -31
-1 -10 15 -8 -11 -10 -10 -32
2 -8 14 -9 -15 -12 -11 -35
-2 -9 14 -7 -13 -12 -12 -35
-14 -6 15 -5 -11 -11 -10 -33
-20 -7 21 0 -7 -6 -6 -29
-15 -5 21 -1 -9 -8 -8 -32
-7 -2 17 -4 -11 -12 -12 -36
0 -6 18 -3 -9 -9 -9 -33
-4 -10 23 1 -3 -4 -5 -28
-10 0 20 -3 -6 -8 -8 -33
-6 -2 20 -4 -6 -9 -9 -33
-5 -6 19 -6 -8 -9 -9 -33
-14 -12 23 0 -5 -6 -6 -29
-15 -16 27 5 -2 -3 -3 -26
-11 -7 21 0 -7 -8 -9 -33
-11 1 21 -1 -9 -10 -10 -33
-11 3 20 0 -8 -10 -11 -33
-6 1 18 -4 -10 -13 -13 -35
-5 -5 19 -3 -9 -11 -10 -34
-15 -14 24 2 -3 -6 -5 -29
-19 -22 26 3 -2 -4 -4 -28
-18 -25 25 3 -2 -4 -4 -28
-13 -13 25 4 -3 -5 -5 -29
-7 -8 26 7 -1 -3 -4 -29
-5 -13 25 7 -1 -5 -5 -28
-3 -7 21 3 -5 -9 -8 -31
-3 0 18 0 -9 -12 -10 -36
-11 -2 16 -3 -10 -13 -12 -36
-12 1 18 -1 -8 -10 -10 -33
-4 -2 20 -1 -6 -8 -7 -31
-1 2 20 -1 -7 -8 -7 -33
5 9 16 -6 -11 -12 -10 -34
14 4 15 -5 -12 -13 -11 -34
5 -10 19 -2 -10 -10 -8 -31
-11 -20 25 5 -3 -5 -3 -25
-15 -13 25 6 -3 -6 -3 -26
-8 -1 22 3 -6 -9 -7 -28
-3 -1 18 -4 -11 -13 -11 -30
-5 -6 17 -5 -11 -14 -11 -31
-8 -11 18 -4 -9 -13 -9 -29
-11 -8 17 -4 -9 -13 -10 -29
-8 -9 17 -5 -10 -12 -10 -28
-3 -14 17 -5 -11 -13 -9 -28
-3 -16 19 -2 -7 -11 -7 -25
4 -6 20 1 -7 -9 -6 -23
3 0 16 -4 -11 -14 -11 -26
-10 3 17 -4 -11 -15 -11 -26
-4 2 15 -7 -14 -18 -13 -27
5 -2 12 -10 -17 -21 -16 -28
11 5 11 -10 -16 -20 -14 -24
4 -2 20 -1 -7 -11 -5 -14
2 -5 23 2 -3 -7 0 -9
-6 4 23 3 -3 -7 -2 -10
-14 12 25 4 -2 -6 -1 -10
-14 15 28 6 -1 -5 0 -9
-16 9 32 10 3 0 5 -5
-10 5 32 10 2 -2 2 -6
-7 10 28 5 0 -5 -1 -8
-6 7 30 6 2 -3 1 -5
-6 12 30 4 -1 -5 0 -7
-5 18 30 4 -1 -5 0 -6
-5 13 27 2 -4 -7 0 -6
-3 13 24 -1 -8 -10 -3 -10
3 23 18 -6 -12 -15 -8 -14
7 23 20 -3 -10 -13 -5 -10
10 13 20 -2 -8 -11 -2 -7
13 12 24 3 -3 -7 1 -3
17 20 23 2 -3 -5 4 0
24 28 20 -1 -7 -7 1 -2
18 28 17 -4 -10 -9 0 -4
-6 33 19 -3 -8 -8 1 -2
-18 31 22 1 -6 -5 4 1
-16 18 23 1 -5 -5 5 2
-4 6 24 1 -6 -5 6 3
9 8 19 -2 -9 -8 3 0
16 9 15 -7 -13 -12 -1 -4
20 17 12 -10 -15 -15 -4 -6
-4 14 11 -9 -15 -13 -3 -5
-25 2 12 -8 -14 -13 -2 -5
0 20 17 -3 -9 -7 3 1
3 21 14 -4 -10 -9 1 0
0 15 5 -10 -17 -15 -7 -4
6 16 3 -12 -19 -19 -11 -7
11 12 1 -13 -20 -19 -15 -10
6 0 7 -7 -16 -15 -9 -5
0 -9 12 -4 -12 -13 -7 -4
2 -10 10 -6 -14 -15 -9 -6
8 -3 6 -10 -19 -19 -14 -10
12 -6 5 -14 -22 -22 -16 -13
6 -11 2 -16 -24 -23 -17 -14
-12 -9 2 -15 -26 -22 -18 -14
-12 -2 3 -14 -25 -22 -18 -16
-13 -6 3 -14 -25 -23 -18 -15
-11 -7 2 -14 -25 -22 -18 -14
-10 -13 2 -13 -24 -21 -18 -15
0 -16 -2 -17 -28 -26 -21 -18
3 -15 -5 -23 -33 -32 -26 -23
3 -18 -4 -21 -30 -29 -22 -21
-11 -28 3 -15 -23 -21 -16 -15
-15 -29 3 -16 -23 -21 -17 -14
-6 -21 0 -19 -25 -24 -19 -18
0 -12 -5 -23 -31 -26 -22 -22
-2 -12 -5 -23 -31 -26 -22 -20
-9 -15 -5 -21 -30 -25 -21 -22
-14 -11 -6 -21 -31 -25 -21 -21
-17 -10 -4 -20 -30 -24 -20 -18
-18 -24 -2 -18 -27 -23 -20 -17
-17 -36 0 -15 -25 -19 -16 -14
-12 -41 2 -13 -23 -17 -14 -12
-5 -31 2 -15 -22 -17 -14 -12
2 -16 0 -17 -25 -20 -16 -15
3 -21 -3 -20 -28 -21 -18 -18
-1 -27 -6 -21 -30 -24 -22 -21
-5 -23 -6 -20 -29 -23 -21 -21
-10 -18 -4 -18 -28 -21 -18 -17
-12 -24 0 -17 -25 -19 -16 -16
-5 -26 -1 -16 -25 -17 -17 -14
-6 -26 -2 -21 -28 -20 -17 -16
-3 -25 -3 -23 -30 -22 -19 -17
5 -14 -10 -29 -36 -28 -25 -22
5 -15 -11 -31 -38 -29 -26 -24
2 -13 -7 -24 -33 -25 -22 -20
-10 -19 1 -12 -22 -16 -13 -13
-12 -27 9 2 -9 -5 -4 -6
-8 -26 17 18 1 4 0 -2
-1 -22 25 33 14 14 7 0
16 -10 31 53 29 25 10 1
21 -1 39 72 43 35 14 1
19 8 46 88 59 49 22 4
26 23 50 102 78 72 42 20
32 31 51 101 96 97 65 39
33 36 50 91 107 116 84 56
46 47 50 83 120 137 105 75
55 55 42 53 117 145 120 90
58 77 37 11 105 149 134 106
56 101 32 -26 94 153 145 121
58 109 17 -57 86 154 154 132
56 110 -7 -79 79 150 145 125
54 79 -33 -91 68 128 112 92
46 50 -57 -120 31 85 72 61
32 11 -69 -158 -16 37 36 38
1 -23 -79 -214 -84 -28 -7 14
-30 -49 -90 -279 -170 -107 -61 -20
-50 -83 -117 -325 -238 -173 -112 -56
-65 -105 -135 -339 -268 -204 -136 -77
-66 -110 -144 -330 -270 -209 -146 -88
-66 -118 -145 -310 -259 -204 -149 -95
-67 -126 -144 -287 -241 -193 -143 -95
-57 -117 -147 -272 -229 -182 -137 -93
-43 -108 -148 -258 -219 -175 -132 -90
-37 -100 -138 -236 -202 -160 -117 -79
-32 -73 -121 -201 -173 -135 -98 -65
-42 -65 -87 -149 -129 -96 -69 -40
-43 -59 -56 -104 -94 -67 -47 -26
-27 -45 -44 -75 -76 -54 -42 -27
-13 -26 -34 -57 -63 -46 -40 -27
-6 -21 -26 -45 -52 -36 -32 -21
-4 -24 -19 -32 -41 -27 -26 -16
-5 -17 -13 -24 -33 -21 -21 -12
-10 -18 -10 -19 -28 -15 -16 -9
-8 -19 -9 -17 -27 -14 -16 -8
-10 -22 -9 -12 -24 -12 -14 -7
-12 -16 -11 -14 -26 -13 -17 -12
-3 -10 -12 -13 -27 -16 -19 -14
3 -17 -11 -6 -24 -12 -16 -13
2 -26 -7 -2 -20 -8 -13 -9
3 -28 -5 -1 -18 -6 -11 -8
3 -31 -1 4 -11 -1 -4 -3
-5 -29 0 4 -10 1 -3 0
-11 -21 -1 4 -9 1 -3 0
-10 -12 -4 0 -11 -1 -4 -3
-6 -10 -5 2 -11 -1 -4 -2
-6 -16 -5 3 -10 0 -4 -1
-5 -25 -4 5 -11 0 -4 -2
5 -22 -9 3 -14 -5 -8 -5
14 -17 -11 3 -15 -7 -10 -8
18 -13 -11 3 -15 -7 -11 -8
2 -10 -6 9 -9 -2 -6 -3
-16 -11 0 14 -3 6 3 5
-11 -12 -1 12 -3 5 2 3
-4 -15 1 13 -2 7 4 5
1 -18 0 13 -3 7 3 4
6 -12 -3 11 -5 5 -1 0
7 -15 -3 14 -5 4 -2 -1
6 -11 -4 15 -4 4 0 0
4 -8 -2 19 -2 7 0 0
2 -3 -1 20 -1 8 1 0
7 3 -4 18 -2 5 0 0
4 3 -5 16 -3 6 0 1
-3 2 -6 16 -2 7 -1 1
-3 0 -3 18 1 10 4 5
-2 -12 0 23 5 15 8 8
2 -17 -1 25 4 15 8 7
6 -16 -2 26 4 13 5 5
4 -11 0 31 7 17 8 7
7 1 -1 33 6 16 7 6
12 3 -1 33 7 16 7 6
9 4 -2 31 7 16 7 6
9 5 -3 31 7 17 8 6
5 -4 1 36 12 22 12 10
1 -15 7 43 18 28 18 17
4 -21 8 45 22 33 22 21
4 -15 5 46 20 31 20 19
7 -1 2 45 18 28 17 16
15 4 0 47 18 28 16 16
16 8 1 50 20 30 15 16
9 12 3 54 25 33 18 18
5 12 1 53 25 33 19 18
8 10 2 54 28 35 20 21
8 7 1 54 29 36 20 18
7 1 1 58 33 39 23 22
20 3 2 61 35 42 26 23
27 9 0 64 37 41 27 22
22 15 0 67 37 41 26 21
21 14 2 74 41 46 30 26
21 7 6 80 49 52 35 30
21 5 10 86 55 57 40 34
28 13 7 86 56 57 39 33
32 18 5 86 57 58 41 34
20 17 8 90 61 63 45 37
24 25 4 91 62 64 45 37
28 28 3 93 63 65 48 37
29 23 4 98 68 69 51 41
33 24 2 100 68 69 51 41
34 26 0 101 68 69 50 39
33 25 -2 101 69 70 49 39
36 24 0 105 73 72 52 42
40 31 -1 105 75 75 55 44
42 37 0 106 77 78 58 45
48 36 4 108 81 83 63 53
50 37 2 105 78 82 62 52
44 38 0 102 75 80 59 48
42 33 2 105 77 82 63 50
43 30 3 106 75 81 63 52
48 26 2 107 74 80 62 51
54 26 4 108 76 83 63 52
52 36 1 103 72 78 59 49
45 42 0 100 70 78 60 50
44 41 1 100 71 78 61 52
40 42 2 99 71 79 62 53
41 41 -1 96 68 77 61 54
49 36 -5 89 63 73 58 51
51 26 -7 87 61 70 55 49
51 22 -10 85 56 67 50 45
38 29 -6 88 58 69 54 49
31 38 -4 89 59 70 55 50
34 40 -6 83 54 64 51 46
35 33 -8 81 51 62 50 45
39 27 -5 78 51 62 49 45
34 24 -6 72 48 61 48 45
30 19 -6 68 46 59 48 45
34 28 -1 71 47 61 50 47
37 30 0 68 45 59 48 45
30 29 -4 61 37 52 42 40
32 32 -6 59 34 47 38 36
26 28 -4 57 33 46 37 34
21 28 -5 51 29 42 33 31
21 29 -8 45 23 37 28 28
19 27 -7 42 21 36 28 27
16 28 -7 37 19 35 27 28
12 24 -11 29 13 30 22 24
16 14 -11 28 12 29 22 23
24 3 -8 32 14 31 25 25
29 -4 -8 30 11 28 22 24
29 4 -13 24 6 23 17 19
17 9 -11 23 6 22 16 17
4 6 -8 24 8 24 17 20
-3 3 -8 22 7 22 17 19
-5 3 -7 19 6 21 17 19
-4 5 -8 14 3 19 14 17
-4 1 -14 7 -3 13 11 14
-5 -4 -16 4 -7 9 6 11
2 1 -17 1 -10 7 5 10
6 8 -14 3 -9 8 6 12
2 10 -16 1 -12 5 4 12
2 10 -15 2 -12 3 3 11
3 -2 -10 4 -8 7 7 14
3 -7 -10 3 -9 7 7 16
6 -6 -13 -1 -11 3 5 14
0 -11 -11 -2 -10 5 7 15
-5 -4 -13 -7 -14 3 5 14
-7 3 -18 -8 -16 1 3 12
-5 -4 -20 -8 -17 -1 2 9
-3 -10 -18 -6 -17 -1 1 9
4 -13 -20 -6 -17 -2 2 10
3 -10 -16 -5 -14 -2 2 10
-3 -4 -13 -4 -12 0 5 13
-5 -3 -16 -7 -15 -2 3 10
-4 3 -18 -11 -17 -5 -1 6
-6 1 -15 -9 -14 -1 2 10
-9 -4 -17 -12 -16 -3 1 9
-9 -8 -19 -12 -18 -4 -1 7
-2 -11 -17 -10 -16 -3 -1 8
-3 -8 -16 -7 -15 -2 2 9
-7 -8 -13 -3 -12 0 3 11
-6 -13 -14 -3 -12 -1 1 11
-10 -11 -15 -4 -14 -3 1 9
-8 -10 -14 -4 -12 -2 1 9
2 -9 -12 -4 -10 -1 2 10
5 -1 -15 -8 -14 -3 0 8
4 -1 -17 -8 -15 -4 -1 6
-2 -6 -15 -6 -13 -2 0 8
-12 -10 -11 -3 -10 1 4 11
-10 -8 -14 -3 -12 0 2 11
-4 -4 -14 -3 -13 -3 -1 9
3 0 -14 -3 -12 -2 0 9
-4 -3 -9 2 -8 3 5 15
-3 -8 -10 1 -8 3 4 14
-4 -14 -14 -4 -11 -1 0 10
-9 -13 -16 -5 -11 0 0 10
-8 -7 -16 -6 -12 0 -1 10
-10 -10 -14 -4 -9 1 2 12
-7 -1 -13 -2 -10 0 1 12
-8 5 -15 -2 -12 -1 -1 10
-6 7 -13 0 -11 0 0 11
-4 4 -10 2 -8 2 2 12
-6 -4 -11 2 -9 1 1 11
-5 -2 -13 1 -10 0 0 11
-3 6 -14 -3 -12 -3 -3 9
-1 12 -16 -5 -14 -3 -5 6
-1 11 -16 -5 -14 -1 -3 7
-6 13 -15 -5 -13 -1 -2 8
-5 10 -13 -4 -12 0 -1 10
-3 16 -15 -4 -14 -2 -2 7
0 7 -14 -2 -12 -2 -3 7
-2 -2 -10 1 -9 0 -2 8
-1 3 -12 -1 -12 -1 -2 6
-2 -12 -8 2 -8 4 2 11
5 -22 -7 2 -5 5 3 12
10 -10 -14 -5 -12 -1 -2 6
7 10 -18 -11 -16 -5 -5 3
-1 11 -16 -10 -14 -4 -4 3
-8 5 -15 -8 -14 -3 -3 4
-5 5 -13 -5 -12 -2 -1 6
-2 5 -10 -4 -10 0 -1 7
-4 -1 -9 -3 -11 -1 0 7
-5 5 -11 -5 -14 -3 -1 5
-5 4 -12 -8 -16 -5 -3 5
-3 5 -13 -12 -17 -8 -4 4
5 9 -12 -13 -17 -8 -4 4
10 7 -12 -14 -18 -8 -2 4
2 4 -12 -16 -20 -10 -5 2
4 -3 -10 -15 -20 -11 -6 1
3 -8 -10 -14 -20 -12 -6 -1
4 -2 -9 -13 -20 -12 -8 -2
1 7 -6 -12 -15 -10 -7 -2
-2 4 0 -7 -11 -6 -1 3
-6 6 4 -5 -8 -2 2 7
-8 12 6 -6 -6 -1 2 6
-9 12 8 -4 -4 1 5 8
-9 14 9 -5 -5 1 4 8
-7 16 8 -6 -5 -1 2 7
-4 17 10 -5 -5 0 3 8
-5 15 10 -4 -5 -1 3 8
-2 20 8 -7 -10 -5 -3 3
2 22 6 -8 -10 -5 -3 1
6 27 5 -9 -12 -8 -5 -1
1 30 4 -10 -12 -8 -6 -2
-6 29 6 -9 -11 -8 -5 -2
-4 28 8 -8 -9 -5 -2 2
-1 22 15 0 -1 3 7 11
1 16 20 5 5 11 14 18
4 23 17 3 1 9 11 15
3 27 14 3 0 8 9 13
5 33 10 1 -1 6 9 13
8 41 8 -2 -3 4 7 11
9 36 5 -7 -6 -1 3 8
8 31 4 -10 -9 -3 2 7
4 35 5 -10 -7 -2 4 9
5 37 5 -11 -8 -3 3 8
9 39 2 -13 -10 -5 3 9
8 36 1 -14 -10 -5 1 7
-1 30 -4 -17 -14 -9 -3 4
-1 26 -8 -21 -18 -14 -7 -1
3 25 -6 -20 -18 -15 -7 -1
2 25 -7 -21 -18 -16 -10 -3
8 27 -7 -19 -17 -15 -9 -3
11 26 -8 -18 -15 -13 -9 -3
13 24 -7 -18 -15 -14 -10 -3
14 21 -9 -19 -16 -14 -10 -3
10 13 -9 -22 -18 -17 -13 -6
5 6 -4 -17 -13 -12 -9 -3
-7 2 -1 -15 -12 -12 -9 -3
-16 -3 -2 -15 -14 -14 -11 -6
-10 -1 -3 -17 -17 -18 -15 -9
-10 -1 -5 -20 -20 -20 -18 -13
-3 -6 -8 -23 -23 -24 -20 -16
2 -6 -8 -23 -22 -24 -20 -15
8 5 -11 -28 -25 -27 -24 -18
1 11 -12 -30 -26 -28 -24 -19
-16 7 -9 -27 -25 -27 -24 -17
-18 -6 -7 -23 -22 -24 -20 -14
-9 -14 -4 -20 -17 -20 -17 -12
-9 -11 -5 -20 -18 -20 -17 -12
-6 -2 -8 -24 -23 -26 -24 -18
-5 -7 -12 -28 -26 -30 -27 -22
-13 -18 -12 -28 -25 -30 -28 -22
-17 -10 -11 -26 -24 -29 -26 -20
-19 -7 -8 -26 -21 -27 -24 -19
-15 -13 -6 -25 -19 -24 -21 -17
-9 -9 -9 -27 -21 -26 -24 -19
-5 -6 -12 -29 -22 -26 -25 -20
-7 -8 -12 -28 -22 -26 -25 -19
-12 -11 -10 -25 -21 -25 -25 -18
-10 -10 -10 -27 -24 -27 -28 -22
-9 -7 -13 -28 -25 -29 -30 -26
-12 -12 -12 -26 -23 -28 -29 -26
-12 -15 -10 -24 -21 -26 -28 -23
-10 -10 -9 -24 -20 -25 -28 -21
-14 -6 -10 -24 -20 -25 -26 -21
-16 -5 -11 -25 -21 -27 -29 -22
-16 -10 -11 -27 -21 -27 -29 -23
-14 -11 -13 -28 -22 -27 -31 -25
-10 -11 -10 -25 -22 -27 -31 -23
-9 -13 -11 -27 -23 -29 -33 -26
-10 -15 -13 -27 -22 -29 -34 -27
-9 -12 -13 -26 -22 -29 -33 -26
-9 -14 -9 -22 -19 -26 -32 -24
-6 -17 -7 -19 -15 -23 -30 -24
-2 -10 -6 -13 -10 -19 -27 -20
4 -5 0 -1 -2 -13 -24 -18
9 1 10 19 13 -1 -16 -15
4 5 22 41 32 14 -6 -8
6 11 32 59 45 24 -3 -10
15 10 38 76 58 32 -1 -11
15 15 44 96 80 55 18 3
30 34 48 102 104 84 44 24
48 46 46 93 118 103 64 40
51 62 46 85 133 126 86 59
51 70 47 70 145 148 111 84
54 66 39 28 134 154 127 99
55 78 32 -16 119 156 137 113
50 95 18 -56 104 152 142 120
45 105 -5 -84 95 149 140 121
44 80 -27 -91 92 138 119 98
43 53 -51 -111 66 105 79 64
30 26 -68 -149 20 56 43 40
9 3 -81 -204 -47 -8 -2 13
-22 -14 -90 -272 -134 -89 -53 -18
-52 -40 -108 -324 -212 -164 -106 -52
-67 -70 -132 -349 -256 -210 -144 -81
-71 -90 -144 -349 -266 -224 -159 -97
-69 -112 -146 -328 -257 -220 -163 -106
-71 -133 -141 -300 -236 -208 -158 -107
-68 -133 -137 -277 -217 -192 -150 -101
-59 -110 -136 -258 -201 -178 -137 -94
-58 -93 -133 -244 -192 -170 -129 -89
-52 -80 -124 -222 -173 -157 -119 -82
-42 -59 -104 -187 -144 -130 -100 -69
-32 -42 -80 -147 -111 -104 -82 -58
-26 -31 -57 -110 -82 -82 -70 -49
-20 -27 -36 -77 -55 -61 -55 -40
-14 -25 -22 -55 -38 -47 -46 -34
-6 -21 -17 -44 -31 -42 -44 -33
-2 -29 -12 -35 -24 -37 -42 -31
-3 -27 -7 -27 -16 -31 -35 -25
-10 -18 0 -19 -10 -24 -30 -20
-11 -13 -1 -17 -10 -23 -31 -22
-7 -21 -3 -19 -11 -23 -31 -22
-6 -20 -2 -15 -8 -21 -30 -21
-13 -14 -3 -12 -7 -22 -31 -22
-15 -14 -4 -11 -7 -22 -32 -24
-4 -16 -5 -13 -8 -23 -35 -28
5 -20 -4 -9 -6 -22 -34 -26
1 -19 0 -5 -2 -18 -29 -22
-16 -18 4 -2 3 -12 -24 -17
-14 -19 5 -1 5 -11 -22 -15
-7 -18 5 1 5 -12 -21 -14
-3 -14 3 0 4 -12 -23 -16
-3 -9 -2 -5 0 -16 -28 -21
-3 -9 -3 -2 0 -17 -28 -22
-8 -11 1 2 4 -14 -25 -17
-8 -6 4 4 7 -11 -25 -16
-11 -3 3 5 7 -13 -26 -16
-12 -3 3 6 6 -15 -27 -17
-7 -6 2 4 7 -13 -27 -17
-3 -4 1 4 8 -12 -26 -16
2 -5 2 5 8 -10 -26 -15
0 -12 4 6 9 -8 -24 -14
-7 -16 5 7 11 -6 -22 -12
-10 -6 2 6 8 -11 -24 -15
-11 -7 3 9 9 -9 -23 -13
-5 -6 5 11 12 -7 -22 -14
1 -12 7 14 15 -5 -19 -12
3 -9 6 14 13 -7 -22 -13
5 2 4 11 13 -6 -23 -14
5 -5 8 16 18 -2 -17 -10
3 -5 11 19 22 3 -13 -5
-5 -9 13 20 24 6 -10 -4
-6 -5 8 17 20 3 -14 -7
-3 -3 9 18 20 2 -15 -8
0 1 8 19 21 2 -15 -9
-2 3 7 18 20 1 -16 -11
-5 -4 9 22 24 5 -14 -10
-4 -7 10 25 25 6 -14 -8
-3 -14 11 27 29 10 -10 -6
1 -17 13 29 33 12 -7 -5
2 -10 11 29 32 12 -8 -4
7 0 12 30 33 12 -7 -5
6 6 11 32 33 13 -7 -5
2 9 8 34 33 13 -7 -5
9 12 10 38 36 17 -4 -2
11 4 12 41 38 19 -2 -2
15 -5 12 44 39 19 -4 -5
20 -2 10 45 40 20 -3 -6
24 -3 10 47 42 21 -2 -5
9 1 15 53 48 27 3 -2
2 6 17 58 53 31 6 3
6 14 14 57 52 30 5 0
4 16 12 58 53 30 4 -1
3 12 11 61 54 30 5 -1
4 9 11 65 58 34 8 1
8 13 8 65 58 35 7 -2
19 16 11 71 62 39 10 1
27 21 13 77 68 44 16 7
25 18 15 82 75 50 20 10
19 15 19 88 79 55 24 12
20 11 22 93 85 60 30 18
22 18 19 93 85 61 29 17
26 22 16 94 85 60 30 16
21 22 16 94 84 62 30 16
24 23 15 96 85 62 29 15
30 24 19 102 90 67 34 20
27 23 23 109 97 73 40 27
28 30 23 110 98 76 43 28
33 32 22 109 99 78 44 31
33 34 20 108 99 76 44 30
35 40 15 102 92 70 38 27
36 40 17 104 94 73 41 27
39 43 15 104 94 73 42 26
43 38 17 104 93 73 43 29
45 28 16 106 93 72 42 28
47 30 21 109 97 76 47 32
40 30 24 110 98 77 48 36
38 31 19 104 92 72 44 31
38 33 19 103 92 72 44 32
42 42 13 93 84 66 38 27
40 46 13 92 82 64 37 29
39 46 18 94 84 66 40 30
41 38 18 96 85 68 41 32
32 36 20 95 84 69 42 34
27 37 18 92 79 64 38 29
26 34 16 89 76 60 36 26
31 31 17 87 75 59 36 27
31 27 17 83 71 58 34 25
25 28 17 80 70 56 33 25
24 24 21 78 70 58 36 28
27 29 19 72 66 54 33 26
29 31 16 67 61 51 30 23
27 30 14 61 57 48 26 20
26 33 14 57 51 43 22 16
29 25 17 57 50 42 22 16
23 18 20 56 51 43 24 15
15 16 19 50 45 39 18 13
13 19 14 42 38 32 12 7
6 17 17 39 37 30 12 9
1 17 19 38 38 33 16 12
-5 17 19 35 34 29 12 9
-9 13 15 28 28 23 8 6
-5 7 17 26 28 22 8 6
1 -1 19 27 27 21 7 7
2 0 18 22 22 17 2 4
3 1 16 17 17 12 -1 0
4 1 14 14 14 8 -4 -1
1 -3 14 13 14 9 -3 0
-6 -6 14 11 13 8 -6 -1
-7 -6 15 9 12 8 -4 -1
-4 3 14 7 10 5 -6 -2
-2 4 9 1 5 0 -11 -6
-5 -2 7 -2 2 -2 -14 -10
-8 1 9 -2 2 -2 -14 -10
-7 -1 11 0 3 -1 -12 -7
3 4 5 -7 -5 -8 -20 -13
-2 1 4 -8 -5 -8 -19 -12
-16 -8 8 -5 -2 -4 -16 -9
-15 -9 10 -4 1 -2 -14 -7
-13 -13 11 -7 0 -3 -14 -6
-14 -15 11 -6 0 -4 -14 -7
-10 -4 5 -12 -6 -8 -20 -11
-8 0 4 -13 -7 -10 -20 -11
-7 -6 8 -11 -6 -8 -18 -10
-14 -13 4 -15 -10 -13 -22 -14
-17 -19 4 -13 -9 -12 -21 -12
-14 -19 10 -8 -3 -6 -16 -7
-7 -12 11 -10 -5 -8 -16 -8
-7 -5 7 -14 -7 -11 -19 -11
-8 -7 8 -14 -7 -10 -18 -11
-9 -2 7 -17 -9 -11 -20 -12
-8 -2 4 -18 -11 -14 -21 -14
-5 -8 2 -19 -12 -14 -22 -15
-4 -9 6 -16 -9 -12 -19 -12
-7 0 5 -15 -9 -12 -21 -13
-9 -3 5 -15 -9 -12 -20 -13
-18 -17 10 -8 -3 -5 -14 -7
-20 -23 12 -8 -2 -5 -15 -7
-15 -12 7 -12 -7 -10 -18 -11
-7 -12 7 -12 -6 -9 -17 -10
-9 -12 7 -11 -5 -7 -15 -8
-11 -7 7 -11 -4 -7 -15 -9
-14 -1 9 -10 -2 -5 -14 -9
-11 -3 9 -11 -4 -7 -15 -11
-9 -11 10 -9 -2 -4 -15 -9
-12 -15 12 -7 0 -3 -12 -7
-17 -9 13 -7 -1 -4 -14 -7
-15 -3 10 -9 -3 -6 -15 -10
-12 -8 9 -10 -3 -5 -13 -10
-7 -18 11 -9 -1 -3 -10 -7
-5 -16 9 -10 -3 -4 -12 -9
-7 -7 5 -13 -5 -6 -15 -11
-6 0 5 -12 -3 -4 -12 -9
-9 -2 8 -8 -1 -2 -9 -6
-10 -2 7 -9 -1 -3 -10 -7
-9 -1 8 -4 1 2 -6 -4
-12 -1 10 -4 2 3 -6 -4
-10 -1 10 -6 0 1 -6 -5
-12 -1 11 -4 4 5 -4 -1
-12 -5 12 -5 4 5 -3 -1
-9 -10 9 -9 1 2 -7 -5
-10 -10 5 -13 -4 -1 -11 -7
-9 -15 3 -13 -4 -2 -11 -7
-4 -11 5 -10 -3 0 -9 -5
-10 -7 7 -9 -2 0 -8 -3
-13 2 6 -10 -3 0 -9 -3
-8 6 5 -12 -4 -1 -10 -5
-7 -3 9 -8 0 4 -6 -1
-7 -8 8 -10 0 3 -7 -2
-9 -12 6 -13 -3 0 -9 -5
-9 -11 5 -14 -4 -1 -9 -5
-7 -4 4 -14 -5 -1 -10 -6
-7 0 7 -12 -2 1 -7 -4
-10 -3 9 -9 0 4 -5 -1
-12 -6 9 -9 -1 5 -4 0
-9 -3 7 -10 -2 3 -5 -3
-2 7 6 -12 -3 2 -6 -2
1 14 5 -13 -4 1 -6 -3
-3 13 6 -13 -3 3 -3 0
-11 9 11 -9 3 8 2 6
-12 14 15 -6 5 11 4 7
-7 14 18 -4 8 14 7 11
-6 13 19 -2 9 15 8 13
-7 9 17 -3 7 13 8 12
-2 11 16 -3 6 12 7 11
-1 13 15 -5 5 10 6 10
-5 21 15 -5 5 10 6 10
-5 19 16 -3 6 12 8 11
-3 10 16 -4 6 12 9 10
-2 9 15 -4 6 12 8 12
-1 12 14 -7 6 11 8 13
-1 23 12 -8 6 11 10 13
-1 32 12 -6 8 14 12 17
-3 29 10 -6 8 14 11 16
-3 25 9 -8 7 12 11 15
2 28 9 -8 6 13 12 17
6 28 9 -8 6 13 12 18
1 24 6 -10 3 10 11 16
2 25 6 -13 1 9 9 17
6 26 4 -17 -2 5 6 14
7 32 0 -21 -6 0 3 12
-1 36 0 -22 -6 2 4 12
-12 37 4 -19 -2 5 8 16
-11 33 6 -17 -2 6 7 18
-7 30 4 -18 -3 6 8 17
-4 33 0 -21 -7 3 4 12
0 27 -2 -23 -8 0 1 12
-2 13 -1 -20 -7 4 3 12
5 10 -3 -22 -8 2 1 9
9 12 -6 -24 -11 -1 -2 5
10 10 -7 -25 -10 -1 -2 6
3 8 -4 -23 -9 0 -2 5
-11 8 -4 -22 -9 1 -2 4
-14 10 -3 -21 -9 -1 -4 2
-13 -4 -2 -21 -9 -1 -2 3
-15 -15 0 -19 -8 0 -2 3
-13 -13 0 -21 -10 -3 -5 1
-14 -9 0 -24 -13 -3 -6 2
-12 -13 0 -24 -11 -1 -4 3
-12 -6 -5 -29 -16 -7 -9 -3
-13 -8 -8 -33 -20 -12 -13 -7
-11 -11 -7 -31 -19 -14 -11 -6
-13 -4 -5 -29 -17 -13 -8 -2
-14 -6 -7 -30 -20 -18 -12 -6
-13 -14 -8 -31 -21 -19 -13 -5
-13 -23 -10 -34 -23 -21 -14 -9
-16 -28 -10 -33 -23 -22 -14 -8
-19 -28 -6 -29 -19 -17 -12 -4
-18 -26 -7 -31 -19 -18 -12 -5
-12 -12 -11 -36 -23 -22 -17 -10
-11 -6 -9 -33 -21 -19 -13 -6
-12 -13 -5 -29 -17 -15 -11 -3
-10 -14 -5 -27 -17 -13 -9 -1
-13 -14 -6 -27 -18 -15 -11 -3
-13 -9 -11 -32 -22 -20 -15 -7
-8 -9 -11 -30 -23 -20 -15 -7
-12 -15 -11 -32 -23 -20 -14 -6
-24 -17 -6 -28 -20 -18 -12 -5
-30 -22 -4 -26 -18 -14 -9 -2
-25 -24 -3 -24 -17 -13 -8 -2
-17 -18 -4 -26 -18 -15 -10 -3
-16 -19 -7 -28 -19 -16 -11 -3
-11 -17 -11 -31 -24 -20 -15 -6
-9 -13 -15 -35 -27 -25 -20 -11
-14 -13 -12 -32 -25 -23 -18 -11
-20 -12 -7 -26 -19 -17 -13 -5
-18 -13 -7 -25 -20 -19 -15 -7
-16 -5 -11 -29 -24 -25 -22 -14
-10 -13 -5 -21 -17 -18 -16 -8
-12 -17 2 -10 -8 -11 -9 -3
-14 -9 4 -1 -2 -7 -8 -3
-7 -2 12 15 10 2 -4 -1
0 6 18 34 23 12 1 -2
7 -1 30 56 41 25 8 1
15 -10 41 75 57 38 15 3
17 -6 52 98 81 59 31 14
26 10 59 112 105 86 56 34
37 30 54 101 117 108 75 49
38 50 46 85 128 125 93 63
46 63 39 66 139 147 117 85
54 77 28 22 130 155 134 105
54 88 20 -29 112 156 144 117
51 98 11 -70 97 155 153 128
36 101 -10 -105 85 150 156 135
32 87 -33 -119 83 145 145 125
40 51 -60 -131 67 116 105 88
39 26 -86 -167 21 65 62 56
15 14 -102 -217 -43 3 18 30
-24 -4 -109 -277 -128 -75 -30 3
-54 -39 -110 -325 -208 -152 -80 -28
-67 -72 -127 -349 -262 -208 -122 -59
-76 -96 -142 -351 -280 -229 -143 -80
-69 -110 -149 -334 -273 -229 -151 -92
-63 -120 -144 -307 -255 -218 -152 -98
-67 -122 -138 -280 -233 -202 -143 -96
-61 -106 -144 -268 -222 -194 -138 -95
-54 -96 -145 -256 -212 -187 -132 -89
-49 -81 -137 -235 -198 -174 -119 -81
-38 -64 -122 -204 -171 -153 -105 -70
-25 -44 -96 -163 -136 -124 -86 -57
-14 -30 -68 -117 -102 -97 -67 -45
-21 -20 -47 -83 -75 -76 -55 -39
-25 -21 -28 -58 -55 -61 -44 -31
-20 -27 -17 -39 -39 -47 -34 -26
-14 -26 -7 -24 -27 -38 -27 -20
-10 -20 -6 -20 -23 -35 -26 -21
-9 -14 -6 -20 -22 -34 -26 -22
-9 -13 -6 -15 -22 -32 -26 -23
-9 -17 -3 -11 -19 -30 -25 -20
-5 -23 -2 -8 -16 -29 -24 -21
-2 -23 -1 -4 -15 -28 -23 -21
-5 -20 4 -1 -11 -25 -21 -20
-8 -15 6 1 -9 -23 -21 -20
-7 -12 4 1 -10 -25 -23 -22
-6 -11 4 2 -10 -25 -23 -22
-6 -15 6 4 -6 -23 -20 -20
-9 -12 4 5 -7 -23 -21 -21
-10 -7 3 5 -7 -24 -22 -23
-7 -7 4 7 -6 -23 -23 -22
-6 -5 5 7 -6 -22 -23 -22
4 -3 4 10 -7 -22 -24 -23
15 -11 7 14 -3 -20 -22 -21
1 -16 11 18 1 -17 -19 -18
-8 -15 14 22 4 -15 -16 -15
-10 -10 12 20 3 -17 -19 -18
-11 -5 10 17 1 -18 -19 -19
-5 -9 16 23 8 -12 -13 -14
-4 -12 16 23 7 -12 -14 -14
-6 -9 11 20 3 -16 -17 -16
-7 -3 10 19 2 -17 -18 -16
-7 -13 15 26 5 -13 -15 -12
-5 -17 17 28 8 -12 -13 -12
0 -14 16 26 6 -13 -15 -14
-3 -14 14 25 5 -15 -17 -16
-7 -6 15 29 7 -13 -14 -14
-1 5 14 27 8 -14 -14 -14
0 5 10 25 3 -17 -18 -19
8 11 9 25 3 -18 -19 -20
10 10 9 28 5 -16 -18 -19
0 3 15 34 10 -10 -13 -15
-4 -1 22 43 17 -4 -8 -10
2 -4 23 45 20 -1 -6 -8
4 -11 20 44 17 -2 -8 -10
4 -15 21 46 17 -2 -8 -11
-4 -17 21 47 20 -1 -8 -10
-7 -6 18 44 19 -1 -9 -12
-3 -1 17 45 19 -3 -10 -14
5 -4 19 50 21 0 -8 -12
13 -1 17 50 20 -3 -10 -15
17 7 18 52 22 0 -7 -14
13 -2 24 62 28 6 -4 -11
4 -8 24 64 32 8 -3 -11
1 2 23 65 32 8 -2 -10
9 5 23 68 32 8 -3 -11
19 5 23 71 35 9 -1 -10
17 14 25 75 41 14 3 -8
0 20 28 81 47 19 8 -4
2 13 28 84 49 21 9 -3
10 7 28 88 53 25 12 -1
14 5 30 92 54 26 13 -1
15 6 30 95 57 28 13 -1
15 8 27 96 56 27 11 -4
21 2 26 99 58 28 12 -3
31 10 24 101 59 27 11 -5
30 14 25 104 64 30 14 -5
22 16 27 109 69 36 18 -1
26 20 29 114 74 41 23 3
23 16 34 123 79 47 28 8
21 14 34 128 84 51 32 9
25 24 32 130 85 52 33 8
31 27 32 134 88 54 34 9
29 26 31 137 91 57 36 12
31 25 30 139 94 59 38 13
36 28 31 141 95 60 39 14
42 33 31 142 96 62 40 14
44 33 29 140 97 61 40 14
46 29 28 139 96 61 40 15
46 29 27 138 95 61 40 16
46 29 23 134 91 59 38 13
50 29 23 135 90 61 40 15
53 35 25 138 92 62 42 17
47 36 27 140 94 64 44 19
43 36 29 143 95 65 46 23
32 31 31 143 96 66 47 24
33 29 30 140 93 64 44 21
41 31 27 135 90 63 43 20
43 34 27 132 88 62 42 21
41 34 26 128 85 59 40 20
41 34 25 125 82 57 40 20
46 34 23 119 77 53 36 17
54 36 21 115 72 48 31 13
54 35 23 115 71 47 32 15
43 33 23 113 70 47 33 17
36 32 24 111 69 46 31 16
28 27 24 106 66 43 28 13
33 29 23 100 61 39 26 12
33 29 22 95 57 36 23 10
27 25 22 92 53 34 21 7
22 28 24 91 51 34 22 9
16 17 28 90 51 35 24 12
20 9 33 92 51 36 26 14
28 12 36 91 49 35 25 14
29 15 29 80 41 25 17 6
27 18 26 74 35 19 13 1
22 25 23 67 30 14 8 -2
13 18 21 61 26 12 6 -3
8 13 23 58 25 12 6 -3
10 19 21 52 20 8 2 -7
14 16 19 47 16 4 -1 -10
15 6 21 45 15 4 0 -7
11 0 23 46 15 4 1 -6
10 -4 24 44 14 3 0 -6
6 2 21 39 10 0 -3 -10
-2 1 22 37 9 0 -4 -11
-1 -4 21 33 8 -2 -5 -12
3 -5 19 28 4 -6 -9 -13
3 3 19 27 3 -6 -9 -13
1 9 16 23 -1 -10 -12 -16
-1 4 13 19 -6 -14 -15 -19
-2 2 12 16 -8 -15 -15 -18
-2 5 10 13 -13 -19 -19 -21
0 -3 10 12 -13 -20 -20 -22
2 -13 13 15 -8 -16 -16 -18
-6 -21 17 20 -5 -12 -12 -14
-11 -24 18 18 -6 -12 -14 -15
-10 -16 15 13 -10 -15 -17 -18
-7 -13 11 8 -14 -20 -22 -21
-3 -8 9 3 -17 -24 -26 -25
4 -4 7 1 -19 -25 -27 -26
11 -8 9 3 -18 -23 -25 -25
6 -11 11 7 -16 -20 -22 -22
-18 -16 17 13 -10 -15 -16 -16
-19 -16 17 12 -9 -15 -16 -15
-9 -5 12 7 -15 -21 -22 -20
-5 -4 9 3 -17 -23 -24 -21
-7 -8 11 6 -14 -19 -21 -18
-7 -8 11 5 -16 -20 -21 -18
-8 -10 9 3 -18 -22 -24 -20
-9 -18 10 5 -17 -19 -22 -18
-15 -18 12 8 -16 -19 -20 -17
-15 -7 8 4 -21 -23 -25 -21
-5 0 7 4 -20 -24 -25 -22
-3 -4 7 2 -20 -23 -25 -21
-7 -7 8 -1 -19 -22 -24 -22
-8 -12 10 -2 -16 -20 -22 -21
-10 -23 13 1 -13 -17 -18 -16
-6 -21 13 0 -12 -17 -18 -16
-7 -13 13 -1 -13 -17 -20 -19
-7 -6 12 -2 -13 -17 -21 -19
-4 3 11 -1 -14 -16 -20 -18
-1 0 8 -3 -16 -18 -24 -22
7 -1 7 -5 -16 -20 -23 -19
10 1 5 -8 -19 -21 -25 -21
-3 -6 10 -2 -14 -17 -22 -18
-11 -6 14 1 -10 -13 -16 -13
-19 -10 19 5 -5 -9 -11 -8
-13 -13 20 7 -3 -8 -10 -7
-12 -13 19 6 -4 -8 -9 -7
-11 -4 13 0 -11 -13 -14 -11
-8 1 12 -2 -12 -13 -16 -12
-7 -2 12 -1 -13 -14 -17 -14
-2 -10 11 -2 -12 -13 -16 -14
1 -11 9 -4 -15 -17 -19 -14
-2 -6 5 -7 -19 -21 -23 -17
-6 -1 5 -7 -18 -21 -23 -16
-13 4 8 -5 -15 -18 -20 -14
-10 2 9 -4 -14 -15 -19 -11
0 1 10 -3 -12 -14 -17 -8
5 3 7 -6 -15 -16 -18 -11
3 -2 8 -5 -15 -16 -18 -12
-5 -1 13 0 -11 -11 -13 -5
-12 3 15 3 -7 -7 -9 -1
-5 -1 15 4 -7 -8 -10 -2
-3 -5 15 2 -8 -8 -10 -2
-4 -2 10 -1 -11 -12 -14 -7
-4 -4 9 -2 -10 -11 -12 -6
-9 1 5 -6 -14 -15 -16 -9
-13 1 5 -7 -16 -16 -16 -8
-7 3 6 -7 -14 -14 -14 -7
2 1 5 -9 -15 -16 -14 -8
7 3 4 -9 -19 -17 -16 -10
10 7 6 -8 -17 -15 -13 -7
3 6 6 -8 -17 -16 -14 -6
-1 5 8 -6 -15 -14 -13 -5
-3 6 7 -8 -17 -15 -14 -7
0 1 8 -7 -15 -13 -12 -4
-1 -2 7 -9 -16 -14 -12 -6
-11 -11 9 -6 -15 -12 -10 -3
-9 -9 10 -6 -14 -12 -9 -2
-2 -7 8 -9 -17 -13 -9 -4
-5 -2 5 -12 -21 -15 -13 -7
-10 -1 8 -9 -18 -13 -9 -5
-3 5 9 -9 -16 -13 -9 -7
4 4 11 -6 -15 -10 -8 -3
5 4 11 -6 -14 -9 -7 -2
-3 5 14 -5 -13 -7 -4 0
-11 13 16 -3 -10 -6 -3 -1
-10 15 16 -3 -10 -5 -2 2
-6 15 17 -3 -9 -4 0 3
-4 14 19 1 -3 0 3 6
-2 9 20 2 1 0 3 5
1 9 16 -1 -4 -4 0 2
5 6 17 -1 -2 -4 -1 2
6 6 18 0 -1 -4 -1 2
4 16 19 1 1 -1 0 3
0 18 19 1 2 0 2 4
1 25 15 -1 1 -2 0 3
3 32 15 -1 1 1 2 7
-1 34 15 -1 3 3 4 7
-4 38 14 -1 3 4 4 7
-4 32 12 -4 2 1 3 6
-3 16 12 -5 0 2 4 9
4 21 11 -6 0 1 5 9
5 28 10 -9 -3 -2 1 6
0 30 8 -12 -6 -4 -1 4
4 30 9 -11 -5 -2 1 7
9 34 13 -7 -1 2 5 12
9 33 14 -6 0 4 7 14
5 27 10 -10 -3 1 5 11
-1 19 4 -16 -8 -5 -1 7
1 21 2 -16 -10 -6 -2 5
6 20 1 -16 -10 -7 -3 3
11 22 -3 -20 -14 -11 -8 -2
18 23 -3 -19 -15 -12 -8 -4
18 13 0 -15 -11 -7 -5 -1
9 3 4 -10 -7 -3 -2 3
-3 5 9 -8 -3 0 2 6
-7 17 7 -10 -6 -2 0 4
-5 15 5 -11 -8 -4 -5 0
-7 2 4 -11 -10 -6 -5 -1
-10 1 0 -16 -16 -12 -9 -7
-12 -2 -3 -19 -18 -15 -12 -9
-12 -9 -5 -22 -22 -18 -15 -11
-8 -12 -3 -23 -22 -18 -16 -13
-2 -9 -4 -24 -22 -18 -15 -12
2 -4 -4 -23 -21 -18 -15 -11
-8 -10 1 -20 -17 -14 -11 -8
-12 -16 2 -19 -17 -14 -10 -7
-10 -12 0 -20 -18 -15 -11 -9
-10 -19 0 -22 -20 -16 -13 -10
-10 -16 -3 -22 -21 -17 -15 -13
-9 -7 -5 -24 -23 -19 -17 -15
-11 -9 -4 -24 -23 -19 -17 -16
-12 -11 -5 -25 -23 -21 -19 -17
-6 -11 -6 -26 -24 -21 -19 -17
-3 -11 -6 -25 -23 -20 -17 -16
-6 -13 -5 -26 -21 -20 -16 -16
-9 -17 -1 -22 -20 -16 -11 -12
-9 -16 -1 -20 -20 -16 -12 -12
-7 -12 -4 -23 -23 -21 -15 -16
-6 -12 -7 -26 -25 -23 -18 -20
-12 -17 -7 -24 -25 -23 -20 -19
-15 -27 -2 -19 -19 -18 -14 -14
-16 -27 0 -16 -16 -15 -11 -11
-12 -23 2 -14 -14 -13 -10 -8
-8 -19 1 -16 -16 -15 -11 -10
-11 -8 -3 -21 -19 -19 -15 -13
-11 -9 -7 -24 -23 -23 -18 -16
-10 -19 -7 -24 -23 -23 -18 -16
-7 -23 -7 -25 -23 -22 -17 -16
-4 -16 -10 -26 -25 -24 -21 -17
-13 -12 -8 -24 -23 -22 -20 -17
-20 -9 -6 -23 -23 -21 -20 -18
-13 -12 -3 -19 -20 -20 -18 -17
-10 -20 3 -8 -10 -12 -11 -11
-6 -9 6 2 -3 -7 -7 -10
0 -4 13 17 7 0 -3 -5
9 1 22 37 23 11 5 -1
11 5 36 61 43 29 13 4
11 4 45 79 58 40 18 3
13 6 54 98 78 57 30 11
20 15 61 108 102 85 54 30
32 34 60 102 117 108 78 49
37 46 62 95 132 132 101 70
43 59 54 72 137 147 120 86
56 77 38 24 126 150 131 99
57 94 30 -23 110 152 142 113
52 105 13 -67 93 150 150 126
45 110 -14 -102 82 148 155 132
38 98 -38 -114 81 147 146 123
37 68 -61 -120 71 124 113 92
37 37 -83 -150 33 81 75 62
17 10 -99 -198 -27 21 31 34
-8 -5 -113 -262 -111 -57 -20 4
-31 -38 -126 -319 -200 -140 -76 -32
-54 -84 -141 -347 -253 -194 -116 -59
-62 -108 -149 -352 -273 -218 -137 -77
-60 -123 -152 -334 -267 -219 -143 -85
-56 -130 -153 -314 -255 -214 -147 -95
-54 -121 -157 -297 -243 -209 -148 -101
-55 -114 -155 -277 -227 -194 -136 -96
-54 -105 -146 -256 -209 -180 -123 -85
-54 -91 -133 -230 -188 -162 -109 -75
-51 -78 -114 -192 -158 -138 -92 -64
-40 -58 -89 -150 -127 -112 -75 -53
-22 -30 -61 -108 -94 -86 -58 -40
-12 -22 -40 -73 -68 -64 -43 -31
-10 -19 -28 -54 -52 -52 -38 -29
-17 -18 -21 -41 -42 -45 -32 -25
-17 -8 -15 -31 -34 -37 -29 -23
-15 -5 -10 -22 -27 -33 -25 -21
-14 -12 -8 -18 -23 -28 -22 -17
-3 -15 -6 -15 -22 -27 -21 -19
6 -22 -7 -14 -22 -27 -22 -20
6 -32 -7 -12 -23 -28 -22 -19
-5 -37 0 -3 -14 -21 -15 -13
-13 -25 2 3 -10 -18 -14 -11
-10 -12 5 5 -9 -15 -12 -9
-11 -7 6 6 -7 -14 -10 -9
-12 -14 7 9 -4 -11 -9 -6
-10 -17 8 11 -2 -9 -7 -5
-11 -6 6 9 -4 -11 -10 -9
-10 -3 3 6 -6 -14 -12 -12
-5 -6 2 7 -6 -14 -13 -12
-8 -9 2 8 -6 -15 -12 -12
-5 -16 3 11 -4 -13 -12 -12
-3 -13 3 11 -4 -14 -13 -12
-2 -10 1 9 -5 -16 -14 -13
4 -10 3 10 -4 -14 -13 -12
0 -16 6 14 -1 -11 -11 -9
-5 -15 11 18 5 -5 -5 -4
-6 -3 10 17 4 -7 -6 -5
-8 -4 8 17 3 -8 -7 -5
-8 0 6 15 0 -11 -9 -7
-5 -6 7 17 1 -9 -8 -8
-5 -17 9 20 4 -7 -6 -6
-6 -17 10 21 5 -6 -6 -5
-6 -12 11 22 6 -6 -6 -6
-6 -15 11 23 8 -4 -6 -5
-3 -10 10 22 6 -5 -7 -7
2 1 8 21 5 -6 -9 -7
3 -5 8 21 6 -5 -8 -6
6 -1 5 21 5 -5 -8 -7
0 9 4 22 4 -5 -8 -9
-7 6 9 28 10 2 -2 -2
-10 -13 13 34 16 7 2 3
-4 -18 11 32 13 5 -1 0
4 -14 11 34 15 4 -1 0
3 -3 10 34 17 5 -1 -1
-5 5 10 34 18 5 -1 0
-4 2 10 34 18 5 0 -1
3 3 7 31 15 4 -3 -3
16 14 7 32 17 4 -2 -3
23 10 7 34 18 5 -2 -3
10 1 8 37 20 7 0 -2
-11 -10 16 48 29 16 8 5
-6 -4 19 51 31 16 10 7
7 10 18 54 33 17 11 5
5 16 17 54 33 17 10 3
4 8 16 56 35 18 10 4
11 6 16 57 38 19 11 6
15 0 17 61 41 23 14 7
15 0 18 66 45 27 18 10
17 14 17 67 46 28 18 10
11 19 17 71 49 29 21 12
5 18 20 78 54 35 24 13
9 23 19 81 53 32 23 12
14 15 21 86 58 35 25 14
20 9 22 91 62 38 28 17
21 5 24 97 66 42 32 20
20 0 27 102 72 48 38 24
21 6 25 105 73 49 39 24
23 21 22 106 72 48 38 22
27 25 18 106 70 48 36 20
34 28 19 112 75 52 38 20
32 23 19 115 79 55 40 23
29 26 21 119 81 56 42 24
28 27 22 122 85 60 46 26
32 31 21 122 85 61 47 26
40 36 21 124 87 64 51 31
37 30 22 125 90 66 53 33
38 32 21 125 90 66 54 33
42 38 21 127 91 68 56 35
38 39 19 125 88 66 55 35
39 43 16 123 85 65 53 32
42 35 15 120 83 61 50 30
48 28 15 119 81 60 50 29
51 39 15 121 83 60 52 33
51 39 19 124 87 65 56 38
45 44 23 126 91 68 60 44
32 41 27 128 93 72 64 47
37 41 22 122 89 68 60 43
44 52 15 112 79 59 52 37
42 50 13 108 75 56 50 35
42 51 13 106 73 55 48 34
46 40 16 108 74 55 50 37
46 34 16 105 71 53 47 34
40 33 16 103 70 51 47 34
35 27 19 103 71 54 49 38
32 23 18 99 69 51 47 35
39 26 19 98 66 51 47 38
39 33 19 93 63 48 45 36
35 31 19 89 60 47 43 34
33 29 18 86 56 43 40 33
26 35 16 80 50 39 35 27
25 31 18 79 49 37 33 26
24 23 19 76 45 38 32 26
22 13 19 72 42 34 30 24
19 12 19 67 39 32 27 22
20 15 19 64 37 30 27 21
23 15 21 62 35 31 26 22
19 17 18 54 30 26 21 18
11 12 18 52 28 25 20 18
11 11 16 49 25 22 17 16
6 13 14 43 20 17 14 12
6 9 17 44 21 18 14 13
10 11 19 42 21 16 16 15
9 10 14 32 14 10 10 9
10 10 11 26 9 6 5 4
11 11 9 21 7 4 3 4
6 9 9 20 6 2 3 4
6 10 6 14 3 1 0 0
4 11 7 12 2 -1 1 1
0 6 9 14 3 1 3 5
0 4 8 11 1 -1 2 3
1 3 5 8 -2 -5 -4 -3
0 -3 6 7 -2 -6 -3 0
-4 -4 7 8 -2 -5 -2 0
-5 -1 6 5 -5 -8 -4 -3
0 3 0 -2 -11 -13 -10 -9
0 -2 -2 -4 -14 -15 -12 -11
0 -6 2 -3 -11 -10 -7 -6
-8 -9 1 -3 -12 -11 -8 -8
-10 -13 3 -2 -11 -9 -8 -6
-9 -14 5 0 -10 -8 -6 -5
-8 -15 9 3 -6 -5 -3 -2
-10 -11 10 3 -5 -5 -3 -1
-6 -4 5 -2 -10 -10 -8 -6
-6 -5 6 -3 -10 -11 -9 -7
-7 -2 5 -3 -10 -12 -8 -5
-6 0 2 -7 -14 -15 -12 -10
-6 1 -2 -12 -19 -18 -15 -13
-5 -3 -3 -11 -19 -17 -15 -12
-2 -7 -2 -9 -17 -16 -13 -10
-1 -20 0 -8 -15 -14 -12 -8
-1 -27 1 -4 -12 -13 -11 -9
-4 -20 -2 -6 -16 -17 -15 -12
-12 -7 2 -2 -11 -13 -9 -8
-16 -5 9 2 -5 -6 -4 -1
-12 4 4 -1 -9 -10 -7 -5
-7 5 1 -5 -12 -13 -11 -8
-4 1 -2 -6 -13 -14 -11 -10
-2 -5 -2 -6 -14 -14 -11 -11
2 -9 -3 -7 -15 -15 -12 -11
2 -14 -2 -6 -14 -14 -11 -9
-4 -10 0 -3 -11 -12 -9 -8
-11 -10 0 -3 -11 -14 -11 -9
-14 -13 0 -2 -9 -12 -9 -8
-8 -2 3 1 -6 -10 -6 -5
1 9 0 -1 -9 -11 -8 -6
-4 -2 -1 -2 -9 -12 -8 -7
-9 -4 1 0 -7 -9 -4 -4
-9 -14 4 4 -4 -6 -2 -3
-5 -19 4 4 -4 -6 -2 -5
-6 -9 4 4 -5 -8 -3 -5
-10 0 1 1 -7 -11 -7 -7
-9 -1 -2 0 -11 -15 -10 -12
-9 -2 -5 -2 -14 -18 -14 -16
-9 -8 -3 0 -12 -15 -12 -13
-10 -14 0 4 -8 -10 -6 -7
-3 -8 0 4 -7 -10 -5 -5
5 4 -4 0 -11 -12 -9 -9
2 6 -2 2 -8 -10 -6 -8
-16 -6 4 8 -3 -5 -1 -2
-14 -8 4 9 -2 -5 -2 -3
-6 0 -1 5 -8 -11 -7 -8
-5 8 -4 3 -11 -14 -9 -13
-3 -1 -2 5 -9 -13 -8 -10
-3 -8 0 6 -6 -10 -6 -8
-4 -9 0 6 -6 -10 -4 -5
-6 -1 1 6 -5 -8 -3 -5
-1 2 -3 1 -10 -13 -6 -7
4 -5 -2 1 -9 -11 -5 -7
4 3 -4 1 -10 -12 -6 -7
-2 8 -4 1 -11 -14 -7 -8
-9 12 -5 -1 -12 -15 -9 -11
-8 7 -1 4 -8 -10 -5 -7
-9 4 3 8 -4 -6 0 -2
-10 1 7 11 0 -4 3 1
-10 0 5 9 -3 -5 1 -2
-7 5 6 9 -2 -5 2 -1
-5 9 6 8 -3 -6 1 -1
0 16 5 6 -5 -7 0 -2
5 26 4 6 -5 -8 -1 -4
7 22 6 6 -4 -8 -1 -3
7 13 8 8 -2 -6 2 0
7 7 8 11 -1 -4 2 0
-5 3 13 15 4 0 8 4
-11 3 16 18 6 3 10 8
-12 13 10 12 2 -1 6 2
-6 23 6 9 -2 -5 3 0
2 30 5 7 -2 -6 3 2
3 30 5 7 -2 -4 6 5
4 25 8 11 3 1 11 10
7 24 11 13 6 4 14 12
5 27 7 10 4 2 12 11
6 30 4 6 1 -2 8 9
10 27 -2 0 -5 -7 4 4
13 27 -6 -6 -9 -14 -1 -1
16 36 -6 -7 -12 -15 -3 -1
10 40 -4 -6 -10 -12 1 4
4 42 -3 -7 -8 -10 2 5
2 42 -5 -10 -9 -11 1 3
0 31 -7 -12 -12 -14 0 1
-4 8 -2 -7 -7 -9 5 6
-6 4 1 -5 -4 -7 7 8
4 17 -2 -9 -7 -10 4 5
12 20 -4 -10 -7 -12 2 4
7 17 -4 -10 -7 -13 1 3
1 18 -7 -13 -10 -16 -1 1
4 11 -9 -15 -13 -17 -4 -3
7 0 -8 -15 -13 -16 -5 -4
5 -1 -8 -12 -11 -16 -4 -3
-2 8 -6 -9 -10 -13 -2 -3
-1 10 -6 -10 -11 -15 -3 -4
2 -3 -3 -9 -10 -15 -5 -3
-1 -11 -5 -11 -13 -19 -8 -7
-3 -2 -14 -19 -22 -27 -16 -15
0 -1 -15 -23 -24 -29 -19 -19
-1 -9 -14 -22 -23 -28 -17 -16
-1 -9 -10 -19 -20 -24 -12 -11
-10 -18 -8 -17 -19 -23 -13 -11
-16 -20 -10 -19 -21 -24 -15 -13
-7 -6 -13 -21 -24 -27 -18 -16
-8 -1 -12 -19 -22 -25 -17 -15
-12 -1 -11 -17 -21 -24 -16 -14
-12 -7 -12 -18 -22 -25 -18 -16
-6 -9 -12 -19 -22 -27 -19 -17
3 -9 -14 -22 -24 -29 -21 -19
3 -15 -13 -21 -23 -27 -19 -19
-6 -21 -12 -19 -22 -25 -17 -15
-17 -25 -8 -16 -17 -22 -13 -12
-22 -23 -9 -17 -19 -23 -15 -12
-17 -19 -12 -20 -22 -26 -19 -17
-12 -15 -14 -22 -24 -28 -21 -19
-12 -10 -17 -23 -26 -30 -23 -20
-12 -14 -15 -21 -24 -30 -20 -19
-7 -11 -14 -23 -25 -30 -21 -18
-2 -8 -15 -23 -25 -30 -22 -19
-6 -14 -13 -20 -23 -26 -19 -16
-18 -19 -12 -19 -21 -25 -17 -15
-19 -14 -13 -19 -22 -27 -18 -13
-13 -11 -14 -20 -23 -27 -18 -16
-9 -12 -16 -22 -25 -28 -19 -18
-8 -17 -16 -23 -25 -27 -19 -18
-10 -24 -13 -20 -22 -26 -17 -15
-9 -27 -10 -18 -20 -24 -17 -15
-8 -20 -16 -24 -27 -30 -23 -21
-8 -21 -12 -21 -23 -27 -20 -19
-1 -14 -10 -17 -19 -23 -18 -16
3 -7 -10 -13 -17 -23 -18 -18
0 -5 -6 -2 -9 -15 -13 -16
-9 1 4 16 5 -3 -5 -7
-8 3 14 37 22 11 5 -1
1 6 21 55 36 19 8 -2
11 8 31 73 52 31 13 -2
21 11 41 94 71 48 25 5
30 21 47 107 92 73 47 23
32 28 51 109 112 100 74 46
41 41 49 97 122 117 90 61
50 61 42 79 128 133 106 76
54 75 30 39 118 137 118 86
63 88 24 -3 105 141 132 102
66 105 19 -38 98 148 147 121
52 116 2 -67 91 150 155 130
36 110 -23 -84 86 145 146 121
38 63 -47 -92 76 125 114 90
35 29 -68 -118 42 85 78 63
22 13 -83 -161 -13 32 38 37
-5 -6 -97 -225 -91 -42 -11 8
-31 -35 -110 -290 -180 -124 -67 -28
-49 -69 -136 -330 -243 -188 -115 -63
-61 -97 -150 -343 -271 -217 -140 -83
-62 -110 -158 -331 -270 -220 -148 -96
-66 -117 -159 -311 -262 -216 -152 -104
-68 -121 -154 -285 -241 -201 -145 -100
-62 -119 -147 -261 -219 -184 -130 -91
-56 -105 -147 -249 -209 -175 -123 -87
-56 -91 -139 -227 -193 -161 -112 -79
-53 -80 -119 -188 -163 -136 -94 -67
-44 -62 -91 -146 -128 -106 -73 -51
-30 -35 -65 -106 -96 -82 -57 -41
-11 -27 -44 -71 -70 -63 -44 -34
-3 -33 -28 -44 -48 -44 -32 -24
-9 -28 -17 -29 -34 -33 -23 -19
-12 -26 -11 -19 -26 -27 -20 -17
-11 -25 -8 -12 -20 -21 -15 -13
-9 -12 -12 -16 -23 -25 -21 -19
-7 -11 -14 -16 -23 -26 -22 -20
-14 -10 -12 -12 -20 -24 -19 -19
-13 -18 -5 -6 -15 -18 -13 -13
-12 -19 -4 -2 -14 -16 -13 -13
-13 -15 -5 -1 -14 -18 -14 -15
-9 -16 -2 4 -10 -14 -11 -11
-2 -9 -3 3 -11 -15 -12 -14
1 6 -8 -1 -16 -19 -17 -20
-2 5 -10 -2 -15 -21 -18 -20
-2 -6 -7 1 -11 -15 -13 -16
0 -11 -3 3 -7 -12 -12 -13
-5 -16 -1 5 -5 -9 -8 -9
-12 -15 -2 5 -4 -9 -6 -8
-12 -24 3 10 -1 -3 -3 -4
-5 -21 5 13 1 -4 -3 -4
-2 -14 2 11 0 -4 -4 -5
-1 -14 1 10 0 -8 -7 -8
2 -9 2 9 -2 -8 -8 -9
3 -6 -2 7 -3 -10 -11 -11
8 -8 -4 5 -5 -10 -12 -11
10 -6 -3 5 -5 -12 -13 -12
9 -4 -3 6 -4 -10 -12 -11
4 -6 1 11 1 -7 -8 -7
-14 -8 6 17 5 -1 -4 -4
-8 -1 4 12 3 -5 -7 -6
-1 -1 5 14 5 -1 -4 -3
-10 -9 9 19 10 3 -1 2
-3 -10 8 19 8 3 -2 0
2 -8 6 17 8 2 -3 0
4 -6 4 15 6 1 -4 -1
0 -9 5 17 7 2 -3 0
-14 -11 8 20 11 6 0 1
-9 2 8 22 12 8 2 3
1 13 8 24 12 7 1 1
4 9 4 21 8 3 -4 -4
5 9 3 21 8 3 -4 -5
6 3 7 26 13 7 -2 -1
6 -8 11 31 17 13 5 4
7 -14 17 37 23 17 10 10
6 -3 12 33 21 16 6 6
6 -10 16 38 25 20 10 11
7 -18 15 39 26 20 11 11
4 -6 12 38 24 19 9 9
5 8 13 43 28 22 11 9
10 10 15 47 29 23 13 9
8 -1 14 48 31 24 14 10
6 -4 13 51 33 24 14 10
9 1 12 52 34 26 14 8
14 5 16 56 39 29 18 12
16 6 17 60 41 32 23 15
20 7 16 61 42 33 22 13
22 11 11 60 40 31 19 9
20 14 12 63 43 34 20 8
27 16 11 66 45 34 20 9
28 23 13 72 48 37 24 11
11 11 20 83 58 48 32 19
11 3 22 87 62 51 34 21
24 6 15 84 58 48 30 16
25 15 12 85 59 47 29 15
28 21 16 90 65 54 35 21
19 28 22 98 73 62 42 27
16 32 20 99 74 63 44 28
23 28 23 104 77 67 48 31
30 24 21 107 80 68 47 30
37 23 18 108 79 67 47 30
42 26 18 111 81 67 47 31
40 34 18 111 82 69 48 29
38 35 21 115 86 74 53 34
40 42 19 114 87 73 52 33
42 41 16 111 86 74 54 35
41 42 15 111 86 73 53 35
35 35 17 113 89 77 57 39
35 39 21 116 92 81 61 44
42 42 16 112 86 76 57 40
43 34 17 113 85 76 58 39
39 30 21 119 90 82 63 46
41 29 23 121 91 82 63 47
45 30 18 115 85 76 59 42
49 34 15 111 82 73 56 39
53 37 13 108 79 72 56 41
46 31 16 109 81 74 57 42
37 31 16 108 79 73 57 42
35 35 15 105 77 71 55 41
39 42 17 102 75 71 56 42
44 41 16 99 71 68 51 38
48 35 10 92 65 61 45 34
48 34 8 86 58 56 40 30
42 34 11 87 59 57 41 32
41 29 14 86 60 58 42 33
30 24 18 87 62 60 44 35
16 24 21 86 60 59 45 37
21 26 20 82 57 57 43 35
24 23 17 76 51 50 36 31
21 23 14 71 46 44 33 26
28 32 17 69 44 42 32 25
26 25 17 65 42 40 30 23
26 23 17 60 38 36 26 21
28 24 16 58 35 33 23 20
25 16 16 55 34 32 23 18
16 15 15 49 31 30 19 16
8 5 15 46 28 27 20 16
4 0 16 44 27 26 19 16
10 13 14 40 23 22 15 12
8 16 12 37 19 21 12 10
4 7 13 35 17 17 9 6
5 7 11 31 15 14 7 4
8 10 7 24 8 8 1 -1
6 15 4 19 5 4 -3 -5
3 8 7 20 7 5 0 -1
-1 13 10 21 10 8 4 1
-9 8 14 22 11 10 6 4
-11 -8 16 21 10 11 7 5
-9 -20 17 21 11 10 8 6
-7 -20 17 19 8 9 7 7
-8 -15 14 14 4 4 2 2
-6 -3 7 6 -3 -3 -4 -4
-4 -7 6 3 -5 -6 -6 -6
-1 -14 7 4 -4 -5 -5 -5
-1 -13 7 1 -4 -5 -5 -5
-5 -11 4 -4 -7 -8 -9 -8
1 -17 4 -7 -9 -10 -8 -8
0 -2 4 -7 -9 -9 -7 -7
-16 -3 8 -2 -4 -5 -3 -3
-12 -7 8 -3 -6 -6 -4 -4
-7 -10 5 -5 -9 -11 -8 -8
-6 -18 5 -2 -7 -9 -6 -7
-9 -21 10 1 -2 -6 -3 -3
-15 -17 9 -1 -4 -7 -5 -4
-16 -10 9 -3 -5 -9 -8 -6
-16 -4 9 -3 -4 -7 -6 -3
-14 -7 7 -6 -6 -10 -10 -7
-17 -11 7 -4 -5 -8 -7 -5
-18 -16 5 -5 -6 -11 -10 -7
-19 -13 7 -6 -6 -11 -10 -7
-9 -7 8 -5 -6 -10 -10 -7
-6 -9 9 -4 -4 -8 -8 -4
-7 -7 9 -4 -4 -10 -8 -5
-8 -9 7 -4 -6 -11 -10 -7
-6 -9 8 -4 -5 -11 -10 -8
-1 -4 8 -3 -3 -8 -6 -4
-11 -1 10 -2 -2 -8 -6 -4
-15 5 9 -2 -1 -8 -6 -4
-11 6 9 -2 -2 -8 -7 -5
-11 -5 10 0 -1 -7 -6 -3
-7 -9 9 -1 -1 -9 -6 -4
-11 -13 9 1 0 -8 -7 -5
-12 -16 11 2 2 -7 -6 -4
-10 -5 9 0 0 -8 -7 -5
-12 -5 12 3 3 -5 -5 -3
-10 -6 9 0 0 -7 -8 -5
-1 -1 3 -6 -7 -13 -11 -9
8 3 -2 -10 -11 -17 -15 -14
6 6 0 -7 -8 -15 -13 -12
-10 6 6 -1 -4 -8 -7 -6
-22 -3 10 3 1 -3 -3 0
-20 -6 10 6 2 -3 -3 -1
-16 -11 9 3 0 -7 -6 -4
-22 -24 15 8 5 -1 -1 3
-24 -24 13 7 5 -1 -2 2
-13 -3 11 5 4 -1 -3 1
-8 4 12 6 3 -2 -3 1
-3 -1 9 4 0 -5 -4 0
4 1 5 0 -3 -8 -9 -5
1 3 5 0 -4 -8 -9 -4
-7 -2 8 3 0 -6 -6 -2
-16 1 10 6 2 -3 -4 -1
-17 1 11 6 4 -2 -2 0
-21 -8 9 2 1 -5 -5 -1
-20 -8 8 1 1 -7 -6 -2
-12 -4 8 2 1 -6 -6 -1
-6 -2 8 1 1 -5 -5 -1
-8 4 7 0 0 -6 -5 1
-16 6 4 -1 -1 -9 -6 -1
-17 0 1 -3 -4 -11 -10 -5
-15 -1 1 -3 -4 -11 -9 -4
-13 1 2 -3 -3 -10 -7 -2
-10 -5 6 1 1 -6 -3 1
-10 -9 8 2 2 -5 -1 3
-7 3 4 -3 -1 -8 -6 -1
-2 5 3 -5 -3 -9 -7 -2
-2 -3 3 -6 -3 -9 -7 -1
1 -1 0 -10 -7 -13 -11 -4
-8 -1 -1 -10 -7 -12 -9 -4
-20 -6 2 -6 -5 -9 -6 0
-16 -4 3 -4 -3 -9 -5 0
-14 1 5 -4 -4 -9 -5 1
-13 8 2 -7 -6 -11 -8 -3
-10 7 3 -6 -5 -11 -7 0
-10 5 0 -9 -8 -14 -10 -1
-15 7 0 -10 -8 -14 -11 -3
-11 12 2 -7 -3 -9 -7 0
-8 7 9 0 2 -4 0 7
-9 1 14 4 7 0 4 10
-10 1 15 5 7 0 4 11
-2 -1 13 4 4 -2 2 9
5 0 11 2 1 -5 -1 6
2 13 7 -1 -1 -9 -4 2
-11 23 11 3 3 -5 -1 5
-15 25 15 5 7 -2 2 10
-16 15 17 6 9 2 5 14
-16 11 17 6 10 2 6 14
-17 8 17 6 10 2 6 14
-14 10 14 4 8 1 4 12
-9 14 13 3 6 1 4 13
-3 24 13 4 7 0 6 13
4 34 13 5 7 2 7 14
4 38 13 4 7 2 6 13
-1 31 10 4 6 1 4 13
0 24 12 5 10 4 8 18
0 21 15 6 12 6 13 20
0 22 11 -2 4 1 6 14
-4 26 6 -7 -2 -4 2 11
0 33 6 -7 -2 -5 1 10
7 35 9 -3 1 -2 3 14
7 24 12 1 6 3 8 19
3 22 12 0 4 1 6 17
0 23 11 -2 1 -1 5 15
-8 22 12 -1 2 0 5 16
-2 27 2 -8 -6 -8 -4 9
-1 27 2 -9 -7 -9 -4 6
2 28 -1 -12 -10 -13 -8 3
9 24 -5 -14 -14 -15 -11 2
4 24 -5 -14 -13 -16 -12 0
-2 10 2 -6 -7 -10 -8 5
-1 -1 6 -3 -5 -10 -7 5
3 -12 7 -2 -5 -10 -8 4
-1 -6 4 -5 -9 -14 -12 0
-8 3 3 -6 -11 -15 -14 0
-14 5 3 -8 -13 -18 -16 -2
-14 2 5 -8 -12 -18 -16 -3
-15 -6 5 -9 -12 -17 -16 -4
-13 -5 4 -10 -13 -18 -16 -5
-15 -5 1 -12 -15 -20 -19 -8
-13 -5 0 -14 -18 -24 -21 -11
-13 -4 -2 -16 -21 -27 -24 -13
-8 2 -4 -17 -22 -27 -24 -16
-6 -5 -2 -17 -22 -27 -23 -14
-8 -8 -1 -15 -20 -26 -20 -11
-16 -5 -2 -17 -21 -27 -21 -13
-17 -2 -4 -19 -22 -29 -21 -14
-12 -4 -2 -18 -20 -26 -19 -11
-11 -5 -4 -17 -20 -27 -19 -11
-12 -3 -4 -19 -21 -29 -20 -13
-10 -3 -7 -21 -24 -31 -21 -16
-9 -22 -2 -15 -19 -26 -16 -13
-6 -15 -4 -15 -18 -29 -16 -14
-11 -14 -5 -17 -21 -30 -18 -16
-18 -19 -2 -13 -17 -25 -13 -13
-15 -13 2 -11 -13 -21 -11 -10
-11 -1 -2 -13 -15 -24 -11 -12
-15 3 -1 -14 -13 -23 -9 -12
-19 6 -2 -14 -12 -22 -9 -12
-16 0 -3 -15 -13 -22 -10 -12
-11 -4 -4 -15 -13 -23 -9 -12
-13 -6 -5 -18 -14 -23 -9 -13
-11 -17 -2 -14 -11 -20 -6 -10
-15 -24 0 -11 -7 -16 -3 -8
-17 -20 -4 -14 -11 -20 -5 -10
-15 -17 -4 -15 -11 -20 -5 -10
-14 -8 -1 -11 -6 -18 -1 -6
-12 4 -1 -14 -7 -20 -3 -9
-15 2 2 -8 -4 -18 -2 -7
-12 3 3 0 3 -12 2 -4
-4 8 4 8 6 -9 3 -4
3 18 14 28 21 2 10 1
12 22 26 51 38 15 18 7
22 24 35 71 56 29 25 9
28 27 43 88 70 39 28 8
31 32 50 108 89 58 46 17
38 48 54 117 111 84 70 36
46 61 54 113 127 105 92 55
55 82 50 99 135 121 106 68
57 87 48 85 144 140 127 88
64 89 44 51 138 150 146 107
70 108 38 9 125 153 159 121
74 119 31 -27 116 157 169 135
63 117 9 -58 108 157 173 143
53 110 -15 -72 104 149 159 128
45 77 -37 -85 87 127 127 98
37 50 -59 -120 45 79 86 69
28 31 -79 -173 -17 16 39 37
7 8 -88 -233 -92 -53 -8 10
-25 -20 -104 -293 -175 -131 -64 -26
-51 -57 -127 -325 -230 -185 -106 -57
-59 -73 -142 -335 -254 -211 -129 -77
-58 -86 -145 -319 -248 -210 -135 -86
-59 -94 -142 -296 -233 -204 -133 -88
-57 -98 -142 -273 -218 -192 -129 -88
-55 -96 -141 -256 -202 -179 -119 -83
-56 -91 -136 -237 -187 -165 -106 -72
-46 -73 -122 -210 -166 -147 -93 -59
-28 -59 -98 -171 -134 -119 -72 -44
-22 -52 -74 -132 -103 -93 -54 -33
-17 -33 -54 -95 -77 -74 -44 -29
-15 -16 -34 -64 -54 -57 -33 -21
-7 -3 -21 -44 -39 -44 -24 -17
0 1 -10 -28 -26 -33 -16 -10
-3 2 -4 -19 -17 -27 -11 -7
-3 7 0 -14 -12 -20 -6 -4
-4 1 1 -10 -7 -17 -3 -2
-5 -5 2 -8 -6 -16 -3 -1
-2 -6 1 -6 -7 -15 -3 -2
-5 -10 2 -4 -6 -14 -2 -2
-4 -8 1 -2 -5 -15 -4 -3
0 -7 1 -2 -6 -15 -4 -5
3 -2 -2 -5 -8 -19 -7 -9
7 0 1 -1 -6 -17 -4 -7
3 2 10 8 4 -7 4 3
2 14 8 7 4 -7 5 3
11 25 4 0 -1 -11 0 -3
9 19 3 -5 -1 -12 0 -3
6 4 11 -2 5 -3 8 4
3 -1 14 2 9 0 12 9
3 -7 14 5 11 1 13 10
2 -12 15 4 11 1 13 10
2 -8 11 3 9 -1 9 7
4 -5 12 4 9 -3 8 7
4 0 11 3 10 -4 7 7
5 11 7 -3 6 -7 4 4
8 13 6 -4 6 -7 4 3
11 11 7 -4 6 -7 5 4
10 5 9 -1 9 -3 8 7
12 4 11 2 11 -1 9 9
9 4 10 2 10 -3 8 7
9 13 7 0 5 -7 3 3
10 22 7 1 6 -6 3 2
10 9 7 2 7 -6 4 2
8 -1 6 3 8 -4 5 4
11 11 7 3 11 -3 7 6
16 16 12 8 16 4 14 13
7 12 15 11 20 7 17 16
4 -2 17 14 22 11 19 16
5 -8 20 18 25 13 21 19
8 -2 20 19 23 12 19 17
11 3 15 16 19 7 14 12
12 2 14 16 19 8 12 9
12 4 13 16 18 7 12 8
6 8 18 19 22 10 15 11
2 9 20 22 26 16 18 14
2 8 20 21 26 18 18 14
10 10 23 24 28 20 20 16
16 15 24 25 29 20 19 15
14 23 21 24 25 20 17 12
17 27 22 27 27 21 17 11
17 32 24 30 29 21 17 11
19 30 26 34 33 24 19 12
26 16 32 42 40 32 25 17
22 0 39 49 47 38 31 23
12 -10 44 57 55 47 36 29
13 -2 40 55 53 48 35 27
14 12 33 50 46 44 29 22
17 24 28 48 42 40 25 17
16 24 28 51 44 45 28 17
21 29 29 56 46 47 27 16
24 32 30 61 48 50 29 17
29 28 32 67 52 55 34 19
33 28 31 70 54 57 35 18
37 31 29 70 56 57 35 19
35 29 28 73 60 63 39 21
30 32 28 76 61 66 42 20
31 41 28 78 62 69 45 23
36 44 27 81 65 72 48 26
41 47 25 83 67 73 50 26
39 42 28 90 74 77 56 30
38 33 33 98 80 84 65 39
40 27 38 105 88 91 73 44
41 38 33 104 87 91 73 42
48 42 31 102 87 90 73 40
59 43 28 97 86 87 73 40
65 44 19 88 78 81 69 33
60 47 19 87 78 81 71 34
50 51 25 94 87 92 81 43
48 52 28 100 92 97 88 49
42 59 30 102 94 99 91 50
39 62 27 101 91 95 89 48
46 58 23 97 88 92 87 44
54 47 23 96 88 93 87 44
48 35 25 97 90 94 89 48
38 37 26 95 91 95 92 50
47 48 28 95 92 97 95 53
57 51 31 97 93 100 98 57
53 44 30 95 90 97 96 56
46 37 26 90 84 94 92 53
46 38 22 85 77 88 86 48
50 43 21 82 76 86 83 45
53 45 22 82 77 86 84 46
56 47 22 78 76 86 82 46
53 51 18 72 71 81 76 44
42 50 20 71 71 83 76 44
39 48 18 66 68 80 73 46
38 46 15 60 63 76 67 42
39 40 17 59 63 76 67 43
38 37 21 59 61 76 66 43
40 43 19 55 56 71 60 38
43 40 17 51 52 66 54 33
44 36 16 48 49 63 50 31
35 37 16 43 45 59 45 28
21 32 19 43 46 59 45 30
20 32 21 40 45 60 44 31
29 35 18 33 40 55 40 28
25 25 19 32 38 55 38 29
14 13 24 34 41 58 40 32
14 12 23 32 38 57 38 30
14 11 21 27 32 50 31 25
8 13 19 22 27 46 26 21
9 17 14 16 21 41 19 16
17 22 10 9 15 34 14 11
27 26 10 5 14 33 13 10
26 27 9 2 12 32 10 8
11 20 13 4 14 35 13 14
1 13 18 7 17 38 17 19
3 1 22 9 19 41 19 22
-2 -16 25 12 22 44 22 25
-4 -5 19 6 14 36 14 17
-5 3 13 0 7 29 8 11
-3 0 14 -1 5 28 8 10
2 6 14 -2 5 28 8 12
5 9 13 -7 3 25 6 10
0 11 13 -6 2 25 7 10
-2 8 10 -11 0 22 5 8
2 5 10 -11 0 22 6 9
3 4 10 -9 0 22 6 9
2 4 9 -12 -2 21 5 8
-5 -3 10 -10 -3 19 5 7
-6 -8 10 -9 -4 19 6 6
-5 -4 10 -9 -4 18 5 6
-7 -2 8 -10 -5 17 5 5
-4 -1 7 -12 -6 15 4 3
1 0 8 -13 -5 17 6 5
1 0 7 -13 -6 15 6 3
-3 -1 6 -15 -8 14 6 1
-4 2 6 -15 -7 13 6 2
-9 3 3 -18 -11 9 4 -3
-11 -3 8 -12 -6 13 8 2
-7 -4 12 -6 -3 16 12 6
-9 -7 14 -4 -1 17 13 7
-6 -5 15 -3 -1 18 14 7
-4 0 14 -6 -1 17 12 6
-4 3 12 -8 -2 17 11 5
-7 7 9 -11 -3 14 8 2
-9 0 7 -11 -4 13 6 1
-5 -1 10 -7 -2 15 7 3
-2 0 11 -4 0 18 10 6
-3 1 11 -6 -2 14 6 3
-2 -1 13 -5 -2 14 5 3
-5 -8 16 -3 1 17 7 6
-7 -21 20 2 5 21 10 11
-3 -24 20 3 8 22 12 13
-2 -19 18 1 6 21 10 12
-4 -8 15 -3 5 18 7 8
-3 2 11 -7 -1 14 2 4
-5 4 8 -9 -4 11 0 1
-5 3 9 -8 -4 13 -1 1
-6 -1 8 -6 -3 13 -2 1
-4 -1 9 -3 -2 14 -1 1
-3 0 10 -2 -1 15 0 2
-5 0 10 -4 -2 15 -1 1
-3 3 9 -7 -4 12 -4 -1
2 8 8 -10 -5 11 -6 -2
2 1 6 -9 -4 13 -4 -1
4 -2 6 -9 -4 13 -5 -2
2 1 3 -11 -8 10 -8 -6
7 -3 2 -10 -7 11 -7 -4
5 -5 2 -6 -5 12 -6 -3
-2 -6 3 -2 -6 11 -6 -4
-2 -5 2 0 -7 12 -6 -4
-10 0 9 5 -1 17 0 2
-12 1 12 7 2 17 1 3
-8 1 11 5 2 18 0 3
-10 2 7 1 -2 15 -1 -1
-11 5 4 -2 -4 12 -3 -3
-9 3 4 -1 -4 12 -3 -3
-9 -2 3 -1 -5 12 -3 -3
-5 -2 0 -3 -8 8 -5 -6
-1 -4 0 -4 -10 7 -7 -6
-4 -3 3 0 -7 9 -2 -3
-4 -10 6 4 -2 12 2 0
-5 -4 8 5 0 13 3 1
-8 8 6 2 -2 10 1 -1
-9 -1 12 7 2 17 7 3
2 5 17 11 6 21 12 7
8 20 18 12 7 20 13 10
6 25 14 10 3 17 10 6
7 26 10 7 -1 13 7 1
6 19 11 9 0 13 8 3
4 15 11 8 0 12 7 3
13 19 9 7 -1 11 5 1
23 20 9 7 1 11 5 1
6 19 15 13 7 18 12 7
-11 18 22 19 14 26 21 17
-11 17 20 15 11 23 20 16
-4 13 16 13 9 21 18 14
0 20 16 13 10 22 20 16
3 22 13 11 8 18 18 13
4 24 13 11 7 17 16 13
5 23 12 11 7 17 17 14
3 23 8 5 3 13 14 12
7 25 5 0 0 10 11 9
15 30 1 -6 -5 6 7 5
21 31 -4 -11 -9 2 3 1
24 31 -4 -9 -9 3 4 4
11 26 2 -2 -3 9 10 10
-4 22 6 1 2 14 15 15
-6 29 4 0 0 11 11 12
-4 23 2 -1 -1 9 8 9
1 18 1 -2 -3 7 6 8
3 14 -2 -4 -5 6 5 6
7 17 -6 -7 -8 2 1 3
11 19 -8 -10 -10 0 -1 2
5 8 -7 -10 -10 1 1 3
5 1 -6 -9 -10 1 0 2
4 -2 -4 -6 -9 1 2 2
2 -5 -4 -8 -11 -2 -1 0
6 -6 -4 -9 -13 -4 -5 -4
12 -8 -7 -11 -16 -8 -9 -8
15 -7 -10 -14 -18 -11 -13 -12
9 -6 -9 -14 -19 -11 -14 -13
-7 -7 -4 -11 -15 -8 -10 -10
-7 -11 -4 -13 -14 -8 -11 -8
-8 -5 -6 -15 -16 -10 -10 -9
-17 -5 -4 -14 -15 -10 -9 -8
-19 -14 -3 -12 -15 -9 -8 -7
-15 -19 -7 -15 -18 -14 -10 -9
-8 -17 -10 -17 -21 -18 -15 -14
-1 -18 -9 -17 -22 -18 -15 -14
0 -16 -9 -16 -21 -18 -16 -14
-8 -12 -7 -15 -18 -16 -14 -10
-9 -18 -5 -13 -18 -16 -12 -9
-10 -20 -4 -14 -18 -17 -12 -8
-8 -18 -7 -19 -22 -19 -14 -11
-3 -21 -13 -23 -26 -23 -18 -16
2 -21 -15 -24 -27 -25 -21 -19
-1 -20 -14 -22 -26 -24 -19 -17
-14 -25 -8 -15 -20 -19 -14 -13
-18 -27 -7 -14 -20 -20 -14 -12
-8 -26 -7 -14 -19 -20 -15 -11
-2 -14 -8 -16 -22 -22 -16 -13
-1 -8 -7 -16 -20 -21 -15 -11
-6 -14 -4 -14 -18 -21 -14 -8
-7 -16 -7 -16 -19 -21 -14 -11
-6 -16 -9 -19 -22 -23 -17 -14
-12 -25 -5 -14 -17 -19 -13 -11
-11 -22 -4 -12 -16 -18 -12 -11
-8 -19 -7 -14 -19 -20 -14 -14
-9 -26 -6 -13 -19 -22 -16 -15
-7 -22 -7 -15 -20 -24 -18 -15
-6 -15 -9 -17 -23 -26 -20 -17
-3 -13 -7 -14 -21 -24 -19 -15
3 -17 -3 -10 -17 -21 -16 -13
6 -22 1 -2 -11 -15 -11 -7
5 -9 5 12 -2 -7 -5 -3
8 2 10 26 9 0 -3 -3
8 -7 22 48 27 15 8 4
7 -3 34 72 46 31 15 7
10 -7 43 92 63 42 21 9
20 5 51 109 81 60 33 17
31 31 53 116 100 81 54 32
35 40 48 108 112 102 72 48
44 46 51 101 128 124 97 69
54 58 46 84 136 142 116 89
62 73 36 41 123 145 128 100
63 88 31 -2 110 149 144 119
57 95 25 -36 100 152 155 134
48 100 7 -67 91 152 159 139
44 92 -19 -82 85 140 138 118
41 55 -41 -96 66 111 100 84
34 19 -59 -130 26 67 63 57
15 -7 -71 -178 -34 9 23 33
-14 -20 -82 -243 -115 -67 -26 4
-40 -48 -93 -300 -194 -141 -77 -30
-58 -85 -114 -327 -242 -189 -115 -59
-64 -104 -130 -332 -260 -210 -134 -76
-64 -114 -139 -317 -254 -208 -139 -86
-64 -118 -139 -296 -244 -204 -142 -93
-61 -113 -139 -277 -230 -196 -138 -94
-58 -117 -134 -254 -210 -177 -123 -83
-52 -98 -132 -238 -196 -166 -115 -76
-44 -83 -125 -218 -181 -154 -104 -69
-37 -75 -106 -184 -152 -129 -86 -55
-31 -59 -80 -142 -117 -101 -65 -39
-24 -36 -58 -106 -91 -81 -54 -32
-17 -30 -40 -75 -68 -63 -43 -26
-13 -29 -23 -49 -46 -46 -29 -18
-11 -30 -13 -36 -35 -35 -24 -15
-10 -20 -7 -27 -28 -30 -23 -14
-8 -14 -3 -20 -21 -24 -19 -11
-7 -17 -1 -16 -18 -22 -17 -9
-3 -7 -5 -19 -20 -24 -21 -11
-1 -1 -8 -21 -21 -26 -22 -13
-4 -6 -6 -19 -19 -24 -21 -12
-7 -16 2 -8 -12 -17 -15 -6
-9 -24 7 -2 -5 -12 -12 -3
-8 -29 10 3 -2 -9 -10 -2
-5 -20 8 0 -4 -11 -13 -4
-2 -9 4 -3 -9 -16 -17 -8
-3 -5 4 -4 -8 -16 -18 -10
-3 -5 2 -6 -9 -15 -17 -9
1 -6 -1 -6 -10 -18 -19 -9
6 -13 3 -4 -7 -14 -14 -6
4 -25 6 0 -3 -11 -12 -3
-6 -26 11 5 1 -6 -8 2
-5 -19 10 6 2 -6 -8 0
-4 -15 9 7 2 -6 -9 0
1 -9 7 6 -1 -10 -12 -2
12 1 2 1 -6 -13 -16 -6
10 -5 6 6 1 -8 -11 -2
0 -10 13 12 10 1 -3 8
-13 -11 17 16 14 5 1 11
-18 -16 20 17 15 7 3 14
-16 -12 18 13 14 4 1 11
-9 -7 14 9 7 -2 -6 5
-5 -7 12 8 6 -3 -7 3
-2 -10 12 9 7 -3 -7 4
0 -18 14 12 10 -1 -5 5
0 -14 14 11 10 -1 -5 5
-2 -9 15 12 12 3 -2 9
-3 2 15 11 11 3 -1 9
-2 1 14 13 13 4 -1 10
1 1 11 13 13 5 -1 9
3 -1 11 14 15 5 -1 10
3 2 12 17 15 6 -1 10
0 4 11 17 16 7 -2 9
2 0 13 20 19 8 0 11
7 -10 15 23 21 10 3 11
11 -11 16 25 21 11 2 12
14 -9 17 27 23 11 4 15
9 -5 16 26 23 12 4 15
1 4 17 29 26 16 7 16
-6 4 18 33 31 20 9 21
-4 -3 21 37 35 25 12 22
2 -6 24 42 36 26 13 23
7 -7 21 43 35 25 12 21
7 0 19 43 36 25 12 21
3 11 21 46 38 27 14 23
1 17 20 46 37 25 13 22
4 7 21 51 42 30 15 24
12 5 20 51 42 30 15 23
16 9 17 51 41 28 13 22
25 11 16 53 42 30 14 22
18 10 20 61 51 37 21 28
4 6 27 72 59 46 29 36
8 3 29 77 63 49 32 38
12 14 24 76 62 46 30 35
15 23 23 77 62 47 31 35
15 16 27 83 68 52 34 40
16 12 30 88 73 55 39 42
20 14 29 90 75 58 40 44
23 12 28 93 79 61 42 44
25 11 27 96 82 63 44 45
26 10 28 100 87 69 48 48
26 13 28 104 87 70 48 48
32 23 25 103 85 69 47 47
39 28 22 102 85 67 45 46
49 31 20 102 85 68 44 43
50 40 19 102 86 69 44 43
27 47 27 113 98 79 53 54
27 31 31 118 103 86 61 61
36 21 29 116 102 85 59 62
44 27 24 113 98 82 57 62
39 21 29 117 104 87 61 68
28 30 28 116 100 85 60 66
33 39 24 113 97 81 56 62
35 44 23 111 97 79 54 61
36 50 22 110 94 78 53 60
37 47 25 110 94 80 55 63
37 44 26 108 95 81 57 66
37 31 29 109 96 84 60 69
39 33 29 106 94 82 59 69
38 37 24 99 87 77 53 67
41 35 21 94 82 71 51 64
44 34 21 94 79 69 49 64
37 34 19 92 76 66 45 62
33 29 21 91 76 66 46 62
31 31 21 89 75 63 43 61
31 36 19 83 69 59 39 59
30 29 23 84 72 63 44 63
27 22 26 83 72 64 45 64
26 23 23 77 67 60 41 63
26 25 22 73 63 58 41 62
23 23 21 68 58 53 36 58
22 22 22 65 54 50 33 56
21 16 24 64 53 48 30 55
20 18 23 59 49 45 27 53
20 24 22 54 45 42 22 50
16 26 21 49 39 36 18 47
13 23 21 43 35 33 18 45
16 19 20 38 32 30 15 43
19 12 19 34 29 28 13 40
21 8 17 31 28 26 11 38
24 6 16 28 25 24 8 36
18 13 12 21 19 18 1 31
0 22 14 23 19 19 3 32
-6 5 19 26 23 23 7 38
3 -5 19 20 18 18 4 34
4 5 16 14 12 12 0 29
-1 8 14 11 10 11 -1 27
-10 7 19 13 14 14 1 30
-16 3 21 15 15 17 5 33
-14 -5 20 13 16 18 5 35
-8 -1 17 9 12 14 4 32
-6 -4 15 5 6 10 0 29
-8 -6 11 1 3 6 -4 24
-7 2 6 -4 -2 2 -8 20
-6 1 6 -5 -4 0 -10 17
-3 -6 9 -4 -1 2 -10 19
-2 -4 7 -4 -1 2 -9 21
-7 5 5 -7 -3 -1 -12 17
-10 -3 12 -2 2 7 -6 22
-14 -15 18 3 8 12 0 29
-13 -9 14 -2 3 7 -4 25
-10 -7 13 -3 -2 3 -8 22
-9 -12 14 -3 -2 1 -9 22
-9 -18 13 -3 -1 3 -7 23
-8 -18 11 -3 -3 0 -9 21
-7 -12 8 -5 -5 -2 -12 18
-6 -10 7 -6 -3 0 -9 20
-7 -4 7 -7 -4 -3 -12 17
-11 1 8 -8 -7 -3 -13 15
-12 -4 9 -10 -8 -5 -14 14
-5 -1 6 -13 -12 -8 -18 10
6 -3 4 -13 -12 -10 -20 8
11 -9 3 -13 -13 -11 -20 8
-13 -12 13 -3 -3 -1 -11 16
-27 -13 20 5 5 6 -5 20
-18 -3 16 -1 -1 1 -10 16
-9 5 12 -7 -6 -3 -13 13
-14 4 15 -4 -2 -1 -10 16
-24 3 18 -1 0 4 -6 20
-19 6 12 -6 -4 -1 -10 16
-16 3 10 -9 -5 -1 -10 14
-9 -11 13 -2 0 3 -7 18
-8 -16 16 0 2 6 -6 19
-12 -7 10 -4 0 3 -8 15
-16 -2 12 1 3 6 -5 20
-13 -2 14 1 3 8 -4 21
-12 -1 14 -1 2 7 -4 20
-11 0 13 -2 3 6 -3 20
-12 2 12 -1 1 5 -5 18
-13 7 11 -4 -1 4 -6 16
-11 7 11 -4 0 4 -6 16
-8 -12 14 -1 2 6 -4 19
-6 -24 18 5 6 10 1 22
-4 -13 14 0 3 7 -5 17
-1 -4 11 -4 -2 3 -9 13
4 9 7 -8 -6 -1 -13 9
-4 12 8 -6 -3 2 -9 12
-23 7 17 2 7 11 0 22
-24 -4 20 6 9 15 4 26
-18 -16 20 5 10 15 6 27
-15 -16 20 6 10 15 7 28
-13 -10 18 4 6 12 4 24
-14 1 11 -3 -1 6 -2 18
-13 3 12 0 2 8 0 18
-10 -3 14 2 4 10 3 21
-10 -6 15 3 4 12 3 21
-10 0 14 1 3 10 3 19
-11 -1 14 0 3 10 2 19
-11 -1 12 0 2 8 1 18
-10 7 10 -4 -1 6 -1 16
-10 9 5 -7 -3 3 -4 15
-9 8 5 -6 -4 2 -3 14
-11 2 6 -5 -4 3 -2 14
-11 7 3 -8 -4 1 -3 11
-4 8 3 -8 -4 2 -5 11
1 10 3 -8 -5 1 -5 9
3 6 7 -5 0 6 1 13
-4 -10 13 2 6 12 8 21
-5 -12 14 1 7 13 8 23
-1 4 14 2 7 13 8 22
3 13 11 -2 4 10 5 19
2 15 12 1 5 12 7 20
-13 22 17 5 9 16 12 25
-17 21 18 9 11 18 15 26
-12 19 20 9 12 20 17 28
-15 27 20 8 11 18 16 25
-14 23 18 7 9 17 15 24
-8 17 19 9 12 19 17 25
-3 17 18 7 11 18 15 23
0 30 15 4 8 17 13 21
-1 31 12 3 7 16 13 21
-2 21 14 6 9 18 16 24
-1 18 16 8 13 22 20 28
1 23 14 6 11 20 19 27
0 35 11 5 9 18 18 27
-5 42 11 3 7 17 17 26
-7 40 10 0 9 19 20 27
-4 33 10 0 9 19 21 28
1 30 11 0 8 18 21 28
-2 33 8 -5 4 14 17 25
2 33 4 -9 2 11 16 23
1 32 5 -8 3 13 17 25
-2 27 7 -6 4 15 19 29
-3 32 5 -8 2 12 18 26
1 29 3 -10 -1 10 16 23
3 23 2 -12 -3 8 14 22
6 20 2 -12 -2 8 14 21
10 23 -1 -14 -5 5 12 18
8 29 -3 -13 -4 7 12 17
2 23 0 -11 -1 9 14 20
-3 24 -2 -14 -3 5 11 15
-9 24 -1 -14 -4 3 8 11
-9 20 -1 -15 -8 1 6 8
-6 16 0 -15 -7 1 5 9
-6 21 -2 -16 -9 -1 3 5
-10 15 -5 -19 -11 -3 1 2
-10 2 -2 -19 -10 -2 2 4
-12 -4 -5 -22 -13 -5 0 1
-14 -1 -5 -23 -15 -7 -1 -1
-18 -1 -6 -24 -16 -8 -2 -1
-17 -12 -5 -24 -15 -7 -1 2
-16 -15 -4 -22 -13 -6 0 2
-14 -15 -3 -21 -14 -7 -1 1
-13 -18 -3 -20 -12 -8 0 1
-12 -14 -5 -21 -14 -12 -3 0
-12 -11 -7 -24 -17 -17 -8 -3
-10 -9 -8 -27 -18 -18 -8 -4
-11 -9 -8 -26 -16 -17 -8 -4
-16 -8 -7 -25 -17 -17 -7 -3
-12 -5 -11 -31 -21 -22 -11 -7
-2 -15 -13 -31 -21 -23 -11 -8
-4 -16 -13 -30 -22 -24 -12 -8
-15 -13 -7 -27 -18 -19 -8 -3
-28 -16 -2 -23 -12 -15 -2 1
-30 -13 -3 -21 -12 -16 -4 -1
-23 -9 -4 -22 -15 -19 -6 -3
-22 -22 0 -19 -11 -14 -2 0
-20 -28 1 -17 -9 -13 -2 1
-18 -18 -2 -21 -11 -15 -5 -2
-18 -7 -8 -27 -16 -21 -9 -6
-16 1 -11 -29 -19 -24 -11 -9
-16 -3 -11 -28 -19 -25 -12 -10
-14 -17 -7 -25 -15 -22 -9 -8
-10 -15 -7 -25 -15 -23 -9 -8
-12 -15 -8 -25 -17 -24 -11 -9
-11 -20 -7 -24 -16 -24 -10 -8
-17 -20 -3 -22 -13 -22 -7 -5
-17 -13 -4 -22 -16 -24 -9 -8
-9 -6 -6 -19 -15 -25 -12 -12
-5 -1 -3 -11 -8 -21 -10 -11
2 6 3 4 2 -15 -6 -9
0 2 17 28 20 0 4 -2
-7 -2 30 50 39 15 13 3
1 -4 42 73 57 30 20 6
8 -4 53 94 75 45 29 10
9 6 66 119 103 69 49 24
16 24 65 123 124 97 73 42
27 36 57 103 134 118 94 58
39 58 46 79 143 137 113 75
50 76 30 45 141 151 131 89
50 89 16 -8 124 154 144 104
44 101 11 -55 109 157 158 120
35 115 -1 -96 93 154 164 129
24 115 -23 -130 84 152 166 136
25 79 -46 -140 84 148 154 125
26 33 -71 -155 64 115 116 93
14 17 -93 -197 12 58 70 63
-5 12 -114 -257 -67 -17 19 30
-26 -1 -124 -320 -164 -110 -41 -6
-46 -27 -130 -360 -243 -190 -97 -44
-66 -63 -141 -370 -285 -238 -132 -70
-70 -90 -146 -356 -284 -243 -142 -84
-63 -111 -146 -330 -268 -235 -144 -91
-59 -119 -144 -306 -252 -227 -146 -100
-49 -124 -147 -288 -237 -217 -145 -103
-44 -106 -152 -274 -224 -207 -138 -98
-47 -84 -147 -259 -212 -197 -128 -90
-47 -73 -133 -231 -188 -176 -112 -79
-42 -54 -113 -193 -158 -150 -93 -66
-42 -43 -84 -147 -118 -119 -71 -51
-39 -39 -51 -100 -82 -89 -52 -39
-32 -35 -31 -70 -59 -74 -42 -34
-25 -34 -17 -46 -40 -60 -34 -30
-21 -22 -9 -33 -29 -52 -29 -27
-19 -19 -4 -23 -23 -45 -26 -24
-15 -19 1 -14 -14 -38 -20 -20
-14 -15 3 -13 -13 -38 -19 -20
-13 -8 1 -12 -14 -39 -22 -22
-11 -6 3 -9 -13 -37 -21 -21
-12 -8 4 -4 -10 -35 -19 -21
-8 -4 5 -1 -10 -34 -20 -22
-6 -3 5 -1 -10 -37 -21 -24
-9 -9 2 -2 -12 -39 -25 -28
-10 -17 9 5 -4 -32 -18 -23
-13 -20 14 12 3 -26 -13 -16
-12 -10 13 11 3 -26 -12 -16
-11 -9 12 12 4 -24 -12 -16
-12 -18 13 14 5 -22 -10 -13
-10 -14 11 12 3 -24 -12 -16
-10 -8 8 12 1 -26 -13 -18
-11 -7 8 15 1 -27 -14 -20
-7 -12 12 19 4 -24 -11 -18
-6 -8 11 18 5 -25 -13 -18
-4 -2 11 17 5 -26 -13 -18
-1 2 11 17 6 -25 -13 -18
-3 -2 12 18 8 -23 -11 -16
-6 -8 14 20 11 -20 -9 -13
-4 0 12 18 9 -22 -10 -16
-2 2 8 15 5 -26 -15 -21
2 5 8 17 4 -26 -15 -22
1 0 10 20 5 -26 -14 -21
3 -1 11 22 6 -25 -15 -22
2 0 11 25 8 -24 -13 -21
-2 -2 15 27 12 -21 -9 -17
-4 -7 17 30 16 -17 -6 -13
-14 -11 23 36 24 -9 1 -5
-16 -6 22 37 23 -9 0 -7
-10 -2 18 33 19 -14 -3 -9
-7 4 14 31 16 -17 -7 -14
-7 -1 16 34 19 -14 -5 -14
-7 -4 18 38 21 -13 -5 -13
-5 2 15 39 20 -14 -8 -15
-2 6 15 42 21 -13 -8 -17
-1 -7 19 47 28 -9 -3 -11
-1 -1 17 45 26 -10 -7 -14
5 15 12 41 24 -13 -9 -17
5 14 13 43 26 -10 -9 -16
5 5 17 49 29 -7 -5 -12
-2 5 19 54 32 -5 -3 -11
-2 13 17 56 33 -5 -4 -13
4 12 17 59 34 -5 -4 -15
7 4 18 63 38 -3 -2 -12
9 -1 19 69 41 1 0 -12
9 -5 21 73 46 3 4 -8
0 -1 22 76 49 6 5 -7
-2 10 20 76 50 6 5 -6
-2 13 21 80 53 8 6 -6
0 7 24 84 56 12 9 -2
5 5 25 89 60 14 10 -1
8 10 24 91 60 14 11 -2
9 14 25 96 64 16 12 -3
14 20 23 98 65 17 10 -4
15 17 24 104 70 21 14 -2
14 14 26 110 75 24 17 0
15 9 29 114 79 28 20 2
18 18 26 115 81 30 20 2
21 26 25 118 83 33 22 1
25 24 26 121 85 36 25 4
31 33 21 122 85 34 22 1
37 27 21 127 88 38 23 4
38 18 23 133 92 41 25 5
36 19 26 138 98 46 27 9
23 21 34 149 107 55 37 17
21 21 36 153 111 59 40 20
27 28 32 149 108 56 37 17
32 35 27 144 106 53 35 15
36 35 26 143 105 54 35 16
31 41 25 145 106 56 37 17
29 46 25 145 106 56 38 17
34 29 30 150 108 60 43 21
33 28 28 149 107 57 42 18
38 28 26 147 105 57 40 16
44 31 26 146 104 57 40 15
42 34 26 145 104 56 39 16
39 42 25 141 101 55 37 14
38 42 24 138 100 55 38 15
34 42 23 135 97 53 38 14
33 43 24 134 96 54 38 17
33 42 23 131 94 52 37 16
34 37 21 129 90 49 35 15
35 34 22 127 88 47 34 13
39 36 20 122 82 42 30 10
43 41 19 117 79 40 28 6
44 43 18 114 75 38 26 6
30 35 24 115 79 40 29 11
25 32 26 114 78 40 31 14
27 34 24 109 72 36 28 11
25 22 24 105 69 34 27 11
24 17 25 102 66 31 25 11
21 22 22 96 61 27 22 8
19 19 23 92 57 24 20 5
19 25 20 86 52 19 16 2
18 35 13 77 44 9 9 -6
17 35 15 73 42 9 9 -6
18 23 17 70 39 8 8 -5
18 23 17 64 36 5 5 -8
18 23 16 59 32 3 4 -9
15 19 15 54 28 -2 1 -12
9 12 16 51 26 -3 0 -13
5 11 18 50 26 -3 0 -13
5 12 16 45 22 -8 -5 -16
7 11 17 44 18 -10 -5 -17
8 11 15 38 15 -14 -8 -21
10 10 12 32 10 -20 -13 -25
11 10 13 30 9 -20 -13 -25
-3 7 15 30 12 -17 -11 -23
-12 12 17 29 12 -16 -9 -20
-8 11 16 25 8 -18 -11 -21
-7 5 14 21 5 -21 -14 -23
-6 2 12 21 4 -20 -14 -23
-5 2 10 17 1 -23 -16 -26
3 6 6 12 -4 -27 -21 -31
8 7 3 9 -8 -31 -26 -34
-1 3 5 10 -7 -31 -24 -31
-10 3 8 11 -4 -28 -21 -28
-16 6 10 12 -1 -26 -19 -25
-15 2 10 10 -3 -27 -20 -27
-11 1 7 6 -6 -30 -23 -29
-9 -2 8 8 -5 -28 -21 -27
-9 0 6 7 -7 -29 -22 -26
-8 -11 9 10 -5 -27 -19 -24
-9 -21 11 10 -4 -27 -18 -24
-8 -18 9 6 -7 -29 -22 -28
-4 -13 6 2 -10 -32 -25 -31
-1 -7 5 0 -11 -35 -25 -32
0 -5 4 0 -11 -34 -26 -31
-4 -6 6 1 -10 -32 -23 -29
-12 -3 8 3 -8 -30 -21 -28
-8 6 3 -1 -13 -35 -26 -32
-8 7 0 -3 -15 -37 -28 -35
-7 5 2 1 -14 -36 -26 -34
0 0 3 3 -11 -35 -25 -31
0 -11 6 6 -10 -32 -23 -27
-12 -11 10 9 -6 -28 -18 -24
-22 -16 15 13 -1 -24 -14 -21
-13 -8 10 7 -5 -28 -18 -25
-4 -3 7 5 -9 -31 -21 -29
0 -2 4 1 -12 -34 -25 -32
1 -1 2 0 -13 -35 -25 -33
-11 2 6 4 -9 -30 -21 -27
-18 5 9 7 -7 -27 -18 -23
-11 9 8 8 -6 -27 -18 -25
-11 7 7 8 -7 -27 -18 -26
-10 3 8 7 -7 -26 -18 -25
-6 -7 10 11 -3 -23 -15 -21
-6 -5 8 7 -6 -25 -16 -21
-6 5 3 1 -11 -29 -22 -27
-8 0 7 6 -7 -25 -17 -23
-9 -1 7 5 -7 -25 -17 -23
-9 6 4 4 -9 -26 -18 -24
-7 5 4 5 -9 -25 -19 -23
-3 5 3 5 -10 -26 -20 -25
-2 2 6 6 -7 -24 -17 -22
-2 -2 7 7 -5 -22 -17 -21
-4 -1 9 8 -2 -19 -14 -19
-7 5 9 6 -3 -19 -15 -19
-6 8 5 3 -7 -23 -18 -21
-4 2 7 5 -5 -19 -16 -19
-5 -2 7 5 -6 -20 -16 -18
-6 0 5 4 -7 -21 -17 -20
-2 2 5 5 -7 -20 -15 -19
-2 2 5 5 -6 -19 -16 -19
0 8 3 2 -8 -22 -18 -21
-1 11 1 2 -9 -23 -19 -23
-3 1 4 5 -5 -19 -15 -19
1 5 4 4 -3 -19 -14 -17
4 5 5 3 -2 -18 -13 -17
0 7 3 0 -5 -20 -15 -19
-4 10 1 -3 -7 -22 -17 -21
-5 7 5 0 -3 -19 -13 -17
2 8 8 5 -1 -16 -9 -14
7 9 5 2 -4 -18 -11 -16
8 15 4 0 -5 -19 -13 -18
4 26 6 3 -2 -16 -9 -16
0 28 11 7 2 -12 -4 -11
-4 8 20 12 9 -6 3 -4
-5 2 22 15 12 -1 6 0
-8 11 18 10 9 -3 3 -3
-6 21 15 8 6 -3 0 -7
-5 28 13 5 5 -4 -2 -9
-4 29 15 8 5 -3 0 -7
-2 24 16 11 8 0 2 -5
3 23 12 8 6 -1 2 -6
9 24 10 4 3 -3 1 -6
13 28 6 0 0 -5 -2 -9
17 30 5 -2 2 -3 -2 -8
14 32 12 5 8 3 7 3
3 38 12 5 9 4 8 4
3 41 10 3 7 3 7 5
10 34 10 2 7 4 8 5
14 28 7 0 4 2 6 3
13 32 2 -6 -2 -5 0 -3
10 33 1 -9 -4 -7 -1 -4
4 37 -1 -10 -4 -6 0 -4
0 44 -1 -9 -4 -5 0 -3
-3 39 1 -9 -2 -4 2 -1
5 41 -2 -12 -5 -5 0 -2
14 26 -2 -12 -5 -5 1 0
19 19 -6 -15 -9 -8 -3 -2
13 22 -6 -15 -10 -7 -2 -1
0 25 -3 -8 -5 -3 3 4
-4 31 -7 -11 -7 -6 -2 -1
2 22 -7 -12 -8 -7 -3 -2
5 13 -7 -11 -8 -7 -3 -2
7 14 -10 -12 -10 -8 -6 -4
6 13 -6 -11 -7 -7 -4 -3
3 8 -6 -12 -9 -7 -6 -4
1 9 -8 -16 -13 -10 -9 -8
-2 4 -9 -17 -14 -11 -10 -7
-3 7 -11 -20 -19 -16 -14 -11
-1 9 -12 -21 -21 -18 -17 -14
-3 2 -14 -22 -22 -19 -19 -16
-1 -7 -11 -21 -19 -17 -17 -13
-3 -14 -8 -18 -16 -13 -13 -8
-7 -15 -9 -19 -17 -14 -13 -9
-3 -10 -10 -21 -17 -16 -14 -10
-3 -8 -11 -22 -18 -16 -15 -10
2 -13 -12 -23 -20 -17 -17 -11
8 -20 -12 -23 -19 -17 -17 -10
5 -20 -12 -23 -20 -17 -17 -10
-3 -11 -11 -21 -22 -18 -17 -10
-10 -5 -10 -21 -21 -17 -17 -9
-6 -12 -11 -20 -20 -16 -17 -9
-4 -9 -12 -20 -21 -16 -17 -8
-7 -7 -10 -18 -18 -14 -14 -7
-8 -7 -11 -21 -19 -15 -16 -10
-9 -10 -11 -22 -19 -15 -15 -7
-8 -14 -12 -23 -21 -17 -16 -8
-6 -8 -14 -22 -21 -16 -15 -8
-7 -9 -15 -23 -22 -17 -15 -8
-5 -10 -14 -22 -23 -17 -15 -8
2 -8 -14 -22 -22 -17 -16 -9
3 -14 -13 -21 -20 -16 -15 -8
3 -17 -14 -21 -20 -15 -15 -9
-1 -22 -10 -17 -16 -11 -11 -5
-2 -17 -13 -21 -18 -14 -14 -9
-6 -11 -14 -23 -20 -16 -17 -10
-10 -4 -14 -23 -20 -16 -16 -11
-6 -4 -16 -25 -22 -19 -17 -12
1 -7 -15 -25 -21 -18 -16 -10
-5 -10 -11 -20 -17 -14 -12 -7
-18 -15 -7 -15 -14 -11 -10 -6
-12 -15 -5 -9 -10 -8 -9 -5
-4 -10 0 4 -1 -1 -3 0
3 -12 11 23 14 11 7 6
9 -3 18 39 28 20 12 9
16 6 25 56 41 31 16 6
24 9 34 73 56 41 19 5
29 10 44 93 75 59 31 13
29 27 51 108 96 86 55 32
35 40 53 105 115 112 80 53
46 45 51 93 127 132 99 69
57 55 43 70 134 150 119 87
65 65 31 24 123 156 133 101
68 94 17 -29 104 155 141 110
69 118 4 -75 90 157 153 127
53 124 -16 -107 82 159 163 140
41 107 -38 -120 83 160 160 139
40 70 -64 -127 73 140 127 106
34 38 -88 -157 34 96 88 74
28 14 -107 -206 -30 32 40 42
12 -18 -116 -263 -107 -40 -6 15
-22 -53 -121 -316 -190 -119 -58 -13
-49 -71 -141 -347 -249 -180 -102 -48
-54 -83 -159 -360 -280 -213 -133 -73
-53 -91 -164 -347 -274 -214 -140 -84
-61 -110 -154 -317 -254 -200 -135 -83
-60 -124 -151 -294 -237 -188 -129 -83
-57 -119 -149 -275 -220 -174 -119 -77
-48 -102 -146 -259 -206 -162 -110 -71
-40 -89 -138 -236 -191 -150 -102 -65
-34 -68 -120 -200 -164 -127 -87 -55
-28 -48 -94 -158 -130 -100 -69 -43
-23 -35 -67 -115 -97 -74 -51 -32
-11 -23 -47 -82 -71 -56 -39 -25
-8 -22 -34 -59 -52 -40 -29 -20
-10 -13 -24 -44 -38 -28 -22 -15
-6 -16 -16 -32 -27 -19 -15 -7
-4 -15 -12 -25 -21 -13 -10 -5
-2 -6 -13 -22 -19 -12 -10 -4
-3 -9 -10 -19 -17 -10 -8 -3
-2 -9 -8 -14 -14 -8 -7 -3
1 -17 -6 -11 -11 -6 -7 -3
0 -22 -6 -9 -11 -6 -8 -4
1 -23 -4 -5 -8 -4 -6 -2
-2 -28 2 1 -2 2 -1 3
-3 -22 1 1 -1 3 -1 3
-1 -10 1 -1 -3 2 -2 1
0 -5 -1 -1 -1 3 0 2
0 -4 -1 -1 0 4 0 2
1 -7 0 1 0 6 0 3
1 -4 -3 -1 -3 3 -3 0
2 -10 -2 3 1 6 -2 1
6 -16 1 7 4 8 3 3
9 -14 0 8 4 6 0 1
11 -13 3 8 4 7 1 1
5 -12 0 9 4 7 0 2
-1 -3 0 8 3 7 0 2
-2 0 0 10 6 9 1 3
4 -3 1 12 8 11 4 4
9 4 -1 14 6 10 3 3
3 4 -2 13 5 9 3 2
2 2 -3 14 5 8 1 0
9 3 -3 16 4 7 2 0
13 -2 -2 17 6 7 1 0
12 -10 2 20 11 12 5 2
7 -17 9 28 18 20 12 9
-7 -11 10 30 19 22 14 13
-5 -4 8 27 19 21 13 12
4 1 6 23 16 20 12 10
5 4 2 21 12 17 8 5
5 5 3 22 13 16 8 5
3 12 1 23 14 17 6 4
1 13 5 28 16 19 9 5
1 11 7 32 21 22 10 7
5 12 6 32 21 22 9 6
9 12 5 33 22 25 10 7
11 7 7 34 23 26 12 7
9 -2 10 39 29 31 18 11
13 -4 12 42 31 33 19 13
12 -3 11 43 30 33 19 13
7 -11 15 51 36 37 23 18
3 -1 16 53 38 39 23 18
3 11 13 53 37 36 22 14
9 2 16 60 42 41 25 17
12 -9 19 65 49 47 29 21
14 -3 18 64 49 46 28 19
14 14 16 63 48 45 26 18
13 16 15 67 51 47 27 19
14 14 15 71 54 50 30 20
15 14 14 72 53 51 30 20
15 14 15 77 56 53 33 20
18 17 16 81 59 55 33 20
20 20 16 85 62 57 35 19
21 16 19 93 67 61 38 23
25 15 21 96 70 64 40 26
28 14 20 99 72 66 41 26
32 20 19 101 74 68 42 26
38 24 18 102 77 69 43 28
37 24 21 109 83 74 48 32
35 25 22 113 86 78 51 34
31 28 19 115 87 78 51 34
28 30 21 121 93 83 53 36
34 35 20 123 94 83 53 34
48 36 13 117 89 76 48 28
52 39 14 116 90 79 49 29
42 47 16 119 94 84 54 32
27 37 26 130 106 96 66 46
33 29 30 134 111 101 72 52
43 27 26 131 107 100 70 51
42 31 26 131 108 101 70 51
36 39 28 135 112 103 73 55
37 41 27 134 111 103 72 55
41 39 25 133 109 100 70 53
39 38 24 132 107 99 69 53
39 39 24 129 106 99 70 54
41 41 24 127 105 100 72 56
42 39 24 126 104 100 72 57
43 50 20 120 99 95 67 54
42 54 17 112 95 91 65 51
42 41 21 111 97 94 69 55
42 39 22 108 96 93 67 55
42 43 20 103 92 90 64 52
40 39 19 100 88 85 62 48
40 33 22 98 89 87 63 50
41 37 22 97 87 85 62 50
40 42 19 91 83 82 57 48
39 45 18 86 78 79 55 47
38 39 20 82 77 78 56 49
38 31 21 79 75 77 56 49
36 30 19 74 69 73 51 45
35 30 21 72 68 73 52 45
30 30 22 70 65 71 51 45
23 24 24 69 64 69 50 46
22 29 20 61 57 62 43 39
27 31 19 55 54 58 40 37
25 24 18 51 51 57 37 34
25 24 17 46 47 54 35 31
28 29 13 39 42 48 31 27
22 28 10 33 37 44 28 25
22 23 11 29 34 42 26 23
23 19 10 24 31 38 22 20
19 17 9 22 30 38 22 21
12 20 12 21 29 36 22 20
10 16 14 19 28 35 21 19
1 4 22 24 33 41 28 26
-5 1 24 23 33 42 28 27
1 11 15 13 25 34 21 20
0 14 11 6 19 28 17 16
-5 13 11 3 18 28 17 13
-3 10 9 -1 14 24 13 13
1 10 8 -3 11 22 10 11
2 8 6 -5 9 20 8 9
2 4 8 -4 8 19 8 8
-2 -5 11 -4 10 20 10 11
-6 -13 16 0 14 25 15 16
-2 -6 14 -4 11 23 11 11
-3 7 6 -11 4 16 5 5
-7 3 8 -11 6 17 5 7
-7 -7 11 -12 7 18 8 9
-7 -10 11 -13 5 17 7 8
-5 -6 8 -14 2 14 4 8
-6 -10 9 -15 2 14 5 8
-4 -12 10 -13 4 15 5 7
-2 -5 9 -14 3 12 4 5
-2 -2 7 -16 0 10 3 5
0 -3 8 -17 0 9 1 4
4 -1 5 -20 -2 9 0 3
6 2 1 -25 -6 4 -5 -1
7 -7 3 -23 -5 6 -2 1
6 -11 4 -22 -4 6 -2 2
-3 0 4 -21 -4 6 -1 2
-10 -3 6 -18 0 9 1 3
-13 -13 11 -13 3 13 5 7
-9 -4 7 -16 0 6 0 4
-2 3 4 -20 -2 4 -2 0
-2 7 4 -21 -3 3 -4 -1
-2 7 5 -21 -2 4 -2 -1
3 -6 7 -19 0 6 0 1
5 -11 7 -17 1 7 2 1
-6 -9 9 -14 4 9 3 4
-20 -4 10 -12 5 12 5 6
-13 4 9 -13 4 9 3 4
-5 1 8 -12 3 9 2 2
-7 -3 9 -11 4 8 2 3
-9 -5 12 -9 6 11 5 6
-7 2 10 -11 5 8 2 2
0 5 7 -13 3 6 1 1
4 3 8 -14 3 8 2 2
-2 2 9 -13 4 9 4 2
-8 -4 13 -8 9 12 7 8
-4 -6 14 -6 10 14 10 10
-5 -5 14 -5 10 13 9 9
-6 3 13 -6 9 12 8 9
-10 0 13 -7 9 11 7 9
-4 1 12 -9 8 10 6 6
-2 1 14 -8 8 11 6 6
0 2 12 -9 7 10 6 5
2 9 12 -10 7 9 5 5
1 5 11 -10 8 10 6 6
-3 1 13 -8 9 11 7 7
2 7 10 -9 7 10 5 6
0 7 10 -9 7 10 4 5
-2 9 10 -8 6 9 4 4
0 12 8 -10 5 6 2 3
7 11 4 -13 2 4 -1 -1
15 3 6 -12 5 7 1 2
6 -8 12 -6 10 14 8 11
-6 -13 15 -3 14 15 12 14
-10 -5 13 -6 11 14 10 11
-9 8 11 -6 10 12 8 9
-5 13 8 -6 7 10 7 7
-3 13 5 -7 4 7 2 3
-3 7 5 -5 4 6 2 2
-3 11 6 -4 5 6 3 5
-8 10 8 -2 7 9 6 7
-8 6 11 2 11 13 10 8
-4 7 10 1 8 11 7 8
-2 10 9 -1 8 9 7 7
-1 10 9 -1 8 10 8 7
0 4 11 3 10 13 11 10
1 3 13 5 13 15 14 13
7 11 14 5 14 14 12 13
11 19 10 3 11 10 8 8
2 22 14 5 13 12 11 11
-7 27 20 9 19 18 16 15
-6 25 20 9 18 19 16 16
-2 24 18 8 17 17 15 16
1 22 19 7 16 17 16 15
2 20 19 7 16 18 16 15
2 27 19 7 16 16 14 14
2 31 16 5 13 14 12 10
4 29 16 6 14 13 12 12
6 28 17 7 15 14 14 15
10 22 17 8 17 15 16 18
13 23 17 10 17 19 20 19
14 34 17 9 17 18 19 19
15 36 17 10 19 20 22 23
8 37 18 9 21 23 24 27
-2 45 16 7 20 23 24 27
0 48 12 2 16 17 19 23
6 36 13 3 15 17 21 25
5 23 14 1 13 16 20 22
7 25 11 0 10 12 17 20
9 36 9 -1 9 10 16 20
4 39 10 0 10 11 17 21
8 33 10 -1 10 13 17 22
11 29 7 -4 8 10 14 21
8 35 4 -6 6 9 13 19
4 39 -1 -9 2 5 9 14
2 36 -4 -11 -1 2 7 12
9 37 -5 -12 -2 2 7 11
13 26 -3 -10 1 5 8 11
11 5 1 -4 6 9 12 16
9 -1 4 1 11 11 15 18
2 6 4 2 9 12 14 16
-4 9 5 2 7 11 13 16
-2 11 2 -4 -2 6 9 12
-1 9 -3 -9 -8 1 4 7
0 2 -5 -11 -11 -3 2 6
7 -1 -7 -14 -14 -6 -2 3
-1 -3 -10 -16 -17 -8 -4 0
-14 3 -8 -13 -15 -7 -5 0
-14 -1 -5 -11 -12 -6 -1 3
-12 -13 -2 -9 -12 -4 0 5
-11 -15 -1 -8 -10 -2 1 7
-9 -8 -5 -14 -14 -7 -2 2
-7 -4 -6 -16 -17 -9 -5 1
-4 -4 -9 -19 -19 -12 -7 -4
-5 2 -10 -20 -21 -14 -9 -6
-3 1 -9 -18 -20 -13 -9 -4
-2 -17 -5 -13 -16 -8 -5 -1
-1 -17 -6 -12 -15 -9 -4 0
-6 -6 -5 -12 -14 -9 -4 0
-6 0 -9 -16 -17 -13 -7 -4
-7 -3 -9 -15 -15 -10 -5 -2
-8 -2 -9 -14 -14 -11 -4 -1
-13 -10 -7 -14 -14 -10 -5 -1
-17 -15 -6 -13 -13 -8 -2 3
-14 -14 -6 -12 -14 -7 -3 3
-7 -6 -9 -15 -16 -11 -6 -1
-7 -13 -7 -12 -15 -8 -3 2
-12 -16 -6 -9 -12 -7 -1 3
-11 -8 -7 -11 -14 -9 -4 0
-10 0 -10 -15 -18 -14 -8 -4
-10 -4 -12 -16 -18 -14 -9 -5
-11 -21 -6 -10 -12 -8 -4 0
-14 -18 -6 -13 -13 -10 -5 -1
-11 -9 -9 -17 -17 -14 -8 -4
-8 -9 -9 -15 -18 -13 -7 -4
-10 -5 -10 -16 -18 -14 -8 -4
-10 -5 -8 -13 -16 -12 -6 -3
-15 -12 -3 -4 -10 -6 0 2
-13 -18 2 7 -2 0 5 5
-5 -7 7 18 7 4 7 7
-2 6 15 35 18 14 12 9
1 17 20 50 31 23 15 8
7 14 31 71 49 36 21 11
16 8 42 92 67 52 30 16
23 19 51 112 89 72 47 27
28 37 54 119 110 99 71 44
36 46 53 112 126 122 91 63
48 56 52 99 139 143 113 82
62 66 42 70 140 157 130 97
68 75 35 27 131 164 147 113
67 97 26 -19 117 168 160 129
61 115 9 -61 104 168 169 140
48 123 -19 -93 94 166 171 145
30 95 -38 -100 96 163 158 133
30 58 -61 -114 79 134 122 100
31 28 -83 -151 31 84 80 69
16 11 -101 -202 -35 18 34 40
-4 -6 -115 -268 -126 -67 -21 7
-29 -49 -131 -320 -209 -145 -77 -28
-52 -88 -143 -339 -254 -193 -112 -54
-63 -99 -149 -337 -267 -209 -128 -68
-62 -105 -153 -320 -260 -208 -135 -81
-63 -114 -150 -297 -244 -201 -136 -86
-63 -115 -151 -278 -229 -191 -130 -86
-61 -102 -153 -263 -216 -181 -122 -81
-57 -87 -147 -244 -201 -166 -110 -73
-50 -78 -134 -216 -180 -150 -97 -62
-44 -70 -111 -173 -147 -122 -76 -47
-36 -55 -82 -129 -112 -93 -57 -35
-28 -38 -55 -88 -81 -69 -41 -25
-19 -26 -37 -57 -57 -50 -29 -17
-16 -22 -23 -37 -39 -36 -20 -12
-13 -15 -17 -26 -31 -30 -16 -11
-8 -5 -14 -18 -24 -25 -15 -10
-8 -5 -9 -13 -18 -18 -9 -6
-7 -10 -8 -10 -17 -18 -9 -7
-9 -9 -8 -8 -15 -17 -9 -7
-15 -16 -4 0 -11 -13 -3 -3
-14 -27 -1 3 -7 -10 -3 0
-10 -31 2 8 -6 -9 -2 -1
-8 -26 3 10 -3 -9 -1 -1
-4 -15 1 9 -3 -8 -1 -1
-3 -9 0 9 -3 -10 -3 -1
-6 -10 0 10 -1 -7 -1 -1
-7 -10 -1 9 -1 -7 -2 -1
-3 -3 -4 7 -4 -9 -4 -3
-3 -5 -3 8 -4 -9 -4 -3
-2 -4 -2 11 -1 -6 -2 -1
-4 -3 -2 12 -2 -7 -3 -3
-1 -3 -3 15 -2 -8 -4 -2
4 -4 -1 17 1 -7 -4 -2
-5 -11 5 22 7 -1 3 4
-18 -11 7 24 9 1 5 5
-14 -4 3 20 7 -3 2 2
-1 -4 1 18 7 -3 0 1
8 -9 2 18 6 -2 1 1
7 -11 3 20 6 -2 1 4
1 -11 7 26 11 3 7 7
-10 -4 8 28 11 3 8 7
-12 5 7 27 8 1 4 3
-10 5 7 30 10 1 4 5
-9 6 6 29 11 0 4 5
-7 -1 7 27 10 0 4 5
-9 -5 10 30 14 4 7 8
-12 -9 11 33 18 7 10 9
-4 -7 14 36 20 11 14 12
-1 -9 13 36 19 10 13 11
-2 -6 8 34 17 8 9 8
0 -5 9 38 19 11 11 9
0 2 9 39 17 10 10 7
1 9 6 37 17 8 6 5
1 -1 8 39 20 12 9 6
0 -8 12 44 24 15 11 9
3 0 12 45 25 17 13 10
-3 4 12 46 28 20 16 14
-2 5 11 47 28 21 17 15
4 2 11 50 28 22 17 14
1 -2 13 55 31 25 20 16
0 3 13 58 32 26 21 16
3 4 15 62 35 27 21 14
4 5 12 62 33 24 17 10
1 10 11 63 35 25 17 10
2 3 14 69 41 28 21 14
4 -4 17 73 46 32 26 16
7 1 17 75 49 36 29 19
6 9 15 75 48 35 27 17
8 3 19 83 53 41 33 22
13 1 19 85 55 43 35 23
16 -1 15 87 53 41 33 19
16 9 15 89 54 41 31 16
19 18 12 90 54 39 28 12
19 10 18 98 62 48 37 20
11 11 23 106 70 54 43 25
9 7 26 112 76 60 47 29
13 7 27 116 81 66 51 33
19 20 21 112 78 63 47 29
22 24 18 113 76 61 47 28
21 27 19 118 82 66 50 30
20 28 20 122 82 68 50 30
26 30 20 124 83 67 50 29
33 28 20 127 87 70 52 31
32 19 22 132 93 74 57 36
38 16 24 135 94 77 59 35
41 25 23 134 96 78 59 36
33 32 24 137 101 83 64 43
32 35 24 137 101 85 66 44
35 30 23 138 100 85 66 44
34 32 23 139 101 86 68 47
29 29 24 142 103 89 71 50
29 28 27 144 104 89 73 50
34 32 25 143 105 89 72 49
37 35 24 139 102 88 70 48
36 42 23 135 99 84 68 46
38 43 23 134 98 85 68 47
39 47 19 130 94 83 66 46
40 44 18 127 92 81 66 47
43 43 15 122 86 78 62 43
42 43 15 122 85 76 61 44
43 43 14 120 82 74 60 43
42 32 18 122 84 77 63 46
30 24 25 126 89 81 69 51
32 27 25 122 86 79 66 50
38 35 21 116 81 74 62 46
35 39 19 111 77 71 60 45
29 38 21 109 78 73 62 46
27 38 19 103 73 69 58 44
34 33 19 98 69 65 55 43
34 13 21 95 68 66 56 44
29 9 22 90 65 63 55 42
20 25 21 85 60 58 50 38
16 32 21 80 56 55 47 36
19 29 21 74 52 51 44 33
16 29 20 68 48 46 41 30
14 31 18 61 43 42 37 28
17 23 20 58 43 42 37 30
21 10 21 55 41 42 38 30
21 9 19 51 37 37 35 27
9 9 21 51 38 37 35 29
1 9 22 49 36 36 34 27
1 12 20 45 30 30 30 23
4 15 17 38 26 26 25 18
2 18 14 31 20 20 20 14
0 15 15 30 19 19 19 13
-1 8 15 28 18 20 20 13
-2 4 12 23 15 16 17 11
-1 6 12 18 12 15 16 9
1 9 11 16 9 13 13 6
3 7 9 15 8 10 11 5
2 4 9 15 6 10 12 7
1 -4 10 15 7 9 12 5
4 -7 9 12 6 8 10 5
3 -6 11 14 8 10 12 8
-3 -4 10 12 6 7 10 5
-7 3 10 9 5 8 11 4
-11 -1 10 7 5 7 10 5
-11 -6 9 4 3 7 10 4
-5 -2 5 1 -2 2 6 -1
-9 1 6 1 -2 2 4 -1
-7 5 4 -1 -6 -1 2 -4
-11 2 5 0 -6 -1 3 -5
-12 -1 6 2 -3 0 4 -3
-6 -8 6 0 -5 0 5 -2
-3 -21 5 0 -5 -1 4 -3
-1 -22 7 1 -3 2 7 0
-4 -16 9 1 -2 3 8 2
-15 -15 11 1 -1 5 10 5
-12 -11 9 -1 -4 3 8 0
-17 -7 7 0 -3 1 7 0
-19 -4 9 2 -4 3 7 0
-9 -8 10 2 -3 2 6 -1
-5 -12 9 2 -2 0 5 -2
-10 -4 8 1 -4 -1 4 -3
-12 2 8 0 -5 -2 2 -4
-7 -8 10 1 -2 2 6 -1
-7 -15 13 4 1 6 10 3
-10 -22 14 5 2 7 11 5
-9 -9 7 -3 -4 0 3 -3
-9 -8 8 -2 -5 1 4 -3
-12 -3 9 0 -3 2 3 -3
-10 4 10 3 -2 3 4 -3
-7 -3 10 3 -1 3 5 -3
2 -3 9 2 -4 2 3 -5
10 1 5 -2 -6 -2 0 -8
6 -7 5 -3 -6 -2 1 -7
-13 -14 14 4 3 9 11 2
-22 -12 20 12 10 15 18 9
-18 -6 14 6 5 10 12 3
-11 0 11 4 0 7 11 0
-9 -2 11 5 1 7 11 0
-5 -3 9 4 -2 5 6 -2
-1 0 9 4 -2 4 6 -3
-4 0 10 6 0 6 10 0
-5 6 11 7 3 7 11 3
-2 14 7 3 -1 5 9 1
-6 4 10 5 3 9 11 3
-9 3 12 5 3 9 13 4
-7 0 10 1 0 7 10 1
-2 0 9 2 0 7 10 1
-7 2 9 4 2 8 10 2
-13 1 9 3 -1 6 9 0
-7 4 8 3 0 5 9 -2
-4 17 5 1 -3 4 7 -2
-7 12 5 1 -3 3 7 -1
-2 0 9 3 2 9 12 4
2 -9 11 5 5 12 15 7
1 -8 11 4 3 12 16 7
-4 -8 14 6 7 14 17 8
-7 -2 12 3 3 10 15 5
-3 7 7 -1 -2 5 9 1
2 10 4 -2 -5 1 7 -2
5 9 1 -5 -6 -1 3 -5
-3 -4 8 2 0 7 11 2
-10 -12 14 7 7 11 18 8
-5 -6 12 3 4 10 15 6
4 -1 7 -3 1 6 12 4
10 7 0 -9 -6 0 6 -3
12 11 0 -10 -6 -1 5 -3
-4 11 8 -1 2 8 13 6
-6 9 8 -2 1 7 12 4
-4 9 7 -3 -2 4 9 2
-5 20 5 -3 -2 3 7 -1
0 17 7 -1 1 3 8 0
-3 8 14 5 6 10 16 7
-8 8 16 6 8 11 18 10
-4 10 17 6 10 13 19 11
-1 20 16 4 8 13 18 11
-2 21 17 4 9 11 18 11
2 26 17 5 8 13 20 11
1 20 19 6 11 13 20 11
1 23 17 6 8 11 17 10
0 23 17 5 7 10 15 8
1 28 16 5 6 8 13 5
4 32 15 3 6 8 13 7
6 27 14 1 5 7 13 7
8 24 14 1 7 10 16 9
9 24 18 3 9 13 19 13
8 21 19 7 12 17 22 16
4 31 16 5 12 15 20 17
2 45 13 2 8 13 17 15
5 43 12 2 7 10 16 14
11 32 14 3 9 13 19 17
18 35 9 -2 4 8 13 11
14 35 9 -4 3 8 14 12
4 36 13 -1 7 12 18 18
-2 45 11 -4 4 10 17 17
2 44 10 -6 2 8 17 15
5 42 7 -7 1 7 16 16
8 37 5 -8 0 5 14 13
17 30 3 -9 -4 3 12 11
20 21 4 -7 -2 4 11 11
15 19 7 -4 2 6 13 14
9 22 9 -2 3 7 13 15
4 18 8 -3 3 6 13 13
2 23 5 -6 -1 3 9 10
2 24 3 -8 -1 1 7 7
3 24 0 -10 -3 -1 4 5
7 26 -1 -10 -6 -3 3 2
5 12 0 -11 -5 -3 3 3
-2 6 1 -10 -7 -3 3 3
-2 5 1 -10 -7 -5 1 2
1 0 0 -11 -8 -5 1 1
0 -6 1 -13 -9 -6 1 1
-6 -4 3 -11 -6 -3 2 3
-10 0 1 -11 -8 -5 0 1
-5 3 -2 -17 -11 -8 -3 -3
-1 1 -4 -19 -15 -13 -7 -6
0 -1 -5 -19 -16 -12 -6 -7
0 0 -3 -19 -15 -13 -6 -6
1 -2 -4 -19 -16 -13 -8 -8
5 5 -8 -21 -19 -17 -11 -11
6 3 -8 -20 -18 -15 -10 -8
1 -1 -6 -20 -16 -15 -8 -9
-6 -2 -3 -16 -13 -11 -5 -4
-10 -7 -1 -14 -11 -10 -3 -3
-6 -13 -1 -16 -11 -9 -3 -3
-5 -13 1 -14 -9 -9 -2 -2
-4 -8 -1 -16 -12 -10 -4 -5
-4 0 -4 -21 -16 -15 -10 -9
-2 6 -7 -22 -19 -17 -12 -12
1 -2 -7 -21 -20 -19 -13 -12
0 -6 -4 -17 -15 -14 -9 -8
-7 -7 0 -13 -12 -11 -5 -6
-10 -2 0 -12 -10 -10 -3 -3
-1 -2 1 -12 -10 -10 -4 -4
3 -5 0 -15 -10 -11 -5 -5
2 -7 -1 -16 -12 -14 -6 -8
0 -7 -3 -17 -15 -14 -7 -8
-8 -5 -3 -16 -14 -15 -9 -9
-11 -5 1 -15 -12 -13 -7 -7
-6 -4 -2 -16 -16 -16 -9 -8
0 -2 -3 -18 -16 -17 -11 -10
4 0 -2 -18 -17 -19 -14 -12
0 -5 2 -13 -13 -13 -10 -10
-2 -1 5 -6 -7 -10 -8 -7
1 9 8 4 1 -5 -4 -5
3 10 19 24 16 7 4 1
9 12 29 43 30 20 12 5
15 11 38 63 46 30 15 5
20 13 49 82 65 44 21 6
27 11 58 105 84 62 33 13
37 24 63 118 104 84 52 28
49 41 62 115 123 110 78 47
51 51 66 107 141 134 102 70
55 74 60 88 149 154 121 86
65 98 46 41 135 158 133 97
70 112 38 -5 121 160 146 114
68 120 29 -46 109 162 158 129
62 120 9 -79 99 163 167 142
50 108 -13 -95 97 161 160 135
51 70 -34 -100 90 142 128 104
49 52 -62 -135 47 94 84 68
32 28 -83 -182 -12 34 39 38
4 5 -93 -242 -90 -40 -9 11
-27 -21 -105 -303 -177 -121 -64 -21
-41 -55 -127 -338 -237 -183 -110 -54
-44 -75 -140 -348 -265 -215 -138 -79
-37 -93 -146 -335 -264 -219 -147 -90
-38 -103 -142 -310 -248 -209 -148 -96
-53 -113 -133 -281 -226 -192 -137 -92
-55 -100 -132 -262 -213 -183 -129 -87
-53 -84 -129 -246 -198 -170 -119 -80
-47 -74 -119 -222 -181 -155 -107 -72
-35 -53 -100 -188 -153 -134 -92 -61
-24 -28 -80 -151 -124 -110 -77 -53
-15 -19 -55 -111 -92 -85 -61 -43
-8 -12 -34 -75 -66 -66 -49 -36
-7 -14 -15 -49 -44 -48 -37 -27
-6 -17 -1 -30 -28 -33 -25 -17
-2 -16 7 -17 -17 -25 -19 -12
0 -12 8 -12 -14 -22 -20 -14
5 -6 6 -11 -15 -23 -21 -16
12 2 8 -8 -13 -23 -22 -16
7 2 10 -4 -9 -19 -18 -13
-1 -2 14 0 -5 -14 -16 -10
-2 -6 14 2 -3 -15 -16 -10
2 -4 15 6 -2 -15 -15 -10
5 -1 16 8 1 -14 -16 -10
8 3 12 6 -3 -17 -19 -14
13 4 11 5 -5 -18 -21 -15
15 3 12 11 0 -16 -19 -12
5 -3 17 18 5 -10 -12 -6
0 -4 21 25 9 -6 -8 -3
2 7 17 23 7 -10 -13 -7
4 8 15 23 5 -10 -15 -9
6 5 16 26 7 -9 -13 -8
6 5 17 27 6 -11 -15 -9
7 3 17 29 6 -12 -15 -9
9 -1 18 29 6 -11 -14 -9
10 1 19 31 8 -9 -13 -7
11 11 19 31 9 -10 -14 -8
11 9 17 29 7 -10 -16 -10
13 2 19 33 11 -7 -12 -7
11 6 20 34 11 -7 -12 -7
8 6 19 35 12 -6 -13 -6
18 6 18 36 12 -7 -13 -7
21 10 19 37 11 -8 -14 -7
11 12 22 41 15 -5 -11 -4
15 11 23 41 16 -4 -11 -5
16 14 20 40 13 -6 -13 -7
14 16 21 42 16 -5 -12 -6
4 13 25 45 20 2 -7 0
-4 6 29 49 23 5 -3 3
4 4 28 49 22 3 -6 2
8 4 25 49 22 3 -6 1
8 1 27 52 24 4 -5 1
13 7 24 52 22 2 -9 -3
19 12 26 54 23 3 -9 -3
18 13 26 57 26 6 -7 0
11 12 30 61 30 9 -3 2
7 11 32 62 33 11 -2 3
10 17 31 62 33 13 -1 4
14 20 30 62 35 13 0 4
14 11 31 64 36 14 0 5
15 3 33 68 40 20 4 8
18 5 32 71 42 20 4 7
19 17 30 70 39 16 1 3
19 20 32 71 38 15 -1 0
22 23 29 73 39 16 -2 0
26 25 30 75 40 16 -1 0
25 24 33 82 48 21 3 2
26 29 33 81 48 23 3 3
24 30 33 85 51 25 5 5
16 17 38 93 59 31 13 12
19 11 39 99 62 34 16 14
26 29 37 98 61 33 13 10
27 35 37 102 63 33 14 10
28 32 38 106 67 37 16 12
31 24 40 113 72 41 19 15
33 10 45 120 80 48 25 20
33 13 46 124 83 50 27 20
34 30 40 121 81 49 25 17
32 39 41 124 84 51 27 19
33 44 41 126 86 52 30 21
35 44 40 129 88 54 31 21
37 41 41 132 91 58 32 22
38 41 41 138 94 60 35 24
40 35 44 142 97 64 38 26
41 34 44 146 102 69 40 29
47 39 44 146 101 68 40 29
59 51 40 143 98 64 37 25
67 54 34 137 94 61 33 23
70 51 34 138 95 63 35 24
58 49 40 144 101 70 42 32
43 55 41 147 104 75 44 34
36 56 43 147 105 78 46 35
40 45 45 150 105 79 48 37
46 41 45 150 105 79 48 37
48 49 40 145 100 74 44 35
52 54 38 141 96 71 40 32
54 48 39 142 100 73 43 35
53 50 42 141 100 74 45 37
51 53 39 138 97 73 43 36
51 50 41 137 96 71 42 37
47 50 39 134 94 69 41 36
46 48 41 133 91 68 40 35
49 45 40 131 88 64 38 34
50 43 40 128 85 62 34 32
51 37 38 123 82 58 32 31
50 43 37 121 79 57 32 30
40 61 35 117 75 54 29 28
39 64 32 110 71 48 25 25
39 57 34 107 69 47 24 25
38 45 37 108 68 48 24 27
36 32 43 109 72 51 28 30
34 21 47 109 72 51 30 31
34 25 42 102 64 44 22 25
35 29 40 96 58 38 17 20
35 31 38 90 52 32 13 16
36 34 36 84 47 29 9 13
27 36 37 81 48 29 10 14
16 28 41 82 48 29 11 16
19 25 40 77 43 26 9 14
22 21 39 73 40 24 5 12
18 20 41 71 39 24 6 12
16 21 39 67 36 20 4 9
15 23 36 60 30 14 -3 4
14 25 34 58 26 11 -6 1
12 22 35 55 24 10 -8 1
10 15 34 51 21 6 -9 -1
12 13 33 48 19 6 -11 -2
14 10 34 46 18 5 -10 -2
15 8 31 42 15 1 -11 -5
18 13 29 38 11 -2 -16 -8
13 15 29 37 10 -2 -15 -7
3 14 33 38 14 0 -13 -3
1 17 31 37 11 -2 -14 -6
2 20 28 32 8 -6 -18 -9
-1 17 32 34 9 -4 -16 -6
-2 15 33 32 9 -4 -16 -8
-1 11 34 28 8 -4 -16 -7
4 3 33 23 8 -3 -16 -8
6 -7 33 23 7 -4 -16 -8
6 -3 32 20 7 -5 -17 -9
5 3 33 19 5 -5 -16 -8
4 5 30 14 2 -8 -20 -10
7 6 29 12 -1 -12 -23 -15
9 7 28 11 -4 -13 -25 -17
7 5 27 10 -5 -14 -25 -16
4 3 31 11 -3 -13 -23 -14
-1 5 30 12 -2 -11 -23 -13
3 -1 29 9 -2 -11 -24 -15
10 0 27 7 -5 -14 -25 -17
11 11 22 1 -11 -20 -30 -22
-3 10 26 7 -6 -14 -26 -15
-15 -2 34 14 4 -6 -19 -8
-11 -4 34 16 3 -8 -18 -10
-5 3 31 14 0 -9 -21 -13
-5 8 29 12 -2 -12 -24 -15
-2 12 28 11 -2 -13 -24 -16
6 15 26 8 -5 -15 -26 -17
13 8 23 4 -6 -16 -27 -18
13 4 26 4 -4 -15 -24 -17
0 1 31 7 3 -9 -18 -10
-4 -5 33 9 5 -6 -16 -8
0 -9 35 10 6 -5 -16 -7
-2 -8 34 11 7 -6 -15 -7
-7 -4 34 12 8 -4 -14 -6
-9 -2 35 13 9 -4 -13 -7
-7 5 31 9 5 -8 -17 -10
-3 11 27 7 3 -10 -19 -11
0 11 26 5 3 -9 -21 -11
0 6 28 8 5 -8 -17 -9
2 10 25 5 3 -11 -19 -12
2 16 22 4 2 -12 -22 -13
2 15 22 4 1 -13 -22 -14
7 15 23 7 2 -11 -20 -12
7 21 20 5 1 -13 -22 -15
5 18 21 5 1 -12 -21 -14
5 12 23 6 3 -11 -20 -13
2 3 27 12 8 -4 -14 -7
2 -14 33 15 13 2 -7 0
-4 -10 33 15 13 2 -7 0
-1 2 29 10 9 -2 -11 -4
0 9 24 7 7 -5 -14 -6
0 15 23 6 5 -7 -16 -11
4 12 23 7 5 -6 -15 -8
2 11 21 7 3 -7 -18 -10
4 9 21 6 3 -7 -16 -10
8 5 22 7 3 -8 -18 -9
3 0 24 7 5 -5 -18 -8
-5 4 25 9 8 -3 -15 -4
-4 8 24 6 7 -4 -16 -7
5 12 18 1 0 -10 -22 -11
9 25 15 -2 0 -11 -22 -12
2 15 18 2 2 -8 -19 -9
-4 5 21 5 5 -5 -16 -6
0 -10 24 8 7 -3 -13 -4
7 -11 22 6 6 -3 -13 -3
7 -4 22 6 7 -4 -14 -4
-3 5 21 6 6 -3 -10 -3
-5 6 22 6 6 -2 -5 -3
2 0 21 5 6 -2 -3 -2
3 1 21 5 4 -2 -3 -3
-1 5 20 3 4 -3 -4 -4
-3 14 14 0 -1 -8 -8 -7
-4 12 14 -1 -3 -9 -7 -8
-1 3 17 3 2 -5 -3 -5
-1 2 18 3 3 -4 -2 -5
-4 1 16 3 2 -6 -2 -4
-2 4 15 0 0 -7 -5 -5
-3 7 12 -3 -3 -9 -6 -7
-1 2 12 -4 -2 -9 -4 -6
1 2 13 -4 -3 -9 -5 -6
4 3 11 -5 -4 -9 -5 -6
9 12 7 -9 -7 -14 -11 -11
14 13 4 -11 -10 -16 -14 -14
14 15 3 -13 -10 -17 -15 -15
7 13 8 -6 -5 -11 -8 -9
1 13 10 -4 -2 -9 -6 -7
-8 16 11 -1 1 -6 -3 -5
-8 10 11 2 5 -3 -1 -1
-6 4 13 6 7 -2 2 2
0 7 14 4 7 0 0 1
8 13 11 3 5 -3 -1 0
7 13 13 6 7 -2 1 3
6 18 15 7 8 1 3 5
-2 22 15 8 6 1 3 4
0 30 13 5 6 -2 1 2
8 35 11 2 2 -5 -2 -2
6 27 11 2 3 -5 -3 -2
1 25 15 7 7 0 4 3
0 29 12 4 5 0 2 2
-1 22 15 6 8 2 5 6
4 11 15 9 11 6 10 10
2 7 19 13 16 12 15 15
-2 27 17 14 14 11 15 17
0 33 15 11 13 10 15 16
2 29 15 11 13 11 14 15
3 37 11 6 9 6 12 13
5 42 6 0 3 0 6 8
5 36 5 -2 1 1 6 9
6 25 8 1 3 3 8 11
7 25 8 -2 2 1 7 12
9 32 3 -3 0 1 6 10
11 28 2 -3 1 1 6 10
11 27 -2 -6 -3 -4 2 6
7 28 -4 -7 -5 -5 1 5
6 26 -6 -9 -7 -6 -1 2
8 21 -4 -6 -6 -6 -1 4
10 15 -3 -6 -4 -5 1 4
7 11 -3 -4 -3 -3 2 6
5 15 -4 -6 -5 -5 1 4
8 21 -9 -11 -8 -9 -4 -2
13 20 -8 -10 -10 -9 -6 -3
14 11 -6 -9 -8 -9 -5 -4
14 2 -7 -11 -10 -11 -8 -6
13 -4 -6 -12 -11 -11 -8 -4
-6 -7 -1 -5 -6 -6 -1 2
-18 -8 3 -3 -4 -5 0 2
-15 -6 -1 -8 -6 -8 -4 -2
-12 0 -3 -11 -9 -10 -7 -4
-8 -4 -5 -12 -9 -11 -7 -4
-7 -10 -4 -11 -9 -9 -6 -5
-5 -7 -7 -16 -13 -14 -12 -8
-3 -5 -8 -16 -14 -15 -10 -9
-5 -4 -9 -17 -16 -16 -12 -10
-10 -7 -8 -16 -14 -15 -10 -10
-7 -6 -9 -16 -16 -16 -12 -10
-5 2 -11 -19 -17 -18 -14 -13
-5 -6 -9 -17 -17 -17 -12 -12
-4 -16 -5 -14 -15 -13 -9 -7
-4 -24 -3 -12 -13 -12 -5 -4
-8 -25 -1 -11 -11 -10 -4 -3
-9 -15 -5 -14 -14 -12 -6 -4
-8 -11 -6 -15 -17 -15 -9 -9
-5 -8 -8 -17 -17 -17 -11 -10
-3 0 -10 -19 -20 -19 -14 -12
-4 0 -10 -19 -22 -20 -15 -13
-1 -14 -4 -14 -16 -15 -8 -8
-1 -26 -1 -11 -12 -12 -6 -4
-11 -23 2 -8 -10 -8 -2 -1
-18 -17 2 -8 -9 -7 -2 -1
-14 -15 -1 -12 -11 -11 -4 -4
-8 -15 -1 -12 -12 -10 -4 -4
-8 -14 -2 -13 -14 -11 -5 -7
-7 -12 -6 -16 -17 -14 -9 -10
-2 -9 -7 -18 -17 -16 -11 -10
3 -13 -7 -19 -18 -16 -12 -13
5 -19 -5 -17 -16 -15 -9 -11
1 -20 -3 -15 -14 -14 -8 -8
5 -17 -6 -16 -16 -15 -13 -11
3 -8 -2 -8 -10 -10 -6 -7
-4 -2 6 6 2 1 3 1
-5 5 12 21 11 8 5 2
-5 10 24 42 27 21 16 7
1 13 31 61 43 32 20 10
11 12 44 82 60 48 28 12
18 10 55 105 83 67 42 22
27 14 60 118 106 91 63 40
37 28 61 116 124 116 87 59
48 46 56 103 133 132 102 72
61 73 47 84 137 145 118 85
65 90 38 46 131 154 132 99
64 111 30 2 118 157 145 114
63 127 22 -38 106 161 159 129
57 126 4 -70 98 163 167 141
49 102 -18 -85 95 164 165 140
48 58 -36 -89 93 150 139 112
42 26 -57 -115 57 108 99 81
28 11 -79 -164 -3 48 51 49
11 2 -91 -223 -77 -24 5 20
-19 -22 -107 -288 -167 -107 -51 -15
-44 -58 -132 -328 -229 -170 -99 -49
-54 -76 -147 -344 -260 -203 -127 -72
-54 -90 -155 -334 -260 -208 -136 -84
-55 -101 -151 -309 -247 -200 -135 -88
-62 -113 -146 -281 -226 -185 -127 -85
-59 -109 -144 -260 -210 -169 -117 -78
-52 -97 -140 -242 -193 -156 -105 -70
-47 -82 -132 -221 -180 -145 -96 -63
-35 -61 -117 -191 -155 -125 -83 -55
-23 -44 -92 -149 -122 -93 -65 -43
-15 -30 -69 -113 -94 -69 -51 -36
-8 -23 -47 -77 -66 -47 -37 -26
1 -22 -32 -52 -48 -32 -28 -21
9 -11 -26 -41 -38 -26 -24 -22
12 -7 -21 -30 -30 -18 -20 -17
-3 -7 -9 -16 -16 -7 -9 -6
-17 -7 1 -3 -4 5 0 1
-15 -7 2 1 -3 7 3 3
-7 -4 -4 -5 -8 0 -4 -4
-2 2 -5 -4 -9 0 -6 -5
-2 3 -4 -2 -9 0 -6 -6
4 1 -5 1 -8 0 -6 -6
9 -7 -2 4 -6 2 -5 -3
8 -11 0 8 -3 5 -4 -4
-3 2 3 12 0 6 -1 -3
-4 9 1 11 1 7 -1 -3
2 -3 3 13 4 10 2 -1
4 -15 9 19 8 15 6 3
-3 -13 6 19 8 15 6 2
-5 -10 8 21 10 17 8 5
1 -9 10 25 12 19 9 7
3 -11 8 25 11 17 6 3
6 -6 6 23 7 13 3 1
11 6 2 19 5 9 -1 -2
13 8 2 20 5 8 -1 -4
17 15 -2 15 1 5 -4 -6
13 16 -2 13 2 5 -3 -5
7 9 4 19 7 12 3 0
-3 3 9 27 13 18 9 6
-5 2 10 28 15 19 9 6
2 -1 12 29 15 19 8 6
4 -2 12 31 14 19 8 7
6 5 10 31 13 18 6 5
7 10 10 30 14 17 7 4
4 7 12 33 15 18 7 4
7 9 11 33 17 20 9 7
7 14 10 31 17 19 8 7
5 12 9 29 15 19 6 4
6 10 10 32 17 21 9 7
10 16 6 30 14 19 5 3
15 15 6 32 15 18 5 2
22 7 9 37 19 21 8 5
20 5 11 42 22 26 10 7
14 3 14 45 25 27 12 8
10 6 16 48 27 30 16 11
6 14 14 47 28 31 15 10
6 15 16 49 32 33 19 12
6 16 16 49 30 33 17 12
10 22 11 45 26 30 14 8
16 21 13 49 28 32 15 9
17 16 13 53 30 32 16 8
13 18 17 57 35 36 18 11
10 22 18 61 37 39 21 15
14 15 21 65 43 42 24 17
20 11 24 69 48 47 28 21
23 14 24 69 49 47 30 20
22 19 23 70 50 49 31 20
26 19 23 73 51 50 31 20
24 5 25 78 55 52 33 22
26 6 24 79 55 54 34 22
28 22 22 79 55 51 31 20
26 30 21 82 55 52 32 19
29 31 22 86 59 55 34 21
32 31 23 91 63 57 37 22
32 30 25 97 67 61 40 26
35 30 26 99 71 65 44 29
36 29 25 101 74 68 44 28
35 29 27 105 78 70 48 30
39 33 26 108 81 72 48 31
34 37 25 113 84 76 51 34
34 41 25 116 87 77 53 34
34 51 22 117 84 77 51 32
38 50 23 121 86 78 52 34
46 45 23 125 90 81 55 36
48 44 24 126 93 83 58 37
47 36 26 130 97 88 63 44
47 40 25 130 98 89 65 44
50 47 23 128 97 88 65 43
51 53 22 129 98 89 66 44
53 50 20 128 96 88 64 43
59 47 19 128 96 86 63 42
64 52 15 127 92 83 60 38
61 63 14 125 90 80 59 39
50 71 14 125 91 82 61 41
47 69 16 124 92 82 62 41
56 60 15 122 91 81 62 42
55 55 17 123 92 85 65 46
49 51 19 125 94 86 67 48
49 45 22 124 93 88 69 51
50 50 20 121 90 85 66 48
49 46 20 120 89 83 65 48
49 42 21 121 90 83 65 50
52 44 20 117 87 80 63 48
54 45 19 112 83 77 60 44
55 52 16 107 78 72 54 40
54 51 17 105 75 71 54 40
47 31 24 108 80 77 59 46
44 33 24 106 79 75 59 45
39 50 19 96 69 67 50 38
42 58 16 91 63 60 44 33
42 53 15 87 59 57 41 31
40 60 13 82 54 52 37 27
38 51 18 84 56 54 39 29
34 38 23 83 57 55 40 31
34 30 25 82 57 54 41 32
34 23 24 77 52 52 37 31
40 27 18 67 44 43 30 23
34 27 21 63 44 44 31 23
21 26 24 62 43 44 33 27
15 26 25 61 42 42 31 26
19 32 23 56 37 37 26 20
23 30 20 50 31 32 22 16
25 27 19 46 28 28 18 12
25 20 21 45 28 27 17 12
18 18 21 44 28 25 17 12
11 21 20 40 24 24 15 9
10 16 19 37 23 24 14 9
9 21 17 34 21 24 12 8
5 23 18 32 20 22 13 8
2 15 19 31 18 22 11 8
6 16 18 28 16 18 9 6
10 30 13 23 10 12 4 0
10 27 13 22 9 12 3 1
12 12 18 24 13 14 6 3
10 -2 19 25 13 16 7 5
3 -2 21 27 15 17 10 7
2 1 21 24 15 17 9 5
3 2 20 22 13 15 7 4
5 9 15 18 8 10 3 1
3 12 13 15 4 7 1 -3
6 10 10 12 2 3 -3 -5
7 11 10 13 1 3 -4 -6
6 11 11 14 2 4 -2 -5
7 10 10 13 3 3 -5 -7
1 8 15 16 6 7 0 -3
-2 8 15 17 7 7 1 -1
1 14 12 13 4 6 -1 -3
2 18 10 11 2 3 -3 -5
4 13 7 8 -1 1 -5 -7
9 17 5 5 -5 -2 -9 -10
11 2 7 9 -1 0 -6 -9
10 -11 10 13 2 3 -3 -6
10 -5 12 15 4 5 -2 -4
1 2 13 16 6 5 -2 -4
-7 0 16 20 8 7 0 -1
-5 4 16 19 8 8 1 -1
-1 5 13 17 6 6 -1 -4
4 4 13 17 6 6 -3 -4
4 14 8 15 2 2 -6 -6
2 14 8 15 2 3 -5 -6
5 11 8 15 2 2 -6 -6
6 6 8 18 2 2 -6 -8
6 3 12 21 4 4 -4 -4
8 -2 13 22 7 6 -3 -2
3 2 12 21 6 5 -3 -4
-1 14 10 19 4 3 -4 -4
-1 11 10 20 5 4 -4 -5
2 8 11 20 6 4 -2 -4
4 7 13 21 6 6 -2 -2
5 -1 15 23 9 8 1 0
7 -6 17 25 11 10 3 2
4 0 17 27 11 9 2 3
-4 10 15 24 8 7 -1 -2
-1 16 12 22 6 4 -4 -4
1 14 11 21 6 4 -5 -5
2 15 10 19 5 3 -6 -6
1 22 10 18 5 4 -5 -4
-1 17 11 20 7 6 -4 -2
-2 7 14 21 8 9 0 0
-1 -1 15 23 10 11 2 3
3 -7 15 23 10 10 0 1
7 -7 16 26 10 10 2 2
3 1 16 24 9 9 0 2
1 7 11 20 5 5 -5 -2
3 10 12 20 5 4 -4 -3
5 12 10 19 4 4 -5 -3
4 17 9 16 3 4 -5 -3
-2 16 11 19 6 6 -3 -1
-7 9 12 19 7 7 -1 1
-7 -3 13 19 9 9 1 3
-4 -6 12 16 7 6 -3 0
-1 13 8 12 2 2 -7 -4
2 20 8 13 3 1 -7 -4
2 10 11 15 5 4 -4 -2
4 4 12 14 6 4 -3 -1
8 6 9 9 3 1 -7 -4
14 7 7 8 2 0 -7 -6
12 11 7 8 1 0 -7 -6
4 11 8 8 2 1 -4 -3
-3 9 10 12 5 5 -1 0
-6 8 11 14 5 4 -1 0
-5 11 8 12 1 2 -4 -2
-1 13 6 10 0 0 -6 -4
0 10 7 11 1 1 -7 -4
1 11 5 10 -2 -1 -7 -5
4 12 5 9 -1 -1 -7 -3
4 5 5 9 -1 0 -5 -3
4 1 5 10 0 1 -4 -3
7 15 -1 4 -8 -6 -12 -8
9 13 -4 2 -10 -8 -14 -11
9 9 -3 4 -9 -8 -13 -10
-5 -7 7 14 0 0 -5 -1
-9 -10 11 19 5 6 1 3
-3 -4 8 15 1 1 -2 1
-2 -7 6 11 -2 -2 -7 -3
-1 1 3 8 -3 -3 -8 -6
4 17 0 5 -7 -6 -11 -7
9 17 -1 5 -7 -6 -12 -9
7 14 4 8 -4 -3 -8 -7
-3 15 8 12 0 1 -5 -2
-5 6 13 19 5 4 1 3
-3 6 14 20 5 5 1 3
-1 16 11 16 3 0 -4 -1
2 13 12 17 3 2 -4 -1
11 20 12 17 2 0 -3 -1
2 26 12 18 4 2 -2 0
0 28 13 16 4 3 -1 0
2 23 15 18 5 3 0 2
1 21 14 19 6 4 0 2
1 25 12 18 4 2 -1 -1
-3 25 13 20 6 5 1 2
-1 29 14 19 5 4 1 3
1 33 13 18 6 4 1 3
2 43 9 16 4 3 1 4
4 40 13 20 9 8 6 11
9 33 14 21 12 12 9 14
13 36 13 20 11 11 11 15
10 37 14 20 12 13 12 17
9 42 7 13 7 8 8 13
11 38 7 9 4 6 6 11
11 31 6 9 2 4 4 9
9 34 1 5 -1 -1 -1 5
4 40 1 4 -2 0 -1 5
6 37 -1 3 -3 -2 -1 4
12 33 -4 1 -5 -4 -3 4
16 23 -2 3 -1 -1 0 6
10 10 3 8 5 5 6 13
6 19 3 7 2 3 3 10
5 19 1 7 2 2 2 9
7 16 3 8 3 3 5 10
7 17 1 6 -1 -1 2 8
5 11 -2 3 -4 -4 -3 4
6 10 -1 3 -4 -5 -4 2
2 11 3 5 -2 -4 -3 2
-6 7 3 5 -2 -5 -4 3
-5 9 2 1 -5 -8 -7 -1
-2 2 2 1 -5 -6 -6 -1
0 -3 0 -1 -8 -10 -9 -2
4 -2 -2 -4 -11 -13 -13 -5
1 -1 -5 -7 -14 -16 -15 -10
-4 9 -6 -7 -16 -18 -17 -11
-7 2 -3 -3 -13 -16 -14 -9
-7 -9 -1 -2 -10 -13 -14 -7
0 -11 -3 -5 -14 -16 -15 -8
6 -15 -6 -8 -18 -20 -18 -11
-1 -23 -1 -3 -11 -14 -12 -6
-18 -27 7 6 -2 -4 -2 5
-23 -19 4 3 -5 -7 -5 2
-16 -11 -1 -1 -11 -12 -11 -4
-11 -12 -3 -3 -14 -15 -12 -6
-10 -10 -7 -4 -16 -17 -14 -8
-5 -8 -6 -5 -17 -19 -16 -10
-3 -10 -4 -2 -15 -17 -14 -9
-4 -16 -4 0 -13 -15 -12 -9
-1 -7 -5 -1 -17 -18 -15 -10
-9 1 -6 -3 -16 -19 -16 -10
-18 -3 -4 0 -13 -15 -12 -6
-15 -10 -6 0 -15 -16 -13 -6
-11 -13 -7 -1 -15 -16 -14 -6
-9 -13 -7 -1 -15 -15 -13 -7
-10 -14 -7 0 -15 -15 -12 -5
-4 -26 -2 3 -11 -12 -10 -3
-1 -32 0 7 -6 -8 -6 0
-11 -23 -4 4 -9 -10 -10 -2
-10 -14 -5 3 -11 -12 -11 -3
-7 -17 -5 2 -11 -12 -9 -3
-13 -15 -8 1 -11 -12 -10 -3
-13 -11 -8 1 -11 -13 -11 -5
-12 -8 -9 -1 -12 -13 -11 -6
-10 -4 -8 2 -11 -11 -11 -6
-4 -4 -6 9 -7 -7 -8 -4
-3 -7 1 21 4 2 -1 2
3 -2 7 35 14 10 5 4
10 7 15 51 26 19 9 6
9 9 25 71 42 32 16 11
12 10 38 93 63 47 23 13
18 9 45 111 80 62 33 18
31 22 50 125 101 85 52 33
42 44 47 123 116 108 73 49
53 51 46 113 129 127 91 66
57 64 46 105 143 150 117 89
55 79 41 76 142 161 135 105
61 97 31 32 129 164 146 118
58 120 25 -9 116 167 159 134
52 123 10 -42 107 169 167 145
46 107 -10 -61 103 165 163 142
48 70 -35 -70 93 147 134 110
47 41 -58 -101 56 104 92 76
34 22 -74 -145 1 47 48 46
4 -1 -83 -199 -67 -19 4 22
-34 -27 -92 -258 -149 -95 -46 -7
-56 -67 -114 -299 -214 -158 -92 -39
-66 -88 -132 -317 -248 -193 -121 -64
-65 -100 -141 -308 -251 -199 -131 -75
-65 -104 -145 -292 -244 -198 -136 -86
-67 -108 -144 -270 -229 -190 -135 -90
-58 -106 -142 -249 -211 -175 -124 -82
-54 -97 -140 -231 -195 -160 -111 -72
-47 -83 -131 -212 -180 -146 -100 -64
-38 -67 -115 -179 -156 -127 -85 -52
-34 -51 -91 -140 -125 -101 -66 -39
-26 -38 -70 -101 -95 -78 -52 -31
-20 -28 -47 -63 -66 -56 -37 -22
-17 -32 -29 -34 -42 -36 -24 -11
-8 -29 -19 -20 -29 -26 -17 -7
-3 -14 -18 -15 -25 -24 -17 -9
-3 -17 -11 -5 -16 -15 -10 -4
-5 -13 -6 1 -11 -9 -6 1
-6 -6 -8 0 -11 -9 -8 -2
-4 -7 -8 3 -9 -8 -7 -1
-1 -10 -6 6 -7 -7 -6 -1
0 -15 -4 11 -4 -5 -5 0
2 -10 -4 13 -3 -6 -7 -2
-7 -9 -2 17 -1 -2 -3 -1
-10 -13 1 18 2 1 -1 2
-7 -16 4 20 5 3 1 5
-7 -8 2 18 5 2 0 4
-8 -5 1 17 6 4 2 6
-6 0 2 16 6 3 1 6
0 -1 0 15 4 2 0 2
9 -6 -1 16 5 3 0 2
8 -4 0 17 4 1 -2 0
-4 -3 3 23 7 4 1 3
-9 3 5 24 10 6 3 5
-10 2 7 27 13 8 6 7
-7 2 8 27 13 8 6 8
-4 -5 10 26 14 10 8 10
-3 -15 11 26 16 14 11 12
0 -11 9 25 15 12 9 12
0 0 6 24 11 10 6 9
0 12 2 21 8 6 2 5
-1 12 4 23 8 5 3 5
-2 -1 5 27 10 8 4 5
2 -7 8 29 14 11 8 9
6 5 6 26 13 8 4 5
11 10 4 26 12 7 2 3
13 0 10 32 20 15 10 11
1 -13 18 38 27 23 17 18
2 -7 18 36 25 21 17 16
2 0 15 36 24 21 16 16
0 1 15 37 24 21 16 16
1 0 16 38 24 22 16 13
1 -1 17 41 25 21 16 12
6 5 14 40 23 21 15 10
11 8 13 40 24 19 15 9
9 10 13 40 24 20 14 8
9 12 11 40 25 21 16 8
11 14 10 39 27 23 17 10
14 11 10 40 26 22 17 8
14 7 11 44 30 27 20 10
8 5 14 51 36 32 25 14
6 6 15 53 36 32 24 13
9 12 15 58 38 33 24 12
7 12 18 61 41 35 26 15
4 14 18 63 44 36 28 15
8 18 18 64 44 36 27 14
8 18 16 65 46 39 30 16
9 20 18 69 49 42 32 18
12 27 16 69 48 43 31 16
14 21 17 73 51 45 34 18
19 12 17 77 53 47 36 19
20 5 19 83 59 50 38 20
18 7 23 90 62 54 42 22
17 14 23 92 64 55 42 23
23 15 22 96 67 56 44 24
26 15 23 99 71 60 47 26
30 25 18 95 69 59 45 23
37 28 17 96 69 61 45 24
33 26 24 104 77 68 51 30
24 29 24 109 81 72 56 33
25 28 24 112 84 74 58 34
32 29 21 114 85 74 58 32
33 35 19 117 86 75 59 32
31 36 20 120 89 77 60 33
30 29 24 126 96 84 65 38
34 32 23 125 96 83 64 37
40 31 25 130 101 89 69 43
42 24 26 134 104 93 73 46
43 29 24 131 101 91 73 44
44 45 20 129 97 88 69 42
46 53 15 127 95 86 67 40
48 51 16 130 96 86 67 40
50 49 15 130 95 85 66 39
54 45 15 129 94 86 68 42
54 45 17 131 96 89 71 45
44 45 20 132 99 90 73 47
40 41 20 130 99 91 75 49
43 44 18 127 96 88 73 48
48 46 14 121 91 85 70 45
46 46 18 123 93 87 74 48
42 47 17 122 93 87 74 50
42 45 16 118 89 83 70 46
48 45 15 116 87 81 66 44
52 44 16 115 85 79 65 44
54 46 12 111 80 75 62 42
40 46 16 111 81 76 64 43
27 42 18 110 81 78 66 46
31 38 19 106 80 76 65 47
33 44 19 102 77 74 64 45
38 45 16 98 70 69 60 42
37 40 14 91 66 64 58 38
34 31 17 91 64 62 56 39
30 26 18 92 65 62 56 38
29 37 15 86 59 57 50 34
27 36 15 80 54 52 47 31
28 34 15 75 51 49 44 29
29 38 13 67 47 45 41 26
29 36 12 59 42 41 39 24
26 33 11 56 40 40 38 22
15 29 13 55 37 38 36 21
14 27 10 50 34 34 31 17
15 19 14 50 33 34 31 17
10 3 19 55 38 38 38 22
7 3 21 54 38 40 38 24
2 0 21 51 36 37 36 22
1 5 17 42 30 31 30 16
2 17 13 35 25 26 26 12
4 21 11 31 22 24 25 11
6 14 12 30 23 25 26 13
7 7 11 28 20 22 25 12
4 9 9 23 16 19 21 9
2 6 10 21 15 17 18 8
2 11 9 18 12 13 15 4
0 16 8 15 9 10 14 1
-1 9 10 17 12 11 14 2
-1 6 10 14 10 10 12 0
-1 11 9 11 9 10 11 0
-4 8 10 12 9 11 12 3
-3 -1 10 11 10 12 14 4
0 1 11 10 8 11 15 4
-1 -2 9 8 7 10 13 2
-4 1 8 7 4 7 11 0
-6 5 5 6 1 4 8 -4
-7 0 6 6 1 4 8 -2
-8 -1 11 8 4 6 9 -1
-6 -5 13 8 6 7 11 2
-2 1 11 5 2 6 10 -1
-2 1 10 4 2 5 10 -1
-6 0 9 2 2 5 10 -2
-6 0 8 0 -1 1 8 -4
-4 3 6 -3 -3 0 5 -7
-5 6 5 -3 -5 -3 5 -8
-3 0 8 1 -2 1 8 -7
0 -1 7 0 -4 0 7 -6
1 -3 5 0 -3 -1 5 -6
-3 -2 6 0 0 1 6 -4
-5 -5 8 2 2 5 9 -3
-3 -4 10 4 3 6 10 -3
-5 2 9 3 4 6 10 -2
-9 4 8 3 2 4 9 -2
-3 7 5 -1 -2 0 4 -8
1 5 3 0 -3 -1 3 -8
-1 3 4 1 -2 0 4 -8
-3 4 8 4 2 2 8 -5
-6 1 9 4 2 3 8 -5
-3 9 4 0 -1 -1 4 -9
0 9 5 0 0 2 6 -8
0 8 7 2 2 4 7 -7
-4 7 8 3 4 6 9 -5
-16 4 11 7 7 8 13 -2
-16 -2 14 11 10 13 16 2
-9 0 12 12 9 12 15 2
-6 7 9 11 8 11 13 1
-3 10 9 9 7 10 12 0
-5 3 12 11 10 13 15 1
-5 -11 17 15 15 18 18 6
-3 -13 16 14 14 16 19 4
-7 -6 15 10 11 13 16 2
-1 2 10 5 6 9 13 0
10 11 3 -1 1 1 6 -6
13 15 0 -3 -2 -2 4 -10
-3 7 9 5 6 6 11 -2
-14 -6 17 15 13 14 20 6
-12 -6 17 15 12 12 19 5
-8 -2 16 13 13 13 19 4
-5 4 13 10 10 10 16 3
-2 7 11 8 8 9 15 1
1 5 10 6 7 9 15 2
1 8 9 4 6 8 14 2
0 11 8 2 5 8 14 1
-3 8 9 6 8 10 15 3
-7 7 9 7 7 8 14 2
-5 4 10 6 6 8 14 2
-1 2 10 6 6 6 13 1
0 13 6 2 2 3 10 -3
0 16 4 -1 2 1 11 -3
1 17 1 -4 0 1 10 -5
1 20 0 -4 0 4 11 -4
0 22 1 -5 0 4 12 -3
-2 16 2 -4 1 3 11 -3
8 14 2 -4 1 3 11 -4
16 15 -1 -7 -3 -1 6 -7
8 11 3 -3 -1 2 10 -3
-10 -1 12 5 7 8 17 4
-13 -8 14 8 9 11 21 6
-3 2 11 2 6 8 18 4
1 7 6 -2 2 5 15 0
-3 7 4 -5 0 5 13 -1
-2 11 2 -6 0 5 14 -1
-1 10 1 -6 0 5 13 -1
-1 8 3 -3 1 6 16 -1
-1 8 3 -3 2 7 15 -1
0 0 7 3 5 10 18 4
4 2 12 7 9 13 22 7
8 11 11 3 6 10 18 5
7 13 11 3 7 10 18 6
7 18 12 5 8 11 20 8
4 23 12 2 7 11 21 8
-4 22 15 6 11 15 25 11
-10 18 18 10 15 19 28 13
-8 17 15 7 11 16 25 9
-4 22 15 7 10 14 22 7
3 30 11 3 5 8 18 3
8 30 9 1 3 7 15 1
9 24 12 5 6 10 21 6
0 25 16 8 11 14 25 11
-1 34 16 9 14 15 29 15
3 37 17 12 16 20 33 19
4 32 17 12 17 21 34 21
4 40 13 10 14 20 33 20
6 37 11 7 13 20 32 19
11 37 7 3 10 16 29 15
8 39 5 -1 5 12 24 12
1 34 7 1 6 15 28 13
2 36 7 0 6 14 27 14
6 41 5 -3 3 11 25 12
10 50 -1 -8 -1 6 20 9
16 46 -5 -11 -3 6 19 7
21 29 -5 -12 -5 3 15 5
10 12 0 -7 -1 8 19 9
-1 2 8 2 8 16 27 17
5 4 8 4 8 16 27 18
7 21 2 -2 2 10 21 12
8 29 -4 -6 -3 5 15 7
5 22 -5 -7 -4 4 14 7
4 18 -2 -4 -1 5 15 8
1 25 -2 -7 -3 3 11 5
-4 20 1 -4 -1 7 14 6
-1 13 0 -5 -3 5 12 4
3 10 -1 -8 -4 3 9 1
-1 4 -2 -9 -7 1 8 -2
-3 0 -3 -9 -8 -1 6 -4
1 1 -6 -14 -13 -5 2 -8
1 1 -6 -15 -12 -5 1 -9
-3 -4 -3 -13 -10 -3 3 -7
-3 -3 -5 -15 -12 -6 1 -10
-2 -2 -7 -17 -12 -7 0 -10
-9 -8 -4 -13 -9 -2 5 -4
-9 -9 -4 -12 -9 -3 4 -5
-3 -13 -2 -11 -7 -2 6 -5
-2 -14 -5 -11 -9 -5 4 -7
-2 -10 -8 -13 -12 -7 1 -11
-8 -13 -6 -9 -10 -5 2 -9
-11 -7 -7 -9 -10 -5 3 -10
-10 -4 -8 -10 -10 -6 2 -11
-9 -3 -9 -14 -13 -10 -1 -13
-7 5 -10 -16 -14 -11 -3 -11
-3 2 -10 -15 -13 -8 -1 -11
1 -4 -11 -17 -15 -10 -2 -13
3 -11 -9 -13 -12 -7 0 -10
-9 -13 -6 -10 -9 -4 5 -7
-12 -15 -4 -7 -7 -2 5 -6
-7 -13 -4 -6 -7 -4 4 -7
-5 -7 -7 -8 -10 -6 1 -11
-7 -4 -7 -8 -10 -7 1 -10
-7 -1 -7 -9 -11 -7 -1 -11
-5 -3 -8 -10 -11 -9 -2 -11
-2 -12 -8 -8 -10 -6 0 -10
4 -20 -10 -12 -12 -8 -2 -10
14 -24 -13 -15 -16 -12 -6 -13
18 -22 -14 -14 -16 -12 -6 -14
-1 -17 -7 -6 -9 -4 -1 -10
-19 -9 0 2 -2 2 5 -5
-17 -2 0 4 -1 1 3 -8
-10 0 -3 6 -2 -1 0 -12
3 9 3 18 6 3 1 -10
9 12 12 35 20 13 7 -4
11 4 25 59 39 31 19 4
8 1 38 84 60 47 30 12
11 -1 48 105 77 61 37 14
19 4 57 125 97 81 51 21
28 21 60 136 119 106 73 36
41 40 56 128 133 127 93 51
55 56 52 112 146 147 112 68
63 67 42 88 156 167 132 85
68 81 31 43 145 176 148 101
70 95 27 -2 132 181 162 117
66 111 20 -42 118 181 171 129
51 113 2 -78 106 179 177 137
37 94 -23 -92 103 174 166 128
38 55 -47 -103 88 150 129 95
35 34 -72 -140 42 98 86 63
14 19 -89 -194 -26 31 40 34
-12 -5 -95 -256 -112 -49 -9 8
-36 -26 -100 -308 -197 -132 -64 -27
-52 -60 -118 -331 -248 -187 -108 -60
-54 -79 -132 -332 -266 -209 -129 -78
-54 -89 -140 -314 -256 -208 -135 -89
-55 -99 -139 -290 -241 -199 -136 -96
-55 -101 -138 -265 -223 -186 -130 -95
-47 -98 -141 -254 -212 -175 -122 -90
-35 -102 -139 -235 -197 -162 -112 -80
-30 -92 -132 -216 -182 -151 -103 -75
-34 -77 -113 -181 -152 -126 -84 -60
-35 -62 -82 -133 -111 -91 -58 -40
-23 -39 -61 -94 -81 -69 -46 -34
-16 -17 -44 -66 -58 -52 -38 -32
-12 -3 -27 -42 -39 -38 -30 -26
-9 -3 -18 -27 -28 -29 -24 -23
-6 -1 -13 -18 -21 -24 -21 -21
2 3 -9 -10 -14 -18 -17 -17
11 -10 -3 -3 -8 -12 -13 -13
17 -21 0 1 -5 -10 -10 -12
12 -17 2 6 -3 -6 -10 -11
-9 -14 7 16 5 2 -3 -5
-16 -8 9 21 9 3 -3 -5
-7 -4 7 20 7 1 -7 -8
-4 -7 8 20 9 2 -7 -9
-2 -10 9 23 12 4 -6 -8
-1 -10 11 26 14 7 -5 -7
3 -9 10 25 12 6 -5 -7
4 -8 9 24 10 6 -6 -8
4 -8 8 25 10 4 -6 -7
3 -10 7 27 12 6 -5 -5
3 -6 7 27 12 6 -4 -5
6 -3 8 30 13 7 -5 -4
-3 -6 14 39 19 12 -1 1
-4 -8 14 40 21 13 0 1
1 -3 14 38 20 12 -1 0
7 6 11 36 16 8 -5 -5
7 7 10 34 15 9 -6 -5
10 7 9 35 15 10 -4 -5
8 6 11 38 15 9 -4 -5
6 -5 16 44 20 14 1 2
1 -6 19 46 22 16 3 4
3 2 14 42 19 12 -2 0
12 7 13 41 18 10 -4 -2
14 13 11 40 16 8 -7 -5
10 12 15 44 18 11 -4 -3
6 3 18 47 23 15 0 2
3 -6 21 52 28 21 5 8
8 -6 20 51 27 21 4 7
9 -2 17 49 24 18 1 3
10 3 15 50 24 18 2 3
10 10 16 52 25 19 4 5
9 15 15 53 26 18 3 3
10 10 17 56 29 20 5 4
16 2 19 60 33 24 8 6
13 0 21 64 36 27 10 9
3 8 23 67 38 28 10 9
3 17 21 65 37 28 9 9
5 11 21 67 38 30 10 10
9 13 21 68 39 30 9 9
13 11 21 70 39 31 10 9
14 3 24 74 42 33 11 12
18 1 25 77 44 34 11 11
22 2 23 78 44 33 9 10
24 10 22 80 45 34 10 8
22 9 23 83 47 35 11 9
22 18 24 86 50 37 12 10
11 26 30 92 57 44 19 17
4 21 31 95 60 47 22 19
11 17 30 98 62 47 22 19
18 8 31 104 67 52 25 21
22 3 33 110 72 56 27 24
28 14 29 111 73 53 24 20
29 22 28 112 74 53 24 20
27 27 26 114 76 54 24 20
24 24 29 121 82 58 28 22
27 23 31 125 85 62 29 22
33 29 30 127 87 64 31 23
33 30 33 133 93 71 36 27
29 19 37 143 102 78 43 34
35 17 39 149 107 83 47 39
38 29 36 150 106 82 45 37
38 33 34 151 106 80 44 34
41 35 34 154 108 82 45 35
41 38 33 155 111 83 45 36
44 40 32 156 111 85 44 34
49 42 32 161 115 87 47 38
49 46 32 162 116 89 49 37
48 36 37 167 122 97 57 45
47 40 38 169 123 97 57 46
51 50 33 167 120 95 55 44
55 51 33 168 121 96 55 46
54 35 39 174 126 100 59 51
52 42 38 173 124 99 57 49
49 49 35 171 123 97 56 49
47 50 35 171 122 98 57 51
54 49 34 168 119 94 55 51
61 42 34 166 118 95 57 50
65 39 34 165 116 94 58 51
60 50 31 158 111 90 54 49
49 54 31 159 110 91 55 50
45 58 32 159 109 90 55 51
41 52 37 161 110 91 58 54
39 47 35 158 107 90 56 53
46 53 32 151 102 84 51 50
52 54 30 146 97 79 47 46
47 49 33 145 97 79 48 50
39 41 35 144 96 81 50 52
40 36 34 140 93 79 49 50
47 45 31 132 86 73 44 43
43 41 33 132 87 74 46 42
32 32 37 131 88 75 46 40
30 30 37 127 84 71 44 37
29 33 33 120 77 64 39 31
28 38 32 114 73 61 35 28
29 42 30 105 66 53 30 23
29 42 28 100 61 49 27 20
24 32 32 100 62 52 31 24
25 19 34 99 62 53 31 27
31 15 29 93 55 47 26 21
29 15 28 88 52 44 23 19
19 23 26 84 48 40 19 16
15 22 26 82 46 38 18 16
18 23 24 77 42 34 15 14
16 23 22 73 39 32 12 11
13 20 23 69 38 31 11 10
13 21 20 65 33 27 8 7
10 21 19 61 30 25 6 6
13 24 16 57 26 22 3 2
10 19 17 57 26 23 3 2
8 23 14 52 22 18 -1 -1
8 22 15 50 21 18 -1 -2
5 17 13 48 17 15 -4 -4
5 6 16 49 19 17 -1 -1
6 -3 16 50 20 18 0 -1
13 -6 14 45 18 15 -3 -3
20 -4 10 40 14 10 -6 -5
15 6 8 36 12 9 -7 -6
5 11 8 35 11 8 -7 -6
6 13 8 34 8 8 -7 -6
3 14 8 34 8 7 -7 -6
2 10 10 35 11 9 -7 -5
-1 4 12 39 14 11 -5 -2
-2 -6 15 42 17 14 -2 1
-1 -4 15 39 14 12 -4 -2
1 1 12 35 10 9 -8 -5
6 -5 11 32 7 6 -9 -7
1 1 11 30 7 6 -8 -5
-11 -1 14 33 10 9 -6 -4
-7 2 11 32 9 8 -6 -5
-1 -1 11 31 7 5 -6 -5
0 -5 10 30 6 5 -9 -7
1 -1 10 31 6 4 -9 -8
3 2 8 27 4 3 -11 -8
3 3 9 25 4 2 -11 -9
0 4 10 26 6 4 -11 -9
-3 -1 12 28 8 5 -8 -6
-4 4 9 26 7 5 -8 -7
-1 8 5 21 2 0 -12 -10
2 6 4 20 2 -1 -13 -11
8 8 3 19 0 -4 -14 -12
1 3 6 23 4 0 -12 -8
-11 -7 15 32 12 8 -4 -1
-8 -13 18 35 17 11 -1 1
-1 -9 15 32 15 9 -4 -4
2 3 12 29 12 6 -7 -8
-1 5 11 29 12 7 -8 -7
-5 7 11 29 13 8 -6 -6
-7 8 12 30 14 8 -4 -5
-7 5 12 30 13 8 -4 -3
1 10 9 27 10 5 -8 -6
6 5 8 26 9 4 -7 -7
6 4 7 25 7 2 -9 -7
0 8 10 30 13 7 -5 -3
-3 2 12 33 17 12 -2 0
2 -5 17 37 23 16 4 5
8 1 16 35 22 14 3 5
11 9 10 29 16 10 -2 -1
10 11 9 28 16 9 -3 -2
0 9 14 31 18 13 0 2
-10 11 15 34 20 15 2 5
-4 9 13 34 20 15 1 3
-6 6 11 31 16 11 -2 -1
-8 1 13 33 19 14 1 1
-4 -2 15 34 19 14 2 3
-2 2 14 32 19 13 1 3
0 9 15 32 19 13 1 4
-1 12 11 28 16 11 0 4
-1 12 11 27 14 10 -1 3
5 13 9 26 15 11 0 4
8 10 10 27 15 12 1 4
9 9 8 24 13 9 -2 1
13 13 5 21 9 5 -5 -4
8 22 2 20 8 4 -6 -4
1 17 8 25 13 10 0 1
-11 0 18 34 22 19 10 11
-9 -8 19 35 23 20 11 12
-4 0 12 29 18 16 8 9
-3 6 11 27 16 13 5 8
0 7 9 25 15 11 4 6
3 10 9 25 13 9 2 5
2 7 9 25 13 10 2 6
4 7 8 24 12 9 2 6
3 8 9 25 13 11 4 7
4 11 8 22 11 9 3 5
2 14 5 21 11 8 3 5
3 19 3 19 7 6 0 2
3 21 6 20 8 9 3 5
4 21 10 23 12 12 6 8
8 12 15 27 17 17 9 11
10 -2 22 33 23 23 16 17
6 0 23 35 24 24 17 19
8 17 16 28 18 16 9 11
4 25 17 29 19 18 10 12
3 25 18 30 22 20 12 15
6 31 17 28 20 19 12 14
1 39 17 28 20 19 11 14
-5 40 17 25 19 18 12 13
3 41 16 24 17 16 10 11
10 31 16 26 20 18 11 13
15 25 16 27 19 17 11 15
18 25 14 26 20 20 14 17
15 28 14 26 21 20 14 16
20 37 12 25 21 20 16 18
20 45 11 23 20 19 15 18
4 38 18 28 26 26 23 25
-1 37 19 28 26 27 24 29
-3 39 16 23 23 25 22 26
-6 43 13 19 20 22 20 24
-2 45 12 16 17 20 18 22
3 46 9 15 15 20 17 22
7 43 7 13 14 19 16 21
12 41 6 13 13 17 15 20
10 40 5 10 11 14 14 18
4 38 8 13 14 17 17 22
6 44 2 6 8 11 10 17
4 40 1 6 6 11 9 15
1 34 3 8 11 15 12 18
4 32 1 7 10 13 11 17
6 26 0 7 10 13 10 15
5 10 3 10 12 15 12 18
5 14 3 8 10 14 10 15
5 26 1 7 7 10 7 13
4 24 0 4 5 8 5 11
4 19 -2 1 1 5 2 8
6 11 1 1 3 5 3 9
2 7 2 0 3 4 3 9
-2 16 -3 -5 -1 0 0 7
-3 14 -4 -6 -2 -1 -2 5
-2 6 -2 -5 -1 0 -1 6
-4 0 -2 -4 -1 1 1 8
-13 -9 4 1 4 6 7 13
-11 -4 0 -3 1 4 3 9
-5 0 -3 -7 -2 0 -1 6
-4 4 -6 -12 -6 -2 -4 2
-2 8 -7 -11 -6 -3 -4 2
-6 5 -6 -12 -6 -2 -3 3
-7 2 -5 -11 -3 1 -1 5
-6 0 -3 -10 -1 3 0 6
-6 3 -4 -12 -3 1 -1 5
-7 -6 -1 -9 -1 4 2 8
-8 -13 -1 -8 -1 5 2 8
-8 -9 -3 -9 -2 2 -2 5
-6 -1 -6 -13 -5 -1 -4 1
-5 2 -8 -15 -7 -3 -5 0
-4 -7 -6 -14 -5 -3 -4 1
5 -4 -9 -18 -9 -6 -9 -2
14 1 -14 -24 -13 -9 -11 -6
14 0 -13 -21 -11 -7 -9 -5
-11 -6 1 -6 3 7 5 10
-24 -1 2 -4 4 9 6 12
-14 1 -2 -9 0 5 3 7
-8 -2 -3 -10 -3 1 -1 4
-2 -5 -6 -12 -5 -1 -3 1
2 -5 -4 -11 -4 -1 -2 1
-4 -10 -2 -9 -2 1 -1 4
-9 -4 -4 -10 -3 1 -2 1
-6 1 -6 -13 -5 -2 -5 0
3 -1 -6 -12 -6 -4 -7 -2
0 -2 1 -1 2 2 -2 1
-4 -5 8 14 14 12 6 7
0 -1 16 31 27 21 12 12
5 7 25 49 41 31 17 14
7 9 37 72 59 45 26 18
7 8 50 93 80 61 33 19
15 17 58 111 96 76 42 23
25 25 65 130 116 100 63 39
35 43 63 126 134 126 88 58
45 55 56 107 141 146 107 72
57 67 46 86 150 165 125 89
66 86 34 47 146 175 143 107
63 105 24 -2 130 179 156 122
57 119 17 -47 116 181 170 138
50 127 -1 -86 104 181 177 148
39 125 -30 -114 97 180 175 150
40 91 -54 -118 96 171 154 128
39 55 -79 -143 64 129 111 94
27 32 -101 -188 6 68 65 61
7 13 -114 -247 -72 -5 17 34
-20 -14 -118 -304 -164 -93 -37 2
-41 -43 -130 -339 -233 -162 -87 -32
-54 -70 -141 -347 -265 -199 -115 -55
-53 -92 -147 -333 -264 -204 -126 -70
-45 -103 -148 -312 -252 -200 -132 -80
-38 -104 -149 -291 -237 -192 -132 -87
-33 -104 -150 -275 -223 -182 -126 -85
-43 -97 -143 -252 -202 -162 -109 -71
-47 -84 -133 -232 -186 -148 -97 -60
-43 -61 -120 -204 -164 -130 -84 -52
-37 -40 -99 -165 -133 -105 -68 -43
-29 -29 -72 -121 -98 -77 -50 -31
-21 -19 -46 -82 -69 -56 -36 -24
-15 -13 -29 -55 -47 -40 -28 -19
-10 -13 -16 -34 -30 -26 -18 -12
-5 -19 -4 -19 -16 -14 -9 -3
-6 -17 0 -12 -9 -9 -5 0
-1 -11 1 -10 -8 -6 -5 -1
4 -8 0 -9 -6 -6 -4 -2
6 -5 0 -6 -6 -5 -4 -3
4 3 -1 -4 -7 -6 -7 -5
0 4 1 -2 -4 -5 -4 -5
3 -5 3 3 -2 -4 -4 -3
-1 -9 9 9 5 2 0 -1
-2 -6 8 9 6 1 -3 -2
9 -7 9 10 6 1 -2 -1
13 -8 8 10 8 2 -2 -1
7 -1 9 10 9 3 1 1
-2 9 11 11 11 7 3 3
-12 10 13 15 15 11 7 7
-8 5 13 16 14 9 6 5
-3 4 12 17 13 7 2 2
-2 4 10 16 10 4 1 1
2 2 11 18 11 5 2 1
8 -3 12 20 14 6 2 1
12 -7 13 20 13 6 2 2
12 -3 11 18 13 6 3 3
5 5 12 18 14 7 3 4
-1 12 13 19 16 9 6 5
0 20 13 20 15 8 6 4
-1 12 12 21 16 8 5 4
2 10 14 24 17 8 5 3
2 14 13 24 16 7 4 1
2 11 15 26 18 9 6 2
5 2 20 31 24 14 10 7
2 -8 24 35 27 17 13 10
5 -4 20 32 26 15 10 6
14 5 19 29 25 15 9 5
11 7 20 30 26 15 10 6
5 11 23 33 29 18 14 8
4 11 22 34 30 18 12 5
5 10 22 36 30 19 12 4
8 15 21 37 29 17 12 3
8 10 24 42 33 21 14 5
7 7 25 44 36 24 15 5
7 7 25 47 37 24 15 6
6 2 26 48 40 27 17 8
8 10 25 48 41 28 17 7
9 9 25 48 41 28 18 8
13 11 24 49 41 28 17 7
15 17 22 51 41 28 17 5
14 9 26 57 47 32 20 8
15 8 27 62 49 34 23 9
20 16 26 63 50 34 20 6
25 24 23 62 49 31 19 4
26 25 26 65 52 33 21 5
20 22 27 69 58 38 24 9
12 18 31 75 63 44 31 15
10 18 32 79 65 48 34 18
13 25 29 79 64 45 32 14
16 25 30 85 66 47 32 14
19 23 33 93 73 51 36 17
18 15 35 99 76 54 38 19
23 23 34 103 78 54 37 16
31 31 31 104 79 54 36 16
35 25 32 109 83 57 38 16
34 28 33 111 86 59 41 18
27 31 36 117 92 66 47 22
32 29 38 120 94 69 49 24
38 32 37 122 96 70 51 25
35 31 38 128 99 73 52 26
27 31 42 136 107 79 57 31
30 37 40 138 108 80 58 31
33 36 41 141 110 82 58 32
35 32 44 146 116 87 64 36
37 45 39 144 115 84 62 33
40 49 39 144 116 87 64 35
43 46 41 148 120 93 68 38
44 42 40 147 121 93 68 40
47 50 37 147 119 92 68 39
50 55 34 146 116 89 65 37
54 44 37 149 119 91 69 40
51 33 41 154 124 95 73 44
49 35 40 152 121 94 71 44
53 46 37 149 119 91 68 41
56 51 34 145 114 87 66 39
52 52 34 143 113 88 67 41
49 57 34 141 113 89 68 43
45 52 35 140 113 90 69 44
45 47 35 138 111 89 70 46
50 53 31 130 104 82 64 39
54 53 29 127 99 78 60 37
59 48 30 127 98 78 62 38
52 45 31 126 98 77 60 37
49 48 29 122 95 74 59 35
52 45 30 120 94 72 58 36
53 42 30 117 92 72 58 37
46 42 32 114 91 73 57 37
42 45 32 110 89 72 58 38
40 47 29 104 83 67 53 35
40 48 29 99 79 64 52 35
34 45 29 97 75 61 50 32
28 45 28 94 71 57 47 30
25 40 32 93 72 57 48 32
27 37 31 88 68 54 44 29
27 36 32 82 65 50 43 27
28 38 30 78 61 48 39 26
31 37 28 69 56 44 37 22
36 35 25 62 51 39 33 19
36 27 25 57 47 37 31 18
25 22 27 56 47 36 32 18
14 29 27 55 44 34 30 18
12 30 26 50 40 30 27 14
14 23 26 47 38 28 24 13
14 22 26 44 36 25 22 12
12 18 25 39 33 24 20 10
11 19 24 36 31 23 19 10
13 18 22 30 27 20 16 8
12 21 20 28 26 19 16 8
11 20 19 24 22 16 13 6
12 16 16 20 19 13 11 2
13 16 16 21 18 11 10 3
10 12 18 22 20 12 11 5
5 11 20 24 20 12 12 5
1 12 19 21 18 11 11 4
0 12 16 16 16 8 9 2
4 13 14 12 12 6 6 1
11 10 15 10 12 6 7 0
11 -2 15 9 13 7 6 1
9 -4 15 8 11 5 6 1
10 7 12 4 8 3 4 -1
3 11 12 5 7 1 2 -4
-1 15 14 7 9 2 3 -3
3 12 14 7 9 2 2 -3
4 0 16 8 10 3 4 -1
-1 11 13 4 8 -1 1 -4
-2 7 15 5 10 3 4 -1
5 -3 18 7 10 5 7 1
8 -3 13 2 6 1 3 -4
6 1 9 -1 2 -3 -1 -7
1 1 12 2 4 0 1 -3
3 5 10 0 2 -3 -1 -5
3 12 10 1 2 -5 -3 -7
-4 14 12 4 4 -2 0 -5
-1 4 15 7 7 2 3 -2
3 4 16 6 8 1 2 -3
3 9 16 6 7 1 3 -4
-1 8 18 7 9 3 3 -2
-2 12 16 6 9 2 3 -2
-1 12 15 5 8 2 1 -3
-1 10 16 6 8 2 1 -4
0 7 16 8 8 1 1 -5
-2 6 17 10 10 2 1 -4
1 6 19 12 11 4 2 -3
-1 7 19 12 11 4 2 -3
-2 2 21 14 15 6 6 1
0 -4 24 17 18 11 9 5
1 -4 23 16 18 10 9 3
0 6 19 11 14 7 6 0
2 3 20 13 15 8 5 1
2 3 19 14 14 7 6 1
5 8 18 13 12 5 4 -1
4 16 15 11 10 3 0 -5
3 16 14 12 9 3 -1 -5
4 13 15 15 10 3 0 -3
4 6 19 17 14 7 4 -1
7 8 20 19 15 10 6 1
11 11 17 16 14 7 4 -1
6 11 17 17 15 8 5 -1
1 18 18 17 17 10 6 2
2 9 18 20 17 10 8 4
4 12 15 17 15 8 5 1
7 18 14 16 13 7 3 -2
10 14 13 17 13 6 3 -2
13 10 13 18 14 6 3 -2
7 11 15 19 16 8 5 0
-4 12 18 22 19 12 7 4
3 9 17 21 20 13 10 4
4 7 17 19 19 12 9 5
3 9 17 19 17 12 9 4
8 10 17 19 16 11 9 2
11 10 16 18 15 10 6 3
8 10 16 20 15 10 6 2
2 14 15 18 13 7 6 1
2 18 13 18 11 7 5 1
3 15 17 20 15 11 9 6
-1 12 18 21 16 13 11 8
1 19 14 17 13 10 9 5
4 21 11 14 10 8 6 3
2 18 12 14 10 9 7 5
2 19 11 14 10 8 7 4
6 11 14 16 11 9 8 4
6 4 15 18 11 9 8 4
5 9 14 16 10 8 7 3
2 7 14 18 12 9 8 3
4 4 15 18 12 10 10 4
6 8 15 17 13 10 9 5
2 17 13 14 11 9 9 5
3 18 13 14 11 10 9 4
9 25 15 14 11 11 9 5
12 30 14 12 9 8 7 2
9 32 16 16 11 9 10 4
9 27 19 18 13 11 10 5
14 20 22 21 16 14 13 8
14 26 23 22 17 15 14 9
3 27 26 24 21 19 17 15
-7 27 32 29 25 23 22 17
-1 25 32 29 24 23 22 17
2 20 33 29 24 23 21 18
5 26 30 27 22 22 20 17
8 34 25 23 18 17 16 12
11 37 22 19 16 15 14 11
17 42 20 17 15 14 12 10
19 43 19 16 15 13 12 9
19 42 21 20 19 17 18 14
16 45 24 22 22 23 22 19
11 56 21 20 20 21 21 18
15 54 20 17 19 19 20 17
19 44 16 13 16 17 19 17
20 44 15 9 13 15 16 15
14 47 16 10 12 15 16 16
10 43 17 12 14 17 19 17
5 37 22 16 18 21 22 21
4 35 22 16 18 22 24 23
6 42 18 12 13 16 20 18
8 38 16 10 12 15 17 16
12 36 13 8 10 13 15 13
19 43 6 2 4 8 11 10
19 37 6 3 5 9 11 10
12 28 8 8 6 13 14 12
12 22 8 9 7 15 15 13
17 17 5 8 6 12 11 10
18 15 5 8 5 11 10 7
13 11 7 10 7 12 12 9
3 8 9 10 7 11 10 7
1 10 8 9 6 9 9 6
4 14 7 6 3 7 6 3
4 9 5 5 2 7 5 3
4 11 4 1 -1 3 2 -1
1 9 4 0 -3 3 2 -1
4 7 2 -1 -5 0 0 -4
8 11 -2 -5 -9 -4 -5 -8
10 7 -3 -5 -9 -6 -7 -9
5 11 -1 -4 -8 -4 -5 -8
-2 3 4 1 -3 1 -1 -4
-1 -6 7 4 0 3 1 -2
6 -5 5 1 -3 -1 0 -4
3 -12 7 4 1 4 4 1
-3 -13 8 5 0 5 4 0
-1 -4 5 2 -2 2 2 -2
1 -4 2 0 -5 0 0 -4
-6 -8 4 2 -3 2 2 -2
-2 5 -1 -2 -9 -4 -4 -10
0 4 -2 -3 -8 -5 -3 -10
-1 -3 2 1 -5 -1 0 -8
1 -8 2 1 -4 -1 -1 -9
5 -13 3 2 -3 0 0 -10
1 -12 4 3 -1 3 4 -5
-9 -5 4 3 0 3 3 -6
-10 -5 5 5 1 4 5 -4
-4 -1 2 3 -2 2 3 -7
-6 -5 2 3 -1 3 3 -6
-4 -5 3 4 -2 2 2 -8
-3 -3 1 2 -2 1 2 -8
-3 -11 5 6 2 4 5 -5
-2 -3 4 4 1 3 4 -6
-2 6 0 0 -3 -2 -1 -11
-2 3 -2 -2 -4 -1 -1 -10
-1 1 -3 -2 -5 -1 -1 -11
1 -1 -2 -1 -4 -2 -1 -12
5 0 1 4 -2 0 1 -12
7 -2 5 15 5 7 7 -5
8 -4 19 36 20 21 17 3
13 8 26 52 31 29 22 4
14 17 33 68 44 38 26 6
17 17 45 90 63 53 33 9
21 18 53 107 78 66 38 10
31 28 60 126 99 86 54 21
49 47 61 128 115 108 75 36
61 58 59 119 128 129 97 53
57 67 60 111 142 152 119 74
54 80 59 89 149 171 142 95
61 97 48 44 136 175 154 109
69 115 39 -3 120 174 167 123
70 118 25 -43 110 178 178 138
54 116 1 -68 106 182 186 148
42 94 -19 -75 108 181 175 137
45 60 -43 -88 91 153 139 104
43 41 -68 -127 41 98 93 68
32 34 -92 -185 -30 30 41 32
7 10 -106 -248 -114 -51 -12 0
-18 -27 -123 -301 -195 -129 -66 -35
-48 -67 -135 -322 -240 -174 -101 -59
-59 -82 -143 -323 -256 -195 -119 -76
-56 -99 -142 -302 -246 -189 -122 -82
-55 -123 -136 -275 -227 -177 -118 -83
-52 -122 -136 -257 -212 -167 -113 -84
-47 -99 -137 -241 -199 -155 -106 -80
-42 -88 -131 -222 -185 -145 -96 -73
-36 -79 -117 -193 -163 -126 -81 -64
-26 -59 -98 -156 -135 -103 -65 -52
-26 -41 -70 -112 -100 -75 -47 -39
-24 -30 -41 -66 -65 -45 -27 -26
-15 -20 -24 -38 -42 -30 -18 -21
-9 -15 -12 -19 -26 -17 -9 -14
-4 -14 -1 -5 -13 -5 0 -7
-5 -11 2 3 -7 -1 3 -6
-4 -5 3 5 -3 3 5 -7
-2 -6 3 6 -2 4 6 -5
2 -7 3 9 -2 5 7 -5
4 -7 3 11 0 7 7 -5
1 -7 5 15 3 10 8 -4
-2 -5 8 20 4 9 9 -4
0 -2 7 22 4 9 6 -6
3 -1 8 23 6 10 5 -6
4 -1 10 25 8 12 8 -3
2 -2 10 25 10 13 9 -4
8 3 7 22 8 12 7 -4
18 8 5 19 7 12 6 -7
8 10 6 20 7 13 8 -4
-4 11 10 28 12 17 13 2
0 11 10 29 13 18 13 3
1 5 12 31 13 16 12 0
3 -7 15 37 17 21 16 4
4 -19 20 42 22 25 19 8
9 -18 21 43 24 25 21 9
5 -3 19 41 24 24 18 8
1 0 17 38 23 25 19 8
4 -1 17 37 23 25 20 9
7 2 15 34 20 22 17 7
9 4 13 33 19 21 14 5
11 2 14 35 21 22 18 6
8 2 16 38 22 22 18 7
5 3 17 39 23 23 17 8
4 8 17 40 22 24 15 6
7 9 18 39 23 25 17 6
8 8 20 41 27 26 19 8
10 13 15 37 25 25 17 6
13 12 13 35 23 24 16 5
19 11 13 36 22 25 18 7
18 4 14 41 26 28 20 9
14 0 18 47 30 33 25 13
6 4 23 53 34 36 27 16
4 8 22 54 34 35 24 14
9 8 22 55 36 36 25 11
6 8 24 57 38 37 27 13
4 14 22 56 36 36 24 12
9 15 21 56 39 40 27 14
11 15 21 57 40 41 28 16
14 21 19 57 38 40 27 15
17 17 18 59 39 40 27 14
22 13 18 61 40 41 27 14
34 17 16 60 36 38 23 9
38 15 16 64 39 39 23 9
21 6 25 75 50 48 33 17
13 11 29 81 55 53 38 22
11 19 27 80 54 53 37 20
8 22 27 81 58 56 39 21
12 28 27 83 60 57 38 22
14 24 28 87 62 59 38 25
17 16 30 92 66 63 43 28
23 7 31 97 69 66 45 30
24 13 31 100 69 67 45 29
26 22 29 102 70 64 43 26
26 27 30 106 73 67 45 26
26 25 31 108 74 69 45 27
31 25 31 111 78 73 47 30
36 33 25 107 76 71 46 27
38 37 26 111 80 74 50 29
35 43 26 116 84 77 54 33
33 37 28 122 89 83 57 36
35 36 30 127 94 86 61 37
40 37 31 132 96 88 63 38
40 38 32 137 101 91 65 41
41 35 34 144 107 96 70 45
41 32 34 143 107 97 71 45
43 40 32 143 108 99 72 46
45 49 27 139 107 98 70 46
47 48 29 142 110 101 74 49
50 54 27 142 108 101 74 48
50 59 22 138 105 98 72 45
49 48 25 143 109 102 76 50
52 48 27 146 110 102 76 50
58 57 24 145 108 99 73 48
64 53 26 143 108 101 74 49
63 51 25 142 106 101 73 50
65 56 23 138 104 98 72 50
61 55 27 140 109 106 78 56
56 55 29 139 108 106 80 57
62 57 24 133 103 100 75 52
62 59 20 129 98 97 72 50
58 54 19 127 95 94 68 47
46 49 24 131 98 98 72 52
38 50 30 136 103 100 76 57
44 60 27 130 98 96 73 53
45 66 24 122 92 89 66 47
46 54 24 119 91 88 67 48
49 51 24 116 89 88 67 49
55 49 25 113 87 88 68 51
46 36 30 117 90 92 73 55
39 37 29 113 87 89 71 54
42 39 26 107 80 81 66 47
46 38 23 101 73 76 59 44
47 39 22 97 69 70 55 39
39 44 23 93 67 68 54 38
29 42 27 92 67 68 52 39
26 39 28 89 65 68 52 38
26 42 26 82 61 63 48 34
28 38 26 77 57 61 46 34
28 32 25 74 53 57 44 32
25 28 21 68 48 52 38 27
23 26 21 64 44 49 34 25
27 18 21 62 41 46 32 25
30 18 21 60 39 44 29 23
28 15 23 57 38 44 29 23
25 15 21 54 36 41 27 20
13 26 20 51 35 40 26 20
1 25 23 50 35 43 28 22
4 20 21 46 34 40 26 21
11 19 17 41 28 36 23 17
10 17 13 37 25 33 19 14
7 13 14 37 24 32 18 14
7 13 12 35 20 27 15 11
11 13 11 34 20 27 14 7
10 16 12 33 21 27 14 8
6 11 13 32 20 27 15 9
2 4 15 33 22 29 17 11
3 4 15 31 22 28 16 12
3 5 11 26 17 24 12 10
8 7 9 24 15 23 12 8
8 6 8 23 13 22 10 7
6 9 11 22 12 19 9 6
6 8 12 24 12 19 9 4
8 6 12 22 12 18 8 2
8 6 11 21 11 16 6 2
3 6 11 21 12 16 6 2
4 -1 13 22 14 17 8 4
10 0 11 18 12 17 8 4
0 2 13 18 13 18 9 5
-9 3 13 19 13 19 10 6
-4 0 16 22 16 20 13 8
0 3 13 20 13 17 9 4
0 3 12 20 12 16 7 3
2 1 12 21 11 16 7 2
5 -5 14 22 13 16 6 2
8 1 12 19 11 13 4 1
11 6 10 16 9 11 3 -1
8 7 12 17 11 14 6 1
1 7 15 19 14 16 8 4
-4 8 15 21 15 17 9 5
-6 7 15 22 15 18 8 6
-1 9 14 21 14 16 6 3
1 6 15 24 16 17 8 3
5 8 14 25 16 16 6 1
8 -2 17 27 19 18 9 4
8 -7 18 28 20 20 12 7
6 2 14 25 17 17 9 4
11 15 11 21 14 15 5 1
12 13 10 20 13 14 5 2
4 6 13 23 16 19 8 3
1 4 13 22 16 19 8 3
3 9 13 23 17 19 7 4
3 9 16 26 20 20 8 5
3 6 16 28 20 20 10 5
2 10 17 27 21 20 10 6
2 7 17 26 21 19 10 5
1 8 14 23 19 18 8 3
2 16 12 21 17 16 7 1
5 21 11 18 17 15 6 3
8 17 11 18 18 16 8 4
7 12 12 19 18 17 9 5
8 9 13 22 19 19 10 5
8 6 15 25 20 19 10 7
8 5 14 24 19 18 8 5
6 12 13 23 19 17 7 4
1 19 13 23 19 17 8 4
5 19 11 19 16 14 5 3
10 22 10 16 15 14 4 1
12 23 7 11 12 10 2 -1
11 22 6 13 12 11 2 0
10 9 13 20 18 18 8 6
8 -6 16 25 22 20 12 10
6 -2 16 26 23 20 12 10
-3 -3 19 31 25 23 15 12
-1 3 16 28 22 19 11 9
6 17 11 23 17 15 7 5
4 19 11 21 17 13 7 5
5 15 11 19 17 14 8 6
