I II V1 V2 V3 V4 V5 V6
22 13 -13 41 18 38 18 9
25 13 -14 38 16 37 16 9
31 14 -15 40 14 37 15 8
33 17 -16 38 11 35 14 9
31 17 -15 35 9 32 14 8
20 16 -9 40 13 36 17 12
10 13 1 43 16 39 19 15
14 13 0 38 13 36 15 10
18 14 -1 37 11 33 13 6
14 11 1 38 12 33 12 5
13 10 3 38 11 32 11 4
11 13 3 39 10 31 11 6
7 11 4 38 9 32 9 5
8 9 4 37 8 31 9 5
8 9 3 36 6 28 7 3
10 8 2 34 4 25 4 -2
6 7 5 33 6 25 4 -3
1 7 6 35 9 24 4 -2
5 6 4 31 5 22 1 -5
8 2 3 29 3 21 -1 -7
7 -1 3 30 4 21 -1 -8
4 -1 6 31 4 21 1 -6
-4 -3 10 33 4 21 2 -4
-3 -4 9 31 2 19 0 -6
0 -6 9 30 2 18 -1 -7
-4 -10 7 28 1 16 -4 -9
-7 -11 8 27 2 17 -3 -9
-10 -10 7 26 0 15 -5 -8
-7 -10 8 25 0 13 -5 -9
-3 -7 5 22 -2 12 -8 -10
-4 -7 4 22 -2 10 -9 -12
-2 -6 6 22 -2 9 -8 -11
1 -7 7 24 -3 8 -9 -11
4 -9 6 23 -4 4 -12 -13
12 -8 4 21 -6 3 -15 -15
6 -7 5 22 -5 4 -13 -15
-7 -9 8 25 -3 5 -10 -11
-10 -10 10 26 1 6 -8 -9
-12 -12 10 27 6 6 -8 -8
-14 -10 10 27 7 6 -7 -7
-5 -8 8 25 8 4 -8 -9
-8 -11 8 26 8 5 -6 -6
-7 -12 10 28 9 4 -7 -6
0 -10 9 26 9 2 -7 -7
3 -10 6 24 8 1 -8 -8
0 -8 7 26 4 1 -7 -8
-11 -8 11 32 7 6 -3 -5
-13 -9 8 31 7 6 -3 -4
-11 -6 7 31 6 4 -5 -5
-10 -7 6 28 3 1 -8 -7
-7 -6 4 26 0 -1 -8 -8
0 -7 2 25 -2 -2 -10 -10
8 -10 1 23 -2 -3 -11 -9
4 -10 3 25 1 0 -8 -6
-9 -10 7 30 6 3 -5 -3
-11 -11 9 34 9 6 -3 -1
-9 -9 6 31 6 3 -5 -4
-7 -8 3 29 4 1 -6 -6
0 -8 1 24 2 -2 -9 -7
4 -6 -1 23 1 -2 -11 -7
-7 -9 0 26 4 0 -7 -5
-17 -11 3 28 7 2 -5 -3
-17 -9 4 29 4 2 -6 -4
-13 -7 4 27 3 0 -7 -5
-9 -6 6 26 3 1 -6 -5
-6 -6 7 27 5 2 -6 -6
-3 -4 5 25 3 0 -8 -7
-3 -5 3 22 0 -3 -9 -8
-4 -4 3 21 1 -3 -10 -9
-4 -3 3 20 2 -1 -10 -10
-9 -7 3 22 3 -1 -8 -9
-9 -6 3 23 1 -3 -11 -10
-5 -5 5 21 1 -4 -9 -8
-6 -6 5 21 0 -6 -9 -8
-5 -5 5 19 -3 -8 -12 -12
-2 -6 4 18 -4 -11 -13 -12
-5 -10 7 19 -2 -9 -9 -8
-6 -8 5 19 -2 -7 -9 -8
0 -8 4 17 -2 -8 -11 -10
1 -8 6 19 1 -5 -9 -7
-2 -3 9 20 3 -3 -5 -3
-1 -4 8 19 2 -4 -6 -5
0 -2 8 21 1 -5 -6 -4
0 -2 8 20 1 -6 -7 -4
-3 1 11 21 2 -6 -5 -2
-1 5 13 24 3 -4 -4 0
1 4 15 23 5 -3 -2 0
1 4 16 25 7 -3 -1 2
-1 7 17 26 8 -3 -1 2
4 7 16 24 5 -4 -3 0
6 9 17 25 5 -5 -2 1
4 9 17 25 5 -4 -2 0
3 14 16 25 6 -1 1 3
6 20 17 25 7 0 1 3
5 22 20 26 9 1 2 7
7 25 20 24 7 1 2 6
9 28 17 22 2 -1 2 5
11 29 14 18 -1 -1 1 5
8 29 13 17 -2 1 2 8
1 30 11 17 -2 3 3 10
5 29 6 14 -4 2 3 12
13 31 3 13 -6 0 2 9
9 29 4 13 -9 1 1 9
6 31 6 14 -8 2 2 10
9 33 7 14 -8 1 2 10
9 31 5 12 -11 -2 -2 4
8 27 4 8 -7 -3 -2 4
8 21 2 7 1 -5 -3 1
9 19 1 6 1 -5 -4 0
9 19 1 5 1 -5 -6 -1
6 17 2 7 0 -6 -7 -2
7 16 2 5 -2 -10 -8 -3
16 15 -1 3 -4 -13 -10 -6
16 12 -5 1 -7 -16 -12 -8
4 10 -1 4 -3 -10 -9 -4
-2 9 0 5 -1 -10 -9 -4
-5 7 0 4 -2 -10 -9 -5
-5 4 -2 1 -5 -12 -13 -7
-5 -2 -2 0 -8 -13 -14 -5
-1 -2 -2 -2 -10 -15 -17 -9
0 -4 -4 -7 -15 -19 -20 -12
-3 -5 -3 -8 -18 -22 -20 -14
-4 -6 -1 -7 -16 -21 -19 -14
-3 -6 -2 -8 -17 -22 -19 -15
0 -7 -3 -7 -19 -24 -20 -16
-1 -6 -4 -9 -19 -25 -21 -16
-7 -9 -4 -11 -19 -24 -21 -15
-6 -9 -5 -10 -21 -24 -21 -16
-6 -7 -7 -13 -21 -25 -22 -15
-4 -7 -10 -16 -24 -27 -23 -18
1 -7 -9 -15 -24 -27 -22 -15
6 -8 -12 -18 -29 -31 -25 -19
4 -11 -12 -19 -31 -32 -26 -21
-4 -13 -8 -17 -28 -29 -23 -18
-4 -15 -8 -17 -28 -29 -24 -18
1 -12 -7 -17 -29 -31 -25 -18
-10 -14 -5 -13 -25 -25 -19 -13
-15 -16 -4 -14 -24 -24 -19 -13
-13 -13 -6 -15 -26 -24 -19 -12
-11 -13 -8 -17 -27 -26 -20 -14
-11 -13 -10 -16 -28 -27 -23 -17
-10 -11 -10 -17 -27 -27 -22 -17
-8 -12 -11 -20 -31 -31 -24 -18
-6 -14 -11 -19 -33 -31 -25 -19
-4 -15 -10 -19 -31 -33 -26 -21
-4 -16 -10 -20 -31 -35 -26 -21
-6 -15 -7 -19 -29 -34 -24 -18
-10 -13 -7 -20 -28 -33 -22 -18
-10 -15 -7 -18 -27 -32 -21 -17
-8 -16 -7 -17 -25 -29 -20 -16
-6 -15 -10 -20 -27 -30 -19 -16
-2 -13 -11 -19 -29 -31 -20 -19
3 -14 -15 -23 -31 -34 -25 -22
6 -17 -16 -25 -33 -35 -26 -23
-1 -16 -12 -19 -30 -32 -22 -17
-11 -15 -10 -15 -27 -28 -19 -15
-10 -17 -9 -17 -29 -29 -19 -16
-10 -17 -8 -19 -32 -29 -20 -16
-8 -16 -7 -14 -30 -30 -22 -19
-5 -20 -2 -4 -25 -26 -23 -22
-2 -29 4 9 -15 -22 -23 -26
-1 -36 12 28 -5 -15 -21 -29
4 -36 18 40 3 -10 -20 -31
3 -27 27 55 18 -1 -16 -30
2 -18 39 79 38 14 -6 -25
9 -3 47 98 61 33 6 -17
11 13 51 108 80 51 22 -4
15 29 51 113 96 71 43 13
22 49 43 104 107 92 67 34
31 73 32 76 103 106 91 55
41 96 11 37 94 118 115 78
43 115 -25 -19 74 130 145 112
43 139 -61 -69 57 141 176 146
45 155 -97 -123 29 136 188 166
28 168 -124 -188 -18 113 188 182
16 180 -149 -235 -50 100 192 196
13 183 -175 -268 -74 90 192 202
15 169 -190 -280 -93 78 186 199
18 143 -204 -297 -135 32 155 179
7 114 -213 -322 -201 -55 92 145
-5 78 -211 -324 -240 -117 34 104
-8 44 -198 -304 -245 -142 -3 67
-12 13 -179 -273 -231 -148 -31 35
-15 -13 -152 -237 -209 -143 -50 6
-20 -31 -123 -201 -185 -130 -59 -15
-23 -41 -98 -170 -161 -120 -64 -31
-13 -46 -82 -147 -143 -112 -67 -39
0 -46 -74 -131 -131 -104 -66 -44
5 -40 -60 -113 -114 -92 -60 -43
-17 -36 -40 -82 -89 -71 -44 -32
-33 -31 -25 -60 -68 -52 -32 -24
-24 -22 -19 -48 -58 -46 -25 -22
-20 -17 -16 -40 -50 -39 -21 -19
-19 -17 -12 -34 -41 -33 -19 -15
-14 -16 -8 -28 -37 -29 -19 -17
-12 -18 -9 -25 -32 -26 -17 -18
-8 -17 -8 -23 -31 -22 -16 -18
-8 -15 -7 -20 -28 -20 -16 -18
-13 -15 -4 -19 -27 -20 -15 -18
-13 -17 -4 -19 -29 -23 -16 -21
-15 -23 -1 -18 -28 -21 -15 -18
-11 -21 0 -17 -28 -21 -14 -18
-10 -16 0 -16 -26 -23 -14 -18
-11 -15 0 -16 -28 -24 -16 -19
-4 -17 -1 -18 -28 -23 -17 -21
3 -17 -4 -21 -29 -23 -20 -25
-4 -17 2 -16 -22 -17 -15 -20
-11 -17 10 -9 -16 -10 -10 -15
-10 -19 11 -7 -17 -8 -9 -17
-6 -19 11 -9 -19 -10 -10 -18
-11 -17 13 -7 -20 -10 -10 -17
-14 -17 15 -4 -19 -9 -9 -15
-8 -16 15 -5 -18 -9 -10 -16
-9 -16 14 -4 -18 -9 -11 -17
-13 -20 12 -3 -15 -9 -11 -16
-13 -19 10 -4 -15 -8 -10 -17
-11 -14 6 -6 -17 -7 -10 -17
-9 -11 7 -5 -17 -5 -9 -16
-7 -11 7 -4 -16 -3 -8 -15
-8 -14 7 -3 -16 -2 -7 -14
-7 -12 8 -1 -16 -2 -6 -13
-8 -15 8 -1 -16 -4 -7 -14
-8 -17 8 0 -16 -4 -6 -13
-7 -14 9 3 -14 -2 -6 -13
-7 -15 7 2 -13 0 -6 -14
-7 -15 4 1 -15 -1 -7 -14
-7 -16 3 1 -14 0 -8 -16
-9 -15 4 1 -15 2 -6 -17
-5 -12 4 2 -12 4 -5 -17
-4 -15 6 5 -12 7 -2 -14
-1 -17 7 7 -12 7 -4 -17
0 -15 9 9 -10 7 -3 -16
5 -16 6 7 -11 6 -6 -18
11 -16 3 5 -15 0 -8 -22
6 -16 4 6 -13 3 -6 -21
-3 -16 8 10 -8 7 -2 -17
-7 -13 11 14 -4 12 3 -13
-9 -14 10 13 -4 13 2 -13
-7 -14 9 14 -3 14 3 -14
0 -10 7 15 -5 14 4 -15
-4 -11 10 18 -2 17 6 -14
-2 -12 10 20 -2 16 5 -13
5 -10 10 19 -1 13 3 -16
3 -11 9 19 0 14 4 -16
8 -12 9 21 2 17 5 -16
9 -16 8 22 3 18 8 -15
7 -17 9 22 4 19 8 -15
9 -14 9 22 4 21 8 -13
4 -14 10 25 6 23 11 -9
-7 -13 12 29 9 25 14 -6
-5 -11 14 34 12 26 14 -6
4 -7 16 36 12 24 14 -7
4 -3 14 35 12 22 15 -7
4 -3 11 36 13 23 16 -8
1 -8 12 37 18 26 17 -8
0 -10 12 38 19 26 19 -7
3 -8 9 38 19 24 17 -10
4 -9 9 38 19 25 18 -9
8 -6 7 37 20 26 19 -8
13 -5 5 39 19 27 21 -8
14 -2 7 44 21 30 23 -6
1 -5 12 51 28 36 29 1
2 -3 14 52 32 37 31 2
10 -2 13 52 32 38 29 2
10 -7 12 51 30 39 29 3
13 -5 9 50 29 38 28 2
17 -4 7 49 28 38 28 2
18 -3 5 48 25 39 26 0
18 0 7 48 25 39 27 1
15 0 8 49 26 38 30 4
11 0 10 51 26 37 30 6
11 -1 9 52 25 37 32 8
18 -1 9 51 26 36 31 8
20 3 8 53 27 39 31 8
16 4 8 54 28 40 33 9
16 2 7 52 29 41 34 10
20 5 6 49 26 41 34 11
21 1 4 48 24 40 34 10
21 0 5 45 21 37 34 10
29 0 2 40 15 31 30 8
39 0 -4 35 7 25 25 2
49 4 -9 32 3 22 23 0
26 8 -2 37 12 28 29 8
-5 4 5 45 20 37 37 16
1 2 1 43 19 36 36 14
9 2 -2 37 14 32 32 9
10 3 -4 34 11 31 29 10
10 4 -4 34 10 30 28 11
10 4 -3 32 7 29 29 12
13 4 -5 30 5 27 27 11
15 1 -6 28 1 23 23 5
9 1 -6 28 1 21 23 6
1 5 0 33 5 24 27 11
3 2 -1 30 6 23 25 8
6 -3 1 29 5 24 25 8
10 -2 -1 26 1 21 21 5
8 -1 -1 23 0 18 17 3
4 -2 4 26 2 19 21 6
2 -3 6 25 2 19 21 8
-1 -4 6 24 1 18 20 6
1 -1 7 24 0 16 17 4
3 0 6 24 0 13 15 1
5 -2 3 22 -4 10 11 -1
10 -4 2 20 -4 7 10 -3
-1 -6 5 22 -2 2 10 -2
-15 -7 10 26 3 2 13 0
-15 -9 11 23 2 -1 11 -3
-9 -9 10 21 0 -4 8 -5
-7 -7 10 22 -2 -6 8 -5
-5 -8 9 20 -4 -9 8 -6
-2 -8 8 18 -6 -12 5 -8
-3 -10 9 21 -6 -14 4 -8
-10 -11 12 21 -3 -15 4 -6
-11 -10 12 19 -3 -15 3 -7
-9 -10 10 16 -6 -19 -1 -12
-4 -13 8 12 -10 -23 -4 -16
-6 -15 10 12 -9 -23 -5 -15
-18 -17 13 16 -6 -20 -2 -13
-18 -14 15 15 -8 -20 -1 -12
-16 -9 13 14 -9 -21 -1 -12
-15 -10 14 14 -10 -23 -3 -14
-8 -13 15 14 -12 -25 -6 -14
-2 -13 14 11 -13 -28 -7 -14
0 -13 15 11 -15 -29 -7 -14
-7 -13 15 12 -13 -28 -6 -14
-11 -15 15 13 -12 -25 -3 -12
-7 -13 16 13 -10 -25 -3 -10
-4 -14 16 13 -10 -25 -4 -12
-10 -17 16 14 -9 -26 -2 -10
-15 -15 18 15 -6 -23 1 -6
-19 -16 20 19 -4 -21 2 -5
-21 -17 22 21 -3 -19 3 -4
-16 -13 21 20 -2 -20 3 -5
-15 -15 21 17 -4 -20 -2 -8
-16 -16 26 18 -3 -19 -3 -8
-13 -16 24 15 -4 -19 -5 -10
-6 -17 21 11 -8 -21 -8 -9
-1 -17 20 11 -10 -22 -8 -6
-6 -17 22 13 -9 -22 -8 -3
-20 -16 27 16 -3 -17 -3 2
-25 -14 27 18 -3 -17 -2 0
-21 -13 23 16 -5 -20 -5 -4
-17 -8 23 16 -3 -20 -4 -2
-15 -10 24 17 -1 -17 -1 -1
-16 -12 25 19 2 -15 -1 -1
-15 -14 24 17 0 -16 -2 -3
-14 -14 21 14 -2 -20 -3 -6
-12 -13 21 15 -1 -21 -4 -8
-11 -11 20 15 0 -20 -3 -7
-12 -10 18 13 -1 -20 -4 -7
-13 -7 21 14 -1 -20 -4 -7
-14 -8 23 16 -1 -19 -5 -8
-12 -15 23 16 -1 -21 -6 -6
-14 -15 25 14 1 -20 -6 -6
-15 -15 25 15 4 -18 -3 -3
-8 -13 23 13 1 -17 -4 -4
-5 -9 23 11 1 -17 -6 -5
-8 -12 23 12 1 -17 -6 -7
-10 -11 24 13 1 -16 -5 -5
-15 -13 25 14 3 -13 -3 -4
-15 -12 24 13 2 -15 -4 -5
-12 -12 24 14 1 -18 -5 -4
-11 -12 25 13 2 -20 -7 -3
-10 -12 25 13 2 -17 -6 -4
-8 -11 26 14 3 -13 -5 -3
-8 -9 25 13 4 -10 -4 -2
-8 -5 24 14 5 -8 -5 -1
-4 -3 23 12 3 -7 -6 -3
-3 1 23 13 2 -7 -5 -2
-9 0 27 17 6 -3 0 1
-4 0 28 17 7 -3 -2 0
9 4 25 15 4 -5 -3 -2
4 5 28 20 7 -2 0 0
-7 2 34 24 12 1 2 0
-11 2 37 25 15 5 2 2
-14 3 38 27 17 7 6 8
-15 8 38 26 19 8 7 11
-12 14 38 26 19 8 9 10
-10 18 38 25 18 8 7 12
-7 24 38 23 17 7 8 12
-5 27 39 22 15 5 7 10
-5 27 36 19 14 4 8 12
-2 27 33 16 14 5 7 11
-2 25 29 13 13 3 4 8
3 24 28 12 14 3 3 6
9 25 22 8 10 0 1 4
10 21 21 6 8 0 0 3
3 23 23 7 11 2 1 3
-9 24 26 10 13 7 5 9
-6 22 24 7 10 3 3 6
2 22 21 4 4 -1 0 3
3 19 21 4 4 -2 0 2
0 17 21 4 6 0 2 3
-4 15 22 6 8 1 4 4
-5 12 21 4 5 -3 -1 1
-1 8 21 4 3 -5 -3 -1
-3 0 24 4 5 -5 -5 0
-10 -3 23 1 3 -7 -7 -4
-11 -2 23 2 3 -8 -9 -5
-9 -3 20 2 0 -11 -11 -7
-10 -5 18 0 -3 -14 -14 -10
-9 -6 18 -1 -3 -15 -15 -12
-8 -7 15 -5 -5 -18 -16 -14
-11 -10 15 -4 -4 -18 -17 -14
-14 -14 17 -4 -4 -19 -16 -15
-13 -17 12 -7 -9 -22 -19 -18
-9 -18 11 -10 -10 -24 -20 -18
-6 -18 10 -10 -10 -23 -19 -17
-7 -17 10 -10 -9 -21 -18 -18
-4 -17 10 -10 -12 -22 -20 -18
1 -18 7 -13 -15 -25 -24 -24
0 -17 10 -10 -11 -22 -22 -21
-14 -22 16 -7 -6 -18 -19 -15
-15 -20 14 -7 -8 -18 -19 -15
-11 -19 12 -9 -9 -20 -22 -17
-5 -17 7 -14 -13 -23 -25 -20
1 -16 5 -16 -15 -23 -26 -21
-8 -17 6 -13 -12 -21 -24 -20
-19 -18 8 -11 -9 -18 -21 -19
-19 -17 8 -12 -11 -18 -19 -17
-15 -17 7 -12 -11 -18 -20 -17
-14 -21 6 -13 -13 -19 -21 -19
-7 -20 4 -16 -15 -21 -25 -21
-4 -22 3 -17 -14 -20 -24 -22
-13 -23 9 -12 -10 -15 -21 -19
-13 -20 8 -13 -10 -13 -21 -20
-12 -20 4 -16 -14 -16 -25 -23
-6 -20 1 -20 -16 -18 -26 -26
-2 -21 -2 -23 -19 -19 -27 -28
-1 -20 1 -20 -16 -16 -26 -26
-3 -18 4 -18 -13 -15 -25 -25
-3 -21 2 -19 -15 -16 -25 -26
-11 -22 7 -15 -10 -12 -21 -23
-18 -19 9 -14 -8 -12 -20 -20
-16 -18 6 -16 -11 -14 -24 -22
-17 -20 5 -17 -10 -14 -22 -22
-17 -23 5 -18 -11 -15 -26 -22
-14 -21 5 -19 -10 -14 -24 -22
-11 -20 5 -17 -10 -11 -22 -21
-8 -21 5 -16 -10 -11 -21 -20
-8 -21 3 -17 -10 -13 -24 -24
-11 -22 5 -13 -8 -12 -24 -25
-7 -25 5 -8 -8 -15 -27 -29
-2 -27 11 6 2 -9 -27 -32
1 -26 18 22 14 0 -28 -36
5 -26 23 35 23 6 -25 -36
8 -24 31 52 36 16 -23 -35
10 -17 42 70 53 27 -18 -34
14 -3 52 92 75 43 -8 -29
24 12 57 104 94 59 6 -17
30 29 58 109 109 76 23 -2
31 44 53 107 120 98 47 17
29 64 42 85 121 118 74 43
29 84 23 49 111 134 101 67
38 105 -16 -8 93 147 131 96
49 130 -63 -70 65 154 158 127
62 151 -104 -123 41 156 175 149
60 164 -136 -190 -5 138 178 165
36 178 -161 -249 -44 120 183 182
15 186 -181 -284 -67 115 190 198
9 182 -197 -302 -84 105 189 200
10 164 -214 -318 -118 70 165 185
4 134 -225 -339 -181 -13 108 158
-4 101 -224 -345 -233 -96 42 119
-3 67 -216 -331 -250 -136 -5 78
-2 34 -196 -300 -237 -143 -34 44
-6 2 -170 -262 -213 -139 -56 10
-10 -20 -138 -224 -184 -126 -68 -14
-12 -30 -112 -189 -157 -113 -75 -31
-15 -35 -88 -159 -135 -101 -76 -38
-13 -32 -71 -134 -112 -86 -68 -36
-10 -31 -58 -114 -96 -74 -61 -35
-3 -29 -47 -93 -79 -62 -55 -33
-3 -19 -35 -74 -62 -49 -49 -31
-6 -13 -26 -61 -47 -39 -41 -29
-5 -6 -22 -52 -38 -31 -35 -27
0 -5 -21 -48 -32 -26 -33 -26
14 -8 -22 -47 -28 -26 -35 -30
25 -5 -22 -45 -26 -24 -35 -32
8 -1 -14 -36 -18 -15 -30 -25
-17 0 -4 -24 -8 -5 -20 -16
-7 2 -4 -25 -10 -7 -23 -20
0 2 -6 -25 -11 -10 -24 -21
4 2 -5 -24 -10 -8 -25 -21
5 -2 -4 -23 -6 -9 -25 -22
1 -2 -2 -21 0 -9 -24 -20
0 -1 0 -22 2 -7 -23 -20
2 -5 0 -21 3 -5 -24 -21
9 -3 -2 -24 0 -7 -27 -25
3 -2 -1 -22 1 -6 -27 -25
-3 -4 1 -20 2 -5 -23 -22
-3 -2 2 -20 2 -5 -23 -21
-1 2 3 -20 1 -6 -24 -22
3 4 4 -18 2 -6 -23 -22
1 5 6 -16 5 -3 -22 -21
-6 4 6 -16 5 -4 -23 -21
-5 2 4 -17 5 -5 -24 -23
-3 2 3 -17 4 -5 -25 -24
0 5 2 -18 5 -2 -23 -24
4 7 4 -17 7 -2 -21 -23
3 6 3 -16 8 -2 -21 -22
2 4 3 -14 9 -1 -20 -20
3 5 4 -14 9 -1 -21 -19
3 6 5 -12 9 -2 -22 -20
5 8 6 -12 11 -1 -21 -19
4 8 8 -11 14 1 -20 -18
4 9 6 -13 14 0 -22 -20
6 11 6 -11 17 2 -21 -20
5 13 3 -13 16 2 -21 -21
5 13 4 -13 16 1 -20 -19
7 14 4 -11 16 2 -20 -20
6 12 4 -11 15 0 -22 -21
6 10 4 -11 16 -1 -22 -19
8 13 5 -9 18 -1 -20 -18
9 14 7 -7 20 1 -18 -17
12 16 7 -7 21 1 -19 -19
12 16 7 -7 21 1 -18 -18
13 14 6 -5 23 4 -17 -18
17 13 5 -6 22 5 -17 -19
23 12 1 -9 17 0 -23 -24
22 12 1 -8 17 1 -23 -24
15 13 4 -4 19 6 -17 -21
10 13 8 1 23 9 -13 -15
9 16 8 1 22 8 -15 -17
7 17 8 1 23 9 -15 -18
7 14 10 2 26 10 -14 -16
7 15 11 4 30 14 -12 -14
7 15 11 5 31 16 -12 -15
9 16 10 5 31 18 -12 -16
13 18 9 4 30 18 -13 -17
21 19 7 5 30 19 -13 -17
25 19 7 6 30 19 -11 -17
26 14 6 8 31 20 -11 -15
31 16 6 10 33 21 -10 -15
29 20 6 11 36 22 -9 -15
25 19 9 14 40 26 -6 -12
17 19 11 19 45 30 -4 -9
10 21 10 22 48 32 -1 -10
16 20 8 23 48 32 -1 -11
24 21 5 21 45 31 -3 -13
19 21 6 24 48 36 1 -8
14 22 9 30 51 40 4 -6
18 23 8 32 53 41 5 -5
23 25 6 31 52 41 3 -6
22 27 5 31 54 41 4 -6
25 27 3 29 53 39 3 -7
20 27 5 33 57 44 5 -3
20 29 3 35 59 46 7 -1
25 28 0 33 59 46 8 -2
28 32 -1 35 60 47 8 0
28 33 -2 37 59 48 11 3
27 31 -2 36 58 48 11 4
27 32 -1 39 59 50 13 6
27 34 -2 38 57 49 12 6
31 36 -3 38 58 49 12 6
29 35 -3 37 57 49 11 7
28 33 -4 36 57 48 11 6
29 34 -6 35 56 49 13 8
29 35 -9 31 54 48 12 6
29 32 -10 29 50 46 11 6
30 31 -8 31 50 46 13 6
35 36 -10 29 48 44 13 8
38 38 -10 29 48 42 13 10
38 40 -12 28 45 39 10 9
35 37 -12 26 43 38 11 8
33 39 -13 23 41 36 10 8
31 40 -16 20 38 34 7 7
31 37 -17 20 38 34 8 8
33 34 -16 19 38 34 9 8
32 34 -18 17 35 34 8 8
32 35 -19 17 33 33 10 8
32 39 -19 14 31 32 8 6
35 38 -19 12 30 32 8 7
41 39 -18 13 30 29 8 10
41 37 -16 12 29 27 8 9
40 36 -15 13 30 24 6 8
40 35 -16 14 29 25 4 8
30 35 -13 16 32 28 5 10
20 34 -12 14 31 29 8 10
21 34 -14 12 28 26 5 9
26 34 -17 7 24 20 0 3
25 35 -14 8 24 20 0 2
22 37 -11 8 24 19 0 3
19 38 -10 7 23 16 -2 4
23 38 -9 7 22 16 -2 2
19 33 -9 6 22 14 -3 1
19 31 -9 5 22 13 -6 1
19 31 -9 3 21 13 -5 -1
13 28 -8 3 21 13 -4 -1
7 27 -9 4 20 12 -5 1
6 27 -11 2 17 9 -6 0
9 25 -10 2 14 7 -8 -4
10 26 -9 0 13 5 -9 -6
9 25 -9 0 13 3 -10 -5
9 24 -9 -1 12 1 -13 -7
10 24 -7 0 13 2 -13 -8
9 25 -9 -3 12 1 -15 -7
15 27 -11 -6 9 0 -15 -9
15 25 -11 -7 9 -1 -15 -10
11 23 -13 -7 9 1 -14 -7
10 24 -11 -5 10 1 -11 -6
12 25 -13 -4 7 0 -14 -10
10 23 -14 -5 7 -1 -13 -10
4 19 -11 -2 9 1 -11 -5
3 19 -12 -4 7 -2 -13 -8
3 18 -11 -4 7 -3 -14 -11
4 19 -13 -7 7 -2 -12 -11
3 17 -13 -7 6 -1 -14 -11
7 17 -15 -9 5 -2 -14 -13
3 17 -16 -9 3 -1 -13 -11
3 18 -16 -11 2 -2 -14 -11
4 16 -14 -8 3 0 -14 -10
3 14 -15 -7 3 0 -14 -11
3 15 -15 -6 2 -1 -14 -9
1 14 -14 -6 4 0 -13 -9
2 16 -14 -6 3 1 -14 -12
5 18 -12 -3 6 1 -12 -10
6 16 -13 -4 7 1 -14 -11
7 15 -11 -4 8 2 -12 -11
8 12 -11 -2 8 1 -12 -11
13 14 -16 -7 3 -3 -16 -15
22 18 -17 -9 0 -6 -21 -19
20 19 -18 -8 1 -7 -19 -21
4 17 -14 -3 5 -3 -16 -13
0 18 -11 -2 6 -2 -15 -12
9 17 -11 -3 5 -2 -15 -14
9 19 -10 -3 8 -2 -15 -12
7 20 -12 -5 7 -3 -17 -12
1 17 -11 -5 9 -1 -13 -12
7 18 -12 -5 8 -1 -14 -11
12 17 -14 -7 6 -3 -16 -13
3 18 -11 -3 6 -1 -13 -14
5 21 -9 -3 6 1 -13 -11
2 21 -9 -2 6 2 -14 -11
-1 20 -9 -3 7 1 -12 -13
-1 19 -8 -2 7 2 -12 -13
-5 18 -8 -1 7 1 -12 -11
-3 20 -8 -2 7 1 -13 -13
-5 20 -8 -4 7 2 -12 -13
-6 21 -8 -3 5 2 -13 -12
-3 23 -10 -5 3 0 -14 -14
-1 22 -9 -4 3 1 -12 -13
9 26 -12 -8 1 -1 -15 -17
7 23 -11 -5 5 -1 -14 -14
4 19 -9 -3 7 1 -13 -13
-4 19 -2 3 12 6 -8 -7
-6 20 -3 2 12 7 -8 -7
-3 19 -3 0 11 6 -9 -9
-2 21 -3 -1 11 7 -9 -9
-3 21 -4 0 8 6 -9 -8
1 22 -5 -2 8 6 -9 -8
-1 23 -2 1 10 9 -10 -6
-5 26 2 4 12 11 -6 -3
0 32 5 5 14 12 -6 -3
1 30 5 4 15 11 -7 -4
3 31 6 6 18 12 -6 -4
5 33 5 8 18 14 -5 -4
7 34 5 8 19 14 -5 -3
9 36 6 8 21 16 -2 -2
5 38 5 8 20 15 -3 -3
4 42 11 9 21 18 0 0
5 44 19 11 22 21 3 4
3 43 19 9 20 19 2 5
5 44 17 6 17 17 1 4
7 45 16 3 18 16 1 3
8 43 14 2 16 16 2 2
10 43 13 1 15 16 2 2
8 41 8 -2 14 14 -2 1
10 42 7 -3 14 13 -3 1
12 45 9 -3 14 15 -2 2
13 44 7 -8 10 12 -4 1
17 39 4 -11 6 10 -7 -3
23 35 1 -15 1 6 -8 -6
14 31 4 -10 5 9 -4 -3
11 30 8 -8 7 11 -1 -1
5 28 9 -6 8 10 -3 -1
3 26 7 -7 6 9 -5 -3
6 24 6 -8 5 6 -7 -7
4 18 5 -10 1 4 -9 -11
1 17 5 -9 -1 4 -11 -13
1 15 5 -9 -3 2 -12 -14
-5 11 5 -8 -2 2 -12 -13
-9 9 7 -8 -3 3 -11 -13
-3 7 4 -10 -7 -2 -16 -17
0 2 3 -12 -9 -3 -18 -18
-8 1 6 -11 -8 -3 -16 -18
-7 -2 4 -14 -11 -6 -21 -20
-1 -4 3 -16 -11 -7 -22 -22
-2 -5 3 -16 -13 -7 -20 -20
-2 -7 3 -17 -14 -6 -22 -20
-11 -11 7 -14 -10 -3 -18 -17
-17 -13 11 -11 -7 -1 -16 -12
-11 -12 8 -15 -12 -4 -19 -15
-14 -12 10 -14 -12 -5 -19 -15
-15 -16 11 -14 -14 -7 -22 -15
-14 -18 11 -14 -14 -7 -21 -16
-15 -21 9 -15 -14 -7 -21 -16
-16 -25 9 -13 -11 -7 -21 -14
-13 -23 10 -14 -13 -7 -19 -15
-12 -23 8 -15 -16 -8 -21 -15
-13 -23 7 -15 -16 -9 -20 -16
-14 -23 7 -15 -18 -9 -21 -17
-18 -23 9 -15 -18 -8 -20 -16
-13 -21 7 -16 -20 -10 -22 -19
-13 -22 7 -16 -19 -10 -22 -19
-15 -26 12 -14 -17 -9 -20 -19
-13 -24 11 -15 -18 -12 -21 -21
-14 -25 12 -16 -17 -14 -24 -21
-15 -27 13 -16 -18 -14 -22 -21
-15 -26 14 -14 -17 -12 -21 -20
-14 -27 14 -15 -18 -12 -19 -20
-12 -24 14 -14 -18 -15 -22 -21
-8 -22 13 -13 -19 -16 -20 -22
-7 -23 12 -14 -20 -18 -20 -22
-5 -22 12 -15 -20 -20 -21 -22
-2 -24 11 -18 -22 -23 -24 -25
1 -24 8 -20 -25 -26 -26 -27
-6 -24 11 -17 -20 -24 -24 -24
-19 -27 15 -14 -16 -20 -20 -21
-17 -25 14 -14 -15 -24 -19 -21
-15 -26 15 -13 -15 -27 -17 -21
-15 -28 17 -10 -14 -30 -18 -20
-14 -28 18 -9 -15 -31 -18 -20
-8 -28 17 -12 -15 -35 -21 -24
-9 -27 22 -5 -5 -34 -20 -23
-14 -30 29 7 5 -30 -17 -26
-6 -32 31 20 9 -28 -21 -30
-3 -32 36 34 17 -23 -19 -32
-3 -35 43 46 26 -16 -16 -33
8 -31 51 62 40 -9 -14 -35
18 -19 62 86 62 4 -5 -29
8 -6 75 108 89 26 13 -13
7 10 80 118 107 44 32 3
14 29 74 114 114 61 49 20
16 50 65 91 115 77 73 40
27 72 49 52 106 89 96 64
37 93 15 2 91 101 121 90
43 118 -24 -57 72 112 148 120
47 138 -62 -108 51 117 173 149
43 152 -94 -166 16 102 181 165
27 166 -119 -223 -23 83 184 182
16 174 -141 -264 -50 71 188 195
9 171 -159 -284 -69 62 188 200
13 153 -176 -288 -83 53 183 196
10 127 -190 -305 -125 1 145 175
1 98 -190 -320 -184 -82 84 141
-8 64 -186 -322 -220 -143 29 103
-8 32 -175 -301 -224 -169 -12 64
-10 4 -151 -266 -208 -172 -35 34
-12 -18 -124 -227 -184 -164 -50 11
-20 -37 -96 -188 -159 -152 -57 -8
-28 -45 -70 -152 -134 -138 -60 -22
-29 -46 -52 -127 -113 -126 -57 -26
-24 -42 -35 -102 -94 -112 -47 -22
-19 -36 -22 -79 -78 -99 -40 -21
-18 -32 -11 -58 -63 -89 -33 -19
-17 -23 -2 -46 -50 -80 -30 -18
-15 -23 3 -40 -41 -74 -27 -19
-9 -29 7 -34 -34 -69 -24 -15
-2 -24 7 -30 -31 -66 -24 -16
-2 -24 10 -23 -21 -60 -20 -17
-5 -21 12 -16 -17 -57 -18 -17
-6 -20 15 -13 -15 -55 -15 -15
-4 -20 16 -10 -15 -58 -16 -15
2 -17 16 -10 -16 -60 -17 -17
-10 -17 21 -3 -10 -57 -13 -12
-24 -21 27 4 -1 -53 -8 -7
-22 -21 28 4 3 -54 -8 -6
-17 -21 24 1 -1 -55 -10 -7
-14 -22 22 -2 -2 -56 -11 -10
-13 -19 23 -2 0 -56 -9 -9
-11 -19 21 -3 -4 -58 -11 -13
-12 -20 24 4 -3 -56 -9 -11
-18 -22 25 5 -2 -56 -8 -11
-18 -24 26 7 -3 -57 -6 -8
-15 -23 26 9 -1 -55 -6 -8
-14 -25 24 10 0 -50 -7 -9
-15 -26 24 10 1 -47 -6 -9
-13 -26 23 10 1 -47 -7 -10
-10 -24 21 10 1 -47 -7 -12
-8 -21 22 10 3 -45 -6 -11
-9 -21 20 10 1 -45 -7 -14
-9 -22 19 12 0 -47 -6 -13
-7 -19 18 13 -1 -47 -7 -15
-12 -19 19 14 -1 -46 -7 -15
-15 -19 20 18 -2 -47 -8 -15
-12 -18 20 18 0 -48 -7 -12
-10 -18 19 15 1 -49 -7 -13
-7 -17 19 16 1 -47 -7 -15
-4 -18 17 13 -1 -48 -9 -16
-7 -20 20 15 3 -44 -7 -13
-15 -17 22 18 6 -40 -2 -8
-15 -18 22 19 6 -40 -2 -9
-9 -16 19 17 3 -44 -4 -12
-7 -15 20 21 4 -43 -3 -10
-11 -16 21 22 4 -44 -2 -8
-10 -17 21 23 4 -44 -2 -8
-8 -20 19 21 4 -45 -3 -8
-1 -21 16 18 1 -48 -6 -10
-1 -21 17 19 0 -49 -6 -11
-10 -20 20 23 6 -43 -1 -6
-11 -19 20 24 6 -40 0 -5
-1 -17 18 23 3 -44 -3 -9
-5 -16 22 26 4 -42 0 -7
-14 -14 26 32 8 -38 5 -4
-17 -12 27 35 9 -37 6 -1
-10 -14 25 33 7 -40 4 -3
-5 -14 22 33 9 -40 3 -4
-8 -16 23 35 10 -37 4 -1
-10 -14 24 37 12 -33 5 -1
-8 -11 21 36 12 -34 6 -3
-9 -12 22 38 12 -30 9 -3
-9 -13 23 41 14 -27 12 -1
-5 -9 21 40 13 -28 11 -4
3 -6 19 41 12 -28 10 -6
10 -3 20 42 12 -29 10 -6
12 -3 21 44 14 -28 10 -5
2 -1 24 48 19 -24 14 -2
-1 -1 28 53 23 -21 19 2
1 -3 26 53 25 -20 17 2
3 -4 26 55 27 -18 19 2
6 -7 25 55 27 -16 20 1
8 -4 24 57 29 -14 22 2
9 -2 24 58 28 -14 23 2
14 0 22 59 27 -18 21 2
22 1 21 60 27 -18 21 2
11 -1 25 64 31 -14 24 6
11 -2 25 65 33 -12 25 6
15 -2 24 65 33 -11 24 3
5 0 26 67 36 -7 28 9
2 1 26 68 37 -5 30 11
5 1 24 67 35 -3 31 11
2 0 24 66 33 -7 31 10
6 2 24 68 32 -6 32 11
10 6 22 68 30 -8 32 13
11 3 22 67 29 -9 33 12
15 4 20 64 28 -12 30 12
17 3 18 64 28 -13 30 14
13 1 20 65 29 -12 34 17
11 4 21 65 30 -12 34 19
11 5 16 61 27 -16 32 15
16 7 14 59 24 -7 32 15
16 7 14 57 22 9 31 14
11 5 14 58 21 17 31 17
10 7 13 57 19 19 32 17
14 7 13 54 16 20 30 16
15 10 13 55 16 21 30 17
13 11 14 55 17 23 32 18
14 10 13 53 15 21 30 17
16 9 11 50 14 21 29 15
18 8 11 49 12 21 28 16
22 10 8 47 9 19 29 15
22 11 8 48 10 20 32 17
19 10 8 47 8 20 30 17
16 8 11 49 9 21 32 18
19 10 9 45 5 18 29 17
19 8 6 40 2 13 24 13
15 5 8 42 1 13 24 15
10 3 10 44 2 14 23 15
11 3 11 44 3 16 23 17
16 7 8 39 0 12 19 13
11 4 9 38 1 15 19 12
3 4 11 39 -1 25 19 13
9 5 9 35 -4 30 16 10
16 0 6 32 -6 29 13 7
20 -1 5 29 -10 27 9 6
6 -2 10 33 -6 30 11 7
-6 -3 14 39 -3 34 12 9
-4 -4 14 36 -5 34 10 5
-8 -4 15 35 -5 34 11 5
-12 -5 15 34 -7 35 9 4
-6 -4 14 32 -9 34 9 2
-6 -3 13 29 -11 31 5 1
-5 -2 11 27 -12 31 3 -1
-8 -6 13 28 -11 29 3 -1
-9 -6 14 29 -11 28 2 -2
-10 -8 14 28 -11 27 1 -3
-11 -9 13 26 -13 25 -2 -5
-12 -11 13 27 -11 25 -2 -6
-10 -13 13 27 -8 26 -2 -7
-9 -14 12 25 -10 26 -3 -9
-7 -13 12 24 -10 25 -3 -9
-9 -12 12 24 -10 24 -4 -9
-9 -11 11 24 -7 22 -5 -10
-5 -9 10 24 -5 21 -5 -11
-3 -12 10 24 -7 19 -6 -10
-2 -12 10 22 -9 19 -5 -8
-1 -13 9 21 -9 19 -7 -9
-3 -14 9 22 -10 18 -6 -9
-8 -16 11 23 -8 22 -6 -7
-5 -17 8 19 -13 20 -8 -9
-14 -17 9 20 -12 22 -6 -8
-19 -16 11 23 -9 23 -3 -6
-16 -16 11 23 -4 22 -3 -5
-8 -12 11 22 -2 21 -4 -8
-3 -9 11 21 -2 20 -5 -8
-1 -10 9 19 -3 17 -10 -11
-1 -10 10 20 -5 19 -9 -11
-4 -9 12 21 -6 20 -5 -8
-20 -11 16 24 -1 25 -1 -3
-17 -12 15 25 -2 26 0 -4
-13 -12 12 22 -5 23 -3 -6
-9 -11 12 22 -5 22 -3 -7
-8 -10 10 21 -7 20 -6 -8
-6 -12 9 22 -9 18 -5 -7
5 -11 7 20 -11 14 -6 -9
9 -9 5 19 -12 13 -9 -10
-5 -7 10 23 -6 19 -5 -7
-14 -9 13 27 -2 23 -2 -3
-13 -8 11 24 1 25 -2 -4
-5 -5 11 24 4 25 -2 -5
-7 -7 12 25 9 25 -2 -6
-11 -9 14 26 12 25 0 -3
-8 -6 14 25 12 24 -1 -3
-7 -9 15 27 10 24 1 -3
-7 -10 15 26 6 24 1 -1
-6 -7 15 25 5 22 0 -1
-7 -7 14 26 6 22 0 -2
-4 -6 14 26 8 21 0 -1
-5 -7 14 24 6 20 -2 -2
-3 -8 11 23 5 18 -3 -3
-3 -6 12 25 11 20 0 -3
-2 -7 13 25 13 19 0 -1
0 -7 11 22 6 17 -4 -5
1 -7 11 22 5 15 -5 -5
-7 -8 14 26 7 17 -2 -2
-8 -8 15 25 8 15 -2 -1
-6 -9 15 25 8 15 -4 -2
-6 -9 15 25 7 16 -3 -1
-5 -8 14 23 6 14 -6 -3
-4 -9 12 22 4 12 -6 -3
-4 -7 12 20 3 13 -4 -3
-4 -6 13 21 2 12 -5 -3
-3 -7 13 22 1 12 -4 -3
-1 -4 12 21 -2 10 -5 -6
-4 -4 12 20 -2 9 -4 -3
-2 -4 13 21 0 10 -4 -5
1 -5 14 21 0 11 -4 -5
4 -3 13 20 -3 9 -6 -9
10 0 13 18 -3 9 -5 -8
10 0 11 16 -2 8 -5 -10
0 0 16 20 6 13 1 -5
-6 5 20 24 11 16 4 -2
-9 9 22 26 13 17 3 -2
-6 7 25 26 14 15 4 -1
-6 9 27 27 16 16 3 -1
-3 7 25 26 15 15 2 -1
-4 10 26 27 16 15 3 -1
1 12 24 24 14 14 2 -2
9 12 22 21 14 12 0 -4
14 14 20 21 14 11 -2 -4
5 17 24 24 19 16 4 1
3 23 26 27 23 18 8 5
12 27 24 25 22 17 8 4
5 27 24 25 22 16 8 4
0 29 22 23 23 16 11 7
7 27 17 19 22 14 8 6
4 26 15 17 24 14 9 5
5 25 12 15 23 15 9 6
5 25 9 14 25 15 10 6
5 26 6 12 23 13 8 4
9 25 7 11 21 12 7 3
8 22 6 10 18 11 5 1
13 19 4 8 10 8 2 -1
17 17 -2 4 4 4 -2 -4
12 17 0 6 5 4 -3 -3
5 16 4 8 8 7 1 0
0 14 4 8 9 6 0 0
-2 11 4 8 10 7 -1 -3
0 8 4 8 10 6 -2 -5
0 5 2 7 8 3 -5 -8
-1 5 1 5 3 1 -6 -10
-3 2 0 5 -3 0 -8 -12
-3 -4 0 5 -5 -3 -8 -11
-2 -2 0 2 -4 -6 -8 -12
-1 -3 1 3 -4 -7 -9 -12
-2 -6 0 1 -9 -10 -11 -14
-4 -7 -1 -1 -7 -12 -14 -17
-5 -9 -3 -5 -10 -15 -16 -18
-4 -8 -2 -7 -12 -13 -16 -16
-1 -12 -5 -8 -15 -15 -17 -19
3 -13 -6 -10 -16 -16 -17 -21
2 -12 -7 -10 -19 -16 -18 -21
-2 -12 -7 -10 -20 -17 -17 -19
-1 -11 -7 -11 -18 -18 -19 -20
6 -11 -8 -12 -18 -22 -21 -21
7 -11 -7 -12 -17 -21 -22 -22
-3 -8 -4 -10 -13 -18 -17 -20
-4 -9 -6 -10 -13 -18 -18 -19
0 -10 -9 -15 -16 -21 -23 -21
-10 -10 -6 -12 -11 -19 -20 -20
-12 -12 -5 -10 -12 -18 -18 -18
-7 -14 -8 -12 -17 -22 -22 -22
-3 -18 -9 -13 -18 -25 -24 -22
-9 -17 -8 -12 -17 -24 -22 -21
-13 -14 -2 -6 -13 -20 -17 -16
-15 -15 -2 -7 -13 -21 -18 -17
-14 -16 -3 -7 -15 -23 -19 -19
-9 -15 -3 -8 -13 -23 -19 -18
-9 -17 -4 -10 -16 -25 -20 -20
-6 -16 -6 -11 -18 -26 -22 -20
-7 -14 -7 -11 -20 -27 -22 -21
-10 -15 -8 -11 -26 -27 -22 -19
-7 -13 -9 -11 -30 -29 -21 -20
-7 -16 -8 -11 -31 -29 -21 -20
-7 -19 -6 -9 -31 -27 -21 -18
-7 -18 -5 -8 -30 -25 -21 -17
-8 -19 -4 -9 -30 -26 -20 -20
-9 -19 -6 -9 -26 -26 -22 -21
-7 -18 -7 -12 -24 -26 -22 -24
-6 -19 -6 -10 -23 -24 -22 -23
-7 -19 -6 -10 -24 -24 -21 -23
-7 -19 -6 -11 -25 -26 -24 -23
-8 -21 -4 -10 -23 -25 -22 -22
-9 -22 -4 -11 -23 -27 -25 -24
-9 -26 -2 -8 -24 -26 -25 -22
-5 -29 0 -3 -24 -27 -28 -24
-3 -34 4 6 -20 -25 -29 -30
-1 -37 8 18 -12 -22 -29 -33
-1 -38 15 33 1 -14 -25 -34
-5 -38 24 48 15 -5 -22 -33
1 -31 32 66 29 4 -17 -33
5 -18 44 90 53 22 -8 -25
5 -3 53 111 76 42 8 -11
11 16 57 116 91 59 24 2
19 35 54 109 99 76 45 18
29 53 44 83 96 89 64 38
43 77 30 47 90 101 86 58
54 99 -2 -1 79 113 110 84
54 122 -36 -54 64 126 140 117
52 147 -70 -101 48 134 163 145
50 162 -100 -159 13 121 171 163
30 177 -122 -211 -18 105 177 181
11 185 -139 -242 -37 99 184 198
9 179 -156 -261 -55 91 183 199
19 162 -178 -270 -72 78 173 189
3 133 -189 -289 -117 25 133 167
-15 99 -190 -308 -178 -55 70 130
-17 66 -185 -309 -210 -106 18 91
-17 33 -175 -291 -216 -129 -20 54
-17 2 -157 -261 -205 -132 -42 22
-22 -21 -132 -226 -183 -127 -57 -1
-28 -35 -107 -191 -160 -118 -66 -19
-30 -40 -83 -157 -138 -107 -67 -28
-29 -40 -64 -129 -113 -91 -60 -28
-28 -34 -51 -106 -94 -79 -53 -27
-24 -30 -39 -86 -83 -69 -48 -26
-22 -27 -29 -67 -68 -59 -45 -27
-21 -21 -20 -54 -53 -49 -38 -25
-21 -18 -16 -47 -46 -45 -35 -24
-18 -16 -12 -40 -39 -39 -32 -23
-17 -15 -7 -31 -34 -33 -28 -20
-16 -17 -6 -27 -30 -29 -25 -20
-13 -15 -4 -23 -29 -25 -23 -19
-12 -12 -1 -19 -24 -22 -21 -18
-11 -11 -1 -16 -21 -21 -22 -19
-10 -9 1 -14 -19 -19 -21 -18
-11 -8 1 -15 -20 -19 -22 -19
-12 -12 3 -14 -18 -16 -22 -18
-10 -12 3 -12 -14 -16 -21 -19
-12 -15 4 -14 -16 -13 -22 -18
-10 -16 2 -14 -18 -13 -22 -19
-11 -17 3 -14 -19 -11 -22 -18
-13 -18 1 -16 -24 -14 -22 -21
-9 -16 1 -15 -24 -14 -22 -21
-2 -16 -1 -15 -28 -16 -23 -22
-4 -15 2 -12 -27 -14 -21 -19
-14 -15 7 -6 -23 -11 -18 -15
-11 -18 6 -1 -25 -13 -18 -17
-9 -19 10 9 -22 -12 -18 -17
-11 -16 10 12 -21 -10 -17 -16
-11 -13 7 12 -22 -11 -19 -19
-15 -13 10 15 -18 -8 -16 -16
-16 -14 10 16 -18 -6 -15 -15
-17 -13 9 16 -17 -5 -14 -15
-19 -10 12 18 -15 -4 -13 -14
-12 -9 9 17 -18 -8 -14 -18
-9 -8 9 16 -20 -10 -16 -19
-11 -7 12 18 -19 -10 -17 -19
-16 -12 18 21 -14 -5 -14 -14
-19 -15 22 22 -11 -1 -11 -12
-19 -15 20 21 -12 -2 -12 -12
-15 -16 21 22 -12 -3 -12 -12
-13 -13 20 20 -11 -3 -12 -12
-16 -17 21 23 -3 0 -10 -10
-15 -16 22 24 1 -1 -9 -10
-13 -16 23 25 0 -1 -8 -9
-11 -15 24 25 -2 -3 -9 -11
-8 -11 24 27 0 -2 -8 -11
-9 -9 25 27 0 -3 -9 -11
-11 -10 26 27 1 -1 -8 -12
-8 -10 23 25 0 -2 -11 -12
-10 -13 22 25 0 -1 -11 -14
-12 -14 25 26 1 2 -9 -12
-11 -11 27 29 2 5 -5 -10
-13 -11 26 28 -1 3 -7 -11
-11 -10 26 30 0 17 -7 -12
-11 -11 29 32 2 37 -4 -10
-12 -15 28 34 4 43 -5 -9
-9 -13 28 36 7 45 -4 -8
-6 -13 28 35 7 47 -5 -8
-4 -11 26 36 10 46 -6 -9
-4 -11 26 35 12 47 -4 -8
-3 -9 24 34 9 45 -5 -10
-3 -7 24 36 12 46 -3 -9
-4 -8 24 39 13 46 -2 -8
-3 -12 24 40 13 45 1 -6
-3 -17 27 43 18 48 4 -3
-5 -18 27 45 17 48 5 -3
-7 -16 28 47 22 50 7 -1
-6 -17 29 46 22 50 6 -2
-1 -19 27 46 21 50 5 -4
3 -17 28 47 24 52 7 -2
5 -15 27 45 24 51 8 -3
8 -13 25 44 23 51 8 -2
-3 -11 30 51 30 56 14 2
-3 -11 29 54 28 54 15 3
4 -10 28 52 28 53 13 2
1 -12 29 56 30 54 14 3
2 -11 28 56 31 54 16 6
12 -8 27 54 32 54 14 5
22 -7 20 50 27 49 8 0
20 -7 20 50 29 51 11 1
12 -5 23 53 33 55 17 7
2 -4 25 56 36 59 22 11
7 -2 26 57 37 57 22 12
15 0 21 53 31 54 19 10
15 3 20 51 30 52 18 9
8 2 24 54 34 54 23 14
6 3 23 53 34 53 21 15
4 2 23 51 33 53 24 17
7 2 19 54 32 52 21 15
6 1 18 57 29 50 21 13
11 5 16 55 28 47 21 15
12 8 17 57 27 46 22 17
14 10 14 59 23 42 21 15
15 12 15 59 23 41 20 15
18 10 14 58 25 39 19 16
21 11 15 58 30 38 16 14
21 13 14 55 30 35 17 15
14 11 16 54 31 37 18 16
14 10 15 52 30 36 18 16
10 11 14 50 29 34 16 15
15 13 12 47 26 32 16 14
17 16 12 46 24 31 15 14
13 14 11 46 23 30 16 14
11 10 12 45 21 29 18 14
10 11 14 46 22 29 18 16
9 11 15 45 22 28 17 17
10 13 15 43 21 25 15 16
9 12 16 38 20 24 13 13
9 11 16 36 19 23 11 15
10 8 16 33 18 21 10 12
10 6 16 31 18 19 8 12
13 7 17 30 17 17 7 12
12 4 17 30 17 16 6 9
7 3 19 29 16 15 7 9
3 7 21 34 16 14 7 8
0 8 24 38 17 13 6 7
-3 7 26 39 20 14 7 8
-2 5 28 38 20 15 5 7
-2 0 28 37 20 15 4 5
-4 -1 28 34 19 14 2 4
-1 -1 27 34 19 13 2 3
-4 -3 28 35 20 14 1 0
-5 -3 28 33 19 11 0 0
-6 -3 28 31 16 9 -1 1
-8 -3 28 31 16 7 -2 0
-7 -3 31 31 18 7 -3 1
-6 -7 32 30 20 7 -3 -1
-4 -5 30 27 18 5 -6 -4
-1 -4 29 23 15 3 -10 -7
9 -3 24 19 12 -2 -14 -11
18 -3 23 17 10 -3 -15 -14
7 -6 27 20 11 -1 -13 -11
-8 -8 31 25 16 1 -9 -7
-11 -6 31 24 15 1 -7 -6
-8 -9 30 21 11 -2 -10 -10
-7 -10 32 20 12 -3 -9 -10
-9 -9 31 18 12 -3 -11 -11
-15 -8 32 18 13 -3 -9 -11
-16 -6 35 20 15 0 -8 -8
-11 -6 32 17 13 -2 -10 -11
-12 -7 31 15 12 -3 -11 -10
-9 -5 30 13 11 -2 -12 -12
-11 -8 31 15 13 -2 -10 -12
-18 -7 35 18 17 1 -7 -6
-18 -8 34 18 16 0 -9 -6
-15 -9 32 16 13 -2 -10 -8
-18 -6 32 17 15 0 -11 -9
-15 -8 32 16 15 -1 -10 -10
-14 -10 31 15 13 -2 -12 -10
-11 -7 30 13 13 -2 -12 -10
-12 -8 32 15 14 0 -11 -9
-14 -7 34 17 14 4 -9 -7
-11 -7 33 18 14 3 -9 -7
-7 -7 32 16 13 1 -9 -8
0 -5 34 16 12 1 -10 -8
-5 -3 37 18 9 2 -7 -6
-11 -3 37 19 0 3 -7 -5
-10 -4 36 19 -7 2 -8 -7
-10 -6 35 18 -8 1 -9 -6
-11 -6 36 19 -8 2 -6 -7
-12 -7 38 20 -6 3 -5 -6
-11 -7 36 19 -9 3 -7 -6
-10 -5 35 18 -11 2 -6 -8
-7 -6 34 19 -11 5 -7 -8
-8 -6 35 20 -9 11 -6 -6
-11 -4 36 20 -8 14 -6 -5
-9 -3 35 20 -8 15 -6 -6
-5 -4 35 18 -8 15 -6 -6
-3 -5 34 16 -9 15 -8 -6
-4 -2 34 14 -8 15 -9 -8
-6 -2 34 15 -8 16 -7 -6
-8 -5 35 15 -9 17 -8 -5
-11 -8 36 15 -8 18 -6 -5
-8 -9 36 13 -9 16 -6 -5
-5 -9 35 13 -10 14 -6 -5
-4 -7 35 13 -9 13 -7 -6
-5 -8 35 11 -8 12 -7 -7
-7 -10 36 12 -8 12 -7 -7
-9 -9 36 12 -8 11 -9 -6
-6 -13 35 12 -9 10 -9 -8
-3 -11 36 11 -8 8 -9 -6
-4 -8 36 10 -8 8 -7 -6
-7 -6 37 11 -7 6 -6 -3
-10 -3 38 12 -7 4 -5 -1
-10 -1 36 11 -8 -1 -6 -3
-5 -2 36 10 -8 -6 -7 -4
2 0 35 8 -8 -10 -8 -4
11 -2 32 4 -10 -15 -12 -8
10 -2 34 6 -7 -15 -11 -6
-3 0 40 10 -2 -12 -6 -1
-16 0 44 15 2 -9 0 5
-20 0 42 14 1 -11 -1 5
-11 0 38 12 0 -15 -2 2
-8 3 37 12 0 -14 -2 3
-4 7 37 14 0 -13 -1 4
-2 7 36 12 0 -13 -2 2
0 7 35 11 0 -13 -3 1
-6 8 37 13 1 -8 0 3
-7 9 37 15 4 -4 2 3
-2 13 37 14 3 -2 0 1
3 13 36 13 4 -2 1 4
7 16 35 12 3 -1 1 5
9 20 34 11 3 -1 2 6
0 19 33 10 1 -1 4 9
-7 21 37 12 5 4 9 13
-5 23 34 9 3 3 9 12
-1 22 28 3 -1 0 6 10
4 26 23 1 -2 0 4 8
6 24 21 0 0 0 2 8
8 23 19 -1 0 3 2 8
8 24 20 0 3 5 5 9
6 23 19 1 5 4 3 8
7 20 18 14 4 1 1 7
5 17 18 17 2 -1 0 6
8 16 16 15 2 -3 -2 3
11 15 18 12 3 -2 -2 3
8 13 17 9 2 -4 -4 2
4 10 18 9 3 -3 -4 1
1 9 19 8 4 -2 -5 -1
-3 5 20 9 4 -1 -6 -4
-8 3 19 6 3 -3 -6 -4
-9 0 16 4 0 -4 -9 -7
-7 -4 15 2 -2 -5 -9 -8
-5 -6 15 1 -3 -6 -9 -8
-4 -8 13 0 -5 -8 -11 -9
-3 -9 13 -3 -7 -12 -14 -12
-2 -12 11 -7 -9 -15 -15 -13
-2 -16 8 -12 -13 -16 -18 -17
-2 -16 7 -14 -13 -17 -19 -17
-12 -18 8 -13 -11 -14 -16 -15
-16 -16 8 -13 -10 -15 -17 -14
-9 -14 7 -13 -11 -15 -17 -13
-6 -14 6 -15 -13 -16 -17 -15
-7 -13 6 -14 -15 -16 -18 -17
-5 -14 5 -14 -16 -17 -19 -15
-9 -11 6 -15 -15 -16 -17 -15
-9 -11 6 -17 -14 -16 -17 -15
0 -10 2 -20 -17 -21 -22 -18
5 -13 2 -20 -19 -21 -21 -18
1 -17 5 -19 -17 -19 -21 -17
-8 -19 6 -18 -15 -16 -20 -15
-4 -16 4 -20 -18 -20 -22 -17
1 -13 2 -23 -21 -23 -23 -20
1 -13 2 -24 -23 -23 -24 -20
-6 -13 7 -18 -18 -18 -17 -14
-18 -13 11 -16 -15 -15 -16 -12
-15 -15 9 -18 -15 -16 -17 -14
-13 -17 7 -20 -14 -16 -19 -15
-12 -22 5 -21 -17 -18 -20 -16
-14 -20 7 -22 -16 -18 -21 -16
-13 -19 7 -21 -15 -17 -18 -14
-10 -18 5 -24 -18 -19 -19 -16
-7 -19 6 -25 -20 -20 -19 -15
-10 -18 6 -24 -20 -19 -20 -16
-10 -17 4 -24 -21 -21 -21 -17
-8 -15 5 -25 -20 -21 -21 -19
-12 -17 4 -26 -20 -19 -22 -19
-12 -19 3 -27 -20 -14 -22 -18
-6 -17 4 -27 -19 -11 -21 -18
-8 -19 4 -28 -19 -10 -20 -18
-14 -22 4 -25 -16 -7 -19 -16
-15 -21 4 -26 -18 -8 -20 -18
-14 -20 2 -29 -22 -11 -22 -19
-13 -22 4 -26 -20 -11 -22 -19
-13 -24 5 0 -20 -11 -22 -17
-12 -21 7 24 -20 -11 -22 -18
-11 -22 8 32 -20 -11 -24 -18
-13 -26 10 40 -18 -10 -26 -20
-12 -30 16 57 -10 -4 -25 -20
-6 -34 22 72 -1 2 -25 -22
0 -38 27 86 7 10 -24 -24
4 -34 35 101 18 18 -19 -22
5 -27 45 123 34 30 -12 -18
11 -10 56 147 57 50 2 -6
12 6 64 161 78 69 19 8
12 22 67 162 91 86 36 22
21 40 61 147 99 102 56 40
31 62 51 119 96 114 76 59
38 87 30 81 89 126 99 83
46 113 -4 28 76 139 128 115
48 136 -39 -21 61 150 156 148
42 154 -70 -68 40 151 173 173
29 166 -98 -129 1 132 176 189
15 178 -120 -171 -27 120 182 205
15 182 -141 -200 -48 108 181 210
16 167 -159 -210 -62 99 177 206
9 144 -177 -224 -92 66 153 188
-3 117 -186 -249 -149 -6 96 157
-7 84 -190 -262 -195 -71 38 116
-7 49 -188 -255 -215 -105 -6 76
-15 20 -172 -227 -207 -115 -32 45
-21 -4 -150 -194 -190 -111 -50 18
-23 -21 -125 -159 -171 -104 -63 -2
-28 -35 -101 -125 -148 -94 -68 -16
-31 -36 -83 -98 -130 -81 -66 -23
-31 -36 -68 -70 -110 -67 -59 -20
-31 -34 -57 -49 -95 -57 -53 -19
-28 -30 -45 -27 -81 -46 -45 -17
-25 -26 -35 -8 -65 -34 -38 -15
-20 -22 -29 3 -54 -25 -33 -13
-19 -19 -25 10 -47 -20 -30 -12
-23 -22 -19 19 -39 -13 -26 -10
-22 -25 -15 26 -34 -9 -26 -11
-18 -24 -13 33 -27 -3 -21 -9
-15 -23 -11 33 -26 -1 -22 -10
-11 -24 -11 35 -29 -2 -22 -12
-8 -26 -11 35 -28 -2 -23 -13
-7 -24 -8 38 -26 -2 -22 -11
-18 -22 -4 43 -22 2 -20 -8
-21 -24 -2 45 -20 3 -18 -7
-16 -25 -3 44 -17 2 -19 -9
-12 -24 -2 43 -14 3 -20 -10
-14 -23 -2 43 -15 4 -22 -12
-12 -20 -2 43 -14 4 -20 -11
-13 -18 -1 42 -13 6 -20 -11
-14 -19 -1 43 -14 6 -20 -10
-12 -18 -1 43 -17 5 -18 -9
-16 -20 2 44 -16 5 -18 -9
-18 -18 4 46 -15 6 -17 -8
-16 -16 1 46 -6 2 -19 -10
-15 -19 1 45 32 1 -19 -12
-11 -18 0 45 50 1 -20 -12
-8 -15 -2 42 56 1 -22 -14
-9 -13 1 44 64 4 -18 -11
-14 -12 3 46 68 7 -17 -9
-14 -15 3 45 70 6 -17 -10
-12 -12 2 45 71 5 -17 -11
-11 -11 3 46 72 5 -16 -9
-9 -12 2 45 69 2 -16 -8
-4 -10 1 46 69 0 -16 -9
-3 -10 -1 45 68 -2 -17 -12
-3 -8 -2 43 68 -2 -18 -13
2 -5 -3 41 67 -1 -19 -13
-8 -9 0 46 72 2 -14 -11
-16 -8 3 48 76 6 -12 -8
-13 -10 2 48 74 4 -13 -8
-12 -10 1 48 73 3 -12 -8
-13 -7 2 49 73 2 -11 -7
-12 -8 0 48 70 1 -13 -7
-13 -11 0 49 70 0 -13 -8
-14 -12 1 53 71 3 -12 -9
-13 -14 0 53 69 2 -13 -11
-10 -13 -1 55 70 3 -13 -11
-3 -10 -4 53 66 1 -15 -15
-5 -9 -3 52 66 1 -13 -12
-7 -6 0 54 69 5 -8 -9
-7 -4 -2 56 70 5 -8 -8
-2 -6 -3 56 69 4 -8 -9
-2 -3 -4 55 68 3 -10 -9
-1 -2 -5 54 68 2 -11 -12
5 -1 -5 53 67 3 -11 -11
-9 -2 -2 59 72 9 -6 -8
-16 -5 1 63 76 15 -3 -5
-9 -9 1 64 78 17 -1 -4
-8 -10 -1 62 77 17 -3 -4
-10 -12 0 63 79 21 -1 -1
-10 -10 0 66 83 23 2 1
-11 -8 3 69 87 26 6 4
-8 -6 2 68 89 26 4 2
-6 -7 2 69 90 27 5 2
-5 -6 2 69 92 26 5 0
-1 -3 2 70 94 28 5 0
-1 -2 1 69 95 29 5 1
2 -2 0 70 94 29 5 2
2 -1 0 71 94 32 6 3
2 -4 0 72 95 34 7 4
5 -3 1 75 97 35 8 5
8 -2 1 77 96 35 10 6
10 -2 2 78 97 36 10 6
10 -2 2 81 98 37 11 8
12 1 1 81 98 36 12 6
16 3 0 81 97 38 11 6
23 3 -2 79 96 39 12 6
21 2 -3 79 96 39 14 8
4 3 2 82 102 45 19 12
-1 2 2 81 102 44 19 11
11 4 -4 76 96 37 15 9
17 9 -4 75 94 36 16 12
16 10 -5 73 92 35 14 10
11 9 -3 77 94 39 17 12
12 6 0 79 95 39 19 16
16 5 -2 76 92 38 19 15
23 9 -5 72 90 37 17 13
31 8 -9 67 85 32 14 12
31 9 -10 65 83 31 14 12
21 7 -7 67 85 33 18 16
21 7 -9 65 81 30 16 15
22 7 -8 65 80 30 18 17
15 7 -8 65 79 29 16 17
13 6 -8 63 77 27 17 16
10 9 -6 66 78 28 18 19
5 9 -5 64 77 29 19 18
8 8 -6 61 74 28 16 17
14 12 -6 61 72 28 19 19
15 12 -8 56 68 24 16 17
15 9 -9 54 67 23 15 15
18 9 -11 55 64 19 13 13
19 9 -11 57 61 18 12 12
17 9 -10 56 60 18 14 15
9 9 -9 57 60 18 13 15
5 8 -6 57 61 19 13 17
6 8 -6 55 60 20 13 14
4 4 -6 54 60 19 12 11
6 4 -4 56 60 20 11 10
8 3 -4 55 60 19 13 12
10 3 -4 53 58 17 10 10
7 6 -2 54 58 17 10 9
5 6 0 54 57 16 9 8
2 2 1 54 54 14 7 7
1 -2 3 54 54 14 7 8
1 -2 3 53 53 11 3 5
0 1 4 51 51 12 2 4
-3 -2 4 49 51 12 1 3
-6 -7 5 50 50 11 -1 1
-8 -3 6 48 49 10 -2 0
-8 -2 6 48 47 10 -2 -1
-5 1 5 47 46 9 -3 -1
-7 2 6 47 45 8 -3 -1
-8 -1 6 44 44 7 -4 -2
-8 -4 6 44 43 7 -5 -5
-9 -7 7 42 42 6 -5 -5
-8 -6 8 43 42 7 -5 -5
-7 -2 7 41 42 8 -5 -6
-9 -7 9 42 41 9 -4 -4
-7 -12 7 38 42 7 -7 -5
1 -9 4 33 39 3 -10 -9
8 -8 0 30 35 -2 -14 -12
10 -7 2 30 34 -3 -14 -13
-9 -5 10 36 40 3 -8 -7
-23 -6 14 41 45 7 -4 -2
-23 -8 13 38 44 6 -5 -3
-23 -9 12 36 40 4 -8 -5
-19 -5 10 33 38 3 -9 -6
-19 -7 10 32 38 3 -7 -6
-19 -11 10 30 37 2 -8 -7
-17 -11 11 31 38 4 -7 -6
-17 -12 11 32 37 3 -7 -5
-16 -13 12 32 35 2 -7 -6
-13 -10 12 32 34 2 -8 -7
-11 -12 12 33 32 1 -9 -10
-9 -12 11 29 31 -2 -11 -11
-1 -8 10 28 29 -3 -13 -12
-2 -8 9 27 29 -2 -12 -11
-14 -10 13 30 32 2 -8 -7
-18 -12 15 30 35 4 -6 -6
-15 -12 14 29 34 5 -6 -6
-16 -8 14 32 36 6 -4 -4
-19 -8 16 32 36 5 -3 -5
-17 -6 16 33 34 4 -5 -6
-14 -7 15 32 32 3 -6 -6
-14 -6 14 30 32 2 -5 -6
-11 -3 13 29 31 1 -7 -8
-11 -3 12 29 30 1 -9 -9
-11 -4 13 29 30 1 -8 -9
-8 -4 12 24 28 -2 -8 -8
1 -6 8 22 23 -5 -12 -13
7 -6 7 22 23 -7 -13 -12
-2 -4 11 24 25 -5 -10 -9
-20 -4 15 28 29 0 -5 -5
-28 -5 19 33 33 4 0 -1
-21 -8 16 28 30 0 -3 -4
-12 -9 15 24 27 -3 -7 -8
-6 -7 14 25 27 -2 -6 -7
-8 -6 14 25 27 -2 -6 -7
-8 -5 14 24 28 -1 -4 -6
-10 -6 16 25 29 2 -3 -3
-19 -6 18 26 29 3 -1 0
-19 -4 19 25 28 1 -2 0
-13 -5 15 22 25 -2 -4 -3
-13 -4 14 23 25 -2 -4 -2
-12 -1 13 21 25 -2 -4 -3
-11 -3 12 21 24 -3 -6 -5
-10 -1 11 20 24 -3 -6 -4
-11 -3 11 21 23 -3 -5 -6
-11 -5 10 18 22 -5 -6 -7
-9 -4 10 18 22 -4 -6 -8
-8 0 10 17 22 -2 -5 -7
-9 -2 11 17 22 -2 -6 -7
-10 -5 12 19 23 0 -6 -6
-9 -5 12 20 22 -1 -5 -8
-4 -4 13 19 23 -1 -4 -7
-3 -2 12 17 21 -3 -4 -7
-2 1 12 17 21 -2 -3 -6
-2 5 15 20 23 1 -1 -4
-1 9 16 18 23 1 0 -4
-4 9 18 20 24 4 0 -4
-5 11 18 19 25 3 0 -4
-5 11 21 20 24 2 0 -2
-5 14 21 23 25 2 0 -2
-5 14 21 23 24 2 0 -2
-4 16 22 22 24 3 1 -2
-3 18 23 24 26 4 1 -1
-2 20 22 23 28 7 3 3
0 21 22 24 28 9 6 6
4 26 21 21 27 9 5 6
0 26 23 25 30 11 10 11
1 32 20 23 28 10 9 11
6 33 17 19 25 7 7 9
11 32 13 15 22 5 7 6
12 35 10 16 23 6 7 8
10 32 8 14 20 6 7 8
5 27 9 16 22 9 10 12
3 27 8 15 21 9 9 11
1 25 10 16 21 9 8 10
2 24 8 12 19 5 6 7
1 22 7 10 17 4 5 6
-2 21 4 11 15 2 4 5
2 19 2 9 14 1 3 4
-1 16 3 8 13 0 2 5
-1 16 3 8 12 0 2 4
3 15 2 6 10 -3 1 1
3 11 2 6 8 -3 -2 -1
1 10 2 7 8 -4 -2 -4
-7 7 4 7 8 -3 -3 -4
-5 5 4 6 6 -5 -5 -5
-7 2 4 6 5 -5 -5 -6
-12 -5 4 5 3 -6 -6 -7
-11 -7 3 3 2 -8 -8 -8
-9 -4 3 3 1 -7 -8 -10
-12 -7 2 -1 -2 -9 -11 -11
-11 -8 4 0 -3 -9 -12 -11
-7 -8 1 -1 -7 -11 -13 -13
-2 -10 -3 -6 -11 -15 -15 -15
6 -10 -5 -9 -13 -18 -16 -16
10 -10 -8 -13 -17 -20 -19 -20
15 -10 -10 -15 -17 -21 -20 -22
-7 -10 -3 -9 -11 -15 -14 -13
-26 -10 5 -1 -5 -10 -8 -6
-24 -8 4 -2 -6 -11 -7 -5
-19 -12 2 -4 -9 -13 -9 -8
-15 -12 -1 -7 -12 -15 -12 -10
-14 -10 0 -7 -12 -16 -13 -11
-16 -11 -2 -10 -13 -18 -15 -12
-14 -11 -1 -11 -14 -18 -15 -12
-13 -12 -1 -10 -14 -18 -15 -12
-11 -15 -1 -9 -15 -19 -15 -13
-7 -12 -4 -11 -17 -20 -16 -15
-9 -13 -5 -12 -18 -22 -17 -15
-9 -11 -5 -13 -19 -22 -17 -15
3 -11 -7 -15 -22 -25 -19 -17
7 -12 -10 -19 -26 -28 -20 -18
-7 -12 -5 -14 -21 -23 -16 -13
-20 -10 -3 -12 -19 -20 -12 -11
-16 -11 -4 -15 -22 -23 -16 -12
-14 -10 -5 -16 -23 -24 -18 -13
-15 -13 -5 -14 -22 -25 -18 -14
-17 -13 -5 -13 -23 -24 -17 -14
-14 -11 -4 -15 -23 -26 -19 -16
-13 -14 -6 -16 -25 -29 -21 -17
-8 -16 -8 -18 -26 -31 -23 -20
-3 -16 -10 -21 -27 -33 -23 -22
-5 -15 -7 -17 -26 -31 -21 -21
-14 -13 -3 -15 -22 -27 -18 -17
-14 -13 -3 -14 -22 -26 -16 -14
-14 -13 -2 -14 -21 -26 -15 -13
-8 -11 -5 -17 -25 -27 -17 -16
-3 -13 -9 -18 -27 -30 -21 -19
-5 -12 -8 -16 -27 -30 -23 -20
-15 -14 -2 -10 -22 -27 -21 -21
-17 -20 4 2 -15 -22 -20 -22
-14 -26 10 16 -7 -16 -19 -24
-4 -32 12 28 -2 -13 -21 -30
-2 -31 17 41 9 -6 -21 -32
1 -25 26 54 21 3 -17 -30
6 -17 38 74 38 15 -8 -24
15 2 46 97 59 33 4 -18
10 17 55 109 82 54 22 -5
6 32 58 117 99 75 41 12
13 52 52 112 110 96 65 31
16 73 45 87 110 112 88 55
19 93 31 53 103 127 113 79
28 118 -6 -4 83 138 142 111
41 140 -49 -63 59 142 167 140
51 159 -88 -116 31 138 179 163
41 172 -116 -181 -14 115 180 179
19 181 -138 -229 -45 104 189 196
2 185 -154 -257 -63 99 196 210
-1 176 -171 -272 -83 88 190 206
1 155 -189 -291 -124 44 159 185
-4 131 -197 -317 -189 -40 97 153
-12 95 -199 -322 -230 -106 37 112
-13 60 -192 -305 -241 -132 -4 74
-14 26 -174 -273 -230 -138 -33 39
-15 -3 -152 -240 -211 -132 -52 11
-19 -24 -124 -204 -184 -123 -63 -12
-30 -36 -97 -168 -157 -108 -65 -25
-24 -39 -80 -144 -139 -100 -66 -35
-9 -36 -71 -127 -126 -90 -66 -39
4 -33 -59 -110 -112 -80 -62 -39
-14 -27 -36 -79 -86 -60 -46 -28
-38 -23 -16 -52 -62 -37 -31 -16
-29 -16 -12 -41 -53 -31 -29 -18
-21 -11 -8 -36 -47 -25 -27 -19
-23 -12 -3 -31 -39 -19 -23 -15
-20 -12 -1 -25 -34 -13 -18 -10
-19 -11 0 -24 -33 -13 -18 -12
-17 -11 0 -23 -32 -11 -19 -15
-14 -11 -1 -20 -31 -10 -18 -16
-16 -11 0 -15 -27 -9 -15 -14
-14 -13 1 -13 -26 -9 -15 -13
-7 -10 3 -12 -26 -9 -16 -13
-5 -9 3 -12 -26 -12 -17 -15
-6 -9 4 -11 -24 -11 -19 -15
-8 -5 3 -11 -23 -11 -22 -15
-11 -8 3 -10 -22 -9 -20 -15
-14 -13 5 -8 -20 -7 -15 -11
-13 -11 5 -8 -21 -5 -16 -12
-4 -10 1 -10 -23 -6 -17 -14
-1 -7 2 -9 -23 -7 -18 -17
-11 -10 6 -4 -21 -4 -14 -13
-15 -7 8 -3 -19 -3 -13 -11
-16 -6 7 -3 -19 -4 -11 -11
-13 -6 8 -3 -18 -4 -11 -15
-11 -8 9 -4 -16 -2 -11 -12
-13 -11 11 -2 -13 -1 -11 -11
-12 -9 10 -1 -13 1 -8 -10
-8 -9 11 -2 -15 1 -9 -10
-8 -11 7 -5 -19 -2 -13 -13
-3 -5 5 -4 -19 -2 -13 -14
-2 -4 4 -4 -20 -6 -14 -16
-5 -5 5 -4 -23 -6 -16 -17
-2 -4 5 -2 -23 -8 -17 -16
1 -3 4 -3 -21 -7 -16 -17
-6 -4 5 -3 -19 -5 -13 -13
-9 -4 6 -2 -17 -3 -12 -14
-4 -7 5 -1 -16 -5 -12 -13
-2 -6 5 1 -13 -1 -8 -10
-11 -3 4 4 -13 1 -4 -8
-15 -5 5 5 -13 1 -4 -8
-7 -3 3 4 -16 -3 -8 -12
-7 -1 4 4 -16 -3 -7 -13
-11 -2 4 5 -15 -4 -7 -12
-9 1 5 7 -13 -3 -9 -10
-7 -1 5 7 -13 -3 -9 -12
-10 -2 7 8 -10 -1 -6 -11
-9 -2 6 9 -8 1 -5 -11
-7 -5 5 10 -8 1 -5 -10
-6 -3 4 10 -9 3 -5 -11
-10 -3 3 12 -8 3 -5 -10
-5 -4 5 13 -7 3 -4 -8
-2 -5 4 12 -9 2 -5 -9
-4 -7 5 14 -8 1 -4 -8
-1 -6 6 16 -4 4 -1 -4
5 -6 5 17 -3 5 0 -4
5 -4 4 18 -1 8 1 -5
-1 -2 7 20 1 11 3 -3
-4 -3 7 22 4 14 5 0
1 0 6 23 3 14 5 0
11 1 1 21 0 10 1 -5
9 -1 3 24 2 11 2 -4
2 2 8 29 7 15 8 2
2 1 7 30 7 15 6 1
0 0 7 31 7 15 7 2
8 -2 6 30 11 16 7 2
8 -2 4 30 18 17 8 -1
1 -2 4 32 24 21 12 0
-1 -1 6 37 28 25 14 3
1 1 4 37 27 26 13 2
7 4 5 38 29 25 15 2
10 5 5 40 31 25 17 5
1 3 8 45 31 28 19 6
1 6 7 45 31 26 18 7
2 2 5 43 30 23 16 5
8 5 4 44 32 24 16 7
8 8 2 45 32 26 18 8
10 10 -2 41 30 23 18 6
13 12 0 43 33 25 19 7
13 8 1 46 34 28 23 10
16 6 6 49 36 31 27 14
21 10 5 48 35 29 28 17
23 11 3 47 32 27 26 16
22 13 3 45 31 26 24 14
26 15 1 44 29 24 22 13
25 16 -1 42 28 22 23 13
18 14 3 45 31 24 26 16
12 10 4 44 31 26 30 19
14 7 1 41 27 23 27 19
22 11 -4 38 24 22 26 18
32 16 -7 36 21 20 25 17
25 19 -3 39 23 23 28 20
12 18 1 43 24 24 30 25
18 18 -3 37 19 20 27 22
24 21 -3 34 18 16 23 21
24 19 -5 32 18 15 21 16
24 16 -6 30 16 16 21 15
13 15 -2 31 16 19 25 19
9 14 -4 29 14 19 24 19
16 13 -6 28 11 18 24 20
19 16 -5 30 10 20 26 20
19 17 -4 29 9 19 25 22
19 19 -6 27 6 16 23 20
20 20 -7 24 3 12 20 18
18 20 -6 25 5 13 21 19
13 20 -4 24 6 12 20 20
18 20 -7 22 4 10 17 16
26 20 -10 15 -1 6 11 12
28 19 -11 14 -3 4 10 11
16 18 -5 19 1 8 14 15
5 20 0 23 3 9 17 18
3 18 2 22 2 9 15 16
6 16 1 21 0 5 11 12
6 16 3 23 2 6 9 11
8 18 1 19 -1 1 4 5
10 18 3 18 -1 1 3 6
3 18 5 21 2 3 5 7
-3 18 6 20 3 5 9 8
1 16 5 17 2 3 7 5
2 11 5 17 0 2 3 2
7 10 3 14 -4 -3 -1 1
14 10 0 10 -8 -7 -2 -2
7 7 2 10 -8 -9 -4 -1
-4 9 8 15 -5 -5 0 5
-6 10 9 17 -3 -6 1 3
-4 6 10 17 -2 -3 1 4
-4 4 9 17 -2 0 0 3
2 0 5 11 -6 -5 -3 -3
12 3 2 5 -11 -7 -7 -5
12 8 3 7 -10 -4 -5 -1
-2 9 10 12 -7 1 2 4
-17 7 17 18 -2 5 5 8
-11 6 13 14 -8 -1 -3 0
-5 4 12 12 -11 -4 -6 -3
0 4 12 10 -11 -6 -9 -5
-7 2 15 10 -10 -3 -7 -3
-17 0 15 12 -9 -1 -6 -2
-14 5 14 10 -11 -3 -6 -1
-12 1 14 8 -12 -3 -8 -2
-8 -1 16 9 -10 -1 -6 -2
-9 -2 16 10 -10 -1 -7 -1
-8 0 17 9 -10 -2 -5 0
-5 -1 19 12 -8 -1 -3 1
-8 -3 19 14 -6 0 -3 0
-8 -2 21 17 -4 2 -4 2
-6 0 20 15 -5 2 -3 0
-8 0 17 14 -5 2 -5 -2
-7 -1 16 13 -5 1 -4 -2
-7 -1 16 12 -3 1 -4 -1
-4 0 16 14 -2 1 -3 1
-3 2 14 13 -2 0 -5 -3
-2 2 14 13 -5 -1 -5 -3
0 1 13 14 -6 -1 -5 -1
0 1 13 13 -5 -1 -5 -2
-3 3 15 14 -4 0 -4 0
-2 4 15 14 -3 1 -2 1
-4 0 16 15 -2 3 -3 0
-12 -2 18 14 0 6 0 1
-8 -1 18 13 0 5 -1 0
-3 2 15 11 -2 3 -4 -1
2 7 15 10 -3 3 -5 -2
5 4 15 11 -4 4 -4 -1
4 4 15 12 -4 3 -5 -1
4 3 15 12 -3 5 -5 -2
3 3 15 11 -1 5 -5 -2
-3 1 18 12 1 7 -3 0
-7 1 19 14 2 7 -3 2
-7 -1 18 11 1 7 -4 0
-2 -2 18 8 -1 5 -6 -2
1 -3 18 7 -1 5 -6 -2
-7 -1 22 10 3 7 -3 0
1 3 19 7 -1 6 -4 -1
9 -1 18 6 -3 3 -7 -4
11 2 18 5 -4 3 -8 -4
-4 5 23 10 2 8 -3 2
-10 2 26 12 4 9 -2 3
1 4 25 9 3 8 -5 0
12 7 22 4 1 6 -7 -5
7 6 24 5 2 8 -5 -4
-9 6 32 13 10 17 2 4
-14 7 34 14 10 17 2 4
-3 9 32 14 8 15 2 6
1 15 33 17 9 14 4 6
-8 16 35 20 13 18 5 8
-6 18 36 20 14 19 6 7
2 16 34 16 13 19 4 4
10 16 30 14 10 17 0 0
13 18 31 14 11 20 2 1
2 21 34 19 15 25 8 6
-3 22 35 21 16 27 10 10
5 25 34 21 17 29 12 11
5 29 33 22 17 29 12 11
1 29 35 24 21 34 17 16
5 31 32 19 18 30 14 16
8 33 29 15 15 29 13 15
12 34 26 12 13 26 12 13
13 38 21 10 12 25 11 12
4 33 23 13 17 31 15 16
3 33 20 12 17 30 15 15
10 36 13 9 11 26 11 13
11 39 12 8 10 23 13 13
12 36 12 7 6 20 11 12
17 29 10 5 2 16 4 8
29 29 3 -3 -4 10 -3 3
30 29 3 -4 -4 9 -4 0
7 26 8 2 3 17 3 7
1 26 11 6 6 19 5 11
8 22 7 1 3 15 0 5
10 22 7 0 2 13 -2 1
0 20 7 1 2 13 -1 2
-8 15 8 3 1 15 0 3
-4 10 7 2 0 14 0 2
-4 5 3 0 -4 10 -3 -2
-1 0 3 0 -4 10 -6 -4
-2 -1 4 -1 -5 8 -7 -6
-3 -4 3 -3 -8 6 -9 -8
-1 -3 1 -6 -11 4 -13 -11
-3 -4 0 -12 -14 -1 -15 -14
-2 -5 -1 -12 -15 -2 -16 -15
4 -3 -1 -12 -14 -3 -15 -15
7 -6 -3 -9 -17 -7 -16 -14
8 -8 -2 -10 -19 -7 -16 -15
14 -8 -5 -13 -20 -11 -18 -16
5 -9 -3 -9 -17 -11 -18 -14
-4 -6 3 -6 -12 -10 -13 -10
-9 -8 1 -8 -12 -12 -12 -11
-7 -12 0 -8 -14 -15 -14 -14
-3 -12 0 -11 -13 -16 -14 -14
-4 -12 -1 -11 -14 -17 -13 -14
-2 -12 -2 -12 -15 -18 -14 -14
-2 -13 -3 -11 -17 -19 -16 -15
2 -11 -3 -14 -18 -21 -18 -17
4 -11 -3 -15 -18 -21 -17 -17
-1 -12 -2 -13 -16 -19 -16 -15
-6 -13 -2 -13 -16 -20 -16 -15
-1 -13 -5 -16 -18 -20 -17 -16
5 -16 -7 -18 -20 -23 -18 -17
2 -15 -6 -16 -18 -21 -16 -16
-5 -14 -4 -14 -15 -19 -14 -12
1 -15 -8 -17 -19 -21 -17 -13
9 -13 -11 -19 -20 -23 -18 -16
13 -13 -9 -19 -21 -22 -18 -16
7 -12 -7 -17 -19 -22 -16 -14
1 -11 -5 -15 -16 -19 -14 -11
-2 -11 -3 -13 -14 -17 -12 -11
-3 -11 -5 -14 -13 -18 -12 -14
-3 -12 -6 -15 -14 -21 -15 -16
1 -13 -8 -17 -16 -22 -17 -17
3 -14 -10 -18 -17 -23 -15 -19
9 -14 -12 -22 -19 -25 -19 -21
3 -12 -8 -18 -16 -23 -17 -20
-9 -13 -5 -14 -13 -20 -13 -15
-11 -15 -4 -13 -13 -20 -14 -15
-8 -16 -2 -13 -12 -19 -14 -14
-7 -21 -1 -11 -12 -18 -15 -16
-6 -23 1 -3 -7 -17 -18 -19
-2 -26 6 10 1 -13 -17 -24
2 -31 14 25 12 -6 -15 -26
6 -32 18 36 21 -1 -15 -30
10 -31 27 52 33 8 -12 -30
10 -27 40 73 49 19 -7 -28
14 -13 52 96 72 37 5 -20
19 7 58 112 94 54 19 -7
23 25 61 117 108 71 35 10
30 43 53 111 118 90 57 26
31 61 41 88 118 108 82 49
35 84 21 49 108 124 107 74
42 107 -16 -7 87 135 137 105
56 130 -61 -71 59 141 163 131
68 151 -103 -123 34 143 180 155
62 165 -134 -189 -13 122 182 169
54 179 -162 -252 -56 99 181 182
34 185 -179 -284 -76 95 189 198
13 181 -189 -299 -90 90 194 207
7 159 -204 -311 -119 60 175 194
2 130 -212 -332 -179 -18 120 167
-2 98 -212 -340 -232 -101 55 129
1 63 -204 -327 -251 -141 7 89
0 26 -187 -298 -242 -150 -27 48
0 -4 -163 -263 -222 -149 -49 18
-6 -24 -131 -222 -193 -137 -59 -5
-19 -35 -102 -183 -165 -123 -65 -22
-16 -39 -79 -154 -142 -110 -66 -30
-13 -38 -63 -130 -123 -97 -61 -32
-9 -40 -51 -110 -105 -84 -54 -31
-13 -35 -37 -86 -85 -72 -45 -29
-21 -28 -23 -64 -65 -56 -35 -22
-12 -21 -18 -53 -53 -47 -29 -19
-2 -16 -15 -46 -45 -41 -26 -19
-1 -13 -14 -42 -38 -38 -24 -18
-11 -13 -8 -32 -28 -28 -17 -14
-10 -12 -4 -24 -21 -23 -13 -13
-7 -10 -3 -21 -19 -21 -14 -15
-3 -9 -3 -19 -17 -19 -13 -14
-5 -11 -2 -18 -16 -18 -13 -15
-6 -12 -1 -16 -15 -19 -13 -15
-6 -11 1 -15 -14 -20 -13 -15
-7 -12 2 -13 -14 -19 -13 -14
-4 -11 4 -12 -11 -16 -13 -14
-6 -11 3 -13 -10 -16 -13 -15
-3 -12 7 -10 -8 -14 -12 -15
0 -11 7 -10 -7 -12 -13 -15
-1 -15 7 -10 -6 -12 -14 -16
1 -13 6 -10 -7 -13 -13 -16
6 -12 4 -12 -10 -13 -15 -18
9 -15 0 -12 -12 -15 -17 -22
5 -12 2 -10 -9 -14 -15 -18
-6 -9 4 -5 -6 -11 -12 -14
-6 -9 4 -5 -6 -10 -13 -16
0 -5 0 -9 -7 -12 -15 -16
-3 -5 1 -7 -5 -11 -16 -16
-9 -8 3 -5 -5 -9 -14 -15
-6 -3 4 -4 -3 -7 -12 -13
-4 -3 2 -5 -6 -9 -12 -15
1 -3 1 -4 -6 -10 -13 -15
8 -5 -2 -6 -9 -12 -16 -19
12 -7 -3 -6 -11 -14 -15 -18
6 -7 0 -4 -7 -12 -11 -15
-2 -10 5 1 -2 -7 -8 -12
-4 -7 4 1 -2 -8 -9 -13
3 -7 3 2 -1 -8 -9 -12
0 -7 3 2 -2 -6 -7 -12
-2 -6 4 2 -2 -5 -6 -11
-1 -5 2 2 -3 -6 -6 -12
-3 -6 4 3 -3 -6 -6 -11
1 -2 3 4 -3 -6 -5 -10
2 -3 3 5 -2 -6 -6 -11
-1 -3 6 5 -2 -6 -7 -10
-3 0 7 6 -1 -5 -7 -11
-6 -1 6 6 1 -4 -6 -11
-4 -3 8 10 2 -3 -6 -9
-1 -4 7 9 0 -3 -4 -11
1 -6 9 10 3 0 -2 -9
2 -3 10 13 5 2 1 -7
1 -6 11 13 6 1 1 -7
1 -4 14 14 7 2 4 -6
6 0 15 15 7 2 2 -6
6 0 16 18 10 4 4 -6
12 1 14 17 8 3 3 -9
11 0 9 15 7 2 0 -10
9 -4 9 18 9 4 2 -9
8 -1 11 20 11 7 4 -10
3 -1 14 25 15 11 5 -7
4 -2 16 26 15 11 6 -6
7 2 14 25 16 12 6 -7
9 3 14 26 16 13 9 -6
16 4 15 29 19 15 9 -6
18 0 17 31 20 18 12 -6
15 1 16 32 20 18 11 -6
16 7 14 31 21 19 10 -6
12 4 16 35 24 21 11 -4
12 3 18 39 29 24 15 -3
12 5 17 39 29 25 14 -2
13 5 16 39 30 25 14 -1
16 8 16 41 32 27 16 0
10 9 19 45 35 31 21 3
12 11 20 49 43 32 20 4
15 13 19 51 50 33 22 5
8 13 22 56 56 37 25 8
12 13 20 55 57 35 24 7
17 15 18 55 57 34 25 10
19 14 16 53 57 34 26 10
20 15 14 52 57 35 26 9
20 11 12 52 60 34 27 9
19 11 13 53 62 36 29 11
21 15 13 54 61 35 30 13
22 16 11 54 59 35 30 14
22 16 14 55 60 36 32 16
19 18 14 55 60 36 31 17
20 18 12 52 57 35 30 17
25 18 11 52 56 33 30 17
25 17 10 52 57 34 31 18
23 16 9 50 55 35 30 17
22 12 9 49 53 33 30 17
25 11 7 47 51 32 29 16
25 10 8 47 51 31 30 18
23 10 8 47 54 29 29 19
31 12 3 42 52 24 26 15
32 15 1 42 52 24 26 16
20 12 5 44 55 27 30 19
21 14 4 42 52 25 28 18
29 21 1 38 52 23 26 15
28 22 -1 34 52 22 25 16
19 20 4 37 56 24 29 21
13 20 5 39 57 23 29 19
17 20 3 37 56 21 28 18
22 19 1 34 52 17 23 16
23 18 -1 30 49 14 22 13
19 20 2 30 51 17 23 17
20 19 4 32 53 18 22 17
22 15 3 30 47 14 22 16
17 16 2 28 43 14 23 17
12 14 2 28 43 13 21 16
15 16 0 27 43 10 19 16
18 21 0 25 39 8 18 14
16 21 0 25 34 7 17 14
15 21 -1 23 30 5 15 12
13 16 -1 22 29 4 14 10
9 13 -1 23 30 4 13 8
8 13 2 22 33 3 13 8
7 12 3 20 33 1 13 8
10 13 0 16 27 -3 8 4
13 13 -1 15 24 -5 7 3
16 11 -1 14 21 -6 4 3
13 12 1 16 22 -5 4 1
-1 11 5 18 25 0 7 5
-6 8 6 17 23 -2 5 6
0 7 5 15 20 -3 4 4
1 6 3 13 19 -5 4 2
1 5 3 11 19 -6 2 0
-5 4 7 12 19 -5 5 3
-8 0 7 12 19 -4 5 3
-1 0 4 7 14 -8 0 -1
7 4 1 4 10 -12 -2 -4
11 2 1 2 9 -12 -3 -6
2 3 5 6 13 -9 0 -3
-14 4 10 13 18 -4 5 3
-6 2 6 11 13 -7 3 1
2 4 4 7 11 -10 0 -2
2 3 3 5 8 -13 -2 -4
-2 2 8 8 11 -10 2 0
2 1 8 7 9 -12 0 -3
4 0 8 6 9 -14 -3 -7
2 1 10 9 9 -14 -2 -4
-3 1 12 10 10 -13 1 -1
-11 1 15 13 12 -12 2 1
-8 -1 15 13 11 -12 -1 0
-6 -4 12 8 8 -15 -3 -3
-1 0 9 5 7 -16 -4 -4
-3 0 11 8 10 -12 -2 -2
-10 -3 14 12 13 -10 0 0
-10 1 15 12 14 -10 0 1
-10 1 12 10 13 -13 -2 -1
-10 -1 15 11 13 -13 -1 0
-9 2 15 10 12 -13 -1 0
-9 -2 15 11 12 -12 -2 0
-9 -2 17 12 13 -11 0 1
-8 0 17 12 13 -12 0 0
-6 -1 16 11 12 -13 -3 0
0 2 16 9 11 -14 -3 -2
1 1 15 9 12 -14 -3 -3
-1 0 14 8 12 -13 -4 -4
-10 -1 18 13 17 -8 1 1
-12 -2 20 17 18 -5 4 4
-4 0 19 15 18 -6 1 1
-4 2 18 13 19 -6 -1 -1
-1 0 16 12 20 -7 0 -2
-1 2 18 13 23 -6 0 0
-6 1 20 15 29 -4 0 0
-3 -1 20 15 31 -5 -1 0
-2 1 20 14 31 -5 -1 1
4 -1 17 12 23 -8 -3 -3
12 0 12 8 16 -11 -8 -4
17 -1 10 6 14 -14 -9 -4
2 0 14 9 18 -9 -5 0
-11 2 20 15 23 -3 1 6
-4 2 18 14 21 -6 -2 4
-4 3 22 15 21 -5 1 4
-8 7 27 18 25 -1 4 7
-7 7 28 19 27 0 6 7
-4 8 28 18 27 -1 7 8
-4 9 28 16 26 -3 5 6
-5 10 27 16 24 -3 6 5
-4 14 29 18 26 -2 7 7
-2 15 32 21 29 1 9 10
-1 14 33 23 29 1 11 9
0 14 33 23 27 0 9 9
2 14 32 20 24 -2 7 5
4 15 32 20 26 -1 8 6
7 20 32 21 26 0 8 7
5 22 36 24 30 2 11 9
5 27 36 24 31 4 12 11
4 30 35 22 31 5 13 13
5 32 35 21 30 4 15 14
6 35 34 18 29 4 13 14
6 37 30 14 27 4 13 14
10 35 29 14 26 4 12 15
10 33 25 13 26 5 12 14
8 29 22 13 27 5 12 15
9 29 20 12 26 4 13 14
10 28 19 13 25 3 12 13
13 29 19 12 26 4 11 14
12 27 18 9 25 3 11 14
11 23 16 8 23 2 10 13
10 22 17 8 22 3 10 12
6 21 16 8 22 4 9 14
7 18 17 8 21 3 7 11
8 20 18 8 21 3 8 12
11 19 16 6 18 1 6 8
9 15 18 7 18 1 5 6
12 11 17 4 15 -3 0 2
15 6 14 -1 12 -7 -2 -3
9 2 16 1 13 -6 -1 -1
-6 0 22 7 16 -2 3 3
-7 -2 23 8 16 -2 4 2
0 -5 21 5 14 -5 -1 -1
2 -8 19 0 8 -10 -6 -6
-2 -10 18 1 6 -11 -8 -8
-4 -8 16 0 6 -11 -8 -7
0 -11 15 -3 2 -13 -10 -8
-2 -14 15 -4 4 -12 -10 -7
-14 -14 16 -2 6 -8 -7 -5
-10 -15 14 -4 2 -11 -9 -8
-3 -12 13 -5 0 -10 -8 -7
0 -14 10 -7 -1 -11 -9 -9
0 -14 10 -7 0 -10 -9 -8
-7 -19 12 -6 0 -9 -7 -8
-11 -20 13 -5 -1 -11 -9 -9
-6 -15 11 -5 2 -10 -10 -9
-10 -13 11 -6 4 -10 -10 -8
-10 -12 7 -8 -3 -13 -13 -11
-11 -11 6 -10 -5 -14 -15 -12
-7 -15 5 -12 -7 -16 -16 -14
-5 -19 5 -11 -7 -14 -14 -14
-6 -18 5 -9 -6 -14 -14 -14
-7 -20 4 -10 -5 -12 -13 -12
-5 -19 4 -8 -6 -14 -13 -12
-5 -20 5 -9 -6 -14 -13 -12
-3 -22 3 -11 -6 -13 -14 -12
-3 -22 4 -10 -6 -13 -15 -11
-6 -23 7 -7 -5 -10 -12 -9
-1 -22 4 -11 -6 -11 -13 -11
3 -23 0 -13 -7 -12 -16 -14
-1 -21 0 -12 -7 -13 -15 -12
-5 -19 4 -8 -2 -10 -12 -9
-8 -19 4 -8 -3 -10 -12 -10
-8 -20 4 -6 0 -9 -12 -9
-1 -19 1 -8 -1 -11 -13 -11
-2 -19 0 -9 -5 -10 -13 -10
-3 -17 1 -9 -6 -9 -12 -9
-1 -19 -1 -9 -8 -10 -12 -11
4 -19 -5 -10 -9 -11 -14 -14
9 -19 -4 -12 -9 -11 -16 -15
3 -20 -2 -9 -9 -10 -15 -14
-9 -21 1 -6 -5 -7 -13 -13
-15 -22 4 -2 -3 -4 -11 -13
-13 -28 6 4 -2 -5 -12 -15
-7 -31 11 15 2 -3 -14 -19
0 -34 16 29 11 2 -14 -22
0 -35 22 43 22 9 -12 -24
-2 -35 32 60 34 18 -9 -22
4 -32 40 78 49 27 -5 -21
11 -19 50 100 72 42 5 -14
18 0 57 116 93 60 21 0
22 14 58 124 108 78 38 16
30 35 53 118 116 95 56 32
29 54 43 94 114 113 80 56
30 76 25 54 107 126 105 79
41 100 -8 2 92 137 134 106
53 123 -50 -60 73 145 160 139
67 142 -89 -110 51 147 179 164
54 154 -119 -169 10 132 187 181
28 168 -143 -225 -29 115 190 198
23 174 -167 -264 -53 103 193 207
26 173 -186 -284 -71 93 189 206
26 154 -202 -289 -89 78 179 200
16 126 -213 -308 -145 16 136 175
3 95 -216 -323 -207 -70 69 138
-1 61 -209 -317 -233 -119 19 100
-5 27 -192 -290 -229 -134 -15 67
-10 -4 -167 -254 -209 -133 -36 35
-6 -23 -141 -216 -187 -127 -53 10
-8 -38 -115 -181 -162 -115 -61 -9
-9 -42 -92 -150 -140 -103 -64 -22
-18 -41 -71 -121 -115 -85 -52 -20
-16 -41 -59 -100 -100 -75 -47 -18
-6 -36 -50 -80 -89 -66 -44 -20
-5 -29 -38 -58 -71 -52 -35 -15
-11 -25 -27 -44 -58 -41 -28 -13
-6 -22 -21 -34 -47 -33 -23 -9
-9 -21 -16 -26 -36 -26 -17 -6
-9 -18 -11 -18 -29 -22 -14 -7
-6 -16 -9 -13 -26 -18 -13 -8
0 -17 -9 -11 -24 -17 -14 -9
2 -15 -8 -10 -26 -18 -13 -11
-8 -17 -4 -4 -20 -14 -9 -6
-8 -17 -2 0 -20 -13 -9 -5
-3 -16 -1 2 -19 -13 -8 -6
-1 -15 1 2 -20 -15 -11 -7
-4 -15 1 3 -19 -16 -12 -8
-5 -14 1 3 -17 -15 -11 -5
-11 -14 2 4 -15 -12 -9 -5
-7 -17 3 5 -14 -10 -8 -6
-2 -16 2 7 -13 -8 -7 -6
1 -16 1 6 -15 -8 -7 -7
2 -14 2 7 -16 -8 -8 -5
-1 -13 4 9 -11 -7 -5 -3
4 -12 3 10 -9 -8 -7 -4
11 -10 0 6 -9 -12 -10 -7
4 -12 3 10 -4 -9 -10 -6
-2 -10 4 12 -2 -8 -7 -3
3 -12 2 10 -3 -9 -8 -5
17 -14 -2 5 -4 -12 -12 -11
18 -12 -2 7 -4 -9 -11 -9
-7 -12 5 14 2 -2 -4 -3
-15 -12 7 18 3 0 -1 1
-4 -11 5 16 1 -2 -3 -1
-2 -11 3 17 0 -4 -5 -2
-2 -8 5 17 -1 -5 -4 -3
-4 -8 3 17 12 -9 -7 -5
-3 -8 5 19 62 -7 -5 -5
2 -3 5 17 82 -6 -5 -4
1 -4 5 18 90 -4 -4 -5
1 -6 5 19 96 -2 -4 -4
1 -8 5 21 98 -1 -2 -5
1 -9 5 22 100 -1 -1 -1
2 -4 5 20 101 -3 -1 -2
4 -3 5 20 102 -3 -2 -2
4 -5 7 23 105 -2 -1 -2
5 -5 8 24 108 -2 1 0
4 -3 7 24 109 -1 0 0
6 -5 8 26 109 1 0 -3
7 -7 7 25 106 1 0 -4
2 -8 7 26 107 2 0 -3
3 -9 8 28 103 4 2 -2
6 -9 7 27 100 3 1 -4
11 -6 6 27 95 1 1 -5
14 -3 6 29 95 0 0 -5
10 -5 8 31 97 2 1 -4
10 -5 9 34 98 3 2 -3
14 -4 10 33 98 4 2 -5
7 -5 12 38 104 7 6 -2
5 -6 14 40 106 9 8 2
8 -10 13 41 107 9 10 2
12 -12 14 40 105 9 10 1
18 -11 13 42 104 9 11 2
14 -9 13 42 104 9 11 3
7 -6 16 47 107 13 14 6
9 -5 16 48 108 12 18 7
10 -8 14 48 107 11 15 5
20 -5 12 46 105 11 14 2
20 -5 13 51 108 14 14 3
11 -3 18 59 115 22 23 10
20 -1 14 55 112 21 20 6
36 0 6 49 105 16 14 0
31 1 10 55 110 19 18 5
28 3 10 57 109 21 19 6
25 1 12 61 111 24 22 10
17 3 17 65 119 30 27 15
19 3 15 65 119 31 28 15
22 4 14 65 119 31 28 15
13 5 15 67 121 32 29 17
15 2 13 65 120 31 30 16
21 4 11 65 118 30 28 15
22 7 10 62 117 30 30 14
25 8 8 62 114 27 28 13
22 10 11 66 114 30 32 18
20 11 11 66 115 30 33 21
18 13 11 66 113 30 34 21
20 11 11 66 114 29 36 22
20 10 10 62 111 27 34 22
23 12 10 61 111 27 34 23
25 14 7 57 107 25 30 21
25 12 7 56 104 25 31 21
26 11 8 57 104 28 35 23
28 11 6 54 101 30 33 23
28 11 7 52 98 40 34 23
26 13 7 53 96 43 32 24
27 12 5 51 94 41 30 23
27 12 5 48 92 40 29 23
29 11 4 46 89 40 29 22
30 14 3 46 89 39 28 20
31 16 2 44 87 40 27 20
26 14 2 42 84 41 28 20
30 13 0 40 82 38 28 21
32 14 1 40 80 37 29 21
34 15 1 39 75 34 27 21
33 20 2 38 75 33 27 19
24 19 6 42 76 33 28 23
19 15 9 45 76 34 29 25
25 16 8 40 75 31 26 26
25 15 6 35 74 27 23 27
22 16 6 35 72 26 23 26
26 17 4 32 67 25 18 24
35 15 1 29 60 20 14 19
38 15 0 27 58 19 12 18
30 14 6 27 58 20 14 21
24 16 10 29 60 20 16 22
20 16 13 30 59 19 15 21
6 14 19 34 60 22 17 25
1 13 21 33 59 24 16 24
3 11 21 32 58 24 15 22
1 11 20 31 57 23 13 19
0 9 21 31 56 23 12 18
0 6 21 27 53 21 12 16
5 7 22 26 51 18 9 16
11 10 22 24 49 16 10 14
10 7 23 23 49 14 7 13
11 5 23 21 47 12 6 12
5 4 26 24 47 14 5 13
1 2 27 22 48 15 7 13
5 3 26 22 46 13 4 9
3 -2 26 20 46 14 4 11
2 -3 25 18 45 14 4 11
-1 0 25 19 44 14 4 11
1 -2 25 19 42 11 3 9
1 -1 24 16 41 11 3 8
4 -2 25 17 40 8 2 7
3 -3 24 18 37 6 0 8
3 -1 26 20 40 7 1 8
-1 -1 26 17 40 8 3 6
1 -1 24 14 38 5 -1 1
2 -2 22 11 37 4 -2 -3
6 -3 19 8 33 2 -7 -8
6 -3 20 9 36 5 -3 -5
3 -2 22 11 35 6 -2 -4
1 -2 23 13 34 6 -2 -4
-1 2 25 15 36 6 0 -3
-6 3 28 17 38 7 1 -2
-4 0 28 16 37 7 1 -2
-4 0 27 14 36 6 0 -2
-1 -1 27 14 36 7 0 -3
2 2 27 14 37 10 -1 -1
2 4 26 13 36 9 -1 -4
1 2 27 13 35 9 -1 -4
4 2 29 16 36 9 -1 -2
3 0 29 14 34 9 0 -3
5 1 29 14 34 8 -1 -4
9 1 30 15 34 7 -1 -5
12 2 29 12 33 3 -4 -7
11 4 27 11 32 4 -3 -8
8 2 28 10 32 2 -5 -7
6 0 28 8 31 3 -5 -9
0 0 31 11 32 6 -2 -8
0 -1 31 13 33 6 -2 -9
6 -1 32 13 32 5 -2 -9
4 3 32 12 32 6 0 -9
-1 3 33 14 30 6 0 -7
2 4 32 13 28 4 -1 -8
-4 3 33 13 31 5 0 -7
-8 5 32 13 31 6 -1 -9
-5 5 32 14 30 5 -1 -9
-2 3 30 10 29 5 -2 -12
-3 6 28 7 27 4 -3 -12
1 7 30 10 28 5 -2 -11
8 7 27 9 24 1 -6 -13
6 7 27 10 24 3 -4 -13
-5 8 30 12 26 3 -2 -7
-3 10 30 12 24 2 -3 -7
4 11 27 10 24 2 -5 -7
3 8 30 13 26 6 -1 -5
0 6 31 14 27 6 -2 -3
-7 9 33 16 30 10 1 -1
-6 8 31 14 29 9 0 -2
0 9 31 13 27 9 -1 -3
1 13 31 14 28 9 0 -1
-3 15 33 17 30 13 3 3
-2 17 36 20 32 13 5 5
2 16 36 20 30 11 6 5
2 19 37 18 30 11 5 5
1 23 37 19 33 12 7 4
3 22 36 20 32 11 4 3
5 22 35 20 33 14 6 3
1 22 37 20 35 17 9 6
2 23 39 22 37 21 13 9
8 31 38 22 36 20 13 11
10 35 34 18 33 17 12 7
13 38 32 15 31 14 11 8
10 37 31 13 30 14 10 12
13 39 25 8 26 11 7 10
12 40 24 8 29 14 9 12
12 39 21 7 29 13 8 11
12 34 17 4 25 11 6 10
15 34 16 5 24 11 6 8
15 36 19 7 25 12 8 9
6 38 22 7 26 14 10 12
1 32 22 7 25 14 10 13
3 27 20 5 22 10 7 11
5 26 18 3 19 8 6 11
5 28 17 3 18 8 4 9
6 25 16 1 17 6 3 7
6 23 16 1 15 4 1 6
1 18 15 0 15 4 0 5
1 17 14 -1 14 2 -2 2
3 15 14 -2 11 1 -3 1
5 11 9 -6 5 -6 -8 -4
13 8 8 -7 1 -9 -11 -7
12 3 10 -7 1 -10 -12 -9
1 1 10 -7 1 -10 -13 -9
-7 1 14 -3 4 -7 -9 -6
-7 -2 12 -6 1 -8 -11 -8
-5 -1 11 -8 -1 -10 -14 -10
-8 -4 10 -10 -1 -9 -13 -9
-5 -4 7 -13 -4 -10 -15 -12
-2 -1 8 -11 -3 -10 -14 -12
-5 -1 6 -13 -6 -11 -16 -13
-10 -1 6 -13 -7 -13 -15 -13
-10 1 7 -12 -7 -16 -17 -13
-4 -2 4 -14 -10 -18 -19 -14
1 -5 4 -15 -11 -18 -22 -17
-3 -6 4 -15 -12 -17 -20 -16
-11 -9 6 -13 -8 -15 -18 -14
-12 -9 7 -12 -8 -13 -16 -11
-8 -9 3 -17 -12 -17 -19 -15
-11 -9 3 -17 -12 -18 -19 -14
-10 -9 4 -15 -13 -17 -19 -14
-9 -12 5 -13 -12 -15 -18 -13
-5 -9 7 -13 -12 -16 -17 -12
-13 -10 8 -12 -10 -14 -17 -11
-14 -10 8 -11 -11 -14 -16 -12
-9 -9 5 -13 -13 -15 -16 -13
-8 -10 5 -17 -14 -16 -18 -15
-2 -12 1 -19 -16 -17 -20 -16
-3 -11 0 -18 -17 -17 -21 -15
-4 -11 1 -19 -18 -16 -19 -11
-5 -9 3 -17 -17 -16 -18 -7
-8 -9 3 -18 -16 -14 -16 -6
-11 -8 3 -16 -16 -16 -17 -5
-10 -8 6 -15 -15 -12 -15 -2
-6 -7 4 -16 -16 -12 -17 -3
-4 -8 3 -17 -17 -10 -19 -4
-1 -9 1 -19 -18 -11 -22 -5
0 -12 1 -21 -18 -10 -22 -6
1 -13 1 -20 -17 -7 -22 -5
6 -14 -2 -21 -19 -9 -21 -7
-4 -12 3 -15 -15 -5 -18 -3
-14 -11 6 -13 -11 -2 -15 0
-19 -15 10 -10 -10 0 -12 2
-13 -16 10 -8 -11 -1 -15 -2
-8 -18 13 -2 -8 -2 -17 -3
-5 -21 16 9 0 2 -17 -9
0 -22 21 24 8 7 -19 -12
3 -24 24 36 16 13 -18 -16
7 -23 31 49 26 17 -18 -17
11 -16 42 71 43 29 -10 -15
13 -1 53 95 66 48 4 -6
15 17 58 109 86 68 20 8
25 32 60 113 100 83 37 22
37 48 53 100 106 96 54 38
44 73 42 68 103 108 75 59
43 93 23 31 97 124 103 87
44 117 -9 -21 84 138 131 118
52 142 -47 -73 66 146 158 148
59 158 -84 -126 40 145 173 168
49 170 -112 -187 1 127 177 186
23 182 -130 -233 -27 116 186 205
11 188 -149 -261 -47 107 188 215
17 181 -167 -272 -62 100 187 212
22 159 -185 -283 -88 73 167 198
19 134 -196 -308 -147 -3 109 166
12 103 -194 -320 -193 -74 48 128
4 65 -186 -310 -211 -112 4 92
-4 35 -170 -283 -206 -123 -25 59
-5 9 -148 -247 -190 -121 -45 27
-7 -10 -125 -213 -170 -115 -60 4
-6 -24 -99 -180 -147 -107 -66 -14
-12 -33 -76 -147 -124 -91 -63 -17
-17 -31 -58 -117 -101 -74 -52 -13
-23 -27 -42 -93 -83 -60 -42 -9
-22 -24 -29 -73 -67 -51 -37 -6
-12 -16 -20 -55 -54 -41 -34 -4
-8 -11 -15 -47 -46 -35 -31 -5
-9 -9 -9 -39 -38 -28 -26 -2
-8 -7 -5 -32 -31 -21 -21 0
-5 -6 -2 -27 -26 -18 -21 -2
-4 -6 1 -21 -21 -11 -17 0
-6 -6 3 -16 -17 -7 -15 1
-4 -11 2 -13 -17 -6 -16 0
-3 -10 2 -14 -18 -7 -16 -1
1 -9 2 -13 -18 -8 -19 -2
-3 -10 5 -8 -16 -6 -16 -2
-4 -9 7 -6 -14 -4 -15 0
-2 -8 7 -5 -12 -4 -15 -2
-1 -6 8 -4 -10 -1 -12 0
-2 -5 8 -3 -8 1 -12 -1
2 -7 4 -6 -11 -2 -14 -4
6 -6 5 -6 -13 -2 -13 -6
5 -8 6 -4 -13 -3 -14 -3
5 -7 6 -5 -16 -4 -15 -5
-6 -5 12 1 -10 0 -10 -1
-6 -4 14 2 -10 1 -9 0
-2 -4 13 1 -10 0 -10 0
-2 -3 14 2 -9 1 -10 0
0 -5 13 2 -11 1 -11 -1
11 -3 11 0 -12 1 -14 -4
3 -4 13 3 -9 4 -11 0
-6 -3 17 8 -6 8 -7 4
-2 -4 19 10 -5 9 -6 6
2 -3 19 11 -7 7 -6 4
3 -1 20 11 -7 6 -7 3
4 -1 21 11 -8 6 -7 3
6 0 19 8 -9 4 -10 2
16 1 16 6 -12 1 -13 -2
17 0 15 6 -13 2 -13 -3
10 0 16 7 -11 4 -11 -3
-2 0 21 13 -7 9 -5 4
-1 0 22 12 -9 9 -7 3
0 -2 24 14 -8 10 -6 4
0 -1 25 15 -9 11 -4 5
-3 0 25 16 -8 10 -4 4
0 0 26 15 -9 10 -6 2
-2 -3 25 15 -1 8 -6 1
-4 -2 27 21 9 11 -4 5
-1 1 29 23 13 14 -1 6
0 -1 28 21 11 13 -3 5
1 3 24 20 9 12 -5 1
5 2 24 20 10 14 -4 2
3 -4 23 22 11 15 -4 3
11 -1 20 22 10 13 -5 1
11 3 19 23 12 14 -3 1
6 3 22 28 15 19 -2 6
6 4 22 28 17 20 0 6
11 3 20 28 17 20 1 5
17 2 18 25 16 20 -1 3
12 3 19 29 19 24 2 5
4 3 17 31 21 26 4 5
13 6 15 31 20 25 3 5
12 5 16 33 22 26 4 7
10 7 16 35 23 28 7 10
7 8 18 39 27 31 10 13
7 6 18 40 28 32 9 13
14 5 17 40 29 30 9 11
22 8 15 39 29 31 8 11
17 9 13 39 31 33 8 10
13 8 14 44 34 37 12 13
0 9 18 48 41 41 16 17
6 7 17 49 41 42 17 17
14 7 15 51 42 42 17 18
19 10 13 50 41 41 17 17
21 12 14 52 43 42 20 19
10 14 18 57 47 47 23 22
12 13 16 57 45 46 21 20
18 15 13 57 45 47 23 21
21 16 10 54 43 46 20 19
22 17 8 55 44 45 21 20
24 19 6 53 44 46 21 19
21 18 7 55 44 48 22 22
24 17 5 56 43 45 21 20
23 15 5 56 41 44 22 22
25 17 4 55 41 43 24 22
24 20 5 54 43 45 25 23
22 21 7 55 44 46 27 25
26 20 4 54 44 45 28 25
29 18 2 52 42 44 27 24
31 16 -1 46 37 41 24 23
36 18 -2 43 34 39 23 21
37 17 -4 44 32 40 23 23
30 16 -2 47 34 41 26 26
29 19 -3 45 31 40 25 26
28 22 -3 44 30 38 26 27
25 22 -2 44 29 39 26 29
22 23 0 47 30 38 28 30
25 25 1 44 30 38 29 31
27 25 0 42 29 38 27 30
27 23 0 42 28 38 26 29
27 22 -1 43 25 35 25 28
28 26 -2 42 24 34 23 30
28 27 -4 39 23 32 22 29
28 27 -4 38 22 30 22 29
29 27 -4 37 23 30 24 30
27 25 -5 39 21 28 21 29
29 27 -4 38 22 27 21 28
26 27 -2 36 22 27 21 27
26 26 -4 34 20 27 20 26
25 24 -2 35 22 27 19 26
26 22 -3 33 19 26 17 22
32 24 -4 29 19 25 14 22
34 24 -5 28 19 24 13 21
26 24 -1 32 20 24 14 21
19 24 1 33 19 26 17 23
14 21 4 33 18 26 13 23
14 19 2 32 17 22 11 18
19 20 1 27 13 20 5 15
19 18 0 25 13 18 4 13
14 15 3 26 12 19 3 12
7 14 5 27 16 21 4 14
10 15 4 24 15 20 4 13
13 17 2 24 12 16 2 11
10 16 5 24 12 16 2 12
4 17 6 23 12 15 3 11
1 15 8 23 14 14 1 10
-1 8 9 23 15 14 1 8
2 7 10 21 14 12 1 7
7 7 8 20 14 13 -1 4
8 4 6 17 11 11 -3 2
12 7 5 15 9 9 -6 0
12 7 5 13 9 9 -7 -1
6 8 7 15 10 11 -4 2
-5 8 10 16 13 12 -2 6
-1 5 10 17 12 10 -2 5
1 9 11 18 11 8 -5 4
-3 8 14 20 14 9 -4 5
0 7 12 18 12 8 -4 4
1 5 12 17 13 8 -3 4
-1 3 12 18 12 9 -4 3
2 0 11 16 12 6 -6 1
10 4 9 14 9 3 -8 -1
12 5 8 13 7 2 -9 -2
7 6 12 18 11 5 -6 1
-8 5 17 22 14 8 -1 6
-3 4 14 20 10 5 -7 4
-3 6 14 20 11 6 -4 5
-6 9 15 21 12 7 -2 5
-3 7 13 21 13 5 -5 3
-1 8 10 20 13 4 -6 1
-4 7 10 19 12 4 -6 1
-2 9 11 18 11 4 -7 1
-2 9 12 19 9 4 -8 1
0 11 13 21 10 3 -6 1
0 12 15 21 12 5 -4 2
-5 11 16 23 12 6 -5 5
-3 10 17 26 13 6 -4 5
-1 13 17 24 12 4 -4 3
-3 12 17 23 11 5 -6 4
-4 11 16 23 10 5 -6 3
-5 9 16 23 11 7 -5 4
-3 9 14 21 10 5 -6 2
-3 9 14 22 11 6 -4 3
-3 7 12 21 11 6 -5 3
-2 7 12 22 12 7 -3 5
-2 9 13 24 13 8 -5 5
-4 7 15 26 14 7 -3 4
-4 6 16 26 15 7 -3 5
-4 8 15 25 14 6 -3 4
-3 8 16 24 13 6 -4 3
3 8 14 22 13 4 -5 1
8 7 12 19 10 4 -7 -1
4 4 13 22 12 5 -3 2
-4 7 14 23 14 5 -3 2
-7 5 14 21 12 4 -2 4
-5 7 13 22 13 5 -4 3
-4 6 13 22 14 5 -4 3
-3 4 14 21 14 5 -5 1
-3 7 15 21 16 7 -4 3
-4 11 16 23 16 7 -4 2
-3 11 17 23 16 8 -3 3
-2 14 15 23 15 8 -4 6
-1 13 16 24 15 8 -3 5
6 14 16 23 14 7 -3 5
12 13 14 20 12 5 -4 3
13 16 15 21 12 5 -5 4
0 17 23 29 20 13 2 8
-12 16 27 32 25 16 6 12
-11 17 27 32 25 17 5 11
-6 16 28 31 25 18 5 11
-3 17 27 31 26 18 6 11
3 22 25 29 24 18 5 12
10 23 25 28 22 16 4 10
13 25 25 30 24 17 6 14
7 27 25 30 25 20 10 18
3 27 24 29 25 20 9 19
6 29 23 27 25 20 10 19
11 28 18 21 20 16 7 17
16 29 13 17 18 13 4 12
15 32 10 18 19 15 5 16
6 31 11 19 21 17 9 19
11 32 9 16 19 17 8 17
18 31 8 18 17 15 6 16
9 28 10 17 17 16 7 16
-1 28 13 18 20 17 10 19
4 27 10 17 17 14 6 17
6 22 7 15 15 11 5 14
9 21 6 11 12 8 3 12
1 17 5 12 11 8 2 13
-4 13 6 12 12 7 3 12
0 11 6 10 11 6 2 11
2 8 4 7 8 3 -1 7
9 5 3 6 7 2 -4 4
12 2 1 3 3 -2 -6 1
5 -3 3 6 5 -1 -3 2
-9 -2 7 10 8 2 -3 5
-10 -4 6 8 5 -1 -4 4
-10 -6 6 6 5 -3 -6 4
-13 -11 7 6 2 -5 -6 2
-14 -16 6 2 1 -7 -9 0
-11 -15 4 -3 -3 -12 -12 -4
-12 -13 2 -5 -6 -14 -14 -5
-10 -13 2 -7 -6 -15 -15 -6
-5 -10 2 -7 -7 -15 -14 -5
-3 -13 5 -3 -5 -12 -12 -5
-9 -14 5 -1 -3 -10 -11 -4
-12 -13 8 -3 0 -10 -8 -2
-10 -16 7 -4 -3 -11 -11 -4
-12 -16 7 -3 -3 -11 -11 -5
-14 -15 5 -7 -7 -12 -12 -6
-13 -18 5 -9 -8 -12 -13 -8
-13 -15 4 -9 -10 -13 -15 -10
-11 -16 4 -9 -10 -13 -15 -8
-10 -15 3 -12 -11 -13 -14 -9
-10 -16 5 -10 -12 -11 -14 -10
-10 -16 4 -11 -12 -13 -15 -11
-1 -15 3 -16 -15 -16 -17 -14
6 -14 1 -19 -18 -17 -20 -17
5 -15 2 -18 -17 -16 -20 -17
-12 -15 7 -13 -10 -10 -14 -12
-23 -17 12 -10 -7 -7 -10 -10
-15 -18 9 -13 -10 -9 -14 -10
-12 -21 9 -12 -12 -11 -13 -11
-10 -20 8 -14 -14 -12 -14 -11
-9 -19 8 -12 -13 -13 -15 -12
-14 -19 11 -10 -11 -11 -12 -10
-12 -18 11 -12 -10 -13 -12 -10
-8 -15 9 -13 -10 -14 -15 -12
-7 -17 10 -13 -11 -13 -15 -14
-5 -18 8 -16 -12 -13 -16 -15
2 -19 7 -19 -13 -16 -17 -16
-3 -18 7 -20 -14 -16 -19 -18
-12 -19 9 -16 -11 -12 -13 -15
-12 -20 9 -17 -12 -15 -16 -16
-10 -23 10 -15 -12 -15 -16 -15
-20 -20 15 -11 -6 -11 -11 -11
-22 -23 16 -12 -6 -10 -11 -10
-16 -27 17 -11 -6 -11 -14 -12
-10 -28 18 -5 -6 -10 -17 -20
-8 -27 23 6 0 -8 -21 -25
-2 -29 29 21 11 -1 -17 -26
-2 -32 35 34 21 7 -15 -28
1 -32 44 46 31 14 -13 -29
-2 -24 57 69 52 28 -5 -24
6 -8 66 91 73 45 7 -16
12 12 71 106 93 64 22 -5
13 25 75 112 110 84 42 14
18 41 71 101 119 102 63 33
23 64 63 73 117 118 85 54
30 87 45 37 111 132 112 81
42 111 9 -18 94 143 139 110
52 135 -27 -69 78 153 167 140
55 155 -62 -118 55 151 183 164
40 172 -87 -179 18 135 189 184
24 187 -106 -222 -9 125 197 201
18 191 -127 -251 -29 116 198 209
20 181 -144 -266 -44 107 193 205
16 154 -163 -281 -78 73 169 187
5 126 -173 -306 -140 -5 108 155
-2 99 -173 -318 -188 -74 49 116
-5 63 -165 -307 -203 -108 8 78
-8 30 -149 -281 -196 -118 -22 45
-13 2 -127 -250 -175 -116 -41 18
-16 -17 -100 -214 -151 -108 -52 -4
-20 -27 -75 -180 -129 -98 -58 -19
-24 -32 -57 -151 -111 -87 -56 -26
-19 -32 -43 -127 -90 -73 -51 -26
-13 -30 -32 -108 -78 -64 -46 -27
-5 -29 -24 -90 -68 -57 -43 -28
2 -24 -13 -71 -55 -47 -38 -26
-9 -20 -3 -56 -39 -34 -26 -17
-12 -18 2 -46 -29 -27 -21 -12
3 -13 0 -43 -27 -25 -22 -16
6 -12 4 -38 -21 -23 -19 -15
-6 -12 12 -26 -11 -13 -11 -7
-10 -9 15 -21 -6 -8 -9 -5
-15 -11 18 -18 -3 -5 -6 -4
-9 -11 15 -17 -5 -7 -8 -8
-7 -13 15 -17 -5 -7 -9 -9
-11 -13 17 -13 -3 -6 -7 -7
-5 -12 16 -16 -5 -9 -11 -11
2 -11 14 -17 -5 -11 -12 -12
2 -12 17 -14 -1 -8 -10 -11
-8 -12 20 -10 3 -2 -7 -10
-12 -10 21 -8 6 -1 -5 -10
-5 -7 19 -8 3 -2 -7 -10
-4 -7 17 -9 2 -1 -7 -11
-5 -6 19 -9 1 0 -4 -10
-1 -5 20 -7 3 -1 -4 -7
3 -7 19 -7 1 -2 -6 -10
4 -6 19 -6 1 -2 -5 -11
-3 -4 22 -3 5 1 -3 -8
-11 -6 24 -2 7 3 -2 -7
-7 -5 25 -2 5 2 -4 -9
-2 -6 22 -3 5 1 -5 -9
5 -6 21 -4 3 1 -6 -11
10 -7 19 -3 2 1 -8 -13
13 -8 17 -5 -1 0 -9 -15
6 -9 21 -2 2 1 -5 -11
-10 -7 28 5 7 7 0 -7
-9 -8 28 5 7 6 -1 -7
-7 -9 28 6 7 7 -1 -7
-7 -9 27 5 8 5 -2 -7
-5 -10 26 5 7 6 -3 -9
-3 -11 26 4 9 7 -2 -10
-4 -11 24 4 8 9 -2 -9
-1 -9 22 7 8 7 -2 -9
2 -8 23 8 8 9 0 -7
-1 -10 22 7 7 9 1 -6
5 -7 21 8 9 9 0 -6
7 -6 21 9 9 9 2 -6
1 -8 22 13 11 11 4 -6
0 -9 22 13 12 12 4 -4
1 -10 20 12 11 12 2 -6
0 -8 20 11 11 12 3 -6
3 -9 20 15 12 15 4 -3
3 -11 19 15 11 16 3 -4
4 -9 20 14 11 16 5 -4
5 -10 20 16 13 17 6 -3
6 -9 20 18 13 19 6 -3
6 -9 21 19 15 21 6 -3
4 -9 22 21 17 23 9 -1
3 -7 23 23 19 24 8 -1
14 -4 18 20 16 22 4 -7
16 -4 18 18 17 22 5 -6
8 -5 21 22 20 27 10 0
8 -7 21 23 22 28 10 -1
16 -5 23 25 23 31 13 0
18 0 25 28 26 33 15 3
10 -1 27 33 29 36 16 3
11 2 26 33 29 35 15 3
11 3 25 34 30 36 17 5
18 4 22 31 28 34 14 2
27 3 21 31 29 36 14 -1
16 3 23 35 34 39 20 6
5 4 26 40 39 44 25 11
5 6 23 41 38 44 23 9
10 5 22 41 38 44 25 10
14 5 20 42 37 41 25 11
15 6 20 42 38 42 25 10
16 4 18 40 38 42 25 10
16 6 19 43 40 45 29 15
10 10 20 46 43 48 32 18
13 11 21 48 45 51 36 18
18 12 23 49 48 54 37 21
20 11 20 46 44 51 34 18
27 14 17 45 42 49 32 17
31 17 15 42 39 49 33 18
28 14 16 44 41 51 36 21
28 14 18 46 41 53 36 23
25 13 17 45 38 51 36 22
20 15 19 46 37 52 36 23
24 17 17 46 37 51 36 24
27 18 16 43 34 50 36 22
28 19 14 42 33 50 36 23
31 19 13 40 31 48 36 23
34 18 12 36 29 46 34 21
33 20 11 35 28 45 35 21
26 19 12 36 29 46 36 25
22 19 14 38 29 46 37 27
24 20 13 34 26 44 36 25
33 20 11 29 20 38 32 21
42 20 9 26 18 36 29 20
30 20 10 29 19 40 31 21
16 22 13 32 23 44 36 26
26 25 11 29 20 41 33 24
35 23 8 23 14 37 29 20
34 23 10 24 13 37 30 20
20 25 16 29 18 42 35 27
18 24 16 28 17 41 35 26
23 23 15 25 12 37 31 23
21 21 15 24 9 35 30 22
20 21 14 23 9 34 29 22
20 21 15 23 9 33 28 20
17 20 15 21 8 31 26 21
15 18 18 22 8 31 25 21
19 12 18 20 7 29 24 20
17 13 19 21 6 27 23 20
19 17 19 19 4 26 20 21
14 17 20 20 5 26 20 19
8 16 24 23 8 28 21 19
11 14 23 22 6 25 20 19
9 11 22 20 8 24 20 19
9 12 23 20 7 25 19 16
10 12 21 18 5 23 16 14
5 11 21 17 5 21 13 10
8 12 21 16 5 21 13 10
8 10 20 16 4 22 13 10
7 11 20 16 5 21 11 7
10 10 18 14 2 17 8 5
10 7 15 12 -1 13 4 3
8 5 17 12 0 14 7 4
-1 6 19 15 2 15 9 7
-3 6 17 14 0 14 8 5
1 5 17 12 0 13 8 6
3 5 15 11 -1 13 7 3
6 6 16 11 -3 12 6 2
10 6 16 10 -3 10 5 1
5 6 17 9 -2 11 2 0
9 8 15 8 -4 10 0 -1
17 7 13 5 -7 6 -2 -4
16 6 15 6 -7 6 -4 -4
3 8 19 9 -3 12 0 0
2 5 21 11 -3 12 1 0
2 7 19 9 -3 9 1 1
-2 7 17 7 -3 10 1 2
-1 1 16 7 -3 11 2 3
-4 2 19 11 1 16 7 6
-12 1 22 13 3 17 10 9
-9 1 18 11 -1 14 5 5
-6 2 16 11 -3 12 5 5
-7 3 13 11 -4 9 3 4
0 3 12 9 -4 8 1 3
3 4 10 7 -6 6 0 2
1 4 9 7 -5 6 -1 2
2 4 10 6 -4 7 0 3
-8 0 14 10 -3 10 1 3
-11 1 16 11 -2 10 3 5
-6 3 18 13 2 14 6 7
-7 1 18 12 2 14 5 5
-7 1 18 14 1 12 6 6
-4 3 19 13 0 11 3 4
-1 4 18 12 0 10 2 2
-4 6 18 13 2 11 2 3
-6 5 16 12 1 10 1 4
-2 3 14 9 -2 8 -1 1
0 4 15 11 -1 9 -3 0
-5 4 18 13 -1 11 1 2
-6 2 20 14 0 9 2 2
-3 3 19 14 0 7 0 0
-4 1 19 17 0 7 0 0
-1 2 20 17 1 8 2 0
4 1 18 15 0 5 -2 -4
11 3 17 14 0 3 -4 -5
5 7 16 15 2 6 -2 -2
-6 3 18 15 5 8 2 -1
-8 4 17 16 5 9 1 0
-2 8 17 16 2 6 -3 -2
3 5 16 14 1 5 -4 -3
-2 4 19 17 4 7 -2 1
-9 3 22 21 6 11 2 6
-5 5 24 20 6 9 4 5
-3 7 25 20 7 10 4 6
-5 7 27 21 8 10 5 7
-4 8 28 21 9 10 5 7
0 10 27 19 9 10 5 7
-2 11 28 20 11 12 6 7
0 14 31 23 13 15 9 9
3 16 31 22 12 13 8 9
1 15 33 24 13 13 8 10
-5 14 37 28 17 18 13 13
-3 13 37 28 18 17 12 12
1 17 37 27 19 19 13 14
-1 19 36 28 19 21 14 13
1 20 37 29 19 22 14 13
4 26 37 27 19 21 15 14
6 30 35 26 18 21 15 14
11 33 35 25 17 20 16 15
11 35 35 23 18 20 16 17
9 36 31 20 17 17 14 17
18 36 25 16 14 15 15 16
22 37 22 13 14 13 12 15
14 36 21 14 15 14 13 15
9 37 22 17 17 15 16 18
10 36 21 14 17 14 14 17
1 33 23 14 18 15 15 17
7 34 18 10 14 12 10 15
13 34 12 6 9 7 6 13
16 31 11 6 8 6 6 11
13 29 12 7 9 5 5 12
9 27 13 8 9 4 4 12
11 26 14 7 8 3 5 12
8 21 13 9 8 3 3 10
3 17 16 11 9 3 4 8
3 13 14 7 6 1 2 3
3 9 12 4 3 -3 -2 2
4 7 11 5 2 -4 -1 1
2 8 11 4 2 -4 -3 1
-6 4 11 4 1 -4 -4 1
-5 2 10 4 -1 -6 -6 0
-9 1 11 4 -1 -6 -5 0
-8 0 12 2 -3 -7 -5 -1
-6 -2 9 -1 -5 -8 -9 -4
-9 -3 8 -3 -6 -10 -10 -5
-6 -5 10 -2 -4 -10 -9 -3
-7 -7 10 -1 -4 -9 -9 -3
-2 -8 6 -4 -8 -12 -12 -9
-4 -10 6 -5 -8 -13 -12 -9
-8 -9 6 -5 -7 -13 -12 -7
-7 -7 7 -5 -7 -12 -11 -6
-9 -10 6 -5 -7 -12 -11 -7
-5 -13 5 -7 -9 -15 -12 -7
3 -12 2 -9 -10 -16 -14 -10
0 -13 2 -9 -9 -15 -13 -9
-6 -13 3 -7 -7 -14 -12 -8
-8 -14 6 -5 -5 -12 -10 -7
-12 -14 5 -6 -6 -13 -12 -8
-10 -13 3 -8 -8 -17 -14 -8
-7 -17 2 -11 -10 -18 -17 -11
-7 -15 1 -12 -11 -20 -18 -11
-7 -14 1 -9 -10 -20 -17 -10
-7 -15 1 -7 -9 -17 -16 -11
-7 -15 0 -7 -8 -16 -16 -10
-8 -17 0 -6 -7 -16 -15 -10
-14 -16 -3 -6 -7 -16 -17 -12
-15 -14 -3 -8 -6 -15 -15 -12
-11 -16 -5 -8 -7 -15 -15 -12
-9 -18 -5 -8 -8 -16 -15 -11
-5 -17 -5 -9 -9 -18 -16 -13
-3 -20 -5 -10 -10 -18 -17 -13
1 -20 -6 -12 -12 -19 -17 -14
-6 -17 -2 -8 -9 -15 -15 -12
-14 -17 -1 -8 -7 -13 -15 -10
-6 -18 -2 -12 -8 -15 -16 -11
-6 -19 0 -11 -7 -13 -14 -10
-2 -18 -2 -12 -8 -14 -17 -11
-2 -14 -2 -11 -7 -12 -18 -14
-13 -16 1 -6 -3 -7 -13 -10
-6 -17 -2 -9 -5 -9 -16 -11
-3 -18 -3 -7 -5 -9 -16 -12
-9 -21 -1 0 -3 -8 -16 -13
-3 -25 2 9 2 -7 -19 -17
-2 -30 8 23 13 0 -17 -18
-4 -31 16 39 25 8 -13 -19
8 -29 20 51 33 12 -13 -22
11 -25 29 66 49 23 -11 -21
12 -15 41 92 72 40 2 -15
12 2 50 114 95 63 19 -1
11 17 53 120 112 80 35 14
17 32 52 122 127 101 58 32
21 53 47 108 137 125 86 53
23 77 33 77 132 139 109 76
34 101 4 33 118 151 136 104
43 123 -39 -30 92 156 162 132
50 142 -81 -80 73 163 186 160
44 155 -114 -142 35 149 192 179
25 173 -141 -203 -8 128 193 193
18 183 -167 -247 -40 115 196 204
14 182 -186 -273 -60 105 194 209
18 166 -202 -281 -82 86 184 202
13 139 -217 -304 -139 20 138 177
0 108 -219 -320 -197 -64 73 143
-2 72 -214 -313 -224 -112 22 103
2 39 -202 -288 -222 -130 -12 65
-3 3 -179 -252 -202 -128 -34 35
-2 -17 -154 -219 -179 -123 -51 9
-6 -26 -130 -185 -155 -113 -61 -11
-17 -34 -103 -150 -130 -98 -63 -21
-14 -35 -86 -125 -109 -85 -58 -24
-20 -33 -71 -101 -90 -70 -49 -20
-18 -28 -57 -81 -73 -57 -42 -19
-11 -24 -47 -61 -56 -44 -36 -18
-11 -18 -38 -45 -42 -33 -30 -15
-9 -10 -30 -34 -30 -23 -23 -10
-7 -7 -27 -29 -23 -17 -19 -8
-7 -7 -24 -23 -16 -10 -16 -6
-1 -6 -22 -18 -10 -6 -13 -5
-1 -8 -22 -14 -8 -3 -12 -6
-2 -9 -19 -11 -5 0 -10 -4
-3 -7 -18 -8 -2 3 -8 -3
-2 -8 -17 -5 -3 3 -9 -5
2 -6 -16 -4 -1 3 -9 -3
4 -9 -17 -5 -1 0 -11 -5
4 -12 -16 -4 0 -1 -14 -8
9 -10 -15 -3 2 0 -14 -10
17 -8 -19 -7 -1 -3 -17 -11
11 -9 -16 -5 3 2 -15 -10
-2 -11 -10 1 9 9 -7 -4
-5 -11 -9 3 10 10 -5 -3
-4 -9 -8 5 11 11 -6 -1
-5 -9 -7 4 12 11 -3 -1
-7 -9 -5 7 13 12 -1 1
-5 -6 -4 8 13 10 -3 0
-4 -8 -5 8 13 9 -6 -2
-1 -10 -5 8 14 10 -4 -2
4 -5 -5 8 15 11 -5 -3
5 -8 -7 8 13 11 -7 -5
5 -7 -8 7 13 13 -6 -6
0 -7 -6 9 15 14 -4 -3
-1 -5 -7 10 14 12 -6 -3
1 -3 -5 11 15 13 -4 -4
2 -3 -4 13 15 12 -5 -4
3 -5 -4 13 17 12 -5 -4
8 -5 -6 11 16 11 -6 -6
11 -5 -8 11 16 11 -7 -7
8 -2 -8 12 19 14 -6 -4
8 -2 -7 14 19 15 -5 -5
10 -1 -6 12 17 15 -5 -8
1 -4 -3 16 20 19 -1 -2
-3 -5 0 18 19 20 0 0
4 -2 1 17 19 19 2 -2
7 -1 0 18 19 18 -1 -3
3 -4 1 22 21 20 0 -1
0 -3 2 22 22 21 1 0
0 -1 4 25 25 24 4 2
4 0 2 26 25 24 2 2
6 0 -1 24 23 24 2 1
5 0 0 22 23 25 3 -1
7 -1 -1 23 23 25 3 0
10 -1 -3 25 23 26 3 2
12 -5 -4 24 22 26 4 1
18 -3 -5 24 21 24 1 -2
28 -2 -9 22 19 22 0 -2
21 -1 -7 26 22 23 4 1
1 1 -2 32 31 32 11 6
4 3 -6 31 31 31 9 6
13 5 -9 30 30 31 9 4
5 3 -7 32 33 35 12 5
2 1 -7 34 33 37 14 7
6 3 -8 38 33 38 14 8
7 2 -8 40 34 39 14 9
5 2 -7 41 37 42 17 11
8 3 -8 42 36 42 16 12
12 0 -11 42 35 38 13 7
14 0 -9 42 38 40 16 9
13 2 -10 44 40 41 17 10
20 3 -13 44 40 41 17 8
26 6 -16 42 38 42 15 4
25 5 -18 43 39 43 16 6
19 9 -15 48 42 48 20 8
17 10 -13 50 46 49 21 9
9 8 -10 53 48 52 25 13
12 9 -10 56 48 50 24 14
22 7 -11 54 46 47 21 13
23 7 -10 54 48 49 23 16
25 9 -9 55 49 50 24 17
26 7 -11 53 50 50 24 16
19 5 -9 56 53 55 30 21
20 6 -8 58 53 57 32 22
28 10 -12 55 48 54 28 18
33 13 -13 54 45 54 30 18
28 13 -11 57 46 56 33 20
21 14 -9 59 48 59 35 25
18 18 -5 60 50 60 38 27
23 16 -7 57 48 58 35 25
26 13 -10 54 45 55 31 24
22 10 -8 55 45 57 34 27
21 7 -10 53 44 57 34 25
25 10 -10 53 42 57 36 27
30 13 -13 50 37 51 32 25
32 15 -11 49 35 52 33 25
31 20 -10 48 35 52 34 26
26 18 -7 51 36 53 37 29
29 18 -8 48 33 52 37 27
30 18 -9 44 32 52 35 25
29 15 -10 42 31 51 33 27
34 15 -12 40 29 49 32 24
34 15 -12 38 28 49 32 24
32 15 -14 37 26 48 33 26
32 14 -15 35 24 48 33 27
33 10 -17 34 21 47 34 27
27 13 -16 36 22 46 32 28
26 17 -16 35 21 44 32 28
25 19 -14 36 23 45 34 28
25 20 -15 34 21 42 31 26
24 17 -18 32 18 41 27 26
22 16 -17 32 18 40 27 23
22 17 -19 29 16 38 24 22
22 18 -20 28 13 37 23 20
19 19 -17 31 14 37 25 19
17 18 -15 31 13 37 25 18
17 17 -16 30 12 36 22 18
15 16 -14 30 13 36 22 18
17 17 -12 30 12 34 20 15
20 16 -11 27 11 31 18 15
16 15 -11 26 11 31 17 13
21 12 -13 22 7 27 12 6
15 11 -9 23 8 28 12 8
3 11 -5 25 11 32 16 13
-1 9 -3 26 10 30 15 11
1 7 -2 25 9 27 13 10
3 6 -3 23 5 23 9 8
7 6 -5 19 3 18 7 5
13 7 -3 19 3 17 5 4
11 3 -3 17 3 17 5 4
4 3 -1 19 5 18 7 5
-3 4 -1 20 6 19 7 5
0 3 -1 18 4 18 7 4
5 4 -2 15 2 18 7 5
3 4 0 17 3 19 9 5
0 2 1 17 3 19 9 7
-2 0 3 18 2 18 8 7
-5 -3 4 19 2 17 7 6
-5 -4 6 19 3 17 6 6
-1 -3 4 16 1 16 3 4
5 -4 1 13 -3 12 0 1
2 -1 3 14 -2 13 2 2
1 1 5 15 0 15 3 2
7 2 1 13 -4 10 0 -1
5 5 2 14 -4 9 -1 -1
-2 4 6 15 0 11 2 3
-10 4 9 19 2 14 5 7
-7 3 9 17 2 14 4 5
-2 3 7 15 -1 11 1 1
3 1 6 14 0 10 1 1
1 0 5 13 0 9 -1 0
1 0 5 14 2 9 -3 -1
5 4 4 14 2 8 -2 -1
6 3 3 11 1 7 -2 -3
1 3 7 16 4 11 0 1
-7 4 10 17 6 14 5 2
-3 2 10 18 5 13 5 0
8 2 8 15 3 10 0 -2
5 1 9 16 5 10 1 -3
-7 0 13 19 11 12 6 1
-3 1 11 19 11 11 3 0
-6 -1 11 18 10 12 3 -1
-10 -3 13 20 13 14 5 3
-9 -4 11 19 11 14 3 1
-3 -4 9 18 9 13 2 0
0 -2 10 17 9 14 3 0
-1 -1 10 18 9 13 3 0
-2 0 11 18 9 12 2 1
-7 2 14 19 12 15 3 2
-8 1 14 18 11 14 3 1
-5 1 12 17 10 12 1 0
0 1 10 13 8 10 -1 -2
8 2 7 11 6 6 -3 -3
10 1 6 12 6 8 -2 -2
1 -2 9 14 10 9 1 1
-6 -4 13 19 13 13 5 3
-7 -1 13 20 13 14 5 5
-3 1 13 18 11 12 2 4
-3 3 16 18 13 12 3 2
-2 5 17 19 14 14 5 2
3 7 15 18 12 11 3 3
1 9 16 18 14 12 4 3
-1 11 16 17 14 12 5 3
3 13 17 18 14 11 4 2
2 11 20 21 16 14 6 4
2 11 21 21 17 14 9 6
-1 16 27 25 19 16 11 9
-2 15 30 27 22 19 12 10
5 17 29 27 23 19 11 8
3 18 31 29 26 21 12 11
3 19 28 26 23 19 11 10
11 19 25 22 21 16 10 7
11 23 26 24 24 20 12 10
7 28 27 27 26 22 15 13
3 32 29 28 27 23 19 16
5 32 26 23 24 20 15 15
8 32 23 21 22 18 14 15
13 36 20 17 21 17 13 14
9 39 17 16 20 17 13 14
12 37 16 15 20 16 12 15
17 36 12 14 17 13 11 13
20 34 13 13 18 13 12 13
15 37 15 15 21 18 15 15
17 35 12 11 15 15 10 13
20 31 9 7 12 10 7 11
9 28 11 8 14 12 11 13
-1 24 15 11 16 13 14 18
3 23 15 12 17 12 13 15
5 24 14 9 16 9 11 11
4 21 11 7 13 5 7 8
5 18 12 8 13 5 5 5
3 15 11 6 11 3 3 3
6 11 10 5 7 2 2 1
6 9 7 4 6 0 -1 -1
-2 6 8 5 5 0 0 0
-2 1 10 4 7 1 0 0
-1 -3 8 2 4 -2 -5 -4
1 -5 8 -1 1 -6 -7 -7
4 -5 9 -2 0 -8 -8 -8
-4 -7 9 -3 -1 -9 -11 -9
-11 -9 8 -3 -1 -9 -9 -8
-2 -7 6 -6 -2 -11 -9 -9
-2 -9 7 -6 -2 -10 -7 -8
-5 -8 9 -3 0 -8 -6 -7
-4 -10 6 -6 -3 -12 -11 -11
0 -13 5 -8 -5 -14 -12 -15
0 -9 5 -9 -7 -14 -14 -14
-1 -8 7 -8 -4 -12 -12 -12
-9 -6 10 -4 -2 -11 -9 -10
-10 -8 11 -4 -2 -11 -8 -10
-8 -12 9 -7 -2 -12 -11 -11
-2 -13 6 -11 -4 -13 -13 -13
0 -15 5 -12 -6 -14 -13 -14
-6 -15 8 -6 -1 -11 -9 -9
-8 -15 9 -6 0 -10 -9 -9
-3 -15 7 -10 -3 -12 -11 -12
-4 -14 7 -8 -3 -11 -11 -11
-9 -15 12 -5 0 -9 -8 -8
-14 -18 13 -4 0 -10 -10 -10
-10 -18 12 -7 -1 -11 -10 -11
-10 -20 11 -7 -1 -12 -11 -10
-11 -21 10 -9 -1 -11 -9 -12
-6 -20 8 -10 -1 -12 -10 -11
-3 -18 7 -11 -2 -14 -12 -13
-1 -15 5 -11 -4 -16 -14 -14
-5 -14 8 -9 -2 -13 -11 -11
-11 -16 10 -5 1 -11 -9 -7
-6 -17 10 -7 0 -12 -9 -7
-7 -17 10 -7 1 -12 -10 -8
-7 -17 9 -8 0 -13 -11 -10
-6 -16 7 -7 -1 -15 -11 -10
-8 -18 8 -8 -1 -14 -10 -11
-7 -18 7 -9 -1 -14 -11 -10
-4 -18 5 -9 -2 -14 -11 -11
-6 -20 4 -11 -3 -15 -12 -12
-8 -19 7 -9 -2 -13 -12 -12
-6 -19 6 -8 -2 -15 -14 -13
1 -21 8 -5 -3 -18 -16 -17
9 -23 13 4 1 -15 -17 -22
7 -27 18 19 11 -9 -16 -24
7 -30 26 34 25 -1 -13 -23
8 -29 35 48 37 8 -10 -23
2 -25 45 68 52 18 -4 -19
9 -15 55 92 71 34 4 -14
12 -1 64 112 93 53 20 -2
18 17 68 121 111 71 37 11
24 37 67 121 124 90 57 31
28 56 60 107 130 109 82 52
31 78 50 76 127 125 108 76
41 100 19 25 113 137 131 100
52 122 -24 -36 90 145 157 128
59 144 -62 -89 71 152 181 156
56 160 -97 -145 39 142 188 174
42 178 -124 -208 -5 121 190 188
28 189 -146 -248 -30 111 197 204
23 187 -165 -270 -50 102 198 209
26 170 -182 -281 -67 88 188 201
19 143 -194 -296 -111 37 152 179
9 111 -197 -314 -173 -48 89 146
7 76 -196 -317 -210 -107 32 105
6 40 -183 -295 -210 -128 -3 69
-1 12 -160 -260 -194 -129 -25 39
-5 -7 -132 -223 -172 -122 -41 15
-11 -23 -106 -187 -149 -112 -49 -5
-16 -33 -80 -153 -124 -99 -53 -22
-20 -35 -60 -124 -102 -85 -50 -23
-18 -35 -48 -102 -85 -74 -43 -23
-14 -30 -34 -81 -69 -63 -36 -21
-14 -25 -22 -61 -53 -52 -30 -18
-10 -20 -15 -46 -38 -42 -27 -15
-6 -14 -10 -37 -31 -36 -22 -13
-3 -9 -9 -31 -24 -32 -19 -12
-3 -8 -6 -24 -15 -25 -17 -12
3 -8 -3 -19 -10 -19 -15 -11
6 -9 -3 -17 -7 -18 -13 -11
4 -9 2 -11 -3 -13 -9 -8
2 -10 2 -8 -1 -12 -9 -8
9 -11 2 -9 -4 -16 -10 -11
8 -10 4 -6 -1 -14 -9 -10
-2 -11 8 -1 3 -12 -5 -8
-5 -11 10 0 5 -11 -5 -5
-5 -11 11 3 7 -10 -7 -5
6 -11 8 0 5 -12 -9 -9
13 -9 6 -2 4 -12 -10 -12
-8 -11 13 5 11 -3 -3 -6
-13 -9 15 8 13 -2 0 -4
-2 -8 10 4 8 -6 -3 -6
-1 -8 10 4 8 -7 -3 -6
-1 -6 11 5 8 -7 -4 -7
-1 -9 10 6 8 -8 -6 -9
-4 -10 13 10 10 -6 -3 -6
-11 -8 16 14 13 -2 0 -3
-9 -8 15 11 13 -2 -2 -6
-2 -10 12 10 13 -3 -3 -6
5 -9 9 8 9 -6 -5 -9
4 -7 9 10 10 -4 -5 -7
-2 -8 12 14 14 0 0 -3
3 -6 11 14 13 -2 0 -3
13 -4 8 11 9 -5 -4 -6
0 -6 13 18 15 0 -1 -1
-7 -10 15 21 18 2 2 0
3 -6 13 19 16 1 -1 -2
10 -3 8 15 14 -1 -4 -7
2 -4 8 15 14 1 -3 -7
-8 -2 10 18 17 5 2 -3
-7 -2 11 20 18 6 2 -4
-4 -1 11 21 18 6 2 -3
-2 1 12 24 18 6 3 -1
-1 2 12 24 19 5 3 -1
2 2 14 26 23 7 3 0
4 1 15 26 28 7 3 -1
3 3 14 25 29 5 2 -1
4 2 13 25 26 4 0 -3
3 -3 13 24 23 6 1 -3
3 -3 12 26 23 9 3 0
8 2 11 27 22 10 3 1
9 0 13 28 20 10 5 0
7 0 15 31 22 13 8 2
7 3 16 34 22 14 9 5
9 3 15 34 23 14 7 3
11 3 16 36 25 15 9 2
9 2 17 38 27 17 11 4
11 -2 16 39 27 18 12 4
12 -2 15 38 29 19 12 4
8 -4 15 41 30 21 14 5
11 -4 16 43 32 22 15 7
14 -3 14 44 31 21 15 5
17 -3 13 44 32 21 15 4
23 -4 13 47 33 23 17 5
22 -3 14 47 35 21 16 5
15 -5 17 52 39 26 21 9
11 -3 19 54 43 30 23 12
12 -1 18 55 44 31 25 10
15 0 18 58 46 33 25 9
20 1 14 57 44 32 23 7
24 2 13 56 42 32 21 7
32 2 13 56 44 33 24 6
37 3 10 54 43 30 23 5
31 4 11 59 47 33 26 8
16 6 18 67 57 41 32 16
5 4 21 71 61 44 35 18
12 9 19 69 60 43 36 20
20 9 14 66 58 43 33 19
26 8 12 65 58 42 33 17
29 10 11 66 59 44 34 17
27 13 10 66 59 44 35 19
25 14 8 66 58 43 37 21
19 15 12 71 60 45 40 24
19 14 11 70 58 45 40 26
23 13 10 67 57 43 38 25
23 13 9 67 56 41 38 26
28 17 6 65 55 41 37 24
37 18 3 63 54 41 36 22
38 15 -1 60 50 38 34 20
37 16 -3 58 47 37 33 20
24 17 0 62 51 42 37 24
20 15 0 64 51 43 40 26
24 15 -1 63 47 41 39 27
25 14 -5 61 44 38 35 26
23 13 -5 60 44 37 35 27
24 16 -5 59 43 38 37 28
25 14 -6 57 43 38 37 28
26 14 -10 53 40 36 35 27
27 14 -11 52 39 36 34 27
27 17 -13 53 37 36 36 28
31 19 -15 50 36 36 35 30
31 19 -15 46 35 33 34 28
26 18 -14 47 33 33 34 28
23 16 -11 47 34 32 35 30
22 15 -11 45 34 31 33 30
26 18 -12 44 34 29 30 27
25 16 -12 43 37 30 31 25
19 13 -13 43 38 30 30 25
22 13 -12 42 34 29 29 22
23 13 -13 39 30 28 28 19
29 14 -14 38 26 27 25 19
34 17 -16 38 22 23 21 16
17 17 -10 42 25 25 27 21
9 17 -7 41 25 25 26 22
13 12 -6 42 23 24 23 20
19 11 -8 38 21 20 20 16
22 12 -8 36 19 20 18 14
14 10 -7 36 20 20 18 13
5 8 -5 38 22 22 18 13
-4 6 -2 39 22 23 19 15
2 6 -4 38 19 22 17 11
11 9 -6 37 17 19 13 9
8 8 -6 38 16 18 13 10
1 7 -4 37 16 16 13 9
-1 7 -1 38 18 17 13 10
2 3 -1 37 17 15 11 10
0 3 -1 36 18 15 10 10
0 3 -3 33 16 14 9 7
2 1 -4 31 14 12 7 3
-1 2 -3 34 15 14 9 5
-3 2 -3 32 15 14 8 5
-4 0 -3 31 15 13 8 4
-5 -1 -2 32 15 14 10 7
-3 0 -2 30 11 11 8 6
0 1 -3 30 12 10 6 6
6 3 -5 28 10 7 6 3
8 3 -7 24 9 5 5 1
1 -1 -6 27 12 8 5 4
-9 -2 -2 31 15 11 8 6
-10 -2 -3 29 12 10 9 5
-6 -1 -5 28 11 9 7 4
0 -3 -4 29 10 7 7 3
-1 -2 -4 29 11 6 6 4
-4 1 -3 30 11 6 7 5
-5 1 -3 32 12 5 5 4
-3 1 -1 33 12 6 5 5
-1 0 -2 31 11 5 5 3
1 1 -3 28 9 4 3 2
2 3 -3 28 10 5 3 3
-3 1 -2 29 11 7 6 6
-5 1 -3 27 10 6 6 5
0 0 -2 27 8 4 6 3
0 -2 0 28 7 4 5 3
-2 1 1 28 8 3 5 4
0 2 1 27 9 3 4 3
2 2 2 28 10 2 4 3
3 5 1 27 10 2 4 4
0 3 3 28 13 6 5 5
-9 1 8 32 17 11 8 9
-4 3 7 31 17 10 8 8
7 4 4 28 14 6 4 3
8 2 6 31 14 6 4 4
2 3 8 32 15 6 6 7
-4 4 11 34 15 8 10 9
-8 6 14 35 15 10 10 10
-8 4 13 34 13 7 7 6
-7 3 11 33 12 6 7 4
-3 3 11 31 12 7 7 4
-2 2 10 32 12 6 6 2
-3 2 10 30 12 7 8 3
-3 2 10 28 8 7 6 4
-4 3 12 30 8 7 6 5
-3 6 14 31 10 7 8 6
-8 3 16 34 11 7 9 8
-6 5 17 34 13 8 7 8
-2 5 18 34 15 8 8 8
-1 7 17 31 13 8 8 7
-2 10 18 33 15 9 9 7
-6 11 20 36 18 13 9 9
-3 13 22 34 18 14 11 8
-4 14 23 37 20 17 12 9
-6 12 27 40 21 17 13 10
-3 13 30 42 21 17 13 12
0 15 29 40 21 17 14 12
1 12 31 41 22 17 15 11
0 16 31 41 22 17 14 12
0 18 30 41 23 17 14 11
4 19 30 39 22 16 14 10
4 24 31 40 24 20 16 14
3 25 34 39 27 23 20 17
5 27 32 38 26 24 21 19
11 31 28 35 21 19 19 15
15 33 24 31 19 16 17 15
21 35 21 26 16 13 17 15
19 33 20 25 16 14 18 15
21 33 16 23 15 14 16 13
23 35 14 23 15 13 16 15
9 36 17 26 18 16 17 17
-2 37 21 27 23 21 23 22
1 32 22 28 22 22 23 22
5 28 18 25 17 16 19 18
7 27 16 24 14 14 17 16
4 25 16 23 13 13 18 17
7 24 16 19 12 12 17 17
14 24 14 17 10 9 14 13
7 20 14 19 11 10 14 11
-3 15 16 21 14 11 14 12
-3 12 15 21 11 8 10 8
-1 10 14 19 8 7 8 4
3 7 10 14 5 3 6 2
0 2 8 13 5 2 6 2
-2 0 10 15 6 4 6 1
-2 -3 12 16 6 4 7 3
0 -5 12 13 3 2 4 1
1 -5 11 12 3 -1 2 0
-6 -8 13 13 4 -1 3 -1
-9 -10 12 10 4 -1 1 -1
-5 -9 11 8 2 -4 0 -2
-6 -9 10 8 1 -5 -2 -4
-7 -11 10 8 0 -4 -1 -5
-5 -11 7 5 -2 -5 -3 -5
-5 -13 8 3 -3 -5 -3 -6
-6 -13 9 5 -3 -4 -3 -4
-9 -15 10 6 -3 -5 -4 -6
-8 -15 10 7 -2 -4 -3 -4
-6 -15 9 3 -4 -6 -5 -7
-14 -17 11 5 -2 -4 -2 -5
-12 -15 10 4 -2 -3 -3 -6
-7 -16 8 1 -4 -2 -4 -7
-6 -17 7 -2 -3 -3 -6 -10
-4 -16 5 -3 -3 -4 -7 -10
-8 -20 6 -2 -5 -3 -8 -10
-4 -19 4 -4 -8 -5 -9 -11
0 -14 5 -5 -7 -6 -10 -12
1 -15 5 -4 -7 -6 -9 -9
-10 -17 9 0 -3 -3 -6 -8
-22 -16 12 2 1 -1 -2 -6
-19 -16 11 1 -1 0 -3 -6
-10 -14 9 -2 -3 -4 -6 -8
-5 -16 7 -4 -6 -6 -8 -11
-6 -16 7 -3 -5 -5 -7 -9
-16 -14 11 1 -1 -1 -2 -6
-16 -14 11 0 -2 -2 -3 -6
-9 -13 9 -2 -4 -5 -5 -10
-6 -15 8 -3 -5 -8 -7 -9
-11 -20 9 -1 -2 -5 -3 -7
-16 -18 10 -2 1 -4 -2 -6
-14 -18 9 -3 1 -6 -4 -6
-9 -15 8 -5 0 -7 -5 -7
-4 -13 9 -5 -1 -4 -4 -7
-7 -18 9 -3 0 -2 -3 -5
-6 -19 10 -2 0 -2 -4 -6
-10 -18 11 -3 1 -2 -3 -5
-11 -17 10 -2 2 -4 -6 -8
-6 -21 12 3 4 -5 -7 -12
-6 -30 19 16 10 -1 -7 -16
1 -34 23 27 17 4 -8 -18
9 -33 29 39 26 10 -7 -21
1 -31 40 57 40 19 -1 -18
2 -22 52 77 58 32 6 -16
8 -11 61 101 78 48 16 -10
12 4 69 114 100 67 31 5
18 23 72 122 118 86 50 21
26 40 66 115 128 103 72 38
27 60 57 89 126 118 94 61
34 83 38 51 120 132 118 84
43 107 3 -4 105 143 143 111
56 133 -38 -61 87 152 169 142
61 151 -73 -109 67 153 188 166
46 164 -101 -170 31 139 195 184
35 182 -125 -220 -2 123 200 201
31 188 -148 -253 -26 113 202 208
28 184 -165 -264 -40 107 202 210
17 164 -178 -268 -58 90 191 200
2 133 -187 -292 -114 20 141 173
-1 101 -191 -308 -171 -59 77 134
-2 64 -186 -304 -194 -102 28 94
2 33 -173 -282 -193 -118 -7 58
8 9 -155 -253 -180 -123 -31 26
-7 -13 -127 -214 -155 -114 -42 6
-29 -25 -95 -172 -126 -98 -42 -6
-31 -30 -74 -143 -104 -86 -42 -15
-21 -29 -63 -122 -87 -77 -40 -18
-18 -25 -48 -98 -70 -64 -34 -14
-14 -21 -38 -78 -57 -56 -28 -15
-15 -15 -27 -58 -42 -45 -20 -12
-16 -10 -18 -45 -30 -36 -14 -8
-14 -10 -13 -37 -19 -29 -12 -5
-12 -12 -9 -31 -11 -22 -7 -3
-12 -11 -8 -27 -6 -19 -6 -4
-11 -12 -7 -24 -1 -16 -5 -6
-8 -12 -5 -18 2 -13 -2 -3
-6 -10 -2 -15 5 -11 0 -2
-2 -10 -2 -13 7 -13 -1 -3
-3 -9 -1 -10 10 -14 -1 -3
-9 -10 1 -8 14 -13 0 -1
-8 -11 3 -7 19 -11 2 1
-3 -9 1 -8 18 -12 0 -2
-2 -10 -1 -9 16 -13 -3 -4
-5 -10 -1 -11 15 -11 -2 -4
-6 -9 -3 -10 14 -12 -2 -5
1 -7 -5 -12 12 -13 -3 -7
7 -7 -7 -11 11 -13 -3 -7
7 -9 -6 -10 10 -14 -4 -6
7 -6 -4 -8 11 -13 -1 -4
-1 -3 1 -3 16 -10 4 1
-9 -6 3 -2 17 -10 4 2
-4 -4 2 -2 19 -11 4 -1
0 -2 -2 -1 22 -11 3 -2
-2 -6 -1 6 26 -7 4 1
-7 -9 3 12 32 -4 8 3
-2 -9 -2 7 28 -6 4 -2
-5 -7 -2 9 29 -5 6 -1
-9 -6 -1 11 30 -4 7 1
-6 -5 -1 12 33 -5 6 1
-5 -4 -1 12 36 -5 7 2
-6 -4 2 13 40 -4 7 3
-2 -3 1 12 40 -4 7 2
2 -2 -2 9 39 -5 4 -1
6 -4 -4 8 38 -5 3 -4
10 -2 -5 9 39 -4 2 -2
6 -1 -5 15 40 -1 4 2
-2 -1 -4 19 36 1 7 4
0 -1 -2 24 32 4 10 6
-3 -1 -1 24 32 5 11 9
-3 -1 0 26 30 6 11 7
3 -3 -1 26 28 4 10 7
0 -4 2 29 29 6 12 8
-3 1 -1 29 31 7 11 7
-3 -1 -1 28 31 8 11 7
0 -4 0 29 31 9 11 6
4 -1 -3 27 32 10 12 8
9 0 -6 27 27 7 10 6
11 -1 -7 26 25 7 8 6
3 2 -3 32 29 12 14 10
1 0 -1 32 31 13 16 10
9 1 -3 32 31 12 14 10
14 1 -6 31 28 11 12 9
16 2 -7 30 29 9 11 7
17 2 -7 30 31 12 12 6
6 0 -4 33 36 15 16 8
-5 4 0 38 41 21 22 14
0 8 -2 39 42 21 23 15
6 6 -4 40 40 20 21 15
7 6 -3 41 41 20 22 15
2 4 -3 43 41 22 24 17
6 1 -2 45 43 23 24 18
14 4 -4 44 43 23 22 17
15 5 -4 46 47 23 23 18
11 7 -4 45 51 25 24 19
8 5 -2 50 55 28 28 21
8 7 -4 47 53 27 28 21
15 8 -5 48 53 27 29 20
18 10 -6 50 52 26 26 19
17 13 -5 52 54 26 29 21
19 17 -3 53 62 29 31 22
14 17 -1 58 68 31 34 24
13 19 -1 74 71 30 35 25
16 17 -3 97 71 30 34 25
16 13 -4 103 68 32 35 26
19 13 -4 105 64 30 35 24
21 15 -9 105 61 29 34 25
27 17 -10 108 59 28 36 25
33 16 -10 109 59 27 34 24
28 16 -10 109 56 27 36 27
24 17 -9 113 57 31 39 30
23 20 -7 114 57 31 39 31
24 19 -10 113 55 29 37 31
24 18 -10 110 55 28 38 31
19 18 -10 107 59 28 38 31
22 18 -12 106 56 24 37 30
26 20 -14 104 52 24 38 30
24 18 -14 103 50 22 36 28
22 18 -13 105 52 23 38 31
27 22 -13 106 51 24 38 33
30 24 -16 104 51 27 36 31
34 26 -14 102 54 28 36 30
32 25 -15 101 53 29 35 32
23 22 -13 100 50 32 37 34
23 20 -14 98 47 32 36 34
19 19 -13 99 45 33 38 35
20 24 -15 97 43 33 37 35
25 26 -16 94 41 31 35 33
28 24 -18 93 36 27 32 31
30 23 -17 94 34 25 33 32
27 25 -16 94 34 26 33 32
22 25 -11 98 37 28 35 33
17 22 -9 98 38 29 36 35
15 22 -11 96 35 27 33 32
17 23 -12 94 33 24 31 30
20 24 -10 93 33 25 30 30
19 24 -11 92 34 24 30 31
21 25 -11 90 37 22 28 28
18 21 -10 91 35 21 27 28
9 20 -7 93 31 21 29 30
11 21 -7 93 29 19 26 28
15 21 -7 94 28 15 23 24
18 21 -8 90 29 14 21 24
17 18 -8 87 28 12 18 20
6 14 -5 87 29 13 21 21
5 15 -4 88 28 14 20 21
12 15 -7 84 28 13 17 20
12 16 -5 84 29 12 17 18
10 16 -4 87 32 14 17 18
5 15 -2 86 33 13 18 18
0 14 0 88 36 14 18 20
-3 12 3 89 35 12 17 19
-2 11 0 85 31 9 13 17
-1 10 2 82 31 7 12 15
1 6 1 80 30 8 11 13
2 6 0 80 27 6 12 12
5 7 -2 76 24 6 10 12
8 7 -4 73 18 1 8 9
15 6 -7 71 13 -3 4 6
9 3 -5 72 11 -4 6 6
0 5 -2 76 12 -3 7 9
0 7 -1 75 12 -4 7 10
-2 5 -2 74 14 -3 7 11
-5 5 -1 72 18 -3 6 8
-7 7 0 72 22 -1 9 10
-10 6 1 73 22 0 9 11
-6 9 0 69 22 1 8 10
-5 9 0 68 23 -1 7 10
-7 6 0 70 25 1 7 11
-2 8 1 68 24 0 8 10
2 8 1 66 21 -3 4 8
3 5 2 64 17 -5 4 7
-5 6 3 67 18 -3 5 9
-10 4 5 67 23 -4 7 9
1 4 1 61 22 -4 4 9
5 5 -1 58 21 -5 3 6
6 7 -4 58 15 -5 2 5
-6 8 3 66 18 0 8 10
-17 5 6 71 20 4 11 13
-14 5 6 68 18 2 11 13
-7 8 4 66 19 -1 7 11
-7 6 5 65 16 -3 7 8
-7 9 5 63 13 -2 6 9
-7 7 6 62 14 -2 8 9
-7 6 6 61 16 -1 6 10
-6 8 5 60 18 -2 7 9
-4 7 4 58 20 -2 6 8
1 8 4 57 19 -5 5 6
0 9 5 58 18 -5 7 8
-7 9 8 61 15 -3 9 11
-8 11 10 63 15 -2 10 12
-7 10 10 61 18 -4 9 10
-7 11 7 58 19 -5 7 7
-8 12 7 54 22 -5 6 5
-7 10 6 54 22 -6 3 6
-4 10 8 55 18 -5 5 5
-2 9 6 52 15 -5 5 8
-2 8 5 52 13 -7 5 6
3 10 3 49 10 -9 3 5
4 9 5 49 9 -8 4 6
4 8 6 52 9 -7 5 9
3 12 6 50 9 -9 5 7
3 10 6 47 9 -8 4 7
2 12 7 46 11 -7 4 6
-3 11 10 49 14 -4 8 10
-6 7 13 51 16 -3 11 11
0 9 13 49 13 -4 9 11
4 11 12 48 12 -6 10 11
-2 12 14 51 13 -4 12 14
-8 15 18 54 16 -1 15 15
-5 18 19 52 15 0 13 15
-1 21 21 52 15 -2 12 13
-1 20 22 54 16 -1 13 16
3 19 22 51 15 -1 11 14
6 24 20 48 15 -1 9 11
3 24 22 47 18 -1 11 12
-4 23 25 51 23 3 15 16
-2 26 25 53 26 4 16 16
1 25 25 52 25 5 15 16
3 29 26 50 24 6 17 17
10 31 24 48 19 11 16 18
13 31 22 43 16 13 14 17
6 36 23 42 18 17 17 20
8 36 19 39 14 18 15 19
22 36 13 33 11 17 11 16
32 38 8 28 14 17 10 15
13 35 11 31 22 24 14 19
6 38 13 35 26 26 19 22
18 36 10 33 24 24 16 20
8 35 14 33 26 26 19 21
-1 33 16 33 26 24 18 24
4 31 12 30 19 19 14 20
4 28 12 28 14 17 13 19
3 26 14 30 14 18 13 17
-2 24 15 33 14 17 14 19
1 23 13 30 13 16 12 16
0 19 13 28 10 15 10 16
0 16 13 25 8 13 9 14
1 16 12 26 9 10 8 11
-4 13 13 27 9 10 7 11
-6 9 14 29 7 10 7 11
-3 7 12 26 3 7 5 7
-2 4 10 22 1 4 3 5
-1 5 10 19 0 2 2 3
-2 3 9 17 -2 0 -2 0
-1 1 7 12 -3 -1 -3 -2
-3 -1 8 10 0 -1 -2 0
-8 -4 8 10 2 0 -1 0
-5 -4 7 11 3 -1 -2 -1
-5 -5 8 11 2 -1 -4 0
-7 -9 11 11 3 0 -2 2
-10 -7 10 9 2 -1 -3 0
-11 -6 9 8 2 -3 -5 -3
-11 -7 10 5 0 -4 -7 -3
-8 -7 10 6 0 -2 -7 -2
-9 -9 10 3 -1 -3 -7 -5
-10 -11 10 0 -3 -2 -8 -5
-10 -11 10 2 -4 -1 -6 -2
-11 -11 9 1 -6 -2 -7 -1
-8 -10 9 1 -7 -4 -8 -3
-6 -11 10 1 -6 -4 -9 -2
-4 -12 10 0 -7 -6 -9 -2
-8 -13 10 -2 -5 -6 -9 -2
-12 -13 11 -2 -4 -6 -9 -2
-7 -10 10 -4 -5 -6 -9 -4
-3 -13 10 -5 -6 -7 -9 -5
-6 -16 8 -5 -7 -8 -11 -6
-5 -12 6 -9 -10 -10 -12 -6
3 -12 4 -10 -11 -12 -12 -7
15 -12 1 -15 -15 -15 -14 -10
11 -12 3 -12 -14 -12 -13 -8
-12 -12 12 -3 -7 -5 -4 1
-20 -13 16 -2 -4 -2 -1 2
-12 -10 14 -5 -5 -4 -4 1
-12 -11 11 -6 -7 -5 -5 -1
-4 -11 9 -11 -10 -8 -8 -5
-1 -12 8 -12 -11 -9 -9 -6
-13 -12 12 -8 -9 -3 -3 -1
-19 -13 16 -4 -10 1 -1 3
-13 -14 15 -5 -16 -2 -4 0
-10 -14 15 -4 -19 -2 -5 -1
-11 -15 17 -3 -20 -2 -4 0
-10 -16 16 -7 -21 -3 -5 -1
-10 -15 17 -5 -19 -1 -4 0
-12 -18 19 -1 -18 0 -4 -2
-10 -23 23 6 -14 2 -6 -6
-4 -27 30 20 -7 9 -6 -9
-5 -31 37 35 1 13 -6 -12
3 -29 42 46 8 17 -5 -15
6 -24 54 63 22 27 -1 -15
4 -15 67 90 43 44 10 -8
11 3 75 110 65 63 24 3
15 17 80 123 85 82 40 18
20 34 79 125 100 102 60 34
27 53 71 111 106 120 83 53
31 75 61 79 105 134 107 75
39 99 39 41 96 148 133 101
50 122 -2 -20 74 155 157 130
61 144 -41 -70 56 163 181 156
67 162 -76 -124 28 156 192 177
51 176 -100 -185 -12 137 198 196
32 185 -119 -223 -36 129 206 213
28 189 -139 -249 -54 120 206 221
25 171 -155 -256 -68 112 202 216
20 144 -171 -275 -111 65 169 196
7 116 -178 -303 -178 -19 102 158
2 82 -178 -311 -217 -80 47 118
2 48 -167 -294 -226 -105 10 82
-5 17 -150 -265 -217 -112 -16 49
-9 -6 -126 -231 -199 -110 -34 24
-11 -20 -101 -197 -178 -103 -45 3
-23 -33 -74 -162 -154 -90 -47 -8
-27 -37 -52 -133 -130 -76 -43 -11
-16 -37 -43 -116 -115 -67 -40 -13
-9 -33 -32 -96 -103 -58 -36 -15
-8 -30 -19 -74 -85 -45 -28 -9
-11 -25 -8 -57 -70 -34 -19 -5
-14 -20 2 -41 -56 -23 -11 0
-13 -15 7 -32 -47 -15 -5 3
-13 -14 11 -24 -41 -10 -4 4
-9 -12 15 -19 -35 -6 -1 3
-7 -14 16 -16 -31 -2 -1 3
-5 -14 17 -13 -25 -1 1 4
-4 -13 16 -11 -19 1 1 4
-3 -13 17 -12 -17 0 0 1
-3 -12 16 -11 -14 -2 -1 1
-7 -9 18 -6 -9 1 1 2
-7 -12 20 -3 -8 2 1 2
-3 -14 21 -2 -6 2 2 2
-3 -12 20 -1 -6 0 0 1
-6 -11 21 -1 -4 1 0 0
-4 -13 21 -3 -3 0 -1 -1
2 -13 16 -8 -8 -4 -5 -4
5 -12 17 -6 -6 -2 -4 -4
1 -12 20 -2 -2 1 0 -3
-2 -11 20 -2 -1 3 3 -1
-2 -9 21 -1 0 3 5 0
1 -12 20 1 0 3 3 -1
-3 -11 22 4 3 5 6 1
-5 -10 23 4 6 8 7 6
0 -9 21 3 5 6 5 5
4 -8 19 3 5 6 5 3
7 -8 17 1 6 5 4 3
7 -9 17 2 6 5 3 3
4 -8 18 4 6 6 5 4
-3 -9 19 5 7 8 7 5
-4 -9 19 6 5 7 8 6
-2 -6 21 7 5 7 9 8
-6 -6 22 9 7 4 10 9
-2 -4 23 13 11 2 11 10
1 -4 21 12 11 -1 9 8
1 -6 19 10 10 -3 8 7
4 -6 18 8 10 -4 8 6
11 -6 15 6 9 -6 6 4
18 -6 15 8 7 -8 6 1
10 -4 18 12 10 -5 11 5
-5 -4 20 17 13 -1 15 8
-3 -4 20 19 11 -2 15 8
5 -4 20 18 12 -2 16 8
0 -7 20 19 13 -1 16 8
1 -5 20 20 15 0 15 8
5 -5 20 19 14 -3 13 4
11 -5 17 18 14 -5 10 2
12 -6 17 17 15 -4 10 2
2 -2 20 20 18 -2 13 4
-3 0 21 23 19 0 13 7
-3 -3 20 24 19 0 14 8
1 -7 21 25 21 0 16 10
1 -8 21 26 21 0 16 9
2 -7 20 27 23 2 17 10
9 -5 20 30 24 3 19 10
10 -5 19 31 24 4 20 11
13 -5 16 29 22 3 16 8
20 -3 13 27 22 2 16 8
29 -1 11 24 19 1 16 6
20 2 14 29 23 5 20 9
2 5 22 38 32 13 27 14
-1 2 23 42 34 15 28 15
7 0 20 41 33 13 28 15
4 1 20 42 34 13 28 16
7 -1 19 44 35 13 28 17
13 2 20 46 38 15 30 19
17 3 18 45 38 15 30 19
19 4 16 47 38 17 32 20
15 7 18 50 41 22 35 23
14 7 15 49 41 22 35 24
20 10 12 48 39 21 33 22
21 11 13 50 41 24 35 24
20 11 13 51 43 25 37 24
29 14 9 48 39 22 33 22
28 14 9 50 40 23 33 20
30 10 11 53 42 25 35 22
22 10 13 56 46 29 39 28
11 11 15 60 47 33 44 31
19 13 11 55 42 30 42 28
24 16 10 55 41 30 43 30
27 16 8 55 41 28 43 30
28 17 8 57 40 29 44 30
30 21 7 57 40 27 44 32
29 20 8 55 42 28 46 34
26 18 6 53 42 27 45 34
24 14 7 55 43 28 46 34
30 11 5 53 41 28 46 35
34 9 2 50 37 26 45 33
31 11 0 50 34 24 44 32
27 14 1 51 34 25 45 34
28 19 1 49 32 23 44 33
27 21 2 48 29 21 42 32
30 19 2 45 26 19 41 32
32 19 -1 44 26 18 40 33
31 24 0 43 27 18 41 35
34 27 -2 41 25 16 42 34
31 22 -3 39 23 14 39 32
29 21 -5 37 21 14 40 32
28 20 -6 34 18 11 39 31
24 23 -7 34 17 12 40 34
28 27 -7 35 16 12 39 34
33 25 -6 35 15 9 38 32
29 27 -3 36 18 10 38 32
21 24 -1 37 18 10 38 32
19 22 3 37 18 8 37 32
17 20 6 36 19 8 38 33
16 18 5 34 16 6 35 30
19 19 4 33 14 5 35 28
22 22 3 31 12 2 32 27
24 20 2 28 9 -1 28 24
23 20 4 28 8 -1 26 22
12 20 7 32 11 22 27 24
10 19 9 33 10 38 26 22
13 20 8 33 10 40 24 19
13 21 7 30 9 39 23 19
9 20 8 31 11 42 26 22
7 21 9 29 11 43 24 20
7 17 8 26 8 42 22 18
7 16 11 29 9 42 22 19
6 11 11 28 9 41 22 18
9 12 8 25 6 36 18 15
16 13 6 22 3 33 15 12
18 12 4 19 -1 28 11 8
10 8 6 22 2 28 10 9
0 9 11 26 7 33 13 13
0 8 12 25 9 34 14 14
4 10 11 25 8 34 13 12
9 9 7 20 3 30 9 9
3 9 10 21 4 32 11 10
3 8 11 22 5 33 13 12
5 8 10 20 3 31 11 11
5 8 10 21 3 31 11 12
3 9 9 21 5 31 10 11
5 10 6 19 5 29 9 9
3 9 6 20 7 27 8 8
-7 6 11 24 11 31 12 13
-3 7 9 21 9 28 9 10
0 6 7 17 7 27 9 10
-2 8 8 17 6 26 9 10
0 11 9 18 8 26 9 11
2 10 10 20 8 25 10 11
3 7 10 21 9 24 9 9
6 9 8 20 8 22 7 8
10 6 5 18 6 19 5 7
15 5 3 16 5 17 3 6
12 5 6 18 6 19 4 8
-1 7 8 20 9 23 9 11
-2 6 8 22 9 24 11 11
2 8 7 20 8 22 9 9
7 7 7 20 8 22 9 8
10 8 7 20 7 21 7 8
17 8 4 18 3 16 3 4
24 10 2 16 0 13 0 3
13 9 6 20 6 16 4 7
-7 7 15 26 13 22 12 15
-9 7 15 26 13 23 13 15
-4 7 13 25 14 23 13 13
-3 5 10 24 14 22 9 11
0 5 10 22 12 22 9 12
-2 3 12 24 13 23 11 14
-6 5 14 26 14 24 14 16
-5 8 12 25 13 22 11 14
-2 6 12 24 12 20 9 12
0 8 11 24 12 18 9 12
3 8 10 23 13 18 9 12
2 0 12 24 15 20 10 12
3 0 9 22 13 18 8 11
3 -1 9 21 12 18 9 12
3 3 9 20 11 19 10 12
6 8 8 21 9 17 10 12
3 9 12 23 13 19 13 15
-3 10 14 27 16 21 15 17
-2 9 14 26 15 19 14 18
1 12 14 28 17 18 14 16
4 15 14 28 18 19 14 17
4 15 15 28 18 19 12 16
3 15 18 28 20 22 13 15
4 17 20 29 21 21 14 16
8 18 20 28 20 20 14 15
10 21 20 28 19 18 14 16
10 25 23 32 20 17 14 16
7 30 22 33 20 18 16 16
6 30 26 36 24 22 20 20
7 30 24 35 23 21 19 19
11 35 23 32 23 20 20 20
14 39 22 32 23 21 21 23
14 38 20 31 24 21 21 23
16 41 18 29 23 21 21 22
21 41 14 22 18 17 17 19
32 40 8 17 14 12 14 17
39 40 6 15 13 10 13 18
18 38 11 20 19 16 20 23
1 36 13 25 27 21 24 28
15 38 12 24 26 17 23 26
25 41 13 21 24 14 19 23
26 42 10 17 22 12 17 22
26 37 9 14 19 10 16 21
26 33 5 11 15 6 12 16
22 35 7 13 16 8 14 19
8 32 11 17 19 12 18 23
0 33 14 18 21 11 19 25
5 32 12 17 17 7 15 21
4 24 11 17 17 6 14 19
2 21 10 17 18 6 13 19
3 19 7 14 15 3 9 14
7 15 3 11 11 2 6 11
8 11 3 9 11 2 4 8
2 6 3 11 10 3 4 5
2 6 3 9 7 1 3 5
3 8 0 7 3 -1 -1 2
3 6 -1 3 1 -2 -1 1
3 4 -2 3 -1 -4 -3 -2
4 -1 -2 2 -3 -7 -4 -3
5 -5 0 1 -2 -7 -4 -1
1 -4 4 3 0 -5 -4 -2
-4 -5 6 5 2 -4 -2 1
1 -7 4 3 1 -6 -3 0
6 -6 2 1 -1 -6 -4 0
11 -5 0 -1 -4 -10 -7 -3
17 -3 -2 -6 -7 -11 -9 -4
0 -5 4 0 -2 -6 -4 2
-10 -4 9 4 1 -3 0 5
-4 0 3 0 -2 -9 -5 0
1 -1 -2 -3 -4 -12 -8 -2
2 -2 -2 -3 -3 -13 -8 -3
3 -2 -6 -6 -5 -15 -10 -5
-2 -1 -5 -3 -4 -14 -9 -4
0 -3 -5 -3 -5 -14 -9 -4
4 -4 -6 -7 -4 -13 -9 -5
6 -2 -7 -8 -6 -13 -9 -6
9 -3 -7 -7 -6 -13 -8 -4
0 -3 -2 -5 -4 -12 -7 -3
-4 -4 0 -4 -2 -12 -6 -2
-4 -4 -1 -2 -3 -13 -8 -3
-3 -6 -3 -4 -4 -15 -9 -4
1 -3 -6 -9 -7 -18 -13 -7
5 -4 -9 -11 -9 -18 -13 -6
8 -5 -9 -11 -10 -17 -13 -6
2 -1 -7 -8 -7 -15 -11 -4
-1 -1 -7 -8 -7 -14 -10 -3
2 -5 -8 -5 -6 -13 -8 -1
3 -8 -9 -8 -7 -13 -9 -3
9 -7 -10 -11 -8 -15 -11 -5
14 -5 -12 -12 -9 -16 -12 -5
3 -6 -10 -9 -6 -14 -9 -3
-7 -3 -9 -8 -5 -11 -10 -4
-3 -6 -9 -10 -6 -12 -12 -7
4 -10 -13 -11 -10 -17 -16 -11
12 -9 -13 -10 -10 -17 -17 -12
12 -9 -11 -8 -8 -14 -18 -12
2 -15 -4 2 -2 -10 -16 -13
-6 -18 9 20 9 -4 -12 -11
-2 -22 16 36 19 3 -11 -15
6 -24 23 49 28 10 -10 -17
14 -22 29 62 39 15 -8 -16
13 -16 41 84 58 29 1 -12
16 -2 51 104 81 48 13 -3
26 15 52 115 100 64 26 6
26 33 55 123 117 84 45 21
26 50 50 124 132 109 72 42
29 69 40 101 133 127 98 66
32 91 24 65 126 142 123 89
43 120 -14 8 103 150 149 117
56 146 -61 -54 77 155 173 146
64 165 -101 -104 53 158 190 168
49 178 -131 -168 10 141 194 187
29 191 -156 -226 -28 123 195 199
28 197 -180 -263 -54 112 198 210
30 192 -197 -281 -76 100 194 210
28 166 -212 -298 -113 60 168 193
20 134 -222 -321 -180 -25 108 164
4 96 -218 -326 -225 -96 51 130
-5 64 -206 -308 -235 -127 11 95
1 32 -189 -277 -224 -135 -18 59
0 4 -164 -241 -202 -131 -40 29
-7 -13 -135 -201 -173 -119 -51 7
-14 -26 -107 -167 -146 -105 -57 -9
-15 -32 -85 -138 -123 -89 -56 -17
-15 -30 -67 -114 -102 -74 -48 -17
-16 -28 -54 -92 -84 -61 -41 -15
-10 -25 -39 -70 -68 -49 -33 -13
-4 -17 -31 -55 -55 -40 -29 -13
2 -11 -25 -41 -45 -33 -23 -11
8 -6 -21 -34 -36 -26 -19 -10
4 -4 -16 -28 -25 -18 -16 -6
1 -3 -13 -21 -18 -11 -11 -3
4 1 -14 -17 -14 -7 -10 -7
-1 -1 -11 -12 -8 -2 -8 -6
4 -1 -10 -9 -8 -2 -8 -6
6 1 -11 -9 -10 -1 -8 -6
1 0 -8 -5 -10 0 -5 -3
-2 -4 -7 -2 -6 3 -4 -2
6 -3 -11 -5 -9 -2 -7 -5
12 -1 -10 -5 -10 -3 -9 -6
8 -1 -9 -2 -7 0 -8 -6
-3 -4 -8 -1 -4 4 -6 -2
0 -2 -10 -2 -3 6 -6 -4
-1 0 -11 -2 -3 7 -6 -6
3 0 -12 -1 -4 10 -4 -4
9 4 -13 -3 -7 10 -4 -5
3 5 -12 0 -8 9 -3 -4
0 5 -10 3 -7 10 -2 -2
4 8 -10 2 -8 8 -3 -3
1 7 -7 3 -6 9 -2 -4
4 5 -8 2 -7 8 -4 -6
7 2 -10 0 -6 9 -5 -7
7 2 -9 -1 -6 11 -4 -7
9 4 -8 2 -3 14 -2 -6
10 4 -9 3 -4 15 -2 -7
8 6 -9 8 -2 17 1 -5
9 6 -10 12 -4 16 0 -4
2 5 -7 18 -1 18 3 0
9 8 -10 17 -3 16 2 -1
10 8 -9 17 -2 16 2 -1
4 7 -9 19 -1 17 2 -2
0 7 -10 20 2 20 5 1
-1 5 -10 20 1 22 5 0
1 4 -12 19 0 23 4 -1
5 5 -12 18 -1 22 5 -1
7 6 -11 19 -1 22 4 -1
6 7 -8 22 -2 22 5 0
6 4 -4 25 0 23 7 2
5 3 -3 25 0 23 7 2
5 3 -4 28 2 25 7 2
9 3 -7 25 -1 22 3 -1
15 0 -9 24 1 22 3 -2
13 -5 -9 26 2 25 6 -1
3 -8 -6 29 8 32 10 2
3 -6 -5 29 8 32 11 2
7 -6 -4 32 9 33 13 3
7 -8 -3 35 7 33 14 3
9 -8 -2 39 10 35 17 7
17 -8 -4 37 9 31 14 3
30 -3 -7 36 10 30 12 1
20 -3 -5 38 14 34 14 2
3 -3 0 44 22 40 20 6
5 1 -1 43 22 42 20 7
10 2 -3 41 21 40 16 5
11 1 -2 43 20 39 17 4
9 0 -2 46 21 40 20 7
8 -3 0 47 21 39 20 7
11 -2 1 48 23 42 22 10
11 -1 3 50 25 42 23 10
11 -2 4 51 27 40 22 9
17 2 5 54 29 38 23 10
19 3 4 54 31 38 25 10
20 5 3 54 31 37 25 8
21 6 1 53 31 38 24 8
26 6 -1 54 29 36 24 7
32 6 -3 56 29 35 25 8
34 5 -5 56 28 35 25 8
33 7 -5 59 31 36 27 9
19 9 1 67 39 42 36 17
12 9 4 71 43 46 38 19
16 11 1 70 41 43 34 17
21 14 -2 68 42 43 36 18
25 14 -2 69 42 45 38 18
31 17 -3 70 42 47 38 19
38 14 -4 68 39 46 39 19
42 14 -8 66 36 45 37 17
45 16 -10 67 33 45 39 19
43 17 -11 68 32 44 39 20
34 19 -8 72 35 46 43 24
23 18 -5 76 38 49 46 28
22 16 -5 74 37 48 45 26
29 18 -7 70 34 47 43 24
36 23 -11 65 31 45 41 21
46 25 -13 63 27 44 38 21
41 24 -11 64 28 46 42 22
33 25 -10 64 27 45 43 24
36 28 -10 61 24 42 42 23
32 29 -8 62 22 42 45 27
31 24 -9 61 19 40 45 26
33 22 -11 59 19 39 44 26
32 21 -12 56 18 37 41 23
38 21 -14 55 15 34 40 21
42 20 -15 51 13 33 40 20
42 16 -17 50 12 34 39 20
37 19 -16 51 12 37 42 23
33 20 -15 49 12 36 42 24
33 20 -16 49 7 33 41 23
36 24 -16 47 5 29 38 22
32 28 -16 45 2 27 37 22
22 28 -13 48 5 29 39 23
23 23 -11 47 6 30 38 23
26 19 -13 45 3 28 37 19
20 22 -12 45 4 29 37 21
19 23 -12 43 1 28 33 18
19 23 -13 40 -2 26 33 15
15 24 -12 42 -2 27 32 18
14 23 -12 40 -4 25 31 17
17 23 -12 40 -5 23 29 15
20 25 -11 39 -6 21 28 12
20 23 -13 36 -9 16 24 10
22 21 -13 35 -9 16 24 11
18 17 -10 37 -7 17 25 11
9 17 -8 39 -4 19 27 14
6 17 -8 39 -5 22 26 14
8 18 -8 36 -10 18 24 11
10 21 -8 36 -13 15 22 11
9 20 -8 37 -16 14 21 12
8 16 -7 36 -17 12 20 10
10 17 -6 37 -17 12 19 11
11 15 -8 35 -17 10 17 7
13 12 -9 32 -19 8 13 3
16 12 -10 30 -21 7 12 0
8 12 -10 30 -20 8 14 1
3 10 -9 31 -19 11 15 2
6 9 -10 29 -21 10 16 2
8 8 -11 28 -23 7 14 1
10 7 -8 30 -24 7 14 2
5 7 -5 30 -24 6 14 2
4 8 -2 30 -24 7 14 5
4 9 -3 30 -24 6 13 4
5 7 -3 29 -25 6 13 3
14 9 -7 25 -28 2 10 0
23 11 -12 21 -31 -2 6 -4
16 10 -10 23 -29 3 8 -2
-1 8 -6 28 -25 8 13 0
-7 7 -3 30 -24 8 14 3
2 6 -5 26 -29 4 12 1
-4 7 -2 30 -26 6 14 4
-4 10 -2 31 -27 4 14 4
2 11 -3 30 -27 2 11 1
1 10 -2 31 -25 5 12 1
-3 11 -3 30 -25 5 11 -1
-1 13 -2 29 -25 6 12 0
2 11 -4 26 -26 4 11 -3
5 12 -4 26 -27 5 11 -4
8 14 -3 27 -27 4 12 -3
0 14 0 28 -27 4 13 -1
3 13 0 29 -27 4 14 -2
11 13 0 28 -28 2 14 -2
6 13 -1 27 -26 1 12 -3
-3 12 2 31 -22 5 15 -1
-7 9 4 33 -20 7 15 2
-4 9 4 32 -21 7 15 0
1 9 2 28 -22 6 12 -3
5 10 0 26 -22 5 12 -3
11 13 -1 26 -24 4 9 -4
5 14 0 29 -23 5 11 -2
-7 15 5 32 -20 8 15 0
-5 16 4 32 -20 7 14 0
-2 11 4 32 -15 7 14 1
-2 8 4 31 -3 7 14 0
2 11 1 29 1 5 11 -3
1 10 1 29 4 7 14 -1
1 11 2 30 7 8 14 1
2 11 0 27 7 6 12 -2
11 12 -1 25 4 4 8 -4
16 15 -2 25 5 4 9 -5
12 15 1 27 8 6 11 -4
-3 15 8 32 13 11 16 0
-8 16 11 35 16 14 19 3
-4 16 10 32 16 13 18 0
-1 21 10 30 16 12 16 -2
0 23 9 30 17 12 16 -1
0 24 7 28 15 13 15 -2
3 24 10 30 16 15 16 0
4 26 13 32 17 16 18 4
6 26 15 33 18 17 19 6
6 30 16 35 19 17 19 6
1 31 17 35 20 18 18 5
2 31 18 37 20 21 20 7
4 33 16 36 21 20 19 5
9 34 16 36 21 20 19 5
20 39 14 34 20 21 19 4
32 43 11 27 14 17 16 1
33 46 9 27 13 17 17 0
9 47 18 34 21 26 26 12
-2 48 18 34 23 29 29 20
6 48 16 34 22 29 29 23
10 47 12 32 21 28 28 24
12 48 8 27 20 26 27 23
16 49 4 24 17 22 24 20
19 48 4 23 15 20 22 20
20 45 5 22 15 22 23 21
12 43 4 22 14 21 24 21
6 40 3 20 11 18 22 19
6 36 3 20 12 19 21 19
8 35 1 17 9 16 20 17
10 34 3 19 8 16 18 17
8 31 4 20 10 18 19 18
6 29 4 19 9 16 18 16
6 27 4 18 9 16 16 15
6 23 4 18 9 15 14 12
1 19 4 17 8 14 14 11
5 16 2 16 6 12 12 9
7 13 -1 12 1 8 8 4
7 9 -1 12 -1 6 5 4
3 8 0 11 0 6 6 5
-1 9 1 10 -3 4 4 2
-4 10 1 10 -3 2 3 1
-6 10 3 9 -4 2 1 2
-2 6 1 7 -6 0 -2 0
-1 4 0 7 -5 1 -1 0
-3 3 1 5 -5 1 -2 0
0 4 -1 4 -6 0 -2 0
-1 3 -2 4 -7 -1 -2 -1
-7 2 0 6 -6 0 -1 -1
-3 1 0 6 -7 -1 0 -2
-3 1 0 4 -8 -1 -1 -2
-5 1 -1 3 -10 -3 -3 -4
-2 3 1 4 -9 -4 -2 -4
-2 2 0 3 -9 -4 -3 -4
-4 2 0 1 -8 -3 -3 -6
2 5 -2 -2 -11 -6 -7 -8
14 4 -7 -8 -15 -10 -11 -10
13 4 -4 -7 -14 -10 -10 -10
2 3 3 -2 -10 -6 -6 -7
-12 -1 11 5 -6 -1 -1 -2
-15 -2 13 5 -5 -1 0 -1
-7 -3 10 3 -9 -5 -3 -3
-1 -4 7 0 -11 -8 -5 -6
-1 -5 7 1 -9 -6 -4 -6
-7 -8 9 2 -6 -3 -3 -4
-10 -5 10 3 -5 -2 -2 -5
-9 -2 9 0 -9 -5 -4 -10
-1 -2 5 -3 -10 -9 -7 -15
5 2 7 -2 -9 -8 -7 -16
-3 0 8 2 -7 -7 -4 -15
-4 -3 9 2 -7 -8 -4 -14
2 -3 5 -1 -10 -11 -7 -17
1 -3 2 -3 -11 -11 -9 -19
-4 0 3 -3 -8 -9 -6 -18
-10 -1 7 1 -4 -7 -5 -16
-14 -6 6 1 -5 -8 -5 -16
-11 -4 5 0 -6 -7 -5 -17
-9 -5 4 1 -5 -6 -5 -18
-5 -5 3 0 -5 -6 -6 -19
0 -5 2 -1 -7 -8 -7 -19
2 -6 3 0 -8 -9 -9 -24
-2 -9 9 12 0 -5 -9 -24
-2 -16 16 26 8 0 -8 -27
4 -22 20 40 17 5 -7 -29
3 -21 28 54 27 13 -3 -29
-1 -21 37 70 41 23 2 -27
6 -12 48 92 59 36 8 -24
14 7 56 115 84 55 20 -18
21 22 59 125 102 72 34 -6
33 39 59 127 116 89 52 9
37 59 51 117 125 108 74 30
29 81 42 89 123 125 102 57
39 106 18 47 114 138 125 79
50 130 -20 -12 95 150 151 107
59 152 -62 -69 74 157 177 136
63 166 -97 -120 50 156 192 159
48 176 -125 -183 10 137 196 176
36 192 -149 -232 -22 124 202 192
26 196 -167 -259 -42 116 206 203
26 187 -184 -271 -58 107 204 201
28 164 -200 -283 -89 74 179 185
14 135 -208 -306 -152 -5 122 154
4 102 -205 -313 -200 -77 62 117
2 68 -194 -299 -212 -111 19 79
0 33 -177 -270 -204 -122 -12 44
-2 6 -149 -234 -182 -119 -31 16
-5 -9 -123 -198 -159 -113 -44 -8
-9 -20 -98 -162 -135 -102 -51 -26
-11 -27 -74 -131 -110 -87 -48 -31
-10 -26 -60 -106 -91 -74 -42 -29
-17 -20 -43 -81 -72 -58 -31 -23
-13 -12 -32 -62 -56 -48 -25 -21
-9 -6 -24 -47 -47 -38 -22 -21
-8 -1 -17 -34 -40 -31 -17 -18
-6 3 -13 -28 -34 -26 -13 -17
-3 2 -9 -21 -27 -19 -9 -14
-3 0 -6 -14 -15 -13 -5 -13
-5 -1 -5 -7 -6 -8 -2 -13
-6 0 -1 -2 -2 -5 1 -12
-2 -1 -1 -1 0 -5 3 -12
4 -1 -1 1 -4 -6 2 -14
2 2 3 2 -7 -6 1 -13
-5 2 7 5 -7 -5 2 -13
-2 4 8 6 -6 -6 -1 -13
6 9 8 6 -4 -6 -2 -15
10 8 5 3 -2 -7 -5 -18
15 5 4 1 -4 -6 -6 -19
10 4 7 3 -5 -3 -2 -16
-4 2 11 9 0 3 4 -12
3 3 11 9 0 1 2 -12
15 3 9 6 -4 -3 -1 -16
12 5 11 8 -1 -3 0 -16
-3 7 19 15 8 3 6 -10
-9 7 22 18 10 5 7 -9
-7 8 21 16 6 5 5 -11
-3 6 18 14 0 3 2 -14
2 4 17 14 0 4 3 -13
-2 3 20 15 2 7 4 -10
-4 4 19 16 0 8 4 -10
-5 5 19 17 1 7 4 -10
-4 7 19 18 1 7 5 -10
1 5 18 18 1 6 5 -11
4 5 19 21 2 7 6 -9
6 7 19 21 3 6 4 -9
6 5 18 19 1 4 2 -12
8 5 18 22 2 7 4 -9
1 7 17 23 4 9 5 -7
-3 7 19 25 7 12 8 -5
-5 8 19 25 8 14 8 -5
-3 6 18 27 7 14 9 -4
4 8 16 28 4 12 8 -6
4 11 14 28 2 10 8 -5
2 11 17 30 4 12 9 -5
2 9 20 32 6 13 10 -4
3 8 20 30 6 13 9 -6
6 6 20 31 8 14 7 -7
0 5 24 31 12 17 9 -5
-1 5 24 33 13 19 11 -4
4 6 24 33 13 20 12 -4
4 7 23 33 12 19 12 -4
5 8 24 36 12 20 13 -3
9 13 24 37 12 20 14 -3
12 12 23 38 10 19 13 -4
8 12 25 40 13 20 15 0
12 11 23 39 15 20 15 -1
13 9 22 39 15 21 13 -4
8 11 24 42 19 25 16 -2
5 12 23 44 21 28 19 1
7 11 22 46 21 31 21 2
7 13 21 49 23 32 23 3
8 14 21 51 24 31 23 3
14 15 21 53 24 32 25 4
20 12 21 53 26 31 24 4
21 13 20 53 28 29 22 2
12 15 24 57 33 34 27 5
5 13 27 59 36 38 27 6
12 14 26 59 36 38 27 7
19 16 23 57 37 38 25 6
19 16 23 58 37 39 27 6
16 19 24 62 38 41 28 7
22 22 23 63 38 40 28 8
35 23 20 62 35 36 25 5
36 24 23 65 37 39 29 7
16 21 29 72 45 45 36 14
14 20 31 73 48 48 38 15
25 21 26 69 46 46 34 14
27 20 24 66 45 46 34 12
29 23 22 66 46 47 35 13
26 25 23 68 49 52 40 17
21 25 21 69 47 51 40 17
25 26 20 70 46 50 39 16
35 30 17 68 42 46 38 16
36 31 17 67 40 47 38 17
30 31 18 72 43 49 40 20
36 30 15 67 41 46 40 19
40 32 13 64 40 45 37 18
21 35 19 69 46 52 45 24
20 36 16 66 44 49 43 23
25 32 15 65 44 49 45 25
24 28 15 64 44 49 46 27
28 29 14 62 40 47 44 25
29 32 14 63 36 45 44 24
29 30 14 62 32 44 46 28
31 32 14 60 23 42 47 29
29 31 14 59 12 41 46 29
29 31 12 55 5 39 43 27
40 32 10 51 1 37 40 23
37 35 8 49 3 37 40 23
24 34 12 52 6 42 43 26
25 34 12 51 5 41 42 29
26 33 12 48 2 38 42 28
27 35 13 49 2 37 42 27
27 36 13 47 2 36 40 25
26 35 12 45 1 32 37 25
25 34 13 45 2 33 37 26
24 32 14 44 3 34 37 26
25 32 17 45 7 37 39 28
25 34 16 43 6 35 36 25
23 33 15 41 5 33 35 23
23 35 14 40 3 31 33 23
23 32 16 40 3 29 32 23
18 32 19 41 3 29 34 24
15 32 20 40 2 28 32 24
13 28 22 40 3 26 31 22
12 23 24 41 4 26 29 21
12 25 24 38 4 25 27 19
12 23 24 37 5 25 24 17
12 22 24 38 5 25 24 16
10 20 27 38 5 26 25 16
9 21 27 36 3 25 23 16
12 23 28 37 -4 24 24 15
10 23 29 35 -8 22 23 14
8 19 30 35 -6 21 21 11
8 17 29 34 -8 19 18 9
7 17 30 33 -12 19 17 8
8 15 29 32 -13 19 17 9
7 15 29 29 -12 18 16 8
6 19 27 27 -12 17 15 5
8 21 27 26 -10 16 14 3
10 21 25 25 -9 14 12 3
16 21 25 25 -13 13 13 2
27 19 23 23 -19 9 9 0
43 18 15 16 -27 1 1 -6
37 19 16 17 -25 1 1 -3
-4 17 27 29 -12 14 14 8
-17 15 29 33 -3 18 18 13
-9 15 25 30 -2 15 14 8
-3 15 21 25 -8 12 11 6
-5 13 22 25 -12 13 13 7
-5 14 22 26 -12 12 13 8
-4 15 21 25 -13 11 12 6
-3 16 22 28 -11 12 15 9
-5 16 23 29 -10 13 13 8
-7 17 22 29 -8 11 12 9
-3 17 21 28 -10 11 12 8
-1 13 18 26 -11 10 10 7
4 15 17 25 -12 10 9 6
7 18 16 22 -12 10 8 2
3 16 16 23 -13 11 8 3
0 19 19 26 -11 13 9 5
-2 19 20 27 -10 14 11 6
1 19 20 27 -11 12 10 6
4 20 19 28 -11 11 7 5
0 19 20 30 -8 12 8 5
-3 19 22 30 -6 14 12 7
1 21 19 28 -6 12 10 8
4 17 15 25 -8 11 7 4
4 18 15 25 -6 12 9 5
3 19 15 25 -6 12 9 5
2 21 13 23 -8 9 8 3
10 21 13 23 -9 8 7 4
9 19 14 24 -8 9 8 3
7 20 16 27 -7 10 9 5
10 22 15 25 -8 8 5 2
-2 20 18 29 -3 12 9 5
-4 22 21 30 0 14 10 7
-4 23 20 27 0 13 9 5
-4 20 19 24 0 12 9 5
1 18 19 24 -1 11 8 5
0 17 20 23 -3 9 6 3
0 21 20 24 -1 10 7 5
-1 22 20 25 -2 10 7 3
1 20 19 25 -4 7 5 3
3 19 19 25 -3 6 4 4
0 20 18 23 -2 7 4 3
1 25 19 24 0 9 6 4
5 25 19 24 2 11 5 5
-2 20 21 25 5 14 6 7
-6 19 22 28 6 16 10 9
-5 21 22 28 6 16 10 11
6 25 21 25 3 14 10 9
5 27 21 25 3 15 11 9
-4 26 28 32 8 20 16 16
-3 29 28 31 10 18 15 15
4 32 27 31 10 18 14 12
4 32 28 33 11 20 14 12
3 33 28 32 12 21 13 12
5 33 27 32 13 21 14 12
12 37 26 34 12 21 15 12
16 40 26 39 10 20 14 12
15 41 24 41 10 21 15 13
14 44 25 41 10 22 17 16
10 44 26 44 13 24 19 19
11 44 25 43 14 22 19 20
12 49 23 42 14 23 21 21
11 48 20 38 14 24 19 22
11 48 17 38 15 25 20 21
10 48 16 38 19 27 22 22
15 46 13 35 18 26 19 21
24 49 10 32 16 23 17 18
15 51 12 33 20 24 19 21
7 49 12 33 22 23 18 19
8 47 12 33 20 22 19 21
12 46 10 31 19 19 16 21
14 43 8 27 18 17 13 18
16 42 9 28 17 18 13 17
11 39 9 28 14 18 12 15
12 35 8 28 12 17 11 14
13 33 8 29 10 17 9 11
9 30 9 26 7 15 7 10
5 27 10 28 7 13 9 11
4 24 10 27 9 12 5 9
3 20 9 26 6 11 3 8
7 19 7 24 4 8 1 4
6 14 5 20 2 5 -2 1
-1 12 7 22 4 6 0 2
0 12 5 19 2 4 -3 -1
0 7 4 17 2 4 -3 -1
-2 6 5 16 1 6 -1 0
-4 8 4 15 0 5 -2 -1
-3 9 3 13 -1 3 -4 -3
5 7 2 10 -3 1 -6 -2
7 8 0 7 -6 -2 -10 -5
6 9 1 5 -5 -3 -10 -5
5 7 1 3 -1 -1 -7 -2
3 4 2 2 3 -1 -8 -3
1 5 1 0 0 -2 -10 -4
-12 7 7 2 4 3 -5 0
-14 6 7 3 2 4 -3 1
-11 6 4 1 -3 1 -7 -3
-8 5 3 1 -5 0 -8 -4
-2 7 7 5 -2 2 -5 -1
0 7 6 3 -4 0 -7 -1
0 8 4 0 -5 -3 -9 -3
-2 9 5 -2 -3 -2 -9 -1
-5 6 6 -2 -1 -1 -8 -1
0 5 3 -5 2 -2 -10 -3
5 6 1 -8 5 -4 -11 -6
0 4 1 -7 7 -2 -11 -4
0 7 1 -8 6 -2 -10 -5
4 9 -1 -9 0 -4 -12 -6
-8 6 4 -5 0 -1 -9 -3
-14 6 9 -2 4 2 -6 1
-7 7 6 -5 0 -1 -8 -2
3 9 1 -9 -3 -4 -12 -6
10 10 0 -14 -4 -5 -14 -8
5 6 0 -15 -2 -3 -12 -7
-8 3 4 -11 2 2 -7 -4
-14 2 6 -8 8 6 -3 0
-8 3 4 -9 10 2 -6 -2
-2 6 1 -12 7 -1 -10 -6
-5 3 3 -8 5 0 -10 -5
-6 4 4 -5 10 1 -9 -3
-3 4 4 -3 13 0 -10 -5
-3 2 3 -2 17 0 -11 -5
-4 2 5 0 17 1 -10 -5
-2 -1 8 5 21 3 -11 -7
4 -6 12 17 27 5 -13 -14
9 -5 17 30 34 12 -13 -15
12 -9 22 43 40 16 -11 -17
15 -8 29 58 52 23 -9 -18
14 -3 43 83 72 37 0 -13
19 11 52 105 93 52 9 -7
20 28 60 122 118 74 29 8
21 45 62 126 135 90 45 23
29 62 56 118 145 109 67 41
36 84 47 90 144 124 89 61
39 105 30 54 136 139 114 87
48 131 -2 3 119 150 142 116
58 158 -40 -52 101 159 170 146
64 177 -75 -100 80 159 188 170
57 192 -103 -163 41 143 193 189
36 204 -124 -216 6 130 198 206
28 209 -143 -246 -15 124 201 215
31 206 -162 -260 -30 116 200 215
31 180 -180 -271 -55 94 183 199
18 147 -189 -294 -111 26 134 172
9 114 -190 -310 -167 -49 70 132
6 81 -187 -309 -192 -93 20 93
8 52 -173 -283 -192 -109 -11 58
4 23 -153 -250 -177 -110 -31 29
-9 2 -122 -210 -151 -100 -41 11
-13 -8 -96 -175 -128 -90 -48 -4
-17 -15 -72 -144 -105 -76 -46 -11
-12 -16 -58 -119 -84 -62 -40 -13
-8 -14 -47 -99 -71 -52 -35 -12
-4 -14 -38 -79 -59 -43 -30 -11
-2 -8 -28 -59 -45 -30 -24 -9
-5 -1 -19 -46 -30 -20 -17 -6
-1 5 -13 -39 -17 -15 -13 -1
2 6 -8 -31 -6 -10 -10 -2
-6 4 -1 -20 6 -2 -2 3
-1 5 2 -14 13 2 0 4
6 9 2 -11 17 5 -1 2
5 9 0 -11 18 4 -2 1
-1 9 3 -7 22 6 0 2
-1 5 4 -5 22 6 1 1
4 5 3 -6 18 4 -2 0
10 7 1 -6 19 2 -2 -2
9 4 4 -5 21 4 -1 -1
8 2 6 -2 24 6 0 0
3 3 6 -1 28 9 1 0
-1 3 7 -1 30 11 3 1
-7 3 13 3 34 17 6 4
-5 3 13 3 33 17 5 2
-2 2 12 2 33 17 4 2
2 5 10 2 31 17 4 1
0 4 11 2 30 17 2 1
-2 4 11 4 32 16 4 2
2 6 9 3 31 16 4 0
2 4 7 3 31 15 3 -1
5 6 7 1 32 13 2 -1
8 8 6 2 34 14 3 -2
4 11 9 5 37 18 4 -1
2 11 9 8 38 19 6 2
3 12 7 6 36 17 4 1
8 11 5 6 35 18 5 -1
10 9 4 4 33 16 2 -5
9 5 5 7 35 16 4 -2
1 3 10 12 41 21 10 4
-5 4 10 13 41 22 10 4
0 5 9 11 41 21 9 1
5 9 6 14 41 20 7 -1
7 10 5 11 40 21 5 -2
7 9 6 16 44 25 9 2
1 10 5 18 44 25 10 2
3 11 5 18 42 25 9 1
7 14 6 20 40 25 10 1
11 9 5 20 40 24 9 2
14 6 5 20 39 22 8 1
9 8 7 25 41 24 11 4
-1 8 10 29 46 28 15 7
3 13 9 26 46 28 15 7
5 11 9 25 45 29 14 6
7 11 8 27 44 28 14 4
10 10 6 27 45 29 14 5
14 9 3 25 42 27 13 3
25 12 0 26 39 26 11 0
30 12 -2 25 39 25 10 1
7 14 6 32 47 34 19 8
-5 12 11 39 54 40 24 12
2 9 8 37 51 38 21 9
2 10 9 39 55 40 23 11
6 13 10 40 56 41 24 10
11 13 7 39 56 41 23 8
11 14 7 41 58 43 24 11
12 17 6 42 59 45 25 11
14 16 8 45 60 46 25 12
16 17 7 47 62 47 26 13
17 16 7 47 61 48 27 13
23 14 6 47 61 47 26 11
19 14 6 47 63 48 27 13
16 12 5 48 65 50 29 16
20 13 4 47 64 50 27 15
19 14 3 51 68 53 31 17
14 14 4 53 72 57 35 19
15 17 3 54 73 57 37 18
18 20 3 54 72 57 36 17
21 21 2 56 72 58 39 20
22 23 4 56 73 59 39 21
24 24 2 59 75 60 40 21
28 25 1 55 74 59 39 21
29 27 0 56 75 59 39 21
30 28 -1 56 75 60 42 23
33 30 -5 56 73 60 41 22
33 28 -6 55 72 60 40 21
33 27 -7 54 71 57 41 24
37 29 -8 53 69 58 41 25
31 28 -6 56 73 59 46 27
28 29 -3 60 75 63 49 32
31 28 -5 58 72 59 48 30
33 28 -6 56 72 60 48 30
35 31 -7 53 71 58 47 30
37 30 -9 51 68 57 46 30
37 28 -13 49 66 56 44 28
38 28 -14 47 63 54 43 27
44 27 -17 44 57 49 40 24
54 31 -18 40 53 47 37 21
58 31 -21 36 50 44 36 23
36 31 -14 41 56 51 44 31
19 30 -8 46 61 56 50 37
14 30 -7 45 62 58 50 38
21 31 -10 39 58 55 48 36
25 29 -12 33 55 56 45 34
26 27 -14 31 54 54 43 33
26 29 -15 31 52 54 42 32
24 27 -14 31 50 53 43 32
27 28 -12 29 49 53 44 34
27 30 -12 29 50 52 43 34
23 28 -11 26 48 52 42 31
25 29 -12 23 46 48 40 27
26 30 -12 22 46 46 37 27
24 30 -10 23 48 47 37 26
24 31 -9 22 48 47 38 25
23 30 -12 20 45 44 35 24
20 30 -11 19 46 44 35 24
15 29 -8 21 47 45 36 24
15 28 -8 19 47 44 34 23
17 27 -8 19 47 43 32 21
17 28 -8 16 45 40 29 19
13 25 -7 15 45 39 29 18
11 23 -4 13 46 39 28 18
15 23 -4 14 45 37 26 15
10 24 -3 16 45 36 25 14
10 23 -5 16 44 34 23 10
12 21 -5 9 43 33 20 8
8 21 -2 7 44 33 21 10
7 22 -2 7 44 33 21 10
6 16 -1 10 44 33 22 10
5 15 0 11 43 32 23 10
9 15 -3 9 41 27 19 7
6 14 -2 11 42 27 18 8
2 14 0 11 43 28 20 6
1 14 0 11 44 29 20 7
4 13 -2 10 44 30 21 8
12 14 -5 4 39 27 18 5
14 14 -6 -1 37 25 16 1
12 16 -4 -2 35 25 15 3
9 14 -4 -1 30 25 15 3
10 15 -4 -4 24 24 15 3
5 16 -4 -6 24 25 16 3
-5 15 -1 -4 27 27 18 5
1 14 -3 -7 24 24 15 2
-6 11 1 -1 27 28 17 5
-8 10 1 5 28 27 18 5
-1 14 -2 6 25 26 16 3
3 15 -3 5 23 23 14 1
-1 12 1 9 25 27 18 5
-7 14 2 13 28 29 19 6
-4 14 1 12 25 26 18 4
-1 13 0 14 25 26 16 2
3 11 0 16 26 28 18 3
4 14 -4 13 24 24 15 0
3 15 -3 16 24 26 16 2
6 13 -5 20 22 25 14 0
1 13 -4 34 23 25 16 3
-7 14 0 44 26 28 20 6
-7 12 1 47 26 28 21 5
-5 13 2 50 27 27 20 6
-5 11 2 49 27 26 19 4
-5 9 3 51 27 26 18 3
-2 11 2 49 26 25 17 2
-1 12 3 49 27 25 18 3
1 11 2 49 27 24 17 3
2 9 2 49 28 25 17 3
3 9 0 47 24 23 15 -1
5 14 -1 47 25 24 15 -1
4 13 1 49 27 26 17 3
-1 11 3 49 28 26 17 5
-2 15 4 50 28 26 19 5
-3 15 5 51 34 27 19 4
2 16 4 50 36 25 16 3
6 17 4 49 34 25 15 2
6 18 4 48 30 25 15 2
3 18 6 50 32 26 16 2
2 18 7 50 30 25 16 1
3 16 6 48 26 24 14 -1
9 14 7 47 26 25 15 0
17 12 6 44 24 23 13 -1
14 13 7 43 23 23 14 -1
-5 15 14 49 30 30 20 5
-8 15 14 50 30 29 19 5
1 15 12 48 28 27 18 3
1 14 12 47 27 27 17 3
-3 13 14 47 29 28 19 3
0 16 16 46 29 29 20 2
3 17 17 45 28 28 19 1
5 18 16 45 28 27 18 4
4 20 16 45 27 27 18 8
3 20 19 47 28 29 21 13
8 20 18 45 26 28 20 14
9 23 19 46 27 28 20 15
7 25 22 49 30 31 22 18
-3 26 27 52 35 35 26 23
-4 27 25 49 33 34 24 22
0 27 24 48 32 32 23 19
1 26 27 51 35 35 26 23
2 29 26 50 35 35 26 23
1 29 27 50 37 37 28 24
2 34 25 49 36 37 27 25
4 37 25 48 37 37 28 28
8 43 21 45 35 34 27 26
9 43 19 42 38 34 27 27
10 41 16 39 37 32 26 27
12 42 13 34 33 33 26 27
12 42 12 35 32 35 26 27
14 40 10 34 30 35 28 27
15 39 7 32 29 33 26 26
20 43 6 29 27 32 25 24
22 42 7 29 26 33 24 23
19 35 8 30 25 33 25 23
25 32 3 26 21 28 21 20
20 31 2 25 21 28 22 19
5 30 6 29 25 32 26 23
1 30 7 28 25 32 25 22
2 30 7 29 24 30 25 21
6 30 7 27 22 29 23 20
3 26 8 28 23 29 23 19
0 20 8 27 23 28 22 18
0 16 10 26 22 26 21 17
1 15 8 23 20 23 18 14
0 11 4 20 18 20 14 11
2 8 4 21 17 19 14 9
3 5 3 17 14 17 11 7
6 5 3 15 13 14 11 6
4 4 3 14 10 12 10 6
1 3 5 12 10 12 11 6
3 7 4 10 9 11 9 5
