I II V1 V2 V3 V4 V5 V6
-40 -113 -250 -443 -325 -226 -154 -82
-34 -113 -226 -395 -293 -206 -147 -85
-31 -117 -194 -348 -264 -188 -139 -85
-28 -101 -162 -291 -219 -152 -102 -61
-31 -92 -131 -244 -192 -141 -105 -70
-32 -87 -100 -200 -165 -125 -99 -69
-27 -73 -70 -157 -132 -101 -77 -55
-25 -63 -52 -125 -108 -85 -65 -46
-23 -68 -40 -108 -105 -93 -81 -62
-18 -63 -24 -82 -83 -75 -62 -46
-14 -49 -12 -65 -66 -64 -52 -38
-10 -45 -6 -55 -61 -63 -54 -41
-8 -48 -1 -50 -58 -61 -55 -43
-7 -37 4 -36 -42 -42 -28 -21
-10 -34 5 -32 -46 -47 -37 -30
-15 -39 7 -28 -47 -50 -43 -35
-15 -38 14 -20 -41 -45 -35 -28
-15 -34 15 -15 -39 -44 -33 -28
-13 -41 17 -17 -49 -59 -58 -48
-10 -42 19 -11 -39 -48 -45 -37
-9 -39 19 -8 -35 -44 -39 -31
-7 -39 18 -10 -36 -47 -45 -36
-6 -43 16 -12 -38 -48 -49 -38
-8 -33 19 -4 -26 -30 -24 -17
-8 -27 19 -5 -31 -38 -34 -26
-5 -27 22 -2 -32 -38 -37 -29
-6 -29 25 3 -28 -34 -29 -23
-10 -28 27 6 -25 -31 -25 -20
-11 -39 24 1 -37 -49 -53 -42
-7 -38 28 6 -27 -40 -39 -31
-6 -33 26 5 -24 -36 -33 -26
-9 -35 21 1 -28 -41 -42 -36
-10 -40 22 0 -30 -40 -44 -38
-8 -29 25 7 -17 -23 -18 -16
-5 -21 25 5 -22 -28 -28 -25
-4 -23 29 10 -22 -27 -29 -25
-6 -26 32 13 -20 -24 -23 -19
-5 -21 35 17 -17 -21 -20 -17
-6 -32 32 11 -28 -37 -45 -38
-5 -35 36 18 -18 -28 -33 -27
-4 -32 34 18 -14 -22 -25 -21
-6 -33 29 14 -17 -27 -35 -31
-5 -37 30 13 -18 -27 -37 -33
-6 -25 31 22 -3 -8 -10 -11
-7 -21 28 19 -11 -15 -22 -21
-5 -23 30 22 -11 -16 -25 -24
-6 -22 32 26 -7 -10 -16 -17
0 -10 36 32 0 -6 -11 -12
1 -19 36 30 -10 -20 -34 -31
0 -24 39 35 0 -11 -21 -19
0 -18 38 35 3 -7 -15 -14
2 -16 36 35 4 -10 -22 -20
1 -23 37 35 4 -10 -23 -22
1 -13 40 43 20 8 3 -1
0 -9 39 44 14 3 -8 -10
2 -9 43 50 17 4 -11 -13
4 -8 49 57 24 13 2 -4
1 -4 50 61 27 14 2 -3
0 -14 51 59 19 0 -20 -22
5 -15 56 71 32 14 -4 -8
6 -9 54 71 38 18 2 -6
6 -8 54 72 38 16 -4 -11
4 -14 58 75 43 19 -3 -9
5 0 62 89 60 40 25 13
6 6 61 91 56 35 15 3
4 1 65 98 59 36 12 1
7 5 70 107 68 44 23 9
9 12 74 116 76 50 29 12
6 0 74 114 67 36 6 -8
11 1 81 125 83 50 24 7
14 10 84 131 93 58 33 13
12 8 85 133 93 56 27 7
16 8 90 138 97 61 29 10
17 22 95 150 113 80 56 31
17 29 97 150 110 75 45 21
16 27 102 156 112 76 42 19
14 28 106 162 118 81 52 25
13 33 110 168 122 84 55 26
14 23 112 165 113 71 33 8
17 23 117 170 123 82 47 20
21 34 118 173 129 87 55 27
21 34 118 171 127 82 49 21
20 28 120 169 127 83 48 22
19 40 124 176 139 98 73 43
15 41 121 172 129 89 60 31
15 39 123 173 126 88 55 27
13 40 125 175 127 89 60 31
10 45 129 174 126 86 59 30
11 35 127 167 114 69 35 10
14 31 130 171 120 76 47 21
14 36 130 168 121 77 52 26
11 34 127 160 114 71 42 18
14 31 127 157 110 69 40 17
16 45 129 161 122 85 64 41
10 43 126 155 112 75 51 29
6 35 125 152 105 67 42 23
6 35 126 153 107 70 50 29
9 44 127 153 106 68 49 29
9 33 126 145 90 52 24 8
9 28 126 142 94 58 35 19
8 29 120 134 90 54 35 18
6 25 114 124 81 45 23 9
7 22 111 119 76 42 22 7
8 35 109 120 86 56 46 27
7 41 108 112 75 47 33 19
7 32 105 105 66 39 25 13
5 26 105 105 65 43 32 19
1 25 101 101 64 38 31 18
-2 12 95 87 45 17 0 -6
-2 7 96 84 48 22 13 5
-1 10 91 76 44 21 14 5
4 12 86 67 35 13 2 -3
6 8 84 60 30 12 0 -3
3 13 82 60 37 25 22 15
1 14 77 51 24 14 7 2
-1 7 77 47 18 8 2 -2
-2 4 77 45 18 11 8 3
-3 8 74 41 14 7 6 4
-4 -5 69 30 -2 -12 -19 -17
-5 -8 68 27 1 -7 -9 -7
-5 -3 63 21 -1 -8 -8 -6
-6 -6 58 12 -10 -18 -20 -16
-3 -10 56 9 -12 -17 -20 -16
-2 0 58 11 -2 -3 2 3
-4 2 55 6 -11 -12 -10 -7
-4 -2 56 5 -14 -16 -15 -12
-7 -6 58 6 -13 -14 -8 -6
-7 -3 57 6 -13 -15 -9 -6
-4 -11 55 -1 -25 -31 -30 -24
-5 -15 57 3 -18 -23 -18 -12
-6 -11 54 -1 -17 -22 -16 -11
-8 -12 49 -7 -23 -30 -27 -20
-4 -15 50 -8 -24 -29 -28 -20
-2 -2 51 1 -9 -12 -2 2
-5 -2 47 -4 -18 -21 -16 -11
-6 -5 48 -2 -21 -24 -22 -16
-4 -4 52 3 -14 -16 -11 -7
-7 0 51 5 -13 -16 -10 -6
-5 -10 50 -1 -24 -31 -33 -27
-5 -13 51 4 -15 -21 -18 -14
-5 -11 51 4 -12 -18 -12 -10
-4 -9 48 1 -15 -24 -21 -17
-5 -15 49 0 -17 -24 -23 -18
-1 0 50 8 -4 -7 2 2
3 5 50 6 -10 -14 -10 -8
-4 -2 50 7 -13 -18 -16 -13
-7 -4 54 12 -8 -10 -6 -6
-5 3 53 13 -7 -10 -7 -6
-3 -5 53 9 -17 -25 -29 -25
-3 -10 56 15 -7 -14 -13 -11
-5 -12 55 14 -5 -12 -9 -8
-1 -8 52 11 -9 -18 -18 -16
2 -9 55 11 -8 -17 -15 -13
2 2 54 15 2 -2 7 6
2 5 53 14 -4 -10 -7 -4
-1 2 54 14 -8 -14 -13 -10
-1 2 58 16 -4 -8 -4 -3
-1 6 57 19 -2 -7 -2 -3
-2 -8 56 14 -14 -22 -25 -22
-2 -11 58 17 -5 -13 -12 -9
-2 -5 56 14 -5 -12 -8 -6
-1 -4 53 11 -10 -20 -19 -15
1 -7 54 10 -11 -18 -17 -14
1 3 55 16 1 -3 7 7
-1 4 51 10 -8 -13 -9 -7
-2 -1 52 11 -10 -15 -13 -10
-1 -1 56 14 -6 -10 -4 -1
-2 4 55 15 -7 -12 -6 -3
-3 -9 52 7 -20 -28 -30 -23
-2 -11 55 9 -13 -19 -18 -11
1 -4 52 5 -14 -19 -16 -11
0 -6 50 3 -18 -24 -24 -18
2 -10 50 1 -20 -24 -23 -17
2 1 51 5 -10 -10 0 3
-2 -1 48 0 -18 -20 -15 -10
-1 -4 48 2 -19 -22 -18 -12
-3 -5 50 3 -17 -18 -9 -6
-10 -7 48 2 -18 -21 -13 -7
-6 -18 48 -4 -30 -36 -35 -26
-4 -16 50 -1 -23 -29 -22 -14
-1 -9 48 -4 -23 -27 -21 -14
-1 -11 45 -8 -28 -34 -30 -22
-3 -19 46 -11 -31 -35 -32 -22
4 -3 49 -3 -17 -18 -6 -1
4 0 47 -7 -24 -25 -18 -11
-1 -7 49 -6 -27 -28 -22 -14
0 -8 51 -4 -23 -22 -13 -6
-4 -7 51 -4 -25 -25 -14 -9
-5 -17 47 -14 -40 -43 -41 -30
-2 -15 50 -10 -33 -35 -27 -17
-1 -10 48 -13 -32 -34 -25 -17
-1 -10 45 -16 -38 -39 -35 -25
0 -15 45 -18 -37 -38 -34 -24
1 -5 46 -14 -27 -24 -13 -6
-2 -6 45 -16 -33 -32 -23 -15
-5 -13 47 -16 -35 -34 -28 -18
-6 -13 47 -13 -31 -28 -18 -11
-7 -9 47 -14 -31 -29 -19 -12
-8 -21 47 -18 -42 -45 -40 -29
-5 -20 50 -14 -35 -36 -28 -17
-4 -13 49 -14 -33 -34 -25 -14
-2 -12 45 -19 -38 -41 -36 -22
0 -11 47 -16 -35 -36 -33 -19
2 1 48 -12 -25 -23 -12 -3
-2 3 46 -15 -31 -31 -25 -14
-4 0 46 -14 -32 -32 -29 -16
-5 1 47 -11 -30 -27 -21 -10
-7 6 45 -11 -29 -28 -21 -11
-9 -7 42 -14 -38 -42 -41 -27
-5 -7 44 -11 -31 -33 -28 -16
-2 -1 44 -11 -28 -30 -23 -12
-3 -1 40 -15 -33 -38 -35 -21
2 -1 38 -14 -32 -35 -32 -18
3 13 38 -9 -19 -18 -8 2
0 13 35 -11 -26 -27 -22 -10
-2 10 35 -10 -27 -29 -26 -13
-1 16 38 -5 -20 -21 -14 -2
-1 23 37 -4 -20 -21 -13 -3
-1 13 33 -9 -29 -34 -33 -19
-2 15 35 -7 -20 -24 -19 -5
1 23 32 -10 -20 -23 -16 -2
-1 21 28 -13 -26 -29 -25 -11
0 15 27 -18 -29 -31 -26 -9
2 27 26 -16 -20 -18 -5 7
6 32 22 -19 -28 -27 -19 -4
3 25 22 -18 -31 -30 -23 -7
4 27 22 -14 -25 -23 -14 2
4 29 21 -15 -27 -26 -17 -1
5 15 17 -20 -39 -39 -37 -18
9 15 17 -19 -33 -32 -24 -8
9 16 17 -20 -31 -30 -21 -4
11 12 15 -22 -36 -36 -30 -12
10 6 15 -24 -36 -36 -28 -12
7 11 15 -20 -27 -24 -10 5
4 11 15 -22 -33 -31 -22 -7
4 7 16 -20 -34 -32 -25 -10
4 8 19 -16 -29 -26 -17 -3
1 9 19 -15 -29 -28 -19 -6
-2 -4 17 -22 -41 -44 -42 -25
0 -1 19 -19 -33 -36 -30 -15
-2 0 16 -21 -34 -36 -27 -13
-1 -6 11 -26 -42 -44 -39 -23
0 -11 12 -25 -41 -42 -35 -20
0 1 11 -21 -31 -29 -15 -4
-2 -1 8 -27 -42 -40 -31 -17
-4 -7 6 -29 -46 -44 -37 -21
-5 -10 6 -28 -43 -40 -30 -16
-6 -8 6 -26 -43 -42 -32 -17
-5 -20 4 -32 -56 -57 -54 -35
-7 -23 3 -32 -52 -51 -42 -25
-5 -20 2 -32 -49 -49 -39 -22
-4 -22 -1 -36 -55 -56 -49 -31
-2 -26 -1 -35 -53 -53 -45 -27
-2 -15 -1 -29 -41 -38 -23 -9
-7 -16 -4 -33 -49 -47 -37 -22
-4 -18 -3 -30 -49 -47 -39 -23
1 -14 1 -26 -43 -41 -30 -14
-3 -11 -2 -27 -46 -44 -32 -18
-6 -27 -6 -34 -58 -59 -54 -36
-5 -30 -5 -30 -51 -52 -42 -25
-3 -23 -6 -29 -49 -50 -40 -23
-5 -27 -12 -35 -55 -57 -50 -33
1 -27 -11 -32 -52 -54 -46 -29
0 -16 -12 -27 -42 -40 -24 -12
-4 -19 -16 -30 -49 -48 -38 -24
-2 -22 -12 -23 -47 -47 -38 -25
-1 -19 -3 -6 -37 -37 -25 -14
-2 -16 1 4 -36 -39 -29 -20
1 -22 10 16 -38 -51 -49 -36
3 -16 24 43 -19 -36 -32 -23
5 -2 43 81 7 -19 -20 -16
12 11 68 131 42 4 -9 -12
21 16 93 184 90 45 23 8
28 34 107 231 144 99 74 43
37 48 109 260 180 134 97 54
45 68 110 275 218 178 134 79
54 94 92 261 248 228 184 118
59 119 51 210 260 264 220 145
73 129 -3 149 262 298 244 162
89 148 -65 73 273 351 301 208
93 176 -146 -30 265 388 340 240
88 206 -210 -135 238 402 352 253
71 228 -254 -250 204 407 364 269
50 261 -300 -364 176 412 381 293
32 263 -344 -463 133 395 364 280
22 242 -378 -531 86 377 349 271
14 215 -395 -568 47 346 326 256
5 166 -402 -596 -22 270 264 210
-2 98 -408 -599 -89 179 178 147
-5 54 -403 -567 -118 120 132 116
-12 9 -389 -540 -168 42 70 71
-25 -41 -371 -524 -246 -73 -28 3
-35 -81 -343 -502 -311 -182 -118 -52
-38 -94 -321 -467 -331 -221 -140 -64
-36 -97 -301 -427 -318 -220 -152 -77
-30 -99 -273 -374 -285 -196 -142 -76
-29 -96 -242 -321 -247 -169 -120 -64
-28 -87 -211 -270 -216 -153 -111 -63
-28 -92 -180 -226 -195 -148 -119 -76
-25 -85 -149 -177 -158 -120 -93 -58
-16 -65 -126 -139 -130 -100 -77 -47
-9 -57 -113 -119 -117 -97 -80 -52
-6 -57 -103 -95 -97 -86 -71 -45
-5 -39 -92 -72 -72 -64 -42 -24
-8 -32 -85 -60 -67 -65 -52 -33
-9 -31 -77 -46 -59 -60 -51 -33
-8 -31 -71 -33 -50 -49 -36 -22
-14 -31 -70 -29 -51 -51 -39 -25
-12 -42 -71 -28 -61 -64 -61 -43
-9 -42 -67 -17 -51 -54 -44 -29
-7 -36 -67 -14 -48 -51 -41 -26
-4 -34 -67 -12 -51 -59 -51 -35
-1 -37 -68 -9 -46 -55 -48 -33
-2 -24 -69 -3 -31 -38 -25 -15
-5 -24 -72 -6 -37 -47 -39 -28
-5 -29 -72 -4 -37 -48 -42 -30
-5 -28 -73 1 -31 -38 -29 -19
-5 -23 -75 1 -33 -41 -33 -22
-4 -34 -75 -2 -45 -53 -55 -39
-5 -36 -72 4 -38 -45 -41 -27
-7 -34 -76 6 -36 -44 -38 -24
-4 -30 -79 4 -41 -51 -48 -34
0 -32 -77 8 -34 -45 -42 -29
0 -20 -79 12 -21 -31 -21 -12
-1 -19 -84 8 -26 -38 -33 -23
-1 -24 -84 9 -27 -38 -34 -25
-2 -21 -85 13 -20 -29 -21 -13
-5 -17 -88 13 -24 -33 -25 -17
-5 -30 -91 9 -36 -47 -47 -35
-1 -29 -89 16 -27 -37 -32 -21
-1 -23 -92 17 -26 -36 -29 -20
0 -24 -94 14 -30 -43 -41 -31
1 -28 -95 18 -24 -37 -35 -25
-3 -20 -97 21 -12 -23 -13 -9
-4 -19 -104 17 -18 -30 -27 -22
3 -17 -102 21 -13 -27 -26 -20
1 -16 -102 25 -8 -18 -12 -9
-1 -12 -103 27 -8 -19 -15 -11
-1 -24 -104 24 -19 -33 -36 -28
1 -25 -104 30 -11 -26 -23 -17
3 -20 -106 32 -9 -24 -20 -15
-1 -26 -110 28 -13 -32 -34 -26
-5 -30 -110 32 -7 -27 -29 -23
-3 -17 -113 38 6 -11 -6 -5
1 -9 -118 35 2 -17 -18 -15
5 -8 -116 41 7 -15 -18 -15
7 -5 -113 48 17 -3 -1 -1
4 -3 -117 48 14 -5 -5 -5
1 -17 -118 46 4 -17 -24 -20
3 -16 -116 55 14 -7 -10 -6
3 -9 -117 58 17 -5 -8 -5
4 -13 -119 56 13 -11 -19 -15
6 -15 -118 62 21 -5 -13 -10
8 0 -118 71 39 12 11 8
13 7 -118 74 37 10 1 -1
13 3 -117 79 41 13 2 -3
10 5 -115 88 52 26 19 12
7 7 -119 87 50 23 15 7
8 -1 -119 92 44 13 -3 -9
13 3 -111 104 58 27 15 8
13 6 -109 110 65 31 20 11
14 5 -106 113 64 26 10 1
13 0 -101 119 73 35 16 7
16 14 -92 131 91 54 40 26
18 20 -87 133 90 51 31 16
17 19 -78 139 94 54 32 15
16 25 -65 148 107 68 48 29
16 29 -51 153 108 68 48 26
17 22 -33 152 99 56 28 10
20 26 -13 161 108 69 46 25
19 30 -1 164 114 72 50 28
19 27 -2 163 110 66 37 17
19 23 -3 167 117 72 44 22
16 34 -9 171 129 85 63 38
17 38 -9 169 125 78 50 27
18 37 -3 170 125 78 49 25
16 40 9 175 130 87 61 37
19 46 16 176 129 86 59 34
17 35 19 171 115 73 38 18
18 35 23 174 122 79 53 30
18 40 27 175 123 80 56 33
18 36 28 168 113 68 40 20
19 34 36 167 115 71 44 23
15 44 42 170 125 81 63 40
12 45 47 165 117 73 48 26
16 42 55 163 114 71 45 24
13 44 67 163 117 77 56 35
10 46 71 158 109 69 49 29
10 33 78 153 97 56 29 12
14 35 87 156 101 63 42 25
15 40 91 152 100 61 44 25
12 35 89 145 89 49 29 14
10 27 84 140 89 51 30 16
9 37 77 141 97 61 49 33
12 39 73 135 90 54 37 22
14 38 73 130 84 50 33 21
10 35 74 129 86 57 45 30
7 35 74 121 76 47 35 22
6 25 76 110 60 30 12 4
7 22 81 109 60 35 24 14
6 27 80 102 56 31 23 13
7 26 76 93 44 18 7 1
8 17 76 88 46 19 10 5
6 23 75 87 53 30 28 20
4 20 69 77 42 19 13 7
0 13 67 69 34 14 8 3
-3 12 70 67 36 20 20 14
-6 12 71 58 27 13 11 7
0 5 73 51 11 -4 -11 -11
5 8 77 50 13 2 0 1
2 7 77 43 9 -1 -2 -1
1 2 73 35 -1 -14 -17 -13
3 -1 73 32 0 -12 -13 -9
0 6 70 31 7 -2 5 5
-2 4 65 21 -4 -12 -10 -8
-2 -3 62 16 -7 -14 -12 -10
-2 -1 65 20 -1 -7 0 2
-3 3 60 13 -9 -13 -8 -4
-4 -8 57 7 -23 -27 -30 -21
-5 -9 56 8 -21 -22 -19 -11
-7 -8 55 4 -21 -24 -19 -11
-7 -12 54 -3 -31 -36 -34 -25
-3 -15 57 0 -25 -30 -27 -18
-5 -5 56 2 -15 -17 -9 -3
-7 -7 51 -5 -24 -27 -24 -17
-7 -8 53 -4 -23 -26 -24 -17
-7 -4 56 -1 -16 -17 -10 -6
-9 -2 53 -2 -20 -22 -16 -12
-2 -10 54 -2 -26 -30 -30 -23
4 -6 57 4 -19 -20 -15 -10
2 -4 55 4 -17 -20 -15 -10
-2 -10 48 -1 -25 -31 -30 -22
-1 -15 43 0 -21 -26 -25 -18
-1 -5 33 6 -9 -12 -5 -1
-4 -4 18 1 -14 -20 -19 -14
-4 -4 11 4 -14 -18 -18 -12
-4 -2 5 10 -6 -8 -3 0
-8 0 -5 7 -12 -14 -11 -7
-3 -8 -12 4 -21 -25 -29 -21
3 -4 -14 13 -13 -14 -13 -7
1 0 -21 13 -11 -14 -13 -7
0 -4 -32 8 -18 -24 -27 -19
2 -8 -35 10 -14 -19 -21 -14
1 4 -41 14 -2 -6 -2 1
-1 3 -46 11 -7 -13 -14 -9
0 0 -48 13 -7 -13 -15 -11
0 5 -51 17 -1 -4 -2 0
-3 6 -54 15 -5 -8 -7 -4
-2 -8 -54 12 -15 -18 -26 -18
1 -7 -55 17 -9 -10 -11 -6
-1 -3 -58 15 -9 -11 -12 -6
0 -5 -60 10 -17 -21 -26 -19
1 -8 -60 11 -13 -17 -22 -14
-2 -1 -60 16 -2 -5 -3 1
0 2 -60 12 -8 -13 -15 -10
3 -1 -56 13 -9 -12 -14 -10
2 2 -50 17 -3 -4 -2 1
-1 3 -46 13 -7 -9 -9 -6
-2 -9 -46 8 -20 -22 -29 -22
-1 -8 -40 13 -13 -14 -14 -9
-1 -6 -39 11 -13 -14 -14 -7
0 -9 -42 8 -21 -24 -27 -18
4 -8 -41 9 -16 -19 -20 -13
2 -1 -41 11 -7 -7 -1 2
-3 -3 -45 5 -14 -15 -14 -9
-1 -3 -47 5 -16 -17 -17 -12
-4 -4 -50 5 -12 -12 -9 -5
-5 -2 -57 3 -17 -16 -14 -10
-2 -11 -64 0 -27 -28 -32 -23
1 -9 -71 2 -23 -21 -20 -11
-1 -6 -81 1 -22 -21 -19 -10
1 -10 -86 -3 -30 -32 -31 -21
5 -12 -83 -3 -28 -29 -26 -16
4 -1 -76 0 -18 -16 -7 -1
1 -5 -69 -4 -26 -26 -21 -13
0 -8 -62 -6 -28 -27 -23 -15
-6 -6 -57 -3 -22 -19 -10 -4
-6 -5 -59 -8 -29 -27 -21 -14
-4 -16 -58 -11 -39 -39 -38 -28
-4 -19 -59 -9 -34 -32 -26 -18
-6 -17 -61 -9 -34 -33 -28 -18
-4 -18 -65 -14 -42 -43 -41 -30
-1 -18 -63 -13 -38 -38 -34 -23
0 -5 -63 -9 -27 -25 -14 -8
-3 -9 -65 -14 -33 -32 -27 -19
-4 -13 -62 -15 -36 -34 -29 -21
-3 -10 -54 -11 -28 -24 -16 -9
-5 -9 -50 -17 -35 -31 -25 -18
-7 -21 -41 -20 -46 -44 -44 -32
-5 -20 -31 -17 -41 -37 -30 -20
-5 -18 -25 -18 -42 -38 -32 -19
-5 -22 -22 -23 -50 -49 -47 -33
-3 -24 -14 -20 -44 -42 -39 -25
-3 -12 -8 -17 -34 -31 -22 -11
-2 -10 -7 -20 -38 -36 -32 -20
-2 -13 -4 -20 -39 -37 -33 -21
0 -8 -2 -15 -31 -27 -19 -9
-3 -5 -5 -18 -36 -32 -25 -14
-5 -18 -8 -22 -46 -44 -43 -28
-3 -17 -11 -17 -39 -35 -29 -15
-7 -14 -18 -16 -37 -35 -30 -16
-5 -11 -25 -21 -45 -46 -45 -29
-1 -10 -26 -17 -40 -39 -36 -21
-3 -1 -32 -14 -30 -28 -16 -7
-2 0 -37 -14 -32 -32 -27 -17
-4 -6 -42 -15 -33 -33 -27 -18
-6 -6 -41 -11 -26 -25 -16 -7
-7 0 -42 -14 -30 -30 -23 -13
-3 -6 -38 -16 -39 -39 -40 -25
-1 -3 -32 -11 -32 -31 -26 -13
-2 0 -28 -11 -31 -30 -23 -11
-2 -3 -26 -17 -39 -41 -39 -25
-1 0 -19 -12 -32 -33 -30 -16
-1 13 -15 -9 -20 -22 -12 0
-3 15 -14 -14 -25 -29 -24 -12
-2 18 -10 -13 -24 -27 -23 -10
-3 25 -6 -9 -16 -16 -8 4
-1 28 -6 -12 -20 -23 -15 -2
1 16 -7 -17 -33 -35 -33 -16
2 11 -5 -18 -31 -32 -22 -6
0 13 -6 -22 -34 -34 -23 -8
-4 9 -8 -29 -42 -43 -39 -20
-1 8 -4 -26 -36 -38 -31 -14
2 20 -3 -22 -25 -27 -13 0
1 17 -6 -27 -33 -34 -27 -13
3 10 -7 -27 -34 -35 -29 -13
4 13 -5 -21 -26 -24 -14 0
1 9 -8 -24 -32 -31 -23 -8
1 -3 -8 -29 -42 -43 -40 -22
2 -2 -5 -26 -38 -36 -27 -11
1 3 -6 -26 -38 -36 -28 -11
2 -1 -8 -28 -45 -45 -41 -23
3 -5 -4 -25 -38 -38 -33 -15
2 1 -4 -21 -28 -28 -15 -1
-1 -2 -7 -23 -33 -35 -27 -13
-3 -7 -7 -22 -33 -34 -28 -13
-4 -3 -9 -20 -28 -27 -16 -3
-6 -3 -15 -26 -37 -36 -27 -14
-8 -17 -12 -28 -45 -48 -44 -28
-5 -20 -13 -26 -43 -42 -32 -18
-6 -20 -16 -30 -44 -44 -33 -18
-1 -19 -18 -34 -51 -53 -47 -30
0 -23 -18 -32 -46 -47 -38 -22
-3 -17 -22 -30 -40 -39 -24 -11
-3 -18 -29 -34 -46 -45 -36 -23
-6 -25 -35 -35 -47 -47 -40 -25
-7 -23 -38 -33 -44 -42 -29 -18
-6 -19 -42 -36 -49 -47 -36 -23
-7 -33 -45 -39 -58 -58 -53 -36
-8 -34 -47 -37 -54 -53 -42 -26
-5 -30 -47 -34 -52 -51 -41 -24
-3 -32 -50 -37 -58 -60 -55 -36
-3 -36 -50 -35 -52 -53 -45 -28
-5 -27 -51 -31 -42 -42 -27 -14
-7 -29 -53 -35 -50 -51 -41 -28
-4 -28 -52 -36 -48 -50 -40 -26
-4 -23 -50 -32 -43 -42 -29 -16
-7 -22 -50 -35 -49 -48 -39 -24
-7 -34 -47 -38 -57 -59 -54 -36
-6 -35 -45 -34 -51 -50 -42 -25
-5 -31 -46 -35 -52 -51 -42 -26
-6 -39 -47 -37 -60 -60 -56 -39
-3 -40 -41 -28 -52 -54 -47 -32
-2 -27 -34 -11 -38 -40 -29 -19
-2 -27 -27 -1 -38 -45 -40 -30
1 -25 -11 21 -27 -39 -37 -29
2 -11 12 54 -3 -19 -15 -11
2 -1 38 95 20 -7 -12 -13
10 1 71 146 53 13 -5 -11
17 10 95 197 104 60 36 17
25 21 107 235 146 99 68 34
37 36 112 258 179 131 90 47
43 55 113 267 221 183 139 83
52 89 88 241 251 237 196 126
65 115 45 184 259 273 226 149
84 138 3 130 275 324 272 185
97 168 -58 48 287 380 332 230
96 195 -125 -54 271 410 360 253
87 211 -171 -161 237 413 361 260
69 237 -206 -277 205 417 377 283
49 255 -249 -393 166 407 373 285
37 246 -287 -486 117 388 353 271
25 223 -315 -545 77 371 343 264
8 188 -322 -580 34 328 314 245
1 130 -325 -603 -41 243 239 189
1 81 -321 -588 -85 173 176 145
-5 41 -308 -554 -118 111 128 112
-15 -4 -290 -533 -184 16 48 54
-29 -61 -263 -520 -270 -112 -64 -20
-39 -92 -234 -490 -322 -202 -131 -61
-36 -104 -209 -457 -334 -232 -155 -78
-33 -113 -189 -416 -315 -223 -164 -91
-28 -114 -157 -362 -273 -193 -140 -79
-29 -102 -125 -309 -232 -162 -112 -62
-26 -96 -90 -260 -204 -151 -113 -70
-24 -89 -56 -210 -171 -130 -101 -63
-23 -75 -28 -164 -136 -104 -74 -46
-20 -64 -12 -136 -121 -98 -74 -49
-17 -69 0 -116 -113 -98 -83 -57
-10 -60 14 -90 -91 -80 -62 -41
-11 -48 28 -70 -74 -70 -54 -34
-8 -48 35 -62 -72 -74 -64 -45
-6 -47 43 -47 -58 -62 -49 -33
-7 -33 46 -36 -44 -48 -31 -19
-8 -32 47 -34 -48 -56 -45 -31
-7 -34 51 -25 -45 -53 -44 -30
-9 -31 55 -16 -36 -42 -28 -18
-10 -31 54 -13 -40 -49 -38 -26
-7 -42 54 -15 -49 -61 -55 -39
-6 -43 58 -8 -39 -51 -40 -27
-5 -38 57 -7 -37 -50 -39 -27
-3 -40 58 -10 -42 -60 -54 -39
-1 -38 61 -6 -35 -51 -42 -30
1 -22 64 0 -24 -37 -23 -14
-2 -23 62 -4 -32 -46 -37 -27
-3 -29 67 1 -31 -43 -37 -26
-2 -22 70 7 -24 -33 -21 -12
-5 -24 69 6 -29 -41 -33 -22
-6 -41 72 4 -37 -53 -51 -36
-3 -40 74 10 -28 -43 -37 -24
-3 -35 69 8 -28 -44 -37 -26
3 -33 68 3 -33 -49 -49 -35
2 -35 71 7 -25 -41 -36 -25
-1 -25 70 10 -17 -30 -20 -13
-2 -24 70 7 -22 -36 -31 -23
-4 -29 73 11 -22 -36 -32 -23
0 -21 78 18 -15 -26 -17 -11
-3 -21 77 15 -20 -33 -27 -19
-3 -32 78 13 -28 -45 -45 -33
1 -31 82 20 -18 -34 -30 -20
4 -24 82 19 -16 -33 -29 -20
5 -28 82 14 -22 -42 -45 -33
8 -25 85 18 -14 -31 -30 -21
5 -10 85 21 -5 -20 -13 -8
3 -13 86 19 -10 -25 -25 -20
2 -19 91 25 -7 -21 -22 -16
1 -15 93 31 1 -11 -7 -3
0 -15 93 30 -3 -19 -17 -12
1 -28 94 29 -12 -30 -35 -26
3 -25 97 34 -2 -20 -21 -15
6 -18 94 34 0 -21 -21 -16
4 -23 92 30 -6 -30 -36 -28
7 -23 95 37 6 -16 -20 -15
7 -11 97 43 17 -3 -2 -1
4 -12 99 43 13 -7 -13 -9
2 -14 104 50 16 -3 -9 -6
8 -7 107 58 29 8 9 7
6 -2 109 58 24 1 -4 -3
7 -11 112 58 17 -8 -19 -16
8 -10 112 65 27 1 -5 -5
8 -7 109 69 33 4 -3 -4
7 -12 104 65 28 -3 -17 -16
8 -13 106 73 39 9 -3 -5
10 4 109 83 53 24 16 10
11 6 110 84 50 20 5 0
11 5 115 94 57 28 11 5
9 8 117 105 69 41 28 18
5 7 117 107 68 35 19 9
9 -3 117 111 66 29 7 -2
14 3 117 121 80 42 24 12
20 13 115 126 86 45 26 13
23 13 112 127 84 41 14 2
23 14 115 137 96 54 29 15
21 27 113 144 108 69 48 28
20 29 112 147 108 65 40 20
19 24 113 153 111 68 42 21
19 29 117 163 123 83 61 35
18 32 116 164 121 77 52 29
18 22 116 165 115 68 37 16
21 26 119 171 125 80 53 28
21 32 119 171 127 80 53 29
21 29 118 167 119 70 37 16
21 29 121 170 126 80 50 27
18 41 121 172 135 90 66 39
18 42 122 171 128 82 52 29
17 35 126 172 126 82 53 29
19 44 130 179 136 93 70 43
19 48 126 174 128 83 58 32
20 36 124 171 117 71 40 20
20 33 125 173 123 78 53 30
18 36 121 169 122 77 52 30
17 37 117 161 112 65 35 16
18 37 118 161 117 72 47 27
14 45 114 161 121 78 58 37
11 43 111 153 111 66 41 24
12 41 113 154 109 67 42 25
11 45 114 156 114 73 56 37
8 42 110 150 104 62 41 24
12 33 110 145 95 51 25 12
12 32 108 144 98 56 37 23
12 35 102 138 95 53 34 21
12 28 96 128 84 40 16 9
12 26 95 126 86 46 27 18
9 37 92 124 91 52 40 28
5 34 85 113 77 39 23 15
6 28 84 111 72 39 22 15
5 30 83 111 76 47 36 26
0 24 75 100 63 32 19 12
4 15 72 93 52 20 2 -1
3 15 70 89 52 23 12 9
2 15 63 81 48 19 10 6
6 11 57 71 36 9 -5 -6
6 10 54 67 38 13 4 3
5 21 50 64 41 20 17 14
3 15 48 55 30 10 5 3
2 10 47 51 25 7 2 3
1 12 49 55 31 15 17 15
-3 8 45 44 17 2 1 1
-4 -7 44 35 3 -13 -18 -14
-3 -7 44 33 6 -8 -7 -3
-7 -8 38 25 2 -12 -11 -7
-6 -12 35 16 -8 -23 -27 -20
0 -9 38 19 -2 -13 -13 -7
0 4 35 16 2 -6 0 2
-1 1 33 9 -7 -18 -14 -8
-4 -5 31 9 -8 -18 -15 -8
-9 -5 31 10 -5 -11 -3 1
-7 -2 28 4 -14 -22 -16 -10
-3 -11 29 1 -22 -33 -33 -23
0 -9 30 3 -16 -25 -20 -13
-1 -8 28 0 -15 -27 -21 -13
-3 -15 23 -9 -26 -40 -38 -29
-1 -16 25 -6 -19 -30 -25 -17
-4 -1 24 -2 -10 -18 -8 -4
-4 0 25 -3 -16 -24 -19 -14
-3 -4 29 0 -14 -21 -16 -12
-7 -3 31 5 -6 -11 0 1
-9 -4 28 1 -14 -21 -16 -12
-11 -18 28 -3 -23 -32 -31 -25
-10 -17 30 1 -15 -24 -18 -14
-4 -8 30 2 -13 -23 -18 -14
-1 -9 29 -1 -20 -32 -33 -26
0 -11 32 3 -11 -22 -20 -15
0 1 31 7 -2 -11 -4 -3
-3 0 30 4 -9 -19 -17 -14
-3 -3 33 8 -8 -15 -14 -11
-2 1 36 15 1 -4 2 2
-4 -2 35 12 -4 -13 -11 -8
-2 -12 38 12 -10 -21 -23 -17
-1 -9 39 14 -3 -12 -9 -6
-1 -5 37 13 -5 -15 -12 -7
-2 -10 32 7 -14 -26 -28 -21
-2 -13 34 9 -7 -16 -15 -11
-4 -3 32 11 0 -9 -2 -2
-7 -6 32 9 -6 -17 -14 -12
-3 -4 35 12 -5 -14 -12 -10
-4 2 37 19 4 -3 5 4
-7 0 32 13 -7 -16 -10 -8
-4 -8 34 12 -13 -22 -22 -17
1 -4 36 16 -4 -14 -8 -5
-1 -6 33 14 -5 -15 -10 -7
3 -9 31 9 -14 -24 -24 -20
2 -9 33 12 -7 -15 -12 -10
1 2 29 12 -2 -9 -1 -2
1 2 29 10 -8 -15 -12 -10
-2 -3 30 10 -9 -16 -12 -10
-4 0 31 14 -4 -9 -1 -1
-2 1 30 11 -9 -17 -12 -10
-3 -12 33 9 -16 -24 -24 -20
-1 -11 34 12 -10 -16 -11 -8
1 -6 31 8 -12 -19 -13 -10
1 -13 29 2 -22 -32 -30 -23
1 -13 30 4 -15 -22 -17 -12
-5 -3 28 4 -10 -15 -5 -3
-5 -4 27 -1 -19 -25 -19 -16
-5 -9 30 1 -19 -23 -17 -13
-4 -4 31 5 -12 -14 -4 -2
-5 -4 28 3 -20 -24 -19 -14
-5 -17 28 0 -28 -33 -34 -25
-3 -14 28 -1 -22 -26 -20 -14
-1 -9 26 -3 -22 -27 -21 -14
-1 -14 22 -9 -32 -38 -36 -27
-2 -16 22 -8 -26 -30 -24 -17
-1 -2 19 -7 -20 -22 -11 -7
-4 -7 18 -9 -27 -30 -23 -16
-6 -14 18 -8 -28 -31 -22 -15
-9 -12 17 -8 -22 -24 -9 -4
-7 -9 16 -10 -30 -34 -24 -17
-4 -20 18 -13 -37 -40 -35 -27
-7 -22 18 -13 -32 -34 -24 -19
-5 -18 18 -15 -33 -36 -25 -19
-3 -22 15 -20 -41 -45 -40 -32
-6 -25 17 -16 -32 -35 -25 -19
-7 -11 15 -16 -28 -30 -15 -11
-9 -12 15 -20 -35 -37 -28 -21
-7 -14 17 -19 -36 -37 -27 -21
-7 -10 23 -14 -28 -26 -10 -7
-6 -10 21 -18 -36 -38 -26 -19
-6 -21 23 -19 -42 -45 -39 -29
-6 -20 24 -16 -36 -38 -25 -18
-6 -16 22 -20 -38 -41 -30 -21
-2 -17 22 -24 -46 -51 -46 -34
-3 -20 26 -21 -38 -40 -31 -22
-9 -13 27 -18 -32 -32 -18 -11
-9 -12 26 -20 -36 -37 -28 -19
-6 -10 28 -17 -34 -35 -26 -16
-4 -3 32 -10 -23 -23 -10 -2
-9 -6 28 -13 -32 -34 -24 -14
-8 -15 28 -16 -39 -43 -38 -25
-5 -10 28 -12 -31 -34 -23 -13
-6 -10 24 -15 -33 -37 -27 -17
-4 -14 21 -20 -42 -47 -43 -30
-4 -11 24 -14 -32 -35 -26 -16
-6 0 22 -12 -25 -28 -14 -7
-5 1 19 -14 -31 -34 -26 -17
-4 0 20 -12 -29 -31 -22 -14
-6 5 20 -6 -20 -22 -7 -2
-7 3 17 -10 -26 -30 -20 -11
-8 -7 19 -10 -31 -36 -30 -19
-8 -3 19 -7 -24 -29 -18 -9
-6 4 17 -10 -25 -30 -20 -9
-6 2 12 -16 -34 -40 -36 -22
-1 11 12 -13 -25 -28 -20 -7
-3 24 10 -11 -18 -21 -7 3
-5 20 6 -16 -26 -30 -20 -9
-7 13 2 -19 -29 -30 -19 -8
-10 12 -1 -18 -23 -24 -6 2
-12 9 -3 -21 -30 -34 -20 -9
-7 0 -1 -22 -36 -40 -28 -16
-4 3 -3 -20 -31 -33 -17 -5
0 9 -6 -22 -33 -35 -20 -9
2 2 -10 -30 -43 -47 -36 -22
2 3 -8 -25 -35 -36 -22 -11
4 14 -10 -22 -29 -29 -12 -2
0 8 -13 -26 -37 -37 -25 -14
-2 1 -11 -26 -37 -37 -25 -14
-2 5 -7 -20 -28 -25 -9 -1
-5 1 -8 -24 -37 -36 -23 -15
-6 -13 -3 -23 -40 -40 -31 -21
-7 -13 0 -20 -36 -34 -20 -11
-9 -10 -1 -23 -37 -37 -24 -16
-7 -13 0 -27 -44 -47 -38 -28
-9 -15 1 -25 -39 -40 -27 -18
-9 -4 0 -24 -35 -34 -18 -11
-11 -8 -2 -28 -41 -42 -30 -21
-12 -15 -2 -29 -43 -42 -31 -23
-16 -15 -1 -24 -36 -34 -16 -11
-19 -21 -2 -31 -46 -46 -33 -23
-15 -32 1 -32 -52 -52 -44 -31
-11 -29 2 -29 -47 -44 -29 -19
-13 -30 -3 -33 -50 -48 -34 -24
-13 -35 -6 -40 -59 -60 -50 -38
-10 -33 -3 -35 -50 -48 -34 -26
-14 -23 -5 -34 -45 -43 -24 -18
-15 -25 -6 -37 -51 -50 -36 -29
-13 -29 -3 -34 -51 -48 -34 -27
-14 -24 -3 -31 -44 -40 -22 -16
-16 -27 -3 -34 -51 -50 -35 -28
-17 -41 0 -36 -56 -57 -46 -37
-12 -35 4 -31 -50 -47 -33 -25
-13 -34 3 -33 -51 -49 -35 -27
-15 -41 0 -40 -61 -61 -52 -41
-13 -39 1 -36 -52 -49 -36 -27
-14 -27 0 -35 -46 -44 -25 -20
-15 -27 -1 -38 -52 -51 -38 -30
-14 -31 -1 -35 -51 -49 -35 -28
-17 -31 0 -30 -45 -41 -22 -18
-18 -34 1 -31 -51 -50 -36 -29
-16 -47 8 -24 -54 -54 -46 -37
-13 -47 13 -11 -46 -47 -34 -28
-12 -40 20 2 -42 -46 -37 -32
-14 -40 29 15 -43 -53 -51 -45
-11 -29 48 49 -17 -32 -28 -28
-6 -5 72 94 20 -4 -3 -12
2 7 101 148 60 24 11 -6
15 18 129 200 110 67 46 14
20 28 144 245 160 115 91 46
28 43 147 267 192 148 111 58
37 57 146 271 224 189 142 78
44 82 117 241 245 234 191 116
58 110 72 187 258 276 229 147
76 127 19 126 263 316 262 171
86 149 -47 42 274 371 321 217
88 187 -120 -57 268 413 367 253
78 212 -172 -163 239 423 376 266
57 234 -215 -282 200 418 379 276
40 260 -255 -388 174 423 392 295
25 253 -298 -482 123 403 371 280
16 221 -329 -543 72 372 341 257
2 180 -337 -576 26 326 307 235
-8 123 -344 -602 -50 240 235 181
-12 69 -348 -593 -103 157 156 124
-16 25 -336 -558 -134 99 114 96
-27 -12 -318 -533 -188 15 51 53
-40 -58 -291 -517 -267 -106 -54 -17
-46 -93 -266 -491 -325 -200 -132 -65
-44 -100 -240 -451 -326 -214 -137 -67
-41 -102 -219 -407 -304 -205 -144 -79
-37 -116 -190 -360 -278 -189 -141 -84
-34 -109 -155 -307 -239 -164 -118 -70
-34 -102 -124 -258 -208 -147 -109 -69
-32 -101 -93 -216 -186 -139 -116 -79
-27 -87 -61 -171 -148 -111 -86 -59
-26 -67 -42 -137 -121 -92 -68 -45
-26 -65 -32 -117 -111 -91 -74 -53
-22 -61 -16 -92 -92 -77 -63 -45
-17 -44 1 -67 -65 -55 -39 -27
-15 -41 11 -55 -62 -57 -49 -36
-15 -50 15 -47 -61 -59 -54 -41
-14 -47 19 -38 -54 -50 -39 -29
-14 -40 23 -32 -51 -49 -40 -29
-14 -45 23 -31 -60 -61 -58 -45
-11 -40 27 -21 -49 -49 -41 -30
-13 -28 29 -15 -40 -41 -31 -24
-15 -36 27 -14 -44 -50 -44 -38
-12 -39 30 -8 -39 -47 -41 -33
-10 -31 32 -3 -29 -36 -25 -20
-11 -30 29 -5 -36 -44 -41 -33
-9 -41 31 -5 -40 -47 -46 -38
-9 -37 32 -1 -33 -39 -31 -25
-7 -30 30 -3 -36 -41 -35 -27
-6 -35 30 -5 -45 -51 -49 -39
-7 -37 34 4 -35 -40 -31 -23
-9 -27 32 6 -27 -34 -24 -18
-11 -30 30 4 -34 -42 -37 -30
-10 -33 31 7 -30 -39 -35 -29
-8 -27 32 13 -19 -28 -19 -16
-9 -30 29 8 -26 -36 -32 -27
-7 -38 32 9 -29 -39 -38 -31
-6 -34 32 11 -23 -30 -24 -20
-7 -29 29 9 -26 -33 -28 -23
-5 -33 30 6 -35 -42 -42 -35
-8 -33 31 14 -26 -30 -24 -21
-9 -22 29 14 -21 -25 -18 -17
-8 -23 28 14 -23 -31 -29 -28
-8 -25 29 18 -20 -29 -27 -26
-4 -17 31 24 -8 -16 -9 -11
-5 -19 28 19 -15 -26 -24 -22
-6 -34 26 18 -19 -32 -33 -30
-5 -30 27 23 -11 -21 -18 -17
-4 -24 25 20 -14 -23 -21 -20
-6 -29 26 21 -19 -29 -32 -31
-4 -26 29 29 -8 -16 -14 -14
-7 -16 26 29 -4 -13 -8 -11
-7 -19 25 29 -6 -19 -21 -22
-7 -23 26 34 -1 -15 -17 -18
-6 -14 28 40 9 -4 -2 -7
-1 -11 29 39 6 -10 -15 -17
-3 -26 28 38 1 -15 -23 -23
-4 -23 29 42 8 -7 -11 -11
-3 -16 28 43 8 -7 -12 -13
-1 -21 30 42 2 -14 -25 -25
1 -17 35 52 16 1 -4 -8
-2 -6 34 57 25 7 3 -1
-1 -8 34 58 22 2 -8 -13
3 -8 40 65 30 9 -2 -7
4 0 43 76 45 24 17 9
3 -1 41 73 39 15 3 -5
5 -10 45 76 37 13 -2 -9
4 -7 46 83 45 22 11 2
5 -3 49 86 47 23 11 2
6 -5 49 87 43 18 -2 -10
8 -1 55 101 60 35 20 8
9 13 56 108 70 45 31 14
8 10 56 112 69 41 20 4
8 8 62 121 79 48 27 9
9 13 66 133 96 65 49 26
8 12 65 134 93 58 35 13
10 5 68 136 92 57 30 8
10 11 69 142 102 67 44 20
8 18 70 144 103 67 42 18
10 15 71 146 97 61 30 8
13 20 77 156 112 80 51 24
14 33 77 161 118 85 58 28
17 34 81 165 119 83 50 20
17 33 84 169 124 86 53 23
14 39 87 176 135 98 71 37
13 37 86 172 128 89 57 24
14 28 89 171 124 85 51 20
16 34 89 173 128 93 63 31
17 39 90 171 126 89 58 27
18 33 92 169 116 79 43 17
18 35 97 173 127 91 61 33
16 46 95 173 128 93 64 35
14 41 98 170 123 86 51 24
11 38 98 169 122 86 53 26
10 42 101 172 129 94 68 38
7 42 100 167 120 83 53 25
12 35 101 163 115 77 46 21
12 36 99 161 114 80 55 29
10 41 97 155 109 76 50 25
8 32 95 148 97 64 32 13
11 35 99 152 104 73 49 28
13 48 98 151 106 76 53 31
10 43 97 145 98 67 38 18
9 37 95 144 98 66 40 20
8 42 93 143 104 73 53 31
8 41 92 133 91 61 35 16
8 30 92 126 83 55 29 12
7 31 88 124 81 57 37 20
8 33 86 116 74 51 32 17
8 26 81 106 60 37 15 3
8 26 81 106 65 44 31 16
5 34 77 99 64 44 33 19
3 27 74 92 52 32 18 6
3 23 73 88 51 33 19 7
1 24 70 86 56 39 30 19
-2 18 64 74 42 22 9 1
-2 6 64 68 34 17 3 -3
0 9 62 62 33 20 12 5
0 11 59 54 24 14 6 1
0 4 57 45 11 1 -9 -13
-2 4 57 46 17 10 6 3
-2 13 53 42 16 12 9 4
-3 9 49 34 6 2 -6 -8
-5 2 46 30 4 0 -5 -8
-6 4 45 29 9 7 8 1
-9 0 43 22 -2 -5 -10 -12
-6 -8 40 15 -10 -15 -19 -20
-5 -5 40 16 -8 -9 -7 -9
-6 -4 36 8 -14 -14 -13 -14
-6 -10 33 2 -24 -25 -29 -26
-5 -8 35 6 -15 -15 -12 -10
-10 -3 32 2 -15 -14 -10 -10
-11 -8 32 -1 -21 -19 -21 -19
-10 -9 31 0 -18 -17 -17 -16
-10 -3 32 4 -9 -8 -2 -4
-8 -5 30 -1 -19 -19 -21 -18
-9 -17 30 -2 -23 -24 -25 -22
-4 -12 31 2 -16 -14 -11 -10
-2 -8 29 -2 -17 -18 -15 -13
-1 -14 26 -6 -28 -28 -31 -27
-1 -11 28 0 -17 -16 -13 -10
-5 1 29 3 -12 -11 -7 -7
0 3 29 2 -15 -16 -17 -16
-3 -1 29 4 -12 -13 -14 -14
-5 5 30 8 -3 -4 0 -2
-3 3 29 3 -12 -14 -18 -15
-5 -10 32 4 -16 -17 -23 -18
-3 -5 32 6 -12 -12 -13 -10
-2 -2 32 5 -12 -13 -15 -12
-4 -10 32 2 -20 -23 -30 -25
-2 -7 35 9 -9 -10 -11 -9
0 6 33 13 -3 -6 -5 -5
0 2 34 12 -7 -11 -15 -14
1 0 33 15 -4 -7 -12 -11
-1 4 33 18 5 3 5 1
-3 0 30 12 -5 -9 -14 -15
-3 -10 32 14 -7 -11 -17 -16
-2 -6 29 14 -4 -7 -9 -7
-5 -4 29 13 -6 -9 -12 -10
-2 -9 28 9 -16 -18 -27 -23
1 -4 32 16 -5 -5 -9 -6
2 8 30 17 -1 -3 -4 -4
1 5 32 15 -4 -8 -13 -13
0 1 32 16 -4 -6 -11 -13
0 5 33 21 6 4 5 1
-3 2 29 14 -4 -9 -13 -15
-1 -6 32 13 -8 -12 -18 -18
1 0 32 16 -4 -5 -6 -7
1 2 31 14 -7 -8 -10 -10
2 -5 30 8 -19 -20 -26 -23
2 -4 32 13 -10 -10 -8 -8
0 4 29 13 -9 -9 -6 -7
-1 0 28 10 -13 -15 -17 -16
-2 -5 29 11 -10 -13 -14 -14
-1 3 30 14 -2 -2 0 -1
-3 -1 26 8 -11 -15 -17 -15
-4 -12 26 4 -17 -20 -23 -19
-2 -7 24 5 -13 -14 -11 -10
0 -2 23 3 -17 -18 -15 -13
3 -8 23 0 -26 -27 -29 -24
3 -7 26 4 -18 -16 -11 -9
1 0 24 3 -17 -16 -11 -8
2 -1 26 0 -20 -23 -22 -18
1 -5 26 1 -20 -20 -19 -15
-2 -2 27 2 -12 -14 -8 -4
-5 -5 22 -5 -24 -27 -27 -21
-3 -14 22 -8 -30 -31 -31 -24
-1 -10 23 -6 -25 -25 -21 -14
3 -3 25 -7 -25 -25 -21 -15
0 -10 23 -10 -35 -36 -36 -27
0 -9 28 -3 -24 -23 -17 -11
-1 -3 24 -7 -25 -25 -17 -12
-4 -9 23 -9 -31 -33 -30 -24
-5 -12 21 -9 -30 -30 -26 -22
-8 -10 22 -7 -20 -23 -12 -9
-5 -9 20 -13 -33 -37 -32 -26
3 -14 23 -12 -34 -35 -33 -25
3 -11 22 -11 -30 -30 -22 -15
1 -10 20 -14 -33 -33 -26 -19
0 -17 18 -18 -43 -43 -40 -32
-1 -16 19 -12 -32 -30 -21 -15
-2 -6 17 -13 -30 -29 -17 -14
-1 -8 15 -16 -36 -37 -30 -25
-1 -10 17 -14 -34 -34 -27 -23
-2 -7 17 -12 -26 -26 -15 -12
-5 -10 14 -19 -37 -40 -35 -27
-3 -17 17 -18 -39 -41 -37 -29
-4 -15 19 -15 -33 -32 -25 -17
-4 -13 17 -19 -36 -36 -29 -19
-1 -18 18 -20 -42 -44 -41 -28
2 -10 23 -11 -30 -30 -20 -11
0 3 23 -11 -29 -29 -18 -12
0 3 24 -12 -31 -34 -28 -20
1 1 25 -9 -27 -30 -22 -15
1 9 26 -6 -19 -22 -9 -4
-2 3 22 -13 -30 -36 -29 -22
-1 -8 23 -15 -33 -39 -34 -24
-2 -4 25 -13 -29 -33 -23 -14
0 0 24 -13 -30 -34 -25 -16
3 -2 23 -18 -38 -42 -39 -28
3 4 26 -12 -27 -29 -20 -11
1 15 26 -9 -24 -26 -16 -10
4 16 27 -8 -23 -28 -23 -15
3 13 29 -5 -19 -24 -17 -9
0 21 28 -2 -11 -16 -4 2
0 22 23 -10 -21 -29 -21 -12
0 16 23 -12 -23 -32 -25 -13
4 24 25 -10 -19 -25 -14 -3
3 22 20 -14 -24 -29 -19 -8
2 9 16 -22 -37 -43 -37 -23
7 15 17 -18 -28 -29 -18 -6
10 27 13 -17 -27 -28 -15 -6
7 25 12 -18 -30 -33 -25 -13
6 21 14 -15 -25 -28 -18 -9
7 25 9 -15 -21 -21 -7 1
7 18 5 -22 -32 -35 -27 -17
7 6 6 -21 -33 -35 -27 -17
4 6 4 -22 -32 -31 -18 -9
4 5 5 -24 -34 -33 -22 -12
9 1 5 -27 -43 -44 -37 -25
10 4 9 -20 -30 -29 -17 -8
10 14 8 -18 -28 -29 -15 -6
8 8 8 -19 -32 -35 -26 -16
7 4 11 -17 -29 -32 -22 -14
4 7 12 -14 -21 -23 -9 -4
1 2 11 -21 -31 -37 -28 -19
1 -6 11 -21 -32 -37 -30 -20
0 -4 11 -22 -31 -33 -20 -13
-2 -7 9 -24 -37 -38 -26 -18
-3 -17 6 -31 -48 -50 -44 -33
-4 -17 7 -28 -39 -40 -26 -18
1 -6 5 -27 -39 -40 -26 -19
-2 -15 4 -28 -44 -46 -36 -28
-3 -20 6 -29 -42 -46 -35 -26
-3 -12 6 -25 -35 -37 -22 -15
-4 -18 2 -34 -46 -51 -42 -32
-5 -27 3 -33 -47 -51 -42 -31
-5 -23 1 -34 -44 -46 -32 -24
-5 -22 0 -37 -48 -49 -37 -26
2 -23 1 -38 -54 -57 -50 -37
0 -22 4 -30 -43 -44 -28 -19
-2 -18 0 -32 -44 -45 -30 -22
-3 -22 2 -32 -46 -49 -40 -30
-5 -26 3 -30 -44 -48 -37 -29
-4 -20 3 -27 -37 -40 -24 -19
-3 -25 2 -32 -47 -50 -44 -35
-2 -31 3 -33 -49 -52 -44 -34
-2 -25 3 -31 -43 -45 -32 -24
-6 -24 2 -33 -45 -46 -35 -26
-3 -29 -2 -38 -56 -58 -52 -41
-1 -26 3 -30 -43 -44 -28 -21
-1 -19 3 -27 -42 -43 -27 -22
-1 -24 5 -23 -44 -47 -39 -31
-1 -26 13 -10 -39 -43 -34 -30
-2 -19 21 7 -25 -32 -20 -20
1 -18 29 20 -29 -42 -40 -37
1 -18 46 47 -13 -33 -34 -32
5 -5 71 91 20 -7 -9 -15
10 8 98 145 61 23 11 -3
19 12 117 192 98 51 26 2
30 28 134 238 154 105 79 40
39 51 137 266 196 148 116 63
44 68 134 272 228 190 146 81
54 91 110 245 249 232 187 113
63 121 68 197 270 283 239 155
77 139 16 137 274 317 266 174
91 154 -50 54 277 364 309 207
95 184 -126 -47 268 405 356 246
87 213 -183 -149 243 420 372 262
69 232 -226 -270 199 407 362 263
50 255 -269 -378 174 415 383 286
36 261 -310 -470 136 407 379 286
24 239 -345 -536 86 379 351 264
10 198 -359 -572 39 332 313 238
-1 146 -361 -594 -24 263 262 203
-9 90 -369 -592 -87 171 174 136
-7 43 -358 -560 -126 106 116 97
-12 1 -340 -530 -176 28 59 59
-27 -45 -319 -515 -255 -92 -40 -7
-36 -87 -298 -499 -327 -205 -142 -74
-34 -99 -271 -460 -333 -226 -148 -76
-28 -94 -252 -415 -305 -209 -141 -77
-25 -99 -223 -364 -274 -189 -136 -80
-26 -103 -190 -314 -240 -168 -121 -74
-26 -93 -156 -258 -198 -138 -95 -58
-24 -86 -124 -214 -177 -134 -104 -71
-18 -80 -95 -173 -150 -114 -92 -65
-16 -68 -75 -140 -125 -96 -72 -50
-13 -60 -64 -118 -111 -91 -71 -52
-12 -59 -52 -97 -100 -88 -78 -59
-9 -47 -37 -73 -72 -64 -48 -35
-10 -35 -28 -58 -63 -58 -44 -35
-8 -37 -21 -46 -57 -57 -49 -40
-9 -37 -15 -35 -49 -48 -40 -32
-9 -31 -11 -27 -41 -39 -24 -20
-4 -28 -9 -25 -49 -51 -46 -37
-3 -36 -2 -16 -46 -48 -41 -32
-4 -33 -2 -12 -41 -42 -32 -24
-3 -30 -3 -11 -43 -46 -39 -30
-1 -37 -5 -13 -50 -57 -56 -43
0 -29 -1 -4 -34 -39 -31 -24
-1 -21 -4 -4 -32 -41 -33 -26
-2 -28 -5 -6 -35 -45 -42 -36
-3 -30 -2 -2 -30 -39 -35 -30
-3 -22 -1 3 -23 -30 -21 -18
-5 -27 -4 -2 -36 -45 -43 -37
-4 -35 1 4 -33 -42 -39 -32
-4 -33 -1 4 -31 -38 -30 -25
-3 -29 0 4 -34 -42 -38 -29
-4 -37 -1 2 -39 -51 -52 -41
0 -30 0 9 -25 -34 -30 -24
1 -19 -3 8 -24 -34 -29 -24
-1 -26 -5 7 -28 -38 -39 -33
-4 -28 -5 9 -25 -34 -32 -28
-3 -18 -6 12 -18 -24 -18 -16
-2 -21 -7 9 -29 -37 -38 -33
-1 -30 -3 14 -26 -34 -35 -30
-4 -29 -5 16 -21 -29 -25 -21
-5 -29 -6 15 -23 -33 -30 -26
3 -28 -6 15 -28 -39 -42 -35
6 -21 -4 22 -12 -20 -18 -17
2 -17 -8 19 -11 -23 -20 -19
1 -23 -8 20 -15 -26 -29 -27
-3 -25 -8 21 -11 -22 -23 -23
-4 -15 -10 24 -4 -14 -11 -14
-1 -18 -11 22 -15 -25 -31 -30
1 -24 -6 26 -13 -24 -29 -27
1 -19 -5 30 -4 -16 -16 -16
0 -20 -6 31 -6 -19 -21 -20
4 -25 -5 30 -8 -25 -33 -30
9 -13 -2 39 8 -8 -8 -9
6 -7 -6 38 10 -7 -8 -11
7 -10 -5 39 9 -10 -17 -18
5 -13 -4 42 12 -5 -10 -12
4 -5 -2 48 20 5 3 -1
7 -5 -2 47 11 -7 -17 -19
7 -15 1 50 12 -5 -14 -16
5 -12 2 55 19 2 -4 -8
7 -10 3 58 20 2 -7 -11
10 -15 3 59 19 -2 -18 -20
14 -3 8 70 38 16 9 1
11 4 5 72 40 18 8 -2
9 1 3 74 39 13 -1 -10
11 1 8 81 48 23 8 -2
9 9 9 88 56 34 23 9
8 4 9 87 48 22 3 -9
7 -6 14 95 53 26 7 -4
8 1 16 103 63 34 18 4
15 9 17 109 66 34 16 1
15 4 19 112 66 33 7 -7
16 11 25 125 87 54 33 15
15 22 22 130 91 56 36 13
15 18 25 133 93 57 31 8
15 19 30 140 102 65 40 15
16 29 33 149 114 78 57 29
14 25 32 146 104 65 37 12
17 19 39 155 110 71 42 17
19 25 40 159 117 80 53 25
18 26 42 159 115 76 46 19
18 19 45 161 115 71 36 11
19 27 48 169 130 88 60 30
19 39 46 168 131 88 59 28
18 35 47 168 127 83 50 20
14 34 48 169 129 88 56 26
14 43 49 171 132 95 68 36
16 41 50 167 121 80 48 19
18 37 54 168 120 81 49 22
17 40 57 168 123 85 59 32
17 38 55 167 118 80 50 26
17 32 55 162 112 70 36 15
18 37 56 166 125 84 58 33
15 44 53 162 121 79 52 28
13 40 52 158 114 73 42 18
12 37 52 155 114 74 46 23
10 44 51 157 119 81 58 33
8 39 50 149 103 64 35 15
10 33 51 146 100 63 35 17
8 35 51 144 101 65 42 25
6 32 47 139 93 55 33 17
5 22 45 132 85 44 17 4
10 30 46 136 96 56 39 23
14 40 43 128 91 54 35 19
8 31 40 123 84 46 24 9
2 27 37 120 82 47 29 14
5 37 34 116 83 51 38 22
10 35 32 108 68 35 17 5
11 24 31 105 64 35 20 9
8 23 27 100 62 37 25 15
5 22 21 92 53 29 17 7
4 12 16 84 43 17 3 -4
3 16 13 83 51 29 23 14
1 19 6 72 44 23 16 6
-1 11 3 66 35 14 4 -3
-1 7 0 62 32 13 6 0
-3 14 -2 59 33 17 17 8
-4 6 -7 48 16 -1 -9 -12
-2 -2 -6 45 14 -1 -5 -9
-2 1 -9 41 12 -1 1 -2
-2 1 -14 33 4 -9 -8 -10
-3 -9 -16 27 -3 -18 -20 -19
-5 -7 -19 27 5 -6 0 -2
-8 -2 -26 18 -1 -12 -7 -10
-6 -5 -27 15 -7 -18 -16 -16
-6 -6 -27 13 -7 -17 -14 -13
-6 1 -29 13 -3 -10 -3 -3
-9 -6 -35 3 -20 -28 -28 -23
-7 -14 -33 3 -20 -28 -26 -20
-7 -11 -36 3 -18 -24 -17 -13
-10 -11 -40 -2 -25 -32 -25 -21
-8 -17 -39 -6 -29 -39 -36 -30
-1 -9 -37 1 -14 -22 -11 -8
-4 -4 -40 -3 -15 -25 -16 -13
-5 -8 -44 -6 -21 -30 -26 -22
-7 -10 -42 -4 -18 -27 -20 -17
-7 -2 -42 -2 -12 -19 -8 -8
-8 -8 -46 -9 -26 -35 -31 -27
-9 -16 -44 -6 -24 -31 -27 -23
-7 -11 -43 -3 -20 -27 -18 -15
-6 -13 -45 -4 -22 -30 -24 -19
-5 -21 -45 -5 -26 -36 -35 -27
-3 -15 -43 3 -11 -18 -9 -7
-3 -7 -47 -2 -13 -22 -15 -13
-4 -10 -47 -1 -16 -25 -23 -21
-8 -11 -45 1 -12 -20 -14 -13
-9 -6 -48 5 -7 -13 -4 -5
-8 -10 -50 -1 -20 -27 -26 -24
-8 -17 -47 4 -17 -23 -21 -18
-6 -11 -47 5 -13 -19 -13 -12
-3 -7 -48 5 -14 -22 -18 -17
-3 -16 -49 3 -19 -29 -30 -26
-1 -7 -47 11 -4 -11 -6 -5
-1 1 -49 8 -4 -13 -9 -8
-3 -4 -51 6 -9 -19 -19 -18
0 -4 -48 9 -5 -15 -13 -12
-3 2 -48 13 1 -6 0 -1
-4 -5 -48 8 -13 -22 -23 -20
-2 -9 -44 11 -11 -18 -19 -15
-1 -6 -43 11 -9 -15 -11 -9
1 -3 -41 10 -13 -20 -19 -15
2 -12 -38 8 -17 -26 -29 -23
2 -6 -33 14 -4 -11 -5 -4
3 4 -33 12 -6 -14 -11 -9
0 -3 -28 11 -8 -18 -19 -16
1 -6 -26 11 -8 -15 -13 -12
-1 2 -23 13 -2 -7 -2 -2
-1 -4 -22 9 -16 -23 -24 -20
1 -11 -17 11 -13 -20 -19 -14
-2 -9 -15 9 -13 -18 -12 -8
-4 -10 -17 6 -18 -24 -21 -16
-3 -17 -19 4 -23 -31 -31 -25
-2 -10 -15 9 -10 -15 -8 -5
-1 -2 -16 4 -14 -19 -15 -13
2 0 -13 4 -15 -23 -23 -18
2 -1 -13 5 -13 -19 -16 -13
1 6 -12 5 -9 -14 -5 -4
-2 -6 -15 -1 -24 -30 -29 -23
-4 -14 -10 1 -22 -28 -24 -17
-2 -11 -7 1 -20 -23 -15 -10
-4 -13 -5 -2 -25 -29 -22 -16
-7 -24 -5 -6 -32 -37 -36 -27
-6 -18 -2 -1 -18 -22 -12 -6
-7 -11 -7 -6 -22 -27 -19 -14
-6 -14 -10 -8 -26 -32 -29 -22
-4 -15 -8 -7 -23 -27 -22 -15
1 -1 -6 -4 -18 -20 -10 -6
5 -3 -9 -10 -31 -35 -33 -25
1 -12 -8 -10 -33 -35 -29 -20
-3 -11 -7 -10 -30 -31 -22 -13
-2 -11 -8 -12 -35 -37 -27 -19
1 -19 -6 -14 -39 -42 -38 -26
3 -12 -2 -8 -26 -27 -15 -7
-2 -9 -7 -13 -30 -32 -22 -15
-4 -13 -8 -17 -35 -40 -32 -24
-4 -13 -8 -17 -33 -37 -30 -21
-6 -8 -7 -15 -28 -32 -19 -12
-5 -15 -7 -21 -41 -45 -42 -31
-4 -20 -4 -18 -39 -42 -37 -24
-5 -18 -5 -18 -37 -38 -29 -18
-3 -15 -5 -19 -39 -41 -33 -22
-1 -22 -3 -20 -41 -45 -43 -27
-1 -14 -3 -15 -31 -31 -21 -10
-3 -8 -6 -18 -34 -35 -27 -15
-5 -14 -7 -20 -38 -41 -37 -24
-5 -14 -6 -18 -35 -36 -31 -18
-3 -3 -5 -14 -29 -28 -19 -8
-6 -11 -8 -20 -41 -45 -43 -27
-6 -15 -3 -15 -38 -40 -36 -21
-5 -10 -3 -13 -33 -35 -28 -14
-3 -6 -3 -14 -35 -38 -32 -18
-1 -12 -2 -16 -41 -44 -42 -27
-2 -6 1 -11 -27 -28 -18 -7
-2 1 -2 -14 -30 -33 -26 -14
-4 -3 -2 -15 -32 -35 -31 -19
-5 -4 0 -14 -28 -30 -25 -13
-4 7 1 -9 -22 -22 -14 -3
-6 -3 -4 -14 -34 -36 -36 -22
-6 -9 -4 -12 -33 -33 -32 -17
-5 -2 -4 -9 -27 -27 -23 -7
-5 1 -6 -11 -29 -31 -28 -11
0 3 -7 -12 -32 -35 -36 -17
0 15 -8 -9 -18 -18 -12 5
-1 24 -12 -13 -21 -23 -18 -2
-1 21 -14 -15 -24 -27 -25 -8
-1 16 -13 -15 -24 -24 -20 -3
0 21 -17 -18 -23 -20 -12 2
-1 12 -23 -26 -40 -38 -38 -18
1 6 -22 -25 -37 -35 -33 -12
2 13 -23 -22 -34 -29 -24 -5
1 12 -23 -23 -36 -32 -28 -8
3 1 -23 -27 -43 -40 -40 -19
5 6 -20 -21 -30 -25 -16 0
5 11 -19 -23 -32 -28 -22 -7
5 6 -17 -24 -35 -33 -30 -12
5 3 -15 -23 -34 -30 -24 -7
2 6 -16 -22 -31 -25 -15 1
-1 -4 -16 -27 -43 -40 -37 -18
-1 -12 -12 -24 -40 -36 -31 -12
-1 -9 -10 -22 -38 -33 -26 -8
0 -8 -9 -23 -39 -37 -32 -14
0 -16 -11 -26 -44 -45 -44 -23
-3 -9 -8 -21 -32 -31 -23 -6
-5 -3 -10 -24 -36 -36 -30 -13
-4 -9 -10 -27 -39 -42 -38 -20
-2 -9 -7 -24 -37 -37 -31 -15
-5 -7 -8 -24 -34 -32 -23 -8
-7 -17 -12 -33 -50 -50 -48 -29
-5 -24 -12 -33 -50 -48 -42 -23
-7 -24 -12 -34 -49 -44 -35 -18
-8 -25 -15 -36 -53 -51 -44 -24
-4 -32 -14 -37 -57 -57 -52 -32
-8 -31 -15 -34 -46 -44 -33 -14
-7 -22 -18 -37 -49 -49 -41 -22
-7 -25 -17 -37 -51 -52 -48 -29
-5 -23 -16 -35 -48 -47 -41 -23
-6 -20 -15 -33 -43 -41 -31 -14
-8 -28 -18 -39 -57 -58 -54 -33
-6 -33 -16 -37 -55 -53 -48 -27
-6 -29 -14 -35 -52 -48 -39 -19
-7 -29 -17 -37 -56 -54 -47 -26
-6 -36 -17 -39 -61 -59 -56 -35
-7 -30 -14 -34 -47 -45 -33 -16
-10 -25 -17 -38 -51 -52 -43 -24
-11 -32 -17 -39 -53 -54 -50 -30
-13 -36 -16 -37 -50 -50 -44 -26
-14 -31 -14 -35 -46 -44 -36 -19
-8 -32 -11 -38 -57 -57 -57 -35
-6 -39 -7 -33 -54 -52 -49 -28
-2 -33 -2 -24 -49 -46 -40 -22
-2 -31 5 -13 -47 -48 -44 -27
-3 -38 14 0 -45 -51 -51 -35
-2 -26 28 25 -22 -33 -28 -16
-1 -12 42 52 -9 -29 -31 -21
3 -4 70 97 21 -10 -23 -19
7 6 99 152 67 27 7 -1
12 19 120 201 119 74 45 24
22 21 134 235 151 100 59 28
34 35 142 264 193 148 103 61
44 64 138 269 231 198 150 95
54 91 111 235 247 238 185 120
66 108 70 182 258 277 219 148
80 134 24 133 286 343 291 203
87 163 -52 40 281 380 323 226
89 186 -121 -62 263 408 351 248
84 218 -166 -161 243 428 377 273
62 250 -210 -279 206 425 386 290
41 259 -258 -401 154 400 358 274
31 246 -294 -488 114 395 360 280
17 226 -323 -547 70 371 346 272
5 184 -335 -585 12 310 290 231
-1 122 -335 -605 -62 224 217 178
-3 84 -333 -580 -93 169 178 154
-11 44 -327 -556 -137 94 109 103
-23 -13 -308 -535 -202 -4 28 44
-35 -59 -284 -517 -276 -118 -64 -14
-46 -86 -260 -487 -324 -204 -130 -53
-45 -109 -241 -459 -344 -242 -173 -89
-36 -116 -213 -407 -309 -213 -152 -78
-32 -110 -185 -358 -274 -188 -133 -69
-32 -108 -157 -313 -247 -174 -130 -74
-28 -110 -120 -262 -216 -159 -128 -77
-25 -92 -84 -208 -170 -124 -90 -51
-22 -75 -61 -170 -146 -110 -87 -53
-20 -71 -40 -140 -126 -100 -83 -52
-19 -66 -25 -112 -105 -86 -69 -44
-17 -52 -15 -91 -84 -72 -53 -33
-17 -54 -3 -79 -83 -79 -73 -50
-16 -58 9 -60 -69 -67 -59 -38
-13 -50 16 -49 -60 -58 -48 -30
-10 -47 18 -43 -59 -59 -51 -35
-10 -51 24 -36 -60 -63 -60 -40
-11 -41 31 -20 -41 -41 -30 -16
-12 -35 27 -21 -45 -49 -42 -27
-10 -38 30 -17 -45 -52 -49 -33
-10 -40 31 -12 -40 -47 -41 -28
-11 -34 31 -7 -33 -40 -33 -22
-9 -40 30 -12 -44 -56 -55 -40
-7 -44 33 -7 -36 -47 -43 -30
-7 -38 32 -6 -35 -43 -37 -24
-7 -35 30 -6 -38 -47 -43 -28
-9 -43 30 -8 -42 -53 -53 -36
-8 -35 34 1 -27 -35 -27 -14
-6 -29 30 1 -30 -40 -36 -23
-3 -31 32 2 -31 -41 -42 -28
-6 -35 32 6 -26 -37 -35 -23
-9 -29 30 9 -20 -31 -27 -17
-5 -34 28 2 -31 -46 -51 -37
-2 -38 31 8 -24 -35 -36 -24
-5 -35 30 7 -23 -32 -29 -19
-3 -29 26 4 -27 -37 -36 -24
-2 -35 26 3 -31 -41 -45 -30
-4 -28 28 11 -18 -26 -20 -11
-6 -25 26 11 -21 -32 -30 -19
-7 -30 27 11 -23 -35 -37 -26
-5 -29 29 15 -18 -31 -30 -21
-5 -23 29 18 -10 -24 -21 -15
-8 -34 28 10 -24 -39 -46 -35
-7 -37 31 15 -17 -31 -34 -23
-6 -31 31 17 -14 -26 -25 -16
-3 -29 31 18 -13 -27 -29 -20
-3 -36 31 17 -16 -30 -36 -24
-4 -28 34 25 -4 -15 -12 -5
-6 -22 31 24 -5 -20 -22 -16
-6 -25 32 24 -7 -23 -29 -22
-3 -23 34 29 -1 -17 -23 -17
-2 -14 38 36 8 -8 -12 -10
-1 -23 35 29 -2 -22 -35 -27
0 -27 38 33 5 -14 -23 -16
0 -21 38 38 10 -7 -14 -8
-2 -21 35 37 6 -11 -19 -15
-1 -26 38 38 4 -13 -25 -18
0 -16 42 49 20 6 4 4
-2 -12 41 49 20 1 -7 -6
1 -14 46 53 21 0 -11 -10
2 -15 48 58 28 6 -4 -4
0 -11 48 62 35 13 4 1
2 -17 46 61 27 -1 -18 -17
0 -22 51 68 36 10 -6 -5
2 -12 52 75 45 19 6 3
6 -7 51 77 46 19 4 0
6 -13 55 80 44 16 -2 -5
7 -1 57 93 62 37 25 16
7 5 58 96 63 34 18 9
8 2 63 103 68 36 15 5
7 0 66 112 78 43 23 11
6 6 66 117 86 50 32 17
8 3 65 117 80 40 12 -1
10 -1 69 123 89 51 27 11
13 9 71 132 98 60 37 19
13 12 72 135 101 60 34 15
13 6 76 138 101 60 29 13
13 17 81 151 118 80 58 35
11 24 79 153 117 76 49 27
10 18 84 155 118 74 44 21
12 21 90 163 128 83 54 30
14 32 92 166 133 89 63 36
15 26 91 161 123 74 38 16
16 22 95 166 130 82 51 25
13 25 96 167 132 86 57 31
15 29 96 164 127 82 50 25
18 29 100 163 124 78 43 21
18 39 104 172 137 94 68 42
19 45 105 170 134 89 59 34
17 39 105 168 129 84 52 27
13 36 108 169 132 86 57 33
12 42 107 169 133 88 65 37
8 31 104 159 118 71 39 16
10 27 107 159 121 75 48 26
12 34 107 158 122 78 54 32
9 33 103 151 113 70 44 24
10 27 105 147 107 64 35 19
10 35 106 152 117 79 59 39
8 40 104 148 111 69 46 27
9 37 105 145 107 64 39 22
8 35 103 144 107 66 42 26
6 39 100 141 109 67 47 30
6 30 95 129 92 50 23 9
3 23 97 129 95 57 35 21
5 28 92 125 92 56 38 25
2 26 86 116 81 47 28 17
0 15 84 107 72 37 16 8
-1 21 83 109 80 50 39 27
-3 23 77 104 72 40 26 16
0 20 74 99 66 34 18 8
-2 15 71 95 65 34 20 12
-3 16 68 90 62 34 25 15
-1 10 61 77 46 17 -1 -4
-1 5 61 74 47 20 8 5
-2 7 55 68 43 19 12 8
-3 5 50 60 34 11 3 1
-3 -4 47 52 24 3 -9 -6
-2 5 47 54 34 16 15 13
-4 7 42 46 25 5 1 0
-8 -1 38 39 16 -3 -10 -10
-9 -6 36 36 16 -2 -6 -6
-11 -4 34 33 17 0 -1 -2
-11 -14 31 22 2 -17 -26 -22
-6 -15 33 23 5 -10 -14 -9
-8 -12 27 18 1 -10 -10 -7
-14 -16 23 10 -6 -18 -19 -13
-9 -19 23 7 -12 -22 -25 -17
-6 -7 27 13 0 -6 0 3
-6 -4 23 8 -7 -16 -13 -8
-11 -12 22 3 -13 -23 -23 -16
-12 -15 23 4 -10 -20 -18 -12
-12 -10 22 7 -6 -16 -11 -6
-11 -18 18 -4 -20 -34 -36 -26
-8 -20 22 -2 -14 -25 -23 -14
-10 -17 19 -1 -11 -21 -15 -9
-11 -19 18 -5 -17 -25 -24 -15
-10 -24 18 -6 -21 -29 -30 -20
-9 -16 20 1 -8 -13 -4 2
-13 -14 18 -1 -13 -20 -16 -10
-12 -16 18 -2 -17 -24 -24 -16
-12 -15 18 0 -14 -21 -19 -13
-11 -8 19 4 -8 -15 -12 -6
-10 -16 18 0 -18 -29 -33 -24
-9 -18 20 1 -15 -23 -24 -15
-9 -13 19 2 -12 -19 -18 -11
-10 -13 21 1 -14 -22 -22 -15
-8 -17 21 0 -18 -27 -28 -21
-4 -6 25 11 -3 -7 1 3
-9 -6 24 9 -7 -14 -11 -8
-8 -8 24 8 -9 -18 -17 -14
-8 -11 26 10 -4 -15 -13 -10
-8 -5 25 12 -1 -11 -7 -6
-11 -13 24 8 -11 -24 -28 -22
-11 -17 27 11 -6 -15 -17 -13
-8 -10 26 12 -4 -12 -13 -8
-6 -6 27 9 -8 -17 -19 -13
-5 -13 28 9 -11 -20 -23 -17
-3 -3 32 18 3 -2 3 4
-5 -2 31 17 -3 -10 -9 -7
-9 -9 31 16 -6 -15 -16 -12
-9 -11 32 19 0 -9 -7 -5
-7 -4 34 21 6 -3 1 1
-7 -14 30 14 -8 -19 -23 -19
-5 -17 32 17 -4 -14 -12 -9
-7 -13 31 15 -4 -12 -10 -6
-6 -10 31 12 -10 -19 -18 -13
-6 -16 31 11 -13 -21 -23 -17
-6 -7 33 17 0 -5 1 4
-4 0 32 14 -6 -13 -10 -6
-6 -6 32 13 -8 -17 -16 -12
-6 -7 33 15 -4 -12 -9 -6
-7 -5 33 16 0 -8 -3 -1
-9 -17 29 8 -15 -25 -29 -21
-6 -18 31 11 -9 -18 -17 -10
-6 -13 28 8 -10 -16 -12 -7
-7 -15 26 4 -17 -23 -20 -15
-7 -24 26 4 -20 -26 -25 -18
-7 -16 26 8 -9 -12 -3 1
-11 -10 24 5 -16 -22 -17 -11
-6 -10 25 5 -17 -26 -22 -16
-8 -13 27 6 -12 -20 -15 -9
-10 -9 24 5 -12 -18 -12 -7
-11 -19 21 -1 -24 -33 -34 -26
-9 -23 23 1 -18 -27 -23 -15
-8 -19 21 0 -18 -25 -19 -10
-7 -18 18 -6 -27 -33 -29 -20
-4 -22 18 -6 -30 -36 -33 -22
-3 -10 21 2 -16 -17 -7 -1
-7 -8 18 -2 -23 -27 -20 -14
-6 -12 17 -2 -25 -31 -26 -19
-8 -17 18 -1 -21 -24 -20 -12
-8 -13 17 -1 -19 -22 -14 -9
-7 -20 14 -8 -30 -36 -37 -29
-8 -25 16 -6 -27 -30 -26 -17
-7 -18 12 -8 -27 -28 -22 -14
-8 -21 11 -10 -30 -31 -28 -19
-9 -29 11 -12 -36 -36 -35 -23
-8 -20 13 -5 -23 -22 -11 -4
-9 -16 10 -9 -29 -30 -23 -16
-9 -21 10 -10 -32 -34 -31 -21
-8 -20 11 -7 -27 -28 -23 -14
-11 -16 10 -7 -25 -27 -19 -12
-10 -23 8 -14 -37 -41 -41 -30
-11 -27 11 -12 -32 -33 -29 -18
-10 -22 10 -11 -31 -29 -24 -13
-8 -20 8 -15 -35 -35 -31 -19
-10 -27 11 -16 -39 -37 -34 -21
-10 -15 14 -9 -26 -23 -12 -3
-11 -8 13 -10 -30 -29 -23 -14
-9 -8 15 -8 -29 -31 -29 -18
-9 -6 17 -5 -26 -25 -22 -12
-11 -4 17 -3 -20 -22 -17 -8
-13 -17 13 -11 -34 -38 -42 -29
-7 -17 18 -7 -27 -28 -26 -15
-6 -10 19 -7 -25 -25 -21 -11
-7 -8 18 -8 -29 -30 -29 -17
-4 -8 20 -9 -32 -33 -32 -19
-5 2 21 -4 -19 -18 -8 0
-8 5 16 -6 -25 -27 -22 -11
-11 -4 16 -6 -26 -28 -27 -15
-12 -3 18 -4 -20 -23 -18 -8
-8 9 18 0 -13 -16 -12 -2
-7 4 13 -7 -26 -31 -35 -21
-8 3 12 -7 -21 -24 -23 -10
-5 14 11 -6 -17 -19 -16 -2
-3 16 10 -7 -23 -22 -21 -7
-4 10 8 -11 -27 -27 -26 -11
-6 15 7 -9 -18 -15 -4 7
-6 18 2 -14 -26 -24 -18 -5
-2 16 3 -13 -25 -25 -21 -7
1 16 5 -11 -21 -19 -14 -1
-1 17 3 -9 -19 -17 -9 2
-1 5 -1 -17 -32 -33 -33 -17
1 1 -2 -16 -30 -29 -23 -10
2 5 0 -12 -28 -24 -17 -6
0 0 0 -16 -32 -29 -25 -12
3 -7 0 -20 -36 -33 -29 -16
4 1 3 -14 -24 -18 -3 4
0 1 1 -15 -29 -25 -16 -7
-4 -5 2 -13 -29 -27 -21 -11
-7 -5 6 -10 -22 -22 -11 -4
-8 -2 3 -11 -22 -22 -12 -4
-10 -14 2 -18 -35 -37 -35 -24
-12 -19 4 -16 -32 -31 -24 -14
-11 -14 1 -19 -34 -32 -23 -14
-13 -14 2 -20 -37 -36 -31 -20
-9 -21 2 -22 -43 -40 -35 -24
-8 -11 5 -16 -32 -26 -14 -6
-11 -11 2 -20 -38 -34 -27 -18
-11 -17 0 -22 -41 -38 -33 -23
-7 -15 5 -19 -36 -32 -24 -15
-9 -11 4 -19 -34 -30 -19 -12
-8 -22 0 -28 -49 -49 -45 -34
-8 -27 2 -24 -44 -41 -32 -22
-8 -26 1 -25 -42 -40 -28 -19
-8 -26 0 -28 -48 -46 -38 -27
-7 -32 1 -30 -51 -50 -43 -30
-10 -22 3 -23 -40 -35 -21 -11
-10 -19 1 -25 -45 -42 -33 -23
-11 -27 2 -25 -45 -43 -38 -26
-10 -28 5 -22 -40 -38 -30 -20
-10 -21 4 -22 -38 -35 -26 -18
-11 -32 1 -30 -52 -52 -51 -38
-10 -35 5 -26 -45 -43 -37 -27
-10 -32 4 -25 -43 -40 -30 -21
-12 -32 0 -29 -49 -47 -40 -29
-10 -35 1 -31 -51 -49 -43 -32
-12 -28 2 -24 -39 -34 -21 -14
-10 -23 0 -26 -45 -42 -33 -25
-9 -26 4 -23 -45 -42 -36 -28
-9 -30 11 -14 -39 -37 -31 -24
-10 -26 16 -2 -32 -33 -24 -21
-11 -36 21 5 -39 -45 -46 -38
-11 -36 31 23 -28 -37 -35 -29
-9 -21 45 47 -14 -27 -27 -23
-3 -10 70 88 12 -12 -20 -21
10 2 101 142 52 17 -1 -9
19 22 126 201 112 71 52 28
23 32 138 237 148 101 69 33
33 43 144 269 188 140 100 51
41 65 146 286 231 193 147 86
46 89 123 265 255 235 187 114
57 103 82 209 256 262 204 128
71 124 38 161 279 320 265 176
85 149 -25 83 286 370 314 213
90 176 -101 -19 273 405 348 239
85 200 -159 -121 250 425 368 260
68 239 -202 -230 227 440 399 293
45 261 -250 -354 182 422 383 287
31 256 -293 -453 142 412 374 282
26 246 -328 -521 100 398 368 281
9 216 -344 -561 56 359 336 257
-3 146 -351 -597 -29 264 247 191
-6 91 -351 -590 -78 196 195 157
-12 54 -344 -560 -111 131 141 119
-18 8 -332 -536 -169 43 66 63
-27 -43 -310 -518 -245 -67 -25 3
-38 -73 -281 -489 -300 -165 -93 -35
-41 -90 -262 -461 -334 -222 -148 -74
-39 -103 -240 -418 -312 -213 -147 -79
-35 -107 -214 -367 -274 -185 -127 -70
-36 -101 -186 -317 -241 -164 -114 -65
-34 -108 -156 -274 -221 -162 -129 -84
-29 -100 -118 -220 -182 -133 -102 -67
-27 -84 -91 -175 -152 -112 -86 -56
-24 -74 -69 -142 -130 -102 -82 -57
-19 -71 -53 -114 -112 -89 -74 -52
-18 -56 -40 -86 -83 -64 -43 -27
-16 -45 -31 -71 -73 -65 -51 -36
-13 -40 -20 -54 -59 -58 -49 -35
-13 -39 -11 -39 -49 -49 -39 -28
-13 -31 -8 -32 -43 -43 -33 -25
-14 -41 -8 -33 -53 -58 -57 -43
-14 -44 0 -22 -45 -47 -42 -30
-12 -37 3 -14 -40 -43 -36 -24
-13 -37 0 -15 -47 -51 -47 -35
-12 -42 4 -11 -47 -52 -50 -37
-9 -30 9 2 -27 -32 -23 -15
-7 -26 6 3 -30 -40 -36 -28
-6 -30 9 6 -30 -41 -38 -29
-7 -33 10 6 -22 -32 -27 -20
-8 -27 8 7 -20 -31 -24 -20
-8 -35 7 2 -34 -46 -48 -38
-9 -39 9 5 -29 -38 -35 -26
-9 -32 9 10 -28 -35 -31 -23
-8 -33 7 7 -33 -43 -41 -30
-6 -39 8 7 -34 -45 -45 -34
-6 -29 10 17 -19 -27 -19 -14
-7 -27 7 14 -21 -34 -33 -26
-5 -30 8 14 -21 -34 -37 -28
-4 -26 10 21 -13 -26 -23 -19
-6 -22 7 19 -13 -24 -21 -18
-6 -33 7 13 -25 -38 -44 -36
-2 -32 12 19 -19 -28 -25 -20
-2 -28 10 20 -20 -27 -22 -17
-4 -26 12 21 -23 -32 -31 -25
-5 -33 12 23 -22 -33 -33 -26
-2 -22 12 29 -9 -18 -10 -8
-1 -17 8 27 -12 -25 -23 -21
-1 -21 6 26 -11 -27 -27 -24
1 -19 7 31 -2 -17 -14 -14
-2 -14 5 31 0 -13 -11 -12
-3 -24 4 24 -14 -29 -36 -32
0 -27 9 31 -6 -18 -19 -17
-2 -23 9 33 -4 -15 -15 -12
-1 -21 10 33 -9 -21 -24 -21
0 -25 12 34 -8 -22 -26 -21
-1 -17 13 42 8 -5 -3 -3
-1 -14 11 41 5 -12 -18 -17
-3 -19 11 40 7 -13 -19 -19
-6 -20 10 43 13 -6 -12 -11
-8 -14 9 46 16 -4 -8 -10
-4 -19 6 41 4 -18 -31 -27
3 -16 11 51 15 -3 -11 -10
1 -14 10 59 20 3 -4 -5
0 -17 7 56 16 -3 -13 -13
6 -16 8 61 21 0 -12 -11
6 -4 12 74 39 18 13 9
6 -2 7 73 37 11 1 -5
7 -4 9 77 42 14 1 -6
6 -4 9 83 49 23 11 2
3 1 8 86 54 26 15 3
4 -6 7 85 45 15 -6 -14
7 -7 15 96 56 29 14 3
7 -2 16 105 62 36 21 9
5 -4 15 105 60 30 12 -1
10 -3 18 112 64 33 14 0
13 12 23 125 86 55 43 21
11 14 21 128 86 50 31 11
14 14 24 133 92 54 31 10
13 17 28 143 104 67 45 21
14 25 29 149 110 73 50 24
15 18 29 148 102 61 29 6
15 17 34 157 110 74 45 21
16 24 36 162 114 78 51 25
16 25 38 165 114 75 45 20
17 20 42 168 117 77 45 20
17 31 48 179 135 96 71 40
18 36 48 179 133 91 60 29
17 32 49 177 132 88 57 26
18 33 53 183 142 99 70 38
14 40 52 181 141 98 70 36
12 29 51 172 125 81 43 17
12 29 56 178 130 90 59 30
11 35 57 179 131 90 62 34
12 37 55 175 124 81 49 24
17 34 60 175 123 80 49 24
16 45 63 183 137 95 74 43
13 46 59 174 130 85 58 29
11 41 60 171 126 82 54 26
11 40 60 171 129 86 62 34
8 45 57 167 126 84 61 33
7 33 56 157 110 67 36 13
8 33 59 160 112 72 48 25
6 35 58 158 110 74 51 29
6 35 57 151 101 63 38 17
7 28 60 151 99 61 37 17
7 37 60 154 112 75 60 36
5 36 54 145 103 62 42 21
4 33 51 138 98 58 37 17
7 32 50 139 100 62 45 25
3 33 46 133 95 60 44 25
2 24 41 120 79 42 19 6
4 24 39 116 77 46 30 17
3 28 36 113 72 44 31 18
2 25 33 103 60 32 16 7
2 17 31 99 55 27 12 5
3 23 30 101 64 40 35 22
-1 18 23 90 54 25 17 7
-4 9 18 83 50 21 12 3
-3 9 20 82 52 27 23 13
-2 15 14 75 46 22 19 10
-5 3 9 61 27 3 -6 -10
-1 3 11 60 28 9 7 3
-4 4 7 55 24 7 8 4
-6 -3 3 47 13 -4 -6 -8
-4 -8 2 43 9 -7 -10 -9
-3 2 0 45 18 5 10 7
-9 0 -6 35 8 -7 -7 -8
-9 -6 -8 28 3 -13 -13 -15
-7 -4 -7 30 8 -6 -3 -5
-6 1 -10 25 5 -6 -3 -5
-5 -9 -14 16 -11 -23 -27 -23
-4 -10 -12 18 -8 -16 -12 -10
-7 -9 -15 15 -10 -16 -11 -8
-7 -11 -19 6 -21 -28 -25 -21
-6 -18 -20 4 -23 -30 -26 -22
-5 -8 -20 11 -9 -15 -4 -4
-9 -7 -22 5 -15 -25 -20 -17
-14 -13 -23 3 -16 -27 -25 -21
-11 -14 -23 4 -12 -21 -15 -13
-11 -9 -24 2 -12 -21 -15 -14
-10 -18 -25 -2 -24 -34 -36 -31
-6 -17 -22 3 -18 -25 -19 -16
-8 -14 -22 4 -18 -24 -16 -13
-10 -15 -25 1 -24 -31 -27 -23
-8 -18 -24 1 -23 -30 -27 -22
-7 -9 -22 9 -9 -14 -3 -2
-11 -8 -26 5 -12 -22 -16 -15
-8 -11 -26 5 -12 -21 -18 -16
-8 -12 -27 6 -10 -17 -12 -12
-10 -8 -29 8 -9 -17 -11 -12
-8 -15 -29 2 -19 -30 -30 -28
-6 -15 -27 8 -13 -19 -15 -14
-9 -11 -27 10 -11 -17 -13 -10
-10 -13 -30 7 -18 -25 -24 -20
-6 -16 -28 10 -15 -23 -22 -18
-4 -4 -27 17 -1 -6 3 1
-8 -5 -30 14 -6 -16 -13 -12
-7 -6 -31 14 -4 -16 -16 -15
-4 -4 -28 18 2 -7 -5 -5
-5 -1 -29 18 1 -8 -5 -6
-4 -12 -30 14 -11 -21 -26 -22
-7 -15 -29 16 -6 -13 -13 -10
-9 -11 -29 17 -7 -14 -11 -9
-7 -10 -31 13 -14 -22 -24 -20
-5 -14 -28 16 -12 -20 -21 -17
-2 -1 -26 22 3 -4 1 2
-5 -2 -29 19 -3 -12 -12 -10
-7 -8 -30 17 -6 -15 -17 -14
-8 -9 -27 22 1 -7 -4 -4
-9 -6 -29 19 -1 -9 -8 -7
-5 -12 -29 14 -14 -25 -29 -24
-5 -14 -26 16 -9 -16 -15 -11
-8 -13 -27 16 -11 -17 -14 -10
-8 -16 -28 13 -18 -25 -25 -21
-7 -20 -26 13 -18 -25 -24 -20
-6 -7 -25 18 -5 -11 -2 -2
-5 -4 -26 14 -10 -19 -16 -14
-6 -11 -26 13 -11 -20 -19 -16
-9 -9 -23 16 -6 -13 -9 -7
-3 0 -23 14 -6 -13 -8 -6
-5 -14 -25 6 -20 -29 -31 -24
-8 -19 -21 7 -19 -22 -18 -13
-10 -18 -19 7 -20 -22 -16 -11
-5 -16 -19 5 -25 -30 -29 -21
1 -16 -16 7 -22 -27 -25 -18
-3 -8 -16 12 -11 -14 -4 -1
-6 -7 -22 7 -18 -24 -19 -15
-7 -13 -21 5 -21 -25 -23 -19
-9 -11 -20 5 -16 -20 -14 -12
-7 -6 -20 4 -17 -21 -15 -12
-7 -19 -22 -4 -29 -35 -35 -28
-8 -21 -20 0 -26 -28 -23 -16
-9 -17 -22 -2 -28 -29 -21 -15
-7 -19 -22 -7 -35 -39 -36 -26
-4 -21 -20 -6 -34 -38 -35 -24
-4 -11 -19 1 -21 -24 -11 -6
-8 -14 -24 -6 -29 -37 -29 -22
-9 -18 -22 -8 -31 -38 -32 -25
-10 -17 -21 -5 -24 -30 -20 -16
-13 -14 -23 -8 -27 -32 -24 -19
-12 -25 -24 -14 -39 -46 -44 -34
-10 -25 -20 -9 -33 -36 -28 -19
-9 -21 -21 -9 -33 -37 -26 -18
-10 -25 -22 -14 -41 -46 -38 -29
-9 -31 -20 -12 -41 -45 -37 -27
-6 -16 -17 -6 -27 -29 -16 -9
-8 -15 -22 -11 -33 -39 -31 -23
-9 -22 -20 -11 -34 -40 -35 -25
-8 -18 -18 -7 -26 -31 -22 -15
-10 -14 -19 -10 -29 -34 -25 -19
-7 -21 -19 -14 -41 -47 -45 -34
-8 -21 -16 -9 -36 -38 -31 -20
-12 -19 -17 -12 -36 -39 -29 -19
-12 -19 -15 -14 -41 -46 -39 -29
-7 -18 -9 -9 -36 -41 -34 -22
-9 -7 -7 -3 -23 -26 -13 -6
-11 -7 -11 -8 -29 -37 -29 -21
-9 -11 -8 -8 -30 -37 -31 -22
-8 -8 -5 -5 -22 -29 -19 -11
-10 -5 -6 -7 -24 -31 -23 -15
-9 -14 -4 -14 -36 -45 -43 -32
-7 -13 -2 -9 -30 -34 -26 -15
-7 -7 -3 -8 -30 -34 -24 -13
-8 -10 -4 -11 -36 -41 -38 -23
-7 -12 -2 -8 -32 -37 -31 -17
-7 2 1 -1 -18 -21 -8 0
-8 7 0 -4 -21 -29 -23 -11
-10 2 -2 -6 -23 -30 -26 -12
-11 9 -3 -5 -17 -23 -14 -4
-10 18 -5 -3 -18 -25 -16 -6
-6 12 -5 -11 -30 -38 -38 -23
-5 10 -4 -12 -27 -31 -25 -12
-5 11 -7 -15 -30 -34 -25 -11
-6 6 -10 -20 -39 -44 -38 -22
-4 2 -9 -18 -36 -39 -34 -17
-3 13 -8 -12 -24 -25 -12 0
-3 12 -9 -16 -28 -34 -26 -12
1 7 -7 -15 -29 -34 -27 -12
1 5 -7 -15 -25 -29 -19 -6
-2 7 -7 -16 -28 -30 -21 -8
-2 -5 -7 -22 -40 -45 -41 -26
-5 -11 -6 -21 -39 -38 -30 -15
-7 -11 -6 -22 -40 -39 -31 -15
-1 -10 -5 -22 -45 -46 -41 -24
-1 -13 -1 -19 -40 -41 -35 -19
-1 -2 1 -11 -26 -26 -14 -2
-4 -4 1 -16 -33 -36 -29 -15
-8 -9 3 -17 -33 -37 -32 -19
-8 -6 6 -12 -26 -28 -19 -8
-13 -6 5 -16 -30 -32 -25 -12
-14 -20 1 -24 -45 -47 -48 -32
-15 -26 0 -22 -42 -43 -35 -23
-9 -19 2 -20 -41 -41 -34 -20
-6 -21 -1 -24 -49 -50 -47 -30
-8 -29 -2 -24 -50 -50 -44 -27
-9 -20 -6 -22 -40 -38 -25 -13
-12 -23 -10 -27 -46 -47 -40 -26
-11 -28 -11 -25 -45 -48 -42 -28
-7 -24 -12 -21 -39 -39 -30 -17
-10 -22 -16 -26 -41 -42 -34 -21
-10 -34 -19 -32 -55 -57 -56 -40
-10 -35 -20 -30 -52 -49 -43 -29
-11 -34 -21 -30 -53 -52 -42 -28
-8 -35 -22 -34 -58 -59 -54 -38
-12 -41 -19 -30 -55 -54 -49 -32
-15 -34 -17 -25 -44 -41 -29 -17
-14 -34 -19 -29 -49 -49 -44 -30
-16 -40 -21 -30 -49 -51 -45 -32
-18 -38 -22 -26 -42 -42 -33 -23
-14 -28 -25 -27 -44 -44 -35 -25
-11 -36 -26 -32 -55 -56 -56 -39
-10 -35 -24 -29 -50 -47 -42 -28
-13 -33 -24 -28 -52 -50 -42 -28
-13 -36 -24 -34 -60 -59 -57 -40
-11 -41 -17 -29 -56 -55 -50 -35
-12 -33 -13 -17 -43 -41 -30 -21
-11 -33 -6 -6 -43 -46 -44 -34
-6 -32 9 11 -35 -41 -43 -35
-5 -29 23 35 -19 -30 -29 -24
-7 -19 40 63 -6 -25 -28 -25
-5 -23 68 104 14 -18 -33 -33
1 -10 100 159 61 21 1 -9
10 7 122 207 110 63 35 11
16 12 132 243 147 96 55 21
26 25 138 270 189 141 96 49
38 63 138 282 238 203 159 96
47 87 115 253 255 238 186 114
62 109 75 202 269 282 226 146
76 132 31 149 289 340 285 192
84 158 -39 60 288 383 325 221
92 182 -112 -47 264 406 343 237
83 212 -163 -148 245 431 378 272
63 243 -210 -272 203 426 381 282
44 257 -256 -393 158 409 366 279
33 252 -297 -486 118 400 365 283
20 244 -332 -544 84 391 369 287
7 202 -345 -585 27 332 310 243
-1 142 -350 -609 -44 250 243 194
-7 93 -349 -591 -80 189 195 162
-14 51 -345 -564 -122 117 129 114
-21 -12 -327 -544 -191 15 37 47
-32 -58 -296 -520 -261 -90 -42 -1
-41 -88 -267 -492 -321 -193 -126 -56
-40 -108 -240 -458 -342 -233 -167 -88
-35 -117 -212 -408 -309 -211 -152 -81
-31 -104 -181 -347 -261 -173 -117 -62
-27 -95 -149 -299 -233 -161 -118 -70
-27 -91 -113 -248 -200 -142 -110 -69
-28 -84 -78 -197 -162 -115 -85 -53
-30 -77 -52 -162 -139 -104 -81 -53
-29 -81 -31 -136 -130 -106 -94 -64
-22 -74 -13 -109 -108 -87 -72 -46
-14 -60 -1 -88 -92 -76 -63 -41
-14 -55 9 -75 -83 -77 -71 -49
-10 -51 24 -57 -68 -64 -58 -40
-10 -39 33 -40 -48 -47 -34 -24
-10 -36 37 -35 -49 -52 -45 -35
-11 -38 42 -27 -44 -48 -41 -31
-12 -37 48 -15 -35 -36 -26 -18
-12 -33 48 -14 -38 -41 -34 -25
-12 -46 49 -15 -48 -56 -55 -42
-9 -44 53 -9 -42 -47 -44 -30
-9 -41 56 -5 -39 -45 -41 -30
-12 -44 53 -9 -44 -55 -55 -42
-10 -45 59 -3 -39 -47 -46 -34
-11 -34 61 4 -25 -33 -24 -18
-15 -38 60 0 -29 -40 -36 -30
-18 -42 61 0 -30 -40 -37 -29
-15 -38 66 7 -23 -30 -24 -17
-8 -28 69 10 -24 -33 -27 -21
-5 -38 72 6 -34 -44 -46 -35
-4 -39 75 10 -29 -36 -34 -24
-3 -35 74 12 -25 -36 -33 -24
-6 -40 69 6 -33 -47 -49 -38
-9 -45 71 7 -30 -42 -43 -31
-3 -26 71 15 -16 -26 -21 -16
-1 -22 68 12 -19 -31 -32 -26
-2 -25 69 12 -20 -32 -33 -25
-3 -23 73 21 -11 -19 -15 -11
-5 -22 72 19 -13 -24 -22 -18
-4 -34 69 14 -25 -37 -42 -34
-5 -36 73 20 -17 -27 -28 -21
-5 -35 71 21 -16 -27 -27 -22
-5 -37 67 16 -23 -37 -42 -34
-7 -41 67 18 -17 -31 -34 -27
-6 -27 65 25 -5 -15 -14 -12
-1 -19 61 21 -11 -23 -28 -25
-1 -24 64 22 -9 -21 -26 -23
-1 -19 68 30 1 -8 -9 -9
-4 -19 66 30 -2 -12 -16 -15
-6 -29 66 26 -11 -25 -36 -31
-3 -29 71 33 -1 -13 -20 -15
-2 -24 65 35 0 -14 -19 -16
-2 -27 62 32 -5 -22 -33 -29
-1 -30 63 36 4 -14 -23 -19
-1 -18 62 44 17 3 -2 -4
-1 -15 60 42 13 -3 -15 -15
-3 -19 61 43 14 -2 -13 -13
-4 -16 64 51 25 10 3 0
-3 -10 63 54 23 8 -1 -4
-2 -21 64 51 14 -4 -21 -19
1 -18 68 58 24 7 -5 -5
1 -14 66 63 28 10 -1 -4
0 -19 65 62 25 2 -15 -16
5 -18 67 69 35 13 -5 -8
5 -5 70 78 53 29 17 7
5 -3 68 80 52 26 8 -2
5 -6 71 85 56 30 10 1
4 -2 75 94 65 41 25 12
4 4 73 99 66 39 20 7
8 -3 76 99 60 30 3 -7
8 -2 81 107 71 43 19 7
10 3 84 116 80 50 26 10
13 3 83 117 80 45 16 0
16 5 86 125 90 56 27 10
16 19 90 137 108 75 51 28
12 16 88 136 105 68 40 16
12 16 92 142 111 74 42 18
10 20 96 153 123 88 59 31
6 20 95 154 120 83 51 23
9 11 99 152 113 72 35 10
12 15 105 160 123 85 50 24
15 25 108 164 129 88 53 25
20 27 108 160 123 81 40 15
17 23 113 164 129 88 50 23
18 37 118 171 142 103 70 39
17 39 118 169 138 98 61 31
17 36 119 167 136 95 59 30
16 41 123 172 142 105 74 42
13 41 122 167 134 96 62 34
13 30 124 160 121 81 41 16
11 32 130 163 128 89 55 31
13 36 132 163 128 89 55 30
14 31 129 155 118 78 39 17
13 28 134 156 123 83 48 25
12 42 136 159 132 94 68 41
11 41 132 152 125 85 53 28
10 36 132 149 119 82 51 27
10 41 134 151 125 90 63 38
7 42 130 146 118 82 52 29
7 29 123 135 101 64 29 12
7 29 123 137 104 70 41 23
7 33 119 135 103 68 41 22
8 28 110 124 91 53 21 6
9 29 107 122 92 56 28 14
4 38 100 119 97 66 44 27
1 32 94 111 86 55 29 15
3 28 92 107 81 53 29 16
2 31 91 105 83 58 41 26
0 32 86 99 72 48 30 17
-2 16 82 86 56 30 7 0
1 16 82 85 58 35 18 11
2 18 78 81 55 34 18 9
0 10 69 67 41 19 -2 -6
2 6 68 64 40 21 4 0
0 15 64 64 45 30 20 14
-3 12 57 53 34 18 4 -1
-2 8 53 47 28 14 2 -1
-3 11 55 49 32 23 17 12
-6 9 51 41 20 11 4 2
-5 -3 49 33 8 -1 -14 -13
-5 -5 49 31 10 5 -1 -1
-3 0 44 25 4 -1 -6 -5
0 -4 38 16 -5 -12 -21 -15
-2 -8 33 13 -5 -10 -16 -11
-4 4 27 13 2 -1 0 -1
-6 1 20 6 -6 -10 -15 -13
-6 -6 19 3 -8 -10 -16 -12
-6 -2 19 6 -2 -2 1 2
-10 -3 16 2 -10 -10 -10 -7
-8 -16 14 -6 -22 -25 -31 -22
-7 -18 14 -5 -18 -17 -17 -11
-8 -17 11 -7 -20 -19 -19 -12
-10 -20 9 -13 -26 -28 -34 -24
-9 -20 10 -12 -22 -23 -25 -17
-8 -8 8 -9 -13 -13 -10 -5
-10 -10 5 -14 -20 -21 -23 -18
-10 -13 6 -14 -21 -21 -23 -16
-7 -6 9 -8 -12 -11 -8 -4
-4 -1 8 -9 -17 -17 -18 -12
-6 -13 6 -13 -26 -29 -36 -28
-5 -12 7 -11 -20 -22 -22 -16
-6 -9 6 -10 -19 -21 -21 -16
-6 -15 1 -16 -28 -32 -38 -29
-5 -16 3 -12 -20 -22 -26 -18
-5 -4 4 -4 -9 -10 -9 -5
-8 -7 3 -4 -13 -15 -20 -15
-8 -11 4 -6 -12 -13 -18 -13
-9 -8 8 1 -3 -3 -2 -1
-9 -5 7 0 -8 -9 -12 -11
-8 -16 4 -6 -19 -22 -29 -23
-6 -13 8 0 -11 -14 -14 -12
-6 -8 8 1 -10 -13 -13 -10
-7 -14 4 -6 -19 -25 -30 -25
-6 -16 6 -2 -12 -17 -20 -16
-8 -6 8 6 -1 -3 0 -1
-7 -7 7 2 -6 -11 -14 -13
-5 -4 8 2 -5 -9 -13 -12
-4 0 11 7 3 0 2 0
-2 7 13 6 -2 -5 -6 -7
-1 -5 14 3 -10 -15 -23 -18
-4 -7 15 8 -5 -7 -10 -7
-2 -3 15 8 -5 -8 -10 -7
-3 -10 13 2 -12 -18 -25 -20
-3 -15 16 5 -8 -11 -15 -11
-2 -2 17 11 3 3 3 2
-1 0 13 7 -2 -5 -10 -10
-3 -1 12 5 -4 -7 -10 -9
-4 3 13 9 3 3 4 4
-6 0 9 5 -5 -6 -8 -7
-5 -13 11 1 -14 -17 -24 -19
-4 -12 15 4 -9 -9 -12 -7
-6 -11 14 3 -10 -11 -14 -10
-4 -13 12 -2 -19 -22 -29 -25
-2 -15 12 0 -13 -14 -18 -14
-3 -4 11 2 -5 -3 -3 -1
-5 -3 10 -1 -10 -11 -14 -11
-2 -7 11 -1 -11 -10 -14 -11
-3 -3 12 3 -4 -1 1 1
-7 -6 9 -1 -12 -11 -12 -10
-7 -16 8 -7 -24 -24 -31 -24
-6 -14 12 -4 -19 -16 -17 -13
-6 -11 11 -6 -20 -18 -19 -15
-5 -16 11 -12 -29 -29 -36 -28
-2 -17 13 -9 -22 -20 -23 -17
-3 -5 13 -7 -13 -11 -8 -6
-5 -5 13 -11 -19 -19 -20 -17
-7 -12 10 -13 -21 -19 -21 -16
-11 -12 10 -10 -16 -12 -8 -5
-12 -11 10 -12 -23 -20 -18 -14
-7 -19 12 -15 -32 -30 -32 -24
-2 -16 14 -12 -26 -22 -20 -13
-2 -13 13 -12 -25 -24 -19 -13
-4 -20 10 -19 -35 -36 -37 -28
-2 -20 9 -18 -31 -28 -27 -19
-3 -7 8 -14 -23 -18 -11 -7
-3 -7 6 -17 -28 -27 -25 -18
-5 -11 8 -16 -28 -25 -23 -16
-7 -10 8 -13 -23 -18 -10 -5
-12 -9 7 -16 -29 -25 -21 -15
-11 -21 9 -20 -36 -35 -36 -27
-9 -20 9 -18 -32 -28 -23 -14
-9 -16 7 -20 -32 -30 -24 -15
-9 -20 4 -26 -41 -41 -41 -29
-6 -19 9 -21 -33 -31 -29 -19
-4 -1 11 -16 -23 -19 -12 -6
-6 0 12 -17 -26 -26 -24 -16
-5 -3 10 -17 -27 -26 -25 -17
-4 2 15 -11 -19 -15 -10 -3
-6 2 12 -15 -27 -24 -21 -13
-9 -10 15 -17 -34 -33 -34 -23
-7 -9 18 -12 -27 -25 -20 -11
-6 -4 17 -14 -27 -28 -22 -14
-4 -6 16 -20 -36 -38 -37 -26
-4 -7 17 -16 -28 -30 -27 -16
-5 6 17 -12 -19 -19 -11 -4
-8 6 15 -16 -22 -24 -22 -14
-9 4 14 -17 -24 -24 -23 -14
-7 10 17 -11 -15 -13 -5 0
-7 16 14 -13 -19 -19 -14 -7
-6 12 14 -18 -27 -29 -29 -18
-1 17 15 -13 -19 -19 -13 -3
-3 18 14 -14 -21 -21 -14 -4
-5 9 6 -25 -34 -36 -35 -21
-2 8 6 -24 -29 -27 -21 -8
-2 19 3 -22 -22 -19 -8 1
-2 19 2 -24 -26 -27 -20 -8
-1 15 1 -24 -27 -25 -20 -8
0 17 6 -18 -20 -15 -5 4
-1 16 3 -20 -26 -23 -17 -7
0 3 3 -25 -35 -34 -32 -19
4 3 4 -21 -30 -26 -16 -6
-1 -1 3 -22 -30 -27 -16 -6
-2 -7 1 -29 -41 -39 -34 -20
5 -3 6 -26 -34 -30 -20 -8
2 8 4 -21 -25 -20 -6 3
0 5 1 -25 -30 -29 -20 -10
-1 2 1 -25 -31 -29 -21 -11
-5 3 5 -20 -22 -18 -7 0
-8 2 5 -21 -27 -25 -18 -9
-11 -11 5 -27 -37 -38 -35 -22
-11 -13 8 -25 -34 -31 -23 -12
-10 -12 8 -25 -34 -33 -25 -13
-9 -18 6 -31 -44 -45 -43 -27
-6 -19 9 -28 -40 -38 -31 -17
-5 -8 8 -27 -33 -30 -17 -7
-5 -12 5 -34 -42 -40 -32 -21
-8 -17 7 -34 -42 -39 -32 -20
-11 -17 14 -27 -35 -28 -16 -7
-13 -19 9 -36 -44 -40 -32 -21
-14 -32 9 -39 -53 -51 -47 -31
-11 -31 9 -36 -47 -42 -33 -19
-10 -27 8 -36 -47 -44 -34 -20
-8 -29 5 -40 -54 -54 -50 -34
-5 -29 5 -37 -48 -44 -37 -23
-5 -14 2 -33 -39 -35 -22 -12
-7 -16 -1 -37 -46 -44 -36 -23
-9 -22 -1 -36 -45 -43 -36 -23
-10 -20 1 -31 -37 -32 -19 -10
-15 -22 -1 -33 -43 -39 -31 -19
-14 -35 0 -37 -53 -51 -46 -30
-11 -33 1 -34 -48 -43 -33 -21
-14 -32 -2 -36 -50 -46 -36 -25
-11 -34 -3 -42 -58 -57 -53 -39
-2 -32 3 -36 -48 -45 -37 -24
-7 -22 5 -30 -39 -34 -22 -14
-8 -24 6 -28 -43 -41 -34 -23
-7 -29 12 -18 -40 -39 -34 -24
-6 -21 22 2 -25 -25 -16 -10
-6 -17 31 17 -24 -29 -26 -21
-6 -26 43 36 -20 -33 -38 -31
-3 -15 64 77 11 -11 -14 -13
0 -2 88 123 47 14 2 -5
8 4 109 165 85 39 13 -2
19 16 126 207 136 90 60 29
24 39 132 242 185 140 108 62
37 64 134 258 219 179 134 78
46 86 123 256 248 224 177 108
51 113 89 216 267 272 229 152
63 135 47 165 274 310 262 177
77 146 4 105 277 351 296 202
86 175 -67 14 273 398 349 247
83 206 -130 -88 246 417 373 269
70 230 -177 -200 199 403 361 267
51 259 -216 -318 162 399 370 285
36 287 -264 -435 124 393 376 298
22 274 -304 -531 58 354 342 276
10 247 -329 -587 2 308 309 256
-2 199 -330 -615 -62 242 265 230
-8 139 -330 -623 -129 155 185 170
-13 81 -320 -590 -164 90 120 121
-14 39 -307 -555 -201 27 71 86
-27 -12 -287 -529 -265 -75 -14 25
-39 -63 -268 -510 -338 -198 -125 -51
-42 -90 -250 -477 -362 -245 -162 -74
-37 -86 -231 -434 -336 -226 -147 -69
-34 -94 -212 -393 -308 -212 -147 -77
-32 -101 -182 -342 -276 -189 -135 -74
-31 -96 -147 -286 -232 -158 -105 -57
-30 -86 -117 -235 -204 -145 -107 -65
-23 -87 -85 -193 -179 -134 -108 -69
-21 -77 -61 -155 -148 -110 -83 -51
-20 -67 -45 -126 -127 -100 -76 -48
-16 -67 -36 -106 -118 -100 -84 -57
-12 -62 -25 -84 -94 -82 -63 -41
-12 -43 -17 -64 -71 -63 -44 -26
-12 -36 -8 -51 -65 -61 -51 -35
-12 -37 -1 -39 -59 -56 -46 -34
-14 -33 6 -25 -47 -41 -27 -16
-14 -32 9 -20 -51 -49 -39 -26
-14 -45 14 -15 -55 -56 -53 -37
-13 -44 19 -7 -48 -49 -38 -26
-10 -39 22 -1 -45 -49 -39 -26
-5 -39 22 -3 -51 -59 -57 -41
-1 -35 27 5 -38 -45 -39 -27
-4 -27 26 7 -28 -35 -23 -16
-5 -30 29 8 -30 -39 -33 -24
-6 -33 29 9 -30 -39 -32 -24
-8 -25 32 15 -23 -28 -17 -11
-9 -25 32 13 -32 -38 -32 -23
-7 -38 36 12 -41 -48 -46 -33
-6 -34 42 19 -32 -39 -32 -21
-1 -28 44 21 -31 -40 -34 -23
0 -35 41 16 -38 -52 -52 -39
0 -33 44 21 -26 -40 -34 -25
-5 -22 46 28 -16 -27 -17 -12
-3 -24 44 23 -22 -35 -30 -24
-3 -27 46 23 -20 -30 -26 -19
-6 -23 50 30 -12 -19 -8 -4
-8 -22 49 28 -21 -30 -23 -16
-4 -32 53 30 -27 -38 -35 -24
-5 -30 55 35 -21 -31 -22 -14
-2 -25 56 33 -21 -34 -26 -19
-1 -31 54 30 -27 -43 -44 -34
-1 -30 55 35 -15 -31 -27 -21
0 -15 52 37 -6 -20 -12 -10
0 -18 49 34 -10 -26 -23 -21
0 -20 50 36 -9 -22 -21 -18
-1 -15 53 41 2 -8 0 0
-3 -15 49 37 -9 -20 -17 -14
-2 -26 50 38 -15 -27 -31 -22
-4 -26 50 42 -8 -21 -17 -11
-3 -21 50 43 -6 -24 -20 -13
4 -22 50 41 -11 -33 -34 -27
4 -24 52 46 4 -19 -17 -12
2 -12 51 47 14 -9 -3 -3
3 -12 46 43 9 -15 -14 -15
2 -15 47 46 13 -8 -10 -10
1 -7 48 52 23 5 10 6
-2 -8 45 49 13 -5 -5 -6
-1 -18 47 51 10 -13 -17 -15
1 -15 48 59 20 -2 0 -1
3 -10 46 60 20 -5 -4 -5
4 -16 44 59 16 -12 -20 -20
3 -19 48 67 32 2 0 -4
3 -5 48 73 42 11 13 4
7 -1 48 73 41 8 3 -5
5 -6 51 78 48 15 8 0
6 -1 56 89 60 30 29 16
6 0 56 92 55 24 18 6
8 -10 59 95 51 18 7 -2
11 -3 65 106 65 32 26 13
11 4 66 112 69 36 26 13
14 0 63 111 67 27 10 -2
16 3 64 123 84 44 30 13
14 15 65 130 98 56 46 24
15 16 65 133 99 53 36 14
18 18 68 139 105 61 43 20
16 24 72 148 117 75 63 37
11 23 70 149 112 67 51 26
10 10 73 151 109 62 42 18
15 19 77 160 119 73 56 31
17 28 78 164 122 74 55 29
18 23 77 161 117 65 40 15
20 23 79 168 130 77 57 30
19 38 80 171 140 88 71 38
19 38 82 168 135 81 59 26
23 40 87 173 138 86 64 32
20 46 94 178 148 98 81 49
15 43 91 170 133 82 61 33
15 29 95 169 125 73 49 24
17 36 101 170 130 79 60 35
18 42 112 173 130 79 59 34
16 34 115 163 120 65 40 17
19 37 121 163 128 76 57 32
19 50 121 163 134 83 67 39
14 46 118 156 126 73 54 27
10 40 117 152 122 71 51 27
8 44 120 155 128 81 68 41
8 45 115 147 114 67 49 28
11 36 114 143 104 55 34 19
10 38 113 142 106 59 45 29
9 39 110 137 101 54 39 24
11 33 107 130 91 39 21 9
16 35 106 133 99 50 38 22
13 44 101 128 101 54 47 29
11 39 95 121 92 44 34 17
9 35 92 119 88 43 35 19
7 40 89 118 88 49 48 31
3 37 84 108 74 35 30 16
0 20 83 102 62 23 16 7
3 20 80 100 62 26 25 17
3 22 74 94 57 20 20 12
5 16 71 86 45 7 1 -3
6 18 70 85 52 16 16 10
1 24 64 79 50 17 23 15
0 21 62 72 42 9 9 3
3 22 58 67 36 8 11 4
-1 23 57 66 38 14 23 16
-5 14 53 56 22 -3 3 0
-8 -2 52 51 9 -15 -10 -9
-4 1 50 50 10 -11 -2 0
0 6 48 46 6 -15 -5 -2
1 -3 44 37 -4 -29 -25 -19
3 -1 45 38 3 -20 -9 -6
1 9 41 33 5 -16 -1 -1
-2 5 38 30 -2 -24 -14 -12
0 4 37 24 -4 -23 -12 -9
-4 7 39 26 2 -14 4 5
-7 1 36 18 -13 -29 -16 -11
-8 -14 34 12 -21 -37 -27 -19
-8 -12 33 11 -21 -35 -19 -11
-4 -6 33 9 -21 -37 -22 -13
-4 -14 30 3 -31 -48 -40 -28
-5 -14 30 5 -21 -38 -23 -14
-6 -3 26 5 -17 -32 -15 -8
-9 -7 22 1 -22 -38 -25 -18
-7 -8 21 0 -22 -36 -22 -15
-4 -1 23 6 -12 -24 -4 0
-10 -5 18 0 -25 -37 -21 -14
-9 -16 20 0 -30 -43 -32 -22
-3 -9 21 4 -23 -34 -19 -9
-3 -6 18 3 -25 -36 -23 -12
-3 -13 15 -2 -33 -47 -39 -27
-2 -13 15 3 -21 -34 -22 -15
-1 -2 13 4 -15 -26 -13 -8
-2 -2 13 5 -17 -29 -22 -17
-7 -6 13 8 -16 -25 -18 -13
-6 0 16 13 -9 -15 -2 1
-8 -1 13 7 -20 -26 -20 -13
-7 -10 16 7 -26 -31 -29 -20
-4 -4 20 11 -18 -23 -16 -7
-2 0 22 12 -18 -24 -18 -9
0 -8 21 9 -25 -33 -35 -24
1 -6 23 14 -14 -20 -17 -9
-2 0 19 14 -10 -17 -10 -5
-5 -4 19 12 -13 -21 -20 -15
-4 -5 22 15 -10 -16 -15 -11
-6 0 24 21 -3 -6 0 2
-8 -2 22 16 -14 -20 -18 -12
-8 -13 26 16 -18 -24 -26 -18
-6 -10 28 20 -11 -17 -13 -7
-1 -2 30 20 -10 -17 -13 -8
-1 -7 30 17 -17 -27 -30 -22
4 -3 32 22 -6 -13 -11 -7
0 5 28 23 -3 -9 -4 -3
0 5 26 19 -7 -15 -16 -12
1 1 25 20 -4 -11 -11 -7
-3 3 23 22 1 -2 3 6
-6 0 20 18 -10 -15 -16 -10
-2 -11 21 19 -13 -18 -21 -13
-1 -6 20 20 -10 -15 -11 -3
1 -2 17 18 -11 -17 -14 -7
3 -7 19 15 -18 -27 -29 -21
4 -6 22 19 -8 -15 -11 -6
4 8 21 18 -4 -10 -5 -1
1 4 19 14 -9 -17 -15 -10
-2 0 20 12 -11 -16 -14 -10
0 6 20 16 -3 -6 2 5
-3 0 19 11 -15 -20 -18 -12
-1 -11 21 10 -20 -25 -24 -17
-3 -10 23 13 -15 -18 -12 -5
-5 -10 22 11 -19 -22 -18 -8
-1 -15 21 9 -24 -32 -32 -20
0 -12 18 10 -16 -21 -15 -8
-3 -1 19 10 -12 -15 -8 -3
0 -1 21 7 -17 -22 -18 -12
-3 -6 20 6 -20 -22 -17 -11
-6 -3 19 8 -14 -13 -3 2
-5 -3 18 6 -24 -24 -20 -11
-1 -12 18 3 -30 -30 -30 -18
0 -9 21 7 -24 -24 -18 -8
-1 -7 20 6 -26 -27 -23 -11
-1 -13 18 0 -35 -40 -41 -27
1 -10 19 4 -24 -26 -21 -12
-1 -2 19 6 -19 -22 -14 -7
0 -2 19 6 -22 -25 -23 -15
-1 -4 22 7 -20 -22 -18 -11
-3 2 21 10 -14 -13 -4 3
-6 0 19 5 -23 -24 -23 -12
-6 -10 21 4 -29 -29 -32 -18
-3 -5 22 7 -25 -23 -20 -8
-4 -4 19 5 -26 -24 -23 -11
-6 -12 18 -1 -35 -36 -41 -27
-2 -7 21 3 -24 -22 -22 -11
0 7 23 4 -18 -15 -14 -5
1 7 24 1 -22 -19 -24 -14
5 7 28 4 -18 -14 -15 -7
3 12 30 8 -11 -3 0 7
-4 7 29 2 -21 -16 -20 -8
-3 -2 33 2 -25 -17 -24 -10
-2 3 35 3 -21 -10 -13 1
1 13 36 2 -22 -12 -16 -1
2 11 38 -3 -28 -21 -32 -14
3 15 39 -1 -17 -9 -13 1
3 26 39 -1 -13 -5 -7 6
2 23 36 -7 -21 -14 -19 -5
5 22 32 -11 -24 -17 -19 -5
4 26 31 -10 -18 -8 -4 8
2 21 30 -14 -29 -21 -20 -5
7 10 34 -11 -32 -24 -26 -9
8 10 33 -12 -28 -19 -15 1
6 9 33 -15 -33 -24 -20 -3
2 -3 31 -18 -38 -33 -35 -15
3 -4 31 -15 -30 -23 -19 -3
0 2 27 -17 -28 -21 -15 -2
0 0 23 -23 -34 -32 -28 -12
-1 -4 23 -22 -32 -30 -26 -8
3 7 28 -15 -22 -17 -7 6
2 6 26 -18 -32 -29 -26 -8
2 -6 29 -19 -38 -35 -32 -12
2 -2 30 -16 -32 -28 -20 -3
0 0 25 -20 -36 -35 -27 -8
-1 -7 23 -25 -44 -48 -43 -23
-3 -9 22 -22 -34 -36 -25 -7
-3 0 17 -23 -33 -34 -22 -6
-3 -4 14 -27 -37 -40 -33 -16
-5 -9 12 -28 -39 -41 -31 -14
-7 -9 12 -25 -33 -32 -17 -1
-6 -14 8 -30 -47 -47 -38 -19
-5 -26 10 -33 -51 -53 -43 -23
-4 -24 12 -31 -46 -47 -32 -12
-5 -25 11 -34 -49 -50 -36 -16
-4 -34 8 -40 -58 -61 -54 -30
-6 -34 11 -35 -45 -48 -34 -13
-9 -26 6 -37 -44 -48 -29 -11
-8 -27 4 -40 -48 -54 -40 -21
-9 -32 3 -38 -45 -52 -36 -18
-8 -25 2 -35 -39 -43 -23 -7
-8 -25 -1 -40 -51 -57 -43 -24
-9 -36 -2 -42 -55 -61 -49 -29
-5 -29 0 -38 -50 -54 -36 -17
-6 -29 -3 -39 -51 -56 -39 -20
-5 -37 -7 -41 -59 -69 -55 -34
-4 -33 -3 -36 -46 -54 -35 -16
-3 -21 -6 -38 -43 -51 -28 -13
-4 -23 -7 -41 -47 -56 -40 -22
-3 -25 -8 -40 -46 -54 -37 -19
-6 -23 -5 -35 -39 -44 -22 -7
-7 -30 -1 -37 -49 -58 -41 -23
-3 -41 7 -29 -50 -60 -46 -28
-3 -40 19 -13 -41 -53 -34 -18
-5 -34 29 1 -36 -52 -38 -22
0 -34 41 17 -35 -59 -52 -35
0 -25 60 52 -5 -36 -26 -16
5 -2 82 100 34 -9 -6 -5
12 8 104 150 75 20 10 1
19 16 121 192 123 63 46 25
24 28 130 231 170 112 94 58
29 42 129 247 198 139 108 66
42 65 122 257 230 181 144 91
52 93 99 233 255 227 194 131
60 118 56 179 261 260 226 157
76 132 11 123 268 298 256 180
84 160 -55 40 274 354 319 230
87 202 -131 -68 256 384 354 260
79 232 -184 -174 219 387 359 270
60 261 -225 -294 173 374 360 282
40 288 -266 -419 130 364 365 298
25 286 -314 -532 65 329 333 281
13 260 -345 -602 9 291 304 266
3 227 -360 -644 -49 234 265 241
-4 168 -366 -666 -122 151 196 193
-7 106 -368 -649 -167 79 122 136
-12 59 -357 -606 -183 37 92 112
-21 14 -343 -573 -232 -39 28 63
-31 -42 -315 -545 -301 -148 -71 -8
-38 -83 -287 -508 -348 -233 -144 -55
-39 -95 -258 -462 -343 -243 -149 -59
-32 -101 -235 -419 -322 -234 -157 -74
-24 -110 -201 -364 -285 -208 -143 -70
-23 -103 -169 -310 -246 -182 -119 -58
-21 -95 -137 -259 -211 -163 -113 -60
-21 -96 -108 -216 -186 -154 -117 -69
-19 -83 -81 -172 -145 -122 -83 -46
-18 -64 -65 -142 -120 -107 -71 -40
-16 -62 -54 -121 -108 -101 -75 -47
-13 -59 -42 -100 -89 -88 -64 -37
-13 -44 -30 -77 -65 -67 -40 -18
-13 -45 -23 -68 -68 -75 -55 -34
-12 -55 -13 -56 -63 -72 -54 -32
-10 -47 -7 -45 -54 -63 -40 -21
-7 -41 -5 -40 -53 -64 -43 -24
-8 -51 -4 -37 -60 -75 -59 -38
-8 -46 4 -27 -44 -59 -38 -21
-6 -32 5 -23 -39 -58 -35 -19
-5 -37 7 -22 -41 -64 -48 -31
-7 -41 10 -16 -35 -58 -41 -25
-9 -32 12 -8 -21 -43 -22 -9
-6 -33 7 -14 -33 -56 -43 -27
-2 -41 10 -11 -34 -54 -43 -25
-3 -37 10 -8 -29 -48 -29 -14
-6 -36 6 -8 -33 -53 -36 -20
-5 -45 5 -10 -42 -63 -53 -35
-2 -40 8 -3 -27 -48 -30 -15
-1 -26 3 -3 -25 -47 -29 -16
-2 -29 2 -2 -27 -51 -39 -25
-3 -34 3 -1 -23 -49 -36 -22
-4 -25 4 3 -12 -38 -19 -10
-6 -30 1 -1 -24 -49 -39 -26
-4 -39 2 0 -27 -49 -40 -26
-2 -34 3 2 -21 -41 -26 -13
-2 -32 0 2 -24 -44 -31 -18
-2 -39 -1 0 -33 -55 -48 -31
0 -32 3 8 -18 -38 -24 -11
0 -21 0 9 -16 -38 -23 -12
-1 -26 0 8 -18 -43 -34 -22
-2 -31 2 11 -11 -37 -27 -16
-5 -26 -2 13 -4 -28 -13 -5
-6 -31 -5 8 -14 -41 -33 -21
-6 -39 -5 9 -15 -42 -35 -23
-4 -33 -3 12 -10 -34 -22 -11
-4 -28 -5 12 -12 -37 -26 -15
-1 -35 -5 11 -18 -47 -41 -27
2 -29 -1 20 -2 -30 -15 -8
4 -17 -4 20 1 -28 -14 -7
1 -19 -6 20 0 -33 -25 -17
0 -23 -3 23 6 -27 -19 -13
-4 -19 -4 25 14 -16 -5 -1
-6 -24 -7 20 3 -28 -25 -19
-1 -30 -3 23 5 -27 -23 -16
0 -24 -2 28 11 -18 -11 -6
3 -19 -1 28 9 -19 -14 -8
5 -26 3 28 5 -27 -27 -20
6 -21 10 38 21 -10 -3 -1
3 -8 9 42 28 -6 1 1
1 -12 9 44 27 -10 -9 -9
5 -13 13 50 35 -3 -1 -3
6 -3 16 57 47 10 18 12
3 -8 13 52 38 -2 -2 -6
4 -16 20 59 42 3 0 -3
7 -9 23 63 50 11 14 9
7 -5 22 67 50 11 10 4
10 -12 23 72 47 5 -3 -7
10 -8 27 83 66 23 22 13
10 3 28 91 74 28 25 14
8 -1 31 95 76 27 18 7
8 -3 34 101 85 35 25 11
13 12 40 111 101 51 46 28
12 10 40 110 93 40 27 11
11 1 45 117 97 44 29 13
14 9 50 125 107 55 45 26
14 14 54 127 107 54 42 22
18 11 58 129 104 49 28 12
18 17 64 141 122 67 53 31
16 28 65 143 125 68 54 30
15 25 68 145 125 64 44 20
15 25 70 150 133 72 51 26
15 35 74 156 144 84 69 40
15 30 72 149 132 72 48 22
12 17 75 152 132 73 51 24
14 25 77 155 136 79 61 35
14 30 77 153 132 76 57 30
14 23 78 149 122 63 39 17
17 32 82 155 132 76 61 35
14 39 80 152 133 74 59 33
14 37 78 150 127 66 47 23
14 34 79 149 129 66 50 26
13 39 79 148 135 76 62 37
12 38 79 141 123 62 42 21
10 30 82 140 120 61 42 22
11 34 81 138 120 64 52 31
12 38 79 136 114 60 45 26
14 31 78 130 103 46 29 13
11 32 79 132 112 57 48 30
7 38 76 129 110 55 47 29
4 31 73 122 102 44 31 16
3 27 75 121 103 47 37 20
5 35 73 119 108 53 49 30
6 33 68 109 90 36 26 12
9 24 70 107 86 36 27 14
7 26 68 102 83 37 35 21
7 28 67 94 72 28 24 14
6 20 68 87 60 16 8 2
5 20 67 87 68 25 27 18
3 26 62 80 63 20 23 14
1 17 58 73 54 12 10 4
0 11 56 68 53 12 12 6
0 18 52 65 55 18 24 16
-2 13 45 52 37 0 0 -4
-2 2 46 48 32 -4 -3 -4
-1 4 45 43 29 -1 7 4
-3 7 44 35 20 -9 -2 -2
-1 -2 44 28 8 -21 -16 -14
-3 0 44 31 18 -8 5 5
-5 5 39 25 12 -15 -2 0
-7 -3 35 18 5 -22 -14 -11
-6 -6 35 15 5 -22 -11 -9
-5 1 34 14 9 -14 2 1
-8 -7 29 3 -7 -31 -22 -19
-9 -15 26 0 -11 -34 -24 -20
-5 -8 23 -1 -11 -28 -13 -10
-7 -10 19 -6 -17 -34 -20 -14
-8 -21 18 -11 -26 -44 -35 -27
-2 -11 21 -4 -12 -28 -10 -6
-4 -3 16 -7 -15 -32 -14 -10
-1 -6 17 -9 -19 -37 -24 -18
2 -8 20 -5 -13 -32 -16 -11
-2 -4 18 -6 -8 -25 -4 -1
-7 -11 13 -17 -23 -42 -28 -22
-9 -20 12 -18 -24 -42 -27 -21
-7 -15 8 -19 -22 -38 -19 -13
-6 -10 6 -20 -25 -41 -25 -17
-7 -20 7 -21 -32 -50 -38 -28
-6 -15 8 -14 -17 -35 -15 -9
-7 -6 5 -15 -17 -35 -16 -11
-6 -10 3 -17 -22 -40 -28 -22
-4 -11 5 -14 -16 -35 -22 -17
-5 -4 6 -9 -8 -25 -6 -4
-9 -9 5 -14 -19 -38 -28 -22
-6 -15 7 -14 -21 -38 -27 -20
-6 -11 5 -12 -18 -34 -18 -12
-5 -9 4 -12 -21 -36 -22 -15
-5 -18 3 -15 -28 -45 -36 -25
-5 -14 7 -5 -14 -30 -13 -8
-5 -4 7 -5 -12 -29 -13 -10
-6 -9 8 -4 -14 -32 -23 -18
-4 -10 9 -3 -9 -28 -16 -13
-4 -1 12 2 0 -17 -1 -1
-6 -8 9 -4 -14 -31 -23 -20
-3 -14 11 -1 -14 -30 -21 -17
-5 -9 12 0 -11 -25 -11 -8
-5 -7 12 -2 -15 -28 -16 -14
-5 -12 9 -4 -21 -38 -31 -26
-3 -6 11 4 -7 -22 -7 -7
-4 -1 7 3 -7 -23 -10 -10
-4 -4 7 6 -10 -27 -19 -18
-5 -6 7 7 -5 -24 -14 -13
-2 4 8 10 3 -12 3 0
-4 -1 5 4 -10 -26 -19 -19
-6 -13 6 4 -10 -26 -18 -16
-3 -9 7 6 -7 -19 -6 -5
-2 -4 5 5 -11 -22 -11 -10
0 -12 4 1 -18 -33 -26 -20
-1 -6 5 8 -5 -18 -3 -1
-5 1 -1 4 -8 -22 -10 -7
-2 1 -1 4 -10 -26 -18 -15
0 -3 0 5 -6 -23 -14 -11
-2 2 0 6 0 -14 -1 0
-5 -5 -2 1 -13 -27 -21 -18
-6 -18 0 0 -14 -26 -19 -16
-4 -13 1 2 -12 -22 -9 -6
-1 -7 0 0 -15 -26 -15 -10
-1 -16 -1 -5 -24 -35 -30 -21
-1 -10 3 0 -12 -21 -6 -2
-6 -1 3 1 -13 -23 -10 -7
-3 -4 1 -2 -18 -31 -22 -19
-2 -8 2 -1 -14 -27 -18 -13
-4 -1 -1 -1 -9 -20 -6 -4
-7 -9 -4 -8 -24 -36 -31 -24
-2 -16 -1 -7 -22 -34 -26 -20
-1 -13 1 -5 -20 -29 -16 -11
-3 -10 -1 -7 -24 -33 -22 -15
-6 -18 -2 -11 -34 -43 -35 -27
-6 -14 -1 -7 -24 -30 -14 -9
-4 -4 -4 -6 -22 -32 -17 -13
-4 -9 -3 -7 -25 -35 -26 -21
-4 -10 -1 -5 -22 -32 -22 -17
-3 0 -2 -4 -16 -24 -9 -7
-5 -5 -1 -10 -27 -39 -31 -26
-5 -11 5 -7 -25 -34 -28 -21
-3 -5 5 -6 -23 -30 -18 -13
-3 -1 6 -8 -27 -34 -24 -17
-2 -8 9 -9 -33 -43 -35 -25
-1 -3 13 -3 -22 -28 -12 -6
0 8 12 -4 -22 -32 -16 -11
-1 4 14 -5 -24 -36 -25 -18
-3 -1 13 -4 -21 -32 -19 -14
-3 7 10 -2 -14 -24 -7 -4
-3 4 6 -9 -26 -38 -31 -22
-2 -4 7 -9 -26 -36 -27 -19
-2 2 6 -5 -21 -29 -16 -10
-1 8 4 -6 -23 -32 -21 -13
2 6 3 -8 -28 -39 -31 -20
2 14 2 -2 -15 -23 -6 1
-2 25 -2 -4 -17 -26 -11 -3
0 26 -1 -6 -19 -28 -19 -9
-2 21 -2 -7 -18 -27 -16 -7
-6 20 -6 -9 -14 -22 -7 1
-5 12 -11 -19 -30 -40 -29 -19
-2 5 -7 -18 -30 -38 -27 -15
3 14 -7 -16 -26 -33 -17 -5
3 15 -6 -17 -30 -37 -22 -10
4 5 -4 -22 -39 -46 -38 -22
7 11 2 -13 -26 -30 -13 -2
7 17 1 -15 -28 -33 -18 -6
9 11 5 -15 -29 -37 -28 -15
8 6 9 -13 -24 -31 -20 -9
0 8 11 -12 -19 -24 -8 0
1 -1 10 -22 -34 -41 -33 -21
4 -4 17 -19 -31 -38 -29 -16
3 0 19 -18 -30 -34 -21 -9
3 1 20 -19 -34 -39 -27 -15
1 -9 22 -23 -41 -48 -41 -25
-2 -3 27 -15 -29 -35 -19 -8
-5 3 27 -17 -31 -37 -24 -14
-7 -4 29 -19 -36 -44 -35 -24
-7 -10 31 -19 -33 -39 -29 -19
-10 -7 29 -19 -28 -33 -19 -11
-11 -17 27 -27 -43 -48 -42 -31
-5 -22 28 -24 -41 -45 -37 -25
-3 -16 26 -24 -40 -41 -27 -18
-5 -17 23 -27 -45 -48 -36 -25
-4 -25 21 -30 -53 -56 -50 -36
-5 -20 21 -26 -41 -43 -28 -17
-5 -12 19 -29 -45 -48 -36 -24
-6 -20 19 -29 -47 -53 -44 -32
-7 -26 22 -26 -43 -48 -37 -26
-7 -17 20 -25 -37 -40 -24 -17
-8 -23 19 -32 -50 -55 -48 -37
-6 -31 21 -30 -49 -52 -43 -32
-6 -27 23 -30 -45 -45 -32 -21
-6 -25 20 -32 -50 -51 -39 -27
-4 -31 17 -35 -57 -59 -52 -39
-8 -28 16 -29 -44 -44 -30 -20
-10 -22 13 -31 -47 -50 -37 -28
-10 -27 13 -30 -49 -53 -46 -35
-14 -34 12 -32 -47 -51 -42 -31
-18 -31 11 -30 -42 -44 -32 -24
-15 -34 11 -35 -55 -59 -53 -42
-8 -36 15 -31 -50 -52 -45 -35
-3 -30 19 -27 -45 -44 -33 -25
-3 -27 19 -22 -47 -48 -39 -31
-1 -32 26 -10 -48 -54 -50 -41
1 -22 38 12 -29 -35 -25 -20
0 -12 44 26 -25 -38 -32 -28
-2 -9 58 53 -11 -33 -34 -34
1 -2 85 100 25 -7 -15 -20
4 12 115 154 73 31 19 1
13 18 133 197 106 55 25 -1
25 22 150 237 153 100 65 27
34 45 154 265 196 147 112 60
43 72 146 270 228 189 145 82
52 88 115 237 241 221 171 101
65 122 73 195 270 282 237 157
80 151 14 135 282 328 280 188
87 167 -59 43 278 366 311 212
88 195 -135 -59 266 402 351 247
80 232 -189 -160 242 421 379 274
62 253 -237 -289 187 396 354 264
43 266 -280 -409 147 388 355 276
30 269 -324 -509 100 375 354 282
20 254 -359 -576 49 344 330 266
9 203 -371 -616 -9 285 274 225
-1 147 -372 -629 -65 221 235 200
-5 102 -377 -616 -110 148 168 148
-13 48 -367 -580 -146 81 102 97
-22 -6 -352 -548 -197 3 39 51
-34 -47 -328 -521 -262 -97 -38 0
-42 -89 -302 -498 -334 -213 -148 -75
-40 -112 -278 -460 -346 -239 -169 -88
-35 -111 -255 -413 -313 -215 -149 -79
-29 -106 -228 -362 -281 -195 -142 -81
-23 -108 -196 -312 -254 -181 -140 -85
-21 -96 -160 -253 -205 -142 -102 -58
-24 -83 -131 -206 -173 -127 -96 -62
-23 -74 -100 -161 -142 -110 -91 -61
-19 -66 -80 -129 -116 -93 -77 -53
-16 -51 -65 -101 -92 -74 -55 -37
-13 -50 -54 -85 -89 -82 -73 -53
-11 -50 -42 -67 -73 -69 -63 -45
-11 -44 -34 -51 -59 -57 -48 -33
-13 -42 -32 -43 -58 -57 -52 -37
-8 -44 -28 -38 -59 -62 -62 -45
-5 -33 -20 -23 -41 -41 -32 -21
-7 -25 -19 -20 -42 -45 -39 -29
-9 -32 -16 -15 -42 -49 -46 -35
-11 -35 -14 -11 -38 -45 -41 -31
-10 -28 -12 -4 -28 -37 -29 -22
-8 -34 -14 -8 -40 -53 -53 -43
-8 -40 -13 -7 -34 -47 -44 -35
-8 -34 -12 -4 -32 -42 -36 -26
-6 -31 -12 -2 -34 -44 -41 -29
-1 -34 -11 -5 -39 -50 -51 -36
1 -24 -6 6 -23 -30 -23 -13
-3 -20 -8 7 -26 -35 -30 -19
-3 -22 -11 7 -29 -40 -40 -31
0 -23 -9 11 -23 -35 -33 -26
-2 -19 -10 13 -16 -28 -22 -19
-4 -29 -15 8 -27 -43 -48 -40
-3 -35 -11 15 -20 -34 -37 -29
-4 -30 -13 11 -19 -30 -29 -22
-4 -28 -18 9 -23 -35 -35 -26
-4 -35 -19 6 -31 -42 -46 -35
-2 -24 -15 14 -18 -25 -20 -13
0 -15 -16 16 -20 -29 -27 -20
0 -19 -14 17 -20 -33 -35 -29
0 -21 -10 20 -15 -29 -32 -25
-1 -13 -10 23 -8 -21 -21 -16
-2 -23 -12 18 -19 -36 -44 -37
-1 -28 -9 20 -12 -30 -35 -29
0 -22 -10 22 -9 -23 -24 -18
1 -19 -11 20 -12 -26 -29 -23
0 -27 -11 19 -17 -32 -38 -31
-3 -22 -10 25 -5 -16 -14 -10
-4 -14 -12 27 -6 -19 -20 -16
-2 -18 -11 29 -6 -23 -28 -24
0 -18 -10 33 0 -17 -22 -19
1 -7 -10 39 10 -9 -10 -12
0 -14 -14 32 -1 -25 -35 -33
2 -19 -14 36 5 -17 -24 -22
3 -16 -16 39 11 -9 -11 -12
2 -14 -20 39 7 -12 -18 -18
4 -17 -19 38 4 -17 -26 -24
4 -10 -16 48 19 2 3 0
3 -3 -16 51 19 -1 -4 -8
5 -5 -15 55 21 -4 -11 -14
3 -9 -15 59 27 1 -6 -10
3 -2 -13 64 37 9 4 -2
2 -8 -14 61 30 -4 -19 -21
4 -11 -10 69 39 7 -6 -10
7 -4 -10 73 46 17 6 -1
6 -3 -12 74 45 16 2 -5
6 -8 -12 76 41 12 -7 -12
7 2 -7 89 60 34 23 12
8 11 -5 95 62 34 18 7
11 9 -2 102 66 33 13 1
10 8 0 110 75 41 21 6
9 13 4 120 90 52 34 16
12 9 0 117 81 39 10 -6
12 4 4 125 92 50 24 5
13 13 6 131 100 58 35 15
18 21 6 136 102 59 32 11
18 17 7 138 102 57 27 6
17 26 11 149 118 79 56 29
13 33 11 154 119 77 50 23
13 30 13 158 121 75 43 16
18 36 17 166 131 83 53 24
17 44 19 173 138 90 65 32
15 32 16 167 126 74 38 9
16 27 21 171 133 84 50 20
14 30 22 172 137 89 59 28
15 32 24 172 134 87 53 23
20 34 30 171 130 82 46 19
20 47 36 180 144 99 72 40
20 53 35 178 139 92 64 33
18 46 37 179 138 89 57 26
17 46 37 180 139 91 62 30
16 54 39 180 142 96 71 37
16 45 36 172 129 78 45 15
17 40 36 171 130 81 52 23
16 42 35 168 130 84 60 30
13 39 32 163 123 78 50 22
13 34 32 161 117 71 41 17
13 45 36 166 127 86 66 38
13 49 34 161 120 77 55 28
11 44 33 159 114 70 46 21
9 41 34 157 115 70 50 25
8 47 34 156 118 74 57 30
10 39 28 145 100 55 30 7
8 30 27 141 100 58 37 16
8 33 26 135 99 60 44 22
7 33 20 126 90 51 34 14
6 24 17 118 77 40 21 6
4 32 18 120 85 54 43 26
3 35 11 113 75 44 31 16
2 31 7 106 68 35 19 6
3 29 5 102 66 35 23 10
2 32 0 99 67 39 31 14
2 20 -5 87 50 19 4 -6
3 13 -7 83 51 23 13 3
4 18 -13 74 47 23 18 7
4 19 -19 68 38 17 10 0
-1 4 -25 59 26 4 -4 -8
1 14 -25 60 35 19 21 12
3 20 -32 53 25 9 8 1
0 11 -35 46 18 0 -4 -9
0 8 -36 44 18 2 1 -4
-3 11 -41 41 20 5 8 2
-2 -1 -47 29 3 -14 -20 -21
-2 -7 -49 28 4 -10 -9 -11
-4 -4 -55 21 2 -9 -4 -7
-4 -3 -59 16 -5 -15 -12 -13
-2 -8 -61 10 -13 -22 -21 -19
-3 -1 -60 15 -2 -7 3 3
-4 3 -65 9 -11 -17 -9 -9
-7 -3 -65 4 -16 -24 -18 -17
-6 -5 -66 4 -14 -22 -16 -15
-4 1 -66 7 -9 -15 -6 -7
-4 -9 -72 -4 -24 -34 -34 -30
-6 -15 -67 -2 -18 -26 -22 -19
-7 -11 -70 -4 -17 -22 -15 -13
-6 -11 -74 -8 -24 -28 -23 -21
-3 -14 -73 -11 -30 -34 -31 -26
-4 -6 -72 -4 -17 -18 -5 -3
-7 -2 -75 -5 -22 -25 -16 -13
-8 -5 -73 -4 -23 -29 -24 -20
-7 -8 -70 -3 -19 -25 -18 -16
-8 -4 -69 0 -12 -18 -9 -9
-7 -13 -72 -8 -25 -34 -35 -30
-8 -18 -68 -5 -21 -28 -25 -22
-8 -13 -68 -4 -18 -23 -17 -16
-9 -11 -71 -7 -23 -28 -24 -22
-6 -15 -68 -7 -25 -32 -31 -26
-6 -4 -63 2 -11 -14 -3 -3
-8 -1 -66 -1 -17 -22 -14 -14
-8 -7 -62 2 -16 -25 -20 -19
-9 -9 -58 6 -10 -20 -13 -14
-6 0 -56 10 -3 -12 -6 -7
0 -3 -56 6 -12 -26 -28 -25
-3 -10 -55 6 -9 -21 -20 -17
-2 -2 -55 6 -8 -17 -13 -12
-1 -1 -52 6 -9 -19 -17 -15
2 -5 -51 5 -14 -23 -24 -20
3 5 -45 14 1 -6 3 2
-2 6 -47 12 -6 -14 -8 -8
-3 -1 -45 13 -7 -18 -15 -13
-1 1 -42 15 -2 -12 -7 -8
-3 6 -42 16 1 -7 0 -2
-3 -2 -45 9 -13 -25 -27 -24
-2 -8 -45 11 -8 -17 -15 -14
-5 -7 -47 10 -7 -14 -10 -9
-4 -5 -47 7 -11 -18 -16 -13
-4 -10 -47 6 -17 -24 -24 -21
0 3 -44 13 -3 -6 4 1
0 9 -43 13 -6 -11 -5 -7
-1 2 -42 10 -11 -17 -14 -14
0 1 -40 12 -8 -14 -10 -11
-2 5 -40 14 -2 -8 0 -3
-6 -4 -41 8 -15 -24 -23 -23
-1 -8 -37 7 -11 -18 -15 -13
-2 -6 -39 6 -11 -16 -10 -9
-4 -5 -40 2 -16 -22 -18 -16
-1 -10 -41 0 -20 -27 -24 -20
-1 -2 -36 6 -7 -9 1 1
-5 -1 -39 3 -15 -20 -12 -10
-6 -6 -36 1 -17 -25 -21 -17
-6 -7 -33 4 -13 -21 -15 -12
-5 0 -33 4 -10 -17 -7 -6
-5 -9 -35 -3 -22 -33 -32 -26
-4 -14 -33 -3 -19 -28 -22 -18
-5 -9 -34 -4 -18 -24 -15 -11
-7 -10 -35 -9 -24 -30 -24 -19
-4 -14 -36 -10 -31 -36 -31 -24
-4 -6 -32 -3 -18 -18 -4 -2
-7 -4 -36 -8 -26 -28 -20 -14
-6 -7 -36 -8 -28 -32 -27 -20
-6 -9 -36 -7 -23 -27 -20 -15
-7 -5 -36 -6 -21 -24 -15 -11
-7 -15 -36 -12 -33 -38 -37 -30
-9 -22 -34 -12 -29 -33 -29 -22
-8 -18 -36 -13 -28 -31 -22 -15
-6 -14 -36 -14 -34 -35 -29 -20
-4 -20 -35 -16 -37 -40 -35 -24
-4 -8 -31 -9 -23 -23 -9 -3
-6 -3 -33 -13 -30 -31 -22 -13
-7 -11 -32 -13 -33 -37 -30 -21
-6 -11 -30 -11 -28 -31 -23 -14
-4 0 -29 -10 -24 -28 -17 -10
-3 -8 -30 -14 -34 -41 -39 -30
-4 -16 -27 -11 -29 -33 -26 -19
-7 -11 -27 -13 -29 -30 -21 -14
-7 -7 -26 -13 -31 -34 -27 -19
-6 -13 -26 -15 -36 -38 -33 -22
-2 1 -22 -7 -23 -21 -7 -1
-2 7 -22 -11 -26 -28 -18 -11
-6 0 -20 -11 -31 -33 -29 -18
-6 -3 -17 -9 -27 -29 -24 -14
-6 4 -17 -7 -23 -25 -16 -9
-9 -6 -20 -15 -35 -42 -40 -29
-9 -9 -18 -11 -30 -34 -30 -18
-4 1 -17 -11 -26 -30 -22 -12
-3 7 -16 -12 -29 -32 -27 -17
-2 5 -14 -13 -31 -35 -31 -18
-2 15 -12 -7 -19 -18 -5 3
-6 20 -18 -12 -25 -27 -18 -7
-5 19 -17 -11 -25 -27 -22 -10
-2 23 -13 -7 -19 -22 -14 -3
-3 28 -13 -8 -17 -19 -9 0
-3 17 -17 -18 -34 -39 -36 -22
0 13 -14 -18 -33 -33 -27 -13
0 16 -15 -19 -31 -30 -20 -7
-1 15 -16 -22 -36 -35 -28 -14
2 8 -14 -22 -38 -36 -30 -14
3 14 -11 -17 -27 -22 -7 4
2 16 -12 -20 -33 -29 -17 -6
3 13 -8 -19 -35 -32 -25 -12
3 8 -5 -16 -30 -27 -15 -5
1 9 -5 -17 -31 -28 -15 -5
-1 -3 -6 -25 -44 -43 -37 -24
-3 -11 -3 -25 -41 -40 -32 -19
-2 -5 -1 -22 -36 -34 -22 -10
-2 -5 -1 -23 -40 -38 -30 -16
-1 -11 -1 -25 -44 -42 -35 -21
-1 -1 1 -18 -30 -25 -9 0
-7 2 -3 -23 -38 -34 -23 -12
-9 -1 -1 -22 -40 -38 -31 -18
-7 -3 0 -20 -35 -33 -22 -11
-11 -4 -2 -22 -35 -33 -20 -10
-10 -16 -4 -30 -49 -50 -46 -32
-7 -22 -2 -29 -44 -43 -35 -22
-6 -18 -2 -30 -44 -42 -30 -18
-6 -19 -4 -34 -50 -48 -38 -25
-6 -29 -4 -36 -54 -53 -45 -31
-8 -21 -5 -31 -43 -39 -22 -12
-8 -15 -7 -34 -50 -47 -34 -23
-8 -19 -8 -34 -53 -51 -42 -29
-7 -23 -6 -32 -48 -46 -35 -23
-8 -19 -6 -30 -45 -41 -28 -18
-11 -31 -8 -37 -58 -58 -52 -38
-11 -38 -6 -34 -53 -50 -39 -28
-11 -35 -7 -36 -52 -49 -36 -24
-9 -32 -8 -39 -57 -55 -46 -33
-11 -40 -7 -41 -59 -58 -51 -36
-14 -29 -4 -33 -46 -41 -24 -14
-6 -20 -6 -34 -52 -47 -37 -25
-8 -26 -4 -34 -54 -51 -43 -30
-10 -27 -4 -31 -50 -47 -35 -24
-9 -19 -5 -31 -47 -43 -29 -20
-10 -31 -7 -38 -59 -58 -54 -41
-6 -33 -5 -35 -53 -50 -41 -29
-6 -30 -4 -33 -50 -45 -33 -23
-9 -34 -5 -34 -55 -52 -43 -31
-6 -41 1 -25 -54 -52 -46 -34
-5 -31 9 -7 -38 -35 -22 -14
-4 -23 16 6 -37 -40 -34 -26
-2 -19 31 27 -29 -39 -36 -29
-1 -9 50 61 -6 -22 -22 -19
2 4 78 111 34 5 1 -5
6 5 102 156 64 21 1 -12
16 12 123 206 115 69 42 17
28 29 134 247 163 115 85 45
38 47 138 265 198 154 114 63
47 66 131 266 229 197 150 88
53 99 101 236 258 254 213 138
62 124 52 181 267 290 242 159
76 140 -2 116 277 336 282 189
84 164 -77 21 277 384 333 229
84 198 -146 -80 264 415 367 257
74 217 -199 -197 223 412 359 256
59 241 -240 -316 189 415 375 278
40 259 -285 -429 154 411 380 289
30 252 -325 -518 104 394 363 278
20 224 -356 -576 56 364 338 261
7 189 -361 -602 13 324 315 247
-3 133 -368 -623 -61 233 236 189
-7 79 -367 -601 -104 160 166 137
-10 31 -355 -565 -139 94 113 97
-23 -16 -332 -538 -198 5 43 48
-38 -71 -307 -524 -284 -125 -76 -32
-43 -104 -278 -491 -332 -210 -141 -70
-41 -112 -257 -455 -338 -228 -154 -79
-35 -111 -235 -410 -311 -213 -151 -85
-30 -114 -207 -357 -277 -190 -141 -81
-28 -102 -171 -299 -231 -152 -102 -56
-29 -94 -137 -250 -203 -143 -104 -65
-27 -87 -104 -201 -171 -125 -97 -64
-25 -75 -75 -157 -136 -101 -76 -51
-21 -57 -57 -124 -113 -85 -61 -42
-20 -64 -47 -108 -110 -94 -83 -60
-16 -62 -30 -84 -86 -75 -62 -44
-15 -52 -21 -67 -70 -63 -50 -34
-11 -44 -15 -56 -66 -63 -54 -39
-8 -45 -10 -46 -60 -59 -53 -39
-10 -35 -6 -33 -45 -40 -25 -16
-11 -30 -6 -28 -50 -47 -37 -26
-8 -32 -2 -19 -48 -47 -39 -29
-11 -33 0 -12 -40 -41 -30 -21
-11 -28 -1 -7 -37 -40 -28 -22
-12 -40 -4 -11 -50 -58 -56 -45
-10 -43 -4 -8 -41 -49 -45 -35
-7 -36 -5 -6 -36 -43 -36 -27
-8 -36 -9 -9 -41 -50 -46 -36
-10 -45 -10 -8 -43 -50 -49 -37
-8 -33 -8 0 -27 -30 -20 -13
-7 -26 -7 0 -33 -38 -32 -23
-4 -27 -4 4 -35 -39 -37 -27
-6 -28 -2 10 -28 -33 -27 -19
-8 -23 -2 11 -24 -32 -25 -19
-8 -34 -5 5 -39 -50 -52 -41
-7 -38 -4 8 -31 -42 -39 -31
-6 -34 -5 7 -27 -37 -34 -25
-7 -35 -7 4 -31 -41 -41 -32
-8 -43 -7 3 -34 -43 -44 -34
-3 -26 -2 11 -18 -24 -15 -10
-5 -23 -6 8 -27 -33 -30 -22
-9 -29 1 14 -26 -34 -34 -25
-8 -28 8 20 -18 -26 -23 -17
-6 -22 8 21 -16 -24 -21 -18
-5 -31 10 16 -26 -40 -45 -37
-5 -33 12 20 -15 -29 -30 -24
-4 -29 8 18 -14 -26 -24 -20
-3 -26 5 16 -18 -31 -32 -27
0 -29 5 17 -18 -30 -33 -27
-1 -17 4 24 -5 -12 -7 -7
-3 -14 3 22 -11 -20 -19 -18
-4 -20 3 25 -12 -23 -26 -22
-3 -18 6 31 -4 -14 -15 -13
-2 -12 5 35 1 -11 -9 -10
-3 -25 1 29 -11 -28 -37 -32
0 -26 4 37 1 -16 -19 -17
-1 -19 1 34 4 -12 -13 -13
0 -16 -5 32 -2 -18 -24 -22
1 -21 -4 35 0 -15 -22 -20
0 -10 -2 42 14 2 3 1
-1 -5 -5 42 9 -5 -9 -10
0 -11 -3 49 13 -3 -10 -12
-3 -15 1 56 22 5 1 -3
-3 -8 0 60 26 7 2 -3
-1 -16 -3 57 17 -8 -21 -22
2 -17 1 66 31 6 -3 -8
4 -10 0 69 39 13 6 -2
7 -9 -5 68 33 7 -4 -11
9 -11 -4 73 37 10 -2 -9
7 0 -2 83 53 30 26 13
5 6 -2 85 49 24 13 2
8 4 5 94 56 27 12 0
6 4 7 104 66 35 24 9
3 8 8 110 72 38 26 9
0 -6 6 108 64 25 3 -11
5 -5 11 119 79 41 21 4
17 13 15 126 91 51 33 14
20 14 14 128 89 49 27 8
17 8 17 133 95 52 28 9
18 23 22 147 115 76 59 34
17 30 19 147 109 69 47 21
17 29 23 155 112 70 44 19
15 28 30 165 126 81 58 31
12 30 31 168 129 83 59 30
13 21 29 165 119 67 34 9
15 20 34 174 130 80 52 23
16 27 35 174 134 86 59 29
16 29 33 170 130 81 51 23
15 24 35 170 129 80 50 24
14 38 39 178 142 98 77 46
15 44 39 176 134 89 64 34
12 39 43 178 132 87 59 30
14 42 45 180 136 91 66 34
13 47 46 180 135 90 67 34
12 34 47 172 122 71 40 13
14 33 48 174 129 80 52 24
14 37 45 169 128 80 57 29
14 36 46 164 121 74 47 21
14 32 47 162 119 72 44 20
10 41 46 165 128 86 68 39
9 43 46 160 118 76 53 26
10 39 47 160 114 70 47 23
6 34 46 159 116 73 55 29
5 39 46 157 114 71 54 28
9 30 44 147 99 53 27 7
12 30 45 148 105 60 42 20
11 32 39 141 102 59 44 22
9 30 34 134 92 50 31 12
10 24 31 126 87 46 27 10
9 36 29 127 95 60 51 31
8 37 26 119 83 48 35 17
5 30 24 115 76 41 28 12
3 26 21 110 75 42 35 18
0 29 16 103 70 38 32 14
4 19 15 95 57 21 7 -5
4 13 13 92 59 26 19 7
1 13 8 83 54 23 19 8
0 11 4 71 41 12 6 -4
3 6 1 65 35 8 2 -5
2 15 0 66 43 21 26 15
0 16 -3 57 30 10 9 2
2 14 -4 53 25 4 3 -2
0 13 -6 51 25 8 12 5
-4 11 -9 45 21 5 10 3
-3 -3 -15 32 4 -16 -19 -20
-4 -8 -16 32 10 -8 -4 -7
-4 -6 -20 26 8 -8 -3 -4
-3 -8 -23 20 0 -15 -12 -13
-1 -13 -25 15 -6 -19 -17 -15
-3 -2 -25 19 5 -4 6 6
-5 -1 -30 10 -7 -16 -10 -9
-7 -9 -30 6 -13 -22 -18 -15
-8 -10 -27 8 -9 -17 -9 -8
-12 -9 -29 6 -10 -19 -10 -10
-12 -21 -32 -3 -24 -37 -36 -31
-9 -21 -30 0 -15 -27 -20 -16
-5 -12 -33 -4 -15 -26 -17 -13
-5 -14 -35 -9 -22 -33 -27 -22
-5 -21 -34 -9 -23 -33 -27 -21
-8 -9 -31 -5 -12 -18 -5 -3
-6 -3 -31 -7 -18 -28 -19 -15
-7 -10 -25 -4 -18 -28 -21 -18
-8 -7 -23 -2 -14 -23 -13 -12
-11 -1 -22 -2 -12 -23 -13 -12
-9 -15 -21 -7 -24 -40 -38 -32
-4 -14 -17 -2 -15 -27 -21 -17
-5 -9 -18 -3 -11 -24 -15 -12
-7 -12 -17 -6 -18 -30 -25 -21
-3 -15 -15 -5 -17 -30 -24 -19
-5 -3 -13 3 -4 -13 2 1
-9 -5 -14 -1 -12 -22 -12 -13
-6 -7 -11 4 -11 -21 -14 -14
-5 -5 -8 8 -5 -16 -4 -5
-7 -3 -8 9 -4 -15 -5 -7
-8 -14 -9 5 -15 -30 -29 -26
-4 -11 -10 7 -8 -21 -15 -15
-3 -5 -11 7 -4 -17 -9 -9
-5 -9 -15 4 -11 -23 -18 -18
-5 -15 -15 5 -10 -22 -18 -15
-5 -1 -13 12 3 -6 7 4
-6 0 -15 9 -4 -15 -7 -8
-3 -2 -11 13 -5 -14 -10 -10
-5 -2 -9 16 1 -9 -1 -2
-8 1 -10 17 2 -10 -2 -3
-5 -9 -10 11 -9 -25 -26 -23
-2 -10 -9 13 -3 -17 -13 -12
-3 -6 -11 12 -2 -15 -9 -9
-2 -6 -12 7 -9 -21 -19 -18
-2 -12 -12 7 -9 -21 -18 -17
-3 1 -11 14 4 -4 7 4
-5 2 -14 11 -4 -14 -7 -8
-3 -3 -11 13 -5 -14 -11 -11
-3 -5 -9 16 1 -8 0 -2
-6 -1 -10 16 0 -9 -3 -4
-5 -11 -12 9 -12 -26 -28 -24
-3 -13 -12 10 -8 -18 -14 -13
-4 -8 -14 7 -8 -20 -13 -11
-5 -11 -16 2 -16 -27 -24 -20
-5 -16 -14 1 -17 -27 -22 -19
1 1 -10 9 -3 -9 3 3
-1 3 -12 6 -9 -17 -10 -8
-3 -5 -11 6 -13 -22 -15 -14
-2 -6 -10 8 -9 -16 -5 -5
-4 -2 -11 6 -9 -17 -7 -7
-6 -14 -14 -1 -23 -35 -33 -27
-4 -17 -11 1 -16 -26 -18 -15
-4 -13 -12 0 -15 -26 -16 -12
-4 -14 -14 -5 -24 -35 -29 -23
0 -16 -13 -7 -22 -32 -26 -19
-2 -5 -12 -2 -12 -18 -3 -1
-4 -2 -13 -7 -22 -28 -18 -15
-5 -8 -10 -6 -22 -30 -20 -16
-6 -10 -9 -2 -17 -25 -11 -8
-7 -8 -10 -4 -18 -26 -13 -10
-9 -22 -11 -10 -30 -42 -35 -28
-7 -22 -10 -9 -24 -34 -22 -17
-7 -19 -11 -12 -24 -33 -21 -15
-8 -20 -13 -19 -33 -43 -34 -27
-4 -21 -11 -18 -32 -41 -33 -24
-3 -7 -8 -12 -20 -26 -9 -5
-4 -6 -10 -15 -30 -36 -24 -19
-6 -11 -7 -15 -32 -39 -28 -22
-8 -13 -4 -11 -26 -31 -17 -12
-11 -11 -3 -12 -26 -33 -20 -16
-10 -24 -2 -16 -36 -46 -41 -32
-8 -24 1 -15 -30 -39 -28 -20
-2 -15 3 -15 -27 -35 -23 -16
-6 -14 3 -19 -33 -43 -34 -25
-5 -15 7 -17 -31 -41 -31 -22
-2 -2 11 -11 -19 -25 -8 -2
-3 1 12 -12 -24 -32 -20 -13
-3 1 13 -11 -26 -35 -25 -18
-4 -1 17 -7 -20 -29 -14 -9
-9 -4 16 -9 -22 -31 -18 -12
-8 -15 18 -13 -32 -45 -38 -29
-6 -15 21 -9 -24 -35 -24 -16
-5 -8 20 -11 -23 -33 -21 -13
-5 -6 20 -15 -28 -39 -30 -21
-1 -7 22 -13 -26 -36 -26 -17
4 11 25 -6 -12 -20 -2 4
0 13 25 -9 -20 -27 -16 -9
-3 7 30 -7 -20 -29 -19 -12
-2 11 31 -3 -14 -21 -9 -2
-5 17 27 -6 -14 -22 -11 -4
-3 11 25 -13 -25 -38 -33 -23
1 14 27 -7 -15 -26 -16 -6
-1 17 24 -12 -16 -27 -14 -4
-1 12 18 -20 -26 -39 -29 -17
0 6 17 -21 -26 -37 -26 -14
-2 14 18 -17 -16 -23 -3 4
-2 18 16 -20 -23 -31 -17 -7
-1 12 13 -19 -25 -34 -22 -10
2 13 13 -16 -20 -28 -12 -3
0 13 11 -15 -21 -30 -14 -6
4 2 8 -23 -34 -45 -39 -25
4 -3 10 -18 -26 -35 -24 -13
4 -2 9 -20 -26 -34 -21 -11
2 -6 6 -26 -34 -44 -33 -22
3 -7 8 -26 -33 -41 -30 -18
2 5 9 -19 -20 -25 -6 1
0 4 8 -22 -27 -34 -20 -12
-3 -5 8 -19 -28 -36 -24 -15
-6 -4 9 -16 -23 -30 -14 -9
-8 0 7 -16 -25 -32 -19 -13
-9 -15 6 -23 -36 -47 -42 -31
-12 -22 5 -22 -31 -41 -31 -21
-11 -21 1 -25 -32 -42 -30 -21
-5 -19 0 -30 -40 -49 -40 -30
0 -21 0 -29 -38 -47 -37 -27
-6 -12 0 -24 -27 -32 -13 -8
-8 -14 -6 -31 -37 -45 -31 -23
-8 -21 -4 -29 -39 -47 -34 -27
-7 -20 -2 -25 -32 -39 -23 -17
-10 -18 -5 -28 -35 -44 -28 -21
-10 -32 -6 -33 -46 -59 -51 -39
-11 -32 -5 -30 -41 -51 -37 -29
-11 -29 -6 -33 -41 -51 -36 -28
-10 -36 -5 -37 -49 -58 -47 -36
-8 -40 -4 -36 -48 -55 -45 -33
-9 -24 -1 -31 -37 -40 -21 -15
-12 -24 -1 -34 -44 -48 -35 -26
-9 -30 2 -31 -44 -50 -37 -30
-8 -28 6 -26 -37 -41 -25 -18
-11 -25 4 -27 -38 -44 -28 -22
-11 -38 1 -34 -51 -61 -52 -42
-11 -40 5 -29 -42 -50 -36 -28
-10 -35 4 -31 -41 -49 -35 -26
-10 -37 1 -38 -50 -59 -49 -39
-9 -41 2 -37 -49 -56 -44 -35
-10 -30 6 -29 -38 -41 -22 -16
-8 -29 9 -28 -42 -49 -36 -30
-8 -36 17 -18 -41 -49 -38 -32
-7 -31 28 -1 -29 -39 -25 -24
-8 -23 38 15 -24 -38 -27 -25
-8 -30 47 29 -27 -50 -49 -43
-1 -18 67 67 2 -28 -26 -26
2 -2 91 114 38 -2 -7 -15
8 5 116 164 77 25 7 -10
19 9 135 213 127 72 45 15
27 33 145 254 182 126 100 52
37 56 149 272 214 162 124 67
48 77 139 269 247 210 163 94
57 102 107 230 269 259 216 135
71 132 61 177 285 305 257 168
84 139 2 103 283 340 283 187
91 160 -72 7 286 391 338 230
91 192 -140 -96 271 422 373 258
77 219 -190 -212 233 423 375 265
58 241 -233 -332 194 418 380 279
40 263 -274 -436 169 424 397 299
26 251 -313 -521 115 401 373 280
15 222 -335 -568 73 372 345 260
0 171 -335 -594 18 315 302 229
-8 115 -338 -607 -52 230 230 178
-11 57 -334 -585 -101 146 148 118
-14 9 -316 -552 -137 82 99 83
-22 -33 -294 -530 -204 -15 25 33
-33 -76 -268 -514 -285 -142 -85 -39
-42 -110 -240 -484 -331 -220 -148 -75
-39 -107 -217 -439 -315 -214 -134 -66
-36 -108 -195 -394 -289 -199 -137 -78
-32 -109 -162 -341 -256 -177 -128 -76
-30 -101 -129 -285 -216 -150 -103 -61
-28 -89 -97 -236 -187 -134 -97 -62
-29 -95 -65 -194 -165 -130 -110 -76
-26 -88 -40 -150 -129 -102 -82 -55
-23 -76 -29 -123 -109 -90 -70 -49
-16 -66 -19 -103 -100 -89 -77 -56
-11 -61 -5 -79 -79 -74 -61 -44
-9 -42 4 -57 -53 -51 -33 -22
-14 -42 7 -49 -53 -56 -45 -35
-19 -49 8 -40 -50 -54 -47 -38
-13 -39 14 -26 -37 -41 -28 -23
-12 -31 14 -21 -39 -43 -33 -26
-14 -44 13 -22 -50 -61 -58 -46
-11 -42 15 -13 -41 -50 -43 -33
-9 -37 16 -10 -38 -48 -40 -32
-7 -40 14 -10 -42 -57 -54 -43
-4 -42 15 -5 -35 -49 -45 -35
-5 -30 14 0 -21 -34 -22 -17
-7 -28 12 -2 -28 -41 -36 -30
-7 -35 14 3 -26 -40 -35 -28
-9 -33 15 8 -19 -30 -21 -17
-10 -28 15 7 -22 -34 -27 -21
-9 -40 16 5 -34 -48 -51 -39
-9 -42 17 9 -27 -41 -37 -28
-8 -38 16 9 -25 -39 -33 -26
-8 -41 15 7 -30 -48 -48 -38
-5 -43 15 9 -26 -44 -42 -33
-5 -30 14 13 -13 -27 -17 -14
-4 -28 11 10 -19 -35 -32 -26
-1 -29 13 13 -18 -34 -31 -26
-6 -28 18 20 -8 -22 -14 -12
-10 -25 18 20 -11 -25 -20 -17
-5 -36 17 16 -23 -40 -42 -34
-6 -38 20 21 -15 -31 -27 -22
-4 -32 18 20 -13 -31 -26 -22
-5 -34 16 16 -20 -40 -41 -35
-4 -36 18 18 -15 -36 -36 -31
-1 -18 16 23 -1 -19 -12 -12
-3 -18 14 21 -7 -27 -26 -25
-4 -24 17 25 -5 -25 -26 -24
-5 -22 19 29 3 -14 -9 -10
-9 -21 16 29 -2 -18 -16 -15
-9 -35 18 29 -12 -33 -38 -33
-5 -33 22 32 -3 -22 -22 -18
-1 -22 22 33 1 -20 -19 -18
1 -25 22 32 -4 -27 -33 -29
1 -29 22 36 4 -20 -24 -22
-2 -17 21 41 18 -4 -3 -5
-2 -16 19 40 13 -10 -15 -18
-4 -22 20 43 14 -8 -15 -18
-2 -13 21 49 23 4 1 -4
-4 -8 19 50 20 1 -4 -9
-2 -20 20 49 12 -12 -24 -25
2 -17 23 57 23 1 -6 -9
2 -12 23 59 28 3 -2 -7
1 -17 22 59 24 -5 -16 -20
4 -17 25 65 33 4 -6 -12
5 -3 28 74 49 21 18 7
9 3 28 75 47 16 5 -4
7 0 33 82 50 20 7 -3
8 6 36 90 62 33 24 11
7 8 38 94 63 33 21 8
5 -5 40 96 55 21 1 -10
7 -7 45 106 68 36 18 5
9 1 47 112 76 41 25 9
10 -1 47 112 73 35 11 -2
15 0 51 122 84 46 23 7
12 12 54 131 100 64 47 25
13 19 56 133 100 59 35 12
16 19 62 143 107 66 39 15
15 23 66 151 119 79 56 29
14 27 68 155 118 77 51 23
16 18 72 157 112 69 33 8
17 19 79 166 125 81 51 23
19 25 80 171 129 84 55 26
18 21 81 168 124 78 42 15
20 20 81 172 132 84 50 21
18 36 83 180 146 101 73 41
13 35 82 175 139 93 60 28
14 32 84 177 139 93 58 26
11 33 85 183 148 104 75 41
7 34 83 180 141 97 65 33
10 25 85 177 130 84 44 16
15 29 87 181 136 92 58 29
16 35 85 178 137 92 59 30
16 35 84 173 129 82 45 18
17 31 84 173 132 85 53 25
16 42 83 175 143 99 73 42
14 42 82 172 135 90 59 31
12 38 82 170 132 88 56 28
11 42 82 171 136 95 69 41
8 45 81 165 127 87 58 33
9 32 80 158 112 69 33 14
9 31 81 161 117 77 47 26
10 33 79 156 115 75 47 26
13 30 76 149 105 63 31 13
13 28 73 146 105 66 38 18
11 39 70 143 112 76 55 32
9 38 69 137 102 66 41 22
4 32 67 133 96 62 37 19
3 32 67 131 99 67 48 29
5 35 64 124 91 58 39 22
3 18 60 115 73 40 14 3
5 17 61 112 74 45 27 15
6 21 55 105 70 42 25 14
6 16 49 94 57 28 7 -1
8 14 46 90 58 30 13 5
5 21 45 89 64 42 33 20
1 17 39 78 51 29 14 5
-2 10 39 74 47 27 14 5
-3 12 38 71 49 32 25 16
-2 15 37 63 39 24 15 7
-2 1 36 54 22 6 -9 -11
-2 -2 36 52 24 10 3 -1
-1 2 33 44 20 7 0 -2
-2 -7 29 33 6 -7 -18 -18
-2 -12 28 32 9 -4 -12 -10
-2 0 26 32 18 8 7 5
-4 -1 21 24 7 -3 -8 -8
-6 -7 20 22 5 -4 -9 -9
-9 -5 17 21 10 3 5 2
-11 -4 12 14 -1 -7 -8 -7
-9 -16 11 9 -13 -20 -27 -22
-8 -18 10 10 -8 -14 -13 -10
-7 -15 6 5 -10 -15 -14 -10
-5 -17 2 -1 -19 -27 -31 -23
-5 -18 0 -2 -16 -23 -26 -18
-5 -5 0 2 -6 -10 -5 -3
-7 -7 -3 -3 -13 -19 -19 -15
-7 -10 -2 -2 -14 -18 -19 -16
-4 -3 0 3 -4 -6 -2 -1
-9 -4 -2 -1 -11 -14 -13 -10
-9 -17 -3 -5 -24 -29 -33 -26
-6 -15 0 0 -15 -20 -17 -12
-5 -12 -2 -1 -13 -19 -16 -10
-3 -15 -4 -4 -21 -28 -31 -23
-5 -20 -2 -1 -14 -23 -22 -15
-8 -9 -3 2 -4 -11 -4 -2
-7 -7 -4 1 -7 -16 -16 -13
-8 -10 -3 1 -9 -16 -18 -14
-6 -3 0 7 0 -6 -2 0
-6 0 -1 6 -4 -10 -10 -8
-7 -14 -1 4 -12 -22 -29 -22
-3 -12 2 10 -5 -12 -13 -9
-5 -10 0 9 -4 -11 -11 -7
-2 -14 -3 4 -13 -22 -28 -21
-2 -16 -1 9 -5 -14 -17 -13
-5 -5 -3 13 5 -2 1 1
-5 -3 -4 12 1 -9 -12 -10
-4 -3 -4 13 0 -9 -13 -12
-6 -1 -2 17 6 0 1 0
-5 2 -1 14 1 -7 -8 -7
-7 -12 1 11 -10 -19 -27 -21
-7 -14 3 16 -3 -10 -11 -9
-6 -9 2 16 -1 -9 -10 -6
-3 -13 -1 11 -10 -20 -26 -20
0 -12 2 16 -2 -11 -15 -10
2 3 -2 18 8 2 5 4
-2 0 -5 13 0 -8 -10 -7
-2 -6 -4 13 -2 -8 -12 -9
-10 -6 -2 17 7 1 4 4
-7 -2 -1 16 1 -5 -5 -4
1 -10 2 13 -8 -15 -22 -17
-1 -12 2 14 -4 -8 -10 -7
-1 -7 2 13 -4 -8 -10 -5
-1 -10 0 8 -13 -18 -25 -19
1 -10 0 10 -8 -13 -17 -11
3 6 -2 11 1 -2 1 3
0 3 -3 7 -5 -10 -12 -8
-2 -3 -1 7 -7 -11 -14 -9
-5 -2 0 9 0 -2 0 3
-7 -1 -3 4 -9 -12 -11 -8
-4 -11 -2 2 -18 -24 -30 -22
-2 -12 1 5 -13 -14 -15 -9
-2 -8 -3 2 -15 -18 -17 -10
-1 -10 -3 -1 -23 -29 -33 -23
2 -14 -1 1 -17 -21 -22 -13
-1 -5 -2 3 -8 -10 -2 0
-3 -6 -4 -1 -14 -18 -14 -10
-4 -11 -3 -2 -16 -20 -17 -13
-4 -8 -1 1 -10 -11 -4 -2
-6 -7 -3 -2 -18 -19 -15 -11
-5 -17 -3 -7 -29 -32 -34 -25
-3 -17 0 -3 -22 -23 -19 -13
-7 -16 -2 -7 -24 -26 -21 -14
-6 -20 -6 -12 -34 -38 -39 -28
-2 -19 -5 -9 -28 -30 -27 -17
-2 -7 -6 -8 -18 -19 -10 -4
-3 -8 -7 -10 -24 -26 -22 -15
-5 -12 -7 -11 -25 -26 -23 -15
-6 -9 -4 -8 -19 -18 -9 -3
-9 -11 -5 -11 -25 -23 -19 -12
-9 -24 -5 -15 -37 -36 -36 -25
-6 -23 -3 -12 -30 -28 -23 -12
-4 -18 -4 -13 -30 -29 -23 -13
-3 -20 -6 -18 -39 -40 -40 -27
0 -19 -4 -13 -32 -33 -29 -18
-2 -6 -4 -11 -22 -22 -11 -5
-2 -9 -6 -16 -29 -29 -24 -16
-3 -13 -2 -14 -27 -27 -23 -16
-5 -8 2 -9 -18 -18 -8 -2
-4 -5 2 -11 -25 -25 -18 -11
-6 -16 5 -12 -31 -34 -33 -21
-8 -13 9 -7 -24 -26 -19 -8
-4 -8 8 -9 -25 -27 -20 -8
-4 -12 5 -14 -33 -38 -38 -22
-1 -11 6 -12 -27 -32 -28 -14
-3 2 7 -9 -19 -21 -12 -1
-7 -1 7 -13 -26 -30 -26 -15
-9 -4 8 -11 -25 -28 -26 -15
-4 4 13 -5 -16 -16 -9 1
-9 2 11 -9 -23 -23 -19 -8
-5 -7 12 -12 -31 -34 -34 -19
-3 -1 16 -6 -22 -22 -18 -4
-4 3 15 -5 -22 -23 -17 -4
-3 2 10 -10 -29 -33 -32 -17
0 6 11 -8 -21 -26 -21 -6
-1 23 9 -6 -12 -14 -3 7
-2 24 7 -9 -17 -22 -16 -2
-3 19 5 -12 -21 -23 -19 -4
-2 21 5 -11 -16 -17 -5 6
-4 19 3 -15 -23 -25 -16 -3
-2 6 0 -19 -35 -37 -34 -17
1 10 3 -16 -26 -27 -18 -2
2 15 -1 -17 -28 -29 -19 -4
6 10 -2 -21 -36 -39 -34 -16
10 6 0 -18 -29 -31 -21 -5
7 14 1 -17 -19 -20 -4 7
6 11 1 -19 -26 -28 -18 -5
4 4 2 -20 -28 -30 -22 -7
1 4 3 -18 -22 -22 -10 3
-1 3 5 -20 -28 -29 -19 -5
-1 -10 7 -21 -36 -40 -35 -18
3 -6 11 -17 -28 -30 -20 -5
1 -5 10 -18 -28 -32 -20 -6
-2 -12 7 -24 -39 -45 -38 -21
0 -10 8 -20 -31 -37 -27 -12
-1 2 8 -17 -23 -25 -9 3
-3 -1 3 -23 -33 -36 -26 -12
-4 -8 4 -23 -34 -37 -27 -14
-9 -9 5 -20 -28 -29 -13 -2
-11 -10 3 -25 -35 -38 -25 -13
-10 -26 2 -29 -45 -50 -43 -28
-8 -27 2 -27 -41 -43 -32 -17
-5 -22 1 -28 -42 -45 -33 -18
-6 -32 -1 -35 -51 -56 -50 -32
-5 -32 1 -30 -45 -48 -39 -22
-5 -19 -1 -29 -37 -39 -22 -11
-8 -21 -4 -33 -44 -47 -37 -23
-4 -20 -2 -33 -43 -45 -36 -21
-5 -16 0 -29 -36 -36 -22 -8
-8 -19 -3 -32 -45 -46 -35 -19
-9 -33 -1 -34 -52 -54 -50 -30
-6 -31 1 -31 -46 -47 -36 -19
-8 -29 0 -31 -46 -48 -37 -20
-6 -33 -2 -35 -53 -57 -52 -33
-5 -35 -1 -33 -45 -48 -41 -23
-5 -22 -3 -30 -37 -41 -25 -11
-9 -27 -4 -32 -43 -47 -35 -22
-10 -31 -5 -33 -44 -47 -37 -23
-9 -24 -2 -27 -35 -36 -20 -8
-10 -26 -4 -31 -43 -44 -31 -18
-11 -41 -1 -32 -50 -53 -47 -29
-10 -41 2 -27 -45 -47 -36 -20
-8 -36 6 -19 -43 -47 -36 -23
-3 -35 14 -11 -46 -55 -52 -37
-3 -34 26 9 -32 -43 -37 -25
-3 -18 38 33 -14 -29 -20 -11
-2 -9 56 65 4 -21 -20 -15
4 0 87 115 40 3 -4 -6
13 18 116 173 93 49 37 22
19 24 136 218 132 83 58 32
28 22 147 249 166 112 75 40
38 42 151 274 212 164 127 76
45 68 139 268 243 208 166 103
57 90 105 220 247 238 186 118
75 117 64 172 273 296 246 167
85 146 8 109 293 357 308 213
91 168 -68 9 284 391 337 234
92 195 -130 -88 270 424 371 262
78 228 -176 -194 250 443 400 292
59 252 -222 -321 203 428 388 291
40 247 -264 -430 157 413 371 283
30 238 -299 -509 118 406 376 288
22 218 -326 -561 74 376 349 269
3 161 -332 -597 4 301 277 214
-2 104 -333 -606 -56 226 221 178
-5 72 -332 -579 -88 166 175 145
-14 24 -322 -552 -138 84 98 87
-21 -28 -295 -527 -203 -13 20 35
-32 -62 -266 -502 -268 -120 -58 -11
-43 -93 -242 -479 -325 -213 -141 -66
-41 -116 -219 -442 -329 -231 -164 -85
-35 -115 -194 -393 -292 -202 -140 -72
-32 -108 -165 -343 -260 -180 -128 -69
-26 -105 -134 -295 -236 -172 -132 -78
-20 -96 -97 -241 -193 -142 -107 -61
-20 -74 -66 -190 -153 -111 -79 -45
-23 -69 -44 -155 -134 -104 -83 -52
-21 -67 -25 -125 -113 -90 -75 -47
-18 -57 -9 -95 -87 -69 -48 -27
-16 -48 0 -80 -78 -70 -56 -35
-12 -52 14 -64 -72 -71 -64 -42
-12 -49 21 -49 -58 -57 -48 -28
-12 -43 24 -42 -53 -55 -46 -27
-11 -45 24 -39 -58 -63 -60 -39
-8 -41 29 -29 -49 -52 -43 -25
-6 -27 32 -18 -38 -40 -26 -12
-7 -30 34 -11 -39 -45 -38 -22
-8 -37 33 -8 -39 -47 -40 -24
-7 -32 35 1 -27 -35 -23 -12
-9 -31 32 2 -31 -43 -35 -22
-9 -44 29 -5 -40 -54 -53 -36
-7 -41 28 -2 -34 -45 -38 -24
-7 -36 29 0 -32 -43 -36 -23
-5 -36 27 -5 -42 -54 -55 -36
-2 -35 32 2 -33 -41 -36 -22
-5 -24 31 9 -24 -32 -22 -10
-7 -25 30 6 -29 -40 -37 -23
-9 -31 33 9 -28 -39 -38 -24
-6 -26 38 17 -16 -27 -19 -9
-5 -25 34 13 -21 -37 -33 -21
-5 -40 35 7 -32 -47 -48 -33
-5 -37 36 11 -25 -38 -33 -21
-4 -30 36 12 -23 -34 -30 -19
-2 -35 33 7 -32 -45 -47 -32
-1 -33 35 13 -23 -33 -30 -19
-2 -19 34 19 -15 -23 -13 -7
0 -17 32 18 -19 -30 -27 -19
1 -21 32 19 -18 -29 -26 -18
0 -17 33 26 -6 -17 -8 -4
-3 -17 30 24 -11 -26 -22 -16
-2 -29 27 20 -18 -34 -35 -26
-2 -27 24 21 -13 -25 -24 -16
1 -22 21 21 -11 -25 -24 -17
-2 -27 19 17 -20 -35 -39 -29
0 -26 22 24 -11 -24 -22 -15
-3 -14 21 30 -1 -12 -6 -4
-5 -17 17 29 -6 -19 -18 -15
-5 -22 20 31 -4 -18 -19 -15
-3 -15 22 40 9 -4 -2 0
-1 -12 21 38 5 -12 -12 -9
3 -21 21 38 0 -19 -25 -20
3 -22 20 41 8 -8 -10 -8
5 -15 17 43 10 -7 -9 -8
6 -15 14 39 3 -17 -25 -20
6 -15 16 46 12 -5 -9 -7
4 -3 17 54 22 5 7 4
5 -2 16 55 20 0 -5 -7
5 -6 20 60 23 4 -3 -4
6 -1 22 70 38 18 17 11
3 -3 17 68 33 9 3 -2
4 -14 19 70 31 3 -8 -10
8 -8 20 77 40 15 8 2
7 -3 18 78 43 17 8 1
9 -6 19 78 38 9 -7 -10
12 -2 24 90 51 24 13 6
8 7 26 98 63 36 28 16
8 7 27 103 63 33 17 4
9 3 31 110 70 39 22 8
11 11 37 123 87 55 43 24
12 15 36 124 85 49 32 14
11 5 38 126 83 43 20 4
12 11 41 134 95 56 37 18
16 19 44 139 101 62 44 22
15 12 44 138 95 53 29 8
17 16 51 149 106 69 48 24
16 29 53 157 118 81 64 36
16 31 57 160 116 75 51 24
18 30 63 168 123 80 56 28
16 37 69 177 136 94 74 43
16 38 69 176 132 87 62 31
19 30 71 174 126 81 50 22
19 32 74 177 133 90 65 34
17 35 73 175 132 89 65 34
16 31 74 171 124 79 50 22
20 36 82 178 131 90 65 37
22 53 85 183 140 100 78 47
18 48 86 180 133 91 63 33
16 43 89 179 132 89 61 32
13 46 93 183 140 100 77 45
15 46 92 177 130 87 60 30
18 37 93 171 121 77 47 21
16 38 96 170 126 84 59 33
16 42 95 168 123 82 58 32
17 38 94 161 112 71 41 20
17 37 96 162 114 78 55 32
14 49 99 163 118 83 67 41
12 45 98 157 111 71 51 28
11 40 99 156 108 69 48 27
10 43 99 159 115 79 64 40
7 40 94 150 104 66 46 24
9 29 92 141 93 54 30 13
11 29 89 138 96 60 43 25
8 30 82 133 90 56 39 22
8 26 76 122 75 42 20 7
7 24 76 121 78 49 35 20
6 34 72 117 79 52 44 26
6 33 69 112 71 42 30 16
4 25 68 109 69 40 28 15
6 28 68 108 73 48 42 27
6 27 63 97 60 35 25 12
6 14 57 85 46 21 8 0
5 14 54 80 45 24 17 9
4 16 49 75 40 20 14 7
4 10 46 63 25 5 -4 -8
2 8 46 62 28 13 10 5
1 18 46 59 30 19 20 12
0 15 44 51 19 7 5 0
0 9 41 48 17 6 4 0
-2 9 38 47 21 11 17 11
-3 7 30 38 10 -1 0 -4
-2 -6 26 30 0 -11 -15 -13
0 -4 26 29 2 -5 -3 -3
1 1 20 23 -2 -8 -6 -6
-2 -8 14 12 -16 -22 -26 -21
-3 -9 15 14 -11 -14 -12 -9
-2 4 13 15 -6 -7 -1 -1
-4 2 10 9 -15 -17 -16 -14
-3 0 10 11 -12 -16 -15 -11
-5 1 11 12 -3 -6 2 1
-8 -3 5 4 -16 -20 -16 -15
-8 -16 5 0 -21 -29 -28 -23
-8 -16 4 2 -17 -22 -16 -12
-2 -7 4 0 -16 -22 -16 -13
0 -10 1 -5 -25 -33 -33 -26
-2 -12 2 -2 -18 -23 -18 -13
-3 1 0 2 -12 -15 -7 -5
-3 1 0 2 -14 -20 -17 -14
-3 -3 1 6 -11 -18 -16 -13
-4 -1 2 12 -1 -7 1 0
-7 -4 -2 7 -9 -17 -15 -14
-3 -12 -1 6 -12 -23 -25 -19
-1 -9 -1 9 -6 -14 -10 -8
-4 -7 -4 5 -8 -16 -12 -11
-4 -12 -7 1 -17 -27 -29 -24
-5 -13 -2 7 -9 -16 -12 -8
-3 1 -3 12 -3 -9 -2 -2
0 3 -1 12 -5 -14 -12 -12
0 0 2 15 -2 -12 -11 -9
-2 5 4 21 8 -1 7 4
-4 2 0 17 0 -10 -8 -10
-2 -9 0 14 -5 -17 -19 -17
0 -5 2 18 2 -8 -5 -5
0 -1 0 17 1 -7 -5 -4
0 -7 -3 12 -8 -19 -22 -18
-1 -8 -1 17 0 -7 -5 -3
-4 1 -3 19 4 -1 4 3
-4 2 -3 17 -1 -9 -10 -9
-3 0 -1 19 0 -7 -8 -7
-6 3 0 24 9 2 7 4
-4 4 1 21 2 -7 -8 -9
2 -3 2 19 -2 -13 -17 -15
2 -2 2 20 2 -5 -6 -3
1 2 0 20 2 -6 -4 -5
1 -3 -4 12 -11 -19 -23 -20
4 -2 -1 18 -1 -7 -6 -4
1 6 -3 20 2 -2 3 2
-3 1 -5 17 -5 -12 -12 -11
1 0 -4 18 -3 -10 -9 -9
-2 8 0 28 9 4 9 6
-3 5 -5 19 -4 -11 -11 -11
-1 -5 -5 13 -10 -19 -22 -20
0 -3 -5 15 -5 -11 -9 -8
4 3 -6 14 -6 -12 -10 -10
4 -3 -8 7 -17 -24 -27 -22
2 -2 -7 10 -10 -15 -11 -9
0 9 -7 13 -5 -9 0 -2
-2 4 -7 11 -9 -15 -11 -11
-2 -3 -6 10 -9 -16 -12 -11
-5 -2 -2 15 -1 -5 3 1
-5 -4 -4 8 -10 -17 -14 -13
0 -12 -3 5 -16 -24 -24 -21
0 -9 -3 6 -11 -17 -11 -8
0 -6 -5 2 -14 -20 -14 -12
1 -10 -8 -2 -23 -29 -29 -25
0 -10 -7 1 -16 -19 -12 -10
0 3 -8 4 -12 -14 -3 -3
-1 0 -8 0 -19 -23 -16 -15
-2 -6 -7 1 -19 -22 -15 -14
-3 1 -4 7 -10 -11 1 -1
-6 -3 -6 0 -20 -23 -17 -17
-4 -18 -5 -4 -26 -32 -29 -25
-3 -16 -3 -1 -21 -23 -14 -12
-7 -18 -6 -5 -24 -27 -19 -16
-7 -23 -8 -12 -36 -39 -37 -29
-1 -13 -4 -6 -27 -26 -20 -15
-4 -2 -5 -3 -21 -21 -11 -8
-4 -4 -6 -7 -27 -30 -23 -20
-5 -9 -4 -7 -26 -28 -20 -16
-3 -4 0 0 -17 -16 -4 -4
-4 -7 -2 -7 -26 -28 -22 -18
-5 -18 -1 -13 -33 -37 -34 -27
-5 -18 0 -9 -28 -28 -21 -15
-4 -14 -2 -11 -30 -30 -25 -18
-3 -18 -4 -17 -39 -42 -42 -32
0 -13 0 -9 -29 -28 -22 -15
-1 -1 -1 -7 -24 -22 -13 -8
-2 -1 -1 -9 -27 -29 -25 -19
-1 -3 1 -5 -25 -25 -21 -15
-4 2 3 0 -16 -14 -4 -4
-6 0 3 -3 -24 -25 -21 -18
-5 -8 5 -3 -27 -29 -28 -21
-2 -4 3 -3 -23 -22 -16 -10
0 0 3 -4 -24 -23 -17 -12
-2 -7 0 -11 -34 -36 -35 -26
0 -3 5 -4 -25 -23 -18 -12
-1 10 6 -1 -19 -18 -9 -5
-3 6 6 -2 -22 -24 -20 -15
-1 6 8 0 -20 -22 -16 -11
-2 11 10 5 -10 -11 -1 1
-6 6 8 0 -18 -21 -17 -13
-4 1 9 -1 -21 -25 -24 -16
-4 8 10 0 -15 -17 -11 -6
0 19 9 0 -16 -17 -12 -6
3 18 4 -6 -24 -28 -28 -17
1 21 7 -1 -14 -16 -9 -1
2 36 5 0 -10 -10 -2 3
-1 30 3 -3 -15 -17 -14 -7
-3 22 -1 -8 -20 -21 -18 -8
-4 27 1 -4 -13 -12 -3 3
-3 24 -3 -10 -22 -24 -21 -12
0 13 -1 -10 -26 -28 -27 -16
2 16 -2 -8 -20 -19 -13 -4
0 15 -5 -11 -24 -22 -17 -7
4 11 -9 -17 -35 -34 -33 -21
9 15 -4 -11 -27 -22 -15 -5
8 21 -4 -10 -23 -18 -9 -2
5 16 -4 -13 -30 -26 -22 -13
3 9 -3 -13 -28 -26 -21 -11
3 14 -1 -6 -18 -14 -6 -1
3 12 -2 -10 -24 -24 -22 -14
2 -1 -2 -12 -30 -30 -31 -21
7 3 0 -9 -23 -21 -16 -8
2 3 -1 -10 -24 -22 -18 -10
-1 -6 -4 -16 -34 -35 -36 -25
0 -3 -3 -11 -25 -22 -17 -10
-3 6 -6 -12 -24 -21 -12 -6
-6 -1 -8 -16 -31 -30 -27 -20
-9 -9 -7 -16 -31 -30 -25 -18
-9 -7 -7 -13 -24 -22 -13 -9
-8 -11 -10 -20 -35 -35 -33 -26
-9 -24 -8 -21 -39 -40 -40 -29
-10 -21 -7 -19 -35 -33 -28 -19
-7 -18 -9 -23 -38 -36 -32 -22
-6 -25 -11 -28 -49 -46 -49 -36
-4 -22 -8 -23 -38 -33 -28 -19
-3 -10 -8 -19 -34 -27 -20 -13
-5 -15 -9 -21 -40 -36 -34 -26
-4 -18 -8 -21 -39 -34 -30 -23
-6 -12 -7 -17 -31 -24 -16 -11
-8 -18 -9 -22 -39 -37 -35 -27
-6 -29 -8 -22 -42 -41 -41 -31
-7 -27 -9 -20 -38 -34 -29 -20
-8 -24 -12 -23 -42 -38 -34 -26
-8 -30 -16 -28 -50 -48 -50 -39
-9 -30 -16 -24 -43 -37 -32 -25
-11 -21 -18 -24 -40 -33 -26 -20
-10 -22 -16 -23 -41 -39 -35 -28
-10 -26 -16 -23 -41 -37 -34 -27
-6 -16 -14 -17 -32 -26 -19 -14
-9 -21 -16 -22 -41 -39 -39 -30
-6 -33 -12 -19 -43 -42 -44 -36
-4 -31 -5 -4 -34 -32 -30 -23
-4 -27 1 7 -31 -33 -33 -29
-2 -29 10 18 -34 -40 -47 -41
1 -16 26 48 -11 -21 -23 -22
3 6 47 89 17 -2 -8 -12
7 12 76 138 52 20 1 -10
14 18 102 193 100 60 32 8
22 31 119 242 155 111 79 40
30 41 125 272 189 141 97 48
38 53 129 288 225 183 130 71
51 81 114 275 255 233 180 108
61 109 76 227 266 272 216 136
75 126 29 171 276 312 247 159
88 149 -25 106 295 376 314 211
94 184 -103 8 292 419 359 245
91 210 -164 -92 271 439 377 262
76 234 -207 -203 241 448 393 279
55 262 -251 -321 210 450 407 300
38 262 -294 -428 165 433 386 286
31 238 -330 -504 116 415 370 277
19 210 -353 -550 74 385 350 264
7 159 -358 -583 5 312 287 219
-1 97 -365 -593 -67 217 202 155
-9 59 -356 -557 -91 165 162 131
-17 22 -344 -529 -139 87 101 87
-28 -29 -322 -511 -216 -27 2 19
-36 -67 -293 -487 -285 -141 -91 -39
-41 -85 -271 -456 -315 -199 -130 -60
-38 -95 -251 -419 -311 -207 -151 -82
-32 -105 -224 -370 -277 -185 -140 -80
-29 -102 -196 -320 -243 -160 -117 -67
-27 -95 -164 -272 -212 -142 -108 -66
-25 -93 -132 -225 -189 -135 -114 -75
-23 -81 -101 -177 -151 -106 -86 -55
-24 -63 -79 -138 -120 -85 -67 -45
-26 -65 -64 -113 -105 -81 -72 -51
-23 -64 -50 -87 -86 -69 -63 -46
-17 -46 -37 -62 -62 -50 -39 -28
-12 -37 -27 -49 -57 -54 -51 -40
-9 -45 -17 -37 -52 -51 -52 -40
-11 -41 -12 -29 -41 -40 -36 -27
-10 -34 -10 -24 -40 -41 -37 -29
-4 -34 -8 -20 -46 -48 -53 -39
-4 -32 0 -7 -33 -33 -29 -20
-5 -22 -2 -2 -30 -32 -27 -20
-9 -27 -2 0 -33 -40 -39 -31
-10 -34 1 5 -30 -37 -38 -30
-9 -25 3 12 -16 -25 -20 -15
-9 -29 -1 8 -26 -37 -41 -32
-7 -39 2 7 -28 -38 -44 -35
-4 -32 3 10 -21 -28 -28 -21
-6 -29 1 8 -23 -30 -31 -23
-3 -34 3 8 -32 -39 -47 -34
-2 -29 9 17 -21 -23 -23 -16
-3 -19 8 18 -19 -23 -21 -15
-6 -24 12 19 -21 -29 -32 -26
-6 -29 14 24 -17 -26 -30 -24
-4 -20 14 28 -6 -17 -15 -12
-2 -21 12 21 -15 -30 -35 -29
-3 -33 11 19 -19 -33 -40 -32
-3 -28 12 21 -13 -24 -26 -21
-4 -21 9 18 -15 -26 -29 -23
-4 -31 10 17 -24 -35 -44 -35
0 -23 15 27 -12 -18 -21 -16
1 -10 16 30 -6 -14 -16 -12
-2 -16 14 31 -11 -23 -28 -23
-1 -23 17 33 -7 -20 -25 -21
-2 -17 17 35 2 -10 -11 -10
-2 -18 13 29 -6 -22 -31 -28
-1 -25 16 32 -4 -21 -31 -27
-1 -22 14 32 -2 -15 -19 -18
-2 -17 13 32 -3 -16 -22 -19
-1 -26 14 32 -10 -24 -36 -30
1 -20 20 41 2 -8 -12 -11
-1 -10 19 43 7 -5 -8 -8
-3 -14 18 44 5 -12 -19 -18
0 -18 21 50 11 -6 -14 -14
2 -7 22 55 22 6 4 -1
1 -11 17 49 14 -6 -16 -17
1 -21 17 49 14 -6 -19 -19
0 -16 18 52 19 2 -6 -7
1 -8 15 51 17 -1 -9 -11
3 -12 15 50 10 -8 -25 -22
3 -7 19 62 22 8 -2 -3
5 5 19 66 29 12 4 -1
6 2 20 69 28 8 -5 -8
6 -4 26 77 35 15 0 -5
6 2 29 86 52 30 20 11
6 0 26 80 45 18 1 -6
7 -8 29 84 47 20 0 -6
10 -1 30 92 57 31 16 6
9 4 29 94 56 30 13 3
12 -1 31 96 52 24 0 -8
11 5 36 108 68 41 25 12
7 12 36 114 73 46 28 13
8 11 36 118 73 41 18 3
9 8 40 127 83 50 24 6
9 16 43 135 98 63 43 20
12 17 44 136 96 57 27 8
13 9 48 141 98 60 29 8
16 19 51 149 108 73 46 22
19 27 52 153 111 74 45 21
20 22 56 155 106 68 32 11
22 30 63 168 123 86 58 32
20 39 67 173 128 92 62 33
19 37 68 175 127 87 50 22
20 34 75 183 135 93 58 29
18 40 77 187 146 105 75 40
18 40 76 184 139 93 56 25
19 30 81 184 139 95 55 26
21 40 84 187 144 102 68 36
21 45 86 186 140 99 65 35
20 39 88 181 129 89 49 22
19 44 94 188 140 101 71 41
18 53 93 188 141 101 72 41
15 46 95 184 134 93 57 28
15 42 98 186 138 94 59 29
14 47 102 190 147 104 74 43
14 45 98 180 135 89 53 26
17 37 102 178 131 88 52 27
14 38 102 176 134 93 62 37
14 41 101 172 129 90 58 34
19 39 101 167 118 79 44 23
17 45 105 171 125 90 63 40
15 54 102 169 125 88 62 39
12 45 102 164 116 78 47 27
11 39 101 162 115 78 47 28
10 44 100 164 123 86 63 40
8 38 93 153 107 68 37 19
9 30 92 145 101 64 33 16
8 35 90 141 101 66 42 25
5 35 83 133 90 59 35 19
4 25 80 124 77 47 18 8
4 29 80 127 83 58 40 26
6 40 77 123 81 57 40 25
4 30 74 117 73 47 25 13
2 21 71 112 69 43 24 14
0 27 68 108 73 48 36 24
-2 19 59 94 56 30 12 4
-2 8 57 88 51 26 8 3
-1 13 53 84 51 30 18 12
2 17 48 78 43 25 13 8
1 5 46 68 28 12 -5 -5
1 8 45 70 35 23 17 13
-4 13 39 64 31 19 12 9
-2 10 37 59 23 9 -1 -1
-2 6 37 57 24 11 2 3
-3 11 33 54 27 16 13 11
-4 4 28 41 13 -1 -11 -8
-5 -9 28 35 7 -5 -13 -11
0 -3 27 34 10 0 -4 -3
2 0 23 27 4 -4 -9 -5
0 -5 22 23 -6 -14 -24 -15
0 -1 23 28 2 -1 -1 3
-4 6 19 24 -1 -4 -3 -1
-6 -1 16 19 -8 -12 -17 -11
-5 -4 18 21 -5 -11 -14 -8
-7 -2 18 23 2 -3 0 2
-8 -7 13 14 -10 -17 -21 -17
-5 -15 14 13 -12 -17 -22 -15
-7 -13 13 12 -8 -13 -12 -9
-6 -9 11 10 -12 -16 -17 -13
-8 -18 12 7 -20 -25 -31 -22
-7 -15 14 13 -10 -13 -11 -6
-5 -1 15 15 -8 -11 -10 -7
-2 -2 16 15 -11 -16 -21 -16
-4 -6 18 17 -6 -13 -17 -11
-3 3 20 21 4 -3 -1 0
-5 -2 17 14 -6 -16 -22 -18
-3 -11 18 15 -5 -14 -21 -16
-5 -10 19 17 0 -6 -8 -5
-5 -7 18 16 -5 -10 -12 -10
-1 -10 18 15 -13 -18 -26 -20
1 -3 21 22 -4 -4 -5 -3
-1 7 20 22 -3 -5 -7 -5
-1 4 21 23 -6 -10 -17 -14
0 -1 25 26 -2 -6 -13 -11
1 6 26 31 10 5 3 1
-1 -1 24 26 1 -7 -16 -15
0 -8 26 27 1 -7 -15 -13
1 -2 26 28 5 0 -5 -3
0 0 24 27 1 -3 -7 -7
2 -6 24 24 -7 -11 -21 -17
3 0 27 32 5 5 4 3
-1 6 24 32 4 3 -1 -1
-1 3 23 31 0 -3 -12 -11
-1 -1 25 35 4 0 -7 -6
1 6 23 38 14 9 8 5
-2 -2 20 31 4 -4 -13 -12
-1 -12 20 30 2 -4 -12 -10
2 -4 21 33 6 3 -1 0
3 1 20 30 2 1 -4 -4
1 -8 19 24 -8 -9 -19 -15
1 -3 22 31 3 6 2 2
1 7 19 30 3 4 0 -1
1 2 20 29 -2 -3 -12 -10
2 0 21 31 1 -1 -8 -6
-2 3 21 33 9 8 5 5
-2 -1 20 26 -3 -7 -17 -14
1 -9 23 27 -2 -5 -15 -11
0 -5 20 24 -1 0 -6 -3
1 -1 19 21 -4 -3 -8 -7
2 -8 19 18 -12 -11 -21 -17
3 -5 22 25 -3 2 0 2
2 4 19 23 -5 0 -2 -1
-1 -1 18 20 -12 -9 -16 -14
-2 -6 19 22 -9 -7 -13 -10
-2 -2 18 23 -2 1 0 -1
-4 -6 14 14 -14 -17 -24 -20
2 -9 17 14 -15 -15 -23 -18
6 -4 19 17 -10 -7 -8 -6
5 -4 18 14 -13 -12 -12 -9
5 -11 17 10 -22 -22 -27 -19
6 -8 18 16 -12 -9 -5 -1
5 2 18 16 -12 -10 -7 -3
5 -2 18 14 -16 -17 -18 -12
3 -5 18 14 -16 -16 -16 -12
1 0 16 16 -9 -9 -4 -2
-4 -10 11 5 -23 -25 -28 -22
-2 -19 12 5 -23 -26 -27 -21
1 -12 12 6 -19 -19 -16 -12
-1 -11 10 4 -23 -23 -20 -15
3 -15 10 1 -30 -29 -32 -25
2 -9 12 6 -20 -17 -11 -8
0 -3 10 5 -23 -20 -14 -10
3 -6 12 6 -24 -24 -23 -17
2 -9 14 7 -21 -21 -19 -13
0 -3 12 9 -14 -15 -7 -3
-1 -11 9 2 -26 -29 -29 -22
-1 -20 11 2 -25 -28 -27 -19
-1 -16 11 1 -23 -23 -18 -11
-2 -13 10 1 -25 -25 -21 -13
-3 -20 10 -3 -37 -35 -36 -26
1 -13 15 5 -24 -19 -13 -5
1 -3 13 4 -24 -21 -16 -9
3 -2 17 6 -24 -25 -24 -16
5 -3 22 9 -19 -21 -20 -12
-1 2 24 14 -11 -12 -6 -1
-1 -6 20 6 -22 -26 -27 -19
2 -11 22 6 -21 -25 -25 -16
3 -6 22 8 -18 -19 -16 -8
0 -6 21 5 -22 -23 -21 -11
-1 -12 20 1 -31 -32 -36 -23
4 -1 26 10 -17 -16 -11 -2
2 11 21 8 -20 -18 -15 -6
1 5 20 6 -22 -24 -25 -15
1 3 22 10 -17 -20 -19 -11
3 13 23 15 -6 -10 -4 1
3 10 18 7 -18 -25 -26 -17
4 4 19 7 -16 -21 -22 -12
2 11 16 8 -12 -15 -10 -1
4 20 15 6 -14 -16 -13 -3
8 20 14 2 -22 -26 -26 -13
7 24 14 7 -12 -13 -6 4
8 29 9 4 -16 -16 -11 -1
7 22 9 1 -21 -24 -22 -9
5 16 9 3 -18 -21 -18 -5
5 21 9 6 -10 -13 -3 6
3 10 4 -1 -24 -29 -26 -14
4 0 6 -1 -24 -25 -23 -9
11 7 6 2 -18 -16 -8 2
11 9 4 -2 -23 -21 -14 -3
14 2 5 -5 -31 -30 -28 -12
11 7 9 0 -22 -16 -7 4
8 11 7 -1 -24 -21 -13 -3
7 4 9 -2 -26 -27 -22 -10
6 0 10 0 -22 -23 -18 -7
4 5 12 3 -15 -17 -7 1
3 -2 9 -3 -25 -32 -29 -18
1 -10 11 -3 -26 -30 -28 -15
-1 -7 11 -1 -23 -25 -18 -6
-1 -8 12 -2 -26 -28 -21 -10
0 -14 12 -6 -35 -37 -35 -21
1 -10 16 0 -24 -22 -12 -2
-1 -5 11 -5 -28 -29 -20 -10
-1 -9 10 -8 -33 -36 -31 -20
-2 -15 10 -6 -32 -33 -28 -17
-4 -15 10 -5 -27 -30 -19 -10
-5 -24 6 -13 -39 -44 -42 -31
-4 -34 8 -14 -40 -44 -39 -27
-2 -28 10 -10 -34 -36 -27 -16
0 -20 9 -13 -38 -40 -30 -20
