I II V1 V2 V3 V4 V5 V6
-24 -25 -22 -34 -29 -20 -19 -13
-22 -23 -21 -32 -26 -17 -14 -12
-21 -24 -20 -31 -24 -16 -11 -13
-22 -27 -19 -31 -27 -20 -12 -14
-20 -24 -14 -27 -25 -16 -9 -11
-27 -28 -14 -26 -25 -17 -2 -13
-29 -34 -16 -30 -31 -22 -6 -17
-24 -29 -14 -30 -31 -23 -6 -16
-23 -25 -13 -30 -29 -18 -3 -15
-16 -18 -7 -27 -26 -16 0 -12
-17 -22 -9 -30 -29 -19 -9 -14
-22 -31 -11 -33 -32 -24 -13 -20
-22 -27 -8 -32 -33 -23 -12 -20
-17 -22 -5 -30 -31 -23 -13 -18
-20 -25 -7 -32 -34 -24 -16 -19
-27 -33 -8 -34 -37 -26 -12 -20
-27 -32 -5 -34 -38 -27 -11 -20
-23 -30 -4 -32 -37 -27 -11 -19
-21 -29 -5 -34 -36 -27 -13 -20
-22 -29 -4 -32 -35 -26 -14 -20
-13 -20 -1 -29 -33 -24 -18 -18
-18 -26 -7 -31 -34 -26 -19 -21
-24 -33 -11 -34 -39 -27 -18 -22
-18 -24 -4 -29 -34 -24 -12 -18
-14 -18 -3 -29 -31 -20 -10 -17
-17 -25 -6 -31 -34 -22 -6 -19
-18 -24 -5 -33 -36 -22 -7 -19
-22 -30 -5 -32 -37 -24 -11 -20
-22 -30 -6 -32 -36 -24 -13 -22
-39 -45 -14 -37 -43 -31 -20 -28
-24 -30 -9 -30 -38 -28 -24 -23
-3 -8 -2 -22 -29 -21 -20 -19
-5 -9 -2 -23 -30 -20 -21 -20
-17 -22 -4 -26 -35 -26 -28 -24
-12 -16 1 -22 -31 -22 -23 -20
-1 -6 1 -22 -28 -19 -14 -17
-8 -13 -2 -25 -32 -23 -16 -17
-10 -13 -4 -25 -35 -24 -17 -16
-14 -19 -7 -26 -36 -24 -19 -19
-11 -12 -5 -25 -34 -23 -18 -18
-7 -11 2 -21 -32 -21 -21 -16
-4 -13 8 -18 -27 -19 -21 -17
-11 -17 16 -10 -24 -19 -24 -23
-8 -10 28 8 -11 -17 -27 -24
-8 -10 43 32 8 -7 -28 -26
-15 -11 49 53 27 5 -21 -26
-13 -6 54 79 57 28 -11 -23
1 12 69 119 99 66 10 -8
3 18 80 154 143 108 33 5
12 32 84 176 187 151 62 22
21 41 79 196 232 201 88 44
40 62 71 215 280 260 127 75
59 85 69 223 321 320 166 107
60 97 56 198 333 360 199 137
59 102 34 142 324 385 225 164
68 113 12 73 291 387 246 187
70 123 -21 -14 224 351 246 199
63 117 -59 -112 119 266 216 192
53 105 -90 -212 -1 153 163 165
29 78 -119 -321 -139 19 98 127
21 64 -145 -415 -277 -112 25 87
19 62 -178 -496 -391 -217 -31 56
9 53 -217 -547 -457 -279 -73 30
11 45 -250 -551 -466 -294 -90 15
22 35 -279 -533 -452 -286 -93 12
27 23 -305 -517 -439 -277 -90 9
41 28 -315 -490 -417 -264 -87 11
42 28 -312 -459 -394 -252 -87 8
33 27 -292 -425 -369 -239 -87 2
23 37 -266 -386 -337 -223 -79 1
27 51 -236 -348 -302 -203 -76 2
37 60 -206 -310 -271 -184 -70 1
29 52 -177 -272 -242 -165 -65 -3
30 57 -148 -234 -209 -144 -58 -5
33 59 -117 -196 -179 -124 -52 -9
24 46 -96 -162 -151 -106 -45 -16
2 20 -77 -136 -129 -92 -44 -24
-3 11 -52 -105 -100 -73 -37 -23
5 13 -29 -71 -72 -51 -27 -20
7 10 -12 -46 -51 -35 -21 -17
2 3 -8 -33 -40 -29 -25 -18
14 12 -5 -20 -30 -21 -20 -14
15 14 0 -12 -26 -17 -16 -13
12 11 4 -6 -22 -16 -14 -10
15 13 8 -1 -18 -12 -11 -8
8 8 8 4 -17 -11 -5 -10
16 16 11 8 -13 -8 -1 -7
18 15 15 10 -10 -7 -2 -7
11 10 15 10 -11 -8 -3 -10
8 4 13 10 -14 -11 -5 -14
11 5 12 10 -12 -10 -10 -13
5 3 14 12 -9 -7 -8 -13
16 14 18 16 -4 -2 -5 -10
18 18 20 19 -2 0 -3 -7
13 12 19 18 -2 1 -5 -9
4 3 22 18 -4 -2 -2 -10
8 6 22 20 -2 -3 -2 -9
8 4 20 20 -1 -2 -3 -10
13 12 23 25 3 2 1 -8
12 13 24 27 5 3 2 -7
17 17 25 28 8 5 0 -2
17 15 25 27 6 6 0 -3
13 9 24 28 4 5 -1 -3
11 8 24 27 5 3 -2 -3
-3 -5 20 25 1 2 -7 -7
-7 -8 22 24 0 1 -3 -9
7 7 27 30 8 6 2 -2
7 7 28 31 11 6 0 -5
6 6 28 28 7 5 -3 -10
7 6 30 29 10 6 -1 -10
-6 -5 25 25 6 1 -9 -15
-16 -13 25 26 5 0 -11 -19
-6 -4 30 31 10 6 -5 -14
1 4 33 33 14 7 -3 -10
7 11 33 36 16 10 0 -7
4 9 30 38 19 13 6 -5
0 5 26 38 19 12 5 -4
1 5 26 37 19 9 3 -5
3 8 31 41 20 10 5 -5
4 7 30 41 21 9 4 -4
7 8 30 42 22 7 1 -5
1 4 30 44 22 7 2 -4
-10 -5 27 43 21 5 2 -6
-6 -1 31 46 27 9 7 1
-8 -1 31 48 28 12 7 1
-11 -8 30 47 29 10 11 0
2 4 35 49 32 12 15 3
2 9 39 53 36 18 19 5
6 14 40 57 40 21 20 7
0 4 33 53 36 18 16 3
-8 -3 30 51 34 15 7 0
0 6 34 55 40 21 8 3
3 9 38 58 43 24 12 5
-1 8 41 62 46 25 11 7
-6 4 40 63 47 26 7 4
-13 -4 39 64 47 24 9 3
-13 -5 39 65 48 21 9 3
-7 -1 39 69 53 27 11 6
-8 0 39 72 53 29 15 8
4 9 45 76 58 32 22 13
13 19 47 81 61 34 21 17
2 5 42 80 59 32 17 11
0 5 43 84 62 35 20 13
3 8 44 87 64 36 22 15
-2 4 43 91 67 39 18 13
6 12 47 96 73 43 25 18
6 12 46 98 76 45 26 18
9 14 45 100 78 46 25 18
10 16 48 105 83 51 28 21
10 12 44 104 82 51 28 19
9 13 45 107 84 52 26 22
14 18 49 114 91 58 30 26
12 20 44 115 91 59 33 28
4 13 41 117 91 59 35 27
-2 7 39 118 94 60 32 25
8 16 39 119 95 60 38 28
5 14 37 119 94 58 36 26
13 21 40 123 101 65 40 28
28 36 43 128 104 71 44 31
25 32 42 128 104 71 45 33
17 26 37 128 104 73 43 35
13 23 35 126 103 74 44 35
15 26 38 131 107 78 48 40
11 24 38 130 106 76 46 42
16 25 39 129 106 76 45 43
21 26 40 130 107 76 49 46
14 24 39 129 105 75 47 44
16 26 38 126 106 77 48 45
21 36 44 128 107 80 53 48
18 37 41 126 106 80 52 48
17 33 40 123 100 77 49 45
18 30 37 119 98 77 48 43
14 28 32 116 94 75 49 45
18 31 29 113 92 72 49 46
26 38 33 113 92 74 52 51
18 30 32 108 88 71 55 50
20 34 35 105 88 70 56 53
24 38 37 105 89 72 58 55
13 25 33 97 81 67 53 48
10 24 31 93 77 66 50 46
13 27 32 89 77 66 49 47
14 29 31 84 73 66 47 47
20 36 31 80 69 63 49 47
15 30 25 74 63 58 45 43
6 19 22 69 62 53 41 42
10 26 25 66 58 51 44 43
3 17 25 59 51 45 39 40
-2 11 21 51 45 42 34 38
5 19 22 49 44 43 36 38
-3 11 21 42 39 38 29 33
-6 8 20 36 35 32 21 28
-12 -1 17 31 31 28 14 25
-2 8 20 32 30 27 14 28
11 20 20 31 29 27 11 30
8 16 16 25 24 24 6 28
11 22 23 24 24 25 10 27
8 16 19 15 16 19 4 22
-6 1 14 5 9 12 -4 16
-5 1 16 4 8 12 -3 16
-4 3 17 3 7 13 -3 16
-7 -3 11 -3 3 10 -10 12
-3 -1 10 -5 2 10 -11 11
-4 -2 13 -6 2 11 -10 12
-7 -5 13 -9 0 7 -14 9
-13 -9 12 -12 -5 3 -19 6
-14 -9 14 -11 -5 2 -15 6
-13 -9 14 -14 -7 0 -17 6
-15 -7 15 -16 -6 0 -18 6
-5 2 18 -16 -4 3 -13 7
-8 -5 14 -22 -10 0 -16 5
-12 -11 14 -25 -13 -3 -19 4
-14 -14 15 -24 -14 -3 -20 4
-20 -18 17 -26 -17 -7 -23 1
-15 -14 18 -27 -18 -8 -26 2
-7 -6 17 -26 -16 -9 -25 4
-13 -12 11 -29 -20 -11 -24 1
-19 -18 10 -32 -21 -12 -26 -1
-18 -17 12 -32 -20 -12 -26 -2
-11 -11 16 -31 -18 -9 -24 -1
-13 -11 17 -31 -19 -8 -23 -1
-22 -17 16 -33 -19 -10 -28 -3
-10 -4 18 -28 -16 -7 -28 0
-3 0 18 -29 -16 -7 -30 0
-10 -9 14 -32 -20 -12 -35 -3
-19 -16 13 -33 -22 -16 -34 -5
-26 -21 15 -34 -25 -18 -31 -6
-21 -16 15 -33 -23 -18 -30 -6
-10 -4 18 -31 -19 -14 -26 -1
-11 -6 16 -31 -17 -12 -24 1
-12 -7 14 -33 -19 -13 -23 -1
-16 -14 17 -35 -20 -15 -25 -1
-28 -26 13 -39 -25 -18 -30 -5
-20 -14 18 -36 -21 -15 -24 -1
-10 -3 22 -31 -18 -13 -19 3
-12 -5 25 -30 -17 -12 -19 2
-21 -15 20 -35 -21 -17 -21 -4
-22 -16 23 -33 -19 -16 -20 -4
-16 -8 24 -31 -17 -14 -19 -1
-23 -13 26 -32 -17 -14 -19 -1
-30 -20 24 -33 -18 -13 -20 -3
-23 -16 21 -33 -18 -14 -22 -2
-22 -15 19 -32 -17 -11 -21 0
-24 -19 15 -32 -19 -13 -22 -2
-21 -16 16 -32 -16 -11 -21 -1
-19 -12 21 -29 -14 -8 -18 2
-21 -16 20 -29 -13 -8 -14 1
-20 -13 24 -28 -13 -7 -12 2
-25 -18 21 -31 -15 -9 -14 1
-26 -21 22 -30 -17 -11 -13 0
-24 -19 24 -30 -17 -12 -15 0
-24 -17 26 -29 -16 -13 -17 0
-17 -11 27 -26 -13 -10 -13 4
-13 -7 27 -25 -14 -13 -14 2
-11 -7 22 -25 -15 -16 -17 4
-10 -4 17 -23 -16 -14 -16 5
-9 -3 20 -21 -12 -11 -11 5
-11 -5 24 -20 -10 -8 -7 7
-19 -15 21 -23 -13 -9 -6 3
-24 -19 18 -25 -15 -11 -3 2
-13 -10 21 -22 -13 -8 1 5
-12 -7 21 -22 -13 -11 -3 4
-12 -8 25 -21 -13 -11 -3 3
-17 -13 24 -23 -12 -11 -2 2
-24 -17 24 -26 -14 -15 -3 0
-16 -8 28 -22 -11 -10 0 1
-13 -5 30 -22 -11 -9 6 3
-15 -8 27 -24 -12 -12 5 0
-16 -8 26 -25 -13 -12 5 -1
-20 -11 25 -25 -13 -12 6 -1
-19 -11 23 -26 -15 -13 6 -3
-19 -12 23 -27 -13 -13 4 -3
-23 -13 26 -25 -14 -14 4 -2
-19 -7 30 -23 -12 -11 8 -1
-23 -14 28 -24 -12 -11 8 -1
-25 -16 26 -27 -14 -10 7 -2
-25 -15 27 -25 -13 -8 10 -3
-31 -22 26 -26 -15 -11 5 -6
-34 -23 25 -26 -13 -12 1 -7
-27 -13 28 -24 -10 -9 2 -5
-21 -13 22 -28 -13 -12 -1 -6
-12 -5 24 -27 -10 -9 -2 -4
-12 -2 24 -26 -10 -7 -2 -2
-12 -3 27 -25 -11 -7 -6 -1
-20 -14 26 -29 -15 -10 -10 -4
-26 -19 22 -30 -17 -12 -11 -6
-21 -11 25 -27 -13 -8 -5 -2
-15 -7 24 -27 -13 -6 -6 -2
-26 -20 20 -35 -20 -13 -13 -10
-29 -22 23 -35 -21 -12 -16 -12
-19 -12 26 -33 -19 -11 -14 -11
-28 -18 23 -35 -21 -14 -21 -17
-29 -19 22 -36 -21 -14 -23 -18
-26 -19 21 -33 -21 -14 -21 -15
-18 -9 21 -32 -18 -12 -18 -11
-20 -13 21 -33 -20 -13 -21 -14
-25 -20 20 -35 -25 -18 -23 -16
-22 -18 19 -35 -25 -20 -25 -16
-19 -15 19 -35 -24 -18 -24 -14
-16 -14 19 -36 -24 -18 -22 -13
-4 -3 19 -35 -24 -16 -18 -8
-24 -20 17 -38 -27 -18 -22 -12
-23 -18 18 -37 -26 -16 -19 -12
-16 -14 18 -35 -26 -16 -18 -13
-12 -11 20 -34 -24 -18 -19 -13
-13 -13 21 -35 -25 -18 -22 -13
-23 -20 19 -39 -29 -20 -22 -17
-26 -20 19 -39 -30 -23 -25 -18
-20 -15 20 -38 -28 -23 -25 -17
-16 -13 19 -40 -30 -22 -24 -17
-22 -18 17 -41 -32 -24 -23 -17
-25 -23 17 -41 -32 -25 -27 -16
-12 -13 21 -36 -27 -21 -24 -13
-9 -9 21 -34 -27 -20 -23 -12
-14 -15 20 -35 -27 -21 -23 -14
-21 -24 18 -38 -30 -21 -26 -15
-19 -21 20 -38 -31 -22 -24 -17
-14 -17 21 -37 -29 -22 -24 -17
-18 -20 20 -38 -31 -23 -26 -20
-16 -18 20 -39 -31 -25 -27 -21
-19 -20 17 -43 -34 -27 -29 -23
-23 -25 14 -45 -35 -29 -34 -23
-24 -26 15 -44 -34 -28 -32 -24
-15 -17 18 -39 -32 -25 -28 -19
-7 -9 22 -36 -28 -22 -27 -15
-12 -13 22 -37 -30 -24 -29 -18
-29 -28 19 -44 -38 -28 -31 -22
-29 -30 21 -44 -36 -28 -29 -21
-9 -11 29 -38 -28 -20 -23 -15
-4 -5 32 -36 -26 -19 -23 -14
-23 -23 24 -41 -32 -27 -31 -19
-21 -23 19 -45 -36 -30 -35 -21
-16 -18 15 -44 -33 -26 -32 -19
-25 -25 11 -45 -35 -30 -35 -23
-23 -23 16 -45 -37 -32 -35 -22
-23 -25 16 -47 -37 -29 -35 -24
-21 -23 16 -46 -38 -29 -31 -21
-14 -17 22 -42 -34 -27 -27 -18
-19 -22 20 -46 -35 -29 -29 -19
-20 -23 17 -47 -36 -29 -29 -20
-21 -26 16 -48 -37 -31 -30 -21
-11 -15 20 -46 -34 -28 -31 -17
-6 -10 24 -43 -31 -25 -29 -14
-1 -6 27 -42 -31 -26 -28 -12
-8 -12 26 -43 -31 -28 -30 -13
-14 -17 21 -46 -35 -28 -32 -17
-15 -19 19 -46 -35 -28 -32 -19
-14 -18 16 -47 -35 -30 -33 -19
-10 -18 14 -47 -36 -28 -33 -20
-6 -16 14 -49 -36 -27 -31 -19
-6 -14 13 -48 -35 -25 -31 -18
-11 -18 11 -49 -37 -27 -36 -19
-15 -24 11 -50 -39 -31 -39 -23
-14 -20 12 -49 -40 -34 -42 -26
-15 -19 13 -49 -38 -34 -43 -25
-16 -21 15 -51 -41 -35 -45 -28
-11 -17 21 -47 -37 -33 -41 -24
3 -5 24 -43 -32 -28 -36 -20
7 -1 26 -41 -30 -26 -32 -16
-3 -8 23 -42 -33 -29 -33 -18
-8 -15 21 -44 -35 -31 -35 -19
-9 -18 18 -47 -37 -32 -39 -21
-8 -16 20 -45 -36 -28 -37 -21
0 -6 24 -39 -30 -21 -30 -15
-7 -9 23 -39 -29 -21 -30 -15
-12 -10 24 -39 -29 -22 -30 -14
-9 -5 28 -38 -25 -21 -23 -11
4 10 36 -32 -20 -14 -18 -6
3 10 35 -32 -18 -15 -18 -7
-1 6 36 -30 -18 -14 -15 -6
-2 8 38 -30 -18 -13 -12 -4
3 14 44 -28 -14 -10 -12 -2
5 14 41 -31 -16 -13 -15 -5
-5 0 32 -33 -22 -18 -20 -10
-14 -10 23 -36 -26 -22 -24 -13
-3 1 23 -31 -21 -17 -19 -7
8 11 25 -27 -16 -11 -11 -2
10 14 26 -25 -17 -10 -12 -2
2 2 20 -32 -23 -17 -18 -7
7 4 20 -31 -23 -16 -18 -7
4 4 16 -32 -23 -17 -19 -9
3 -1 9 -34 -24 -16 -19 -12
11 4 13 -30 -19 -11 -13 -7
16 8 11 -29 -16 -8 -7 -3
16 10 12 -29 -18 -10 -8 -2
12 8 12 -26 -16 -9 -5 1
-1 -3 11 -25 -19 -10 -3 0
2 -2 15 -24 -19 -10 -1 1
1 -2 12 -27 -20 -12 -2 0
3 -2 10 -31 -25 -17 -6 -4
7 -2 11 -33 -27 -17 -7 -4
13 0 9 -34 -27 -17 -9 -4
12 0 9 -36 -27 -16 -10 -5
13 3 6 -39 -31 -19 -13 -5
11 4 12 -38 -31 -22 -15 -4
16 9 15 -37 -31 -24 -17 -6
12 4 17 -35 -32 -24 -16 -7
4 -2 13 -37 -32 -25 -14 -7
4 -5 10 -38 -33 -25 -14 -7
3 -6 6 -40 -33 -25 -14 -7
6 -4 8 -40 -32 -22 -12 -5
11 0 10 -38 -30 -21 -10 -4
14 3 12 -38 -31 -21 -11 -4
13 2 13 -37 -32 -22 -12 -4
1 -5 9 -41 -37 -25 -16 -9
-6 -16 9 -44 -40 -30 -22 -12
-9 -20 8 -46 -40 -31 -22 -16
-12 -22 7 -46 -42 -32 -24 -18
-7 -17 11 -47 -41 -33 -25 -17
0 -11 12 -45 -40 -33 -24 -17
-4 -17 11 -46 -42 -35 -26 -19
3 -11 9 -46 -41 -33 -28 -17
16 2 13 -39 -35 -24 -23 -11
5 -8 11 -43 -38 -28 -27 -13
-4 -17 10 -47 -43 -33 -31 -16
0 -15 11 -47 -44 -35 -32 -16
-5 -20 13 -48 -45 -39 -37 -20
-17 -30 13 -50 -49 -40 -39 -20
-9 -20 15 -45 -44 -37 -35 -17
6 -5 17 -41 -39 -31 -31 -12
4 -10 13 -42 -39 -28 -31 -11
-5 -17 8 -44 -42 -32 -34 -13
5 -9 11 -42 -39 -30 -32 -12
3 -10 7 -44 -43 -32 -35 -16
0 -11 8 -44 -42 -33 -41 -17
3 -7 12 -41 -40 -34 -40 -16
2 -11 15 -40 -40 -33 -38 -17
0 -13 18 -40 -40 -32 -39 -16
-2 -16 18 -41 -39 -33 -41 -18
1 -11 16 -39 -38 -30 -39 -16
3 -7 14 -35 -35 -25 -34 -14
0 -9 9 -37 -36 -28 -38 -16
-3 -17 8 -39 -38 -32 -41 -19
-6 -20 6 -40 -41 -33 -41 -19
-3 -17 7 -39 -39 -31 -39 -16
-7 -18 5 -39 -38 -32 -40 -16
-2 -12 13 -32 -35 -29 -35 -15
2 -8 22 -23 -29 -28 -36 -15
-15 -27 27 -13 -23 -31 -44 -24
-20 -32 36 6 -9 -27 -46 -30
-17 -23 49 32 16 -12 -42 -30
-13 -13 63 61 51 15 -30 -21
1 4 79 101 98 55 -7 -5
1 9 89 136 142 98 21 11
-4 15 95 159 184 138 44 26
13 37 97 179 233 191 76 47
31 55 83 192 279 248 117 75
39 64 71 192 311 300 158 105
49 84 61 174 331 344 200 137
57 98 42 118 318 372 237 169
57 105 12 45 281 373 260 192
63 117 -17 -38 215 339 270 207
58 112 -50 -132 112 253 246 201
47 95 -73 -227 -7 136 193 176
28 74 -95 -331 -145 2 122 139
12 52 -118 -417 -283 -135 44 94
-8 29 -157 -496 -404 -249 -27 51
-24 13 -200 -547 -472 -313 -74 20
-15 13 -232 -552 -479 -322 -90 11
4 16 -260 -533 -462 -306 -89 12
22 18 -285 -518 -444 -292 -85 14
29 20 -296 -494 -421 -277 -83 16
34 22 -292 -461 -393 -261 -81 13
26 20 -279 -430 -371 -251 -83 6
21 27 -258 -395 -340 -239 -83 4
20 42 -227 -356 -305 -216 -75 4
10 34 -204 -323 -280 -202 -76 -3
5 27 -181 -289 -253 -187 -78 -12
1 23 -152 -253 -220 -167 -76 -16
4 28 -123 -216 -188 -143 -70 -19
5 23 -96 -179 -160 -126 -66 -23
-1 11 -75 -147 -131 -108 -62 -24
-2 6 -50 -113 -100 -83 -50 -19
6 9 -24 -76 -67 -56 -33 -10
7 2 -10 -53 -47 -42 -27 -8
3 -7 -2 -41 -36 -33 -25 -10
-1 -10 4 -32 -29 -29 -22 -10
3 -7 9 -25 -24 -28 -21 -9
2 -9 12 -18 -19 -26 -22 -7
-1 -13 12 -16 -19 -24 -24 -8
1 -12 11 -11 -16 -22 -23 -8
-2 -15 13 -7 -14 -21 -24 -8
-10 -23 15 -5 -13 -24 -27 -11
0 -12 19 0 -8 -18 -22 -8
5 -7 19 4 -3 -15 -17 -4
-4 -15 16 4 -3 -16 -20 -7
7 -5 18 7 1 -12 -15 -5
16 4 22 9 3 -8 -10 -2
11 -1 22 10 5 -8 -12 -3
5 -6 20 13 7 -6 -12 -4
4 -8 21 14 7 -6 -12 -4
6 -6 22 15 9 -6 -16 -7
2 -10 22 14 8 -7 -17 -10
1 -10 21 14 9 -5 -15 -11
1 -8 23 17 11 -5 -11 -9
4 -7 20 17 11 -7 -9 -11
6 -7 19 18 11 -4 -3 -10
5 -7 19 19 11 -5 1 -10
4 -7 20 21 13 -5 1 -9
5 -5 22 22 16 -1 4 -9
11 2 27 25 18 3 10 -4
12 2 26 27 23 6 11 -2
6 -4 22 26 22 6 7 -4
1 -11 21 24 18 1 0 -7
7 -6 21 26 18 -2 0 -6
4 -9 20 26 20 -1 1 -5
9 -5 22 26 21 2 5 -3
17 3 26 29 24 8 8 2
9 -4 22 30 23 7 7 1
7 -6 17 31 24 8 5 -1
-4 -12 15 32 24 5 1 -4
4 -3 21 38 29 6 0 -1
14 5 24 41 33 7 3 0
14 4 21 41 31 9 4 -1
16 7 22 44 35 12 9 3
15 5 20 43 35 12 10 3
7 -2 14 40 32 10 12 -1
2 -7 8 41 31 10 13 1
12 4 15 48 39 14 19 7
10 2 18 50 41 16 17 5
3 -5 19 50 38 12 13 1
4 -4 21 54 41 13 11 1
-1 -8 22 56 41 11 9 -1
5 -4 24 56 45 16 13 1
5 -5 19 58 46 18 18 4
15 0 17 61 49 20 21 6
13 -3 14 62 48 20 22 6
2 -11 11 63 46 19 23 6
3 -5 10 66 50 22 26 7
12 3 11 71 57 26 30 8
24 15 16 79 61 30 36 11
19 10 15 80 62 30 35 7
10 3 11 80 62 31 34 5
20 13 16 88 70 40 41 12
35 28 21 97 78 46 48 19
29 22 21 99 78 45 48 18
18 9 15 98 74 41 45 16
18 5 11 99 73 41 46 17
17 5 12 100 77 42 47 19
25 11 19 109 82 48 53 22
26 13 19 116 85 49 57 23
21 8 15 117 85 48 56 21
12 3 17 122 89 51 57 22
15 4 17 126 91 53 60 21
28 14 19 131 96 59 66 23
32 22 21 137 104 65 64 27
24 16 18 139 104 64 50 28
24 14 15 142 102 61 34 29
28 16 11 144 107 64 29 31
23 10 9 146 106 65 25 30
21 11 8 152 109 67 27 30
33 23 13 158 114 70 25 32
39 29 14 162 116 74 23 32
35 25 9 161 116 76 23 33
31 22 4 160 117 76 25 35
36 28 6 163 121 81 29 41
33 25 5 163 119 78 30 41
32 22 4 166 120 80 34 43
39 31 3 169 123 84 40 47
43 35 2 169 125 86 42 46
51 46 1 170 125 87 44 47
50 44 1 171 125 89 44 46
36 31 -5 165 121 84 38 41
30 23 -9 163 118 82 38 41
35 27 -8 164 118 81 39 43
38 30 -7 163 119 82 40 45
41 35 -7 163 116 82 40 47
38 32 -11 159 111 80 36 46
30 28 -10 155 109 78 33 45
26 25 -10 153 107 75 30 43
32 30 -8 154 106 76 31 45
34 31 -11 152 106 77 28 43
24 22 -17 145 102 73 24 38
25 21 -16 140 96 69 22 40
30 27 -15 137 94 66 22 42
30 29 -15 133 93 67 23 45
33 32 -14 131 90 67 25 46
24 27 -18 124 84 64 26 44
26 28 -17 122 84 63 29 46
25 26 -15 118 79 57 25 43
24 23 -15 112 71 48 22 39
22 22 -18 109 69 46 20 39
23 23 -16 106 69 48 23 37
25 24 -16 102 63 46 21 34
21 19 -16 97 58 39 17 29
15 15 -17 90 55 35 12 24
11 9 -20 85 49 28 7 19
9 8 -22 79 44 24 4 17
12 10 -20 76 42 21 2 19
12 11 -22 72 38 18 -1 17
18 15 -20 70 36 18 -2 16
24 22 -17 69 37 18 -5 15
22 19 -17 66 36 16 -8 11
17 13 -20 63 31 12 -8 7
0 -3 -29 55 23 5 -13 1
-1 -4 -28 52 21 4 -10 1
6 1 -28 52 22 6 -4 4
14 7 -28 51 21 8 -1 5
14 6 -28 50 21 8 -1 5
13 5 -28 48 19 7 -1 5
8 -2 -27 45 15 3 -5 1
0 -7 -28 43 13 0 -9 -2
4 -3 -30 42 12 0 -13 -6
7 -1 -33 44 11 -2 -13 -7
9 1 -33 41 7 -5 -14 -7
10 2 -30 42 12 -2 -12 -5
8 -1 -32 38 9 -3 -13 -5
7 -4 -31 37 6 -6 -15 -5
5 -5 -30 37 6 -10 -18 -6
1 -9 -31 37 3 -12 -22 -9
8 -1 -26 39 7 -8 -19 -7
8 -2 -26 40 8 -7 -20 -9
6 -2 -28 37 7 -7 -19 -12
6 -4 -27 38 7 -10 -19 -12
-2 -12 -29 37 2 -16 -23 -15
-3 -11 -29 38 4 -13 -23 -15
0 -8 -29 38 4 -9 -21 -16
3 -7 -29 38 1 -11 -21 -15
0 -10 -31 35 0 -12 -21 -16
-1 -12 -32 35 1 -10 -21 -15
2 -10 -32 34 2 -10 -21 -16
8 -3 -29 36 5 -8 -20 -12
3 -6 -32 34 4 -8 -21 -13
0 -10 -35 33 2 -10 -25 -14
5 -4 -33 34 3 -8 -25 -12
-1 -7 -35 33 3 -8 -28 -12
-1 -9 -35 30 0 -9 -30 -13
7 -3 -29 33 1 -9 -29 -10
3 -6 -28 33 2 -10 -32 -11
-6 -12 -29 33 0 -15 -36 -14
0 -6 -28 36 -1 -16 -36 -14
4 -4 -28 39 3 -13 -33 -11
-5 -13 -31 38 4 -11 -34 -15
-14 -24 -33 38 3 -14 -35 -16
1 -7 -28 43 8 -9 -29 -11
1 -7 -30 40 8 -8 -29 -12
3 -6 -33 38 5 -9 -30 -14
6 -3 -35 42 5 -11 -32 -14
6 -2 -35 43 8 -8 -31 -12
2 -4 -30 43 10 -6 -27 -11
0 -8 -30 42 9 -8 -25 -13
-7 -16 -32 38 6 -13 -26 -16
-10 -18 -33 36 7 -12 -26 -15
-4 -12 -33 39 9 -9 -21 -12
3 -8 -32 42 10 -11 -18 -9
-2 -13 -36 42 10 -11 -18 -11
-5 -14 -37 41 9 -12 -18 -13
-9 -16 -33 43 8 -12 -17 -14
-6 -15 -34 44 7 -15 -21 -16
-3 -13 -33 44 10 -12 -21 -17
0 -7 -31 50 13 -8 -17 -14
4 -1 -28 52 18 -6 -14 -13
5 -1 -29 54 20 -4 -14 -12
-2 -9 -32 52 18 -6 -16 -14
-3 -13 -34 50 14 -10 -18 -14
-1 -9 -28 55 17 -7 -13 -11
1 -7 -26 56 18 -4 -11 -9
-3 -10 -28 55 16 -7 -12 -10
-5 -13 -34 52 14 -10 -15 -12
0 -8 -36 55 18 -6 -12 -11
2 -6 -38 54 16 -8 -14 -13
1 -8 -36 54 17 -11 -16 -14
-3 -13 -35 54 19 -10 -17 -16
-8 -14 -34 55 18 -8 -15 -14
-4 -12 -35 56 18 -9 -15 -13
-7 -15 -34 56 20 -7 -15 -11
-3 -10 -30 56 25 -5 -16 -9
-3 -8 -28 58 25 -8 -19 -10
-3 -9 -30 58 25 -9 -23 -10
-3 -8 -29 58 25 -8 -23 -12
-10 -15 -29 57 23 -8 -24 -13
-13 -18 -33 57 23 -10 -27 -15
-8 -13 -32 58 25 -9 -30 -15
-4 -10 -31 58 23 -9 -31 -17
4 -4 -30 60 24 -7 -28 -14
2 -7 -35 59 22 -9 -30 -17
-12 -19 -39 56 18 -12 -33 -20
-11 -13 -35 63 23 -6 -27 -15
-1 -4 -34 65 26 -3 -24 -12
-4 -9 -37 61 22 -5 -24 -14
-5 -9 -36 61 20 -8 -25 -14
-7 -10 -37 61 20 -11 -28 -14
-5 -10 -36 59 21 -11 -29 -15
-1 -6 -33 60 21 -10 -26 -14
-2 -10 -36 57 19 -12 -26 -15
-6 -13 -35 57 21 -9 -23 -15
-16 -21 -37 52 16 -11 -24 -18
-15 -19 -38 51 14 -11 -23 -21
-5 -12 -40 51 16 -11 -23 -20
-4 -8 -37 48 14 -15 -26 -22
-3 -6 -33 48 14 -17 -27 -24
-1 -6 -32 48 18 -18 -27 -23
2 -2 -29 51 20 -14 -24 -21
2 -1 -26 49 18 -13 -23 -20
1 -3 -25 48 15 -15 -23 -19
-6 -14 -25 45 11 -19 -27 -22
-10 -17 -25 47 5 -19 -27 -22
-13 -20 -25 46 -4 -22 -28 -22
-5 -12 -20 49 -12 -18 -24 -18
-6 -14 -18 46 -25 -17 -24 -19
-9 -18 -20 44 -35 -20 -26 -22
-14 -21 -19 42 -40 -20 -29 -22
-12 -18 -17 43 -43 -21 -30 -24
-5 -10 -15 43 -45 -22 -31 -23
-8 -13 -15 42 -48 -24 -32 -26
-6 -13 -13 40 -50 -24 -32 -27
-4 -8 -12 40 -51 -21 -29 -26
-7 -10 -11 38 -53 -22 -30 -26
-13 -15 -7 38 -52 -23 -29 -26
-15 -18 -6 37 -53 -23 -31 -26
-14 -17 -3 38 -52 -22 -29 -23
5 0 3 42 -47 -17 -24 -17
3 -3 4 41 -46 -17 -25 -18
-5 -10 0 37 -50 -21 -29 -23
-11 -18 -2 35 -52 -24 -32 -24
-19 -24 -6 34 -54 -25 -32 -26
-14 -16 -5 34 -54 -23 -30 -23
-5 -10 -3 33 -54 -26 -31 -23
-17 -20 -5 30 -56 -30 -35 -26
-7 -10 -1 33 -51 -25 -32 -24
-7 -10 -2 32 -51 -25 -31 -25
-15 -19 -4 27 -53 -27 -34 -28
-13 -16 0 27 -49 -25 -32 -27
-13 -17 2 27 -48 -25 -30 -26
-13 -15 0 28 -47 -26 -28 -25
-9 -13 2 28 -43 -23 -25 -22
-14 -19 -1 26 -44 -22 -25 -23
-19 -21 -4 24 -46 -24 -27 -23
-19 -22 -5 23 -46 -23 -29 -23
-17 -21 -4 23 -45 -23 -29 -24
-12 -17 -3 24 -42 -22 -29 -23
-6 -10 1 26 -39 -21 -28 -22
1 -2 7 29 -35 -18 -26 -19
-3 -6 7 28 -35 -19 -28 -20
-5 -9 6 28 -33 -20 -29 -20
-11 -14 4 24 -35 -23 -33 -23
-16 -17 2 23 -36 -25 -33 -23
-13 -12 2 24 -36 -26 -31 -23
-7 -9 -1 25 -34 -26 -32 -22
-8 -11 -4 23 -35 -26 -32 -23
-15 -18 -4 19 -38 -29 -34 -26
-18 -22 -5 16 -40 -31 -35 -28
-16 -19 -2 18 -37 -29 -33 -25
-18 -21 0 15 -38 -30 -33 -25
-17 -19 -2 16 -36 -29 -32 -23
-2 -7 1 20 -30 -22 -27 -19
1 -3 1 22 -30 -21 -25 -19
-23 -27 -5 14 -38 -28 -31 -25
-22 -27 -2 15 -35 -27 -31 -25
-19 -23 3 18 -32 -23 -29 -24
-12 -14 5 20 -30 -23 -27 -22
5 2 11 25 -25 -20 -26 -16
-7 -9 7 19 -27 -24 -30 -19
-19 -15 5 17 -29 -23 -27 -20
-17 -14 2 17 -29 -23 -27 -18
-11 -7 3 18 -27 -17 -21 -14
-7 1 6 19 -23 -13 -16 -10
-8 2 6 18 -25 -14 -15 -10
-4 5 8 20 -22 -13 -13 -8
-2 7 15 25 -21 -12 -11 -7
-4 7 17 26 -22 -14 -13 -8
1 13 22 30 -18 -12 -12 -7
-2 10 21 31 -17 -11 -14 -6
-2 10 19 30 -17 -11 -14 -7
-6 7 13 27 -19 -12 -16 -8
-11 2 9 24 -21 -14 -17 -10
-11 2 5 22 -21 -14 -14 -8
-6 5 5 22 -20 -15 -12 -5
-3 4 2 20 -19 -16 -13 -5
-4 2 1 18 -20 -16 -12 -5
-9 -4 -6 15 -23 -17 -13 -6
-10 -4 -10 13 -23 -16 -12 -6
-1 3 -8 11 -19 -14 -12 -6
-5 -2 -6 11 -20 -14 -12 -8
-2 2 -4 15 -16 -10 -9 -6
-1 3 -3 16 -13 -9 -8 -5
-5 0 0 17 -13 -10 -8 -5
-4 -1 1 16 -16 -15 -8 -5
-4 -4 0 11 -18 -19 -11 -6
-6 -7 -2 6 -22 -21 -13 -8
-12 -11 -1 6 -20 -19 -11 -6
-15 -14 -1 6 -19 -20 -12 -6
-9 -10 2 6 -19 -20 -12 -6
3 -1 3 6 -19 -19 -11 -5
-4 -5 0 4 -20 -21 -13 -7
-2 -4 -3 1 -22 -21 -16 -9
0 -3 -6 -2 -27 -25 -18 -11
-9 -13 -8 -7 -32 -29 -23 -15
-13 -16 -7 -5 -30 -29 -23 -15
-15 -19 -6 -4 -28 -28 -23 -14
-18 -20 -3 -4 -28 -30 -23 -16
-18 -18 -1 -5 -28 -32 -24 -18
-22 -23 -4 -9 -34 -35 -28 -23
-20 -23 -4 -9 -32 -34 -26 -22
-13 -18 -3 -8 -28 -32 -23 -20
-3 -9 1 -6 -25 -28 -20 -15
-9 -15 -3 -8 -29 -31 -21 -16
-13 -18 -3 -9 -31 -35 -22 -18
-8 -15 -1 -8 -29 -35 -21 -16
-9 -16 -1 -8 -28 -33 -20 -15
-10 -18 -3 -10 -31 -37 -22 -17
-10 -19 -2 -13 -34 -39 -25 -19
-17 -27 -5 -16 -35 -41 -29 -23
-23 -35 -3 -19 -37 -43 -31 -27
-25 -33 -2 -19 -35 -45 -32 -27
-16 -26 1 -16 -32 -42 -30 -25
-15 -23 -2 -17 -31 -43 -27 -24
-19 -25 -4 -18 -32 -43 -26 -24
-28 -37 -8 -21 -34 -43 -26 -24
-24 -32 -4 -20 -33 -42 -24 -22
-25 -34 -5 -21 -34 -44 -25 -23
-26 -35 -2 -21 -32 -42 -26 -25
-14 -22 2 -16 -25 -38 -22 -22
-3 -14 1 -17 -24 -37 -23 -21
-14 -21 -3 -19 -27 -39 -25 -23
-19 -25 -6 -21 -27 -41 -28 -24
-8 -14 -3 -19 -25 -39 -23 -23
-18 -22 -4 -23 -30 -41 -24 -25
-24 -31 -2 -24 -30 -43 -26 -27
-27 -31 0 -23 -28 -43 -27 -26
-21 -26 2 -19 -25 -40 -22 -24
-12 -20 4 -16 -21 -36 -20 -19
-16 -24 2 -18 -20 -36 -19 -18
-22 -29 -1 -22 -23 -37 -20 -18
-16 -23 2 -21 -21 -36 -18 -15
-14 -21 3 -21 -21 -36 -20 -15
-16 -22 6 -18 -19 -37 -23 -20
-19 -24 15 -8 -12 -37 -26 -25
-18 -22 30 10 1 -35 -30 -29
-29 -28 41 30 16 -29 -34 -34
-19 -19 49 51 41 -12 -26 -31
-20 -15 56 77 72 15 -14 -24
-22 -9 68 116 119 53 6 -11
-9 11 83 154 167 99 38 10
2 26 86 177 211 143 67 30
6 35 81 191 254 192 101 54
23 54 72 199 297 249 144 84
33 68 63 198 331 302 187 115
40 81 50 175 344 343 225 147
46 95 34 121 329 364 255 174
44 100 10 50 288 358 269 191
44 105 -20 -36 212 312 264 200
40 101 -49 -129 110 222 230 190
27 82 -75 -227 -16 101 169 159
13 65 -97 -327 -154 -34 95 119
0 47 -127 -410 -285 -163 20 74
-13 32 -167 -481 -392 -262 -39 37
-14 30 -204 -523 -445 -312 -76 15
-10 23 -242 -531 -453 -322 -93 6
-5 10 -274 -520 -443 -313 -97 1
7 9 -294 -504 -426 -299 -94 2
17 12 -301 -478 -400 -287 -88 5
14 9 -295 -449 -376 -273 -90 1
13 19 -275 -413 -347 -257 -87 0
9 28 -254 -379 -316 -241 -83 -1
3 32 -230 -346 -285 -220 -79 0
1 33 -205 -312 -256 -203 -74 -4
11 44 -175 -271 -220 -183 -66 -5
3 35 -149 -234 -190 -164 -66 -9
-14 17 -126 -204 -165 -148 -66 -18
-17 11 -99 -166 -133 -126 -58 -19
-12 9 -73 -130 -100 -103 -47 -15
-11 3 -49 -97 -70 -81 -38 -13
-13 -5 -26 -67 -46 -66 -31 -12
-10 -10 -12 -47 -27 -54 -26 -11
-11 -14 -6 -35 -15 -45 -24 -11
-9 -8 2 -23 -7 -37 -18 -8
-1 1 12 -11 1 -31 -12 -4
-15 -15 11 -9 3 -30 -15 -8
-7 -10 12 -6 6 -26 -13 -8
-3 -5 14 0 9 -24 -11 -7
-12 -14 10 0 7 -27 -16 -11
-11 -15 9 2 9 -26 -18 -13
-8 -12 9 5 13 -22 -16 -11
-3 -8 11 8 15 -20 -14 -8
-8 -16 10 5 12 -22 -17 -11
-4 -10 14 9 14 -18 -14 -10
-4 -9 15 12 17 -16 -12 -9
-17 -20 12 11 15 -19 -15 -12
-15 -19 17 13 16 -15 -15 -12
4 -1 26 21 24 -8 -9 -7
14 10 31 28 34 -2 -3 -2
-1 -5 23 24 30 -5 -8 -6
-8 -15 17 20 26 -6 -11 -11
-2 -9 19 23 28 -7 -10 -7
-3 -11 17 22 26 -9 -11 -8
-4 -10 17 21 26 -7 -10 -8
6 1 22 26 28 -4 -5 -4
4 -1 22 27 29 -2 -8 -4
0 -7 24 28 31 -3 -8 -4
-1 -9 23 28 32 -4 -11 -6
-10 -16 24 29 34 -6 -13 -7
-16 -19 23 28 33 -4 -14 -10
-9 -13 26 29 34 -3 -13 -10
-7 -12 26 29 33 -5 -14 -8
0 -5 29 32 37 0 -11 -5
8 1 31 33 37 1 -9 -4
2 -3 32 34 38 0 -10 -4
-5 -6 32 35 40 0 -10 -4
-7 -10 31 36 42 3 -9 -4
-5 -8 32 41 44 5 -6 -3
-2 -4 34 41 46 5 -6 -3
0 -2 35 42 47 8 -5 -3
3 0 35 43 49 10 -3 -3
0 -3 32 42 48 9 -5 -3
-5 -7 31 42 48 9 -6 -3
-7 -10 28 44 48 9 -6 -3
-3 -7 25 45 47 7 -7 -3
-6 -8 25 46 49 8 -7 -2
-5 -7 29 48 52 12 -5 -1
-11 -14 27 49 53 12 -9 -2
-13 -13 29 53 56 13 -10 -2
0 1 34 57 60 16 -8 0
10 9 38 60 64 19 -5 -2
3 3 38 60 64 18 -5 -5
4 4 39 61 65 20 -4 -7
4 3 38 63 66 25 -1 -10
5 4 38 67 70 28 2 -9
2 -1 36 67 72 28 0 -12
-1 -2 34 69 73 31 1 -13
4 5 35 74 75 33 3 -13
6 6 37 78 81 34 3 -13
4 2 38 78 81 34 1 -15
2 1 38 78 81 36 3 -15
5 7 41 82 87 41 7 -12
11 11 42 85 90 44 10 -9
9 6 38 84 87 42 8 -12
14 10 38 89 91 43 10 -11
12 9 37 93 93 46 10 -11
12 9 33 96 97 49 13 -11
11 10 34 100 100 53 14 -12
16 13 39 104 105 56 15 -11
18 13 38 107 107 59 14 -13
11 8 39 108 107 58 12 -15
16 14 44 113 112 61 14 -12
12 10 45 115 114 64 15 -9
12 12 44 118 116 67 16 -8
19 18 43 123 119 69 22 -3
31 28 43 129 124 73 26 2
33 28 41 129 127 76 28 1
20 16 39 130 124 75 26 -3
15 10 39 131 127 78 28 -3
23 19 44 137 133 86 34 3
22 20 42 137 133 88 36 3
27 26 42 140 136 88 37 3
31 30 42 142 138 92 40 5
30 31 42 141 136 91 40 5
30 31 40 143 135 90 41 7
22 25 32 139 133 88 39 6
22 27 29 140 134 89 43 9
26 32 33 142 137 93 47 12
28 31 31 140 136 92 47 12
28 33 29 138 134 92 46 12
29 36 31 139 135 93 48 13
31 37 32 138 135 94 50 13
33 39 29 135 133 93 51 15
29 37 27 132 130 93 50 14
15 25 22 126 125 88 48 11
20 28 24 125 126 91 50 14
22 30 25 124 123 89 50 14
29 39 29 126 123 90 53 17
27 36 27 122 120 87 51 18
19 29 24 114 116 84 47 15
28 36 26 112 114 84 48 16
24 29 23 103 107 79 45 13
16 22 20 95 102 76 42 12
16 25 21 94 99 76 43 12
24 30 21 90 98 76 43 12
20 28 20 86 94 74 39 9
20 30 20 82 91 72 36 7
17 27 20 77 87 66 32 3
8 18 18 68 80 59 26 -1
10 21 21 66 79 57 24 -2
10 20 22 62 76 57 25 0
7 15 18 54 69 52 22 -2
-1 9 16 47 67 50 21 -3
3 11 17 45 61 49 22 -4
10 14 19 41 59 45 22 -5
12 16 19 37 56 43 20 -6
18 21 19 36 58 45 22 -5
20 22 20 34 56 45 22 -6
17 20 17 30 53 41 21 -8
12 15 15 26 51 39 19 -11
0 3 12 19 43 34 14 -16
-7 -6 10 13 37 30 8 -20
1 3 13 11 36 30 9 -18
4 6 15 12 36 32 9 -19
6 7 17 11 36 31 11 -19
2 4 17 8 32 27 7 -22
-4 -1 19 7 30 25 5 -25
-4 -5 18 6 28 23 2 -26
-1 -1 17 6 28 23 2 -24
2 2 15 4 27 22 0 -25
10 7 11 3 25 22 0 -26
1 -3 6 -2 19 17 -4 -28
-12 -15 4 -7 13 12 -10 -34
-10 -13 3 -8 12 11 -10 -37
-3 -5 9 -5 14 13 -5 -33
-7 -7 11 -5 15 13 -7 -33
-5 -7 12 -6 14 13 -7 -35
-2 -5 15 -6 14 13 -6 -33
-6 -9 16 -7 14 11 -7 -34
-12 -13 16 -8 15 13 -7 -34
-14 -13 12 -10 12 12 -7 -36
-11 -11 11 -10 12 11 -5 -33
-2 -5 9 -11 13 11 -7 -33
8 3 11 -8 15 15 -3 -29
3 -3 12 -10 11 13 -6 -30
-1 -5 12 -11 10 9 -8 -30
-7 -9 11 -12 8 7 -10 -33
-9 -9 12 -11 9 8 -9 -32
-7 -7 15 -11 11 9 -9 -32
0 0 18 -9 14 11 -8 -29
-2 -3 17 -11 11 10 -8 -30
-8 -11 15 -14 7 6 -10 -32
-10 -12 13 -15 7 8 -10 -32
-16 -19 12 -13 7 9 -10 -32
-14 -17 8 -14 5 8 -10 -34
-16 -15 12 -13 7 11 -9 -32
-14 -13 17 -12 8 13 -7 -31
2 -1 19 -9 11 15 -5 -30
6 3 22 -6 14 17 -6 -28
0 -2 17 -9 14 14 -9 -30
-6 -8 12 -12 8 9 -11 -33
-15 -16 8 -13 7 8 -11 -32
-20 -21 5 -14 7 8 -12 -31
-11 -13 7 -14 6 10 -10 -29
0 -4 14 -7 11 14 -5 -24
-1 -5 15 -7 12 16 -5 -22
-7 -8 15 -8 12 16 -6 -26
-18 -18 14 -10 9 12 -10 -29
-23 -24 13 -11 7 7 -16 -34
-22 -22 16 -11 9 8 -17 -35
-16 -16 19 -8 11 11 -14 -33
-19 -19 16 -8 11 12 -14 -34
-3 -2 21 -2 16 16 -10 -30
3 2 24 1 17 17 -9 -27
-1 -3 21 1 15 15 -9 -29
-1 -5 15 -1 14 15 -9 -29
-3 -3 11 0 13 17 -9 -28
-7 -7 11 1 13 18 -8 -26
-5 -6 14 2 15 19 -7 -23
-2 -4 15 2 16 18 -9 -22
-8 -10 13 0 12 18 -10 -25
-19 -20 9 -2 10 14 -13 -28
-16 -17 9 -3 12 15 -12 -28
-12 -14 10 0 13 17 -11 -28
-11 -11 11 1 12 18 -10 -28
-6 -5 13 3 14 19 -8 -25
-9 -8 13 3 13 19 -8 -25
-15 -15 10 0 9 17 -10 -27
-13 -13 10 -1 10 17 -9 -25
-10 -12 10 -1 11 20 -8 -24
-6 -8 15 2 13 23 -6 -22
5 5 18 6 14 25 -3 -18
-3 -1 15 6 14 23 -4 -19
0 -3 14 6 10 23 -5 -18
-1 -4 13 4 2 21 -6 -20
-9 -11 8 -1 -8 17 -11 -26
-7 -8 10 3 -9 21 -8 -23
-1 -3 11 5 -12 22 -7 -22
-5 -6 11 3 -14 21 -7 -22
-2 -3 12 5 -12 23 -6 -19
-6 -5 15 4 -15 22 -5 -18
-5 -7 14 4 -18 21 -7 -18
0 -2 16 2 -18 21 -6 -16
1 -1 15 4 -18 23 -5 -14
-6 -5 12 4 -22 22 -6 -17
-19 -17 6 0 -25 18 -11 -21
-11 -10 12 0 -22 21 -9 -18
3 2 18 4 -19 26 -7 -16
4 5 20 5 -17 29 -5 -16
-7 -8 12 0 -20 24 -10 -19
-18 -20 5 -6 -28 17 -16 -25
-20 -25 -3 -10 -32 13 -18 -26
-13 -16 -4 -9 -29 13 -16 -24
-9 -11 3 -7 -28 16 -14 -22
-8 -10 5 -8 -28 17 -15 -22
-7 -10 6 -9 -29 17 -16 -22
-9 -11 5 -10 -28 16 -17 -23
-7 -10 4 -10 -30 16 -16 -24
-11 -11 5 -10 -29 17 -16 -23
-7 -7 8 -7 -26 19 -13 -22
-3 -6 6 -8 -28 19 -14 -22
-6 -11 4 -10 -30 16 -17 -24
2 -1 6 -8 -27 17 -16 -21
12 10 9 -6 -24 20 -14 -16
9 6 10 -6 -26 19 -13 -16
-2 -7 4 -10 -30 14 -18 -20
-12 -17 2 -15 -34 11 -22 -23
-13 -19 5 -15 -34 12 -21 -22
-8 -11 9 -13 -31 14 -18 -19
-5 -8 8 -13 -30 14 -18 -19
-6 -9 5 -15 -31 14 -19 -19
-1 -7 3 -16 -31 16 -19 -18
1 -5 0 -17 -31 16 -18 -18
-2 -7 0 -17 -31 16 -17 -17
-5 -8 3 -17 -33 13 -19 -18
4 2 7 -14 -29 14 -18 -15
8 7 8 -13 -27 16 -18 -12
2 -3 5 -15 -30 13 -20 -14
-4 -11 1 -19 -32 11 -23 -17
-9 -14 0 -19 -32 12 -23 -17
-20 -19 0 -19 -35 11 -24 -18
-14 -15 0 -18 -32 12 -22 -16
-2 -4 2 -17 -29 14 -20 -13
-5 -8 1 -19 -32 11 -23 -14
-4 -7 1 -18 -32 9 -24 -14
-4 -8 2 -16 -31 9 -23 -13
-1 -5 3 -16 -31 8 -24 -12
-3 -6 4 -17 -32 6 -26 -12
-9 -13 1 -22 -36 2 -30 -17
-10 -15 -1 -22 -35 3 -30 -19
-3 -7 0 -20 -32 6 -28 -17
5 -1 4 -18 -31 7 -26 -15
2 -2 3 -18 -32 6 -27 -15
0 -5 2 -20 -32 7 -27 -15
1 -4 2 -19 -33 6 -26 -14
4 -2 2 -18 -31 8 -25 -12
1 -5 1 -18 -31 10 -24 -10
-5 -11 0 -19 -33 9 -25 -11
-1 -8 2 -16 -30 11 -22 -8
8 2 7 -14 -28 14 -20 -5
12 9 9 -14 -27 14 -20 -5
-4 -6 7 -18 -31 8 -24 -11
-10 -12 2 -25 -34 3 -28 -14
-13 -19 -2 -29 -41 -3 -32 -17
-10 -18 -4 -29 -43 -8 -34 -18
-5 -12 0 -26 -38 -4 -31 -14
-4 -9 1 -23 -34 0 -28 -10
-3 -7 4 -21 -33 1 -28 -8
-10 -12 2 -23 -35 -2 -31 -11
-9 -13 1 -23 -34 -2 -31 -10
-8 -12 3 -21 -34 -2 -29 -9
-2 -6 3 -21 -32 -1 -27 -9
3 -3 2 -23 -32 1 -27 -7
-3 -11 -4 -28 -38 -5 -32 -12
5 -2 1 -24 -36 -3 -30 -8
-2 -10 -2 -28 -37 -8 -34 -12
-3 -10 -3 -28 -37 -8 -35 -14
12 5 3 -22 -31 -2 -28 -7
11 5 3 -20 -30 0 -27 -6
-9 -16 -5 -26 -37 -5 -34 -14
-10 -17 -5 -28 -37 -5 -33 -14
-5 -12 -4 -26 -36 -4 -33 -14
-4 -13 -4 -29 -38 -9 -35 -17
-6 -15 -2 -29 -40 -12 -38 -17
-7 -12 1 -27 -39 -11 -36 -15
-4 -10 4 -24 -35 -10 -34 -12
2 -6 2 -24 -36 -10 -33 -11
7 -2 4 -21 -34 -7 -29 -6
5 -1 6 -19 -32 -6 -29 -5
2 -5 11 -18 -31 -4 -28 -5
-3 -10 8 -19 -33 -6 -30 -7
-1 -7 7 -20 -32 -5 -29 -8
5 -1 6 -18 -28 -3 -29 -5
0 -2 1 -18 -29 -2 -29 -6
-6 -3 2 -17 -30 -4 -31 -7
-7 -1 5 -17 -28 -3 -30 -6
0 8 10 -15 -24 -1 -27 -3
-7 3 8 -16 -26 -1 -27 -5
-2 8 11 -14 -22 2 -24 -3
1 12 12 -14 -20 4 -23 -2
-2 11 13 -12 -19 4 -24 -3
-5 8 11 -14 -20 3 -26 -3
-12 -3 8 -18 -23 0 -28 -5
-12 -5 8 -16 -25 0 -25 -3
-7 1 11 -14 -22 3 -21 -1
5 16 12 -10 -16 8 -17 5
9 18 10 -10 -16 9 -16 6
10 19 7 -10 -18 10 -13 8
6 11 0 -13 -19 7 -16 8
2 7 -7 -19 -23 3 -19 7
-1 4 -10 -20 -25 1 -20 6
1 4 -9 -18 -23 4 -20 8
9 8 -6 -15 -19 7 -18 9
11 12 -6 -13 -20 7 -17 10
12 13 -6 -10 -18 9 -15 11
8 10 -4 -9 -17 10 -13 13
4 6 -5 -11 -20 7 -17 9
0 1 -6 -14 -24 1 -20 6
0 -2 -1 -17 -27 -2 -23 3
-6 -10 -2 -20 -30 -5 -26 0
-5 -10 -2 -21 -30 -7 -28 -1
4 -2 1 -17 -26 -5 -26 4
5 -3 -4 -21 -28 -7 -27 2
-7 -13 -10 -25 -33 -9 -29 -2
-8 -12 -10 -27 -35 -10 -29 0
-4 -7 -10 -26 -33 -9 -28 2
0 -3 -7 -25 -34 -7 -27 2
1 -5 -7 -24 -33 -7 -27 0
-4 -11 -6 -24 -33 -8 -29 -2
-2 -7 0 -23 -33 -8 -28 -1
-3 -6 2 -25 -34 -10 -30 -4
-7 -11 -3 -28 -38 -16 -35 -6
-6 -11 -6 -30 -39 -17 -36 -8
-17 -18 -11 -33 -42 -17 -40 -10
-18 -20 -9 -32 -40 -17 -40 -11
-11 -17 -5 -29 -39 -16 -39 -9
-7 -15 -5 -29 -39 -16 -41 -11
-9 -16 -4 -26 -37 -14 -39 -9
-12 -20 -3 -29 -38 -14 -39 -9
-17 -25 -6 -32 -42 -18 -43 -11
-9 -19 -5 -32 -43 -18 -43 -13
-4 -15 -2 -30 -41 -19 -41 -9
1 -9 3 -26 -37 -14 -39 -6
-9 -20 -4 -32 -44 -20 -46 -13
-16 -25 -5 -35 -45 -22 -49 -16
-14 -24 -6 -35 -44 -22 -48 -14
-22 -34 -12 -39 -50 -27 -53 -20
-14 -27 -8 -35 -47 -24 -51 -17
-7 -19 -1 -30 -39 -19 -46 -11
-11 -23 -5 -31 -41 -19 -47 -11
-3 -13 -3 -27 -37 -16 -42 -7
-5 -16 -3 -28 -37 -15 -42 -6
-12 -25 -5 -33 -42 -19 -43 -8
-9 -22 -6 -32 -42 -18 -44 -6
-12 -24 -4 -32 -42 -20 -44 -7
-7 -19 -4 -31 -41 -20 -44 -5
-8 -19 -2 -30 -38 -19 -42 -2
-17 -26 -3 -31 -40 -20 -44 -3
-18 -29 -1 -32 -42 -22 -46 -6
-7 -19 1 -29 -38 -18 -42 -3
-5 -15 2 -27 -36 -16 -40 -2
-8 -18 2 -27 -37 -16 -41 -3
-9 -18 0 -29 -38 -18 -43 -5
-10 -18 -2 -30 -40 -20 -44 -6
-16 -25 0 -31 -40 -21 -44 -8
-21 -30 1 -29 -40 -23 -48 -12
-22 -30 7 -18 -32 -21 -50 -15
-11 -18 21 5 -17 -16 -49 -16
-12 -18 32 25 -2 -12 -53 -23
-4 -8 43 50 23 5 -47 -19
-14 -12 54 75 52 29 -39 -15
-16 -11 64 112 92 61 -22 -5
-4 5 76 146 139 104 5 14
9 27 83 173 184 152 38 38
14 34 81 192 231 203 71 60
22 42 66 198 270 256 107 85
33 56 61 199 304 309 148 115
41 74 52 181 325 356 191 150
56 94 36 125 311 381 223 180
67 107 15 53 273 378 242 202
61 109 -18 -38 197 331 237 210
47 99 -54 -135 91 240 201 200
32 83 -81 -233 -30 122 140 171
18 65 -103 -335 -165 -9 73 132
3 45 -131 -424 -297 -140 -3 89
-7 33 -169 -497 -404 -240 -64 52
-22 22 -204 -540 -459 -292 -102 25
-19 14 -240 -544 -467 -302 -119 14
-12 0 -275 -532 -457 -296 -125 7
9 8 -297 -512 -436 -277 -119 13
24 14 -309 -488 -414 -262 -111 16
30 19 -304 -456 -391 -248 -108 16
20 19 -287 -422 -363 -234 -107 12
4 17 -267 -389 -337 -221 -106 9
9 30 -238 -352 -304 -202 -100 11
12 35 -213 -316 -275 -183 -97 7
7 32 -184 -278 -245 -165 -94 2
3 24 -154 -240 -215 -148 -93 -4
-6 15 -128 -207 -188 -133 -92 -11
-18 3 -102 -172 -161 -116 -89 -16
-13 1 -78 -139 -130 -94 -80 -12
-13 -4 -58 -106 -101 -72 -70 -9
-11 -8 -35 -73 -73 -52 -56 -7
-2 -5 -16 -45 -49 -35 -45 0
4 0 -7 -31 -34 -24 -39 5
-10 -12 -8 -24 -33 -23 -40 2
-13 -16 -5 -18 -30 -22 -39 0
-13 -14 -1 -8 -22 -16 -34 3
-14 -15 -2 -7 -21 -16 -35 2
-7 -11 1 -2 -17 -12 -31 4
-3 -10 6 -1 -17 -12 -31 3
-15 -19 5 0 -14 -12 -33 1
-19 -23 6 1 -12 -9 -33 2
-5 -10 11 8 -5 -5 -26 6
1 -6 13 8 -5 -7 -27 6
-5 -13 11 7 -6 -7 -30 2
-13 -21 10 10 -6 -8 -31 1
-11 -17 14 14 -1 -4 -28 3
-11 -15 16 15 -1 -4 -28 2
-5 -8 20 20 5 2 -23 4
-1 -6 22 24 8 4 -21 6
-13 -18 17 19 5 -2 -26 1
-16 -20 18 20 4 -2 -25 1
-14 -19 19 22 5 -2 -24 2
-6 -14 17 23 5 -3 -24 2
-6 -15 17 23 5 -1 -24 2
-1 -9 21 28 9 2 -21 4
-2 -8 22 31 12 3 -19 7
-12 -15 20 30 10 2 -19 6
-10 -14 20 32 12 4 -16 7
-10 -13 25 36 16 6 -13 8
-13 -16 27 35 17 6 -12 8
-12 -20 23 30 12 3 -14 6
-7 -15 24 32 15 5 -12 9
-5 -11 22 35 18 8 -9 12
-11 -15 18 34 16 8 -10 11
-6 -13 19 33 17 7 -9 10
-1 -10 22 35 20 9 -7 12
2 -6 24 37 21 12 -5 13
1 -5 26 42 25 15 -2 15
-4 -9 26 42 26 13 -4 12
-3 -7 28 44 29 16 -2 12
-4 -8 30 46 29 16 -1 11
-9 -13 26 46 28 15 -3 9
-13 -17 21 43 25 12 -3 9
-15 -19 16 45 26 12 -2 10
-10 -16 18 46 27 13 0 12
-12 -16 21 47 30 13 1 15
-9 -13 25 51 32 15 4 17
0 -5 31 55 36 21 8 21
-3 -7 33 58 39 23 8 21
-1 -4 35 62 44 27 11 21
-1 -5 36 63 44 27 12 20
-5 -9 32 63 43 26 10 15
-3 -8 32 63 44 26 11 14
-11 -13 30 65 43 25 11 13
-10 -9 30 67 45 27 12 15
-3 -5 30 73 50 31 15 18
2 0 35 76 55 35 20 22
-5 -7 33 76 53 33 17 20
-10 -15 32 76 52 30 15 18
-1 -9 35 79 57 34 18 19
5 0 38 84 60 38 22 21
5 2 37 87 64 41 24 23
9 3 38 90 66 43 27 25
16 11 43 97 71 47 31 29
10 7 45 100 73 49 33 30
9 5 42 102 75 51 35 32
9 3 39 103 76 52 35 32
7 1 38 105 78 54 36 32
12 5 37 110 82 58 38 33
15 9 38 115 85 60 40 34
13 7 38 116 85 61 41 34
21 12 38 121 90 64 46 36
18 10 35 121 92 64 45 35
2 -4 30 122 89 62 44 34
9 5 36 128 94 66 49 38
19 15 39 133 99 70 52 41
18 15 40 136 102 73 57 43
26 22 40 141 107 79 62 47
16 13 36 140 105 78 59 44
7 6 33 140 105 79 56 41
12 12 35 142 106 78 59 43
16 15 34 143 109 78 60 46
22 18 32 142 108 77 60 47
24 20 30 143 107 79 62 49
24 22 31 148 110 81 66 53
24 24 31 147 111 82 69 55
24 25 34 148 112 87 72 57
16 19 33 149 111 87 72 56
16 18 30 146 109 84 69 54
19 24 35 149 115 87 72 57
20 27 35 146 113 88 75 57
26 30 33 144 112 85 76 58
28 33 33 142 112 88 80 60
27 34 30 142 110 88 83 63
27 32 30 141 109 88 85 66
15 21 22 135 106 85 82 64
11 17 17 128 100 80 80 63
27 34 27 133 104 85 87 69
38 46 30 132 105 87 91 72
22 30 27 124 97 80 85 65
15 24 23 117 93 76 81 61
13 23 23 113 90 76 81 59
14 23 21 109 88 75 83 61
18 24 16 102 84 69 79 58
11 17 13 95 77 62 76 56
9 18 13 92 73 61 74 58
14 23 16 90 72 61 77 58
14 19 11 82 66 57 74 55
17 21 11 76 63 54 74 56
29 31 14 76 64 56 75 57
22 23 13 68 58 51 69 49
6 10 9 60 51 44 63 44
0 6 9 56 48 39 60 40
5 9 10 54 46 37 56 38
6 11 12 52 44 36 56 38
4 7 12 47 42 34 54 37
0 1 11 41 39 31 53 34
0 2 12 37 38 32 53 34
-2 1 14 34 35 32 53 35
2 3 13 30 31 30 52 33
5 7 13 27 30 28 51 32
2 5 12 22 26 22 49 29
3 4 9 18 22 18 47 30
7 4 6 15 20 16 44 27
8 7 9 15 19 14 44 28
0 1 9 11 17 11 41 24
0 1 10 9 15 10 38 22
2 2 11 9 15 10 38 21
-5 -7 8 6 12 5 33 15
-5 -5 9 5 12 6 34 15
-1 -1 13 5 12 7 34 17
1 0 16 5 12 7 35 17
-13 -15 10 -1 7 2 32 13
-10 -13 9 -2 6 2 31 15
-1 -5 10 -1 7 4 35 19
-15 -16 5 -3 4 0 30 14
-12 -14 5 -5 3 -2 29 13
-4 -6 13 -1 5 1 31 14
-15 -15 10 -3 3 -2 29 11
-15 -16 7 -4 3 -2 28 10
-7 -10 8 -3 3 0 29 11
-3 -6 11 -4 3 0 31 13
4 1 15 1 8 4 37 18
0 -3 12 -1 6 4 36 16
-5 -7 10 -3 3 1 34 14
-8 -9 9 -3 1 -2 33 13
-11 -12 9 -4 2 -3 31 13
-9 -14 7 -5 -1 -5 28 12
-10 -15 4 -6 -2 -5 27 10
-8 -11 7 -6 1 -5 28 11
-7 -11 7 -6 2 -5 28 10
-17 -19 7 -7 0 -4 30 10
-17 -20 9 -9 -1 -4 28 9
-12 -15 12 -6 1 -4 29 9
-11 -14 11 -6 1 -6 29 9
-3 -6 17 -2 5 -2 33 13
-8 -9 12 -2 4 -3 31 12
-7 -7 11 -1 5 -2 31 11
-8 -9 12 -2 7 -4 31 10
-9 -9 11 -4 5 -6 30 10
-10 -11 7 -8 1 -9 29 9
-10 -12 6 -7 1 -11 28 9
-7 -11 7 -6 3 -10 29 11
-7 -9 6 -5 2 -10 29 10
-14 -17 6 -6 2 -9 28 8
-17 -20 8 -6 2 -9 27 7
-16 -17 7 -5 3 -8 25 6
-12 -10 12 -1 5 -5 26 7
-5 -4 15 3 11 0 32 10
-11 -10 11 0 10 -2 29 9
-7 -10 7 -3 8 -5 26 5
-8 -12 4 -8 4 -8 25 3
-16 -20 2 -8 2 -10 24 2
-17 -20 1 -8 1 -10 24 1
-10 -15 4 -4 5 -6 29 6
-5 -9 6 -1 7 -6 30 8
-9 -12 7 -2 6 -8 26 5
-2 -5 9 2 8 -8 27 6
-5 -4 11 4 9 -9 29 7
-4 -3 14 5 12 -7 29 7
0 -1 17 6 14 -4 31 8
-5 -9 13 4 11 -6 30 7
-14 -14 10 1 9 -8 29 5
-12 -12 9 4 9 -6 30 6
-3 -4 11 7 13 -3 35 10
-4 -7 11 6 12 -4 33 8
-9 -10 11 6 12 -5 32 8
-10 -11 11 4 11 -6 32 7
-14 -15 9 3 9 -8 29 5
-8 -6 12 6 14 -3 33 8
-6 -3 15 7 15 1 35 10
-6 -6 13 5 13 1 34 7
-2 -3 14 7 15 2 36 10
-8 -8 13 6 13 -1 34 7
-16 -11 11 7 13 -2 35 7
-18 -15 10 7 13 -2 36 8
-13 -13 10 5 12 -3 35 8
-7 -9 7 3 11 -3 36 5
-4 -7 11 6 14 0 39 9
-13 -15 7 4 11 -3 36 6
-10 -11 8 5 13 -3 37 7
-18 -20 4 2 10 -6 35 5
-21 -22 2 2 11 -6 36 7
-7 -9 1 3 13 -4 39 9
2 0 8 6 15 -1 44 14
-2 -3 11 5 13 -2 42 13
-12 -12 10 -1 9 -7 37 7
-14 -16 9 0 10 -5 40 8
-9 -11 8 -1 12 -4 40 8
-7 -8 8 -1 14 -4 40 9
-6 -7 8 -2 14 -4 40 6
-2 -2 7 -1 11 -5 39 7
-8 -9 4 -5 8 -10 34 4
-9 -13 6 -8 6 -11 31 2
-11 -15 6 -8 5 -12 33 1
-11 -14 6 -8 6 -10 33 2
-4 -6 9 -5 10 -7 34 4
-2 -5 13 -4 9 -5 36 3
-11 -12 9 -7 6 -11 32 -1
-11 -11 8 -8 7 -10 32 1
-10 -12 9 -9 6 -9 34 2
-7 -13 7 -10 4 -10 34 1
-5 -10 7 -10 5 -10 35 2
-5 -8 7 -7 6 -8 35 2
-4 -6 8 -6 7 -9 36 1
-5 -8 8 -6 6 -10 35 0
-4 -9 8 -7 5 -13 30 -2
1 -8 7 -8 5 -13 31 -2
-9 -12 7 -10 2 -17 28 -4
-15 -17 4 -10 3 -16 27 -5
-8 -12 4 -9 5 -14 29 -4
0 -5 7 -6 6 -9 34 0
1 -4 9 -7 5 -10 33 1
-11 -16 6 -12 1 -14 28 -3
-15 -21 4 -14 0 -16 29 -4
-15 -20 4 -13 -1 -16 28 -5
-14 -19 5 -13 -1 -17 24 -6
-13 -15 8 -9 2 -15 27 -5
-16 -15 8 -9 1 -16 26 -5
-11 -14 9 -11 2 -17 24 -7
-13 -14 8 -12 1 -17 23 -6
-4 -6 7 -7 5 -15 28 -1
-4 -6 3 -7 4 -14 28 -2
-6 -11 -2 -10 2 -15 25 -4
0 -4 2 -7 5 -12 30 0
2 -2 6 -6 6 -12 30 0
-5 -11 6 -10 3 -16 25 -3
-18 -21 7 -13 0 -18 21 -6
-27 -27 7 -12 -2 -19 20 -10
-24 -25 7 -13 -2 -20 20 -10
-4 -6 10 -9 4 -15 24 -4
-7 -8 8 -9 3 -15 23 -4
-9 -12 7 -11 1 -17 21 -7
1 -6 6 -13 1 -18 20 -6
-11 -17 2 -14 -2 -20 16 -11
-17 -22 -2 -13 -3 -20 15 -11
-5 -9 -1 -12 -1 -18 19 -7
-10 -11 3 -13 -3 -19 19 -8
-10 -12 7 -11 -1 -17 20 -6
-1 -5 9 -8 2 -14 22 -5
1 -2 10 -9 2 -16 20 -5
-5 -9 3 -13 -4 -21 15 -11
-18 -21 -4 -15 -5 -22 14 -13
-13 -16 -4 -14 -3 -20 14 -14
-11 -14 -1 -13 -4 -20 14 -13
-10 -14 -2 -15 -5 -25 11 -14
-6 -12 3 -11 0 -19 15 -11
-7 -14 4 -12 -1 -18 14 -11
-7 -12 9 -9 0 -16 16 -8
-6 -10 10 -9 0 -17 17 -6
-5 -12 7 -11 -3 -20 14 -8
-6 -12 6 -12 -6 -23 12 -9
-7 -12 5 -12 -4 -22 14 -9
-12 -17 0 -14 -6 -24 11 -12
-10 -15 2 -15 -7 -25 10 -11
-12 -15 2 -13 -6 -26 9 -12
-6 -9 6 -10 -2 -23 12 -8
-3 -6 3 -10 -2 -22 10 -9
-6 -9 2 -10 -1 -21 9 -12
-7 -11 1 -11 1 -20 10 -13
-9 -14 -2 -14 -5 -23 9 -12
-4 -8 -1 -12 -3 -22 10 -11
-7 -10 2 -10 -1 -21 11 -9
-14 -18 -1 -14 -6 -26 6 -13
-2 -9 1 -13 -6 -24 6 -12
4 -4 2 -12 -4 -25 6 -10
-4 -10 0 -14 -6 -26 5 -12
-6 -10 2 -12 -5 -26 6 -14
-5 -12 3 -12 -5 -26 5 -15
-13 -22 0 -16 -8 -28 2 -19
-8 -14 3 -13 -4 -24 6 -14
-4 -11 4 -10 -2 -21 9 -12
-8 -12 0 -14 -5 -22 6 -14
-4 -7 0 -12 -3 -21 8 -12
-3 -6 3 -9 -2 -20 8 -11
-3 -6 4 -10 -2 -21 8 -12
-10 -12 2 -14 -6 -24 5 -14
-16 -13 2 -14 -3 -22 5 -14
-8 -5 7 -9 3 -17 12 -10
0 5 9 -5 8 -13 17 -4
-3 5 6 -4 7 -13 15 -5
-6 3 8 -6 6 -15 12 -6
-1 9 11 -4 8 -14 13 -5
4 15 13 -3 9 -11 13 -4
1 14 16 -2 10 -10 14 -4
-7 6 13 -5 7 -14 9 -8
-10 2 8 -6 5 -16 8 -9
2 13 11 -4 7 -15 9 -6
4 13 12 0 10 -12 10 -6
-3 6 9 -1 9 -14 9 -7
-3 8 7 -1 8 -13 11 -6
4 14 7 -1 11 -11 14 -3
7 14 4 -2 12 -9 14 -1
5 12 -1 -5 10 -11 14 -3
8 13 -6 -5 8 -10 14 -4
4 8 -6 -7 8 -11 13 -4
5 10 -2 -4 11 -9 14 -3
4 9 -2 -2 12 -9 14 -1
1 4 -5 -3 9 -11 14 -4
7 7 -4 -3 8 -9 15 -3
6 10 0 1 11 -6 17 -1
9 14 0 1 10 -7 15 -3
7 9 -2 -3 7 -10 14 -5
4 3 -4 -11 -1 -17 7 -11
2 2 -3 -12 -4 -20 5 -14
4 3 -3 -10 -2 -17 8 -12
-3 -6 -8 -13 -6 -22 5 -15
-8 -10 -10 -14 -9 -24 3 -16
-2 -4 -13 -12 -7 -21 5 -14
7 4 -10 -12 -6 -18 5 -14
7 5 -8 -13 -8 -18 5 -14
5 1 -7 -14 -10 -19 3 -15
6 -1 -7 -17 -11 -21 3 -16
4 -1 -5 -16 -10 -21 2 -16
-6 -7 -6 -16 -11 -22 2 -18
-11 -13 -10 -20 -14 -26 -2 -24
-5 -6 -7 -20 -16 -26 -2 -23
-6 -3 -4 -18 -16 -23 1 -20
-6 -6 -6 -19 -20 -24 0 -23
-4 -6 -9 -19 -22 -26 -4 -25
-4 -8 -8 -21 -24 -26 -3 -26
1 -5 -5 -20 -21 -24 -1 -26
-5 -12 -9 -22 -25 -28 -5 -28
-11 -20 -13 -25 -28 -32 -8 -31
-10 -20 -10 -25 -29 -33 -8 -30
-2 -11 -6 -22 -27 -31 -6 -27
-4 -13 -6 -24 -27 -31 -5 -29
-12 -22 -9 -27 -32 -34 -6 -32
-13 -25 -11 -30 -34 -36 -10 -33
-11 -23 -9 -28 -30 -34 -8 -32
-14 -22 -10 -28 -30 -33 -7 -32
-6 -12 -6 -25 -27 -33 -4 -29
0 -8 -5 -23 -28 -34 -8 -31
-11 -18 -8 -27 -32 -38 -13 -33
-15 -20 -8 -25 -29 -35 -12 -32
-4 -10 -6 -24 -28 -33 -8 -31
0 -8 -7 -24 -30 -32 -8 -32
-2 -9 -9 -24 -28 -32 -7 -34
-7 -13 -5 -26 -29 -32 -8 -35
-2 -10 -1 -23 -25 -31 -6 -33
-6 -11 0 -23 -25 -29 -4 -31
-10 -16 0 -24 -25 -30 -4 -30
-15 -21 -4 -25 -26 -31 -5 -31
-9 -17 -6 -25 -27 -31 -6 -32
1 -8 -7 -25 -27 -31 -4 -30
-6 -14 -5 -24 -27 -29 -4 -31
-12 -16 -6 -25 -29 -30 -6 -32
-5 -10 -6 -24 -26 -28 -4 -30
-3 -11 -9 -25 -27 -29 -7 -32
-6 -14 -12 -27 -27 -32 -9 -32
-13 -20 -13 -26 -29 -35 -13 -36
-14 -22 -7 -19 -26 -36 -16 -41
-11 -20 5 -5 -17 -35 -19 -48
-15 -19 20 19 1 -28 -19 -52
-21 -21 31 42 21 -15 -15 -52
-11 -12 45 72 54 11 -2 -44
-11 -5 60 107 93 43 16 -33
-10 2 70 143 136 81 37 -21
3 20 79 171 181 126 66 -2
19 41 86 193 228 174 99 23
31 54 75 207 272 228 136 50
35 60 61 206 303 278 171 74
48 77 53 197 328 328 212 106
54 92 36 149 323 358 246 137
54 96 10 75 289 359 264 157
56 105 -17 -9 229 332 268 169
62 115 -48 -102 136 259 251 173
52 98 -77 -201 19 146 198 148
36 80 -103 -308 -114 20 132 112
16 62 -126 -403 -245 -107 63 73
-3 48 -162 -489 -366 -219 -2 36
-11 41 -199 -545 -437 -285 -50 5
-16 28 -232 -559 -456 -307 -75 -13
4 26 -265 -545 -447 -298 -80 -16
18 23 -291 -526 -433 -286 -79 -16
17 13 -312 -507 -415 -274 -76 -15
18 11 -316 -480 -395 -265 -76 -20
22 19 -298 -445 -368 -251 -74 -23
19 33 -275 -404 -335 -230 -66 -21
14 38 -251 -369 -304 -214 -62 -21
2 29 -226 -337 -279 -200 -62 -27
-6 21 -200 -302 -253 -186 -62 -32
-5 21 -169 -262 -221 -166 -59 -37
-4 19 -144 -226 -192 -147 -56 -40
-4 19 -119 -191 -163 -130 -53 -44
-9 10 -95 -157 -133 -111 -46 -44
-5 9 -69 -120 -101 -86 -37 -40
0 6 -47 -87 -71 -64 -28 -34
-5 -6 -34 -64 -52 -50 -23 -36
-1 -7 -23 -48 -38 -40 -19 -33
-2 -8 -18 -39 -32 -35 -16 -33
-7 -14 -18 -35 -30 -34 -16 -35
-5 -11 -13 -27 -25 -31 -14 -35
-8 -12 -8 -21 -20 -26 -13 -35
-11 -14 -5 -18 -20 -29 -16 -40
-11 -14 -4 -13 -17 -28 -18 -39
-8 -10 2 -8 -8 -22 -14 -37
-6 -8 3 -5 -7 -19 -14 -38
0 -4 4 -3 -6 -19 -12 -38
-3 -6 3 -3 -6 -18 -13 -37
-2 -6 1 -1 -5 -17 -12 -36
-6 -11 0 -1 -8 -17 -11 -36
-14 -18 -1 -1 -7 -18 -11 -37
-2 -6 2 5 0 -10 -5 -31
9 1 4 10 2 -7 -3 -28
5 -1 5 12 3 -7 -4 -29
-6 -12 7 10 4 -9 -6 -32
-10 -15 7 12 2 -10 -8 -32
-6 -11 8 15 5 -8 -7 -31
-3 -11 8 14 6 -8 -6 -30
-5 -14 7 13 4 -8 -6 -30
-2 -9 9 15 4 -8 -6 -30
-3 -8 12 18 6 -8 -7 -31
-8 -10 11 18 7 -9 -10 -32
-4 -6 14 22 7 -11 -10 -33
-6 -10 15 22 8 -12 -10 -32
-3 -8 12 21 10 -11 -10 -33
-1 -5 13 24 12 -6 -6 -29
-4 -8 10 22 11 -5 -5 -29
0 -8 7 20 12 -4 -5 -28
-5 -12 3 22 12 -4 -5 -28
-6 -12 4 24 11 -5 -7 -27
5 -4 8 28 15 -3 -6 -25
-4 -14 6 23 10 -5 -11 -27
-7 -14 6 26 11 -5 -9 -28
-5 -12 11 31 17 -1 -5 -25
-6 -10 12 34 20 1 -4 -26
-6 -12 13 34 19 1 -5 -29
-10 -14 13 34 20 0 -4 -28
3 0 15 39 27 7 1 -24
11 5 11 41 28 8 2 -22
0 -6 5 36 21 2 -4 -28
5 0 10 40 25 5 0 -24
13 7 17 46 32 12 5 -19
15 11 23 51 35 14 8 -16
14 12 22 53 37 14 9 -14
8 5 19 53 37 13 7 -14
-5 -6 15 50 32 10 2 -18
-12 -15 14 46 29 4 -4 -23
0 -2 20 50 36 9 2 -16
9 5 22 55 40 14 7 -12
-4 -8 16 53 36 12 4 -16
-11 -13 13 54 38 12 5 -16
-2 -5 14 60 43 18 9 -13
10 6 17 66 49 24 15 -8
9 6 21 69 52 25 16 -7
2 2 19 70 53 26 15 -8
0 -1 17 69 52 27 15 -9
-4 -4 17 70 52 26 13 -11
-4 -2 18 73 55 25 14 -10
5 7 18 78 58 29 16 -8
7 7 17 83 61 30 18 -7
7 7 16 86 63 30 17 -5
14 13 20 91 68 33 19 -4
20 20 24 97 73 38 25 2
20 17 24 99 72 36 23 2
17 13 23 101 74 37 24 2
14 11 23 105 77 41 24 1
14 13 25 109 82 44 30 4
17 16 23 112 83 47 31 5
14 13 20 113 84 48 32 6
24 19 21 118 88 52 37 10
23 20 15 120 88 52 37 11
20 18 16 122 90 54 37 12
23 21 20 126 94 59 41 16
20 17 19 130 95 61 43 17
20 17 18 131 97 64 45 18
30 32 21 137 101 70 50 21
31 33 20 136 104 72 52 23
37 38 22 138 105 72 54 25
33 35 18 138 104 74 50 23
20 23 11 134 100 70 47 20
21 24 9 137 102 70 49 23
32 34 13 140 106 75 54 28
29 31 12 138 103 76 54 27
30 33 14 140 103 77 55 28
39 42 18 143 107 77 56 32
30 34 17 140 106 77 54 31
30 34 18 140 107 78 54 31
30 34 19 137 103 77 53 32
17 23 12 130 96 72 47 29
13 20 5 127 91 70 46 30
13 19 1 125 88 67 47 30
29 32 2 124 90 69 51 32
42 47 7 127 94 75 58 39
35 43 6 123 91 73 57 38
31 41 5 119 90 72 57 40
28 38 3 114 86 71 57 40
25 35 2 109 82 68 56 39
25 35 2 105 80 66 56 39
29 40 4 100 77 65 56 37
37 46 4 96 73 63 57 39
29 34 3 91 70 60 53 36
25 32 2 84 66 58 48 33
20 31 0 80 62 55 45 31
18 28 -5 73 58 51 43 29
23 31 -3 68 55 48 43 27
23 31 1 67 54 50 43 28
18 24 2 62 48 43 39 25
20 25 1 57 46 40 36 22
19 26 0 52 42 37 34 20
15 23 -3 45 36 32 30 16
19 27 -3 42 35 30 28 16
16 23 -3 38 31 27 23 12
4 12 -4 33 27 22 20 8
5 13 -1 32 26 22 21 9
5 12 0 29 24 20 19 7
4 10 -1 26 22 17 19 6
10 14 1 24 20 18 20 8
8 10 -1 17 17 16 18 7
7 9 -5 13 14 13 16 6
12 14 -1 13 13 12 15 5
16 18 4 13 12 10 14 5
1 5 0 8 7 6 6 -3
-8 -5 -4 3 3 1 1 -7
0 3 -1 5 5 3 3 -6
-2 5 1 5 5 3 4 -6
-5 2 -2 2 4 3 5 -6
-2 3 -3 -1 2 0 4 -7
2 6 -4 -5 1 -3 4 -9
0 3 -6 -7 -3 -6 2 -11
-6 -3 -9 -8 -6 -8 2 -12
-10 -6 -5 -7 -6 -8 2 -12
-6 -4 -5 -8 -6 -7 2 -11
9 9 3 -4 -2 -2 7 -6
9 10 7 0 2 0 9 -4
-3 0 3 -4 -2 -5 3 -8
-3 -3 -1 -7 -5 -6 0 -10
4 4 0 -5 -4 -7 0 -14
-1 0 0 -8 -5 -8 -3 -17
-3 -1 -2 -11 -9 -10 -6 -18
-3 -2 -2 -10 -10 -11 -4 -19
-10 -7 -3 -10 -11 -15 -6 -20
-14 -11 -6 -12 -12 -15 -7 -19
-9 -6 -3 -11 -12 -13 -4 -18
3 7 5 -4 -4 -4 4 -12
6 9 7 -3 -2 -2 4 -12
-2 3 3 -6 -6 -8 0 -14
-6 -4 -3 -11 -10 -11 -3 -18
-9 -7 -5 -11 -10 -12 -4 -18
-7 -2 -3 -10 -8 -13 -1 -15
-4 0 -3 -11 -10 -15 -3 -15
-6 -5 -4 -13 -13 -17 -6 -16
-5 -4 -1 -10 -9 -14 -4 -15
-1 2 3 -4 -5 -10 -1 -12
-3 0 2 -5 -6 -10 -3 -11
-5 -2 0 -6 -7 -11 -4 -14
-8 -4 0 -6 -7 -9 -4 -15
-8 -3 -1 -6 -7 -9 -5 -18
-14 -12 -3 -10 -10 -12 -8 -23
-6 -4 -1 -8 -7 -10 -7 -22
2 5 4 -6 -6 -8 -4 -18
1 6 4 -5 -5 -7 -5 -18
-1 4 4 -6 -5 -9 -6 -18
2 6 5 -5 -3 -7 -5 -18
-6 -3 5 -5 -4 -7 -6 -18
-10 -4 4 -5 -3 -7 -6 -18
-3 2 9 -5 -1 -6 -5 -17
-6 -3 8 -6 -5 -11 -8 -19
-1 2 9 -3 -1 -8 -4 -16
-3 -1 5 -3 -1 -9 -4 -17
-7 -5 2 -5 -4 -10 -4 -18
0 4 3 -2 -1 -8 -1 -15
3 6 2 -3 -2 -9 -2 -15
-1 1 1 -3 -3 -9 -3 -17
8 8 6 1 0 -7 1 -14
-5 -4 2 -2 -3 -11 -4 -17
-8 -9 2 -6 -3 -12 -5 -19
-4 -5 4 -4 -3 -11 -5 -19
2 1 7 -2 0 -10 -3 -17
2 4 10 0 2 -6 0 -15
6 8 11 3 3 -5 0 -12
8 10 9 3 3 -6 0 -13
1 4 6 0 0 -9 -4 -16
5 10 8 3 2 -6 -2 -14
3 8 6 5 3 -6 -1 -15
-6 -1 2 2 1 -7 -3 -19
-7 -3 -1 -2 0 -8 -4 -19
-5 0 1 1 2 -6 -2 -17
-3 0 1 -2 1 -6 -1 -18
0 2 1 -3 1 -5 0 -17
-1 2 1 -4 -1 -6 0 -17
-2 1 1 -3 0 -7 -1 -16
-2 1 1 -4 -1 -7 -2 -17
0 2 0 -3 -2 -6 -2 -17
-2 0 1 -1 0 -5 0 -14
3 7 7 0 3 -4 1 -13
3 8 6 -1 2 -5 -1 -13
-5 1 6 -1 2 -6 0 -13
-7 -1 5 -2 1 -7 0 -13
0 5 6 -1 2 -5 0 -12
7 11 6 1 3 -4 2 -10
4 8 6 0 2 -5 1 -13
3 9 7 1 2 -4 1 -12
-5 -1 5 -1 -1 -9 -2 -15
-11 -5 5 -2 -2 -10 -3 -15
-13 -6 3 -4 -2 -10 -5 -16
-11 -8 0 -7 -4 -9 -4 -17
2 0 1 -6 -3 -6 -2 -15
12 8 5 -4 0 -5 1 -11
6 7 5 -3 2 -3 2 -12
-1 4 1 -8 -4 -6 -2 -13
-1 1 2 -8 -6 -12 -5 -15
-6 -2 1 -9 -8 -17 -8 -18
-2 2 5 -7 -5 -14 -5 -16
6 7 13 -3 0 -10 -3 -12
-3 0 13 -5 -4 -13 -7 -16
-15 -10 7 -11 -8 -16 -13 -21
-11 -6 8 -9 -7 -14 -10 -21
-2 0 8 -9 -5 -13 -9 -21
7 9 6 -6 -3 -9 -4 -17
6 7 2 -9 -7 -13 -7 -19
1 0 -5 -11 -9 -16 -11 -20
-2 -2 -7 -11 -8 -14 -9 -19
3 2 -3 -9 -6 -13 -6 -18
1 1 -1 -10 -7 -13 -7 -16
-12 -12 -3 -15 -11 -17 -12 -21
-12 -12 -4 -16 -12 -17 -15 -22
0 1 3 -12 -8 -13 -11 -17
14 10 7 -8 -4 -10 -8 -11
7 3 1 -11 -7 -13 -14 -15
-2 -4 -1 -14 -11 -15 -20 -17
-2 -3 0 -14 -10 -17 -20 -15
-11 -5 0 -15 -12 -17 -20 -15
-19 -14 -1 -17 -14 -19 -21 -17
-16 -16 -2 -17 -14 -19 -22 -18
-13 -15 -2 -17 -13 -18 -21 -19
-5 -4 2 -12 -9 -13 -16 -14
-4 -2 7 -11 -9 -13 -15 -13
-10 -8 6 -14 -12 -16 -19 -16
-14 -13 4 -17 -15 -18 -20 -18
-3 -1 7 -13 -11 -13 -15 -13
5 5 8 -11 -9 -12 -13 -11
1 1 6 -12 -11 -13 -15 -12
3 3 7 -9 -10 -12 -14 -11
0 -2 0 -14 -11 -14 -16 -13
-8 -10 -5 -16 -14 -16 -21 -17
-9 -10 -3 -18 -16 -18 -23 -21
-10 -10 -1 -18 -18 -21 -27 -22
-4 -5 0 -16 -15 -20 -28 -22
-6 -7 0 -18 -18 -24 -33 -24
-8 -8 3 -18 -18 -25 -32 -26
-5 -2 10 -14 -15 -21 -28 -22
-7 -3 12 -15 -14 -19 -25 -20
-4 -3 15 -13 -13 -17 -21 -18
-12 -13 8 -15 -13 -17 -23 -17
-19 -20 2 -17 -16 -18 -24 -19
-6 -9 4 -14 -13 -15 -18 -15
7 2 1 -12 -10 -12 -15 -12
2 -1 -1 -14 -13 -12 -15 -11
-15 -17 -4 -17 -18 -14 -19 -15
-16 -14 -4 -19 -18 -16 -23 -15
-12 -9 -2 -18 -16 -17 -23 -14
-10 -7 0 -18 -15 -17 -21 -15
-8 -7 2 -20 -17 -19 -21 -16
-11 -14 3 -22 -18 -20 -23 -16
-16 -17 2 -21 -18 -20 -22 -18
-14 -14 4 -20 -18 -19 -23 -20
-11 -12 6 -19 -16 -16 -18 -17
-6 -9 5 -18 -14 -15 -18 -16
-11 -12 2 -20 -18 -18 -20 -17
-21 -21 0 -23 -21 -22 -23 -20
-20 -18 3 -21 -20 -20 -22 -19
-7 -5 6 -20 -16 -17 -21 -17
-7 -6 7 -21 -17 -16 -20 -17
-8 -7 9 -21 -16 -16 -22 -16
-8 -10 7 -22 -18 -17 -22 -18
-9 -10 6 -22 -19 -17 -23 -19
-14 -12 7 -21 -16 -18 -22 -20
-9 -10 6 -21 -16 -18 -23 -20
-3 -7 4 -22 -18 -17 -22 -20
-4 -10 3 -24 -21 -19 -25 -21
-11 -14 1 -24 -22 -21 -27 -23
-16 -20 2 -25 -23 -21 -28 -24
-13 -16 5 -24 -22 -19 -26 -23
-3 -6 11 -20 -16 -16 -24 -19
-2 -4 12 -19 -17 -16 -22 -18
-11 -14 10 -22 -20 -19 -25 -21
-13 -16 9 -23 -21 -19 -23 -20
-14 -17 10 -22 -19 -17 -22 -20
-21 -22 7 -24 -21 -18 -23 -23
-9 -9 7 -23 -21 -17 -22 -23
-10 -9 8 -20 -17 -17 -21 -22
-12 -9 5 -23 -20 -19 -23 -26
-15 -12 3 -25 -22 -19 -23 -25
-16 -15 4 -23 -21 -18 -23 -24
-8 -5 10 -18 -14 -14 -20 -18
-2 2 14 -14 -11 -9 -17 -15
-10 -4 10 -18 -14 -12 -18 -15
-11 -5 12 -18 -12 -12 -18 -15
-5 4 17 -16 -8 -8 -13 -10
-13 1 16 -18 -13 -8 -15 -13
-13 -2 18 -18 -12 -9 -17 -15
-10 2 21 -15 -8 -6 -14 -13
-13 1 25 -14 -8 -5 -13 -12
-10 3 28 -12 -6 -3 -11 -11
-6 5 27 -10 -4 -1 -11 -9
-7 5 27 -8 -3 1 -11 -9
-9 2 28 -8 -3 -1 -11 -9
-10 0 24 -10 -3 -2 -12 -9
-16 -4 19 -12 -6 -4 -11 -8
-10 0 16 -13 -5 -2 -10 -5
9 16 17 -9 -1 1 -4 1
19 25 15 -7 3 5 -1 6
3 7 0 -16 -5 -2 -7 0
-6 -6 -8 -20 -10 -6 -13 -4
1 0 -1 -14 -3 -1 -7 0
8 10 7 -12 1 4 -4 3
7 7 7 -15 -2 2 -6 2
4 3 6 -13 -1 2 -6 1
3 3 10 -13 -3 1 -9 -1
7 5 12 -14 -4 0 -9 -2
4 3 12 -16 -5 -1 -10 -2
-1 0 10 -17 -9 -4 -13 -4
-2 -1 7 -19 -11 -5 -14 -3
-8 -10 2 -22 -14 -8 -18 -5
-14 -20 4 -24 -14 -8 -18 -6
-11 -15 6 -24 -15 -5 -19 -6
-6 -11 5 -25 -16 -6 -18 -5
-6 -11 3 -26 -16 -7 -20 -6
-8 -14 3 -29 -17 -9 -19 -6
-7 -14 2 -31 -19 -10 -20 -7
0 -7 5 -27 -16 -8 -18 -6
-3 -9 7 -26 -18 -8 -20 -8
-6 -10 11 -23 -17 -10 -24 -9
-13 -17 11 -27 -20 -14 -27 -14
-10 -14 13 -27 -20 -15 -29 -13
-11 -14 14 -27 -19 -13 -29 -14
-13 -16 12 -28 -20 -14 -30 -13
-11 -17 13 -27 -19 -13 -30 -13
-13 -20 13 -30 -21 -13 -30 -12
-17 -23 13 -32 -22 -16 -29 -12
-7 -15 14 -30 -19 -14 -26 -10
-13 -24 12 -35 -24 -19 -30 -11
-9 -20 10 -36 -26 -20 -30 -11
-16 -23 11 -35 -25 -20 -31 -10
-22 -30 7 -39 -28 -24 -36 -15
-16 -27 7 -42 -29 -24 -34 -15
-11 -21 10 -40 -26 -21 -32 -14
-2 -14 14 -37 -23 -19 -29 -11
3 -9 20 -37 -23 -18 -29 -11
-12 -21 17 -41 -27 -24 -35 -16
-14 -25 17 -38 -26 -24 -36 -17
-19 -31 12 -42 -29 -27 -38 -19
-18 -31 9 -42 -29 -27 -38 -19
-17 -29 7 -40 -28 -28 -40 -19
-17 -29 14 -40 -28 -28 -40 -18
-12 -24 18 -40 -28 -26 -38 -15
-7 -20 19 -36 -23 -20 -34 -12
-26 -38 14 -42 -29 -26 -38 -15
-28 -41 14 -47 -31 -27 -39 -16
-18 -32 17 -43 -27 -23 -35 -12
-13 -25 18 -39 -24 -19 -33 -9
-9 -18 18 -36 -21 -17 -30 -8
-16 -25 15 -39 -25 -21 -34 -11
-20 -31 10 -42 -28 -26 -40 -16
-21 -31 10 -43 -29 -26 -42 -17
-16 -27 11 -41 -26 -23 -39 -15
-7 -18 13 -39 -24 -21 -36 -12
-12 -25 12 -42 -26 -24 -37 -13
-22 -33 10 -43 -28 -28 -42 -17
-23 -31 19 -32 -20 -24 -39 -17
-27 -37 32 -18 -14 -23 -44 -21
-29 -38 42 4 1 -19 -48 -26
-25 -31 56 28 21 -8 -46 -24
-23 -26 67 55 51 13 -35 -18
-14 -12 81 92 90 45 -19 -7
-1 4 96 134 138 89 8 10
3 16 104 160 179 129 31 27
11 25 104 179 223 171 59 46
33 46 97 198 272 227 100 74
43 57 87 204 308 279 141 103
47 66 79 193 331 325 180 131
55 80 64 145 328 356 216 160
63 93 42 78 304 367 242 185
54 91 12 -7 246 341 247 197
42 83 -26 -106 149 267 225 193
46 86 -50 -197 42 165 182 178
35 73 -77 -300 -85 43 119 142
7 45 -105 -404 -222 -87 45 100
-11 30 -139 -496 -344 -202 -22 61
-27 18 -178 -560 -425 -271 -71 32
-24 18 -215 -575 -446 -294 -94 18
-7 15 -249 -562 -438 -289 -104 12
6 6 -283 -545 -427 -281 -108 7
9 -2 -305 -527 -413 -273 -109 4
11 -4 -304 -496 -390 -260 -107 2
11 1 -289 -461 -364 -246 -101 2
7 10 -263 -423 -334 -231 -94 3
2 18 -237 -385 -303 -214 -90 4
3 25 -209 -348 -274 -196 -85 3
4 25 -181 -310 -246 -177 -79 1
3 23 -155 -273 -218 -162 -79 -5
-11 8 -130 -240 -192 -146 -84 -16
-24 -3 -102 -204 -163 -128 -84 -23
-19 -2 -73 -167 -135 -111 -80 -23
-10 0 -47 -132 -101 -88 -71 -21
-8 -6 -28 -101 -76 -67 -65 -19
-11 -15 -12 -73 -54 -53 -57 -16
-4 -9 0 -53 -36 -39 -48 -10
0 -5 8 -40 -26 -30 -41 -8
-2 -7 11 -33 -23 -27 -37 -7
-5 -13 9 -30 -22 -29 -36 -8
-12 -19 11 -26 -19 -26 -36 -10
-13 -18 15 -20 -15 -24 -33 -8
-13 -17 18 -17 -14 -24 -32 -8
-10 -16 23 -12 -6 -19 -29 -7
-8 -15 27 -7 -2 -12 -27 -6
-9 -18 26 -9 -3 -16 -29 -10
-11 -20 25 -8 -3 -16 -30 -11
-15 -24 23 -8 -3 -17 -31 -12
-13 -21 21 -8 -3 -17 -30 -11
-11 -17 24 -5 0 -15 -29 -9
-20 -27 26 -5 -1 -17 -32 -11
-22 -28 27 -2 1 -15 -33 -13
-9 -18 32 4 6 -13 -30 -10
-1 -12 30 5 8 -13 -30 -11
-7 -16 28 6 7 -12 -29 -11
-10 -20 25 7 7 -13 -28 -11
-5 -15 25 10 10 -9 -25 -7
-10 -23 20 8 8 -10 -27 -9
-11 -22 18 7 6 -11 -28 -9
-5 -17 19 8 8 -10 -27 -7
-4 -16 22 10 12 -6 -28 -5
-12 -21 24 10 10 -7 -29 -9
-13 -21 24 10 11 -7 -27 -10
-6 -16 28 15 17 -2 -22 -7
-2 -15 32 14 16 -1 -21 -7
2 -12 34 17 18 -1 -21 -5
-9 -20 32 14 17 -5 -24 -6
-17 -27 31 14 15 -5 -24 -6
-11 -22 29 15 14 -6 -24 -6
-1 -10 30 20 19 -3 -20 -1
1 -8 32 22 21 0 -20 -1
-12 -18 31 22 18 -2 -25 -6
-15 -19 33 24 21 -2 -25 -6
-3 -7 37 31 27 3 -19 -2
4 -4 37 28 26 3 -20 -3
-8 -17 34 25 24 0 -22 -5
-17 -22 34 26 24 -1 -22 -3
-7 -13 37 29 28 4 -18 2
-3 -12 32 29 27 6 -16 4
-6 -14 31 31 28 5 -14 5
-10 -15 35 33 29 7 -13 7
-4 -7 39 46 35 11 -8 9
-9 -13 35 55 34 9 -11 6
-3 -8 37 64 40 13 -9 8
2 -2 39 68 42 15 -7 9
-4 -9 38 70 39 12 -7 6
-11 -18 34 69 38 10 -11 5
-12 -19 32 70 38 9 -13 4
-2 -8 32 73 40 12 -12 7
3 -1 36 80 45 15 -6 13
-1 -2 35 82 48 19 -4 14
-5 -7 28 81 46 18 -6 12
-13 -19 27 82 46 16 -10 9
-6 -12 33 87 52 20 -7 12
-1 -5 36 91 57 25 -5 13
0 -5 38 94 59 26 -4 15
4 -3 40 94 61 27 -2 18
-2 -10 37 94 59 27 -3 17
-2 -9 37 98 61 30 0 19
9 4 40 103 66 33 7 27
13 8 41 110 74 40 11 30
10 3 41 112 73 40 10 28
11 5 43 117 75 41 10 29
6 3 41 119 79 42 10 28
14 10 45 123 83 47 14 31
13 8 44 127 85 47 13 30
16 9 43 129 88 49 15 32
11 6 40 130 86 48 15 30
6 1 38 131 85 49 15 30
14 8 40 134 87 50 19 35
11 7 40 137 90 53 18 36
12 9 40 140 92 55 18 36
22 17 42 144 97 58 22 41
23 19 42 146 102 62 25 44
6 3 33 142 98 60 21 39
19 13 35 147 104 66 27 45
29 24 37 151 110 70 32 51
22 19 36 152 107 72 31 50
23 22 37 154 110 75 34 52
25 24 36 153 108 73 36 51
22 23 36 152 109 75 38 52
26 27 35 155 111 76 39 54
16 20 32 152 108 71 37 52
18 21 35 150 108 71 37 52
22 24 38 151 108 74 41 53
21 21 36 147 105 72 41 54
18 19 32 144 104 71 41 55
26 26 30 142 103 73 42 56
29 32 22 141 101 71 41 56
30 35 22 139 100 70 43 60
21 28 18 135 96 67 43 58
19 24 19 132 93 66 42 57
23 26 24 131 93 66 44 58
22 25 25 129 94 67 44 58
24 28 25 125 92 68 44 59
27 31 24 123 88 67 44 59
17 22 18 113 81 61 40 55
12 17 15 107 77 57 38 52
9 14 13 102 70 52 34 50
15 18 13 98 70 52 33 50
18 22 15 95 68 53 33 52
23 29 19 92 67 52 34 52
23 29 20 87 63 48 33 52
12 18 18 78 59 42 30 50
8 13 15 72 56 42 28 47
11 14 18 67 53 39 27 47
13 17 18 61 51 37 25 45
14 19 19 58 47 35 24 45
9 13 16 52 41 30 18 40
8 12 14 47 38 27 13 38
8 12 12 42 34 24 9 36
6 9 7 38 29 20 6 32
4 5 5 33 25 15 3 29
5 7 10 31 27 13 3 29
4 6 15 29 26 15 3 28
2 5 14 24 23 14 1 25
-5 -2 9 18 19 18 -2 22
-3 1 7 13 16 21 -3 21
-4 -3 4 10 11 19 -5 19
-16 -18 -1 4 4 13 -11 14
-9 -11 5 4 8 16 -10 15
3 2 12 7 9 19 -9 16
2 2 13 6 9 20 -8 15
5 4 12 8 11 21 -8 16
3 3 10 2 7 22 -11 13
-5 -6 5 -3 0 17 -14 9
-15 -15 0 -8 -4 11 -19 5
-7 -9 4 -7 -4 11 -17 7
4 2 7 -5 -2 13 -14 10
-1 -2 6 -6 -4 10 -14 10
-5 -7 6 -8 -5 9 -16 9
-8 -13 5 -10 -9 7 -18 7
-7 -10 8 -7 -5 10 -14 10
-4 -7 11 -6 -2 11 -13 11
-5 -7 12 -9 -4 12 -16 8
-13 -16 8 -11 -9 7 -20 4
-6 -9 7 -11 -8 6 -22 5
6 0 9 -7 -6 9 -17 8
-2 -6 6 -11 -10 6 -19 4
-6 -9 4 -13 -11 3 -18 5
-10 -13 0 -17 -11 2 -20 5
-12 -14 0 -16 -12 1 -21 4
-9 -11 4 -15 -12 0 -20 6
-9 -12 7 -14 -11 -1 -21 6
-5 -7 10 -14 -9 3 -20 7
-8 -11 10 -14 -10 3 -18 8
-3 -8 9 -15 -7 5 -16 10
-8 -10 6 -17 -10 3 -18 9
-7 -7 8 -15 -9 5 -15 11
-2 -4 7 -15 -9 4 -14 12
-15 -14 4 -18 -12 0 -20 8
-23 -22 2 -18 -14 -3 -24 3
-19 -21 3 -18 -14 -3 -26 1
-10 -12 7 -19 -11 -2 -24 2
3 1 10 -20 -7 3 -22 4
-7 -10 8 -24 -11 -2 -25 0
-18 -22 3 -28 -16 -8 -29 -3
-19 -22 2 -28 -16 -8 -29 -3
-15 -15 7 -25 -12 -3 -25 2
-3 -3 12 -19 -8 2 -18 9
0 0 11 -19 -8 5 -17 10
-6 -6 8 -20 -10 4 -19 8
-9 -10 7 -20 -10 3 -18 5
-7 -9 7 -19 -8 5 -15 7
-5 -8 7 -19 -7 7 -14 7
-10 -14 6 -21 -10 3 -19 4
-12 -13 6 -22 -10 1 -21 3
-17 -19 5 -23 -12 -2 -22 2
-11 -12 9 -21 -12 -2 -20 5
-2 -3 11 -14 -8 1 -15 10
-6 -8 11 -15 -6 3 -15 10
-7 -9 14 -14 -7 4 -15 11
-8 -10 11 -15 -6 4 -18 10
-13 -14 9 -14 -5 2 -19 8
-10 -11 11 -15 -6 1 -21 7
-16 -17 7 -19 -9 -2 -24 5
-9 -11 6 -20 -9 -2 -24 4
-5 -8 8 -18 -7 0 -21 6
-11 -10 6 -18 -7 0 -21 7
-10 -10 4 -19 -9 -2 -21 8
-3 -4 6 -17 -6 2 -17 11
-2 -2 6 -16 -5 3 -14 13
-7 -8 5 -17 -6 2 -16 10
-11 -12 5 -18 -6 1 -16 10
-18 -16 4 -19 -5 3 -16 9
-19 -16 3 -21 -7 1 -17 9
-12 -12 3 -21 -6 2 -16 9
-10 -12 3 -20 -6 2 -17 11
-4 -5 7 -17 -4 4 -14 13
-10 -10 6 -18 -6 3 -16 12
-14 -13 8 -18 -6 3 -17 10
-1 -1 12 -16 -2 6 -15 13
9 8 17 -10 3 9 -10 17
-1 1 12 -10 2 8 -10 15
-9 -5 4 -13 1 8 -12 14
2 5 7 -11 4 10 -9 17
3 3 10 -9 4 10 -8 17
-8 -8 5 -14 -1 4 -14 12
-6 -6 5 -16 -2 4 -14 13
-3 -3 6 -15 -2 3 -15 13
-1 1 9 -15 1 5 -15 14
-4 1 10 -16 0 8 -16 15
-7 0 8 -17 -2 6 -16 12
4 9 13 -14 3 9 -11 15
1 6 13 -14 2 10 -10 14
5 14 15 -11 6 12 -6 18
14 24 18 -8 10 17 0 23
9 19 12 -7 11 18 2 25
11 20 9 -4 11 21 5 27
21 24 9 -2 15 24 5 30
8 10 5 -4 13 20 1 25
7 9 5 -4 10 18 -2 24
15 16 8 -3 11 19 -2 25
16 16 9 1 15 21 -1 25
12 14 10 1 17 24 -1 23
7 13 9 0 15 24 -1 26
12 17 4 -6 12 22 -3 23
11 13 0 -10 8 18 -7 19
7 6 -5 -20 -1 12 -10 16
7 2 -8 -24 -7 4 -13 13
4 0 -9 -25 -7 2 -14 12
-2 -6 -10 -28 -11 -1 -16 11
-5 -13 -14 -33 -15 -5 -18 8
0 -9 -11 -33 -13 -4 -16 9
13 3 -4 -30 -11 1 -11 13
16 4 -2 -30 -12 2 -9 14
13 3 -1 -31 -13 0 -8 15
7 0 -1 -32 -14 0 -10 15
5 1 -3 -33 -15 -1 -11 14
8 1 -6 -32 -13 -1 -10 14
0 -3 -7 -33 -15 -3 -12 12
2 2 -6 -30 -13 0 -10 12
-1 -1 -3 -30 -13 -1 -11 9
-9 -8 -1 -34 -17 -6 -14 6
-6 -8 -2 -34 -18 -8 -17 4
-4 -7 -4 -35 -20 -8 -19 4
-10 -11 -4 -38 -23 -12 -23 4
-11 -15 -8 -43 -25 -13 -28 2
-11 -19 -9 -44 -28 -16 -29 3
-10 -18 -10 -43 -28 -17 -30 1
-3 -12 -6 -41 -26 -15 -29 4
-4 -15 -7 -43 -28 -17 -29 1
-17 -25 -7 -46 -32 -21 -30 -3
-23 -30 -8 -49 -32 -22 -29 -3
-21 -29 -8 -48 -31 -20 -28 -4
-5 -11 -7 -44 -26 -14 -21 1
6 0 -5 -41 -24 -11 -16 6
-2 -8 -10 -46 -29 -17 -22 2
-9 -18 -12 -50 -32 -24 -29 -2
-12 -20 -14 -51 -33 -24 -31 -3
-12 -20 -12 -49 -31 -19 -28 -2
-14 -20 -10 -47 -29 -16 -25 -2
-17 -21 -10 -45 -29 -15 -23 -2
-14 -21 -13 -48 -30 -16 -24 -4
-5 -14 -8 -48 -29 -15 -22 -1
-3 -11 -6 -47 -27 -15 -21 -1
-11 -16 -9 -47 -28 -17 -24 0
-16 -21 -10 -47 -29 -18 -25 -1
-12 -19 -10 -45 -29 -19 -26 -2
-7 -15 -11 -45 -27 -18 -27 -1
-3 -12 -8 -45 -27 -17 -28 -1
-6 -13 -7 -44 -27 -16 -26 -3
-2 -8 -2 -41 -25 -15 -23 -1
-10 -14 -4 -44 -27 -20 -26 -7
-7 -12 -3 -43 -26 -18 -23 -4
-6 -12 -4 -42 -26 -18 -22 -5
-6 -11 -2 -36 -22 -16 -22 -4
-10 -12 4 -23 -15 -13 -24 -8
-18 -19 18 -4 -3 -12 -28 -13
-14 -15 30 19 17 -1 -26 -15
-17 -15 36 40 39 16 -21 -13
-14 -8 49 71 73 42 -7 -6
-1 7 66 117 122 84 17 12
0 15 76 150 166 122 40 27
5 25 83 173 211 170 68 46
22 40 78 195 259 222 104 71
39 56 67 207 302 278 143 99
56 79 61 210 336 332 188 130
52 85 39 176 339 366 223 157
61 99 16 112 317 379 251 180
62 107 -12 30 263 360 262 197
55 103 -51 -74 168 290 242 194
50 92 -84 -175 53 181 195 174
28 71 -110 -286 -79 54 127 141
18 67 -129 -387 -212 -73 60 105
12 60 -155 -472 -331 -184 3 73
-10 42 -195 -546 -423 -263 -49 43
-7 38 -231 -573 -455 -298 -77 23
6 32 -260 -562 -447 -295 -84 19
14 17 -290 -546 -436 -288 -88 13
28 19 -308 -521 -416 -275 -82 15
25 14 -315 -494 -395 -263 -81 13
19 10 -312 -466 -376 -253 -86 6
23 27 -288 -427 -342 -234 -79 8
17 37 -261 -390 -311 -216 -74 9
5 33 -237 -358 -282 -202 -73 6
2 32 -209 -323 -252 -184 -69 3
5 35 -178 -282 -218 -165 -65 -2
4 33 -149 -242 -189 -146 -63 -8
-3 26 -125 -207 -163 -130 -61 -16
-3 20 -100 -171 -134 -111 -54 -15
-2 15 -77 -134 -102 -89 -44 -13
-3 8 -54 -103 -76 -67 -33 -9
-9 -5 -38 -77 -54 -52 -29 -9
4 0 -25 -56 -35 -37 -22 -6
7 5 -16 -44 -23 -29 -17 -1
4 2 -12 -36 -19 -24 -16 0
-3 -6 -11 -31 -17 -24 -16 -2
-9 -10 -9 -28 -16 -24 -19 -5
-13 -12 -7 -24 -16 -25 -20 -7
-5 -5 -2 -17 -13 -22 -17 -5
-4 -5 -1 -12 -8 -21 -15 -6
-9 -12 -2 -12 -8 -18 -16 -7
-9 -10 -2 -11 -6 -17 -14 -6
-6 -9 -2 -9 -4 -17 -14 -7
-8 -11 -2 -9 -5 -19 -16 -8
-1 -5 2 -5 -1 -13 -13 -5
-2 -7 5 -2 1 -13 -13 -5
-12 -16 1 -3 0 -13 -17 -8
-5 -11 1 1 3 -10 -17 -8
3 -5 4 3 6 -7 -15 -7
-5 -9 7 4 6 -9 -15 -9
5 2 13 9 12 -4 -11 -6
4 2 13 11 12 -5 -10 -4
6 1 11 12 13 -5 -9 -5
8 3 11 13 14 -4 -8 -3
7 -2 7 13 11 -7 -11 -4
9 1 8 16 13 -6 -9 0
3 -6 5 16 12 -7 -12 0
3 -8 5 17 11 -8 -13 -2
2 -6 6 18 10 -9 -13 -2
-5 -11 10 20 12 -8 -11 -3
7 0 14 23 18 -2 -6 0
2 -5 14 25 18 -2 -6 -2
-4 -12 10 22 16 -4 -9 -5
-3 -10 11 23 17 -5 -9 -3
-9 -13 9 24 16 -4 -11 -4
-7 -13 8 26 18 -3 -10 -3
3 -5 11 28 21 0 -7 -1
2 -4 14 30 23 1 -6 -1
1 -7 14 29 23 1 -8 -3
-2 -8 14 29 25 2 -8 -3
-2 -7 13 30 26 4 -8 -2
8 5 17 37 32 8 -2 2
15 9 19 39 33 9 -2 3
9 3 14 39 33 7 -3 2
8 1 11 38 30 6 -4 2
1 -5 11 38 30 5 -4 3
3 -1 14 40 33 7 -1 5
5 1 15 46 37 10 2 5
6 -1 14 48 37 11 4 4
-1 -7 14 48 38 9 3 2
3 -2 18 52 41 13 4 4
4 -3 17 56 42 12 5 2
3 -1 15 58 43 14 4 1
3 0 12 58 45 15 2 -1
8 8 16 64 48 20 6 2
7 3 16 65 47 17 7 0
7 0 17 67 48 18 6 0
12 8 21 74 56 24 12 5
7 3 18 77 58 25 13 6
3 -1 17 78 60 24 13 4
11 5 23 82 63 28 14 6
10 4 23 87 65 31 16 8
8 0 22 89 67 32 14 7
17 11 25 96 72 38 19 11
26 18 27 104 75 43 26 14
24 17 26 108 79 44 31 17
17 10 25 111 79 43 28 15
21 19 30 118 86 48 34 18
20 19 30 122 87 50 33 17
17 12 28 122 86 47 29 14
25 18 24 126 89 51 30 14
21 17 20 131 94 53 31 17
22 20 23 136 98 54 33 17
20 20 23 139 100 57 36 17
21 19 19 142 101 62 39 20
26 22 20 145 104 64 41 23
28 23 20 149 107 69 45 26
31 27 21 153 111 74 50 30
30 27 21 156 113 78 54 31
22 19 17 157 114 78 54 29
24 22 19 158 117 83 57 33
31 28 20 161 120 84 58 35
34 27 18 162 120 84 60 35
32 28 16 160 120 85 62 34
32 28 16 162 119 86 62 35
33 29 14 164 121 86 63 38
42 38 17 168 124 91 65 42
42 38 17 168 123 90 64 42
43 42 17 169 122 91 65 46
50 50 19 172 126 93 68 50
53 53 16 169 124 92 67 50
44 46 10 165 122 89 65 48
34 38 7 161 117 86 62 47
30 34 6 157 114 85 62 46
34 34 5 150 110 83 60 45
28 27 3 145 103 79 59 42
32 30 6 145 105 81 62 44
36 38 9 146 105 82 65 47
35 38 11 144 104 80 65 48
36 38 6 139 101 78 64 46
25 29 3 132 95 74 59 41
29 32 6 127 92 73 61 42
35 37 6 122 91 74 62 44
31 32 0 113 84 70 60 40
29 30 -1 106 77 63 56 35
29 33 -1 105 74 60 56 34
29 35 -1 99 71 57 50 31
27 34 -1 95 65 54 46 29
20 29 0 88 60 48 43 26
22 27 4 84 57 44 41 24
24 29 6 81 55 42 38 22
19 25 4 74 50 39 38 20
14 18 1 68 46 35 33 15
23 23 1 63 44 32 33 15
17 18 -3 57 35 27 28 11
18 16 -7 52 31 21 24 8
13 11 -7 47 26 16 19 4
5 10 -5 44 23 14 17 0
-2 4 -5 41 20 11 17 -3
1 5 -4 38 19 10 17 -3
19 19 0 41 22 14 20 0
19 18 2 39 20 11 20 0
2 2 -2 32 14 6 13 -6
1 1 -4 29 12 4 11 -6
8 7 -2 28 11 5 10 -4
12 10 1 27 10 2 8 -5
6 6 0 24 7 -1 4 -8
0 -2 -3 18 1 -5 -1 -13
3 0 -2 18 1 -5 -3 -14
5 2 2 21 3 -4 -2 -14
8 8 1 20 3 -3 -5 -14
2 1 -1 17 0 -7 -9 -18
-4 -5 -6 14 -2 -9 -11 -19
-5 -7 -11 10 -5 -12 -12 -20
5 2 -7 10 -6 -10 -7 -18
18 13 -3 12 -2 -8 -3 -15
13 10 -4 12 -3 -9 -5 -17
3 3 -6 10 -7 -12 -9 -21
-5 -4 -5 9 -7 -13 -11 -22
-6 -5 -3 9 -5 -13 -12 -24
-5 -7 -3 8 -7 -12 -12 -27
1 -1 0 9 -5 -11 -9 -27
6 7 3 12 -1 -7 -4 -23
7 7 2 10 -3 -8 -5 -26
9 7 -1 10 -6 -10 -8 -31
10 8 -4 10 -6 -14 -12 -35
9 6 -5 9 -8 -14 -14 -35
-2 -3 -6 7 -10 -16 -17 -34
-5 -5 -2 4 -10 -15 -17 -36
-5 -7 -1 3 -10 -16 -16 -36
-6 -8 -2 4 -10 -14 -15 -37
-1 -3 -2 5 -8 -12 -13 -35
-5 -6 -6 2 -9 -13 -16 -37
-11 -12 -13 -2 -13 -17 -19 -41
-17 -16 -14 -2 -14 -18 -19 -40
-8 -9 -9 -1 -11 -17 -15 -37
3 1 0 5 -6 -11 -11 -32
6 2 2 6 -5 -11 -10 -31
-2 -3 0 6 -6 -11 -11 -34
-7 -5 0 5 -4 -12 -12 -36
3 4 2 9 0 -7 -9 -30
2 2 -1 8 -2 -10 -10 -29
-6 -8 -1 3 -7 -16 -14 -32
4 4 1 7 -3 -13 -11 -30
8 6 -2 8 -4 -11 -9 -34
-1 -4 -6 3 -7 -17 -14 -37
-1 -2 -4 5 -7 -15 -16 -34
2 3 0 9 -2 -13 -14 -33
1 5 0 8 -3 -13 -15 -33
-3 1 0 7 -2 -15 -17 -34
-1 -1 1 6 -5 -17 -20 -38
4 5 2 6 -4 -16 -19 -35
-5 -4 -1 3 -4 -17 -21 -37
-9 -11 -3 4 -5 -17 -23 -37
1 -3 -2 8 -2 -11 -19 -33
2 -1 0 8 0 -12 -16 -33
1 0 -1 9 -1 -12 -16 -35
-2 -4 -3 7 -4 -14 -17 -37
-5 -4 1 8 -2 -13 -17 -37
3 4 4 10 1 -13 -17 -38
11 11 6 13 2 -10 -15 -33
2 2 2 9 0 -13 -16 -33
-10 -10 -4 5 -3 -15 -17 -34
-11 -12 -5 3 -5 -17 -18 -36
-6 -8 -6 3 -4 -13 -16 -32
4 1 -6 5 -1 -11 -13 -26
7 4 -3 6 0 -10 -12 -24
-1 -5 -4 5 -2 -13 -14 -28
-1 -3 -1 7 1 -10 -13 -27
0 1 1 8 1 -10 -14 -29
-5 -4 -3 7 -1 -12 -17 -33
-10 -12 -9 3 -4 -16 -20 -36
5 2 -3 7 2 -10 -16 -33
4 2 -1 7 2 -9 -13 -33
-1 -2 -4 5 1 -11 -14 -35
6 4 -2 8 4 -10 -9 -33
11 7 -2 8 4 -8 -6 -30
4 2 -2 8 4 -6 -5 -27
-1 2 -1 10 7 -3 -2 -24
-11 -8 -4 8 4 -6 -3 -24
-12 -9 -3 7 2 -6 -4 -23
5 7 -1 10 6 -5 -2 -21
15 15 0 9 7 -2 0 -19
3 4 -4 4 4 -6 -4 -22
-8 -10 -9 -2 -2 -11 -12 -28
-7 -7 -6 -1 -1 -11 -10 -29
-1 -1 -3 0 1 -9 -7 -29
-1 0 -3 0 2 -7 -7 -29
-2 0 -2 1 3 -6 -7 -28
-1 -1 -4 1 3 -5 -7 -30
0 -1 -3 -1 2 -5 -8 -31
5 5 2 1 5 -4 -6 -28
0 1 4 1 4 -5 -6 -28
-9 -8 -2 -2 1 -7 -9 -30
-8 -9 -8 -6 -3 -12 -12 -33
-4 -5 -8 -6 -3 -12 -11 -32
-3 -2 -8 -5 -3 -12 -11 -32
-1 -1 -9 -7 -4 -14 -14 -31
-1 0 -4 -5 -3 -13 -14 -31
-9 -8 -5 -8 -7 -17 -16 -35
-8 -7 -5 -11 -7 -16 -18 -37
-9 -9 -9 -12 -8 -18 -21 -37
-10 -12 -11 -12 -7 -17 -20 -36
-8 -11 -12 -13 -7 -17 -20 -35
5 4 -10 -10 -4 -14 -16 -30
13 11 -8 -8 -3 -13 -15 -27
2 -2 -10 -11 -6 -16 -18 -30
1 -2 -9 -10 -5 -15 -15 -29
-9 -8 -10 -11 -7 -17 -14 -31
-1 -2 -8 -9 -4 -15 -12 -31
-1 -2 -7 -8 -2 -12 -11 -32
-3 -6 -7 -9 -4 -13 -13 -34
-1 -4 -6 -9 -4 -12 -12 -32
8 4 -1 -6 0 -9 -9 -27
7 2 -2 -6 -1 -10 -8 -28
-2 -5 -4 -10 -5 -14 -11 -30
-4 -6 -5 -11 -6 -14 -11 -30
1 1 -4 -11 -4 -12 -11 -30
4 3 -1 -10 -3 -12 -13 -30
-11 -11 -4 -14 -8 -17 -18 -34
-6 -9 -2 -13 -7 -16 -17 -34
2 0 1 -10 -5 -14 -15 -32
-7 -7 -3 -13 -8 -16 -16 -32
-5 -7 -7 -15 -9 -15 -16 -30
-3 -7 -13 -17 -10 -16 -17 -27
-4 -9 -16 -18 -10 -17 -16 -27
-9 -13 -16 -17 -9 -16 -13 -25
-9 -13 -14 -17 -9 -18 -14 -26
1 -4 -10 -14 -6 -15 -13 -25
6 1 -6 -12 -4 -15 -11 -23
0 -4 -6 -13 -5 -15 -12 -24
-15 -18 -8 -17 -9 -19 -15 -27
-19 -20 -12 -20 -11 -20 -17 -29
-17 -19 -12 -19 -10 -18 -16 -29
-12 -15 -11 -18 -11 -17 -17 -30
-5 -6 -12 -17 -9 -18 -17 -26
-11 -12 -9 -19 -10 -17 -19 -26
-20 -19 -10 -20 -12 -20 -20 -28
-7 -8 -4 -15 -9 -15 -18 -28
0 -3 -5 -17 -8 -14 -18 -28
-9 -10 -8 -19 -10 -15 -23 -29
-12 -14 -8 -21 -12 -15 -23 -31
-7 -11 -10 -19 -15 -15 -21 -30
-3 -6 -9 -19 -16 -15 -19 -27
-1 -4 -6 -16 -18 -16 -20 -24
-8 -13 -11 -20 -23 -21 -25 -27
-11 -15 -12 -20 -25 -23 -26 -27
-7 -11 -13 -21 -27 -24 -26 -27
3 -2 -10 -18 -25 -21 -22 -22
7 1 -8 -19 -24 -19 -20 -20
2 -1 -8 -18 -23 -17 -21 -20
0 -2 -7 -18 -22 -17 -22 -20
9 4 -3 -15 -19 -15 -20 -17
7 1 -2 -17 -19 -17 -22 -18
-1 -6 -3 -20 -21 -19 -24 -20
-1 -8 -5 -21 -21 -20 -23 -20
3 -3 -7 -18 -19 -15 -19 -18
5 0 -6 -19 -19 -13 -17 -17
0 -5 -7 -19 -20 -14 -17 -19
3 -4 -8 -20 -20 -14 -17 -19
1 -6 -8 -21 -20 -14 -17 -19
-4 -12 -12 -26 -23 -19 -21 -23
-13 -21 -16 -28 -26 -22 -26 -26
-8 -15 -15 -27 -24 -20 -24 -24
-6 -13 -13 -26 -23 -19 -24 -23
-5 -14 -13 -28 -25 -20 -23 -23
-9 -15 -10 -26 -24 -19 -20 -20
-10 -16 -11 -25 -24 -17 -20 -19
-1 -10 -8 -23 -23 -17 -20 -18
-2 -12 -7 -23 -22 -18 -22 -19
-6 -14 -5 -25 -23 -18 -24 -20
-2 -10 -3 -23 -20 -17 -24 -18
-4 -10 -4 -22 -18 -14 -22 -17
-2 -6 -7 -22 -17 -12 -22 -17
1 -5 -7 -21 -19 -13 -23 -17
0 -4 -7 -21 -19 -14 -23 -18
-10 -13 -8 -23 -21 -17 -26 -20
-16 -20 -9 -27 -24 -21 -29 -22
-14 -19 -9 -26 -23 -22 -28 -21
-14 -21 -10 -25 -24 -22 -26 -21
-6 -12 -7 -23 -22 -18 -22 -20
2 -4 -5 -20 -20 -16 -18 -17
2 -5 -7 -20 -20 -16 -17 -13
-4 -11 -7 -24 -23 -18 -19 -16
-9 -15 -10 -25 -24 -20 -22 -18
4 -4 -7 -20 -19 -16 -20 -15
3 -3 -3 -17 -18 -14 -20 -13
-7 -12 -8 -23 -23 -19 -24 -17
-5 -10 -6 -21 -21 -17 -21 -14
10 4 -1 -15 -15 -12 -15 -10
2 -4 -3 -20 -19 -17 -19 -14
3 -7 -4 -22 -21 -21 -23 -17
3 -6 -4 -21 -21 -19 -23 -16
3 -3 -3 -20 -20 -16 -22 -17
6 0 -4 -19 -20 -15 -20 -17
-8 -15 -10 -23 -24 -21 -25 -21
-16 -24 -13 -25 -25 -23 -26 -23
-3 -11 -10 -21 -21 -18 -21 -18
4 -3 -8 -19 -19 -16 -17 -16
-2 -7 -9 -21 -19 -17 -19 -16
-7 -12 -8 -24 -21 -17 -20 -18
-5 -12 -7 -25 -22 -18 -20 -17
-7 -15 -5 -25 -22 -18 -20 -17
-3 -10 -3 -23 -21 -16 -20 -16
2 -4 -2 -20 -19 -15 -21 -14
-5 -11 -6 -22 -21 -20 -24 -16
-4 -12 -7 -23 -23 -20 -25 -18
8 0 -1 -18 -18 -15 -23 -15
2 -7 -2 -18 -19 -16 -24 -17
-6 -11 -4 -20 -21 -17 -24 -19
-3 -8 -2 -19 -20 -14 -23 -18
1 -5 -1 -20 -18 -14 -22 -15
-7 -14 -4 -21 -21 -16 -22 -16
-17 -22 -10 -26 -25 -20 -23 -19
-13 -19 -13 -26 -25 -21 -22 -17
-9 -16 -10 -24 -23 -20 -18 -15
-12 -16 -5 -21 -22 -18 -17 -14
-9 -10 0 -17 -19 -14 -14 -12
-1 -3 3 -15 -18 -13 -11 -10
-3 -9 1 -17 -20 -15 -13 -11
4 -3 4 -17 -19 -14 -11 -10
9 1 5 -14 -18 -13 -10 -9
-3 -9 0 -17 -23 -17 -16 -15
-6 -10 -1 -15 -20 -16 -15 -16
-9 -12 -5 -19 -23 -19 -16 -19
-7 -14 -7 -21 -26 -21 -18 -20
-2 -10 -5 -20 -24 -21 -19 -19
-4 -11 -3 -18 -21 -18 -16 -17
-14 -20 -4 -21 -26 -21 -18 -17
-12 -19 -5 -21 -25 -21 -19 -16
-3 -10 -2 -18 -22 -17 -14 -12
0 -6 0 -15 -20 -14 -10 -10
2 -2 0 -15 -19 -13 -9 -9
4 -6 -2 -16 -21 -15 -11 -12
1 -9 -6 -19 -24 -18 -13 -15
1 -7 -4 -17 -23 -18 -13 -15
-2 -7 0 -15 -20 -18 -12 -13
-5 -9 1 -14 -19 -17 -13 -15
-3 -8 2 -13 -19 -16 -12 -13
3 -5 3 -14 -19 -15 -11 -14
2 -8 0 -18 -23 -18 -14 -17
-3 -10 0 -19 -24 -19 -16 -20
1 -7 2 -18 -23 -18 -15 -20
-5 -12 0 -20 -25 -20 -17 -24
-4 -11 0 -19 -23 -20 -19 -23
9 -2 1 -15 -20 -16 -14 -17
2 -8 -3 -17 -21 -17 -14 -15
0 -7 0 -16 -20 -14 -11 -12
2 -4 2 -15 -19 -12 -8 -9
-5 -11 0 -18 -21 -14 -12 -12
-10 -15 -2 -20 -24 -17 -14 -16
-6 -12 0 -18 -22 -15 -13 -15
0 -9 -1 -16 -21 -14 -12 -14
1 -5 1 -15 -21 -16 -12 -15
-5 -8 1 -15 -22 -16 -10 -15
-8 -14 0 -17 -23 -18 -12 -17
-5 -12 -1 -17 -23 -19 -10 -16
-2 -9 0 -16 -21 -16 -8 -15
4 -4 6 -11 -17 -11 -5 -12
5 -2 8 -9 -15 -10 -4 -11
-3 -9 6 -12 -17 -11 -7 -14
-1 -8 7 -12 -17 -11 -7 -15
6 -1 10 -9 -15 -8 -4 -10
0 -3 11 -11 -17 -11 -8 -15
-7 -6 7 -10 -18 -11 -9 -17
-5 -2 6 -8 -15 -9 -7 -16
0 4 10 -7 -13 -9 -6 -13
0 5 15 -4 -11 -8 -5 -12
3 9 19 -1 -9 -5 -2 -11
7 13 24 2 -5 -3 -1 -11
10 18 24 5 -3 0 1 -8
8 18 25 6 -1 2 1 -7
7 15 23 4 -4 -1 1 -6
-3 2 16 -3 -11 -8 -6 -12
-7 -1 10 -2 -12 -7 -4 -13
-4 1 10 1 -10 -6 -2 -11
4 9 11 3 -7 -1 0 -8
8 14 9 5 -4 1 5 -4
2 5 5 2 -7 -1 1 -6
0 1 0 1 -9 -5 -2 -8
4 0 -3 0 -8 -4 -2 -8
1 -2 -7 -1 -9 -6 -1 -9
0 -3 -2 2 -6 -2 3 -6
9 5 1 7 -2 2 4 -5
13 10 5 9 1 6 8 -3
13 10 5 10 0 6 9 -4
8 5 7 9 -1 4 8 -6
10 6 7 6 -4 1 6 -6
9 3 6 3 -10 -4 3 -8
5 -3 1 -2 -13 -9 -1 -11
6 -3 4 1 -11 -8 -1 -11
11 2 9 6 -7 -3 2 -8
9 2 6 1 -12 -6 0 -10
9 3 5 -2 -15 -9 -2 -12
2 -5 1 -5 -19 -12 -3 -15
10 0 4 -1 -15 -6 1 -12
10 -1 5 -1 -15 -6 1 -10
8 -3 6 -3 -17 -9 -2 -14
3 -6 6 -3 -21 -13 -5 -18
-2 -8 9 1 -18 -12 -6 -20
-7 -11 8 -1 -17 -13 -8 -21
-16 -18 7 -2 -19 -13 -9 -22
-15 -20 5 -3 -21 -15 -9 -21
0 -8 6 -1 -18 -14 -6 -19
-4 -16 7 -3 -22 -17 -9 -21
-7 -17 10 -3 -22 -17 -10 -20
-4 -15 6 -3 -23 -17 -12 -21
-6 -18 4 -4 -24 -19 -13 -24
2 -9 6 -2 -23 -17 -12 -23
-4 -15 6 -4 -27 -19 -15 -30
-19 -32 4 -8 -32 -27 -20 -35
-9 -23 6 -6 -30 -26 -18 -31
0 -12 6 -3 -27 -24 -13 -28
-1 -14 4 -5 -28 -24 -13 -29
-12 -22 4 -7 -31 -26 -13 -29
-9 -20 7 -4 -26 -23 -12 -29
-15 -28 3 -7 -31 -26 -16 -35
-19 -34 4 -6 -31 -27 -17 -35
-14 -25 8 -2 -30 -24 -12 -33
-13 -25 7 -3 -30 -26 -13 -34
-16 -27 5 -3 -30 -26 -12 -34
-4 -15 9 1 -26 -23 -8 -31
3 -9 13 2 -25 -22 -5 -29
1 -12 13 0 -26 -23 -8 -30
-5 -18 10 -3 -29 -25 -9 -31
-9 -21 10 -3 -30 -26 -12 -33
-13 -25 9 -4 -33 -28 -16 -36
-15 -25 10 -2 -31 -27 -15 -34
-6 -18 13 -1 -29 -25 -13 -33
-7 -16 14 1 -28 -23 -13 -31
-4 -12 18 3 -25 -22 -11 -28
-7 -18 18 0 -27 -24 -13 -32
-13 -23 20 -1 -27 -22 -10 -31
-7 -15 18 2 -24 -19 -6 -28
-15 -21 17 4 -23 -20 -6 -28
-18 -24 20 12 -19 -22 -9 -31
-15 -21 29 30 -8 -19 -11 -33
-23 -29 39 50 6 -15 -14 -39
-16 -19 53 77 33 4 -5 -35
-4 0 69 110 68 32 10 -27
3 9 83 148 111 70 32 -13
-5 5 87 174 152 107 51 -4
-2 15 91 192 191 147 77 14
11 33 93 212 238 199 114 42
26 46 83 221 276 250 152 69
44 66 77 219 308 299 192 101
55 81 65 194 319 341 233 132
57 91 50 137 303 362 266 162
63 107 27 68 266 359 286 184
56 104 -8 -19 191 313 282 191
40 87 -46 -117 83 214 239 174
32 75 -74 -211 -34 102 179 146
15 57 -95 -310 -163 -24 110 108
4 44 -122 -396 -288 -148 41 66
-5 39 -157 -469 -389 -239 -15 32
-19 26 -197 -510 -440 -287 -53 6
-9 23 -230 -512 -443 -292 -68 -4
7 19 -259 -496 -430 -282 -70 -5
13 16 -285 -482 -417 -270 -69 -5
21 16 -295 -458 -396 -259 -68 -5
25 19 -286 -425 -373 -246 -68 -7
14 20 -266 -393 -347 -234 -67 -12
12 31 -240 -356 -317 -218 -62 -12
10 36 -210 -319 -286 -202 -55 -12
-6 22 -191 -289 -265 -188 -55 -18
-9 20 -169 -252 -236 -172 -53 -23
-2 25 -142 -212 -203 -151 -49 -26
-10 12 -119 -181 -179 -134 -48 -34
-18 3 -95 -147 -150 -116 -43 -38
-10 4 -69 -110 -119 -95 -35 -35
-6 2 -46 -78 -91 -73 -28 -33
1 2 -22 -45 -64 -54 -17 -27
11 4 -6 -23 -44 -40 -7 -22
3 -4 1 -12 -36 -34 -4 -22
-1 -3 5 -5 -31 -29 -1 -19
0 -2 6 2 -28 -27 -1 -18
0 -3 9 10 -21 -24 0 -19
-13 -18 6 7 -24 -29 -5 -25
-14 -19 12 12 -22 -27 -8 -24
-11 -15 16 20 -16 -23 -7 -25
2 -3 19 24 -10 -17 -4 -23
5 -2 21 28 -7 -14 -1 -21
-11 -15 19 26 -6 -15 -2 -23
-2 -8 21 28 -3 -14 -3 -22
0 -8 20 30 -3 -12 -3 -22
-3 -11 22 31 -3 -14 0 -22
-9 -16 22 33 -1 -10 1 -21
-15 -20 24 33 1 -8 3 -20
-12 -17 26 36 3 -6 6 -20
-10 -16 26 35 3 -10 2 -23
-5 -11 29 38 5 -8 4 -22
-3 -11 32 41 7 -7 7 -20
-11 -18 29 38 5 -10 5 -24
-15 -26 27 34 3 -12 2 -26
-15 -25 28 36 2 -11 1 -25
-19 -27 26 39 3 -13 2 -23
-13 -18 24 43 8 -10 3 -21
-1 -8 28 43 10 -7 4 -19
4 -1 32 46 11 -5 3 -18
0 -5 35 47 13 -6 4 -16
-2 -6 32 49 14 -4 4 -17
-7 -13 29 47 12 -6 4 -18
-5 -10 29 47 14 -4 7 -17
0 -6 31 48 16 -3 10 -15
2 -5 33 48 15 -2 11 -15
4 -5 33 50 16 -2 12 -15
5 -5 33 54 19 1 13 -14
7 -2 32 54 19 -1 14 -13
-8 -15 30 54 17 -4 11 -15
-12 -17 28 54 18 -6 8 -15
-11 -16 29 56 20 -4 7 -15
-8 -13 30 58 20 -5 7 -15
-11 -19 27 55 18 -7 4 -17
1 -7 29 59 22 -3 8 -13
7 1 32 63 25 1 14 -10
-4 -7 34 65 24 0 15 -7
-4 -7 34 68 29 5 16 -7
-4 -8 31 68 30 7 17 -8
-7 -15 26 64 25 5 13 -10
-2 -10 33 70 32 7 16 -5
4 -1 37 73 36 10 18 -4
-4 -11 37 72 33 6 18 -6
-10 -15 35 72 33 4 17 -7
-7 -11 37 74 35 4 18 -5
-4 -10 37 75 36 7 19 -4
-6 -12 38 78 37 8 22 -1
-2 -8 39 82 39 10 23 0
0 -5 39 82 41 10 24 0
7 2 44 88 48 15 28 5
6 1 43 91 50 16 27 4
-3 -6 40 90 48 17 25 1
1 -5 38 91 50 18 26 0
5 -2 36 92 51 18 24 -2
2 -5 34 95 54 19 25 -1
4 -4 34 99 56 21 26 0
4 -3 34 101 56 19 26 1
4 -3 34 103 57 20 26 0
3 -3 35 108 59 20 29 1
14 8 39 114 64 25 35 8
13 6 39 117 66 28 36 8
10 2 38 119 68 30 37 7
13 4 40 122 70 31 38 8
12 4 41 123 71 31 37 9
13 4 41 126 74 33 38 9
14 6 40 129 75 37 40 10
18 9 42 135 79 39 43 13
16 7 42 136 81 41 46 13
22 15 43 142 86 45 50 17
25 19 43 144 86 45 49 18
24 21 42 148 90 48 50 19
14 12 34 146 88 47 48 16
13 7 31 145 88 47 47 16
23 16 36 150 92 51 51 21
26 22 37 151 96 52 55 26
26 22 36 152 93 54 58 29
26 24 37 152 92 54 61 33
19 18 34 151 92 53 57 31
15 15 32 151 91 52 58 30
11 11 33 150 89 52 58 29
12 13 34 151 92 53 59 30
18 19 34 150 93 57 61 32
21 20 35 149 91 57 65 32
31 29 39 151 94 60 69 35
28 29 37 150 92 58 69 35
22 22 34 147 87 57 67 35
22 23 30 145 85 56 66 34
15 19 26 144 83 54 65 34
10 12 19 138 78 50 62 32
14 16 17 136 78 52 63 34
23 26 21 137 82 56 67 40
24 28 26 137 83 59 68 40
20 22 22 130 78 55 65 37
16 20 22 126 75 53 64 38
17 21 21 123 74 54 65 40
23 26 18 119 70 52 64 40
28 30 19 114 65 49 63 43
20 23 17 109 60 44 57 39
17 20 19 104 57 42 54 37
24 28 23 103 59 43 56 39
21 24 23 100 57 42 56 38
14 17 16 93 53 39 53 33
18 20 16 90 51 38 54 31
28 29 18 86 51 39 57 33
28 27 15 80 49 38 59 33
25 26 19 79 46 39 59 35
19 20 15 74 41 34 55 31
9 7 12 69 36 31 47 27
9 7 17 65 34 31 44 25
7 5 15 60 31 27 40 21
8 5 13 57 28 25 38 19
10 8 13 53 26 23 34 17
6 6 14 50 26 22 33 14
3 6 12 47 23 18 32 13
8 8 12 43 21 15 29 14
14 12 11 41 18 15 29 14
13 13 10 41 18 14 31 14
6 6 10 35 13 11 31 12
8 6 14 35 13 12 30 11
6 5 15 32 12 11 29 8
6 5 16 32 12 9 26 5
1 1 17 29 10 7 21 0
-9 -7 13 26 8 3 17 -3
-6 -4 14 25 8 4 16 -2
-3 -5 13 23 7 3 15 -2
-7 -10 11 21 2 2 15 -3
-7 -11 10 20 2 1 16 -2
-5 -10 12 19 1 1 15 -2
-1 -8 13 20 0 0 16 -1
0 -4 13 20 1 1 16 -1
-2 -5 14 19 1 -1 13 -1
0 -2 16 18 2 0 11 -1
1 -2 12 18 0 -5 8 -4
-3 -6 8 15 -3 -8 4 -6
-2 -5 7 14 -4 -9 3 -6
-4 -6 6 11 -7 -10 2 -8
-8 -10 8 12 -7 -10 4 -7
-3 -4 13 16 -3 -5 8 -3
8 5 21 22 3 2 16 3
7 4 20 20 2 2 15 3
-9 -9 14 17 -1 0 12 -1
-12 -13 10 13 -3 -2 8 -6
-4 -7 9 12 -4 -3 7 -7
-2 -6 9 11 -4 -3 4 -7
-4 -9 7 8 -6 -5 2 -9
-4 -8 6 10 -6 -6 2 -8
-6 -7 5 10 -7 -8 2 -10
-3 -6 6 11 -6 -7 3 -8
-5 -8 8 10 -6 -5 6 -8
-11 -10 9 10 -7 -6 4 -10
-8 -7 12 14 -4 -4 7 -8
-7 -8 12 14 -4 -2 10 -7
-5 -7 13 16 -1 2 14 -4
-6 -9 12 15 0 0 12 -4
-12 -15 10 13 -2 -4 8 -4
-3 -8 12 13 -3 -4 8 -2
0 -4 15 16 0 -2 9 0
-2 -6 16 13 0 -2 8 0
-4 -6 16 15 0 -2 8 0
-18 -20 12 12 -4 -7 2 -5
-7 -9 15 16 -1 -4 4 -5
4 2 17 19 4 -1 9 -2
-8 -10 12 15 -2 -8 2 -9
-6 -7 13 15 -2 -8 1 -10
-4 -3 12 17 0 -6 1 -8
-2 -4 11 17 0 -6 1 -8
-3 -4 9 17 -1 -5 3 -6
-3 -4 7 17 0 -2 2 -4
-3 -4 10 19 1 -1 3 -3
-4 -6 11 20 2 -1 3 -5
-5 -6 8 19 3 1 4 -6
-6 -9 5 16 1 0 1 -6
-4 -11 3 15 -1 -3 2 -6
0 -7 5 16 0 -1 3 -5
-3 -6 7 17 1 1 6 -2
-7 -6 11 20 3 2 7 -1
-6 -4 12 20 3 1 9 -1
-11 -9 11 20 2 0 4 -5
-9 -9 13 22 3 -2 2 -6
-1 -2 17 22 4 -3 -1 -7
5 3 18 23 7 -2 0 -5
1 2 17 22 6 -2 1 -6
-7 -6 15 19 3 -3 0 -9
-9 -6 13 18 4 -1 0 -10
-2 0 17 21 6 3 5 -5
-1 -1 15 19 6 2 6 -4
2 -1 12 20 5 4 7 -2
-1 -4 9 19 5 4 7 -1
-4 -3 9 18 4 4 10 0
3 3 9 19 7 5 11 1
5 5 13 23 9 6 11 5
5 2 12 20 6 3 7 3
-1 -3 10 17 2 -2 3 -1
-7 -10 8 13 0 -4 -1 -5
2 0 13 18 3 2 3 0
0 -4 14 18 1 1 3 0
-14 -18 9 14 -2 -3 -1 -4
-14 -17 10 14 -2 -7 -2 -9
-2 -4 15 18 1 -5 0 -7
4 4 15 23 5 1 4 -3
-1 -3 15 21 5 1 0 -6
-7 -9 17 18 3 1 -2 -7
-13 -15 13 14 0 -1 -5 -12
-6 -11 11 11 -3 -3 -6 -12
5 -2 8 12 0 -1 -5 -9
6 -1 8 11 -1 -1 -6 -10
0 -7 7 11 -4 -5 -7 -12
-6 -10 7 11 -3 -5 -12 -14
-7 -10 5 10 -6 -7 -12 -14
-4 -8 4 9 -7 -7 -12 -14
-6 -10 6 9 -6 -6 -10 -12
-8 -9 6 8 -6 -6 -10 -12
-1 -2 7 9 -5 -4 -5 -10
7 4 11 11 -3 -2 -1 -8
4 -2 11 9 -5 -5 0 -9
3 -5 9 5 -8 -9 -4 -11
6 -2 10 6 -7 -8 -1 -10
4 -3 8 6 -8 -8 -2 -11
1 -5 7 6 -8 -7 -3 -12
0 -4 9 8 -5 -6 -2 -11
-8 -12 4 5 -5 -9 -4 -15
-9 -14 5 5 -5 -8 -4 -17
-7 -13 8 5 -7 -10 -5 -19
-1 -6 10 4 -5 -9 -4 -14
-1 -5 9 5 -6 -10 -3 -14
-2 -4 9 3 -7 -10 -4 -14
-3 -8 7 2 -8 -10 -3 -16
-8 -13 3 -1 -10 -12 -5 -18
-13 -16 4 -1 -12 -14 -7 -20
-6 -12 4 -2 -12 -14 -9 -22
-6 -11 4 1 -10 -13 -9 -20
-5 -9 6 1 -8 -11 -9 -18
-4 -8 5 0 -7 -11 -6 -15
-2 -4 7 0 -7 -11 -5 -12
-7 -8 6 0 -7 -11 -5 -12
-5 -7 6 0 -8 -9 -3 -10
-11 -14 6 -3 -12 -12 -5 -12
-9 -13 7 -2 -12 -11 -5 -12
-9 -14 5 -1 -12 -11 -4 -13
-8 -12 6 -1 -12 -11 -4 -14
-8 -11 7 0 -10 -11 -7 -14
-11 -14 6 -1 -10 -12 -12 -17
-13 -17 4 -2 -12 -14 -12 -18
-12 -17 6 -2 -11 -14 -14 -20
-5 -13 8 0 -10 -14 -13 -19
2 -4 9 1 -7 -9 -10 -17
-10 -15 6 0 -9 -11 -12 -19
-8 -10 8 1 -9 -11 -12 -18
2 -3 10 3 -8 -9 -7 -14
4 -4 7 -3 -11 -12 -8 -15
-8 -16 5 -5 -12 -14 -8 -17
-14 -21 3 -4 -11 -13 -7 -17
-12 -19 1 -5 -13 -13 -8 -16
-7 -16 0 -8 -14 -13 -7 -18
-9 -18 0 -9 -14 -13 -7 -15
-8 -16 -1 -9 -15 -13 -9 -17
-5 -16 -1 -8 -15 -13 -8 -16
3 -7 3 -3 -11 -8 -3 -11
4 -4 3 -5 -13 -9 -3 -10
-3 -9 0 -7 -15 -13 -6 -16
-13 -18 0 -7 -17 -16 -8 -18
-10 -16 2 -6 -14 -16 -7 -18
-1 -7 6 -3 -11 -14 -3 -14
3 -5 4 -4 -10 -14 -4 -14
-5 -14 0 -8 -14 -17 -8 -19
-7 -16 -3 -8 -15 -18 -9 -21
-7 -14 -3 -7 -13 -17 -8 -18
-3 -12 1 -3 -11 -16 -8 -17
-1 -10 5 -1 -9 -13 -7 -14
-17 -23 2 -5 -14 -18 -12 -19
-23 -27 3 -8 -15 -20 -13 -20
-11 -15 5 -6 -13 -17 -9 -17
-2 -8 9 -6 -11 -14 -5 -13
-9 -15 6 -7 -10 -14 -7 -15
-11 -17 3 -8 -12 -16 -9 -15
-5 -11 0 -9 -15 -17 -11 -16
-11 -18 -1 -10 -15 -19 -15 -18
-8 -14 -1 -9 -14 -18 -15 -17
-4 -9 0 -7 -13 -16 -11 -15
-8 -13 0 -7 -14 -15 -10 -17
-12 -17 -1 -9 -16 -19 -12 -18
-4 -9 0 -8 -12 -16 -10 -15
-3 -5 2 -6 -10 -13 -7 -13
-10 -12 3 -8 -13 -16 -10 -16
-17 -20 1 -12 -15 -19 -15 -17
-9 -12 3 -11 -14 -16 -13 -15
0 -2 7 -8 -12 -12 -11 -12
3 4 9 -5 -6 -8 -7 -10
-5 -1 7 -6 -6 -8 -10 -10
-10 -3 8 -5 -6 -10 -11 -10
-6 4 12 -5 -3 -9 -10 -10
-3 6 14 -6 -4 -8 -9 -10
-1 8 18 -5 -2 -5 -7 -8
-4 5 17 -5 -2 -5 -7 -9
-6 6 19 -5 0 0 -3 -6
-3 11 22 -2 2 3 0 -2
0 12 21 0 4 3 0 -1
-6 6 17 -3 0 -2 -4 -4
-1 9 16 -2 0 -3 -5 -2
-2 8 12 -1 2 -1 -1 -1
-2 9 9 -4 2 -1 -1 -1
11 21 10 -2 4 3 2 4
9 17 3 -4 1 1 0 3
-2 2 -8 -10 -4 -4 -6 -2
-1 0 -15 -16 -9 -7 -10 -5
1 -1 -13 -13 -9 -5 -9 -4
-2 1 -10 -10 -4 -3 -6 -1
3 8 -2 -4 0 2 -1 3
0 7 -4 -4 -1 2 -2 3
0 7 -3 -3 1 5 0 5
-1 7 4 -2 2 5 1 8
6 11 7 -2 1 4 1 9
5 8 7 -6 -3 -1 -3 5
1 1 4 -9 -5 -3 -6 3
2 3 2 -10 -4 -1 -6 3
3 1 -6 -12 -7 -3 -8 2
4 0 -12 -14 -9 -5 -9 0
-1 -3 -13 -16 -11 -7 -11 0
-8 -10 -13 -21 -16 -11 -17 -5
-11 -13 -14 -23 -20 -14 -20 -7
-5 -6 -9 -20 -17 -13 -20 -6
-6 -7 -7 -20 -16 -13 -21 -8
-4 -6 -3 -17 -14 -12 -20 -6
1 -1 1 -15 -12 -11 -18 -4
-2 0 -2 -18 -14 -12 -20 -7
-13 -9 -5 -20 -16 -13 -21 -8
-12 -9 -2 -19 -15 -12 -18 -7
-13 -12 -4 -21 -17 -13 -22 -10
-13 -13 -4 -25 -20 -18 -27 -13
-11 -14 -2 -26 -22 -19 -27 -13
-7 -10 -1 -25 -21 -17 -25 -10
-2 -5 -2 -27 -22 -17 -26 -10
-3 -9 -1 -28 -21 -17 -25 -11
-8 -15 -8 -30 -22 -18 -28 -12
-9 -17 -11 -34 -24 -19 -27 -10
-6 -14 -8 -34 -25 -17 -26 -9
-6 -13 -6 -34 -25 -17 -24 -9
-11 -18 -7 -34 -26 -21 -27 -10
-12 -21 -7 -35 -27 -24 -31 -14
-8 -15 -4 -32 -25 -22 -30 -12
-10 -15 -7 -33 -25 -22 -30 -11
-18 -22 -10 -36 -27 -24 -32 -13
-17 -22 -10 -38 -28 -26 -35 -14
-9 -14 -7 -35 -23 -22 -31 -12
-2 -9 -5 -34 -22 -20 -30 -11
-2 -10 -5 -35 -24 -20 -31 -13
-7 -15 -6 -36 -26 -23 -34 -16
-14 -22 -10 -37 -28 -23 -35 -17
-20 -27 -11 -38 -28 -23 -34 -17
-25 -29 -10 -36 -26 -21 -31 -15
-25 -30 -10 -37 -26 -23 -33 -18
-11 -16 -4 -32 -21 -18 -28 -13
-3 -9 -2 -30 -18 -17 -26 -11
-8 -14 -4 -33 -18 -18 -30 -14
-8 -16 -3 -33 -19 -20 -31 -15
-8 -14 -1 -32 -19 -18 -31 -14
-7 -13 -4 -32 -20 -19 -31 -14
-7 -11 -4 -32 -18 -18 -31 -14
-17 -20 -4 -35 -22 -21 -34 -18
-27 -30 -6 -36 -23 -22 -37 -20
-17 -21 0 -29 -17 -19 -36 -20
-9 -13 10 -15 -9 -16 -36 -20
-8 -11 22 4 4 -13 -39 -24
-14 -13 31 27 23 -6 -39 -27
-13 -11 37 49 47 12 -34 -27
-13 -9 48 79 78 38 -21 -19
-4 1 63 120 124 78 3 -5
8 23 82 159 172 124 34 15
8 31 91 179 214 168 62 33
22 46 90 199 261 219 101 60
37 61 76 205 300 271 140 88
36 63 62 201 325 317 175 115
34 69 44 165 328 352 210 143
44 86 25 106 311 370 240 169
55 102 -2 31 267 358 255 189
54 109 -31 -61 183 304 245 195
49 105 -58 -154 79 205 205 181
40 88 -83 -255 -45 85 143 150
9 61 -108 -360 -182 -45 69 108
-10 43 -137 -447 -307 -166 1 67
-19 37 -173 -515 -399 -249 -52 34
-20 35 -209 -546 -436 -286 -85 13
-9 27 -249 -547 -438 -289 -99 4
0 17 -282 -532 -427 -281 -102 0
9 16 -306 -515 -412 -270 -101 2
25 22 -313 -488 -390 -256 -97 3
26 27 -305 -456 -367 -244 -97 0
7 20 -290 -428 -347 -237 -101 -8
-5 25 -265 -391 -317 -219 -95 -7
-1 37 -238 -355 -285 -200 -86 -5
8 43 -210 -318 -257 -181 -79 -5
10 44 -179 -279 -225 -161 -75 -8
-1 29 -149 -242 -197 -142 -74 -13
-7 23 -122 -205 -167 -122 -70 -17
-9 18 -96 -167 -136 -103 -65 -18
-13 9 -73 -134 -109 -84 -58 -17
-13 0 -54 -103 -81 -63 -51 -17
-15 -7 -38 -75 -57 -44 -42 -15
-13 -9 -26 -54 -38 -32 -35 -12
-9 -9 -22 -41 -27 -24 -31 -12
-8 -8 -20 -32 -22 -20 -28 -13
-5 -5 -14 -24 -16 -16 -27 -12
-15 -11 -10 -19 -14 -13 -28 -13
-15 -12 -8 -16 -11 -12 -29 -15
-2 -1 -3 -10 -7 -11 -29 -15
-3 -3 -1 -7 -5 -10 -28 -14
-9 -6 -2 -7 -5 -10 -30 -14
-13 -11 0 -4 -4 -8 -29 -14
-9 -8 5 0 0 -5 -26 -10
-2 -1 12 5 5 -2 -23 -7
-8 -8 12 5 3 -3 -26 -11
-16 -17 9 5 1 -6 -27 -13
-13 -13 9 7 6 -2 -25 -12
-9 -10 9 9 8 2 -23 -12
-14 -15 6 9 6 0 -27 -14
-13 -14 4 11 7 -1 -25 -11
-7 -9 4 14 12 2 -21 -8
-6 -7 5 15 12 4 -19 -7
-12 -14 6 14 11 2 -20 -7
-4 -8 7 15 15 3 -17 -5
-3 -7 7 16 15 4 -17 -5
0 -3 9 20 18 5 -15 -5
1 -1 10 22 19 5 -15 -4
1 -1 8 21 17 4 -16 -7
3 0 11 22 18 6 -15 -5
5 2 14 24 21 8 -15 -5
4 3 15 24 23 10 -17 -6
-2 -2 14 24 21 9 -19 -10
-5 -6 14 23 20 8 -20 -9
-2 -8 14 23 21 9 -20 -8
-9 -12 16 24 22 9 -20 -9
-8 -7 22 29 25 10 -18 -7
-15 -14 21 27 24 8 -20 -8
-15 -14 23 33 27 11 -18 -6
-9 -7 19 34 27 12 -17 -6
-1 -3 17 33 29 12 -15 -4
1 0 20 37 31 15 -13 -2
-10 -11 16 37 28 12 -15 -5
-2 -4 16 38 32 15 -11 0
1 0 14 42 36 19 -7 4
-5 -4 12 40 33 19 -8 1
2 0 11 42 35 20 -7 4
0 -2 13 43 34 20 -8 4
-2 -4 14 45 36 21 -6 5
-1 -3 13 47 38 24 -5 6
-6 -8 13 48 39 23 -6 4
-13 -15 12 46 39 22 -9 0
-1 -3 18 51 43 24 -4 3
-1 -1 21 53 43 23 -6 3
-8 -7 20 54 44 22 -10 -2
-1 -1 21 56 46 23 -10 1
8 9 26 62 51 29 -3 7
9 9 28 64 54 31 0 8
3 3 25 64 53 32 -1 5
1 2 25 64 54 33 0 4
-4 -2 21 65 55 34 2 6
-3 -3 19 67 57 35 3 5
5 5 22 72 63 40 7 8
9 8 19 74 65 42 10 12
4 3 16 74 64 41 9 11
6 8 19 79 68 44 12 11
10 12 23 83 69 45 13 13
5 5 23 84 71 44 12 13
2 1 24 88 71 46 12 13
8 8 27 93 77 51 16 16
3 4 24 95 78 53 17 17
2 3 23 96 79 54 18 16
6 4 28 101 85 58 21 18
15 10 30 106 88 59 21 21
28 25 33 110 92 62 23 24
21 21 32 112 92 64 22 23
22 21 34 118 98 70 29 29
28 28 27 121 102 74 33 31
8 9 18 118 97 69 27 24
8 9 18 120 97 68 26 24
22 21 24 127 103 73 32 29
33 32 25 131 105 76 35 31
29 30 24 134 109 81 40 35
28 27 23 134 110 83 41 38
31 32 23 138 111 88 47 41
32 34 22 141 114 89 48 45
25 26 22 141 113 89 48 47
22 27 20 141 114 90 49 48
20 26 20 140 112 91 49 48
24 28 23 140 112 92 51 50
26 30 26 140 113 90 52 51
28 34 24 140 113 92 54 53
24 32 23 140 113 93 56 55
23 30 21 138 111 90 55 54
27 34 16 135 109 89 53 51
28 34 12 134 104 88 51 48
24 31 10 131 103 85 51 49
22 33 8 130 102 85 51 49
26 35 10 130 102 87 53 50
26 34 11 127 101 85 53 51
20 29 10 123 97 81 53 51
28 38 11 122 97 84 54 54
29 41 11 118 96 84 55 56
27 37 12 113 93 82 53 55
18 29 8 104 86 77 48 49
17 28 9 101 82 75 48 48
6 17 8 94 75 68 42 45
17 28 14 92 75 66 41 45
25 36 17 93 75 67 42 45
24 36 13 87 72 63 40 44
18 29 12 79 65 59 40 42
14 24 10 73 59 57 38 40
16 23 8 67 57 56 37 38
18 23 7 64 55 54 36 38
22 27 5 60 51 50 34 38
22 29 5 55 48 47 32 37
15 22 5 50 42 42 28 34
2 9 2 41 37 36 21 27
-1 6 3 38 35 34 17 23
3 8 7 36 31 30 17 21
2 8 9 32 28 25 13 17
-3 4 7 29 24 23 10 12
2 9 6 26 24 21 9 9
4 10 2 22 20 18 5 7
4 11 4 20 19 17 5 7
7 11 7 17 16 16 7 7
2 7 10 16 16 16 8 7
-3 3 11 12 13 14 6 6
-1 3 10 10 12 12 3 3
4 6 10 10 15 13 6 6
-3 0 7 5 11 9 4 4
-2 -1 7 4 9 7 1 2
-4 -1 6 4 8 6 -1 1
-3 -1 5 2 5 4 -3 1
-5 -4 2 -1 3 3 -3 0
-12 -10 -1 -3 0 0 -6 -3
-14 -12 -1 -5 -1 -2 -7 -5
-6 -1 3 -4 1 0 -5 -2
-1 4 4 -1 2 3 -2 1
-7 -6 0 -5 -1 -2 -5 -3
-11 -8 -1 -6 -2 -2 -7 -4
-15 -12 0 -7 -2 -1 -5 -3
-3 -2 4 -5 1 1 -2 -1
1 1 5 -6 3 3 0 1
-2 0 5 -6 1 2 -1 0
-1 -1 8 -4 1 3 -1 1
2 4 10 -3 2 2 0 2
2 5 10 -5 1 0 -2 0
-7 -2 8 -5 -1 -2 -6 -4
-18 -13 3 -9 -5 -5 -10 -10
-20 -17 -1 -11 -6 -6 -13 -13
-18 -14 -1 -11 -4 -7 -14 -14
-15 -10 3 -8 -2 -6 -10 -12
-11 -8 3 -11 -5 -7 -10 -11
-7 -4 3 -11 -5 -5 -7 -7
-2 0 2 -9 -4 -3 -4 -5
-15 -11 -1 -11 -6 -6 -5 -5
-12 -10 -2 -13 -6 -6 -5 -3
-3 -3 1 -11 -5 -5 -3 -1
-4 -2 4 -9 -4 -3 -1 -1
-19 -13 5 -12 -6 -7 -5 -4
-10 -8 8 -11 -6 -7 -4 -5
-8 -5 11 -7 -4 -4 -2 -4
-13 -9 11 -8 -4 -6 -4 -5
-10 -4 9 -8 -4 -5 -6 -7
-9 -4 7 -9 -5 -6 -6 -9
-10 -5 8 -8 -5 -9 -6 -9
-8 -2 7 -7 -4 -9 -7 -10
-18 -12 3 -9 -8 -12 -12 -15
-23 -21 5 -11 -9 -13 -14 -15
-12 -10 10 -7 -4 -9 -10 -11
-15 -11 12 -9 -5 -8 -10 -12
-14 -10 12 -7 -4 -9 -10 -14
-6 -1 12 -7 -1 -7 -8 -13
-6 1 10 -6 0 -6 -6 -12
-9 -6 5 -10 -2 -7 -8 -12
-16 -14 5 -10 -3 -8 -9 -13
-8 -4 9 -7 0 -5 -4 -8
-3 2 11 -4 3 -2 -2 -4
-9 -6 5 -5 0 -4 -3 -5
-10 -11 2 -7 -2 -6 -4 -6
-8 -10 3 -7 -2 -4 -4 -5
-5 -5 6 -4 0 -3 -3 -3
-6 -6 8 -6 -1 -5 -5 -5
-5 -6 7 -7 -3 -7 -7 -8
-1 0 9 -6 -1 -5 -6 -7
-3 -2 9 -4 1 -7 -6 -9
-8 -4 10 -5 0 -7 -5 -8
-21 -15 6 -6 -2 -7 -8 -10
-24 -19 6 -6 -1 -7 -7 -10
-18 -14 4 -6 0 -7 -5 -8
-16 -11 6 -6 1 -4 -3 -5
-14 -11 7 -4 3 -3 -1 -3
-13 -7 11 -1 5 1 2 -3
-8 -3 11 -1 8 4 3 0
-1 4 11 -1 7 3 4 0
-3 2 13 -1 8 3 3 -1
-10 -7 11 -4 4 -1 -2 -4
-7 -6 10 -5 4 -2 -4 -7
-8 -4 10 -4 3 -2 -3 -9
-15 -5 8 -7 2 -4 -5 -11
-10 -1 9 -3 4 -1 -1 -6
-12 -4 7 -5 3 0 0 -8
-9 -2 7 -5 3 -1 1 -7
-11 -5 9 -5 4 0 1 -6
-14 -8 8 -6 2 -1 1 -5
-14 -9 8 -8 1 -3 -2 -6
-14 -10 11 -6 3 -2 0 -3
-15 -11 11 -7 2 -2 0 -4
-26 -21 6 -10 -3 -7 -3 -7
-26 -19 6 -11 -2 -9 -4 -8
-11 -4 11 -6 1 -6 -3 -6
-1 2 10 -3 4 -3 -1 -4
5 7 8 -4 5 -3 0 -5
3 6 10 -5 5 -4 0 -4
-9 -5 9 -6 3 -4 -2 -5
-10 -6 11 -8 2 -5 -3 -6
-7 -4 12 -5 5 -1 0 -2
-7 -6 11 -8 3 -5 -1 -4
-14 -13 7 -12 -2 -9 -5 -7
-10 -10 6 -12 -2 -10 -8 -8
-2 -1 8 -11 -2 -8 -7 -7
-12 -7 9 -13 -3 -9 -8 -9
-18 -12 6 -15 -5 -10 -10 -11
-6 -5 4 -17 -7 -10 -11 -14
-4 -4 3 -16 -8 -8 -10 -13
-16 -15 0 -19 -9 -9 -10 -14
-13 -14 1 -20 -8 -8 -8 -13
-2 -4 8 -14 -3 -3 -1 -7
-2 -2 9 -14 -4 -5 0 -6
-3 -6 8 -15 -4 -6 -1 -6
-7 -9 6 -16 -5 -5 -1 -8
-9 -11 6 -17 -5 -5 0 -7
-15 -16 4 -18 -10 -8 -2 -8
-15 -15 6 -18 -9 -8 -2 -9
-10 -13 9 -17 -11 -10 -3 -8
-13 -15 9 -16 -11 -13 -7 -9
-11 -12 7 -16 -11 -14 -9 -10
-6 -7 6 -14 -9 -11 -9 -11
-3 -5 5 -15 -10 -12 -10 -12
-11 -10 8 -15 -10 -14 -10 -14
-12 -11 10 -14 -9 -14 -10 -14
-12 -12 9 -15 -9 -15 -9 -12
-9 -11 7 -17 -10 -15 -7 -10
-7 -6 9 -14 -7 -11 -4 -9
-8 -6 9 -14 -6 -9 -3 -7
-14 -15 6 -18 -10 -11 -7 -11
-16 -16 6 -18 -12 -13 -10 -13
-13 -13 7 -17 -13 -13 -10 -13
-6 -7 10 -15 -9 -10 -7 -9
-9 -10 8 -15 -9 -12 -7 -10
-3 -8 8 -14 -9 -11 -6 -8
-8 -11 5 -16 -10 -11 -6 -8
-12 -14 7 -17 -11 -10 -7 -7
-15 -17 5 -17 -13 -10 -7 -8
-21 -24 0 -20 -16 -13 -8 -11
-10 -10 1 -17 -13 -10 -6 -8
-6 -9 2 -18 -14 -11 -9 -8
-9 -14 2 -19 -14 -12 -9 -9
-6 -9 7 -16 -12 -10 -8 -9
-8 -9 9 -16 -12 -11 -10 -9
-5 -9 7 -17 -12 -11 -11 -11
-6 -11 7 -17 -12 -10 -8 -11
-19 -23 3 -22 -16 -14 -14 -15
-20 -22 1 -22 -17 -14 -15 -15
-5 -8 4 -19 -14 -12 -12 -13
-1 -3 4 -19 -13 -12 -13 -14
-5 -6 5 -20 -13 -12 -15 -14
-11 -13 4 -22 -16 -14 -17 -16
-13 -12 5 -23 -18 -16 -16 -17
-13 -15 7 -22 -17 -15 -15 -16
-14 -17 8 -21 -15 -14 -12 -15
-10 -14 8 -21 -15 -11 -10 -14
-10 -14 6 -21 -16 -11 -9 -13
-9 -15 3 -23 -18 -14 -12 -15
-9 -15 1 -21 -18 -14 -13 -14
1 -4 7 -15 -12 -10 -10 -9
2 -1 10 -14 -12 -9 -10 -9
-2 -5 10 -17 -15 -12 -15 -11
-8 -12 8 -19 -18 -16 -19 -16
-14 -16 8 -21 -18 -16 -19 -18
-14 -17 8 -20 -19 -16 -16 -16
-19 -22 5 -20 -21 -18 -16 -16
-15 -21 5 -21 -21 -18 -15 -14
-9 -18 4 -21 -21 -19 -15 -14
-7 -14 6 -17 -17 -14 -11 -10
-2 -10 7 -16 -16 -13 -9 -8
-9 -17 4 -19 -20 -18 -13 -11
-14 -20 5 -17 -19 -19 -14 -13
-8 -11 9 -13 -16 -14 -11 -10
-5 -4 13 -11 -10 -9 -6 -6
-4 0 14 -8 -7 -6 -3 -4
-5 0 14 -7 -7 -5 -2 -2
3 7 17 -6 -4 -3 1 1
6 11 21 -4 -4 -1 1 2
7 15 25 -3 -4 -1 2 4
9 19 27 0 -1 2 3 5
-4 7 23 -4 -4 -1 -2 -1
-16 -4 20 -7 -7 -6 -5 -5
-19 -5 18 -8 -8 -8 -7 -6
-18 -5 18 -8 -8 -11 -8 -7
-9 -1 17 -7 -8 -11 -8 -8
-2 8 20 -2 -2 -6 -2 -3
3 12 19 -2 0 -3 -1 -3
6 16 17 -3 -1 -1 2 1
12 21 11 -2 -1 -1 4 4
1 7 -1 -11 -7 -6 -1 0
-8 -4 -9 -14 -11 -8 -5 -2
-5 -3 -7 -12 -9 -7 -3 -1
1 1 -2 -8 -6 -3 0 0
12 11 3 -2 0 3 6 6
13 11 5 -1 0 4 9 7
4 4 4 -2 0 2 9 7
-7 -4 1 -6 -5 -3 3 2
-3 -1 5 -6 -6 -4 3 1
9 6 6 -5 -5 -3 5 3
6 1 5 -11 -10 -6 2 -1
3 -1 4 -11 -12 -7 0 -1
0 -3 4 -11 -12 -9 0 -3
-5 -10 -1 -13 -15 -12 -4 -6
0 -7 -2 -12 -15 -12 -5 -5
8 3 2 -11 -15 -12 -2 -1
0 -2 1 -13 -17 -15 -4 -3
-15 -15 -2 -17 -22 -19 -10 -5
-12 -14 2 -17 -22 -20 -10 -6
0 -5 6 -16 -21 -18 -9 -5
-1 -6 6 -16 -22 -19 -9 -6
-5 -9 8 -15 -23 -20 -11 -8
-7 -10 9 -14 -23 -20 -12 -10
-13 -16 3 -17 -27 -24 -17 -13
-16 -19 4 -17 -26 -25 -17 -12
-16 -22 3 -18 -26 -25 -17 -12
-10 -18 5 -17 -25 -25 -16 -13
-6 -14 4 -18 -28 -28 -19 -13
-1 -8 6 -17 -26 -27 -16 -11
-11 -19 2 -20 -30 -30 -19 -15
-13 -24 1 -22 -32 -32 -21 -17
-15 -25 2 -22 -33 -32 -21 -16
-21 -30 2 -23 -35 -34 -21 -18
-19 -26 2 -24 -35 -34 -21 -18
-14 -24 2 -23 -35 -35 -21 -17
5 -6 4 -19 -31 -30 -15 -12
-1 -11 4 -21 -31 -31 -14 -14
-17 -25 1 -24 -35 -34 -19 -17
-10 -20 2 -23 -35 -34 -17 -17
-12 -21 3 -22 -34 -34 -17 -18
-14 -24 1 -22 -35 -34 -18 -20
-14 -27 -1 -25 -37 -34 -18 -21
-17 -28 1 -24 -37 -34 -17 -20
-14 -21 3 -23 -36 -34 -18 -19
-13 -21 4 -22 -35 -33 -16 -18
-25 -35 -1 -27 -40 -40 -23 -25
-25 -33 2 -26 -38 -40 -25 -24
-15 -24 4 -24 -38 -39 -23 -23
-10 -20 6 -21 -34 -36 -20 -21
-8 -17 8 -19 -33 -34 -18 -21
-6 -16 11 -17 -32 -34 -16 -21
-5 -13 12 -18 -32 -30 -15 -17
-14 -22 9 -20 -31 -29 -14 -18
-10 -18 10 -21 -32 -30 -15 -20
-12 -21 9 -21 -31 -30 -14 -21
-18 -27 5 -23 -34 -32 -15 -24
-15 -23 4 -22 -33 -33 -15 -24
-9 -17 5 -19 -32 -34 -18 -24
-14 -23 11 -12 -28 -37 -22 -27
-19 -27 19 2 -19 -36 -25 -31
-17 -24 36 25 -3 -29 -25 -32
-22 -22 47 49 17 -15 -21 -31
-11 -10 59 79 51 10 -7 -21
-12 -9 69 110 86 39 7 -14
-10 -3 81 147 130 80 32 3
-5 10 90 176 176 124 62 23
12 30 95 196 221 173 95 46
30 49 86 212 267 227 131 72
42 61 73 217 304 280 172 101
41 67 66 204 324 323 209 127
42 76 53 158 320 350 241 154
46 88 31 92 293 359 264 177
49 97 4 9 234 331 269 192
50 99 -31 -88 137 257 246 191
35 83 -64 -186 21 147 192 164
22 65 -93 -294 -111 18 123 127
3 49 -117 -394 -248 -114 49 83
-14 34 -153 -480 -367 -225 -17 43
-21 31 -189 -536 -437 -291 -62 15
-12 33 -221 -549 -455 -309 -81 3
0 27 -255 -539 -448 -302 -86 0
3 14 -286 -527 -438 -293 -87 -1
15 15 -303 -506 -422 -282 -84 1
22 17 -303 -475 -399 -269 -80 0
18 17 -287 -440 -372 -254 -79 -2
16 31 -263 -403 -341 -239 -75 -2
7 34 -239 -365 -312 -222 -71 -3
3 33 -216 -332 -285 -207 -70 -6
3 33 -190 -298 -256 -190 -67 -11
-8 19 -163 -262 -229 -173 -67 -16
-13 11 -137 -226 -200 -156 -65 -22
-16 8 -112 -189 -172 -136 -62 -28
-14 7 -85 -152 -140 -113 -52 -25
-12 1 -60 -118 -108 -92 -44 -23
-13 -6 -37 -87 -82 -72 -36 -20
-14 -13 -20 -62 -64 -62 -33 -20
-11 -15 -7 -43 -48 -52 -28 -19
-5 -8 1 -32 -37 -42 -24 -17
-1 -5 4 -24 -31 -38 -21 -14
-15 -21 1 -20 -29 -38 -22 -15
-17 -22 5 -14 -26 -38 -22 -16
-10 -15 9 -6 -21 -31 -17 -13
3 -1 13 2 -13 -22 -10 -7
-3 -9 15 2 -14 -22 -11 -9
-12 -19 14 0 -15 -22 -15 -14
-7 -14 16 5 -12 -20 -11 -13
-5 -10 19 9 -8 -20 -10 -11
-5 -10 16 9 -8 -20 -11 -12
-14 -19 11 8 -9 -19 -12 -13
-9 -16 13 10 -9 -22 -14 -14
-8 -17 15 9 -9 -23 -16 -15
-16 -20 19 13 -8 -23 -15 -14
-18 -22 23 15 -5 -21 -15 -14
-21 -26 21 15 -5 -22 -16 -16
-14 -21 23 15 -3 -19 -14 -15
-4 -10 27 22 3 -14 -9 -11
-3 -10 26 22 5 -11 -7 -9
-3 -10 22 22 5 -9 -5 -9
0 -10 21 21 2 -9 -5 -6
-6 -15 20 20 0 -14 -8 -9
-16 -22 19 19 0 -16 -12 -13
-17 -22 22 23 2 -15 -11 -13
-16 -23 24 22 3 -16 -12 -14
-6 -13 27 24 6 -14 -10 -12
-6 -12 28 26 8 -9 -8 -10
-5 -13 27 25 8 -9 -7 -10
-1 -9 29 25 10 -8 -5 -7
-11 -16 22 22 6 -12 -9 -9
-2 -7 25 26 8 -6 -4 -3
-5 -10 26 28 9 -7 -5 -2
-4 -10 24 29 10 -6 -5 -3
-16 -19 21 27 9 -7 -7 -5
-14 -17 23 29 11 -7 -7 -7
-5 -9 27 34 17 -2 -4 -3
-6 -11 28 35 18 0 -4 -4
-8 -14 28 38 19 2 -3 -6
-3 -9 30 39 23 5 0 -3
0 -6 31 41 23 5 0 -2
-7 -9 31 43 21 3 -1 -3
-9 -12 32 46 22 2 -2 -2
-12 -17 30 46 21 1 -5 -3
-7 -11 34 51 26 7 1 1
-3 -6 37 55 29 9 3 3
-8 -14 35 54 30 7 0 1
-10 -14 37 56 31 10 3 2
-11 -16 31 54 29 8 -1 -1
-18 -21 27 52 27 5 -2 -2
-14 -21 28 56 29 9 0 -1
-7 -14 29 60 32 13 4 1
5 1 38 67 38 17 9 6
5 4 40 70 40 16 6 6
2 -1 37 71 40 16 5 3
-9 -10 34 72 40 14 4 2
-5 -4 34 76 45 19 6 5
2 0 32 75 44 21 8 4
7 3 31 77 45 22 8 6
5 1 32 78 48 23 9 8
9 3 32 82 51 26 12 11
7 0 32 85 50 27 12 11
5 1 32 90 54 31 14 13
-2 -5 32 93 56 32 12 11
-7 -9 31 97 57 32 12 9
8 5 39 104 67 39 18 14
17 13 45 112 73 44 22 20
6 3 42 110 68 42 20 17
9 4 40 113 72 45 26 20
8 3 37 116 76 50 29 24
9 3 36 119 77 51 30 24
20 13 40 128 84 58 38 29
23 16 39 131 88 60 41 30
15 10 37 131 86 59 40 28
19 17 42 137 90 62 41 28
24 22 42 142 93 65 45 30
26 22 37 144 96 68 48 33
19 17 33 145 98 70 49 33
16 17 33 146 97 71 50 36
15 15 32 146 98 71 51 38
20 19 34 148 99 72 53 39
20 18 33 149 99 74 53 40
18 15 31 149 98 72 54 39
15 14 32 151 99 73 54 40
19 19 36 152 101 77 58 44
24 26 37 155 105 79 61 46
31 33 36 155 104 80 61 47
24 27 34 155 103 80 60 45
27 27 33 154 102 79 62 46
33 32 33 152 101 81 64 48
30 31 31 149 99 81 66 51
19 22 26 143 93 80 67 50
28 28 26 145 97 82 70 52
31 33 26 143 98 83 71 55
23 26 23 139 90 77 68 53
19 23 21 137 89 75 66 52
26 28 22 135 88 75 67 53
31 33 19 131 87 76 66 54
26 30 18 125 83 71 64 52
23 29 19 120 79 66 61 52
22 29 19 115 75 64 60 50
18 24 17 110 70 63 59 49
22 25 15 105 68 60 58 48
24 29 17 99 65 58 55 47
21 25 18 96 58 54 51 41
12 17 14 90 55 50 48 39
10 15 13 82 53 49 46 37
9 14 11 75 48 46 42 35
13 19 12 70 44 41 43 34
24 30 16 70 45 43 46 35
19 20 13 64 41 39 42 33
2 2 6 53 28 29 33 24
0 -1 8 49 26 28 31 24
-3 0 12 46 26 27 29 24
-7 -3 12 42 23 25 26 20
-8 -7 13 37 20 22 24 18
6 5 21 37 21 21 24 19
10 10 25 37 20 18 22 20
7 8 22 30 13 12 17 17
-4 -3 16 23 8 6 11 12
-6 -6 12 20 5 3 9 8
0 1 10 18 4 4 10 9
11 11 16 22 7 7 13 14
2 0 13 17 3 5 7 8
-4 -6 11 13 0 3 5 5
-6 -5 12 12 -1 2 5 5
-4 -2 13 11 1 3 8 6
3 2 11 9 -1 3 7 5
7 5 11 8 0 4 7 5
-2 -4 10 5 -3 0 3 1
-10 -11 6 1 -10 -6 -1 -3
-8 -9 6 -3 -13 -9 -3 -5
-10 -12 9 -1 -11 -8 -2 -5
-12 -12 10 -1 -11 -7 -2 -4
-11 -10 12 -1 -11 -7 -4 -4
-8 -5 13 0 -11 -7 -3 -5
-2 1 16 3 -7 -4 0 -2
-10 -11 12 0 -10 -7 -3 -7
-21 -22 10 -5 -15 -13 -9 -10
-2 -3 13 -1 -11 -9 -5 -6
6 4 14 1 -9 -6 0 -1
-13 -13 9 -3 -17 -14 -8 -8
-10 -9 10 -2 -16 -13 -7 -5
-5 -5 12 -1 -14 -9 -5 -3
-3 -4 10 -2 -16 -9 -4 -3
-6 -9 9 -3 -17 -10 -6 -4
-9 -10 8 -4 -17 -10 -5 -6
-9 -10 6 -5 -17 -11 -6 -8
-14 -15 4 -6 -20 -14 -8 -11
-16 -17 3 -7 -21 -17 -11 -13
-13 -13 2 -7 -20 -15 -9 -14
-9 -9 3 -7 -18 -13 -7 -10
-13 -11 2 -9 -20 -14 -7 -11
-12 -11 3 -9 -19 -15 -7 -10
-11 -11 4 -10 -20 -14 -9 -12
-10 -10 8 -9 -18 -15 -11 -16
-10 -9 13 -6 -18 -15 -11 -14
-19 -18 10 -7 -20 -20 -17 -18
-10 -7 10 -4 -17 -17 -13 -15
0 -2 9 -3 -14 -16 -10 -12
-6 -9 3 -8 -18 -17 -12 -12
-13 -13 4 -8 -17 -16 -10 -11
-10 -12 7 -8 -18 -17 -8 -10
1 -1 14 -6 -16 -13 -5 -6
2 -1 14 -4 -14 -9 -2 -4
-5 -8 12 -6 -17 -14 -6 -9
-10 -13 13 -5 -17 -14 -6 -9
-13 -16 12 -3 -14 -12 -6 -10
-15 -18 9 -8 -17 -14 -8 -12
-15 -18 10 -7 -15 -13 -6 -11
-9 -11 15 -4 -14 -12 -6 -9
-10 -11 13 -3 -13 -14 -8 -11
-9 -11 12 -2 -14 -15 -9 -11
-10 -11 9 -4 -16 -17 -12 -15
-7 -9 6 -3 -16 -15 -11 -15
-11 -14 6 -2 -15 -15 -12 -15
-13 -15 8 -1 -14 -14 -11 -15
-3 -4 11 3 -8 -7 -7 -9
4 1 12 5 -7 -5 -3 -6
4 0 12 5 -7 -6 -1 -5
-6 -13 7 2 -10 -9 -3 -6
-12 -20 5 0 -13 -11 -6 -9
-3 -7 6 3 -11 -8 -3 -5
4 2 8 9 -5 -2 1 0
-5 -7 6 3 -9 -6 -3 -4
-9 -13 5 1 -11 -9 -6 -7
-8 -10 9 3 -9 -5 -3 -5
-2 -1 14 7 -3 0 0 -2
-3 -5 13 4 -6 -2 -3 -5
-4 -10 7 1 -10 -8 -7 -9
1 -6 9 3 -8 -5 -5 -8
-5 -11 10 1 -10 -7 -7 -7
-12 -15 10 1 -11 -7 -7 -8
-13 -15 12 1 -10 -7 -6 -8
-6 -5 14 6 -7 -4 -3 -4
7 8 16 10 -2 0 1 2
-2 -1 9 7 -5 -3 0 0
-10 -8 9 3 -8 -7 -4 -4
-6 -4 11 3 -7 -6 -3 -4
-10 -8 8 1 -8 -6 -5 -7
-10 -7 7 3 -6 -3 -5 -7
-6 -4 8 3 -7 -2 -5 -7
-6 -4 5 1 -10 -5 -9 -8
1 4 9 5 -7 -4 -9 -6
2 4 10 6 -7 -5 -9 -6
-4 -3 11 6 -8 -7 -8 -7
-9 -8 10 5 -7 -6 -9 -7
-13 -15 11 5 -6 -5 -8 -8
-12 -14 10 3 -10 -6 -8 -9
-3 -4 14 4 -6 -1 -3 -3
-5 -3 15 5 -6 -1 -2 -3
-5 -3 15 5 -7 -4 -4 -3
-7 -8 10 2 -11 -7 -7 -5
-11 -13 6 -2 -14 -12 -11 -9
1 -2 14 4 -9 -6 -7 -6
4 2 14 5 -8 -6 -6 -5
-8 -7 12 2 -9 -8 -7 -7
-7 -7 12 0 -9 -8 -7 -8
0 -1 12 1 -8 -7 -5 -7
5 3 10 2 -8 -7 -4 -6
2 -2 5 0 -11 -9 -8 -8
-11 -15 3 -3 -14 -11 -11 -12
-9 -13 6 -1 -12 -8 -8 -10
0 -3 9 2 -10 -5 -6 -8
-3 -7 6 0 -11 -6 -7 -9
-5 -11 5 0 -11 -6 -5 -8
-18 -22 2 -3 -15 -10 -8 -13
-12 -17 5 -2 -15 -9 -8 -11
-5 -10 6 -1 -14 -7 -5 -8
3 -4 11 3 -10 -3 -2 -6
5 1 15 4 -9 -1 -1 -3
1 -4 11 1 -14 -5 -4 -6
-8 -12 5 -1 -16 -7 -8 -10
-4 -7 3 1 -15 -8 -8 -10
3 -1 0 0 -16 -8 -7 -8
-2 -4 1 0 -16 -9 -9 -8
-10 -12 0 -3 -18 -14 -11 -12
-6 -9 3 0 -14 -12 -9 -10
2 -3 5 -1 -14 -12 -8 -9
-4 -9 4 -1 -14 -11 -9 -11
-4 -9 3 0 -14 -10 -9 -9
-9 -14 2 -1 -18 -12 -10 -12
-12 -19 -2 -5 -20 -15 -13 -14
-6 -12 4 0 -16 -13 -12 -12
-2 -7 7 2 -13 -10 -10 -12
-7 -13 6 -1 -17 -13 -16 -15
-11 -19 4 -3 -19 -16 -17 -17
-8 -12 7 -1 -17 -15 -15 -15
-6 -7 7 -2 -18 -15 -16 -17
-1 -4 9 -1 -17 -14 -15 -16
-2 -7 9 -2 -17 -14 -15 -16
-3 -5 8 0 -17 -13 -13 -14
8 4 8 2 -14 -11 -9 -11
-1 -5 7 2 -15 -10 -10 -11
-6 -10 4 0 -16 -11 -10 -12
-5 -11 3 -1 -17 -11 -11 -13
-10 -17 0 -6 -20 -14 -15 -18
-9 -12 3 -5 -20 -16 -16 -18
-4 -7 6 -1 -17 -12 -15 -16
-4 -10 6 -3 -17 -14 -16 -17
-14 -18 0 -6 -21 -18 -19 -19
-10 -14 0 -6 -22 -18 -19 -19
-4 -10 3 -3 -19 -17 -17 -16
-5 -11 4 -3 -18 -16 -16 -16
-3 -10 3 -4 -19 -16 -18 -16
5 -4 5 -3 -19 -16 -17 -15
7 -1 8 -2 -17 -14 -15 -13
2 -3 6 -4 -18 -15 -17 -16
-7 -14 2 -7 -22 -20 -20 -19
-16 -24 -1 -11 -24 -22 -22 -22
-8 -15 -2 -11 -24 -21 -22 -21
-5 -10 -5 -8 -21 -19 -20 -20
1 -5 -4 -6 -20 -17 -18 -17
10 1 -1 -4 -17 -13 -18 -14
4 -4 -1 -4 -17 -14 -19 -16
-2 -9 -1 -5 -18 -15 -20 -16
-1 -10 -2 -5 -19 -15 -20 -17
-2 -7 0 -5 -18 -13 -22 -18
-3 -7 2 -3 -17 -13 -21 -18
5 0 2 -4 -16 -11 -21 -20
-4 -7 1 -6 -18 -14 -25 -25
-9 -12 -2 -5 -18 -15 -27 -27
-9 -11 -1 -5 -17 -14 -26 -26
-2 -2 1 -5 -15 -16 -25 -25
7 9 9 1 -8 -10 -19 -18
3 9 13 3 -6 -7 -16 -14
1 10 16 5 -4 -5 -13 -9
-5 5 15 3 -6 -7 -13 -10
-4 5 18 6 -4 -4 -12 -7
-4 6 14 5 -3 -4 -12 -8
1 9 15 5 -4 -4 -14 -9
7 11 15 6 -4 -5 -13 -11
-10 -4 7 2 -9 -10 -18 -15
-8 -1 7 3 -7 -10 -16 -14
8 14 11 11 1 -2 -8 -7
10 15 8 12 2 1 -6 -5
6 13 4 10 0 1 -5 -7
14 18 -1 9 0 1 -4 -6
13 14 -8 4 -4 -2 -7 -9
7 7 -13 0 -6 -3 -10 -11
4 7 -13 1 -5 -2 -8 -10
1 4 -9 3 -4 -1 -8 -11
6 7 -5 4 -3 -1 -9 -12
15 15 -5 7 1 3 -8 -10
19 21 0 11 4 4 -6 -8
17 19 4 11 3 3 -5 -7
13 12 2 7 -2 -2 -9 -9
12 9 -2 2 -7 -5 -11 -12
5 1 -7 -1 -12 -9 -15 -15
-9 -14 -14 -8 -17 -16 -20 -19
0 -6 -12 -4 -13 -12 -16 -14
8 -1 -11 -4 -12 -11 -14 -14
11 4 -12 -4 -11 -11 -14 -12
17 12 -13 -5 -13 -11 -13 -14
6 1 -16 -8 -15 -12 -16 -17
-3 -7 -19 -10 -17 -14 -17 -19
-7 -11 -18 -10 -17 -17 -20 -23
-7 -12 -17 -11 -19 -18 -23 -26
-6 -10 -13 -9 -18 -16 -22 -23
0 -4 -10 -9 -17 -17 -22 -22
2 -1 -10 -9 -17 -17 -22 -23
3 -5 -9 -11 -19 -19 -24 -25
1 -6 -5 -10 -17 -18 -24 -23
7 2 1 -5 -13 -13 -19 -21
-6 -12 -4 -9 -19 -19 -24 -26
-17 -24 -10 -14 -23 -23 -29 -30
-14 -22 -14 -15 -21 -23 -29 -30
2 -9 -13 -13 -20 -21 -26 -28
14 4 -7 -10 -16 -16 -21 -22
-3 -14 -15 -18 -23 -24 -29 -30
-11 -22 -18 -20 -26 -27 -32 -31
0 -11 -17 -19 -24 -25 -29 -28
0 -8 -18 -19 -23 -25 -30 -28
-8 -18 -21 -22 -25 -28 -34 -32
-7 -18 -18 -22 -25 -27 -34 -33
1 -11 -15 -20 -24 -27 -33 -34
-4 -19 -17 -22 -26 -29 -36 -37
1 -13 -11 -18 -22 -24 -31 -33
-14 -23 -14 -20 -24 -25 -32 -34
-21 -31 -15 -25 -26 -28 -37 -37
-11 -21 -12 -22 -24 -26 -35 -35
-8 -17 -8 -20 -24 -26 -35 -34
-6 -15 -8 -20 -23 -26 -35 -34
-7 -15 -10 -20 -22 -25 -35 -34
-9 -17 -11 -19 -22 -26 -33 -32
-23 -33 -15 -24 -29 -30 -35 -34
-18 -26 -13 -20 -24 -27 -30 -31
-11 -21 -16 -19 -22 -25 -30 -29
-11 -22 -18 -20 -22 -25 -30 -30
-3 -13 -15 -17 -19 -21 -27 -27
3 -7 -12 -15 -18 -19 -25 -26
3 -7 -14 -16 -19 -19 -26 -29
-3 -14 -15 -21 -22 -22 -29 -31
-11 -20 -16 -22 -23 -23 -30 -32
-13 -23 -14 -20 -22 -22 -29 -32
-8 -19 -7 -14 -17 -21 -30 -34
-11 -20 1 -3 -12 -22 -36 -39
-16 -20 12 16 0 -19 -39 -44
-20 -22 23 37 17 -11 -40 -47
-14 -14 35 65 44 9 -30 -42
0 4 47 100 82 42 -11 -30
2 6 59 136 123 77 7 -19
4 13 67 165 163 114 29 -5
12 27 73 187 208 157 57 16
30 48 70 208 257 210 94 42
48 65 59 220 301 266 134 72
47 66 50 216 329 311 171 97
49 73 39 184 337 349 208 124
63 93 23 127 323 373 242 156
62 101 -6 52 281 366 258 176
64 106 -41 -41 201 316 253 184
59 102 -77 -140 92 218 214 171
44 87 -105 -242 -34 98 152 140
22 65 -130 -350 -171 -33 80 100
7 50 -162 -447 -302 -156 11 59
0 47 -198 -522 -400 -243 -41 28
-2 46 -229 -557 -441 -284 -76 5
-9 27 -262 -555 -444 -290 -91 -7
1 16 -293 -539 -432 -283 -98 -13
27 28 -310 -517 -414 -270 -93 -8
33 25 -320 -492 -394 -259 -93 -9
26 19 -316 -463 -374 -248 -93 -13
20 22 -295 -427 -347 -234 -90 -15
21 37 -270 -388 -315 -218 -87 -15
16 40 -250 -353 -287 -202 -85 -18
5 31 -225 -320 -263 -188 -85 -24
1 29 -195 -283 -233 -170 -83 -27
-2 24 -168 -243 -202 -152 -81 -34
-9 13 -141 -207 -174 -134 -79 -39
-10 12 -115 -168 -143 -112 -70 -40
-2 14 -89 -131 -110 -88 -59 -35
0 7 -66 -98 -82 -67 -48 -32
0 -1 -48 -72 -62 -51 -39 -29
-1 -8 -35 -52 -45 -39 -33 -27
5 -5 -29 -41 -35 -32 -29 -26
2 -4 -23 -31 -28 -26 -26 -23
-3 -11 -19 -25 -23 -25 -27 -24
-1 -9 -14 -18 -20 -22 -26 -24
-1 -8 -10 -11 -15 -20 -25 -25
3 -3 -6 -4 -10 -16 -23 -23
9 1 -4 0 -5 -12 -20 -23
9 2 -4 4 -1 -8 -20 -23
2 -5 -6 4 -2 -9 -21 -28
3 -4 -6 4 -3 -11 -23 -29
2 -7 -6 6 -1 -10 -24 -31
0 -8 -2 8 0 -10 -22 -32
3 -5 2 9 1 -10 -21 -29
1 -8 0 8 1 -11 -23 -31
3 -7 2 11 3 -8 -23 -31
1 -8 3 12 4 -8 -23 -31
3 -4 4 17 8 -4 -21 -28
6 -1 7 18 10 0 -18 -25
-8 -17 1 14 5 -6 -21 -27
-12 -24 -2 13 4 -9 -22 -28
-5 -19 1 17 7 -5 -19 -25
3 -11 3 19 9 -1 -14 -21
2 -14 1 18 7 -3 -14 -22
-1 -14 2 19 11 0 -13 -21
1 -7 7 25 16 6 -8 -18
0 -9 8 24 16 6 -8 -19
-4 -17 4 21 14 2 -15 -23
1 -10 6 22 17 5 -14 -23
-1 -11 5 22 15 4 -14 -22
-2 -12 7 19 13 -1 -18 -24
-2 -11 11 21 15 1 -17 -23
6 -2 17 23 16 4 -13 -21
8 -1 16 22 17 3 -12 -18
6 -3 12 24 21 7 -11 -17
4 -5 6 24 21 7 -11 -17
5 -4 9 26 22 9 -10 -16
4 -6 10 28 24 10 -9 -15
-2 -11 6 27 22 10 -11 -17
2 -8 8 30 24 12 -9 -16
4 -6 9 30 26 12 -9 -18
5 -3 9 31 27 13 -7 -17
7 -3 8 30 24 11 -9 -20
8 -2 11 34 26 12 -8 -20
6 1 13 36 30 15 -6 -19
-1 -6 10 37 30 15 -8 -20
3 -5 10 38 31 15 -9 -21
8 2 19 42 37 20 -5 -16
-3 -7 17 40 35 19 -7 -17
-8 -11 13 39 33 17 -8 -17
3 -4 15 42 38 21 -2 -10
3 -5 11 43 39 20 -2 -9
6 -2 9 46 38 22 -1 -10
10 3 13 51 41 24 2 -6
6 2 15 55 46 29 5 -5
-5 -7 11 54 43 26 0 -9
-2 -9 13 55 42 23 -3 -12
3 -5 14 60 48 27 -1 -12
11 5 17 65 53 33 2 -10
9 6 19 68 55 35 5 -9
6 2 17 70 55 35 6 -9
10 9 18 75 60 38 11 -5
17 13 18 78 61 41 12 -3
18 10 15 81 62 40 14 0
15 6 14 83 64 42 14 0
15 8 18 86 67 46 16 2
19 10 20 92 72 49 20 6
21 12 21 97 76 53 23 10
16 8 18 97 76 56 23 8
10 2 15 98 77 56 25 8
18 10 17 103 82 61 30 11
30 23 19 110 87 65 35 13
34 27 23 115 89 68 36 16
22 16 21 115 88 64 33 15
7 3 18 114 84 61 28 11
17 10 21 120 89 64 31 14
23 17 24 127 94 70 35 18
29 25 25 131 100 75 39 22
31 26 25 132 103 77 42 23
24 22 22 133 102 77 43 24
27 24 19 132 102 75 44 24
28 23 17 132 102 78 44 24
28 27 16 133 103 81 46 25
33 31 16 135 107 83 49 28
33 29 15 134 105 85 49 27
30 29 14 136 106 87 50 29
30 29 14 136 105 85 51 30
31 30 15 139 107 88 54 33
26 22 10 133 105 88 52 30
32 31 12 134 104 89 54 32
30 32 12 134 105 87 55 34
21 23 6 131 101 85 52 31
29 29 6 130 101 86 55 33
38 38 7 131 101 86 59 38
30 31 7 125 98 86 57 36
36 37 10 126 99 88 59 36
31 34 8 122 95 84 56 32
23 29 5 118 92 83 53 29
28 34 3 114 91 82 52 30
30 37 2 112 89 82 55 34
24 33 4 105 83 77 54 36
29 37 3 102 81 76 54 38
35 39 4 100 79 74 57 40
29 32 0 91 72 67 52 38
20 21 -3 83 68 63 48 34
23 23 -3 78 61 59 45 31
23 24 1 74 59 59 44 31
18 24 3 73 60 59 44 32
17 21 3 66 54 58 41 30
21 20 1 62 53 55 40 30
32 32 2 60 53 55 42 32
26 25 1 54 47 49 38 28
21 19 -2 46 40 43 33 24
15 14 -4 40 34 36 27 20
12 11 -2 35 30 33 22 17
10 9 -2 31 26 30 18 12
14 13 -2 28 25 28 18 10
15 15 -3 25 24 29 15 7
13 13 -3 20 20 26 13 5
6 5 -5 15 15 22 11 2
10 7 -4 12 13 20 10 1
8 6 -5 7 11 17 8 1
9 6 -5 4 9 15 5 1
5 2 -5 3 8 11 3 1
6 4 -3 4 10 13 3 2
13 10 1 3 8 12 2 1
5 0 0 -2 2 6 -2 -4
-6 -8 -2 -6 -1 3 -7 -7
-1 -3 1 -7 0 5 -7 -7
5 -2 2 -9 -1 4 -7 -8
0 -6 0 -11 -3 1 -9 -10
-6 -10 -2 -13 -7 -1 -11 -13
-7 -11 -6 -14 -8 -2 -13 -14
2 -5 -7 -12 -5 -2 -13 -14
4 -2 -4 -14 -5 -2 -14 -14
1 -2 0 -11 -3 -1 -13 -11
6 3 2 -12 -1 -2 -13 -10
14 9 2 -11 4 0 -13 -10
-3 -10 -6 -18 0 -5 -19 -16
-10 -16 -9 -21 -2 -9 -21 -16
0 -7 -4 -17 3 -5 -16 -12
0 -4 0 -17 6 -4 -14 -9
1 -2 3 -15 8 -3 -11 -6
-2 -7 1 -16 6 -7 -11 -6
-8 -13 -1 -18 5 -9 -11 -7
-5 -9 0 -16 6 -5 -9 -7
-4 -11 -1 -18 5 -6 -10 -8
-9 -13 0 -20 4 -7 -13 -11
-5 -8 -1 -20 5 -5 -13 -12
-3 -8 -3 -20 4 -6 -13 -11
-5 -11 -9 -23 3 -9 -16 -13
4 -3 -6 -19 6 -5 -12 -10
10 4 -5 -20 6 -5 -10 -9
7 2 -2 -19 6 -6 -10 -9
-6 -11 -5 -23 4 -8 -14 -11
-1 -7 -4 -23 4 -8 -13 -10
3 -1 -1 -22 5 -8 -12 -9
1 -3 0 -19 6 -8 -12 -8
0 -5 0 -19 6 -7 -12 -8
0 -5 1 -19 4 -10 -12 -8
4 0 3 -19 7 -9 -11 -7
-3 -8 1 -20 5 -10 -15 -11
-7 -14 -2 -24 2 -13 -19 -15
-2 -11 -2 -24 1 -14 -20 -16
-3 -11 0 -21 4 -12 -19 -16
-4 -10 1 -20 4 -11 -20 -18
-6 -10 4 -20 2 -12 -21 -18
-13 -16 4 -20 4 -11 -22 -17
-10 -11 4 -20 5 -9 -22 -18
3 3 5 -15 9 -6 -15 -12
-4 -7 2 -17 7 -9 -17 -12
-7 -17 -3 -20 2 -14 -21 -15
-4 -15 -5 -21 2 -15 -19 -14
1 -7 -3 -17 6 -12 -16 -11
-5 -11 -5 -16 6 -12 -17 -13
-5 -11 -3 -15 6 -11 -16 -12
2 -5 0 -12 8 -9 -13 -9
4 -3 3 -10 10 -7 -12 -9
6 -2 6 -8 10 -7 -12 -9
0 -6 6 -8 9 -7 -12 -9
-3 -10 5 -10 8 -8 -15 -12
0 -11 5 -12 6 -10 -18 -15
3 -7 7 -7 8 -8 -16 -13
0 -9 7 -8 7 -9 -16 -13
-6 -11 3 -9 6 -10 -19 -14
-2 -8 6 -8 7 -8 -18 -12
-11 -15 5 -11 6 -8 -19 -13
-7 -10 4 -12 8 -8 -17 -13
-3 -8 4 -12 8 -6 -16 -13
-4 -9 3 -12 7 -9 -16 -15
1 -1 5 -9 9 -8 -15 -11
1 -2 5 -11 7 -10 -16 -11
2 -2 5 -10 8 -9 -14 -9
-5 -9 4 -11 7 -9 -15 -10
-1 -4 6 -10 7 -8 -15 -10
5 0 6 -7 10 -5 -11 -8
8 2 6 -5 13 -3 -8 -5
-3 -8 4 -10 9 -8 -13 -9
-3 -8 3 -13 8 -9 -14 -9
-1 -4 6 -10 10 -7 -10 -7
-4 -7 4 -11 8 -9 -13 -10
-12 -14 2 -11 7 -10 -15 -11
-13 -14 2 -11 4 -11 -15 -11
-4 -8 2 -11 5 -11 -13 -10
0 -5 4 -10 5 -10 -14 -10
-10 -14 5 -11 6 -9 -13 -10
-12 -16 1 -13 4 -10 -14 -13
-7 -11 5 -9 9 -6 -11 -11
-3 -5 8 -6 13 -2 -7 -8
2 -1 7 -7 13 0 -5 -7
-3 -8 2 -11 9 -5 -8 -9
-7 -14 1 -14 6 -8 -10 -11
-6 -14 2 -15 4 -8 -11 -12
-3 -10 3 -14 4 -9 -12 -12
0 -8 5 -12 5 -7 -12 -10
10 2 11 -8 8 -3 -9 -7
0 -6 10 -10 6 -6 -12 -10
-6 -11 12 -12 5 -9 -14 -12
-9 -15 9 -16 1 -13 -19 -15
-3 -8 11 -13 3 -13 -17 -13
-2 -7 8 -16 0 -15 -18 -12
-8 -12 5 -17 0 -16 -18 -11
-4 -10 5 -17 -1 -16 -16 -11
-4 -12 6 -16 0 -15 -15 -10
0 -7 6 -14 2 -13 -15 -8
-9 -18 2 -17 -2 -16 -15 -11
-6 -17 2 -17 -4 -15 -14 -9
-7 -15 1 -18 -2 -13 -13 -9
-4 -11 1 -17 -2 -12 -11 -8
6 -4 4 -16 0 -10 -8 -7
6 -3 5 -16 0 -10 -9 -8
-2 -8 4 -16 -1 -11 -10 -9
-3 -12 1 -18 -3 -13 -11 -10
6 -4 3 -16 -2 -13 -10 -10
8 0 6 -13 0 -12 -10 -9
0 -5 7 -13 0 -14 -13 -11
1 -6 9 -12 -1 -14 -13 -11
-1 -7 9 -14 -2 -15 -14 -10
0 -7 6 -14 -3 -16 -14 -10
-8 -17 1 -19 -7 -17 -16 -12
-10 -19 3 -19 -7 -16 -14 -10
-7 -16 2 -19 -7 -16 -15 -10
-15 -24 -1 -19 -9 -19 -19 -14
-8 -19 0 -22 -11 -21 -21 -15
-5 -14 4 -20 -10 -19 -19 -14
-10 -17 9 -16 -7 -17 -17 -11
-9 -15 11 -14 -6 -17 -17 -10
-7 -14 10 -15 -6 -17 -17 -11
-1 -9 8 -15 -6 -17 -17 -11
-5 -14 4 -17 -9 -19 -18 -12
-13 -21 -2 -19 -12 -22 -19 -14
-10 -20 -6 -18 -11 -21 -19 -13
-8 -16 -6 -19 -13 -21 -20 -14
9 -2 3 -12 -6 -16 -13 -7
1 -10 2 -15 -9 -18 -16 -10
-10 -18 3 -16 -10 -19 -17 -11
-9 -18 5 -17 -10 -19 -18 -12
4 -8 7 -15 -8 -18 -15 -10
2 -9 5 -16 -9 -19 -18 -12
0 -10 7 -14 -9 -20 -18 -10
-11 -20 4 -17 -12 -23 -21 -12
-15 -23 4 -18 -13 -24 -22 -13
-9 -20 4 -19 -14 -25 -23 -14
-5 -18 7 -18 -13 -25 -22 -13
-6 -17 7 -17 -12 -24 -22 -14
-10 -19 5 -18 -13 -23 -22 -14
-14 -20 4 -20 -14 -22 -21 -15
-17 -25 4 -20 -14 -24 -21 -15
-12 -21 7 -17 -13 -21 -18 -13
3 -8 8 -15 -9 -17 -14 -8
10 -1 7 -14 -6 -16 -12 -8
2 -9 0 -18 -11 -21 -18 -14
-4 -14 2 -19 -12 -20 -18 -15
-6 -18 3 -17 -12 -20 -17 -13
0 -10 6 -15 -10 -17 -15 -9
-6 -15 6 -16 -10 -18 -15 -9
-8 -17 7 -17 -12 -19 -15 -8
-3 -13 10 -17 -10 -19 -12 -5
-1 -8 14 -14 -7 -16 -10 -2
-5 -9 15 -13 -6 -15 -10 -3
2 -1 19 -9 -3 -12 -7 2
1 3 20 -8 -1 -10 -6 4
-13 -6 20 -9 -5 -12 -10 -1
-9 -4 23 -6 -2 -10 -8 1
-6 0 22 -5 -2 -9 -8 1
-4 2 21 -6 -1 -11 -8 -1
-6 2 19 -6 0 -10 -7 -1
-3 3 15 -6 0 -10 -7 -2
0 6 17 -6 0 -10 -7 -1
-9 -4 17 -7 -2 -12 -8 -3
-5 -3 16 -6 -1 -9 -7 0
7 10 18 -4 5 -4 -3 5
13 15 17 -4 4 -3 -2 5
11 11 13 -6 1 -6 -2 4
2 1 7 -9 -2 -9 -5 2
0 -2 1 -13 -4 -11 -9 1
2 -2 1 -11 -4 -10 -8 1
-1 -4 3 -12 -3 -10 -9 -1
0 -2 6 -10 -1 -5 -6 0
8 4 9 -8 2 -2 1 4
5 1 8 -8 1 -3 0 5
3 -1 10 -9 1 -3 -1 5
-2 -4 10 -7 1 -4 0 6
1 -5 7 -12 -2 -6 -1 4
1 -6 3 -16 -7 -9 -6 1
4 -2 8 -15 -4 -8 -3 4
2 -5 8 -15 -7 -9 -7 2
-10 -18 4 -20 -13 -14 -12 -4
-2 -13 5 -18 -13 -14 -10 -2
-1 -8 8 -16 -10 -10 -5 2
4 -2 7 -16 -9 -9 -3 4
7 -3 6 -19 -12 -12 -6 2
-1 -12 3 -23 -17 -17 -10 -2
-6 -17 7 -24 -18 -19 -12 -3
-1 -11 13 -19 -15 -17 -10 -1
-2 -11 16 -17 -12 -15 -9 1
-8 -14 16 -17 -14 -17 -12 -1
-15 -22 18 -20 -17 -18 -14 -2
-21 -29 14 -25 -21 -20 -16 -5
-19 -27 12 -24 -19 -18 -15 -4
-17 -28 9 -24 -20 -19 -17 -5
-15 -28 6 -25 -21 -20 -18 -6
-8 -21 9 -25 -20 -19 -16 -4
-1 -16 10 -24 -18 -19 -16 -3
0 -17 8 -25 -20 -21 -19 -7
0 -19 7 -29 -23 -25 -21 -9
3 -17 8 -28 -22 -26 -21 -7
-2 -19 10 -28 -22 -26 -22 -8
-13 -30 9 -31 -23 -26 -24 -9
-11 -28 7 -32 -25 -28 -26 -9
-8 -29 7 -32 -26 -28 -26 -9
-11 -32 4 -35 -28 -29 -27 -11
-12 -28 7 -33 -27 -28 -25 -11
-15 -29 9 -32 -26 -29 -23 -12
-11 -28 10 -32 -26 -29 -23 -11
-16 -35 9 -34 -29 -34 -28 -15
-21 -41 10 -34 -28 -35 -30 -16
-12 -30 13 -31 -23 -30 -26 -12
-8 -26 13 -28 -22 -27 -24 -11
-8 -25 13 -27 -22 -26 -22 -9
-11 -27 10 -30 -24 -25 -23 -10
-13 -28 8 -31 -24 -24 -21 -10
-15 -31 7 -33 -28 -26 -21 -10
-14 -31 9 -33 -28 -26 -21 -11
-4 -21 14 -29 -22 -22 -17 -7
-3 -18 17 -27 -20 -22 -16 -6
-16 -33 15 -30 -23 -24 -20 -11
-24 -41 12 -33 -26 -28 -26 -17
-19 -35 15 -30 -25 -26 -24 -15
-12 -27 15 -27 -23 -22 -20 -12
-14 -27 14 -27 -23 -21 -18 -11
-19 -33 12 -27 -25 -26 -22 -13
-15 -31 15 -20 -22 -25 -23 -13
-13 -28 23 -7 -14 -24 -25 -15
-21 -34 34 10 -3 -23 -32 -24
-29 -38 45 30 14 -16 -33 -28
-16 -21 61 61 47 12 -17 -16
-4 -6 75 98 88 44 2 -4
2 3 85 138 132 83 25 10
12 20 96 172 178 126 51 28
16 30 103 192 222 171 80 48
19 35 95 205 266 222 116 71
26 41 83 209 302 275 155 99
44 64 76 210 334 326 199 131
58 85 62 176 341 364 236 162
56 93 43 114 318 377 261 186
51 95 15 37 268 360 271 203
47 91 -25 -60 179 295 255 204
40 86 -54 -155 70 195 213 188
24 66 -81 -261 -60 70 150 155
0 41 -108 -366 -200 -64 73 111
-4 37 -137 -453 -324 -182 8 72
-16 27 -176 -520 -415 -261 -43 42
-25 14 -215 -549 -450 -296 -76 20
-11 10 -250 -543 -446 -297 -87 12
8 11 -271 -522 -431 -286 -85 13
17 10 -289 -503 -417 -276 -84 12
17 4 -296 -478 -395 -267 -84 9
14 4 -286 -447 -372 -253 -82 9
5 6 -269 -414 -347 -239 -79 7
3 20 -245 -378 -315 -221 -74 7
11 36 -214 -340 -281 -199 -67 9
-1 30 -190 -305 -255 -181 -64 4
-8 21 -161 -269 -226 -164 -62 -2
-3 22 -134 -231 -196 -145 -60 -7
-2 20 -105 -192 -165 -124 -55 -11
-10 10 -82 -158 -139 -110 -52 -14
-8 4 -56 -122 -108 -90 -42 -11
-15 -11 -35 -94 -83 -72 -38 -11
-26 -32 -17 -68 -62 -59 -33 -12
-19 -30 -5 -46 -42 -43 -25 -7
-7 -21 -1 -33 -29 -32 -18 0
-12 -25 -2 -25 -26 -25 -15 0
-9 -21 0 -19 -20 -21 -12 1
5 -6 6 -10 -14 -18 -10 4
5 -6 14 -2 -8 -14 -9 1
-7 -16 13 0 -9 -18 -13 -4
-2 -11 17 5 -4 -15 -13 -4
5 -5 20 8 -1 -10 -11 -3
3 -9 19 10 -2 -11 -9 -3
0 -13 18 11 -1 -11 -9 -1
-10 -20 18 12 0 -11 -9 0
-14 -26 19 11 -3 -12 -8 -1
-16 -31 17 13 -3 -13 -7 -2
-21 -36 19 13 0 -10 -9 -3
-6 -20 25 20 5 -5 -3 0
-5 -18 27 23 7 -4 -3 1
-14 -24 25 22 8 -7 -6 -2
-20 -31 21 19 6 -5 -9 -4
-26 -38 20 16 2 -9 -10 -8
-4 -16 26 22 9 -3 -4 -1
5 -7 27 26 13 1 -4 1
-3 -15 26 26 8 -1 -5 1
-3 -17 27 29 8 -4 -4 2
-13 -27 25 27 8 -4 -9 -3
-5 -16 29 32 13 -1 -5 -1
-1 -9 33 37 17 4 1 4
-10 -19 31 35 17 2 -2 2
-11 -22 30 33 17 4 -2 1
-10 -21 30 33 16 2 0 2
-14 -24 30 31 17 3 0 2
-5 -18 30 34 21 6 3 3
-6 -20 31 32 17 4 1 2
-9 -23 28 32 15 0 0 1
1 -11 28 36 21 6 3 4
-6 -16 24 37 21 7 3 3
-8 -21 25 37 20 5 1 2
2 -11 30 43 26 8 4 5
5 -4 35 48 31 14 9 9
0 -8 33 48 28 11 9 8
0 -11 32 47 27 10 10 8
0 -10 32 46 28 13 10 7
-5 -13 34 50 28 15 12 9
-5 -14 35 52 29 14 11 7
0 -10 36 56 33 19 12 8
-1 -9 37 59 34 19 12 7
-9 -16 36 59 33 17 10 4
1 -6 40 65 41 19 14 8
8 -2 39 68 43 23 17 12
3 -6 35 66 41 22 17 12
-8 -18 32 64 39 20 14 12
0 -13 28 65 42 21 17 15
9 -3 29 70 44 27 21 18
-3 -12 26 71 44 24 18 17
-5 -16 28 73 45 25 17 14
-2 -11 31 77 47 26 16 14
-6 -13 33 79 49 28 16 14
-3 -12 35 83 53 30 17 15
0 -8 37 87 55 31 16 14
-5 -14 34 86 53 28 16 13
-7 -14 32 89 55 29 16 13
-1 -7 36 96 62 35 21 15
3 -3 38 98 60 34 21 14
2 -5 41 102 61 34 22 15
6 -2 38 110 69 43 26 19
17 8 40 117 76 50 34 25
19 11 43 124 79 53 37 29
7 -3 36 123 78 50 34 25
5 -4 32 123 77 51 34 25
10 1 35 127 80 54 37 28
8 -1 35 128 80 53 35 29
14 6 37 134 87 59 40 33
19 11 37 139 90 62 42 36
10 4 34 141 90 62 40 34
17 9 35 146 93 67 43 34
20 14 36 150 97 72 47 38
33 28 43 160 104 79 55 45
33 28 45 164 107 80 56 47
25 18 41 162 107 80 54 47
23 18 39 165 108 83 59 48
28 22 39 166 109 87 60 50
31 25 36 165 110 88 57 49
22 18 34 163 106 86 54 48
18 17 31 165 106 86 58 50
18 16 29 165 108 88 57 52
22 22 31 169 112 89 59 57
32 31 32 173 114 92 62 61
30 30 27 173 115 91 62 63
15 17 18 165 108 87 57 57
17 18 17 162 104 84 58 59
29 25 19 164 107 88 61 61
29 26 19 162 108 90 61 62
21 19 16 159 103 90 61 59
21 25 18 160 103 89 62 61
32 38 23 161 107 93 64 65
35 40 24 158 104 92 64 65
34 38 24 155 100 89 65 65
25 30 23 151 99 88 64 63
20 23 19 145 95 88 64 63
22 24 16 142 90 84 63 62
25 24 10 135 86 79 58 59
14 14 10 129 80 74 53 54
20 19 11 125 76 72 53 53
26 31 14 126 78 72 54 53
27 34 16 122 75 71 52 51
18 24 16 117 68 65 49 46
18 22 16 109 63 60 44 41
12 22 16 104 61 57 42 43
8 17 13 97 56 55 37 40
13 19 10 90 49 49 35 38
13 18 9 85 46 45 32 36
10 16 10 80 42 42 29 32
10 13 11 75 37 40 30 34
16 17 15 74 38 39 33 38
18 22 16 72 36 42 32 39
4 9 11 66 32 39 28 34
1 4 9 60 27 35 24 29
2 4 10 55 25 30 21 26
1 4 10 53 23 28 16 23
0 2 10 49 20 24 14 20
7 10 11 49 20 24 14 21
7 9 11 46 19 22 13 19
-2 1 7 40 13 21 10 17
2 2 6 40 14 21 10 18
4 3 7 39 13 21 10 18
3 1 10 36 8 16 7 15
-5 -4 9 33 3 12 4 12
-9 -8 11 32 5 9 4 10
-7 -7 11 29 2 7 0 6
-7 -9 10 26 -1 4 -5 3
-3 -2 9 26 -2 5 -6 3
2 -1 5 26 -2 5 -6 0
-6 -6 2 22 -8 2 -9 -2
-8 -6 3 22 -9 -2 -9 -1
-15 -10 3 22 -10 -2 -10 0
