I II V1 V2 V3 V4 V5 V6
-7 -17 -2 -18 -25 -21 -18 -13
-7 -18 -2 -18 -25 -20 -18 -12
-7 -19 -2 -18 -25 -20 -18 -12
-7 -20 -2 -18 -26 -20 -18 -13
-7 -22 0 -16 -25 -19 -17 -12
-7 -24 0 -16 -25 -20 -17 -12
-6 -25 0 -16 -25 -20 -17 -13
-6 -27 1 -15 -24 -19 -16 -12
-7 -28 2 -14 -23 -18 -15 -12
-7 -30 2 -14 -23 -18 -15 -12
-7 -31 3 -14 -22 -17 -14 -11
-8 -31 3 -14 -23 -17 -14 -13
-9 -31 4 -14 -23 -18 -15 -13
-10 -30 8 -11 -24 -19 -16 -13
-11 -30 14 -6 -24 -20 -17 -12
-12 -31 18 0 -25 -22 -20 -13
-12 -33 24 8 -24 -24 -21 -13
-11 -36 31 18 -22 -25 -22 -13
-11 -38 38 30 -17 -21 -20 -11
-9 -39 48 48 -5 -12 -11 -5
-5 -38 58 69 11 3 3 4
1 -35 68 91 32 24 21 18
7 -28 74 109 58 52 46 37
16 -18 80 132 91 87 77 61
28 -4 86 159 136 132 117 90
39 16 82 175 184 183 162 123
49 37 67 158 221 228 202 155
56 57 45 125 242 265 236 183
60 78 20 91 263 302 270 211
61 102 -11 53 289 343 306 239
62 118 -47 10 313 378 338 264
65 116 -77 -23 324 393 352 272
67 94 -101 -36 318 380 341 259
66 63 -114 -36 292 340 305 228
59 34 -116 -33 251 279 250 185
48 9 -107 -30 202 205 179 133
35 -13 -91 -30 152 132 109 82
26 -23 -78 -35 100 71 56 48
18 -26 -71 -46 54 33 29 33
12 -23 -66 -56 18 14 20 30
9 -20 -56 -54 -4 7 17 30
7 -20 -44 -47 -17 0 13 28
6 -24 -32 -37 -22 -3 11 27
6 -28 -25 -28 -17 1 11 24
5 -32 -18 -20 -9 4 12 23
2 -34 -12 -14 -6 5 12 22
-2 -36 -5 -10 -5 5 12 21
-3 -38 1 -5 -4 5 11 19
-3 -43 5 1 -2 5 10 17
-3 -47 9 5 -2 4 9 16
-3 -48 11 7 -4 3 7 14
-4 -49 10 6 -6 0 5 12
-4 -50 11 6 -7 -2 3 11
-4 -51 12 5 -8 -3 2 10
-5 -51 12 4 -9 -4 2 9
-6 -51 13 5 -9 -4 2 9
-6 -52 13 5 -10 -5 1 8
-5 -53 14 5 -11 -6 1 7
-5 -53 15 6 -11 -7 1 7
-5 -53 16 7 -12 -7 1 7
-5 -53 16 8 -12 -7 0 7
-6 -52 16 8 -12 -8 0 6
-7 -53 17 8 -12 -7 1 6
-7 -54 17 8 -12 -7 1 5
-7 -54 17 8 -12 -6 1 5
-7 -54 18 9 -11 -6 2 5
-6 -54 18 9 -11 -6 1 6
-6 -55 19 10 -11 -6 1 6
-6 -55 20 10 -11 -6 1 5
-6 -55 20 10 -11 -7 2 4
-6 -55 20 11 -12 -7 2 4
-6 -55 19 11 -12 -6 2 3
-6 -55 18 11 -12 -6 2 3
-7 -55 19 10 -12 -6 2 3
-7 -55 20 10 -11 -5 2 3
-6 -54 20 11 -10 -5 3 3
-6 -55 21 11 -10 -5 3 3
-6 -55 21 12 -9 -5 3 3
-5 -55 21 13 -10 -6 3 2
-5 -56 20 13 -10 -8 3 2
-5 -55 21 12 -11 -8 3 2
-5 -55 21 13 -11 -7 3 2
-6 -54 21 13 -10 -7 3 2
-5 -54 20 13 -10 -7 3 1
-5 -53 20 13 -8 -5 3 2
-4 -53 21 13 -8 -5 4 2
-4 -53 21 14 -8 -5 4 1
-4 -52 20 14 -9 -5 4 0
-4 -52 21 15 -9 -6 3 0
-3 -52 21 15 -9 -6 3 0
-3 -52 21 16 -8 -6 3 0
-3 -52 20 16 -8 -5 4 0
-4 -51 20 16 -9 -5 4 -2
-5 -51 20 16 -8 -5 5 -2
-5 -51 20 16 -7 -4 6 0
-5 -51 20 17 -7 -4 6 1
-5 -51 20 17 -6 -3 6 1
-4 -50 21 18 -5 -3 7 1
-4 -50 21 19 -5 -3 7 0
-4 -51 22 20 -5 -3 7 0
-3 -50 20 19 -5 -3 7 -2
-3 -49 20 20 -4 -2 8 -2
-3 -49 20 20 -4 -2 8 -2
-2 -49 20 20 -4 -2 9 -2
-2 -48 19 19 -4 -2 8 -2
-2 -48 19 20 -2 -2 9 0
0 -47 20 21 0 1 10 0
1 -45 20 22 0 1 10 0
1 -45 20 23 1 1 10 0
1 -45 21 24 1 0 11 -2
0 -44 21 24 1 1 11 -3
0 -43 20 24 1 1 11 -3
0 -41 19 24 2 2 11 -3
0 -40 19 24 3 3 12 -3
0 -39 19 24 3 4 12 -3
0 -38 20 26 4 4 13 -2
0 -38 20 27 5 5 14 -2
1 -38 20 27 6 6 15 -2
1 -37 19 29 5 6 15 -3
1 -37 20 31 6 6 15 -3
1 -36 21 32 8 8 16 -2
1 -35 21 33 10 10 17 -2
2 -33 20 34 12 11 17 -2
3 -32 19 33 12 12 18 -2
3 -31 19 34 14 13 19 0
2 -30 19 36 15 15 21 1
3 -29 19 37 16 15 21 1
4 -28 20 40 18 17 23 2
4 -28 20 43 20 18 24 3
5 -27 19 43 20 19 24 2
5 -26 20 45 22 20 26 3
6 -25 19 45 23 21 27 3
6 -23 19 47 25 23 29 4
7 -22 19 48 28 26 30 5
8 -21 19 49 30 28 32 6
9 -20 19 51 33 30 34 8
9 -19 18 52 35 31 36 9
10 -18 19 54 37 34 38 12
9 -17 19 56 39 36 40 14
9 -17 19 58 42 38 43 17
10 -16 19 59 44 39 44 19
11 -15 18 60 46 42 46 22
12 -13 17 61 49 45 48 24
12 -11 17 62 52 48 51 26
13 -10 16 62 54 50 52 27
13 -8 16 63 56 52 54 28
14 -6 15 64 57 53 56 29
14 -4 15 65 60 57 59 31
16 -3 14 66 61 58 60 32
18 -3 14 66 61 59 61 32
19 -2 13 66 62 60 62 32
19 0 12 66 64 61 63 33
18 1 12 66 66 63 65 34
19 2 10 65 66 65 67 34
19 4 10 65 68 67 69 36
19 5 9 64 68 67 70 36
19 5 9 65 69 67 71 37
20 6 9 65 70 68 72 38
21 6 8 65 69 68 72 37
21 7 9 65 70 69 73 38
20 7 8 64 70 69 73 37
19 8 7 63 71 69 74 37
20 8 7 63 71 69 74 38
21 9 6 62 71 70 74 38
22 10 6 60 71 70 75 38
21 10 5 59 71 70 75 38
21 10 5 59 71 70 76 38
22 10 6 59 71 70 76 38
23 11 5 57 69 68 75 37
23 11 6 56 68 67 73 35
22 11 5 54 65 65 71 33
20 10 5 52 64 63 69 32
18 9 5 50 61 61 67 30
17 7 6 48 59 59 65 28
15 6 6 46 56 57 63 27
14 4 7 44 53 54 62 26
14 3 8 42 50 52 60 25
14 2 8 38 46 48 56 22
14 0 9 37 43 45 54 20
12 -2 9 35 39 40 50 17
11 -4 9 33 36 38 47 14
10 -6 10 30 32 35 45 12
10 -7 9 27 28 31 40 8
8 -10 11 26 26 28 39 7
7 -13 11 24 24 26 36 6
6 -16 12 22 22 24 34 5
5 -17 12 21 19 22 32 3
6 -19 12 20 16 19 30 1
5 -20 13 19 14 17 28 0
4 -22 13 19 12 15 26 -3
3 -23 13 17 10 13 24 -5
3 -25 12 15 7 11 22 -8
3 -26 13 14 6 10 22 -8
2 -27 13 12 5 9 20 -9
2 -28 12 11 3 7 19 -10
2 -30 13 11 2 6 19 -10
2 -32 12 9 1 6 18 -10
2 -33 13 9 1 6 18 -10
2 -35 13 9 0 5 17 -11
1 -36 14 10 -2 5 17 -12
1 -37 13 9 -3 4 16 -13
1 -39 14 9 -2 4 16 -13
1 -40 13 8 -3 3 15 -13
1 -40 13 8 -3 4 15 -13
1 -39 13 8 -3 4 16 -13
1 -40 14 8 -3 4 16 -13
1 -41 15 8 -2 5 17 -12
0 -43 15 8 -2 4 17 -13
0 -44 16 10 0 5 17 -13
1 -45 16 10 0 4 16 -14
2 -46 15 10 -2 4 16 -15
2 -46 15 9 -2 4 16 -15
2 -47 15 9 -2 4 16 -15
2 -47 15 9 0 4 17 -15
1 -47 15 8 -2 4 17 -15
1 -48 16 9 0 5 18 -14
1 -49 16 10 0 5 18 -13
2 -49 17 11 0 6 18 -13
2 -49 18 12 0 6 19 -14
2 -50 17 12 0 6 19 -15
2 -51 17 12 0 6 19 -14
2 -51 17 12 0 6 19 -13
2 -52 18 12 1 7 19 -11
2 -52 18 11 1 7 18 -10
1 -53 18 12 1 7 19 -8
1 -54 19 14 1 8 20 -6
1 -55 19 13 1 8 21 -5
1 -55 19 13 1 8 21 -3
1 -55 19 13 1 8 20 -2
1 -56 19 13 2 8 20 0
1 -57 20 14 3 9 20 1
1 -58 20 15 3 8 20 2
1 -58 20 15 4 9 20 4
2 -58 21 15 5 10 21 5
2 -58 21 15 5 9 22 7
1 -59 21 15 4 8 21 8
0 -59 21 16 5 10 22 10
0 -59 21 17 5 11 23 11
0 -60 22 17 5 10 22 12
0 -60 22 18 4 9 22 14
0 -60 22 18 5 11 22 15
0 -60 22 18 5 12 22 17
1 -61 21 17 5 12 22 18
1 -61 21 17 5 12 23 20
1 -61 21 18 6 12 24 21
0 -61 22 19 6 13 24 22
0 -61 22 18 6 13 23 23
-2 -62 23 19 7 14 24 25
0 -62 23 20 7 14 24 26
0 -62 24 21 7 13 24 27
0 -61 22 19 6 12 24 28
0 -61 22 19 6 12 24 30
1 -60 23 20 7 12 25 31
1 -60 23 20 8 13 25 32
1 -60 23 19 8 13 25 34
0 -60 23 19 8 13 25 36
1 -60 23 20 8 14 25 38
2 -59 22 20 7 13 25 38
2 -58 22 20 7 13 26 39
2 -58 22 19 7 12 26 40
1 -57 22 19 6 12 25 40
0 -57 22 19 6 12 24 42
-2 -56 23 18 7 13 25 44
0 -56 23 18 8 13 25 46
1 -55 22 17 7 13 25 47
1 -56 21 17 7 12 25 47
-2 -56 22 18 8 13 26 49
-2 -56 22 19 8 13 26 51
0 -55 21 18 7 12 24 51
1 -55 22 18 7 12 24 52
1 -54 21 18 7 13 24 53
2 -54 20 17 6 11 23 54
2 -53 20 16 5 11 24 55
2 -53 20 16 5 11 24 56
1 -53 20 16 5 11 24 58
1 -53 20 16 5 12 24 59
2 -52 20 16 5 12 24 60
1 -52 19 16 5 11 23 61
1 -51 19 16 6 11 23 63
2 -50 19 16 5 10 23 62
4 -49 18 14 4 10 22 61
4 -47 17 13 3 9 20 60
3 -45 16 12 3 9 20 60
2 -43 16 12 3 10 20 59
1 -39 15 10 1 8 18 58
0 -38 14 9 -2 7 18 57
-2 -36 14 9 -2 6 17 56
-2 -32 12 7 -4 4 15 53
-2 -29 11 6 -6 4 13 52
-2 -28 11 6 -6 3 12 51
-2 -26 10 5 -7 2 10 49
0 -24 10 5 -7 2 10 49
1 -22 9 3 -8 1 9 49
2 -20 8 1 -9 0 8 48
1 -19 7 0 -9 -2 7 47
1 -19 7 0 -10 -2 7 46
1 -18 7 0 -10 -2 6 46
1 -17 7 -2 -11 -4 5 44
1 -16 7 0 -11 -5 5 44
1 -15 7 1 -11 -5 5 44
0 -15 6 0 -11 -5 4 44
0 -16 6 -2 -11 -5 3 43
0 -16 6 -3 -11 -5 3 43
1 -16 6 -3 -11 -4 2 43
1 -16 6 -3 -12 -4 2 43
1 -16 5 -3 -12 -4 2 42
2 -17 6 -3 -12 -4 2 42
2 -17 6 -3 -13 -5 2 42
1 -18 7 -3 -12 -5 3 43
1 -18 6 -3 -13 -5 2 42
1 -19 6 -3 -13 -5 1 40
2 -19 7 -3 -13 -5 1 40
2 -20 6 -4 -13 -6 1 40
2 -22 7 -4 -12 -5 2 40
3 -24 7 -4 -12 -4 2 40
3 -25 7 -3 -11 -4 3 42
3 -27 8 0 -11 -3 4 43
2 -29 8 0 -11 -4 4 43
2 -31 9 0 -11 -3 4 43
2 -33 10 1 -11 -3 5 43
1 -35 11 1 -10 -2 5 43
2 -37 11 1 -9 -2 5 43
2 -38 11 1 -8 0 5 43
2 -40 12 2 -6 2 5 44
2 -43 13 3 -6 3 6 45
2 -45 12 3 -6 2 7 44
2 -47 13 3 -6 3 8 45
1 -49 15 4 -5 4 9 46
0 -50 16 5 -4 5 9 46
2 -50 15 4 -5 3 8 45
4 -50 14 3 -6 2 7 44
4 -51 15 5 -5 3 8 45
4 -52 15 4 -5 4 8 45
3 -53 16 5 -4 5 8 46
4 -54 16 5 -4 5 9 46
4 -56 16 5 -3 5 10 46
3 -57 17 5 -3 6 11 47
2 -58 18 6 -3 6 11 47
2 -59 18 6 -3 6 11 47
1 -60 19 7 -2 6 12 47
0 -61 19 7 -2 6 11 46
2 -62 18 7 -2 6 10 46
3 -63 18 7 -2 7 10 46
3 -63 18 7 -2 7 11 46
3 -64 19 7 0 7 11 46
3 -65 20 8 2 8 13 47
3 -66 20 9 2 9 13 47
3 -67 20 9 1 8 12 47
3 -67 19 9 0 7 12 46
3 -68 21 10 1 9 13 47
4 -68 21 10 1 8 12 46
4 -69 22 10 2 9 13 47
3 -72 22 10 3 9 13 47
2 -73 23 11 4 10 14 48
1 -73 23 11 4 10 16 48
1 -74 23 11 4 11 16 47
2 -74 23 11 4 11 15 47
3 -75 23 12 4 11 15 47
3 -75 23 12 4 11 14 47
3 -75 23 12 4 11 14 47
3 -75 23 12 4 11 14 47
3 -75 23 12 3 11 14 46
3 -76 23 11 3 11 14 46
3 -76 23 10 3 11 14 46
3 -76 23 10 3 11 14 45
3 -76 23 10 4 11 14 45
3 -77 24 10 4 12 15 46
2 -78 24 10 4 11 15 45
3 -79 24 10 3 11 15 45
3 -78 24 11 3 11 14 45
3 -78 24 11 4 11 14 44
3 -77 24 11 4 11 14 44
3 -77 24 11 4 11 13 44
3 -77 24 11 4 11 13 44
3 -77 23 11 4 12 14 44
3 -78 23 10 3 12 14 44
3 -78 23 10 3 12 15 44
4 -77 22 10 2 11 14 43
3 -77 24 11 3 12 14 43
3 -77 24 11 3 12 14 43
4 -77 22 10 2 11 13 40
4 -77 22 10 2 11 13 40
5 -77 23 10 2 11 13 40
4 -77 23 11 2 12 13 40
4 -77 23 11 2 12 12 39
4 -77 22 11 2 11 12 38
4 -77 22 11 1 11 11 38
3 -77 23 12 2 12 12 39
3 -77 24 12 2 12 12 38
3 -77 24 12 2 12 13 38
4 -76 23 12 1 11 12 37
4 -76 23 11 1 10 11 36
3 -76 23 10 1 10 10 36
2 -75 23 10 1 10 11 36
3 -74 23 10 1 11 12 36
4 -75 24 11 2 11 12 36
4 -76 23 11 2 12 11 36
3 -76 23 11 2 11 11 36
2 -76 23 11 2 12 11 36
3 -75 23 11 1 11 10 35
3 -75 23 11 1 11 10 35
2 -75 23 11 2 10 10 34
3 -74 23 10 2 10 11 34
3 -74 23 10 2 10 11 33
2 -74 23 10 2 10 11 34
2 -74 22 11 3 11 11 34
3 -73 21 9 1 9 10 33
3 -72 21 8 0 8 9 32
3 -72 22 8 0 8 9 31
3 -72 22 9 0 9 8 31
3 -70 21 8 -2 8 7 30
3 -69 21 9 0 8 7 31
3 -70 21 8 0 8 7 30
2 -70 22 9 1 10 8 31
3 -69 21 8 0 10 8 30
4 -68 21 8 -2 10 8 30
4 -66 22 10 0 11 9 31
3 -64 22 10 1 11 10 31
3 -61 23 11 2 11 11 31
4 -59 25 12 3 12 11 32
4 -57 26 14 4 14 13 34
5 -55 25 14 5 14 13 34
6 -53 24 14 4 15 13 33
6 -52 23 12 4 14 12 32
5 -51 24 11 5 14 12 32
5 -49 25 12 6 15 13 33
7 -47 26 14 6 15 12 32
7 -44 28 16 7 15 12 32
6 -43 30 17 8 16 13 32
5 -43 32 19 8 18 14 33
6 -41 31 19 8 18 14 32
7 -40 28 16 7 17 13 31
6 -38 25 14 7 17 13 31
6 -36 21 12 7 18 13 32
8 -34 21 13 9 19 15 33
10 -32 21 15 11 21 17 34
12 -30 21 17 12 22 18 35
12 -29 22 18 13 23 19 36
12 -28 21 18 13 23 19 36
13 -27 20 18 14 24 20 36
14 -26 19 18 14 24 20 37
15 -25 18 18 14 24 20 35
16 -25 18 17 13 23 20 34
17 -26 15 14 11 21 18 32
16 -28 12 12 9 19 17 31
14 -29 11 10 8 17 16 30
13 -31 11 8 6 16 14 28
13 -31 9 5 3 14 12 26
12 -32 7 4 1 13 11 25
12 -34 7 4 -2 12 9 23
11 -36 9 5 0 11 9 22
9 -37 10 5 -2 10 8 21
8 -37 10 3 -5 8 5 18
7 -36 10 0 -8 5 2 15
5 -35 10 -2 -9 4 2 15
4 -35 11 -2 -8 5 2 15
3 -35 11 -3 -9 3 1 13
2 -36 11 -4 -9 2 -2 12
1 -37 9 -6 -12 -2 -4 9
1 -38 10 -5 -13 -3 -5 8
1 -37 9 -7 -14 -4 -6 6
1 -36 8 -8 -15 -5 -7 5
1 -37 7 -10 -17 -6 -9 3
2 -37 7 -11 -18 -7 -11 1
2 -36 7 -10 -18 -7 -10 2
1 -35 7 -10 -17 -7 -9 2
1 -35 7 -9 -17 -7 -9 2
1 -34 6 -10 -18 -8 -11 1
3 -33 5 -11 -19 -9 -12 0
3 -31 5 -10 -19 -9 -12 0
3 -30 4 -11 -21 -10 -13 -3
2 -30 5 -11 -20 -9 -13 -3
0 -30 6 -11 -20 -10 -14 -5
-2 -29 5 -12 -20 -10 -14 -5
-2 -29 5 -13 -21 -11 -15 -6
-2 -29 5 -13 -22 -12 -15 -6
-2 -27 5 -12 -22 -12 -15 -6
-3 -25 4 -14 -23 -13 -16 -8
-4 -24 4 -14 -23 -13 -17 -10
-3 -23 4 -14 -24 -13 -17 -10
-2 -22 4 -14 -24 -13 -18 -10
-4 -21 4 -14 -24 -14 -18 -11
-5 -20 4 -15 -25 -14 -18 -11
-4 -19 3 -16 -26 -15 -19 -12
-3 -18 3 -15 -26 -15 -19 -12
-3 -17 2 -16 -26 -15 -20 -13
-3 -17 2 -17 -26 -15 -20 -13
-3 -15 2 -17 -25 -15 -20 -13
-3 -14 1 -18 -26 -16 -21 -14
-3 -13 1 -18 -27 -16 -21 -14
-4 -12 1 -18 -28 -16 -21 -15
-4 -11 1 -18 -28 -16 -22 -15
-3 -10 0 -19 -28 -17 -22 -16
-3 -10 1 -19 -28 -17 -22 -16
-2 -9 0 -19 -29 -18 -23 -17
-3 -8 0 -19 -29 -18 -23 -17
-4 -6 1 -18 -30 -19 -23 -17
-6 -4 2 -18 -30 -20 -24 -19
-8 -3 5 -16 -31 -23 -27 -21
-9 -2 9 -12 -32 -25 -30 -23
-9 -2 14 -8 -33 -27 -33 -25
-9 -2 19 0 -33 -30 -36 -28
-9 -2 24 10 -31 -30 -37 -30
-8 -2 31 22 -26 -27 -34 -29
-5 1 38 37 -17 -19 -27 -26
0 3 49 59 0 -5 -15 -20
7 7 58 81 20 16 3 -9
14 15 64 101 46 43 27 9
23 26 69 125 79 77 59 32
35 42 74 152 125 122 100 62
48 62 68 162 170 171 143 93
56 84 51 143 201 214 182 121
62 104 28 105 220 247 215 147
66 127 5 69 240 282 246 174
67 150 -23 33 266 322 282 202
69 165 -57 -7 286 354 311 226
72 160 -87 -39 288 361 318 228
74 138 -106 -54 271 339 301 210
71 109 -118 -57 237 292 259 176
62 81 -122 -57 194 227 199 131
49 55 -113 -55 148 156 130 80
36 36 -99 -55 101 91 64 32
27 28 -88 -60 55 40 20 4
20 29 -82 -70 15 9 -2 -8
15 33 -77 -77 -14 -6 -10 -10
11 36 -65 -72 -28 -11 -11 -10
9 35 -52 -62 -37 -15 -15 -11
7 31 -44 -53 -40 -17 -17 -12
7 26 -36 -45 -33 -15 -18 -15
6 23 -29 -36 -25 -11 -17 -17
4 21 -24 -32 -24 -11 -17 -18
3 19 -20 -29 -25 -11 -18 -18
3 17 -16 -24 -23 -11 -19 -20
2 13 -10 -18 -21 -11 -20 -21
2 10 -7 -14 -21 -12 -21 -23
1 9 -6 -13 -22 -14 -22 -24
1 8 -5 -14 -25 -16 -24 -25
1 8 -6 -14 -27 -18 -26 -27
0 7 -5 -14 -27 -18 -26 -27
-2 7 -4 -15 -28 -18 -27 -28
0 7 -4 -15 -28 -19 -28 -29
0 6 -4 -15 -29 -20 -29 -30
0 5 -3 -15 -30 -21 -29 -31
0 4 -3 -14 -31 -22 -30 -32
0 4 -2 -13 -31 -22 -31 -32
0 3 1 -13 -32 -23 -31 -33
-2 3 2 -12 -31 -22 -31 -32
-4 3 1 -12 -31 -22 -31 -33
-7 3 1 -11 -30 -22 -31 -33
-6 3 1 -12 -30 -22 -30 -33
-4 3 1 -12 -30 -22 -30 -34
-2 3 2 -12 -30 -21 -29 -33
-2 2 2 -12 -30 -22 -30 -34
-2 1 2 -11 -31 -23 -32 -35
-3 1 3 -10 -31 -23 -31 -34
-5 0 5 -9 -30 -23 -31 -34
-5 0 5 -9 -29 -23 -31 -34
-4 1 4 -10 -30 -23 -32 -35
-4 1 3 -10 -29 -23 -31 -34
-5 1 3 -10 -30 -23 -31 -34
-6 1 3 -9 -29 -22 -30 -34
-5 1 2 -10 -29 -22 -31 -35
-4 1 3 -10 -29 -22 -31 -35
-3 1 4 -9 -29 -21 -31 -35
-2 1 3 -9 -30 -22 -33 -36
-2 1 3 -9 -30 -22 -33 -37
-2 1 3 -9 -30 -22 -33 -37
-2 1 3 -10 -29 -22 -32 -37
-3 1 5 -9 -27 -21 -30 -36
-2 1 4 -9 -27 -21 -30 -36
-2 2 4 -9 -27 -21 -31 -36
-2 2 4 -9 -27 -21 -31 -36
-2 2 4 -9 -28 -21 -32 -36
-2 2 4 -8 -28 -20 -32 -36
-2 2 4 -7 -28 -20 -33 -37
-2 2 5 -6 -28 -21 -33 -37
-2 3 5 -6 -28 -21 -33 -37
-3 3 5 -6 -27 -21 -32 -37
-4 3 5 -5 -25 -20 -32 -36
-4 3 4 -5 -25 -20 -31 -36
-4 4 4 -5 -24 -19 -31 -37
-3 4 4 -5 -24 -19 -30 -37
-3 4 4 -4 -24 -19 -30 -37
-3 4 5 -3 -23 -18 -30 -36
-2 4 4 -3 -24 -19 -31 -38
0 4 4 -3 -24 -20 -32 -38
0 4 4 -3 -24 -20 -32 -39
-2 4 4 -3 -23 -19 -32 -39
-2 5 5 -3 -21 -18 -31 -38
-2 5 5 -2 -21 -17 -30 -37
-2 6 4 0 -20 -17 -29 -37
-2 6 4 1 -20 -17 -28 -37
0 6 4 1 -20 -17 -29 -38
1 7 5 2 -20 -16 -28 -36
1 7 5 3 -20 -15 -29 -36
1 7 5 4 -19 -14 -28 -35
1 7 6 5 -17 -13 -28 -33
2 7 5 5 -17 -14 -28 -33
2 8 4 5 -16 -13 -28 -31
2 8 4 6 -14 -12 -27 -29
2 9 5 7 -13 -11 -27 -26
1 9 5 7 -13 -10 -26 -24
1 9 5 8 -13 -10 -26 -23
2 10 4 9 -12 -9 -26 -23
3 10 5 11 -11 -8 -25 -22
2 10 5 12 -10 -7 -26 -20
1 10 6 14 -8 -6 -24 -17
2 11 5 14 -7 -6 -24 -15
2 11 5 15 -5 -4 -22 -13
3 12 4 15 -5 -4 -22 -12
3 12 4 17 -3 -2 -20 -9
4 14 4 18 -2 1 -20 -8
5 14 5 19 1 3 -18 -5
5 13 5 21 2 4 -18 -3
6 13 6 23 3 5 -17 0
7 13 6 25 5 7 -16 2
8 14 5 27 7 8 -15 4
10 15 4 28 8 9 -14 6
11 16 4 28 10 11 -12 8
10 17 4 29 12 13 -10 11
9 17 5 32 15 16 -7 14
9 18 4 32 16 17 -7 16
10 19 5 34 19 19 -5 19
10 20 4 36 21 21 -3 21
11 20 4 39 23 23 0 24
12 19 4 40 26 25 2 26
12 19 4 43 29 27 4 30
13 21 4 42 30 29 5 33
13 23 4 42 31 31 6 36
14 24 3 44 34 34 9 39
14 25 2 45 36 35 11 40
14 25 1 45 39 37 13 42
15 26 2 46 42 39 15 43
17 27 1 48 43 42 18 44
19 27 1 49 44 44 19 45
20 27 0 49 46 46 20 45
19 27 0 50 47 47 21 45
18 28 0 50 49 48 22 47
18 29 0 51 50 50 24 49
19 30 -3 50 50 51 25 49
20 30 -3 50 52 53 27 50
20 30 -3 49 53 54 28 51
21 30 -4 47 53 54 28 51
22 30 -4 48 53 54 28 51
23 30 -5 48 53 54 28 51
23 30 -5 48 54 55 29 51
22 30 -5 47 54 55 29 51
21 30 -5 46 54 55 29 51
19 30 -5 46 55 56 30 52
18 30 -5 45 55 56 30 53
18 31 -5 45 56 56 31 53
19 31 -5 44 56 56 31 53
20 31 -6 42 53 55 30 52
20 30 -4 42 54 55 31 52
19 30 -4 42 53 55 30 51
19 29 -5 40 52 53 27 49
19 28 -4 39 51 52 25 49
18 27 -5 37 48 49 23 47
16 26 -4 36 47 47 21 45
15 25 -3 34 45 46 20 44
15 24 -3 32 40 42 16 42
13 22 -2 30 39 40 15 42
12 21 -2 27 35 36 12 38
12 18 -2 25 32 33 9 35
11 16 0 24 29 30 6 33
9 15 0 22 25 27 2 31
8 13 0 20 22 24 -2 29
7 12 1 17 20 22 -4 27
6 10 1 15 18 19 -6 25
5 9 2 13 15 17 -9 23
4 7 2 12 13 15 -11 22
4 6 2 9 9 12 -14 20
4 4 3 8 7 10 -16 17
3 2 4 7 6 8 -17 15
2 1 4 6 3 4 -21 13
1 0 4 6 0 2 -23 12
1 -2 4 4 -3 0 -25 10
1 -3 5 4 -3 -2 -26 9
0 -3 4 2 -5 -4 -27 8
0 -4 4 1 -7 -5 -28 7
0 -4 3 0 -8 -6 -29 6
0 -5 3 -2 -9 -6 -29 6
-2 -6 3 -3 -10 -7 -31 5
-3 -6 4 -3 -10 -7 -31 5
-3 -6 4 -3 -10 -8 -32 4
-3 -7 4 -3 -10 -8 -33 3
-3 -8 4 -4 -12 -9 -35 2
-3 -8 3 -5 -13 -10 -35 2
-3 -9 4 -4 -12 -10 -35 2
-3 -10 4 -5 -13 -10 -35 1
-3 -10 4 -6 -14 -11 -35 0
-3 -9 4 -6 -14 -10 -35 1
-3 -10 4 -6 -14 -10 -35 0
-5 -11 4 -6 -13 -11 -36 -2
-5 -12 4 -7 -14 -12 -37 -3
-4 -12 5 -6 -13 -11 -36 -2
-4 -12 6 -5 -13 -11 -36 0
-5 -13 6 -5 -13 -11 -36 0
-5 -14 5 -5 -13 -12 -37 -2
-4 -14 5 -5 -13 -12 -37 -2
-3 -12 5 -5 -14 -12 -37 -3
-3 -10 5 -6 -14 -12 -38 -3
-3 -11 4 -6 -15 -12 -38 -3
-4 -12 4 -5 -14 -12 -37 -3
-3 -13 4 -5 -14 -11 -38 -4
-3 -13 5 -4 -14 -11 -38 -4
-3 -13 5 -4 -13 -11 -38 -4
-4 -13 5 -5 -14 -12 -38 -4
-5 -13 6 -5 -13 -11 -37 -4
-5 -14 5 -5 -13 -11 -37 -4
-6 -14 5 -4 -13 -11 -38 -5
-6 -13 6 -4 -13 -11 -38 -5
-6 -14 6 -3 -13 -10 -37 -5
-5 -14 6 -4 -13 -10 -38 -5
-5 -15 6 -4 -13 -11 -39 -6
-4 -16 6 -3 -13 -11 -39 -6
-5 -16 8 0 -11 -9 -38 -5
-5 -17 7 0 -11 -9 -38 -4
-5 -17 7 0 -11 -9 -37 -4
-5 -16 7 0 -11 -9 -36 -4
-5 -16 8 1 -10 -9 -36 -3
-5 -16 7 1 -10 -9 -36 -3
-5 -16 7 1 -10 -9 -36 -4
-6 -16 8 1 -10 -8 -36 -4
-5 -17 9 2 -9 -7 -35 -4
-5 -17 9 2 -10 -7 -36 -4
-4 -17 9 2 -10 -7 -36 -5
-5 -17 8 2 -10 -8 -37 -6
-6 -17 7 2 -9 -8 -37 -6
-5 -17 7 2 -9 -7 -36 -7
-3 -16 6 1 -10 -7 -37 -8
-3 -16 6 1 -10 -7 -37 -8
-3 -16 7 1 -10 -8 -37 -7
-3 -16 7 2 -10 -8 -37 -8
-3 -16 7 2 -10 -8 -38 -8
-4 -16 7 2 -10 -7 -38 -8
-4 -16 7 2 -10 -8 -38 -8
-3 -16 7 2 -10 -8 -37 -8
-2 -15 6 2 -10 -8 -38 -9
-4 -15 7 3 -8 -6 -36 -7
-3 -14 6 2 -8 -7 -36 -8
-3 -14 7 2 -8 -6 -36 -7
-2 -15 7 2 -9 -6 -37 -8
-3 -15 8 3 -8 -5 -36 -7
-3 -15 9 3 -8 -6 -36 -7
-3 -16 9 4 -8 -6 -36 -8
-3 -16 8 4 -7 -6 -36 -8
-3 -15 8 3 -7 -5 -36 -8
-3 -15 8 3 -6 -5 -35 -8
-2 -16 8 2 -6 -5 -35 -8
-2 -16 8 2 -6 -5 -36 -8
-2 -15 7 1 -8 -6 -36 -8
-2 -15 6 1 -8 -5 -35 -8
-2 -16 6 2 -8 -4 -35 -7
-2 -16 6 1 -8 -5 -36 -8
-2 -16 7 2 -8 -5 -36 -9
-2 -16 8 2 -7 -5 -37 -9
-3 -16 7 2 -7 -4 -37 -8
-3 -16 7 2 -7 -4 -36 -8
-3 -16 7 2 -7 -4 -36 -9
-2 -16 7 2 -7 -4 -35 -9
-3 -16 7 2 -7 -5 -36 -9
-4 -16 7 2 -7 -5 -37 -8
-4 -15 7 2 -8 -5 -37 -8
-3 -15 8 2 -8 -5 -37 -9
-3 -16 7 1 -9 -6 -38 -11
-3 -17 7 1 -9 -6 -39 -11
-4 -17 8 1 -8 -6 -38 -10
-4 -17 8 0 -8 -7 -39 -10
-3 -16 6 -2 -10 -8 -39 -11
0 -17 6 -2 -10 -7 -39 -11
0 -17 6 -2 -10 -6 -39 -11
0 -17 6 -2 -9 -7 -39 -11
-2 -17 6 -2 -10 -7 -39 -11
0 -17 7 -2 -10 -8 -40 -11
0 -17 8 0 -10 -7 -40 -11
-2 -18 7 -2 -10 -7 -40 -12
-3 -18 7 -2 -9 -7 -40 -12
-3 -18 7 -3 -10 -8 -41 -12
-3 -18 6 -3 -11 -8 -41 -12
-4 -18 6 -4 -11 -9 -41 -12
-5 -18 5 -4 -12 -9 -44 -13
-3 -18 6 -5 -12 -9 -43 -13
-2 -17 5 -5 -12 -9 -43 -14
-2 -18 6 -4 -12 -9 -44 -15
-3 -18 6 -3 -12 -8 -44 -14
-2 -19 6 -3 -12 -8 -45 -14
0 -19 6 -4 -12 -10 -46 -15
0 -19 6 -5 -12 -10 -46 -16
-2 -19 6 -5 -12 -9 -45 -15
0 -19 5 -6 -13 -10 -46 -17
0 -19 6 -6 -13 -10 -46 -17
-2 -19 7 -6 -13 -9 -45 -16
-2 -20 6 -7 -14 -10 -46 -17
-2 -20 6 -7 -14 -11 -47 -18
-2 -21 6 -7 -15 -11 -48 -19
-3 -21 7 -5 -13 -10 -47 -17
-3 -21 7 -6 -13 -10 -47 -17
-3 -21 7 -6 -12 -10 -47 -18
-3 -21 7 -7 -13 -10 -48 -18
-2 -21 5 -8 -14 -11 -49 -19
-2 -21 5 -8 -14 -11 -49 -19
-2 -21 5 -7 -15 -11 -48 -19
-2 -22 6 -7 -15 -10 -48 -19
0 -22 5 -8 -17 -12 -50 -21
0 -22 5 -7 -16 -12 -51 -21
0 -22 5 -7 -15 -12 -51 -21
0 -21 5 -7 -15 -12 -51 -21
-2 -21 5 -8 -15 -12 -50 -21
-2 -21 4 -8 -14 -12 -50 -22
-2 -21 4 -8 -14 -12 -50 -22
-2 -22 5 -8 -13 -11 -50 -21
-2 -22 6 -8 -14 -11 -50 -21
-2 -22 6 -8 -14 -11 -50 -21
-2 -22 6 -7 -14 -10 -50 -20
-2 -22 6 -7 -14 -11 -50 -21
-3 -22 6 -7 -14 -11 -51 -22
-4 -22 6 -8 -15 -11 -51 -23
-4 -22 6 -8 -15 -11 -52 -23
-3 -22 6 -8 -14 -11 -51 -23
0 -22 5 -9 -15 -12 -52 -25
0 -22 5 -9 -16 -12 -52 -25
0 -22 5 -9 -16 -13 -52 -25
-2 -23 5 -8 -16 -12 -51 -24
-2 -23 5 -9 -16 -13 -52 -25
-2 -23 5 -9 -16 -13 -53 -26
0 -23 5 -8 -14 -11 -53 -25
1 -22 4 -9 -15 -12 -54 -26
1 -23 4 -10 -16 -13 -56 -26
1 -23 4 -10 -17 -14 -58 -26
0 -24 5 -9 -15 -13 -57 -25
0 -23 5 -9 -15 -13 -55 -25
-2 -23 5 -9 -15 -13 -53 -25
-3 -23 5 -9 -16 -14 -52 -27
-2 -24 5 -9 -16 -14 -51 -26
-2 -24 4 -9 -16 -14 -51 -25
-2 -24 4 -9 -16 -14 -49 -24
-3 -25 4 -9 -16 -14 -48 -23
-3 -24 4 -9 -16 -14 -46 -22
-4 -24 4 -9 -15 -13 -45 -21
-4 -24 5 -9 -15 -13 -43 -19
-2 -24 5 -9 -15 -13 -41 -17
0 -25 5 -9 -15 -13 -40 -16
-3 -24 5 -9 -15 -13 -39 -15
-2 -24 5 -9 -15 -13 -37 -14
0 -23 5 -9 -15 -12 -35 -12
1 -23 5 -9 -16 -13 -34 -12
0 -24 5 -9 -15 -12 -32 -10
-2 -24 5 -9 -15 -13 -31 -10
1 -25 4 -10 -15 -13 -30 -8
2 -24 3 -11 -16 -13 -30 -7
1 -23 3 -11 -16 -13 -28 -6
1 -23 3 -10 -16 -12 -26 -4
1 -23 3 -11 -17 -13 -25 -3
0 -24 3 -10 -16 -13 -23 0
-2 -24 3 -10 -15 -13 -22 1
-2 -24 4 -9 -15 -13 -20 2
0 -23 4 -9 -14 -12 -19 3
-2 -23 5 -9 -15 -13 -18 4
-3 -24 4 -9 -15 -13 -18 5
-3 -24 4 -9 -15 -13 -16 7
-2 -23 4 -9 -15 -12 -14 8
-2 -22 4 -9 -15 -12 -12 9
-2 -23 5 -9 -15 -13 -12 10
-2 -23 5 -9 -15 -14 -11 12
0 -23 5 -9 -15 -13 -9 13
0 -24 4 -8 -15 -13 -8 15
0 -24 4 -9 -15 -13 -6 16
1 -24 4 -9 -15 -13 -5 17
1 -24 4 -10 -15 -13 -3 17
1 -24 4 -10 -15 -13 2 17
1 -23 3 -11 -17 -14 2 15
0 -22 3 -11 -17 -14 2 16
0 -22 2 -11 -17 -14 2 15
0 -23 3 -10 -16 -13 3 15
-2 -23 3 -10 -16 -13 2 14
-2 -24 3 -10 -16 -14 2 14
-3 -23 3 -10 -16 -14 3 14
-2 -23 3 -11 -15 -14 3 13
-2 -22 3 -11 -15 -13 3 13
-2 -22 4 -11 -15 -13 2 13
-2 -22 3 -11 -15 -14 1 14
-2 -22 3 -11 -16 -14 1 14
0 -22 2 -11 -17 -14 0 13
0 -22 2 -11 -16 -14 0 13
-2 -22 4 -10 -15 -13 1 14
-3 -22 4 -10 -15 -13 1 13
-3 -22 4 -10 -16 -14 0 12
-2 -21 3 -11 -15 -15 -2 11
-2 -20 3 -10 -14 -14 1 12
-2 -21 3 -10 -15 -14 1 11
-2 -21 3 -10 -16 -14 0 11
-2 -21 3 -11 -16 -14 -2 11
-2 -21 3 -11 -16 -14 -2 11
-2 -21 2 -11 -16 -14 -3 11
-2 -21 2 -10 -16 -14 -2 11
-2 -20 3 -10 -17 -14 -2 11
0 -20 4 -10 -17 -14 -3 11
0 -20 4 -10 -16 -14 -3 11
1 -19 3 -10 -15 -14 -3 10
1 -18 4 -10 -15 -13 -2 11
1 -16 4 -11 -15 -13 -2 10
1 -13 5 -10 -14 -12 0 12
2 -11 6 -8 -12 -10 2 13
2 -9 7 -6 -11 -9 3 14
2 -7 8 -5 -9 -8 4 15
2 -7 7 -4 -8 -7 4 15
3 -7 6 -6 -9 -9 3 14
2 -7 7 -5 -8 -9 4 14
2 -6 8 -5 -9 -8 3 14
1 -4 11 -3 -7 -6 5 16
2 -2 13 -2 -6 -6 5 17
3 1 14 1 -6 -6 5 17
3 2 15 2 -5 -5 5 17
3 2 15 2 -5 -5 5 18
3 3 13 0 -6 -6 4 17
4 3 10 -3 -6 -6 5 16
4 4 7 -5 -6 -4 6 16
4 6 6 -4 -5 -3 7 17
6 7 6 -3 -3 0 8 18
8 8 6 0 0 1 9 19
9 9 5 0 0 1 9 19
10 9 5 1 1 3 9 20
11 10 4 1 1 3 9 20
11 11 4 3 3 5 11 21
12 11 4 4 3 6 12 22
12 9 3 4 3 4 11 21
12 7 2 3 2 3 11 20
12 5 0 1 0 1 10 19
12 4 -3 -3 -4 -2 8 17
11 3 -3 -5 -6 -4 6 15
10 2 -5 -9 -8 -6 3 12
9 0 -7 -10 -9 -7 2 12
8 -3 -6 -10 -9 -8 1 12
7 -5 -5 -9 -10 -9 0 10
6 -7 -4 -9 -11 -10 -3 8
5 -9 -3 -10 -13 -12 -5 6
3 -9 -2 -11 -14 -12 -6 6
2 -8 -2 -12 -14 -12 -6 5
1 -8 -2 -13 -15 -13 -6 4
-2 -9 0 -13 -17 -14 -8 3
-3 -10 0 -14 -19 -15 -10 2
-4 -12 -2 -15 -20 -17 -11 1
-5 -13 -2 -15 -20 -18 -11 0
-5 -15 -3 -15 -21 -19 -12 -3
-5 -16 -2 -15 -20 -18 -12 -3
-4 -16 -3 -16 -22 -20 -14 -5
-4 -15 -4 -18 -23 -20 -15 -6
-5 -15 -4 -19 -23 -20 -15 -7
-6 -15 -3 -18 -22 -20 -15 -6
-5 -15 -3 -19 -24 -21 -16 -8
-4 -14 -3 -19 -24 -21 -16 -8
-5 -14 -3 -19 -24 -21 -17 -8
-6 -15 -3 -19 -24 -21 -17 -8
-6 -16 -3 -18 -24 -22 -18 -9
-6 -16 -2 -18 -24 -21 -17 -9
-7 -16 -2 -18 -24 -21 -17 -9
-7 -16 -2 -18 -24 -21 -18 -10
-7 -15 -2 -18 -23 -21 -18 -10
-8 -15 -2 -18 -24 -22 -18 -10
-8 -16 0 -18 -23 -21 -18 -10
-8 -16 0 -18 -24 -21 -18 -11
-8 -16 0 -18 -25 -22 -19 -11
-8 -17 -2 -18 -25 -22 -19 -11
-8 -17 -2 -18 -25 -22 -19 -11
-8 -17 -2 -18 -25 -22 -19 -11
-8 -17 0 -18 -25 -22 -19 -11
-7 -17 0 -17 -25 -22 -18 -11
-8 -17 -2 -18 -25 -22 -19 -11
-9 -17 -2 -18 -26 -22 -20 -12
-9 -17 -2 -18 -29 -22 -20 -12
-8 -16 -2 -19 -29 -22 -20 -13
-8 -15 -3 -20 -28 -22 -21 -14
-8 -16 -2 -19 -26 -22 -20 -13
-8 -16 -2 -19 -25 -22 -20 -13
-8 -16 -2 -19 -24 -22 -20 -13
-9 -16 -2 -19 -23 -22 -20 -14
-9 -16 -2 -19 -21 -22 -20 -14
-9 -16 -2 -18 -19 -22 -20 -14
-8 -16 0 -18 -17 -22 -19 -13
-8 -16 0 -18 -16 -22 -19 -13
-9 -15 1 -18 -14 -23 -20 -14
-9 -14 3 -16 -14 -25 -22 -16
-11 -13 8 -11 -12 -26 -23 -17
-12 -13 13 -6 -12 -28 -26 -19
-12 -14 18 2 -11 -30 -29 -22
-12 -16 24 10 -7 -31 -31 -25
-11 -17 30 21 1 -27 -27 -24
-9 -16 37 38 13 -18 -19 -18
-4 -14 47 59 29 -5 -8 -13
2 -12 56 80 50 14 9 -3
9 -5 63 102 75 39 32 15
18 6 68 125 108 72 63 37
31 21 74 152 154 114 102 65
43 39 73 171 202 162 145 95
51 60 62 158 238 207 185 126
57 80 43 125 259 242 218 153
62 102 21 89 278 278 252 181
64 127 -6 54 302 316 287 210
64 145 -37 15 322 350 319 235
66 145 -68 -23 325 360 329 240
69 126 -91 -46 308 340 312 224
67 98 -106 -57 272 294 272 189
60 69 -111 -59 227 229 214 144
48 43 -106 -58 180 157 143 92
33 21 -94 -56 134 92 76 45
22 12 -80 -60 92 43 31 15
15 11 -74 -67 54 12 10 4
10 15 -71 -74 25 -4 1 2
7 18 -62 -72 8 -11 -3 2
4 19 -49 -63 -2 -14 -5 1
2 16 -40 -54 -5 -17 -8 -3
2 11 -33 -44 3 -13 -6 -4
1 7 -26 -34 12 -9 -4 -4
0 5 -20 -28 14 -9 -6 -6
-2 4 -15 -25 14 -11 -8 -9
-3 2 -10 -20 16 -10 -9 -10
-5 -2 -6 -13 18 -8 -8 -10
-5 -4 -4 -10 17 -9 -10 -11
-5 -5 -3 -10 16 -11 -12 -14
-6 -5 -3 -11 13 -14 -15 -16
-6 -5 -3 -11 11 -16 -18 -18
-7 -5 -2 -11 11 -16 -17 -17
-7 -5 -2 -11 10 -18 -17 -18
-7 -5 -2 -11 9 -19 -18 -19
-6 -5 -2 -12 7 -20 -20 -21
-7 -5 1 -10 7 -20 -20 -21
-7 -6 2 -10 6 -21 -20 -21
-8 -6 3 -9 5 -22 -21 -21
-8 -7 4 -8 6 -21 -20 -21
-9 -7 4 -8 6 -21 -21 -22
-9 -7 3 -9 5 -22 -21 -23
-8 -6 2 -11 5 -24 -22 -24
-7 -5 3 -10 5 -23 -22 -24
-8 -4 3 -10 4 -23 -22 -24
-9 -4 3 -10 3 -23 -22 -24
-8 -3 3 -10 3 -24 -23 -26
-6 -2 3 -10 3 -25 -24 -27
-6 -2 3 -9 2 -25 -24 -27
-5 -4 4 -8 3 -24 -22 -26
-6 -4 4 -7 3 -23 -21 -25
-6 -4 4 -7 4 -22 -20 -25
-7 -3 4 -8 5 -22 -20 -25
-7 -3 4 -8 5 -21 -20 -25
-7 -3 4 -8 4 -21 -19 -25
-7 -3 5 -8 4 -21 -20 -25
-6 -3 6 -7 3 -21 -20 -25
-6 -2 5 -8 2 -21 -21 -26
-6 0 4 -8 2 -21 -21 -27
-6 0 4 -7 2 -21 -22 -29
-7 1 3 -7 2 -22 -22 -30
-7 2 3 -7 2 -23 -23 -30
-6 2 2 -8 2 -23 -23 -30
-6 3 3 -9 3 -23 -23 -29
-6 4 4 -9 3 -22 -23 -29
-6 3 4 -8 3 -22 -22 -29
-6 3 4 -7 3 -22 -22 -28
-5 3 5 -7 3 -22 -22 -28
-5 2 4 -6 2 -22 -22 -28
-5 2 4 -6 3 -21 -21 -28
-4 3 4 -6 3 -22 -20 -28
-3 4 4 -5 3 -21 -20 -28
-4 4 4 -5 3 -21 -21 -28
-4 5 4 -6 4 -20 -20 -27
-4 6 4 -6 4 -20 -19 -27
-4 7 4 -5 5 -19 -19 -27
-4 7 4 -4 5 -19 -18 -27
-4 8 4 -3 5 -19 -18 -27
-4 8 4 -3 4 -19 -18 -27
-4 7 4 -2 4 -19 -18 -28
-4 8 4 0 6 -18 -17 -27
-3 9 3 -2 6 -18 -17 -27
-3 8 2 -2 7 -18 -17 -27
-4 8 3 0 8 -18 -16 -27
-4 8 3 0 8 -18 -16 -27
-3 8 2 -2 7 -18 -16 -28
-3 9 3 0 8 -17 -15 -28
-4 9 4 2 9 -16 -15 -28
-4 9 3 2 8 -16 -15 -28
-3 10 3 3 8 -16 -15 -29
-3 12 2 3 9 -16 -15 -30
-2 12 2 5 10 -15 -14 -29
-2 13 0 4 10 -15 -14 -30
0 14 0 5 11 -15 -13 -29
2 15 0 5 11 -15 -13 -29
2 15 1 6 12 -13 -12 -28
0 16 1 7 13 -12 -11 -28
0 16 2 9 14 -11 -11 -29
1 17 3 9 13 -12 -12 -29
2 18 3 11 14 -11 -11 -28
2 18 2 12 16 -10 -10 -27
2 18 2 13 17 -9 -9 -27
1 18 1 13 19 -7 -7 -26
1 19 1 13 20 -5 -6 -25
0 19 1 14 21 -4 -4 -24
0 19 2 16 22 -3 -2 -23
2 20 2 17 23 0 0 -22
3 22 2 19 24 1 0 -22
4 22 2 21 26 3 2 -21
5 22 1 22 27 4 3 -20
6 23 1 23 28 7 5 -20
6 24 0 23 29 8 5 -20
6 25 1 24 32 10 7 -19
6 26 1 26 35 12 8 -17
7 28 0 27 36 13 9 -16
8 29 0 28 37 14 10 -15
8 30 1 30 40 15 12 -13
9 32 1 31 42 16 12 -12
8 33 1 33 43 18 14 -11
8 34 0 34 44 20 16 -12
10 36 -2 35 46 23 18 -11
10 37 -2 36 50 26 20 -9
10 37 -3 37 53 29 23 -7
11 40 -5 37 55 30 26 -6
14 43 -5 38 56 32 29 -4
15 43 -6 38 58 34 30 -3
15 42 -5 40 61 37 33 0
15 44 -6 42 63 39 36 2
16 46 -7 43 64 40 38 3
16 46 -7 43 65 43 39 3
16 48 -9 42 65 43 38 2
17 49 -9 42 66 45 39 3
17 50 -11 40 67 45 39 3
17 52 -12 40 69 47 42 4
17 54 -12 40 69 47 43 5
17 55 -12 40 70 48 45 6
18 55 -13 39 70 48 45 7
19 55 -13 40 71 49 47 7
20 55 -13 42 71 50 48 8
20 55 -13 40 71 51 48 8
20 57 -14 39 70 50 48 7
20 58 -15 38 70 51 49 8
20 59 -16 36 69 50 49 7
20 60 -16 35 70 50 49 8
19 61 -17 34 70 50 50 9
19 62 -17 34 69 50 50 9
17 62 -18 33 68 50 49 8
16 61 -17 33 68 49 48 7
16 61 -17 32 66 47 46 6
16 60 -16 31 65 45 45 5
15 61 -16 30 64 44 44 3
14 61 -16 28 63 42 43 3
15 61 -17 25 59 38 38 0
15 60 -16 23 58 38 37 -2
15 60 -16 21 55 36 35 -4
13 59 -15 20 52 33 33 -6
10 58 -14 18 49 29 30 -8
8 58 -13 17 45 26 26 -10
8 57 -14 15 40 22 22 -13
7 56 -13 13 37 19 19 -15
6 54 -12 11 33 16 17 -17
5 52 -12 8 30 13 14 -20
3 50 -13 6 26 10 11 -23
1 49 -13 4 24 7 8 -26
-2 50 -14 1 21 4 5 -29
-2 50 -14 -3 17 1 1 -31
-3 49 -13 -4 15 -3 -2 -32
-4 49 -14 -7 11 -7 -5 -34
-5 48 -13 -8 9 -9 -7 -36
-5 47 -14 -10 5 -12 -10 -39
-6 47 -13 -11 3 -14 -12 -40
-6 48 -14 -14 0 -16 -15 -43
-7 48 -14 -14 -2 -16 -15 -41
-7 49 -15 -17 -4 -19 -17 -44
-8 49 -15 -17 -5 -20 -17 -45
-8 50 -16 -20 -8 -22 -20 -47
-7 51 -15 -20 -9 -23 -21 -49
-7 51 -15 -20 -11 -25 -23 -50
-9 51 -16 -21 -12 -27 -24 -52
-9 50 -15 -20 -12 -26 -24 -52
-9 50 -15 -21 -13 -27 -24 -53
-9 50 -15 -22 -14 -28 -26 -53
-9 51 -17 -24 -16 -31 -28 -56
-9 51 -18 -25 -16 -31 -29 -58
-9 52 -17 -25 -16 -30 -30 -58
-9 54 -17 -26 -17 -31 -31 -60
-9 55 -17 -26 -18 -32 -30 -60
-9 55 -18 -26 -18 -32 -30 -60
-9 56 -19 -25 -18 -32 -31 -60
-9 57 -21 -26 -19 -33 -32 -61
-9 59 -21 -26 -20 -33 -32 -61
-9 59 -21 -27 -21 -33 -31 -61
-9 60 -22 -29 -22 -33 -31 -61
-9 60 -22 -29 -21 -33 -31 -61
-9 60 -22 -29 -21 -34 -31 -62
-8 61 -22 -29 -21 -35 -31 -62
-8 62 -22 -30 -22 -35 -32 -64
-9 63 -22 -29 -23 -35 -33 -65
-9 64 -22 -29 -24 -35 -34 -66
-9 64 -22 -29 -24 -36 -34 -66
-9 65 -22 -29 -23 -36 -34 -66
-9 65 -22 -29 -23 -36 -33 -65
-9 66 -23 -31 -24 -37 -33 -66
-9 66 -23 -31 -24 -37 -33 -66
-10 67 -22 -31 -24 -37 -33 -66
-10 69 -22 -30 -24 -36 -33 -66
-10 69 -22 -29 -25 -36 -33 -66
-10 69 -22 -29 -25 -36 -33 -66
-11 70 -22 -29 -26 -36 -34 -67
-11 71 -24 -30 -27 -37 -35 -69
-11 73 -25 -30 -27 -36 -35 -69
-11 74 -26 -31 -27 -37 -36 -71
-11 74 -26 -30 -27 -37 -36 -71
-12 75 -26 -31 -28 -37 -36 -72
-12 75 -26 -32 -28 -38 -36 -72
-11 76 -26 -31 -28 -38 -37 -72
-10 77 -25 -31 -29 -38 -38 -73
-9 78 -25 -32 -29 -38 -39 -74
-9 78 -26 -32 -29 -38 -39 -74
-10 78 -25 -30 -29 -37 -38 -73
-10 79 -26 -31 -30 -38 -38 -74
-11 80 -27 -31 -29 -38 -37 -73
-11 81 -27 -31 -29 -37 -36 -73
-11 81 -27 -32 -29 -37 -36 -73
-11 84 -28 -34 -30 -37 -37 -73
-10 85 -28 -33 -29 -37 -37 -73
-9 86 -28 -34 -30 -37 -38 -74
-9 86 -28 -33 -29 -37 -38 -75
-9 87 -28 -32 -29 -37 -39 -77
-9 88 -29 -33 -30 -38 -39 -78
-9 88 -29 -32 -31 -38 -38 -77
-9 89 -29 -32 -31 -38 -37 -77
-9 90 -29 -33 -30 -37 -37 -76
-9 90 -29 -33 -30 -36 -37 -75
-9 90 -28 -34 -30 -36 -36 -74
-9 91 -30 -35 -32 -38 -38 -75
-9 91 -30 -35 -32 -39 -38 -76
-10 91 -29 -34 -32 -39 -37 -75
-9 92 -29 -34 -32 -39 -38 -76
-9 93 -29 -32 -31 -38 -37 -76
-8 94 -30 -34 -33 -38 -38 -77
-9 95 -30 -36 -35 -39 -38 -77
-9 95 -29 -36 -35 -39 -37 -76
-8 96 -31 -36 -35 -39 -37 -76
-8 96 -31 -35 -35 -39 -37 -76
-7 96 -31 -36 -34 -38 -37 -77
-7 95 -31 -37 -34 -38 -38 -77
-8 95 -30 -36 -33 -37 -37 -77
-9 96 -29 -35 -34 -37 -38 -78
-9 96 -29 -35 -34 -38 -38 -79
-9 96 -30 -35 -34 -38 -37 -79
-9 95 -31 -36 -34 -37 -37 -79
-8 95 -31 -36 -34 -37 -37 -78
-7 96 -32 -36 -34 -37 -36 -78
-6 97 -32 -37 -35 -37 -36 -79
-6 96 -32 -36 -34 -36 -35 -78
-6 94 -32 -36 -34 -36 -35 -77
-6 92 -31 -35 -33 -36 -34 -75
-6 91 -30 -35 -34 -36 -34 -74
-6 89 -29 -34 -34 -35 -33 -73
-6 88 -30 -34 -34 -35 -32 -73
-6 87 -29 -34 -34 -34 -32 -73
-6 86 -29 -35 -34 -34 -33 -74
-6 86 -29 -35 -34 -35 -33 -74
-7 86 -29 -35 -34 -35 -33 -74
-7 86 -30 -35 -34 -35 -33 -74
-6 85 -29 -35 -35 -36 -33 -75
-6 84 -28 -34 -35 -35 -33 -74
-6 81 -28 -34 -36 -36 -36 -76
-7 80 -28 -34 -35 -35 -36 -76
-7 79 -28 -34 -35 -35 -35 -76
-7 78 -26 -33 -34 -34 -33 -74
-7 76 -25 -33 -34 -33 -33 -74
-8 73 -23 -31 -32 -31 -31 -72
-6 72 -24 -32 -33 -32 -32 -73
-5 71 -23 -32 -32 -31 -31 -72
-4 70 -22 -32 -32 -31 -30 -71
-5 68 -22 -32 -32 -31 -29 -71
-5 65 -23 -31 -32 -30 -29 -70
-4 64 -22 -31 -32 -30 -28 -69
-4 63 -21 -30 -32 -29 -27 -70
-4 62 -21 -31 -32 -30 -28 -72
-5 60 -21 -31 -32 -29 -28 -72
-5 59 -22 -32 -32 -30 -29 -72
-6 58 -21 -31 -31 -29 -28 -71
-7 56 -20 -30 -30 -29 -28 -70
-6 54 -19 -30 -30 -29 -28 -70
-5 52 -18 -29 -30 -29 -28 -69
-5 50 -18 -29 -30 -28 -28 -69
-5 49 -17 -28 -30 -26 -27 -67
-5 47 -17 -28 -31 -27 -27 -67
-5 46 -16 -28 -30 -27 -26 -66
-5 44 -16 -27 -29 -27 -26 -66
-5 42 -15 -26 -27 -26 -25 -65
-4 40 -15 -26 -27 -26 -24 -65
-4 39 -14 -26 -27 -25 -23 -65
-4 37 -12 -24 -26 -24 -22 -64
-5 35 -12 -23 -26 -23 -22 -63
-5 32 -11 -23 -25 -22 -22 -61
-5 29 -11 -23 -24 -21 -20 -59
-6 28 -10 -22 -23 -20 -19 -57
-4 27 -11 -22 -24 -20 -19 -55
-3 25 -10 -21 -23 -19 -17 -52
-3 24 -10 -22 -23 -20 -17 -51
-4 24 -10 -22 -24 -20 -18 -50
-4 23 -9 -22 -23 -21 -18 -49
-4 21 -9 -22 -25 -22 -20 -50
-4 19 -8 -21 -25 -22 -20 -48
-4 19 -8 -20 -25 -21 -20 -46
-4 18 -8 -20 -25 -19 -20 -44
-4 15 -7 -19 -24 -19 -19 -41
-5 14 -7 -19 -23 -19 -18 -39
-5 13 -7 -19 -23 -19 -18 -37
-6 11 -6 -18 -22 -17 -16 -34
-5 10 -5 -18 -21 -16 -15 -31
-5 9 -4 -16 -19 -15 -14 -28
-5 8 -4 -16 -20 -16 -15 -28
-4 8 -4 -16 -20 -17 -15 -27
-4 8 -5 -16 -21 -17 -15 -26
-4 8 -5 -17 -22 -17 -15 -24
-4 8 -5 -17 -22 -17 -15 -23
-4 7 -5 -18 -22 -16 -15 -22
-3 7 -5 -17 -22 -16 -14 -21
-3 7 -5 -17 -22 -16 -15 -20
-4 7 -6 -18 -23 -17 -16 -20
-5 6 -5 -18 -23 -17 -16 -19
-6 5 -6 -18 -24 -18 -17 -17
-5 4 -5 -18 -24 -18 -17 -16
-4 4 -3 -17 -24 -19 -17 -14
-4 3 -3 -17 -23 -18 -17 -13
-5 2 -3 -17 -23 -17 -16 -11
-6 2 -4 -18 -24 -17 -16 -11
-6 3 -4 -18 -23 -17 -16 -11
-7 3 -5 -17 -22 -17 -16 -11
-7 4 -5 -18 -22 -16 -16 -11
-6 6 -7 -19 -23 -17 -17 -12
-6 7 -6 -18 -23 -17 -17 -11
-6 7 -5 -17 -22 -17 -18 -11
-6 6 -4 -17 -22 -19 -19 -12
-6 6 -4 -17 -22 -18 -18 -11
-5 7 -5 -17 -24 -18 -18 -11
-5 6 -4 -17 -23 -17 -17 -11
-5 6 -4 -18 -24 -18 -17 -12
-6 5 -4 -19 -25 -18 -17 -12
-6 6 -4 -18 -24 -18 -17 -12
-6 7 -4 -18 -24 -19 -16 -11
-7 6 -5 -19 -25 -19 -17 -12
-8 5 -5 -19 -25 -19 -17 -11
-7 6 -6 -19 -26 -19 -19 -13
-6 7 -6 -18 -25 -19 -18 -13
-6 7 -6 -18 -25 -19 -18 -14
-6 7 -6 -19 -25 -19 -18 -14
-6 7 -7 -19 -25 -19 -18 -14
-5 6 -6 -18 -25 -19 -17 -13
-5 5 -5 -18 -25 -18 -17 -13
-5 4 -6 -19 -25 -18 -17 -13
-5 4 -6 -19 -26 -19 -18 -14
-5 3 -5 -17 -25 -18 -18 -14
-5 3 -4 -17 -25 -18 -18 -14
-5 2 -4 -17 -24 -18 -18 -14
-4 3 -5 -17 -25 -19 -19 -15
-4 3 -5 -18 -25 -18 -18 -14
-4 3 -5 -19 -26 -18 -19 -15
-5 2 -4 -18 -25 -18 -18 -14
-5 0 -3 -17 -25 -17 -17 -13
-5 -2 -3 -17 -26 -18 -16 -13
-4 -3 -3 -16 -26 -18 -16 -13
-5 -4 -2 -16 -24 -17 -16 -12
-5 -5 -3 -17 -24 -17 -16 -13
-6 -5 -4 -17 -24 -17 -17 -14
-6 -5 -4 -17 -25 -17 -17 -14
-5 -4 -3 -16 -25 -17 -16 -14
-5 -4 -2 -16 -24 -17 -16 -14
-6 -5 0 -16 -23 -17 -17 -14
-6 -5 0 -15 -23 -16 -17 -13
-5 -5 0 -15 -22 -16 -17 -13
-4 -5 1 -15 -21 -15 -16 -12
-3 -5 0 -15 -22 -17 -16 -11
-3 -6 1 -13 -21 -16 -15 -10
-3 -7 2 -13 -21 -15 -14 -10
-4 -6 4 -11 -19 -13 -11 -7
-4 -4 5 -9 -17 -12 -10 -5
-5 -3 7 -7 -15 -10 -8 -4
-5 -2 7 -7 -14 -8 -7 -4
-5 -2 8 -6 -14 -7 -6 -4
-4 -2 8 -6 -14 -7 -5 -3
-4 0 7 -7 -15 -7 -5 -3
-5 -2 8 -5 -14 -6 -3 -2
-4 -2 11 -4 -14 -5 -3 0
0 0 12 -3 -13 -5 -4 -2
0 2 15 0 -10 -4 -4 0
-3 3 16 1 -10 -3 -4 0
-3 3 14 1 -10 -3 -4 0
-2 3 12 0 -10 -3 -3 0
1 4 10 -3 -11 -3 -3 0
2 6 7 -4 -9 -2 -2 2
3 8 8 -2 -6 1 2 4
5 10 8 0 -5 2 3 5
6 10 9 3 -2 5 6 7
7 10 8 5 1 6 8 8
8 9 7 5 2 8 9 9
9 8 7 5 3 10 10 10
9 7 7 5 4 11 11 11
9 6 7 4 4 11 12 11
8 4 7 4 3 11 11 10
8 3 7 4 2 10 10 8
8 1 5 2 0 8 8 7
8 -2 4 1 -3 7 7 7
7 -5 3 -2 -5 5 5 5
7 -8 1 -4 -7 2 2 4
6 -9 -2 -6 -9 1 1 4
5 -11 -3 -8 -10 0 1 3
3 -13 -2 -7 -10 -2 1 3
2 -14 1 -5 -10 -2 1 2
2 -15 2 -4 -11 -3 1 1
2 -15 2 -6 -13 -4 -2 1
-2 -15 2 -7 -14 -6 -3 0
-4 -16 2 -8 -15 -8 -5 -4
-6 -16 3 -8 -16 -9 -7 -6
-6 -16 3 -9 -17 -10 -9 -7
-5 -17 3 -10 -18 -11 -10 -8
-5 -18 2 -11 -20 -12 -11 -9
-6 -20 3 -11 -20 -12 -11 -10
-6 -22 2 -13 -22 -14 -13 -11
-6 -23 2 -14 -22 -15 -14 -11
-7 -23 2 -14 -22 -16 -14 -12
-8 -22 2 -14 -23 -16 -14 -12
-9 -22 2 -14 -23 -17 -14 -11
-8 -22 2 -14 -23 -17 -14 -11
-8 -21 2 -13 -23 -17 -13 -12
-8 -19 1 -14 -24 -18 -15 -13
-8 -19 1 -14 -24 -18 -15 -13
-8 -19 1 -14 -24 -17 -14 -13
-8 -18 2 -14 -25 -16 -14 -13
-9 -18 2 -15 -25 -17 -14 -15
-9 -18 2 -16 -25 -18 -15 -16
-9 -18 2 -16 -25 -18 -16 -17
-9 -17 2 -15 -25 -18 -17 -17
-9 -18 2 -15 -25 -21 -18 -18
-9 -18 2 -15 -26 -22 -18 -19
-7 -17 1 -15 -26 -22 -18 -20
-7 -16 0 -16 -27 -23 -19 -21
-8 -15 -2 -17 -27 -23 -19 -20
-8 -14 -2 -17 -28 -22 -19 -20
-9 -13 -2 -17 -27 -21 -19 -19
-9 -13 0 -17 -26 -21 -18 -18
-10 -13 0 -17 -26 -21 -17 -18
-10 -11 0 -17 -25 -21 -17 -18
-10 -9 -2 -18 -27 -22 -19 -19
-10 -8 -2 -18 -27 -23 -20 -19
-9 -8 -3 -18 -28 -24 -20 -19
-9 -6 -2 -19 -27 -24 -20 -19
-8 -5 -3 -20 -29 -25 -21 -20
-9 -5 -3 -21 -29 -26 -22 -21
-10 -5 -2 -20 -28 -25 -21 -20
-10 -4 -3 -21 -29 -26 -22 -21
-9 -2 -4 -21 -30 -27 -23 -22
-9 0 -4 -21 -30 -28 -23 -22
-10 1 -4 -21 -30 -30 -25 -22
-11 1 -3 -20 -31 -32 -27 -23
-11 3 0 -19 -31 -34 -28 -24
-12 5 2 -16 -32 -36 -31 -27
-12 6 6 -12 -32 -38 -33 -30
-11 6 10 -6 -31 -39 -35 -32
-10 5 16 4 -29 -39 -36 -34
-8 5 21 16 -24 -36 -34 -34
-7 6 26 29 -13 -28 -26 -29
-5 9 34 51 5 -12 -13 -21
0 14 43 76 27 8 5 -11
5 24 49 96 53 33 28 7
12 38 53 109 80 66 58 30
22 56 58 127 118 106 96 57
31 75 63 147 164 153 137 87
38 98 61 151 204 200 178 117
44 120 50 135 231 241 215 146
48 146 35 106 254 279 250 175
48 177 16 78 282 321 285 205
47 204 -10 48 308 359 319 233
49 213 -35 13 317 377 335 244
49 199 -59 -22 299 359 319 230
45 173 -78 -50 258 309 275 194
36 143 -92 -63 207 237 210 144
27 113 -99 -66 155 157 132 85
19 89 -98 -65 106 85 61 31
12 80 -96 -72 58 27 10 -5
7 84 -95 -83 15 -10 -16 -18
3 89 -95 -96 -21 -31 -26 -22
1 91 -93 -102 -47 -46 -31 -24
-2 93 -83 -98 -64 -55 -36 -26
-2 94 -71 -86 -66 -56 -38 -26
-3 90 -60 -68 -54 -49 -35 -24
-5 87 -54 -58 -43 -44 -34 -26
-8 86 -48 -52 -37 -41 -34 -26
-7 87 -45 -51 -38 -44 -37 -29
-7 87 -40 -48 -37 -44 -38 -32
-8 86 -36 -44 -35 -44 -39 -34
-8 85 -34 -40 -36 -47 -44 -38
-8 84 -32 -39 -37 -51 -48 -43
-8 84 -31 -38 -39 -54 -50 -45
-9 84 -29 -37 -41 -55 -51 -44
-9 84 -30 -38 -43 -56 -52 -44
-9 84 -31 -38 -41 -56 -51 -44
-8 86 -32 -39 -43 -57 -51 -44
-6 87 -32 -40 -44 -57 -52 -44
-5 88 -32 -41 -46 -58 -53 -45
-6 89 -31 -41 -47 -59 -53 -46
-7 89 -30 -40 -48 -60 -53 -47
-8 88 -28 -38 -47 -60 -53 -47
-9 86 -26 -37 -46 -61 -54 -48
-9 85 -27 -37 -46 -63 -55 -48
-9 85 -27 -36 -46 -63 -56 -47
-9 86 -27 -37 -45 -63 -56 -46
-9 86 -28 -38 -45 -63 -56 -45
-8 87 -30 -39 -46 -64 -56 -46
-7 87 -29 -39 -46 -64 -56 -46
-7 87 -28 -38 -47 -63 -55 -45
-7 86 -27 -37 -47 -64 -55 -45
-6 86 -26 -36 -47 -63 -56 -45
-6 85 -26 -36 -47 -63 -56 -45
-6 84 -26 -35 -46 -63 -56 -45
-7 82 -26 -36 -45 -63 -57 -45
-8 82 -25 -35 -41 -60 -55 -44
-8 82 -25 -35 -40 -59 -54 -44
-8 84 -26 -36 -41 -59 -54 -45
-7 85 -25 -36 -40 -58 -53 -44
-6 86 -25 -36 -41 -58 -53 -43
-5 85 -25 -35 -41 -58 -53 -43
-5 81 -24 -34 -40 -58 -54 -43
-6 77 -22 -32 -39 -59 -54 -43
-6 74 -22 -32 -39 -59 -54 -41
-6 73 -22 -31 -38 -59 -54 -41
-6 73 -23 -31 -37 -57 -54 -41
-6 74 -23 -32 -38 -58 -54 -41
-6 74 -23 -32 -36 -58 -54 -41
-6 74 -22 -31 -35 -56 -53 -39
-5 73 -22 -29 -34 -55 -51 -38
-5 72 -21 -29 -33 -56 -50 -37
-5 70 -20 -27 -32 -56 -49 -36
-4 69 -19 -26 -31 -56 -49 -37
-4 67 -19 -25 -31 -55 -49 -37
-4 65 -18 -23 -29 -54 -48 -36
-3 63 -18 -24 -28 -54 -49 -36
-2 63 -18 -24 -27 -53 -48 -33
0 64 -19 -25 -27 -53 -48 -33
-2 64 -18 -24 -25 -53 -48 -31
-2 63 -18 -24 -25 -53 -48 -30
-3 61 -16 -22 -23 -52 -47 -28
-3 60 -16 -21 -23 -53 -46 -28
-3 58 -16 -20 -22 -52 -45 -27
-3 56 -15 -19 -20 -51 -44 -26
-3 55 -15 -18 -18 -50 -44 -25
-2 55 -15 -17 -16 -48 -43 -24
0 55 -16 -18 -16 -48 -41 -25
-3 55 -15 -17 -14 -47 -39 -23
-3 54 -15 -16 -14 -47 -39 -22
0 54 -14 -14 -13 -45 -37 -21
1 54 -14 -14 -12 -44 -36 -21
1 54 -13 -12 -10 -44 -36 -22
1 53 -12 -11 -8 -41 -35 -21
1 52 -12 -10 -8 -41 -34 -22
0 52 -13 -10 -7 -41 -35 -23
0 51 -13 -8 -4 -40 -34 -22
1 52 -14 -9 -3 -40 -35 -21
1 52 -13 -8 -2 -40 -34 -19
1 52 -12 -8 -2 -39 -34 -18
1 52 -12 -7 -2 -39 -33 -16
1 51 -11 -4 0 -37 -32 -14
1 51 -11 -2 2 -36 -31 -14
2 52 -10 0 3 -34 -30 -15
2 54 -11 0 4 -34 -31 -17
3 54 -12 1 6 -33 -29 -16
3 55 -14 1 7 -33 -29 -15
3 56 -13 2 9 -31 -27 -14
4 57 -14 2 10 -30 -27 -14
4 57 -13 4 12 -29 -26 -12
4 57 -12 6 13 -28 -25 -11
4 57 -12 8 15 -27 -24 -10
5 57 -11 10 17 -25 -23 -9
6 59 -12 10 18 -24 -22 -9
6 61 -13 11 19 -22 -21 -9
7 62 -14 13 22 -19 -18 -6
8 64 -15 13 24 -17 -16 -3
8 65 -16 14 26 -16 -15 -2
9 66 -15 15 29 -14 -13 0
11 68 -16 15 30 -13 -13 1
12 70 -16 17 31 -12 -11 3
11 72 -16 19 34 -10 -8 5
11 73 -16 21 37 -7 -6 7
12 73 -18 22 39 -5 -4 8
13 74 -18 24 43 -2 0 10
14 76 -20 25 45 0 2 11
14 79 -21 26 48 3 3 14
15 81 -21 26 49 6 5 15
15 85 -22 25 50 7 7 16
15 87 -23 25 52 8 8 16
15 90 -25 24 53 8 9 17
16 94 -27 23 54 8 8 16
17 100 -29 21 54 9 7 14
18 105 -31 20 54 9 7 13
18 110 -32 19 54 9 6 13
18 113 -33 18 55 9 6 13
18 114 -33 18 56 10 6 14
19 116 -34 17 56 9 5 14
20 117 -36 16 56 10 6 15
20 120 -38 15 56 11 9 16
21 123 -39 14 57 12 11 18
21 125 -38 15 58 13 12 20
21 122 -38 15 58 13 12 21
20 120 -38 15 59 14 14 22
20 120 -38 14 60 15 14 22
21 122 -39 12 60 15 14 21
21 125 -40 12 62 16 15 22
21 127 -43 9 61 15 14 21
19 128 -44 8 59 14 13 21
19 128 -44 7 58 12 12 21
20 127 -43 6 56 10 10 20
20 125 -41 6 55 9 8 19
19 122 -40 6 54 7 6 18
18 121 -39 5 52 6 5 18
17 120 -39 3 50 2 3 17
16 119 -39 1 49 0 2 16
15 119 -39 -3 47 -3 -2 15
14 117 -38 -4 45 -5 -4 15
13 116 -37 -4 42 -7 -6 14
12 114 -36 -6 39 -10 -8 13
10 111 -34 -7 36 -12 -10 12
10 108 -33 -8 33 -14 -12 11
9 103 -30 -9 30 -16 -14 9
8 99 -29 -10 27 -21 -17 6
7 98 -29 -12 23 -26 -21 3
5 96 -29 -14 20 -30 -25 0
4 93 -28 -15 19 -30 -27 -2
4 92 -28 -18 17 -32 -30 -4
6 91 -28 -20 14 -35 -33 -5
4 88 -27 -21 12 -37 -34 -6
2 84 -25 -20 10 -39 -36 -8
2 80 -23 -21 8 -41 -38 -11
1 77 -21 -20 8 -43 -39 -10
0 74 -20 -20 6 -44 -40 -11
-2 71 -20 -21 5 -45 -40 -11
0 69 -20 -22 4 -46 -40 -11
1 67 -20 -24 3 -47 -41 -10
1 64 -19 -24 3 -47 -43 -9
0 60 -18 -23 4 -47 -43 -8
-2 57 -17 -23 4 -48 -44 -9
-3 54 -16 -22 4 -48 -44 -10
-3 51 -14 -21 3 -47 -44 -10
-3 48 -13 -20 3 -47 -44 -10
-3 45 -12 -19 4 -47 -44 -9
-3 42 -11 -19 4 -48 -43 -9
-3 38 -11 -19 3 -48 -43 -8
-4 36 -10 -19 3 -48 -44 -8
-4 34 -10 -19 4 -47 -44 -8
-4 33 -10 -20 4 -48 -45 -9
-4 32 -8 -18 6 -47 -43 -7
-3 30 -8 -17 5 -48 -43 -6
-3 27 -7 -15 6 -46 -43 -4
-2 26 -6 -14 7 -46 -43 -4
-2 25 -6 -14 7 -46 -43 -4
-3 23 -6 -14 8 -45 -41 -3
-3 22 -6 -13 10 -43 -39 0
-3 21 -4 -13 10 -41 -37 1
-4 19 -4 -13 11 -41 -38 1
-5 18 -4 -13 11 -41 -38 1
-5 16 -3 -12 11 -43 -39 1
-5 15 -2 -10 11 -41 -38 2
-5 13 0 -11 11 -43 -39 1
-5 12 1 -9 12 -43 -39 1
-5 12 1 -8 12 -43 -40 1
-6 12 0 -8 12 -43 -41 1
-6 12 0 -9 13 -43 -41 1
-5 12 0 -9 13 -41 -41 2
-5 10 0 -9 13 -41 -40 2
-5 8 1 -8 14 -40 -39 4
-5 7 2 -8 14 -40 -40 4
-5 6 4 -7 15 -39 -39 5
-4 6 3 -7 13 -39 -39 4
-4 6 3 -6 14 -39 -40 4
-4 6 4 -6 14 -39 -41 4
-5 5 4 -5 15 -38 -40 4
-6 4 5 -4 16 -37 -39 5
-5 3 4 -4 17 -37 -39 5
-4 4 3 -5 17 -37 -40 4
-4 6 2 -5 16 -37 -41 2
-5 6 3 -4 18 -36 -40 4
-5 5 3 -3 18 -36 -41 4
-4 3 3 -2 18 -35 -40 5
-5 2 4 0 19 -34 -39 5
-6 1 5 2 20 -33 -39 6
-6 0 6 2 19 -33 -39 8
-4 1 5 1 17 -34 -39 9
-4 1 5 1 18 -34 -38 10
-4 0 5 1 20 -33 -37 11
-4 -2 6 2 22 -31 -36 11
-4 -2 6 3 22 -30 -36 11
-4 -2 6 3 22 -30 -37 11
-4 -2 6 3 21 -30 -37 11
-4 0 5 3 20 -32 -39 10
-3 0 5 3 19 -31 -40 10
-2 1 4 3 19 -32 -41 9
-2 2 4 3 20 -31 -41 10
-3 2 3 3 21 -31 -41 10
-4 3 4 2 21 -30 -41 10
-4 3 5 2 22 -30 -41 10
-3 3 4 3 22 -30 -41 11
-3 3 4 3 22 -29 -41 10
-3 2 5 2 22 -28 -43 10
-3 1 6 4 23 -27 -41 11
-2 1 5 3 22 -28 -43 11
-2 2 4 3 21 -28 -43 12
-3 1 5 3 21 -27 -41 14
-3 1 5 3 22 -27 -40 15
-3 2 4 2 21 -28 -41 14
-4 2 4 2 22 -27 -41 14
-5 2 4 2 21 -27 -41 14
-4 2 5 2 21 -27 -43 14
-3 3 5 2 20 -28 -45 12
-3 3 5 2 20 -28 -46 11
-4 3 4 2 19 -29 -47 10
-4 3 3 1 19 -29 -47 9
-4 3 2 1 19 -29 -46 10
0 5 2 1 19 -28 -46 12
2 6 1 0 19 -28 -45 13
1 6 1 -2 18 -28 -45 14
-2 6 2 0 18 -28 -45 15
-3 7 3 0 17 -30 -47 14
-4 6 2 -2 16 -31 -49 13
-5 5 3 0 16 -30 -50 12
-4 4 3 0 16 -30 -50 11
-4 4 3 1 17 -30 -50 11
-4 4 3 0 16 -30 -51 11
-4 5 2 -2 15 -30 -51 10
-4 6 0 -4 14 -31 -53 9
-4 7 0 -4 14 -31 -53 10
-4 6 0 -4 14 -31 -53 11
-4 6 0 -4 13 -31 -54 11
-4 7 0 -4 12 -31 -56 10
-4 8 0 -4 11 -32 -56 9
-4 8 0 -5 10 -32 -57 8
-3 8 0 -6 9 -34 -58 6
-3 8 0 -7 9 -33 -59 6
-3 7 0 -6 10 -32 -58 7
-4 8 -2 -7 10 -32 -58 7
-4 9 -2 -9 9 -34 -60 6
-4 9 -2 -9 8 -34 -61 6
-5 9 0 -8 8 -34 -61 7
-4 8 0 -8 8 -34 -61 6
-3 8 -2 -8 7 -35 -63 5
-3 8 -2 -8 7 -35 -63 5
-4 9 -3 -8 7 -34 -63 6
-4 10 -3 -9 7 -34 -63 6
-4 10 -4 -10 6 -34 -64 6
-4 10 -4 -11 6 -36 -65 7
-4 10 -4 -12 4 -37 -66 6
-4 10 -4 -12 3 -37 -67 5
-4 11 -4 -12 3 -37 -68 5
-5 11 -4 -12 2 -38 -69 4
-6 11 -4 -11 2 -39 -69 4
-5 11 -3 -11 2 -38 -69 4
-4 11 -4 -11 3 -38 -70 4
-3 12 -5 -12 2 -38 -71 2
-4 12 -5 -13 2 -38 -71 2
-3 12 -5 -13 1 -37 -71 3
0 13 -6 -14 0 -38 -72 4
-2 14 -6 -15 -2 -39 -72 4
-4 14 -6 -14 0 -39 -73 3
-3 14 -7 -14 -2 -40 -75 1
-2 14 -6 -14 -3 -39 -76 2
-3 14 -6 -14 -3 -40 -77 1
-5 15 -6 -14 -3 -39 -76 1
-4 16 -7 -16 -4 -40 -77 0
-3 17 -8 -17 -5 -40 -78 -2
-3 17 -8 -18 -5 -40 -79 0
-4 17 -8 -18 -4 -39 -80 0
-5 17 -8 -18 -5 -40 -82 -2
-5 17 -8 -18 -6 -41 -87 -2
-6 17 -8 -17 -7 -41 -88 -2
-5 17 -8 -17 -7 -41 -87 -3
-4 17 -7 -16 -6 -41 -86 -4
-4 17 -8 -17 -7 -41 -86 -4
-5 17 -8 -17 -7 -41 -85 -5
-5 16 -9 -18 -7 -41 -83 -5
-5 16 -9 -18 -7 -41 -81 -5
-5 16 -10 -18 -7 -40 -79 -3
-4 17 -10 -18 -7 -40 -78 -2
-4 17 -10 -19 -8 -39 -77 -3
-4 17 -9 -19 -8 -39 -77 -3
-4 17 -9 -18 -9 -39 -76 -3
-4 17 -9 -18 -9 -40 -76 -4
-5 18 -9 -19 -10 -40 -77 -7
-6 19 -9 -19 -10 -40 -76 -9
-4 19 -10 -20 -10 -41 -75 -10
-3 19 -11 -20 -10 -40 -73 -10
-4 19 -11 -20 -11 -41 -72 -10
-5 19 -12 -20 -12 -41 -71 -9
-5 19 -11 -20 -12 -41 -70 -8
-4 19 -10 -20 -12 -41 -68 -7
-4 19 -11 -20 -13 -41 -68 -6
-4 20 -11 -20 -13 -41 -68 -6
-5 20 -11 -20 -13 -40 -67 -6
-5 20 -12 -20 -12 -39 -65 -6
-5 20 -12 -21 -12 -39 -64 -6
-5 22 -13 -22 -14 -41 -64 -8
-5 23 -13 -22 -14 -41 -63 -9
-6 24 -13 -22 -14 -41 -62 -9
-6 24 -13 -22 -15 -41 -61 -8
-6 24 -12 -22 -15 -41 -61 -9
-6 25 -13 -22 -15 -41 -60 -9
-5 26 -14 -23 -17 -43 -61 -11
-6 26 -14 -24 -18 -43 -60 -11
-6 27 -14 -24 -19 -44 -59 -11
-6 28 -14 -24 -18 -44 -58 -11
-5 30 -15 -25 -19 -45 -58 -13
-4 31 -16 -26 -19 -46 -58 -14
-4 31 -17 -26 -19 -45 -56 -14
-4 32 -16 -26 -20 -44 -55 -14
-5 33 -15 -26 -20 -44 -53 -13
-4 34 -16 -27 -21 -44 -53 -14
-4 35 -16 -26 -21 -44 -53 -14
-6 36 -17 -27 -22 -45 -52 -14
-7 36 -17 -27 -22 -45 -51 -14
-6 36 -17 -28 -22 -45 -50 -14
-5 37 -18 -29 -23 -46 -50 -15
-5 36 -18 -28 -22 -44 -47 -15
-5 36 -18 -27 -22 -44 -46 -15
-4 36 -18 -28 -23 -44 -45 -16
-4 35 -17 -27 -22 -44 -43 -14
-4 34 -17 -27 -22 -44 -43 -14
-5 35 -16 -26 -22 -43 -43 -14
-4 35 -16 -25 -21 -41 -40 -14
-3 35 -16 -26 -22 -41 -39 -15
-4 35 -15 -24 -20 -40 -36 -13
-3 34 -15 -23 -19 -39 -34 -12
-3 35 -14 -22 -17 -38 -32 -12
-3 35 -11 -21 -16 -36 -29 -10
-3 35 -10 -20 -15 -35 -27 -9
-2 35 -10 -19 -15 -34 -25 -8
-2 35 -10 -19 -14 -34 -23 -7
-2 36 -10 -18 -13 -33 -22 -6
-2 36 -8 -18 -12 -32 -20 -5
0 37 -7 -17 -12 -32 -19 -5
1 38 -6 -16 -12 -30 -17 -6
1 38 -4 -15 -10 -29 -16 -6
-2 38 -2 -14 -9 -28 -14 -6
-4 37 1 -13 -8 -27 -12 -5
-3 37 0 -13 -8 -26 -11 -5
-2 37 -3 -14 -10 -26 -10 -5
0 38 -4 -14 -8 -25 -7 -2
1 39 -6 -15 -6 -23 -5 2
2 40 -6 -13 -5 -21 -2 4
4 40 -5 -11 -2 -18 3 6
5 39 -5 -10 0 -17 8 7
6 38 -6 -9 1 -15 10 7
6 38 -7 -8 3 -13 12 8
7 38 -7 -7 3 -13 12 9
8 38 -6 -6 4 -11 13 9
8 37 -6 -6 3 -11 13 9
9 34 -7 -7 3 -11 12 9
8 30 -8 -7 2 -12 10 8
7 26 -8 -9 0 -14 8 7
6 24 -9 -10 -2 -15 7 6
6 21 -11 -12 -4 -16 5 5
6 18 -13 -15 -7 -18 4 3
6 14 -13 -15 -8 -19 3 3
5 11 -11 -14 -8 -18 2 2
3 9 -9 -12 -7 -18 1 2
2 8 -7 -12 -8 -18 1 2
1 6 -6 -13 -10 -19 -2 2
1 4 -6 -14 -12 -20 -3 2
0 2 -5 -14 -12 -20 -4 2
-2 1 -5 -15 -13 -21 -5 0
-3 0 -5 -16 -15 -21 -6 0
-4 -3 -5 -17 -16 -22 -7 -3
-4 -5 -5 -17 -16 -22 -8 -5
-5 -7 -4 -17 -16 -22 -9 -6
-5 -10 -4 -17 -18 -22 -9 -6
-6 -12 -4 -17 -19 -23 -10 -6
-6 -12 -4 -17 -20 -23 -12 -6
-6 -13 -3 -17 -21 -23 -12 -7
-6 -14 -3 -18 -21 -23 -13 -7
-6 -15 -2 -17 -20 -22 -12 -7
-7 -15 -3 -18 -20 -22 -13 -8
-7 -15 -3 -18 -20 -22 -14 -9
-7 -14 -3 -18 -20 -22 -14 -9
-6 -14 -4 -19 -21 -23 -15 -10
-7 -15 -3 -18 -20 -22 -15 -9
-7 -16 -3 -18 -22 -23 -16 -11
-8 -17 -2 -17 -22 -22 -16 -10
-7 -17 -2 -17 -23 -22 -16 -10
-7 -17 -2 -17 -23 -22 -16 -10
-6 -16 -3 -18 -23 -23 -17 -11
-6 -16 -3 -18 -24 -22 -17 -11
-6 -16 -3 -19 -24 -23 -18 -11
-8 -16 -2 -18 -24 -22 -18 -11
-9 -16 -2 -18 -24 -22 -18 -11
-9 -15 -2 -18 -25 -21 -18 -11
-8 -14 -3 -19 -26 -23 -19 -12
-9 -14 -3 -19 -27 -23 -21 -14
-9 -14 -3 -19 -28 -23 -22 -15
-9 -13 -3 -19 -27 -23 -22 -15
-9 -11 -4 -20 -28 -24 -23 -16
-9 -10 -5 -20 -28 -24 -24 -17
-8 -6 -7 -22 -30 -26 -26 -19
-8 -3 -9 -23 -31 -26 -27 -20
-8 0 -8 -23 -31 -26 -27 -20
-9 1 -8 -23 -32 -26 -27 -21
-9 2 -8 -24 -33 -28 -28 -22
-8 1 -8 -24 -34 -28 -29 -22
-7 1 -9 -24 -35 -28 -29 -23
-8 1 -8 -24 -36 -28 -30 -23
-9 2 -8 -24 -37 -28 -30 -24
-9 4 -8 -24 -38 -28 -31 -25
-9 5 -8 -24 -41 -30 -33 -26
-10 7 -4 -20 -44 -32 -34 -27
-10 7 2 -16 -46 -34 -36 -29
-10 7 7 -11 -47 -36 -39 -31
-9 6 12 -4 -48 -38 -41 -34
-9 4 19 8 -45 -36 -41 -35
-7 4 25 22 -37 -29 -36 -33
-4 6 32 40 -23 -17 -26 -26
1 8 43 65 -3 2 -9 -17
6 13 51 86 22 27 14 -2
12 21 53 97 48 60 42 19
21 33 55 110 80 97 75 44
30 50 62 131 123 144 116 71
39 69 62 142 169 194 158 102
46 91 52 129 198 237 195 131
49 112 35 102 221 275 228 157
49 138 15 74 248 315 264 187
50 164 -10 45 280 358 299 218
51 179 -40 12 302 390 323 237
51 170 -69 -21 303 394 327 237
51 144 -91 -43 281 366 305 215
48 114 -107 -53 240 310 256 175
40 80 -110 -51 193 237 187 123
32 50 -107 -50 141 157 112 66
23 29 -98 -50 91 90 50 22
16 23 -91 -59 39 38 11 -2
11 24 -86 -70 -4 9 -5 -8
8 26 -82 -78 -36 -7 -12 -11
4 26 -73 -76 -56 -15 -17 -13
1 25 -59 -66 -67 -20 -19 -13
1 22 -49 -54 -63 -18 -19 -14
2 17 -39 -43 -52 -12 -17 -16
1 11 -32 -33 -44 -8 -16 -16
-2 8 -26 -28 -41 -6 -16 -17
-3 5 -21 -25 -40 -6 -17 -19
-4 2 -15 -19 -37 -6 -17 -19
-4 -3 -10 -14 -38 -7 -17 -21
-4 -7 -7 -9 -39 -8 -19 -22
-4 -10 -6 -8 -41 -10 -21 -24
-5 -12 -4 -9 -43 -11 -22 -25
-5 -13 -3 -8 -44 -10 -22 -26
-5 -14 -3 -9 -44 -11 -23 -27
-6 -15 -2 -8 -44 -10 -22 -26
-6 -16 0 -8 -45 -12 -22 -26
-6 -16 1 -8 -46 -13 -23 -27
-7 -17 3 -6 -47 -13 -23 -27
-8 -18 4 -6 -49 -14 -24 -28
-8 -20 4 -5 -50 -16 -25 -28
-8 -20 4 -6 -50 -16 -25 -29
-8 -20 4 -6 -51 -16 -25 -30
-8 -20 4 -6 -50 -15 -25 -31
-8 -21 5 -5 -49 -14 -24 -30
-8 -21 5 -6 -49 -14 -24 -31
-7 -21 4 -6 -50 -14 -24 -32
-6 -20 5 -5 -51 -14 -23 -32
-5 -20 6 -4 -51 -14 -23 -32
-5 -21 6 -4 -52 -14 -24 -32
-5 -22 6 -3 -53 -15 -25 -33
-6 -22 6 -3 -53 -15 -25 -35
-7 -23 6 -2 -53 -14 -25 -34
-7 -22 6 -2 -52 -14 -25 -34
-6 -22 5 -3 -52 -13 -25 -35
-6 -22 6 -4 -52 -12 -25 -34
-7 -22 7 -4 -51 -12 -23 -34
-6 -22 6 -4 -53 -13 -24 -35
-6 -22 7 -3 -53 -12 -24 -35
-6 -22 7 -3 -54 -12 -24 -36
-6 -22 7 -2 -54 -13 -24 -37
-5 -22 7 -2 -55 -12 -25 -37
-5 -22 8 0 -54 -12 -25 -37
-6 -22 7 0 -54 -11 -25 -38
-6 -22 7 -2 -53 -11 -24 -38
-6 -22 7 -2 -53 -10 -24 -38
-6 -21 7 0 -52 -9 -23 -37
-6 -21 8 0 -52 -10 -23 -37
-7 -21 8 1 -54 -10 -24 -37
-7 -21 8 1 -55 -11 -25 -38
-6 -21 8 2 -55 -10 -26 -39
-6 -21 8 2 -55 -10 -25 -40
-6 -21 7 2 -54 -9 -24 -40
-6 -21 7 3 -53 -9 -23 -39
-5 -20 7 3 -52 -8 -23 -39
-5 -20 7 3 -51 -7 -22 -38
-6 -19 8 3 -51 -6 -22 -38
-5 -18 7 3 -53 -6 -22 -38
-5 -18 8 4 -54 -6 -22 -38
-5 -18 8 5 -54 -7 -22 -38
-4 -18 9 6 -54 -7 -23 -39
-4 -18 8 6 -54 -7 -22 -39
-4 -18 8 7 -53 -7 -22 -39
-4 -18 7 7 -52 -7 -22 -40
-3 -18 7 8 -51 -5 -21 -40
-3 -17 7 6 -51 -5 -22 -41
-3 -17 8 6 -51 -4 -21 -40
-2 -16 9 8 -50 -3 -20 -40
-2 -15 8 8 -51 -4 -21 -41
-2 -16 9 10 -50 -3 -20 -40
-2 -16 9 11 -50 -4 -20 -41
-2 -16 8 12 -50 -4 -20 -41
-2 -16 8 12 -49 -3 -19 -40
-3 -16 7 12 -49 -2 -19 -39
-3 -16 8 13 -47 1 -17 -37
-3 -14 8 13 -47 2 -17 -35
-3 -13 8 14 -46 4 -16 -32
-3 -13 9 15 -48 4 -15 -31
-3 -12 9 16 -47 4 -14 -30
-2 -12 8 17 -46 4 -14 -29
0 -12 9 19 -45 4 -14 -28
-2 -12 9 19 -43 5 -13 -26
-2 -12 9 20 -40 6 -12 -25
-3 -11 9 20 -37 7 -11 -23
-3 -11 9 21 -33 9 -10 -21
0 -9 8 22 -30 11 -9 -18
2 -8 8 24 -28 13 -8 -16
3 -7 8 25 -26 14 -8 -15
3 -7 9 27 -25 14 -6 -12
3 -6 9 29 -23 15 -6 -11
3 -6 9 31 -20 16 -5 -10
4 -5 8 32 -18 17 -4 -9
4 -5 8 34 -14 20 -2 -6
5 -4 8 36 -9 23 1 -4
5 -3 7 35 -6 25 2 -2
4 0 7 36 -2 28 5 3
4 2 7 38 2 29 6 6
6 3 7 39 5 31 7 8
7 3 7 42 8 33 10 11
8 4 6 44 10 35 11 13
9 5 7 47 14 37 13 16
10 7 7 48 17 39 14 18
11 7 6 49 20 43 16 20
11 7 6 51 25 45 19 22
11 9 6 52 32 48 22 26
11 11 4 53 36 50 24 28
11 12 4 54 40 54 27 32
12 12 4 54 42 56 29 34
13 14 4 55 43 57 30 37
14 15 4 56 44 60 32 40
15 16 3 57 45 61 34 43
15 16 3 58 47 63 36 45
15 17 4 58 49 64 38 47
16 18 2 58 50 65 39 47
16 19 1 58 51 68 42 49
16 20 -2 57 52 69 43 49
17 21 -2 56 52 70 44 50
18 22 -3 56 52 71 44 50
18 22 -3 56 52 71 45 50
18 22 -3 56 52 71 46 51
18 22 -2 57 53 72 47 51
19 23 -3 56 52 72 46 50
19 23 -5 55 52 72 47 51
19 23 -6 53 53 73 48 51
19 24 -6 52 53 74 49 51
18 25 -6 51 53 74 49 52
18 26 -6 50 52 74 49 53
18 26 -6 49 51 74 49 52
18 26 -6 49 49 72 48 51
17 26 -6 48 47 70 47 50
16 26 -6 47 45 68 45 48
16 25 -5 46 44 68 44 47
15 24 -5 44 42 66 42 45
14 23 -5 42 38 64 40 44
12 22 -4 38 36 62 38 43
11 22 -5 35 32 58 35 40
10 21 -4 33 30 56 33 38
10 20 -5 29 25 51 29 35
9 19 -5 27 21 48 26 32
8 17 -3 26 17 44 23 30
7 15 -2 25 13 39 19 27
6 13 0 23 9 36 16 25
6 12 -2 20 5 32 12 21
5 11 -2 18 2 30 10 19
4 10 -2 15 0 27 7 17
2 8 -2 13 -4 25 5 15
1 6 -2 10 -7 22 3 13
0 5 0 9 -11 19 1 11
0 4 1 8 -14 15 -3 9
0 3 1 7 -17 12 -6 6
0 2 1 6 -20 11 -8 5
-2 1 1 4 -23 9 -10 3
-2 0 1 3 -24 7 -12 2
-3 -3 1 2 -26 6 -13 0
-3 -3 1 0 -28 4 -15 -3
-4 -3 0 -3 -29 3 -16 -5
-5 -4 1 -3 -30 2 -16 -5
-6 -4 1 -4 -31 1 -17 -6
-6 -4 1 -4 -32 0 -18 -7
-5 -4 1 -4 -33 -3 -19 -8
-5 -5 1 -4 -34 -4 -20 -9
-5 -5 1 -5 -35 -4 -21 -10
-5 -6 0 -5 -37 -5 -21 -11
-7 -6 0 -5 -37 -4 -22 -11
-8 -6 0 -7 -38 -5 -22 -11
-7 -6 0 -9 -39 -5 -22 -12
-7 -6 0 -9 -39 -5 -22 -12
-7 -6 0 -9 -39 -6 -22 -13
-8 -6 0 -9 -40 -7 -23 -15
-8 -6 0 -8 -41 -7 -23 -15
-8 -6 1 -7 -41 -7 -23 -15
-8 -6 1 -7 -41 -7 -22 -15
-8 -6 1 -7 -43 -8 -23 -15
-8 -7 2 -7 -41 -7 -22 -14
-7 -7 1 -8 -43 -7 -22 -15
-6 -6 1 -8 -43 -7 -22 -15
-6 -6 1 -8 -44 -7 -22 -15
-6 -6 1 -9 -44 -8 -22 -15
-6 -6 1 -8 -45 -8 -22 -15
-6 -5 0 -9 -46 -10 -23 -16
-7 -6 1 -8 -46 -9 -23 -17
-7 -6 1 -8 -47 -9 -23 -19
-7 -6 0 -8 -46 -9 -23 -19
-7 -6 0 -8 -45 -8 -22 -19
-7 -7 0 -8 -46 -8 -22 -19
-7 -7 0 -9 -46 -9 -22 -19
-8 -7 1 -8 -46 -8 -21 -18
-8 -6 0 -8 -46 -9 -22 -19
-7 -5 1 -7 -46 -9 -22 -18
-6 -5 0 -8 -47 -10 -23 -20
-7 -6 2 -6 -46 -9 -22 -19
-7 -6 2 -6 -46 -9 -23 -19
-7 -6 1 -6 -47 -9 -23 -19
-7 -6 0 -6 -47 -8 -22 -19
-8 -5 1 -6 -46 -7 -22 -20
-7 -5 2 -7 -46 -8 -22 -20
-6 -5 1 -8 -47 -9 -22 -21
-6 -5 0 -7 -47 -9 -22 -21
-7 -5 1 -6 -46 -8 -21 -20
-7 -5 2 -5 -46 -8 -21 -20
-7 -5 3 -4 -47 -7 -21 -20
-6 -5 2 -4 -48 -8 -22 -21
-7 -5 3 -3 -47 -6 -21 -20
-7 -6 2 -4 -46 -6 -21 -21
-7 -5 2 -4 -45 -6 -21 -20
-6 -4 1 -4 -47 -7 -21 -20
-5 -3 0 -5 -48 -7 -21 -21
-4 -3 1 -5 -48 -7 -21 -21
-4 -3 1 -4 -48 -7 -21 -22
-5 -3 1 -4 -48 -7 -21 -22
-6 -3 2 -2 -47 -6 -20 -21
-6 -3 3 -2 -47 -5 -19 -21
-5 -3 2 -3 -47 -6 -19 -22
-5 -3 1 -3 -46 -6 -19 -22
-5 -4 2 -2 -47 -5 -18 -21
-6 -4 1 -3 -48 -5 -18 -22
-8 -4 2 -3 -47 -4 -17 -21
-8 -4 3 -2 -47 -5 -17 -21
-7 -3 3 -2 -48 -6 -17 -21
-6 -3 3 -2 -47 -5 -17 -20
-6 -2 2 -2 -48 -5 -17 -21
-5 -2 3 -2 -48 -5 -17 -22
-5 -2 3 -3 -48 -6 -16 -22
-5 -2 3 -3 -47 -5 -16 -22
-5 0 3 -3 -47 -4 -15 -22
-5 0 2 -3 -47 -3 -14 -21
-5 1 1 -4 -48 -3 -15 -21
-5 1 1 -5 -48 -4 -15 -21
-6 1 3 -4 -47 -3 -14 -20
-6 1 3 -3 -48 -4 -14 -21
-6 1 3 -3 -48 -4 -14 -21
-5 1 1 -3 -49 -4 -15 -22
-5 1 1 -4 -49 -5 -14 -22
-5 1 1 -4 -49 -5 -14 -22
-6 1 2 -4 -48 -4 -12 -22
-6 1 1 -5 -49 -3 -12 -22
-5 1 0 -6 -50 -4 -13 -23
-3 2 0 -6 -51 -6 -14 -24
-3 1 1 -5 -50 -5 -13 -23
-4 1 1 -5 -50 -5 -13 -23
-4 1 2 -5 -51 -5 -13 -24
-4 1 2 -6 -51 -6 -13 -24
-4 1 2 -6 -51 -6 -13 -25
-5 0 2 -6 -51 -5 -13 -24
-4 0 1 -8 -53 -7 -14 -25
-4 1 1 -8 -53 -7 -13 -24
-5 1 1 -8 -53 -7 -13 -24
-6 0 2 -7 -53 -6 -12 -23
-6 0 2 -8 -54 -6 -13 -24
-5 -2 2 -8 -54 -7 -14 -26
-4 -2 1 -8 -55 -7 -14 -27
-4 -2 0 -8 -55 -8 -14 -27
-4 -3 1 -8 -56 -8 -14 -26
-4 -3 1 -9 -56 -9 -14 -26
-5 -3 1 -9 -57 -9 -14 -26
-5 -3 0 -9 -59 -8 -13 -26
-5 -2 0 -9 -59 -8 -13 -27
-5 -3 0 -10 -59 -9 -14 -28
-5 -4 1 -9 -57 -9 -14 -28
-5 -4 1 -9 -57 -9 -14 -28
-6 -4 2 -9 -56 -9 -14 -28
-6 -4 2 -9 -55 -10 -15 -28
-5 -5 2 -10 -54 -10 -15 -29
-4 -5 2 -11 -52 -10 -15 -29
-4 -5 2 -11 -51 -10 -14 -29
-4 -5 1 -11 -50 -10 -14 -28
-3 -5 0 -13 -49 -11 -15 -29
-3 -5 1 -12 -48 -11 -15 -30
-3 -5 1 -12 -47 -12 -15 -30
-4 -6 2 -11 -46 -12 -15 -30
-4 -6 2 -12 -45 -12 -15 -30
-5 -7 2 -11 -43 -12 -15 -30
-6 -8 1 -11 -43 -12 -15 -30
-7 -9 2 -11 -40 -11 -14 -30
-6 -9 1 -12 -39 -11 -14 -30
-5 -9 0 -13 -38 -12 -15 -31
-6 -8 1 -13 -36 -11 -14 -30
-6 -9 1 -12 -34 -11 -13 -28
-5 -9 0 -13 -35 -13 -15 -28
-5 -10 2 -12 -33 -12 -14 -26
-5 -10 2 -12 -32 -12 -15 -25
-5 -10 1 -12 -31 -13 -15 -24
-5 -10 1 -12 -30 -13 -15 -24
-4 -10 0 -13 -29 -15 -16 -23
-4 -10 0 -14 -28 -14 -16 -20
-4 -10 0 -15 -27 -14 -16 -19
-5 -10 1 -14 -26 -14 -15 -17
-5 -10 1 -13 -24 -14 -14 -16
-6 -10 1 -13 -23 -14 -14 -14
-6 -10 1 -13 -22 -15 -15 -14
-7 -11 2 -13 -20 -14 -15 -13
-7 -11 2 -13 -20 -14 -16 -12
-7 -12 2 -14 -19 -14 -16 -12
-7 -12 2 -14 -18 -14 -16 -11
-6 -11 1 -15 -17 -15 -16 -10
-5 -11 2 -14 -15 -15 -15 -8
-5 -11 1 -14 -13 -15 -15 -6
-6 -12 2 -13 -10 -14 -14 -4
-6 -13 1 -13 -7 -15 -15 -3
-5 -13 2 -13 -7 -15 -16 -2
-4 -12 1 -14 -8 -16 -16 -2
-4 -12 1 -14 -8 -16 -15 0
-4 -12 0 -14 -8 -16 -15 0
-5 -12 0 -15 -8 -17 -16 1
-5 -12 0 -15 -8 -17 -16 4
-6 -12 1 -14 -6 -15 -15 7
-6 -12 1 -14 -7 -15 -14 8
-5 -11 0 -14 -8 -16 -15 7
-5 -11 0 -14 -9 -16 -15 6
-4 -12 1 -14 -10 -17 -15 6
-4 -12 0 -14 -10 -17 -16 5
-4 -12 0 -14 -10 -18 -16 4
-4 -12 0 -14 -9 -18 -16 4
-4 -12 0 -15 -9 -17 -16 4
-5 -11 0 -16 -9 -17 -16 4
-6 -11 0 -15 -9 -17 -15 4
-6 -11 1 -15 -10 -17 -15 5
-6 -11 0 -16 -11 -17 -15 5
-6 -12 1 -16 -10 -17 -15 5
-6 -11 0 -16 -11 -19 -16 3
-5 -11 1 -15 -11 -19 -16 3
-5 -11 0 -14 -11 -18 -15 4
-4 -12 0 -15 -11 -18 -15 3
-4 -12 0 -15 -11 -18 -15 3
-5 -12 0 -15 -12 -18 -15 3
-6 -12 0 -14 -11 -17 -14 3
-8 -12 0 -15 -12 -17 -14 3
-8 -12 0 -16 -12 -18 -14 3
-6 -12 1 -15 -11 -18 -14 3
-5 -12 0 -16 -13 -19 -15 2
-6 -13 1 -15 -13 -19 -15 2
-6 -12 1 -15 -13 -19 -15 1
-6 -11 -2 -17 -14 -20 -16 0
-5 -11 -2 -17 -14 -19 -16 0
-5 -11 -2 -17 -14 -19 -15 0
-4 -11 -2 -17 -14 -19 -14 0
-3 -11 -2 -17 -14 -20 -15 0
-4 -10 0 -16 -14 -20 -15 1
-5 -10 1 -15 -13 -19 -14 1
-5 -10 1 -15 -14 -19 -14 0
-4 -11 0 -15 -15 -19 -15 -2
-4 -11 0 -16 -15 -19 -15 -2
-5 -11 0 -16 -15 -19 -15 -3
-6 -12 0 -16 -15 -19 -14 -2
-6 -13 0 -16 -15 -19 -13 -2
-5 -12 -2 -16 -15 -20 -13 -2
-3 -11 -3 -17 -16 -20 -13 -3
-4 -11 -2 -15 -15 -20 -12 0
-5 -11 -2 -15 -16 -20 -12 -2
-5 -11 0 -15 -17 -20 -12 -2
-5 -11 0 -15 -16 -19 -12 -3
-5 -10 0 -15 -16 -20 -12 -3
-4 -10 -2 -16 -17 -22 -14 -4
-4 -10 -3 -17 -18 -22 -14 -4
-5 -11 -2 -18 -17 -21 -13 -3
-5 -11 -3 -18 -17 -21 -13 -3
-5 -11 -2 -17 -17 -21 -12 -3
-6 -11 -2 -17 -17 -21 -12 -2
-6 -11 0 -17 -18 -21 -12 -2
-6 -12 1 -15 -17 -20 -11 -2
-6 -12 1 -15 -17 -20 -11 -2
-5 -12 0 -16 -18 -21 -12 -4
-4 -11 0 -16 -18 -21 -12 -4
-4 -11 1 -16 -18 -21 -12 -3
-4 -10 0 -16 -18 -21 -12 -4
-4 -10 0 -16 -18 -20 -11 -4
-4 -9 1 -16 -17 -19 -11 -3
-3 -7 0 -16 -17 -19 -11 -2
-3 -6 0 -14 -16 -18 -9 0
-2 -4 2 -13 -15 -17 -8 0
-2 -3 3 -12 -15 -17 -8 0
0 0 3 -11 -14 -16 -7 1
0 1 4 -10 -12 -15 -6 3
1 3 5 -10 -11 -14 -5 3
1 5 5 -10 -11 -13 -5 3
2 6 6 -9 -10 -12 -3 4
2 5 7 -8 -10 -12 -3 4
2 5 8 -7 -10 -12 -3 4
2 6 10 -6 -9 -11 -2 4
2 7 10 -7 -10 -13 -3 3
1 7 10 -8 -10 -13 -3 3
1 6 10 -9 -11 -14 -4 2
1 6 9 -8 -9 -13 -3 3
3 9 6 -8 -8 -11 0 4
5 12 5 -7 -5 -8 3 7
6 12 4 -6 -4 -7 5 7
7 12 3 -6 -4 -6 6 8
9 11 2 -5 -3 -5 6 8
8 11 3 -3 -2 -5 7 8
7 12 5 0 0 -4 7 9
8 12 6 2 1 -3 8 10
9 11 3 1 1 -3 8 11
10 9 -2 -4 -3 -5 7 9
11 8 -5 -8 -6 -7 5 7
10 7 -4 -8 -6 -6 6 6
9 6 -4 -8 -7 -7 5 5
8 5 -5 -8 -7 -8 5 5
8 1 -6 -10 -10 -11 2 2
8 -4 -6 -12 -12 -14 0 0
8 -6 -7 -14 -16 -16 -5 -3
6 -5 -5 -15 -16 -17 -4 -3
5 -4 -4 -15 -17 -17 -4 -4
4 -4 -4 -15 -18 -18 -5 -4
3 -4 -5 -16 -19 -20 -6 -5
2 -4 -4 -17 -20 -19 -6 -4
1 -4 -3 -18 -20 -19 -6 -5
0 -4 -3 -19 -20 -20 -6 -6
-3 -5 -3 -19 -21 -20 -7 -7
-5 -7 0 -18 -22 -20 -7 -8
-5 -9 -3 -20 -24 -23 -10 -10
-5 -11 -3 -20 -25 -25 -12 -10
-6 -13 -3 -20 -27 -25 -12 -11
-6 -13 -3 -21 -27 -26 -13 -12
-5 -12 -4 -22 -28 -27 -14 -13
-5 -12 -4 -22 -28 -26 -13 -13
-6 -12 -3 -21 -27 -26 -12 -12
-6 -12 -3 -22 -27 -26 -12 -12
-5 -11 -4 -23 -28 -26 -12 -13
-5 -11 -3 -23 -28 -27 -13 -13
-7 -10 -3 -22 -28 -28 -13 -13
-6 -10 -3 -22 -28 -28 -14 -14
-6 -11 -3 -23 -28 -29 -15 -14
-6 -11 -3 -23 -29 -29 -15 -15
-7 -12 -2 -23 -29 -27 -14 -15
-7 -12 -2 -23 -29 -27 -14 -16
-7 -13 -2 -23 -29 -27 -14 -16
-7 -13 -2 -23 -29 -28 -14 -16
-8 -13 0 -22 -28 -28 -13 -15
-8 -13 0 -22 -28 -28 -13 -14
-7 -12 -2 -22 -30 -30 -14 -15
-7 -12 -3 -22 -30 -30 -15 -15
-7 -12 -4 -23 -31 -30 -16 -16
-7 -12 -3 -24 -31 -30 -16 -16
-7 -13 -3 -24 -31 -30 -16 -17
-7 -13 -2 -24 -30 -29 -16 -16
-8 -13 0 -23 -29 -28 -15 -15
-8 -13 0 -23 -29 -28 -14 -15
-7 -13 -2 -24 -30 -30 -15 -16
-7 -13 -2 -24 -31 -30 -15 -16
-7 -13 -2 -24 -31 -31 -15 -15
-6 -12 -2 -24 -31 -31 -15 -15
-6 -12 -2 -23 -31 -31 -15 -14
-7 -12 0 -23 -31 -31 -15 -14
-7 -12 0 -23 -30 -31 -15 -15
-7 -12 0 -24 -30 -30 -15 -15
-7 -12 1 -23 -30 -30 -15 -15
-8 -11 3 -22 -31 -32 -16 -16
-9 -9 7 -20 -31 -34 -18 -18
-10 -8 12 -15 -31 -36 -19 -19
-11 -9 16 -10 -31 -38 -21 -20
-12 -10 22 -3 -31 -39 -23 -22
-12 -11 27 7 -30 -40 -25 -24
-11 -11 34 20 -24 -36 -21 -22
-8 -10 43 38 -13 -26 -14 -18
-4 -9 53 60 4 -11 0 -11
3 -5 62 81 26 10 19 3
11 3 69 101 53 37 45 20
21 14 74 125 88 73 77 44
31 29 77 151 133 118 116 71
43 49 71 160 177 165 158 102
52 70 55 140 209 209 197 131
60 92 32 105 229 244 231 157
64 113 8 69 250 281 264 184
65 135 -22 33 276 322 301 215
65 149 -58 -8 298 353 328 237
69 143 -87 -37 303 360 337 240
71 119 -107 -49 288 340 320 221
69 91 -118 -50 258 294 279 188
61 64 -121 -50 214 228 219 143
47 38 -110 -48 165 155 147 92
33 20 -93 -49 116 87 82 46
24 11 -80 -55 68 35 37 18
18 11 -75 -66 26 4 16 7
13 15 -71 -73 -4 -12 8 5
9 18 -60 -70 -21 -19 4 4
6 17 -47 -60 -32 -23 2 4
4 13 -38 -52 -34 -25 1 3
4 9 -32 -44 -28 -22 1 1
3 6 -25 -35 -20 -19 2 -2
1 4 -18 -30 -18 -17 1 -2
-2 2 -14 -27 -18 -18 0 -4
0 0 -10 -23 -17 -18 -2 -5
1 -3 -5 -17 -15 -18 -3 -5
0 -5 -2 -13 -15 -19 -3 -6
-2 -8 0 -13 -16 -21 -5 -8
-3 -9 1 -13 -18 -22 -6 -9
-4 -9 1 -14 -19 -23 -8 -10
-5 -9 2 -14 -20 -25 -9 -10
-5 -9 3 -14 -21 -25 -10 -11
-4 -9 4 -14 -21 -25 -10 -11
-4 -9 4 -14 -22 -25 -11 -12
-3 -9 4 -13 -23 -26 -11 -13
-4 -10 4 -13 -24 -27 -12 -13
-5 -11 5 -11 -24 -27 -12 -13
-6 -12 5 -11 -24 -28 -12 -13
-6 -13 5 -11 -24 -28 -12 -14
-6 -13 6 -10 -24 -28 -12 -13
-5 -12 6 -11 -24 -29 -12 -14
-5 -12 7 -11 -24 -28 -11 -13
-4 -11 7 -11 -23 -27 -11 -13
-4 -11 8 -11 -23 -27 -11 -13
-4 -12 7 -11 -24 -28 -11 -13
-4 -13 7 -10 -24 -28 -13 -14
-5 -15 8 -9 -24 -28 -13 -13
-6 -15 9 -8 -23 -28 -12 -13
-6 -14 8 -9 -24 -28 -13 -14
-6 -14 9 -9 -23 -27 -12 -13
-5 -13 10 -9 -22 -26 -11 -13
-5 -12 9 -10 -23 -27 -12 -13
-5 -12 9 -10 -23 -26 -11 -13
-4 -12 9 -9 -22 -26 -10 -13
-3 -12 10 -8 -22 -25 -10 -13
-3 -12 9 -8 -22 -25 -11 -13
-3 -12 9 -7 -23 -26 -12 -14
-4 -12 9 -7 -22 -26 -11 -14
-4 -13 9 -7 -22 -26 -11 -13
-5 -13 10 -6 -21 -24 -9 -12
-5 -12 9 -7 -21 -25 -10 -13
-5 -12 10 -7 -20 -24 -9 -12
-5 -11 10 -7 -20 -24 -9 -12
-4 -11 10 -6 -20 -24 -9 -11
-3 -10 9 -6 -21 -25 -10 -12
-3 -10 9 -6 -21 -25 -10 -13
-3 -10 9 -5 -22 -26 -10 -13
-2 -10 9 -4 -21 -25 -10 -13
-2 -11 9 -4 -20 -25 -10 -12
-2 -11 10 -3 -19 -24 -9 -12
-3 -11 10 -3 -18 -24 -8 -12
-3 -11 10 -3 -18 -23 -7 -12
-3 -10 11 -3 -18 -23 -7 -11
-3 -10 11 -3 -17 -23 -6 -10
-2 -9 10 -3 -18 -24 -7 -11
-2 -9 9 -2 -18 -23 -6 -11
0 -9 9 1 -17 -23 -6 -11
0 -9 10 2 -16 -23 -6 -11
0 -11 11 2 -15 -21 -6 -10
-2 -12 10 2 -15 -21 -6 -10
-2 -12 10 3 -14 -21 -5 -10
-3 -11 11 3 -14 -20 -4 -9
-3 -10 12 4 -13 -19 -3 -8
-3 -10 12 4 -12 -18 -3 -8
-2 -10 12 5 -11 -18 -2 -6
0 -10 10 4 -12 -19 -3 -7
0 -10 10 6 -12 -19 -3 -8
0 -10 11 7 -11 -18 -3 -7
0 -11 12 8 -10 -17 0 -6
0 -11 12 9 -9 -16 1 -6
1 -9 12 9 -8 -16 2 -6
1 -8 11 9 -7 -15 2 -5
2 -8 11 10 -6 -14 3 -5
3 -7 10 10 -6 -14 2 -6
3 -6 11 12 -5 -13 3 -5
2 -6 11 12 -5 -13 4 -5
0 -7 11 14 -4 -12 4 -5
-2 -8 11 17 -2 -11 5 -4
1 -7 11 17 0 -10 6 -4
2 -6 10 17 1 -9 6 -4
2 -6 11 18 3 -7 7 -3
1 -5 11 19 5 -5 9 -2
3 -4 12 21 6 -3 11 0
4 -3 13 22 7 -2 12 1
3 -3 13 24 9 0 14 2
4 -2 12 25 9 0 14 2
6 -2 13 27 11 1 15 3
6 -2 13 29 13 3 16 4
6 0 12 29 14 4 16 5
6 1 12 32 16 7 19 6
6 2 13 34 19 9 21 8
6 2 14 35 22 12 23 10
7 2 13 36 24 14 24 11
8 3 13 38 26 16 26 13
9 4 12 39 27 18 28 14
10 6 11 42 29 20 29 14
11 6 11 45 32 23 32 16
12 7 11 46 34 24 34 17
12 7 10 47 37 27 36 19
13 8 9 47 39 29 38 19
13 10 10 49 44 32 42 21
14 12 10 50 46 35 45 23
15 13 9 50 48 37 47 25
16 14 8 51 49 39 49 27
17 15 8 52 52 43 51 28
17 16 7 52 52 44 52 29
17 17 7 53 54 46 54 30
18 17 7 54 56 48 56 32
19 17 6 54 58 49 58 34
20 18 6 55 61 52 61 36
20 19 6 55 62 53 62 37
20 20 5 55 64 56 64 39
21 21 4 55 65 57 65 40
22 22 3 55 66 58 66 42
22 22 3 55 67 60 68 43
21 22 3 55 67 60 68 43
21 22 3 55 68 61 69 43
22 23 2 54 67 60 69 42
22 23 2 54 67 61 70 43
22 23 1 54 68 62 71 44
22 24 1 54 69 63 72 45
22 24 1 53 70 63 73 46
23 25 -2 51 69 63 72 45
24 25 -2 50 69 63 72 45
23 25 -3 49 68 62 71 45
22 23 -2 49 67 61 70 44
21 22 -2 47 66 60 69 43
20 21 0 46 65 59 68 43
20 21 1 45 63 57 66 43
19 21 1 44 61 55 65 42
18 21 1 40 58 53 62 39
16 18 3 39 57 51 61 39
15 17 3 37 54 48 59 37
14 17 2 34 50 45 55 34
14 16 2 32 46 42 51 31
13 14 2 29 42 38 48 29
12 11 3 28 38 33 45 27
10 9 3 25 35 29 42 24
9 8 3 23 32 27 38 22
8 6 4 21 29 24 35 20
7 5 3 18 26 21 32 17
6 4 4 16 23 19 30 16
5 3 5 14 20 16 28 15
4 2 5 12 15 12 24 13
4 1 5 10 12 10 22 11
3 -2 6 9 10 7 19 9
3 -3 5 6 7 4 16 5
2 -5 6 5 5 2 14 4
0 -6 6 4 3 1 13 4
-2 -7 6 3 2 0 12 3
0 -8 6 2 1 -3 10 2
0 -8 6 0 -2 -5 9 1
-2 -8 5 -2 -4 -6 8 0
-2 -8 4 -3 -6 -8 7 -2
-2 -9 4 -3 -7 -9 5 -3
0 -9 5 -4 -8 -10 4 -4
-2 -10 5 -4 -8 -10 3 -4
-2 -11 4 -5 -9 -11 2 -5
-3 -11 5 -5 -10 -12 1 -5
-3 -11 5 -6 -11 -13 0 -6
-3 -12 6 -5 -10 -12 1 -5
-3 -12 5 -5 -10 -12 1 -5
-4 -12 5 -5 -9 -12 1 -5
-4 -12 5 -6 -10 -12 1 -5
-4 -12 5 -7 -11 -13 0 -6
-4 -13 5 -7 -13 -13 -2 -6
-4 -13 5 -7 -13 -14 -2 -7
-4 -14 6 -6 -12 -13 0 -6
-5 -14 6 -7 -13 -13 -2 -7
-5 -14 6 -7 -13 -13 -2 -7
-6 -13 6 -7 -12 -13 -2 -6
-5 -13 6 -7 -12 -13 0 -6
-5 -13 6 -7 -12 -13 0 -5
-4 -13 4 -8 -12 -13 0 -6
-4 -13 4 -8 -12 -13 -2 -6
-4 -13 4 -8 -12 -13 -2 -7
-4 -13 4 -8 -13 -14 -2 -8
-3 -13 4 -8 -13 -14 -2 -8
-3 -13 4 -8 -13 -14 -2 -7
-4 -13 4 -8 -12 -14 -2 -7
-4 -12 4 -8 -12 -14 -2 -7
-5 -13 5 -7 -11 -13 0 -6
-5 -13 4 -8 -11 -13 0 -6
-5 -12 4 -8 -13 -13 -2 -7
-4 -12 4 -7 -13 -13 -2 -8
-4 -13 4 -7 -13 -14 -2 -8
-4 -14 5 -6 -12 -14 -2 -8
-4 -14 5 -6 -12 -14 -3 -8
-5 -14 5 -6 -12 -13 -3 -8
-5 -14 5 -6 -12 -13 -2 -8
-5 -13 5 -6 -12 -13 -2 -8
-6 -13 6 -6 -11 -13 -2 -8
-6 -13 6 -5 -10 -13 -2 -7
-4 -12 5 -5 -11 -13 -2 -7
-3 -12 4 -5 -11 -13 -2 -6
-4 -13 4 -5 -12 -14 -3 -6
-5 -13 5 -4 -12 -14 -3 -6
-4 -13 4 -5 -12 -14 -4 -7
-5 -13 5 -4 -10 -12 -3 -7
-6 -13 6 -4 -10 -13 -2 -7
-5 -13 6 -5 -10 -13 -2 -7
-4 -13 4 -5 -11 -13 -3 -7
-4 -12 4 -4 -10 -12 -3 -7
-4 -12 4 -4 -10 -12 -2 -7
-5 -12 5 -4 -11 -12 -3 -7
-5 -12 5 -4 -12 -13 -4 -7
-6 -12 6 -3 -11 -12 -3 -7
-5 -12 6 -3 -10 -12 -3 -8
-5 -12 5 -3 -9 -11 -3 -8
-5 -11 5 -3 -9 -12 -3 -8
-5 -11 5 -4 -9 -12 -3 -8
-4 -11 5 -4 -8 -11 0 -7
-4 -11 6 -4 -8 -11 0 -6
-4 -11 5 -3 -9 -12 0 -6
-5 -11 5 -3 -10 -13 0 -5
-4 -10 5 -4 -11 -13 -2 -5
-3 -10 5 -4 -10 -12 0 -5
-3 -10 6 -4 -10 -12 0 -5
-3 -10 5 -4 -9 -12 0 -6
-3 -10 5 -4 -9 -12 0 -6
-3 -9 5 -5 -9 -11 1 -6
-3 -8 4 -6 -10 -11 0 -7
-3 -8 4 -5 -9 -11 1 -6
-4 -8 5 -4 -8 -10 2 -4
-4 -8 5 -3 -9 -10 1 -4
-4 -9 5 -4 -10 -11 0 -5
-4 -9 5 -4 -11 -12 -2 -5
-4 -10 5 -5 -10 -11 -2 -5
-4 -10 5 -4 -10 -11 -2 -5
-4 -10 5 -4 -9 -11 0 -4
-3 -9 6 -4 -8 -11 0 -4
-3 -9 6 -4 -8 -10 1 -4
-3 -9 6 -5 -8 -10 1 -5
-5 -9 5 -5 -9 -11 1 -5
-5 -8 4 -5 -10 -11 1 -5
-4 -9 4 -5 -10 -11 0 -5
-3 -10 4 -5 -11 -12 -2 -5
-3 -10 4 -5 -10 -11 0 -4
-2 -10 4 -5 -9 -10 0 -4
-2 -10 4 -5 -9 -11 0 -4
-2 -10 4 -5 -9 -11 0 -4
-2 -9 3 -6 -9 -10 1 -5
-3 -8 3 -6 -9 -10 1 -5
-3 -9 4 -6 -9 -10 1 -4
-4 -9 4 -6 -11 -11 0 -5
-3 -9 4 -6 -11 -10 0 -4
-2 -9 3 -7 -11 -11 -3 -5
-3 -9 4 -6 -11 -11 -2 -5
-5 -10 5 -6 -10 -11 0 -5
-4 -10 4 -8 -11 -13 -2 -6
-4 -9 4 -8 -11 -12 -2 -6
-4 -9 4 -8 -11 -12 -2 -6
-4 -9 3 -8 -11 -12 0 -6
-4 -9 3 -9 -12 -13 0 -6
-4 -9 2 -9 -13 -13 -2 -6
-4 -9 2 -9 -13 -13 -2 -6
-3 -9 2 -9 -14 -14 -3 -6
-2 -10 3 -9 -13 -14 -3 -6
-2 -10 3 -9 -13 -13 -3 -5
-2 -11 3 -9 -13 -13 -4 -6
-3 -11 3 -9 -13 -13 -4 -6
-3 -11 3 -10 -13 -13 -4 -7
-3 -11 2 -10 -13 -13 -5 -7
-3 -11 2 -11 -14 -14 -5 -7
-3 -12 2 -10 -14 -14 -4 -5
-4 -12 2 -10 -14 -14 -4 -6
-4 -11 2 -11 -14 -14 -5 -6
-4 -11 2 -11 -15 -15 -6 -7
-4 -12 2 -11 -15 -15 -6 -7
-4 -12 2 -11 -16 -16 -6 -7
-4 -12 2 -11 -15 -15 -5 -7
-4 -11 2 -10 -14 -15 -5 -7
-4 -11 2 -11 -15 -15 -5 -7
-4 -11 1 -11 -16 -16 -5 -7
-4 -11 1 -12 -16 -16 -5 -8
-4 -12 1 -12 -16 -16 -6 -8
-4 -11 1 -11 -16 -15 -6 -8
-3 -11 1 -12 -17 -16 -7 -9
-4 -12 2 -12 -17 -15 -7 -8
-4 -12 1 -13 -17 -17 -7 -7
-5 -12 1 -13 -17 -17 -6 -7
-6 -12 2 -12 -16 -16 -5 -7
-5 -12 1 -13 -18 -16 -7 -8
-4 -12 1 -13 -18 -16 -7 -8
-3 -12 1 -13 -18 -17 -6 -7
-4 -12 1 -14 -18 -17 -7 -8
-4 -12 1 -14 -18 -17 -7 -8
-3 -13 1 -15 -19 -17 -7 -9
-3 -13 1 -15 -19 -16 -7 -8
-3 -13 2 -14 -18 -16 -6 -8
-4 -12 2 -14 -18 -17 -6 -8
-5 -12 1 -15 -19 -17 -7 -9
-5 -12 0 -15 -19 -17 -7 -8
-3 -12 1 -15 -19 -17 -6 -8
-3 -12 1 -15 -19 -17 -8 -8
-3 -13 0 -15 -19 -18 -9 -8
-4 -13 0 -14 -19 -18 -9 -8
-4 -13 0 -14 -19 -18 -9 -9
-4 -13 0 -15 -19 -17 -9 -9
-4 -13 0 -15 -19 -17 -9 -9
-4 -13 0 -14 -19 -17 -9 -9
-4 -13 1 -14 -18 -17 -9 -8
-4 -13 1 -14 -18 -18 -8 -8
-5 -13 1 -14 -18 -17 -8 -7
-6 -14 1 -15 -19 -18 -9 -8
-5 -13 1 -14 -18 -17 -8 -8
-4 -12 0 -14 -19 -17 -9 -8
-4 -12 0 -15 -19 -17 -9 -9
-5 -12 0 -15 -20 -18 -9 -10
-6 -12 2 -14 -19 -17 -8 -8
-5 -12 1 -14 -19 -18 -9 -9
-4 -12 1 -14 -19 -18 -9 -8
-4 -12 0 -14 -19 -18 -9 -8
-3 -12 0 -14 -19 -17 -9 -8
-2 -11 -2 -15 -20 -18 -10 -9
-2 -12 -2 -15 -21 -18 -10 -10
-3 -12 0 -14 -20 -18 -9 -9
-3 -12 0 -14 -20 -18 -9 -10
-4 -12 0 -15 -20 -18 -10 -10
-5 -12 -2 -15 -20 -18 -10 -9
-5 -12 -2 -15 -20 -18 -10 -9
-5 -12 -2 -16 -20 -19 -11 -9
-5 -12 -2 -17 -20 -19 -11 -9
-5 -12 -2 -16 -20 -19 -10 -7
-4 -12 -2 -16 -20 -18 -9 -7
-4 -12 -2 -16 -20 -19 -10 -8
-4 -13 0 -16 -20 -19 -10 -9
-3 -13 0 -15 -20 -18 -10 -8
-3 -12 1 -15 -20 -17 -10 -8
-4 -13 0 -15 -19 -17 -10 -8
-5 -13 1 -14 -19 -16 -9 -7
-5 -13 1 -14 -19 -16 -9 -8
-4 -13 -2 -15 -20 -18 -10 -9
-3 -12 -2 -15 -20 -18 -10 -8
-3 -12 -2 -16 -20 -18 -10 -8
-4 -12 -2 -15 -20 -17 -10 -8
-4 -12 -2 -15 -19 -18 -10 -9
-4 -12 0 -15 -19 -18 -11 -9
-4 -13 -2 -16 -20 -19 -11 -10
-5 -13 0 -15 -20 -18 -10 -9
-5 -13 -2 -15 -19 -18 -10 -9
-4 -13 -2 -16 -20 -18 -11 -9
-4 -13 0 -15 -20 -18 -10 -9
-4 -13 -2 -16 -21 -18 -11 -8
-4 -13 -2 -16 -21 -18 -11 -8
-4 -13 -2 -15 -21 -18 -11 -8
-3 -13 -2 -15 -20 -18 -11 -8
-3 -12 0 -14 -20 -17 -11 -8
-3 -13 0 -14 -20 -18 -11 -8
-3 -13 -2 -15 -21 -19 -12 -9
-4 -13 -3 -15 -20 -18 -12 -9
-5 -12 -3 -15 -20 -18 -11 -9
-6 -12 0 -14 -19 -17 -9 -8
-6 -12 0 -14 -20 -17 -10 -8
-5 -12 -2 -15 -21 -19 -11 -9
-4 -12 -2 -15 -21 -19 -11 -8
-3 -12 -2 -15 -21 -18 -11 -8
-4 -11 -2 -16 -21 -18 -12 -8
-4 -11 0 -16 -21 -17 -12 -8
-3 -11 0 -16 -20 -18 -11 -8
-3 -9 1 -14 -18 -17 -9 -7
-2 -8 0 -14 -18 -16 -9 -6
-2 -6 0 -14 -18 -15 -9 -6
-3 -5 1 -13 -17 -14 -7 -4
-3 -3 2 -11 -16 -13 -6 -3
-2 -2 3 -11 -16 -13 -6 -3
0 1 4 -10 -14 -12 -5 -2
1 3 4 -9 -13 -10 -4 0
1 4 5 -7 -11 -9 -2 1
2 5 5 -7 -11 -9 -2 1
3 6 5 -7 -11 -9 -3 1
3 6 7 -6 -10 -9 -2 1
2 6 9 -4 -9 -7 0 3
2 7 8 -6 -10 -8 -3 1
0 6 9 -6 -11 -8 -2 1
0 5 9 -6 -11 -9 -2 1
1 5 7 -6 -10 -8 -3 2
4 8 5 -6 -10 -7 -3 2
5 10 5 -4 -7 -4 1 5
6 10 4 -2 -5 -2 3 7
7 10 3 0 -4 0 4 7
8 10 1 -2 -4 0 4 7
9 10 3 1 -2 1 6 8
10 10 4 3 1 2 7 9
11 11 3 3 1 2 7 9
12 11 1 2 0 3 8 10
14 9 -2 0 -2 2 6 9
14 6 -4 -3 -5 1 5 8
12 4 -5 -4 -6 0 4 7
10 4 -5 -4 -6 0 4 7
9 3 -6 -6 -7 -3 2 5
9 0 -7 -7 -9 -6 0 3
9 -4 -8 -9 -12 -9 -3 2
8 -7 -7 -10 -13 -11 -4 2
6 -7 -7 -13 -17 -14 -6 0
3 -7 -6 -13 -17 -13 -7 0
1 -7 -5 -12 -17 -13 -7 0
1 -7 -5 -13 -17 -14 -8 -2
1 -7 -4 -14 -17 -15 -9 -3
0 -7 -4 -14 -18 -15 -10 -3
-2 -7 -3 -14 -17 -14 -9 -3
-4 -8 -3 -14 -16 -14 -9 -3
-4 -8 -3 -15 -18 -15 -11 -5
-4 -10 -4 -16 -21 -18 -14 -7
-5 -11 -4 -17 -23 -19 -14 -8
-5 -12 -5 -18 -25 -21 -16 -9
-5 -13 -4 -18 -25 -20 -16 -9
-6 -14 -4 -19 -25 -21 -17 -10
-7 -14 -3 -18 -24 -21 -16 -9
-7 -15 -3 -18 -24 -21 -16 -10
-6 -16 -3 -18 -24 -21 -17 -10
-6 -15 -3 -18 -24 -20 -17 -10
-7 -14 -3 -18 -24 -20 -16 -9
-7 -14 -3 -18 -24 -20 -16 -9
-7 -14 -3 -18 -24 -20 -16 -9
-7 -14 -3 -18 -24 -20 -16 -10
-7 -15 -3 -18 -24 -20 -17 -10
-8 -15 -2 -18 -25 -21 -17 -11
-8 -16 0 -17 -25 -22 -17 -10
-8 -16 0 -17 -25 -22 -17 -10
-8 -15 -2 -18 -25 -22 -17 -11
-8 -15 -2 -18 -25 -22 -16 -11
-9 -15 -2 -17 -24 -22 -17 -10
-7 -15 -3 -18 -26 -23 -19 -12
-6 -15 -3 -18 -26 -23 -19 -12
-8 -16 -2 -18 -25 -22 -18 -11
-9 -16 -2 -18 -26 -22 -19 -11
-9 -16 -2 -18 -26 -23 -19 -11
-9 -16 -2 -17 -25 -24 -19 -11
-9 -16 -2 -17 -25 -23 -19 -11
-9 -16 -2 -18 -25 -22 -19 -11
-9 -16 -2 -18 -25 -23 -19 -12
-9 -16 -2 -18 -25 -23 -19 -11
-9 -15 -2 -17 -25 -22 -18 -11
-8 -15 -2 -18 -26 -23 -19 -12
-8 -15 -2 -18 -26 -23 -19 -12
-9 -15 -2 -17 -25 -22 -18 -11
-9 -15 -2 -17 -25 -22 -18 -11
-8 -15 -2 -18 -26 -23 -19 -12
-8 -15 -2 -18 -26 -23 -19 -12
-9 -14 0 -17 -26 -23 -19 -12
-11 -12 3 -17 -26 -26 -21 -14
-13 -11 7 -13 -26 -27 -22 -14
-13 -10 11 -9 -27 -29 -24 -15
-13 -10 16 -2 -27 -30 -25 -17
-13 -12 22 7 -25 -32 -26 -18
-12 -14 27 18 -22 -30 -27 -19
-10 -14 35 33 -13 -23 -21 -16
-8 -13 44 53 1 -12 -11 -11
-3 -11 54 75 18 6 4 -2
5 -5 62 96 43 30 26 14
15 6 66 115 72 62 55 34
26 19 71 142 111 102 92 59
38 35 73 167 159 149 134 90
50 55 64 164 199 194 174 119
57 76 45 136 224 233 209 147
62 97 23 100 242 267 241 174
65 120 0 67 267 305 277 202
66 140 -30 29 289 340 310 229
66 145 -63 -10 299 359 327 241
67 130 -89 -35 289 350 321 233
67 104 -107 -48 262 313 290 205
61 76 -115 -52 221 257 240 168
50 50 -112 -51 176 188 175 118
36 26 -100 -49 129 118 105 67
25 13 -87 -52 82 60 50 30
18 10 -78 -60 39 20 18 13
12 12 -74 -69 7 -2 5 8
8 15 -66 -70 -14 -10 2 8
4 17 -54 -63 -27 -16 -3 6
1 16 -43 -53 -33 -18 -5 5
0 11 -34 -43 -29 -17 -5 4
0 7 -28 -33 -21 -13 -4 2
-3 5 -22 -27 -16 -12 -5 0
-4 3 -17 -24 -16 -13 -6 -2
-5 0 -12 -20 -13 -11 -5 -2
-4 -4 -8 -15 -13 -12 -7 -4
-4 -7 -5 -10 -12 -12 -8 -5
-5 -9 -2 -6 -13 -13 -10 -6
-7 -10 0 -6 -14 -14 -11 -7
-7 -10 0 -7 -16 -15 -13 -9
-8 -11 1 -7 -17 -15 -14 -10
-8 -11 1 -8 -18 -16 -15 -10
-8 -11 1 -9 -19 -17 -16 -10
-8 -10 2 -10 -20 -18 -16 -10
-7 -11 3 -9 -21 -18 -16 -11
-6 -12 3 -8 -22 -19 -17 -12
-7 -13 4 -8 -23 -21 -18 -13
-8 -13 6 -6 -22 -21 -17 -12
-8 -13 6 -5 -21 -21 -17 -13
-8 -13 6 -6 -21 -21 -17 -13
-9 -13 5 -6 -21 -20 -17 -13
-8 -13 5 -6 -21 -19 -16 -12
-7 -13 5 -7 -21 -20 -17 -13
-7 -13 6 -7 -21 -20 -17 -13
-7 -13 6 -7 -22 -20 -17 -13
-7 -13 6 -6 -22 -20 -17 -14
-7 -14 8 -4 -22 -19 -16 -13
-8 -15 9 -4 -22 -20 -17 -13
-9 -15 9 -3 -22 -19 -16 -13
-9 -15 9 -3 -22 -19 -16 -13
-9 -14 7 -4 -22 -19 -17 -14
-9 -14 7 -5 -22 -19 -17 -13
-9 -13 7 -5 -22 -19 -16 -13
-8 -13 7 -6 -22 -19 -16 -13
-6 -12 8 -5 -22 -19 -16 -13
-5 -12 7 -5 -23 -19 -17 -14
-5 -13 8 -4 -22 -19 -16 -13
-5 -14 8 -3 -23 -20 -17 -13
-5 -14 8 -2 -22 -19 -17 -13
-6 -13 8 -2 -21 -17 -16 -13
-8 -13 9 0 -19 -15 -15 -12
-8 -12 8 -2 -20 -16 -16 -13
-8 -12 8 -2 -20 -16 -15 -13
-8 -11 8 -2 -20 -16 -15 -13
-6 -11 8 -2 -21 -16 -16 -14
-5 -11 8 0 -20 -16 -16 -14
-5 -11 8 1 -20 -16 -16 -14
-6 -12 9 2 -19 -16 -15 -13
-6 -12 9 2 -19 -16 -15 -13
-6 -11 9 1 -20 -16 -16 -14
-5 -11 8 2 -19 -15 -15 -14
-5 -10 8 2 -18 -14 -14 -13
-5 -10 8 3 -17 -13 -13 -12
-5 -9 7 3 -17 -13 -13 -12
-4 -10 8 4 -17 -13 -12 -11
-4 -10 8 5 -17 -13 -12 -11
-4 -11 9 6 -16 -12 -11 -11
-4 -11 10 6 -16 -12 -11 -11
-5 -11 9 6 -15 -12 -11 -11
-6 -11 9 6 -14 -12 -10 -11
-6 -10 9 7 -13 -11 -9 -10
-5 -9 8 6 -13 -11 -9 -10
-4 -8 8 7 -13 -10 -8 -9
-4 -8 9 8 -12 -9 -7 -8
-3 -8 8 8 -13 -10 -8 -9
-3 -8 8 9 -12 -10 -8 -9
-3 -9 9 11 -11 -9 -7 -8
-4 -9 9 12 -10 -9 -7 -8
-3 -10 9 12 -9 -8 -7 -9
-2 -10 9 13 -8 -6 -6 -8
-2 -9 9 12 -8 -5 -5 -8
0 -8 9 13 -7 -4 -4 -7
-2 -8 9 14 -6 -3 -3 -7
-3 -8 10 15 -6 -3 -3 -6
-3 -8 10 17 -5 -2 -2 -6
0 -7 9 17 -5 -2 -2 -6
1 -7 10 19 -4 -2 -2 -6
1 -7 10 20 -3 0 -2 -6
0 -6 10 21 -2 2 0 -5
0 -6 10 22 1 3 2 -4
1 -5 9 21 2 4 3 -4
2 -4 9 22 4 6 4 -3
2 -4 9 23 5 7 6 -2
2 -4 9 25 7 9 7 0
2 -4 10 27 8 11 8 2
3 -3 10 28 8 11 8 1
4 -3 10 30 9 12 9 2
4 -3 11 32 11 14 11 3
4 -2 9 33 12 15 11 3
4 0 9 35 15 17 12 5
5 1 9 35 17 19 13 5
5 3 10 36 19 21 16 7
6 4 9 37 21 23 17 7
7 5 9 38 22 24 18 8
8 6 9 40 24 26 21 10
10 7 7 43 26 28 22 11
11 8 7 44 28 30 23 12
11 9 8 47 30 32 26 15
11 10 7 47 32 34 28 16
10 10 7 50 36 38 31 19
11 11 6 50 38 42 33 20
12 12 4 51 40 44 35 22
13 14 4 52 44 47 38 25
15 16 4 52 46 49 40 26
15 17 4 54 49 52 45 28
16 18 3 54 50 53 47 29
17 19 3 55 51 54 48 29
18 20 4 57 54 57 50 31
19 21 2 57 55 58 51 32
20 21 0 57 57 60 54 34
20 23 -2 57 59 62 56 35
21 24 -3 57 60 63 57 36
21 25 -3 57 61 65 59 38
21 25 -3 57 62 67 61 39
22 25 -3 58 63 69 63 40
22 25 -3 58 63 70 64 42
22 25 -3 57 64 70 64 42
22 24 -3 57 64 70 63 42
21 25 -4 57 64 71 64 42
21 26 -4 56 65 71 65 42
20 27 -4 56 65 72 66 43
20 28 -6 55 65 72 66 42
21 28 -6 55 66 73 67 43
22 28 -6 54 66 73 67 43
22 28 -6 53 65 72 67 44
22 28 -6 52 64 71 66 44
21 28 -7 51 62 69 65 43
21 27 -7 50 61 69 64 42
21 26 -6 50 61 69 64 42
20 25 -6 48 59 67 62 40
19 24 -5 46 58 66 61 38
17 23 -5 45 56 63 59 36
17 22 -5 42 52 60 55 33
16 20 -4 39 49 56 53 32
16 19 -3 37 46 53 50 30
15 18 -3 35 40 48 45 26
14 17 -2 33 37 45 42 24
12 15 0 30 34 42 38 22
9 14 0 29 31 38 36 21
7 12 0 27 28 34 33 19
7 11 0 24 25 31 29 17
7 9 1 22 22 30 27 16
5 7 1 20 19 27 24 14
4 6 2 17 16 25 22 12
4 5 2 15 13 21 19 9
3 3 2 15 10 19 17 7
3 1 3 14 8 16 15 5
3 -2 4 13 5 14 12 4
2 -3 3 11 3 11 8 2
2 -3 2 9 1 9 6 0
1 -3 3 8 0 8 5 -2
1 -3 3 7 -3 7 4 -4
0 -4 2 5 -5 5 2 -5
0 -5 2 5 -6 3 1 -5
-2 -6 1 3 -9 0 -3 -7
-3 -7 2 3 -9 0 -3 -7
-3 -7 3 3 -10 0 -3 -7
-4 -7 4 3 -11 -2 -4 -7
-4 -8 5 4 -11 -2 -4 -7
-4 -9 4 3 -12 -4 -6 -7
-4 -10 4 2 -12 -3 -5 -7
-4 -10 4 1 -12 -2 -4 -7
-4 -10 3 0 -12 -2 -4 -6
-4 -9 3 0 -12 -3 -4 -6
-4 -10 3 0 -14 -4 -5 -7
-4 -10 3 0 -15 -5 -6 -8
-4 -10 3 0 -16 -5 -7 -9
-3 -11 3 1 -16 -6 -8 -9
-3 -11 2 1 -16 -7 -8 -10
-4 -11 3 1 -15 -6 -8 -9
-4 -10 3 0 -16 -6 -9 -10
-4 -10 4 -2 -15 -6 -9 -10
-4 -9 4 -2 -16 -6 -9 -10
-3 -9 4 -2 -16 -6 -8 -10
-3 -9 4 -2 -17 -6 -8 -10
-4 -9 4 -2 -17 -7 -9 -11
-5 -10 5 0 -17 -6 -8 -10
-5 -11 5 1 -17 -6 -8 -10
-4 -12 5 1 -16 -5 -8 -10
-4 -12 4 1 -15 -5 -8 -9
-5 -11 3 1 -15 -5 -8 -9
-6 -11 2 0 -14 -5 -8 -9
-5 -11 2 1 -14 -4 -7 -9
-4 -10 1 0 -15 -5 -7 -9
-4 -9 2 0 -15 -5 -7 -10
-3 -9 2 0 -16 -5 -8 -11
-4 -9 2 0 -17 -6 -10 -13
-5 -9 2 0 -18 -7 -12 -15
-6 -9 4 1 -16 -7 -11 -14
-6 -9 4 1 -16 -7 -10 -13
-5 -9 3 1 -16 -7 -11 -14
-5 -9 2 1 -16 -7 -11 -13
-5 -9 2 1 -16 -6 -9 -11
-4 -9 3 1 -15 -6 -8 -9
-4 -10 3 2 -15 -6 -7 -8
-5 -10 4 3 -14 -5 -7 -6
-5 -11 3 3 -14 -6 -7 -6
-5 -11 4 3 -14 -5 -7 -6
-4 -10 3 2 -15 -5 -7 -8
-4 -9 4 2 -14 -4 -7 -7
-5 -8 4 2 -13 -4 -6 -6
-5 -7 4 3 -13 -3 -6 -6
-4 -7 3 2 -14 -4 -6 -8
-3 -7 2 2 -14 -5 -7 -9
-4 -8 3 4 -14 -5 -6 -9
-5 -8 4 4 -14 -5 -7 -10
-4 -7 3 4 -15 -6 -8 -12
-3 -8 3 4 -14 -5 -7 -11
-3 -9 4 4 -13 -4 -6 -9
-3 -8 2 3 -13 -5 -7 -9
-4 -8 3 4 -11 -4 -5 -8
-4 -7 3 3 -12 -3 -5 -8
-4 -7 3 4 -12 -2 -5 -7
-3 -7 3 4 -12 -2 -5 -6
-4 -7 3 4 -13 -3 -5 -7
-4 -8 5 5 -13 -2 -5 -6
-5 -8 4 6 -13 -3 -5 -6
-6 -8 4 5 -14 -4 -6 -7
-7 -7 4 4 -14 -4 -6 -8
-7 -6 4 4 -13 -4 -6 -8
-6 -6 4 4 -13 -3 -6 -8
-5 -6 4 3 -13 -4 -7 -9
-4 -5 3 3 -13 -4 -6 -9
-4 -5 2 4 -13 -4 -5 -8
-4 -5 2 5 -13 -4 -4 -6
-3 -5 2 4 -14 -4 -5 -7
-3 -5 2 4 -14 -4 -5 -6
-2 -6 3 4 -13 -3 -5 -7
-3 -6 3 5 -12 -2 -4 -6
-4 -6 3 4 -12 -2 -3 -6
-4 -6 3 3 -12 -2 -3 -6
-3 -6 3 2 -12 -2 -3 -5
-3 -5 1 1 -13 -2 -4 -7
-4 -4 0 2 -13 -2 -3 -7
-4 -3 2 3 -13 -2 -3 -6
-3 -3 2 2 -13 -3 -3 -6
-3 -4 2 2 -14 -4 -4 -6
-3 -6 3 3 -12 -3 -3 -5
-4 -6 3 4 -12 -3 -3 -4
-4 -7 3 3 -12 -2 -3 -4
-4 -8 4 4 -11 0 -2 -3
-4 -8 3 3 -11 0 -2 -4
-5 -7 3 2 -12 0 -2 -4
-5 -7 2 1 -13 -2 -3 -4
-4 -7 1 0 -14 -4 -5 -5
-4 -6 2 0 -14 -4 -5 -5
-3 -6 3 1 -14 -5 -5 -4
-3 -6 4 2 -14 -5 -4 -4
-2 -6 2 1 -15 -6 -5 -5
-2 -7 2 2 -13 -5 -3 -4
-2 -6 1 1 -14 -5 -4 -5
-3 -6 2 1 -13 -5 -4 -4
-4 -6 1 -2 -14 -5 -4 -4
-4 -7 1 -2 -14 -5 -5 -5
-4 -7 1 -2 -15 -5 -6 -5
-4 -7 0 -3 -15 -5 -5 -6
-3 -7 0 -2 -16 -6 -5 -7
-2 -7 0 -2 -16 -6 -5 -7
-2 -7 1 -2 -16 -7 -5 -7
-3 -8 0 -2 -15 -7 -5 -6
-3 -8 0 -2 -15 -6 -5 -5
-3 -8 0 -3 -15 -6 -5 -4
-4 -8 2 -2 -15 -5 -3 -3
-4 -9 2 -3 -15 -6 -3 -2
-3 -9 2 -3 -16 -6 -4 -2
-3 -8 0 -4 -18 -7 -5 -3
-4 -8 0 -3 -18 -7 -5 -3
-5 -8 0 -3 -18 -8 -6 -3
-4 -8 -2 -3 -18 -8 -7 -4
-4 -8 -2 -4 -17 -8 -7 -4
-4 -8 -2 -4 -17 -7 -7 -4
-4 -9 0 -5 -17 -8 -7 -5
-4 -10 1 -5 -17 -8 -7 -5
-4 -10 1 -5 -17 -8 -6 -4
-4 -10 1 -4 -18 -7 -6 -3
-3 -10 1 -4 -18 -8 -6 -3
-3 -11 1 -4 -19 -8 -7 -4
-3 -11 1 -5 -19 -9 -8 -5
-3 -11 0 -6 -19 -10 -9 -7
-3 -10 -2 -7 -19 -11 -10 -8
-4 -10 -2 -8 -19 -12 -11 -9
-4 -10 -2 -8 -19 -12 -11 -9
-5 -10 0 -7 -18 -10 -10 -7
-5 -10 0 -7 -18 -10 -9 -6
-5 -9 -2 -7 -19 -10 -10 -6
-5 -10 0 -6 -19 -10 -9 -5
-5 -10 0 -6 -20 -11 -10 -6
-5 -11 0 -6 -21 -11 -10 -6
-4 -10 0 -7 -21 -11 -10 -6
-4 -9 0 -7 -20 -11 -10 -5
-4 -9 0 -7 -20 -11 -11 -5
-4 -9 0 -8 -19 -12 -11 -6
-4 -9 -2 -9 -19 -13 -11 -6
-4 -9 -3 -9 -19 -13 -11 -5
-3 -9 -2 -9 -20 -12 -10 -5
-3 -10 -2 -9 -21 -13 -11 -6
-4 -11 0 -8 -21 -12 -11 -6
-4 -11 0 -8 -21 -12 -11 -6
-5 -11 0 -8 -21 -12 -11 -7
-6 -11 0 -8 -20 -12 -11 -7
-6 -11 0 -8 -20 -12 -11 -7
-5 -12 -2 -8 -20 -12 -11 -7
-4 -12 -2 -8 -20 -12 -10 -6
-3 -12 0 -8 -20 -12 -9 -5
-2 -11 0 -9 -21 -12 -9 -6
-2 -11 0 -9 -21 -12 -9 -5
-2 -12 -2 -9 -22 -13 -9 -5
-3 -12 0 -9 -21 -12 -9 -5
-4 -13 0 -9 -21 -12 -10 -5
-4 -12 0 -9 -20 -12 -10 -5
-4 -12 0 -9 -21 -11 -9 -5
-4 -12 0 -9 -21 -11 -9 -5
-5 -11 0 -9 -21 -11 -9 -5
-5 -11 -2 -9 -21 -12 -10 -6
-6 -10 -2 -9 -21 -12 -10 -7
-5 -10 -2 -9 -22 -13 -11 -7
-5 -10 -2 -9 -22 -13 -11 -7
-5 -11 0 -9 -22 -13 -11 -7
-5 -12 0 -9 -22 -13 -10 -7
-4 -12 -2 -9 -21 -12 -10 -7
-3 -12 -2 -10 -21 -12 -11 -7
-4 -12 -3 -10 -21 -13 -11 -8
-5 -12 -3 -11 -21 -14 -12 -8
-5 -11 -3 -11 -21 -14 -13 -9
-5 -11 -3 -11 -21 -14 -13 -9
-5 -10 -2 -11 -22 -14 -14 -9
-5 -10 0 -11 -22 -15 -15 -9
-5 -10 0 -10 -23 -15 -15 -8
-5 -10 0 -10 -22 -15 -14 -8
-4 -10 -2 -11 -22 -15 -14 -8
-4 -10 -2 -11 -22 -15 -14 -7
-4 -10 -3 -11 -21 -15 -14 -6
-5 -10 -2 -10 -21 -14 -13 -5
-6 -11 -3 -11 -21 -14 -12 -4
-6 -11 -3 -11 -21 -13 -11 -5
-5 -11 -3 -11 -21 -13 -11 -5
-5 -11 -3 -11 -22 -14 -12 -6
-5 -11 -3 -11 -22 -14 -13 -6
-4 -10 -4 -11 -23 -16 -14 -7
-4 -10 -4 -11 -22 -16 -14 -7
-4 -10 -4 -11 -22 -15 -15 -7
-5 -10 -3 -11 -20 -14 -14 -6
-4 -9 -3 -12 -21 -14 -14 -7
-3 -9 -2 -11 -21 -14 -13 -6
-4 -10 -2 -11 -21 -15 -13 -6
-5 -11 -2 -10 -21 -15 -12 -6
-6 -12 -2 -9 -20 -14 -11 -5
-6 -12 -2 -9 -21 -14 -10 -5
-6 -12 -2 -9 -21 -14 -10 -4
-5 -12 -4 -10 -21 -15 -11 -5
-5 -11 -4 -10 -21 -15 -12 -5
-5 -10 -4 -11 -21 -15 -13 -6
-5 -10 -4 -11 -21 -16 -14 -7
-5 -9 -5 -12 -23 -17 -16 -8
-4 -9 -4 -13 -23 -17 -16 -7
-5 -8 -3 -12 -23 -17 -15 -6
-5 -9 -2 -10 -23 -16 -14 -5
-4 -9 -2 -9 -22 -15 -13 -4
-3 -9 -2 -7 -20 -13 -10 -2
-2 -8 -2 -7 -19 -12 -9 -2
-2 -6 -2 -8 -18 -11 -8 -2
-2 -4 0 -6 -17 -10 -7 0
-2 -2 0 -5 -16 -9 -6 1
0 2 1 -5 -15 -8 -5 2
1 4 2 -4 -14 -6 -4 3
2 5 2 -4 -13 -6 -4 3
1 5 3 -3 -13 -6 -4 3
1 3 5 0 -12 -6 -3 4
1 3 6 1 -11 -6 -3 4
0 4 7 1 -11 -5 -4 4
-2 5 7 1 -10 -5 -4 5
-2 5 6 0 -10 -5 -4 5
0 6 5 0 -11 -6 -5 4
1 6 5 1 -9 -4 -3 5
3 8 3 1 -7 -3 0 7
4 12 2 1 -6 -2 1 9
5 13 2 2 -5 0 2 10
5 11 1 3 -4 1 2 10
6 8 1 4 -3 2 3 10
7 9 2 6 1 3 4 11
8 10 4 8 3 5 5 11
8 10 4 8 3 6 6 12
8 10 0 5 2 6 6 12
9 8 -5 2 -2 4 6 11
9 6 -6 -2 -6 0 4 9
9 6 -7 -3 -7 0 3 9
8 6 -8 -2 -6 0 3 11
8 3 -9 -3 -7 0 3 10
8 -2 -10 -4 -11 -5 0 6
7 -6 -10 -5 -12 -7 -3 4
5 -9 -9 -6 -14 -7 -4 4
3 -8 -8 -7 -13 -7 -4 5
1 -6 -7 -9 -14 -9 -4 4
-3 -5 -7 -10 -15 -10 -5 4
-3 -6 -5 -10 -16 -10 -5 4
-3 -7 -5 -10 -16 -10 -5 4
-4 -7 -5 -10 -16 -10 -5 4
-4 -8 -3 -9 -15 -9 -5 4
-4 -10 -4 -10 -17 -12 -7 2
-5 -12 -5 -11 -18 -14 -9 0
-6 -13 -5 -12 -19 -16 -11 -3
-5 -15 -6 -13 -21 -17 -13 -5
-6 -16 -6 -14 -22 -18 -14 -5
-9 -17 -6 -14 -22 -18 -15 -5
-9 -17 -6 -15 -22 -18 -15 -6
-8 -15 -7 -16 -23 -19 -16 -8
-7 -14 -6 -15 -22 -18 -16 -8
-7 -13 -6 -15 -23 -19 -17 -10
-7 -12 -6 -15 -22 -18 -17 -9
-8 -13 -6 -14 -21 -17 -16 -8
-8 -14 -6 -14 -22 -18 -16 -8
-8 -15 -5 -14 -22 -18 -16 -8
-7 -15 -5 -14 -21 -18 -15 -7
-7 -15 -5 -14 -21 -17 -15 -7
-8 -16 -4 -13 -20 -17 -14 -5
-9 -17 -4 -14 -21 -17 -15 -5
-9 -17 -4 -15 -21 -18 -16 -5
-9 -17 -4 -15 -21 -19 -16 -5
-10 -17 -5 -15 -22 -19 -16 -5
-10 -16 -5 -15 -22 -19 -16 -6
-9 -15 -5 -14 -22 -18 -15 -5
-9 -15 -4 -14 -21 -17 -15 -5
-9 -15 -5 -14 -22 -18 -15 -4
-9 -14 -6 -16 -24 -20 -16 -5
-9 -14 -5 -15 -24 -20 -16 -5
-8 -14 -6 -15 -23 -19 -17 -6
-9 -14 -6 -16 -23 -20 -17 -8
-10 -14 -6 -14 -22 -19 -17 -7
-9 -14 -6 -15 -23 -20 -18 -8
-9 -14 -6 -14 -23 -20 -18 -7
-9 -14 -5 -14 -22 -19 -17 -7
-9 -13 -6 -14 -21 -18 -16 -6
-9 -13 -6 -14 -21 -18 -16 -5
-9 -13 -6 -15 -21 -19 -16 -5
-9 -14 -6 -14 -21 -19 -16 -5
-9 -14 -6 -14 -21 -19 -16 -6
-9 -13 -6 -14 -22 -20 -17 -7
-10 -12 -5 -14 -23 -22 -19 -8
-12 -12 -2 -12 -22 -22 -19 -8
-13 -11 2 -9 -22 -24 -21 -9
-14 -10 6 -4 -22 -26 -23 -11
-14 -12 10 2 -22 -29 -25 -13
-14 -14 15 9 -21 -31 -28 -16
-12 -17 21 20 -16 -28 -26 -15
-9 -17 27 34 -6 -21 -18 -12
-6 -15 37 57 11 -6 -5 -5
0 -12 47 84 33 15 13 7
6 -4 53 104 58 40 35 22
13 8 57 117 86 71 64 42
22 21 62 133 120 111 100 68
32 37 67 154 165 157 142 99
43 58 66 161 206 203 182 130
50 78 55 144 234 243 218 158
54 101 38 116 257 279 253 188
55 126 20 90 284 320 288 219
55 150 -4 62 313 361 323 247
57 160 -30 29 327 385 345 264
58 149 -55 -4 318 377 341 257
54 125 -73 -30 284 337 307 227
47 95 -89 -44 237 273 251 183
38 63 -95 -46 188 199 179 128
27 34 -92 -43 141 128 108 74
17 18 -86 -45 95 67 53 35
11 15 -80 -56 52 26 22 19
7 16 -77 -67 16 4 10 15
4 18 -74 -73 -12 -10 3 12
-2 18 -64 -69 -28 -18 -3 11
-4 17 -52 -58 -35 -23 -5 9
-4 15 -44 -45 -28 -20 -5 9
-3 11 -37 -33 -17 -15 -3 9
-4 7 -30 -25 -11 -12 -2 9
-5 5 -24 -21 -10 -11 -2 7
-5 5 -20 -18 -8 -11 -2 7
-5 3 -15 -13 -6 -10 -2 7
-5 -2 -11 -9 -6 -11 -3 4
-6 -5 -8 -6 -7 -12 -5 2
-6 -6 -6 -5 -7 -13 -5 2
-7 -7 -6 -5 -9 -15 -7 0
-9 -9 -4 -4 -9 -15 -7 -2
-9 -9 -4 -5 -9 -17 -9 -3
-9 -8 -5 -6 -11 -19 -11 -4
-9 -9 -4 -5 -11 -19 -11 -3
-9 -10 -4 -5 -11 -20 -12 -3
-8 -10 -3 -5 -11 -21 -12 -3
-8 -11 0 -4 -11 -21 -12 -2
-8 -11 0 -3 -12 -22 -13 -3
-8 -11 1 -3 -12 -23 -14 -4
-8 -11 1 -3 -13 -24 -16 -6
-9 -10 1 -3 -14 -24 -16 -8
-8 -10 1 -3 -13 -25 -16 -8
-8 -11 2 -3 -12 -25 -16 -7
-8 -11 2 -3 -12 -25 -15 -7
-7 -11 3 -3 -11 -24 -14 -7
-6 -11 3 -3 -11 -25 -14 -8
-8 -12 4 0 -12 -24 -13 -7
-8 -12 4 0 -13 -24 -13 -7
-9 -12 5 1 -13 -24 -12 -6
-9 -12 5 2 -12 -23 -11 -5
-9 -12 6 3 -10 -22 -10 -4
-8 -12 4 2 -10 -22 -9 -3
-8 -12 4 1 -9 -21 -8 -2
-8 -13 5 1 -8 -20 -7 0
-7 -12 4 0 -9 -21 -9 -2
-7 -11 4 -2 -9 -21 -9 -2
-6 -11 4 0 -11 -23 -10 -3
-6 -11 4 2 -12 -23 -10 -4
-6 -12 5 3 -11 -23 -10 -5
-6 -13 5 3 -11 -23 -11 -7
-6 -12 5 3 -10 -23 -11 -6
-6 -11 4 3 -10 -23 -11 -6
-7 -11 4 4 -7 -21 -10 -4
-7 -10 3 3 -8 -22 -10 -4
-6 -10 4 2 -8 -21 -9 -3
-5 -9 3 1 -8 -22 -9 -2
-4 -10 3 2 -7 -21 -8 0
-3 -10 3 4 -7 -21 -7 1
-3 -11 4 5 -7 -21 -6 1
-4 -11 4 7 -5 -19 -5 1
-5 -11 4 7 -4 -18 -5 0
-6 -10 3 6 -3 -18 -6 0
-6 -10 2 6 -2 -18 -7 -2
-6 -10 2 6 -2 -18 -7 -2
-6 -10 3 7 -2 -19 -7 -3
-6 -10 4 8 -2 -19 -7 -2
-6 -10 5 8 -2 -20 -7 0
-5 -9 5 7 -3 -21 -6 0
-4 -9 5 8 -3 -20 -5 1
-4 -9 5 9 0 -20 -5 1
-4 -9 5 10 1 -19 -5 1
-4 -9 5 10 3 -19 -5 1
-3 -8 4 9 2 -19 -4 0
-4 -7 3 9 3 -18 -3 0
-3 -7 3 10 4 -18 -2 0
-3 -8 3 11 4 -18 0 1
-3 -8 4 12 5 -18 -2 1
-4 -10 5 13 6 -18 -2 2
-5 -11 7 15 7 -17 1 3
-4 -11 7 16 9 -16 2 4
-3 -10 7 16 10 -16 3 4
-2 -8 5 15 11 -15 3 4
-2 -7 5 16 12 -14 4 5
-2 -6 3 15 12 -13 4 4
0 -5 3 16 13 -13 4 4
0 -4 3 16 13 -13 5 5
0 -4 4 18 14 -12 6 6
0 -4 5 19 14 -11 6 7
0 -4 5 21 15 -11 6 8
0 -5 7 24 17 -9 8 10
1 -6 7 25 19 -8 9 10
1 -7 6 26 22 -5 12 11
3 -6 5 26 25 -2 14 13
4 -4 4 25 25 -2 14 12
4 -3 4 26 26 0 14 12
3 0 4 27 27 1 14 12
3 1 5 30 29 3 15 13
4 2 4 32 29 2 15 13
4 2 4 33 30 3 16 13
5 2 4 35 33 5 18 15
5 2 4 37 37 8 20 17
5 3 3 38 39 11 23 19
6 4 2 39 42 14 26 21
8 6 1 39 44 16 28 23
9 8 1 40 47 18 30 23
11 10 0 40 47 19 30 23
12 11 2 44 49 21 31 24
12 12 1 45 50 21 31 24
12 12 2 47 53 22 34 25
12 13 2 49 57 26 37 27
13 15 0 51 60 29 39 28
13 16 0 52 64 33 44 31
13 16 -2 54 68 36 48 34
13 15 -2 55 70 39 52 38
14 17 -3 55 71 42 54 42
15 17 -3 56 74 44 57 45
16 17 -3 56 75 46 59 47
16 16 0 58 79 49 62 49
18 18 -3 58 79 50 62 48
19 20 -5 58 80 51 63 49
19 21 -6 58 84 52 66 50
18 23 -6 58 86 54 69 50
20 25 -8 57 86 55 70 51
21 26 -7 57 89 58 72 54
22 26 -8 57 89 59 73 55
22 26 -7 57 90 61 74 56
22 27 -7 58 92 62 76 57
23 27 -7 57 92 63 77 58
22 27 -7 57 92 64 77 59
21 26 -7 58 93 65 79 61
21 27 -9 57 93 64 79 61
22 29 -11 55 92 64 78 61
21 29 -11 54 94 65 80 62
21 29 -12 53 93 64 79 63
20 30 -12 52 92 63 78 62
20 30 -12 51 91 62 76 60
19 29 -11 50 90 60 74 57
19 28 -10 50 89 59 74 56
18 27 -11 49 87 57 73 54
17 26 -10 48 86 56 72 54
17 27 -10 46 82 54 69 53
17 26 -10 44 80 51 67 51
16 25 -9 42 77 48 65 51
15 23 -9 38 74 44 63 49
14 22 -8 35 70 39 59 46
12 21 -7 33 66 36 55 43
11 19 -5 32 63 32 52 39
9 18 -5 30 59 28 49 37
7 15 -3 29 56 26 47 36
6 13 -3 27 53 22 44 35
5 11 -2 25 49 19 39 32
4 10 -2 22 45 15 36 29
3 9 -3 19 40 11 33 26
2 9 -2 17 38 9 31 26
2 9 -3 15 35 5 28 24
1 6 -2 14 31 2 24 22
0 3 0 13 27 -3 21 20
0 3 1 11 25 -5 18 17
0 3 1 10 22 -8 16 14
-2 1 1 9 20 -10 14 13
-3 0 0 9 18 -12 12 13
-5 -3 1 8 19 -13 10 12
-6 -4 2 7 19 -14 9 11
-5 -4 2 6 17 -14 8 11
-4 -2 1 4 15 -15 7 10
-4 -3 1 4 14 -17 7 9
-4 -4 1 2 13 -18 7 8
-4 -6 2 3 12 -18 7 7
-5 -7 3 4 12 -18 7 7
-5 -8 3 3 11 -19 6 6
-4 -8 3 3 11 -19 7 7
-5 -8 2 3 11 -19 7 7
-5 -7 2 3 11 -19 7 8
-5 -7 2 2 11 -19 6 8
-6 -7 3 2 11 -20 5 8
-6 -9 3 2 11 -20 5 8
-7 -8 3 2 10 -21 3 7
-7 -8 3 1 9 -23 2 5
-8 -8 3 1 8 -25 1 4
-8 -9 3 1 7 -25 1 4
-8 -8 3 1 7 -25 1 3
-8 -7 3 1 8 -24 2 3
-7 -7 1 -2 8 -24 2 2
-7 -7 1 -2 9 -24 2 3
-7 -7 1 0 9 -24 2 3
-7 -8 2 0 9 -24 1 2
-8 -8 2 0 7 -25 -2 1
-7 -8 2 1 7 -25 0 1
-7 -8 4 2 7 -25 0 1
-7 -8 4 3 8 -25 1 1
-8 -10 5 3 9 -24 2 3
-8 -10 4 3 9 -24 3 3
-8 -10 3 3 10 -24 3 4
-9 -9 3 3 10 -23 4 6
-8 -8 3 2 9 -24 3 6
-8 -7 3 2 9 -24 3 6
-8 -8 4 2 8 -25 2 4
-9 -9 5 4 8 -24 1 2
-8 -8 5 3 7 -26 -2 -3
-7 -8 5 3 7 -26 -2 -3
-7 -8 4 3 7 -25 -2 0
-8 -8 4 3 8 -24 1 2
-7 -7 3 2 8 -24 3 4
-6 -7 3 2 8 -23 4 6
-6 -7 4 2 9 -22 4 7
-7 -8 6 4 10 -21 5 8
-7 -9 6 4 9 -22 5 7
-7 -9 6 5 9 -22 3 6
-7 -9 5 5 8 -23 2 4
-7 -9 4 5 8 -23 2 4
-8 -8 4 5 8 -23 2 5
-8 -7 4 6 9 -22 3 5
-6 -7 4 6 9 -22 4 5
-6 -6 4 6 9 -21 5 7
-8 -7 6 6 10 -20 6 8
-9 -9 7 6 11 -19 7 8
-9 -8 6 5 10 -19 5 6
-8 -8 6 6 11 -18 5 6
-7 -7 5 6 9 -19 4 5
-7 -7 5 6 8 -20 4 5
-7 -7 4 7 8 -20 5 5
-7 -7 4 7 9 -20 6 6
-7 -7 4 7 10 -19 7 7
-7 -6 4 7 11 -18 7 7
-7 -5 4 6 10 -18 6 6
-7 -5 3 6 10 -19 4 5
-7 -5 3 6 9 -21 4 4
-6 -4 2 5 8 -21 4 4
-5 -4 2 6 8 -20 6 5
-5 -5 3 6 9 -20 6 5
-6 -6 3 7 10 -19 8 7
-6 -5 2 6 10 -18 8 7
-5 -4 3 7 12 -17 8 9
-5 -5 4 6 12 -17 8 9
-5 -6 4 5 11 -18 8 9
-6 -6 5 6 11 -18 8 9
-7 -6 5 6 11 -18 8 9
-7 -5 5 6 11 -18 8 10
-7 -6 5 7 12 -18 8 10
-6 -6 5 7 11 -18 8 10
-6 -6 4 6 11 -18 8 10
-6 -5 3 5 11 -18 8 10
-7 -4 3 5 11 -16 9 10
-7 -4 3 5 11 -15 9 9
-6 -4 3 4 11 -16 9 9
-5 -3 3 4 9 -18 8 8
-5 -3 3 4 9 -18 8 9
-4 -4 3 5 9 -19 8 10
-4 -5 3 6 10 -18 9 11
-6 -5 3 5 9 -19 8 11
-7 -5 4 5 10 -18 9 11
-7 -6 4 5 10 -18 10 11
-6 -6 4 5 10 -17 11 12
-6 -6 3 4 11 -16 11 12
-5 -5 1 2 9 -17 11 11
-5 -5 2 2 9 -18 10 11
-5 -5 3 2 8 -19 10 10
-6 -6 4 3 8 -19 9 10
-7 -7 3 2 7 -21 7 8
-8 -7 3 3 7 -22 6 6
-8 -8 3 2 7 -22 5 6
-7 -8 3 2 7 -21 6 7
-6 -7 3 1 7 -21 6 7
-5 -6 1 0 7 -22 6 6
-5 -6 1 0 6 -21 6 5
-5 -6 1 -2 5 -21 5 5
-5 -6 1 -2 4 -22 5 4
-5 -6 1 -2 4 -22 5 5
-5 -6 1 -2 3 -23 4 5
-5 -6 2 -2 2 -24 4 6
-6 -7 2 -2 3 -24 4 7
-7 -8 2 -2 4 -24 5 7
-7 -8 2 -2 4 -24 4 7
-7 -8 2 -2 5 -22 5 7
-7 -7 1 -3 4 -22 5 6
-6 -7 1 -3 4 -23 5 7
-5 -8 0 -4 3 -25 3 6
-5 -8 1 -4 2 -25 3 6
-5 -8 1 -4 2 -25 3 6
-6 -7 1 -4 2 -25 2 6
-6 -8 0 -4 2 -25 2 5
-6 -8 0 -5 1 -26 2 4
-6 -8 0 -5 1 -26 3 4
-5 -7 0 -5 2 -25 4 5
-5 -7 1 -5 2 -24 6 7
-5 -7 1 -5 2 -24 6 7
-5 -8 0 -5 0 -25 4 7
-6 -9 1 -4 0 -25 5 6
-6 -10 1 -5 0 -25 5 5
-6 -10 1 -5 0 -25 3 4
-6 -9 2 -5 0 -25 2 3
-6 -9 2 -5 0 -25 1 3
-6 -8 1 -7 -2 -26 0 2
-5 -8 1 -7 -2 -27 0 2
-5 -8 0 -7 -3 -27 1 3
-6 -8 0 -7 -3 -26 1 4
-7 -8 1 -7 -2 -25 3 5
-7 -9 1 -7 -2 -25 3 5
-6 -9 1 -7 -2 -26 3 5
-6 -10 1 -6 -2 -26 3 5
-5 -10 1 -6 -2 -26 3 6
-5 -10 1 -6 -2 -26 2 5
-5 -9 -2 -8 -3 -27 0 4
-6 -9 -2 -8 -3 -26 1 4
-6 -9 0 -8 -3 -26 2 4
-5 -9 -2 -9 -4 -27 1 3
-6 -10 0 -8 -4 -27 0 4
-6 -10 0 -8 -4 -28 -2 4
-7 -11 1 -7 -3 -27 0 4
-6 -11 0 -8 -4 -28 0 3
-5 -11 -2 -9 -5 -28 0 3
-4 -11 -2 -9 -5 -28 0 3
-4 -10 -3 -9 -6 -29 0 2
-4 -9 -3 -10 -5 -28 0 2
-4 -8 -3 -11 -5 -27 0 3
-4 -9 -3 -11 -5 -27 -2 3
-4 -9 -3 -10 -6 -27 -2 3
-5 -10 -2 -9 -5 -26 0 3
-5 -11 0 -9 -6 -26 -2 3
-6 -12 1 -8 -5 -25 0 3
-7 -11 0 -8 -5 -24 1 3
-7 -11 0 -8 -5 -24 1 2
-8 -11 0 -9 -5 -26 0 2
-8 -10 1 -9 -4 -26 0 2
-7 -9 0 -10 -5 -26 -2 1
-7 -9 0 -10 -6 -27 -3 1
-7 -10 -2 -11 -7 -28 -4 1
-7 -10 -2 -11 -8 -28 -4 1
-6 -10 -2 -10 -9 -27 -3 2
-5 -12 -2 -10 -9 -27 -3 2
-5 -12 -2 -11 -8 -27 -4 2
-5 -12 -2 -11 -7 -27 -3 2
-5 -11 -2 -10 -7 -26 -3 3
-6 -10 -2 -10 -7 -26 -3 2
-6 -10 -2 -11 -9 -25 -2 2
-6 -10 -2 -11 -9 -26 -3 1
-5 -11 -3 -11 -9 -27 -4 0
-5 -11 -3 -11 -10 -28 -6 0
-5 -11 -3 -12 -10 -28 -7 1
-5 -11 -2 -12 -10 -28 -7 1
-6 -11 -2 -12 -10 -28 -7 0
-6 -11 -3 -12 -9 -28 -7 0
-7 -12 -3 -12 -8 -26 -5 1
-7 -12 -3 -12 -9 -25 -5 2
-7 -11 -3 -11 -9 -25 -5 2
-6 -11 -3 -12 -10 -26 -6 0
-5 -11 -3 -11 -10 -26 -6 1
-5 -11 -3 -11 -10 -26 -6 1
-5 -12 -3 -11 -10 -27 -6 0
-6 -12 -3 -10 -10 -26 -6 -2
-6 -11 -3 -11 -11 -27 -8 -3
-5 -10 -3 -12 -10 -27 -8 -3
-5 -10 -3 -12 -10 -26 -8 -3
-5 -12 -3 -12 -11 -26 -8 -3
-6 -12 -3 -11 -11 -25 -7 0
-7 -11 -2 -11 -10 -25 -7 1
-6 -10 -2 -11 -11 -26 -7 1
-5 -10 0 -10 -11 -25 -6 2
-4 -10 -2 -10 -12 -26 -6 1
-4 -9 0 -9 -10 -25 -5 3
-4 -8 1 -8 -8 -23 -3 4
-4 -6 1 -7 -8 -21 -3 5
-4 -4 2 -7 -7 -20 -3 5
-4 -2 3 -6 -5 -18 0 6
-4 1 4 -6 -5 -18 0 6
-3 2 4 -7 -5 -17 0 5
-2 4 5 -6 -5 -17 0 5
0 4 7 -5 -4 -16 1 6
1 4 8 -3 -4 -16 1 6
0 4 8 -3 -4 -16 0 4
0 4 8 -3 -4 -16 0 4
-2 5 8 -3 -4 -16 1 5
-2 5 8 -3 -4 -15 1 6
0 4 8 -3 -2 -13 2 7
1 7 6 -2 0 -11 4 10
3 10 5 -2 1 -10 4 11
5 12 5 0 2 -9 5 12
6 11 4 0 3 -9 6 13
6 9 2 0 3 -8 7 12
7 9 2 2 6 -6 8 12
7 11 3 4 7 -4 9 13
6 13 5 5 8 -2 11 14
7 13 3 4 7 0 12 15
10 11 -3 0 5 -4 10 13
9 9 -5 -4 1 -7 6 11
7 6 -5 -5 -2 -8 5 10
7 5 -5 -5 -3 -9 5 9
6 4 -6 -5 -3 -9 5 9
5 0 -6 -5 -4 -10 3 8
5 -6 -7 -6 -7 -13 0 4
5 -9 -6 -8 -8 -15 -3 2
4 -9 -5 -9 -9 -15 -3 2
2 -7 -4 -10 -10 -16 -3 2
0 -6 -4 -11 -11 -16 -4 2
0 -5 -3 -12 -13 -17 -5 1
0 -5 -3 -12 -14 -18 -7 1
-2 -6 -3 -13 -15 -18 -8 0
-4 -7 -2 -13 -15 -18 -8 -2
-5 -8 0 -12 -15 -17 -9 -3
-6 -10 0 -13 -16 -18 -10 -5
-6 -13 -2 -14 -18 -19 -12 -7
-6 -14 -4 -18 -20 -21 -13 -7
-6 -14 -4 -19 -21 -22 -14 -8
-6 -14 -5 -19 -21 -22 -14 -9
-6 -15 -3 -18 -21 -21 -14 -10
-6 -16 -3 -18 -22 -21 -15 -10
-7 -17 -2 -17 -22 -21 -15 -9
-7 -16 -3 -18 -24 -23 -16 -11
-8 -16 -2 -17 -23 -22 -15 -10
-8 -16 -2 -16 -23 -22 -15 -11
-9 -16 -2 -16 -23 -22 -15 -11
-9 -16 -2 -16 -23 -21 -15 -11
-9 -16 -2 -17 -23 -21 -15 -11
-9 -16 -2 -17 -23 -21 -15 -11
-8 -16 -2 -17 -24 -21 -15 -11
-8 -17 -2 -18 -25 -22 -16 -11
-8 -17 -2 -18 -25 -22 -17 -11
-8 -17 -2 -18 -25 -22 -18 -12
-8 -17 -2 -18 -25 -22 -18 -12
-8 -17 -2 -18 -25 -22 -18 -13
-9 -16 -2 -18 -25 -22 -18 -12
-9 -16 -2 -18 -25 -21 -18 -11
-8 -15 -3 -19 -26 -22 -18 -12
-7 -15 -3 -18 -26 -22 -19 -12
-8 -16 -2 -18 -26 -21 -18 -11
-9 -17 -2 -19 -26 -22 -19 -11
-9 -18 -3 -20 -26 -22 -19 -11
-9 -18 -2 -19 -26 -22 -19 -11
-9 -17 -2 -18 -27 -21 -20 -12
-9 -17 -2 -18 -26 -22 -20 -12
-9 -17 -2 -18 -26 -22 -20 -12
-9 -17 -2 -18 -27 -21 -19 -12
-10 -17 -2 -19 -27 -22 -20 -12
-10 -17 -2 -19 -28 -23 -20 -13
-10 -16 -3 -19 -28 -23 -21 -13
-9 -16 -3 -19 -27 -22 -22 -13
-9 -16 -2 -19 -27 -22 -23 -13
-9 -16 -2 -18 -28 -23 -24 -14
-9 -15 1 -18 -29 -25 -25 -15
-9 -14 3 -17 -31 -28 -27 -17
-10 -13 7 -12 -31 -31 -29 -19
-11 -13 13 -6 -30 -32 -31 -20
-11 -14 18 2 -30 -34 -34 -22
-10 -15 24 12 -26 -32 -33 -23
-9 -16 30 26 -19 -25 -28 -20
-6 -15 38 45 -5 -13 -18 -13
1 -13 48 69 16 7 0 -3
7 -7 55 92 43 32 22 13
12 3 58 103 68 62 49 32
19 15 61 115 101 100 82 57
27 32 68 136 145 146 122 86
35 53 69 148 189 195 163 116
43 74 60 137 222 239 201 146
49 96 45 110 244 277 235 173
50 121 25 82 270 318 270 201
48 148 3 55 302 363 307 233
48 164 -26 23 325 395 335 257
50 159 -55 -10 326 401 340 258
51 137 -77 -37 305 375 317 236
47 108 -94 -50 267 321 270 198
42 75 -103 -52 219 247 201 146
33 44 -101 -49 169 168 126 89
25 22 -94 -49 118 97 60 42
16 14 -87 -57 68 45 18 15
11 14 -83 -69 23 13 0 8
8 16 -80 -78 -11 -5 -10 5
5 17 -71 -78 -32 -15 -15 4
2 18 -58 -68 -45 -22 -18 3
-2 15 -46 -55 -41 -20 -17 4
-2 11 -38 -43 -31 -14 -15 4
-2 7 -31 -33 -23 -9 -14 3
-2 5 -25 -28 -21 -9 -15 1
-3 4 -20 -25 -20 -9 -16 0
-3 2 -16 -23 -20 -10 -17 -3
-3 -2 -12 -18 -20 -11 -19 -5
-3 -6 -7 -12 -19 -11 -19 -6
-3 -8 -6 -10 -21 -13 -21 -7
-4 -9 -4 -10 -21 -15 -22 -8
-5 -10 -3 -10 -21 -16 -23 -9
-5 -11 -3 -10 -22 -17 -24 -9
-5 -12 -3 -11 -23 -18 -24 -10
-6 -12 -2 -11 -24 -18 -24 -10
-7 -11 -2 -11 -25 -18 -25 -11
-6 -12 1 -11 -27 -19 -26 -12
-6 -13 1 -11 -27 -21 -27 -13
-6 -15 2 -9 -27 -21 -27 -12
-6 -15 2 -8 -27 -21 -27 -12
-6 -16 3 -7 -27 -21 -27 -12
-7 -16 3 -7 -26 -21 -27 -12
-7 -15 4 -7 -26 -21 -27 -12
-6 -13 3 -8 -26 -22 -27 -12
-6 -13 4 -8 -26 -21 -27 -12
-6 -13 4 -9 -26 -21 -27 -12
-6 -12 4 -9 -27 -20 -28 -12
-5 -12 3 -10 -29 -22 -29 -14
-5 -13 3 -8 -29 -21 -29 -13
-5 -14 4 -7 -29 -22 -29 -13
-5 -14 4 -6 -29 -22 -29 -13
-5 -14 4 -6 -28 -22 -29 -13
-7 -14 5 -6 -26 -20 -27 -12
-7 -14 5 -6 -26 -19 -27 -12
-6 -14 4 -6 -27 -19 -28 -13
-5 -14 4 -7 -27 -19 -28 -13
-4 -14 4 -7 -27 -19 -28 -13
-3 -14 4 -7 -28 -20 -29 -14
-3 -14 4 -7 -29 -20 -29 -15
-3 -14 4 -6 -29 -20 -30 -15
-5 -15 5 -5 -28 -19 -30 -15
-7 -15 6 -5 -27 -19 -29 -14
-7 -15 6 -5 -26 -17 -29 -13
-6 -13 5 -5 -26 -17 -28 -13
-4 -12 4 -6 -26 -17 -29 -13
-4 -12 4 -6 -26 -17 -29 -14
-4 -12 4 -6 -26 -17 -30 -14
-5 -12 4 -5 -27 -18 -30 -14
-4 -13 4 -5 -28 -18 -30 -15
-4 -13 5 -4 -28 -18 -31 -15
-3 -13 6 -3 -27 -17 -31 -14
-4 -12 5 -3 -26 -17 -31 -14
-4 -13 5 -2 -25 -17 -30 -14
-4 -13 5 -2 -24 -16 -29 -13
-4 -13 5 -2 -23 -14 -28 -12
-4 -12 5 -2 -23 -14 -28 -12
-5 -12 5 -2 -23 -14 -28 -12
-5 -13 6 1 -23 -14 -27 -11
-4 -13 5 0 -24 -16 -28 -12
-4 -13 5 1 -24 -15 -28 -12
-3 -13 6 2 -24 -14 -27 -11
-3 -13 5 3 -22 -14 -26 -11
-3 -13 5 2 -20 -13 -25 -10
-4 -13 5 2 -19 -12 -25 -10
-3 -12 5 2 -18 -11 -24 -9
-2 -11 5 2 -18 -11 -25 -10
-2 -11 6 3 -18 -11 -24 -10
0 -11 6 4 -19 -11 -24 -9
0 -11 7 5 -18 -11 -24 -9
0 -11 7 6 -18 -10 -23 -9
0 -11 7 7 -17 -10 -23 -9
0 -11 7 8 -16 -9 -22 -9
0 -10 6 7 -15 -9 -23 -9
0 -9 6 7 -14 -8 -22 -9
0 -9 6 8 -12 -7 -21 -8
0 -8 6 9 -11 -5 -20 -7
0 -8 7 9 -10 -4 -19 -6
0 -8 7 11 -10 -4 -19 -6
0 -8 7 13 -10 -4 -19 -7
0 -9 7 13 -9 -3 -19 -7
1 -8 6 13 -9 -3 -19 -7
2 -7 7 15 -6 0 -17 -5
2 -6 6 17 -4 2 -16 -4
2 -6 6 18 -2 4 -15 -3
1 -6 7 19 1 6 -13 0
2 -5 6 20 2 7 -12 0
3 -4 7 21 2 8 -12 0
4 -4 7 23 3 9 -10 1
5 -3 6 24 2 10 -10 0
5 -3 7 25 4 11 -9 1
5 -3 7 27 7 13 -8 2
4 -2 8 29 10 15 -6 4
4 0 8 31 13 18 -4 6
6 1 7 32 15 20 -2 7
7 2 6 32 17 22 0 8
8 3 6 34 20 25 2 9
10 5 5 35 21 26 3 10
11 7 5 37 22 27 5 11
12 7 5 40 25 30 7 13
12 7 5 43 28 33 10 14
13 8 5 44 30 35 11 16
14 9 5 46 33 38 14 19
15 10 4 46 36 42 17 20
15 11 4 47 39 46 20 22
15 12 3 47 42 48 22 24
14 13 2 48 45 50 25 26
15 15 3 49 47 52 27 27
16 16 3 51 50 55 29 29
17 18 2 52 51 56 31 30
18 18 1 52 51 57 32 31
18 19 1 53 53 59 34 32
18 19 0 54 55 62 36 34
19 20 -2 53 57 63 38 35
19 20 -3 53 59 65 42 37
18 21 -3 52 60 67 44 38
19 22 -3 52 62 69 45 40
21 23 -4 51 62 69 45 40
21 23 -4 52 63 69 46 43
21 23 -4 52 63 69 47 43
22 23 -5 51 62 69 47 43
23 23 -5 51 62 70 48 43
23 23 -5 51 63 71 49 44
23 24 -5 50 64 72 50 45
23 25 -7 48 64 71 50 44
23 25 -7 47 64 72 51 45
23 25 -8 46 64 72 51 45
22 25 -8 45 64 72 51 46
21 24 -8 44 62 70 50 45
22 23 -8 42 60 68 49 44
23 22 -8 40 58 66 47 43
22 21 -6 39 56 65 46 42
20 21 -6 38 54 63 44 40
18 20 -5 36 52 61 43 39
17 18 -4 35 50 59 39 37
15 17 -4 32 48 56 37 36
13 16 -3 30 45 53 34 34
12 16 -3 27 39 48 30 31
12 14 -2 26 35 45 26 28
11 12 -2 23 31 40 22 26
10 10 -2 20 27 36 19 23
8 9 0 18 23 33 16 21
7 7 0 17 20 29 13 19
6 5 0 14 17 26 10 17
4 3 0 12 14 24 8 15
4 2 0 9 11 21 5 13
4 1 1 7 9 18 2 12
3 0 1 5 5 14 -2 9
3 -2 2 4 2 12 -5 7
3 -3 1 3 -2 8 -8 5
3 -5 2 2 -5 6 -9 3
2 -7 2 0 -8 4 -11 2
0 -8 3 -2 -9 3 -12 1
-2 -9 2 -3 -10 1 -14 0
0 -9 2 -5 -11 0 -15 -2
0 -10 2 -6 -12 -2 -16 -3
0 -11 2 -7 -13 -2 -17 -3
-2 -11 2 -7 -15 -4 -18 -4
-2 -12 2 -7 -16 -6 -19 -5
0 -12 2 -7 -17 -7 -20 -6
-2 -13 2 -7 -17 -7 -20 -6
-2 -14 2 -8 -18 -8 -21 -7
-3 -14 2 -9 -19 -9 -21 -8
-4 -14 3 -9 -18 -8 -20 -7
-4 -14 3 -9 -17 -8 -21 -7
-3 -14 2 -10 -18 -9 -22 -8
-3 -13 2 -10 -18 -9 -21 -7
-4 -13 2 -10 -19 -9 -21 -8
-4 -14 3 -9 -20 -9 -21 -8
-5 -15 3 -10 -22 -11 -22 -9
-4 -15 3 -10 -21 -12 -23 -9
-4 -15 3 -10 -21 -12 -24 -9
-4 -15 2 -10 -21 -12 -24 -9
-4 -15 2 -10 -20 -11 -23 -9
-5 -15 1 -10 -20 -11 -23 -8
-5 -15 1 -11 -20 -10 -22 -8
-5 -14 1 -12 -19 -10 -22 -8
-4 -14 1 -11 -20 -11 -21 -8
-4 -15 0 -11 -21 -12 -22 -8
-4 -16 0 -11 -22 -12 -23 -9
-5 -17 1 -10 -21 -11 -23 -9
-5 -17 1 -10 -21 -11 -23 -9
-5 -17 1 -10 -21 -11 -22 -8
-4 -17 1 -9 -20 -11 -22 -8
-4 -17 1 -9 -19 -10 -22 -8
-4 -16 0 -10 -20 -11 -23 -9
-4 -16 0 -10 -20 -12 -22 -9
-4 -15 1 -10 -20 -12 -22 -9
-5 -15 0 -10 -21 -13 -23 -10
-5 -16 1 -9 -21 -13 -23 -10
-5 -16 1 -9 -21 -13 -23 -10
-4 -16 -2 -10 -21 -14 -24 -11
-4 -16 -2 -9 -21 -14 -24 -11
-4 -16 -2 -9 -21 -13 -23 -11
-5 -15 0 -9 -19 -12 -22 -10
-5 -15 0 -8 -18 -11 -22 -9
-5 -15 0 -8 -18 -11 -22 -8
-5 -14 0 -8 -18 -11 -21 -8
-5 -14 0 -7 -18 -12 -21 -9
-5 -14 1 -8 -19 -12 -21 -9
-5 -15 1 -8 -19 -12 -21 -10
-6 -15 2 -6 -17 -11 -20 -9
-6 -15 2 -6 -16 -11 -20 -9
-6 -15 2 -6 -16 -10 -20 -9
-5 -14 1 -7 -17 -10 -20 -9
-5 -14 2 -7 -16 -10 -20 -9
-5 -15 2 -7 -15 -9 -19 -8
-4 -14 1 -6 -15 -10 -19 -8
-4 -14 1 -5 -15 -11 -19 -8
-3 -14 0 -5 -17 -12 -20 -9
-3 -14 0 -5 -17 -12 -20 -10
-3 -14 0 -5 -16 -11 -20 -9
-3 -15 1 -4 -15 -10 -18 -8
-4 -15 1 -5 -15 -9 -18 -8
-5 -14 1 -5 -14 -9 -18 -8
-5 -13 1 -5 -14 -9 -17 -7
-4 -12 1 -6 -15 -10 -18 -7
-4 -12 1 -6 -15 -11 -17 -7
-5 -13 2 -4 -14 -10 -17 -6
-5 -13 2 -4 -14 -10 -17 -6
-5 -13 1 -3 -14 -10 -17 -7
-4 -13 0 -4 -15 -11 -17 -7
-4 -14 0 -3 -13 -10 -15 -6
-3 -14 -2 -6 -14 -10 -16 -6
-2 -14 -3 -7 -14 -9 -15 -6
0 -14 -2 -5 -12 -8 -13 -5
1 -13 -3 -5 -11 -7 -13 -5
1 -12 -4 -4 -11 -7 -12 -4
2 -13 -4 -3 -11 -7 -12 -4
4 -14 -4 -2 -12 -9 -12 -5
5 -14 -2 1 -10 -8 -12 -5
4 -14 0 2 -8 -7 -11 -5
3 -14 4 5 -6 -5 -9 -4
3 -13 5 5 -6 -5 -9 -4
3 -12 6 6 -4 -3 -8 -3
4 -11 3 4 -5 -4 -8 -2
5 -10 4 3 -4 -3 -7 0
6 -9 4 4 -3 -2 -6 1
6 -7 3 4 -2 -2 -6 1
6 -7 2 4 -3 -2 -5 3
6 -6 3 4 -4 -2 -4 3
7 -6 4 6 -3 0 -4 3
8 -7 4 5 -4 -2 -5 2
8 -9 4 3 -5 -3 -6 0
7 -8 5 2 -5 -4 -6 1
8 -6 6 2 -4 -3 -6 1
8 -5 8 4 -3 -2 -5 2
7 -5 11 5 -3 -2 -4 3
6 -5 15 7 0 -2 -3 4
5 -4 17 8 1 0 -3 4
4 -3 18 9 1 0 -2 4
5 -3 16 8 1 -2 -3 3
5 -2 15 6 0 -2 -2 4
4 -2 13 4 -2 -2 -3 4
2 -2 11 3 -2 0 -2 5
1 -2 9 2 -2 0 -2 6
1 0 8 2 -2 0 -2 6
1 0 6 1 -3 -2 -2 5
1 -2 5 0 -6 -4 -4 3
0 -3 4 -2 -7 -6 -5 2
-2 -6 3 -3 -9 -8 -7 1
-3 -8 2 -5 -11 -10 -8 -2
-4 -11 1 -6 -13 -11 -9 -3
-3 -14 0 -8 -16 -14 -12 -7
-4 -15 0 -10 -16 -14 -12 -7
-6 -15 1 -11 -16 -13 -12 -6
-6 -15 0 -12 -17 -14 -13 -6
-5 -14 -2 -13 -19 -16 -14 -7
-5 -14 -2 -14 -20 -17 -15 -8
-5 -15 -2 -14 -21 -18 -15 -8
-5 -15 -3 -14 -21 -18 -16 -8
-6 -15 -2 -13 -20 -17 -15 -8
-6 -15 -2 -14 -20 -17 -15 -8
-7 -14 -2 -15 -21 -17 -15 -8
-7 -14 -3 -15 -21 -17 -15 -8
-7 -15 -3 -16 -22 -18 -15 -9
-8 -15 -3 -18 -22 -19 -16 -9
-7 -15 -3 -18 -23 -20 -16 -10
-6 -15 -2 -18 -24 -20 -17 -11
-7 -16 -3 -19 -25 -21 -17 -11
-9 -17 -2 -17 -24 -21 -17 -11
-9 -17 -2 -17 -24 -21 -18 -11
-9 -17 -2 -18 -24 -21 -18 -11
-9 -17 -2 -18 -24 -21 -17 -11
-9 -17 -3 -18 -24 -21 -17 -11
-9 -17 -3 -19 -24 -21 -17 -11
-9 -17 -4 -20 -24 -22 -18 -11
-9 -17 -4 -21 -25 -22 -18 -12
-9 -18 -5 -21 -25 -23 -18 -12
-9 -18 -4 -21 -26 -23 -19 -13
-9 -17 -4 -20 -26 -24 -19 -13
-9 -17 -4 -20 -26 -24 -19 -13
-9 -17 -4 -20 -25 -24 -19 -12
-8 -17 -4 -19 -25 -23 -18 -12
-7 -17 -4 -19 -25 -23 -18 -12
-8 -17 -4 -20 -25 -23 -18 -12
-9 -16 -4 -21 -25 -23 -18 -12
-9 -17 -5 -21 -26 -24 -18 -12
-10 -17 -5 -21 -26 -24 -19 -12
-9 -17 -5 -21 -26 -25 -19 -13
-9 -17 -4 -21 -27 -25 -19 -13
-9 -17 -3 -21 -28 -25 -20 -14
-10 -16 -2 -20 -27 -25 -21 -14
-11 -14 3 -18 -27 -26 -21 -14
-13 -13 7 -15 -29 -29 -23 -16
-14 -12 12 -13 -30 -31 -26 -19
-14 -13 17 -7 -30 -33 -28 -22
-13 -14 23 4 -28 -33 -30 -24
-11 -16 30 18 -24 -30 -27 -23
-8 -16 39 36 -12 -21 -18 -18
-4 -15 51 60 5 -7 -7 -12
2 -11 62 84 28 15 12 0
8 -4 69 104 56 43 37 17
17 8 74 126 89 77 66 37
27 21 79 153 135 120 103 63
38 38 76 169 183 169 145 93
48 59 57 151 217 213 184 121
54 81 32 115 238 250 219 149
57 103 8 80 260 285 251 176
58 123 -21 45 284 323 284 203
59 137 -59 4 303 352 310 223
62 131 -94 -28 309 359 316 225
64 108 -116 -37 297 338 300 206
62 80 -127 -35 267 292 260 174
54 56 -126 -35 222 225 199 129
43 32 -113 -34 172 151 130 78
31 14 -97 -37 119 81 66 34
21 8 -83 -46 70 32 25 10
14 10 -78 -59 28 5 7 3
9 16 -71 -65 -2 -7 3 4
6 18 -61 -63 -21 -16 0 3
4 16 -51 -57 -33 -21 -5 0
2 11 -44 -49 -34 -21 -6 -2
1 7 -35 -38 -24 -15 -3 -3
0 5 -27 -31 -17 -12 -2 -4
-2 3 -22 -30 -17 -13 -4 -5
-2 1 -19 -27 -16 -13 -6 -7
-3 -3 -13 -21 -13 -12 -5 -8
-4 -6 -9 -16 -12 -12 -6 -9
-5 -8 -6 -13 -14 -14 -8 -11
-4 -9 -6 -12 -17 -16 -10 -13
-4 -11 -5 -12 -18 -17 -11 -14
-5 -13 -4 -12 -18 -17 -12 -14
-6 -13 -4 -13 -19 -18 -13 -15
-6 -12 -4 -13 -19 -19 -13 -15
-6 -12 -3 -14 -20 -19 -14 -16
-6 -13 -2 -15 -21 -20 -15 -16
-6 -13 -2 -15 -23 -21 -16 -17
-5 -13 0 -13 -24 -22 -17 -17
-4 -14 0 -12 -25 -22 -17 -18
-4 -15 0 -13 -26 -24 -18 -18
-5 -15 0 -13 -26 -24 -19 -19
-6 -15 0 -11 -25 -23 -18 -19
-7 -15 0 -11 -24 -22 -17 -19
-9 -15 1 -11 -23 -21 -16 -18
-9 -15 2 -12 -22 -21 -15 -17
-7 -15 2 -13 -23 -22 -14 -18
-7 -15 2 -12 -24 -22 -15 -18
-8 -16 3 -10 -24 -22 -15 -18
-8 -17 3 -10 -25 -23 -16 -19
-6 -17 3 -10 -26 -23 -18 -20
-6 -16 3 -9 -26 -23 -18 -20
-7 -17 4 -7 -24 -22 -17 -19
-8 -17 4 -8 -24 -22 -16 -19
-8 -16 4 -9 -23 -22 -15 -19
-7 -16 4 -10 -22 -22 -15 -20
-7 -16 4 -10 -22 -22 -15 -20
-6 -16 5 -10 -22 -21 -15 -20
-6 -17 5 -9 -24 -22 -16 -20
-6 -17 5 -7 -25 -22 -17 -21
-6 -17 5 -7 -25 -23 -17 -21
-7 -16 5 -7 -24 -23 -18 -21
-7 -16 4 -7 -23 -23 -17 -21
-7 -16 4 -6 -22 -22 -16 -21
-7 -16 4 -7 -21 -21 -15 -20
-7 -16 5 -7 -21 -20 -15 -20
-6 -16 5 -6 -20 -19 -14 -20
-5 -15 5 -7 -22 -20 -14 -21
-5 -15 5 -7 -23 -21 -16 -21
-5 -15 5 -7 -24 -22 -17 -22
-5 -16 6 -4 -23 -20 -16 -21
-4 -15 5 -4 -23 -21 -16 -21
-5 -14 5 -4 -23 -20 -16 -21
-5 -14 5 -4 -22 -19 -15 -21
-5 -13 5 -4 -20 -18 -14 -20
-6 -13 5 -4 -19 -18 -13 -19
-6 -13 6 -3 -19 -17 -12 -20
-5 -13 7 -3 -19 -17 -12 -20
-5 -14 7 -2 -20 -18 -12 -21
-5 -14 7 0 -21 -19 -13 -21
-5 -15 7 0 -20 -18 -13 -21
-5 -15 6 2 -19 -18 -13 -21
-5 -14 6 3 -18 -17 -12 -20
-6 -14 6 2 -18 -17 -11 -20
-5 -13 6 2 -16 -16 -10 -19
-5 -13 6 3 -14 -15 -8 -18
-5 -13 7 3 -14 -14 -7 -18
-4 -13 7 2 -15 -15 -8 -18
-3 -13 7 4 -14 -14 -7 -18
-3 -13 7 5 -14 -14 -8 -19
-3 -13 7 6 -15 -14 -9 -20
-3 -14 7 7 -14 -14 -9 -19
-3 -13 7 8 -12 -13 -7 -19
-3 -12 8 9 -11 -11 -6 -17
-3 -11 7 9 -10 -10 -5 -17
-3 -11 8 10 -8 -9 -4 -16
-2 -11 8 10 -7 -8 -3 -16
0 -11 9 10 -6 -7 -2 -15
0 -10 8 11 -7 -7 -2 -16
0 -10 8 13 -7 -7 -2 -16
0 -10 8 15 -6 -6 -2 -16
0 -10 7 17 -4 -5 0 -16
0 -10 7 18 -2 -4 0 -16
-2 -9 7 19 2 -2 2 -15
0 -9 7 21 4 1 4 -13
1 -8 7 21 5 2 6 -13
1 -7 8 23 6 4 8 -11
1 -7 8 24 8 5 9 -10
2 -6 8 26 8 6 9 -10
3 -6 9 28 10 9 11 -9
4 -5 9 29 11 10 12 -9
4 -4 8 30 14 12 13 -7
4 -3 8 33 17 15 15 -6
4 -2 8 34 19 17 17 -5
5 0 8 35 22 20 20 -3
6 1 8 36 25 22 22 -2
7 2 8 37 27 23 24 0
9 3 7 38 29 25 26 2
10 4 8 42 31 28 29 4
10 6 7 44 32 30 30 5
11 7 6 45 33 31 32 6
11 8 5 47 36 34 34 8
12 9 3 48 40 37 36 10
13 10 3 49 45 42 39 13
14 12 3 50 48 45 43 14
15 13 3 50 50 48 46 16
16 14 2 49 51 49 48 17
15 15 1 50 54 52 51 19
15 15 1 51 55 54 53 21
16 16 1 53 56 56 55 22
17 16 0 53 57 57 56 22
18 17 0 54 60 59 58 24
18 18 -3 53 61 60 59 24
17 19 -3 53 63 62 60 26
17 20 -2 53 64 63 62 27
17 20 -3 53 66 65 64 28
18 21 -4 52 66 65 65 28
18 21 -5 52 67 66 66 28
19 21 -4 53 67 67 67 30
20 22 -5 52 67 67 67 30
20 21 -5 53 67 68 69 32
19 21 -6 52 67 68 69 32
19 21 -6 52 68 69 69 32
21 22 -7 50 69 69 69 32
21 23 -6 49 69 70 70 33
21 23 -6 48 69 70 70 33
20 23 -6 46 66 68 68 31
19 22 -6 45 64 67 67 30
18 21 -6 43 60 63 64 28
17 19 -5 42 58 61 62 27
15 18 -4 39 54 57 59 25
14 16 -3 37 51 54 56 22
13 15 -2 34 48 51 53 20
12 13 -2 32 46 48 50 18
10 12 -2 30 43 44 46 16
9 10 0 27 38 40 43 14
8 9 1 25 34 36 39 12
7 7 2 23 30 33 36 9
6 5 2 21 26 29 32 5
5 3 2 19 21 24 29 2
4 0 3 18 17 20 25 0
2 -3 3 16 14 17 21 -4
1 -4 3 14 11 15 18 -6
0 -5 3 12 9 13 16 -8
-2 -6 3 9 6 10 14 -9
-2 -7 4 7 5 8 12 -11
-2 -8 3 5 2 5 10 -12
-2 -9 3 4 -2 3 8 -14
-2 -11 4 3 -4 0 6 -15
-4 -13 5 2 -7 -3 4 -18
-5 -14 5 2 -9 -4 2 -19
-5 -14 4 0 -11 -6 1 -20
-5 -14 4 -2 -12 -7 0 -21
-5 -14 3 -3 -13 -9 -2 -21
-5 -14 3 -4 -13 -9 -3 -22
-8 -14 4 -4 -12 -8 -3 -22
-8 -15 4 -5 -14 -9 -4 -22
-5 -15 3 -7 -16 -11 -6 -23
-4 -16 3 -7 -17 -12 -6 -24
-6 -16 4 -6 -17 -12 -6 -24
-6 -16 3 -6 -18 -12 -7 -25
-4 -17 3 -6 -18 -12 -7 -26
-2 -17 2 -7 -19 -14 -8 -27
-4 -17 2 -7 -18 -13 -7 -26
-6 -17 2 -8 -18 -13 -7 -26
-7 -17 3 -8 -17 -12 -6 -25
-7 -17 3 -8 -17 -11 -7 -25
-8 -17 4 -8 -17 -11 -7 -25
-8 -17 3 -7 -18 -12 -8 -25
-7 -17 3 -7 -20 -13 -8 -25
-6 -17 2 -7 -21 -14 -9 -27
-6 -17 2 -8 -20 -14 -9 -27
-6 -17 2 -8 -20 -14 -9 -28
-7 -17 2 -8 -18 -14 -8 -27
-7 -17 2 -8 -18 -13 -8 -27
-7 -16 1 -10 -19 -14 -8 -28
-7 -16 2 -9 -19 -13 -8 -28
-6 -16 3 -9 -19 -13 -8 -27
-6 -16 3 -8 -20 -14 -9 -27
-7 -17 3 -7 -19 -13 -8 -27
-7 -17 3 -7 -20 -14 -8 -27
-7 -17 3 -7 -20 -14 -8 -27
-7 -17 3 -6 -19 -13 -8 -27
-7 -17 3 -7 -19 -12 -7 -27
-7 -16 2 -8 -19 -13 -8 -29
-8 -16 3 -8 -18 -12 -7 -28
-8 -16 3 -8 -18 -12 -7 -27
-7 -16 2 -9 -19 -13 -8 -28
-7 -16 3 -8 -20 -13 -9 -28
-7 -17 4 -7 -19 -13 -9 -28
-8 -17 3 -6 -20 -14 -9 -29
-8 -17 3 -7 -20 -14 -9 -29
-9 -17 3 -7 -20 -14 -10 -30
-9 -16 3 -7 -19 -13 -10 -29
-8 -16 4 -7 -18 -12 -9 -28
-8 -16 5 -7 -17 -12 -8 -27
-8 -16 5 -7 -17 -12 -8 -28
-9 -16 4 -7 -17 -12 -8 -29
-8 -16 4 -6 -18 -12 -8 -29
-8 -16 3 -6 -20 -13 -9 -30
-7 -16 2 -7 -22 -14 -11 -31
-8 -16 4 -6 -20 -13 -10 -29
-8 -15 3 -7 -19 -14 -10 -30
-8 -14 3 -7 -18 -13 -9 -30
-8 -14 3 -7 -18 -12 -9 -30
-8 -14 3 -8 -18 -11 -8 -30
-8 -14 3 -7 -18 -11 -8 -31
-8 -14 3 -6 -18 -12 -8 -31
-8 -14 3 -6 -18 -12 -8 -31
-8 -15 4 -6 -19 -13 -9 -31
-8 -15 4 -6 -19 -13 -10 -32
-7 -15 4 -7 -19 -14 -10 -33
-7 -14 4 -7 -19 -14 -10 -33
-7 -14 4 -7 -18 -13 -9 -31
-7 -13 3 -8 -18 -12 -9 -31
-7 -12 4 -7 -17 -12 -8 -31
-7 -12 3 -7 -17 -12 -8 -31
-8 -13 3 -6 -17 -12 -8 -31
-9 -13 3 -6 -18 -13 -9 -32
-9 -13 3 -7 -20 -13 -9 -33
-9 -13 3 -6 -20 -13 -9 -33
-9 -13 3 -6 -19 -13 -9 -33
-9 -13 3 -6 -19 -13 -9 -33
-9 -13 3 -7 -18 -13 -9 -32
-9 -13 3 -7 -18 -12 -8 -31
-9 -13 3 -8 -18 -11 -7 -31
-9 -13 3 -8 -18 -11 -7 -32
-9 -13 3 -8 -18 -12 -7 -31
-9 -12 4 -8 -19 -12 -7 -31
-9 -12 4 -7 -19 -13 -7 -31
-8 -13 3 -7 -19 -14 -8 -32
-8 -14 3 -8 -19 -14 -8 -32
-9 -14 3 -8 -19 -13 -8 -33
-9 -13 4 -8 -18 -13 -8 -32
-8 -13 3 -8 -17 -12 -8 -32
-8 -13 3 -8 -17 -12 -8 -32
-9 -13 2 -9 -18 -12 -8 -33
-9 -14 2 -9 -18 -12 -8 -32
-9 -14 3 -9 -19 -12 -8 -32
-8 -14 3 -9 -20 -13 -8 -32
-8 -13 3 -9 -19 -13 -8 -33
-8 -14 3 -9 -19 -13 -7 -33
-9 -14 3 -9 -19 -13 -8 -33
-9 -14 3 -9 -19 -13 -8 -34
-9 -13 3 -9 -19 -12 -8 -34
-9 -14 3 -10 -19 -12 -8 -34
-9 -14 2 -11 -20 -12 -8 -34
-9 -14 2 -11 -20 -13 -9 -34
-9 -14 3 -10 -21 -13 -10 -34
-9 -15 4 -10 -20 -14 -9 -34
-9 -15 4 -11 -21 -15 -10 -33
-9 -16 3 -11 -21 -16 -10 -34
-10 -16 3 -11 -22 -16 -10 -35
-9 -16 3 -11 -22 -15 -9 -35
-8 -16 3 -11 -21 -14 -8 -36
-8 -16 3 -12 -20 -14 -8 -35
-8 -15 1 -13 -21 -15 -10 -36
-8 -14 1 -13 -22 -16 -11 -36
-8 -14 1 -13 -22 -16 -13 -36
-8 -14 1 -13 -23 -16 -12 -37
-8 -13 2 -12 -23 -16 -12 -36
-9 -14 2 -13 -23 -17 -12 -36
-9 -15 2 -13 -22 -17 -12 -37
-9 -16 1 -14 -23 -16 -13 -38
-8 -15 0 -15 -23 -17 -13 -39
-9 -15 1 -14 -22 -16 -11 -37
-10 -15 2 -14 -22 -16 -11 -37
-10 -15 1 -14 -23 -16 -12 -38
-9 -16 1 -14 -24 -17 -12 -38
-9 -16 1 -14 -25 -17 -13 -39
-9 -17 1 -15 -25 -18 -13 -39
-9 -17 1 -15 -25 -19 -13 -40
-9 -17 0 -15 -25 -18 -13 -39
-9 -16 0 -16 -25 -18 -13 -39
-9 -16 0 -16 -24 -18 -13 -39
-9 -16 0 -16 -24 -17 -12 -39
-9 -16 0 -16 -24 -17 -12 -39
-10 -16 1 -17 -25 -18 -13 -39
-10 -16 0 -17 -25 -19 -13 -39
-9 -17 0 -17 -25 -19 -14 -40
-9 -17 -2 -17 -25 -20 -14 -41
-9 -17 -2 -17 -26 -20 -15 -41
-10 -17 -2 -17 -26 -20 -15 -41
-10 -17 -2 -17 -25 -19 -14 -41
-10 -17 0 -18 -25 -18 -14 -41
-10 -17 0 -18 -25 -18 -14 -41
-9 -17 -2 -18 -25 -19 -14 -41
-9 -17 -2 -18 -25 -19 -15 -41
-10 -17 0 -18 -26 -20 -15 -41
-10 -17 0 -18 -26 -20 -15 -41
-9 -17 -2 -18 -26 -19 -15 -40
-9 -17 -2 -18 -26 -20 -15 -43
-10 -18 -2 -18 -27 -21 -16 -44
-11 -18 0 -18 -26 -20 -15 -43
-11 -18 0 -18 -26 -19 -14 -43
-11 -18 0 -18 -25 -18 -14 -41
-10 -18 -2 -18 -25 -19 -15 -43
-10 -17 -2 -18 -25 -20 -15 -43
-10 -18 -2 -18 -26 -20 -15 -43
-10 -18 -2 -18 -27 -21 -16 -43
-10 -18 -2 -19 -27 -21 -16 -44
-10 -18 -2 -19 -28 -21 -16 -44
-9 -18 -2 -19 -27 -21 -16 -44
-9 -18 -2 -19 -26 -20 -16 -44
-9 -18 -2 -19 -26 -19 -15 -45
-10 -18 -2 -19 -26 -19 -15 -45
-9 -17 -2 -20 -26 -19 -15 -44
-9 -17 -2 -19 -25 -19 -15 -44
-10 -18 -2 -19 -26 -20 -17 -44
-11 -18 0 -18 -26 -19 -16 -44
-10 -17 -2 -18 -27 -20 -17 -45
-9 -18 -2 -18 -27 -21 -17 -45
-9 -18 -2 -19 -27 -21 -17 -45
-9 -17 -2 -19 -27 -20 -16 -45
-9 -17 -2 -19 -27 -20 -16 -44
-9 -17 -2 -19 -27 -20 -15 -45
-10 -17 -3 -19 -27 -20 -16 -45
-10 -17 -3 -20 -27 -22 -16 -46
-11 -17 -3 -20 -28 -22 -17 -47
-11 -17 -3 -20 -28 -22 -16 -47
-10 -17 -3 -19 -28 -22 -16 -47
-10 -18 -3 -18 -28 -22 -17 -47
-11 -18 -2 -18 -27 -21 -17 -47
-11 -18 -2 -19 -26 -21 -17 -48
-11 -18 -2 -19 -26 -20 -16 -46
-10 -18 -2 -20 -26 -20 -16 -45
-10 -17 -2 -20 -26 -20 -16 -41
-10 -17 -3 -20 -27 -20 -17 -40
-11 -17 -4 -20 -27 -21 -18 -39
-12 -18 -3 -19 -26 -21 -17 -37
-11 -18 -3 -19 -26 -21 -17 -36
-10 -18 -4 -20 -28 -22 -18 -35
-10 -18 -4 -20 -29 -22 -18 -34
-11 -18 -3 -19 -28 -21 -17 -32
-11 -17 -3 -20 -28 -21 -17 -31
-11 -17 -2 -20 -26 -20 -16 -29
-11 -17 -3 -20 -26 -20 -17 -28
-11 -17 -3 -21 -27 -22 -18 -28
-11 -17 -3 -20 -28 -22 -19 -26
-10 -17 -2 -20 -28 -22 -19 -24
-10 -17 -2 -20 -28 -22 -18 -23
-10 -17 -2 -20 -28 -22 -18 -22
-11 -18 0 -20 -28 -22 -17 -21
-11 -18 -2 -20 -27 -21 -17 -19
-11 -18 -2 -20 -26 -21 -17 -17
-12 -17 -2 -19 -26 -20 -16 -15
-12 -17 -2 -20 -26 -20 -16 -14
-11 -17 -3 -21 -27 -22 -18 -14
-10 -17 -3 -21 -27 -22 -18 -14
-11 -17 -3 -21 -27 -22 -18 -13
-11 -17 -3 -21 -27 -22 -18 -13
-12 -17 0 -20 -27 -21 -18 -12
-11 -18 -2 -20 -28 -21 -18 -12
-11 -18 -2 -20 -27 -21 -18 -12
-10 -17 -3 -20 -28 -22 -18 -12
-9 -17 -3 -20 -27 -21 -18 -12
-9 -17 -3 -20 -26 -21 -18 -12
-9 -17 -2 -20 -27 -21 -18 -12
-10 -17 -2 -20 -27 -21 -18 -13
-11 -18 -2 -20 -26 -21 -18 -12
-12 -17 -2 -20 -26 -21 -18 -12
-12 -17 -2 -20 -26 -22 -18 -11
-12 -17 -2 -20 -26 -21 -18 -11
-11 -17 -2 -21 -26 -22 -18 -11
-11 -17 -2 -21 -25 -21 -18 -11
-11 -17 -3 -21 -25 -21 -18 -12
-11 -17 -3 -20 -25 -21 -18 -12
-11 -17 -3 -20 -25 -20 -18 -11
-11 -16 -3 -21 -26 -21 -18 -12
-10 -17 -3 -21 -27 -22 -18 -12
-10 -17 -3 -21 -27 -22 -19 -11
-10 -18 -3 -20 -27 -22 -19 -12
-11 -18 -2 -19 -26 -21 -18 -12
-11 -18 -2 -19 -26 -21 -17 -11
-11 -17 -3 -20 -26 -21 -18 -11
-11 -17 -2 -20 -25 -21 -17 -12
-11 -17 -2 -20 -25 -21 -17 -12
-11 -17 -2 -21 -25 -22 -18 -12
-11 -17 -2 -21 -26 -22 -18 -12
-11 -17 -2 -20 -27 -22 -18 -13
-9 -17 -2 -20 -26 -21 -18 -12
-9 -17 -2 -19 -26 -21 -18 -12
-9 -17 -2 -20 -25 -20 -18 -11
-10 -17 -2 -20 -25 -21 -18 -11
-11 -17 -2 -20 -25 -21 -18 -11
-11 -16 -2 -20 -25 -21 -18 -11
-11 -16 -2 -19 -25 -21 -18 -11
-10 -16 -2 -19 -25 -20 -18 -11
-10 -16 -2 -19 -25 -21 -18 -11
-10 -17 -2 -19 -26 -21 -18 -11
-11 -17 -2 -20 -26 -21 -18 -11
-11 -17 -2 -20 -26 -21 -18 -11
-11 -17 -2 -19 -26 -21 -18 -11
-10 -17 -2 -19 -25 -20 -18 -11
-10 -16 -2 -18 -25 -19 -17 -11
-10 -16 -2 -19 -25 -20 -17 -11
-10 -16 -2 -19 -25 -21 -17 -11
-10 -16 -2 -20 -25 -20 -17 -11
-10 -16 -2 -20 -25 -20 -17 -11
-10 -16 -2 -19 -25 -21 -18 -11
-11 -17 -2 -19 -25 -20 -18 -11
-10 -17 -2 -19 -25 -20 -18 -11
-10 -17 -2 -19 -25 -20 -18 -11
-10 -17 -2 -19 -25 -20 -18 -11
-11 -17 -2 -18 -25 -20 -18 -11
-11 -17 -2 -19 -25 -20 -17 -10
-11 -16 -2 -19 -25 -20 -17 -10
-11 -15 -2 -19 -24 -20 -17 -9
-10 -16 -2 -18 -24 -20 -17 -10
-10 -17 -2 -18 -23 -20 -17 -10
-10 -17 -2 -18 -23 -19 -17 -10
-10 -17 0 -18 -23 -19 -18 -10
-11 -16 0 -18 -23 -19 -18 -10
-11 -16 -2 -19 -23 -19 -17 -11
-10 -17 -2 -18 -24 -19 -17 -11
-9 -17 -2 -18 -24 -19 -16 -11
-9 -17 0 -18 -23 -19 -16 -10
-9 -16 0 -18 -23 -19 -17 -10
-9 -16 -2 -18 -23 -20 -17 -10
-9 -16 -2 -18 -24 -20 -17 -10
-9 -17 -2 -18 -24 -20 -17 -9
-8 -17 0 -18 -24 -19 -17 -10
-9 -17 -2 -18 -24 -19 -17 -10
-9 -17 -2 -18 -23 -19 -17 -9
-9 -17 -2 -18 -23 -19 -16 -9
-9 -16 0 -18 -23 -19 -16 -9
-9 -16 0 -18 -23 -19 -16 -9
-9 -15 0 -18 -23 -19 -16 -9
-9 -16 -2 -18 -23 -19 -17 -9
-8 -16 0 -17 -23 -19 -17 -9
-7 -15 -2 -18 -25 -20 -18 -10
-8 -15 -2 -19 -25 -20 -18 -11
-9 -16 -2 -18 -24 -19 -17 -11
-10 -17 -2 -18 -23 -19 -17 -10
-10 -16 0 -18 -23 -19 -16 -9
-10 -16 0 -18 -23 -19 -16 -9
-9 -15 0 -18 -23 -19 -16 -9
-9 -15 0 -18 -22 -19 -16 -8
-9 -15 0 -17 -22 -19 -16 -8
-9 -16 0 -17 -23 -19 -16 -9
-9 -16 0 -16 -23 -19 -16 -9
-9 -16 1 -16 -23 -19 -16 -8
-9 -16 1 -16 -21 -18 -16 -8
-9 -16 2 -17 -20 -18 -16 -8
-8 -16 2 -17 -20 -18 -16 -8
-8 -16 2 -16 -20 -18 -15 -7
-7 -15 1 -17 -21 -19 -16 -7
-7 -14 0 -17 -21 -19 -16 -8
-7 -14 0 -17 -22 -19 -16 -8
-7 -14 0 -17 -22 -19 -16 -8
-7 -14 0 -17 -23 -19 -17 -9
-9 -14 -2 -18 -23 -19 -18 -10
-9 -15 -2 -17 -22 -19 -17 -10
-9 -15 -2 -17 -22 -19 -16 -9
-9 -14 -3 -18 -22 -20 -17 -9
-9 -14 -3 -17 -22 -20 -16 -8
-8 -14 -3 -17 -22 -20 -16 -8
-8 -14 -3 -18 -22 -20 -16 -8
-8 -14 -2 -18 -22 -20 -16 -8
-8 -15 -2 -17 -22 -19 -17 -8
-7 -15 -2 -16 -22 -19 -17 -8
-6 -14 -2 -17 -23 -20 -18 -9
-6 -14 -2 -17 -23 -20 -18 -10
-7 -14 0 -16 -21 -18 -16 -8
-7 -14 0 -16 -21 -18 -16 -8
-7 -14 0 -16 -21 -19 -15 -8
-7 -14 -2 -16 -21 -19 -16 -8
-8 -14 -2 -17 -22 -19 -16 -8
-8 -14 -2 -17 -22 -19 -17 -9
-7 -14 0 -17 -22 -20 -17 -9
-6 -14 -2 -17 -23 -20 -18 -10
-5 -13 -2 -17 -22 -19 -18 -9
-5 -13 -2 -17 -22 -19 -17 -9
-6 -13 -3 -16 -22 -19 -16 -9
-7 -13 -3 -16 -22 -19 -15 -9
-6 -13 0 -15 -21 -18 -14 -8
-5 -12 0 -16 -21 -19 -15 -7
-6 -10 0 -15 -20 -18 -14 -6
-7 -8 2 -13 -18 -16 -14 -5
-6 -6 3 -11 -17 -14 -12 -3
-5 -4 4 -10 -16 -13 -11 -2
-4 -3 5 -10 -15 -12 -10 -2
-4 -2 5 -9 -14 -11 -9 0
-3 -2 4 -10 -14 -12 -10 0
-3 0 5 -10 -14 -11 -9 0
-4 1 7 -10 -14 -11 -8 0
-4 2 9 -7 -12 -10 -7 2
-2 3 11 -6 -11 -9 -6 2
-2 4 12 -5 -10 -9 -6 2
-2 5 13 -4 -9 -8 -6 3
-3 5 13 -4 -10 -8 -6 3
-3 6 12 -5 -10 -8 -6 3
-2 6 9 -6 -10 -7 -6 3
-2 7 4 -8 -9 -7 -5 5
0 11 3 -9 -8 -5 -3 6
2 12 3 -6 -6 -4 0 7
3 13 3 -4 -4 -3 0 7
4 12 3 -3 -3 -2 1 8
4 12 2 -2 -3 0 1 8
6 13 1 -2 -3 0 1 8
8 14 1 -2 -2 1 3 10
8 14 2 0 1 3 4 12
7 14 2 0 0 2 3 10
6 11 2 0 0 2 4 10
6 7 0 -3 -3 1 3 9
6 6 -4 -6 -4 -2 1 8
6 5 -4 -6 -5 -3 0 8
7 4 -5 -8 -8 -5 -3 6
6 3 -8 -12 -11 -8 -5 4
5 0 -6 -12 -12 -9 -5 4
4 -3 -5 -10 -11 -9 -5 3
5 -5 -4 -9 -12 -10 -7 1
4 -6 -3 -10 -13 -11 -7 1
2 -7 -2 -11 -14 -12 -8 0
0 -7 -2 -13 -16 -14 -10 -2
-3 -7 0 -13 -16 -14 -10 -3
-4 -8 1 -13 -17 -14 -10 -3
-6 -8 0 -15 -18 -15 -11 -4
-7 -10 -2 -15 -19 -17 -13 -5
-8 -12 -2 -15 -20 -18 -14 -7
-8 -13 0 -15 -21 -18 -14 -7
-7 -14 -2 -16 -22 -19 -15 -7
-6 -15 -2 -17 -23 -19 -16 -7
-5 -15 -3 -18 -25 -21 -18 -9
-4 -15 -4 -18 -24 -21 -18 -10
-5 -15 -4 -19 -23 -21 -17 -10
-6 -15 -3 -18 -23 -20 -16 -8
-6 -15 -3 -18 -23 -20 -17 -8
-6 -15 -3 -18 -24 -20 -17 -8
-6 -15 -3 -18 -24 -20 -17 -9
-6 -15 -3 -19 -24 -21 -18 -10
-6 -15 -3 -19 -24 -20 -18 -10
-7 -15 -3 -19 -24 -20 -18 -10
-7 -16 -3 -19 -24 -21 -18 -10
