I II V1 V2 V3 V4 V5 V6
-8 -7 9 2 -2 -10 -10 -7
-8 -7 9 2 -2 -10 -10 -7
-9 -7 9 2 -2 -10 -10 -7
-9 -8 9 3 -2 -10 -10 -6
-10 -8 9 3 -2 -10 -10 -6
-10 -8 9 3 -2 -10 -10 -6
-11 -9 10 4 0 -10 -9 -5
-11 -8 10 4 0 -9 -8 -5
-11 -8 9 4 0 -9 -8 -5
-11 -7 9 4 0 -8 -7 -5
-11 -7 9 4 0 -8 -7 -5
-10 -6 8 4 1 -7 -6 -5
-10 -6 8 4 1 -7 -6 -5
-10 -6 7 4 1 -7 -6 -4
-10 -6 7 4 1 -7 -6 -4
-10 -6 7 4 1 -7 -6 -4
-11 -5 6 4 1 -8 -5 -3
-11 -5 6 4 2 -7 -5 -3
-11 -5 6 5 3 -7 -5 -3
-11 -5 6 5 4 -6 -5 -3
-11 -5 6 5 4 -6 -5 -3
-10 -4 7 6 5 -5 -5 -2
-10 -4 7 5 4 -5 -5 -2
-9 -4 8 5 3 -5 -5 0
-9 -4 8 4 2 -5 -5 0
-9 -4 8 4 2 -5 -5 0
-8 -5 9 3 1 -5 -4 1
-8 -5 9 3 2 -5 -4 1
-8 -5 9 3 2 -5 -4 1
-8 -5 9 3 3 -5 -4 1
-8 -5 9 3 3 -5 -4 1
-8 -5 10 4 4 -6 -3 0
-8 -4 9 4 3 -6 -3 0
-7 -3 8 4 2 -6 -4 0
-7 -2 7 4 1 -6 -4 0
-7 0 6 4 0 -6 -4 0
-6 1 6 3 0 -5 -5 -2
-6 1 7 4 2 -5 -4 -2
-6 1 8 4 4 -5 -3 -2
-6 1 9 5 6 -5 -2 -2
-6 1 10 5 7 -5 -2 -2
-7 0 11 6 7 -5 0 0
-7 0 10 5 5 -5 -2 0
-7 -2 9 4 4 -6 -3 -2
-7 -2 8 3 2 -6 -4 -2
-7 -2 7 2 1 -6 -5 -2
-8 -3 7 1 0 -7 -6 -3
-8 -3 8 1 1 -6 -5 -2
-8 -3 9 1 2 -6 -5 -2
-8 -3 10 1 3 -5 -4 0
-8 -3 11 1 3 -5 -4 0
-7 -4 12 2 4 -4 -3 1
-7 -4 11 2 3 -4 -3 1
-7 -4 10 1 3 -4 -3 1
-7 -4 9 1 2 -4 -3 1
-7 -4 8 1 2 -4 -3 1
-8 -5 7 0 1 -5 -4 1
-8 -5 7 -2 1 -5 -3 1
-8 -4 7 -2 2 -4 -2 1
-8 -4 7 -3 2 -4 0 1
-8 -4 7 -3 2 -4 1 1
-7 -3 7 -4 2 -4 1 1
-7 -3 7 -5 0 -5 -2 0
-7 -4 6 -5 -2 -6 -4 -2
-7 -4 6 -6 -4 -7 -6 -3
-7 -4 6 -6 -5 -8 -8 -3
-6 -5 5 -7 -6 -9 -8 -4
-6 -5 6 -7 -5 -9 -6 -3
-6 -6 7 -6 -5 -8 -4 -2
-6 -6 8 -6 -4 -8 -2 0
-6 -6 9 -6 -4 -8 0 1
-7 -7 9 -5 -4 -7 0 1
-7 -7 8 -6 -5 -8 -3 0
-6 -7 6 -6 -6 -9 -5 -2
-6 -7 5 -7 -7 -10 -7 -3
-6 -7 4 -7 -8 -10 -9 -4
-5 -6 3 -8 -8 -11 -9 -5
-5 -6 4 -8 -7 -10 -7 -5
-5 -5 4 -8 -5 -9 -6 -5
-5 -5 5 -8 -4 -8 -4 -5
-5 -5 5 -8 -3 -7 -3 -5
-6 -4 6 -9 -3 -6 -3 -4
-6 -4 6 -9 -4 -7 -4 -4
-6 -4 5 -9 -5 -7 -5 -4
-6 -4 5 -9 -6 -8 -6 -4
-6 -4 5 -9 -7 -8 -7 -4
-7 -5 4 -8 -7 -9 -7 -3
-7 -5 4 -8 -5 -8 -5 -2
-7 -5 4 -8 -4 -7 -4 -2
-7 -5 4 -8 -2 -6 -2 0
-7 -5 4 -8 0 -6 0 0
-6 -3 5 -7 1 -5 1 1
-6 0 5 -7 0 -5 0 1
-6 1 6 -7 -2 -5 -2 1
-6 3 6 -7 -3 -5 -3 1
-6 4 6 -7 -3 -5 -3 1
-5 5 7 -7 -4 -6 -3 0
-5 5 8 -6 -3 -5 -2 0
-5 5 8 -5 -2 -5 0 1
-5 5 9 -4 0 -4 1 1
-5 5 9 -3 1 -4 2 1
-4 7 10 -2 2 -3 3 2
-4 8 10 -2 2 -3 2 2
-3 9 10 -2 1 -3 1 2
-3 10 10 -2 1 -3 0 2
-3 11 10 -2 1 -3 0 2
-2 12 10 -3 1 -4 -2 2
0 12 9 -3 3 -3 0 3
0 13 8 -3 5 -2 1 4
1 13 7 -3 7 0 2 5
1 13 6 -3 8 0 3 5
2 14 5 -2 8 1 4 6
2 15 4 -3 7 1 4 6
2 16 3 -3 6 1 4 6
2 17 2 -4 5 1 4 6
2 17 1 -4 4 1 4 6
1 18 0 -5 3 2 5 7
1 18 0 -5 3 2 5 7
1 18 0 -5 3 2 5 7
1 18 0 -5 3 2 5 7
1 18 0 -5 3 2 5 7
2 18 0 -6 3 2 4 6
3 18 0 -6 3 2 4 7
5 17 0 -6 3 2 5 8
6 17 0 -6 3 2 5 9
7 17 0 -6 3 2 5 9
8 15 -2 -5 3 3 6 10
7 13 -2 -5 3 4 7 10
6 12 -2 -5 3 4 7 9
5 10 -2 -5 3 5 8 9
4 9 -2 -5 3 5 8 9
2 7 0 -5 3 5 8 7
0 5 0 -6 1 3 6 5
-3 4 0 -7 -2 1 4 3
-5 2 0 -8 -4 -2 2 1
-6 1 0 -9 -6 -4 0 -2
-7 0 0 -10 -7 -5 -2 -3
-7 0 0 -10 -7 -6 -3 -4
-7 -2 0 -10 -7 -6 -3 -4
-7 -2 0 -10 -7 -7 -4 -5
-7 -2 0 -10 -7 -7 -4 -5
-7 -3 1 -11 -9 -9 -6 -6
-7 -4 1 -12 -10 -10 -7 -7
-8 -4 0 -12 -11 -11 -9 -8
-8 -5 0 -13 -12 -12 -10 -9
-8 -5 0 -13 -13 -13 -11 -9
-9 -6 -2 -14 -14 -13 -12 -10
-9 -7 -2 -14 -13 -12 -11 -9
-9 -7 0 -13 -12 -11 -10 -9
-9 -8 0 -13 -11 -10 -9 -8
-9 -8 0 -13 -11 -9 -8 -8
-8 -9 1 -12 -10 -8 -7 -7
-8 -9 1 -12 -11 -8 -7 -7
-9 -9 1 -12 -11 -8 -7 -7
-9 -9 1 -12 -12 -8 -7 -7
-9 -9 1 -12 -12 -8 -7 -7
-10 -8 1 -11 -13 -9 -8 -7
-10 -8 1 -11 -12 -8 -8 -7
-10 -8 2 -10 -11 -7 -7 -7
-10 -8 2 -10 -10 -6 -7 -7
-10 -8 2 -10 -10 -5 -7 -7
-11 -7 3 -9 -9 -4 -6 -6
-11 -7 3 -9 -10 -5 -7 -6
-10 -7 2 -9 -10 -6 -8 -7
-10 -7 2 -9 -11 -7 -9 -7
-10 -7 2 -9 -11 -8 -9 -7
-8 -7 4 1 -5 -2 -4 -4
-6 -5 7 10 6 7 4 2
-4 -3 11 20 15 16 12 7
-2 -2 14 30 24 24 19 12
1 1 18 39 33 32 26 17
10 5 20 55 52 55 46 34
20 10 21 70 72 78 67 54
30 15 23 87 93 103 89 73
39 19 24 102 112 128 110 94
50 24 25 117 133 151 132 113
62 34 17 118 148 176 156 138
75 47 6 115 162 201 182 162
89 59 -7 112 177 226 206 188
101 70 -18 109 191 252 232 213
114 82 -29 106 205 276 258 238
112 82 -48 67 175 248 233 222
106 79 -67 22 136 211 198 196
101 76 -87 -23 96 172 164 172
95 73 -106 -68 56 134 130 146
89 70 -126 -113 16 96 95 121
70 49 -130 -150 -38 38 48 79
50 23 -131 -185 -96 -23 -2 34
30 -2 -133 -221 -154 -83 -51 -10
10 -26 -135 -256 -212 -145 -101 -55
-11 -52 -136 -290 -269 -205 -150 -100
-16 -57 -130 -276 -261 -203 -152 -105
-18 -60 -121 -252 -240 -189 -144 -102
-20 -62 -112 -227 -219 -174 -137 -100
-21 -64 -103 -201 -198 -158 -129 -97
-23 -66 -95 -177 -178 -144 -121 -94
-22 -62 -83 -156 -159 -130 -110 -87
-20 -55 -73 -137 -142 -115 -99 -78
-18 -48 -62 -117 -124 -102 -88 -70
-15 -40 -51 -98 -106 -88 -75 -62
-13 -34 -39 -78 -89 -74 -64 -54
-12 -29 -33 -67 -79 -66 -58 -49
-12 -26 -28 -59 -72 -59 -52 -44
-12 -22 -23 -50 -64 -52 -47 -39
-12 -19 -18 -41 -56 -45 -40 -35
-12 -15 -13 -32 -49 -37 -34 -30
-13 -14 -10 -27 -43 -32 -30 -28
-13 -14 -7 -22 -37 -28 -27 -26
-13 -14 -4 -18 -32 -24 -23 -24
-13 -14 0 -14 -27 -19 -20 -22
-13 -14 3 -9 -21 -15 -16 -20
-13 -13 4 -8 -20 -14 -15 -19
-13 -12 4 -7 -21 -14 -16 -19
-13 -12 4 -6 -22 -14 -16 -19
-13 -11 4 -5 -23 -14 -17 -19
-13 -11 4 -5 -23 -14 -17 -19
-12 -10 4 -3 -23 -13 -18 -18
-12 -10 5 -2 -20 -12 -17 -17
-12 -10 6 1 -18 -12 -16 -16
-12 -10 8 3 -15 -11 -15 -15
-12 -10 9 4 -13 -11 -14 -15
-11 -10 10 5 -12 -10 -13 -14
-11 -10 8 5 -13 -10 -13 -14
-10 -10 7 5 -14 -10 -13 -14
-10 -10 6 5 -15 -10 -13 -14
-10 -10 5 5 -16 -10 -13 -14
-9 -10 4 4 -17 -9 -13 -14
-9 -10 6 5 -17 -7 -12 -13
-9 -10 7 6 -16 -6 -10 -13
-9 -10 8 7 -16 -5 -8 -12
-9 -10 9 8 -16 -4 -7 -12
-8 -11 10 9 -15 -3 -6 -11
-8 -11 9 9 -14 -3 -6 -11
-8 -10 9 9 -13 -3 -6 -11
-8 -10 8 9 -12 -3 -6 -11
-8 -10 8 9 -12 -3 -6 -11
-9 -9 7 10 -9 -2 -7 -11
-8 -9 7 10 -6 -2 -7 -11
-8 -8 7 10 -3 -2 -7 -11
-7 -8 7 10 2 -2 -7 -11
-7 -8 7 10 5 -2 -7 -11
-6 -7 8 11 6 0 -7 -12
-6 -7 8 12 6 0 -7 -12
-6 -7 8 12 6 0 -8 -12
-6 -7 8 13 6 0 -8 -12
-6 -7 8 13 6 0 -8 -12
-6 -8 8 14 8 1 -9 -12
-6 -8 9 15 12 3 -8 -12
-6 -8 10 16 15 4 -8 -11
-6 -8 11 17 18 5 -7 -11
-6 -8 11 18 22 6 -7 -11
-6 -7 12 19 23 7 -6 -10
-6 -6 11 19 23 7 -6 -10
-5 -5 10 19 24 7 -5 -10
-5 -4 9 19 24 7 -5 -10
-5 -4 8 19 24 7 -5 -10
-4 -3 7 20 25 6 -4 -9
-4 -3 7 20 26 6 -4 -9
-3 -3 8 21 27 7 -4 -8
-3 -3 8 21 28 7 -4 -8
-3 -3 8 21 29 7 -4 -8
-2 -4 9 22 30 8 -3 -7
0 -3 9 23 30 9 -3 -6
1 -3 9 24 30 9 -3 -6
2 -2 9 25 30 10 -3 -5
2 -2 9 25 30 10 -3 -5
3 0 8 26 31 11 -2 -4
3 0 8 27 31 11 -2 -4
3 0 8 27 32 11 0 -4
3 0 8 28 32 11 0 -4
3 0 8 28 32 11 0 -4
4 1 9 29 33 12 1 -4
5 2 9 30 34 13 2 -3
6 3 9 31 35 14 2 -2
7 4 9 32 36 15 3 0
8 5 9 32 36 16 3 0
9 6 8 33 37 17 6 2
9 6 8 34 39 19 8 3
10 6 8 35 40 20 11 5
10 6 8 36 42 21 13 7
10 6 8 36 43 22 16 8
11 7 8 38 44 23 17 9
11 8 8 39 45 24 17 10
11 9 7 40 45 25 16 10
11 10 7 43 46 26 16 11
11 11 7 44 46 27 16 11
12 12 6 45 48 28 15 13
13 12 6 46 50 29 17 14
13 12 6 47 51 30 18 15
14 12 6 48 53 31 19 17
14 12 6 48 55 31 20 18
15 12 6 49 56 32 21 19
15 13 6 49 56 33 21 20
15 13 5 50 56 34 22 21
15 14 5 50 56 35 22 22
15 14 5 50 56 36 22 23
15 15 4 51 56 37 23 24
16 16 4 51 56 38 24 24
17 16 3 51 57 38 25 24
18 17 3 51 57 39 26 24
18 17 3 51 57 39 27 24
19 18 2 52 58 40 28 24
19 18 2 52 58 40 28 24
18 18 2 52 58 42 27 24
18 18 2 52 58 42 27 24
18 18 2 52 58 42 27 24
17 19 2 52 57 43 26 25
16 18 2 52 57 42 26 25
16 18 2 52 57 42 26 25
15 17 2 52 57 40 26 25
15 17 2 52 57 40 26 25
14 16 2 51 56 39 25 25
14 17 2 50 56 39 26 25
14 17 2 50 56 39 26 25
14 18 2 49 56 39 27 25
14 18 2 49 56 39 27 25
14 19 2 48 55 39 28 25
13 18 2 47 53 38 27 24
13 17 2 46 52 37 26 23
12 17 2 45 51 36 25 22
12 16 2 44 50 35 24 21
11 15 3 42 48 33 23 20
10 14 3 40 47 32 21 19
10 13 3 39 45 31 20 18
9 12 3 37 44 29 19 18
9 11 3 36 42 28 18 17
8 10 3 35 40 27 17 16
7 9 4 33 39 26 17 15
7 8 4 32 38 26 16 14
6 7 5 31 38 25 16 14
6 6 5 30 37 25 16 13
5 5 6 28 35 24 15 12
4 4 6 26 33 22 14 11
3 4 5 25 31 21 13 10
2 3 5 23 29 20 12 9
1 3 5 21 27 19 11 8
0 2 4 20 25 17 10 7
0 1 4 19 24 16 8 6
-2 1 4 18 23 15 7 5
-2 0 4 17 21 13 6 4
-2 0 4 16 20 12 5 3
-3 -2 5 15 19 11 4 2
-4 -3 5 14 18 11 4 1
-5 -3 6 14 17 10 3 1
-6 -4 6 13 16 10 3 0
-7 -4 6 13 15 10 3 0
-8 -5 7 12 14 9 2 -2
-8 -5 7 11 13 7 2 -3
-8 -6 7 10 12 6 2 -4
-8 -6 7 9 12 5 2 -4
-8 -6 7 8 11 4 2 -5
-7 -7 6 7 10 3 1 -6
-8 -8 6 7 10 3 0 -6
-8 -8 6 7 10 2 -2 -6
-9 -9 6 7 10 2 -2 -6
-9 -9 6 7 10 2 -3 -6
-10 -10 7 7 9 1 -4 -7
-10 -10 7 7 8 1 -4 -8
-10 -10 7 6 7 1 -4 -9
-10 -10 7 6 7 1 -4 -9
-10 -10 7 6 6 1 -4 -10
-9 -10 6 5 5 0 -4 -11
-9 -10 6 5 4 -2 -6 -11
-9 -10 6 5 4 -2 -7 -12
-9 -10 6 5 3 -3 -8 -12
-9 -10 6 5 3 -3 -9 -12
-10 -10 5 5 2 -4 -10 -13
-10 -10 5 5 2 -4 -10 -13
-10 -10 6 5 2 -5 -10 -13
-10 -10 6 5 2 -5 -10 -13
-10 -10 6 5 2 -5 -10 -13
-10 -11 7 4 3 -6 -10 -14
-10 -11 7 4 3 -6 -10 -14
-10 -11 7 4 3 -6 -10 -14
-10 -11 7 4 3 -6 -10 -14
-10 -11 7 4 3 -6 -10 -14
-10 -12 6 5 3 -6 -9 -14
-10 -12 6 5 3 -6 -9 -14
-10 -12 6 5 2 -6 -9 -14
-10 -12 6 5 2 -6 -9 -14
-10 -12 6 5 2 -6 -9 -14
-10 -11 6 5 1 -5 -9 -14
-10 -11 6 5 1 -5 -9 -14
-10 -11 6 5 1 -5 -9 -13
-10 -11 6 5 1 -5 -9 -13
-10 -11 6 5 1 -5 -9 -13
-10 -10 6 6 2 -5 -8 -12
-10 -10 6 6 2 -5 -8 -12
-10 -10 6 6 3 -5 -8 -12
-10 -10 6 6 3 -5 -8 -12
-10 -10 6 6 3 -5 -8 -12
-10 -10 7 6 4 -5 -8 -11
-10 -10 7 6 4 -5 -8 -11
-10 -10 7 6 3 -4 -7 -11
-10 -10 7 6 3 -4 -7 -11
-10 -10 7 6 3 -4 -7 -11
-10 -10 6 5 2 -3 -6 -10
-10 -10 6 5 2 -3 -6 -10
-10 -9 6 5 2 -3 -6 -10
-10 -9 6 5 2 -3 -6 -10
-10 -9 6 5 2 -3 -6 -10
-11 -8 6 5 2 -4 -6 -10
-11 -8 6 5 2 -4 -6 -10
-11 -8 6 5 1 -4 -6 -10
-11 -8 6 5 1 -4 -6 -10
-11 -8 6 5 1 -4 -6 -10
-11 -7 6 4 0 -4 -7 -10
-10 -7 6 4 0 -4 -7 -11
-10 -6 5 3 0 -5 -8 -12
-9 -6 5 3 0 -5 -8 -12
-9 -6 5 3 0 -5 -8 -13
-8 -5 4 2 -2 -6 -9 -14
-8 -5 4 2 -3 -6 -8 -14
-9 -5 4 2 -3 -5 -7 -13
-9 -5 4 2 -4 -5 -7 -13
-9 -5 4 2 -4 -5 -6 -13
-10 -5 3 1 -5 -4 -5 -12
-10 -5 3 1 -5 -4 -5 -12
-10 -5 3 0 -5 -5 -6 -13
-10 -5 3 0 -5 -5 -6 -13
-10 -5 3 0 -5 -5 -6 -13
-10 -5 3 -2 -5 -6 -7 -14
-10 -5 3 -2 -5 -6 -7 -14
-10 -5 3 -2 -5 -6 -7 -14
-10 -5 3 -2 -5 -6 -7 -14
-10 -5 3 -2 -5 -6 -7 -14
-9 -5 3 -3 -6 -5 -8 -14
-9 -5 3 -4 -6 -5 -8 -14
-9 -5 3 -5 -7 -6 -8 -14
-9 -5 3 -5 -8 -7 -8 -14
-9 -5 3 -6 -8 -7 -8 -14
-10 -6 2 -7 -9 -8 -8 -14
-10 -6 2 -7 -9 -8 -8 -14
-10 -7 3 -7 -9 -8 -8 -14
-10 -7 3 -7 -9 -8 -8 -14
-10 -7 3 -7 -9 -8 -8 -14
-11 -8 4 -7 -10 -8 -9 -14
-11 -8 4 -7 -10 -8 -8 -13
-11 -8 3 -8 -10 -8 -7 -12
-11 -8 3 -8 -10 -8 -7 -12
-11 -8 3 -8 -10 -8 -6 -11
-11 -7 2 -9 -11 -7 -5 -10
-11 -7 2 -9 -11 -8 -6 -10
-11 -6 2 -9 -12 -9 -7 -10
-11 -6 2 -9 -13 -9 -7 -10
-11 -6 2 -9 -13 -10 -8 -10
-10 -5 2 -10 -14 -11 -9 -11
-10 -5 2 -10 -14 -11 -9 -11
-10 -6 2 -11 -14 -11 -10 -11
-10 -7 2 -11 -14 -11 -11 -11
-10 -7 2 -11 -14 -11 -11 -11
-10 -8 1 -12 -15 -12 -12 -11
-10 -8 1 -12 -15 -12 -11 -11
-11 -8 1 -12 -15 -12 -10 -10
-11 -8 1 -12 -15 -12 -10 -9
-11 -8 1 -12 -15 -12 -9 -9
-12 -9 2 -11 -14 -11 -8 -8
-12 -9 2 -11 -14 -11 -8 -8
-11 -8 2 -12 -14 -11 -9 -8
-10 -7 2 -12 -14 -11 -9 -8
-10 -7 2 -12 -14 -11 -9 -8
-9 -6 1 -13 -14 -11 -10 -8
-9 -6 1 -13 -14 -11 -9 -8
-9 -6 1 -13 -14 -10 -8 -8
-9 -6 1 -13 -14 -9 -8 -8
-9 -6 1 -13 -14 -9 -7 -8
-9 -6 2 -13 -13 -8 -6 -7
-9 -5 2 -13 -13 -8 -6 -6
-9 -3 2 -12 -12 -7 -6 -5
-9 -2 2 -11 -12 -7 -6 -4
-9 0 2 -11 -12 -7 -6 -3
-10 1 5 -6 -8 -4 -5 -2
-9 3 9 2 -2 1 -2 1
-8 4 13 9 4 4 1 3
-7 6 17 16 10 8 4 4
-6 7 21 23 15 12 7 6
-3 11 25 33 27 23 16 13
3 18 29 46 44 39 29 23
7 24 32 58 60 55 43 33
11 31 36 70 76 71 56 44
16 37 40 82 92 88 69 55
29 48 25 75 103 110 92 76
48 59 -4 55 111 138 121 105
67 71 -32 33 119 167 150 134
86 82 -61 13 128 194 180 162
104 95 -91 -9 135 222 209 192
121 101 -120 -37 131 236 227 214
137 105 -151 -71 116 241 237 232
152 108 -183 -105 102 246 248 251
168 111 -214 -139 89 252 259 269
184 114 -245 -173 74 257 269 287
179 107 -258 -203 37 220 240 267
160 92 -258 -232 -15 154 184 220
142 75 -258 -261 -67 89 129 174
122 60 -258 -289 -119 23 72 127
104 45 -258 -318 -172 -43 16 80
88 31 -244 -320 -196 -79 -18 48
74 21 -222 -302 -202 -96 -36 25
61 11 -199 -284 -208 -113 -55 3
47 1 -177 -266 -215 -131 -74 -20
33 -10 -153 -248 -221 -148 -93 -43
26 -15 -135 -224 -208 -145 -95 -50
24 -15 -117 -195 -182 -128 -85 -45
21 -15 -101 -166 -155 -110 -74 -40
19 -15 -85 -138 -129 -93 -64 -35
16 -15 -67 -109 -102 -75 -54 -30
13 -15 -57 -92 -87 -65 -47 -28
10 -14 -50 -81 -77 -59 -43 -27
7 -13 -44 -72 -69 -52 -38 -26
3 -12 -37 -62 -61 -46 -34 -26
0 -11 -30 -52 -53 -39 -30 -25
-3 -10 -25 -45 -47 -34 -27 -24
-4 -9 -21 -39 -41 -31 -24 -22
-6 -7 -17 -33 -37 -28 -22 -21
-7 -6 -13 -27 -32 -24 -19 -19
-8 -5 -9 -22 -27 -21 -17 -18
-9 -4 -7 -18 -25 -19 -15 -17
-9 -5 -5 -17 -23 -19 -15 -18
-10 -6 -4 -15 -21 -19 -15 -19
-10 -6 -2 -13 -20 -19 -15 -20
-10 -7 0 -11 -18 -19 -15 -21
-11 -8 1 -10 -17 -18 -15 -22
-11 -8 1 -9 -17 -17 -14 -22
-11 -9 2 -8 -16 -16 -13 -22
-11 -9 3 -7 -16 -16 -13 -22
-11 -9 3 -6 -16 -15 -12 -22
-12 -10 4 -5 -15 -14 -11 -22
-12 -10 4 -5 -15 -14 -11 -22
-12 -10 4 -4 -14 -14 -12 -22
-12 -10 4 -4 -14 -14 -12 -22
-12 -10 4 -4 -14 -14 -12 -22
-13 -11 4 -3 -13 -14 -13 -23
-13 -11 5 -2 -12 -13 -12 -23
-12 -10 7 1 -11 -12 -10 -22
-12 -10 8 2 -11 -11 -9 -22
-12 -10 9 3 -10 -10 -8 -22
-11 -9 10 4 -9 -9 -7 -21
-11 -9 10 4 -9 -9 -8 -21
-11 -10 10 4 -9 -10 -9 -22
-11 -10 10 4 -9 -10 -9 -22
-11 -10 10 4 -9 -10 -10 -22
-11 -11 9 5 -8 -11 -11 -23
-11 -11 9 5 -8 -11 -11 -23
-11 -11 10 6 -7 -11 -11 -23
-11 -11 10 7 -7 -11 -11 -23
-11 -11 10 7 -7 -11 -11 -23
-11 -10 11 8 -6 -10 -10 -23
-11 -10 11 9 -6 -10 -10 -23
-11 -10 11 10 -5 -10 -10 -23
-11 -10 11 10 -5 -10 -10 -23
-11 -10 11 11 -5 -10 -10 -23
-12 -10 12 12 -4 -9 -10 -24
-12 -10 13 13 -3 -9 -9 -24
-11 -10 14 14 -2 -8 -8 -24
-10 -10 15 15 0 -7 -7 -24
-10 -10 16 16 1 -7 -6 -24
-9 -9 17 17 2 -6 -5 -23
-9 -9 17 17 2 -6 -5 -23
-9 -8 17 18 2 -6 -6 -23
-9 -8 17 19 2 -6 -6 -23
-9 -8 17 19 2 -6 -6 -23
-10 -7 18 20 3 -6 -7 -22
-9 -7 18 21 3 -6 -7 -22
-7 -6 19 23 4 -5 -6 -22
-6 -5 19 24 5 -4 -5 -22
-5 -5 19 25 5 -4 -5 -22
-4 -4 20 26 6 -3 -4 -21
-4 -4 20 27 7 -3 -4 -21
-5 -4 20 29 9 -2 -3 -20
-5 -4 20 30 10 -2 -3 -19
-5 -4 20 31 11 -2 -3 -19
-6 -4 21 32 12 0 -2 -18
-6 -4 22 33 12 1 0 -18
-5 -3 23 34 13 2 2 -17
-5 -2 24 35 14 3 3 -16
-5 -2 25 36 14 4 4 -16
-4 0 26 37 15 5 5 -15
-4 0 26 38 15 5 4 -15
-4 1 26 39 16 4 3 -15
-4 2 26 39 16 4 3 -15
-4 2 26 40 16 4 2 -15
-4 3 27 42 17 3 1 -14
-3 3 27 44 18 4 2 -14
-2 4 28 45 20 5 4 -14
-2 4 29 46 21 5 5 -14
0 4 29 48 22 6 6 -14
1 5 30 49 23 7 7 -13
1 5 30 49 23 7 7 -13
0 6 30 50 24 8 6 -12
0 6 30 51 24 8 5 -12
0 6 30 51 24 8 5 -12
-2 7 31 52 25 9 4 -11
-2 8 32 54 27 9 6 -10
-2 9 33 55 28 10 7 -9
-2 9 34 56 29 10 8 -8
-2 10 35 58 31 10 10 -7
0 11 36 59 32 11 11 -6
-2 11 36 59 32 11 10 -7
-3 11 35 59 31 11 9 -8
-3 11 35 59 31 11 8 -8
-4 11 35 59 31 11 7 -9
-5 12 34 59 30 10 6 -10
-4 13 34 60 31 10 7 -9
-2 14 35 61 32 11 8 -8
0 14 36 62 33 12 9 -8
1 15 36 63 34 12 10 -7
2 16 37 64 35 13 11 -6
2 16 37 63 34 13 11 -6
2 16 36 62 33 12 10 -7
2 16 35 62 32 12 9 -7
2 16 35 61 31 12 9 -7
1 17 34 60 30 11 8 -8
1 17 34 60 30 11 8 -8
1 18 34 59 31 11 9 -8
1 18 34 58 31 11 10 -8
1 18 34 58 31 11 10 -8
2 19 35 57 32 11 11 -8
2 19 33 55 30 11 10 -8
2 19 31 53 29 10 8 -9
2 19 29 51 28 10 7 -10
2 19 27 49 26 10 6 -10
1 19 26 47 25 9 5 -11
1 19 26 45 25 9 6 -10
1 18 25 43 25 9 7 -9
1 18 25 40 25 9 8 -8
1 18 25 39 25 9 9 -7
2 17 24 36 24 10 10 -6
2 16 22 34 22 10 10 -6
2 15 20 32 20 9 10 -6
2 14 18 29 18 8 9 -6
2 13 16 27 16 8 9 -6
2 12 15 25 15 7 8 -7
2 12 15 23 15 7 8 -7
2 12 15 22 15 7 8 -7
2 11 14 20 15 7 8 -7
2 11 14 18 15 7 8 -7
1 10 13 16 14 8 9 -7
1 10 11 14 12 6 7 -8
1 9 10 12 10 5 6 -9
1 8 8 9 8 4 4 -10
1 8 6 7 6 2 2 -11
0 7 5 5 5 1 1 -12
0 6 5 4 5 1 1 -12
0 5 6 4 5 1 2 -12
0 3 7 3 5 1 3 -11
0 2 7 2 5 1 3 -11
-2 1 8 1 4 0 4 -10
-2 1 7 -2 3 -2 3 -11
-2 1 7 -3 2 -3 2 -11
-2 1 6 -4 0 -4 1 -12
-2 1 5 -6 -2 -5 0 -13
-3 0 4 -7 -3 -6 -2 -14
-3 0 5 -7 -3 -6 -2 -14
-3 0 5 -7 -3 -6 -2 -14
-4 0 6 -7 -3 -6 -2 -13
-4 0 7 -7 -3 -6 -2 -13
-5 0 8 -6 -2 -6 0 -12
-5 0 7 -6 -3 -6 -2 -12
-5 0 7 -6 -3 -7 -3 -12
-5 0 6 -6 -4 -8 -4 -13
-5 0 5 -6 -5 -8 -5 -13
-4 -2 4 -7 -6 -9 -6 -14
-4 -2 5 -7 -5 -9 -5 -14
-4 -2 6 -7 -4 -8 -5 -14
-4 -2 7 -6 -3 -7 -4 -14
-4 -2 8 -6 -2 -7 -3 -14
-5 -2 9 -5 0 -6 -2 -13
-5 -2 8 -5 -2 -7 -3 -13
-5 -2 7 -5 -3 -7 -4 -13
-5 -2 6 -6 -4 -8 -6 -14
-5 -2 5 -6 -5 -9 -7 -14
-4 -3 4 -7 -6 -10 -8 -15
-4 -3 5 -7 -5 -9 -8 -15
-4 -3 5 -6 -5 -9 -7 -15
-5 -3 6 -5 -4 -8 -6 -15
-5 -3 7 -5 -3 -7 -6 -15
-6 -3 8 -4 -2 -6 -5 -14
-6 -3 8 -4 -2 -6 -6 -14
-6 -3 7 -5 -3 -7 -6 -14
-6 -3 6 -6 -4 -8 -7 -14
-6 -3 6 -6 -4 -8 -8 -14
-7 -2 5 -7 -5 -9 -9 -15
-7 -2 5 -7 -5 -9 -8 -15
-7 -2 6 -7 -5 -9 -8 -15
-7 -2 7 -7 -4 -9 -7 -14
-7 -2 7 -7 -4 -9 -6 -14
-8 0 8 -6 -3 -9 -5 -13
-8 0 8 -6 -3 -9 -6 -13
-8 0 8 -6 -3 -9 -6 -13
-8 0 7 -6 -4 -9 -7 -13
-8 0 7 -6 -4 -9 -8 -13
-9 -2 6 -7 -5 -10 -9 -14
-9 -2 6 -7 -5 -10 -8 -14
-9 -2 6 -7 -4 -10 -7 -14
-9 -2 6 -7 -3 -10 -6 -13
-9 -2 6 -7 -3 -10 -5 -13
-9 -2 7 -8 -2 -9 -4 -12
-9 -2 7 -9 -3 -9 -5 -12
-9 -2 6 -9 -4 -9 -6 -12
-9 -2 5 -10 -6 -9 -8 -13
-9 -2 5 -11 -7 -9 -9 -13
-8 -2 4 -12 -8 -10 -10 -14
-8 -2 4 -12 -8 -10 -10 -13
-8 -2 4 -12 -8 -10 -10 -13
-9 -2 5 -12 -7 -10 -9 -12
-9 -2 5 -12 -7 -10 -9 -11
-10 -2 6 -11 -6 -10 -8 -10
-10 -2 6 -11 -6 -10 -8 -10
-10 -2 5 -12 -6 -10 -8 -10
-10 -2 4 -13 -7 -10 -9 -10
-10 -2 4 -13 -7 -10 -9 -10
-9 -3 3 -14 -8 -11 -10 -11
-9 -3 3 -14 -8 -11 -10 -11
-9 -3 3 -14 -8 -11 -10 -11
-9 -3 3 -14 -7 -11 -9 -10
-9 -3 3 -14 -7 -11 -9 -10
-10 -4 3 -14 -6 -11 -8 -9
-10 -4 3 -14 -7 -12 -8 -9
-10 -4 3 -14 -8 -12 -9 -9
-10 -4 3 -15 -10 -13 -10 -9
-10 -4 3 -15 -11 -14 -10 -9
-11 -3 2 -16 -12 -15 -11 -10
-11 -3 2 -16 -11 -15 -11 -9
-11 -3 2 -16 -10 -15 -11 -9
-11 -4 2 -16 -8 -14 -10 -8
-11 -4 2 -16 -7 -14 -10 -7
-11 -5 3 -15 -6 -13 -9 -6
-11 -5 3 -15 -7 -13 -10 -6
-11 -5 3 -16 -7 -13 -11 -6
-11 -5 3 -17 -8 -13 -13 -6
-11 -5 3 -17 -9 -13 -14 -6
-10 -6 2 -18 -10 -14 -15 -7
-10 -6 2 -18 -10 -14 -15 -7
-10 -6 2 -18 -10 -14 -14 -7
-10 -6 2 -18 -9 -14 -13 -7
-10 -6 2 -18 -9 -14 -13 -7
-10 -6 2 -17 -8 -13 -12 -6
-10 -6 2 -17 -8 -13 -12 -6
-11 -6 2 -17 -8 -13 -12 -6
-12 -6 2 -18 -8 -13 -12 -6
-12 -6 2 -18 -8 -13 -12 -6
-13 -7 2 -19 -9 -14 -13 -7
-13 -7 2 -19 -9 -14 -13 -7
-13 -7 2 -19 -9 -14 -13 -7
-13 -7 2 -18 -8 -14 -12 -7
-13 -7 2 -18 -8 -14 -12 -7
-13 -7 3 -17 -7 -13 -11 -6
-13 -7 3 -17 -8 -13 -12 -6
-13 -7 3 -18 -8 -13 -12 -7
-13 -7 2 -19 -9 -14 -13 -8
-13 -7 2 -19 -10 -14 -14 -8
-12 -6 1 -20 -11 -15 -15 -9
-12 -6 1 -20 -11 -15 -14 -9
-12 -6 1 -19 -10 -15 -14 -8
-12 -6 2 -18 -9 -15 -13 -7
-12 -6 2 -18 -9 -15 -12 -7
-13 -7 3 -17 -8 -14 -11 -6
-13 -7 3 -17 -8 -14 -12 -7
-13 -7 3 -18 -9 -14 -13 -8
-13 -7 2 -19 -10 -14 -15 -9
-13 -7 2 -19 -10 -14 -16 -10
-12 -7 1 -20 -11 -15 -17 -11
-12 -7 1 -19 -10 -15 -17 -10
-12 -7 1 -19 -10 -15 -16 -10
-12 -7 2 -18 -9 -14 -15 -9
-12 -7 2 -17 -8 -14 -15 -8
-13 -8 3 -16 -7 -13 -14 -7
-13 -8 3 -16 -7 -13 -14 -7
-13 -8 2 -16 -7 -13 -14 -8
-13 -8 1 -17 -8 -13 -14 -9
-13 -8 1 -17 -8 -13 -14 -9
-12 -8 0 -18 -9 -13 -15 -10
-12 -8 0 -18 -9 -13 -15 -10
-12 -8 0 -18 -9 -13 -15 -9
-12 -8 1 -18 -8 -13 -15 -8
-12 -8 1 -18 -8 -13 -15 -8
-13 -8 2 -18 -7 -13 -14 -7
-13 -8 2 -18 -7 -13 -14 -7
-13 -8 2 -18 -7 -13 -14 -8
-13 -8 2 -18 -8 -13 -15 -9
-13 -8 2 -18 -8 -13 -15 -9
-14 -8 1 -17 -9 -13 -16 -10
-14 -8 1 -17 -9 -13 -15 -10
-14 -8 1 -17 -9 -13 -14 -10
-13 -8 1 -17 -8 -12 -13 -9
-13 -8 1 -17 -8 -12 -12 -9
-12 -8 2 -17 -7 -11 -11 -8
-12 -8 2 -17 -7 -11 -12 -8
-12 -8 2 -17 -8 -11 -14 -8
-12 -8 1 -17 -9 -11 -15 -9
-12 -8 1 -17 -9 -11 -17 -9
-13 -9 0 -16 -10 -12 -18 -10
-13 -9 0 -16 -10 -12 -17 -10
-13 -9 0 -16 -10 -12 -16 -10
-13 -9 0 -16 -9 -12 -15 -9
-13 -9 0 -16 -9 -12 -14 -9
-12 -9 1 -16 -8 -11 -13 -8
-12 -9 1 -16 -8 -11 -14 -8
-12 -9 1 -16 -8 -11 -15 -8
-12 -9 1 -16 -9 -11 -16 -8
-12 -9 1 -16 -9 -11 -17 -8
-13 -9 0 -16 -10 -12 -18 -9
-13 -9 0 -16 -10 -12 -18 -9
-13 -9 0 -16 -10 -12 -18 -9
-13 -9 1 -16 -9 -12 -17 -9
-13 -9 1 -16 -9 -12 -17 -9
-12 -9 2 -15 -8 -12 -16 -8
-12 -9 2 -15 -8 -12 -16 -8
-12 -9 1 -15 -8 -12 -16 -8
-12 -9 0 -15 -8 -12 -16 -8
-12 -9 0 -15 -8 -12 -16 -8
-13 -9 -2 -15 -9 -11 -15 -7
-13 -9 -2 -15 -9 -11 -15 -7
-13 -9 -2 -15 -9 -11 -15 -7
-14 -9 0 -15 -9 -12 -16 -7
-14 -9 0 -15 -9 -12 -16 -7
-15 -9 1 -16 -8 -13 -17 -7
-15 -9 1 -16 -8 -13 -17 -7
-15 -9 1 -16 -8 -13 -18 -7
-14 -8 1 -16 -8 -13 -19 -7
-14 -8 1 -16 -8 -13 -19 -7
-13 -7 0 -15 -8 -14 -20 -8
-13 -7 0 -15 -8 -14 -19 -8
-13 -7 0 -15 -8 -14 -19 -8
-13 -7 0 -15 -7 -13 -18 -7
-13 -7 0 -15 -7 -13 -17 -7
-13 -8 1 -14 -6 -12 -16 -6
-13 -8 1 -14 -6 -12 -16 -6
-13 -8 1 -14 -6 -12 -16 -6
-13 -9 1 -14 -7 -12 -16 -6
-13 -9 1 -14 -7 -12 -16 -6
-14 -10 0 -14 -8 -12 -16 -7
-14 -10 0 -14 -7 -12 -16 -6
-14 -10 1 -13 -7 -12 -15 -6
-14 -10 1 -13 -6 -11 -15 -5
-14 -10 2 -12 -5 -11 -14 -4
-15 -9 3 -11 -4 -10 -13 -3
-15 -9 3 -11 -4 -10 -13 -3
-14 -9 3 -11 -5 -10 -13 -3
-14 -9 2 -12 -5 -10 -13 -3
-13 -9 2 -12 -6 -10 -13 -3
-12 -9 1 -13 -7 -11 -13 -4
-12 -9 1 -13 -7 -11 -13 -4
-12 -9 1 -13 -7 -11 -13 -4
-12 -9 2 -12 -6 -11 -14 -4
-12 -9 2 -12 -6 -11 -14 -4
-13 -9 3 -11 -5 -11 -15 -4
-13 -9 3 -11 -5 -11 -15 -4
-13 -9 2 -11 -5 -11 -15 -4
-13 -9 2 -11 -6 -11 -15 -4
-13 -9 1 -11 -6 -11 -15 -4
-14 -10 0 -12 -7 -12 -14 -5
-14 -10 0 -12 -7 -12 -14 -5
-14 -10 0 -12 -7 -12 -14 -5
-14 -10 1 -12 -6 -12 -14 -5
-14 -10 1 -12 -6 -12 -14 -5
-15 -10 2 -11 -5 -12 -14 -4
-15 -10 2 -11 -5 -12 -15 -4
-15 -10 2 -11 -5 -12 -15 -4
-15 -10 1 -11 -6 -13 -16 -5
-15 -10 1 -11 -6 -13 -17 -5
-14 -10 0 -11 -7 -14 -18 -6
-14 -10 0 -11 -6 -13 -17 -5
-14 -11 1 -11 -6 -13 -16 -4
-14 -11 1 -10 -5 -12 -15 -3
-14 -12 2 -10 -4 -11 -14 0
-13 -13 3 -9 -3 -10 -13 1
-13 -13 3 -9 -3 -10 -13 1
-13 -13 3 -9 -3 -10 -13 1
-13 -12 2 -9 -3 -10 -13 0
-13 -12 2 -9 -3 -10 -13 0
-14 -11 1 -10 -4 -11 -14 -2
-14 -10 1 -10 -4 -11 -13 -2
-14 -10 1 -10 -4 -10 -12 -2
-13 -9 2 -9 -3 -10 -11 -2
-13 -8 2 -9 -3 -9 -9 -2
-12 -7 3 -8 -2 -8 -8 0
-12 -7 3 -7 -2 -8 -8 0
-12 -7 3 -6 -2 -8 -8 0
-12 -6 3 -5 0 -8 -9 0
-12 -6 3 -4 0 -8 -9 0
-13 -5 4 -3 1 -8 -10 0
-13 -5 5 -3 2 -7 -9 1
-13 -5 6 -3 3 -6 -8 2
-13 -4 7 -2 4 -5 -7 3
-13 -4 9 -2 5 -4 -6 4
-14 -3 10 0 6 -3 -5 5
-13 -2 9 1 6 -3 -5 5
-12 1 9 1 6 -2 -5 5
-11 2 8 2 7 -2 -4 5
-10 4 7 3 7 0 -4 5
-9 5 6 4 8 1 -3 6
-8 5 5 4 8 1 -3 7
-8 5 4 4 8 1 -2 8
-7 5 3 4 8 1 -2 9
-6 5 2 4 8 1 0 11
-5 6 1 4 8 1 1 12
-5 6 0 4 8 1 0 11
-5 6 -2 3 7 1 0 11
-5 7 -3 3 7 1 -2 10
-5 7 -5 2 6 1 -3 9
-5 8 -6 1 5 0 -4 8
-4 8 -6 1 6 0 -3 8
-4 8 -6 1 6 0 -2 9
-3 7 -5 1 7 0 0 9
-2 7 -5 1 8 0 2 10
0 6 -4 2 9 1 3 11
0 6 -4 2 9 1 3 11
0 5 -4 2 9 1 2 11
0 5 -4 2 8 2 2 12
0 4 -4 2 8 2 1 12
0 3 -4 3 7 3 0 13
-3 1 -4 2 6 2 -2 11
-4 -2 -4 2 6 1 -3 9
-6 -5 -3 1 5 0 -4 6
-7 -7 -3 0 4 -3 -5 4
-9 -9 -2 -2 3 -4 -6 2
-10 -9 -2 -3 2 -5 -7 1
-11 -10 -2 -3 1 -6 -8 1
-12 -10 -2 -4 0 -7 -9 0
-14 -11 -2 -5 -3 -9 -10 -2
-15 -12 -3 -6 -4 -10 -11 -3
-15 -12 -3 -6 -4 -10 -11 -3
-15 -12 -3 -6 -4 -10 -11 -3
-15 -13 -2 -6 -4 -10 -12 -3
-15 -13 -2 -6 -4 -10 -12 -3
-15 -14 0 -6 -5 -10 -13 -4
-15 -14 0 -6 -5 -10 -13 -4
-16 -14 0 -6 -5 -10 -13 -4
-16 -15 -2 -6 -5 -10 -13 -3
-17 -15 -2 -6 -5 -10 -13 -3
-18 -16 -3 -5 -4 -9 -12 -2
-18 -15 -3 -5 -4 -9 -12 -2
-18 -15 -3 -5 -4 -9 -12 -3
-18 -14 -3 -5 -4 -9 -11 -3
-18 -13 -3 -5 -4 -9 -11 -4
-18 -12 -3 -5 -3 -9 -10 -5
-18 -12 -3 -5 -3 -9 -10 -5
-18 -13 -3 -5 -3 -9 -11 -5
-18 -13 -2 -5 -4 -9 -11 -5
-18 -14 -2 -5 -4 -9 -12 -5
-17 -15 0 -5 -5 -9 -13 -4
-17 -15 0 -5 -5 -9 -13 -4
-17 -15 0 -5 -4 -9 -12 -4
-16 -15 0 -5 -4 -9 -12 -4
-16 -15 0 -5 -3 -9 -11 -4
-15 -16 1 -3 0 -7 -10 -5
-14 -14 4 6 6 -3 -6 -3
-13 -12 7 14 12 3 -2 0
-12 -11 10 21 18 8 3 2
-10 -9 12 29 24 13 7 4
-7 -7 15 38 33 21 15 9
2 -4 18 54 51 40 32 25
11 -2 21 70 69 60 50 42
20 2 24 86 87 80 67 58
29 5 27 101 105 100 85 73
39 9 28 113 121 119 102 91
56 18 17 113 135 140 122 112
71 27 5 114 147 161 143 134
87 37 -7 115 160 182 163 155
103 47 -18 116 173 202 183 177
115 55 -31 109 177 214 196 192
112 57 -52 69 150 189 183 183
110 59 -71 29 122 164 170 174
107 61 -92 -10 95 140 156 165
105 63 -111 -50 67 115 143 156
97 60 -128 -91 32 84 119 139
74 37 -133 -136 -26 25 64 90
51 14 -137 -181 -86 -33 9 40
28 -10 -141 -226 -145 -92 -47 -9
5 -33 -145 -271 -204 -150 -102 -58
-14 -52 -147 -302 -247 -194 -144 -97
-18 -56 -138 -276 -229 -183 -138 -96
-21 -60 -129 -251 -212 -172 -131 -94
-24 -64 -118 -224 -193 -159 -124 -93
-28 -68 -109 -198 -176 -148 -117 -92
-31 -70 -99 -174 -158 -137 -111 -89
-29 -63 -88 -154 -142 -124 -103 -82
-26 -57 -76 -135 -127 -113 -94 -76
-24 -50 -65 -115 -110 -101 -86 -70
-21 -44 -54 -96 -95 -90 -77 -64
-19 -37 -44 -78 -80 -78 -69 -58
-19 -34 -36 -68 -71 -70 -62 -53
-19 -31 -30 -58 -62 -62 -55 -47
-18 -28 -23 -48 -54 -54 -49 -41
-18 -25 -17 -37 -45 -47 -41 -35
-17 -22 -11 -29 -37 -39 -35 -30
-17 -21 -9 -25 -33 -36 -32 -29
-17 -19 -7 -21 -29 -32 -29 -27
-17 -17 -4 -17 -25 -29 -26 -26
-17 -16 -2 -14 -22 -26 -23 -25
-16 -14 1 -10 -18 -23 -20 -23
-16 -14 2 -9 -15 -22 -19 -23
-16 -14 3 -7 -13 -20 -18 -22
-16 -14 4 -5 -10 -19 -17 -22
-16 -14 6 -4 -8 -18 -15 -21
-15 -14 7 -2 -5 -16 -14 -20
-15 -14 7 -2 -4 -16 -14 -20
-15 -14 7 0 -2 -16 -15 -21
-15 -13 7 0 1 -16 -15 -22
-15 -13 7 1 2 -16 -16 -23
-14 -12 7 2 4 -17 -17 -24
-14 -12 7 3 6 -15 -16 -23
-14 -12 8 4 9 -14 -14 -22
-14 -11 9 5 11 -12 -12 -21
-14 -11 10 7 14 -10 -11 -19
-14 -10 11 8 16 -8 -9 -18
-14 -10 11 8 17 -8 -9 -18
-14 -10 11 8 19 -9 -10 -18
-14 -10 11 8 21 -10 -10 -18
-14 -10 11 8 22 -11 -11 -18
-13 -10 10 9 24 -12 -12 -19
-13 -10 10 9 25 -12 -12 -19
-13 -10 11 10 26 -12 -11 -18
-12 -10 11 10 27 -11 -10 -18
-12 -10 12 11 28 -11 -9 -17
-11 -11 13 12 29 -10 -8 -16
-11 -11 13 12 29 -10 -8 -16
-11 -11 13 12 29 -10 -8 -16
-11 -11 12 12 29 -10 -9 -16
-11 -11 12 12 29 -10 -9 -16
-11 -10 11 13 28 -11 -10 -17
-11 -10 11 13 28 -10 -10 -17
-11 -9 12 14 29 -8 -9 -17
-11 -9 12 15 29 -7 -8 -17
-11 -8 13 16 30 -6 -7 -17
-10 -7 14 17 31 -4 -6 -17
-10 -7 14 17 31 -4 -6 -17
-10 -7 14 17 31 -5 -6 -17
-10 -7 13 17 31 -5 -7 -18
-10 -7 13 17 31 -6 -7 -18
-10 -7 12 18 30 -7 -8 -19
-10 -7 12 18 30 -7 -8 -19
-10 -6 12 18 30 -6 -8 -18
-9 -5 12 19 31 -5 -7 -17
-9 -4 12 19 31 -4 -7 -16
-8 -3 12 20 32 -3 -6 -15
-8 -3 12 20 32 -3 -6 -15
-8 -3 12 20 32 -3 -6 -15
-7 -3 12 20 32 -4 -6 -16
-7 -3 12 20 32 -4 -6 -16
-6 -3 11 20 31 -5 -6 -17
-6 -3 11 21 31 -4 -5 -17
-6 -3 12 23 32 -2 -4 -16
-5 -3 13 25 33 0 -3 -15
-5 -3 14 26 34 1 -2 -14
-4 -4 15 28 35 3 1 -13
-4 -3 15 28 35 3 1 -13
-3 -2 14 28 35 3 1 -13
-2 0 14 28 35 3 1 -13
0 1 13 28 35 3 1 -13
1 2 12 29 35 4 2 -14
1 2 12 30 36 4 2 -13
2 3 12 31 37 5 3 -12
2 4 12 32 38 5 4 -11
3 5 12 33 39 6 5 -10
4 6 12 34 40 7 6 -9
4 6 12 34 40 7 6 -9
4 6 12 34 40 7 6 -9
5 6 12 34 40 7 5 -9
5 6 12 34 40 7 5 -9
6 7 12 35 39 6 4 -10
6 8 12 35 40 6 4 -10
7 9 12 36 42 7 4 -10
8 10 12 37 43 8 4 -10
9 11 12 38 44 9 4 -10
10 12 11 39 46 10 5 -9
10 12 11 39 46 11 7 -9
11 12 11 40 46 13 9 -8
12 12 11 40 47 15 11 -7
13 12 11 42 47 16 13 -6
14 13 10 43 48 18 15 -5
14 13 10 43 48 18 15 -5
14 13 10 43 49 18 15 -4
14 14 10 44 50 18 15 -4
14 14 10 44 51 18 15 -3
14 15 11 45 52 17 16 -2
14 15 11 45 52 17 16 -2
15 15 10 45 52 17 16 -2
15 15 10 45 52 17 16 -2
16 15 9 45 52 17 16 -2
17 16 8 46 52 18 15 -3
17 16 8 46 52 18 15 -3
17 16 8 46 52 19 16 -2
17 16 8 46 52 20 17 0
17 16 8 46 52 21 18 1
17 16 9 47 53 22 19 2
17 16 9 47 53 22 19 2
17 17 8 47 53 22 19 1
17 17 8 46 53 21 19 1
17 18 7 46 53 21 19 0
16 19 6 45 52 20 19 -2
16 19 6 45 52 20 19 -2
16 19 6 45 52 20 19 0
17 18 6 45 52 19 19 1
17 18 6 45 52 19 19 2
18 17 6 44 53 18 18 3
17 17 6 44 53 18 18 3
16 16 6 44 52 18 18 3
15 16 6 44 52 18 18 3
14 15 6 44 51 18 18 3
13 14 6 43 50 19 19 2
13 14 6 43 50 19 19 2
13 14 6 42 50 19 19 1
13 14 7 42 49 19 19 1
13 14 7 40 49 19 19 0
14 15 8 39 48 18 18 -2
14 15 8 38 48 18 18 -2
13 14 8 37 47 17 18 -3
12 14 7 36 47 17 17 -3
11 13 7 35 46 16 17 -4
10 12 6 33 45 15 16 -5
10 12 6 32 44 15 16 -5
10 11 6 31 42 15 15 -6
10 10 5 30 40 14 15 -6
10 9 5 29 38 14 14 -7
9 8 4 28 36 13 13 -8
9 8 4 28 35 13 12 -8
9 8 4 27 34 12 10 -9
9 7 4 26 33 12 9 -9
9 7 4 25 32 11 7 -10
8 6 5 24 31 10 5 -11
7 5 5 24 31 10 5 -11
6 4 5 23 30 9 6 -11
5 3 6 22 29 8 7 -11
4 2 6 21 28 7 8 -11
2 0 7 20 27 6 9 -12
2 0 7 20 26 6 8 -13
2 0 7 19 25 5 6 -15
2 -2 7 18 24 4 5 -16
2 -2 7 17 23 3 3 -18
2 -3 6 16 21 2 1 -20
2 -3 6 16 21 2 1 -20
1 -3 6 16 21 2 2 -20
1 -4 6 16 20 2 2 -20
0 -4 6 16 20 2 3 -20
-2 -5 7 15 19 2 4 -20
-2 -5 7 15 18 1 3 -20
-2 -5 7 14 17 -2 1 -21
-2 -5 7 14 16 -4 -2 -22
-2 -5 7 13 15 -6 -4 -23
-3 -6 6 12 13 -8 -6 -24
-3 -6 6 12 13 -8 -6 -24
-3 -6 6 13 13 -8 -5 -24
-3 -7 6 14 14 -8 -5 -23
-3 -7 6 15 14 -8 -4 -23
-4 -8 7 16 15 -7 -3 -22
-4 -8 7 16 15 -7 -3 -22
-4 -8 7 16 14 -7 -3 -22
-4 -8 7 15 13 -7 -3 -22
-4 -8 7 15 12 -7 -3 -22
-4 -7 7 14 11 -8 -4 -23
-4 -7 7 14 11 -8 -4 -23
-4 -7 7 14 11 -8 -4 -23
-4 -7 7 14 11 -9 -4 -23
-4 -7 7 14 11 -9 -4 -23
-5 -6 7 14 11 -10 -5 -24
-5 -6 7 14 11 -10 -5 -24
-5 -6 7 14 11 -10 -5 -24
-5 -7 7 14 11 -10 -5 -23
-5 -7 7 14 11 -10 -5 -23
-5 -8 6 15 11 -11 -5 -22
-5 -8 6 15 11 -10 -4 -22
-5 -8 6 16 12 -9 -2 -21
-6 -8 6 16 13 -8 0 -21
-6 -8 6 17 14 -7 2 -20
-7 -7 7 18 15 -5 4 -19
-7 -7 7 18 15 -5 3 -19
-7 -6 6 17 14 -5 2 -20
-6 -5 6 17 13 -6 1 -21
-6 -4 5 16 12 -6 0 -22
-5 -3 4 15 11 -7 -3 -23
-5 -3 4 15 11 -7 -3 -23
-6 -3 4 15 11 -7 -3 -23
-6 -3 4 15 11 -7 -2 -24
-7 -3 4 15 11 -7 -2 -24
-8 -3 5 16 12 -7 0 -25
-8 -3 5 16 12 -7 0 -24
-8 -3 5 16 12 -7 0 -23
-8 -3 6 16 12 -6 0 -22
-8 -3 6 16 12 -6 0 -21
-7 -3 7 16 11 -5 -2 -19
-7 -3 7 16 11 -5 -2 -19
-6 -3 7 16 11 -5 -2 -19
-6 -3 7 16 11 -5 -2 -19
-5 -3 7 16 11 -5 -2 -19
-4 -3 7 15 11 -4 0 -20
-4 -3 7 14 11 -4 0 -20
-4 -2 6 13 10 -4 0 -21
-4 -2 6 12 10 -5 0 -21
-4 0 5 11 9 -5 0 -22
-5 1 4 10 8 -6 -2 -23
-5 1 4 10 8 -6 -2 -23
-5 0 4 10 8 -6 -2 -23
-5 0 5 10 8 -6 -2 -23
-5 -2 5 10 8 -6 -2 -23
-4 -3 6 11 7 -7 -2 -23
-4 -3 6 11 7 -7 -2 -23
-4 -3 6 11 7 -7 -2 -23
-5 -3 6 10 6 -7 -2 -22
-5 -3 6 10 6 -7 -2 -22
-6 -2 6 9 5 -6 -2 -21
-6 -2 6 9 5 -6 -2 -21
-6 -2 6 9 5 -6 -2 -21
-6 -2 6 9 5 -6 0 -20
-6 -2 6 9 5 -6 0 -20
-5 -2 6 8 4 -6 1 -19
-5 -2 6 8 4 -6 0 -19
-5 -2 6 7 3 -7 -2 -19
-6 -3 6 6 2 -7 -3 -20
-6 -3 6 5 1 -8 -4 -20
-7 -4 6 4 0 -9 -6 -21
-7 -4 6 4 0 -9 -5 -21
-7 -4 6 4 0 -8 -4 -20
-7 -4 5 4 0 -8 -3 -20
-7 -4 5 4 0 -7 -2 -19
-6 -3 4 3 1 -6 1 -18
-6 -3 4 3 1 -7 0 -19
-6 -3 4 3 0 -8 -2 -20
-6 -3 4 2 0 -9 -3 -21
-6 -3 4 2 -2 -10 -4 -22
-7 -4 5 1 -3 -11 -6 -23
-7 -4 5 1 -3 -11 -6 -23
-7 -4 5 1 -3 -11 -5 -22
-7 -4 5 1 -3 -11 -5 -22
-7 -4 5 1 -3 -11 -4 -21
-8 -3 4 0 -4 -11 -3 -20
-8 -3 4 0 -4 -11 -3 -20
-8 -3 4 -2 -4 -11 -3 -20
-8 -3 4 -3 -5 -11 -4 -20
-8 -3 4 -4 -5 -11 -4 -20
-7 -4 5 -5 -6 -12 -5 -21
-7 -4 5 -5 -6 -12 -5 -21
-7 -4 5 -5 -6 -12 -5 -21
-7 -5 5 -4 -6 -12 -4 -21
-7 -5 5 -4 -6 -12 -4 -21
-8 -6 5 -3 -6 -11 -3 -20
-8 -6 5 -3 -6 -11 -3 -20
-8 -6 5 -3 -6 -11 -4 -21
-8 -5 5 -4 -6 -11 -4 -22
-8 -5 5 -4 -6 -11 -5 -23
-8 -4 4 -5 -5 -12 -6 -24
-8 -3 5 -4 -5 -11 -5 -23
-8 -2 6 -3 -4 -9 -3 -21
-8 0 7 -2 -4 -8 -2 -20
-8 1 8 0 -3 -6 1 -18
-9 2 10 1 -2 -4 3 -16
-9 2 10 1 -2 -4 3 -16
-9 2 10 1 -2 -3 4 -15
-8 3 10 1 -2 -3 5 -15
-8 3 10 1 -2 -2 6 -14
-8 3 10 1 -2 -2 6 -14
-7 4 11 1 0 0 7 -13
-7 5 12 2 1 0 6 -12
-7 5 12 3 2 0 6 -11
-7 6 13 4 3 0 5 -10
-7 6 13 5 3 0 5 -9
-7 7 14 6 4 1 4 -8
-6 8 13 5 3 1 4 -8
-5 9 12 4 3 1 5 -8
-4 10 11 3 2 1 5 -8
-4 11 10 2 2 1 5 -8
-3 12 8 1 1 1 6 -6
-2 13 7 1 1 1 6 -5
0 14 6 1 1 1 5 -4
1 15 5 1 1 1 5 -3
1 15 4 1 1 1 5 -2
2 16 3 0 1 2 4 0
2 15 3 0 1 3 5 0
2 15 2 -2 1 3 5 1
2 14 2 -2 1 4 6 1
2 14 2 -2 1 4 6 1
4 13 1 -3 0 5 7 2
5 13 1 -3 0 5 7 2
7 12 2 -3 1 5 7 2
8 12 2 -3 1 5 7 2
9 12 2 -3 1 5 7 2
9 10 3 -2 2 5 6 2
7 9 3 -3 1 5 5 1
5 8 2 -3 1 4 4 0
3 7 2 -4 0 4 3 -2
2 6 2 -4 0 4 3 -2
0 4 1 -5 -3 2 1 -4
-2 2 1 -6 -4 0 -2 -5
-4 0 1 -7 -6 -2 -4 -6
-5 -3 1 -8 -7 -4 -6 -7
-6 -4 1 -9 -8 -5 -8 -8
-7 -5 1 -10 -9 -6 -9 -9
-8 -6 1 -10 -9 -6 -9 -9
-8 -6 2 -11 -9 -7 -10 -9
-9 -7 2 -11 -9 -7 -10 -9
-9 -7 2 -11 -9 -7 -10 -9
-10 -8 3 -12 -10 -8 -11 -10
-10 -9 3 -12 -10 -8 -11 -10
-10 -10 3 -12 -10 -8 -11 -9
-10 -11 3 -12 -10 -8 -11 -9
-10 -11 3 -12 -10 -8 -11 -9
-10 -12 3 -13 -11 -9 -11 -8
-10 -12 3 -13 -11 -9 -12 -8
-10 -11 3 -14 -12 -10 -13 -8
-10 -11 3 -14 -12 -10 -14 -8
-10 -11 3 -14 -12 -10 -14 -8
-10 -10 3 -15 -13 -11 -15 -8
-10 -10 3 -15 -13 -11 -14 -8
-10 -10 3 -15 -12 -11 -13 -8
-10 -10 3 -15 -12 -11 -12 -8
-10 -10 3 -15 -12 -11 -11 -8
-11 -10 4 -14 -11 -10 -11 -8
-10 -10 4 -14 -11 -10 -12 -8
-10 -10 4 -14 -12 -10 -13 -9
-9 -10 4 -14 -12 -10 -14 -9
-9 -10 4 -14 -12 -10 -15 -9
-8 -11 3 -14 -13 -10 -15 -9
-8 -11 3 -13 -12 -9 -14 -8
-8 -12 3 -13 -11 -8 -13 -7
-8 -12 3 -12 -10 -7 -12 -6
-8 -12 3 -12 -9 -6 -11 -5
-7 -11 6 -5 -3 0 -7 -2
-5 -9 8 4 5 5 -3 2
-3 -7 10 11 11 10 1 4
0 -5 12 18 17 15 5 7
1 -3 14 25 23 20 8 9
10 1 16 39 40 40 27 26
19 4 18 54 59 62 47 44
27 7 20 68 77 84 66 61
36 10 22 82 96 105 86 78
46 12 23 98 114 127 105 96
59 23 17 101 130 150 128 119
72 35 9 103 144 173 151 142
86 48 2 105 158 196 174 165
99 59 -7 107 173 219 196 188
113 71 -15 109 188 242 219 212
110 72 -31 73 161 218 204 203
106 72 -49 32 131 188 187 191
102 72 -66 -8 101 159 170 179
97 72 -83 -48 70 130 152 168
93 72 -101 -89 40 100 135 155
72 52 -107 -131 -19 43 80 108
51 29 -112 -173 -79 -18 24 58
29 6 -117 -215 -140 -77 -33 9
8 -17 -122 -257 -201 -138 -90 -41
-14 -40 -128 -299 -262 -197 -146 -92
-17 -47 -122 -282 -251 -193 -148 -97
-18 -52 -116 -260 -233 -183 -144 -98
-20 -57 -109 -238 -216 -173 -140 -99
-21 -62 -103 -217 -197 -161 -136 -100
-22 -67 -96 -194 -180 -151 -132 -101
-21 -63 -86 -174 -162 -138 -121 -94
-19 -57 -74 -153 -144 -123 -110 -85
-16 -50 -64 -133 -127 -109 -99 -75
-13 -44 -53 -112 -109 -95 -88 -65
-11 -37 -41 -92 -92 -81 -76 -56
-10 -33 -35 -80 -80 -71 -68 -50
-10 -28 -29 -70 -70 -62 -60 -44
-10 -24 -23 -59 -60 -53 -52 -37
-10 -20 -17 -49 -50 -44 -43 -31
-10 -16 -11 -37 -39 -34 -34 -25
-10 -15 -8 -32 -35 -31 -31 -23
-10 -15 -6 -28 -32 -28 -29 -21
-10 -14 -3 -24 -28 -25 -27 -19
-10 -14 1 -19 -24 -22 -24 -17
-10 -14 3 -15 -21 -19 -22 -15
-9 -13 4 -13 -19 -17 -20 -13
-9 -13 5 -12 -17 -16 -19 -12
-8 -12 5 -11 -16 -14 -18 -10
-8 -12 6 -10 -14 -13 -17 -9
-8 -12 6 -9 -13 -12 -16 -8
-7 -11 7 -8 -12 -11 -15 -7
-7 -11 7 -7 -11 -11 -15 -7
-7 -11 7 -6 -10 -10 -14 -7
-7 -11 7 -5 -9 -10 -14 -7
-7 -11 7 -4 -9 -10 -14 -7
-6 -10 7 -3 -8 -9 -13 -6
-6 -10 8 -2 -7 -8 -13 -6
-6 -10 9 0 -7 -7 -12 -5
-6 -10 10 1 -6 -6 -12 -5
-6 -10 11 2 -6 -6 -12 -5
-6 -9 12 3 -5 -5 -11 -4
-6 -9 12 3 -5 -5 -11 -4
-6 -9 12 3 -5 -5 -11 -5
-6 -9 12 3 -5 -5 -11 -5
-6 -9 12 3 -5 -5 -11 -5
-5 -9 12 2 -5 -4 -10 -6
-5 -9 12 3 -4 -4 -9 -5
-5 -9 12 4 -4 -4 -9 -4
-5 -9 12 5 -3 -4 -8 -3
-5 -9 12 5 -3 -4 -8 -3
-5 -9 12 6 -2 -3 -7 -2
-5 -9 12 6 -2 -3 -7 -2
-5 -9 11 6 -2 -3 -8 -3
-5 -9 11 6 -2 -3 -8 -3
-5 -9 11 6 -2 -3 -8 -3
-5 -9 10 7 -2 -2 -9 -4
-4 -8 10 8 0 0 -9 -4
-4 -7 10 8 0 0 -8 -3
-3 -6 10 9 1 1 -8 -3
-3 -6 10 9 1 1 -8 -3
-2 -5 11 10 2 2 -7 -2
-2 -6 11 10 2 1 -8 -2
-2 -7 11 10 2 1 -9 -2
-2 -8 11 10 2 0 -10 -2
-2 -8 11 10 2 0 -11 -2
-3 -9 11 10 2 0 -11 0
-3 -8 11 11 3 2 -9 1
-2 -7 11 12 4 3 -7 2
-2 -6 11 13 5 5 -5 3
-2 -6 11 14 6 6 -3 4
0 -5 12 15 7 7 -2 5
0 -5 12 15 8 7 -2 6
0 -5 11 16 9 7 -2 6
0 -5 11 16 10 7 -2 7
0 -5 11 16 10 7 -2 7
1 -5 10 18 11 7 -2 8
1 -4 10 19 12 8 0 8
2 -3 10 20 13 8 0 9
2 -2 10 21 14 9 1 9
2 -2 10 22 14 9 1 9
3 0 11 23 15 10 2 10
3 0 11 24 15 11 2 9
4 1 11 24 16 11 3 9
4 1 11 25 16 12 3 8
4 1 11 25 16 12 3 8
6 2 11 27 18 13 4 8
7 2 11 28 19 14 4 9
8 3 11 30 20 15 4 11
9 3 11 31 21 16 4 13
10 3 11 32 22 16 4 14
11 4 10 33 23 17 5 15
12 5 9 34 24 18 6 16
12 5 9 35 25 19 7 17
13 6 8 36 26 20 8 18
13 6 8 36 26 21 8 19
14 7 7 37 28 22 9 21
15 8 7 38 29 23 10 22
16 9 7 39 30 24 11 23
17 10 7 40 31 25 12 24
18 10 7 42 32 26 12 25
19 11 7 43 33 28 13 26
19 11 6 44 34 29 14 27
19 12 6 45 35 30 15 28
19 12 5 46 36 31 16 29
19 12 5 46 37 32 17 29
19 13 4 47 38 33 18 30
19 13 4 48 38 33 19 30
19 13 5 48 39 34 20 31
19 13 5 49 39 34 21 31
19 13 5 49 39 34 21 31
20 14 6 50 40 35 22 32
20 15 5 50 40 35 22 33
21 16 5 50 42 35 22 34
21 17 4 50 42 35 22 35
21 18 4 50 42 35 22 35
22 19 3 49 43 35 23 36
22 19 3 49 43 36 23 36
22 19 3 49 44 36 23 36
22 19 3 49 44 37 23 36
22 19 3 49 44 37 23 36
22 20 2 50 45 38 23 35
22 20 2 50 45 38 23 35
22 20 2 50 44 38 24 36
22 20 2 50 44 38 24 36
22 20 2 50 44 38 24 36
21 19 3 49 43 37 25 37
21 18 4 49 43 37 25 37
20 18 4 49 43 36 24 37
20 17 5 49 43 36 24 37
20 17 5 49 43 36 24 37
18 16 6 48 42 35 23 37
17 16 6 47 40 35 22 36
16 16 6 46 39 35 21 35
14 16 6 45 38 35 20 34
13 16 6 45 38 35 20 33
12 15 5 44 37 34 19 32
12 14 6 43 36 33 19 31
12 13 6 42 35 32 18 31
12 12 7 40 34 31 18 30
12 11 7 39 34 31 18 30
12 10 8 38 33 30 17 29
11 10 8 36 31 29 17 28
11 10 8 35 30 29 16 27
10 10 8 34 29 28 16 26
10 10 8 33 28 28 16 26
9 10 7 32 27 27 15 25
8 9 8 31 26 27 14 24
7 8 9 30 25 26 13 24
6 7 10 29 24 26 12 23
5 7 10 28 23 26 11 23
4 6 11 27 21 24 10 22
3 6 11 26 19 23 8 21
2 5 10 25 17 22 7 20
1 5 10 24 16 20 6 19
0 5 10 23 14 19 5 18
-2 4 9 22 13 18 4 17
-2 3 9 21 12 16 3 16
-2 3 10 20 11 15 3 15
-2 2 10 19 10 14 2 14
-2 2 10 18 10 13 2 14
-3 1 11 17 9 12 1 13
-4 0 11 17 9 11 0 13
-5 -2 11 17 8 11 -2 12
-6 -3 11 17 8 10 -3 12
-6 -4 11 17 8 10 -4 12
-7 -5 11 16 7 9 -5 11
-7 -5 11 16 7 9 -5 11
-7 -6 11 16 6 8 -4 10
-7 -6 11 16 6 8 -4 10
-7 -6 11 16 6 8 -4 10
-6 -7 11 16 5 7 -3 9
-6 -7 11 16 5 7 -3 9
-7 -7 11 16 4 7 -4 8
-7 -7 11 16 4 7 -4 8
-7 -7 11 16 4 7 -4 8
-8 -6 11 15 3 6 -5 7
-8 -7 11 15 3 6 -6 7
-8 -8 11 15 3 6 -6 6
-8 -9 11 15 3 6 -7 6
-8 -9 11 15 3 6 -7 6
-8 -10 12 16 3 5 -8 5
-9 -9 12 16 3 5 -8 4
-9 -9 11 15 3 5 -8 4
-10 -8 11 15 3 5 -8 3
-10 -8 11 15 3 5 -8 3
-11 -7 10 14 3 5 -7 2
-10 -7 10 14 3 5 -7 2
-10 -8 10 15 3 4 -7 2
-9 -8 10 15 3 4 -7 2
-9 -8 10 15 3 4 -7 2
-8 -9 10 16 2 3 -8 3
-8 -9 10 16 2 3 -8 3
-9 -9 10 16 2 3 -7 2
-9 -9 10 16 2 3 -7 2
-9 -9 10 16 2 3 -7 2
-10 -8 10 15 2 4 -6 1
-10 -8 10 15 2 4 -6 1
-10 -8 10 15 3 4 -5 1
-10 -8 10 15 3 4 -5 1
-10 -8 10 15 3 4 -5 1
-10 -8 10 15 4 5 -4 1
-10 -8 10 15 4 5 -4 1
-10 -8 10 14 4 5 -5 1
-10 -8 10 14 4 5 -5 1
-10 -8 10 14 4 5 -5 1
-9 -9 9 13 3 5 -6 1
-9 -9 9 13 3 5 -5 1
-9 -9 9 13 4 6 -5 1
-9 -9 9 13 4 6 -4 1
-9 -9 9 13 4 6 -4 1
-9 -9 8 13 5 7 -3 1
-9 -8 8 13 5 7 -2 1
-9 -7 8 13 5 8 -2 1
-9 -6 8 13 5 8 0 1
-9 -6 8 13 5 8 0 1
-10 -5 8 12 4 9 1 2
-10 -5 8 12 4 8 0 2
-10 -5 8 12 4 8 -2 2
-10 -5 8 12 4 7 -3 2
-10 -5 8 12 4 7 -4 2
-10 -5 9 12 4 6 -5 2
-10 -5 9 11 4 5 -5 2
-10 -5 8 11 4 5 -5 2
-10 -5 8 10 4 4 -5 2
-10 -5 8 10 4 4 -5 2
-9 -5 7 9 3 3 -5 2
-9 -5 7 8 3 3 -5 2
-9 -5 7 8 2 4 -5 2
-9 -5 7 7 2 4 -5 2
-9 -5 7 7 2 4 -5 2
-9 -4 6 6 1 5 -5 1
-9 -4 6 5 1 5 -5 1
-9 -4 6 5 1 4 -5 1
-9 -4 6 4 1 4 -5 1
-9 -4 6 4 1 4 -5 1
-9 -5 6 3 1 3 -4 2
-9 -5 6 3 1 2 -5 1
-9 -5 6 2 1 2 -6 1
-9 -5 6 2 1 1 -6 0
-9 -5 6 2 1 1 -7 0
-9 -4 6 1 0 0 -8 -2
-9 -4 6 1 0 1 -8 -2
-10 -4 6 1 0 1 -8 0
-10 -4 6 1 0 2 -8 0
-10 -4 6 1 0 2 -8 0
-11 -5 6 0 -2 3 -7 1
-11 -5 6 0 -2 3 -7 1
-11 -5 6 0 -2 3 -7 1
-11 -5 6 0 -2 3 -7 1
-11 -5 6 0 -2 3 -7 1
-10 -5 6 -2 -2 4 -6 1
-10 -5 6 -3 -2 4 -6 0
-11 -5 6 -4 -3 3 -7 0
-11 -5 6 -4 -3 3 -7 -2
-11 -5 6 -5 -3 3 -7 -2
-12 -5 5 -6 -4 2 -8 -3
-12 -5 5 -6 -4 2 -7 -3
-12 -5 5 -6 -3 2 -7 -2
-12 -5 5 -6 -3 2 -6 -2
-12 -5 5 -6 -3 2 -6 -2
-11 -6 5 -5 -2 2 -5 0
-11 -6 5 -6 -3 1 -5 0
-11 -5 5 -6 -4 0 -6 0
-11 -5 5 -7 -4 0 -6 0
-11 -5 5 -7 -5 -2 -6 0
-12 -4 5 -8 -6 -3 -7 -2
-12 -4 5 -8 -5 -3 -7 -2
-12 -4 5 -8 -5 -3 -7 -2
-12 -4 5 -8 -4 -3 -7 -2
-12 -4 5 -8 -4 -3 -7 -2
-11 -4 4 -8 -3 -2 -6 -2
-11 -3 4 -8 -3 -3 -7 -2
-10 -3 4 -8 -3 -3 -7 -2
-10 -2 4 -8 -3 -4 -8 -2
-10 -2 4 -8 -3 -4 -8 -2
-9 0 4 -9 -4 -5 -9 -3
-9 2 6 -8 -3 -4 -7 0
-9 3 7 -7 -2 -3 -6 1
-9 4 8 -6 0 -2 -4 2
-9 5 9 -5 1 0 -3 3
-9 6 10 -4 2 1 -2 4
-8 7 10 -4 2 1 -2 4
-7 8 10 -4 1 1 -2 4
-7 9 10 -4 1 1 -2 4
-6 10 10 -4 1 1 -2 4
-5 11 9 -5 0 0 -2 3
-5 12 8 -5 0 0 -2 3
-4 12 7 -5 1 0 -2 3
-4 13 7 -5 1 0 -2 3
-4 13 6 -5 1 0 -2 3
-3 14 5 -4 2 1 0 4
-3 15 4 -5 2 1 0 4
-2 16 3 -5 2 1 1 4
-2 17 2 -6 2 1 1 4
-2 18 1 -6 2 1 1 4
0 19 0 -7 1 2 2 4
0 19 0 -7 1 2 2 4
0 20 -2 -7 0 2 2 4
0 20 -2 -7 0 2 2 4
0 20 -2 -7 0 2 2 4
-2 21 -3 -8 -2 1 2 3
0 20 -3 -8 -2 1 2 4
0 19 -3 -8 -2 1 2 4
1 18 -3 -8 -2 1 2 5
1 17 -3 -8 -2 1 2 5
2 16 -3 -7 0 2 3 6
3 15 -3 -7 0 2 3 6
4 14 -3 -7 0 2 3 6
4 13 -3 -7 0 2 3 6
5 12 -3 -7 0 2 3 6
5 10 -4 -7 -2 1 2 5
3 7 -4 -9 -4 -3 0 3
1 5 -3 -10 -6 -5 -3 2
-3 3 -3 -11 -8 -7 -5 0
-5 0 -3 -12 -10 -10 -7 -3
-6 -2 -2 -13 -11 -11 -8 -4
-6 -2 -2 -13 -12 -11 -8 -5
-7 -2 -2 -13 -12 -12 -9 -5
-7 -2 -2 -13 -13 -12 -9 -6
-7 -2 -2 -13 -13 -12 -9 -6
-8 -3 0 -14 -14 -13 -10 -7
-8 -3 0 -14 -14 -13 -10 -8
-8 -4 0 -15 -14 -14 -10 -8
-8 -4 0 -15 -14 -14 -10 -9
-8 -4 0 -15 -14 -14 -10 -9
-9 -5 -2 -16 -15 -15 -11 -10
-9 -5 0 -16 -15 -15 -11 -10
-9 -5 0 -16 -15 -14 -11 -10
-9 -5 1 -16 -15 -14 -11 -10
-9 -5 1 -16 -15 -14 -11 -10
-10 -6 2 -15 -15 -13 -11 -10
-10 -6 2 -15 -15 -13 -11 -10
-10 -7 2 -15 -15 -13 -11 -10
-10 -7 2 -15 -15 -13 -11 -10
-10 -7 2 -15 -15 -13 -11 -10
-9 -8 1 -15 -14 -13 -11 -9
-9 -8 1 -15 -14 -13 -11 -9
-9 -8 2 -15 -13 -13 -11 -9
-9 -8 2 -15 -13 -13 -11 -9
-9 -8 2 -15 -13 -13 -11 -9
-8 -7 3 -14 -12 -14 -11 -8
-8 -7 3 -14 -12 -14 -12 -9
-8 -7 3 -14 -12 -14 -13 -10
-8 -7 3 -14 -12 -14 -13 -10
-8 -7 3 -14 -12 -14 -14 -11
-8 -7 3 -11 -9 -12 -13 -11
-6 -7 5 -6 -4 -9 -10 -9
-5 -6 7 1 2 -5 -7 -7
-3 -6 9 6 7 -2 -4 -4
-2 -6 11 12 12 2 0 -2
3 -3 13 22 24 15 12 8
9 2 16 36 40 33 27 21
15 6 18 51 57 52 43 34
21 10 21 64 73 69 59 48
27 14 24 78 90 88 74 61
38 21 22 88 107 111 97 82
52 29 17 96 127 139 123 107
65 37 12 103 145 165 149 133
79 46 7 110 164 192 176 158
93 54 2 118 183 219 201 184
98 60 -13 104 185 228 211 194
100 67 -31 76 176 225 210 197
101 73 -51 48 168 222 207 199
103 79 -70 20 158 219 205 202
104 86 -90 -9 150 216 203 205
93 75 -101 -53 99 164 162 173
72 53 -109 -107 25 88 98 117
52 31 -117 -161 -49 11 33 63
32 9 -126 -216 -123 -67 -30 9
12 -14 -134 -270 -197 -144 -95 -46
1 -27 -134 -282 -222 -175 -121 -71
-5 -37 -128 -268 -217 -179 -129 -80
-11 -47 -122 -255 -212 -183 -135 -90
-16 -57 -116 -240 -206 -186 -141 -98
-22 -66 -111 -227 -201 -190 -147 -107
-23 -67 -102 -206 -187 -181 -142 -106
-21 -62 -91 -184 -168 -161 -129 -97
-19 -57 -79 -161 -148 -143 -114 -88
-17 -52 -68 -138 -129 -123 -101 -79
-14 -46 -57 -115 -109 -104 -87 -70
-13 -40 -48 -99 -95 -92 -77 -63
-12 -35 -41 -88 -85 -82 -70 -57
-11 -30 -34 -76 -74 -73 -63 -52
-11 -25 -28 -64 -64 -64 -55 -46
-10 -20 -21 -53 -53 -55 -48 -40
-9 -18 -17 -45 -46 -49 -43 -36
-9 -17 -13 -38 -40 -44 -38 -32
-9 -15 -10 -32 -35 -38 -35 -29
-9 -14 -7 -26 -30 -34 -31 -26
-9 -13 -4 -20 -25 -29 -27 -23
-9 -12 -2 -17 -23 -27 -25 -21
-9 -12 1 -15 -21 -25 -23 -20
-9 -12 2 -13 -19 -23 -22 -19
-9 -12 4 -12 -18 -22 -20 -18
-9 -12 5 -10 -16 -20 -19 -17
-10 -11 6 -9 -15 -19 -18 -16
-10 -11 6 -8 -15 -18 -17 -16
-10 -10 6 -7 -14 -17 -16 -15
-10 -10 6 -6 -14 -17 -16 -14
-10 -10 6 -5 -14 -16 -15 -14
-9 -9 7 -4 -13 -15 -14 -13
-9 -9 8 -3 -13 -15 -14 -13
-8 -9 9 -2 -12 -15 -14 -13
-8 -9 9 0 -12 -15 -14 -13
-8 -9 10 1 -12 -15 -14 -13
-7 -9 11 2 -11 -15 -15 -13
-7 -9 11 2 -11 -15 -14 -13
-6 -9 11 2 -11 -14 -13 -12
-5 -9 11 2 -11 -14 -13 -12
-5 -9 11 2 -11 -14 -12 -12
-4 -8 11 2 -10 -13 -11 -11
-4 -8 11 2 -10 -12 -11 -11
-5 -8 12 3 -10 -11 -11 -10
-5 -8 12 4 -10 -11 -11 -10
-5 -8 12 4 -10 -10 -11 -10
-6 -8 13 5 -9 -9 -11 -9
-6 -8 13 5 -9 -9 -11 -9
-5 -7 12 5 -9 -9 -11 -9
-4 -7 12 5 -9 -9 -11 -9
-4 -7 12 5 -9 -9 -11 -9
-3 -6 11 5 -9 -10 -10 -10
-3 -6 11 5 -9 -10 -10 -10
-3 -6 11 5 -8 -10 -10 -10
-3 -6 11 5 -8 -10 -10 -10
-3 -6 11 5 -8 -10 -10 -10
-3 -6 11 6 -7 -9 -10 -11
-3 -6 11 6 -7 -9 -10 -11
-3 -5 11 6 -7 -8 -9 -10
-3 -5 11 6 -7 -7 -8 -9
-3 -5 11 6 -7 -7 -8 -9
-3 -4 10 7 -7 -6 -7 -8
-3 -4 10 8 -6 -5 -7 -8
-2 -4 10 9 -5 -4 -6 -8
-2 -4 10 10 -5 -4 -5 -8
-2 -4 10 11 -4 -3 -5 -8
0 -5 11 12 -3 -2 -4 -7
0 -5 11 12 -3 -2 -4 -7
0 -4 11 12 -2 -3 -5 -7
0 -4 11 12 -2 -3 -5 -7
0 -4 11 12 -2 -3 -5 -7
1 -3 12 13 0 -4 -6 -6
1 -3 12 14 1 -3 -5 -5
2 -2 12 16 2 0 -4 -4
3 -2 12 17 3 1 -4 -3
3 -2 12 18 4 2 -3 -2
4 0 12 19 5 3 -2 0
4 1 12 19 5 3 0 1
4 2 12 19 5 4 1 2
4 3 12 19 5 5 1 2
4 4 12 19 5 5 2 3
5 5 11 20 6 6 3 4
6 5 11 21 7 6 4 5
7 5 11 23 8 7 5 6
7 5 11 24 9 8 5 7
8 5 11 25 10 8 6 8
9 6 11 26 11 9 7 9
10 7 11 27 12 10 8 11
11 8 11 28 14 12 9 12
11 8 11 29 15 13 9 13
12 9 11 30 16 14 10 15
13 10 10 31 17 15 11 16
14 10 10 32 18 16 12 18
15 11 9 33 19 17 13 20
15 11 9 33 20 18 14 21
16 11 9 34 21 19 15 23
17 12 8 35 22 20 16 24
17 13 8 35 23 20 16 25
18 14 8 36 24 21 17 26
19 14 8 37 24 22 18 26
19 15 8 37 25 22 18 27
20 16 7 38 26 23 19 28
20 16 7 38 27 24 19 28
20 17 6 39 28 25 20 29
20 18 6 40 29 26 21 30
20 18 6 40 30 27 21 30
20 19 5 42 31 28 22 31
20 19 5 42 32 29 23 32
20 20 5 43 33 30 25 34
20 21 5 43 33 30 26 35
20 21 5 43 34 31 27 36
21 22 5 44 35 32 28 37
21 22 5 44 35 32 28 37
21 22 5 45 36 33 28 37
21 22 5 46 36 34 28 37
21 22 5 46 36 34 28 37
22 22 5 47 37 35 29 37
22 22 5 46 37 35 29 37
22 22 4 45 37 35 29 38
22 22 4 45 37 35 29 38
22 22 4 44 37 35 29 38
21 23 3 43 37 35 30 39
21 23 3 43 37 35 29 39
20 22 4 43 37 34 28 39
19 22 4 43 37 34 28 39
19 22 4 43 37 34 27 39
18 21 5 44 37 33 26 38
18 21 5 42 36 33 26 37
18 20 5 40 35 32 25 36
18 20 5 39 35 31 25 36
18 20 5 37 34 31 25 35
19 19 5 36 33 30 24 34
18 19 5 35 32 29 24 34
17 19 5 34 30 28 24 33
16 19 5 33 29 28 24 33
15 19 5 32 28 27 24 33
14 18 4 31 27 26 23 32
13 17 4 29 25 24 21 30
12 16 4 27 23 22 19 29
12 15 4 25 22 21 18 28
11 14 4 23 20 19 16 26
10 13 5 22 19 18 15 25
9 11 5 21 18 17 14 25
8 10 5 19 17 15 13 24
7 9 5 18 16 14 12 23
6 7 5 17 15 13 11 23
5 6 6 16 14 12 10 22
5 6 6 14 12 11 9 22
4 5 6 13 10 9 7 21
3 4 6 12 8 8 6 21
3 4 6 10 6 7 5 21
2 3 6 9 5 6 4 20
1 3 6 8 4 6 4 18
0 2 6 7 3 5 3 17
0 1 6 6 2 4 3 16
-2 1 6 5 1 4 3 14
-3 0 7 4 0 3 2 13
-3 0 7 4 0 1 1 13
-3 -2 7 3 -2 0 0 12
-3 -3 7 2 -3 -2 -2 11
-3 -3 7 2 -3 -4 -3 11
-3 -4 7 1 -4 -5 -4 10
-3 -5 7 1 -4 -5 -4 10
-4 -6 7 1 -5 -6 -5 9
-4 -6 7 1 -5 -6 -5 9
-4 -7 7 1 -5 -6 -5 9
-5 -8 7 0 -6 -7 -6 8
-5 -8 7 0 -6 -7 -6 8
-6 -8 7 0 -7 -7 -6 7
-6 -8 7 0 -7 -7 -6 6
-6 -8 7 0 -7 -7 -6 6
-7 -8 8 -2 -8 -7 -7 5
-7 -8 8 -2 -8 -7 -7 5
-7 -8 8 -2 -8 -8 -8 5
-7 -8 8 -2 -8 -9 -9 4
-7 -8 8 -2 -8 -9 -9 4
-8 -9 8 -3 -9 -10 -10 3
-8 -9 8 -3 -9 -10 -10 3
-8 -9 8 -3 -9 -10 -10 3
-8 -9 8 -3 -9 -10 -10 3
-8 -9 8 -3 -9 -10 -10 3
-7 -8 9 -3 -10 -11 -9 2
-7 -8 9 -3 -10 -11 -9 2
-7 -8 9 -3 -10 -11 -9 2
-7 -8 9 -3 -10 -11 -10 2
-7 -8 9 -3 -10 -11 -10 2
-7 -8 8 -3 -9 -10 -11 3
-7 -8 8 -3 -9 -10 -11 3
-7 -8 8 -3 -9 -11 -11 3
-7 -8 8 -3 -9 -12 -12 3
-7 -8 8 -3 -9 -12 -12 3
-8 -8 8 -2 -10 -13 -13 4
-8 -8 8 -2 -10 -13 -13 4
-8 -8 8 -2 -10 -13 -12 4
-8 -8 8 -2 -10 -12 -11 5
-8 -8 8 -2 -10 -12 -11 5
-8 -9 8 -2 -10 -11 -10 6
-8 -9 8 -2 -10 -11 -10 6
-8 -9 8 -2 -10 -11 -10 6
-8 -8 8 -2 -9 -11 -10 6
-8 -8 8 -2 -9 -11 -10 6
-7 -7 8 0 -8 -10 -10 7
-7 -7 8 0 -8 -10 -9 7
-7 -7 8 0 -8 -9 -9 7
-7 -7 8 1 -7 -8 -8 8
-7 -7 8 1 -7 -8 -7 8
-6 -7 8 2 -6 -7 -6 9
-6 -7 8 2 -6 -7 -6 9
-6 -7 8 2 -6 -7 -6 9
-6 -7 8 2 -6 -7 -6 9
-6 -7 8 2 -6 -7 -6 9
-6 -6 7 1 -6 -7 -6 8
-6 -6 7 1 -6 -7 -6 8
-6 -6 7 1 -6 -7 -6 8
-5 -6 7 1 -6 -6 -6 8
-5 -6 7 1 -6 -6 -6 8
-4 -7 8 2 -6 -5 -5 9
-4 -7 8 2 -6 -5 -5 9
-5 -7 8 2 -6 -5 -5 9
-6 -7 8 2 -6 -5 -5 9
-6 -7 8 2 -6 -5 -5 9
-7 -6 7 1 -6 -6 -4 9
-7 -6 7 1 -6 -6 -4 8
-7 -6 7 1 -6 -6 -4 8
-6 -6 7 0 -7 -6 -5 7
-6 -6 7 0 -7 -6 -5 6
-5 -5 6 -2 -8 -7 -6 5
-5 -5 6 -2 -8 -7 -6 5
-5 -5 6 -2 -8 -7 -6 5
-5 -5 5 -3 -8 -7 -5 5
-5 -5 5 -3 -8 -7 -5 5
-5 -5 4 -4 -9 -7 -4 5
-5 -5 4 -4 -9 -7 -4 5
-5 -5 4 -4 -9 -7 -4 5
-5 -5 4 -4 -9 -7 -4 5
-5 -5 4 -4 -9 -7 -4 5
-6 -4 5 -5 -10 -7 -5 5
-6 -4 5 -5 -10 -7 -5 5
-6 -4 5 -5 -10 -7 -5 5
-6 -4 5 -5 -10 -8 -6 5
-6 -4 5 -5 -10 -8 -6 5
-7 -5 5 -6 -11 -9 -7 4
-7 -5 5 -6 -11 -9 -7 4
-8 -5 5 -6 -11 -9 -7 4
-9 -5 5 -6 -11 -8 -6 4
-9 -5 5 -6 -11 -8 -6 4
-10 -4 6 -6 -11 -7 -5 3
-10 -4 6 -6 -11 -7 -5 3
-10 -4 6 -6 -11 -7 -5 3
-10 -4 6 -7 -11 -7 -5 3
-10 -4 6 -7 -11 -7 -5 3
-10 -4 5 -8 -11 -8 -5 4
-10 -4 5 -8 -11 -8 -5 4
-10 -4 5 -8 -11 -8 -5 4
-10 -4 5 -8 -11 -8 -6 4
-10 -4 5 -8 -11 -8 -6 4
-10 -5 5 -8 -10 -7 -7 3
-10 -5 5 -8 -10 -7 -7 3
-10 -5 5 -8 -10 -7 -7 3
-10 -5 5 -8 -10 -8 -8 3
-10 -5 5 -8 -10 -8 -8 3
-10 -5 5 -8 -11 -9 -9 4
-10 -5 5 -8 -11 -9 -9 4
-10 -5 5 -8 -11 -9 -9 5
-10 -5 5 -8 -11 -8 -8 6
-10 -5 5 -8 -11 -8 -8 6
-11 -6 5 -8 -11 -7 -7 7
-11 -6 5 -8 -11 -7 -7 7
-11 -6 5 -8 -11 -7 -7 7
-11 -6 5 -8 -11 -7 -7 7
-11 -6 5 -8 -11 -7 -7 7
-12 -5 6 -7 -10 -8 -7 8
-12 -5 6 -7 -10 -8 -7 8
-11 -5 6 -7 -10 -8 -7 8
-10 -5 6 -7 -10 -8 -8 8
-10 -5 6 -7 -10 -8 -8 8
-9 -6 5 -8 -10 -9 -9 7
-9 -5 6 -8 -9 -8 -8 8
-9 -4 6 -7 -9 -8 -8 8
-9 -2 7 -6 -8 -7 -7 9
-9 0 8 -6 -7 -6 -6 10
-10 1 9 -5 -6 -5 -5 11
-10 2 9 -5 -5 -4 -5 11
-10 2 9 -4 -5 -4 -5 11
-10 3 10 -3 -4 -3 -5 11
-10 4 10 -3 -3 -2 -5 11
-9 5 11 -2 -2 0 -4 12
-9 6 11 -2 -2 0 -4 12
-8 7 11 -2 -2 0 -4 12
-7 8 11 -2 -2 0 -3 12
-7 9 11 -2 -2 0 -3 12
-6 10 11 -2 0 0 -2 13
-6 10 10 -2 0 0 -2 13
-6 10 9 -2 0 1 -2 13
-5 11 8 -2 0 2 -2 13
-5 11 7 -2 0 2 -2 13
-4 12 6 0 1 3 -2 13
-4 13 5 0 1 3 0 13
-4 14 4 0 1 3 0 13
-3 16 3 0 1 4 1 12
-3 17 2 0 1 4 2 12
-2 18 1 -2 1 5 3 11
-2 18 1 -2 1 5 3 11
-2 18 1 -2 1 5 3 10
-2 18 1 -3 1 5 3 9
-2 18 1 -3 1 5 3 9
0 18 0 -4 1 5 2 8
1 17 0 -4 1 5 2 8
2 16 0 -4 1 5 2 8
4 15 0 -3 1 5 2 9
5 14 0 -3 1 5 2 9
6 13 0 -2 2 5 2 10
6 13 0 -2 2 5 2 10
6 12 0 -2 1 5 2 10
5 11 0 -2 0 5 2 10
5 11 0 -2 0 5 2 10
4 10 -2 -3 -2 5 3 10
3 7 -2 -5 -3 3 1 7
2 5 -2 -6 -5 1 -2 4
0 2 -2 -8 -6 -2 -4 2
-2 0 -2 -10 -8 -4 -5 -2
-3 -3 -2 -11 -9 -6 -7 -4
-4 -3 -2 -11 -9 -6 -7 -4
-6 -3 0 -11 -9 -6 -7 -4
-7 -4 1 -11 -9 -6 -7 -5
-9 -4 1 -11 -9 -6 -7 -5
-10 -5 2 -10 -9 -5 -8 -6
-10 -6 2 -10 -9 -6 -8 -6
-10 -6 2 -10 -10 -6 -9 -7
-10 -7 2 -11 -11 -7 -10 -8
-10 -8 2 -11 -11 -8 -10 -8
-10 -9 1 -12 -12 -9 -11 -9
-10 -9 1 -12 -12 -9 -11 -9
-10 -9 1 -12 -12 -9 -11 -9
-10 -9 1 -12 -12 -9 -11 -9
-10 -9 1 -12 -12 -9 -11 -9
-11 -10 2 -11 -11 -8 -10 -9
-11 -10 2 -11 -11 -8 -10 -9
-11 -10 2 -11 -11 -8 -10 -9
-11 -10 2 -11 -11 -8 -10 -9
-11 -10 2 -11 -11 -8 -10 -9
-11 -9 2 -11 -11 -8 -9 -9
-11 -9 2 -11 -11 -8 -9 -9
-11 -9 2 -11 -11 -8 -9 -9
-11 -9 2 -11 -10 -8 -9 -9
-11 -9 2 -11 -10 -8 -9 -9
-10 -8 3 -10 -9 -7 -10 -10
-10 -8 3 -10 -9 -7 -10 -10
-10 -8 3 -10 -9 -7 -9 -9
-10 -8 3 -10 -9 -6 -8 -8
-10 -8 3 -10 -9 -6 -8 -8
-11 -9 3 -8 -6 -4 -6 -6
-9 -8 5 -2 0 0 -3 -3
-8 -8 6 6 6 3 2 1
-6 -7 8 13 12 7 6 4
-5 -6 9 19 18 10 9 7
0 -4 12 29 28 20 17 14
7 1 16 46 47 40 34 28
14 5 20 61 65 61 51 44
22 10 24 77 84 82 68 58
29 14 28 93 103 103 86 73
39 20 29 105 120 126 104 92
55 28 20 110 137 150 128 115
70 37 11 114 153 174 151 139
86 47 3 119 170 198 175 162
102 56 -7 123 186 223 198 186
112 63 -20 116 193 236 212 202
113 66 -44 81 179 227 204 199
113 70 -67 46 164 217 197 197
114 74 -91 11 150 206 189 194
115 77 -113 -24 137 197 182 192
109 73 -131 -65 102 165 156 173
87 50 -137 -116 28 92 96 119
63 26 -143 -168 -45 17 34 67
40 3 -148 -220 -118 -57 -27 14
17 -20 -154 -271 -192 -131 -89 -38
1 -38 -155 -300 -238 -180 -130 -75
-5 -44 -146 -280 -227 -175 -132 -80
-9 -50 -137 -261 -215 -169 -134 -86
-14 -56 -128 -241 -203 -163 -135 -91
-18 -62 -118 -221 -192 -158 -137 -96
-22 -66 -108 -200 -178 -150 -135 -98
-20 -60 -96 -178 -159 -135 -121 -89
-17 -54 -83 -155 -141 -120 -108 -79
-15 -48 -71 -133 -121 -106 -95 -70
-13 -41 -59 -110 -103 -91 -80 -61
-11 -36 -49 -92 -87 -78 -69 -54
-11 -31 -43 -81 -77 -69 -62 -49
-11 -27 -36 -71 -67 -61 -56 -43
-11 -22 -30 -61 -58 -53 -49 -37
-11 -18 -24 -51 -48 -44 -41 -32
-11 -14 -18 -43 -39 -36 -35 -28
-11 -13 -15 -36 -34 -32 -32 -26
-11 -13 -12 -31 -29 -29 -29 -23
-11 -12 -8 -26 -25 -25 -25 -21
-11 -11 -5 -20 -20 -21 -22 -19
-12 -10 -2 -16 -16 -18 -19 -17
-12 -10 0 -15 -15 -17 -18 -16
-11 -10 0 -15 -14 -16 -17 -15
-11 -10 1 -14 -13 -15 -16 -14
-10 -10 2 -13 -11 -13 -15 -13
-9 -10 3 -12 -10 -12 -14 -12
-9 -10 3 -11 -9 -12 -14 -12
-9 -10 4 -10 -8 -12 -14 -12
-9 -9 4 -9 -7 -11 -13 -11
-9 -9 5 -8 -6 -11 -13 -11
-9 -8 6 -7 -5 -10 -12 -10
-9 -8 6 -7 -5 -9 -12 -10
-9 -8 6 -6 -5 -9 -11 -10
-8 -7 6 -6 -4 -8 -11 -9
-8 -7 6 -5 -4 -7 -10 -9
-7 -6 7 -4 -3 -6 -9 -8
-7 -6 7 -4 -3 -6 -9 -8
-7 -6 7 -4 -3 -6 -9 -8
-7 -6 7 -4 -3 -6 -9 -8
-7 -6 7 -4 -3 -6 -9 -8
-7 -5 8 -3 -2 -6 -9 -7
-7 -5 8 -3 -2 -6 -9 -7
-7 -5 8 -3 -2 -6 -9 -7
-7 -5 8 -2 0 -5 -8 -7
-7 -5 8 -2 0 -5 -8 -7
-7 -4 8 0 1 -4 -7 -6
-7 -4 8 0 1 -4 -7 -6
-7 -4 8 0 1 -4 -7 -6
-6 -4 8 0 1 -3 -7 -6
-6 -4 8 0 1 -3 -7 -6
-5 -4 9 1 2 -2 -6 -5
-5 -4 9 1 2 -2 -6 -5
-5 -4 9 2 2 -2 -6 -5
-5 -4 9 2 3 -2 -6 -5
-5 -4 9 3 3 -2 -6 -5
-4 -3 9 4 4 0 -5 -6
-4 -3 9 4 4 0 -5 -6
-4 -3 9 5 5 0 -5 -6
-4 -3 9 5 5 0 -4 -5
-4 -3 9 6 6 0 -4 -5
-3 -2 10 7 7 0 -3 -4
-3 -2 10 7 7 1 -2 -4
-3 -2 10 8 8 1 -2 -4
-3 -2 10 8 8 2 0 -3
-3 -2 10 9 9 3 1 -3
-2 0 9 10 10 4 2 -2
-2 0 9 10 10 4 2 -2
-2 0 9 10 10 4 2 -2
0 1 9 10 11 4 3 -2
0 1 9 10 11 4 3 -2
1 2 9 11 12 5 4 -3
1 2 9 12 12 5 4 -3
1 3 9 12 12 5 4 -3
2 3 9 13 13 6 4 -2
2 4 9 14 13 6 4 -2
3 5 8 15 14 7 4 0
3 5 8 15 14 8 5 1
3 6 8 16 14 8 6 1
3 6 8 16 15 9 7 2
3 7 8 17 15 10 8 3
4 8 8 18 16 11 9 4
5 9 8 19 17 12 9 4
7 9 8 20 18 12 10 4
8 10 8 21 19 13 10 5
9 11 8 22 21 14 11 5
11 12 7 23 22 15 12 6
11 13 7 23 22 15 12 6
11 13 7 24 22 16 13 6
12 14 7 24 22 16 13 6
12 15 7 25 22 17 14 6
13 16 6 26 23 18 15 7
13 17 6 27 25 19 16 8
13 17 6 28 26 20 18 10
14 18 6 29 28 21 19 11
14 19 6 31 29 23 20 12
15 20 5 32 31 24 22 14
16 21 5 32 32 24 22 14
16 21 5 33 32 24 22 14
17 22 5 33 33 25 22 15
18 23 5 34 34 25 22 15
19 24 4 35 35 26 23 16
19 25 4 35 36 27 24 17
20 25 4 35 36 28 24 17
20 26 3 36 37 29 25 18
21 27 3 36 38 30 26 19
22 28 2 37 39 31 27 20
22 28 2 37 39 31 27 20
23 29 2 37 40 32 28 21
24 29 2 37 42 32 28 21
25 30 2 37 43 33 29 22
26 31 1 37 44 34 30 23
26 32 1 38 44 35 31 23
26 33 1 39 45 36 32 24
27 34 1 40 46 37 33 25
27 35 1 42 47 38 34 26
28 36 1 43 48 39 35 27
28 36 1 44 48 39 35 27
29 37 1 45 49 40 36 27
29 37 1 46 50 40 37 27
30 38 1 47 51 42 38 27
31 39 0 48 52 43 39 28
31 40 0 48 52 43 39 29
31 42 1 49 53 44 40 30
32 43 2 49 53 45 42 31
32 44 3 50 54 46 43 33
33 45 4 51 55 47 44 34
33 45 4 51 55 47 44 34
33 45 5 51 55 47 44 34
33 44 6 51 54 47 44 34
33 44 7 51 54 47 44 34
32 43 8 51 53 47 44 33
32 42 8 50 52 47 44 33
31 40 8 49 51 47 44 33
31 39 8 48 50 46 43 33
30 38 8 47 49 46 43 33
29 37 9 46 48 45 42 34
28 36 9 44 46 44 40 33
27 34 9 40 44 42 39 31
26 32 9 38 43 39 38 30
24 31 9 35 40 38 37 29
23 29 9 33 38 36 36 27
21 27 10 32 36 34 34 26
19 25 12 30 34 32 31 25
16 23 13 29 31 30 29 24
14 21 14 28 29 28 26 22
12 19 16 26 27 26 24 21
10 18 16 24 25 24 22 19
9 16 16 23 23 22 21 18
7 15 16 21 21 19 19 16
5 14 16 19 19 17 17 14
3 12 16 17 17 15 15 12
3 10 14 14 15 13 13 11
2 9 12 12 13 11 12 10
1 7 9 9 10 9 10 9
0 5 7 7 8 7 8 7
-2 3 5 4 6 5 6 6
-3 3 5 2 4 4 5 5
-4 2 4 1 3 2 3 4
-5 1 4 -2 1 0 2 3
-6 0 3 -4 -2 -2 1 1
-7 -2 2 -6 -4 -4 -2 0
-7 -2 2 -6 -4 -4 -2 0
-7 -3 2 -7 -5 -4 -2 -2
-8 -3 2 -7 -6 -4 -2 -3
-8 -4 2 -8 -7 -4 -2 -4
-9 -5 1 -9 -8 -5 -3 -5
-9 -5 1 -9 -8 -5 -4 -5
-9 -5 1 -9 -9 -6 -5 -6
-10 -5 1 -10 -9 -7 -6 -6
-10 -5 1 -10 -10 -8 -7 -7
-11 -6 0 -11 -11 -9 -8 -8
-11 -6 0 -11 -11 -9 -8 -8
-11 -6 0 -11 -11 -9 -8 -8
-11 -7 1 -11 -11 -9 -8 -7
-11 -7 1 -11 -11 -9 -8 -7
-11 -8 2 -11 -11 -10 -8 -6
-11 -8 2 -11 -11 -10 -8 -6
-11 -8 2 -11 -11 -11 -9 -7
-11 -9 2 -11 -12 -12 -9 -8
-11 -9 2 -11 -12 -13 -10 -9
-12 -10 1 -11 -13 -14 -11 -10
-12 -10 1 -11 -13 -14 -11 -10
-12 -10 1 -11 -13 -14 -11 -10
-12 -10 1 -11 -13 -14 -11 -10
-12 -10 1 -11 -13 -14 -11 -10
-13 -10 2 -11 -13 -14 -11 -10
-13 -10 2 -11 -13 -14 -11 -10
-13 -10 2 -11 -13 -14 -11 -10
-13 -9 2 -11 -13 -14 -11 -11
-13 -9 2 -11 -13 -14 -11 -11
-12 -8 2 -10 -13 -14 -10 -12
-12 -7 2 -10 -13 -13 -9 -12
-12 -6 2 -10 -12 -12 -8 -11
-12 -5 2 -10 -12 -11 -7 -10
-12 -3 2 -10 -11 -9 -5 -9
-13 -2 1 -9 -8 -6 -2 -7
-9 1 5 7 7 9 10 3
-5 2 9 22 21 22 21 13
0 4 13 36 35 36 33 22
4 6 17 52 50 50 45 31
10 8 20 66 64 65 58 43
27 8 12 73 81 87 76 61
45 9 5 80 98 108 95 79
62 9 -4 88 115 130 113 98
79 10 -12 95 132 151 132 116
97 11 -23 95 142 168 147 132
111 13 -52 55 117 155 139 131
125 16 -81 15 92 143 131 129
139 18 -110 -25 67 131 122 128
153 21 -139 -65 42 118 113 127
161 21 -163 -107 10 97 98 117
136 5 -169 -160 -52 33 48 74
110 -11 -174 -214 -114 -30 -3 30
85 -27 -179 -266 -176 -94 -54 -13
59 -43 -183 -319 -238 -157 -104 -57
35 -57 -187 -361 -290 -212 -147 -94
27 -60 -179 -337 -284 -212 -149 -100
18 -64 -171 -312 -278 -212 -150 -105
10 -67 -162 -287 -272 -211 -152 -110
2 -71 -153 -263 -266 -211 -154 -115
-7 -73 -144 -237 -255 -206 -153 -119
-7 -64 -126 -210 -223 -181 -135 -106
-7 -56 -107 -181 -190 -155 -115 -93
-7 -47 -89 -153 -157 -130 -96 -80
-7 -37 -71 -126 -124 -104 -76 -67
-7 -29 -54 -100 -96 -80 -58 -56
-8 -25 -48 -89 -85 -71 -51 -51
-9 -21 -40 -77 -74 -63 -44 -45
-10 -18 -33 -66 -63 -54 -36 -39
-11 -14 -26 -55 -53 -45 -29 -34
-12 -10 -20 -45 -43 -36 -22 -29
-12 -10 -18 -40 -39 -34 -20 -28
-12 -9 -15 -36 -36 -31 -18 -27
-13 -9 -13 -33 -32 -28 -16 -26
-13 -8 -11 -29 -29 -26 -13 -25
-14 -7 -8 -25 -26 -23 -11 -23
-14 -7 -7 -24 -25 -22 -11 -23
-15 -7 -6 -22 -24 -21 -10 -22
-16 -7 -5 -21 -23 -20 -10 -21
-17 -7 -4 -20 -22 -19 -9 -20
-18 -8 -2 -18 -20 -18 -8 -19
-18 -8 -2 -18 -20 -18 -8 -19
-18 -8 -2 -18 -20 -18 -8 -19
-18 -8 -2 -17 -20 -18 -8 -19
-18 -8 -2 -17 -20 -18 -8 -19
-17 -7 -2 -16 -19 -18 -8 -19
-17 -7 -2 -16 -19 -18 -8 -19
-17 -7 -2 -15 -19 -17 -8 -18
-17 -6 0 -15 -19 -17 -8 -18
-17 -6 0 -14 -19 -16 -8 -17
-16 -5 1 -13 -18 -15 -7 -16
-16 -5 1 -13 -18 -15 -7 -16
-16 -5 1 -12 -17 -15 -6 -16
-16 -5 2 -12 -17 -14 -6 -15
-16 -5 2 -11 -16 -14 -5 -15
-15 -6 3 -10 -15 -13 -4 -14
-15 -6 3 -10 -15 -13 -4 -14
-15 -6 3 -10 -14 -12 -3 -14
-15 -6 3 -9 -14 -12 -3 -14
-15 -6 3 -9 -13 -11 -2 -14
-15 -5 3 -8 -12 -10 0 -13
-15 -5 3 -8 -12 -10 0 -13
-15 -4 3 -7 -12 -10 0 -13
-14 -3 3 -6 -12 -10 0 -13
-14 -2 3 -5 -12 -10 0 -13
-13 0 2 -4 -12 -9 0 -13
-13 0 2 -4 -11 -9 0 -13
-13 0 3 -3 -10 -8 1 -12
-13 0 3 -2 -9 -7 1 -12
-13 0 4 0 -8 -6 2 -11
-13 -2 5 1 -7 -5 3 -10
-12 -2 5 1 -7 -5 3 -10
-11 -2 5 2 -7 -5 4 -10
-10 0 5 3 -7 -4 5 -10
-9 0 5 4 -7 -4 6 -10
-8 1 5 5 -6 -3 7 -11
-8 2 5 5 -6 -3 7 -11
-8 3 5 6 -5 -2 7 -11
-9 4 5 7 -5 -2 7 -10
-9 5 5 8 -4 0 7 -10
-10 6 5 9 -3 1 8 -9
-10 6 5 10 -2 1 8 -9
-10 6 5 11 0 2 9 -8
-9 6 5 12 1 3 9 -7
-9 6 5 13 2 4 10 -6
-8 7 5 14 3 5 11 -5
-8 7 5 15 3 5 11 -5
-8 7 5 16 4 6 12 -5
-7 8 5 17 5 7 12 -4
-7 8 5 18 6 8 13 -4
-6 9 5 19 7 9 14 -3
-6 9 5 19 7 9 14 -3
-6 10 5 20 8 10 15 -3
-6 11 5 21 8 11 15 -3
-6 12 5 22 9 12 16 -3
-5 13 6 23 10 13 17 -2
-5 14 6 23 11 13 17 -2
-5 15 6 24 12 14 18 0
-5 16 6 25 13 15 18 0
-5 17 6 26 14 16 19 1
-4 18 7 27 15 17 20 2
-4 18 7 28 15 17 20 2
-3 19 7 29 16 18 21 3
-3 19 7 30 16 19 22 4
-2 20 7 31 17 20 23 5
0 21 7 33 18 21 24 6
0 21 7 33 18 21 24 6
0 22 7 33 19 22 25 6
1 22 7 34 20 22 25 7
1 23 7 34 21 23 26 7
2 24 8 35 22 24 27 8
2 25 8 35 22 24 27 8
2 26 8 36 22 24 27 8
2 27 8 36 22 24 27 9
2 28 8 37 22 24 27 9
2 30 9 38 23 25 28 10
2 30 9 38 23 25 28 10
2 30 9 38 24 26 29 11
3 31 9 38 24 27 29 11
3 31 9 38 25 28 30 12
4 32 9 39 26 29 31 13
4 32 9 39 26 29 31 13
4 33 9 40 26 29 31 13
4 34 9 40 26 30 32 13
4 35 9 42 26 30 32 13
4 36 10 43 27 31 33 14
4 36 10 43 27 31 33 14
4 36 10 43 27 31 33 14
5 36 10 43 28 31 33 15
5 36 10 43 28 31 33 15
6 37 10 44 29 32 33 16
6 37 10 44 29 32 33 16
6 37 10 43 29 32 33 16
6 37 10 43 29 32 33 16
6 37 10 42 29 32 33 16
6 36 9 40 28 32 34 15
6 36 9 39 27 31 33 15
6 35 9 37 25 30 32 14
6 35 9 36 23 29 30 13
6 34 9 34 21 28 29 12
6 33 8 32 19 27 27 11
6 32 8 31 18 26 26 11
6 30 8 30 17 25 25 10
6 29 8 28 15 23 24 9
6 27 8 27 14 22 23 8
5 25 8 25 12 20 22 7
5 24 8 24 11 19 21 6
4 23 8 23 9 18 20 5
4 22 7 21 8 16 19 4
3 21 7 20 6 15 18 3
2 19 6 18 4 13 16 1
2 18 6 16 3 12 15 0
1 17 6 14 1 10 13 -3
0 16 5 12 -2 9 11 -4
-2 15 5 10 -4 7 9 -6
-3 14 4 8 -6 5 7 -8
-3 13 4 8 -7 4 6 -8
-3 12 4 7 -8 3 5 -8
-3 11 4 6 -9 2 4 -9
-3 10 4 5 -10 1 3 -9
-3 8 3 4 -11 0 2 -10
-3 7 3 4 -12 0 1 -10
-3 6 3 4 -13 -2 0 -10
-4 5 3 3 -14 -2 -2 -11
-4 4 3 3 -15 -3 -3 -11
-5 2 4 2 -16 -4 -4 -12
-5 2 4 2 -16 -4 -4 -12
-6 1 4 2 -16 -4 -4 -12
-6 1 4 2 -16 -4 -5 -12
-7 0 4 2 -16 -4 -5 -12
-8 -2 5 2 -16 -5 -6 -12
-8 -2 5 2 -16 -5 -6 -12
-8 -2 5 2 -16 -5 -6 -12
-7 -2 5 1 -16 -5 -6 -12
-7 -2 5 1 -16 -5 -6 -12
-6 -2 4 0 -17 -6 -7 -13
-6 -2 4 0 -17 -6 -7 -13
-7 -2 4 0 -17 -6 -7 -13
-7 0 4 0 -17 -6 -7 -13
-8 0 4 0 -17 -6 -7 -13
-9 1 4 0 -18 -7 -7 -13
-9 1 4 0 -18 -7 -7 -13
-9 1 4 0 -18 -7 -7 -13
-9 1 4 1 -18 -7 -7 -13
-9 1 4 1 -18 -7 -7 -13
-8 1 4 2 -19 -6 -7 -13
-8 1 4 2 -19 -6 -7 -13
-8 1 4 2 -19 -6 -7 -13
-8 1 4 2 -19 -6 -7 -13
-8 1 4 2 -19 -6 -7 -13
-8 1 4 1 -18 -6 -7 -13
-8 1 4 1 -18 -6 -7 -13
-8 1 4 1 -18 -6 -7 -13
-8 2 4 1 -18 -6 -7 -13
-8 2 4 1 -18 -6 -7 -13
-9 3 4 0 -19 -6 -7 -12
-9 3 4 0 -19 -6 -7 -12
-9 2 4 0 -19 -6 -7 -12
-9 2 4 0 -19 -6 -7 -12
-9 1 4 0 -19 -6 -7 -12
-9 0 3 -2 -20 -6 -7 -11
-9 0 3 -2 -20 -6 -7 -11
-9 0 3 -2 -21 -6 -7 -12
-9 1 3 -3 -21 -6 -7 -13
-9 1 3 -3 -22 -6 -7 -14
-8 2 2 -4 -23 -7 -7 -15
-8 2 2 -4 -23 -7 -7 -15
-8 2 2 -4 -23 -7 -7 -15
-8 2 2 -4 -23 -7 -7 -15
-8 2 2 -4 -23 -7 -7 -15
-9 1 2 -5 -23 -8 -8 -15
-9 1 2 -5 -23 -8 -8 -15
-9 1 2 -5 -24 -8 -8 -15
-9 1 2 -5 -24 -8 -8 -15
-9 1 2 -5 -25 -8 -8 -15
-10 0 2 -6 -26 -8 -8 -15
-10 0 2 -6 -26 -8 -8 -15
-10 0 2 -6 -26 -8 -8 -15
-10 -2 2 -7 -26 -8 -8 -16
-10 -2 2 -7 -26 -8 -8 -16
-10 -2 2 -7 -26 -8 -8 -16
-10 -3 2 -8 -27 -9 -9 -17
-10 -3 2 -8 -27 -9 -9 -17
-10 -3 2 -8 -28 -10 -9 -17
-10 -3 2 -8 -28 -10 -9 -17
-10 -3 2 -8 -28 -10 -9 -17
-9 -3 1 -9 -29 -11 -8 -17
-9 -3 1 -9 -29 -11 -8 -17
-9 -3 1 -10 -30 -11 -9 -17
-9 -3 1 -10 -30 -11 -9 -17
-9 -3 1 -10 -30 -11 -9 -17
-10 -4 0 -11 -31 -12 -10 -17
-10 -4 0 -11 -31 -12 -10 -17
-10 -4 0 -11 -31 -12 -10 -16
-10 -4 0 -11 -31 -12 -10 -16
-10 -4 0 -11 -31 -12 -10 -16
-9 -3 0 -11 -32 -12 -10 -15
-9 -3 0 -11 -32 -12 -10 -15
-9 -4 0 -11 -32 -12 -10 -15
-9 -4 0 -11 -32 -12 -10 -15
-9 -4 0 -11 -32 -12 -10 -15
-10 -5 0 -11 -33 -12 -11 -16
-10 -5 0 -11 -33 -12 -11 -16
-10 -5 1 -11 -33 -12 -11 -15
-10 -5 1 -11 -33 -12 -11 -15
-10 -5 1 -11 -33 -12 -11 -15
-11 -4 2 -11 -34 -12 -11 -14
-11 -4 1 -12 -34 -12 -12 -14
-10 -4 1 -12 -35 -13 -12 -15
-10 -4 0 -13 -35 -13 -13 -15
-10 -4 0 -13 -35 -13 -13 -15
-9 -5 -2 -14 -36 -14 -14 -16
-10 -5 -2 -14 -36 -14 -14 -16
-10 -5 -2 -14 -36 -14 -14 -16
-11 -5 -2 -14 -36 -14 -14 -16
-11 -5 -2 -14 -36 -14 -14 -16
-12 -6 0 -13 -36 -14 -13 -16
-12 -6 0 -13 -36 -14 -13 -16
-12 -6 0 -13 -36 -14 -13 -15
-12 -6 0 -13 -36 -14 -13 -15
-12 -6 0 -13 -36 -14 -13 -15
-12 -7 0 -12 -36 -14 -12 -14
-12 -7 0 -12 -36 -14 -12 -14
-12 -7 0 -12 -36 -14 -12 -14
-12 -7 0 -12 -36 -14 -12 -14
-12 -7 0 -12 -36 -14 -12 -14
-12 -7 -2 -12 -36 -13 -11 -13
-12 -7 -2 -12 -36 -13 -11 -13
-12 -7 -2 -12 -36 -13 -11 -13
-12 -7 -2 -12 -36 -13 -11 -13
-12 -7 -2 -12 -36 -13 -11 -13
-11 -8 0 -13 -37 -14 -12 -12
-11 -8 0 -13 -37 -14 -12 -12
-12 -8 0 -13 -37 -14 -12 -11
-12 -8 0 -13 -37 -14 -12 -11
-12 -8 0 -13 -37 -14 -12 -11
-13 -8 0 -12 -37 -13 -12 -10
-13 -8 0 -12 -37 -13 -12 -9
-13 -9 0 -12 -37 -13 -12 -9
-13 -9 0 -12 -37 -13 -12 -8
-13 -9 0 -12 -37 -13 -12 -8
-13 -10 0 -13 -37 -14 -11 -7
-12 -10 0 -13 -37 -14 -11 -7
-12 -9 0 -13 -38 -14 -11 -7
-11 -9 0 -13 -38 -14 -11 -7
-11 -9 0 -13 -38 -14 -11 -7
-10 -8 0 -14 -39 -15 -12 -6
-10 -8 0 -14 -39 -15 -12 -6
-10 -8 0 -14 -38 -15 -12 -6
-10 -8 0 -14 -38 -15 -12 -6
-10 -8 0 -14 -38 -15 -12 -6
-11 -8 -2 -13 -37 -15 -13 -5
-11 -8 -2 -13 -37 -15 -13 -5
-11 -8 -2 -13 -37 -14 -12 -5
-11 -8 -2 -13 -37 -14 -12 -5
-11 -8 -2 -13 -37 -14 -12 -5
-12 -8 0 -12 -37 -13 -11 -5
-12 -8 0 -12 -37 -13 -11 -5
-12 -8 0 -12 -37 -13 -11 -5
-12 -8 0 -12 -37 -13 -11 -5
-12 -8 0 -12 -37 -13 -11 -5
-12 -8 0 -12 -37 -14 -11 -4
-12 -8 0 -12 -37 -14 -11 -4
-12 -8 0 -12 -37 -14 -12 -4
-12 -8 0 -12 -37 -14 -12 -4
-12 -8 0 -12 -37 -14 -12 -4
-12 -8 0 -12 -38 -15 -13 -4
-12 -8 0 -12 -38 -15 -13 -4
-12 -8 0 -12 -38 -15 -13 -4
-12 -8 0 -12 -38 -15 -13 -4
-12 -8 0 -12 -38 -15 -13 -4
-13 -8 -2 -12 -38 -14 -14 -3
-13 -8 -2 -12 -38 -14 -14 -3
-13 -8 -2 -12 -38 -14 -13 -2
-13 -8 -2 -12 -38 -14 -13 -2
-13 -8 -2 -12 -38 -14 -13 -2
-12 -9 0 -11 -38 -13 -12 0
-12 -9 0 -11 -38 -13 -12 0
-13 -9 0 -12 -38 -13 -13 0
-13 -9 0 -12 -38 -13 -13 0
-13 -9 0 -12 -38 -13 -13 0
-14 -9 0 -13 -39 -14 -14 0
-14 -9 0 -13 -39 -14 -14 0
-13 -9 0 -13 -39 -14 -14 0
-13 -9 0 -13 -39 -14 -14 0
-13 -9 0 -13 -39 -14 -14 0
-12 -10 0 -12 -39 -14 -13 1
-12 -10 0 -12 -39 -14 -13 1
-12 -10 0 -12 -39 -14 -13 1
-12 -10 0 -12 -39 -14 -13 1
-12 -10 0 -12 -39 -14 -13 1
-12 -9 -2 -11 -38 -14 -14 2
-12 -9 -2 -11 -38 -14 -14 2
-12 -9 -2 -11 -38 -13 -13 3
-12 -9 -2 -11 -38 -13 -13 3
-12 -9 -2 -11 -38 -13 -13 3
-12 -9 0 -12 -37 -12 -12 4
-12 -9 0 -12 -37 -12 -12 4
-12 -9 0 -12 -38 -12 -12 4
-12 -9 0 -12 -38 -12 -12 4
-12 -9 0 -12 -38 -12 -12 4
-12 -9 0 -11 -39 -11 -11 4
-12 -9 0 -11 -39 -11 -11 4
-12 -9 0 -11 -38 -11 -11 4
-12 -9 0 -11 -38 -11 -11 4
-12 -9 0 -11 -38 -11 -11 4
-13 -8 0 -11 -36 -12 -10 3
-13 -8 0 -11 -35 -12 -10 3
-12 -7 -2 -11 -34 -12 -10 3
-12 -7 -2 -11 -33 -12 -10 3
-12 -7 -2 -11 -32 -12 -10 3
-11 -6 -3 -12 -30 -12 -11 2
-11 -6 -3 -12 -28 -12 -11 2
-12 -6 -3 -12 -27 -12 -11 2
-12 -6 -3 -12 -25 -12 -11 2
-12 -6 -3 -12 -24 -12 -11 2
-13 -7 -2 -12 -22 -13 -12 2
-13 -7 -2 -12 -20 -13 -12 3
-13 -7 -2 -12 -18 -12 -12 3
-13 -7 -2 -12 -17 -12 -12 4
-13 -7 -2 -12 -15 -12 -12 4
-12 -6 -2 -12 -14 -11 -11 5
-12 -6 -2 -12 -13 -11 -11 5
-12 -7 -2 -12 -12 -11 -10 5
-12 -7 -2 -12 -11 -11 -10 5
-12 -7 -2 -12 -11 -11 -10 5
-12 -8 0 -12 -10 -11 -9 5
-12 -8 0 -12 -10 -11 -10 6
-12 -9 0 -12 -10 -11 -10 6
-12 -9 0 -12 -10 -11 -11 7
-12 -9 0 -12 -10 -11 -11 7
-11 -10 1 -11 -11 -11 -12 8
-11 -10 1 -11 -11 -11 -12 8
-11 -9 0 -11 -11 -11 -12 8
-11 -9 0 -11 -11 -11 -12 8
-11 -9 0 -11 -11 -11 -12 8
-10 -8 -2 -12 -10 -12 -12 7
-10 -8 -2 -12 -10 -12 -13 7
-10 -8 0 -12 -11 -13 -14 6
-10 -8 0 -12 -11 -13 -15 6
-10 -8 0 -12 -11 -13 -15 6
-11 -9 1 -11 -12 -14 -16 5
-11 -9 1 -11 -12 -14 -15 6
-11 -10 1 -11 -12 -13 -14 7
-11 -10 1 -11 -12 -13 -13 8
-11 -10 1 -11 -12 -13 -13 8
-11 -11 0 -11 -13 -12 -12 9
-11 -11 0 -11 -13 -12 -12 9
-11 -11 1 -11 -13 -12 -12 9
-11 -11 1 -11 -13 -12 -12 9
-11 -11 1 -11 -13 -12 -12 9
-10 -12 2 -10 -12 -13 -12 9
-10 -12 2 -10 -12 -13 -12 9
-11 -12 2 -10 -12 -12 -11 9
-11 -12 2 -10 -12 -12 -11 9
-11 -12 2 -10 -12 -12 -11 9
-12 -11 2 -9 -13 -11 -10 9
-12 -11 2 -9 -13 -11 -10 9
-12 -11 2 -9 -12 -11 -10 9
-12 -11 2 -9 -12 -11 -10 9
-12 -11 2 -9 -12 -11 -10 9
-12 -10 2 -8 -11 -11 -10 9
-12 -10 2 -8 -11 -11 -10 9
-12 -9 2 -8 -11 -11 -10 9
-12 -9 2 -8 -11 -11 -10 9
-12 -9 2 -8 -11 -11 -10 9
-11 -7 3 -8 -11 -11 -10 9
-11 -6 3 -7 -10 -10 -9 9
-11 -5 4 -6 -9 -9 -8 10
-11 -4 4 -5 -8 -8 -7 10
-11 -3 4 -4 -8 -7 -7 10
-10 -2 5 -3 -7 -6 -6 11
-10 -2 5 -3 -7 -6 -6 11
-9 -2 6 -2 -7 -6 -6 11
-9 -2 6 -2 -7 -6 -6 11
-9 -2 6 -2 -7 -6 -6 11
-8 0 7 0 -6 -6 -5 11
-8 1 7 1 -5 -5 -4 12
-8 1 7 2 -4 -4 -3 13
-8 2 7 3 -3 -3 -2 14
-8 2 7 3 -2 -2 0 14
-6 4 7 4 0 0 1 15
-5 5 5 4 0 0 1 15
-4 6 3 3 -2 0 1 15
-3 8 2 3 -2 0 1 15
-2 9 0 3 -2 0 1 15
0 10 -2 2 -3 1 2 14
0 10 -2 2 -3 0 2 14
-2 10 -3 2 -3 0 2 14
-2 10 -3 2 -3 -2 2 14
-2 10 -3 2 -3 -2 2 14
-3 10 -4 2 -3 -3 1 14
-2 9 -4 2 -3 -3 2 14
0 8 -4 2 -3 -2 2 14
1 7 -4 2 -3 -2 3 14
2 7 -4 2 -3 -2 3 14
3 6 -5 3 -2 0 4 15
3 6 -5 3 -2 0 4 15
3 5 -5 4 -2 1 5 16
3 5 -5 4 -2 1 5 16
3 5 -5 4 -2 1 5 16
3 3 -4 4 -2 2 5 16
2 1 -4 3 -3 0 3 13
1 -2 -4 2 -5 -2 1 11
-2 -3 -4 0 -7 -3 0 8
-3 -5 -4 -2 -8 -4 -3 6
-5 -6 -4 -3 -9 -5 -4 5
-6 -7 -4 -3 -10 -6 -5 4
-8 -8 -3 -3 -10 -7 -6 4
-10 -9 -3 -3 -11 -8 -7 3
-11 -10 -3 -3 -11 -8 -7 3
-12 -11 -2 -4 -12 -9 -8 2
-12 -12 -2 -4 -12 -9 -8 2
-12 -12 -2 -4 -12 -10 -8 1
-12 -13 -2 -4 -12 -10 -8 1
-12 -13 -2 -4 -12 -10 -8 1
-12 -14 -3 -5 -13 -11 -9 0
-12 -14 -3 -5 -14 -11 -9 -2
-12 -14 -3 -5 -14 -11 -10 -3
-12 -14 -3 -5 -15 -11 -10 -4
-12 -14 -3 -5 -15 -11 -10 -5
-12 -14 -3 -6 -16 -12 -11 -6
-12 -14 -3 -6 -16 -12 -11 -6
-12 -14 -2 -6 -16 -12 -11 -6
-12 -14 -2 -6 -16 -12 -11 -6
-12 -14 -2 -6 -16 -12 -11 -6
-12 -14 0 -5 -16 -12 -10 -7
-12 -14 0 -5 -16 -12 -10 -7
-12 -14 0 -5 -16 -12 -9 -7
-12 -14 0 -5 -16 -12 -9 -7
-12 -14 0 -5 -16 -12 -9 -7
-12 -13 -2 -5 -16 -11 -8 -7
-12 -13 -2 -5 -16 -11 -8 -7
-12 -13 -2 -5 -16 -11 -8 -7
-12 -13 -2 -5 -16 -11 -8 -7
-12 -13 -2 -5 -16 -11 -8 -7
-12 -13 2 2 -11 -9 -6 -6
-11 -12 5 9 -4 -4 -2 -2
-10 -11 8 17 3 2 3 2
-8 -9 12 24 9 7 7 5
-7 -8 15 32 15 12 12 9
2 -5 18 46 30 28 25 20
11 -2 20 61 49 47 40 34
21 2 23 76 66 65 57 49
30 6 25 92 84 84 73 63
39 9 28 107 102 103 89 77
56 17 20 111 116 122 108 97
73 27 9 112 129 143 129 118
91 37 -4 113 142 163 149 140
108 48 -15 114 155 184 169 161
126 57 -27 114 169 204 189 183
130 60 -48 87 153 199 186 184
129 61 -70 49 129 185 175 178
128 62 -93 11 104 171 163 172
127 63 -115 -27 80 156 153 165
127 64 -139 -65 56 142 142 159
107 48 -147 -109 5 88 97 119
81 24 -152 -155 -55 23 44 70
57 2 -156 -201 -113 -41 -11 21
31 -22 -161 -247 -173 -107 -65 -28
7 -45 -165 -293 -231 -172 -119 -77
-3 -54 -158 -285 -234 -181 -129 -89
-7 -58 -146 -262 -220 -172 -124 -89
-11 -62 -134 -238 -204 -162 -120 -90
-15 -66 -121 -214 -189 -153 -116 -90
-20 -70 -109 -190 -175 -145 -112 -90
-20 -67 -97 -169 -158 -133 -105 -86
-18 -61 -86 -148 -141 -120 -96 -79
-17 -55 -73 -129 -124 -108 -87 -72
-15 -50 -61 -108 -108 -96 -77 -66
-13 -44 -49 -88 -91 -83 -68 -59
-12 -38 -41 -75 -80 -75 -61 -54
-12 -34 -35 -66 -71 -68 -54 -49
-12 -30 -29 -57 -63 -61 -48 -45
-12 -26 -24 -48 -54 -53 -40 -39
-12 -21 -18 -38 -46 -46 -34 -35
-13 -20 -14 -32 -39 -41 -30 -32
-13 -19 -11 -27 -35 -38 -28 -31
-13 -18 -8 -23 -31 -34 -25 -30
-13 -17 -5 -18 -27 -31 -22 -28
-13 -16 -2 -14 -23 -27 -19 -27
-12 -15 0 -11 -20 -25 -18 -26
-12 -15 1 -10 -19 -24 -16 -25
-12 -15 2 -9 -18 -22 -15 -25
-12 -15 3 -7 -16 -20 -14 -24
-12 -15 4 -6 -15 -19 -13 -24
-12 -14 5 -5 -14 -18 -12 -23
-11 -14 5 -4 -14 -18 -12 -23
-11 -14 6 -3 -14 -18 -13 -23
-10 -14 6 -2 -14 -18 -13 -23
-10 -14 6 -2 -14 -18 -13 -23
-9 -15 7 0 -14 -19 -14 -23
-9 -14 7 2 -13 -18 -14 -23
-9 -14 8 3 -12 -18 -13 -22
-9 -13 8 4 -12 -17 -13 -22
-9 -13 8 5 -11 -17 -13 -22
-10 -12 9 6 -10 -16 -12 -21
-10 -12 10 6 -9 -16 -12 -21
-10 -12 10 6 -9 -15 -11 -21
-10 -12 11 6 -8 -15 -11 -21
-10 -12 11 6 -8 -15 -11 -21
-11 -12 12 7 -7 -14 -10 -20
-11 -12 12 8 -6 -14 -10 -20
-10 -12 12 8 -6 -14 -9 -20
-10 -12 12 9 -5 -14 -9 -20
-10 -12 12 9 -5 -14 -9 -20
-9 -11 12 10 -4 -13 -8 -20
-9 -11 12 10 -4 -13 -8 -21
-9 -11 12 10 -4 -13 -9 -22
-9 -11 12 10 -4 -13 -9 -22
-9 -11 12 10 -4 -13 -9 -23
-8 -10 12 10 -5 -13 -10 -24
-8 -10 12 11 -4 -13 -9 -23
-7 -10 12 11 -4 -13 -8 -22
-7 -10 12 12 -3 -13 -8 -21
-7 -10 12 12 -3 -13 -7 -20
-6 -10 13 13 -2 -12 -6 -19
-6 -10 13 13 -2 -12 -6 -19
-6 -9 13 13 -2 -12 -6 -19
-6 -9 13 13 -2 -12 -6 -19
-6 -9 13 13 -2 -12 -6 -19
-5 -8 14 13 -2 -12 -5 -18
-5 -8 14 13 -2 -11 -5 -18
-4 -8 14 14 0 -11 -4 -18
-4 -8 14 14 0 -10 -4 -18
-4 -8 14 14 0 -10 -4 -18
-3 -7 13 15 1 -9 -3 -17
-3 -6 13 16 2 -9 -3 -17
-3 -6 13 16 2 -9 -3 -17
-3 -5 13 17 3 -9 -3 -17
-3 -5 13 17 3 -9 -3 -17
-4 -4 14 18 4 -10 -3 -16
-2 -4 14 18 5 -9 -3 -16
0 -3 14 19 5 -8 -2 -17
1 -3 14 19 6 -8 -2 -17
2 -3 14 19 6 -7 -2 -17
3 -2 14 20 7 -6 0 -18
3 -2 14 21 8 -5 0 -17
3 -2 14 22 9 -5 1 -16
3 -2 14 22 10 -4 1 -15
3 -2 14 23 11 -4 1 -14
3 -2 15 24 12 -3 2 -13
4 0 15 25 13 -2 3 -13
4 0 15 26 13 -2 4 -12
5 1 15 26 14 0 5 -12
5 1 15 27 14 0 6 -12
6 2 14 28 15 1 7 -11
7 4 14 28 15 1 7 -11
8 5 14 28 15 1 7 -11
8 6 14 28 15 1 7 -11
9 7 14 28 15 1 7 -11
10 8 14 27 15 2 8 -11
10 8 14 29 16 3 8 -11
10 8 14 30 17 4 8 -11
10 8 14 31 18 4 8 -11
10 8 14 32 19 5 8 -11
11 9 13 33 20 6 7 -12
12 9 13 33 21 6 8 -10
12 9 14 34 21 6 8 -9
13 9 14 34 22 6 9 -8
13 9 14 34 22 6 9 -7
14 10 15 35 23 6 10 -6
14 11 15 35 23 7 11 -6
14 12 15 36 24 8 12 -6
14 13 15 36 24 9 12 -6
14 14 15 36 24 10 13 -6
15 15 14 37 25 11 14 -5
15 15 14 37 26 11 14 -5
16 15 13 38 26 11 14 -5
16 15 13 38 27 11 14 -5
16 15 13 38 27 11 14 -5
17 15 12 39 28 12 13 -6
17 15 12 39 28 12 14 -6
18 14 12 39 28 12 15 -6
18 14 12 39 28 12 15 -6
18 14 12 39 28 12 16 -6
19 13 11 38 28 13 17 -5
19 14 11 38 28 13 16 -5
19 15 11 38 28 13 16 -5
19 15 11 38 28 13 15 -5
19 16 11 38 28 13 15 -5
18 17 10 38 27 12 14 -5
18 17 10 38 27 12 14 -4
18 17 10 38 27 13 15 -4
18 17 10 38 27 13 15 -3
18 17 10 38 27 13 15 -3
19 17 10 38 28 14 16 -2
19 17 10 38 28 14 16 -2
19 17 10 37 28 13 16 -2
19 17 10 37 28 13 16 -2
19 17 10 37 28 13 16 -2
19 18 9 36 27 12 17 -2
19 18 9 35 27 12 17 -2
18 17 8 35 27 12 17 -2
18 17 8 34 27 12 17 -2
18 17 8 34 27 12 17 -2
17 16 7 33 26 12 17 -3
17 16 7 32 26 12 17 -3
17 16 7 31 25 12 16 -3
17 16 7 31 25 12 16 -3
17 16 7 30 25 12 16 -3
18 15 6 29 24 13 15 -4
18 14 6 29 24 13 15 -4
17 12 6 28 23 12 14 -4
16 11 6 27 22 11 13 -4
16 10 6 27 22 11 13 -4
15 9 7 26 21 10 12 -5
15 9 7 25 21 10 12 -5
15 9 6 24 20 11 13 -6
15 9 6 24 20 11 14 -6
15 9 6 23 20 11 14 -6
15 8 5 22 19 12 15 -7
15 8 5 22 19 12 15 -7
14 8 5 21 18 11 14 -8
13 8 5 21 18 11 14 -9
13 8 5 21 18 11 14 -9
12 8 6 20 17 10 12 -10
11 6 6 20 16 8 10 -11
10 5 6 19 15 7 8 -13
9 3 6 18 14 5 6 -14
8 2 6 18 13 4 4 -15
7 1 6 17 12 3 3 -16
7 1 6 17 12 3 3 -16
7 0 6 16 11 3 3 -16
7 -2 6 15 10 3 3 -16
7 -2 6 15 10 3 3 -16
7 -3 6 14 9 2 3 -15
7 -3 6 14 8 1 3 -16
6 -2 6 13 7 0 2 -17
6 -2 6 13 7 0 2 -17
6 -2 6 13 6 -2 2 -18
5 0 5 12 5 -3 1 -19
5 0 5 12 5 -3 0 -19
4 0 5 12 5 -3 -2 -20
3 0 5 12 5 -3 -2 -20
3 0 5 12 5 -3 -3 -20
2 0 5 12 5 -3 -4 -21
3 0 5 12 5 -4 -4 -21
4 -2 5 11 4 -5 -5 -21
4 -2 5 11 4 -6 -5 -21
5 -2 5 11 4 -7 -5 -21
6 -3 5 10 3 -8 -6 -22
6 -3 5 10 3 -8 -6 -22
5 -3 6 10 4 -7 -6 -21
4 -3 7 10 4 -7 -6 -21
4 -3 7 10 4 -7 -6 -21
3 -3 8 11 5 -6 -5 -20
3 -3 8 11 5 -6 -4 -20
3 -3 8 11 6 -5 -3 -19
3 -3 8 11 7 -4 -3 -18
3 -3 8 11 7 -4 -2 -18
2 -4 8 11 8 -3 0 -17
2 -4 8 11 8 -3 0 -18
2 -3 8 12 8 -3 -2 -19
2 -3 8 12 8 -3 -2 -19
2 -3 8 12 8 -3 -2 -20
1 -2 8 13 7 -4 -3 -21
1 -2 8 13 7 -4 -3 -21
1 -2 7 12 7 -4 -4 -21
1 -2 7 12 7 -4 -4 -21
1 -2 7 12 7 -4 -4 -21
2 -2 6 11 6 -3 -5 -20
2 -2 6 11 6 -3 -4 -20
1 0 7 11 7 -2 -3 -20
1 1 7 11 7 0 -3 -20
1 1 7 11 7 0 -2 -20
0 2 8 11 8 1 0 -20
0 2 8 11 8 1 0 -20
0 2 8 11 7 1 -2 -21
0 2 8 11 7 1 -2 -22
0 2 8 11 7 1 -2 -22
-2 1 8 11 6 0 -3 -23
-2 1 8 11 6 0 -3 -23
-2 1 8 11 6 0 -2 -22
-2 1 8 11 6 0 0 -21
-2 1 8 11 6 0 0 -21
0 0 9 10 7 1 1 -20
-2 0 9 9 7 1 1 -20
-3 0 8 8 7 1 1 -20
-3 0 8 8 7 1 1 -20
-4 0 8 7 7 1 1 -20
-5 1 7 6 6 2 2 -20
-5 1 7 6 5 1 1 -20
-4 1 7 6 4 -2 -2 -21
-4 1 7 6 4 -3 -3 -21
-4 1 7 6 3 -4 -4 -21
-3 1 6 5 2 -5 -5 -22
-3 1 6 5 2 -5 -5 -22
-3 0 7 4 2 -4 -5 -23
-3 0 7 4 2 -3 -5 -23
-3 0 7 4 2 -3 -5 -23
-4 -2 8 3 3 -2 -4 -24
-4 -2 8 2 3 -2 -4 -24
-4 -2 7 1 2 -2 -4 -24
-4 -2 6 1 2 -2 -4 -24
-4 -2 6 0 2 -2 -4 -24
-5 0 5 -2 1 -3 -4 -25
-5 0 5 -2 1 -4 -5 -25
-5 0 5 -2 0 -5 -7 -24
-5 0 5 -2 0 -5 -8 -24
-5 0 5 -2 0 -6 -9 -24
-5 -2 5 -2 -2 -7 -10 -23
-5 -2 5 -2 -2 -7 -10 -23
-5 -3 5 -3 -3 -7 -10 -23
-5 -3 5 -3 -3 -7 -10 -23
-5 -3 5 -3 -3 -7 -10 -23
-4 -4 6 -4 -4 -6 -11 -22
-4 -4 6 -4 -4 -6 -10 -22
-4 -4 5 -5 -4 -5 -9 -22
-4 -4 5 -5 -4 -5 -8 -22
-4 -4 5 -5 -4 -5 -7 -22
-5 -3 4 -6 -4 -4 -6 -22
-5 -3 4 -6 -4 -4 -6 -22
-5 -3 4 -6 -5 -5 -7 -22
-5 -3 4 -6 -5 -5 -8 -22
-5 -3 4 -6 -5 -5 -8 -22
-5 -2 4 -7 -6 -6 -9 -23
-5 -2 4 -7 -6 -6 -9 -23
-5 -2 4 -6 -6 -7 -9 -23
-5 -2 4 -6 -6 -7 -9 -23
-5 -2 4 -6 -6 -7 -9 -23
-5 -3 5 -5 -6 -8 -10 -22
-6 -3 5 -5 -6 -7 -9 -22
-7 -3 5 -5 -6 -6 -8 -22
-8 -3 5 -5 -6 -6 -8 -22
-9 -3 5 -5 -6 -5 -7 -22
-10 -2 4 -5 -5 -4 -6 -22
-9 -2 4 -5 -6 -6 -8 -22
-8 -2 4 -6 -7 -7 -10 -22
-7 -2 4 -6 -8 -8 -11 -22
-6 -2 4 -6 -9 -10 -13 -22
-5 -3 3 -7 -10 -11 -14 -22
-6 -3 4 -7 -10 -9 -12 -22
-7 -3 5 -6 -9 -8 -11 -21
-8 -3 5 -5 -9 -7 -10 -20
-9 -3 6 -5 -9 -5 -8 -20
-10 -3 7 -4 -8 -4 -7 -19
-9 0 7 -4 -8 -4 -7 -19
-7 2 7 -4 -7 -5 -7 -19
-6 3 7 -4 -6 -5 -7 -19
-5 5 7 -4 -6 -5 -7 -19
-4 6 8 -3 -5 -6 -8 -20
-4 6 9 -2 -4 -4 -7 -19
-4 6 10 0 -2 -2 -5 -17
-4 6 11 1 0 1 -4 -16
-4 6 12 2 1 3 -3 -15
-5 6 13 3 2 4 -2 -14
-5 7 13 3 2 4 -2 -15
-5 9 13 3 2 3 -3 -16
-5 10 13 3 2 2 -3 -16
-5 11 13 3 2 2 -3 -17
-4 12 12 2 2 1 -4 -18
-3 12 10 2 2 1 -4 -17
-2 13 8 2 2 1 -3 -16
0 13 7 2 2 1 -2 -16
1 13 5 2 2 1 -2 -15
2 14 4 1 3 2 0 -14
2 14 4 1 3 2 0 -14
2 15 3 1 3 2 1 -13
2 16 3 1 3 2 2 -12
2 16 3 1 3 2 2 -12
1 17 2 0 4 3 3 -11
1 17 2 0 4 3 3 -11
1 16 1 -2 4 3 3 -11
1 16 1 -2 4 3 3 -11
1 16 1 -2 4 3 3 -11
2 15 0 -3 3 4 3 -11
4 15 0 -3 3 4 3 -10
5 14 0 -2 4 4 3 -9
6 14 0 -2 4 4 3 -9
8 14 0 -2 4 4 3 -8
8 12 1 0 5 5 4 -7
6 10 1 -2 3 4 3 -8
4 8 2 -3 2 2 1 -9
2 6 2 -3 1 1 0 -10
0 4 2 -4 -2 0 -2 -11
-2 3 3 -5 -3 -2 -3 -12
-3 2 3 -6 -4 -2 -4 -12
-4 0 3 -7 -5 -3 -5 -13
-5 -2 3 -8 -6 -4 -5 -14
-6 -3 3 -9 -7 -4 -6 -14
-7 -4 2 -10 -8 -5 -7 -15
-7 -5 2 -10 -8 -5 -7 -14
-8 -6 2 -10 -8 -6 -7 -12
-9 -6 2 -10 -8 -6 -7 -11
-9 -7 2 -10 -8 -6 -7 -10
-10 -8 3 -11 -7 -7 -8 -9
-10 -8 3 -11 -8 -8 -8 -9
-10 -8 4 -11 -9 -9 -9 -10
-10 -8 4 -11 -9 -10 -10 -11
-10 -8 4 -11 -10 -11 -10 -11
-10 -8 5 -12 -11 -12 -11 -12
-10 -8 5 -12 -11 -12 -11 -12
-10 -9 5 -12 -10 -11 -10 -11
-10 -9 5 -12 -9 -10 -9 -10
-10 -9 5 -12 -9 -10 -9 -10
-9 -10 4 -12 -8 -9 -8 -9
-9 -10 4 -12 -8 -9 -8 -9
-10 -10 4 -12 -8 -10 -8 -9
-10 -10 4 -12 -8 -11 -8 -9
-10 -10 4 -12 -8 -11 -8 -9
-11 -9 5 -11 -9 -12 -9 -8
-11 -9 5 -11 -9 -12 -9 -8
-11 -9 5 -11 -9 -11 -8 -8
-11 -9 5 -10 -8 -10 -7 -7
-11 -9 5 -10 -8 -10 -7 -7
-11 -10 5 -9 -7 -9 -6 -6
-11 -10 5 -9 -7 -9 -6 -6
-11 -10 5 -9 -7 -9 -6 -5
-10 -10 5 -9 -6 -9 -6 -4
-10 -10 5 -9 -6 -9 -6 -4
-9 -11 6 -6 -2 -7 -5 0
-7 -9 9 5 7 2 2 5
-5 -8 12 14 15 9 7 9
-3 -6 16 23 23 16 13 14
0 -4 19 33 31 24 19 19
7 0 21 46 46 38 31 30
17 4 22 61 65 61 51 50
27 8 23 76 85 84 71 68
38 12 25 92 104 106 91 87
49 16 26 107 125 129 111 105
61 24 22 115 141 151 132 127
74 37 12 113 153 174 154 150
89 50 1 111 167 196 177 174
102 62 -10 109 179 218 199 197
116 74 -21 107 192 240 222 221
118 80 -34 84 181 234 218 221
108 77 -52 38 141 195 184 195
97 74 -68 -7 102 156 150 170
86 71 -86 -52 62 117 115 143
74 68 -102 -97 23 77 81 117
60 56 -112 -138 -23 31 43 85
43 32 -115 -173 -75 -23 -2 44
25 9 -118 -207 -128 -78 -46 3
8 -15 -121 -242 -180 -133 -91 -37
-10 -38 -124 -278 -232 -187 -135 -78
-20 -52 -123 -285 -252 -211 -155 -99
-21 -55 -116 -261 -232 -195 -147 -96
-22 -57 -108 -237 -213 -181 -139 -93
-23 -60 -101 -213 -193 -166 -131 -90
-24 -63 -93 -188 -174 -151 -123 -87
-24 -62 -85 -165 -155 -137 -113 -81
-22 -56 -73 -146 -138 -123 -103 -72
-19 -49 -63 -127 -121 -109 -92 -64
-16 -43 -52 -107 -104 -96 -80 -55
-14 -35 -41 -88 -87 -82 -69 -47
-12 -30 -33 -72 -73 -71 -60 -39
-12 -27 -27 -63 -64 -63 -53 -34
-12 -24 -22 -54 -55 -55 -45 -28
-12 -20 -16 -45 -46 -47 -37 -23
-12 -17 -11 -35 -36 -38 -29 -17
-12 -15 -6 -29 -30 -33 -25 -14
-12 -14 -4 -25 -27 -31 -24 -13
-12 -14 -2 -21 -25 -29 -23 -12
-12 -13 1 -17 -22 -27 -21 -11
-12 -12 3 -13 -19 -25 -20 -10
-12 -11 5 -10 -17 -24 -19 -9
-12 -11 5 -9 -16 -23 -18 -9
-12 -11 6 -8 -15 -22 -18 -8
-11 -11 7 -6 -13 -20 -17 -7
-11 -11 7 -5 -12 -19 -16 -7
-10 -12 8 -4 -11 -18 -15 -6
-10 -12 8 -3 -11 -18 -15 -6
-10 -11 8 -2 -11 -18 -15 -5
-10 -10 8 0 -10 -18 -14 -4
-10 -10 8 1 -10 -18 -14 -4
-10 -9 8 2 -9 -17 -13 -3
-10 -9 9 3 -8 -17 -13 -2
-10 -10 9 3 -8 -16 -13 0
-9 -11 10 4 -7 -15 -12 2
-9 -11 11 5 -6 -15 -12 3
-8 -12 12 6 -5 -14 -11 4
-8 -11 12 6 -5 -13 -9 4
-8 -11 12 6 -5 -12 -8 4
-8 -10 12 6 -4 -11 -7 4
-8 -9 12 6 -4 -10 -5 4
-8 -8 11 6 -3 -9 -4 5
-8 -8 11 7 -3 -9 -5 5
-8 -9 11 7 -3 -9 -5 6
-9 -10 12 8 -3 -10 -6 7
-9 -10 12 9 -3 -10 -7 7
-10 -11 13 10 -4 -11 -8 8
-10 -11 13 10 -4 -11 -8 8
-10 -11 13 10 -4 -11 -7 8
-9 -10 13 10 -3 -10 -6 8
-9 -10 13 10 -3 -10 -6 8
-8 -9 12 11 -2 -9 -5 8
-8 -9 12 11 -2 -9 -5 8
-8 -8 12 11 -2 -9 -5 8
-8 -7 12 12 -2 -9 -6 8
-8 -7 12 12 -2 -9 -6 8
-7 -6 11 13 0 -8 -7 8
-7 -6 11 13 0 -8 -7 8
-7 -6 11 14 0 -8 -7 8
-7 -7 11 15 0 -8 -7 8
-7 -7 11 15 0 -8 -7 8
-7 -8 12 16 0 -8 -6 8
-7 -8 12 16 0 -8 -5 8
-6 -8 12 16 0 -8 -5 8
-5 -7 12 16 1 -8 -4 9
-5 -7 12 16 1 -8 -3 9
-4 -6 11 17 2 -7 -2 10
-4 -6 11 18 3 -6 0 11
-4 -6 11 19 5 -5 1 12
-3 -6 11 20 6 -3 3 13
-3 -6 11 21 8 -2 4 14
-2 -6 11 22 9 0 5 15
-2 -6 11 22 9 0 5 15
-2 -5 11 22 9 0 5 15
-2 -4 11 22 9 0 5 15
-2 -4 11 22 9 0 5 15
-2 -3 11 23 10 0 5 16
-2 -3 11 24 10 0 5 17
-2 -2 11 25 11 0 5 17
0 0 11 26 12 1 5 18
0 0 11 27 12 1 5 19
1 1 11 28 13 2 5 20
2 1 11 29 13 2 5 21
2 1 11 29 13 2 6 21
3 1 11 30 14 3 7 22
4 1 11 31 14 3 7 23
5 1 11 32 15 4 8 24
5 2 11 33 16 5 9 24
5 3 11 34 18 6 10 24
6 4 11 35 19 7 11 24
6 5 11 36 21 8 12 24
7 6 10 37 22 9 13 25
7 6 10 37 22 9 13 25
7 6 10 38 22 9 13 26
8 7 10 39 23 9 13 27
8 7 10 39 23 9 13 27
9 8 9 40 24 9 13 28
10 8 9 42 25 10 14 30
10 9 9 42 26 12 16 31
11 10 8 43 27 13 17 33
12 10 8 44 28 15 19 35
13 11 7 45 29 16 20 36
13 11 7 45 29 18 20 36
13 11 7 45 29 20 20 37
13 11 7 46 29 22 20 38
13 11 7 46 29 24 20 38
14 12 6 47 30 27 21 39
14 12 6 47 30 29 21 39
14 13 6 47 31 32 21 39
14 14 6 47 32 35 21 39
14 14 6 47 32 38 21 39
14 15 5 47 33 40 22 38
14 15 5 47 33 39 22 38
14 15 5 47 33 38 22 37
14 15 4 46 32 37 22 36
14 15 4 46 32 36 22 36
14 16 3 45 31 35 21 35
14 16 3 45 31 36 21 35
14 16 3 45 31 36 21 35
13 16 3 45 31 37 22 36
13 16 3 45 31 38 22 36
12 16 2 44 32 39 23 37
12 16 3 44 32 38 23 37
12 15 3 44 32 38 23 37
12 14 4 44 31 37 22 37
12 14 5 44 31 36 22 37
12 13 6 43 30 35 21 38
12 13 6 42 30 35 21 37
11 13 6 42 29 35 20 36
10 12 6 40 28 34 19 34
10 12 6 39 28 34 19 33
9 11 5 38 27 33 18 32
9 11 5 37 26 32 18 32
8 11 5 37 25 31 17 32
7 11 5 36 24 30 16 31
7 11 5 35 23 29 16 31
6 11 5 34 22 28 15 30
5 9 5 33 22 27 14 29
5 8 6 32 21 26 14 29
4 6 7 30 20 25 13 28
3 5 7 29 20 24 12 27
2 3 8 28 19 23 11 26
2 3 8 27 18 23 11 25
1 3 8 26 16 22 11 24
0 3 8 25 15 21 11 22
0 3 8 24 13 21 11 21
-2 3 8 23 12 20 10 20
-3 3 8 22 11 19 8 18
-3 3 8 21 11 18 6 17
-4 2 9 19 10 17 4 15
-5 2 9 18 9 16 2 14
-6 1 10 17 8 15 0 12
-6 0 10 17 7 14 0 12
-7 -2 10 17 6 13 0 13
-8 -3 10 16 5 12 1 14
-8 -4 10 16 4 11 1 14
-9 -5 10 15 3 10 2 15
-9 -5 10 15 3 10 1 14
-9 -5 10 14 2 9 1 13
-9 -6 10 13 1 8 0 12
-9 -6 10 13 1 8 -2 11
-10 -7 10 12 0 7 -3 10
-10 -7 10 12 0 7 -3 10
-10 -7 10 12 0 6 -3 9
-11 -7 10 12 0 5 -3 8
-11 -7 10 12 0 5 -3 8
-12 -7 11 12 0 4 -3 7
-12 -7 11 12 0 4 -3 6
-12 -7 11 12 0 3 -4 5
-13 -7 11 12 0 2 -5 3
-13 -7 11 12 0 2 -5 2
-14 -8 12 11 -2 1 -6 1
-14 -8 12 11 -2 1 -6 1
-14 -8 12 11 -2 1 -7 0
-14 -8 12 11 -2 1 -8 -2
-14 -8 12 11 -2 1 -8 -2
-13 -8 12 11 0 1 -9 -3
-13 -8 12 11 0 1 -9 -3
-13 -8 12 11 0 1 -9 -2
-13 -8 12 11 -2 1 -8 -2
-13 -8 12 11 -2 1 -8 0
-13 -9 11 11 -3 0 -7 1
-13 -9 11 11 -3 0 -7 1
-13 -10 11 11 -3 0 -7 1
-13 -10 11 11 -3 -2 -7 1
-13 -11 11 11 -3 -2 -7 1
-13 -12 11 11 -4 -3 -8 2
-13 -11 11 11 -4 -2 -8 2
-14 -11 11 11 -4 -2 -7 2
-14 -10 11 11 -3 0 -7 2
-15 -9 11 11 -3 1 -6 2
-16 -8 10 12 -2 2 -5 3
-15 -8 10 12 -2 2 -6 2
-15 -8 10 12 -2 1 -6 2
-14 -8 10 12 -2 1 -7 1
-13 -8 10 12 -2 0 -8 0
-12 -7 10 12 -3 -2 -9 -2
-12 -7 10 12 -3 -2 -9 -2
-12 -7 10 12 -3 -2 -9 -2
-12 -8 10 12 -3 -2 -9 -2
-12 -8 10 12 -3 -2 -9 -2
-12 -9 11 13 -3 -3 -9 0
-12 -9 11 13 -3 -2 -8 0
-12 -8 11 13 -3 -2 -7 1
-12 -8 11 13 -2 0 -6 1
-12 -7 11 13 -2 1 -5 2
-13 -6 10 13 0 2 -4 3
-13 -6 10 13 0 2 -4 3
-13 -6 10 13 0 2 -5 3
-13 -6 10 13 0 1 -5 3
-13 -6 10 13 0 1 -6 3
-13 -6 9 13 0 0 -7 4
-13 -6 9 13 0 0 -7 4
-13 -5 9 13 -2 0 -7 4
-13 -5 9 12 -2 0 -6 3
-13 -4 9 12 -3 0 -6 3
-12 -3 10 11 -4 0 -5 2
-12 -3 10 11 -4 0 -5 2
-12 -3 9 11 -4 0 -5 2
-12 -3 9 10 -4 0 -5 2
-12 -3 8 10 -4 0 -5 2
-11 -4 7 9 -4 0 -6 3
-11 -4 7 9 -4 0 -6 3
-11 -4 7 9 -4 0 -6 3
-11 -4 8 9 -4 0 -6 3
-11 -4 8 9 -4 0 -6 3
-12 -4 9 8 -4 -2 -5 3
-12 -4 9 8 -4 -3 -5 3
-12 -4 9 8 -4 -3 -5 3
-12 -4 9 7 -5 -4 -6 3
-12 -4 9 7 -5 -5 -6 3
-12 -4 8 6 -6 -6 -7 3
-12 -4 8 6 -6 -5 -7 3
-12 -4 8 6 -6 -5 -6 3
-12 -3 8 6 -6 -4 -6 4
-12 -3 8 6 -6 -3 -5 4
-12 -2 9 6 -5 -2 -4 5
-12 -2 9 5 -6 -3 -6 4
-12 -2 9 5 -6 -5 -7 3
-12 -3 8 4 -7 -6 -9 2
-12 -3 8 3 -8 -7 -10 1
-12 -4 7 2 -9 -9 -12 0
-12 -4 7 2 -9 -9 -11 1
-13 -4 7 2 -9 -8 -10 1
-13 -3 7 2 -8 -8 -9 2
-14 -3 7 2 -8 -7 -8 3
-15 -2 8 3 -7 -6 -7 4
-15 -2 8 3 -7 -6 -7 3
-14 -2 8 3 -7 -6 -7 2
-14 -3 8 3 -7 -6 -7 1
-13 -3 8 3 -7 -6 -7 0
-12 -4 7 2 -8 -7 -8 -2
-12 -4 7 2 -8 -7 -8 -2
-12 -4 7 2 -8 -7 -8 -2
-12 -4 7 2 -8 -7 -8 -2
-12 -4 7 2 -8 -7 -8 -2
-12 -3 7 2 -7 -7 -8 0
-12 -3 7 2 -7 -7 -8 0
-12 -3 7 2 -7 -7 -8 0
-12 -3 7 2 -8 -8 -9 -2
-12 -3 7 2 -8 -8 -9 -2
-13 -3 7 1 -9 -9 -10 -3
-13 -3 7 1 -9 -9 -9 -3
-13 -3 7 1 -9 -9 -9 -3
-13 -3 7 1 -9 -8 -8 -3
-13 -3 7 1 -9 -8 -7 -3
-14 -3 7 1 -9 -7 -6 -2
-14 -3 7 1 -9 -7 -6 -2
-13 -3 7 1 -9 -7 -6 -2
-13 -3 7 1 -9 -6 -6 -2
-12 -3 7 1 -9 -6 -6 -2
-11 -2 6 0 -8 -5 -5 -2
-11 0 6 1 -8 -5 -5 -2
-11 1 7 2 -8 -5 -5 -2
-11 2 7 3 -7 -5 -5 -2
-11 4 8 4 -7 -5 -5 -2
-11 5 9 5 -6 -4 -6 -3
-11 6 9 5 -6 -4 -5 -2
-11 6 9 5 -5 -4 -4 0
-11 7 10 5 -5 -3 -3 1
-11 8 10 5 -4 -3 -2 3
-10 9 11 6 -3 -2 0 4
-10 9 11 6 -3 -2 0 4
-10 9 11 6 -3 -2 1 4
-10 9 12 6 -3 -2 1 4
-10 9 12 6 -3 -2 2 4
-10 10 13 7 -3 -2 3 3
-10 10 13 7 -3 -2 3 3
-9 11 13 7 -3 -2 3 3
-9 11 12 7 -2 -2 2 3
-8 12 12 7 -2 -2 2 3
-7 13 11 8 0 0 1 4
-7 13 10 8 0 0 1 4
-7 13 8 8 0 1 2 5
-7 14 7 8 0 1 2 5
-7 14 6 8 0 2 3 6
-6 15 4 7 0 3 4 7
-6 15 4 7 0 3 4 7
-6 16 4 6 -2 3 4 7
-6 16 3 5 -2 2 4 7
-6 17 3 4 -3 2 4 7
-6 18 2 3 -4 1 4 6
-5 18 2 3 -4 1 4 6
-4 18 2 3 -4 1 5 6
-3 18 2 3 -3 1 6 7
-2 18 2 3 -3 1 7 7
0 19 1 4 -2 2 8 8
0 19 1 4 -2 2 8 8
0 18 1 4 -2 2 7 7
0 17 1 3 -2 2 7 7
0 16 1 3 -2 2 6 6
-2 15 1 2 -2 2 5 5
-2 12 1 1 -3 0 3 4
-3 10 1 0 -4 -4 1 2
-3 7 1 -2 -5 -6 -3 0
-4 5 1 -4 -6 -9 -5 -2
-5 2 0 -5 -7 -11 -7 -4
-6 2 0 -5 -8 -11 -7 -4
-7 1 1 -5 -9 -11 -7 -4
-8 0 1 -5 -10 -11 -7 -4
-10 -2 2 -5 -11 -11 -7 -4
-11 -3 3 -6 -12 -11 -8 -4
-11 -3 3 -6 -12 -11 -8 -4
-11 -3 3 -6 -12 -11 -8 -4
-12 -4 2 -7 -13 -11 -8 -5
-12 -4 2 -7 -13 -11 -8 -5
-13 -5 1 -8 -14 -10 -7 -6
-13 -5 1 -8 -14 -10 -7 -6
-13 -5 1 -8 -14 -11 -8 -7
-13 -6 2 -9 -14 -12 -8 -7
-13 -6 2 -9 -14 -13 -9 -8
-12 -7 3 -10 -14 -14 -10 -9
-12 -7 3 -10 -14 -14 -10 -9
-12 -7 3 -10 -14 -14 -10 -9
-12 -7 3 -10 -14 -13 -9 -8
-12 -7 3 -10 -14 -13 -9 -8
-13 -6 3 -9 -13 -12 -8 -7
-13 -6 3 -9 -13 -12 -8 -7
-13 -6 3 -9 -13 -12 -8 -7
-13 -6 2 -9 -13 -12 -8 -7
-13 -6 2 -9 -13 -12 -8 -7
-12 -5 1 -9 -13 -12 -8 -7
-12 -5 1 -9 -13 -12 -8 -7
-12 -6 1 -9 -13 -13 -9 -7
-12 -6 1 -9 -13 -13 -9 -7
-12 -7 1 -9 -13 -14 -10 -7
-12 -8 2 -9 -13 -15 -11 -8
-11 -8 4 -4 -8 -12 -9 -6
-9 -8 5 2 -4 -8 -6 -4
-8 -8 7 7 1 -5 -4 -2
-7 -8 9 12 5 -2 0 1
-4 -8 11 18 12 5 5 5
2 -3 14 31 28 23 20 19
7 2 16 45 45 42 36 32
13 6 19 58 62 60 53 47
18 10 21 71 78 78 69 60
25 15 24 84 96 98 87 76
40 23 19 92 113 125 112 101
55 32 14 100 132 150 137 125
69 40 9 107 149 176 162 149
85 50 4 115 167 202 187 173
97 58 -4 118 181 224 209 193
99 65 -23 92 175 224 210 198
101 72 -43 65 169 224 211 203
104 79 -61 38 161 224 212 207
106 87 -80 12 155 224 213 213
105 90 -98 -20 136 210 202 207
85 67 -106 -75 62 132 137 152
64 45 -114 -130 -12 54 71 97
44 22 -123 -184 -87 -23 6 42
23 0 -132 -239 -160 -101 -60 -13
5 -20 -139 -282 -222 -166 -115 -60
-2 -30 -133 -271 -224 -173 -122 -70
-8 -40 -128 -259 -225 -179 -131 -80
-14 -51 -121 -247 -227 -186 -138 -91
-20 -61 -116 -235 -229 -192 -145 -101
-25 -70 -110 -222 -227 -195 -150 -109
-22 -64 -99 -198 -203 -177 -138 -101
-20 -59 -88 -176 -179 -158 -126 -94
-17 -54 -76 -153 -155 -140 -112 -86
-15 -49 -65 -131 -131 -121 -100 -77
-12 -44 -54 -110 -109 -105 -88 -69
-12 -38 -48 -98 -97 -95 -79 -63
-11 -33 -40 -86 -85 -85 -71 -56
-11 -28 -34 -73 -73 -74 -63 -49
-10 -24 -27 -61 -61 -64 -54 -41
-9 -19 -21 -50 -51 -55 -47 -35
-9 -18 -17 -44 -45 -50 -41 -32
-9 -17 -14 -37 -38 -45 -37 -28
-9 -16 -10 -30 -32 -39 -33 -25
-9 -15 -7 -24 -26 -35 -28 -21
-8 -14 -3 -18 -20 -30 -24 -18
-8 -14 -2 -16 -19 -28 -23 -17
-8 -14 0 -15 -17 -27 -22 -16
-7 -13 1 -13 -15 -25 -21 -15
-7 -13 2 -11 -14 -23 -20 -14
-6 -12 4 -9 -12 -21 -18 -13
-6 -12 4 -9 -12 -21 -18 -13
-6 -12 4 -8 -12 -21 -17 -13
-6 -11 4 -8 -12 -20 -17 -13
-6 -11 4 -7 -12 -20 -16 -13
-5 -10 4 -6 -12 -19 -15 -13
-5 -10 4 -5 -11 -19 -15 -13
-5 -10 5 -4 -9 -18 -15 -12
-5 -10 5 -3 -7 -18 -15 -11
-5 -10 6 -2 -6 -17 -15 -10
-5 -9 7 1 -4 -16 -14 -9
-5 -9 7 1 -4 -16 -14 -9
-4 -9 7 1 -4 -16 -14 -9
-4 -9 6 0 -4 -16 -14 -9
-3 -9 6 0 -4 -16 -14 -9
-2 -9 5 -2 -5 -16 -15 -10
-2 -9 5 0 -5 -16 -15 -10
-2 -9 6 1 -4 -16 -15 -10
-2 -9 7 2 -4 -16 -14 -9
-2 -9 8 3 -3 -16 -14 -9
0 -10 9 4 -2 -15 -13 -8
0 -10 9 4 -2 -15 -13 -8
0 -10 9 4 -2 -14 -13 -8
0 -10 8 4 -2 -14 -13 -8
0 -10 8 4 -2 -13 -13 -8
0 -10 7 4 0 -12 -12 -7
0 -10 7 4 0 -12 -12 -7
0 -10 7 5 1 -12 -12 -7
0 -10 7 6 1 -12 -12 -7
0 -10 7 7 2 -12 -12 -7
1 -9 7 8 3 -11 -12 -7
1 -9 7 8 3 -11 -12 -7
1 -9 7 8 3 -11 -12 -7
2 -9 7 8 3 -11 -12 -6
2 -9 7 8 3 -11 -12 -6
3 -9 7 8 2 -11 -11 -5
3 -9 7 8 2 -11 -10 -5
3 -9 7 9 3 -10 -9 -4
4 -8 7 10 4 -9 -8 -4
4 -8 7 11 5 -8 -7 -3
5 -7 8 12 6 -7 -6 -2
5 -7 8 12 6 -7 -6 -2
5 -7 8 13 6 -7 -7 -2
5 -7 8 13 6 -7 -7 -2
5 -7 8 14 6 -7 -8 -2
6 -6 7 15 6 -7 -9 -2
6 -6 7 15 7 -7 -9 -2
7 -6 7 16 8 -7 -8 -2
8 -5 7 17 9 -6 -8 0
9 -5 7 18 10 -6 -7 0
10 -4 8 19 12 -5 -6 1
10 -4 8 19 12 -4 -5 2
11 -3 7 20 13 -3 -4 3
11 -3 7 21 13 -2 -3 4
12 -2 6 22 14 0 -2 5
13 0 5 23 15 2 1 6
13 0 5 23 15 2 1 6
13 0 5 24 16 2 1 6
14 1 5 25 17 2 1 6
14 1 5 26 18 2 1 6
15 2 5 27 19 3 1 6
15 2 5 27 19 4 1 6
15 2 5 28 20 5 1 7
15 3 5 28 21 6 2 8
15 3 5 29 22 7 2 9
16 4 5 30 23 8 3 10
17 4 5 31 24 8 4 10
18 5 5 32 25 9 5 11
19 6 5 33 26 10 6 12
20 7 5 34 27 11 7 13
21 8 4 36 28 12 9 14
21 8 4 36 28 12 9 14
22 9 3 36 29 13 10 14
23 9 3 36 30 14 10 15
24 10 2 36 31 15 11 15
25 11 1 37 32 16 12 16
25 11 1 38 32 16 12 17
25 11 1 39 33 17 13 18
25 12 1 40 33 18 14 19
25 12 1 42 34 19 15 20
26 13 1 43 35 20 16 21
26 13 1 43 35 20 16 21
26 13 1 43 35 20 16 21
26 14 1 43 35 21 17 22
26 14 1 43 35 21 17 22
26 15 1 44 36 22 18 23
26 15 1 44 36 22 18 23
26 15 1 44 36 22 18 23
26 15 0 44 36 23 18 23
26 15 0 44 36 23 18 23
27 16 -2 45 36 24 18 22
27 16 -2 45 36 24 18 22
27 16 -2 45 36 24 18 22
27 17 -2 44 36 23 18 22
27 17 -2 44 36 23 18 22
28 18 -3 43 36 22 19 21
28 18 -3 43 36 22 19 21
27 18 -3 43 36 22 19 21
27 17 -2 43 36 23 19 21
26 17 -2 43 36 23 19 21
25 16 0 43 35 24 18 21
25 16 0 42 34 23 18 21
25 16 0 40 33 22 18 20
25 15 0 39 32 21 17 20
25 15 0 38 31 20 17 19
25 14 -2 36 30 18 16 18
25 14 -2 36 30 18 16 18
24 14 -2 35 29 18 16 18
23 13 -2 35 29 18 15 17
22 13 -2 34 28 18 15 17
21 12 0 33 27 18 14 16
21 12 0 32 27 18 14 15
20 11 0 31 26 18 14 14
20 10 1 30 25 17 13 13
19 9 1 29 24 17 13 12
18 8 2 27 23 16 12 11
18 7 2 26 22 15 11 10
18 6 2 25 20 13 9 9
18 5 2 24 19 12 8 7
18 4 2 23 17 10 6 6
17 2 3 22 15 8 4 4
16 2 3 21 14 7 3 3
15 2 3 19 12 5 2 2
14 1 3 17 11 4 1 0
13 1 3 15 9 2 0 -2
12 0 3 13 7 0 -3 -4
12 -2 3 13 7 0 -3 -4
11 -3 3 12 6 0 -3 -4
11 -4 3 11 5 -2 -4 -5
10 -5 3 10 4 -2 -4 -5
9 -6 4 9 3 -3 -5 -6
9 -6 4 9 3 -4 -6 -6
8 -6 4 8 2 -5 -7 -7
7 -7 4 8 1 -6 -8 -7
6 -7 4 7 0 -7 -9 -8
5 -8 4 6 -2 -8 -10 -9
5 -8 4 6 -2 -8 -10 -9
5 -8 4 6 -3 -8 -11 -10
6 -9 4 5 -3 -9 -11 -11
6 -9 4 5 -4 -9 -12 -12
7 -10 4 4 -5 -10 -13 -13
7 -10 4 4 -5 -10 -13 -13
6 -10 4 4 -6 -10 -13 -14
5 -11 5 4 -6 -11 -14 -15
4 -11 5 4 -7 -11 -14 -16
3 -12 6 3 -8 -12 -15 -17
3 -12 6 3 -8 -12 -15 -17
3 -12 6 3 -8 -12 -15 -17
2 -13 6 3 -8 -13 -15 -17
2 -13 6 3 -8 -13 -15 -17
1 -14 7 4 -8 -14 -16 -16
1 -14 7 4 -8 -14 -16 -16
1 -14 7 4 -8 -14 -16 -16
1 -14 6 4 -8 -14 -16 -16
1 -14 6 4 -8 -14 -16 -16
1 -14 5 4 -8 -13 -15 -16
1 -14 5 4 -8 -13 -15 -16
0 -14 5 5 -8 -13 -15 -16
0 -14 6 5 -8 -13 -15 -16
-2 -14 6 6 -8 -13 -15 -16
-3 -14 7 7 -7 -13 -15 -16
-3 -14 7 7 -7 -13 -15 -16
-3 -14 7 7 -7 -13 -15 -16
-3 -14 7 7 -7 -13 -15 -16
-3 -14 7 7 -7 -13 -15 -16
-4 -13 6 7 -6 -13 -15 -17
-4 -13 6 7 -6 -13 -15 -17
-4 -13 6 7 -6 -13 -15 -17
-5 -13 6 8 -6 -13 -15 -17
-5 -13 6 8 -6 -13 -15 -17
-6 -13 7 9 -6 -12 -14 -16
-6 -13 7 9 -6 -12 -14 -16
-6 -13 7 9 -6 -12 -13 -16
-6 -13 7 9 -5 -12 -13 -15
-6 -13 7 9 -5 -12 -12 -15
-7 -14 7 10 -4 -11 -11 -14
-7 -14 7 10 -4 -11 -11 -14
-7 -14 7 10 -4 -10 -11 -14
-7 -14 7 10 -3 -10 -10 -14
-7 -14 7 10 -3 -9 -10 -14
-7 -13 7 10 -2 -8 -9 -15
-7 -13 7 10 -2 -8 -9 -15
-7 -13 7 10 -2 -8 -9 -15
-7 -12 7 10 -2 -8 -9 -15
-7 -12 7 10 -2 -8 -9 -15
-7 -11 6 9 -3 -8 -9 -14
-7 -11 6 9 -3 -8 -9 -14
-7 -11 6 9 -3 -8 -9 -14
-7 -11 6 9 -3 -8 -9 -14
-7 -11 6 9 -3 -8 -9 -14
-8 -11 7 9 -2 -7 -9 -14
-8 -11 7 9 -2 -7 -9 -14
-8 -11 7 9 -2 -8 -9 -14
-8 -11 7 9 -2 -8 -9 -14
-8 -11 7 9 -2 -9 -9 -14
-7 -11 6 8 -3 -10 -10 -13
-7 -11 6 8 -3 -10 -10 -13
-7 -11 6 8 -3 -10 -9 -13
-7 -11 6 8 -3 -9 -9 -13
-7 -11 6 8 -3 -9 -8 -13
-7 -11 6 8 -3 -9 -8 -13
-7 -12 7 7 -3 -8 -7 -13
-7 -12 7 6 -4 -8 -8 -14
-7 -12 7 5 -5 -8 -9 -15
-7 -12 7 4 -6 -8 -10 -16
-7 -12 7 3 -6 -8 -10 -16
-7 -11 6 2 -7 -9 -11 -17
-7 -11 6 2 -7 -10 -11 -16
-8 -12 6 2 -8 -10 -11 -16
-8 -12 6 2 -8 -11 -11 -15
-8 -12 6 2 -8 -11 -11 -15
-9 -13 5 2 -9 -12 -12 -14
-9 -13 5 1 -9 -12 -12 -14
-8 -13 5 1 -9 -12 -12 -14
-8 -13 5 0 -9 -12 -12 -14
-8 -13 5 0 -9 -12 -12 -14
-7 -13 5 -2 -9 -12 -11 -15
-7 -13 5 -2 -9 -12 -11 -16
-7 -13 5 0 -9 -12 -11 -16
-7 -13 5 0 -9 -12 -11 -17
-7 -13 5 0 -9 -12 -11 -17
-8 -13 6 1 -8 -11 -11 -18
-8 -13 5 0 -9 -11 -11 -18
-8 -13 5 -2 -9 -12 -11 -19
-8 -13 4 -3 -10 -12 -11 -19
-8 -13 4 -3 -10 -12 -11 -19
-8 -12 3 -4 -11 -13 -11 -20
-8 -12 3 -4 -11 -13 -11 -20
-8 -12 3 -4 -11 -13 -11 -20
-8 -12 3 -4 -11 -13 -11 -20
-8 -12 3 -4 -11 -13 -11 -20
-8 -13 4 -4 -11 -12 -11 -21
-8 -13 4 -4 -11 -12 -11 -21
-8 -13 4 -4 -11 -12 -11 -21
-8 -13 4 -4 -11 -12 -11 -21
-8 -13 4 -4 -11 -12 -11 -21
-8 -12 5 -4 -12 -12 -11 -22
-8 -12 5 -4 -12 -12 -11 -22
-8 -12 5 -4 -12 -12 -11 -22
-8 -12 5 -4 -12 -12 -11 -22
-8 -12 5 -4 -12 -12 -11 -22
-8 -12 5 -5 -13 -13 -11 -22
-9 -12 5 -5 -13 -13 -11 -21
-9 -12 5 -5 -13 -12 -11 -21
-10 -12 5 -5 -13 -12 -11 -20
-10 -12 5 -5 -13 -12 -11 -20
-11 -12 4 -4 -12 -11 -10 -19
-11 -12 4 -4 -12 -11 -10 -19
-10 -13 4 -5 -12 -11 -10 -19
-10 -13 4 -5 -12 -11 -10 -19
-10 -13 4 -5 -12 -11 -10 -19
-9 -14 4 -6 -12 -12 -10 -20
-9 -13 4 -6 -12 -12 -10 -20
-9 -13 4 -6 -12 -12 -11 -20
-9 -12 4 -6 -12 -12 -11 -20
-9 -12 4 -6 -12 -12 -11 -20
-10 -11 4 -7 -13 -12 -12 -21
-10 -11 4 -7 -13 -12 -12 -21
-10 -11 5 -6 -12 -12 -11 -20
-10 -11 5 -6 -12 -12 -11 -20
-10 -11 5 -6 -12 -12 -11 -20
-9 -10 6 -5 -11 -12 -10 -19
-9 -9 7 -4 -10 -11 -9 -18
-8 -8 7 -3 -10 -10 -8 -17
-8 -7 8 -2 -9 -9 -7 -16
-8 -6 8 -2 -9 -8 -7 -16
-7 -5 9 0 -8 -7 -6 -15
-7 -4 10 0 -7 -7 -6 -14
-7 -4 10 1 -7 -7 -5 -14
-7 -3 11 1 -6 -7 -5 -13
-7 -3 11 1 -6 -7 -5 -13
-8 -2 12 2 -5 -6 -4 -12
-7 0 12 2 -4 -6 -4 -12
-7 1 12 3 -4 -5 -4 -11
-6 2 12 3 -3 -5 -4 -11
-6 3 12 3 -3 -5 -4 -11
-5 4 11 4 -2 -4 -4 -10
-4 4 9 4 -2 -4 -4 -10
-3 4 8 3 -2 -4 -4 -9
-2 4 6 3 -2 -4 -4 -9
-2 4 5 3 -2 -4 -4 -9
0 5 4 2 0 -4 -3 -8
0 6 3 2 0 -4 -2 -7
0 7 3 2 0 -3 0 -6
0 8 2 2 0 -3 1 -5
0 8 2 2 0 -3 2 -5
-2 9 1 1 0 -2 3 -4
-2 9 1 1 0 -2 3 -4
-2 9 1 0 0 -2 3 -4
-2 9 1 0 0 -2 3 -4
-2 9 1 0 0 -2 3 -4
-3 8 1 -2 -2 0 3 -4
-2 8 1 0 -2 0 3 -4
0 9 0 1 0 0 3 -3
1 9 0 2 0 0 3 -3
2 9 0 2 0 0 3 -3
3 9 -2 2 1 1 4 -2
2 7 -2 0 0 0 3 -2
1 6 -2 -2 -2 -2 2 -3
0 4 -2 -4 -3 -3 1 -3
0 3 -2 -5 -4 -3 1 -3
-3 1 -2 -6 -6 -5 -2 -5
-5 0 -2 -7 -7 -7 -4 -6
-7 -3 -2 -7 -8 -9 -6 -7
-9 -4 -2 -8 -9 -11 -8 -8
-10 -5 -2 -8 -10 -12 -10 -9
-11 -6 0 -9 -11 -13 -11 -10
-11 -6 0 -9 -11 -13 -11 -10
-11 -7 1 -9 -11 -13 -11 -9
-11 -7 1 -9 -11 -13 -11 -9
-11 -7 1 -9 -11 -13 -11 -9
-12 -8 2 -9 -12 -13 -11 -8
-12 -8 2 -10 -12 -13 -11 -8
-12 -9 2 -10 -12 -13 -11 -9
-12 -9 2 -11 -12 -13 -11 -9
-12 -9 2 -11 -12 -13 -11 -9
-13 -10 1 -12 -13 -14 -11 -10
-13 -10 1 -12 -13 -14 -11 -10
-13 -10 1 -12 -13 -14 -11 -10
-13 -10 1 -12 -13 -14 -11 -10
-13 -10 1 -12 -13 -14 -11 -10
-14 -9 1 -11 -12 -13 -11 -10
-14 -9 1 -11 -12 -14 -11 -10
-14 -9 1 -11 -12 -14 -11 -10
-14 -9 1 -11 -12 -15 -11 -10
-14 -9 1 -11 -12 -15 -11 -10
-14 -10 1 -10 -12 -16 -12 -10
-14 -10 1 -10 -12 -15 -12 -10
-14 -10 1 -10 -11 -15 -12 -10
-14 -10 1 -10 -11 -14 -12 -10
-14 -10 1 -10 -11 -14 -12 -10
-14 -10 2 -9 -10 -13 -11 -9
-14 -10 3 -7 -9 -12 -11 -8
-14 -10 3 -6 -8 -11 -10 -7
-14 -10 4 -4 -7 -10 -10 -6
-14 -10 4 -3 -7 -10 -10 -6
-11 -7 8 8 5 1 -2 2
-8 -3 12 20 17 12 8 9
-5 1 15 31 29 22 17 17
-2 5 19 43 40 33 26 24
2 9 23 54 53 44 35 32
13 14 24 69 73 68 57 52
26 18 24 85 94 94 79 73
38 23 23 100 115 119 102 95
52 27 23 116 136 145 126 116
64 32 23 132 157 171 148 138
76 44 8 125 169 191 170 159
88 56 -10 112 180 213 191 181
100 69 -27 101 190 233 212 203
111 81 -45 90 200 255 233 225
123 94 -61 78 211 275 255 246
113 85 -77 31 164 229 216 217
99 71 -93 -21 109 173 167 178
85 58 -109 -73 54 116 118 140
69 44 -124 -124 -2 60 69 102
55 30 -141 -177 -57 4 21 63
40 13 -143 -201 -97 -39 -16 29
25 -6 -142 -222 -135 -80 -52 -5
10 -24 -142 -242 -173 -121 -87 -38
-6 -41 -141 -264 -211 -162 -121 -72
-21 -60 -141 -284 -248 -203 -156 -106
-23 -62 -130 -263 -234 -195 -151 -105
-22 -60 -116 -234 -211 -177 -140 -97
-22 -58 -103 -205 -187 -159 -128 -90
-21 -56 -91 -176 -163 -142 -116 -81
-21 -54 -77 -147 -140 -124 -104 -74
-19 -48 -68 -130 -124 -112 -95 -67
-18 -41 -59 -113 -110 -101 -85 -60
-17 -34 -50 -98 -96 -89 -75 -53
-16 -28 -41 -81 -81 -77 -66 -46
-15 -21 -32 -66 -67 -66 -57 -38
-14 -18 -27 -57 -59 -59 -51 -34
-14 -16 -22 -50 -52 -53 -46 -30
-14 -13 -17 -41 -44 -46 -40 -27
-14 -10 -13 -34 -36 -39 -34 -23
-14 -8 -8 -27 -29 -32 -29 -19
-15 -7 -5 -22 -25 -29 -26 -17
-15 -7 -3 -19 -22 -26 -24 -16
-15 -6 1 -15 -19 -24 -22 -14
-15 -6 4 -12 -16 -21 -19 -12
-15 -6 6 -8 -13 -18 -17 -11
-14 -5 7 -7 -12 -17 -16 -10
-14 -5 7 -6 -11 -16 -16 -9
-14 -5 8 -5 -10 -16 -15 -9
-14 -5 8 -4 -9 -15 -15 -8
-14 -5 8 -4 -9 -15 -15 -8
-13 -4 9 -2 -7 -14 -14 -7
-13 -4 9 0 -6 -14 -14 -6
-13 -4 10 1 -5 -13 -14 -5
-13 -4 10 3 -4 -13 -14 -4
-13 -4 10 4 -3 -13 -14 -4
-12 -4 11 5 -2 -12 -12 -3
-12 -3 11 5 -2 -11 -11 -2
-12 -3 11 5 -2 -10 -10 -2
-12 -2 11 5 -2 -9 -9 0
-12 -2 11 5 -2 -8 -8 0
-12 0 12 6 0 -7 -7 1
-12 0 13 7 0 -7 -7 1
-12 0 13 8 1 -7 -8 0
-12 0 14 9 1 -7 -8 0
-12 0 14 9 1 -7 -8 0
-11 1 15 10 2 -8 -9 -2
-11 1 15 10 2 -8 -9 -2
-10 1 14 10 2 -7 -9 -2
-10 1 14 10 2 -7 -9 -2
-10 1 14 10 2 -7 -9 -2
-9 2 13 11 3 -6 -9 0
-9 2 14 12 4 -5 -8 1
-9 2 14 13 4 -5 -8 1
-9 2 15 14 5 -4 -7 2
-9 2 15 15 5 -4 -7 2
-9 2 16 16 6 -3 -6 3
-9 2 16 16 7 -3 -6 3
-9 2 15 16 7 -3 -5 4
-9 2 15 16 8 -3 -5 4
-9 2 15 16 8 -3 -5 4
-8 3 14 17 9 -2 -4 5
-8 3 14 18 9 -2 -4 6
-8 3 15 19 10 -2 -4 7
-8 3 15 20 10 -2 -4 8
-8 3 15 21 10 -2 -4 8
-8 4 16 22 11 0 -4 9
-8 4 16 22 11 1 -3 11
-7 4 16 22 12 1 -2 12
-7 4 16 22 12 2 0 13
-7 4 16 22 12 2 0 14
-6 4 15 23 13 3 1 15
-6 5 15 24 14 3 1 16
-5 5 15 25 15 4 2 16
-5 6 15 26 16 4 2 17
-5 6 15 26 16 4 2 17
-4 7 16 27 17 5 3 18
-3 7 16 28 18 6 4 19
-3 7 16 28 19 7 5 20
-2 7 16 29 20 8 6 21
-2 7 16 29 20 9 7 22
0 8 16 30 21 10 8 23
0 9 16 31 21 10 8 23
1 9 16 32 22 11 8 24
1 10 16 33 22 11 8 24
1 10 16 34 22 11 8 24
2 11 17 35 23 13 8 25
3 12 17 36 25 14 9 26
4 13 16 36 26 15 10 27
5 14 16 37 27 17 11 28
5 15 16 37 28 18 11 29
6 16 15 38 29 19 12 30
6 16 15 40 30 20 13 31
6 17 15 42 31 21 14 31
6 17 15 43 32 22 15 32
6 17 15 44 33 22 16 32
7 18 16 45 34 23 17 33
9 19 15 45 35 23 17 33
10 20 15 46 36 24 17 33
11 21 14 46 37 24 17 33
12 22 14 46 37 24 17 33
13 23 13 47 38 26 19 33
13 24 13 49 40 27 21 34
13 24 13 50 42 29 23 34
13 25 13 51 43 31 24 35
13 25 13 52 44 32 26 35
13 26 13 53 45 33 27 36
14 26 13 53 46 33 27 36
15 26 12 53 46 33 27 37
16 26 12 53 47 33 27 37
17 26 12 53 47 33 27 37
18 27 11 53 48 34 28 38
18 27 11 54 48 35 28 38
18 27 11 54 48 35 28 37
18 27 11 55 48 36 28 37
18 27 11 55 48 36 28 37
17 28 10 56 49 37 29 36
17 28 10 56 50 37 30 36
17 28 10 56 50 37 30 36
17 28 10 56 51 37 31 36
17 28 10 56 51 37 31 36
18 29 9 56 52 38 32 37
18 29 9 56 52 38 32 36
17 29 9 56 52 38 32 36
17 29 9 56 52 38 32 35
17 29 9 56 52 38 32 35
16 28 10 55 52 37 31 34
16 28 10 54 52 37 31 34
16 28 10 53 52 37 31 34
16 28 10 52 52 37 31 34
16 28 10 52 52 37 31 34
17 27 10 51 51 36 30 34
17 27 10 49 49 35 29 33
16 27 10 48 48 34 28 32
16 27 10 47 47 33 27 31
16 27 10 46 46 33 26 31
15 28 10 44 45 32 25 30
14 27 10 43 43 31 25 30
13 26 10 42 42 30 24 29
12 25 10 39 40 29 24 29
12 24 10 38 39 29 24 29
11 23 10 36 37 27 22 27
10 22 10 35 36 25 21 25
10 21 10 33 35 24 20 24
9 20 10 31 33 22 18 22
9 19 10 30 32 20 17 20
7 18 10 28 31 19 16 19
6 17 10 27 30 18 16 18
4 17 10 26 29 18 15 17
2 16 10 24 28 17 15 16
1 16 10 23 27 17 15 15
0 15 11 21 25 16 14 14
0 14 11 20 23 14 12 12
-2 13 11 19 22 13 11 11
-2 12 11 17 20 12 10 10
-2 11 11 16 18 11 9 9
-3 10 11 15 17 10 8 8
-3 9 11 14 15 9 7 7
-4 9 11 13 14 8 6 7
-4 8 11 12 13 7 6 6
-4 8 11 11 12 6 5 6
-5 7 10 10 11 5 4 5
-6 6 10 10 10 5 4 5
-6 6 11 10 10 5 4 5
-7 5 11 10 9 5 4 5
-7 5 11 10 9 5 4 5
-8 4 12 9 8 4 3 4
-8 4 12 9 8 3 2 3
-8 3 12 8 8 2 1 3
-8 3 12 8 8 2 1 2
-8 3 12 8 8 1 0 2
-8 2 11 7 7 0 -2 1
-8 2 11 7 6 0 -2 0
-8 2 11 6 6 -2 -3 -2
-8 2 11 6 5 -2 -3 -3
-8 2 11 6 5 -2 -3 -4
-8 2 12 5 4 -3 -4 -5
-8 1 12 5 4 -3 -4 -5
-9 1 12 5 4 -3 -4 -5
-9 0 12 5 4 -3 -4 -5
-9 0 12 5 4 -3 -4 -5
-10 -2 11 6 4 -4 -5 -4
-10 -2 11 6 4 -4 -5 -6
-10 -2 11 6 4 -4 -5 -7
-10 -2 11 6 4 -4 -5 -8
-10 -2 11 6 4 -4 -5 -9
-11 -3 12 6 4 -4 -5 -10
-11 -3 12 6 4 -4 -5 -10
-11 -3 12 6 4 -4 -5 -11
-11 -3 12 6 4 -4 -5 -11
-11 -3 12 6 4 -4 -5 -11
-11 -2 11 6 3 -5 -6 -12
-11 -2 11 6 3 -5 -6 -12
-11 -2 11 7 3 -5 -6 -12
-11 -2 11 7 3 -5 -6 -12
-11 -2 11 7 3 -5 -6 -12
-11 -2 10 8 4 -4 -6 -13
-11 -2 10 8 4 -4 -6 -13
-11 0 10 8 4 -4 -6 -13
-11 0 10 8 4 -4 -6 -13
-11 0 10 8 4 -4 -6 -13
-11 1 10 7 3 -5 -5 -13
-11 1 10 7 3 -6 -5 -13
-11 1 10 7 3 -6 -6 -13
-11 1 10 7 3 -7 -6 -13
-11 1 10 7 3 -7 -6 -13
-12 0 9 6 2 -8 -7 -14
-12 0 9 6 2 -8 -7 -14
-12 0 9 6 2 -8 -6 -14
-12 0 9 6 2 -8 -6 -14
-12 0 9 6 2 -8 -6 -14
-12 0 9 6 3 -7 -5 -13
-12 0 9 6 3 -6 -5 -13
-12 0 9 6 3 -6 -4 -13
-12 0 9 6 3 -5 -4 -13
-12 0 9 6 3 -5 -4 -13
-11 0 8 6 4 -4 -3 -14
-11 0 8 6 4 -4 -3 -14
-11 0 8 5 4 -4 -3 -14
-11 0 8 5 4 -4 -3 -14
-11 0 8 5 4 -4 -3 -14
-12 0 8 4 3 -5 -3 -14
-12 0 8 4 3 -5 -3 -14
-12 0 8 4 3 -5 -3 -14
-12 0 8 4 3 -5 -3 -14
-12 0 8 4 3 -5 -3 -14
-11 -2 9 4 3 -4 -2 -15
-11 -2 9 4 3 -4 -2 -15
-11 0 9 4 2 -5 -3 -15
-11 0 9 4 2 -5 -3 -15
-11 0 9 4 2 -5 -3 -15
-11 1 8 3 1 -6 -4 -16
-11 0 8 3 1 -6 -4 -16
-11 0 8 2 1 -6 -4 -17
-11 -2 8 2 1 -6 -4 -17
-11 -2 8 2 1 -6 -4 -17
-11 -3 8 1 0 -7 -4 -18
-11 -2 8 1 0 -7 -4 -18
-11 -2 8 1 0 -7 -4 -18
-11 0 8 1 0 -7 -4 -18
-11 0 8 1 0 -7 -4 -18
-11 1 7 0 -2 -6 -5 -18
-11 1 7 0 -2 -6 -5 -18
-11 1 7 -2 -3 -7 -5 -19
-11 1 7 -2 -3 -7 -5 -19
-11 1 7 -2 -3 -7 -5 -19
-11 0 7 -3 -4 -8 -5 -20
-11 0 7 -3 -4 -8 -5 -20
-11 0 7 -3 -4 -8 -5 -20
-11 0 7 -3 -4 -8 -5 -20
-11 0 7 -3 -4 -8 -5 -20
-11 0 7 -4 -3 -8 -5 -19
-11 0 7 -4 -3 -8 -5 -19
-11 0 7 -4 -3 -8 -5 -19
-11 0 7 -4 -3 -8 -5 -19
-11 0 7 -4 -3 -8 -5 -19
-11 0 6 -5 -4 -9 -5 -19
-11 0 6 -5 -4 -9 -5 -19
-10 -2 6 -5 -5 -9 -5 -19
-10 -2 6 -5 -5 -9 -5 -19
-10 -2 6 -5 -5 -9 -5 -19
-9 -3 6 -6 -6 -9 -6 -19
-9 -3 6 -6 -6 -9 -6 -19
-9 -3 6 -6 -6 -9 -6 -19
-9 -3 6 -6 -6 -9 -6 -19
-9 -3 6 -6 -6 -9 -6 -19
-10 -2 5 -6 -6 -10 -6 -20
-10 -2 5 -6 -6 -10 -6 -20
-10 -2 5 -7 -6 -10 -6 -20
-10 -2 5 -7 -6 -10 -6 -20
-10 -2 5 -7 -6 -10 -6 -20
-9 -3 4 -8 -7 -10 -6 -21
-9 -3 4 -8 -7 -10 -6 -21
-10 -3 4 -8 -7 -10 -6 -21
-10 -3 4 -8 -7 -10 -6 -21
-10 -3 4 -8 -7 -10 -6 -21
-11 -4 4 -7 -8 -11 -6 -20
-11 -4 4 -7 -8 -11 -6 -20
-11 -4 4 -7 -8 -11 -6 -19
-11 -4 4 -7 -8 -11 -6 -18
-11 -4 4 -7 -8 -11 -6 -18
-12 -4 4 -7 -7 -10 -5 -17
-12 -4 4 -7 -7 -10 -5 -17
-12 -4 4 -7 -7 -10 -6 -17
-12 -4 4 -7 -7 -10 -6 -17
-12 -4 4 -7 -7 -10 -6 -17
-12 -3 4 -6 -8 -10 -7 -18
-11 -2 4 -6 -8 -9 -6 -18
-10 1 5 -5 -7 -8 -5 -17
-10 2 6 -4 -6 -8 -5 -16
-9 4 6 -4 -6 -7 -4 -16
-8 5 7 -3 -5 -6 -3 -15
-8 5 8 -2 -5 -6 -3 -15
-8 5 9 0 -4 -5 -2 -15
-8 5 10 0 -4 -4 -2 -15
-8 5 11 1 -4 -4 -2 -15
-7 6 12 2 -3 -3 0 -14
-7 7 12 2 -3 -3 0 -14
-7 8 11 1 -3 -3 0 -14
-7 8 10 1 -3 -3 0 -14
-7 9 10 1 -3 -3 0 -14
-8 10 9 0 -4 -2 0 -15
-6 10 8 0 -4 -2 0 -15
-5 11 7 0 -4 -2 0 -15
-3 12 6 0 -4 -2 0 -15
-2 12 5 0 -4 -2 0 -15
0 13 4 1 -3 -2 1 -14
0 14 3 1 -3 -2 1 -14
1 15 2 0 -2 -2 1 -14
1 15 1 -2 -2 -2 1 -14
1 16 0 -2 -2 -2 1 -14
2 17 -2 -3 0 0 2 -14
2 17 -2 -3 0 0 2 -14
2 16 -2 -3 -2 0 2 -15
2 16 -2 -3 -2 0 2 -15
2 16 -2 -3 -2 0 2 -15
3 15 -3 -3 -3 0 1 -16
5 15 -3 -3 -3 0 1 -15
7 14 -4 -3 -2 1 2 -14
9 13 -4 -3 -2 1 2 -14
11 13 -4 -3 -2 1 2 -13
12 12 -5 -2 0 2 3 -12
10 10 -5 -3 -2 1 3 -12
9 8 -5 -4 -3 0 2 -13
7 7 -5 -5 -4 0 1 -14
6 5 -5 -6 -5 -2 1 -14
4 4 -5 -7 -6 -3 0 -15
2 2 -5 -8 -7 -4 -3 -15
0 1 -5 -9 -8 -6 -5 -16
-3 -2 -5 -9 -9 -7 -6 -16
-6 -3 -5 -10 -10 -8 -8 -16
-7 -4 -4 -11 -11 -9 -9 -17
-7 -5 -4 -11 -11 -9 -9 -16
-7 -6 -4 -11 -12 -10 -10 -15
-7 -7 -4 -11 -12 -11 -10 -14
-7 -8 -4 -11 -12 -11 -10 -13
-8 -9 -3 -12 -13 -12 -11 -12
-8 -9 -3 -12 -13 -12 -11 -12
-8 -9 -3 -12 -14 -12 -11 -11
-8 -9 -3 -12 -15 -12 -11 -11
-8 -9 -3 -12 -15 -12 -11 -11
-9 -10 -4 -13 -16 -13 -12 -10
-9 -10 -4 -13 -16 -13 -12 -10
-9 -10 -4 -13 -16 -13 -12 -9
-9 -10 -4 -13 -16 -13 -12 -9
-9 -10 -4 -13 -16 -13 -12 -9
-9 -11 -3 -14 -15 -13 -11 -8
-9 -11 -3 -14 -15 -13 -11 -8
-9 -11 -3 -14 -15 -13 -11 -7
-9 -11 -3 -14 -15 -13 -11 -7
-9 -11 -3 -14 -15 -13 -11 -7
-8 -11 -2 -13 -15 -12 -11 -6
-8 -11 -2 -13 -15 -12 -11 -6
-8 -11 -2 -13 -15 -12 -11 -6
-8 -11 -2 -13 -15 -12 -11 -6
-8 -11 -2 -13 -15 -12 -11 -6
-9 -10 0 -13 -15 -12 -11 -5
-9 -10 0 -13 -15 -12 -11 -5
-9 -10 0 -12 -14 -12 -11 -5
-9 -10 0 -12 -14 -12 -11 -5
-9 -10 0 -12 -14 -12 -11 -5
-8 -10 1 -6 -9 -8 -9 -4
-6 -8 5 3 0 0 -4 1
-4 -6 8 12 8 7 2 6
-2 -5 12 20 15 13 7 10
1 -3 15 29 23 20 12 15
7 1 18 43 38 34 25 26
16 4 21 59 58 56 43 43
26 8 24 75 78 76 61 59
35 11 27 92 98 97 78 75
46 15 30 109 117 118 97 92
59 23 25 116 134 140 117 111
74 33 11 114 147 162 139 134
91 45 -4 112 159 184 160 156
107 55 -17 111 173 206 182 178
123 66 -31 109 186 228 203 200
129 71 -50 85 175 222 200 204
126 69 -71 44 143 192 176 193
121 67 -94 2 111 162 151 182
117 66 -115 -39 80 134 127 171
113 64 -137 -81 49 104 102 158
99 51 -148 -126 1 58 64 127
75 27 -151 -171 -60 1 17 78
52 4 -153 -216 -119 -57 -31 29
29 -20 -156 -262 -180 -115 -78 -19
6 -44 -158 -307 -240 -173 -126 -67
-6 -55 -154 -312 -256 -192 -144 -89
-9 -58 -143 -283 -236 -180 -138 -87
-12 -61 -131 -255 -216 -169 -132 -85
-14 -63 -119 -226 -195 -156 -124 -83
-17 -66 -108 -197 -175 -145 -118 -81
-18 -65 -96 -174 -156 -132 -110 -76
-16 -59 -83 -153 -140 -119 -101 -69
-14 -52 -72 -134 -123 -106 -91 -62
-12 -46 -60 -113 -106 -93 -80 -55
-9 -38 -49 -94 -90 -79 -71 -48
-8 -33 -40 -80 -77 -70 -63 -41
-8 -30 -35 -71 -69 -63 -57 -36
-9 -26 -30 -63 -61 -56 -51 -31
-9 -22 -25 -55 -53 -49 -44 -26
-9 -18 -20 -46 -45 -41 -37 -22
-10 -16 -16 -39 -38 -36 -33 -18
-10 -16 -13 -34 -34 -32 -30 -16
-10 -16 -9 -29 -30 -28 -27 -14
-10 -16 -6 -24 -26 -25 -24 -12
-10 -16 -3 -19 -21 -21 -21 -10
-11 -15 0 -16 -19 -19 -19 -9
-11 -15 0 -15 -19 -18 -18 -9
-10 -14 1 -14 -18 -17 -17 -8
-10 -13 1 -14 -17 -17 -17 -7
-10 -13 1 -13 -17 -16 -16 -7
-9 -12 2 -12 -16 -15 -15 -6
-9 -12 2 -11 -15 -15 -15 -6
-9 -12 3 -10 -14 -14 -15 -6
-9 -12 4 -9 -14 -13 -15 -6
-9 -12 4 -8 -13 -13 -15 -6
-10 -11 5 -7 -12 -12 -14 -5
-10 -11 5 -7 -12 -12 -14 -5
-10 -11 5 -6 -11 -12 -13 -4
-10 -11 5 -6 -10 -12 -13 -4
-10 -11 5 -6 -10 -12 -13 -4
-9 -10 6 -5 -9 -11 -12 -3
-9 -10 6 -4 -9 -11 -12 -3
-8 -10 7 -3 -9 -11 -12 -3
-8 -10 8 -3 -9 -11 -12 -3
-8 -10 8 -2 -9 -11 -12 -3
-7 -10 9 0 -8 -10 -11 -2
-7 -10 9 0 -8 -9 -11 -2
-7 -10 8 0 -7 -8 -11 -2
-7 -10 8 0 -7 -8 -11 -2
-7 -10 8 0 -7 -7 -11 -2
-7 -10 7 1 -6 -6 -10 0
-7 -10 8 1 -6 -6 -10 0
-7 -10 9 2 -5 -6 -10 0
-7 -10 9 2 -4 -6 -10 0
-7 -10 10 2 -4 -6 -10 0
-7 -10 11 3 -3 -5 -10 0
-7 -10 11 4 -3 -5 -10 0
-6 -10 11 5 -2 -4 -10 1
-6 -10 11 5 0 -4 -10 1
-6 -10 11 6 0 -4 -10 1
-5 -9 10 7 1 -3 -9 2
-5 -9 10 7 1 -3 -9 2
-5 -9 10 8 1 -3 -9 2
-5 -9 10 9 1 -3 -9 2
-5 -9 10 9 1 -3 -9 2
-5 -8 11 10 2 -3 -8 2
-5 -8 11 10 3 -2 -8 3
-5 -8 11 11 4 0 -7 4
-5 -8 11 12 5 1 -7 4
-5 -8 11 12 6 2 -7 5
-4 -7 11 13 7 3 -6 6
-4 -7 11 14 7 3 -6 6
-4 -6 11 15 7 3 -6 6
-4 -6 11 15 7 3 -6 6
-4 -6 11 16 7 3 -6 6
-3 -5 11 17 8 4 -5 6
-2 -5 11 17 9 4 -4 7
0 -5 11 18 10 5 -3 8
1 -5 11 18 11 6 -3 9
2 -5 11 18 12 6 -2 10
3 -4 11 19 13 7 0 11
3 -4 11 20 13 7 0 11
4 -3 11 21 14 8 1 12
4 -2 11 22 15 9 1 13
4 -2 11 23 15 9 1 13
5 0 12 24 16 10 2 14
5 1 12 25 17 10 3 15
5 2 12 25 17 11 4 15
6 3 12 26 18 12 5 16
6 4 12 27 19 12 6 17
7 5 11 28 20 13 7 18
8 5 11 29 20 13 7 19
8 5 11 29 20 14 7 19
9 6 11 30 21 15 7 20
10 6 11 31 21 15 7 21
11 7 10 32 22 16 8 22
12 8 10 33 24 16 9 23
12 9 10 33 25 17 10 24
13 10 10 34 26 18 11 26
14 11 10 35 28 18 12 27
15 12 9 36 29 19 13 28
16 12 9 37 30 21 14 29
16 12 9 38 31 22 15 30
17 13 9 39 32 23 16 31
18 13 9 40 33 25 17 32
19 14 9 42 34 26 18 33
19 14 9 42 35 27 19 34
19 15 9 43 36 28 20 34
20 16 8 44 37 29 22 35
20 16 8 44 38 30 23 36
21 17 7 45 39 31 24 37
21 17 7 45 39 31 24 37
21 18 7 46 39 31 24 37
22 19 7 47 40 31 24 37
22 19 7 47 40 31 24 37
23 20 6 48 42 32 24 36
23 20 6 48 42 32 24 36
23 20 6 48 42 32 25 36
23 20 6 48 43 33 26 36
23 20 6 48 43 33 26 36
24 21 5 48 44 34 27 37
24 21 5 48 44 34 27 37
24 21 5 48 44 34 27 37
23 21 5 48 44 34 27 37
23 21 5 48 44 34 27 37
22 21 5 48 44 34 26 37
22 21 5 48 44 34 26 37
22 21 5 48 44 34 26 37
22 21 5 47 44 34 26 37
22 21 5 47 44 34 26 37
21 21 5 46 44 34 27 38
21 21 5 45 43 34 26 37
20 20 5 44 43 33 26 36
19 19 5 43 42 32 25 34
19 19 5 42 40 32 24 33
18 18 6 40 39 31 23 32
18 18 6 39 38 30 23 32
17 18 6 38 37 30 22 32
16 17 6 36 36 29 21 31
16 17 6 35 35 28 21 31
15 16 5 34 34 27 20 30
14 15 5 32 32 26 20 30
14 15 5 31 30 25 19 29
13 14 5 30 28 23 18 28
12 13 5 28 26 22 18 28
11 12 5 27 25 21 17 27
11 11 5 25 24 19 16 26
11 10 5 23 24 18 15 25
10 8 5 21 23 17 13 23
10 7 5 19 22 15 12 22
9 6 6 17 21 14 11 21
9 6 6 15 18 12 9 20
8 6 6 13 16 11 8 20
7 5 6 11 14 9 6 19
7 5 6 9 12 7 4 18
6 4 6 8 10 6 3 17
6 3 6 8 9 6 3 17
5 2 6 7 9 5 2 17
4 0 6 6 8 4 1 17
4 -2 6 6 7 4 1 17
3 -3 6 5 6 3 0 17
2 -3 6 5 5 2 0 16
2 -3 6 4 5 2 -2 16
1 -4 6 3 4 1 -3 15
0 -4 6 3 3 0 -3 14
-2 -5 7 2 2 -2 -4 13
-2 -5 7 2 2 -2 -4 13
-2 -5 7 1 2 -2 -4 13
-2 -6 7 0 1 -2 -4 12
-2 -6 7 0 1 -2 -4 12
-2 -7 6 -2 0 -3 -5 11
-2 -7 6 -2 0 -3 -6 11
-2 -7 6 -2 0 -4 -6 10
-3 -7 6 -2 -2 -5 -7 9
-3 -7 6 -2 -2 -5 -8 9
-4 -7 5 -2 -3 -6 -9 8
-4 -7 5 -2 -3 -6 -9 8
-4 -7 6 -2 -3 -6 -9 8
-4 -7 7 -2 -3 -6 -8 8
-4 -7 7 -2 -3 -6 -8 8
-5 -8 8 0 -2 -5 -7 7
-5 -8 8 0 -2 -5 -8 7
-5 -8 8 0 -2 -6 -8 7
-5 -8 8 0 -2 -7 -9 6
-5 -8 8 0 -2 -7 -10 6
-5 -9 8 -2 -3 -8 -11 5
-5 -9 8 -2 -3 -8 -11 5
-5 -9 8 -2 -3 -8 -11 5
-5 -9 8 -2 -3 -8 -10 5
-5 -9 8 -2 -3 -8 -10 5
-5 -8 8 0 -2 -7 -9 6
-5 -8 8 0 -2 -7 -9 6
-5 -8 8 0 -2 -7 -9 6
-5 -8 8 1 -2 -8 -10 5
-5 -8 8 1 -2 -8 -10 5
-6 -8 9 2 -3 -9 -11 4
-6 -8 9 2 -3 -9 -11 4
-6 -8 9 2 -3 -9 -11 4
-6 -9 9 2 -3 -9 -11 4
-6 -9 9 2 -3 -9 -11 4
-6 -10 9 1 -2 -8 -10 5
-6 -10 9 1 -2 -8 -10 5
-6 -10 9 1 -2 -8 -10 6
-6 -10 9 1 -2 -8 -10 7
-6 -10 9 1 -2 -8 -10 7
-7 -9 10 1 -3 -8 -9 8
-7 -9 10 1 -3 -8 -9 8
-7 -9 10 1 -3 -7 -9 8
-7 -8 9 1 -2 -6 -8 9
-7 -8 9 1 -2 -6 -8 9
-7 -7 8 1 0 -5 -7 10
-7 -7 8 1 0 -5 -7 10
-7 -7 8 1 0 -5 -7 10
-7 -7 8 1 0 -5 -7 10
-7 -7 8 1 0 -5 -7 10
-6 -6 9 0 -2 -6 -8 9
-6 -6 9 0 -2 -6 -8 9
-6 -6 9 0 -2 -6 -8 9
-6 -5 9 0 0 -6 -8 9
-6 -5 9 0 0 -6 -8 9
-6 -4 8 1 1 -6 -7 9
-6 -4 8 1 1 -6 -7 9
-6 -4 8 1 1 -6 -7 9
-6 -4 8 0 0 -6 -7 9
-6 -4 8 0 0 -6 -7 9
-5 -4 7 -2 -2 -6 -6 9
-5 -4 7 -2 -2 -6 -6 9
-5 -4 7 -2 -2 -6 -6 9
-5 -4 7 -2 -2 -6 -6 8
-5 -4 7 -2 -2 -6 -6 8
-6 -3 7 -3 -2 -5 -6 7
-6 -3 7 -3 -2 -5 -6 7
-6 -3 7 -3 -2 -5 -6 7
-6 -3 7 -3 -2 -5 -6 7
-6 -3 7 -3 -2 -5 -6 7
-7 -4 7 -3 -2 -5 -6 7
-7 -4 7 -3 -2 -5 -6 7
-7 -4 7 -3 -2 -5 -6 7
-7 -4 7 -3 -3 -5 -6 7
-7 -4 7 -3 -3 -5 -6 7
-6 -4 7 -4 -4 -6 -5 7
-6 -4 7 -4 -4 -6 -5 6
-6 -4 7 -4 -4 -6 -5 6
-6 -4 7 -5 -4 -6 -5 5
-6 -4 7 -5 -4 -6 -5 4
-6 -3 7 -6 -4 -7 -5 3
-6 -3 7 -6 -4 -7 -5 3
-6 -3 7 -6 -4 -7 -6 3
-6 -3 6 -6 -5 -7 -7 3
-6 -3 6 -6 -5 -7 -7 3
-6 -3 5 -7 -6 -8 -8 2
-6 -3 5 -7 -6 -8 -8 2
-6 -3 5 -7 -6 -8 -8 2
-6 -3 5 -7 -6 -8 -8 2
-6 -3 5 -7 -6 -8 -8 2
-7 -4 6 -7 -7 -8 -9 2
-7 -4 6 -7 -7 -8 -9 2
-7 -4 6 -7 -7 -8 -9 2
-7 -4 6 -7 -7 -8 -8 2
-7 -4 6 -7 -7 -8 -8 2
-8 -4 6 -8 -7 -8 -7 3
-8 -4 6 -8 -7 -8 -7 3
-8 -4 6 -8 -7 -9 -8 2
-8 -4 6 -8 -8 -10 -9 1
-8 -4 6 -8 -8 -10 -9 1
-9 -5 5 -9 -9 -11 -10 0
-9 -5 5 -9 -9 -11 -10 0
-9 -5 5 -9 -9 -11 -10 0
-9 -5 5 -9 -9 -11 -10 0
-9 -5 5 -9 -9 -11 -10 0
-8 -5 6 -8 -8 -11 -11 1
-8 -5 6 -8 -8 -11 -11 1
-8 -5 6 -8 -8 -11 -11 1
-8 -5 6 -8 -8 -11 -10 2
-8 -5 6 -8 -8 -11 -10 2
-8 -6 6 -9 -8 -11 -9 3
-8 -6 6 -9 -8 -11 -9 3
-8 -5 6 -9 -8 -11 -9 3
-8 -4 5 -9 -8 -10 -9 3
-8 -4 5 -9 -8 -10 -9 3
-8 -3 4 -9 -8 -9 -9 4
-8 -3 4 -9 -8 -9 -10 4
-8 -3 4 -9 -8 -10 -11 4
-8 -4 5 -9 -8 -11 -12 4
-8 -4 5 -9 -8 -11 -13 4
-7 -5 6 -9 -8 -12 -14 3
-7 -5 6 -9 -8 -12 -14 3
-7 -5 6 -9 -8 -11 -14 3
-7 -4 6 -8 -8 -10 -13 3
-7 -4 6 -8 -8 -10 -13 3
-8 -3 6 -7 -8 -9 -12 3
-8 0 6 -7 -8 -9 -12 3
-8 1 7 -6 -7 -8 -11 3
-7 3 8 -5 -6 -7 -10 4
-7 4 8 -5 -6 -7 -10 4
-6 6 9 -4 -5 -6 -9 5
-6 6 9 -4 -5 -6 -9 5
-5 6 9 -3 -5 -6 -9 5
-5 6 9 -3 -4 -5 -8 5
-4 6 9 -2 -4 -5 -8 5
-3 7 10 0 -3 -4 -7 6
-3 8 10 0 -3 -4 -7 6
-3 9 10 0 -3 -4 -7 6
-3 10 11 0 -3 -4 -7 6
-3 11 11 0 -3 -4 -7 6
-4 12 12 0 -3 -4 -7 5
-3 13 10 0 -2 -3 -6 6
-2 13 9 0 -2 -2 -5 7
0 14 7 0 0 0 -4 8
1 15 6 0 1 1 -3 10
2 16 4 1 2 2 -2 11
2 17 4 1 2 2 -2 11
2 17 4 1 2 2 -2 11
2 18 3 1 2 2 -2 11
2 19 3 1 2 2 -2 11
3 20 2 1 1 2 -2 10
3 20 2 1 1 2 -3 10
4 20 2 1 1 2 -3 10
4 19 1 0 0 1 -4 10
5 19 1 0 0 1 -5 10
6 18 0 -2 -2 0 -6 9
7 17 0 0 -2 0 -6 9
8 17 0 0 -2 0 -5 9
9 16 1 1 0 1 -5 9
10 15 1 2 0 1 -4 9
11 14 2 3 1 2 -3 9
10 13 2 2 0 2 -3 8
8 12 2 1 -2 1 -3 7
7 11 2 0 -3 1 -4 6
5 9 2 -3 -4 0 -4 5
4 8 1 -4 -5 -2 -5 4
3 6 1 -5 -6 -4 -7 2
2 4 1 -6 -7 -6 -9 0
1 3 1 -7 -8 -7 -11 -2
-2 1 1 -8 -9 -9 -13 -4
-3 -2 2 -9 -10 -11 -15 -6
-4 -2 2 -9 -10 -11 -15 -6
-4 -3 2 -9 -10 -11 -15 -6
-5 -3 2 -10 -11 -11 -16 -6
-6 -4 2 -10 -11 -11 -16 -6
-7 -5 2 -11 -12 -12 -17 -7
-7 -5 2 -11 -12 -12 -17 -7
-7 -5 2 -11 -12 -12 -17 -7
-7 -5 2 -11 -12 -12 -17 -7
-7 -5 2 -11 -12 -12 -17 -7
-8 -6 1 -12 -12 -12 -16 -8
-8 -6 1 -12 -12 -12 -16 -8
-8 -6 2 -12 -12 -12 -16 -8
-8 -6 2 -11 -12 -12 -15 -9
-8 -6 3 -11 -12 -12 -15 -9
-9 -5 4 -10 -13 -12 -14 -10
-9 -5 4 -10 -13 -12 -14 -10
-8 -5 4 -10 -13 -12 -14 -10
-8 -5 4 -10 -13 -12 -15 -10
-7 -5 4 -10 -13 -12 -15 -10
-6 -6 4 -9 -12 -13 -16 -11
-6 -6 4 -9 -12 -13 -16 -11
-6 -6 4 -9 -12 -13 -16 -11
-6 -7 4 -9 -12 -12 -16 -11
-6 -7 4 -9 -12 -12 -16 -11
-7 -8 3 -9 -13 -11 -15 -10
-7 -8 3 -9 -13 -11 -15 -10
-7 -8 3 -9 -13 -11 -14 -10
-7 -7 3 -9 -13 -10 -14 -10
-7 -7 3 -9 -13 -10 -13 -10
-6 -6 4 -8 -10 -8 -11 -10
-4 -4 8 2 -3 -2 -6 -6
-2 -2 11 11 6 5 -2 -2
1 1 15 20 14 11 4 2
3 3 18 29 22 17 9 6
7 5 21 40 33 27 17 13
17 8 24 57 52 47 34 28
27 11 26 72 70 67 52 44
37 14 29 89 90 88 68 59
47 16 32 105 108 107 86 74
59 21 31 117 126 128 104 92
75 32 18 115 137 148 125 113
91 44 5 113 149 168 145 135
107 55 -8 111 161 188 165 155
123 66 -21 109 174 209 187 177
135 74 -36 96 175 216 196 190
131 72 -57 54 141 184 169 177
126 70 -78 11 108 152 142 163
120 69 -99 -32 74 120 114 150
116 67 -119 -75 42 89 88 137
106 60 -136 -117 2 52 56 115
82 36 -140 -161 -55 -3 13 68
59 13 -143 -204 -112 -57 -31 22
35 -11 -146 -247 -169 -111 -74 -25
12 -34 -149 -290 -225 -164 -118 -72
-7 -52 -150 -316 -263 -202 -150 -107
-10 -55 -139 -287 -242 -190 -143 -105
-12 -57 -128 -259 -222 -178 -137 -104
-14 -60 -116 -230 -201 -164 -131 -102
-17 -63 -105 -201 -181 -152 -123 -101
-19 -64 -94 -176 -160 -139 -116 -98
-18 -58 -81 -155 -144 -126 -106 -90
-16 -52 -69 -135 -128 -113 -96 -81
-15 -45 -58 -115 -110 -100 -85 -73
-14 -38 -46 -95 -94 -87 -74 -65
-12 -33 -35 -77 -79 -75 -65 -58
-12 -29 -30 -69 -71 -68 -59 -54
-11 -25 -25 -60 -63 -60 -53 -50
-10 -21 -20 -51 -55 -53 -46 -45
-9 -17 -14 -41 -47 -46 -39 -40
-8 -13 -10 -33 -39 -39 -34 -36
-8 -13 -7 -29 -35 -36 -32 -35
-8 -13 -4 -25 -31 -32 -29 -33
-8 -12 0 -21 -27 -29 -27 -32
-8 -12 2 -17 -23 -26 -24 -31
-8 -11 5 -13 -20 -23 -22 -29
-8 -11 5 -12 -19 -22 -21 -29
-8 -11 6 -10 -18 -21 -20 -29
-8 -10 6 -9 -17 -20 -19 -29
-8 -10 7 -8 -15 -19 -17 -29
-8 -9 8 -6 -14 -18 -16 -28
-8 -9 8 -6 -14 -18 -16 -28
-8 -9 8 -5 -13 -18 -16 -27
-8 -9 8 -5 -13 -17 -15 -26
-8 -9 8 -4 -12 -17 -15 -25
-7 -10 9 -3 -11 -16 -14 -24
-7 -10 9 -2 -10 -15 -13 -24
-7 -9 10 0 -9 -14 -12 -24
-7 -9 10 1 -8 -13 -11 -23
-7 -8 11 2 -7 -11 -10 -23
-7 -7 12 3 -6 -10 -9 -22
-7 -7 12 3 -6 -10 -9 -22
-7 -7 12 3 -6 -11 -9 -22
-7 -7 13 4 -7 -11 -10 -23
-7 -7 13 4 -7 -12 -10 -23
-7 -7 14 5 -8 -13 -11 -24
-7 -7 14 5 -8 -13 -11 -24
-6 -7 13 5 -8 -13 -11 -24
-5 -7 13 5 -7 -13 -11 -25
-4 -7 12 5 -7 -13 -11 -25
-3 -6 11 5 -6 -14 -12 -26
-3 -6 11 5 -6 -14 -12 -26
-3 -6 11 6 -6 -13 -12 -26
-3 -6 12 6 -5 -13 -11 -25
-3 -6 12 7 -5 -12 -11 -25
-3 -6 13 8 -4 -11 -10 -24
-3 -6 13 8 -4 -11 -10 -24
-3 -6 13 9 -3 -10 -10 -24
-3 -7 13 10 -3 -10 -9 -24
-3 -7 13 11 -2 -9 -9 -24
-3 -8 14 12 0 -8 -8 -23
-3 -8 14 12 0 -8 -8 -23
-3 -7 14 12 0 -8 -8 -23
-3 -6 14 12 0 -8 -8 -24
-3 -5 14 12 0 -8 -8 -24
-3 -4 13 12 0 -8 -7 -25
-3 -4 13 12 0 -8 -7 -25
-3 -4 13 13 1 -8 -6 -24
-3 -4 13 14 1 -7 -6 -23
-3 -4 13 15 2 -7 -5 -22
-3 -4 13 16 3 -6 -4 -21
-2 -4 13 16 3 -6 -4 -21
0 -4 13 16 3 -6 -4 -21
1 -4 13 16 3 -6 -4 -21
3 -4 13 16 3 -6 -4 -21
4 -4 12 17 4 -5 -4 -21
4 -4 12 17 5 -5 -4 -21
4 -3 12 18 6 -4 -3 -20
4 -2 12 19 7 -3 -2 -19
4 0 12 20 8 -2 0 -18
4 1 13 21 9 0 1 -17
5 1 13 21 9 0 1 -17
6 2 13 22 9 1 2 -17
7 2 13 22 9 2 2 -17
8 3 13 23 9 3 3 -17
9 4 12 24 10 4 4 -17
9 4 12 25 11 5 5 -16
9 4 12 26 12 6 7 -15
9 4 12 27 13 7 8 -14
9 4 12 28 15 8 9 -12
8 5 12 29 16 9 11 -11
9 6 12 29 16 9 11 -11
10 7 12 29 17 9 11 -11
11 8 12 30 17 10 11 -11
12 10 12 30 18 10 11 -11
13 11 12 31 19 11 12 -11
14 11 12 32 20 12 13 -10
15 11 12 33 21 13 14 -9
16 11 11 34 22 14 15 -8
17 11 11 36 23 16 16 -7
18 10 10 37 24 17 17 -6
18 11 10 37 24 17 17 -6
18 12 9 37 25 17 18 -6
18 13 9 37 26 17 18 -6
18 14 8 37 27 17 19 -6
19 15 7 38 28 18 20 -6
19 15 7 39 29 18 20 -6
20 15 7 40 30 19 20 -6
21 16 7 42 31 20 20 -5
22 16 7 43 32 21 20 -5
23 17 6 44 33 22 21 -4
23 17 6 44 33 23 22 -3
23 17 6 44 34 24 23 0
24 17 6 44 34 25 24 1
24 17 6 44 35 26 26 2
25 18 6 44 36 27 27 4
25 18 6 44 36 27 27 4
25 18 6 44 37 28 27 4
25 19 6 45 37 28 28 3
25 19 6 45 38 29 28 3
25 20 5 46 39 30 29 2
25 21 5 46 39 30 29 2
25 22 5 46 39 30 30 2
25 23 4 46 39 31 31 2
25 24 4 46 39 31 32 2
24 25 3 45 40 32 33 3
24 24 3 45 40 31 31 3
24 23 3 45 39 29 29 2
24 22 3 45 39 27 27 2
24 21 3 45 38 26 24 1
23 19 4 44 37 24 22 0
23 19 4 44 37 24 22 0
22 19 4 43 37 24 23 -2
21 18 4 43 36 24 24 -2
20 18 4 42 36 24 25 -3
19 17 3 40 35 24 26 -4
19 17 3 39 34 23 24 -5
18 16 3 38 32 22 23 -7
18 16 4 37 31 21 21 -8
17 15 4 36 30 20 19 -9
16 14 5 35 28 18 17 -11
16 13 5 34 27 17 17 -11
15 12 5 32 26 16 16 -12
14 11 6 30 25 15 16 -12
13 10 6 29 24 14 15 -13
12 9 7 27 23 13 14 -14
11 9 7 26 22 13 14 -15
10 8 7 25 21 13 14 -16
9 8 7 23 19 13 14 -17
8 7 7 22 18 13 14 -18
6 6 7 20 16 13 14 -19
6 5 7 19 15 10 11 -20
6 4 7 18 13 8 9 -21
6 2 7 17 11 5 6 -23
6 1 7 16 10 2 3 -24
5 -2 7 14 8 -2 0 -26
5 -2 7 14 7 -2 0 -26
4 -3 7 13 6 -2 0 -26
3 -4 8 12 5 -2 0 -27
2 -5 8 11 4 -2 0 -27
1 -6 9 10 3 0 1 -28
1 -6 9 10 2 -3 -2 -29
0 -6 9 9 1 -4 -3 -30
0 -6 9 8 -2 -6 -5 -31
-2 -6 9 7 -3 -8 -7 -32
-3 -7 9 6 -5 -10 -9 -34
-3 -7 9 6 -5 -10 -9 -34
-3 -8 9 6 -5 -10 -9 -34
-4 -9 8 6 -5 -11 -10 -34
-4 -10 8 6 -5 -11 -10 -34
-5 -11 7 6 -5 -12 -11 -35
-5 -11 7 6 -5 -12 -11 -35
-5 -12 7 6 -5 -12 -11 -35
-5 -12 8 5 -5 -11 -11 -35
-5 -13 8 5 -5 -11 -11 -35
-6 -14 9 4 -5 -10 -11 -36
-6 -14 9 4 -5 -10 -11 -36
-6 -13 9 4 -5 -11 -11 -37
-6 -12 8 4 -6 -11 -11 -37
-6 -11 8 4 -6 -12 -11 -38
-7 -10 7 4 -7 -13 -12 -39
-7 -10 7 4 -7 -13 -12 -39
-7 -10 7 4 -7 -13 -12 -39
-7 -11 7 4 -7 -13 -12 -39
-7 -11 7 4 -7 -13 -12 -39
-7 -12 8 5 -6 -14 -13 -40
-7 -12 8 5 -6 -14 -13 -40
-8 -12 8 5 -6 -14 -13 -40
-8 -12 8 5 -6 -14 -12 -40
-9 -12 8 5 -6 -14 -12 -40
-10 -12 9 5 -6 -14 -11 -40
-10 -12 9 5 -6 -14 -11 -40
-10 -12 9 5 -6 -14 -11 -40
-9 -12 9 5 -6 -14 -11 -40
-9 -12 9 5 -6 -14 -11 -40
-8 -11 8 4 -5 -13 -12 -40
-8 -11 8 4 -5 -13 -12 -40
-8 -11 8 4 -5 -13 -12 -40
-8 -11 8 4 -5 -13 -12 -40
-8 -11 8 4 -5 -13 -12 -40
-9 -11 8 4 -6 -14 -12 -40
-9 -11 8 4 -6 -14 -12 -40
-9 -10 8 4 -6 -14 -12 -40
-9 -10 8 5 -6 -14 -12 -40
-9 -9 8 5 -6 -14 -12 -40
-10 -8 8 6 -5 -15 -12 -39
-10 -8 8 6 -5 -15 -12 -39
-10 -9 8 6 -5 -15 -12 -39
-10 -9 8 6 -5 -15 -12 -39
-10 -10 8 6 -5 -15 -12 -39
-10 -11 7 6 -6 -14 -13 -39
-10 -11 7 6 -6 -14 -13 -38
-10 -10 7 6 -6 -14 -12 -37
-10 -10 7 6 -6 -13 -12 -36
-10 -9 7 6 -6 -13 -11 -35
-9 -8 8 6 -5 -12 -10 -34
-9 -8 8 6 -5 -12 -10 -34
-9 -8 8 6 -5 -12 -10 -34
-8 -8 8 5 -5 -12 -9 -33
-8 -8 8 5 -5 -12 -9 -33
-7 -8 7 4 -5 -11 -8 -32
-7 -8 7 4 -5 -11 -8 -32
-7 -8 7 4 -5 -11 -9 -32
-8 -8 7 4 -5 -12 -9 -32
-8 -8 7 4 -5 -12 -10 -32
-9 -7 8 3 -5 -13 -11 -33
-9 -7 8 3 -5 -13 -11 -33
-9 -7 8 3 -6 -13 -11 -32
-9 -8 8 3 -6 -13 -11 -31
-9 -8 8 3 -7 -13 -11 -30
-9 -9 7 4 -8 -13 -12 -29
-9 -9 7 4 -8 -13 -12 -29
-9 -8 7 4 -8 -12 -11 -29
-9 -8 7 4 -7 -12 -10 -29
-9 -7 7 4 -7 -11 -9 -29
-9 -6 6 3 -6 -10 -8 -28
-9 -6 6 3 -6 -11 -9 -28
-9 -6 6 3 -7 -12 -10 -28
-9 -6 6 3 -7 -13 -11 -28
-9 -6 6 3 -8 -14 -12 -28
-8 -7 5 2 -9 -15 -14 -29
-8 -7 5 2 -9 -15 -14 -29
-8 -8 5 2 -9 -15 -14 -29
-8 -8 5 2 -10 -15 -15 -29
-8 -9 5 2 -10 -15 -15 -29
-9 -10 6 2 -11 -15 -16 -28
-9 -10 6 2 -11 -15 -15 -28
-9 -10 6 2 -11 -15 -14 -28
-9 -10 6 1 -11 -15 -12 -28
-9 -10 6 1 -11 -15 -11 -28
-10 -9 5 0 -11 -14 -9 -27
-10 -9 5 0 -11 -14 -10 -27
