I II V1 V2 V3 V4 V5 V6
-10 -15 4 1 -6 -8 -8 -7
-10 -15 4 1 -6 -8 -8 -7
-10 -15 4 1 -6 -8 -8 -7
-10 -15 3 1 -6 -8 -8 -7
-10 -15 3 1 -6 -8 -8 -7
-10 -15 3 1 -6 -8 -8 -7
-10 -16 2 0 -7 -8 -8 -8
-10 -16 2 0 -7 -8 -8 -8
-10 -16 2 0 -7 -9 -9 -8
-10 -16 2 0 -7 -9 -9 -8
-10 -16 2 0 -7 -9 -9 -8
-11 -17 3 0 -7 -10 -10 -9
-11 -17 3 0 -7 -10 -10 -9
-11 -17 3 0 -8 -10 -10 -9
-11 -17 3 0 -8 -10 -10 -9
-11 -17 3 0 -8 -10 -10 -9
-11 -16 3 -2 -9 -11 -10 -10
-11 -16 3 -2 -9 -11 -10 -10
-11 -17 3 -2 -9 -11 -11 -10
-11 -17 3 -2 -9 -11 -11 -10
-11 -17 3 -2 -9 -11 -11 -10
-10 -18 3 0 -9 -12 -12 -11
-10 -17 3 0 -9 -12 -12 -11
-10 -17 3 0 -9 -11 -12 -11
-10 -16 3 0 -9 -11 -12 -11
-10 -16 3 0 -9 -11 -12 -11
-11 -15 3 -2 -9 -10 -12 -11
-11 -16 3 -2 -9 -10 -12 -11
-11 -16 3 -2 -9 -10 -12 -12
-11 -17 3 -2 -9 -10 -12 -12
-11 -17 3 -2 -9 -10 -12 -12
-11 -18 4 0 -9 -9 -13 -13
-11 -18 4 0 -9 -9 -12 -13
-11 -18 4 0 -9 -9 -12 -12
-11 -18 4 0 -9 -9 -11 -12
-11 -18 4 0 -9 -9 -11 -12
-11 -17 4 1 -8 -9 -10 -11
-11 -17 4 1 -8 -9 -10 -11
-11 -17 5 1 -8 -9 -10 -11
-11 -17 5 1 -8 -9 -10 -11
-11 -17 5 1 -8 -9 -10 -11
-11 -16 6 2 -8 -8 -11 -12
-11 -16 5 2 -8 -8 -11 -12
-11 -17 4 2 -8 -8 -11 -12
-11 -17 3 2 -8 -8 -11 -12
-11 -17 3 2 -8 -8 -11 -12
-11 -18 2 1 -8 -9 -11 -12
-11 -17 2 1 -8 -9 -11 -12
-11 -17 2 1 -8 -9 -10 -11
-11 -16 2 1 -8 -9 -10 -11
-11 -16 2 1 -8 -9 -10 -11
-10 -15 3 2 -8 -9 -9 -10
-10 -15 3 2 -8 -9 -9 -10
-9 -15 4 2 -7 -8 -9 -9
-9 -15 4 2 -7 -8 -9 -9
-9 -15 4 2 -7 -8 -9 -9
-8 -14 5 2 -6 -7 -9 -8
-8 -14 5 2 -6 -7 -9 -8
-9 -14 5 2 -7 -7 -9 -8
-9 -14 5 2 -7 -7 -9 -8
-9 -14 5 2 -7 -7 -9 -8
-10 -14 4 1 -8 -8 -9 -8
-10 -14 4 1 -8 -8 -9 -8
-9 -14 4 1 -8 -8 -9 -8
-9 -14 4 1 -8 -8 -9 -8
-9 -14 4 1 -8 -8 -9 -8
-8 -14 3 0 -7 -7 -9 -7
-8 -14 2 0 -8 -7 -9 -7
-8 -14 2 0 -8 -7 -9 -8
-8 -14 1 0 -9 -7 -9 -8
-8 -14 1 0 -9 -7 -9 -8
-9 -14 0 -2 -10 -7 -10 -9
-9 -14 0 -2 -10 -7 -10 -9
-9 -14 0 -2 -10 -7 -10 -9
-9 -14 0 -2 -10 -7 -10 -9
-9 -14 0 -2 -10 -7 -10 -9
-8 -15 1 -2 -9 -7 -10 -10
-8 -15 1 -2 -9 -7 -10 -10
-8 -15 1 -2 -9 -7 -10 -10
-8 -15 1 -2 -9 -7 -10 -10
-8 -15 1 -2 -9 -7 -10 -10
-9 -14 1 -3 -10 -8 -10 -10
-9 -14 1 -3 -10 -8 -10 -10
-9 -14 1 -3 -10 -7 -10 -10
-9 -14 1 -3 -10 -7 -10 -10
-9 -14 1 -3 -10 -7 -10 -10
-9 -14 1 -2 -10 -6 -9 -11
-9 -14 1 -2 -10 -6 -9 -11
-9 -14 1 -2 -10 -7 -9 -11
-9 -14 1 -2 -10 -7 -9 -11
-9 -14 1 -2 -10 -7 -9 -11
-10 -15 0 -3 -10 -8 -10 -12
-10 -15 0 -3 -10 -7 -10 -12
-10 -15 0 -3 -10 -7 -9 -12
-10 -15 0 -3 -10 -6 -9 -12
-10 -15 0 -3 -10 -6 -9 -12
-10 -16 0 -4 -9 -5 -8 -11
-10 -16 0 -4 -9 -5 -8 -11
-10 -16 0 -4 -9 -6 -8 -11
-10 -16 0 -4 -9 -6 -8 -11
-10 -16 0 -4 -9 -6 -8 -11
-10 -16 1 -4 -10 -7 -9 -12
-10 -16 1 -4 -10 -7 -9 -11
-10 -15 1 -4 -10 -7 -9 -11
-10 -15 1 -4 -10 -7 -9 -10
-10 -15 1 -4 -10 -7 -9 -10
-9 -14 1 -3 -10 -7 -8 -9
-9 -14 1 -3 -10 -7 -8 -9
-9 -15 1 -3 -10 -7 -9 -9
-9 -15 1 -3 -10 -7 -9 -9
-9 -15 1 -3 -10 -7 -9 -9
-10 -16 1 -4 -10 -6 -10 -10
-10 -16 1 -4 -10 -6 -10 -10
-10 -15 1 -4 -10 -6 -9 -11
-10 -15 1 -4 -10 -6 -9 -11
-10 -15 1 -4 -10 -6 -9 -11
-10 -14 2 -3 -10 -5 -8 -12
-10 -14 2 -3 -10 -5 -8 -11
-9 -14 3 -2 -10 -5 -8 -11
-9 -14 3 -2 -10 -5 -8 -10
-9 -14 3 -2 -10 -5 -8 -10
-8 -12 4 0 -9 -5 -7 -9
-8 -11 5 1 -8 -4 -6 -9
-8 -10 6 1 -8 -3 -5 -9
-8 -9 7 2 -7 -2 -4 -9
-8 -8 7 2 -7 -2 -4 -9
-8 -7 8 3 -6 0 -3 -8
-8 -6 9 3 -5 0 -3 -8
-8 -5 10 4 -4 1 -2 -7
-8 -4 11 4 -3 1 -2 -7
-8 -3 12 4 -3 1 -2 -7
-6 0 13 5 -2 2 0 -6
-5 1 12 5 0 3 1 -5
-3 2 11 5 0 3 2 -4
-2 3 10 5 1 4 3 -3
0 4 10 5 1 4 3 -3
1 5 9 6 2 5 4 -2
1 5 8 6 2 5 4 -2
1 4 7 6 2 5 4 0
1 4 6 6 2 5 4 0
1 4 6 6 2 5 4 0
1 2 5 4 2 5 3 1
0 1 4 2 1 4 3 1
0 0 3 1 0 3 2 1
-2 -2 2 -2 -2 2 2 1
-2 -3 2 -3 -3 2 2 1
-3 -5 1 -4 -5 1 1 0
-3 -6 0 -5 -6 0 0 -2
-3 -7 0 -5 -7 -2 -2 -3
-3 -8 -2 -6 -8 -3 -3 -4
-3 -9 -2 -6 -9 -4 -4 -5
-4 -10 -3 -7 -10 -5 -5 -6
-5 -11 -3 -7 -10 -5 -5 -6
-6 -11 -3 -7 -10 -5 -6 -7
-7 -12 -3 -7 -10 -5 -6 -7
-7 -12 -3 -7 -10 -5 -6 -7
-8 -13 -3 -8 -11 -6 -7 -8
-8 -13 -3 -8 -11 -6 -7 -9
-8 -13 -3 -8 -11 -7 -8 -9
-8 -13 -3 -8 -11 -7 -8 -10
-8 -13 -3 -8 -11 -7 -8 -10
-9 -14 -3 -8 -12 -8 -9 -11
-9 -14 -3 -8 -12 -9 -10 -11
-10 -14 -3 -9 -13 -9 -10 -11
-10 -14 -3 -9 -13 -10 -11 -11
-10 -14 -3 -9 -13 -10 -11 -11
-11 -15 -4 -10 -14 -11 -12 -12
-11 -15 -4 -10 -14 -11 -12 -12
-11 -15 -4 -10 -15 -11 -12 -12
-11 -15 -4 -10 -15 -11 -12 -12
-11 -15 -4 -10 -15 -11 -12 -12
-12 -16 -5 -11 -16 -11 -13 -13
-12 -16 -5 -11 -16 -11 -12 -13
-12 -15 -5 -11 -16 -11 -12 -13
-12 -15 -5 -11 -16 -11 -11 -13
-12 -15 -5 -11 -16 -11 -11 -13
-11 -14 -4 -12 -15 -10 -10 -13
-11 -14 -4 -12 -15 -10 -10 -13
-11 -14 -4 -11 -15 -10 -10 -13
-11 -14 -4 -11 -15 -10 -10 -13
-11 -14 -4 -11 -15 -10 -10 -13
-11 -15 -3 -10 -15 -10 -11 -13
-11 -14 -3 -10 -14 -10 -10 -13
-11 -13 -3 -10 -14 -10 -10 -12
-11 -12 -3 -10 -13 -10 -9 -12
-11 -12 -3 -10 -13 -10 -9 -12
-10 -13 -3 -9 -12 -10 -10 -13
-9 -17 -2 -7 -12 -10 -12 -17
-8 -20 1 -4 -12 -11 -15 -20
-6 -24 3 0 -12 -11 -18 -24
-5 -27 4 2 -12 -11 -20 -27
0 -25 10 11 -5 -7 -17 -26
4 -20 17 22 6 0 -13 -23
7 -15 24 32 15 6 -8 -20
11 -11 31 43 25 12 -3 -17
15 -6 37 54 35 19 3 -14
26 16 40 63 56 44 28 8
38 40 42 72 77 71 58 33
51 66 43 81 100 100 88 59
63 91 45 91 121 129 118 85
75 116 46 100 144 156 148 110
85 139 32 84 148 171 170 133
93 161 14 61 149 183 191 155
102 183 -5 38 150 195 212 177
110 205 -23 16 151 207 232 199
119 228 -41 -7 151 220 253 222
107 215 -52 -23 131 198 231 207
90 194 -61 -39 105 169 200 184
72 174 -69 -55 78 140 170 160
55 152 -78 -71 52 111 140 138
36 132 -88 -87 26 81 109 114
26 106 -89 -92 5 54 79 89
16 80 -86 -95 -16 27 51 63
6 54 -83 -97 -37 0 22 36
-4 27 -80 -100 -58 -27 -7 10
-14 2 -78 -103 -78 -55 -36 -16
-15 -7 -71 -95 -76 -57 -40 -22
-13 -12 -63 -82 -68 -52 -37 -23
-11 -16 -55 -71 -60 -48 -35 -24
-9 -20 -48 -59 -53 -44 -33 -26
-7 -25 -39 -48 -45 -38 -31 -27
-6 -25 -32 -39 -38 -34 -28 -27
-6 -22 -26 -31 -32 -29 -25 -24
-7 -20 -20 -24 -27 -25 -21 -22
-7 -17 -14 -17 -21 -21 -18 -20
-7 -15 -8 -10 -16 -16 -15 -18
-8 -14 -5 -8 -14 -15 -14 -17
-8 -13 -4 -7 -13 -14 -13 -16
-9 -13 -3 -6 -12 -14 -13 -16
-9 -12 0 -5 -11 -13 -12 -15
-9 -12 1 -4 -10 -13 -12 -15
-10 -11 2 -3 -9 -12 -11 -14
-10 -11 3 0 -8 -12 -11 -14
-10 -12 3 1 -8 -12 -11 -14
-10 -12 4 2 -7 -12 -11 -14
-10 -12 4 3 -7 -12 -11 -14
-10 -13 5 4 -6 -11 -10 -14
-10 -13 5 4 -6 -11 -10 -14
-9 -12 5 3 -5 -11 -10 -14
-9 -12 5 3 -5 -11 -10 -14
-9 -12 5 3 -5 -11 -10 -14
-8 -11 4 2 -4 -10 -10 -14
-8 -11 5 3 -4 -10 -10 -14
-8 -10 5 3 -4 -10 -10 -14
-8 -10 6 4 -4 -10 -10 -14
-8 -10 6 4 -4 -10 -10 -14
-7 -9 7 5 -4 -11 -10 -13
-7 -9 7 5 -4 -11 -10 -13
-7 -9 6 5 -4 -11 -10 -13
-7 -9 6 5 -4 -11 -10 -13
-7 -9 6 5 -4 -11 -10 -13
-7 -9 5 4 -4 -10 -9 -13
-7 -9 5 4 -4 -10 -9 -13
-7 -9 5 5 -4 -10 -9 -13
-7 -9 5 5 -4 -10 -9 -13
-7 -9 5 5 -4 -10 -9 -13
-7 -9 6 6 -4 -10 -9 -13
-7 -9 6 6 -3 -9 -8 -12
-7 -9 7 7 -2 -8 -7 -12
-7 -9 7 7 0 -7 -6 -11
-7 -9 7 7 0 -7 -6 -11
-7 -10 8 8 1 -6 -5 -10
-7 -9 8 8 1 -7 -5 -10
-7 -9 8 8 1 -7 -6 -10
-7 -8 8 8 1 -8 -6 -10
-7 -8 8 8 1 -8 -6 -10
-6 -7 7 9 1 -9 -7 -10
-6 -7 7 9 2 -8 -6 -9
-6 -7 7 9 3 -7 -6 -9
-6 -7 7 9 4 -6 -5 -8
-6 -7 7 9 4 -6 -5 -8
-5 -6 7 10 5 -5 -4 -7
-4 -6 7 10 5 -5 -4 -7
-4 -5 7 11 5 -6 -4 -7
-3 -5 7 11 5 -6 -4 -7
-3 -5 7 11 5 -6 -4 -7
-2 -4 7 12 4 -7 -5 -8
-2 -4 8 13 5 -6 -4 -7
-2 -4 8 13 6 -5 -3 -6
-2 -4 9 14 7 -4 -2 -5
-2 -4 9 14 7 -4 -2 -5
-2 -5 10 15 8 -3 0 -4
0 -4 10 15 8 -3 0 -4
1 -3 10 15 8 -3 0 -4
2 -2 10 15 8 -3 0 -4
3 0 10 15 8 -3 0 -4
4 1 9 16 8 -4 0 -4
4 1 9 17 9 -3 1 -4
4 2 9 17 10 -2 2 -4
4 2 9 18 12 0 3 -4
4 2 9 18 13 1 3 -4
3 3 9 19 14 2 4 -3
3 4 9 20 14 2 4 -3
4 5 10 20 14 3 5 -2
4 6 10 21 14 3 5 -2
4 6 10 21 14 3 5 -2
5 7 11 22 15 5 6 0
6 8 11 23 17 6 7 2
7 9 11 24 18 7 8 3
8 10 11 25 19 9 9 4
8 10 11 25 20 10 10 5
9 11 11 26 21 11 11 6
10 12 11 26 21 11 12 6
10 13 11 26 21 11 13 6
11 14 11 26 21 11 14 6
11 14 11 26 21 11 15 6
12 16 11 26 22 12 16 6
13 17 11 26 22 12 17 7
14 18 11 26 23 13 17 8
15 20 11 26 23 13 18 9
15 21 11 26 23 13 18 10
16 22 10 25 24 14 19 11
16 22 10 25 24 14 19 11
16 22 10 25 24 15 20 12
16 22 10 25 24 15 20 12
16 22 10 25 24 15 20 12
16 21 9 24 24 16 21 13
16 22 8 23 23 16 21 14
16 22 8 22 23 16 21 14
16 23 7 21 22 16 21 15
16 23 7 20 22 16 21 15
16 24 6 19 21 15 21 16
16 24 6 18 20 15 21 16
16 25 5 17 20 14 21 17
16 25 5 17 19 14 21 17
16 25 5 16 19 14 21 17
15 26 4 15 18 13 20 18
14 26 4 14 16 12 19 18
14 26 3 13 15 12 18 18
13 26 3 13 14 11 18 18
13 26 3 12 13 11 17 18
12 24 2 11 12 10 16 17
11 23 2 10 11 9 15 16
10 21 2 9 11 8 15 16
10 20 2 9 10 7 14 15
9 18 2 8 10 6 14 15
8 17 2 7 9 5 12 13
6 16 2 7 8 4 11 11
5 16 2 7 7 3 10 10
4 15 2 7 6 2 8 8
3 15 2 7 5 1 7 6
2 13 1 6 4 0 6 5
1 11 1 6 3 -2 5 4
1 9 1 5 3 -2 4 3
0 7 1 5 2 -3 3 3
0 5 1 5 2 -3 2 2
-2 3 1 4 1 -4 1 1
-3 2 1 3 1 -6 0 1
-3 1 1 2 0 -7 -2 0
-4 -2 1 2 0 -8 -2 0
-4 -3 1 1 0 -9 -3 0
-5 -4 0 0 -2 -10 -4 -2
-5 -5 0 0 -3 -10 -5 -3
-5 -5 0 0 -3 -11 -6 -4
-5 -6 0 0 -4 -11 -7 -5
-5 -6 0 0 -4 -11 -8 -6
-6 -7 -2 -2 -5 -12 -9 -7
-6 -7 -2 -2 -5 -12 -9 -7
-7 -8 -2 -2 -5 -13 -9 -7
-7 -8 -2 -2 -5 -13 -9 -7
-7 -8 -2 -2 -5 -13 -9 -7
-8 -9 -2 -2 -6 -14 -9 -8
-8 -9 -2 -2 -6 -14 -9 -8
-8 -10 -2 -2 -6 -14 -9 -8
-8 -10 -2 -2 -6 -14 -9 -8
-8 -10 -2 -2 -6 -14 -9 -8
-9 -11 -2 -3 -7 -14 -10 -9
-9 -11 -2 -3 -7 -14 -10 -9
-9 -10 -2 -3 -7 -14 -10 -9
-9 -10 -2 -3 -7 -14 -10 -9
-9 -10 -2 -3 -7 -14 -10 -9
-9 -9 -2 -3 -7 -15 -10 -9
-9 -9 -2 -3 -7 -15 -10 -9
-9 -9 -3 -4 -7 -15 -10 -8
-9 -9 -3 -4 -7 -15 -10 -8
-9 -9 -3 -4 -7 -15 -10 -8
-8 -9 -4 -5 -8 -15 -10 -7
-8 -11 -4 -5 -8 -15 -10 -7
-8 -12 -3 -4 -8 -14 -10 -7
-8 -13 -3 -4 -8 -14 -10 -7
-8 -14 -3 -4 -8 -14 -10 -7
-9 -15 -2 -3 -7 -13 -9 -6
-9 -13 -2 -3 -7 -14 -9 -6
-8 -12 -2 -4 -7 -14 -10 -7
-8 -10 -2 -4 -7 -15 -10 -7
-8 -9 -2 -4 -7 -15 -10 -7
-7 -8 -3 -5 -8 -16 -11 -8
-7 -10 -3 -5 -8 -16 -11 -8
-8 -11 -2 -4 -7 -15 -11 -8
-8 -13 -2 -4 -7 -15 -11 -8
-8 -14 -2 -4 -7 -15 -11 -8
-9 -15 0 -3 -6 -14 -10 -9
-9 -15 0 -3 -7 -14 -10 -9
-9 -14 0 -4 -7 -14 -10 -9
-9 -14 0 -4 -8 -14 -10 -9
-9 -14 0 -4 -8 -14 -10 -9
-10 -13 -2 -5 -9 -14 -11 -10
-10 -13 -2 -5 -9 -14 -11 -10
-10 -13 -2 -5 -9 -14 -11 -10
-10 -13 -2 -5 -9 -14 -11 -10
-10 -13 -2 -5 -9 -14 -11 -10
-11 -14 0 -5 -9 -14 -12 -11
-11 -14 0 -5 -9 -14 -12 -11
-11 -14 0 -5 -9 -14 -12 -11
-11 -14 0 -5 -9 -14 -12 -11
-11 -14 0 -5 -9 -14 -12 -11
-11 -15 0 -4 -10 -14 -12 -10
-11 -15 0 -4 -9 -14 -12 -10
-11 -15 0 -4 -9 -14 -12 -11
-11 -15 0 -4 -8 -14 -12 -11
-11 -15 0 -4 -8 -14 -12 -11
-11 -14 1 -3 -7 -13 -12 -12
-11 -14 1 -3 -7 -13 -12 -12
-11 -14 1 -2 -7 -13 -12 -12
-11 -14 1 -2 -7 -13 -12 -12
-11 -14 1 -2 -7 -13 -12 -12
-11 -14 2 0 -8 -13 -12 -11
-11 -14 2 0 -8 -13 -12 -11
-11 -14 2 0 -7 -13 -12 -10
-11 -14 2 0 -7 -13 -12 -10
-11 -14 2 0 -7 -13 -12 -10
-10 -14 1 0 -6 -13 -12 -9
-10 -14 1 0 -6 -13 -12 -9
-10 -14 1 0 -6 -13 -11 -9
-10 -14 1 0 -6 -13 -11 -9
-10 -14 1 0 -6 -13 -11 -9
-10 -15 2 0 -6 -12 -10 -9
-10 -15 2 0 -6 -12 -10 -9
-10 -15 2 0 -6 -12 -10 -9
-10 -15 2 0 -6 -12 -10 -9
-10 -15 2 0 -6 -12 -10 -9
-9 -15 2 1 -6 -12 -10 -8
-9 -15 2 1 -6 -12 -10 -8
-8 -14 1 0 -6 -12 -11 -8
-8 -13 1 0 -6 -12 -11 -8
-8 -13 1 0 -6 -12 -11 -8
-7 -12 0 -2 -7 -13 -12 -8
-7 -12 0 -2 -7 -13 -12 -8
-7 -12 0 -2 -7 -13 -12 -8
-7 -12 0 -2 -7 -13 -12 -8
-7 -12 0 -2 -7 -13 -12 -8
-8 -12 -2 -2 -8 -13 -11 -9
-8 -12 -2 -2 -8 -13 -11 -9
-8 -13 -2 -2 -8 -13 -11 -8
-8 -14 -2 -2 -8 -13 -11 -7
-8 -14 -2 -2 -8 -13 -11 -7
-9 -15 -2 -3 -8 -12 -11 -6
-9 -14 -2 -3 -8 -12 -11 -6
-9 -13 -2 -4 -8 -12 -11 -7
-9 -13 -2 -4 -8 -12 -11 -7
-9 -12 -2 -4 -8 -12 -11 -7
-9 -11 -3 -5 -9 -13 -11 -8
-9 -11 -3 -5 -9 -13 -11 -8
-8 -11 -3 -5 -9 -13 -12 -8
-7 -11 -3 -5 -9 -13 -12 -8
-7 -11 -3 -5 -9 -13 -12 -8
-6 -11 -4 -6 -10 -14 -13 -9
-6 -11 -4 -6 -10 -14 -13 -9
-7 -12 -4 -6 -10 -14 -13 -9
-8 -12 -4 -6 -10 -14 -13 -9
-8 -12 -4 -6 -10 -14 -13 -9
-9 -13 -3 -6 -11 -14 -13 -8
-9 -13 -3 -6 -11 -14 -13 -8
-9 -13 -3 -6 -11 -14 -13 -8
-9 -13 -3 -6 -11 -14 -13 -8
-9 -13 -3 -6 -11 -14 -13 -8
-10 -14 -3 -5 -10 -13 -12 -9
-10 -14 -3 -5 -10 -13 -12 -9
-9 -14 -3 -5 -10 -13 -12 -9
-9 -14 -3 -5 -10 -13 -12 -9
-9 -14 -3 -5 -10 -13 -12 -9
-8 -13 -3 -6 -11 -12 -11 -9
-8 -13 -3 -6 -11 -12 -11 -9
-8 -14 -3 -6 -11 -12 -11 -10
-8 -14 -3 -6 -11 -12 -11 -10
-8 -14 -3 -6 -11 -12 -11 -10
-9 -15 -3 -7 -11 -12 -12 -11
-9 -15 -3 -7 -11 -12 -12 -11
-9 -15 -3 -7 -11 -12 -12 -10
-9 -15 -3 -7 -11 -12 -12 -10
-9 -15 -3 -7 -11 -12 -12 -10
-10 -14 -3 -7 -11 -11 -11 -9
-10 -14 -3 -7 -11 -11 -11 -9
-10 -14 -3 -7 -11 -12 -12 -10
-10 -14 -3 -7 -11 -12 -12 -10
-10 -14 -3 -7 -11 -12 -12 -10
-11 -14 -4 -8 -12 -13 -13 -11
-11 -14 -4 -8 -12 -13 -13 -11
-10 -14 -3 -8 -12 -12 -13 -11
-10 -14 -3 -8 -12 -11 -13 -11
-10 -14 -3 -8 -12 -11 -13 -11
-9 -15 -2 -7 -12 -10 -12 -10
-9 -15 -2 -7 -12 -10 -12 -10
-9 -14 -2 -8 -12 -10 -12 -10
-9 -13 -2 -8 -12 -10 -12 -10
-9 -13 -2 -8 -12 -10 -12 -10
-10 -12 -2 -9 -13 -10 -13 -10
-10 -12 -2 -9 -13 -10 -13 -10
-10 -11 -2 -8 -13 -10 -13 -10
-10 -11 -2 -8 -13 -10 -13 -10
-10 -11 -2 -8 -13 -10 -13 -10
-11 -10 -2 -7 -13 -9 -12 -9
-10 -10 0 -6 -13 -9 -12 -8
-9 -10 1 -5 -12 -8 -11 -7
-9 -10 1 -5 -11 -7 -10 -7
-8 -10 2 -4 -11 -7 -10 -6
-7 -9 3 -3 -10 -6 -9 -5
-7 -8 3 -3 -10 -6 -9 -5
-7 -6 4 -2 -9 -6 -9 -5
-7 -4 5 -2 -9 -6 -9 -5
-7 -2 5 -2 -9 -6 -9 -5
-7 0 6 0 -8 -5 -8 -5
-7 0 6 0 -8 -5 -7 -4
-7 1 7 0 -8 -4 -6 -3
-7 1 8 0 -8 -3 -6 -3
-7 1 8 0 -8 -3 -5 -2
-6 2 9 1 -7 -2 -4 0
-4 4 9 1 -6 0 -3 0
-3 5 8 2 -5 1 -2 1
0 7 7 2 -4 1 -2 1
1 8 7 2 -3 2 0 1
2 9 6 3 -2 3 1 2
2 8 6 3 -2 3 1 2
2 6 6 2 -2 3 1 3
2 5 6 2 -2 3 1 3
2 4 6 2 -2 3 1 3
2 3 6 1 -3 3 1 4
2 2 5 0 -3 3 1 4
2 1 4 -2 -4 2 0 3
2 1 4 -2 -5 1 -2 2
2 0 3 -3 -5 1 -2 2
1 -2 2 -4 -6 0 -3 1
1 -3 2 -5 -8 -2 -5 0
0 -4 1 -7 -9 -4 -6 -2
-2 -4 0 -8 -11 -5 -8 -3
-2 -5 0 -9 -12 -6 -9 -4
-3 -6 -2 -10 -13 -7 -10 -5
-4 -7 -2 -10 -13 -7 -10 -5
-5 -9 -2 -10 -13 -7 -10 -6
-6 -10 -2 -10 -13 -7 -10 -6
-7 -11 -2 -10 -13 -7 -10 -6
-8 -12 -2 -11 -14 -7 -10 -7
-8 -12 -2 -11 -14 -7 -10 -7
-9 -13 -2 -10 -14 -7 -10 -7
-9 -14 -2 -10 -14 -7 -10 -7
-9 -14 -2 -10 -14 -7 -10 -7
-10 -15 0 -9 -14 -8 -11 -7
-10 -15 0 -9 -14 -8 -11 -7
-10 -15 0 -9 -14 -8 -11 -8
-10 -15 0 -9 -14 -8 -11 -8
-10 -15 0 -9 -14 -8 -11 -8
-11 -15 0 -10 -14 -9 -12 -9
-11 -15 0 -10 -14 -9 -12 -9
-11 -15 0 -11 -14 -9 -12 -9
-11 -15 0 -11 -14 -9 -12 -9
-11 -15 0 -11 -14 -9 -12 -9
-11 -14 0 -12 -14 -10 -13 -10
-11 -14 0 -12 -14 -10 -13 -10
-11 -14 0 -12 -14 -10 -13 -10
-11 -14 0 -12 -14 -10 -13 -10
-11 -14 0 -12 -14 -10 -13 -10
-11 -15 -2 -12 -14 -10 -12 -11
-11 -15 -2 -12 -14 -10 -12 -11
-11 -14 -2 -12 -14 -10 -12 -11
-11 -13 -2 -12 -14 -10 -12 -11
-11 -13 -2 -12 -14 -10 -12 -11
-10 -12 0 -12 -14 -9 -13 -11
-10 -12 0 -12 -13 -9 -13 -11
-10 -11 0 -12 -12 -8 -13 -10
-10 -11 0 -12 -12 -7 -13 -10
-10 -11 0 -12 -11 -7 -13 -10
-10 -11 0 -10 -10 -6 -13 -10
-8 -13 2 -8 -10 -8 -15 -12
-7 -15 4 -6 -10 -10 -17 -15
-6 -17 5 -4 -10 -11 -19 -17
-4 -19 7 -2 -10 -13 -21 -19
0 -20 11 6 -6 -11 -20 -20
4 -17 18 16 5 -4 -15 -18
8 -13 24 26 14 3 -10 -15
12 -10 31 36 23 10 -6 -12
17 -7 37 47 32 16 0 -10
25 9 42 56 49 34 17 5
37 34 44 66 70 61 46 29
50 59 46 75 92 89 74 54
62 85 47 85 113 115 103 78
74 110 49 94 135 143 131 102
85 134 42 88 145 162 155 126
94 156 24 67 145 175 176 148
103 179 8 46 146 187 196 172
112 201 -10 24 147 199 216 194
120 224 -27 3 147 212 236 217
116 225 -39 -15 136 203 232 217
99 205 -48 -29 111 177 203 195
81 186 -56 -45 87 149 175 173
63 165 -64 -59 63 121 146 151
46 146 -73 -74 38 94 117 130
31 121 -77 -82 16 67 89 105
22 94 -75 -86 -6 40 60 78
12 66 -73 -90 -26 14 30 52
2 38 -72 -93 -47 -13 2 26
-9 11 -70 -96 -68 -39 -27 0
-13 -6 -66 -93 -75 -52 -41 -15
-11 -10 -59 -82 -68 -48 -39 -17
-9 -14 -52 -72 -60 -44 -37 -19
-7 -18 -45 -62 -53 -39 -35 -21
-5 -22 -37 -52 -46 -35 -33 -23
-3 -23 -30 -44 -39 -31 -31 -24
-4 -20 -24 -36 -33 -27 -27 -22
-5 -17 -18 -28 -27 -22 -23 -19
-5 -14 -12 -21 -22 -17 -20 -16
-6 -11 -6 -14 -16 -13 -16 -14
-7 -9 -3 -10 -13 -10 -14 -12
-7 -9 -2 -10 -12 -10 -14 -12
-7 -9 0 -9 -11 -9 -14 -12
-7 -9 0 -8 -11 -9 -14 -12
-7 -9 1 -8 -10 -9 -14 -12
-7 -9 2 -7 -9 -8 -14 -11
-7 -9 3 -6 -9 -8 -14 -11
-7 -9 4 -4 -8 -7 -13 -11
-7 -9 5 -3 -8 -7 -13 -11
-7 -9 6 -2 -8 -7 -13 -11
-7 -10 7 0 -7 -6 -12 -10
-7 -10 7 0 -7 -6 -12 -10
-7 -10 7 0 -6 -5 -11 -10
-7 -10 7 0 -5 -5 -11 -10
-7 -10 7 0 -5 -5 -11 -10
-7 -10 7 1 -4 -4 -10 -9
-7 -10 7 1 -4 -4 -10 -9
-7 -10 7 1 -4 -4 -10 -9
-7 -9 7 1 -5 -5 -10 -9
-7 -9 7 1 -5 -5 -10 -9
-8 -8 8 2 -6 -6 -11 -10
-8 -8 8 2 -5 -5 -11 -10
-7 -8 8 2 -5 -5 -11 -9
-6 -8 8 2 -4 -4 -10 -8
-6 -8 8 2 -3 -3 -10 -8
-5 -9 8 3 -2 -2 -9 -7
-5 -9 8 3 -2 -2 -9 -7
-5 -9 8 3 -2 -2 -9 -7
-5 -9 8 4 -2 -2 -9 -7
-5 -9 8 4 -2 -2 -9 -7
-4 -9 8 5 -3 -2 -9 -8
-4 -9 8 5 -3 -2 -9 -8
-4 -8 8 5 -3 -2 -9 -8
-4 -7 8 5 -3 -2 -9 -8
-4 -7 8 5 -3 -2 -9 -8
-5 -6 9 4 -2 -2 -9 -8
-5 -6 9 4 -2 -2 -9 -8
-4 -6 9 5 0 -2 -9 -8
-3 -6 9 6 1 -2 -9 -8
-3 -6 9 6 1 -2 -9 -8
-2 -6 10 7 2 0 -10 -7
-2 -6 10 7 2 0 -10 -7
-2 -6 10 7 2 0 -10 -7
-2 -5 9 7 2 0 -10 -6
-2 -5 9 7 2 0 -10 -6
0 -4 8 7 3 0 -10 -5
0 -4 8 7 3 0 -10 -5
0 -4 8 7 3 0 -10 -5
1 -4 9 8 4 0 -10 -5
1 -4 9 8 4 0 -10 -5
2 -3 10 9 5 0 -10 -5
2 -3 10 9 5 0 -10 -5
2 -3 10 9 6 1 -10 -5
2 -2 10 10 7 2 -10 -5
2 -2 10 10 7 2 -10 -5
1 0 10 11 8 3 -9 -4
1 0 10 11 8 3 -9 -4
2 0 10 11 8 3 -9 -4
3 0 10 12 9 3 -9 -3
3 0 10 12 9 3 -9 -3
4 1 11 13 10 4 -8 -2
4 1 11 13 11 5 -7 -2
4 2 11 14 12 5 -7 0
5 3 11 15 13 6 -6 1
5 3 11 15 14 7 -5 1
6 4 11 16 15 8 -4 2
6 4 11 16 15 9 -3 2
7 5 11 17 16 9 -3 3
8 6 12 18 17 10 -2 4
8 6 12 18 17 11 0 4
9 7 13 19 18 12 1 5
10 7 13 19 19 13 2 5
10 8 13 19 19 14 2 6
11 9 13 20 20 16 3 7
12 9 13 20 21 17 4 7
13 10 12 21 22 18 5 8
13 11 12 21 22 18 6 8
14 12 12 21 22 18 6 9
15 14 13 22 23 19 7 10
15 15 13 22 23 19 8 10
16 16 14 23 24 20 9 11
16 17 14 23 24 20 10 12
17 18 14 23 24 21 10 13
18 20 13 23 24 22 11 14
18 21 13 23 24 22 12 15
19 22 12 22 25 23 13 16
19 23 12 22 25 23 13 16
19 23 12 22 25 23 13 16
19 24 12 21 25 23 13 16
19 25 12 21 25 23 13 16
20 26 11 20 24 24 14 17
20 26 11 19 24 24 14 18
20 26 10 18 24 24 14 18
20 26 9 17 24 24 15 19
20 26 9 16 24 24 15 20
20 26 8 15 23 23 16 21
20 26 8 15 22 23 16 21
20 26 8 15 22 23 16 21
20 26 8 15 21 23 15 21
20 26 8 15 20 23 15 21
19 26 8 14 19 22 14 21
18 26 8 13 19 21 14 21
17 26 7 12 18 21 13 21
16 26 6 10 17 20 12 20
15 26 6 9 17 19 12 20
14 26 5 8 16 18 11 19
14 24 5 8 15 17 10 18
13 23 5 8 14 16 10 17
12 21 5 8 12 15 9 16
12 19 5 8 11 14 8 15
11 18 5 7 10 13 7 14
11 18 5 6 9 12 6 13
10 17 5 6 9 12 5 12
9 16 4 5 8 11 4 11
9 16 4 4 7 10 3 10
8 14 3 3 6 9 2 9
7 12 3 3 6 9 1 8
5 10 3 3 5 8 0 8
4 7 3 3 4 7 -2 7
2 5 3 3 4 7 -3 6
1 3 4 2 3 6 -4 5
1 2 4 2 3 5 -5 4
0 1 4 2 3 5 -5 4
-2 -2 3 1 2 4 -6 3
-2 -3 3 1 2 3 -7 2
-3 -4 2 0 1 2 -8 1
-3 -4 2 0 0 1 -9 0
-4 -4 2 0 0 1 -10 -2
-5 -4 2 0 -2 0 -11 -4
-5 -4 2 0 -3 -2 -12 -5
-6 -4 2 -2 -4 -3 -13 -6
-6 -4 2 -2 -4 -3 -13 -6
-6 -4 2 -2 -4 -3 -13 -6
-6 -5 2 -2 -4 -3 -13 -6
-6 -5 2 -2 -4 -3 -13 -6
-6 -6 2 -3 -4 -4 -14 -7
-6 -7 2 -3 -4 -4 -14 -7
-6 -7 2 -3 -4 -4 -14 -7
-6 -8 2 -3 -4 -4 -14 -7
-6 -9 2 -3 -4 -4 -14 -7
-7 -10 2 -3 -4 -4 -15 -8
-7 -10 2 -3 -4 -4 -15 -8
-7 -10 2 -3 -4 -4 -15 -8
-7 -11 1 -4 -4 -4 -15 -8
-7 -11 1 -4 -4 -4 -15 -8
-7 -12 0 -5 -4 -3 -14 -7
-7 -12 0 -5 -4 -3 -14 -7
-7 -12 0 -5 -4 -4 -14 -7
-7 -12 0 -5 -5 -5 -15 -7
-7 -12 0 -5 -5 -5 -15 -7
-7 -11 0 -5 -6 -6 -16 -8
-7 -11 0 -5 -6 -6 -16 -8
-7 -11 0 -5 -6 -6 -16 -8
-7 -11 0 -5 -5 -6 -16 -8
-7 -11 0 -5 -5 -6 -16 -8
-7 -12 1 -4 -4 -6 -16 -7
-7 -12 1 -4 -4 -6 -16 -7
-7 -12 1 -4 -4 -6 -16 -7
-7 -13 2 -4 -4 -6 -15 -7
-7 -13 2 -4 -4 -6 -15 -7
-8 -14 3 -3 -5 -5 -14 -7
-8 -14 3 -3 -5 -5 -14 -7
-8 -14 3 -4 -5 -6 -14 -7
-9 -13 2 -5 -5 -7 -15 -7
-9 -13 2 -5 -5 -7 -15 -7
-10 -12 1 -6 -5 -8 -16 -7
-10 -12 1 -6 -5 -8 -16 -7
-10 -12 1 -6 -5 -8 -16 -7
-10 -13 1 -6 -5 -8 -16 -7
-10 -13 1 -6 -5 -8 -16 -7
-10 -14 2 -5 -6 -7 -16 -7
-10 -14 2 -5 -6 -7 -16 -7
-10 -14 2 -5 -6 -7 -16 -7
-10 -14 2 -5 -6 -7 -16 -8
-10 -14 2 -5 -6 -7 -16 -8
-10 -13 1 -6 -6 -7 -17 -9
-10 -13 1 -6 -6 -7 -17 -9
-10 -13 1 -6 -6 -7 -17 -9
-10 -13 1 -6 -6 -7 -17 -9
-10 -13 1 -6 -6 -7 -17 -9
-10 -14 2 -5 -5 -8 -17 -9
-10 -14 2 -5 -5 -8 -17 -9
-10 -14 2 -5 -5 -8 -17 -9
-10 -14 2 -4 -5 -8 -16 -9
-10 -14 2 -4 -5 -8 -16 -9
-11 -15 2 -3 -4 -7 -15 -8
-11 -15 2 -3 -4 -7 -15 -8
-11 -15 2 -3 -4 -7 -16 -8
-10 -15 2 -3 -4 -7 -17 -8
-10 -15 2 -3 -4 -7 -17 -8
-9 -15 3 -2 -4 -8 -18 -9
-9 -15 3 -2 -4 -8 -17 -9
-9 -15 3 -2 -4 -8 -17 -9
-9 -14 3 -2 -4 -8 -16 -9
-9 -14 3 -2 -4 -8 -15 -9
-9 -13 3 0 -3 -7 -14 -9
-9 -13 3 0 -3 -7 -14 -9
-9 -13 3 0 -3 -7 -14 -9
-9 -14 3 0 -3 -7 -14 -9
-9 -14 3 0 -3 -7 -14 -9
-8 -15 2 -2 -4 -8 -13 -10
-8 -15 2 -2 -4 -8 -12 -10
-8 -15 2 -2 -4 -8 -12 -9
-8 -15 2 -2 -4 -8 -11 -8
-8 -15 2 -2 -4 -8 -10 -8
-9 -15 2 -2 -3 -7 -9 -7
-9 -15 2 -2 -3 -7 -9 -7
-9 -15 2 -2 -3 -7 -9 -7
-9 -15 2 -2 -3 -7 -9 -7
-9 -15 2 -2 -3 -7 -9 -7
-8 -16 2 -2 -4 -8 -10 -8
-8 -16 2 -2 -4 -8 -10 -8
-8 -16 2 -2 -4 -8 -10 -8
-8 -15 2 -2 -4 -8 -10 -8
-8 -15 2 -2 -4 -8 -10 -8
-8 -14 1 -3 -5 -8 -9 -9
-8 -14 1 -3 -5 -8 -9 -9
-8 -14 1 -3 -5 -8 -9 -9
-8 -14 1 -3 -5 -7 -9 -8
-8 -14 1 -3 -5 -7 -9 -8
-9 -14 2 -3 -5 -6 -9 -7
-9 -14 2 -3 -5 -6 -9 -7
-9 -14 1 -3 -5 -6 -9 -7
-9 -14 1 -4 -6 -7 -9 -7
-9 -14 0 -4 -6 -7 -9 -7
-8 -15 -2 -5 -7 -8 -9 -7
-8 -15 -2 -5 -7 -8 -9 -7
-8 -15 -2 -5 -7 -8 -9 -7
-8 -15 0 -5 -7 -8 -9 -7
-8 -15 0 -5 -7 -8 -9 -7
-9 -15 1 -4 -7 -9 -9 -8
-9 -15 1 -4 -7 -9 -9 -8
-9 -15 1 -4 -7 -9 -9 -8
-9 -15 1 -5 -7 -9 -9 -8
-9 -15 1 -5 -7 -9 -9 -8
-9 -16 0 -6 -7 -8 -10 -9
-9 -16 0 -6 -7 -8 -10 -9
-9 -15 0 -6 -7 -8 -10 -9
-9 -15 0 -6 -7 -8 -10 -9
-9 -14 0 -6 -7 -8 -10 -9
-8 -13 -2 -7 -7 -9 -10 -10
-8 -13 -2 -7 -7 -9 -10 -10
-8 -13 -2 -7 -7 -9 -10 -10
-8 -13 -2 -8 -7 -10 -10 -10
-8 -13 -2 -8 -7 -10 -10 -10
-9 -14 -3 -9 -8 -11 -11 -9
-9 -14 -3 -9 -8 -11 -11 -9
-9 -15 -3 -9 -8 -11 -11 -9
-9 -15 -3 -8 -8 -11 -11 -9
-9 -16 -3 -8 -8 -11 -11 -9
-10 -17 -2 -7 -8 -11 -12 -10
-10 -16 -2 -7 -8 -11 -12 -10
-10 -15 -2 -7 -8 -11 -12 -10
-10 -14 -3 -8 -9 -11 -12 -10
-10 -13 -3 -8 -9 -11 -12 -10
-9 -12 -4 -9 -10 -12 -12 -11
-9 -12 -4 -9 -10 -12 -12 -11
-9 -13 -4 -9 -10 -12 -12 -11
-9 -13 -3 -9 -10 -12 -12 -11
-9 -14 -3 -9 -10 -12 -12 -11
-9 -15 -2 -8 -9 -11 -11 -10
-9 -15 -2 -8 -9 -11 -11 -10
-9 -15 -2 -8 -9 -11 -11 -10
-9 -15 -2 -8 -9 -11 -11 -10
-9 -15 -2 -8 -9 -11 -11 -10
-9 -15 -3 -8 -9 -10 -11 -10
-9 -15 -3 -8 -9 -10 -11 -10
-9 -15 -3 -8 -9 -10 -11 -10
-9 -15 -2 -8 -9 -10 -11 -10
-9 -15 -2 -8 -9 -10 -11 -10
-9 -15 0 -8 -9 -10 -11 -10
-9 -15 0 -8 -9 -10 -11 -10
-9 -15 0 -8 -9 -10 -11 -10
-9 -15 0 -8 -9 -10 -10 -10
-9 -15 0 -8 -9 -10 -10 -10
-10 -14 0 -8 -8 -11 -9 -9
-10 -14 0 -8 -8 -11 -9 -9
-10 -14 0 -8 -8 -11 -9 -9
-10 -14 0 -7 -8 -10 -9 -8
-10 -14 0 -7 -8 -10 -9 -8
-9 -14 1 -6 -7 -9 -10 -7
-9 -12 1 -6 -7 -9 -9 -7
-9 -10 2 -6 -7 -8 -9 -7
-8 -9 2 -5 -7 -8 -8 -6
-8 -7 3 -5 -7 -7 -7 -6
-7 -5 4 -4 -6 -6 -6 -5
-7 -5 5 -4 -6 -6 -6 -5
-7 -5 6 -3 -5 -5 -6 -5
-7 -5 7 -3 -5 -5 -6 -5
-7 -5 8 -2 -4 -4 -6 -5
-6 -4 9 0 -3 -3 -6 -4
-4 -3 9 0 -3 -3 -6 -3
-3 -2 9 0 -2 -2 -6 -3
0 0 9 0 -2 -2 -5 -2
1 1 9 0 0 0 -5 0
3 2 8 -2 1 1 -4 1
3 3 8 -2 1 1 -3 1
3 3 8 0 1 1 -2 1
3 4 7 0 2 1 0 1
3 5 7 1 2 1 1 1
4 6 6 2 3 2 2 1
4 5 6 1 3 2 2 1
3 4 6 0 2 1 2 1
3 3 5 -2 2 1 1 1
2 1 5 -3 1 0 1 1
1 0 4 -4 0 -2 0 2
1 0 3 -4 -3 -3 -2 1
1 0 1 -5 -4 -4 -4 0
1 -2 0 -5 -6 -5 -5 -2
1 -2 -2 -6 -7 -7 -6 -4
2 -3 -4 -7 -9 -8 -8 -5
2 -5 -4 -7 -9 -8 -8 -5
1 -7 -4 -8 -9 -9 -8 -6
1 -8 -4 -8 -10 -9 -9 -6
0 -10 -4 -9 -10 -10 -9 -7
-2 -12 -4 -10 -11 -11 -10 -8
-3 -12 -4 -10 -11 -11 -10 -8
-4 -12 -3 -10 -11 -11 -10 -8
-5 -12 -3 -10 -11 -11 -11 -8
-6 -12 -2 -10 -11 -11 -11 -8
-7 -12 0 -9 -11 -11 -12 -9
-7 -12 0 -9 -11 -11 -12 -9
-7 -13 0 -9 -11 -11 -12 -9
-7 -13 0 -9 -11 -11 -12 -9
-7 -14 0 -9 -11 -11 -12 -9
-8 -15 -2 -10 -11 -12 -12 -9
-8 -15 -2 -10 -11 -12 -12 -9
-8 -16 -2 -10 -11 -13 -12 -9
-9 -16 -2 -10 -12 -13 -12 -10
-9 -17 -2 -10 -12 -14 -12 -10
-10 -18 0 -10 -13 -15 -13 -11
-10 -17 0 -10 -13 -15 -13 -11
-10 -16 -2 -11 -13 -15 -13 -11
-10 -15 -2 -11 -14 -16 -14 -12
-10 -13 -3 -12 -14 -16 -14 -12
-9 -12 -4 -13 -15 -17 -15 -13
-9 -12 -4 -13 -15 -17 -15 -13
-9 -12 -4 -13 -15 -17 -15 -13
-9 -13 -4 -12 -15 -16 -15 -13
-9 -13 -4 -12 -15 -16 -15 -13
-10 -14 -3 -11 -14 -15 -14 -12
-10 -14 -3 -11 -14 -14 -14 -12
-10 -14 -3 -11 -14 -13 -14 -12
-10 -14 -3 -11 -13 -12 -13 -11
-10 -14 -3 -11 -13 -10 -13 -11
-10 -14 -3 -10 -12 -9 -12 -10
-10 -14 -3 -10 -12 -9 -12 -10
-9 -14 -2 -10 -12 -9 -13 -11
-8 -15 -2 -9 -12 -9 -13 -12
-7 -15 0 -9 -12 -9 -14 -13
-6 -16 1 -7 -11 -10 -15 -14
-4 -19 5 -2 -9 -10 -16 -17
0 -21 8 5 -7 -10 -18 -19
2 -24 11 10 -5 -10 -19 -22
5 -26 15 15 -3 -10 -20 -24
8 -27 19 22 3 -6 -19 -25
17 -13 25 35 21 13 -2 -12
25 1 31 49 39 31 15 2
33 14 37 61 57 49 31 15
42 27 45 74 75 67 49 28
52 46 49 85 92 87 68 45
65 78 44 80 105 111 99 75
79 111 38 77 118 136 130 105
94 144 32 73 132 160 160 136
108 177 27 69 145 185 191 165
119 202 19 62 154 203 216 190
114 203 2 39 142 198 214 192
110 204 -16 18 129 192 212 194
105 205 -33 -4 116 186 210 196
101 207 -50 -26 104 181 207 198
93 202 -64 -46 88 169 197 193
71 171 -66 -57 59 131 155 158
50 138 -68 -67 30 93 114 123
28 106 -70 -78 1 55 72 89
7 74 -72 -90 -28 17 30 53
-11 46 -74 -98 -52 -15 -4 23
-11 30 -69 -92 -55 -22 -12 13
-10 15 -65 -87 -59 -29 -21 3
-9 0 -60 -80 -62 -36 -29 -9
-8 -16 -56 -74 -65 -44 -37 -19
-7 -29 -51 -68 -67 -49 -45 -28
-7 -27 -44 -59 -59 -43 -39 -26
-6 -25 -36 -50 -50 -36 -35 -25
-5 -22 -29 -40 -41 -30 -31 -23
-4 -20 -22 -32 -33 -24 -27 -21
-3 -18 -16 -24 -26 -19 -23 -19
-3 -17 -13 -20 -23 -17 -22 -18
-4 -15 -9 -17 -21 -16 -20 -17
-5 -14 -6 -13 -18 -14 -18 -16
-6 -13 -3 -9 -16 -12 -17 -14
-7 -11 1 -6 -13 -10 -15 -13
-7 -11 1 -6 -13 -10 -15 -13
-7 -11 1 -5 -12 -9 -15 -13
-7 -12 2 -5 -12 -9 -14 -13
-7 -12 2 -4 -11 -8 -14 -13
-7 -13 3 -3 -10 -7 -13 -12
-7 -13 3 -3 -10 -7 -13 -12
-7 -13 4 -2 -10 -7 -13 -12
-7 -13 4 -2 -10 -7 -13 -12
-7 -13 5 0 -10 -7 -13 -12
-7 -12 6 1 -9 -7 -14 -12
-7 -12 6 1 -9 -7 -14 -12
-7 -12 6 1 -9 -7 -13 -12
-7 -11 6 1 -9 -7 -12 -12
-7 -11 6 1 -9 -7 -11 -12
-6 -10 6 0 -9 -6 -10 -12
-6 -10 6 0 -9 -6 -10 -12
-6 -10 6 1 -9 -6 -10 -12
-6 -11 6 1 -9 -6 -11 -12
-6 -11 6 2 -9 -6 -11 -12
-5 -12 7 3 -9 -6 -12 -12
-5 -12 7 3 -9 -6 -12 -12
-5 -11 7 3 -9 -6 -12 -12
-5 -11 6 2 -9 -6 -12 -12
-5 -10 6 2 -9 -6 -12 -12
-5 -9 5 1 -9 -5 -12 -11
-5 -9 5 1 -9 -5 -12 -11
-5 -9 5 2 -8 -5 -12 -11
-5 -9 6 2 -8 -5 -12 -11
-5 -9 6 3 -7 -5 -12 -11
-4 -9 7 4 -6 -5 -12 -10
-4 -9 7 4 -6 -5 -12 -10
-4 -8 7 4 -6 -5 -12 -10
-4 -8 6 3 -6 -5 -11 -10
-4 -7 6 3 -6 -5 -11 -10
-3 -6 5 2 -5 -5 -10 -10
-3 -6 5 2 -4 -5 -10 -10
-3 -6 6 3 -3 -5 -10 -10
-3 -6 6 3 -2 -4 -10 -10
-3 -6 7 4 1 -4 -10 -10
-2 -6 8 5 2 -3 -10 -11
-2 -6 8 5 2 -3 -10 -11
-2 -6 8 6 3 -3 -9 -10
0 -5 8 7 3 -3 -8 -10
0 -5 8 8 4 -3 -7 -9
1 -4 8 9 5 -2 -6 -8
1 -4 8 9 6 -2 -6 -8
1 -4 8 10 8 -2 -6 -8
1 -4 8 10 9 0 -6 -7
1 -4 8 11 10 0 -6 -7
1 -4 9 12 12 1 -5 -6
1 -4 9 12 12 1 -5 -6
2 -4 9 12 13 1 -5 -6
2 -3 9 12 14 2 -4 -6
3 -3 9 12 15 2 -4 -6
4 -2 8 12 16 3 -3 -5
4 -2 8 13 17 3 -3 -5
4 -2 9 14 18 4 -3 -5
5 0 9 15 19 4 -3 -5
5 0 10 16 20 5 -3 -5
6 1 11 17 22 6 -2 -5
6 1 11 17 22 6 -2 -5
6 1 11 17 23 7 0 -4
7 2 11 17 24 7 1 -4
7 2 11 17 25 8 2 -3
8 3 10 18 26 9 3 -2
8 3 10 18 27 10 3 -2
9 4 10 19 28 11 4 0
9 4 11 20 29 12 4 0
10 5 11 21 30 13 5 1
11 6 12 22 32 14 6 2
11 7 12 22 32 14 6 2
12 9 12 22 33 15 7 3
12 11 12 22 34 15 8 4
13 12 12 22 35 16 9 5
14 14 12 22 36 17 10 6
14 14 12 22 36 17 11 6
15 15 12 23 36 18 12 7
15 15 12 23 36 19 13 8
16 16 12 24 36 20 14 9
17 17 13 25 37 21 16 10
17 18 13 25 37 21 16 10
18 19 12 25 38 21 16 11
18 20 11 24 38 21 17 12
19 21 10 24 39 21 17 13
20 22 9 23 40 22 18 14
20 22 9 23 40 22 18 14
20 22 9 23 40 22 18 14
20 23 9 23 39 22 18 14
20 23 9 23 39 22 18 14
19 24 9 22 38 21 18 15
19 24 9 22 38 21 18 16
19 24 9 21 38 22 19 17
18 24 9 21 38 22 19 18
18 24 9 20 38 23 20 19
17 25 8 19 37 24 21 20
17 25 8 19 37 24 21 20
17 25 8 18 36 23 21 19
17 25 8 18 35 23 21 19
17 25 8 17 34 22 21 18
16 25 7 16 33 21 20 17
15 25 7 16 33 21 20 17
14 24 7 15 32 20 19 17
13 23 7 15 32 20 18 17
12 22 7 14 31 19 17 17
11 21 6 13 30 18 16 16
10 21 6 13 30 18 15 15
9 20 6 13 29 17 14 14
8 20 7 12 29 17 12 13
7 19 7 12 28 16 11 12
6 18 8 11 27 15 9 11
6 16 8 10 27 15 9 10
5 14 7 9 26 14 8 9
4 12 7 8 25 13 8 8
3 10 6 7 24 12 7 7
2 8 5 6 23 11 6 6
2 7 5 6 23 10 5 5
1 6 5 6 22 9 4 4
1 4 5 6 22 8 3 2
0 3 5 6 21 7 2 1
-2 1 5 6 20 6 1 -2
-3 1 5 6 20 6 1 -2
-4 0 5 5 20 5 0 -2
-5 0 5 4 19 4 -2 -3
-6 -2 5 3 19 3 -3 -3
-7 -3 4 2 18 2 -4 -4
-7 -4 4 2 18 2 -4 -4
-7 -5 4 2 18 2 -5 -5
-7 -6 4 3 17 2 -5 -5
-7 -7 4 3 17 2 -6 -6
-8 -9 5 4 16 1 -7 -7
-8 -9 5 4 16 1 -7 -7
-8 -9 5 4 16 1 -7 -7
-8 -9 5 3 16 1 -7 -7
-8 -9 5 3 16 1 -7 -7
-9 -10 4 2 16 0 -7 -8
-9 -10 4 2 16 0 -7 -8
-9 -10 4 2 16 0 -7 -8
-9 -11 4 2 16 0 -8 -8
-9 -11 4 2 16 0 -8 -8
-9 -12 4 3 16 0 -9 -8
-9 -12 4 3 16 0 -9 -8
-9 -12 4 3 16 0 -9 -8
-9 -12 4 2 16 0 -9 -8
-9 -12 4 2 16 0 -9 -8
-9 -12 3 1 15 0 -8 -7
-9 -12 3 1 15 0 -8 -7
-9 -12 4 2 15 0 -8 -7
-9 -12 4 2 15 1 -7 -7
-9 -12 5 3 15 1 -7 -7
-9 -12 6 4 15 2 -6 -6
-9 -12 6 3 15 2 -6 -6
-9 -12 5 2 15 1 -6 -6
-10 -11 5 1 14 1 -7 -7
-10 -11 4 0 14 0 -7 -7
-11 -10 3 -2 13 -2 -8 -8
-11 -10 3 -2 13 -2 -8 -8
-11 -11 3 -2 13 -2 -8 -8
-11 -11 3 0 13 -2 -9 -9
-11 -12 3 0 13 -2 -9 -9
-10 -13 4 1 12 -2 -10 -10
-10 -13 4 1 12 -2 -10 -10
-10 -13 4 1 12 -2 -10 -10
-11 -14 3 0 12 -2 -10 -10
-11 -14 3 0 12 -2 -10 -10
-12 -15 2 -2 13 -3 -10 -10
-12 -15 2 -2 13 -3 -10 -10
-12 -15 2 0 13 -3 -10 -10
-12 -15 2 0 13 -3 -11 -10
-12 -15 2 1 13 -3 -11 -10
-11 -14 3 2 12 -4 -12 -11
-11 -14 3 2 12 -4 -12 -11
-11 -14 3 2 12 -4 -12 -11
-11 -14 3 1 12 -4 -12 -11
-11 -14 3 1 12 -4 -12 -11
-10 -13 3 0 11 -5 -11 -11
-10 -13 3 0 11 -5 -11 -11
-10 -13 3 0 11 -5 -11 -11
-11 -14 3 0 10 -5 -12 -11
-11 -14 3 0 10 -5 -12 -11
-12 -15 2 0 9 -5 -13 -12
-12 -15 2 0 9 -5 -13 -12
-12 -15 2 0 9 -5 -13 -12
-12 -15 2 0 10 -5 -13 -12
-12 -15 2 0 10 -5 -13 -12
-11 -14 3 0 11 -5 -12 -11
-11 -14 3 0 11 -5 -12 -11
-11 -14 3 1 11 -5 -12 -11
-11 -14 3 1 11 -5 -12 -11
-11 -14 3 2 11 -5 -12 -11
-10 -13 4 3 11 -4 -11 -12
-10 -13 4 3 11 -4 -11 -12
-10 -13 4 2 11 -4 -11 -12
-10 -13 4 2 11 -4 -11 -12
-10 -13 4 1 11 -4 -11 -12
-10 -12 3 0 11 -4 -10 -11
-10 -12 3 1 11 -4 -10 -11
-10 -12 3 2 11 -4 -10 -11
-10 -13 4 3 11 -4 -10 -11
-10 -13 4 4 11 -4 -10 -11
-10 -14 5 5 12 -4 -11 -10
-10 -14 5 5 12 -4 -11 -10
-10 -13 4 4 12 -4 -11 -10
-10 -13 4 4 12 -4 -11 -10
-10 -12 3 3 12 -4 -11 -10
-9 -11 2 2 12 -4 -12 -10
-9 -11 2 2 12 -4 -12 -10
-9 -11 2 2 12 -4 -12 -10
-9 -11 3 3 12 -4 -12 -10
-9 -11 3 3 12 -4 -12 -10
-8 -12 4 4 11 -4 -11 -9
-8 -12 4 4 11 -4 -11 -9
-8 -12 3 3 11 -4 -11 -9
-8 -13 3 2 10 -3 -11 -9
-8 -13 2 1 10 -3 -11 -9
-9 -14 1 0 9 -2 -10 -9
-9 -14 1 0 9 -2 -10 -9
-9 -14 1 0 9 -3 -10 -9
-9 -14 1 0 9 -3 -10 -9
-9 -14 1 0 9 -4 -10 -9
-8 -14 1 0 8 -5 -10 -10
-8 -14 1 0 8 -5 -10 -10
-8 -13 1 0 8 -5 -10 -10
-8 -13 1 -2 8 -5 -10 -10
-8 -12 1 -2 8 -5 -10 -10
-9 -11 0 -3 7 -5 -10 -9
-9 -11 0 -3 7 -5 -10 -9
-9 -12 0 -3 7 -6 -10 -9
-9 -12 0 -3 6 -7 -10 -9
-9 -13 0 -3 6 -8 -10 -9
-9 -14 1 -3 5 -9 -11 -10
-9 -14 1 -3 5 -9 -11 -10
-9 -14 1 -3 5 -9 -11 -10
-9 -14 1 -3 5 -8 -11 -10
-9 -14 1 -3 5 -8 -11 -10
-8 -13 1 -3 6 -7 -10 -10
-8 -13 1 -3 6 -7 -10 -10
-8 -13 1 -3 6 -7 -10 -10
-8 -13 1 -3 5 -7 -10 -10
-8 -13 1 -3 5 -7 -10 -10
-9 -14 1 -3 4 -7 -9 -9
-9 -14 1 -3 4 -7 -9 -9
-9 -13 1 -3 4 -7 -9 -9
-9 -13 1 -4 4 -7 -9 -9
-9 -12 1 -4 4 -7 -9 -9
-10 -11 1 -5 3 -8 -10 -10
-10 -11 1 -5 3 -8 -10 -10
-10 -12 1 -5 3 -8 -10 -10
-10 -12 1 -5 3 -8 -10 -10
-10 -13 1 -5 3 -8 -10 -10
-10 -13 1 -5 3 -8 -10 -10
-9 -14 1 -5 2 -8 -10 -10
-9 -14 1 -5 2 -8 -10 -10
-9 -13 1 -5 2 -8 -10 -10
-9 -13 1 -5 2 -8 -10 -10
-9 -13 1 -5 2 -8 -10 -10
-9 -12 0 -6 1 -8 -10 -10
-9 -12 0 -6 1 -8 -10 -10
-9 -11 0 -6 1 -8 -10 -10
-9 -11 0 -6 1 -8 -10 -10
-9 -11 0 -6 1 -8 -10 -10
-10 -10 -2 -6 1 -7 -11 -11
-10 -10 -2 -6 1 -7 -11 -11
-10 -10 -2 -6 0 -8 -11 -11
-10 -10 -2 -6 0 -8 -11 -11
-10 -10 -2 -6 0 -8 -11 -11
-10 -11 -2 -7 -2 -9 -12 -11
-10 -11 -2 -7 -2 -9 -12 -11
-10 -11 -2 -7 -2 -9 -12 -11
-10 -11 -2 -7 -2 -9 -12 -11
-10 -11 -2 -7 -2 -9 -12 -11
-9 -11 -2 -7 -3 -9 -11 -11
-9 -11 -2 -7 -3 -9 -11 -11
-9 -11 -2 -7 -3 -10 -11 -11
-9 -11 -2 -7 -3 -10 -11 -11
-9 -11 -2 -7 -3 -10 -11 -11
-9 -11 -2 -7 -4 -11 -11 -11
-9 -11 -2 -7 -4 -11 -11 -11
-9 -11 0 -7 -4 -11 -11 -11
-9 -11 0 -7 -4 -11 -11 -11
-9 -11 0 -7 -4 -11 -11 -11
-10 -10 1 -6 -3 -10 -10 -10
-10 -9 1 -6 -3 -10 -10 -10
-9 -8 1 -6 -3 -9 -10 -10
-9 -7 1 -6 -3 -9 -10 -10
-9 -6 1 -6 -3 -9 -10 -10
-8 -4 2 -5 -3 -8 -10 -10
-8 -3 3 -4 -2 -8 -9 -9
-8 0 4 -3 -2 -7 -8 -9
-8 1 5 -2 0 -7 -7 -8
-8 2 6 -2 0 -7 -7 -8
-8 3 7 0 1 -6 -6 -7
-7 4 7 0 1 -6 -5 -6
-6 4 7 0 1 -6 -5 -6
-5 5 7 0 1 -6 -4 -5
-4 5 7 0 1 -6 -4 -5
-3 6 7 -2 1 -5 -3 -4
-2 6 7 0 2 -4 -2 -3
0 7 7 1 3 -2 0 -2
1 7 7 2 4 0 1 0
1 7 7 3 5 1 1 0
2 8 7 4 6 2 2 1
1 8 6 3 5 1 1 0
0 7 5 2 4 0 0 0
-2 7 4 1 3 -2 -2 -2
-2 7 4 0 2 -2 -2 -2
-3 5 3 -3 0 -4 -4 -3
-3 3 2 -4 -3 -5 -5 -4
-3 2 1 -6 -5 -7 -6 -5
-3 0 0 -7 -7 -8 -7 -6
-3 -2 -2 -8 -8 -9 -8 -7
-4 -3 -3 -9 -9 -10 -9 -8
-5 -4 -3 -10 -10 -11 -9 -9
-5 -5 -3 -10 -10 -11 -10 -9
-6 -6 -3 -11 -11 -12 -10 -10
-6 -7 -3 -11 -11 -12 -10 -10
-7 -8 -4 -12 -12 -13 -11 -11
-8 -8 -4 -12 -12 -13 -12 -11
-9 -8 -4 -12 -13 -13 -12 -12
-10 -8 -4 -12 -13 -13 -13 -12
-10 -8 -4 -12 -13 -13 -13 -12
-11 -8 -4 -11 -14 -14 -14 -13
-11 -9 -4 -11 -14 -14 -14 -13
-11 -10 -3 -11 -14 -13 -13 -12
-11 -11 -3 -11 -14 -13 -13 -12
-11 -11 -3 -11 -14 -13 -13 -12
-12 -12 -2 -11 -14 -12 -12 -11
-12 -12 -2 -11 -14 -13 -12 -11
-12 -12 -2 -11 -14 -13 -13 -12
-12 -12 -2 -11 -14 -14 -13 -12
-12 -12 -2 -11 -14 -14 -13 -12
-13 -13 -2 -11 -15 -15 -14 -13
-13 -13 -2 -12 -15 -15 -14 -13
-13 -13 -3 -12 -16 -15 -15 -13
-13 -13 -3 -13 -16 -15 -15 -13
-13 -13 -3 -13 -16 -15 -15 -13
-12 -12 -4 -14 -17 -16 -16 -13
-12 -12 -4 -14 -17 -16 -16 -14
-12 -12 -4 -13 -17 -16 -16 -14
-12 -12 -4 -13 -17 -16 -16 -15
-12 -12 -4 -13 -17 -16 -16 -15
-13 -13 -3 -12 -17 -17 -16 -16
-13 -13 -3 -12 -17 -16 -15 -16
-13 -14 -3 -12 -17 -16 -15 -15
-13 -14 -3 -12 -17 -15 -14 -15
-13 -14 -3 -12 -17 -15 -14 -15
-12 -15 -3 -13 -17 -14 -13 -14
-12 -14 -3 -12 -17 -14 -13 -14
-11 -13 -2 -11 -16 -14 -13 -14
-11 -12 -2 -10 -16 -14 -13 -14
-11 -11 -2 -10 -16 -14 -13 -14
-9 -13 2 -5 -14 -15 -16 -18
-7 -16 5 0 -13 -15 -18 -21
-6 -19 8 4 -11 -16 -20 -24
-4 -23 10 9 -10 -16 -23 -28
-3 -26 13 13 -9 -16 -25 -31
6 -17 19 24 7 -3 -13 -22
14 -6 25 36 23 13 2 -11
22 7 32 49 39 29 17 1
31 18 38 61 56 46 32 12
39 29 45 73 72 61 47 24
53 60 44 75 89 86 75 52
66 91 39 74 105 110 106 81
79 122 36 74 120 135 137 111
93 154 33 73 137 160 167 141
106 186 30 73 153 185 197 171
106 192 15 54 145 186 201 178
103 196 -2 32 133 182 203 183
100 200 -19 11 121 179 204 189
98 204 -35 -11 109 176 206 194
95 209 -52 -31 98 173 207 199
75 184 -57 -46 70 140 173 171
54 155 -61 -59 42 103 133 138
32 126 -65 -72 13 67 93 104
11 97 -68 -85 -16 30 53 70
-11 67 -72 -98 -45 -6 12 37
-14 49 -72 -97 -53 -18 -2 22
-13 30 -69 -93 -58 -28 -13 8
-13 13 -67 -89 -64 -38 -23 -6
-12 -6 -65 -85 -69 -49 -34 -19
-12 -24 -63 -80 -75 -58 -45 -32
-11 -25 -55 -71 -70 -55 -44 -32
-10 -24 -47 -62 -62 -50 -39 -30
-10 -23 -38 -52 -54 -44 -34 -28
-9 -22 -30 -43 -46 -37 -30 -25
-9 -21 -22 -33 -37 -31 -26 -23
-8 -19 -18 -28 -33 -28 -24 -21
-8 -17 -15 -23 -30 -25 -21 -20
-8 -15 -12 -19 -27 -22 -19 -18
-8 -14 -8 -14 -23 -20 -17 -17
-8 -12 -5 -10 -20 -17 -15 -16
-9 -11 -4 -9 -19 -16 -14 -15
-9 -11 -4 -9 -19 -16 -14 -15
-9 -11 -3 -9 -18 -15 -14 -15
-9 -11 -3 -9 -18 -15 -14 -15
-9 -11 -3 -9 -18 -15 -14 -15
-9 -11 -2 -9 -17 -14 -14 -14
-9 -11 0 -8 -17 -14 -14 -14
-9 -11 1 -7 -17 -14 -14 -14
-9 -11 2 -6 -17 -14 -14 -14
-9 -11 3 -5 -17 -14 -14 -14
-10 -10 4 -4 -16 -14 -14 -14
-10 -10 3 -4 -16 -13 -13 -14
-10 -9 3 -4 -15 -12 -12 -13
-10 -9 2 -4 -15 -11 -11 -13
-10 -9 2 -4 -15 -11 -10 -13
-9 -8 1 -5 -14 -10 -9 -12
-9 -8 1 -4 -14 -11 -10 -13
-9 -9 1 -4 -14 -12 -10 -14
-9 -9 1 -3 -14 -13 -11 -15
-9 -9 1 -3 -14 -13 -11 -15
-9 -10 2 -2 -15 -14 -12 -16
-9 -9 2 -2 -15 -14 -12 -16
-8 -8 1 -3 -15 -13 -12 -15
-8 -7 1 -3 -15 -13 -12 -15
-8 -7 1 -3 -15 -13 -12 -15
-7 -6 0 -4 -14 -12 -11 -14
-7 -6 1 -3 -13 -11 -10 -14
-7 -6 2 -2 -13 -11 -10 -14
-7 -6 3 0 -12 -10 -9 -14
-7 -6 3 0 -12 -10 -9 -14
-6 -7 4 1 -11 -9 -8 -13
-5 -7 3 1 -11 -9 -8 -13
-5 -6 3 0 -11 -9 -8 -12
-4 -6 2 0 -11 -9 -8 -12
-4 -6 2 0 -11 -9 -8 -12
-3 -5 1 -2 -11 -10 -7 -11
-3 -5 1 0 -11 -10 -7 -11
-4 -5 2 1 -10 -9 -8 -12
-4 -5 2 2 -10 -9 -8 -12
-4 -5 2 2 -10 -9 -8 -12
-5 -6 3 3 -9 -8 -9 -13
-4 -5 3 3 -9 -8 -8 -12
-3 -5 2 3 -8 -8 -7 -11
-2 -4 2 3 -8 -8 -6 -10
-2 -4 2 3 -8 -8 -6 -10
0 -3 1 2 -7 -8 -5 -9
0 -3 2 3 -7 -8 -5 -9
0 -3 2 4 -7 -7 -5 -9
0 -3 3 5 -7 -7 -5 -9
0 -3 3 6 -7 -7 -5 -9
0 -4 4 7 -6 -6 -4 -9
0 -4 3 7 -5 -5 -3 -8
1 -4 2 7 -5 -5 -2 -7
1 -4 1 7 -4 -4 0 -6
1 -4 1 7 -4 -4 0 -6
2 -3 1 7 -3 -3 1 -5
2 -3 2 8 -2 -2 1 -5
2 -3 3 9 0 -2 1 -5
2 -3 4 11 1 0 1 -5
2 -3 5 12 2 0 1 -5
3 0 6 13 3 1 2 -5
4 1 5 13 3 1 2 -5
5 2 4 12 3 1 2 -4
6 3 3 12 3 1 2 -4
7 4 3 12 3 1 2 -4
8 5 2 11 3 2 3 -3
9 6 2 12 4 3 4 -3
9 7 3 13 5 4 5 -2
10 8 3 14 6 5 6 -2
10 8 3 15 7 6 6 -2
11 9 4 16 8 7 7 0
12 11 4 16 9 8 8 1
12 12 3 16 9 9 9 2
13 13 3 16 10 10 10 3
13 14 3 16 10 11 11 4
14 15 2 16 11 12 12 5
15 15 2 17 11 13 12 6
15 15 2 17 12 13 13 6
16 15 2 18 12 14 13 7
16 15 2 18 12 14 13 7
17 16 3 19 13 15 14 8
17 18 3 18 13 15 15 9
17 19 3 18 13 16 16 10
17 20 3 17 13 16 17 11
17 21 3 17 13 16 18 12
17 22 3 16 14 17 19 13
17 23 3 16 14 17 19 13
17 23 3 16 14 17 19 14
17 24 3 16 14 17 19 14
17 24 3 16 14 17 19 14
18 25 3 16 13 18 20 15
18 25 2 15 13 18 20 15
18 25 2 14 12 18 20 16
18 25 1 13 12 18 20 16
18 25 1 13 12 18 20 16
18 25 0 12 11 18 20 17
17 25 0 11 10 17 19 17
16 24 0 11 9 16 18 16
15 24 0 10 8 15 17 16
15 24 0 10 8 14 16 16
14 23 -2 9 7 13 15 15
13 23 -3 8 6 13 15 15
12 23 -3 7 5 13 14 15
11 23 -4 6 4 13 14 15
11 23 -4 6 3 13 14 15
10 22 -5 5 2 12 13 15
10 20 -5 5 1 11 12 14
9 18 -5 5 1 10 11 13
9 17 -5 5 0 9 10 12
9 15 -5 5 0 8 9 11
8 14 -4 4 -2 7 8 10
7 14 -4 4 -3 5 6 9
6 14 -4 3 -4 4 5 9
5 14 -4 3 -5 3 4 8
5 14 -4 3 -5 2 3 8
4 12 -3 2 -6 1 2 6
3 10 -3 2 -6 1 1 5
2 7 -3 2 -7 0 0 3
1 5 -3 2 -7 0 -2 1
1 2 -3 2 -7 0 -2 0
0 1 -3 2 -8 -2 -3 -2
0 1 -3 1 -9 -3 -4 -3
0 1 -4 0 -9 -4 -5 -3
0 1 -4 -2 -10 -5 -6 -4
0 1 -4 -3 -10 -5 -7 -4
-2 0 -5 -4 -11 -6 -8 -5
-3 -2 -5 -4 -11 -6 -9 -6
-4 -3 -5 -4 -11 -7 -9 -6
-5 -4 -5 -4 -11 -7 -10 -7
-5 -5 -5 -4 -11 -7 -10 -7
-6 -6 -4 -3 -11 -8 -11 -8
-6 -6 -5 -4 -12 -8 -11 -8
-6 -6 -5 -5 -13 -9 -11 -8
-6 -6 -6 -6 -14 -9 -11 -8
-6 -6 -6 -6 -14 -9 -11 -8
-5 -7 -7 -7 -15 -10 -12 -9
-5 -8 -7 -6 -15 -10 -12 -9
-5 -8 -7 -6 -14 -10 -13 -9
-5 -9 -7 -5 -14 -10 -13 -9
-5 -9 -7 -5 -14 -10 -13 -9
-6 -10 -6 -4 -13 -10 -14 -10
-6 -10 -6 -5 -13 -10 -14 -10
-6 -10 -6 -5 -13 -10 -14 -10
-6 -10 -6 -6 -13 -10 -14 -10
-6 -10 -6 -6 -13 -10 -14 -10
-7 -9 -5 -7 -14 -9 -13 -9
-7 -9 -5 -7 -14 -9 -13 -9
-7 -9 -5 -6 -14 -9 -13 -9
-7 -9 -5 -6 -14 -9 -13 -9
-7 -9 -5 -6 -14 -9 -13 -9
-6 -9 -5 -5 -14 -10 -14 -9
-7 -9 -5 -5 -14 -10 -14 -9
-7 -9 -5 -5 -14 -10 -13 -9
-8 -9 -5 -5 -14 -10 -13 -9
-8 -9 -5 -5 -14 -10 -13 -9
-9 -9 -5 -5 -13 -9 -12 -9
-9 -9 -5 -5 -14 -9 -13 -9
-8 -10 -5 -5 -14 -9 -14 -10
-8 -10 -5 -5 -15 -9 -15 -10
-8 -10 -5 -5 -15 -9 -15 -10
-7 -11 -6 -6 -16 -10 -16 -11
-8 -11 -6 -6 -16 -10 -16 -11
-8 -11 -6 -6 -15 -10 -16 -11
-9 -11 -6 -6 -15 -10 -16 -11
-9 -11 -6 -6 -15 -10 -16 -11
-10 -12 -5 -6 -14 -10 -15 -11
-10 -12 -5 -6 -14 -10 -15 -11
-9 -11 -5 -6 -14 -11 -15 -11
-9 -11 -5 -6 -14 -11 -15 -11
-9 -11 -5 -6 -14 -11 -15 -11
-8 -10 -4 -5 -15 -12 -16 -12
-8 -10 -4 -5 -15 -12 -16 -12
-8 -10 -5 -6 -15 -12 -16 -12
-8 -10 -5 -6 -15 -12 -16 -12
-8 -10 -5 -6 -15 -12 -16 -12
-8 -11 -6 -7 -16 -12 -17 -13
-8 -11 -6 -6 -15 -11 -17 -13
-8 -11 -6 -5 -15 -10 -17 -13
-8 -11 -6 -4 -14 -10 -17 -13
-8 -11 -6 -3 -14 -9 -17 -13
-9 -12 -5 -2 -13 -8 -16 -12
-8 -12 -5 -3 -13 -8 -16 -12
-8 -12 -5 -3 -13 -8 -16 -12
-7 -12 -5 -4 -13 -8 -16 -12
-7 -12 -5 -4 -13 -8 -16 -12
-6 -11 -6 -5 -14 -9 -15 -11
-6 -11 -5 -4 -14 -9 -15 -11
-6 -11 -5 -4 -13 -9 -15 -11
-6 -11 -4 -3 -13 -9 -15 -11
-6 -11 -4 -3 -13 -9 -15 -11
-6 -12 -3 -2 -12 -9 -15 -12
-6 -12 -3 -3 -12 -9 -15 -12
-6 -12 -4 -3 -12 -9 -14 -12
-6 -12 -4 -4 -12 -9 -14 -12
-6 -12 -4 -4 -12 -9 -14 -12
-6 -11 -5 -5 -13 -9 -13 -11
-6 -11 -5 -4 -13 -9 -13 -11
-5 -10 -5 -4 -13 -9 -13 -11
-5 -10 -5 -3 -13 -9 -13 -11
-5 -10 -5 -3 -13 -9 -13 -11
-4 -9 -5 -2 -12 -8 -14 -12
-4 -9 -5 -2 -12 -8 -14 -12
-4 -9 -5 -3 -13 -8 -13 -11
-4 -9 -5 -3 -13 -8 -13 -11
-4 -9 -5 -3 -13 -8 -13 -11
-4 -9 -4 -4 -14 -9 -12 -10
-4 -9 -4 -4 -14 -9 -12 -10
-4 -9 -4 -4 -14 -9 -12 -10
-4 -9 -4 -4 -14 -9 -12 -10
-4 -9 -4 -4 -14 -9 -12 -10
-3 -9 -4 -4 -13 -8 -13 -11
-3 -10 -4 -4 -13 -8 -13 -11
-3 -10 -4 -4 -13 -7 -13 -10
-3 -11 -4 -4 -13 -7 -13 -10
-3 -11 -4 -4 -13 -7 -13 -10
-4 -12 -5 -3 -12 -6 -12 -9
-4 -12 -5 -3 -12 -6 -12 -9
-4 -12 -4 -3 -12 -6 -12 -9
-4 -12 -4 -3 -12 -6 -12 -9
-4 -12 -4 -3 -12 -6 -12 -9
-5 -12 -3 -3 -11 -6 -11 -10
-5 -12 -3 -4 -12 -7 -11 -10
-4 -11 -4 -4 -13 -7 -11 -10
-4 -11 -4 -5 -13 -8 -11 -10
-4 -11 -4 -5 -14 -8 -11 -10
-3 -10 -5 -6 -15 -9 -12 -11
-3 -10 -5 -6 -15 -9 -12 -11
-3 -10 -5 -6 -14 -9 -12 -11
-3 -10 -5 -6 -14 -9 -12 -11
-3 -10 -5 -6 -14 -9 -12 -11
-4 -9 -5 -5 -13 -9 -12 -10
-4 -10 -5 -5 -13 -9 -12 -10
-4 -11 -5 -5 -13 -9 -12 -10
-4 -11 -5 -5 -13 -9 -12 -10
-4 -12 -5 -5 -13 -9 -12 -10
-5 -13 -5 -6 -13 -8 -12 -11
-5 -13 -5 -5 -13 -8 -12 -11
-5 -13 -4 -5 -13 -8 -12 -11
-5 -13 -4 -4 -13 -8 -12 -11
-5 -13 -4 -4 -13 -8 -12 -11
-5 -12 -3 -3 -12 -8 -11 -10
-5 -12 -4 -4 -12 -8 -11 -10
-5 -11 -4 -4 -12 -8 -11 -10
-5 -11 -5 -5 -12 -8 -11 -10
-5 -11 -5 -5 -12 -8 -11 -10
-5 -10 -6 -6 -13 -8 -11 -10
-5 -10 -6 -6 -13 -8 -11 -10
-5 -10 -5 -5 -13 -8 -11 -11
-5 -10 -5 -5 -13 -8 -11 -11
-5 -10 -5 -5 -13 -8 -11 -11
-5 -11 -4 -4 -13 -9 -12 -12
-5 -11 -4 -4 -13 -9 -12 -12
-5 -11 -4 -5 -13 -8 -12 -12
-5 -11 -4 -5 -13 -8 -12 -12
-5 -11 -4 -5 -13 -8 -12 -12
-5 -10 -5 -6 -13 -7 -11 -12
-5 -10 -5 -6 -13 -7 -11 -12
-5 -10 -5 -6 -13 -7 -11 -12
-5 -10 -5 -6 -13 -7 -11 -12
-5 -10 -5 -6 -13 -7 -11 -12
-4 -11 -4 -5 -14 -8 -11 -11
-4 -10 -3 -4 -13 -8 -11 -10
-4 -10 -2 -3 -12 -7 -10 -10
-4 -9 0 -2 -11 -7 -10 -9
-4 -9 1 0 -10 -7 -10 -9
-4 -8 2 1 -9 -6 -9 -8
-4 -8 3 1 -9 -6 -9 -8
-4 -8 3 1 -8 -6 -9 -7
-4 -8 4 1 -8 -6 -9 -7
-4 -8 4 1 -8 -6 -9 -7
-4 -8 5 2 -7 -6 -8 -6
-4 -6 5 2 -7 -6 -8 -6
-4 -4 5 2 -7 -5 -7 -6
-4 0 5 2 -7 -5 -7 -6
-4 2 5 2 -7 -5 -7 -6
-3 3 6 2 -6 -4 -6 -5
-2 3 6 3 -6 -3 -6 -5
1 4 6 4 -5 -2 -5 -4
2 4 6 4 -4 -2 -4 -4
3 4 6 5 -4 0 -4 -4
4 5 6 6 -3 1 -3 -3
4 6 6 6 -3 1 -2 -2
5 7 5 5 -3 2 0 0
5 7 5 5 -3 2 0 0
5 8 5 5 -3 2 1 1
6 9 4 4 -2 3 2 2
6 8 3 4 -3 2 1 2
5 7 2 3 -4 1 0 1
5 6 2 2 -4 1 0 0
5 5 1 2 -5 0 -2 0
4 4 0 1 -6 -2 -3 -2
4 3 -2 0 -7 -2 -3 -2
3 1 -4 -3 -8 -3 -4 -3
3 0 -5 -4 -9 -3 -4 -3
3 -2 -6 -5 -10 -3 -4 -3
2 -3 -7 -6 -11 -4 -5 -4
2 -4 -7 -6 -11 -5 -6 -5
1 -5 -7 -7 -12 -6 -7 -6
1 -6 -7 -7 -12 -7 -7 -6
1 -7 -7 -7 -12 -8 -8 -7
0 -8 -8 -8 -13 -9 -9 -8
-2 -8 -8 -8 -13 -9 -9 -8
-3 -8 -7 -8 -13 -9 -9 -8
-3 -8 -7 -8 -13 -9 -9 -8
-4 -8 -7 -8 -13 -9 -9 -8
-5 -9 -6 -7 -13 -10 -10 -9
-5 -10 -6 -7 -13 -10 -10 -9
-6 -11 -6 -7 -13 -10 -10 -10
-6 -11 -6 -7 -13 -10 -10 -10
-6 -12 -6 -7 -13 -10 -10 -10
-7 -13 -5 -6 -13 -10 -10 -11
-7 -13 -5 -6 -13 -10 -10 -11
-7 -13 -6 -7 -13 -10 -10 -11
-7 -13 -7 -7 -13 -10 -10 -11
-7 -13 -7 -7 -13 -10 -10 -11
-6 -13 -8 -8 -14 -11 -11 -12
-6 -13 -8 -8 -14 -11 -11 -12
-6 -13 -7 -7 -14 -11 -11 -12
-6 -13 -7 -7 -14 -11 -11 -12
-6 -13 -7 -7 -14 -11 -11 -12
-7 -13 -6 -6 -15 -11 -11 -11
-7 -13 -6 -6 -15 -11 -11 -11
-7 -12 -7 -7 -15 -11 -11 -11
-7 -11 -7 -7 -15 -11 -11 -11
-7 -11 -7 -7 -15 -11 -11 -11
-7 -10 -8 -8 -15 -10 -12 -11
-7 -10 -8 -8 -15 -10 -12 -11
-7 -11 -7 -7 -14 -10 -12 -11
-7 -11 -7 -6 -14 -10 -12 -11
-7 -11 -7 -6 -14 -10 -12 -11
-8 -12 -6 -5 -13 -10 -12 -10
-7 -13 -6 -5 -13 -10 -12 -12
-6 -14 -6 -4 -12 -10 -13 -14
-6 -14 -6 -3 -11 -10 -14 -15
-5 -15 -6 -3 -11 -10 -14 -17
-3 -16 -2 3 -8 -9 -15 -18
1 -17 4 10 -5 -8 -15 -19
4 -19 9 18 -2 -6 -14 -20
7 -20 14 25 3 -4 -14 -20
10 -21 19 33 6 -2 -14 -21
17 -12 24 44 20 13 0 -12
26 7 29 56 40 34 21 7
35 24 34 68 61 56 43 24
45 43 39 80 81 78 64 42
54 61 45 93 103 100 86 60
64 85 43 95 116 121 111 84
75 113 34 89 126 143 139 111
87 141 26 81 134 164 167 139
98 170 18 75 143 186 195 168
109 198 10 69 152 206 223 195
108 207 -3 53 146 206 229 203
97 202 -17 29 130 191 219 198
87 197 -31 6 112 176 209 192
75 192 -47 -18 96 160 199 186
65 187 -61 -40 78 145 189 181
51 168 -68 -57 55 119 160 157
34 138 -70 -67 27 85 119 122
18 108 -73 -78 -2 51 78 89
2 77 -75 -90 -29 17 37 54
-15 48 -78 -100 -58 -17 -4 19
-21 28 -78 -101 -69 -33 -23 2
-18 16 -74 -93 -68 -36 -27 -6
-15 4 -71 -85 -67 -40 -31 -13
-12 -9 -68 -76 -67 -44 -36 -19
-9 -21 -65 -68 -66 -48 -40 -26
-7 -26 -58 -59 -61 -47 -40 -28
-7 -25 -49 -50 -53 -39 -35 -25
-8 -24 -38 -40 -45 -33 -30 -23
-8 -23 -29 -30 -36 -27 -25 -20
-8 -22 -19 -21 -29 -20 -20 -18
-9 -20 -14 -16 -24 -16 -18 -16
-9 -18 -12 -13 -22 -15 -17 -16
-8 -16 -10 -11 -20 -13 -16 -15
-7 -14 -8 -8 -18 -11 -15 -15
-7 -12 -6 -6 -16 -9 -14 -15
-6 -11 -5 -4 -15 -8 -13 -14
-6 -11 -4 -3 -15 -8 -13 -14
-6 -11 -2 -2 -14 -8 -13 -14
-6 -11 0 0 -14 -8 -13 -14
-6 -11 1 1 -14 -8 -13 -14
-6 -11 2 2 -13 -9 -12 -13
-6 -11 2 2 -13 -9 -12 -13
-6 -11 2 2 -13 -9 -12 -13
-6 -11 2 2 -13 -9 -12 -13
-6 -11 2 2 -13 -9 -12 -13
-7 -10 1 2 -12 -8 -12 -12
-7 -10 1 2 -12 -8 -12 -12
-7 -11 1 2 -12 -8 -12 -12
-7 -11 1 2 -12 -8 -12 -12
-7 -11 1 2 -12 -8 -12 -12
-6 -12 2 2 -11 -7 -11 -12
-6 -12 2 2 -11 -7 -11 -12
-6 -11 3 3 -11 -7 -10 -12
-6 -11 3 3 -11 -7 -9 -12
-6 -11 3 3 -11 -7 -9 -12
-7 -10 4 4 -10 -6 -8 -11
-7 -10 4 4 -10 -6 -8 -11
-7 -9 4 4 -10 -6 -8 -11
-7 -8 4 4 -10 -6 -8 -11
-7 -8 4 4 -10 -6 -8 -11
-6 -7 3 5 -10 -5 -9 -11
-6 -7 3 5 -10 -5 -9 -11
-5 -7 3 5 -10 -5 -9 -11
-5 -7 3 5 -10 -5 -9 -11
-5 -7 3 5 -10 -5 -9 -11
-4 -7 4 5 -9 -5 -9 -11
-4 -7 4 5 -9 -5 -9 -11
-4 -8 4 5 -9 -5 -9 -10
-4 -9 4 5 -9 -5 -9 -10
-4 -9 4 5 -9 -5 -9 -10
-4 -10 5 6 -8 -4 -9 -9
-4 -10 5 6 -8 -4 -9 -9
-4 -10 5 6 -7 -3 -8 -9
-4 -10 5 6 -7 -2 -7 -9
-4 -10 5 6 -7 -2 -7 -9
-3 -9 5 7 -6 0 -6 -9
-3 -9 5 7 -6 0 -6 -9
-3 -8 5 8 -6 0 -6 -9
-3 -7 5 9 -6 0 -6 -9
-3 -7 5 9 -6 0 -6 -9
-3 -6 6 10 -5 -2 -5 -8
-3 -6 6 10 -5 -2 -5 -7
-3 -5 6 10 -4 0 -4 -6
-3 -4 6 10 -3 0 -4 -6
-3 -4 6 10 -3 0 -4 -5
-2 -3 6 10 -2 1 -3 -4
-2 -3 6 10 -2 1 -3 -4
0 -2 6 11 -2 1 -3 -4
1 0 6 11 -2 1 -3 -4
1 0 6 11 -2 1 -3 -4
2 1 6 12 0 2 -3 -3
2 1 6 13 1 2 -3 -3
3 0 7 14 2 3 -2 -2
4 0 7 14 3 3 -2 -2
4 0 7 15 4 3 -2 -2
5 -2 8 16 5 4 0 0
5 -2 8 16 5 4 0 0
5 -2 8 17 5 5 0 0
5 -2 8 17 5 6 0 0
5 -2 8 17 5 6 0 0
5 0 7 18 6 7 1 0
6 1 7 18 7 9 3 1
7 2 7 19 8 10 5 2
8 3 7 19 9 11 7 2
9 4 7 19 10 13 9 3
10 5 8 20 11 14 10 4
10 7 8 20 11 14 10 4
11 9 7 20 11 14 10 5
12 11 7 20 11 14 10 5
12 13 7 20 11 14 10 5
13 14 6 21 11 13 9 6
13 14 6 21 12 14 10 8
13 14 7 21 13 16 12 9
13 14 7 21 14 17 13 10
13 14 7 21 15 18 14 12
14 15 8 21 16 19 15 13
14 16 8 21 16 19 15 13
15 17 7 20 15 19 16 13
15 18 7 20 15 19 16 13
15 19 7 20 15 19 16 13
16 20 6 19 14 19 17 13
16 20 6 18 14 19 17 13
16 21 6 17 13 19 17 14
16 21 6 17 13 19 17 15
16 21 6 16 13 19 17 15
16 22 6 15 12 20 18 16
16 22 6 15 12 20 18 16
15 23 5 15 12 19 17 16
15 23 5 15 12 18 17 16
15 23 5 15 12 18 17 16
14 24 4 15 11 17 16 17
14 24 4 14 10 17 16 17
13 24 4 13 9 16 15 16
13 24 4 13 8 15 15 16
13 24 4 12 7 15 15 16
12 23 3 11 6 14 14 15
11 22 3 10 4 13 14 15
10 21 2 8 3 11 14 14
10 21 2 7 2 10 14 13
9 20 2 6 0 9 14 13
8 19 1 5 -2 8 13 12
8 18 1 5 -2 8 12 12
7 16 1 5 -2 7 10 11
7 15 1 5 -2 7 9 11
7 14 1 5 -2 7 8 11
6 12 2 5 -3 6 7 10
4 10 2 5 -3 5 6 9
3 8 2 5 -3 5 5 8
1 6 2 5 -3 4 4 7
-2 4 2 5 -3 3 3 6
-3 2 3 5 -4 2 2 5
-3 2 3 5 -5 1 1 4
-3 1 3 4 -5 0 0 4
-3 0 2 3 -6 -3 -2 3
-3 0 2 3 -7 -4 -3 2
-4 -2 1 2 -8 -5 -4 1
-5 -2 1 2 -8 -5 -5 0
-5 -3 1 2 -8 -5 -5 -2
-6 -4 1 1 -8 -5 -6 -3
-7 -4 1 1 -8 -5 -7 -4
-8 -5 0 0 -9 -6 -8 -5
-8 -6 0 0 -9 -6 -8 -5
-8 -6 0 0 -9 -6 -8 -5
-9 -7 0 0 -10 -7 -9 -6
-9 -8 0 0 -10 -7 -9 -6
-10 -9 0 1 -11 -8 -10 -7
-10 -9 0 1 -11 -8 -10 -7
-10 -10 0 1 -11 -8 -10 -7
-10 -11 0 0 -11 -8 -11 -8
-10 -11 0 0 -11 -8 -11 -8
-10 -12 0 -2 -12 -9 -12 -9
-10 -12 0 -2 -12 -9 -12 -9
-10 -12 0 -2 -12 -9 -12 -9
-10 -12 -2 -2 -12 -9 -12 -9
-10 -12 -2 -2 -12 -9 -12 -9
-9 -13 -3 -3 -11 -10 -12 -8
-9 -13 -3 -3 -11 -10 -12 -8
-9 -13 -3 -3 -11 -10 -12 -8
-9 -13 -3 -3 -11 -10 -12 -8
-9 -13 -3 -3 -11 -10 -12 -8
-10 -12 -2 -2 -12 -10 -12 -8
-10 -12 -2 -2 -12 -10 -12 -8
-10 -12 -2 -2 -12 -10 -12 -8
-10 -13 -2 -2 -11 -10 -12 -8
-10 -13 -2 -2 -11 -10 -12 -8
-10 -14 -2 -2 -10 -10 -12 -7
-10 -14 -2 -2 -10 -10 -12 -7
-10 -14 -2 -2 -10 -10 -12 -8
-10 -14 -2 -2 -11 -10 -12 -9
-10 -14 -2 -2 -11 -10 -12 -9
-11 -13 -2 -3 -12 -10 -13 -10
-11 -13 -2 -3 -12 -10 -13 -10
-11 -13 -2 -3 -12 -10 -13 -10
-11 -14 -2 -3 -12 -11 -13 -10
-11 -14 -2 -3 -12 -11 -13 -10
-12 -15 -2 -3 -11 -12 -13 -10
-12 -15 -2 -3 -11 -12 -13 -10
-12 -15 -2 -3 -11 -12 -13 -10
-12 -15 -2 -3 -11 -12 -13 -10
-12 -15 -2 -3 -11 -12 -13 -10
-11 -14 -3 -3 -12 -12 -14 -11
-11 -14 -3 -3 -12 -12 -14 -11
-11 -14 -3 -3 -12 -12 -14 -11
-11 -13 -3 -3 -12 -12 -14 -11
-11 -13 -3 -3 -12 -12 -14 -11
-12 -12 -2 -4 -13 -13 -13 -11
-12 -12 -2 -4 -13 -13 -13 -11
-12 -13 -2 -4 -13 -13 -13 -11
-12 -14 -2 -3 -13 -12 -13 -11
-12 -14 -2 -3 -13 -12 -13 -11
-12 -15 -2 -2 -12 -11 -13 -11
-12 -15 -2 -2 -12 -11 -13 -11
-12 -15 -2 -2 -12 -11 -13 -11
-12 -15 -2 -2 -12 -11 -13 -11
-12 -15 -2 -2 -12 -11 -13 -11
-11 -16 -2 -3 -12 -12 -12 -12
-11 -16 -2 -3 -12 -11 -12 -12
-11 -16 0 -3 -11 -11 -12 -12
-11 -16 1 -2 -10 -10 -11 -12
-11 -16 1 -2 -10 -9 -11 -12
-11 -16 2 0 -9 -8 -10 -11
-11 -16 2 0 -9 -8 -10 -11
-10 -15 1 0 -9 -8 -10 -11
-9 -14 0 0 -10 -8 -10 -11
-9 -14 0 0 -10 -8 -10 -11
-8 -13 -2 -2 -11 -8 -10 -10
-8 -13 -2 -2 -11 -8 -10 -10
-8 -13 -2 -2 -11 -8 -10 -10
-8 -14 -2 0 -11 -8 -10 -10
-8 -14 -2 0 -11 -8 -10 -10
-9 -15 -2 1 -10 -9 -10 -10
-9 -14 -2 1 -10 -9 -10 -10
-9 -13 -2 1 -10 -9 -10 -10
-9 -11 -2 1 -10 -8 -10 -9
-9 -10 -2 1 -10 -8 -10 -9
-9 -9 0 0 -10 -7 -9 -8
-9 -9 0 0 -10 -7 -9 -8
-9 -9 0 0 -10 -7 -9 -8
-8 -9 0 0 -10 -7 -9 -8
-8 -9 0 0 -10 -7 -9 -8
-7 -10 -2 -2 -11 -8 -9 -7
-7 -10 -2 -2 -11 -8 -9 -7
-7 -11 -2 -2 -11 -8 -9 -7
-7 -12 -2 -2 -10 -8 -8 -7
-7 -12 -2 -2 -10 -8 -8 -7
-8 -13 -2 -2 -9 -8 -7 -6
-8 -13 -2 -2 -9 -8 -7 -6
-8 -12 -2 -2 -9 -8 -7 -6
-8 -11 -2 -2 -9 -8 -7 -6
-8 -11 -2 -2 -9 -8 -7 -6
-8 -10 -2 -2 -10 -8 -8 -7
-8 -10 -2 -2 -10 -8 -8 -7
-8 -10 -2 -2 -10 -8 -8 -7
-8 -11 -2 -2 -10 -8 -8 -7
-8 -11 -2 -2 -10 -8 -8 -7
-8 -12 -3 -3 -11 -8 -7 -8
-8 -12 -3 -3 -11 -8 -7 -8
-8 -12 -3 -3 -11 -8 -8 -8
-8 -12 -3 -3 -11 -9 -9 -8
-8 -12 -3 -3 -11 -9 -9 -8
-7 -13 -3 -4 -12 -10 -10 -9
-7 -13 -3 -4 -12 -10 -10 -9
-7 -13 -3 -4 -12 -10 -10 -9
-8 -12 -3 -4 -12 -9 -9 -9
-8 -12 -3 -4 -12 -9 -9 -9
-9 -11 -3 -4 -11 -8 -8 -8
-9 -11 -3 -4 -11 -8 -8 -8
-9 -11 -3 -4 -11 -8 -8 -8
-9 -11 -3 -4 -11 -9 -8 -8
-9 -11 -3 -4 -11 -9 -8 -8
-9 -12 -4 -3 -11 -10 -8 -9
-9 -12 -4 -3 -11 -10 -8 -9
-9 -12 -4 -3 -11 -10 -8 -9
-9 -12 -4 -3 -11 -10 -8 -10
-9 -12 -4 -3 -11 -10 -8 -10
-9 -11 -4 -3 -12 -11 -9 -11
-9 -11 -4 -3 -12 -11 -9 -11
-9 -11 -4 -3 -12 -11 -9 -11
-9 -11 -4 -3 -12 -11 -9 -10
-9 -11 -4 -3 -12 -11 -9 -10
-9 -11 -4 -3 -11 -10 -9 -9
-9 -11 -4 -3 -11 -10 -9 -9
-9 -11 -4 -3 -11 -10 -9 -9
-9 -11 -4 -4 -11 -10 -9 -9
-9 -11 -4 -4 -11 -10 -9 -9
-8 -12 -4 -5 -10 -9 -9 -10
-8 -12 -4 -5 -10 -9 -9 -10
-8 -12 -4 -5 -10 -9 -9 -10
-8 -12 -4 -5 -11 -10 -9 -10
-8 -12 -4 -5 -11 -10 -9 -10
-9 -11 -4 -4 -12 -11 -8 -9
-9 -11 -4 -4 -12 -11 -8 -9
-9 -11 -4 -4 -12 -11 -8 -9
-9 -11 -3 -4 -12 -11 -8 -9
-9 -11 -3 -4 -12 -11 -8 -9
-9 -10 -2 -4 -11 -11 -7 -9
-9 -10 -2 -4 -11 -11 -7 -9
-9 -10 -2 -3 -11 -11 -7 -9
-9 -10 -2 -2 -11 -11 -8 -8
-9 -10 -2 -2 -11 -11 -8 -8
-8 -9 0 0 -10 -11 -9 -7
-8 -8 1 0 -9 -10 -8 -6
-8 -6 1 1 -9 -9 -7 -6
-7 -5 2 2 -8 -8 -6 -5
-7 -3 3 2 -7 -7 -5 -4
-6 -2 4 3 -6 -6 -4 -3
-6 -2 4 3 -6 -6 -4 -3
-6 0 5 3 -6 -6 -4 -3
-6 1 6 4 -5 -5 -3 -3
-6 1 6 4 -5 -5 -3 -3
-5 2 7 5 -4 -4 -2 -3
-4 3 7 5 -4 -4 -2 -3
-3 3 7 6 -4 -3 -2 -2
0 4 6 7 -3 -2 -2 0
1 5 6 7 -3 -2 -2 0
2 6 5 8 -2 0 0 1
2 7 4 8 -2 0 0 1
2 7 4 8 -2 0 0 1
2 8 3 7 0 0 1 2
2 9 2 7 0 0 1 2
2 10 1 6 1 1 2 3
2 8 1 5 0 0 1 3
2 5 0 4 -2 -2 1 3
2 3 -2 3 -3 -3 0 2
2 1 -2 2 -4 -4 -2 2
1 -2 -3 1 -5 -5 -3 1
0 -2 -4 0 -6 -5 -3 1
0 -2 -5 -3 -6 -6 -4 0
-2 -3 -6 -4 -7 -7 -5 -2
-3 -3 -7 -6 -8 -7 -5 -2
-4 -4 -8 -7 -9 -8 -6 -3
-4 -5 -8 -7 -9 -9 -7 -4
-5 -6 -8 -7 -9 -9 -7 -5
-6 -7 -8 -7 -9 -10 -8 -7
-6 -8 -8 -7 -9 -11 -9 -8
-7 -9 -7 -6 -10 -12 -10 -9
-7 -9 -7 -6 -10 -12 -10 -9
-8 -10 -7 -6 -10 -12 -10 -9
-9 -11 -6 -5 -10 -12 -10 -9
-9 -11 -6 -5 -10 -12 -10 -9
-10 -12 -5 -4 -10 -12 -11 -10
-10 -12 -5 -4 -10 -12 -11 -10
-10 -12 -5 -4 -10 -12 -11 -10
-10 -12 -5 -4 -10 -12 -11 -10
-10 -12 -5 -4 -10 -12 -11 -10
-11 -11 -5 -5 -10 -13 -11 -10
-11 -11 -5 -5 -10 -13 -11 -10
-11 -12 -5 -5 -10 -13 -11 -10
-11 -13 -5 -5 -10 -13 -11 -10
-11 -13 -5 -5 -10 -13 -11 -10
-12 -14 -5 -5 -10 -13 -12 -11
-12 -14 -5 -5 -10 -13 -12 -11
-12 -14 -6 -5 -10 -13 -12 -11
-12 -13 -6 -6 -11 -13 -12 -11
-12 -13 -7 -6 -11 -13 -12 -11
-12 -12 -8 -7 -12 -14 -13 -11
-12 -12 -8 -7 -12 -14 -13 -11
-12 -12 -7 -7 -12 -14 -13 -11
-12 -12 -7 -7 -12 -14 -13 -11
-12 -12 -6 -7 -12 -14 -13 -11
-12 -11 -5 -7 -11 -14 -14 -12
-12 -11 -5 -7 -11 -14 -14 -11
-12 -11 -5 -7 -10 -14 -14 -11
-12 -11 -5 -7 -10 -14 -13 -10
-12 -11 -5 -7 -9 -14 -13 -9
-11 -11 -6 -6 -8 -13 -12 -9
-11 -14 -5 -4 -8 -13 -14 -12
-11 -17 -4 -2 -8 -13 -16 -15
-11 -20 -3 1 -8 -14 -18 -18
-11 -23 -2 3 -8 -14 -20 -21
-9 -25 2 8 -6 -14 -21 -24
-4 -21 8 18 4 -8 -18 -22
1 -17 15 28 13 -3 -15 -21
6 -13 22 38 22 4 -12 -19
10 -9 29 49 30 10 -9 -18
17 2 34 59 44 22 4 -9
30 25 36 68 66 49 33 17
43 49 39 78 88 76 63 43
55 72 42 89 109 104 93 68
67 97 44 99 132 131 122 94
78 120 42 100 147 153 149 118
87 144 25 80 148 167 170 141
95 168 9 61 149 180 191 163
104 191 -8 40 150 192 212 186
112 215 -24 21 151 205 232 207
113 226 -37 2 145 206 239 218
96 205 -48 -15 120 180 211 196
78 186 -57 -31 96 153 182 175
61 167 -66 -49 71 127 152 153
44 147 -75 -65 47 100 123 132
28 126 -82 -78 23 72 95 109
18 99 -81 -82 2 46 66 82
8 73 -80 -87 -19 18 36 56
-2 48 -79 -91 -40 -10 8 29
-12 21 -78 -96 -62 -37 -22 3
-20 2 -75 -96 -76 -57 -43 -17
-17 -4 -68 -86 -69 -54 -41 -19
-14 -9 -61 -75 -63 -51 -40 -22
-11 -15 -54 -65 -56 -48 -39 -24
-8 -20 -47 -55 -50 -45 -37 -26
-5 -24 -40 -45 -44 -40 -35 -28
-5 -22 -33 -36 -36 -35 -32 -25
-6 -19 -27 -29 -30 -30 -28 -22
-6 -17 -20 -21 -23 -25 -24 -19
-7 -15 -14 -13 -17 -20 -20 -16
-8 -13 -9 -7 -12 -16 -17 -14
-8 -13 -8 -6 -11 -15 -16 -14
-8 -12 -6 -5 -10 -15 -16 -13
-8 -12 -5 -4 -9 -14 -15 -13
-8 -11 -3 -3 -7 -13 -14 -12
-9 -10 -2 -2 -6 -12 -13 -11
-9 -10 0 0 -6 -12 -13 -11
-9 -10 0 1 -6 -12 -13 -11
-9 -11 1 2 -5 -12 -13 -11
-9 -11 2 4 -5 -12 -13 -11
-9 -12 3 5 -4 -11 -13 -12
-9 -11 3 5 -4 -11 -13 -12
-9 -11 3 5 -4 -11 -13 -12
-10 -10 3 4 -3 -11 -13 -12
-10 -9 3 4 -3 -11 -13 -12
-11 -8 2 3 -2 -10 -13 -11
-11 -8 2 3 -2 -10 -13 -11
-11 -8 3 3 -2 -10 -13 -11
-11 -8 3 4 -2 -10 -13 -11
-11 -8 4 4 -2 -10 -13 -11
-10 -9 5 5 -2 -10 -12 -11
-10 -9 5 5 -2 -10 -12 -11
-10 -9 5 5 -2 -10 -12 -11
-10 -9 5 5 0 -10 -12 -10
-10 -9 5 5 0 -10 -12 -10
-9 -8 4 5 1 -9 -12 -9
-9 -8 4 5 1 -9 -12 -9
-9 -8 4 5 1 -9 -12 -9
-8 -8 4 5 1 -9 -11 -9
-8 -8 4 5 1 -9 -11 -9
-7 -7 4 6 2 -9 -10 -9
-7 -7 4 6 2 -9 -10 -9
-7 -7 4 6 2 -8 -9 -8
-7 -7 4 7 2 -8 -9 -8
-7 -7 4 7 2 -7 -8 -7
-8 -7 4 8 2 -6 -7 -6
-8 -7 4 8 2 -6 -7 -6
-8 -7 4 8 2 -6 -8 -6
-8 -7 4 8 2 -6 -8 -7
-8 -7 4 8 2 -6 -9 -7
-7 -7 4 9 3 -7 -10 -8
-7 -7 4 9 4 -7 -10 -8
-6 -6 4 9 4 -7 -10 -8
-6 -6 4 9 5 -6 -9 -8
-5 -5 4 9 6 -6 -9 -8
-4 -4 5 10 7 -5 -8 -7
-4 -4 5 10 7 -5 -8 -7
-4 -4 5 10 7 -5 -8 -7
-4 -4 5 11 7 -5 -7 -7
-4 -4 5 11 7 -5 -7 -7
-3 -4 6 12 7 -5 -6 -6
-3 -4 6 12 7 -5 -6 -6
-3 -4 6 12 8 -4 -5 -5
-2 -4 6 13 9 -3 -5 -5
-2 -4 6 13 10 -2 -4 -4
0 -3 7 14 11 0 -3 -3
0 -3 7 14 11 0 -3 -3
0 -3 7 14 11 0 -3 -3
0 -3 7 15 11 -2 -3 -3
0 -3 7 15 11 -2 -3 -3
0 -2 8 16 11 -3 -3 -3
0 -2 8 16 12 -3 -3 -3
1 0 8 17 13 -2 -2 -2
2 0 8 17 14 0 -2 -2
3 1 8 18 15 1 0 0
4 2 8 19 16 2 1 1
4 2 8 19 16 2 1 1
4 3 8 20 16 2 1 1
5 4 8 21 16 3 2 2
5 5 8 22 16 3 2 2
6 6 9 23 17 4 3 3
6 6 9 23 18 5 3 3
7 7 9 23 20 7 4 3
7 8 9 23 21 9 4 4
8 9 9 23 22 10 5 4
9 10 10 23 24 12 6 5
9 11 10 23 24 12 7 6
10 12 10 24 24 12 9 7
10 13 10 24 25 13 10 8
11 14 10 25 25 13 11 10
12 15 10 26 26 14 13 11
13 16 10 26 26 14 13 11
14 17 9 26 26 15 14 12
15 18 8 25 26 15 14 12
16 20 7 25 26 16 15 13
17 21 6 24 26 17 16 14
17 21 6 24 26 17 16 14
17 22 6 24 26 17 16 15
17 22 6 24 26 17 17 15
17 23 6 24 26 17 17 16
16 24 6 23 26 17 18 17
16 25 6 23 26 17 18 17
16 26 6 22 26 17 18 17
16 27 5 21 26 17 18 18
16 29 5 20 26 17 18 18
16 30 4 19 25 16 18 19
16 29 4 19 25 16 18 19
16 28 4 19 24 16 18 19
16 27 4 18 23 16 18 19
16 25 4 18 22 16 18 19
15 24 3 17 21 16 18 20
14 24 3 17 21 16 18 20
13 24 3 16 20 15 18 20
12 24 3 15 20 15 18 20
11 24 3 14 19 14 18 20
10 25 2 13 18 13 18 20
10 24 2 13 17 12 17 20
9 23 2 12 16 11 16 19
8 22 2 12 15 10 15 18
7 20 2 11 13 8 14 17
6 19 1 10 12 7 13 16
6 19 1 10 12 7 12 16
6 18 1 9 11 6 11 15
5 18 1 9 10 6 10 14
5 17 1 8 9 5 8 13
4 16 0 7 8 4 7 12
3 14 0 7 8 3 6 11
2 12 0 6 7 2 5 9
1 9 0 6 6 1 4 7
-2 7 0 5 5 -2 3 6
-3 5 -2 4 4 -3 2 4
-3 4 -2 4 4 -3 2 4
-4 3 -2 4 4 -3 1 3
-5 2 -2 4 4 -3 1 2
-6 1 -2 4 4 -3 0 1
-7 0 0 4 4 -3 -2 0
-7 0 0 4 4 -4 -3 0
-7 -2 0 4 4 -5 -4 -2
-7 -2 0 4 3 -6 -5 -3
-7 -3 0 4 3 -8 -6 -4
-7 -4 -2 3 2 -9 -7 -5
-7 -4 -2 3 2 -9 -7 -5
-8 -5 -2 2 2 -9 -7 -5
-8 -6 -2 2 1 -10 -7 -5
-9 -7 -2 1 1 -10 -7 -5
-10 -8 -2 0 0 -11 -8 -6
-10 -9 -2 0 0 -11 -8 -6
-10 -11 -2 0 0 -11 -8 -6
-10 -12 -2 0 0 -11 -9 -6
-10 -13 -2 0 0 -11 -9 -6
-10 -15 -3 1 -2 -11 -10 -6
-10 -14 -3 1 -2 -11 -10 -6
-10 -13 -3 1 -2 -11 -10 -7
-10 -12 -3 0 -2 -11 -10 -7
-10 -11 -3 0 -2 -11 -10 -8
-11 -10 -4 -2 -3 -11 -10 -9
-11 -10 -4 -2 -3 -11 -10 -9
-11 -10 -4 -2 -3 -11 -10 -9
-11 -10 -4 -2 -3 -12 -10 -9
-11 -10 -4 -2 -3 -12 -10 -9
-10 -11 -4 -2 -4 -13 -10 -10
-10 -11 -4 -2 -4 -13 -10 -10
-10 -11 -4 -2 -4 -13 -10 -10
-10 -11 -4 -2 -4 -13 -10 -9
-10 -11 -4 -2 -4 -13 -10 -9
-9 -10 -4 -3 -4 -12 -10 -8
-9 -10 -4 -3 -4 -12 -10 -8
-10 -11 -4 -3 -4 -12 -10 -8
-10 -12 -4 -3 -4 -12 -10 -8
-11 -13 -4 -3 -4 -12 -10 -8
-12 -14 -3 -3 -4 -13 -10 -8
-12 -14 -3 -3 -4 -13 -10 -8
-12 -14 -3 -3 -4 -13 -10 -8
-12 -13 -3 -3 -4 -13 -10 -8
-12 -13 -3 -3 -4 -13 -10 -8
-11 -12 -4 -3 -5 -13 -9 -8
-11 -12 -4 -3 -5 -13 -9 -8
-11 -12 -4 -3 -5 -13 -9 -8
-11 -12 -3 -3 -5 -13 -9 -8
-11 -12 -3 -3 -5 -13 -9 -8
-11 -13 -2 -2 -6 -13 -10 -9
-11 -13 -2 -2 -6 -13 -10 -9
-11 -13 -2 -2 -6 -13 -10 -9
-12 -13 -2 -2 -6 -13 -10 -9
-12 -13 -2 -2 -6 -13 -10 -9
-13 -14 -2 -2 -6 -13 -11 -10
-13 -14 -2 -2 -6 -13 -11 -10
-13 -14 -2 -2 -6 -13 -11 -10
-13 -14 -2 -2 -6 -13 -11 -10
-13 -14 -2 -2 -6 -13 -11 -10
-12 -14 -3 -3 -7 -13 -12 -11
-12 -14 -3 -3 -7 -13 -12 -11
-12 -14 -3 -3 -7 -13 -12 -11
-12 -14 -3 -3 -6 -13 -12 -11
-12 -14 -3 -3 -6 -13 -12 -11
-12 -15 -2 -3 -5 -12 -11 -11
-12 -15 -2 -3 -5 -12 -11 -11
-12 -15 -2 -3 -5 -12 -11 -11
-12 -15 -2 -3 -5 -12 -11 -11
-12 -15 -2 -3 -5 -12 -11 -11
-11 -15 -2 -2 -6 -13 -11 -12
-11 -15 -2 -2 -6 -13 -11 -12
-11 -15 -2 -2 -6 -13 -11 -12
-11 -15 -2 -2 -5 -13 -11 -12
-11 -15 -2 -2 -5 -13 -11 -12
-10 -16 0 0 -4 -12 -10 -11
-10 -16 0 0 -4 -12 -10 -11
-10 -16 0 0 -4 -12 -10 -11
-9 -15 1 0 -4 -11 -10 -11
-9 -15 1 0 -4 -11 -10 -11
-8 -14 2 0 -5 -10 -10 -10
-8 -14 2 0 -5 -10 -10 -10
-8 -14 2 0 -5 -10 -10 -10
-8 -14 2 0 -5 -10 -9 -10
-8 -14 2 0 -5 -10 -9 -10
-9 -15 1 0 -4 -11 -8 -9
-9 -15 1 0 -4 -11 -8 -9
-9 -15 1 0 -4 -11 -8 -9
-9 -15 1 1 -4 -11 -8 -9
-9 -15 1 1 -4 -11 -8 -9
-8 -14 2 2 -3 -10 -7 -8
-8 -14 2 2 -3 -10 -7 -8
-9 -14 2 2 -3 -10 -7 -8
-9 -13 2 1 -3 -10 -7 -7
-10 -13 2 1 -3 -10 -7 -7
-11 -12 1 0 -4 -9 -7 -6
-11 -12 1 0 -4 -9 -7 -6
-11 -12 1 0 -4 -9 -7 -6
-11 -12 1 0 -4 -9 -7 -6
-11 -12 1 0 -4 -9 -7 -6
-10 -13 1 -2 -5 -10 -8 -7
-10 -13 1 -2 -5 -10 -8 -7
-10 -14 1 -2 -5 -10 -8 -7
-10 -15 1 -2 -5 -10 -8 -7
-10 -16 1 -2 -5 -10 -8 -7
-9 -17 1 -3 -6 -9 -7 -8
-9 -17 1 -3 -6 -9 -7 -8
-9 -16 1 -3 -6 -9 -7 -8
-9 -16 1 -3 -6 -9 -7 -8
-9 -15 1 -3 -6 -9 -7 -8
-10 -14 1 -4 -6 -10 -8 -7
-10 -14 1 -4 -6 -10 -8 -7
-10 -14 1 -4 -6 -10 -8 -7
-9 -14 1 -4 -6 -10 -8 -7
-9 -14 1 -4 -6 -10 -8 -7
-8 -14 0 -5 -7 -11 -8 -7
-8 -14 0 -5 -7 -11 -8 -7
-8 -14 0 -5 -7 -11 -8 -7
-9 -15 0 -5 -7 -11 -8 -7
-9 -15 0 -5 -7 -11 -8 -7
-10 -16 0 -5 -6 -10 -8 -7
-10 -16 0 -5 -6 -10 -8 -7
-10 -16 0 -5 -6 -10 -8 -7
-10 -16 1 -5 -6 -9 -7 -6
-10 -16 1 -5 -6 -9 -7 -6
-9 -16 2 -5 -5 -8 -6 -5
-9 -16 2 -5 -5 -8 -6 -5
-9 -16 1 -5 -5 -8 -6 -5
-9 -16 1 -5 -6 -9 -6 -6
-9 -16 0 -5 -6 -9 -6 -6
-9 -15 -2 -6 -7 -10 -7 -7
-9 -15 -2 -6 -7 -10 -7 -7
-9 -15 -2 -6 -7 -10 -7 -7
-9 -15 -2 -6 -7 -10 -7 -8
-9 -15 -2 -6 -7 -10 -7 -8
-9 -15 0 -6 -7 -10 -7 -9
-9 -15 0 -6 -7 -10 -7 -9
-9 -15 0 -6 -7 -10 -7 -9
-9 -15 0 -6 -7 -10 -7 -9
-9 -15 0 -6 -7 -10 -7 -9
-10 -15 1 -6 -8 -10 -7 -8
-10 -15 1 -6 -8 -10 -7 -8
-10 -15 1 -6 -7 -9 -6 -7
-10 -15 1 -6 -7 -8 -6 -7
-10 -15 1 -6 -6 -7 -5 -6
-10 -15 2 -5 -5 -6 -4 -5
-10 -15 2 -5 -5 -6 -4 -5
-10 -15 2 -5 -5 -6 -4 -5
-9 -15 2 -4 -5 -6 -4 -5
-9 -15 2 -4 -5 -6 -4 -5
-8 -15 3 -3 -5 -6 -4 -5
-8 -14 4 -3 -5 -6 -4 -5
-8 -12 5 -2 -4 -5 -4 -5
-8 -11 6 -2 -3 -5 -3 -4
-8 -9 7 0 -2 -4 -3 -4
-7 -7 9 1 0 -3 -2 -3
-7 -6 9 1 0 -3 -2 -3
-7 -5 9 1 0 -3 -2 -3
-7 -4 10 2 0 -3 0 -3
-7 -3 10 2 0 -3 0 -3
-6 -2 11 3 1 -2 1 -2
-5 0 11 3 1 -2 1 -2
-4 1 11 3 2 -2 2 0
-3 2 11 3 2 0 3 0
-2 3 11 3 3 0 4 1
1 4 10 4 4 1 5 2
1 4 10 4 4 1 5 3
1 4 10 4 4 2 5 4
2 4 9 3 4 2 6 5
2 4 9 3 4 3 6 6
3 4 8 2 3 4 7 7
3 4 8 2 3 4 7 6
3 3 7 1 2 3 6 5
2 2 7 0 1 2 5 4
2 1 6 -2 0 1 4 3
1 0 5 -3 -2 0 3 1
1 -3 4 -4 -3 -2 3 1
1 -5 3 -5 -4 -3 2 0
0 -7 2 -6 -5 -4 1 0
0 -9 1 -7 -6 -5 0 -2
-2 -11 0 -8 -8 -6 -2 -3
-2 -11 0 -8 -8 -6 -2 -3
-3 -12 0 -8 -8 -6 -2 -3
-4 -13 0 -9 -8 -6 -3 -4
-5 -14 0 -9 -8 -6 -3 -4
-6 -15 0 -10 -8 -7 -4 -5
-6 -15 0 -10 -8 -7 -4 -5
-6 -16 0 -10 -8 -7 -4 -5
-7 -16 0 -9 -9 -7 -4 -6
-7 -17 0 -9 -9 -7 -4 -6
-8 -18 1 -8 -10 -8 -5 -7
-8 -18 1 -8 -10 -8 -5 -7
-8 -18 1 -8 -10 -8 -5 -7
-8 -17 1 -9 -10 -8 -6 -7
-8 -17 1 -9 -10 -8 -6 -7
-9 -16 1 -10 -10 -9 -7 -7
-9 -16 1 -10 -10 -9 -7 -7
-9 -16 1 -10 -10 -9 -7 -7
-10 -16 1 -10 -10 -9 -7 -7
-10 -16 1 -10 -10 -9 -7 -7
-11 -17 1 -10 -11 -9 -7 -8
-11 -17 1 -10 -11 -9 -7 -8
-11 -17 1 -10 -11 -9 -7 -8
-11 -17 1 -10 -11 -8 -7 -8
-11 -17 1 -10 -11 -8 -7 -8
-12 -18 2 -11 -10 -7 -7 -8
-12 -18 2 -11 -10 -7 -7 -8
-12 -18 2 -11 -10 -7 -7 -8
-12 -18 2 -11 -10 -7 -7 -8
-12 -18 2 -11 -10 -7 -7 -8
-11 -19 1 -11 -11 -8 -7 -8
-11 -19 1 -11 -11 -8 -7 -8
-11 -19 1 -11 -11 -7 -6 -8
-11 -18 1 -11 -10 -7 -6 -8
-11 -18 1 -11 -10 -6 -5 -8
-10 -17 1 -10 -9 -5 -4 -7
-10 -19 2 -9 -9 -5 -5 -8
-9 -21 3 -7 -9 -6 -6 -9
-9 -23 4 -6 -9 -7 -8 -11
-8 -25 5 -4 -9 -8 -9 -12
-7 -28 7 -2 -8 -9 -11 -14
-4 -28 12 7 0 -5 -11 -14
1 -27 18 15 7 0 -10 -14
5 -26 23 24 14 4 -9 -15
9 -25 29 32 21 8 -8 -15
13 -24 35 42 28 13 -7 -16
24 -2 38 52 49 36 19 6
35 20 43 63 68 60 46 27
47 43 46 73 89 84 71 49
58 65 50 85 109 108 97 70
70 88 54 96 130 132 123 92
80 114 40 80 134 148 148 118
91 140 26 64 138 164 173 144
102 167 13 48 142 181 197 171
112 193 -2 31 146 197 222 197
123 220 -16 15 151 215 246 224
109 205 -26 -2 132 194 226 209
95 191 -37 -18 111 174 204 193
80 177 -49 -35 92 153 184 177
66 162 -60 -52 71 133 162 161
52 148 -71 -69 51 112 141 145
38 120 -71 -75 26 81 107 115
24 92 -71 -82 2 50 73 86
11 63 -71 -89 -24 18 38 55
-4 34 -71 -96 -49 -14 5 25
-17 7 -71 -102 -73 -45 -29 -5
-16 -2 -65 -94 -69 -45 -30 -9
-13 -10 -59 -83 -64 -43 -31 -13
-10 -17 -52 -74 -59 -40 -32 -16
-7 -25 -46 -64 -54 -38 -33 -20
-5 -32 -39 -55 -49 -37 -33 -23
-4 -32 -32 -47 -41 -32 -30 -22
-4 -31 -25 -38 -35 -27 -26 -19
-5 -29 -18 -30 -29 -22 -21 -17
-5 -28 -11 -22 -23 -17 -17 -14
-5 -27 -5 -15 -17 -13 -13 -12
-6 -24 -3 -13 -15 -11 -12 -11
-7 -22 -2 -11 -13 -10 -11 -10
-7 -20 1 -9 -12 -9 -10 -9
-8 -18 2 -7 -10 -8 -9 -8
-8 -16 3 -6 -9 -7 -8 -8
-9 -15 4 -5 -8 -6 -7 -7
-9 -16 5 -5 -8 -5 -7 -7
-9 -16 5 -4 -8 -5 -7 -7
-9 -17 6 -4 -8 -4 -7 -7
-9 -17 6 -4 -8 -4 -7 -7
-9 -18 7 -3 -7 -3 -6 -8
-9 -18 8 -2 -6 -3 -5 -8
-9 -18 8 0 -5 -3 -5 -7
-9 -18 9 1 -4 -3 -4 -7
-9 -18 9 2 -4 -3 -4 -7
-9 -17 10 3 -3 -3 -3 -6
-9 -17 10 3 -3 -3 -3 -6
-9 -16 10 3 -3 -3 -3 -6
-9 -16 10 3 -3 -3 -3 -6
-9 -16 10 3 -3 -3 -3 -6
-8 -15 9 2 -3 -3 -4 -7
-8 -14 9 2 -3 -3 -4 -7
-8 -13 8 2 -3 -3 -4 -7
-8 -12 8 2 -3 -3 -4 -7
-8 -12 8 2 -3 -3 -4 -7
-7 -11 7 3 -3 -2 -4 -8
-7 -12 8 3 -3 -2 -4 -8
-6 -13 8 2 -3 -2 -4 -8
-6 -14 9 2 -3 -2 -4 -8
-6 -14 9 2 -3 -2 -4 -8
-5 -15 10 1 -3 -2 -4 -7
-5 -14 10 2 -3 -2 -4 -6
-5 -14 10 2 -3 0 -4 -6
-5 -13 10 3 -3 0 -4 -5
-5 -13 10 3 -3 0 -4 -5
-5 -12 9 4 -2 1 -3 -4
-5 -12 9 4 0 1 -3 -4
-5 -12 9 4 0 1 -2 -4
-5 -12 9 4 1 1 -2 -4
-5 -12 9 4 1 1 -2 -4
-5 -13 10 4 2 2 0 -5
-5 -12 10 5 3 2 0 -5
-5 -11 10 6 3 2 0 -5
-5 -10 10 7 4 2 0 -5
-5 -10 10 7 4 2 0 -5
-5 -9 11 8 5 3 1 -6
-5 -9 11 8 5 3 1 -6
-4 -10 11 9 6 4 1 -5
-4 -10 11 9 6 4 1 -5
-4 -10 11 9 6 4 1 -5
-3 -11 11 10 7 5 1 -4
-2 -10 11 10 7 6 1 -4
-2 -10 11 11 8 6 1 -4
0 -9 11 11 8 7 1 -4
0 -9 11 11 8 7 1 -4
1 -8 12 12 9 8 0 -4
1 -8 12 12 10 8 1 -4
2 -8 12 12 10 8 1 -3
2 -8 12 12 11 8 2 -3
2 -8 12 12 11 8 2 -3
3 -9 13 12 12 8 3 -2
3 -8 13 13 13 9 4 0
3 -7 13 14 13 10 5 1
3 -6 13 15 14 11 6 2
3 -6 13 15 14 12 6 2
4 -5 13 16 15 13 7 3
5 -4 13 17 16 14 7 3
6 -4 13 18 17 14 7 3
7 -3 13 19 18 15 7 3
8 -3 13 19 19 15 7 3
9 -2 14 20 20 17 8 4
9 0 14 20 21 18 9 5
9 1 14 21 21 19 11 5
9 2 14 21 22 20 12 6
9 3 14 21 22 21 13 6
10 4 14 22 23 22 14 7
11 5 14 22 23 23 14 8
11 6 13 21 24 24 15 8
12 7 13 21 24 25 15 9
12 8 13 21 24 25 15 9
13 9 12 20 25 26 16 10
14 10 12 21 26 27 17 11
15 11 12 21 26 28 18 12
16 12 12 22 27 29 19 13
16 12 12 22 27 30 20 14
17 13 13 23 28 31 21 15
17 14 13 23 28 31 22 16
17 14 13 23 28 32 23 17
17 15 13 23 28 32 24 18
17 15 13 23 28 32 24 19
17 16 12 22 28 33 25 20
17 17 11 21 27 33 25 20
17 18 10 20 27 33 24 20
17 19 9 19 26 33 24 20
17 19 9 19 26 33 24 20
18 20 8 18 25 32 23 20
18 20 8 17 25 32 24 20
18 20 8 17 24 32 24 20
18 20 8 16 24 32 25 20
18 20 8 16 24 32 25 20
17 21 8 15 23 32 26 20
16 21 8 14 22 32 25 20
16 21 8 14 21 31 24 20
15 21 8 13 20 31 23 20
15 21 8 13 19 31 22 20
13 20 7 12 17 29 20 20
12 20 7 11 16 28 19 19
11 19 6 10 14 27 18 18
10 19 6 9 13 26 17 17
9 19 6 8 12 25 16 17
8 17 5 7 11 24 15 16
7 14 5 7 11 24 14 15
7 12 6 7 10 23 13 14
6 10 6 7 10 23 12 13
6 8 6 7 10 23 11 13
4 7 7 6 9 21 9 11
3 6 7 6 8 20 7 10
2 6 6 5 7 19 6 8
1 5 6 5 6 18 4 7
0 5 6 5 6 17 3 6
-2 3 5 4 5 16 2 5
-2 1 5 4 5 16 1 4
-3 -2 5 3 5 15 1 3
-3 -4 5 3 5 15 0 2
-3 -6 5 3 5 15 0 1
-4 -7 4 2 3 14 -2 0
-4 -7 3 1 2 13 -3 -2
-5 -8 3 1 1 12 -4 -3
-5 -8 2 0 0 11 -5 -4
-5 -8 2 0 -2 10 -6 -5
-6 -9 1 -2 -3 9 -7 -6
-6 -10 1 -2 -3 9 -8 -6
-7 -10 1 -2 -3 9 -9 -6
-7 -11 1 -2 -3 9 -10 -6
-7 -11 1 -2 -3 9 -10 -6
-8 -12 2 0 -3 9 -11 -7
-8 -13 2 0 -3 9 -11 -7
-8 -13 2 -2 -4 8 -11 -7
-8 -14 2 -2 -4 8 -11 -7
-8 -14 2 -2 -4 8 -11 -7
-9 -15 2 -3 -5 7 -11 -8
-9 -15 2 -3 -5 7 -11 -8
-9 -15 2 -3 -4 7 -11 -8
-9 -15 2 -3 -4 7 -11 -8
-9 -15 2 -3 -4 7 -11 -8
-10 -14 3 -2 -3 8 -12 -9
-10 -14 3 -2 -3 8 -12 -9
-10 -14 3 -3 -3 8 -12 -9
-10 -14 3 -3 -3 8 -12 -9
-10 -14 3 -3 -3 8 -12 -9
-10 -15 2 -4 -4 8 -13 -10
-10 -15 2 -4 -4 8 -13 -10
-10 -15 2 -4 -5 7 -13 -10
-10 -15 2 -4 -5 7 -13 -10
-10 -15 2 -4 -5 7 -13 -10
-11 -16 2 -4 -6 6 -13 -10
-11 -16 2 -4 -6 5 -13 -10
-11 -16 2 -4 -6 5 -13 -10
-11 -16 2 -4 -6 4 -13 -10
-11 -16 2 -4 -6 4 -13 -10
-11 -15 2 -5 -7 3 -14 -9
-11 -15 2 -5 -7 2 -14 -9
-11 -15 2 -5 -7 1 -14 -10
-11 -15 2 -5 -7 0 -14 -10
-11 -15 2 -5 -7 0 -14 -10
-10 -15 2 -4 -7 -2 -14 -11
-10 -15 2 -4 -8 -2 -14 -11
-11 -16 2 -5 -8 -3 -14 -11
-11 -16 2 -5 -9 -3 -14 -11
-11 -16 2 -5 -9 -3 -14 -11
-12 -17 1 -6 -10 -4 -14 -11
-12 -17 1 -6 -10 -4 -14 -11
-12 -17 1 -6 -10 -4 -15 -12
-12 -17 1 -6 -10 -4 -15 -12
-12 -17 1 -6 -10 -4 -15 -12
-11 -16 2 -6 -9 -4 -16 -13
-11 -16 2 -6 -9 -4 -16 -13
-11 -17 2 -6 -9 -4 -16 -13
-11 -17 2 -6 -9 -4 -16 -13
-11 -17 2 -6 -9 -4 -16 -13
-12 -18 2 -5 -9 -5 -16 -12
-12 -18 2 -5 -9 -5 -16 -12
-12 -18 2 -5 -8 -5 -16 -12
-12 -18 2 -5 -8 -5 -16 -12
-12 -18 2 -5 -8 -5 -16 -12
-12 -18 2 -4 -7 -5 -17 -12
-12 -18 2 -4 -7 -5 -17 -12
-12 -18 2 -4 -7 -5 -17 -13
-12 -18 2 -4 -7 -5 -17 -13
-12 -18 2 -4 -7 -5 -17 -13
-11 -19 1 -5 -7 -5 -17 -14
-11 -18 2 -5 -6 -5 -17 -14
-11 -18 2 -4 -6 -4 -17 -13
-11 -17 3 -4 -5 -4 -17 -13
-11 -17 3 -4 -5 -4 -17 -13
-10 -16 4 -3 -4 -3 -17 -12
-10 -16 4 -3 -4 -3 -17 -12
-10 -16 4 -3 -4 -3 -17 -12
-10 -16 4 -3 -4 -3 -17 -12
-10 -16 4 -3 -4 -3 -17 -12
-11 -16 3 -3 -4 -4 -16 -12
-11 -16 3 -3 -4 -3 -16 -12
-10 -16 3 -3 -4 -3 -15 -12
-10 -16 3 -3 -4 -2 -15 -12
-10 -16 3 -3 -4 -2 -15 -12
-9 -16 4 -2 -4 0 -14 -11
-9 -16 4 -2 -4 0 -14 -11
-9 -15 4 -2 -4 0 -14 -11
-9 -15 4 -2 -4 0 -14 -11
-9 -15 4 -2 -4 0 -14 -11
-10 -14 3 -2 -4 0 -14 -11
-10 -15 3 -2 -4 0 -15 -11
-10 -15 3 -2 -4 0 -15 -11
-10 -16 3 -2 -4 0 -16 -11
-10 -16 3 -2 -4 0 -16 -11
-10 -17 3 -2 -5 -2 -17 -12
-10 -17 3 -2 -5 -2 -17 -12
-10 -17 2 -3 -6 -2 -17 -12
-10 -17 2 -3 -6 -2 -17 -12
-10 -17 2 -3 -6 -2 -17 -12
-10 -16 1 -4 -7 -2 -16 -11
-9 -16 1 -4 -7 -2 -16 -11
-9 -15 1 -5 -8 -2 -16 -11
-8 -15 1 -5 -8 -2 -16 -11
-8 -15 1 -5 -8 -2 -16 -11
-7 -14 1 -6 -9 -3 -17 -12
-8 -14 1 -6 -9 -3 -17 -12
-8 -14 1 -6 -9 -3 -17 -12
-9 -14 1 -6 -9 -3 -17 -12
-9 -14 1 -6 -9 -3 -17 -12
-10 -14 0 -5 -8 -2 -16 -11
-10 -14 0 -5 -8 -2 -16 -11
-10 -15 0 -5 -8 -2 -16 -11
-10 -15 0 -5 -8 -2 -16 -11
-10 -15 0 -5 -8 -2 -16 -11
-10 -16 1 -5 -8 -2 -16 -11
-10 -16 1 -5 -8 -2 -16 -11
-10 -16 1 -6 -8 -2 -16 -11
-10 -16 1 -6 -8 -2 -16 -11
-10 -16 1 -6 -8 -2 -16 -11
-9 -15 1 -7 -9 -3 -16 -11
-9 -15 1 -7 -9 -3 -16 -11
-10 -15 1 -7 -9 -3 -16 -10
-10 -15 1 -7 -9 -3 -16 -10
-10 -15 1 -7 -9 -3 -16 -10
-11 -16 1 -6 -8 -2 -16 -9
-11 -15 1 -6 -8 -2 -16 -10
-10 -15 1 -7 -9 -2 -17 -10
-10 -14 1 -7 -9 -2 -17 -11
-10 -14 1 -7 -9 -2 -17 -11
-9 -13 0 -8 -10 -3 -18 -12
-9 -14 0 -8 -10 -3 -18 -12
-9 -14 0 -8 -10 -3 -18 -12
-9 -15 0 -8 -10 -3 -18 -12
-9 -15 0 -8 -10 -3 -18 -12
-9 -16 1 -7 -10 -3 -18 -11
-9 -16 1 -7 -10 -3 -18 -11
-9 -15 1 -8 -10 -3 -18 -11
-9 -15 1 -8 -10 -3 -18 -11
-9 -15 1 -8 -10 -3 -18 -11
-9 -14 0 -9 -11 -4 -18 -12
-9 -14 0 -9 -11 -4 -17 -12
-9 -14 0 -9 -11 -4 -17 -11
-9 -14 0 -9 -11 -4 -16 -11
-9 -14 0 -9 -11 -4 -16 -11
-10 -15 0 -8 -11 -3 -15 -10
-10 -15 0 -8 -11 -3 -15 -10
-10 -14 0 -8 -11 -3 -14 -11
-10 -14 0 -8 -11 -3 -14 -11
-10 -14 0 -8 -11 -3 -14 -11
-10 -13 0 -8 -11 -4 -13 -12
-10 -12 0 -8 -11 -4 -13 -12
-10 -12 0 -8 -11 -4 -12 -11
-10 -11 0 -8 -11 -4 -12 -11
-10 -11 0 -8 -11 -4 -12 -11
-10 -10 1 -7 -11 -3 -11 -10
-10 -11 2 -7 -11 -3 -11 -10
-9 -11 3 -6 -10 -2 -11 -10
-9 -12 4 -6 -10 -2 -11 -10
-9 -12 4 -6 -10 -2 -11 -10
-8 -12 5 -5 -9 0 -10 -9
-8 -11 6 -4 -8 0 -9 -9
-8 -9 7 -3 -8 1 -9 -8
-8 -7 8 -2 -7 1 -8 -8
-8 -6 8 -2 -7 1 -8 -8
-7 -4 9 0 -6 2 -7 -7
-7 -3 9 0 -6 2 -7 -7
-6 -2 9 0 -6 2 -7 -7
-6 1 9 0 -6 2 -7 -7
-6 2 9 0 -6 2 -7 -7
-4 3 9 0 -7 2 -6 -5
-3 3 9 1 -5 3 -4 -4
0 3 9 2 -4 4 -3 -3
2 3 9 3 -3 5 -2 0
3 3 9 3 -2 6 0 1
4 4 9 4 0 7 1 2
3 4 8 3 -2 6 1 1
3 5 8 2 -3 5 0 0
2 5 7 1 -4 4 0 -2
2 5 7 1 -5 3 0 -2
1 6 6 0 -6 2 -2 -3
1 4 5 -3 -7 1 -3 -4
1 3 4 -4 -7 0 -4 -5
1 2 4 -5 -8 -2 -4 -5
1 1 3 -6 -8 -3 -5 -6
1 0 2 -7 -9 -4 -6 -7
1 -3 1 -8 -10 -5 -7 -7
0 -4 0 -9 -11 -6 -8 -8
0 -5 0 -9 -12 -7 -8 -8
0 -6 -2 -10 -13 -8 -9 -8
-2 -7 -3 -11 -14 -9 -10 -9
-3 -8 -3 -11 -14 -9 -10 -9
-4 -9 -3 -11 -14 -9 -11 -10
-4 -10 -3 -11 -14 -9 -11 -10
-5 -11 -3 -11 -14 -9 -11 -10
-6 -12 -3 -10 -13 -10 -12 -11
-7 -12 -3 -10 -13 -10 -12 -11
-7 -12 -2 -10 -13 -10 -12 -11
-8 -12 -2 -10 -13 -10 -12 -11
-8 -12 -2 -10 -13 -10 -12 -11
-9 -11 0 -9 -13 -11 -12 -12
-9 -11 0 -9 -13 -11 -12 -12
-9 -11 0 -9 -13 -11 -12 -12
-9 -11 0 -9 -13 -11 -12 -12
-9 -11 0 -9 -13 -11 -12 -12
-10 -12 0 -9 -14 -12 -13 -12
-10 -12 0 -9 -14 -12 -13 -12
-10 -13 0 -10 -14 -13 -13 -12
-10 -13 0 -10 -14 -13 -13 -12
-10 -13 0 -10 -14 -13 -13 -12
-10 -14 -2 -11 -14 -14 -13 -12
-10 -14 -2 -11 -14 -14 -13 -12
-10 -14 -2 -11 -14 -14 -13 -12
-10 -14 -2 -11 -14 -14 -13 -12
-10 -14 -2 -11 -14 -14 -13 -12
-10 -13 -2 -10 -14 -14 -14 -13
-10 -13 -2 -10 -14 -14 -14 -13
-10 -13 -2 -10 -14 -15 -14 -13
-10 -13 -2 -10 -14 -15 -14 -13
-10 -13 -2 -10 -14 -15 -14 -13
-10 -12 0 -11 -14 -16 -15 -13
-10 -11 0 -11 -14 -16 -15 -13
-10 -10 0 -11 -14 -16 -15 -13
-10 -10 0 -11 -14 -16 -15 -13
-10 -9 0 -11 -14 -16 -15 -13
-9 -10 0 -9 -14 -17 -14 -13
-8 -14 2 -7 -14 -18 -16 -15
-7 -18 3 -5 -13 -19 -17 -17
-6 -22 5 -2 -13 -20 -19 -19
-5 -25 6 1 -13 -21 -20 -21
0 -24 11 9 -6 -18 -18 -21
4 -20 17 19 5 -11 -14 -19
9 -15 24 29 15 -4 -10 -17
14 -10 30 39 25 4 -5 -14
18 -6 37 50 35 11 0 -12
29 14 40 59 53 32 21 7
42 40 43 68 74 59 51 31
55 66 44 77 95 86 79 57
68 93 46 88 116 112 108 82
81 118 48 97 137 139 137 107
91 142 37 86 144 153 158 130
99 164 21 64 143 162 177 151
107 186 4 44 143 173 195 172
115 209 -13 22 142 182 214 193
123 231 -30 2 142 192 232 214
114 224 -40 -15 125 177 219 205
96 202 -48 -29 100 150 189 184
76 181 -55 -44 75 123 160 161
58 160 -63 -58 52 97 132 139
39 139 -70 -72 27 70 102 116
27 113 -73 -79 6 44 74 92
18 87 -71 -83 -14 19 46 65
8 59 -70 -87 -33 -7 18 39
-2 32 -69 -91 -53 -31 -10 13
-12 6 -68 -94 -72 -57 -37 -14
-14 -6 -63 -90 -73 -63 -46 -22
-11 -11 -56 -79 -66 -58 -43 -24
-8 -15 -49 -69 -59 -54 -40 -25
-5 -19 -41 -59 -51 -50 -38 -26
-2 -23 -34 -49 -44 -46 -35 -27
0 -23 -28 -40 -37 -41 -32 -27
0 -20 -22 -33 -32 -37 -29 -24
-2 -17 -17 -27 -27 -33 -26 -22
-2 -14 -12 -20 -22 -29 -23 -20
-2 -11 -6 -14 -17 -25 -20 -17
-3 -10 -4 -11 -15 -23 -18 -16
-4 -10 -2 -9 -13 -22 -17 -16
-4 -10 0 -8 -12 -21 -16 -16
-5 -10 1 -6 -11 -20 -16 -16
-5 -10 2 -5 -10 -19 -15 -16
-6 -11 3 -4 -9 -18 -14 -15
-6 -11 4 -3 -9 -18 -14 -15
-6 -10 4 -3 -9 -18 -15 -15
-6 -10 5 -2 -9 -18 -15 -15
-6 -10 5 -2 -9 -18 -15 -15
-6 -9 6 0 -9 -19 -16 -14
-6 -9 6 0 -8 -19 -15 -14
-6 -9 6 0 -8 -19 -15 -13
-6 -9 6 0 -7 -19 -14 -13
-6 -9 6 0 -7 -19 -14 -13
-5 -9 6 0 -6 -18 -13 -12
-5 -9 7 0 -6 -18 -13 -12
-5 -9 7 0 -6 -18 -13 -13
-5 -9 8 0 -6 -18 -13 -13
-5 -9 8 0 -6 -18 -13 -13
-6 -8 9 1 -6 -17 -14 -14
-6 -8 9 1 -6 -17 -14 -14
-5 -7 8 1 -6 -17 -13 -13
-4 -6 7 1 -6 -17 -13 -13
-4 -6 7 1 -6 -17 -13 -13
-3 -5 6 1 -5 -16 -12 -12
-3 -5 6 1 -5 -16 -12 -12
-3 -6 7 1 -5 -16 -12 -12
-3 -6 7 1 -5 -16 -12 -12
-3 -6 7 1 -5 -16 -12 -12
-3 -7 8 2 -4 -15 -13 -12
-3 -7 8 2 -4 -15 -13 -12
-2 -7 8 2 -3 -15 -12 -12
-2 -7 8 2 -2 -15 -12 -12
-2 -7 8 2 -2 -15 -12 -12
0 -7 7 3 0 -15 -11 -12
0 -6 7 3 0 -15 -11 -12
0 -5 7 4 0 -15 -11 -12
0 -5 7 4 0 -15 -11 -12
0 -4 7 4 0 -15 -11 -12
0 -3 7 5 0 -15 -11 -11
0 -3 7 5 0 -14 -11 -11
1 -2 7 5 1 -13 -10 -10
1 -2 7 5 2 -13 -10 -10
1 -2 7 5 2 -12 -10 -10
2 0 8 6 3 -11 -9 -9
2 0 8 6 3 -11 -9 -9
2 0 9 7 4 -11 -9 -9
2 0 9 8 4 -11 -9 -9
2 0 9 8 4 -11 -9 -9
3 -2 10 9 5 -11 -8 -9
3 -2 10 9 6 -11 -7 -9
3 -2 10 9 7 -10 -6 -8
3 -2 10 9 7 -9 -6 -7
3 -2 10 9 8 -9 -5 -7
4 0 10 9 9 -8 -4 -6
5 0 10 10 9 -8 -4 -6
6 1 10 11 9 -8 -4 -6
6 2 10 11 9 -8 -4 -6
7 2 10 12 9 -8 -4 -6
8 3 11 13 10 -7 -5 -6
8 4 11 13 11 -7 -5 -6
8 5 11 13 12 -6 -4 -5
8 5 11 13 12 -5 -4 -5
8 6 11 13 13 -5 -4 -5
8 7 11 14 14 -4 -3 -4
8 7 11 14 15 -4 -3 -4
9 8 11 14 16 -3 -2 -4
10 8 11 14 16 -2 -2 -4
10 8 11 14 17 -2 -2 -4
11 9 11 15 18 0 0 -3
12 10 11 15 18 1 1 -2
13 12 11 16 19 2 3 0
13 13 11 17 20 3 4 0
14 14 11 17 20 4 5 1
15 15 12 18 21 5 6 2
15 15 12 19 22 6 7 3
16 15 12 20 23 7 8 5
16 15 12 20 23 7 8 6
16 15 12 21 24 8 9 7
17 16 12 22 25 9 10 8
18 18 12 22 25 10 11 8
19 20 12 21 25 11 13 8
19 21 12 20 25 11 14 8
20 23 12 20 25 12 15 8
21 24 11 19 26 13 16 9
21 24 11 19 26 13 16 9
21 25 10 19 26 13 16 10
21 25 10 19 26 13 16 11
21 25 10 19 26 13 16 11
22 26 9 18 25 13 16 12
22 26 9 18 25 13 16 13
22 27 9 17 25 13 16 14
22 28 9 17 25 13 16 15
22 28 9 17 25 13 16 16
21 29 8 16 24 13 17 17
21 29 8 16 23 13 17 17
21 29 8 15 22 12 17 17
21 29 8 14 22 12 17 17
21 29 8 14 21 12 17 17
22 30 7 13 20 11 16 16
21 30 7 13 20 11 16 16
20 30 7 12 19 10 16 16
20 30 7 12 19 9 16 16
19 30 7 12 19 9 16 16
18 29 6 11 18 8 15 15
17 28 6 10 17 8 15 14
15 26 5 9 15 7 14 13
14 25 5 9 14 6 13 13
13 24 5 8 13 6 13 12
12 23 4 7 12 5 12 11
12 22 4 7 12 4 11 11
11 21 4 6 11 3 10 10
11 20 4 6 11 2 9 9
11 19 4 6 11 1 8 9
10 17 5 5 10 0 7 8
9 15 5 5 10 -2 6 6
7 13 5 4 9 -3 4 4
6 11 5 4 8 -4 3 3
5 8 5 4 8 -5 2 1
4 7 5 3 7 -6 1 0
4 6 5 3 7 -6 0 0
3 5 5 3 6 -7 -2 -2
3 4 5 3 6 -8 -2 -2
3 3 5 3 6 -8 -3 -2
2 2 5 2 5 -9 -4 -3
1 1 5 2 5 -9 -5 -4
0 0 5 2 4 -10 -6 -5
0 -2 5 2 3 -11 -7 -5
-2 -3 5 2 3 -11 -8 -6
-3 -4 5 1 2 -12 -9 -7
-3 -4 5 1 2 -12 -9 -7
-3 -4 4 1 2 -13 -9 -8
-3 -4 4 1 2 -13 -9 -8
-3 -4 4 1 2 -13 -9 -8
-4 -4 3 0 1 -14 -9 -9
-4 -4 3 0 1 -14 -9 -9
-4 -5 3 0 1 -14 -10 -10
-4 -5 3 0 1 -14 -10 -10
-4 -5 3 0 1 -14 -10 -10
-4 -6 3 -2 0 -15 -11 -11
-4 -6 3 -2 0 -15 -11 -11
-4 -6 3 -2 0 -15 -11 -11
-4 -6 3 -2 0 -15 -11 -11
-4 -6 3 -2 0 -15 -11 -11
-4 -7 3 -3 0 -14 -12 -11
-4 -7 3 -3 0 -14 -12 -11
-4 -8 3 -3 0 -14 -12 -11
-4 -8 3 -3 0 -14 -12 -11
-4 -8 3 -3 0 -14 -12 -11
-5 -9 3 -3 -2 -15 -12 -11
-5 -9 3 -3 -2 -15 -12 -11
-5 -9 3 -3 -2 -15 -12 -11
-5 -9 3 -3 -2 -15 -12 -11
-5 -9 3 -3 -2 -15 -12 -11
-5 -8 3 -3 -2 -15 -12 -12
-5 -8 3 -3 -2 -15 -12 -12
-5 -9 3 -3 -2 -15 -12 -12
-5 -10 3 -3 -2 -15 -12 -12
-5 -10 3 -3 -2 -15 -12 -12
-5 -11 3 -3 -2 -15 -11 -11
-5 -11 3 -3 -2 -15 -11 -11
-6 -10 3 -3 -2 -15 -11 -11
-6 -10 3 -3 -2 -15 -11 -11
-6 -10 3 -3 -2 -15 -11 -11
-7 -9 3 -3 0 -15 -12 -11
-7 -9 3 -3 0 -15 -12 -11
-7 -10 4 -3 -2 -15 -12 -11
-7 -10 4 -3 -3 -15 -12 -11
-7 -10 4 -3 -3 -15 -12 -11
-7 -11 5 -2 -4 -15 -12 -11
-7 -11 5 -2 -4 -15 -12 -11
-7 -11 4 -2 -4 -15 -13 -12
-7 -11 4 -2 -4 -15 -13 -13
-7 -11 4 -2 -4 -15 -13 -13
-6 -10 3 -3 -4 -16 -14 -14
-6 -10 3 -3 -4 -16 -14 -14
-6 -11 3 -3 -4 -16 -14 -14
-6 -11 3 -3 -4 -16 -14 -14
-6 -11 3 -3 -4 -16 -14 -14
-7 -12 4 -2 -4 -15 -14 -13
-7 -12 4 -2 -4 -15 -14 -13
-7 -12 4 -2 -3 -15 -13 -13
-7 -12 4 -2 -3 -15 -12 -13
-7 -12 4 -2 -3 -15 -12 -13
-8 -13 5 0 -2 -14 -11 -13
-8 -13 5 0 -2 -14 -12 -13
-7 -12 5 0 -2 -14 -13 -13
-7 -12 5 0 -2 -14 -13 -13
-7 -12 5 0 -2 -14 -14 -13
-6 -11 5 0 -2 -15 -15 -14
-6 -11 5 0 -2 -15 -15 -14
-6 -11 6 0 0 -15 -15 -14
-6 -11 6 0 0 -15 -15 -14
-6 -11 6 0 0 -15 -15 -14
-6 -11 7 0 1 -15 -14 -13
-6 -11 7 0 1 -15 -14 -13
-5 -11 6 0 0 -15 -13 -13
-5 -11 6 0 0 -15 -13 -13
-5 -11 6 0 0 -15 -13 -13
-4 -12 5 1 -2 -15 -12 -14
-4 -12 5 1 -2 -15 -12 -14
-4 -12 5 2 0 -15 -12 -13
-4 -12 5 2 0 -15 -12 -13
-4 -12 5 2 0 -15 -12 -13
-5 -12 6 3 1 -14 -11 -12
-5 -12 6 3 1 -14 -11 -12
-5 -12 6 3 1 -14 -11 -12
-5 -12 6 3 1 -14 -11 -12
-5 -12 6 3 1 -14 -11 -12
-5 -11 6 2 2 -13 -12 -12
-5 -11 6 2 2 -13 -12 -12
-5 -11 6 2 2 -12 -11 -11
-5 -11 6 2 2 -12 -11 -11
-5 -11 6 2 2 -12 -11 -11
-5 -11 6 1 1 -11 -10 -10
-5 -11 6 1 1 -11 -11 -10
-4 -10 5 1 0 -12 -12 -11
-4 -9 4 1 0 -13 -12 -11
-4 -9 4 1 0 -13 -13 -11
-3 -8 3 0 -2 -14 -14 -12
-3 -8 3 0 -2 -14 -13 -12
-3 -9 3 0 -2 -13 -12 -12
-3 -10 3 0 -2 -13 -12 -12
-3 -10 3 0 -2 -13 -11 -12
-3 -11 4 0 -2 -12 -10 -12
-3 -11 4 0 -2 -12 -10 -12
-3 -12 4 0 -2 -12 -10 -12
-4 -13 4 0 -2 -12 -10 -12
-4 -13 4 0 -2 -12 -10 -12
-5 -14 5 0 -3 -11 -10 -11
-5 -14 5 0 -3 -11 -10 -11
-5 -14 5 0 -3 -11 -10 -11
-5 -13 4 -2 -3 -12 -11 -11
-5 -13 4 -2 -3 -12 -11 -11
-4 -12 3 -3 -4 -13 -12 -11
-4 -12 3 -3 -4 -13 -12 -11
-4 -12 3 -3 -4 -13 -12 -11
-4 -11 3 -3 -4 -13 -12 -11
-4 -11 3 -3 -4 -13 -12 -11
-4 -10 3 -2 -4 -14 -12 -11
-4 -10 3 -2 -4 -14 -12 -11
-4 -10 3 -2 -4 -14 -12 -11
-4 -11 3 -3 -4 -14 -12 -11
-4 -11 3 -3 -4 -14 -12 -11
-5 -12 3 -4 -3 -15 -11 -10
-5 -12 3 -4 -3 -15 -11 -10
-5 -12 3 -4 -3 -15 -11 -11
-5 -12 3 -4 -4 -15 -11 -12
-5 -12 3 -4 -4 -15 -11 -12
-4 -12 4 -3 -5 -15 -12 -13
-4 -12 4 -3 -5 -15 -12 -13
-4 -12 4 -3 -5 -15 -12 -13
-4 -12 4 -4 -5 -14 -12 -13
-4 -12 4 -4 -5 -14 -12 -13
-5 -12 3 -5 -5 -13 -12 -12
-5 -12 3 -5 -5 -13 -12 -12
-5 -12 3 -5 -5 -13 -12 -12
-5 -12 3 -5 -5 -13 -12 -12
-5 -12 3 -5 -5 -13 -12 -12
-4 -11 3 -4 -5 -14 -11 -11
-4 -11 3 -4 -5 -14 -11 -11
-4 -11 3 -4 -5 -14 -11 -11
-4 -10 3 -4 -5 -14 -11 -11
-4 -10 3 -4 -5 -14 -11 -11
-5 -9 2 -4 -5 -14 -10 -12
-5 -9 2 -4 -5 -14 -10 -12
-5 -9 2 -4 -5 -14 -10 -12
-5 -9 2 -5 -6 -14 -11 -12
-5 -9 2 -5 -6 -14 -11 -12
-4 -10 1 -6 -7 -14 -12 -13
-4 -10 1 -6 -7 -14 -12 -13
-4 -11 1 -5 -7 -14 -12 -12
-4 -12 2 -4 -6 -13 -12 -11
-4 -12 2 -4 -6 -13 -12 -11
-5 -13 3 -3 -5 -12 -12 -10
-5 -13 3 -3 -5 -12 -12 -10
-5 -13 3 -3 -6 -12 -12 -10
-5 -13 3 -3 -7 -13 -12 -10
-5 -13 3 -3 -7 -13 -12 -10
-5 -13 2 -4 -8 -14 -12 -11
-5 -13 2 -4 -8 -14 -12 -11
-5 -13 2 -4 -7 -14 -11 -11
-5 -13 2 -4 -6 -13 -10 -11
-5 -13 2 -4 -6 -13 -10 -11
-5 -12 3 -5 -5 -12 -9 -11
-5 -12 3 -5 -5 -12 -9 -11
-4 -12 4 -4 -5 -12 -9 -11
-3 -11 5 -3 -5 -12 -9 -10
-3 -11 5 -3 -5 -12 -9 -10
-2 -10 6 -2 -5 -11 -9 -9
-2 -8 7 0 -5 -11 -8 -9
-2 -7 8 0 -5 -10 -7 -8
-2 -5 9 1 -4 -9 -6 -7
-2 -3 10 2 -4 -9 -5 -7
-2 -2 11 3 -3 -8 -4 -6
-2 -2 11 3 -3 -8 -4 -6
0 -2 11 3 -2 -8 -4 -5
1 0 10 3 0 -7 -4 -4
1 0 10 3 0 -7 -4 -4
2 1 9 4 1 -6 -5 -3
4 2 9 5 2 -4 -4 -2
5 3 9 5 3 -3 -3 0
6 4 9 6 5 -2 0 1
8 5 9 7 6 1 1 2
9 6 9 8 7 2 2 3
8 6 9 6 5 0 1 2
7 6 9 5 3 -2 0 1
5 5 8 4 1 -3 -3 -2
4 5 8 2 -2 -5 -4 -3
3 4 7 1 -4 -6 -5 -4
3 3 6 0 -4 -6 -5 -4
3 3 5 -2 -5 -6 -5 -4
3 2 3 -3 -6 -7 -6 -4
3 1 2 -4 -6 -7 -6 -4
4 0 1 -5 -7 -8 -7 -5
3 -3 1 -5 -7 -9 -7 -5
2 -5 1 -5 -8 -9 -7 -6
0 -7 1 -6 -9 -10 -7 -7
-2 -8 1 -6 -9 -11 -7 -7
-3 -10 2 -7 -10 -12 -8 -8
-4 -10 2 -7 -10 -12 -8 -8
-4 -10 2 -7 -10 -12 -8 -8
-5 -11 2 -7 -10 -12 -8 -9
-6 -11 2 -7 -10 -12 -8 -9
-7 -12 2 -6 -9 -13 -9 -10
-7 -12 2 -6 -9 -13 -9 -10
-7 -13 2 -6 -10 -13 -10 -10
-8 -14 3 -6 -11 -13 -11 -11
-8 -14 3 -6 -11 -13 -11 -11
-9 -15 4 -7 -12 -14 -12 -12
-9 -15 4 -7 -12 -14 -12 -12
-9 -15 4 -7 -12 -14 -12 -12
-9 -15 3 -8 -12 -14 -12 -12
-9 -15 3 -8 -12 -14 -12 -12
-10 -15 2 -9 -13 -15 -13 -12
-10 -15 2 -9 -13 -15 -13 -12
-10 -15 2 -9 -13 -15 -13 -12
-11 -15 2 -9 -13 -15 -13 -13
-11 -15 2 -9 -13 -15 -13 -13
-12 -15 2 -8 -13 -15 -13 -14
-12 -15 2 -8 -13 -15 -13 -14
-12 -15 2 -8 -13 -15 -13 -14
-12 -16 2 -8 -13 -15 -13 -13
-12 -16 2 -8 -13 -15 -13 -13
-12 -17 2 -8 -14 -15 -13 -12
-12 -17 2 -8 -14 -15 -13 -12
-12 -17 2 -8 -14 -15 -13 -12
-12 -16 2 -8 -14 -15 -13 -12
-12 -16 2 -8 -14 -15 -13 -12
-12 -15 2 -7 -15 -16 -13 -12
-12 -15 2 -7 -14 -16 -13 -12
-12 -15 2 -7 -14 -16 -13 -12
-11 -15 2 -6 -13 -15 -13 -11
-11 -15 2 -6 -12 -15 -13 -11
-10 -15 2 -5 -11 -14 -12 -11
-9 -19 4 -2 -11 -15 -14 -15
-7 -24 6 1 -11 -16 -15 -18
-6 -28 8 4 -11 -17 -17 -22
-4 -32 9 6 -11 -18 -19 -25
0 -33 13 12 -6 -16 -17 -26
5 -25 20 23 7 -6 -10 -20
10 -18 27 35 19 5 -2 -14
16 -10 34 47 31 15 7 -8
21 -3 40 59 43 25 15 -2
30 13 46 68 58 42 31 13
45 43 46 74 78 69 62 42
58 71 46 79 98 97 93 69
72 100 46 86 118 125 122 98
87 129 46 92 138 152 153 127
97 152 39 88 149 171 177 149
101 168 22 65 142 175 189 165
105 183 5 44 135 180 201 181
109 198 -13 21 128 184 213 196
113 214 -30 -2 121 188 225 212
109 215 -44 -21 107 180 221 212
88 190 -49 -34 82 148 186 183
67 165 -54 -48 57 116 151 154
47 141 -60 -61 31 85 116 127
25 116 -65 -74 7 54 81 98
10 92 -69 -83 -15 26 52 72
4 68 -68 -85 -28 8 30 51
-3 44 -66 -85 -41 -12 10 30
-9 20 -65 -86 -56 -31 -12 10
-15 -4 -63 -87 -69 -51 -33 -12
-19 -19 -60 -85 -76 -61 -46 -25
-16 -21 -52 -73 -68 -56 -41 -24
-14 -23 -45 -63 -60 -50 -37 -23
-11 -25 -37 -52 -52 -44 -33 -22
-9 -27 -29 -41 -44 -37 -29 -21
-7 -29 -23 -33 -37 -32 -26 -20
-7 -26 -18 -27 -32 -29 -23 -18
-8 -23 -14 -22 -28 -25 -21 -17
-9 -21 -10 -16 -24 -22 -18 -15
-9 -18 -5 -11 -19 -19 -16 -14
-10 -16 -2 -7 -16 -16 -14 -12
-10 -15 0 -6 -16 -16 -14 -12
-10 -15 1 -6 -16 -16 -14 -12
-10 -14 2 -5 -15 -15 -14 -12
-10 -13 3 -4 -15 -15 -14 -12
-10 -12 4 -3 -14 -14 -13 -11
-10 -12 4 -3 -14 -14 -13 -11
-10 -12 5 -2 -14 -14 -13 -11
-10 -13 6 0 -14 -14 -13 -11
-10 -13 6 0 -14 -14 -13 -11
-11 -14 7 1 -14 -14 -12 -11
-11 -13 7 1 -14 -14 -12 -11
-11 -13 7 1 -14 -14 -12 -11
-10 -12 7 1 -13 -14 -11 -11
-10 -11 7 1 -13 -14 -11 -11
-9 -10 6 0 -12 -13 -10 -11
-9 -11 6 0 -12 -13 -10 -11
-9 -11 6 0 -12 -13 -10 -11
-9 -12 6 1 -11 -13 -10 -11
-9 -13 6 1 -11 -13 -10 -11
-9 -14 7 2 -10 -14 -10 -11
-9 -14 7 2 -10 -13 -10 -11
-9 -14 7 2 -10 -12 -10 -11
-9 -14 7 2 -10 -11 -10 -11
-9 -14 7 2 -10 -10 -10 -11
-8 -13 6 2 -10 -9 -9 -11
-8 -13 6 2 -10 -10 -9 -11
-8 -13 6 2 -10 -10 -9 -11
-8 -12 6 2 -10 -11 -9 -11
-8 -12 6 2 -10 -12 -9 -11
-7 -11 6 2 -9 -13 -8 -11
-7 -11 6 2 -9 -13 -8 -11
-7 -11 6 2 -9 -13 -8 -11
-6 -10 6 2 -9 -12 -8 -11
-6 -10 6 2 -9 -12 -8 -11
-5 -9 5 2 -8 -11 -7 -10
-5 -9 5 2 -8 -11 -7 -10
-5 -10 5 3 -8 -11 -6 -9
-5 -11 5 4 -7 -11 -5 -8
-5 -11 5 4 -7 -11 -5 -8
-4 -12 5 5 -6 -12 -4 -7
-4 -11 5 5 -6 -11 -4 -7
-4 -10 5 5 -6 -10 -4 -7
-4 -9 5 5 -5 -9 -3 -7
-4 -8 5 5 -5 -8 -3 -7
-3 -7 5 4 -4 -7 -2 -7
-3 -7 5 4 -3 -7 -2 -7
-2 -7 5 5 -3 -7 -2 -7
-2 -7 5 5 -2 -7 -2 -7
0 -7 5 6 0 -7 -2 -7
1 -7 5 7 1 -8 -3 -7
1 -7 5 7 1 -7 -2 -6
1 -6 5 7 1 -7 -2 -6
1 -6 6 7 1 -6 0 -5
1 -5 6 7 1 -5 1 -4
2 -4 7 8 2 -4 2 -3
2 -5 7 8 2 -4 2 -3
2 -5 7 9 3 -4 2 -3
3 -6 7 9 3 -4 2 -3
3 -7 7 10 4 -4 2 -3
4 -8 6 11 5 -4 3 -3
5 -6 6 11 5 -4 3 -3
6 -4 6 11 5 -4 3 -3
7 -3 6 11 6 -3 3 -2
8 0 6 11 6 -3 3 -2
9 2 6 11 7 -2 4 0
9 2 6 11 7 -2 4 1
9 2 6 11 7 0 4 1
9 2 6 11 7 0 4 2
9 2 6 11 7 1 4 3
10 1 5 12 7 2 5 4
10 2 5 13 8 2 6 4
11 3 5 13 10 3 7 4
11 4 5 14 11 3 8 4
12 5 5 15 13 4 10 4
13 6 6 16 14 5 11 5
13 7 6 16 14 6 12 6
14 7 6 16 14 7 12 6
14 8 6 16 15 8 13 7
15 9 6 16 15 9 14 8
16 10 5 17 16 10 15 9
16 12 5 17 16 10 16 10
16 14 5 17 16 10 16 11
17 15 5 17 16 11 17 12
17 17 5 17 16 11 18 13
18 19 5 16 17 12 19 14
18 19 5 16 17 13 19 14
18 19 5 16 17 13 20 14
19 19 5 16 17 14 20 15
19 19 5 16 17 15 21 15
20 20 5 15 18 16 22 16
20 21 4 14 17 16 22 17
20 21 4 14 17 16 22 17
19 22 3 13 16 15 23 18
19 23 2 12 15 15 23 19
18 24 1 11 14 14 24 20
18 24 1 11 14 14 24 20
18 23 1 10 13 14 24 20
18 23 1 10 13 14 24 19
18 22 1 9 12 14 24 19
17 21 1 8 11 13 23 18
17 21 0 7 10 12 22 18
17 21 0 6 10 11 21 18
16 22 -2 5 9 10 20 17
16 22 -3 3 8 8 19 17
15 23 -4 2 7 7 18 16
15 21 -4 2 6 7 18 16
15 20 -4 2 5 7 17 16
15 18 -4 2 4 6 17 15
15 17 -4 2 3 6 16 15
14 15 -3 1 2 5 15 14
12 15 -3 1 2 5 15 13
10 14 -3 1 2 4 14 12
8 14 -3 1 1 4 14 11
6 13 -3 1 1 3 13 10
4 12 -3 0 0 2 12 9
4 10 -3 0 -2 1 11 8
4 8 -3 0 -2 -2 9 7
4 6 -3 -2 -3 -3 8 6
4 4 -3 -2 -4 -4 7 4
3 2 -3 -3 -5 -6 5 3
2 1 -3 -3 -5 -6 5 3
2 0 -3 -3 -5 -6 5 2
1 -2 -3 -4 -5 -6 4 2
0 -4 -3 -4 -5 -6 4 1
-2 -5 -3 -5 -6 -6 3 0
-2 -5 -3 -5 -7 -7 2 -2
-2 -6 -3 -5 -7 -8 1 -3
-3 -6 -3 -6 -8 -9 0 -4
-3 -7 -3 -6 -9 -10 -3 -6
-4 -8 -4 -7 -10 -11 -4 -7
-4 -9 -4 -7 -10 -11 -4 -7
-5 -10 -4 -8 -10 -11 -4 -7
-5 -11 -4 -8 -10 -12 -4 -7
-6 -13 -4 -9 -10 -12 -4 -7
-7 -14 -5 -10 -11 -13 -5 -7
-7 -14 -5 -10 -12 -13 -6 -8
-7 -14 -6 -10 -12 -14 -6 -9
-7 -15 -6 -11 -13 -14 -7 -10
-7 -15 -7 -11 -14 -15 -8 -11
-7 -16 -8 -12 -15 -16 -9 -12
-7 -19 -10 -13 -17 -17 -10 -13
-7 -22 -12 -15 -18 -19 -11 -14
-7 -25 -13 -16 -20 -20 -12 -15
-7 -28 -15 -17 -21 -21 -14 -16
-6 -31 -17 -19 -23 -23 -15 -17
-6 -32 -18 -19 -23 -23 -15 -17
-6 -33 -19 -19 -23 -23 -16 -17
-6 -34 -20 -20 -23 -24 -16 -17
-6 -36 -21 -20 -23 -24 -17 -17
-7 -37 -22 -21 -23 -25 -18 -18
-7 -37 -22 -22 -23 -25 -18 -18
-7 -37 -22 -23 -24 -25 -18 -18
-7 -37 -22 -24 -25 -25 -18 -19
-7 -37 -22 -25 -26 -25 -18 -19
-6 -37 -23 -26 -27 -26 -19 -20
-6 -37 -23 -26 -27 -26 -19 -20
-6 -37 -23 -26 -27 -26 -20 -20
-7 -37 -23 -26 -27 -27 -20 -21
-7 -37 -23 -26 -27 -27 -21 -21
-8 -38 -22 -25 -27 -28 -22 -22
-8 -35 -20 -23 -25 -26 -21 -20
-7 -32 -18 -21 -23 -24 -19 -18
-7 -29 -16 -19 -21 -21 -17 -17
-6 -26 -14 -17 -19 -19 -16 -15
-5 -23 -12 -15 -17 -17 -14 -13
-5 -22 -11 -14 -17 -17 -14 -13
-5 -20 -10 -13 -16 -16 -14 -13
-6 -19 -9 -12 -16 -15 -13 -13
-6 -18 -8 -11 -15 -14 -13 -13
-7 -16 -7 -10 -14 -13 -12 -12
-7 -16 -7 -10 -14 -13 -12 -12
-7 -16 -7 -10 -14 -13 -12 -12
-7 -15 -7 -10 -14 -13 -11 -12
-7 -15 -7 -10 -14 -13 -11 -12
-8 -14 -6 -10 -14 -13 -10 -12
-8 -14 -6 -10 -14 -13 -10 -12
-8 -14 -6 -10 -14 -13 -10 -12
-9 -14 -6 -10 -14 -13 -11 -12
-9 -14 -6 -10 -14 -13 -11 -12
-10 -15 -5 -9 -14 -13 -12 -11
-10 -15 -5 -9 -14 -13 -12 -11
-10 -14 -5 -9 -14 -13 -12 -11
-10 -13 -5 -9 -13 -13 -12 -11
-10 -12 -5 -9 -13 -13 -12 -11
-10 -11 -5 -10 -12 -13 -12 -10
-10 -11 -5 -10 -12 -12 -12 -10
-10 -11 -5 -9 -11 -11 -11 -10
-9 -11 -4 -9 -11 -10 -10 -9
-9 -11 -4 -8 -10 -9 -9 -9
-8 -11 -3 -7 -9 -8 -8 -8
-8 -11 -3 -7 -9 -8 -8 -8
-8 -11 -3 -7 -9 -8 -8 -8
-7 -11 -3 -7 -9 -8 -8 -8
-7 -11 -3 -7 -9 -8 -8 -8
-6 -12 -2 -8 -9 -9 -7 -7
-6 -12 -2 -6 -8 -9 -7 -7
-5 -12 0 -3 -7 -9 -7 -8
-4 -12 1 0 -6 -9 -8 -9
-3 -12 2 3 -4 -9 -8 -10
-2 -12 4 7 0 -7 -9 -11
3 -11 11 18 11 2 -4 -10
6 -10 19 30 21 10 2 -9
10 -9 26 43 32 17 6 -8
14 -7 34 54 44 25 11 -6
19 -2 40 66 57 37 20 0
32 22 46 79 79 65 49 24
45 46 50 93 103 92 77 48
58 69 55 105 126 119 105 72
70 93 59 118 149 147 134 97
82 116 61 126 168 171 159 120
91 137 46 105 164 178 176 141
99 158 30 84 161 185 191 161
107 180 16 63 159 192 206 183
115 201 1 42 156 199 222 203
119 215 -13 20 147 199 229 216
98 191 -22 0 115 165 193 187
77 169 -31 -22 82 132 157 158
56 145 -40 -44 51 98 121 130
35 121 -50 -65 18 64 86 101
18 99 -58 -82 -10 34 53 74
13 77 -58 -82 -20 20 36 58
8 57 -57 -82 -29 6 20 40
3 36 -56 -82 -38 -9 4 23
-3 16 -55 -82 -49 -23 -13 6
-7 -2 -53 -80 -56 -35 -27 -9
-6 -4 -47 -69 -50 -31 -25 -9
-4 -6 -40 -59 -44 -28 -22 -10
-2 -8 -33 -48 -36 -24 -20 -11
0 -10 -27 -37 -30 -20 -17 -12
2 -12 -21 -28 -24 -17 -15 -13
2 -11 -18 -24 -21 -15 -14 -12
1 -10 -15 -20 -18 -13 -12 -10
1 -9 -12 -16 -15 -11 -11 -9
0 -7 -9 -13 -12 -9 -10 -8
-2 -6 -6 -9 -9 -7 -8 -6
-2 -6 -5 -8 -8 -7 -8 -6
-2 -7 -4 -6 -7 -6 -7 -6
-2 -8 -3 -5 -6 -5 -6 -5
-2 -9 0 -4 -5 -4 -5 -5
-3 -10 1 -2 -4 -3 -4 -4
-3 -10 1 -2 -4 -3 -4 -4
-3 -10 1 -2 -5 -3 -5 -5
-4 -9 0 -3 -5 -4 -6 -5
-4 -9 0 -3 -6 -4 -7 -6
-5 -8 -2 -4 -7 -5 -8 -7
-5 -8 -2 -4 -7 -5 -8 -7
-5 -8 -2 -3 -7 -5 -8 -7
-5 -7 -2 -3 -7 -5 -8 -7
-5 -7 -2 -2 -7 -5 -8 -7
-4 -6 -2 0 -7 -5 -7 -7
-4 -6 -2 0 -7 -5 -7 -7
-4 -6 -2 0 -7 -5 -7 -7
-4 -6 0 0 -6 -4 -7 -7
-4 -6 0 0 -6 -4 -7 -7
-3 -5 1 1 -5 -3 -6 -6
-3 -5 1 1 -5 -3 -6 -6
-3 -5 1 1 -5 -3 -6 -6
-2 -6 1 1 -5 -3 -7 -7
-2 -6 1 1 -5 -3 -7 -7
0 -7 1 0 -6 -4 -8 -8
0 -6 1 0 -6 -4 -8 -8
0 -5 1 0 -6 -4 -8 -8
0 -4 1 0 -6 -4 -8 -8
0 -3 1 0 -6 -4 -8 -8
0 -2 0 -2 -6 -4 -7 -7
0 -2 0 -2 -6 -4 -7 -7
0 -2 0 -2 -6 -3 -7 -7
0 -3 0 0 -6 -3 -6 -7
0 -3 0 0 -6 -2 -6 -7
0 -4 1 1 -5 0 -5 -6
0 -4 1 1 -5 0 -5 -6
0 -4 1 1 -5 0 -5 -6
1 -5 1 1 -5 0 -5 -6
1 -5 1 1 -5 0 -5 -6
2 -6 1 2 -4 0 -5 -6
2 -6 1 2 -4 0 -5 -6
2 -5 1 2 -4 0 -5 -6
2 -4 0 2 -4 -2 -5 -6
2 -3 0 2 -4 -2 -5 -6
3 -2 -2 1 -5 -3 -5 -6
3 -2 -2 2 -4 -3 -5 -6
3 -2 0 3 -3 -2 -5 -6
3 -3 0 4 -2 -2 -5 -6
3 -3 1 5 0 0 -5 -6
4 -4 2 6 2 1 -4 -6
4 -4 2 6 2 1 -4 -6
4 -3 2 6 2 1 -3 -5
5 -3 1 6 2 2 -3 -5
5 -2 1 6 2 2 -2 -4
6 0 0 6 1 3 0 -3
6 0 0 6 1 3 0 -3
7 0 0 7 2 3 0 -3
7 0 0 7 2 3 0 -3
8 0 0 8 3 3 0 -3
9 1 1 9 4 4 1 -3
9 1 1 9 5 5 1 -3
9 1 1 9 6 6 2 -2
9 0 1 10 7 7 3 0
9 0 1 10 8 8 4 1
10 -2 1 11 9 9 5 2
10 1 1 11 9 9 5 2
10 3 1 11 9 9 5 3
10 5 1 11 9 10 6 4
10 8 1 11 9 10 6 5
10 10 2 11 9 11 7 6
11 10 2 11 9 11 8 6
12 10 2 11 10 12 9 7
14 10 1 12 10 13 10 8
15 10 1 12 11 14 11 9
17 11 0 13 12 15 12 10
17 11 0 13 12 15 12 10
18 12 0 13 12 15 12 10
18 12 0 13 12 16 13 10
19 13 0 13 12 16 13 10
20 14 0 13 13 17 14 10
20 15 0 13 13 17 14 11
20 16 0 12 13 17 14 12
20 18 0 12 13 17 15 13
20 19 0 11 13 17 15 14
19 21 -2 10 12 17 16 16
19 21 -2 10 12 17 16 16
19 21 -2 10 12 17 16 16
19 20 -3 9 12 17 16 16
19 20 -3 9 12 17 16 16
18 19 -4 8 12 17 17 17
18 19 -4 8 11 17 17 17
18 20 -5 7 10 17 17 17
18 21 -5 7 9 16 17 17
18 22 -6 6 8 16 17 17
18 23 -7 5 6 15 16 16
18 22 -7 5 6 15 16 16
17 21 -7 4 6 14 16 16
17 19 -7 4 6 14 16 16
16 18 -7 3 6 13 16 16
15 16 -6 2 5 12 16 17
15 16 -6 1 4 12 15 16
15 16 -7 0 3 11 14 15
14 15 -7 -2 2 10 13 14
14 15 -8 -3 1 9 12 13
13 14 -9 -5 -2 8 10 12
12 14 -9 -5 -3 7 9 12
11 13 -9 -5 -4 6 8 11
10 12 -9 -5 -5 5 7 10
9 11 -9 -5 -6 4 6 9
8 10 -9 -6 -8 2 4 8
8 8 -9 -6 -8 1 3 6
7 6 -9 -6 -8 0 2 4
6 4 -9 -7 -8 -2 0 2
5 2 -9 -7 -8 -3 -2 0
4 0 -8 -8 -9 -4 -4 -3
3 -2 -8 -8 -9 -4 -4 -3
2 -4 -8 -8 -9 -4 -4 -3
1 -5 -7 -8 -9 -4 -5 -4
0 -7 -7 -8 -9 -4 -5 -4
-3 -9 -6 -7 -10 -5 -6 -5
-3 -9 -6 -7 -10 -5 -6 -5
-3 -9 -6 -7 -10 -6 -6 -6
-3 -10 -6 -8 -11 -6 -7 -6
-3 -10 -6 -8 -11 -7 -7 -7
-4 -11 -6 -9 -12 -8 -8 -8
-4 -11 -6 -9 -12 -8 -8 -8
-4 -12 -6 -9 -12 -8 -8 -8
-4 -12 -6 -9 -13 -8 -9 -9
-4 -13 -6 -9 -13 -8 -9 -9
-4 -14 -7 -9 -14 -8 -10 -10
-4 -14 -7 -9 -14 -9 -10 -10
-4 -14 -7 -9 -14 -10 -11 -10
-5 -14 -7 -10 -15 -11 -12 -11
-5 -14 -7 -10 -15 -12 -13 -11
-6 -14 -7 -11 -16 -13 -14 -12
-6 -14 -7 -11 -16 -13 -14 -12
-6 -15 -7 -11 -16 -13 -14 -12
-6 -16 -7 -11 -16 -13 -14 -12
-6 -17 -7 -11 -16 -13 -14 -12
-5 -18 -7 -10 -16 -13 -15 -12
-5 -18 -7 -10 -16 -13 -15 -12
-5 -18 -7 -10 -16 -13 -15 -12
-5 -17 -7 -10 -16 -13 -15 -12
-5 -17 -7 -10 -16 -13 -15 -12
-6 -16 -7 -10 -15 -12 -14 -12
-6 -16 -7 -10 -15 -12 -14 -12
-6 -16 -7 -10 -15 -12 -14 -12
-6 -16 -7 -10 -15 -12 -14 -12
-6 -16 -7 -10 -15 -12 -14 -12
-7 -17 -6 -9 -15 -11 -14 -11
-7 -17 -6 -9 -15 -11 -14 -11
-7 -17 -6 -9 -15 -11 -14 -11
-7 -16 -6 -10 -15 -11 -14 -12
-7 -16 -6 -10 -15 -11 -14 -12
-6 -15 -7 -11 -16 -12 -14 -13
-6 -15 -7 -11 -16 -12 -14 -13
-6 -15 -7 -10 -16 -12 -14 -13
-6 -15 -7 -10 -16 -12 -14 -13
-6 -15 -7 -9 -16 -12 -14 -13
-5 -16 -6 -8 -15 -11 -14 -13
-5 -16 -6 -8 -15 -11 -14 -13
-5 -16 -6 -8 -15 -11 -14 -13
-5 -16 -6 -8 -15 -11 -14 -13
-5 -16 -6 -8 -15 -11 -14 -13
-5 -17 -5 -8 -14 -10 -13 -13
-5 -17 -5 -8 -14 -10 -13 -13
-5 -17 -5 -8 -14 -10 -13 -13
-5 -17 -5 -8 -14 -10 -13 -13
-5 -17 -5 -8 -14 -10 -13 -13
-6 -16 -4 -8 -13 -9 -12 -12
-6 -16 -4 -8 -13 -9 -12 -12
-6 -16 -4 -8 -13 -9 -12 -12
-6 -16 -4 -8 -12 -9 -11 -12
-6 -16 -4 -8 -12 -9 -11 -12
-6 -16 -4 -7 -11 -8 -10 -11
-6 -16 -4 -7 -11 -8 -10 -11
-6 -16 -4 -7 -11 -8 -11 -11
-5 -16 -4 -7 -12 -9 -11 -11
-5 -16 -4 -7 -12 -9 -12 -11
-4 -15 -3 -7 -13 -10 -13 -11
-4 -15 -3 -7 -13 -10 -13 -11
-4 -15 -3 -7 -13 -10 -13 -11
-4 -16 -3 -7 -13 -10 -13 -11
-4 -16 -3 -7 -13 -10 -13 -11
-3 -17 -4 -6 -13 -10 -12 -11
-3 -17 -4 -6 -13 -10 -12 -11
-3 -17 -4 -6 -13 -10 -12 -11
-3 -16 -4 -7 -13 -10 -12 -11
-3 -16 -4 -7 -13 -10 -12 -11
-4 -15 -4 -8 -13 -10 -13 -10
-4 -15 -4 -8 -13 -10 -13 -10
-4 -15 -4 -8 -13 -10 -13 -10
-5 -15 -4 -8 -13 -10 -13 -10
-5 -15 -4 -8 -13 -10 -13 -10
-6 -15 -3 -7 -13 -10 -12 -10
-6 -15 -3 -7 -13 -10 -12 -10
-5 -15 -3 -7 -13 -10 -12 -10
-4 -16 -3 -8 -13 -11 -12 -10
-3 -16 -3 -8 -13 -11 -12 -10
-2 -17 -3 -9 -14 -12 -13 -11
-2 -17 -3 -9 -14 -12 -13 -11
-3 -17 -3 -9 -14 -12 -13 -11
-3 -17 -3 -9 -14 -12 -13 -11
-4 -17 -3 -9 -14 -12 -13 -11
-5 -17 -3 -9 -14 -12 -13 -10
-5 -17 -3 -9 -14 -12 -13 -10
-5 -17 -3 -9 -14 -12 -13 -11
-5 -16 -3 -9 -14 -12 -13 -11
-5 -16 -3 -9 -14 -12 -13 -12
-6 -15 -4 -9 -15 -13 -14 -13
-6 -15 -4 -9 -15 -13 -14 -13
-6 -15 -4 -9 -15 -13 -14 -13
-6 -15 -4 -9 -15 -13 -13 -13
-6 -15 -4 -9 -15 -13 -13 -13
-5 -14 -3 -9 -14 -14 -12 -13
-5 -14 -3 -9 -14 -14 -12 -13
-5 -15 -3 -9 -14 -14 -12 -13
-5 -15 -2 -9 -14 -13 -12 -13
-5 -16 -2 -9 -14 -13 -12 -13
-6 -17 0 -9 -14 -12 -11 -12
-6 -17 0 -9 -14 -12 -11 -12
-6 -17 0 -9 -14 -13 -11 -12
-6 -17 0 -9 -14 -13 -12 -12
-6 -17 0 -9 -14 -14 -12 -12
-6 -17 0 -9 -14 -14 -12 -12
-6 -17 -2 -9 -15 -15 -13 -13
-6 -18 -2 -9 -15 -15 -13 -13
-6 -18 0 -9 -14 -14 -13 -13
-6 -19 0 -9 -14 -14 -13 -13
-6 -19 0 -9 -14 -14 -13 -13
-6 -19 1 -9 -13 -13 -13 -13
-6 -18 1 -9 -13 -13 -13 -13
-6 -17 1 -9 -14 -14 -13 -13
-6 -16 1 -9 -14 -14 -13 -13
-6 -15 1 -9 -14 -14 -13 -13
-6 -14 1 -10 -15 -15 -13 -14
-6 -14 1 -10 -15 -15 -13 -14
-6 -14 1 -10 -15 -15 -14 -14
-6 -14 1 -10 -15 -15 -14 -14
-6 -14 1 -10 -15 -15 -14 -14
-6 -15 1 -10 -15 -14 -15 -14
-6 -15 2 -10 -15 -14 -14 -14
-7 -15 2 -9 -14 -14 -14 -13
-7 -15 3 -9 -14 -14 -13 -13
-7 -15 3 -9 -14 -14 -13 -13
-8 -16 4 -8 -13 -13 -12 -12
-8 -16 4 -8 -13 -13 -12 -12
-7 -16 3 -8 -13 -14 -12 -12
-7 -16 3 -8 -13 -14 -12 -12
-7 -16 3 -8 -13 -14 -12 -12
-6 -16 2 -8 -14 -15 -13 -13
-6 -16 2 -8 -14 -15 -13 -13
-6 -16 2 -8 -14 -15 -12 -13
-6 -16 2 -8 -14 -15 -12 -13
-6 -16 2 -8 -14 -15 -12 -13
-5 -15 3 -9 -15 -15 -11 -13
-5 -14 3 -9 -15 -15 -12 -13
-6 -14 3 -9 -15 -15 -12 -13
-6 -13 3 -9 -15 -15 -13 -13
-6 -13 3 -9 -15 -15 -13 -13
-7 -12 2 -10 -15 -15 -14 -14
-7 -13 2 -10 -15 -15 -14 -14
-6 -14 2 -10 -15 -15 -13 -13
-6 -15 2 -10 -15 -15 -13 -13
-6 -16 2 -10 -15 -15 -13 -13
-5 -17 2 -9 -15 -14 -12 -12
-5 -16 2 -9 -15 -14 -12 -12
-6 -15 2 -9 -15 -15 -13 -12
-6 -14 2 -9 -15 -15 -13 -12
-6 -14 2 -9 -15 -15 -13 -12
-7 -13 1 -10 -15 -16 -14 -12
-7 -13 1 -10 -15 -16 -14 -12
-7 -14 1 -10 -14 -15 -14 -12
-7 -14 1 -10 -14 -15 -14 -12
-7 -14 1 -10 -14 -15 -14 -12
-8 -15 2 -9 -13 -14 -13 -13
-8 -15 2 -9 -13 -14 -13 -13
-8 -16 2 -9 -13 -13 -13 -13
-8 -16 2 -9 -13 -13 -13 -13
-8 -16 2 -9 -13 -13 -13 -13
-8 -17 2 -8 -12 -12 -12 -12
-8 -16 2 -8 -12 -12 -12 -12
-8 -15 2 -8 -12 -13 -12 -12
-8 -14 2 -8 -12 -13 -12 -12
-8 -14 2 -8 -12 -13 -12 -12
-7 -13 1 -9 -13 -14 -12 -12
-7 -13 1 -9 -13 -14 -12 -12
-7 -13 1 -9 -13 -14 -12 -12
-7 -13 1 -9 -13 -14 -12 -12
-7 -13 1 -9 -13 -14 -12 -12
-7 -13 1 -9 -13 -15 -13 -13
-7 -13 1 -9 -13 -15 -13 -13
-7 -13 1 -9 -12 -15 -12 -13
-7 -13 1 -9 -12 -15 -12 -13
-7 -13 1 -9 -12 -15 -12 -13
-7 -14 1 -8 -11 -14 -11 -12
-7 -14 1 -8 -11 -14 -11 -12
-7 -14 1 -8 -11 -13 -10 -12
-7 -14 1 -8 -11 -13 -10 -12
-7 -14 1 -8 -11 -13 -10 -12
-6 -14 1 -8 -11 -12 -9 -13
-6 -14 1 -8 -11 -12 -9 -13
-6 -14 1 -8 -11 -13 -10 -13
-6 -14 1 -8 -11 -13 -10 -13
-6 -14 1 -8 -11 -13 -10 -13
-6 -14 0 -9 -11 -14 -11 -13
-6 -14 0 -9 -11 -13 -11 -13
-6 -13 0 -8 -11 -13 -10 -13
-6 -13 0 -8 -11 -12 -10 -13
-6 -13 0 -8 -11 -12 -10 -13
-6 -12 1 -7 -10 -11 -9 -12
-6 -13 1 -7 -10 -11 -9 -12
-6 -13 1 -7 -10 -12 -9 -12
-6 -14 1 -7 -10 -12 -9 -12
-6 -14 1 -7 -10 -12 -9 -12
-7 -15 2 -7 -11 -13 -10 -12
-7 -15 2 -7 -11 -13 -10 -12
-7 -15 1 -7 -11 -12 -9 -11
-7 -15 1 -7 -11 -12 -9 -11
-7 -15 1 -7 -11 -12 -9 -11
-8 -15 0 -7 -11 -11 -8 -10
-8 -14 0 -7 -11 -11 -8 -10
-8 -14 0 -7 -11 -11 -8 -10
-8 -13 0 -7 -11 -11 -8 -10
-8 -13 0 -7 -11 -11 -8 -10
-8 -12 1 -8 -11 -12 -9 -11
-8 -12 1 -8 -11 -12 -9 -11
-7 -12 0 -7 -11 -13 -10 -12
-7 -12 0 -7 -11 -13 -10 -12
-7 -12 0 -7 -11 -13 -10 -12
-6 -13 -2 -6 -11 -14 -11 -13
-6 -13 -2 -6 -11 -14 -10 -13
-6 -14 -2 -6 -10 -14 -10 -13
-6 -14 -2 -6 -10 -14 -9 -13
-6 -14 -2 -6 -10 -14 -9 -13
-6 -15 -2 -7 -9 -13 -8 -12
-6 -14 -2 -7 -9 -13 -8 -12
-6 -13 -2 -7 -10 -13 -8 -12
-6 -12 -2 -7 -10 -13 -8 -12
-6 -12 -2 -7 -10 -13 -8 -12
-7 -11 -2 -7 -11 -12 -9 -13
-7 -11 -2 -6 -11 -12 -9 -13
-7 -12 -2 -6 -10 -12 -8 -13
-7 -12 -2 -5 -10 -12 -8 -13
-7 -12 -2 -5 -10 -12 -8 -13
-8 -13 0 -4 -9 -11 -7 -12
-8 -14 0 -4 -9 -11 -7 -12
-8 -14 0 -4 -9 -11 -7 -12
-8 -15 0 -4 -9 -11 -7 -12
-8 -15 0 -4 -9 -11 -7 -12
-7 -16 -2 -5 -8 -12 -7 -12
-7 -16 -2 -5 -8 -12 -7 -12
-7 -15 -2 -5 -8 -12 -7 -12
-7 -15 -2 -5 -8 -12 -7 -12
-7 -15 -2 -5 -8 -12 -7 -12
-7 -14 -2 -5 -8 -11 -6 -11
-7 -13 -2 -5 -8 -11 -6 -11
-7 -13 -2 -5 -8 -12 -7 -11
-7 -12 -2 -5 -8 -12 -7 -11
-7 -12 -2 -5 -8 -12 -7 -11
-7 -11 -3 -6 -9 -13 -8 -12
-7 -12 -3 -6 -9 -13 -8 -12
-7 -13 -3 -5 -9 -13 -7 -12
-7 -14 -3 -5 -9 -13 -7 -12
-7 -14 -3 -5 -9 -13 -7 -12
-6 -15 -3 -4 -8 -12 -6 -12
-6 -15 -3 -4 -8 -12 -6 -12
-6 -15 -3 -4 -8 -12 -6 -12
-6 -15 -3 -4 -8 -12 -6 -12
-6 -15 -3 -4 -8 -12 -6 -12
-6 -14 -3 -4 -7 -11 -5 -11
-6 -14 -3 -4 -7 -11 -5 -11
-7 -14 -3 -4 -7 -11 -5 -10
-7 -14 -3 -4 -7 -11 -5 -10
-7 -14 -3 -4 -7 -11 -5 -10
-8 -15 -2 -3 -6 -11 -4 -9
-8 -15 -2 -3 -7 -11 -4 -9
-8 -15 -2 -3 -7 -11 -5 -9
-8 -15 -2 -3 -8 -11 -5 -9
-8 -15 -2 -3 -8 -11 -5 -9
-7 -14 -3 -4 -9 -12 -6 -10
-7 -14 -3 -4 -9 -12 -6 -10
-7 -14 -3 -4 -9 -12 -6 -10
-7 -14 -3 -4 -9 -12 -6 -10
-7 -14 -3 -4 -9 -12 -6 -10
-6 -14 -3 -5 -8 -12 -6 -10
-6 -14 -3 -5 -8 -12 -6 -10
-6 -14 -3 -5 -8 -12 -6 -10
-6 -14 -3 -5 -8 -12 -6 -10
-6 -14 -3 -5 -8 -12 -6 -10
-5 -14 -3 -4 -8 -13 -7 -10
-5 -14 -3 -4 -7 -12 -6 -9
-6 -14 -3 -3 -6 -11 -5 -8
-6 -14 -3 -3 -5 -10 -4 -7
-6 -14 -3 -3 -5 -10 -4 -7
-7 -13 -2 -2 -4 -9 -3 -6
-7 -13 -2 -2 -4 -9 -3 -6
-7 -13 0 0 -4 -9 -2 -6
-7 -13 0 0 -4 -9 -2 -6
-7 -13 0 0 -4 -9 -2 -6
-6 -12 1 1 -4 -9 0 -6
-5 -11 1 1 -4 -9 0 -6
-5 -10 1 1 -4 -9 0 -6
-4 -9 1 1 -4 -9 0 -6
-4 -8 1 1 -4 -9 0 -6
-3 -7 2 2 -3 -8 -2 -6
-3 -7 3 3 -2 -7 0 -5
-4 -7 4 4 0 -6 1 -4
-4 -7 5 5 1 -5 2 -3
-4 -7 5 6 1 -5 3 -3
-4 -5 6 7 3 -4 4 -2
-2 -3 6 8 4 -3 5 -2
1 0 5 9 5 -2 6 0
3 1 5 10 6 0 7 0
5 3 5 10 7 0 7 0
6 4 4 11 8 1 8 1
6 4 3 10 8 1 8 1
5 4 3 10 8 1 8 2
5 4 2 9 8 1 8 2
5 4 2 9 8 1 8 2
4 2 1 8 7 0 8 3
4 1 0 7 6 -2 7 2
3 0 0 7 6 -3 7 1
3 -3 -2 6 5 -4 6 0
3 -4 -2 6 5 -4 6 -2
2 -6 -3 5 3 -5 5 -3
2 -7 -3 5 2 -6 5 -3
2 -8 -4 4 1 -7 4 -3
2 -9 -4 4 0 -8 4 -3
2 -10 -4 4 -2 -8 4 -3
1 -11 -5 3 -3 -9 3 -4
0 -11 -5 2 -3 -9 2 -5
-2 -12 -6 1 -4 -10 2 -5
-3 -12 -6 0 -4 -10 1 -6
-4 -12 -6 0 -4 -10 1 -6
-5 -13 -7 -2 -5 -11 0 -7
-5 -13 -7 0 -4 -11 0 -7
-5 -14 -7 1 -3 -10 0 -7
-5 -14 -7 2 -2 -10 0 -7
-5 -14 -7 2 -2 -10 0 -7
-6 -15 -6 3 0 -9 0 -8
-7 -15 -6 3 -2 -10 -2 -9
-7 -15 -6 2 -3 -11 -2 -9
-8 -15 -6 2 -4 -12 -3 -10
-8 -15 -6 2 -4 -13 -3 -10
-9 -15 -6 1 -5 -14 -4 -11
-9 -15 -6 1 -4 -13 -3 -11
-9 -16 -6 1 -4 -13 -3 -10
-9 -16 -6 1 -3 -12 -2 -10
-9 -16 -6 1 -3 -12 -2 -10
-8 -17 -6 2 -2 -11 0 -9
-8 -17 -6 2 -2 -11 0 -9
-8 -17 -6 2 -2 -11 0 -9
-8 -17 -6 2 -2 -11 0 -9
-8 -17 -6 2 -2 -11 0 -9
-7 -16 -6 3 0 -11 0 -8
-7 -16 -6 3 0 -11 0 -8
-7 -16 -6 3 0 -11 0 -7
-7 -16 -6 3 0 -11 0 -7
-7 -16 -6 3 0 -11 0 -7
-8 -17 -5 4 0 -11 1 -6
-7 -16 -5 4 0 -10 2 -6
-7 -15 -5 5 1 -9 2 -5
-6 -14 -5 5 1 -8 3 -5
-6 -13 -5 5 1 -7 3 -5
-5 -14 -3 9 2 -7 2 -7
-3 -17 1 13 4 -8 -2 -10
-2 -20 3 17 5 -9 -5 -14
0 -24 6 21 6 -11 -8 -18
1 -27 9 25 7 -12 -11 -22
6 -21 15 35 20 -2 -2 -16
13 -12 22 49 35 13 11 -7
19 -3 30 61 51 27 24 3
25 7 37 74 66 42 36 12
31 16 45 87 81 57 50 22
43 42 45 90 99 81 78 48
56 71 42 90 117 110 110 77
68 102 38 90 135 138 143 107
81 132 35 90 153 165 175 137
94 161 32 90 171 194 207 167
97 174 16 71 167 200 220 180
97 181 -4 47 156 200 226 189
97 189 -23 22 145 201 232 197
97 196 -43 -3 135 201 239 206
97 203 -61 -27 125 201 245 216
82 185 -69 -44 98 173 215 192
63 159 -74 -57 68 134 173 159
44 134 -79 -70 38 95 131 127
24 107 -85 -83 8 56 89 94
5 81 -89 -98 -22 18 47 61
-3 60 -88 -98 -34 -2 26 42
-5 40 -82 -93 -43 -15 12 26
-8 21 -77 -88 -51 -28 -4 11
-10 1 -72 -82 -58 -41 -18 -6
-13 -19 -68 -77 -66 -55 -32 -21
-13 -24 -60 -67 -62 -54 -33 -24
-11 -24 -53 -57 -53 -47 -29 -23
-9 -25 -45 -47 -44 -40 -25 -21
-8 -25 -36 -35 -34 -34 -21 -19
-6 -25 -28 -25 -25 -28 -16 -18
-5 -24 -23 -19 -21 -24 -14 -17
-5 -22 -19 -14 -17 -22 -12 -15
-5 -19 -15 -9 -14 -19 -10 -14
-5 -17 -11 -4 -10 -16 -8 -13
-5 -14 -6 2 -6 -13 -6 -12
-6 -13 -5 4 -5 -12 -5 -11
-6 -13 -4 4 -5 -11 -4 -11
-6 -13 -3 4 -4 -11 -4 -10
-6 -13 -2 4 -4 -10 -3 -10
-6 -13 -2 4 -4 -10 -3 -10
-5 -12 0 5 -3 -9 -2 -9
-5 -12 0 7 -3 -9 -2 -9
-6 -12 1 8 -2 -9 -3 -10
-6 -12 1 9 -2 -9 -3 -10
-6 -12 1 10 -2 -9 -3 -10
-7 -13 2 11 0 -9 -4 -11
-7 -13 2 11 0 -9 -3 -10
-6 -12 2 11 0 -9 -3 -10
-6 -12 2 11 0 -9 -2 -9
-6 -12 2 11 0 -9 -2 -9
-5 -11 2 10 -2 -9 0 -8
-5 -11 3 11 -2 -9 0 -9
-5 -11 3 11 -2 -9 0 -9
-5 -11 4 12 -2 -9 0 -10
-5 -11 4 12 -2 -9 0 -10
-6 -12 5 13 -2 -8 0 -11
-6 -11 5 13 -2 -7 0 -10
-6 -10 5 13 0 -7 0 -10
-6 -9 5 13 0 -6 0 -9
-6 -9 5 13 0 -6 0 -9
-6 -8 4 13 1 -5 1 -8
-6 -9 4 14 1 -5 1 -8
-6 -10 4 14 1 -6 1 -8
-6 -11 4 15 1 -6 1 -8
-6 -12 4 15 1 -6 1 -8
-5 -13 5 16 1 -7 2 -8
-5 -12 5 16 1 -7 2 -8
-4 -11 5 15 1 -6 2 -8
-4 -10 5 15 1 -6 2 -8
-4 -9 5 15 1 -6 2 -8
-3 -8 5 14 2 -5 1 -8
-3 -8 5 15 3 -5 1 -8
-3 -9 6 16 4 -5 1 -7
-3 -9 6 17 4 -5 1 -7
-3 -9 6 18 5 -5 1 -7
-2 -10 7 19 6 -5 1 -6
-2 -9 7 19 6 -5 1 -6
-2 -9 7 18 6 -4 1 -6
-2 -8 7 18 6 -4 1 -6
-2 -8 7 18 6 -4 1 -6
-3 -7 6 17 6 -3 2 -5
-3 -7 7 18 6 -3 2 -5
-3 -7 7 19 7 -3 2 -6
-3 -7 8 20 7 -3 2 -6
-3 -7 8 21 7 -3 2 -6
-2 -8 9 22 8 -2 3 -7
0 -7 9 22 8 -2 3 -6
1 -6 9 22 9 -2 3 -6
1 -5 9 22 9 -2 3 -5
2 -4 9 22 9 -2 3 -5
3 -3 9 21 10 0 4 -4
3 -3 9 22 11 1 4 -4
3 -4 9 23 11 2 5 -3
3 -4 9 23 12 2 5 -3
3 -4 9 24 12 3 5 -3
4 -5 9 25 13 4 6 -2
4 -5 9 25 14 4 7 -2
4 -5 9 25 14 5 7 -2
4 -5 9 25 15 5 8 -2
4 -5 9 25 15 5 8 -2
3 -4 9 26 16 6 9 0
4 -3 9 27 17 6 9 0
5 -2 10 28 17 7 9 0
6 -2 10 28 18 7 9 0
7 0 10 29 18 7 9 0
8 1 11 30 19 8 9 -2
8 2 11 30 19 9 10 0
8 2 11 30 20 9 11 1
8 3 11 30 20 10 12 1
8 3 11 30 20 10 13 2
8 4 11 30 21 11 14 3
8 4 11 30 21 11 14 3
8 5 12 31 21 11 14 3
8 5 12 31 21 11 14 3
8 5 12 31 21 11 14 3
8 6 13 32 22 11 14 3
9 7 13 32 22 11 14 4
9 8 12 31 22 11 14 5
10 8 12 31 22 11 14 5
10 9 12 31 22 11 14 6
11 10 11 30 21 11 15 7
10 10 11 30 21 12 15 8
10 10 11 30 21 12 16 8
9 10 11 30 21 13 16 9
9 10 11 30 21 13 16 9
8 11 11 30 21 14 17 10
8 12 11 29 21 14 17 10
8 12 10 28 20 14 17 10
8 13 10 27 20 14 17 10
8 13 10 26 20 14 17 10
8 14 9 25 19 13 18 9
8 14 9 24 18 12 17 9
8 14 9 24 17 11 17 10
8 14 9 23 17 11 16 10
8 14 9 23 16 10 16 10
8 13 8 22 15 9 15 11
8 13 7 21 14 9 15 11
7 13 7 20 13 9 15 11
7 13 6 20 12 9 15 11
7 13 6 19 11 9 15 11
6 13 5 18 10 8 14 10
5 13 5 18 9 7 14 10
5 12 5 17 9 6 13 10
4 12 5 17 8 6 13 10
4 12 5 17 8 5 13 10
3 11 5 16 7 4 12 11
3 11 4 15 6 4 11 11
2 11 4 14 5 3 11 10
2 11 3 13 5 3 10 10
2 11 3 12 4 3 10 10
1 11 2 11 3 2 9 9
1 10 2 10 3 2 8 7
0 9 1 10 3 2 8 6
0 8 1 9 3 2 7 5
0 7 1 9 3 2 7 4
-2 6 0 8 2 1 6 3
-2 5 0 8 2 0 6 3
-3 4 0 8 1 0 5 3
-3 4 0 8 1 -2 5 3
-3 3 0 8 1 -2 5 3
-4 2 0 7 0 -3 4 2
-4 0 0 7 0 -4 3 2
-4 -2 0 7 0 -4 3 1
-4 -3 0 7 0 -5 2 1
-4 -4 0 7 0 -5 2 1
-5 -5 -2 7 -2 -6 1 0
-6 -7 -2 7 -2 -6 1 -2
-6 -8 -2 7 -2 -6 1 -2
-7 -9 -2 7 -2 -6 1 -3
-7 -10 -2 7 -2 -6 1 -3
-8 -11 0 6 -2 -5 1 -4
-8 -11 0 6 -2 -5 1 -4
-8 -11 0 6 -2 -6 0 -5
-8 -11 0 6 -2 -6 0 -6
-8 -11 0 6 -2 -6 0 -6
-8 -11 0 6 -3 -7 -2 -7
-8 -11 0 6 -3 -7 -2 -7
-8 -11 -2 6 -3 -7 -3 -7
-8 -11 -2 6 -3 -7 -3 -7
-8 -11 -2 6 -3 -7 -3 -7
-7 -11 -3 5 -3 -7 -4 -6
-7 -11 -3 5 -3 -7 -4 -6
-8 -11 -2 5 -4 -8 -4 -7
-8 -11 -2 5 -4 -8 -4 -8
-8 -11 -2 5 -4 -8 -4 -8
-9 -11 0 4 -5 -9 -5 -9
-9 -11 0 4 -5 -9 -5 -9
-9 -11 0 4 -5 -9 -5 -9
-9 -11 0 4 -5 -9 -5 -9
-9 -11 0 4 -5 -9 -5 -9
-10 -12 0 4 -5 -10 -5 -9
-10 -12 0 4 -5 -10 -5 -9
-9 -12 0 4 -5 -10 -6 -9
-9 -12 0 4 -5 -10 -6 -9
-9 -12 0 4 -5 -10 -6 -9
-8 -13 0 4 -4 -10 -7 -10
-8 -13 0 4 -4 -10 -7 -10
-9 -13 0 4 -5 -10 -7 -10
-9 -13 0 4 -5 -10 -7 -10
-9 -13 0 4 -5 -10 -7 -10
-10 -13 -2 3 -6 -9 -6 -10
-10 -13 -2 3 -6 -9 -6 -10
-10 -13 -2 3 -6 -9 -6 -11
-10 -13 -2 3 -6 -9 -6 -11
-10 -13 -2 3 -6 -9 -6 -11
-11 -13 0 4 -7 -10 -7 -12
-11 -13 0 4 -7 -10 -7 -12
-11 -12 0 4 -7 -10 -7 -12
-11 -12 0 4 -7 -10 -7 -12
-11 -12 0 4 -7 -10 -7 -12
-10 -11 -2 3 -7 -11 -8 -13
-10 -12 -2 3 -7 -11 -8 -13
-10 -13 0 4 -7 -11 -8 -13
-10 -13 0 5 -7 -11 -8 -13
-10 -14 0 5 -7 -11 -8 -13
-10 -15 1 6 -7 -10 -9 -12
-10 -14 1 6 -7 -10 -9 -12
-10 -13 1 5 -7 -10 -9 -12
-10 -12 1 5 -7 -10 -9 -12
-10 -11 1 5 -7 -10 -9 -12
-9 -10 0 4 -6 -10 -8 -13
-9 -10 0 4 -6 -10 -8 -13
-9 -11 0 5 -5 -9 -8 -12
-9 -12 0 6 -5 -9 -8 -12
-9 -12 0 6 -5 -9 -8 -12
-10 -13 1 7 -4 -8 -8 -11
-10 -13 1 7 -4 -8 -8 -11
-10 -12 1 6 -4 -8 -8 -10
-10 -12 1 6 -4 -8 -8 -10
-10 -12 1 6 -4 -8 -8 -10
-9 -11 2 5 -5 -9 -9 -9
-9 -11 2 5 -5 -9 -9 -9
-9 -11 2 5 -5 -9 -8 -9
-9 -11 2 5 -5 -9 -7 -9
-9 -11 2 5 -5 -9 -7 -9
-8 -11 1 5 -6 -9 -6 -9
-8 -11 1 5 -6 -9 -6 -9
-8 -11 1 5 -6 -9 -6 -8
-8 -11 1 5 -6 -9 -6 -7
-8 -11 1 5 -6 -9 -6 -7
-7 -10 1 4 -5 -8 -5 -6
-7 -10 1 4 -5 -8 -5 -6
-7 -11 1 4 -5 -8 -5 -7
-7 -11 1 4 -5 -8 -5 -7
-7 -11 1 4 -5 -8 -5 -7
-7 -12 1 3 -6 -9 -6 -8
-7 -12 1 3 -6 -9 -6 -8
-7 -12 0 3 -6 -9 -6 -8
-7 -12 0 3 -6 -9 -6 -8
-7 -12 0 3 -6 -9 -6 -8
-7 -11 -2 2 -6 -8 -7 -8
-7 -11 -2 2 -6 -8 -7 -8
-7 -12 0 2 -6 -8 -7 -8
-7 -13 0 2 -6 -8 -7 -8
-7 -13 0 2 -6 -8 -7 -8
-8 -14 1 2 -7 -8 -6 -7
-8 -14 1 2 -7 -8 -6 -7
-8 -13 1 2 -7 -8 -6 -7
-8 -13 1 2 -7 -8 -6 -7
-8 -13 1 2 -7 -8 -6 -7
-9 -12 0 1 -7 -9 -7 -8
-9 -12 0 1 -7 -9 -7 -8
-8 -12 -2 0 -8 -10 -7 -8
-8 -12 -2 0 -8 -10 -7 -8
-8 -12 -2 0 -8 -10 -7 -8
-7 -12 -3 -2 -9 -11 -8 -9
-7 -12 -3 -2 -9 -11 -8 -9
-7 -13 -3 -2 -9 -11 -8 -9
-7 -13 -3 -2 -9 -11 -8 -9
-7 -13 -3 -2 -9 -11 -8 -9
-7 -14 -3 0 -8 -10 -9 -9
-7 -14 -3 0 -8 -10 -9 -9
-8 -14 -3 -2 -8 -10 -9 -9
-9 -14 -3 -2 -8 -10 -9 -9
-9 -14 -3 -2 -8 -10 -9 -9
-10 -13 -4 -3 -9 -11 -9 -10
-10 -13 -4 -3 -9 -11 -9 -10
-9 -12 -4 -3 -10 -12 -10 -10
-9 -11 -4 -3 -10 -12 -10 -10
-9 -11 -4 -3 -10 -12 -10 -10
-8 -10 -3 -4 -11 -13 -11 -10
-8 -10 -3 -4 -11 -13 -11 -10
-8 -11 -2 -4 -11 -13 -11 -11
-8 -11 -2 -4 -11 -13 -11 -11
-8 -11 -2 -4 -11 -13 -11 -11
-9 -12 0 -3 -11 -13 -12 -12
-9 -12 0 -3 -11 -13 -12 -12
-9 -12 -2 -4 -11 -12 -12 -11
-9 -12 -2 -4 -11 -12 -12 -11
-9 -12 -2 -4 -11 -12 -12 -11
-8 -13 -3 -5 -11 -11 -11 -10
-8 -13 -3 -5 -11 -11 -11 -10
-8 -12 -3 -5 -11 -12 -12 -11
-8 -12 -3 -5 -11 -13 -12 -11
-8 -12 -3 -5 -11 -13 -12 -11
-9 -11 -3 -5 -11 -14 -13 -12
-9 -11 -3 -5 -11 -13 -12 -12
-9 -11 -3 -5 -11 -12 -11 -11
-9 -11 -3 -5 -11 -12 -11 -11
-9 -11 -3 -5 -11 -11 -10 -11
-9 -12 -2 -5 -10 -10 -9 -10
-9 -11 -2 -5 -10 -10 -9 -10
-9 -9 -2 -5 -11 -11 -10 -11
-9 -8 -2 -5 -11 -12 -11 -11
-9 -7 -2 -5 -11 -12 -11 -11
-10 -6 -3 -5 -12 -13 -12 -12
-10 -6 -2 -5 -12 -12 -12 -11
-9 -7 0 -4 -11 -11 -11 -10
-9 -8 0 -3 -10 -11 -11 -10
-9 -8 1 -3 -10 -10 -11 -9
-8 -9 2 -2 -9 -9 -10 -8
-8 -7 3 -2 -9 -9 -10 -8
-8 -5 4 0 -8 -9 -9 -8
-8 -4 5 1 -7 -9 -9 -8
-8 -2 6 1 -7 -9 -9 -8
-8 0 7 2 -6 -8 -8 -7
-7 0 6 2 -6 -8 -8 -7
-6 0 5 2 -6 -7 -7 -6
-5 0 5 2 -6 -6 -6 -6
-4 0 4 2 -6 -6 -6 -6
-3 1 3 2 -6 -5 -5 -5
-2 1 3 3 -4 -4 -4 -4
1 2 3 4 -3 -2 -3 -2
2 3 3 5 -2 0 -3 0
3 3 3 6 1 1 -2 1
4 4 4 6 2 2 0 2
3 4 4 4 0 0 -2 1
2 4 3 2 -3 -2 -3 0
1 4 3 0 -4 -3 -4 -2
0 4 3 -3 -6 -5 -5 -3
-2 4 2 -4 -7 -6 -6 -4
-2 2 1 -4 -7 -6 -6 -4
-2 0 0 -5 -8 -7 -7 -4
-2 -2 -2 -6 -9 -8 -8 -4
-2 -4 -3 -6 -9 -8 -8 -4
-3 -5 -4 -7 -10 -9 -9 -5
-3 -5 -4 -7 -11 -9 -10 -6
-4 -6 -5 -8 -12 -10 -11 -7
-5 -7 -6 -9 -12 -11 -11 -7
-5 -7 -6 -9 -13 -11 -12 -8
-6 -8 -7 -10 -14 -12 -13 -9
-7 -8 -7 -10 -14 -12 -13 -9
-8 -8 -7 -10 -14 -13 -14 -10
-9 -8 -7 -10 -14 -13 -14 -11
-10 -8 -7 -10 -14 -13 -14 -11
-11 -7 -6 -10 -15 -14 -15 -12
-11 -7 -6 -10 -15 -14 -15 -12
-11 -8 -6 -10 -15 -14 -15 -12
-11 -9 -6 -10 -15 -14 -15 -12
-11 -9 -6 -10 -15 -14 -15 -12
-11 -10 -5 -9 -14 -13 -14 -11
-11 -11 -5 -9 -14 -13 -14 -11
-12 -12 -5 -9 -14 -13 -14 -11
-12 -12 -5 -9 -14 -13 -14 -11
-12 -13 -5 -9 -14 -13 -14 -11
-13 -14 -4 -10 -15 -13 -14 -11
-13 -14 -4 -10 -15 -13 -14 -11
-13 -14 -4 -10 -15 -13 -14 -11
-13 -14 -4 -10 -15 -13 -14 -11
-13 -14 -4 -10 -15 -13 -14 -11
-12 -14 -4 -9 -15 -14 -14 -12
-12 -14 -4 -9 -15 -14 -14 -12
-13 -13 -4 -10 -15 -14 -15 -12
-13 -12 -4 -10 -15 -14 -15 -12
-13 -12 -4 -10 -15 -14 -15 -12
-14 -11 -4 -11 -16 -15 -16 -13
-14 -11 -4 -11 -16 -15 -16 -13
-13 -11 -4 -10 -15 -15 -15 -12
-13 -11 -4 -10 -15 -15 -14 -12
-13 -11 -4 -10 -15 -15 -14 -12
-12 -12 -3 -9 -14 -14 -13 -11
-12 -12 -3 -9 -14 -14 -13 -11
-12 -12 -3 -8 -13 -14 -13 -11
-12 -12 -3 -7 -13 -14 -13 -11
-12 -12 -3 -7 -13 -14 -13 -11
-11 -13 0 -5 -12 -13 -14 -12
-9 -16 3 0 -11 -14 -16 -16
-7 -18 5 4 -10 -14 -18 -20
-5 -21 8 8 -8 -15 -21 -24
-3 -24 11 12 -7 -16 -23 -28
2 -22 16 20 2 -11 -20 -26
8 -12 23 32 16 4 -8 -16
14 -2 29 45 31 18 5 -7
20 9 36 57 47 32 17 3
26 19 44 69 61 47 29 13
36 37 47 77 78 67 52 32
50 67 45 79 97 96 85 61
62 96 43 81 116 123 117 91
75 126 39 84 135 152 149 120
89 154 37 86 154 180 182 150
96 173 27 76 160 195 201 170
96 181 10 54 150 195 207 178
96 189 -9 30 140 195 213 186
96 197 -26 7 130 195 218 194
96 204 -45 -17 120 195 224 202
88 197 -56 -36 101 177 207 192
67 172 -62 -51 71 140 168 161
47 145 -68 -66 42 103 127 130
27 119 -74 -81 12 65 87 98
7 94 -79 -97 -18 28 46 66
-6 70 -82 -104 -36 3 17 42
-8 50 -78 -102 -46 -11 2 26
-11 29 -74 -100 -54 -25 -14 10
-14 10 -70 -98 -62 -38 -29 -6
-16 -11 -66 -96 -70 -52 -45 -21
-18 -22 -61 -89 -72 -58 -52 -30
-16 -22 -54 -76 -64 -52 -47 -28
-14 -22 -46 -65 -56 -47 -43 -27
-12 -22 -38 -53 -48 -40 -38 -26
-10 -22 -30 -41 -40 -34 -34 -24
-9 -21 -24 -32 -33 -30 -30 -23
-9 -19 -19 -26 -29 -26 -27 -21
-9 -17 -15 -21 -24 -23 -24 -19
-10 -15 -10 -15 -20 -19 -21 -17
-10 -13 -5 -9 -15 -15 -18 -15
-11 -11 -2 -6 -12 -13 -16 -14
-11 -11 -2 -6 -12 -12 -15 -14
-11 -11 0 -5 -11 -12 -14 -13
-11 -11 1 -4 -10 -11 -13 -12
-11 -11 1 -4 -10 -10 -12 -12
-11 -10 2 -3 -9 -9 -11 -11
-11 -10 3 -2 -9 -9 -11 -11
-11 -10 3 -2 -9 -9 -12 -11
-11 -10 4 0 -9 -10 -13 -12
-11 -10 5 1 -9 -10 -13 -12
-11 -9 6 2 -9 -11 -14 -13
-11 -9 6 2 -9 -11 -14 -13
-11 -9 6 2 -9 -11 -14 -12
-11 -9 6 2 -9 -10 -13 -11
-11 -9 6 2 -9 -10 -13 -11
-11 -8 6 1 -8 -9 -12 -10
-11 -8 6 1 -8 -9 -12 -10
-10 -8 6 2 -8 -9 -12 -10
-9 -7 6 3 -7 -9 -12 -11
-9 -7 6 3 -7 -9 -12 -11
-8 -6 6 4 -6 -8 -11 -12
-8 -6 6 4 -6 -8 -11 -12
-8 -6 6 4 -6 -8 -11 -11
-8 -6 6 3 -6 -7 -11 -10
-8 -6 6 3 -6 -7 -11 -10
-8 -7 6 2 -6 -6 -10 -9
-8 -7 6 2 -6 -6 -10 -9
-8 -7 6 3 -6 -6 -10 -9
-8 -7 7 4 -6 -6 -11 -9
-8 -7 7 4 -6 -6 -11 -9
-7 -7 8 5 -5 -7 -12 -10
-7 -7 8 5 -5 -7 -12 -10
-7 -7 8 5 -5 -7 -12 -10
-6 -6 7 4 -5 -6 -11 -10
-6 -6 7 4 -5 -6 -11 -10
-5 -5 6 3 -4 -5 -10 -9
-5 -5 6 4 -4 -5 -10 -9
-5 -5 6 5 -4 -5 -10 -9
-5 -5 7 6 -4 -5 -10 -9
-5 -5 7 7 -4 -5 -10 -9
-5 -5 8 8 -3 -6 -10 -9
-5 -5 8 8 -3 -6 -10 -9
-5 -5 8 8 -2 -5 -10 -9
-5 -5 8 8 0 -4 -9 -8
-5 -5 8 8 0 -4 -9 -8
-4 -5 8 7 1 -3 -8 -7
-4 -5 8 7 1 -3 -8 -7
-4 -5 8 7 1 -3 -8 -7
-4 -5 8 7 2 -3 -8 -7
-4 -5 8 7 2 -3 -8 -7
-5 -5 8 8 3 -3 -8 -7
-5 -5 8 8 3 -3 -7 -6
-4 -4 8 8 3 -2 -7 -5
-3 -3 8 9 3 0 -6 -4
-3 -3 8 9 3 0 -5 -3
-2 -2 7 10 4 1 -4 -2
-2 -2 7 11 5 1 -4 -2
-2 -2 7 11 5 1 -4 -2
-2 -2 8 12 6 2 -4 -2
-2 -2 8 13 7 2 -4 -2
0 0 9 14 8 3 -3 -2
0 0 9 14 8 3 -3 -2
1 1 9 14 8 3 -2 -2
2 2 9 14 9 4 0 -2
2 2 9 14 9 4 0 -2
3 3 8 15 10 5 1 0
3 3 8 15 10 5 1 0
4 3 8 15 10 5 2 0
5 3 9 16 11 6 3 1
5 3 9 16 11 6 3 1
6 4 10 17 12 7 4 2
6 5 10 17 13 8 5 3
7 6 10 17 14 10 6 4
8 8 10 18 15 11 7 5
8 9 10 18 16 13 8 6
9 10 9 19 17 14 9 7
9 12 9 19 17 14 9 8
9 14 9 19 17 14 10 8
10 16 9 20 17 14 11 9
10 17 9 20 17 14 11 10
11 19 9 21 17 15 12 11
12 20 9 21 17 16 13 12
12 20 9 20 17 16 14 12
13 21 8 19 17 17 15 13
14 22 8 19 17 18 16 14
15 23 7 18 18 19 17 15
15 23 7 18 18 19 17 15
15 23 7 18 18 19 17 15
15 23 7 18 18 19 16 15
15 23 7 18 18 19 16 15
14 23 7 17 17 18 15 15
14 23 7 16 17 18 15 16
14 24 6 15 16 18 15 16
14 25 5 14 15 18 16 17
14 25 5 13 15 18 16 18
15 26 4 12 14 18 17 19
15 25 4 12 13 18 17 19
15 25 4 12 13 18 17 19
15 24 4 12 12 17 16 19
15 23 4 12 11 17 16 19
14 22 3 11 10 16 15 18
13 22 3 10 9 15 15 18
12 22 3 9 8 15 15 18
10 23 3 8 7 14 15 18
9 23 3 7 6 13 15 18
8 24 2 6 5 12 14 17
7 22 2 6 4 11 12 15
6 20 2 5 4 9 11 13
5 18 2 4 3 8 9 11
4 17 2 4 2 6 7 10
3 15 2 3 1 5 6 8
3 14 2 3 1 5 6 8
2 13 2 2 1 5 6 8
1 12 2 1 0 4 5 8
1 11 2 1 0 4 5 8
0 10 1 0 -2 3 4 8
-2 8 1 0 -2 2 3 6
-2 7 1 0 -3 1 1 5
-3 5 1 0 -4 0 0 3
-4 4 1 0 -4 -2 -3 2
-5 2 2 1 -5 -3 -4 0
-5 1 1 1 -5 -4 -5 0
-5 0 1 0 -5 -4 -5 -2
-6 -2 0 -2 -6 -5 -6 -3
-6 -3 -2 -2 -6 -6 -7 -3
-7 -4 -3 -3 -7 -7 -8 -4
-7 -4 -3 -3 -7 -7 -8 -4
-8 -4 -2 -3 -7 -7 -8 -5
-9 -5 0 -3 -8 -8 -9 -6
-9 -5 0 -3 -8 -8 -9 -6
-10 -6 1 -3 -9 -9 -10 -7
-10 -6 1 -3 -9 -9 -10 -7
-10 -6 1 -3 -9 -9 -10 -7
-10 -7 0 -3 -9 -9 -10 -7
-10 -7 0 -3 -9 -9 -10 -7
-9 -8 -2 -4 -8 -8 -11 -7
-9 -9 -2 -4 -8 -8 -11 -7
-9 -10 -2 -4 -8 -8 -11 -8
-9 -12 0 -4 -8 -9 -11 -9
-9 -13 0 -4 -8 -9 -11 -9
-9 -14 1 -3 -9 -10 -12 -10
-9 -13 0 -3 -9 -10 -12 -10
-9 -12 0 -3 -9 -10 -12 -10
-9 -11 -2 -4 -9 -10 -12 -10
-9 -10 -3 -4 -9 -10 -12 -10
-10 -9 -4 -5 -9 -10 -12 -9
-10 -9 -4 -5 -9 -10 -12 -9
-10 -10 -3 -5 -9 -10 -12 -9
-10 -11 -2 -4 -10 -10 -12 -9
-10 -11 -2 -4 -10 -10 -12 -9
-10 -12 0 -3 -11 -11 -13 -10
-10 -12 0 -3 -11 -11 -13 -10
-10 -11 0 -4 -11 -11 -13 -10
-10 -10 -2 -5 -11 -11 -13 -10
-10 -10 -2 -5 -11 -11 -13 -10
-10 -9 -3 -6 -11 -10 -12 -10
-10 -10 -3 -6 -11 -10 -12 -10
-10 -11 -3 -5 -11 -10 -12 -10
-10 -12 -2 -4 -11 -11 -12 -10
-10 -13 -2 -4 -11 -11 -12 -10
-11 -14 0 -3 -11 -12 -12 -11
-11 -14 0 -3 -11 -12 -12 -11
-11 -14 0 -3 -11 -12 -12 -11
-11 -14 0 -4 -11 -12 -12 -11
-11 -14 0 -4 -11 -12 -12 -11
-11 -13 -2 -5 -11 -12 -13 -11
-11 -13 -2 -5 -11 -12 -13 -11
-11 -13 -2 -5 -11 -12 -13 -11
-11 -13 -2 -5 -12 -12 -13 -12
-11 -13 -2 -5 -12 -12 -13 -12
-11 -14 -2 -4 -13 -13 -14 -13
-11 -14 -2 -4 -13 -13 -14 -13
-11 -14 -2 -4 -13 -13 -14 -13
-11 -14 -2 -4 -13 -13 -14 -13
-11 -14 -2 -4 -13 -13 -14 -13
-12 -13 -2 -5 -12 -12 -13 -12
-12 -14 -2 -5 -12 -12 -13 -12
-12 -14 -2 -5 -12 -12 -13 -12
-12 -15 -2 -4 -12 -12 -13 -13
-12 -16 -2 -4 -12 -12 -13 -13
-11 -17 -2 -3 -11 -12 -14 -14
-11 -16 -2 -3 -11 -12 -14 -14
-11 -15 -2 -3 -11 -12 -14 -14
-11 -14 -2 -3 -11 -12 -14 -14
-11 -13 -2 -3 -11 -12 -14 -14
-11 -12 -2 -4 -11 -11 -14 -14
-11 -12 -2 -4 -11 -11 -14 -14
-11 -12 -2 -3 -11 -11 -14 -14
-11 -12 0 -3 -10 -11 -14 -14
-11 -12 0 -2 -10 -11 -14 -14
-10 -12 1 0 -9 -12 -14 -13
-10 -12 1 0 -9 -12 -14 -13
-10 -12 1 0 -9 -11 -13 -13
-10 -12 1 0 -9 -11 -13 -12
-10 -12 1 0 -9 -10 -12 -12
-9 -12 0 -2 -9 -9 -11 -11
-9 -12 0 -2 -9 -9 -11 -11
-9 -12 0 -2 -9 -9 -11 -11
-9 -12 1 0 -9 -9 -11 -11
-9 -12 1 0 -9 -9 -11 -11
-8 -12 2 1 -8 -8 -11 -11
-8 -12 2 1 -8 -8 -11 -11
-8 -12 2 1 -8 -8 -11 -11
-8 -11 1 0 -8 -8 -11 -10
-8 -11 1 0 -8 -8 -11 -10
-7 -10 0 -2 -9 -9 -10 -9
-7 -10 0 -2 -9 -9 -10 -9
-7 -10 0 -2 -9 -9 -10 -9
-7 -11 0 -2 -9 -9 -10 -10
-7 -11 0 -2 -9 -9 -10 -10
-7 -12 1 0 -9 -9 -11 -11
-7 -12 1 0 -9 -9 -11 -11
-7 -11 1 0 -9 -9 -11 -11
-7 -11 0 -2 -9 -9 -12 -11
-7 -10 0 -2 -9 -9 -12 -11
-7 -9 -2 -3 -9 -9 -13 -10
-7 -10 -2 -3 -9 -9 -13 -10
-7 -11 -2 -3 -9 -9 -13 -10
-7 -12 -2 -3 -9 -9 -13 -10
-7 -13 -2 -3 -9 -9 -13 -10
-7 -14 0 -2 -10 -10 -12 -9
-7 -14 0 -2 -10 -10 -12 -9
-7 -13 0 -2 -10 -10 -12 -9
-7 -13 0 -2 -10 -9 -12 -9
-7 -12 0 -2 -10 -9 -12 -9
-8 -11 -2 -3 -9 -8 -11 -9
-8 -11 -2 -3 -9 -8 -11 -9
-8 -11 -2 -3 -9 -8 -11 -9
-8 -11 -2 -3 -10 -9 -11 -9
-8 -11 -2 -3 -10 -9 -11 -9
-7 -12 0 -2 -11 -10 -12 -10
-7 -12 0 -2 -11 -10 -12 -10
-7 -12 0 -3 -11 -10 -12 -10
-7 -11 0 -3 -11 -10 -12 -10
-7 -11 0 -4 -11 -10 -12 -10
-7 -10 -2 -5 -10 -10 -11 -10
-7 -10 -2 -5 -10 -10 -11 -10
-7 -10 -2 -5 -10 -10 -11 -10
-7 -10 -2 -5 -11 -10 -11 -10
-7 -10 -2 -5 -11 -10 -11 -10
-8 -10 -2 -5 -12 -11 -11 -10
-8 -10 -2 -5 -12 -11 -11 -10
-8 -10 -2 -5 -12 -11 -11 -10
-8 -10 -3 -5 -12 -11 -11 -10
-8 -10 -3 -5 -12 -11 -11 -10
-7 -11 -4 -6 -11 -10 -11 -11
-7 -11 -4 -6 -11 -10 -11 -11
-7 -11 -4 -6 -11 -10 -11 -11
-7 -11 -4 -6 -11 -10 -11 -11
-7 -11 -4 -6 -11 -10 -11 -11
-6 -12 -4 -6 -12 -10 -11 -11
-6 -12 -4 -6 -12 -10 -11 -11
-6 -12 -4 -6 -12 -10 -11 -11
-6 -12 -4 -6 -12 -10 -11 -11
-6 -12 -4 -6 -12 -10 -11 -11
-6 -11 -3 -6 -13 -10 -12 -11
-6 -11 -3 -6 -13 -10 -12 -11
-6 -11 -3 -6 -13 -10 -12 -11
-7 -11 -3 -6 -12 -10 -12 -11
-7 -11 -3 -6 -12 -10 -12 -11
-8 -10 -2 -6 -11 -9 -13 -12
-8 -10 -2 -6 -11 -9 -13 -12
-8 -10 -2 -6 -11 -9 -13 -12
-7 -10 -3 -6 -12 -9 -12 -11
-7 -10 -3 -6 -12 -9 -12 -11
-6 -10 -4 -5 -13 -9 -11 -10
-6 -10 -3 -5 -13 -9 -11 -10
-6 -10 -3 -5 -12 -9 -11 -10
-6 -10 -2 -4 -12 -9 -11 -10
-6 -10 0 -4 -11 -9 -11 -10
-7 -9 1 -3 -10 -8 -10 -10
-7 -8 1 -3 -10 -8 -10 -10
-7 -8 1 -3 -10 -8 -10 -10
-6 -7 1 -3 -10 -8 -10 -10
-6 -6 1 -3 -10 -8 -10 -10
-5 -5 0 -4 -10 -9 -9 -9
-5 -5 1 -3 -9 -8 -9 -9
-5 -5 3 -2 -8 -7 -8 -8
-5 -5 5 0 -7 -6 -7 -7
-5 -5 6 2 -6 -5 -6 -6
-5 -4 8 3 -5 -4 -5 -5
-5 -3 8 3 -5 -4 -5 -5
-4 -2 7 3 -5 -4 -5 -5
-3 0 6 3 -5 -4 -5 -5
-2 2 5 3 -5 -4 -5 -5
0 3 4 4 -5 -4 -4 -4
1 4 4 4 -4 -3 -4 -4
3 6 4 5 -3 -2 -3 -3
5 7 4 5 -2 0 -2 -2
6 8 4 6 0 2 0 0
8 10 5 7 1 3 1 1
8 9 5 6 0 3 1 1
7 8 4 5 -2 2 1 1
6 7 4 4 -3 1 1 1
5 5 3 2 -4 0 1 1
4 4 2 1 -5 -2 0 0
4 4 2 0 -6 -3 -2 -2
4 3 1 -2 -7 -4 -3 -3
4 2 0 -3 -8 -5 -4 -4
4 1 -2 -5 -9 -6 -5 -6
4 0 -3 -6 -10 -7 -6 -7
4 0 -3 -6 -10 -7 -6 -7
3 -2 -4 -7 -11 -8 -7 -7
2 -3 -5 -7 -11 -8 -8 -8
1 -4 -6 -8 -12 -9 -9 -8
0 -5 -7 -9 -13 -10 -10 -9
0 -5 -7 -9 -13 -10 -10 -9
-2 -6 -6 -9 -13 -10 -10 -9
-3 -6 -6 -9 -13 -10 -10 -10
-4 -7 -5 -9 -13 -10 -10 -10
-5 -8 -4 -8 -14 -11 -11 -11
-5 -8 -4 -8 -14 -11 -11 -11
-5 -8 -4 -8 -14 -11 -11 -11
-6 -8 -4 -8 -14 -11 -11 -11
-6 -8 -4 -8 -14 -11 -11 -11
-7 -8 -4 -8 -13 -11 -11 -10
-7 -8 -4 -8 -13 -11 -11 -10
-7 -9 -4 -8 -13 -11 -11 -10
-7 -10 -4 -8 -14 -12 -11 -11
-7 -11 -4 -8 -14 -12 -11 -11
-8 -12 -5 -9 -15 -13 -12 -12
-8 -12 -5 -9 -15 -13 -12 -12
-8 -12 -5 -9 -15 -13 -12 -12
-8 -12 -4 -8 -15 -13 -12 -12
-8 -12 -4 -8 -15 -13 -12 -12
-9 -13 -3 -7 -14 -13 -11 -11
-9 -13 -3 -7 -14 -13 -11 -11
-9 -13 -3 -7 -14 -13 -11 -11
-8 -13 -3 -8 -14 -14 -12 -12
-8 -13 -3 -8 -14 -14 -12 -12
-7 -12 -3 -9 -14 -15 -13 -13
-7 -12 -3 -9 -14 -15 -13 -13
-7 -12 -3 -9 -14 -14 -12 -12
-7 -12 -3 -9 -14 -14 -12 -12
-7 -12 -3 -9 -14 -13 -11 -11
-8 -11 -3 -8 -14 -12 -10 -10
-8 -11 -3 -8 -14 -12 -10 -10
-7 -11 -3 -8 -14 -12 -10 -10
-7 -10 -3 -8 -14 -12 -10 -10
-6 -10 -3 -8 -14 -12 -10 -10
-5 -9 -3 -7 -13 -13 -11 -11
-4 -13 0 -4 -13 -14 -13 -15
-3 -16 2 -2 -12 -16 -16 -18
-2 -19 5 2 -12 -18 -18 -21
1 -23 7 4 -11 -19 -21 -25
2 -25 10 9 -8 -20 -22 -27
7 -20 17 20 4 -10 -14 -22
12 -14 23 32 16 1 -6 -16
17 -8 30 44 27 11 3 -10
22 -2 37 56 39 21 11 -4
29 9 44 67 53 35 23 7
43 37 44 72 73 63 55 34
55 66 44 78 95 92 86 62
68 95 44 84 115 119 116 90
81 123 44 90 136 148 148 116
93 149 39 91 152 173 176 143
98 164 22 68 147 178 191 160
103 180 4 46 141 184 206 178
108 195 -14 23 135 190 222 195
113 211 -32 1 129 196 236 213
114 220 -49 -21 119 196 243 222
95 196 -55 -35 93 163 206 193
75 173 -62 -50 67 131 169 164
55 148 -68 -65 40 98 132 135
35 125 -75 -79 15 66 94 106
18 100 -81 -92 -10 35 60 78
12 76 -78 -92 -24 15 37 58
