I II V1 V2 V3 V4 V5 V6
0 -10 10 13 -17 9 8 -12
17 -3 9 11 -18 9 7 -12
1 -4 15 17 -11 16 14 -8
-5 -7 12 15 -12 16 12 -11
11 -1 12 15 -12 16 10 -9
8 3 10 15 -11 14 11 -10
-2 -3 14 15 -9 16 13 -9
1 6 23 23 -3 21 18 -2
8 11 25 28 0 24 23 4
31 7 17 17 -10 15 14 -5
12 0 13 17 -10 16 13 -5
-19 -14 12 13 -14 13 10 -6
-27 -15 19 17 -8 17 15 -1
-10 2 18 17 -8 17 16 -3
6 1 12 9 -15 11 8 -10
3 -3 7 6 -17 6 3 -17
-15 -7 13 11 -10 11 8 -12
-18 -4 16 17 -4 18 15 -5
-9 4 20 23 3 25 22 3
3 1 14 19 -2 20 15 -1
-1 -3 15 18 -3 21 16 0
-14 0 17 18 -3 23 17 1
-11 -3 14 12 -5 21 13 -5
-7 8 18 16 0 24 15 -4
16 18 15 14 -2 19 12 -7
-8 16 14 21 2 23 14 -3
-18 11 14 19 1 19 12 -6
2 5 6 9 -9 9 2 -14
-15 -1 12 15 -3 14 9 -6
-28 7 21 26 7 23 19 5
-7 8 18 20 3 20 17 2
11 6 13 14 -4 13 9 -3
16 17 20 16 3 17 14 0
24 22 17 14 -1 13 10 -5
18 18 11 10 -9 7 3 -12
18 19 6 8 -11 3 -2 -17
-4 14 8 9 -8 6 1 -15
-17 5 4 7 -13 4 -1 -16
-16 3 12 13 -5 13 6 -9
-7 12 19 19 0 18 11 -2
-23 6 19 20 0 20 14 2
-37 -3 18 15 -2 20 14 0
-20 2 18 13 -5 17 11 -5
1 9 10 5 -12 10 2 -12
-5 1 2 -11 -22 -1 -8 -21
-16 2 3 -12 -25 -2 -10 -23
-9 14 11 -6 -19 7 -1 -15
-16 14 9 -6 -22 4 -4 -18
0 29 18 0 -16 8 4 -10
1 23 14 -4 -23 4 0 -13
-16 6 7 -13 -30 -4 -7 -19
-2 14 5 -16 -31 -6 -9 -21
-17 5 7 -19 -34 -10 -12 -23
-31 -5 3 -25 -41 -17 -21 -30
-17 1 2 -27 -42 -18 -21 -32
-16 5 -3 -31 -48 -22 -25 -37
-13 15 7 -25 -42 -16 -18 -29
-3 19 4 -28 -46 -20 -22 -33
-27 13 6 -27 -46 -19 -21 -32
-54 7 7 -25 -43 -16 -16 -26
-54 7 11 -24 -41 -14 -13 -22
-33 0 5 -36 -55 -27 -24 -34
-41 -18 -2 -45 -63 -38 -34 -43
-64 -10 8 -37 -51 -28 -26 -35
-84 1 26 -24 -36 -13 -11 -22
-72 0 21 -29 -42 -19 -18 -28
-36 -6 5 -45 -58 -34 -35 -45
-34 -9 -3 -52 -65 -42 -42 -49
-47 -4 9 -42 -55 -33 -31 -37
-40 -8 3 -50 -64 -42 -39 -44
-16 -15 -6 -64 -75 -52 -50 -55
-46 -15 2 -58 -69 -45 -44 -48
-55 -18 7 -57 -64 -40 -41 -45
-41 -15 2 -62 -71 -46 -46 -53
-57 -25 1 -64 -74 -50 -49 -56
-59 -26 2 -61 -73 -48 -47 -55
-39 -17 5 -60 -71 -47 -47 -53
-40 -20 -3 -67 -79 -55 -55 -60
-60 -37 -8 -70 -84 -58 -57 -63
-41 -26 -11 -71 -86 -59 -58 -64
-30 -26 -10 -73 -85 -61 -58 -64
-37 -24 -7 -70 -83 -59 -56 -63
-46 -17 4 -62 -73 -49 -49 -53
-48 -12 4 -60 -68 -49 -48 -52
-63 -16 7 -57 -65 -47 -46 -52
-63 -20 0 -60 -70 -53 -53 -59
-35 -11 3 -56 -65 -49 -48 -53
-29 -8 -5 -58 -69 -53 -51 -56
-37 -20 -7 -62 -72 -54 -53 -57
-32 -10 -4 -53 -64 -46 -45 -47
-63 -13 -1 -46 -57 -37 -37 -41
-77 -14 7 -42 -51 -31 -32 -37
-70 -19 4 -47 -55 -34 -38 -42
-77 -19 2 -47 -53 -33 -38 -43
-53 -15 -1 -50 -54 -36 -41 -45
-14 8 0 -46 -50 -32 -38 -44
-18 4 1 -43 -47 -30 -35 -42
-23 -2 -2 -42 -48 -30 -35 -43
-15 -5 -5 -41 -47 -30 -35 -41
-39 0 9 -26 -31 -17 -21 -27
-30 -6 3 -31 -32 -25 -26 -29
-5 -2 -5 -37 -37 -29 -31 -36
-20 5 7 -23 -22 -13 -18 -24
-50 -3 3 -23 -21 -13 -19 -26
-34 4 4 -22 -18 -9 -17 -23
-10 20 9 -18 -14 -3 -14 -21
-16 14 5 -19 -16 -5 -14 -24
-13 17 7 -14 -14 -1 -11 -20
-19 13 7 -11 -11 0 -9 -15
-23 10 5 -11 -11 -3 -10 -13
-20 7 11 -6 -5 0 -5 -8
-4 20 19 1 2 6 1 -3
-19 11 17 1 2 5 0 -5
-17 15 11 -3 -1 1 -4 -10
1 30 9 1 5 5 1 -7
-11 32 15 8 9 9 4 -3
-22 27 17 8 8 6 0 -5
-8 32 14 7 7 6 0 -6
29 38 9 2 5 5 -2 -7
20 28 4 -2 2 -2 -6 -11
7 20 8 2 10 4 1 -4
26 35 15 9 18 13 7 2
24 36 15 11 19 15 9 4
-2 36 22 18 26 23 14 11
5 42 23 20 27 22 15 9
-10 42 25 24 29 25 17 11
-16 36 25 24 29 25 18 12
0 35 16 15 21 16 11 5
-2 31 15 15 20 17 11 6
-4 34 19 20 25 22 15 9
-1 29 19 17 23 22 13 9
-14 21 20 16 25 21 13 8
-13 15 14 10 19 14 7 3
-14 24 20 17 28 18 15 9
10 27 18 15 28 15 14 8
18 13 -3 -2 8 -8 -8 -12
-8 12 4 5 16 0 1 -4
7 20 6 7 17 1 4 -2
7 22 8 9 17 1 5 1
5 22 11 12 21 5 9 6
-10 17 10 13 22 9 12 9
-10 11 7 9 19 6 9 4
19 13 4 4 15 4 3 -1
24 16 6 4 14 4 4 -2
13 10 7 5 15 7 5 -2
8 13 6 7 16 10 7 -1
4 8 2 6 14 8 3 -3
6 6 -3 3 9 3 -1 -8
13 12 1 7 13 8 4 -2
19 10 2 7 12 7 2 -2
23 -2 -6 -3 2 -2 -7 -10
19 -5 -12 -7 -2 -10 -12 -16
21 -4 -6 -5 1 -9 -10 -15
17 -6 -9 -8 0 -12 -13 -17
10 -6 -5 -6 2 -10 -12 -16
0 -10 0 -4 4 -10 -12 -17
15 0 1 0 8 -4 -7 -13
5 0 2 2 10 0 -5 -10
-24 -5 7 9 16 7 1 -3
-13 -3 6 7 14 4 0 -2
26 9 8 6 14 6 0 -2
26 6 5 3 9 1 -5 -6
-19 -15 2 2 8 -1 -7 -10
-43 -12 11 12 19 11 4 -3
-9 8 15 16 24 14 8 2
19 1 3 1 8 -3 -10 -12
12 -12 -4 -7 0 -11 -17 -18
16 -6 -2 -4 2 -9 -15 -17
13 -13 -1 -5 1 -8 -13 -17
2 -6 7 6 13 5 -2 -5
-1 -12 6 5 11 3 -3 -5
-12 -29 2 -1 6 -5 -11 -12
7 -13 7 -2 9 -1 -10 -12
24 -8 2 -6 4 -3 -14 -17
3 -10 5 -2 7 1 -8 -12
-9 -12 11 0 9 1 -8 -13
-15 -21 8 -1 8 -1 -10 -14
36 -6 -3 -10 0 -8 -17 -21
46 -9 -9 -13 -3 -11 -19 -22
21 -12 3 0 10 2 -6 -9
0 -11 12 6 16 9 1 0
2 -14 9 2 13 6 -3 -4
23 -4 12 2 15 4 -3 -4
6 -13 5 -5 7 -3 -13 -12
11 -20 -1 -13 -1 -11 -20 -20
40 -12 -2 -16 -7 -15 -23 -26
49 -3 0 -13 -3 -12 -20 -22
32 -2 4 -6 4 -6 -15 -16
24 -2 6 -1 7 -4 -9 -11
39 -10 -2 -10 -1 -12 -17 -16
25 -15 2 -5 5 -6 -10 -11
1 -16 7 0 10 -1 -6 -5
-9 -19 15 4 15 5 -2 0
-7 -9 17 6 15 7 0 -1
-16 -9 17 8 17 8 1 -1
-30 -20 6 3 10 3 -6 -7
-7 -18 1 -2 4 -5 -12 -15
8 -6 6 1 6 -3 -12 -13
1 -7 13 8 10 3 -4 -6
9 1 17 15 16 11 1 1
7 -9 16 12 16 8 1 -1
11 -15 10 6 8 -1 -7 -8
26 -15 7 3 6 -1 -9 -9
6 -18 8 2 7 2 -9 -10
20 -16 1 -2 3 -2 -12 -16
31 -12 -1 -4 0 -3 -15 -18
19 -17 1 -6 -2 -4 -18 -19
11 -22 -5 -8 -7 -10 -24 -23
25 -25 -5 -8 -9 -8 -22 -23
22 -4 13 10 10 12 -2 -2
19 -9 15 9 14 15 0 1
17 -11 12 5 11 12 -3 -1
31 -7 13 5 11 12 -5 -4
19 -16 7 3 9 9 -10 -9
13 -11 15 11 16 16 -2 -4
17 4 27 26 28 24 6 4
14 8 31 37 39 33 13 11
6 19 31 46 47 42 22 18
15 22 28 51 56 50 31 24
45 31 19 55 61 55 35 30
60 48 18 70 76 70 50 45
60 59 21 83 93 85 65 61
96 71 21 88 104 95 76 69
102 78 18 95 114 107 89 80
103 99 28 115 142 134 119 109
119 129 31 128 165 160 146 137
157 157 24 130 180 180 168 159
186 191 17 138 196 201 192 184
202 208 10 137 200 210 204 200
168 197 7 123 189 203 199 200
112 184 16 115 177 194 194 197
91 178 25 103 156 173 174 179
102 167 21 80 130 142 143 150
85 155 24 65 108 120 120 126
56 131 31 46 81 95 94 100
38 100 24 18 46 61 57 66
17 72 16 -5 15 29 27 38
-22 30 9 -30 -18 -4 -3 9
-34 -1 3 -49 -40 -25 -23 -10
-5 -10 -12 -63 -57 -44 -38 -27
26 -9 -13 -62 -59 -44 -40 -30
14 -4 -7 -50 -49 -34 -33 -26
-5 1 3 -34 -30 -18 -18 -13
-4 21 15 -14 -10 -1 -1 4
-8 22 18 -4 -3 5 4 7
0 17 15 -5 -6 4 2 3
5 1 2 -13 -16 -7 -11 -9
29 0 -3 -16 -19 -12 -15 -14
42 -1 0 -10 -13 -8 -10 -10
24 0 6 -3 -5 0 -3 -2
17 -7 5 -2 -4 0 -1 -1
29 -5 3 -5 -10 -3 -6 -7
42 3 5 -5 -9 -2 -7 -6
31 1 5 -5 -9 -1 -6 -7
9 -4 2 -2 -8 3 -3 -7
24 1 -8 -8 -16 -5 -10 -13
21 5 1 -2 -9 1 -5 -7
-2 -3 2 -1 -9 -2 -6 -8
0 -14 1 -7 -12 -7 -8 -13
36 2 4 0 -9 -2 -4 -8
37 1 -2 -1 -10 -4 -3 -7
6 -3 5 5 -4 2 3 0
9 -4 6 6 -4 0 3 1
50 -7 -9 -13 -22 -20 -16 -20
66 -9 -17 -22 -31 -30 -26 -29
61 0 -13 -16 -27 -26 -21 -25
38 1 -7 -8 -19 -18 -13 -17
18 9 3 6 -9 -5 -1 -5
-2 7 10 14 0 3 9 5
18 5 7 10 -3 0 5 2
45 1 -5 -1 -15 -12 -4 -8
48 -5 -10 -6 -20 -15 -9 -14
19 -14 1 2 -11 -6 0 -6
10 -12 6 6 -10 -5 1 -5
27 -12 0 0 -16 -12 -5 -12
18 -5 0 1 -16 -11 -2 -10
13 -6 -3 -1 -17 -14 -3 -9
2 -5 0 6 -12 -9 3 -5
-5 3 11 14 -2 1 15 7
15 -3 2 7 -10 -6 7 -1
25 -9 -4 3 -15 -10 3 -5
44 6 0 7 -12 -5 8 -1
38 -4 1 3 -13 -7 4 -2
20 -9 2 4 -14 -6 5 -2
20 -8 0 1 -15 -7 3 -5
9 -2 1 4 -10 -2 9 -1
8 3 4 7 -11 -1 9 1
48 17 -1 3 -16 -6 4 -4
47 4 -9 -1 -22 -14 -2 -10
20 -9 -10 -3 -24 -16 -4 -12
19 -1 -3 6 -14 -4 6 1
25 7 -2 9 -9 0 12 6
28 5 2 10 -7 3 11 5
34 7 7 8 -9 1 11 6
38 3 2 2 -16 -6 4 0
32 9 3 7 -12 -2 9 3
18 5 2 7 -11 -3 9 2
5 5 -2 7 -12 -7 7 2
13 -3 -5 4 -15 -13 4 0
34 0 -8 0 -22 -18 0 -4
31 5 -4 3 -14 -10 6 3
24 7 0 4 -14 -8 8 7
39 1 -9 -5 -23 -19 0 -4
29 -2 -5 -3 -17 -19 1 -1
2 -7 -4 3 -12 -13 7 4
-28 -15 -3 4 -10 -13 8 4
0 0 2 9 -6 -7 15 9
19 11 1 10 -5 -5 15 10
-4 -1 5 10 -5 -5 15 11
-23 -8 7 15 -3 -2 18 13
20 -7 -7 2 -15 -14 4 0
46 -1 -8 -3 -17 -17 1 0
29 -6 -5 1 -15 -10 6 5
41 -9 -13 -7 -23 -18 -3 -5
41 -3 -9 -5 -19 -11 3 1
26 -3 -9 -2 -16 -10 6 2
12 -3 -2 3 -12 -7 9 4
15 2 0 5 -11 -5 11 9
24 -2 -5 2 -14 -10 7 8
19 -9 -9 0 -17 -13 5 5
17 -5 -4 5 -11 -7 9 10
18 -6 -7 1 -15 -12 5 6
41 -11 -14 -9 -24 -20 -4 -3
39 -8 -16 -10 -26 -24 -5 -5
17 -7 -13 -8 -21 -22 -2 0
18 8 -6 -1 -15 -17 6 8
-2 5 -3 7 -8 -11 12 12
-13 -5 -7 5 -10 -14 10 10
3 -8 -6 -3 -14 -18 6 5
7 -6 -1 0 -14 -16 8 8
17 -9 -9 -5 -23 -23 2 6
23 -5 -13 -8 -25 -27 -2 4
20 -14 -14 -15 -32 -30 -7 -2
12 -18 -16 -21 -38 -38 -12 -9
-1 -10 -10 -16 -31 -30 -6 -3
-8 -2 -1 -10 -26 -21 3 3
-7 -5 -7 -14 -31 -27 -3 -2
-19 -10 -9 -15 -34 -29 -5 -4
-27 -18 -8 -15 -32 -28 -3 -2
-14 -17 -13 -18 -37 -30 -5 -4
1 -11 -10 -18 -38 -28 -5 -3
2 -10 -7 -20 -37 -26 -4 -2
2 -19 -9 -25 -42 -30 -9 -5
-9 -24 -6 -25 -42 -31 -8 -4
3 -19 -10 -30 -47 -38 -14 -10
5 -20 -18 -41 -58 -49 -24 -19
10 -21 -19 -44 -59 -53 -25 -21
10 -21 -14 -45 -61 -56 -27 -23
-8 -27 -9 -42 -59 -53 -23 -18
-31 -30 -9 -36 -56 -46 -15 -10
-56 -31 -2 -30 -51 -38 -9 -2
-49 -32 -5 -34 -57 -44 -13 -6
-32 -34 -7 -41 -62 -49 -19 -13
-23 -28 -8 -45 -66 -51 -22 -15
-30 -38 -17 -54 -77 -59 -32 -25
-53 -37 -15 -52 -75 -57 -29 -23
-48 -39 -19 -56 -80 -60 -32 -26
-62 -44 -18 -56 -84 -61 -34 -28
-61 -38 -12 -52 -78 -56 -29 -22
-34 -33 -19 -59 -85 -63 -33 -27
-11 -41 -28 -71 -99 -72 -45 -38
-23 -41 -23 -67 -96 -68 -40 -34
-41 -47 -17 -66 -89 -62 -33 -29
-38 -46 -17 -65 -91 -63 -34 -30
-41 -50 -21 -69 -96 -68 -38 -34
-22 -39 -26 -73 -101 -74 -42 -37
-5 -24 -23 -70 -97 -69 -39 -33
-37 -34 -20 -65 -94 -66 -35 -29
-56 -41 -20 -64 -94 -65 -33 -28
-54 -51 -29 -72 -101 -74 -40 -34
-32 -42 -23 -67 -92 -67 -34 -29
-32 -32 -17 -58 -84 -59 -26 -23
-48 -43 -15 -55 -80 -56 -22 -19
-54 -38 -11 -51 -75 -52 -19 -15
-51 -39 -19 -56 -82 -61 -26 -22
-43 -33 -16 -51 -76 -57 -23 -19
-23 -32 -20 -54 -79 -59 -26 -23
-9 -27 -23 -53 -81 -61 -27 -23
-24 -34 -25 -51 -79 -60 -25 -21
-26 -33 -24 -47 -75 -59 -23 -19
-15 -33 -26 -48 -76 -58 -23 -18
-16 -24 -19 -41 -68 -47 -15 -11
-21 -31 -24 -44 -69 -49 -17 -14
-15 -31 -25 -44 -69 -48 -17 -15
-35 -34 -25 -42 -67 -45 -14 -13
-38 -40 -32 -46 -70 -50 -17 -17
-23 -32 -28 -43 -66 -43 -11 -13
-8 -16 -25 -35 -60 -36 -3 -5
5 -16 -32 -38 -64 -40 -6 -9
0 -14 -28 -33 -59 -34 0 -3
-10 -6 -18 -22 -49 -22 12 8
-8 2 -14 -16 -41 -15 17 13
-33 -2 -9 -11 -36 -9 21 20
-35 5 -7 -9 -32 -11 24 21
-36 3 -8 -9 -33 -12 23 18
-41 -3 -12 -12 -35 -13 18 13
-36 -4 -11 -9 -31 -10 22 15
-22 3 -13 -6 -31 -10 23 16
-14 -1 -17 -10 -37 -15 20 13
1 4 -20 -13 -39 -18 20 15
4 10 -20 -11 -40 -18 20 17
-5 7 -20 -9 -38 -16 24 18
-5 7 -22 -10 -36 -15 24 17
-11 9 -23 -7 -36 -16 23 16
-15 4 -27 -11 -40 -21 18 10
-8 4 -30 -11 -39 -24 14 7
8 4 -33 -13 -42 -27 11 3
0 -5 -35 -14 -45 -29 9 1
-4 -13 -39 -17 -48 -32 6 -2
16 -4 -33 -16 -44 -26 11 5
21 3 -27 -9 -37 -18 19 12
-2 -9 -30 -10 -40 -19 17 10
-1 2 -22 -1 -30 -11 25 20
-10 8 -23 0 -27 -8 28 22
-22 6 -24 0 -29 -8 28 21
-7 18 -19 2 -27 -4 32 25
3 20 -23 -1 -31 -6 26 21
-20 9 -25 -3 -33 -9 24 21
-29 10 -18 6 -24 -1 32 29
-9 23 -13 12 -17 8 39 34
-15 11 -16 9 -19 3 35 29
-3 12 -15 7 -16 3 34 30
3 22 -10 10 -12 8 38 34
-11 26 -6 14 -7 13 44 39
-9 28 -12 11 -12 7 40 33
-6 26 -18 7 -17 6 36 29
-18 23 -13 12 -13 11 39 32
-12 34 -7 20 -7 13 44 37
5 40 -10 20 -8 11 42 37
-2 31 -14 14 -14 5 37 34
8 25 -19 7 -21 -3 31 28
35 21 -27 -5 -33 -13 22 18
17 12 -27 -7 -33 -13 21 18
-15 12 -19 0 -24 -3 30 28
2 23 -21 2 -22 -3 29 26
-9 17 -29 -2 -27 -10 23 20
2 18 -30 -1 -27 -12 20 17
1 24 -27 2 -24 -7 21 20
-4 22 -27 4 -24 -3 23 21
-8 15 -28 2 -26 -2 24 22
11 17 -33 -6 -32 -7 20 19
35 15 -42 -19 -43 -17 11 11
27 12 -42 -18 -42 -16 13 14
-11 10 -34 -7 -31 -7 21 24
-28 8 -25 0 -23 -2 27 29
6 22 -23 1 -22 -5 25 28
-10 11 -27 -2 -27 -8 18 21
-15 3 -33 -5 -33 -11 13 17
16 12 -37 -7 -35 -13 9 13
15 13 -35 -4 -32 -10 9 15
0 10 -25 3 -22 -2 17 20
-29 -10 -30 0 -25 -6 13 17
-17 -25 -40 -15 -39 -15 0 5
13 -12 -42 -20 -42 -18 -3 1
24 -3 -39 -19 -37 -13 2 5
11 -4 -32 -16 -35 -9 4 9
-16 -4 -28 -11 -34 -8 7 11
-28 -2 -25 -6 -31 -5 11 14
-11 -2 -27 -5 -31 -6 9 12
-5 -3 -31 -7 -34 -8 3 10
9 2 -28 -5 -30 -4 6 13
12 -7 -35 -13 -39 -12 -2 4
0 -20 -39 -19 -46 -18 -10 -4
-8 -29 -41 -24 -52 -21 -15 -8
-8 -17 -36 -21 -46 -15 -7 -4
-7 -7 -24 -12 -37 -5 2 5
0 -2 -19 -9 -34 -3 4 7
10 -3 -27 -14 -42 -11 -2 2
-1 -5 -22 -10 -37 -7 1 7
-3 -5 -18 -8 -36 -5 2 7
-16 -14 -18 -6 -33 -3 3 8
3 -8 -18 -3 -28 2 6 11
16 12 -9 5 -21 11 14 18
-1 3 -10 -3 -27 7 9 12
-2 -10 -20 -12 -37 -6 -3 0
-15 -19 -20 -14 -40 -8 -5 -2
-14 -16 -15 -9 -35 -3 0 2
-6 -19 -25 -12 -40 -10 -5 -3
14 -14 -25 -14 -37 -11 -6 -3
10 -16 -18 -12 -34 -11 -4 -2
-9 -19 -16 -4 -26 -4 3 5
-25 -18 -4 3 -17 1 11 12
-26 -11 4 8 -12 6 17 16
-26 -18 -7 -3 -21 -4 6 5
-16 -23 -14 -12 -28 -13 -3 -5
-5 -8 -3 -3 -18 -5 6 2
-22 -18 -2 -2 -16 -5 7 5
-16 -16 -4 -4 -17 -8 6 3
11 -11 -9 -7 -20 -11 2 0
28 -8 -7 -7 -19 -11 5 0
-10 -24 -2 -1 -13 -5 10 7
-24 -29 -2 0 -13 -6 10 6
-6 -24 -3 -1 -12 -5 10 6
14 -14 -5 -6 -16 -10 6 0
8 -22 -12 -14 -24 -15 -2 -9
7 -22 -10 -14 -21 -13 0 -9
-16 -17 -4 -8 -15 -8 5 -3
-21 -9 5 1 -6 -2 15 5
5 -5 1 1 -7 -3 12 2
13 -13 -5 -7 -15 -8 7 -3
-6 -26 -3 -6 -12 -6 8 1
-7 -24 -2 -5 -10 -4 11 2
-10 -19 4 1 -3 2 16 6
-4 -2 9 10 6 10 24 13
-18 -15 0 1 -3 0 14 3
-14 -24 -6 -6 -10 -8 5 -7
-1 -20 -9 -9 -13 -12 0 -11
13 -12 -9 -8 -14 -14 1 -12
-1 -10 -3 0 -5 -4 9 -3
-7 -14 -4 1 -5 -1 9 -3
7 -19 -4 -2 -5 -1 8 -5
7 -27 -4 -3 -5 -3 4 -7
-20 -36 -4 0 -3 -3 5 -5
-26 -44 -6 -4 -3 -3 3 -9
7 -22 -5 2 6 4 9 -5
-4 -18 -2 11 15 9 13 -2
-13 -10 13 26 28 20 24 7
-15 10 28 47 45 35 38 20
-26 10 30 56 55 45 46 28
-21 10 23 62 63 52 54 36
19 26 23 69 74 62 64 46
37 47 33 89 95 83 84 63
33 60 38 108 119 105 105 84
55 78 35 119 136 120 121 99
94 87 24 115 137 122 123 101
120 108 21 118 148 137 140 116
113 136 29 139 180 175 177 153
121 165 29 154 204 206 209 185
148 192 24 159 219 229 233 211
148 203 19 152 221 237 244 223
143 207 15 137 209 228 237 222
124 194 11 116 181 202 212 200
97 180 20 104 163 179 190 182
65 173 28 96 148 161 172 164
13 146 31 82 127 139 150 143
-6 114 22 50 88 99 110 102
-7 87 19 19 50 59 70 64
-33 59 20 -4 17 28 39 35
-34 32 0 -31 -19 -9 5 3
-13 2 -18 -57 -48 -38 -25 -26
16 -10 -27 -69 -61 -54 -40 -42
25 -1 -22 -62 -56 -48 -38 -40
19 13 -7 -41 -35 -28 -20 -24
-13 13 2 -27 -20 -13 -8 -13
-40 16 13 -12 -3 2 5 -2
-54 13 17 -4 7 11 13 4
-47 15 11 0 8 10 13 2
-18 16 5 0 4 4 7 -4
4 2 -3 -5 -3 -8 -5 -15
21 -3 -11 -9 -6 -14 -12 -22
11 -8 -9 -4 -4 -9 -9 -18
-22 -5 8 11 10 7 5 -4
-24 -3 7 8 9 8 4 -7
-4 -2 1 0 3 3 -2 -14
-4 -4 -3 -1 2 1 -5 -17
29 -4 -13 -8 -7 -8 -15 -26
13 5 1 2 5 3 -3 -15
-19 1 6 6 8 6 1 -11
-17 -9 -3 1 3 1 -6 -16
-12 -15 -8 -2 -1 -3 -11 -19
1 -8 -5 -1 1 -2 -10 -17
6 -2 1 4 4 1 -8 -15
3 -8 -9 -2 -1 -3 -14 -22
9 -11 -15 -9 -7 -6 -19 -27
-4 -10 -6 -4 -2 0 -14 -22
3 4 -4 -1 2 3 -11 -20
2 12 -1 2 6 8 -6 -16
31 26 2 5 6 8 -5 -13
46 24 -11 -4 -3 -3 -17 -25
23 8 -13 -3 -2 -3 -18 -24
24 9 -9 0 0 -1 -15 -22
11 4 -7 1 2 1 -14 -21
-14 0 -3 6 8 5 -9 -15
-7 -2 -7 -1 3 -2 -16 -21
11 4 -8 -3 2 -4 -17 -24
4 11 -4 0 4 -1 -14 -20
-11 12 -4 -1 3 -3 -16 -23
1 14 -6 0 2 -4 -16 -24
31 27 -8 1 3 -4 -16 -23
29 17 -12 -2 -2 -7 -20 -26
10 6 -15 -2 -1 -8 -19 -25
13 13 -6 2 3 -3 -15 -21
-8 7 -1 5 7 3 -10 -17
-22 -9 -15 -4 -1 -7 -19 -28
16 7 -17 -7 -2 -8 -21 -31
52 29 -9 -5 0 -5 -18 -27
32 25 -15 -7 -5 -10 -25 -30
13 12 -20 -11 -10 -17 -30 -34
12 12 -17 -8 -6 -15 -26 -30
6 21 -5 4 6 -3 -14 -17
-17 15 3 12 14 5 -5 -8
-29 4 -1 9 11 2 -9 -11
-9 7 -8 4 11 2 -10 -15
7 11 -9 1 11 3 -11 -18
7 7 -13 -4 6 -3 -18 -22
17 9 -16 -9 2 -8 -23 -25
10 14 -15 -7 3 -5 -20 -25
15 18 -18 -9 -2 -8 -23 -28
10 9 -22 -11 -4 -10 -25 -29
9 11 -18 -7 1 -5 -22 -26
-5 11 -16 -4 3 -2 -20 -22
-12 6 -13 -2 6 0 -17 -19
-7 7 -14 -4 6 1 -18 -20
-15 -4 -18 -7 3 -5 -22 -27
-10 2 -19 -9 2 -6 -24 -29
6 16 -17 -7 4 -1 -21 -24
23 23 -18 -8 2 0 -21 -26
22 20 -26 -14 -6 -6 -29 -35
53 27 -28 -16 -9 -9 -32 -35
38 13 -33 -23 -13 -13 -36 -40
2 15 -21 -10 -2 -2 -26 -30
-9 29 -6 5 15 17 -10 -12
-12 29 -4 7 18 19 -8 -11
-10 22 -10 -1 14 12 -16 -18
2 24 -10 -3 10 9 -18 -20
15 29 -13 -8 6 6 -22 -24
7 22 -15 -11 4 3 -23 -28
7 10 -24 -19 -4 -8 -33 -35
10 11 -29 -15 -4 -9 -32 -34
3 12 -29 -11 0 -4 -27 -29
-17 11 -20 -5 7 1 -22 -24
-18 12 -19 -6 6 0 -24 -24
0 21 -18 -6 7 4 -24 -24
11 25 -14 -6 9 7 -23 -24
5 18 -18 -11 5 3 -28 -29
-8 16 -13 -9 8 5 -24 -25
0 17 -23 -14 2 -1 -30 -32
18 19 -22 -18 -3 -5 -33 -36
1 12 -16 -16 -3 -4 -34 -35
-9 2 -21 -19 -9 -9 -38 -38
13 6 -26 -24 -12 -14 -42 -42
4 8 -24 -21 -9 -12 -40 -39
-12 -2 -26 -25 -11 -15 -43 -41
-3 7 -21 -22 -4 -9 -37 -36
-3 24 -15 -15 0 -2 -32 -31
-10 22 -16 -17 -4 -5 -34 -34
9 12 -28 -33 -22 -23 -52 -50
6 13 -25 -33 -22 -21 -51 -48
1 13 -21 -29 -20 -18 -48 -42
-4 5 -25 -33 -24 -24 -52 -46
-8 8 -22 -31 -18 -20 -48 -41
-42 13 -10 -16 -5 -5 -34 -27
-64 13 3 -10 2 1 -25 -20
-56 -5 -11 -29 -17 -17 -43 -37
0 9 -20 -40 -28 -29 -55 -49
-7 19 -14 -32 -21 -22 -49 -42
-32 4 -17 -36 -25 -25 -53 -45
-22 -6 -28 -49 -41 -41 -68 -59
-11 -7 -30 -53 -44 -44 -70 -61
-15 -18 -33 -59 -49 -48 -74 -64
-22 -12 -28 -52 -41 -42 -67 -56
-33 -12 -21 -45 -34 -34 -61 -47
-33 -17 -18 -49 -39 -38 -63 -51
-24 -20 -24 -59 -49 -47 -72 -60
-19 -18 -30 -65 -51 -51 -76 -65
-42 -19 -26 -63 -50 -49 -74 -63
-53 -16 -15 -56 -46 -43 -67 -57
-56 -18 -16 -59 -51 -47 -72 -62
-43 -12 -15 -58 -50 -45 -72 -61
-30 -21 -23 -66 -57 -53 -78 -67
-31 -28 -30 -72 -64 -58 -84 -72
-12 -29 -29 -74 -67 -61 -87 -75
-20 -32 -23 -71 -61 -57 -82 -70
-44 -36 -22 -69 -57 -55 -78 -67
-38 -38 -29 -77 -67 -64 -86 -75
-16 -22 -27 -76 -65 -62 -85 -75
-8 -17 -29 -79 -70 -65 -89 -79
-21 -23 -26 -76 -69 -64 -87 -76
-39 -21 -21 -66 -62 -56 -79 -68
-36 -24 -20 -68 -62 -56 -79 -69
-26 -20 -17 -66 -59 -53 -75 -66
-10 -18 -22 -66 -58 -55 -77 -65
-21 -26 -26 -68 -60 -59 -77 -68
-30 -30 -25 -67 -57 -54 -75 -66
-36 -28 -26 -68 -58 -55 -77 -68
-19 -17 -23 -64 -54 -49 -73 -65
-29 -14 -24 -59 -50 -45 -67 -61
-59 -30 -24 -59 -51 -48 -68 -61
-65 -32 -17 -53 -47 -45 -65 -57
-44 -7 -6 -39 -32 -30 -50 -42
-13 -9 -18 -48 -41 -40 -59 -53
-27 -14 -18 -45 -36 -38 -57 -50
-52 -20 -12 -42 -29 -31 -50 -44
-41 -20 -16 -45 -29 -33 -51 -46
-21 -16 -23 -48 -35 -41 -56 -51
26 -11 -33 -55 -42 -51 -64 -60
30 -20 -44 -61 -48 -58 -72 -68
8 -22 -39 -55 -44 -54 -68 -64
-12 -15 -25 -40 -30 -39 -52 -48
-5 -8 -22 -34 -24 -35 -46 -42
6 -3 -24 -36 -25 -34 -47 -44
-18 -8 -13 -27 -16 -25 -38 -36
-32 -10 -3 -20 -7 -17 -29 -27
-44 -5 7 -10 5 -4 -18 -17
-16 0 -5 -12 1 -8 -23 -21
3 1 -16 -21 -5 -16 -31 -30
16 -3 -23 -27 -11 -22 -36 -36
24 4 -21 -23 -8 -20 -33 -34
14 17 -9 -8 6 -7 -19 -19
-2 11 -6 -7 5 -8 -18 -19
-8 15 0 0 11 -4 -13 -14
-7 17 2 4 18 1 -8 -10
6 16 -2 0 16 2 -9 -11
5 18 -8 -1 14 2 -11 -14
-7 24 0 5 20 10 -3 -8
5 33 5 7 25 13 0 -5
19 26 -7 -1 13 2 -11 -15
29 25 -10 0 12 0 -13 -16
26 26 -4 5 16 3 -10 -13
16 19 -6 5 17 3 -9 -12
24 22 -8 5 18 2 -9 -12
44 35 -3 10 22 6 -4 -7
33 32 -2 13 26 8 -1 -5
33 30 -9 12 24 6 -3 -7
44 39 -6 9 24 3 -6 -10
39 34 -7 6 21 2 -8 -14
-7 18 -8 7 20 0 -8 -10
-16 21 -2 15 28 8 0 -1
-11 30 3 20 33 13 6 4
-12 20 -2 15 29 9 2 -1
4 15 -6 10 25 7 -3 -4
28 19 -14 4 20 4 -6 -8
42 18 -21 -4 12 -2 -13 -14
43 25 -15 1 19 5 -6 -8
17 19 -23 0 16 2 -9 -11
15 10 -31 -8 7 -5 -17 -19
23 17 -20 -5 10 -1 -13 -16
13 23 -8 4 19 6 -5 -9
14 21 -6 6 21 8 -5 -7
33 19 -14 1 14 1 -10 -13
40 15 -15 0 13 0 -12 -13
44 17 -9 3 17 4 -7 -10
30 12 -10 1 16 2 -9 -10
8 5 -8 1 17 4 -7 -9
1 13 -4 5 20 8 -4 -7
6 15 -10 2 17 5 -7 -10
9 11 -18 -4 10 -2 -13 -16
17 7 -24 -9 3 -9 -20 -23
31 21 -21 -4 5 -5 -18 -20
22 10 -29 -8 4 -8 -19 -22
35 9 -31 -13 0 -11 -25 -24
66 4 -35 -23 -10 -22 -34 -34
51 6 -24 -12 1 -10 -23 -23
16 5 -20 -5 11 -2 -13 -15
12 2 -22 -8 7 -6 -17 -19
6 4 -17 -9 6 -7 -18 -21
-7 12 -9 0 14 2 -9 -13
10 14 -15 -6 8 -5 -15 -19
22 20 -16 -8 5 -7 -18 -20
22 9 -23 -14 -1 -13 -24 -24
19 9 -20 -11 1 -11 -21 -19
-2 2 -13 -7 7 -6 -16 -15
2 3 -11 -6 9 -3 -13 -13
12 14 -6 -2 15 1 -9 -10
27 7 -20 -15 1 -14 -24 -24
10 1 -19 -13 3 -12 -22 -23
3 9 -12 -6 9 -3 -14 -15
1 4 -10 -8 8 -5 -14 -16
-15 -1 -13 -8 4 -7 -17 -19
-11 -7 -22 -15 -5 -16 -24 -26
15 0 -18 -14 -3 -15 -23 -24
35 3 -20 -17 -6 -18 -25 -27
35 0 -22 -19 -9 -21 -27 -26
14 2 -8 -8 4 -9 -14 -13
-7 6 3 -2 10 -4 -8 -8
0 -3 -8 -11 2 -13 -17 -17
19 0 -17 -13 -3 -16 -20 -21
20 -4 -25 -17 -9 -23 -27 -27
24 -6 -27 -20 -13 -26 -31 -29
18 5 -10 -10 -2 -17 -22 -18
4 4 -6 -5 2 -12 -15 -13
-15 3 3 3 10 -4 -6 -6
3 7 -2 -5 3 -11 -13 -11
31 4 -19 -24 -14 -25 -28 -26
20 3 -21 -21 -13 -23 -26 -25
-12 -15 -21 -23 -16 -27 -30 -29
0 -8 -15 -19 -12 -23 -25 -25
23 -3 -16 -18 -12 -23 -24 -25
33 -1 -17 -16 -13 -25 -25 -26
21 6 -6 -6 -3 -17 -16 -16
18 10 -5 -3 -2 -14 -11 -12
15 5 -3 -3 -2 -11 -10 -10
16 -6 -11 -14 -13 -23 -21 -20
27 1 -7 -13 -12 -20 -19 -20
6 -4 -7 -12 -9 -19 -17 -20
25 -2 -18 -18 -14 -23 -22 -26
25 1 -17 -14 -10 -20 -19 -22
0 -2 -8 -8 -5 -16 -14 -16
-24 0 4 5 6 -6 -1 -4
-18 -13 -3 0 1 -10 -6 -8
-9 -22 -9 -7 -5 -19 -13 -14
0 -14 -7 -4 -2 -16 -10 -11
1 -11 -3 1 1 -12 -6 -9
5 -11 -12 -6 -4 -17 -12 -13
4 -9 -13 -7 -4 -17 -13 -14
-2 -4 -3 0 2 -10 -6 -7
-5 -4 -4 1 1 -11 -7 -8
10 -6 -9 -3 -3 -15 -11 -12
5 4 -1 5 4 -9 -3 -5
12 -10 -5 -1 -4 -16 -11 -12
32 -19 -10 -8 -10 -23 -18 -19
13 -20 -5 0 -2 -16 -11 -13
28 -6 1 9 6 -8 -4 -6
48 8 12 20 14 1 3 2
25 15 21 30 25 9 10 8
24 16 17 36 32 15 15 12
25 19 17 45 45 23 26 20
-2 30 24 64 66 43 45 39
0 34 21 75 78 53 56 48
33 43 19 82 87 63 65 57
73 66 21 96 107 83 85 74
76 71 20 108 122 99 102 91
60 80 17 118 141 120 122 113
84 116 24 135 169 154 156 147
116 152 20 142 188 177 181 173
130 172 17 146 202 197 203 195
138 189 16 145 208 209 217 211
138 196 8 130 190 198 208 206
132 191 8 109 165 174 188 190
90 172 17 99 149 155 169 172
51 156 28 97 140 144 157 162
40 151 39 90 128 131 145 149
25 134 43 70 102 105 118 123
3 89 29 33 59 63 75 82
-6 42 6 -9 11 17 28 39
-17 6 -6 -42 -27 -21 -9 4
-9 -9 -9 -59 -50 -45 -32 -17
11 -8 -14 -62 -57 -53 -38 -27
7 -16 -13 -58 -56 -56 -41 -30
-9 -17 2 -42 -41 -42 -29 -18
-17 -5 11 -26 -23 -30 -15 -5
-8 1 18 -12 -6 -16 -1 6
-6 2 17 -7 1 -10 3 9
-23 -8 14 -5 1 -11 2 8
-23 -7 13 2 4 -8 4 9
-16 -11 13 5 8 -7 3 8
-28 -20 12 7 6 -10 0 5
1 -25 5 2 -1 -18 -7 -4
14 -15 6 6 2 -17 -6 -2
4 -24 5 5 0 -19 -8 -4
10 -23 5 3 1 -18 -8 -3
20 -17 6 5 4 -15 -5 1
23 -20 -1 0 0 -21 -11 -4
8 -29 3 -1 -3 -24 -13 -7
-1 -23 13 5 4 -17 -8 -2
21 -12 13 7 5 -15 -6 -1
10 -9 10 9 6 -13 -6 -1
-8 -21 9 10 7 -12 -5 1
-20 -23 17 19 13 -7 0 6
-56 -39 18 23 16 -4 0 7
-73 -36 27 29 25 5 10 15
-28 -23 22 25 23 4 7 13
35 -15 2 4 3 -17 -12 -5
50 -26 -10 -10 -10 -29 -25 -19
24 -24 -3 0 -3 -23 -18 -11
-35 -37 10 11 8 -10 -6 1
-47 -39 17 16 13 -4 -1 4
-11 -31 13 12 7 -10 -7 -2
16 -29 7 10 2 -15 -12 -6
18 -32 7 12 4 -14 -11 -5
2 -31 13 19 11 -7 -4 2
-11 -44 7 14 5 -12 -9 -1
20 -33 0 10 1 -16 -13 -5
37 -31 -2 4 -3 -20 -18 -10
7 -42 -2 3 -5 -23 -20 -11
5 -27 12 14 7 -11 -6 1
8 -16 19 21 15 -3 1 7
-16 -28 10 19 9 -9 -4 3
0 -25 10 18 7 -12 -5 3
35 -19 12 16 5 -11 -6 0
25 -25 10 16 5 -11 -6 1
-19 -37 14 20 10 -6 1 7
-44 -38 21 27 16 1 9 15
-35 -26 30 31 22 8 15 19
-20 -22 24 24 18 3 10 14
-5 -30 10 9 2 -13 -5 -2
-4 -29 5 10 -1 -16 -8 -5
0 -21 11 18 8 -9 0 1
-4 -18 15 22 11 -7 4 6
-44 -33 20 28 18 1 11 13
-16 -24 16 27 20 0 13 14
21 -14 15 22 16 -3 10 12
24 -11 21 23 19 -1 10 14
14 -25 10 13 9 -10 0 3
13 -34 1 3 0 -20 -8 -5
4 -23 15 16 15 -6 5 7
-15 -20 18 21 18 -3 8 10
-25 -31 9 13 10 -11 0 2
-8 -21 8 15 11 -9 2 4
17 -19 10 15 13 -8 2 4
38 -25 0 6 3 -18 -7 -6
27 -29 3 10 7 -14 -4 -3
-6 -35 9 18 13 -6 4 5
-25 -43 9 19 15 -2 7 10
-33 -35 13 21 17 2 10 12
-25 -35 10 15 14 -2 6 10
-19 -29 13 17 13 -5 3 9
-8 -24 15 18 12 -4 4 8
-14 -37 6 11 3 -15 -5 -1
11 -29 5 9 2 -16 -6 -2
7 -18 18 22 17 -1 10 13
3 -27 12 20 17 -4 6 10
20 -30 1 11 10 -12 -3 2
19 -34 4 9 11 -9 -1 2
24 -31 4 5 5 -12 -5 -3
1 -31 9 10 6 -8 -2 0
-9 -31 8 12 7 -7 -2 1
-21 -33 5 11 4 -11 -5 -3
-24 -36 1 9 2 -14 -8 -4
14 -27 -4 3 -3 -20 -11 -8
13 -17 0 9 2 -14 -6 -3
-13 -21 9 14 8 -8 1 3
-20 -25 10 15 9 -8 0 4
-24 -27 14 16 12 -6 2 8
-41 -24 21 20 17 0 7 12
-28 -22 23 13 12 -5 3 7
-13 -21 18 7 6 -11 -3 1
7 -12 13 8 6 -11 -4 0
20 6 16 14 9 -6 1 4
-9 -18 9 10 2 -12 -4 0
-3 -17 8 7 -1 -13 -6 0
8 -14 5 2 -4 -16 -8 -3
-17 -34 2 -5 -9 -22 -14 -8
-26 -36 4 -7 -8 -20 -14 -8
-41 -40 6 -7 -7 -19 -13 -6
-26 -38 5 -10 -13 -22 -17 -13
-23 -38 -1 -17 -20 -30 -25 -20
-27 -37 5 -15 -17 -27 -21 -18
-20 -27 9 -10 -13 -23 -17 -11
-31 -29 10 -8 -13 -22 -14 -8
-47 -31 13 -5 -12 -20 -12 -6
-90 -44 15 -2 -11 -18 -10 -1
-77 -50 12 -8 -15 -24 -16 -6
-28 -46 3 -22 -29 -34 -29 -20
-34 -49 2 -27 -34 -37 -31 -23
-31 -50 4 -31 -35 -37 -32 -24
-36 -47 4 -30 -38 -40 -33 -26
-35 -53 -1 -35 -42 -45 -37 -30
-37 -56 0 -35 -44 -46 -38 -32
-53 -48 10 -27 -35 -35 -28 -21
-32 -46 3 -35 -42 -42 -35 -27
2 -43 -7 -44 -51 -51 -45 -34
-26 -50 -7 -44 -52 -51 -44 -34
-51 -59 1 -42 -48 -47 -40 -32
-36 -54 -4 -48 -57 -55 -47 -39
-21 -53 -10 -57 -67 -65 -57 -49
-33 -49 -4 -52 -62 -61 -54 -45
-52 -53 -5 -51 -60 -60 -53 -44
-74 -59 3 -45 -57 -54 -47 -40
-71 -64 5 -44 -54 -51 -44 -36
-34 -52 1 -47 -57 -54 -46 -39
-26 -54 -2 -47 -59 -56 -48 -40
-39 -60 -6 -51 -63 -62 -54 -45
-52 -67 4 -47 -58 -56 -48 -40
-58 -63 3 -44 -56 -53 -45 -38
-45 -53 2 -42 -56 -52 -46 -39
-40 -47 5 -40 -56 -53 -46 -42
-40 -54 1 -40 -60 -55 -49 -45
-23 -56 -8 -44 -66 -62 -54 -49
-31 -58 0 -36 -57 -53 -45 -41
-45 -50 10 -25 -44 -40 -32 -28
-85 -59 18 -16 -35 -31 -24 -19
-79 -63 16 -18 -34 -33 -24 -19
-60 -60 9 -23 -37 -36 -28 -22
-43 -54 4 -25 -41 -40 -32 -28
-9 -44 -4 -31 -47 -47 -39 -36
5 -30 -4 -26 -43 -44 -35 -33
-16 -45 -8 -26 -45 -44 -36 -34
-39 -49 -3 -17 -38 -41 -29 -28
-22 -44 4 -11 -30 -34 -22 -21
-19 -41 6 -7 -24 -28 -18 -15
-27 -48 4 -7 -23 -28 -18 -16
-28 -59 -1 -10 -26 -32 -22 -21
-26 -60 0 -11 -22 -30 -21 -20
-26 -52 2 -8 -20 -27 -18 -19
-1 -44 -3 -11 -22 -29 -22 -23
37 -40 -16 -20 -32 -42 -34 -35
-21 -42 2 -1 -12 -23 -14 -17
-54 -42 14 13 1 -12 -1 -4
-23 -27 12 15 4 -9 2 0
-22 -13 21 26 16 3 15 11
-32 -29 13 22 12 -3 8 5
1 -25 10 17 8 -6 4 1
0 -26 12 18 13 -2 7 2
-15 -33 7 16 9 -8 3 -2
-7 -26 10 17 12 -6 5 1
0 -16 11 20 13 -7 5 0
-9 -22 6 16 8 -13 -1 -5
-13 -23 7 20 12 -10 4 -2
5 -11 6 26 18 -3 11 4
12 -9 5 23 15 -7 7 1
-19 -31 5 21 15 -6 6 2
-25 -28 10 23 19 -2 13 6
-17 -24 14 24 23 2 16 9
-19 -25 13 24 20 1 14 9
-8 -23 11 20 15 -3 9 3
-4 -26 8 17 12 -5 8 0
10 -19 9 20 14 -2 10 2
1 -11 16 30 22 5 18 8
20 0 20 34 26 9 22 13
14 13 28 47 38 19 32 26
-23 0 32 49 42 21 34 29
-4 2 28 45 37 16 30 25
26 3 23 37 31 10 24 19
26 4 23 37 31 10 23 18
9 5 27 43 38 15 28 22
8 13 30 48 42 18 32 25
-8 6 30 51 43 22 34 27
0 -8 15 40 30 8 22 14
26 -7 10 35 25 3 18 9
8 -6 19 40 30 8 24 16
1 -10 23 39 32 10 24 14
28 6 26 43 39 17 31 20
42 20 27 46 43 23 34 26
16 9 17 38 33 13 26 18
-1 -6 11 32 27 6 18 11
1 -11 6 26 21 -1 10 2
-9 -2 20 40 36 13 23 14
-30 -9 22 43 39 16 28 18
-4 -12 12 35 30 9 21 10
13 -15 6 30 25 4 18 7
6 -14 8 31 27 9 21 12
7 -14 7 28 25 6 17 9
26 -22 -3 15 13 -5 7 -1
18 -18 -7 14 12 -8 5 -2
-3 -17 -3 21 20 -1 12 4
-6 -14 2 24 21 1 14 4
-3 -11 8 24 21 2 13 4
6 -7 7 24 21 0 14 5
29 -6 1 19 15 -6 7 -2
27 -11 -1 16 13 -9 5 -3
-3 -23 10 23 23 1 11 5
11 -21 9 19 21 -2 9 1
18 -25 -1 10 13 -7 3 -7
22 -13 -1 11 15 -5 6 -3
19 0 8 18 22 4 13 2
5 -18 -1 11 11 -6 4 -9
-1 -28 -6 6 6 -11 -4 -15
2 -20 2 15 15 -3 6 -3
7 -15 6 20 20 4 12 1
25 -23 -7 8 6 -9 0 -10
28 -23 -6 6 5 -8 0 -9
29 -16 1 11 10 -2 6 -3
31 -15 2 11 11 -1 6 -4
4 -14 6 15 14 3 10 0
7 -15 -4 6 4 -6 2 -9
10 -21 -13 -3 -4 -15 -5 -18
14 -19 -17 -4 -5 -13 -5 -18
20 0 -8 6 2 -4 4 -8
13 -5 -3 9 5 -4 6 -5
12 -6 -2 10 4 -3 6 -5
21 -5 -5 7 2 -5 4 -7
-5 -18 -5 7 3 -5 4 -9
-7 -19 -5 4 2 -6 1 -11
3 -16 -8 3 0 -9 -1 -13
0 -14 -8 1 0 -12 -3 -16
17 -8 -6 -3 -4 -18 -7 -20
20 -13 -12 -5 -7 -23 -10 -24
19 -11 -8 -1 -6 -21 -8 -21
7 -10 -4 5 -2 -16 -3 -18
-16 -22 -7 4 -3 -16 -3 -16
-4 -12 -3 5 2 -11 4 -11
15 -1 3 7 7 -5 9 -4
18 -10 -4 0 0 -11 3 -11
9 -3 2 4 4 -7 7 -6
9 5 8 9 11 -1 13 0
7 8 8 9 11 -2 12 0
-4 0 4 4 5 -7 7 -5
-8 -6 -4 -1 -3 -14 2 -11
6 2 -8 0 -1 -12 3 -10
3 -3 -11 -2 -4 -17 -1 -14
6 -7 -3 2 -1 -12 2 -11
26 -9 -9 -3 -5 -19 -4 -18
15 -13 -3 3 5 -11 3 -13
-7 -2 9 16 18 2 14 -2
-14 6 17 28 27 12 23 4
4 20 17 37 36 18 29 10
8 25 10 40 39 23 32 12
17 35 12 52 52 36 44 26
26 37 10 61 63 46 54 33
42 45 7 70 75 56 64 41
65 66 19 88 100 81 87 63
70 85 21 104 121 103 107 84
84 100 17 110 135 120 123 100
101 128 22 119 153 145 148 122
122 156 19 127 171 169 173 149
160 196 21 140 197 201 204 181
152 208 17 148 210 219 225 202
131 201 5 133 199 213 220 200
111 207 13 123 188 209 217 201
79 207 19 111 168 194 201 189
65 191 24 99 148 173 179 170
32 179 32 90 132 156 161 153
18 161 31 66 102 127 131 127
15 126 14 26 53 77 82 78
-9 75 -2 -11 10 32 35 33
-16 46 -8 -37 -24 0 2 1
-19 27 -8 -50 -42 -17 -14 -15
-38 19 -2 -46 -45 -20 -17 -18
-30 13 -2 -48 -46 -23 -21 -22
-23 12 -1 -41 -41 -19 -17 -20
-38 11 5 -30 -28 -8 -8 -11
-39 18 7 -18 -17 4 3 0
-7 31 7 -13 -11 7 7 3
-4 35 7 -8 -8 7 6 3
-36 22 12 2 1 12 10 7
-34 17 12 5 2 12 7 4
-18 11 9 3 0 8 1 -3
-11 6 3 2 -5 2 -4 -9
-12 3 0 4 -4 4 -3 -7
-13 -4 -2 4 -5 4 -4 -7
-8 -6 -1 2 -4 6 -2 -5
-7 -2 -2 3 -2 9 -2 -2
-22 -14 -5 -1 -4 7 -4 -5
-7 -7 -7 -3 -8 5 -7 -9
6 -4 -8 -9 -13 2 -11 -14
-7 -5 -6 -5 -15 1 -11 -13
-5 6 0 3 -8 4 -5 -9
-9 13 6 10 -2 9 -1 -4
9 18 7 10 0 10 0 -2
-14 10 8 13 2 14 4 2
-35 -6 9 13 6 17 6 3
-23 -7 4 10 2 13 3 0
-28 -12 3 9 4 13 2 1
-31 -6 5 10 3 14 2 2
7 5 -5 -2 -9 4 -8 -8
30 5 -18 -13 -22 -9 -22 -21
17 4 -11 -10 -16 -6 -17 -17
-8 5 0 2 -8 3 -10 -9
-24 3 7 12 0 11 -2 1
-23 6 9 16 2 14 2 5
-25 -6 6 11 1 13 1 3
-47 -12 7 15 2 16 5 9
-35 -7 11 13 4 17 6 11
-12 1 9 10 1 15 2 7
-22 5 13 13 3 18 6 10
-3 17 10 13 0 15 4 9
-26 10 11 17 2 16 5 10
-46 0 8 18 -1 13 4 7
-41 -5 8 17 0 13 2 9
-14 4 7 15 -1 13 2 8
2 -3 -5 7 -10 5 -5 0
4 -5 -6 6 -9 7 -5 2
-3 -4 2 9 -6 10 -1 6
-20 0 9 13 0 16 4 12
-17 -4 11 12 1 16 4 11
-6 -5 7 8 -6 7 -4 4
1 1 13 14 -1 11 0 7
-2 1 6 9 -6 5 -6 2
-28 -15 -2 3 -10 2 -12 -1
-14 -3 4 6 -3 10 -2 8
-7 4 8 12 3 17 4 14
-27 7 14 17 5 22 9 19
-40 0 13 15 4 23 10 20
-41 -9 1 5 -7 14 -2 9
-34 -6 3 7 -5 15 -1 11
-2 16 10 14 2 22 8 17
-29 10 16 21 6 27 12 22
-32 0 6 14 -3 19 5 13
-37 2 9 17 2 22 9 18
-13 10 4 15 0 21 6 16
1 1 -4 6 -8 12 -3 9
-6 4 5 8 -7 14 -1 13
8 -4 -3 -1 -15 5 -9 5
8 5 0 0 -12 9 -7 5
-12 -6 2 -1 -11 8 -9 7
-15 -5 5 2 -8 10 -8 5
-17 5 12 10 1 19 0 14
-30 -7 5 7 -6 14 -7 8
-25 -3 13 16 6 25 3 17
-19 0 10 15 4 24 1 15
-21 -11 7 11 0 21 -1 12
-28 -11 4 8 -2 19 -3 12
-34 -15 5 3 -5 17 -6 12
-44 -14 9 3 -1 20 -3 14
-38 -10 10 6 1 22 -2 15
-25 -3 8 7 2 20 -3 14
-24 -3 7 7 0 18 -5 13
-37 -1 9 11 0 19 -5 14
-22 -1 10 11 0 19 -4 14
-7 6 10 13 1 20 -3 14
-28 0 14 18 6 25 1 19
-45 -16 11 13 1 19 -4 14
-46 -21 8 6 -3 16 -8 12
-19 -4 7 2 -4 16 -8 11
-3 -1 4 -2 -9 11 -13 7
-17 0 2 -3 -14 5 -17 4
-63 -13 7 0 -10 10 -13 8
-59 3 18 9 -3 18 -3 17
-29 15 22 13 4 24 3 24
-24 3 10 5 -4 14 -7 13
-1 8 15 6 -4 16 -5 14
-6 5 16 1 -7 13 -8 10
-38 -12 13 -4 -9 11 -11 7
-44 -10 9 -10 -17 7 -16 2
-26 -6 8 -17 -23 4 -21 -3
-32 -7 4 -22 -29 -3 -27 -8
-57 -18 -1 -25 -35 -10 -32 -12
-54 -17 -1 -25 -35 -10 -33 -12
-46 -15 3 -21 -34 -9 -31 -10
-36 -17 5 -20 -32 -9 -30 -9
-40 -23 7 -21 -31 -9 -30 -7
-41 -21 2 -24 -34 -12 -32 -12
-38 -15 12 -22 -28 -2 -26 -5
-38 -12 16 -25 -30 -3 -28 -7
-48 -24 10 -35 -41 -11 -37 -15
-52 -23 7 -41 -45 -13 -38 -18
-62 -21 9 -39 -46 -13 -40 -17
-72 -31 1 -45 -57 -23 -50 -27
-47 -22 4 -44 -56 -21 -47 -24
-50 -25 4 -47 -59 -26 -51 -27
-35 -30 3 -53 -62 -29 -55 -30
-63 -38 4 -54 -62 -29 -57 -29
-92 -47 15 -48 -56 -21 -50 -23
-67 -40 13 -52 -59 -26 -53 -27
-42 -31 8 -57 -66 -32 -58 -32
-55 -43 -2 -68 -75 -42 -68 -42
-58 -38 -1 -64 -73 -39 -65 -39
-59 -28 0 -58 -69 -34 -60 -36
-59 -32 -4 -59 -72 -35 -60 -37
-69 -37 -3 -59 -73 -35 -60 -36
-75 -45 -2 -65 -77 -37 -61 -37
-63 -37 2 -61 -72 -32 -56 -34
-52 -28 7 -58 -67 -28 -52 -29
-44 -35 3 -66 -75 -37 -61 -39
-42 -41 0 -70 -78 -40 -66 -44
-57 -49 -9 -73 -84 -46 -74 -54
-70 -50 -2 -65 -75 -41 -70 -48
-76 -38 4 -55 -69 -35 -63 -42
-73 -42 -1 -58 -70 -37 -65 -44
-63 -33 1 -54 -63 -32 -59 -40
-69 -27 8 -45 -57 -22 -48 -31
-86 -36 7 -46 -56 -22 -48 -29
-68 -42 -2 -56 -61 -28 -56 -38
-45 -34 -4 -56 -60 -28 -56 -39
-57 -33 2 -49 -53 -21 -48 -34
-37 -21 1 -48 -51 -21 -47 -33
-20 -9 7 -40 -44 -14 -41 -27
-39 -17 9 -38 -43 -16 -41 -26
-45 -28 6 -43 -47 -22 -46 -30
-36 -24 3 -44 -46 -22 -47 -31
-24 -17 5 -37 -39 -16 -39 -24
-18 -8 5 -32 -35 -11 -35 -21
-39 -18 5 -31 -32 -8 -34 -19
-48 -19 2 -32 -30 -7 -33 -20
-57 -20 7 -27 -23 1 -26 -14
-65 -20 7 -22 -20 5 -23 -13
-63 -11 11 -14 -12 12 -17 -8
-56 -12 8 -16 -15 8 -21 -10
-28 -8 5 -19 -18 6 -22 -12
-14 0 2 -19 -19 6 -20 -11
-6 -4 -3 -21 -22 4 -23 -14
-11 -3 -1 -15 -16 8 -18 -11
-11 2 5 -10 -6 15 -12 -4
16 15 4 -11 -6 15 -12 -5
0 -2 -7 -21 -17 3 -25 -16
-19 -7 -3 -17 -14 4 -23 -14
-29 -4 3 -9 -9 10 -16 -10
-3 5 -3 -10 -10 8 -19 -12
8 11 5 -1 0 19 -10 -4
-48 -6 3 1 -1 19 -9 -2
-41 -10 3 -3 -4 18 -9 -2
-13 13 10 2 2 27 0 7
-9 11 9 0 2 27 -2 5
2 14 7 -3 0 24 -5 2
-3 17 8 -1 3 24 -6 2
-16 11 1 -4 -4 17 -12 -4
-10 12 1 -3 -2 18 -11 -2
0 10 -7 -8 -7 11 -17 -9
-10 -3 -8 -9 -6 9 -18 -10
-17 12 7 8 12 27 -1 8
-30 10 10 13 16 33 6 13
-25 8 12 11 15 33 6 13
-33 1 10 9 11 31 4 11
-17 0 0 0 -1 20 -7 3
14 19 9 1 5 24 -3 6
27 33 10 2 6 23 -4 6
10 12 1 -4 0 16 -11 -3
0 7 0 -1 0 16 -11 -3
2 1 -4 -2 -1 15 -11 -5
6 13 5 7 11 26 -2 7
-24 5 8 10 13 31 5 12
-43 -2 7 9 14 33 7 15
-40 -3 10 11 17 36 10 17
-25 1 6 7 11 30 2 10
-32 -4 5 4 9 27 -2 5
-26 7 8 8 12 28 -3 8
-15 15 6 7 9 25 -5 6
-2 15 -2 1 1 20 -10 1
-7 11 1 3 2 22 -8 2
-1 7 -2 0 -2 18 -12 -2
20 7 -4 -2 -3 16 -12 -5
3 10 5 7 6 25 -5 4
4 10 12 13 14 35 2 12
20 15 8 10 12 34 0 9
25 29 12 12 17 40 7 15
18 41 22 20 23 48 16 24
-12 23 10 12 10 37 5 14
-9 22 1 7 4 30 -2 8
-15 23 10 14 12 36 3 14
-23 15 7 14 8 32 -1 8
-2 8 1 7 3 26 -9 1
-13 11 10 14 11 34 -2 9
-9 8 7 8 9 32 -5 5
17 6 -4 -5 -3 23 -14 -7
-6 16 4 4 7 34 -5 4
-30 24 14 17 21 47 8 20
-33 17 15 19 22 49 10 21
-26 14 6 12 11 40 1 13
-27 -2 -3 2 0 31 -7 4
-8 8 -10 4 1 30 -6 6
-2 8 -10 5 3 32 -5 7
-8 -1 -11 -3 -2 28 -9 2
-9 -17 -15 -10 -5 24 -13 -2
17 1 -6 -6 0 30 -7 2
20 15 6 2 7 39 0 9
-11 8 1 0 2 35 -5 6
-6 2 -4 -4 -2 30 -10 1
21 9 -9 -7 -8 23 -17 -4
29 9 -7 -6 -7 24 -17 -2
12 6 -5 -1 -2 27 -12 2
-8 4 1 7 7 35 -4 11
-8 11 6 11 13 39 0 15
-13 -1 4 7 10 36 -6 9
-32 -15 -2 1 4 28 -14 2
-18 -17 -3 -8 -3 23 -19 -4
-5 -13 -11 -16 -15 15 -26 -10
-16 -12 -2 -7 -7 22 -18 -3
-11 -14 -8 -11 -10 17 -23 -8
-5 -14 -9 -11 -9 19 -20 -6
1 -14 -11 -13 -10 18 -19 -7
11 -24 -22 -25 -22 8 -29 -16
21 -10 -19 -23 -20 11 -25 -14
30 -7 -13 -20 -15 14 -22 -13
16 -7 -11 -15 -13 15 -21 -11
-24 -6 -3 -6 -5 22 -14 -3
-32 -10 -8 -8 -7 17 -19 -6
-20 -10 -6 -9 -8 14 -22 -6
-25 -5 1 -2 -3 20 -16 0
-26 -5 4 4 4 25 -10 6
-35 -7 4 6 4 25 -9 8
-15 -21 -4 -6 -6 14 -20 -2
40 -13 -20 -20 -19 2 -30 -15
41 -27 -32 -32 -28 -7 -40 -25
10 -33 -28 -28 -23 -3 -35 -20
-13 -30 -21 -23 -17 2 -30 -14
-18 -22 -14 -17 -14 7 -23 -8
22 -9 -15 -19 -16 6 -26 -10
10 -14 -18 -17 -16 6 -26 -12
-15 -16 -1 -3 -1 21 -12 2
-13 -13 -1 -2 -2 19 -14 2
-2 -13 -4 -7 -7 16 -16 1
-14 -25 -9 -12 -11 11 -18 -1
8 -28 -16 -19 -20 2 -25 -8
23 -18 -13 -15 -17 5 -24 -6
-4 -23 -12 -11 -13 6 -21 -3
-14 -26 -16 -16 -17 1 -28 -11
3 -29 -22 -21 -22 -6 -34 -18
-9 -30 -22 -17 -20 -6 -33 -16
-11 -27 -18 -14 -17 -1 -30 -13
10 -12 -14 -10 -10 4 -25 -7
30 -9 -18 -13 -14 1 -27 -10
46 -15 -27 -22 -20 -5 -33 -18
15 -28 -22 -18 -14 1 -28 -13
-29 -26 -6 -2 0 14 -13 1
-27 -17 -3 -1 3 16 -11 4
-26 -12 -6 -3 0 13 -13 3
-2 -7 -6 -5 -4 7 -17 -1
9 -6 -12 -7 -10 3 -21 -6
-16 -10 -10 -4 -9 4 -18 -4
-14 -9 -9 -5 -9 3 -20 -5
20 -3 -11 -9 -12 0 -22 -9
17 -13 -20 -19 -19 -7 -30 -17
-9 -25 -9 -13 -10 0 -21 -9
-24 -19 -2 -8 -4 6 -14 -2
-11 -20 -5 -12 -8 4 -15 -5
-3 -8 2 -7 0 13 -8 2
15 3 4 -5 0 13 -5 3
25 -17 -23 -26 -24 -12 -29 -20
21 -20 -25 -22 -20 -10 -26 -18
39 -1 -16 -13 -13 -3 -18 -10
19 -13 -16 -12 -14 -3 -17 -10
-7 -17 -9 -7 -8 0 -12 -6
-19 -26 -4 -6 -4 1 -11 -6
-2 -22 -8 -11 -10 -5 -19 -12
14 -10 -9 -9 -9 -2 -18 -10
17 -8 -10 -7 -8 1 -18 -9
0 -9 0 7 5 12 -8 -2
4 -4 3 15 11 13 -6 -2
16 -4 2 21 17 18 -3 -1
5 5 12 37 36 38 15 16
-1 10 17 49 53 55 32 31
16 19 13 57 61 64 43 41
18 53 32 86 95 98 77 73
20 63 29 94 107 108 88 84
45 74 22 98 116 117 98 93
57 87 17 106 130 132 113 108
71 113 25 123 156 163 145 140
88 147 27 135 179 192 174 169
108 168 23 140 198 219 204 199
135 196 17 145 213 243 230 226
145 206 6 138 213 249 240 239
147 209 0 118 197 238 229 232
117 205 9 108 184 225 217 224
109 197 6 88 153 192 185 194
80 176 9 77 133 164 157 167
39 172 26 74 123 149 141 152
30 151 25 47 87 113 104 117
11 110 13 12 42 70 59 74
-4 70 2 -18 3 34 23 40
5 41 -6 -47 -34 -2 -11 6
-1 25 -3 -59 -51 -18 -26 -8
-20 0 -12 -70 -67 -34 -41 -24
-12 -16 -24 -78 -73 -46 -52 -35
-22 -13 -16 -68 -63 -40 -46 -32
-18 -8 -10 -56 -52 -35 -39 -27
6 11 -2 -40 -37 -24 -29 -18
6 16 1 -28 -24 -17 -22 -11
16 22 3 -18 -17 -10 -17 -9
25 20 4 -10 -9 -5 -12 -7
31 15 7 -6 -6 -4 -11 -8
24 -8 -5 -11 -10 -8 -16 -15
1 -15 -6 -6 -6 -5 -14 -12
26 -3 2 -6 -4 -1 -7 -8
38 6 1 -7 -8 -3 -9 -10
38 3 -8 -12 -14 -9 -14 -14
35 8 -5 -8 -11 -8 -13 -12
22 7 -1 -3 -7 -7 -11 -11
-3 -9 -8 -7 -14 -16 -19 -19
2 -12 -8 -3 -11 -13 -16 -16
16 -6 -9 -4 -13 -14 -16 -17
4 -16 -4 -3 -8 -10 -12 -16
2 -21 -4 -1 -8 -11 -13 -16
2 -19 0 3 -2 -5 -8 -11
0 -19 -3 4 0 -6 -8 -10
-9 -20 -4 3 0 -6 -9 -13
-3 -11 -3 3 -1 -5 -8 -12
0 -8 0 5 -2 -6 -6 -12
-6 -12 -7 -1 -11 -15 -14 -19
15 -5 -5 1 -10 -14 -12 -17
8 -5 -1 8 -4 -9 -6 -12
28 -9 -7 1 -8 -15 -11 -20
31 -7 0 5 -2 -10 -6 -15
26 -11 2 8 -2 -8 -5 -14
61 -9 -11 -4 -14 -22 -18 -26
40 -16 -11 -2 -13 -20 -14 -22
22 -8 -4 7 -7 -14 -8 -14
12 -14 -3 3 -9 -18 -9 -16
8 -12 -2 6 -6 -15 -9 -17
24 -6 -1 10 -1 -12 -5 -15
41 -3 -3 12 -2 -13 -5 -16
28 -6 -2 9 -3 -14 -2 -15
21 -15 -4 2 -6 -19 -6 -18
37 -10 2 5 -3 -15 -1 -13
31 -9 1 5 -4 -17 -2 -12
18 -19 -1 3 -5 -21 -2 -13
17 -19 -5 2 -8 -26 -6 -16
36 -8 -3 5 -8 -24 -5 -15
40 -4 -4 4 -8 -23 -5 -15
30 -9 -4 6 -6 -20 -1 -12
11 -18 -6 5 -5 -19 -1 -14
23 -20 -8 1 -6 -19 -2 -16
12 -14 0 7 -1 -11 6 -8
-18 -15 9 15 11 2 19 4
-18 -15 5 12 8 -1 15 1
28 -16 -13 -2 -6 -15 2 -14
46 -16 -18 -5 -11 -16 -3 -18
54 -14 -14 -5 -11 -17 -5 -19
33 -11 -4 2 -6 -12 0 -14
31 -14 -5 2 -7 -13 0 -14
30 -10 -1 6 -6 -12 0 -13
33 -11 -1 6 -3 -9 2 -11
36 -12 -5 3 -7 -9 0 -14
43 -15 -8 -2 -9 -12 -3 -18
57 -8 -7 -3 -9 -10 -3 -19
31 -10 -1 6 0 -2 6 -11
9 -22 -4 5 -1 -3 5 -12
22 -18 -5 5 2 -1 6 -10
22 -3 2 10 5 7 12 -3
9 -14 5 9 4 6 13 -2
11 -18 3 8 2 3 10 -4
10 -15 9 11 4 5 12 -1
11 -23 3 6 -3 -1 5 -8
26 -20 -1 3 -3 -3 2 -11
51 -15 -9 -1 -6 -7 -2 -17
40 -10 -8 5 0 -2 3 -12
41 -10 -11 5 -2 -3 1 -15
44 -18 -13 0 -7 -7 -4 -18
50 -14 -9 1 -6 -6 -1 -15
32 -25 -13 -1 -10 -8 -3 -18
5 -32 -3 7 -1 -1 5 -11
14 -18 8 15 8 9 14 -2
29 -16 2 11 4 4 9 -7
37 -20 -4 6 -2 0 6 -11
28 -27 -8 2 -8 -6 1 -15
15 -22 0 8 -3 1 6 -9
9 -6 13 19 7 10 15 2
19 -17 -5 1 -9 -8 -2 -14
31 -13 -11 -2 -13 -10 -3 -15
19 -12 -2 7 -6 -2 5 -8
31 -14 0 4 -8 -6 1 -10
27 -22 -1 2 -14 -11 -5 -15
21 -23 -2 2 -14 -13 -6 -18
24 -24 0 1 -13 -13 -6 -18
19 -26 -7 -5 -19 -19 -13 -25
10 -35 -11 -11 -24 -27 -19 -30
13 -25 -3 -5 -18 -22 -13 -22
24 -12 2 -1 -16 -19 -9 -19
0 -19 1 -3 -16 -18 -10 -21
-29 -29 7 3 -12 -12 -4 -16
-16 -33 2 -4 -20 -18 -12 -23
26 -25 1 -9 -24 -20 -14 -26
24 -22 3 -8 -23 -19 -12 -25
35 -25 3 -11 -25 -21 -13 -25
38 -19 3 -11 -23 -19 -12 -23
9 -23 6 -10 -24 -17 -10 -20
-2 -29 2 -13 -30 -21 -14 -25
10 -29 -2 -20 -35 -27 -21 -29
2 -28 -3 -20 -38 -31 -25 -31
-4 -34 -2 -22 -40 -31 -26 -32
6 -33 -7 -28 -46 -39 -31 -36
-3 -46 -5 -31 -49 -42 -33 -39
-6 -49 -1 -33 -50 -42 -34 -40
15 -47 -7 -38 -53 -45 -36 -43
16 -45 -2 -35 -51 -44 -34 -40
0 -48 6 -34 -52 -44 -34 -39
-13 -49 5 -37 -57 -51 -40 -42
-26 -59 0 -44 -66 -57 -46 -47
-18 -49 0 -44 -68 -58 -48 -49
12 -45 -4 -48 -72 -61 -52 -52
33 -34 -2 -47 -72 -62 -52 -53
29 -39 -8 -53 -78 -69 -58 -58
17 -42 -7 -52 -75 -65 -54 -55
8 -50 -2 -50 -71 -59 -49 -50
-11 -63 -6 -56 -79 -65 -56 -59
-28 -70 -8 -56 -78 -62 -52 -59
-35 -62 -4 -52 -76 -58 -50 -52
-13 -60 -10 -58 -82 -64 -57 -57
12 -58 -19 -63 -91 -74 -66 -66
18 -60 -13 -63 -89 -73 -64 -67
-1 -64 -9 -60 -87 -69 -62 -63
-21 -68 -6 -53 -81 -63 -57 -58
-34 -67 -6 -50 -77 -61 -53 -55
-33 -73 -6 -51 -75 -59 -53 -53
-44 -59 9 -39 -65 -47 -40 -42
-47 -66 6 -42 -66 -49 -43 -45
-25 -64 -1 -49 -73 -55 -49 -51
-22 -64 -5 -50 -75 -57 -50 -52
6 -58 -11 -53 -80 -62 -53 -56
-2 -60 -8 -48 -74 -57 -48 -53
4 -54 -9 -45 -70 -54 -45 -52
9 -53 -4 -41 -63 -49 -42 -44
12 -39 4 -31 -54 -39 -32 -35
0 -57 -2 -37 -59 -43 -36 -42
-10 -66 -8 -42 -62 -47 -41 -46
-6 -63 -7 -39 -58 -41 -38 -44
11 -55 -13 -40 -56 -39 -37 -45
46 -35 -15 -38 -54 -36 -37 -43
50 -31 -9 -33 -51 -32 -33 -40
20 -36 2 -17 -34 -15 -17 -25
-16 -45 3 -11 -28 -8 -12 -19
-25 -55 6 -9 -26 -6 -10 -17
-34 -46 11 -1 -18 3 -2 -10
-22 -37 12 1 -15 7 1 -8
3 -32 6 -5 -18 3 -6 -13
4 -28 7 -2 -15 6 -2 -12
21 -15 6 -2 -15 6 -2 -12
20 -22 -5 -6 -20 1 -6 -17
35 -17 -11 -9 -24 -4 -11 -21
29 -28 -4 -4 -18 -1 -8 -16
33 -34 -6 -4 -17 -2 -12 -18
34 -33 -8 -4 -16 -1 -11 -18
-8 -31 5 14 -3 15 5 -3
22 -12 10 16 1 18 8 0
12 -14 9 15 2 18 6 -1
-24 -24 13 21 8 23 10 4
10 -13 4 18 0 16 5 -1
23 -9 5 21 2 17 5 -1
38 -5 1 16 -1 13 1 -5
28 -14 -1 14 -1 13 2 -4
21 -16 1 16 2 17 5 -1
33 -3 12 26 14 28 17 8
37 -5 9 24 11 25 13 5
31 -14 11 24 13 26 14 6
22 -10 11 24 13 24 13 6
18 -15 7 20 7 20 8 1
10 -15 5 22 7 18 8 2
4 -15 1 22 7 17 6 1
29 -4 -3 20 5 15 4 -1
25 -4 1 22 7 15 7 0
28 -15 -4 16 0 10 2 -6
48 -13 -3 16 1 12 2 -5
41 -14 2 18 4 15 6 -2
36 -16 5 22 8 19 10 2
22 -13 8 25 11 24 15 7
27 -9 7 23 10 23 15 4
28 -1 8 26 13 25 16 7
37 -2 3 25 8 19 10 1
49 2 0 22 4 15 5 -4
50 3 4 25 9 19 8 0
25 17 17 44 24 35 24 16
5 16 21 50 32 43 33 24
18 9 14 41 25 37 26 17
22 5 21 37 27 37 26 17
8 3 25 43 34 43 32 24
8 9 24 46 37 46 35 26
15 6 16 38 27 36 25 17
3 11 18 42 28 38 27 21
8 20 21 44 27 38 25 19
16 14 20 39 25 35 22 16
38 26 25 45 31 40 28 22
36 24 23 42 29 37 25 20
54 16 10 29 17 25 14 8
38 2 6 26 13 20 9 5
18 -1 10 30 18 26 15 11
31 4 9 30 18 29 17 11
34 4 3 23 12 22 8 5
7 -14 0 23 12 20 7 3
4 -13 4 25 14 22 8 6
6 -3 10 33 21 30 17 15
27 7 9 32 21 30 18 15
42 11 4 28 17 25 13 10
16 1 4 30 17 25 12 9
-5 -12 9 30 18 26 12 13
14 -4 6 27 15 23 9 9
23 -5 4 25 15 25 9 8
12 -9 0 22 10 20 3 3
10 -12 -2 21 7 17 1 0
36 1 -6 22 9 20 3 1
42 6 -3 26 13 24 7 5
14 -11 -1 26 11 21 7 5
12 -19 0 23 10 19 3 2
30 -9 2 23 10 16 3 3
22 -21 -3 16 6 9 -2 -2
18 -17 -5 15 3 7 -5 -3
15 -12 -6 15 -2 4 -7 -4
7 -12 -3 19 2 7 -5 -1
-1 -12 1 24 7 11 0 4
-12 -24 -2 21 3 6 -5 -2
18 -20 -8 16 -1 2 -8 -6
22 -25 -18 9 -8 -5 -14 -12
-8 -33 -6 15 0 4 -6 -5
-3 -28 -1 14 -1 3 -6 -5
7 -23 -1 15 1 5 -5 -3
-35 -27 4 23 9 12 2 5
-11 -24 -3 12 -3 -1 -9 -8
29 -12 -9 7 -6 -5 -13 -12
14 -9 -1 15 1 3 -4 -4
10 -7 1 16 0 3 -3 -3
16 -16 1 14 -2 2 -5 -3
22 -7 4 17 2 5 0 1
-7 -15 6 22 6 9 4 5
-3 -21 3 17 0 5 0 -2
-5 -19 9 20 6 8 6 3
-3 -15 11 21 9 11 6 6
5 -16 6 19 3 4 1 1
10 -27 -8 6 -13 -13 -14 -14
20 -22 -9 7 -11 -11 -13 -14
4 -15 -1 16 -3 -3 -6 -7
4 -19 4 20 -1 -2 -3 -5
19 -15 0 16 -4 -4 -6 -4
10 -23 -4 12 -7 -6 -7 -5
2 -22 3 12 -3 -3 -4 -3
-8 -27 5 12 -1 -2 -2 0
-13 -26 7 14 2 2 0 2
-9 -22 10 16 4 5 4 3
-22 -20 13 19 6 8 7 5
-35 -28 11 19 4 8 5 4
-21 -24 8 17 0 3 1 0
-9 -19 9 16 0 2 1 1
-20 -20 11 18 3 5 3 3
-7 -9 13 19 8 10 6 7
-12 -26 3 9 -4 -1 -3 -5
-12 -27 10 14 4 6 3 1
-3 -24 8 13 0 4 2 -2
3 -28 2 7 -7 -1 -3 -6
13 -16 -1 8 -4 -1 -3 -6
-2 -22 -4 3 -11 -8 -11 -12
7 -17 2 7 -9 -6 -6 -10
20 -9 4 12 -4 0 -1 -5
8 -14 4 11 -4 -2 -3 -6
0 -17 9 15 3 6 5 1
-5 -21 4 14 0 4 4 0
-2 -29 1 7 -4 0 0 -4
9 -28 -3 5 -7 -4 -4 -9
-3 -30 1 7 -4 -3 -1 -6
-16 -29 7 14 0 0 3 -2
-27 -29 9 16 2 3 5 0
-36 -29 6 17 0 0 4 -1
-23 -21 10 20 3 3 8 2
-5 -19 2 16 -4 -3 3 -4
-1 -24 -3 13 -4 -6 3 -4
-3 -17 6 17 4 0 9 3
-9 -21 11 15 7 0 10 4
-10 -11 22 26 15 11 20 12
-22 -7 27 37 23 16 26 18
-10 -6 22 37 22 11 19 10
0 -7 21 40 25 13 19 9
2 11 29 59 43 32 37 25
-10 14 34 73 60 50 56 43
4 30 39 90 81 70 77 61
18 44 39 102 97 85 88 74
37 54 38 108 108 97 100 82
44 63 42 120 125 114 117 99
45 81 40 132 143 133 137 118
53 96 32 137 157 151 155 137
59 111 26 139 173 170 177 159
82 143 28 147 194 199 209 194
112 174 25 152 212 220 233 220
132 192 19 146 212 227 243 231
126 190 12 130 197 215 234 224
136 189 6 103 166 187 207 203
112 179 13 90 144 166 188 184
72 161 18 84 132 150 170 168
36 154 27 74 115 131 151 149
13 132 31 53 87 102 122 119
-5 91 17 16 42 55 76 75
-1 53 -1 -21 -1 11 31 33
-7 23 -9 -47 -33 -21 2 3
-3 3 -12 -67 -58 -45 -21 -18
-15 -8 -8 -71 -63 -50 -26 -24
-43 -10 10 -53 -43 -32 -8 -9
-33 -5 14 -44 -33 -25 -3 -6
-9 4 18 -33 -21 -14 5 1
-31 -1 16 -25 -14 -10 9 6
-42 -3 18 -18 -8 -4 13 8
-25 -1 18 -16 -5 1 8 6
8 8 15 -11 -3 4 -2 4
3 -3 8 -12 -5 -1 -13 -3
-7 -7 10 -7 2 4 -10 1
6 3 16 2 10 11 -2 5
-20 -10 16 3 10 12 1 7
-31 -22 12 -1 8 10 -2 5
-28 -21 16 -2 11 13 0 8
-33 -21 14 -4 12 12 1 4
-36 -21 8 -8 8 6 -5 -1
-15 -13 6 -12 5 -1 -8 -4
-4 -4 12 -9 8 -1 -4 1
10 10 13 -6 7 -1 -2 0
-8 1 11 -3 8 0 1 3
-14 -8 5 -5 6 -3 -2 -1
-1 -15 4 -11 1 -9 -7 -7
-6 -23 4 -12 2 -8 -7 -7
-24 -20 8 -4 11 2 4 3
-24 -13 14 -2 14 6 7 6
-8 -6 16 -5 11 5 6 3
1 -12 1 -18 -2 -7 -7 -11
-5 -14 4 -15 1 -6 -6 -11
-1 -7 7 -11 5 -6 -5 -9
-18 -11 10 -8 7 -3 -3 -6
-12 -9 15 -5 10 0 1 -2
-16 -6 18 2 15 6 9 4
-27 -11 21 2 16 8 10 5
7 -1 18 -2 15 8 10 5
34 10 15 -5 13 3 7 1
-2 -29 -2 -22 -7 -19 -14 -17
7 -21 3 -18 -3 -16 -10 -14
19 -14 4 -14 -1 -14 -7 -12
6 -13 2 -15 -3 -16 -8 -13
-2 -12 -1 -14 -3 -17 -7 -12
-18 -13 5 -6 3 -12 -1 -5
-22 -8 16 4 15 -1 11 6
-2 1 14 2 16 1 12 5
1 -18 4 -10 1 -11 0 -5
7 -23 -1 -13 -5 -15 -3 -11
-7 -20 3 -10 3 -11 3 -4
-23 -20 5 -7 6 -8 6 -2
-31 -13 14 -1 12 -4 12 4
-31 -3 20 7 18 4 20 9
-24 4 18 11 20 6 22 12
-37 -3 14 11 17 4 20 11
-20 -15 8 0 8 -4 10 1
12 -7 3 -7 2 -10 3 -7
8 -15 -6 -15 -2 -15 -2 -11
24 -3 0 -11 4 -10 4 -5
22 4 4 -6 10 -7 7 -1
-4 -8 0 -9 6 -10 3 -4
-19 -6 8 -3 12 -5 9 3
-25 -1 10 0 14 -4 10 5
-9 -8 0 -8 5 -13 2 -4
-10 -6 5 -3 9 -10 3 -1
-31 -6 16 6 21 0 13 8
-21 -7 8 2 19 -1 10 5
-6 -11 -4 -9 8 -7 2 -3
10 -9 -7 -15 1 -11 -4 -9
18 -6 -4 -15 2 -11 -3 -9
1 -8 0 -12 5 -8 -2 -7
7 -6 2 -12 6 -7 -3 -7
20 -2 -1 -11 3 -10 -5 -10
13 -12 -7 -13 2 -14 -9 -13
-3 -15 -1 -7 10 -6 -3 -6
-12 -8 11 3 23 5 8 5
11 5 8 1 21 6 8 4
-8 3 7 2 21 7 9 6
-22 1 6 4 24 8 9 7
-8 5 6 3 23 6 8 5
-23 -8 1 -2 16 0 0 0
-30 -18 3 -2 15 0 0 -1
-28 -18 1 -6 11 -5 -4 -8
-7 -16 0 -12 5 -11 -10 -12
12 -13 -2 -12 5 -13 -10 -9
26 1 2 -4 14 -5 -2 -2
-8 0 8 2 20 3 5 4
-29 -6 15 4 24 7 10 9
1 4 10 -1 18 -1 3 5
-4 -2 2 -7 8 -8 -6 -3
-31 -14 4 -9 7 -9 -8 -4
-19 -9 1 -10 5 -11 -9 -5
-3 -6 -6 -16 -3 -18 -15 -12
9 -5 -4 -18 -5 -21 -18 -15
-1 -10 -3 -18 -3 -20 -16 -14
-22 -13 5 -9 9 -6 -5 -1
-35 -9 11 -4 18 3 4 7
-48 -19 10 -9 14 -1 0 2
-25 -11 7 -16 8 -8 -7 -4
-12 -7 1 -20 3 -14 -11 -7
0 -2 2 -22 1 -18 -13 -10
0 1 5 -24 -3 -21 -15 -12
-36 -11 2 -24 -5 -23 -16 -12
-46 -20 0 -28 -6 -26 -19 -15
-31 -16 2 -28 -7 -29 -20 -17
2 -12 0 -31 -10 -31 -22 -19
0 -19 -4 -36 -14 -35 -27 -24
-37 -30 1 -34 -12 -29 -22 -20
-38 -31 0 -42 -17 -31 -26 -23
-9 -22 0 -47 -24 -36 -29 -27
-3 -19 -2 -49 -27 -39 -33 -29
-26 -28 -2 -45 -25 -38 -31 -26
-27 -18 0 -40 -23 -35 -28 -24
-12 -9 6 -38 -20 -32 -25 -21
-24 -16 6 -39 -23 -36 -29 -26
-27 -25 -2 -45 -29 -42 -34 -31
-28 -34 -10 -53 -34 -47 -38 -36
-24 -34 -2 -57 -35 -47 -38 -34
-40 -35 7 -55 -34 -46 -35 -29
-49 -36 11 -53 -32 -43 -33 -27
-34 -29 7 -58 -37 -48 -37 -31
-33 -31 4 -60 -41 -52 -42 -34
-51 -44 -4 -67 -52 -63 -52 -46
-47 -46 -1 -71 -56 -64 -53 -48
-38 -38 9 -66 -48 -57 -46 -43
-51 -32 13 -58 -40 -48 -37 -34
-51 -46 -4 -69 -53 -63 -52 -46
-40 -71 -23 -88 -69 -81 -71 -65
-33 -60 -13 -81 -63 -74 -62 -58
1 -48 -14 -82 -64 -76 -63 -58
-26 -55 -12 -78 -61 -74 -58 -55
-81 -57 4 -64 -47 -60 -46 -42
-91 -59 9 -61 -47 -60 -45 -42
-87 -50 12 -55 -43 -56 -41 -38
-58 -38 8 -57 -42 -58 -41 -38
-48 -45 0 -64 -50 -65 -50 -45
-66 -56 -1 -66 -53 -68 -54 -49
-53 -58 -6 -69 -53 -70 -56 -51
-40 -48 -7 -67 -52 -70 -54 -49
-48 -51 -4 -65 -51 -69 -55 -49
-55 -50 2 -61 -47 -67 -49 -45
-47 -42 4 -54 -41 -63 -45 -40
-31 -43 -4 -59 -47 -68 -49 -45
-29 -48 -2 -57 -43 -63 -45 -43
-8 -48 -10 -60 -45 -67 -50 -48
-8 -52 -10 -59 -44 -67 -50 -47
-16 -41 1 -45 -30 -53 -35 -34
-43 -41 3 -39 -22 -45 -29 -26
-60 -51 -1 -39 -27 -45 -29 -27
-26 -37 -1 -39 -27 -44 -28 -25
0 -29 -5 -39 -27 -45 -29 -28
-21 -30 2 -30 -19 -38 -22 -21
-53 -38 8 -21 -13 -32 -16 -14
-33 -30 8 -19 -8 -27 -12 -11
-23 -28 12 -16 -5 -25 -9 -10
-29 -27 20 -11 -3 -22 -6 -6
-29 -32 13 -14 -5 -27 -11 -11
6 -25 -2 -22 -12 -35 -21 -20
20 -26 -10 -28 -16 -38 -25 -25
-6 -28 -2 -21 -9 -30 -15 -17
-19 -12 12 -8 3 -17 -3 -6
-12 -8 6 -6 4 -16 -3 -6
-10 0 13 5 14 -5 6 3
-15 -14 8 -2 8 -11 -3 -5
1 -16 5 -3 8 -11 -2 -6
-5 -17 8 0 11 -6 2 -3
-13 -17 14 6 19 2 9 4
-1 -6 19 14 24 10 16 10
-4 -5 17 10 21 9 12 6
6 1 15 9 20 7 10 3
29 -2 -2 -2 7 -6 -4 -8
22 -11 -10 -5 5 -9 -7 -11
18 5 7 9 19 5 8 1
-5 6 21 20 27 15 16 10
4 6 24 22 30 17 19 10
10 6 25 25 32 17 19 10
-5 -5 22 26 30 17 16 11
-6 -16 17 22 28 14 14 10
0 -15 14 17 28 13 12 7
21 1 17 17 29 15 15 9
4 7 23 25 35 21 22 16
1 9 17 27 35 19 19 15
22 19 19 31 38 18 17 16
3 6 18 33 38 18 18 17
21 4 12 26 31 13 13 11
36 6 12 26 32 15 16 13
-2 -9 6 24 30 12 14 12
-6 -13 9 23 30 13 14 11
-1 -11 14 26 34 19 18 13
3 -11 8 22 29 17 14 11
23 -8 4 19 23 13 10 6
32 -3 0 19 22 14 9 6
34 -5 -8 15 18 8 5 1
26 -8 -5 18 23 14 7 5
11 -6 0 24 27 18 11 9
6 -12 -3 18 23 14 6 5
18 -8 -3 16 22 14 6 3
10 -4 1 25 25 21 11 8
2 -9 7 29 29 24 14 10
-9 -19 4 26 26 18 9 7
-23 -17 7 32 30 23 12 11
-9 -11 9 31 28 22 10 9
9 -2 9 27 24 18 7 7
7 -8 0 22 19 14 4 4
12 -18 -6 17 12 11 -1 -3
22 -19 -12 13 8 6 -8 -10
31 -17 -13 11 9 5 -8 -9
58 0 -11 16 14 11 -4 -2
41 -8 -10 15 12 8 -7 -4
9 -27 -13 8 10 3 -11 -10
21 -18 -8 12 11 5 -8 -7
20 -25 -15 10 4 -1 -14 -11
15 -29 -15 9 3 -1 -13 -10
23 -23 -7 13 6 1 -8 -7
25 -26 -9 11 5 -1 -9 -9
30 -26 -14 9 2 -4 -12 -11
23 -25 -13 5 -3 -7 -14 -13
24 -25 -7 8 3 1 -9 -8
12 -25 -6 11 9 7 -4 -4
2 -34 -9 8 8 7 -5 -5
15 -31 -7 7 5 5 -6 -5
16 -30 -11 5 0 2 -10 -11
-2 -33 -9 4 2 4 -7 -9
-4 -19 5 18 16 20 8 6
-19 -20 11 26 24 28 16 15
-4 -31 -3 14 12 17 4 3
12 -25 -4 8 8 11 0 -2
16 -24 3 6 7 12 -3 -2
33 -18 -1 3 3 7 -7 -7
28 -15 -4 3 1 7 -8 -9
21 -15 -2 4 1 9 -5 -7
44 -23 -15 -10 -12 -4 -18 -19
31 -24 -11 -4 -6 -1 -15 -16
3 -25 1 10 6 11 -3 -2
0 -41 -10 2 -5 1 -13 -13
5 -39 -14 1 -4 3 -13 -13
-4 -37 -4 6 2 10 -6 -7
0 -32 -2 3 3 9 -7 -7
14 -30 -3 -2 -3 5 -13 -12
9 -38 -11 -10 -12 -4 -22 -21
16 -31 -12 -9 -10 -4 -21 -21
16 -36 -16 -11 -12 -5 -23 -22
25 -33 -17 -9 -13 -5 -22 -23
26 -41 -21 -13 -16 -9 -25 -25
15 -45 -16 -11 -13 -8 -23 -22
6 -39 -5 -3 -6 -1 -16 -16
9 -39 0 -1 -2 4 -13 -13
12 -38 -1 0 2 7 -11 -10
12 -34 0 0 2 6 -13 -10
15 -30 -2 -1 -1 4 -15 -14
9 -26 -4 -2 -3 3 -18 -17
-2 -32 -7 -3 -6 2 -20 -18
4 -32 -5 0 -6 3 -19 -16
8 -31 -5 3 -3 7 -16 -14
2 -26 2 7 4 13 -10 -8
-3 -30 2 7 3 12 -11 -8
-17 -38 5 9 7 16 -8 -5
-2 -37 4 6 7 17 -8 -7
4 -35 -1 2 2 12 -12 -9
8 -31 -4 0 -2 9 -16 -13
25 -23 -8 -2 -6 6 -19 -16
9 -22 -7 4 -3 9 -15 -13
6 -23 -6 -1 -7 4 -20 -17
-11 -25 2 6 -1 9 -15 -12
10 -15 -4 6 -1 9 -16 -12
37 -17 -19 -7 -11 -1 -25 -23
39 -21 -16 -10 -12 -1 -27 -23
8 -30 -7 -6 -8 3 -24 -19
2 -26 -1 0 -4 7 -20 -15
7 -13 4 8 1 14 -13 -9
9 -15 0 6 -1 10 -15 -11
23 -12 -8 1 -6 2 -23 -19
23 -2 1 11 1 7 -18 -15
10 -3 5 21 8 13 -12 -10
7 4 13 34 24 27 1 0
17 13 17 46 38 39 14 9
20 11 11 51 44 43 17 19
18 23 20 69 68 64 37 38
38 38 21 84 88 80 53 51
34 59 25 103 106 97 72 68
47 77 31 113 122 114 88 84
68 84 25 115 127 121 98 94
89 114 26 128 148 147 125 121
117 158 32 147 179 182 163 159
125 171 19 143 187 196 179 176
141 179 2 134 191 204 188 187
149 186 -4 124 190 210 195 197
121 183 -2 112 178 203 192 196
108 184 5 99 162 187 177 184
105 174 -2 82 136 159 151 160
83 157 -4 66 114 133 123 136
59 143 1 51 92 110 103 116
50 105 -7 16 46 65 59 73
37 64 -15 -17 3 21 13 30
23 45 -11 -35 -23 -5 -10 7
-1 17 -18 -55 -51 -34 -37 -19
-5 -4 -24 -71 -68 -52 -55 -37
-25 -5 -10 -57 -57 -43 -46 -29
-23 2 -7 -49 -49 -41 -43 -29
-34 2 -8 -40 -40 -34 -38 -23
-28 21 8 -21 -19 -14 -19 -6
-27 32 15 -8 -10 -6 -10 2
-15 35 17 2 -4 0 -4 5
3 29 7 -3 -9 -7 -11 -3
20 10 -12 -17 -25 -26 -30 -22
32 8 -16 -13 -23 -28 -31 -23
47 13 -20 -15 -22 -26 -30 -23
34 -2 -23 -20 -26 -30 -34 -28
8 -3 -13 -12 -20 -24 -28 -25
-14 7 -4 -2 -9 -13 -18 -13
-19 14 0 2 -4 -8 -12 -6
-7 9 -9 -6 -14 -18 -20 -15
-26 -9 -19 -15 -25 -28 -30 -24
-9 0 -17 -11 -19 -24 -24 -21
29 19 -12 -7 -15 -20 -20 -18
16 9 -16 -8 -17 -24 -24 -21
-21 -2 -10 -2 -10 -21 -19 -14
-18 -4 -6 0 -8 -21 -20 -15
-12 0 -3 2 -4 -18 -15 -12
-9 -2 -12 -7 -14 -27 -25 -21
-7 -4 -12 -11 -17 -28 -25 -21
8 7 -6 -6 -11 -25 -20 -17
16 17 -8 -2 -11 -25 -18 -15
22 18 -9 2 -9 -23 -15 -13
21 10 -10 -5 -14 -27 -21 -18
33 8 -8 -8 -18 -30 -23 -20
8 -3 -10 -8 -16 -28 -21 -19
-9 -3 -7 -2 -9 -21 -14 -14
-11 0 -8 -1 -8 -21 -14 -13
-27 1 -5 3 -7 -19 -12 -11
-14 3 -10 -2 -11 -24 -17 -16
24 13 -12 -8 -17 -30 -21 -20
25 20 -13 -7 -16 -30 -21 -18
12 19 -9 -4 -13 -28 -17 -16
-10 19 -2 5 -6 -19 -8 -8
-25 11 -6 4 -9 -22 -11 -11
-4 9 -18 -5 -13 -27 -17 -18
19 14 -13 -2 -10 -22 -12 -14
0 9 -6 -1 -10 -20 -12 -14
-11 10 -3 1 -6 -15 -8 -11
-24 20 0 8 -1 -6 0 -5
-26 27 3 13 3 -2 4 1
22 27 -10 -1 -9 -17 -12 -13
29 21 -22 -12 -23 -31 -24 -26
17 16 -19 -9 -21 -26 -19 -21
20 27 -13 -2 -11 -16 -9 -14
8 22 -8 -1 -9 -13 -7 -12
4 7 -13 -6 -13 -18 -10 -15
5 15 -14 -4 -11 -16 -9 -13
-6 14 -15 -3 -8 -15 -7 -12
6 15 -11 -3 -8 -14 -7 -11
19 20 -12 -5 -10 -18 -9 -11
6 16 -10 -5 -11 -18 -7 -9
-1 15 -19 -6 -17 -22 -11 -12
-6 23 -17 5 -7 -15 -2 -2
-9 28 -10 9 -2 -11 2 1
15 23 -15 -3 -13 -20 -9 -11
26 20 -15 -7 -13 -19 -10 -12
15 22 -10 -3 -7 -16 -4 -7
-6 25 -2 6 1 -6 4 2
-17 19 -3 1 -5 -10 0 -2
-31 16 -6 0 -6 -14 -2 -4
-47 21 1 11 3 -4 6 5
-43 20 -3 10 2 -5 4 4
-18 23 -10 2 -7 -14 -2 -2
-15 26 -5 4 -6 -13 -1 0
-9 27 -2 8 -2 -10 2 2
2 24 -12 0 -9 -16 -4 -4
14 23 -18 -4 -9 -19 -7 -7
29 31 -19 -7 -12 -22 -11 -10
18 24 -18 -12 -14 -23 -12 -13
15 24 -13 -9 -14 -21 -8 -8
11 29 -14 -7 -14 -21 -8 -8
0 24 -11 -3 -10 -20 -5 -6
-8 27 -11 -2 -6 -15 -1 -3
-26 26 -9 2 -6 -14 1 1
-11 23 -12 -5 -12 -19 -4 -6
-6 26 -18 -9 -16 -24 -8 -10
-9 32 -12 -7 -11 -20 -4 -5
-8 33 -9 -4 -6 -14 1 -1
-7 26 -14 -8 -10 -19 -3 -4
4 34 -13 -7 -11 -19 -3 -4
1 37 -11 -5 -10 -16 0 -2
-15 28 -12 -7 -12 -17 0 -4
-7 23 -17 -13 -17 -21 -4 -7
-5 22 -18 -16 -19 -24 -7 -6
-5 24 -13 -17 -18 -25 -7 -7
-13 30 -4 -13 -11 -17 1 -1
-8 29 -8 -16 -17 -24 -5 -4
-7 35 -5 -14 -15 -21 -2 -2
-33 29 -4 -13 -15 -20 -1 -1
-54 14 -10 -20 -21 -28 -7 -6
-47 21 -4 -15 -15 -22 -1 0
-32 38 1 -9 -8 -15 7 9
-39 23 -4 -18 -19 -25 -3 -1
-47 17 -2 -17 -19 -25 -1 -1
-37 20 -6 -22 -23 -31 -5 -7
-24 10 -17 -35 -35 -43 -18 -18
-4 20 -13 -35 -37 -41 -17 -15
0 18 -27 -46 -50 -53 -28 -24
-14 15 -26 -44 -48 -52 -26 -22
-16 26 -12 -38 -44 -48 -21 -16
-19 23 -20 -44 -52 -57 -28 -24
-13 18 -27 -51 -59 -61 -33 -28
-4 25 -17 -49 -55 -58 -29 -23
-43 17 -7 -37 -44 -47 -18 -11
-40 17 -8 -35 -42 -43 -15 -11
-44 2 -18 -45 -53 -54 -25 -19
-38 1 -19 -53 -60 -61 -31 -26
-35 23 -7 -43 -49 -51 -21 -15
-32 26 -5 -48 -51 -54 -22 -16
-38 18 -10 -55 -61 -61 -29 -22
-64 5 -14 -60 -69 -67 -34 -28
-81 -2 -13 -61 -70 -67 -35 -27
-53 8 -9 -60 -66 -65 -32 -25
-26 15 -9 -62 -67 -67 -34 -27
-40 1 -9 -68 -74 -72 -39 -32
-55 -16 -12 -73 -81 -79 -45 -40
-72 -22 -12 -73 -78 -77 -43 -37
-73 -25 -16 -73 -76 -76 -42 -35
-65 -18 -15 -71 -76 -76 -42 -35
-57 -12 -18 -71 -78 -77 -43 -36
-51 -9 -20 -71 -82 -79 -46 -38
-51 -9 -18 -69 -83 -79 -44 -37
-45 -11 -16 -68 -81 -77 -43 -36
-40 -15 -24 -78 -89 -87 -51 -45
-36 -15 -24 -78 -83 -82 -47 -41
-49 -24 -26 -78 -81 -81 -47 -41
-72 -31 -21 -75 -79 -79 -46 -40
-64 -14 -8 -63 -67 -65 -33 -28
-60 -9 -7 -60 -65 -62 -31 -26
-40 -5 -18 -66 -74 -70 -38 -34
-23 8 -14 -60 -68 -66 -34 -29
-37 10 -6 -53 -61 -59 -27 -21
-51 5 0 -49 -57 -57 -24 -17
-36 6 -4 -50 -58 -61 -26 -19
-15 16 -6 -48 -56 -59 -24 -19
-21 10 -11 -49 -58 -61 -27 -22
-47 -6 -15 -53 -59 -63 -29 -24
-54 -16 -17 -53 -58 -63 -29 -23
-44 -11 -11 -46 -49 -53 -19 -14
-38 4 -5 -35 -40 -44 -9 -5
-35 10 -6 -30 -37 -41 -6 -2
-42 1 -14 -32 -42 -47 -12 -7
-44 1 -12 -34 -40 -44 -11 -6
-24 6 -9 -34 -38 -40 -9 -3
-3 6 -19 -39 -44 -46 -15 -8
-11 10 -19 -34 -41 -41 -12 -6
-38 4 -13 -26 -29 -31 -4 2
-22 12 -12 -28 -28 -30 -4 2
-3 23 -7 -22 -25 -25 1 7
-11 21 -7 -19 -25 -24 2 8
-26 7 -10 -23 -29 -28 -2 4
-20 14 1 -14 -19 -18 7 13
-9 20 7 -7 -12 -10 15 20
15 23 -1 -13 -17 -16 8 13
11 19 -3 -16 -18 -16 7 11
-17 8 -7 -18 -20 -20 2 7
-7 2 -12 -22 -21 -24 -1 2
7 15 -9 -16 -14 -17 4 8
5 28 1 -3 -2 -5 17 19
-21 24 10 8 8 4 26 28
-56 10 6 6 5 2 24 26
-69 18 14 16 16 13 36 36
-35 21 12 14 14 11 33 33
-24 18 4 7 7 6 27 28
-19 19 5 6 9 9 30 31
-3 23 1 3 5 5 25 27
4 31 1 4 7 6 26 27
-5 36 3 7 10 9 29 29
-12 27 -7 0 3 0 21 21
7 23 -20 -8 -8 -13 9 9
3 27 -9 0 3 -7 18 17
-12 20 -6 2 3 -8 18 18
-7 4 -9 -4 -2 -12 14 14
-6 -4 -9 -6 -3 -13 13 12
-7 6 0 4 6 -4 21 22
-4 17 7 11 13 3 27 29
-1 16 4 6 10 0 23 25
21 26 2 3 10 -2 21 22
15 37 11 11 18 6 30 30
-1 41 10 17 21 9 35 34
-1 39 3 15 17 5 31 30
18 39 3 11 14 1 26 27
30 33 2 8 11 -1 23 23
24 28 7 11 16 4 27 25
5 27 9 18 22 10 33 31
23 40 14 21 27 15 37 36
1 35 22 24 30 19 41 39
-43 25 24 26 31 22 45 42
-6 30 15 18 23 14 37 35
10 33 12 16 16 8 32 32
-9 31 14 19 18 10 34 35
10 31 4 10 12 4 26 28
17 30 -1 9 10 3 25 28
-1 26 9 18 21 13 33 36
-5 28 19 27 30 21 42 43
-6 20 15 22 26 18 36 37
-11 -2 -2 6 11 4 19 20
-5 -2 -4 3 10 2 16 18
2 6 -3 6 13 5 18 21
1 6 -4 4 10 2 14 18
17 19 -4 5 9 1 15 18
-1 18 0 11 15 7 20 25
-13 18 5 15 19 8 22 28
-6 18 1 13 17 3 18 23
6 25 8 15 22 8 23 28
28 32 6 11 19 3 21 26
43 17 -12 -8 0 -14 3 7
74 26 -15 -11 -2 -17 1 6
33 14 -12 -7 -1 -16 4 11
15 17 -2 1 6 -11 12 20
-5 12 3 6 7 -10 13 23
-7 14 3 8 8 -11 15 23
2 5 -3 1 4 -15 10 16
0 1 -3 2 3 -15 8 13
-10 -15 -9 -4 -1 -20 1 6
-7 -12 -11 -5 0 -18 2 4
-15 -8 -8 -3 5 -12 7 8
-31 -11 0 1 9 -5 13 15
-20 -7 0 -2 5 -6 13 15
-1 -4 -10 -9 -5 -14 5 8
13 -8 -18 -17 -15 -22 -4 0
24 -3 -12 -14 -15 -21 -3 3
2 -6 -7 -7 -7 -14 3 8
-11 -7 -4 -2 -1 -10 7 13
-11 -1 1 3 4 -5 12 16
-3 -5 -3 -2 0 -9 5 9
8 -10 -10 -8 -5 -14 -2 0
17 -6 -11 -7 -5 -13 -3 -1
16 -14 -11 -12 -8 -15 -5 -5
1 -16 -9 -11 -6 -13 -2 -2
10 -3 -3 -5 -2 -8 3 3
18 7 4 1 3 -2 10 10
-3 -7 3 1 1 -5 7 7
-20 -19 1 -1 0 -8 3 5
-30 -23 -1 -4 -2 -9 0 3
-17 -13 3 -3 1 -5 4 6
12 5 12 6 11 6 14 14
23 12 9 7 9 3 12 13
21 7 0 1 2 -1 7 6
11 0 -7 -5 -4 -8 -1 0
-4 -13 -12 -11 -10 -16 -9 -9
14 -15 -12 -12 -12 -19 -10 -12
12 -7 -2 -1 -2 -9 0 -1
5 -15 -1 -2 -3 -10 -2 -3
14 -15 -6 -6 -6 -14 -6 -8
36 -12 -8 -10 -10 -18 -10 -14
40 -12 -8 -12 -12 -18 -11 -15
17 -5 2 -1 0 -5 2 -4
4 -3 3 2 2 -3 4 -1
4 0 1 -3 -1 -6 3 -2
-5 6 9 -1 3 0 9 5
-42 -1 18 6 9 6 16 13
-30 -8 11 4 4 -1 10 9
3 -7 0 -3 -7 -12 -1 -4
7 -15 -6 -7 -9 -16 -6 -10
4 -16 -4 -3 -4 -12 -3 -7
-1 -21 1 -1 -1 -10 -4 -9
10 -22 -3 -5 -3 -14 -9 -16
4 -17 -1 -2 1 -12 -6 -12
-1 -13 -1 -1 0 -12 -6 -12
12 -12 -4 -6 -3 -15 -9 -15
5 -10 -2 -4 -1 -14 -6 -12
-1 -21 -4 -6 -5 -15 -8 -16
12 -12 1 -1 -2 -10 -3 -12
-8 -16 8 7 6 -3 5 -6
-29 -28 7 6 6 -5 4 -8
-27 -26 11 11 11 1 9 -3
-19 -22 6 9 9 -2 6 -5
-3 -16 3 8 7 -3 6 -6
2 -7 6 10 9 0 8 -4
17 0 5 6 8 -2 7 -7
27 -4 -4 -2 0 -10 0 -13
45 -3 -6 -3 -5 -14 -4 -15
21 -11 -5 -4 -8 -16 -6 -18
18 -14 -6 -6 -6 -18 -7 -20
26 9 10 10 12 0 8 -6
17 9 17 21 25 7 15 -1
12 6 17 29 30 9 15 0
20 32 32 53 55 32 38 20
-2 40 38 68 72 48 53 35
-20 26 31 66 73 50 53 34
-2 28 29 69 77 54 58 39
2 39 34 85 91 69 74 54
22 53 32 92 101 81 86 64
53 72 32 103 119 102 105 80
72 91 30 116 137 121 125 99
64 107 36 132 164 151 155 126
76 134 33 142 184 178 183 156
125 165 21 140 196 192 199 176
150 195 22 147 215 217 225 204
150 204 21 146 220 227 236 219
154 199 11 124 198 209 220 208
155 202 14 107 177 190 204 194
132 193 17 93 154 166 178 170
97 174 22 84 139 148 157 150
47 167 41 84 132 140 150 142
15 130 31 50 91 101 110 105
-8 75 10 5 38 50 60 56
-27 34 2 -25 -2 12 23 20
-26 10 -4 -48 -33 -19 -7 -8
-1 8 -6 -58 -47 -34 -24 -23
13 14 -4 -55 -47 -34 -25 -25
18 7 -5 -54 -47 -37 -29 -30
-31 -7 2 -43 -36 -32 -25 -26
-69 -8 15 -24 -17 -12 -7 -10
-17 9 15 -19 -13 -9 -5 -10
-6 23 17 -9 -2 0 3 -4
-22 23 17 -1 3 3 5 -1
-4 14 6 -7 -3 -5 -5 -10
-16 5 6 -3 -1 -4 -4 -11
-18 -7 4 -3 -1 -5 -8 -16
-23 -7 13 5 6 1 0 -10
-24 -2 20 15 15 8 6 -3
-9 -10 10 8 6 -2 -5 -14
0 -8 8 5 5 -2 -7 -16
4 -1 16 11 12 6 1 -9
22 -2 7 2 5 -3 -8 -15
25 7 4 0 4 -4 -10 -17
-1 -3 3 -4 1 -3 -10 -15
-5 -4 3 -4 -2 -8 -13 -17
22 7 1 -5 -3 -9 -15 -19
17 -4 -2 -6 -7 -12 -18 -23
-3 -21 -4 -6 -9 -14 -21 -26
8 -14 -1 -2 -3 -10 -18 -25
16 -17 2 -1 -1 -7 -16 -23
-7 -22 8 7 6 1 -8 -18
-13 -19 12 11 10 5 -7 -14
-1 -12 11 12 10 4 -8 -14
5 -12 8 8 9 2 -10 -17
4 -9 6 8 9 3 -9 -18
9 -4 5 5 9 3 -11 -18
15 -4 4 5 9 5 -8 -16
2 -18 2 3 4 1 -11 -19
-28 -28 3 3 3 3 -11 -19
-7 -6 16 14 19 20 5 -2
13 1 15 15 16 18 2 -1
-25 -9 18 19 19 21 3 -1
-45 -22 11 14 14 15 -7 -8
-24 -14 4 7 9 8 -13 -15
-1 -3 4 5 8 7 -15 -17
14 -6 -1 -3 -1 0 -24 -26
44 -1 -7 -7 -10 -9 -33 -35
26 -4 -7 -3 -7 -5 -28 -33
8 -9 -5 1 -3 -1 -26 -31
11 -10 -3 2 3 4 -21 -29
7 -8 5 8 10 13 -13 -20
14 -5 5 7 11 16 -14 -19
-3 -12 8 10 13 21 -9 -15
-23 -10 11 11 16 26 -6 -10
-13 3 12 13 16 27 -2 -7
-6 0 5 7 9 18 -9 -12
-7 3 2 9 8 15 -10 -13
7 8 0 11 7 12 -11 -13
20 9 2 11 9 10 -10 -11
0 -5 -2 9 9 4 -15 -12
-6 -15 -2 6 7 1 -16 -14
-4 -16 -1 3 8 3 -18 -14
14 -9 -7 -2 3 -2 -23 -22
18 -14 -10 -5 1 -4 -25 -26
11 -3 1 4 10 5 -16 -17
6 5 6 10 18 11 -11 -10
-1 -9 -2 5 8 3 -19 -19
-2 -6 0 6 9 3 -18 -18
4 0 3 8 11 8 -16 -15
15 9 5 10 15 13 -10 -9
38 9 -5 -1 3 3 -20 -19
30 -4 -11 -7 0 -2 -24 -22
13 -1 -8 1 8 6 -16 -14
-6 -2 -1 9 16 13 -8 -5
-22 -8 -1 9 16 11 -10 -5
2 5 2 11 19 13 -10 -5
11 1 -6 5 9 3 -21 -15
-31 -9 1 16 19 9 -13 -7
-33 -11 -2 14 15 5 -19 -13
11 -13 -15 -1 2 -7 -30 -25
16 -6 -16 -3 1 -6 -28 -25
11 -2 -16 -3 3 -3 -27 -23
14 7 -11 -1 6 2 -20 -17
-4 7 -7 3 10 7 -17 -13
-4 -6 -17 -5 1 -4 -27 -23
10 -1 -19 -5 1 -6 -29 -23
4 1 -17 -1 0 -5 -27 -22
9 -4 -16 -2 0 -6 -30 -24
-1 -12 -18 -3 -2 -9 -31 -26
-8 -8 -10 3 3 -2 -25 -20
-24 -5 -1 8 10 4 -20 -14
-11 11 4 11 17 10 -17 -10
-8 13 0 7 13 7 -19 -14
-29 7 -1 4 12 4 -21 -15
-36 7 0 3 11 2 -22 -14
-7 11 -3 2 11 2 -23 -15
16 22 -5 3 8 0 -25 -14
4 6 -11 -6 -2 -8 -32 -22
-18 -2 -3 -1 3 -2 -26 -18
-37 4 9 12 14 11 -13 -4
-40 1 6 6 11 9 -16 -7
-15 -3 -8 -9 -6 -9 -32 -22
7 -4 -18 -22 -21 -23 -47 -36
1 -5 -13 -23 -19 -21 -46 -32
0 -2 -12 -24 -21 -23 -45 -32
-2 -2 -11 -22 -20 -22 -45 -33
-13 -7 -10 -19 -20 -21 -44 -31
-37 -16 -13 -21 -21 -23 -46 -34
-33 -16 -14 -26 -22 -23 -45 -34
-38 -13 -6 -18 -16 -16 -38 -26
-48 -24 -11 -24 -24 -27 -46 -32
-27 -23 -16 -33 -30 -35 -54 -39
-1 -2 -17 -34 -32 -38 -56 -41
-6 -10 -20 -44 -38 -42 -64 -47
-26 -14 -19 -46 -42 -44 -66 -48
-17 -9 -25 -50 -51 -49 -72 -53
-23 -1 -13 -42 -42 -39 -62 -41
-45 -5 -3 -34 -35 -31 -54 -34
-34 -8 -7 -39 -41 -38 -60 -41
-24 -19 -12 -48 -48 -45 -67 -49
-33 -28 -18 -53 -52 -51 -75 -54
-52 -32 -10 -52 -48 -47 -71 -49
-39 -26 -12 -57 -54 -50 -73 -50
-15 -24 -22 -71 -68 -64 -86 -60
-14 -18 -20 -68 -68 -64 -84 -58
-37 -23 -23 -69 -71 -67 -87 -59
-26 -15 -23 -70 -72 -69 -88 -59
-26 -17 -22 -71 -72 -68 -88 -57
-42 -24 -18 -68 -73 -66 -87 -57
-39 -17 -10 -64 -68 -58 -79 -51
-55 -28 -13 -65 -69 -59 -82 -54
-58 -28 -9 -63 -66 -58 -81 -54
-74 -35 -7 -64 -65 -55 -79 -52
-72 -40 -11 -70 -67 -55 -82 -55
-60 -37 -16 -73 -70 -58 -85 -58
-38 -31 -19 -76 -74 -61 -87 -61
-29 -19 -19 -70 -72 -56 -83 -56
-46 -36 -24 -74 -77 -62 -90 -63
-57 -40 -22 -70 -74 -61 -87 -58
-47 -32 -18 -69 -71 -56 -82 -52
-40 -34 -20 -70 -69 -56 -80 -51
-17 -25 -21 -68 -66 -56 -80 -52
-41 -33 -22 -67 -65 -57 -80 -52
-46 -26 -13 -58 -52 -45 -70 -42
-15 -8 -10 -55 -51 -40 -67 -37
-15 -13 -14 -59 -54 -43 -68 -39
-31 -25 -22 -61 -59 -45 -71 -42
-21 -19 -20 -55 -52 -38 -65 -38
-9 -9 -13 -46 -43 -30 -56 -33
-18 -5 -10 -43 -39 -25 -52 -29
-34 -11 -14 -48 -42 -29 -55 -31
-25 -9 -14 -46 -39 -25 -51 -27
-44 -15 -15 -39 -34 -22 -49 -22
-49 -16 -9 -32 -27 -17 -43 -16
-35 -21 -21 -42 -36 -30 -56 -26
-19 -21 -26 -49 -42 -36 -61 -32
-4 -12 -21 -45 -38 -32 -57 -28
-7 -3 -11 -31 -26 -21 -47 -19
-4 -7 -15 -29 -25 -19 -47 -21
1 -8 -21 -31 -27 -20 -47 -24
-4 1 -19 -28 -23 -12 -40 -17
-11 0 -21 -29 -23 -11 -38 -15
-17 2 -23 -27 -19 -6 -37 -12
-13 4 -20 -23 -11 -1 -30 -7
-8 2 -20 -22 -12 -2 -32 -7
-18 2 -16 -18 -7 2 -29 -3
-12 2 -19 -18 -10 0 -30 -4
-20 -4 -11 -10 -2 8 -22 3
-17 2 -3 1 5 14 -16 9
5 -9 -19 -12 -9 -1 -31 -7
37 5 -24 -17 -11 -3 -34 -8
34 13 -19 -17 -8 2 -29 -2
15 12 -14 -14 -7 7 -23 4
23 17 -16 -16 -9 2 -26 1
26 23 -12 -9 -2 7 -22 6
20 26 -8 0 4 13 -15 13
12 28 -6 7 8 18 -11 16
-1 28 3 17 20 27 -1 25
-11 33 12 28 32 36 9 35
-29 17 9 25 29 33 5 31
-41 16 12 28 34 39 9 36
-36 16 8 23 30 35 7 33
-18 12 -4 10 19 24 -6 22
-2 0 -16 -1 6 12 -18 11
12 11 -17 -1 7 11 -19 11
31 16 -20 -7 1 6 -25 5
43 30 -9 3 11 15 -16 14
45 23 -12 4 10 12 -18 10
34 17 -11 7 15 15 -14 13
6 21 -1 16 23 27 -2 25
13 25 -3 10 20 26 -2 24
28 20 -14 -3 5 15 -11 17
36 21 -24 -15 -9 4 -22 8
44 23 -26 -15 -10 3 -24 7
18 16 -22 -7 -5 6 -22 9
10 30 -6 11 13 22 -7 23
6 26 -8 8 12 20 -10 22
-2 11 -16 1 7 14 -14 15
4 9 -17 1 10 16 -11 18
6 11 -13 4 13 20 -8 22
2 10 -15 3 9 18 -9 21
8 -1 -21 -5 4 11 -16 11
13 -13 -32 -17 -7 -1 -29 -2
12 -11 -27 -13 -2 4 -26 3
23 8 -16 -6 6 11 -18 10
16 16 -13 -3 7 14 -15 13
-1 4 -16 -7 -2 7 -22 9
32 11 -17 -11 -7 4 -23 6
52 28 -8 -2 2 13 -13 13
29 14 -12 0 2 15 -12 15
23 0 -24 -9 -6 6 -23 7
17 8 -12 -2 3 13 -16 15
-4 0 -12 -2 5 14 -16 16
-12 -14 -17 -5 1 9 -20 13
9 -16 -29 -15 -11 -4 -31 2
21 -18 -39 -24 -21 -15 -44 -7
-6 -15 -31 -15 -10 -7 -35 2
2 -13 -25 -9 -6 -4 -30 4
37 -3 -28 -14 -12 -12 -37 -2
20 -3 -22 -12 -8 -9 -34 1
7 -3 -16 -10 -4 -3 -28 4
-1 -13 -20 -15 -9 -5 -31 -2
10 -17 -25 -22 -15 -8 -35 -8
9 -13 -22 -18 -9 -4 -31 -3
13 -10 -22 -19 -8 -4 -32 -5
34 -5 -24 -23 -13 -8 -35 -9
29 -1 -24 -23 -19 -11 -37 -10
18 -7 -23 -20 -16 -10 -37 -9
17 -6 -20 -14 -11 -4 -32 -6
6 -8 -17 -8 -5 -1 -28 -3
-3 -16 -17 -9 -6 -1 -29 -5
8 -17 -14 -12 -5 1 -29 -8
26 -6 -14 -17 -9 0 -28 -8
9 -15 -12 -21 -10 2 -27 -6
-2 -23 -18 -26 -17 -2 -31 -10
0 -27 -23 -26 -21 -5 -33 -11
7 -22 -24 -21 -16 -3 -30 -8
12 -20 -26 -17 -13 -2 -28 -7
16 -17 -22 -18 -13 -2 -28 -6
32 -8 -18 -18 -13 -2 -26 -5
39 -14 -29 -32 -31 -16 -41 -19
24 -29 -33 -38 -38 -22 -48 -26
12 -14 -19 -25 -23 -9 -35 -14
4 -14 -14 -20 -16 -4 -32 -9
-6 -24 -16 -21 -19 -6 -35 -12
-8 -26 -14 -18 -17 -3 -32 -10
-6 -27 -12 -18 -16 0 -29 -8
9 -28 -13 -18 -16 0 -28 -8
18 -22 -15 -17 -17 2 -24 -8
22 -22 -22 -19 -17 0 -24 -7
35 -15 -23 -21 -17 -7 -27 -10
29 -13 -13 -16 -10 -3 -22 -6
-6 -11 -5 -4 1 6 -14 3
-17 -4 0 4 8 12 -8 11
-16 -20 -12 -11 -11 -5 -23 -4
-10 -25 -21 -25 -24 -15 -33 -13
19 -12 -21 -28 -27 -15 -33 -13
8 -9 -10 -19 -16 -2 -20 -1
-19 -13 -6 -9 -7 7 -14 3
5 -24 -18 -19 -17 -3 -25 -9
11 -21 -16 -18 -7 0 -23 -9
-7 -23 -8 -15 16 6 -17 -5
-10 -20 -6 -15 16 6 -17 -6
15 -14 -12 -22 0 -2 -23 -11
9 -20 -22 -29 -13 -12 -33 -20
5 -19 -19 -24 -5 -8 -29 -15
4 -9 -17 -17 24 -2 -23 -9
6 -11 -16 -14 50 -1 -20 -8
35 1 -13 -11 53 1 -19 -9
19 -8 -13 -11 45 1 -18 -6
6 -25 -18 -19 37 -4 -21 -12
18 -19 -16 -22 34 -4 -22 -14
33 -6 -12 -17 35 0 -19 -10
28 -12 -13 -12 35 2 -16 -8
15 -13 -14 -8 34 1 -15 -9
-4 -16 -6 3 41 6 -10 -4
1 -1 8 20 54 19 2 5
25 9 8 28 60 27 10 9
33 8 0 29 64 32 15 11
38 25 8 46 85 53 35 30
24 40 17 71 111 80 63 53
26 45 21 84 129 99 81 69
46 65 23 101 147 120 102 89
32 76 25 116 165 140 124 109
51 111 29 130 185 157 149 136
67 130 27 138 202 180 173 163
101 160 21 142 220 209 205 194
116 189 22 150 239 241 239 228
148 219 14 149 246 256 256 248
147 221 9 134 230 249 252 247
117 206 6 111 202 225 230 228
92 195 14 97 182 202 207 207
53 176 20 88 163 178 183 182
30 168 28 78 144 158 161 161
21 149 25 51 107 119 123 126
12 117 15 19 62 74 78 81
-5 91 14 -4 31 44 47 50
-21 47 3 -36 -10 7 10 14
-17 23 -7 -60 -46 -22 -18 -15
-13 -1 -16 -78 -69 -43 -38 -36
-7 -8 -14 -80 -71 -48 -43 -43
-4 2 4 -60 -53 -35 -27 -31
4 19 12 -41 -36 -20 -13 -18
-16 12 7 -31 -30 -16 -9 -15
-31 5 3 -28 -27 -16 -8 -17
-23 -2 2 -28 -27 -16 -8 -18
9 5 -5 -27 -28 -20 -12 -23
31 2 -7 -21 -25 -19 -10 -24
36 4 -4 -11 -18 -14 -6 -21
-7 -25 -11 -14 -23 -22 -15 -30
4 -18 -3 -7 -12 -16 -8 -25
4 -11 4 -1 -1 -10 0 -19
-15 -21 1 -6 -2 -15 -3 -20
-7 -16 5 -6 0 -11 3 -15
-5 -9 6 -4 0 -9 4 -13
-6 -17 6 -4 -3 -10 5 -13
22 -6 7 -7 -7 -13 4 -15
-2 -15 8 -6 -7 -14 4 -16
-6 -19 5 -6 -8 -18 0 -20
29 -11 1 -6 -9 -20 -2 -23
43 0 3 -3 -6 -16 2 -21
60 -8 -7 -12 -16 -26 -8 -32
49 -10 -8 -12 -18 -28 -10 -34
-14 -14 12 7 1 -8 9 -14
-30 -11 15 11 6 -4 14 -9
-20 -12 12 6 2 -8 11 -12
-20 -11 15 7 1 -7 14 -10
-32 -17 18 9 2 -7 15 -9
-28 -18 16 10 1 -8 14 -13
-19 -9 20 18 9 -2 19 -8
-6 -9 14 14 7 -8 16 -13
22 -16 1 0 -4 -20 6 -26
25 -8 -2 -2 -6 -19 10 -27
18 -8 -2 -3 -10 -18 12 -24
38 5 -1 -5 -13 -22 10 -23
25 2 -1 -5 -14 -23 8 -25
-1 -12 -2 -5 -15 -27 8 -26
5 -18 -3 -5 -17 -29 5 -29
17 -13 -1 0 -13 -23 8 -28
6 -26 3 6 -7 -16 14 -23
0 -24 10 16 4 -6 23 -16
8 -16 16 19 9 0 27 -11
13 -25 3 3 -6 -15 12 -22
20 -23 -4 -1 -11 -19 6 -24
6 -19 1 2 -6 -16 12 -16
-9 -14 10 11 2 -7 22 -5
-30 -23 9 13 1 -7 22 -4
-15 -23 5 11 -1 -9 22 -5
-12 -16 4 15 0 -6 24 -3
-16 -25 4 12 -4 -7 23 -5
5 -22 5 9 -5 -8 24 -7
28 -12 6 9 -4 -7 24 -8
42 -10 3 5 -8 -10 21 -13
52 -12 -7 -4 -18 -18 14 -19
19 -9 1 3 -9 -11 22 -9
-22 -2 23 22 13 10 45 13
13 17 19 20 6 3 42 11
7 8 17 19 0 -5 38 8
-24 -13 13 17 -4 -11 34 3
-6 -24 -2 5 -15 -22 22 -11
21 -22 -6 -1 -17 -23 21 -15
17 -22 -1 -1 -12 -18 25 -11
6 -12 6 8 -3 -11 32 -3
1 -12 3 11 -1 -10 35 -1
4 -7 -2 12 -2 -13 34 -3
16 -3 -3 13 0 -12 35 -1
4 -11 -4 10 -3 -15 33 -2
-14 -16 7 15 -1 -10 37 1
-20 -16 9 15 1 -8 39 0
-26 -9 17 23 11 5 51 9
-21 -14 11 16 3 -2 44 1
27 -14 4 3 -8 -14 35 -10
34 -9 0 4 -10 -20 32 -10
18 -6 7 15 1 -13 40 1
9 -8 8 15 0 -14 40 -1
1 -10 10 14 0 -15 39 -2
9 -6 4 8 -5 -20 34 -5
21 -3 3 6 -7 -19 37 -4
0 0 12 15 -1 -9 46 4
-16 -20 10 10 -6 -13 42 0
-16 -13 12 15 -3 -10 45 0
-16 -10 20 20 5 -2 52 7
-15 -12 17 15 3 -5 49 4
12 -2 13 11 1 -9 48 3
-11 -11 5 7 -4 -14 42 0
1 -17 0 0 -12 -23 35 -6
25 -11 -3 -4 -18 -33 27 -11
24 -12 0 0 -16 -33 29 -9
-13 -19 4 7 -14 -32 32 -7
-45 -30 11 11 -10 -25 38 -2
-44 -31 11 8 -12 -25 36 -5
-28 -20 13 8 -11 -25 38 -4
12 -12 4 -4 -23 -36 25 -14
11 -12 0 -10 -29 -40 22 -18
-4 -13 2 -8 -28 -39 22 -16
4 -7 7 -8 -26 -40 24 -13
7 0 8 -4 -26 -45 24 -11
-26 -21 5 -4 -31 -51 18 -15
-25 -19 2 -5 -32 -52 16 -18
-23 -19 4 -2 -31 -47 20 -18
-25 -27 5 -3 -30 -44 20 -20
-22 -30 1 -11 -35 -48 16 -24
-6 -15 1 -11 -36 -46 16 -21
3 -10 2 -15 -39 -45 16 -22
-11 -12 3 -15 -41 -45 16 -21
-29 -26 0 -23 -49 -53 7 -26
-24 -27 -2 -25 -57 -56 4 -29
-11 -20 2 -24 -59 -56 4 -29
-12 -25 1 -27 -61 -58 0 -33
-48 -37 7 -21 -55 -50 7 -28
-61 -35 10 -17 -51 -47 9 -27
-34 -25 13 -20 -50 -49 8 -31
-39 -24 7 -27 -58 -55 1 -36
-44 -41 -5 -43 -75 -69 -13 -49
-33 -36 -2 -44 -76 -67 -12 -46
-15 -28 -2 -45 -78 -69 -14 -47
-23 -29 -3 -42 -78 -70 -12 -46
-28 -28 1 -38 -76 -68 -10 -43
-23 -34 -4 -44 -86 -76 -19 -52
-34 -36 5 -40 -81 -69 -11 -46
-31 -36 0 -47 -86 -72 -16 -51
-36 -41 4 -48 -89 -75 -16 -52
-39 -42 6 -46 -87 -78 -17 -52
-52 -44 6 -46 -85 -78 -18 -51
-54 -41 10 -41 -81 -72 -14 -47
-51 -39 5 -47 -86 -75 -19 -50
-32 -44 -14 -63 -105 -93 -36 -68
-16 -33 -5 -53 -98 -81 -27 -59
-29 -35 -5 -51 -96 -78 -26 -58
-37 -51 -10 -56 -100 -80 -30 -62
-20 -42 -4 -49 -90 -70 -23 -58
-22 -37 3 -43 -78 -61 -17 -50
-44 -44 7 -38 -74 -55 -15 -45
-55 -52 0 -42 -79 -60 -20 -49
-36 -39 2 -39 -74 -55 -16 -45
-21 -27 5 -32 -69 -50 -11 -40
-29 -17 10 -23 -62 -42 -4 -30
-41 -31 1 -30 -68 -49 -13 -37
-32 -28 3 -26 -62 -49 -12 -35
-21 -24 7 -23 -55 -42 -5 -29
-25 -25 9 -19 -51 -38 0 -24
-21 -25 9 -16 -48 -36 0 -22
-22 -20 8 -14 -43 -32 4 -18
-42 -34 5 -15 -44 -32 3 -19
-46 -26 6 -10 -41 -28 5 -15
-29 -13 9 -5 -35 -21 11 -9
-12 -4 5 -6 -38 -23 8 -9
-30 -6 11 1 -32 -16 13 -6
-20 -11 6 -2 -35 -17 10 -10
-5 -11 2 -5 -37 -20 8 -15
-6 -8 7 0 -31 -14 12 -12
-13 -8 12 4 -26 -8 17 -6
-8 -2 9 5 -24 -6 17 -4
3 -2 8 4 -22 -5 16 -3
-2 4 10 11 -16 1 23 2
-4 3 7 10 -20 -2 20 0
-2 6 5 11 -21 -3 18 -1
-1 7 6 14 -19 -1 19 1
-6 -1 1 12 -21 -5 16 -4
-2 4 8 18 -12 0 23 3
-9 9 11 24 -9 5 27 7
-11 -2 5 16 -15 -2 21 1
-2 4 3 14 -15 -1 20 0
-17 6 8 21 -9 6 26 8
-21 5 8 22 -8 7 28 9
3 12 6 22 -10 5 25 7
25 27 7 25 -7 7 27 9
30 28 3 27 -7 8 27 10
13 17 -4 25 -11 5 23 7
2 5 -3 23 -12 5 21 6
-11 6 2 29 -6 12 27 11
1 9 0 25 -7 12 25 8
1 8 1 22 -9 11 22 6
0 10 2 19 -11 8 20 6
-6 16 7 25 -6 9 24 11
-10 21 9 28 -2 12 28 16
2 25 8 30 -3 12 29 17
21 12 0 22 -10 5 19 8
5 6 3 28 -3 9 23 12
-17 -2 5 30 0 12 26 14
9 11 9 30 1 15 27 14
24 21 10 32 6 19 29 16
10 17 8 29 4 17 26 15
20 22 10 29 3 17 26 16
14 22 3 30 2 15 23 14
13 20 3 33 5 19 26 17
19 22 7 31 1 15 23 14
13 22 12 34 5 17 25 17
0 23 17 41 20 22 32 25
9 17 13 37 18 19 27 21
8 13 13 35 15 16 25 18
10 22 19 39 22 22 30 24
1 18 9 31 14 9 20 14
24 25 7 26 10 4 18 12
28 44 13 35 18 9 24 20
-13 43 27 50 33 23 38 35
-14 41 27 50 34 23 40 36
10 25 7 32 14 5 21 17
2 19 9 34 16 9 22 19
-17 9 15 37 23 17 27 23
-22 2 12 31 18 14 25 21
5 13 17 31 19 19 27 22
29 22 4 21 11 9 16 13
17 20 5 22 12 12 17 15
10 32 10 29 19 19 25 22
-6 22 5 23 11 11 18 16
6 21 -2 19 7 6 12 12
30 23 -5 17 5 8 12 12
15 25 -2 24 13 15 19 18
0 14 2 23 14 18 21 19
10 13 -1 17 10 14 16 14
17 12 -1 14 10 10 14 12
13 10 -3 13 9 6 11 10
-1 6 -1 14 9 6 11 10
-1 5 -6 10 5 1 6 7
5 10 -4 13 6 4 8 11
15 23 -3 16 7 5 8 13
25 14 -10 10 1 0 2 5
31 8 -16 4 -6 -6 -5 -3
40 5 -9 6 2 2 1 2
9 -1 1 15 11 13 11 13
-12 -8 5 16 13 16 13 15
-14 -12 1 11 9 12 9 11
-3 -7 -1 7 5 7 6 9
8 0 -1 6 1 -1 1 6
-9 -6 -4 5 0 -4 -1 5
0 7 -3 11 2 -2 1 9
16 4 -6 7 -2 -5 -1 5
17 1 -8 4 -6 -7 -4 1
-4 0 -2 9 0 -1 0 5
-20 -15 -6 2 -7 -6 -4 -2
-2 -14 -9 -4 -9 -9 -9 -4
14 -1 -5 0 -4 -5 -3 2
25 -2 -7 -3 -6 -12 -6 -1
14 1 -6 1 -5 -13 -4 1
4 -11 -10 -2 -9 -16 -9 -3
15 -2 -12 -3 -11 -16 -11 -4
-16 -8 -5 5 -6 -9 -4 2
-38 -15 1 9 -1 -1 3 7
-1 4 0 8 -1 2 4 6
24 9 -6 -1 -8 -6 -3 -2
6 -15 -8 -10 -13 -12 -10 -8
7 -15 -10 -10 -14 -13 -12 -11
1 -12 -6 -8 -11 -9 -7 -6
-6 -6 3 1 -5 -1 1 2
19 1 -4 -2 -10 -5 -4 -2
15 -2 -11 -4 -12 -8 -7 -4
-1 -10 -8 0 -9 -4 -4 -2
2 -7 -4 1 -6 -1 -1 1
-6 -16 -9 -7 -11 -6 -7 -5
-12 -15 -10 -6 -10 -5 -4 -5
-8 -8 -1 -1 -3 2 2 0
-3 -12 -4 -7 -10 -5 -4 -7
4 -13 -4 -9 -13 -7 -6 -8
10 -13 -5 -8 -12 -7 -5 -7
5 -4 7 1 -3 2 3 1
-6 -5 4 1 -4 -4 0 -2
-4 -18 -4 -6 -10 -13 -7 -10
-22 -14 4 6 1 -1 4 1
-18 -10 9 10 6 4 9 6
6 9 17 16 12 12 18 14
7 -2 11 8 4 5 9 4
-3 -9 7 2 -1 -1 3 -2
1 -8 7 1 -3 -2 3 0
0 -5 0 -5 -11 -11 -5 -6
-17 -15 -2 -6 -11 -13 -8 -8
2 -8 -6 -7 -15 -16 -9 -11
2 -9 -6 -5 -12 -13 -5 -9
-10 -6 3 3 -3 -4 3 -1
-21 -13 6 5 -3 -3 4 -1
-8 -16 3 2 -6 -5 1 -5
11 -6 6 4 -2 0 6 -3
11 -2 7 7 0 4 8 -1
0 -10 2 6 0 3 6 -3
4 -4 -3 4 -3 -2 3 -5
9 0 2 6 -1 1 5 -3
6 10 13 14 6 8 13 4
-16 -2 14 14 5 6 13 3
-8 -7 7 8 0 1 7 -2
-4 -10 8 7 -1 0 6 -4
6 -4 14 12 5 5 12 1
-5 -10 19 16 12 11 18 5
-20 -6 19 20 15 13 19 7
-12 -6 14 18 13 5 15 2
3 -1 11 19 11 -1 10 -2
-10 10 25 37 29 16 26 12
-13 18 30 50 41 28 37 23
-13 24 34 64 57 41 49 35
1 31 34 76 71 54 60 45
35 38 28 82 82 64 69 49
45 51 28 95 97 78 84 62
56 59 32 103 112 92 98 76
76 79 30 115 128 111 116 92
89 100 27 125 146 133 136 113
89 125 31 138 167 161 162 143
94 152 31 146 190 193 192 175
94 170 24 149 205 217 217 200
115 186 18 148 216 235 236 221
152 209 11 138 209 236 237 227
148 214 11 121 194 226 228 221
120 201 13 104 169 201 205 202
90 182 22 93 150 181 182 182
65 160 25 76 127 154 154 156
24 148 36 69 110 140 138 141
-22 114 34 49 74 103 100 106
-21 79 18 14 28 57 55 63
-18 56 10 -11 -7 20 21 31
-15 37 10 -29 -31 -4 -2 11
-15 16 -1 -45 -54 -28 -24 -12
-13 -2 -11 -55 -64 -41 -37 -26
-45 -8 -1 -42 -48 -31 -28 -19
-48 1 14 -24 -28 -15 -13 -6
-31 9 15 -16 -20 -11 -7 -1
0 14 7 -15 -19 -12 -10 -5
-3 16 3 -11 -18 -14 -14 -6
-25 9 11 0 -7 -5 -4 3
-17 15 19 15 5 6 6 13
-11 17 24 23 11 11 10 15
-4 5 13 15 1 -2 -3 2
3 -6 0 5 -9 -12 -14 -9
0 -6 6 9 -2 -5 -10 -6
-2 -3 16 15 7 5 -1 1
9 0 9 9 1 1 -5 -1
11 -10 2 2 -5 -4 -12 -8
-1 -6 5 7 1 0 -8 -4
-21 -17 5 7 -3 -1 -9 -4
-14 -15 6 9 -3 -1 -10 -3
8 2 12 15 4 4 -4 0
6 8 15 20 9 10 1 5
-4 -3 11 18 5 8 -2 2
23 -2 0 10 -4 -3 -12 -9
40 -4 -4 3 -5 -5 -15 -14
20 -1 0 10 3 2 -8 -7
12 7 8 18 12 9 0 2
0 7 12 19 11 6 0 2
-13 -1 12 17 6 3 -1 0
-12 7 17 23 11 7 4 7
-18 3 17 23 12 7 5 8
-19 -6 7 16 2 -1 -4 -1
-8 -13 5 13 2 -2 -6 -4
-10 -19 -4 11 -2 -6 -10 -8
13 -6 -2 12 5 0 -4 -6
2 -3 7 17 9 4 0 0
-8 -12 7 11 0 -4 -8 -8
9 -6 3 6 -4 -8 -12 -14
10 0 5 8 -2 -4 -9 -10
-5 4 12 18 5 5 2 0
-12 4 20 27 14 12 10 6
-11 3 16 26 12 12 8 5
-3 -10 10 18 4 5 1 -3
1 1 22 29 17 17 14 7
11 8 24 30 21 21 18 9
7 6 19 25 17 19 16 8
-7 -7 13 17 8 12 8 0
-10 -7 8 13 2 8 3 -6
0 -4 8 14 3 10 6 -1
19 -4 -3 7 -6 1 -4 -10
6 -11 1 9 -3 6 -1 -9
-9 -5 14 23 10 19 12 4
-22 -3 18 29 17 27 19 11
-3 -5 6 21 9 20 11 2
18 -5 10 18 9 22 11 1
16 -2 13 18 13 25 14 4
0 -21 -2 7 2 16 1 -5
-5 -18 -6 4 -3 11 -4 -9
7 0 8 12 6 19 6 1
-1 7 16 20 13 21 12 9
-13 9 17 24 15 24 15 12
-12 -7 -3 9 -1 7 -2 -5
0 -20 -12 0 -7 3 -9 -12
4 -11 3 9 3 14 1 -4
4 -8 8 11 9 21 5 0
13 -2 7 11 11 23 5 0
-2 -12 1 7 8 21 2 -2
-11 -3 6 14 12 27 7 5
5 16 11 21 18 33 14 14
-2 18 15 24 20 35 15 16
-26 9 17 24 19 31 13 13
-27 0 11 17 9 20 4 5
16 6 8 9 6 15 -1 -2
25 6 1 8 7 16 -2 -5
12 -9 -2 4 5 16 -4 -7
22 3 5 10 12 21 3 3
18 -1 1 6 7 17 -3 0
-15 -13 1 8 9 17 -3 0
-11 -7 5 13 14 22 3 5
3 11 9 19 19 28 6 10
-14 3 9 18 19 28 6 8
-17 4 5 15 19 26 3 7
-21 6 6 18 21 30 7 10
-17 10 13 24 24 35 12 13
-24 -2 13 18 22 33 9 10
-15 -9 8 13 19 33 6 8
-11 -5 8 13 18 35 6 9
-15 -6 2 9 14 29 2 5
12 -4 -1 2 8 19 -6 -3
18 8 6 9 9 19 -1 1
-6 1 12 12 12 18 0 5
-7 4 14 17 13 17 1 8
1 4 8 11 9 13 -5 5
-17 -5 7 8 6 11 -6 1
-11 -5 5 5 4 11 -8 0
-7 -6 1 -1 0 8 -12 -3
16 6 6 0 2 13 -9 0
27 10 3 -4 -4 7 -14 -5
23 6 0 -9 -9 4 -18 -8
-1 3 2 -6 -9 8 -18 -8
-29 -5 4 -3 -7 10 -15 -6
-39 -10 5 -4 -7 12 -14 -6
-32 -14 3 -11 -12 7 -20 -11
-9 -10 1 -16 -16 5 -21 -14
-20 -10 6 -14 -14 9 -18 -11
-53 -12 11 -10 -9 12 -13 -6
-48 -11 11 -15 -11 10 -14 -9
-18 1 9 -20 -18 4 -21 -12
-22 -4 5 -25 -24 -2 -26 -16
-39 -17 -1 -31 -30 -8 -32 -22
-36 -13 4 -25 -26 -3 -26 -18
-38 -11 10 -22 -21 0 -22 -13
-40 -22 8 -29 -27 -4 -26 -18
-40 -24 5 -35 -33 -9 -32 -24
-27 -28 -7 -49 -43 -18 -42 -33
-11 -18 -13 -50 -45 -20 -43 -33
-19 -21 -14 -54 -48 -23 -47 -38
-28 -24 -12 -56 -52 -26 -49 -39
-13 -24 -15 -64 -62 -31 -54 -43
-21 -24 -11 -60 -61 -28 -51 -39
-38 -28 -4 -54 -57 -24 -46 -34
-46 -38 -11 -63 -67 -33 -54 -42
-48 -40 -3 -59 -62 -28 -48 -38
-61 -39 4 -53 -57 -26 -42 -31
-52 -34 10 -50 -52 -27 -39 -27
-45 -35 6 -56 -59 -34 -45 -33
-62 -46 -5 -67 -71 -47 -56 -43
-43 -40 -12 -75 -80 -56 -65 -50
-45 -35 -6 -69 -75 -51 -58 -42
-51 -33 -5 -68 -76 -53 -57 -45
-32 -23 1 -63 -72 -49 -53 -43
-45 -30 -4 -62 -71 -48 -54 -42
-58 -49 -12 -68 -79 -54 -60 -47
-55 -49 -8 -65 -76 -51 -58 -45
-49 -46 -7 -65 -70 -47 -54 -41
-39 -39 -8 -68 -69 -48 -54 -43
-58 -40 -2 -62 -67 -45 -52 -38
-58 -36 -3 -59 -67 -46 -53 -40
-30 -29 -6 -59 -68 -47 -52 -42
-26 -24 -10 -61 -71 -49 -55 -42
-63 -36 -10 -58 -68 -48 -53 -37
-56 -27 1 -51 -57 -37 -43 -29
-25 -19 1 -48 -53 -32 -40 -28
-8 -22 -6 -52 -55 -34 -44 -32
0 -19 1 -48 -49 -26 -37 -28
-8 -10 8 -39 -41 -15 -28 -19
-49 -24 4 -36 -38 -12 -27 -16
-57 -10 13 -23 -25 -4 -15 -4
-39 -11 3 -28 -30 -13 -23 -11
-54 -24 -5 -32 -36 -20 -29 -16
-59 -22 3 -27 -31 -15 -24 -12
-27 -3 8 -20 -22 -7 -16 -6
-10 -7 1 -25 -28 -12 -21 -11
-36 -21 0 -26 -30 -13 -25 -15
-44 -19 9 -18 -18 -1 -13 -7
-24 -14 2 -19 -20 -4 -16 -12
-13 -17 -5 -23 -22 -6 -21 -14
-6 -16 -4 -22 -21 -6 -21 -11
6 -2 -2 -18 -17 0 -15 -7
16 -2 -11 -24 -25 -6 -23 -14
24 0 -12 -21 -26 -5 -24 -15
24 14 -1 -9 -15 5 -12 -4
4 10 9 0 -3 18 -1 5
-25 -1 12 2 0 20 -1 7
-20 -2 11 -1 0 21 -1 7
-12 2 5 -3 -3 20 -4 2
-26 6 11 3 3 27 2 8
-35 11 13 11 10 35 10 16
-21 15 11 12 9 36 10 16
22 18 1 4 -1 22 -3 6
29 8 -1 -1 -8 11 -10 0
13 1 -8 -5 -14 1 -17 -7
18 -6 -13 -11 -17 -5 -20 -11
2 -1 -3 0 -4 5 -7 1
-13 4 6 8 4 11 1 7
-13 19 16 16 12 18 10 15
-16 20 16 16 13 19 11 18
-7 15 4 6 1 10 0 7
1 26 12 14 7 19 8 13
22 15 -6 -2 -10 3 -11 -2
24 10 -6 -3 -12 4 -12 -2
11 10 3 7 -1 12 -2 5
-8 4 4 10 2 13 1 7
-9 3 5 11 3 12 1 7
-13 3 10 14 8 14 5 11
-15 7 6 13 7 9 2 8
-19 19 13 18 15 16 8 17
3 41 16 25 22 21 14 23
6 21 0 8 4 2 -3 6
2 19 1 8 3 1 -4 5
30 31 6 12 6 4 -1 10
22 24 6 15 8 7 1 10
-3 15 9 22 14 15 8 16
2 22 16 28 19 21 13 19
-4 20 21 30 21 22 14 23
-7 21 14 25 18 18 10 19
-14 20 15 23 19 17 10 18
-1 24 11 20 14 12 5 15
33 27 0 9 3 -2 -7 3
38 31 0 8 1 -6 -8 2
51 38 1 8 1 -5 -7 4
48 38 1 10 3 -6 -7 5
4 18 7 17 12 0 1 12
-14 22 17 25 22 8 11 21
-28 21 24 30 27 14 16 26
-35 12 13 22 18 10 10 18
-44 15 16 25 22 16 15 22
-27 22 12 23 19 15 12 21
23 22 -9 3 0 -3 -8 2
37 20 -20 -4 -10 -12 -16 -7
12 14 -10 3 -3 -6 -9 0
13 25 -2 8 4 1 -1 9
28 24 -2 6 3 -2 -2 7
8 17 -1 7 3 -5 0 7
4 16 0 8 6 -7 3 10
-7 0 -5 3 0 -15 -3 3
-2 2 -2 6 3 -16 -2 4
13 11 -11 3 -1 -20 -5 1
18 13 -15 1 -2 -20 -6 1
24 25 -11 2 -3 -16 -4 1
31 20 -12 -3 -8 -19 -9 -4
5 9 -10 0 -6 -14 -7 -3
8 10 -7 3 -1 -6 -1 4
9 6 -3 4 0 -3 -1 4
-18 -9 -5 2 -3 -4 -3 1
-10 5 -2 5 0 2 1 5
3 5 -3 4 -2 -1 0 2
-6 -6 -10 -7 -12 -13 -10 -8
0 -5 -12 -10 -14 -17 -13 -9
32 1 -20 -16 -21 -26 -21 -16
52 2 -26 -20 -25 -32 -24 -20
45 6 -20 -12 -17 -24 -16 -12
17 1 -12 -7 -13 -23 -10 -8
-14 -14 -12 -10 -14 -27 -14 -13
6 -9 -9 -10 -11 -21 -12 -12
16 3 -5 -6 -6 -13 -8 -6
7 3 -3 -5 -7 -10 -5 -4
-11 -13 -12 -14 -16 -18 -13 -12
-1 -10 -16 -14 -18 -19 -15 -14
7 0 -9 -8 -11 -12 -7 -6
-6 -3 -6 -7 -9 -9 -5 -5
-1 -2 -9 -8 -11 -9 -7 -6
10 -4 -8 -8 -12 -9 -7 -8
-15 -7 -1 -2 -4 -3 1 -2
-29 -19 -7 -6 -9 -8 -5 -7
13 -15 -23 -22 -23 -21 -19 -22
19 -12 -23 -23 -23 -21 -20 -23
-4 -15 -16 -17 -18 -15 -16 -19
-1 -14 -18 -16 -20 -17 -17 -19
31 0 -23 -19 -25 -23 -21 -22
34 0 -17 -13 -18 -18 -15 -16
14 -13 -17 -15 -21 -21 -17 -19
0 -16 -8 -9 -13 -13 -9 -11
5 -15 -11 -11 -15 -15 -12 -15
5 -5 -3 -5 -8 -8 -4 -9
0 -3 -4 -9 -13 -9 -6 -10
13 -2 -5 -11 -14 -8 -8 -12
22 -10 -15 -20 -23 -16 -18 -21
9 -13 -12 -15 -18 -10 -14 -18
4 -9 -8 -12 -17 -7 -12 -16
17 -12 -15 -18 -21 -10 -16 -21
33 -12 -17 -19 -23 -10 -18 -22
16 -16 -11 -16 -18 -6 -14 -20
-12 -23 -7 -12 -12 -5 -12 -17
-8 -12 0 -6 -5 1 -4 -9
-3 -8 -6 -6 -8 -2 -6 -9
-15 -11 -6 -5 -9 -4 -4 -10
-12 -5 -4 -5 -8 -6 -5 -10
-3 -6 -7 -8 -11 -9 -9 -13
5 -7 -13 -14 -17 -16 -17 -19
19 -7 -16 -14 -17 -16 -17 -20
10 -11 -13 -11 -11 -11 -12 -15
22 -14 -15 -13 -15 -16 -15 -19
34 -13 -14 -16 -17 -21 -17 -22
25 -10 -7 -10 -12 -17 -13 -18
1 -16 -10 -12 -13 -18 -16 -20
9 -13 -13 -14 -12 -17 -16 -20
16 -4 -15 -12 -12 -17 -16 -20
24 -4 -15 -14 -14 -19 -20 -24
29 -4 -17 -15 -14 -19 -19 -25
0 -12 -13 -7 -6 -11 -13 -18
0 -21 -13 -9 -8 -13 -14 -22
23 -14 -9 -8 -5 -9 -11 -19
10 -9 -5 -3 1 -2 -4 -13
5 -13 -2 -1 5 2 -2 -11
-13 -14 8 7 12 9 4 -5
-30 -18 4 9 15 9 4 -5
-7 -13 -3 6 12 4 -2 -9
6 2 5 19 21 11 5 -2
6 13 13 31 33 19 12 5
19 20 14 42 45 30 23 13
9 20 15 53 58 43 35 24
6 36 33 79 90 73 64 51
20 46 31 90 102 84 75 59
41 49 27 96 113 94 84 66
52 60 24 106 126 110 99 81
78 78 17 110 138 119 110 91
106 104 14 116 152 137 130 112
127 133 9 124 169 158 155 137
124 155 5 128 186 182 180 165
141 169 -10 127 197 198 199 186
163 193 -15 125 202 209 213 202
161 189 -22 107 187 195 202 194
143 175 -20 83 161 172 181 175
115 168 -8 73 146 156 165 161
86 159 4 68 132 139 149 145
52 146 16 56 111 119 129 128
44 111 -2 20 65 70 84 84
50 78 -16 -19 20 23 37 40
21 51 -16 -39 -14 -10 6 15
1 24 -13 -53 -36 -36 -16 -3
-20 6 -8 -59 -45 -47 -25 -13
-25 -7 -13 -62 -49 -55 -32 -23
-8 -5 -13 -58 -44 -57 -35 -25
-12 -8 -17 -55 -41 -55 -34 -28
0 10 -8 -41 -29 -41 -19 -15
5 20 4 -28 -15 -27 -7 -3
22 25 -2 -22 -11 -29 -8 -5
17 6 -12 -28 -18 -39 -18 -15
0 -2 -8 -19 -11 -36 -13 -9
-17 -6 0 -7 -2 -30 -7 -4
-19 -18 -6 -9 -5 -33 -13 -10
3 -20 -12 -15 -8 -38 -16 -17
15 -4 -3 -8 -1 -31 -9 -8
20 -9 -3 -10 -1 -32 -11 -10
23 -11 -10 -14 -6 -37 -17 -16
23 -18 -15 -18 -9 -43 -21 -20
15 -22 -19 -19 -11 -45 -22 -21
-1 -19 -12 -12 -4 -38 -15 -13
-15 -11 -1 -3 3 -30 -7 -5
-7 -9 2 2 6 -28 -6 -3
-27 -14 5 6 9 -24 -2 -1
-44 -20 10 10 12 -19 1 2
-9 -9 6 7 10 -18 -2 -2
25 -7 -4 2 5 -20 -7 -8
33 -3 -7 1 6 -15 -5 -7
5 0 4 8 13 -7 1 0
-29 -14 1 3 7 -11 -5 -5
-20 -4 8 7 9 -6 -1 -1
-10 -3 -1 2 3 -11 -7 -7
-1 -14 -10 -1 -1 -15 -11 -11
38 0 -8 -1 1 -14 -12 -11
63 1 -7 -2 -1 -15 -15 -15
70 -10 -18 -11 -12 -24 -24 -26
22 -19 -10 -2 -3 -16 -16 -17
-3 -24 -10 -1 0 -13 -15 -16
24 -12 -14 -5 -1 -15 -17 -19
60 -10 -25 -18 -12 -26 -29 -30
30 -8 -16 -8 -5 -18 -21 -20
-13 -9 -6 5 5 -8 -10 -8
-33 -21 -3 6 3 -7 -7 -6
-3 -14 -1 7 4 -6 -8 -5
7 -13 -1 6 4 -7 -9 -6
-14 -24 1 7 8 -5 -8 -5
-6 -19 6 12 13 0 -2 0
4 -14 6 11 11 -1 -3 -2
17 -10 3 6 8 -7 -8 -6
28 6 2 7 10 -7 -6 -3
32 0 -5 -1 2 -16 -12 -8
41 -6 -13 -10 -6 -28 -21 -15
39 -1 -7 -3 0 -24 -15 -9
18 -8 -1 4 3 -19 -9 -3
4 -19 -2 3 1 -22 -10 -3
3 -15 -1 7 9 -18 -5 -1
7 -20 -4 4 9 -21 -9 -4
10 -13 -5 7 9 -19 -7 -1
-11 -16 -2 13 13 -14 -2 5
-22 -15 3 14 14 -13 -1 6
-5 -9 -3 6 9 -17 -5 2
3 -7 -6 2 4 -22 -11 -2
-12 -2 4 12 13 -15 -2 6
0 7 9 17 17 -8 3 11
-8 -11 -1 7 7 -14 -8 0
-10 -17 -5 3 5 -14 -12 -3
3 -14 -6 0 8 -10 -9 -3
13 2 4 11 18 5 2 8
21 3 2 10 15 5 0 7
37 8 -5 5 10 1 -6 3
13 3 -4 5 10 2 -6 3
-11 -15 -14 -1 2 -7 -14 -4
-11 -6 -2 11 15 7 -2 9
-22 -4 2 15 16 7 -2 9
-7 -10 -3 7 9 0 -8 0
-2 -4 0 10 12 5 -6 4
2 -10 -5 6 10 5 -8 1
8 -14 -10 0 7 2 -12 -3
10 -17 -11 -1 6 0 -14 -4
2 -17 -11 0 7 0 -13 -3
19 -15 -16 -5 4 -2 -16 -6
18 -4 -11 2 8 3 -11 1
15 5 4 12 18 13 0 11
35 12 -2 9 15 11 -5 8
9 -7 -12 3 8 4 -12 -1
-4 -10 -6 6 13 8 -9 2
0 -21 -15 -3 4 1 -18 -7
5 -10 -3 7 16 14 -6 4
-8 2 8 17 27 24 4 16
-6 -8 -6 4 13 12 -9 4
36 -8 -19 -11 -1 -1 -22 -8
26 2 -7 -2 5 8 -13 3
10 -2 -5 0 8 8 -14 4
1 -5 -3 3 10 9 -12 7
-3 -5 -2 5 11 10 -11 7
4 -2 0 5 10 12 -9 6
12 6 4 7 14 17 -4 11
-27 -14 -10 -3 1 4 -16 2
-54 -33 -20 -13 -7 -8 -25 -6
-27 -18 -19 -13 -7 -12 -26 -7
-12 -13 -13 -13 -7 -14 -24 -6
0 -1 -3 -8 -3 -12 -19 1
-21 -14 -3 -9 -6 -16 -23 -1
-27 -18 -2 -13 -7 -20 -26 -1
-18 -14 -1 -12 -9 -22 -28 -2
-11 -15 -10 -17 -13 -27 -32 -7
-30 -20 -9 -16 -11 -23 -27 -7
-27 -15 -6 -19 -14 -26 -30 -7
4 -14 -14 -36 -32 -45 -46 -23
-10 -22 -15 -41 -37 -49 -51 -26
-19 -31 -20 -44 -42 -55 -56 -31
-19 -26 -15 -39 -37 -51 -51 -26
-1 -22 -15 -40 -39 -51 -50 -26
-29 -28 -10 -39 -38 -48 -46 -19
-34 -34 -4 -39 -37 -46 -45 -18
-42 -42 -10 -44 -40 -50 -50 -25
-44 -44 -15 -47 -41 -51 -51 -26
-27 -32 -12 -47 -40 -49 -51 -26
-35 -27 -12 -51 -45 -53 -53 -26
-56 -28 -11 -50 -47 -54 -53 -26
-55 -28 -6 -49 -47 -53 -52 -22
-49 -31 -6 -54 -53 -57 -55 -25
-39 -39 -11 -59 -61 -65 -62 -31
-41 -34 -12 -54 -52 -55 -56 -27
-47 -36 -9 -54 -50 -52 -58 -27
-46 -46 -10 -62 -59 -57 -66 -35
-45 -46 -9 -63 -61 -54 -64 -36
-43 -44 -14 -65 -62 -51 -63 -35
-9 -46 -29 -77 -74 -63 -77 -48
-30 -50 -23 -73 -72 -60 -76 -47
-54 -57 -18 -71 -72 -57 -74 -45
-42 -46 -15 -70 -72 -54 -73 -44
-41 -43 -12 -69 -71 -54 -72 -44
-52 -54 -17 -72 -73 -54 -74 -46
-44 -46 -17 -66 -68 -48 -68 -40
-35 -47 -21 -70 -70 -48 -70 -41
-49 -53 -17 -68 -65 -42 -66 -39
-64 -53 -12 -64 -61 -39 -62 -35
-34 -42 -8 -67 -64 -42 -65 -37
-38 -33 -8 -61 -61 -37 -61 -35
-31 -36 -18 -65 -65 -41 -65 -39
-42 -33 -12 -56 -57 -34 -58 -31
-41 -35 -13 -53 -57 -35 -58 -32
-16 -33 -18 -56 -58 -35 -61 -34
-25 -41 -20 -55 -56 -34 -59 -33
-41 -40 -9 -48 -46 -24 -50 -26
-32 -33 0 -40 -36 -14 -40 -16
-19 -28 -3 -41 -35 -15 -40 -19
-23 -34 -12 -51 -44 -24 -51 -27
-37 -39 -12 -50 -42 -21 -48 -26
-32 -30 -8 -42 -36 -15 -41 -20
-25 -25 -11 -42 -38 -18 -42 -21
-20 -22 -8 -34 -33 -13 -37 -15
-7 -23 -9 -31 -30 -13 -35 -14
-2 -28 -12 -32 -30 -18 -38 -16
-13 -28 -13 -31 -28 -21 -39 -16
-24 -24 1 -20 -14 -10 -26 -6
-39 -17 2 -13 -7 -2 -17 2
-25 -10 -3 -16 -10 -8 -21 0
-16 -5 3 -14 -9 -9 -19 -1
-22 -3 11 -6 0 -3 -12 6
-39 -14 8 -6 -1 -7 -14 6
-22 -10 6 -8 -4 -8 -16 4
-7 0 3 -8 -5 -11 -19 1
-24 -6 1 -5 -1 -9 -16 3
-15 -8 -2 -4 0 -10 -16 3
9 -11 -12 -11 -9 -20 -26 -8
36 -4 -14 -15 -11 -20 -28 -11
28 -1 -7 -9 -5 -11 -23 -5
-12 -17 -9 -5 -2 -7 -20 -2
-4 -15 -10 -5 1 -3 -18 -1
-11 -6 -3 2 7 5 -11 6
-24 -12 0 3 8 8 -9 7
-15 -7 -1 3 6 9 -9 7
1 -3 -2 1 6 8 -11 5
11 8 5 8 17 19 -2 12
35 12 -4 4 11 15 -8 4
46 11 -11 -3 2 8 -14 -2
19 7 -5 1 7 13 -9 4
-13 4 3 9 16 22 -2 12
-22 0 5 10 22 26 3 15
5 11 4 12 22 26 4 15
14 8 -3 9 14 20 -4 9
17 3 -5 5 12 18 -6 7
17 3 -4 6 14 20 -4 8
-7 -5 -4 8 15 22 -3 8
-5 0 0 11 22 27 3 12
22 20 5 15 27 32 7 18
23 15 -2 9 19 25 1 11
17 9 -10 4 13 18 -4 5
4 9 -8 7 15 20 -2 11
-11 5 2 10 19 22 1 14
3 12 12 16 25 28 7 19
24 13 9 16 23 25 5 16
24 5 4 14 21 22 5 15
3 3 5 17 23 21 7 16
6 2 5 15 25 18 6 16
21 13 4 13 24 11 3 15
-10 11 3 18 27 13 6 18
-34 21 20 31 40 26 21 33
-26 23 23 29 36 21 17 31
1 23 8 18 24 8 5 19
18 22 3 17 23 6 5 17
12 9 -1 11 16 0 -2 12
26 9 -2 9 17 1 0 13
19 11 -2 14 23 9 6 16
-5 9 7 21 29 16 13 23
-2 17 10 20 30 19 13 23
-4 18 5 18 26 15 8 19
-4 14 -1 10 18 11 2 12
1 14 0 8 16 13 3 12
17 20 -7 7 13 10 0 9
25 23 -7 9 14 14 1 13
34 26 -5 9 15 16 3 13
22 20 -4 7 14 17 3 11
9 7 -8 3 10 13 -2 6
6 10 0 8 15 20 5 10
8 0 -9 -2 7 11 -5 -1
7 -4 -9 -2 9 13 -3 -1
5 8 -1 7 16 21 5 9
-3 7 -8 4 12 18 3 7
-17 0 -12 0 9 13 -3 4
-6 2 -9 0 8 13 -4 4
9 10 -6 1 12 17 1 6
25 13 -8 -3 8 16 -1 2
19 1 -14 -12 2 10 -8 -6
18 -4 -17 -14 0 9 -8 -8
0 -1 -14 -12 5 13 -4 -4
0 -7 -14 -20 -2 9 -11 -8
14 -9 -19 -26 -10 1 -17 -15
32 -4 -21 -26 -11 -2 -19 -15
29 -6 -25 -26 -13 -7 -23 -17
25 -4 -20 -18 -7 -1 -15 -10
31 6 -9 -11 1 5 -7 -4
17 -1 -7 -10 2 3 -7 -4
16 -7 -13 -16 -5 -5 -14 -12
10 -10 -11 -17 -5 -9 -14 -11
1 -11 -10 -16 -3 -7 -11 -9
1 -9 -14 -18 -5 -11 -12 -10
-2 -6 -7 -14 1 -9 -9 -6
-1 -2 -6 -11 3 -8 -7 -5
1 5 -4 -8 5 -8 -4 -2
16 6 -9 -12 -3 -11 -8 -7
12 0 -14 -18 -8 -14 -12 -12
17 -3 -17 -16 -7 -11 -10 -11
18 -3 -18 -15 -3 -6 -8 -10
-20 -3 -7 -7 6 4 1 -1
-43 -8 1 -6 8 5 3 1
-30 -5 -1 -9 1 0 -1 -3
11 -4 -11 -22 -13 -14 -13 -16
29 -2 -15 -25 -16 -20 -18 -19
6 -3 -12 -17 -9 -16 -13 -14
-10 -6 -3 -8 0 -6 -5 -6
5 -2 1 -7 3 -4 -3 -4
15 2 1 -8 0 -3 -4 -5
10 -11 -7 -15 -8 -8 -10 -13
16 -8 -12 -20 -12 -9 -11 -15
9 -6 -8 -21 -12 -7 -11 -15
6 -2 -5 -17 -9 -5 -8 -14
32 3 -14 -23 -12 -14 -14 -19
13 -5 -12 -19 -9 -11 -10 -14
-35 -18 -8 -14 -7 -14 -11 -12
-25 -17 -8 -17 -9 -16 -12 -13
-20 -12 -5 -13 -5 -9 -8 -8
-20 -16 -7 -14 -8 -8 -7 -9
0 -17 -14 -17 -9 -8 -8 -12
32 -5 -9 -13 -3 -5 -5 -9
5 -17 -9 -17 -7 -10 -12 -16
-11 -21 -6 -18 -6 -6 -9 -16
-8 -8 -3 -14 -4 -2 -5 -10
1 2 -2 -12 -3 -1 -5 -6
13 -3 -10 -20 -12 -10 -13 -17
6 -1 -6 -15 -5 -3 -6 -10
-16 -11 -3 -12 -4 2 -2 -7
-12 -15 -1 -10 -3 4 -1 -7
-4 -9 2 -8 2 7 1 -5
15 -9 -1 -12 -1 4 -2 -9
15 -4 -1 -11 -2 5 -2 -9
7 -6 1 -9 -1 8 1 -8
6 -5 1 -10 -4 6 -1 -10
14 -3 -7 -16 -12 -1 -9 -17
35 -7 -22 -28 -23 -14 -21 -28
60 -7 -34 -34 -28 -21 -27 -32
56 2 -21 -21 -14 -9 -14 -20
1 -10 -2 -6 1 5 1 -7
-39 -16 7 2 10 12 6 0
-34 -12 13 6 16 14 11 3
-34 -14 14 4 15 11 11 2
-17 -1 17 13 21 13 18 7
-18 4 22 22 27 17 23 13
-22 4 19 26 29 15 22 10
-2 25 21 37 41 23 32 20
9 39 23 50 57 36 45 33
26 42 16 54 66 41 50 37
32 45 17 67 80 54 65 48
22 49 26 83 99 72 83 65
67 74 25 95 115 87 98 76
97 93 23 103 130 105 117 92
101 113 26 114 149 128 139 116
97 126 22 118 162 150 161 137
109 150 15 124 181 178 189 164
137 183 11 126 194 201 209 186
157 195 3 121 198 210 219 201
169 198 -6 106 186 205 214 198
148 191 -8 86 163 185 196 181
133 186 2 74 146 165 177 164
88 171 14 71 133 152 162 151
20 142 26 65 118 138 147 138
-23 111 29 43 90 112 119 113
-25 77 15 3 43 66 74 69
-16 45 1 -31 0 25 33 30
9 26 -11 -60 -38 -11 -2 -5
-3 -6 -24 -82 -66 -38 -30 -32
-7 -21 -28 -84 -73 -44 -38 -41
-33 -15 -14 -67 -56 -30 -24 -28
-17 8 1 -46 -37 -12 -8 -15
-5 21 11 -31 -21 2 3 -4
-17 21 9 -25 -13 8 10 0
-23 19 9 -19 -7 14 13 4
-26 14 14 -13 -3 16 15 4
-10 14 8 -12 -3 14 11 0
1 8 1 -17 -6 5 4 -7
-3 -3 -2 -15 -9 -1 0 -11
-24 -15 1 -6 -4 2 6 -8
-6 -11 3 -3 0 1 6 -7
4 -7 2 -4 -1 -1 6 -6
4 -14 -4 -10 -5 -5 5 -9
17 -13 -11 -16 -10 -9 1 -15
24 -4 -10 -15 -10 -9 3 -12
24 -6 -6 -13 -8 -8 4 -11
13 -15 -6 -15 -9 -17 -4 -16
11 -6 1 -7 -3 -12 2 -11
9 -5 4 -1 1 -8 8 -5
1 -12 -3 -1 0 -10 6 -6
-6 -10 6 8 9 -3 13 1
7 -6 7 10 10 -2 12 -1
8 -11 -1 -1 3 -12 2 -8
4 -4 3 1 8 -6 9 -1
-31 -7 8 5 9 -4 12 2
-27 -8 2 -3 -1 -11 4 -8
-23 -11 0 -4 -3 -13 3 -10
0 -7 -1 -3 -3 -16 0 -10
20 -1 -1 2 3 -14 1 -8
20 -5 -5 4 6 -12 3 -6
0 -13 2 8 8 -8 7 -3
9 -5 10 10 10 -5 10 -2
22 -1 10 7 7 -5 7 -4
19 5 14 11 13 5 13 2
-12 2 18 17 20 13 20 8
-19 -15 0 1 2 -2 3 -6
-7 -11 0 0 0 -2 2 -9
8 14 13 16 14 13 16 5
-12 2 12 16 10 9 13 4
-16 -12 7 10 5 6 8 -4
8 -9 4 8 3 5 6 -6
-1 -14 5 11 4 6 7 -6
-19 -22 11 15 9 14 14 0
-17 -17 12 17 13 19 17 3
17 -5 3 9 6 13 11 -3
25 -1 -3 5 1 8 7 -8
1 -9 -3 4 -3 5 3 -11
-8 -9 2 11 2 9 9 -5
11 -4 0 13 1 9 8 -6
19 -15 -10 1 -9 -1 -2 -16
22 -4 -4 11 3 8 9 -6
4 -1 2 19 13 18 17 2
-13 -12 4 17 13 20 19 3
-28 -11 19 24 20 26 26 11
-32 -10 23 25 20 25 25 9
8 -10 7 11 8 10 11 -2
-5 -13 5 10 4 4 8 -4
-15 -13 2 9 1 -2 3 -7
-14 -22 -8 3 -7 -13 -6 -16
-1 -14 -9 5 -6 -12 -6 -15
2 -6 -2 14 1 -3 5 -6
12 2 5 19 7 2 8 -2
-4 -11 -2 14 7 -1 6 -5
-6 -15 -9 11 4 -2 5 -6
-2 -9 -6 12 5 -2 6 -6
4 -3 0 12 8 1 8 -3
-8 -4 3 14 8 1 9 -2
12 5 -2 12 0 -4 3 -6
27 7 -9 12 0 -7 2 -6
24 8 -7 15 2 -5 7 -4
18 11 -2 19 7 -1 11 -1
7 5 0 22 12 2 13 1
-18 -10 3 18 10 0 12 1
-22 -12 7 18 11 3 15 2
-13 -6 7 19 13 4 17 3
8 6 5 21 16 3 17 5
13 14 6 25 18 9 22 9
-7 -6 -5 16 5 1 11 -3
-16 -4 0 18 8 5 11 -1
-1 1 2 18 8 7 9 -1
11 4 2 19 6 11 10 -3
-11 -4 6 22 10 18 15 -1
-9 -6 3 20 9 17 13 -1
-6 -6 -3 16 4 12 6 -6
-15 -17 -10 11 0 9 1 -12
1 -6 -8 10 1 11 2 -10
2 -2 -2 11 3 18 8 -6
-11 -6 -3 14 3 22 12 -3
-23 -10 -5 14 2 21 10 -3
-24 -17 -6 14 0 18 9 -2
-21 -11 -3 16 2 20 11 1
-21 -6 -1 15 0 19 8 -3
-21 -9 -4 8 -4 15 5 -9
-6 0 -3 6 -6 15 5 -9
-1 6 -5 3 -11 10 1 -12
0 -4 -12 -1 -14 3 -4 -17
3 -3 -11 -3 -15 2 -5 -17
-13 -7 -6 1 -14 3 -2 -15
-32 -10 1 9 -9 7 4 -8
-36 -20 -4 4 -16 -2 -3 -14
-22 -18 -3 2 -18 -4 -5 -15
-4 -7 -2 1 -18 -5 -4 -14
-19 -18 -7 -6 -23 -12 -9 -20
-35 -20 -4 -8 -24 -12 -11 -21
-18 -8 -5 -11 -28 -17 -14 -25
-32 -7 -2 -10 -26 -14 -10 -20
-52 -14 -1 -10 -27 -18 -9 -19
-22 -12 -8 -18 -36 -29 -18 -26
17 -23 -26 -37 -54 -48 -38 -45
-17 -38 -26 -34 -55 -52 -39 -45
-47 -33 -14 -22 -43 -38 -25 -30
-42 -23 -5 -15 -33 -28 -15 -22
-33 -21 2 -16 -32 -27 -14 -22
-42 -33 -5 -26 -41 -35 -25 -30
-34 -16 -3 -21 -38 -30 -22 -25
-34 -18 -3 -25 -43 -31 -25 -29
-32 -37 -19 -47 -65 -50 -46 -50
-45 -35 -13 -42 -65 -44 -43 -47
-37 -23 -2 -34 -55 -34 -34 -37
-45 -37 -4 -35 -58 -37 -38 -39
-50 -46 -14 -41 -65 -44 -44 -46
-33 -39 -8 -38 -61 -37 -39 -42
-18 -41 -9 -44 -65 -41 -44 -46
-36 -51 -13 -49 -69 -45 -48 -53
-43 -41 -4 -40 -60 -36 -41 -44
-54 -44 -12 -44 -66 -46 -49 -50
-62 -41 -14 -39 -64 -47 -45 -45
-46 -33 -9 -37 -63 -49 -44 -43
-35 -30 -5 -39 -66 -55 -49 -48
-38 -32 -3 -38 -68 -53 -48 -49
-38 -30 0 -34 -61 -46 -44 -42
-32 -44 -20 -46 -70 -56 -56 -54
-51 -55 -21 -45 -67 -50 -52 -51
-63 -48 -9 -33 -56 -35 -40 -40
-25 -32 -6 -31 -52 -32 -38 -40
-22 -26 -8 -30 -54 -34 -39 -40
-61 -38 -9 -31 -57 -37 -43 -41
-56 -40 -11 -34 -60 -37 -43 -43
-43 -28 -7 -28 -52 -29 -38 -36
-48 -34 -8 -27 -53 -31 -41 -38
-37 -36 -13 -31 -55 -31 -41 -40
-11 -24 -13 -30 -51 -28 -38 -41
-16 -25 -10 -26 -46 -23 -32 -36
-41 -31 -6 -20 -39 -14 -27 -30
-49 -27 -1 -11 -32 -7 -20 -22
-43 -23 6 -7 -26 -1 -16 -19
-17 -16 -2 -13 -31 -8 -22 -23
-15 -18 -10 -16 -36 -16 -28 -27
-23 -7 3 0 -22 -5 -16 -13
-17 -1 2 4 -19 -6 -15 -12
-11 -15 -10 -5 -27 -18 -24 -22
7 -13 -11 -6 -26 -18 -24 -25
14 -10 -6 0 -18 -13 -18 -18
-18 -21 1 6 -9 -6 -12 -13
-29 -20 4 12 -7 -6 -10 -10
-6 -14 2 9 -11 -7 -11 -11
0 -18 -5 6 -16 -11 -14 -14
-9 -14 -4 8 -15 -11 -17 -13
-15 -8 0 10 -7 -5 -10 -7
-23 -3 7 13 3 4 -1 2
-30 -5 9 12 4 5 1 2
-9 6 13 13 11 7 5 4
-6 -1 4 7 6 2 -1 -3
-2 -3 -6 -2 0 -3 -6 -8
-5 -4 -10 -5 -2 -5 -11 -10
-27 -15 -15 -10 -9 -9 -16 -13
-18 -7 -9 -5 -1 3 -9 -6
-21 -8 -5 0 4 10 -4 -1
-19 6 4 10 11 20 4 5
-12 10 8 16 17 28 10 10
-3 2 -3 9 9 19 -2 3
27 8 -7 2 3 13 -8 -2
37 7 -10 -3 2 11 -10 -8
16 4 -5 -1 4 16 -6 -6
13 3 -6 -4 3 16 -7 -7
11 -5 -11 -8 -2 15 -10 -10
16 -3 -11 -7 -3 13 -11 -9
25 -3 -7 -8 -2 13 -12 -8
43 20 1 6 11 23 -1 3
31 20 7 10 15 27 3 6
-7 2 8 12 16 28 3 5
-20 5 12 21 27 38 13 14
-8 7 10 18 25 36 9 10
-20 3 10 18 25 37 9 11
-11 16 12 16 27 40 11 13
5 23 8 16 25 40 11 11
18 26 -2 12 19 33 4 6
42 29 3 11 17 29 3 4
36 29 9 15 23 30 6 7
17 13 1 12 18 21 -1 2
7 9 7 16 24 24 3 7
-13 8 16 28 37 33 15 17
-21 18 25 36 44 41 24 25
9 24 17 27 36 32 17 17
18 28 9 20 28 23 9 12
10 19 9 16 24 19 4 8
9 18 5 15 21 17 4 5
12 25 0 14 20 14 3 5
7 24 -4 11 17 8 -3 2
-3 21 4 18 20 11 1 7
9 21 5 21 25 14 3 8
27 12 -3 14 22 11 0 3
28 14 -4 15 24 14 3 5
28 11 -7 10 21 11 0 2
26 10 -14 3 14 5 -5 -3
23 8 -17 0 7 -3 -10 -7
16 9 -14 3 9 0 -9 -5
28 16 -16 1 9 -1 -9 -6
6 17 -11 3 10 1 -7 -3
-11 16 3 12 18 9 0 5
11 23 6 15 19 9 0 6
16 10 -2 8 13 3 -6 -2
-4 -3 -4 8 14 4 -7 -1
-1 2 -2 9 16 5 -5 2
6 8 -2 8 16 8 -2 2
3 4 -6 5 12 3 -7 0
5 5 -12 4 7 -3 -12 -2
31 10 -14 0 4 -8 -15 -6
14 1 -14 0 3 -11 -17 -9
23 3 -11 1 3 -10 -16 -9
25 5 -11 2 3 -11 -16 -10
24 -3 -13 0 3 -13 -20 -14
33 -6 -14 -4 5 -13 -20 -13
18 1 -6 2 12 -4 -11 -5
-9 -17 -14 -6 0 -13 -19 -13
14 -12 -14 -8 -1 -12 -18 -13
9 8 -1 8 12 0 -4 1
3 4 -4 4 7 -6 -10 -3
17 7 -7 4 6 -9 -13 -5
13 3 -13 3 3 -11 -14 -8
35 -1 -24 -7 -7 -22 -25 -18
36 -4 -19 -9 -7 -23 -27 -19
-5 -6 -7 5 5 -11 -16 -8
-10 -9 -7 5 7 -9 -14 -6
-1 -18 -21 -7 -6 -24 -26 -20
-12 -15 -7 0 4 -14 -17 -11
-6 -8 -4 1 5 -16 -17 -10
19 -7 -12 -7 -6 -25 -26 -17
30 0 -12 -5 -5 -22 -23 -17
9 5 -4 5 5 -10 -14 -8
-15 -10 -9 4 2 -11 -18 -11
-5 -19 -16 -3 -3 -13 -23 -17
13 -17 -20 -8 -8 -17 -28 -23
13 -16 -19 -9 -9 -14 -26 -24
44 -5 -20 -13 -14 -18 -32 -30
45 -3 -19 -15 -15 -17 -32 -30
15 -8 -13 -9 -8 -7 -23 -20
8 -11 -10 -9 -11 -8 -25 -21
-3 -5 -3 2 -1 1 -16 -12
-4 4 2 15 11 14 -4 -1
3 2 -3 11 7 9 -9 -6
-17 -6 2 14 9 12 -7 -5
-4 -3 0 14 10 13 -6 -7
45 12 -7 4 -1 4 -14 -16
34 -1 -12 -5 -12 -6 -25 -25
10 -11 -10 -4 -12 -4 -24 -24
7 -11 -6 -3 -10 -2 -21 -22
28 3 -2 0 -5 1 -18 -18
21 1 -2 0 -5 1 -18 -19
13 -12 -6 -5 -8 -4 -23 -22
26 -11 -9 -3 -8 -4 -22 -23
30 -18 -21 -8 -15 -11 -30 -29
22 -19 -18 -6 -10 -6 -25 -27
15 -1 4 8 6 9 -9 -11
-13 -6 5 8 5 7 -8 -11
-14 -13 -3 1 -3 0 -17 -20
5 -6 -8 -2 -9 -6 -20 -24
4 -4 -4 2 -5 -3 -16 -21
-6 -1 1 8 2 1 -8 -12
6 -3 -5 6 -1 -4 -14 -14
15 -8 -4 3 -4 -8 -17 -19
-7 -13 6 9 5 -6 -13 -13
-4 -9 10 15 11 -3 -9 -8
45 4 3 11 4 -9 -13 -13
28 -4 -5 3 -5 -19 -22 -21
-1 -8 1 8 1 -12 -15 -14
-4 -8 -3 8 0 -15 -16 -16
-5 -8 -5 8 -1 -19 -20 -19
19 -1 -5 8 -3 -22 -21 -20
37 1 -5 8 -1 -23 -21 -21
18 -7 -6 7 -2 -21 -20 -19
-8 -24 -10 6 -2 -23 -22 -20
-10 -23 -7 10 2 -21 -19 -19
-12 -19 6 20 16 -11 -7 -11
1 2 18 36 30 2 5 -2
8 13 21 46 40 9 11 8
22 19 17 49 45 14 14 10
25 31 17 60 58 24 23 20
27 47 23 81 76 42 45 39
43 53 23 93 90 53 55 47
60 63 26 103 103 65 68 59
58 73 31 120 127 88 90 79
60 88 28 130 143 106 108 96
102 116 27 136 159 129 134 120
138 151 28 144 178 154 161 147
129 158 22 145 191 172 180 169
137 162 6 138 194 178 189 178
158 184 -1 130 193 181 193 187
158 196 1 119 179 174 189 186
114 182 8 108 164 160 177 178
102 171 8 92 141 134 152 155
110 155 4 71 113 104 122 125
91 141 11 54 92 85 103 106
75 114 6 25 54 47 67 71
21 64 -2 -6 16 8 29 36
-23 28 -4 -26 -8 -18 4 12
-9 13 -13 -47 -35 -45 -22 -13
-10 -1 -12 -56 -52 -61 -37 -29
-22 -7 -8 -54 -55 -67 -41 -34
-7 -5 -8 -50 -51 -67 -42 -35
1 9 6 -32 -34 -51 -28 -23
-10 13 12 -18 -19 -39 -15 -12
-36 4 14 -11 -9 -32 -9 -6
-15 21 19 -1 1 -20 1 0
-6 15 9 -3 -5 -27 -8 -8
-25 -7 5 -6 -7 -32 -10 -14
8 9 9 -1 -2 -29 -7 -11
23 12 8 4 -2 -30 -10 -11
1 -2 7 5 -3 -33 -13 -13
11 0 7 9 -1 -30 -11 -14
9 -4 5 11 0 -27 -7 -12
8 -5 7 12 5 -23 -3 -6
13 -9 1 5 -2 -29 -9 -13
-2 -14 3 3 -3 -25 -10 -15
-22 -10 15 13 5 -13 1 -6
-8 -9 13 9 5 -9 0 -11
19 -14 -7 -8 -11 -24 -18 -28
21 -8 -4 -2 -11 -20 -17 -24
1 -18 -4 1 -12 -18 -15 -23
-12 -34 -6 -1 -12 -19 -17 -25
-2 -16 9 16 3 -2 -2 -8
-5 -11 14 23 12 8 5 -1
-6 -14 8 16 6 2 2 -8
17 -9 10 9 1 0 -3 -13
20 -8 5 3 -6 -4 -8 -17
23 -11 -5 -5 -15 -13 -16 -27
21 -12 -7 -6 -17 -16 -20 -28
13 -9 3 3 -8 -5 -12 -20
2 -10 8 10 -2 1 -5 -13
-4 -12 13 17 4 9 2 -7
7 1 16 23 10 15 7 -3
4 -6 14 20 8 13 6 -5
2 -6 13 17 7 13 6 -5
-26 -17 8 13 4 12 5 -7
-33 -22 5 8 -1 8 2 -10
11 -5 7 7 -3 7 1 -11
36 11 6 8 -3 6 1 -11
30 10 9 12 1 10 5 -8
14 2 7 14 0 8 6 -8
-8 -14 10 15 2 11 6 -6
-6 -8 11 18 6 14 10 -2
-11 -9 10 18 5 15 11 -3
-11 -19 6 12 2 11 8 -7
8 -14 6 11 2 12 9 -7
8 -4 13 17 9 17 15 0
-7 0 19 23 13 22 18 4
24 4 4 9 -1 5 4 -9
18 -3 0 5 -6 -1 -1 -12
10 -6 -2 6 -7 -3 -2 -12
32 -10 -9 -1 -13 -11 -9 -20
32 -2 -3 5 -4 -3 0 -11
14 -6 1 9 -1 2 4 -6
13 -16 0 3 -5 -3 2 -9
5 -26 0 2 -3 -4 2 -9
-17 -13 12 15 9 6 16 5
2 -11 8 9 1 -4 9 -1
34 2 1 3 -4 -15 3 -7
22 7 3 7 -2 -13 4 -3
10 -4 0 7 -4 -16 2 -3
-15 -12 6 15 2 -13 9 2
-17 -7 11 21 9 -8 14 7
16 -8 1 9 -1 -17 6 -2
40 -8 -10 -4 -12 -27 -6 -14
17 -16 -3 0 -5 -22 1 -8
-15 -6 13 16 12 -7 16 8
-11 -1 12 16 9 -9 14 9
-24 -4 11 16 8 -12 13 8
-18 1 9 17 7 -13 12 8
-8 6 6 18 6 -13 11 7
-9 -4 2 15 2 -18 8 3
-18 -10 -2 12 -1 -22 5 -1
-20 -12 -3 12 2 -20 6 1
-14 -2 -1 13 6 -17 9 3
-9 -2 1 13 8 -17 12 2
1 -14 -8 3 -3 -26 2 -7
13 -6 0 7 1 -22 5 -3
13 4 6 12 5 -18 10 3
15 -7 1 7 -1 -24 6 -1
16 -5 -2 8 -3 -26 5 -1
-19 -17 -4 5 -5 -27 4 -1
-10 -3 1 11 -1 -21 9 4
13 5 -1 9 -3 -24 8 2
39 15 1 9 -1 -22 9 3
21 2 -3 5 -5 -26 6 -1
-3 -13 -2 1 -8 -30 2 -3
4 -10 1 1 -8 -31 2 -5
-3 -7 1 1 -8 -32 0 -5
-12 -14 -1 -1 -10 -33 -2 -6
-24 -13 5 7 -3 -27 5 1
-4 -7 4 5 -5 -29 3 -1
6 -7 -3 -1 -11 -34 -2 -6
6 -12 -8 -7 -18 -39 -8 -11
-6 -12 -4 -5 -15 -37 -3 -8
-1 -4 0 -5 -12 -34 -2 -6
-6 -1 -4 -8 -16 -38 -5 -9
-18 -4 1 -7 -15 -37 -1 -5
-32 -2 10 -2 -12 -33 3 1
-24 -3 9 -6 -17 -35 0 -1
-6 -5 3 -10 -23 -42 -6 -5
-22 -13 3 -10 -23 -43 -6 -5
-31 -27 -6 -16 -30 -51 -14 -13
-30 -26 0 -14 -28 -48 -12 -11
-27 -15 4 -13 -25 -45 -8 -10
-34 -27 -2 -22 -32 -50 -17 -18
-9 -20 -8 -32 -41 -59 -26 -27
5 -15 -10 -35 -43 -62 -29 -30
-31 -15 3 -22 -33 -52 -18 -18
-59 -21 5 -24 -33 -52 -18 -17
-58 -27 1 -30 -38 -58 -22 -21
-32 -15 4 -28 -36 -53 -18 -17
-30 -25 -5 -35 -46 -62 -25 -24
-57 -41 -1 -34 -45 -59 -22 -22
-45 -39 -3 -39 -49 -63 -26 -25
-47 -33 3 -38 -45 -59 -23 -21
-42 -22 2 -39 -48 -62 -25 -23
-32 -21 -5 -48 -57 -71 -36 -33
-32 -25 -8 -54 -64 -78 -44 -38
-30 -31 -10 -57 -68 -81 -48 -42
-25 -39 -13 -58 -73 -85 -52 -45
-40 -46 -6 -53 -68 -80 -47 -41
-48 -41 0 -47 -62 -76 -43 -35
-35 -48 -8 -59 -71 -83 -50 -45
-45 -54 -7 -60 -72 -82 -49 -44
-64 -59 0 -57 -67 -76 -44 -38
-41 -49 -4 -59 -70 -79 -47 -41
-35 -43 -4 -59 -70 -81 -48 -43
-42 -31 1 -53 -66 -76 -45 -36
-54 -36 0 -53 -66 -75 -45 -37
-52 -45 -12 -62 -78 -87 -56 -48
-26 -44 -18 -67 -83 -92 -60 -52
-15 -37 -13 -60 -75 -86 -56 -47
-41 -36 1 -45 -57 -69 -40 -34
-32 -18 14 -34 -43 -55 -27 -21
-24 -34 -2 -50 -60 -71 -44 -39
-46 -48 -11 -56 -67 -79 -52 -48
-67 -46 4 -42 -51 -65 -37 -35
-59 -36 3 -42 -51 -65 -37 -33
-45 -29 3 -40 -48 -62 -36 -31
-36 -17 6 -35 -45 -58 -31 -25
-13 -15 -1 -38 -50 -61 -35 -30
-7 -22 -10 -41 -54 -68 -41 -36
-20 -23 -7 -34 -44 -61 -35 -31
-18 -27 -8 -32 -40 -60 -33 -32
-38 -37 -5 -29 -35 -55 -31 -27
-37 -29 -3 -28 -34 -52 -28 -24
-26 -27 -5 -31 -36 -55 -34 -27
-33 -27 -2 -26 -30 -49 -29 -23
-22 -20 1 -20 -25 -45 -27 -20
-50 -23 6 -10 -17 -37 -20 -14
-57 -22 11 -1 -8 -28 -13 -8
-11 -13 1 -7 -14 -35 -19 -12
3 -10 1 -10 -13 -32 -17 -12
-4 -7 4 -7 -10 -28 -12 -8
-19 -21 5 -9 -11 -29 -14 -9
-6 -18 0 -12 -15 -33 -19 -12
17 1 5 -6 -9 -25 -11 -6
10 1 8 -1 -3 -21 -7 -1
0 -4 7 1 -2 -21 -7 -1
12 2 6 3 -3 -22 -7 -1
-18 -12 4 7 -1 -20 -7 -1
-38 -18 -2 8 -1 -21 -10 -3
2 -4 0 7 4 -18 -9 -4
17 2 3 9 6 -16 -8 -4
-4 -11 1 4 3 -20 -11 -8
-15 -4 9 10 10 -13 -3 -3
-16 3 18 16 18 -4 4 6
-6 0 9 10 10 -12 -4 2
1 1 11 14 14 -9 0 5
-9 14 21 27 24 2 9 17
-29 5 21 31 25 2 11 18
-19 2 12 23 19 -5 4 11
-4 0 8 19 15 -8 -1 7
-5 -1 8 19 14 -6 -2 6
8 2 7 17 15 -6 -1 6
17 5 5 16 13 -7 -2 4
14 0 8 17 17 -4 1 5
19 -4 -2 9 8 -14 -8 -4
20 -1 1 12 13 -11 -4 1
24 8 2 18 18 -6 -1 7
11 6 3 21 20 -3 1 10
20 4 2 17 17 -7 -1 7
30 16 13 26 27 4 9 17
16 25 25 39 37 16 22 30
6 13 21 33 33 12 18 25
-18 -1 15 28 26 4 9 16
-6 2 16 26 25 3 6 13
25 15 14 24 22 -1 3 9
25 10 8 18 14 -7 -3 1
-13 10 26 34 31 11 14 17
4 15 25 35 30 11 14 18
15 6 11 23 17 -2 1 6
0 5 17 28 24 6 9 12
-5 11 24 36 33 14 18 21
0 13 29 39 38 20 23 26
11 14 21 33 29 12 13 17
-5 5 15 25 23 6 7 10
-5 15 21 30 28 11 11 15
29 22 10 23 19 2 2 7
11 7 0 17 10 -6 -5 0
-1 3 8 23 15 0 2 6
12 19 19 33 27 12 12 16
28 13 14 26 21 7 7 9
23 2 8 20 18 2 1 2
13 9 17 28 29 15 10 10
12 17 19 29 31 17 14 14
0 16 19 29 30 17 15 16
-16 10 17 28 28 16 14 16
-13 10 13 25 21 11 11 16
-4 15 5 19 12 3 5 11
6 18 6 20 13 4 5 11
1 12 7 23 14 5 5 11
8 8 7 21 14 3 2 9
2 2 9 21 17 5 4 7
19 6 8 22 18 6 3 5
36 4 0 13 12 -2 -6 -4
4 -12 1 11 12 -3 -9 -7
4 -6 5 13 15 -1 -7 -6
-1 -5 10 19 19 3 -2 0
-12 -6 11 21 19 4 -1 1
8 2 12 20 16 6 0 1
13 3 9 14 12 6 1 0
7 -1 7 11 9 6 1 0
-2 -8 6 9 6 4 2 -1
14 -9 1 1 1 -3 -3 -6
35 -1 -5 -4 -4 -9 -8 -10
48 1 -7 -8 -6 -11 -11 -12
39 -3 -8 -8 -7 -15 -14 -15
9 -7 -1 1 0 -10 -11 -8
-2 -15 -5 -1 -5 -16 -17 -13
-3 -22 -5 0 -5 -18 -21 -17
20 -12 -3 1 -2 -15 -20 -17
47 -7 -4 -3 -4 -15 -21 -20
28 -7 -2 -2 -2 -14 -18 -18
11 -11 1 -2 0 -9 -13 -15
5 -11 7 0 4 -6 -8 -9
7 -9 6 -4 2 -7 -9 -11
-11 -8 11 2 7 -3 -2 -4
-22 -2 18 11 15 7 7 6
2 1 8 3 3 -4 -2 -1
8 3 4 2 0 -6 -3 -3
-17 -3 4 6 0 -6 -4 -2
-6 -8 2 1 -1 -8 -6 -5
18 2 3 3 1 -8 -6 -7
22 6 10 5 4 -7 -4 -6
22 -1 5 -1 -2 -13 -11 -13
31 -5 1 -5 -6 -17 -16 -18
15 -15 -4 -9 -9 -21 -20 -23
-3 -19 -1 -3 -5 -16 -16 -17
-24 -16 8 7 4 -7 -6 -7
-13 -16 7 5 6 -7 -2 -7
16 -11 0 -3 -2 -13 -8 -13
39 -8 -5 -12 -9 -18 -14 -20
35 -3 3 -4 -3 -11 -6 -13
26 1 7 1 1 -6 -1 -9
6 -10 4 -4 -6 -11 -6 -13
-1 -12 5 -6 -7 -11 -6 -14
1 2 13 2 2 -3 1 -4
-9 -4 16 5 5 -1 5 -1
-6 -21 1 -8 -12 -18 -12 -16
18 -29 -9 -20 -22 -29 -23 -27
20 -14 7 -4 -6 -14 -7 -12
4 -10 16 5 6 -4 3 -4
6 -17 6 -2 -1 -12 -4 -11
36 -5 5 -1 1 -11 -4 -11
14 -10 1 -3 -3 -13 -7 -15
1 -18 2 -6 -5 -14 -7 -16
11 -6 6 -4 -4 -12 -3 -12
19 2 6 -4 -5 -13 -3 -12
29 -4 -2 -10 -13 -22 -11 -19
3 -25 -7 -16 -19 -28 -16 -22
11 -15 6 -7 -7 -16 -3 -11
-2 -18 8 -4 -3 -13 0 -10
3 -4 16 4 7 -4 8 -3
7 7 24 11 16 3 15 2
-1 -5 12 1 7 -7 5 -8
-1 -12 10 -2 5 -10 2 -11
3 -6 8 -2 4 -13 0 -12
-2 -1 10 2 6 -10 3 -7
3 3 12 4 6 -11 2 -5
15 1 11 5 7 -12 3 -5
9 -5 6 3 4 -14 -1 -8
3 -14 6 2 7 -10 2 -7
-2 -14 11 7 13 -7 6 -3
14 -4 15 11 20 -1 12 0
25 -1 13 12 20 -2 11 -4
16 10 24 25 30 7 20 4
14 20 28 35 39 13 27 12
-1 26 35 53 54 27 42 26
-14 34 40 71 70 42 59 42
-7 36 38 83 85 53 71 53
15 45 33 92 96 61 78 59
36 44 26 90 100 68 85 62
68 74 33 103 121 90 106 82
90 109 49 127 152 121 139 115
76 107 44 134 166 139 157 133
100 133 46 147 190 170 189 164
107 160 37 151 204 190 213 189
115 178 27 152 215 207 232 209
129 205 24 156 223 219 248 229
139 214 22 142 212 211 241 225
131 214 27 127 192 191 223 213
99 193 29 108 165 161 194 188
87 176 31 94 144 138 168 161
72 170 42 81 128 119 150 144
38 132 31 47 85 77 109 104
24 92 22 13 44 37 70 66
-1 67 19 -11 11 8 40 38
-44 28 14 -32 -19 -20 13 14
-35 16 7 -49 -41 -43 -7 -6
-57 7 15 -42 -38 -42 -6 -7
-45 -2 6 -48 -46 -51 -16 -19
-22 -6 1 -48 -46 -56 -22 -27
-30 10 18 -22 -19 -32 1 -6
-13 23 28 -6 -1 -17 16 7
-7 14 14 -13 -10 -27 6 -3
-15 11 18 -6 -3 -21 13 4
2 10 9 -9 -9 -28 6 -1
2 2 10 -4 -7 -27 6 -3
2 0 13 6 0 -25 9 -1
1 -7 10 7 2 -26 6 -3
-3 -2 16 15 8 -21 11 2
-8 -8 15 14 8 -21 11 1
2 -9 5 2 0 -29 2 -8
9 -12 5 -1 -1 -29 4 -8
28 3 13 6 6 -21 9 -1
4 -16 5 0 -2 -31 1 -9
-5 -24 -1 -7 -9 -38 -5 -15
11 -12 3 -2 -6 -38 -4 -12
15 -9 4 0 -7 -39 -5 -15
29 -7 12 8 1 -30 2 -9
15 -9 15 16 8 -24 8 -3
-5 -14 23 23 17 -15 17 4
-13 -19 14 17 10 -21 11 -2
-12 -20 8 11 7 -25 8 -6
-21 -10 15 16 14 -21 14 1
-29 -7 17 20 14 -19 14 3
4 2 7 12 4 -28 7 -3
39 15 9 12 7 -27 8 -2
44 12 1 4 -2 -37 -2 -11
16 -10 2 5 -2 -36 0 -12
-3 -6 15 17 9 -25 11 0
5 -3 13 16 9 -23 12 0
-3 -3 12 17 10 -23 11 2
-11 -14 9 15 9 -27 8 -1
13 -15 0 5 0 -37 -2 -10
24 -11 3 7 1 -33 -1 -8
16 -5 0 6 -2 -37 -4 -8
-9 -8 6 10 3 -33 1 -4
-17 -7 9 15 6 -31 3 -1
3 -19 -2 9 -1 -39 -4 -11
1 -20 0 12 4 -35 -1 -8
-9 -18 5 17 9 -28 5 -2
-12 -22 4 14 8 -30 5 -2
-7 -25 4 10 7 -31 5 -3
-2 -11 10 16 11 -26 9 4
0 -4 14 19 15 -22 13 9
-7 1 16 23 17 -21 16 12
0 0 8 16 10 -28 8 5
7 -2 5 15 8 -31 5 3
-3 -15 3 15 6 -34 2 0
7 -23 -1 8 1 -40 -3 -6
31 -13 3 9 4 -36 -1 -3
9 -12 7 16 9 -30 3 2
-22 -30 6 15 9 -30 4 1
-10 -20 7 13 11 -28 3 2
-7 -23 2 8 6 -32 -1 -3
-10 -17 5 9 8 -30 1 1
-13 -7 8 12 11 -26 6 6
-34 -5 10 18 16 -23 10 12
-12 -1 8 19 15 -22 10 12
31 2 -11 5 0 -36 -4 -2
19 2 -4 11 8 -27 4 5
9 -4 -4 14 9 -26 5 8
13 -10 -4 12 9 -27 3 6
7 -4 2 17 15 -22 9 10
-1 -10 -1 14 14 -25 6 8
4 1 3 18 17 -22 9 12
5 3 1 15 15 -26 5 9
27 4 -9 5 3 -38 -6 1
26 -3 -11 2 -2 -41 -11 -1
4 4 0 15 11 -29 1 11
-6 2 2 20 17 -25 2 14
-13 -1 -1 20 18 -25 1 15
7 -10 -11 10 8 -34 -8 4
8 -34 -27 -8 -9 -51 -25 -14
21 -22 -22 -4 -1 -45 -20 -9
9 -5 -9 11 14 -31 -7 4
-16 -10 -1 16 19 -24 -1 10
-16 -8 -2 18 19 -22 1 12
10 -3 -8 11 12 -27 -4 8
34 10 -11 9 8 -32 -9 6
-8 -6 -12 10 8 -32 -7 6
-25 -7 -6 14 12 -27 -2 13
-19 -17 -7 9 8 -32 -6 9
-31 -25 -13 4 2 -40 -13 2
-3 -14 -7 5 7 -38 -13 3
16 -9 -12 -2 1 -45 -21 -2
18 -11 -20 -8 -5 -51 -29 -9
3 -5 -16 -1 -1 -46 -25 -3
-17 -4 -8 8 7 -37 -17 4
-20 -10 -8 8 6 -38 -18 3
-7 -18 -15 0 0 -45 -25 -4
1 -20 -21 -6 -5 -49 -32 -8
-7 -22 -15 -6 -2 -45 -29 -6
-8 -10 -8 -3 1 -41 -25 -2
17 9 -7 -6 0 -40 -24 -1
22 14 -3 -9 -3 -43 -23 2
-15 1 1 -6 -4 -42 -22 5
-17 -12 -9 -18 -18 -55 -35 -6
-25 -20 -9 -20 -18 -56 -35 -7
-42 -16 4 -7 -6 -47 -26 4
-20 -21 -6 -13 -12 -56 -35 -6
-2 -15 -12 -18 -17 -62 -42 -11
-15 -16 -4 -17 -13 -56 -37 -6
1 -18 -18 -34 -30 -70 -53 -22
3 -27 -27 -50 -48 -82 -68 -34
-11 -17 -12 -36 -38 -65 -54 -20
-24 -19 -7 -33 -37 -61 -54 -19
-39 -27 -11 -37 -42 -63 -60 -24
-41 -31 -6 -34 -37 -56 -54 -19
-45 -35 -6 -35 -40 -58 -57 -21
-41 -44 -12 -43 -47 -65 -65 -28
-24 -43 -15 -49 -51 -67 -70 -34
-31 -42 -12 -47 -48 -64 -66 -32
-37 -31 -6 -45 -44 -59 -63 -29
-40 -35 -13 -56 -56 -67 -71 -36
-63 -39 -12 -59 -62 -70 -72 -36
-61 -36 -8 -53 -58 -66 -68 -32
-29 -27 -14 -53 -63 -70 -72 -37
-33 -42 -19 -58 -66 -75 -76 -44
-38 -46 -18 -58 -69 -75 -76 -44
-44 -47 -13 -56 -67 -72 -74 -43
-62 -50 -6 -52 -62 -65 -67 -39
-58 -47 -3 -51 -60 -62 -65 -39
-53 -41 -7 -52 -63 -66 -69 -43
-55 -48 -15 -58 -69 -73 -75 -50
-55 -52 -23 -65 -76 -83 -84 -56
-69 -65 -25 -71 -80 -87 -87 -60
-49 -49 -20 -66 -78 -82 -82 -55
-32 -36 -12 -58 -71 -74 -72 -45
-23 -28 -9 -52 -66 -69 -69 -42
-34 -34 -9 -53 -66 -70 -68 -44
-27 -30 -5 -48 -62 -64 -64 -40
-28 -31 -1 -48 -60 -62 -59 -39
-40 -31 0 -48 -61 -61 -57 -37
-25 -22 5 -44 -54 -55 -50 -30
-35 -10 13 -35 -46 -48 -43 -21
-51 -2 20 -26 -36 -42 -37 -14
-44 -9 13 -29 -39 -46 -42 -19
-42 -13 8 -27 -36 -44 -40 -18
-41 1 15 -16 -23 -34 -31 -7
-34 4 16 -14 -18 -31 -25 -3
-29 -1 9 -18 -22 -35 -31 -8
-33 -16 6 -20 -23 -36 -31 -11
-13 -12 1 -21 -25 -36 -33 -13
-9 -10 -3 -22 -26 -36 -32 -15
-27 -4 4 -13 -16 -25 -22 -5
-20 5 11 -7 -7 -18 -13 4
10 12 1 -13 -16 -26 -21 -2
3 2 -3 -16 -19 -31 -22 -4
-12 8 2 -2 -9 -22 -14 4
-24 2 3 2 -3 -19 -11 5
-25 -7 -4 -6 -7 -23 -17 1
-13 -9 -2 -9 -7 -24 -16 1
-33 -12 3 -7 -3 -20 -13 2
-31 -10 2 -9 -3 -21 -14 0
-3 -12 -11 -21 -17 -33 -27 -12
28 -15 -18 -27 -25 -41 -34 -19
30 -9 -19 -23 -23 -41 -34 -16
-8 -15 -9 -11 -11 -32 -23 -5
-2 -10 -10 -8 -7 -28 -19 -2
12 -5 -8 -3 -1 -25 -16 -1
22 0 -4 -1 4 -22 -14 0
17 -3 -5 -2 2 -24 -15 0
-14 -7 -5 -4 0 -26 -15 0
-29 -10 1 -1 5 -24 -11 4
-8 -5 -1 -2 4 -28 -13 2
-1 -9 -1 -2 4 -31 -14 2
-3 -5 1 2 8 -28 -10 6
-12 -5 7 5 13 -26 -4 11
13 1 4 1 9 -30 -6 7
-3 -15 -3 -2 4 -37 -13 2
-7 -18 -4 -2 3 -39 -12 0
17 -3 -1 2 9 -32 -6 6
11 -6 -11 -6 1 -41 -14 -2
2 -13 -15 -11 -3 -48 -18 -5
6 3 -9 -4 7 -42 -10 4
-8 -1 -5 0 10 -43 -8 6
-5 -6 -1 4 11 -43 -7 8
5 0 -2 8 12 -45 -8 11
-1 -2 -1 10 10 -44 -6 13
-10 -21 -6 4 4 -51 -11 5
-6 -16 -5 5 6 -49 -10 5
29 -5 -6 3 6 -50 -10 2
23 -14 -18 -9 -6 -63 -23 -10
2 -15 -14 -6 -3 -59 -18 -5
2 -13 -13 -4 0 -58 -17 -4
10 -16 -17 -6 -2 -63 -20 -8
12 -8 -10 1 5 -58 -15 0
7 -10 -9 1 4 -59 -17 0
-3 -11 -7 4 3 -59 -16 0
-12 -13 0 8 9 -53 -11 3
-4 -4 8 14 15 -46 -5 8
0 -8 7 11 13 -46 -5 7
17 -8 -5 -1 1 -53 -13 -2
16 -5 -9 -4 -2 -53 -15 -3
-7 -15 -11 -2 -6 -52 -19 -5
9 -11 -14 -5 -9 -53 -21 -8
4 -2 -15 -1 -7 -52 -20 -7
-11 -21 -24 -5 -13 -60 -28 -14
-8 -25 -22 -5 -11 -60 -28 -15
27 -9 -11 -3 -4 -50 -22 -11
30 -10 -10 -2 -1 -47 -21 -14
-4 -14 -2 8 10 -36 -13 -6
-8 -10 -4 8 11 -35 -14 -5
6 0 -4 5 9 -35 -15 -6
-13 -11 -8 -2 -1 -44 -21 -12
-4 -21 -14 -12 -16 -53 -31 -20
17 -4 -6 -4 -12 -48 -26 -12
9 -5 -1 3 -5 -43 -20 -9
-3 -18 -5 6 -3 -42 -21 -11
-6 -18 -3 9 3 -34 -15 -6
0 -10 -2 6 4 -31 -10 -4
12 -5 0 4 4 -28 -8 -2
3 -11 -8 -3 -4 -37 -17 -9
-16 -23 -8 -4 -7 -38 -18 -12
8 -10 -5 -1 -4 -30 -15 -9
27 -4 -11 -3 -7 -28 -19 -13
21 -7 -16 -5 -11 -29 -22 -16
6 -5 -14 1 -7 -21 -18 -12
-35 -14 -4 15 4 -10 -9 -4
-30 -17 2 19 12 -2 -6 0
7 -15 -10 7 3 -10 -15 -10
14 -21 -16 -3 -4 -17 -23 -18
-1 -25 -14 -3 -5 -17 -24 -20
-5 -20 -6 1 -1 -13 -16 -14
-8 -22 -7 1 -3 -15 -16 -12
-8 -31 -17 -7 -15 -27 -28 -22
20 -14 -14 -6 -13 -28 -25 -20
9 -14 -9 3 -5 -25 -21 -13
0 -12 -5 12 2 -20 -14 -7
-4 -12 4 22 12 -11 -7 -2
14 7 13 39 30 0 6 8
8 13 14 52 45 12 17 17
-16 4 11 58 56 19 24 21
31 27 9 62 68 30 36 31
57 51 12 74 87 52 58 54
45 64 23 94 109 80 86 80
51 82 21 107 118 94 102 96
57 97 24 125 139 116 129 121
69 123 25 140 161 142 153 148
104 148 21 145 180 166 179 174
113 173 18 153 200 191 208 203
112 198 20 161 219 218 237 233
94 216 26 166 229 232 252 252
79 226 36 158 224 227 249 251
82 213 30 130 188 192 215 223
60 187 30 111 159 169 183 192
16 179 44 112 147 165 168 176
33 181 55 100 130 151 149 154
51 148 36 58 80 106 99 105
25 96 18 18 31 62 55 60
1 58 5 -12 -9 28 20 23
-16 38 10 -29 -28 12 1 7
-44 16 8 -42 -47 -4 -17 -11
-54 7 10 -44 -48 -6 -20 -16
-60 7 11 -37 -44 -4 -20 -16
-65 1 14 -27 -38 2 -15 -13
-62 19 24 -6 -19 21 2 2
-42 20 19 0 -13 25 4 3
-18 12 8 -2 -17 20 -4 -5
-6 -6 5 -4 -19 17 -8 -12
6 -13 2 -2 -20 17 -8 -16
8 -8 8 4 -10 25 -2 -11
9 -4 7 5 -13 24 -3 -13
0 -8 7 4 -16 21 -3 -14
-14 -11 3 5 -16 20 -5 -13
-19 -11 4 9 -13 22 -4 -10
-9 -6 0 9 -12 22 -5 -12
3 -5 2 10 -11 26 -4 -10
22 -3 -1 3 -16 26 -9 -16
17 -22 -3 -2 -19 26 -13 -20
5 -24 -3 1 -15 31 -11 -20
-1 -20 1 6 -8 40 -4 -15
0 -11 1 6 -7 44 -2 -13
5 -12 -2 1 -15 40 -9 -17
-10 -21 -6 0 -16 37 -10 -20
-13 -16 -1 8 -11 43 -7 -14
-9 -9 -2 9 -8 45 -4 -12
-14 -14 0 11 -6 51 0 -5
-5 -3 3 12 -6 55 7 -2
8 -4 1 9 -10 53 4 -4
4 -7 2 10 -9 54 3 -6
3 -11 -1 7 -12 51 -1 -10
-21 -24 -2 5 -12 50 -3 -12
-34 -20 9 16 0 60 8 -3
-16 -13 2 13 -5 54 1 -8
38 0 -6 4 -15 46 -5 -15
59 7 -16 -4 -26 36 -16 -24
37 -4 -12 -3 -25 37 -14 -20
6 -15 -7 3 -20 42 -8 -15
-2 -22 -7 2 -16 46 -5 -14
13 -12 -7 5 -11 52 0 -9
14 -14 -11 3 -15 50 -4 -11
-10 -20 -4 8 -14 50 -2 -12
-12 -17 7 15 -4 57 7 -5
-5 -12 4 15 -4 55 5 -6
-3 -12 0 14 -8 50 2 -7
-1 -4 -3 15 -12 46 -2 -9
-6 -10 -5 14 -14 41 -5 -10
1 -16 -5 12 -15 38 -6 -11
13 -10 -1 15 -11 40 -1 -5
1 -17 -6 11 -15 34 -7 -11
2 -21 -5 7 -15 36 -6 -13
11 -5 2 14 -8 48 3 -6
-6 -18 -4 9 -12 45 -1 -8
-1 -19 -10 6 -16 41 -7 -12
2 -12 -4 12 -10 45 -1 -5
0 -1 2 20 -4 51 5 2
-2 1 1 24 -3 54 6 4
5 2 -2 20 -7 53 3 1
3 4 0 20 -5 56 8 3
-8 5 -2 20 -5 58 9 3
-17 -3 0 17 -5 58 7 2
-24 -5 2 17 -6 60 9 3
-25 -8 1 15 -4 60 7 3
-15 -18 -7 11 -10 53 0 -4
1 -10 -3 16 -5 57 2 -1
21 1 -6 17 -4 59 2 1
17 -19 -16 7 -14 52 -8 -8
10 -15 -10 14 -10 59 -2 -2
-12 -20 -8 14 -8 63 1 1
-15 -18 -9 13 -9 61 1 1
-6 -10 -4 16 -4 66 4 4
23 0 -11 10 -7 60 0 -2
19 -3 -13 6 -9 58 -4 -5
-18 -10 -4 14 -2 62 3 2
-23 -7 5 21 5 68 10 9
-14 -8 -1 17 -2 59 3 4
-17 -16 -3 16 -2 57 1 2
-18 -18 -6 16 -5 55 0 0
9 -9 -8 5 -7 53 -2 -1
4 -5 -5 -6 -6 54 2 1
-17 -17 -5 -14 -4 55 2 1
8 -6 -6 -19 -4 54 3 1
21 -7 -12 -29 -11 47 -3 -5
16 4 -10 -26 -10 48 0 -2
9 0 -13 -29 -14 47 -3 -5
21 3 -18 -28 -16 47 -5 -6
-2 -6 -15 -22 -9 57 3 2
-21 -15 -12 -22 -9 60 6 3
15 -11 -10 -29 -14 58 -1 -2
21 -10 -11 -35 -17 56 -5 -5
11 -11 -9 -35 -16 59 -4 -5
-14 -14 -11 -36 -18 57 -6 -7
-18 -17 -11 -36 -16 58 -5 -6
-16 -12 -13 -33 -17 58 -7 -7
-28 -6 -4 -27 -10 65 0 0
-35 -10 -7 -27 -11 61 -1 0
-9 -18 -14 -37 -20 52 -12 -9
-1 -25 -18 -45 -26 46 -17 -16
-6 -28 -16 -46 -28 47 -17 -16
-12 -16 -9 -39 -24 54 -11 -10
-14 -22 -8 -43 -27 52 -13 -14
2 -17 -11 -47 -33 45 -19 -18
4 -16 -9 -49 -34 45 -19 -17
-42 -39 -14 -54 -41 39 -24 -23
-52 -36 -6 -49 -39 45 -17 -17
-22 -24 -8 -49 -41 42 -19 -17
-26 -27 -8 -49 -41 41 -20 -17
-29 -28 -7 -51 -42 40 -21 -20
-45 -36 0 -49 -36 46 -16 -15
-36 -40 -12 -59 -48 37 -26 -25
-32 -48 -21 -70 -59 29 -33 -35
-31 -44 -14 -69 -57 31 -31 -31
-33 -49 -13 -71 -60 28 -32 -32
-48 -54 -18 -74 -64 24 -34 -36
-48 -49 -16 -75 -67 21 -36 -36
-34 -42 -15 -77 -69 18 -40 -38
-26 -40 -11 -73 -66 20 -39 -35
-45 -45 -11 -74 -68 18 -39 -38
-57 -50 -11 -75 -70 16 -39 -39
-33 -41 -16 -81 -72 10 -43 -45
-16 -46 -24 -89 -82 1 -53 -56
-24 -47 -21 -90 -79 -1 -52 -55
-28 -44 -15 -84 -76 1 -47 -49
-13 -36 -18 -83 -77 -3 -46 -49
-32 -48 -14 -81 -75 -5 -44 -46
-38 -49 -18 -81 -76 -9 -46 -47
-30 -51 -20 -83 -77 -12 -47 -48
-14 -43 -20 -84 -76 -14 -46 -49
-12 -28 -10 -70 -66 -4 -38 -38
-40 -42 -15 -75 -70 -9 -41 -43
-59 -53 -18 -79 -73 -12 -42 -47
-42 -47 -16 -80 -72 -11 -40 -46
-31 -47 -12 -75 -68 -7 -37 -42
-45 -47 -13 -69 -62 -6 -33 -39
-35 -40 -13 -70 -62 -6 -36 -40
-37 -42 -13 -67 -57 -1 -33 -38
-30 -38 -6 -56 -49 12 -23 -29
-11 -29 -6 -53 -44 18 -17 -24
13 -22 -6 -53 -42 22 -15 -23
7 -32 -20 -62 -52 14 -25 -34
-19 -49 -18 -61 -50 15 -24 -34
-52 -38 2 -42 -31 34 -7 -17
-58 -32 11 -33 -21 44 2 -7
-33 -27 5 -35 -24 40 1 -9
-27 -19 8 -27 -18 47 6 -3
-39 -35 -4 -33 -25 37 -3 -8
0 -17 0 -27 -18 42 3 -3
15 -6 3 -23 -14 45 6 1
-10 -19 1 -23 -14 45 7 1
-23 -14 6 -17 -8 49 13 7
-36 -16 8 -16 -4 51 16 9
-18 -10 5 -18 -7 51 13 5
10 -4 -4 -24 -13 48 6 -1
35 -2 -7 -24 -15 46 4 -5
21 -10 -6 -20 -13 50 5 -4
3 -7 -2 -13 -4 60 12 5
-8 -14 -1 -11 -1 65 18 10
-16 -11 1 -6 2 70 21 12
-18 -17 -2 -9 0 68 21 9
-18 -16 -7 -10 -2 67 19 8
-17 -12 -6 -9 0 69 21 10
-8 2 3 -1 8 77 28 15
0 5 3 -2 7 74 26 13
-15 1 0 -3 4 69 22 11
1 2 1 -5 2 67 20 9
8 8 -1 -3 3 66 20 10
10 -3 -4 -6 2 65 19 9
-3 -10 -3 -4 3 66 20 11
-2 -12 -1 -3 5 69 23 12
10 -14 -6 -7 1 62 18 6
18 -15 -4 -7 4 59 20 6
-19 -9 10 7 17 69 32 19
-10 -7 6 3 14 63 30 14
10 7 1 3 12 58 26 14
12 8 2 3 12 57 27 15
19 10 -1 1 9 54 24 14
25 6 -5 -2 6 55 25 13
27 1 -4 -3 4 59 26 13
26 0 -1 -1 6 64 28 13
19 2 2 3 11 70 33 16
27 1 3 2 14 74 35 17
41 0 -7 -9 3 63 22 4
27 -3 -4 -7 5 64 23 4
-5 2 5 7 17 75 33 15
-13 -1 4 5 16 74 30 14
-20 -7 2 5 12 72 28 13
-13 -2 3 8 14 75 33 18
-2 7 2 12 18 78 35 19
-22 -8 5 10 18 79 35 16
1 2 6 8 18 77 35 16
20 0 2 2 14 73 29 10
15 2 3 3 14 75 29 8
9 2 2 2 14 74 29 8
0 2 -1 3 12 74 30 9
-2 10 8 9 17 82 37 16
-7 10 12 12 19 83 38 18
1 12 10 10 18 82 40 17
-5 11 5 9 13 77 37 15
-16 1 2 5 11 77 35 13
-1 9 5 8 15 80 38 17
5 6 7 9 17 79 40 17
2 7 12 11 20 81 41 17
-16 3 11 9 20 76 39 15
-14 7 8 10 19 70 37 14
-7 -6 1 5 13 60 29 8
11 -4 -7 -1 6 49 20 0
30 2 -7 -2 6 48 21 1
37 6 -5 2 7 46 23 2
42 8 -5 -2 5 42 21 0
36 0 -8 -8 -1 34 14 -7
33 6 -1 -4 5 42 23 0
-10 -8 8 5 12 49 31 8
-30 -15 15 13 20 56 38 15
-32 -13 11 15 20 53 37 15
-26 -10 11 15 21 52 38 15
3 10 17 20 25 56 42 19
7 6 11 15 19 48 36 16
-5 -2 9 12 16 45 33 13
0 -4 7 9 11 41 29 8
4 -2 8 10 15 43 31 10
4 -3 8 9 15 43 31 8
-13 -11 2 4 10 39 25 3
7 -6 1 1 8 35 22 0
17 0 -1 2 6 34 21 -1
9 -2 -1 3 6 34 21 -2
23 0 -4 1 4 31 19 -4
14 1 -1 5 7 34 23 1
-6 2 9 14 17 44 33 12
-6 8 14 18 19 47 37 15
-7 -3 5 9 10 35 25 5
12 -2 5 5 8 33 22 0
26 9 6 6 10 34 23 0
8 9 8 9 13 38 27 3
0 -2 4 4 6 32 20 -2
8 -3 -1 2 2 27 16 -4
23 1 -7 -3 -2 22 11 -10
45 6 -6 -3 -2 22 13 -13
19 21 16 19 19 44 35 12
2 16 19 21 21 47 37 16
1 15 16 18 20 44 36 15
-11 7 17 19 21 45 37 16
-22 7 19 23 24 48 40 19
-36 11 28 29 31 55 45 23
-27 16 31 32 31 55 47 23
-25 16 31 31 29 52 44 23
-10 31 35 38 36 57 49 28
1 32 36 43 37 59 51 30
-7 25 32 37 34 56 48 27
-14 11 29 30 27 50 42 21
-14 11 30 28 28 49 42 20
8 12 23 20 23 43 36 13
-1 12 23 20 22 43 35 13
-6 15 26 26 27 50 41 17
10 13 11 15 15 37 27 5
8 9 8 14 14 37 25 2
-6 14 10 20 19 44 31 9
-9 11 8 18 17 45 30 8
0 12 12 18 18 49 29 7
5 15 14 20 23 55 34 12
12 4 5 10 14 48 26 2
24 4 4 6 14 48 24 0
21 11 5 9 14 50 25 0
8 6 6 11 17 51 27 1
-2 15 16 20 24 60 34 8
17 22 17 23 29 62 35 10
8 18 13 22 25 59 31 7
2 13 12 20 23 57 30 7
16 9 5 12 15 51 22 0
-4 -8 4 9 12 47 19 -2
-10 -16 1 4 7 45 16 -8
6 -13 0 1 7 45 15 -10
-21 -3 14 15 20 60 30 2
-42 -9 15 17 24 65 33 5
-10 -6 8 10 18 59 28 0
14 -6 -2 0 7 46 16 -10
-2 -10 -1 3 8 47 16 -8
2 0 7 10 17 55 26 0
22 0 2 5 11 50 18 -6
17 -3 5 6 12 52 20 -5
13 -8 1 3 9 47 17 -10
6 -16 0 0 8 47 16 -11
18 -3 3 1 9 46 18 -10
14 -3 2 0 9 42 14 -13
2 -3 7 5 14 45 20 -8
5 8 12 13 20 46 26 -3
-6 7 12 16 20 42 24 -2
-3 -3 9 14 18 38 21 -4
12 -2 7 12 14 35 19 -7
8 -5 7 11 14 38 19 -8
17 2 9 11 17 43 23 -7
26 15 15 14 22 49 28 -3
-12 0 10 10 16 44 21 -7
-27 -13 6 4 11 37 14 -13
-22 -8 13 8 14 43 20 -8
-4 -6 10 7 13 44 20 -8
8 1 3 7 11 44 19 -8
4 1 4 10 14 48 22 -4
-2 1 10 13 16 50 24 -2
-4 -7 4 5 9 42 16 -8
