I II V1 V2 V3 V4 V5 V6
-7 16 7 -2 7 12 8 15
-7 16 7 -2 7 12 8 15
-6 17 7 0 8 12 9 16
-6 18 7 1 9 13 10 17
-5 19 7 2 10 13 11 18
-5 19 7 2 10 13 11 19
-3 21 7 3 11 14 13 21
-2 23 7 3 12 15 14 22
0 24 7 3 12 16 15 23
1 26 7 3 13 17 16 24
2 27 7 3 13 17 17 25
3 28 5 3 14 18 18 26
3 28 3 2 13 18 17 26
3 28 2 0 12 17 16 26
3 28 0 -2 11 17 15 26
3 28 -2 -3 11 17 15 26
3 28 -3 -4 10 16 14 25
3 29 -4 -5 10 16 14 25
3 30 -4 -5 9 16 14 25
3 31 -5 -6 9 16 14 25
3 31 -5 -6 9 16 14 25
4 31 -6 -7 8 16 14 26
4 30 -7 -7 8 16 14 26
4 28 -7 -7 8 16 14 26
4 27 -8 -7 8 16 14 26
4 26 -8 -7 8 16 14 26
4 23 -9 -7 8 15 15 25
3 21 -9 -7 7 14 14 24
2 18 -9 -8 6 13 13 23
1 16 -9 -8 5 12 12 22
1 14 -9 -8 4 12 12 21
-2 11 -9 -9 2 10 10 19
-4 8 -9 -10 1 8 8 17
-5 5 -9 -11 0 7 6 15
-7 2 -9 -12 -2 5 4 13
-8 0 -9 -12 -3 4 3 12
-9 -2 -8 -14 -4 2 1 11
-10 -3 -8 -15 -5 1 0 10
-11 -4 -9 -16 -6 -2 -2 9
-12 -5 -9 -17 -7 -3 -3 8
-12 -5 -9 -18 -8 -4 -4 8
-13 -6 -10 -19 -9 -5 -5 7
-13 -6 -11 -20 -10 -5 -6 6
-13 -6 -11 -20 -11 -6 -6 5
-13 -6 -12 -21 -12 -6 -7 4
-13 -6 -12 -21 -12 -6 -7 4
-14 -7 -13 -22 -13 -7 -8 3
-14 -7 -13 -22 -13 -7 -8 3
-14 -7 -13 -22 -13 -7 -8 3
-14 -7 -13 -22 -13 -7 -8 3
-14 -7 -13 -22 -13 -7 -8 3
-14 -8 -13 -22 -14 -8 -8 3
-13 -8 -13 -22 -14 -8 -8 3
-13 -8 -13 -22 -13 -8 -8 3
-12 -8 -13 -22 -13 -8 -8 3
-12 -8 -13 -22 -13 -8 -8 3
-11 -8 -14 -21 -12 -8 -7 2
-11 -8 -14 -21 -12 -8 -7 2
-11 -8 -14 -21 -12 -8 -7 2
-11 -8 -14 -21 -12 -8 -7 2
-11 -8 -14 -21 -12 -8 -7 2
-12 -8 -12 -20 -11 -7 -7 3
-12 -8 -11 -19 -10 -6 -7 3
-12 -8 -10 -17 -9 -5 -7 3
-12 -8 -9 -16 -8 -4 -7 3
-12 -8 -8 -15 -7 -3 -7 3
-9 -3 0 2 12 16 9 14
-5 6 8 19 31 34 25 25
1 13 15 36 50 54 40 36
6 20 22 54 69 72 57 49
10 27 29 71 88 91 73 60
28 47 32 91 117 129 115 98
48 66 35 110 148 168 159 137
67 87 38 130 178 206 204 177
87 106 42 149 207 245 248 217
106 126 44 169 238 284 293 256
123 152 33 158 245 309 335 300
140 180 20 144 251 331 377 343
156 207 7 130 257 354 418 387
172 234 -6 115 263 378 460 430
188 262 -19 101 268 400 502 474
167 222 -36 47 198 317 408 398
140 177 -54 -11 122 225 305 312
113 132 -72 -68 47 133 201 227
88 87 -90 -127 -29 40 98 142
61 42 -107 -184 -105 -51 -7 56
46 29 -110 -193 -123 -75 -33 30
31 19 -111 -198 -138 -95 -54 9
17 9 -112 -203 -152 -114 -75 -14
3 0 -113 -210 -166 -133 -96 -35
-12 -11 -114 -215 -181 -152 -117 -57
-13 -12 -103 -190 -160 -137 -107 -54
-12 -12 -89 -161 -137 -117 -94 -49
-11 -12 -75 -133 -113 -98 -80 -43
-10 -12 -61 -104 -89 -78 -67 -37
-9 -12 -48 -76 -65 -59 -54 -31
-8 -14 -39 -64 -56 -51 -49 -28
-9 -16 -32 -54 -47 -44 -43 -26
-10 -17 -26 -44 -38 -35 -37 -23
-11 -19 -19 -33 -30 -28 -31 -20
-12 -20 -12 -23 -21 -21 -26 -18
-13 -21 -11 -22 -20 -19 -25 -17
-13 -22 -11 -21 -19 -18 -24 -17
-13 -23 -10 -20 -19 -17 -23 -17
-13 -24 -10 -19 -18 -16 -22 -17
-13 -25 -10 -18 -18 -15 -22 -17
-13 -26 -9 -17 -17 -14 -21 -16
-13 -26 -8 -16 -16 -14 -21 -16
-13 -26 -7 -15 -16 -14 -21 -16
-13 -26 -6 -14 -15 -14 -21 -16
-13 -26 -6 -14 -15 -14 -21 -16
-13 -25 -5 -13 -14 -14 -22 -17
-13 -25 -5 -13 -13 -14 -22 -17
-13 -26 -5 -13 -13 -13 -21 -17
-13 -26 -5 -13 -12 -13 -21 -17
-13 -26 -5 -13 -12 -13 -21 -17
-13 -27 -5 -13 -11 -12 -20 -18
-13 -27 -5 -13 -11 -12 -20 -18
-13 -27 -5 -12 -11 -12 -19 -17
-13 -27 -5 -12 -11 -12 -19 -17
-13 -27 -5 -12 -11 -12 -19 -17
-13 -27 -4 -11 -10 -11 -18 -16
-13 -27 -4 -11 -10 -11 -18 -16
-13 -28 -4 -10 -10 -11 -18 -16
-13 -28 -4 -10 -10 -11 -18 -16
-13 -28 -4 -10 -10 -11 -18 -16
-12 -29 -4 -9 -9 -10 -18 -17
-12 -29 -4 -9 -9 -10 -18 -17
-12 -29 -4 -9 -9 -10 -18 -18
-12 -29 -4 -9 -9 -10 -18 -18
-12 -29 -4 -9 -9 -10 -18 -18
-12 -30 -4 -8 -9 -10 -19 -19
-12 -30 -3 -7 -9 -9 -19 -19
-12 -30 -3 -6 -8 -9 -18 -19
-12 -30 -2 -5 -8 -8 -18 -19
-12 -30 -2 -4 -8 -8 -18 -19
-12 -31 0 -3 -7 -7 -17 -18
-12 -31 0 -2 -7 -7 -17 -18
-12 -31 0 -2 -7 -7 -17 -18
-12 -31 0 0 -7 -7 -17 -18
-12 -31 0 0 -7 -7 -17 -18
-11 -30 -2 1 -7 -6 -18 -18
-11 -30 -2 1 -6 -6 -18 -18
-11 -31 0 1 -6 -6 -18 -18
-11 -31 0 1 -5 -6 -18 -18
-11 -31 0 1 -5 -6 -18 -18
-11 -32 1 2 -4 -6 -18 -19
-11 -32 1 3 -4 -6 -18 -20
-11 -32 1 4 -4 -6 -18 -20
-11 -32 1 5 -4 -6 -18 -21
-11 -32 1 5 -4 -6 -18 -21
-10 -33 2 6 -3 -6 -18 -22
-10 -33 2 7 -2 -5 -18 -22
-10 -33 2 7 -2 -5 -18 -22
-10 -33 2 8 0 -4 -18 -22
-10 -33 2 8 0 -4 -18 -22
-10 -33 2 9 1 -3 -18 -22
-10 -34 2 10 1 -3 -18 -22
-10 -34 3 10 1 -3 -18 -22
-10 -35 3 11 1 -3 -18 -22
-10 -35 3 11 1 -3 -18 -22
-9 -36 4 12 2 -3 -18 -23
-9 -36 4 13 2 -3 -18 -23
-9 -36 4 14 2 -3 -18 -23
-9 -36 4 15 2 -3 -18 -23
-9 -36 4 15 2 -3 -18 -23
-8 -35 5 16 3 -4 -19 -24
-8 -36 5 16 3 -4 -19 -24
-7 -37 5 16 4 -4 -19 -24
-7 -38 5 16 4 -4 -19 -24
-7 -38 5 16 4 -4 -19 -24
-6 -39 6 18 5 -3 -19 -25
-6 -39 6 20 6 -3 -19 -25
-6 -39 7 22 7 -3 -18 -25
-6 -39 7 23 8 -3 -18 -25
-6 -39 7 25 8 -3 -18 -25
-5 -38 8 26 9 -2 -17 -25
-5 -38 8 27 9 -2 -17 -26
-4 -38 8 27 10 -2 -18 -27
-4 -38 8 28 10 -2 -18 -28
-4 -38 8 28 10 -2 -18 -28
-3 -37 9 30 11 -2 -19 -29
-3 -38 9 31 12 -2 -19 -29
-3 -39 9 32 13 0 -19 -30
-3 -40 9 34 14 0 -19 -30
-3 -40 9 35 14 0 -19 -30
-3 -41 10 36 15 1 -20 -31
-3 -41 11 37 15 1 -20 -32
-2 -41 11 37 15 1 -21 -32
-2 -41 12 38 15 1 -21 -33
-2 -41 12 38 15 1 -21 -33
0 -43 13 39 15 0 -23 -35
0 -43 13 40 15 -2 -25 -36
0 -43 14 42 15 -2 -27 -38
0 -43 14 43 15 -3 -29 -40
0 -43 14 44 15 -3 -31 -41
1 -41 15 45 15 -5 -33 -44
1 -41 15 45 14 -7 -35 -46
1 -41 15 45 13 -9 -37 -48
1 -41 15 45 12 -10 -38 -50
1 -41 15 45 12 -12 -40 -52
2 -41 15 45 10 -15 -44 -54
1 -40 15 44 8 -17 -46 -57
1 -39 15 43 6 -19 -49 -59
0 -38 15 42 5 -22 -51 -61
0 -37 15 40 3 -24 -54 -63
-2 -36 14 38 1 -27 -57 -65
-2 -35 14 37 0 -29 -59 -68
-3 -35 13 36 -3 -31 -62 -70
-3 -34 13 35 -5 -34 -64 -72
-3 -34 13 34 -6 -36 -67 -74
-4 -32 12 32 -8 -38 -68 -75
-4 -30 11 31 -9 -39 -69 -76
-4 -28 10 29 -10 -41 -70 -77
-4 -27 9 27 -12 -44 -71 -78
-4 -25 9 26 -13 -45 -72 -78
-3 -23 8 24 -14 -46 -74 -79
-3 -22 8 23 -16 -48 -75 -80
-4 -21 7 21 -17 -49 -76 -81
-4 -19 7 19 -18 -50 -78 -82
-4 -18 7 18 -19 -51 -79 -82
-5 -16 6 16 -20 -52 -80 -83
-5 -15 4 15 -21 -52 -80 -83
-5 -14 3 14 -22 -52 -80 -83
-5 -12 2 12 -23 -52 -80 -83
-5 -11 1 11 -23 -52 -80 -83
-6 -9 -2 9 -24 -53 -78 -81
-6 -8 -3 7 -24 -52 -76 -79
-6 -7 -4 5 -25 -51 -74 -77
-6 -5 -6 3 -25 -50 -73 -76
-6 -4 -7 1 -25 -50 -71 -74
-5 0 -9 0 -26 -48 -68 -71
-4 2 -10 -2 -25 -46 -65 -68
-4 5 -11 -3 -25 -43 -61 -64
-3 7 -13 -4 -24 -40 -58 -61
-3 10 -14 -4 -24 -38 -55 -58
-2 11 -15 -5 -23 -35 -52 -55
-2 11 -15 -6 -21 -32 -48 -52
-2 11 -16 -6 -20 -30 -44 -50
-2 11 -16 -7 -19 -27 -40 -47
-2 11 -16 -7 -18 -24 -36 -44
-2 12 -17 -8 -17 -23 -34 -41
-2 12 -18 -9 -17 -21 -32 -39
-2 12 -19 -10 -16 -20 -29 -37
-2 12 -20 -11 -16 -19 -27 -35
-2 12 -20 -11 -16 -18 -25 -33
0 13 -21 -12 -15 -17 -23 -31
0 13 -21 -13 -15 -15 -22 -29
0 14 -21 -13 -15 -14 -20 -27
0 14 -21 -14 -15 -13 -18 -26
0 14 -21 -14 -15 -12 -17 -24
1 15 -22 -15 -14 -11 -16 -23
1 16 -22 -15 -14 -11 -15 -22
1 16 -22 -15 -14 -10 -14 -22
1 17 -22 -15 -14 -10 -13 -21
1 17 -22 -15 -14 -10 -13 -21
2 18 -23 -16 -14 -9 -12 -20
2 18 -23 -17 -14 -9 -12 -20
2 18 -23 -17 -14 -9 -12 -20
2 18 -23 -18 -14 -9 -12 -20
2 18 -23 -18 -14 -9 -12 -20
2 19 -24 -19 -13 -8 -11 -19
2 19 -24 -19 -13 -8 -11 -19
2 18 -24 -19 -13 -8 -11 -19
2 18 -24 -19 -13 -8 -11 -19
2 18 -24 -19 -13 -8 -11 -19
1 17 -23 -19 -13 -8 -10 -19
1 16 -23 -19 -13 -8 -10 -19
1 16 -23 -19 -13 -8 -10 -19
1 15 -23 -19 -13 -8 -10 -19
1 15 -23 -19 -13 -8 -10 -19
1 14 -23 -20 -13 -9 -11 -20
1 14 -23 -20 -13 -9 -11 -20
1 14 -23 -19 -13 -9 -10 -20
1 14 -23 -19 -13 -9 -10 -20
1 14 -23 -19 -13 -9 -10 -20
1 15 -23 -18 -12 -8 -9 -19
1 15 -23 -19 -12 -8 -9 -19
1 16 -24 -19 -13 -9 -9 -20
1 16 -24 -20 -13 -9 -9 -20
1 16 -24 -20 -13 -9 -9 -20
1 17 -25 -21 -14 -10 -9 -21
1 17 -25 -21 -14 -9 -8 -21
1 17 -25 -20 -14 -8 -7 -21
1 17 -25 -20 -14 -7 -6 -21
1 17 -25 -20 -14 -7 -6 -21
1 16 -24 -19 -13 -6 -5 -21
1 15 -24 -19 -13 -6 -5 -21
1 15 -25 -18 -12 -6 -6 -21
1 14 -25 -18 -12 -6 -6 -21
1 14 -25 -18 -12 -6 -6 -21
0 13 -26 -17 -11 -7 -7 -22
0 13 -26 -17 -11 -7 -7 -22
1 14 -25 -17 -10 -7 -6 -21
1 14 -25 -17 -10 -7 -6 -21
1 14 -25 -17 -10 -7 -6 -21
2 15 -24 -16 -9 -6 -5 -20
2 15 -24 -16 -9 -6 -5 -20
2 15 -24 -16 -9 -6 -5 -20
2 15 -24 -16 -9 -6 -5 -20
2 15 -24 -16 -9 -6 -5 -20
1 14 -23 -15 -8 -5 -4 -20
1 14 -23 -14 -7 -3 -3 -20
1 15 -23 -13 -6 -2 -2 -20
1 15 -23 -12 -5 0 0 -20
1 15 -23 -11 -5 1 1 -20
2 16 -22 -10 -4 2 2 -19
2 16 -22 -10 -4 2 2 -19
2 16 -22 -10 -4 3 2 -19
2 16 -22 -10 -4 3 2 -19
2 16 -22 -10 -4 3 2 -19
2 16 -22 -11 -3 4 1 -20
2 16 -22 -10 -3 5 2 -20
2 16 -22 -10 -2 5 3 -19
2 16 -22 -9 -2 6 3 -19
2 16 -22 -9 -2 6 4 -19
1 17 -22 -8 0 7 5 -18
2 18 -22 -8 0 7 5 -18
2 18 -22 -8 0 6 5 -18
3 19 -22 -8 0 6 5 -18
3 19 -22 -8 0 6 5 -18
4 20 -21 -8 0 5 4 -18
4 19 -21 -7 0 5 4 -18
4 18 -21 -7 1 6 5 -18
4 18 -21 -6 1 6 5 -18
4 17 -21 -6 1 6 5 -18
4 16 -22 -5 2 7 6 -17
4 16 -22 -5 2 8 6 -17
4 16 -22 -5 2 9 7 -17
4 16 -22 -5 2 9 7 -17
4 16 -22 -5 2 10 7 -17
3 17 -21 -5 3 11 8 -16
3 17 -21 -4 3 11 8 -16
3 17 -21 -4 3 11 8 -16
3 17 -21 -3 3 11 8 -16
3 17 -21 -3 3 11 8 -16
3 17 -21 -2 4 12 8 -15
3 17 -21 -2 3 11 7 -16
3 17 -22 -3 2 10 6 -17
3 17 -22 -3 2 10 6 -17
3 17 -22 -3 1 9 5 -18
3 17 -23 -4 0 8 4 -19
3 17 -23 -4 0 8 4 -19
3 16 -23 -4 0 7 4 -19
3 16 -23 -4 0 7 4 -19
3 16 -23 -4 0 7 4 -19
4 15 -23 -4 0 6 4 -20
4 15 -21 -4 0 6 4 -20
4 15 -20 -4 0 6 4 -20
4 15 -19 -4 0 6 4 -20
4 15 -18 -4 0 6 4 -20
3 15 -17 -4 -2 7 4 -20
3 15 -17 -4 -2 7 4 -20
3 14 -16 -4 -3 7 4 -20
3 14 -16 -4 -3 7 4 -20
3 14 -16 -4 -3 7 4 -20
3 13 -15 -5 -4 6 4 -20
3 13 -15 -5 -4 6 4 -20
3 13 -15 -5 -4 6 4 -20
3 13 -15 -5 -4 6 4 -20
3 13 -15 -5 -4 6 4 -20
2 13 -14 -6 -4 5 3 -20
3 13 -14 -6 -4 5 3 -20
3 12 -14 -6 -5 5 3 -20
4 12 -14 -6 -5 5 3 -20
4 12 -14 -6 -5 5 3 -20
5 11 -15 -6 -6 4 3 -21
4 11 -15 -6 -6 3 2 -21
4 11 -15 -7 -7 3 1 -22
3 11 -15 -7 -7 2 1 -22
3 11 -15 -7 -7 2 0 -22
2 12 -16 -8 -8 1 -2 -23
2 11 -16 -8 -8 1 -2 -23
2 11 -16 -8 -8 1 -2 -24
2 10 -16 -8 -8 1 -2 -24
2 10 -16 -8 -8 1 -2 -24
2 9 -16 -8 -8 0 0 -25
2 9 -16 -8 -8 1 0 -25
2 9 -16 -8 -8 1 0 -25
2 9 -16 -8 -8 2 0 -25
2 9 -16 -8 -8 2 0 -25
2 9 -15 -7 -7 3 1 -24
2 9 -15 -7 -7 3 1 -24
1 9 -15 -7 -7 3 1 -23
1 9 -15 -7 -7 3 1 -23
1 9 -15 -7 -7 3 1 -23
0 9 -15 -8 -8 2 1 -22
0 8 -15 -8 -8 2 1 -22
0 8 -15 -8 -8 2 1 -22
0 7 -15 -8 -8 2 1 -22
0 7 -15 -8 -8 2 1 -22
1 6 -16 -9 -8 1 0 -21
1 6 -15 -8 -7 2 1 -21
0 6 -15 -8 -7 3 1 -21
0 6 -14 -7 -6 3 2 -21
0 6 -14 -7 -6 4 2 -21
-2 5 -13 -6 -5 5 3 -20
-2 6 -13 -5 -4 5 3 -20
-2 7 -13 -5 -4 5 3 -20
-2 7 -13 -4 -3 5 3 -20
-2 8 -13 -4 -3 5 3 -20
0 9 -12 -3 -2 5 3 -20
0 10 -10 -3 -2 6 3 -20
0 11 -9 -2 -2 7 4 -19
0 12 -7 -2 -2 7 4 -19
0 13 -6 -2 -2 8 4 -19
1 14 -5 0 0 9 5 -18
1 15 -4 1 1 9 6 -18
1 15 -3 1 2 10 7 -18
1 16 -2 2 2 10 7 -18
1 16 0 2 3 10 8 -18
1 17 1 4 4 11 10 -14
2 19 1 5 6 13 11 -9
3 20 1 7 7 14 13 -5
4 22 1 8 9 16 14 1
5 23 1 10 10 17 16 6
6 24 1 11 11 18 17 9
6 26 0 11 11 18 17 11
7 27 -2 10 11 19 18 13
8 29 -3 10 11 19 19 15
8 30 -4 10 11 19 19 17
9 31 -5 9 12 20 20 18
9 31 -6 7 11 20 20 18
9 31 -7 6 10 19 19 17
9 31 -8 4 10 18 18 17
9 31 -9 3 9 18 18 17
8 30 -10 2 8 17 17 16
8 30 -11 2 8 17 17 16
8 30 -12 2 8 17 17 16
8 30 -12 2 8 17 17 16
8 30 -13 2 8 17 17 16
8 30 -14 1 7 16 17 16
8 28 -14 1 7 16 17 16
9 27 -15 1 6 16 17 16
9 25 -15 1 6 16 17 16
9 24 -15 1 6 16 17 16
10 22 -16 1 5 16 16 15
9 19 -16 1 5 15 15 14
7 16 -15 0 4 14 14 13
6 13 -14 -2 4 14 14 13
5 10 -14 -2 4 13 13 12
3 7 -13 -3 2 11 11 10
2 5 -13 -3 0 9 9 8
0 2 -13 -4 -3 7 7 6
-3 0 -13 -5 -5 5 5 4
-5 -4 -13 -5 -7 3 3 2
-6 -5 -13 -6 -8 2 2 1
-6 -6 -13 -7 -8 1 1 1
-6 -7 -13 -8 -9 0 0 0
-6 -7 -13 -9 -10 -2 -2 0
-6 -8 -13 -10 -10 -3 -3 0
-7 -9 -14 -11 -11 -4 -4 -2
-7 -9 -14 -12 -11 -5 -4 -2
-7 -9 -15 -13 -12 -6 -5 -3
-7 -9 -16 -13 -13 -6 -6 -3
-7 -9 -16 -14 -13 -7 -6 -3
-8 -9 -17 -15 -14 -8 -7 -4
-8 -9 -17 -15 -14 -8 -7 -4
-8 -10 -17 -15 -13 -7 -7 -4
-8 -10 -17 -15 -13 -6 -7 -4
-8 -10 -17 -15 -13 -6 -7 -4
-8 -11 -17 -14 -12 -5 -6 -3
-8 -11 -17 -14 -12 -5 -6 -3
-8 -11 -17 -13 -12 -5 -5 -3
-8 -11 -17 -13 -12 -5 -4 -3
-8 -11 -17 -13 -12 -5 -4 -3
-8 -10 -16 -12 -11 -4 -3 -3
-8 -10 -16 -12 -11 -4 -3 -3
-8 -10 -16 -12 -11 -4 -3 -3
-8 -10 -16 -12 -11 -4 -3 -3
-8 -10 -16 -12 -11 -4 -3 -3
-9 -11 -15 -10 -9 -3 -3 -3
-9 -11 -12 -5 -4 3 0 -3
-9 -10 -9 1 2 8 3 -3
-9 -9 -6 6 7 12 5 -3
-9 -9 -3 12 13 17 8 -3
-5 1 5 28 32 37 26 12
5 14 13 51 61 69 56 36
15 27 21 74 90 100 85 61
24 40 29 98 118 131 114 86
33 54 37 121 148 162 144 109
49 75 42 136 175 200 188 151
69 101 39 144 201 242 243 203
89 127 37 152 227 284 298 256
109 152 36 160 253 326 352 308
129 178 34 169 279 369 407 361
139 190 22 150 278 379 427 384
142 194 2 113 258 366 422 387
145 197 -18 75 238 354 418 390
149 201 -38 37 218 341 413 394
152 205 -58 1 198 328 408 397
138 182 -74 -43 144 267 345 347
109 140 -89 -90 67 174 243 261
81 97 -103 -137 -10 79 142 174
54 55 -118 -184 -87 -14 40 88
25 12 -133 -230 -163 -107 -61 1
11 -6 -134 -238 -188 -145 -102 -36
6 -8 -124 -220 -178 -143 -103 -41
0 -9 -116 -201 -166 -142 -105 -46
-6 -11 -107 -182 -155 -140 -106 -50
-11 -12 -98 -163 -145 -139 -107 -55
-14 -13 -87 -142 -129 -126 -100 -54
-13 -15 -74 -119 -108 -105 -86 -49
-12 -17 -61 -97 -89 -85 -71 -43
-11 -18 -49 -74 -68 -64 -57 -36
-10 -20 -36 -51 -48 -44 -43 -31
-9 -21 -28 -38 -37 -32 -35 -27
-9 -21 -24 -33 -32 -27 -32 -26
-10 -20 -21 -28 -27 -23 -29 -24
-11 -20 -17 -23 -22 -19 -26 -22
-11 -20 -13 -18 -17 -14 -23 -20
-12 -19 -11 -15 -15 -12 -21 -19
-12 -19 -11 -15 -15 -12 -21 -19
-13 -20 -10 -14 -14 -11 -20 -18
-13 -20 -10 -14 -14 -11 -20 -18
-13 -20 -10 -14 -14 -11 -20 -18
-14 -21 -9 -13 -13 -10 -19 -17
-14 -21 -8 -13 -13 -10 -19 -17
-14 -22 -7 -12 -12 -10 -18 -17
-14 -23 -7 -11 -12 -10 -18 -17
-14 -23 -6 -11 -12 -10 -18 -17
-15 -24 -5 -10 -11 -9 -17 -17
-15 -24 -5 -10 -11 -9 -17 -17
-15 -23 -5 -10 -10 -9 -17 -17
-15 -23 -5 -10 -10 -9 -17 -17
-15 -23 -5 -10 -10 -9 -17 -17
-14 -22 -5 -9 -9 -9 -18 -16
-14 -22 -5 -9 -9 -9 -18 -16
-15 -22 -5 -9 -9 -9 -18 -16
-15 -22 -5 -9 -9 -9 -18 -16
-15 -22 -5 -9 -9 -9 -18 -16
-16 -23 -5 -9 -9 -8 -18 -17
-16 -23 -5 -9 -9 -8 -18 -17
-15 -22 -5 -8 -9 -8 -18 -17
-15 -22 -5 -8 -9 -8 -18 -17
-15 -22 -5 -8 -9 -8 -18 -17
-14 -21 -4 -7 -8 -8 -18 -18
-14 -21 -3 -7 -8 -7 -17 -18
-14 -22 -2 -7 -7 -6 -16 -18
-14 -23 -2 -7 -7 -6 -16 -18
-14 -23 0 -7 -7 -5 -15 -18
-15 -24 1 -6 -6 -4 -14 -18
-15 -23 0 -6 -6 -4 -14 -18
-14 -22 -2 -6 -6 -4 -14 -18
-13 -22 -3 -6 -6 -4 -14 -18
-13 -21 -4 -6 -6 -4 -14 -18
-12 -20 -5 -6 -5 -5 -15 -17
-12 -20 -4 -6 -5 -5 -15 -17
-13 -20 -3 -5 -5 -5 -16 -18
-13 -20 -3 -5 -5 -5 -17 -18
-13 -20 -2 -5 -5 -5 -17 -18
-14 -20 0 -4 -4 -5 -18 -19
-14 -20 0 -4 -4 -5 -18 -19
-14 -20 0 -3 -3 -5 -18 -19
-14 -20 0 -3 -3 -5 -18 -19
-14 -20 0 -3 -3 -5 -18 -19
-13 -21 1 -2 -2 -5 -17 -18
-13 -21 1 0 -2 -5 -17 -18
-13 -22 1 1 0 -4 -16 -19
-13 -23 1 1 0 -3 -16 -19
-13 -23 1 2 0 -3 -16 -19
-14 -24 2 3 1 -2 -15 -20
-14 -23 2 3 1 -2 -15 -20
-13 -22 2 3 2 -2 -16 -21
-12 -22 2 3 3 -2 -17 -21
-12 -21 2 3 3 -2 -17 -21
-11 -20 2 2 4 -3 -18 -22
-11 -20 3 3 4 -3 -18 -22
-11 -21 4 4 5 -2 -17 -21
-11 -22 4 5 5 0 -16 -20
-11 -22 5 6 5 0 -16 -20
-12 -23 6 7 6 1 -15 -19
-12 -23 6 7 6 1 -15 -19
-12 -22 6 7 6 1 -16 -20
-12 -22 6 7 6 1 -16 -21
-12 -22 6 7 6 1 -16 -21
-11 -21 7 8 7 1 -17 -22
-11 -21 7 9 7 1 -17 -22
-11 -21 8 10 8 1 -17 -22
-11 -21 8 10 8 1 -17 -22
-11 -21 8 11 8 1 -17 -22
-10 -22 9 12 9 1 -17 -22
-10 -22 9 13 10 1 -17 -22
-10 -21 9 15 11 2 -17 -22
-10 -21 9 16 12 3 -17 -22
-10 -21 9 17 13 3 -17 -22
-9 -20 10 18 14 4 -17 -23
-9 -20 10 19 14 4 -17 -23
-9 -21 11 21 15 4 -17 -24
-9 -21 12 22 16 4 -17 -24
-9 -21 12 23 16 4 -17 -24
-8 -22 13 24 17 5 -18 -25
-8 -22 13 24 17 5 -20 -26
-8 -21 14 25 18 5 -21 -27
-8 -21 14 26 19 5 -22 -28
-8 -21 14 26 19 5 -24 -29
-7 -20 15 27 20 4 -25 -30
-7 -20 16 28 20 4 -25 -31
-7 -21 17 30 21 4 -26 -32
-7 -21 18 31 21 4 -27 -33
-7 -21 19 32 21 4 -27 -34
-7 -22 20 33 22 5 -28 -35
-7 -22 20 33 22 3 -30 -37
-6 -22 21 34 21 1 -32 -39
-6 -22 21 34 21 0 -34 -40
-6 -22 21 34 21 -3 -36 -43
-5 -22 22 35 20 -4 -37 -44
-5 -22 22 35 20 -5 -39 -45
-6 -23 22 35 19 -6 -41 -47
-7 -23 22 35 19 -7 -44 -48
-7 -23 22 35 19 -8 -46 -49
-8 -24 22 34 18 -9 -48 -50
-8 -24 22 34 17 -11 -50 -52
-8 -24 23 33 15 -13 -52 -54
-8 -24 23 33 14 -15 -54 -56
-8 -24 23 33 13 -17 -56 -58
-7 -25 24 32 12 -19 -58 -59
-7 -25 24 31 10 -21 -60 -61
-8 -26 24 30 8 -24 -63 -63
-8 -26 24 30 7 -27 -65 -65
-8 -26 24 29 5 -29 -67 -67
-9 -27 23 28 4 -31 -69 -68
-9 -26 23 26 3 -32 -70 -68
-9 -25 22 24 2 -33 -72 -69
-9 -25 21 23 2 -34 -73 -69
-9 -24 21 21 1 -35 -74 -69
-10 -23 20 20 0 -36 -75 -70
-10 -23 20 19 -2 -36 -75 -70
-10 -23 20 18 -2 -37 -75 -70
-10 -23 20 16 -3 -38 -76 -70
-10 -23 20 15 -4 -38 -76 -70
-11 -24 19 14 -5 -39 -77 -70
-11 -24 18 12 -6 -39 -76 -69
-11 -24 17 10 -6 -39 -75 -68
-11 -24 15 8 -7 -39 -74 -66
-11 -24 14 6 -8 -39 -73 -65
-11 -24 13 4 -9 -37 -71 -63
-11 -22 12 2 -9 -35 -68 -61
-11 -21 11 1 -9 -33 -65 -58
-11 -19 10 -2 -9 -31 -62 -55
-11 -17 9 -4 -9 -29 -59 -53
-11 -16 8 -5 -9 -27 -56 -50
-11 -16 7 -5 -9 -25 -52 -46
-10 -15 6 -6 -9 -23 -49 -41
-9 -14 5 -7 -8 -21 -46 -37
-9 -14 4 -7 -8 -19 -41 -33
-8 -13 3 -8 -7 -17 -38 -30
-8 -12 3 -10 -6 -15 -35 -26
-8 -12 3 -11 -6 -14 -32 -23
-9 -11 2 -13 -5 -12 -28 -20
-9 -10 2 -15 -4 -10 -25 -16
-10 -9 1 -16 -3 -9 -22 -13
-10 -8 1 -16 -3 -7 -20 -11
-10 -7 0 -16 -3 -5 -18 -8
-10 -6 -2 -16 -2 -3 -15 -5
-10 -5 -2 -16 -2 0 -13 -3
-9 -4 -3 -17 0 1 -11 0
-9 -4 -3 -17 0 2 -10 1
-9 -4 -3 -17 0 2 -9 2
-9 -5 -3 -17 1 3 -7 3
-9 -5 -3 -17 1 4 -6 4
-8 -6 -4 -18 2 5 -5 5
-8 -6 -4 -18 2 5 -5 5
-8 -5 -4 -18 2 5 -5 6
-8 -4 -4 -19 2 5 -4 7
-8 -4 -4 -19 2 5 -4 7
-7 -3 -5 -20 1 4 -3 8
-7 -3 -5 -20 1 5 -2 8
-7 -3 -5 -20 1 5 0 8
-7 -3 -5 -20 1 6 1 9
-7 -3 -5 -20 1 7 2 9
-7 -3 -5 -20 2 8 3 10
-7 -3 -5 -20 2 8 3 10
-7 -3 -5 -21 2 8 2 10
-7 -4 -6 -22 1 8 1 11
-7 -4 -6 -22 1 8 1 11
-8 -5 -7 -23 0 7 0 12
-8 -5 -7 -23 0 7 0 12
-8 -5 -6 -23 0 7 0 12
-8 -4 -5 -23 0 7 0 12
-8 -4 -5 -23 0 7 0 12
-9 -3 -4 -22 0 6 -2 11
-9 -3 -4 -22 0 6 -2 11
-9 -4 -5 -23 0 6 -2 11
-9 -5 -6 -24 0 5 -2 11
-9 -5 -6 -24 0 5 -2 11
-8 -6 -7 -25 0 4 -3 11
-8 -6 -7 -25 0 5 -3 11
-8 -5 -7 -25 1 5 -3 11
-8 -4 -7 -24 2 6 -2 11
-8 -4 -7 -24 2 7 -2 11
-8 -3 -6 -23 3 8 0 11
-8 -3 -6 -23 3 8 0 11
-8 -3 -6 -23 3 8 0 12
-8 -3 -6 -23 3 8 0 13
-8 -3 -6 -23 3 8 0 13
-9 -4 -6 -22 3 7 0 14
-9 -4 -6 -22 3 7 0 14
-9 -4 -5 -22 3 7 0 14
-9 -4 -4 -21 3 7 0 13
-9 -4 -4 -21 3 7 0 13
-9 -4 -3 -20 4 7 0 12
-9 -4 -3 -20 5 8 1 12
-9 -3 -3 -20 5 9 1 12
-9 -2 -3 -20 6 11 2 12
-9 -2 -3 -20 7 12 3 12
-8 0 -4 -20 8 13 4 13
-8 0 -4 -20 8 13 4 13
-8 0 -4 -20 8 14 4 13
-8 0 -4 -20 9 15 4 13
-8 0 -4 -20 9 15 4 13
-8 1 -3 -19 10 16 4 14
-8 1 -3 -19 10 16 4 14
-8 0 -3 -19 10 16 4 14
-8 -2 -2 -18 10 16 5 15
-8 -2 -2 -18 10 16 5 15
-9 -3 0 -17 11 16 6 16
-9 -3 0 -17 11 16 6 16
-9 -3 0 -17 11 17 7 16
-8 -3 0 -17 12 18 8 16
-8 -3 0 -17 12 18 8 16
-7 -3 1 -17 13 19 9 16
-7 0 1 -17 13 19 9 16
-7 1 1 -17 13 19 9 16
-7 3 1 -17 13 19 9 17
-7 5 1 -17 13 19 9 17
-6 6 1 -18 14 18 8 18
-6 5 1 -18 14 18 8 18
-6 4 1 -18 14 18 8 18
-6 3 1 -17 14 18 8 18
-6 2 1 -17 14 18 8 18
-6 1 1 -16 15 19 8 17
-6 2 1 -16 15 19 8 17
-6 3 1 -16 15 19 9 17
-5 4 1 -16 15 19 10 17
-5 5 1 -16 15 19 10 17
-4 6 2 -17 15 20 11 17
-4 6 2 -17 15 20 11 17
-4 6 2 -17 15 20 11 17
-4 5 2 -17 15 20 11 17
-4 5 2 -17 15 20 11 17
-5 4 3 -18 15 21 12 17
-5 4 3 -18 15 20 11 17
-5 4 3 -18 15 20 10 17
-5 3 2 -19 15 19 9 16
-5 3 2 -19 15 18 8 16
-4 2 1 -20 14 17 7 15
-4 2 1 -20 14 17 7 15
-4 2 1 -20 14 17 7 15
-5 1 1 -20 13 17 7 14
-5 1 1 -20 13 17 7 14
-6 0 2 -20 12 16 7 13
-6 0 2 -20 12 16 7 13
-6 1 2 -20 12 16 7 13
-5 2 2 -21 11 16 7 13
-5 2 2 -21 11 16 7 13
-4 3 1 -22 10 15 6 13
-4 3 1 -22 10 15 6 13
-4 3 1 -22 10 15 6 13
-5 3 1 -22 9 15 7 13
-5 3 1 -22 9 15 7 13
-6 3 2 -22 8 15 8 12
-6 3 2 -22 8 14 7 12
-6 3 1 -22 7 14 7 12
-5 3 0 -23 6 13 6 12
-5 3 0 -23 6 12 5 12
-4 3 -2 -24 5 11 4 11
-4 3 -2 -24 5 11 4 11
-4 3 -2 -24 5 11 4 10
-4 2 -2 -24 5 10 4 9
-4 2 -2 -24 5 10 4 9
-5 1 -2 -24 4 9 3 8
-5 1 -2 -24 4 9 3 8
-5 1 -2 -24 4 9 3 8
-5 1 -2 -25 4 9 3 8
-5 1 -2 -25 4 9 3 8
-5 0 0 -26 3 8 4 9
-5 0 0 -26 3 8 4 9
-5 0 0 -26 3 8 4 9
-5 0 0 -26 3 8 4 9
-5 0 0 -26 3 8 4 9
-6 1 -2 -26 2 9 3 9
-6 1 -2 -26 2 9 3 9
-6 1 -2 -26 2 8 3 8
-6 1 -3 -27 2 7 3 7
-6 1 -3 -27 2 7 3 7
-6 1 -4 -28 1 6 2 6
-6 1 -4 -28 1 6 2 6
-6 1 -4 -28 1 6 2 6
-6 1 -3 -28 1 7 2 6
-6 1 -3 -28 1 7 2 6
-5 0 -2 -27 2 8 2 7
-5 0 -2 -27 2 8 2 7
-5 0 -2 -27 1 7 2 6
-5 0 -3 -28 0 6 1 5
-5 0 -3 -28 0 6 1 5
-5 1 -4 -29 -2 5 0 4
-5 1 -4 -29 -2 5 0 4
-5 2 -4 -28 -2 5 0 4
-5 3 -4 -27 -2 5 0 4
-5 3 -4 -27 -2 5 0 4
-5 4 -3 -26 -2 4 0 3
-5 4 -2 -23 -2 4 1 4
-5 4 0 -20 0 5 1 5
-5 4 1 -18 1 6 2 6
-5 4 2 -15 1 6 3 7
-6 5 3 -13 2 7 4 8
-6 6 4 -11 2 7 4 8
-6 7 5 -9 3 8 5 8
-6 8 6 -7 4 9 6 8
-6 9 7 -6 4 9 6 8
-6 10 8 -4 5 10 7 9
-6 11 8 -3 5 10 7 9
-5 13 8 -3 6 10 8 10
-4 14 8 -2 7 11 9 11
-4 16 8 0 7 11 9 11
-3 17 9 1 8 12 10 12
-2 19 9 2 9 13 11 12
-2 20 9 3 10 14 12 12
0 22 10 5 11 15 14 13
1 23 10 6 12 16 15 13
2 25 11 7 13 17 16 14
3 26 10 7 13 17 16 15
3 27 9 6 13 17 17 16
4 29 7 5 13 17 18 17
5 30 6 5 13 17 18 18
6 31 5 4 12 18 19 19
6 30 4 3 11 18 19 19
6 30 4 2 11 17 19 19
5 29 3 0 10 16 18 18
5 28 2 -2 9 16 18 18
4 27 1 -3 8 15 17 17
4 28 0 -3 8 15 17 17
4 28 0 -3 8 15 17 17
4 29 -2 -3 8 15 17 18
4 30 -3 -3 8 15 17 18
4 31 -4 -3 7 15 18 19
4 29 -4 -3 7 15 18 19
5 26 -4 -3 7 15 18 19
5 24 -4 -3 7 15 18 19
6 22 -4 -3 7 15 18 19
7 20 -5 -2 7 15 19 19
7 17 -5 -2 6 14 17 17
6 15 -4 -2 6 14 16 15
6 13 -4 -2 5 13 14 14
5 10 -3 -2 4 12 13 12
4 8 -2 -2 3 11 11 10
2 6 -3 -4 1 8 9 8
-2 3 -4 -7 -3 6 7 6
-4 1 -5 -9 -5 4 5 5
-6 -2 -6 -11 -7 1 3 3
-8 -4 -7 -13 -9 -2 1 1
-8 -4 -7 -13 -9 -3 0 0
-8 -4 -7 -14 -10 -4 0 -2
-8 -5 -7 -14 -10 -5 -2 -3
-8 -5 -7 -15 -11 -6 -3 -4
-9 -6 -7 -16 -12 -7 -4 -5
-9 -6 -7 -16 -12 -7 -4 -5
-9 -6 -7 -16 -13 -7 -5 -6
-9 -6 -8 -16 -13 -8 -5 -6
-9 -6 -8 -16 -14 -8 -6 -7
-9 -7 -9 -17 -15 -9 -7 -8
-9 -7 -9 -17 -15 -9 -7 -8
-9 -7 -9 -17 -15 -9 -7 -8
-9 -7 -9 -17 -15 -9 -7 -8
-9 -7 -9 -17 -15 -9 -7 -8
-9 -7 -8 -17 -15 -8 -6 -7
-9 -7 -8 -17 -15 -8 -6 -7
-9 -7 -8 -17 -15 -8 -6 -7
-9 -7 -8 -17 -15 -7 -6 -7
-9 -7 -8 -17 -15 -7 -6 -7
-8 -6 -9 -18 -15 -6 -7 -7
-8 -6 -9 -18 -15 -6 -7 -7
-8 -6 -9 -18 -15 -6 -7 -7
-8 -6 -9 -18 -15 -6 -7 -7
-8 -6 -9 -18 -15 -6 -7 -7
-7 -7 -10 -16 -13 -5 -6 -6
-7 -6 -7 -11 -9 -2 -4 -4
-8 -5 -4 -6 -4 3 -2 -3
-8 -4 0 -2 2 7 1 0
-9 -2 3 4 6 11 3 1
-8 3 8 14 18 22 13 9
2 16 16 38 47 53 40 29
10 29 24 62 75 82 69 51
19 43 32 86 104 113 97 72
27 56 42 109 133 144 126 94
39 73 48 129 160 178 162 123
60 99 47 138 188 221 218 177
79 125 45 146 215 265 274 229
99 150 44 155 241 309 330 282
119 177 42 163 269 352 387 335
135 196 34 160 283 382 428 373
139 201 13 122 265 372 428 381
143 206 -8 85 245 362 427 388
147 212 -29 47 226 353 427 394
151 217 -51 9 207 344 426 401
148 209 -71 -32 172 310 395 382
121 164 -88 -80 92 213 290 294
96 119 -103 -129 13 115 185 205
69 74 -119 -177 -66 18 80 117
43 30 -135 -225 -146 -79 -25 29
22 -3 -145 -255 -202 -150 -101 -35
16 -4 -135 -234 -197 -150 -104 -40
11 -5 -124 -215 -192 -150 -106 -46
5 -6 -114 -194 -186 -149 -108 -52
0 -8 -104 -175 -181 -149 -111 -57
-6 -9 -93 -153 -170 -143 -110 -60
-6 -10 -79 -130 -144 -121 -95 -55
-6 -11 -65 -107 -117 -100 -80 -49
-6 -12 -52 -83 -91 -78 -66 -44
-6 -14 -38 -60 -64 -57 -52 -37
-5 -15 -27 -41 -44 -39 -40 -33
-6 -15 -24 -36 -39 -35 -36 -31
-7 -15 -20 -30 -34 -31 -33 -29
-8 -15 -16 -25 -29 -26 -30 -27
-9 -15 -12 -19 -25 -22 -27 -25
-10 -14 -9 -15 -21 -18 -24 -23
-10 -14 -9 -15 -21 -18 -24 -23
-10 -14 -9 -15 -21 -18 -24 -23
-11 -15 -9 -15 -21 -18 -24 -24
-11 -15 -9 -15 -21 -18 -24 -24
-12 -16 -8 -14 -20 -19 -25 -25
-12 -16 -7 -13 -19 -18 -25 -25
-12 -16 -7 -12 -19 -18 -24 -25
-12 -16 -6 -11 -18 -17 -24 -25
-12 -16 -5 -9 -17 -16 -23 -25
-12 -16 -4 -8 -16 -15 -22 -25
-12 -16 -4 -8 -16 -15 -22 -25
-12 -16 -4 -8 -16 -15 -22 -25
-12 -16 -4 -8 -16 -15 -22 -24
-12 -16 -4 -8 -16 -15 -22 -24
-12 -16 -4 -7 -16 -14 -21 -23
-12 -16 -4 -7 -16 -14 -21 -23
-12 -16 -4 -6 -16 -14 -21 -23
-12 -16 -3 -6 -16 -14 -21 -23
-12 -16 -3 -5 -16 -14 -21 -23
-12 -15 -2 -4 -15 -15 -22 -23
-12 -15 -2 -4 -15 -15 -22 -23
-12 -15 -2 -4 -15 -15 -22 -23
-12 -14 -2 -4 -15 -15 -22 -23
-12 -14 -2 -4 -15 -15 -22 -23
-12 -13 -2 -3 -14 -16 -22 -24
-12 -13 -2 -3 -14 -16 -22 -24
-12 -13 -2 -3 -14 -16 -22 -24
-11 -13 -2 -2 -13 -16 -22 -25
-11 -13 -2 -2 -13 -16 -22 -25
-10 -12 0 0 -12 -15 -23 -26
-10 -12 0 0 -12 -15 -23 -26
-10 -13 0 0 -12 -15 -23 -26
-10 -13 0 0 -12 -15 -23 -26
-10 -14 0 0 -12 -15 -23 -26
-10 -15 0 1 -12 -14 -22 -25
-10 -15 0 1 -12 -14 -22 -25
-10 -15 0 2 -12 -13 -22 -25
-10 -15 1 2 -11 -13 -21 -25
-10 -15 1 3 -11 -12 -21 -25
-11 -15 2 4 -10 -11 -20 -24
-11 -15 2 4 -10 -11 -20 -24
-11 -14 2 5 -10 -11 -20 -24
-11 -13 2 5 -10 -11 -20 -24
-11 -12 2 6 -10 -11 -20 -24
-10 -11 3 7 -9 -11 -21 -24
-10 -11 3 7 -9 -11 -21 -24
-10 -12 3 8 -8 -11 -21 -24
-11 -13 4 8 -7 -10 -21 -24
-11 -14 4 9 -6 -10 -21 -24
-12 -15 5 10 -5 -9 -20 -25
-12 -15 5 10 -5 -9 -20 -25
-12 -15 5 11 -5 -9 -20 -25
-11 -15 5 12 -5 -9 -20 -25
-11 -15 5 13 -5 -9 -20 -25
-10 -15 6 14 -4 -10 -21 -25
-10 -15 6 14 -4 -10 -21 -25
-10 -15 6 14 -4 -10 -21 -25
-10 -15 6 15 -3 -10 -21 -26
-10 -15 6 15 -3 -10 -21 -26
-9 -14 7 16 -2 -9 -22 -27
-9 -14 7 17 -2 -9 -22 -27
-9 -14 7 18 -2 -9 -22 -27
-9 -14 7 19 -2 -9 -22 -27
-9 -14 7 20 -2 -9 -22 -27
-9 -13 8 21 -2 -9 -21 -27
-9 -13 8 22 -2 -9 -21 -27
-9 -13 9 23 0 -9 -21 -28
-8 -14 9 24 1 -9 -21 -28
-8 -14 10 26 2 -9 -21 -29
-7 -15 11 27 3 -8 -21 -30
-7 -15 11 28 3 -8 -21 -30
-7 -15 11 29 4 -8 -21 -30
-6 -15 11 30 5 -7 -21 -30
-6 -15 11 31 6 -7 -21 -30
-5 -14 11 32 7 -6 -21 -29
-5 -14 12 33 7 -6 -21 -29
-5 -14 13 34 8 -6 -22 -30
-5 -14 14 35 9 -6 -22 -30
-5 -14 15 36 10 -6 -23 -31
-6 -13 16 37 11 -5 -24 -32
-6 -13 16 38 11 -5 -24 -32
-6 -13 16 39 11 -5 -24 -33
-5 -13 16 40 12 -5 -24 -33
-5 -13 16 42 12 -5 -24 -34
-4 -12 17 43 13 -4 -25 -35
-4 -12 17 44 13 -4 -26 -36
-4 -13 18 45 13 -5 -27 -37
-4 -13 19 46 13 -5 -28 -38
-4 -14 20 47 13 -6 -30 -39
-5 -15 21 48 13 -7 -31 -40
-5 -15 21 48 13 -7 -32 -41
-5 -15 21 48 13 -8 -34 -43
-5 -15 22 49 13 -9 -36 -44
-5 -15 22 49 13 -10 -37 -46
-4 -15 23 50 12 -11 -39 -47
-4 -15 23 50 12 -13 -41 -49
-4 -15 23 50 11 -15 -43 -51
-4 -15 23 50 10 -17 -45 -53
-4 -15 23 50 9 -19 -47 -55
-3 -16 24 51 8 -21 -49 -57
-3 -16 24 51 7 -23 -51 -58
-3 -16 24 50 6 -24 -53 -60
-3 -16 24 49 5 -26 -56 -61
-3 -16 24 48 3 -28 -58 -62
-4 -16 24 47 2 -30 -60 -64
-4 -16 24 47 1 -32 -61 -65
-4 -17 24 47 0 -33 -63 -66
-4 -17 24 47 -2 -35 -65 -67
-4 -18 24 47 -4 -37 -66 -69
-5 -19 24 46 -5 -39 -68 -70
-5 -19 24 45 -6 -40 -69 -71
-5 -19 23 43 -7 -43 -71 -72
-6 -18 23 40 -8 -45 -73 -73
-6 -18 22 39 -10 -46 -74 -74
-7 -17 21 37 -11 -48 -76 -75
-7 -17 21 36 -12 -48 -76 -75
-7 -17 20 34 -13 -49 -76 -75
-7 -16 20 33 -14 -50 -76 -75
-7 -16 19 32 -15 -51 -76 -75
-8 -15 18 30 -16 -52 -76 -75
-8 -15 17 29 -16 -52 -75 -73
-8 -15 16 27 -16 -51 -73 -72
-8 -15 15 25 -16 -50 -71 -70
-8 -15 13 24 -16 -49 -70 -68
-8 -16 12 22 -17 -48 -68 -66
-8 -15 12 21 -17 -46 -65 -63
-8 -14 11 19 -17 -45 -62 -60
-8 -13 10 18 -17 -43 -59 -57
-8 -12 9 17 -17 -40 -56 -54
-7 -10 8 15 -17 -38 -53 -51
-7 -10 7 14 -17 -36 -50 -48
-6 -9 6 13 -16 -34 -46 -45
-5 -8 5 12 -16 -32 -43 -40
-4 -7 4 11 -15 -30 -38 -37
-3 -6 2 9 -14 -28 -35 -34
-3 -6 1 9 -13 -26 -31 -31
-3 -5 0 8 -12 -23 -28 -28
-3 -4 -2 8 -11 -21 -24 -24
-3 -3 -3 7 -10 -19 -21 -21
-2 -2 -4 6 -9 -16 -17 -18
-2 -2 -4 6 -9 -16 -16 -17
-2 0 -4 5 -9 -15 -14 -15
-2 0 -5 4 -9 -14 -13 -13
-2 1 -5 3 -9 -13 -12 -12
-3 2 -6 2 -8 -12 -10 -10
-3 2 -6 2 -8 -11 -9 -9
-3 2 -6 1 -8 -10 -7 -8
-3 3 -6 1 -8 -9 -6 -7
-3 3 -6 0 -8 -8 -5 -6
-2 4 -7 -2 -7 -7 -3 -5
-2 4 -7 -2 -7 -7 -2 -4
-2 4 -7 -2 -7 -7 0 -3
-2 4 -7 -2 -7 -6 1 -2
-2 4 -7 -2 -7 -6 2 0
-2 3 -8 -3 -6 -5 3 1
-2 3 -8 -3 -6 -5 3 1
-2 3 -8 -3 -6 -5 3 1
-2 3 -8 -3 -6 -5 3 1
-2 3 -8 -3 -6 -5 3 1
-2 4 -8 -4 -6 -4 3 2
-2 4 -8 -4 -6 -4 3 2
-2 4 -8 -4 -6 -4 3 2
-2 4 -8 -4 -6 -4 4 2
-2 4 -8 -4 -6 -4 4 2
-3 3 -8 -5 -6 -4 5 2
-3 3 -8 -5 -6 -4 5 2
-3 3 -8 -5 -6 -4 5 2
-3 3 -8 -6 -6 -4 5 2
-3 3 -8 -6 -6 -4 5 2
-2 4 -8 -7 -6 -4 4 2
-2 4 -8 -7 -6 -4 4 2
-2 4 -8 -7 -6 -4 4 2
-2 4 -8 -7 -6 -4 4 2
-2 4 -8 -7 -6 -4 4 2
-2 4 -9 -7 -6 -4 5 3
-2 4 -9 -7 -6 -4 5 3
-2 4 -9 -7 -6 -4 5 3
-2 4 -9 -6 -6 -4 5 3
-2 4 -9 -6 -6 -4 5 3
-2 3 -8 -5 -5 -4 6 3
-2 3 -8 -5 -5 -4 6 3
-2 3 -8 -5 -5 -3 6 3
-2 3 -8 -5 -5 -3 7 4
-2 3 -8 -5 -5 -2 7 4
-3 2 -7 -5 -4 0 8 5
-3 2 -7 -5 -4 0 8 5
-3 3 -7 -5 -4 0 8 5
-3 3 -7 -5 -3 0 8 5
-3 4 -7 -5 -3 0 8 5
-2 5 -8 -5 -2 1 9 4
-2 5 -8 -5 -2 1 9 4
-2 5 -8 -5 -2 1 9 4
-2 5 -8 -4 0 2 9 4
-2 5 -8 -4 0 2 9 4
-3 4 -7 -3 1 3 10 5
-3 4 -7 -3 1 3 10 5
-3 5 -7 -3 1 3 10 5
-3 6 -6 -3 2 4 10 5
-3 7 -6 -3 2 4 10 5
-2 8 -5 -3 3 5 10 6
-2 8 -5 -3 3 5 10 6
-2 8 -5 -2 3 6 11 6
-2 8 -5 0 4 7 11 6
-2 8 -5 1 4 8 12 6
-2 8 -6 2 5 9 13 7
-2 8 -6 2 5 9 13 7
-2 8 -5 3 6 10 14 7
-2 8 -5 3 7 10 14 8
-2 8 -4 4 8 11 15 8
-3 7 -3 5 9 12 16 9
-3 7 -3 5 9 12 16 9
-3 7 -3 5 9 12 16 9
-3 7 -3 5 9 12 16 9
-3 7 -3 5 9 12 16 9
-2 8 -3 4 8 11 16 9
-2 8 -3 4 8 11 16 9
-2 8 -3 5 8 11 17 9
-2 9 -3 5 9 11 17 10
-2 9 -3 6 9 11 18 10
0 10 -2 7 10 12 19 11
0 10 -2 7 10 12 19 11
0 10 -2 7 10 12 19 11
0 10 -2 7 10 12 18 11
0 10 -2 7 10 12 18 11
1 10 -3 6 9 12 17 10
1 10 -3 6 9 12 17 10
1 10 -3 6 9 12 17 10
1 9 -3 6 9 12 17 10
1 9 -3 6 9 12 17 10
1 8 -2 7 10 13 17 9
1 8 -2 7 10 13 17 9
1 8 -2 6 10 13 17 9
1 9 -3 6 10 13 17 9
1 9 -3 5 10 13 17 9
2 10 -4 4 9 12 16 10
2 10 -4 4 9 12 16 10
2 10 -4 4 9 11 16 10
1 9 -4 4 9 10 16 10
1 9 -4 4 9 9 16 10
0 8 -4 3 8 8 15 9
0 8 -4 3 8 8 15 9
0 8 -4 3 7 8 15 8
0 8 -4 2 7 7 14 8
0 8 -4 2 6 7 14 7
1 9 -4 1 5 6 13 6
1 9 -4 1 5 6 13 6
1 9 -4 1 5 6 13 6
1 9 -4 1 5 6 13 7
1 9 -4 1 5 6 13 7
1 8 -4 1 5 7 14 8
1 8 -4 1 5 7 14 8
1 8 -4 0 4 6 13 8
1 8 -5 -2 4 6 13 8
1 8 -5 -3 3 5 12 8
1 7 -6 -4 2 4 11 7
1 7 -6 -4 2 4 11 7
1 7 -6 -4 2 4 11 7
0 7 -6 -4 2 4 11 7
0 7 -6 -4 2 4 11 7
-2 7 -5 -3 1 3 11 6
-2 7 -5 -3 1 3 11 6
-2 7 -5 -4 1 2 11 6
0 7 -6 -5 1 2 11 5
0 7 -6 -6 1 1 11 5
1 8 -7 -7 0 0 10 4
1 8 -7 -7 0 0 10 4
1 8 -7 -7 0 0 10 4
0 7 -7 -7 0 0 10 4
0 7 -7 -7 0 0 10 4
-2 6 -7 -6 0 0 10 5
-2 6 -7 -6 0 0 10 5
-2 6 -7 -6 0 0 10 5
-2 6 -7 -6 -2 0 10 5
-2 6 -7 -6 -2 0 10 5
-2 7 -8 -7 -3 -2 10 5
-2 7 -8 -7 -3 -2 10 5
-2 7 -8 -7 -3 -2 10 5
-2 7 -8 -7 -4 -3 9 5
-2 7 -8 -7 -4 -3 9 5
0 6 -7 -8 -5 -4 8 4
0 6 -7 -8 -5 -4 8 4
0 6 -7 -8 -5 -4 8 4
0 6 -7 -8 -5 -3 9 5
0 6 -7 -8 -5 -3 9 5
0 6 -8 -8 -5 -2 10 6
0 6 -8 -8 -5 -2 10 6
0 6 -8 -8 -5 -2 10 6
0 6 -8 -8 -5 -2 10 6
0 6 -8 -8 -5 -2 10 6
-2 5 -7 -8 -4 -2 11 5
-2 5 -7 -8 -4 -2 11 5
-2 5 -7 -8 -4 -2 11 5
-2 5 -7 -9 -4 -3 10 4
-2 5 -7 -9 -4 -3 10 4
-2 6 -8 -10 -5 -4 9 3
-2 7 -7 -9 -5 -4 9 3
-2 8 -6 -8 -4 -4 10 4
-2 9 -5 -7 -3 -3 11 4
-2 10 -4 -6 -2 -3 12 5
0 12 -2 -5 0 -2 13 6
0 12 -2 -5 0 -2 13 6
0 13 0 -4 1 0 13 7
0 13 1 -4 2 1 14 8
0 14 2 -3 3 2 14 9
1 15 3 -2 4 3 15 10
1 15 3 -2 4 3 15 10
2 16 4 0 4 4 15 10
2 17 4 1 4 5 16 10
3 18 5 2 4 6 16 10
4 19 6 3 4 7 17 11
5 21 6 3 5 8 18 12
6 23 6 4 6 9 19 14
7 25 6 5 8 10 21 15
8 27 6 6 9 11 22 17
10 30 5 7 11 12 24 19
10 30 4 6 11 12 24 19
10 30 2 4 10 12 24 19
10 30 1 3 9 11 24 19
10 30 -2 1 8 11 24 19
11 31 -4 -2 7 10 24 19
11 31 -4 -2 7 10 24 19
11 31 -5 -2 7 10 24 19
11 31 -6 -3 6 10 23 19
11 31 -7 -3 6 10 23 19
10 32 -8 -4 5 9 22 19
10 32 -8 -4 5 9 22 19
10 32 -9 -5 5 9 22 19
11 32 -9 -5 5 8 22 19
11 32 -10 -6 5 8 22 19
12 31 -11 -7 4 7 22 18
12 29 -11 -7 4 7 22 18
12 27 -11 -7 4 7 22 18
12 25 -12 -7 4 7 22 18
12 23 -12 -7 4 7 22 18
12 21 -12 -7 4 7 22 18
11 18 -13 -6 3 6 21 16
9 15 -12 -6 2 5 19 14
7 12 -12 -7 0 3 17 13
5 9 -11 -7 -2 2 15 11
4 7 -11 -7 -3 1 14 10
3 5 -10 -9 -5 -2 12 8
2 4 -10 -11 -6 -4 10 6
1 3 -10 -12 -8 -6 8 5
0 2 -10 -14 -9 -8 6 3
-2 1 -10 -15 -10 -9 4 2
-3 0 -11 -16 -11 -10 2 1
-3 -2 -11 -16 -12 -10 0 0
-4 -3 -12 -17 -13 -11 -3 -2
-4 -4 -12 -17 -14 -11 -5 -3
-4 -4 -12 -17 -15 -11 -7 -3
-5 -5 -13 -18 -16 -12 -8 -4
-5 -5 -13 -18 -16 -12 -8 -4
-5 -5 -13 -19 -16 -13 -8 -4
-5 -5 -13 -19 -16 -13 -8 -4
-5 -5 -13 -19 -16 -13 -8 -4
-5 -5 -14 -20 -16 -14 -9 -5
-5 -5 -14 -20 -16 -14 -8 -5
-5 -6 -14 -20 -16 -14 -8 -5
-5 -6 -14 -20 -16 -14 -7 -5
-5 -6 -14 -20 -16 -14 -7 -5
-4 -7 -14 -20 -16 -13 -6 -4
-4 -7 -14 -20 -16 -13 -6 -4
-4 -7 -14 -20 -16 -13 -6 -4
-4 -7 -14 -20 -16 -13 -6 -4
-4 -7 -14 -20 -16 -13 -6 -4
-3 -6 -14 -20 -15 -13 -7 -3
-3 -6 -14 -20 -15 -13 -7 -3
-2 -5 -14 -20 -15 -13 -7 -3
-2 -5 -14 -20 -15 -13 -7 -3
-2 -5 -14 -20 -15 -13 -7 -3
0 -2 -9 -12 -6 -5 -2 1
0 1 -4 -2 5 4 5 4
0 4 2 9 15 13 11 8
0 6 7 19 25 22 18 11
0 8 12 29 35 30 24 14
13 25 20 54 67 66 60 44
27 44 28 79 99 102 96 74
40 61 36 104 131 139 133 105
55 78 45 130 162 176 170 136
68 97 53 155 194 212 205 167
90 126 45 155 216 252 259 219
111 155 34 153 236 293 313 272
133 185 24 151 257 332 367 324
154 215 15 149 277 373 422 378
177 244 5 147 298 413 475 430
173 234 -18 94 243 357 422 406
167 220 -41 38 185 296 363 378
160 206 -65 -17 127 234 304 349
154 192 -89 -71 68 172 245 321
148 179 -111 -127 10 110 186 293
122 142 -120 -154 -38 50 122 224
96 103 -129 -182 -87 -10 58 153
70 65 -137 -208 -134 -70 -6 82
44 27 -144 -235 -182 -131 -70 13
18 -12 -152 -262 -229 -191 -134 -58
14 -13 -139 -236 -208 -175 -126 -58
12 -11 -123 -205 -182 -155 -113 -54
10 -9 -108 -176 -156 -135 -100 -50
8 -7 -92 -145 -131 -114 -87 -45
6 -6 -76 -115 -105 -94 -73 -40
4 -6 -65 -98 -90 -81 -65 -36
2 -7 -54 -81 -75 -70 -57 -33
1 -9 -44 -65 -61 -59 -50 -29
-2 -10 -32 -49 -47 -47 -41 -26
-3 -11 -21 -32 -32 -35 -33 -23
-4 -12 -19 -29 -29 -33 -31 -22
-5 -12 -18 -27 -27 -31 -30 -21
-6 -13 -16 -25 -25 -29 -29 -21
-7 -13 -15 -23 -23 -27 -28 -20
-7 -13 -14 -21 -21 -25 -27 -20
-8 -14 -13 -20 -20 -24 -26 -19
-8 -14 -13 -19 -20 -24 -26 -19
-8 -14 -13 -19 -20 -24 -26 -20
-8 -14 -13 -18 -20 -24 -26 -20
-8 -14 -13 -18 -20 -24 -26 -20
-8 -15 -13 -17 -20 -25 -27 -21
-8 -15 -12 -16 -19 -24 -27 -21
-9 -15 -11 -16 -18 -23 -26 -20
-9 -15 -10 -15 -17 -22 -26 -20
-9 -15 -9 -15 -17 -22 -26 -20
-10 -15 -8 -14 -16 -21 -25 -19
-10 -15 -8 -14 -16 -21 -25 -19
-9 -15 -8 -14 -16 -21 -25 -19
-9 -15 -8 -14 -16 -21 -25 -19
-9 -15 -8 -14 -16 -21 -25 -19
-8 -14 -9 -14 -17 -22 -25 -20
-8 -14 -9 -13 -17 -21 -25 -20
-8 -14 -9 -13 -16 -21 -24 -19
-8 -14 -9 -12 -16 -20 -24 -19
-8 -14 -9 -12 -16 -20 -24 -19
-9 -14 -8 -11 -15 -19 -23 -18
-9 -14 -8 -11 -15 -19 -23 -18
-9 -14 -8 -11 -15 -20 -23 -18
-9 -14 -8 -11 -15 -20 -23 -18
-9 -14 -8 -11 -15 -20 -23 -18
-9 -14 -7 -11 -15 -21 -24 -19
-9 -14 -7 -10 -15 -21 -24 -19
-9 -14 -6 -10 -15 -21 -24 -19
-9 -14 -6 -9 -15 -21 -24 -19
-9 -14 -6 -9 -15 -21 -24 -19
-9 -15 -5 -8 -14 -20 -25 -20
-9 -15 -5 -8 -14 -20 -25 -20
-9 -15 -5 -7 -14 -20 -24 -20
-9 -15 -5 -7 -14 -20 -24 -20
-9 -15 -5 -7 -14 -20 -24 -20
-9 -14 -6 -6 -13 -19 -23 -19
-9 -14 -5 -5 -13 -19 -23 -19
-9 -14 -4 -4 -12 -18 -23 -19
-9 -14 -3 -3 -12 -18 -23 -19
-9 -14 -3 -3 -12 -18 -23 -19
-8 -14 -2 -2 -11 -17 -22 -19
-8 -15 -2 -2 -11 -17 -22 -19
-8 -15 -2 -2 -11 -17 -22 -19
-8 -16 -2 -2 -11 -17 -22 -19
-8 -16 -2 -2 -11 -17 -22 -19
-8 -17 0 -2 -10 -17 -22 -20
-8 -16 0 0 -10 -17 -22 -20
-8 -16 1 1 -9 -17 -22 -20
-8 -15 1 2 -9 -17 -22 -20
-8 -15 1 2 -9 -17 -22 -20
-7 -14 2 3 -8 -16 -21 -21
-7 -14 2 3 -8 -16 -22 -21
-7 -14 2 4 -8 -16 -23 -22
-7 -14 2 4 -8 -16 -24 -22
-7 -14 2 4 -8 -16 -24 -22
-8 -14 1 5 -8 -16 -25 -23
-8 -14 2 6 -7 -16 -25 -24
-8 -14 2 7 -7 -16 -25 -24
-8 -14 3 8 -6 -16 -25 -25
-8 -14 3 8 -6 -16 -25 -25
-8 -15 4 9 -5 -15 -24 -26
-8 -15 5 10 -5 -15 -24 -26
-7 -14 5 11 -4 -15 -24 -26
-7 -14 6 12 -4 -15 -24 -26
-7 -14 6 12 -4 -15 -24 -26
-6 -13 7 13 -3 -14 -24 -25
-6 -14 7 14 -2 -13 -24 -25
-6 -14 8 15 -2 -13 -24 -25
-6 -15 8 16 0 -12 -24 -25
-6 -15 8 16 0 -12 -24 -25
-7 -16 9 18 1 -11 -23 -25
-7 -16 10 19 2 -11 -24 -26
-6 -16 11 21 3 -11 -25 -26
-6 -16 12 22 4 -11 -26 -27
-6 -16 12 23 4 -11 -26 -27
-5 -15 13 24 5 -12 -27 -28
-5 -15 14 25 6 -12 -27 -29
-5 -15 14 26 6 -12 -27 -29
-5 -15 15 27 7 -12 -27 -30
-5 -15 15 27 7 -12 -27 -30
-5 -16 16 28 8 -11 -26 -32
-5 -16 17 29 8 -11 -27 -33
-5 -16 17 30 8 -11 -28 -34
-5 -16 18 31 8 -11 -29 -35
-5 -16 18 31 8 -11 -30 -36
-4 -15 19 32 8 -12 -31 -38
-4 -15 19 33 8 -13 -32 -39
-4 -16 20 33 8 -13 -33 -41
-4 -16 20 34 8 -14 -34 -43
-4 -16 20 34 8 -14 -35 -44
-3 -17 21 35 8 -15 -37 -46
-3 -17 21 35 8 -16 -38 -47
-3 -17 22 35 7 -17 -40 -48
-3 -17 22 35 7 -18 -43 -49
-3 -17 22 35 7 -19 -44 -50
-4 -17 23 36 6 -21 -46 -52
-4 -17 24 36 5 -22 -47 -53
-4 -18 24 36 5 -24 -49 -55
-4 -18 25 36 4 -26 -50 -56
-4 -18 25 36 4 -27 -51 -57
-5 -19 26 37 2 -29 -53 -59
-5 -19 26 36 1 -31 -55 -60
-6 -20 26 35 0 -33 -57 -62
-6 -20 26 34 -2 -34 -59 -64
-6 -20 26 33 -3 -36 -61 -65
-7 -21 25 32 -5 -38 -63 -67
-7 -21 25 31 -6 -39 -64 -68
-8 -21 25 31 -7 -41 -65 -69
-8 -21 25 30 -8 -44 -67 -70
-8 -21 25 30 -9 -45 -68 -71
-9 -20 25 28 -11 -47 -70 -72
-9 -20 25 27 -12 -49 -72 -73
-9 -20 24 26 -14 -51 -74 -74
-9 -20 24 24 -16 -52 -75 -75
-9 -20 24 23 -17 -54 -77 -76
-9 -21 23 22 -18 -55 -78 -77
-10 -21 22 21 -18 -55 -77 -76
-10 -21 22 20 -18 -54 -76 -75
-11 -21 21 19 -18 -54 -75 -74
-11 -21 21 18 -18 -54 -75 -73
-12 -21 19 16 -18 -53 -73 -71
-11 -20 18 15 -18 -52 -72 -70
-11 -19 17 13 -19 -51 -71 -68
-10 -18 15 11 -19 -50 -69 -66
-10 -17 14 10 -19 -50 -68 -65
-9 -16 13 8 -20 -48 -65 -62
-9 -16 12 7 -19 -45 -62 -59
-9 -16 11 6 -19 -43 -58 -55
-9 -16 10 5 -18 -40 -55 -52
-9 -16 9 4 -18 -38 -52 -49
-9 -15 7 3 -17 -36 -49 -46
-9 -14 6 2 -17 -34 -46 -44
-8 -13 5 1 -17 -32 -43 -40
-8 -12 4 0 -17 -30 -39 -38
-8 -11 3 -2 -17 -28 -36 -35
-7 -10 2 -3 -16 -26 -33 -32
-7 -10 2 -4 -15 -23 -30 -29
-7 -10 1 -4 -14 -21 -26 -26
-7 -10 1 -5 -13 -19 -23 -23
-7 -10 1 -5 -12 -17 -20 -20
-6 -9 0 -6 -11 -16 -18 -18
-6 -8 0 -6 -10 -15 -17 -17
-6 -8 -2 -6 -10 -14 -15 -15
-6 -7 -2 -6 -9 -13 -13 -13
-6 -7 -2 -6 -9 -12 -12 -12
-5 -6 -3 -7 -8 -11 -11 -11
-5 -6 -3 -7 -8 -10 -10 -10
-5 -5 -3 -7 -8 -9 -9 -9
-5 -5 -3 -7 -8 -8 -8 -8
-5 -5 -3 -7 -8 -8 -7 -7
-5 -4 -4 -8 -7 -7 -6 -6
-5 -4 -4 -8 -7 -7 -6 -6
-5 -4 -4 -9 -7 -7 -5 -5
-5 -4 -4 -9 -7 -7 -5 -5
-5 -4 -4 -9 -7 -7 -5 -5
-5 -4 -5 -10 -6 -7 -4 -4
-5 -4 -5 -10 -6 -6 -4 -4
-5 -4 -5 -10 -6 -5 -3 -3
-5 -4 -5 -10 -6 -4 -3 -3
-5 -4 -5 -10 -6 -4 -3 -3
-5 -3 -5 -10 -6 -3 -2 -2
-5 -3 -6 -10 -6 -3 -2 -2
-5 -3 -6 -10 -6 -4 -2 -2
-5 -3 -7 -10 -6 -4 -2 -2
-5 -3 -7 -10 -6 -4 -2 -2
-5 -4 -8 -11 -7 -5 -3 -3
-5 -4 -8 -11 -7 -5 -3 -3
-5 -4 -8 -11 -7 -5 -3 -3
-5 -4 -8 -11 -7 -5 -3 -3
-5 -4 -8 -11 -7 -5 -3 -3
-6 -5 -7 -11 -6 -5 -4 -3
-6 -5 -7 -11 -6 -5 -4 -3
-6 -4 -7 -11 -6 -5 -4 -3
-6 -4 -7 -11 -6 -5 -4 -3
-6 -4 -7 -11 -6 -5 -4 -3
-5 -3 -7 -12 -7 -5 -3 -2
-5 -3 -7 -12 -7 -5 -3 -2
-5 -3 -7 -11 -6 -4 -2 -2
-5 -3 -7 -11 -6 -4 -2 -2
-5 -3 -7 -11 -6 -4 -2 -2
-6 -4 -8 -10 -5 -3 0 0
-6 -4 -8 -10 -5 -3 0 0
-6 -4 -8 -10 -5 -3 0 0
-6 -4 -8 -10 -5 -3 0 0
-6 -4 -8 -10 -5 -3 0 0
-6 -5 -8 -10 -5 -3 0 0
-6 -5 -8 -10 -5 -3 0 0
-6 -5 -7 -10 -4 -2 0 0
-6 -5 -7 -10 -4 -2 0 0
-6 -5 -7 -10 -4 -2 0 0
-6 -4 -6 -9 -3 0 0 0
-6 -4 -6 -9 -3 0 1 0
-6 -4 -6 -8 -2 1 1 1
-6 -4 -6 -8 -2 1 2 1
-6 -4 -6 -8 -2 1 2 1
-7 -4 -7 -7 0 2 3 2
-7 -4 -6 -7 1 3 3 2
-7 -4 -5 -6 2 4 4 3
-7 -4 -4 -6 3 5 4 3
-7 -4 -4 -6 3 5 4 3
-8 -4 -3 -5 4 6 5 4
-8 -4 -3 -5 4 6 5 4
-8 -4 -3 -5 4 6 5 4
-8 -4 -3 -5 4 6 5 4
-8 -4 -3 -5 4 6 5 4
-7 -3 -4 -5 3 7 4 3
-7 -3 -4 -4 4 7 5 4
-7 -3 -4 -3 4 7 6 4
-7 -3 -4 -2 5 7 7 5
-7 -3 -4 -2 5 7 7 5
-6 -2 -3 0 6 8 8 6
-6 -2 -3 0 6 8 8 5
-5 0 -3 0 6 8 8 5
-5 0 -3 0 6 8 8 4
-5 0 -3 0 6 8 8 4
-4 1 -2 -2 6 9 7 3
-4 1 -2 -2 6 9 7 3
-5 0 0 -2 6 9 7 4
-5 0 0 -2 6 9 7 4
-5 0 0 -2 6 9 7 4
-6 -2 1 0 7 10 8 5
-6 -2 1 0 7 10 8 5
-5 -2 1 0 7 10 8 5
-5 -2 1 0 7 10 8 5
-5 -2 1 0 7 10 8 5
-4 0 0 1 8 11 9 5
-4 0 0 1 8 11 9 5
-4 0 0 1 8 11 8 6
-4 0 0 1 8 11 8 6
-4 0 0 1 8 11 8 6
-4 1 0 2 9 12 7 7
-4 1 0 2 8 12 7 6
-4 1 0 1 8 11 7 6
-4 1 0 1 7 11 7 5
-4 1 0 1 7 11 7 5
-4 0 1 0 6 10 5 4
-4 0 1 0 6 9 4 4
-4 0 0 -2 5 8 2 4
-4 0 0 -2 5 8 1 4
-4 0 0 -2 5 7 -2 4
-4 0 -2 -3 4 6 -3 3
-4 0 -2 -3 4 6 -3 3
-4 0 -2 -3 4 6 -3 3
-4 0 -2 -3 4 6 -3 3
-4 0 -2 -3 4 6 -3 3
-4 1 -3 -4 4 6 -2 3
-4 1 -3 -4 4 6 -2 3
-4 0 -3 -4 3 6 -2 3
-4 0 -3 -4 3 6 -2 3
-4 0 -3 -4 3 6 -2 3
-4 -2 -2 -5 2 6 0 3
-4 -2 -2 -6 2 6 0 3
-4 -2 -2 -6 1 5 0 3
-4 -2 -2 -7 1 5 0 3
-4 -2 -2 -7 1 5 0 3
-5 -2 -3 -8 0 4 -2 2
-5 -2 -3 -8 0 4 -2 2
-5 -2 -3 -8 0 4 0 2
-5 -2 -3 -8 0 4 0 2
-5 -2 -3 -8 0 4 0 2
-4 -2 -4 -7 0 3 1 3
-4 -2 -4 -8 -2 3 1 3
-4 -2 -4 -8 -3 2 1 3
-4 -2 -4 -9 -3 2 1 3
-4 -2 -4 -9 -4 2 1 3
-4 -3 -5 -10 -5 1 1 2
-4 -3 -5 -10 -5 1 1 2
-4 -3 -4 -10 -5 1 1 2
-4 -3 -4 -10 -5 1 1 2
-4 -3 -4 -10 -5 1 1 2
-5 -4 -3 -10 -4 1 2 3
-5 -4 -4 -10 -4 1 2 3
-5 -4 -4 -10 -4 1 2 3
-5 -4 -5 -10 -4 1 2 3
-5 -4 -5 -10 -4 1 2 3
-5 -4 -6 -10 -5 1 1 2
-5 -4 -6 -10 -5 1 1 2
-5 -4 -6 -11 -5 0 1 2
-5 -4 -6 -11 -5 0 1 2
-5 -4 -6 -11 -5 0 1 2
-4 -5 -6 -12 -6 -2 0 1
-4 -5 -6 -12 -6 -2 0 1
-4 -5 -6 -12 -6 -2 0 1
-4 -5 -6 -12 -6 -2 0 1
-4 -5 -6 -12 -6 -2 0 1
-5 -5 -6 -13 -7 -2 -2 0
-5 -5 -6 -13 -7 -2 -2 0
-5 -5 -6 -13 -7 -2 -2 0
-5 -5 -6 -13 -7 -2 -2 0
-5 -5 -6 -13 -7 -2 -2 0
-5 -5 -6 -12 -6 0 -2 1
-5 -4 -5 -12 -6 0 -2 1
-5 -4 -5 -11 -6 0 0 2
-5 -3 -4 -11 -6 0 0 2
-5 -3 -4 -11 -6 0 0 2
-4 -2 -3 -10 -6 1 1 3
-4 1 -2 -9 -5 1 2 3
-4 2 0 -9 -5 2 2 3
-4 4 1 -8 -4 2 3 3
-4 5 2 -8 -4 2 3 3
-4 6 3 -7 -3 3 4 3
-4 7 4 -6 -2 4 4 4
-4 8 4 -6 -2 4 5 4
-4 9 5 -5 0 5 5 5
-4 10 5 -5 0 5 5 5
-3 11 6 -4 1 6 6 6
-2 13 7 -2 3 8 8 8
0 14 7 0 4 9 9 9
1 15 8 1 5 11 10 10
2 16 8 2 6 12 11 11
3 18 9 3 7 13 12 12
5 19 8 3 7 13 12 13
6 21 8 3 7 14 13 13
7 22 7 3 7 14 13 14
8 24 7 3 7 14 13 14
9 25 5 3 7 15 14 15
9 25 3 1 6 14 13 15
9 24 2 0 5 13 13 15
9 24 0 -3 4 12 12 15
9 24 -3 -4 3 11 12 15
9 23 -4 -5 2 10 11 14
9 23 -5 -6 2 10 11 14
9 23 -6 -6 2 10 11 14
9 23 -6 -7 2 10 11 14
9 23 -7 -7 2 10 11 14
9 23 -8 -8 2 11 12 15
9 22 -8 -8 2 11 12 15
9 21 -9 -8 2 11 12 15
9 21 -9 -8 2 11 12 15
9 20 -9 -8 2 11 12 15
10 18 -10 -8 1 10 12 15
10 16 -10 -8 0 10 12 14
9 14 -10 -8 0 9 11 14
9 12 -10 -8 -2 9 11 13
9 10 -10 -8 -2 9 11 13
7 8 -9 -9 -3 7 9 11
4 5 -9 -10 -5 6 7 9
2 3 -9 -10 -6 4 6 8
-2 0 -9 -11 -8 3 4 6
-5 -4 -9 -11 -9 1 2 4
-6 -5 -9 -12 -10 -2 1 3
-6 -6 -9 -13 -11 -3 0 1
-7 -7 -9 -14 -13 -5 -3 0
-7 -8 -9 -15 -14 -6 -4 -3
-7 -9 -9 -16 -15 -8 -5 -4
-8 -10 -9 -17 -16 -9 -6 -5
-8 -10 -9 -17 -16 -9 -6 -5
-9 -11 -10 -18 -17 -10 -7 -6
-10 -11 -11 -19 -18 -11 -8 -7
-10 -11 -11 -19 -18 -11 -8 -7
-11 -12 -12 -20 -19 -12 -9 -8
-11 -12 -12 -20 -19 -12 -9 -8
-11 -11 -12 -20 -19 -12 -9 -8
-11 -10 -12 -20 -19 -12 -9 -8
-11 -10 -12 -20 -19 -12 -9 -8
-10 -9 -12 -20 -20 -12 -9 -9
-10 -9 -12 -20 -20 -12 -9 -9
-10 -9 -12 -19 -20 -12 -9 -9
-10 -9 -12 -19 -20 -12 -9 -9
-10 -9 -12 -19 -20 -12 -9 -9
-9 -10 -12 -18 -19 -11 -9 -8
-9 -10 -12 -18 -19 -11 -9 -8
-9 -11 -13 -18 -19 -11 -9 -8
-9 -11 -13 -18 -19 -11 -9 -8
-9 -11 -13 -18 -19 -11 -9 -8
-10 -12 -13 -18 -17 -11 -9 -9
-10 -12 -12 -16 -16 -10 -9 -9
-11 -11 -10 -14 -14 -8 -8 -9
-11 -10 -9 -12 -13 -7 -7 -9
-11 -10 -7 -10 -11 -6 -7 -9
-9 -4 0 4 3 8 5 0
-4 6 8 22 23 28 22 12
3 14 17 42 44 49 39 25
8 23 25 61 64 69 57 37
14 31 33 80 85 89 74 51
29 49 38 99 111 121 109 80
50 69 40 117 142 160 153 119
70 91 44 135 172 200 196 158
92 111 46 153 201 239 240 197
112 133 49 172 232 278 284 237
131 157 38 165 243 304 319 272
148 183 20 144 243 320 348 304
164 210 2 121 243 337 377 337
182 235 -18 100 243 353 406 368
198 262 -36 77 243 369 435 401
188 241 -56 31 192 315 384 362
159 192 -76 -29 110 218 283 280
131 142 -98 -90 28 120 182 198
103 93 -118 -150 -54 23 81 116
74 44 -139 -210 -136 -74 -19 34
56 20 -146 -232 -169 -116 -64 -5
44 12 -143 -229 -174 -126 -75 -17
32 5 -140 -226 -179 -135 -87 -30
20 -4 -137 -223 -183 -144 -99 -44
8 -12 -134 -220 -188 -153 -110 -57
3 -15 -121 -198 -175 -145 -107 -59
2 -15 -103 -166 -149 -123 -93 -53
1 -14 -85 -135 -122 -103 -78 -47
1 -13 -67 -103 -97 -81 -64 -41
0 -13 -49 -71 -71 -60 -50 -35
-3 -12 -38 -55 -57 -49 -41 -32
-5 -13 -32 -47 -51 -44 -37 -30
-7 -14 -26 -39 -44 -37 -34 -28
-9 -14 -21 -31 -37 -32 -30 -27
-11 -15 -15 -23 -30 -27 -26 -25
-12 -16 -12 -20 -27 -24 -24 -24
-12 -16 -12 -19 -26 -24 -24 -24
-13 -17 -11 -18 -25 -23 -23 -24
-14 -17 -10 -17 -25 -22 -23 -24
-14 -17 -10 -16 -24 -22 -23 -24
-15 -18 -9 -15 -23 -21 -22 -23
-15 -18 -9 -15 -23 -21 -22 -23
-15 -17 -8 -14 -22 -21 -22 -23
-15 -17 -7 -13 -22 -21 -22 -23
-15 -17 -7 -13 -22 -21 -22 -23
-15 -16 -6 -12 -21 -20 -22 -24
-15 -16 -6 -12 -21 -20 -22 -24
-15 -17 -6 -11 -20 -19 -21 -24
-15 -17 -6 -10 -20 -19 -20 -24
-15 -17 -6 -10 -20 -19 -20 -24
-16 -18 -5 -9 -19 -18 -19 -23
-16 -18 -5 -9 -19 -18 -19 -23
-16 -18 -4 -9 -19 -18 -19 -23
-16 -18 -4 -9 -19 -18 -19 -23
-16 -18 -4 -9 -19 -18 -19 -23
-15 -17 -3 -10 -19 -18 -20 -23
-15 -17 -3 -10 -19 -18 -20 -23
-15 -17 -3 -10 -18 -18 -20 -23
-15 -17 -3 -10 -17 -18 -20 -23
-15 -17 -3 -10 -17 -18 -20 -23
-16 -17 -3 -10 -16 -17 -19 -23
-16 -17 -3 -10 -16 -17 -19 -23
-15 -17 -3 -10 -16 -17 -19 -23
-15 -17 -3 -10 -16 -17 -19 -23
-15 -17 -3 -10 -16 -17 -19 -23
-14 -16 -3 -10 -16 -18 -19 -22
-14 -16 -3 -10 -16 -18 -19 -22
-14 -16 -2 -9 -16 -17 -18 -22
-14 -16 -2 -8 -16 -16 -18 -22
-14 -16 -2 -8 -16 -16 -18 -22
-14 -15 0 -7 -15 -15 -17 -22
-14 -15 0 -7 -15 -15 -17 -22
-14 -15 1 -7 -15 -15 -18 -22
-14 -15 1 -7 -15 -15 -18 -22
-14 -15 1 -7 -15 -15 -18 -22
-14 -16 2 -7 -15 -16 -19 -22
-14 -16 2 -6 -14 -16 -19 -22
-14 -16 3 -5 -13 -15 -18 -21
-14 -16 3 -4 -13 -14 -18 -21
-14 -16 3 -3 -12 -14 -18 -21
-13 -16 4 -2 -11 -13 -17 -20
-13 -16 4 -2 -11 -13 -17 -20
-13 -16 5 0 -11 -13 -17 -21
-13 -16 5 0 -11 -13 -17 -22
-13 -16 5 0 -11 -13 -17 -22
-12 -16 6 1 -10 -14 -18 -23
-12 -16 6 2 -10 -14 -18 -23
-12 -16 7 3 -9 -14 -18 -23
-12 -16 7 3 -9 -14 -18 -23
-12 -16 7 4 -9 -14 -18 -23
-11 -16 8 5 -8 -13 -17 -22
-11 -16 8 6 -8 -13 -17 -22
-11 -16 8 7 -8 -13 -17 -23
-11 -16 8 8 -8 -13 -17 -23
-11 -16 8 9 -8 -13 -17 -23
-11 -16 8 10 -8 -13 -17 -24
-11 -16 9 10 -7 -13 -17 -24
-11 -16 10 11 -6 -13 -17 -24
-11 -16 11 12 -6 -13 -17 -24
-11 -16 12 12 -5 -13 -17 -24
-11 -16 13 13 -4 -12 -17 -23
-11 -16 13 14 -4 -12 -17 -23
-10 -16 14 15 -3 -12 -17 -24
-10 -16 14 15 -3 -12 -17 -24
-10 -16 14 16 -3 -12 -17 -24
-9 -15 15 17 -2 -11 -17 -25
-9 -15 15 18 0 -11 -17 -25
-9 -15 16 19 1 -10 -17 -24
-9 -15 17 19 1 -10 -17 -24
-9 -15 17 20 2 -10 -17 -24
-8 -15 18 21 3 -9 -17 -23
-8 -15 18 22 3 -9 -17 -24
-8 -15 18 23 4 -9 -18 -25
-8 -15 18 24 5 -9 -18 -25
-8 -15 18 25 5 -9 -18 -26
-8 -15 19 26 6 -10 -19 -27
-8 -15 20 28 6 -10 -19 -27
-7 -15 21 29 7 -9 -19 -27
-6 -15 21 30 8 -9 -19 -27
-6 -15 22 32 8 -9 -19 -27
-5 -16 23 33 9 -8 -19 -28
-5 -16 24 34 9 -8 -20 -29
-5 -16 25 35 9 -9 -21 -31
-5 -16 25 35 9 -10 -21 -32
-5 -16 26 36 9 -10 -22 -33
-6 -16 27 37 8 -11 -23 -34
-6 -16 27 37 8 -11 -24 -34
-6 -16 28 38 8 -12 -25 -34
-6 -16 28 39 8 -13 -25 -34
-6 -16 28 39 8 -13 -26 -34
-6 -16 29 40 9 -14 -27 -35
-6 -16 29 40 9 -16 -29 -37
-6 -17 29 40 8 -17 -31 -39
-6 -18 29 40 8 -18 -32 -41
-6 -18 29 40 8 -20 -34 -44
-6 -19 30 42 7 -21 -35 -45
-6 -19 30 42 6 -22 -37 -46
-6 -19 31 42 4 -23 -39 -47
-6 -19 31 42 3 -24 -41 -47
-6 -19 31 42 2 -25 -44 -48
-7 -18 32 40 1 -27 -45 -49
-7 -18 32 40 0 -29 -47 -51
-7 -19 32 39 -2 -31 -48 -53
-7 -20 32 38 -3 -33 -49 -55
-7 -20 32 38 -4 -35 -51 -57
-8 -21 31 37 -5 -37 -52 -58
-8 -21 31 35 -6 -38 -53 -58
-9 -21 31 34 -7 -39 -54 -59
-9 -21 31 33 -8 -39 -55 -60
-9 -21 31 31 -9 -40 -56 -60
-10 -20 31 30 -10 -41 -57 -61
-10 -20 31 29 -10 -43 -58 -61
-11 -20 30 27 -11 -45 -59 -62
-11 -20 29 26 -11 -46 -59 -62
-11 -20 29 25 -11 -47 -60 -62
-12 -21 28 24 -12 -48 -61 -63
-13 -22 26 22 -13 -48 -61 -62
-15 -24 25 20 -15 -48 -60 -61
-16 -25 24 18 -16 -48 -60 -61
-17 -26 22 16 -17 -48 -60 -60
-18 -27 21 15 -18 -48 -59 -59
-18 -27 20 13 -18 -47 -57 -57
-19 -28 18 11 -19 -46 -55 -55
-20 -28 17 10 -19 -45 -53 -54
-20 -28 16 8 -19 -44 -51 -52
-21 -29 15 7 -20 -43 -49 -50
-21 -29 13 6 -20 -40 -46 -48
-21 -28 12 4 -19 -38 -43 -45
-21 -27 11 3 -18 -36 -40 -41
-21 -27 9 2 -18 -34 -37 -39
-21 -26 8 1 -17 -33 -34 -36
-21 -26 7 0 -17 -31 -31 -34
-21 -25 6 -2 -16 -29 -28 -31
-21 -24 5 -3 -15 -27 -26 -28
-21 -24 4 -4 -15 -25 -23 -26
-21 -23 3 -5 -14 -24 -20 -23
-21 -23 3 -5 -13 -22 -18 -21
-21 -22 2 -5 -12 -20 -15 -19
-21 -22 1 -5 -12 -18 -13 -18
-21 -22 1 -5 -11 -16 -11 -16
-22 -21 0 -6 -10 -15 -9 -14
-22 -21 0 -6 -10 -15 -8 -13
-22 -21 0 -7 -10 -14 -7 -12
-22 -21 -2 -8 -10 -13 -5 -10
-22 -21 -2 -8 -10 -13 -4 -9
-21 -21 -3 -9 -10 -12 -3 -8
-21 -21 -3 -9 -10 -12 -3 -7
-21 -21 -3 -9 -10 -11 -2 -6
-21 -21 -3 -9 -9 -10 0 -5
-21 -21 -3 -9 -9 -10 0 -4
-22 -21 -4 -9 -8 -9 1 -3
-22 -21 -4 -9 -8 -9 1 -3
-22 -21 -4 -9 -8 -9 1 -3
-22 -21 -5 -10 -8 -9 2 -3
-22 -21 -5 -10 -8 -9 2 -3
-21 -20 -6 -11 -7 -9 3 -3
-21 -20 -6 -11 -7 -9 3 -3
-21 -20 -6 -11 -7 -9 3 -2
-21 -20 -6 -11 -7 -9 4 0
-21 -20 -6 -11 -7 -9 4 0
-22 -19 -6 -11 -6 -8 5 1
-22 -19 -6 -11 -6 -8 5 1
-22 -19 -6 -11 -6 -8 5 1
-22 -20 -6 -11 -6 -8 5 1
-22 -20 -6 -11 -6 -8 5 1
-23 -21 -7 -12 -7 -8 4 1
-23 -21 -7 -12 -7 -8 4 1
-23 -21 -7 -12 -7 -8 4 1
-23 -21 -7 -12 -7 -8 5 1
-23 -21 -7 -12 -7 -8 5 1
-22 -20 -7 -11 -6 -7 6 2
-22 -20 -7 -11 -6 -7 6 2
-22 -20 -7 -11 -6 -7 6 2
-22 -20 -7 -11 -6 -7 5 2
-22 -20 -7 -11 -6 -7 5 2
-23 -21 -7 -12 -7 -8 4 1
-23 -21 -7 -12 -7 -8 4 1
-23 -21 -7 -12 -7 -7 4 1
-23 -20 -7 -11 -7 -6 5 2
-23 -20 -7 -11 -7 -6 5 2
-23 -19 -7 -10 -6 -5 6 3
-23 -19 -7 -10 -6 -5 6 3
-23 -19 -7 -10 -6 -5 6 3
-23 -19 -7 -10 -6 -5 6 3
-23 -19 -7 -10 -6 -5 6 3
-22 -19 -7 -9 -6 -6 7 2
-22 -19 -7 -9 -6 -6 7 2
-22 -19 -7 -9 -5 -6 7 2
-22 -18 -7 -9 -4 -5 8 2
-22 -18 -7 -9 -4 -5 8 2
-22 -17 -7 -8 -3 -4 9 3
-22 -17 -7 -7 -3 -4 9 3
-22 -17 -7 -7 -3 -4 9 3
-21 -17 -6 -6 -2 -4 10 3
-21 -17 -6 -5 -2 -4 10 3
-20 -16 -5 -4 0 -3 11 4
-20 -16 -5 -4 0 -3 11 4
-20 -16 -5 -4 0 -3 11 4
-20 -16 -5 -4 1 -2 11 4
-20 -16 -5 -4 1 -2 11 4
-20 -17 -5 -3 2 0 11 5
-20 -17 -5 -3 2 0 11 5
-20 -17 -5 -3 2 0 11 5
-20 -16 -5 -3 2 1 11 5
-20 -16 -5 -3 2 1 11 5
-19 -15 -5 -3 2 2 11 5
-19 -15 -5 -2 3 2 11 5
-19 -15 -5 -2 4 2 11 5
-18 -15 -4 0 5 3 12 6
-18 -15 -4 1 6 3 12 6
-17 -15 -3 2 7 4 13 7
-17 -14 -3 2 7 4 13 7
-17 -14 -3 2 7 4 13 7
-17 -13 -3 2 7 4 13 7
-17 -12 -3 2 7 4 13 7
-17 -11 -3 3 7 4 12 6
-17 -11 -3 3 7 4 12 6
-17 -11 -3 3 7 4 12 6
-16 -11 -3 3 7 4 13 6
-16 -11 -3 3 7 4 13 6
-15 -12 -3 4 7 4 14 7
-15 -12 -3 4 7 4 14 7
-15 -12 -3 4 7 4 14 7
-15 -12 -3 4 7 4 14 7
-15 -12 -3 4 7 4 14 7
-16 -12 -2 5 8 5 13 7
-16 -12 -2 5 8 5 13 7
-16 -12 -2 5 8 5 13 7
-15 -11 -2 5 8 5 13 7
-15 -11 -2 5 8 5 13 7
-14 -10 -3 4 8 5 12 7
-14 -10 -3 4 8 5 12 7
-14 -10 -3 4 8 5 12 7
-14 -10 -3 4 8 4 12 7
-14 -10 -3 4 8 4 12 7
-14 -9 -3 4 7 3 11 6
-14 -9 -3 4 7 3 11 6
-14 -9 -3 4 7 3 11 6
-13 -9 -3 4 7 3 11 6
-13 -9 -3 4 7 3 11 6
-12 -8 -4 3 6 2 10 6
-12 -8 -4 3 6 2 10 6
-12 -8 -4 3 6 2 10 6
-12 -8 -4 2 5 1 9 6
-12 -8 -4 2 5 1 9 6
-12 -8 -4 1 4 0 8 5
-12 -8 -4 1 4 0 8 5
-12 -8 -4 1 4 0 8 5
-12 -8 -4 1 4 0 7 5
-12 -8 -4 1 4 0 7 5
-13 -9 -5 0 4 0 6 5
-13 -9 -5 0 4 0 6 5
-13 -9 -5 0 4 0 6 5
-13 -8 -5 0 3 0 6 5
-13 -8 -5 0 3 0 6 5
-12 -7 -5 -2 2 0 5 5
-12 -7 -5 -2 2 0 5 5
-12 -7 -5 -2 2 0 5 5
-12 -8 -5 -2 2 0 5 5
-12 -8 -5 -2 2 0 5 5
-11 -9 -5 -3 1 -2 4 5
-11 -9 -5 -3 1 -2 4 5
-11 -9 -5 -4 1 -2 4 5
-11 -9 -6 -5 1 -3 4 5
-11 -9 -6 -5 1 -3 4 5
-11 -9 -7 -6 0 -4 3 4
-11 -9 -7 -6 0 -4 3 4
-11 -8 -7 -6 0 -4 3 4
-11 -7 -7 -5 0 -4 3 4
-11 -7 -7 -5 0 -4 3 4
-10 -6 -6 -4 0 -4 3 5
-10 -6 -6 -4 0 -4 3 5
-10 -6 -6 -4 0 -4 3 5
-10 -6 -6 -5 0 -5 2 5
-10 -6 -6 -5 0 -5 2 5
-10 -7 -6 -6 -2 -6 1 6
-10 -7 -6 -6 -2 -6 1 6
-10 -7 -6 -6 -2 -6 1 6
-10 -7 -6 -6 -2 -6 2 6
-10 -7 -6 -6 -2 -6 2 6
-10 -7 -6 -6 -2 -5 3 7
-10 -6 -6 -6 -2 -5 3 7
-10 -6 -6 -5 -2 -5 3 7
-10 -5 -6 -4 0 -5 3 7
-10 -4 -6 -4 0 -5 3 7
-9 -3 -5 -3 1 -5 2 6
-9 -2 -4 -3 1 -4 3 6
-9 0 -3 -3 2 -4 3 6
-9 2 0 -2 3 -3 4 7
-9 3 1 -2 3 -2 5 7
-8 4 2 0 4 0 6 8
-8 4 2 1 4 0 7 9
-8 4 2 2 5 1 7 10
-8 5 3 3 6 2 8 11
-8 5 3 4 6 2 9 12
-7 6 4 5 7 3 10 13
-6 8 5 6 7 4 10 13
-4 9 5 6 8 4 11 14
-3 11 6 7 9 5 12 15
0 12 7 8 9 6 12 15
1 14 8 9 10 7 13 16
2 16 8 10 11 8 14 17
3 18 8 11 11 8 14 17
5 20 8 12 12 9 15 18
6 22 8 13 13 10 16 19
7 24 8 14 14 11 17 20
7 24 6 12 13 11 17 20
7 24 4 10 13 11 17 20
7 24 2 8 12 10 17 20
7 24 1 6 11 10 17 20
8 23 -2 4 10 9 16 20
8 23 -2 4 10 9 16 20
8 24 -3 3 10 9 16 20
8 25 -4 2 9 8 16 20
8 25 -4 2 9 8 16 20
9 26 -5 1 8 7 15 20
9 25 -5 1 8 7 15 20
10 25 -6 0 8 7 15 20
11 24 -7 -2 7 6 15 20
11 23 -7 -2 7 6 15 20
12 22 -8 -3 6 5 16 20
12 20 -8 -3 6 5 15 20
12 18 -8 -3 6 4 14 19
11 16 -8 -3 5 3 12 18
11 14 -8 -3 5 3 11 18
10 12 -7 -4 4 2 10 17
7 9 -7 -5 3 1 9 16
5 7 -7 -5 2 0 8 14
2 4 -7 -6 0 -3 7 13
0 2 -7 -7 -2 -4 6 11
-3 0 -8 -8 -3 -5 5 10
-4 -2 -8 -9 -4 -6 4 9
-5 -2 -8 -10 -5 -7 3 7
-6 -3 -8 -11 -7 -9 1 6
-7 -4 -8 -12 -8 -10 0 4
-8 -5 -8 -13 -9 -11 -2 3
-8 -5 -8 -13 -10 -12 -3 3
-8 -6 -8 -14 -10 -12 -3 3
-8 -7 -8 -15 -11 -13 -4 2
-8 -7 -8 -15 -12 -14 -5 2
-8 -8 -9 -16 -13 -15 -6 1
-8 -8 -9 -16 -13 -15 -6 1
-8 -8 -9 -16 -13 -15 -6 1
-8 -8 -8 -16 -13 -15 -6 1
-8 -8 -8 -16 -13 -15 -6 1
-8 -7 -7 -15 -13 -15 -7 0
-8 -7 -7 -15 -13 -15 -7 0
-8 -7 -7 -15 -13 -15 -7 0
-8 -7 -6 -15 -13 -14 -7 0
-8 -7 -6 -15 -13 -14 -7 0
-8 -7 -5 -14 -13 -13 -6 1
-8 -7 -5 -14 -13 -13 -6 1
-8 -7 -5 -14 -13 -13 -6 1
-8 -7 -5 -14 -13 -13 -6 0
-8 -7 -5 -14 -13 -13 -6 0
-7 -6 -6 -13 -14 -13 -7 -2
-7 -6 -6 -13 -14 -13 -7 -2
-7 -6 -6 -13 -14 -13 -7 -2
-6 -6 -5 -13 -13 -13 -7 0
-6 -6 -5 -13 -13 -13 -7 0
-5 -4 -3 -10 -8 -10 -4 3
-3 2 5 4 5 4 7 9
-2 8 11 18 18 16 16 16
1 13 17 31 31 28 25 22
2 18 23 45 45 40 34 29
9 27 30 62 63 61 53 44
26 45 37 85 94 97 90 75
44 63 45 108 125 133 127 106
62 80 52 131 154 169 163 137
79 99 59 154 185 204 200 169
99 119 61 170 212 239 240 204
121 148 48 164 230 274 285 250
144 177 35 159 250 309 331 296
168 205 22 155 268 343 377 342
190 234 10 150 286 378 423 388
201 244 -6 128 277 378 430 401
183 211 -28 67 202 296 350 339
163 177 -51 7 129 214 270 276
145 143 -73 -54 54 132 190 214
127 109 -96 -114 -20 50 110 151
107 79 -112 -161 -79 -17 44 97
87 60 -115 -176 -106 -51 8 63
65 42 -118 -189 -133 -85 -29 29
45 23 -121 -203 -159 -117 -65 -5
24 4 -124 -218 -186 -151 -101 -37
9 -10 -123 -220 -197 -170 -122 -61
8 -9 -108 -190 -174 -149 -109 -55
7 -9 -93 -161 -149 -129 -96 -49
6 -8 -76 -132 -124 -108 -81 -43
5 -7 -61 -103 -100 -88 -68 -37
4 -6 -48 -78 -79 -71 -57 -32
2 -7 -38 -66 -69 -62 -50 -29
0 -7 -29 -53 -59 -54 -44 -27
-3 -8 -20 -40 -48 -45 -37 -24
-5 -9 -12 -28 -37 -36 -31 -21
-7 -10 -5 -19 -29 -29 -26 -19
-7 -10 -4 -17 -28 -28 -26 -19
-8 -11 -3 -16 -27 -27 -25 -18
-8 -11 -2 -14 -26 -26 -25 -18
-9 -12 0 -13 -24 -25 -24 -17
-10 -13 1 -11 -23 -24 -23 -16
-10 -13 1 -11 -23 -24 -23 -16
-10 -13 2 -10 -23 -24 -23 -16
-10 -13 2 -10 -23 -24 -23 -17
-10 -13 3 -9 -23 -24 -23 -17
-10 -14 4 -8 -23 -23 -23 -18
-10 -14 4 -8 -22 -23 -22 -18
-10 -14 4 -7 -22 -22 -22 -18
-10 -14 5 -7 -21 -22 -21 -18
-10 -14 5 -6 -20 -21 -20 -18
-10 -14 6 -5 -19 -20 -19 -17
-10 -14 6 -5 -19 -20 -19 -17
-10 -14 7 -5 -19 -20 -19 -17
-10 -14 7 -5 -19 -20 -19 -17
-10 -14 8 -5 -19 -20 -19 -17
-9 -13 9 -5 -20 -20 -20 -18
-9 -13 9 -5 -20 -20 -20 -18
-9 -13 9 -4 -20 -20 -20 -18
-9 -13 9 -4 -19 -20 -19 -18
-9 -13 9 -3 -19 -20 -19 -18
-10 -12 10 -2 -18 -19 -18 -17
-10 -12 10 -2 -18 -19 -18 -17
-10 -12 10 -2 -18 -19 -18 -18
-10 -12 10 0 -18 -20 -18 -18
-10 -12 10 0 -18 -20 -18 -19
-9 -12 10 1 -19 -21 -19 -20
-9 -12 10 1 -19 -20 -19 -20
-9 -12 10 1 -18 -20 -19 -20
-9 -12 11 2 -18 -19 -19 -19
-9 -12 11 2 -17 -18 -19 -19
-9 -12 12 3 -16 -17 -18 -18
-9 -12 12 3 -16 -17 -18 -18
-9 -12 12 4 -16 -17 -18 -18
-9 -11 12 4 -16 -17 -18 -18
-9 -11 12 5 -16 -17 -18 -18
-9 -10 11 6 -16 -18 -19 -19
-9 -10 11 6 -16 -17 -19 -19
-9 -10 11 7 -15 -17 -18 -19
-9 -10 12 7 -15 -16 -18 -19
-9 -10 12 8 -14 -15 -17 -19
-8 -11 13 9 -13 -14 -16 -18
-8 -11 13 9 -13 -14 -16 -18
-8 -11 14 9 -13 -15 -17 -18
-8 -11 14 9 -13 -15 -17 -19
-8 -11 15 9 -13 -16 -18 -19
-9 -11 16 10 -14 -17 -19 -20
-9 -11 16 10 -14 -17 -19 -20
-8 -10 16 11 -13 -16 -19 -20
-8 -10 16 11 -13 -16 -19 -20
-7 -9 16 12 -12 -15 -19 -20
-6 -8 17 13 -11 -14 -18 -20
-6 -8 17 13 -11 -14 -18 -20
-6 -9 17 13 -11 -14 -18 -21
-6 -9 17 13 -11 -14 -19 -21
-6 -10 17 13 -11 -14 -19 -22
-7 -11 17 14 -11 -15 -20 -23
-7 -11 17 15 -11 -15 -20 -23
-7 -11 18 16 -10 -14 -20 -23
-7 -10 18 17 -9 -14 -19 -23
-7 -10 19 19 -8 -13 -19 -23
-7 -9 20 20 -7 -12 -18 -22
-7 -9 20 20 -7 -12 -18 -22
-7 -9 20 20 -7 -12 -19 -23
-7 -9 20 20 -7 -12 -19 -23
-7 -9 20 20 -7 -12 -20 -24
-6 -9 19 21 -7 -13 -21 -25
-6 -9 19 22 -6 -13 -21 -25
-6 -9 20 23 -5 -12 -20 -25
-5 -9 21 24 -4 -12 -20 -25
-5 -9 22 26 -3 -11 -19 -25
-4 -9 23 27 -2 -10 -18 -24
-4 -9 23 27 -2 -10 -18 -24
-4 -9 24 28 -2 -10 -18 -25
-4 -9 24 29 -2 -10 -18 -25
-4 -9 25 30 -2 -10 -18 -26
-3 -8 26 31 -2 -11 -17 -27
-3 -8 26 32 -2 -11 -17 -27
-3 -8 26 33 0 -11 -17 -27
-3 -8 27 34 1 -10 -17 -27
-3 -8 27 36 2 -10 -17 -27
-2 -7 28 37 3 -9 -17 -28
-2 -7 28 37 3 -9 -18 -28
-2 -7 28 37 3 -10 -19 -29
-2 -7 29 38 3 -10 -20 -30
-2 -7 29 38 3 -11 -21 -31
-2 -7 30 39 4 -12 -22 -32
-2 -7 30 40 4 -12 -23 -33
-2 -7 31 42 4 -12 -24 -34
0 -7 31 43 5 -12 -25 -35
0 -7 32 45 5 -12 -27 -36
1 -7 33 46 6 -13 -28 -37
1 -7 33 46 6 -14 -29 -38
1 -8 33 46 6 -15 -31 -40
1 -8 33 47 5 -16 -32 -43
1 -9 33 47 5 -17 -33 -44
0 -10 34 48 4 -18 -35 -46
0 -10 34 48 4 -19 -37 -47
0 -10 34 48 3 -21 -38 -49
0 -9 35 48 3 -23 -40 -50
0 -9 35 48 2 -24 -43 -51
0 -8 36 48 1 -26 -45 -53
0 -8 36 47 0 -28 -47 -55
0 -9 36 46 -3 -30 -49 -56
-2 -10 35 45 -4 -32 -51 -58
-2 -11 35 44 -5 -34 -53 -60
-3 -12 34 43 -7 -36 -55 -62
-3 -12 34 43 -8 -37 -56 -62
-3 -12 34 42 -9 -38 -57 -63
-3 -12 34 42 -10 -39 -58 -63
-3 -12 34 40 -11 -40 -59 -64
-4 -12 34 39 -12 -41 -60 -65
-4 -12 34 38 -13 -43 -61 -65
-4 -12 33 37 -14 -45 -63 -66
-5 -12 33 36 -15 -46 -64 -66
-5 -12 32 34 -17 -47 -65 -67
-6 -11 31 33 -18 -49 -67 -68
-6 -11 31 33 -18 -49 -67 -67
-6 -11 30 32 -18 -48 -66 -66
-6 -11 30 32 -18 -48 -65 -65
-6 -11 29 31 -18 -47 -64 -64
-7 -10 28 30 -18 -46 -63 -63
-7 -10 27 28 -18 -46 -61 -62
-7 -9 25 27 -18 -45 -60 -60
-6 -8 24 25 -18 -45 -58 -58
-6 -7 23 23 -18 -44 -56 -57
-5 -6 21 21 -19 -43 -54 -55
-5 -6 21 20 -19 -40 -51 -52
-5 -5 20 19 -19 -38 -49 -49
-5 -4 19 18 -18 -36 -46 -46
-5 -3 18 17 -18 -34 -44 -43
-5 -2 17 16 -17 -32 -40 -39
-5 -2 16 16 -17 -30 -37 -36
-5 0 14 15 -16 -28 -34 -33
-4 0 13 14 -15 -25 -30 -31
-4 1 12 13 -14 -23 -27 -28
-3 2 10 12 -13 -21 -24 -25
-3 3 10 12 -12 -20 -21 -22
-3 4 10 12 -11 -18 -18 -19
-3 5 10 12 -10 -16 -16 -17
-3 6 10 12 -9 -15 -13 -14
-2 7 9 11 -8 -13 -10 -11
-2 7 9 11 -8 -13 -9 -11
-2 7 8 10 -8 -12 -8 -10
-2 8 8 9 -8 -11 -7 -10
-2 8 7 8 -8 -10 -6 -9
0 9 6 7 -8 -9 -5 -8
0 9 6 7 -8 -9 -4 -7
0 9 6 7 -7 -8 -3 -6
-2 9 5 7 -7 -8 -2 -5
-2 9 5 7 -6 -7 0 -4
-3 8 4 7 -5 -6 1 -3
-3 8 4 7 -5 -6 1 -2
-3 8 4 7 -5 -6 2 0
-3 9 4 7 -4 -6 2 1
-3 9 4 7 -4 -6 3 2
-2 10 5 7 -3 -6 4 3
-2 10 5 7 -3 -6 4 3
-2 10 5 7 -3 -5 4 3
-2 10 4 7 -3 -5 5 4
-2 10 4 7 -3 -4 5 4
-2 9 3 6 -4 -3 6 5
-2 9 3 6 -4 -3 6 5
-2 9 3 6 -4 -3 6 5
-3 10 3 6 -4 -3 6 5
-3 10 3 6 -4 -3 6 5
-4 11 3 5 -5 -4 5 5
-4 11 3 5 -5 -4 5 5
-4 11 3 5 -5 -4 5 5
-3 11 3 5 -5 -4 5 5
-3 11 3 5 -5 -4 5 5
-2 10 2 4 -5 -4 4 5
-2 10 2 4 -5 -4 4 5
-2 10 2 4 -5 -4 4 5
-3 10 3 4 -4 -3 4 5
-3 10 3 4 -4 -3 4 5
-4 10 4 3 -3 -2 4 6
-4 10 4 3 -3 -2 4 6
-4 10 4 3 -3 -2 4 6
-4 10 4 3 -3 -2 4 6
-4 10 4 3 -3 -2 4 6
-4 9 4 3 -3 -2 5 5
-4 9 4 3 -3 -2 5 5
-4 9 4 3 -3 -2 5 5
-4 9 4 3 -3 -2 5 5
-4 9 4 3 -3 -2 5 5
-5 9 3 2 -3 -3 5 6
-5 9 3 2 -3 -3 5 6
-5 9 3 2 -3 -3 5 6
-5 9 3 3 -3 -3 5 6
-5 9 3 3 -3 -3 5 6
-4 10 3 4 -3 -2 4 5
-4 10 3 4 -3 -2 4 5
-4 10 3 4 -2 -2 4 5
-4 10 3 4 0 -2 4 5
-4 10 3 4 1 -2 4 5
-5 10 4 3 2 -2 4 4
-5 10 4 3 2 0 4 4
-5 10 4 4 3 1 5 5
-5 10 4 4 3 2 5 5
-5 10 4 5 4 3 6 6
-6 10 5 6 5 5 7 7
-6 10 5 6 5 5 7 7
-6 10 5 6 5 5 7 7
-6 10 5 6 5 6 8 8
-6 10 5 6 5 6 8 8
-5 10 5 7 6 7 9 9
-5 10 5 7 6 7 9 9
-5 10 5 8 7 7 10 9
-5 10 5 8 7 7 10 9
-5 10 5 9 8 7 11 9
-5 10 5 10 9 6 12 10
-5 10 5 10 9 6 12 10
-5 10 5 10 9 6 12 10
-5 10 5 10 9 6 11 9
-5 10 5 10 9 6 11 9
-5 11 6 9 8 6 10 8
-5 11 6 9 8 6 10 8
-5 11 6 9 8 6 11 9
-5 11 6 9 9 7 11 9
-5 11 6 9 9 7 12 10
-5 12 5 10 10 8 13 11
-5 12 5 10 10 8 13 11
-5 12 5 10 10 8 13 11
-5 12 5 10 10 8 13 11
-5 12 5 10 10 8 13 11
-5 13 5 11 11 8 13 11
-5 13 5 11 11 8 13 11
-5 13 5 11 11 8 13 11
-4 13 5 11 11 8 13 11
-4 13 5 11 11 8 13 11
-3 14 5 11 11 8 12 11
-3 14 5 11 11 8 12 11
-3 14 4 11 10 8 11 11
-3 14 4 10 10 7 10 10
-3 14 3 10 9 7 9 10
-4 14 2 9 8 6 8 9
-4 14 2 9 8 6 8 9
-4 14 2 9 8 6 8 9
-4 13 2 9 8 6 8 10
-4 13 2 9 8 6 8 10
-5 12 3 8 8 6 8 11
-5 12 3 8 8 6 8 11
-5 12 3 8 8 6 8 11
-5 12 2 7 8 6 8 10
-5 12 2 7 8 6 8 10
-5 12 1 6 7 5 8 9
-5 12 1 6 7 5 8 9
-5 12 1 6 7 5 8 9
-5 11 1 6 6 5 7 9
-5 11 1 6 6 5 7 9
-5 10 0 5 5 4 6 9
-5 10 0 5 5 4 6 9
-5 10 0 4 5 4 6 9
-5 11 0 4 5 4 5 8
-5 11 0 3 5 4 5 8
-4 12 0 2 4 3 4 7
-4 12 0 2 4 3 4 7
-4 12 0 2 4 2 4 7
-5 11 0 2 3 2 3 6
-5 11 0 2 3 1 3 6
-6 10 -2 1 2 0 2 5
-6 10 -2 1 2 0 2 5
-6 10 -3 1 2 0 2 5
-6 10 -3 0 1 0 2 6
-6 10 -4 0 1 0 2 6
-5 10 -5 -2 0 1 2 7
-5 10 -5 -2 0 1 2 7
-5 10 -5 -2 0 1 2 7
-6 9 -5 -2 0 1 2 7
-6 9 -5 -2 0 1 2 7
-7 8 -6 -2 0 1 2 8
-7 8 -6 -2 0 1 2 8
-7 8 -6 -2 0 1 2 8
-7 8 -6 -3 0 0 1 8
-7 8 -6 -3 0 0 1 8
-7 9 -6 -4 -2 -2 0 7
-7 9 -6 -4 -2 -2 0 7
-7 9 -6 -4 -2 -2 0 7
-7 9 -6 -4 -2 -2 0 7
-7 9 -6 -4 -2 -2 0 7
-7 9 -7 -4 -2 -2 1 8
-7 9 -7 -4 -2 -2 1 8
-7 9 -7 -4 -2 -2 1 8
-7 9 -7 -4 -2 -2 1 8
-7 9 -7 -4 -2 -2 1 8
-6 8 -7 -4 -3 0 0 7
-6 8 -7 -4 -3 0 0 7
-6 8 -6 -4 -2 0 0 7
-6 9 -6 -3 -2 0 0 7
-6 9 -5 -3 0 0 0 7
-7 10 -4 -2 1 1 1 7
-7 11 -3 -2 1 1 1 7
-7 12 -2 0 2 1 1 8
-7 14 0 0 2 2 2 9
-7 15 1 1 3 2 2 10
-7 17 2 2 4 3 3 11
-7 17 3 3 5 4 3 11
-7 18 4 4 6 5 4 12
-6 19 5 5 7 7 5 12
-6 20 6 6 8 8 6 13
-5 21 7 7 9 10 7 14
-4 22 7 7 9 10 7 14
-3 23 7 7 9 11 8 15
-2 25 7 8 10 11 9 15
0 26 7 8 10 12 10 16
2 28 6 9 11 13 11 17
2 29 5 9 11 13 11 17
2 30 4 9 11 13 12 18
3 32 3 8 12 14 13 19
3 33 2 8 12 14 14 20
4 35 1 7 13 15 15 21
4 35 0 6 12 15 15 21
4 34 -2 5 11 14 14 21
4 33 -3 4 10 14 14 21
4 32 -4 3 9 13 13 21
4 31 -6 2 8 12 12 21
4 31 -7 2 8 12 12 21
4 31 -8 1 8 12 12 21
5 32 -9 0 8 12 12 21
5 32 -10 -2 8 12 12 21
6 33 -11 -3 8 13 13 22
6 32 -11 -3 8 13 13 22
6 31 -11 -3 8 13 13 22
6 30 -11 -3 8 13 13 22
6 29 -11 -3 8 13 13 22
7 27 -11 -3 8 14 13 22
7 24 -11 -4 7 13 12 21
6 21 -11 -5 6 11 10 19
5 17 -11 -6 4 9 8 17
4 14 -11 -7 3 7 6 15
3 10 -10 -8 1 5 4 13
1 8 -10 -9 0 4 3 12
-2 6 -10 -10 -3 2 1 10
-5 4 -10 -11 -4 1 -2 8
-7 2 -10 -12 -6 -2 -4 6
-10 0 -11 -13 -8 -4 -6 4
-10 0 -11 -14 -9 -4 -6 4
-10 -2 -11 -15 -10 -5 -6 4
-10 -2 -12 -16 -11 -5 -7 4
-10 -3 -12 -17 -12 -6 -7 4
-11 -4 -13 -18 -13 -7 -8 3
-11 -4 -13 -18 -13 -7 -8 3
-11 -4 -13 -18 -13 -7 -8 2
-11 -5 -13 -18 -13 -7 -9 1
-11 -5 -13 -18 -13 -7 -9 0
-11 -6 -13 -19 -13 -8 -10 -2
-11 -6 -13 -19 -13 -8 -10 -2
-11 -6 -13 -19 -12 -8 -10 -2
-11 -6 -13 -19 -11 -8 -10 -2
-11 -6 -13 -19 -10 -8 -10 -2
-10 -7 -12 -20 -9 -9 -10 0
-10 -7 -12 -20 -7 -9 -10 0
-10 -7 -12 -20 -5 -9 -10 0
-10 -7 -12 -19 -3 -9 -10 1
-10 -7 -12 -19 0 -9 -10 1
-9 -6 -11 -18 2 -8 -9 2
-9 -6 -11 -18 2 -8 -9 2
-9 -6 -11 -18 3 -8 -9 2
-9 -7 -11 -18 3 -8 -9 2
-9 -7 -11 -18 4 -8 -9 2
-9 -8 -11 -18 5 -7 -8 2
-9 -7 -9 -15 8 -4 -7 2
-9 -6 -6 -11 12 1 -5 3
-9 -6 -4 -8 15 4 -4 4
-9 -5 0 -4 19 8 -2 5
-9 -4 2 0 22 11 0 5
0 10 11 24 51 40 28 26
10 22 19 48 79 70 56 48
20 35 27 72 108 100 84 69
30 48 35 96 137 130 111 91
40 60 44 119 165 158 139 112
62 86 44 130 192 199 190 161
84 111 43 140 219 241 242 211
105 136 42 149 245 282 294 260
127 161 40 159 272 323 345 309
148 186 39 169 299 364 396 358
152 191 19 134 281 353 393 362
156 195 -2 98 263 340 389 366
160 199 -22 61 243 327 385 370
164 203 -41 25 224 314 381 375
169 207 -62 -12 205 302 377 378
141 167 -76 -59 131 212 280 298
110 123 -91 -106 56 121 183 215
80 80 -105 -153 -19 31 86 132
50 36 -118 -200 -95 -60 -12 49
20 -7 -133 -247 -170 -150 -109 -34
14 -9 -124 -230 -161 -150 -111 -39
9 -10 -115 -211 -150 -148 -111 -43
3 -11 -106 -191 -139 -145 -111 -47
-3 -12 -97 -172 -129 -143 -111 -50
-8 -13 -88 -152 -117 -141 -111 -53
-9 -15 -75 -131 -98 -120 -98 -49
-8 -17 -63 -109 -79 -101 -85 -43
-7 -19 -51 -87 -60 -80 -70 -36
-6 -21 -38 -65 -41 -61 -56 -30
-5 -23 -26 -44 -22 -40 -43 -25
-5 -24 -22 -37 -17 -36 -39 -23
-6 -24 -18 -32 -13 -32 -36 -21
-8 -24 -15 -27 -8 -28 -33 -19
-9 -24 -11 -22 -4 -24 -30 -17
-10 -24 -8 -17 1 -20 -27 -16
-11 -23 -7 -16 2 -19 -26 -15
-11 -24 -6 -15 2 -19 -26 -15
-12 -25 -6 -15 2 -19 -27 -15
-12 -26 -5 -14 2 -19 -27 -15
-12 -26 -5 -14 2 -19 -27 -15
-13 -27 -4 -13 3 -19 -28 -15
-13 -27 -3 -12 4 -18 -27 -15
-13 -27 -2 -12 5 -18 -26 -15
-13 -27 0 -11 6 -17 -25 -15
-13 -27 0 -11 7 -17 -24 -15
-13 -27 1 -10 8 -16 -23 -14
-13 -27 1 -10 8 -16 -23 -14
-13 -27 1 -10 8 -16 -23 -14
-13 -27 1 -10 8 -16 -23 -14
-13 -27 1 -10 8 -16 -23 -14
-12 -28 0 -10 7 -15 -23 -14
-12 -29 1 -9 8 -14 -23 -14
-12 -29 2 -8 9 -14 -22 -13
-12 -30 3 -7 10 -13 -22 -13
-12 -30 4 -6 10 -13 -22 -13
-13 -31 5 -5 11 -12 -21 -12
-13 -30 5 -5 10 -12 -21 -12
-13 -30 4 -6 10 -13 -22 -13
-13 -29 4 -6 9 -13 -22 -13
-13 -29 4 -6 9 -13 -22 -13
-13 -28 3 -7 8 -14 -23 -14
-13 -29 4 -6 8 -14 -23 -14
-13 -29 4 -5 9 -14 -23 -14
-13 -30 5 -4 9 -14 -23 -14
-13 -30 5 -4 9 -14 -23 -14
-12 -31 6 -3 10 -13 -22 -14
-12 -31 6 -3 10 -13 -22 -14
-11 -31 6 -4 10 -13 -22 -14
-11 -31 6 -4 10 -13 -22 -14
-11 -31 6 -4 10 -13 -22 -14
-10 -30 7 -5 9 -14 -23 -13
-10 -30 7 -4 10 -13 -22 -13
-10 -31 8 -4 11 -12 -22 -13
-10 -31 8 -3 12 -11 -21 -13
-10 -31 8 -3 13 -11 -21 -13
-11 -32 9 -2 14 -10 -20 -13
-11 -32 9 -2 14 -10 -20 -13
-10 -32 9 -2 13 -10 -20 -13
-10 -32 9 -2 13 -10 -20 -13
-10 -32 9 -2 13 -10 -20 -13
-9 -33 10 0 12 -11 -21 -14
-10 -33 11 1 13 -10 -21 -14
-11 -33 11 3 14 -10 -21 -14
-12 -33 12 4 15 -9 -21 -14
-12 -33 12 5 15 -9 -21 -14
-13 -34 13 6 16 -8 -20 -15
-12 -34 13 6 16 -8 -20 -15
-11 -34 13 6 16 -8 -20 -15
-10 -34 13 6 16 -8 -20 -15
-10 -34 13 6 16 -8 -20 -15
-9 -34 12 7 15 -8 -20 -15
-9 -35 13 8 16 -8 -20 -15
-9 -35 13 9 17 -8 -20 -16
-9 -36 14 10 18 -8 -20 -16
-9 -36 14 11 18 -8 -20 -16
-10 -37 15 12 19 -7 -20 -17
-10 -37 15 13 19 -7 -20 -17
-10 -37 15 13 19 -7 -20 -17
-10 -37 15 14 19 -7 -20 -17
-10 -37 15 14 19 -7 -20 -17
-9 -38 15 15 20 -6 -19 -16
-9 -39 16 16 20 -6 -19 -16
-9 -39 17 17 21 -6 -19 -16
-9 -40 18 18 21 -6 -19 -16
-9 -40 19 19 21 -6 -19 -16
-8 -41 20 20 22 -5 -18 -15
-8 -41 20 21 23 -5 -19 -16
-8 -41 20 22 23 -5 -20 -16
-8 -41 20 23 24 -5 -21 -17
-8 -41 20 24 24 -5 -21 -17
-8 -40 21 25 25 -6 -22 -18
-7 -41 21 26 26 -5 -21 -18
-7 -41 22 27 27 -5 -21 -18
-6 -43 22 28 28 -4 -20 -18
-6 -43 22 29 29 -4 -20 -18
-5 -44 23 30 30 -3 -19 -18
-5 -44 23 31 30 -3 -20 -19
-5 -45 23 32 30 -3 -21 -20
-5 -45 23 33 30 -3 -22 -21
-5 -45 23 34 30 -3 -23 -22
-4 -46 24 35 29 -4 -24 -23
-4 -46 25 36 29 -4 -24 -24
-4 -46 26 37 29 -4 -25 -25
-4 -46 27 38 29 -4 -25 -26
-4 -46 28 38 29 -4 -25 -27
-3 -47 29 39 30 -5 -27 -28
-3 -47 29 39 30 -6 -28 -29
-3 -47 29 40 30 -7 -29 -30
-3 -47 29 40 30 -8 -30 -31
-3 -47 29 40 30 -9 -31 -31
-3 -48 30 42 29 -11 -33 -33
-3 -49 30 42 28 -12 -35 -35
-4 -49 31 43 28 -13 -37 -37
-4 -50 31 43 27 -14 -39 -39
-4 -50 31 43 27 -15 -41 -40
-5 -51 32 44 25 -17 -44 -43
-5 -51 32 43 24 -19 -46 -45
-5 -51 32 43 22 -21 -48 -46
-5 -51 32 42 21 -23 -50 -48
-5 -51 32 42 20 -25 -52 -49
-5 -52 32 40 18 -27 -54 -50
-5 -52 32 40 17 -29 -56 -51
-5 -52 32 39 16 -31 -57 -52
-5 -52 32 39 15 -32 -59 -53
-5 -52 32 39 14 -34 -60 -54
-6 -53 31 37 12 -36 -62 -55
-6 -53 31 36 11 -37 -63 -56
-6 -54 30 35 9 -39 -65 -56
-6 -54 30 34 8 -40 -66 -57
-6 -54 30 33 7 -41 -67 -57
-7 -55 29 32 6 -43 -68 -58
-7 -55 29 31 5 -43 -68 -58
-8 -55 29 30 5 -43 -68 -58
-8 -55 29 29 4 -43 -68 -58
-8 -55 29 29 4 -43 -68 -58
-9 -54 28 27 3 -44 -67 -57
-9 -54 27 26 3 -43 -66 -56
-9 -54 26 24 2 -43 -65 -54
-9 -54 25 22 2 -41 -64 -52
-9 -54 24 21 2 -41 -63 -51
-9 -54 23 19 1 -39 -60 -48
-9 -54 22 18 2 -37 -57 -45
-9 -53 21 17 2 -35 -54 -41
-9 -53 20 16 3 -33 -51 -38
-9 -53 19 15 3 -31 -48 -35
-8 -52 18 14 4 -29 -45 -32
-8 -51 18 13 4 -26 -40 -29
-7 -50 17 12 4 -24 -37 -26
-7 -49 17 11 4 -22 -33 -23
-7 -48 17 10 4 -20 -30 -20
-6 -47 16 9 5 -18 -27 -17
-6 -46 15 9 6 -15 -23 -14
-6 -46 14 8 7 -13 -20 -11
-6 -45 13 8 8 -11 -16 -9
-6 -45 12 8 9 -9 -13 -6
-6 -44 11 7 10 -7 -11 -4
-6 -43 10 7 11 -6 -9 -2
-5 -43 10 6 11 -5 -7 1
-5 -41 9 6 12 -4 -6 2
-5 -41 9 6 12 -3 -4 4
-4 -40 8 5 13 -2 -2 5
-4 -40 8 5 13 0 0 6
-5 -41 8 4 14 1 1 7
-5 -41 8 4 14 2 2 8
-5 -41 8 4 14 2 3 9
-6 -43 7 3 15 3 4 10
-6 -43 7 3 15 3 4 10
-6 -41 6 2 14 3 5 11
-6 -41 6 2 14 3 5 11
-6 -41 6 2 14 3 5 11
-6 -40 5 1 13 4 6 12
-6 -40 5 1 13 4 7 12
-6 -41 5 1 13 5 7 13
-6 -41 5 1 13 5 8 13
-6 -41 5 1 13 5 8 13
-5 -43 5 2 14 6 9 14
-5 -43 5 2 14 6 9 14
-5 -43 5 2 14 6 9 14
-5 -43 5 2 14 6 9 14
-5 -43 5 2 14 6 9 14
-5 -43 5 2 14 6 9 15
-5 -43 5 2 14 6 9 15
-5 -44 5 2 14 7 9 15
-5 -44 5 2 14 7 9 15
-5 -44 5 2 14 7 9 15
-6 -45 6 3 14 8 10 15
-6 -45 6 3 14 8 10 15
-6 -45 6 3 13 8 10 15
-6 -45 6 3 13 8 10 15
-6 -45 6 3 13 8 10 15
-5 -46 6 2 12 7 9 16
-5 -46 6 3 13 7 9 16
-6 -46 6 3 13 8 10 16
-6 -46 6 4 14 8 10 16
-6 -46 6 4 14 8 10 16
-7 -47 7 5 15 9 11 16
-7 -47 7 5 15 9 11 16
-7 -47 7 5 15 9 11 16
-7 -47 7 5 15 9 11 16
-7 -47 7 5 15 9 11 16
-7 -48 7 5 15 9 10 15
-7 -48 7 6 16 10 11 16
-7 -48 8 7 17 11 11 16
-7 -48 8 8 18 12 12 17
-7 -48 8 8 18 12 12 17
-8 -49 9 9 19 13 13 18
-8 -49 9 9 19 13 13 18
-7 -49 9 9 19 13 13 18
-7 -49 9 9 19 13 13 18
-7 -49 9 9 19 13 13 18
-6 -50 9 9 19 12 13 18
-6 -50 9 10 20 13 13 18
-6 -50 9 11 20 14 13 18
-6 -50 9 12 21 15 13 18
-6 -50 9 12 21 15 13 18
-7 -51 10 13 22 16 13 18
-7 -51 10 13 22 16 14 18
-7 -50 10 13 22 16 15 19
-7 -50 10 13 22 16 16 19
-7 -50 10 13 22 16 16 19
-6 -49 10 13 23 17 17 20
-6 -49 10 14 24 18 18 21
-6 -49 11 15 25 19 19 22
-6 -49 11 16 26 20 20 23
-6 -49 11 17 26 21 21 24
-6 -50 12 18 27 22 22 25
-6 -50 12 18 27 22 22 25
-6 -49 12 18 27 22 22 25
-6 -49 12 18 27 22 22 25
-6 -49 12 18 27 22 22 25
-6 -48 12 18 26 22 21 24
-6 -47 12 18 26 22 21 24
-6 -47 12 19 27 23 21 24
-6 -46 12 19 27 23 21 24
-6 -46 12 19 27 23 21 24
-6 -45 12 20 28 24 22 24
-6 -44 12 20 28 23 22 24
-6 -43 12 19 28 22 22 24
-6 -41 12 19 28 21 22 24
-6 -41 12 19 28 21 22 24
-6 -40 11 18 27 20 21 23
-6 -39 11 18 27 20 21 23
-5 -38 11 18 27 20 21 23
-5 -37 11 18 27 20 21 23
-5 -36 11 18 27 20 21 23
-4 -35 10 18 26 21 21 23
-4 -34 9 17 25 20 20 22
-4 -34 9 16 24 19 20 22
-4 -33 8 15 23 18 19 21
-4 -33 8 15 22 18 19 21
-5 -32 7 14 21 17 18 20
-5 -31 7 14 21 17 18 20
-4 -31 7 14 21 17 17 19
-4 -30 7 14 21 17 17 19
-4 -30 7 14 21 17 17 19
-3 -29 7 14 21 17 16 18
-3 -29 7 13 20 17 16 18
-4 -29 7 12 19 16 16 17
-4 -29 7 11 18 16 16 17
-4 -29 7 11 17 16 16 17
-5 -28 6 10 16 15 15 16
-5 -27 6 10 16 15 15 16
-5 -26 6 10 16 14 14 16
-5 -25 6 10 16 14 14 16
-5 -24 6 10 16 14 14 16
-4 -23 5 9 15 13 13 16
-4 -23 4 8 14 12 12 15
-4 -23 4 7 13 11 12 15
-4 -23 3 6 12 10 11 14
-4 -23 3 6 12 9 11 14
-4 -22 2 5 11 8 10 13
-4 -21 2 5 11 8 10 13
-4 -21 2 4 10 8 9 12
-4 -20 2 4 10 8 9 12
-4 -20 2 4 10 8 9 12
-4 -19 1 3 9 7 8 11
-4 -19 1 3 9 6 8 11
-5 -19 1 2 8 6 8 11
-5 -19 1 2 8 5 8 11
-5 -19 1 2 8 5 8 11
-6 -19 2 1 7 4 8 11
-6 -19 2 1 7 4 8 11
-6 -19 2 1 6 4 7 11
-6 -19 2 1 6 4 7 11
-6 -19 2 1 6 4 7 11
-6 -18 1 2 5 3 6 11
-6 -17 0 1 5 3 6 10
-6 -16 0 0 5 3 6 10
-6 -15 -2 -2 5 3 6 9
-6 -15 -2 -2 5 3 6 9
-5 -14 -3 -3 4 2 6 8
-5 -14 -3 -3 4 2 6 8
-5 -14 -3 -3 3 2 5 8
-5 -14 -3 -3 3 2 5 8
-5 -14 -3 -3 3 2 5 8
-6 -15 -4 -3 2 1 4 8
-5 -14 -4 -3 2 1 4 8
-5 -13 -4 -4 2 1 4 8
-4 -12 -4 -4 2 1 4 8
-4 -11 -4 -4 2 1 4 8
-3 -10 -4 -5 1 2 5 9
-3 -10 -4 -5 1 2 5 9
-3 -10 -3 -5 1 2 5 9
-3 -10 -3 -5 1 2 5 9
-3 -10 -3 -5 1 2 5 9
-4 -10 -2 -4 0 2 5 9
-4 -9 -2 -3 0 2 5 9
-4 -8 0 -3 1 2 5 9
-4 -7 0 -2 1 2 5 9
-4 -6 0 -2 1 2 5 9
-4 -5 1 0 2 2 6 9
-4 -3 2 1 3 3 7 10
-4 -2 3 2 4 4 8 11
-4 0 4 2 4 4 8 11
-4 1 5 3 5 5 9 12
-3 3 6 4 6 6 10 13
-3 4 6 4 6 6 10 13
-2 5 7 4 6 7 10 13
-2 7 7 4 6 7 10 13
-2 8 7 4 6 7 10 13
0 9 8 4 7 8 11 14
2 10 8 6 8 10 13 15
3 11 8 7 9 11 14 16
4 12 8 8 11 12 15 16
5 13 8 9 12 13 16 17
6 15 8 10 13 14 17 18
6 17 7 9 12 14 17 18
7 18 5 8 11 14 17 19
7 20 4 8 11 14 17 19
7 22 2 7 10 14 17 19
8 23 1 6 9 13 16 20
8 23 0 5 9 13 16 20
8 24 -2 4 8 12 16 20
8 24 -2 4 8 12 16 20
8 24 -3 3 8 12 16 20
8 25 -4 2 7 11 17 19
9 25 -5 1 7 11 17 19
9 25 -6 0 6 11 17 19
10 25 -6 0 6 11 17 19
10 25 -7 -2 6 11 17 19
11 25 -8 -3 5 11 17 20
11 23 -8 -3 5 11 17 19
11 22 -8 -3 4 11 17 19
11 21 -8 -3 4 11 17 18
11 20 -8 -3 4 11 17 18
11 18 -9 -3 3 9 16 17
10 15 -9 -4 1 8 15 15
8 12 -9 -4 0 6 13 14
7 9 -9 -5 -3 5 12 12
5 6 -9 -5 -4 3 10 11
4 4 -10 -6 -5 2 9 10
2 2 -10 -7 -6 1 7 9
1 0 -9 -8 -7 0 6 8
-2 -3 -9 -8 -7 -2 4 8
-3 -5 -9 -9 -8 -3 3 7
-4 -6 -8 -10 -9 -4 2 6
-4 -6 -9 -12 -11 -6 1 4
-5 -7 -9 -13 -12 -7 0 3
-5 -7 -10 -14 -13 -9 -2 1
-5 -7 -10 -15 -14 -10 -3 0
-6 -8 -11 -16 -15 -11 -4 -2
-6 -8 -11 -16 -15 -11 -4 -2
-6 -8 -11 -16 -15 -11 -4 -3
-6 -8 -11 -16 -15 -11 -4 -3
-6 -8 -11 -16 -15 -11 -4 -3
-7 -8 -11 -16 -16 -11 -5 -4
-7 -8 -11 -16 -16 -11 -5 -4
-7 -8 -12 -17 -17 -11 -5 -4
-7 -8 -12 -17 -17 -11 -5 -4
-7 -8 -12 -17 -17 -11 -5 -4
-6 -8 -13 -18 -18 -12 -6 -4
-6 -8 -13 -18 -18 -12 -6 -3
-6 -8 -13 -18 -18 -11 -5 -3
-6 -8 -13 -18 -18 -11 -5 -2
-6 -8 -13 -18 -18 -11 -5 -2
-6 -7 -13 -17 -18 -10 -4 0
-6 -7 -13 -17 -18 -10 -4 -2
-5 -7 -13 -17 -18 -11 -5 -2
-5 -7 -13 -17 -18 -11 -5 -3
-5 -7 -13 -17 -18 -11 -5 -3
-4 -6 -12 -15 -15 -10 -5 -4
-4 -5 -9 -10 -11 -6 -2 -4
-5 -3 -6 -5 -6 -2 1 -4
-5 -2 -3 1 -2 2 4 -4
-5 1 1 6 4 6 7 -4
1 10 7 23 24 27 26 12
11 23 16 48 53 58 53 35
21 36 25 71 81 88 80 58
30 50 34 95 110 117 108 80
40 63 44 119 138 148 136 103
59 86 46 133 165 186 179 143
81 111 44 142 191 227 231 192
104 138 42 150 218 268 282 240
126 163 38 158 243 310 334 289
148 190 36 168 270 351 386 339
158 201 20 144 265 355 398 355
162 204 -4 104 242 340 391 356
168 209 -27 63 220 323 383 357
172 212 -51 22 198 308 376 357
176 215 -75 -18 176 293 367 358
158 188 -92 -62 118 227 302 306
129 145 -106 -108 43 136 206 226
99 102 -120 -154 -33 45 111 145
69 58 -134 -199 -109 -46 16 64
39 15 -148 -245 -185 -137 -80 -17
26 0 -146 -247 -202 -162 -110 -46
21 0 -134 -224 -187 -151 -105 -47
16 -2 -122 -200 -172 -140 -99 -49
11 -2 -110 -178 -156 -130 -94 -50
6 -2 -99 -154 -142 -118 -88 -52
4 -3 -86 -133 -124 -105 -79 -50
4 -5 -73 -111 -106 -91 -70 -46
3 -6 -61 -91 -89 -75 -60 -40
3 -8 -48 -69 -70 -61 -50 -35
3 -9 -35 -49 -53 -47 -40 -30
1 -10 -28 -38 -44 -38 -35 -27
-2 -10 -25 -34 -39 -35 -33 -26
-4 -10 -22 -30 -35 -32 -30 -24
-6 -10 -19 -26 -32 -29 -28 -23
-8 -10 -16 -22 -28 -26 -25 -21
-9 -11 -14 -20 -26 -24 -24 -20
-9 -11 -14 -20 -26 -24 -24 -20
-9 -11 -13 -19 -25 -23 -24 -20
-9 -11 -13 -18 -24 -23 -24 -20
-9 -11 -13 -18 -24 -23 -24 -20
-9 -12 -12 -17 -23 -22 -24 -21
-9 -12 -12 -16 -23 -22 -24 -21
-9 -12 -11 -15 -23 -21 -23 -21
-9 -12 -10 -15 -23 -20 -23 -21
-9 -12 -10 -14 -23 -20 -23 -21
-9 -12 -9 -13 -22 -19 -22 -20
-9 -12 -9 -13 -22 -19 -22 -20
-9 -12 -10 -13 -22 -19 -22 -20
-9 -12 -10 -13 -22 -19 -22 -20
-9 -12 -10 -13 -22 -19 -22 -20
-9 -11 -11 -12 -22 -19 -22 -20
-9 -11 -11 -12 -22 -19 -22 -20
-9 -11 -10 -12 -21 -19 -22 -20
-9 -11 -9 -12 -21 -19 -22 -20
-9 -11 -9 -12 -21 -19 -22 -20
-10 -12 -8 -12 -20 -19 -22 -21
-10 -12 -8 -12 -20 -19 -22 -21
-10 -12 -8 -11 -20 -19 -22 -21
-10 -12 -8 -10 -20 -19 -22 -21
-10 -12 -8 -10 -20 -19 -22 -21
-9 -11 -8 -9 -19 -19 -21 -21
-9 -11 -8 -9 -19 -19 -21 -21
-9 -11 -7 -8 -19 -19 -21 -21
-9 -11 -7 -7 -19 -19 -21 -21
-9 -11 -7 -7 -19 -19 -21 -21
-9 -12 -6 -6 -19 -18 -20 -20
-9 -12 -6 -6 -19 -18 -20 -20
-9 -12 -6 -6 -19 -19 -21 -21
-9 -12 -6 -6 -19 -19 -21 -21
-9 -12 -6 -6 -19 -19 -21 -21
-9 -12 -6 -6 -18 -20 -22 -22
-9 -12 -6 -6 -18 -20 -22 -22
-9 -12 -5 -5 -17 -19 -22 -22
-9 -12 -4 -4 -17 -19 -22 -22
-9 -12 -4 -4 -17 -19 -22 -22
-9 -12 -3 -3 -16 -18 -22 -22
-9 -12 -3 -3 -16 -18 -22 -22
-9 -12 -3 -3 -16 -17 -22 -22
-9 -12 -3 -3 -16 -17 -22 -22
-9 -12 -3 -3 -16 -17 -22 -22
-8 -12 -2 -2 -15 -16 -21 -21
-8 -12 -2 -2 -15 -16 -21 -21
-8 -12 0 0 -14 -16 -21 -21
-8 -12 0 1 -14 -16 -21 -21
-8 -12 0 1 -14 -16 -21 -21
-9 -12 1 2 -13 -15 -22 -22
-9 -12 1 3 -13 -15 -22 -22
-9 -11 2 4 -12 -15 -22 -22
-9 -11 2 4 -12 -15 -22 -22
-9 -11 2 5 -12 -15 -22 -22
-8 -10 3 6 -11 -16 -23 -23
-8 -10 3 7 -11 -16 -23 -23
-8 -10 4 8 -10 -16 -23 -23
-8 -10 4 9 -10 -16 -23 -23
-8 -10 4 10 -10 -16 -23 -23
-8 -11 5 11 -9 -15 -22 -24
-8 -11 5 11 -9 -15 -22 -24
-8 -11 5 11 -9 -15 -22 -24
-8 -11 5 11 -9 -15 -22 -24
-8 -11 5 11 -9 -15 -22 -24
-8 -12 5 12 -8 -14 -22 -25
-8 -12 6 13 -8 -14 -22 -25
-7 -12 7 14 -7 -14 -22 -25
-7 -12 7 15 -6 -14 -22 -25
-7 -12 8 16 -6 -14 -22 -25
-6 -12 9 17 -5 -14 -23 -26
-6 -12 9 18 -5 -14 -23 -26
-5 -12 9 19 -5 -14 -23 -26
-5 -12 9 20 -5 -14 -23 -26
-5 -12 9 21 -5 -14 -23 -26
-4 -11 10 22 -4 -13 -24 -27
-4 -11 11 23 -3 -13 -24 -27
-4 -11 12 24 -2 -13 -24 -27
-4 -11 12 25 -2 -13 -24 -27
-4 -11 13 26 0 -13 -24 -27
-4 -12 14 27 1 -12 -24 -28
-4 -12 14 27 1 -12 -25 -29
-4 -12 15 28 2 -12 -26 -30
-4 -12 16 29 2 -12 -26 -31
-4 -12 16 29 2 -12 -27 -32
-4 -11 17 30 3 -12 -28 -33
-4 -11 17 30 3 -12 -28 -33
-3 -11 18 31 3 -12 -29 -34
-3 -11 18 32 3 -12 -30 -35
-3 -11 18 32 3 -12 -30 -35
-2 -11 19 33 3 -13 -31 -36
-2 -11 19 34 3 -14 -33 -38
-2 -11 20 35 3 -16 -35 -40
-2 -11 21 35 3 -17 -36 -41
-2 -11 21 36 3 -18 -38 -44
0 -11 22 37 3 -19 -39 -45
0 -12 22 37 2 -20 -41 -46
-2 -13 22 36 1 -21 -44 -47
-3 -13 22 36 0 -22 -45 -48
-3 -14 22 36 -2 -23 -47 -49
-4 -15 23 35 -3 -25 -49 -51
-4 -15 23 35 -4 -27 -50 -52
-4 -15 23 35 -6 -29 -52 -54
-4 -15 23 35 -7 -31 -54 -56
-4 -15 23 35 -8 -34 -56 -58
-4 -15 23 34 -9 -35 -57 -59
-4 -15 23 33 -10 -37 -59 -60
-4 -16 23 32 -11 -39 -60 -62
-4 -16 23 32 -11 -40 -61 -63
-4 -16 23 31 -12 -43 -63 -64
-5 -17 23 30 -13 -44 -64 -65
-5 -17 23 29 -14 -45 -65 -65
-6 -17 23 27 -16 -46 -66 -66
-7 -17 23 26 -17 -47 -67 -66
-7 -17 23 25 -18 -48 -68 -66
-8 -18 22 24 -19 -49 -69 -67
-8 -18 21 23 -19 -49 -69 -67
-8 -17 20 21 -20 -49 -69 -67
-8 -16 20 20 -20 -49 -69 -67
-8 -16 19 19 -20 -49 -69 -67
-7 -15 18 18 -21 -50 -70 -66
-7 -15 17 17 -21 -50 -69 -65
-7 -14 16 16 -22 -49 -67 -64
-7 -13 16 15 -22 -49 -66 -63
-7 -13 15 14 -22 -49 -65 -62
-8 -12 14 13 -23 -47 -63 -60
-8 -12 13 11 -23 -45 -60 -57
-8 -12 11 10 -23 -43 -57 -54
-8 -12 10 9 -23 -40 -55 -52
-8 -12 9 7 -23 -38 -52 -49
-7 -12 8 6 -22 -36 -49 -46
-7 -11 7 5 -21 -34 -46 -43
-7 -9 6 4 -20 -32 -41 -38
-7 -8 5 3 -19 -30 -38 -35
-7 -7 4 2 -18 -28 -35 -32
-6 -6 3 1 -17 -26 -32 -29
-6 -6 3 1 -16 -24 -29 -27
-5 -5 3 0 -15 -22 -26 -24
-4 -4 3 0 -15 -20 -24 -21
-4 -4 3 0 -14 -18 -21 -19
-3 -3 2 -2 -13 -17 -19 -17
-3 -2 2 -2 -13 -16 -17 -15
-3 0 1 -3 -12 -14 -15 -13
-3 0 0 -4 -12 -13 -13 -11
-3 1 0 -4 -12 -12 -11 -9
-3 2 -2 -5 -11 -11 -10 -8
-3 2 -2 -5 -11 -10 -8 -7
-3 2 -2 -5 -10 -8 -7 -6
-3 2 -2 -5 -9 -7 -6 -5
-3 2 -2 -5 -9 -6 -4 -4
-3 2 -3 -5 -8 -5 -3 -3
-3 2 -3 -5 -8 -5 -3 -3
-3 3 -3 -6 -8 -5 -2 -3
-3 3 -3 -7 -8 -5 0 -3
-3 3 -3 -7 -8 -5 0 -3
-2 4 -3 -8 -8 -4 1 -2
-2 4 -3 -8 -8 -4 1 -2
-2 4 -3 -8 -8 -4 2 0
-2 4 -3 -8 -8 -4 2 1
-2 4 -3 -8 -8 -4 2 1
-3 3 -4 -8 -8 -3 3 2
-3 3 -4 -8 -8 -3 3 2
-3 3 -4 -8 -8 -3 3 2
-3 3 -4 -8 -8 -3 3 2
-3 3 -4 -8 -8 -3 3 2
-4 2 -5 -8 -9 -3 2 3
-4 2 -5 -8 -9 -3 2 3
-3 2 -5 -8 -9 -3 2 3
-3 2 -5 -8 -9 -3 2 3
-3 2 -5 -8 -9 -3 2 3
-2 2 -5 -8 -9 -3 2 2
-2 2 -5 -8 -9 -3 2 2
-2 2 -5 -8 -9 -3 3 2
-2 2 -5 -8 -9 -3 3 2
-2 2 -5 -8 -9 -3 3 2
-3 2 -4 -8 -9 -3 4 3
-3 2 -4 -8 -9 -3 4 3
-4 2 -4 -8 -8 -3 4 3
-4 2 -4 -8 -8 -3 4 3
-4 2 -4 -8 -8 -3 4 3
-5 1 -3 -8 -7 -2 3 3
-5 1 -3 -8 -7 -2 3 3
-5 1 -3 -8 -7 -2 3 3
-4 2 -3 -8 -7 -2 3 3
-4 2 -3 -8 -7 -2 3 3
-3 3 -4 -8 -7 0 4 2
-3 3 -4 -8 -7 0 4 2
-3 3 -4 -7 -7 0 4 2
-3 3 -4 -6 -6 0 4 2
-3 3 -4 -6 -6 0 4 2
-4 4 -4 -5 -5 1 4 2
-4 4 -4 -5 -5 1 4 2
-4 4 -4 -5 -5 1 4 2
-4 4 -3 -5 -4 1 4 3
-4 4 -3 -5 -4 1 4 3
-4 3 -2 -4 -3 2 5 4
-4 3 -2 -4 -3 2 5 4
-4 3 -2 -4 -3 2 5 4
-4 3 0 -3 -2 3 5 4
-4 3 0 -3 -2 3 5 4
-4 2 1 -2 0 4 6 5
-4 2 1 -2 0 5 7 5
-4 2 1 0 0 5 7 5
-4 2 1 1 1 6 8 6
-4 2 1 1 1 7 9 6
-3 3 1 2 2 8 10 7
-3 3 1 2 2 8 10 7
-3 3 1 2 3 8 10 7
-3 3 1 2 4 9 10 7
-3 3 1 2 4 9 10 7
-4 4 1 3 5 10 11 8
-4 4 1 3 5 10 11 8
-4 4 1 3 5 10 11 8
-4 4 2 3 5 10 11 8
-4 4 2 3 5 10 11 8
-3 4 3 4 6 11 12 8
-3 4 3 4 6 11 12 8
-3 4 3 4 6 11 12 8
-3 4 3 4 7 12 13 8
-3 4 3 4 7 12 13 8
-3 4 3 5 8 13 14 8
-3 4 3 5 8 13 14 8
-3 4 3 5 8 13 14 8
-3 4 3 6 8 13 14 9
-3 4 3 6 8 13 14 9
-4 5 4 7 7 13 15 10
-4 5 4 7 7 13 15 10
-4 5 4 7 7 13 15 10
-4 5 4 7 7 13 14 10
-4 5 4 7 7 13 14 10
-4 5 4 7 7 13 13 9
-4 5 4 7 7 13 13 9
-4 5 4 7 7 13 13 9
-3 5 4 7 7 12 13 9
-3 5 4 7 7 12 13 9
-2 5 3 7 8 11 12 9
-2 5 3 7 8 11 12 9
-2 5 3 7 8 11 12 9
-2 5 3 6 7 11 12 9
-2 5 3 6 7 11 12 9
-3 5 3 5 6 11 11 8
-3 5 3 5 6 11 11 8
-3 5 3 5 5 11 11 8
-3 5 3 4 4 11 11 8
-3 5 3 4 4 11 11 8
-3 4 3 3 3 10 10 7
-3 4 3 3 3 10 10 7
-3 4 3 3 3 10 10 7
-3 4 3 3 3 9 10 7
-3 4 3 3 3 9 10 7
-3 5 3 2 3 8 9 7
-3 5 3 2 3 8 9 7
-3 5 3 2 3 7 9 7
-3 5 3 2 2 6 9 6
-3 5 3 2 2 6 9 6
-4 4 3 1 1 5 9 5
-4 4 3 1 1 5 9 5
-4 4 3 1 1 5 9 5
-4 3 2 1 0 5 9 5
-4 3 2 1 0 5 9 5
-4 2 1 0 -2 4 8 5
-4 2 1 0 -2 4 8 5
-4 2 1 -2 -2 4 8 5
-4 3 0 -3 -2 3 8 5
-4 3 0 -3 -2 3 8 5
-4 4 -2 -4 -3 2 7 4
-4 4 -2 -4 -3 2 7 4
-4 4 -2 -4 -3 2 7 4
-4 3 0 -3 -3 2 7 4
-4 3 0 -3 -3 2 7 4
-5 2 1 -2 -4 3 7 4
-5 2 1 -2 -4 3 7 4
-5 2 1 -3 -4 3 7 4
-5 2 1 -4 -4 3 7 4
-5 2 1 -4 -4 3 7 4
-5 1 1 -5 -4 2 7 4
-5 1 1 -5 -4 2 7 4
-5 1 1 -5 -5 1 7 4
-5 1 1 -5 -6 0 7 4
-5 1 1 -5 -6 0 7 4
-6 1 0 -5 -7 -2 6 3
-6 1 0 -5 -7 -2 6 3
-6 1 0 -5 -7 -2 6 3
-6 1 0 -5 -7 -2 6 3
-6 1 0 -5 -7 -2 6 3
-6 1 0 -6 -7 -2 5 3
-6 1 0 -6 -7 -2 5 3
-6 1 0 -6 -7 -2 5 3
-6 1 0 -6 -7 -2 5 3
-6 1 0 -6 -7 -2 5 3
-6 1 1 -6 -7 0 5 2
-6 1 1 -6 -7 0 5 2
-6 1 1 -6 -7 0 5 2
-6 1 1 -6 -7 0 5 2
-6 1 1 -6 -7 0 5 2
-6 1 0 -7 -7 -2 4 3
-6 2 1 -7 -7 -2 4 3
-6 2 1 -6 -6 0 4 3
-6 3 2 -5 -5 1 5 3
-6 4 3 -5 -5 1 5 3
-5 5 4 -4 -4 2 6 3
-5 6 5 -4 -4 2 6 3
-5 7 5 -3 -4 2 6 3
-5 8 6 -2 -4 2 7 4
-5 9 7 -2 -4 2 7 4
-4 10 8 0 -3 2 8 5
-4 11 9 1 -2 2 8 5
-4 12 9 2 0 3 8 6
-4 13 10 3 1 4 9 7
-4 14 11 4 2 4 9 7
-3 15 12 5 3 5 10 8
-3 17 12 6 4 6 11 9
-2 18 12 7 5 7 12 10
0 20 13 8 6 9 14 11
0 22 13 9 7 10 15 12
1 23 14 10 8 11 16 13
2 23 12 9 8 11 16 13
4 23 10 8 8 11 16 13
5 24 8 6 8 11 16 13
7 24 7 5 8 11 16 13
8 25 5 4 7 11 17 14
8 25 4 3 6 11 17 14
8 25 3 2 6 10 16 14
8 26 1 1 5 9 15 14
8 26 0 0 4 9 15 14
8 27 -2 -2 3 8 14 14
8 27 -2 -2 3 8 14 14
8 27 -2 -2 3 8 14 14
8 27 -2 -2 3 8 14 14
8 27 -2 -2 3 8 14 14
8 26 -3 -3 3 7 15 15
8 24 -3 -3 3 7 15 15
9 22 -3 -3 3 7 15 15
10 20 -4 -3 3 7 15 15
10 18 -4 -3 3 7 15 15
11 16 -5 -3 2 7 14 14
9 14 -5 -4 1 6 13 12
8 12 -5 -4 0 4 11 11
6 10 -5 -5 -3 3 10 9
5 8 -5 -6 -4 1 8 8
3 6 -4 -7 -5 0 7 6
1 3 -4 -8 -6 -2 6 5
-2 1 -4 -8 -7 -4 4 3
-4 -2 -4 -9 -9 -5 3 2
-6 -4 -4 -10 -10 -7 1 0
-8 -6 -3 -11 -11 -8 0 -2
-8 -6 -3 -12 -12 -9 -2 -3
-8 -6 -4 -13 -13 -9 -3 -3
-9 -7 -5 -14 -14 -10 -5 -4
-9 -7 -5 -15 -15 -11 -6 -5
-10 -8 -6 -16 -16 -12 -7 -6
-10 -8 -6 -16 -16 -13 -7 -6
-10 -8 -7 -16 -17 -13 -7 -7
-10 -8 -8 -17 -18 -14 -7 -8
-10 -8 -8 -17 -18 -15 -7 -8
-10 -8 -9 -18 -19 -16 -8 -9
-10 -8 -9 -18 -19 -16 -8 -9
-10 -8 -9 -18 -19 -16 -8 -9
-10 -8 -8 -18 -18 -16 -8 -9
-10 -8 -8 -18 -18 -16 -8 -9
-9 -9 -7 -18 -17 -15 -8 -8
-9 -9 -7 -18 -17 -15 -8 -8
-9 -9 -7 -18 -17 -15 -8 -8
-9 -9 -7 -18 -17 -15 -8 -8
-9 -9 -7 -18 -17 -15 -8 -8
-10 -9 -8 -17 -16 -14 -8 -8
-10 -9 -8 -17 -16 -14 -8 -8
-10 -9 -8 -17 -16 -14 -8 -8
-10 -9 -8 -17 -16 -14 -8 -8
-10 -9 -8 -17 -16 -14 -8 -8
-9 -9 -7 -17 -16 -13 -9 -8
-9 -7 -4 -13 -12 -10 -7 -7
-9 -6 0 -8 -8 -7 -4 -5
-9 -4 3 -4 -4 -3 -2 -4
-9 -3 6 2 1 1 1 -2
-7 4 11 12 13 13 11 6
4 16 19 35 39 40 35 24
13 28 28 59 66 67 60 44
23 40 37 82 93 95 85 62
33 53 47 106 119 122 110 80
48 69 53 126 147 154 143 109
72 94 51 136 174 194 191 153
96 119 50 147 200 235 239 198
120 145 48 157 228 275 287 243
144 170 47 169 255 315 336 288
161 188 37 163 267 339 367 320
168 194 14 125 246 326 363 324
174 200 -9 86 226 314 359 327
179 206 -32 47 205 301 355 331
185 213 -55 9 186 288 351 336
179 202 -75 -33 147 250 317 313
148 158 -91 -82 70 159 225 236
116 114 -106 -131 -6 69 132 158
86 70 -121 -180 -81 -21 39 80
54 25 -137 -229 -158 -111 -54 3
31 -5 -145 -255 -205 -169 -115 -50
25 -5 -133 -232 -190 -158 -109 -50
19 -5 -120 -208 -175 -147 -103 -50
14 -6 -108 -186 -159 -137 -97 -50
8 -6 -96 -163 -144 -127 -91 -50
4 -7 -82 -141 -129 -114 -82 -48
3 -8 -70 -120 -110 -99 -73 -45
1 -9 -58 -100 -93 -85 -64 -40
0 -10 -45 -78 -75 -70 -54 -37
-3 -12 -32 -58 -57 -55 -45 -33
-4 -13 -22 -43 -44 -44 -37 -30
-6 -13 -19 -37 -39 -40 -34 -29
-8 -13 -16 -32 -36 -37 -32 -27
-10 -13 -12 -28 -32 -33 -30 -26
-12 -13 -9 -23 -28 -30 -27 -24
-14 -14 -6 -19 -25 -27 -25 -23
-14 -15 -6 -19 -25 -27 -25 -23
-14 -15 -6 -19 -25 -27 -25 -23
-13 -16 -6 -19 -25 -27 -25 -23
-13 -17 -6 -19 -25 -27 -25 -23
-12 -18 -5 -18 -24 -26 -26 -24
-12 -18 -4 -17 -23 -25 -26 -24
-12 -18 -4 -17 -23 -25 -25 -24
-12 -17 -3 -16 -22 -24 -25 -24
-12 -17 -2 -15 -21 -23 -24 -24
-12 -16 0 -14 -20 -22 -23 -24
-12 -16 0 -14 -20 -22 -23 -24
-12 -16 0 -14 -20 -22 -23 -24
-12 -16 0 -14 -20 -22 -23 -23
-12 -16 0 -14 -20 -22 -23 -23
-13 -17 -2 -13 -19 -22 -24 -22
-13 -17 0 -13 -19 -22 -24 -22
-13 -17 1 -12 -19 -22 -24 -22
-13 -17 2 -12 -19 -22 -24 -23
-13 -17 3 -11 -19 -22 -24 -23
-12 -17 4 -10 -19 -22 -23 -24
-12 -17 4 -10 -19 -22 -23 -24
-12 -17 4 -10 -19 -22 -23 -24
-12 -17 4 -10 -19 -22 -23 -24
-12 -17 4 -10 -19 -22 -23 -24
-11 -17 4 -9 -18 -21 -23 -23
-12 -17 4 -9 -18 -21 -23 -23
-12 -17 4 -8 -18 -21 -23 -23
-13 -18 5 -8 -17 -21 -22 -23
-14 -18 5 -7 -17 -21 -22 -23
-15 -19 6 -6 -16 -20 -21 -22
-14 -19 6 -6 -16 -20 -21 -22
-14 -19 6 -6 -16 -20 -21 -22
-13 -18 6 -6 -16 -20 -22 -23
-12 -18 6 -6 -16 -20 -22 -23
-11 -17 7 -5 -16 -21 -23 -24
-11 -17 7 -5 -16 -21 -23 -24
-11 -17 7 -5 -16 -21 -23 -24
-11 -17 7 -5 -15 -20 -23 -24
-11 -17 7 -5 -15 -20 -23 -24
-12 -17 8 -4 -14 -19 -22 -24
-12 -17 8 -4 -14 -19 -22 -24
-12 -17 8 -4 -14 -19 -22 -24
-12 -17 9 -3 -13 -19 -22 -24
-12 -17 9 -3 -13 -19 -22 -24
-11 -17 10 -2 -12 -19 -22 -24
-11 -17 10 0 -12 -19 -22 -24
-11 -17 10 1 -12 -19 -22 -24
-11 -17 10 2 -12 -19 -22 -25
-11 -17 10 3 -12 -19 -22 -25
-11 -16 11 4 -11 -18 -23 -26
-11 -16 11 4 -11 -18 -23 -26
-11 -16 11 4 -11 -18 -23 -26
-11 -16 12 5 -11 -18 -23 -26
-11 -16 12 5 -11 -18 -23 -26
-11 -17 13 6 -10 -17 -23 -25
-11 -17 13 7 -10 -17 -23 -25
-11 -17 13 8 -10 -17 -23 -26
-11 -17 13 9 -10 -17 -23 -26
-11 -17 13 10 -10 -17 -23 -27
-12 -16 14 11 -9 -16 -23 -28
-12 -16 14 11 -9 -16 -23 -28
-11 -16 14 11 -9 -16 -23 -28
-11 -16 15 11 -8 -16 -23 -28
-10 -16 15 11 -8 -16 -23 -28
-9 -15 16 11 -7 -16 -24 -28
-9 -15 17 13 -6 -16 -24 -28
-9 -15 17 14 -6 -16 -24 -28
-9 -15 18 16 -5 -15 -24 -29
-9 -15 19 17 -4 -15 -24 -29
-9 -15 20 19 -3 -14 -24 -30
-9 -15 20 19 -3 -14 -24 -30
-9 -15 20 20 -3 -14 -24 -30
-9 -15 20 20 -3 -14 -24 -30
-9 -15 20 21 -3 -14 -24 -30
-8 -16 20 22 -2 -14 -25 -30
-8 -16 21 23 -2 -14 -25 -30
-8 -16 22 24 0 -14 -25 -30
-8 -16 23 25 0 -14 -25 -31
-8 -16 24 27 1 -14 -25 -31
-7 -15 25 28 2 -13 -26 -32
-7 -15 25 29 2 -13 -26 -32
-7 -15 26 29 2 -13 -26 -32
-6 -15 26 30 2 -13 -27 -33
-6 -15 27 31 2 -13 -27 -33
-5 -16 28 32 3 -14 -28 -34
-5 -16 28 32 3 -14 -28 -35
-5 -16 29 33 4 -14 -29 -36
-5 -16 29 33 4 -14 -30 -37
-5 -16 30 34 5 -14 -31 -38
-6 -17 31 35 6 -15 -32 -39
-6 -17 31 35 6 -16 -33 -40
-6 -17 31 35 6 -17 -35 -41
-6 -17 31 36 5 -18 -36 -43
-6 -17 31 36 5 -19 -37 -45
-5 -17 32 37 4 -20 -39 -46
-5 -17 32 37 4 -21 -40 -47
-5 -17 32 37 3 -22 -43 -49
-6 -18 33 37 2 -23 -45 -50
-6 -18 33 37 1 -25 -46 -51
-7 -19 34 37 0 -26 -48 -53
-7 -19 34 37 -2 -27 -50 -54
-7 -19 34 37 -3 -29 -52 -55
-7 -19 34 37 -4 -31 -53 -56
-7 -19 34 37 -5 -32 -55 -58
-8 -20 35 36 -6 -34 -57 -59
-8 -20 35 36 -7 -35 -59 -60
-8 -20 35 35 -8 -37 -61 -62
-9 -20 35 34 -9 -39 -62 -64
-9 -20 35 33 -10 -40 -64 -65
-10 -21 34 32 -11 -43 -66 -67
-10 -21 34 31 -12 -44 -67 -67
-10 -21 34 30 -13 -45 -68 -67
-10 -21 34 29 -14 -46 -69 -67
-10 -21 34 27 -15 -48 -70 -67
-10 -20 33 26 -16 -49 -71 -68
-10 -20 33 25 -16 -49 -71 -68
-10 -20 33 24 -17 -49 -71 -68
-10 -20 32 23 -17 -49 -71 -68
-10 -20 32 22 -18 -49 -71 -68
-11 -20 31 21 -19 -50 -72 -69
-11 -20 30 20 -19 -50 -71 -68
-11 -20 29 18 -19 -50 -70 -67
-11 -20 28 17 -19 -49 -69 -66
-11 -20 26 16 -19 -49 -67 -64
-10 -21 25 14 -20 -48 -66 -63
-10 -21 25 13 -20 -47 -64 -61
-10 -20 24 12 -20 -45 -62 -59
-10 -20 23 11 -20 -43 -59 -56
-10 -19 22 9 -20 -41 -57 -54
-9 -18 21 8 -19 -39 -55 -52
-9 -17 20 8 -19 -37 -52 -49
-9 -16 19 7 -18 -35 -49 -46
-9 -15 18 6 -17 -33 -46 -43
-9 -13 17 5 -16 -31 -43 -39
-8 -12 16 4 -15 -29 -39 -36
-8 -12 16 4 -15 -27 -36 -34
-8 -12 16 3 -14 -25 -33 -31
-8 -11 15 3 -14 -23 -31 -29
-8 -11 15 2 -13 -21 -28 -26
-8 -10 14 1 -12 -19 -25 -24
-8 -10 14 1 -12 -18 -23 -22
-8 -9 14 1 -11 -16 -21 -20
-8 -9 13 0 -10 -14 -18 -17
-8 -8 13 0 -9 -13 -16 -15
-7 -7 12 -2 -8 -11 -14 -13
-7 -7 12 -2 -8 -10 -13 -12
-7 -7 12 -2 -7 -9 -12 -10
-6 -7 12 -2 -7 -8 -11 -9
-6 -7 12 -2 -6 -7 -10 -8
-5 -8 12 0 -5 -6 -9 -6
-5 -8 12 0 -5 -6 -9 -6
-5 -7 11 -2 -5 -6 -9 -6
-5 -6 10 -3 -5 -6 -8 -6
-5 -5 9 -4 -5 -6 -8 -6
-5 -4 8 -5 -6 -6 -7 -7
-5 -4 8 -5 -6 -6 -7 -7
-5 -4 8 -5 -6 -6 -7 -7
-5 -4 8 -5 -6 -6 -6 -7
-5 -4 8 -5 -6 -6 -6 -7
-5 -4 8 -5 -6 -6 -5 -6
-5 -4 8 -5 -6 -6 -5 -6
-5 -4 8 -5 -6 -6 -5 -6
-5 -4 8 -6 -6 -6 -5 -5
-5 -4 8 -6 -6 -6 -5 -5
-5 -3 8 -7 -6 -5 -4 -4
-5 -3 8 -7 -6 -5 -4 -4
-5 -3 8 -7 -6 -5 -4 -4
-5 -3 8 -7 -6 -5 -4 -4
-5 -3 8 -7 -6 -5 -4 -4
-6 -4 9 -7 -6 -4 -4 -4
-6 -4 9 -7 -6 -4 -4 -4
-6 -4 9 -7 -6 -4 -4 -4
-6 -4 9 -7 -6 -4 -4 -4
-6 -4 9 -7 -6 -4 -4 -4
-7 -3 8 -7 -7 -4 -4 -5
-7 -3 8 -7 -7 -4 -4 -5
-7 -3 8 -7 -7 -4 -4 -5
-7 -3 8 -7 -7 -4 -4 -5
-7 -3 8 -7 -7 -4 -4 -5
-7 -3 8 -6 -6 -3 -4 -4
-7 -3 8 -6 -6 -3 -4 -4
-7 -3 8 -6 -6 -3 -4 -4
-8 -3 8 -6 -6 -3 -4 -4
-8 -3 8 -6 -6 -3 -4 -4
-9 -4 7 -5 -6 -3 -3 -3
-9 -4 7 -5 -6 -3 -3 -3
-8 -4 7 -5 -6 -3 -3 -3
-8 -4 7 -4 -5 -3 -3 -3
-7 -4 7 -4 -5 -3 -3 -3
-6 -4 8 -3 -4 -2 -3 -4
-6 -4 8 -3 -4 -2 -3 -4
-6 -4 8 -3 -4 -2 -3 -4
-6 -4 8 -3 -4 0 -3 -3
-6 -4 8 -3 -4 0 -3 -3
-7 -3 8 -3 -3 1 -2 -2
-7 -3 8 -3 -3 1 -2 -2
-7 -3 8 -3 -3 1 -2 -2
-7 -2 9 -3 -2 2 -2 -2
-7 -2 9 -3 -2 2 -2 -2
-7 0 10 -2 0 3 0 -2
-7 0 10 -2 0 3 0 -2
-7 0 10 0 0 3 0 -2
-7 0 10 1 1 4 1 -2
-7 0 10 2 1 4 1 -2
-7 -2 10 3 2 5 2 0
-7 -2 10 3 2 5 2 0
-7 -2 10 3 3 6 3 0
-7 -2 10 4 3 6 3 1
-7 -2 10 4 4 7 4 1
-7 -2 11 5 5 8 5 2
-7 -2 11 5 5 8 5 2
-7 -2 11 5 5 8 5 2
-7 0 11 5 5 8 5 2
-7 0 11 5 5 8 5 2
-7 1 12 5 6 8 6 1
-7 1 12 5 6 8 6 1
-7 2 12 5 6 8 6 1
-7 2 12 6 7 8 6 1
-7 3 12 6 7 8 6 1
-7 4 13 7 8 9 7 1
-7 4 13 7 8 9 7 1
-7 4 13 7 8 9 7 1
-6 4 12 7 8 9 6 1
-6 4 12 7 8 9 6 1
-5 4 11 7 7 8 5 1
-5 4 11 7 7 8 5 1
-5 4 11 7 7 8 5 1
-5 3 11 7 7 8 5 1
-5 3 11 7 7 8 5 1
-4 2 12 7 7 8 5 1
-4 2 12 7 7 8 5 1
-4 2 12 7 7 8 5 1
-4 2 12 7 7 8 5 1
-4 2 12 7 7 8 5 1
-3 3 12 7 7 9 5 1
-3 3 12 7 7 9 5 1
-3 3 12 7 7 9 5 1
-4 3 12 6 7 9 5 1
-4 3 12 6 7 9 5 1
-5 2 11 5 6 9 4 0
-5 2 11 5 6 9 4 0
-5 2 11 5 5 9 4 0
-5 2 11 5 5 9 4 0
-5 2 11 5 4 9 4 0
-5 1 10 4 3 8 3 -2
-5 1 10 4 3 8 3 -2
-5 1 10 4 3 7 3 -2
-4 1 10 3 2 7 3 -2
-4 1 10 3 2 6 3 -2
-3 2 10 2 1 5 2 -2
-3 2 10 2 1 5 2 -2
-3 2 10 2 1 5 2 -2
-3 2 10 2 1 4 2 -2
-3 2 10 2 1 4 2 -2
-4 2 9 1 0 3 3 -3
-4 2 9 1 0 3 3 -3
-4 1 9 1 0 3 3 -3
-5 1 9 1 0 3 3 -3
-5 0 9 1 0 3 3 -3
-6 -2 8 0 -2 3 4 -3
-6 -2 8 0 -2 3 4 -3
-6 -2 8 0 -2 3 4 -3
-6 -2 8 -2 -2 2 4 -3
-6 -2 8 -2 -2 2 4 -3
-5 -2 7 -3 -3 1 3 -3
-5 -2 7 -3 -3 1 3 -3
-5 -2 7 -3 -3 1 3 -3
-5 -2 7 -3 -3 1 3 -3
-5 -2 7 -3 -3 1 3 -3
-6 -3 8 -2 -4 0 2 -4
-6 -3 8 -2 -4 0 2 -4
-6 -3 8 -3 -4 0 2 -4
-5 -2 8 -3 -4 0 2 -4
-5 -2 8 -4 -4 0 2 -4
-4 0 7 -5 -5 0 2 -4
-4 0 7 -5 -5 0 2 -4
-4 -2 7 -5 -5 0 2 -4
-5 -2 7 -5 -5 0 2 -4
-5 -3 7 -5 -5 0 2 -4
-6 -4 7 -4 -6 0 2 -4
-6 -4 7 -4 -6 0 2 -4
-6 -4 6 -4 -6 0 2 -4
-6 -4 6 -4 -6 0 1 -4
-6 -4 5 -4 -6 0 1 -4
-6 -3 4 -5 -7 -2 0 -4
-6 -3 4 -5 -7 -2 0 -4
-6 -3 4 -5 -7 -2 0 -4
-6 -3 4 -5 -7 -2 0 -5
-6 -3 4 -5 -7 -2 0 -5
-5 -3 5 -6 -7 -3 0 -6
-5 -3 5 -6 -7 -3 0 -6
-5 -3 5 -6 -7 -3 0 -6
-5 -3 4 -6 -7 -3 -2 -6
-5 -3 4 -6 -7 -3 -2 -6
-6 -4 3 -7 -8 -4 -3 -6
-6 -4 3 -7 -8 -4 -3 -6
-6 -4 3 -7 -8 -4 -3 -6
-6 -4 4 -6 -8 -3 -2 -5
-6 -4 4 -6 -8 -3 -2 -5
-6 -4 5 -5 -7 -2 0 -4
-6 -3 5 -5 -7 -2 0 -4
-6 -2 5 -5 -7 0 1 -4
-6 0 6 -4 -7 0 1 -3
-6 1 6 -4 -7 1 2 -3
-5 2 7 -3 -6 2 3 -2
-5 3 8 -2 -5 2 3 -2
-5 4 9 0 -4 2 3 -2
-5 5 10 1 -3 3 4 -2
-5 6 11 2 -2 3 4 -2
-5 8 12 3 0 4 5 0
-5 8 12 3 0 4 5 0
-4 9 12 4 0 4 5 0
-4 10 13 5 0 4 5 1
-3 11 13 6 0 4 5 1
-2 12 14 7 1 5 5 2
0 13 14 7 2 6 6 3
1 14 14 7 3 8 7 4
3 16 14 7 5 9 9 5
4 17 14 7 6 11 10 6
6 19 13 8 8 13 12 8
6 19 12 7 8 13 12 8
7 20 10 6 7 13 12 8
8 20 9 5 7 13 12 8
9 21 7 4 6 13 12 8
10 22 5 3 5 12 11 9
10 22 4 3 5 12 11 9
10 22 3 2 5 12 11 9
11 22 2 2 4 11 11 9
11 22 1 1 4 11 11 9
12 23 0 0 3 10 12 9
12 23 0 0 2 10 12 9
12 23 -2 -2 1 10 12 9
12 22 -2 -3 0 10 11 9
12 22 -3 -4 -2 10 11 9
12 21 -4 -5 -3 9 10 9
12 20 -4 -5 -3 9 10 9
12 18 -4 -5 -3 9 10 9
12 16 -5 -5 -3 9 10 9
12 14 -5 -5 -3 9 10 9
12 12 -6 -6 -4 8 10 10
10 10 -6 -6 -5 7 9 9
8 8 -6 -6 -6 6 7 8
6 6 -6 -7 -8 4 5 7
4 4 -6 -7 -9 3 3 6
2 1 -6 -8 -11 1 1 5
1 -2 -6 -9 -11 0 0 5
-2 -4 -6 -10 -12 -2 -2 4
-4 -6 -6 -12 -13 -3 -4 3
-6 -8 -6 -13 -14 -4 -5 2
-8 -10 -7 -15 -15 -6 -7 1
-8 -10 -7 -15 -16 -6 -7 1
-8 -10 -7 -16 -17 -7 -8 0
-8 -11 -8 -17 -18 -8 -8 0
-8 -11 -8 -18 -19 -9 -9 -2
-9 -12 -9 -19 -20 -10 -10 -3
-9 -12 -9 -19 -20 -10 -10 -3
-9 -12 -9 -19 -20 -10 -10 -3
-9 -12 -9 -19 -20 -10 -11 -4
-9 -12 -9 -19 -20 -10 -11 -4
-8 -11 -10 -20 -21 -11 -12 -5
-8 -11 -10 -20 -21 -11 -12 -5
-8 -11 -10 -20 -21 -11 -11 -5
-7 -11 -10 -19 -21 -11 -11 -5
-7 -11 -10 -19 -21 -11 -10 -5
-6 -11 -9 -18 -20 -10 -9 -4
-6 -11 -9 -18 -20 -10 -9 -4
-6 -11 -9 -18 -20 -10 -9 -4
-6 -11 -10 -18 -20 -10 -9 -4
-6 -11 -10 -18 -20 -10 -9 -4
-7 -12 -11 -18 -20 -10 -10 -3
-7 -12 -11 -18 -20 -10 -10 -3
-7 -12 -11 -18 -20 -10 -10 -3
-7 -12 -12 -18 -20 -10 -10 -3
-7 -12 -12 -18 -20 -10 -10 -3
-7 -12 -13 -18 -20 -9 -10 -3
-7 -10 -9 -11 -15 -3 -6 1
-7 -8 -5 -4 -10 4 -2 4
-7 -5 0 4 -5 10 3 7
-7 -3 4 11 1 16 7 10
-6 1 8 19 7 22 11 13
7 15 15 43 36 52 39 35
20 29 23 66 66 82 69 59
32 44 30 90 96 112 98 81
46 58 38 113 126 142 127 104
59 72 47 137 155 173 156 128
85 100 40 142 180 213 205 175
109 128 34 148 204 252 255 222
135 155 27 154 229 292 304 269
160 183 21 160 254 331 353 316
186 211 14 167 278 371 402 363
184 204 -9 118 232 341 377 348
182 198 -32 70 186 310 351 331
179 192 -55 22 140 279 325 316
177 186 -78 -26 94 248 300 300
174 180 -102 -75 47 218 273 283
143 141 -113 -112 -7 139 192 215
113 102 -124 -150 -60 60 111 146
82 62 -137 -188 -114 -20 30 77
52 23 -148 -226 -168 -99 -51 9
21 -16 -159 -263 -221 -178 -132 -60
18 -16 -147 -236 -201 -163 -122 -58
15 -14 -133 -207 -180 -147 -111 -54
12 -12 -118 -180 -158 -131 -100 -50
9 -10 -104 -151 -137 -114 -89 -46
6 -9 -90 -123 -116 -98 -78 -41
4 -9 -78 -106 -101 -85 -69 -37
2 -11 -67 -89 -87 -72 -60 -33
0 -13 -57 -71 -71 -59 -51 -30
-3 -15 -46 -54 -57 -47 -41 -26
-5 -17 -35 -36 -43 -34 -33 -23
-6 -18 -33 -33 -39 -32 -31 -22
-7 -18 -31 -30 -37 -30 -29 -21
-7 -18 -29 -27 -34 -28 -27 -20
-8 -18 -27 -24 -32 -26 -25 -19
-8 -18 -26 -21 -30 -24 -24 -18
-9 -18 -25 -20 -29 -23 -23 -17
-9 -18 -25 -19 -28 -23 -23 -17
-9 -18 -25 -18 -28 -22 -23 -18
-9 -18 -25 -17 -27 -22 -23 -18
-9 -18 -25 -17 -27 -22 -23 -18
-10 -19 -25 -16 -26 -21 -22 -19
-10 -19 -25 -15 -25 -20 -22 -19
-10 -20 -24 -14 -24 -20 -21 -18
-10 -20 -24 -13 -23 -19 -21 -18
-10 -20 -24 -12 -23 -19 -21 -18
-11 -21 -23 -11 -22 -18 -20 -17
-11 -21 -23 -11 -22 -18 -20 -17
-11 -21 -24 -11 -22 -18 -20 -17
-11 -21 -24 -11 -22 -18 -20 -17
-11 -21 -24 -11 -22 -18 -20 -17
-10 -20 -25 -10 -22 -18 -20 -18
-10 -20 -25 -9 -22 -17 -20 -18
-10 -20 -25 -9 -22 -17 -19 -17
-10 -20 -25 -8 -22 -16 -19 -17
-10 -20 -25 -8 -22 -16 -19 -17
-11 -19 -26 -7 -21 -15 -18 -16
-11 -19 -26 -7 -21 -15 -18 -17
-11 -19 -26 -7 -21 -16 -18 -18
-11 -19 -26 -7 -21 -16 -18 -19
-11 -19 -26 -7 -21 -16 -18 -19
-10 -18 -26 -7 -21 -17 -19 -20
-10 -18 -26 -6 -21 -17 -19 -20
-10 -18 -27 -6 -20 -17 -19 -20
-10 -18 -27 -5 -20 -17 -19 -20
-10 -18 -27 -5 -20 -17 -19 -20
-11 -19 -28 -4 -19 -17 -19 -20
-11 -19 -28 -4 -19 -17 -19 -20
-11 -19 -28 -4 -19 -17 -19 -20
-11 -19 -28 -4 -19 -17 -19 -20
-11 -19 -28 -4 -19 -17 -19 -20
-11 -20 -15 -4 -20 -16 -18 -20
-11 -20 2 -3 -19 -16 -18 -20
-11 -20 17 -3 -19 -16 -18 -20
-11 -20 32 -2 -18 -16 -18 -20
-11 -20 49 -2 -18 -16 -18 -20
-10 -19 50 0 -17 -15 -19 -19
-10 -19 50 1 -17 -14 -18 -19
-10 -19 51 1 -16 -14 -18 -19
-10 -19 51 2 -16 -13 -17 -19
-10 -19 51 2 -16 -13 -17 -19
-11 -19 51 3 -15 -12 -16 -18
-11 -19 49 3 -15 -12 -16 -18
-10 -19 47 3 -14 -12 -16 -18
-10 -19 45 3 -14 -12 -16 -18
-10 -19 44 3 -14 -12 -16 -18
-9 -19 43 4 -13 -12 -17 -19
-9 -19 43 5 -13 -12 -17 -20
-9 -19 43 5 -13 -12 -18 -20
-9 -19 43 6 -13 -12 -18 -21
-9 -19 43 6 -13 -12 -18 -21
-9 -20 44 7 -13 -13 -19 -22
-9 -20 43 8 -13 -13 -19 -22
-9 -19 43 8 -13 -13 -19 -22
-9 -19 42 9 -13 -13 -19 -22
-9 -19 42 9 -13 -13 -19 -22
-8 -18 40 10 -12 -12 -19 -22
-8 -18 40 10 -11 -12 -19 -22
-8 -18 40 11 -11 -12 -19 -22
-8 -18 40 11 -10 -12 -19 -22
-8 -18 40 11 -10 -12 -19 -22
-8 -19 42 12 -9 -11 -18 -23
-7 -19 42 13 -9 -11 -18 -23
-7 -18 42 14 -8 -11 -18 -23
-6 -18 42 15 -8 -11 -18 -23
-6 -18 42 16 -8 -11 -18 -23
-5 -17 43 17 -7 -10 -19 -24
-5 -17 43 18 -7 -10 -19 -24
-5 -17 42 19 -6 -10 -19 -24
-5 -17 42 20 -6 -10 -19 -24
-5 -17 42 20 -6 -10 -19 -24
-5 -18 40 21 -5 -11 -20 -24
-5 -18 40 22 -4 -11 -20 -24
-4 -19 40 23 -3 -10 -20 -24
-4 -19 40 24 -2 -10 -20 -24
-4 -19 40 25 0 -10 -20 -24
-3 -20 42 26 1 -9 -19 -25
-3 -19 42 27 1 -9 -20 -26
-3 -18 42 27 1 -9 -20 -28
-3 -17 42 28 1 -9 -21 -29
-3 -17 42 28 1 -9 -21 -30
-3 -16 43 29 2 -10 -23 -31
-3 -16 43 30 2 -10 -24 -32
-2 -16 43 30 2 -11 -25 -32
-2 -16 43 31 2 -11 -26 -33
-2 -16 43 31 2 -11 -27 -33
0 -17 45 32 2 -12 -29 -35
-2 -18 46 33 2 -13 -30 -36
-2 -19 47 33 1 -14 -31 -38
-3 -20 48 34 1 -15 -32 -39
-3 -20 49 34 1 -16 -33 -40
-4 -21 50 35 0 -18 -35 -43
-4 -21 50 35 0 -19 -37 -44
-3 -22 50 35 -2 -21 -38 -45
-3 -22 50 35 -2 -22 -40 -46
-3 -22 50 35 -2 -23 -41 -47
-2 -23 49 35 -4 -25 -44 -49
-3 -23 49 35 -5 -27 -46 -51
-4 -23 48 34 -6 -29 -48 -53
-5 -23 48 34 -7 -31 -50 -55
-5 -23 48 34 -8 -32 -51 -56
-6 -22 47 33 -9 -34 -53 -57
-6 -23 47 33 -10 -36 -55 -58
-6 -23 46 32 -11 -37 -57 -59
-6 -24 46 32 -12 -39 -59 -60
-6 -24 46 32 -12 -40 -60 -61
-7 -25 47 31 -14 -41 -61 -62
-7 -25 49 30 -15 -43 -62 -63
-7 -25 51 29 -16 -44 -62 -63
-7 -25 54 28 -17 -45 -63 -64
-7 -25 56 27 -18 -45 -63 -64
-8 -25 60 25 -19 -46 -64 -65
-8 -25 63 23 -19 -47 -64 -65
-8 -24 67 22 -20 -47 -65 -65
-8 -24 71 20 -20 -48 -65 -65
-8 -24 74 19 -20 -48 -65 -65
-8 -23 75 18 -21 -49 -66 -64
-8 -23 74 17 -21 -48 -65 -63
-8 -22 74 17 -21 -48 -64 -62
-8 -22 73 16 -21 -47 -63 -61
-8 -22 73 16 -21 -47 -63 -60
-9 -21 71 14 -22 -45 -60 -57
-9 -20 70 13 -21 -43 -56 -54
-8 -19 69 11 -21 -40 -53 -51
-8 -18 68 10 -20 -38 -50 -48
-8 -18 67 9 -20 -36 -47 -45
-7 -17 66 8 -19 -34 -44 -41
-7 -16 65 7 -19 -32 -40 -38
-6 -15 64 6 -19 -30 -37 -35
-6 -14 63 5 -19 -28 -34 -33
-6 -14 62 5 -19 -26 -31 -30
-5 -13 61 4 -17 -23 -28 -27
-4 -12 60 4 -16 -21 -25 -24
-4 -11 59 3 -14 -19 -22 -21
-3 -10 58 3 -13 -16 -20 -19
-3 -9 57 3 -12 -14 -17 -16
-2 -8 56 2 -11 -12 -14 -14
-2 -7 56 2 -10 -11 -12 -12
-2 -6 56 2 -10 -9 -10 -10
-2 -5 56 2 -9 -8 -7 -9
-2 -5 56 2 -9 -7 -5 -7
-3 -4 55 1 -8 -6 -4 -5
-3 -4 55 1 -8 -5 -3 -4
-3 -4 55 1 -8 -4 -2 -2
-3 -4 55 1 -8 -3 0 0
-3 -4 55 1 -8 -3 1 1
-2 -4 54 0 -7 -2 2 2
-2 -4 53 0 -7 -2 2 3
-2 -4 52 -2 -7 -2 2 3
-2 -4 51 -2 -7 -2 2 4
-2 -4 51 -2 -7 -2 2 4
-3 -3 50 -3 -7 0 3 5
-3 -3 50 -3 -7 0 4 5
-3 -3 50 -3 -7 0 4 5
-3 -3 50 -3 -7 0 5 5
-3 -3 50 -3 -7 0 5 5
-3 -4 49 -3 -6 1 6 4
-3 -4 48 -3 -6 1 6 4
-3 -4 47 -3 -6 1 6 4
-3 -4 46 -3 -6 1 6 4
-3 -4 46 -3 -6 1 6 4
-2 -4 45 -4 -6 1 6 5
-2 -4 45 -4 -6 1 6 5
-2 -4 45 -4 -6 1 6 6
-2 -4 45 -4 -6 1 6 6
-2 -4 45 -4 -6 1 6 6
-3 -3 44 -4 -6 2 7 7
-3 -3 44 -4 -6 2 7 7
-3 -3 45 -4 -7 1 7 7
-3 -3 45 -4 -7 1 7 7
-3 -3 45 -4 -7 1 7 7
-3 -4 46 -5 -8 0 6 6
-2 -4 46 -5 -8 0 6 6
-2 -4 45 -5 -7 1 6 6
0 -4 45 -5 -7 1 6 6
0 -4 45 -5 -7 1 6 6
1 -3 44 -5 -6 2 7 6
0 -3 44 -5 -6 2 7 6
0 -3 44 -5 -6 2 7 6
-2 -3 44 -5 -6 2 7 6
-2 -3 44 -5 -6 2 7 6
-3 -4 44 -4 -5 3 8 6
-3 -4 44 -4 -5 3 8 6
-3 -4 44 -4 -5 3 8 7
-3 -4 44 -4 -5 3 8 7
-3 -4 44 -4 -5 3 8 7
-3 -4 45 -4 -5 3 8 8
-3 -4 45 -3 -5 3 8 8
-3 -4 44 -3 -5 4 9 8
-3 -4 44 -2 -5 4 9 8
-3 -4 44 -2 -5 4 9 8
-3 -4 43 0 -4 5 10 7
-3 -4 42 0 -3 6 10 7
-3 -3 42 1 -2 6 10 7
-3 -3 40 1 0 7 10 7
-3 -3 40 1 0 7 10 7
-2 -2 39 2 1 8 10 8
-2 -2 39 2 1 8 10 8
-2 -2 39 2 1 8 10 8
-2 -2 39 2 1 8 10 8
-2 -2 39 2 1 8 10 8
-2 -3 38 2 1 8 11 8
-2 -2 38 2 2 9 12 8
-2 -2 39 2 3 9 12 8
-2 0 39 2 4 10 13 8
-2 0 39 2 4 10 13 8
-3 1 40 3 5 11 14 9
-3 1 40 3 5 11 14 9
-3 1 40 3 5 11 14 9
-3 1 40 3 5 11 14 9
-3 1 40 3 5 11 14 9
-2 1 42 4 5 12 15 9
-2 1 43 5 6 12 15 9
-2 1 43 5 6 12 15 9
-2 1 44 6 7 12 15 9
-2 1 44 6 7 12 15 9
-2 0 45 7 8 13 15 9
-2 1 45 7 8 13 15 9
-3 1 46 7 8 13 15 9
-3 2 46 7 8 13 15 9
-3 2 46 7 8 13 15 9
-4 3 47 7 8 13 16 10
-4 3 47 7 8 13 16 10
-3 3 47 7 8 13 16 10
-3 3 47 7 8 13 16 10
-3 3 47 7 8 13 16 10
-2 2 47 7 7 13 15 11
-2 2 46 7 7 13 15 11
-2 2 46 7 7 13 15 11
-2 2 45 7 7 13 15 11
-2 2 45 7 7 13 15 11
-2 1 44 6 6 13 14 10
-2 1 43 6 6 13 14 10
-3 1 43 6 6 12 14 10
-3 1 42 6 6 12 14 10
-3 1 42 6 6 12 14 10
-4 0 40 6 6 11 13 10
-4 0 39 6 6 11 13 10
-4 0 38 5 5 10 12 10
-4 0 37 5 5 10 12 10
-4 0 36 5 5 10 12 10
-4 0 35 4 4 9 11 10
-4 0 35 4 4 9 11 10
-4 0 34 4 4 9 11 10
-4 0 34 4 4 9 11 10
-4 0 34 4 4 9 11 10
-4 0 33 3 3 9 10 9
-4 0 33 3 3 9 10 9
-4 0 32 2 2 9 10 9
-4 0 32 2 2 9 10 9
-4 0 32 2 2 9 10 9
-5 0 31 1 1 8 11 10
-5 0 31 1 1 8 11 10
-5 0 30 1 1 8 11 9
-5 0 30 1 1 8 11 9
-5 0 30 1 1 8 11 9
-4 1 29 0 1 7 10 8
-4 1 27 0 1 7 10 8
-4 1 26 -2 1 6 10 8
-4 1 25 -2 1 6 10 8
-4 1 24 -2 1 6 10 8
-5 1 23 -3 0 5 9 8
-5 1 23 -3 0 5 9 8
-5 1 23 -3 -2 5 9 8
-5 1 23 -3 -2 5 9 8
-5 1 23 -3 -2 5 9 8
-6 1 23 -4 -3 4 8 7
-6 1 23 -4 -3 4 8 7
-5 1 22 -4 -3 4 8 6
-5 1 22 -4 -3 4 8 6
-5 1 22 -4 -3 4 8 6
-4 1 21 -5 -4 3 8 5
-4 1 21 -5 -4 3 8 5
-5 1 20 -5 -4 3 8 6
-5 1 20 -5 -4 3 8 6
-5 1 20 -5 -4 3 8 6
-6 1 19 -5 -4 3 7 7
-6 1 19 -5 -4 3 7 7
-6 1 18 -6 -4 3 6 6
-6 1 18 -6 -4 3 6 6
-6 1 18 -6 -4 3 6 6
-6 1 17 -7 -4 3 5 5
-6 1 17 -7 -5 3 5 5
-6 1 17 -7 -5 3 5 5
-6 1 17 -7 -6 3 5 5
-6 1 17 -7 -6 3 5 5
-7 1 16 -7 -7 2 6 4
-7 2 16 -7 -7 2 6 4
-6 2 15 -7 -6 2 6 5
-6 3 15 -7 -6 2 6 5
-6 3 15 -7 -6 2 6 5
-5 4 14 -7 -5 1 5 6
-5 5 14 -6 -4 2 5 6
-5 5 14 -6 -4 2 5 6
-5 6 14 -5 -3 3 5 6
-5 6 14 -5 -3 3 5 6
-6 7 15 -4 -2 4 6 6
-6 8 16 -3 -2 4 7 7
-6 9 16 -3 0 5 8 8
-6 9 17 -2 0 5 9 8
-6 10 17 -2 0 5 10 9
-7 11 18 0 1 6 11 10
-7 12 19 1 2 7 12 11
-6 13 19 1 3 7 12 11
-6 14 20 2 3 8 13 12
-6 15 20 2 4 8 13 12
-5 17 21 4 5 10 14 13
-4 18 21 5 6 11 15 15
-3 19 21 6 7 12 16 16
-2 21 21 8 8 14 16 17
0 22 21 9 9 15 17 18
1 23 19 10 10 16 18 19
2 24 18 9 10 16 19 19
3 25 16 9 10 16 19 20
3 25 15 8 10 16 20 20
4 26 13 8 10 16 20 20
5 27 12 7 10 16 21 21
5 27 11 6 10 16 21 21
5 28 10 5 9 15 20 21
5 28 9 4 9 15 20 21
5 28 8 3 9 15 20 21
4 29 7 2 8 14 19 21
4 29 5 2 8 14 19 21
4 30 4 1 7 14 19 21
4 30 3 1 7 14 19 21
4 30 2 1 7 14 19 21
5 30 1 0 6 14 19 22
5 27 0 0 6 14 19 22
5 24 0 0 6 14 19 22
5 22 -2 0 6 14 19 22
5 19 -2 0 6 14 19 22
5 17 -3 0 6 13 20 21
4 15 -3 0 5 11 19 19
3 13 -3 -2 4 10 18 18
3 10 -3 -2 3 8 17 16
2 8 -3 -2 2 6 16 14
0 6 -2 -4 0 5 14 13
-3 4 -3 -5 -3 3 12 11
-5 2 -3 -7 -4 2 10 10
-8 -2 -4 -8 -6 0 7 8
-10 -4 -4 -10 -8 -2 5 7
-11 -5 -5 -11 -9 -3 4 6
-11 -6 -6 -12 -10 -4 3 5
-12 -6 -7 -12 -10 -5 2 4
-12 -7 -7 -13 -11 -5 2 4
-12 -7 -8 -13 -11 -6 1 3
-13 -8 -9 -14 -12 -7 0 2
-13 -8 -9 -14 -12 -7 0 1
-13 -8 -9 -15 -13 -8 0 1
-13 -8 -9 -15 -13 -8 0 0
-13 -8 -9 -15 -13 -8 0 0
-12 -8 -10 -16 -14 -9 -2 -2
-12 -8 -10 -16 -14 -9 -2 -2
-12 -7 -10 -16 -14 -9 -3 -2
-12 -7 -10 -16 -14 -9 -3 -2
-12 -7 -10 -16 -14 -9 -3 -2
-13 -6 -11 -16 -15 -10 -4 -3
-13 -6 -11 -16 -15 -10 -4 -3
-13 -6 -11 -16 -15 -10 -3 -3
-13 -6 -11 -16 -15 -10 -3 -3
-13 -6 -11 -16 -15 -10 -3 -3
-13 -7 -11 -16 -14 -9 -2 -2
-13 -7 -11 -16 -14 -9 -2 -2
-13 -7 -11 -15 -14 -8 0 -2
-13 -7 -11 -15 -14 -8 0 -2
-13 -7 -11 -15 -14 -8 0 -2
-13 -7 -8 -11 -11 -5 2 0
-13 -5 -5 -6 -6 0 4 2
-13 -4 0 0 0 4 6 3
-13 -2 3 5 5 8 9 5
-13 0 6 10 10 12 11 6
-8 9 13 27 30 33 30 21
3 21 21 51 58 63 58 44
13 34 28 74 85 93 86 65
23 47 36 97 112 122 114 88
33 60 45 120 140 152 142 110
53 81 47 134 167 189 186 150
75 107 45 143 192 230 236 198
98 133 43 152 219 271 287 247
121 158 40 161 244 311 339 297
144 184 38 171 270 352 390 345
153 194 25 149 265 355 401 361
155 197 6 111 243 339 391 359
157 199 -14 73 222 322 381 358
159 201 -33 35 200 306 370 357
161 204 -53 -2 178 289 361 356
142 178 -68 -45 122 225 295 302
111 137 -81 -89 50 137 202 222
80 95 -95 -134 -24 50 109 143
50 54 -107 -179 -97 -38 16 63
19 12 -120 -223 -170 -126 -76 -17
7 -3 -119 -226 -186 -150 -107 -45
2 -4 -110 -205 -173 -141 -105 -47
-3 -5 -100 -186 -159 -133 -104 -48
-8 -5 -91 -165 -147 -124 -102 -50
-12 -6 -81 -146 -134 -115 -100 -52
-14 -7 -70 -126 -117 -103 -91 -50
-13 -9 -59 -106 -100 -89 -78 -45
-12 -10 -47 -86 -82 -74 -65 -39
-12 -12 -35 -65 -65 -60 -53 -34
-11 -13 -23 -45 -48 -45 -40 -29
-10 -14 -18 -34 -39 -37 -34 -26
-11 -14 -15 -30 -34 -33 -31 -24
-13 -15 -12 -25 -30 -29 -28 -22
-14 -15 -9 -21 -25 -26 -25 -20
-15 -15 -6 -16 -21 -22 -22 -18
-16 -16 -4 -14 -19 -20 -21 -17
-16 -16 -3 -14 -19 -20 -21 -17
-16 -16 -2 -13 -19 -20 -21 -18
-16 -16 -2 -13 -19 -20 -21 -18
-16 -16 0 -13 -19 -20 -21 -18
-16 -16 1 -12 -19 -19 -21 -19
-16 -16 2 -11 -18 -18 -20 -19
-16 -17 3 -10 -16 -17 -19 -18
-16 -17 4 -10 -15 -16 -19 -18
-16 -17 5 -9 -14 -15 -18 -18
-17 -18 6 -8 -13 -14 -17 -17
-17 -18 6 -8 -13 -14 -17 -17
-17 -18 6 -8 -13 -15 -18 -17
-17 -18 6 -8 -13 -15 -18 -17
-17 -18 6 -8 -13 -15 -18 -17
-16 -19 7 -8 -14 -16 -19 -17
-16 -19 7 -7 -14 -16 -19 -17
-16 -19 8 -6 -13 -16 -19 -18
-16 -19 9 -6 -13 -16 -19 -18
-16 -19 9 -5 -13 -16 -19 -18
-15 -18 10 -4 -12 -15 -19 -19
-15 -18 10 -4 -12 -15 -19 -19
-15 -18 10 -4 -13 -16 -20 -20
-15 -18 10 -4 -13 -17 -20 -20
-15 -18 10 -4 -13 -17 -20 -20
-14 -17 9 -5 -14 -18 -21 -21
-14 -17 9 -5 -14 -18 -21 -21
-14 -18 9 -4 -13 -18 -21 -21
-14 -18 9 -3 -12 -18 -21 -21
-14 -18 9 -3 -12 -18 -21 -21
-15 -19 9 -2 -11 -17 -20 -21
-15 -19 9 -2 -11 -17 -20 -21
-15 -18 9 -2 -11 -17 -20 -21
-15 -18 9 -2 -11 -17 -20 -21
-15 -18 9 -2 -11 -17 -20 -21
-15 -17 10 -2 -11 -17 -20 -20
-15 -17 10 0 -11 -16 -20 -20
-15 -17 11 1 -10 -15 -20 -20
-15 -17 11 2 -9 -15 -20 -20
-15 -17 11 3 -9 -14 -20 -20
-15 -18 12 4 -8 -13 -19 -19
-15 -18 12 4 -8 -13 -19 -19
-14 -18 12 4 -8 -14 -20 -19
-14 -18 12 4 -8 -14 -20 -19
-14 -18 12 4 -8 -14 -20 -19
-13 -18 12 5 -8 -15 -21 -20
-13 -18 10 5 -8 -15 -21 -20
-14 -18 8 6 -8 -14 -21 -20
-14 -18 7 7 -8 -13 -21 -20
-14 -18 5 7 -8 -13 -21 -20
-15 -19 3 8 -7 -12 -20 -21
-15 -19 0 8 -7 -12 -20 -21
-14 -19 -4 9 -7 -13 -21 -21
-13 -19 -7 10 -7 -13 -21 -21
-13 -19 -9 10 -7 -13 -21 -21
-12 -19 -11 11 -7 -14 -22 -22
-12 -19 -11 11 -7 -14 -22 -22
-12 -19 -11 11 -7 -14 -22 -23
-12 -19 -11 11 -7 -14 -22 -23
-12 -19 -11 11 -7 -14 -22 -23
-13 -19 -12 12 -6 -14 -21 -24
-13 -19 -12 12 -6 -14 -21 -24
-12 -19 -12 13 -5 -14 -21 -24
-12 -19 -12 14 -5 -14 -21 -24
-12 -19 -12 14 -5 -14 -21 -24
-11 -18 -12 15 -4 -15 -22 -25
-11 -18 -12 16 -3 -15 -22 -25
-10 -19 -12 17 -2 -15 -22 -25
-10 -19 -12 18 0 -15 -22 -25
-10 -19 -12 19 1 -15 -22 -25
-9 -20 -11 20 2 -14 -21 -25
-9 -20 -11 21 2 -14 -21 -25
-9 -20 -11 22 3 -14 -21 -25
-9 -20 -11 23 3 -14 -21 -25
-9 -20 -11 24 3 -14 -21 -25
-9 -19 -10 25 4 -14 -22 -26
-9 -19 -10 26 4 -14 -22 -26
-9 -19 -9 27 5 -14 -23 -27
-9 -19 -9 28 5 -14 -24 -28
-9 -19 -9 29 5 -14 -24 -28
-8 -20 -8 30 6 -13 -25 -29
-8 -20 -8 31 6 -13 -26 -29
-8 -20 -7 32 7 -13 -27 -30
-8 -20 -7 32 7 -13 -28 -31
-8 -20 -7 33 7 -13 -29 -31
-7 -19 -6 34 8 -14 -30 -32
-7 -19 -5 35 8 -14 -30 -33
-7 -19 -4 36 8 -15 -31 -34
-7 -19 -4 37 8 -15 -31 -35
-7 -19 -3 38 8 -15 -31 -36
-7 -20 -2 39 8 -16 -32 -37
-7 -20 -2 39 8 -17 -34 -38
-7 -20 -2 39 7 -19 -36 -39
-7 -20 -2 39 7 -20 -37 -40
-7 -20 -2 39 7 -21 -39 -41
-6 -20 0 40 6 -22 -40 -44
-6 -21 0 40 6 -24 -43 -45
-6 -22 1 40 5 -25 -45 -47
-6 -22 1 40 4 -27 -46 -49
-6 -23 1 40 4 -28 -48 -51
-6 -24 2 42 3 -30 -50 -53
-6 -24 2 40 1 -32 -52 -55
-6 -24 1 39 -2 -35 -55 -57
-6 -24 1 38 -3 -37 -57 -59
-6 -24 1 37 -5 -39 -59 -61
-6 -23 0 36 -6 -41 -61 -62
-6 -23 0 36 -7 -44 -63 -63
-7 -24 0 35 -8 -45 -65 -64
-8 -24 0 35 -8 -46 -66 -64
-8 -24 0 35 -9 -48 -68 -65
-9 -25 1 34 -10 -49 -69 -66
-9 -25 1 33 -11 -51 -70 -67
-10 -25 0 31 -13 -52 -72 -69
-10 -25 0 30 -14 -53 -73 -70
-10 -25 0 29 -15 -55 -74 -71
-11 -25 -2 28 -16 -56 -75 -72
-11 -25 -2 27 -16 -56 -75 -72
-11 -25 -3 26 -17 -57 -76 -71
-11 -25 -4 25 -17 -57 -77 -71
-11 -25 -4 24 -17 -57 -77 -71
-12 -25 -5 23 -18 -58 -78 -70
-12 -24 -6 22 -18 -58 -76 -69
-12 -22 -7 20 -19 -57 -75 -67
-12 -21 -8 19 -19 -56 -74 -66
-12 -20 -9 18 -19 -56 -72 -65
-11 -19 -10 17 -20 -54 -70 -63
-11 -19 -11 15 -20 -52 -67 -61
-11 -19 -12 14 -20 -50 -65 -58
-11 -19 -13 13 -20 -48 -62 -56
-11 -19 -14 11 -20 -46 -60 -54
-10 -19 -15 10 -19 -44 -57 -51
-10 -17 -16 9 -19 -41 -53 -47
-9 -16 -17 8 -18 -39 -50 -44
-8 -15 -18 8 -17 -37 -46 -39
-8 -13 -19 7 -17 -35 -43 -36
-7 -12 -20 6 -16 -33 -39 -33
-7 -12 -20 5 -15 -30 -35 -29
-8 -11 -21 4 -13 -27 -31 -26
-8 -11 -21 4 -12 -25 -28 -22
-8 -11 -21 3 -11 -22 -24 -19
-9 -10 -22 2 -10 -20 -22 -17
-9 -10 -22 2 -10 -19 -20 -16
-9 -9 -23 1 -10 -18 -18 -14
-9 -8 -23 1 -10 -17 -17 -13
-9 -8 -23 1 -10 -16 -15 -12
-8 -7 -24 0 -9 -15 -14 -11
-8 -7 -24 0 -9 -14 -12 -9
-8 -6 -24 0 -9 -13 -11 -8
-8 -5 -24 0 -9 -12 -10 -7
-8 -5 -24 0 -9 -11 -8 -5
-8 -4 -25 -2 -8 -10 -7 -4
-8 -4 -25 -2 -8 -10 -7 -4
-7 -3 -25 -3 -7 -10 -6 -3
-7 -3 -25 -3 -7 -10 -5 -2
-7 -3 -25 -3 -7 -10 -5 -2
-6 -2 -26 -4 -6 -9 -4 0
-6 -2 -26 -4 -6 -9 -4 0
-7 -3 -26 -4 -6 -9 -4 0
-8 -3 -26 -4 -6 -9 -4 0
-8 -3 -26 -4 -6 -9 -4 0
-9 -4 -25 -4 -5 -9 -3 1
-9 -4 -25 -4 -5 -9 -3 1
-9 -4 -26 -4 -5 -9 -3 1
-9 -4 -26 -4 -5 -9 -3 1
-9 -4 -26 -4 -5 -9 -3 1
-8 -5 -27 -5 -5 -8 -2 2
-8 -5 -27 -5 -5 -8 -2 2
-8 -5 -26 -5 -5 -8 -2 2
-8 -5 -25 -5 -5 -8 -2 2
-8 -5 -25 -5 -5 -8 -2 2
-8 -5 -24 -4 -4 -7 0 1
-8 -5 -24 -4 -4 -7 0 1
-8 -5 -25 -4 -4 -7 -2 1
-8 -5 -25 -4 -4 -7 -2 1
-8 -5 -25 -4 -4 -7 -2 1
-8 -4 -26 -5 -5 -7 -3 0
-8 -4 -26 -5 -5 -7 -3 0
-8 -4 -26 -5 -5 -7 -3 0
-8 -4 -26 -5 -5 -7 -3 0
-8 -4 -26 -5 -5 -7 -3 0
-8 -3 -26 -6 -4 -6 -2 1
-8 -3 -26 -6 -4 -6 -2 1
-8 -3 -26 -6 -4 -6 -2 1
-8 -3 -26 -6 -4 -6 -2 1
-8 -3 -26 -6 -4 -6 -2 1
-8 -3 -26 -5 -3 -5 -2 1
-8 -3 -26 -4 -3 -5 -2 1
-8 -4 -26 -3 -2 -4 0 1
-8 -4 -26 -3 -2 -4 1 1
-8 -4 -26 -2 -2 -4 1 1
-8 -5 -26 0 0 -3 2 1
-8 -4 -26 0 0 -3 2 1
-8 -3 -26 0 0 -3 2 1
-8 -3 -26 0 0 -3 2 1
-8 -2 -26 0 0 -3 2 1
-7 0 -25 0 0 -3 1 2
-7 0 -25 0 0 -2 1 2
-7 0 -25 0 0 -2 1 2
-7 0 -25 1 1 0 2 3
-7 0 -25 1 1 1 2 3
-8 -2 -25 2 2 2 3 4
-8 -2 -25 2 2 2 3 4
-8 -2 -25 2 2 2 3 4
-8 -2 -25 2 3 2 4 4
-8 -2 -25 2 3 2 4 4
-9 -2 -25 2 4 3 5 4
-9 -2 -25 3 5 3 5 4
-8 -2 -25 3 5 3 6 5
-7 0 -24 4 6 4 7 6
-7 0 -24 5 7 4 7 6
-6 1 -23 6 8 5 8 7
-6 1 -23 6 8 5 8 7
-6 1 -23 6 8 5 8 7
-6 1 -23 6 8 5 8 7
-6 1 -23 6 8 5 8 7
-7 1 -22 6 8 6 8 7
-7 1 -22 6 8 6 8 7
-7 1 -22 6 8 7 8 7
-7 1 -22 6 8 8 8 7
-7 1 -22 6 8 8 8 7
-7 2 -21 6 9 9 9 6
-7 2 -21 6 9 9 9 6
-7 2 -21 6 9 9 9 6
-7 3 -21 6 9 9 9 6
-7 3 -21 6 9 9 9 6
-6 4 -22 6 10 8 9 6
-6 4 -21 6 10 8 9 6
-6 4 -20 6 10 8 9 6
-6 4 -19 7 10 8 9 6
-6 4 -18 7 10 8 9 6
-6 3 -17 8 11 9 8 6
-6 3 -17 7 11 9 8 6
-6 3 -17 7 11 9 8 6
-6 3 -17 6 11 9 8 7
-6 3 -17 5 11 9 8 7
-5 4 -17 4 10 8 8 8
-5 4 -17 4 10 8 8 8
-5 4 -17 4 10 8 8 8
-5 3 -17 4 10 8 8 8
-5 3 -17 4 10 8 8 8
-4 2 -16 5 9 8 7 7
-4 2 -16 5 9 8 7 7
-4 2 -16 5 9 8 7 7
-4 2 -15 4 8 7 7 7
-4 2 -15 4 8 7 7 7
-5 3 -14 3 7 6 6 7
-5 3 -14 3 7 6 6 7
-5 3 -14 2 6 6 6 7
-5 3 -14 1 5 6 6 6
-5 3 -14 1 5 6 6 6
-4 3 -15 0 4 5 5 5
-4 3 -15 0 4 5 5 5
-4 3 -15 0 4 5 5 5
-4 3 -15 -2 3 5 5 5
-4 3 -15 -2 3 5 5 5
-4 2 -14 -3 2 4 4 6
-4 2 -14 -3 2 4 4 6
-4 2 -14 -3 2 4 4 6
-4 1 -14 -3 2 4 4 6
-4 1 -14 -3 2 4 4 6
-5 0 -13 -3 2 4 4 5
-5 0 -13 -3 2 4 4 5
-5 0 -13 -3 2 3 3 5
-5 0 -13 -4 1 2 2 4
-5 0 -13 -4 1 2 2 4
-5 0 -14 -5 0 1 1 3
-5 0 -14 -5 0 1 1 3
-5 0 -14 -5 0 1 1 3
-5 0 -14 -5 0 1 1 3
-5 0 -14 -5 0 1 1 3
-6 -2 -14 -6 0 1 0 3
-6 -2 -14 -6 0 1 0 3
-6 -2 -14 -6 0 1 0 3
-6 -2 -14 -6 0 1 0 3
-6 -2 -14 -6 0 1 0 3
-6 0 -14 -7 0 0 0 3
-6 0 -14 -7 0 0 0 3
-6 0 -14 -7 0 0 0 3
-6 0 -13 -7 0 0 0 3
-6 0 -13 -7 0 0 0 3
-6 0 -12 -7 0 1 1 3
-6 0 -12 -7 -2 1 1 3
-6 0 -12 -7 -2 1 0 3
-6 0 -12 -8 -3 0 -2 3
-6 0 -12 -8 -4 0 -2 3
-5 1 -13 -9 -5 -2 -3 2
-5 1 -13 -9 -5 -2 -3 2
-5 1 -13 -9 -5 -2 -3 2
-6 0 -12 -9 -5 -2 -3 2
-6 0 -12 -9 -5 -2 -3 2
-7 -2 -11 -9 -4 0 -2 1
-7 -2 -11 -9 -4 0 -2 1
-7 -2 -11 -9 -4 0 -2 1
-7 -2 -11 -9 -4 0 -2 1
-7 -2 -11 -9 -4 0 -2 1
-7 -2 -11 -9 -5 -2 -2 1
-7 -2 -11 -9 -5 -2 -2 1
-7 -2 -11 -9 -5 -2 -2 1
-7 -2 -10 -9 -5 -2 -2 1
-7 -2 -10 -9 -5 -2 -2 1
-8 -3 -9 -10 -5 -2 0 1
-8 -3 -8 -10 -5 -2 0 1
-8 -3 -8 -10 -5 -2 0 1
-7 -2 -7 -10 -5 -2 0 1
-7 -2 -6 -10 -5 -2 0 1
-6 0 -5 -10 -4 -2 0 2
-6 1 -4 -9 -3 0 1 3
-6 2 -3 -7 -2 1 1 4
-6 4 -2 -6 0 3 2 5
-6 5 0 -4 1 4 3 6
-6 6 1 -3 2 5 4 7
-6 7 1 -3 2 5 4 7
-6 8 1 -3 2 5 4 7
-6 9 1 -3 2 5 5 7
-6 10 1 -3 2 5 5 7
-5 11 2 -2 3 6 6 8
-4 12 3 0 4 7 7 8
-3 13 4 2 5 7 7 9
0 14 6 3 7 8 8 10
1 15 7 5 8 9 9 10
2 16 8 6 9 10 10 11
3 18 8 6 9 11 11 12
3 20 8 6 10 12 11 13
4 22 8 6 11 14 12 14
5 23 8 6 11 15 13 15
6 25 8 7 12 16 14 16
6 25 6 5 11 15 14 16
6 25 5 3 9 14 14 16
6 24 3 1 8 12 13 15
6 24 1 -2 6 11 13 15
5 23 0 -4 5 10 12 14
5 23 -2 -4 5 10 12 14
5 24 -2 -4 5 10 12 14
6 25 -3 -4 5 10 11 14
6 25 -4 -4 5 10 11 14
7 26 -5 -5 6 9 10 15
7 25 -5 -5 6 9 10 15
7 23 -5 -5 6 9 10 15
8 22 -5 -5 6 9 10 16
8 20 -5 -5 6 9 10 16
9 19 -6 -6 6 10 11 17
9 17 -6 -6 6 10 11 16
8 15 -6 -6 5 9 10 16
7 13 -5 -6 4 8 9 15
7 11 -5 -6 4 8 9 14
6 9 -4 -7 3 7 8 13
4 6 -4 -8 1 5 6 10
2 4 -4 -8 -2 3 4 8
0 2 -4 -9 -4 1 2 6
-3 0 -4 -10 -5 0 1 4
-5 -3 -3 -11 -7 -3 -2 2
-5 -4 -3 -12 -8 -4 -3 1
-6 -5 -4 -13 -9 -5 -4 0
-7 -6 -5 -15 -10 -7 -6 -2
-7 -7 -5 -16 -11 -8 -7 -3
-8 -8 -6 -17 -12 -9 -8 -4
-8 -8 -6 -17 -12 -9 -8 -4
-8 -8 -6 -17 -12 -9 -8 -4
-8 -8 -6 -17 -13 -9 -8 -4
-8 -8 -6 -17 -13 -9 -8 -4
-9 -8 -6 -17 -14 -10 -9 -5
-9 -8 -6 -17 -14 -10 -9 -5
-9 -8 -6 -17 -14 -10 -9 -5
-9 -8 -6 -17 -14 -10 -9 -5
-9 -8 -6 -17 -14 -10 -9 -5
-10 -9 -7 -18 -14 -11 -10 -6
-10 -9 -7 -18 -14 -11 -10 -6
-10 -9 -7 -18 -14 -11 -10 -6
-10 -9 -7 -18 -14 -11 -10 -6
-10 -9 -7 -18 -14 -11 -10 -6
-9 -9 -6 -18 -13 -11 -10 -7
-9 -9 -6 -18 -13 -11 -10 -7
-9 -9 -6 -18 -13 -11 -10 -7
-9 -8 -6 -18 -13 -11 -10 -7
-9 -8 -6 -18 -13 -11 -10 -7
-8 -7 -6 -18 -13 -10 -9 -7
-8 -7 -5 -17 -12 -9 -9 -7
-8 -7 -4 -15 -10 -8 -9 -7
-8 -7 -2 -14 -9 -7 -8 -7
-8 -7 0 -12 -7 -6 -8 -7
-8 -5 3 -5 1 2 -2 -3
-3 4 10 13 19 20 14 9
2 12 17 30 38 38 29 20
7 20 25 48 57 57 45 31
12 28 32 65 76 76 61 42
21 40 38 84 99 102 86 63
39 61 42 103 129 142 130 102
59 81 45 122 159 181 174 141
77 102 48 142 190 221 218 180
96 122 51 161 220 260 262 219
114 146 48 170 241 294 306 260
132 173 32 151 245 316 348 303
149 199 16 134 251 339 390 346
167 227 0 115 255 360 432 390
184 254 -16 98 260 383 474 433
188 257 -33 66 236 366 467 433
162 210 -55 7 157 271 361 347
138 162 -75 -54 77 176 256 262
112 116 -96 -113 -3 80 149 176
87 69 -116 -173 -81 -15 44 90
65 34 -131 -213 -138 -83 -33 26
51 25 -130 -214 -149 -100 -52 7
37 16 -129 -215 -160 -116 -70 -12
23 7 -128 -216 -172 -134 -89 -31
10 -3 -127 -217 -182 -150 -107 -51
0 -10 -120 -208 -182 -155 -116 -63
0 -10 -104 -178 -156 -134 -103 -58
0 -10 -89 -148 -132 -113 -89 -52
0 -10 -72 -117 -106 -93 -75 -47
0 -10 -56 -87 -80 -71 -61 -41
1 -9 -43 -64 -61 -55 -51 -37
-2 -10 -36 -55 -53 -49 -47 -35
-4 -11 -30 -46 -46 -43 -41 -33
-6 -12 -23 -36 -37 -36 -37 -31
-8 -13 -17 -27 -30 -30 -32 -29
-10 -14 -12 -20 -24 -25 -29 -27
-10 -14 -12 -19 -24 -25 -29 -27
-10 -14 -12 -19 -24 -24 -29 -27
-10 -14 -11 -18 -23 -24 -28 -27
-10 -14 -11 -17 -23 -23 -28 -27
-10 -15 -10 -16 -22 -22 -27 -27
-10 -15 -10 -16 -22 -22 -27 -27
-10 -15 -10 -16 -21 -22 -27 -27
-10 -15 -9 -16 -21 -22 -27 -27
-10 -15 -9 -16 -20 -22 -27 -27
-11 -15 -8 -15 -19 -21 -28 -28
-11 -15 -8 -14 -18 -21 -28 -28
-11 -15 -8 -13 -18 -20 -27 -28
-11 -15 -8 -12 -17 -20 -27 -28
-11 -15 -8 -11 -16 -19 -26 -28
-11 -15 -7 -10 -15 -18 -25 -27
-11 -15 -7 -10 -15 -18 -25 -27
-11 -15 -7 -10 -15 -18 -25 -27
-11 -15 -7 -10 -15 -18 -25 -27
-11 -15 -7 -10 -15 -18 -25 -27
-11 -15 -7 -10 -16 -18 -25 -27
-11 -15 -7 -10 -16 -18 -25 -27
-11 -15 -7 -9 -16 -18 -25 -27
-11 -15 -7 -9 -16 -18 -25 -27
-11 -15 -7 -8 -16 -18 -25 -27
-11 -15 -6 -7 -15 -17 -25 -27
-11 -15 -6 -7 -15 -17 -25 -27
-11 -15 -6 -7 -15 -17 -25 -27
-11 -15 -6 -7 -16 -18 -26 -27
-11 -15 -6 -7 -16 -18 -26 -27
-10 -14 -7 -7 -17 -19 -27 -28
-10 -14 -7 -7 -16 -19 -27 -28
-10 -14 -7 -6 -16 -18 -27 -28
-10 -14 -7 -6 -15 -18 -27 -28
-10 -14 -7 -5 -14 -17 -27 -28
-10 -15 -6 -4 -13 -16 -26 -27
-10 -15 -6 -4 -13 -16 -26 -27
-10 -15 -6 -4 -13 -16 -26 -27
-10 -14 -6 -4 -13 -16 -26 -27
-10 -14 -6 -4 -13 -16 -26 -27
-10 -13 -6 -3 -14 -17 -25 -27
-10 -13 -6 -3 -14 -17 -25 -27
-10 -13 -5 -3 -14 -17 -25 -27
-10 -14 -5 -2 -13 -16 -25 -27
-10 -14 -4 -2 -13 -16 -25 -27
-9 -15 -3 0 -12 -15 -24 -27
-9 -15 -3 0 -12 -15 -24 -27
-9 -15 -3 1 -12 -15 -24 -27
-9 -15 -3 1 -12 -15 -25 -28
-9 -15 -3 2 -12 -15 -25 -28
-9 -14 -2 3 -12 -15 -26 -29
-9 -14 -2 3 -12 -15 -26 -29
-9 -14 -2 3 -11 -15 -26 -29
-9 -14 0 4 -11 -14 -26 -29
-9 -14 0 4 -10 -14 -26 -29
-8 -13 1 5 -9 -13 -26 -29
-8 -13 1 6 -9 -13 -26 -29
-8 -13 1 6 -9 -13 -26 -29
-8 -13 1 7 -8 -14 -27 -30
-8 -13 1 8 -8 -14 -27 -30
-8 -13 2 9 -7 -15 -28 -31
-8 -13 2 9 -7 -15 -28 -31
-8 -13 2 10 -7 -15 -28 -31
-8 -13 2 10 -7 -14 -27 -31
-8 -13 2 11 -7 -14 -27 -31
-7 -13 2 12 -6 -13 -26 -31
-7 -13 2 13 -6 -13 -26 -31
-7 -13 3 13 -6 -13 -26 -31
-6 -13 3 14 -5 -13 -26 -31
-6 -13 4 15 -5 -13 -26 -31
-5 -12 5 16 -4 -14 -26 -31
-5 -12 5 16 -4 -14 -26 -31
-5 -12 5 16 -3 -14 -26 -31
-5 -13 5 17 -3 -14 -26 -32
-5 -13 5 17 -2 -14 -26 -32
-4 -14 6 18 0 -14 -27 -33
-4 -14 7 19 0 -14 -27 -33
-4 -14 7 20 0 -14 -27 -33
-4 -13 8 21 1 -14 -27 -33
-4 -13 9 22 1 -14 -27 -33
-4 -12 10 23 2 -14 -28 -33
-4 -12 10 23 2 -14 -28 -34
-4 -12 11 24 3 -14 -29 -34
-3 -12 11 24 3 -14 -29 -35
-3 -12 12 25 4 -14 -30 -36
-2 -12 13 26 5 -13 -31 -37
-2 -12 13 27 5 -13 -32 -38
-2 -12 13 27 5 -13 -33 -38
-2 -12 14 28 5 -14 -34 -39
-2 -12 14 29 5 -14 -35 -40
-3 -12 15 30 5 -15 -36 -41
-3 -12 15 30 5 -15 -37 -43
-3 -12 15 31 5 -16 -37 -43
-2 -12 15 31 5 -16 -38 -44
-2 -12 15 32 5 -17 -39 -45
0 -12 16 33 4 -18 -40 -46
0 -12 16 33 4 -19 -41 -46
0 -13 17 33 3 -21 -44 -47
-2 -13 17 33 3 -22 -46 -48
-2 -14 18 33 2 -23 -47 -49
-3 -15 19 33 1 -25 -49 -50
-3 -15 19 33 0 -27 -51 -52
-3 -15 19 33 -2 -29 -53 -55
-3 -15 19 32 -3 -32 -56 -57
-3 -15 19 32 -5 -34 -58 -60
-3 -14 19 31 -6 -36 -60 -62
-3 -14 19 31 -7 -37 -61 -63
-3 -14 19 31 -8 -38 -62 -64
-4 -15 19 30 -9 -39 -63 -65
-4 -15 19 30 -11 -41 -65 -66
-5 -16 19 29 -12 -43 -66 -67
-5 -16 19 29 -12 -44 -67 -67
-5 -16 19 28 -13 -46 -69 -68
-5 -16 19 28 -13 -47 -71 -69
-5 -16 19 27 -14 -48 -72 -70
-6 -17 19 26 -15 -50 -74 -71
-6 -17 19 25 -16 -51 -74 -71
-6 -17 19 24 -17 -52 -75 -72
-6 -17 19 23 -18 -53 -76 -73
-6 -17 19 21 -20 -54 -77 -74
-6 -17 18 20 -21 -55 -78 -75
-6 -17 18 19 -21 -55 -78 -74
-6 -17 17 18 -21 -55 -78 -73
-6 -16 16 17 -21 -55 -77 -72
-6 -16 15 15 -21 -55 -77 -70
-7 -15 14 14 -21 -54 -76 -69
-7 -15 13 13 -21 -53 -74 -67
-7 -15 11 11 -21 -52 -71 -65
-7 -15 9 10 -21 -51 -69 -64
-7 -15 8 9 -21 -49 -66 -62
-6 -14 6 7 -22 -48 -64 -60
-6 -14 5 6 -21 -46 -61 -57
-6 -14 4 5 -20 -43 -57 -53
-6 -13 3 4 -19 -40 -54 -50
-6 -13 2 3 -18 -37 -51 -47
-6 -12 1 2 -17 -35 -48 -44
-6 -11 1 2 -17 -33 -44 -40
-6 -10 1 2 -16 -30 -40 -37
-5 -9 0 2 -16 -28 -37 -34
-5 -7 0 2 -15 -25 -33 -31
-4 -6 -2 1 -14 -23 -30 -28
-4 -5 -2 1 -14 -22 -28 -26
-4 -4 -3 0 -13 -20 -25 -24
-4 -3 -3 -2 -12 -18 -23 -21
-4 -2 -4 -3 -11 -17 -20 -19
-3 0 -5 -4 -10 -15 -18 -17
-3 0 -5 -4 -10 -14 -17 -16
-3 1 -5 -4 -10 -13 -15 -14
-2 1 -6 -4 -9 -12 -13 -12
-2 2 -6 -4 -9 -11 -12 -11
0 3 -7 -4 -8 -10 -10 -9
0 3 -7 -4 -8 -10 -9 -8
0 3 -7 -4 -7 -9 -8 -7
-2 3 -7 -5 -7 -8 -7 -6
-2 3 -7 -5 -6 -7 -6 -4
-3 3 -8 -6 -5 -6 -5 -3
-3 3 -8 -6 -5 -6 -5 -3
-3 3 -8 -6 -5 -6 -5 -3
-3 3 -8 -6 -5 -6 -5 -3
-3 3 -8 -6 -5 -6 -5 -3
-2 3 -9 -6 -6 -5 -4 -2
-2 3 -9 -6 -6 -5 -4 -2
-2 3 -9 -6 -6 -5 -4 -2
-2 3 -9 -6 -6 -5 -4 -2
-2 3 -9 -6 -6 -5 -4 -2
-3 2 -8 -7 -5 -5 -4 -2
-3 2 -8 -7 -5 -5 -4 -2
-3 2 -8 -7 -5 -5 -4 -2
-3 2 -8 -7 -5 -5 -4 -2
-3 2 -8 -7 -5 -5 -4 -2
-3 3 -8 -6 -6 -4 -3 -2
-3 3 -8 -6 -6 -4 -3 -2
-3 3 -8 -6 -6 -4 -3 -2
-3 3 -7 -6 -6 -4 -3 0
-3 3 -7 -6 -6 -4 -3 0
-3 4 -6 -7 -6 -5 -2 1
-3 4 -6 -7 -6 -5 -2 1
-3 4 -6 -7 -6 -5 -2 1
-3 4 -6 -7 -6 -5 -2 0
-3 4 -6 -7 -6 -5 -2 0
-3 3 -5 -6 -6 -6 -3 -2
-3 3 -5 -6 -6 -6 -3 -2
-3 3 -5 -6 -5 -5 -3 0
-3 3 -5 -5 -4 -5 -3 0
-3 3 -5 -5 -3 -4 -3 1
-2 4 -4 -4 -2 -3 -2 2
-2 4 -4 -4 -2 -3 -2 2
-2 4 -4 -4 -2 -3 -2 2
-2 4 -4 -4 -2 -3 0 2
-2 4 -4 -4 -2 -3 0 2
-2 4 -4 -4 -3 -3 1 2
-2 4 -4 -4 -3 -3 1 2
-2 4 -4 -3 -3 -2 1 2
-2 4 -4 -3 -2 -2 2 2
-2 4 -4 -2 -2 0 2 2
-3 3 -4 0 0 1 3 3
-3 3 -4 0 0 1 3 3
-3 3 -4 0 0 2 3 3
-3 4 -4 1 1 2 3 3
-3 4 -4 1 1 3 3 3
-3 5 -3 2 2 4 3 4
-3 5 -3 2 2 4 3 4
-3 5 -3 2 2 4 3 4
-3 5 -3 2 3 5 3 4
-3 5 -3 2 3 5 3 4
-2 6 -3 3 4 6 4 5
-2 6 -3 3 4 6 4 5
-2 6 -2 3 4 6 5 5
