I II V1 V2 V3 V4 V5 V6
8 17 -3 4 10 11 5 9
8 16 -3 3 8 11 4 9
8 15 -4 2 5 10 2 8
7 14 -4 0 2 9 1 8
7 13 -5 -2 -2 8 -2 7
7 12 -5 -3 -4 7 -3 7
6 9 -6 -6 -5 4 -4 5
5 7 -6 -8 -6 2 -5 4
4 5 -6 -10 -7 0 -6 3
3 3 -6 -12 -8 -3 -7 2
2 1 -6 -14 -9 -5 -7 1
0 0 -6 -15 -10 -6 -8 0
-3 0 -6 -15 -11 -7 -9 -2
-5 -2 -6 -16 -11 -7 -10 -3
-7 -2 -6 -16 -12 -8 -11 -4
-9 -2 -6 -16 -12 -8 -12 -5
-10 -3 -5 -17 -13 -9 -13 -6
-11 -4 -5 -18 -14 -10 -14 -7
-11 -4 -5 -19 -15 -11 -15 -8
-12 -5 -5 -20 -16 -12 -16 -9
-12 -5 -5 -20 -17 -12 -16 -9
-13 -6 -5 -21 -18 -14 -17 -10
-13 -7 -5 -21 -19 -15 -18 -11
-13 -8 -5 -22 -20 -16 -19 -11
-13 -9 -5 -22 -21 -17 -20 -12
-13 -9 -5 -22 -21 -18 -20 -12
-13 -10 -6 -23 -22 -19 -21 -13
-13 -10 -6 -24 -22 -19 -21 -13
-14 -10 -7 -24 -22 -19 -21 -13
-14 -10 -7 -25 -22 -19 -21 -13
-14 -10 -7 -25 -22 -19 -21 -13
-15 -10 -8 -26 -23 -19 -22 -13
-15 -10 -8 -26 -23 -19 -22 -13
-15 -9 -7 -25 -23 -20 -22 -14
-15 -9 -7 -25 -23 -20 -22 -14
-15 -9 -7 -25 -23 -20 -22 -14
-15 -8 -6 -24 -24 -21 -23 -15
-14 -8 -6 -24 -23 -20 -23 -15
-13 -8 -5 -23 -23 -19 -22 -14
-12 -8 -5 -23 -22 -18 -22 -14
-11 -8 -5 -23 -22 -18 -22 -14
-11 -8 -4 -22 -21 -17 -21 -13
-13 -8 -4 -22 -21 -17 -21 -13
-14 -8 -4 -22 -21 -18 -22 -14
-16 -8 -4 -22 -21 -18 -22 -14
-17 -8 -4 -22 -21 -18 -22 -14
-18 -9 -5 -22 -22 -19 -23 -15
-17 -9 -5 -22 -22 -19 -23 -15
-16 -9 -5 -22 -22 -19 -22 -14
-15 -9 -5 -22 -22 -19 -22 -14
-15 -9 -5 -22 -22 -19 -22 -14
-14 -8 -5 -22 -21 -20 -21 -13
-14 -8 -5 -22 -21 -20 -21 -13
-13 -8 -5 -22 -22 -20 -22 -13
-13 -8 -5 -22 -22 -20 -22 -13
-13 -8 -5 -22 -22 -20 -22 -13
-12 -8 -6 -23 -23 -20 -23 -14
-12 -8 -5 -23 -23 -20 -22 -14
-13 -8 -5 -23 -22 -20 -22 -14
-13 -8 -4 -23 -22 -20 -21 -14
-13 -8 -4 -23 -22 -20 -21 -14
-14 -9 2 -15 -19 -18 -20 -13
-14 -8 7 -6 -16 -16 -19 -13
-14 -7 12 3 -13 -14 -19 -14
-14 -6 17 12 -10 -12 -18 -14
-14 -6 22 20 -7 -10 -18 -14
-6 -3 28 50 20 11 -2 -5
4 1 35 81 48 32 15 7
12 4 42 112 74 54 32 17
21 7 48 143 102 75 49 28
29 10 54 175 130 96 66 39
44 18 54 188 157 123 92 60
58 27 52 201 185 150 118 80
72 35 50 215 214 178 144 102
87 45 48 227 241 204 171 122
101 53 46 240 269 232 197 143
91 51 28 184 227 199 176 139
78 46 10 121 181 162 150 131
66 42 -8 60 134 125 123 123
53 37 -26 -2 87 87 98 115
40 33 -44 -64 39 50 72 108
22 31 -50 -110 -11 13 43 84
3 30 -56 -156 -63 -24 12 57
-17 28 -61 -202 -114 -61 -18 31
-35 27 -66 -248 -165 -98 -49 6
-55 26 -71 -294 -217 -135 -78 -21
-54 16 -72 -279 -212 -137 -82 -28
-51 7 -72 -259 -200 -135 -85 -34
-47 -4 -72 -238 -189 -133 -87 -39
-43 -14 -72 -219 -179 -131 -89 -46
-39 -24 -72 -198 -168 -129 -91 -52
-35 -24 -66 -176 -150 -115 -85 -49
-30 -23 -59 -153 -133 -102 -75 -45
-26 -21 -51 -131 -114 -89 -66 -39
-22 -20 -44 -107 -96 -75 -58 -34
-18 -19 -35 -85 -78 -62 -49 -30
-16 -16 -29 -72 -68 -55 -44 -27
-14 -14 -24 -60 -58 -48 -38 -24
-12 -11 -18 -48 -48 -39 -32 -21
-10 -9 -13 -35 -38 -32 -27 -19
-8 -7 -7 -23 -28 -25 -22 -16
-7 -6 -6 -21 -27 -24 -21 -15
-7 -7 -6 -19 -26 -24 -21 -15
-7 -8 -5 -17 -25 -23 -20 -15
-7 -9 -5 -15 -24 -23 -20 -15
-7 -10 -5 -13 -24 -23 -20 -15
-8 -10 -4 -12 -23 -22 -19 -14
-7 -9 -4 -11 -22 -21 -18 -14
-7 -8 -3 -10 -21 -20 -18 -13
-6 -7 -3 -9 -20 -19 -17 -13
-6 -6 -3 -9 -19 -19 -17 -13
-5 -5 -2 -8 -18 -18 -16 -12
-5 -5 -2 -7 -18 -18 -16 -12
-4 -6 -2 -7 -18 -18 -16 -11
-4 -6 -2 -6 -18 -18 -16 -11
-4 -6 -2 -6 -18 -18 -16 -11
-3 -7 -2 -5 -18 -17 -16 -10
-3 -7 -2 -5 -18 -17 -16 -10
-4 -6 -2 -4 -17 -16 -15 -10
-4 -6 -2 -4 -17 -16 -15 -10
-4 -6 -2 -4 -17 -16 -15 -10
-5 -5 -2 -3 -16 -15 -14 -10
-5 -5 -2 -3 -15 -15 -14 -10
-4 -6 -2 -3 -15 -15 -14 -10
-4 -6 -2 -3 -14 -15 -14 -10
-4 -6 -2 -3 -14 -15 -14 -10
-3 -7 -2 -3 -13 -14 -14 -11
-2 -6 0 -2 -13 -14 -14 -11
-2 -6 0 0 -13 -14 -14 -11
0 -5 1 1 -13 -14 -14 -11
0 -5 1 2 -13 -14 -14 -11
1 -4 2 3 -12 -14 -13 -10
1 -4 2 3 -12 -14 -13 -10
1 -4 1 3 -12 -14 -13 -9
1 -4 1 3 -12 -14 -13 -9
1 -4 1 3 -12 -14 -13 -9
2 -5 0 5 -11 -13 -12 -8
2 -4 0 6 -10 -12 -11 -8
2 -4 0 7 -10 -11 -11 -8
2 -3 0 8 -9 -10 -10 -8
2 -3 0 9 -9 -10 -10 -8
2 -2 1 10 -8 -9 -9 -7
3 -2 1 11 -7 -9 -9 -7
4 -2 1 12 -6 -9 -9 -7
5 -2 1 13 -5 -9 -9 -7
5 -2 1 13 -4 -9 -9 -7
6 0 2 14 -3 -8 -8 -6
6 0 2 15 -2 -7 -7 -6
6 0 2 16 0 -6 -6 -5
6 0 2 17 1 -5 -5 -5
6 0 2 18 1 -5 -5 -5
7 1 2 20 2 -4 -4 -4
8 2 2 22 3 -3 -3 -3
9 2 3 23 4 -2 -2 -2
10 3 3 25 5 0 0 0
10 3 3 26 5 0 1 0
11 4 4 28 7 2 3 1
11 4 4 29 8 3 4 2
12 4 5 31 10 5 6 3
12 4 5 33 12 7 8 4
12 4 5 34 13 8 9 5
13 5 6 36 14 9 10 6
13 5 6 37 15 9 10 6
14 5 5 38 16 9 10 6
14 5 5 39 17 9 10 6
14 5 5 40 17 9 10 6
15 7 4 44 20 11 12 7
16 8 4 47 22 12 14 9
17 10 4 50 24 14 16 11
18 11 4 52 27 15 18 13
19 12 4 55 29 16 20 15
21 13 5 58 31 18 21 16
22 13 5 61 33 19 22 16
23 12 5 64 35 21 23 17
24 12 5 66 37 22 24 17
25 12 5 69 39 23 25 17
27 12 6 72 43 26 27 19
28 13 7 74 45 28 29 21
30 14 7 77 47 30 31 23
32 15 8 80 50 33 33 24
33 16 8 82 52 35 35 26
36 18 9 85 54 37 37 28
38 19 9 87 56 39 38 29
40 20 8 89 58 42 40 30
44 22 8 90 59 43 43 31
46 23 8 92 61 45 44 32
47 24 7 93 62 46 45 33
47 24 6 94 63 46 45 33
47 24 6 94 63 47 46 33
47 24 5 95 64 47 46 33
47 24 5 95 64 47 46 33
47 23 4 96 66 48 48 34
48 24 4 97 68 49 49 35
49 25 4 98 70 50 50 36
50 26 4 99 71 51 51 38
51 26 4 100 73 52 52 39
53 27 3 101 74 54 53 42
54 28 3 100 74 55 54 43
55 29 2 100 74 56 55 44
57 30 2 99 74 57 56 46
58 31 2 99 74 58 57 47
59 32 1 97 72 58 58 48
59 32 0 95 71 57 58 47
59 31 -2 93 70 56 58 46
59 31 -3 91 68 55 58 45
59 31 -4 89 67 54 58 45
58 30 -5 86 64 52 57 44
57 29 -5 81 62 51 55 43
56 29 -5 78 59 50 53 42
54 28 -5 74 57 48 52 40
53 28 -5 71 54 47 50 39
51 27 -4 67 50 44 48 37
49 26 -5 62 47 42 45 35
47 25 -6 57 43 38 43 33
45 24 -7 53 38 36 39 31
43 24 -7 48 34 33 37 29
40 23 -8 44 31 31 35 27
37 21 -8 39 28 28 32 25
35 20 -8 35 24 26 30 23
32 19 -8 30 21 23 28 21
30 18 -8 26 18 21 26 19
29 17 -8 23 15 19 24 17
29 16 -8 21 13 16 21 16
28 15 -8 18 10 14 19 15
28 14 -8 16 8 11 17 13
28 14 -8 13 5 9 15 12
27 13 -8 10 2 7 13 10
25 12 -9 6 -2 4 10 7
24 11 -10 2 -5 2 8 5
23 10 -11 -2 -8 0 6 2
22 10 -12 -6 -11 -3 4 0
21 9 -13 -8 -12 -4 3 -2
21 9 -13 -9 -14 -6 2 -3
20 9 -13 -10 -15 -7 1 -3
20 9 -13 -12 -16 -8 0 -4
20 9 -13 -13 -17 -9 -2 -4
19 7 -12 -14 -18 -10 -3 -5
19 6 -12 -16 -20 -11 -4 -6
18 4 -11 -17 -21 -12 -5 -7
18 2 -11 -18 -22 -13 -6 -8
18 1 -11 -19 -23 -14 -7 -9
17 0 -10 -20 -24 -15 -8 -10
16 0 -10 -20 -24 -16 -8 -10
15 0 -10 -21 -25 -16 -8 -10
14 0 -10 -21 -25 -17 -8 -10
14 0 -10 -21 -25 -17 -8 -10
13 1 -11 -22 -26 -18 -9 -11
13 1 -11 -22 -26 -18 -9 -11
13 0 -12 -23 -27 -18 -9 -11
13 0 -12 -23 -27 -18 -9 -11
13 0 -12 -23 -27 -18 -9 -11
12 -2 -13 -24 -28 -18 -9 -12
12 -2 -13 -24 -28 -18 -9 -12
13 0 -13 -25 -29 -18 -9 -12
13 0 -13 -25 -29 -18 -9 -12
13 0 -13 -25 -29 -18 -9 -12
14 1 -13 -26 -30 -19 -10 -12
13 1 -13 -26 -30 -19 -10 -12
12 1 -12 -26 -30 -19 -10 -12
11 1 -12 -26 -30 -19 -10 -12
10 1 -12 -26 -30 -19 -10 -12
9 1 -11 -25 -30 -19 -11 -12
9 1 -11 -25 -30 -19 -11 -12
9 0 -11 -26 -30 -19 -11 -12
9 0 -11 -26 -30 -19 -11 -12
9 0 -11 -26 -30 -19 -11 -12
9 -2 -11 -27 -30 -19 -12 -12
10 -2 -11 -26 -30 -19 -12 -12
10 -2 -11 -26 -30 -19 -12 -12
11 -2 -11 -25 -30 -19 -12 -12
11 -2 -11 -25 -30 -19 -12 -12
12 0 -10 -24 -29 -19 -11 -12
11 0 -10 -24 -30 -20 -11 -12
11 -2 -11 -24 -30 -20 -11 -13
10 -2 -11 -24 -31 -21 -11 -13
10 -2 -11 -24 -31 -21 -11 -13
9 -3 -12 -24 -32 -22 -12 -14
8 -3 -11 -24 -31 -21 -12 -14
8 -2 -10 -23 -31 -20 -11 -14
7 -2 -9 -23 -30 -19 -11 -14
7 -2 -9 -23 -30 -19 -11 -14
6 0 -8 -22 -29 -18 -10 -14
6 0 -7 -21 -29 -18 -9 -12
6 0 -7 -21 -28 -17 -9 -11
6 0 -6 -20 -28 -17 -8 -10
6 0 -6 -20 -28 -17 -8 -9
5 0 -5 -19 -27 -16 -7 -8
5 0 -5 -19 -27 -16 -7 -8
6 0 -6 -19 -27 -16 -8 -9
6 0 -6 -19 -27 -16 -8 -9
6 0 -6 -19 -27 -16 -8 -9
7 -2 -7 -19 -27 -16 -9 -10
7 0 -7 -19 -27 -16 -9 -10
7 0 -7 -19 -26 -16 -8 -9
7 1 -7 -19 -26 -16 -8 -9
7 1 -7 -19 -26 -16 -8 -9
8 2 -8 -18 -25 -17 -7 -8
8 2 -8 -18 -25 -17 -7 -9
9 2 -8 -18 -25 -17 -7 -9
9 2 -8 -18 -25 -17 -7 -10
9 2 -8 -18 -25 -17 -7 -10
10 1 -9 -17 -24 -16 -8 -11
10 1 -9 -16 -24 -15 -6 -9
9 1 -8 -16 -23 -14 -5 -8
9 1 -8 -15 -23 -13 -4 -7
9 1 -8 -15 -23 -12 -3 -6
8 2 -7 -14 -22 -11 -2 -5
8 1 -7 -14 -22 -11 -3 -6
9 1 -7 -14 -22 -12 -3 -7
9 0 -7 -14 -22 -12 -4 -8
9 0 -7 -14 -22 -12 -4 -8
10 -2 -6 -14 -21 -13 -5 -9
10 -2 -6 -15 -21 -13 -5 -9
10 -2 -7 -15 -21 -13 -5 -9
10 -2 -7 -16 -21 -13 -5 -9
10 -2 -7 -16 -21 -13 -5 -9
10 -3 -8 -17 -21 -14 -5 -9
8 -2 -8 -17 -21 -14 -5 -9
7 -2 -7 -16 -21 -13 -4 -8
6 0 -7 -16 -21 -13 -4 -8
5 0 -7 -16 -21 -13 -4 -8
4 1 -6 -15 -21 -12 -3 -7
4 1 -6 -15 -21 -12 -3 -7
4 0 -6 -15 -21 -12 -3 -7
4 0 -6 -15 -21 -12 -3 -7
4 0 -6 -15 -21 -12 -3 -7
4 -2 -6 -16 -21 -12 -3 -6
4 -2 -6 -16 -21 -12 -3 -6
5 -3 -6 -16 -21 -12 -4 -6
5 -3 -6 -16 -21 -12 -4 -6
5 -3 -6 -16 -21 -12 -4 -6
5 -4 -6 -17 -21 -13 -5 -7
3 -5 -6 -17 -21 -13 -5 -7
2 -5 -6 -17 -21 -13 -5 -8
0 -6 -6 -17 -21 -13 -5 -8
-3 -6 -6 -17 -21 -13 -5 -8
-3 -6 -6 -18 -22 -14 -4 -9
-2 -4 -6 -18 -22 -14 -4 -8
1 -3 -6 -18 -22 -14 -4 -8
2 0 -6 -18 -22 -14 -4 -7
4 2 -6 -18 -22 -14 -4 -7
5 3 -6 -19 -22 -13 -3 -6
4 1 -6 -19 -22 -13 -3 -6
3 0 -6 -19 -22 -13 -3 -6
2 -2 -6 -19 -22 -13 -3 -6
1 -3 -6 -19 -22 -13 -3 -6
0 -4 -5 -18 -22 -14 -4 -6
1 -4 -5 -19 -23 -14 -5 -7
2 -4 -6 -19 -23 -15 -5 -7
3 -4 -6 -20 -24 -15 -6 -8
4 -4 -6 -20 -24 -15 -6 -8
5 -4 -7 -21 -25 -16 -7 -9
5 -4 -7 -21 -24 -16 -7 -9
4 -4 -7 -20 -24 -15 -7 -8
4 -4 -7 -20 -23 -15 -7 -8
4 -4 -7 -20 -23 -15 -7 -8
3 -4 -6 -19 -22 -14 -7 -7
3 -3 -6 -19 -22 -12 -5 -6
4 -2 -5 -18 -21 -11 -4 -5
4 1 -5 -18 -21 -10 -3 -5
4 2 -5 -18 -21 -9 -2 -4
5 3 -4 -17 -19 -8 0 -3
5 5 -3 -16 -18 -8 0 -3
5 6 -2 -15 -16 -8 1 -2
5 7 0 -14 -15 -8 1 -2
5 8 1 -13 -13 -8 1 -2
4 9 2 -12 -12 -7 2 0
4 9 2 -12 -13 -7 2 0
4 10 1 -13 -14 -6 2 0
4 10 1 -13 -14 -6 2 0
4 10 1 -13 -15 -6 2 0
6 11 0 -14 -15 -5 1 1
8 13 0 -12 -13 -4 2 1
10 14 -2 -11 -12 -3 3 1
12 15 -2 -10 -10 -2 4 1
14 16 -2 -9 -8 0 5 1
16 17 -3 -8 -7 1 7 2
18 18 -3 -7 -5 3 8 5
19 19 -3 -6 -4 4 10 7
21 19 -3 -5 -3 6 11 9
23 20 -3 -4 -2 7 13 12
23 20 -4 -3 0 8 14 13
21 18 -4 -3 0 8 14 12
19 16 -5 -3 0 7 13 11
17 14 -5 -3 0 7 13 11
15 12 -5 -3 0 7 13 10
14 11 -6 -4 -2 6 12 9
15 11 -6 -5 -3 4 11 8
15 10 -6 -6 -3 3 10 7
16 10 -6 -6 -4 2 9 7
16 10 -6 -7 -4 1 8 6
16 9 -6 -9 -6 -2 6 5
14 8 -6 -11 -9 -4 5 4
13 7 -7 -13 -11 -6 3 3
11 6 -7 -16 -13 -8 2 3
9 5 -7 -18 -16 -10 0 2
8 3 -8 -19 -17 -11 -2 1
7 2 -8 -20 -18 -12 -3 -2
6 0 -7 -20 -19 -12 -4 -3
5 -2 -7 -21 -19 -13 -5 -4
4 -4 -7 -21 -20 -13 -6 -5
2 -5 -6 -22 -21 -14 -7 -6
0 -6 -6 -23 -22 -15 -9 -7
-2 -7 -6 -24 -22 -16 -10 -8
-4 -8 -6 -24 -23 -16 -11 -9
-6 -9 -6 -25 -23 -17 -12 -10
-7 -10 -5 -26 -24 -18 -13 -11
-6 -10 -5 -26 -24 -18 -13 -11
-6 -10 -6 -27 -25 -18 -14 -12
-5 -10 -6 -27 -25 -18 -14 -12
-5 -10 -6 -27 -25 -18 -14 -12
-4 -10 -7 -28 -26 -19 -15 -13
-4 -10 -7 -28 -26 -19 -15 -13
-5 -10 -7 -27 -26 -19 -15 -13
-5 -10 -7 -27 -26 -19 -15 -13
-5 -10 -7 -27 -26 -19 -15 -13
-6 -11 -6 -26 -25 -20 -16 -12
-6 -10 -6 -26 -25 -20 -16 -12
-5 -9 -6 -26 -24 -20 -15 -12
-5 -8 -6 -26 -24 -20 -15 -12
-5 -7 -6 -26 -24 -20 -15 -12
-4 -6 -5 -26 -23 -19 -14 -12
-5 -7 -5 -26 -23 -19 -14 -13
-6 -9 -5 -26 -23 -20 -15 -15
-6 -10 -5 -26 -23 -20 -15 -16
-7 -11 -5 -26 -23 -20 -15 -17
-8 -12 -4 -25 -24 -21 -16 -18
-9 -12 -4 -25 -24 -20 -16 -17
-10 -12 -4 -25 -24 -19 -16 -16
-10 -12 -4 -25 -24 -19 -16 -15
-11 -12 -4 -25 -24 -18 -16 -14
-12 -12 -3 -24 -23 -17 -17 -13
-11 -12 -3 -24 -23 -17 -16 -13
-9 -11 -3 -24 -23 -17 -15 -13
-8 -10 -3 -24 -23 -17 -15 -13
-7 -10 -3 -24 -23 -17 -14 -13
-6 -9 -4 -25 -23 -17 -13 -12
-6 -9 -4 -25 -23 -17 -13 -12
-6 -9 -4 -24 -23 -16 -14 -13
-6 -9 -4 -23 -23 -16 -15 -14
-6 -9 -4 -23 -23 -16 -15 -14
-7 -8 -3 -22 -22 -15 -16 -15
-7 -8 -3 -22 -22 -16 -16 -15
-8 -9 -3 -23 -23 -17 -16 -15
-8 -10 -3 -23 -23 -17 -16 -15
-8 -10 -3 -23 -23 -18 -16 -15
-9 -11 1 -18 -21 -17 -16 -14
-9 -11 7 -7 -15 -14 -15 -14
-9 -10 13 4 -9 -11 -13 -14
-9 -10 19 14 -3 -7 -12 -14
-9 -10 24 25 4 -4 -11 -14
-4 -7 30 50 24 13 2 -8
4 -4 37 81 53 35 20 5
11 0 44 113 80 59 38 17
19 4 50 146 109 81 57 28
26 7 56 178 137 104 75 40
36 14 59 196 165 132 101 60
50 24 57 206 194 162 131 85
62 33 56 217 222 192 160 108
75 43 54 227 251 223 190 133
88 52 53 237 278 254 220 156
85 53 43 201 259 239 213 155
69 47 28 137 209 198 183 139
55 40 14 73 159 156 152 122
40 34 -2 9 109 115 122 106
26 28 -16 -55 60 74 92 90
10 22 -24 -104 9 33 60 69
-7 17 -28 -145 -44 -8 26 45
-24 12 -33 -185 -95 -48 -8 21
-40 7 -37 -225 -147 -89 -41 -3
-57 2 -41 -266 -198 -130 -75 -27
-62 -4 -46 -270 -213 -145 -89 -38
-57 -10 -49 -252 -201 -143 -91 -43
-52 -16 -52 -233 -191 -141 -92 -47
-48 -22 -56 -215 -180 -140 -94 -51
-43 -27 -59 -196 -170 -138 -95 -55
-39 -30 -58 -178 -154 -129 -91 -55
-37 -30 -53 -157 -138 -114 -81 -50
-35 -29 -47 -138 -121 -100 -71 -45
-33 -29 -41 -118 -105 -86 -62 -39
-31 -29 -36 -99 -89 -71 -53 -34
-29 -27 -30 -83 -75 -61 -46 -30
-26 -23 -24 -70 -64 -53 -40 -27
-23 -20 -18 -57 -54 -45 -35 -23
-20 -17 -13 -44 -43 -36 -30 -19
-17 -14 -7 -30 -32 -29 -25 -16
-15 -12 -4 -24 -26 -25 -22 -14
-15 -12 -2 -20 -24 -24 -22 -14
-15 -12 0 -17 -22 -22 -21 -14
-15 -12 2 -14 -20 -21 -20 -14
-15 -12 3 -11 -18 -20 -20 -14
-16 -13 4 -9 -17 -19 -19 -15
-16 -13 4 -9 -17 -18 -18 -14
-16 -12 4 -8 -16 -16 -17 -13
-16 -12 4 -7 -15 -15 -17 -13
-16 -12 4 -7 -15 -14 -16 -12
-17 -11 5 -6 -14 -13 -15 -11
-17 -11 5 -5 -13 -13 -15 -11
-16 -11 5 -4 -12 -13 -15 -11
-15 -11 5 -4 -12 -13 -15 -11
-15 -11 5 -3 -11 -13 -15 -11
-14 -11 5 -2 -10 -14 -15 -11
-14 -11 5 -2 -10 -14 -15 -10
-14 -11 6 0 -9 -13 -14 -9
-14 -11 6 1 -9 -13 -14 -9
-14 -11 6 1 -9 -13 -14 -8
-15 -12 7 2 -8 -12 -13 -7
-15 -12 7 2 -7 -12 -13 -7
-15 -12 7 2 -6 -12 -13 -7
-15 -12 7 2 -5 -12 -13 -7
-15 -12 7 2 -4 -12 -13 -7
-15 -13 8 3 -3 -11 -12 -7
-15 -13 8 4 -2 -10 -12 -7
-15 -12 8 6 1 -9 -12 -7
-15 -12 8 7 2 -9 -12 -7
-15 -12 8 8 3 -8 -12 -7
-16 -11 9 9 4 -7 -11 -7
-16 -11 9 9 4 -7 -11 -7
-16 -11 8 9 4 -6 -11 -7
-16 -11 8 9 4 -6 -11 -7
-16 -11 8 9 4 -6 -11 -7
-15 -10 7 10 3 -5 -11 -7
-15 -9 8 11 5 -5 -10 -7
-15 -7 9 12 6 -4 -9 -6
-15 -6 9 13 8 -4 -8 -5
-15 -5 10 14 9 -4 -7 -5
-14 -4 11 15 10 -3 -6 -4
-14 -5 11 16 10 -3 -6 -4
-14 -6 10 17 10 -2 -6 -4
-14 -7 10 17 10 -2 -6 -4
-14 -8 10 18 10 -2 -6 -4
-13 -9 9 19 11 0 -6 -4
-13 -9 9 20 12 1 -6 -4
-13 -8 10 21 13 2 -5 -3
-13 -8 11 22 14 3 -4 -2
-13 -8 11 23 15 4 -4 -2
-13 -7 12 25 16 5 -3 0
-14 -7 12 27 18 6 -2 2
-15 -8 13 29 20 7 1 3
-16 -8 14 31 21 7 2 4
-17 -8 14 33 23 8 3 6
-18 -9 15 34 24 10 4 7
-16 -7 15 35 26 11 5 7
-15 -6 15 37 27 13 6 7
-14 -5 15 38 28 15 6 7
-12 -3 15 39 30 17 7 7
-11 -2 16 42 31 18 9 7
-11 -2 16 45 33 19 10 9
-11 -2 16 47 35 21 12 11
-11 -2 16 50 36 22 14 13
-11 -2 16 52 38 23 16 15
-9 -2 17 54 39 24 17 16
-8 0 17 56 40 24 17 16
-6 1 17 58 42 25 17 17
-4 1 17 59 43 26 17 17
-2 2 17 61 44 26 17 17
0 3 17 64 47 28 19 19
0 3 17 68 51 31 22 21
0 4 18 72 55 34 26 24
0 5 18 76 59 37 29 26
0 5 18 80 63 40 32 28
0 6 19 84 66 44 34 30
2 7 19 86 68 46 36 31
4 8 20 89 71 48 38 32
6 8 20 91 73 50 39 33
8 9 20 93 75 53 42 34
9 10 21 95 77 54 43 35
10 10 21 96 78 55 44 35
11 11 20 98 80 57 45 36
12 11 20 99 81 58 45 37
13 11 20 100 82 59 46 37
14 12 19 101 85 61 48 38
16 14 18 103 87 63 50 40
18 15 17 104 89 65 52 43
19 16 17 105 91 67 54 44
21 18 16 107 93 69 56 46
22 19 15 108 95 71 57 47
22 19 15 109 95 71 58 48
22 18 14 110 96 72 59 50
22 18 14 110 97 72 60 51
22 18 14 111 97 72 61 52
23 17 13 112 98 73 62 53
23 17 13 112 98 73 62 53
24 18 13 111 98 73 62 53
24 19 13 110 98 73 62 53
24 19 13 110 98 73 62 53
25 20 13 108 97 73 63 54
25 20 12 106 95 73 63 54
26 20 11 103 93 73 63 54
26 20 11 100 91 73 63 54
26 20 10 98 89 73 63 54
27 20 9 94 87 71 62 55
25 20 9 91 84 69 60 54
23 20 9 87 80 66 57 52
21 20 9 82 77 63 55 51
19 20 9 78 74 61 53 50
18 20 10 74 70 58 50 48
16 18 10 70 66 55 47 44
14 16 10 65 62 52 44 40
12 14 10 61 58 50 40 37
10 12 10 57 54 47 37 33
8 11 9 52 51 44 34 30
6 9 9 48 48 40 32 28
3 8 9 44 44 37 29 26
1 7 9 39 40 35 27 24
-2 5 9 35 37 32 25 22
-4 4 9 32 34 29 22 21
-4 4 9 29 30 27 20 19
-5 3 9 26 27 24 17 17
-5 2 9 23 24 22 15 15
-5 2 9 20 20 20 13 13
-6 1 8 17 17 18 11 12
-7 1 8 15 15 16 9 10
-8 0 8 12 13 15 8 9
-8 -2 8 10 11 14 7 8
-9 -2 8 8 9 12 5 6
-10 -3 7 5 7 10 4 5
-11 -4 7 3 5 8 2 3
-12 -6 6 1 2 6 0 1
-13 -7 5 -2 0 4 -2 0
-14 -8 5 -4 -3 2 -4 -3
-15 -9 4 -5 -5 0 -5 -4
-15 -9 4 -5 -5 0 -5 -4
-16 -9 4 -6 -5 0 -6 -4
-16 -9 4 -6 -5 0 -6 -4
-16 -9 4 -6 -5 0 -6 -4
-17 -9 5 -7 -6 -2 -7 -4
-17 -9 5 -8 -7 -2 -7 -4
-17 -9 5 -8 -7 -2 -7 -5
-17 -9 5 -9 -8 -3 -8 -6
-17 -9 5 -10 -9 -3 -8 -6
-17 -8 4 -11 -10 -4 -9 -7
-17 -8 4 -11 -10 -4 -9 -7
-17 -8 4 -11 -10 -4 -9 -7
-17 -8 4 -11 -10 -5 -9 -7
-17 -8 4 -11 -10 -5 -9 -7
-16 -8 3 -11 -11 -6 -10 -7
-16 -8 3 -11 -11 -7 -10 -7
-17 -9 3 -11 -12 -7 -10 -7
-18 -10 3 -12 -13 -8 -11 -8
-18 -10 3 -12 -13 -9 -11 -8
-19 -11 4 -13 -14 -10 -12 -9
-19 -11 4 -13 -14 -10 -12 -9
-19 -11 4 -13 -14 -10 -12 -9
-19 -11 4 -13 -15 -10 -12 -9
-19 -11 4 -13 -15 -10 -12 -9
-18 -12 4 -14 -16 -11 -13 -10
-18 -12 4 -14 -16 -11 -13 -10
-18 -11 4 -14 -16 -11 -13 -10
-19 -10 4 -14 -16 -11 -13 -10
-19 -10 4 -14 -16 -11 -13 -10
-20 -9 5 -14 -17 -10 -12 -10
-20 -9 5 -14 -17 -10 -12 -10
-20 -9 5 -14 -17 -10 -12 -10
-20 -10 5 -14 -17 -11 -12 -10
-20 -10 5 -14 -17 -11 -12 -10
-19 -11 5 -14 -17 -12 -13 -9
-19 -11 5 -14 -17 -12 -13 -9
-19 -11 5 -14 -17 -12 -13 -9
-19 -11 6 -13 -17 -12 -13 -9
-19 -11 6 -13 -17 -12 -13 -9
-19 -11 7 -12 -18 -13 -13 -10
-19 -11 7 -12 -18 -13 -13 -10
-19 -11 7 -12 -18 -13 -13 -10
-19 -11 7 -12 -18 -13 -13 -10
-19 -11 7 -12 -18 -13 -13 -10
-19 -10 6 -13 -19 -12 -13 -10
-19 -10 6 -13 -19 -12 -13 -10
-19 -10 6 -13 -19 -12 -13 -10
-19 -10 6 -12 -19 -12 -13 -10
-19 -10 6 -12 -19 -12 -13 -10
-20 -10 7 -11 -18 -11 -12 -9
-19 -10 7 -11 -18 -11 -12 -9
-18 -10 7 -11 -18 -11 -12 -9
-17 -10 7 -11 -18 -11 -12 -9
-16 -10 7 -11 -18 -11 -12 -9
-15 -10 7 -11 -17 -11 -11 -9
-15 -10 7 -10 -17 -11 -11 -9
-15 -10 7 -10 -17 -11 -11 -9
-16 -9 7 -9 -17 -11 -11 -9
-16 -9 7 -8 -17 -11 -11 -9
-17 -8 7 -7 -17 -10 -10 -8
-17 -8 7 -7 -17 -10 -10 -8
-17 -8 7 -7 -17 -10 -10 -8
-17 -8 7 -7 -17 -10 -10 -8
-17 -8 7 -7 -17 -10 -10 -8
-17 -9 7 -8 -16 -10 -10 -9
-17 -9 7 -8 -15 -9 -9 -8
-17 -9 7 -8 -15 -8 -8 -7
-16 -9 8 -8 -14 -6 -6 -5
-16 -9 8 -8 -13 -5 -5 -4
-15 -8 9 -7 -12 -4 -4 -3
-15 -8 9 -7 -13 -5 -5 -4
-15 -8 9 -7 -13 -5 -5 -5
-15 -8 8 -7 -14 -6 -6 -6
-15 -8 8 -7 -15 -7 -7 -7
-14 -8 7 -7 -16 -8 -8 -8
-14 -8 7 -7 -16 -8 -8 -8
-14 -8 7 -7 -16 -8 -8 -7
-13 -8 7 -7 -16 -7 -8 -6
-13 -8 7 -7 -16 -7 -8 -6
-12 -7 7 -8 -15 -6 -7 -5
-12 -7 7 -8 -15 -6 -7 -5
-12 -7 7 -8 -15 -6 -7 -5
-12 -7 7 -8 -15 -7 -7 -6
-12 -7 7 -8 -15 -7 -7 -6
-13 -8 6 -9 -16 -8 -7 -7
-13 -8 6 -9 -17 -8 -7 -7
-13 -8 6 -9 -17 -8 -7 -7
-13 -8 6 -9 -18 -8 -7 -7
-13 -8 6 -9 -19 -8 -7 -7
-14 -7 5 -10 -20 -8 -7 -6
-14 -7 5 -10 -20 -8 -7 -6
-14 -7 5 -10 -20 -8 -7 -6
-13 -7 5 -10 -20 -8 -7 -6
-13 -7 5 -10 -20 -8 -7 -6
-12 -8 5 -11 -20 -9 -8 -7
-12 -8 5 -11 -20 -9 -8 -7
-12 -8 5 -11 -20 -9 -8 -7
-11 -8 5 -11 -20 -9 -8 -7
-11 -8 5 -11 -20 -9 -8 -7
-10 -7 5 -12 -21 -9 -8 -8
-10 -7 5 -12 -21 -9 -8 -8
-10 -7 5 -12 -21 -9 -8 -8
-10 -7 4 -12 -22 -10 -8 -8
-10 -7 4 -12 -22 -10 -8 -8
-11 -8 3 -13 -23 -11 -9 -9
-11 -8 3 -13 -23 -11 -9 -9
-11 -8 3 -13 -23 -11 -9 -9
-11 -7 2 -14 -24 -11 -9 -9
-11 -7 2 -14 -24 -11 -9 -9
-12 -6 1 -15 -25 -11 -8 -8
-12 -6 1 -15 -25 -11 -8 -8
-12 -6 2 -15 -25 -11 -8 -8
-12 -6 3 -15 -25 -11 -8 -8
-12 -6 3 -15 -25 -11 -8 -8
-11 -7 4 -15 -24 -11 -8 -8
-11 -7 4 -15 -24 -11 -8 -8
-11 -7 4 -15 -24 -11 -8 -8
-10 -7 4 -15 -25 -11 -9 -8
-10 -7 4 -15 -25 -11 -9 -8
-9 -7 3 -16 -26 -12 -10 -9
-9 -6 3 -15 -26 -11 -9 -8
-9 -6 4 -15 -25 -11 -8 -8
-9 -5 5 -14 -24 -10 -7 -7
-9 -4 5 -13 -24 -9 -6 -6
-9 -3 6 -12 -23 -8 -5 -5
-9 0 6 -11 -23 -7 -4 -5
-8 2 7 -10 -23 -6 -4 -4
-7 4 8 -9 -23 -4 -3 -3
-7 6 8 -8 -23 -3 -2 -3
-6 8 9 -7 -22 -2 0 -2
-6 8 9 -7 -22 -2 0 -2
-5 8 9 -7 -22 -2 0 -2
-4 9 9 -7 -22 -2 0 0
-4 9 9 -7 -22 -2 0 0
-3 10 8 -7 -21 0 1 1
-3 10 8 -7 -21 1 1 1
-3 10 8 -7 -21 2 1 1
-2 10 8 -7 -21 3 1 1
-2 10 8 -7 -21 4 1 1
0 11 7 -7 -20 5 2 1
2 11 7 -6 -19 6 4 3
4 12 7 -4 -18 6 5 5
6 13 6 -3 -16 7 7 7
7 13 6 0 -15 8 9 8
9 14 5 1 -14 9 10 10
9 14 5 1 -14 9 10 10
9 14 4 1 -14 9 10 10
9 13 3 2 -14 10 11 10
9 13 3 2 -14 10 11 10
8 12 2 3 -13 11 12 11
8 11 2 2 -15 10 11 11
8 11 1 1 -17 9 11 10
8 10 0 -2 -19 8 10 9
8 9 0 -3 -20 7 9 9
8 8 -2 -4 -22 6 8 8
7 8 -2 -5 -23 5 7 8
7 7 -2 -6 -24 4 7 7
6 6 -3 -8 -25 2 6 6
5 6 -3 -9 -26 1 5 6
4 5 -4 -10 -27 0 4 5
3 2 -4 -13 -29 -3 1 2
2 0 -4 -15 -31 -5 -2 -2
0 -3 -4 -17 -33 -7 -5 -4
-2 -5 -4 -19 -34 -8 -7 -7
-3 -7 -3 -21 -36 -10 -9 -9
-4 -7 -3 -21 -36 -10 -9 -9
-6 -7 -3 -21 -37 -10 -9 -8
-7 -7 -2 -21 -38 -10 -10 -7
-9 -7 -2 -21 -38 -10 -10 -7
-10 -6 0 -22 -39 -11 -11 -6
-10 -7 0 -23 -39 -12 -12 -8
-9 -7 0 -23 -40 -13 -13 -9
-8 -8 -2 -24 -41 -14 -14 -11
-8 -9 -2 -25 -41 -15 -15 -12
-7 -10 -3 -26 -43 -16 -16 -14
-8 -10 -3 -26 -41 -16 -16 -14
-9 -10 -3 -26 -39 -16 -16 -14
-10 -10 -3 -26 -38 -16 -16 -13
-11 -10 -3 -26 -36 -16 -16 -13
-12 -11 -4 -25 -35 -17 -15 -12
-12 -11 -4 -25 -35 -17 -15 -12
-11 -11 -4 -25 -34 -18 -15 -12
-10 -11 -4 -25 -33 -19 -16 -13
-10 -11 -4 -25 -33 -19 -16 -13
-9 -12 -4 -25 -32 -20 -17 -14
-9 -12 -4 -25 -31 -20 -17 -14
-9 -12 -4 -25 -31 -20 -17 -14
-9 -12 -4 -25 -30 -19 -17 -14
-9 -12 -4 -25 -29 -19 -17 -14
-10 -11 -4 -24 -28 -18 -17 -15
-10 -11 -3 -24 -27 -18 -17 -15
-10 -11 -3 -24 -27 -18 -17 -15
-10 -10 -2 -24 -26 -17 -17 -14
-10 -10 0 -24 -25 -17 -17 -14
-9 -9 1 -23 -24 -16 -16 -13
-9 -9 1 -23 -24 -16 -16 -13
-9 -9 1 -23 -24 -16 -16 -13
-9 -9 1 -22 -24 -16 -16 -12
-9 -9 1 -22 -24 -16 -16 -12
-8 -8 0 -21 -23 -15 -15 -11
-8 -9 0 -21 -23 -15 -15 -12
-8 -10 -2 -21 -24 -15 -16 -12
-8 -11 -3 -21 -25 -15 -17 -13
-8 -12 -3 -21 -25 -15 -17 -14
-9 -13 -4 -21 -26 -16 -18 -15
-8 -12 -4 -21 -26 -16 -18 -14
-8 -11 -4 -21 -25 -16 -17 -14
-7 -9 -4 -21 -24 -15 -16 -13
-6 -8 -4 -21 -24 -15 -16 -12
-5 -7 -3 -20 -23 -14 -15 -11
-5 -7 1 -14 -20 -13 -15 -12
-5 -7 5 -8 -18 -13 -15 -13
-6 -7 8 -2 -16 -12 -16 -14
-6 -7 12 5 -13 -11 -16 -15
-6 -7 17 18 -4 -4 -13 -13
-3 -5 25 46 20 16 3 -4
1 -3 32 73 45 34 18 6
4 -2 40 101 68 54 32 15
7 1 48 128 92 73 48 24
14 6 55 155 119 97 66 37
28 15 58 181 154 129 94 58
43 25 61 206 189 161 121 78
56 34 65 232 224 193 149 98
70 45 68 258 259 225 177 118
80 52 65 258 273 243 195 133
78 52 45 202 242 230 189 133
77 52 24 147 213 216 184 133
75 52 4 92 182 202 179 134
74 52 -17 35 152 189 173 134
66 52 -33 -20 110 160 154 127
44 46 -41 -74 45 101 108 98
22 39 -50 -130 -21 42 63 70
1 33 -58 -184 -87 -19 17 42
-22 27 -66 -239 -153 -78 -29 13
-37 20 -72 -273 -197 -119 -62 -9
-36 10 -73 -260 -192 -121 -69 -18
-36 -2 -74 -246 -187 -123 -75 -27
-35 -12 -75 -233 -182 -124 -81 -36
-34 -22 -77 -220 -177 -127 -88 -45
-33 -30 -76 -204 -165 -126 -91 -51
-31 -28 -69 -182 -142 -112 -81 -47
-29 -25 -61 -159 -117 -99 -73 -43
-27 -23 -53 -137 -94 -86 -65 -38
-25 -21 -46 -114 -70 -72 -56 -34
-23 -19 -38 -94 -50 -61 -49 -30
-20 -18 -31 -79 -37 -53 -43 -27
-18 -16 -25 -65 -26 -44 -36 -24
-16 -15 -19 -51 -14 -35 -30 -20
-13 -13 -13 -36 -3 -26 -25 -17
-11 -12 -8 -25 7 -20 -20 -14
-10 -11 -6 -22 11 -18 -19 -13
-9 -10 -4 -19 14 -16 -17 -12
-8 -9 -2 -15 17 -14 -16 -11
-7 -7 1 -12 20 -12 -14 -9
-6 -6 3 -9 23 -10 -13 -8
-6 -7 3 -9 23 -10 -13 -8
-7 -7 3 -8 24 -10 -13 -8
-7 -8 3 -8 24 -10 -13 -9
-8 -9 3 -7 25 -10 -13 -9
-9 -10 3 -6 26 -10 -13 -10
-8 -10 3 -6 26 -10 -13 -10
-8 -9 3 -5 27 -10 -13 -10
-7 -9 3 -5 27 -9 -12 -10
-6 -8 3 -4 28 -9 -12 -10
-5 -7 2 -3 29 -8 -11 -9
-5 -7 2 -2 30 -8 -11 -9
-5 -7 3 -2 30 -8 -11 -9
-4 -6 3 0 31 -7 -11 -9
-4 -6 4 1 32 -7 -11 -9
-3 -5 5 2 33 -6 -10 -9
-3 -5 5 2 33 -6 -10 -9
-3 -5 5 2 34 -6 -10 -9
-4 -6 5 2 34 -6 -10 -8
-4 -6 5 2 35 -6 -10 -8
-5 -7 4 1 36 -5 -9 -7
-5 -7 4 3 36 -5 -9 -7
-5 -6 4 4 37 -5 -9 -7
-5 -6 5 6 37 -4 -9 -7
-5 -5 5 7 38 -4 -9 -7
-4 -4 6 9 39 -3 -8 -6
-4 -4 6 9 39 -3 -8 -6
-4 -5 6 9 39 -3 -8 -6
-4 -5 6 9 39 -3 -8 -6
-4 -6 6 9 39 -3 -8 -6
-3 -7 5 8 39 -2 -8 -6
-3 -7 5 9 40 -2 -8 -6
-3 -6 5 10 42 0 -8 -5
-2 -6 5 11 43 0 -7 -5
-2 -5 5 13 45 1 -7 -4
0 -4 6 14 46 2 -6 -3
0 -4 6 14 46 2 -6 -3
-2 -4 6 14 46 2 -6 -3
-2 -4 6 15 47 3 -5 -3
-3 -4 6 15 47 3 -5 -3
-4 -3 6 16 48 4 -4 -2
-2 -3 7 18 50 5 -3 0
1 -2 7 20 52 6 -2 0
2 -2 8 23 53 7 0 1
4 0 9 25 55 9 1 2
6 1 10 27 57 10 2 3
5 1 10 28 58 10 3 4
5 1 10 30 59 10 4 4
4 1 10 31 60 11 5 5
3 1 10 32 61 11 6 6
2 0 9 34 62 12 7 7
2 0 9 35 63 13 7 7
2 1 9 35 63 13 7 7
2 1 9 36 64 14 7 7
2 2 9 37 65 15 7 7
2 3 10 38 66 16 8 7
3 4 10 42 68 18 10 8
4 4 11 45 70 20 12 10
5 5 11 48 73 22 13 11
6 6 12 50 75 24 15 12
7 7 13 53 77 26 17 14
8 7 13 56 79 27 18 14
8 7 13 58 81 28 19 14
9 8 13 60 82 29 20 14
10 8 13 63 85 30 21 14
11 9 14 65 87 31 22 14
11 9 14 68 90 34 24 16
11 9 15 71 93 36 26 19
11 9 15 74 96 39 28 21
11 9 16 77 98 43 30 24
12 10 17 80 101 45 32 26
14 11 17 84 103 47 33 27
16 12 17 86 106 49 35 28
17 13 18 89 108 50 37 29
19 14 18 92 111 52 38 30
21 15 19 94 113 54 40 31
21 16 19 97 116 56 43 33
21 18 19 99 118 58 45 35
22 19 18 102 121 59 47 36
22 20 18 105 125 61 49 38
23 22 17 107 127 63 51 40
24 22 17 108 128 64 52 40
25 22 17 109 130 66 54 42
26 22 17 110 132 67 55 42
28 22 17 111 133 68 56 43
29 22 16 112 135 70 58 44
31 23 16 113 136 71 59 46
34 25 16 114 138 72 60 48
36 26 15 115 139 73 61 49
39 27 15 116 140 75 63 51
42 29 14 117 142 76 64 53
42 29 14 117 142 76 64 53
42 29 14 117 142 76 65 53
42 28 13 117 142 77 66 54
42 28 13 117 142 77 67 54
40 27 12 117 143 78 68 55
40 27 12 114 142 77 68 55
40 27 11 112 140 76 68 55
39 27 10 109 138 75 67 55
39 27 9 107 137 74 67 55
38 26 8 104 135 73 66 54
38 26 8 100 132 72 65 54
38 26 8 96 129 71 64 53
38 26 8 92 126 70 63 52
38 26 8 88 123 68 61 51
37 27 7 82 120 67 60 50
35 26 7 77 115 63 56 47
33 25 6 72 111 60 53 44
30 24 6 67 106 56 50 40
28 22 5 62 102 52 46 37
26 21 4 58 98 49 43 34
24 20 4 54 94 46 40 33
22 18 4 50 91 44 37 31
19 17 4 46 87 40 35 30
17 16 4 43 82 38 32 29
15 14 4 38 79 35 30 27
15 13 3 34 76 32 27 24
14 12 2 30 72 29 24 21
13 11 1 26 69 26 21 19
12 10 0 22 66 23 18 16
11 9 -2 18 63 20 15 13
10 9 -2 16 58 19 14 12
8 9 -2 14 53 17 13 11
7 8 -2 11 48 16 12 10
6 8 -2 9 43 15 11 9
4 7 -2 7 38 13 10 8
4 6 -2 5 33 12 9 7
3 4 -2 4 28 10 7 6
3 3 -2 2 24 8 5 5
2 2 -2 0 19 7 4 4
1 0 -3 -3 15 5 2 3
1 0 -3 -3 14 5 2 3
1 0 -3 -4 12 4 1 2
1 0 -3 -5 10 4 1 2
1 0 -3 -6 9 3 0 1
0 -2 -3 -7 7 2 -2 0
0 -2 -3 -7 7 2 -2 0
0 -2 -3 -8 6 1 -3 0
-2 -2 -3 -8 6 0 -3 0
-2 -2 -3 -9 5 -2 -4 0
-3 -3 -4 -10 4 -3 -5 -2
-3 -3 -4 -10 3 -3 -5 -2
-3 -3 -4 -11 2 -3 -5 -2
-3 -3 -4 -11 1 -3 -5 -3
-3 -3 -4 -12 0 -3 -5 -3
-3 -3 -5 -13 -2 -4 -6 -4
-3 -3 -5 -13 -2 -4 -6 -4
-3 -3 -5 -13 -3 -4 -6 -4
-4 -4 -6 -14 -3 -4 -6 -4
-4 -4 -6 -14 -4 -4 -6 -4
-5 -5 -7 -15 -5 -5 -6 -5
-5 -5 -7 -15 -5 -5 -6 -5
-4 -5 -7 -15 -6 -5 -6 -5
-4 -5 -7 -15 -6 -6 -7 -6
-3 -5 -7 -15 -7 -6 -7 -6
-2 -4 -7 -15 -8 -7 -8 -7
-2 -4 -7 -15 -8 -7 -8 -7
-2 -4 -7 -15 -8 -7 -8 -7
-2 -4 -6 -15 -8 -7 -8 -7
-2 -4 -6 -15 -8 -7 -8 -7
-3 -4 -5 -16 -7 -7 -7 -6
-3 -4 -5 -16 -7 -7 -7 -6
-3 -4 -5 -16 -7 -7 -7 -6
-3 -4 -5 -16 -7 -7 -7 -6
-3 -4 -5 -16 -7 -7 -7 -6
-3 -4 -5 -15 -8 -8 -8 -7
-3 -4 -5 -15 -8 -8 -8 -7
-4 -4 -5 -15 -8 -8 -8 -7
-4 -4 -5 -15 -8 -8 -8 -7
-5 -4 -5 -15 -8 -8 -8 -7
-6 -5 -4 -14 -7 -8 -7 -6
-6 -5 -4 -14 -7 -8 -7 -6
-6 -5 -4 -14 -7 -8 -7 -6
-6 -5 -4 -14 -8 -9 -8 -7
-6 -5 -4 -14 -8 -9 -8 -7
-5 -4 -4 -13 -9 -10 -9 -8
-5 -4 -4 -13 -9 -10 -9 -8
-5 -4 -4 -13 -9 -10 -9 -8
-6 -5 -4 -13 -9 -10 -9 -8
-6 -5 -4 -13 -9 -10 -9 -8
-7 -6 -3 -13 -8 -10 -9 -7
-7 -6 -3 -13 -8 -10 -9 -7
-7 -6 -3 -13 -8 -10 -9 -7
-7 -6 -3 -12 -8 -10 -8 -7
-7 -6 -3 -12 -8 -10 -8 -7
-7 -5 -3 -11 -8 -9 -7 -6
-7 -5 -3 -11 -8 -9 -7 -6
-6 -4 -3 -11 -8 -9 -7 -6
-6 -3 -3 -11 -8 -8 -7 -6
-5 -2 -3 -11 -8 -8 -7 -6
-4 0 -2 -10 -7 -7 -8 -6
-4 0 -2 -10 -7 -7 -8 -6
-5 -2 -2 -10 -7 -7 -8 -6
-5 -3 -2 -10 -7 -7 -8 -6
-6 -4 -2 -10 -7 -7 -8 -6
-7 -5 -2 -9 -6 -7 -8 -7
-6 -4 -2 -9 -6 -7 -8 -7
-5 -3 -2 -9 -6 -7 -8 -7
-4 -2 -2 -9 -6 -7 -8 -6
-3 0 -2 -9 -6 -7 -8 -6
0 1 -2 -9 -5 -6 -7 -5
-2 0 -2 -9 -5 -6 -7 -5
-3 -2 -2 -9 -5 -6 -7 -5
-4 -3 -2 -9 -5 -6 -7 -6
-5 -4 -2 -9 -5 -6 -7 -6
-7 -5 -2 -9 -6 -6 -8 -7
-7 -5 -2 -9 -6 -6 -8 -7
-7 -4 -2 -9 -6 -6 -7 -7
-7 -3 -2 -9 -5 -6 -6 -6
-7 -2 -2 -9 -5 -6 -5 -6
-7 0 0 -8 -4 -5 -4 -5
-7 0 0 -8 -4 -5 -4 -5
-7 -2 0 -8 -4 -6 -5 -5
-7 -2 -2 -8 -5 -6 -5 -6
-7 -3 -2 -8 -5 -7 -6 -6
-8 -4 -3 -9 -6 -8 -7 -7
-8 -4 -3 -9 -6 -8 -7 -7
-7 -3 -3 -10 -6 -8 -7 -7
-6 -2 -3 -10 -6 -8 -7 -7
-5 0 -3 -11 -6 -8 -7 -7
-4 1 -2 -12 -7 -8 -7 -6
-4 1 -2 -12 -7 -8 -7 -6
-4 1 -2 -12 -7 -8 -7 -6
-4 0 -2 -12 -7 -8 -7 -6
-4 0 -2 -12 -7 -8 -7 -6
-3 -2 -2 -11 -7 -8 -8 -6
-3 -2 -2 -11 -7 -8 -8 -6
-3 -2 -2 -11 -7 -8 -8 -6
-3 -2 -3 -12 -8 -9 -8 -6
-3 -2 -3 -12 -8 -9 -8 -6
-4 -3 -4 -13 -9 -10 -8 -6
-4 -3 -4 -13 -9 -10 -8 -6
-5 -3 -4 -13 -9 -10 -8 -6
-5 -3 -4 -13 -9 -11 -8 -7
-6 -3 -4 -13 -9 -11 -8 -7
-7 -4 -4 -14 -9 -12 -9 -8
-7 -4 -4 -14 -9 -12 -9 -8
-6 -5 -4 -14 -9 -12 -9 -8
-6 -5 -4 -14 -10 -12 -9 -8
-5 -6 -4 -14 -10 -12 -9 -8
-4 -7 -4 -15 -11 -12 -8 -8
-4 -6 -4 -15 -11 -12 -8 -8
-4 -5 -4 -15 -11 -12 -8 -8
-4 -4 -4 -15 -11 -12 -8 -8
-4 -3 -4 -15 -11 -12 -8 -8
-4 0 -5 -14 -11 -11 -9 -7
-4 0 -5 -14 -11 -11 -9 -7
-3 -2 -5 -15 -11 -12 -9 -7
-3 -2 -5 -15 -12 -12 -9 -8
-2 -3 -5 -16 -12 -13 -9 -8
0 -4 -5 -17 -13 -14 -9 -9
-2 -4 -5 -17 -13 -14 -9 -9
-3 -4 -5 -17 -13 -14 -9 -9
-4 -4 -4 -17 -13 -13 -9 -9
-5 -4 -4 -17 -13 -13 -9 -9
-7 -5 -3 -16 -12 -12 -9 -8
-7 -5 -3 -16 -12 -12 -9 -8
-7 -5 -3 -16 -12 -12 -9 -8
-7 -4 -3 -16 -12 -12 -9 -8
-7 -4 -3 -16 -12 -12 -9 -8
-6 -3 -4 -16 -13 -12 -10 -8
-6 -3 -4 -16 -13 -12 -10 -8
-6 -2 -4 -16 -12 -11 -10 -8
-6 -2 -3 -16 -11 -11 -10 -8
-6 0 -3 -16 -10 -10 -10 -8
-5 1 -2 -16 -9 -9 -9 -7
-4 2 -2 -16 -9 -9 -9 -7
-3 3 -2 -15 -9 -9 -8 -6
-2 4 -2 -14 -9 -8 -8 -6
0 5 -2 -13 -9 -8 -7 -5
1 7 0 -12 -8 -7 -6 -4
2 7 0 -12 -8 -7 -5 -4
3 8 0 -11 -7 -6 -4 -3
4 9 1 -10 -6 -6 -3 -2
5 10 1 -9 -5 -5 -2 0
6 11 2 -8 -4 -4 0 1
6 11 2 -8 -4 -4 0 1
6 11 2 -8 -4 -4 0 1
6 11 2 -8 -4 -4 0 1
6 11 2 -8 -4 -4 0 1
5 11 3 -7 -3 -4 0 1
6 12 3 -6 -2 -3 1 2
7 13 3 -5 1 0 3 3
8 15 2 -4 2 2 4 5
9 16 2 -3 4 4 6 6
11 18 1 0 6 6 8 8
12 18 1 0 6 6 8 8
14 17 0 0 6 6 8 8
15 17 -2 0 6 6 8 8
17 16 -3 0 6 6 8 8
19 15 -4 1 6 7 9 9
18 15 -4 1 6 7 9 9
17 15 -4 1 5 6 9 9
16 15 -4 0 5 6 9 9
15 15 -4 0 4 5 9 9
14 15 -4 -2 3 4 8 8
14 14 -4 -3 2 3 8 8
14 13 -5 -5 1 2 7 7
14 11 -6 -7 0 1 6 7
14 10 -7 -9 -2 0 5 6
13 8 -8 -11 -4 -3 4 5
12 7 -8 -11 -5 -3 3 4
10 6 -8 -12 -7 -4 1 2
9 5 -8 -12 -8 -5 -2 0
7 4 -8 -13 -10 -6 -4 -3
5 2 -7 -14 -12 -7 -6 -5
4 1 -7 -15 -12 -8 -6 -5
2 -2 -7 -16 -13 -9 -7 -6
0 -4 -7 -17 -13 -11 -8 -7
-3 -6 -7 -18 -14 -12 -9 -8
-5 -8 -6 -19 -15 -14 -10 -9
-5 -8 -6 -19 -16 -15 -11 -9
-5 -8 -6 -20 -17 -16 -12 -10
-5 -8 -6 -20 -18 -17 -13 -11
-5 -8 -6 -21 -19 -18 -14 -12
-4 -9 -7 -22 -21 -20 -15 -13
-4 -9 -7 -22 -21 -20 -15 -13
-4 -9 -7 -22 -21 -20 -15 -13
-5 -9 -7 -22 -21 -20 -15 -13
-5 -9 -7 -22 -21 -20 -15 -13
-6 -9 -6 -23 -20 -20 -15 -12
-6 -9 -6 -23 -20 -20 -15 -12
-6 -9 -6 -23 -20 -20 -15 -12
-6 -9 -6 -23 -20 -20 -15 -12
-6 -9 -6 -23 -20 -20 -15 -12
-5 -10 -6 -22 -19 -20 -16 -13
-5 -10 -6 -22 -19 -20 -16 -13
-5 -10 -6 -23 -20 -20 -16 -13
-5 -10 -6 -23 -20 -20 -16 -13
-5 -10 -6 -24 -21 -20 -16 -13
-5 -9 -6 -25 -22 -20 -17 -14
-5 -9 -6 -25 -22 -20 -17 -14
-5 -9 -6 -25 -22 -20 -17 -14
-6 -10 -6 -25 -22 -21 -17 -15
-6 -10 -6 -25 -22 -21 -17 -15
-7 -11 -5 -24 -22 -22 -17 -16
-7 -11 -5 -24 -22 -22 -17 -16
-6 -10 -5 -24 -22 -22 -17 -16
-6 -9 -5 -24 -21 -22 -17 -16
-5 -8 -5 -24 -21 -22 -17 -16
-4 -7 -6 -23 -20 -21 -17 -16
-4 -7 -6 -23 -20 -21 -17 -16
-4 -7 -6 -23 -20 -21 -17 -16
-5 -7 -6 -23 -20 -21 -17 -16
-5 -7 -6 -23 -20 -21 -17 -16
-6 -8 -6 -23 -20 -22 -18 -16
-6 -8 -6 -23 -20 -22 -18 -16
-6 -8 -6 -23 -20 -21 -17 -16
-6 -8 -6 -23 -19 -21 -17 -15
-6 -8 -6 -23 -19 -20 -16 -15
-6 -8 -6 -22 -18 -19 -15 -14
-6 -8 -4 -20 -18 -19 -15 -14
-6 -8 0 -18 -18 -19 -15 -15
-6 -8 2 -16 -17 -19 -16 -15
-6 -8 5 -14 -17 -19 -16 -16
-7 -7 8 -11 -16 -20 -17 -17
-6 -6 13 6 -4 -11 -11 -14
-4 -5 18 22 9 -2 -5 -10
-3 -4 23 38 21 9 3 -7
0 -3 28 55 33 18 9 -3
2 -2 34 72 47 28 16 2
13 5 46 113 85 58 39 17
25 11 57 153 121 88 64 33
36 17 68 194 159 117 88 49
49 23 79 234 197 148 111 65
61 29 92 275 235 178 136 81
68 34 70 241 235 184 148 95
75 39 49 209 234 190 160 108
82 45 26 175 234 197 173 121
90 50 5 141 233 203 185 135
97 55 -18 107 232 211 198 149
76 48 -29 43 162 153 154 122
56 40 -41 -22 93 96 110 96
34 33 -53 -87 23 38 66 69
14 27 -65 -150 -47 -18 22 44
-7 20 -76 -215 -116 -75 -22 17
-14 16 -80 -227 -136 -91 -36 4
-20 12 -85 -238 -154 -105 -51 -9
-27 9 -88 -249 -174 -120 -65 -22
-33 5 -92 -261 -192 -135 -79 -34
-39 2 -95 -272 -211 -149 -93 -47
-38 -4 -89 -244 -191 -138 -88 -47
-35 -9 -80 -216 -171 -126 -81 -46
-33 -14 -72 -187 -150 -113 -75 -44
-30 -19 -64 -157 -130 -101 -69 -43
-28 -24 -56 -129 -109 -89 -63 -41
-24 -22 -47 -108 -93 -76 -54 -35
-20 -19 -37 -89 -77 -64 -45 -30
-17 -15 -28 -69 -61 -52 -36 -24
-13 -12 -19 -50 -46 -39 -27 -19
-10 -9 -10 -30 -30 -28 -19 -14
-9 -8 -8 -26 -28 -27 -18 -13
-8 -8 -7 -23 -26 -26 -18 -13
-8 -7 -6 -20 -24 -25 -18 -13
-7 -7 -5 -17 -22 -24 -18 -13
-7 -7 -4 -14 -21 -24 -18 -13
-6 -6 -3 -12 -19 -23 -17 -13
-6 -6 -2 -11 -18 -22 -17 -13
-6 -6 0 -9 -17 -21 -17 -13
-6 -6 1 -8 -16 -20 -17 -13
-6 -6 2 -7 -15 -20 -17 -13
-6 -7 3 -6 -14 -19 -16 -14
-6 -7 3 -6 -14 -19 -16 -14
-6 -7 3 -6 -14 -19 -16 -14
-6 -7 3 -6 -14 -19 -16 -14
-6 -7 3 -6 -14 -19 -16 -14
-5 -8 3 -6 -14 -19 -16 -14
-6 -8 4 -4 -13 -18 -15 -14
-6 -8 4 -3 -13 -17 -15 -13
-7 -8 5 0 -12 -16 -14 -13
-7 -8 5 1 -12 -15 -14 -13
-8 -8 6 2 -11 -14 -13 -12
-7 -8 6 2 -11 -14 -13 -12
-7 -8 5 1 -11 -14 -13 -12
-6 -8 5 1 -11 -14 -13 -12
-6 -8 5 1 -11 -14 -13 -12
-5 -9 4 1 -10 -14 -13 -13
-5 -8 5 2 -9 -14 -13 -13
-5 -8 5 3 -9 -13 -13 -13
-5 -7 6 4 -8 -13 -13 -13
-5 -7 6 5 -8 -13 -13 -13
-4 -6 7 6 -7 -12 -12 -13
-4 -6 7 6 -7 -12 -12 -13
-4 -6 6 6 -6 -12 -12 -12
-4 -6 6 6 -6 -12 -12 -12
-4 -6 6 6 -6 -12 -12 -12
-5 -6 5 7 -5 -11 -11 -11
-5 -6 5 8 -5 -11 -11 -11
-4 -6 6 9 -4 -11 -11 -11
-4 -6 6 10 -4 -11 -11 -11
-4 -6 6 10 -4 -11 -11 -11
-3 -5 7 11 -3 -10 -11 -10
-3 -5 7 12 -2 -9 -10 -10
-3 -5 7 13 0 -8 -10 -9
-3 -5 7 14 1 -7 -9 -9
-3 -5 7 15 2 -7 -9 -9
-3 -4 8 17 3 -6 -8 -8
-3 -3 9 18 4 -6 -8 -8
-3 -3 9 20 5 -5 -7 -8
-3 -2 10 21 6 -5 -7 -8
-3 -2 10 22 6 -5 -7 -8
-2 0 11 23 7 -4 -6 -7
0 0 11 24 8 -3 -5 -6
1 0 11 25 9 -2 -5 -6
2 0 11 26 10 0 -4 -5
2 0 11 26 11 0 -4 -5
3 0 11 28 12 1 -3 -4
2 0 11 30 13 2 -2 -4
1 -2 11 32 14 2 0 -4
0 -2 11 34 15 3 1 -4
-2 -2 11 35 15 3 1 -4
-3 -3 11 37 17 4 2 -3
-2 -2 11 39 19 5 3 -3
-2 0 12 40 20 6 4 -2
0 1 12 43 22 7 5 -2
0 1 12 44 23 8 5 -2
1 2 13 47 25 10 7 1
2 2 14 50 27 12 8 2
3 3 15 53 29 13 9 4
4 3 16 56 31 15 10 5
5 3 17 58 33 16 11 6
6 5 18 60 35 18 13 8
7 7 18 62 37 20 15 9
7 9 17 64 39 21 16 11
8 11 17 66 42 23 18 12
8 12 17 67 44 24 19 13
10 13 16 71 47 26 21 14
12 12 17 74 50 28 23 15
14 12 18 78 53 30 25 16
16 11 19 82 55 32 27 17
18 11 20 86 58 34 28 18
19 11 21 88 60 36 30 20
19 12 21 90 62 38 32 22
19 13 21 92 64 40 34 23
19 14 21 94 66 43 36 25
19 15 21 96 68 44 37 26
21 16 20 98 70 46 38 27
23 17 20 100 72 47 39 28
25 18 20 102 74 48 40 29
27 19 20 104 76 49 42 30
29 19 20 105 77 50 43 31
30 20 19 107 79 52 45 33
30 20 18 108 80 54 47 34
30 21 18 109 82 55 49 36
30 21 17 110 84 57 51 37
30 21 17 111 85 58 52 38
30 22 16 112 86 59 53 39
31 22 15 112 86 59 53 39
31 22 15 112 87 60 54 40
32 22 14 112 87 60 54 40
32 22 14 112 87 60 54 40
33 21 13 111 88 61 55 42
34 22 12 110 87 61 55 42
35 23 11 108 87 61 55 42
36 24 10 107 86 61 55 42
37 24 10 106 86 61 55 42
38 25 9 103 84 61 56 43
38 24 9 99 80 60 55 43
37 24 8 96 78 60 55 43
37 23 8 93 76 59 54 43
37 23 8 90 74 59 54 43
35 22 7 85 70 55 51 40
34 22 6 78 66 52 48 37
33 22 5 73 62 49 45 35
32 22 4 67 59 45 43 33
31 22 4 62 55 42 39 31
28 20 3 58 51 38 36 28
25 18 3 54 47 35 33 26
22 16 3 49 43 32 30 23
20 14 3 45 38 30 28 20
17 13 3 40 34 27 25 18
15 11 2 36 30 24 22 16
14 9 2 31 27 22 20 14
13 7 2 27 24 19 18 12
12 5 2 22 20 16 15 11
11 3 2 18 17 14 13 9
10 2 1 15 14 12 11 7
9 2 1 13 12 10 9 6
9 2 1 10 9 8 7 4
8 2 1 7 6 7 5 3
8 2 1 5 4 5 3 2
5 2 1 2 2 3 1 1
3 1 1 0 -2 1 0 0
1 -2 0 -3 -4 -2 -3 -2
-3 -3 0 -6 -6 -4 -4 -3
-5 -4 0 -8 -8 -6 -5 -3
-6 -5 -2 -10 -10 -8 -7 -5
-5 -5 -3 -12 -12 -9 -8 -7
-5 -5 -4 -13 -13 -10 -9 -8
-4 -5 -5 -15 -15 -11 -10 -10
-4 -5 -5 -16 -16 -12 -11 -11
-3 -5 -6 -17 -17 -13 -12 -12
-3 -6 -6 -18 -18 -13 -13 -12
-3 -6 -6 -19 -19 -14 -13 -12
-3 -7 -6 -20 -20 -14 -14 -12
-3 -7 -6 -21 -20 -14 -14 -12
-4 -8 -6 -22 -21 -15 -15 -13
-5 -8 -6 -22 -21 -16 -15 -13
-5 -9 -6 -22 -21 -16 -15 -13
-6 -9 -6 -22 -21 -17 -15 -13
-6 -9 -6 -22 -21 -17 -15 -13
-7 -10 -6 -21 -20 -18 -15 -13
-7 -10 -6 -22 -21 -18 -15 -13
-7 -11 -6 -23 -22 -18 -16 -13
-7 -11 -6 -24 -23 -18 -16 -13
-7 -11 -6 -24 -23 -18 -16 -13
-7 -12 -7 -25 -24 -19 -17 -14
-7 -12 -7 -25 -24 -19 -17 -14
-7 -11 -7 -25 -24 -19 -17 -14
-7 -11 -7 -25 -24 -19 -17 -14
-7 -11 -7 -25 -24 -19 -17 -14
-8 -10 -7 -24 -24 -19 -17 -14
-8 -10 -7 -24 -24 -19 -17 -14
-7 -10 -7 -25 -24 -19 -17 -14
-7 -10 -7 -25 -24 -19 -17 -14
-7 -10 -7 -25 -24 -19 -17 -14
-6 -10 -7 -26 -24 -20 -17 -15
-6 -10 -7 -26 -24 -20 -17 -15
-7 -10 -7 -26 -24 -20 -18 -15
-7 -10 -7 -26 -24 -20 -18 -15
-7 -10 -7 -26 -24 -20 -18 -15
-8 -11 -8 -27 -25 -19 -19 -16
-8 -11 -8 -27 -25 -19 -19 -16
-8 -11 -7 -26 -25 -20 -19 -15
-8 -11 -7 -26 -25 -20 -19 -15
-8 -11 -7 -26 -25 -20 -19 -15
-9 -12 -6 -25 -24 -21 -18 -14
-9 -12 -6 -25 -24 -21 -18 -15
-9 -12 -6 -25 -24 -21 -19 -15
-9 -12 -6 -25 -24 -21 -19 -16
-9 -12 -6 -25 -24 -21 -19 -16
-10 -13 -6 -25 -25 -21 -20 -17
-10 -12 -6 -25 -25 -21 -20 -17
-10 -11 -6 -25 -25 -21 -19 -16
-10 -10 -6 -25 -25 -21 -19 -16
-10 -10 -6 -25 -25 -21 -19 -16
-9 -9 -5 -24 -24 -20 -18 -15
-9 -10 -5 -24 -24 -20 -18 -15
-9 -10 -5 -24 -24 -20 -18 -15
-9 -11 -5 -24 -24 -20 -18 -15
-9 -11 -5 -24 -24 -20 -18 -15
-9 -12 -5 -25 -25 -21 -19 -16
-9 -11 -5 -25 -25 -21 -19 -15
-9 -11 -5 -25 -25 -21 -18 -15
-9 -10 -5 -25 -25 -21 -18 -14
-9 -10 -5 -25 -25 -21 -18 -14
-9 -8 -5 -22 -22 -18 -16 -12
-9 -7 -5 -20 -20 -16 -14 -11
-10 -6 -5 -17 -17 -13 -12 -9
-10 -4 -5 -15 -15 -11 -10 -7
-10 -3 -5 -12 -12 -8 -8 -6
-8 1 -4 -4 -4 0 -2 0
-5 4 -3 5 6 8 6 5
0 6 -3 14 15 16 12 10
4 9 -2 22 24 23 19 15
8 12 -2 31 33 31 25 20
12 16 0 39 42 39 33 25
17 20 0 47 50 48 40 31
22 24 0 55 59 57 48 37
27 28 0 63 67 65 56 44
32 32 0 70 75 73 63 49
36 34 0 77 84 81 70 55
42 36 -3 85 92 89 78 61
47 39 -5 92 100 97 86 67
52 42 -7 98 108 104 93 73
57 44 -9 105 116 112 100 79
63 45 -13 113 126 120 108 86
70 46 -17 121 134 129 116 92
77 47 -21 130 143 137 123 98
85 48 -25 138 151 145 132 104
92 48 -29 146 160 153 140 110
104 49 -30 171 183 171 153 118
116 49 -30 198 209 190 169 128
129 49 -30 227 234 210 184 137
142 49 -30 256 260 229 198 145
154 49 -30 283 285 248 214 154
176 48 -26 336 334 284 240 171
199 50 -20 394 387 324 271 189
222 51 -14 452 441 363 301 207
245 52 -7 511 495 403 330 226
269 53 0 568 549 443 361 244
276 58 9 579 574 466 378 255
279 65 19 577 593 484 391 262
282 71 29 575 610 503 404 270
285 77 39 574 629 522 418 277
288 84 50 572 647 540 431 285
265 71 50 504 576 481 386 257
234 52 46 419 481 400 324 217
202 33 43 334 387 320 263 178
172 15 39 248 292 239 201 138
141 -5 35 164 196 159 140 98
113 -11 29 123 147 118 105 74
87 -13 23 95 109 87 77 54
60 -16 17 66 71 56 50 34
34 -18 10 37 33 25 22 14
8 -21 4 8 -5 -6 -6 -6
1 -21 2 -2 -15 -14 -14 -11
-3 -19 2 -6 -18 -17 -16 -13
-5 -16 1 -11 -21 -19 -19 -14
-8 -14 1 -15 -24 -22 -21 -15
-10 -12 1 -20 -27 -24 -24 -16
-12 -11 0 -24 -31 -27 -26 -18
-14 -12 0 -28 -35 -29 -29 -20
-16 -12 -2 -32 -39 -32 -31 -23
-18 -13 -2 -36 -44 -35 -34 -25
-20 -13 -2 -40 -48 -38 -36 -27
-21 -14 -3 -41 -49 -39 -37 -28
-22 -14 -3 -43 -50 -40 -38 -28
-22 -14 -3 -44 -51 -41 -38 -28
-23 -14 -3 -45 -52 -43 -39 -28
-23 -14 -3 -46 -53 -44 -39 -28
-24 -13 -4 -48 -55 -45 -40 -29
-25 -14 -4 -50 -56 -47 -41 -30
-26 -15 -5 -51 -58 -48 -41 -30
-27 -16 -5 -53 -60 -49 -43 -31
-27 -16 -5 -55 -61 -50 -43 -31
-28 -17 -6 -56 -62 -51 -44 -32
-28 -17 -6 -56 -63 -51 -44 -32
-28 -17 -6 -57 -63 -52 -45 -33
-28 -17 -6 -57 -64 -52 -45 -33
-28 -17 -6 -57 -64 -52 -45 -33
-29 -16 -7 -58 -65 -53 -46 -34
-29 -15 -7 -59 -65 -53 -46 -34
-29 -15 -7 -59 -65 -53 -46 -34
-29 -14 -7 -60 -65 -53 -46 -34
-29 -14 -7 -60 -65 -53 -46 -34
-28 -13 -7 -61 -66 -54 -47 -34
-28 -13 -7 -62 -67 -55 -48 -34
-28 -12 -8 -62 -68 -55 -49 -34
-28 -12 -8 -63 -69 -56 -50 -34
-28 -12 -8 -63 -69 -56 -50 -34
-28 -11 -9 -64 -70 -57 -51 -35
-29 -11 -9 -64 -70 -57 -51 -35
-30 -11 -8 -64 -70 -57 -51 -34
-31 -11 -8 -64 -70 -57 -51 -34
-32 -11 -8 -64 -70 -57 -51 -34
-33 -10 -7 -65 -70 -57 -50 -33
-32 -8 -6 -64 -70 -56 -50 -32
-31 -6 -5 -64 -70 -56 -49 -32
-30 -4 -4 -63 -70 -55 -49 -31
-30 -2 -4 -63 -70 -55 -49 -31
-29 0 -3 -62 -69 -54 -48 -30
-29 1 -3 -63 -69 -54 -48 -30
-29 2 -3 -64 -70 -55 -48 -30
-29 3 -3 -65 -70 -55 -48 -30
-29 3 -3 -66 -70 -55 -48 -30
-29 4 -4 -67 -72 -56 -48 -29
-30 3 -4 -69 -73 -57 -49 -29
-31 2 -4 -70 -74 -58 -50 -29
-33 2 -4 -71 -76 -59 -51 -29
-34 1 -4 -72 -77 -60 -52 -29
-35 1 -5 -73 -78 -61 -53 -30
-35 3 -5 -73 -78 -60 -52 -28
-35 6 -5 -73 -78 -59 -51 -27
-35 8 -5 -73 -78 -59 -51 -26
-35 10 -5 -73 -78 -58 -50 -25
-36 11 -5 -74 -78 -58 -49 -24
-36 11 -6 -76 -79 -59 -49 -24
-37 12 -6 -78 -81 -61 -50 -25
-37 12 -7 -80 -82 -62 -50 -25
-37 12 -7 -82 -85 -64 -50 -25
-38 13 -8 -85 -87 -65 -51 -26
-39 13 -8 -87 -89 -67 -52 -26
-39 13 -8 -90 -92 -68 -53 -27
-40 13 -8 -92 -94 -69 -53 -27
-40 13 -8 -94 -96 -70 -54 -27
-43 14 -7 -96 -99 -72 -56 -28
-45 14 -7 -99 -101 -74 -58 -29
-48 13 -7 -102 -104 -77 -59 -29
-50 13 -7 -104 -107 -79 -61 -30
-52 13 -7 -107 -110 -81 -63 -30
-53 12 -6 -109 -113 -85 -65 -32
-54 12 -6 -112 -116 -88 -68 -34
-55 11 -6 -115 -119 -91 -70 -36
-56 11 -6 -117 -122 -94 -72 -38
-57 11 -6 -120 -126 -98 -75 -40
-60 9 -6 -121 -128 -99 -77 -43
-63 7 -5 -122 -130 -101 -78 -44
-67 5 -4 -123 -131 -102 -80 -45
-70 2 -3 -123 -133 -103 -81 -47
-74 0 -2 -124 -135 -104 -83 -48
-75 -2 0 -126 -136 -105 -85 -49
-75 -2 0 -127 -137 -107 -86 -50
-74 -3 0 -127 -138 -108 -87 -50
-74 -3 0 -128 -139 -109 -88 -51
-74 -3 0 -128 -140 -110 -89 -51
-73 -4 -2 -129 -141 -111 -90 -52
-72 -4 -2 -127 -141 -111 -89 -52
-72 -4 -2 -126 -140 -111 -88 -52
-71 -4 -2 -124 -140 -111 -88 -52
-71 -4 -2 -123 -140 -111 -87 -52
-70 -4 -2 -121 -138 -110 -86 -52
-69 -5 -2 -118 -137 -109 -86 -52
-68 -6 0 -115 -135 -108 -86 -51
-67 -6 0 -113 -134 -107 -86 -51
-66 -7 0 -110 -132 -106 -86 -51
-64 -8 1 -107 -129 -104 -83 -50
-63 -9 1 -103 -124 -101 -81 -49
-61 -10 1 -99 -120 -98 -80 -48
-60 -10 1 -95 -116 -96 -78 -47
-58 -11 1 -91 -112 -93 -76 -46
-56 -12 2 -86 -108 -90 -74 -45
-53 -13 3 -81 -103 -87 -72 -44
-50 -14 3 -77 -99 -83 -70 -43
-48 -14 4 -72 -95 -80 -68 -43
-45 -15 4 -68 -91 -77 -66 -41
-41 -16 5 -64 -87 -74 -64 -40
-38 -16 4 -60 -82 -71 -62 -39
-35 -16 4 -57 -78 -68 -60 -38
-32 -16 3 -53 -74 -65 -57 -37
-28 -16 3 -50 -71 -61 -55 -36
-27 -16 2 -47 -67 -59 -53 -35
-27 -16 2 -45 -64 -56 -51 -34
-27 -16 2 -43 -61 -53 -50 -33
-27 -16 2 -40 -58 -50 -48 -33
-27 -16 2 -38 -54 -47 -46 -32
-27 -15 1 -37 -52 -45 -44 -31
-25 -15 1 -36 -49 -43 -41 -30
-23 -15 0 -35 -47 -40 -40 -29
-21 -15 0 -34 -45 -37 -38 -28
-19 -15 0 -33 -41 -35 -36 -27
-18 -16 -2 -32 -40 -34 -35 -26
-17 -15 -2 -32 -39 -33 -34 -26
-17 -14 -2 -31 -38 -32 -33 -25
-16 -13 -2 -31 -38 -31 -33 -25
-16 -12 -2 -31 -37 -30 -32 -25
-15 -11 -3 -30 -36 -29 -31 -24
-15 -12 -3 -30 -36 -28 -30 -24
-15 -13 -4 -29 -36 -27 -30 -23
-15 -13 -4 -29 -36 -27 -29 -23
-15 -14 -4 -29 -36 -26 -29 -23
-15 -15 -5 -28 -35 -25 -28 -22
-14 -14 -5 -28 -35 -25 -28 -22
-14 -14 -5 -28 -34 -24 -28 -22
-13 -13 -5 -28 -34 -24 -28 -22
-13 -13 -5 -28 -34 -24 -28 -22
-12 -12 -5 -29 -33 -23 -28 -22
-12 -12 -5 -29 -32 -23 -27 -22
-12 -12 -5 -28 -31 -23 -27 -21
-12 -12 -5 -28 -31 -23 -26 -21
-12 -12 -5 -28 -30 -23 -26 -21
-11 -13 -5 -27 -29 -22 -25 -20
-11 -13 -5 -27 -29 -22 -25 -20
-12 -13 -5 -28 -30 -22 -25 -21
-12 -13 -5 -28 -30 -22 -25 -21
-12 -13 -5 -28 -30 -22 -25 -21
-13 -13 -5 -29 -31 -22 -26 -22
-13 -13 -5 -29 -31 -22 -26 -22
-13 -13 -5 -29 -31 -22 -26 -22
-13 -13 -5 -29 -31 -22 -26 -22
-13 -13 -5 -29 -31 -22 -26 -22
-13 -12 -4 -28 -31 -21 -26 -22
-13 -12 -4 -28 -31 -21 -26 -21
-13 -11 -3 -28 -30 -21 -25 -20
-13 -11 -3 -28 -30 -21 -24 -20
-13 -11 -3 -28 -30 -21 -24 -19
-13 -10 -2 -27 -29 -20 -23 -18
-13 -10 -2 -27 -29 -20 -23 -18
-13 -10 -2 -26 -28 -20 -24 -19
-13 -10 -2 -26 -28 -20 -24 -19
-13 -10 -2 -26 -28 -20 -24 -19
-12 -9 -2 -25 -27 -20 -25 -20
-13 -10 -2 -25 -27 -20 -25 -20
-14 -11 -2 -25 -27 -20 -25 -19
-14 -12 -2 -25 -27 -20 -25 -19
-15 -13 -2 -25 -27 -20 -25 -19
-16 -14 -2 -26 -28 -21 -25 -18
-15 -13 -2 -26 -28 -20 -24 -18
-14 -11 -2 -25 -27 -19 -23 -17
-13 -10 -2 -25 -26 -19 -23 -17
-12 -9 -2 -25 -26 -18 -22 -17
-11 -8 0 -24 -25 -17 -21 -16
-11 -8 0 -24 -25 -17 -21 -16
-11 -9 0 -24 -25 -17 -21 -17
-11 -9 0 -24 -25 -17 -21 -17
-11 -9 0 -24 -25 -17 -21 -17
-12 -10 1 -23 -25 -18 -22 -18
-12 -10 1 -23 -25 -18 -22 -18
-12 -10 1 -23 -24 -17 -21 -18
-12 -10 1 -23 -24 -17 -20 -18
-12 -10 1 -23 -24 -17 -20 -18
-13 -11 0 -23 -23 -16 -19 -18
-13 -11 0 -23 -23 -16 -19 -18
-13 -10 0 -22 -22 -15 -19 -17
-13 -10 0 -21 -22 -14 -19 -16
-13 -10 0 -21 -22 -14 -19 -16
-12 -9 1 -20 -21 -13 -20 -15
-12 -9 1 -20 -21 -13 -20 -15
-12 -10 1 -20 -21 -13 -19 -15
-12 -10 1 -20 -21 -13 -19 -15
-12 -10 1 -20 -21 -13 -19 -15
-11 -11 0 -20 -21 -12 -18 -15
-11 -11 0 -20 -21 -12 -18 -15
-11 -10 0 -21 -21 -12 -18 -15
-11 -9 0 -21 -21 -12 -18 -15
-11 -9 0 -21 -21 -12 -18 -15
-12 -8 1 -22 -21 -13 -18 -15
-12 -8 1 -22 -21 -13 -18 -15
-12 -8 1 -22 -21 -12 -17 -14
-12 -8 1 -22 -21 -12 -16 -13
-12 -8 1 -22 -21 -12 -16 -13
-11 -9 1 -21 -20 -11 -15 -12
-11 -9 0 -21 -20 -11 -16 -13
-11 -8 -2 -22 -20 -12 -17 -14
-11 -7 -2 -23 -20 -13 -18 -15
-11 -7 -3 -23 -20 -13 -19 -16
-10 -6 -4 -24 -21 -14 -20 -17
-10 -7 -4 -24 -21 -14 -20 -17
-10 -9 -4 -24 -21 -14 -19 -16
-10 -10 -4 -24 -21 -14 -18 -15
-10 -11 -4 -24 -21 -14 -18 -15
-10 -12 -4 -23 -20 -13 -17 -14
-10 -12 -4 -23 -20 -13 -17 -14
-10 -11 -4 -24 -21 -13 -17 -14
-10 -11 -4 -25 -22 -13 -17 -14
-10 -11 -4 -25 -22 -13 -17 -14
-10 -10 -5 -26 -23 -13 -18 -15
-10 -10 -5 -26 -23 -13 -18 -15
-10 -9 -5 -25 -22 -13 -17 -15
-10 -8 -5 -25 -21 -13 -17 -15
-10 -8 -5 -25 -21 -13 -17 -15
-9 -7 -5 -24 -20 -12 -16 -14
-9 -7 -5 -24 -20 -12 -16 -14
-8 -7 -5 -24 -20 -12 -16 -14
-7 -7 -5 -24 -20 -12 -16 -14
-7 -7 -5 -24 -20 -12 -16 -14
-6 -8 -6 -25 -21 -13 -17 -15
-7 -8 -6 -25 -21 -13 -17 -15
-8 -7 -5 -25 -21 -13 -16 -14
-9 -6 -5 -25 -21 -13 -16 -14
-10 -6 -5 -25 -21 -13 -16 -14
-11 -5 -4 -25 -20 -13 -15 -13
-11 -5 -4 -25 -20 -13 -15 -13
-10 -5 -5 -25 -21 -13 -15 -13
-9 -5 -5 -25 -21 -13 -15 -13
-9 -5 -5 -25 -21 -13 -15 -13
-8 -6 -6 -26 -22 -13 -16 -14
-8 -6 -6 -26 -22 -13 -16 -14
-8 -7 -6 -26 -22 -13 -16 -14
-8 -7 -6 -26 -22 -13 -16 -14
-8 -7 -6 -26 -22 -13 -16 -14
-8 -8 -6 -26 -22 -12 -17 -15
-8 -7 -6 -26 -22 -12 -17 -15
-7 -6 -5 -26 -21 -11 -16 -15
-6 -6 -5 -26 -21 -11 -15 -15
-6 -5 -5 -26 -21 -11 -15 -15
-5 -4 -4 -27 -20 -10 -14 -14
-6 -4 -4 -27 -20 -10 -14 -14
-7 -5 -5 -26 -20 -10 -15 -14
-7 -6 -5 -25 -20 -10 -15 -14
-8 -6 -5 -25 -20 -10 -15 -14
-9 -7 -6 -24 -20 -11 -16 -13
-9 -7 -6 -24 -20 -11 -16 -13
-8 -7 -6 -24 -20 -11 -16 -14
-8 -7 -6 -24 -20 -11 -16 -14
-8 -7 -6 -24 -20 -11 -16 -14
-7 -8 -7 -24 -21 -12 -17 -15
-7 -8 -7 -24 -21 -12 -17 -15
-7 -7 -7 -24 -21 -11 -16 -14
-7 -7 -7 -24 -21 -11 -16 -14
-7 -7 -7 -24 -21 -11 -16 -14
-6 -6 -6 -24 -20 -10 -15 -13
-6 -6 -6 -24 -20 -10 -15 -13
-7 -5 -6 -24 -21 -10 -15 -13
-7 -4 -6 -24 -21 -10 -15 -13
-7 -4 -6 -24 -21 -10 -15 -13
-8 -3 -6 -24 -22 -11 -15 -12
-8 -4 -6 -24 -22 -11 -15 -12
-8 -5 -6 -25 -21 -12 -16 -13
-8 -5 -6 -25 -21 -12 -17 -14
-8 -6 -6 -25 -21 -12 -17 -14
-8 -7 -5 -26 -20 -13 -18 -15
-8 -7 -5 -26 -20 -13 -18 -15
-7 -6 -5 -25 -20 -13 -18 -14
-7 -6 -5 -25 -20 -13 -18 -13
-7 -6 -5 -25 -20 -13 -18 -13
-6 -5 -6 -24 -20 -12 -17 -12
-6 -5 -6 -24 -20 -12 -17 -12
-7 -4 -6 -24 -20 -12 -17 -12
-8 -4 -6 -24 -20 -12 -17 -12
-8 -4 -6 -24 -20 -12 -17 -12
-9 -3 -7 -25 -21 -12 -16 -12
-9 -3 -7 -25 -21 -12 -16 -12
-9 -4 -7 -25 -21 -12 -16 -12
-9 -4 -7 -25 -21 -12 -16 -12
-9 -4 -7 -25 -21 -12 -16 -12
-9 -5 -7 -24 -21 -12 -15 -12
-9 -5 -7 -24 -21 -12 -15 -12
-8 -6 -7 -24 -21 -12 -16 -12
-8 -6 -7 -24 -21 -12 -16 -12
-8 -6 -7 -24 -21 -12 -16 -12
-7 -7 -6 -25 -20 -12 -17 -13
-7 -7 -6 -25 -20 -12 -17 -13
-7 -7 -6 -25 -21 -12 -17 -13
-7 -7 -6 -25 -21 -12 -17 -13
-7 -7 -6 -25 -21 -12 -17 -13
-7 -6 -7 -25 -22 -11 -17 -12
-7 -6 -7 -25 -22 -11 -17 -12
-7 -5 -7 -25 -22 -11 -17 -12
-7 -5 -7 -25 -22 -11 -17 -12
-7 -5 -7 -25 -22 -11 -17 -12
-7 -4 -8 -26 -21 -10 -18 -13
-7 -4 -8 -26 -21 -10 -18 -13
-7 -4 -7 -25 -21 -10 -17 -12
-7 -4 -7 -25 -21 -10 -17 -12
-7 -4 -7 -25 -21 -10 -17 -12
-7 -4 -6 -24 -21 -11 -16 -11
-7 -5 -6 -24 -21 -11 -16 -11
-6 -6 -6 -24 -21 -11 -16 -12
-5 -6 -6 -24 -21 -11 -16 -12
-5 -7 -6 -24 -21 -11 -16 -12
-4 -8 -6 -23 -21 -12 -17 -13
-5 -8 -6 -23 -21 -12 -17 -13
-6 -7 -6 -23 -21 -11 -17 -13
-6 -7 -6 -23 -21 -11 -17 -13
-7 -7 -6 -23 -21 -11 -17 -13
-8 -6 -5 -23 -21 -10 -16 -13
-8 -5 -6 -23 -21 -10 -16 -13
-7 -4 -7 -23 -21 -11 -17 -13
-6 -4 -7 -23 -21 -11 -17 -13
-6 -3 -8 -23 -21 -11 -17 -13
-5 -2 -9 -24 -21 -12 -18 -13
-5 -2 -8 -24 -21 -12 -18 -13
-6 -3 -7 -24 -21 -11 -17 -12
-7 -4 -6 -24 -21 -10 -16 -11
-7 -4 -5 -24 -21 -10 -16 -11
-8 -5 -4 -23 -20 -9 -15 -10
-8 -5 -4 -23 -20 -9 -15 -10
-8 -6 -4 -23 -20 -10 -15 -11
-8 -6 -4 -23 -20 -10 -15 -11
-8 -6 -4 -23 -20 -10 -15 -11
-9 -7 -5 -23 -20 -11 -15 -12
-8 -7 -5 -23 -20 -11 -15 -12
-7 -6 -4 -23 -20 -10 -14 -12
-7 -6 -4 -23 -20 -10 -14 -12
-6 -6 -4 -23 -20 -10 -14 -12
-5 -5 -3 -23 -19 -9 -13 -11
-6 -5 -3 -23 -19 -9 -13 -11
-7 -5 -4 -23 -20 -10 -14 -11
-7 -5 -5 -23 -21 -10 -14 -11
-8 -5 -5 -23 -21 -10 -14 -11
-9 -4 -6 -24 -22 -11 -15 -12
-9 -4 -6 -24 -22 -11 -15 -12
-8 -5 -6 -24 -22 -11 -15 -12
-8 -6 -6 -24 -22 -11 -15 -12
-8 -6 -6 -24 -22 -11 -15 -12
-7 -7 -6 -23 -22 -11 -16 -12
-7 -7 -6 -23 -22 -11 -16 -12
-7 -6 -6 -23 -22 -11 -15 -12
-7 -5 -6 -23 -22 -11 -15 -12
-7 -5 -6 -23 -22 -11 -15 -12
-7 -4 -5 -22 -21 -10 -14 -11
-7 -4 -5 -22 -21 -10 -14 -11
-6 -4 -5 -22 -21 -10 -14 -11
-6 -4 -5 -22 -21 -10 -14 -11
-6 -4 -5 -22 -21 -10 -14 -11
-5 -3 -5 -23 -22 -10 -14 -12
-5 -3 -5 -23 -22 -10 -14 -12
-6 -4 -5 -22 -22 -9 -13 -11
-6 -5 -5 -22 -22 -9 -12 -10
-6 -5 -5 -22 -22 -9 -12 -10
-7 -6 -5 -21 -21 -8 -11 -9
-7 -6 -5 -21 -21 -8 -11 -9
-7 -6 -5 -21 -21 -8 -11 -9
-7 -5 -5 -21 -21 -8 -12 -10
-7 -5 -5 -21 -21 -8 -12 -10
-6 -4 -4 -22 -21 -9 -13 -11
-6 -4 -4 -22 -21 -9 -13 -11
-6 -4 -4 -22 -21 -9 -13 -11
-5 -4 -4 -22 -21 -9 -13 -11
-5 -4 -4 -22 -21 -9 -13 -11
-4 -3 -3 -21 -20 -9 -12 -11
-4 -4 -3 -21 -20 -9 -12 -11
-5 -4 -3 -21 -20 -9 -12 -11
-6 -5 -3 -20 -20 -8 -12 -11
-6 -6 -3 -20 -20 -8 -12 -11
-7 -7 -2 -19 -19 -7 -11 -11
-7 -6 -2 -19 -19 -7 -11 -11
-7 -5 -2 -19 -19 -7 -11 -11
-7 -4 -3 -19 -19 -7 -11 -11
-7 -3 -3 -19 -19 -7 -11 -11
-6 -2 -4 -20 -20 -8 -11 -11
-6 -2 -4 -20 -20 -8 -11 -11
-6 -2 -4 -20 -20 -8 -11 -11
-6 -2 -3 -20 -20 -7 -10 -10
-6 -2 -3 -20 -20 -7 -10 -10
-6 0 -2 -19 -19 -6 -9 -9
-6 0 -2 -19 -19 -6 -9 -9
-6 0 -2 -19 -19 -6 -9 -9
-6 -2 -2 -19 -19 -6 -9 -8
-6 -2 -2 -19 -19 -6 -9 -8
-5 -3 -2 -19 -19 -7 -8 -7
-5 -3 -2 -19 -19 -7 -8 -7
-5 -3 -2 -19 -19 -7 -8 -7
-5 -4 -3 -19 -19 -7 -8 -8
-5 -4 -3 -19 -19 -7 -8 -8
-6 -5 -4 -20 -19 -7 -7 -9
-6 -4 -4 -20 -19 -7 -7 -9
-5 -4 -4 -20 -19 -7 -7 -9
-4 -3 -4 -20 -19 -6 -7 -9
-4 -2 -4 -20 -19 -6 -7 -9
-3 0 -3 -19 -20 -5 -7 -9
-3 0 -3 -19 -20 -5 -7 -9
-3 0 -3 -19 -20 -5 -8 -9
-4 -2 -3 -19 -20 -6 -9 -10
-4 -2 -3 -19 -20 -6 -9 -10
-5 -3 -4 -20 -21 -7 -10 -11
-5 -3 -4 -20 -21 -7 -10 -11
-5 -3 -3 -19 -21 -7 -10 -11
-5 -3 -2 -18 -21 -6 -9 -11
-5 -3 -2 -18 -21 -6 -9 -11
-5 -2 0 -17 -20 -5 -8 -10
-5 -2 0 -17 -20 -5 -8 -10
-5 -2 -2 -18 -20 -5 -8 -10
-4 -2 -3 -19 -20 -6 -8 -10
-4 -2 -3 -19 -20 -6 -8 -10
-3 -3 -4 -20 -21 -7 -7 -9
-3 -3 -4 -20 -21 -7 -7 -9
-4 -3 -3 -20 -20 -6 -7 -9
-5 -3 -2 -19 -19 -5 -6 -9
-5 -3 -2 -19 -19 -5 -6 -9
-6 -4 0 -18 -18 -4 -5 -8
-6 -4 0 -18 -18 -4 -5 -8
-6 -4 0 -17 -18 -4 -5 -8
-7 -3 -2 -16 -18 -5 -5 -9
-7 -3 -2 -16 -18 -5 -5 -9
-8 -2 -3 -15 -17 -6 -6 -10
-6 -2 -3 -15 -17 -6 -6 -10
-5 -2 -3 -15 -17 -6 -6 -9
-3 -2 -2 -15 -17 -5 -6 -8
0 -2 -2 -15 -17 -5 -6 -8
1 0 0 -15 -17 -4 -5 -7
0 0 0 -15 -17 -4 -5 -7
-2 0 0 -15 -17 -4 -5 -7
-3 0 0 -15 -17 -4 -5 -8
-4 0 0 -15 -17 -4 -5 -8
-5 1 0 -16 -18 -4 -5 -9
-5 1 0 -16 -18 -4 -5 -9
-5 1 -2 -16 -18 -5 -5 -9
-5 0 -3 -16 -19 -6 -5 -9
-5 0 -3 -16 -19 -6 -5 -9
-6 -2 -4 -17 -20 -7 -4 -10
-6 -2 -4 -17 -20 -7 -4 -10
-6 -2 -4 -17 -20 -7 -4 -10
-6 -2 -3 -17 -20 -6 -4 -9
-6 -2 -3 -17 -20 -6 -4 -9
-6 0 -2 -16 -19 -5 -3 -8
-6 0 -2 -16 -19 -5 -3 -8
-6 0 -2 -16 -19 -5 -3 -9
-6 1 -2 -16 -19 -5 -4 -10
-6 1 -2 -16 -19 -5 -4 -10
-7 2 -2 -15 -19 -6 -5 -11
-7 1 -2 -15 -19 -6 -5 -10
-7 1 -2 -15 -19 -6 -4 -9
-7 0 -2 -15 -19 -5 -3 -8
-7 -2 -2 -15 -19 -5 -3 -7
-8 -3 0 -15 -18 -4 -2 -6
-7 -2 0 -15 -18 -4 -2 -6
-6 -2 0 -15 -18 -4 -2 -6
-4 0 0 -15 -18 -4 -2 -6
-3 1 0 -15 -18 -4 -2 -6
-2 2 1 -14 -17 -4 -3 -7
-2 3 2 -13 -16 -2 -2 -6
-3 4 3 -11 -15 0 1 -5
-4 5 5 -10 -13 2 2 -4
-4 6 6 -8 -12 4 4 -3
-5 7 7 -7 -11 5 5 -2
-4 8 7 -7 -10 6 6 -2
-4 10 7 -6 -9 6 7 0
-3 11 8 -5 -8 7 8 1
-2 13 8 -5 -7 8 9 1
0 14 9 -4 -6 9 10 2
0 14 9 -5 -7 9 10 2
0 14 9 -5 -8 9 10 2
0 14 8 -6 -9 8 9 1
0 14 8 -7 -10 8 9 1
0 15 7 -8 -11 7 8 0
1 15 6 -7 -8 8 9 1
3 16 6 -6 -6 10 11 3
4 17 5 -4 -4 11 12 4
6 17 4 -3 -2 13 14 6
7 18 3 -2 1 14 15 7
8 18 3 0 1 14 15 7
9 19 3 0 1 14 15 7
10 20 2 1 2 15 16 8
11 20 2 2 2 15 16 8
12 21 1 3 3 16 17 9
11 21 1 3 3 16 17 9
11 20 1 3 3 16 17 9
10 19 1 2 2 16 17 8
9 19 1 2 2 16 17 8
8 18 0 1 1 16 17 7
8 17 0 0 0 15 17 7
8 16 0 -3 0 15 17 7
8 15 -2 -4 -2 14 17 7
8 14 -2 -6 -3 13 17 7
9 13 -3 -7 -4 12 16 8
8 13 -3 -8 -6 10 15 7
7 12 -3 -9 -8 8 14 6
5 11 -3 -10 -10 6 12 5
4 11 -3 -11 -11 5 11 4
3 9 -2 -12 -13 3 10 3
3 7 -2 -13 -15 2 8 0
2 4 -2 -14 -16 0 7 -3
1 2 -2 -16 -18 -2 5 -5
1 -2 -2 -17 -20 -4 3 -7
0 -4 0 -18 -21 -5 2 -9
-3 -4 0 -18 -21 -5 2 -9
-4 -5 0 -18 -21 -6 1 -9
-6 -6 0 -19 -22 -7 0 -10
-8 -6 0 -19 -22 -7 0 -10
-9 -7 0 -20 -23 -8 -2 -11
-9 -7 0 -20 -23 -8 -2 -11
-10 -7 0 -20 -23 -8 -2 -11
-11 -6 0 -20 -23 -8 -3 -11
-11 -6 0 -20 -23 -8 -3 -11
-12 -5 0 -20 -24 -8 -4 -12
-12 -5 0 -20 -24 -8 -4 -12
-12 -5 0 -20 -24 -9 -4 -12
-13 -6 0 -20 -24 -10 -4 -12
-13 -6 0 -20 -24 -10 -4 -12
-14 -7 -2 -21 -25 -11 -4 -13
-13 -7 -2 -21 -25 -11 -4 -13
-13 -7 -2 -21 -25 -11 -4 -13
-12 -7 -2 -21 -25 -11 -4 -14
-11 -7 -2 -21 -25 -11 -4 -14
-10 -7 -2 -21 -24 -11 -4 -15
-11 -7 -2 -21 -24 -11 -4 -15
-12 -7 0 -20 -24 -11 -4 -15
-13 -7 1 -19 -24 -11 -4 -15
-14 -7 1 -19 -24 -11 -4 -15
-15 -6 2 -18 -25 -11 -5 -14
-15 -6 2 -18 -25 -11 -4 -14
-14 -6 2 -18 -24 -11 -4 -14
-13 -5 2 -18 -23 -10 -3 -13
-13 -5 2 -18 -23 -10 -2 -13
-12 -4 2 -18 -22 -9 0 -12
-12 -4 2 -18 -22 -9 0 -12
-12 -4 2 -18 -22 -9 0 -12
-11 -4 3 -17 -22 -9 -2 -12
-11 -4 3 -17 -22 -9 -2 -12
-10 -5 4 -16 -21 -8 -3 -12
-10 -5 4 -16 -21 -8 -3 -12
-10 -5 4 -16 -21 -8 -3 -12
-10 -5 4 -17 -21 -8 -2 -12
-10 -5 4 -17 -21 -8 -2 -12
-11 -4 4 -17 -21 -8 0 -11
-12 -4 7 -11 -20 -8 -2 -13
-13 -4 10 -5 -18 -8 -4 -14
-15 -4 13 1 -17 -8 -5 -16
-16 -4 16 7 -15 -8 -7 -17
-15 -3 20 19 -7 -3 -4 -16
-8 1 26 44 15 16 11 -8
0 4 33 67 36 33 25 2
7 7 40 92 58 51 39 11
14 10 47 116 79 68 53 20
23 15 53 142 105 91 72 32
35 22 57 171 140 121 99 52
48 29 60 200 176 153 127 71
60 37 64 229 211 184 153 91
72 45 68 258 245 215 181 110
80 50 66 261 264 234 199 125
79 51 48 211 247 225 198 129
77 53 30 160 231 216 197 134
76 54 12 109 214 206 195 138
74 56 -6 59 197 197 194 143
66 56 -20 8 162 173 179 137
44 51 -26 -47 92 115 133 107
20 46 -32 -100 21 59 87 78
-3 40 -39 -154 -50 2 42 49
-26 35 -46 -207 -120 -55 -5 20
-41 28 -51 -242 -169 -95 -37 -4
-43 17 -54 -234 -170 -101 -47 -14
-45 6 -56 -225 -171 -106 -56 -24
-46 -5 -58 -217 -172 -111 -64 -34
-48 -16 -61 -208 -173 -117 -73 -46
-48 -24 -62 -196 -169 -118 -77 -53
-44 -23 -56 -177 -153 -107 -70 -50
-38 -22 -50 -156 -137 -96 -63 -47
-34 -21 -45 -136 -121 -86 -56 -44
-29 -19 -38 -116 -105 -74 -48 -40
-25 -18 -33 -98 -91 -64 -41 -36
-22 -15 -26 -82 -78 -55 -35 -32
-19 -13 -20 -68 -67 -47 -29 -28
-15 -11 -14 -53 -56 -37 -23 -24
-12 -8 -8 -37 -44 -28 -17 -19
-9 -6 -3 -26 -35 -22 -12 -16
-9 -6 0 -22 -32 -19 -10 -15
-9 -6 2 -19 -29 -16 -8 -15
-10 -5 3 -15 -26 -14 -6 -14
-10 -5 5 -11 -23 -11 -4 -13
-11 -4 7 -8 -20 -9 -2 -12
-11 -4 7 -8 -20 -9 -2 -12
-11 -4 7 -7 -20 -9 -3 -13
-12 -5 7 -7 -20 -9 -3 -13
-12 -5 7 -6 -20 -9 -4 -14
-13 -6 8 -5 -20 -10 -5 -15
-12 -6 8 -4 -19 -10 -4 -14
-12 -6 8 -3 -17 -9 -3 -13
-11 -6 9 -2 -16 -9 -2 -12
-10 -6 9 1 -14 -8 1 -10
-9 -7 10 2 -13 -7 2 -9
-9 -7 10 2 -13 -7 2 -9
-9 -7 10 2 -13 -7 2 -9
-9 -6 10 3 -13 -7 2 -9
-9 -6 10 3 -13 -7 2 -9
-9 -5 10 4 -12 -7 1 -9
-9 -5 10 4 -12 -7 1 -9
-9 -5 10 4 -12 -7 1 -9
-9 -4 9 4 -12 -7 1 -9
-9 -4 9 4 -12 -7 1 -9
-8 -3 8 4 -11 -8 0 -10
-8 -3 8 5 -10 -8 0 -10
-8 -3 9 7 -10 -7 0 -10
-9 -3 9 8 -9 -7 0 -10
-9 -3 10 10 -8 -6 0 -10
-10 -3 11 11 -7 -5 0 -9
-9 -3 11 11 -7 -5 0 -9
-8 -3 11 11 -7 -5 0 -9
-7 -2 10 11 -7 -4 0 -9
-5 -2 10 11 -7 -4 0 -9
-4 0 9 11 -6 -3 1 -10
-4 -2 9 12 -6 -3 1 -10
-5 -3 9 13 -6 -3 1 -10
-5 -4 9 14 -6 -4 1 -10
-6 -5 9 15 -6 -4 1 -10
-7 -6 10 16 -7 -5 1 -9
-7 -6 10 16 -6 -5 1 -9
-6 -6 10 16 -5 -4 1 -9
-6 -6 10 17 -4 -4 2 -9
-5 -6 10 17 -3 -3 2 -9
-4 -5 11 18 -2 -2 3 -9
-4 -4 11 20 0 0 3 -9
-5 -3 11 21 1 0 3 -9
-5 -2 12 23 2 1 4 -8
-6 0 12 24 3 2 4 -8
-7 1 13 26 4 3 5 -7
-6 1 13 26 4 3 5 -6
-4 1 13 26 4 3 6 -5
-3 0 13 26 5 3 6 -4
-2 0 13 26 5 3 7 -3
1 -2 12 27 6 3 8 -2
1 -2 12 29 7 4 9 -2
1 0 12 30 8 5 10 -2
1 0 12 32 9 6 11 0
1 1 12 33 10 7 12 0
1 2 13 35 11 8 13 1
1 2 13 37 13 9 13 1
1 3 13 39 14 10 13 1
2 3 14 40 16 11 14 1
2 4 14 43 17 12 14 1
3 5 15 45 19 13 15 2
3 5 15 48 21 14 16 3
3 5 15 50 23 15 17 4
4 5 15 53 24 16 18 5
4 5 15 56 26 18 20 6
5 5 16 58 28 19 21 7
7 6 16 59 29 20 21 7
8 6 16 59 30 21 22 8
10 7 16 60 31 22 22 8
11 8 16 61 33 23 23 9
13 9 16 62 34 24 24 10
13 10 17 66 37 26 26 11
13 12 17 69 39 27 28 13
14 13 18 72 43 29 29 14
14 14 19 75 46 30 31 15
15 16 20 78 48 32 33 17
16 16 20 80 50 33 34 18
17 16 20 82 52 35 36 19
18 15 20 84 53 36 37 20
19 15 20 86 55 37 38 22
20 14 20 88 57 39 40 23
20 14 20 89 57 39 40 23
20 14 20 91 58 39 40 24
21 15 20 92 59 40 42 25
21 15 20 93 60 40 42 26
22 16 20 95 61 42 43 27
22 16 20 95 62 43 44 28
22 17 20 95 63 44 45 29
22 17 19 95 64 45 46 30
22 18 19 95 65 47 48 32
23 19 18 96 66 48 49 33
25 19 18 96 66 48 49 33
27 19 18 96 66 48 50 34
28 19 18 97 67 48 51 34
30 19 18 97 67 48 52 35
32 19 17 98 68 48 53 36
32 19 17 98 68 48 53 36
32 20 16 97 68 48 53 36
32 20 15 97 67 48 53 36
32 21 14 96 67 48 53 36
32 22 13 95 66 48 52 36
32 22 13 94 66 48 52 36
31 22 13 93 66 48 52 36
31 23 13 92 65 48 52 36
30 23 13 90 65 48 52 36
29 24 13 89 64 48 52 35
29 24 12 86 63 48 52 35
29 23 11 84 61 47 52 35
29 23 10 80 59 47 52 36
29 22 9 78 58 46 52 36
30 21 8 75 56 45 51 37
30 21 8 73 55 44 50 36
30 21 8 70 53 42 48 35
29 21 7 68 51 40 47 34
29 21 7 65 50 39 46 32
28 20 6 63 48 37 44 31
27 19 6 59 45 36 43 30
25 18 5 55 43 34 40 28
23 17 4 51 39 32 38 27
22 16 3 47 37 31 37 26
20 15 2 44 34 29 35 24
20 15 2 40 32 28 34 23
20 15 2 38 29 26 32 21
19 15 2 35 27 25 30 20
19 15 2 33 24 24 29 19
18 14 2 30 22 22 27 17
17 13 2 28 20 20 26 17
15 12 2 26 18 19 25 16
14 11 2 24 15 17 24 16
13 10 2 22 13 15 22 15
11 9 1 20 11 13 21 14
10 9 1 18 9 12 19 12
9 8 1 15 6 10 18 10
8 8 1 13 4 8 16 7
7 7 1 10 1 7 14 5
6 6 0 8 -2 5 12 3
6 6 0 7 -3 4 11 3
5 5 0 5 -4 3 10 2
4 5 0 4 -5 2 9 1
3 4 0 3 -6 1 8 0
2 3 0 1 -7 0 7 -2
1 3 0 1 -7 0 7 -2
0 3 0 1 -7 -2 6 -2
-2 3 0 1 -8 -3 6 -2
-3 3 0 1 -8 -4 5 -2
-4 2 1 0 -9 -5 4 -2
-4 2 1 -2 -9 -5 4 -2
-4 1 1 -3 -10 -5 4 -2
-3 0 0 -4 -10 -6 4 -3
-3 -2 0 -5 -11 -6 4 -3
-2 -3 -2 -6 -12 -7 3 -4
-2 -3 -2 -6 -12 -7 3 -4
-3 -3 -2 -6 -12 -7 3 -4
-4 -3 0 -6 -13 -8 2 -5
-5 -3 0 -6 -13 -8 2 -5
-6 -3 1 -6 -14 -9 1 -6
-6 -3 1 -6 -14 -9 1 -6
-5 -3 1 -7 -14 -10 0 -6
-5 -3 1 -7 -15 -10 -2 -7
-4 -3 1 -8 -15 -11 -3 -7
-3 -4 0 -9 -16 -12 -4 -8
-3 -4 0 -9 -16 -12 -4 -8
-3 -3 0 -8 -16 -12 -4 -8
-2 -2 0 -8 -16 -12 -4 -8
-2 0 0 -7 -16 -12 -4 -8
0 1 1 -6 -15 -12 -5 -9
0 1 1 -6 -15 -12 -5 -9
-2 1 1 -6 -15 -12 -5 -9
-3 1 1 -6 -15 -12 -5 -9
-4 1 1 -6 -15 -12 -5 -9
-5 0 0 -5 -15 -11 -4 -8
-5 0 0 -5 -15 -11 -4 -8
-6 -2 0 -5 -15 -12 -4 -8
-6 -2 0 -5 -15 -12 -4 -8
-7 -3 0 -5 -15 -13 -4 -8
-8 -4 1 -5 -14 -14 -4 -7
-7 -4 1 -5 -14 -13 -4 -7
-6 -4 1 -5 -13 -12 -3 -6
-5 -4 2 -4 -12 -11 -2 -6
-4 -4 2 -4 -11 -10 0 -5
-3 -3 3 -3 -10 -9 1 -4
-3 -3 3 -3 -10 -9 1 -4
-3 -2 3 -2 -10 -9 1 -4
-4 -2 3 -2 -10 -9 0 -5
-4 0 3 0 -10 -9 0 -5
-5 1 2 1 -10 -10 -2 -6
-5 1 2 1 -10 -10 -2 -6
-5 0 2 1 -10 -10 -2 -6
-4 0 2 1 -10 -10 -2 -6
-4 -2 2 1 -10 -10 -2 -6
-3 -3 2 0 -10 -9 0 -7
-3 -3 2 0 -10 -9 0 -7
-4 -3 2 0 -9 -9 0 -6
-4 -2 2 1 -9 -9 1 -6
-5 -2 2 1 -8 -9 1 -5
-6 0 3 2 -7 -8 2 -4
-6 0 3 2 -7 -8 2 -4
-5 0 3 2 -7 -8 2 -4
-5 0 2 1 -7 -8 2 -4
-4 0 2 1 -7 -8 2 -4
-3 0 1 0 -7 -9 1 -4
-3 0 1 0 -7 -9 1 -4
-3 0 1 0 -7 -9 1 -4
-3 0 1 0 -7 -8 1 -5
-3 0 1 0 -7 -8 1 -5
-3 -2 2 1 -7 -7 1 -6
-2 -2 2 1 -7 -7 1 -6
0 -2 2 1 -7 -7 1 -6
1 -2 2 1 -7 -7 1 -5
2 -2 2 1 -7 -7 1 -5
3 0 1 0 -7 -8 1 -4
3 0 1 0 -7 -8 1 -4
2 0 1 0 -7 -8 1 -4
1 0 1 0 -7 -7 2 -4
0 0 1 0 -7 -7 2 -4
-2 -2 1 -2 -6 -6 3 -3
-2 -2 1 -3 -7 -6 2 -4
0 -2 1 -4 -8 -7 1 -5
0 -2 0 -5 -9 -8 0 -6
1 -2 0 -6 -10 -9 -2 -7
2 -3 -2 -7 -11 -10 -3 -8
1 -3 -2 -7 -11 -10 -3 -8
0 -3 -2 -7 -11 -10 -3 -7
-2 -3 0 -6 -11 -9 -2 -7
-3 -3 0 -6 -11 -9 -2 -6
-5 -4 1 -5 -10 -8 0 -5
-5 -4 1 -5 -10 -8 0 -5
-5 -4 1 -6 -10 -8 0 -5
-5 -3 0 -6 -11 -8 -2 -5
-5 -3 0 -7 -11 -8 -2 -5
-4 -2 -2 -8 -12 -9 -3 -6
-4 -2 -2 -8 -12 -9 -3 -6
-4 -3 -2 -9 -12 -10 -4 -7
-4 -3 -3 -9 -13 -10 -5 -8
-4 -4 -3 -10 -13 -11 -6 -9
-5 -5 -4 -11 -14 -12 -7 -10
-5 -5 -4 -11 -14 -12 -7 -10
-5 -5 -4 -11 -14 -12 -7 -10
-6 -4 -4 -11 -14 -12 -7 -10
-6 -4 -4 -11 -14 -12 -7 -10
-7 -3 -4 -10 -14 -11 -6 -10
-7 -3 -4 -10 -14 -11 -6 -10
-7 -3 -4 -10 -14 -12 -7 -10
-6 -3 -3 -11 -15 -12 -7 -10
-6 -3 -3 -11 -15 -13 -8 -10
-5 -2 -2 -12 -16 -14 -9 -11
-5 -2 -2 -12 -16 -14 -9 -11
-5 -3 -3 -13 -16 -14 -8 -10
-5 -4 -3 -13 -16 -14 -8 -9
-5 -5 -4 -14 -16 -14 -7 -8
-4 -6 -5 -15 -17 -13 -6 -7
-4 -6 -5 -15 -17 -13 -6 -7
-4 -6 -5 -15 -17 -13 -6 -7
-4 -5 -5 -15 -17 -13 -6 -8
-4 -5 -5 -15 -17 -13 -6 -8
-3 -4 -4 -15 -16 -14 -7 -9
-3 -4 -4 -15 -16 -14 -7 -9
-4 -5 -4 -15 -16 -14 -7 -9
-4 -5 -4 -16 -17 -14 -8 -10
-5 -6 -4 -16 -17 -14 -8 -10
-6 -7 -4 -17 -18 -15 -9 -11
-6 -7 -4 -17 -18 -15 -9 -11
-5 -6 -4 -17 -18 -15 -9 -11
-4 -6 -4 -17 -18 -15 -9 -11
-3 -5 -4 -17 -18 -15 -9 -11
-2 -4 -5 -16 -18 -16 -10 -11
-2 -3 -5 -16 -18 -15 -9 -10
-2 -2 -4 -15 -17 -14 -8 -9
-2 0 -3 -14 -16 -13 -7 -8
-2 1 -2 -13 -15 -12 -6 -7
-3 2 0 -12 -14 -10 -5 -5
-3 3 0 -12 -14 -10 -5 -5
-3 4 0 -11 -14 -10 -4 -5
-3 5 0 -11 -13 -9 -3 -5
-3 6 0 -10 -13 -9 -2 -5
-2 7 1 -9 -12 -8 0 -5
-2 7 1 -9 -12 -8 0 -5
-2 7 0 -10 -12 -7 0 -5
-2 7 0 -10 -12 -7 0 -4
-2 7 -2 -11 -12 -6 0 -4
0 8 -3 -12 -13 -5 -2 -3
0 10 -3 -10 -11 -5 0 -3
1 12 -3 -8 -9 -5 2 -2
2 14 -3 -6 -7 -5 3 -2
3 16 -3 -4 -5 -5 5 0
4 18 -2 -2 -2 -4 7 1
5 18 -2 -2 -2 -3 7 2
7 17 -3 -2 -2 -2 7 3
8 17 -4 -2 -2 0 8 5
10 16 -5 -2 -2 1 8 6
12 15 -6 -3 0 2 9 8
12 15 -6 -3 0 2 9 8
12 15 -6 -3 0 2 9 8
11 14 -6 -2 0 2 9 8
11 14 -6 -2 0 2 9 8
10 13 -6 0 1 3 10 7
10 12 -7 -3 -2 2 9 7
10 11 -8 -5 -4 0 7 7
9 10 -9 -7 -6 -2 6 6
9 9 -10 -9 -8 -4 4 6
8 7 -11 -12 -10 -6 2 5
7 7 -11 -12 -11 -6 1 4
6 6 -11 -13 -12 -7 0 2
4 5 -10 -14 -14 -8 -3 0
3 4 -10 -15 -15 -9 -4 -3
1 3 -9 -16 -17 -10 -6 -5
0 2 -9 -16 -17 -11 -6 -5
-2 0 -9 -17 -18 -12 -7 -5
-3 -2 -9 -18 -18 -13 -7 -6
-4 -4 -9 -19 -19 -14 -8 -6
-6 -6 -8 -20 -20 -16 -9 -7
-6 -6 -8 -21 -20 -17 -9 -7
-5 -7 -8 -22 -21 -18 -10 -8
-4 -7 -8 -23 -22 -20 -11 -9
-3 -8 -8 -24 -23 -21 -12 -10
-2 -9 -9 -26 -24 -23 -13 -11
-4 -9 -9 -26 -24 -23 -13 -11
-6 -10 -9 -26 -25 -23 -14 -12
-8 -11 -9 -26 -25 -23 -15 -13
-10 -12 -9 -26 -26 -23 -16 -14
-12 -13 -9 -27 -27 -23 -17 -15
-12 -13 -9 -27 -27 -23 -17 -15
-12 -14 -9 -27 -27 -23 -17 -15
-12 -15 -9 -27 -27 -24 -18 -15
-12 -16 -9 -27 -27 -24 -18 -15
-11 -17 -8 -27 -28 -25 -19 -16
-11 -16 -8 -27 -28 -24 -19 -16
-11 -15 -8 -27 -27 -23 -18 -16
-11 -13 -8 -27 -26 -22 -18 -15
-11 -12 -8 -27 -25 -21 -17 -15
-11 -10 -7 -26 -24 -20 -16 -14
-11 -10 -7 -26 -24 -20 -16 -14
-11 -10 -7 -26 -24 -20 -17 -15
-11 -10 -7 -26 -25 -21 -17 -16
-11 -10 -7 -26 -25 -21 -18 -17
-10 -10 -6 -26 -26 -22 -19 -18
-10 -10 -6 -26 -25 -22 -19 -17
-10 -10 -6 -25 -24 -21 -18 -16
-10 -10 -6 -25 -23 -20 -18 -15
-10 -10 -6 -24 -22 -19 -17 -14
-10 -10 -7 -23 -21 -18 -16 -12
-10 -10 -7 -23 -21 -19 -17 -12
-11 -11 -7 -23 -22 -20 -18 -13
-11 -12 -7 -24 -23 -21 -19 -14
-12 -13 -7 -24 -24 -22 -20 -15
-13 -14 -7 -25 -25 -23 -22 -16
-13 -14 -7 -25 -25 -23 -22 -16
-13 -14 -7 -25 -25 -22 -21 -16
-12 -13 -7 -24 -24 -22 -20 -15
-12 -13 -7 -24 -24 -21 -19 -15
-11 -12 -7 -23 -23 -20 -18 -14
-11 -12 -7 -23 -23 -20 -18 -14
-11 -11 -7 -22 -22 -20 -18 -14
-11 -10 -7 -22 -22 -20 -18 -14
-11 -9 -7 -21 -21 -20 -18 -14
-12 -8 -7 -20 -20 -19 -18 -15
-11 -8 0 -11 -17 -17 -17 -15
-10 -8 6 0 -14 -15 -16 -15
-9 -7 12 9 -10 -12 -15 -15
-8 -7 18 18 -7 -10 -14 -15
-6 -6 24 28 -3 -7 -13 -14
1 -4 30 62 28 18 6 -2
7 0 37 95 59 42 25 10
13 3 45 128 90 66 44 22
19 6 52 160 120 90 63 34
26 9 59 193 151 114 81 47
38 19 58 202 180 145 111 69
51 28 56 212 209 176 140 93
63 38 54 221 236 205 169 115
75 49 52 230 265 236 198 139
88 59 50 239 294 267 227 161
75 53 33 175 243 226 198 152
63 47 16 110 194 186 170 143
51 40 -2 45 145 145 140 134
38 34 -18 -20 95 105 111 125
25 27 -35 -85 46 64 82 115
9 25 -39 -124 -8 23 49 87
-7 22 -45 -165 -61 -18 16 57
-23 20 -50 -205 -114 -60 -18 28
-39 17 -55 -246 -166 -101 -51 0
-56 14 -60 -286 -220 -142 -85 -30
-52 5 -61 -268 -208 -140 -86 -35
-48 -6 -63 -248 -197 -137 -88 -41
-44 -16 -65 -229 -186 -135 -89 -48
-39 -26 -67 -210 -175 -132 -91 -54
-35 -36 -69 -190 -163 -129 -93 -60
-33 -35 -63 -170 -147 -116 -85 -55
-31 -33 -56 -149 -130 -103 -75 -50
-29 -31 -50 -129 -113 -90 -67 -44
-27 -29 -43 -108 -96 -76 -58 -38
-25 -27 -35 -87 -78 -63 -49 -32
-22 -24 -30 -74 -68 -55 -44 -29
-19 -20 -24 -61 -58 -47 -38 -26
-15 -16 -19 -49 -49 -39 -33 -23
-12 -12 -13 -35 -38 -31 -28 -20
-9 -9 -8 -23 -28 -23 -23 -17
-8 -8 -7 -20 -26 -21 -22 -16
-9 -9 -6 -18 -24 -20 -21 -15
-9 -9 -5 -15 -22 -19 -20 -14
-10 -10 -4 -13 -20 -18 -19 -13
-10 -10 -3 -11 -18 -17 -19 -13
-11 -11 -2 -9 -16 -16 -18 -12
-10 -10 -2 -7 -15 -15 -18 -12
-9 -9 0 -6 -14 -15 -18 -12
-8 -8 0 -4 -13 -14 -18 -12
-8 -8 0 -3 -12 -14 -18 -12
-7 -8 1 -2 -11 -13 -17 -12
-7 -9 1 -2 -11 -14 -17 -13
-8 -11 0 -3 -11 -14 -18 -13
-8 -12 0 -3 -11 -15 -18 -14
-8 -13 0 -3 -11 -15 -18 -14
-9 -13 -2 -3 -12 -15 -19 -15
-9 -12 0 -2 -11 -14 -18 -14
-9 -10 1 0 -10 -12 -17 -13
-9 -9 2 1 -9 -11 -16 -12
-9 -8 3 2 -8 -10 -15 -11
-9 -7 4 4 -6 -8 -14 -9
-8 -7 4 5 -5 -7 -13 -8
-7 -6 4 6 -4 -6 -12 -7
-6 -6 4 7 -3 -5 -11 -6
-5 -6 4 8 -2 -4 -10 -5
-4 -5 5 9 0 -3 -9 -4
-5 -6 5 9 0 -3 -10 -5
-6 -7 4 9 -2 -4 -11 -6
-7 -8 4 9 -2 -4 -12 -7
-8 -9 4 9 -2 -4 -12 -7
-8 -10 3 8 0 -5 -13 -8
-7 -9 3 9 3 -5 -12 -8
-6 -8 3 9 6 -5 -12 -7
-5 -7 3 10 9 -5 -11 -7
-4 -7 3 10 11 -5 -11 -7
-4 -6 4 12 12 -4 -10 -6
-5 -6 4 13 13 -3 -9 -6
-6 -6 4 14 14 -2 -9 -6
-7 -6 4 15 15 0 -8 -6
-8 -6 4 16 16 0 -8 -6
-8 -6 5 17 17 1 -7 -5
-7 -6 5 18 18 2 -7 -5
-6 -6 6 19 19 2 -7 -4
-5 -6 6 20 20 3 -7 -4
-4 -6 6 21 20 3 -7 -4
-3 -7 7 22 21 4 -6 -3
-3 -6 7 23 22 4 -5 -2
-2 -5 7 23 23 4 -5 0
-2 -4 7 24 24 4 -4 1
-2 -4 7 24 24 4 -4 1
0 -3 7 26 26 5 -2 2
0 -3 8 28 27 6 0 3
0 -3 9 30 28 8 2 4
0 -3 10 32 29 9 3 5
0 -3 10 34 30 10 4 5
0 -2 11 36 32 11 5 6
0 0 11 38 33 12 5 6
0 0 11 39 34 12 5 6
0 1 11 42 35 13 5 6
0 1 11 43 36 13 5 6
1 2 11 45 38 15 7 6
2 2 11 47 40 16 9 7
2 2 11 49 43 17 10 8
3 2 11 51 45 18 12 9
3 2 11 53 46 19 13 9
5 2 12 56 49 21 15 11
7 3 13 59 51 23 16 12
8 4 13 61 53 25 17 13
10 5 14 64 55 27 18 14
11 6 14 66 57 29 19 15
12 7 15 69 60 31 21 17
12 7 15 72 62 32 23 19
11 7 15 75 64 34 25 20
11 7 15 78 66 35 27 22
11 7 15 80 68 36 28 23
11 8 16 84 71 39 30 25
13 9 16 87 74 42 32 27
15 10 17 89 76 45 34 28
17 11 17 92 79 47 36 30
18 12 17 94 81 49 37 31
20 13 18 96 84 51 39 32
21 13 18 98 86 52 40 33
23 14 18 100 87 53 43 34
24 14 18 102 89 54 44 35
25 14 18 103 90 55 45 36
27 16 17 105 92 57 47 38
28 17 17 107 94 59 49 39
29 19 17 109 96 60 50 42
30 20 17 111 98 62 52 43
31 21 17 112 99 63 53 44
32 22 16 113 100 64 54 45
32 21 16 113 100 64 55 45
32 21 16 114 100 64 55 46
32 20 16 114 100 64 56 46
32 20 16 114 100 64 56 46
33 19 15 115 101 65 57 47
33 19 15 115 101 66 57 48
34 20 15 115 101 66 58 49
34 20 15 115 101 67 58 50
34 20 15 115 101 67 58 50
35 21 14 113 101 68 59 51
36 22 13 110 99 67 59 51
36 23 12 107 98 67 59 51
37 24 11 105 96 66 59 51
37 24 10 102 95 66 59 51
36 24 9 97 91 63 57 49
33 22 9 93 88 61 55 48
30 20 8 89 85 59 53 47
27 18 8 84 80 56 51 46
24 17 8 79 77 54 49 45
23 16 7 75 73 51 46 43
23 16 7 70 70 49 44 40
22 16 7 66 66 47 42 39
22 16 7 62 62 44 39 37
22 16 7 58 59 42 37 36
20 16 7 54 56 38 34 33
19 15 6 50 52 35 32 31
18 14 6 45 49 32 29 28
17 13 5 40 46 30 26 25
16 12 5 36 43 27 24 23
14 10 4 32 38 24 21 21
11 9 3 29 35 22 19 20
9 7 3 26 32 19 17 18
7 6 2 22 28 16 14 17
5 5 2 19 25 14 12 16
4 4 1 16 23 12 10 14
4 5 1 14 20 10 9 12
3 5 1 11 18 9 7 10
3 6 1 8 16 7 6 8
3 6 1 6 14 6 5 7
1 6 2 4 12 5 4 6
0 5 2 3 11 4 3 5
-2 3 2 1 9 3 2 4
-3 2 2 0 8 2 1 3
-4 1 2 -2 7 1 0 3
-5 0 1 -3 6 0 -2 2
-5 0 1 -4 5 -2 -3 2
-5 0 1 -5 5 -3 -3 1
-5 0 1 -6 4 -4 -4 1
-5 0 1 -6 4 -4 -4 1
-5 0 0 -8 3 -5 -5 0
-5 -2 -2 -9 2 -6 -6 -2
-5 -2 -2 -10 1 -7 -7 -3
-5 -3 -3 -11 0 -8 -8 -4
-5 -3 -3 -12 0 -8 -8 -4
-4 -4 -4 -13 -2 -9 -9 -5
-4 -4 -3 -13 -2 -9 -9 -5
-5 -5 -2 -12 -2 -8 -8 -4
-5 -5 0 -12 -2 -8 -8 -4
-5 -5 0 -12 -2 -8 -8 -4
-6 -6 1 -11 -2 -7 -7 -3
-7 -6 0 -12 -3 -8 -8 -3
-8 -5 0 -12 -3 -8 -8 -3
-9 -5 -2 -13 -4 -9 -9 -3
-9 -5 -2 -13 -4 -9 -9 -3
-10 -4 -3 -14 -5 -10 -10 -4
-9 -4 -3 -14 -5 -10 -10 -4
-8 -4 -3 -14 -6 -10 -10 -4
-7 -4 -3 -14 -6 -10 -10 -4
-7 -4 -3 -14 -6 -10 -10 -4
-6 -4 -3 -14 -7 -10 -11 -5
-6 -4 -3 -14 -7 -10 -11 -5
-7 -4 -2 -15 -7 -11 -11 -5
-7 -4 -2 -15 -7 -11 -11 -5
-7 -4 -2 -15 -7 -11 -11 -5
-8 -5 0 -16 -8 -12 -11 -6
-8 -5 0 -16 -8 -12 -11 -6
-9 -5 0 -15 -8 -12 -11 -6
-9 -5 0 -15 -8 -12 -11 -6
-9 -5 0 -15 -8 -12 -11 -6
-10 -4 0 -14 -8 -12 -11 -6
-10 -4 0 -14 -8 -12 -11 -6
-10 -4 0 -15 -8 -12 -11 -6
-10 -4 0 -15 -8 -12 -11 -6
-10 -4 0 -15 -8 -12 -11 -6
-9 -3 1 -16 -8 -13 -10 -5
-9 -3 1 -16 -8 -13 -10 -5
-8 -3 0 -16 -8 -13 -10 -5
-8 -3 0 -16 -8 -13 -10 -5
-8 -3 0 -16 -8 -13 -10 -5
-7 -2 -2 -15 -8 -13 -11 -6
-8 -2 -2 -14 -8 -13 -11 -6
-9 -3 -2 -14 -8 -12 -10 -5
-10 -3 -2 -13 -8 -12 -10 -5
-10 -3 -2 -13 -8 -12 -10 -5
-11 -4 0 -12 -8 -11 -9 -4
-10 -4 0 -12 -8 -11 -9 -4
-10 -3 1 -12 -7 -11 -9 -4
-9 -3 1 -12 -7 -11 -9 -4
-9 -3 1 -12 -7 -11 -9 -4
-8 -2 2 -11 -6 -11 -9 -4
-8 -2 2 -11 -6 -11 -9 -4
-8 -2 1 -11 -5 -11 -9 -4
-8 -2 1 -11 -5 -11 -9 -4
-8 -2 1 -11 -5 -11 -9 -4
-8 0 0 -10 -4 -10 -8 -3
-8 -2 0 -10 -4 -10 -8 -4
-7 -2 0 -11 -5 -10 -9 -4
-7 -3 0 -11 -5 -10 -9 -5
-7 -3 0 -11 -5 -10 -9 -5
-6 -4 -2 -12 -6 -11 -10 -6
-7 -4 0 -12 -5 -10 -9 -5
-8 -4 0 -11 -4 -9 -8 -4
-9 -4 1 -11 -3 -8 -7 -3
-9 -4 1 -11 -3 -7 -7 -2
-10 -4 2 -10 -2 -6 -6 0
-9 -4 2 -10 -2 -7 -6 0
-8 -4 2 -9 -2 -7 -6 -2
-7 -4 2 -9 -2 -8 -6 -2
-7 -4 2 -9 -2 -8 -6 -2
-6 -3 1 -8 -3 -9 -7 -3
-7 -3 1 -8 -3 -9 -7 -3
-8 -3 1 -8 -3 -8 -6 -2
-9 -3 1 -8 -3 -8 -6 -2
-10 -3 1 -8 -3 -8 -6 -2
-11 -3 1 -9 -3 -7 -5 0
-10 -3 1 -9 -3 -7 -5 0
-9 -3 0 -9 -3 -7 -5 -2
-8 -3 0 -9 -3 -7 -5 -2
-8 -3 0 -9 -3 -7 -5 -2
-7 -3 -2 -9 -4 -7 -6 -3
-7 -3 -2 -9 -4 -7 -6 -3
-6 -3 -2 -10 -4 -7 -6 -3
-6 -3 -2 -10 -4 -7 -6 -3
-6 -3 -2 -10 -4 -7 -6 -3
-5 -3 -2 -11 -5 -8 -5 -2
-5 -3 -2 -11 -5 -8 -5 -2
-6 -3 0 -12 -6 -8 -6 -3
-6 -3 0 -12 -6 -8 -6 -3
-6 -3 0 -12 -6 -8 -6 -3
-7 -3 1 -13 -7 -8 -7 -4
-7 -3 1 -13 -7 -9 -7 -4
-7 -3 0 -13 -8 -9 -8 -5
-7 -3 0 -13 -8 -10 -8 -5
-7 -3 0 -13 -8 -10 -8 -5
-7 -4 -2 -14 -9 -11 -9 -6
-7 -4 -2 -14 -9 -11 -9 -6
-8 -4 -2 -14 -9 -11 -9 -6
-8 -4 -2 -14 -9 -11 -9 -6
-8 -4 -2 -14 -9 -11 -9 -6
-9 -5 -3 -15 -9 -11 -9 -6
-7 -5 -3 -15 -9 -11 -9 -6
-6 -5 -3 -16 -9 -11 -9 -6
-5 -5 -3 -16 -9 -11 -9 -6
-4 -5 -3 -16 -9 -11 -9 -6
-3 -4 -4 -17 -10 -11 -8 -5
-4 -4 -4 -17 -10 -11 -8 -5
-5 -3 -4 -17 -10 -12 -9 -6
-6 -3 -4 -17 -10 -12 -9 -6
-6 -3 -4 -17 -10 -12 -9 -6
-7 -2 -4 -17 -10 -13 -10 -7
-7 -3 -4 -17 -10 -13 -10 -7
-7 -3 -4 -18 -11 -13 -10 -7
-7 -4 -4 -18 -11 -13 -10 -7
-7 -4 -4 -18 -11 -13 -10 -7
-7 -5 -3 -19 -12 -13 -9 -7
-7 -5 -3 -18 -12 -13 -9 -7
-6 -5 -3 -18 -12 -13 -10 -7
-6 -5 -3 -17 -12 -13 -10 -7
-6 -5 -3 -17 -12 -13 -10 -7
-5 -4 -4 -16 -11 -14 -11 -7
-5 -4 -4 -17 -11 -14 -11 -7
-5 -3 -4 -17 -12 -14 -11 -7
-5 -3 -4 -18 -12 -14 -11 -7
-5 -3 -4 -18 -12 -14 -11 -7
-5 -2 -4 -19 -13 -13 -11 -7
-5 -2 -4 -19 -12 -13 -11 -7
-5 -2 -4 -18 -12 -13 -10 -7
-5 -2 -4 -18 -11 -13 -10 -7
-5 -2 -4 -18 -11 -13 -10 -7
-5 0 -4 -17 -10 -12 -9 -6
-5 1 -3 -16 -10 -12 -8 -5
-5 2 -3 -16 -10 -11 -8 -5
-5 3 -2 -15 -10 -11 -7 -4
-5 3 -2 -15 -10 -11 -7 -4
-5 5 0 -13 -8 -9 -5 -3
-4 7 1 -12 -7 -8 -4 -2
-2 9 2 -11 -6 -7 -3 0
1 11 3 -9 -4 -5 0 1
2 13 4 -8 -3 -4 1 2
3 14 5 -7 -2 -3 2 3
3 14 4 -8 -3 -3 2 3
3 14 4 -9 -3 -4 1 3
3 14 3 -10 -4 -4 1 3
3 14 3 -11 -4 -4 1 3
3 13 2 -11 -4 -4 1 4
3 14 2 -9 -2 -3 3 5
3 14 2 -8 0 0 4 6
3 15 2 -6 2 2 6 8
3 15 2 -4 4 3 8 9
4 16 2 -3 5 4 9 10
6 15 0 -3 5 4 9 10
7 14 -2 -3 5 4 9 10
8 13 -3 -3 5 4 9 10
9 13 -4 -3 5 4 9 10
10 12 -5 -4 6 4 9 10
10 13 -4 -3 7 5 9 10
10 14 -4 -3 7 5 9 10
10 15 -3 -2 8 6 9 10
10 15 -3 -2 8 6 9 10
11 15 -2 -3 8 6 10 11
11 14 -4 -5 5 4 8 10
11 12 -5 -8 2 2 7 9
11 10 -6 -11 0 0 6 8
11 9 -7 -14 -4 -3 5 8
11 8 -8 -15 -5 -4 4 7
10 7 -8 -15 -5 -4 3 6
9 6 -7 -15 -5 -5 3 6
8 5 -7 -15 -5 -5 2 5
7 5 -7 -15 -5 -5 2 5
5 3 -6 -16 -7 -7 0 3
4 2 -6 -18 -8 -9 -2 2
2 1 -5 -19 -10 -10 -4 0
1 -2 -5 -20 -11 -12 -5 -2
-2 -3 -5 -21 -13 -14 -7 -4
-3 -4 -4 -22 -14 -15 -8 -5
-3 -5 -4 -22 -14 -15 -8 -6
-3 -5 -4 -23 -15 -15 -9 -7
-3 -6 -4 -23 -15 -15 -9 -7
-3 -6 -4 -23 -15 -15 -9 -8
-3 -7 -3 -24 -17 -16 -10 -9
-4 -9 -4 -25 -18 -18 -11 -10
-5 -10 -5 -26 -20 -19 -12 -11
-5 -11 -6 -26 -21 -20 -12 -11
-6 -12 -7 -27 -23 -21 -13 -12
-7 -13 -8 -28 -24 -22 -14 -13
-7 -12 -8 -28 -23 -22 -14 -13
-8 -12 -7 -27 -22 -22 -14 -13
-8 -11 -7 -27 -22 -22 -14 -13
-8 -11 -7 -27 -21 -22 -14 -13
-9 -10 -6 -26 -20 -21 -14 -12
-9 -10 -6 -26 -20 -21 -14 -12
-9 -10 -6 -26 -20 -21 -14 -12
-9 -10 -6 -26 -20 -21 -14 -12
-9 -10 -6 -26 -20 -21 -14 -12
-10 -9 -5 -25 -20 -21 -15 -12
-9 -9 -5 -25 -20 -21 -15 -12
-9 -9 -5 -25 -20 -21 -15 -12
-8 -9 -5 -25 -20 -21 -15 -12
-8 -9 -5 -25 -20 -21 -15 -12
-7 -10 -4 -26 -20 -21 -16 -13
-7 -10 -4 -25 -20 -21 -16 -12
-7 -10 -4 -25 -20 -21 -16 -12
-7 -10 -4 -24 -20 -21 -16 -11
-7 -10 -4 -24 -20 -21 -16 -11
-8 -10 -4 -23 -21 -21 -15 -10
-8 -10 -4 -23 -20 -21 -15 -10
-8 -10 -4 -23 -20 -21 -14 -10
-8 -10 -4 -23 -19 -21 -14 -10
-8 -10 -4 -23 -19 -21 -14 -10
-9 -10 -4 -24 -18 -20 -13 -10
-9 -10 -4 -24 -18 -20 -13 -10
-9 -9 -4 -24 -18 -20 -13 -10
-9 -9 -4 -24 -18 -20 -13 -10
-9 -9 -4 -24 -18 -20 -13 -10
-9 -8 -4 -24 -18 -19 -14 -11
-9 -8 -2 -23 -18 -19 -14 -11
-9 -8 0 -22 -18 -19 -14 -11
-9 -8 1 -22 -18 -19 -14 -11
-9 -8 2 -21 -18 -19 -14 -11
-8 -8 6 -13 -14 -16 -13 -11
-7 -7 12 -2 -7 -13 -11 -11
-6 -6 18 10 1 -9 -10 -10
-6 -6 23 21 8 -6 -8 -10
-5 -5 29 32 15 -2 -6 -10
2 -2 38 65 42 19 10 1
10 3 49 106 76 48 32 15
19 7 60 147 112 75 54 28
27 11 70 188 147 104 75 43
35 15 80 230 182 132 97 56
47 24 76 239 205 158 121 75
60 34 63 233 224 184 147 96
72 45 50 227 242 209 172 117
85 55 37 222 261 234 197 138
98 65 24 216 279 260 223 158
91 63 9 167 244 231 205 151
74 53 -9 97 184 179 167 130
58 43 -26 28 125 126 129 108
42 32 -44 -41 65 72 91 87
24 22 -60 -110 5 19 53 65
11 17 -68 -153 -41 -18 24 47
-3 14 -72 -186 -83 -49 0 29
-16 11 -76 -218 -124 -78 -25 13
-29 8 -80 -249 -165 -109 -50 -5
-43 5 -85 -282 -206 -139 -74 -21
-44 0 -86 -276 -208 -144 -82 -29
-38 -7 -83 -251 -192 -137 -81 -33
-34 -14 -81 -225 -176 -129 -81 -37
-29 -20 -79 -200 -160 -120 -80 -41
-24 -26 -77 -175 -144 -113 -80 -45
-22 -27 -69 -151 -126 -101 -73 -44
-21 -23 -58 -129 -108 -88 -63 -37
-20 -20 -47 -106 -90 -74 -53 -32
-20 -16 -35 -83 -71 -60 -43 -27
-19 -13 -24 -61 -53 -47 -33 -21
-18 -11 -18 -49 -43 -39 -27 -18
-16 -10 -13 -41 -36 -34 -24 -16
-15 -9 -9 -34 -30 -30 -21 -14
-13 -9 -4 -26 -24 -25 -18 -12
-12 -8 1 -19 -18 -21 -15 -10
-11 -7 3 -16 -16 -19 -14 -9
-11 -7 4 -15 -16 -19 -14 -9
-11 -8 4 -15 -15 -19 -15 -10
-11 -8 5 -14 -15 -19 -15 -10
-11 -8 5 -14 -15 -19 -15 -10
-11 -9 6 -13 -14 -18 -16 -11
-11 -9 6 -12 -14 -18 -16 -11
-11 -9 5 -11 -14 -18 -16 -12
-11 -9 5 -11 -14 -18 -16 -12
-11 -9 5 -10 -14 -18 -16 -12
-10 -9 4 -9 -13 -18 -17 -13
-10 -9 5 -7 -12 -17 -16 -12
-9 -8 5 -6 -11 -16 -15 -12
-9 -8 6 -4 -10 -16 -15 -11
-9 -8 6 -3 -9 -15 -14 -11
-8 -7 7 -2 -8 -14 -13 -10
-8 -7 7 -2 -8 -14 -13 -10
-9 -7 8 0 -7 -13 -13 -9
-9 -7 8 0 -7 -13 -13 -9
-9 -7 8 0 -7 -13 -13 -9
-10 -7 9 1 -6 -12 -12 -8
-9 -7 9 1 -6 -12 -12 -8
-8 -7 9 1 -6 -12 -13 -9
-7 -7 9 1 -6 -12 -13 -10
-6 -7 9 1 -6 -12 -13 -10
-5 -8 9 2 -6 -13 -14 -11
-5 -8 9 2 -5 -13 -14 -11
-5 -8 9 3 -4 -12 -13 -10
-5 -8 9 3 -4 -12 -12 -10
-5 -8 9 3 -3 -12 -12 -10
-6 -7 10 4 -2 -11 -11 -9
-6 -7 10 5 -2 -11 -11 -9
-7 -7 10 6 0 -11 -11 -9
-7 -7 10 6 0 -11 -11 -9
-7 -7 10 7 0 -11 -11 -9
-8 -6 9 8 1 -10 -12 -9
-8 -5 9 9 2 -10 -12 -9
-7 -4 10 10 3 -9 -11 -9
-7 -4 10 10 4 -8 -11 -9
-7 -3 10 11 5 -8 -11 -9
-6 -2 11 12 6 -7 -10 -8
-5 -2 11 13 6 -7 -10 -8
-4 -3 11 14 7 -6 -9 -7
-4 -4 11 15 8 -5 -9 -6
-3 -4 11 16 8 -5 -9 -6
-2 -5 12 17 9 -4 -8 -5
-3 -5 12 18 10 -4 -8 -5
-4 -4 12 19 11 -4 -8 -5
-4 -4 12 19 11 -4 -8 -5
-5 -4 12 20 12 -4 -8 -5
-6 -3 13 22 13 -3 -7 -5
-6 -3 13 23 14 -2 -7 -5
-5 -2 13 25 15 0 -6 -5
-4 0 13 27 15 0 -6 -5
-4 0 13 29 16 1 -6 -5
-3 1 14 31 18 3 -4 -4
-3 1 15 33 19 4 -3 -2
-3 2 16 35 21 6 0 0
-3 2 16 37 23 7 1 2
-3 2 17 39 25 9 3 3
-4 3 18 42 26 10 4 4
-3 3 18 44 26 10 4 4
-2 3 18 46 27 11 5 4
0 3 18 48 28 11 5 4
1 3 18 51 28 11 5 4
2 4 18 53 30 13 6 5
3 5 18 55 33 14 8 5
5 7 19 57 35 16 9 6
6 8 20 59 38 17 11 6
7 10 20 61 42 19 12 6
8 11 21 64 44 21 13 8
8 11 21 67 46 22 15 10
8 11 22 71 48 24 17 12
8 11 23 75 50 26 18 14
8 11 23 78 53 28 20 16
9 10 24 81 55 30 22 17
10 10 24 84 57 31 23 17
11 11 24 86 60 33 25 18
12 12 24 88 62 35 27 19
13 12 24 90 65 37 29 19
14 13 24 92 67 39 30 21
15 13 24 94 69 40 32 23
16 14 24 97 71 43 34 25
16 15 24 99 73 45 35 27
17 15 24 102 75 47 37 29
18 16 24 103 76 48 38 30
18 16 24 104 78 49 40 31
18 17 23 105 79 50 42 32
18 17 22 106 81 51 44 33
18 17 22 107 82 52 45 34
20 18 21 108 84 53 46 35
22 18 21 109 85 54 47 36
24 19 21 110 86 56 48 38
26 19 21 111 86 57 48 39
28 19 21 112 87 58 49 40
29 20 22 113 88 59 50 42
31 20 20 111 88 59 50 42
32 21 18 109 87 58 50 42
34 21 17 108 86 58 50 42
35 21 15 106 86 58 50 42
36 22 14 104 85 57 50 40
34 22 14 103 82 57 50 40
33 22 13 101 80 56 50 40
31 22 12 99 79 56 50 40
30 22 12 97 77 56 50 40
29 23 11 94 75 54 49 40
29 23 11 89 71 52 48 38
29 22 10 84 68 50 46 37
29 21 9 78 65 48 45 35
29 21 9 73 62 45 44 34
29 19 8 68 59 43 42 32
27 18 8 64 55 39 38 31
25 16 8 60 52 37 36 29
24 14 8 56 49 34 33 27
22 12 8 52 46 32 31 25
21 11 7 48 42 29 28 23
19 10 5 43 37 26 25 21
18 9 4 38 33 23 22 19
16 8 2 33 29 20 19 17
15 7 1 28 25 18 16 14
13 6 0 25 22 15 13 13
11 5 0 22 19 13 12 11
8 4 0 19 16 10 10 9
6 4 0 16 13 8 8 8
4 3 0 13 10 6 6 6
2 2 0 10 7 3 4 5
2 2 0 6 5 1 2 3
1 1 0 3 3 -2 0 1
0 1 0 -2 1 -4 -3 0
0 1 0 -5 -3 -6 -5 -3
-2 0 -2 -7 -5 -7 -6 -4
-2 -2 -2 -8 -7 -8 -7 -5
-2 -4 -3 -10 -9 -9 -8 -6
-2 -5 -3 -11 -11 -10 -9 -6
-2 -6 -3 -12 -13 -11 -10 -7
-3 -7 -4 -14 -14 -12 -11 -8
-3 -7 -4 -15 -15 -13 -12 -9
-4 -7 -5 -17 -16 -14 -13 -10
-5 -7 -5 -19 -16 -15 -13 -11
-5 -7 -5 -21 -17 -16 -14 -12
-6 -8 -6 -22 -18 -17 -15 -13
-6 -8 -6 -22 -18 -17 -15 -13
-6 -8 -6 -22 -18 -17 -15 -13
-6 -8 -6 -22 -18 -17 -15 -13
-6 -8 -6 -22 -18 -17 -15 -13
-6 -7 -7 -22 -19 -17 -15 -12
-6 -7 -7 -22 -20 -17 -15 -12
-7 -8 -7 -22 -21 -18 -15 -12
-8 -8 -7 -22 -21 -18 -15 -12
-8 -8 -7 -22 -22 -18 -15 -12
-9 -9 -6 -23 -23 -19 -16 -13
-9 -9 -6 -23 -23 -19 -16 -13
-8 -9 -6 -24 -23 -19 -15 -13
-8 -9 -6 -25 -23 -19 -15 -13
-8 -9 -6 -25 -23 -19 -15 -13
-7 -10 -6 -26 -23 -20 -14 -13
-7 -10 -6 -26 -23 -20 -15 -13
-7 -10 -7 -26 -23 -21 -16 -14
-7 -10 -7 -26 -23 -21 -17 -14
-7 -10 -7 -26 -23 -21 -18 -14
-7 -9 -8 -26 -24 -22 -19 -15
-7 -9 -8 -26 -24 -22 -19 -15
-8 -10 -8 -26 -24 -22 -19 -15
-8 -11 -8 -26 -24 -22 -19 -15
-8 -11 -8 -26 -24 -22 -19 -15
-9 -12 -8 -25 -25 -22 -19 -15
-10 -12 -8 -25 -25 -22 -19 -15
-11 -12 -8 -25 -25 -22 -18 -15
-11 -12 -8 -25 -25 -22 -18 -15
-12 -12 -8 -25 -25 -22 -18 -15
-13 -12 -7 -26 -25 -21 -17 -14
-13 -12 -7 -26 -25 -21 -17 -14
-12 -12 -7 -26 -25 -21 -17 -15
-11 -12 -7 -26 -25 -21 -17 -16
-11 -12 -7 -26 -25 -21 -17 -16
-10 -12 -7 -26 -26 -21 -18 -17
-10 -12 -7 -26 -26 -21 -18 -17
-9 -11 -7 -25 -25 -21 -18 -16
-8 -11 -7 -25 -25 -21 -18 -15
-8 -11 -7 -25 -25 -21 -18 -15
-7 -10 -6 -24 -24 -20 -17 -14
-7 -10 -6 -24 -24 -20 -17 -14
-7 -10 -6 -24 -24 -21 -18 -15
-7 -10 -6 -24 -24 -21 -18 -15
-7 -10 -6 -24 -24 -21 -18 -15
-8 -9 -7 -25 -25 -22 -19 -16
-8 -9 -7 -25 -25 -22 -19 -16
-9 -10 -7 -24 -24 -22 -19 -16
-10 -11 -7 -23 -24 -22 -19 -16
-10 -11 -7 -23 -24 -22 -19 -16
-11 -12 -6 -22 -23 -21 -19 -16
-11 -12 -6 -22 -23 -21 -19 -16
-11 -11 -6 -22 -23 -20 -18 -15
-11 -10 -6 -22 -23 -20 -17 -15
-11 -10 -6 -22 -23 -20 -17 -15
-10 -9 -7 -21 -21 -17 -15 -13
-8 -7 -7 -17 -17 -13 -12 -10
-5 -5 -6 -13 -12 -9 -8 -7
-3 -4 -5 -9 -7 -5 -5 -5
0 -2 -5 -5 -3 0 -2 -2
3 1 -4 2 5 7 4 3
5 4 -4 11 14 15 11 8
8 8 -3 20 24 23 18 14
10 11 -3 29 33 31 24 19
12 14 -3 38 43 39 31 24
15 18 -2 47 52 48 38 29
18 22 -2 54 60 55 46 35
21 26 -2 61 68 63 53 42
24 30 -2 68 76 71 60 47
27 34 -2 75 85 79 67 53
32 37 -4 82 92 87 74 59
38 38 -7 90 100 95 82 65
46 40 -10 97 108 103 91 71
53 42 -12 104 116 110 98 77
59 43 -15 111 125 118 106 84
66 44 -18 119 133 127 114 90
74 46 -22 128 143 135 122 96
82 47 -26 137 152 144 131 102
90 48 -30 146 161 152 139 108
98 50 -34 154 172 160 147 114
108 51 -36 176 191 176 158 121
120 51 -34 210 220 197 175 131
133 51 -33 242 248 219 190 140
145 50 -31 276 278 240 205 149
157 50 -29 310 307 262 222 158
175 50 -25 356 349 293 245 173
196 52 -17 413 404 335 276 191
217 55 -9 471 460 376 307 211
238 58 0 529 515 417 338 230
260 60 8 587 570 457 368 248
271 63 16 612 603 485 389 261
273 66 24 602 613 497 398 266
274 69 32 593 623 510 407 271
276 73 42 582 634 523 418 277
278 76 50 572 644 535 427 282
265 70 51 523 601 501 400 265
233 52 40 431 498 414 336 223
201 33 31 339 397 328 270 181
171 15 21 246 295 242 204 139
139 -3 11 155 193 156 139 97
111 -13 5 97 127 100 94 67
87 -15 3 75 97 75 71 50
62 -17 1 53 67 52 48 33
38 -19 -2 31 37 27 24 16
14 -21 -4 10 8 4 1 0
0 -22 -6 -5 -9 -11 -13 -10
-3 -20 -6 -9 -13 -14 -15 -12
-6 -18 -5 -13 -16 -16 -17 -13
-9 -16 -4 -17 -20 -19 -19 -14
-11 -14 -4 -21 -24 -22 -21 -16
-14 -12 -3 -25 -27 -25 -24 -17
-17 -13 -3 -28 -31 -27 -26 -19
-19 -14 -3 -31 -34 -30 -28 -21
-22 -15 -4 -34 -37 -33 -30 -23
-25 -16 -4 -37 -41 -35 -32 -25
-27 -17 -5 -40 -44 -37 -34 -26
-27 -17 -6 -43 -46 -39 -35 -27
-27 -17 -6 -45 -47 -40 -36 -28
-27 -17 -7 -48 -48 -41 -38 -29
-27 -17 -8 -50 -50 -44 -39 -30
-26 -17 -9 -52 -51 -45 -40 -31
-26 -17 -9 -52 -52 -45 -40 -31
-26 -17 -9 -52 -52 -45 -40 -31
-26 -17 -9 -52 -53 -46 -40 -31
-26 -17 -9 -52 -54 -46 -40 -31
-27 -18 -8 -53 -55 -47 -40 -30
-27 -17 -8 -54 -55 -47 -40 -30
-27 -16 -8 -54 -55 -47 -40 -30
-27 -15 -8 -55 -56 -47 -40 -30
-27 -14 -8 -56 -56 -47 -40 -30
-28 -13 -8 -57 -57 -48 -41 -30
-28 -13 -8 -57 -57 -49 -43 -30
-28 -14 -9 -57 -58 -49 -43 -31
-29 -15 -10 -58 -59 -50 -44 -32
-29 -15 -10 -58 -59 -51 -45 -32
-30 -16 -11 -59 -60 -52 -46 -33
-30 -16 -11 -59 -60 -52 -46 -33
-30 -15 -11 -60 -60 -52 -46 -33
-31 -14 -11 -61 -60 -52 -46 -33
-31 -14 -11 -61 -60 -52 -46 -33
-32 -13 -10 -62 -61 -52 -45 -32
-32 -12 -10 -62 -61 -52 -45 -32
-32 -11 -9 -62 -61 -52 -45 -32
-32 -10 -8 -62 -61 -52 -45 -31
-32 -9 -8 -62 -61 -52 -45 -31
-33 -8 -7 -61 -61 -52 -44 -30
-33 -7 -7 -61 -61 -51 -44 -29
-33 -6 -6 -61 -61 -51 -43 -29
-33 -5 -5 -61 -60 -50 -41 -28
-33 -4 -5 -61 -60 -49 -41 -27
-34 -3 -4 -61 -59 -48 -40 -26
-34 -3 -4 -62 -61 -50 -41 -26
-34 -3 -4 -63 -62 -51 -41 -26
-34 -3 -5 -64 -63 -53 -43 -27
-34 -3 -5 -65 -65 -55 -44 -27
-35 -3 -6 -66 -66 -56 -45 -28
-35 0 -6 -66 -66 -56 -45 -27
-35 1 -6 -66 -66 -56 -45 -27
-34 3 -6 -66 -66 -56 -45 -26
-34 5 -6 -66 -66 -56 -45 -25
-33 6 -6 -67 -66 -55 -45 -24
-33 6 -7 -69 -67 -55 -45 -24
-33 7 -8 -71 -68 -55 -45 -24
-33 8 -10 -73 -70 -56 -45 -24
-33 8 -11 -75 -71 -56 -45 -24
-33 9 -12 -77 -72 -57 -45 -24
-35 9 -11 -78 -73 -58 -45 -24
-36 10 -10 -78 -74 -58 -45 -23
-38 11 -9 -79 -75 -59 -45 -22
-40 11 -8 -80 -76 -60 -45 -22
-41 12 -7 -82 -78 -62 -45 -21
-43 12 -7 -87 -82 -65 -47 -23
-44 12 -8 -91 -88 -69 -50 -25
-45 11 -9 -95 -92 -72 -53 -27
-46 11 -9 -99 -96 -76 -56 -28
-47 10 -10 -102 -99 -78 -58 -30
-50 10 -10 -104 -101 -79 -59 -31
-52 10 -9 -105 -102 -81 -60 -31
-54 9 -8 -107 -104 -82 -62 -32
-56 9 -8 -109 -106 -85 -63 -33
-59 8 -7 -111 -108 -87 -65 -34
-62 7 -6 -113 -111 -90 -67 -37
-65 6 -6 -115 -115 -94 -70 -39
-68 4 -5 -118 -118 -97 -73 -41
-72 3 -4 -120 -122 -101 -76 -44
-74 2 -3 -122 -124 -103 -78 -46
-75 1 -3 -124 -127 -105 -80 -47
-77 0 -3 -126 -129 -107 -81 -48
-78 -3 -3 -128 -131 -109 -83 -50
-80 -4 -3 -130 -132 -110 -86 -51
-81 -5 -3 -131 -134 -112 -87 -52
-81 -5 -3 -130 -134 -112 -87 -52
-81 -5 -3 -130 -134 -113 -88 -52
-80 -5 -3 -129 -135 -114 -89 -52
-80 -5 -3 -128 -135 -114 -89 -52
-79 -4 -2 -127 -136 -115 -90 -53
-78 -5 -2 -127 -135 -115 -90 -53
-78 -5 0 -126 -134 -115 -90 -53
-77 -6 1 -124 -133 -114 -89 -53
-76 -7 1 -124 -132 -114 -89 -53
-75 -8 2 -122 -131 -113 -88 -52
-75 -8 2 -118 -128 -112 -88 -52
-75 -8 2 -115 -126 -111 -88 -52
-75 -8 2 -111 -123 -109 -88 -52
-75 -8 2 -108 -121 -108 -88 -52
-75 -9 2 -104 -118 -107 -87 -53
-72 -10 2 -100 -115 -104 -83 -52
-70 -11 2 -96 -112 -102 -81 -51
-68 -13 3 -93 -109 -99 -79 -49
-66 -14 3 -89 -105 -97 -77 -48
-64 -15 4 -85 -102 -94 -75 -47
-61 -15 4 -79 -98 -92 -73 -46
-59 -16 4 -74 -93 -89 -71 -46
-57 -17 4 -70 -89 -86 -69 -45
-55 -17 4 -65 -85 -82 -68 -44
-52 -18 5 -61 -80 -79 -65 -43
-50 -18 5 -58 -76 -75 -63 -40
-47 -18 5 -54 -71 -72 -60 -39
-44 -18 5 -51 -67 -68 -57 -37
-40 -18 5 -48 -63 -65 -54 -35
-38 -18 4 -44 -59 -61 -52 -34
-36 -18 4 -41 -56 -58 -49 -33
-34 -18 3 -38 -52 -55 -47 -32
-32 -18 2 -36 -49 -52 -45 -30
-31 -18 2 -33 -46 -49 -43 -29
-29 -17 1 -31 -43 -47 -40 -28
-27 -17 1 -31 -40 -44 -38 -27
-26 -17 0 -31 -39 -41 -37 -27
-24 -17 -2 -31 -37 -39 -35 -26
-22 -17 -2 -31 -35 -37 -33 -25
-21 -18 -3 -30 -34 -35 -32 -24
-21 -18 -3 -30 -33 -35 -31 -24
-21 -18 -3 -29 -32 -34 -30 -24
-20 -18 -3 -28 -31 -33 -29 -23
-20 -18 -3 -28 -30 -33 -28 -23
-19 -17 -4 -27 -29 -32 -27 -22
-19 -18 -4 -27 -28 -31 -26 -22
-19 -19 -4 -27 -28 -29 -26 -22
-19 -20 -5 -27 -27 -28 -25 -21
-19 -21 -5 -27 -26 -26 -24 -21
-19 -22 -6 -27 -25 -25 -23 -20
-19 -22 -6 -27 -25 -25 -23 -20
-18 -21 -6 -27 -25 -25 -23 -20
-17 -20 -6 -27 -24 -24 -23 -19
-17 -20 -6 -27 -24 -24 -23 -19
-16 -19 -7 -26 -23 -23 -22 -18
-16 -19 -7 -26 -23 -23 -22 -18
-16 -18 -7 -26 -23 -23 -22 -18
-15 -17 -7 -26 -22 -22 -21 -18
-15 -17 -7 -26 -22 -22 -21 -18
-14 -16 -6 -26 -21 -21 -20 -17
-14 -17 -6 -26 -21 -21 -20 -17
-14 -17 -6 -26 -21 -21 -20 -17
-14 -18 -6 -25 -21 -21 -20 -17
-14 -19 -6 -25 -21 -21 -20 -17
-15 -20 -6 -24 -20 -22 -21 -18
-15 -20 -6 -24 -20 -22 -21 -18
-15 -20 -6 -24 -20 -21 -21 -18
-15 -20 -6 -24 -20 -20 -21 -18
-15 -20 -6 -24 -20 -20 -21 -18
-16 -21 -5 -24 -20 -19 -20 -17
-16 -20 -5 -24 -20 -19 -20 -17
-16 -19 -5 -24 -20 -19 -20 -17
-15 -18 -4 -24 -20 -19 -19 -16
-15 -17 -4 -24 -20 -19 -19 -16
-14 -16 -3 -23 -19 -19 -18 -15
-14 -16 -3 -23 -19 -19 -18 -15
-14 -16 -3 -23 -19 -19 -18 -15
-14 -16 -3 -24 -19 -19 -18 -15
-14 -16 -3 -24 -19 -19 -18 -15
-15 -16 -4 -25 -20 -18 -18 -15
-14 -16 -4 -25 -20 -18 -18 -15
-13 -16 -4 -25 -20 -18 -18 -15
-12 -16 -4 -25 -20 -18 -18 -15
-11 -16 -4 -25 -20 -18 -18 -15
-10 -16 -4 -24 -19 -18 -19 -15
-11 -16 -4 -24 -19 -18 -19 -15
-13 -16 -4 -24 -19 -18 -19 -15
-14 -16 -4 -24 -19 -18 -19 -15
-16 -16 -4 -24 -19 -18 -19 -15
-17 -16 -3 -23 -18 -17 -18 -14
-17 -16 -3 -23 -18 -17 -18 -14
-17 -15 -3 -23 -17 -17 -18 -14
-16 -14 -3 -22 -16 -17 -18 -14
-16 -14 -3 -22 -16 -17 -18 -14
-15 -13 -3 -21 -15 -17 -18 -15
-14 -13 -3 -21 -15 -17 -18 -15
-14 -13 -3 -21 -15 -17 -18 -15
-13 -13 -3 -22 -15 -17 -18 -15
-12 -13 -3 -22 -15 -17 -18 -15
-11 -14 -4 -23 -16 -16 -18 -14
-11 -14 -4 -23 -16 -16 -18 -14
-11 -14 -4 -23 -16 -16 -18 -14
-12 -15 -4 -22 -16 -16 -17 -14
-12 -15 -4 -22 -16 -16 -17 -14
-13 -16 -3 -21 -15 -16 -16 -14
-13 -16 -3 -21 -15 -16 -16 -14
-14 -16 -3 -21 -15 -16 -16 -14
-14 -16 -3 -21 -15 -16 -16 -14
-15 -16 -3 -21 -15 -16 -16 -14
-16 -17 -4 -22 -16 -16 -17 -14
-16 -17 -4 -22 -16 -16 -17 -14
-15 -17 -4 -22 -16 -16 -17 -14
-15 -16 -4 -22 -15 -16 -17 -14
-14 -16 -4 -22 -15 -16 -17 -14
-13 -15 -4 -23 -14 -15 -16 -13
-13 -15 -4 -23 -14 -15 -16 -13
-13 -15 -4 -23 -14 -15 -16 -13
-12 -16 -4 -23 -14 -15 -16 -13
-12 -16 -4 -23 -14 -15 -16 -13
-11 -17 -4 -22 -13 -14 -16 -13
-11 -17 -4 -22 -13 -14 -16 -13
-11 -17 -4 -22 -13 -14 -16 -13
-11 -17 -4 -22 -13 -14 -16 -13
-11 -17 -4 -22 -13 -14 -16 -13
-10 -16 -5 -22 -13 -15 -17 -14
-10 -16 -5 -22 -13 -15 -17 -14
-10 -15 -5 -22 -13 -15 -17 -14
-10 -15 -5 -22 -13 -15 -17 -14
-10 -14 -5 -22 -13 -15 -17 -14
-10 -13 -5 -23 -13 -14 -16 -13
-11 -14 -5 -23 -13 -14 -16 -13
-11 -15 -5 -23 -13 -14 -16 -13
-12 -16 -5 -23 -13 -14 -16 -13
-13 -17 -5 -23 -13 -14 -16 -13
-14 -18 -5 -23 -12 -14 -16 -13
-13 -18 -5 -23 -12 -14 -16 -13
-11 -17 -5 -23 -12 -14 -16 -13
-10 -17 -5 -23 -12 -14 -16 -13
-8 -16 -5 -23 -12 -14 -16 -13
-7 -15 -6 -24 -12 -14 -16 -13
-7 -15 -6 -24 -12 -14 -16 -13
-7 -15 -6 -24 -12 -14 -16 -13
-8 -15 -6 -24 -12 -14 -16 -13
-8 -15 -6 -24 -12 -14 -16 -13
-9 -14 -6 -24 -11 -13 -16 -13
-9 -14 -6 -24 -11 -13 -16 -13
-9 -14 -6 -24 -11 -13 -16 -13
-10 -15 -6 -24 -11 -13 -16 -13
-10 -15 -6 -24 -11 -13 -16 -13
-11 -16 -5 -23 -11 -13 -17 -13
-11 -16 -5 -23 -11 -13 -17 -13
-10 -16 -6 -23 -11 -13 -17 -13
-10 -16 -6 -24 -12 -13 -17 -13
-9 -16 -7 -24 -12 -13 -17 -13
-8 -15 -8 -25 -13 -14 -17 -14
-8 -15 -8 -25 -13 -14 -17 -14
-8 -15 -8 -25 -13 -14 -17 -14
-8 -14 -8 -25 -12 -14 -17 -14
-8 -14 -8 -25 -12 -14 -17 -14
-9 -13 -7 -25 -11 -14 -17 -14
-9 -14 -7 -25 -11 -14 -17 -14
-9 -14 -7 -25 -11 -14 -17 -13
-9 -15 -7 -25 -11 -14 -17 -13
-9 -16 -7 -25 -11 -14 -17 -12
-9 -17 -7 -25 -12 -13 -16 -11
-9 -17 -7 -25 -12 -13 -16 -11
-9 -17 -7 -25 -12 -13 -16 -11
-10 -17 -7 -25 -12 -13 -16 -11
-10 -17 -7 -25 -12 -13 -16 -11
-11 -16 -7 -24 -11 -12 -17 -12
-11 -16 -7 -24 -11 -12 -17 -12
-10 -15 -7 -24 -11 -12 -17 -12
-10 -15 -7 -24 -11 -13 -17 -12
-9 -14 -7 -24 -11 -13 -17 -12
-8 -13 -7 -25 -12 -14 -17 -13
-8 -13 -7 -25 -12 -14 -17 -13
-8 -13 -7 -25 -12 -14 -17 -13
-8 -13 -7 -25 -12 -14 -17 -13
-8 -13 -7 -25 -12 -14 -17 -13
-7 -12 -7 -24 -11 -13 -17 -12
-7 -12 -7 -24 -11 -13 -17 -12
-8 -12 -7 -24 -11 -13 -17 -12
-8 -12 -7 -25 -11 -13 -17 -12
-9 -12 -7 -25 -11 -13 -17 -12
-10 -12 -8 -26 -11 -13 -17 -13
-10 -12 -8 -26 -11 -13 -17 -13
-10 -12 -8 -26 -11 -13 -17 -13
-10 -13 -8 -25 -11 -13 -17 -13
-10 -13 -8 -25 -11 -13 -17 -13
-9 -14 -8 -24 -11 -12 -17 -13
-9 -14 -8 -24 -11 -12 -17 -13
-9 -14 -8 -24 -11 -12 -17 -13
-9 -13 -8 -24 -11 -12 -17 -13
-9 -13 -8 -24 -11 -12 -17 -13
-9 -12 -8 -25 -10 -12 -17 -12
-9 -12 -8 -25 -10 -12 -17 -12
-8 -12 -8 -25 -10 -12 -17 -12
-8 -13 -8 -26 -10 -12 -17 -12
-7 -13 -8 -26 -10 -12 -17 -12
-6 -14 -8 -27 -11 -12 -16 -12
-6 -14 -8 -27 -11 -12 -16 -12
-7 -14 -8 -27 -11 -12 -16 -12
-7 -14 -8 -27 -11 -12 -16 -12
-8 -14 -8 -27 -11 -12 -16 -12
-9 -13 -8 -26 -10 -13 -17 -13
-9 -13 -8 -26 -10 -13 -17 -13
-9 -13 -7 -26 -10 -13 -17 -13
-8 -12 -7 -26 -10 -12 -17 -13
-8 -12 -6 -26 -10 -12 -17 -13
-7 -11 -5 -25 -9 -11 -17 -12
-7 -11 -5 -25 -9 -11 -17 -12
-7 -11 -5 -24 -9 -11 -17 -12
-7 -11 -5 -24 -8 -11 -17 -11
-7 -11 -5 -23 -8 -11 -17 -11
-7 -11 -5 -22 -7 -11 -16 -10
-7 -11 -5 -22 -7 -11 -16 -10
-7 -11 -5 -22 -7 -11 -16 -11
-7 -12 -5 -23 -7 -10 -16 -11
-7 -12 -5 -23 -7 -10 -16 -12
-8 -13 -6 -24 -8 -9 -15 -13
-8 -13 -6 -24 -8 -9 -15 -13
-8 -13 -6 -24 -8 -10 -16 -13
-9 -13 -7 -24 -9 -10 -16 -14
-9 -13 -7 -24 -9 -11 -17 -14
-10 -12 -8 -25 -10 -12 -18 -15
-10 -12 -8 -25 -10 -12 -18 -15
-10 -12 -8 -25 -10 -12 -18 -14
-10 -12 -8 -25 -10 -11 -18 -14
-10 -12 -8 -25 -10 -11 -18 -13
-9 -12 -7 -26 -9 -10 -17 -12
-9 -12 -7 -26 -9 -10 -17 -12
-9 -12 -7 -26 -9 -10 -17 -12
-9 -11 -6 -26 -9 -11 -17 -12
-9 -11 -6 -26 -9 -11 -17 -12
-9 -10 -5 -25 -9 -12 -17 -12
-9 -10 -5 -25 -9 -12 -17 -12
-9 -10 -5 -25 -9 -11 -17 -12
-9 -10 -5 -25 -9 -11 -17 -12
-9 -10 -5 -25 -9 -10 -17 -12
-9 -10 -5 -24 -8 -9 -16 -12
-9 -10 -5 -24 -8 -9 -16 -12
-8 -10 -5 -24 -8 -9 -16 -12
-7 -11 -5 -24 -8 -9 -16 -12
-6 -11 -5 -24 -8 -9 -16 -12
-5 -12 -5 -24 -9 -9 -17 -12
-6 -12 -5 -24 -9 -9 -17 -12
-7 -12 -5 -24 -9 -9 -17 -12
-8 -11 -5 -24 -9 -10 -17 -12
-9 -11 -5 -24 -9 -10 -17 -12
-10 -10 -5 -24 -9 -11 -18 -13
-10 -10 -5 -24 -9 -11 -18 -13
-9 -10 -5 -24 -9 -11 -18 -13
-8 -10 -6 -24 -9 -11 -18 -13
-7 -10 -6 -24 -9 -11 -18 -13
-6 -11 -7 -25 -9 -10 -19 -12
-6 -11 -7 -25 -9 -10 -19 -12
-6 -10 -7 -25 -9 -10 -19 -12
-7 -10 -7 -25 -9 -10 -18 -12
-7 -9 -7 -25 -9 -10 -18 -12
-8 -8 -6 -24 -8 -9 -17 -11
-8 -8 -6 -24 -8 -9 -17 -11
-8 -8 -6 -24 -8 -9 -17 -11
-8 -8 -6 -24 -9 -10 -17 -11
-8 -8 -6 -24 -9 -10 -17 -11
-9 -8 -5 -25 -10 -11 -18 -12
-9 -8 -5 -25 -10 -11 -18 -12
-9 -8 -5 -25 -10 -11 -18 -12
-9 -8 -5 -25 -10 -11 -18 -12
-9 -8 -5 -25 -10 -11 -18 -12
-9 -9 -5 -24 -10 -10 -18 -12
-9 -9 -5 -24 -10 -10 -18 -12
-9 -9 -5 -24 -10 -10 -18 -12
-9 -9 -5 -24 -10 -10 -18 -13
-9 -9 -5 -24 -10 -10 -18 -13
-9 -9 -5 -24 -10 -10 -19 -14
-9 -9 -5 -24 -10 -10 -19 -14
-9 -9 -5 -24 -10 -10 -19 -14
-9 -9 -5 -24 -10 -11 -19 -14
-9 -9 -5 -24 -10 -11 -19 -14
-8 -10 -5 -25 -10 -12 -20 -13
-8 -10 -5 -25 -10 -12 -20 -13
-8 -10 -5 -25 -10 -12 -20 -13
-9 -10 -5 -25 -9 -11 -19 -13
-9 -10 -5 -25 -9 -11 -19 -13
-10 -9 -4 -24 -8 -10 -18 -12
-9 -9 -4 -24 -8 -10 -18 -12
-8 -8 -4 -24 -8 -10 -19 -12
-7 -8 -4 -24 -9 -11 -19 -13
-6 -7 -4 -24 -9 -11 -20 -13
-5 -6 -3 -24 -10 -12 -21 -14
-5 -6 -3 -24 -10 -12 -21 -14
-5 -7 -3 -24 -10 -12 -21 -14
-5 -7 -4 -24 -10 -12 -21 -14
-5 -8 -4 -24 -10 -12 -21 -14
-6 -9 -5 -24 -11 -12 -21 -14
-6 -9 -5 -24 -11 -12 -21 -14
-6 -8 -5 -23 -11 -12 -21 -13
-7 -8 -4 -23 -10 -11 -20 -13
-7 -7 -4 -22 -10 -11 -20 -12
-8 -6 -3 -21 -9 -10 -19 -11
-8 -6 -3 -21 -9 -10 -19 -11
-8 -6 -3 -22 -9 -10 -19 -11
-8 -6 -4 -22 -9 -10 -19 -11
-8 -6 -4 -23 -9 -10 -19 -11
-7 -6 -5 -24 -9 -10 -19 -12
-7 -6 -5 -24 -9 -10 -19 -12
-7 -6 -5 -24 -10 -10 -19 -13
-7 -7 -5 -24 -10 -11 -19 -13
-7 -7 -5 -24 -11 -11 -19 -14
-6 -8 -4 -23 -12 -12 -20 -15
-6 -8 -4 -23 -12 -12 -20 -15
-7 -8 -4 -23 -12 -12 -20 -15
-8 -8 -3 -23 -12 -12 -20 -14
-9 -8 -3 -23 -12 -12 -20 -14
-10 -7 -2 -23 -12 -11 -19 -13
-10 -7 -2 -23 -12 -11 -19 -13
-10 -6 -2 -23 -12 -11 -19 -13
-9 -6 -2 -23 -12 -11 -19 -13
-9 -5 -2 -23 -12 -11 -19 -13
-8 -4 -2 -22 -11 -10 -19 -12
-8 -4 -2 -22 -11 -10 -19 -12
-8 -4 -3 -22 -12 -10 -19 -12
-7 -4 -3 -23 -12 -11 -19 -13
-7 -4 -4 -23 -13 -11 -19 -13
-6 -4 -5 -24 -14 -12 -20 -14
-6 -4 -5 -24 -14 -12 -20 -14
-6 -4 -4 -24 -14 -12 -20 -14
-7 -4 -4 -24 -14 -11 -20 -14
-7 -4 -3 -24 -14 -11 -20 -14
-8 -5 -2 -23 -13 -10 -19 -13
-8 -5 -2 -23 -13 -10 -19 -13
-8 -5 -2 -23 -13 -10 -19 -13
-8 -5 -2 -22 -12 -10 -19 -13
-8 -5 -2 -22 -12 -10 -19 -13
-7 -6 0 -21 -11 -11 -19 -12
-7 -6 0 -21 -11 -11 -19 -12
-7 -6 0 -21 -11 -11 -19 -12
-7 -6 -2 -21 -11 -11 -19 -12
-7 -6 -2 -21 -11 -11 -19 -12
-6 -5 -3 -21 -11 -10 -18 -11
-6 -5 -3 -21 -11 -10 -18 -11
-6 -5 -3 -21 -11 -10 -18 -12
-7 -6 -2 -22 -12 -10 -18 -13
-7 -6 -2 -22 -12 -10 -18 -14
-8 -7 0 -23 -13 -10 -18 -15
-8 -7 0 -23 -13 -10 -18 -14
-8 -7 0 -23 -13 -10 -18 -13
-8 -6 0 -23 -13 -10 -17 -12
-8 -6 0 -23 -13 -10 -17 -11
-8 -5 0 -22 -12 -10 -16 -10
-8 -5 0 -22 -12 -10 -16 -10
-8 -5 0 -22 -12 -10 -16 -10
-8 -5 0 -22 -12 -10 -17 -10
-8 -5 0 -22 -12 -10 -17 -10
-7 -5 1 -22 -12 -9 -18 -10
-7 -5 1 -22 -12 -9 -18 -10
-7 -5 0 -22 -12 -9 -18 -10
-7 -5 0 -22 -12 -10 -18 -10
-7 -5 -2 -22 -12 -10 -18 -10
-7 -6 -3 -23 -13 -11 -19 -11
-7 -6 -3 -23 -13 -11 -19 -11
-7 -6 -3 -23 -13 -11 -19 -11
-8 -7 -3 -23 -13 -11 -19 -11
-8 -7 -3 -23 -13 -11 -19 -11
-9 -8 -2 -22 -14 -10 -19 -11
-9 -8 -2 -22 -14 -10 -19 -11
-9 -7 -2 -22 -14 -10 -19 -11
-9 -7 -2 -22 -14 -10 -19 -11
-9 -6 -2 -22 -14 -10 -19 -11
-8 -5 0 -22 -13 -10 -18 -12
-8 -5 0 -22 -13 -10 -18 -12
-8 -5 1 -21 -13 -10 -18 -12
-8 -5 1 -21 -13 -10 -18 -12
-8 -5 2 -20 -13 -10 -18 -12
-7 -6 3 -19 -12 -10 -18 -11
-7 -5 3 -19 -12 -10 -17 -10
-7 -4 3 -19 -12 -9 -16 -9
-7 -3 4 -19 -12 -8 -15 -8
-7 -2 4 -19 -12 -7 -14 -7
-7 0 5 -18 -11 -6 -13 -5
-7 1 5 -17 -10 -5 -13 -5
-7 3 5 -16 -9 -4 -13 -5
-6 5 6 -15 -8 -3 -12 -5
-6 7 6 -14 -7 -2 -12 -5
-5 9 7 -12 -6 0 -11 -5
-5 9 7 -12 -5 0 -11 -5
-4 10 8 -11 -4 1 -10 -4
-3 11 8 -10 -3 1 -10 -3
-2 12 9 -9 -2 2 -9 -2
0 13 10 -8 0 3 -8 0
0 12 9 -8 0 3 -8 0
0 11 8 -8 -2 2 -8 0
-2 10 7 -9 -2 2 -8 0
-2 9 6 -9 -3 1 -8 0
-3 8 5 -10 -4 0 -8 0
-2 9 5 -9 -2 2 -7 1
1 11 5 -7 1 4 -6 2
3 12 5 -6 3 6 -4 3
5 14 5 -4 5 9 -3 4
7 16 6 -2 7 11 0 5
7 16 6 -2 7 11 0 5
7 16 5 -2 7 11 0 5
7 16 4 -2 7 11 0 5
7 16 3 -2 7 11 0 5
7 15 2 -3 6 11 0 6
7 15 2 -3 6 11 0 6
7 15 2 -4 5 10 0 6
7 14 2 -4 5 10 0 6
7 14 2 -5 4 9 0 6
8 13 3 -6 3 8 -2 7
8 12 3 -7 2 7 -3 7
8 11 3 -8 1 6 -4 6
7 10 3 -10 0 5 -5 5
7 9 3 -11 -2 4 -6 4
6 7 4 -13 -3 3 -8 3
5 6 4 -14 -5 2 -9 3
4 5 4 -15 -7 1 -10 2
3 4 3 -16 -9 -2 -11 1
2 3 3 -17 -11 -3 -12 0
0 2 2 -19 -13 -5 -14 -2
-2 1 2 -19 -13 -6 -15 -3
-4 0 2 -19 -14 -7 -16 -5
-6 -3 3 -20 -15 -8 -17 -7
-8 -4 3 -20 -16 -9 -18 -9
-10 -6 4 -21 -17 -11 -20 -11
-10 -6 3 -21 -18 -12 -21 -12
-10 -6 2 -22 -19 -13 -22 -13
-10 -6 1 -22 -20 -14 -24 -14
-10 -6 0 -23 -21 -15 -25 -15
-9 -7 -2 -24 -22 -17 -27 -17
-10 -7 0 -24 -22 -17 -27 -17
-11 -7 1 -23 -21 -16 -26 -16
-12 -7 2 -23 -20 -15 -26 -15
-13 -7 3 -22 -19 -14 -25 -14
-14 -7 5 -21 -18 -13 -24 -13
-14 -7 5 -21 -18 -13 -24 -13
-13 -7 4 -22 -19 -13 -24 -14
-13 -7 4 -22 -19 -14 -25 -14
-12 -7 3 -23 -20 -14 -25 -15
-11 -7 2 -24 -21 -15 -26 -16
-11 -7 2 -24 -21 -15 -26 -16
-12 -7 3 -24 -20 -15 -26 -16
-12 -6 4 -23 -20 -14 -25 -16
-13 -6 5 -23 -19 -14 -25 -16
-14 -5 6 -22 -18 -13 -24 -15
-14 -5 6 -22 -18 -13 -24 -15
-14 -5 6 -22 -18 -13 -24 -15
-14 -5 6 -22 -18 -14 -24 -14
-14 -5 6 -22 -18 -14 -24 -14
-14 -6 6 -23 -19 -15 -25 -13
-14 -6 6 -23 -19 -15 -25 -13
-13 -6 6 -23 -19 -15 -25 -13
-12 -7 6 -23 -19 -15 -25 -13
-11 -7 6 -23 -19 -15 -25 -13
-10 -8 6 -22 -19 -14 -24 -13
-10 -8 6 -22 -19 -14 -24 -13
-10 -8 6 -22 -19 -14 -24 -13
-10 -8 5 -22 -19 -14 -24 -14
-10 -8 5 -22 -19 -14 -24 -14
-9 -8 4 -22 -19 -14 -24 -15
-9 -8 4 -22 -19 -14 -24 -15
-10 -8 4 -22 -19 -14 -24 -15
-11 -7 4 -22 -19 -13 -24 -15
-12 -7 4 -22 -19 -13 -24 -15
-13 -6 5 -22 -18 -12 -25 -16
-13 -6 12 -12 -13 -9 -24 -16
-13 -5 18 -2 -7 -6 -22 -16
-13 -4 25 9 0 -2 -20 -16
-13 -3 32 20 5 2 -18 -16
-14 -2 39 31 12 6 -16 -17
-4 2 46 64 40 29 3 -5
7 5 53 98 69 53 21 8
17 8 60 132 98 76 39 21
27 11 66 165 127 99 58 33
37 15 73 198 155 122 76 46
50 24 70 204 182 150 104 68
62 33 66 211 209 177 132 92
74 43 62 217 235 204 159 114
88 53 58 223 261 231 186 137
100 62 54 229 286 257 214 159
87 59 36 169 238 218 186 144
73 55 19 108 189 178 157 130
60 51 2 48 141 139 130 114
47 47 -16 -13 93 99 102 100
33 43 -33 -73 44 60 74 85
15 40 -36 -114 -6 23 44 64
-4 38 -39 -155 -55 -13 14 43
-22 36 -44 -197 -104 -50 -16 22
-40 34 -47 -238 -153 -86 -47 1
-59 31 -51 -279 -202 -121 -76 -20
-54 19 -52 -260 -192 -120 -78 -26
-48 8 -53 -239 -181 -118 -81 -32
-43 -5 -55 -219 -171 -117 -83 -38
-36 -17 -56 -199 -160 -115 -87 -45
-30 -29 -58 -179 -149 -113 -90 -52
-29 -26 -51 -159 -133 -101 -81 -48
-28 -23 -44 -139 -117 -89 -73 -43
-27 -20 -36 -119 -101 -76 -65 -38
-26 -17 -29 -100 -85 -64 -57 -33
-24 -14 -21 -79 -68 -51 -49 -28
-22 -13 -16 -69 -60 -45 -45 -26
-20 -12 -11 -58 -52 -38 -39 -23
-17 -11 -6 -47 -43 -32 -35 -21
-15 -10 0 -35 -34 -26 -30 -18
-12 -9 5 -24 -25 -20 -25 -15
-12 -9 5 -22 -24 -20 -25 -15
-11 -8 6 -20 -23 -19 -25 -15
-11 -8 6 -18 -22 -18 -24 -15
-10 -7 7 -16 -21 -17 -24 -15
-9 -6 8 -14 -19 -16 -23 -14
-9 -6 8 -14 -19 -16 -23 -14
-9 -6 8 -14 -19 -16 -23 -14
-9 -6 9 -13 -18 -15 -22 -14
-9 -6 9 -13 -18 -15 -22 -14
-8 -6 10 -12 -17 -14 -21 -15
-8 -6 10 -12 -17 -14 -21 -15
-7 -6 10 -11 -17 -14 -21 -15
-6 -6 10 -10 -17 -14 -21 -15
-5 -6 10 -9 -17 -14 -21 -15
-5 -6 10 -9 -17 -14 -21 -15
-4 -6 11 -8 -16 -14 -22 -14
-4 -5 11 -8 -15 -13 -22 -14
-4 -5 12 -8 -13 -13 -22 -14
-4 -4 12 -8 -12 -12 -22 -14
-4 -4 12 -8 -11 -12 -22 -14
-5 -4 13 -7 -10 -11 -22 -13
-6 -5 13 -6 -10 -11 -21 -13
-7 -7 13 -5 -10 -11 -20 -12
-8 -8 13 -4 -10 -11 -19 -12
-8 -9 13 -4 -10 -11 -19 -12
-9 -10 13 -3 -11 -11 -18 -11
-8 -10 13 -3 -11 -11 -18 -11
-8 -10 13 -2 -11 -11 -18 -11
-7 -10 13 -2 -11 -11 -18 -11
-7 -10 13 -2 -11 -11 -18 -11
-6 -9 13 0 -10 -10 -19 -11
-6 -9 13 0 -10 -10 -19 -11
-6 -9 13 0 -10 -10 -19 -11
-6 -9 13 0 -10 -10 -19 -11
-6 -9 13 0 -10 -10 -19 -11
-7 -10 12 2 -9 -9 -18 -12
-6 -9 13 3 -8 -9 -18 -12
-6 -8 14 5 -8 -8 -18 -12
-5 -7 15 6 -7 -8 -18 -12
-5 -7 15 7 -7 -8 -18 -12
-4 -6 16 8 -6 -7 -17 -12
-4 -6 15 9 -6 -7 -16 -11
-4 -6 15 9 -5 -6 -15 -10
-4 -6 14 10 -5 -6 -14 -9
-4 -6 14 10 -5 -6 -14 -9
-4 -5 13 11 -4 -5 -13 -8
-4 -5 13 12 -3 -4 -13 -8
-4 -5 13 12 -2 -4 -12 -8
-4 -5 13 13 0 -3 -12 -8
-4 -5 13 13 0 -3 -12 -8
-4 -4 14 14 1 -2 -11 -7
-4 -4 14 15 1 0 -10 -6
-4 -4 14 16 2 0 -10 -6
-4 -4 14 17 2 1 -9 -5
-4 -4 14 18 2 1 -9 -5
-3 -5 14 20 3 2 -8 -4
-2 -4 14 21 4 2 -7 -4
0 -4 15 23 5 2 -6 -4
1 -3 15 24 6 2 -5 -4
2 -3 15 25 6 2 -5 -4
3 -2 16 27 8 3 -4 -5
3 -2 16 29 9 4 -3 -4
4 0 16 31 10 5 -2 -4
4 0 16 33 11 6 0 -3
4 0 16 35 12 6 0 -3
5 1 15 36 14 7 1 -2
5 1 15 37 15 8 1 0
5 2 16 38 16 8 2 1
5 2 16 39 17 9 2 2
5 2 16 39 18 9 2 2
6 3 17 43 20 11 3 3
6 4 17 46 22 13 4 4
7 4 17 48 24 14 5 4
7 5 17 51 26 16 6 5
7 5 17 53 28 17 6 5
10 6 17 55 30 18 8 6
13 7 17 57 32 19 9 7
15 7 18 59 34 20 11 8
18 8 18 61 36 21 12 9
20 8 18 63 37 22 13 10
21 9 19 65 39 24 15 12
21 9 20 67 40 26 17 14
20 9 21 69 43 27 18 16
20 9 22 71 44 29 20 18
20 9 23 73 45 30 21 19
19 10 24 75 47 31 22 20
19 10 24 76 48 31 22 21
19 11 23 77 49 31 23 21
19 11 23 78 50 31 23 22
19 11 23 79 51 31 23 22
20 12 22 80 52 32 24 23
22 13 21 80 52 33 25 23
24 14 21 80 53 34 25 23
26 15 20 80 53 35 26 23
27 15 20 80 53 35 26 23
28 16 19 80 54 36 27 24
27 15 19 79 54 36 28 25
26 14 18 79 54 36 28 25
25 13 18 78 54 36 29 26
25 13 18 78 54 36 29 26
25 12 17 77 53 35 30 27
26 13 17 77 53 35 30 27
28 14 16 77 52 35 30 27
29 15 16 77 52 35 30 27
30 16 16 77 52 35 30 27
31 17 15 74 50 35 30 28
30 17 14 72 49 34 29 27
30 16 13 69 48 33 28 26
29 16 12 67 47 32 27 25
29 16 11 65 46 31 26 25
28 15 10 63 44 30 25 24
27 15 10 61 43 30 25 24
27 15 10 59 42 30 25 24
26 15 10 57 40 30 25 24
26 15 10 56 39 30 25 24
25 15 9 53 37 30 26 25
25 14 9 51 36 29 26 25
24 14 9 48 34 28 26 25
24 13 9 45 33 27 26 25
24 13 9 43 32 27 26 25
23 12 8 39 29 26 24 23
22 11 7 35 27 25 22 21
21 11 6 32 25 24 20 19
20 10 5 29 23 23 18 17
20 10 4 26 21 23 16 15
18 9 3 23 19 21 14 13
17 8 3 21 17 19 12 12
16 8 3 19 15 17 11 11
15 7 3 16 13 15 9 10
14 7 3 14 11 13 8 9
13 6 2 11 9 11 6 8
12 5 2 9 7 9 5 7
11 4 1 6 5 7 4 7
10 3 1 3 3 5 3 6
9 3 1 1 1 3 2 6
7 2 0 -2 -2 1 0 4
5 1 0 -4 -3 0 -2 2
3 0 0 -5 -5 -2 -4 1
1 -2 0 -7 -6 -3 -5 -2
0 -2 0 -8 -7 -4 -6 -3
-2 -3 -2 -9 -9 -5 -7 -4
0 -2 -2 -10 -10 -6 -8 -4
1 -2 -2 -11 -12 -7 -8 -4
2 0 -2 -12 -13 -8 -9 -4
3 0 -2 -13 -14 -8 -9 -4
3 0 -2 -14 -15 -9 -10 -6
0 -2 -2 -15 -16 -10 -11 -7
-3 -4 -2 -15 -16 -10 -12 -9
-5 -5 -2 -16 -17 -11 -13 -10
-7 -6 -2 -16 -17 -11 -14 -11
-8 -7 -2 -17 -18 -12 -15 -12
-7 -6 -2 -18 -18 -12 -15 -12
-6 -6 -2 -18 -19 -13 -16 -12
-5 -5 -2 -19 -19 -13 -16 -12
-5 -5 -2 -19 -19 -13 -16 -12
-4 -4 0 -20 -20 -14 -17 -12
-4 -5 0 -20 -20 -15 -17 -13
-4 -6 -2 -20 -20 -15 -17 -13
-4 -7 -2 -20 -20 -16 -17 -14
-4 -8 -2 -20 -20 -16 -17 -14
-4 -9 -3 -20 -21 -17 -18 -15
-5 -8 -3 -20 -21 -17 -18 -14
-6 -8 -3 -19 -21 -17 -18 -13
-7 -7 -3 -19 -21 -17 -18 -12
-7 -7 -3 -19 -21 -17 -18 -12
-8 -6 -2 -18 -21 -17 -18 -11
-8 -6 -2 -18 -20 -17 -18 -12
-8 -7 0 -17 -20 -16 -18 -12
-8 -7 0 -17 -19 -16 -18 -13
-8 -7 0 -17 -19 -16 -18 -13
-7 -8 1 -16 -18 -15 -18 -14
-7 -8 1 -16 -18 -15 -18 -14
-7 -8 1 -16 -18 -15 -18 -13
-7 -8 1 -16 -18 -15 -18 -13
-7 -8 1 -16 -18 -15 -18 -13
-7 -9 0 -17 -19 -15 -17 -12
-7 -9 0 -17 -19 -15 -17 -12
-7 -9 0 -16 -19 -15 -17 -12
-7 -9 0 -16 -19 -15 -17 -12
-7 -9 0 -16 -19 -15 -17 -12
-6 -8 0 -15 -19 -15 -16 -11
-5 -8 0 -15 -19 -15 -17 -12
-4 -8 0 -15 -19 -15 -17 -12
-3 -8 0 -15 -19 -15 -18 -13
-2 -8 0 -15 -19 -15 -18 -13
-2 -8 -2 -15 -19 -15 -19 -14
-3 -8 -2 -14 -19 -15 -18 -14
-5 -8 0 -13 -18 -14 -17 -14
-7 -8 0 -12 -18 -14 -16 -14
-8 -8 0 -12 -18 -14 -16 -14
-9 -8 1 -11 -17 -13 -15 -13
-9 -8 1 -11 -17 -12 -15 -13
-9 -7 1 -11 -16 -12 -14 -13
-9 -7 1 -11 -16 -11 -14 -13
-9 -7 1 -11 -16 -11 -14 -13
-8 -6 0 -11 -15 -10 -13 -13
-7 -6 0 -11 -15 -11 -13 -13
-7 -6 0 -11 -15 -11 -14 -13
-6 -6 0 -11 -15 -12 -14 -13
-6 -6 0 -11 -15 -12 -14 -13
-5 -7 0 -10 -16 -13 -15 -12
-5 -8 0 -10 -16 -13 -15 -12
-6 -9 0 -10 -16 -13 -15 -11
-6 -10 0 -10 -16 -13 -15 -11
-6 -11 0 -10 -16 -13 -15 -11
-7 -12 0 -10 -15 -14 -15 -10
-7 -11 0 -10 -15 -14 -15 -10
-6 -11 0 -10 -15 -13 -15 -11
-6 -10 0 -10 -15 -13 -15 -11
-6 -10 0 -10 -15 -13 -15 -11
-5 -9 0 -11 -15 -12 -14 -12
-5 -9 0 -11 -15 -12 -14 -12
-6 -10 0 -11 -15 -12 -14 -12
-6 -10 0 -11 -15 -12 -14 -12
-6 -10 0 -11 -15 -12 -14 -12
-7 -11 0 -12 -14 -13 -13 -11
-7 -11 -2 -12 -14 -13 -14 -12
-7 -11 -3 -13 -15 -13 -15 -13
-7 -11 -4 -13 -15 -13 -16 -14
-7 -11 -4 -13 -15 -13 -16 -14
-7 -11 -5 -14 -16 -14 -17 -15
-7 -11 -5 -15 -17 -15 -17 -15
-6 -11 -5 -16 -17 -16 -17 -15
-6 -11 -5 -17 -18 -17 -17 -15
-6 -11 -5 -17 -18 -17 -17 -15
-5 -12 -4 -18 -19 -18 -18 -15
-5 -12 -4 -18 -19 -18 -18 -15
-6 -12 -4 -18 -19 -18 -18 -15
-6 -12 -4 -18 -19 -18 -18 -15
-6 -12 -4 -18 -19 -18 -18 -15
-7 -11 -5 -19 -20 -17 -19 -15
-7 -11 -5 -19 -20 -17 -19 -15
-7 -11 -4 -19 -20 -17 -19 -15
-7 -11 -4 -19 -20 -17 -19 -15
-7 -11 -4 -19 -20 -17 -19 -15
-6 -10 -3 -20 -19 -18 -18 -14
-7 -11 -4 -21 -20 -19 -19 -15
-8 -11 -5 -21 -21 -20 -20 -15
-9 -12 -6 -22 -22 -21 -21 -16
-9 -12 -6 -22 -23 -21 -22 -16
-10 -13 -7 -23 -24 -22 -23 -17
-10 -13 -7 -23 -24 -22 -23 -18
-10 -13 -6 -22 -24 -22 -23 -18
-10 -13 -6 -22 -24 -22 -23 -19
-10 -13 -6 -22 -24 -22 -23 -19
-9 -13 -5 -21 -23 -21 -22 -20
-9 -13 -5 -22 -23 -21 -22 -20
-9 -13 -5 -22 -23 -21 -21 -19
-9 -13 -5 -23 -23 -21 -21 -19
-9 -13 -5 -23 -23 -21 -21 -19
-10 -13 -6 -24 -24 -22 -20 -18
-10 -13 -6 -24 -24 -22 -20 -17
-10 -13 -6 -24 -24 -22 -21 -17
-10 -13 -6 -24 -24 -22 -21 -16
-10 -13 -6 -24 -24 -22 -21 -16
-9 -12 -6 -25 -24 -23 -22 -15
-9 -12 -6 -25 -24 -23 -22 -15
-8 -12 -6 -25 -24 -23 -22 -16
-8 -12 -6 -25 -24 -23 -22 -16
-8 -12 -6 -25 -24 -23 -22 -16
-7 -13 -6 -25 -25 -22 -21 -17
-7 -13 -7 -25 -25 -22 -21 -17
-8 -13 -7 -25 -25 -23 -22 -17
-8 -13 -8 -25 -25 -23 -22 -17
-8 -13 -8 -25 -25 -23 -22 -17
-9 -11 -8 -24 -24 -23 -22 -17
-9 -8 -6 -23 -22 -21 -20 -16
-9 -5 -4 -21 -20 -18 -18 -14
-9 -2 -3 -19 -18 -16 -16 -12
-9 2 0 -18 -16 -14 -14 -11
-8 3 1 -17 -15 -13 -13 -10
-8 2 1 -17 -15 -13 -12 -9
-8 1 1 -17 -15 -13 -12 -8
-8 0 1 -17 -15 -13 -11 -7
-8 0 1 -17 -15 -13 -11 -6
-9 0 1 -17 -15 -12 -10 -5
-7 1 1 -16 -14 -12 -10 -5
-6 3 1 -16 -13 -12 -10 -5
-5 5 1 -15 -12 -12 -10 -5
-4 6 1 -15 -12 -12 -10 -5
-2 7 2 -13 -10 -11 -9 -5
0 9 2 -11 -8 -8 -7 -4
2 10 2 -9 -6 -6 -5 -3
4 11 2 -8 -5 -3 -3 0
5 12 2 -6 -3 0 0 1
6 13 1 -5 -2 1 1 2
6 12 -2 -5 -2 1 1 3
7 12 -3 -5 0 1 2 4
7 11 -4 -5 0 1 2 5
7 11 -5 -5 0 1 2 6
8 10 -6 -5 1 1 3 7
8 9 -6 -5 1 1 3 7
8 8 -6 -5 1 1 3 6
8 7 -6 -5 1 1 3 6
8 6 -6 -5 1 1 3 6
8 5 -5 -7 -2 1 3 5
8 5 -6 -9 -4 0 2 4
8 4 -6 -12 -7 -3 1 3
8 4 -7 -14 -9 -5 0 2
8 4 -7 -16 -12 -6 -2 2
6 3 -8 -17 -13 -7 -4 0
3 1 -7 -18 -14 -8 -5 -2
0 0 -7 -18 -15 -9 -7 -4
-3 -2 -6 -19 -16 -10 -9 -6
-6 -3 -6 -19 -17 -11 -10 -7
-7 -4 -5 -20 -18 -12 -11 -8
-7 -5 -5 -20 -19 -14 -12 -8
-7 -6 -5 -21 -19 -15 -12 -9
-7 -7 -5 -21 -20 -16 -13 -9
-7 -8 -5 -21 -20 -17 -13 -9
-6 -9 -5 -22 -21 -18 -14 -10
-8 -10 -5 -24 -23 -19 -15 -12
-9 -11 -6 -25 -24 -20 -16 -13
-10 -12 -6 -26 -25 -21 -17 -14
-11 -13 -6 -27 -26 -22 -18 -15
-12 -14 -7 -28 -27 -23 -19 -16
-11 -13 -7 -28 -27 -23 -19 -15
-10 -12 -7 -27 -27 -23 -18 -15
-9 -11 -7 -27 -27 -23 -18 -14
-9 -10 -7 -27 -27 -23 -18 -14
-8 -9 -7 -26 -26 -23 -17 -13
-8 -9 -6 -26 -25 -22 -17 -13
-8 -9 -6 -25 -24 -21 -16 -13
-8 -9 -5 -25 -24 -21 -16 -13
-8 -9 -5 -25 -23 -20 -16 -13
-9 -9 -4 -24 -22 -19 -15 -12
-10 -9 -4 -24 -22 -19 -15 -12
-11 -9 -4 -24 -22 -19 -15 -12
-11 -9 -4 -24 -22 -19 -15 -12
-12 -9 -4 -24 -22 -19 -15 -12
-13 -10 -5 -24 -23 -19 -15 -12
-12 -10 -5 -24 -23 -19 -16 -13
-11 -10 -5 -24 -24 -19 -16 -13
-10 -10 -5 -24 -24 -19 -17 -14
-9 -10 -5 -24 -24 -19 -17 -14
-8 -11 -5 -24 -25 -20 -18 -15
-9 -11 -5 -24 -25 -20 -18 -15
-9 -11 -5 -24 -25 -20 -19 -16
-10 -11 -5 -24 -25 -20 -19 -16
-10 -11 -5 -24 -25 -20 -19 -16
-11 -10 -5 -23 -24 -21 -20 -16
-10 -8 -5 -22 -23 -21 -19 -15
-10 -7 -5 -22 -23 -21 -18 -14
-9 -6 -5 -21 -22 -21 -17 -12
-9 -5 -5 -21 -22 -21 -16 -11
-8 -4 -4 -20 -21 -20 -15 -10
-8 -5 -4 -20 -21 -20 -15 -10
-8 -6 -5 -21 -21 -20 -16 -11
-8 -7 -5 -21 -21 -20 -16 -11
-8 -8 -5 -21 -21 -20 -16 -11
-9 -9 -3 -20 -21 -20 -17 -12
-9 -9 2 -16 -19 -20 -17 -13
-9 -8 6 -13 -17 -19 -18 -14
-9 -8 10 -9 -15 -19 -18 -15
-9 -8 14 -5 -13 -19 -18 -16
-7 -7 18 10 0 -9 -13 -13
-3 -7 21 29 15 4 -4 -8
2 -7 25 48 30 17 7 -2
6 -7 28 67 46 29 16 4
9 -7 32 86 61 43 25 10
18 0 39 119 93 69 48 25
29 8 48 158 132 102 75 46
40 16 56 197 170 134 102 65
52 24 65 236 209 167 130 86
62 32 73 275 246 199 157 105
67 38 65 255 253 210 172 118
70 44 50 209 244 212 180 130
73 50 33 163 237 214 189 140
75 55 18 118 229 217 197 151
78 60 2 72 222 219 206 161
64 56 -9 18 167 175 173 142
40 47 -18 -40 93 110 121 109
18 37 -26 -99 19 47 69 76
-6 27 -34 -157 -55 -18 17 43
-28 18 -43 -216 -129 -81 -35 10
-36 11 -48 -234 -157 -107 -57 -8
-39 4 -51 -237 -168 -116 -67 -19
-41 -4 -55 -240 -178 -126 -76 -29
-44 -11 -58 -243 -188 -135 -87 -40
-47 -17 -61 -246 -198 -144 -97 -51
-45 -20 -61 -231 -191 -140 -97 -54
-39 -21 -58 -207 -174 -130 -91 -52
-35 -22 -55 -184 -156 -119 -86 -51
-30 -23 -52 -160 -139 -109 -80 -49
-25 -24 -49 -137 -121 -99 -74 -47
-22 -24 -44 -118 -105 -89 -67 -43
-20 -22 -37 -101 -91 -76 -59 -37
-18 -20 -30 -83 -75 -65 -51 -32
-16 -17 -24 -66 -61 -53 -44 -27
-14 -15 -17 -49 -46 -41 -35 -22
-13 -13 -13 -38 -37 -35 -30 -19
-12 -11 -10 -32 -32 -31 -27 -17
-12 -10 -7 -26 -28 -27 -24 -15
-11 -8 -4 -20 -23 -23 -21 -13
-11 -6 0 -14 -18 -20 -17 -11
-9 -5 1 -11 -16 -18 -16 -10
-8 -5 1 -9 -14 -18 -16 -11
-6 -5 1 -8 -13 -18 -16 -12
-5 -5 1 -6 -11 -18 -16 -12
-3 -5 1 -4 -10 -18 -16 -13
-2 -4 2 -3 -9 -17 -17 -13
-3 -4 2 -3 -9 -16 -16 -12
-4 -5 3 -3 -9 -15 -15 -10
-4 -5 3 -3 -9 -14 -15 -9
-5 -5 3 -3 -9 -13 -14 -7
-6 -6 4 -2 -8 -12 -13 -6
-6 -6 4 1 -7 -12 -13 -7
-5 -6 4 2 -6 -12 -14 -8
-5 -6 4 3 -5 -12 -14 -8
-5 -6 4 4 -4 -12 -14 -9
-4 -7 4 5 -3 -12 -15 -10
-5 -6 4 5 -3 -12 -15 -10
-5 -6 4 4 -3 -12 -14 -10
-6 -5 4 4 -3 -12 -14 -10
-6 -5 4 4 -3 -12 -14 -10
-7 -4 3 3 -3 -11 -13 -9
-6 -4 4 5 -2 -11 -14 -9
-5 -3 5 6 0 -11 -14 -10
-5 -3 5 8 1 -11 -15 -10
-4 -3 6 9 2 -11 -15 -10
-3 -2 7 10 3 -10 -15 -10
-3 -2 7 10 3 -9 -14 -8
-3 -2 7 10 4 -9 -12 -6
-3 -2 7 10 4 -8 -11 -4
-3 -2 7 10 4 -8 -9 -2
-3 0 7 11 5 -7 -8 0
-3 -2 7 12 5 -7 -9 -3
-3 -2 7 12 6 -7 -10 -4
-3 -3 7 13 6 -7 -10 -6
-3 -3 7 13 6 -7 -11 -7
-3 -4 7 14 7 -8 -12 -8
-2 -4 7 14 7 -7 -11 -8
0 -4 6 15 7 -6 -10 -7
0 -4 6 16 7 -5 -10 -7
1 -4 6 16 7 -4 -9 -7
2 -3 5 17 8 -3 -8 -6
2 -3 5 19 10 -3 -8 -6
1 -2 6 20 11 -2 -7 -5
1 -2 7 22 13 0 -7 -4
1 -2 7 23 14 0 -7 -4
0 0 8 24 15 1 -6 -3
0 0 8 24 15 1 -5 -3
1 1 8 24 16 2 -4 -3
2 1 8 24 17 3 -4 -3
2 1 8 24 17 3 -3 -3
3 2 9 26 19 4 -2 -2
3 2 9 29 20 5 0 0
3 2 9 31 22 6 1 2
3 2 9 34 24 7 1 3
3 2 9 37 26 8 2 4
3 2 9 39 27 9 3 5
4 2 9 40 29 10 3 5
6 3 9 43 30 12 4 5
7 4 9 44 32 13 5 5
8 4 9 46 33 14 5 5
9 6 9 48 35 16 7 6
9 8 10 51 37 17 8 7
9 10 11 54 39 19 10 8
9 12 12 57 43 21 12 8
9 14 13 60 45 23 14 9
9 15 14 63 47 25 16 11
10 14 14 65 49 27 17 13
11 12 14 67 51 29 19 15
12 11 14 69 54 31 21 17
13 10 14 71 56 33 23 19
14 9 14 73 58 35 25 20
16 10 14 76 61 36 26 20
17 12 14 79 63 38 28 21
19 13 14 82 66 40 29 22
20 14 14 86 69 43 31 22
22 15 15 89 71 45 32 23
23 17 15 90 73 46 33 24
25 18 14 92 75 48 35 25
27 20 14 94 77 50 36 26
29 21 14 96 79 52 37 27
30 22 13 98 81 53 39 29
30 22 13 100 82 54 43 32
30 21 13 102 85 55 45 35
30 21 13 104 87 56 48 38
30 21 13 106 89 57 51 42
30 20 13 107 90 58 52 44
31 20 13 107 91 59 53 44
33 20 12 108 92 61 54 45
34 20 12 108 93 62 54 45
35 20 12 108 94 63 55 45
36 21 11 109 95 64 56 46
37 23 11 109 95 64 56 46
39 24 10 109 96 65 56 46
40 26 10 109 97 66 56 46
42 27 10 109 97 66 56 46
43 28 9 109 98 67 57 46
43 28 9 107 97 67 57 47
42 28 8 106 96 66 58 49
40 28 7 104 95 66 58 50
40 28 7 103 94 66 58 51
39 29 6 100 92 65 59 52
39 29 6 97 90 65 58 50
38 28 6 94 87 64 56 49
38 28 6 90 85 63 55 47
38 28 6 87 81 63 54 46
37 27 5 81 78 60 52 44
35 26 5 76 74 56 49 42
34 25 4 71 70 53 47 39
32 24 3 66 65 49 44 37
31 23 3 61 61 45 42 35
29 22 2 58 58 42 38 33
25 20 3 55 55 39 35 31
22 18 4 52 52 37 33 29
19 17 4 49 49 35 30 27
16 15 5 46 46 32 28 25
14 14 6 42 42 30 25 23
14 14 6 36 38 27 23 21
13 14 5 32 34 24 21 19
12 14 4 28 31 21 19 17
12 14 4 23 27 19 16 15
11 13 3 20 24 16 14 14
10 12 3 18 21 14 12 12
9 11 3 15 19 11 10 10
8 11 3 13 16 9 8 9
7 10 3 10 14 6 5 7
6 9 2 8 11 4 3 5
5 7 1 5 8 2 1 3
4 5 0 2 6 0 -3 1
3 4 -2 -2 3 -3 -5 -2
2 2 -3 -4 1 -5 -8 -4
1 1 -4 -6 -2 -6 -9 -5
1 1 -3 -6 -2 -6 -9 -6
1 1 -2 -7 -3 -7 -10 -7
1 1 -2 -7 -4 -8 -11 -7
1 1 0 -7 -4 -8 -11 -8
1 0 1 -8 -5 -9 -12 -9
1 0 1 -9 -5 -9 -12 -9
0 0 1 -10 -6 -10 -13 -9
-2 0 1 -11 -7 -11 -13 -9
-2 0 1 -12 -7 -11 -13 -9
-3 -2 0 -13 -8 -12 -14 -10
-3 -2 0 -13 -8 -12 -14 -10
-4 -3 0 -13 -9 -12 -14 -10
-4 -4 0 -13 -9 -12 -14 -10
-4 -4 0 -13 -9 -12 -14 -10
-5 -5 0 -14 -10 -13 -13 -10
-5 -5 0 -14 -11 -13 -13 -10
-4 -5 0 -15 -12 -14 -14 -10
-4 -5 0 -15 -12 -15 -15 -10
-4 -5 0 -15 -13 -15 -15 -10
-3 -5 -2 -16 -14 -16 -16 -10
-3 -5 -2 -16 -14 -16 -16 -11
-4 -4 -2 -16 -14 -16 -17 -12
-5 -3 -2 -16 -14 -16 -18 -12
-5 -3 -2 -16 -14 -16 -18 -13
-6 -2 -2 -17 -15 -16 -19 -14
-6 -2 -2 -17 -15 -16 -19 -13
-5 0 -2 -18 -15 -17 -18 -12
-5 0 -2 -18 -15 -17 -17 -11
-5 0 -2 -18 -15 -17 -17 -10
-4 1 -2 -19 -16 -18 -16 -9
-4 0 -2 -19 -16 -18 -16 -9
-5 -2 -2 -19 -16 -18 -17 -10
-5 -2 -2 -19 -16 -18 -18 -10
-5 -3 -2 -19 -16 -18 -18 -10
-6 -4 -2 -19 -17 -19 -19 -11
-7 -4 -2 -19 -17 -19 -19 -11
-8 -5 -2 -19 -17 -19 -19 -11
-8 -5 -2 -19 -17 -19 -19 -11
-9 -5 -2 -19 -17 -19 -19 -11
-10 -6 0 -20 -18 -18 -18 -12
-10 -6 0 -20 -18 -18 -18 -12
-9 -5 0 -19 -17 -18 -19 -13
-8 -4 0 -19 -17 -18 -19 -13
-8 -4 0 -19 -17 -18 -19 -13
-7 -3 0 -18 -16 -18 -20 -14
-7 -3 0 -18 -16 -18 -20 -14
-7 -3 0 -18 -16 -19 -20 -13
-7 -3 0 -18 -16 -19 -20 -13
-7 -3 0 -18 -16 -19 -20 -13
-7 -4 -2 -18 -17 -20 -19 -12
-7 -4 -2 -18 -17 -20 -19 -12
-8 -4 0 -17 -17 -20 -19 -12
-8 -4 0 -17 -17 -20 -19 -12
-8 -4 0 -17 -17 -20 -19 -12
-9 -4 1 -16 -16 -20 -19 -13
-9 -4 1 -16 -16 -20 -19 -13
-8 -3 1 -16 -16 -19 -18 -13
-7 -3 1 -16 -16 -19 -18 -13
-7 -3 1 -16 -16 -19 -18 -13
-6 -2 1 -15 -16 -18 -17 -13
-6 -2 1 -15 -16 -18 -17 -13
-5 -3 1 -15 -16 -18 -17 -12
-4 -4 1 -15 -16 -18 -17 -11
-4 -4 1 -15 -16 -18 -17 -11
-3 -5 1 -15 -15 -17 -16 -10
-3 -5 1 -15 -15 -17 -16 -10
-4 -4 1 -14 -14 -17 -16 -10
-4 -3 1 -14 -14 -17 -16 -10
-4 -3 1 -14 -14 -17 -16 -10
-5 -2 1 -13 -13 -16 -16 -11
-5 -2 1 -13 -13 -16 -16 -11
-5 -3 1 -13 -13 -16 -16 -11
-5 -4 1 -13 -13 -16 -16 -11
-5 -4 1 -13 -13 -16 -16 -11
-5 -5 0 -12 -13 -15 -15 -12
-5 -5 0 -12 -13 -15 -15 -12
-6 -5 0 -13 -13 -16 -15 -11
-6 -5 0 -13 -13 -16 -15 -11
-6 -5 0 -13 -13 -16 -15 -11
-7 -4 0 -14 -14 -17 -15 -10
-7 -4 0 -14 -14 -17 -15 -10
-7 -4 0 -14 -14 -17 -15 -10
-7 -4 0 -14 -14 -17 -15 -10
-7 -4 0 -14 -14 -17 -15 -10
-8 -5 1 -14 -14 -16 -15 -9
-7 -4 1 -14 -14 -16 -15 -9
-5 -3 0 -15 -14 -16 -15 -9
-4 -3 -2 -15 -14 -16 -15 -9
-3 -2 -2 -15 -14 -16 -15 -9
-2 0 -3 -16 -15 -16 -14 -9
-2 0 -3 -16 -15 -16 -14 -9
-3 -2 -3 -16 -15 -16 -14 -10
-4 -3 -3 -16 -15 -16 -14 -10
-4 -3 -3 -16 -15 -16 -14 -10
-5 -4 -2 -16 -16 -17 -15 -11
-6 -4 -2 -16 -16 -17 -15 -11
-7 -5 -2 -16 -16 -17 -15 -11
-7 -5 -2 -16 -16 -17 -15 -11
-8 -5 -2 -16 -16 -17 -15 -11
-9 -6 -2 -17 -17 -17 -15 -11
-8 -6 -2 -17 -17 -17 -15 -11
-7 -5 -3 -17 -17 -17 -15 -11
-6 -4 -3 -17 -17 -17 -15 -11
-5 -4 -3 -17 -17 -17 -15 -11
-4 -3 -4 -18 -17 -18 -16 -10
-4 -3 -4 -18 -17 -18 -16 -10
-4 -4 -4 -18 -18 -19 -16 -10
-4 -4 -4 -18 -19 -19 -16 -10
-4 -4 -4 -18 -19 -19 -16 -10
-5 -5 -4 -19 -20 -20 -16 -11
-5 -5 -4 -19 -20 -20 -16 -11
-5 -5 -4 -19 -20 -20 -16 -11
-5 -5 -3 -19 -19 -19 -16 -11
-5 -5 -3 -19 -19 -19 -16 -11
-5 -4 -2 -19 -18 -18 -15 -12
-5 -4 -2 -19 -18 -18 -15 -12
-5 -4 -2 -19 -18 -18 -15 -12
-5 -3 -3 -20 -18 -19 -14 -12
-5 -3 -3 -20 -18 -19 -14 -12
-6 -2 -4 -21 -18 -20 -13 -12
-6 -2 -4 -20 -18 -20 -12 -12
-6 -2 -4 -20 -18 -19 -12 -12
-6 -2 -3 -19 -17 -18 -11 -12
-6 -2 -3 -18 -17 -18 -10 -12
-5 0 -2 -17 -16 -17 -9 -11
-4 2 0 -16 -15 -15 -8 -9
-4 5 0 -15 -14 -14 -7 -8
-3 8 1 -14 -12 -13 -6 -7
-2 10 2 -13 -11 -11 -5 -5
0 12 3 -12 -10 -10 -4 -4
-2 12 3 -12 -10 -10 -4 -4
-2 12 3 -12 -10 -10 -4 -4
-3 12 3 -12 -10 -10 -3 -3
-4 12 3 -12 -10 -10 -3 -3
-5 12 2 -12 -10 -10 -2 -2
-3 12 2 -12 -10 -9 -2 -2
0 13 2 -12 -10 -9 0 -2
2 14 2 -12 -10 -8 1 -2
4 14 2 -12 -10 -7 1 -2
6 15 2 -11 -11 -6 2 0
8 16 2 -10 -9 -5 3 1
9 17 1 -10 -8 -4 4 2
10 18 0 -9 -6 -3 5 4
12 19 0 -8 -4 -2 6 5
13 20 -2 -7 -3 0 7 6
12 20 -3 -7 -3 0 7 6
12 20 -4 -7 -3 1 7 6
11 20 -5 -6 -3 2 7 7
10 20 -6 -6 -3 2 7 7
9 20 -7 -5 -3 3 8 8
10 19 -7 -5 -3 2 8 8
10 18 -7 -6 -3 1 8 8
11 16 -6 -7 -3 0 8 7
12 15 -6 -7 -3 -2 8 7
13 14 -5 -8 -4 -3 7 6
11 12 -5 -10 -6 -5 5 5
10 11 -5 -12 -9 -6 4 5
8 9 -6 -14 -12 -7 2 4
6 7 -6 -16 -14 -9 0 3
5 6 -7 -18 -16 -10 -2 1
3 4 -7 -19 -17 -12 -4 -2
2 2 -7 -19 -18 -14 -6 -4
0 0 -7 -20 -20 -16 -8 -6
-3 -3 -7 -21 -21 -18 -10 -8
-4 -4 -7 -22 -22 -19 -11 -10
-5 -4 -7 -24 -23 -20 -12 -11
-6 -4 -8 -25 -24 -20 -13 -11
-8 -4 -9 -26 -26 -21 -15 -12
-9 -4 -9 -28 -27 -22 -16 -13
-10 -5 -10 -29 -28 -23 -17 -14
-10 -6 -10 -29 -28 -23 -17 -14
-10 -7 -9 -29 -28 -23 -17 -14
-9 -8 -8 -29 -28 -23 -17 -14
-9 -9 -8 -29 -28 -23 -17 -14
-8 -10 -7 -28 -27 -23 -17 -15
-8 -10 -7 -28 -27 -23 -17 -15
-8 -10 -7 -28 -27 -23 -17 -15
-8 -10 -7 -29 -28 -24 -17 -15
-8 -10 -7 -29 -28 -24 -17 -15
-7 -10 -8 -30 -29 -25 -18 -15
-7 -10 -8 -30 -29 -25 -18 -15
-6 -9 -7 -29 -29 -25 -18 -15
-5 -8 -6 -28 -29 -25 -18 -15
-5 -8 -6 -28 -29 -25 -18 -15
-4 -7 -5 -27 -28 -24 -19 -16
-5 -7 -5 -27 -28 -24 -19 -16
-6 -7 -6 -27 -28 -24 -19 -16
-7 -7 -7 -28 -29 -24 -19 -16
-8 -7 -7 -28 -29 -24 -19 -16
-9 -8 -8 -29 -30 -25 -19 -16
-9 -8 -8 -29 -30 -25 -19 -16
-9 -8 -8 -29 -30 -25 -19 -16
-9 -8 -7 -28 -30 -25 -19 -15
-9 -8 -7 -28 -30 -25 -19 -15
-8 -9 -6 -27 -29 -24 -19 -14
-8 -9 -6 -27 -29 -24 -19 -14
-8 -8 -6 -27 -29 -24 -19 -14
-7 -7 -7 -27 -29 -24 -19 -14
-7 -7 -7 -27 -29 -24 -19 -14
-6 -6 -8 -28 -28 -24 -19 -15
-6 -6 -8 -28 -28 -24 -19 -15
-6 -7 -8 -27 -28 -24 -19 -15
-7 -8 -8 -26 -28 -24 -19 -15
-7 -8 -8 -26 -28 -24 -19 -15
-8 -9 -7 -25 -28 -23 -19 -16
-7 -9 -7 -25 -28 -23 -19 -16
-6 -9 -7 -25 -28 -23 -19 -16
-5 -8 -7 -25 -28 -23 -19 -15
-4 -8 -7 -25 -28 -23 -19 -15
-3 -7 -4 -21 -26 -22 -18 -14
-4 -7 2 -12 -21 -19 -18 -15
-6 -7 8 -4 -17 -17 -18 -15
-7 -7 14 6 -12 -15 -17 -16
-9 -7 19 14 -8 -13 -17 -17
-7 -5 26 34 8 0 -8 -13
2 1 34 70 39 25 13 1
10 5 43 106 71 51 32 14
18 10 51 143 103 76 53 28
27 14 60 179 135 102 73 42
37 20 65 203 165 130 97 58
50 30 62 212 195 160 126 80
62 39 60 220 224 192 154 103
75 50 58 228 253 223 183 126
88 59 56 237 282 255 212 148
91 63 47 217 280 257 218 158
78 56 27 151 230 216 190 150
66 49 8 86 181 175 162 142
53 42 -12 21 132 134 135 134
40 35 -31 -45 81 93 107 126
26 30 -46 -101 29 52 76 109
10 27 -51 -144 -26 9 43 80
-7 25 -57 -187 -82 -33 8 51
-23 23 -63 -230 -139 -76 -26 22
-39 21 -68 -273 -195 -119 -60 -7
-49 16 -72 -291 -225 -144 -81 -27
-45 6 -72 -270 -212 -141 -83 -32
-39 -5 -73 -248 -199 -138 -85 -37
-35 -14 -74 -227 -187 -135 -87 -44
-31 -24 -74 -205 -175 -131 -89 -49
-28 -30 -72 -184 -160 -123 -87 -52
-26 -28 -64 -162 -142 -110 -78 -47
-24 -27 -56 -141 -124 -97 -69 -41
-22 -25 -48 -119 -106 -83 -60 -37
-20 -23 -38 -98 -89 -70 -52 -32
-18 -21 -31 -80 -74 -58 -44 -28
-16 -18 -25 -68 -63 -51 -38 -25
-14 -15 -19 -55 -53 -43 -33 -21
-12 -12 -13 -43 -43 -34 -27 -18
-11 -9 -7 -30 -32 -26 -22 -15
-9 -7 -3 -22 -25 -21 -18 -12
-9 -7 -2 -20 -24 -21 -18 -12
-9 -7 -2 -18 -24 -21 -18 -12
