I II V1 V2 V3 V4 V5 V6
-6 -17 9 8 -5 2 9 6
-7 -16 9 8 -5 2 8 6
-8 -16 9 9 -5 3 9 7
-8 -15 9 8 -6 2 8 7
-7 -14 9 8 -5 2 9 8
-7 -13 8 8 -5 2 8 8
-7 -12 8 9 -5 3 8 8
-7 -11 8 8 -6 2 7 7
-6 -10 9 8 -5 3 8 7
-6 -9 8 7 -6 2 7 6
-6 -9 8 7 -6 1 6 6
-7 -8 8 8 -7 1 6 6
-7 -8 8 7 -6 1 5 6
-6 -7 8 7 -6 1 5 6
-5 -6 7 6 -6 0 4 5
-5 -6 8 6 -6 0 5 6
-6 -6 7 6 -5 0 5 6
-6 -5 6 5 -5 0 5 6
-6 -5 6 5 -5 0 5 6
-5 -4 6 5 -6 0 4 6
-5 -3 6 5 -6 0 4 5
-4 -3 6 6 -6 0 4 5
-4 -2 6 5 -6 -2 2 4
-5 0 6 5 -6 0 2 5
-5 0 6 4 -6 -2 2 5
-5 0 6 4 -6 -2 2 4
-6 1 6 4 -6 -3 1 3
-6 1 5 4 -6 -3 1 3
-6 1 5 4 -6 -3 2 4
-6 2 6 4 -5 -3 2 5
-5 2 6 4 -6 -3 1 4
-5 3 5 3 -7 -4 0 3
-5 3 5 3 -7 -4 2 4
-5 3 6 4 -7 -3 3 5
-5 3 6 4 -7 -2 3 5
-5 3 5 4 -8 -2 2 5
-5 4 5 4 -8 -2 2 5
-4 4 5 4 -7 -2 3 5
-4 5 5 3 -8 -3 2 4
-5 5 6 4 -7 -2 3 5
-5 5 6 4 -6 -2 3 5
-5 5 6 4 -6 -2 3 6
-5 5 6 4 -7 0 3 6
-6 4 6 3 -7 0 3 6
-6 4 5 4 -7 0 3 6
-6 5 5 4 -7 0 2 5
-6 5 6 4 -6 0 2 5
-5 6 5 3 -7 -2 2 5
-4 6 5 4 -6 -2 2 5
-4 6 4 3 -7 -2 1 4
-5 5 5 4 -7 -2 2 4
-6 4 5 4 -7 -2 1 4
-5 5 5 4 -6 0 2 5
-4 5 4 3 -7 0 2 5
-5 6 4 3 -7 0 2 6
-5 6 4 3 -6 0 2 6
-5 6 4 3 -6 0 3 6
-4 6 4 3 -6 0 3 7
-4 5 5 3 -6 0 3 7
-4 5 5 4 -6 0 3 7
-4 4 6 5 -5 1 3 8
-4 4 6 5 -5 1 3 8
-4 3 7 5 -5 1 3 7
-4 3 7 5 -5 1 3 7
-4 3 7 5 -5 1 3 7
-4 2 7 5 -5 2 4 7
-4 1 8 6 -5 3 5 7
-5 1 8 6 -5 3 5 8
-5 0 8 6 -4 3 5 9
-4 -2 8 7 -4 4 4 9
-4 -2 9 7 -4 4 4 9
-4 -2 9 8 -3 4 4 9
-4 -4 10 9 -3 4 5 9
-4 -6 10 9 -2 5 5 10
-5 -6 10 9 -2 5 5 9
-5 -6 10 9 0 6 5 9
-4 -7 11 9 0 6 5 9
-4 -8 10 8 0 6 5 10
-4 -10 11 9 1 7 6 11
-4 -10 11 9 1 7 6 11
-4 -11 11 9 1 7 6 11
-3 -12 12 9 1 7 5 10
-4 -12 13 10 1 8 6 11
-4 -13 12 10 1 8 7 11
-4 -13 12 11 2 8 7 11
-3 -14 13 11 2 9 7 12
-4 -15 14 12 4 10 8 13
-5 -16 14 12 4 11 8 14
-4 -17 14 12 4 11 8 13
-3 -17 15 12 4 11 9 13
-3 -17 16 12 4 11 9 13
-4 -17 16 13 4 11 9 14
-5 -17 15 13 5 12 9 14
-5 -18 17 13 5 12 9 15
-4 -18 18 13 5 12 9 15
-4 -18 18 14 6 13 10 15
-3 -17 20 15 8 14 11 17
-3 -17 21 17 10 15 12 18
-2 -16 21 17 10 15 12 19
-2 -15 22 18 10 16 13 20
0 -14 22 18 10 17 14 20
1 -12 22 19 11 17 14 22
1 -11 24 20 12 19 15 23
2 -10 24 21 13 19 15 23
3 -9 25 23 15 20 17 25
4 -7 25 23 15 21 17 25
4 -7 26 24 16 22 18 26
4 -6 26 24 16 21 16 26
5 -5 27 25 17 22 16 26
5 -4 26 25 16 22 16 26
6 -4 27 25 17 23 17 26
7 -4 26 25 18 23 17 25
9 -5 24 25 17 23 17 24
11 -3 22 26 18 23 17 25
13 -2 21 26 18 24 18 25
14 0 18 25 18 24 19 25
13 0 15 25 19 25 19 26
13 0 12 23 17 24 18 24
13 -2 11 21 16 23 16 23
13 0 11 22 18 24 17 24
14 4 11 22 18 25 18 26
16 8 9 22 17 26 18 25
17 10 8 22 17 26 18 25
18 12 7 21 17 25 19 25
19 14 6 20 17 25 19 25
19 15 5 20 17 25 19 25
20 15 3 18 15 23 18 24
20 13 2 17 14 22 17 25
20 12 0 14 11 20 15 23
20 10 0 12 10 18 14 21
19 9 0 11 8 16 12 20
19 8 -2 10 6 14 9 17
17 6 0 9 6 14 8 14
16 6 0 10 6 14 9 14
15 6 0 11 6 14 8 14
14 6 1 11 5 13 7 13
13 4 3 12 5 13 6 13
10 3 5 12 5 13 6 12
7 1 6 11 3 11 3 10
4 0 6 10 2 9 2 8
2 -2 6 8 1 7 0 7
1 -3 5 6 -2 5 -3 5
0 -4 6 6 -2 5 -4 5
-2 -5 6 6 -2 6 -4 5
-3 -5 6 5 -2 5 -5 3
-4 -5 6 5 -4 4 -6 2
-5 -5 7 6 -4 5 -6 2
-5 -5 7 5 -5 5 -6 1
-6 -5 7 4 -5 4 -7 1
-6 -5 7 4 -6 3 -8 1
-6 -5 7 4 -6 2 -9 1
-6 -5 6 3 -7 2 -9 0
-7 -6 7 4 -7 2 -9 0
-7 -7 6 3 -8 2 -10 -2
-7 -7 6 3 -8 2 -10 -3
-7 -7 6 4 -8 2 -10 -2
-8 -7 6 4 -8 2 -11 -2
-9 -7 6 5 -8 2 -10 0
-10 -7 6 4 -8 2 -10 0
-8 -7 5 3 -9 1 -10 -2
-7 -6 5 3 -9 2 -11 0
-6 -6 4 2 -10 1 -12 -3
-7 -6 5 3 -9 2 -12 -2
-8 -6 6 4 -9 2 -12 -2
-8 -7 6 4 -10 2 -13 -2
-8 -7 6 4 -10 2 -13 -2
-8 -8 8 5 -8 2 -12 0
-8 -8 7 6 -8 2 -12 0
-7 -8 6 4 -9 0 -13 -3
-6 -8 6 4 -9 0 -13 -4
-7 -9 8 5 -9 0 -13 -3
-7 -10 8 6 -9 0 -14 -4
-9 -11 10 9 -7 1 -14 -5
-10 -13 13 15 -3 2 -15 -7
-8 -14 16 26 6 8 -12 -6
-4 -15 18 36 16 18 -5 0
2 -16 14 37 21 26 3 3
6 -17 8 31 26 34 11 8
12 -18 0 22 31 46 22 16
22 -17 -11 11 36 58 34 25
32 -15 -20 2 48 75 53 39
45 -8 -31 -4 63 100 77 58
58 4 -44 -6 80 127 103 78
70 17 -58 -8 97 150 125 96
78 31 -72 -10 112 171 144 111
88 49 -94 -15 125 188 160 126
100 64 -116 -23 133 202 176 140
112 75 -141 -38 131 209 185 150
119 78 -166 -60 112 195 179 150
118 76 -187 -82 78 164 159 139
109 69 -198 -106 38 120 130 120
93 63 -202 -136 -11 68 91 97
71 59 -202 -170 -60 18 52 72
49 55 -199 -203 -105 -28 17 51
26 46 -189 -229 -143 -66 -16 28
9 30 -170 -235 -164 -92 -40 7
-4 18 -147 -220 -166 -103 -58 -10
-11 11 -123 -193 -154 -99 -61 -16
-12 8 -105 -166 -138 -89 -58 -18
-13 5 -90 -140 -119 -77 -52 -17
-14 1 -73 -113 -100 -65 -45 -15
-15 -4 -56 -89 -81 -51 -37 -12
-15 -7 -41 -67 -66 -38 -31 -11
-12 -10 -27 -48 -52 -28 -26 -9
-12 -14 -13 -31 -39 -20 -21 -7
-12 -18 -2 -18 -31 -14 -18 -6
-12 -21 6 -9 -23 -9 -15 -6
-11 -24 9 -2 -17 -5 -14 -6
-11 -26 12 4 -13 -2 -11 -4
-10 -27 14 7 -10 0 -10 -4
-10 -27 16 9 -8 2 -9 -4
-10 -28 18 11 -7 2 -9 -5
-9 -29 19 12 -6 2 -10 -5
-10 -31 21 14 -4 3 -10 -4
-10 -32 22 16 -3 3 -10 -3
-10 -33 23 17 -3 3 -10 -3
-10 -34 23 18 -3 3 -9 -4
-10 -34 23 18 0 4 -8 -4
-11 -34 25 19 2 6 -7 -3
-11 -33 24 19 3 5 -7 -3
-10 -32 25 20 4 6 -7 -3
-9 -32 25 20 3 6 -7 -4
-9 -31 25 20 4 7 -6 -3
-8 -31 26 21 4 7 -6 -3
-8 -32 25 21 3 7 -7 -3
-8 -32 25 21 2 7 -7 -3
-8 -32 25 21 3 7 -7 -2
-9 -31 25 21 3 7 -6 -2
-9 -31 25 21 3 7 -6 0
-9 -30 25 22 4 7 -6 1
-8 -30 24 21 4 7 -7 0
-8 -30 24 21 3 7 -7 0
-7 -29 24 21 1 6 -7 -2
-8 -29 24 20 1 5 -7 -2
-8 -28 24 20 1 5 -6 -2
-8 -27 22 19 0 3 -6 -4
-7 -25 21 19 -2 3 -6 -5
-8 -24 21 18 -3 3 -7 -4
-8 -24 20 18 -3 4 -7 -5
-9 -23 20 17 -2 4 -7 -6
-9 -22 21 17 -2 4 -7 -6
-8 -21 21 16 -3 2 -8 -7
-7 -20 21 17 -3 1 -8 -7
-7 -19 20 16 -2 0 -8 -8
-7 -19 20 17 1 0 -8 -8
-7 -19 19 16 1 0 -9 -9
-8 -19 19 17 1 0 -9 -9
-7 -17 19 16 2 0 -9 -9
-7 -15 18 16 3 0 -9 -10
-7 -14 19 17 5 0 -9 -10
-8 -13 19 17 6 0 -9 -9
-6 -12 19 16 5 -2 -9 -10
-5 -11 19 16 6 -2 -9 -9
-4 -12 19 15 5 -3 -10 -9
-4 -13 18 15 5 -3 -10 -11
-4 -13 18 15 5 -3 -10 -11
-5 -12 17 15 6 -3 -10 -11
-6 -12 16 14 6 -3 -10 -11
-7 -12 17 14 7 -2 -9 -11
-6 -12 16 14 6 -3 -9 -12
-6 -11 17 14 7 -2 -8 -11
-6 -10 17 14 7 0 -7 -11
-6 -10 17 13 6 0 -7 -11
-5 -10 15 12 5 -3 -7 -12
-5 -9 15 13 5 -3 -7 -12
-5 -8 15 13 5 -3 -7 -12
-5 -7 13 13 4 -5 -8 -13
-5 -7 13 13 5 -4 -7 -13
-5 -7 13 12 6 -4 -7 -13
-5 -7 12 12 6 -5 -8 -13
-6 -7 14 13 6 -4 -6 -12
-5 -6 13 12 5 -5 -6 -13
-4 -7 13 12 6 -4 -6 -13
-4 -7 12 12 7 -4 -6 -13
-3 -6 12 12 6 -5 -6 -13
-3 -5 12 12 5 -4 -6 -13
-3 -4 12 12 6 -4 -5 -13
-3 -4 11 12 7 -3 -5 -13
-2 -3 10 11 7 -3 -5 -13
-2 -2 11 12 8 -2 -4 -12
-2 -2 10 13 9 -2 -3 -11
-2 -2 10 13 8 -3 -4 -11
-2 -3 10 13 6 -4 -4 -11
-2 -2 11 13 8 -4 -3 -11
-2 0 11 13 9 -4 -3 -12
-2 0 10 13 10 -3 -2 -11
-2 -2 10 14 11 -2 1 -9
-2 0 9 14 11 0 0 -8
0 0 10 15 13 1 1 -6
1 1 9 15 15 2 2 -5
2 2 9 15 16 3 3 -4
3 3 8 14 16 3 3 -4
5 3 7 14 15 2 3 -5
7 4 6 13 15 2 4 -5
8 4 7 14 16 3 5 -3
8 4 7 15 16 5 6 -3
4 5 8 18 19 7 8 0
2 5 8 19 21 9 10 1
3 5 7 18 22 8 10 1
5 5 7 19 23 9 11 1
6 5 6 20 23 10 12 1
7 6 6 21 24 12 15 4
8 7 5 21 25 13 16 5
10 8 4 21 25 14 16 5
12 8 3 21 25 15 17 6
14 8 4 22 26 17 19 7
14 8 4 23 28 17 21 9
12 8 3 24 30 18 22 10
11 8 4 26 33 21 26 13
15 8 2 26 33 21 26 14
23 8 1 26 32 21 26 15
28 9 -2 25 32 21 27 15
28 9 -2 27 35 24 29 18
26 9 -2 28 37 26 32 21
19 9 2 32 43 32 38 26
14 9 4 34 45 35 43 30
16 10 3 35 46 37 45 31
20 12 1 35 47 38 46 31
23 13 0 36 48 40 47 32
24 14 -2 36 49 42 48 33
23 14 0 39 52 45 51 36
23 14 0 40 53 46 53 39
26 14 0 39 54 47 54 39
28 14 -2 39 54 48 55 40
30 15 -3 39 55 50 56 42
32 14 -3 40 56 52 59 44
33 14 -4 40 56 52 59 45
34 14 -4 42 58 53 61 47
35 14 -4 43 59 55 63 49
36 14 -5 43 58 55 64 50
35 13 -3 44 61 57 67 52
35 13 -3 44 62 58 68 53
36 13 -2 44 63 59 69 54
37 13 -3 44 62 59 68 54
39 13 -3 44 63 59 69 55
39 12 -3 44 63 60 69 55
39 12 -3 45 63 59 68 55
38 12 -3 44 62 57 67 54
37 11 -2 44 62 58 68 53
37 11 -2 44 62 58 67 52
36 9 0 44 63 57 66 50
35 8 2 43 62 55 64 49
34 6 2 42 60 53 62 47
33 4 3 40 59 51 60 45
32 2 3 38 57 50 58 43
30 0 4 36 54 47 56 39
29 -2 4 34 52 44 53 36
28 -3 4 32 50 40 50 33
26 -4 4 32 49 39 47 32
24 -5 5 32 47 37 46 31
22 -6 5 29 45 35 44 29
20 -8 7 28 43 33 43 28
19 -9 6 26 38 30 39 25
18 -10 7 25 36 28 37 24
16 -10 7 23 34 26 35 22
15 -10 6 21 31 22 32 18
14 -11 6 19 29 18 30 15
14 -12 5 18 27 17 27 13
13 -12 4 16 25 15 25 10
10 -13 6 16 25 14 24 9
8 -13 6 13 22 11 22 7
7 -14 6 11 21 11 21 6
5 -15 6 10 18 9 20 5
4 -16 5 8 16 7 18 4
4 -16 5 7 15 4 16 3
4 -16 5 6 13 2 15 1
4 -17 4 4 11 0 14 -2
3 -16 3 3 10 0 13 -2
2 -16 2 1 9 0 13 -2
0 -15 2 1 10 1 14 0
0 -14 2 0 9 0 13 -3
0 -13 3 -2 7 -2 12 -4
0 -13 3 -3 5 -4 11 -5
0 -13 2 -5 4 -6 9 -6
0 -13 1 -6 3 -7 9 -6
0 -13 0 -7 1 -7 9 -6
0 -13 0 -7 0 -9 8 -7
-2 -13 0 -8 -2 -10 6 -8
-3 -13 1 -7 -2 -8 8 -8
-3 -13 1 -7 0 -8 8 -8
-3 -12 1 -8 0 -8 8 -9
-3 -12 1 -8 0 -9 7 -9
-4 -13 1 -8 -2 -9 7 -9
-4 -13 1 -8 -4 -10 6 -10
-4 -13 1 -9 -5 -10 5 -11
-4 -12 0 -9 -6 -11 5 -11
-4 -11 -2 -10 -7 -11 4 -12
-3 -10 -2 -11 -8 -11 4 -12
-4 -10 -2 -11 -8 -11 4 -12
-5 -10 -2 -12 -9 -11 4 -12
-6 -10 -2 -12 -8 -11 4 -12
-7 -10 -2 -13 -9 -12 4 -12
-7 -9 0 -12 -10 -12 4 -11
-6 -9 -2 -13 -11 -12 3 -12
-6 -8 -2 -13 -11 -11 3 -11
-7 -8 -2 -13 -12 -11 3 -12
-7 -8 0 -13 -12 -11 3 -12
-7 -9 0 -12 -11 -10 3 -11
-7 -9 0 -12 -11 -10 2 -11
-6 -10 0 -11 -11 -10 2 -11
-7 -10 0 -11 -11 -10 3 -11
-8 -10 0 -11 -11 -10 3 -11
-8 -10 1 -11 -11 -10 3 -11
-8 -10 1 -10 -11 -10 2 -11
-8 -9 1 -10 -12 -11 1 -11
-9 -8 1 -10 -12 -11 -2 -11
-10 -8 1 -10 -13 -12 -4 -12
-10 -8 0 -11 -12 -11 -6 -12
-11 -9 2 -10 -11 -10 -5 -11
-11 -10 2 -10 -10 -10 -6 -11
-10 -10 2 -10 -10 -10 -6 -10
-11 -9 2 -9 -10 -9 -7 -10
-11 -9 2 -8 -10 -9 -8 -10
-11 -9 3 -7 -11 -9 -9 -10
-10 -10 2 -7 -11 -9 -9 -10
-9 -10 2 -6 -11 -9 -10 -10
-10 -10 2 -6 -11 -9 -10 -9
-10 -10 2 -6 -11 -9 -10 -9
-10 -10 2 -6 -10 -9 -10 -9
-10 -10 2 -5 -10 -8 -10 -9
-10 -10 3 -5 -10 -8 -9 -9
-10 -10 3 -5 -9 -7 -9 -9
-10 -10 3 -5 -9 -6 -9 -9
-9 -10 3 -5 -9 -5 -9 -8
-10 -11 3 -5 -9 -5 -9 -8
-11 -11 3 -4 -8 -4 -8 -8
-10 -11 4 -2 -6 0 -7 -7
-9 -10 5 2 -4 1 -6 -6
-9 -11 6 3 -3 1 -6 -6
-9 -12 7 4 -3 1 -6 -4
-10 -12 8 6 1 3 -4 0
-8 -12 10 8 3 7 0 3
-7 -11 10 10 5 10 2 5
-7 -10 12 15 9 14 5 9
-6 -9 13 19 13 17 8 11
-4 -8 15 23 16 19 10 13
-2 -6 17 28 20 22 12 16
1 -4 19 33 25 27 15 20
2 -2 20 37 31 33 20 24
4 1 20 42 35 38 24 28
6 3 21 46 40 45 30 33
9 6 20 48 45 49 34 37
13 10 18 50 48 53 39 44
18 14 18 55 55 61 46 51
22 20 18 59 62 69 52 59
24 26 17 62 69 77 59 68
26 33 17 65 76 87 67 78
28 43 18 69 86 97 76 90
30 55 18 73 96 109 88 101
31 67 20 79 109 122 100 114
31 81 21 80 119 135 111 127
31 96 19 75 127 146 122 140
31 110 15 67 134 157 134 154
29 126 9 58 139 168 144 168
24 139 8 48 144 177 155 182
19 153 4 32 147 184 162 193
17 165 -3 17 148 190 170 203
14 176 -7 5 150 198 178 214
11 185 -10 -11 151 204 184 223
8 194 -11 -25 151 211 191 233
5 204 -8 -33 154 218 199 244
2 216 -9 -43 154 225 209 256
0 226 -16 -58 151 229 215 264
-4 233 -27 -76 146 235 222 273
-4 240 -45 -96 138 237 228 281
-4 247 -67 -123 123 235 230 287
-6 255 -87 -150 109 232 233 293
-8 265 -102 -171 98 231 236 299
-11 275 -116 -187 90 234 242 308
-12 281 -135 -210 74 230 245 313
-12 282 -154 -228 56 224 247 318
-9 280 -174 -240 43 221 252 322
-6 278 -187 -244 36 224 260 330
-3 275 -195 -253 24 223 265 336
-2 272 -201 -266 3 212 263 336
-3 264 -204 -280 -19 198 258 334
-4 255 -205 -287 -36 186 253 328
-2 243 -201 -287 -50 174 246 322
1 230 -193 -281 -59 162 240 316
1 215 -183 -270 -64 154 232 307
-2 199 -172 -258 -68 142 219 294
-5 183 -157 -244 -72 128 201 276
-11 168 -142 -227 -72 113 182 256
-14 152 -123 -203 -65 105 165 237
-13 140 -108 -179 -58 98 150 220
-12 127 -91 -153 -50 90 135 203
-10 110 -73 -124 -43 79 117 184
-4 93 -58 -95 -32 71 100 162
3 75 -44 -68 -22 64 81 143
6 59 -31 -48 -16 54 64 125
6 45 -23 -35 -16 39 42 103
6 31 -15 -24 -16 26 19 81
6 17 -8 -15 -17 13 -3 59
3 3 1 -6 -16 5 -17 40
0 -8 7 1 -15 0 -29 26
-2 -12 10 4 -15 -4 -36 20
-2 -13 11 6 -14 -5 -38 17
0 -12 11 7 -13 -6 -39 16
1 -11 9 7 -14 -7 -43 14
2 -12 7 6 -15 -9 -45 12
2 -14 4 6 -15 -10 -47 11
1 -17 2 5 -16 -11 -49 9
3 -18 2 7 -16 -12 -51 8
5 -15 2 8 -14 -12 -50 9
7 -13 4 10 -13 -11 -49 10
7 -13 3 11 -13 -10 -49 10
7 -13 2 11 -14 -10 -50 9
7 -12 0 9 -14 -11 -51 9
7 -11 -2 8 -14 -11 -50 10
7 -11 -3 7 -15 -12 -52 9
7 -12 -4 6 -16 -13 -53 8
8 -13 -4 4 -17 -14 -54 7
9 -14 -5 2 -18 -14 -55 4
9 -15 -4 2 -19 -16 -57 2
8 -17 -3 2 -20 -18 -59 1
7 -19 -2 2 -23 -20 -61 -2
5 -20 -2 2 -24 -20 -62 -3
5 -20 -2 4 -23 -19 -61 -2
6 -20 -2 4 -23 -19 -61 -2
5 -21 0 5 -22 -19 -62 -3
2 -23 2 5 -22 -21 -64 -5
0 -26 4 6 -21 -22 -65 -5
-2 -29 4 4 -24 -24 -68 -7
-4 -32 5 2 -26 -26 -69 -9
-6 -35 5 1 -28 -28 -71 -11
-6 -36 5 2 -28 -27 -71 -13
-7 -37 4 2 -29 -28 -72 -15
-9 -40 6 4 -29 -29 -73 -15
-10 -41 7 4 -29 -30 -74 -17
-10 -41 7 4 -29 -32 -76 -19
-10 -43 6 3 -31 -34 -77 -21
-11 -44 6 2 -32 -35 -78 -23
-11 -45 5 1 -33 -37 -80 -25
-10 -45 5 0 -34 -38 -82 -27
-9 -44 5 0 -35 -38 -81 -27
-8 -44 6 1 -35 -36 -80 -26
-8 -46 5 1 -35 -38 -82 -27
-9 -48 5 3 -35 -39 -83 -27
-9 -50 6 4 -35 -40 -82 -27
-9 -52 6 4 -35 -40 -82 -28
-10 -53 6 3 -35 -40 -82 -29
-10 -54 7 4 -35 -39 -82 -29
-10 -55 7 4 -36 -43 -83 -32
-10 -57 7 5 -36 -44 -85 -33
-9 -58 8 5 -36 -44 -85 -34
-8 -59 10 6 -36 -44 -85 -34
-8 -60 10 7 -36 -44 -87 -35
-8 -62 10 8 -35 -46 -88 -35
-8 -65 10 8 -36 -48 -90 -36
-8 -68 11 10 -37 -49 -92 -37
-7 -70 10 10 -37 -51 -93 -37
-7 -72 11 11 -37 -51 -93 -37
-6 -73 11 11 -38 -52 -93 -39
-5 -75 12 12 -38 -53 -95 -40
-4 -78 14 13 -38 -53 -96 -40
-3 -80 13 14 -40 -54 -98 -43
-3 -83 13 16 -40 -55 -100 -45
-3 -86 13 18 -39 -56 -101 -46
-3 -88 13 19 -40 -58 -103 -48
-3 -91 13 22 -40 -59 -104 -48
0 -94 14 23 -40 -60 -105 -48
1 -97 14 23 -40 -62 -107 -51
2 -101 15 24 -41 -63 -109 -53
2 -106 16 26 -40 -64 -109 -54
2 -110 17 27 -41 -65 -111 -56
3 -113 18 29 -43 -67 -114 -59
4 -117 19 32 -43 -69 -116 -60
5 -119 19 34 -44 -71 -118 -62
7 -121 19 35 -43 -72 -119 -64
8 -126 21 38 -40 -73 -121 -66
9 -130 22 40 -41 -75 -123 -69
9 -133 22 44 -41 -76 -127 -72
11 -137 23 46 -43 -78 -129 -75
12 -140 23 48 -43 -79 -131 -78
13 -143 23 49 -43 -81 -133 -81
14 -145 24 52 -41 -81 -134 -82
17 -147 24 54 -43 -83 -138 -86
19 -149 25 56 -41 -87 -140 -88
19 -152 26 60 -40 -88 -141 -90
20 -154 28 63 -39 -88 -143 -91
22 -156 30 65 -38 -89 -144 -93
23 -160 33 68 -37 -90 -145 -95
24 -164 34 72 -36 -91 -147 -98
25 -165 34 74 -37 -93 -150 -101
28 -166 34 76 -37 -95 -152 -104
30 -169 36 79 -35 -95 -153 -105
30 -171 39 84 -33 -95 -153 -105
30 -173 42 86 -32 -95 -154 -106
30 -173 43 90 -30 -93 -153 -107
31 -173 45 93 -28 -93 -153 -108
33 -172 46 95 -27 -94 -154 -109
34 -171 47 96 -25 -94 -155 -110
35 -170 49 98 -22 -92 -153 -109
35 -166 50 99 -20 -91 -153 -109
36 -164 51 100 -19 -91 -153 -109
36 -163 52 101 -18 -90 -153 -108
37 -160 52 102 -16 -88 -150 -105
38 -156 51 102 -14 -86 -148 -103
38 -151 52 103 -12 -82 -145 -100
37 -147 52 103 -10 -81 -143 -99
35 -143 53 102 -8 -80 -142 -97
34 -139 53 101 -7 -79 -141 -95
34 -135 53 100 -6 -77 -139 -93
35 -129 52 98 -6 -76 -137 -91
34 -123 52 97 -5 -72 -133 -87
34 -119 52 95 -3 -69 -130 -82
32 -115 52 93 -2 -65 -124 -78
30 -110 50 90 1 -62 -120 -75
27 -106 49 89 2 -60 -117 -72
26 -101 47 85 1 -60 -116 -70
25 -96 47 81 3 -56 -111 -65
24 -89 45 77 5 -52 -107 -60
24 -81 44 73 5 -48 -103 -55
24 -75 42 69 4 -45 -99 -51
22 -69 38 64 3 -44 -97 -49
19 -64 38 61 4 -39 -93 -44
17 -60 36 57 4 -37 -90 -39
17 -56 34 53 3 -34 -87 -34
15 -52 32 49 3 -32 -85 -30
13 -49 30 45 4 -29 -80 -24
12 -45 28 42 4 -25 -76 -19
11 -40 27 38 4 -22 -71 -14
10 -36 26 34 3 -20 -68 -12
9 -31 24 29 3 -19 -67 -10
8 -27 23 27 4 -16 -63 -6
7 -24 21 24 3 -14 -60 -3
6 -21 21 22 3 -12 -57 0
5 -18 19 19 2 -11 -56 1
4 -17 18 16 2 -10 -53 4
3 -16 17 14 1 -8 -51 6
2 -14 16 11 1 -7 -50 8
1 -13 14 8 0 -6 -48 10
0 -11 12 4 -2 -7 -48 10
-2 -10 11 2 -3 -5 -46 12
-2 -8 11 1 -3 -3 -45 14
-2 -5 10 -2 -4 -3 -45 13
-3 -4 10 -3 -5 -3 -44 13
-4 -4 10 -5 -6 -4 -45 12
-6 -5 10 -6 -7 -4 -45 12
-8 -3 9 -8 -7 -5 -45 12
-7 -2 8 -10 -9 -6 -46 11
-7 0 7 -12 -10 -6 -47 10
-8 -2 7 -12 -10 -6 -47 10
-9 -3 6 -13 -12 -8 -48 9
-10 -3 7 -13 -12 -8 -48 9
-10 -2 6 -14 -13 -9 -49 8
-9 0 7 -14 -12 -8 -48 8
-9 0 7 -13 -12 -7 -46 9
-9 1 6 -14 -13 -8 -47 8
-9 1 6 -15 -14 -8 -46 8
-10 1 6 -15 -13 -7 -44 9
-10 0 6 -16 -13 -7 -43 10
-10 2 6 -17 -14 -8 -43 9
-9 3 6 -17 -14 -8 -43 10
-9 3 6 -16 -13 -7 -41 10
-9 3 6 -15 -13 -6 -41 10
-9 3 6 -15 -13 -7 -43 9
-9 2 6 -15 -13 -8 -45 8
-9 2 6 -14 -13 -9 -45 7
-10 1 7 -13 -12 -9 -45 8
-10 0 6 -14 -12 -8 -44 8
-10 0 7 -14 -12 -7 -43 8
-9 -2 8 -13 -11 -7 -41 8
-9 -3 8 -12 -11 -7 -41 8
-8 -4 7 -12 -11 -8 -41 8
-8 -3 8 -12 -11 -7 -41 9
-8 -2 8 -11 -11 -6 -41 9
-8 -2 8 -10 -10 -5 -40 9
-8 -2 8 -10 -9 -4 -39 8
-7 -2 7 -11 -10 -6 -41 7
-7 0 8 -11 -10 -7 -43 6
-7 -3 9 -10 -9 -6 -41 7
-7 -5 8 -10 -9 -5 -40 7
-7 -6 10 -9 -7 -2 -38 9
-7 -7 10 -8 -6 -2 -38 9
-8 -7 10 -8 -7 -2 -38 8
-8 -8 11 -7 -6 -2 -36 10
-8 -8 12 -6 -5 1 -35 10
-7 -8 11 -6 -6 1 -35 9
-6 -8 11 -6 -6 0 -36 8
-6 -8 10 -7 -7 -3 -37 7
-7 -9 11 -6 -6 0 -36 8
-6 -10 11 -5 -3 2 -34 9
-5 -11 11 -5 -3 4 -32 10
-5 -13 11 -5 -4 4 -32 10
-6 -13 11 -4 -3 5 -30 11
-6 -13 11 -4 0 5 -29 12
-5 -14 12 -3 0 4 -30 12
-4 -16 11 -3 -2 3 -31 12
-4 -18 11 -3 -2 3 -31 12
-5 -19 11 -2 0 4 -30 13
-5 -19 12 0 1 5 -29 15
-5 -18 13 -2 1 5 -28 15
-5 -18 14 0 2 5 -28 14
-5 -19 14 1 2 6 -27 13
-5 -20 14 1 1 5 -28 12
-5 -20 14 1 2 5 -27 13
-4 -21 14 0 3 6 -26 13
-5 -22 15 1 4 8 -25 14
-5 -22 15 1 4 9 -24 14
-5 -22 15 1 4 9 -24 14
-6 -23 15 1 3 7 -25 14
-6 -23 14 0 2 6 -25 13
-5 -23 14 1 3 8 -25 14
-4 -22 13 0 4 9 -23 13
-5 -20 13 0 4 10 -23 13
-5 -19 12 0 4 10 -23 13
-5 -18 12 0 3 9 -24 13
-5 -18 12 0 4 10 -23 13
-4 -18 11 0 4 10 -23 13
-4 -17 11 0 4 9 -24 13
-4 -18 11 0 4 8 -24 13
-4 -20 12 0 4 8 -24 14
-5 -21 11 -2 2 7 -24 14
-6 -21 12 0 2 6 -24 15
-6 -20 12 -2 1 4 -24 14
-6 -19 12 0 1 6 -23 15
-6 -18 12 -2 1 7 -23 16
-6 -17 11 -4 0 5 -24 14
-6 -16 11 -4 1 5 -23 15
-6 -16 11 -4 2 6 -23 15
-7 -15 11 -4 2 7 -22 16
-7 -13 10 -4 2 7 -22 17
-6 -12 9 -5 1 7 -22 16
-6 -11 10 -4 1 6 -22 15
-6 -11 10 -4 0 5 -23 13
-7 -11 10 -5 -2 4 -24 12
-8 -10 9 -6 -2 4 -25 13
-9 -10 9 -6 0 5 -24 14
-9 -10 9 -6 0 5 -23 14
-7 -10 9 -7 0 5 -23 15
-6 -8 8 -8 -2 5 -22 15
-8 -7 8 -9 -3 5 -23 14
-8 -5 9 -9 -2 5 -23 13
-7 -3 8 -8 -2 3 -25 11
-8 -3 7 -9 -4 0 -27 9
-9 -3 7 -9 -6 -2 -28 8
-8 0 6 -10 -6 0 -28 8
-8 2 7 -9 -5 2 -26 9
-8 3 5 -11 -6 1 -27 8
-9 3 5 -10 -5 1 -27 8
-9 3 5 -10 -6 -2 -27 7
-9 4 5 -12 -7 -3 -28 6
-9 4 5 -12 -8 -3 -29 6
-9 3 6 -11 -7 -2 -28 7
-9 4 5 -11 -8 -3 -28 6
-9 5 4 -11 -7 -2 -27 7
-10 6 4 -11 -7 0 -25 8
-10 6 3 -11 -6 0 -26 8
-9 7 2 -11 -7 -3 -27 7
-8 8 3 -11 -6 -3 -26 7
-9 9 3 -11 -6 -2 -26 6
-9 9 3 -12 -6 -2 -26 6
-9 10 2 -13 -8 -4 -28 4
-9 10 2 -12 -9 -5 -29 4
-8 11 1 -12 -8 -4 -27 4
-8 12 0 -13 -8 -3 -26 4
-8 13 0 -14 -8 -4 -25 4
-9 14 1 -14 -9 -6 -27 3
-9 14 1 -14 -9 -7 -28 2
-9 14 2 -13 -9 -6 -28 2
-10 14 2 -13 -9 -6 -28 2
-9 14 3 -12 -9 -7 -28 2
-9 14 3 -12 -8 -7 -28 2
-9 14 3 -12 -9 -7 -28 2
-10 13 3 -12 -9 -6 -27 4
-9 15 2 -13 -9 -7 -27 3
-9 15 2 -14 -9 -7 -28 2
-11 15 2 -14 -10 -8 -30 0
-11 15 2 -14 -11 -10 -30 -2
-11 16 1 -14 -10 -9 -29 -2
-11 15 1 -14 -9 -8 -28 -2
-11 15 1 -14 -8 -7 -28 0
-11 16 1 -13 -8 -7 -27 0
-10 17 0 -14 -8 -6 -27 2
-9 18 0 -14 -8 -4 -25 4
-9 17 0 -14 -8 -5 -26 3
-9 17 0 -14 -9 -7 -26 2
-9 18 1 -13 -9 -6 -26 3
-8 19 0 -14 -10 -7 -28 2
-8 19 0 -14 -9 -8 -29 1
-8 18 0 -14 -9 -7 -29 1
-9 18 1 -13 -8 -6 -27 2
-10 18 1 -14 -7 -6 -27 2
-11 18 0 -14 -8 -8 -28 0
-10 17 0 -14 -8 -9 -28 -2
-10 17 0 -13 -8 -9 -29 -2
-10 18 0 -14 -8 -8 -28 0
-10 18 0 -14 -7 -7 -27 1
-10 18 0 -14 -7 -7 -27 1
-9 18 0 -13 -7 -7 -28 2
-9 18 1 -14 -7 -7 -28 1
-9 18 2 -14 -7 -9 -28 1
-9 17 2 -14 -7 -9 -29 0
-8 17 2 -14 -7 -9 -30 0
-9 16 1 -14 -7 -9 -29 0
-10 15 3 -13 -6 -7 -27 2
-11 15 3 -12 -6 -7 -27 2
-11 14 4 -10 -5 -7 -26 3
-10 14 3 -11 -6 -8 -27 1
-10 14 3 -11 -5 -7 -27 1
-9 13 2 -12 -5 -7 -26 2
-10 12 3 -11 -3 -5 -24 3
-10 11 3 -11 -3 -4 -24 3
-10 10 5 -10 -2 -3 -23 5
-10 11 4 -11 -3 -3 -24 4
-9 11 5 -10 -3 -3 -24 4
-9 11 5 -10 -2 -3 -24 3
-9 9 6 -9 0 -2 -24 2
-9 8 5 -10 0 -3 -25 1
-9 6 6 -9 1 -2 -25 2
-10 4 7 -8 1 -2 -24 4
-10 3 7 -7 1 -2 -24 4
-10 1 8 -7 2 -2 -22 5
-10 0 7 -7 2 -2 -22 4
-10 0 7 -6 3 1 -21 4
-10 0 8 -6 4 2 -20 5
-9 1 7 -7 3 1 -20 5
-9 1 7 -7 3 1 -20 5
-9 1 7 -7 3 1 -19 5
-9 0 8 -6 4 1 -19 5
-10 -2 7 -7 4 0 -20 5
-10 -3 7 -6 4 0 -19 5
-10 -4 8 -6 4 0 -19 4
-10 -5 9 -5 5 0 -19 4
-9 -6 9 -4 5 1 -19 5
-10 -7 11 -3 5 2 -18 6
-10 -7 11 -3 5 1 -18 5
-10 -8 11 -3 5 0 -18 3
-10 -9 12 -2 7 1 -17 3
-10 -9 11 -3 7 2 -17 4
-10 -9 11 -4 7 2 -16 5
-10 -9 11 -5 6 1 -16 4
-10 -9 11 -4 6 1 -16 3
-10 -8 11 -3 6 1 -16 2
-8 -8 11 -3 6 1 -16 2
-9 -9 10 -4 6 1 -16 2
-10 -8 10 -4 6 1 -15 2
-9 -6 10 -4 6 1 -16 2
-9 -6 10 -4 6 1 -15 2
-9 -6 10 -3 6 1 -15 2
-9 -7 11 -2 6 2 -14 2
-9 -6 10 -3 5 1 -15 1
-9 -5 10 -3 6 1 -14 1
-9 -5 10 -3 6 2 -14 1
-9 -5 10 -3 6 2 -14 1
-9 -6 10 -3 5 1 -14 1
-9 -6 10 -3 5 0 -15 0
-10 -5 9 -3 4 -2 -15 -2
-9 -4 9 -4 4 0 -15 -2
-9 -3 8 -5 4 -2 -15 -3
-9 -2 8 -5 4 -2 -15 -3
-10 0 8 -5 4 -2 -15 -3
-10 2 7 -6 3 -2 -15 -4
-9 3 7 -5 4 -2 -14 -4
-9 3 8 -5 4 -2 -14 -5
-9 4 7 -5 3 -3 -16 -7
-10 5 7 -6 3 -3 -15 -7
-10 6 6 -6 3 -3 -15 -7
-10 7 6 -6 3 -3 -15 -7
-9 9 5 -7 1 -4 -15 -7
-9 10 4 -8 0 -5 -16 -7
-9 12 4 -8 1 -4 -15 -6
-9 13 4 -8 0 -5 -16 -7
-10 14 5 -8 0 -5 -17 -8
-10 14 5 -8 0 -5 -17 -8
-11 13 6 -7 1 -4 -16 -7
-11 14 7 -7 1 -4 -15 -7
-10 14 6 -8 0 -6 -16 -9
-10 15 6 -8 0 -6 -16 -10
-10 16 5 -8 0 -6 -16 -11
-9 17 4 -9 -2 -7 -16 -11
-9 18 4 -9 -2 -7 -16 -11
-10 18 4 -9 0 -7 -17 -11
-10 19 4 -9 0 -7 -16 -11
-10 19 5 -9 0 -6 -16 -11
-10 20 4 -10 -2 -7 -17 -13
-10 20 4 -10 -3 -7 -17 -13
-9 21 4 -10 -3 -7 -16 -14
-9 22 3 -11 -2 -8 -16 -14
-9 23 3 -11 -2 -8 -16 -13
-10 22 3 -10 -2 -8 -16 -13
-10 22 2 -11 -3 -8 -16 -14
-10 23 2 -11 -4 -8 -16 -16
-9 24 3 -10 -3 -7 -15 -15
-9 24 3 -10 -2 -7 -15 -14
-9 25 2 -11 -4 -8 -15 -15
-10 25 2 -10 -3 -8 -14 -14
-10 25 3 -10 -3 -7 -14 -14
-10 26 3 -11 -4 -8 -15 -14
-9 26 4 -10 -4 -7 -14 -14
-9 27 4 -9 -3 -6 -13 -13
-8 28 3 -9 -4 -7 -14 -14
-9 30 4 -9 -3 -7 -13 -15
-9 31 4 -9 -3 -8 -14 -16
-8 32 5 -9 -2 -7 -14 -16
-8 32 5 -8 0 -5 -13 -16
-8 33 5 -9 0 -5 -13 -16
-7 34 7 -8 1 -4 -12 -15
-6 36 7 -7 1 -3 -11 -15
-5 39 7 -8 0 -3 -10 -16
-5 42 8 -6 3 -2 -8 -14
-4 43 7 -6 4 -2 -7 -13
-4 44 8 -4 4 -2 -7 -12
-4 45 9 -4 3 -3 -7 -13
-4 46 10 -3 4 -2 -6 -12
-3 46 11 -2 5 0 -5 -11
-3 47 11 -2 5 0 -6 -11
-2 48 11 0 5 0 -5 -11
0 48 9 -2 5 0 -5 -12
1 48 8 -2 5 1 -4 -11
1 47 7 -2 6 2 -2 -10
3 48 6 -2 8 3 0 -10
5 49 4 0 9 5 1 -10
5 49 2 -2 9 6 2 -10
5 48 0 -2 9 6 3 -9
6 48 -5 -4 8 5 2 -10
7 49 -5 -3 9 7 5 -8
7 50 -4 0 10 8 6 -7
8 52 -3 0 11 9 6 -7
8 52 -3 1 12 9 7 -6
9 52 -3 1 12 10 7 -6
10 52 -4 1 12 10 8 -5
9 52 -5 1 12 10 9 -5
10 52 -6 0 11 9 8 -5
11 51 -8 -2 10 8 8 -6
11 49 -9 -4 8 7 6 -7
11 46 -9 -4 7 6 6 -7
10 44 -9 -6 6 5 6 -8
9 42 -10 -7 4 4 5 -9
8 37 -9 -8 4 4 5 -10
6 33 -7 -7 5 3 5 -10
4 30 -5 -5 6 4 5 -10
3 27 -3 -4 6 3 4 -12
2 24 -2 -3 6 3 4 -14
0 21 1 -2 7 4 5 -14
-3 19 2 -3 5 3 4 -14
-5 17 3 -3 4 2 3 -15
-7 14 3 -4 2 0 0 -17
-8 12 3 -4 2 0 0 -17
-9 12 4 -4 3 1 1 -17
-10 11 4 -4 3 1 0 -17
-10 10 6 -4 3 1 0 -18
-11 8 7 -3 2 0 0 -19
-11 6 7 -4 0 -3 -3 -20
-11 4 7 -3 0 -3 -3 -20
-12 3 8 -3 1 -2 -2 -19
-12 2 7 -3 1 -2 -3 -20
-12 1 7 -3 0 -2 -3 -21
-12 0 8 -2 1 -2 -2 -20
-12 0 8 -2 1 -2 -2 -21
-12 0 8 -3 1 -2 -3 -21
-12 -2 8 -4 0 -2 -3 -21
-13 -2 8 -5 0 -2 -3 -21
-13 -3 9 -3 1 -2 -2 -20
-12 -3 9 -4 0 -3 -3 -20
-12 -3 9 -3 0 -2 -3 -19
-12 -3 9 -3 0 0 -3 -19
-12 -3 9 -4 0 0 -3 -19
-12 -3 9 -4 0 0 -4 -20
-13 -3 10 -4 1 0 -3 -20
-13 -4 10 -4 0 -2 -4 -21
-13 -5 10 -4 0 -2 -5 -21
-13 -5 10 -4 1 -2 -5 -21
-12 -5 9 -4 0 -2 -6 -21
-13 -5 9 -4 0 -3 -6 -22
-13 -5 9 -4 -2 -3 -7 -22
-13 -5 9 -4 -2 -3 -8 -23
-12 -6 9 -3 -2 -3 -9 -24
-12 -6 8 -3 -3 -4 -10 -25
-13 -7 10 0 -2 -4 -10 -26
-13 -8 12 5 2 -2 -11 -28
-13 -9 16 14 10 5 -9 -27
-11 -8 18 24 23 16 1 -21
-6 -8 14 25 30 25 8 -15
0 -8 7 21 35 36 17 -10
6 -7 -2 14 43 51 31 1
14 -4 -10 6 52 68 49 13
24 2 -21 -4 65 91 69 29
35 10 -32 -9 82 119 95 49
46 22 -45 -12 105 150 125 71
54 36 -55 -16 126 179 148 90
60 53 -68 -21 140 200 165 105
67 70 -87 -27 153 220 183 120
77 90 -108 -34 164 238 199 137
89 105 -132 -47 168 248 212 149
95 111 -155 -67 151 237 209 151
94 111 -179 -94 115 203 188 140
85 106 -194 -121 66 150 151 118
68 97 -201 -154 7 86 104 89
48 91 -202 -190 -54 21 56 58
26 88 -200 -226 -110 -36 12 30
7 80 -193 -253 -155 -82 -27 3
-8 69 -180 -259 -180 -114 -57 -23
-17 57 -159 -245 -183 -128 -75 -41
-21 52 -138 -221 -171 -122 -78 -49
-22 49 -119 -192 -151 -108 -72 -48
-22 46 -103 -164 -130 -94 -64 -46
-23 44 -86 -139 -111 -80 -57 -44
-22 42 -70 -115 -94 -68 -51 -40
-21 39 -55 -92 -76 -56 -45 -37
-20 36 -40 -72 -62 -46 -39 -35
-19 35 -28 -57 -51 -37 -35 -34
-19 33 -18 -45 -43 -30 -32 -33
-18 30 -10 -34 -34 -25 -29 -32
-17 28 -5 -26 -27 -21 -28 -31
-16 27 0 -20 -23 -19 -26 -29
-14 26 2 -16 -21 -16 -24 -29
-15 25 4 -15 -20 -15 -23 -28
-15 24 6 -12 -18 -13 -22 -27
-15 24 6 -12 -17 -13 -21 -28
-15 24 7 -11 -18 -14 -22 -28
-15 24 8 -10 -18 -14 -22 -29
-15 24 9 -9 -17 -14 -23 -29
-15 24 9 -8 -17 -14 -23 -29
-15 24 10 -6 -16 -13 -23 -29
-16 24 10 -5 -15 -12 -23 -29
-16 25 11 -4 -14 -11 -21 -28
-16 25 12 -3 -12 -10 -20 -27
-15 26 12 -4 -13 -10 -19 -27
-15 26 11 -4 -13 -9 -19 -27
-14 26 11 -4 -14 -9 -20 -28
-14 26 12 -4 -15 -10 -21 -28
-14 26 12 -4 -15 -11 -21 -29
-14 26 11 -3 -15 -12 -22 -30
-14 26 11 -3 -15 -12 -22 -30
-14 26 11 -2 -15 -11 -22 -30
-14 26 12 -2 -16 -10 -21 -30
-14 26 12 -2 -16 -9 -21 -29
-14 25 12 -2 -16 -9 -20 -28
-15 26 12 -3 -15 -8 -19 -28
-15 26 11 -3 -15 -9 -19 -28
-14 25 11 -3 -17 -10 -19 -28
-14 24 11 -3 -18 -10 -20 -29
-14 24 11 -3 -17 -10 -20 -30
-14 25 11 -3 -17 -10 -21 -30
-14 25 11 -3 -17 -10 -21 -30
-15 24 11 -2 -16 -10 -19 -30
-15 24 12 0 -16 -9 -18 -30
-14 24 12 0 -16 -9 -19 -29
-12 25 11 -2 -16 -10 -19 -30
-12 25 10 -3 -16 -10 -19 -29
-12 25 10 -3 -16 -10 -19 -28
-12 25 10 -3 -17 -11 -20 -28
-12 24 10 -2 -17 -10 -19 -29
-12 24 10 -2 -17 -11 -19 -29
-12 23 11 0 -16 -11 -19 -29
-12 22 11 0 -16 -11 -19 -29
-13 22 12 0 -14 -9 -17 -27
-12 21 12 0 -14 -9 -17 -26
-12 20 12 0 -13 -9 -16 -26
-11 20 12 0 -12 -8 -17 -27
-11 19 12 0 -13 -9 -17 -27
-11 18 11 0 -14 -9 -17 -27
-11 17 12 1 -13 -9 -16 -26
-11 16 12 1 -13 -9 -16 -26
-12 16 11 1 -13 -9 -16 -26
-12 15 12 2 -12 -8 -15 -25
-12 13 12 1 -12 -8 -15 -25
-12 11 13 3 -11 -7 -13 -23
-12 11 13 3 -11 -6 -12 -22
-11 11 14 3 -10 -6 -12 -21
-11 10 14 3 -10 -5 -12 -21
-10 9 13 3 -10 -5 -12 -22
-10 8 12 3 -11 -4 -12 -22
-10 7 13 4 -10 -4 -11 -21
-10 6 12 4 -10 -4 -11 -21
-10 6 12 3 -9 -3 -11 -21
-10 5 12 4 -9 -2 -10 -21
-10 5 13 4 -8 -2 -10 -20
-10 5 13 4 -8 0 -9 -19
-9 4 13 4 -8 0 -9 -18
-9 3 14 6 -8 0 -8 -17
-9 2 14 6 -9 0 -9 -17
-10 2 13 5 -9 -2 -9 -18
-10 2 13 6 -9 -2 -8 -18
-9 2 13 7 -9 0 -7 -18
-9 2 13 8 -7 1 -6 -16
-8 2 13 8 -6 3 -5 -15
-8 1 13 9 -6 3 -4 -14
-8 1 13 9 -6 4 -4 -14
-8 1 12 8 -5 4 -4 -14
-7 1 12 8 -5 4 -4 -14
-7 1 13 9 -5 4 -4 -14
-6 1 12 9 -5 3 -5 -15
-6 2 12 10 -4 4 -5 -14
-6 2 12 11 -3 5 -4 -14
-6 1 12 11 -2 6 -3 -13
-6 2 12 12 -2 7 -2 -11
-6 3 12 12 0 8 1 -9
-5 4 12 12 0 8 1 -9
-5 4 12 13 1 8 1 -8
-4 5 10 12 0 8 1 -9
-4 6 10 13 1 8 1 -8
-3 7 9 12 1 7 1 -9
-3 8 9 13 3 9 2 -8
-3 9 9 15 4 11 4 -7
-2 10 8 14 3 12 5 -6
0 11 7 14 3 12 5 -6
0 12 7 15 4 13 7 -4
0 13 7 16 5 14 8 -3
0 15 6 16 5 14 8 -2
2 17 5 15 6 14 8 0
3 19 5 15 7 15 9 1
4 20 4 16 7 15 9 1
4 22 3 16 8 16 10 1
4 24 2 17 9 18 12 3
5 27 0 16 9 19 13 3
6 29 0 17 9 20 15 5
8 31 -2 18 10 21 17 7
9 33 -3 18 11 23 19 9
11 35 -4 18 11 23 20 11
11 37 -5 18 12 24 21 12
12 38 -6 18 12 24 21 13
13 40 -7 18 14 25 23 14
14 44 -8 18 15 26 24 15
15 45 -9 18 15 27 25 16
15 47 -10 19 16 28 26 17
16 48 -10 18 18 30 27 19
17 50 -11 18 19 32 29 20
18 52 -11 19 18 33 30 22
19 53 -12 18 18 33 30 22
20 55 -14 17 18 32 31 23
21 57 -15 17 18 33 31 23
23 59 -16 18 19 34 32 24
24 60 -16 18 20 35 32 24
23 61 -16 18 21 36 34 25
23 61 -16 17 21 38 35 26
23 62 -16 17 22 39 36 28
24 63 -16 16 22 38 36 28
24 64 -16 17 23 39 38 29
24 65 -16 16 23 39 38 30
24 65 -16 16 23 39 38 30
24 66 -17 15 21 38 36 29
24 65 -16 16 21 38 36 29
23 65 -16 16 21 37 36 27
23 65 -16 15 21 36 35 26
22 64 -15 15 21 37 35 27
22 64 -15 14 21 36 33 26
21 63 -15 13 19 34 31 24
20 62 -14 12 18 32 29 22
19 61 -13 11 16 30 26 20
18 59 -12 10 15 28 24 18
17 56 -12 10 13 26 21 16
15 54 -12 8 11 23 18 13
14 52 -12 7 8 20 15 11
12 50 -11 6 8 20 14 10
11 49 -11 4 6 17 11 7
9 47 -10 4 6 17 11 6
8 46 -10 2 3 14 8 3
7 45 -10 2 2 12 7 3
7 44 -10 0 0 10 4 1
6 42 -10 -3 -3 7 2 -3
4 39 -9 -4 -5 5 0 -5
2 37 -9 -5 -6 3 -3 -7
1 36 -8 -6 -8 1 -5 -9
0 35 -9 -8 -10 -2 -7 -12
-2 34 -9 -9 -11 -2 -8 -13
-3 33 -9 -10 -12 -3 -9 -13
-4 31 -9 -11 -13 -4 -11 -13
-5 30 -9 -12 -15 -7 -13 -14
-6 29 -8 -13 -16 -9 -14 -15
-6 28 -9 -15 -18 -11 -15 -16
-7 27 -8 -15 -19 -12 -16 -17
-7 26 -9 -16 -20 -13 -17 -19
-7 26 -9 -16 -21 -14 -18 -20
-8 26 -9 -16 -21 -14 -18 -20
-9 25 -9 -17 -21 -14 -18 -21
-10 24 -9 -17 -20 -14 -18 -20
-11 23 -8 -18 -21 -14 -19 -20
-11 22 -8 -19 -23 -16 -19 -20
-11 22 -8 -19 -24 -17 -19 -21
-10 22 -8 -19 -24 -18 -20 -21
-10 22 -9 -19 -24 -18 -21 -22
-11 22 -9 -20 -25 -19 -22 -23
-11 20 -8 -20 -25 -18 -21 -23
-13 19 -8 -19 -24 -18 -21 -23
-13 18 -8 -20 -25 -19 -21 -23
-12 17 -8 -20 -25 -19 -21 -23
-12 15 -6 -19 -24 -18 -20 -21
-12 14 -6 -20 -24 -19 -20 -21
-13 13 -5 -19 -24 -18 -19 -20
-13 13 -5 -20 -24 -18 -19 -21
-13 11 -6 -20 -25 -19 -20 -21
-13 10 -6 -19 -25 -19 -20 -21
-13 9 -6 -19 -25 -19 -21 -22
-13 8 -6 -19 -25 -18 -21 -22
-13 8 -6 -19 -25 -18 -21 -23
-13 6 -5 -18 -25 -17 -21 -23
-13 5 -5 -19 -25 -17 -21 -23
-13 4 -4 -18 -25 -17 -21 -22
-14 3 -4 -18 -25 -18 -20 -21
-14 2 -3 -17 -24 -17 -19 -20
-14 1 -2 -17 -24 -17 -19 -20
-14 0 -2 -17 -23 -17 -19 -20
-14 -2 -2 -16 -22 -15 -18 -19
-14 -2 -2 -15 -21 -15 -17 -19
-14 -3 -2 -14 -20 -15 -17 -19
-14 -4 0 -14 -20 -14 -16 -19
-14 -5 1 -13 -19 -13 -15 -17
-13 -6 1 -12 -19 -13 -15 -17
-13 -7 0 -12 -19 -14 -15 -17
-12 -8 0 -12 -19 -14 -16 -17
-12 -8 1 -12 -18 -14 -16 -17
-12 -8 2 -12 -18 -14 -16 -16
-12 -8 2 -11 -17 -13 -15 -16
-12 -8 2 -11 -16 -13 -15 -16
-12 -9 2 -11 -16 -12 -14 -15
-11 -10 2 -10 -15 -11 -13 -15
-11 -10 2 -10 -14 -10 -13 -14
-11 -11 1 -9 -14 -10 -13 -13
-11 -11 1 -9 -13 -11 -13 -13
-11 -10 1 -9 -13 -11 -12 -13
-11 -10 2 -9 -13 -11 -11 -13
-11 -10 2 -8 -12 -10 -10 -13
-11 -10 2 -7 -11 -10 -9 -12
-11 -10 2 -6 -11 -9 -9 -12
-11 -10 2 -6 -11 -9 -9 -11
-11 -10 2 -6 -10 -9 -9 -10
-10 -10 2 -5 -10 -8 -8 -10
-10 -10 2 -4 -10 -7 -7 -10
-11 -10 2 -4 -10 -7 -7 -10
-11 -10 2 -5 -10 -8 -7 -10
-10 -9 2 -5 -10 -8 -7 -10
-10 -9 2 -4 -9 -7 -7 -10
-11 -8 3 -3 -8 -7 -6 -10
-10 -7 1 -4 -9 -7 -7 -10
-10 -6 1 -3 -8 -5 -6 -9
-9 -5 2 -3 -8 -5 -6 -9
-8 -3 2 -3 -7 -4 -5 -8
-7 0 2 -2 -7 -4 -5 -7
-7 1 2 0 -6 -3 -4 -7
-8 2 3 1 -5 -3 -3 -7
-8 3 3 2 -5 -3 -3 -7
-7 5 3 3 -3 -3 -2 -6
-6 7 4 6 1 1 1 -6
-4 11 5 9 4 4 3 -5
-3 14 6 13 8 8 6 -2
-2 16 8 18 12 12 8 1
-2 19 9 23 15 15 11 3
0 22 11 27 19 18 13 5
1 26 13 32 23 21 15 8
2 30 15 37 27 25 19 12
5 34 15 40 31 29 23 15
8 38 14 44 35 34 28 19
10 44 13 47 39 39 32 22
13 49 14 53 46 46 37 27
17 55 14 58 52 52 44 32
21 64 14 62 61 60 52 39
24 72 14 66 68 68 60 47
25 81 16 70 76 77 68 55
25 94 18 74 86 87 77 65
26 107 19 76 96 98 88 75
27 121 18 76 105 109 99 86
26 136 17 74 115 121 110 98
25 150 15 68 123 132 121 110
22 164 12 57 128 140 131 121
19 180 8 40 128 145 139 131
15 195 1 20 128 150 146 141
12 210 -6 3 130 159 156 152
10 223 -11 -14 131 165 164 161
7 233 -14 -32 130 170 171 169
5 241 -17 -50 127 172 174 174
2 251 -19 -62 127 177 180 182
0 262 -26 -76 125 183 189 192
-2 272 -40 -97 118 186 196 200
-3 281 -59 -119 111 188 201 206
0 290 -81 -143 101 188 206 213
1 299 -104 -166 90 189 213 222
1 308 -122 -189 79 191 220 230
1 317 -138 -205 72 193 226 237
3 326 -154 -222 64 195 233 246
5 330 -175 -239 50 194 239 255
6 331 -196 -258 33 191 242 261
9 331 -214 -267 22 191 247 267
14 332 -225 -269 17 194 256 274
16 334 -231 -273 11 195 263 282
17 334 -234 -279 2 194 268 288
17 332 -235 -285 -10 191 271 293
16 325 -231 -288 -22 184 271 295
14 313 -226 -294 -36 172 264 288
11 299 -218 -293 -49 160 258 282
11 284 -210 -286 -55 155 256 278
14 272 -202 -277 -57 153 255 274
15 262 -194 -265 -55 151 252 269
12 251 -184 -251 -55 144 240 257
8 235 -170 -232 -53 133 224 240
5 219 -155 -211 -49 120 204 221
4 201 -140 -186 -40 112 188 202
3 184 -122 -158 -31 105 175 186
4 168 -105 -132 -23 98 161 169
8 153 -90 -107 -17 89 145 150
13 137 -76 -82 -10 80 131 133
18 121 -66 -61 -5 70 113 113
19 107 -55 -46 -2 58 95 95
19 94 -49 -38 -7 39 70 73
18 76 -41 -30 -12 21 47 52
17 59 -34 -23 -16 7 25 29
14 43 -27 -17 -19 -7 5 9
11 30 -22 -13 -21 -16 -10 -7
9 23 -19 -12 -23 -22 -18 -15
8 20 -17 -11 -24 -24 -22 -19
7 17 -16 -10 -24 -25 -24 -21
5 14 -13 -8 -23 -26 -25 -22
4 12 -12 -7 -23 -28 -27 -24
3 8 -11 -6 -23 -30 -29 -27
2 4 -8 -5 -22 -30 -30 -28
1 1 -7 -4 -22 -31 -32 -31
-2 -3 -4 -3 -23 -31 -34 -32
-5 -7 -3 -2 -24 -33 -36 -35
-7 -10 -3 -2 -25 -35 -39 -37
-9 -13 -3 -4 -27 -38 -41 -39
-11 -16 0 -3 -28 -39 -43 -40
-11 -18 0 -4 -30 -43 -44 -43
-12 -20 1 -3 -30 -43 -45 -45
-14 -23 3 -2 -29 -43 -45 -45
-14 -25 4 -3 -29 -45 -46 -46
-15 -27 5 -2 -29 -45 -47 -46
-14 -29 6 -2 -29 -45 -47 -47
-13 -30 6 0 -29 -45 -48 -47
-13 -31 6 1 -29 -45 -48 -48
-13 -32 6 2 -29 -45 -47 -48
-13 -35 6 2 -29 -45 -46 -48
-14 -37 7 3 -29 -44 -45 -48
-14 -39 7 2 -30 -45 -46 -49
-14 -40 9 4 -29 -44 -45 -49
-14 -41 9 4 -29 -45 -45 -49
-14 -44 11 6 -28 -45 -44 -48
-14 -45 12 6 -28 -45 -44 -49
-14 -46 11 7 -28 -45 -45 -50
-14 -47 11 8 -26 -44 -44 -49
-14 -48 11 8 -27 -45 -45 -50
-14 -50 11 8 -27 -45 -45 -49
-14 -52 11 8 -27 -46 -46 -50
-14 -54 12 10 -26 -46 -46 -51
-14 -55 12 10 -27 -47 -47 -52
-14 -57 13 11 -26 -48 -47 -52
-14 -58 14 11 -26 -48 -48 -52
-14 -58 15 12 -25 -48 -48 -53
-13 -59 15 14 -25 -48 -48 -53
-13 -60 15 15 -25 -48 -48 -53
-13 -60 15 16 -26 -48 -49 -53
-13 -61 14 16 -26 -49 -50 -53
-13 -62 14 16 -26 -50 -50 -55
-13 -64 15 16 -26 -51 -50 -55
-13 -65 15 16 -26 -52 -51 -56
-12 -66 16 16 -27 -53 -53 -58
-12 -67 18 18 -26 -52 -53 -58
-12 -68 18 19 -26 -53 -54 -58
-11 -69 18 20 -26 -54 -55 -59
-11 -70 18 21 -27 -55 -56 -61
-10 -71 18 22 -28 -56 -57 -63
-10 -72 18 23 -27 -55 -57 -63
-11 -73 18 23 -28 -57 -59 -65
-11 -74 19 24 -28 -58 -60 -66
-11 -75 19 23 -30 -61 -61 -68
-10 -76 20 24 -30 -62 -63 -70
-10 -77 20 25 -30 -64 -65 -72
-9 -79 21 27 -30 -64 -65 -72
-8 -79 20 27 -32 -67 -68 -75
-8 -80 21 29 -32 -68 -69 -77
-7 -81 21 29 -34 -70 -71 -79
-7 -83 20 30 -36 -72 -73 -81
-7 -86 21 31 -36 -73 -75 -83
-7 -88 21 33 -37 -74 -76 -86
-6 -90 21 33 -38 -77 -79 -89
-5 -91 22 34 -39 -79 -81 -92
-5 -93 23 36 -39 -81 -83 -94
-5 -94 23 37 -40 -85 -87 -97
-4 -96 23 38 -43 -87 -90 -100
-3 -98 24 42 -43 -88 -91 -102
-2 -100 23 43 -44 -90 -94 -105
-2 -102 24 45 -44 -90 -96 -107
-2 -105 25 47 -45 -93 -99 -110
-2 -107 25 48 -46 -97 -102 -114
1 -109 26 50 -47 -99 -105 -117
2 -111 27 53 -47 -101 -107 -120
4 -112 27 54 -48 -104 -111 -123
5 -114 30 58 -47 -105 -114 -126
6 -116 31 62 -47 -107 -117 -130
8 -119 32 64 -47 -109 -120 -133
9 -121 34 67 -47 -111 -122 -136
10 -123 34 69 -47 -114 -126 -139
10 -124 35 71 -47 -116 -129 -142
11 -127 37 75 -45 -116 -131 -144
13 -129 39 77 -44 -118 -133 -147
14 -131 40 79 -44 -120 -135 -150
15 -132 43 82 -43 -121 -137 -152
16 -134 44 87 -43 -123 -140 -154
16 -135 47 91 -40 -123 -141 -155
17 -137 48 93 -39 -124 -143 -156
18 -137 49 96 -38 -126 -144 -157
18 -137 51 99 -36 -126 -145 -158
19 -137 51 100 -36 -127 -147 -160
19 -137 53 102 -34 -127 -148 -161
20 -137 55 104 -32 -127 -148 -162
20 -137 57 106 -30 -127 -149 -162
21 -135 58 107 -29 -127 -150 -162
21 -134 59 109 -27 -126 -149 -162
21 -133 60 110 -26 -124 -149 -161
22 -130 60 111 -24 -123 -148 -160
23 -128 61 112 -23 -122 -147 -158
23 -124 61 112 -22 -120 -146 -156
23 -121 61 111 -20 -119 -145 -155
22 -118 60 110 -19 -118 -143 -153
22 -115 60 109 -17 -116 -142 -151
22 -111 61 108 -15 -113 -139 -147
21 -107 61 108 -13 -111 -136 -144
21 -103 62 107 -11 -108 -133 -140
21 -99 60 105 -10 -105 -130 -137
21 -95 59 103 -8 -101 -126 -133
21 -90 56 100 -7 -99 -122 -129
20 -85 54 97 -6 -97 -118 -124
19 -80 53 94 -5 -93 -114 -121
18 -75 51 91 -4 -90 -109 -116
17 -70 49 88 -4 -87 -106 -112
16 -65 48 85 -3 -82 -102 -107
16 -61 46 81 -2 -78 -97 -103
15 -56 44 77 -2 -75 -93 -100
15 -52 42 75 0 -71 -88 -95
14 -47 39 72 1 -68 -82 -89
14 -43 36 67 1 -65 -78 -85
13 -37 34 63 2 -62 -74 -80
12 -33 31 59 2 -59 -70 -76
11 -30 29 56 3 -55 -65 -71
10 -27 27 52 3 -52 -62 -67
9 -24 26 49 4 -48 -57 -61
8 -21 24 45 4 -45 -53 -57
7 -17 22 42 4 -41 -50 -53
7 -14 20 38 3 -38 -46 -50
6 -12 18 35 4 -35 -40 -46
5 -10 15 31 3 -33 -38 -43
4 -9 14 28 4 -31 -34 -39
2 -7 13 25 4 -29 -30 -36
1 -6 13 23 5 -27 -27 -33
0 -4 12 21 5 -25 -25 -31
0 -3 12 19 5 -23 -22 -28
0 -2 10 16 4 -23 -21 -26
0 0 10 14 4 -21 -19 -25
-2 0 9 12 4 -20 -17 -24
-3 1 8 10 4 -20 -16 -23
-3 1 7 8 3 -19 -15 -21
-3 1 6 6 3 -18 -14 -20
-3 1 5 4 2 -18 -13 -19
-4 0 6 4 3 -16 -11 -17
-4 0 6 2 2 -16 -11 -16
-5 -2 7 2 2 -14 -9 -15
-6 -2 6 0 1 -15 -10 -15
-7 -3 7 1 1 -15 -9 -15
-7 -4 7 0 0 -16 -9 -15
-7 -5 7 0 0 -16 -9 -16
-8 -6 7 0 0 -16 -8 -16
-9 -8 8 0 0 -15 -7 -15
-9 -9 7 -2 -2 -16 -7 -15
-9 -10 8 0 0 -15 -6 -14
-9 -10 9 -2 0 -16 -6 -14
-9 -10 9 -3 0 -16 -6 -14
-9 -12 9 -3 -2 -16 -7 -14
-10 -13 9 -3 -2 -16 -7 -14
-10 -12 9 -3 -2 -16 -7 -13
-9 -12 9 -3 -3 -16 -6 -13
-9 -13 9 -2 -3 -15 -6 -13
-9 -14 8 -2 -3 -15 -6 -13
-10 -15 10 0 -2 -14 -4 -12
-10 -15 11 -2 -2 -14 -4 -12
-10 -16 11 -2 0 -14 -4 -11
-9 -16 12 -2 0 -14 -4 -11
-9 -16 12 0 1 -14 -4 -11
-9 -16 12 1 1 -13 -4 -11
-9 -17 12 1 1 -13 -4 -11
-9 -18 13 2 1 -12 -2 -11
-9 -19 13 3 1 -12 -2 -12
-9 -19 13 3 2 -12 -2 -12
-9 -19 13 3 3 -12 -2 -13
-8 -19 13 3 4 -12 -2 -14
-8 -19 13 3 4 -12 -2 -14
-8 -18 13 2 4 -12 -3 -16
-8 -17 13 3 4 -11 -3 -16
-8 -17 13 4 5 -11 -2 -16
-8 -18 14 5 5 -11 -2 -15
-8 -18 13 5 5 -11 0 -15
-8 -17 13 5 5 -11 0 -15
-8 -17 13 5 6 -11 0 -15
-8 -17 13 5 6 -10 0 -15
-9 -16 13 4 6 -10 0 -15
-9 -16 13 5 7 -9 1 -14
-9 -15 14 6 7 -8 1 -13
-8 -14 13 6 7 -9 0 -14
-8 -13 13 7 7 -9 0 -14
-7 -13 13 7 7 -8 1 -14
-7 -12 13 8 8 -8 1 -15
-7 -11 12 7 7 -9 0 -16
-8 -10 12 7 7 -8 0 -16
-7 -10 12 7 8 -8 0 -14
-7 -8 12 6 7 -9 0 -14
-8 -7 12 6 8 -9 1 -14
-8 -6 12 5 8 -8 2 -14
-8 -6 13 6 8 -7 2 -14
-7 -5 12 6 7 -7 1 -14
-7 -4 12 6 7 -7 2 -14
-7 -2 11 5 7 -8 2 -14
-7 0 11 5 6 -8 2 -14
-7 0 10 5 6 -8 2 -15
-6 -2 9 4 6 -8 2 -15
-6 0 9 5 7 -8 2 -15
-7 1 8 4 7 -8 2 -15
-6 2 8 2 6 -9 1 -15
-6 2 8 3 6 -8 1 -15
-5 3 8 2 6 -8 1 -16
-5 4 8 2 6 -7 2 -16
-4 5 7 1 6 -8 1 -17
-5 5 7 2 7 -7 2 -15
-5 5 7 2 7 -7 2 -15
-6 6 6 2 7 -7 2 -16
-6 7 5 1 6 -7 1 -16
-5 8 5 0 6 -7 1 -16
-6 8 5 0 7 -7 1 -15
-6 9 6 -2 7 -7 2 -15
-6 9 6 -2 7 -6 2 -15
-6 10 4 -2 6 -7 1 -16
-5 11 4 -2 6 -6 2 -16
-5 11 3 -2 6 -7 2 -15
-5 12 2 -3 5 -8 1 -16
-5 13 2 -4 5 -8 1 -16
-5 13 3 -4 5 -8 1 -17
-6 13 3 -5 4 -9 0 -17
-6 13 3 -5 4 -9 0 -16
-6 14 3 -5 4 -9 0 -16
-6 15 3 -5 5 -9 0 -16
-6 15 3 -6 4 -9 0 -16
-6 16 2 -7 2 -10 -2 -17
-6 16 1 -7 1 -10 -3 -17
-6 16 0 -8 1 -9 -3 -17
-6 16 0 -7 1 -10 -3 -17
-5 16 0 -7 1 -10 -2 -17
-6 16 0 -7 1 -11 -2 -17
-6 17 1 -8 0 -11 -2 -16
-6 17 1 -9 0 -11 -3 -17
-6 17 1 -9 0 -10 -3 -17
-6 17 1 -9 0 -10 -3 -17
-6 17 1 -9 0 -9 -3 -17
-6 17 0 -9 0 -10 -3 -17
-6 17 0 -9 -2 -10 -3 -17
-7 17 -2 -10 -2 -10 -4 -17
-7 17 -2 -10 -2 -10 -4 -17
-7 17 -2 -11 -2 -10 -4 -16
-7 16 1 -10 -2 -9 -4 -16
-7 16 0 -9 -3 -9 -4 -16
-7 16 0 -9 -3 -9 -4 -16
-7 16 0 -9 -3 -9 -4 -16
-7 16 0 -9 -2 -9 -5 -15
-6 16 -2 -10 -4 -10 -6 -16
-6 16 -2 -10 -4 -10 -6 -17
-6 15 0 -10 -3 -9 -5 -16
-6 15 0 -10 -3 -9 -5 -16
-6 15 0 -10 -3 -9 -5 -16
-7 15 1 -10 -3 -10 -5 -15
-7 14 1 -10 -4 -10 -5 -15
-8 14 2 -9 -3 -9 -4 -15
-8 14 2 -9 -3 -8 -4 -15
-7 14 1 -10 -5 -9 -5 -16
-8 13 1 -9 -4 -8 -4 -15
-8 13 1 -9 -4 -8 -4 -14
-8 12 1 -9 -4 -8 -4 -14
-7 11 1 -9 -4 -8 -4 -14
-7 10 2 -9 -3 -7 -3 -13
-7 8 2 -9 -3 -8 -4 -13
-7 7 3 -8 -2 -7 -3 -13
-6 7 2 -8 -2 -9 -4 -14
-6 7 2 -8 -2 -7 -3 -13
-6 6 3 -6 0 -5 0 -12
-6 5 3 -7 -2 -5 0 -11
-6 4 3 -7 -2 -6 0 -11
-6 3 4 -6 0 -5 1 -10
-7 2 4 -7 0 -6 0 -11
-7 1 5 -6 1 -5 1 -10
-7 0 5 -7 0 -4 1 -10
-7 0 5 -5 0 -4 1 -10
-7 -2 5 -4 1 -4 1 -9
-7 -3 6 -3 2 -3 2 -8
-7 -4 6 -4 2 -3 2 -8
-8 -6 6 -3 3 -2 3 -8
-8 -6 6 -3 3 -3 3 -8
-7 -7 7 -3 3 -3 3 -8
-7 -7 7 -3 3 -2 3 -7
-7 -8 7 -3 3 -2 3 -7
-8 -9 8 -3 4 -2 3 -6
-8 -9 8 -3 4 -2 3 -6
-8 -9 8 -3 4 -3 2 -7
-8 -9 9 -2 4 -2 3 -6
-7 -10 9 -2 4 0 4 -6
-7 -10 9 -2 4 0 4 -6
-7 -10 9 -2 4 0 4 -6
-6 -10 9 0 4 0 4 -6
-6 -10 9 1 5 0 4 -6
-7 -11 9 1 4 1 4 -6
-7 -11 9 0 4 1 4 -5
-7 -11 9 0 4 1 4 -5
-6 -11 9 0 4 1 4 -4
-6 -11 9 0 4 1 4 -4
-6 -11 10 0 4 1 5 -4
-6 -11 9 0 4 1 5 -5
-6 -12 9 0 4 1 5 -5
-6 -12 8 0 4 0 5 -5
-6 -12 8 0 4 0 5 -5
-7 -11 8 0 4 0 4 -4
-7 -11 8 0 3 0 4 -4
-8 -11 9 1 4 0 5 -3
-8 -11 9 1 4 0 5 -3
-7 -10 8 0 3 -2 5 -4
-7 -10 8 0 3 0 5 -4
-6 -10 9 0 3 0 5 -4
-6 -9 7 -2 2 -2 4 -5
-7 -8 7 -2 2 0 4 -5
-7 -8 7 -3 2 0 4 -5
-7 -7 7 -2 2 0 3 -4
-8 -6 8 -2 2 -2 2 -4
-9 -6 7 -2 2 -3 1 -5
-9 -5 7 -3 1 -3 2 -6
-8 -4 6 -4 1 -3 1 -6
-7 -2 5 -4 0 -4 1 -6
-6 0 5 -4 1 -4 1 -6
-6 1 4 -5 -2 -5 -2 -7
-6 1 3 -5 -3 -5 -2 -8
-7 1 4 -5 -2 -4 0 -7
-7 2 4 -6 -2 -5 0 -7
-6 3 4 -6 -2 -5 0 -7
-6 4 4 -6 -2 -5 0 -7
-6 5 4 -6 -2 -5 1 -7
-6 6 4 -6 -2 -5 1 -8
-6 6 4 -7 -2 -6 1 -8
-6 6 4 -7 -2 -6 1 -8
-6 7 4 -7 -4 -6 0 -8
-6 8 4 -7 -4 -6 0 -8
-6 8 3 -7 -4 -6 -2 -8
-6 9 3 -8 -4 -6 0 -8
-6 9 3 -8 -3 -5 0 -7
-6 10 2 -8 -4 -7 -2 -8
-6 10 2 -8 -4 -7 -3 -8
-7 11 2 -7 -4 -8 -3 -9
-7 11 2 -8 -4 -8 -3 -9
-7 11 2 -8 -4 -8 -3 -9
-7 12 2 -8 -4 -8 -3 -9
-7 13 2 -8 -5 -7 -3 -9
-7 14 0 -8 -6 -8 -4 -11
-8 14 1 -8 -5 -7 -3 -9
-8 15 1 -9 -5 -7 -4 -10
-7 15 2 -9 -5 -7 -4 -10
-7 15 1 -9 -5 -7 -4 -10
-7 15 1 -8 -5 -8 -4 -10
-6 16 0 -9 -6 -9 -4 -11
-6 16 0 -9 -5 -9 -4 -11
-5 16 0 -9 -5 -8 -4 -10
-5 17 0 -9 -5 -8 -5 -10
-5 17 0 -9 -5 -8 -5 -11
-6 18 0 -9 -5 -7 -4 -11
-6 18 0 -8 -5 -7 -4 -11
-6 18 0 -8 -4 -7 -4 -11
-5 18 -2 -10 -5 -9 -5 -12
-6 18 0 -10 -4 -8 -3 -11
-7 19 0 -10 -4 -8 -3 -11
-6 19 -2 -10 -5 -9 -4 -12
-5 19 -2 -10 -5 -8 -3 -12
-5 20 0 -9 -5 -8 -3 -12
-5 20 -2 -9 -5 -8 -2 -12
-6 20 -2 -10 -6 -8 -3 -12
-7 19 -2 -9 -6 -8 -3 -11
-7 20 -3 -10 -7 -9 -3 -11
-6 20 -2 -10 -7 -9 -2 -11
-6 21 -2 -10 -6 -8 -2 -11
-6 21 -2 -10 -6 -8 -3 -12
-6 20 -2 -10 -6 -9 -2 -12
-6 20 -2 -9 -6 -9 -2 -11
-6 20 -2 -9 -6 -9 0 -11
-5 20 -2 -9 -6 -8 0 -10
-5 21 -3 -9 -7 -8 -2 -11
-6 20 -2 -7 -5 -7 0 -10
-7 19 1 -6 -4 -6 1 -9
-6 19 0 -7 -5 -8 -2 -11
-6 19 0 -7 -5 -8 -2 -10
-6 19 -2 -7 -6 -8 -2 -10
-6 18 0 -5 -5 -7 0 -10
-5 18 -2 -6 -6 -8 0 -11
-5 18 0 -5 -6 -8 1 -10
-5 18 0 -5 -5 -8 1 -11
-5 17 1 -4 -4 -7 2 -10
-6 16 0 -5 -5 -7 1 -10
-7 15 1 -5 -4 -5 1 -9
-6 15 2 -3 -3 -5 2 -8
-5 16 2 -2 -4 -6 2 -9
-5 16 2 0 -3 -6 2 -8
-6 16 3 1 -2 -5 3 -8
-5 16 4 2 0 -3 4 -6
-4 17 5 2 0 -3 4 -6
-4 17 5 3 1 -2 5 -5
-3 17 6 4 3 0 5 -4
-3 18 8 6 5 1 6 -3
-3 19 8 6 6 2 6 -2
-2 20 10 8 7 4 8 0
0 21 10 8 8 5 8 1
1 21 11 10 9 6 10 3
2 20 12 11 10 7 11 4
2 20 13 12 10 7 11 4
2 19 14 13 11 8 12 4
1 18 16 15 12 9 13 5
1 18 17 16 13 10 13 6
2 18 16 16 13 9 13 6
2 16 16 17 14 11 14 7
3 14 15 17 14 11 14 6
6 14 14 17 14 11 14 7
8 16 12 18 15 13 15 8
10 16 9 18 17 15 16 9
11 15 7 17 16 14 16 10
12 14 4 15 15 13 16 10
13 13 1 13 14 13 16 10
13 12 2 14 16 15 18 11
13 13 3 15 17 15 19 11
13 15 4 16 18 17 21 13
14 16 3 16 19 17 21 14
16 17 2 15 18 17 22 14
17 17 1 15 19 18 23 15
17 18 0 13 18 18 22 14
17 17 -2 13 18 18 23 15
17 16 -3 11 16 17 22 15
17 14 -4 11 14 16 21 14
17 12 -6 9 12 13 19 13
16 10 -6 7 10 12 17 12
15 8 -5 6 9 11 17 12
15 6 -5 6 9 11 17 12
14 5 -4 7 9 11 17 11
12 4 -3 7 9 11 17 11
10 3 0 8 10 12 17 11
9 1 1 8 10 12 17 11
7 -2 1 8 9 11 16 11
5 -4 2 7 8 10 15 9
3 -6 3 7 8 10 14 8
1 -7 3 6 7 8 12 7
-2 -7 2 4 4 6 9 4
-4 -8 3 2 3 4 8 2
-5 -9 4 1 3 4 7 2
-5 -8 4 1 3 3 6 2
-6 -7 3 1 2 2 5 1
-7 -7 3 0 1 1 3 0
-7 -7 2 0 0 1 2 -2
-7 -7 2 -2 -2 0 1 -3
-8 -7 1 -2 -2 0 1 -4
-8 -7 1 -3 -2 0 0 -3
-9 -6 1 -4 -2 0 -2 -3
-9 -6 1 -4 -3 -2 -2 -3
-9 -6 0 -4 -4 -3 -3 -4
-9 -5 0 -4 -5 -4 -4 -4
-9 -4 0 -5 -6 -4 -4 -5
-10 -4 0 -5 -6 -5 -5 -5
-10 -3 0 -5 -7 -5 -5 -5
-10 -2 -2 -6 -8 -5 -6 -6
-9 -2 -2 -6 -7 -4 -5 -6
-10 0 -2 -6 -7 -4 -6 -6
-10 0 0 -6 -8 -4 -6 -7
-11 1 -2 -6 -8 -5 -6 -7
-10 2 -3 -7 -9 -6 -7 -8
-10 3 -3 -7 -9 -6 -7 -8
-11 2 -2 -7 -9 -6 -6 -7
-11 2 -2 -7 -9 -6 -7 -7
-11 2 -2 -7 -9 -7 -8 -7
-11 3 -3 -8 -10 -8 -8 -8
-10 4 -3 -8 -9 -7 -8 -8
-10 4 -3 -7 -9 -8 -9 -9
-10 4 -3 -7 -9 -8 -10 -10
-9 4 -3 -7 -10 -10 -11 -13
-9 3 1 -2 -8 -9 -10 -13
-9 2 4 5 -4 -7 -11 -13
-9 1 6 14 4 0 -9 -13
-6 1 6 22 14 9 -3 -10
-2 0 3 23 22 18 7 -4
4 -2 -3 17 26 27 16 2
10 -2 -10 8 29 37 28 10
18 0 -20 -3 35 52 44 20
28 4 -32 -12 46 69 62 33
42 12 -45 -18 61 94 86 52
54 24 -57 -21 79 121 113 73
65 38 -69 -23 98 145 137 93
73 54 -86 -26 112 164 154 108
82 72 -107 -31 123 182 171 121
95 89 -130 -39 133 198 187 137
106 101 -155 -55 130 202 194 146
112 106 -179 -77 110 188 189 146
112 105 -199 -102 75 155 167 134
103 99 -212 -129 30 108 134 113
87 93 -217 -159 -20 54 94 88
64 89 -216 -192 -69 3 55 63
42 85 -213 -225 -115 -44 20 42
19 75 -203 -248 -152 -81 -13 19
2 63 -185 -254 -173 -108 -40 -4
-10 51 -163 -238 -176 -118 -57 -21
-15 46 -140 -214 -163 -114 -60 -28
-18 44 -121 -186 -146 -105 -56 -28
-18 42 -105 -158 -127 -93 -50 -26
-17 38 -89 -134 -108 -80 -41 -23
-17 35 -72 -110 -91 -67 -34 -21
-17 32 -57 -87 -74 -54 -28 -19
-16 28 -43 -65 -59 -44 -22 -16
-16 25 -29 -49 -47 -34 -18 -15
-16 22 -19 -36 -38 -29 -15 -15
-15 19 -14 -28 -31 -25 -14 -15
-14 17 -8 -20 -26 -21 -12 -13
-14 15 -6 -17 -23 -18 -11 -13
-14 14 -3 -13 -19 -15 -8 -11
-13 13 0 -11 -16 -15 -6 -10
-13 13 1 -9 -15 -14 -6 -10
-12 12 2 -8 -15 -14 -5 -10
-12 11 3 -8 -14 -15 -5 -11
-12 10 3 -7 -13 -15 -5 -11
-11 10 4 -5 -12 -14 -6 -11
-11 9 5 -4 -11 -13 -6 -11
-12 9 6 -2 -10 -12 -5 -11
-12 8 7 0 -9 -12 -5 -12
-12 7 7 1 -9 -12 -5 -12
-12 7 8 2 -7 -11 -3 -10
-11 5 9 4 -5 -9 -2 -8
-11 3 9 4 -6 -8 -2 -8
-11 3 9 4 -6 -8 0 -8
-11 2 10 5 -5 -7 1 -7
-11 2 10 6 -5 -7 1 -7
-11 1 10 6 -5 -8 1 -7
-11 0 10 6 -6 -8 1 -8
-11 -2 11 7 -5 -7 1 -7
-11 -3 11 7 -4 -7 1 -6
-11 -4 11 7 -3 -6 3 -6
-11 -5 13 9 -2 -4 6 -4
-11 -6 13 9 -2 -3 6 -4
-10 -7 13 9 -3 -3 6 -4
-10 -8 12 8 -4 -4 5 -4
-10 -9 13 9 -3 -4 4 -4
-11 -10 13 9 -4 -4 4 -4
-11 -10 13 9 -4 -5 5 -4
-11 -11 13 10 -3 -5 6 -4
-11 -11 14 10 -3 -4 6 -4
-11 -12 14 10 -2 -3 7 -4
-11 -13 15 12 1 -3 8 -2
-11 -13 15 11 1 -3 8 0
-11 -14 15 10 1 -4 8 -2
-10 -14 15 10 1 -4 8 -2
-10 -15 15 10 1 -4 8 -3
-10 -15 15 10 2 -4 8 -2
-10 -16 14 10 3 -4 7 -2
-11 -17 15 11 4 -3 8 0
-11 -17 14 11 4 -3 8 -2
-11 -18 14 11 6 -3 9 -3
-10 -18 15 11 7 -2 10 -2
-10 -18 15 11 7 -2 10 0
-9 -18 15 11 7 -3 9 0
-10 -18 14 11 7 -4 9 -2
-10 -18 14 11 6 -4 9 -3
-10 -19 14 10 6 -4 9 -4
-10 -19 14 10 7 -4 8 -3
-10 -19 14 10 8 -3 8 -3
-10 -19 15 11 8 -3 9 -3
-10 -19 15 11 7 -2 10 -3
-9 -19 15 11 8 0 11 -2
-9 -18 14 11 9 0 12 0
-8 -18 13 10 8 -2 12 0
-8 -17 13 10 8 -2 11 0
-7 -17 12 11 7 -3 10 -2
-7 -16 11 10 6 -4 8 -3
-7 -16 10 10 6 -4 8 -3
-8 -15 10 10 7 -4 8 -4
-8 -14 11 10 7 -4 9 -5
-8 -14 11 10 7 -3 9 -7
-8 -14 11 11 7 -3 9 -9
-8 -14 11 11 7 -2 9 -8
-8 -13 11 11 7 -2 9 -8
-8 -12 11 10 7 0 9 -8
-8 -11 11 10 6 -2 8 -8
-8 -10 10 9 5 -3 7 -10
-7 -9 9 10 5 -2 7 -10
-6 -8 8 9 5 -2 7 -10
-5 -7 8 9 5 -2 7 -10
-5 -5 8 9 6 0 8 -9
-5 -4 8 9 5 0 8 -9
-4 -2 7 8 5 0 8 -9
-4 0 6 9 6 1 8 -9
-4 0 6 9 6 1 9 -8
-5 0 6 10 5 0 8 -6
-5 1 5 10 5 0 8 -4
-4 3 4 9 5 -2 7 -2
-4 4 4 10 7 0 7 1
-3 6 4 10 7 0 7 1
-3 7 4 10 7 1 8 2
-3 8 4 10 8 2 9 3
-3 9 3 11 9 2 10 5
-2 10 2 10 8 2 9 4
-2 11 2 10 9 2 10 5
0 12 1 10 8 2 9 5
1 13 0 10 8 3 9 5
1 14 0 11 10 4 11 6
2 16 0 11 11 5 11 6
2 17 0 12 12 6 13 7
2 18 0 13 12 6 14 7
3 19 0 14 13 7 15 9
4 21 -2 14 13 7 15 10
5 22 -2 14 14 8 16 11
6 23 -4 14 14 9 17 12
6 24 -4 16 16 10 18 14
7 26 -5 16 16 11 19 14
8 28 -6 16 16 12 20 15
9 29 -8 16 17 13 21 15
10 30 -8 18 20 15 23 18
11 32 -8 18 21 16 25 20
12 33 -9 19 22 18 28 21
14 35 -9 19 23 20 30 23
16 36 -10 19 24 22 31 23
16 38 -11 19 24 23 32 23
17 39 -12 18 25 23 33 22
18 42 -13 19 26 24 35 22
20 45 -14 20 27 26 37 22
21 46 -14 21 29 28 39 23
22 48 -15 21 30 30 40 24
23 49 -15 21 31 31 43 25
25 50 -16 21 31 32 44 26
26 51 -16 22 33 35 46 28
27 52 -17 22 33 36 48 30
28 52 -17 23 34 38 50 33
29 53 -18 22 34 38 51 33
29 53 -19 24 34 39 52 34
30 55 -20 24 35 42 53 34
31 57 -20 24 36 43 55 35
31 58 -20 25 37 44 56 36
32 58 -20 24 37 44 56 37
33 58 -20 25 38 45 57 38
32 58 -20 25 39 46 57 39
32 58 -19 25 39 46 58 39
32 58 -19 24 39 46 58 40
32 57 -18 25 40 47 58 40
31 56 -19 25 39 47 58 39
31 55 -18 26 39 47 58 39
30 54 -17 25 39 46 56 37
30 53 -15 26 39 46 56 36
29 51 -14 26 39 45 54 36
28 50 -14 24 37 43 51 33
27 48 -13 23 36 40 49 32
26 46 -12 22 34 38 47 30
25 43 -11 22 34 37 46 29
23 40 -11 21 31 34 44 26
21 38 -12 20 29 31 40 24
19 35 -10 20 28 29 38 22
18 33 -9 19 27 28 35 20
18 31 -9 18 25 26 33 19
16 29 -8 16 23 25 32 17
15 26 -7 15 21 22 30 15
13 23 -6 14 20 21 28 13
12 20 -6 12 18 18 24 11
10 17 -5 12 17 17 23 11
9 15 -5 10 15 15 21 8
7 13 -5 9 13 13 19 6
6 11 -4 8 12 11 17 5
5 8 -3 8 12 10 16 4
4 6 -3 7 10 9 15 2
3 3 -2 6 9 8 13 1
2 1 0 5 7 7 12 1
1 -2 0 4 6 5 10 0
1 -4 1 3 5 4 9 -2
1 -6 0 1 3 2 7 -4
0 -7 0 0 2 0 7 -4
-2 -9 1 0 1 -2 6 -4
-2 -10 0 -2 0 -4 4 -6
-4 -12 1 0 1 -3 5 -5
-5 -13 1 -2 0 -4 4 -6
-5 -14 2 -2 0 -3 3 -5
-5 -15 2 -4 0 -3 3 -6
-5 -16 2 -5 -2 -3 2 -6
-5 -18 2 -5 -2 -4 2 -6
-6 -19 2 -5 -2 -4 2 -5
-6 -20 1 -5 -3 -5 1 -6
-7 -20 2 -5 -3 -5 0 -6
-8 -21 2 -6 -4 -5 1 -7
-8 -21 2 -6 -4 -5 1 -7
-8 -22 3 -5 -3 -4 2 -7
-8 -23 3 -5 -4 -4 1 -7
-8 -23 3 -6 -4 -5 1 -7
-8 -24 4 -6 -5 -5 1 -7
-7 -24 4 -6 -5 -5 1 -6
-7 -25 3 -6 -5 -5 1 -5
-7 -25 3 -6 -6 -5 0 -6
-8 -25 3 -5 -6 -4 0 -6
-8 -26 3 -5 -6 -4 0 -6
-8 -27 3 -5 -6 -4 0 -7
-9 -28 4 -5 -6 -4 1 -7
-10 -28 4 -6 -7 -4 0 -7
-11 -29 5 -6 -7 -3 0 -6
-11 -29 5 -6 -7 -4 -2 -6
-10 -28 4 -7 -8 -6 -3 -6
-9 -28 4 -7 -8 -5 -2 -5
-9 -28 4 -7 -8 -5 -2 -5
-10 -27 4 -7 -9 -6 -4 -6
-11 -27 4 -7 -11 -6 -4 -6
-11 -27 4 -7 -11 -6 -4 -7
-11 -27 4 -7 -11 -7 -4 -7
-10 -26 5 -6 -10 -7 -4 -7
-10 -25 4 -7 -11 -7 -5 -8
-10 -25 4 -6 -10 -7 -5 -9
-10 -24 4 -6 -10 -8 -5 -9
-10 -24 5 -6 -10 -8 -6 -9
-10 -23 5 -6 -10 -9 -6 -9
-11 -22 5 -6 -9 -8 -7 -9
-11 -21 3 -7 -10 -9 -9 -10
-11 -20 3 -7 -10 -9 -9 -10
-11 -20 3 -6 -10 -9 -8 -10
-11 -19 3 -6 -10 -9 -8 -10
-11 -19 3 -6 -11 -8 -8 -10
-11 -18 3 -7 -12 -9 -9 -11
-11 -17 3 -7 -11 -10 -9 -11
-11 -16 3 -6 -11 -10 -9 -10
-11 -15 2 -7 -11 -11 -10 -11
-11 -14 3 -6 -10 -10 -10 -11
-11 -13 3 -5 -10 -10 -10 -10
-11 -13 3 -5 -10 -9 -9 -10
-11 -13 3 -5 -10 -9 -8 -10
-11 -12 2 -6 -10 -10 -9 -11
-11 -11 2 -6 -10 -10 -9 -10
-11 -10 2 -5 -9 -9 -9 -10
-10 -10 2 -5 -10 -9 -9 -9
-10 -9 2 -6 -10 -9 -8 -9
-11 -8 2 -5 -9 -9 -8 -9
-10 -7 1 -5 -10 -9 -8 -10
-10 -7 1 -5 -10 -9 -8 -9
-10 -7 1 -5 -9 -8 -8 -9
-10 -6 1 -4 -8 -7 -8 -9
-9 -5 1 -4 -7 -6 -8 -9
-8 -4 1 -4 -8 -7 -8 -9
-8 -3 2 -3 -7 -6 -6 -8
-9 0 2 -2 -6 -5 -5 -7
-9 0 3 1 -5 -3 -4 -6
-9 1 3 1 -5 -3 -4 -7
-8 2 4 3 -4 -2 -3 -6
-7 4 4 5 -3 1 0 -5
-6 7 4 7 1 3 1 -3
-5 9 5 12 5 6 4 0
-4 11 6 16 8 10 6 2
-4 13 9 21 13 14 10 4
-2 16 10 25 16 16 11 7
0 19 13 30 21 22 15 11
2 22 13 35 25 26 18 14
4 25 13 38 29 29 22 17
7 29 12 40 33 33 27 20
10 34 11 43 37 38 31 23
13 39 12 47 43 45 37 29
16 45 12 52 50 51 44 35
20 52 11 56 57 59 51 43
23 60 12 60 64 68 60 50
25 69 13 63 70 75 68 57
26 79 14 66 80 85 76 66
26 93 15 71 91 97 88 77
27 106 17 75 101 108 99 89
27 119 18 75 112 120 111 101
27 134 13 69 120 131 121 112
26 147 8 59 126 140 132 123
22 161 6 48 130 148 143 135
17 176 3 34 133 156 153 146
14 190 -3 20 135 163 162 158
11 203 -8 9 138 172 171 169
8 213 -10 -6 138 177 177 176
5 222 -11 -22 136 180 182 182
2 231 -12 -35 135 184 188 189
-2 241 -15 -48 136 191 197 198
-4 252 -23 -65 134 195 204 207
-5 261 -37 -87 127 198 211 215
-5 267 -56 -108 118 200 217 222
-5 273 -78 -133 106 201 221 229
-5 281 -97 -158 95 199 225 236
-6 289 -114 -178 86 199 231 243
-6 298 -131 -193 78 201 238 253
-6 302 -151 -214 64 200 242 260
-6 302 -173 -235 48 196 245 264
-3 299 -194 -248 34 194 248 269
4 298 -208 -253 27 197 257 277
10 298 -220 -257 20 199 264 284
11 295 -226 -265 9 195 268 289
10 289 -227 -276 -6 187 267 292
8 281 -223 -281 -21 177 264 290
6 270 -218 -285 -36 163 257 285
5 256 -210 -284 -49 151 248 278
3 241 -201 -278 -56 144 243 272
3 228 -191 -267 -57 141 240 267
3 216 -180 -255 -57 135 234 259
-2 202 -164 -239 -57 127 222 245
-7 188 -145 -217 -52 119 207 229
-9 174 -128 -192 -43 113 193 212
-9 158 -110 -165 -32 109 182 196
-8 142 -93 -139 -25 101 167 180
-6 122 -75 -112 -21 91 150 161
0 102 -58 -86 -14 79 133 142
5 84 -44 -59 -6 73 117 123
9 68 -31 -37 2 65 102 105
9 52 -23 -25 2 51 80 85
7 32 -12 -15 -2 34 56 62
6 13 -2 -6 -3 20 34 40
5 -3 5 2 -4 9 16 21
4 -12 9 8 -5 2 3 8
4 -16 11 11 -5 -3 -4 2
4 -20 10 12 -5 -4 -8 -3
4 -23 7 12 -6 -6 -9 -5
4 -26 3 10 -8 -9 -13 -8
4 -29 3 11 -8 -9 -14 -9
4 -31 4 13 -6 -9 -14 -9
5 -30 4 14 -5 -9 -16 -9
6 -30 5 15 -3 -8 -16 -9
7 -30 5 16 -2 -8 -16 -9
7 -30 5 16 -3 -8 -16 -9
8 -31 5 17 -3 -8 -16 -9
9 -31 3 16 -5 -9 -18 -10
9 -32 3 16 -5 -10 -18 -9
9 -34 2 15 -7 -13 -20 -11
9 -37 2 14 -8 -15 -22 -12
9 -40 2 13 -10 -17 -24 -14
8 -43 3 12 -12 -18 -26 -16
7 -45 4 12 -12 -18 -27 -16
7 -47 6 13 -10 -17 -27 -17
6 -49 7 14 -10 -16 -26 -16
5 -50 8 16 -10 -16 -26 -15
5 -50 8 17 -11 -17 -27 -16
4 -52 9 18 -11 -16 -27 -17
2 -55 9 19 -12 -17 -29 -18
0 -57 9 18 -13 -19 -31 -20
-3 -60 9 16 -14 -22 -34 -22
-5 -62 11 16 -14 -23 -35 -23
-7 -63 11 16 -16 -25 -38 -25
-8 -64 11 14 -18 -27 -41 -28
-10 -64 13 14 -19 -26 -41 -29
-9 -65 14 15 -20 -27 -41 -29
-10 -65 13 15 -21 -28 -44 -31
-11 -67 13 15 -22 -28 -45 -31
-11 -68 13 15 -22 -29 -46 -31
-11 -69 13 15 -23 -31 -48 -31
-11 -69 12 15 -23 -32 -49 -33
-11 -69 12 14 -24 -34 -50 -34
-12 -69 12 14 -25 -35 -52 -36
-12 -69 12 13 -25 -36 -54 -37
-11 -70 13 14 -25 -36 -55 -38
-11 -69 13 14 -26 -37 -55 -39
-11 -69 13 15 -27 -37 -56 -39
-11 -69 12 15 -28 -38 -58 -40
-11 -69 11 14 -29 -39 -59 -41
-11 -70 10 14 -30 -41 -61 -43
-12 -71 11 15 -29 -41 -61 -43
-11 -71 12 15 -30 -44 -63 -45
-10 -71 12 14 -30 -46 -65 -47
-10 -70 12 15 -30 -47 -66 -48
-9 -70 12 16 -31 -47 -67 -48
-9 -70 12 16 -32 -49 -67 -49
-8 -71 12 17 -32 -50 -69 -50
-9 -71 11 17 -32 -51 -71 -51
-9 -72 11 17 -33 -53 -73 -52
-9 -73 11 18 -33 -53 -74 -53
-9 -74 11 17 -34 -55 -75 -55
-9 -75 10 17 -35 -57 -77 -58
-9 -76 12 18 -35 -57 -77 -59
-8 -76 11 18 -37 -59 -79 -62
-7 -76 12 19 -37 -60 -80 -62
-6 -78 12 20 -38 -62 -83 -63
-7 -80 13 21 -39 -63 -86 -65
-7 -82 13 22 -39 -64 -87 -66
-6 -83 13 24 -40 -66 -89 -68
-4 -85 12 25 -41 -68 -91 -70
-4 -87 12 25 -44 -70 -93 -73
-3 -89 12 26 -44 -72 -95 -75
-3 -91 13 26 -45 -74 -98 -78
-2 -93 14 28 -46 -75 -100 -80
0 -95 14 29 -48 -77 -103 -83
1 -98 15 31 -48 -79 -104 -86
1 -100 14 32 -49 -82 -107 -89
2 -103 15 34 -50 -85 -109 -91
3 -105 14 35 -51 -88 -112 -95
4 -106 14 36 -53 -91 -115 -98
5 -108 15 38 -53 -93 -117 -100
7 -111 15 39 -54 -95 -120 -103
7 -114 16 40 -55 -97 -123 -106
8 -117 18 43 -55 -99 -127 -110
9 -119 19 44 -56 -101 -130 -113
11 -122 20 46 -57 -103 -133 -116
12 -126 21 49 -57 -105 -135 -118
13 -128 21 51 -59 -108 -139 -121
13 -131 22 54 -59 -109 -141 -124
14 -133 24 57 -59 -111 -143 -127
15 -135 24 58 -60 -113 -145 -130
16 -137 24 59 -60 -116 -148 -134
17 -139 26 62 -60 -116 -150 -135
18 -141 28 65 -60 -118 -152 -138
20 -143 30 68 -60 -119 -154 -140
21 -143 32 72 -59 -120 -155 -141
23 -144 33 74 -59 -121 -157 -143
24 -145 34 77 -58 -121 -158 -144
24 -146 36 80 -56 -120 -158 -145
25 -146 37 81 -56 -122 -160 -146
25 -147 39 85 -53 -121 -159 -146
26 -147 39 86 -52 -122 -159 -148
26 -147 42 88 -50 -121 -159 -148
27 -146 45 89 -48 -120 -159 -146
27 -144 46 90 -47 -119 -158 -146
27 -143 48 93 -44 -117 -156 -144
28 -141 49 95 -43 -117 -156 -143
27 -139 49 96 -40 -116 -155 -142
26 -137 50 97 -38 -113 -153 -138
26 -134 50 96 -36 -112 -151 -136
26 -131 50 96 -33 -110 -149 -134
26 -128 50 96 -31 -107 -145 -131
26 -123 51 96 -28 -103 -142 -128
26 -119 51 95 -26 -101 -139 -124
26 -115 52 94 -24 -98 -135 -120
25 -111 52 94 -22 -95 -131 -117
24 -108 51 92 -20 -92 -127 -113
23 -104 50 90 -19 -89 -123 -110
23 -100 49 88 -17 -85 -118 -105
22 -96 48 87 -15 -81 -114 -100
21 -92 48 86 -12 -77 -109 -96
20 -88 46 84 -9 -73 -105 -91
19 -83 45 80 -7 -69 -100 -87
19 -79 44 78 -6 -64 -96 -82
18 -76 43 76 -4 -60 -91 -78
17 -72 42 73 -3 -57 -86 -73
16 -68 39 71 -2 -53 -80 -69
14 -65 38 68 1 -49 -75 -64
13 -63 36 64 1 -46 -71 -60
12 -60 35 61 3 -43 -66 -55
11 -57 33 58 4 -39 -62 -51
10 -54 31 55 4 -36 -58 -47
8 -51 30 53 5 -32 -54 -43
8 -49 29 50 6 -29 -51 -38
7 -47 28 48 7 -25 -46 -34
6 -45 27 45 8 -22 -41 -30
6 -43 25 42 7 -20 -38 -27
6 -40 23 37 7 -18 -35 -24
6 -39 22 35 7 -16 -32 -21
4 -38 21 32 8 -14 -29 -19
3 -37 20 30 9 -12 -26 -16
2 -36 19 28 10 -10 -24 -14
1 -36 19 26 10 -8 -21 -11
0 -36 19 24 9 -7 -20 -10
-2 -35 19 22 9 -6 -18 -9
-2 -35 18 20 9 -5 -17 -7
-3 -35 17 19 8 -4 -16 -5
-3 -35 16 17 7 -4 -14 -5
-4 -35 17 16 8 -3 -12 -4
-5 -35 16 14 8 -3 -12 -4
-6 -35 15 12 7 -3 -12 -4
-7 -35 15 11 6 -2 -11 -3
-7 -35 15 10 6 -3 -10 -3
-7 -35 16 9 6 -3 -11 -3
-8 -34 16 8 5 -3 -11 -3
-9 -34 15 7 4 -2 -11 -3
-9 -35 15 7 3 -2 -11 -3
-9 -36 16 7 4 0 -11 -2
-8 -37 15 7 4 0 -12 0
-9 -37 15 6 3 -2 -12 -2
-9 -38 15 6 3 -3 -12 -2
-10 -38 16 6 3 -2 -11 0
-10 -37 16 5 2 -4 -12 -2
-10 -36 16 5 3 -3 -12 -2
-9 -36 16 6 3 -3 -12 -2
-9 -37 16 6 3 -3 -11 -2
-9 -36 16 6 3 -3 -11 -2
-9 -36 16 6 3 -2 -11 -2
-9 -35 14 5 2 -3 -12 -3
-9 -35 14 5 2 -2 -12 -3
-9 -35 14 4 3 -2 -12 -3
-9 -35 14 5 3 -2 -12 -3
-10 -35 14 6 4 -2 -11 -3
-11 -34 14 6 4 -3 -12 -3
-11 -33 15 5 3 -4 -12 -3
-10 -32 16 6 3 -3 -12 -3
-10 -31 15 6 3 -4 -13 -4
-10 -30 15 6 3 -4 -13 -4
-9 -30 15 7 3 -4 -14 -4
-9 -30 15 7 4 -5 -13 -4
-8 -29 14 6 4 -5 -14 -5
-8 -28 14 6 5 -4 -13 -5
-8 -26 14 6 4 -5 -14 -6
-8 -26 14 6 5 -5 -14 -6
-8 -25 14 7 5 -4 -14 -5
-7 -24 13 6 5 -5 -15 -6
-8 -23 13 6 5 -5 -15 -6
-8 -22 12 6 6 -4 -15 -7
-8 -21 11 6 5 -5 -16 -8
-7 -20 11 7 5 -5 -16 -7
-7 -20 12 7 6 -5 -15 -7
-7 -19 11 5 5 -6 -16 -8
-8 -19 12 6 5 -4 -16 -7
-8 -18 12 6 5 -5 -16 -8
-7 -18 13 7 5 -5 -16 -7
-7 -17 12 6 5 -4 -15 -6
-6 -16 11 5 5 -5 -16 -7
-6 -15 11 6 5 -4 -16 -7
-6 -14 11 6 5 -4 -16 -7
-5 -13 10 6 5 -5 -16 -7
-5 -12 10 6 6 -4 -15 -6
-5 -11 10 7 6 -4 -15 -6
-6 -11 10 6 6 -4 -15 -7
-7 -11 10 5 5 -4 -15 -8
-7 -10 10 5 5 -4 -14 -7
-6 -10 10 6 5 -4 -13 -6
-6 -10 10 6 5 -3 -13 -5
-6 -10 11 5 5 -2 -12 -4
-6 -9 9 4 4 -3 -13 -6
-6 -9 9 4 4 -4 -13 -6
-6 -8 9 5 4 -4 -13 -5
-5 -6 8 5 4 -4 -14 -5
-5 -6 8 5 3 -4 -14 -5
-5 -6 8 4 3 -4 -14 -5
-5 -6 8 4 4 -4 -13 -5
-4 -6 8 4 5 -4 -13 -4
-4 -5 7 3 4 -4 -14 -5
-3 -5 7 2 4 -4 -14 -6
-4 -5 6 1 3 -5 -14 -6
-4 -4 6 0 3 -5 -15 -6
-5 -3 5 0 3 -5 -15 -6
-5 -3 5 1 4 -5 -15 -6
-5 -2 5 1 3 -4 -15 -6
-5 -2 6 1 3 -4 -14 -6
-5 -2 6 1 3 -5 -14 -5
-5 0 5 0 2 -6 -15 -5
-5 0 5 0 2 -6 -15 -5
-5 0 5 -2 2 -5 -15 -5
-5 0 5 -2 1 -5 -15 -5
-5 0 4 0 0 -5 -15 -5
-6 0 5 0 1 -5 -14 -5
-7 -2 4 -2 1 -6 -15 -6
-7 -2 4 -3 1 -6 -15 -5
-6 -2 4 -3 1 -5 -15 -4
-6 0 5 -3 1 -5 -15 -4
-6 0 5 -3 1 -6 -15 -4
-6 0 5 -3 0 -5 -15 -4
-5 0 4 -3 -2 -6 -16 -5
-5 1 4 -3 -2 -6 -16 -5
-5 1 4 -4 -3 -7 -16 -6
-6 1 4 -5 -3 -7 -16 -6
-6 1 3 -5 -3 -7 -16 -6
-6 1 3 -5 -3 -7 -16 -5
-6 1 3 -6 -3 -7 -15 -5
-6 1 3 -6 -3 -7 -15 -4
-6 1 3 -6 -4 -6 -14 -4
-6 1 3 -6 -4 -7 -14 -4
-6 1 3 -7 -4 -7 -14 -4
-6 0 4 -6 -4 -5 -13 -2
-6 0 4 -6 -4 -5 -13 -2
-7 -2 3 -6 -4 -6 -13 -3
-8 -3 4 -6 -4 -6 -12 -4
-8 -3 4 -6 -4 -5 -13 -2
-7 -3 4 -6 -4 -5 -12 0
-6 -4 5 -5 -3 -4 -12 0
-6 -5 6 -6 -3 -4 -12 0
-7 -5 6 -7 -3 -4 -12 0
-7 -6 6 -6 -2 -3 -11 0
-7 -7 6 -6 -3 -4 -12 0
-6 -8 5 -6 -3 -4 -12 0
-6 -8 5 -6 -3 -4 -12 0
-6 -8 5 -6 -3 -3 -12 0
-6 -8 6 -5 -2 -3 -12 0
-6 -10 7 -5 0 -2 -11 1
-7 -10 7 -5 0 -2 -11 2
-8 -11 7 -4 0 0 -10 3
-8 -12 7 -4 0 -2 -10 3
-8 -13 7 -4 0 -2 -10 3
-7 -14 7 -4 -2 -2 -10 2
-8 -15 7 -5 -2 0 -10 2
-9 -16 8 -4 -2 0 -9 2
-9 -17 8 -4 -2 0 -9 2
-8 -18 9 -4 0 1 -9 2
-8 -18 9 -3 1 1 -9 2
-7 -20 10 -2 2 2 -8 3
-7 -20 10 -2 1 2 -8 4
-7 -21 10 -2 1 2 -8 5
-7 -22 10 -2 1 2 -8 5
-7 -23 11 0 2 3 -7 5
-7 -23 10 0 2 3 -7 5
-7 -24 10 -2 2 2 -7 5
-7 -25 9 -2 1 2 -7 5
-8 -25 10 -2 2 3 -7 6
-8 -26 10 -2 2 4 -7 6
-7 -26 10 0 3 4 -6 6
-7 -26 11 1 3 5 -6 6
-8 -26 11 1 2 5 -6 6
-9 -27 12 2 3 5 -4 7
-8 -27 12 2 2 4 -5 6
-8 -27 12 2 2 4 -5 6
-7 -28 12 2 3 4 -5 6
-7 -27 11 2 2 4 -5 5
-7 -27 11 2 2 4 -4 6
-6 -27 11 2 3 5 -4 7
-6 -27 12 3 4 6 -3 8
-6 -27 11 2 3 6 -4 8
-7 -28 11 2 3 5 -4 7
-7 -28 11 2 2 5 -5 7
-7 -28 11 2 2 4 -5 6
-7 -27 10 2 2 4 -5 6
-6 -26 9 1 1 3 -6 6
-6 -26 9 2 2 4 -6 6
-6 -26 9 2 2 3 -6 6
-7 -25 9 2 2 3 -6 5
-7 -25 10 2 2 4 -6 6
-7 -24 11 2 2 5 -6 6
-7 -23 11 2 1 5 -6 6
-7 -22 10 1 0 4 -7 5
-7 -22 10 1 0 3 -7 4
-7 -22 10 0 0 3 -7 4
-6 -21 10 0 0 3 -7 5
-6 -20 8 -2 -2 3 -8 4
-6 -18 8 -2 0 2 -8 5
-6 -18 8 -3 0 1 -8 4
-6 -17 8 -3 0 1 -9 2
-7 -16 8 -3 0 2 -8 3
-7 -16 8 -3 0 2 -9 3
-7 -15 7 -4 -2 1 -9 3
-6 -14 7 -4 -2 2 -9 3
-6 -13 7 -3 -2 2 -8 3
-6 -13 7 -3 -2 2 -8 4
-7 -12 7 -3 -2 2 -9 4
-8 -12 8 -4 -2 1 -9 3
-8 -11 8 -5 -2 1 -9 2
-7 -11 7 -5 -3 1 -10 2
-6 -10 7 -5 -4 1 -9 3
-6 -9 6 -7 -5 1 -10 2
-6 -8 6 -6 -5 1 -10 2
-6 -8 6 -6 -5 1 -10 2
-6 -7 6 -6 -5 1 -10 2
-5 -7 5 -7 -6 0 -11 1
-5 -6 5 -8 -6 0 -11 1
-5 -5 5 -8 -7 0 -12 1
-5 -5 5 -9 -7 1 -12 1
-5 -4 4 -10 -6 0 -13 0
-5 -4 4 -10 -5 0 -12 0
-5 -3 4 -10 -6 0 -13 0
-6 -3 4 -10 -6 -2 -13 -2
-7 -3 5 -10 -6 0 -12 1
-7 -2 4 -10 -7 -2 -12 0
-6 -2 4 -10 -6 0 -13 0
-6 -2 5 -10 -6 0 -13 0
-5 0 4 -12 -7 -2 -14 -2
-5 0 4 -12 -7 -2 -14 0
-5 1 4 -12 -7 -2 -14 0
-5 1 4 -12 -7 -2 -14 0
-5 2 4 -12 -7 -2 -14 0
-5 2 4 -12 -7 -2 -14 0
-4 3 2 -13 -9 -4 -15 -3
-4 3 2 -14 -9 -4 -16 -3
-4 3 2 -14 -9 -3 -16 -3
-5 3 2 -14 -9 -2 -16 -2
-5 3 2 -14 -9 -3 -16 -3
-5 3 2 -14 -9 -3 -16 -3
-5 5 2 -13 -9 -3 -16 -3
-5 5 3 -13 -9 -3 -16 -3
-5 5 2 -13 -9 -3 -16 -2
-5 5 2 -13 -9 -3 -16 -2
-5 5 2 -13 -9 -3 -16 -2
-5 5 3 -13 -9 -3 -16 -2
-5 5 3 -13 -9 -3 -16 -2
-5 5 3 -13 -8 -3 -16 -2
-5 5 3 -13 -8 -2 -16 -2
-5 5 2 -13 -8 -2 -16 -2
-4 6 2 -14 -10 -2 -17 -2
-4 6 2 -14 -10 -2 -17 -2
-4 6 2 -14 -10 -2 -17 -2
-4 5 2 -14 -10 -3 -17 -2
-4 5 2 -14 -10 -3 -16 -3
-4 5 2 -14 -10 -3 -16 -3
-4 5 2 -14 -10 -3 -16 -2
-4 5 2 -14 -10 -3 -16 -2
-4 6 2 -14 -10 -4 -16 -2
-4 6 2 -14 -10 -4 -16 -2
-5 6 2 -14 -9 -2 -16 -2
-4 6 3 -13 -9 0 -16 0
-4 6 3 -13 -9 0 -16 0
-4 5 3 -13 -9 0 -16 0
-5 5 4 -13 -8 1 -15 1
-4 4 4 -13 -7 0 -15 0
-4 4 4 -13 -7 0 -15 0
-4 3 4 -13 -7 -2 -15 -2
-4 3 4 -13 -7 -2 -15 -2
-4 2 4 -13 -7 0 -15 -2
-4 1 5 -11 -6 1 -15 0
-4 0 5 -11 -6 1 -15 0
-5 -2 5 -10 -5 2 -14 1
-4 -3 5 -10 -5 2 -14 0
-4 -2 5 -11 -5 2 -14 0
-3 -2 5 -11 -5 3 -14 1
-4 -3 6 -10 -5 3 -13 2
-4 -4 5 -11 -6 2 -13 1
-4 -5 5 -11 -6 3 -13 2
-4 -5 5 -10 -6 4 -13 3
-4 -6 6 -9 -5 5 -12 4
-4 -7 7 -9 -6 5 -12 3
-3 -8 7 -9 -6 5 -13 3
-4 -9 8 -9 -5 6 -12 4
-4 -10 8 -9 -5 5 -13 4
-4 -10 8 -9 -5 5 -13 3
-3 -11 8 -8 -4 6 -12 3
-3 -11 9 -8 -3 6 -12 4
-2 -11 9 -8 -3 7 -11 5
-2 -13 9 -8 -2 7 -11 5
-3 -14 10 -7 0 8 -10 5
-3 -14 9 -7 0 8 -10 5
-3 -14 9 -7 0 8 -10 5
-3 -14 9 -7 1 8 -10 6
-3 -15 10 -7 0 8 -10 5
-3 -16 11 -6 1 9 -9 6
-4 -17 11 -6 0 8 -9 6
-4 -17 11 -6 1 8 -9 7
-4 -17 12 -5 2 8 -8 8
-3 -16 13 -4 4 10 -6 9
-2 -15 14 -3 4 10 -7 9
0 -14 14 -3 4 10 -7 9
0 -14 15 -2 4 11 -6 10
0 -14 15 -2 5 11 -4 10
1 -13 16 1 6 12 -3 12
2 -12 17 1 7 13 -3 12
3 -10 18 2 8 14 -3 13
4 -10 20 3 10 16 -2 14
4 -8 20 3 10 17 -2 14
5 -6 20 3 10 17 0 14
5 -5 21 4 11 18 1 15
5 -4 21 5 12 18 1 16
5 -3 22 6 12 19 1 17
5 -3 23 7 13 20 2 17
6 -2 22 7 13 20 2 17
7 -2 21 8 14 20 2 16
8 -4 20 9 13 19 1 15
10 -4 19 12 15 19 1 16
12 -2 16 14 15 20 2 17
13 1 13 15 15 21 3 18
14 2 11 16 16 22 3 19
14 2 9 16 16 22 4 20
15 1 7 15 15 22 4 19
16 1 4 13 13 21 3 18
16 2 5 15 14 23 4 20
17 6 5 16 15 23 4 20
18 9 5 17 16 23 5 20
19 10 4 16 15 22 5 20
19 12 3 16 15 22 5 21
19 14 2 14 14 22 5 22
20 15 0 13 13 22 5 22
20 16 -2 12 12 21 4 22
22 16 -5 9 8 19 1 20
22 14 -5 8 6 18 1 19
22 11 -6 7 4 16 -2 17
21 10 -7 5 3 15 -3 16
20 9 -8 3 1 12 -5 14
18 8 -7 2 1 11 -5 13
16 7 -6 2 1 11 -6 13
15 6 -4 3 1 11 -6 13
15 6 -3 4 1 11 -6 13
14 7 -3 5 1 11 -7 12
11 5 -2 5 1 11 -8 11
7 3 0 5 0 10 -10 9
5 2 0 4 -3 8 -12 8
4 2 -2 2 -5 6 -14 6
3 1 -2 1 -6 5 -15 4
1 0 0 1 -6 4 -15 3
0 0 0 0 -7 2 -18 2
-2 -2 1 0 -7 2 -18 1
-3 -3 1 -2 -8 0 -19 0
-4 -2 1 -2 -10 0 -20 -2
-4 -2 0 -2 -11 -2 -20 -3
-5 -3 0 -3 -11 0 -20 -3
-5 -4 0 -4 -11 -2 -21 -2
-5 -2 0 -4 -11 -2 -21 0
-5 0 -2 -4 -12 -2 -21 0
-5 0 -3 -4 -12 -2 -22 -2
-5 0 -3 -4 -12 -3 -23 -2
-5 0 -2 -4 -12 -3 -23 -3
-5 1 -2 -4 -12 -2 -23 -3
-5 0 0 -4 -12 -3 -23 -4
-6 0 1 -3 -12 -2 -23 -3
-5 1 0 -3 -12 -3 -24 -4
-4 1 0 -3 -12 -3 -25 -4
-4 1 -2 -3 -12 -3 -25 -4
-4 1 -2 -3 -12 -3 -26 -4
-4 1 -2 -4 -12 -3 -25 -5
-5 2 -2 -4 -12 -3 -25 -5
-6 2 -2 -5 -12 -3 -26 -5
-6 2 -2 -5 -12 -3 -26 -5
-5 2 -2 -4 -11 -3 -26 -5
-5 2 -3 -4 -12 -4 -26 -5
-5 2 -3 -5 -13 -5 -27 -6
-5 1 -3 -5 -13 -6 -27 -6
-5 0 -3 -4 -14 -6 -28 -7
-6 -2 -2 -3 -13 -5 -28 -8
-6 -3 0 0 -12 -6 -28 -10
-6 -4 4 7 -7 -4 -27 -11
-5 -6 7 16 1 2 -24 -10
-2 -8 9 25 11 11 -17 -6
3 -7 5 26 17 19 -11 -2
7 -8 -2 20 21 28 -2 4
14 -10 -10 11 24 38 8 10
22 -9 -18 2 29 52 22 20
33 -6 -27 -6 42 70 42 34
47 3 -39 -10 57 93 64 52
61 15 -52 -12 74 118 89 71
72 28 -64 -13 92 142 110 89
80 44 -79 -16 106 161 128 103
91 61 -99 -21 118 179 144 116
104 77 -120 -28 127 194 161 132
116 90 -145 -43 125 198 170 142
125 94 -171 -65 106 184 164 141
122 92 -190 -90 71 151 144 129
111 85 -203 -118 27 105 110 109
93 76 -208 -149 -22 54 72 86
70 72 -210 -184 -69 5 34 63
48 69 -205 -218 -113 -38 2 42
25 59 -197 -241 -150 -73 -30 19
8 46 -180 -246 -170 -99 -56 -4
-4 36 -157 -231 -171 -109 -71 -20
-11 31 -134 -205 -159 -105 -73 -26
-14 27 -115 -178 -142 -95 -69 -26
-14 23 -98 -150 -123 -82 -63 -24
-14 19 -82 -126 -104 -70 -56 -22
-14 15 -66 -101 -86 -58 -49 -19
-13 11 -51 -77 -69 -45 -41 -16
-11 7 -36 -57 -56 -35 -35 -15
-12 3 -23 -40 -44 -26 -30 -13
-12 -3 -13 -28 -34 -20 -28 -12
-12 -8 -5 -17 -26 -14 -24 -11
-11 -10 1 -10 -20 -10 -22 -10
-11 -12 4 -6 -16 -7 -20 -10
-11 -13 7 -2 -13 -5 -18 -9
-10 -14 8 1 -12 -5 -18 -10
-10 -15 9 3 -11 -4 -17 -11
-10 -16 10 5 -10 -4 -17 -11
-10 -18 11 7 -9 -3 -17 -10
-10 -20 12 9 -7 -3 -16 -9
-10 -21 13 11 -7 -3 -17 -9
-10 -22 14 12 -5 -3 -16 -8
-9 -22 14 14 -4 -3 -15 -7
-9 -23 15 16 -2 -2 -14 -6
-10 -24 16 18 0 1 -12 -5
-11 -25 17 19 2 3 -10 -4
-10 -25 17 19 3 2 -10 -4
-9 -25 19 20 4 4 -8 -3
-8 -26 19 20 3 4 -9 -4
-8 -27 19 19 2 2 -10 -6
-8 -27 19 20 2 1 -10 -7
-8 -27 19 21 2 2 -10 -8
-9 -27 21 23 3 4 -8 -7
-10 -27 21 23 4 5 -8 -7
-10 -28 21 24 4 5 -8 -7
-9 -29 21 24 4 4 -7 -8
-9 -30 21 25 5 4 -6 -7
-8 -31 21 25 4 4 -5 -7
-7 -30 20 23 3 4 -6 -8
-7 -29 19 23 3 4 -5 -9
-8 -29 19 22 3 4 -5 -9
-9 -29 19 22 3 3 -5 -10
-10 -29 20 23 4 3 -4 -9
-10 -28 19 23 5 3 -4 -10
-9 -27 19 23 6 4 -4 -10
-9 -27 20 23 6 3 -3 -10
-8 -27 19 22 5 2 -3 -10
-7 -26 19 22 6 3 -2 -9
-7 -26 19 21 6 3 -2 -10
-7 -26 19 21 7 3 -3 -10
-8 -26 19 21 7 2 -3 -11
-8 -26 19 21 7 1 -2 -11
-8 -25 18 22 8 1 -2 -11
-8 -25 18 22 10 1 -2 -11
-8 -24 16 21 9 1 -2 -13
-7 -23 16 21 10 1 0 -13
-7 -23 17 20 10 2 0 -13
-7 -23 18 20 10 1 0 -13
-7 -22 17 19 9 0 -2 -14
-6 -22 17 19 9 -2 -2 -13
-6 -21 16 19 9 -2 0 -13
-6 -20 14 17 8 -3 -2 -15
-7 -18 13 17 8 -2 -2 -15
-8 -16 13 17 8 -2 0 -15
-8 -15 12 16 8 -2 -2 -16
-7 -14 13 17 8 0 0 -16
-7 -13 13 18 9 0 0 -15
-7 -13 14 18 9 -2 0 -15
-6 -13 13 18 9 -2 0 -15
-5 -13 12 16 8 -4 -2 -16
-6 -13 13 17 8 -3 0 -15
-6 -13 13 17 8 -3 0 -15
-5 -11 12 17 8 -3 -2 -16
-5 -10 10 16 8 -4 -2 -16
-5 -10 10 16 9 -3 0 -16
-4 -10 11 16 9 -2 1 -15
-4 -9 10 15 9 -3 2 -14
-4 -8 9 14 8 -4 1 -14
-4 -7 9 14 8 -3 2 -13
-4 -7 9 14 9 -2 2 -13
-4 -7 9 14 9 -3 2 -13
-4 -6 9 14 9 -3 3 -13
-4 -5 8 14 10 -3 2 -14
-4 -5 8 14 11 -3 2 -13
-4 -4 8 15 12 -2 2 -13
-4 -3 8 15 12 -2 2 -13
-4 -2 7 14 11 -3 2 -13
-3 0 8 15 12 -2 4 -12
-2 0 7 14 11 -2 3 -12
-2 0 7 14 11 -2 4 -11
0 0 7 15 11 -2 4 -10
1 1 6 14 12 0 3 -10
1 2 7 15 14 1 3 -8
0 3 6 15 14 2 4 -7
0 4 6 16 14 2 4 -7
1 4 5 16 14 1 3 -7
1 5 5 16 15 2 3 -5
1 6 5 17 15 3 3 -4
2 6 4 17 15 3 2 -4
3 7 4 17 16 3 3 -3
4 8 3 17 16 3 3 -2
4 8 3 17 16 4 3 0
5 8 3 18 17 4 4 1
5 8 2 19 18 5 5 2
6 8 1 19 18 6 4 2
6 8 1 19 19 6 5 4
6 10 1 20 21 7 7 6
8 13 0 20 21 8 8 6
9 15 0 20 21 10 8 6
10 17 -3 20 21 10 8 8
10 18 -3 21 22 11 9 10
10 19 -3 21 23 13 10 12
11 19 -3 23 25 15 11 14
12 19 -3 25 26 16 13 16
12 19 -3 26 28 18 16 18
14 19 -4 27 29 20 17 20
16 20 -5 27 30 21 18 22
18 21 -5 27 31 22 19 23
19 22 -6 27 31 23 20 24
21 24 -6 27 32 25 22 26
22 25 -8 27 33 27 25 28
23 27 -9 27 34 28 26 29
23 28 -9 28 34 30 27 31
23 29 -9 30 36 31 29 33
24 30 -10 31 38 32 29 34
25 30 -10 32 40 34 31 36
27 29 -11 32 40 34 33 37
29 30 -11 33 42 35 34 38
30 31 -11 34 43 37 37 40
31 32 -11 33 44 38 38 42
32 33 -12 33 45 40 39 43
33 33 -12 34 47 44 42 45
33 34 -13 35 48 45 44 47
33 34 -14 35 48 46 46 48
34 34 -15 35 48 46 47 48
35 33 -14 36 50 48 48 49
36 33 -13 37 51 49 49 50
36 32 -13 37 51 50 50 50
37 31 -13 37 51 50 51 50
37 30 -11 39 53 53 52 52
37 28 -10 39 54 53 52 52
36 27 -9 42 55 53 53 52
35 25 -8 43 55 53 53 52
34 22 -9 44 56 54 53 52
34 21 -8 44 56 54 53 52
32 20 -7 44 56 54 52 51
31 18 -6 44 55 53 51 49
30 17 -6 43 53 51 49 47
30 14 -5 43 52 49 48 45
28 12 -3 43 52 47 46 44
26 9 -3 42 50 44 44 42
24 6 0 40 48 43 42 39
23 3 1 39 47 40 38 38
22 0 3 39 47 40 38 37
21 -4 3 38 45 38 37 34
18 -7 5 36 44 37 35 32
16 -10 6 35 42 35 34 31
15 -10 6 33 39 31 31 30
15 -10 5 31 37 30 29 28
13 -13 6 30 35 29 28 27
12 -15 6 28 32 26 25 24
10 -17 6 25 29 22 22 20
8 -19 6 25 28 20 20 19
6 -21 8 25 27 20 20 19
5 -23 9 24 26 20 18 18
5 -25 9 22 24 18 16 16
4 -26 8 19 21 15 14 13
2 -27 8 18 20 14 14 12
1 -29 8 17 19 12 12 11
1 -31 9 16 17 10 11 10
0 -33 8 15 15 9 9 8
-2 -33 7 13 13 7 7 7
-2 -33 7 11 13 7 6 6
-3 -32 7 10 12 7 5 5
-3 -32 7 10 11 6 5 3
-3 -32 7 8 10 5 4 3
-4 -31 7 7 8 3 3 3
-4 -31 6 6 6 1 2 3
-4 -31 6 5 5 2 3 3
-5 -31 7 4 5 2 4 4
-7 -32 7 3 5 1 3 2
-8 -33 7 1 4 -2 1 0
-8 -32 7 1 4 0 2 1
-7 -30 6 0 4 0 2 0
-7 -30 6 0 3 0 2 -2
-8 -29 6 0 2 -2 1 -3
-9 -28 5 -2 2 -3 0 -4
-8 -27 4 -3 1 -4 0 -4
-8 -26 5 -3 0 -3 0 -4
-9 -26 5 -4 -2 -4 0 -5
-9 -26 5 -4 -2 -5 -2 -6
-9 -25 5 -4 -2 -5 -3 -6
-10 -25 5 -4 -3 -6 -4 -6
-10 -25 5 -5 -4 -6 -5 -7
-10 -25 5 -5 -5 -6 -4 -6
-10 -25 6 -5 -4 -5 -4 -6
-10 -25 6 -5 -5 -6 -4 -8
-10 -25 5 -6 -6 -6 -4 -8
-11 -24 5 -6 -7 -7 -4 -8
-11 -23 4 -6 -7 -7 -5 -8
-11 -23 5 -6 -7 -7 -5 -9
-11 -21 4 -8 -8 -8 -6 -10
-11 -20 4 -8 -8 -8 -6 -10
-11 -19 5 -8 -8 -7 -6 -9
-10 -18 4 -8 -8 -7 -7 -10
-10 -17 3 -8 -8 -8 -7 -9
-10 -17 3 -8 -8 -8 -8 -10
-11 -17 3 -7 -9 -9 -8 -11
-11 -17 3 -7 -9 -9 -9 -11
-11 -17 3 -8 -10 -10 -9 -11
-11 -17 3 -9 -9 -10 -9 -10
-11 -16 4 -8 -8 -10 -8 -9
-11 -15 3 -8 -9 -10 -9 -9
-11 -14 3 -8 -9 -10 -9 -9
-12 -14 3 -8 -9 -9 -9 -9
-12 -14 3 -7 -9 -9 -10 -9
-12 -13 3 -7 -9 -10 -11 -9
-11 -12 2 -7 -10 -10 -12 -10
-10 -10 3 -7 -9 -9 -10 -10
-9 -10 3 -6 -8 -9 -9 -10
-10 -9 3 -6 -10 -9 -10 -10
-11 -10 3 -6 -10 -9 -10 -10
-11 -10 2 -6 -10 -10 -11 -10
-12 -11 2 -7 -10 -11 -11 -10
-12 -11 2 -6 -9 -10 -11 -10
-11 -11 2 -6 -9 -9 -10 -10
-11 -10 2 -5 -9 -9 -9 -10
-11 -10 2 -5 -9 -9 -9 -9
-11 -9 3 -6 -9 -9 -8 -8
-11 -9 2 -6 -9 -9 -8 -8
-11 -9 2 -6 -9 -8 -8 -8
-11 -8 2 -6 -9 -8 -8 -9
-11 -8 2 -6 -10 -7 -7 -9
-11 -8 2 -5 -9 -6 -6 -8
-11 -6 1 -4 -7 -5 -5 -8
-11 -4 1 -4 -6 -5 -4 -7
-11 -3 3 -2 -5 -4 -3 -6
-9 -2 4 1 -4 -3 -2 -5
-7 0 5 3 -2 -2 0 -5
-7 1 6 6 1 1 2 -3
-7 1 7 9 3 3 3 -2
-5 3 6 10 5 5 4 0
-3 5 7 14 9 9 7 2
-2 7 8 18 13 12 10 5
0 10 10 22 16 15 12 7
2 12 11 25 19 19 16 10
3 15 13 30 24 24 21 13
5 17 14 33 29 28 26 17
7 20 12 35 32 32 30 21
10 24 11 36 35 37 34 25
14 29 10 38 38 42 38 28
18 33 9 43 44 47 43 33
22 39 8 47 51 54 51 39
25 47 6 49 57 62 58 47
28 55 6 52 64 71 66 56
29 64 5 55 71 79 74 65
29 75 8 58 80 91 86 75
30 88 9 62 91 103 98 87
33 102 10 64 103 115 111 99
34 117 5 61 111 126 122 110
32 131 3 55 118 138 135 123
29 144 -2 46 125 148 145 135
25 158 -4 35 131 159 156 148
21 173 -6 22 135 170 168 160
18 185 -12 7 138 177 177 171
15 194 -16 -6 140 184 184 179
13 201 -18 -19 140 188 191 187
10 210 -18 -32 140 193 197 194
8 220 -16 -43 143 201 207 205
5 229 -17 -50 145 212 219 216
1 238 -22 -62 144 218 227 225
-3 245 -31 -78 140 221 235 233
-3 251 -47 -98 133 223 241 240
-4 256 -66 -120 123 225 248 247
-6 262 -87 -148 109 223 251 253
-8 271 -100 -169 99 223 255 261
-9 282 -113 -182 93 227 263 271
-10 290 -131 -199 82 227 269 278
-11 294 -148 -220 67 224 273 285
-8 292 -166 -233 52 221 277 290
-2 288 -182 -237 45 223 284 299
3 285 -192 -241 37 225 292 307
4 282 -197 -253 21 219 295 311
3 274 -200 -265 1 206 294 312
3 264 -201 -275 -19 195 288 309
4 252 -197 -278 -33 184 284 306
6 237 -191 -276 -46 174 279 301
6 221 -182 -268 -53 163 273 292
5 202 -172 -258 -57 153 262 279
0 184 -158 -243 -62 139 247 264
-6 168 -143 -229 -66 122 228 243
-10 153 -123 -207 -62 112 211 225
-10 140 -106 -182 -53 107 196 207
-10 126 -89 -154 -43 102 183 191
-9 107 -71 -127 -36 91 164 172
-4 86 -56 -98 -29 78 146 151
5 65 -43 -69 -19 71 131 133
11 48 -31 -46 -9 65 116 114
14 33 -24 -31 -6 54 96 94
14 17 -17 -21 -6 40 74 73
13 0 -13 -12 -8 27 52 51
11 -16 -9 -4 -9 15 31 29
9 -27 0 6 -7 9 18 15
7 -32 4 11 -6 6 11 5
6 -33 8 15 -4 6 9 1
6 -34 8 15 -4 4 7 -2
7 -35 7 15 -6 2 5 -3
7 -36 8 16 -6 1 4 -4
7 -36 8 16 -6 0 3 -6
8 -38 6 15 -7 -2 1 -7
8 -39 5 13 -9 -4 -2 -10
9 -40 3 12 -10 -6 -5 -13
9 -41 4 12 -10 -7 -6 -13
8 -44 5 12 -12 -9 -8 -14
7 -46 6 12 -14 -11 -10 -16
6 -48 7 13 -15 -12 -11 -18
5 -50 9 15 -14 -12 -11 -17
4 -51 8 14 -15 -13 -12 -18
3 -53 8 14 -15 -14 -13 -19
1 -55 10 14 -15 -15 -14 -20
-2 -56 11 15 -16 -15 -15 -21
-5 -56 12 15 -16 -16 -16 -23
-5 -56 12 14 -17 -18 -19 -25
-6 -57 11 12 -20 -21 -22 -27
-8 -60 12 12 -22 -22 -24 -28
-10 -62 12 12 -24 -25 -26 -30
-11 -64 13 12 -25 -27 -28 -32
-12 -65 15 13 -26 -28 -29 -33
-13 -66 15 13 -26 -29 -30 -34
-13 -67 15 11 -27 -31 -32 -36
-14 -66 14 11 -28 -32 -33 -37
-14 -64 13 10 -29 -33 -35 -38
-13 -62 12 9 -30 -34 -36 -40
-13 -62 12 9 -30 -34 -36 -40
-13 -61 12 9 -31 -34 -36 -40
-13 -60 13 10 -31 -34 -36 -41
-13 -59 13 9 -32 -34 -36 -44
-12 -59 13 9 -32 -34 -35 -45
-12 -61 13 10 -32 -35 -36 -45
-12 -63 12 10 -34 -37 -37 -46
-12 -63 12 10 -33 -38 -38 -47
-11 -62 12 10 -31 -38 -38 -47
-11 -62 12 11 -31 -39 -39 -48
-12 -61 13 11 -32 -41 -41 -49
-12 -61 13 12 -33 -43 -44 -50
-12 -60 12 11 -35 -45 -46 -52
-12 -61 13 12 -35 -46 -45 -52
-11 -63 12 12 -36 -47 -45 -52
-11 -65 12 12 -36 -48 -47 -53
-12 -68 11 13 -36 -50 -48 -54
-12 -68 11 13 -37 -51 -50 -56
-11 -67 10 12 -38 -52 -51 -57
-11 -66 11 12 -38 -52 -52 -57
-11 -66 12 12 -39 -52 -54 -58
-10 -67 11 13 -39 -52 -55 -59
-9 -67 12 14 -39 -52 -56 -59
-9 -68 12 14 -40 -52 -56 -59
-10 -68 11 14 -41 -54 -57 -61
-10 -69 12 15 -43 -56 -59 -61
-8 -70 11 14 -44 -58 -62 -63
-7 -72 11 15 -44 -59 -62 -64
-7 -74 11 15 -44 -60 -64 -65
-7 -75 12 17 -44 -59 -64 -64
-5 -75 11 17 -45 -60 -65 -65
-5 -75 11 17 -46 -60 -67 -67
-6 -77 11 18 -46 -63 -69 -69
-5 -79 11 19 -48 -66 -72 -71
-3 -82 11 20 -48 -66 -73 -71
-3 -86 12 21 -47 -67 -73 -72
-2 -88 11 21 -47 -69 -76 -75
0 -90 12 22 -49 -72 -79 -77
0 -91 13 23 -49 -73 -81 -78
1 -93 14 24 -50 -76 -83 -80
2 -95 14 25 -51 -78 -87 -82
3 -99 14 27 -52 -80 -90 -86
3 -103 14 29 -52 -80 -92 -88
3 -107 15 30 -53 -81 -95 -90
4 -110 16 32 -53 -82 -97 -92
6 -111 15 33 -54 -87 -100 -96
8 -111 16 35 -54 -89 -103 -99
10 -112 16 35 -55 -91 -107 -103
11 -114 17 38 -55 -93 -109 -105
12 -117 17 39 -56 -96 -112 -108
14 -121 18 44 -56 -97 -114 -110
16 -124 19 47 -56 -98 -116 -112
17 -129 21 50 -55 -99 -117 -114
17 -132 22 53 -55 -100 -119 -116
17 -135 23 56 -54 -101 -121 -117
19 -137 23 58 -54 -103 -122 -119
21 -139 24 61 -54 -104 -124 -121
23 -142 26 66 -52 -105 -126 -122
25 -144 29 69 -51 -107 -129 -124
27 -146 31 73 -50 -109 -131 -127
28 -147 32 76 -50 -110 -132 -128
30 -148 32 78 -50 -110 -134 -130
31 -149 33 81 -47 -109 -134 -131
32 -151 34 85 -45 -108 -133 -130
32 -152 35 88 -44 -108 -133 -131
32 -153 37 90 -40 -107 -133 -131
33 -153 39 93 -38 -107 -133 -131
34 -152 40 94 -37 -108 -133 -131
35 -152 43 96 -35 -107 -133 -131
35 -152 45 98 -33 -106 -132 -130
35 -151 47 101 -31 -104 -130 -129
36 -151 48 102 -29 -103 -130 -128
36 -152 51 104 -26 -100 -128 -126
35 -151 54 105 -24 -98 -126 -122
34 -150 55 106 -22 -96 -121 -120
33 -148 56 105 -21 -94 -118 -117
32 -147 57 105 -18 -91 -114 -114
33 -144 57 105 -16 -88 -110 -110
34 -139 57 104 -13 -85 -108 -107
33 -136 57 104 -11 -82 -105 -104
31 -133 58 102 -11 -81 -104 -102
30 -129 57 100 -10 -79 -101 -100
29 -123 57 99 -6 -74 -95 -93
29 -119 56 96 -5 -69 -91 -87
28 -116 56 95 -3 -65 -85 -80
27 -112 54 92 -2 -61 -80 -76
25 -109 52 89 1 -58 -75 -71
24 -105 51 87 2 -54 -71 -66
22 -101 51 86 4 -50 -66 -60
21 -98 50 81 5 -47 -63 -57
19 -96 49 79 7 -43 -59 -52
17 -92 47 75 8 -39 -54 -46
17 -87 45 72 8 -35 -48 -39
17 -82 42 67 6 -34 -46 -37
15 -79 40 64 6 -31 -41 -33
12 -76 40 60 8 -27 -37 -29
10 -73 39 57 9 -24 -33 -25
10 -71 38 54 8 -22 -30 -22
10 -68 37 51 10 -18 -26 -19
9 -65 36 48 11 -14 -22 -15
8 -64 35 47 12 -10 -18 -10
7 -63 34 45 12 -8 -15 -7
6 -61 32 42 11 -5 -12 -4
5 -59 30 38 11 -2 -8 1
4 -57 29 34 10 -2 -6 2
3 -55 28 32 9 -2 -5 3
1 -54 27 29 7 -2 -3 5
0 -52 26 27 7 0 -2 7
-2 -51 26 25 8 2 1 9
-2 -49 25 23 7 3 1 9
-3 -47 25 22 7 4 2 10
-3 -45 23 20 5 3 1 9
-3 -45 22 18 4 4 1 10
-4 -45 22 17 4 5 3 11
-4 -45 21 15 3 5 4 12
-5 -44 20 12 3 4 4 13
-6 -43 20 10 3 4 5 14
-6 -41 19 9 1 1 3 13
-7 -41 20 10 1 1 3 14
-7 -41 20 10 0 1 2 14
-8 -41 20 9 0 2 2 13
-9 -40 19 7 0 2 3 13
-8 -38 19 7 -2 2 3 13
-8 -36 19 7 -3 1 3 13
-9 -36 19 7 -2 2 5 14
-8 -35 17 5 -3 1 3 12
-8 -35 16 4 -4 -2 2 11
-9 -34 15 3 -6 -3 0 10
-9 -34 15 2 -6 -3 -2 9
-9 -33 15 3 -5 -2 -2 10
-9 -32 15 3 -5 -3 -2 10
-8 -31 16 4 -4 0 0 11
-7 -29 16 5 -5 0 0 10
-9 -29 15 4 -6 -3 -2 9
-11 -30 14 4 -6 -4 -3 8
-10 -30 15 4 -5 -3 -2 9
-8 -29 16 3 -5 -4 -2 10
-8 -27 15 3 -6 -5 -2 9
-9 -27 16 4 -5 -4 -2 9
-9 -27 16 4 -5 -4 -2 9
-9 -27 15 5 -5 -4 -3 9
-9 -26 14 4 -5 -5 -4 8
-9 -25 14 5 -4 -4 -3 8
-8 -23 13 4 -5 -6 -4 7
-8 -22 13 4 -6 -6 -4 7
-8 -21 13 2 -5 -6 -5 8
-7 -20 14 3 -3 -5 -4 9
-6 -19 14 4 -3 -5 -4 9
-7 -19 14 4 -3 -4 -4 9
-7 -18 14 4 -3 -4 -4 9
-6 -17 13 4 -4 -5 -5 7
-5 -16 13 5 -3 -5 -5 7
-6 -16 13 5 -4 -5 -5 7
-6 -16 12 5 -4 -5 -5 7
-6 -17 12 4 -4 -5 -4 6
-6 -16 12 4 -4 -5 -4 6
-6 -15 12 4 -4 -5 -3 6
-6 -13 12 5 -3 -5 -3 7
-6 -12 12 4 -2 -5 -3 6
-6 -11 12 5 1 -3 0 8
-4 -10 12 6 1 -2 0 8
-4 -10 11 7 0 -2 -2 7
-5 -10 11 7 -2 -4 -3 6
-5 -10 11 7 -2 -4 -3 6
-5 -10 11 7 0 -4 -3 6
-5 -10 11 6 0 -5 -3 7
-5 -10 11 6 0 -5 -4 6
-5 -10 11 7 1 -5 -3 6
-4 -11 11 7 1 -4 -3 7
-4 -10 11 7 2 -3 -2 8
-4 -10 12 7 3 -2 0 9
-5 -9 12 8 3 0 1 9
-5 -8 12 8 3 0 2 10
-4 -6 12 8 3 0 2 10
-3 -6 11 7 3 1 2 10
-4 -6 12 8 3 1 2 10
-5 -7 11 7 2 -2 0 9
-4 -6 11 7 3 -2 0 9
-4 -6 10 7 4 0 0 9
-5 -6 11 7 3 -2 -2 8
-6 -7 12 8 3 -2 -2 8
-6 -8 12 8 3 -3 -2 8
-5 -8 11 9 3 -3 0 8
-5 -8 11 9 5 -2 1 10
-5 -8 11 9 6 0 3 11
-5 -8 11 8 6 1 3 12
-5 -7 10 7 6 0 3 12
-5 -6 10 7 6 1 4 12
-4 -5 10 5 5 -2 2 11
-5 -6 11 5 5 -2 2 11
-5 -7 11 5 5 -3 1 11
-6 -7 11 6 6 -2 1 13
-6 -7 11 6 6 -2 1 13
-6 -5 9 6 5 -3 0 12
-6 -4 9 5 5 -2 1 13
-6 -4 10 5 6 0 2 14
-5 -4 8 3 5 -2 1 13
-5 -5 9 4 6 0 2 14
-6 -6 9 4 7 -2 2 14
-6 -8 10 5 8 -2 1 14
-6 -10 11 5 8 -2 1 15
-5 -10 9 4 7 -2 2 13
-5 -10 9 4 8 0 3 14
-5 -10 9 4 7 -2 2 14
-5 -10 10 4 7 -3 0 14
-5 -10 11 3 8 -2 1 15
-6 -11 12 4 9 0 3 16
-7 -12 12 4 9 0 4 16
-7 -12 12 3 9 0 3 16
-7 -12 12 4 9 0 3 16
-7 -13 13 4 9 0 3 16
-7 -15 12 5 9 -2 3 15
-7 -16 12 6 9 -2 3 15
-7 -18 13 6 10 1 4 16
-7 -19 13 5 9 1 4 16
-6 -20 12 4 9 1 4 16
-6 -20 12 4 9 1 4 16
-6 -20 12 4 9 0 3 15
-6 -22 12 4 10 0 3 15
-6 -23 13 4 10 0 2 15
-6 -22 14 5 11 0 4 16
-6 -22 14 5 11 0 4 16
-7 -25 14 5 11 1 4 16
-8 -28 15 7 12 3 5 17
-7 -29 15 7 12 2 5 18
-7 -29 15 7 13 2 5 19
-7 -29 15 7 13 2 5 19
-8 -29 16 7 13 2 5 18
-8 -28 16 7 14 2 6 18
-7 -28 15 7 14 2 6 18
-6 -29 15 7 14 3 7 19
-7 -30 16 8 15 3 8 21
-7 -31 16 8 15 2 7 21
-7 -31 15 8 15 2 7 21
-6 -31 14 8 15 1 7 20
-6 -32 14 8 14 1 7 20
-7 -32 15 8 14 1 7 21
-7 -32 16 8 15 2 8 21
-7 -32 16 8 16 4 9 21
-6 -31 16 8 16 4 9 20
-6 -31 16 8 16 4 9 20
-5 -30 16 8 16 4 9 19
-5 -30 16 8 16 4 8 18
-5 -32 17 9 16 4 8 18
-6 -33 17 9 16 4 8 18
-6 -33 16 9 16 3 8 19
-7 -33 16 8 16 3 8 19
-7 -33 16 8 16 4 9 20
-7 -32 16 9 17 6 10 21
-6 -30 16 8 17 6 10 21
-5 -29 15 8 15 4 9 20
-6 -29 15 8 14 2 8 19
-7 -30 16 8 15 3 8 19
-7 -30 16 8 15 3 8 19
-7 -30 16 9 16 3 8 19
-7 -30 16 9 16 3 8 19
-7 -29 15 10 16 2 8 18
-7 -28 14 9 15 1 8 17
-7 -26 15 9 16 1 9 16
-7 -23 14 8 15 0 8 16
-7 -23 14 8 15 0 7 17
-6 -22 13 7 14 0 6 16
-6 -22 13 7 14 1 5 16
-6 -22 13 7 14 1 5 15
-7 -22 12 7 14 0 5 15
-7 -22 12 7 14 1 5 15
-7 -21 12 7 14 1 5 15
-6 -19 12 7 14 -2 4 14
-6 -18 12 7 14 -2 4 13
-7 -17 12 7 14 -2 4 13
-8 -17 12 7 14 -2 5 13
-7 -16 11 6 13 -2 5 13
-6 -15 11 6 13 0 5 13
-7 -14 11 6 13 0 6 13
-8 -15 11 6 13 0 5 12
-8 -15 11 6 13 -2 5 12
-7 -14 11 6 12 -2 4 12
-7 -13 11 6 12 -2 4 12
-6 -12 10 5 11 -3 3 11
-6 -11 10 5 12 -3 4 12
-6 -10 11 5 12 -3 4 12
-6 -10 11 5 12 -2 5 12
-6 -10 11 5 12 -2 5 12
-6 -9 10 4 11 -2 4 10
-7 -8 10 3 11 -3 4 10
-8 -8 11 4 12 -2 4 11
-7 -7 10 4 11 -2 3 10
-7 -6 10 5 11 -2 3 10
-7 -6 9 4 11 -3 2 10
-8 -5 9 4 10 -3 2 9
-6 -4 8 4 10 -3 2 9
-5 -4 7 4 10 -3 2 8
-5 -3 7 3 9 -3 1 8
-6 -3 7 3 8 -6 0 7
-7 -4 9 4 9 -6 1 8
-8 -4 9 4 10 -5 2 8
-6 -3 9 4 10 -5 2 8
-4 -2 8 3 9 -6 1 8
-5 -3 9 4 10 -5 2 9
-6 -4 9 5 10 -5 2 9
-6 -4 9 5 10 -4 3 9
-5 -2 9 4 10 -3 3 9
-6 0 9 4 11 0 3 10
-6 0 8 4 11 0 4 10
-7 0 8 4 11 -3 3 9
-6 0 7 5 10 -4 2 8
-6 1 7 4 9 -4 2 7
-6 2 8 5 9 -4 2 7
-6 2 8 4 9 -4 2 6
-7 2 8 4 8 -4 2 5
-7 1 9 5 9 -4 2 5
-7 1 9 5 9 -5 1 5
-6 1 8 4 7 -7 0 5
-6 2 9 4 8 -5 0 5
-6 2 9 4 8 -4 0 5
-6 2 8 4 8 -4 0 6
-7 1 9 5 8 -4 2 7
-6 2 8 5 7 -5 2 6
-6 3 8 5 7 -4 3 6
-5 4 7 4 6 -5 2 5
-5 3 7 3 6 -6 2 5
-6 2 8 3 7 -5 2 5
-6 2 8 3 8 -5 2 5
-6 2 8 4 9 -4 3 5
-6 2 8 4 9 -3 3 6
-6 2 8 5 9 -3 3 5
-7 2 8 5 9 -3 3 5
-7 1 9 6 9 -3 4 5
-6 1 8 5 8 -3 4 4
-7 1 9 6 9 -2 4 4
-7 1 9 6 8 -3 4 4
-8 1 9 5 7 -3 3 3
-7 1 9 5 7 -3 4 4
-7 0 9 5 8 -3 4 4
-6 -2 9 6 8 -4 4 4
-6 -3 9 6 8 -3 4 4
-7 -3 10 7 9 -2 5 6
-7 -3 10 6 9 -2 5 6
-8 -3 10 5 9 -2 5 6
-8 -3 10 6 9 -2 5 5
-6 -3 9 6 8 -2 5 5
-5 -4 9 7 8 -2 5 5
-6 -5 10 7 9 0 6 5
-7 -7 11 8 9 1 6 5
-6 -8 12 8 10 1 5 5
-6 -8 12 9 10 1 5 5
-7 -9 13 10 11 2 6 5
-7 -10 12 10 11 2 7 5
-6 -10 12 10 12 2 7 5
-6 -11 12 10 12 2 8 6
-6 -11 13 10 12 3 8 6
-7 -12 14 11 13 4 9 7
-7 -13 14 11 12 4 9 7
-6 -14 13 11 12 5 9 7
-5 -14 14 11 12 5 9 7
-6 -14 15 11 13 5 10 8
-7 -15 15 11 12 4 10 7
-7 -17 16 12 12 5 10 8
-7 -17 16 12 12 5 10 8
-6 -18 17 13 13 5 10 8
-6 -18 17 13 13 5 11 9
-6 -18 18 14 14 6 12 9
-6 -18 19 15 15 6 13 9
-6 -19 20 16 15 7 12 9
-6 -19 21 17 15 7 12 9
-6 -20 21 17 16 8 13 9
-6 -19 21 18 17 9 14 10
-5 -18 22 18 17 9 15 10
-4 -17 24 20 19 11 18 11
-3 -15 25 21 19 12 18 12
-2 -13 25 21 19 13 19 14
0 -12 26 22 20 15 20 15
-2 -12 27 23 21 16 21 16
-2 -10 26 22 20 16 21 15
0 -10 27 23 21 16 21 16
0 -8 28 23 21 16 20 16
0 -8 28 24 21 16 20 16
0 -9 28 26 23 17 21 17
1 -10 27 26 22 16 21 16
1 -10 26 26 22 16 21 16
3 -10 24 25 22 17 22 17
5 -9 23 25 23 18 23 18
7 -9 20 24 23 18 23 19
8 -9 18 24 24 20 24 20
8 -8 15 23 23 20 25 20
8 -8 13 22 23 20 25 21
8 -6 13 23 23 21 25 22
9 -4 13 25 24 22 27 23
11 -2 13 26 25 22 28 23
11 1 13 25 25 22 28 23
12 3 12 24 24 22 28 23
12 5 10 23 23 22 27 23
12 7 9 23 22 21 27 23
12 7 7 21 21 20 27 23
14 7 5 18 19 18 24 21
15 5 4 16 17 16 23 20
14 3 3 15 16 15 22 20
13 3 2 14 14 13 21 19
13 2 1 12 11 11 19 17
12 1 3 12 10 10 19 16
11 0 3 11 10 9 17 14
9 0 4 12 10 9 17 14
7 -3 6 12 10 8 16 12
4 -4 8 14 10 9 15 12
2 -5 9 14 9 8 14 10
0 -6 9 12 8 7 12 9
-2 -7 8 10 6 4 10 6
-3 -7 8 10 5 3 9 5
-5 -8 9 9 4 2 8 5
-6 -8 8 7 2 0 6 4
-7 -9 10 8 2 1 6 4
-8 -9 10 8 2 0 6 2
-9 -9 9 7 0 -2 5 1
-10 -9 9 7 0 -2 5 1
-10 -7 8 6 -3 -3 4 -2
-10 -7 8 6 -4 -4 3 -2
-10 -7 7 6 -4 -4 2 -2
-10 -7 7 6 -5 -5 1 -2
-10 -6 7 6 -5 -5 2 -3
-10 -5 6 5 -6 -6 2 -4
-10 -5 6 4 -7 -6 1 -5
-11 -5 7 5 -7 -6 1 -5
-11 -6 6 4 -8 -7 0 -6
-11 -6 6 3 -8 -8 0 -7
-11 -6 7 4 -8 -8 0 -7
-11 -6 7 4 -8 -8 -2 -6
-11 -5 7 4 -9 -8 -2 -6
-11 -5 7 4 -9 -9 -2 -6
-11 -5 7 4 -9 -8 -2 -6
-11 -4 6 4 -11 -9 -3 -6
-11 -4 6 3 -11 -9 -3 -7
-12 -4 7 3 -11 -9 -2 -6
-11 -4 6 2 -11 -10 -3 -6
-11 -4 6 2 -11 -10 -3 -6
-11 -4 6 2 -12 -10 -4 -6
-11 -4 5 2 -12 -10 -5 -7
-11 -4 5 3 -12 -11 -5 -7
-11 -4 5 3 -12 -11 -6 -8
-11 -5 7 4 -11 -11 -7 -9
-11 -6 8 7 -11 -11 -9 -11
-11 -7 11 13 -7 -10 -8 -11
-10 -8 14 23 2 -3 -4 -10
-7 -10 14 31 13 9 5 -5
-4 -10 10 31 21 20 15 4
3 -10 4 25 26 30 25 11
10 -10 -5 18 33 45 38 20
17 -9 -13 10 44 64 57 33
26 -5 -23 3 58 87 78 50
38 5 -35 -3 76 114 103 70
51 19 -48 -6 98 144 130 92
59 33 -59 -7 117 173 154 111
64 48 -73 -13 132 193 173 127
72 64 -93 -19 145 213 190 142
84 81 -114 -25 156 232 209 158
95 94 -140 -40 154 237 217 169
101 100 -164 -64 131 220 209 167
97 97 -183 -88 94 184 186 154
87 88 -196 -116 44 129 147 131
70 78 -202 -150 -15 63 99 100
49 73 -202 -186 -73 2 54 70
27 69 -199 -221 -128 -52 13 45
9 61 -191 -243 -169 -94 -23 20
-8 49 -175 -246 -189 -121 -52 -5
-17 38 -153 -230 -188 -129 -66 -21
-20 31 -133 -202 -173 -121 -66 -25
-20 28 -113 -173 -151 -108 -59 -23
-21 25 -96 -145 -132 -95 -52 -22
-21 21 -79 -119 -112 -81 -45 -19
-20 18 -64 -97 -96 -69 -39 -19
-18 14 -48 -73 -78 -56 -32 -17
-17 11 -32 -54 -64 -45 -25 -16
-18 7 -19 -37 -53 -36 -20 -14
-18 3 -9 -25 -43 -30 -16 -12
-16 0 -3 -15 -34 -26 -14 -11
-14 -4 2 -7 -28 -21 -12 -11
-14 -7 7 -2 -24 -17 -10 -9
-14 -9 8 1 -22 -16 -10 -9
-14 -10 10 4 -19 -14 -8 -7
-13 -10 11 5 -19 -13 -8 -7
-13 -12 13 7 -17 -12 -7 -6
-14 -13 15 9 -16 -11 -6 -5
-14 -15 15 9 -16 -12 -7 -6
-14 -16 16 11 -15 -11 -6 -6
-14 -17 16 11 -15 -11 -6 -6
-14 -18 17 12 -13 -10 -6 -6
-14 -20 19 15 -11 -9 -5 -5
-14 -21 20 16 -10 -8 -4 -5
-13 -22 20 16 -10 -8 -4 -5
-13 -22 20 16 -10 -9 -4 -5
-12 -23 21 16 -9 -8 -3 -4
-11 -23 22 17 -9 -6 -2 -3
-11 -24 22 18 -9 -7 0 -3
-12 -25 22 19 -9 -7 0 -2
-11 -26 22 19 -9 -5 -2 -2
-11 -26 22 19 -9 -5 -2 -2
-11 -26 22 19 -9 -4 0 -2
-12 -27 24 21 -8 -3 2 0
-12 -27 24 21 -8 -2 2 0
-12 -28 24 20 -8 -3 2 0
-12 -29 24 20 -9 -3 2 0
-12 -30 25 21 -8 -2 3 1
-12 -30 24 20 -8 -2 3 1
-12 -31 24 20 -8 -2 2 1
-12 -31 23 20 -9 -3 1 1
-12 -32 23 20 -9 -4 0 0
-12 -32 23 20 -8 -4 0 -2
-11 -32 23 20 -7 -3 1 -3
-11 -31 24 20 -6 -2 2 -2
-11 -32 25 20 -7 -2 3 0
-11 -32 25 19 -7 -2 4 1
-11 -32 25 20 -6 -2 4 1
-11 -31 25 20 -5 -2 4 1
-11 -31 25 20 -5 -2 4 1
-11 -31 25 19 -6 -2 4 0
-11 -31 24 19 -6 -3 3 0
-11 -30 23 18 -7 -4 1 -2
-11 -30 23 18 -6 -3 1 0
-10 -29 24 19 -5 -3 2 0
-11 -29 24 19 -5 -3 3 1
-11 -29 24 18 -6 -3 3 0
-10 -28 23 17 -7 -4 2 -2
-10 -28 23 17 -7 -4 3 0
-11 -28 23 17 -6 -3 3 0
-11 -27 22 15 -7 -5 2 -2
-11 -26 21 15 -7 -6 2 -2
-10 -25 20 15 -8 -6 0 -4
-10 -24 20 15 -7 -5 0 -5
-9 -23 20 15 -7 -6 0 -5
-9 -22 19 15 -7 -6 1 -4
-9 -21 19 15 -7 -5 0 -4
-9 -20 18 13 -8 -6 -2 -5
-9 -20 18 12 -9 -6 -2 -5
-9 -20 18 12 -9 -6 0 -5
-9 -19 17 12 -9 -7 0 -5
-9 -18 17 12 -9 -7 0 -5
-9 -17 16 11 -10 -8 -2 -6
-9 -16 16 12 -9 -7 0 -5
-9 -15 16 12 -9 -6 0 -4
-9 -14 15 12 -9 -7 -2 -4
-9 -13 16 12 -9 -6 -2 -4
-9 -13 16 11 -9 -6 -2 -4
-8 -13 16 11 -10 -6 -2 -4
-8 -12 16 11 -9 -6 0 -3
-7 -11 14 11 -10 -6 -2 -4
-7 -10 14 11 -10 -6 0 -5
-7 -10 13 11 -9 -5 0 -5
-7 -9 13 11 -8 -5 0 -4
-7 -8 13 10 -9 -5 0 -5
-6 -7 13 10 -8 -5 1 -5
-5 -5 12 10 -8 -5 1 -5
-5 -4 12 9 -7 -5 0 -4
-4 -4 12 9 -7 -5 0 -4
-5 -4 11 9 -7 -5 -2 -5
-5 -3 10 9 -7 -5 -2 -5
-5 -2 10 10 -6 -4 0 -4
-4 0 10 10 -7 -4 -2 -4
-4 0 10 10 -6 -3 0 -4
-3 1 9 9 -6 -3 0 -4
-3 2 9 10 -5 -2 1 -2
-2 4 8 11 -5 0 1 -2
0 4 8 12 -5 1 3 0
0 5 7 11 -5 0 3 0
0 5 7 11 -4 1 3 1
0 5 7 11 -3 1 3 1
0 6 6 11 -2 2 4 2
0 7 6 11 1 3 5 3
1 8 5 12 1 3 6 2
1 10 5 12 1 4 6 2
2 11 5 14 2 5 8 3
3 12 4 14 2 6 9 5
4 13 4 14 3 7 10 7
5 14 4 14 4 8 11 8
6 16 2 14 5 9 12 9
7 17 1 14 7 10 13 9
7 18 1 14 8 11 15 11
7 19 -2 14 8 12 15 12
9 20 -2 14 10 13 16 12
10 22 -3 15 11 15 18 14
11 23 -2 17 14 17 20 17
12 24 -3 19 14 18 22 18
13 25 -3 22 15 19 24 19
14 26 -3 24 16 20 26 22
15 27 -4 24 17 21 27 23
16 28 -6 24 18 22 28 24
17 30 -8 24 19 24 29 25
18 31 -8 26 21 26 32 28
19 32 -8 26 22 28 33 29
20 32 -7 27 24 31 35 31
21 33 -8 26 24 31 36 31
22 34 -9 26 24 32 37 32
22 34 -9 27 25 34 38 33
23 35 -9 28 27 35 40 35
23 35 -9 28 28 36 43 36
23 36 -10 28 28 37 43 36
24 38 -11 28 28 38 44 37
25 38 -11 28 30 40 46 39
25 38 -11 29 31 42 48 40
25 38 -10 29 32 43 50 42
26 39 -11 28 32 43 50 42
26 38 -10 29 34 45 52 44
26 38 -10 29 35 45 52 45
26 37 -10 29 35 45 53 44
27 36 -10 29 34 45 52 44
26 35 -9 30 34 45 52 44
25 34 -8 30 33 44 51 42
24 32 -7 30 34 44 51 42
24 30 -6 30 34 44 50 40
24 28 -5 30 34 44 50 39
22 26 -4 30 33 43 49 39
21 24 -3 29 32 42 48 38
20 22 -2 29 31 40 47 37
19 20 0 28 31 38 45 35
18 17 0 27 29 36 42 33
16 14 2 26 28 34 39 31
14 10 3 26 27 33 37 29
13 7 3 25 26 31 35 27
12 5 4 23 25 29 32 25
11 2 5 22 24 28 31 23
10 -2 6 21 22 26 29 21
10 -5 5 20 20 24 27 19
9 -8 5 19 18 21 25 17
7 -10 6 19 18 20 24 15
6 -12 7 17 16 18 22 13
5 -14 7 16 14 16 20 12
3 -16 8 15 12 14 18 11
2 -17 8 14 11 13 17 9
1 -19 9 13 11 12 16 8
0 -21 9 12 9 10 14 6
-2 -23 9 11 8 8 12 5
-2 -25 9 9 7 7 11 4
-3 -27 9 8 6 6 10 4
-4 -29 9 7 5 5 8 3
-5 -31 10 7 4 4 7 2
-6 -32 9 5 2 2 6 0
-7 -33 9 4 1 1 5 -2
-7 -34 9 3 1 0 4 -2
-7 -34 9 3 1 0 4 -2
-8 -35 11 4 2 0 4 -2
-8 -35 11 3 1 0 3 -2
-8 -36 10 2 0 -2 2 -3
-8 -37 11 3 0 0 3 -2
-8 -37 10 2 -2 -2 2 -3
-8 -38 10 1 -3 -2 2 -4
-8 -37 10 1 -4 -3 1 -5
-9 -37 10 0 -4 -4 1 -5
-9 -37 10 0 -4 -4 1 -6
-10 -37 10 0 -5 -4 0 -6
-10 -37 10 -2 -5 -5 0 -6
-11 -37 11 -2 -5 -5 0 -5
-11 -37 11 -3 -6 -6 0 -5
-11 -37 11 -3 -7 -6 0 -5
-11 -37 10 -3 -8 -6 -2 -5
-11 -37 10 -3 -9 -6 -2 -6
-11 -36 9 -5 -10 -8 -4 -8
-12 -36 9 -5 -9 -7 -3 -8
-12 -35 8 -6 -10 -8 -4 -9
-12 -33 8 -6 -10 -8 -4 -9
-11 -32 8 -6 -10 -8 -4 -8
-12 -32 9 -6 -11 -8 -5 -9
-12 -31 8 -7 -13 -9 -6 -10
-12 -31 8 -8 -14 -9 -6 -10
-12 -30 8 -8 -14 -10 -7 -9
-12 -29 8 -10 -15 -11 -8 -11
-12 -28 7 -10 -15 -11 -9 -12
-12 -27 7 -10 -15 -12 -9 -12
-13 -27 7 -10 -15 -12 -9 -13
-14 -26 7 -9 -15 -11 -9 -13
-14 -25 8 -8 -15 -11 -9 -13
-13 -24 7 -8 -15 -12 -10 -13
-13 -23 6 -8 -14 -12 -10 -13
-13 -23 6 -9 -14 -12 -10 -13
-13 -22 5 -10 -15 -13 -11 -14
-13 -21 6 -9 -15 -13 -11 -14
-13 -20 6 -9 -14 -13 -11 -14
-13 -20 6 -9 -13 -12 -11 -14
-13 -20 6 -8 -12 -12 -11 -14
-14 -19 6 -7 -12 -11 -10 -13
-13 -18 5 -8 -11 -12 -11 -14
-13 -17 5 -7 -10 -11 -10 -14
-13 -17 5 -6 -10 -11 -10 -13
-13 -17 5 -6 -10 -11 -10 -13
-13 -16 4 -7 -11 -12 -10 -13
-13 -16 4 -6 -10 -11 -10 -12
-13 -16 4 -6 -10 -11 -10 -13
-13 -15 4 -6 -10 -11 -10 -14
-12 -14 3 -7 -11 -11 -11 -14
-12 -13 3 -7 -10 -11 -10 -14
-12 -13 3 -6 -9 -10 -10 -13
-12 -13 3 -6 -9 -10 -10 -13
-12 -12 3 -6 -9 -10 -10 -12
-12 -11 3 -7 -10 -11 -11 -12
-11 -11 2 -6 -9 -10 -10 -12
-11 -11 2 -6 -10 -9 -10 -11
-10 -10 2 -6 -10 -9 -9 -11
-10 -10 2 -5 -10 -9 -9 -10
-10 -9 2 -5 -9 -8 -9 -10
-11 -9 2 -5 -9 -8 -9 -10
-11 -9 2 -5 -8 -8 -8 -9
-10 -8 2 -5 -9 -9 -9 -10
-10 -8 2 -4 -9 -8 -8 -9
-9 -7 2 -3 -9 -7 -8 -8
-9 -7 3 -3 -8 -7 -7 -7
-9 -7 4 -2 -7 -6 -6 -6
-9 -6 3 0 -7 -5 -5 -6
-9 -5 4 2 -5 -3 -4 -5
-9 -4 5 4 -3 0 -3 -4
-8 -3 5 5 -2 0 -3 -4
-8 -2 6 8 1 2 0 -2
-6 0 7 11 4 4 2 0
-5 2 9 15 8 7 5 3
-4 5 9 18 11 10 7 4
-3 7 11 23 15 12 9 6
-3 9 14 28 19 16 12 9
-2 12 15 32 22 18 13 10
0 14 17 36 27 23 16 12
2 17 18 40 32 28 21 15
5 20 18 44 36 33 26 19
7 24 17 46 42 38 31 23
10 29 17 50 46 43 36 27
14 33 18 56 53 49 42 32
18 40 18 62 61 57 50 39
21 49 18 66 68 66 57 47
23 57 19 70 75 73 64 54
23 66 21 74 84 82 73 62
24 78 22 77 94 94 85 72
24 92 24 80 106 107 97 86
25 105 23 79 116 119 108 98
24 119 21 75 127 132 120 110
22 134 19 67 132 142 133 122
19 148 16 55 135 148 141 133
16 162 11 38 136 155 149 144
13 176 5 21 137 161 158 154
11 189 1 8 142 170 169 167
9 199 -3 -9 142 175 176 174
6 209 -5 -25 140 178 180 179
2 217 -5 -37 141 184 187 187
1 226 -8 -49 142 190 195 196
0 236 -17 -65 139 197 203 206
-2 246 -31 -88 133 200 211 215
-3 255 -51 -108 126 203 218 224
0 263 -73 -131 117 205 224 231
2 271 -94 -154 107 206 230 239
3 280 -110 -173 99 207 235 247
3 287 -127 -188 91 210 242 255
5 292 -145 -205 79 212 248 262
6 293 -165 -224 65 210 255 269
8 290 -184 -237 52 207 260 276
12 290 -199 -243 44 209 266 283
16 289 -208 -244 39 214 275 294
19 288 -214 -249 32 215 282 302
19 284 -218 -258 21 212 286 306
20 278 -218 -264 9 205 287 309
20 269 -216 -269 -6 196 284 307
19 258 -213 -272 -20 185 279 302
17 243 -207 -271 -31 177 274 298
17 229 -201 -266 -35 173 273 295
17 216 -194 -257 -36 171 271 290
16 202 -184 -244 -36 165 265 282
11 189 -169 -227 -35 157 253 269
6 175 -150 -204 -30 147 236 251
4 159 -132 -180 -22 140 222 234
4 143 -115 -153 -14 132 205 218
6 127 -99 -127 -7 122 190 199
8 110 -85 -103 -2 112 174 181
11 93 -70 -79 4 103 158 162
15 74 -57 -57 10 94 142 144
19 57 -47 -39 12 81 123 123
19 39 -38 -29 9 65 102 101
18 21 -29 -22 2 44 75 75
16 3 -20 -14 -2 26 51 52
13 -14 -12 -6 -5 11 29 30
9 -27 -4 2 -7 2 14 15
5 -34 1 6 -7 -5 3 4
4 -38 3 8 -6 -8 -3 0
3 -41 5 10 -6 -9 -4 -4
1 -45 6 11 -8 -11 -7 -7
-2 -49 7 12 -8 -12 -10 -10
-5 -53 10 13 -7 -13 -12 -13
-8 -56 12 12 -9 -16 -15 -16
-10 -59 12 11 -11 -20 -19 -20
-11 -61 13 11 -14 -24 -23 -23
-12 -63 14 11 -15 -26 -25 -26
-13 -64 14 12 -15 -27 -27 -27
-14 -65 14 13 -15 -27 -28 -28
-15 -66 13 12 -16 -28 -30 -30
-15 -66 13 12 -17 -30 -32 -32
-15 -66 13 11 -18 -31 -33 -33
-15 -66 14 11 -18 -32 -34 -34
-16 -66 15 12 -18 -32 -34 -34
-15 -66 15 10 -19 -34 -36 -35
-15 -66 15 11 -20 -35 -37 -36
-16 -66 16 12 -20 -35 -37 -36
-16 -65 15 11 -21 -37 -39 -38
-16 -65 14 13 -22 -36 -40 -38
-16 -65 14 13 -23 -36 -41 -38
-16 -64 14 13 -23 -37 -41 -39
-16 -64 14 13 -24 -38 -43 -40
-16 -63 14 13 -24 -38 -43 -41
-16 -64 15 13 -23 -38 -43 -43
-16 -64 16 13 -23 -39 -44 -44
-17 -63 16 13 -24 -40 -45 -45
-17 -63 16 14 -24 -41 -46 -46
-17 -63 16 14 -25 -41 -46 -47
-17 -63 15 14 -25 -43 -47 -47
-17 -63 14 14 -26 -43 -47 -48
-17 -63 14 14 -26 -44 -48 -49
-16 -63 14 14 -26 -45 -48 -49
-16 -63 15 14 -25 -45 -49 -49
-16 -62 15 13 -26 -47 -50 -50
-16 -61 16 14 -26 -47 -51 -50
-16 -60 16 15 -27 -47 -51 -51
-16 -60 15 15 -27 -48 -52 -52
-16 -60 15 16 -28 -48 -53 -54
-16 -60 14 16 -28 -48 -54 -54
-16 -60 14 16 -28 -49 -55 -55
-16 -61 13 16 -28 -50 -56 -56
-16 -62 13 16 -29 -52 -57 -57
-16 -63 15 17 -28 -51 -57 -57
-15 -63 16 16 -30 -53 -59 -59
-15 -63 16 16 -30 -54 -59 -60
-14 -64 16 17 -31 -56 -61 -61
-14 -65 17 18 -31 -56 -61 -62
-14 -65 17 18 -33 -57 -62 -63
-14 -66 17 19 -34 -58 -63 -65
-13 -66 16 20 -34 -59 -65 -66
-13 -67 15 20 -35 -61 -66 -68
-13 -69 16 22 -34 -61 -67 -68
-13 -70 16 23 -34 -61 -68 -69
-12 -71 17 23 -35 -62 -69 -71
-11 -72 18 23 -36 -64 -70 -73
-11 -73 18 23 -37 -66 -72 -75
-11 -75 19 25 -37 -67 -73 -77
-11 -77 19 27 -38 -68 -74 -79
-11 -79 18 27 -39 -70 -77 -81
-11 -81 19 29 -39 -71 -78 -83
-11 -82 18 29 -40 -73 -80 -86
-10 -85 19 31 -41 -75 -81 -87
-9 -87 19 31 -43 -77 -83 -90
-9 -89 20 32 -43 -78 -86 -92
-8 -91 20 33 -44 -80 -89 -94
-8 -93 22 35 -44 -82 -91 -96
-7 -96 22 36 -45 -86 -94 -99
-6 -98 23 39 -45 -87 -96 -101
-6 -101 24 42 -45 -88 -99 -103
-5 -104 24 42 -47 -90 -102 -107
-5 -106 25 45 -47 -91 -103 -109
-4 -109 26 49 -46 -93 -105 -111
-3 -112 27 50 -47 -96 -108 -114
-2 -115 28 52 -47 -98 -111 -117
-2 -118 29 54 -48 -100 -113 -120
0 -120 30 56 -48 -103 -116 -124
1 -123 33 59 -48 -104 -117 -126
2 -128 34 63 -48 -106 -119 -129
3 -131 35 65 -48 -108 -122 -132
4 -134 35 66 -49 -110 -127 -136
6 -137 37 70 -48 -111 -129 -138
7 -139 37 73 -48 -113 -131 -140
8 -142 39 76 -47 -114 -133 -142
8 -145 42 79 -47 -116 -134 -144
9 -147 44 82 -47 -117 -136 -146
10 -149 46 86 -46 -119 -138 -149
11 -152 49 90 -44 -119 -138 -150
13 -154 50 93 -44 -119 -140 -152
14 -155 50 96 -43 -120 -141 -153
15 -157 51 98 -41 -121 -142 -155
14 -158 54 101 -39 -121 -142 -156
14 -159 56 103 -38 -121 -143 -157
15 -160 58 106 -36 -122 -144 -157
16 -160 60 108 -34 -122 -144 -158
16 -160 63 109 -33 -122 -144 -158
17 -160 65 111 -31 -121 -143 -158
18 -160 65 112 -31 -122 -144 -159
17 -160 68 115 -29 -120 -142 -157
17 -159 68 115 -27 -119 -141 -156
18 -158 69 117 -25 -117 -138 -153
18 -156 69 117 -24 -115 -136 -152
17 -154 70 118 -21 -112 -133 -150
17 -152 70 117 -20 -110 -132 -148
17 -149 71 116 -18 -108 -129 -146
18 -147 72 116 -16 -106 -127 -143
18 -144 72 116 -14 -103 -123 -140
18 -140 71 114 -13 -100 -119 -137
17 -137 70 113 -12 -98 -116 -134
16 -134 69 111 -10 -94 -112 -129
16 -131 67 110 -9 -91 -108 -124
16 -128 66 108 -7 -87 -104 -120
15 -122 65 106 -5 -82 -100 -116
14 -118 64 103 -3 -78 -95 -111
13 -115 63 100 -2 -75 -91 -107
12 -111 62 98 0 -73 -86 -102
12 -107 60 95 2 -69 -81 -97
13 -102 57 91 2 -65 -77 -93
13 -98 55 89 4 -61 -72 -88
12 -95 53 86 5 -58 -66 -82
11 -91 51 82 5 -54 -61 -78
10 -88 49 79 6 -50 -57 -73
9 -85 48 76 8 -45 -52 -68
8 -81 46 72 8 -41 -47 -64
7 -78 44 69 9 -37 -43 -59
7 -75 42 65 9 -33 -38 -55
6 -72 40 63 10 -30 -33 -51
5 -69 38 59 10 -28 -30 -48
4 -67 36 56 11 -24 -25 -44
3 -63 33 53 11 -22 -22 -39
3 -60 31 51 11 -19 -18 -37
2 -58 29 48 11 -17 -15 -34
1 -55 28 45 12 -14 -12 -29
0 -53 26 40 12 -13 -10 -27
-2 -51 25 38 12 -10 -7 -24
-2 -49 24 36 11 -9 -5 -22
-3 -46 24 34 12 -7 -3 -21
-3 -45 22 30 11 -7 -3 -20
-4 -44 21 28 10 -7 -2 -19
-5 -43 21 26 10 -6 0 -18
-6 -41 20 24 9 -5 0 -17
-7 -40 20 23 8 -4 2 -16
-8 -38 19 21 8 -4 4 -15
-8 -37 18 19 8 -3 4 -13
-9 -36 18 18 7 -3 5 -13
-9 -35 17 17 6 -4 4 -14
-9 -34 16 15 4 -5 4 -14
-10 -33 16 14 3 -5 4 -14
-10 -32 15 14 2 -6 4 -14
-10 -32 15 13 2 -6 3 -15
-10 -32 14 12 1 -6 3 -15
-10 -31 13 10 0 -6 2 -17
-10 -30 13 10 0 -6 2 -17
-10 -29 13 9 0 -6 2 -17
-10 -28 12 7 -3 -8 0 -17
-11 -27 13 7 -3 -8 0 -18
-11 -27 13 7 -4 -8 0 -18
-11 -26 13 7 -4 -9 0 -19
-11 -25 13 7 -4 -9 0 -19
-11 -24 12 6 -5 -10 -3 -20
-11 -23 12 7 -6 -10 -3 -21
-12 -23 12 6 -6 -10 -3 -21
-12 -22 12 6 -6 -10 -2 -21
-11 -21 12 5 -6 -11 -3 -21
-11 -20 11 6 -6 -11 -3 -21
-11 -20 11 5 -6 -12 -3 -21
-11 -20 11 5 -6 -12 -3 -21
-11 -19 11 5 -6 -12 -3 -21
-11 -18 10 4 -7 -13 -4 -22
-11 -17 10 4 -6 -12 -4 -21
-11 -16 11 5 -6 -12 -4 -20
-11 -15 9 4 -6 -12 -5 -21
-11 -14 9 5 -5 -12 -5 -22
-11 -14 10 5 -4 -12 -4 -21
-11 -13 11 6 -4 -12 -3 -21
-10 -13 11 6 -4 -12 -4 -21
-10 -12 10 6 -4 -12 -4 -21
-10 -12 10 7 -3 -13 -5 -21
-11 -11 10 7 -3 -13 -5 -22
-11 -11 10 8 -3 -13 -5 -21
-10 -10 10 8 -3 -12 -4 -21
-10 -9 10 9 -2 -11 -3 -20
-10 -8 10 8 -2 -12 -3 -21
-10 -8 10 7 -2 -12 -2 -21
-10 -7 10 7 0 -11 -2 -21
-10 -7 10 7 0 -11 -2 -20
-10 -7 11 8 0 -10 -2 -20
-9 -6 10 7 -2 -11 -3 -20
-8 -6 10 8 0 -11 -2 -20
-8 -6 10 8 0 -11 -2 -20
-8 -6 10 9 0 -11 0 -21
-9 -6 9 9 -2 -10 0 -20
-9 -5 9 10 0 -10 0 -20
-9 -5 10 10 1 -9 0 -19
-8 -4 9 9 1 -10 0 -20
-8 -3 9 10 1 -10 0 -19
-8 -3 10 10 1 -9 0 -19
-8 -3 10 10 1 -9 1 -18
-7 -2 9 9 0 -10 0 -18
-7 -2 9 9 0 -9 1 -19
-7 -2 8 9 0 -9 1 -20
-7 -2 8 9 1 -8 1 -19
-7 0 9 10 1 -6 1 -18
-8 0 9 10 2 -6 2 -18
-8 1 10 10 2 -6 2 -18
-7 1 10 10 2 -6 3 -18
-7 1 10 10 2 -5 3 -17
-7 1 9 10 2 -5 3 -17
-7 2 8 9 1 -7 2 -18
-7 2 8 8 1 -7 3 -18
-7 2 8 8 1 -7 3 -18
-7 2 8 7 2 -7 3 -18
-8 2 9 8 3 -6 4 -17
-7 1 8 7 4 -5 5 -16
-6 1 7 6 3 -7 4 -17
-6 1 7 6 3 -7 4 -16
-5 1 7 5 3 -6 4 -16
-5 1 7 5 3 -6 5 -15
-6 0 8 5 4 -5 6 -14
-6 0 8 5 3 -5 6 -14
-7 1 7 5 3 -5 6 -15
-6 1 6 4 2 -6 4 -15
-6 2 6 3 2 -6 4 -15
-6 1 6 2 2 -6 4 -15
-7 0 8 2 3 -5 5 -14
-7 0 8 2 3 -5 5 -14
-7 1 8 2 4 -5 6 -14
-7 0 8 2 4 -5 7 -14
-7 -2 8 2 2 -6 8 -14
-7 -3 8 2 2 -5 9 -12
-7 -4 7 2 2 -5 9 -12
-7 -4 7 2 2 -4 9 -12
-7 -4 7 2 2 -4 9 -12
-7 -3 7 2 2 -4 9 -11
-8 -3 7 2 1 -5 9 -12
-8 -4 8 1 1 -5 9 -12
-8 -5 9 2 2 -4 10 -11
-8 -6 9 2 3 -3 10 -11
-8 -6 8 2 3 -3 10 -11
-8 -7 8 1 3 -2 9 -11
-9 -8 8 2 3 -2 9 -10
-9 -10 9 3 3 0 10 -9
-9 -10 9 2 3 0 11 -9
-8 -11 9 2 4 0 11 -9
-8 -11 9 2 4 0 11 -9
-7 -11 9 2 4 -2 10 -9
-7 -12 11 3 5 0 11 -9
-7 -13 11 2 4 0 11 -9
-7 -14 10 2 4 0 11 -10
-7 -15 10 3 4 0 11 -9
-7 -15 10 3 4 0 11 -9
-7 -16 10 4 4 0 12 -8
-7 -17 11 4 4 1 13 -7
-7 -18 11 4 5 1 14 -6
-7 -18 11 4 5 1 14 -6
-7 -19 11 5 5 1 14 -6
-7 -19 12 4 5 1 13 -7
-7 -20 12 5 6 2 14 -6
-7 -20 12 4 7 3 15 -6
-7 -20 12 4 7 3 15 -6
-7 -21 12 4 7 3 15 -6
-7 -21 12 4 7 3 15 -5
-8 -22 13 5 8 4 16 -4
-8 -22 13 5 8 4 16 -5
-8 -22 13 5 7 4 15 -6
-8 -22 13 6 7 4 15 -5
-8 -22 13 6 7 4 15 -5
-8 -23 13 6 7 3 15 -5
-8 -24 13 6 7 3 15 -6
-8 -24 13 5 7 3 15 -6
-8 -24 13 5 8 3 15 -6
-8 -23 13 5 8 3 15 -5
-8 -23 13 6 8 3 15 -6
-8 -23 13 5 8 3 15 -6
-8 -22 14 5 8 3 15 -5
-8 -22 13 5 7 3 15 -4
-8 -22 13 6 7 3 15 -5
-8 -22 13 7 7 3 15 -5
-7 -22 12 6 7 3 15 -6
-7 -21 12 6 7 3 15 -6
-7 -21 12 6 7 3 15 -6
-8 -21 11 6 6 3 14 -6
-8 -20 12 6 6 3 14 -5
-8 -19 12 6 7 3 14 -5
-9 -18 12 5 6 2 14 -5
-10 -18 12 5 6 2 13 -6
-9 -18 11 5 7 3 13 -6
-7 -17 11 5 6 2 13 -6
-6 -15 10 4 6 2 13 -7
-6 -14 10 4 6 2 13 -7
-6 -13 11 4 6 1 12 -6
-7 -12 11 5 6 1 12 -6
-7 -12 11 5 6 1 12 -5
-8 -11 11 4 5 1 12 -5
-8 -11 11 5 5 1 13 -5
-7 -10 11 5 4 0 11 -5
-7 -9 11 5 4 0 11 -6
-7 -9 11 5 4 0 11 -6
-7 -8 10 4 3 -2 10 -7
-8 -7 9 3 2 -2 10 -7
-8 -7 9 2 2 0 10 -8
-8 -6 9 3 2 0 10 -7
-7 -4 8 2 1 -2 9 -8
-7 -4 8 2 1 -2 9 -8
-7 -3 7 1 1 -2 9 -8
-6 -2 7 0 1 -3 8 -9
-6 0 7 0 0 -3 8 -9
-6 0 6 0 0 -4 8 -10
-6 0 6 0 0 -4 8 -10
-6 0 6 0 0 -4 8 -10
-6 2 5 0 -2 -5 7 -10
-6 3 6 0 -2 -4 8 -10
-7 4 6 0 0 -4 8 -10
-7 5 6 -2 -2 -5 7 -12
-6 6 6 -2 0 -5 7 -11
-6 7 6 -3 -2 -5 6 -11
-6 7 5 -3 -2 -6 6 -12
-6 7 5 -3 -2 -6 6 -13
-6 8 5 -3 -2 -6 6 -13
-6 8 5 -3 -2 -6 7 -13
-5 9 5 -4 -2 -7 6 -13
-6 9 5 -3 0 -6 7 -12
-6 10 4 -4 -2 -6 6 -13
-6 10 4 -4 -2 -6 6 -13
-6 11 5 -4 -2 -6 6 -13
-6 11 5 -4 0 -6 6 -13
-5 12 4 -4 -2 -7 5 -14
-6 13 4 -4 -2 -7 4 -14
-6 13 3 -4 -3 -7 4 -15
-7 12 4 -4 -2 -6 5 -14
-7 13 4 -4 -2 -6 5 -14
-6 13 3 -5 -3 -7 4 -14
-5 14 3 -4 -2 -6 4 -13
-5 14 2 -4 -2 -6 4 -12
-5 15 1 -5 -3 -7 3 -14
-5 15 2 -6 -3 -8 3 -15
-5 16 3 -6 -3 -8 3 -16
-5 16 3 -5 -4 -9 3 -16
-5 17 3 -5 -4 -9 3 -15
-5 17 3 -4 -4 -8 3 -15
-5 18 2 -5 -5 -9 2 -16
-5 18 2 -5 -5 -8 2 -15
-5 18 2 -5 -5 -8 2 -15
-5 18 2 -5 -5 -9 2 -15
-6 18 3 -4 -4 -8 2 -15
-6 18 4 -4 -4 -8 2 -15
-6 18 3 -4 -4 -8 1 -15
-5 18 2 -5 -6 -9 0 -16
-5 19 2 -5 -6 -9 0 -16
-5 19 2 -5 -6 -9 0 -16
-5 20 2 -5 -6 -9 0 -16
-5 20 2 -5 -6 -9 1 -15
-6 21 2 -5 -6 -8 1 -15
-6 21 2 -5 -6 -8 1 -15
-6 20 2 -5 -6 -8 1 -15
-6 20 2 -5 -6 -8 1 -15
-5 20 2 -5 -6 -8 1 -15
-5 20 2 -4 -6 -9 1 -15
-6 19 2 -5 -7 -9 1 -15
-6 18 3 -4 -6 -8 1 -15
-5 18 2 -5 -8 -9 0 -16
-5 18 3 -5 -8 -9 0 -16
-5 18 3 -4 -8 -9 0 -16
-5 17 4 -4 -6 -8 1 -15
-5 18 4 -5 -7 -9 0 -15
-4 19 4 -4 -6 -9 0 -14
-4 20 4 -4 -7 -10 0 -14
-3 20 4 -4 -6 -9 1 -14
-3 20 5 -3 -5 -9 1 -13
-3 21 6 0 -4 -8 2 -11
-2 22 6 0 -4 -8 2 -11
-2 23 7 1 -3 -7 3 -10
-2 23 8 1 -2 -6 4 -9
0 24 8 3 -2 -5 5 -9
0 25 10 5 1 -3 7 -7
1 27 11 6 2 -2 8 -6
2 27 11 6 2 -2 7 -6
2 28 12 7 3 0 8 -5
3 28 12 8 4 1 9 -4
3 28 13 9 4 1 10 -3
3 27 14 9 5 2 11 -4
2 27 15 10 6 2 11 -3
2 27 16 11 8 4 12 0
3 26 17 13 9 5 13 1
5 25 17 13 10 6 13 1
6 24 16 13 10 6 13 1
7 22 15 13 10 7 13 1
10 23 13 14 11 8 14 2
12 23 11 15 12 9 16 3
13 22 10 16 12 10 17 4
14 20 7 16 12 10 17 5
14 18 4 15 12 9 16 5
13 18 4 15 13 11 18 7
13 19 3 16 13 11 18 7
14 20 5 17 15 13 20 9
16 21 6 17 15 14 21 11
17 21 5 16 14 14 21 11
18 21 4 15 14 15 22 11
18 22 3 15 14 15 23 12
18 22 2 15 14 14 23 12
19 21 1 13 12 14 22 13
19 18 0 12 11 13 21 13
19 15 -2 10 10 11 20 12
18 13 -3 9 8 10 19 11
18 12 -4 6 6 8 17 9
18 10 -3 5 6 7 17 9
17 8 0 7 6 6 17 8
15 7 1 8 6 7 17 8
14 6 2 8 6 6 15 7
13 4 3 8 6 7 15 6
11 1 5 10 7 7 15 6
9 -2 5 9 5 4 13 4
6 -4 6 8 4 3 12 3
3 -6 7 7 4 3 12 3
0 -7 8 6 2 1 10 2
-2 -8 8 6 1 0 9 1
-2 -9 8 5 0 -2 8 -2
-2 -9 8 4 0 -2 7 -2
-2 -9 8 3 -2 -3 6 -3
-4 -10 9 3 -2 -3 5 -3
-5 -10 8 2 -3 -5 4 -4
-6 -10 9 3 -3 -4 4 -3
-6 -9 8 2 -5 -6 3 -5
-6 -9 8 2 -6 -6 2 -5
-5 -8 7 2 -6 -7 2 -5
-5 -8 7 1 -6 -7 2 -6
-6 -8 7 1 -6 -7 2 -6
-7 -8 7 1 -7 -7 1 -7
-7 -8 7 1 -7 -8 0 -7
-7 -7 7 0 -7 -8 0 -7
-6 -6 6 -2 -8 -9 -2 -8
-7 -5 6 -2 -8 -10 -2 -8
-8 -4 6 -2 -8 -10 -3 -8
-8 -4 6 -2 -9 -11 -3 -8
-7 -3 6 -2 -9 -11 -2 -8
-7 -2 5 -2 -10 -12 -3 -9
-7 0 5 -2 -10 -12 -4 -9
-7 1 5 -3 -11 -12 -4 -10
-7 1 5 -3 -11 -12 -5 -10
-7 2 5 -4 -11 -13 -6 -11
-7 3 5 -3 -11 -12 -6 -10
-6 4 4 -4 -12 -14 -8 -10
-7 4 4 -4 -11 -13 -7 -9
-7 5 3 -5 -12 -14 -9 -11
-6 5 3 -4 -13 -14 -9 -12
-6 5 4 -3 -13 -15 -10 -12
-7 4 5 1 -12 -14 -11 -12
-8 4 7 4 -10 -15 -12 -14
-8 3 10 11 -5 -13 -11 -15
-5 3 11 20 4 -6 -7 -14
0 3 11 27 14 4 1 -9
3 3 6 25 20 14 9 -3
7 1 0 18 24 23 19 4
14 1 -9 9 29 34 30 12
23 4 -19 -2 37 49 46 23
35 10 -30 -9 50 70 65 37
48 20 -41 -12 67 96 91 57
60 33 -55 -15 85 121 115 76
70 48 -68 -18 101 145 136 94
80 64 -87 -22 113 163 152 108
91 82 -110 -28 125 180 169 121
103 100 -134 -37 131 194 183 137
114 111 -159 -58 121 191 185 142
118 112 -183 -80 98 172 176 139
113 108 -200 -105 60 133 151 125
101 101 -211 -135 11 81 113 101
81 95 -214 -166 -40 27 72 75
60 93 -212 -201 -90 -22 34 52
37 90 -207 -234 -135 -65 -2 30
17 79 -197 -253 -169 -101 -33 8
1 67 -178 -249 -182 -121 -56 -13
-8 59 -155 -231 -178 -127 -68 -27
-11 55 -134 -205 -163 -118 -69 -31
-13 52 -115 -177 -145 -107 -63 -30
-14 50 -99 -150 -127 -96 -57 -29
-14 47 -82 -127 -109 -83 -51 -27
-14 44 -67 -103 -92 -71 -45 -25
-13 40 -52 -79 -74 -59 -37 -22
-12 38 -37 -60 -61 -49 -32 -20
-12 35 -26 -47 -51 -41 -28 -18
-12 32 -18 -36 -43 -36 -27 -18
-11 28 -11 -26 -35 -32 -24 -18
-10 27 -7 -19 -30 -28 -22 -17
-9 27 -4 -16 -26 -25 -21 -16
-9 27 -2 -13 -23 -23 -19 -15
-8 26 0 -11 -22 -21 -19 -15
-9 26 1 -10 -22 -21 -19 -14
-9 25 2 -10 -22 -21 -19 -14
-10 25 3 -8 -21 -21 -19 -14
-10 24 4 -7 -20 -21 -19 -14
-10 23 4 -6 -19 -21 -20 -15
-10 23 4 -5 -18 -20 -20 -15
-10 23 5 -4 -16 -20 -20 -15
-10 23 5 -2 -15 -20 -20 -15
-10 23 5 -2 -14 -19 -19 -15
-10 23 6 0 -14 -19 -19 -14
-10 23 7 0 -14 -19 -19 -14
-10 23 7 1 -14 -19 -19 -13
-9 23 8 1 -15 -18 -19 -13
-9 22 8 2 -15 -18 -19 -13
-9 21 8 2 -14 -18 -18 -13
-9 20 8 2 -14 -18 -18 -14
-9 20 8 3 -14 -18 -18 -14
-9 21 8 4 -14 -16 -18 -13
-8 21 7 4 -14 -16 -18 -13
-8 21 7 3 -13 -16 -17 -12
-8 21 8 3 -13 -16 -17 -12
-8 21 8 2 -15 -17 -18 -13
-8 20 9 3 -15 -16 -18 -12
-8 20 9 3 -15 -17 -18 -12
-7 20 7 2 -16 -18 -19 -13
-8 19 7 3 -15 -16 -19 -13
-8 18 7 4 -15 -15 -19 -13
-8 18 7 4 -14 -15 -18 -13
-8 18 8 5 -12 -14 -17 -12
-8 18 9 5 -12 -14 -18 -12
-7 17 10 5 -12 -14 -18 -11
-7 16 10 6 -12 -14 -17 -10
-7 16 10 5 -12 -15 -17 -10
-6 16 9 4 -12 -16 -19 -12
-6 15 10 5 -10 -15 -18 -11
-6 14 10 6 -10 -15 -18 -12
-6 13 9 6 -9 -14 -19 -12
-7 12 10 7 -7 -14 -18 -11
-7 12 10 6 -6 -14 -18 -11
-7 11 10 5 -6 -14 -18 -11
-6 10 11 6 -6 -13 -17 -10
-5 10 11 7 -6 -13 -17 -9
-6 9 13 8 -5 -12 -16 -8
-6 8 12 8 -4 -13 -16 -9
-6 7 11 7 -4 -13 -16 -9
-6 6 11 8 -4 -11 -15 -9
-7 5 11 8 -4 -11 -15 -10
-8 3 11 9 -3 -10 -14 -9
-7 3 11 9 -2 -10 -14 -9
-6 3 12 10 0 -9 -14 -9
-6 2 12 10 0 -9 -14 -11
-6 1 12 10 -2 -9 -14 -12
-6 0 13 10 0 -8 -14 -12
-6 -2 13 10 0 -8 -15 -13
-6 -2 12 9 0 -9 -15 -14
-6 -3 11 10 1 -8 -15 -14
-6 -4 12 12 2 -6 -14 -13
-6 -5 12 12 2 -6 -14 -13
-6 -5 12 12 2 -6 -14 -13
-5 -6 13 12 2 -5 -13 -12
-5 -6 14 13 2 -5 -13 -12
-4 -7 14 12 2 -5 -13 -11
-4 -7 13 12 2 -5 -13 -11
-4 -8 12 12 2 -5 -13 -12
-4 -7 12 12 2 -4 -13 -12
-4 -7 12 13 3 -3 -13 -13
-4 -7 12 13 4 -2 -12 -13
-4 -7 12 14 4 -2 -12 -12
-4 -7 13 15 5 -2 -12 -12
-3 -7 13 15 5 0 -12 -11
-3 -7 13 16 6 0 -11 -10
-2 -7 12 15 5 0 -12 -10
-2 -7 12 16 6 1 -12 -10
-2 -7 12 16 6 1 -12 -10
0 -6 12 16 6 1 -11 -10
-2 -6 11 16 8 2 -10 -10
-2 -5 11 17 9 2 -9 -10
-2 -4 9 16 8 2 -10 -10
0 -3 10 17 9 3 -9 -9
0 -3 11 18 10 3 -8 -8
1 -2 10 17 9 3 -8 -8
1 -2 10 18 9 3 -8 -7
2 0 9 17 9 3 -8 -8
2 2 9 18 11 4 -8 -7
2 3 8 18 11 4 -8 -7
2 4 7 19 13 5 -6 -6
3 6 6 19 13 6 -6 -6
3 8 5 19 13 6 -6 -6
4 9 5 20 15 7 -4 -4
5 10 5 20 16 8 -3 -3
6 12 5 20 17 10 -2 0
6 14 5 21 17 10 0 0
7 16 4 20 17 10 0 1
8 17 3 21 18 11 1 2
9 19 1 21 19 12 1 3
9 21 0 22 20 13 2 4
10 23 -2 22 21 14 4 5
11 25 -3 22 22 15 5 6
13 28 -4 21 22 16 6 6
14 30 -4 22 23 17 7 8
16 32 -5 23 24 19 9 10
18 34 -6 24 25 21 11 12
19 36 -7 24 26 22 13 14
20 37 -8 24 27 23 14 15
20 39 -10 24 28 24 14 16
22 42 -11 23 29 25 16 17
23 44 -11 23 29 27 17 18
23 46 -12 23 30 29 19 19
24 48 -13 24 31 31 20 20
26 51 -14 25 33 33 22 23
28 54 -15 25 33 33 24 24
29 55 -16 25 33 34 25 25
29 55 -16 25 34 36 27 27
30 56 -17 25 35 37 29 29
31 57 -18 25 35 37 31 30
32 58 -18 25 35 38 32 31
33 60 -19 25 35 39 33 31
32 61 -19 25 37 40 35 32
31 62 -19 25 39 43 37 33
32 63 -19 26 40 45 38 36
33 64 -19 26 39 45 39 37
33 64 -19 25 39 46 39 37
34 65 -20 24 39 45 39 37
34 65 -20 24 39 45 39 37
34 64 -18 26 40 46 40 37
33 64 -18 25 39 45 38 35
32 63 -17 26 40 45 37 34
31 62 -17 25 38 43 35 32
30 61 -17 24 38 42 34 31
29 60 -16 24 38 40 32 30
29 59 -15 22 36 38 30 28
28 58 -14 22 35 36 28 26
27 57 -15 19 32 33 25 23
26 55 -15 18 29 31 22 21
24 53 -14 17 28 29 20 19
22 51 -13 15 26 26 17 17
21 49 -13 14 25 23 15 14
20 48 -12 14 24 21 13 12
18 46 -11 13 23 20 11 10
16 45 -11 11 21 18 8 8
14 43 -11 9 18 15 5 5
13 40 -10 7 15 12 2 3
11 37 -9 6 14 11 1 1
10 35 -9 4 11 8 -3 -2
8 33 -9 2 8 5 -6 -5
6 31 -8 1 8 4 -7 -6
5 30 -9 0 7 2 -10 -8
4 30 -9 -2 6 1 -11 -9
3 28 -8 -2 5 -2 -11 -10
2 27 -9 -4 2 -4 -14 -11
1 25 -8 -5 1 -6 -15 -12
0 24 -8 -6 0 -7 -17 -13
0 23 -8 -8 -3 -10 -18 -15
0 22 -7 -9 -4 -11 -19 -15
-2 21 -8 -11 -7 -12 -20 -17
-4 20 -8 -13 -8 -13 -21 -18
-5 19 -8 -14 -8 -13 -20 -18
-4 19 -8 -14 -8 -13 -21 -19
-4 19 -8 -14 -9 -14 -21 -20
-5 19 -8 -15 -10 -14 -22 -20
-6 18 -7 -15 -11 -15 -22 -20
-7 17 -8 -16 -13 -16 -23 -20
-7 17 -8 -16 -14 -17 -23 -20
-7 16 -8 -16 -13 -16 -23 -20
-7 15 -8 -16 -14 -17 -23 -20
-8 13 -7 -14 -14 -16 -23 -20
-8 12 -7 -16 -15 -17 -23 -20
-8 12 -7 -16 -15 -17 -23 -21
-8 11 -6 -15 -14 -15 -21 -19
-9 11 -6 -16 -14 -16 -21 -18
-9 10 -6 -16 -15 -16 -21 -18
-8 9 -6 -17 -15 -17 -21 -19
-8 9 -6 -18 -16 -17 -20 -18
-8 8 -6 -17 -16 -17 -19 -16
-9 7 -6 -18 -16 -18 -19 -17
-9 6 -6 -17 -15 -17 -18 -16
-9 6 -5 -17 -15 -16 -17 -16
-9 5 -5 -17 -15 -16 -17 -16
-9 5 -5 -17 -15 -15 -17 -16
-9 4 -4 -17 -15 -15 -17 -17
-9 3 -3 -16 -14 -15 -16 -16
-10 2 -4 -17 -15 -15 -17 -16
-9 1 -4 -17 -16 -15 -17 -16
-9 0 -3 -16 -16 -14 -16 -15
-9 -2 -3 -16 -16 -15 -17 -15
-10 -2 -3 -16 -16 -16 -17 -15
-10 -3 -2 -15 -16 -15 -15 -14
-11 -4 -2 -15 -16 -14 -16 -14
-11 -5 0 -14 -15 -13 -16 -13
-11 -6 0 -14 -15 -14 -16 -14
-11 -7 1 -14 -15 -14 -16 -15
-11 -8 2 -14 -15 -14 -16 -14
-11 -9 2 -14 -15 -14 -17 -14
-11 -10 1 -13 -15 -15 -17 -14
-11 -10 1 -13 -15 -15 -17 -14
-11 -10 1 -13 -15 -15 -17 -14
-12 -11 1 -13 -15 -15 -18 -14
-13 -11 1 -12 -13 -14 -17 -13
-12 -10 1 -13 -14 -14 -17 -14
-12 -10 1 -12 -13 -13 -16 -13
-11 -10 2 -12 -13 -13 -15 -12
-11 -11 2 -12 -13 -14 -15 -12
-12 -12 3 -11 -12 -13 -14 -12
-12 -12 2 -11 -12 -13 -14 -12
-12 -12 2 -10 -12 -13 -15 -12
-11 -12 1 -10 -13 -14 -15 -12
-11 -12 2 -9 -12 -13 -15 -12
-12 -13 3 -8 -10 -12 -13 -11
-12 -13 3 -8 -11 -11 -12 -11
-12 -13 3 -8 -11 -11 -11 -11
-12 -13 3 -7 -10 -10 -11 -10
-11 -12 2 -7 -11 -10 -12 -10
-11 -13 3 -7 -10 -10 -11 -9
-11 -13 3 -7 -11 -10 -11 -10
-12 -13 3 -7 -11 -10 -12 -11
-11 -13 3 -6 -11 -10 -11 -10
-11 -12 2 -6 -12 -10 -11 -10
-10 -12 2 -6 -11 -9 -10 -10
-11 -11 3 -6 -10 -9 -9 -10
-11 -11 2 -6 -10 -9 -9 -10
-11 -11 2 -6 -10 -9 -9 -10
-11 -11 2 -6 -10 -10 -9 -10
-11 -10 2 -6 -10 -10 -9 -9
-11 -10 2 -6 -10 -9 -9 -9
-11 -10 2 -6 -10 -9 -9 -9
-12 -9 2 -6 -10 -9 -9 -9
-12 -9 2 -6 -10 -9 -8 -9
-11 -8 2 -6 -10 -8 -7 -8
-11 -7 2 -6 -10 -8 -7 -9
-11 -6 2 -5 -10 -7 -7 -8
-11 -5 3 -4 -9 -6 -7 -8
-11 -4 3 -3 -8 -6 -6 -8
-9 -2 3 -2 -7 -6 -6 -7
-9 1 3 0 -6 -5 -5 -7
-8 3 3 2 -4 -4 -4 -6
-7 5 4 5 -2 -2 -2 -4
-6 8 5 8 3 3 1 -2
-5 11 7 12 6 6 4 1
-4 13 8 16 10 9 6 2
-3 16 9 19 12 11 7 2
-3 18 12 24 16 16 11 7
-2 21 13 27 19 18 15 9
1 25 13 30 22 21 18 12
4 29 12 32 25 25 22 15
8 34 9 32 28 28 26 18
11 38 9 36 33 33 31 23
14 43 8 40 37 39 37 27
18 51 7 44 44 47 44 33
20 59 7 47 51 55 51 40
21 68 8 51 58 63 59 48
22 79 9 54 65 70 67 56
23 91 12 58 75 81 78 66
24 104 13 62 86 93 90 76
24 118 14 64 96 104 100 87
24 133 12 61 106 115 111 99
22 147 9 55 113 127 122 111
20 162 4 45 117 135 132 121
17 178 3 33 122 143 141 133
14 194 0 22 128 152 151 144
11 209 -5 12 133 160 161 154
9 220 -7 2 135 165 169 163
6 229 -7 -12 134 170 175 170
3 239 -7 -24 133 173 180 177
0 251 -8 -35 134 179 188 185
-3 263 -11 -48 134 187 196 195
-4 273 -22 -67 130 191 202 203
-6 282 -37 -88 123 193 210 211
-4 290 -58 -111 114 193 214 218
-3 299 -78 -137 104 194 219 225
-3 309 -98 -158 95 196 225 232
-3 318 -113 -173 89 198 232 241
-3 325 -130 -187 81 200 240 251
-2 329 -150 -207 67 199 244 257
2 329 -173 -225 52 195 250 262
8 327 -193 -233 44 196 257 268
13 325 -205 -234 39 200 265 277
18 323 -215 -239 32 201 272 283
20 320 -221 -249 21 197 275 287
21 316 -224 -261 5 188 274 287
21 309 -225 -268 -12 177 269 284
20 297 -222 -270 -25 167 265 281
19 283 -219 -271 -37 155 258 274
17 269 -213 -266 -43 149 255 269
16 256 -204 -258 -47 144 250 262
14 243 -192 -245 -47 139 242 253
9 231 -177 -230 -46 131 229 237
5 217 -160 -210 -41 121 215 221
5 202 -145 -186 -34 114 200 204
5 188 -129 -161 -26 107 187 189
6 171 -112 -138 -21 98 171 171
8 152 -97 -114 -19 86 153 150
13 133 -85 -92 -17 71 134 127
18 113 -71 -69 -12 61 117 108
21 95 -62 -54 -10 49 97 88
20 77 -54 -45 -14 31 73 65
17 59 -45 -37 -19 13 50 40
14 40 -34 -29 -21 -2 27 19
10 25 -26 -21 -22 -13 10 1
6 15 -19 -15 -22 -19 -2 -13
5 9 -15 -13 -23 -22 -9 -20
3 5 -12 -11 -23 -24 -12 -23
1 2 -10 -8 -22 -26 -15 -25
-3 -3 -9 -7 -24 -28 -17 -29
-7 -7 -8 -7 -25 -30 -21 -32
-11 -12 -7 -8 -27 -34 -25 -37
-13 -16 -6 -8 -28 -36 -28 -40
-14 -19 -4 -8 -29 -37 -30 -41
-15 -21 -3 -8 -30 -38 -32 -44
-16 -23 0 -7 -30 -39 -34 -46
-17 -25 1 -7 -31 -40 -35 -48
-18 -28 1 -6 -31 -41 -36 -49
-18 -29 1 -7 -30 -44 -38 -50
-19 -31 1 -6 -30 -44 -38 -49
-19 -32 2 -6 -30 -45 -39 -50
-19 -33 2 -6 -31 -46 -40 -52
-19 -34 2 -6 -31 -47 -41 -53
-19 -36 3 -5 -31 -47 -43 -53
-20 -38 5 -5 -30 -47 -43 -53
-20 -39 5 -4 -31 -47 -43 -54
-20 -40 7 -2 -30 -46 -41 -54
-19 -41 7 -2 -30 -46 -41 -54
-20 -43 7 -2 -31 -47 -43 -55
-21 -45 7 0 -31 -47 -43 -54
-21 -47 8 1 -30 -47 -41 -54
-21 -48 7 0 -31 -48 -43 -55
-21 -49 8 1 -30 -48 -43 -55
-22 -50 8 1 -30 -49 -44 -55
-22 -51 9 2 -29 -49 -43 -55
-21 -52 10 2 -29 -49 -43 -55
-20 -53 10 2 -29 -49 -43 -55
-19 -54 11 3 -29 -50 -44 -56
-19 -56 11 3 -29 -50 -44 -57
-19 -57 11 5 -28 -49 -44 -56
-20 -58 11 4 -28 -51 -44 -57
-20 -59 12 5 -27 -51 -44 -57
-19 -60 12 6 -27 -51 -44 -57
-18 -61 12 7 -27 -51 -45 -57
-18 -61 12 6 -28 -52 -46 -59
-19 -62 12 6 -28 -53 -46 -60
-18 -63 13 6 -29 -53 -46 -60
-18 -64 14 7 -29 -52 -46 -60
-18 -65 14 7 -29 -54 -47 -61
-18 -66 13 8 -30 -55 -48 -62
-17 -67 13 8 -31 -56 -49 -62
-17 -68 14 9 -31 -55 -49 -62
-17 -69 14 9 -31 -57 -51 -64
-18 -70 14 9 -31 -57 -51 -64
-18 -71 14 9 -31 -58 -52 -66
-17 -71 15 10 -31 -58 -53 -66
-16 -72 16 11 -32 -58 -53 -67
-16 -73 16 11 -33 -59 -54 -69
-15 -74 15 11 -34 -61 -56 -70
-15 -75 15 11 -35 -63 -58 -72
-14 -75 15 11 -36 -64 -58 -73
-14 -76 14 11 -37 -66 -59 -74
-14 -77 15 12 -37 -67 -60 -74
-15 -78 15 12 -38 -69 -62 -78
-14 -79 14 12 -40 -70 -64 -80
-14 -80 15 14 -40 -70 -65 -80
-13 -82 15 14 -41 -72 -67 -82
-12 -83 15 15 -43 -75 -70 -85
-12 -83 15 15 -45 -77 -72 -87
-11 -85 15 15 -45 -79 -74 -89
-11 -86 15 15 -46 -81 -77 -91
-10 -88 16 16 -46 -82 -78 -93
-10 -90 16 17 -47 -85 -79 -96
-10 -91 17 18 -47 -87 -81 -98
-9 -93 17 19 -49 -89 -85 -100
-8 -94 16 19 -50 -91 -87 -103
-7 -96 16 21 -51 -93 -90 -105
-6 -98 17 22 -51 -95 -92 -108
-5 -100 17 23 -52 -98 -95 -111
-4 -102 17 24 -53 -101 -98 -114
-3 -104 18 26 -54 -103 -100 -116
-2 -107 18 26 -55 -106 -103 -120
0 -110 19 28 -56 -108 -105 -124
1 -112 19 30 -57 -111 -109 -129
1 -114 21 32 -57 -113 -111 -131
2 -117 22 34 -57 -115 -113 -134
3 -119 22 35 -59 -117 -116 -137
4 -122 23 37 -59 -118 -119 -139
5 -124 23 39 -60 -120 -122 -142
6 -127 24 43 -60 -123 -124 -145
8 -128 25 46 -61 -127 -127 -147
8 -130 28 48 -60 -128 -129 -150
8 -132 29 49 -61 -131 -133 -154
9 -134 31 52 -60 -132 -134 -156
11 -135 31 54 -61 -134 -137 -159
12 -136 32 57 -61 -135 -139 -161
13 -137 34 59 -61 -137 -140 -163
14 -138 35 61 -60 -138 -142 -165
14 -139 37 65 -58 -138 -142 -166
15 -140 38 67 -57 -138 -143 -166
15 -140 39 69 -56 -139 -144 -168
16 -141 40 72 -55 -140 -145 -170
16 -140 42 72 -55 -141 -146 -172
16 -139 44 74 -53 -141 -146 -171
17 -138 44 75 -52 -140 -147 -171
18 -137 46 77 -50 -139 -146 -171
19 -136 47 78 -49 -139 -146 -171
19 -134 48 78 -48 -139 -145 -169
19 -132 50 79 -46 -136 -142 -166
19 -129 50 80 -44 -135 -140 -164
19 -126 50 81 -41 -133 -138 -162
19 -122 51 81 -40 -132 -136 -160
19 -118 50 79 -39 -131 -135 -160
18 -115 51 80 -36 -127 -132 -156
18 -111 51 79 -35 -124 -130 -154
18 -108 51 79 -33 -121 -126 -150
19 -104 50 78 -30 -118 -121 -146
18 -99 49 76 -29 -115 -118 -143
17 -94 49 76 -26 -111 -112 -138
17 -89 48 74 -24 -108 -108 -135
16 -85 47 73 -22 -105 -104 -131
14 -80 47 73 -19 -100 -100 -126
14 -75 45 70 -18 -96 -96 -121
14 -70 42 67 -17 -93 -92 -117
13 -66 40 65 -15 -89 -87 -113
12 -62 38 64 -13 -86 -81 -109
12 -57 37 62 -11 -81 -76 -104
11 -53 36 60 -10 -77 -71 -99
11 -49 34 56 -9 -74 -67 -95
10 -46 33 54 -7 -70 -62 -90
9 -41 31 51 -6 -66 -58 -87
8 -37 29 47 -5 -63 -55 -81
7 -34 27 44 -4 -60 -51 -77
6 -30 25 40 -3 -57 -47 -73
6 -27 24 37 -2 -54 -43 -69
5 -23 24 35 1 -50 -36 -64
5 -20 22 32 1 -47 -32 -61
3 -17 20 30 1 -45 -29 -58
2 -16 18 28 1 -41 -26 -54
1 -15 17 26 1 -38 -23 -50
1 -13 16 24 2 -35 -19 -47
0 -11 15 21 3 -33 -17 -45
-2 -10 14 19 3 -31 -14 -43
-2 -9 13 17 3 -29 -12 -40
-3 -8 12 15 3 -26 -9 -38
-4 -7 11 13 4 -24 -7 -36
-5 -6 11 12 3 -23 -6 -35
-6 -6 10 11 3 -23 -5 -34
-7 -7 10 10 4 -21 -3 -32
-7 -7 9 9 4 -21 -3 -31
-8 -8 9 8 4 -20 -2 -29
-8 -8 8 7 4 -20 0 -29
-8 -8 9 6 3 -20 1 -29
-8 -7 8 4 2 -20 1 -29
-9 -7 9 4 3 -18 2 -28
-9 -7 9 3 2 -18 3 -27
-10 -8 9 3 2 -18 3 -27
-10 -9 10 3 2 -17 3 -26
-11 -10 10 2 1 -17 3 -26
-11 -10 10 1 0 -18 2 -26
-11 -11 9 0 -2 -19 2 -26
-11 -11 9 0 -2 -19 3 -27
-11 -12 8 1 -2 -20 3 -28
-11 -13 9 2 1 -19 3 -28
-11 -14 9 2 1 -19 3 -28
-11 -14 9 2 1 -20 3 -28
-11 -14 10 1 0 -19 3 -28
-11 -15 10 1 0 -19 3 -28
-12 -16 11 2 0 -18 4 -27
-11 -16 11 2 0 -18 4 -26
-11 -16 10 3 0 -18 5 -25
-11 -16 10 3 0 -18 5 -26
-12 -17 10 3 -2 -19 4 -28
-12 -17 11 3 -2 -19 4 -28
-11 -16 12 4 0 -19 5 -28
-11 -16 12 5 1 -18 5 -27
-11 -16 13 6 1 -18 6 -26
-11 -17 13 7 2 -18 6 -26
-11 -17 12 6 3 -18 6 -27
-11 -18 12 6 3 -18 6 -27
-11 -17 12 6 3 -18 6 -27
-11 -17 12 6 3 -18 7 -27
-11 -16 12 6 3 -17 7 -27
-11 -15 11 5 3 -17 6 -28
-11 -15 11 6 3 -17 7 -28
-11 -15 11 7 4 -17 6 -29
-11 -15 11 8 4 -16 6 -29
-11 -14 12 8 4 -16 7 -28
-11 -14 12 8 4 -15 8 -28
-11 -14 13 9 5 -15 8 -27
-10 -14 13 10 5 -15 8 -27
-10 -13 12 9 5 -17 7 -28
-9 -12 12 9 5 -16 8 -28
-9 -10 13 10 6 -15 8 -27
-9 -10 13 10 7 -14 9 -26
-9 -8 12 10 7 -14 8 -27
-8 -8 12 11 8 -13 9 -26
-8 -7 11 10 6 -14 8 -28
-8 -7 11 11 6 -14 8 -28
-9 -6 11 11 6 -14 8 -28
-9 -6 11 11 6 -14 8 -28
-8 -5 11 11 7 -13 8 -28
-8 -4 10 10 6 -14 8 -28
-8 -3 10 10 6 -14 8 -27
-8 -2 10 10 7 -13 9 -27
-8 0 9 9 6 -13 10 -27
-8 1 10 9 6 -12 10 -27
-8 2 10 9 6 -12 11 -26
-7 3 9 9 5 -12 10 -27
-7 4 9 9 5 -12 9 -26
-8 4 9 8 5 -14 9 -27
-9 4 8 7 5 -14 8 -28
-9 5 8 7 6 -14 7 -28
-8 6 8 7 5 -15 8 -28
-7 7 8 8 6 -14 9 -28
-6 8 7 7 6 -15 9 -28
-6 8 8 7 6 -15 8 -27
-7 9 8 7 5 -15 8 -28
-7 9 7 7 5 -15 7 -29
-7 10 7 7 5 -15 7 -28
-6 10 6 7 4 -15 7 -29
-6 10 6 7 4 -15 7 -29
-6 11 5 7 4 -15 7 -29
-7 12 5 7 4 -15 7 -28
-7 13 5 7 4 -15 8 -28
-7 14 4 5 3 -16 7 -29
-7 15 4 5 4 -16 7 -29
-7 15 5 5 4 -16 6 -29
-7 14 5 5 4 -17 6 -29
-6 14 5 4 3 -17 6 -29
-6 14 5 4 3 -17 6 -29
-6 15 4 3 4 -16 6 -29
-7 15 4 3 3 -16 6 -29
-8 16 3 3 3 -16 6 -28
-9 15 4 3 4 -15 7 -27
-8 15 3 2 3 -16 7 -27
-7 16 3 2 3 -16 7 -27
-7 18 3 1 2 -16 7 -27
-7 18 2 0 2 -16 7 -26
-7 18 2 0 2 -15 7 -25
-7 19 2 0 2 -15 8 -25
-7 19 2 0 3 -15 7 -25
-7 19 2 0 3 -16 7 -26
-7 18 2 0 2 -16 6 -26
-9 18 3 1 2 -16 7 -26
-8 18 2 -2 1 -17 5 -26
-7 18 3 -2 1 -16 6 -26
-6 18 3 -2 1 -16 7 -25
-6 18 3 -2 1 -16 7 -25
-6 17 3 -3 1 -16 6 -26
-7 16 3 -2 2 -16 7 -25
-7 17 2 -3 1 -16 6 -26
-6 19 1 -4 0 -17 5 -27
-6 19 1 -4 0 -18 4 -27
-7 19 2 -4 1 -17 5 -26
-8 18 2 -4 1 -17 5 -26
-8 18 2 -4 1 -16 6 -26
-7 19 2 -3 1 -15 6 -26
-6 19 1 -4 0 -16 5 -27
-7 18 1 -3 1 -15 6 -26
-8 18 1 -4 1 -15 6 -25
-8 18 1 -4 2 -14 6 -24
-7 18 1 -5 2 -13 6 -23
-7 18 1 -5 2 -13 6 -23
-8 18 1 -5 3 -13 6 -22
-8 18 1 -4 3 -13 6 -22
-8 17 3 -3 4 -11 8 -21
-7 17 3 -4 3 -13 6 -22
-7 16 4 -2 4 -12 6 -21
-6 16 3 -3 3 -14 4 -22
-7 15 3 -3 4 -13 5 -21
-7 14 3 -4 4 -13 5 -21
-7 14 3 -4 4 -11 6 -21
-7 13 3 -3 6 -10 7 -20
-7 12 3 -3 5 -10 6 -20
-8 11 4 -3 6 -10 7 -19
-8 11 4 -3 5 -10 7 -18
-7 10 3 -3 7 -10 8 -17
-6 10 3 -2 7 -10 8 -18
-6 9 4 0 8 -9 9 -17
-7 9 4 0 8 -9 9 -17
-7 8 4 -2 8 -9 9 -18
-7 7 5 1 9 -9 9 -17
-7 6 5 1 8 -10 9 -17
-7 4 6 1 8 -10 9 -16
-7 3 7 0 8 -9 8 -16
-7 3 7 0 8 -9 9 -16
-7 2 7 1 9 -8 10 -15
-7 1 7 2 9 -7 11 -14
-7 0 7 2 9 -7 10 -14
-7 0 7 2 10 -6 10 -13
-7 0 7 2 11 -4 12 -12
-6 0 7 3 11 -4 12 -11
-6 1 6 2 10 -4 12 -12
-6 1 7 2 11 -3 12 -11
-6 2 7 3 11 -3 12 -10
-6 2 8 3 11 -3 12 -10
-6 2 7 3 11 -4 11 -11
-7 0 8 3 12 -3 12 -10
-7 -2 8 3 11 -5 11 -11
-6 -3 8 2 9 -6 10 -11
-6 -3 7 2 10 -6 10 -11
-6 -3 7 2 11 -5 9 -11
-7 -4 9 3 12 -4 10 -10
-7 -4 9 3 12 -4 9 -11
-7 -4 10 3 12 -4 9 -11
-8 -5 11 4 12 -3 10 -10
-8 -5 10 4 12 -4 10 -10
-8 -5 10 4 12 -3 11 -9
-6 -4 10 4 12 -4 10 -10
