I II V1 V2 V3 V4 V5 V6
-4 -8 19 20 2 -10 -9 -6
-6 -10 18 19 3 -8 -7 -4
-4 -8 17 19 2 -10 -8 -4
-4 -8 16 17 1 -11 -9 -6
-4 -9 17 16 0 -10 -8 -5
-2 -8 17 16 -1 -11 -8 -6
-3 -9 16 14 -2 -13 -10 -7
-3 -9 16 12 -3 -14 -12 -8
-4 -10 17 12 -2 -14 -11 -8
-6 -11 15 12 -2 -15 -12 -8
-5 -10 14 12 -4 -15 -13 -8
-3 -11 14 12 -5 -17 -13 -8
-5 -13 14 11 -6 -18 -14 -9
-5 -12 13 12 -5 -18 -14 -9
-5 -12 14 12 -6 -19 -14 -9
-3 -12 16 12 -6 -20 -15 -10
-3 -11 16 13 -5 -20 -15 -9
-4 -12 15 12 -6 -21 -15 -9
-3 -11 17 13 -6 -21 -15 -9
-5 -10 17 13 -6 -22 -15 -10
-5 -11 17 13 -6 -21 -14 -10
-4 -10 16 14 -6 -21 -14 -9
-4 -8 15 14 -6 -21 -15 -9
-5 -10 16 16 -5 -20 -14 -10
-4 -10 18 16 -5 -19 -14 -9
-5 -10 17 17 -4 -19 -15 -10
-2 -7 17 18 -4 -19 -14 -9
-2 -7 17 16 -4 -19 -14 -8
-3 -8 17 18 -3 -18 -13 -8
-3 -6 17 18 -2 -17 -13 -8
-5 -7 16 18 0 -15 -12 -7
-4 -7 17 20 1 -14 -11 -6
-4 -5 16 20 1 -13 -10 -6
-7 -7 16 20 2 -12 -9 -5
-4 -5 17 20 1 -12 -10 -4
-5 -5 18 22 2 -11 -8 -1
-3 -4 18 20 3 -10 -9 -2
-2 -1 18 21 3 -10 -9 -4
-3 -2 18 22 4 -8 -8 -7
-3 -2 18 22 6 -8 -7 -10
-2 1 18 22 6 -6 -6 -10
-2 0 16 21 5 -8 -7 -9
-1 1 15 22 4 -8 -8 -6
-2 0 16 22 4 -8 -9 -3
-3 0 17 22 4 -7 -8 -2
-3 2 17 23 5 -7 -6 -2
-3 -1 17 22 6 -6 -6 -2
-3 0 16 21 5 -8 -7 -3
-2 1 17 22 6 -6 -6 -2
-3 -1 16 22 6 -6 -6 -3
-2 2 15 22 6 -5 -5 -3
-2 2 15 22 5 -6 -6 -3
-3 0 16 21 6 -5 -6 -2
-2 1 15 22 6 -5 -5 -2
-3 0 15 21 5 -6 -6 -3
-1 2 16 21 5 -5 -5 -4
0 1 16 21 6 -5 -5 -3
-2 0 14 20 4 -7 -6 -4
-1 0 16 20 5 -5 -5 -3
-3 1 14 20 5 -6 -6 -4
-3 1 13 20 5 -5 -6 -3
-3 2 14 21 6 -5 -5 -2
-4 0 14 21 5 -6 -5 -3
-1 1 13 19 4 -7 -6 -4
-1 3 14 20 5 -5 -5 -3
-2 1 14 19 2 -7 -7 -4
-3 0 14 18 2 -7 -7 -4
-4 0 15 18 2 -8 -7 -4
-4 -3 15 17 2 -8 -7 -4
-3 -2 15 17 2 -8 -7 -5
-3 -1 13 16 2 -8 -8 -4
-2 0 13 15 2 -8 -7 -4
-2 -1 12 15 1 -9 -9 -5
-2 -1 12 15 0 -10 -9 -5
-1 0 13 15 0 -9 -8 -4
-2 -1 12 15 -1 -11 -10 -7
-2 -1 12 14 -1 -11 -10 -6
-2 -1 12 13 -1 -11 -10 -6
-4 -5 12 13 -1 -11 -10 -6
-2 -3 12 12 -2 -12 -11 -6
-4 -3 11 12 -1 -11 -11 -5
-6 -6 10 11 -3 -12 -11 -5
-4 -5 10 12 -3 -12 -10 -6
-5 -4 9 11 -4 -13 -11 -6
-3 -4 11 12 -3 -12 -10 -5
-1 -4 12 13 -3 -13 -11 -7
-2 -5 12 11 -3 -13 -12 -7
-3 -4 12 11 -3 -13 -12 -7
-5 -7 11 10 -4 -15 -13 -7
-4 -7 10 9 -5 -15 -13 -8
-3 -6 11 9 -6 -15 -13 -8
-5 -7 9 10 -7 -15 -13 -8
-5 -7 8 10 -8 -16 -14 -8
-5 -6 9 11 -8 -15 -13 -7
-6 -8 10 11 -9 -15 -13 -6
-4 -7 10 11 -8 -16 -14 -8
-4 -7 10 9 -10 -16 -14 -8
-5 -7 10 8 -10 -16 -14 -8
-4 -7 8 9 -10 -16 -14 -8
-4 -6 9 8 -10 -16 -15 -8
-4 -6 9 7 -10 -15 -14 -7
-6 -7 9 9 -9 -15 -14 -7
-6 -7 7 8 -11 -16 -15 -8
-5 -7 7 7 -11 -17 -15 -9
-4 -7 7 7 -13 -17 -15 -9
-5 -8 10 7 -11 -17 -15 -8
-4 -7 9 6 -12 -17 -17 -7
-5 -8 9 7 -11 -16 -16 -6
-4 -7 9 6 -11 -16 -15 -5
-4 -6 10 7 -11 -16 -15 -4
-6 -7 8 6 -11 -17 -15 -6
-5 -8 8 6 -10 -16 -15 -9
-6 -7 7 6 -12 -17 -18 -13
-6 -8 6 6 -13 -18 -19 -16
-5 -8 7 6 -12 -16 -18 -13
-7 -8 6 6 -13 -17 -19 -11
-7 -8 7 5 -14 -18 -18 -8
-6 -6 6 4 -14 -18 -18 -8
-8 -9 6 5 -13 -17 -17 -8
-7 -7 7 5 -13 -18 -18 -9
-7 -8 5 2 -15 -19 -20 -10
-7 -8 4 4 -14 -18 -19 -10
-7 -7 5 4 -14 -18 -19 -10
-7 -9 6 3 -15 -19 -19 -11
-7 -9 7 4 -13 -18 -18 -9
-6 -8 5 4 -14 -19 -17 -10
-8 -10 5 1 -15 -19 -20 -11
-7 -8 5 1 -16 -19 -20 -10
-8 -10 5 2 -15 -19 -19 -10
-7 -8 5 2 -15 -19 -19 -10
-6 -7 7 3 -14 -18 -18 -8
-8 -9 5 3 -15 -19 -19 -10
-6 -7 5 3 -14 -18 -19 -9
-5 -4 6 4 -13 -18 -19 -9
-6 -3 7 4 -13 -17 -19 -10
-6 -2 11 7 -11 -14 -16 -7
-7 -1 11 8 -10 -14 -15 -7
-8 2 12 9 -9 -14 -15 -6
-6 4 14 10 -8 -12 -13 -5
-7 4 14 9 -8 -12 -15 -5
-6 6 14 9 -7 -12 -14 -5
-6 7 14 10 -7 -12 -14 -5
-7 8 14 12 -6 -11 -13 -5
-5 10 15 13 -6 -10 -12 -3
-5 10 16 14 -5 -10 -12 -4
-6 9 17 14 -6 -10 -13 -5
-6 12 16 11 -6 -11 -15 -6
-7 12 14 10 -5 -10 -13 -4
-7 13 13 10 -4 -8 -12 -2
-8 14 11 10 -4 -8 -11 -1
-8 15 9 7 -5 -8 -10 -1
-5 17 4 6 -6 -8 -10 -1
-4 17 1 4 -7 -8 -11 0
-5 17 1 2 -8 -9 -11 0
-5 18 -2 1 -8 -9 -11 0
-6 17 -1 1 -8 -8 -10 2
-3 20 0 -1 -8 -8 -10 1
-3 19 -3 -2 -9 -9 -10 0
-3 18 -6 -4 -11 -10 -12 0
-1 19 -5 -3 -10 -9 -10 2
-1 19 -6 -4 -9 -9 -10 2
-1 18 -7 -1 -8 -8 -9 3
0 17 -6 -1 -7 -7 -8 4
0 17 -5 -1 -7 -7 -8 3
1 15 -4 1 -6 -6 -7 3
0 13 -5 1 -5 -5 -8 3
0 11 -3 1 -6 -6 -9 2
0 11 -3 1 -7 -6 -9 2
-2 7 -5 -1 -8 -8 -11 0
-2 4 -5 -2 -10 -10 -13 -3
-3 -1 -4 -2 -10 -12 -15 -5
-9 -7 -6 -4 -13 -14 -17 -6
-11 -7 -7 -6 -15 -16 -19 -8
-11 -8 -5 -6 -16 -17 -20 -8
-11 -9 -4 -6 -18 -18 -21 -9
-12 -9 -5 -7 -18 -19 -22 -12
-13 -11 -3 -6 -18 -19 -22 -11
-14 -13 -2 -6 -16 -18 -23 -11
-14 -11 -3 -7 -17 -18 -23 -12
-15 -12 -5 -8 -19 -20 -25 -13
-14 -13 -4 -9 -19 -21 -25 -13
-16 -15 -6 -9 -20 -21 -25 -14
-17 -15 -8 -9 -20 -21 -26 -15
-17 -14 -6 -9 -19 -21 -25 -13
-18 -17 -6 -10 -19 -21 -25 -14
-18 -18 -7 -10 -20 -21 -26 -15
-17 -16 -6 -10 -19 -20 -25 -15
-17 -18 -6 -9 -19 -20 -25 -14
-16 -15 -7 -9 -18 -20 -24 -13
-16 -15 -8 -10 -19 -20 -25 -13
-16 -15 -8 -12 -19 -22 -26 -15
-17 -15 -8 -11 -19 -20 -25 -13
-18 -16 -8 -11 -19 -20 -25 -14
-17 -16 -6 -11 -20 -22 -25 -15
-19 -16 -4 -10 -21 -21 -25 -15
-20 -15 -3 -10 -22 -22 -27 -15
-20 -13 -2 -11 -22 -21 -25 -14
-21 -14 1 -8 -22 -21 -25 -13
-18 -15 3 -3 -21 -21 -25 -14
-13 -17 5 5 -16 -17 -22 -14
-8 -21 7 17 -1 -6 -15 -12
-1 -21 13 41 19 11 -5 -9
7 -18 18 59 43 33 9 -2
12 -20 24 73 66 57 23 3
16 -16 29 87 93 84 40 10
19 -8 27 80 112 113 61 23
25 5 19 54 127 145 87 41
31 22 2 8 132 177 117 61
36 43 -23 -47 135 208 145 84
39 63 -54 -102 131 237 172 106
42 82 -88 -155 129 267 198 123
42 94 -119 -204 126 291 217 138
39 103 -145 -250 107 298 221 143
29 103 -163 -285 77 284 211 140
21 87 -166 -286 63 263 186 121
15 59 -172 -277 47 222 145 93
10 36 -183 -266 25 166 100 64
5 19 -183 -252 -1 116 64 42
-8 3 -172 -240 -63 26 9 16
-20 -9 -161 -232 -129 -59 -37 -6
-24 -11 -149 -217 -159 -94 -56 -16
-24 -12 -137 -202 -159 -100 -62 -23
-26 -16 -125 -187 -149 -95 -64 -28
-27 -22 -113 -171 -139 -91 -65 -32
-25 -28 -102 -154 -129 -89 -67 -35
-20 -33 -88 -128 -115 -84 -65 -35
-17 -37 -71 -99 -96 -75 -61 -35
-17 -37 -54 -73 -81 -65 -55 -32
-16 -35 -41 -55 -68 -58 -51 -29
-15 -34 -31 -45 -59 -52 -47 -27
-15 -33 -24 -34 -53 -48 -44 -26
-15 -30 -18 -26 -44 -43 -41 -23
-15 -29 -13 -20 -39 -40 -39 -22
-15 -27 -9 -15 -35 -37 -37 -20
-16 -24 -7 -11 -32 -35 -35 -19
-15 -22 -7 -10 -30 -34 -34 -19
-14 -21 -4 -6 -30 -34 -33 -18
-15 -21 -3 -5 -30 -34 -33 -19
-15 -22 -1 -3 -29 -33 -33 -18
-15 -22 -1 -2 -29 -33 -33 -18
-16 -24 0 -2 -27 -33 -32 -17
-15 -23 0 -1 -27 -33 -32 -18
-15 -23 0 -2 -25 -33 -32 -18
-15 -21 0 -1 -24 -32 -31 -17
-13 -20 1 1 -22 -31 -30 -16
-14 -21 1 0 -23 -31 -30 -16
-13 -19 2 2 -23 -31 -30 -16
-13 -18 4 4 -22 -28 -28 -15
-14 -20 4 5 -23 -30 -30 -16
-13 -20 4 4 -24 -30 -30 -17
-15 -22 5 6 -22 -29 -29 -16
-15 -22 4 4 -21 -30 -29 -16
-14 -21 4 4 -20 -29 -29 -16
-15 -21 3 4 -20 -29 -29 -15
-15 -20 3 5 -18 -28 -26 -15
-13 -19 4 6 -20 -28 -26 -15
-12 -20 4 7 -19 -27 -26 -15
-12 -19 7 8 -19 -26 -24 -14
-12 -19 5 7 -20 -29 -26 -16
-12 -21 6 8 -20 -28 -26 -15
-11 -20 5 7 -19 -28 -26 -16
-13 -22 6 8 -17 -27 -26 -14
-13 -22 6 8 -16 -27 -25 -14
-13 -22 6 8 -16 -25 -23 -13
-13 -22 6 8 -15 -25 -24 -14
-12 -19 5 8 -16 -25 -24 -14
-12 -20 6 8 -16 -25 -24 -15
-11 -21 7 10 -15 -24 -22 -13
-10 -18 7 10 -14 -24 -23 -14
-11 -19 9 11 -14 -23 -22 -13
-10 -18 8 11 -13 -24 -23 -13
-9 -18 9 12 -11 -24 -22 -12
-9 -18 7 10 -12 -23 -22 -14
-9 -17 8 10 -11 -22 -21 -13
-10 -19 8 11 -10 -22 -21 -12
-9 -19 7 10 -11 -22 -21 -13
-9 -17 8 13 -9 -20 -19 -11
-10 -18 9 12 -9 -20 -18 -11
-7 -15 9 13 -9 -21 -19 -12
-9 -17 11 15 -9 -19 -18 -10
-10 -18 10 15 -9 -19 -18 -11
-9 -15 11 16 -6 -18 -17 -9
-8 -15 9 14 -7 -19 -18 -11
-8 -14 8 15 -6 -17 -16 -9
-9 -15 9 16 -3 -15 -14 -8
-10 -17 8 17 -4 -15 -14 -8
-9 -16 9 19 -2 -14 -13 -8
-9 -16 10 20 -2 -13 -13 -7
-10 -16 10 21 0 -12 -13 -7
-9 -15 11 22 -1 -11 -11 -6
-8 -15 11 23 1 -10 -11 -6
-5 -14 11 23 3 -9 -10 -5
-4 -12 11 24 4 -8 -9 -5
-6 -12 10 24 5 -5 -7 -4
-4 -11 10 26 9 -4 -6 -3
-5 -10 10 28 10 -2 -5 -2
-4 -11 11 31 12 1 -3 0
-2 -10 12 33 12 3 -1 1
-3 -9 12 34 12 4 -1 1
-2 -10 11 35 14 6 2 2
-2 -7 12 37 17 8 4 4
0 -8 11 38 20 10 5 5
2 -5 11 40 23 14 8 6
2 -3 10 40 25 17 10 9
1 -4 10 42 29 20 13 10
4 0 9 42 29 22 15 11
3 2 10 46 31 26 18 13
3 1 11 47 33 29 20 15
7 3 10 47 35 31 22 17
7 4 10 48 38 34 24 19
8 6 10 49 40 36 26 20
8 6 9 50 43 39 30 22
9 9 8 51 46 42 31 24
11 10 8 52 47 47 35 26
10 10 7 51 50 49 36 28
11 13 7 52 50 53 39 30
12 16 6 53 51 54 40 30
11 15 8 54 51 56 42 32
13 15 7 53 51 57 43 33
11 13 7 54 52 58 44 34
12 15 7 52 52 58 44 34
13 17 7 53 53 59 46 35
13 18 5 51 52 58 45 34
13 18 5 50 52 59 47 36
14 19 6 51 52 61 48 38
13 19 5 49 51 61 48 38
14 22 6 50 50 60 49 38
14 22 7 50 49 60 49 39
14 22 7 49 49 59 48 37
14 20 6 49 48 58 47 38
11 19 5 48 46 56 46 36
12 19 6 47 46 54 45 36
12 19 6 46 45 54 44 35
11 16 7 46 44 53 43 34
11 17 7 46 42 51 41 33
8 15 9 47 41 51 42 33
10 16 9 46 39 48 39 30
10 16 11 46 37 46 37 30
8 14 11 46 34 42 33 27
7 13 13 47 33 39 32 26
8 13 14 47 32 37 30 25
6 11 14 45 30 35 27 22
6 10 13 43 29 32 24 20
4 7 14 42 26 30 23 20
2 6 13 41 25 28 22 17
3 5 12 40 23 25 19 16
2 3 12 38 20 21 15 13
3 5 13 38 18 20 15 12
0 4 15 36 17 17 12 11
-1 3 15 34 15 14 10 9
0 2 15 33 14 12 8 8
-2 0 14 30 11 10 6 6
-3 -1 13 28 10 8 5 5
-3 -2 12 25 7 7 3 4
-5 -4 11 23 7 5 2 2
-4 -3 10 21 5 4 1 1
-5 -5 12 20 3 2 0 0
-6 -7 10 19 2 1 -1 -1
-7 -8 12 19 2 0 -2 0
-7 -8 10 15 0 -2 -3 -1
-5 -9 9 12 -2 -4 -4 -3
-4 -9 8 11 -3 -4 -5 -3
-6 -11 6 9 -4 -6 -6 -4
-7 -10 5 7 -6 -6 -6 -3
-7 -11 5 5 -7 -7 -6 -3
-8 -12 4 3 -8 -6 -8 -4
-7 -10 4 1 -10 -7 -9 -4
-8 -11 4 1 -11 -8 -9 -5
-8 -13 5 2 -10 -9 -9 -5
-6 -11 4 0 -12 -10 -10 -6
-7 -13 3 -1 -13 -11 -11 -7
-6 -13 2 -3 -14 -12 -11 -7
-7 -13 2 -4 -14 -13 -12 -7
-8 -14 0 -5 -16 -13 -12 -7
-5 -12 0 -5 -17 -14 -12 -7
-6 -12 0 -5 -17 -14 -12 -7
-7 -14 2 -4 -18 -14 -12 -8
-7 -14 1 -4 -19 -16 -13 -8
-8 -17 1 -5 -19 -17 -14 -9
-8 -16 3 -5 -19 -17 -13 -8
-8 -15 2 -5 -21 -19 -15 -9
-7 -16 1 -6 -21 -20 -15 -9
-7 -14 1 -5 -19 -20 -15 -9
-8 -15 1 -5 -20 -20 -15 -9
-6 -14 1 -5 -21 -20 -15 -9
-7 -12 2 -4 -20 -19 -15 -9
-8 -14 3 -2 -21 -19 -15 -9
-8 -12 2 -2 -21 -20 -16 -9
-9 -11 1 -2 -21 -20 -16 -10
-9 -14 2 -1 -20 -20 -15 -10
-9 -13 2 0 -20 -20 -15 -9
-10 -14 1 -1 -19 -20 -15 -9
-11 -15 3 0 -18 -17 -14 -8
-8 -11 2 0 -17 -16 -13 -8
-8 -11 3 0 -17 -15 -12 -8
-7 -10 3 1 -16 -14 -12 -7
-8 -10 5 4 -16 -14 -11 -7
-8 -10 5 4 -16 -12 -11 -6
-8 -10 6 7 -14 -12 -10 -6
-9 -10 6 9 -13 -11 -10 -5
-9 -8 8 13 -11 -9 -9 -5
-8 -6 10 15 -7 -7 -6 -4
-9 -5 11 15 -6 -6 -6 -2
-9 -1 12 19 -2 -2 -3 0
-8 2 14 26 2 1 0 2
-6 4 17 32 6 5 2 3
-6 8 21 40 11 9 5 6
-5 9 23 46 13 11 7 6
-4 11 26 54 16 13 10 8
-1 14 29 61 19 16 10 9
-3 16 32 67 22 17 11 9
-2 18 35 71 25 20 13 10
-3 17 36 74 29 23 15 11
-3 20 36 79 30 24 15 12
-1 23 37 82 33 25 15 13
-2 24 41 90 38 28 17 14
-2 27 48 99 43 31 20 15
-3 30 51 103 47 36 23 18
-3 34 52 104 52 38 25 20
0 38 51 100 58 43 29 25
1 43 49 99 65 49 33 26
4 47 51 101 75 57 39 31
5 52 54 99 81 63 43 34
6 56 55 97 88 67 47 36
8 66 54 93 97 76 54 42
9 78 49 79 105 86 63 50
11 88 42 72 115 99 73 59
15 99 25 53 124 113 85 69
17 110 -1 5 118 119 93 76
18 119 -23 -51 105 120 98 83
17 129 -48 -112 88 118 101 89
14 138 -77 -189 63 116 105 95
13 150 -117 -282 33 115 111 103
15 159 -158 -362 14 121 121 112
18 171 -194 -423 2 135 135 124
22 182 -226 -476 -9 149 148 136
27 190 -255 -524 -27 158 159 145
32 190 -279 -559 -48 165 168 152
34 187 -297 -583 -70 168 173 156
37 180 -310 -599 -94 169 177 160
43 179 -320 -608 -113 170 180 163
44 173 -328 -615 -140 165 183 166
45 168 -338 -624 -180 156 183 170
45 167 -343 -634 -229 139 182 172
42 163 -346 -636 -281 119 181 176
40 156 -345 -631 -329 99 177 178
38 153 -342 -624 -371 78 173 179
33 149 -335 -613 -402 61 170 180
29 148 -323 -595 -421 41 166 181
24 147 -311 -573 -433 21 160 181
24 146 -304 -554 -441 1 154 182
25 145 -299 -535 -444 -14 154 187
22 142 -291 -515 -438 -25 155 191
22 146 -284 -492 -425 -28 159 195
23 150 -274 -465 -405 -22 167 203
24 151 -266 -444 -387 -18 174 208
22 152 -254 -420 -368 -14 178 211
18 151 -239 -392 -349 -12 177 210
15 146 -222 -362 -323 -5 180 210
15 143 -207 -335 -294 11 183 209
14 133 -193 -309 -266 25 180 200
12 121 -179 -284 -240 34 174 191
11 110 -163 -258 -215 40 165 178
9 95 -144 -226 -187 47 154 163
9 82 -123 -190 -157 55 146 150
8 69 -107 -161 -138 54 133 131
5 55 -89 -134 -120 49 115 112
3 41 -73 -107 -105 39 96 93
0 27 -59 -82 -92 27 75 71
-1 14 -44 -61 -81 13 53 52
-2 2 -31 -43 -72 -1 29 32
-5 -9 -22 -29 -65 -11 11 16
-6 -16 -14 -17 -59 -22 -6 3
-9 -24 -9 -8 -56 -30 -20 -10
-9 -31 -2 2 -51 -33 -27 -18
-11 -36 3 10 -48 -36 -34 -28
-11 -43 5 13 -49 -41 -43 -35
-11 -48 9 18 -47 -41 -45 -38
-12 -49 12 21 -47 -44 -49 -41
-13 -53 16 23 -45 -46 -50 -42
-14 -54 21 29 -40 -45 -51 -43
-15 -56 22 31 -38 -47 -53 -46
-15 -57 23 32 -37 -47 -54 -47
-12 -54 23 33 -34 -47 -53 -47
-12 -53 24 37 -31 -45 -51 -45
-7 -47 27 43 -28 -42 -49 -43
-6 -44 31 49 -24 -40 -48 -42
-5 -44 33 53 -22 -39 -47 -43
-3 -40 34 56 -20 -38 -46 -42
-2 -39 34 58 -18 -38 -46 -43
-1 -38 34 60 -15 -38 -46 -43
-1 -38 35 64 -11 -37 -45 -42
-3 -41 36 65 -9 -38 -46 -44
-3 -41 37 67 -8 -38 -47 -45
-6 -43 40 72 -7 -39 -49 -47
-9 -46 43 75 -7 -41 -49 -49
-8 -46 44 79 -6 -41 -50 -50
-9 -47 45 81 -6 -42 -51 -49
-9 -48 46 83 -7 -44 -52 -51
-9 -51 48 87 -5 -45 -53 -52
-10 -54 48 88 -4 -48 -56 -54
-10 -56 49 92 -2 -48 -57 -54
-10 -59 49 93 -1 -48 -58 -56
-10 -61 50 97 2 -50 -59 -57
-9 -62 51 101 2 -50 -60 -58
-11 -66 53 105 3 -50 -61 -59
-12 -68 56 112 4 -52 -63 -61
-10 -69 58 117 5 -53 -64 -62
-11 -72 60 122 6 -54 -65 -63
-9 -72 64 128 9 -53 -66 -65
-11 -74 66 133 12 -55 -67 -67
-11 -75 68 138 14 -56 -71 -68
-10 -75 70 144 17 -56 -72 -70
-10 -78 73 150 21 -57 -74 -72
-10 -80 76 157 23 -57 -77 -73
-11 -83 79 165 25 -59 -79 -74
-12 -86 80 171 25 -61 -82 -78
-10 -88 85 179 27 -62 -83 -79
-10 -89 88 187 30 -63 -85 -81
-10 -89 92 195 34 -64 -87 -83
-9 -91 96 204 39 -65 -89 -85
-9 -92 99 212 43 -68 -93 -90
-8 -94 105 219 50 -66 -93 -90
-7 -95 108 228 55 -66 -94 -92
-9 -99 111 237 59 -67 -97 -95
-9 -101 115 245 62 -68 -100 -98
-12 -105 121 255 67 -69 -100 -100
-12 -107 125 262 71 -70 -103 -102
-12 -108 131 273 78 -69 -104 -104
-12 -110 135 280 83 -70 -107 -107
-11 -113 139 288 91 -69 -108 -109
-11 -113 143 296 99 -69 -110 -111
-10 -114 148 303 106 -68 -110 -112
-8 -114 151 310 114 -66 -112 -115
-9 -116 154 318 121 -65 -114 -117
-8 -118 158 326 128 -64 -116 -118
-9 -120 161 333 133 -62 -118 -122
-10 -125 164 338 139 -60 -119 -124
-9 -124 167 344 147 -58 -120 -124
-8 -124 170 348 155 -56 -121 -125
-10 -127 174 353 163 -53 -120 -127
-9 -125 176 357 172 -49 -121 -128
-8 -123 178 360 179 -45 -119 -127
-7 -122 179 362 188 -42 -118 -127
-6 -121 181 365 195 -35 -116 -127
-5 -124 180 364 199 -32 -116 -128
-4 -123 181 366 205 -27 -114 -128
-2 -121 180 365 211 -23 -112 -127
-2 -119 178 362 216 -19 -111 -127
0 -117 178 360 222 -14 -108 -125
-2 -117 176 357 227 -8 -106 -124
-1 -115 173 353 233 -2 -102 -121
1 -112 173 347 237 4 -97 -119
2 -111 169 342 240 9 -95 -117
3 -107 166 337 243 16 -91 -114
4 -103 163 329 244 21 -86 -111
5 -102 157 322 244 25 -82 -107
7 -97 154 315 244 30 -77 -105
6 -94 149 306 243 36 -73 -102
7 -91 145 298 243 40 -68 -98
7 -88 140 288 241 45 -64 -94
5 -84 135 276 239 50 -59 -89
7 -79 129 266 237 54 -53 -85
8 -76 122 255 233 58 -48 -81
7 -73 115 244 229 63 -44 -77
9 -68 109 233 223 66 -39 -72
9 -65 105 222 217 69 -33 -67
10 -60 99 212 209 70 -29 -63
12 -56 94 201 202 73 -25 -58
10 -53 87 187 194 74 -22 -55
10 -49 83 175 186 76 -18 -49
9 -47 76 162 178 77 -15 -47
8 -43 71 151 170 78 -11 -43
10 -39 65 140 161 77 -9 -39
8 -37 59 129 151 76 -5 -36
7 -34 55 120 142 77 -1 -31
8 -31 51 111 133 76 2 -28
7 -29 46 101 123 74 2 -26
7 -25 41 92 113 70 4 -23
6 -23 38 82 104 68 6 -21
6 -20 35 74 95 64 6 -19
6 -17 32 66 88 63 8 -16
5 -15 28 59 80 58 8 -15
5 -14 24 53 71 55 8 -14
4 -13 21 47 62 52 8 -12
2 -13 19 42 54 49 9 -11
3 -12 16 36 47 44 8 -11
2 -11 14 33 40 41 8 -10
1 -11 15 32 36 39 8 -7
2 -9 14 27 30 35 7 -8
0 -10 13 24 25 31 6 -8
-1 -10 12 23 23 29 6 -6
-1 -7 12 21 21 27 5 -6
-2 -9 11 19 18 25 4 -7
-3 -9 9 18 15 23 2 -7
-4 -10 9 17 14 21 2 -6
-4 -10 10 17 11 19 0 -7
-4 -10 9 18 8 18 -1 -8
-5 -11 9 18 8 17 -1 -8
-5 -11 10 18 8 16 -2 -7
-3 -9 9 17 7 13 -3 -9
-4 -9 9 17 8 13 -2 -8
-4 -9 10 17 10 15 -2 -7
-4 -9 10 17 9 15 -2 -7
-4 -10 8 17 8 14 -3 -9
-4 -9 7 17 9 14 -4 -9
-5 -12 8 16 8 13 -5 -10
-4 -11 8 17 7 13 -5 -10
-4 -12 8 17 8 13 -4 -9
-7 -14 9 17 8 13 -4 -10
-4 -11 9 17 8 13 -4 -10
-4 -10 8 17 9 13 -3 -9
-5 -11 10 16 11 14 -3 -9
-3 -8 9 16 10 14 -4 -10
-4 -9 8 16 10 14 -4 -9
-3 -8 8 16 11 14 -3 -8
-2 -9 9 16 11 16 -3 -8
-3 -9 8 16 9 15 -4 -9
-4 -10 7 16 10 15 -3 -8
-4 -11 7 15 10 15 -4 -9
-5 -10 6 15 9 14 -4 -9
-4 -9 8 16 12 16 -2 -7
-3 -9 6 14 11 17 -3 -9
-3 -7 7 14 13 18 -1 -7
-3 -8 6 14 11 18 -1 -7
-4 -9 6 13 11 19 -1 -7
-3 -7 7 14 10 19 -1 -6
-3 -6 5 14 8 18 -2 -7
-3 -8 5 14 9 18 -1 -6
-3 -8 5 13 8 18 -2 -7
-5 -8 6 13 9 19 -2 -7
-4 -7 4 12 8 19 -1 -6
-3 -9 4 10 9 19 0 -6
-5 -9 4 10 8 19 0 -6
-4 -8 3 10 8 20 2 -6
-3 -8 4 10 9 21 2 -3
-3 -7 5 11 8 21 2 -4
-1 -6 4 10 6 21 3 -3
-2 -7 3 8 5 20 2 -4
-2 -6 3 8 5 20 1 -4
-3 -6 1 7 4 20 0 -4
-2 -6 2 7 4 21 2 -3
-2 -4 2 5 6 22 2 -3
-3 -6 0 5 5 21 2 -3
-4 -7 0 4 4 22 3 -3
-2 -5 0 4 5 23 3 -2
-4 -6 0 4 3 22 3 -3
-3 -4 -1 4 2 22 3 -2
-4 -5 -1 4 1 22 3 -3
-4 -6 0 4 2 23 3 -2
-4 -4 -1 3 2 15 2 -2
-3 -4 0 2 3 4 3 -1
-3 -5 -1 0 3 -2 3 -2
-3 -4 -2 0 3 -5 4 -2
-4 -4 -3 -1 2 -7 3 -3
-4 -5 -3 -1 2 -8 3 -2
-3 -5 -5 -2 1 -9 2 -2
-2 -5 -4 0 0 -9 3 -2
-1 -4 -4 -1 0 -9 3 -1
-4 -5 -4 -2 0 -10 2 -2
-3 -4 -4 -3 -1 -11 3 -2
-2 -3 -3 -3 0 -11 3 -2
-4 -3 -3 -4 1 -11 3 -1
-3 -3 -5 -4 0 -12 3 -2
-5 -4 -5 -4 -1 -11 3 -2
-5 -6 -5 -5 -2 -11 4 -1
-4 -5 -5 -5 -2 -12 3 -2
-5 -5 -5 -4 -3 -12 3 -1
-5 -6 -7 -5 -4 -13 2 -2
-4 -4 -6 -6 -4 -14 2 -2
-5 -5 -5 -5 -4 -14 2 -2
-3 -2 -6 -7 -4 -13 2 -2
-4 -3 -6 -7 -2 -12 2 -2
-5 -4 -7 -9 -4 -13 1 -3
-4 -4 -8 -9 -4 -14 2 -3
-5 -5 -8 -9 -5 -14 2 -3
-5 -5 -8 -9 -5 -15 1 -1
-4 -3 -9 -9 -7 -16 1 -3
-6 -5 -8 -10 -8 -16 0 -4
-6 -4 -7 -10 -7 -15 0 -3
-6 -4 -7 -9 -7 -15 1 -3
-5 -1 -9 -12 -7 -16 0 -4
-4 -2 -9 -12 -6 -15 0 -3
-6 -2 -9 -11 -6 -16 0 -2
-5 -2 -9 -10 -6 -15 1 -2
-3 0 -9 -12 -7 -15 1 -2
-5 -3 -10 -11 -7 -16 1 -2
-5 -3 -11 -12 -10 -17 0 -3
-6 -4 -10 -11 -9 -17 0 -3
-6 -4 -10 -12 -9 -18 0 -4
-5 -3 -10 -13 -8 -18 0 -3
-7 -3 -9 -13 -8 -17 1 -2
-5 -3 -10 -13 -6 -16 1 -2
-5 -2 -11 -14 -6 -16 1 -3
-6 -2 -12 -14 -7 -16 0 -4
-5 -1 -11 -14 -8 -16 1 -4
-5 -2 -11 -14 -8 -16 1 -4
-4 -1 -11 -14 -9 -18 -1 -4
-4 -2 -12 -15 -10 -18 -1 -4
-5 -4 -11 -15 -9 -18 -1 -4
-4 -3 -11 -15 -8 -18 -1 -3
-5 -3 -11 -15 -8 -18 -1 -4
-7 -5 -12 -16 -9 -17 -1 -3
-6 -2 -12 -15 -7 -16 0 -3
-6 -2 -12 -14 -8 -16 1 -3
-6 -3 -12 -15 -8 -15 1 -3
-5 -2 -11 -15 -8 -16 0 -3
-5 -3 -12 -15 -10 -17 -1 -4
-5 -4 -12 -14 -9 -17 0 -5
-6 -4 -11 -14 -8 -17 0 -5
-7 -4 -12 -15 -8 -17 -1 -5
-6 -3 -11 -15 -7 -16 -1 -4
-7 -4 -12 -16 -8 -16 -1 -4
-6 -4 -12 -17 -7 -16 -1 -5
-4 -2 -13 -16 -7 -16 -1 -5
-4 -3 -13 -15 -7 -15 1 -4
-3 -3 -13 -15 -7 -16 0 -3
-4 -3 -13 -14 -8 -16 0 -4
-6 -4 -13 -14 -8 -15 0 -3
-4 -3 -12 -15 -7 -15 0 -3
-4 -3 -12 -15 -6 -15 -1 -2
-5 -2 -13 -15 -6 -14 0 -3
-6 -3 -13 -16 -7 -15 0 -3
-6 -4 -13 -16 -5 -15 0 -3
-6 -3 -15 -17 -6 -15 -1 -3
-6 -5 -14 -16 -7 -14 0 -3
-5 -4 -15 -16 -7 -15 -1 -3
-4 -2 -15 -15 -7 -15 0 -3
-5 -3 -15 -15 -7 -15 0 -3
-5 -2 -13 -15 -6 -14 0 -2
-4 -1 -14 -16 -5 -14 0 -1
-5 -2 -14 -16 -5 -13 0 -2
-5 -2 -14 -17 -5 -13 1 -2
-5 -2 -14 -17 -5 -15 0 -2
-6 -3 -15 -17 -6 -15 0 -3
-5 -2 -15 -16 -6 -13 2 -2
-6 -3 -15 -16 -6 -15 1 -3
-6 -3 -17 -17 -7 -15 1 -3
-6 -2 -15 -15 -7 -14 2 -2
-6 -2 -15 -16 -6 -13 1 -2
-4 1 -14 -16 -5 -13 1 -1
-5 1 -14 -17 -5 -12 2 0
-7 -2 -15 -19 -6 -13 1 -1
-6 -2 -15 -20 -5 -14 1 -2
-7 -2 -15 -20 -6 -14 1 -2
-6 -1 -15 -18 -5 -12 3 1
-5 -2 -14 -18 -5 -13 2 0
-7 -2 -16 -19 -7 -14 1 -3
-7 -3 -15 -17 -5 -13 3 -1
-7 -2 -16 -19 -5 -14 1 -2
-5 -1 -15 -19 -4 -14 1 -1
-4 1 -16 -19 -5 -12 2 -2
-5 -2 -14 -19 -4 -11 3 0
-4 0 -15 -19 -4 -11 2 -1
-4 1 -14 -18 -4 -11 3 -1
-5 0 -15 -20 -5 -12 2 -1
-5 0 -14 -19 -5 -13 1 0
-6 -1 -14 -18 -5 -12 2 -1
-6 -2 -16 -19 -4 -12 3 -1
-6 -1 -15 -18 -4 -12 3 -1
-7 -1 -15 -18 -5 -13 2 -1
-6 -1 -15 -19 -2 -11 4 0
-6 0 -17 -20 -3 -12 3 0
-6 1 -15 -20 -3 -12 3 1
-3 2 -15 -19 -2 -11 4 2
-4 2 -16 -20 -3 -11 4 2
-5 0 -15 -19 -3 -12 3 1
-5 1 -16 -20 -3 -12 3 0
-5 -1 -18 -21 -4 -14 2 -1
-4 0 -16 -20 -3 -12 3 0
-5 1 -16 -19 -2 -12 3 2
-6 -2 -17 -20 -2 -11 4 1
-5 0 -17 -21 -2 -12 3 1
-5 1 -16 -22 -2 -11 4 1
-4 1 -18 -22 -2 -11 4 1
-3 2 -17 -21 -2 -10 5 2
-4 1 -17 -21 -2 -12 3 0
-3 2 -16 -19 -1 -11 5 2
-3 1 -18 -20 -2 -12 4 1
-5 -1 -18 -21 -2 -12 4 0
-5 1 -16 -19 0 -11 5 3
-5 1 -16 -20 0 -10 5 2
-6 1 -17 -21 -1 -11 4 1
-4 1 -17 -22 -1 -11 4 1
-6 0 -18 -21 -1 -11 4 1
-4 1 -17 -20 0 -10 4 1
-4 1 -17 -22 0 -11 3 1
-5 1 -17 -21 0 -11 4 2
-3 1 -16 -19 1 -10 4 3
-3 1 -17 -19 1 -10 3 3
-3 1 -17 -20 1 -11 3 3
-3 2 -17 -20 1 -11 4 3
-5 0 -18 -21 0 -12 3 3
-3 2 -18 -21 1 -11 4 3
-3 2 -18 -22 1 -11 4 3
-3 3 -18 -22 1 -11 4 3
-3 4 -18 -21 1 -11 4 3
-4 1 -18 -23 1 -11 4 3
-3 1 -17 -21 1 -11 5 4
-2 2 -16 -21 2 -11 4 4
-5 2 -17 -22 2 -12 4 4
-4 3 -17 -22 2 -11 6 5
-5 1 -17 -22 3 -10 6 5
-4 2 -18 -23 2 -12 5 3
-4 2 -17 -23 2 -11 6 4
-6 1 -18 -23 1 -11 6 4
-5 2 -19 -24 1 -13 5 4
-4 1 -18 -23 1 -12 5 3
-5 1 -17 -22 2 -11 5 4
-3 2 -16 -22 2 -10 5 4
-3 3 -17 -24 2 -12 3 3
-2 3 -18 -24 3 -12 4 3
-4 3 -17 -23 3 -11 4 3
-6 1 -18 -23 3 -11 4 3
-2 3 -18 -23 4 -11 5 4
-2 4 -18 -23 4 -11 5 5
-4 2 -18 -24 3 -12 5 4
-4 2 -18 -23 4 -11 5 3
-5 0 -18 -24 4 -11 5 4
-4 1 -19 -23 3 -11 5 4
-3 3 -18 -25 3 -12 4 3
-3 1 -19 -25 4 -12 3 4
-4 3 -18 -23 5 -11 5 6
-3 4 -17 -24 5 -10 5 7
-3 2 -16 -24 5 -11 6 7
-4 3 -17 -23 4 -10 6 7
-5 1 -16 -24 4 -11 5 8
-6 -1 -16 -24 5 -10 5 7
-4 -1 -17 -24 4 -12 5 7
-4 -1 -17 -24 4 -12 5 7
-3 1 -17 -23 4 -11 5 9
-3 1 -18 -25 5 -12 5 8
-5 1 -18 -26 6 -11 6 8
-3 3 -17 -26 6 -11 5 8
-3 4 -17 -25 6 -11 5 8
-2 3 -18 -24 5 -11 6 8
-3 2 -17 -24 5 -11 5 8
-5 0 -18 -26 5 -13 4 6
-4 -1 -18 -25 5 -12 5 8
-3 0 -19 -26 4 -14 4 7
-4 0 -19 -26 5 -14 4 7
-3 0 -19 -27 5 -14 3 7
-3 0 -19 -27 6 -12 4 8
-2 1 -18 -28 7 -12 5 9
-1 2 -18 -27 7 -11 6 9
-4 -1 -18 -26 7 -10 6 9
-4 1 -19 -25 6 -12 5 8
-4 0 -16 -25 7 -11 5 8
-3 -1 -19 -26 7 -12 5 8
-2 1 -17 -25 7 -12 5 8
-3 0 -19 -27 6 -14 3 8
-3 1 -19 -27 7 -12 4 8
-3 1 -18 -27 8 -11 5 9
-4 2 -19 -27 7 -12 4 8
-3 4 -19 -27 8 -11 5 9
-3 2 -18 -26 8 -10 7 9
-3 2 -18 -27 8 -11 5 8
-2 4 -17 -26 7 -11 4 8
-2 3 -19 -26 7 -11 4 8
-2 2 -18 -27 7 -11 3 8
-1 2 -19 -27 7 -12 3 8
-3 1 -20 -28 7 -12 4 8
-3 2 -18 -26 9 -10 5 9
-4 2 -19 -27 8 -11 4 8
-4 1 -20 -29 8 -13 3 8
-2 2 -18 -28 8 -11 5 8
-2 1 -17 -27 8 -11 5 9
-2 2 -19 -28 8 -12 4 8
-1 2 -18 -27 8 -11 5 8
-3 1 -19 -28 8 -12 4 8
-1 3 -19 -28 8 -13 3 9
-3 2 -19 -28 8 -12 3 8
-3 1 -19 -28 8 -13 3 9
-2 3 -18 -28 9 -12 3 9
-3 2 -18 -28 9 -11 4 10
-3 0 -19 -29 8 -12 4 9
-3 0 -19 -29 9 -11 4 10
-3 0 -19 -29 9 -11 4 10
-2 2 -18 -29 9 -12 4 10
-2 2 -18 -29 9 -12 4 10
-2 2 -18 -28 10 -13 3 9
-2 3 -17 -28 10 -11 4 11
-3 1 -17 -27 11 -10 4 11
-1 3 -15 -26 12 -9 5 12
-2 4 -15 -25 13 -9 6 12
-3 4 -14 -24 14 -6 7 14
-1 7 -12 -23 16 -6 8 14
-1 11 -10 -20 17 -4 9 16
-1 13 -8 -19 18 -3 10 17
0 15 -8 -19 18 -4 10 17
0 14 -9 -20 18 -5 10 18
0 15 -8 -20 18 -4 9 18
1 17 -7 -19 19 -4 9 17
0 16 -6 -18 20 -4 10 17
0 17 -4 -15 22 -1 11 18
-1 17 -5 -15 22 -2 11 18
-2 17 -6 -17 21 -2 10 18
0 19 -6 -17 23 1 12 19
2 23 -8 -18 23 1 13 20
3 27 -9 -19 23 1 14 22
3 28 -9 -19 23 0 13 22
2 27 -12 -20 23 1 14 23
3 30 -16 -24 21 0 13 22
4 30 -19 -26 21 0 13 22
4 29 -22 -28 20 -1 13 22
5 30 -22 -28 21 1 15 24
5 30 -21 -27 21 1 15 25
7 31 -21 -28 21 1 15 25
7 30 -23 -29 21 1 14 26
6 27 -24 -29 21 0 13 25
9 28 -24 -29 21 0 14 26
10 27 -24 -29 22 2 16 26
11 28 -27 -30 21 1 16 27
12 29 -26 -28 22 3 17 28
12 27 -26 -28 23 2 16 26
13 27 -27 -26 24 3 17 26
13 22 -25 -26 23 2 15 26
12 18 -25 -29 22 1 14 23
11 15 -24 -29 22 1 13 23
7 11 -25 -31 19 -2 10 20
5 7 -23 -31 18 -5 8 18
4 7 -23 -31 17 -5 7 17
2 6 -23 -33 16 -6 7 15
2 6 -22 -33 16 -6 5 15
0 5 -23 -34 15 -7 3 14
-1 3 -22 -34 15 -7 3 13
1 4 -22 -34 15 -7 4 13
1 3 -23 -35 13 -9 3 11
0 1 -23 -36 13 -10 2 11
0 1 -25 -37 12 -11 1 10
-1 0 -24 -37 12 -12 0 10
0 2 -24 -36 13 -11 0 10
-1 0 -24 -36 13 -10 -1 10
0 1 -25 -38 12 -12 -2 9
1 2 -25 -38 12 -11 -1 9
0 0 -25 -39 10 -11 -2 9
1 1 -25 -38 11 -10 -1 9
1 1 -24 -38 11 -10 -2 10
-1 0 -26 -40 11 -11 -2 9
-1 0 -26 -40 11 -11 -2 9
-3 -1 -23 -38 11 -10 -2 10
-3 0 -22 -37 10 -11 -2 9
-2 2 -21 -36 12 -10 -1 9
-2 0 -20 -35 12 -10 -1 9
-2 -1 -17 -31 13 -9 -1 8
2 -4 -16 -25 16 -7 0 8
7 -8 -13 -16 25 2 5 10
15 -9 -11 -2 40 16 14 13
20 -8 -6 19 61 35 27 19
26 -5 -1 32 81 56 40 24
29 -4 3 41 104 80 56 31
30 0 5 46 128 108 75 40
38 14 2 36 149 141 101 59
45 29 -4 13 163 175 130 80
49 47 -18 -28 166 205 158 101
52 67 -36 -70 164 234 187 124
55 88 -64 -113 163 264 215 143
59 103 -95 -162 159 289 237 160
57 113 -123 -213 144 299 247 170
46 117 -149 -263 115 296 247 172
40 114 -162 -290 86 276 230 162
34 94 -157 -284 70 242 194 137
26 69 -157 -273 49 188 144 103
21 52 -171 -269 23 137 101 77
9 37 -176 -263 -22 68 54 52
-4 20 -168 -254 -79 -15 3 26
-9 11 -160 -243 -112 -59 -24 11
-12 8 -152 -228 -121 -75 -35 3
-10 8 -144 -215 -115 -74 -38 -3
-11 3 -135 -203 -105 -70 -39 -8
-11 -3 -126 -191 -98 -69 -42 -12
-9 -10 -114 -175 -93 -69 -43 -14
-8 -17 -104 -156 -84 -69 -44 -17
-4 -21 -91 -129 -70 -61 -40 -16
-2 -20 -73 -102 -53 -51 -34 -13
-2 -19 -59 -82 -41 -45 -29 -11
0 -18 -49 -68 -32 -39 -26 -9
1 -17 -42 -59 -24 -35 -24 -9
-1 -17 -35 -52 -17 -31 -21 -7
-1 -15 -29 -44 -10 -28 -18 -4
0 -13 -25 -40 -5 -25 -17 -3
1 -12 -21 -34 -1 -22 -14 -1
1 -9 -20 -30 2 -19 -12 0
0 -9 -17 -27 1 -18 -12 1
0 -9 -15 -25 2 -19 -11 0
0 -9 -14 -23 1 -19 -12 1
0 -9 -14 -22 1 -20 -13 -1
1 -10 -12 -21 2 -20 -13 0
0 -10 -12 -22 2 -21 -14 -3
0 -10 -12 -23 3 -21 -14 -2
1 -9 -12 -22 5 -20 -14 -2
0 -9 -12 -21 6 -18 -13 0
1 -5 -12 -20 7 -18 -13 -1
2 -6 -11 -19 6 -18 -13 0
2 -7 -11 -18 4 -18 -13 -1
3 -6 -7 -15 4 -16 -11 2
3 -6 -8 -15 4 -17 -11 1
4 -8 -8 -15 4 -18 -12 1
4 -8 -8 -16 5 -18 -11 1
1 -10 -7 -17 6 -18 -10 1
2 -9 -8 -17 8 -18 -10 0
3 -9 -9 -16 9 -16 -9 2
3 -7 -9 -16 8 -15 -8 2
5 -5 -9 -14 10 -14 -9 3
5 -5 -9 -12 8 -14 -10 1
5 -6 -9 -13 6 -15 -10 0
5 -6 -7 -12 7 -15 -10 0
4 -8 -7 -11 8 -15 -11 1
4 -7 -6 -12 8 -15 -11 2
3 -8 -7 -14 9 -16 -10 0
3 -9 -6 -14 12 -14 -8 2
6 -7 -7 -13 12 -11 -7 3
6 -5 -8 -13 12 -11 -7 2
6 -6 -8 -11 12 -10 -6 2
6 -5 -7 -11 12 -10 -7 2
6 -5 -7 -10 9 -11 -8 2
7 -4 -4 -8 11 -10 -8 3
6 -4 -5 -10 11 -11 -9 2
6 -4 -5 -11 11 -11 -9 2
6 -5 -5 -10 13 -11 -9 2
4 -8 -6 -11 14 -10 -8 1
6 -7 -7 -10 15 -8 -7 3
7 -4 -7 -8 15 -6 -5 3
6 -5 -8 -8 14 -6 -6 3
6 -4 -7 -7 13 -5 -5 4
6 -4 -6 -5 13 -5 -4 4
8 -3 -4 -4 14 -5 -6 4
9 -1 -4 -5 14 -5 -5 4
7 -4 -5 -5 15 -4 -5 4
8 -3 -5 -4 18 -3 -4 4
10 -1 -3 -3 20 -1 -3 5
9 -2 -6 -4 19 -1 -4 5
10 -1 -6 -2 19 2 -2 5
9 -2 -7 -1 19 2 -1 5
9 -2 -7 0 19 3 0 7
11 0 -5 2 20 5 2 7
11 0 -4 3 21 5 2 8
12 0 -3 3 22 5 2 9
11 1 -4 3 22 6 2 9
12 1 -5 2 24 6 2 8
13 1 -5 2 26 9 4 10
14 2 -7 3 28 11 5 10
13 2 -7 6 30 14 8 12
15 2 -7 7 31 15 8 12
14 1 -6 9 32 18 9 14
16 3 -6 10 32 18 11 14
16 3 -5 12 33 19 12 15
16 3 -6 11 34 20 13 16
17 4 -5 12 36 23 16 18
17 5 -8 11 38 23 16 18
18 6 -7 11 41 27 18 20
20 9 -9 12 41 30 20 21
20 8 -10 14 43 33 23 22
22 10 -9 17 45 35 25 23
22 10 -9 17 45 37 26 24
22 11 -8 20 46 39 29 26
24 13 -8 20 46 40 29 26
23 12 -9 20 48 41 31 27
23 12 -10 19 49 43 32 29
24 14 -10 20 52 46 35 31
24 13 -11 20 53 48 37 32
26 18 -12 21 54 51 39 34
26 19 -12 22 55 54 42 35
28 20 -12 24 56 56 44 37
29 22 -12 25 57 58 45 38
28 23 -12 26 56 59 47 40
29 23 -13 26 55 58 46 38
28 24 -12 25 55 58 48 39
28 22 -13 24 54 58 48 40
30 23 -14 23 54 59 47 39
29 23 -12 23 55 60 49 42
30 26 -15 23 55 61 50 42
30 27 -13 24 55 63 51 44
29 28 -14 24 54 64 51 44
30 29 -14 23 52 63 51 44
30 31 -14 26 52 64 52 45
29 30 -13 24 49 61 50 43
30 30 -14 23 49 60 50 44
29 28 -14 22 47 59 50 43
30 29 -14 21 48 59 48 42
28 30 -12 22 48 60 50 44
28 31 -12 22 47 60 50 42
28 30 -11 23 48 62 50 43
27 30 -10 24 48 61 50 43
25 29 -10 25 46 61 50 44
28 30 -9 27 46 61 50 44
27 29 -8 26 45 58 48 42
26 28 -7 26 44 56 47 41
24 26 -7 25 43 55 45 39
22 24 -5 26 45 54 42 39
23 25 -5 27 45 52 40 37
22 26 -5 27 45 52 40 36
21 24 -5 27 44 51 38 35
20 26 -3 28 43 49 36 34
20 26 -2 28 42 47 35 33
20 26 -1 29 41 48 34 32
20 25 1 30 40 47 32 29
17 23 0 29 38 43 28 27
18 21 2 27 38 42 28 25
18 22 3 28 40 42 27 25
16 20 3 27 39 40 25 23
16 21 2 26 39 39 24 23
14 19 1 25 38 37 22 22
13 20 1 24 36 36 20 20
13 19 1 24 35 34 19 20
11 16 2 24 33 34 18 20
13 17 3 24 32 32 16 17
12 15 4 23 32 30 14 16
11 13 5 22 32 29 13 16
12 13 6 20 33 29 11 14
10 11 4 18 31 26 9 12
8 11 3 17 31 25 9 12
8 10 3 16 30 25 8 11
6 9 2 15 27 23 7 10
8 10 0 13 24 20 5 9
7 8 2 13 23 20 5 9
5 6 1 12 21 18 3 6
7 6 3 13 21 16 2 7
5 6 3 10 20 14 0 6
5 8 2 10 21 15 1 6
6 9 1 10 21 15 1 6
5 8 0 9 21 15 0 6
5 7 1 8 21 16 0 6
3 6 1 9 19 16 -1 6
4 6 1 8 18 15 -1 5
5 7 0 8 17 15 -1 5
3 4 2 8 16 13 -2 4
3 4 2 9 16 12 -4 4
3 4 2 9 18 12 -3 5
2 4 1 7 18 12 -4 3
4 6 1 8 19 12 -3 4
3 5 2 8 20 14 -3 4
2 5 2 8 20 15 -2 5
5 7 1 8 18 15 -3 4
5 8 1 9 18 16 -1 5
4 7 1 8 18 15 -1 4
3 6 2 9 17 15 -3 4
2 4 2 10 18 15 -2 6
3 6 3 10 20 16 -1 7
3 5 3 9 20 15 -1 6
3 6 2 10 20 16 -1 7
4 8 3 10 22 17 1 7
2 7 1 10 20 18 0 7
4 7 2 11 20 18 0 6
4 10 2 11 19 18 0 7
3 8 0 11 19 18 -1 7
3 9 2 11 18 17 -1 6
2 7 3 11 18 17 -1 6
3 8 2 11 18 16 -1 6
4 9 3 14 21 17 0 7
3 9 1 13 20 17 0 7
3 8 0 12 19 17 1 8
3 9 0 12 19 19 2 9
2 7 0 14 19 19 2 9
3 9 1 14 18 19 2 10
4 7 3 14 18 19 2 9
3 7 3 15 17 18 1 7
3 7 3 15 17 17 2 8
2 5 3 14 18 17 2 8
5 7 3 14 17 16 0 7
4 7 2 14 16 14 0 6
3 6 1 13 16 13 1 7
3 7 1 13 16 13 0 8
3 6 1 13 14 13 0 8
4 8 1 13 12 11 -1 7
4 9 2 14 13 11 0 8
3 8 2 13 11 9 -1 6
4 8 3 12 11 8 -1 6
6 9 2 11 12 8 -1 7
4 6 3 13 11 9 0 7
4 7 2 10 9 7 -2 5
2 5 3 11 11 8 -1 7
2 6 2 10 9 6 -3 5
3 6 3 11 7 6 -3 5
2 4 1 11 5 4 -3 4
4 5 2 12 6 4 -2 6
3 4 3 12 5 4 -3 5
2 3 3 10 3 1 -5 3
3 4 4 10 4 1 -4 4
3 4 3 8 2 0 -6 4
3 4 3 8 1 -2 -7 3
1 2 1 8 2 -1 -7 3
0 1 1 8 1 -2 -7 2
2 2 2 9 0 -2 -7 2
1 2 2 8 -2 -4 -8 1
-2 0 3 8 -2 -5 -8 0
0 0 3 7 -4 -6 -10 -1
0 0 2 7 -4 -7 -10 -1
0 -1 2 5 -5 -8 -11 -1
0 0 3 6 -4 -6 -10 0
0 -1 1 5 -4 -8 -12 -1
1 0 3 6 -3 -7 -10 -1
-2 -2 2 6 -4 -7 -11 0
-2 -2 3 6 -6 -7 -12 -1
0 -1 3 6 -6 -8 -11 -1
-2 -2 3 6 -7 -10 -12 -1
-2 -2 3 6 -8 -10 -14 -1
-2 -3 3 6 -10 -11 -14 -2
-4 -6 2 4 -9 -13 -15 -4
-3 -4 3 4 -9 -12 -15 -4
-2 -2 3 3 -9 -12 -16 -6
-1 -3 3 3 -9 -12 -16 -6
-1 -1 4 5 -8 -11 -14 -3
-1 -1 3 5 -10 -12 -15 -4
-1 -1 3 5 -12 -12 -16 -4
-2 -3 2 5 -11 -12 -15 -4
-3 -5 2 4 -13 -13 -17 -5
-3 -5 3 5 -13 -13 -16 -4
-2 -5 2 3 -14 -16 -17 -5
-2 -5 2 2 -15 -15 -17 -5
-2 -3 3 4 -12 -14 -15 -3
-3 -5 3 4 -11 -14 -16 -5
-3 -4 3 3 -12 -15 -18 -6
-3 -4 4 6 -12 -13 -17 -5
-4 -4 4 6 -13 -13 -17 -6
-2 -4 5 6 -13 -13 -17 -6
-3 -2 4 6 -14 -13 -17 -7
-3 -2 6 7 -14 -13 -17 -6
-2 0 8 8 -12 -11 -16 -4
-3 2 9 9 -11 -11 -15 -4
-2 5 11 11 -9 -9 -15 -3
-1 6 14 12 -6 -7 -14 -1
-3 7 15 13 -5 -6 -11 0
-1 8 15 14 -7 -6 -11 0
-2 9 15 14 -8 -7 -12 0
-2 10 15 15 -9 -7 -12 0
-1 10 16 16 -8 -8 -12 -1
-2 8 17 17 -8 -7 -13 -2
-2 10 19 16 -8 -8 -14 -3
-2 11 21 18 -6 -6 -13 -2
-3 12 18 16 -7 -7 -13 -2
-3 14 17 16 -6 -5 -11 0
-3 17 16 15 -5 -4 -10 2
-1 19 16 16 -5 -3 -9 3
1 23 15 14 -5 -3 -9 3
1 23 13 12 -7 -4 -8 4
2 23 11 12 -7 -5 -9 5
2 24 9 12 -6 -3 -8 5
4 24 5 8 -9 -5 -10 4
4 24 6 9 -8 -4 -9 6
3 24 5 8 -9 -4 -10 5
4 23 4 7 -9 -5 -10 5
6 25 4 7 -9 -4 -8 6
6 25 4 7 -8 -3 -8 6
7 26 4 8 -9 -3 -8 6
7 23 3 8 -9 -4 -8 5
8 23 4 8 -9 -4 -8 6
10 23 5 9 -8 -4 -8 6
9 20 6 11 -9 -3 -7 6
7 16 6 10 -8 -4 -8 5
8 16 4 8 -11 -7 -12 3
4 10 5 8 -11 -7 -13 3
4 7 5 7 -13 -9 -15 0
3 5 6 7 -14 -11 -17 -3
-1 1 5 5 -17 -13 -19 -6
-1 -2 6 4 -19 -16 -20 -8
-3 -4 7 4 -20 -16 -22 -8
-5 -4 7 3 -21 -17 -22 -9
-3 -3 8 4 -20 -17 -23 -9
-5 -6 9 5 -19 -16 -24 -9
-5 -8 9 4 -21 -18 -24 -10
-6 -10 8 3 -22 -18 -26 -12
-6 -10 8 2 -23 -20 -26 -12
-6 -10 7 3 -23 -21 -26 -12
-7 -9 8 2 -24 -22 -27 -13
-7 -10 8 2 -25 -23 -28 -14
-5 -8 8 1 -25 -24 -29 -14
-6 -8 6 1 -27 -24 -29 -15
-6 -6 7 1 -25 -23 -28 -14
-6 -8 9 1 -25 -23 -28 -14
-7 -10 9 1 -23 -23 -27 -15
-6 -8 10 1 -23 -21 -27 -14
-5 -8 9 1 -23 -22 -27 -14
-6 -9 9 1 -24 -23 -29 -15
-6 -8 9 2 -24 -23 -29 -15
-7 -9 9 1 -25 -23 -28 -15
-8 -11 11 2 -25 -24 -28 -14
-10 -10 12 2 -26 -24 -29 -16
-9 -8 13 2 -25 -22 -28 -15
-8 -7 13 2 -25 -22 -27 -15
-7 -8 14 4 -25 -24 -28 -16
-4 -9 17 9 -22 -21 -27 -16
0 -11 18 15 -17 -16 -24 -15
5 -15 20 26 -3 -4 -16 -14
12 -16 27 47 18 14 -4 -10
18 -16 33 69 39 35 9 -4
22 -16 38 81 60 57 23 1
25 -11 43 92 84 85 40 10
30 -4 39 94 106 115 63 24
37 10 33 85 130 151 91 42
44 29 27 62 145 187 122 65
46 48 14 21 146 215 151 86
50 69 -7 -27 142 244 178 105
53 87 -39 -72 142 276 205 125
52 96 -70 -121 130 291 217 134
46 101 -98 -173 109 294 220 140
37 100 -121 -217 81 283 211 136
33 85 -128 -232 63 258 183 119
26 62 -121 -222 40 206 135 85
17 44 -124 -216 13 147 87 56
8 34 -136 -213 -21 88 45 34
-5 22 -138 -208 -80 -2 -9 9
-16 11 -132 -201 -131 -65 -47 -12
-21 4 -126 -192 -154 -92 -61 -22
-19 2 -118 -179 -155 -95 -65 -28
-18 -1 -112 -166 -144 -90 -67 -30
-16 -3 -104 -156 -136 -86 -67 -34
-16 -11 -94 -146 -129 -87 -69 -38
-15 -20 -84 -133 -126 -89 -72 -41
-16 -29 -75 -117 -118 -88 -72 -42
-12 -34 -62 -93 -103 -80 -67 -40
-9 -31 -43 -66 -85 -70 -60 -37
-7 -31 -30 -47 -73 -61 -56 -35
-5 -28 -19 -32 -61 -56 -53 -31
-6 -27 -12 -20 -51 -49 -47 -29
-4 -25 -6 -13 -46 -46 -45 -28
-4 -23 0 -7 -38 -40 -41 -25
-6 -22 5 -3 -34 -38 -39 -25
-5 -20 5 0 -32 -36 -38 -26
-5 -18 7 2 -29 -36 -37 -25
-6 -19 9 4 -27 -34 -36 -25
-6 -17 11 6 -26 -32 -34 -24
-6 -16 12 9 -25 -31 -33 -23
-7 -19 12 9 -25 -31 -33 -24
-7 -19 13 11 -24 -31 -33 -24
-7 -18 16 11 -22 -30 -31 -22
-5 -18 16 11 -21 -31 -31 -22
-4 -18 15 11 -19 -29 -32 -21
-4 -17 14 10 -20 -29 -32 -23
-3 -16 14 10 -19 -29 -31 -23
-4 -18 14 11 -19 -28 -31 -23
-6 -18 14 13 -19 -27 -30 -22
-5 -17 15 13 -20 -27 -29 -23
-6 -18 16 14 -19 -28 -29 -22
-7 -18 17 15 -19 -27 -30 -23
-6 -19 18 14 -19 -27 -28 -22
-6 -18 18 14 -18 -28 -28 -21
-5 -18 18 14 -16 -27 -28 -20
-5 -17 16 13 -15 -25 -28 -21
-3 -18 15 10 -16 -27 -29 -22
-1 -15 16 12 -15 -25 -28 -21
-3 -15 15 13 -16 -26 -28 -21
-3 -16 16 15 -16 -25 -27 -21
-4 -17 17 15 -16 -27 -28 -22
-5 -17 16 15 -17 -26 -28 -22
-4 -17 17 15 -17 -26 -27 -22
-4 -17 17 14 -15 -25 -27 -21
-3 -16 18 14 -12 -23 -25 -20
-2 -14 18 14 -12 -22 -24 -20
-3 -16 18 14 -11 -20 -23 -20
-3 -15 18 15 -11 -20 -23 -20
-1 -14 18 16 -11 -19 -23 -20
-2 -15 20 17 -13 -18 -21 -20
-2 -16 19 17 -12 -18 -22 -19
-3 -18 19 17 -12 -19 -23 -20
-2 -18 20 17 -11 -19 -22 -19
-2 -17 20 15 -10 -18 -22 -18
-3 -19 19 14 -8 -18 -23 -19
-2 -19 20 15 -7 -16 -21 -19
-1 -18 20 16 -5 -14 -20 -18
-2 -17 19 16 -6 -14 -20 -18
0 -15 19 18 -5 -14 -20 -18
0 -15 20 19 -6 -12 -19 -18
0 -15 20 20 -5 -12 -19 -17
0 -14 20 20 -4 -11 -19 -17
-1 -17 19 18 -4 -12 -18 -17
0 -17 20 18 -1 -9 -17 -15
-1 -16 19 18 0 -9 -16 -14
-1 -16 17 17 0 -6 -15 -14
0 -15 17 18 0 -6 -15 -13
0 -14 18 19 2 -3 -14 -12
1 -12 18 21 4 -2 -13 -12
3 -12 19 23 4 0 -11 -11
2 -12 18 22 4 0 -11 -11
3 -11 18 23 7 1 -10 -10
4 -9 19 24 10 5 -8 -9
5 -9 18 23 10 5 -7 -9
4 -9 17 23 13 7 -5 -7
3 -10 16 21 13 9 -4 -7
4 -10 16 23 15 11 -2 -6
7 -9 16 25 17 14 0 -5
6 -9 17 27 20 16 1 -4
10 -6 17 28 20 19 3 -3
9 -5 17 29 23 21 5 -1
9 -6 16 29 25 23 7 0
11 -4 16 31 28 27 10 2
12 -4 15 30 30 29 12 3
12 -2 14 30 33 32 14 5
13 -2 13 30 34 35 17 6
13 -2 11 30 37 38 19 8
15 1 11 31 40 42 22 11
16 2 11 32 42 46 26 12
17 3 9 32 42 48 28 13
19 6 9 34 45 50 31 15
20 7 9 33 47 52 32 16
21 8 8 33 49 55 35 18
22 10 7 33 51 59 38 21
22 11 7 32 53 62 40 22
24 13 6 33 54 64 42 24
23 13 5 33 55 66 44 25
23 12 4 33 56 68 45 26
24 14 5 34 54 68 45 27
24 15 4 36 53 69 47 28
24 14 5 36 53 69 48 29
25 16 6 35 54 69 48 29
25 16 6 35 54 69 49 30
27 18 6 35 54 71 51 31
26 19 6 34 54 71 51 32
26 19 5 34 54 70 51 31
27 20 4 34 52 69 51 32
27 20 4 33 50 69 50 32
24 21 6 35 51 68 50 32
24 21 6 36 48 66 48 31
23 18 6 34 47 62 47 30
22 18 9 37 48 63 47 30
23 18 9 36 45 60 45 28
22 18 10 37 45 60 44 27
21 18 11 35 44 57 42 25
19 16 12 35 42 55 39 23
20 16 12 36 39 54 38 22
20 17 13 37 38 51 36 21
18 16 15 38 35 48 32 19
17 15 16 40 33 45 30 18
16 12 17 39 31 40 26 16
13 10 20 40 31 39 26 15
13 11 22 41 30 36 24 14
11 9 21 38 28 32 20 11
10 8 23 38 27 31 17 10
11 9 24 37 26 29 15 7
9 6 24 36 24 26 14 6
9 7 24 35 23 24 12 5
9 6 26 35 22 22 11 4
7 5 26 35 19 19 8 2
6 4 26 32 17 16 4 0
3 1 26 31 16 15 3 -2
4 2 27 30 15 13 3 -2
4 1 26 28 15 10 1 -4
2 0 25 25 13 8 -2 -5
3 -1 25 24 13 8 -2 -5
2 -3 26 24 12 8 -2 -5
2 -2 26 23 11 7 -3 -5
3 -1 26 22 11 7 -4 -7
1 -2 25 19 8 5 -5 -7
2 -3 26 18 8 4 -6 -7
1 -3 25 16 7 3 -8 -9
0 -4 25 15 6 2 -9 -9
1 -4 25 13 6 2 -9 -9
0 -5 23 10 4 0 -11 -10
-1 -6 22 10 5 -1 -12 -10
-1 -5 22 9 4 0 -12 -9
0 -5 22 8 2 -2 -14 -10
1 -3 21 9 2 -1 -14 -10
0 -4 22 8 0 -2 -14 -10
0 -5 20 6 -1 -4 -16 -12
0 -5 21 5 -1 -5 -16 -12
0 -6 22 6 -1 -5 -17 -12
-1 -8 22 5 -1 -6 -17 -12
-1 -8 19 3 -3 -7 -17 -13
-2 -8 19 3 -3 -9 -19 -14
-3 -8 19 3 -3 -9 -18 -13
-4 -8 19 3 -4 -9 -19 -13
-4 -10 18 3 -6 -11 -21 -15
-4 -9 20 4 -6 -11 -20 -14
-4 -10 20 4 -5 -12 -20 -14
-3 -9 19 4 -6 -12 -22 -15
-2 -8 20 5 -5 -11 -21 -14
-3 -10 20 4 -5 -11 -21 -14
-2 -8 20 4 -4 -11 -21 -14
-3 -9 18 4 -4 -11 -22 -15
-5 -10 17 4 -4 -10 -21 -14
-2 -9 19 4 -3 -9 -20 -13
-4 -9 20 6 -3 -8 -19 -12
-5 -10 19 6 -3 -8 -19 -12
-3 -8 19 7 -3 -6 -19 -11
-5 -9 19 9 -2 -5 -18 -11
-2 -8 18 9 -1 -5 -17 -11
-1 -8 17 8 -1 -5 -18 -11
-2 -7 17 8 -1 -4 -16 -11
-1 -5 18 7 1 -3 -16 -10
-2 -5 18 8 2 -1 -15 -8
-1 -4 17 7 1 -2 -15 -9
-1 -2 17 7 1 -1 -15 -9
-2 -4 17 9 2 0 -14 -8
-2 -3 17 9 2 1 -13 -7
-2 -5 18 9 3 1 -13 -7
0 -3 17 9 4 1 -13 -7
0 -3 17 9 5 3 -11 -6
-2 -4 17 10 5 3 -10 -5
-1 -4 18 10 7 4 -9 -5
-1 -2 18 11 7 7 -8 -3
-2 -3 18 9 7 7 -8 -3
0 -2 18 10 6 6 -8 -3
0 -2 18 10 6 6 -8 -3
0 -2 18 11 5 7 -7 -2
0 -2 19 12 6 8 -6 -2
-1 -3 18 11 6 8 -6 -2
-1 -3 17 10 6 7 -6 -1
-1 -2 18 10 5 8 -6 -1
-2 -2 18 11 7 7 -6 -1
0 -1 18 11 7 8 -5 0
1 -1 18 10 5 7 -6 -1
1 -1 18 11 5 7 -6 0
1 -3 18 11 6 8 -5 0
0 -4 19 11 5 8 -5 0
0 -3 18 10 4 6 -6 -1
0 -3 17 10 4 6 -6 -1
-1 -5 18 9 3 6 -6 -1
1 -4 18 9 3 5 -6 -1
0 -4 18 10 3 6 -5 1
1 -3 18 9 3 6 -5 0
2 -2 19 8 2 5 -6 -1
1 -3 17 9 2 4 -6 -2
2 -4 20 10 1 5 -6 -1
3 -3 20 9 2 4 -6 -1
1 -4 20 8 1 4 -7 -2
1 -4 20 9 1 4 -7 -2
0 -5 20 7 0 4 -8 -2
0 -5 18 6 0 4 -8 -2
1 -4 18 5 0 3 -8 -2
-1 -6 20 7 1 5 -5 0
1 -5 20 8 1 5 -5 0
1 -5 19 8 0 3 -6 0
0 -5 20 7 -2 2 -7 -1
1 -4 20 8 -2 1 -6 -1
1 -5 20 9 -2 2 -7 -1
1 -5 20 8 -3 1 -7 -1
0 -6 18 5 -3 0 -8 -2
-1 -7 18 5 -4 -1 -9 -2
1 -7 17 4 -4 -2 -10 -3
0 -6 17 4 -5 -1 -9 -2
-1 -7 16 4 -6 -2 -10 -3
0 -6 17 4 -6 -3 -11 -3
-1 -6 19 5 -6 -2 -10 -2
-1 -7 19 6 -6 -3 -10 -2
-1 -6 20 6 -6 -2 -10 -3
0 -8 17 5 -8 -4 -11 -4
0 -8 18 5 -8 -3 -10 -4
0 -8 17 3 -8 -4 -11 -6
-1 -9 17 4 -8 -3 -10 -5
0 -8 17 3 -9 -4 -10 -5
-1 -9 18 3 -9 -5 -11 -5
-2 -9 16 4 -9 -6 -12 -4
-1 -8 18 4 -10 -6 -12 -4
-1 -8 18 4 -10 -7 -13 -5
1 -7 18 4 -11 -7 -13 -6
-1 -7 17 4 -10 -7 -12 -5
-1 -9 18 4 -10 -8 -12 -5
1 -7 17 3 -10 -8 -12 -5
0 -7 17 3 -10 -6 -12 -4
0 -7 17 2 -11 -8 -12 -5
-1 -7 17 2 -12 -8 -13 -5
-2 -8 17 3 -11 -8 -13 -5
-1 -8 17 2 -13 -9 -14 -6
-1 -8 17 2 -13 -10 -14 -5
-1 -8 18 3 -12 -8 -13 -5
-1 -7 18 4 -12 -7 -13 -4
-2 -8 18 2 -12 -8 -13 -4
-1 -7 17 2 -13 -8 -13 -5
0 -6 17 2 -13 -9 -13 -5
0 -6 15 1 -14 -9 -14 -5
0 -6 16 0 -15 -10 -14 -5
-2 -7 16 1 -15 -10 -15 -6
-1 -8 16 0 -15 -10 -14 -6
0 -7 17 2 -14 -10 -12 -5
-2 -8 17 2 -14 -10 -13 -6
-2 -8 16 1 -14 -10 -13 -6
-1 -8 16 1 -14 -10 -13 -5
-2 -7 16 2 -13 -10 -12 -5
0 -4 17 4 -11 -8 -11 -4
0 -3 18 4 -11 -8 -10 -3
0 -1 21 6 -9 -6 -9 -1
0 2 23 8 -8 -5 -9 0
-1 3 24 9 -7 -4 -8 0
0 5 26 10 -5 -3 -7 2
-1 7 26 9 -7 -4 -8 0
-2 6 26 10 -7 -4 -8 1
-1 8 27 10 -6 -3 -7 1
-2 8 28 11 -4 -2 -6 2
-1 9 29 13 -2 0 -4 3
0 12 30 14 -2 0 -5 4
-1 13 31 14 -3 -1 -5 4
0 15 30 14 -2 0 -5 4
1 18 29 13 -1 1 -4 6
1 18 27 12 -2 1 -3 7
2 21 26 12 -2 1 -3 7
1 19 24 11 -2 2 -2 8
2 19 19 6 -4 0 -3 7
3 20 16 5 -3 1 -2 8
4 20 14 3 -4 1 -1 9
3 22 13 2 -4 1 -1 10
5 23 12 1 -5 0 -1 10
7 25 13 2 -5 1 0 12
8 26 11 2 -7 0 -1 11
9 26 10 0 -7 0 -1 10
7 25 11 1 -6 0 0 11
8 24 9 1 -5 0 0 11
8 21 8 -1 -6 0 -1 10
10 21 7 -1 -5 0 -1 10
10 21 9 0 -5 1 0 12
8 19 9 1 -4 2 0 11
10 18 10 2 -3 2 1 11
11 15 11 2 -4 3 1 11
10 14 9 2 -6 0 -1 9
10 12 11 2 -6 0 -3 8
7 6 11 2 -7 -3 -5 5
6 3 10 -1 -10 -5 -7 2
2 -1 11 -2 -12 -7 -9 1
0 -2 10 -4 -13 -10 -11 0
0 -2 11 -5 -14 -11 -12 -2
-3 -5 11 -5 -15 -11 -12 -2
-4 -5 11 -6 -16 -12 -13 -3
-3 -5 12 -5 -16 -11 -13 -3
-4 -6 12 -4 -16 -12 -14 -3
-2 -5 13 -3 -16 -13 -15 -5
-3 -6 11 -4 -18 -14 -16 -5
-4 -8 11 -5 -18 -14 -16 -5
-1 -6 12 -7 -18 -16 -17 -6
-2 -8 12 -8 -17 -16 -16 -5
-2 -9 10 -9 -19 -15 -16 -5
-2 -8 10 -9 -19 -16 -16 -5
-4 -9 10 -10 -19 -17 -16 -5
-3 -8 10 -10 -20 -16 -15 -5
-2 -8 10 -9 -19 -16 -15 -4
-2 -8 12 -9 -18 -16 -15 -4
-3 -8 12 -9 -18 -16 -14 -4
-1 -7 11 -10 -18 -17 -15 -5
-1 -7 12 -11 -17 -17 -15 -5
-1 -6 13 -11 -17 -17 -15 -5
-5 -8 13 -13 -19 -18 -15 -5
-3 -5 15 -13 -20 -18 -16 -4
-3 -4 15 -12 -19 -17 -15 -4
-6 -6 15 -13 -22 -19 -15 -5
-5 -5 18 -7 -21 -18 -14 -4
-2 -8 20 -2 -18 -17 -15 -6
3 -13 22 8 -10 -9 -10 -6
11 -14 26 26 8 6 0 -3
18 -14 34 51 31 26 13 2
25 -12 39 67 56 50 27 8
29 -13 43 81 81 76 42 14
31 -8 46 90 106 104 59 24
36 5 41 76 124 136 85 40
41 19 28 42 131 166 111 59
48 39 5 -9 133 196 140 79
51 60 -23 -63 130 225 168 101
51 79 -55 -118 127 254 194 121
55 95 -88 -169 125 283 218 138
53 106 -117 -217 113 297 228 147
47 111 -144 -264 85 297 226 149
39 107 -155 -286 60 281 211 142
34 84 -158 -284 44 252 180 118
30 60 -165 -271 27 206 137 89
24 42 -172 -257 5 156 97 66
14 24 -170 -246 -35 90 54 41
1 9 -156 -237 -106 -13 -4 13
-8 -1 -141 -227 -157 -78 -38 -3
-12 -3 -130 -209 -171 -102 -52 -12
-11 -3 -119 -196 -164 -102 -57 -20
-11 -8 -109 -184 -151 -95 -59 -25
-7 -12 -98 -168 -141 -91 -59 -27
-7 -20 -87 -149 -130 -89 -59 -30
-3 -24 -71 -119 -110 -79 -54 -29
-3 -24 -51 -88 -91 -68 -48 -25
-2 -24 -39 -67 -79 -61 -44 -25
-1 -22 -26 -51 -66 -54 -39 -24
0 -20 -18 -40 -57 -49 -37 -21
-1 -20 -10 -31 -50 -44 -34 -19
-2 -18 -4 -25 -43 -40 -32 -17
1 -15 0 -20 -37 -37 -29 -16
-3 -16 3 -15 -32 -35 -27 -16
-3 -15 3 -13 -29 -33 -25 -14
-1 -12 5 -10 -27 -29 -24 -13
-2 -10 9 -6 -27 -28 -24 -12
-2 -10 10 -3 -28 -30 -23 -11
-2 -12 10 -2 -26 -30 -24 -13
-1 -13 10 -4 -27 -29 -25 -14
0 -13 10 -4 -25 -30 -24 -13
0 -14 10 -5 -25 -30 -25 -13
-3 -14 11 -6 -23 -31 -24 -13
-5 -17 10 -6 -22 -29 -24 -14
-3 -14 9 -7 -22 -29 -24 -14
-1 -12 10 -4 -22 -26 -22 -13
-1 -10 11 -3 -23 -27 -22 -16
0 -10 13 1 -24 -27 -22 -14
-2 -10 12 1 -23 -26 -22 -12
-1 -11 12 1 -23 -27 -22 -12
2 -10 12 -1 -23 -29 -22 -12
0 -12 12 -1 -20 -27 -23 -12
0 -13 11 -2 -20 -27 -22 -13
0 -12 10 -4 -20 -26 -21 -13
-1 -13 9 -2 -20 -25 -22 -14
1 -12 10 -1 -19 -23 -19 -13
1 -11 11 0 -20 -23 -19 -12
2 -8 13 3 -20 -22 -18 -11
1 -11 13 3 -20 -22 -19 -10
1 -12 12 0 -20 -31 -20 -12
0 -12 13 0 -19 -40 -20 -12
1 -11 15 1 -16 -41 -18 -11
2 -10 12 -1 -16 -45 -18 -13
3 -9 11 -1 -15 -45 -17 -12
-2 -11 12 0 -14 -45 -17 -10
-3 -12 12 1 -14 -46 -17 -11
-2 -11 13 3 -14 -47 -15 -9
-1 -10 13 3 -15 -48 -13 -11
-2 -11 13 4 -14 -47 -15 -11
-1 -11 13 4 -15 -49 -18 -12
0 -11 13 4 -14 -50 -16 -11
3 -10 14 4 -11 -48 -13 -10
2 -9 13 2 -10 -49 -13 -11
1 -10 12 1 -10 -49 -14 -12
1 -9 13 2 -9 -48 -13 -11
2 -9 13 4 -8 -45 -11 -10
3 -8 14 6 -8 -45 -11 -9
2 -8 14 6 -10 -47 -12 -11
0 -9 13 6 -10 -46 -11 -11
3 -8 14 8 -8 -45 -11 -11
3 -8 15 7 -7 -44 -11 -9
4 -8 16 9 -4 -42 -10 -7
3 -7 15 9 -2 -41 -7 -7
2 -8 14 9 -2 -40 -7 -7
4 -6 15 10 1 -38 -5 -6
5 -5 14 12 2 -35 -4 -5
6 -4 15 13 1 -35 -2 -4
7 -2 16 15 1 -34 -2 -5
5 -4 16 15 2 -35 -3 -4
4 -3 17 18 2 -35 -5 -4
6 -2 17 19 5 -32 -4 -4
6 -2 17 19 8 -30 -2 -3
9 1 16 20 11 -29 0 -3
8 1 15 21 12 -28 1 -2
7 0 16 23 15 -26 4 0
9 2 16 25 16 -23 6 1
9 3 16 27 17 -21 6 -1
12 5 16 30 18 -19 9 1
11 4 16 30 18 -19 9 3
10 3 17 33 20 -17 10 3
12 5 18 34 24 -14 12 5
13 6 18 34 28 -10 15 7
14 7 15 33 30 -9 15 6
15 7 17 37 32 -5 18 9
15 9 17 39 36 -1 20 11
18 11 17 42 39 4 25 12
19 14 16 43 40 6 26 14
19 13 17 47 45 10 29 17
19 15 17 48 46 13 30 18
19 16 18 50 49 16 35 20
20 16 17 50 51 18 35 21
21 18 17 50 55 21 38 23
22 20 14 48 55 24 38 22
22 20 15 51 59 28 41 25
24 24 15 51 61 33 44 27
24 24 15 52 62 35 47 28
26 29 16 55 64 39 49 31
24 29 17 56 66 41 52 32
20 29 17 57 67 42 52 34
20 31 19 59 68 44 55 36
19 33 19 57 67 44 54 36
19 35 19 57 69 45 56 37
19 34 18 57 70 47 55 37
19 33 16 55 69 46 55 38
20 34 18 55 70 47 56 40
21 35 17 56 70 49 58 40
25 36 15 56 67 48 56 38
25 37 18 57 66 48 56 39
25 36 17 55 64 45 55 39
25 36 17 55 62 43 54 37
28 39 18 56 62 43 54 38
26 36 19 55 63 42 55 38
26 34 18 53 63 41 51 36
23 33 17 52 61 40 49 34
22 33 18 51 60 38 49 33
23 33 19 52 59 37 48 31
23 33 19 53 56 35 45 30
21 31 21 54 53 32 44 28
22 32 22 54 51 30 42 27
21 31 22 53 48 26 38 24
21 30 23 51 46 22 36 23
19 27 22 48 45 20 33 21
17 26 22 46 44 17 31 19
17 25 23 46 43 16 30 19
15 24 23 43 41 14 27 17
16 23 23 43 39 13 26 15
15 24 22 42 34 9 24 13
12 21 23 41 31 6 22 11
13 20 24 40 31 4 21 11
12 19 23 37 28 1 18 8
11 18 23 35 27 -1 16 7
11 17 23 32 26 -3 12 6
11 16 22 30 24 -6 11 5
10 16 20 27 23 -7 11 3
11 17 20 24 20 -9 10 2
10 15 18 23 19 -10 10 0
10 14 19 23 18 -10 8 1
8 13 19 21 15 -11 8 0
6 11 18 19 14 -13 6 -1
8 12 18 17 12 -15 5 -3
6 9 17 15 11 -17 2 -2
7 10 15 12 11 -18 1 -2
7 10 14 9 9 -19 0 -4
6 9 14 7 8 -19 0 -5
7 10 12 6 8 -19 -1 -4
6 10 11 5 6 -19 0 -5
5 8 11 5 5 -21 -1 -5
5 8 11 4 3 -22 -1 -6
4 5 10 4 3 -22 -2 -6
6 6 10 2 2 -23 -4 -6
6 5 11 1 2 -25 -5 -7
4 3 10 -1 1 -26 -5 -8
4 4 9 -2 1 -26 -5 -8
3 5 10 -2 1 -25 -5 -7
5 6 8 -2 1 -25 -7 -8
5 6 9 -2 1 -24 -6 -7
4 4 9 -1 0 -25 -6 -7
4 5 10 0 -2 -26 -6 -9
3 3 8 -1 -3 -29 -8 -9
4 2 9 -2 -3 -29 -10 -10
5 4 10 -2 -5 -31 -11 -9
4 4 9 -3 -5 -32 -11 -11
4 2 9 -3 -4 -32 -12 -11
3 3 9 -3 -4 -32 -11 -11
1 3 10 -1 -2 -30 -11 -10
3 5 10 -1 -2 -29 -11 -11
3 4 12 2 -2 -28 -11 -11
2 4 11 3 -3 -29 -11 -12
4 5 11 4 -3 -29 -12 -11
3 5 11 3 -4 -30 -12 -12
3 6 12 4 -2 -29 -11 -11
3 6 12 4 -1 -29 -12 -12
0 4 11 3 1 -28 -12 -13
1 5 11 3 1 -28 -12 -13
2 6 10 4 1 -27 -11 -11
1 7 11 4 2 -25 -11 -10
3 7 14 7 2 -22 -9 -9
2 8 12 8 1 -22 -9 -10
3 8 12 8 2 -22 -9 -10
3 9 15 9 2 -21 -9 -9
3 8 14 8 1 -24 -9 -9
3 9 14 8 3 -22 -8 -8
2 9 12 7 4 -21 -9 -9
2 9 11 7 4 -22 -7 -9
4 10 11 7 3 -21 -7 -9
3 10 13 8 4 -19 -5 -8
3 11 12 9 3 -19 -7 -9
3 11 13 10 3 -19 -5 -7
4 11 13 10 3 -19 -6 -8
3 12 15 10 4 -18 -6 -7
2 12 14 10 5 -19 -6 -8
2 12 13 8 5 -19 -6 -7
3 12 12 7 5 -18 -6 -8
2 11 12 7 5 -18 -6 -7
3 12 12 8 6 -17 -6 -7
1 11 11 8 6 -15 -6 -6
1 11 11 9 5 -16 -6 -6
2 11 12 11 4 -16 -6 -5
1 11 12 11 5 -16 -5 -5
3 11 12 9 4 -16 -5 -6
4 13 11 9 4 -17 -6 -6
2 12 10 8 4 -17 -6 -7
2 13 10 8 4 -16 -7 -6
4 14 11 8 6 -15 -5 -5
4 13 8 7 5 -16 -6 -6
4 13 8 7 4 -15 -6 -6
2 12 8 8 4 -14 -6 -6
0 11 9 10 4 -15 -6 -5
2 12 9 10 2 -16 -6 -5
3 11 8 8 1 -17 -7 -7
3 12 8 9 1 -17 -7 -6
3 13 7 8 2 -17 -6 -5
2 13 7 7 2 -17 -8 -7
3 13 7 7 3 -16 -8 -6
1 13 5 6 3 -16 -8 -6
0 13 6 7 3 -15 -7 -5
1 12 6 8 1 -15 -8 -5
1 10 6 9 0 -17 -9 -7
2 10 6 9 -1 -16 -9 -7
1 10 7 9 -1 -16 -8 -6
-1 8 7 9 -2 -17 -9 -6
2 8 6 7 -1 -17 -8 -5
2 8 5 6 -2 -17 -11 -8
1 9 5 6 -1 -17 -10 -8
1 10 4 7 -2 -17 -10 -8
0 8 4 6 -3 -16 -11 -7
0 9 6 7 -3 -15 -9 -7
0 8 5 7 -6 -18 -12 -8
-1 7 5 7 -5 -17 -11 -8
0 8 5 7 -6 -18 -11 -8
-1 7 6 7 -6 -19 -12 -8
-1 6 5 5 -6 -19 -12 -9
0 7 5 6 -5 -17 -11 -9
0 6 4 4 -5 -18 -13 -9
0 7 5 5 -5 -17 -12 -9
0 6 4 5 -6 -17 -12 -9
-2 5 4 7 -6 -18 -12 -8
0 7 5 6 -6 -18 -13 -8
-1 7 5 7 -7 -18 -13 -8
-2 6 6 6 -9 -18 -15 -8
-2 5 5 6 -10 -19 -15 -10
-4 4 4 4 -9 -19 -15 -11
-1 5 5 5 -8 -17 -15 -11
-2 5 5 4 -8 -17 -14 -11
-2 4 5 5 -7 -17 -15 -11
-1 4 4 6 -7 -15 -13 -9
-2 3 4 6 -7 -16 -13 -9
-1 4 5 6 -8 -16 -13 -10
0 5 5 7 -10 -15 -14 -10
-2 3 5 6 -11 -16 -14 -9
-3 3 4 6 -10 -18 -15 -10
-4 2 3 5 -9 -16 -15 -10
-4 2 3 5 -9 -16 -15 -10
-4 3 4 4 -8 -15 -14 -10
-4 2 3 5 -8 -15 -15 -9
-4 1 2 4 -10 -15 -16 -10
-4 1 4 6 -10 -15 -16 -10
-4 2 4 6 -10 -15 -16 -11
-3 3 3 7 -11 -14 -16 -10
-4 3 5 7 -10 -14 -15 -11
-4 2 4 5 -10 -16 -16 -11
-5 2 3 4 -12 -15 -17 -11
-5 1 2 5 -12 -14 -16 -12
-4 2 2 3 -11 -13 -17 -12
-4 1 2 4 -10 -14 -16 -13
-6 -1 3 5 -11 -12 -17 -11
-6 -1 3 6 -10 -13 -16 -10
-6 1 4 6 -11 -14 -17 -10
-4 2 3 6 -12 -14 -17 -10
-4 2 4 6 -13 -14 -17 -10
-4 2 3 5 -12 -14 -16 -11
-4 3 4 5 -12 -13 -16 -10
-4 4 3 5 -11 -13 -17 -11
-3 3 2 5 -11 -14 -18 -12
-4 3 3 6 -9 -11 -18 -10
-5 0 3 7 -13 -11 -18 -11
-6 -1 5 8 -11 -10 -16 -10
-5 0 4 8 -12 -11 -18 -11
-6 -1 5 9 -12 -10 -16 -9
-4 1 6 10 -11 -9 -16 -10
-5 2 5 10 -9 -9 -16 -9
-4 3 7 12 -8 -8 -14 -7
-3 6 9 14 -7 -5 -14 -7
-4 7 12 17 -3 -3 -12 -5
-3 9 13 18 -1 -1 -10 -3
-4 10 14 19 -1 0 -10 -3
-7 10 14 19 -2 -1 -10 -3
-6 12 15 21 -2 0 -10 -2
-5 12 18 23 0 1 -9 -1
-6 12 17 22 -1 0 -9 -2
-5 12 19 24 1 1 -9 -1
-5 14 20 25 1 2 -9 -2
-5 15 21 25 2 3 -8 -2
-4 17 20 25 4 4 -7 0
-4 17 17 24 4 5 -7 0
-2 20 16 23 3 6 -7 1
-4 19 16 22 3 6 -5 3
-2 21 12 21 3 8 -4 3
-2 23 6 19 1 7 -4 4
-4 22 -7 16 0 5 -5 4
-4 21 -521 16 -1 5 -6 4
-2 23 -1005 14 -1 5 -6 4
-1 23 -345 12 -2 6 -5 6
0 25 -21 13 0 7 -4 6
1 25 -9 12 -2 6 -5 4
1 26 -10 10 -2 6 -4 6
3 26 -9 13 -1 5 -4 7
4 24 -9 14 0 5 -4 7
4 21 -7 16 0 6 -4 8
4 21 -7 14 -1 5 -5 8
3 19 -8 15 -1 4 -4 6
4 19 -7 15 0 6 -4 7
3 17 -6 16 1 8 -2 7
5 15 -7 15 1 7 -4 5
4 13 -8 15 0 6 -6 4
3 10 -6 15 -2 6 -7 3
2 6 -7 15 -3 3 -9 1
1 3 -7 14 -5 0 -11 -1
-3 0 -5 12 -8 -2 -13 -2
-4 -1 -6 11 -9 -5 -16 -5
-7 -4 -6 9 -10 -7 -17 -6
-9 -5 -4 10 -10 -6 -18 -6
-9 -7 -2 9 -11 -7 -19 -7
-10 -9 -5 10 -10 -6 -18 -8
-8 -9 -5 11 -11 -6 -20 -8
-8 -9 -5 10 -12 -7 -20 -7
-8 -10 -5 10 -12 -8 -20 -8
-8 -9 -6 10 -11 -8 -20 -7
-7 -9 -4 10 -14 -9 -21 -8
-8 -9 -4 10 -13 -9 -21 -8
-8 -9 -4 10 -13 -9 -21 -9
-9 -12 -6 9 -13 -9 -22 -9
-9 -12 -4 9 -13 -8 -21 -9
-10 -13 -6 8 -12 -8 -21 -8
-11 -14 -6 9 -12 -7 -21 -8
-9 -12 -6 8 -13 -8 -21 -8
-8 -11 -6 9 -14 -8 -21 -8
-8 -10 -7 9 -14 -8 -21 -9
-8 -10 -4 9 -14 -9 -20 -8
-8 -11 -6 7 -15 -11 -22 -9
-8 -11 -4 8 -16 -11 -23 -9
-8 -8 -2 8 -16 -12 -23 -10
-10 -9 -1 8 -15 -10 -22 -9
-9 -8 0 9 -15 -10 -22 -8
-10 -10 2 12 -16 -10 -23 -9
-7 -14 5 18 -13 -10 -21 -9
-1 -16 8 29 -3 -1 -15 -7
5 -17 11 49 16 15 -6 -5
12 -15 22 74 38 35 8 2
18 -14 26 89 62 56 19 7
22 -15 33 106 90 84 34 12
26 -7 38 113 115 111 54 22
31 4 32 91 129 139 78 37
37 17 15 50 136 171 104 57
43 35 -10 -4 138 202 132 79
45 56 -44 -61 134 228 159 98
47 76 -76 -118 128 257 185 118
51 92 -107 -167 126 285 207 136
48 98 -136 -216 113 298 217 145
40 103 -159 -261 84 293 214 146
30 97 -168 -279 62 277 196 136
25 75 -173 -274 49 249 165 113
22 50 -183 -262 32 201 123 84
17 29 -189 -248 10 152 84 60
9 13 -178 -234 -31 85 40 36
-5 -3 -164 -222 -102 -12 -12 10
-13 -10 -152 -208 -151 -73 -44 -6
-16 -10 -138 -191 -164 -94 -60 -16
-18 -14 -123 -177 -156 -95 -64 -21
-19 -21 -111 -163 -146 -90 -66 -26
-17 -26 -99 -145 -132 -85 -66 -30
-13 -32 -86 -117 -116 -79 -64 -30
-9 -34 -66 -84 -95 -69 -57 -28
-8 -33 -51 -59 -80 -59 -53 -27
-9 -33 -36 -40 -67 -51 -47 -23
-7 -30 -27 -28 -57 -45 -43 -21
-7 -29 -18 -16 -48 -39 -39 -18
-7 -26 -13 -7 -43 -38 -37 -17
-8 -24 -8 -2 -37 -35 -36 -17
-10 -25 -3 2 -33 -33 -35 -17
-9 -23 0 6 -30 -33 -34 -16
-10 -21 3 11 -27 -30 -32 -13
-8 -21 6 12 -25 -28 -30 -12
-9 -19 7 16 -23 -26 -29 -11
-10 -20 9 19 -23 -26 -28 -10
-9 -19 9 20 -25 -26 -27 -10
-7 -18 9 20 -24 -27 -28 -11
-9 -19 9 22 -23 -28 -29 -11
-8 -19 12 23 -21 -28 -28 -11
-8 -20 12 21 -22 -28 -29 -12
-8 -21 11 21 -21 -29 -29 -11
-8 -19 12 21 -20 -28 -28 -10
-8 -21 12 22 -20 -27 -27 -10
-11 -21 12 25 -20 -25 -26 -9
-10 -19 14 27 -21 -25 -25 -9
-9 -19 15 28 -21 -25 -25 -8
-8 -18 15 27 -20 -27 -25 -8
-8 -17 14 27 -21 -28 -26 -9
-9 -18 15 27 -20 -28 -26 -9
-8 -19 16 27 -19 -27 -25 -9
-9 -20 15 26 -18 -28 -25 -9
-7 -18 15 27 -18 -27 -24 -7
-6 -19 17 28 -18 -25 -22 -7
-8 -20 16 29 -18 -26 -24 -7
-8 -18 17 30 -17 -25 -23 -7
-6 -17 17 30 -19 -26 -23 -7
-7 -18 19 31 -17 -26 -22 -6
-5 -16 16 31 -18 -26 -25 -6
-8 -17 19 32 -16 -25 -23 -7
-6 -17 19 31 -17 -26 -23 -7
-6 -16 19 30 -15 -25 -23 -7
-8 -17 20 30 -14 -24 -22 -5
-8 -17 22 32 -13 -23 -20 -4
-8 -17 20 33 -15 -22 -20 -4
-8 -17 21 35 -14 -23 -20 -4
-7 -16 21 35 -15 -22 -20 -4
-8 -17 21 35 -13 -22 -20 -3
-7 -16 23 35 -14 -23 -20 -4
-7 -15 28 34 -14 -24 -20 -6
-7 -16 32 34 -12 -22 -19 -5
-6 -15 34 34 -10 -22 -20 -4
-6 -14 34 34 -11 -22 -19 -3
-6 -16 36 36 -10 -19 -17 -2
-6 -17 36 37 -9 -17 -17 -2
-9 -17 36 37 -9 -18 -18 -2
-8 -16 37 39 -10 -17 -16 -1
-8 -15 37 39 -10 -18 -17 -1
-7 -16 37 39 -9 -17 -17 -1
-6 -15 38 40 -7 -17 -16 -2
-6 -15 37 41 -7 -15 -14 -1
-6 -15 38 40 -5 -14 -15 0
-4 -15 38 41 -4 -14 -14 0
-5 -14 39 42 -3 -12 -13 1
-4 -13 37 45 -4 -10 -13 2
-6 -14 38 47 -3 -10 -12 2
-6 -14 38 48 -3 -10 -11 2
-5 -11 38 49 -1 -9 -12 3
-5 -13 37 50 -1 -9 -11 3
-6 -14 37 50 1 -8 -10 3
-4 -13 37 51 3 -5 -9 4
-4 -12 38 52 5 -5 -8 6
-1 -9 38 54 6 -2 -7 7
-1 -9 39 57 8 1 -6 9
-1 -9 39 59 10 2 -3 9
2 -6 40 61 12 5 -2 10
1 -5 40 63 12 7 0 12
2 -4 40 65 14 7 1 12
4 -4 39 67 17 10 3 13
3 -4 40 68 19 12 3 13
5 -2 40 70 21 14 6 16
5 0 40 71 25 17 8 19
7 3 39 72 27 20 10 20
9 4 41 74 29 24 14 23
8 5 40 77 32 27 16 24
11 7 40 80 35 32 19 26
13 10 40 81 37 34 22 27
12 11 39 83 38 36 24 28
15 13 37 83 40 39 27 30
15 14 38 83 43 41 28 31
15 14 39 84 46 45 31 34
18 18 38 84 48 47 32 37
17 18 37 85 50 49 34 38
17 17 38 86 52 52 37 40
18 21 37 88 54 55 40 42
19 23 36 88 53 56 41 43
21 25 37 89 53 58 43 42
21 27 36 89 54 60 43 43
21 27 35 88 54 59 44 45
21 29 36 88 53 60 44 44
21 28 34 86 53 61 46 45
23 30 34 85 54 60 45 46
23 31 33 84 53 62 47 47
23 30 34 84 53 63 49 48
23 31 33 85 52 62 48 49
23 32 33 84 52 62 49 48
23 32 32 85 50 64 50 48
24 32 33 85 50 62 49 48
22 31 31 84 50 61 48 48
23 32 33 82 48 60 46 47
24 33 31 82 47 59 45 47
22 31 33 82 48 58 43 47
21 31 33 82 46 56 42 45
20 29 34 82 45 55 40 43
19 28 34 81 42 53 41 43
19 29 34 80 40 51 38 40
18 26 35 81 38 50 37 40
19 26 36 79 37 47 35 39
17 26 36 79 34 44 32 36
15 24 38 78 33 41 30 35
16 24 37 77 32 40 29 34
15 22 38 75 31 37 25 32
13 21 37 74 29 35 24 31
12 19 39 73 28 34 22 29
9 16 38 71 25 32 21 27
9 16 39 71 23 28 18 26
9 15 38 69 20 26 17 23
7 12 38 67 20 25 14 22
7 13 37 65 19 22 13 21
6 12 36 62 15 20 11 20
6 11 37 61 14 19 10 20
7 10 37 58 13 16 7 19
6 7 36 55 11 16 7 19
5 6 37 55 11 16 6 19
4 5 34 52 8 13 4 17
3 4 32 50 7 12 3 17
3 4 32 49 5 11 3 16
2 3 31 46 4 9 1 15
1 3 28 44 2 7 -1 14
2 4 29 42 1 7 -1 13
1 2 27 40 0 6 -2 13
3 2 26 38 0 5 -2 14
3 1 24 36 -1 5 -2 13
2 1 24 34 -2 5 -3 11
3 1 23 34 -3 5 -2 12
2 1 22 33 -5 3 -4 11
2 -1 24 34 -5 5 -3 11
1 -1 22 31 -8 3 -4 10
0 -3 19 29 -8 0 -5 10
0 -3 20 28 -8 0 -6 9
1 -3 19 28 -8 1 -7 10
2 -3 20 27 -9 -1 -8 10
2 -2 19 27 -9 0 -7 9
0 -4 21 27 -8 1 -7 9
0 -5 20 28 -10 -1 -7 10
1 -3 18 27 -11 -2 -7 9
1 -3 19 27 -13 -2 -8 8
2 -3 19 27 -12 -3 -9 8
0 -4 18 26 -14 -5 -10 7
-2 -6 19 26 -14 -5 -11 7
0 -5 19 27 -14 -5 -11 7
-2 -7 18 25 -14 -6 -11 7
-2 -7 18 26 -14 -5 -11 6
-2 -6 20 28 -13 -4 -10 7
-3 -6 19 29 -13 -4 -10 7
-1 -4 20 30 -13 -4 -10 7
-2 -5 21 32 -13 -4 -9 7
-3 -5 20 31 -13 -4 -10 6
-2 -5 18 31 -12 -6 -10 7
-2 -6 19 31 -13 -6 -11 6
-2 -6 19 32 -13 -4 -11 7
-2 -6 19 31 -11 -4 -11 6
-4 -6 19 32 -10 -3 -10 6
-4 -5 20 33 -11 -1 -9 7
-3 -4 18 33 -10 -2 -8 8
-3 -2 18 33 -10 -1 -9 8
-1 -2 19 35 -11 0 -8 9
-2 -3 19 34 -10 0 -7 9
-2 -1 18 34 -10 -1 -8 8
0 0 19 35 -9 0 -8 7
-1 -1 20 33 -10 0 -7 8
-1 -1 18 33 -8 1 -6 8
-3 -2 18 33 -8 2 -7 8
-2 -3 19 33 -8 3 -6 9
0 -1 19 34 -8 3 -4 10
-2 0 20 34 -7 3 -4 11
-1 2 20 35 -7 3 -3 11
-2 1 20 34 -7 4 -3 11
-2 1 18 34 -7 2 -3 11
0 2 20 33 -6 3 -3 10
-1 1 19 33 -6 4 -3 9
-2 1 19 33 -5 4 -4 10
-1 2 17 32 -6 3 -4 10
-2 1 17 31 -6 4 -4 10
-1 2 15 31 -7 3 -4 11
0 2 16 31 -7 2 -4 10
-2 1 15 31 -7 3 -4 10
-1 3 17 32 -6 3 -3 11
-2 3 16 32 -6 2 -3 11
-2 3 17 31 -6 3 -3 10
0 4 15 30 -5 2 -3 10
-1 2 15 29 -5 2 -3 10
-1 2 15 29 -5 2 -3 10
-2 0 15 29 -5 2 -4 10
-1 1 13 28 -6 1 -3 10
0 1 15 29 -6 1 -3 11
-2 1 14 28 -6 2 -3 11
-2 0 14 28 -7 2 -3 11
0 2 13 28 -7 0 -2 10
0 1 13 26 -8 -1 -4 8
-2 1 14 28 -5 1 -2 10
-2 0 14 27 -6 0 -3 10
-1 0 12 25 -6 0 -4 9
1 1 14 25 -5 2 -3 9
1 1 12 25 -6 0 -3 10
-1 0 13 25 -7 0 -4 9
-1 0 12 25 -7 -2 -4 9
-3 -2 12 24 -8 -2 -5 8
-2 0 10 24 -7 -2 -5 7
-1 -2 11 22 -8 -4 -6 8
-2 -2 11 23 -7 -2 -4 8
0 -1 10 22 -7 -2 -6 8
-2 -1 10 21 -8 -4 -6 7
-2 -1 11 21 -7 -2 -5 7
-2 -1 10 22 -7 -2 -5 6
-3 -2 10 21 -7 -4 -6 7
-3 -2 11 21 -8 -4 -6 7
-4 -4 10 21 -9 -5 -6 6
-3 -3 8 20 -10 -7 -7 4
-2 -2 11 20 -10 -6 -7 5
-4 -3 10 20 -9 -6 -6 5
-4 -4 9 18 -9 -7 -7 4
-3 -3 9 18 -8 -7 -7 4
-3 -5 11 19 -8 -8 -7 5
-3 -3 10 20 -8 -7 -6 6
-3 -2 11 20 -9 -7 -7 5
-4 -3 12 20 -9 -8 -7 4
-4 -4 10 18 -10 -9 -8 4
-5 -4 9 17 -12 -13 -9 3
-4 -4 9 17 -12 -13 -9 3
-4 -5 10 17 -11 -13 -9 2
-4 -6 10 17 -11 -13 -8 4
-4 -5 9 17 -10 -14 -8 3
-4 -5 8 18 -11 -14 -9 3
-4 -5 9 17 -10 -13 -8 3
-4 -3 10 19 -9 -13 -7 3
-5 -4 8 17 -12 -14 -8 2
-5 -6 10 19 -10 -13 -7 4
-3 -3 8 18 -11 -14 -8 3
-4 -4 10 17 -11 -16 -8 3
-4 -4 11 16 -11 -15 -8 3
-6 -5 10 15 -10 -15 -9 2
-5 -5 9 15 -10 -16 -9 2
-5 -4 10 15 -11 -15 -9 2
-5 -6 9 15 -11 -15 -8 2
-4 -4 10 16 -10 -15 -8 3
-5 -4 8 14 -11 -15 -9 2
-7 -5 9 14 -12 -16 -9 1
-5 -3 10 14 -12 -17 -9 2
-5 -4 9 13 -12 -17 -9 2
-5 -4 9 12 -13 -17 -10 1
-6 -6 10 13 -12 -16 -9 2
-7 -7 8 12 -11 -16 -9 2
-5 -6 9 11 -12 -16 -9 2
-6 -6 7 12 -13 -17 -9 1
-6 -6 8 12 -13 -17 -9 1
-6 -5 9 12 -13 -17 -9 1
-5 -6 9 12 -14 -17 -9 0
-5 -5 8 12 -13 -17 -8 2
-5 -4 8 11 -13 -18 -9 1
-6 -5 8 11 -14 -18 -8 1
-6 -6 9 11 -12 -18 -9 1
-8 -6 9 11 -11 -18 -8 2
-6 -7 9 11 -13 -17 -8 2
-5 -6 8 10 -13 -18 -8 1
-7 -8 8 10 -14 -18 -8 1
-7 -8 8 10 -14 -19 -8 0
-7 -7 9 11 -15 -18 -9 2
-7 -6 8 11 -15 -19 -9 1
-5 -6 7 11 -14 -19 -9 1
-7 -7 8 10 -15 -19 -9 1
-7 -7 7 9 -15 -19 -9 1
-6 -6 7 9 -14 -19 -9 1
-7 -8 9 9 -13 -18 -9 1
-8 -9 7 10 -15 -18 -8 1
-9 -8 8 11 -15 -19 -8 1
-9 -8 7 9 -15 -19 -8 1
-7 -8 7 10 -17 -19 -8 1
-8 -7 8 11 -15 -18 -7 1
-8 -6 10 12 -13 -17 -7 2
-5 -3 9 13 -12 -17 -6 3
-7 -2 11 15 -11 -15 -5 3
-7 0 14 18 -8 -14 -3 5
-5 2 17 18 -7 -12 -2 5
-6 3 17 19 -7 -12 -1 7
-6 6 17 19 -8 -13 -1 7
-8 5 17 19 -7 -12 -1 6
-8 6 18 20 -9 -12 -1 7
-6 7 18 20 -8 -12 -1 7
-7 7 19 20 -7 -12 0 7
-8 6 21 22 -6 -12 0 7
-8 8 21 22 -6 -11 0 7
-7 9 19 22 -4 -10 1 8
-5 13 18 22 -4 -9 2 10
-4 15 17 22 -3 -7 2 10
-5 16 16 19 -3 -8 4 13
-4 18 13 18 -4 -8 4 12
-6 17 9 15 -8 -10 2 11
-3 19 5 13 -9 -10 3 12
-4 17 4 13 -8 -10 5 13
-4 16 2 10 -10 -10 3 12
-3 17 2 9 -10 -10 3 12
-1 19 3 9 -8 -10 4 13
-2 20 1 9 -9 -10 5 14
-1 20 0 8 -10 -9 5 15
-1 21 -1 8 -11 -10 6 15
1 20 -1 9 -10 -9 7 16
3 19 0 9 -11 -8 7 17
3 17 -2 8 -12 -10 6 15
3 18 -2 9 -10 -9 8 15
3 15 -1 9 -11 -9 7 15
3 13 -2 10 -9 -9 7 14
4 11 -2 10 -9 -9 7 14
4 7 -1 9 -10 -9 6 13
4 5 -2 8 -11 -11 3 10
1 1 -2 9 -12 -12 4 9
-2 -3 -2 7 -17 -15 1 8
-3 -4 -1 6 -18 -17 -1 6
-5 -4 -1 4 -20 -18 -3 3
-7 -7 0 2 -20 -21 -5 2
-10 -9 -1 2 -22 -22 -7 0
-12 -11 -1 2 -21 -23 -6 0
-11 -13 0 3 -20 -22 -5 0
-12 -13 0 3 -21 -22 -6 0
-12 -15 -2 0 -23 -24 -8 -1
-12 -14 -1 2 -23 -24 -7 -2
-12 -15 -2 1 -25 -24 -7 -1
-12 -15 -1 1 -24 -25 -7 -2
-12 -13 0 2 -23 -24 -6 -1
-12 -14 0 2 -24 -26 -7 -3
-12 -14 0 0 -24 -25 -8 -3
-14 -16 -2 -1 -24 -26 -8 -3
-13 -18 -2 1 -23 -27 -7 -2
-13 -17 -2 1 -23 -27 -7 -2
-15 -18 -2 -1 -24 -28 -8 -3
-15 -19 -3 1 -23 -27 -6 -1
-14 -17 -2 0 -23 -26 -6 -2
-14 -18 -3 0 -24 -28 -7 -2
-12 -16 -2 0 -23 -27 -7 -2
-13 -16 -3 -2 -24 -29 -8 -3
-14 -16 -2 -1 -25 -30 -10 -4
-14 -15 0 0 -24 -28 -9 -3
-15 -13 1 0 -23 -27 -7 -2
-15 -14 2 1 -24 -29 -8 -2
-14 -15 5 6 -23 -27 -9 -3
-11 -19 6 13 -18 -23 -6 -3
-4 -22 9 25 -5 -11 1 -2
2 -22 15 48 14 6 11 2
9 -20 21 68 37 27 24 9
16 -19 26 79 60 49 36 13
20 -17 30 91 88 75 52 19
25 -8 30 88 110 104 74 32
31 6 25 68 127 140 103 54
36 21 12 29 133 170 131 74
41 41 -11 -24 134 199 159 95
42 60 -40 -74 128 226 185 114
45 78 -71 -125 127 256 211 132
46 91 -100 -174 121 275 227 146
41 96 -128 -225 102 281 230 151
30 96 -148 -265 71 269 222 149
23 83 -150 -270 57 247 197 131
17 57 -154 -262 42 205 155 101
14 36 -167 -254 19 153 112 75
9 21 -174 -244 -9 101 73 51
-4 3 -165 -233 -67 19 21 26
-15 -9 -155 -224 -128 -59 -23 4
-23 -15 -145 -211 -158 -95 -42 -9
-23 -13 -133 -194 -158 -100 -48 -14
-22 -15 -121 -181 -149 -95 -50 -19
-25 -23 -111 -167 -139 -93 -53 -25
-23 -28 -101 -150 -129 -91 -53 -26
-20 -35 -88 -127 -117 -85 -50 -27
-15 -38 -71 -97 -100 -76 -46 -25
-13 -35 -55 -70 -84 -67 -39 -23
-13 -35 -42 -50 -74 -59 -36 -22
-12 -33 -32 -37 -63 -53 -32 -19
-11 -31 -23 -25 -53 -48 -28 -17
-11 -29 -16 -18 -47 -44 -26 -16
-10 -27 -12 -13 -41 -42 -24 -14
-11 -27 -8 -10 -37 -40 -24 -13
-12 -26 -7 -6 -34 -38 -22 -13
-12 -24 -4 -3 -32 -36 -21 -10
-12 -24 -3 0 -31 -34 -20 -11
-11 -21 0 3 -30 -32 -19 -10
-11 -21 1 7 -30 -32 -19 -11
-12 -22 2 8 -30 -32 -18 -10
-10 -21 4 8 -29 -33 -18 -10
-10 -21 3 9 -28 -33 -19 -10
-11 -22 3 8 -29 -33 -19 -10
-11 -21 3 7 -27 -33 -19 -9
-12 -21 3 7 -26 -33 -19 -10
-10 -20 3 8 -26 -32 -20 -9
-10 -21 3 9 -24 -31 -18 -8
-12 -21 3 10 -26 -32 -18 -9
-11 -20 5 13 -25 -29 -16 -8
-11 -21 5 14 -28 -31 -17 -9
-11 -20 6 14 -27 -31 -16 -9
-10 -19 6 14 -25 -31 -18 -9
-11 -20 6 13 -25 -31 -17 -9
-10 -19 5 13 -24 -30 -18 -9
-11 -20 6 12 -22 -30 -17 -8
-11 -20 4 12 -23 -30 -17 -8
-10 -20 6 14 -23 -30 -16 -8
-10 -21 5 15 -25 -30 -16 -8
-12 -21 6 15 -25 -29 -15 -7
-10 -19 7 17 -26 -29 -15 -8
-9 -19 7 16 -26 -30 -15 -9
-8 -17 7 15 -24 -29 -16 -8
-9 -18 7 15 -23 -28 -15 -8
-8 -18 6 14 -22 -28 -15 -9
-7 -17 6 13 -20 -27 -16 -8
-7 -16 6 14 -21 -26 -15 -7
-7 -17 6 15 -20 -25 -14 -7
-7 -17 6 17 -20 -24 -14 -7
-8 -18 7 17 -22 -24 -14 -6
-8 -18 8 20 -21 -22 -13 -5
-7 -18 7 18 -21 -25 -13 -8
-6 -17 8 18 -19 -23 -13 -7
-5 -16 8 18 -19 -22 -13 -7
-7 -17 8 18 -18 -20 -12 -6
-5 -16 8 17 -17 -19 -12 -6
-5 -16 8 18 -16 -18 -10 -4
-6 -16 7 18 -16 -18 -11 -5
-5 -14 7 19 -16 -17 -10 -4
-5 -15 7 20 -19 -16 -11 -5
-4 -16 6 21 -19 -16 -11 -4
-5 -14 7 21 -17 -17 -9 -3
-7 -16 8 22 -16 -15 -9 -4
-6 -16 8 21 -15 -14 -10 -4
-4 -14 7 21 -13 -13 -8 -3
-4 -13 6 19 -13 -13 -10 -4
-4 -11 8 22 -11 -11 -6 0
-3 -11 6 23 -12 -12 -7 -1
-3 -12 7 26 -9 -10 -5 1
-2 -11 7 27 -11 -10 -5 0
-3 -13 7 28 -10 -8 -5 0
-3 -11 7 28 -9 -9 -4 1
-3 -11 7 27 -8 -7 -4 1
-3 -12 8 27 -7 -6 -3 1
-2 -10 7 28 -4 -4 -2 2
-1 -10 7 29 -2 -2 -1 3
0 -10 8 31 0 1 0 5
2 -7 9 33 1 3 2 7
0 -8 8 35 3 4 3 8
1 -6 8 36 3 6 4 9
4 -4 8 39 5 8 5 10
3 -3 7 39 7 9 7 10
3 -3 8 40 10 11 8 11
3 -4 7 40 10 13 9 12
4 -3 6 40 14 17 10 14
5 0 6 42 16 20 13 15
5 0 6 43 18 23 16 17
9 3 7 46 21 27 19 20
10 5 7 48 24 31 22 22
10 6 6 47 24 32 23 22
12 8 6 50 27 37 26 24
12 9 6 51 31 39 30 26
13 8 4 50 33 40 31 27
15 10 3 49 34 41 32 27
13 10 2 49 37 45 33 30
15 12 1 49 39 48 36 33
15 14 1 49 40 51 39 33
15 14 1 51 42 53 41 36
16 17 1 52 42 55 44 38
17 18 0 52 41 55 44 38
18 19 0 53 41 57 46 39
19 21 0 54 42 57 47 40
17 21 0 53 43 59 48 41
19 23 0 51 43 59 48 41
18 21 -2 50 43 59 47 42
18 22 -3 48 42 59 47 42
20 26 -3 48 42 60 50 43
18 24 -3 48 42 59 51 43
17 25 -3 49 41 59 52 44
18 25 -2 49 39 59 51 44
18 25 -2 49 39 58 50 44
19 25 -1 50 39 58 51 45
18 25 -2 48 38 56 49 42
17 24 -1 47 36 56 48 42
19 25 -1 46 37 55 47 42
18 25 -1 46 36 53 46 40
18 24 0 47 35 53 46 41
17 23 0 47 33 52 44 39
14 21 2 49 32 51 42 38
14 21 4 50 30 48 40 36
13 20 5 50 29 45 39 35
13 19 6 50 28 41 35 32
13 20 6 48 26 38 33 30
10 18 7 46 24 36 30 29
10 17 8 45 23 35 28 27
10 17 8 45 23 33 27 26
9 14 8 43 21 30 24 24
9 14 9 43 20 29 22 23
7 12 9 43 17 27 20 22
5 11 10 43 14 25 18 20
6 10 11 42 13 23 16 17
5 8 11 40 12 21 13 16
4 8 10 36 10 17 11 13
4 8 11 35 10 16 9 13
2 7 10 33 8 14 8 12
3 8 11 32 9 13 7 12
2 6 10 30 8 12 5 11
1 5 9 28 6 10 4 10
1 5 8 27 4 9 2 8
-2 2 8 26 1 7 1 7
-1 3 9 25 0 5 0 7
-1 1 9 23 -1 4 -2 4
-3 -2 8 20 -1 3 -3 4
-2 -2 8 18 -2 3 -4 4
-3 -2 6 15 -4 1 -4 3
-2 -2 6 14 -4 0 -4 3
0 -1 5 12 -5 -1 -6 2
-2 -2 4 12 -6 0 -6 3
-2 -2 4 11 -7 -1 -6 2
-3 -2 4 11 -9 -2 -6 2
-4 -4 3 9 -10 -4 -6 1
-3 -3 3 8 -11 -6 -8 0
-4 -6 4 6 -11 -5 -10 0
-5 -6 2 4 -12 -6 -10 -2
-4 -6 2 3 -12 -6 -10 -2
-5 -5 1 2 -12 -7 -11 -2
-3 -4 1 1 -12 -8 -11 -2
-3 -4 1 2 -13 -8 -10 -1
-4 -6 1 2 -14 -8 -11 -2
-4 -6 1 2 -16 -9 -12 -2
-5 -7 1 3 -17 -10 -12 -2
-6 -7 1 2 -18 -12 -14 -3
-6 -8 1 2 -18 -12 -15 -4
-7 -10 1 0 -19 -13 -16 -5
-6 -9 0 -1 -18 -14 -16 -6
-6 -8 1 0 -17 -13 -16 -6
-7 -10 1 0 -18 -13 -16 -6
-6 -8 1 2 -17 -12 -14 -4
-7 -8 1 3 -17 -13 -15 -5
-6 -7 1 3 -19 -15 -16 -6
-5 -6 3 6 -17 -13 -16 -5
-6 -7 4 7 -16 -13 -17 -5
-5 -4 6 10 -13 -11 -15 -5
-6 -4 9 12 -12 -10 -15 -4
-7 -2 9 15 -7 -8 -13 -2
-5 1 11 19 -5 -5 -12 -2
-6 3 13 25 -1 0 -8 2
-4 5 16 34 4 4 -5 4
-4 8 19 42 9 8 -2 5
-4 11 22 49 13 11 -1 6
-1 14 26 57 17 14 2 9
-1 16 29 64 21 17 4 10
-1 17 33 70 25 20 5 10
1 20 35 75 29 22 6 12
0 21 36 79 32 25 8 12
-1 23 37 82 35 28 10 14
-1 26 38 86 38 31 12 15
-2 26 42 93 41 33 14 17
-1 30 46 99 46 35 16 18
-1 34 49 107 53 40 19 21
0 39 49 108 59 46 24 25
3 45 47 108 66 52 29 29
5 48 48 111 76 59 33 30
7 54 55 118 89 68 39 36
9 60 58 119 97 74 44 40
10 66 59 116 107 84 51 45
10 79 58 109 119 94 61 52
11 89 54 101 131 106 72 61
14 100 46 89 141 120 83 69
17 112 25 51 144 132 93 80
16 122 4 -4 135 135 99 86
14 132 -19 -69 118 134 103 92
12 144 -48 -150 92 132 108 100
9 155 -82 -246 60 129 112 107
11 168 -123 -338 32 133 120 117
13 181 -164 -416 13 143 134 130
17 194 -199 -480 -5 158 150 142
21 204 -230 -535 -25 171 165 154
24 208 -257 -575 -51 179 176 164
29 206 -279 -601 -78 183 184 170
33 201 -297 -620 -108 184 189 175
36 194 -308 -628 -133 182 193 179
38 189 -319 -634 -167 173 193 182
40 182 -329 -645 -215 158 192 184
41 180 -337 -655 -267 138 191 189
39 176 -340 -657 -322 117 188 193
35 169 -342 -656 -374 93 182 193
32 166 -337 -647 -412 73 181 196
29 164 -330 -634 -441 53 176 197
23 161 -320 -613 -461 31 169 196
20 159 -308 -592 -472 7 161 194
17 154 -299 -569 -478 -14 155 195
16 151 -293 -549 -478 -31 154 198
15 152 -287 -526 -469 -41 154 205
14 154 -278 -502 -452 -45 156 208
15 155 -268 -473 -427 -40 161 215
16 156 -258 -450 -404 -34 165 218
13 156 -245 -421 -379 -30 166 218
12 151 -228 -389 -352 -22 166 216
10 147 -212 -357 -320 -9 169 216
11 140 -199 -327 -286 9 172 211
10 131 -182 -297 -255 21 168 203
8 118 -164 -267 -226 30 159 192
8 105 -148 -237 -198 36 148 176
6 90 -128 -203 -169 41 137 161
4 75 -111 -171 -143 44 128 145
3 63 -92 -142 -122 45 114 127
2 50 -75 -113 -103 39 97 109
0 37 -59 -88 -89 29 77 89
-1 25 -45 -65 -78 16 56 70
-5 11 -33 -46 -70 5 34 50
-5 1 -21 -29 -62 -7 15 33
-9 -10 -14 -18 -57 -17 -3 17
-11 -19 -7 -8 -52 -25 -17 5
-11 -25 0 1 -47 -28 -26 -6
-12 -31 3 8 -44 -33 -35 -16
-15 -39 7 14 -42 -35 -41 -23
-15 -44 10 17 -42 -39 -45 -29
-18 -48 14 21 -41 -41 -47 -31
-17 -49 16 25 -40 -43 -49 -33
-17 -51 19 27 -39 -45 -52 -36
-17 -52 22 30 -36 -46 -54 -39
-17 -53 27 34 -33 -45 -54 -40
-17 -53 26 34 -31 -46 -56 -40
-16 -53 27 35 -29 -45 -55 -39
-13 -51 26 38 -25 -43 -54 -39
-13 -46 30 44 -22 -41 -51 -37
-9 -44 32 49 -19 -38 -49 -36
-8 -44 35 55 -17 -36 -49 -35
-7 -43 34 59 -15 -37 -48 -34
-6 -40 35 62 -13 -36 -47 -34
-4 -40 36 64 -11 -36 -49 -34
-4 -37 38 67 -8 -35 -49 -34
-3 -37 39 70 -5 -34 -49 -35
-5 -39 40 70 -3 -34 -50 -37
-8 -41 42 74 -1 -34 -51 -39
-11 -45 44 77 -1 -35 -51 -39
-12 -48 46 80 -1 -35 -52 -40
-13 -47 47 82 -2 -38 -54 -42
-14 -51 48 85 -1 -39 -54 -43
-14 -54 49 87 -1 -41 -57 -45
-13 -55 50 89 1 -41 -58 -46
-14 -57 50 92 4 -42 -59 -48
-13 -57 51 95 6 -42 -60 -47
-13 -60 53 97 8 -41 -61 -49
-13 -63 53 99 9 -42 -63 -50
-13 -64 53 103 9 -43 -64 -52
-15 -68 56 108 11 -42 -64 -53
-14 -68 59 114 13 -41 -64 -55
-15 -69 60 119 14 -43 -67 -57
-17 -73 63 124 17 -44 -67 -58
-15 -74 65 129 21 -44 -68 -59
-14 -74 69 135 25 -44 -69 -60
-14 -75 70 140 28 -44 -71 -61
-13 -76 72 144 31 -43 -72 -62
-14 -80 75 150 35 -42 -72 -62
-14 -80 78 157 37 -43 -73 -64
-12 -81 80 163 40 -44 -75 -68
-13 -86 83 171 43 -43 -76 -69
-13 -87 87 181 48 -43 -76 -70
-14 -91 91 187 51 -44 -79 -72
-13 -95 95 194 55 -44 -81 -74
-13 -96 100 200 61 -44 -82 -76
-14 -97 102 209 67 -45 -84 -77
-12 -98 107 216 72 -44 -85 -79
-12 -101 110 224 78 -43 -86 -81
-13 -104 115 233 84 -41 -86 -82
-11 -105 118 242 90 -40 -88 -86
-12 -107 121 250 95 -40 -91 -88
-13 -109 124 258 101 -41 -94 -90
-11 -110 129 265 109 -40 -95 -92
-12 -112 133 272 116 -39 -97 -94
-10 -112 137 280 124 -38 -98 -97
-10 -113 141 288 134 -35 -98 -98
-11 -116 144 294 141 -32 -100 -99
-10 -117 147 300 149 -28 -100 -100
-10 -117 150 307 156 -25 -99 -103
-8 -118 154 314 165 -23 -99 -104
-6 -118 156 321 171 -20 -100 -106
-7 -119 161 327 179 -17 -100 -107
-7 -119 163 331 186 -15 -100 -109
-7 -121 165 335 195 -10 -101 -109
-7 -120 169 339 204 -5 -99 -110
-5 -119 170 343 212 0 -98 -110
-5 -119 170 344 220 6 -97 -110
-4 -120 170 346 228 12 -95 -109
-3 -118 171 348 233 18 -91 -109
-2 -118 170 347 238 23 -89 -110
-1 -116 170 348 244 30 -87 -109
0 -114 168 347 248 35 -85 -108
1 -112 169 345 254 40 -82 -107
3 -109 169 342 259 46 -78 -105
3 -107 166 337 263 51 -76 -103
4 -104 163 330 265 58 -71 -101
5 -101 159 322 267 64 -67 -99
4 -99 155 316 268 70 -62 -96
6 -95 151 310 269 76 -58 -92
6 -94 149 304 269 82 -52 -88
9 -93 144 296 267 87 -47 -85
10 -88 140 288 265 91 -42 -81
9 -84 136 278 261 94 -38 -77
10 -79 130 267 257 99 -35 -72
11 -73 125 257 254 102 -30 -69
11 -71 119 245 248 106 -25 -65
12 -67 113 234 241 108 -20 -61
10 -65 107 223 234 111 -16 -56
10 -61 103 213 228 111 -11 -51
12 -56 97 202 219 112 -7 -47
11 -55 93 190 209 112 -4 -42
10 -51 87 178 200 112 -2 -39
11 -46 82 168 190 110 1 -35
11 -42 76 155 180 107 1 -33
11 -37 72 144 171 106 4 -28
12 -34 67 134 162 104 7 -25
9 -31 62 124 153 103 11 -21
10 -28 56 113 142 99 11 -19
7 -28 52 103 131 95 12 -16
8 -25 48 96 121 92 13 -12
7 -22 44 87 110 87 14 -10
5 -22 41 80 101 81 14 -9
5 -19 38 72 92 76 14 -7
4 -16 35 65 83 71 12 -6
4 -15 33 58 75 68 13 -3
3 -12 30 51 68 63 13 -2
1 -12 28 46 61 59 12 0
2 -11 25 40 54 55 11 0
2 -9 23 37 48 51 11 1
0 -9 22 33 41 46 10 1
-1 -9 21 30 35 41 9 1
-2 -9 20 28 30 38 7 0
-3 -9 19 24 25 34 5 0
-2 -8 19 22 23 31 3 0
-4 -8 19 21 20 28 2 1
-3 -6 18 19 19 26 0 0
-4 -6 16 17 16 23 -1 0
-5 -8 16 16 15 23 -2 0
-2 -6 16 17 14 22 -1 0
-3 -7 16 15 12 21 -2 -1
-4 -10 17 17 12 20 -3 0
-4 -10 16 16 12 18 -2 -1
-6 -10 15 15 9 16 -4 -3
-5 -10 17 16 10 16 -5 -3
-5 -10 16 15 11 16 -6 -3
-6 -10 15 13 9 14 -7 -4
-5 -9 15 13 10 15 -6 -3
-5 -10 15 12 10 16 -6 -2
-5 -9 14 12 9 15 -6 -5
-4 -8 15 13 9 16 -5 -3
-6 -10 16 13 9 15 -6 -3
-5 -10 16 14 9 16 -5 -3
-6 -10 16 14 8 13 -6 -4
-6 -10 16 12 7 12 -7 -4
-5 -9 17 12 8 12 -7 -3
-6 -9 17 11 9 12 -5 -3
-6 -9 16 11 9 13 -6 -3
-5 -8 15 10 9 15 -5 -2
-6 -9 14 10 9 15 -4 -3
-5 -8 15 11 10 15 -4 -2
-6 -10 16 11 10 16 -4 -2
-6 -9 15 10 10 16 -3 -2
-3 -6 15 11 9 14 -3 -2
-4 -6 14 10 8 13 -5 -3
-4 -7 14 9 9 13 -6 -3
-4 -5 14 8 9 13 -5 -3
-5 -7 14 7 10 14 -5 -3
-4 -7 12 7 10 15 -5 -3
-5 -6 12 6 10 15 -4 -3
-4 -6 13 7 9 16 -3 -3
-3 -6 13 9 10 17 -3 -1
-4 -8 13 9 9 15 -3 -1
-3 -6 14 8 9 15 -2 -2
-2 -6 13 6 8 15 -3 -2
-3 -6 13 6 9 15 -2 -1
-2 -5 12 4 8 16 -2 -1
-3 -4 11 3 8 15 -2 -1
-3 -6 11 4 9 17 -2 -1
-2 -4 10 3 9 16 -2 -1
-2 -5 9 2 7 15 -2 -2
-3 -5 9 2 7 15 -2 -1
-2 -5 9 2 7 17 -1 -1
-3 -4 9 1 7 14 -1 -2
-1 -3 10 1 6 14 -1 -1
-2 -3 9 0 6 13 -2 -2
-2 -4 9 -1 7 14 -1 -2
-2 -4 8 -2 7 15 -1 -1
-3 -7 8 -3 6 15 -1 -1
-3 -5 7 -4 6 15 -1 -1
-2 -4 8 -3 5 15 0 -1
-3 -5 7 -5 3 13 -1 -2
-2 -4 7 -3 4 14 0 -1
-2 -3 5 -5 2 12 -2 -2
-1 -3 6 -5 3 13 -1 -2
-1 -1 7 -6 4 13 -2 -1
-3 -2 6 -8 3 13 -2 -1
-1 0 5 -8 3 12 -1 -1
0 0 6 -8 4 14 0 0
-1 0 4 -10 3 13 -1 -1
-1 -1 5 -10 2 13 0 0
-3 -1 3 -11 1 13 -1 -1
-2 -2 4 -11 -1 12 -1 -1
-1 0 4 -11 -1 11 -1 -2
-2 -2 4 -11 -1 11 -1 -2
-2 0 4 -11 0 11 0 -2
-3 -1 5 -13 1 12 -1 -2
-2 -1 3 -14 0 11 -1 -2
-2 -1 4 -13 0 13 0 -1
-2 -1 3 -14 -1 13 0 -2
-3 -2 3 -15 -3 10 0 -1
-2 -1 3 -14 -3 10 -1 -2
-3 -3 3 -14 -3 10 -1 -2
-3 -1 3 -16 -4 8 -1 -3
-3 -1 2 -16 -4 8 -2 -2
-5 -3 2 -17 -4 8 -2 -2
-4 -2 3 -17 -3 9 -1 0
-3 -2 1 -18 -4 9 -2 -1
-2 -1 2 -17 -3 10 -1 0
-2 -1 2 -18 -3 11 1 -1
-2 -1 1 -19 -5 9 -1 -2
-3 -2 2 -20 -6 8 -1 -1
-3 -3 2 -19 -6 8 0 -1
-2 -2 1 -20 -8 6 -2 -1
-2 -1 1 -19 -8 5 -2 -2
-3 -3 1 -20 -6 5 -1 -1
-2 -3 1 -22 -7 4 -2 -2
-2 -2 1 -22 -7 6 -2 -2
-2 -2 0 -22 -6 6 -2 -3
-1 -1 0 -22 -6 7 0 -2
-1 -1 0 -22 -7 7 -2 -2
-2 -1 0 -22 -8 6 -1 -2
-1 0 1 -22 -8 6 -2 -2
-2 0 0 -22 -9 6 -2 -3
-3 0 0 -22 -9 4 -1 -1
-2 0 -1 -23 -9 3 -3 -2
-2 -2 0 -24 -9 4 -3 -3
-1 0 -1 -24 -9 3 -3 -2
-2 -1 0 -25 -8 4 -2 -1
-2 0 0 -24 -8 5 -2 -1
0 2 0 -24 -9 6 0 -1
-2 1 -1 -25 -10 5 -1 -1
-1 2 -1 -25 -11 5 -1 -2
0 3 -1 -24 -10 6 0 -1
0 2 -2 -26 -10 4 -1 -1
0 2 -2 -25 -8 4 0 -1
-1 1 -2 -25 -8 4 0 -1
-1 0 -3 -26 -9 4 0 -1
-1 1 -2 -26 -8 4 1 0
-1 -1 -2 -26 -9 4 0 -1
-1 -1 -2 -26 -10 5 0 -2
-1 0 -2 -27 -10 5 0 -1
-2 -1 -2 -26 -10 4 0 -1
-1 1 0 -26 -10 5 0 -1
0 1 -2 -27 -12 3 -2 -2
0 1 -2 -27 -10 3 -1 -1
2 2 -3 -29 -10 3 0 -2
0 1 -3 -31 -11 2 -1 -2
1 2 -3 -30 -9 3 0 -1
1 2 -4 -30 -11 4 0 0
0 0 -4 -31 -11 4 0 -1
1 1 -5 -30 -12 2 -1 -3
0 1 -5 -30 -12 2 -1 -3
1 2 -4 -31 -11 4 0 -2
1 3 -4 -32 -11 2 0 -1
0 2 -3 -31 -10 3 1 -1
2 3 -4 -32 -9 4 0 -1
3 4 -4 -32 -10 2 0 -1
2 4 -4 -32 -10 2 -1 -1
1 4 -5 -33 -10 3 -1 -1
0 2 -4 -33 -10 3 0 -1
1 1 -4 -32 -11 2 1 -2
2 3 -4 -33 -11 3 2 -1
1 1 -3 -32 -11 3 2 -1
2 3 -2 -32 -10 3 2 0
1 2 -1 -32 -9 4 3 0
1 2 -1 -33 -8 3 3 0
2 3 -4 -33 -8 3 2 0
1 4 -4 -33 -8 3 2 -1
2 4 -5 -33 -8 4 2 -1
1 3 -5 -34 -10 3 1 -1
0 2 -5 -35 -12 1 1 -3
1 3 -4 -35 -12 2 1 -2
1 3 -4 -35 -12 2 1 -2
0 2 -5 -35 -11 1 1 -3
1 3 -4 -35 -10 1 1 -1
0 3 -3 -35 -9 2 2 0
0 3 -3 -34 -8 2 3 0
1 5 -3 -35 -9 3 3 0
1 3 -5 -37 -11 2 2 -1
2 4 -4 -37 -11 1 2 0
1 3 -6 -37 -12 1 1 -2
2 4 -5 -37 -12 1 1 -2
3 4 -5 -37 -12 0 1 -2
0 3 -4 -37 -10 0 2 -2
0 2 -4 -37 -10 -1 2 -2
0 3 -3 -37 -9 0 2 -1
1 3 -5 -38 -10 -1 1 -2
2 5 -4 -37 -10 0 2 -2
2 3 -4 -37 -10 2 3 -1
0 4 -4 -39 -10 1 3 -1
3 5 -4 -38 -11 2 4 -1
2 5 -4 -38 -12 2 4 -1
2 5 -3 -38 -11 1 5 0
2 5 -3 -38 -10 -1 5 0
1 4 -4 -38 -10 0 4 -1
2 4 -3 -37 -9 1 6 0
2 5 -5 -39 -10 1 4 -1
2 4 -4 -38 -9 2 5 -1
3 5 -4 -38 -10 3 5 -1
2 5 -5 -39 -10 0 4 -2
3 6 -4 -38 -9 0 5 -1
3 7 -4 -38 -10 -1 5 -1
2 6 -4 -38 -10 0 5 -1
3 7 -4 -39 -10 -1 4 -1
2 5 -4 -40 -10 -1 4 -2
2 5 -4 -41 -10 0 5 -2
3 7 -5 -41 -9 0 5 -2
1 5 -4 -40 -8 0 5 -1
1 5 -4 -41 -9 -1 4 -1
1 5 -3 -40 -9 1 6 0
0 6 -4 -40 -10 0 5 -1
3 8 -3 -40 -11 1 4 -2
2 8 -3 -38 -11 0 5 -2
2 7 -3 -36 -9 0 6 0
3 8 -5 -36 -10 0 4 -2
1 7 -5 -37 -10 -1 5 -1
2 8 -5 -37 -9 0 5 -1
1 7 -4 -36 -8 -1 5 0
1 6 -5 -36 -11 -2 4 -1
2 7 -4 -34 -10 -1 5 -1
1 7 -4 -34 -10 -1 5 -2
2 7 -3 -34 -10 0 6 -1
3 9 -3 -34 -9 -1 7 -1
2 8 -4 -35 -10 -2 5 -3
2 9 -4 -35 -10 -1 6 -2
4 9 -4 -35 -9 -1 7 -2
2 8 -4 -35 -9 -1 7 -1
3 8 -3 -36 -9 0 8 -1
1 7 -4 -36 -8 0 7 -1
2 6 -5 -35 -10 -2 6 -1
3 7 -4 -35 -10 -1 7 -2
2 7 -3 -35 -10 -1 7 -2
3 9 -2 -34 -9 -1 7 -1
2 8 -2 -33 -9 -2 6 -1
2 8 -3 -35 -10 -2 6 -1
4 10 -2 -36 -8 -2 6 -1
3 9 -3 -35 -7 -2 6 -2
2 9 -3 -36 -8 -2 7 -2
2 8 -4 -36 -8 -2 6 -2
1 7 -4 -35 -9 -2 6 -2
3 8 -3 -35 -9 -1 8 -1
2 8 -2 -36 -9 -1 8 -1
1 6 -3 -36 -9 -3 8 -1
2 7 -1 -35 -8 -2 8 0
1 7 -2 -37 -8 -1 8 0
2 8 -2 -36 -7 -2 9 0
4 9 -1 -36 -7 -2 9 0
3 8 -2 -37 -6 -1 9 -1
4 10 -2 -37 -8 -3 10 -1
3 9 -3 -37 -7 -3 9 -1
3 8 -3 -37 -9 -2 10 -3
3 9 -1 -36 -8 -2 10 -1
1 8 -1 -37 -8 -2 9 -2
2 7 -1 -37 -7 -2 9 -2
2 9 -1 -38 -7 -4 10 -1
1 9 -1 -38 -6 -4 10 -2
2 10 0 -37 -4 -2 11 0
3 11 -1 -38 -6 -3 10 -1
3 11 -2 -38 -7 -4 10 -1
3 12 -1 -38 -5 -3 10 -1
3 11 -1 -39 -7 -5 10 -2
3 11 0 -39 -8 -5 10 -1
3 10 0 -39 -9 -4 10 -1
2 9 1 -39 -8 -4 10 -1
4 10 0 -40 -7 -4 10 -1
4 10 -1 -40 -7 -4 10 -1
3 10 -2 -40 -7 -5 10 -1
4 11 -2 -40 -6 -4 12 0
3 9 -4 -40 -7 -4 11 0
4 10 -5 -41 -8 -4 11 -1
6 12 -5 -40 -8 -4 11 -1
3 12 -5 -40 -8 -5 12 0
5 13 -6 -40 -8 -5 11 -1
4 13 -7 -42 -7 -6 10 -2
4 12 -9 -42 -7 -6 10 -2
5 13 -10 -42 -7 -5 11 -1
4 12 -11 -43 -8 -7 10 -2
4 11 -11 -42 -5 -7 11 -1
4 13 -11 -42 -7 -7 11 -1
4 12 -11 -41 -5 -6 12 -1
5 13 -11 -42 -6 -7 11 -1
5 12 -12 -42 -7 -6 10 -2
5 12 -12 -42 -7 -7 11 -2
5 12 -11 -42 -7 -7 12 -2
5 12 -12 -43 -8 -9 11 -3
6 13 -11 -43 -7 -8 12 -2
5 14 -12 -42 -7 -9 12 -2
4 11 -13 -44 -7 -10 10 -3
5 12 -14 -44 -8 -9 11 -3
5 13 -13 -43 -7 -8 11 -3
7 14 -14 -43 -7 -8 11 -3
7 14 -12 -42 -7 -7 13 -2
6 12 -14 -42 -7 -9 12 -3
6 14 -13 -42 -6 -9 13 -2
8 16 -13 -43 -6 -7 13 -2
7 14 -14 -44 -6 -8 13 -2
6 15 -14 -45 -6 -8 13 -2
5 14 -14 -44 -6 -8 13 -1
6 14 -17 -45 -7 -9 13 -2
7 14 -16 -44 -6 -9 15 -3
5 14 -16 -44 -7 -9 15 -2
7 15 -16 -44 -7 -10 15 -3
6 15 -16 -44 -6 -11 15 -2
6 14 -16 -44 -6 -11 15 -3
7 16 -16 -44 -6 -11 15 -3
8 16 -17 -46 -6 -10 14 -3
7 16 -17 -46 -5 -11 15 -2
7 16 -17 -47 -6 -12 14 -3
5 15 -19 -49 -6 -12 14 -4
6 15 -18 -47 -5 -11 14 -5
6 15 -17 -46 -6 -12 15 -5
4 14 -17 -47 -7 -13 14 -6
6 14 -19 -47 -7 -12 15 -6
7 15 -19 -46 -6 -13 15 -5
6 16 -18 -47 -6 -12 16 -4
7 16 -19 -48 -5 -12 16 -5
8 16 -20 -49 -4 -13 15 -7
8 17 -20 -48 -4 -12 16 -5
7 16 -21 -49 -5 -13 14 -5
7 15 -20 -47 -4 -14 15 -4
8 16 -19 -48 -5 -13 15 -6
8 15 -20 -48 -6 -13 15 -6
6 16 -20 -47 -6 -13 16 -5
7 16 -20 -48 -6 -14 16 -5
7 17 -20 -50 -6 -16 15 -6
8 18 -20 -48 -4 -15 16 -6
8 18 -20 -49 -5 -15 15 -7
7 17 -20 -49 -4 -14 15 -6
9 20 -20 -49 -4 -15 15 -6
9 19 -20 -48 -4 -14 17 -5
9 18 -20 -49 -4 -14 18 -5
9 19 -21 -50 -4 -15 17 -5
8 18 -22 -51 -5 -17 16 -6
8 21 -20 -49 -3 -15 18 -6
8 21 -20 -48 -2 -14 18 -6
9 22 -20 -48 -1 -14 19 -5
10 24 -19 -47 0 -14 19 -5
9 25 -17 -45 2 -13 20 -4
11 29 -15 -44 3 -12 21 -4
12 32 -12 -41 7 -11 23 -2
10 33 -11 -41 5 -11 23 -1
11 33 -11 -41 6 -11 23 -2
9 32 -12 -42 6 -11 22 -2
9 34 -12 -41 7 -12 23 -2
12 35 -10 -40 8 -10 24 -2
9 34 -9 -40 8 -11 23 -2
8 34 -9 -41 9 -10 24 -2
10 37 -8 -40 9 -11 24 -1
11 37 -9 -41 9 -11 23 -3
12 41 -10 -40 10 -9 25 -1
12 44 -12 -41 10 -9 26 0
11 47 -13 -41 11 -8 28 1
13 48 -14 -42 11 -9 27 2
11 48 -15 -46 10 -9 27 1
13 49 -17 -46 10 -10 28 2
13 51 -20 -48 9 -11 28 2
13 50 -24 -51 8 -12 27 1
15 52 -25 -51 9 -11 28 3
16 53 -25 -51 8 -11 29 4
18 53 -23 -49 10 -9 32 5
20 54 -24 -49 11 -9 33 6
18 53 -25 -49 11 -9 32 6
21 54 -27 -51 11 -10 31 6
22 55 -25 -50 12 -9 33 6
21 52 -28 -51 11 -10 32 5
21 51 -27 -50 12 -10 32 5
21 48 -27 -51 12 -10 32 4
21 45 -27 -51 12 -11 30 4
22 44 -28 -50 11 -12 30 3
20 42 -27 -49 12 -12 31 3
21 40 -27 -51 11 -13 30 0
19 37 -28 -52 8 -16 27 -1
17 34 -30 -54 6 -19 24 -4
16 34 -26 -52 6 -19 25 -4
15 33 -27 -55 5 -20 23 -6
12 32 -25 -54 5 -22 22 -6
10 30 -24 -55 4 -23 22 -9
7 28 -25 -54 4 -23 21 -10
9 27 -25 -56 4 -24 20 -11
8 27 -25 -56 3 -24 20 -10
7 25 -26 -57 2 -25 20 -11
8 26 -27 -57 1 -26 19 -12
9 25 -27 -58 1 -27 18 -12
10 27 -26 -58 2 -26 19 -14
10 28 -26 -57 4 -25 21 -12
9 26 -26 -57 4 -26 20 -12
9 27 -27 -59 1 -26 19 -13
9 26 -27 -60 2 -27 19 -13
9 27 -28 -60 2 -28 19 -13
10 27 -27 -60 2 -28 19 -15
8 25 -26 -60 2 -28 19 -15
7 24 -27 -61 1 -29 18 -16
7 25 -24 -59 2 -28 19 -15
6 25 -24 -58 1 -28 18 -16
7 28 -22 -57 3 -26 18 -14
7 26 -21 -56 4 -26 18 -14
6 24 -20 -53 3 -27 19 -15
12 24 -17 -46 7 -24 21 -15
16 22 -16 -40 15 -16 25 -15
23 19 -15 -28 28 -1 34 -11
28 19 -10 -7 50 17 46 -6
31 20 -4 8 71 38 60 0
35 22 2 17 93 64 76 6
38 28 2 23 117 93 95 19
45 41 -2 15 139 124 122 36
53 57 -6 -3 157 158 152 57
57 75 -16 -37 159 188 181 77
59 95 -31 -80 156 215 207 98
64 115 -55 -118 156 247 236 120
67 126 -87 -163 151 271 258 137
62 135 -114 -215 132 280 267 146
53 141 -141 -267 104 277 266 149
45 136 -158 -299 72 257 250 141
39 117 -155 -297 52 222 213 115
31 91 -149 -283 33 168 162 81
23 75 -157 -276 7 114 118 55
14 63 -166 -276 -38 46 69 31
2 47 -164 -269 -91 -33 19 5
-4 39 -157 -258 -122 -73 -5 -10
-6 34 -153 -247 -131 -88 -15 -18
-5 31 -146 -235 -124 -86 -19 -25
-5 29 -137 -222 -114 -81 -19 -28
-6 22 -131 -212 -109 -80 -21 -33
-5 16 -121 -200 -104 -80 -22 -35
-5 7 -111 -184 -98 -81 -25 -38
-2 -1 -100 -161 -87 -78 -23 -38
2 -1 -86 -136 -71 -69 -18 -35
3 2 -69 -112 -56 -60 -13 -32
5 4 -57 -95 -46 -55 -11 -31
7 3 -49 -83 -36 -50 -7 -28
7 3 -43 -75 -29 -46 -4 -26
8 7 -37 -67 -23 -41 0 -24
9 10 -32 -62 -18 -39 1 -24
7 10 -27 -57 -13 -35 3 -22
6 10 -25 -54 -12 -34 4 -21
5 11 -26 -52 -11 -33 5 -21
6 11 -23 -50 -10 -31 7 -20
6 12 -22 -47 -10 -30 6 -18
5 10 -20 -45 -9 -30 7 -17
6 12 -18 -44 -7 -30 7 -18
7 12 -18 -43 -8 -30 6 -19
7 11 -18 -43 -6 -31 6 -19
8 13 -17 -42 -4 -30 7 -19
8 13 -18 -43 -5 -28 7 -19
7 13 -19 -42 -5 -27 8 -20
7 15 -18 -41 -4 -27 8 -19
5 13 -18 -41 -7 -27 7 -19
6 13 -17 -39 -5 -27 9 -18
7 13 -17 -39 -7 -29 8 -19
6 11 -17 -39 -7 -29 6 -19
6 11 -16 -40 -7 -29 6 -18
8 11 -15 -39 -4 -29 7 -19
9 11 -15 -39 -4 -27 8 -18
9 12 -17 -40 -3 -27 7 -18
9 12 -17 -40 -4 -27 7 -19
9 14 -15 -38 -2 -25 9 -19
8 11 -15 -38 -3 -24 9 -19
9 11 -13 -37 -2 -24 9 -18
10 13 -12 -36 -3 -24 9 -17
9 12 -13 -37 -3 -25 8 -18
8 10 -13 -37 -2 -24 8 -18
9 11 -12 -37 0 -24 9 -17
8 10 -14 -38 0 -24 8 -18
10 13 -13 -37 1 -22 10 -17
12 15 -14 -38 0 -22 9 -19
11 14 -15 -36 3 -20 10 -18
11 16 -14 -35 1 -19 10 -17
11 15 -14 -35 2 -19 10 -17
11 14 -14 -35 1 -20 9 -16
10 14 -14 -35 1 -21 8 -17
9 11 -14 -35 3 -20 10 -16
11 12 -14 -35 4 -19 10 -16
10 13 -14 -35 5 -18 10 -17
11 14 -14 -35 6 -16 10 -17
12 15 -13 -34 7 -15 11 -16
10 16 -14 -33 6 -13 12 -16
11 16 -14 -32 5 -14 12 -16
12 17 -14 -30 7 -11 13 -14
11 16 -14 -30 6 -12 12 -15
12 15 -13 -30 7 -12 12 -14
11 14 -14 -30 7 -11 13 -14
11 14 -14 -31 8 -9 11 -15
12 15 -15 -31 10 -8 12 -15
12 14 -16 -30 10 -6 14 -13
12 13 -15 -29 11 -5 15 -13
13 16 -14 -27 12 -2 15 -12
14 16 -14 -26 11 -2 16 -11
15 18 -14 -25 12 0 18 -10
14 16 -14 -24 13 0 16 -11
13 16 -14 -23 15 2 19 -9
15 17 -14 -23 15 3 19 -10
14 16 -14 -24 16 4 19 -10
15 16 -13 -22 18 6 21 -8
15 17 -14 -23 19 7 22 -6
15 16 -15 -22 20 9 23 -7
16 19 -15 -21 20 11 24 -6
16 18 -15 -18 21 12 25 -4
17 20 -15 -17 21 14 27 -3
18 21 -13 -15 23 15 27 -2
17 20 -15 -15 25 16 30 -2
19 21 -14 -14 26 18 31 -1
21 22 -14 -14 29 21 33 1
21 21 -14 -14 31 22 33 2
21 22 -15 -14 32 25 35 4
21 22 -15 -13 33 27 35 4
21 22 -17 -11 34 30 37 6
23 24 -16 -9 35 32 39 8
23 24 -16 -8 36 33 41 8
25 26 -16 -6 38 34 41 10
25 26 -16 -6 38 36 43 11
25 26 -17 -6 40 38 44 12
28 29 -17 -6 42 40 46 13
28 29 -17 -5 44 42 47 15
28 30 -19 -5 45 45 50 16
29 29 -18 -5 45 47 52 17
28 31 -19 -4 46 49 53 18
28 33 -20 -2 47 51 55 20
30 35 -19 -3 47 52 57 21
28 32 -19 -1 47 52 59 22
27 32 -17 0 49 54 59 23
29 33 -17 0 48 55 60 24
31 34 -18 0 49 55 61 25
31 35 -18 0 48 56 61 26
31 34 -19 0 50 58 63 28
32 36 -19 -1 48 58 64 27
28 37 -21 -1 45 58 64 28
29 38 -21 -2 44 56 63 28
30 39 -20 -1 45 57 63 29
30 38 -20 0 44 57 62 29
30 38 -20 0 44 57 63 29
30 39 -20 -2 43 56 64 29
28 37 -19 -1 43 58 64 30
30 39 -21 -3 42 56 62 29
29 40 -22 -3 41 57 64 31
28 40 -20 -2 41 58 65 32
29 43 -21 -2 41 58 62 31
29 42 -19 -1 41 58 63 32
27 40 -19 -1 41 56 62 31
27 40 -17 -1 40 54 61 30
26 40 -18 1 40 53 60 30
26 39 -16 -1 39 53 59 29
25 38 -14 1 41 53 59 28
25 38 -14 2 41 52 57 27
26 39 -15 2 41 52 55 25
23 38 -13 2 39 50 54 25
24 38 -12 4 40 50 54 25
24 39 -11 5 40 49 52 24
21 38 -11 4 37 47 50 23
21 38 -11 5 37 45 48 21
18 34 -11 5 37 42 46 20
18 33 -9 6 37 42 46 19
19 34 -9 5 38 40 44 17
17 33 -9 5 37 39 42 17
17 31 -8 5 36 38 40 15
16 32 -6 4 36 36 39 14
14 30 -7 4 35 36 37 13
15 31 -5 4 35 35 37 13
15 31 -5 4 34 33 35 12
14 28 -4 4 34 32 34 11
13 26 -3 4 35 31 33 10
11 24 -4 2 33 30 30 8
12 25 -2 3 33 29 31 7
12 23 -2 1 32 27 28 6
10 22 -3 0 31 25 26 5
10 24 -2 0 29 24 26 5
10 23 -3 -1 29 23 23 4
9 23 -2 -2 28 22 23 3
10 22 -1 -1 27 21 22 3
8 20 1 -1 28 20 21 2
9 20 -2 -3 24 17 19 1
10 21 0 -3 25 18 20 1
8 19 -1 -5 26 17 19 0
9 19 0 -4 25 16 18 0
7 18 -1 -5 24 16 17 0
7 18 -1 -6 23 15 16 -1
8 19 -2 -6 23 16 17 0
8 18 -1 -6 23 16 17 0
9 19 0 -5 23 17 17 1
7 18 2 -4 23 16 16 0
6 17 0 -6 21 14 15 -1
7 18 1 -6 23 16 16 0
6 16 2 -6 23 17 16 0
7 17 1 -7 23 16 15 0
8 19 0 -7 21 16 16 0
7 18 1 -7 21 16 16 0
6 19 1 -6 23 16 16 1
6 19 1 -6 21 16 16 0
5 17 1 -5 22 17 15 0
6 18 3 -4 22 17 15 0
6 16 5 -3 22 17 16 1
6 17 3 -4 22 18 15 1
7 18 4 -4 24 19 16 2
6 19 3 -5 22 18 16 2
6 20 3 -5 22 19 16 2
6 18 3 -4 23 19 16 3
5 18 1 -3 22 19 16 3
6 19 3 -2 23 20 18 4
5 18 3 -3 20 19 16 2
5 16 5 -1 22 19 17 2
7 18 4 0 23 20 17 3
7 18 5 -1 22 19 17 3
7 18 5 0 23 20 16 4
8 18 2 -2 22 18 15 2
6 16 4 -2 22 21 18 4
9 20 4 -3 22 20 17 4
8 19 4 -1 22 21 17 5
6 18 3 0 20 20 17 5
7 18 4 1 22 21 18 6
6 16 4 1 22 20 18 5
7 16 4 1 20 20 15 5
7 16 5 1 20 20 16 5
8 16 4 -1 21 19 16 6
8 16 5 0 20 20 18 6
7 16 5 -1 19 19 15 6
9 18 4 -2 19 19 16 6
10 18 5 0 18 20 17 6
8 17 4 0 17 19 16 5
8 17 6 1 15 19 16 5
7 15 5 1 14 16 15 4
6 14 4 0 13 15 14 4
7 14 6 0 12 15 14 5
6 12 5 -1 12 14 12 5
7 11 5 -1 12 13 12 4
8 12 4 -2 10 14 11 3
8 12 4 -2 10 13 12 3
9 13 5 -1 11 14 11 4
9 12 5 -2 8 14 12 4
8 12 4 -2 7 13 12 4
8 11 6 -1 8 13 11 3
7 9 6 0 5 12 9 3
7 11 6 -1 4 11 8 3
6 9 6 -1 5 12 9 3
4 6 5 -2 4 11 8 3
5 7 5 -3 3 11 8 2
5 8 5 -2 3 11 8 3
5 9 5 -3 2 10 8 2
7 7 6 -3 2 10 8 4
7 8 6 -2 1 10 7 4
7 8 5 -2 -1 8 5 2
5 8 7 -1 0 9 6 2
5 7 6 -4 -1 7 4 0
4 6 7 -2 0 7 3 1
4 7 6 -3 -2 6 1 0
4 6 5 -3 -2 7 2 1
5 7 5 -4 -3 6 2 0
2 5 5 -3 -2 7 3 0
4 4 6 -2 -3 8 3 2
4 5 5 -2 -4 8 3 3
4 5 4 -3 -4 7 2 2
5 5 6 -1 -3 8 4 3
4 4 6 -2 -5 7 2 3
3 2 6 -3 -5 6 1 2
4 2 5 -4 -6 4 0 1
2 1 4 -4 -7 5 0 1
3 3 4 -4 -7 5 -1 1
2 2 4 -2 -6 6 0 0
2 -2 4 -3 -8 6 0 0
1 -2 6 -1 -7 8 2 2
1 0 4 -1 -8 6 0 1
2 0 5 -1 -9 6 0 1
2 0 6 -2 -8 5 0 1
2 -2 5 -3 -8 4 -2 0
3 0 5 -3 -9 3 -3 -1
1 -2 7 -2 -8 5 -1 2
1 -3 5 -2 -9 5 -2 1
1 -2 5 -1 -8 6 -2 1
0 -3 4 -3 -11 5 -3 0
-1 -5 5 0 -11 5 -2 0
1 -3 5 0 -10 5 -2 1
0 -4 5 1 -10 6 -1 2
1 -3 5 0 -10 5 -1 3
1 -3 6 -1 -9 5 -3 2
1 -4 5 -1 -11 4 -5 0
3 -2 7 1 -10 6 -3 3
3 -1 7 2 -9 6 -2 2
3 1 6 3 -9 7 -1 1
2 5 9 4 -8 8 -1 2
1 5 10 6 -7 9 0 4
3 7 14 8 -6 10 1 4
3 8 15 10 -5 11 2 6
2 10 15 9 -5 10 2 6
2 12 16 10 -4 10 1 7
1 12 16 8 -6 9 0 6
3 12 17 10 -5 12 2 7
4 13 19 11 -4 13 4 8
3 12 18 13 -5 12 1 7
2 15 21 15 -3 13 2 8
1 15 20 13 -4 13 2 8
2 16 18 13 -5 13 2 7
2 18 18 14 -3 15 5 10
0 19 16 11 -4 15 4 11
2 21 15 11 -2 15 4 12
4 23 13 9 -4 15 4 12
4 22 10 8 -4 15 5 13
4 24 8 7 -4 17 7 14
5 25 4 5 -6 16 4 13
7 25 3 5 -5 16 5 14
8 26 3 6 -7 17 5 15
8 25 2 6 -8 15 5 15
9 25 2 6 -8 17 7 15
8 24 3 6 -7 18 6 15
9 23 0 5 -7 17 5 14
9 22 0 4 -8 16 5 15
10 22 0 4 -7 18 7 16
9 23 0 5 -6 19 8 16
9 22 -2 7 -6 19 7 16
9 18 -5 6 -7 19 6 16
9 17 -5 7 -7 19 5 15
9 15 -5 7 -8 16 3 12
7 9 -5 5 -11 14 0 11
7 6 -6 3 -12 13 -2 9
3 1 -7 3 -13 10 -4 7
1 -1 -8 2 -15 8 -6 5
0 -1 -6 2 -16 9 -5 5
-3 -3 -7 1 -17 6 -7 4
-2 -2 -6 2 -17 7 -8 3
-3 -3 -7 1 -19 6 -9 2
-5 -6 -6 3 -20 5 -9 1
-4 -6 -7 2 -21 5 -10 0
-5 -9 -7 2 -20 3 -12 0
-5 -11 -8 0 -21 3 -13 -1
-6 -11 -8 -1 -22 1 -15 -2
-7 -13 -9 -2 -23 1 -15 -2
-6 -12 -8 -1 -22 3 -13 -1
-5 -10 -9 -2 -22 3 -13 -1
-7 -12 -9 -1 -21 4 -13 0
-7 -12 -9 0 -21 5 -13 0
-6 -13 -9 1 -21 3 -13 -2
-6 -12 -8 0 -18 4 -13 -1
-6 -12 -7 1 -17 5 -12 -1
-7 -12 -7 0 -18 4 -13 -2
-5 -11 -7 -1 -17 3 -14 -2
-7 -13 -8 -2 -17 2 -15 -1
-8 -13 -7 -2 -17 2 -13 -1
-7 -11 -6 -2 -18 1 -14 -2
-8 -11 -7 -2 -19 0 -15 -3
-9 -10 -6 -2 -18 2 -13 -2
-8 -9 -5 0 -17 0 -13 -2
-8 -11 -3 4 -16 -1 -15 -3
-4 -14 1 10 -12 2 -12 -3
1 -17 4 18 -4 10 -8 -3
6 -20 5 28 12 24 1 -1
15 -19 12 50 35 44 13 6
18 -19 19 71 57 66 28 12
22 -16 23 83 78 90 41 17
25 -10 25 90 99 116 59 28
31 -2 19 89 121 147 85 44
38 14 14 80 144 184 114 65
43 33 8 54 157 217 144 86
45 54 -4 12 154 244 170 105
48 75 -25 -33 153 273 199 125
51 89 -58 -78 151 300 222 141
49 99 -88 -129 137 312 232 150
41 104 -114 -181 113 313 234 155
34 103 -137 -223 85 300 220 149
28 84 -141 -232 63 267 188 126
20 57 -132 -219 39 213 138 94
12 43 -135 -210 12 157 93 67
4 34 -143 -207 -27 87 46 43
-10 21 -145 -203 -89 -6 -10 17
-18 9 -140 -196 -130 -59 -40 -1
-20 4 -136 -188 -146 -78 -52 -10
-20 1 -130 -177 -141 -78 -55 -15
-17 2 -122 -165 -128 -71 -53 -19
-17 -3 -115 -155 -121 -68 -53 -22
-17 -10 -104 -145 -114 -69 -54 -25
-17 -20 -94 -132 -111 -70 -56 -28
-16 -29 -83 -116 -104 -69 -57 -30
-12 -32 -71 -94 -90 -63 -53 -28
-9 -32 -53 -67 -73 -54 -48 -26
-8 -33 -40 -50 -58 -47 -44 -24
-7 -32 -28 -35 -45 -41 -39 -20
-7 -30 -21 -26 -36 -35 -35 -18
-6 -25 -15 -19 -28 -30 -32 -16
-5 -20 -10 -13 -22 -27 -27 -13
-7 -20 -5 -7 -16 -24 -26 -11
-5 -20 -3 -3 -14 -21 -24 -11
-5 -17 0 0 -12 -20 -24 -11
-6 -17 2 1 -12 -21 -25 -11
-5 -16 3 4 -11 -20 -22 -10
-5 -17 4 5 -10 -21 -24 -11
-7 -18 6 6 -8 -21 -24 -11
-6 -18 7 6 -6 -20 -22 -11
-6 -17 7 6 -6 -21 -23 -11
-5 -16 9 7 -3 -20 -20 -10
-6 -17 8 6 -3 -19 -20 -9
-5 -17 9 7 -2 -17 -18 -9
-4 -14 9 8 -2 -16 -18 -8
-4 -15 9 9 -3 -19 -19 -10
-3 -15 8 10 -5 -21 -18 -9
-3 -16 9 10 -5 -21 -19 -10
-5 -17 9 10 -4 -23 -20 -10
-4 -18 10 10 -4 -23 -18 -10
-4 -17 10 10 -3 -21 -18 -9
-5 -17 9 9 -2 -21 -17 -8
-6 -16 9 9 -1 -20 -16 -8
-4 -17 10 10 -1 -19 -15 -7
-1 -14 10 11 0 -19 -16 -7
-1 -13 9 12 -1 -21 -15 -7
-1 -15 9 11 -2 -22 -17 -7
-2 -15 11 12 -2 -22 -17 -9
-4 -15 10 13 0 -24 -18 -10
-3 -16 11 12 2 -24 -16 -9
-2 -14 12 12 3 -22 -16 -9
-3 -14 12 12 4 -22 -15 -8
-2 -15 11 11 4 -21 -14 -8
-2 -14 13 12 5 -19 -12 -7
-2 -14 13 13 4 -19 -13 -7
0 -12 13 14 4 -20 -13 -7
-1 -13 13 14 4 -20 -12 -7
-1 -13 14 15 4 -21 -14 -8
-1 -11 15 14 5 -22 -15 -8
0 -11 16 13 7 -22 -14 -7
0 -11 15 12 7 -21 -14 -9
-2 -11 15 13 9 -18 -12 -7
-2 -12 13 12 9 -20 -12 -7
1 -10 13 12 10 -17 -10 -6
0 -10 14 14 11 -16 -9 -5
-1 -10 15 16 10 -16 -8 -4
1 -10 15 16 10 -17 -9 -5
0 -10 16 17 11 -18 -9 -5
1 -9 15 17 12 -17 -8 -4
2 -10 15 17 15 -15 -7 -4
1 -10 16 16 17 -15 -7 -5
1 -9 16 17 18 -14 -5 -3
2 -9 15 16 18 -13 -4 -4
2 -10 14 16 18 -12 -3 -4
3 -8 14 17 19 -12 -4 -3
3 -8 13 17 18 -12 -4 -3
3 -8 14 19 19 -12 -3 -3
3 -7 15 21 21 -11 -2 -2
3 -7 15 20 22 -12 -1 -2
5 -3 16 21 25 -8 0 -1
5 -4 15 20 26 -8 1 0
4 -4 14 20 28 -6 3 1
5 -4 13 20 29 -5 4 2
5 -5 12 21 29 -2 6 3
7 -4 12 21 31 0 7 4
6 -4 13 24 33 1 9 5
6 -4 12 24 33 2 10 6
9 -3 12 25 34 4 11 5
8 -2 13 26 37 5 13 7
10 -1 12 26 42 8 16 8
12 1 12 26 44 11 18 10
10 1 11 26 46 13 20 12
12 3 8 25 50 16 22 13
13 4 9 28 52 22 27 17
14 6 8 28 54 24 29 18
16 8 7 29 55 26 31 20
16 8 6 28 55 28 32 21
17 8 6 30 58 31 34 22
19 10 5 31 62 32 37 23
18 11 5 30 65 36 40 25
20 13 4 30 67 40 43 27
21 15 2 30 69 43 45 30
22 16 1 29 72 46 48 32
23 17 2 31 73 49 52 34
24 19 1 31 73 51 52 34
23 18 1 33 73 51 54 36
24 19 1 33 72 53 55 37
24 17 3 35 73 52 56 37
25 18 2 33 74 53 56 38
24 20 3 34 75 54 57 39
24 19 2 33 75 54 57 39
23 20 2 34 76 56 60 41
24 22 0 33 75 55 60 40
26 23 1 34 74 56 61 41
26 25 1 33 74 55 61 41
24 22 1 35 72 56 61 42
26 23 2 34 71 53 60 41
23 21 3 36 70 53 59 41
23 21 3 35 69 50 58 40
24 23 4 35 70 50 58 41
22 21 4 34 69 47 56 39
21 20 5 35 69 47 55 39
21 21 5 34 68 45 53 38
20 20 7 36 66 43 52 37
22 21 8 37 63 42 50 35
20 20 8 38 62 39 48 33
17 19 10 39 59 35 44 30
17 19 12 40 57 33 42 28
16 18 13 40 56 29 39 26
15 17 14 41 55 26 36 25
14 16 15 39 53 23 33 23
11 13 16 40 53 21 32 21
9 13 18 41 53 20 32 22
8 11 20 39 50 17 29 20
9 10 21 39 47 13 27 18
9 12 22 39 45 11 25 17
6 9 23 38 43 8 22 15
6 9 25 37 42 6 20 11
6 10 25 37 42 2 18 10
5 8 24 35 40 1 15 8
5 8 24 32 39 -2 13 7
4 7 24 30 38 -3 11 5
2 6 24 28 37 -4 11 5
2 6 23 28 35 -6 10 5
1 4 23 26 33 -8 8 4
0 4 22 25 31 -10 6 3
0 4 23 24 30 -12 5 2
0 2 23 22 29 -13 5 1
0 4 22 20 28 -16 3 0
0 3 21 18 27 -16 1 -1
-1 3 21 16 28 -16 1 -2
-1 3 20 15 27 -17 0 -3
-3 1 19 13 26 -18 -1 -3
-2 1 19 12 25 -18 -1 -3
-2 0 18 11 23 -18 -1 -3
-3 -1 18 10 22 -19 -2 -4
-2 -1 18 9 20 -22 -4 -5
-2 -1 17 8 19 -23 -5 -6
-1 0 19 8 19 -23 -5 -6
0 0 18 7 18 -24 -6 -7
-2 -1 18 5 19 -25 -7 -7
0 0 18 4 20 -26 -8 -7
-1 1 18 4 19 -27 -9 -7
-2 -2 18 4 18 -27 -9 -7
-2 -3 17 3 16 -27 -10 -9
-3 -3 15 4 14 -30 -11 -10
-4 -4 16 4 14 -30 -12 -11
-4 -4 17 5 15 -28 -11 -10
-5 -5 19 5 16 -28 -11 -10
-3 -4 18 5 14 -30 -11 -10
-3 -4 18 4 15 -30 -12 -10
-5 -4 18 4 15 -30 -12 -10
-4 -3 16 4 17 -29 -11 -9
-4 -4 16 5 16 -28 -10 -8
-4 -3 16 4 15 -28 -10 -8
-4 -3 15 5 16 -27 -10 -8
-5 -4 12 4 14 -29 -12 -11
-5 -5 13 5 14 -27 -11 -10
-5 -3 13 6 16 -28 -11 -10
-6 -3 13 5 17 -27 -11 -10
-4 -2 11 5 17 -26 -11 -9
-6 -2 11 6 18 -23 -8 -7
-4 -1 10 5 19 -24 -9 -8
-4 1 9 5 18 -22 -8 -8
-5 1 8 5 19 -21 -8 -7
-4 1 7 6 18 -21 -8 -7
-5 1 9 6 19 -19 -7 -7
-6 0 8 6 18 -21 -9 -7
-6 2 9 7 20 -19 -7 -7
-6 2 8 6 20 -18 -8 -8
-4 2 7 5 21 -18 -7 -7
-4 4 7 6 22 -16 -5 -6
-5 5 7 5 23 -15 -5 -6
-4 6 8 7 24 -12 -3 -4
-3 6 7 6 22 -12 -4 -5
-3 6 6 7 22 -12 -4 -5
-1 8 7 7 23 -11 -3 -4
-2 6 7 7 23 -11 -3 -4
-3 6 6 7 22 -12 -4 -4
-4 6 7 7 23 -11 -3 -3
-4 5 6 5 22 -12 -4 -4
-3 5 6 7 24 -9 -1 -2
-3 6 5 5 23 -10 -2 -3
-4 6 6 6 24 -8 -1 -1
-2 7 7 6 23 -8 0 -1
-3 7 6 6 22 -8 0 -3
-3 6 6 7 22 -9 0 -3
-2 8 6 7 21 -9 0 -3
-2 7 7 7 21 -10 -1 -3
-2 8 6 6 21 -10 -1 -4
-3 6 7 5 21 -10 -1 -4
-2 7 6 5 20 -9 0 -3
-1 8 7 5 20 -8 0 -3
-1 7 6 5 20 -9 0 -3
-1 6 7 6 20 -8 1 -2
0 8 7 7 19 -8 1 -1
-1 7 6 6 19 -9 -1 -2
2 8 8 6 18 -10 -1 -2
1 7 8 6 18 -9 -1 -2
1 7 7 5 17 -10 -1 -4
1 6 7 4 17 -10 -1 -3
1 5 6 2 15 -12 -2 -4
1 5 7 4 16 -11 -1 -2
1 5 6 4 15 -10 0 -2
1 3 6 3 14 -11 -1 -2
2 5 6 4 14 -11 -1 -3
2 4 6 4 12 -12 -2 -3
3 5 7 4 12 -12 -2 -2
3 7 7 3 12 -12 -3 -3
1 4 7 4 13 -12 -3 -4
3 5 7 2 12 -13 -3 -4
5 8 7 2 12 -12 -2 -3
4 7 6 2 12 -12 -2 -3
3 6 6 1 11 -12 -2 -4
2 5 6 0 9 -14 -3 -4
2 3 6 1 11 -13 -2 -3
3 4 7 1 11 -14 -3 -4
2 3 7 2 11 -13 -3 -2
4 5 7 1 10 -15 -3 -3
2 4 7 1 9 -16 -4 -3
3 4 6 -1 10 -16 -4 -4
4 6 5 -1 10 -15 -5 -3
4 7 6 -1 9 -15 -5 -3
3 5 6 -1 8 -16 -5 -3
3 4 5 -1 7 -16 -4 -3
1 3 5 -1 6 -16 -5 -3
2 4 5 -1 6 -18 -6 -4
1 3 5 -1 6 -18 -5 -4
1 3 5 -2 5 -19 -6 -5
3 4 5 -1 6 -18 -5 -5
2 3 5 -2 6 -18 -5 -5
3 4 5 -2 5 -19 -6 -4
3 5 7 -1 7 -17 -4 -2
3 4 4 -2 5 -17 -6 -3
3 5 4 -3 4 -17 -5 -3
2 3 5 -1 4 -16 -4 -3
3 3 5 -3 3 -18 -4 -4
2 4 5 -2 3 -18 -5 -4
1 2 5 -3 2 -18 -5 -4
1 2 5 -3 2 -18 -5 -5
2 3 5 -3 4 -18 -4 -4
1 3 4 -3 3 -18 -4 -4
2 5 5 -2 4 -16 -2 -3
3 5 4 -3 4 -16 -3 -4
3 4 3 -4 2 -17 -3 -4
6 5 5 -4 2 -16 -3 -3
6 5 5 -4 1 -16 -4 -3
4 4 5 -4 1 -17 -4 -4
4 4 4 -4 0 -17 -5 -4
2 4 4 -5 0 -18 -5 -5
4 5 4 -4 1 -17 -4 -3
5 7 6 -3 2 -15 -2 -2
4 8 8 0 5 -13 0 0
5 12 10 2 7 -11 2 2
5 14 11 2 7 -10 2 3
6 17 14 5 8 -9 4 4
7 20 5 5 7 -9 3 3
5 19 -164 5 5 -11 2 1
6 20 -123 5 5 -10 3 2
5 20 -70 5 6 -10 2 2
5 20 -502 6 7 -8 3 3
6 23 -392 7 8 -8 4 4
3 21 5 8 8 -7 5 4
3 21 7 8 9 -6 5 4
4 24 -23 9 9 -5 7 5
6 27 -167 8 9 -4 7 5
6 31 -36 8 9 -4 8 7
8 31 14 6 8 -5 7 6
7 30 15 5 8 -4 7 7
9 32 10 2 7 -5 8 8
7 32 6 -1 6 -7 8 8
9 34 6 -1 6 -5 10 9
10 35 2 -4 5 -5 9 8
10 33 1 -4 4 -4 11 10
11 35 2 -3 4 -4 12 11
11 36 2 -5 3 -3 13 11
14 36 0 -4 4 -4 12 11
15 37 2 -3 4 -3 12 12
15 35 3 -3 4 -4 13 12
17 35 2 -4 4 -5 11 12
16 34 0 -4 5 -3 13 13
16 33 0 -4 5 -2 13 12
18 32 -3 -3 6 -2 14 12
16 28 -3 -3 6 -2 14 13
15 26 -2 -3 4 -2 14 11
16 24 1 -1 4 -2 14 10
14 21 -1 -3 2 -5 12 7
14 19 3 -3 1 -7 10 6
12 15 2 -5 -3 -9 7 4
8 12 1 -7 -4 -12 4 1
8 12 -1 -8 -5 -13 4 1
6 10 2 -8 -5 -13 4 1
4 9 -1 -8 -6 -13 3 0
4 8 -1 -9 -7 -14 2 -1
3 6 -1 -9 -8 -13 2 -2
3 6 1 -9 -9 -15 1 -2
3 5 -1 -8 -11 -16 1 -2
2 3 1 -9 -11 -16 0 -3
3 3 1 -11 -13 -18 -1 -4
3 3 2 -10 -12 -19 -1 -3
3 3 1 -9 -11 -18 1 -2
4 4 2 -11 -12 -17 0 -3
3 2 -1 -11 -11 -16 0 -4
3 2 0 -11 -10 -17 1 -4
2 1 -1 -11 -12 -17 1 -5
2 2 1 -12 -12 -16 0 -5
2 3 0 -11 -12 -17 0 -4
2 2 2 -12 -12 -16 1 -3
1 3 1 -12 -13 -18 1 -4
1 4 1 -12 -12 -18 1 -3
0 3 0 -12 -12 -17 1 -2
2 6 1 -13 -14 -18 -1 -3
0 6 0 -13 -13 -17 0 -3
-1 5 1 -12 -12 -15 2 -2
0 8 3 -11 -14 -15 2 -3
0 7 8 -7 -13 -16 2 -2
2 4 9 -1 -11 -17 2 -3
7 1 12 8 -3 -9 7 -3
11 -4 16 26 15 6 15 -1
18 -3 24 51 39 28 27 4
24 -2 28 67 63 51 43 11
29 -2 36 81 88 76 58 18
33 4 36 92 114 107 77 29
38 15 29 79 131 137 102 44
46 29 20 53 146 171 131 64
53 50 3 4 150 203 159 86
55 70 -26 -50 144 229 184 105
59 91 -55 -101 144 261 212 125
62 106 -90 -151 142 287 234 141
59 115 -119 -201 131 302 245 151
51 121 -148 -248 107 303 245 154
44 115 -161 -273 82 288 230 146
39 93 -161 -269 69 258 199 123
35 70 -166 -258 47 208 154 93
29 54 -179 -247 23 156 114 70
22 39 -176 -235 -18 91 71 47
7 23 -164 -226 -90 -7 14 20
-3 13 -150 -217 -140 -70 -20 2
-6 9 -140 -203 -156 -92 -34 -8
-8 7 -130 -190 -149 -90 -37 -12
-7 5 -121 -177 -139 -84 -38 -17
-7 -2 -109 -164 -130 -82 -39 -21
-6 -13 -99 -149 -121 -80 -40 -22
-4 -19 -87 -128 -110 -76 -38 -24
-2 -23 -70 -97 -92 -65 -32 -22
2 -20 -51 -72 -77 -57 -28 -20
4 -17 -38 -52 -65 -49 -23 -17
4 -17 -27 -40 -55 -44 -20 -15
4 -14 -21 -31 -46 -41 -18 -14
4 -11 -14 -24 -36 -37 -15 -12
2 -10 -11 -19 -27 -33 -14 -10
2 -9 -8 -15 -23 -30 -13 -10
1 -8 -8 -12 -19 -28 -11 -9
0 -8 -5 -8 -16 -24 -7 -7
1 -7 -3 -4 -14 -25 -6 -7
1 -8 0 -2 -15 -24 -7 -6
2 -5 1 1 -14 -24 -6 -5
2 -5 3 1 -14 -25 -8 -6
1 -7 4 2 -13 -27 -9 -6
3 -6 5 1 -11 -26 -8 -6
2 -5 2 0 -10 -25 -8 -7
3 -5 4 0 -8 -24 -7 -7
3 -5 2 2 -6 -22 -5 -5
1 -6 2 2 -8 -23 -4 -6
3 -6 3 4 -8 -22 -3 -5
4 -5 5 6 -9 -21 -5 -5
3 -6 3 7 -10 -22 -5 -5
2 -6 5 6 -9 -23 -6 -5
1 -7 7 7 -8 -23 -6 -5
2 -6 6 5 -9 -24 -6 -5
3 -3 4 5 -7 -22 -5 -5
4 -4 5 4 -6 -22 -5 -5
4 -5 4 6 -5 -21 -4 -3
2 -4 5 7 -4 -19 -2 -3
2 -5 3 8 -6 -20 -3 -3
3 -5 6 10 -6 -18 -3 -2
3 -5 4 10 -8 -20 -3 -3
2 -5 6 9 -8 -21 -4 -4
2 -6 7 10 -6 -21 -5 -3
3 -5 7 9 -4 -21 -3 -3
5 -2 4 8 -4 -20 -5 -3
4 -3 6 7 -2 -19 -4 -3
4 -5 3 8 -2 -18 -4 -3
5 -2 4 9 -1 -16 -2 -1
5 -2 4 10 -2 -16 -3 -2
4 -2 5 12 -1 -16 -2 -1
5 -1 5 14 -2 -16 -2 -1
3 -3 7 12 -3 -17 -4 -3
3 -2 9 14 -1 -16 -4 -2
4 -2 8 11 0 -17 -3 -2
4 -1 6 11 2 -14 -2 -2
6 -1 7 11 4 -13 -1 -1
5 -1 6 12 4 -11 0 -1
5 -1 7 13 6 -9 2 0
5 0 6 15 5 -10 0 0
5 -1 8 17 5 -9 1 1
7 1 6 16 3 -10 1 0
5 0 8 16 3 -11 0 0
4 -1 9 17 5 -10 0 1
6 -1 9 16 6 -9 2 1
5 -2 7 16 9 -7 3 1
6 -2 9 17 11 -6 3 1
7 -1 6 17 12 -4 5 3
5 0 6 18 12 -2 6 5
6 3 6 22 12 -1 6 6
6 2 8 23 12 -2 7 7
7 2 7 24 12 -1 8 7
7 2 9 25 13 -1 8 7
5 1 8 26 14 -1 6 6
7 1 8 26 16 1 9 6
8 4 7 26 18 2 11 7
8 3 7 25 20 3 10 7
9 5 5 27 22 6 12 9
9 6 6 29 24 9 15 10
10 6 6 33 24 12 16 12
12 7 9 35 26 12 17 13
12 7 7 36 26 13 18 13
13 8 9 36 28 14 18 13
13 9 10 39 32 16 20 15
13 8 9 39 33 18 22 15
15 11 7 39 35 21 24 17
14 11 9 41 40 24 27 19
14 11 7 42 42 27 29 21
15 13 7 44 45 32 33 22
16 15 7 47 47 35 34 24
19 18 10 50 48 36 37 26
19 17 8 51 50 40 39 28
20 18 7 50 51 42 40 27
21 21 8 52 55 44 43 30
23 22 8 52 57 47 45 31
24 23 4 51 60 49 46 32
24 24 6 52 63 52 49 34
23 23 4 53 65 57 53 38
25 27 3 53 66 60 56 39
25 28 2 55 67 61 57 39
24 26 4 55 68 62 59 41
25 28 3 57 68 64 59 42
26 30 5 57 68 66 59 42
27 31 6 58 70 66 61 43
27 33 6 57 71 67 64 44
26 33 3 55 71 67 64 44
27 33 4 55 73 68 65 45
27 35 0 53 71 69 65 47
27 35 0 53 72 71 67 48
28 35 1 55 71 71 67 48
27 35 2 54 68 68 66 47
26 34 1 56 68 69 67 48
27 36 3 55 67 67 66 47
26 36 3 55 66 65 64 46
27 37 5 55 66 65 64 46
25 36 3 53 65 64 63 45
25 35 4 52 66 62 61 44
26 35 3 53 66 63 62 45
25 34 4 52 63 62 62 43
24 34 5 54 61 60 59 42
25 33 7 53 58 55 58 40
21 31 6 54 55 53 55 39
22 31 9 53 53 49 52 37
21 32 10 52 52 45 48 34
21 30 12 51 50 44 48 34
20 29 10 50 49 41 46 31
18 27 12 49 49 38 44 30
17 27 11 48 47 37 42 29
17 28 10 47 45 37 40 28
17 26 10 45 41 32 37 25
16 25 12 46 38 29 36 24
14 23 10 44 35 26 33 22
13 22 13 43 33 23 30 19
12 21 13 41 34 20 27 18
10 17 12 38 33 19 25 17
10 17 11 36 31 16 24 16
11 18 12 34 31 15 22 15
10 16 9 32 30 13 21 14
9 17 10 31 28 15 21 14
9 17 9 30 26 12 19 13
7 14 10 29 25 10 18 12
9 15 8 28 21 8 15 10
6 12 11 27 20 6 14 8
6 12 11 24 20 4 14 8
7 11 9 21 19 3 12 7
5 9 6 19 19 1 10 6
5 10 6 17 19 1 9 6
6 10 4 14 17 0 9 5
5 9 5 14 16 2 9 6
7 11 5 14 15 1 9 6
5 8 5 14 13 -1 8 6
6 8 5 14 12 -1 8 6
7 9 6 13 10 -3 5 4
7 8 5 10 10 -5 5 4
7 7 4 9 10 -5 4 2
6 6 4 7 10 -7 3 2
5 5 3 5 11 -7 3 2
5 6 2 6 11 -6 4 4
5 5 1 5 8 -7 4 3
6 6 3 6 9 -6 3 4
5 6 3 7 7 -8 2 3
5 4 3 8 6 -9 1 2
6 4 4 7 5 -11 0 1
6 5 4 6 6 -12 0 1
5 3 3 6 4 -12 -1 0
4 3 2 4 5 -14 -4 -1
3 2 3 3 6 -14 -4 -1
5 3 2 3 6 -14 -3 0
5 3 2 5 5 -14 -2 -1
4 2 2 5 4 -14 -3 -1
4 2 4 7 4 -14 -2 0
3 3 4 9 3 -13 -2 1
4 3 6 9 3 -14 -3 -1
4 4 7 9 6 -14 -2 0
3 3 5 10 6 -12 -2 0
4 3 5 9 7 -14 -3 -1
5 4 5 8 9 -13 -2 0
5 4 4 9 10 -11 -2 1
6 5 4 10 9 -10 -1 1
4 5 5 12 10 -9 0 2
4 5 5 13 10 -9 1 3
4 6 5 14 9 -9 1 2
5 7 7 14 9 -9 1 1
6 7 8 13 11 -8 1 2
6 6 7 15 12 -6 2 3
5 6 7 14 14 -7 2 3
7 8 8 14 16 -6 3 4
6 9 6 14 15 -4 4 4
5 7 6 15 15 -2 5 4
5 8 6 16 14 -3 4 4
4 8 8 16 14 -3 5 5
6 8 8 18 15 -2 6 6
6 9 10 18 14 -1 5 5
6 9 10 17 15 -2 5 6
6 9 9 18 15 -1 6 6
5 10 9 16 17 -2 5 5
7 10 9 15 17 -2 5 5
8 13 8 14 17 -1 7 6
6 12 7 15 16 -1 7 6
7 12 8 16 16 0 7 7
7 10 9 16 15 0 7 7
7 10 7 17 16 -1 7 8
7 11 10 18 16 0 8 8
5 10 10 17 17 -1 7 6
5 10 9 16 16 -2 7 6
6 11 9 15 16 -2 6 6
5 10 8 14 17 -3 6 7
7 11 8 14 19 -1 8 8
7 10 6 14 17 -1 8 7
6 10 7 15 17 -1 8 8
6 10 8 15 16 -1 8 8
5 8 6 15 14 -3 7 7
5 10 8 16 14 -2 6 7
6 10 8 14 14 -4 5 6
5 8 7 14 14 -5 4 6
7 9 6 12 15 -4 4 5
5 7 7 14 16 -4 6 6
5 7 7 14 15 -3 8 8
5 9 6 14 15 -3 5 8
5 7 7 14 15 -3 5 8
6 8 6 14 13 -3 5 8
6 9 6 15 13 -4 6 7
4 7 6 14 12 -5 5 5
6 7 7 12 10 -6 3 4
5 6 6 12 10 -6 3 5
4 3 6 11 12 -6 3 6
5 4 6 10 12 -5 4 6
4 3 6 9 12 -6 3 5
5 5 6 10 11 -5 4 5
5 4 7 10 11 -5 3 6
5 4 6 10 9 -6 3 4
5 5 6 11 9 -6 2 4
4 5 6 11 9 -8 1 4
4 2 8 10 9 -8 1 5
3 2 6 9 8 -9 -1 4
2 0 6 8 8 -9 -2 3
2 1 6 7 9 -8 -1 4
1 0 5 7 9 -10 -1 3
0 -1 4 8 8 -8 -1 4
3 0 5 8 8 -9 0 4
2 1 5 9 7 -8 -2 3
3 1 5 8 6 -8 -2 2
3 0 7 11 7 -9 -2 3
2 0 7 8 6 -11 -3 2
3 0 7 7 6 -10 -3 2
2 -1 5 5 6 -11 -4 2
2 -2 6 6 6 -11 -5 2
2 0 4 5 5 -10 -4 2
0 -2 3 6 5 -10 -4 1
-1 -2 5 7 6 -9 -3 2
0 -2 5 7 5 -9 -3 1
0 -2 4 6 4 -9 -4 1
1 -2 6 7 5 -9 -4 2
1 -2 5 7 5 -10 -5 1
0 -3 6 6 4 -10 -5 1
2 -2 6 6 5 -10 -5 2
1 -3 5 5 5 -10 -7 1
1 -3 3 4 4 -9 -6 0
1 -3 3 4 4 -9 -6 1
-2 -5 4 4 5 -10 -5 1
0 -5 4 5 3 -9 -5 -1
0 -4 4 5 3 -9 -4 0
1 -4 5 6 3 -9 -7 0
2 -2 5 5 3 -9 -7 0
0 -4 5 4 2 -10 -7 0
-1 -3 4 5 3 -9 -7 0
1 -2 5 4 3 -9 -7 1
0 -2 2 3 1 -9 -8 -2
0 -3 3 4 2 -7 -6 -1
-2 -4 3 5 1 -7 -7 0
-3 -6 4 5 0 -8 -6 1
-3 -5 3 6 0 -7 -5 -1
-3 -6 4 5 0 -8 -8 -1
-2 -6 3 4 -2 -10 -9 -3
-1 -6 4 4 0 -8 -8 -2
-2 -5 2 4 0 -10 -9 -3
-1 -4 2 4 0 -9 -8 -3
0 -7 2 4 0 -8 -8 -1
-1 -7 2 3 0 -7 -8 -1
-2 -6 3 5 1 -7 -7 -2
-3 -8 3 5 0 -6 -7 -2
-2 -7 4 5 -1 -7 -7 -1
-2 -7 4 4 -2 -7 -8 -2
-5 -9 4 5 -1 -8 -10 -3
-3 -7 4 3 -2 -9 -10 -4
-3 -7 3 3 -1 -8 -10 -4
-3 -8 4 5 1 -6 -7 -1
-2 -7 4 5 0 -7 -8 -2
-2 -8 3 4 0 -6 -9 -2
-2 -7 2 4 0 -5 -8 -1
0 -6 3 5 -1 -5 -9 -3
-1 -7 1 3 -2 -7 -10 -4
-1 -6 1 3 -2 -7 -10 -4
-4 -8 3 5 -1 -7 -10 -3
-3 -7 2 4 -3 -8 -11 -4
-3 -6 4 4 0 -7 -10 -2
-4 -7 4 6 2 -5 -9 -1
-3 -4 5 7 2 -4 -8 -2
-3 -3 7 9 5 -3 -6 -1
-2 -1 8 10 6 -2 -6 0
0 3 12 13 7 0 -4 1
-1 5 12 13 6 0 -4 2
-2 5 13 14 7 1 -3 2
-2 6 13 13 6 0 -5 2
-4 6 12 13 7 -1 -7 1
-2 6 14 13 8 -1 -6 2
-1 6 15 14 9 2 -4 3
-4 6 15 16 11 3 -4 3
-5 7 17 18 11 4 -2 4
-3 8 17 17 11 4 -3 3
-3 10 16 17 10 4 -3 3
-2 14 15 18 12 5 -1 5
-3 14 14 15 11 4 -2 5
-2 16 13 14 11 5 -1 6
-2 16 10 12 10 5 -2 7
0 15 6 9 9 4 -1 7
1 16 4 7 8 5 -1 6
0 15 3 7 8 5 -1 7
1 16 0 5 7 5 -1 7
2 18 1 4 7 5 -1 8
3 18 1 6 7 6 0 8
5 20 -1 4 5 4 -2 8
5 19 -1 4 5 3 -1 8
5 17 -1 4 5 3 -1 7
6 19 -1 3 6 4 -2 8
5 16 -1 4 8 5 -1 9
5 14 -2 3 7 5 -1 9
5 14 -2 5 8 7 1 10
5 11 -1 6 9 6 1 8
6 10 -1 6 9 6 0 9
5 8 0 6 8 6 0 7
4 6 1 7 7 5 -2 7
6 3 3 7 7 5 -3 6
3 -2 2 5 5 2 -5 3
2 -5 3 3 3 1 -7 1
0 -6 3 2 2 -2 -9 1
-2 -9 3 1 1 -2 -9 0
-5 -10 3 0 1 -4 -11 -2
-7 -12 3 0 0 -4 -12 -4
-8 -14 3 0 -3 -4 -13 -6
-9 -13 4 2 -2 -4 -14 -5
-8 -14 4 1 -3 -6 -15 -6
-6 -15 5 1 -3 -6 -15 -6
-5 -14 5 0 -4 -7 -15 -7
-4 -13 5 -1 -4 -7 -16 -7
-3 -12 5 -1 -2 -7 -16 -7
-3 -13 5 -1 -2 -6 -15 -7
-3 -12 4 -1 -3 -5 -15 -7
-2 -12 5 0 -2 -5 -15 -5
-3 -14 4 0 -2 -5 -15 -5
-1 -12 4 1 -4 -5 -14 -7
-1 -11 4 1 -3 -6 -15 -7
-3 -13 5 1 -3 -6 -15 -6
-1 -10 6 0 -3 -5 -15 -6
-1 -10 5 0 -2 -5 -15 -5
-1 -10 6 0 -1 -4 -13 -5
0 -9 6 0 -2 -3 -13 -5
-1 -9 5 -1 -3 -4 -14 -6
0 -7 7 0 -3 -4 -14 -5
0 -5 8 1 -2 -2 -13 -5
-1 -5 9 2 -3 -2 -13 -5
0 -4 11 4 -4 -5 -14 -6
1 -7 13 8 -4 -5 -14 -7
5 -10 14 14 0 -1 -12 -7
12 -11 17 28 14 11 -5 -5
18 -12 24 50 36 27 7 0
26 -10 29 67 59 50 21 6
32 -10 33 80 82 73 34 11
35 -6 37 94 110 101 51 18
40 4 38 90 133 132 74 34
46 18 31 63 147 164 101 52
51 34 15 19 151 195 129 72
56 54 -10 -34 152 225 158 93
56 73 -41 -88 148 253 184 112
61 93 -73 -141 150 286 211 132
63 105 -104 -189 146 309 229 146
56 112 -132 -237 128 316 233 151
46 113 -150 -272 99 304 224 149
39 99 -153 -274 85 283 201 132
34 73 -156 -263 71 241 160 103
32 52 -166 -251 51 188 117 76
26 35 -170 -238 22 136 78 53
14 18 -158 -227 -40 48 25 27
2 5 -148 -220 -107 -36 -24 4
-5 1 -136 -207 -138 -73 -42 -9
-5 0 -125 -192 -137 -80 -50 -15
-5 -3 -115 -179 -126 -75 -52 -20
-5 -9 -104 -164 -114 -70 -52 -24
-4 -15 -93 -146 -105 -67 -52 -26
-1 -23 -80 -120 -93 -62 -49 -27
3 -24 -62 -91 -75 -52 -44 -24
5 -23 -46 -65 -60 -43 -41 -22
3 -21 -32 -47 -49 -37 -37 -20
6 -18 -22 -33 -38 -30 -33 -18
5 -16 -12 -23 -28 -27 -30 -17
6 -14 -9 -18 -24 -26 -29 -17
6 -13 -5 -13 -16 -21 -26 -15
4 -13 -1 -8 -13 -18 -25 -14
4 -11 2 -3 -8 -16 -22 -13
4 -9 4 0 -8 -14 -20 -12
5 -7 6 3 -7 -13 -20 -12
5 -6 9 6 -6 -12 -19 -10
4 -7 10 8 -6 -13 -20 -10
5 -7 10 10 -6 -14 -21 -10
6 -6 12 10 -5 -14 -20 -11
4 -6 11 8 -5 -14 -20 -11
6 -5 11 8 -3 -13 -20 -11
6 -7 10 9 0 -12 -19 -10
6 -7 10 9 1 -12 -17 -10
7 -6 10 12 2 -10 -15 -10
6 -7 12 14 2 -9 -16 -9
7 -7 12 15 1 -10 -16 -8
7 -5 14 16 0 -11 -16 -9
7 -5 14 16 0 -12 -17 -9
8 -4 15 15 1 -13 -16 -9
7 -4 15 15 2 -12 -16 -9
7 -5 14 14 3 -12 -16 -9
7 -4 13 13 5 -11 -15 -9
6 -5 12 12 3 -11 -14 -10
8 -3 12 15 4 -9 -14 -8
9 -3 14 17 4 -8 -13 -7
7 -4 14 18 3 -11 -13 -8
9 -3 15 20 2 -11 -13 -8
8 -2 16 20 3 -12 -14 -7
8 -1 15 18 3 -13 -14 -9
9 1 14 18 5 -13 -14 -8
9 -1 15 17 7 -11 -13 -8
10 0 14 16 8 -10 -13 -8
9 1 14 18 9 -8 -11 -7
7 1 14 20 10 -6 -11 -6
9 1 15 21 9 -6 -11 -6
9 0 15 23 8 -6 -10 -5
8 -1 16 23 6 -7 -11 -6
8 0 17 24 8 -7 -11 -5
8 0 17 22 8 -7 -11 -6
10 3 16 21 10 -9 -12 -7
10 3 16 22 11 -7 -11 -6
9 2 15 22 13 -5 -10 -6
10 3 14 24 15 -3 -8 -5
9 3 15 25 16 -1 -7 -4
10 2 16 27 16 -1 -7 -4
10 3 16 28 14 -2 -7 -4
9 2 16 29 14 -2 -6 -4
11 4 18 30 15 -2 -7 -3
10 4 18 28 15 -1 -7 -4
9 4 15 26 15 -3 -8 -5
11 5 16 26 17 -1 -7 -4
11 6 15 26 19 1 -6 -4
12 7 14 27 20 1 -5 -4
12 9 15 30 22 4 -3 -1
12 7 15 31 21 4 -3 -2
12 8 15 33 22 5 -2 -1
11 8 15 34 21 5 -2 -1
12 7 15 33 22 4 -2 -1
13 8 17 35 26 6 0 0
12 9 16 34 26 6 -1 0
13 10 15 33 28 7 0 0
15 11 15 34 31 9 1 1
15 12 14 36 31 11 3 2
17 14 14 39 34 13 5 4
17 14 15 41 34 15 6 5
16 14 15 43 35 16 7 6
19 16 17 45 37 17 8 6
17 15 17 46 38 20 10 8
18 15 17 46 41 20 10 8
18 17 15 46 42 22 11 7
18 17 15 45 45 23 12 7
20 18 15 48 49 27 15 9
21 21 14 49 52 31 19 11
22 23 14 52 53 34 21 14
23 24 15 55 56 38 24 16
22 24 15 58 59 41 26 19
23 26 15 60 60 43 29 20
25 29 15 59 60 45 30 20
25 29 14 59 64 46 31 21
27 32 13 59 66 49 33 22
27 32 13 59 70 52 36 25
28 33 12 60 73 56 39 27
30 35 9 61 74 59 42 28
28 36 9 63 77 62 44 31
29 37 10 65 77 65 46 32
32 40 9 66 78 66 48 33
32 41 10 67 78 68 49 35
33 43 11 68 79 71 51 36
32 44 11 67 80 71 51 36
33 44 9 65 80 72 52 37
33 45 8 64 81 72 53 37
31 44 7 64 82 72 54 38
31 46 7 64 83 74 58 40
32 47 6 64 81 74 58 41
32 47 6 65 80 74 59 41
32 48 7 66 80 75 60 43
32 48 7 65 78 75 59 42
32 48 9 66 78 74 59 43
33 50 9 64 78 73 59 42
31 50 7 62 76 72 57 40
32 50 7 61 77 72 58 42
32 51 7 61 76 72 57 41
30 49 6 60 76 72 57 41
30 50 6 61 72 69 55 41
29 47 7 61 71 67 54 40
28 44 8 62 68 65 53 39
28 44 9 63 66 64 51 38
27 42 11 62 64 61 48 37
27 42 13 61 64 59 47 35
26 41 12 60 62 57 45 33
24 38 12 59 62 56 43 32
24 37 14 59 61 54 42 31
24 36 13 58 59 51 39 29
22 33 14 58 59 51 39 29
20 31 16 58 57 48 37 27
19 28 17 58 54 45 35 26
19 27 17 58 51 43 33 25
18 26 18 57 49 39 30 22
17 22 17 54 47 37 27 20
17 22 17 51 46 35 26 19
16 21 17 49 46 34 24 18
15 19 18 50 45 34 23 18
16 20 16 48 43 31 20 15
14 16 15 47 41 31 20 14
14 15 17 46 40 30 20 15
13 13 16 45 37 27 18 13
10 13 17 44 36 25 16 12
11 12 17 42 34 22 14 12
10 10 18 40 34 22 13 11
8 9 16 37 32 21 12 9
8 9 15 35 33 20 12 9
8 7 13 32 31 19 11 9
10 8 12 31 29 18 11 8
9 7 12 30 28 19 10 9
7 7 12 29 28 18 10 9
10 7 12 29 25 18 9 8
8 6 12 28 24 17 9 7
8 5 12 26 23 15 7 6
7 4 12 24 22 15 6 6
5 2 11 22 21 12 5 5
7 2 9 20 22 12 5 4
7 1 9 20 21 12 5 5
7 1 7 19 21 12 6 5
7 3 7 19 20 13 6 5
6 2 9 19 18 12 6 5
7 2 7 18 15 11 5 4
7 3 9 19 15 11 5 5
6 1 10 19 14 10 4 4
6 1 10 17 14 8 2 3
5 0 8 16 13 7 1 2
5 -1 8 14 13 7 1 0
6 -2 8 15 13 6 2 1
5 -1 6 16 13 5 1 1
3 -1 8 17 13 6 2 3
4 0 8 19 13 7 2 2
3 0 8 18 11 6 2 2
4 2 9 20 11 6 1 2
5 1 9 20 11 6 1 2
4 2 9 19 10 4 -1 0
5 1 9 20 10 5 -1 0
3 0 9 19 11 5 -1 0
4 1 9 20 13 7 1 1
3 2 9 21 13 7 1 1
2 1 8 20 12 7 0 1
4 2 8 22 12 8 1 2
3 3 9 22 12 9 2 2
3 3 11 25 12 10 3 3
5 4 11 25 13 11 3 3
4 4 12 25 13 11 2 3
4 5 11 25 13 11 2 2
6 6 11 24 15 12 2 2
4 4 12 25 15 14 4 4
5 5 11 25 15 16 5 5
3 5 11 26 15 16 5 5
3 3 11 26 16 16 6 4
5 5 12 26 14 16 7 5
4 5 12 27 14 16 6 5
5 7 12 27 14 17 6 5
4 6 13 28 14 17 6 5
3 6 12 26 14 16 5 5
6 8 12 28 16 18 8 6
6 8 13 27 17 19 8 6
4 7 13 27 17 20 9 7
4 7 13 27 17 20 9 7
3 6 11 27 16 19 8 7
4 7 13 27 15 19 9 8
5 8 12 27 13 19 8 7
2 6 13 28 13 19 7 7
3 7 14 27 14 18 8 6
4 8 13 25 13 17 7 6
4 8 12 25 14 18 8 7
4 8 12 26 15 19 9 7
4 8 11 25 14 18 8 6
4 8 12 26 14 20 10 7
3 7 12 27 14 20 9 8
3 7 12 26 12 19 9 7
5 9 12 26 11 18 9 7
2 8 12 26 11 18 8 7
3 8 12 24 11 17 9 7
4 8 11 23 9 17 8 4
3 9 10 22 10 17 7 5
5 10 10 21 10 17 8 5
5 9 11 22 10 18 9 6
5 8 10 23 10 19 10 6
5 9 11 25 11 20 11 8
5 8 12 24 8 19 10 7
5 8 11 24 7 18 8 5
4 8 11 23 7 16 8 5
2 7 10 22 6 15 6 5
3 8 11 22 7 16 7 5
3 8 11 21 7 16 7 5
3 7 10 19 7 16 7 4
4 7 11 20 7 17 8 6
3 5 11 21 6 17 9 6
3 6 10 20 4 16 8 6
4 8 9 20 3 16 7 4
4 7 9 20 3 15 7 5
5 7 8 19 2 14 6 4
3 4 9 19 2 12 5 5
2 5 8 18 1 12 4 3
4 6 7 17 2 12 5 3
3 5 7 16 1 11 5 3
2 5 7 15 1 11 5 3
2 6 7 17 1 13 6 4
2 6 7 16 0 12 6 3
4 7 7 18 0 12 6 2
2 6 8 19 -2 12 6 3
2 6 7 18 -3 11 4 3
1 5 8 18 -1 10 4 3
0 3 8 17 -1 8 4 2
1 5 8 16 -2 8 4 3
1 5 7 15 -1 9 4 2
0 3 8 15 -1 8 4 2
1 3 7 16 -2 9 5 2
0 4 7 15 -3 9 5 3
0 4 7 16 -3 9 5 2
2 6 8 17 -4 9 5 2
1 6 6 16 -4 7 2 2
2 6 7 15 -4 7 3 3
3 8 7 15 -4 6 2 1
1 6 7 14 -5 6 2 1
1 6 6 13 -4 7 3 1
0 6 6 13 -4 7 4 2
0 7 5 13 -5 7 2 1
2 8 6 13 -6 6 2 2
0 10 5 13 -7 6 2 1
1 12 6 15 -7 6 3 2
2 11 5 14 -7 5 1 0
2 10 6 13 -7 5 2 0
2 12 5 13 -6 5 2 1
1 12 4 12 -6 3 1 0
1 10 5 12 -5 4 2 -1
2 11 5 12 -5 4 2 0
-1 9 4 12 -7 5 2 -1
2 9 4 11 -7 5 3 0
2 9 4 12 -9 4 3 -1
0 7 5 13 -8 4 3 0
1 7 4 14 -9 3 1 -1
1 7 4 12 -9 3 1 -1
1 9 5 11 -8 3 1 -1
1 10 5 11 -7 2 1 -1
0 9 5 11 -6 2 2 0
1 10 4 10 -6 2 2 -1
0 9 4 11 -6 3 2 -1
1 8 4 11 -7 3 2 0
1 8 5 13 -7 3 2 0
0 8 4 13 -9 1 0 -1
-1 8 4 13 -9 2 1 0
0 9 5 12 -9 1 0 -1
0 9 4 10 -8 0 -1 -2
1 10 3 11 -7 -1 0 -2
0 9 4 10 -7 0 1 -2
0 8 3 9 -7 0 0 -2
0 10 4 11 -6 2 2 -1
0 10 4 11 -7 2 2 -1
1 10 3 10 -9 0 0 -1
0 10 4 12 -9 0 1 -1
-2 8 4 12 -9 0 0 -1
-1 9 3 10 -9 -2 -1 -1
-1 9 3 10 -8 -2 -1 -1
-1 10 2 9 -8 -3 0 -1
-1 10 3 9 -7 -2 0 -1
-2 9 3 10 -7 -2 0 -1
0 10 3 11 -7 -1 1 -1
0 11 2 11 -8 -1 1 -1
-1 10 2 11 -9 -1 1 -1
0 11 2 12 -10 -3 0 -2
-1 10 2 12 -9 -2 0 -1
-2 11 2 11 -9 -3 0 -2
1 12 3 12 -7 -2 0 -1
0 12 3 12 -6 -3 1 0
0 13 4 13 -4 -1 2 0
1 17 6 16 -2 0 4 1
0 19 9 18 -1 3 6 2
2 24 10 19 -2 3 7 3
0 25 12 21 0 4 8 4
1 26 12 20 -2 3 7 3
0 27 13 21 -1 3 7 3
-2 26 12 20 -1 3 5 3
1 27 13 22 1 4 7 4
1 29 13 22 3 2 7 3
0 28 13 23 4 3 8 4
0 30 14 25 4 4 8 4
0 31 14 24 6 6 10 5
1 34 12 23 4 6 9 6
1 37 11 24 5 7 12 7
1 38 10 23 5 7 12 8
3 39 8 22 4 7 12 9
4 41 4 18 2 6 11 9
4 40 0 15 1 4 11 8
5 41 -1 14 1 3 10 8
3 39 -3 11 0 2 10 9
4 40 -3 11 0 3 11 9
7 43 -3 12 1 3 12 9
7 42 -4 11 0 3 12 10
8 43 -5 11 -1 3 13 10
6 43 -3 14 1 4 14 11
7 42 -4 15 2 4 14 11
10 42 -4 16 3 4 13 12
9 42 -5 15 3 3 14 11
9 41 -4 14 4 2 13 11
10 39 -4 17 5 3 14 11
8 35 -4 17 5 4 16 11
8 34 -3 17 5 3 15 10
8 30 -3 16 3 2 12 8
6 27 -4 15 1 0 11 6
6 24 -3 15 0 -1 11 5
4 22 -3 13 -3 -5 7 2
1 20 -2 13 -3 -6 6 1
0 21 -1 12 -3 -8 5 1
-3 18 -1 10 -4 -10 4 -1
-3 17 -2 9 -5 -11 2 -2
-4 16 -2 8 -6 -11 2 -3
-5 15 -1 10 -5 -9 3 -3
-4 15 -1 11 -6 -10 2 -4
-5 13 -2 10 -8 -12 0 -5
-6 13 -1 10 -8 -12 1 -5
-6 13 -1 10 -8 -14 1 -5
-6 13 -1 9 -9 -14 -1 -4
-5 16 -2 8 -9 -16 -1 -5
-5 15 -1 8 -8 -16 -2 -6
-6 14 -2 8 -7 -16 -2 -7
-4 15 -2 8 -7 -16 -2 -7
-5 14 -2 8 -6 -14 0 -6
-5 16 -3 7 -8 -15 -1 -7
-5 16 -3 7 -9 -16 -1 -8
-6 15 -3 6 -9 -17 -2 -8
-5 16 -3 7 -9 -16 -1 -6
-5 16 -2 7 -9 -18 -2 -7
-5 17 -3 6 -8 -18 -2 -7
-4 18 -1 6 -8 -17 -3 -7
-7 17 0 7 -8 -18 -3 -8
-6 18 1 7 -8 -18 -3 -8
-5 20 1 6 -8 -16 -1 -7
-7 20 3 9 -9 -17 -3 -7
-5 18 7 13 -8 -17 -1 -7
-1 14 7 18 -4 -14 0 -8
6 10 9 30 8 -4 6 -6
13 11 15 52 28 11 15 -3
18 10 20 70 51 33 30 4
24 10 25 82 74 55 43 9
29 13 29 94 102 83 59 16
31 23 30 88 123 112 82 30
39 37 24 65 139 146 110 50
44 54 9 24 146 177 138 69
49 73 -15 -26 147 207 167 91
52 93 -45 -79 142 234 192 111
53 111 -74 -133 140 264 217 129
55 124 -103 -183 138 289 237 144
51 131 -132 -231 121 295 244 152
40 134 -152 -271 91 283 235 149
32 121 -155 -277 74 263 212 134
27 95 -159 -269 61 225 172 105
24 71 -171 -258 41 174 128 77
21 55 -176 -244 16 123 90 55
7 36 -167 -231 -40 41 38 29
-4 23 -155 -222 -107 -45 -10 6
-9 20 -143 -209 -141 -84 -32 -6
-12 20 -132 -195 -145 -94 -41 -14
-12 14 -121 -182 -134 -89 -43 -19
-13 7 -110 -168 -123 -84 -45 -24
-12 0 -100 -149 -112 -83 -45 -27
-9 -5 -87 -124 -99 -78 -43 -28
-5 -9 -71 -93 -81 -68 -38 -26
-4 -7 -53 -66 -65 -58 -32 -22
-3 -7 -39 -47 -54 -52 -28 -21
-3 -4 -29 -34 -45 -45 -24 -18
-1 -1 -20 -24 -36 -42 -22 -17
-2 -1 -15 -16 -29 -39 -19 -15
-1 0 -10 -12 -23 -36 -17 -15
-2 2 -8 -10 -21 -35 -18 -15
-3 0 -5 -5 -18 -33 -16 -14
-2 3 -4 -2 -15 -30 -14 -12
-3 4 -2 1 -14 -28 -12 -10
-5 3 1 5 -13 -26 -12 -10
-4 3 3 7 -13 -27 -11 -9
-3 3 3 7 -14 -27 -12 -11
-3 2 6 10 -12 -27 -11 -10
-2 3 6 9 -11 -27 -11 -9
-3 2 6 9 -10 -27 -12 -9
-3 4 5 6 -9 -26 -12 -10
-2 3 4 6 -8 -26 -12 -10
-3 2 5 8 -7 -24 -10 -8
-3 3 6 10 -7 -23 -9 -8
-3 3 7 12 -8 -24 -10 -8
-3 2 9 13 -9 -24 -9 -7
-2 4 9 13 -10 -24 -9 -8
-2 3 9 12 -11 -26 -10 -9
0 3 9 12 -10 -26 -11 -9
-1 2 9 12 -8 -26 -9 -8
-2 3 8 9 -7 -25 -9 -8
0 4 7 10 -5 -24 -8 -8
-1 4 7 11 -5 -23 -8 -7
-2 2 6 12 -5 -23 -6 -7
-2 2 7 13 -6 -22 -7 -7
-4 0 9 15 -6 -22 -7 -6
-2 1 11 15 -8 -22 -7 -7
-2 2 10 14 -8 -23 -9 -9
-1 2 10 14 -7 -24 -9 -9
-1 1 10 13 -6 -23 -7 -8
-3 1 9 11 -3 -21 -6 -7
-2 2 8 11 -2 -20 -6 -7
-1 3 9 13 -1 -18 -4 -5
-1 3 9 14 -2 -18 -3 -6
-1 3 10 15 -3 -17 -4 -5
0 2 10 15 -5 -18 -5 -6
-1 1 11 16 -5 -18 -5 -6
0 2 12 16 -4 -18 -5 -5
0 1 12 15 -3 -20 -5 -6
-1 0 12 15 -2 -17 -3 -4
-1 1 11 13 0 -17 -3 -5
0 1 10 13 1 -16 -4 -5
1 3 10 14 2 -15 -2 -3
1 4 10 16 0 -12 -1 -2
2 4 11 16 0 -13 -2 -2
2 3 12 18 0 -12 -1 -2
0 1 13 18 -1 -13 -1 -2
1 3 13 18 -1 -13 -2 -4
1 3 13 17 2 -13 -1 -3
1 1 13 17 2 -12 -1 -3
2 2 11 15 4 -11 0 -3
2 3 10 16 5 -10 1 -2
4 3 10 17 5 -8 3 -1
5 4 9 18 5 -6 3 0
4 4 11 21 7 -6 4 0
5 4 12 23 6 -6 4 0
6 5 14 24 7 -3 6 2
5 4 12 23 7 -5 4 0
5 4 13 23 9 -3 5 1
5 3 12 24 10 -2 6 2
5 4 10 23 11 -2 6 2
7 6 10 24 14 0 8 3
6 5 12 27 16 4 11 7
8 8 11 28 16 7 12 7
7 8 12 30 17 7 12 8
7 6 14 34 18 9 14 9
9 9 14 34 18 10 15 9
9 8 16 35 21 12 16 10
10 8 14 35 23 13 17 10
12 9 13 35 24 15 17 10
10 9 12 35 26 17 20 12
11 11 11 36 30 20 22 14
12 13 11 37 32 24 25 16
12 13 10 39 33 27 25 17
14 16 10 41 35 29 28 18
15 16 12 45 37 33 31 21
16 19 13 47 38 36 34 23
18 22 13 46 40 37 34 23
18 22 13 45 44 40 37 25
19 24 11 46 47 43 39 27
19 25 10 45 49 47 42 29
20 26 9 46 52 49 44 29
22 28 8 46 54 54 48 32
21 29 8 47 55 57 50 33
22 30 8 47 55 57 51 34
24 32 9 49 55 60 54 36
23 32 8 50 56 61 55 37
24 35 11 50 57 63 56 38
25 35 10 49 57 65 58 40
24 35 9 47 57 66 58 41
27 38 8 46 58 67 59 41
26 37 8 46 60 69 59 42
25 37 7 45 59 70 61 44
25 38 7 45 57 70 62 45
25 38 7 45 56 70 62 44
25 39 8 46 55 70 62 45
25 39 8 45 54 70 62 45
25 40 10 45 53 69 61 44
25 39 9 45 54 69 61 45
24 37 9 43 53 70 60 44
24 38 9 42 53 69 60 44
26 38 9 41 52 69 59 43
25 36 8 41 51 68 59 43
24 36 10 41 49 66 57 42
22 34 10 41 47 64 55 41
22 33 11 42 44 62 53 39
22 33 12 42 43 60 53 38
20 31 13 42 40 57 50 36
19 30 12 40 39 54 47 34
19 29 14 41 39 53 46 34
17 27 13 39 38 51 43 32
19 27 13 38 37 49 41 30
17 26 13 37 35 48 40 29
16 24 13 36 33 45 37 27
14 24 14 36 30 43 35 26
12 21 15 35 28 39 33 24
12 21 15 34 26 38 30 22
12 20 15 33 23 33 26 19
11 16 13 31 22 31 25 18
10 15 13 27 21 29 23 16
9 14 12 25 21 28 22 16
9 15 12 24 20 27 21 16
10 15 10 21 18 25 20 15
9 13 10 20 16 24 17 13
8 12 10 21 15 23 17 13
8 12 11 20 14 22 16 12
6 10 10 18 12 19 13 11
7 9 9 15 11 16 11 8
6 7 7 12 9 15 9 7
4 6 7 10 8 14 9 7
4 7 5 7 9 13 9 7
4 5 5 6 9 12 8 7
5 5 3 4 8 12 8 6
5 5 2 2 5 11 6 6
4 4 2 2 4 10 6 6
5 4 3 3 4 11 6 7
5 4 1 1 2 9 5 5
5 4 1 0 0 6 3 4
4 2 0 -2 -1 6 3 4
2 1 -1 -5 -2 5 2 3
4 1 -3 -7 -2 4 2 3
3 0 -3 -7 -2 4 2 3
2 -1 -5 -9 -3 3 1 3
3 0 -4 -8 -4 3 2 3
2 -1 -5 -8 -5 2 1 2
3 -1 -3 -7 -5 2 2 3
4 0 -3 -8 -6 0 1 4
2 -1 -3 -8 -7 -2 -1 2
2 -2 -4 -9 -7 -2 -1 3
0 -3 -3 -10 -7 -2 -1 2
2 -3 -5 -11 -7 -3 -2 2
4 -2 -5 -11 -7 -4 -2 1
2 -3 -5 -10 -7 -4 -1 2
2 -3 -3 -7 -8 -4 -1 2
2 -2 1 -2 -6 -2 0 2
1 -1 4 2 -4 -1 0 0
3 1 6 5 -3 -1 2 -4
3 4 8 9 -1 -1 1 -7
3 6 11 15 4 3 3 -6
6 10 13 21 9 5 4 -6
7 11 17 28 15 9 7 -4
7 12 17 34 19 11 9 -3
7 14 22 44 24 16 12 0
6 17 25 51 28 18 13 0
7 20 29 60 32 21 16 2
7 22 32 64 33 23 17 3
7 23 35 70 37 26 19 5
8 27 37 73 40 27 19 5
6 28 39 76 43 29 20 5
7 31 44 82 48 32 22 7
7 35 49 90 55 37 26 9
7 37 49 95 61 42 30 12
8 42 48 96 69 49 37 17
10 46 46 96 77 56 41 20
12 51 50 106 90 65 48 24
15 58 57 114 99 72 53 27
15 62 61 116 108 79 58 31
17 70 63 114 120 90 65 38
18 82 61 104 131 99 73 46
20 93 56 95 143 112 84 54
24 107 42 73 153 125 96 64
25 119 21 26 154 136 107 74
23 130 3 -30 145 140 114 81
20 140 -22 -102 124 139 118 88
17 151 -54 -192 91 135 122 95
16 163 -91 -290 55 134 130 104
18 175 -131 -379 31 141 141 116
19 188 -169 -452 12 154 156 129
23 203 -201 -511 -4 169 173 144
28 214 -233 -562 -26 181 189 156
33 220 -258 -599 -49 191 199 166
39 219 -281 -626 -78 195 207 173
42 216 -299 -642 -107 197 214 179
46 210 -308 -647 -134 196 219 183
49 204 -319 -655 -176 185 219 187
49 197 -330 -664 -228 170 219 191
49 193 -335 -668 -281 151 219 195
47 187 -339 -671 -337 124 214 196
42 180 -339 -666 -382 100 209 198
41 177 -333 -655 -415 82 206 201
35 174 -323 -637 -436 61 201 201
32 173 -312 -616 -451 36 193 199
28 169 -303 -594 -461 13 186 199
28 165 -296 -571 -467 -8 183 201
28 168 -289 -549 -464 -20 183 207
27 169 -281 -525 -453 -28 184 213
27 169 -270 -497 -432 -28 188 217
28 170 -258 -470 -409 -23 193 222
25 167 -247 -444 -385 -22 193 222
23 162 -232 -413 -356 -16 190 219
21 160 -218 -384 -325 -7 191 216
21 153 -202 -352 -287 11 193 212
23 142 -185 -317 -249 30 192 205
21 131 -167 -283 -215 43 185 194
20 118 -146 -247 -184 50 173 178
20 104 -126 -212 -154 55 162 164
18 90 -106 -180 -129 56 151 148
16 79 -86 -148 -106 55 136 130
14 64 -69 -120 -85 48 118 109
12 49 -53 -95 -69 39 98 89
11 36 -40 -72 -56 26 76 70
8 22 -28 -54 -48 11 52 49
6 11 -17 -36 -40 0 33 31
6 0 -9 -21 -33 -9 15 15
3 -8 0 -10 -29 -18 1 2
2 -13 6 0 -24 -22 -9 -8
1 -21 12 7 -21 -25 -17 -17
0 -26 16 12 -19 -29 -25 -24
0 -29 18 14 -18 -34 -29 -28
-2 -34 20 16 -17 -36 -32 -31
-4 -38 23 19 -16 -38 -34 -33
-5 -40 24 22 -13 -40 -37 -35
-5 -42 26 24 -11 -42 -39 -38
-4 -43 31 28 -9 -42 -40 -40
-4 -44 33 32 -8 -42 -41 -42
-3 -44 33 34 -5 -41 -41 -41
-1 -43 34 36 -4 -39 -41 -40
0 -41 37 40 -1 -39 -40 -38
2 -36 39 46 5 -35 -38 -37
4 -33 39 49 9 -34 -37 -36
5 -33 39 53 12 -33 -36 -36
6 -31 39 56 14 -32 -35 -35
6 -32 39 59 17 -31 -34 -35
8 -30 42 63 21 -29 -32 -34
9 -28 45 67 24 -27 -31 -33
8 -30 45 70 24 -28 -33 -34
5 -29 47 71 22 -30 -36 -37
3 -29 48 74 22 -31 -38 -38
3 -30 49 77 24 -33 -40 -41
4 -28 48 77 25 -34 -40 -43
2 -30 50 79 26 -34 -41 -43
0 -31 49 80 27 -37 -43 -45
1 -33 49 82 28 -38 -45 -47
-1 -36 51 85 29 -38 -45 -48
-1 -37 52 89 32 -39 -47 -48
0 -39 52 92 32 -39 -48 -50
0 -42 53 94 32 -39 -50 -53
0 -41 55 98 34 -41 -51 -54
-1 -42 56 101 36 -41 -53 -57
-1 -44 56 103 39 -42 -54 -58
0 -44 59 107 43 -41 -54 -59
0 -46 61 112 45 -41 -55 -60
1 -46 61 117 48 -42 -57 -62
1 -46 65 124 51 -40 -56 -63
-1 -48 69 130 55 -40 -58 -63
0 -49 69 135 58 -39 -56 -64
0 -50 72 140 60 -39 -59 -65
0 -53 75 146 62 -39 -60 -66
1 -54 76 152 66 -37 -62 -69
0 -56 78 157 70 -39 -63 -70
3 -56 82 163 74 -38 -64 -72
2 -58 85 172 78 -38 -65 -73
1 -59 87 178 83 -38 -67 -75
2 -59 90 184 88 -38 -69 -78
2 -61 93 192 93 -38 -72 -79
1 -63 96 200 97 -37 -73 -80
1 -65 101 209 102 -36 -76 -82
1 -67 103 215 106 -38 -79 -86
1 -69 107 222 112 -36 -80 -87
3 -71 108 229 118 -36 -81 -89
2 -74 112 235 124 -35 -82 -93
3 -74 116 244 131 -35 -83 -94
2 -75 117 251 138 -34 -85 -96
3 -75 121 258 148 -31 -84 -98
6 -75 127 267 155 -29 -86 -99
3 -78 130 276 162 -25 -85 -99
3 -80 135 283 169 -21 -86 -100
3 -82 137 288 175 -21 -88 -103
3 -84 139 294 181 -17 -89 -106
4 -84 142 299 190 -13 -89 -107
3 -85 141 303 196 -11 -90 -109
4 -86 144 310 205 -8 -89 -110
7 -83 147 314 213 -3 -88 -109
7 -83 149 318 221 1 -87 -111
8 -81 152 323 229 7 -87 -111
8 -81 153 326 236 12 -85 -110
8 -82 156 329 242 18 -84 -110
10 -80 157 330 248 23 -83 -110
10 -80 156 331 252 27 -82 -110
11 -80 155 330 258 33 -79 -111
12 -79 154 329 264 39 -77 -111
11 -78 153 327 270 44 -74 -109
13 -77 152 325 275 51 -71 -108
13 -74 150 322 278 57 -67 -106
14 -71 149 320 283 64 -63 -102
17 -68 147 316 285 70 -57 -99
