I II V1 V2 V3 V4 V5 V6
-25 -6 -57 -720 -809 -336 -108 62
-24 -21 -49 -637 -728 -351 -150 15
-22 -37 -40 -553 -647 -367 -193 -33
-20 -54 -31 -469 -565 -384 -235 -80
-18 -70 -23 -385 -484 -400 -278 -129
-17 -87 -15 -301 -403 -415 -320 -176
-15 -87 -10 -259 -351 -370 -289 -163
-13 -85 -6 -218 -300 -323 -258 -149
-12 -83 0 -177 -247 -276 -226 -136
-10 -81 4 -135 -195 -230 -193 -121
-9 -80 8 -94 -144 -183 -161 -108
-7 -71 9 -76 -118 -160 -143 -96
-6 -62 8 -59 -94 -139 -124 -85
-4 -54 7 -43 -68 -116 -106 -72
-3 -45 6 -25 -43 -94 -88 -61
-2 -36 6 -9 -18 -72 -70 -50
0 -31 5 0 -8 -63 -62 -44
0 -26 5 8 2 -54 -55 -37
0 -21 5 15 12 -45 -48 -32
0 -16 5 23 21 -35 -40 -26
0 -12 5 30 30 -27 -33 -21
1 -11 6 34 32 -25 -32 -20
1 -11 5 38 33 -24 -31 -20
1 -11 4 43 34 -23 -30 -20
1 -11 3 47 35 -22 -29 -20
1 -11 3 50 36 -21 -29 -20
2 -12 3 51 38 -20 -28 -20
2 -11 4 51 39 -20 -28 -20
2 -11 6 51 40 -20 -28 -20
2 -10 7 51 42 -20 -28 -20
2 -10 8 51 43 -20 -28 -20
1 -9 11 48 44 -19 -29 -21
0 -9 13 45 43 -19 -29 -21
-2 -9 16 43 42 -19 -29 -22
-3 -9 18 39 40 -19 -29 -22
-3 -9 20 37 40 -19 -29 -22
-4 -9 21 36 39 -19 -30 -23
-4 -9 20 36 40 -19 -30 -23
-4 -9 20 35 40 -19 -30 -24
-4 -9 19 35 42 -19 -30 -24
-4 -9 19 35 42 -19 -30 -24
-4 -9 18 34 43 -18 -30 -25
-4 -9 17 34 44 -18 -30 -25
-4 -9 17 35 45 -17 -30 -25
-4 -9 16 35 46 -17 -30 -25
-4 -9 16 35 46 -17 -30 -25
-4 -9 15 38 48 -16 -31 -26
-4 -8 15 40 50 -16 -30 -26
-4 -8 15 44 52 -15 -30 -26
-4 -7 15 46 54 -15 -29 -26
-4 -7 15 48 56 -15 -29 -26
-4 -6 16 52 59 -13 -28 -25
-4 -6 16 55 61 -11 -27 -25
-4 -6 16 59 64 -9 -26 -25
-4 -6 16 62 66 -7 -25 -25
-4 -6 16 65 68 -5 -24 -25
-4 -6 15 68 71 -3 -23 -25
-4 -5 14 70 73 -2 -23 -25
-4 -5 14 73 76 0 -23 -25
-4 -4 13 75 78 1 -23 -25
-4 -4 13 77 80 2 -23 -25
-4 -3 12 80 84 4 -23 -26
-4 -3 11 84 87 6 -22 -26
-4 -4 10 87 90 7 -22 -25
-4 -4 9 90 93 9 -21 -25
-4 -4 9 93 95 10 -21 -25
-4 -4 8 97 100 13 -18 -22
-3 -2 8 101 104 15 -15 -20
-3 0 8 105 108 17 -12 -18
-2 2 8 108 113 19 -9 -16
-2 3 8 112 117 21 -6 -14
0 4 8 117 122 28 -2 -13
1 4 8 121 128 35 2 -12
1 3 8 126 133 43 6 -11
2 3 8 131 137 49 10 -10
2 3 8 135 142 56 13 -9
3 3 8 138 146 60 16 -5
3 5 7 141 149 63 18 -2
3 7 7 143 152 67 21 3
3 9 6 146 155 71 23 7
3 10 6 148 158 74 25 10
4 13 5 150 160 78 30 13
4 15 5 152 161 82 35 15
4 17 5 154 163 87 40 17
4 19 5 156 164 91 46 19
4 21 5 157 165 95 51 21
3 22 4 158 167 96 53 23
4 21 4 158 167 97 55 24
4 21 4 158 165 98 57 25
5 20 4 158 165 99 59 26
5 20 4 158 165 99 61 27
6 19 3 159 163 100 62 28
6 19 3 159 162 101 63 28
7 19 3 158 161 101 63 27
7 19 3 158 160 102 64 27
7 19 3 158 159 102 64 27
8 20 2 156 157 103 65 26
8 20 2 155 156 103 65 27
8 20 2 153 155 103 65 28
8 20 2 152 154 103 65 29
8 20 2 151 153 103 65 30
8 21 3 148 149 102 64 31
7 20 2 146 146 101 64 32
7 20 2 143 143 100 65 32
6 19 1 140 139 99 65 33
6 19 1 138 136 98 65 33
5 18 0 133 130 93 63 32
5 18 0 128 123 89 60 30
5 18 -2 123 118 84 56 28
5 18 -2 118 112 79 52 26
5 18 -2 113 106 74 49 24
6 17 -3 108 99 68 45 21
6 16 -3 102 91 62 39 18
5 16 -3 97 84 56 35 15
5 15 -3 91 76 50 31 13
5 15 -3 86 68 44 27 10
4 13 -4 81 62 37 23 8
4 10 -4 77 57 32 19 5
4 8 -4 73 51 26 15 3
4 6 -4 69 46 21 12 1
4 4 -4 65 39 15 8 -2
3 3 -3 61 35 11 5 -3
4 3 -3 58 31 7 2 -4
5 3 -4 55 26 3 -2 -5
6 3 -4 51 22 0 -4 -6
6 3 -4 48 18 -5 -7 -6
7 3 -5 46 15 -8 -9 -8
7 4 -4 43 13 -12 -11 -9
7 5 -3 40 10 -15 -12 -11
7 6 -2 38 7 -18 -14 -12
7 7 0 36 5 -21 -15 -13
6 7 2 31 2 -23 -17 -14
4 4 4 26 -3 -25 -20 -15
3 2 6 22 -6 -26 -22 -16
1 0 8 17 -9 -28 -24 -17
0 -3 10 12 -12 -29 -26 -18
-3 -4 11 9 -13 -31 -27 -20
-4 -3 12 6 -14 -33 -28 -21
-5 -3 12 3 -14 -35 -29 -23
-6 -2 13 1 -15 -36 -30 -24
-7 -2 13 -3 -15 -38 -31 -25
-8 0 14 -4 -17 -43 -33 -26
-8 -2 13 -4 -19 -46 -35 -27
-7 -3 12 -4 -20 -49 -36 -28
-7 -4 11 -4 -22 -53 -38 -29
-7 -4 11 -4 -23 -56 -39 -29
-6 -5 10 -4 -24 -57 -40 -30
-6 -5 10 -2 -23 -57 -40 -29
-6 -5 10 1 -22 -56 -40 -28
-6 -5 10 2 -21 -56 -40 -27
-6 -5 10 4 -21 -56 -40 -27
-6 -6 10 5 -20 -55 -39 -27
-5 -6 9 6 -19 -54 -39 -28
-5 -6 9 6 -18 -54 -39 -29
-4 -6 8 7 -17 -53 -39 -30
-4 -6 8 7 -17 -53 -39 -31
-3 -5 7 7 -16 -52 -39 -32
-3 -5 7 6 -16 -53 -40 -32
-3 -6 7 4 -16 -53 -40 -32
-3 -6 7 3 -16 -54 -41 -32
-3 -6 7 2 -16 -54 -41 -32
-3 -7 8 0 -17 -55 -43 -32
-3 -7 7 -2 -17 -55 -43 -32
-4 -8 6 -4 -17 -54 -43 -31
-4 -8 5 -6 -17 -54 -43 -31
-4 -8 4 -7 -17 -54 -43 -31
-5 -9 3 -8 -17 -53 -43 -30
-4 -9 2 -8 -17 -53 -43 -30
-4 -10 1 -9 -16 -53 -41 -30
-3 -10 0 -9 -16 -53 -41 -30
-3 -10 0 -9 -16 -53 -41 -30
-2 -11 -2 -10 -15 -51 -39 -29
-2 -11 0 -10 -14 -50 -37 -28
0 -11 1 -10 -13 -48 -35 -27
0 -11 2 -10 -12 -47 -34 -26
0 -11 2 -10 -12 -46 -32 -25
1 -11 3 -10 -11 -45 -31 -24
0 -11 2 -11 -11 -44 -31 -23
0 -11 2 -11 -10 -43 -30 -22
-2 -11 1 -12 -10 -41 -30 -21
-2 -11 1 -12 -10 -40 -30 -21
-3 -10 0 -13 -9 -39 -29 -20
-2 -10 0 -14 -9 -38 -28 -20
0 -9 0 -14 -10 -37 -27 -19
1 -9 0 -15 -10 -36 -26 -19
1 -9 0 -15 -10 -36 -26 -19
2 -8 0 -16 -11 -35 -25 -18
3 -8 0 -17 -11 -35 -24 -17
3 -7 0 -18 -11 -34 -23 -17
4 -7 0 -19 -11 -34 -22 -16
4 -7 0 -20 -11 -34 -22 -16
5 -6 -2 -12 -4 -32 -23 -17
6 -6 -2 -2 6 -29 -25 -19
7 -7 -2 10 15 -27 -27 -21
8 -7 -2 21 24 -25 -30 -24
9 -7 -2 32 33 -23 -32 -26
10 -4 0 50 63 -14 -36 -33
9 1 1 69 96 -3 -39 -40
8 6 2 88 130 8 -44 -48
7 11 3 107 162 18 -47 -55
7 16 4 127 195 29 -51 -62
9 25 -3 91 172 70 -5 -29
14 34 -12 43 137 116 52 13
18 45 -20 -5 101 162 108 55
22 54 -29 -53 66 210 164 97
27 64 -38 -100 30 256 221 139
31 79 -48 -164 -33 310 299 202
34 95 -57 -232 -103 366 381 270
38 111 -65 -300 -173 423 462 338
42 127 -74 -367 -241 479 544 404
46 143 -83 -435 -311 535 625 472
35 144 -86 -503 -403 463 585 472
21 141 -88 -570 -501 361 519 457
7 139 -89 -638 -597 261 452 442
-8 136 -90 -704 -694 160 387 428
-22 133 -91 -772 -790 59 321 412
-24 102 -85 -739 -777 -38 211 323
-22 66 -74 -685 -739 -136 91 220
-20 30 -64 -631 -701 -232 -29 115
-19 -6 -55 -576 -663 -329 -149 11
-17 -41 -45 -522 -626 -427 -269 -94
-16 -54 -36 -457 -561 -420 -283 -120
-15 -61 -29 -391 -490 -388 -274 -131
-14 -67 -22 -324 -421 -357 -265 -141
-13 -74 -14 -257 -350 -326 -255 -151
-13 -80 -7 -190 -280 -296 -245 -162
-11 -78 -3 -156 -235 -264 -224 -151
-10 -72 1 -131 -195 -232 -199 -135
-9 -66 3 -104 -156 -200 -175 -118
-7 -60 6 -77 -116 -168 -150 -102
-6 -54 9 -51 -77 -136 -126 -86
-5 -47 12 -38 -58 -118 -111 -76
-5 -38 14 -30 -44 -104 -99 -69
-5 -31 17 -21 -29 -90 -87 -61
-5 -24 19 -13 -15 -75 -74 -54
-5 -17 22 -4 0 -61 -62 -46
-6 -14 23 1 6 -56 -57 -43
-6 -12 23 5 9 -52 -54 -39
-7 -10 23 9 13 -49 -51 -37
-7 -9 23 12 17 -46 -48 -34
-7 -7 23 16 21 -41 -45 -32
-8 -6 22 18 22 -40 -44 -31
-8 -6 21 19 23 -38 -44 -32
-7 -5 20 20 24 -37 -44 -33
-7 -5 19 22 25 -36 -44 -34
-7 -5 18 23 26 -35 -44 -35
-6 -4 17 24 27 -34 -45 -36
-5 -4 16 24 27 -34 -45 -36
-4 -5 15 24 27 -35 -44 -36
-3 -5 14 24 27 -35 -44 -36
-2 -5 14 24 27 -35 -44 -36
0 -6 13 24 28 -35 -43 -35
-2 -5 12 24 30 -33 -43 -35
-3 -5 12 25 31 -31 -43 -36
-4 -4 11 25 32 -29 -43 -36
-5 -4 11 25 33 -27 -43 -36
-6 -3 10 26 35 -26 -41 -37
-6 -2 10 26 37 -26 -41 -35
-5 -2 10 27 40 -25 -40 -34
-5 0 10 27 43 -25 -40 -33
-5 0 10 27 45 -25 -40 -32
-4 1 8 29 46 -24 -39 -31
-4 1 7 32 48 -22 -38 -32
-4 0 6 34 49 -21 -38 -32
-4 0 4 37 50 -20 -37 -33
-4 0 3 39 51 -19 -37 -33
-5 -2 2 42 53 -18 -36 -33
-5 -3 2 45 55 -18 -36 -32
-5 -4 2 47 57 -18 -35 -30
-5 -5 2 50 58 -18 -35 -28
-5 -6 2 52 60 -18 -35 -27
-4 -7 2 55 63 -17 -33 -26
-3 -7 2 59 65 -16 -32 -26
-2 -7 2 62 68 -15 -31 -27
0 -7 2 65 70 -13 -29 -27
0 -7 2 69 73 -12 -28 -27
1 -6 3 72 76 -10 -26 -27
1 -5 3 76 80 -8 -24 -26
0 -3 3 79 85 -5 -22 -24
0 0 3 82 89 -3 -20 -22
0 1 3 87 93 0 -18 -21
0 2 3 90 96 4 -17 -20
1 1 3 93 100 8 -15 -20
3 0 3 96 104 12 -14 -20
5 -2 3 99 108 16 -13 -20
6 -3 3 102 112 20 -12 -20
7 -3 4 106 116 23 -10 -19
7 -2 4 110 121 27 -8 -18
6 1 3 114 126 30 -5 -16
6 3 3 118 131 34 -3 -14
6 4 3 122 135 38 0 -13
5 5 2 126 140 43 3 -11
6 5 2 130 144 49 7 -9
6 6 2 134 148 54 11 -6
7 6 2 138 152 59 15 -4
7 6 2 142 157 64 19 -2
8 7 3 144 160 69 22 1
8 8 2 146 162 73 26 3
8 8 2 149 165 77 30 5
8 9 1 151 169 81 34 7
8 9 1 153 172 86 38 9
9 10 0 155 174 89 42 11
10 11 0 157 175 92 46 14
10 12 0 159 176 95 50 17
11 13 0 161 178 99 54 19
11 14 0 163 179 102 58 22
12 15 1 164 180 103 59 23
12 15 0 164 179 103 59 23
11 15 0 163 178 103 59 23
11 15 -2 163 177 103 59 23
11 15 -2 163 176 103 59 23
10 16 -3 162 175 103 59 24
10 17 -3 162 175 104 60 25
11 18 -3 161 175 105 61 27
11 18 -3 161 175 105 61 28
11 19 -3 161 175 106 62 30
12 20 -2 160 175 107 64 31
11 19 -3 159 174 107 66 32
10 19 -4 159 173 107 68 32
10 18 -4 158 173 107 70 33
9 18 -5 158 172 107 72 33
8 17 -6 155 169 108 72 34
9 18 -6 152 164 107 71 33
10 19 -7 149 161 106 70 32
11 19 -7 146 157 106 68 32
12 20 -7 142 153 105 67 31
12 21 -7 136 147 100 65 30
9 21 -4 129 140 94 63 29
6 21 0 121 133 89 60 28
4 21 2 114 126 82 58 27
1 21 5 107 117 76 56 26
0 20 6 100 109 70 51 23
1 18 8 92 100 63 45 20
2 17 9 84 91 57 38 16
2 16 10 75 82 51 31 13
3 15 11 68 73 44 25 9
4 14 12 62 66 37 21 7
4 12 12 57 60 31 18 6
4 11 11 52 54 25 14 5
4 10 11 47 48 19 11 3
4 9 11 42 42 13 7 2
4 8 10 37 36 9 4 0
4 6 10 33 31 5 1 -4
3 5 9 29 26 1 -3 -6
3 4 9 25 22 -4 -6 -8
3 3 9 21 17 -8 -10 -11
2 2 8 17 14 -12 -12 -12
2 1 7 14 11 -14 -14 -14
2 0 7 11 8 -17 -16 -15
2 0 6 8 6 -20 -18 -16
2 -2 6 5 3 -23 -20 -17
2 -3 5 3 2 -24 -21 -18
1 -4 5 1 1 -25 -22 -18
1 -5 5 0 0 -26 -22 -18
0 -5 5 -3 -2 -27 -23 -18
0 -6 5 -5 -3 -28 -23 -18
-2 -7 6 -7 -4 -30 -24 -18
-2 -8 6 -9 -5 -31 -25 -19
-2 -8 6 -11 -6 -33 -25 -20
-2 -9 6 -14 -7 -34 -26 -21
-2 -9 6 -16 -8 -36 -26 -22
-3 -10 6 -17 -9 -37 -27 -23
-2 -10 5 -17 -9 -37 -28 -23
-2 -10 3 -17 -10 -38 -28 -23
0 -10 2 -17 -10 -38 -29 -23
0 -10 0 -17 -10 -38 -29 -23
1 -10 -2 -15 -11 -39 -30 -23
1 -10 -2 -13 -10 -40 -30 -23
1 -10 -2 -12 -10 -40 -30 -23
1 -10 -2 -10 -9 -41 -30 -23
1 -10 -2 -8 -9 -41 -30 -23
0 -10 -2 -7 -8 -43 -29 -22
1 -10 -2 -6 -8 -43 -29 -22
2 -10 -2 -5 -8 -43 -30 -23
2 -10 -2 -4 -8 -43 -30 -23
3 -10 -2 -3 -8 -43 -30 -23
4 -11 -3 -2 -5 -41 -31 -24
3 -11 -2 0 -2 -41 -31 -24
2 -12 -2 1 2 -43 -32 -24
2 -12 0 1 5 -43 -32 -24
1 -12 0 2 8 -43 -32 -24
0 -11 1 18 30 -38 -36 -29
1 -8 1 42 62 -30 -41 -37
1 -5 2 64 95 -22 -47 -46
2 -2 2 88 127 -14 -52 -53
2 2 2 111 158 -6 -57 -61
6 8 1 103 165 17 -41 -53
11 16 -4 79 161 47 -16 -36
16 25 -7 56 157 75 10 -20
21 33 -11 32 152 104 35 -4
26 42 -14 9 148 134 61 13
28 52 -22 -48 96 181 123 61
30 63 -32 -118 21 237 203 122
31 74 -43 -188 -53 294 282 184
32 85 -53 -259 -127 349 362 245
33 96 -62 -329 -201 405 442 307
29 106 -68 -397 -293 403 467 339
22 114 -72 -464 -392 372 464 357
15 123 -76 -530 -491 343 462 375
7 133 -80 -597 -591 312 460 393
0 142 -85 -663 -689 281 456 410
-6 123 -83 -689 -740 172 363 362
-11 91 -77 -695 -767 25 228 280
-15 59 -72 -701 -795 -121 92 199
-19 26 -66 -707 -821 -269 -44 118
-23 -6 -60 -714 -849 -415 -180 36
-24 -25 -54 -663 -801 -467 -242 -17
-21 -38 -47 -582 -717 -471 -270 -57
-18 -51 -39 -503 -632 -476 -299 -98
-15 -64 -32 -423 -547 -480 -326 -138
-12 -76 -25 -342 -462 -485 -355 -179
-11 -81 -18 -286 -395 -449 -340 -183
-11 -82 -12 -243 -338 -392 -301 -168
-12 -82 -6 -200 -280 -333 -263 -153
-12 -83 1 -157 -223 -276 -225 -139
-12 -83 7 -114 -165 -219 -187 -123
-12 -78 9 -88 -128 -183 -161 -111
-9 -69 8 -69 -101 -158 -143 -100
-7 -59 7 -50 -73 -133 -123 -89
-4 -50 6 -30 -46 -108 -104 -77
0 -40 5 -12 -18 -83 -86 -66
1 -34 4 1 0 -67 -72 -58
1 -29 4 8 11 -56 -62 -50
1 -25 4 16 22 -45 -52 -43
1 -20 4 23 33 -33 -41 -34
1 -16 4 31 45 -22 -31 -27
1 -14 3 35 50 -17 -27 -24
1 -12 3 38 52 -16 -26 -24
2 -11 2 42 54 -14 -25 -23
3 -9 2 45 57 -13 -25 -23
3 -8 2 48 59 -11 -24 -23
4 -7 2 49 60 -10 -23 -22
4 -7 5 49 60 -10 -23 -22
3 -8 8 48 60 -10 -23 -23
2 -8 11 47 60 -10 -23 -23
2 -8 14 47 60 -10 -23 -23
1 -9 15 45 61 -10 -24 -24
0 -9 15 42 60 -10 -25 -25
-2 -10 16 38 59 -11 -26 -26
-3 -10 16 35 59 -12 -26 -26
-4 -10 16 32 58 -12 -27 -27
-5 -11 17 31 57 -13 -28 -28
-4 -11 17 32 58 -13 -28 -28
-3 -10 17 34 59 -13 -28 -27
-3 -10 17 35 60 -13 -28 -27
-2 -10 17 37 61 -13 -28 -27
0 -9 17 38 62 -13 -28 -26
0 -9 17 38 64 -12 -28 -26
-2 -9 16 39 65 -11 -27 -27
-3 -9 15 39 67 -11 -26 -28
-3 -9 15 39 68 -10 -26 -28
-4 -8 14 42 70 -9 -25 -29
-4 -9 14 44 72 -8 -25 -29
-4 -11 14 46 74 -6 -24 -29
-4 -12 14 48 77 -5 -24 -29
-4 -13 14 50 79 -4 -24 -29
-4 -14 14 52 80 -3 -23 -29
-4 -14 14 53 81 -2 -21 -28
-4 -14 14 55 84 1 -20 -27
-4 -14 14 57 85 2 -18 -27
-4 -14 14 59 86 3 -17 -26
-3 -13 13 62 89 5 -16 -25
-3 -12 13 67 92 7 -16 -25
-2 -11 14 71 96 9 -15 -25
-2 -10 14 75 100 11 -15 -25
-2 -9 14 80 103 14 -15 -25
0 -8 15 85 107 17 -13 -26
0 -8 15 90 112 21 -12 -25
-2 -9 16 94 117 26 -10 -23
-3 -9 16 98 121 30 -9 -22
-3 -9 16 103 127 34 -7 -21
-4 -10 17 106 131 38 -5 -20
-3 -8 17 109 136 44 -2 -19
-2 -7 17 112 141 49 2 -18
-2 -5 17 115 146 53 5 -18
0 -4 17 118 151 58 8 -17
1 -3 18 121 155 63 13 -14
1 -2 18 125 159 70 19 -11
1 0 18 128 163 76 25 -7
1 1 18 131 169 82 30 -3
1 2 18 134 173 89 36 1
2 4 18 136 176 94 43 4
2 5 17 137 177 99 48 8
2 7 16 139 179 103 53 11
2 9 16 140 181 107 58 14
2 11 15 141 183 112 63 17
3 12 14 142 184 115 66 19
3 12 14 143 184 118 67 21
3 12 13 144 185 120 69 22
3 12 13 144 185 123 70 24
3 12 13 145 185 126 71 25
4 12 12 146 186 128 73 26
4 12 12 145 185 128 75 28
4 13 12 144 184 129 77 29
4 14 12 144 184 129 79 31
4 14 12 143 183 129 82 32
4 15 12 142 182 130 84 33
4 14 13 141 180 131 84 34
3 13 14 140 179 132 85 36
2 13 15 139 177 132 85 37
2 12 16 138 176 133 85 38
1 11 17 137 174 134 86 39
1 12 16 135 171 133 86 39
1 13 15 133 168 132 86 38
1 13 15 132 164 131 86 38
1 14 14 130 161 130 86 38
1 15 13 127 157 127 85 36
1 14 13 123 152 121 81 35
0 13 12 120 148 116 78 33
-2 13 12 116 144 111 75 31
-2 12 12 113 139 106 72 29
-3 11 11 109 133 100 68 27
-2 11 11 104 127 93 64 26
1 10 11 100 119 87 59 24
2 9 11 95 112 80 55 22
3 9 11 90 105 73 50 20
4 8 11 86 98 67 46 18
4 7 11 80 91 60 42 15
3 6 11 75 82 53 37 12
2 6 11 70 75 46 32 9
2 5 11 65 68 38 28 7
1 4 11 61 61 32 24 5
1 3 11 57 56 27 20 3
1 2 10 54 50 22 16 1
1 2 9 50 44 16 11 0
1 1 9 47 38 11 7 -3
2 0 8 44 34 7 5 -5
2 0 7 42 30 4 3 -6
2 0 6 38 27 1 1 -8
2 0 6 36 23 -3 0 -10
2 0 5 34 20 -6 -3 -12
3 -2 5 31 17 -9 -5 -13
3 -3 8 27 15 -13 -8 -13
2 -5 10 24 12 -16 -11 -14
1 -6 13 20 10 -20 -14 -14
1 -7 15 17 8 -23 -16 -14
0 -8 17 14 5 -26 -18 -15
-3 -8 17 11 3 -28 -19 -17
-5 -7 18 9 0 -30 -20 -18
-6 -7 18 6 -3 -32 -21 -19
-8 -7 18 4 -5 -34 -22 -21
-9 -7 19 2 -7 -36 -23 -22
-9 -9 19 2 -7 -37 -25 -24
-8 -11 18 2 -8 -39 -27 -25
-7 -13 18 2 -9 -41 -28 -26
-7 -15 18 2 -9 -44 -30 -28
-6 -16 17 3 -10 -45 -31 -29
-6 -15 17 3 -10 -45 -32 -29
-6 -14 16 4 -10 -46 -33 -28
-6 -13 16 5 -10 -46 -34 -27
-6 -12 16 5 -10 -46 -35 -27
-6 -11 15 6 -11 -47 -36 -26
-6 -11 15 6 -11 -47 -36 -26
-6 -11 15 5 -11 -48 -35 -27
-6 -11 15 4 -11 -49 -34 -27
-6 -11 15 4 -11 -49 -34 -27
-5 -11 15 3 -12 -50 -33 -28
-3 -11 14 3 -11 -50 -33 -27
0 -11 13 2 -10 -49 -33 -26
2 -11 13 1 -10 -48 -33 -25
4 -11 12 1 -9 -48 -33 -24
5 -11 11 0 -8 -47 -32 -23
3 -11 10 -2 -8 -47 -32 -23
1 -11 9 -3 -8 -47 -33 -24
-2 -11 8 -4 -8 -47 -33 -25
-4 -11 7 -5 -8 -47 -33 -25
-5 -10 6 -6 -8 -47 -34 -26
-4 -10 5 -8 -8 -46 -34 -26
-3 -11 4 -10 -9 -45 -34 -26
-3 -11 4 -11 -10 -44 -34 -26
-2 -11 3 -13 -10 -43 -34 -26
0 -12 2 -14 -11 -41 -33 -25
0 -12 2 -14 -11 -40 -31 -23
0 -12 2 -13 -10 -39 -29 -21
0 -12 2 -13 -10 -38 -27 -19
0 -12 2 -13 -10 -37 -25 -17
-2 -11 1 -12 -9 -35 -24 -15
-2 -12 1 -11 -9 -33 -22 -15
0 -13 1 -9 -8 -31 -20 -14
1 -13 1 -8 -7 -29 -19 -14
1 -14 1 -7 -7 -27 -17 -14
2 -15 2 -2 0 -26 -17 -14
2 -15 2 8 10 -24 -19 -16
2 -14 3 17 19 -23 -21 -19
2 -14 3 26 29 -22 -23 -21
2 -14 3 34 39 -20 -25 -23
1 -13 4 52 62 -13 -28 -30
2 -11 6 76 97 0 -33 -39
3 -9 7 101 131 11 -38 -50
3 -7 8 126 164 23 -43 -59
4 -5 10 150 199 35 -48 -69
8 2 7 141 196 63 -23 -54
14 13 -2 100 158 104 30 -15
21 24 -10 58 121 145 84 25
27 35 -18 16 84 185 137 65
33 47 -26 -25 46 226 190 104
37 60 -33 -79 -10 276 258 159
37 74 -41 -145 -81 335 340 227
37 88 -50 -210 -153 393 421 296
37 102 -57 -275 -224 450 503 364
37 116 -65 -341 -296 509 584 433
30 123 -69 -408 -383 481 585 459
17 125 -70 -480 -485 372 509 442
4 126 -72 -551 -588 264 432 426
-10 127 -73 -621 -689 154 356 409
-22 128 -74 -692 -791 46 280 393
-29 111 -71 -707 -826 -57 183 334
-30 75 -62 -670 -796 -154 66 233
-31 39 -53 -632 -765 -251 -50 133
-31 4 -45 -594 -733 -348 -166 32
-32 -32 -35 -556 -702 -444 -282 -69
-33 -54 -27 -502 -649 -476 -333 -123
-32 -62 -19 -432 -574 -443 -321 -136
-30 -71 -12 -363 -498 -411 -308 -148
-29 -80 -5 -294 -424 -379 -296 -159
-28 -89 4 -225 -349 -346 -283 -172
-26 -92 9 -176 -289 -312 -263 -170
-24 -88 11 -147 -247 -275 -235 -152
-21 -82 14 -118 -204 -239 -206 -135
-19 -78 16 -90 -161 -203 -179 -118
-17 -74 18 -61 -118 -168 -151 -101
-15 -67 19 -40 -88 -141 -131 -88
-13 -58 17 -28 -68 -122 -116 -79
-11 -49 15 -15 -48 -104 -102 -71
-10 -39 13 -2 -28 -87 -89 -63
-8 -30 11 11 -9 -68 -74 -55
-7 -24 9 20 5 -56 -63 -48
-7 -21 9 25 11 -50 -54 -44
-6 -18 8 29 17 -44 -45 -38
-5 -14 7 34 24 -37 -34 -33
-5 -11 7 39 30 -31 -25 -29
-4 -9 6 43 34 -27 -20 -26
-5 -10 8 44 34 -26 -21 -26
-5 -11 10 44 34 -26 -21 -27
-6 -13 12 45 34 -25 -22 -28
-7 -14 14 46 34 -24 -23 -28
-8 -15 16 46 35 -23 -24 -29
-8 -15 20 42 34 -24 -24 -29
-8 -15 23 38 34 -25 -24 -30
-9 -15 26 35 33 -26 -24 -31
-9 -15 30 31 32 -27 -24 -31
-10 -14 32 29 31 -28 -25 -32
-10 -14 32 30 33 -26 -25 -32
-10 -14 32 30 34 -25 -25 -32
-9 -14 32 31 36 -23 -24 -32
-9 -14 32 32 38 -21 -24 -32
-8 -14 32 33 39 -20 -23 -33
-9 -14 30 34 40 -20 -21 -33
-9 -14 29 35 42 -20 -20 -32
-10 -14 28 37 43 -20 -19 -31
-11 -14 26 38 44 -20 -17 -31
-12 -14 25 40 46 -19 -16 -30
-11 -14 25 45 48 -18 -16 -30
-11 -14 25 49 50 -17 -16 -30
-10 -13 25 53 52 -15 -16 -30
-9 -13 25 57 54 -14 -16 -30
-8 -12 24 60 56 -13 -16 -30
-8 -10 24 62 58 -11 -16 -30
-8 -9 24 63 59 -10 -15 -30
-7 -8 23 64 60 -8 -14 -29
-7 -6 23 66 62 -6 -14 -29
-6 -5 22 68 64 -5 -13 -28
-6 -5 22 70 67 -4 -13 -28
-6 -6 22 72 70 -3 -13 -27
-5 -7 22 75 73 0 -13 -26
-5 -7 22 77 76 1 -13 -26
-4 -8 21 80 79 2 -12 -25
-4 -8 19 82 82 4 -12 -25
-5 -8 18 85 85 5 -11 -25
-6 -7 16 88 88 7 -10 -25
-6 -7 14 90 91 9 -10 -25
-7 -6 13 93 95 11 -9 -24
-5 -6 13 97 99 14 -8 -24
-3 -6 13 101 104 16 -8 -23
0 -6 13 105 108 19 -7 -22
2 -6 13 109 113 22 -6 -22
3 -7 13 114 118 25 -4 -20
2 -6 13 118 123 29 1 -18
1 -6 13 123 129 33 5 -16
0 -5 12 129 134 37 9 -13
-2 -4 12 134 139 42 12 -11
-3 -3 11 138 143 46 16 -9
-2 0 11 141 147 51 19 -7
0 1 10 144 151 55 21 -6
1 2 9 147 155 59 24 -4
2 4 9 150 158 63 27 -2
3 5 8 152 161 67 30 0
3 6 8 154 163 70 33 2
3 6 8 155 165 73 36 4
4 7 7 157 168 77 39 6
4 8 7 159 170 80 43 8
5 9 6 160 171 82 45 9
5 9 6 161 172 85 47 12
5 9 6 162 173 86 48 14
4 9 7 163 175 88 49 16
4 9 7 164 176 90 51 18
3 10 8 165 177 91 52 20
4 11 8 164 175 90 52 19
5 11 8 164 174 90 52 18
7 12 8 163 173 89 52 17
8 13 8 162 171 88 52 16
9 14 7 161 170 87 52 15
9 14 7 160 170 88 53 16
9 14 7 159 170 89 53 17
9 14 6 158 170 90 54 19
9 14 6 157 170 91 55 20
9 13 5 156 171 92 56 21
9 11 5 156 170 94 57 23
9 10 5 156 169 95 58 24
9 8 5 156 168 96 59 25
9 6 5 156 167 98 60 27
10 5 4 154 163 99 61 28
9 5 4 149 158 97 61 28
9 6 4 144 153 96 61 28
8 7 4 140 148 94 61 27
7 7 4 135 142 92 61 27
6 8 4 130 136 89 59 26
6 8 3 123 129 84 55 23
7 9 3 117 121 78 51 21
8 10 2 112 113 73 47 19
8 10 1 106 106 68 44 17
9 10 0 101 99 64 40 15
9 8 0 98 93 59 38 14
9 5 0 94 87 55 36 14
8 2 0 91 81 50 34 13
8 -2 0 87 75 46 32 12
7 -4 -2 84 69 40 29 11
7 -3 -2 78 64 35 25 9
7 -2 -2 73 58 30 22 7
7 1 -2 69 52 25 18 5
7 2 -2 64 47 20 15 3
6 3 0 60 42 15 11 1
6 3 2 56 37 12 8 0
6 3 5 51 32 8 4 -3
5 3 7 47 28 5 1 -4
5 3 10 43 24 1 -4 -6
4 3 12 38 20 -3 -6 -7
3 0 12 34 17 -6 -7 -8
2 -3 12 29 13 -9 -9 -9
1 -5 12 25 10 -12 -10 -10
0 -7 12 21 7 -16 -12 -11
-2 -9 13 17 4 -18 -13 -12
-2 -9 13 15 1 -21 -16 -13
-2 -9 13 12 -2 -23 -18 -14
-2 -9 12 9 -4 -26 -20 -16
-2 -9 12 6 -6 -28 -22 -17
-3 -10 11 4 -8 -30 -24 -18
-3 -10 11 4 -8 -31 -24 -18
-3 -10 11 4 -8 -31 -24 -18
-3 -10 11 3 -9 -32 -25 -18
-3 -10 11 3 -9 -33 -25 -18
-3 -11 11 2 -10 -34 -26 -18
-3 -10 11 2 -10 -34 -26 -19
-3 -10 11 2 -10 -35 -26 -20
-3 -9 10 2 -10 -36 -27 -22
-3 -8 10 2 -10 -36 -27 -23
-2 -7 9 2 -10 -37 -28 -24
-2 -7 8 1 -10 -38 -29 -24
-2 -7 8 0 -10 -39 -29 -24
-2 -7 7 -2 -10 -41 -30 -24
-2 -7 6 -3 -10 -43 -31 -24
-2 -7 5 -4 -11 -44 -32 -23
0 -9 5 -4 -11 -44 -32 -23
1 -10 4 -4 -11 -44 -32 -23
3 -12 3 -5 -11 -44 -31 -23
4 -14 3 -5 -11 -44 -31 -23
5 -15 2 -6 -10 -43 -30 -23
3 -14 2 -6 -10 -43 -30 -23
1 -13 2 -7 -10 -43 -31 -23
-2 -11 2 -8 -11 -43 -32 -22
-4 -10 2 -8 -11 -43 -32 -22
-6 -9 1 -9 -12 -44 -33 -21
-5 -10 1 -10 -12 -43 -33 -21
-4 -10 1 -11 -12 -43 -32 -21
-3 -11 1 -13 -11 -41 -31 -22
-2 -12 1 -14 -11 -40 -31 -22
0 -13 0 -15 -10 -39 -30 -23
0 -13 0 -15 -8 -36 -28 -21
0 -13 0 -15 -7 -33 -27 -20
0 -13 0 -16 -5 -31 -25 -18
0 -13 0 -16 -3 -28 -23 -16
1 -12 -2 -17 -2 -26 -22 -15
1 -12 -2 -17 -2 -25 -21 -15
1 -12 -2 -17 -2 -25 -20 -15
1 -12 -2 -17 -2 -24 -18 -15
1 -12 -2 -17 -2 -23 -17 -15
1 -11 -2 -13 5 -22 -17 -16
1 -11 -2 3 23 -21 -22 -19
1 -11 0 19 42 -20 -27 -22
2 -10 1 34 60 -19 -32 -25
2 -10 1 50 78 -18 -36 -28
4 -7 2 63 96 -12 -40 -31
6 0 2 72 112 5 -37 -36
9 6 1 80 128 21 -35 -41
12 12 0 90 143 37 -32 -47
15 18 0 99 159 53 -30 -51
18 25 -5 86 152 84 -3 -36
21 36 -14 29 101 140 68 15
24 48 -23 -27 51 196 140 66
27 58 -32 -83 1 253 211 117
30 69 -43 -140 -50 309 282 169
33 81 -51 -198 -112 353 346 221
31 97 -57 -261 -195 376 397 274
30 112 -63 -323 -279 397 448 326
28 128 -69 -386 -362 419 500 380
27 143 -75 -448 -446 441 551 432
21 151 -79 -509 -529 410 547 450
10 143 -79 -563 -612 282 440 404
-2 135 -79 -618 -696 153 332 357
-14 127 -79 -673 -779 25 226 311
-25 119 -79 -728 -862 -103 118 264
-33 102 -76 -741 -894 -208 19 205
-31 68 -67 -676 -827 -270 -67 127
-29 33 -57 -610 -761 -332 -152 47
-27 0 -48 -545 -695 -394 -238 -32
-25 -34 -38 -478 -629 -456 -324 -112
-23 -58 -29 -415 -562 -483 -370 -163
-21 -63 -22 -358 -493 -439 -341 -159
-19 -68 -14 -302 -426 -395 -310 -155
-17 -73 -7 -244 -358 -351 -279 -150
-15 -78 2 -187 -290 -307 -249 -146
-13 -81 7 -141 -232 -266 -221 -139
-12 -75 7 -116 -193 -232 -196 -126
-12 -69 7 -92 -155 -199 -172 -112
-11 -64 8 -67 -116 -165 -147 -99
-10 -58 8 -41 -77 -132 -121 -86
-9 -52 9 -23 -47 -105 -101 -74
-8 -44 8 -14 -31 -91 -89 -65
-7 -34 7 -6 -16 -77 -76 -57
-5 -26 6 4 -2 -63 -64 -48
-4 -18 5 12 14 -50 -52 -39
-3 -12 4 19 25 -38 -41 -33
-3 -11 6 23 29 -33 -37 -31
-3 -11 9 27 32 -29 -33 -29
-3 -10 11 31 36 -24 -29 -27
-3 -9 13 35 40 -20 -25 -25
-3 -8 15 38 44 -16 -22 -23
-3 -9 16 36 44 -17 -24 -24
-3 -9 17 34 44 -18 -25 -24
-4 -10 18 32 43 -19 -27 -25
-4 -11 19 30 43 -21 -28 -26
-5 -12 20 28 42 -22 -30 -27
-5 -12 20 28 42 -21 -30 -27
-5 -12 20 28 42 -20 -30 -27
-5 -13 20 28 42 -19 -29 -27
-5 -13 20 28 42 -18 -29 -27
-6 -14 19 28 42 -17 -28 -27
-6 -13 18 28 44 -17 -28 -27
-6 -12 18 28 45 -16 -28 -27
-5 -11 17 29 47 -16 -28 -28
-5 -9 16 29 48 -15 -28 -28
-4 -8 15 30 50 -14 -27 -29
-4 -8 15 33 50 -13 -27 -29
-4 -9 14 35 50 -12 -27 -29
-4 -9 14 37 51 -11 -28 -29
-4 -10 13 40 51 -10 -28 -29
-4 -11 12 43 53 -9 -29 -30
-4 -11 12 45 56 -9 -28 -29
-4 -11 12 48 59 -9 -27 -29
-4 -10 12 50 62 -9 -26 -28
-4 -10 12 52 65 -9 -25 -27
-5 -9 12 54 68 -8 -24 -26
-5 -9 12 56 70 -6 -23 -25
-5 -9 11 58 72 -5 -22 -25
-5 -9 11 60 74 -3 -21 -24
-5 -9 10 62 76 -2 -19 -23
-4 -9 9 64 78 1 -18 -22
-4 -9 8 67 81 2 -18 -23
-3 -8 7 69 85 3 -18 -24
-3 -8 6 71 88 4 -17 -25
-2 -7 5 74 91 6 -17 -26
0 -6 4 77 94 7 -16 -27
0 -7 4 80 98 10 -15 -26
0 -8 4 85 103 13 -15 -24
-2 -9 4 89 108 16 -14 -23
-2 -11 4 93 112 19 -13 -21
-3 -12 5 97 117 23 -12 -20
-3 -11 5 100 121 26 -8 -19
-2 -9 5 104 127 29 -5 -19
-2 -8 5 107 132 33 -2 -18
0 -6 5 111 136 36 2 -17
1 -5 6 114 141 40 5 -16
1 -4 5 117 145 46 8 -13
1 -4 5 120 150 51 10 -11
1 -3 4 123 155 55 13 -8
1 -2 3 127 159 60 16 -5
2 0 2 130 163 65 19 -3
3 2 1 133 168 69 23 -2
3 3 1 135 171 73 27 0
4 5 0 138 174 77 31 1
5 6 -2 141 177 82 36 3
6 8 -3 143 180 87 40 5
6 9 -3 144 182 91 45 9
6 9 -3 145 183 96 49 13
6 10 -4 146 185 101 53 17
6 11 -4 147 186 105 57 21
7 12 -5 148 188 109 60 24
7 12 -5 148 188 110 61 25
7 13 -5 148 188 110 63 26
7 13 -5 147 188 111 64 27
7 14 -5 147 188 112 65 29
7 15 -5 146 188 113 67 30
7 15 -5 145 186 113 67 30
7 15 -5 144 184 113 67 30
7 15 -6 143 182 113 68 30
7 15 -6 142 180 113 68 30
7 14 -7 141 178 113 69 31
7 14 -7 140 178 114 70 31
7 14 -7 140 178 115 72 32
7 14 -8 139 177 116 73 32
7 14 -8 138 177 118 74 33
8 15 -9 137 175 119 76 34
8 15 -9 134 172 117 75 34
8 15 -9 131 168 115 74 34
8 16 -8 128 163 114 73 34
8 16 -8 125 159 112 72 34
7 17 -7 120 155 109 71 34
7 16 -7 116 149 106 69 34
7 15 -7 112 144 102 68 34
7 14 -8 108 138 98 66 33
7 13 -8 104 133 94 65 33
8 12 -9 100 127 90 62 32
8 12 -9 96 118 84 58 29
8 12 -8 92 111 78 54 27
8 13 -8 88 104 72 49 25
8 13 -7 84 97 67 45 22
9 14 -6 79 90 61 40 20
9 13 -7 75 84 56 36 19
9 12 -7 71 78 51 32 18
9 11 -8 66 72 46 29 17
9 10 -9 62 67 39 25 15
8 9 -10 57 61 34 22 14
8 9 -9 53 56 30 20 12
7 9 -8 48 50 25 19 10
7 9 -7 44 45 21 17 7
6 9 -5 38 39 16 16 5
5 9 -4 33 33 11 13 3
4 7 -2 28 27 5 7 -2
3 5 1 23 21 0 2 -6
2 2 4 18 15 -7 -5 -10
1 0 6 12 9 -12 -10 -14
0 -3 8 8 4 -17 -15 -17
0 -3 8 7 3 -18 -16 -17
-2 -3 8 5 2 -19 -17 -17
-2 -3 8 3 1 -20 -18 -17
-3 -3 8 2 -2 -21 -19 -17
-4 -3 7 0 -3 -22 -20 -16
-4 -3 6 -3 -5 -25 -21 -16
-5 -3 5 -6 -7 -27 -23 -17
-5 -3 4 -8 -8 -30 -25 -17
-6 -3 2 -11 -10 -33 -26 -18
-7 -4 1 -13 -12 -35 -28 -19
-7 -4 1 -13 -12 -36 -28 -19
-7 -5 1 -13 -12 -37 -28 -20
-7 -5 1 -14 -13 -38 -28 -20
-7 -6 1 -14 -13 -39 -28 -21
-6 -7 2 -15 -14 -40 -28 -22
-5 -7 2 -13 -14 -40 -28 -22
-4 -7 3 -11 -13 -40 -28 -22
-3 -7 3 -10 -12 -40 -28 -23
0 -7 4 -8 -11 -40 -28 -23
1 -8 5 -6 -10 -40 -29 -24
1 -8 5 -6 -10 -40 -29 -24
0 -9 5 -7 -10 -40 -29 -24
0 -9 4 -7 -11 -41 -29 -24
-2 -10 4 -8 -11 -41 -29 -24
-3 -11 3 -9 -12 -43 -30 -24
-3 -11 3 -9 -12 -43 -30 -24
-3 -10 3 -9 -12 -43 -31 -25
-2 -10 2 -9 -12 -43 -32 -26
-2 -9 2 -9 -12 -43 -33 -27
0 -8 1 -10 -13 -44 -34 -28
0 -8 1 -10 -13 -44 -33 -27
0 -9 1 -11 -12 -43 -32 -25
0 -10 1 -12 -11 -43 -31 -24
0 -11 1 -13 -10 -41 -29 -23
-2 -12 0 -14 -9 -40 -28 -21
0 -11 0 -14 -9 -40 -28 -21
2 -10 0 -14 -9 -39 -27 -21
4 -9 -2 -14 -8 -38 -26 -21
5 -8 -2 -14 -8 -37 -25 -21
7 -7 -3 -15 -7 -36 -24 -21
7 -7 -3 -15 -7 -35 -24 -21
6 -7 -4 -15 -7 -33 -24 -20
6 -7 -4 -15 -7 -31 -24 -20
5 -7 -5 -15 -7 -30 -24 -19
4 -7 -6 -14 -4 -28 -24 -18
4 -7 -6 -6 7 -25 -24 -18
4 -7 -6 4 17 -23 -24 -19
4 -8 -5 12 27 -20 -24 -20
4 -8 -5 20 37 -18 -24 -21
3 -9 -4 31 52 -13 -24 -24
3 -4 -4 54 86 -3 -29 -34
4 1 -3 76 118 9 -34 -45
4 6 -3 98 151 19 -40 -55
5 10 -2 120 185 30 -46 -65
7 15 -2 131 203 48 -40 -66
12 25 -10 87 162 92 12 -29
18 35 -18 43 120 136 65 8
24 46 -26 0 79 180 117 45
30 56 -34 -45 37 224 170 81
35 66 -43 -93 -11 270 227 122
35 81 -49 -154 -86 325 300 184
35 96 -55 -217 -160 380 373 244
35 110 -61 -278 -235 435 446 306
35 125 -68 -341 -311 489 520 367
32 137 -73 -404 -391 512 563 412
20 138 -76 -473 -495 392 479 389
7 139 -79 -543 -599 273 395 365
-6 140 -82 -612 -703 154 311 343
-18 142 -86 -682 -807 35 227 319
-29 137 -88 -731 -886 -78 140 284
-29 101 -78 -692 -848 -168 39 201
-29 65 -69 -652 -810 -257 -61 119
-29 29 -60 -613 -773 -345 -161 36
-29 -7 -52 -574 -735 -434 -262 -47
-30 -37 -43 -529 -690 -501 -342 -116
-26 -47 -34 -460 -613 -466 -327 -128
-22 -56 -27 -391 -535 -432 -312 -139
-18 -65 -19 -321 -457 -397 -298 -151
-15 -73 -12 -253 -380 -362 -283 -162
-11 -81 -5 -190 -308 -327 -266 -171
-11 -76 -3 -160 -263 -288 -238 -154
-10 -71 0 -130 -218 -249 -210 -139
-10 -67 2 -99 -173 -212 -182 -123
-9 -62 5 -69 -128 -173 -153 -107
-8 -57 7 -41 -87 -138 -128 -93
-7 -50 6 -30 -67 -120 -111 -82
-6 -41 5 -19 -48 -103 -95 -72
-5 -33 4 -8 -28 -85 -78 -62
-3 -26 3 4 -9 -67 -62 -52
-2 -19 2 14 8 -52 -48 -43
0 -16 3 18 14 -46 -44 -40
1 -12 4 23 19 -39 -39 -37
2 -9 5 27 25 -34 -35 -35
3 -5 7 31 30 -28 -31 -32
4 -2 8 35 35 -23 -27 -30
3 -3 11 35 35 -23 -27 -30
2 -4 14 35 35 -23 -27 -30
1 -5 17 35 35 -23 -28 -31
0 -6 20 35 35 -23 -28 -31
-2 -7 23 35 36 -23 -29 -32
-2 -7 23 34 36 -23 -29 -32
-2 -7 23 32 36 -23 -30 -33
-2 -7 23 30 36 -23 -30 -33
-2 -7 23 29 36 -23 -31 -34
-3 -8 22 27 37 -23 -32 -35
-3 -8 21 27 37 -23 -32 -34
-3 -8 19 27 38 -23 -33 -33
-4 -9 18 27 39 -23 -33 -32
-4 -9 17 27 40 -23 -34 -31
-5 -10 15 28 42 -22 -35 -30
-5 -9 15 31 44 -21 -33 -30
-4 -8 15 34 46 -19 -32 -30
-4 -7 15 36 48 -17 -30 -30
-3 -6 15 39 51 -16 -28 -30
-2 -5 16 43 53 -14 -26 -31
-2 -5 16 45 55 -14 -26 -31
0 -5 16 48 57 -13 -27 -32
0 -5 16 50 59 -13 -27 -33
1 -5 16 52 61 -12 -28 -34
2 -4 15 55 63 -11 -29 -35
2 -4 14 57 64 -10 -28 -34
1 -4 12 58 66 -9 -26 -33
1 -4 11 60 67 -8 -25 -32
0 -4 10 62 68 -7 -24 -31
-2 -5 8 64 70 -6 -22 -29
-2 -5 8 67 73 -5 -22 -29
0 -5 8 70 76 -3 -22 -29
0 -5 9 74 79 0 -22 -30
1 -5 9 77 82 1 -22 -30
2 -5 10 80 86 3 -22 -31
2 -5 10 84 90 5 -21 -30
2 -4 10 86 93 8 -19 -29
2 -3 10 89 97 10 -17 -28
2 -2 10 92 100 12 -16 -27
3 0 10 95 104 15 -14 -26
3 0 10 100 109 19 -12 -26
3 -2 10 104 114 22 -9 -25
3 -2 9 108 119 26 -7 -24
3 -3 9 113 125 29 -5 -23
2 -4 8 117 130 33 -2 -22
3 -3 8 120 134 36 -2 -21
4 -2 8 125 138 39 -2 -20
6 0 7 128 142 44 -2 -18
7 1 7 132 146 47 -2 -17
9 3 6 135 150 50 0 -15
9 3 6 139 155 55 6 -12
9 4 6 143 159 60 12 -10
8 4 6 147 164 65 18 -7
8 5 6 151 169 70 23 -4
7 6 6 155 174 75 29 0
7 6 6 155 175 78 32 2
8 7 6 156 176 82 35 4
9 8 6 156 177 86 38 6
10 9 6 157 178 90 42 8
11 10 5 158 179 93 45 10
11 10 5 159 180 95 47 11
11 10 5 161 181 97 49 12
11 10 5 162 182 99 51 14
11 10 5 164 183 102 53 15
10 9 4 167 185 104 55 17
11 9 4 165 184 104 56 17
12 10 4 164 182 104 57 17
13 11 4 162 181 103 58 17
14 12 4 161 179 103 59 17
15 13 5 159 177 102 60 18
15 13 5 159 177 103 60 18
15 12 5 159 178 104 61 19
14 11 5 160 178 106 61 20
14 10 5 160 179 107 62 21
13 9 4 161 180 109 63 22
13 9 4 158 177 109 63 22
13 9 4 156 174 108 63 23
13 10 4 153 171 108 63 24
13 10 4 150 168 107 63 25
13 11 5 147 164 106 64 26
13 11 5 145 159 105 64 26
13 11 5 143 154 103 63 26
13 11 5 141 150 102 63 26
13 11 5 138 145 100 62 26
14 10 5 136 140 98 61 25
14 10 5 130 133 92 57 23
14 9 4 123 125 87 53 20
14 9 3 118 117 80 48 17
14 8 2 112 110 75 44 15
13 7 1 106 103 69 39 12
13 7 0 101 96 64 37 12
13 7 -2 96 90 59 35 12
14 7 -4 91 84 53 33 11
14 7 -5 86 76 48 31 11
15 8 -7 80 70 43 29 10
14 8 -4 75 64 37 26 9
13 7 0 70 58 32 22 8
11 7 3 64 52 27 18 7
10 6 6 59 46 22 15 6
8 5 9 54 39 17 11 4
7 3 9 49 34 12 8 1
5 0 10 44 28 7 4 -3
4 -3 11 38 23 1 0 -6
2 -5 12 33 17 -5 -4 -9
0 -8 13 28 12 -10 -8 -12
0 -8 13 25 9 -12 -9 -12
1 -7 13 21 6 -15 -11 -13
2 -7 12 18 3 -17 -13 -14
3 -6 12 15 0 -19 -15 -15
4 -5 11 11 -4 -22 -17 -16
4 -5 11 9 -5 -23 -19 -16
3 -5 11 7 -6 -25 -21 -17
3 -6 10 5 -7 -26 -23 -17
2 -6 10 3 -8 -28 -25 -18
1 -7 9 1 -10 -30 -27 -19
1 -7 9 1 -10 -31 -27 -19
1 -7 9 0 -10 -32 -27 -19
0 -7 10 -2 -11 -33 -27 -19
0 -7 10 -3 -11 -34 -27 -19
-2 -8 11 -4 -12 -36 -26 -19
-2 -8 11 -4 -12 -36 -26 -19
-2 -8 11 -4 -12 -36 -26 -19
-2 -8 10 -4 -12 -37 -26 -19
-2 -8 10 -4 -12 -37 -26 -19
0 -7 9 -3 -13 -38 -27 -19
0 -7 9 -3 -13 -39 -28 -20
0 -7 8 -4 -13 -40 -30 -21
0 -7 7 -4 -14 -43 -32 -22
0 -7 6 -5 -14 -44 -34 -23
1 -8 5 -6 -15 -46 -36 -24
1 -8 5 -6 -15 -46 -36 -24
0 -8 5 -6 -15 -46 -36 -24
-2 -8 5 -6 -15 -46 -36 -25
-3 -8 5 -6 -15 -46 -36 -25
-4 -9 4 -6 -14 -45 -37 -26
-4 -9 4 -7 -14 -45 -37 -26
-3 -9 4 -9 -14 -45 -37 -26
-2 -10 3 -10 -14 -46 -36 -25
0 -10 3 -12 -14 -46 -36 -25
1 -11 2 -14 -13 -47 -35 -24
1 -11 2 -14 -12 -45 -34 -24
1 -11 2 -14 -11 -43 -32 -24
1 -11 2 -14 -10 -40 -31 -23
1 -11 2 -14 -9 -38 -29 -23
1 -11 1 -13 -7 -36 -27 -22
1 -10 1 -13 -7 -36 -27 -21
1 -9 0 -13 -7 -36 -27 -19
1 -7 0 -14 -6 -36 -27 -18
1 -6 -2 -14 -6 -36 -27 -16
1 -4 -3 -15 -5 -36 -27 -14
1 -4 -3 -15 -5 -35 -26 -14
1 -4 -3 -15 -5 -33 -24 -13
2 -5 -2 -16 -4 -31 -22 -13
2 -5 -2 -16 -4 -29 -20 -12
3 -6 0 -17 -3 -27 -18 -11
3 -6 1 -4 14 -24 -20 -14
3 -6 2 10 29 -20 -22 -17
3 -6 4 23 46 -16 -24 -20
3 -6 5 36 62 -12 -26 -23
4 -7 7 50 77 -8 -29 -27
6 0 7 61 98 6 -29 -31
8 6 6 72 118 18 -29 -35
11 12 5 82 139 31 -29 -39
13 18 4 94 159 44 -29 -44
16 24 3 103 179 58 -27 -48
19 33 -6 46 133 110 35 -4
22 44 -14 -13 87 162 98 42
26 54 -22 -70 40 215 160 86
29 63 -31 -129 -5 267 223 130
33 73 -39 -187 -52 319 285 174
31 89 -46 -249 -130 352 348 228
29 104 -53 -312 -207 386 410 281
27 119 -60 -373 -286 419 473 336
25 135 -66 -436 -364 452 535 390
23 150 -73 -498 -442 482 595 441
13 145 -73 -558 -533 365 504 407
2 140 -73 -616 -624 248 412 373
-10 134 -73 -676 -715 132 321 340
-20 129 -73 -735 -806 15 230 306
-31 122 -74 -791 -894 -101 139 270
-31 87 -66 -730 -840 -181 40 188
-31 52 -57 -669 -785 -262 -59 106
-31 16 -48 -606 -731 -342 -157 23
-31 -19 -39 -545 -676 -423 -256 -59
-30 -54 -30 -483 -621 -502 -353 -140
-28 -60 -23 -421 -551 -460 -330 -140
-26 -66 -16 -358 -480 -419 -308 -141
-23 -72 -9 -296 -410 -377 -284 -142
-21 -78 -2 -233 -340 -336 -262 -143
-18 -85 7 -172 -270 -295 -239 -144
-16 -77 7 -144 -228 -260 -214 -131
-14 -70 8 -116 -187 -226 -188 -117
-12 -63 9 -88 -145 -192 -163 -104
-10 -56 10 -60 -103 -157 -138 -91
-8 -48 11 -32 -62 -123 -112 -77
-8 -41 13 -24 -48 -109 -101 -70
-8 -35 15 -15 -32 -95 -89 -63
-8 -28 17 -7 -18 -80 -77 -55
-8 -22 19 3 -3 -66 -65 -48
-7 -15 21 12 13 -52 -53 -39
-7 -14 22 14 16 -49 -50 -37
-7 -13 24 17 20 -45 -46 -35
-7 -12 26 19 24 -40 -43 -33
-7 -11 28 22 28 -36 -38 -31
-7 -9 30 25 32 -32 -34 -29
-7 -9 30 26 32 -32 -34 -29
-7 -9 30 27 33 -32 -34 -29
-7 -10 30 28 33 -31 -34 -29
-7 -10 30 29 34 -31 -34 -29
-8 -11 29 30 35 -30 -35 -30
-8 -11 28 31 35 -30 -35 -30
-8 -10 27 32 36 -30 -35 -30
-8 -9 26 33 36 -29 -35 -30
-8 -8 26 34 37 -29 -35 -30
-8 -8 25 35 37 -29 -35 -30
-8 -7 24 36 38 -28 -36 -31
-7 -7 23 36 39 -27 -35 -31
-6 -8 23 36 40 -26 -34 -31
-5 -8 22 36 42 -25 -33 -31
-5 -8 22 36 42 -25 -33 -31
-4 -9 21 38 44 -24 -32 -31
-4 -9 21 39 46 -24 -32 -31
-4 -9 20 40 48 -23 -33 -31
-4 -9 20 42 50 -23 -33 -31
-4 -9 20 43 51 -23 -33 -31
-5 -10 19 44 53 -22 -34 -30
-5 -10 18 44 54 -22 -34 -30
-6 -10 17 45 55 -22 -34 -30
-6 -10 16 45 56 -22 -34 -30
-6 -10 15 45 57 -22 -34 -30
-7 -10 14 49 60 -20 -33 -30
-6 -9 14 53 63 -18 -32 -30
-5 -8 14 57 65 -17 -32 -30
-4 -7 14 61 68 -15 -31 -30
-3 -6 14 65 70 -14 -31 -30
-2 -5 14 69 73 -12 -30 -30
-3 -5 13 73 76 -10 -29 -30
-3 -6 12 77 79 -9 -28 -30
-4 -6 11 81 82 -7 -27 -30
-4 -6 11 86 85 -6 -26 -30
-5 -7 10 90 90 -2 -24 -29
-4 -6 10 94 94 2 -22 -28
-4 -6 10 98 99 5 -21 -27
-3 -5 10 102 103 8 -19 -26
-3 -5 10 106 107 11 -18 -25
-2 -4 10 109 111 14 -16 -24
-2 -4 10 112 115 17 -14 -23
-2 -4 9 115 119 19 -12 -23
-2 -4 9 118 123 22 -10 -22
-2 -4 9 121 127 24 -9 -22
0 -3 8 127 133 30 -5 -19
0 -2 8 131 138 35 -2 -17
0 0 9 136 144 40 3 -15
0 1 9 140 149 46 6 -13
0 1 9 144 154 51 9 -11
1 3 10 147 157 56 13 -9
1 4 10 149 160 60 17 -7
1 6 9 152 163 64 20 -5
1 7 9 154 167 68 24 -3
1 8 9 156 170 72 27 0
1 9 8 157 172 76 30 3
2 9 8 158 173 80 33 5
3 10 8 159 175 84 36 7
4 10 8 160 176 88 39 9
4 10 8 160 177 91 43 11
5 11 7 161 178 93 45 13
4 11 6 162 178 94 47 14
3 11 6 162 178 96 49 15
2 11 5 163 178 97 51 16
1 11 5 163 178 98 52 17
0 12 4 164 177 99 53 18
1 13 4 164 176 99 54 19
2 14 4 164 175 100 54 19
3 15 4 164 174 100 55 20
3 16 4 164 174 100 55 20
4 17 4 163 173 101 57 22
4 17 4 162 172 102 59 24
5 18 4 161 172 103 61 26
5 18 4 160 171 104 63 28
5 18 4 159 171 104 65 29
6 19 4 156 167 105 66 30
6 19 4 153 163 105 66 30
5 18 4 151 159 104 65 29
5 18 4 148 156 104 65 29
5 18 4 146 153 104 65 29
4 17 4 142 147 100 62 28
4 16 3 139 142 96 60 27
4 15 3 135 136 92 58 27
4 14 2 131 130 89 56 26
4 14 2 128 125 85 54 26
5 13 1 121 117 79 51 24
6 13 0 116 110 74 48 22
7 14 -2 111 103 69 45 20
8 14 -3 105 96 65 42 18
8 14 -4 100 89 60 38 17
8 15 -5 95 82 54 34 15
6 14 -4 89 75 49 30 13
5 14 -3 84 69 43 26 11
3 13 -2 78 62 36 23 9
2 13 0 73 56 31 19 8
1 11 2 66 49 25 15 5
1 9 4 59 42 19 12 2
0 7 6 53 34 12 8 -2
0 5 8 46 27 6 4 -4
0 4 10 38 20 0 1 -7
-2 2 11 34 16 -4 -4 -9
-3 1 12 29 11 -8 -7 -11
-4 -2 12 25 7 -11 -10 -12
-5 -3 13 21 3 -14 -14 -14
-6 -4 13 17 -2 -17 -17 -15
-7 -4 14 14 -4 -19 -18 -16
-7 -3 13 12 -5 -21 -19 -16
-7 -2 13 10 -6 -22 -20 -16
-7 0 12 8 -7 -24 -21 -16
-7 1 12 6 -8 -25 -21 -16
-8 1 11 3 -9 -27 -22 -17
-7 0 11 1 -10 -28 -23 -18
-7 -2 12 -2 -11 -30 -24 -19
-6 -3 12 -4 -12 -31 -25 -20
-6 -4 12 -6 -12 -32 -26 -20
-5 -5 13 -7 -13 -33 -27 -21
-6 -6 12 -7 -13 -34 -28 -21
-7 -6 11 -6 -14 -35 -28 -21
-8 -7 10 -6 -14 -36 -29 -21
-8 -7 9 -6 -14 -37 -29 -21
-9 -8 8 -4 -15 -38 -30 -21
-9 -8 8 -3 -15 -38 -31 -22
-8 -8 8 -2 -15 -39 -32 -23
-8 -8 8 0 -15 -39 -33 -24
-8 -8 8 1 -15 -39 -33 -24
-7 -7 6 2 -16 -41 -34 -25
-7 -7 5 1 -17 -44 -34 -25
-6 -7 3 1 -17 -45 -34 -25
-6 -7 2 0 -18 -47 -34 -25
-6 -7 1 0 -18 -48 -34 -25
-5 -8 0 -2 -19 -49 -34 -26
-4 -8 0 -2 -18 -49 -35 -26
-4 -9 0 -3 -18 -49 -36 -27
-3 -9 0 -3 -17 -49 -37 -27
-3 -9 0 -3 -17 -49 -37 -27
-2 -10 0 -4 -16 -48 -37 -28
-3 -10 0 -4 -15 -48 -36 -27
-4 -11 0 -4 -14 -48 -35 -26
-5 -11 0 -4 -13 -48 -34 -25
-6 -11 0 -4 -12 -48 -33 -25
-7 -12 0 -5 -11 -47 -32 -24
-6 -12 -2 -6 -11 -46 -32 -24
-5 -12 -2 -7 -11 -46 -33 -25
-4 -12 -3 -8 -11 -45 -33 -25
-4 -12 -3 -9 -11 -45 -33 -25
-3 -12 -4 -10 -12 -44 -34 -25
-3 -11 -3 -10 -12 -44 -33 -24
-2 -11 -3 -10 -12 -43 -33 -23
-2 -10 -2 -10 -12 -43 -32 -22
-2 -10 -2 -10 -12 -43 -32 -21
0 -9 0 -12 -11 -41 -31 -20
0 -9 0 -13 -11 -40 -30 -20
0 -10 0 -15 -11 -39 -29 -20
0 -10 0 -16 -11 -38 -28 -20
0 -10 0 -17 -11 -38 -28 -20
1 -11 1 -18 -11 -36 -26 -19
1 -11 1 -19 -10 -33 -24 -18
1 -11 2 -20 -10 -31 -23 -17
1 -11 2 -21 -9 -29 -21 -16
1 -11 2 -22 -9 -27 -20 -15
0 -10 3 -16 -2 -25 -21 -16
0 -10 3 -8 6 -24 -24 -19
0 -10 3 2 13 -23 -27 -22
0 -10 3 10 20 -22 -29 -24
0 -10 3 18 28 -21 -32 -27
2 -7 2 39 59 -12 -35 -34
3 0 3 62 93 -2 -39 -43
4 5 4 85 127 9 -43 -50
5 10 5 107 160 19 -47 -58
6 16 6 131 194 29 -50 -66
11 24 1 95 171 68 -8 -36
16 33 -8 49 138 112 43 0
21 43 -15 3 105 155 93 35
26 52 -23 -44 72 198 143 72
31 60 -30 -90 39 242 193 108
32 74 -38 -152 -25 299 268 168
32 89 -47 -218 -93 357 348 231
33 103 -54 -283 -161 415 427 295
33 117 -62 -350 -230 475 506 357
33 133 -69 -415 -299 533 585 421
25 136 -73 -484 -396 463 549 425
14 138 -76 -554 -498 370 494 418
3 140 -80 -624 -600 278 440 411
-9 142 -83 -694 -702 186 385 404
-20 144 -87 -764 -804 94 330 397
-22 114 -81 -740 -798 -8 221 316
-23 78 -74 -700 -772 -111 102 223
-23 42 -66 -661 -747 -216 -17 129
-24 6 -59 -621 -722 -319 -136 35
-24 -30 -52 -581 -696 -423 -255 -58
-25 -44 -40 -515 -628 -420 -276 -89
-24 -53 -29 -443 -552 -397 -282 -107
-24 -62 -18 -371 -476 -374 -287 -127
-23 -71 -7 -300 -400 -353 -294 -146
-23 -80 5 -228 -325 -330 -300 -165
-21 -79 10 -193 -278 -298 -274 -157
-19 -74 15 -165 -236 -263 -242 -143
-17 -69 20 -137 -194 -228 -211 -129
-15 -65 24 -109 -152 -193 -178 -114
-13 -60 29 -81 -110 -159 -146 -100
-12 -54 30 -66 -88 -138 -129 -90
-12 -47 29 -53 -68 -120 -114 -80
-12 -39 28 -40 -50 -102 -100 -70
-12 -32 27 -27 -30 -83 -85 -61
-12 -26 27 -14 -11 -65 -70 -52
-12 -22 26 -8 -4 -58 -64 -48
-12 -20 25 -3 3 -53 -59 -44
-12 -17 25 3 9 -47 -54 -40
-12 -15 24 8 15 -41 -50 -36
-12 -12 24 14 21 -35 -45 -33
-12 -11 23 17 23 -33 -44 -32
-11 -11 22 19 24 -32 -43 -32
-11 -11 21 22 25 -31 -43 -33
-10 -11 20 24 26 -30 -41 -33
-10 -11 19 27 27 -29 -41 -33
-9 -11 18 28 28 -28 -40 -34
-9 -11 18 28 29 -28 -40 -34
-9 -10 18 28 29 -28 -40 -34
-9 -10 18 28 30 -28 -40 -34
-9 -10 18 28 30 -28 -40 -34
-8 -9 18 29 31 -27 -41 -33
-8 -10 18 29 32 -25 -39 -33
-8 -11 18 29 32 -24 -38 -33
-8 -12 18 29 33 -23 -37 -33
-8 -12 18 29 33 -22 -36 -33
-9 -13 17 30 35 -21 -35 -34
-8 -12 16 30 36 -21 -35 -34
-7 -11 15 30 37 -20 -35 -33
-6 -10 14 30 39 -20 -35 -33
-5 -10 14 30 40 -20 -35 -33
-4 -9 13 33 43 -18 -36 -32
-5 -10 12 36 45 -17 -34 -32
-5 -11 11 38 47 -16 -33 -32
-6 -12 10 42 49 -14 -32 -32
-6 -12 9 45 51 -13 -31 -32
-7 -13 8 48 53 -12 -30 -31
-5 -12 8 51 56 -12 -29 -29
-4 -12 8 53 58 -12 -29 -28
-3 -11 8 56 61 -12 -28 -27
-2 -11 8 59 63 -12 -28 -26
0 -10 8 63 66 -9 -26 -25
0 -10 8 67 69 -6 -25 -25
0 -10 8 71 71 -3 -23 -25
0 -10 8 75 74 1 -21 -25
0 -10 8 79 77 4 -20 -25
0 -10 9 82 80 6 -19 -25
0 -10 9 87 85 8 -19 -25
0 -10 9 90 89 10 -19 -25
0 -10 9 93 92 12 -19 -25
0 -10 9 97 96 14 -19 -25
-2 -9 10 100 100 16 -17 -25
-2 -7 10 104 103 19 -15 -24
0 -5 10 107 107 21 -13 -23
0 -4 10 110 111 24 -12 -21
0 -2 10 114 115 26 -10 -20
1 0 9 117 119 29 -8 -19
1 0 9 120 123 33 -7 -19
2 -2 9 123 129 37 -6 -19
2 -2 9 128 133 40 -4 -19
2 -2 9 131 138 45 -3 -19
3 -2 9 134 142 49 2 -17
3 1 9 138 146 54 7 -14
3 3 9 142 150 58 11 -11
3 4 9 145 154 63 16 -8
3 6 9 149 158 68 21 -5
3 7 8 151 161 72 25 -2
3 8 7 154 164 76 28 1
3 9 7 156 167 81 32 4
3 10 6 159 170 86 36 6
3 11 6 161 173 91 40 9
4 12 5 162 174 93 43 10
4 12 5 163 175 96 45 11
4 12 5 164 176 98 47 12
4 12 5 165 177 101 49 13
4 12 5 167 177 103 51 13
4 12 5 168 178 104 52 15
4 13 5 168 177 104 53 16
4 14 4 168 176 104 54 17
4 15 4 168 175 104 55 19
4 16 4 168 175 104 55 20
5 17 3 167 174 104 57 21
6 17 3 168 174 105 58 22
6 16 3 169 175 107 60 23
7 16 3 170 175 109 62 24
7 16 3 171 175 110 63 24
8 15 3 170 175 111 64 25
8 16 1 168 173 111 65 26
8 17 0 164 171 112 66 27
8 18 -3 162 169 112 67 28
8 19 -5 159 167 112 68 28
9 20 -5 155 162 113 69 29
8 20 -4 151 158 112 68 29
7 21 -2 147 154 111 68 28
6 21 1 143 150 110 67 28
6 21 2 138 145 109 67 28
5 22 4 132 138 104 64 26
4 21 6 123 130 99 60 25
3 20 8 116 121 93 56 23
2 19 10 109 113 87 52 21
1 18 12 101 105 81 48 20
0 17 13 94 97 74 44 18
0 17 12 87 89 67 39 16
0 16 11 80 80 60 35 14
0 16 10 73 72 53 31 12
0 16 9 66 64 46 26 10
-2 14 8 60 57 40 23 8
-3 12 8 54 51 34 19 6
-3 10 8 48 44 29 15 3
-4 8 8 43 37 24 11 1
-4 6 8 36 30 19 7 -2
-5 4 7 32 25 15 5 -4
-5 2 6 28 21 12 2 -6
-5 -2 5 24 17 8 0 -9
-5 -4 4 20 13 5 -4 -11
-5 -6 3 16 9 1 -6 -13
-4 -6 2 14 6 -2 -8 -14
-3 -5 3 11 4 -5 -9 -14
-3 -3 4 8 3 -7 -11 -13
-2 0 5 6 1 -10 -13 -13
-2 1 6 3 -2 -12 -14 -13
0 2 7 0 -4 -14 -15 -12
-2 1 7 -3 -6 -15 -15 -14
-3 1 7 -6 -8 -16 -16 -15
-3 0 7 -9 -10 -18 -16 -16
-4 0 7 -12 -12 -19 -16 -17
-5 -2 6 -14 -13 -21 -17 -18
-5 -3 5 -15 -14 -22 -19 -18
-4 -3 5 -17 -15 -24 -20 -18
-4 -4 4 -18 -16 -25 -21 -18
-4 -4 4 -20 -17 -27 -22 -18
-3 -5 3 -20 -18 -28 -23 -18
-3 -5 2 -17 -18 -29 -23 -18
-3 -6 1 -14 -18 -29 -24 -18
-3 -6 1 -12 -18 -30 -24 -18
-3 -6 0 -9 -18 -30 -24 -18
-3 -7 -2 -8 -17 -31 -25 -19
-3 -8 -2 -8 -17 -33 -25 -20
-3 -8 -2 -8 -17 -34 -25 -21
-3 -9 -2 -8 -17 -35 -25 -21
-3 -9 -2 -8 -17 -36 -25 -22
-2 -10 -3 -7 -17 -37 -26 -23
0 -10 -3 -7 -16 -37 -26 -23
2 -10 -3 -7 -15 -37 -27 -23
3 -10 -3 -7 -14 -37 -27 -23
5 -10 -3 -7 -13 -37 -27 -23
5 -9 -2 -6 -12 -38 -28 -22
3 -9 -2 -8 -12 -38 -29 -22
1 -9 0 -9 -12 -38 -29 -21
-2 -9 0 -10 -12 -38 -30 -21
-4 -9 0 -11 -12 -38 -30 -21
-5 -10 1 -12 -11 -39 -31 -20
-3 -10 1 -12 -11 -39 -31 -21
-2 -10 1 -12 -11 -39 -31 -22
0 -10 1 -12 -11 -39 -31 -22
1 -10 1 -12 -11 -39 -31 -23
2 -11 0 -13 -10 -39 -31 -24
2 -11 0 -14 -9 -39 -31 -24
2 -11 0 -15 -9 -39 -31 -23
2 -11 0 -15 -8 -39 -31 -23
2 -11 0 -16 -8 -39 -31 -23
1 -11 1 -17 -7 -39 -31 -22
1 -10 1 -18 -6 -37 -30 -22
2 -10 1 -19 -6 -36 -29 -21
2 -9 1 -19 -5 -34 -28 -21
2 -9 1 -20 -5 -32 -27 -21
3 -8 0 -13 6 -30 -26 -20
3 -8 2 -2 20 -27 -26 -20
4 -8 3 11 33 -25 -26 -20
4 -8 4 23 48 -23 -26 -20
4 -8 5 34 62 -20 -26 -20
5 -5 6 50 85 -10 -29 -25
5 2 6 66 111 3 -32 -34
4 8 5 81 138 16 -35 -43
4 13 5 98 164 29 -38 -52
4 19 5 114 191 43 -43 -60
5 27 -2 82 174 80 -3 -33
10 37 -10 28 136 130 55 10
14 48 -18 -25 99 179 113 53
18 58 -25 -78 61 228 172 95
22 68 -33 -132 23 277 230 138
24 81 -41 -193 -41 321 298 192
25 96 -50 -259 -118 363 369 251
26 110 -58 -323 -196 405 441 310
26 126 -65 -389 -273 446 513 369
27 140 -73 -453 -350 488 585 428
21 143 -76 -518 -441 428 554 434
10 139 -78 -582 -538 321 478 415
-2 135 -79 -647 -636 215 401 397
-13 131 -80 -712 -733 107 325 379
-24 127 -81 -776 -830 1 248 360
-28 101 -75 -762 -831 -96 147 286
-28 66 -63 -711 -790 -188 34 189
-29 30 -52 -659 -748 -279 -78 91
-29 -5 -39 -609 -707 -371 -191 -7
-29 -39 -28 -558 -665 -464 -304 -105
-29 -55 -19 -497 -604 -469 -328 -138
-27 -62 -11 -433 -532 -433 -312 -141
-25 -68 -2 -369 -462 -398 -295 -145
-22 -75 7 -305 -391 -363 -278 -148
-20 -81 15 -240 -319 -327 -262 -151
-19 -81 18 -200 -268 -291 -238 -145
-19 -76 20 -171 -226 -257 -213 -132
-19 -72 21 -141 -184 -221 -187 -119
-19 -67 23 -111 -142 -185 -161 -106
-19 -62 24 -82 -100 -149 -135 -93
-19 -55 25 -64 -75 -127 -118 -82
-17 -48 24 -52 -58 -111 -105 -74
-16 -40 24 -39 -40 -95 -92 -65
-14 -32 23 -27 -24 -79 -78 -56
-13 -25 23 -15 -7 -63 -66 -47
-12 -21 22 -8 3 -55 -58 -41
-12 -18 21 -2 8 -49 -53 -38
-11 -16 20 4 13 -44 -48 -35
-11 -14 20 10 19 -38 -43 -32
-11 -11 19 16 24 -32 -37 -29
-10 -11 18 18 26 -30 -35 -27
-11 -12 18 20 27 -30 -35 -28
-11 -14 19 21 28 -29 -35 -29
-12 -15 19 23 28 -29 -35 -29
-12 -17 19 24 29 -29 -35 -30
-13 -17 20 25 30 -28 -34 -31
-11 -14 19 25 31 -27 -34 -30
-10 -12 18 25 32 -26 -34 -29
-9 -9 17 25 33 -25 -34 -28
-8 -6 16 25 34 -24 -34 -27
-7 -5 15 24 35 -23 -35 -26
-7 -5 15 24 36 -22 -33 -26
-7 -6 14 25 37 -21 -32 -27
-7 -6 14 25 37 -21 -30 -27
-7 -6 14 25 38 -20 -29 -27
-7 -7 13 26 39 -19 -28 -28
-7 -7 13 27 39 -19 -28 -28
-7 -7 12 28 40 -19 -29 -27
-7 -7 12 28 42 -19 -29 -27
-7 -7 12 29 42 -19 -29 -27
-7 -8 11 31 44 -18 -30 -26
-6 -8 11 33 46 -17 -29 -26
-5 -8 10 35 49 -16 -28 -25
-4 -8 10 38 51 -15 -27 -25
-3 -8 10 40 54 -14 -26 -25
-2 -7 9 43 56 -13 -25 -24
-2 -7 9 46 58 -12 -25 -24
-3 -8 9 49 61 -10 -25 -24
-4 -9 9 52 63 -9 -25 -24
-4 -9 9 55 66 -8 -25 -24
-5 -10 9 59 68 -6 -24 -24
-5 -9 9 62 71 -5 -24 -24
-5 -8 9 66 74 -3 -23 -24
-5 -7 9 69 77 -2 -22 -24
-5 -6 9 72 80 1 -22 -24
-6 -5 10 76 84 3 -21 -24
-6 -5 10 79 87 5 -20 -24
-5 -5 9 84 90 7 -19 -24
-4 -5 8 88 93 9 -19 -24
-4 -5 8 91 96 11 -18 -24
-3 -4 7 94 100 14 -16 -24
-3 -4 7 97 104 17 -14 -22
-4 -4 7 100 109 20 -11 -21
-4 -4 7 103 113 23 -9 -19
-4 -4 7 105 117 26 -6 -18
-5 -2 7 109 122 31 -3 -16
-4 0 7 114 128 36 1 -14
-3 2 8 118 133 42 5 -12
-2 3 8 122 138 47 9 -10
0 5 8 128 144 53 12 -7
1 6 9 132 148 57 16 -6
1 6 9 135 152 62 20 -5
2 6 8 138 156 67 25 -3
2 6 8 142 159 71 29 -2
2 6 8 145 163 76 33 0
3 9 7 147 167 80 37 3
3 12 7 148 168 85 40 6
3 16 6 149 170 88 45 10
3 20 6 150 171 92 49 14
3 23 6 151 173 96 52 17
2 25 5 153 174 99 55 20
2 24 6 155 175 102 57 21
2 22 7 157 177 104 59 23
2 21 7 159 178 107 61 24
2 20 8 161 179 110 64 26
3 19 9 162 180 111 65 27
3 19 7 162 179 111 67 28
3 19 5 162 178 111 69 30
3 19 4 162 177 111 70 31
3 19 2 162 176 111 72 32
4 20 1 162 175 110 73 33
4 20 1 161 175 110 73 33
4 21 1 160 174 111 73 33
4 22 1 160 173 112 73 33
4 22 1 159 173 112 73 33
3 23 3 155 170 113 74 34
3 23 4 150 165 112 74 34
2 23 6 145 161 111 74 34
2 23 8 140 156 111 74 34
2 23 10 135 152 110 74 34
1 23 11 129 147 107 73 35
0 22 12 123 140 102 70 33
-2 20 14 117 134 97 67 31
-2 19 15 112 127 92 64 30
-3 18 16 107 120 87 62 28
-4 17 17 101 113 81 58 26
-4 16 17 95 105 75 53 24
-5 15 16 89 98 69 49 22
-5 15 16 82 90 64 45 20
-5 14 16 76 82 58 39 18
-6 13 15 70 74 52 35 16
-6 13 15 65 68 46 31 14
-6 12 14 60 61 39 27 12
-6 11 14 55 54 33 23 10
-6 11 14 50 47 27 19 8
-6 10 13 45 40 21 15 6
-6 10 13 39 34 16 11 3
-6 9 12 35 28 11 8 0
-6 8 12 30 23 6 4 -4
-6 8 12 25 17 1 0 -6
-6 7 11 21 12 -5 -4 -8
-6 5 11 18 9 -8 -6 -9
-7 4 10 14 6 -12 -9 -10
-8 2 9 11 2 -15 -11 -10
-8 1 9 7 -2 -19 -14 -11
-9 0 8 4 -5 -22 -16 -12
-9 -2 8 1 -7 -24 -18 -14
-8 -3 8 -3 -10 -26 -20 -15
-7 -4 8 -6 -12 -28 -22 -17
-7 -5 8 -9 -15 -31 -25 -18
-6 -6 7 -11 -16 -33 -26 -19
-6 -6 6 -12 -17 -35 -26 -19
-7 -6 5 -13 -18 -37 -27 -20
-8 -6 5 -13 -19 -39 -27 -20
-8 -6 4 -14 -20 -41 -27 -20
-9 -7 3 -14 -21 -43 -28 -21
-9 -7 3 -12 -21 -43 -28 -21
-9 -8 3 -9 -21 -43 -29 -21
-9 -9 3 -7 -21 -43 -29 -21
-9 -9 3 -5 -21 -43 -29 -21
-10 -10 2 -3 -22 -43 -30 -21
-9 -10 2 0 -21 -43 -30 -21
-7 -10 2 1 -20 -44 -31 -21
-6 -10 2 3 -20 -45 -32 -21
-5 -10 2 4 -19 -45 -32 -21
-4 -11 3 5 -18 -46 -33 -20
-4 -11 3 4 -18 -47 -34 -21
-4 -11 3 3 -18 -48 -35 -23
-4 -11 3 3 -18 -48 -35 -24
-4 -11 3 2 -18 -49 -36 -25
-3 -12 3 1 -19 -50 -37 -26
-3 -12 3 1 -19 -50 -37 -26
-3 -11 3 1 -18 -50 -37 -26
-3 -11 3 1 -17 -50 -37 -26
-3 -11 3 1 -17 -50 -37 -26
-2 -10 3 0 -16 -51 -37 -26
-2 -10 3 0 -16 -51 -37 -26
-2 -11 2 -2 -15 -51 -37 -27
-2 -11 2 -2 -15 -51 -37 -27
-2 -11 2 -2 -15 -51 -37 -27
-2 -12 1 -3 -14 -50 -37 -28
-2 -12 1 -3 -14 -50 -37 -28
-2 -11 2 -4 -14 -50 -37 -28
-2 -11 2 -5 -14 -50 -37 -28
-2 -11 2 -5 -14 -50 -37 -28
0 -10 3 -6 -13 -49 -38 -28
0 -10 3 -7 -13 -48 -37 -27
0 -11 2 -9 -12 -46 -36 -26
0 -11 2 -10 -12 -45 -36 -25
0 -11 2 -11 -12 -44 -35 -24
0 -12 1 -12 -11 -43 -34 -23
0 -12 1 -12 -11 -43 -33 -23
-2 -11 1 -12 -11 -41 -31 -22
-2 -11 1 -12 -11 -41 -30 -22
-2 -11 1 -12 -11 -41 -29 -22
-3 -10 1 -13 -11 -40 -28 -21
-2 -10 1 -14 -11 -39 -28 -21
0 -10 1 -15 -11 -38 -27 -20
0 -10 1 -15 -11 -37 -27 -20
1 -10 1 -16 -11 -36 -27 -20
2 -10 0 -17 -10 -35 -26 -19
2 -10 1 -17 -9 -34 -25 -19
3 -9 2 -16 -7 -33 -24 -18
3 -8 2 -15 -6 -32 -24 -18
3 -8 3 -15 -5 -31 -23 -18
4 -7 4 -9 2 -30 -22 -17
4 -7 4 2 13 -28 -24 -19
3 -7 3 12 23 -26 -26 -21
2 -7 3 22 33 -24 -28 -22
2 -7 3 32 45 -22 -30 -24
1 -5 3 50 66 -16 -33 -29
2 2 5 72 99 -7 -38 -37
3 9 7 96 131 4 -43 -46
3 15 9 118 163 13 -48 -54
4 22 11 142 195 23 -52 -62
7 29 10 128 192 49 -29 -47
13 37 5 78 157 89 21 -11
18 46 -2 29 122 129 71 26
24 54 -7 -20 88 169 120 62
29 62 -12 -69 53 209 171 99
32 73 -19 -128 1 259 237 151
33 88 -28 -195 -66 319 320 218
34 101 -36 -262 -132 379 403 283
34 115 -46 -328 -198 439 486 350
35 130 -54 -396 -265 498 569 417
30 137 -60 -466 -350 480 580 444
17 139 -64 -537 -451 390 524 436
4 141 -68 -610 -553 300 468 427
-10 143 -71 -683 -654 210 411 419
-23 145 -75 -756 -756 119 356 410
-30 127 -73 -769 -793 22 265 354
-31 89 -64 -727 -769 -83 141 255
-32 51 -55 -685 -745 -190 18 155
-33 13 -46 -643 -721 -296 -106 56
-34 -25 -36 -601 -697 -401 -229 -44
-34 -47 -27 -545 -648 -441 -289 -100
-32 -55 -19 -474 -574 -419 -287 -117
-29 -63 -11 -403 -502 -397 -285 -134
-27 -70 -3 -332 -429 -374 -283 -151
-25 -78 6 -262 -356 -352 -281 -168
-23 -80 11 -212 -299 -323 -267 -170
-22 -76 13 -182 -257 -288 -241 -154
-21 -71 15 -151 -214 -254 -215 -139
-21 -66 17 -121 -172 -218 -189 -123
-20 -62 19 -91 -130 -183 -162 -108
-19 -56 20 -69 -99 -157 -142 -96
-18 -49 19 -57 -80 -140 -128 -87
-17 -40 18 -44 -62 -121 -113 -77
-17 -33 18 -31 -44 -104 -99 -68
-16 -26 17 -19 -25 -87 -85 -59
-15 -21 16 -10 -14 -75 -75 -53
-14 -19 15 -4 -9 -70 -71 -51
-13 -16 14 3 -3 -64 -68 -48
-13 -14 13 8 3 -59 -65 -45
-12 -12 12 14 8 -54 -61 -43
-11 -10 11 18 11 -51 -58 -40
-11 -10 11 20 12 -51 -55 -38
-12 -10 11 22 14 -50 -52 -37
-12 -10 11 23 15 -49 -50 -36
-12 -10 11 25 16 -49 -47 -34
-13 -9 11 27 17 -48 -45 -33
-12 -9 11 28 19 -47 -45 -33
-12 -9 11 28 20 -46 -45 -33
-11 -9 10 29 21 -44 -44 -33
-10 -9 10 30 23 -43 -44 -33
-9 -9 9 31 24 -41 -43 -34
-9 -9 9 31 25 -40 -43 -34
-9 -9 9 31 26 -39 -43 -34
-8 -8 10 32 27 -37 -43 -34
-8 -8 10 32 28 -36 -43 -34
-7 -7 11 34 30 -35 -43 -33
-7 -7 11 36 32 -34 -43 -33
-7 -7 10 38 34 -34 -43 -33
-8 -7 9 40 36 -33 -41 -33
-8 -7 9 43 38 -32 -41 -33
-9 -6 8 46 40 -31 -40 -33
-8 -6 8 49 43 -31 -40 -33
-7 -6 8 51 44 -31 -40 -33
-6 -5 8 54 46 -31 -40 -32
-5 -5 8 57 48 -31 -40 -32
-4 -4 7 60 50 -31 -40 -31
-4 -4 7 62 52 -31 -40 -31
-5 -4 7 65 54 -30 -39 -30
-6 -4 7 68 56 -29 -38 -29
-6 -4 7 70 58 -29 -38 -29
-7 -3 6 73 61 -27 -37 -28
-6 -3 6 77 64 -25 -36 -28
-5 -3 6 80 67 -22 -35 -28
-4 -3 7 85 71 -19 -34 -28
-3 -3 7 89 74 -17 -33 -28
-2 -4 8 92 77 -15 -32 -28
-2 -3 8 95 80 -13 -32 -28
-2 -3 8 98 84 -12 -32 -28
-2 -2 8 102 88 -11 -32 -28
-2 0 8 105 91 -9 -32 -28
0 1 7 108 95 -7 -31 -28
0 1 7 112 99 -4 -29 -28
1 1 7 116 104 0 -26 -27
2 1 7 120 108 3 -23 -26
2 1 7 125 113 6 -21 -26
3 0 8 130 118 9 -19 -25
1 0 7 135 123 13 -17 -24
-2 0 6 140 129 17 -16 -24
-4 0 4 145 134 21 -14 -23
-6 0 3 150 139 25 -12 -22
-7 0 2 154 143 29 -9 -20
-6 3 2 158 147 34 -4 -18
-5 6 2 162 151 38 1 -16
-3 9 2 167 155 43 6 -13
-2 12 2 171 159 47 11 -11
0 14 2 174 163 51 15 -9
0 16 4 175 165 54 17 -7
0 17 6 176 168 57 19 -5
1 18 9 178 170 60 21 -3
1 20 11 179 172 63 23 0
2 21 13 180 174 65 25 2
1 19 14 179 173 67 27 3
0 18 15 178 173 68 29 3
-3 16 17 176 172 70 31 4
-4 14 18 175 171 72 33 5
-5 13 19 174 170 73 35 6
-5 15 19 173 169 73 37 8
-4 16 18 172 168 73 38 9
-3 17 17 171 167 72 39 10
-3 19 17 170 165 72 42 12
-2 20 16 169 164 71 43 13
-2 20 16 167 162 71 43 13
-2 19 15 165 161 71 43 12
-2 18 14 164 160 71 43 11
-2 18 14 162 158 71 43 11
-3 17 13 161 157 71 43 10
-3 18 13 159 156 72 43 11
-3 19 13 158 155 72 43 12
-2 20 13 157 154 73 44 14
-2 21 13 155 153 74 44 15
0 22 12 153 150 75 45 16
0 22 12 148 146 73 45 14
0 22 11 144 141 72 44 13
-2 23 10 139 136 70 43 11
-2 23 10 135 131 68 43 9
-3 24 9 130 126 65 40 8
-3 22 8 123 118 60 37 8
-3 20 8 117 111 55 35 8
-4 18 7 112 105 50 32 8
-4 16 6 106 98 44 29 8
-5 14 5 100 91 38 26 8
-5 12 4 95 84 33 22 7
-5 10 4 90 76 27 18 7
-5 8 3 85 68 22 14 6
-5 7 2 78 61 17 10 5
-5 5 1 74 54 11 6 3
-5 4 1 70 49 6 4 0
-5 3 1 65 43 1 1 -4
-5 2 0 61 36 -5 -3 -7
-5 1 0 57 31 -10 -6 -10
-6 0 -2 53 26 -14 -9 -12
-6 0 -2 49 22 -18 -13 -14
-6 -2 -2 45 18 -22 -18 -15
-6 -3 -2 42 14 -25 -22 -17
-6 -3 -2 37 10 -29 -26 -19
-6 -4 0 33 6 -33 -29 -20
-5 -4 0 31 4 -35 -30 -20
-5 -4 0 29 2 -37 -30 -21
-4 -4 0 26 -2 -40 -31 -22
-3 -4 0 24 -4 -43 -32 -22
-2 -3 -2 22 -6 -45 -33 -23
-2 -5 -2 20 -7 -46 -34 -23
-2 -7 -2 18 -8 -47 -35 -23
-3 -9 -2 16 -10 -48 -37 -24
-3 -10 -2 14 -11 -49 -38 -24
-4 -12 0 12 -12 -50 -39 -25
-4 -12 0 10 -13 -53 -40 -26
-4 -12 0 8 -15 -55 -43 -26
-5 -12 -2 6 -16 -58 -44 -27
-5 -12 -2 5 -18 -60 -46 -28
-6 -11 -3 3 -19 -62 -47 -29
-6 -11 -3 5 -18 -61 -47 -29
-6 -11 -2 7 -18 -61 -47 -29
-6 -11 0 9 -17 -60 -47 -30
-6 -11 0 11 -16 -59 -47 -30
-5 -11 1 13 -15 -58 -46 -31
-5 -11 1 14 -15 -60 -47 -31
-4 -11 1 15 -15 -62 -48 -31
-3 -11 1 17 -16 -64 -49 -32
-3 -11 1 18 -16 -66 -50 -32
-2 -11 2 19 -17 -68 -51 -33
-2 -11 2 19 -17 -68 -51 -34
-2 -11 2 18 -16 -68 -52 -35
-2 -11 2 17 -15 -68 -53 -36
-2 -11 2 17 -15 -68 -53 -37
-3 -12 1 16 -14 -69 -54 -38
-3 -12 1 16 -13 -69 -54 -38
-3 -12 2 15 -13 -70 -55 -38
-4 -12 3 14 -12 -71 -56 -38
-4 -12 3 14 -11 -71 -56 -38
-5 -13 4 13 -10 -72 -57 -37
-5 -13 4 13 -10 -72 -57 -37
-5 -13 4 13 -9 -72 -57 -38
-4 -12 4 13 -8 -72 -57 -39
-4 -12 4 13 -8 -72 -57 -39
-3 -11 5 12 -7 -73 -57 -40
-4 -11 5 12 -7 -73 -58 -40
-4 -11 5 12 -6 -73 -58 -41
-5 -11 5 12 -5 -73 -59 -43
-6 -11 5 12 -5 -73 -60 -43
-7 -10 4 11 -4 -72 -61 -44
-7 -9 3 11 -3 -70 -59 -41
-6 -9 3 11 -2 -69 -57 -40
-5 -8 2 11 1 -67 -55 -38
-5 -7 1 11 2 -65 -53 -36
-4 -6 1 10 3 -64 -51 -35
-4 -6 4 7 3 -64 -51 -36
-4 -6 7 5 2 -64 -51 -37
-4 -5 10 3 1 -64 -51 -38
-4 -5 13 1 1 -64 -51 -39
-5 -4 15 -2 0 -63 -51 -40
-5 -4 16 -5 -2 -62 -51 -40
-5 -4 18 -7 -3 -61 -51 -39
-6 -5 19 -10 -4 -60 -51 -38
-6 -5 21 -12 -5 -59 -51 -38
-7 -6 22 -14 -6 -58 -52 -37
-7 -6 22 -14 -7 -58 -52 -37
-7 -6 21 -15 -8 -58 -52 -37
-8 -6 20 -16 -10 -58 -52 -38
-8 -6 20 -16 -11 -58 -52 -38
-9 -6 19 -17 -12 -57 -51 -39
-9 -6 18 -18 -12 -57 -51 -38
-9 -7 16 -18 -12 -56 -51 -37
-8 -8 15 -19 -12 -55 -50 -36
-8 -8 13 -20 -12 -55 -50 -35
-7 -9 12 -21 -12 -54 -49 -34
-7 -9 12 -21 -12 -54 -49 -34
-7 -9 12 -21 -12 -54 -49 -34
-7 -9 12 -22 -12 -54 -49 -34
-7 -9 12 -22 -12 -54 -49 -34
-7 -8 12 -23 -13 -54 -48 -33
-7 -8 11 -24 -13 -54 -47 -33
-7 -8 11 -24 -13 -53 -47 -33
-8 -8 10 -25 -13 -52 -46 -33
-8 -8 9 -26 -13 -52 -45 -33
-9 -7 8 -27 -13 -51 -44 -33
-9 -7 8 -28 -14 -51 -45 -33
-9 -6 8 -29 -15 -51 -46 -33
-10 -5 7 -31 -17 -51 -47 -34
-10 -5 7 -32 -18 -51 -48 -34
-11 -4 6 -33 -19 -52 -49 -35
-10 -5 6 -33 -19 -52 -49 -35
-9 -6 5 -33 -20 -52 -48 -35
-8 -8 4 -33 -21 -52 -47 -34
-7 -9 4 -33 -21 -52 -47 -34
-6 -10 3 -33 -22 -52 -46 -33
-6 -11 3 -33 -22 -52 -46 -33
-6 -12 3 -33 -22 -52 -46 -32
-6 -13 3 -33 -22 -51 -46 -31
-6 -14 3 -33 -22 -51 -46 -31
-6 -15 3 -33 -22 -50 -45 -30
-6 -14 3 -33 -22 -51 -45 -30
-6 -14 3 -33 -22 -52 -45 -30
-6 -13 3 -33 -22 -54 -45 -30
-6 -12 3 -33 -22 -55 -45 -30
-7 -11 2 -32 -23 -56 -45 -31
-7 -11 2 -32 -23 -56 -45 -31
-7 -11 2 -32 -23 -56 -45 -31
-6 -11 1 -32 -23 -56 -45 -31
-6 -11 1 -32 -23 -56 -45 -31
-5 -11 0 -33 -22 -55 -46 -30
-5 -12 0 -33 -22 -55 -45 -30
-5 -13 0 -32 -22 -54 -45 -30
-5 -14 0 -32 -22 -54 -44 -30
-5 -16 0 -31 -22 -53 -43 -30
-4 -17 0 -30 -23 -52 -41 -29
-4 -17 0 -30 -23 -52 -41 -29
-4 -16 0 -30 -23 -52 -41 -29
-4 -16 0 -30 -23 -52 -41 -28
-4 -15 0 -30 -23 -52 -41 -28
-4 -14 1 -31 -22 -51 -41 -27
-3 -14 1 -31 -22 -51 -41 -27
-2 -14 1 -31 -22 -51 -41 -28
0 -14 1 -31 -23 -51 -41 -28
2 -14 1 -31 -23 -51 -41 -29
3 -14 1 -30 -24 -51 -40 -30
1 -14 1 -30 -24 -51 -40 -30
0 -14 1 -30 -24 -51 -40 -30
-3 -14 1 -29 -23 -51 -39 -29
-4 -14 1 -29 -23 -51 -39 -29
-6 -14 1 -28 -22 -50 -38 -28
-5 -14 1 -27 -21 -49 -38 -28
-5 -14 1 -26 -20 -49 -38 -28
-4 -14 0 -25 -19 -48 -38 -28
-3 -14 0 -24 -18 -47 -38 -28
-2 -14 -2 -23 -17 -46 -37 -28
-2 -14 -2 -23 -18 -47 -37 -28
0 -14 -2 -23 -18 -47 -37 -27
0 -14 -2 -24 -19 -48 -37 -27
1 -14 -2 -24 -20 -49 -37 -26
2 -13 -3 -25 -21 -50 -36 -25
1 -14 -2 -24 -20 -49 -36 -25
1 -15 0 -23 -19 -47 -36 -25
0 -16 1 -22 -18 -46 -36 -25
-2 -18 3 -20 -17 -44 -36 -25
-3 -19 4 -19 -16 -43 -36 -26
-3 -17 3 -18 -16 -43 -36 -26
-3 -16 3 -17 -16 -43 -36 -26
-2 -14 2 -16 -15 -44 -36 -26
-2 -13 1 -15 -15 -44 -36 -26
0 -11 0 -14 -14 -45 -36 -25
0 -11 0 -13 -13 -45 -35 -25
0 -11 0 -13 -13 -45 -34 -25
0 -10 -2 -12 -12 -45 -33 -25
0 -10 -2 -11 -11 -45 -32 -25
0 -9 -3 -10 -10 -44 -31 -24
0 -9 1 -11 -10 -44 -31 -24
-2 -10 3 -12 -10 -44 -31 -24
-2 -10 6 -13 -10 -43 -31 -24
-3 -11 9 -15 -10 -43 -31 -24
-4 -12 11 -16 -10 -41 -31 -23
-4 -12 11 -18 -11 -41 -32 -24
-4 -12 12 -20 -13 -43 -33 -24
-4 -12 12 -22 -14 -43 -34 -25
-4 -12 13 -24 -16 -44 -35 -26
-5 -12 14 -25 -16 -45 -37 -28
-5 -12 14 -19 -10 -45 -40 -32
-5 -12 14 -12 -4 -45 -45 -36
-6 -12 14 -6 3 -46 -48 -40
-6 -12 14 1 8 -46 -52 -45
-7 -13 13 12 21 -46 -56 -50
-7 -10 14 35 53 -38 -62 -60
-7 -7 15 59 84 -32 -67 -69
-7 -4 16 84 115 -25 -73 -78
-7 -2 17 107 147 -19 -78 -89
-5 4 16 113 161 -2 -70 -87
3 14 7 72 132 42 -20 -52
11 24 -2 31 102 86 30 -17
18 34 -11 -10 72 130 80 17
26 45 -19 -52 43 174 131 52
32 57 -28 -98 4 221 189 96
32 72 -38 -159 -63 278 270 163
32 88 -48 -220 -130 336 351 230
32 103 -57 -281 -195 393 432 298
32 118 -67 -342 -262 450 513 365
30 132 -75 -407 -338 470 559 414
16 140 -80 -484 -441 387 507 414
3 147 -86 -561 -545 304 454 414
-12 154 -91 -639 -649 221 402 413
-26 161 -96 -716 -753 139 351 413
-36 157 -98 -761 -820 54 283 390
-37 119 -89 -717 -788 -35 178 304
-37 81 -80 -673 -757 -126 71 219
-38 43 -71 -629 -725 -215 -35 133
-39 5 -62 -585 -693 -304 -141 48
-39 -27 -53 -532 -650 -368 -223 -23
-35 -41 -41 -460 -575 -357 -235 -53
-30 -56 -30 -386 -501 -346 -248 -82
-25 -70 -19 -312 -426 -336 -262 -112
-21 -83 -8 -238 -350 -324 -274 -142
-17 -94 1 -177 -284 -308 -277 -161
-14 -86 2 -149 -243 -273 -246 -148
-12 -78 2 -120 -203 -239 -217 -134
-9 -70 3 -93 -162 -205 -186 -120
-6 -63 4 -64 -121 -171 -155 -106
-4 -56 5 -40 -87 -141 -130 -94
-5 -50 5 -30 -70 -126 -116 -85
-6 -44 5 -21 -54 -109 -102 -76
-7 -37 5 -11 -37 -94 -89 -67
-8 -31 5 -2 -21 -77 -74 -58
-9 -26 4 8 -7 -64 -64 -51
-8 -23 4 12 -2 -60 -60 -48
-7 -21 3 16 4 -55 -56 -46
-6 -18 3 21 9 -51 -52 -44
-5 -15 2 25 15 -46 -48 -40
-4 -13 1 29 19 -41 -45 -38
-4 -13 0 33 20 -40 -44 -38
-4 -13 -2 37 22 -38 -41 -38
-4 -13 -3 40 24 -37 -40 -38
-4 -13 -4 45 25 -36 -39 -38
-5 -13 -5 48 27 -34 -37 -37
-5 -13 -5 48 27 -34 -37 -36
-4 -13 -4 49 28 -33 -36 -34
-4 -12 -4 50 29 -33 -35 -33
-3 -12 -3 51 30 -32 -34 -32
-2 -11 -2 52 31 -31 -33 -30
-2 -11 -2 52 32 -30 -32 -30
-2 -12 -2 53 33 -29 -31 -30
-2 -13 -3 54 34 -28 -30 -30
-2 -14 -3 55 36 -26 -29 -30
0 -15 -4 56 37 -25 -28 -30
0 -14 -4 57 39 -25 -28 -30
0 -12 -4 58 42 -24 -28 -29
0 -10 -5 59 43 -24 -28 -29
0 -9 -5 60 45 -23 -28 -28
0 -7 -6 61 47 -22 -28 -27
0 -8 -6 63 48 -21 -28 -27
1 -9 -6 65 50 -20 -28 -27
2 -10 -5 67 51 -19 -28 -27
3 -11 -5 69 52 -18 -28 -27
4 -12 -4 71 54 -17 -27 -27
4 -12 -4 74 56 -17 -27 -27
4 -12 -4 77 58 -17 -27 -27
3 -11 -4 80 60 -16 -27 -27
3 -11 -4 82 62 -16 -27 -27
2 -10 -3 86 64 -15 -26 -26
2 -10 -3 89 67 -13 -25 -26
3 -10 -3 91 69 -11 -24 -26
4 -10 -4 94 72 -9 -23 -26
5 -10 -4 96 74 -7 -21 -26
6 -11 -5 99 77 -5 -20 -25
6 -11 -5 100 80 -4 -20 -25
5 -10 -4 101 82 -2 -20 -25
4 -10 -4 102 86 0 -20 -25
3 -9 -3 104 88 1 -20 -25
2 -8 -2 105 91 3 -19 -24
2 -8 3 105 94 6 -17 -24
2 -8 6 106 96 8 -15 -23
2 -8 10 106 99 11 -13 -23
2 -8 14 107 101 13 -11 -22
3 -8 17 108 104 16 -9 -21
3 -8 17 108 105 17 -9 -21
2 -8 17 109 106 18 -9 -21
1 -7 16 110 107 19 -8 -21
0 -7 16 111 109 20 -8 -21
-2 -6 15 112 110 22 -7 -21
-2 -6 15 115 115 26 -4 -20
-2 -6 15 118 119 31 0 -19
-2 -6 14 121 123 36 3 -18
-2 -6 14 125 128 42 6 -16
0 -7 13 128 132 46 9 -15
1 -6 12 130 135 50 12 -13
3 -4 11 132 137 53 16 -11
4 -3 10 135 140 57 19 -8
5 -2 9 137 142 61 22 -6
7 1 8 139 145 65 25 -4
7 2 7 140 148 70 30 0
6 4 6 142 150 75 34 4
6 5 5 144 153 81 38 7
5 6 4 145 155 87 43 10
4 8 3 147 158 92 47 13
4 8 3 146 158 94 49 15
4 7 3 144 158 97 51 17
4 6 2 143 158 99 53 19
4 5 2 142 158 102 55 21
5 4 1 140 158 104 57 23
5 4 1 138 156 105 59 24
5 4 0 136 154 106 60 26
5 4 0 133 152 107 62 27
5 4 -2 131 150 108 64 28
4 5 -3 129 148 109 66 30
4 5 -4 129 147 109 66 31
4 5 -5 128 145 110 67 32
4 5 -6 127 144 110 68 33
4 5 -7 126 143 111 69 34
3 5 -8 125 141 112 70 35
4 5 -8 123 140 112 71 35
6 6 -9 122 139 113 72 35
8 7 -9 121 138 113 73 36
9 8 -10 120 137 114 74 36
11 9 -11 119 136 115 75 37
11 9 -11 117 134 115 75 38
10 8 -11 115 132 115 75 39
10 7 -11 113 130 115 75 40
9 6 -11 111 128 115 75 43
8 5 -10 109 126 114 76 44
8 5 -10 105 120 110 74 42
8 5 -10 100 115 106 72 40
9 4 -10 96 110 102 70 38
9 4 -10 92 105 98 67 36
10 3 -10 88 101 94 65 34
10 3 -10 84 95 89 62 33
10 3 -10 79 89 84 59 32
10 3 -10 75 84 78 56 31
10 3 -10 72 77 73 53 30
9 3 -11 68 72 69 50 29
9 3 -11 64 66 63 46 27
8 2 -11 60 61 58 40 24
7 2 -11 56 55 53 36 22
6 1 -11 52 50 48 32 19
5 0 -11 48 45 43 28 17
5 0 -11 45 39 38 27 17
5 0 -11 40 35 34 26 17
6 -2 -11 37 30 30 25 17
6 -2 -11 33 25 26 24 17
7 -3 -11 30 21 22 23 18
7 -3 -11 28 19 19 20 16
8 -4 -11 26 16 16 17 14
8 -5 -11 24 14 14 15 12
9 -6 -11 22 12 11 12 10
10 -7 -12 20 9 8 9 8
9 -7 -12 18 7 6 8 7
8 -6 -12 16 5 4 7 5
7 -6 -11 14 3 2 6 4
6 -5 -11 12 1 0 5 3
4 -4 -10 10 -2 -3 4 1
4 -5 -10 10 -2 -3 4 1
4 -7 -11 9 -3 -4 3 1
4 -8 -11 8 -3 -4 2 1
4 -9 -12 7 -4 -5 1 1
5 -11 -13 6 -5 -6 0 0
5 -11 -13 7 -5 -6 0 0
5 -11 -13 9 -5 -6 0 0
5 -11 -13 10 -5 -6 -2 0
5 -11 -13 11 -5 -6 -2 0
5 -10 -13 13 -4 -7 -3 -2
5 -10 -14 13 -4 -7 -3 -2
5 -9 -15 14 -4 -8 -4 -2
6 -9 -16 15 -3 -9 -4 -3
6 -8 -17 16 -3 -10 -5 -3
7 -7 -18 17 -2 -11 -6 -4
7 -7 -16 17 -2 -11 -6 -4
6 -7 -14 16 -2 -12 -7 -4
6 -6 -12 16 -2 -13 -7 -5
5 -6 -9 15 -2 -14 -8 -5
4 -5 -7 14 -3 -15 -9 -6
3 -5 -5 11 -3 -17 -10 -6
2 -6 -3 8 -4 -20 -11 -7
1 -7 0 5 -5 -23 -12 -8
0 -8 3 2 -6 -25 -13 -9
-2 -9 5 -2 -7 -28 -15 -10
-2 -9 5 -3 -7 -28 -17 -11
-2 -9 4 -4 -8 -29 -18 -13
-2 -9 3 -6 -8 -30 -20 -15
-2 -9 2 -7 -9 -31 -22 -16
-3 -9 1 -9 -10 -32 -24 -18
-3 -9 1 -10 -10 -34 -24 -18
-3 -9 1 -11 -10 -36 -25 -19
-3 -9 1 -12 -10 -38 -26 -20
-3 -9 1 -13 -10 -41 -27 -21
-2 -9 0 -14 -10 -44 -28 -22
-2 -10 0 -14 -10 -44 -29 -22
-2 -11 0 -14 -10 -44 -30 -22
0 -12 0 -14 -10 -44 -31 -22
0 -13 0 -14 -10 -44 -32 -22
1 -15 -2 -14 -11 -45 -33 -22
1 -14 -2 -14 -10 -45 -33 -22
1 -13 -2 -14 -9 -45 -33 -23
2 -11 -3 -14 -8 -45 -33 -24
2 -10 -3 -14 -7 -45 -33 -25
3 -8 -4 -14 -6 -45 -33 -26
3 -8 -4 -14 -5 -45 -33 -26
3 -9 -4 -13 -4 -44 -33 -26
2 -9 -4 -13 -3 -43 -33 -26
2 -10 -4 -12 -2 -41 -33 -26
1 -11 -5 -9 3 -40 -32 -26
1 -10 -5 16 35 -32 -40 -35
1 -8 -5 40 68 -25 -48 -45
1 -7 -5 65 100 -18 -55 -55
1 -5 -5 89 133 -11 -62 -64
2 -3 -4 111 162 -3 -68 -73
6 4 -6 104 157 16 -56 -68
11 10 -8 96 151 34 -44 -63
15 16 -10 89 146 53 -31 -57
20 22 -13 81 140 71 -18 -52
24 29 -16 68 128 95 3 -39
29 40 -25 2 58 162 98 31
33 52 -35 -65 -13 229 192 102
38 63 -46 -132 -82 296 286 173
43 74 -56 -197 -153 363 382 243
48 86 -65 -264 -226 422 467 310
42 98 -71 -331 -326 398 470 335
36 111 -77 -399 -426 375 472 358
30 123 -83 -467 -525 351 475 383
25 136 -90 -534 -626 327 478 407
19 146 -96 -597 -719 292 468 423
9 115 -89 -615 -751 141 322 339
0 85 -82 -635 -783 -10 177 256
-10 55 -75 -653 -816 -160 32 173
-19 24 -68 -672 -849 -311 -113 89
-28 -5 -62 -683 -871 -448 -247 10
-27 -21 -55 -607 -787 -457 -272 -30
-26 -37 -47 -531 -703 -466 -298 -71
-24 -55 -39 -455 -619 -475 -322 -111
-23 -71 -32 -381 -535 -484 -347 -151
-21 -87 -25 -308 -453 -488 -367 -187
-18 -87 -20 -266 -397 -431 -329 -174
-16 -86 -16 -225 -340 -374 -291 -160
-13 -85 -11 -183 -283 -317 -254 -147
-10 -83 -7 -142 -226 -261 -215 -134
-7 -82 -2 -102 -172 -206 -179 -120
-6 -75 -2 -85 -142 -179 -157 -108
-5 -68 -2 -66 -112 -152 -137 -95
-3 -61 0 -49 -82 -124 -116 -82
-2 -54 0 -30 -53 -97 -95 -69
1 -47 1 -14 -25 -71 -75 -57
1 -40 1 -8 -15 -61 -67 -51
1 -35 1 -3 -6 -52 -58 -45
1 -29 1 4 5 -43 -50 -39
1 -24 1 9 15 -32 -41 -33
0 -18 0 15 24 -23 -33 -27
0 -18 0 17 26 -22 -31 -26
0 -17 -2 19 28 -21 -29 -25
1 -17 -2 22 31 -19 -27 -24
1 -16 -3 24 33 -18 -25 -23
2 -15 -4 27 36 -16 -22 -21
2 -15 -4 27 37 -16 -22 -21
2 -15 -4 28 38 -15 -22 -22
1 -15 -4 28 39 -14 -23 -22
1 -15 -4 29 40 -13 -23 -23
0 -14 -3 30 43 -12 -24 -24
0 -14 -3 30 43 -11 -24 -24
0 -14 -3 30 43 -10 -24 -24
1 -14 -3 30 43 -9 -23 -25
1 -14 -3 30 43 -8 -23 -25
2 -13 -3 30 44 -7 -22 -26
2 -13 -3 31 45 -7 -22 -26
2 -13 -3 32 46 -7 -22 -26
2 -13 -3 34 48 -7 -23 -26
2 -13 -3 35 49 -7 -23 -26
1 -14 -4 37 51 -7 -24 -25
1 -14 -3 39 53 -6 -24 -25
1 -14 -2 42 55 -5 -23 -25
0 -13 0 45 58 -4 -23 -25
0 -13 1 47 60 -3 -22 -25
-2 -12 3 50 63 -2 -21 -25
-2 -11 5 50 63 -3 -23 -26
-2 -9 7 50 63 -4 -25 -27
-3 -8 10 51 62 -6 -27 -28
-3 -6 12 51 62 -7 -29 -29
-4 -4 15 52 61 -9 -31 -30
-4 -5 15 52 62 -8 -30 -30
-5 -7 15 52 63 -7 -29 -29
-6 -8 16 53 65 -5 -28 -28
-7 -10 16 53 66 -4 -27 -27
-8 -12 17 54 68 -2 -26 -26
-8 -11 17 56 70 0 -26 -27
-8 -10 17 58 73 1 -26 -28
-8 -9 16 60 76 2 -26 -29
-8 -8 16 62 79 3 -26 -30
-9 -7 15 65 82 4 -27 -31
-9 -7 15 67 87 6 -27 -30
-8 -8 15 70 91 9 -26 -29
-8 -8 14 73 95 12 -25 -28
-7 -9 14 76 99 15 -24 -27
-6 -10 13 79 103 18 -23 -26
-6 -9 13 82 107 20 -21 -26
-6 -7 13 87 112 22 -19 -25
-6 -5 13 91 116 24 -17 -24
-6 -3 13 95 121 26 -15 -23
-5 0 13 99 127 29 -13 -22
-5 1 13 102 131 33 -11 -22
-5 2 12 105 135 38 -8 -21
-5 3 11 108 140 43 -5 -20
-5 4 10 111 144 48 -2 -19
-6 5 9 115 149 53 2 -18
-6 5 9 118 152 57 5 -15
-6 5 9 121 155 62 9 -12
-7 5 9 125 158 67 13 -9
-7 5 9 128 161 72 17 -6
-8 6 8 131 165 77 21 -3
-8 7 7 132 167 80 24 0
-7 8 6 134 169 84 27 2
-6 10 5 135 170 87 31 4
-5 11 4 137 172 90 34 6
-4 13 2 139 174 93 38 9
-4 13 2 139 174 94 38 10
-4 13 2 139 175 96 39 12
-4 13 2 140 176 97 40 13
-4 13 2 140 177 99 42 15
-5 14 2 141 178 101 43 17
-4 14 2 141 177 101 44 17
-3 14 2 140 176 100 45 17
-2 14 2 140 174 100 46 17
0 14 2 139 173 99 47 17
1 15 1 138 171 98 49 17
1 15 1 138 171 98 50 18
1 14 2 138 171 99 52 19
1 14 2 138 171 100 53 20
1 13 3 138 171 101 55 21
1 12 4 139 171 102 57 23
1 12 4 137 168 100 55 23
2 12 3 134 164 98 53 22
2 12 2 132 160 95 51 21
3 12 1 129 157 93 49 20
4 12 0 126 153 90 47 19
3 11 0 122 147 86 46 18
2 10 0 118 141 81 44 17
0 8 0 114 135 77 42 16
-2 7 0 110 129 73 39 15
-4 5 -2 106 122 68 37 13
-4 5 -2 102 116 63 34 12
-3 5 -2 97 109 58 31 10
-2 4 -2 92 102 53 28 9
0 4 -2 87 95 48 25 7
1 3 -3 81 88 42 22 5
1 2 -3 77 81 35 20 3
1 1 -3 73 75 29 18 1
1 1 -3 68 68 22 15 -2
1 0 -3 64 62 16 13 -4
1 -2 -3 60 56 10 11 -6
1 -3 -4 56 50 5 5 -8
1 -4 -4 52 45 0 -2 -10
1 -5 -5 49 39 -6 -7 -12
1 -6 -5 45 34 -11 -13 -14
1 -6 -5 42 29 -16 -18 -16
0 -9 -6 39 26 -19 -20 -17
0 -12 -5 37 23 -22 -21 -18
0 -14 -4 36 20 -25 -23 -19
0 -17 -3 34 17 -28 -24 -20
0 -19 -3 33 15 -30 -25 -20
1 -18 -2 31 13 -32 -28 -22
1 -16 -2 30 12 -34 -31 -24
1 -14 0 29 10 -36 -33 -26
1 -12 0 28 9 -38 -36 -28
1 -10 0 27 8 -40 -38 -29
2 -10 0 27 7 -41 -39 -30
2 -11 -2 28 7 -41 -38 -29
2 -13 -3 29 8 -43 -37 -28
2 -14 -4 30 8 -43 -36 -27
2 -15 -5 31 8 -43 -36 -26
2 -15 -6 31 9 -45 -36 -27
1 -13 -6 30 8 -46 -37 -29
1 -12 -6 29 8 -47 -38 -32
0 -10 -6 28 7 -48 -39 -34
0 -9 -6 27 7 -49 -40 -36
-2 -8 -4 24 6 -50 -41 -36
-2 -9 0 22 6 -50 -40 -35
-2 -10 3 20 6 -49 -39 -33
-2 -11 6 18 6 -49 -38 -32
-2 -12 8 16 6 -49 -37 -31
-3 -13 9 13 4 -48 -37 -30
-4 -13 9 10 2 -49 -39 -31
-4 -13 9 7 1 -50 -41 -32
-5 -13 9 4 -2 -51 -44 -33
-5 -13 9 1 -3 -52 -46 -33
-6 -12 9 0 -4 -53 -47 -34
-6 -11 9 0 -4 -53 -46 -33
-5 -10 8 -2 -5 -53 -46 -32
-5 -9 8 -2 -5 -53 -45 -31
-5 -9 8 -2 -5 -53 -45 -31
-4 -8 7 -3 -6 -53 -43 -30
-4 -9 7 -3 -5 -51 -41 -29
-5 -9 7 -3 -4 -50 -40 -28
-5 -10 7 -3 -3 -48 -39 -27
-5 -10 7 -3 -3 -47 -38 -27
-6 -11 8 -4 -2 -46 -37 -26
-6 -11 7 -5 -3 -45 -36 -25
-5 -11 7 -5 -3 -45 -36 -25
-5 -11 6 -6 -4 -44 -35 -24
-5 -11 6 -6 -4 -44 -35 -24
-4 -10 5 -7 -5 -43 -34 -23
-4 -9 5 -7 -5 -43 -33 -23
-4 -8 5 -7 -5 -43 -32 -22
-4 -7 5 -7 -5 -43 -31 -22
-4 -7 5 -7 -5 -43 -31 -22
-3 -6 5 -8 -4 -41 -30 -21
-3 -7 5 -8 -4 -41 -30 -21
-4 -8 5 -9 -5 -41 -30 -21
-4 -9 5 -9 -5 -41 -30 -21
-4 -9 5 -9 -5 -41 -30 -21
-5 -10 4 -10 -6 -40 -29 -21
-4 -10 3 -10 -7 -40 -29 -21
-3 -11 3 -11 -8 -41 -30 -22
-2 -11 2 -11 -9 -41 -30 -22
0 -11 2 -11 -9 -41 -30 -22
1 -12 1 -12 -10 -43 -31 -23
1 -12 1 -12 -10 -43 -31 -22
0 -12 1 -12 -10 -43 -31 -21
0 -12 1 -12 -10 -43 -31 -20
0 -12 1 -12 -10 -43 -31 -20
-2 -11 1 -11 -11 -41 -30 -19
-2 -11 1 -11 -11 -41 -30 -19
-2 -12 1 -11 -11 -41 -30 -19
-2 -12 1 -11 -11 -41 -30 -19
-2 -12 1 -11 -11 -41 -30 -19
-3 -13 2 -5 -4 -39 -31 -21
-3 -14 2 4 6 -37 -33 -24
-2 -14 3 12 14 -36 -36 -27
-2 -15 3 20 23 -34 -38 -30
-2 -15 3 28 32 -33 -40 -32
0 -13 5 52 65 -24 -48 -43
1 -9 7 76 99 -16 -56 -54
2 -5 9 101 133 -7 -63 -64
3 -2 11 127 168 2 -71 -74
4 3 12 151 201 11 -78 -86
11 11 6 122 176 50 -31 -55
17 20 -3 90 144 91 21 -20
24 28 -11 56 112 132 73 14
30 36 -19 22 81 173 127 49
37 46 -27 -11 50 214 179 84
39 59 -36 -68 -13 275 258 148
40 73 -46 -128 -78 338 340 215
42 88 -55 -187 -143 401 422 281
43 102 -65 -246 -208 465 504 347
44 116 -74 -306 -274 528 585 413
31 125 -77 -380 -378 439 525 409
17 132 -79 -454 -485 336 452 398
2 139 -82 -530 -593 232 380 387
-13 146 -85 -605 -700 129 307 376
-27 153 -87 -680 -808 26 234 363
-30 120 -79 -659 -797 -70 130 283
-32 84 -70 -629 -773 -165 22 196
-34 47 -61 -598 -751 -262 -86 109
-36 10 -51 -567 -727 -357 -193 23
-37 -27 -41 -536 -703 -452 -300 -64
-34 -41 -33 -469 -632 -441 -305 -91
-30 -54 -25 -397 -554 -418 -300 -110
-26 -66 -17 -326 -477 -395 -294 -131
-21 -78 -8 -255 -400 -371 -288 -151
-17 -91 1 -184 -322 -349 -282 -172
-15 -89 4 -150 -276 -313 -257 -161
-13 -85 7 -121 -232 -276 -230 -147
-12 -79 10 -92 -189 -239 -202 -133
-10 -75 12 -63 -145 -203 -176 -118
-9 -70 15 -33 -102 -166 -148 -104
-7 -63 15 -20 -78 -145 -132 -93
-5 -55 13 -8 -58 -126 -117 -82
-3 -47 11 5 -36 -106 -102 -72
0 -39 9 17 -16 -87 -88 -62
1 -31 7 29 6 -67 -72 -52
2 -28 6 34 12 -61 -65 -49
1 -24 6 37 18 -56 -60 -45
1 -21 6 40 23 -52 -54 -41
0 -18 6 45 29 -47 -49 -38
0 -15 6 48 34 -41 -43 -35
-2 -14 7 48 35 -40 -41 -34
-2 -14 9 47 35 -39 -41 -34
0 -13 12 46 36 -38 -43 -34
0 -13 15 45 36 -37 -43 -34
0 -13 17 44 36 -37 -43 -34
1 -12 19 43 37 -36 -44 -35
0 -12 20 43 37 -36 -44 -35
0 -12 21 42 37 -36 -43 -35
-2 -12 22 42 37 -36 -43 -35
-2 -12 23 42 37 -36 -43 -35
-3 -12 24 42 38 -35 -41 -36
-3 -13 23 43 39 -33 -40 -35
-3 -14 23 45 42 -32 -39 -35
-3 -15 22 46 43 -30 -38 -34
-3 -15 22 47 44 -29 -37 -34
-4 -16 21 49 45 -28 -36 -33
-4 -16 20 51 45 -28 -36 -33
-3 -15 19 52 46 -28 -36 -33
-3 -15 18 54 46 -28 -36 -33
-3 -15 17 55 46 -28 -36 -33
-2 -14 16 57 49 -28 -36 -33
-2 -13 16 59 52 -25 -34 -32
0 -12 16 61 55 -23 -32 -32
0 -11 16 62 57 -21 -31 -31
0 -11 16 64 60 -19 -29 -31
1 -10 14 65 61 -18 -28 -30
0 -9 13 65 61 -18 -29 -30
0 -9 11 66 62 -18 -30 -30
-2 -8 10 66 62 -18 -31 -30
-2 -8 9 66 62 -18 -31 -30
-3 -7 8 67 64 -17 -32 -31
-2 -8 7 68 67 -16 -31 -31
0 -9 7 69 69 -16 -31 -30
1 -10 6 70 71 -15 -30 -30
1 -11 6 70 73 -15 -30 -30
2 -12 5 72 75 -13 -29 -29
2 -12 5 75 78 -12 -29 -28
2 -12 4 77 80 -10 -28 -28
2 -12 4 79 82 -9 -28 -27
2 -12 4 81 85 -8 -28 -27
3 -11 3 86 89 -5 -26 -26
5 -10 3 90 94 -2 -25 -26
7 -9 4 93 99 3 -23 -26
8 -8 4 97 103 6 -21 -26
10 -7 4 101 108 9 -20 -26
11 -6 5 104 112 13 -17 -24
10 -6 4 108 117 16 -14 -22
10 -6 3 111 121 20 -10 -20
9 -6 2 115 126 23 -7 -18
9 -6 2 118 131 27 -4 -16
8 -5 1 122 136 32 1 -14
8 -5 1 127 140 36 4 -12
9 -4 2 130 145 42 8 -10
9 -4 2 134 150 47 11 -9
9 -4 2 138 155 52 15 -7
10 -2 3 140 158 55 18 -4
10 0 2 141 160 59 21 -2
10 1 2 143 163 62 25 1
10 3 1 145 167 66 28 4
10 4 1 146 169 69 31 6
10 5 0 148 171 72 33 8
11 6 -2 149 172 75 36 9
12 7 -2 150 173 78 38 10
13 8 -3 152 175 81 40 11
13 9 -3 153 176 85 43 12
14 10 -4 154 177 87 45 14
13 10 -3 154 177 88 46 15
13 10 -2 155 177 89 48 16
12 10 0 155 177 90 50 17
12 10 0 155 177 91 51 18
11 11 1 156 177 92 52 19
12 12 0 155 176 92 52 19
12 13 -2 154 175 92 52 19
13 14 -3 153 174 92 52 19
13 14 -4 153 174 92 52 19
14 15 -5 152 173 92 52 19
14 14 -5 151 173 93 53 20
14 13 -5 150 173 94 54 21
14 12 -5 149 173 95 55 22
14 12 -5 149 173 96 55 23
15 11 -4 146 170 97 56 24
14 12 -4 143 165 97 56 24
14 13 -4 141 162 96 57 23
13 14 -4 138 158 96 57 23
13 14 -4 135 155 96 57 23
12 15 -4 131 150 93 57 22
12 14 -4 128 145 90 55 22
12 13 -4 123 140 86 53 23
12 12 -4 119 135 82 52 23
12 12 -4 115 130 79 50 23
11 11 -5 111 123 75 47 23
12 11 -6 106 117 71 44 21
13 11 -7 102 111 67 40 19
14 11 -9 97 105 63 37 17
14 11 -10 92 99 59 34 15
14 11 -11 87 92 54 31 13
13 10 -10 80 85 48 27 12
12 9 -9 75 78 42 23 10
10 8 -8 69 71 35 20 8
9 8 -7 64 65 30 16 7
8 7 -5 57 58 24 13 5
8 7 -2 51 52 19 10 4
8 6 1 45 45 13 8 2
8 6 4 38 38 8 5 0
8 6 6 32 32 3 2 -2
7 5 7 27 27 -3 -3 -5
7 5 7 23 22 -7 -7 -9
6 4 6 18 18 -11 -11 -12
6 4 6 14 13 -15 -15 -15
6 4 6 9 8 -19 -19 -19
5 3 5 8 7 -20 -20 -20
5 3 5 7 5 -21 -21 -20
4 2 4 6 4 -22 -21 -20
4 2 4 5 3 -23 -22 -20
4 2 4 5 2 -23 -22 -20
3 1 3 3 1 -25 -23 -19
3 -2 4 2 0 -26 -24 -19
3 -3 5 0 -2 -27 -24 -19
3 -4 6 -3 -3 -29 -25 -19
3 -5 7 -4 -4 -30 -25 -19
4 -6 8 -5 -5 -31 -26 -18
4 -6 7 -6 -6 -32 -26 -19
4 -7 6 -7 -6 -33 -27 -20
4 -7 5 -8 -7 -34 -27 -21
4 -7 4 -9 -7 -34 -27 -21
3 -8 3 -10 -8 -36 -28 -22
2 -8 3 -10 -8 -37 -29 -22
1 -8 3 -11 -9 -39 -30 -22
0 -8 3 -11 -9 -41 -31 -22
0 -8 3 -11 -9 -43 -31 -22
-2 -8 2 -12 -10 -44 -32 -22
-2 -8 0 -12 -10 -44 -32 -23
0 -9 -2 -13 -10 -44 -32 -24
0 -9 -3 -13 -10 -44 -32 -25
0 -9 -4 -13 -10 -44 -32 -25
2 -10 -5 -14 -11 -45 -33 -26
4 -9 -5 -13 -11 -45 -33 -26
6 -8 -6 -13 -11 -46 -33 -26
7 -7 -6 -12 -11 -46 -33 -26
9 -7 -6 -12 -11 -46 -33 -26
10 -6 -7 -11 -10 -47 -34 -25
9 -7 -7 -11 -8 -47 -35 -25
8 -8 -7 -10 -7 -47 -35 -25
7 -9 -7 -10 -6 -47 -36 -25
7 -10 -7 -10 -5 -47 -36 -25
6 -10 -8 6 16 -43 -39 -30
7 -8 -7 24 40 -37 -41 -35
8 -6 -6 44 66 -32 -45 -41
9 -4 -5 62 91 -27 -48 -47
10 -2 -4 80 116 -23 -51 -52
12 5 -5 86 130 -5 -47 -53
13 12 -8 87 140 18 -38 -50
15 19 -11 87 150 39 -30 -48
17 27 -15 88 160 61 -23 -45
18 34 -18 88 171 84 -15 -43
21 45 -25 34 126 131 45 1
24 55 -32 -35 63 187 119 56
27 65 -40 -106 1 242 194 111
30 76 -49 -176 -62 298 270 165
33 87 -57 -246 -124 353 345 221
31 99 -63 -311 -210 366 380 259
26 112 -69 -376 -302 364 404 293
22 125 -75 -439 -393 363 428 325
17 138 -80 -504 -485 362 451 359
13 151 -87 -567 -577 361 475 392
6 137 -88 -607 -646 254 391 356
-3 113 -86 -641 -708 113 272 298
-11 90 -85 -674 -771 -27 153 240
-19 66 -82 -706 -833 -166 35 182
-27 43 -80 -740 -896 -307 -83 123
-28 20 -73 -693 -854 -365 -151 66
-25 -3 -64 -620 -777 -399 -203 9
-23 -25 -55 -547 -700 -432 -256 -50
-20 -48 -46 -474 -623 -466 -308 -107
-18 -70 -36 -401 -548 -499 -360 -164
-16 -76 -28 -346 -480 -469 -348 -171
-14 -78 -22 -296 -415 -416 -314 -159
-11 -79 -15 -245 -351 -365 -279 -148
-9 -80 -8 -195 -286 -313 -245 -137
-7 -81 0 -146 -222 -261 -212 -126
-5 -76 2 -116 -179 -225 -186 -113
-4 -68 2 -94 -144 -194 -164 -101
-3 -60 2 -70 -108 -162 -142 -89
0 -52 2 -48 -73 -132 -119 -76
1 -45 2 -25 -37 -101 -98 -64
2 -38 2 -14 -20 -85 -85 -55
2 -32 2 -7 -8 -74 -74 -49
2 -27 2 1 4 -63 -64 -41
2 -22 2 8 16 -52 -54 -34
2 -17 2 16 28 -40 -44 -27
2 -14 0 21 34 -34 -38 -24
3 -13 -2 26 39 -29 -35 -22
4 -12 -3 31 44 -25 -31 -21
5 -10 -5 35 49 -20 -28 -19
6 -9 -6 40 53 -16 -24 -17
7 -8 -7 43 55 -14 -23 -16
7 -7 -5 44 57 -14 -23 -16
7 -6 -4 45 58 -13 -23 -15
7 -6 -3 46 59 -13 -23 -15
7 -5 -2 47 60 -13 -23 -15
8 -4 2 46 61 -12 -23 -14
6 -5 5 43 60 -13 -24 -15
5 -5 8 39 59 -14 -26 -15
4 -6 11 36 58 -14 -27 -16
3 -6 14 33 57 -15 -29 -16
1 -7 15 32 56 -16 -30 -17
0 -7 14 32 56 -17 -30 -17
-3 -7 14 32 57 -17 -30 -18
-4 -7 13 32 57 -18 -30 -18
-6 -7 13 32 57 -18 -30 -18
-7 -6 12 32 58 -18 -30 -19
-5 -6 12 32 59 -17 -30 -19
-4 -6 11 32 60 -16 -30 -18
-3 -6 11 32 60 -14 -30 -18
-2 -6 11 32 61 -13 -30 -18
0 -6 10 34 63 -12 -29 -17
0 -6 10 36 65 -12 -29 -17
0 -6 10 37 67 -12 -28 -17
0 -6 10 39 70 -12 -28 -17
0 -6 10 42 72 -12 -28 -17
0 -7 9 45 74 -10 -27 -18
0 -7 9 48 77 -9 -27 -17
1 -7 9 51 79 -8 -27 -16
1 -7 9 54 81 -6 -27 -15
1 -7 9 57 85 -5 -27 -14
2 -8 9 59 88 -3 -28 -13
2 -7 8 62 91 -2 -27 -13
2 -6 7 64 94 1 -26 -12
2 -5 7 66 97 2 -25 -12
2 -4 6 69 100 4 -24 -12
3 -3 5 72 102 6 -22 -11
1 -3 5 76 104 8 -21 -11
0 -4 5 80 106 10 -19 -11
-2 -4 5 85 109 12 -18 -11
-3 -4 5 89 111 14 -16 -11
-3 -5 4 93 115 18 -15 -12
-2 -4 4 96 121 23 -13 -10
1 -3 4 99 127 28 -12 -9
2 -2 4 102 133 33 -10 -8
4 0 4 105 138 38 -9 -7
5 1 4 108 143 44 -5 -5
5 2 4 112 148 50 1 -2
5 3 3 115 152 55 7 2
5 4 3 119 157 60 12 5
5 5 3 122 162 66 17 8
4 6 2 126 167 71 21 10
5 6 0 128 170 76 25 13
6 7 -2 130 174 82 28 16
6 7 -3 133 177 88 32 18
7 7 -4 135 180 93 35 21
8 9 -5 136 182 97 39 23
8 11 -5 136 182 100 44 25
8 13 -5 136 183 104 47 26
8 16 -5 136 183 107 51 28
8 18 -5 136 183 110 54 30
7 19 -5 137 184 113 57 32
7 19 -5 137 184 114 59 34
7 19 -5 137 184 116 60 36
7 19 -5 137 184 117 62 39
7 19 -5 137 184 119 64 42
8 19 -5 136 182 120 65 43
8 19 -6 135 179 120 67 43
8 19 -6 134 177 120 68 43
8 19 -7 133 175 120 69 43
8 19 -7 132 172 120 70 43
7 19 -8 131 171 121 71 44
7 18 -7 129 169 121 71 46
7 16 -7 128 168 121 71 47
7 15 -6 126 167 121 71 48
7 13 -6 125 165 121 71 49
7 12 -5 122 162 119 71 50
8 13 -6 119 158 117 70 49
9 14 -6 116 154 115 70 48
9 14 -7 113 151 113 69 48
10 15 -7 110 147 111 69 47
11 16 -8 106 141 107 66 45
11 15 -8 102 135 101 62 44
10 15 -9 97 129 96 58 42
10 14 -9 93 122 91 55 40
10 14 -9 88 116 85 51 38
9 13 -10 82 109 79 47 36
9 12 -10 77 101 73 44 34
9 11 -10 72 94 67 40 33
9 11 -10 66 87 61 37 31
9 10 -10 61 79 55 34 29
10 8 -10 57 72 50 30 27
9 7 -10 53 66 44 26 25
9 5 -9 49 60 37 22 23
8 4 -9 45 54 31 19 21
8 2 -9 40 49 25 15 19
7 1 -8 37 44 21 12 17
7 0 -8 34 39 17 9 15
7 -2 -9 31 35 13 6 13
7 -3 -9 28 31 9 3 10
7 -4 -9 25 27 5 0 8
8 -5 -10 22 24 1 -3 7
8 -5 -10 19 21 -3 -4 6
8 -4 -11 16 19 -6 -6 5
8 -4 -11 13 16 -9 -7 5
8 -4 -11 10 13 -12 -9 4
8 -3 -10 7 11 -15 -11 2
7 -4 -7 2 8 -17 -13 0
6 -5 -4 -3 5 -19 -16 -3
6 -5 0 -8 2 -22 -18 -5
5 -6 3 -12 -2 -24 -21 -7
4 -7 5 -14 -3 -26 -22 -9
3 -7 5 -15 -4 -28 -24 -10
2 -8 5 -16 -6 -30 -25 -12
2 -8 5 -17 -7 -33 -27 -13
1 -8 5 -18 -8 -35 -28 -15
0 -9 6 -19 -9 -36 -29 -16
0 -9 5 -18 -9 -37 -29 -16
0 -9 4 -16 -10 -38 -30 -17
0 -9 3 -15 -10 -39 -31 -18
0 -9 2 -14 -10 -40 -31 -18
1 -10 1 -13 -11 -41 -32 -19
1 -10 1 -13 -11 -41 -32 -19
0 -10 1 -13 -10 -41 -31 -19
0 -10 1 -13 -10 -41 -30 -19
0 -10 1 -13 -10 -41 -30 -19
-2 -9 0 -13 -9 -43 -29 -19
0 -9 0 -14 -9 -43 -30 -20
1 -9 0 -15 -8 -43 -31 -21
2 -9 0 -16 -8 -43 -32 -22
3 -9 0 -17 -8 -43 -33 -23
4 -10 0 -16 -4 -44 -34 -24
4 -10 0 -13 2 -44 -34 -24
3 -10 0 -9 7 -44 -34 -25
3 -10 0 -5 12 -44 -34 -25
3 -10 0 -2 18 -44 -34 -25
2 -10 1 15 39 -37 -38 -32
2 -7 1 38 71 -29 -46 -44
3 -4 1 63 104 -20 -52 -55
3 0 1 87 136 -12 -58 -66
3 3 1 110 168 -4 -64 -77
6 10 -3 94 161 21 -44 -67
11 18 -11 54 132 55 -7 -43
16 26 -18 13 101 89 31 -19
20 34 -26 -28 71 121 68 5
25 43 -34 -69 40 155 106 29
27 55 -41 -128 -15 203 168 74
28 69 -49 -197 -86 260 244 133
29 82 -56 -266 -157 315 320 192
29 97 -64 -336 -228 371 397 251
30 110 -71 -405 -299 428 473 309
26 119 -76 -474 -390 405 478 331
16 126 -80 -544 -492 332 438 330
7 132 -85 -613 -595 261 397 329
-4 138 -89 -682 -697 189 357 328
-13 144 -93 -752 -800 116 317 327
-18 126 -92 -768 -839 21 230 277
-19 90 -85 -752 -836 -90 115 195
-21 54 -78 -735 -832 -200 1 114
-23 18 -71 -718 -829 -311 -114 33
-25 -18 -65 -701 -826 -422 -229 -48
-25 -38 -57 -642 -770 -454 -280 -94
-22 -51 -48 -557 -680 -438 -290 -119
-19 -62 -38 -472 -590 -422 -301 -144
-16 -73 -29 -387 -499 -404 -311 -170
-14 -85 -20 -302 -409 -388 -321 -194
-12 -89 -14 -246 -344 -356 -304 -197
-12 -88 -10 -211 -293 -314 -269 -185
-12 -86 -7 -175 -242 -272 -233 -173
-12 -83 -3 -139 -192 -230 -197 -159
-12 -81 2 -103 -142 -189 -161 -147
-10 -75 4 -80 -109 -160 -139 -138
-9 -66 4 -65 -87 -141 -123 -130
-7 -57 3 -50 -65 -122 -108 -122
-5 -48 3 -35 -44 -103 -94 -114
-3 -38 3 -20 -22 -83 -78 -107
-2 -32 2 -11 -9 -70 -68 -101
-2 -28 2 -4 1 -62 -61 -97
-2 -25 1 4 9 -54 -53 -93
-2 -21 1 10 17 -45 -46 -89
-2 -17 1 17 25 -36 -37 -85
0 -15 0 22 30 -32 -34 -82
0 -15 0 26 32 -30 -33 -82
0 -14 -2 29 34 -28 -32 -82
0 -14 -2 33 36 -27 -32 -82
0 -14 -2 37 38 -25 -31 -82
0 -13 -3 39 39 -24 -30 -85
0 -13 -3 39 39 -24 -30 -87
1 -14 -3 39 39 -25 -31 -89
2 -15 -3 39 39 -25 -31 -91
2 -15 -3 39 39 -25 -31 -94
3 -16 -4 39 42 -25 -32 -95
3 -16 -3 40 44 -24 -31 -95
4 -15 -2 43 46 -22 -30 -95
4 -15 -2 45 48 -20 -30 -95
4 -15 0 47 51 -18 -29 -95
5 -14 1 48 52 -17 -28 -96
5 -14 -2 49 53 -16 -28 -97
5 -13 -3 50 55 -15 -27 -99
5 -12 -5 51 56 -15 -27 -100
5 -12 -6 52 57 -14 -27 -101
4 -11 -7 53 59 -13 -26 -102
4 -11 -7 55 61 -11 -26 -103
5 -10 -6 56 64 -10 -25 -105
5 -9 -5 58 66 -8 -25 -106
5 -9 -5 59 68 -7 -25 -107
6 -8 -2 60 70 -6 -24 -108
6 -8 2 60 70 -6 -24 -108
5 -8 6 60 71 -6 -25 -109
5 -8 9 60 71 -6 -25 -109
5 -8 13 60 71 -6 -25 -109
3 -9 15 60 72 -7 -26 -111
1 -10 15 62 74 -7 -26 -113
-2 -11 15 64 76 -7 -27 -115
-4 -12 15 66 77 -7 -27 -117
-6 -13 15 68 79 -7 -27 -119
-7 -14 14 71 82 -7 -27 -120
-6 -13 14 76 87 -5 -26 -120
-4 -11 14 80 91 -3 -24 -120
-3 -10 14 86 95 -2 -22 -120
-2 -9 14 91 100 1 -20 -120
0 -8 15 95 104 4 -19 -119
0 -8 15 98 109 7 -18 -119
0 -7 15 102 114 11 -17 -119
0 -6 15 106 119 15 -17 -119
0 -6 15 110 123 19 -16 -119
0 -5 16 114 129 23 -14 -118
0 -5 16 117 134 27 -11 -118
0 -4 15 121 138 31 -7 -117
0 -4 15 126 143 35 -4 -117
0 -4 15 130 147 40 0 -117
0 -3 14 133 151 45 3 -116
0 -3 13 135 154 49 7 -116
0 -2 12 137 157 54 10 -115
0 0 12 139 160 58 14 -115
0 0 11 142 163 63 17 -115
0 1 10 143 165 66 20 -114
0 2 8 144 168 70 23 -113
1 4 6 145 169 74 27 -112
1 5 5 145 170 77 30 -111
1 6 3 146 172 81 33 -110
2 7 2 147 173 84 35 -109
2 7 1 147 173 85 35 -107
2 8 0 147 173 87 35 -106
2 8 -2 147 173 88 35 -105
2 8 -3 147 173 89 35 -103
2 9 -4 148 172 90 37 -101
3 9 -4 148 171 90 39 -99
4 8 -4 148 170 90 42 -96
5 7 -4 148 169 90 44 -94
6 7 -4 148 168 90 46 -92
7 6 -3 149 167 89 48 -90
7 6 -3 149 167 91 49 -88
6 6 -3 148 165 93 51 -86
6 6 -3 148 164 95 52 -83
6 6 -3 148 164 97 53 -81
5 6 -3 146 162 98 54 -79
5 6 -3 143 158 98 54 -77
5 7 -4 140 155 97 54 -75
5 8 -5 137 151 97 54 -73
5 8 -5 134 148 97 54 -71
6 9 -6 130 144 96 55 -70
5 9 -6 127 139 94 55 -69
4 8 -6 122 134 92 54 -67
4 8 -6 118 130 90 54 -66
3 8 -6 114 125 88 54 -65
2 7 -7 109 118 85 52 -64
3 7 -7 103 110 78 49 -65
4 6 -8 97 103 73 45 -66
5 6 -9 91 95 67 42 -67
6 6 -9 85 88 62 38 -68
7 5 -10 78 80 56 34 -69
7 4 -10 73 73 51 30 -71
7 3 -10 67 65 45 26 -73
7 2 -10 61 58 38 22 -74
7 1 -10 55 51 32 18 -76
7 0 -9 50 45 27 14 -77
7 -3 -9 46 38 23 12 -76
6 -5 -9 42 32 18 9 -75
6 -7 -9 37 27 14 7 -74
6 -9 -9 33 21 10 5 -73
5 -10 -10 30 17 6 2 -72
5 -10 -10 27 14 3 0 -70
5 -11 -11 24 10 -2 -4 -68
5 -11 -11 21 7 -5 -7 -67
5 -11 -11 18 4 -8 -9 -65
5 -12 -12 15 1 -11 -11 -64
6 -12 -12 12 -2 -13 -12 -63
7 -12 -13 9 -4 -16 -14 -62
8 -12 -13 7 -6 -18 -15 -61
9 -12 -13 4 -8 -20 -16 -60
10 -11 -14 2 -10 -22 -17 -59
9 -11 -14 2 -10 -23 -18 -58
8 -12 -13 3 -10 -25 -19 -56
7 -13 -12 3 -10 -26 -19 -55
6 -13 -12 3 -10 -27 -20 -54
5 -14 -11 5 -10 -28 -21 -52
5 -14 -11 8 -10 -28 -21 -50
6 -15 -12 11 -10 -29 -21 -47
6 -15 -13 14 -10 -29 -21 -45
6 -15 -13 17 -10 -29 -21 -43
7 -15 -14 19 -9 -30 -20 -40
7 -13 -13 19 -8 -31 -21 -38
7 -12 -12 19 -8 -31 -22 -37
7 -10 -11 20 -7 -32 -24 -36
7 -8 -10 20 -6 -33 -25 -34
7 -6 -9 19 -5 -34 -26 -33
6 -7 -7 15 -7 -36 -27 -33
5 -7 -5 10 -8 -38 -27 -32
4 -8 -3 5 -9 -40 -28 -31
3 -9 0 1 -11 -43 -29 -31
2 -10 2 -3 -12 -44 -30 -30
1 -10 2 -4 -12 -44 -30 -28
1 -10 2 -5 -12 -44 -30 -27
0 -9 3 -6 -11 -44 -30 -26
-2 -9 3 -7 -11 -44 -30 -24
-3 -8 4 -8 -10 -43 -31 -23
-3 -8 3 -10 -10 -43 -31 -22
-3 -9 2 -11 -10 -43 -31 -21
-2 -10 0 -12 -10 -43 -31 -19
-2 -10 -2 -14 -10 -43 -31 -18
0 -11 -3 -15 -10 -43 -31 -16
0 -11 -3 -16 -10 -41 -31 -13
1 -11 -3 -16 -10 -40 -31 -10
2 -11 -4 -17 -9 -39 -31 -6
2 -11 -4 -18 -9 -38 -31 -3
3 -10 -5 -19 -8 -37 -30 2
3 -10 -5 -20 -8 -36 -28 7
3 -9 -5 -21 -8 -36 -26 13
3 -8 -6 -23 -8 -35 -24 18
3 -8 -6 -24 -8 -34 -22 24
2 -7 -7 -23 -4 -32 -20 27
2 -7 -7 -16 3 -30 -21 27
2 -7 -7 -10 10 -28 -21 27
2 -8 -7 -4 16 -26 -22 26
2 -8 -7 3 23 -24 -23 26
1 -8 -7 18 43 -19 -26 23
2 -5 -7 42 74 -10 -33 18
2 -3 -6 65 107 -2 -39 12
3 1 -5 90 140 8 -46 7
4 4 -5 113 173 16 -52 1
7 10 -7 107 177 38 -35 12
14 20 -15 64 148 77 9 45
20 29 -23 20 118 116 53 76
26 39 -31 -23 90 155 97 109
32 49 -39 -66 61 194 141 142
36 60 -48 -119 14 243 202 189
37 73 -56 -185 -52 303 286 255
38 87 -64 -251 -118 363 370 319
39 100 -72 -316 -184 423 453 385
40 113 -79 -382 -251 483 537 449
37 121 -86 -449 -333 482 564 485
26 127 -89 -521 -436 407 524 486
15 131 -93 -592 -538 332 484 487
4 135 -96 -663 -641 258 444 488
-8 139 -100 -734 -743 183 404 489
-14 127 -99 -761 -799 91 326 449
-16 91 -91 -731 -795 -23 203 359
-18 55 -82 -702 -791 -137 80 269
-20 19 -75 -674 -787 -251 -41 179
-22 -16 -67 -645 -783 -364 -164 89
-24 -40 -59 -595 -743 -421 -238 27
-22 -52 -51 -520 -658 -406 -253 1
-20 -62 -43 -445 -573 -393 -267 -25
-18 -72 -34 -369 -487 -379 -281 -52
-16 -83 -26 -295 -402 -364 -296 -77
-15 -89 -20 -238 -335 -340 -289 -88
-14 -86 -16 -204 -288 -302 -257 -75
-13 -83 -13 -171 -242 -263 -224 -62
-11 -80 -9 -137 -196 -225 -191 -50
-10 -77 -5 -103 -150 -187 -157 -36
-9 -71 -3 -77 -114 -157 -133 -25
-7 -63 -3 -62 -92 -137 -116 -15
-5 -54 -4 -47 -69 -116 -100 -6
-3 -45 -5 -32 -47 -96 -85 5
0 -35 -5 -17 -25 -76 -68 15
2 -29 -6 -6 -10 -62 -57 22
2 -27 -6 1 -3 -55 -51 26
2 -25 -6 6 5 -48 -45 29
2 -23 -6 12 12 -41 -38 33
2 -21 -6 17 19 -34 -32 36
1 -19 -5 22 23 -30 -28 39
2 -18 -6 25 25 -28 -27 39
3 -17 -6 29 27 -26 -26 40
5 -16 -7 32 29 -24 -25 42
6 -15 -8 36 31 -23 -24 42
7 -14 -9 38 33 -21 -23 42
6 -14 -9 38 33 -21 -24 37
6 -14 -9 38 33 -21 -24 33
5 -14 -9 38 34 -21 -25 29
4 -14 -9 38 34 -21 -26 25
3 -14 -8 39 35 -22 -27 22
3 -14 -8 42 38 -20 -26 24
3 -14 -8 43 40 -19 -25 25
3 -14 -7 45 43 -17 -23 27
3 -14 -7 47 45 -15 -22 29
4 -15 -6 48 47 -14 -21 30
4 -15 -6 48 48 -13 -21 30
4 -15 -6 49 50 -12 -21 30
4 -14 -7 50 51 -11 -21 30
4 -14 -7 50 53 -10 -21 30
5 -13 -8 52 55 -9 -20 29
5 -12 -8 54 57 -8 -20 29
5 -11 -8 56 60 -6 -20 29
5 -9 -8 59 62 -5 -19 29
5 -8 -8 61 65 -3 -19 29
6 -7 -6 63 67 -2 -18 29
6 -8 -2 63 67 -3 -18 30
6 -8 2 63 68 -4 -18 31
5 -9 6 63 69 -5 -18 32
5 -10 9 63 69 -6 -18 33
4 -11 12 62 70 -7 -19 34
3 -11 12 64 73 -5 -19 34
2 -11 12 66 75 -3 -19 33
1 -11 13 68 77 0 -19 32
0 -11 13 69 79 1 -19 32
-2 -10 14 72 82 3 -18 31
-2 -9 14 76 86 4 -18 30
-2 -9 13 81 89 6 -18 30
0 -8 12 86 92 7 -18 29
0 -7 12 90 96 9 -18 28
1 -6 11 94 99 11 -18 27
2 -6 11 98 103 13 -17 27
3 -6 11 101 106 16 -15 27
4 -6 11 105 110 18 -14 28
5 -6 11 108 113 21 -12 28
6 -6 11 112 117 24 -10 29
6 -5 10 115 122 28 -7 30
6 -4 10 118 128 31 -4 30
6 -3 9 121 132 35 0 31
6 -2 8 126 137 38 4 32
6 0 7 129 141 43 7 33
6 0 7 132 145 48 10 36
6 1 6 136 148 52 13 38
6 2 5 139 152 56 16 40
6 2 5 142 155 61 19 43
7 3 4 145 158 65 22 45
7 4 4 145 159 67 25 45
6 5 4 146 159 70 28 45
5 7 3 147 160 72 31 46
5 8 3 147 161 75 34 46
4 9 2 148 162 77 36 47
4 9 1 148 162 79 38 48
5 9 0 148 162 80 39 48
6 9 -3 149 162 82 42 49
6 9 -4 149 162 85 44 50
7 10 -5 150 161 86 45 51
7 9 -5 150 161 86 45 51
6 8 -5 150 161 86 46 52
5 7 -5 151 160 87 47 53
5 6 -5 151 160 87 47 53
4 5 -4 152 159 88 48 54
5 5 -4 152 159 89 50 54
5 5 -4 152 159 90 52 54
6 5 -4 152 158 92 54 55
7 5 -4 152 158 93 56 55
8 6 -3 151 157 94 58 56
8 7 -3 148 154 94 59 57
8 8 -4 145 151 94 59 59
9 10 -5 142 149 95 60 60
9 11 -5 139 146 95 61 62
10 12 -6 135 143 95 62 63
10 11 -6 131 138 93 62 63
10 10 -6 127 133 90 61 62
10 8 -6 122 128 87 60 61
10 7 -6 118 122 84 60 61
9 6 -7 113 116 80 58 60
9 6 -7 107 108 75 55 58
9 6 -7 101 101 71 51 57
9 5 -8 95 94 67 48 55
9 5 -8 89 86 62 45 54
8 4 -9 84 78 58 40 52
8 4 -9 78 71 52 37 49
8 4 -9 73 64 47 33 46
8 3 -9 68 58 42 30 44
8 3 -9 63 51 36 27 40
9 2 -9 58 45 31 23 38
9 2 -9 54 38 26 20 35
9 1 -9 49 33 21 16 32
10 0 -9 45 27 16 12 30
10 0 -9 39 22 12 9 27
11 -2 -9 36 17 8 6 25
11 -3 -9 33 14 5 5 23
10 -4 -9 30 11 2 3 21
9 -6 -10 28 8 -2 2 19
9 -7 -10 25 5 -5 0 17
8 -8 -11 22 2 -8 -2 15
8 -9 -11 19 -2 -11 -5 14
8 -10 -11 16 -4 -14 -8 13
8 -11 -11 13 -7 -17 -10 12
8 -12 -11 10 -9 -20 -13 11
7 -13 -11 7 -11 -22 -15 10
7 -12 -11 7 -11 -22 -15 8
7 -12 -10 7 -11 -22 -15 7
6 -11 -9 6 -11 -22 -15 5
6 -10 -9 6 -11 -22 -15 4
5 -9 -8 5 -10 -22 -16 2
5 -9 -9 6 -10 -23 -16 2
5 -9 -10 7 -10 -24 -16 2
5 -9 -12 9 -10 -25 -17 1
5 -9 -13 10 -10 -26 -17 1
6 -9 -14 11 -10 -27 -18 0
7 -7 -13 12 -10 -28 -18 -3
7 -5 -12 12 -10 -30 -18 -4
8 -3 -11 13 -10 -31 -19 -6
9 0 -10 14 -10 -33 -19 -7
10 2 -9 15 -10 -34 -20 -9
8 0 -6 12 -10 -35 -21 -9
6 -4 -3 9 -10 -35 -22 -9
4 -6 1 7 -11 -36 -24 -9
2 -8 4 4 -11 -37 -25 -9
0 -10 6 2 -12 -38 -26 -10
0 -10 6 1 -12 -40 -27 -11
0 -10 6 1 -13 -41 -27 -12
0 -10 5 0 -13 -44 -28 -13
0 -10 5 -2 -14 -45 -29 -15
1 -9 4 -3 -15 -47 -30 -16
1 -9 4 -5 -15 -47 -30 -16
1 -9 4 -7 -15 -47 -30 -17
2 -9 4 -8 -15 -47 -31 -17
2 -9 4 -10 -15 -47 -31 -18
3 -10 3 -12 -14 -46 -32 -19
3 -10 3 -12 -13 -46 -32 -19
3 -10 3 -12 -13 -45 -32 -20
2 -10 2 -12 -12 -45 -32 -20
2 -10 2 -12 -11 -44 -32 -21
1 -11 1 -12 -10 -43 -32 -22
0 -11 1 -12 -10 -41 -32 -22
-2 -11 1 -13 -10 -41 -31 -22
-3 -11 1 -13 -10 -40 -31 -22
-5 -11 1 -14 -10 -39 -30 -22
-6 -10 0 -15 -9 -38 -29 -22
-4 -10 0 -16 -9 -37 -29 -22
-2 -10 0 -17 -9 -36 -28 -22
0 -10 0 -18 -9 -35 -28 -22
2 -10 0 -19 -9 -34 -27 -22
4 -9 -2 -20 -9 -33 -26 -23
4 -9 -2 -20 -9 -32 -25 -22
4 -9 -2 -20 -9 -32 -25 -22
4 -9 -2 -20 -8 -31 -24 -21
4 -9 -2 -20 -8 -30 -23 -20
3 -10 -2 -15 1 -28 -23 -20
3 -10 -2 7 25 -24 -28 -27
3 -10 -2 28 51 -20 -33 -33
4 -10 -2 50 75 -16 -39 -39
4 -10 -2 71 101 -11 -45 -46
6 -9 -2 87 120 -3 -47 -50
10 -2 -4 86 128 17 -37 -47
14 6 -5 85 136 36 -28 -43
18 13 -7 84 144 56 -19 -39
23 20 -8 81 151 75 -10 -35
27 28 -13 61 143 108 22 -15
31 40 -23 -7 93 172 104 45
36 52 -32 -73 42 235 186 105
40 64 -43 -140 -9 299 269 164
45 75 -53 -207 -59 362 351 224
48 89 -62 -275 -120 409 422 280
42 102 -69 -345 -207 420 464 325
36 116 -75 -414 -296 430 506 371
30 131 -82 -484 -384 440 548 417
24 145 -89 -553 -471 450 590 463
18 150 -94 -612 -552 420 588 479
10 129 -92 -646 -616 289 478 423
2 108 -90 -680 -680 159 368 366
-7 88 -89 -713 -744 28 259 309
-15 67 -87 -746 -809 -102 149 253
-21 45 -82 -749 -836 -210 47 189
-19 17 -72 -675 -767 -262 -35 111
-17 -10 -63 -600 -698 -314 -116 32
-16 -36 -53 -525 -630 -365 -198 -47
-14 -64 -43 -450 -561 -418 -280 -126
-12 -83 -33 -382 -495 -444 -332 -180
-11 -86 -26 -330 -436 -401 -304 -170
-9 -87 -18 -278 -377 -359 -275 -159
-8 -89 -11 -227 -316 -317 -246 -149
-7 -90 -3 -176 -257 -274 -218 -140
-5 -90 4 -132 -204 -236 -191 -129
-4 -82 4 -110 -172 -207 -170 -115
-3 -74 4 -88 -139 -179 -147 -101
-2 -66 4 -66 -105 -150 -126 -88
0 -58 4 -44 -72 -122 -103 -74
1 -51 5 -25 -45 -98 -85 -63
1 -44 5 -16 -32 -87 -73 -56
1 -36 5 -7 -19 -74 -63 -49
1 -29 4 2 -7 -63 -52 -43
1 -22 4 11 6 -51 -41 -35
0 -17 3 19 16 -41 -33 -30
1 -16 3 23 19 -38 -31 -30
2 -16 3 27 21 -36 -29 -30
3 -15 3 31 23 -33 -28 -29
5 -14 3 35 26 -30 -26 -29
6 -13 2 38 28 -28 -24 -28
6 -13 2 40 30 -27 -24 -27
6 -13 2 43 32 -26 -24 -26
5 -12 2 45 35 -25 -23 -25
5 -12 2 47 37 -24 -23 -23
4 -11 3 49 39 -23 -22 -22
4 -11 3 50 39 -22 -22 -22
4 -10 3 51 39 -21 -22 -22
5 -10 3 52 40 -20 -21 -23
5 -9 3 53 40 -18 -21 -23
6 -8 2 54 42 -17 -20 -24
6 -8 2 54 44 -16 -19 -24
6 -8 2 54 45 -15 -18 -24
7 -7 2 54 47 -14 -17 -23
7 -7 2 54 48 -12 -16 -23
8 -6 3 54 50 -11 -15 -22
7 -6 7 53 51 -11 -15 -22
5 -6 10 53 51 -11 -15 -22
4 -7 14 52 52 -11 -15 -22
3 -7 17 51 53 -11 -15 -22
1 -8 20 50 54 -12 -15 -23
1 -8 20 50 55 -12 -15 -23
0 -8 19 51 56 -12 -16 -23
0 -9 19 51 57 -12 -16 -24
-2 -9 18 52 58 -12 -17 -24
-3 -10 17 53 59 -12 -18 -25
-3 -10 17 57 61 -12 -18 -25
-3 -9 16 60 63 -12 -18 -25
-2 -9 16 64 65 -11 -18 -25
-2 -8 15 67 67 -11 -18 -25
0 -7 14 70 69 -10 -19 -25
0 -7 14 74 73 -8 -18 -25
1 -7 14 78 76 -5 -16 -25
2 -6 14 81 80 -3 -15 -24
3 -6 14 86 84 1 -14 -24
4 -5 14 89 87 3 -12 -23
4 -5 13 91 91 5 -12 -23
4 -4 12 93 94 8 -12 -22
4 -3 11 96 98 10 -11 -22
4 -2 10 98 101 13 -11 -21
5 0 9 100 104 15 -10 -20
5 0 9 104 109 19 -8 -20
4 0 9 108 113 22 -5 -19
3 0 8 112 117 25 -3 -18
2 0 8 116 121 29 1 -17
1 1 7 119 126 32 3 -16
1 1 7 122 130 36 6 -15
1 2 6 126 134 40 8 -13
2 3 6 129 137 44 11 -11
2 4 5 131 141 48 13 -10
3 5 4 134 144 52 17 -8
3 5 4 137 148 56 21 -4
3 6 3 141 151 61 25 0
3 6 3 144 154 65 30 3
3 7 2 147 158 70 34 7
4 8 1 150 161 74 38 10
4 8 1 151 162 78 42 11
5 9 1 153 163 81 44 12
5 9 1 154 164 85 47 13
6 10 1 155 165 89 49 15
7 11 2 157 167 92 52 16
7 11 2 157 167 93 54 18
7 11 2 158 167 94 55 19
7 11 1 158 167 95 57 21
7 11 1 159 167 96 59 23
7 10 0 160 165 97 61 25
8 11 0 160 165 97 62 25
9 12 0 159 164 98 63 26
10 13 0 159 164 98 64 27
11 15 0 158 163 99 65 28
12 16 -2 157 162 100 66 29
12 15 -2 157 162 101 66 29
12 14 -2 157 161 102 67 29
11 13 -2 156 160 103 68 30
11 12 -2 156 159 104 69 30
10 11 0 155 158 105 70 31
10 11 0 152 155 105 70 31
10 11 0 148 151 105 70 31
9 11 0 145 148 104 70 32
9 11 0 142 145 104 70 32
8 11 1 139 141 103 69 33
8 11 1 134 136 98 68 33
9 10 0 129 130 93 66 33
10 10 -2 125 123 89 65 33
11 9 -3 119 117 84 64 33
12 8 -4 114 111 78 62 32
12 7 -4 109 104 73 57 29
11 6 -4 103 97 69 52 26
11 5 -5 98 89 64 48 23
10 3 -5 92 81 59 43 20
9 2 -6 87 74 53 38 17
9 2 -6 81 68 48 34 17
9 2 -5 77 62 43 31 16
9 1 -5 72 56 36 28 15
9 1 -4 68 49 31 24 14
8 0 -3 64 43 25 21 13
8 -2 -3 60 37 20 18 10
7 -4 -3 56 32 15 14 8
6 -6 -3 52 26 10 11 5
5 -7 -3 48 21 5 8 3
4 -9 -4 44 16 0 5 0
5 -9 -4 40 13 -4 4 -2
6 -9 -4 37 11 -7 2 -4
7 -9 -3 35 8 -10 0 -6
9 -9 -3 32 6 -13 -2 -7
10 -10 -2 29 3 -16 -4 -9
10 -10 -2 27 3 -17 -6 -9
10 -10 -3 26 2 -19 -8 -9
10 -11 -4 24 1 -21 -11 -9
10 -11 -5 22 0 -22 -13 -9
9 -12 -6 20 -2 -24 -15 -10
8 -12 -6 20 -2 -24 -15 -10
7 -11 -5 20 -2 -25 -15 -10
6 -10 -5 20 -3 -26 -15 -10
5 -9 -4 20 -3 -27 -15 -10
4 -8 -3 20 -4 -28 -14 -10
4 -8 1 20 -5 -30 -16 -11
4 -8 4 19 -6 -31 -18 -13
4 -8 7 19 -7 -33 -20 -15
4 -8 10 18 -8 -35 -23 -16
3 -9 13 17 -9 -37 -25 -18
3 -9 13 16 -10 -39 -26 -18
3 -9 13 14 -11 -40 -27 -18
2 -9 13 13 -12 -43 -28 -19
2 -9 13 12 -14 -45 -29 -19
1 -8 14 10 -15 -47 -30 -20
1 -9 14 10 -15 -47 -30 -20
1 -10 14 9 -15 -48 -31 -20
1 -11 13 9 -15 -49 -31 -21
1 -12 13 8 -15 -50 -32 -21
1 -13 12 7 -16 -51 -33 -22
1 -13 12 7 -16 -51 -33 -23
1 -13 11 6 -16 -51 -33 -24
1 -12 10 5 -16 -52 -34 -25
1 -12 9 4 -16 -52 -34 -26
0 -11 8 3 -15 -53 -35 -28
0 -11 8 3 -15 -53 -35 -28
0 -11 8 2 -14 -53 -36 -28
0 -11 8 2 -13 -53 -36 -28
0 -11 8 1 -12 -53 -37 -28
-2 -10 9 0 -11 -53 -38 -27
-2 -10 9 -2 -11 -53 -38 -27
-2 -10 8 -3 -11 -52 -37 -26
-3 -11 8 -4 -11 -51 -37 -26
-3 -11 7 -5 -11 -50 -36 -25
-4 -12 6 -6 -10 -49 -35 -24
-4 -12 6 -7 -10 -49 -35 -24
-3 -12 5 -8 -10 -48 -35 -24
-2 -12 5 -9 -10 -47 -34 -24
0 -12 4 -10 -10 -46 -34 -24
1 -12 3 -11 -11 -45 -33 -25
1 -12 2 -12 -11 -45 -32 -25
1 -12 1 -13 -11 -44 -31 -25
1 -12 0 -14 -11 -43 -30 -25
1 -12 -2 -15 -11 -41 -29 -25
1 -12 -3 -16 -10 -40 -28 -25
1 -12 -3 -16 -10 -40 -27 -23
1 -12 -3 -16 -10 -39 -26 -21
1 -12 -4 -16 -10 -39 -25 -19
1 -12 -4 -16 -10 -38 -24 -17
2 -12 -5 -17 -9 -37 -23 -15
3 -12 -5 -17 -9 -35 -22 -15
4 -12 -4 -17 -8 -34 -21 -15
5 -11 -3 -17 -8 -32 -20 -15
6 -11 -2 -17 -7 -30 -19 -15
7 -10 0 -16 -4 -28 -18 -15
7 -10 0 0 13 -26 -22 -19
7 -10 0 16 30 -23 -27 -24
7 -11 1 32 48 -20 -31 -28
7 -11 1 49 64 -18 -36 -33
7 -12 2 64 81 -14 -40 -37
9 -7 2 75 101 -2 -39 -39
11 0 2 86 120 12 -38 -43
13 5 2 97 139 24 -37 -46
15 10 2 107 158 36 -36 -48
17 16 2 111 172 54 -27 -45
23 26 -9 56 132 109 43 6
29 37 -19 1 93 164 112 56
35 48 -29 -54 53 220 182 106
42 58 -39 -109 14 275 252 156
48 70 -49 -165 -30 328 321 207
46 87 -57 -233 -106 367 392 267
44 103 -64 -301 -182 405 462 327
42 119 -72 -369 -258 443 532 387
39 136 -79 -437 -333 482 602 446
36 150 -87 -504 -410 503 653 495
25 138 -87 -562 -499 387 559 456
14 126 -88 -620 -588 271 466 419
3 114 -88 -679 -677 156 371 380
-10 102 -89 -736 -765 40 277 342
-20 88 -89 -781 -838 -71 181 297
-19 55 -78 -716 -784 -154 73 204
-18 22 -67 -649 -731 -237 -34 111
-17 -11 -56 -583 -679 -320 -142 19
-16 -43 -46 -518 -626 -403 -248 -73
-15 -72 -35 -452 -570 -473 -343 -156
-14 -76 -27 -393 -506 -434 -320 -153
-13 -81 -19 -333 -441 -394 -298 -151
-12 -86 -12 -273 -376 -354 -275 -148
-11 -91 -4 -214 -311 -315 -253 -145
-9 -95 4 -158 -248 -276 -230 -141
-8 -87 5 -132 -211 -243 -204 -128
-7 -78 7 -105 -172 -211 -180 -114
-6 -70 8 -78 -134 -178 -155 -101
-5 -62 10 -53 -95 -145 -130 -88
-4 -55 12 -27 -59 -114 -106 -75
-4 -48 10 -18 -45 -101 -96 -67
-3 -40 8 -8 -30 -88 -85 -60
-3 -33 6 3 -15 -74 -73 -53
-2 -27 3 13 0 -60 -62 -45
0 -20 1 22 13 -48 -52 -37
0 -19 2 27 18 -44 -48 -34
0 -17 3 32 23 -38 -44 -31
0 -15 4 36 27 -34 -38 -28
0 -13 5 42 32 -29 -34 -24
0 -11 7 47 37 -25 -30 -21
0 -11 10 46 37 -25 -30 -21
0 -11 13 45 37 -25 -30 -22
0 -11 16 43 36 -25 -31 -23
0 -11 19 42 36 -25 -31 -24
1 -12 22 39 35 -26 -32 -25
1 -12 22 38 35 -26 -32 -26
0 -12 22 37 35 -26 -32 -27
-2 -11 22 36 35 -26 -32 -29
-3 -11 22 35 35 -26 -32 -30
-4 -10 22 34 35 -25 -33 -32
-4 -10 22 34 35 -25 -33 -31
-5 -9 22 34 35 -24 -34 -30
-5 -8 21 33 36 -23 -34 -28
-6 -7 21 33 36 -22 -35 -27
-7 -6 20 32 37 -21 -36 -25
-7 -6 20 33 39 -21 -35 -25
-6 -7 20 35 42 -21 -34 -25
-5 -8 19 37 44 -21 -33 -24
-4 -9 19 39 46 -21 -32 -24
-3 -10 18 42 48 -21 -30 -23
-3 -10 18 45 50 -21 -30 -23
-3 -9 18 47 52 -20 -29 -23
-3 -8 17 50 54 -20 -29 -24
-3 -7 17 53 56 -19 -28 -24
-3 -6 16 56 58 -18 -27 -25
-3 -6 16 57 59 -17 -27 -25
-3 -6 16 59 60 -16 -27 -25
-3 -5 16 61 62 -15 -27 -25
-3 -5 16 63 63 -14 -27 -25
-4 -4 16 65 65 -12 -27 -25
-4 -4 15 66 65 -12 -27 -25
-4 -4 14 67 66 -11 -27 -25
-4 -5 13 68 67 -11 -27 -25
-4 -5 12 69 68 -10 -27 -25
-4 -6 10 71 69 -9 -27 -26
-4 -5 10 74 73 -7 -27 -26
-4 -4 10 78 78 -4 -26 -26
-3 -3 10 82 82 0 -26 -26
-3 -2 10 86 87 3 -25 -26
-2 0 11 90 92 6 -24 -25
-2 -2 11 94 96 9 -22 -24
-2 -4 11 98 101 12 -20 -22
-2 -5 11 102 106 15 -18 -20
-2 -7 11 107 110 18 -16 -18
-3 -9 11 111 115 21 -13 -16
-3 -8 11 115 119 25 -9 -15
-3 -7 10 119 125 29 -5 -14
-2 -6 10 123 129 33 0 -13
-2 -5 9 128 133 38 5 -12
0 -4 8 132 138 43 9 -10
0 -3 8 135 141 48 12 -9
0 -2 8 138 144 52 16 -8
0 0 8 141 147 57 19 -7
0 1 8 144 150 62 23 -6
0 3 7 147 154 67 27 -5
1 3 7 149 156 70 30 0
2 4 7 151 158 73 33 4
3 5 7 153 160 76 36 8
4 6 7 155 162 79 39 12
6 7 7 157 164 82 44 16
6 7 7 157 164 84 46 17
6 8 6 157 164 85 48 18
6 8 6 157 163 86 50 19
6 9 5 157 163 87 52 20
5 10 4 157 162 89 54 22
5 10 4 157 162 89 54 22
5 10 4 157 162 89 55 23
4 10 5 157 162 90 56 24
4 10 5 157 162 90 57 25
3 10 6 156 162 91 58 26
4 10 6 156 161 92 59 26
5 11 6 156 160 93 60 27
7 12 5 155 159 95 61 27
8 13 5 155 158 96 62 28
10 14 4 154 156 98 63 29
10 14 4 152 154 98 63 30
9 13 4 150 152 98 64 31
8 13 4 148 150 98 64 32
7 12 4 146 148 98 65 33
6 11 3 143 146 98 66 34
6 11 3 140 141 95 65 33
6 11 3 136 136 92 64 32
5 11 3 132 130 89 62 31
5 11 3 128 125 86 61 30
4 12 4 123 118 81 59 29
4 11 4 119 112 77 55 27
4 10 3 115 106 72 51 25
4 8 3 110 100 67 46 23
4 7 2 106 94 62 42 21
5 5 1 101 88 57 36 18
5 5 1 97 81 52 34 17
5 5 0 92 75 47 31 15
5 5 -2 87 69 42 29 14
5 5 -3 81 63 36 26 12
4 5 -4 76 56 30 23 10
4 5 -3 73 51 26 21 9
3 4 -2 69 46 21 19 8
2 4 1 65 40 17 17 7
1 3 2 61 35 12 15 6
0 2 4 57 30 7 13 5
0 2 6 52 26 5 9 3
0 2 8 46 21 2 4 1
0 1 11 39 16 -2 -2 -3
0 1 13 33 11 -5 -7 -5
0 0 16 27 6 -8 -12 -8
0 0 16 24 3 -12 -13 -9
-2 -2 16 20 0 -16 -15 -11
-2 -3 15 16 -4 -21 -17 -12
-3 -4 15 12 -7 -25 -19 -14
-4 -5 14 8 -11 -30 -21 -16
-4 -5 14 6 -11 -30 -21 -16
-5 -6 13 4 -11 -31 -21 -16
-5 -6 12 2 -12 -31 -22 -16
-6 -7 11 0 -12 -32 -22 -16
-7 -8 10 -3 -13 -33 -23 -16
-6 -8 10 -3 -13 -34 -23 -16
-5 -8 10 -3 -13 -35 -24 -17
-4 -7 11 -3 -14 -36 -25 -18
-3 -7 11 -3 -14 -37 -26 -19
-2 -6 12 -4 -15 -39 -27 -20
-2 -6 11 -3 -15 -40 -28 -20
-2 -7 11 0 -15 -41 -29 -21
-3 -8 10 2 -15 -43 -30 -21
-3 -9 9 4 -15 -44 -31 -22
-3 -9 8 5 -15 -45 -32 -22
-4 -10 7 6 -15 -46 -33 -23
-4 -10 7 6 -15 -47 -33 -23
-3 -10 7 6 -15 -48 -33 -23
-3 -10 7 6 -15 -49 -33 -23
-3 -10 7 6 -15 -50 -33 -23
-2 -9 8 4 -16 -51 -34 -22
-3 -9 8 3 -16 -51 -34 -23
-3 -9 8 1 -16 -51 -35 -24
-4 -9 8 0 -16 -51 -35 -25
-4 -9 8 -2 -16 -51 -35 -25
-5 -10 9 -3 -17 -52 -36 -26
-5 -11 8 -4 -17 -52 -36 -26
-5 -12 7 -4 -17 -52 -36 -26
-5 -13 6 -5 -17 -52 -36 -26
-5 -14 5 -5 -17 -52 -36 -26
-4 -15 4 -6 -16 -52 -35 -25
-3 -14 4 -7 -15 -51 -35 -24
-3 -14 4 -7 -14 -50 -34 -24
-2 -13 4 -8 -13 -49 -34 -23
-2 -13 4 -8 -12 -49 -34 -23
0 -12 5 -9 -11 -48 -33 -22
0 -12 4 -10 -11 -47 -33 -23
0 -12 3 -11 -11 -47 -33 -24
0 -12 2 -12 -11 -46 -33 -25
0 -12 1 -12 -11 -46 -33 -25
-2 -11 0 -13 -11 -44 -33 -25
0 -11 0 -13 -11 -41 -32 -23
1 -11 0 -13 -11 -39 -30 -22
2 -11 0 -13 -11 -37 -29 -20
2 -11 0 -13 -11 -35 -28 -19
3 -11 0 -14 -11 -34 -27 -18
3 -11 1 -14 -11 -34 -26 -17
3 -11 1 -14 -11 -33 -25 -16
3 -11 2 -14 -11 -33 -24 -15
3 -11 2 -14 -11 -33 -23 -15
2 -11 4 -9 -3 -30 -23 -16
3 -11 5 0 6 -28 -24 -18
3 -10 6 7 14 -25 -25 -21
4 -10 7 14 21 -23 -26 -23
4 -10 8 21 29 -21 -27 -25
5 -5 9 46 63 -12 -35 -35
5 0 9 71 98 -3 -44 -45
5 5 9 97 133 7 -52 -55
5 9 9 122 168 16 -59 -65
5 13 9 148 202 25 -67 -74
10 21 3 116 179 64 -22 -45
16 28 -6 81 151 103 26 -11
23 36 -13 47 123 143 74 22
30 45 -20 12 96 182 122 55
36 52 -27 -23 69 222 171 88
38 67 -36 -87 5 285 260 158
40 82 -45 -151 -62 351 350 231
43 98 -53 -216 -129 415 441 303
45 113 -62 -280 -195 481 531 376
47 129 -70 -345 -261 547 621 447
35 132 -72 -418 -364 467 577 448
22 135 -74 -491 -470 379 525 445
9 138 -76 -564 -575 292 474 442
-6 141 -78 -638 -681 203 422 439
-19 143 -80 -712 -785 116 369 436
-21 110 -75 -691 -786 5 244 343
-23 73 -68 -664 -780 -108 115 245
-25 36 -61 -638 -774 -221 -14 147
-27 0 -55 -611 -768 -333 -143 50
-29 -37 -48 -585 -762 -446 -273 -48
-29 -48 -39 -514 -680 -433 -286 -75
-27 -57 -31 -440 -594 -409 -293 -99
-25 -67 -22 -366 -508 -387 -300 -122
-23 -76 -14 -293 -422 -364 -307 -145
-22 -86 -6 -219 -336 -342 -313 -169
-20 -83 1 -186 -289 -305 -282 -156
-18 -80 7 -156 -245 -268 -249 -141
-16 -77 13 -127 -201 -231 -216 -126
-14 -73 18 -97 -157 -194 -182 -110
-12 -70 24 -67 -113 -157 -148 -95
-11 -61 26 -55 -93 -138 -132 -87
-11 -52 27 -43 -72 -120 -116 -78
-10 -44 28 -31 -53 -103 -101 -71
-10 -34 29 -20 -33 -86 -86 -63
-10 -25 30 -8 -14 -68 -70 -55
-9 -22 30 -4 -7 -60 -64 -50
-10 -20 28 1 0 -53 -58 -46
-10 -18 27 5 7 -46 -52 -41
-11 -16 25 8 13 -38 -46 -36
-11 -14 24 12 19 -31 -39 -32
-12 -13 23 14 21 -30 -38 -30
-11 -14 23 15 23 -29 -37 -29
-10 -15 23 17 24 -28 -36 -28
-9 -16 23 18 26 -27 -35 -27
-8 -17 23 19 27 -26 -35 -26
-7 -17 23 20 28 -25 -34 -25
-7 -15 23 20 29 -24 -33 -26
-7 -14 22 20 30 -23 -33 -26
-7 -12 22 20 31 -22 -32 -27
-7 -11 22 20 32 -22 -32 -27
-6 -10 21 21 33 -21 -31 -28
-6 -10 20 21 34 -20 -31 -28
-6 -9 19 21 34 -19 -31 -29
-6 -9 18 21 35 -18 -31 -29
-6 -9 18 21 35 -17 -31 -29
-6 -8 17 22 37 -16 -32 -29
-6 -9 16 23 39 -16 -31 -27
-6 -10 15 24 40 -15 -31 -26
-6 -11 14 25 43 -15 -30 -24
-6 -12 14 26 44 -15 -30 -23
-6 -12 13 29 46 -14 -29 -23
-6 -10 13 31 47 -13 -29 -24
-6 -9 12 33 48 -13 -30 -26
-6 -7 12 36 49 -12 -30 -27
-6 -6 12 38 50 -12 -30 -28
-7 -5 11 42 53 -10 -30 -28
-6 -6 11 44 55 -8 -28 -26
-5 -6 11 46 57 -6 -26 -25
-4 -7 11 49 60 -4 -24 -23
-4 -7 11 51 62 -2 -22 -22
-3 -8 10 54 65 1 -21 -21
-3 -8 10 57 68 3 -21 -21
-3 -7 9 60 71 5 -20 -21
-3 -7 9 62 74 7 -20 -21
-3 -7 9 65 77 9 -20 -21
-3 -6 8 67 80 10 -18 -22
-3 -5 8 69 84 11 -17 -21
-2 -4 8 71 87 12 -16 -21
-2 -3 8 73 90 13 -15 -20
-2 -3 8 74 93 14 -14 -20
0 -2 8 78 98 18 -11 -18
0 -2 8 82 103 22 -9 -17
0 0 8 88 108 27 -6 -15
0 0 8 92 113 31 -3 -14
0 0 8 96 118 35 0 -13
1 1 7 100 122 39 2 -11
1 1 6 103 127 44 4 -10
1 2 6 107 132 47 6 -9
1 2 5 111 136 51 8 -8
1 2 5 114 140 55 10 -7
2 3 4 117 144 60 14 -5
2 4 4 121 148 65 18 -3
3 4 4 125 153 69 21 0
3 5 4 128 157 74 25 2
3 5 4 131 161 79 29 4
4 7 4 133 164 84 33 7
4 8 4 135 167 88 37 11
4 9 3 137 169 91 43 14
4 10 3 139 172 95 47 17
4 11 3 141 174 99 51 20
5 12 2 142 176 102 54 22
6 13 2 143 177 106 57 24
6 14 2 144 178 109 60 25
7 15 2 145 179 112 62 27
7 16 2 146 180 115 65 28
8 17 3 147 181 116 66 30
8 18 3 147 181 115 66 31
8 18 2 146 180 114 66 32
8 19 2 146 180 113 66 33
8 19 2 146 180 113 66 34
7 20 1 145 179 113 68 35
7 20 1 145 178 114 69 35
8 19 1 144 177 116 71 35
8 19 1 144 176 118 72 35
8 19 1 144 176 119 73 35
9 18 0 143 175 120 74 34
9 18 0 142 174 120 75 35
9 17 0 142 173 120 75 36
9 17 0 141 172 120 76 37
9 17 0 141 172 120 76 38
10 17 0 138 168 120 76 39
10 19 -2 135 163 119 75 39
11 21 -3 132 159 118 74 39
11 23 -4 130 155 117 73 39
11 25 -4 127 151 116 72 39
12 25 -4 120 145 110 68 37
11 24 0 114 138 104 65 36
10 22 2 107 132 98 61 35
9 21 4 101 125 92 58 34
8 20 6 94 117 86 54 33
7 18 8 87 109 78 50 29
6 17 9 78 100 70 45 26
5 16 10 71 91 63 39 22
4 15 12 63 81 55 35 19
3 14 13 56 72 48 30 15
2 12 14 50 65 42 26 13
1 10 13 45 59 36 22 12
1 8 13 39 53 30 18 11
0 6 12 34 47 25 14 9
0 4 12 29 39 19 10 8
-2 2 11 25 35 15 7 6
-2 1 10 22 30 10 4 4
-3 -2 10 18 25 5 1 2
-3 -4 9 15 21 1 -3 0
-3 -5 9 11 16 -5 -6 -3
-4 -6 8 9 13 -8 -8 -5
-3 -5 8 8 10 -11 -10 -6
-2 -5 8 7 8 -15 -12 -7
0 -4 8 5 5 -18 -14 -9
0 -4 8 4 2 -21 -16 -10
1 -3 8 1 1 -22 -17 -11
0 -4 8 -2 0 -23 -18 -12
-2 -5 7 -5 -2 -24 -18 -13
-3 -6 7 -7 -3 -25 -19 -14
-4 -7 7 -10 -3 -25 -19 -14
-5 -8 6 -12 -5 -28 -21 -16
-4 -8 6 -13 -6 -30 -22 -17
-3 -8 6 -15 -8 -33 -24 -18
-2 -8 6 -17 -10 -35 -26 -19
0 -8 6 -18 -11 -38 -27 -20
1 -9 6 -19 -12 -39 -28 -21
0 -9 5 -18 -12 -39 -28 -21
-2 -9 4 -17 -12 -39 -28 -21
-3 -9 3 -16 -12 -39 -28 -21
-3 -9 3 -15 -12 -39 -28 -21
-4 -9 2 -14 -11 -39 -29 -21
-3 -9 2 -14 -11 -40 -30 -21
-2 -10 2 -13 -11 -40 -30 -21
0 -10 2 -13 -11 -41 -31 -21
1 -10 2 -13 -11 -41 -31 -21
2 -11 3 -12 -11 -43 -32 -22
2 -11 2 -12 -9 -41 -31 -22
2 -12 2 -12 -8 -41 -30 -21
2 -12 1 -12 -7 -40 -29 -21
2 -12 1 -12 -6 -40 -28 -21
1 -13 0 -13 -5 -39 -27 -20
1 -13 0 -13 -4 -39 -27 -20
2 -13 0 -13 -3 -38 -27 -20
2 -13 0 -13 -2 -38 -27 -20
2 -13 0 -13 0 -38 -27 -20
3 -12 0 -5 10 -35 -27 -20
3 -12 0 4 23 -31 -28 -22
3 -11 1 13 35 -27 -29 -24
3 -11 1 22 48 -24 -30 -26
3 -11 1 31 60 -20 -31 -28
2 -9 2 46 85 -10 -34 -35
3 -7 3 62 112 4 -37 -43
3 -5 3 78 140 16 -39 -51
4 -3 4 95 168 28 -43 -58
4 0 4 110 194 40 -46 -66
9 11 -3 74 163 81 0 -36
14 25 -12 24 117 129 56 4
20 38 -21 -27 71 176 113 45
25 52 -30 -77 24 223 171 85
30 66 -39 -128 -22 270 228 125
32 78 -47 -187 -95 309 294 180
30 92 -54 -249 -175 347 361 238
29 104 -61 -312 -255 385 430 298
28 116 -68 -374 -335 423 497 356
27 129 -75 -436 -414 461 565 415
17 131 -77 -498 -508 375 505 404
6 129 -78 -561 -605 257 411 373
-7 126 -79 -622 -702 139 317 344
-19 123 -80 -685 -800 20 224 313
-30 121 -81 -746 -896 -98 130 283
-33 93 -76 -722 -879 -191 32 212
-31 57 -67 -674 -831 -278 -65 130
-30 21 -59 -626 -783 -365 -163 47
-29 -15 -51 -577 -736 -452 -261 -35
-28 -51 -41 -529 -688 -539 -359 -117
-26 -63 -33 -468 -617 -521 -361 -138
-23 -68 -26 -403 -541 -474 -338 -141
-21 -74 -18 -338 -465 -427 -314 -145
-18 -79 -11 -272 -389 -379 -290 -149
-16 -85 -3 -207 -312 -331 -267 -153
-14 -82 1 -171 -261 -291 -240 -144
-13 -77 3 -141 -216 -254 -213 -130
-11 -71 6 -112 -171 -216 -184 -116
-9 -66 8 -82 -127 -178 -156 -102
-8 -61 10 -54 -81 -140 -128 -88
-7 -54 10 -38 -58 -118 -111 -78
-6 -48 9 -27 -39 -100 -97 -69
-5 -40 7 -16 -21 -82 -82 -61
-4 -34 5 -5 -3 -65 -68 -52
-4 -27 4 7 16 -47 -54 -43
-3 -23 3 13 24 -38 -46 -37
-3 -20 4 17 30 -33 -39 -33
-3 -17 5 21 36 -27 -33 -29
-3 -13 6 25 42 -21 -28 -25
-3 -10 7 30 48 -16 -22 -20
-4 -9 9 31 50 -14 -20 -20
-4 -8 11 31 50 -14 -22 -22
-3 -8 13 30 50 -14 -23 -24
-3 -7 15 30 50 -14 -24 -26
-3 -7 17 30 50 -14 -25 -28
-2 -6 18 28 50 -15 -26 -29
-3 -7 18 26 49 -16 -26 -27
-4 -8 18 25 49 -16 -25 -26
-5 -9 18 23 48 -17 -25 -25
-5 -10 18 21 48 -17 -25 -24
-6 -11 18 20 47 -18 -24 -23
-7 -11 17 22 48 -16 -24 -24
-7 -11 16 23 49 -15 -24 -24
-8 -11 15 24 50 -14 -24 -25
-8 -11 14 25 50 -13 -24 -25
-9 -11 13 26 51 -12 -24 -26
-8 -10 12 25 52 -12 -24 -26
-7 -9 12 24 53 -12 -25 -27
-6 -8 11 23 54 -12 -25 -27
-5 -7 11 23 54 -12 -25 -27
-4 -6 10 24 57 -12 -26 -28
-5 -7 10 28 60 -11 -24 -28
-5 -8 10 31 63 -10 -23 -27
-6 -9 10 35 66 -8 -22 -27
-6 -9 10 39 69 -7 -21 -27
-7 -10 9 42 71 -6 -20 -26
-7 -8 8 45 73 -4 -20 -26
-6 -7 7 47 75 -3 -21 -27
-6 -6 6 50 77 -2 -21 -27
-6 -5 6 52 79 0 -21 -27
-5 -4 5 55 81 2 -22 -28
-5 -4 5 57 85 3 -21 -28
-5 -4 5 60 88 4 -20 -28
-5 -4 5 63 90 6 -19 -28
-5 -4 5 66 93 7 -18 -28
-4 -5 4 68 96 9 -17 -27
-4 -5 4 71 100 11 -15 -27
-4 -4 4 74 103 12 -14 -26
-4 -4 4 76 107 14 -13 -26
-4 -4 4 79 111 16 -12 -26
-4 -3 3 84 116 20 -9 -24
-4 -3 3 88 122 25 -6 -22
-3 -3 3 93 128 30 -3 -20
-3 -3 3 97 134 35 1 -18
-3 -3 3 101 140 40 4 -16
-2 -3 2 105 145 46 8 -13
0 -2 2 109 150 52 13 -11
0 0 2 112 155 57 17 -8
1 2 2 116 159 63 22 -5
1 3 2 120 164 68 26 -2
2 4 1 123 169 73 30 0
2 6 1 127 173 78 33 2
2 7 1 130 176 84 36 3
2 8 1 133 180 89 39 4
2 9 1 136 184 94 44 5
3 10 2 137 185 98 47 7
3 11 2 137 185 101 50 9
3 12 1 137 186 104 53 12
3 12 1 137 186 107 56 14
3 13 1 137 186 110 60 16
3 14 0 136 187 112 62 18
4 14 -2 136 187 114 64 20
4 14 -2 136 187 115 66 22
5 14 -3 136 187 117 68 25
5 14 -3 136 187 119 70 27
6 13 -4 137 187 120 71 29
6 12 -3 136 186 120 72 30
6 11 -3 136 185 120 73 31
6 11 -2 135 185 120 73 33
6 10 -2 135 184 120 74 34
6 9 0 134 183 120 75 35
6 9 0 133 181 120 75 34
6 10 -2 132 180 121 75 34
6 10 -2 131 179 121 75 33
6 10 -2 130 178 121 75 33
5 11 -3 127 174 121 75 32
5 11 -3 125 170 120 73 32
5 11 -3 121 165 118 72 32
5 11 -3 118 160 117 71 32
5 11 -3 115 156 115 70 32
5 11 -4 112 151 111 68 31
5 11 -4 108 145 106 66 31
6 11 -5 104 140 101 65 30
6 11 -5 100 134 96 63 30
6 11 -5 97 129 91 61 30
7 10 -6 93 121 85 57 28
7 9 -6 88 113 78 53 26
7 7 -6 84 105 72 49 24
7 6 -6 79 98 66 44 22
7 4 -6 75 90 59 39 20
6 3 -7 71 84 54 35 18
6 3 -8 67 77 49 32 17
6 3 -8 63 71 45 29 15
6 3 -9 59 66 39 26 14
6 3 -9 55 60 34 22 12
7 2 -10 51 55 29 19 10
6 2 -9 46 50 24 16 7
5 2 -8 42 44 19 13 5
5 2 -8 37 38 14 10 3
4 2 -7 33 33 9 6 0
3 0 -5 28 28 4 3 -2
1 -3 -3 23 23 0 0 -3
0 -5 0 18 18 -6 -5 -4
-2 -7 3 13 13 -10 -8 -5
-3 -9 5 8 8 -15 -11 -6
-4 -10 6 4 5 -18 -13 -8
-4 -10 7 1 2 -21 -15 -9
-4 -10 7 -3 0 -24 -16 -11
-4 -10 8 -6 -3 -27 -17 -12
-4 -10 8 -9 -6 -30 -18 -14
-5 -11 9 -10 -7 -31 -20 -15
-4 -10 8 -10 -8 -32 -21 -16
-3 -9 7 -10 -8 -33 -23 -17
-2 -9 6 -10 -9 -33 -24 -18
0 -8 5 -10 -9 -34 -26 -19
1 -8 4 -11 -10 -35 -27 -20
-2 -11 4 -10 -10 -36 -27 -20
-3 -14 4 -9 -10 -37 -26 -19
-4 -17 4 -9 -10 -37 -26 -19
-5 -20 4 -8 -10 -38 -26 -19
-5 -19 4 -7 -10 -39 -25 -18
-3 -16 3 -7 -10 -40 -27 -20
-2 -13 2 -8 -10 -41 -28 -21
1 -10 1 -8 -10 -41 -29 -22
3 -7 0 -8 -10 -43 -30 -23
4 -6 -2 -9 -11 -44 -31 -24
2 -8 0 -11 -11 -44 -31 -23
1 -9 0 -12 -10 -43 -31 -22
0 -11 1 -14 -10 -43 -31 -22
-2 -13 1 -15 -10 -43 -31 -21
-3 -14 2 -16 -9 -41 -30 -20
-3 -13 0 -16 -9 -40 -29 -20
-3 -12 -2 -17 -8 -39 -28 -20
-3 -12 -4 -17 -8 -38 -27 -20
-3 -11 -5 -17 -8 -37 -26 -20
-2 -10 -6 -18 -7 -36 -25 -19
-2 -10 -7 -19 -7 -36 -26 -19
-2 -10 -7 -20 -8 -36 -26 -20
-2 -10 -8 -20 -8 -36 -27 -20
-2 -10 -8 -21 -8 -36 -27 -20
-3 -9 -9 -15 6 -33 -29 -22
-3 -9 -9 -3 28 -27 -31 -25
-2 -9 -9 9 52 -20 -33 -28
0 -9 -9 21 74 -14 -35 -31
0 -9 -9 33 97 -8 -37 -34
2 -5 -8 46 113 6 -36 -37
5 2 -8 58 127 21 -32 -40
8 8 -9 70 140 36 -28 -43
11 14 -10 84 153 53 -24 -46
14 20 -10 96 167 68 -20 -49
18 30 -16 64 136 110 28 -17
22 40 -23 8 79 165 100 35
26 52 -31 -48 23 221 172 87
29 63 -39 -104 -33 277 243 138
33 74 -48 -160 -89 332 315 189
33 87 -55 -222 -166 359 364 237
28 101 -62 -286 -256 370 402 282
24 115 -69 -350 -345 382 440 328
19 129 -75 -414 -434 393 477 375
15 143 -82 -479 -523 405 515 421
8 143 -85 -533 -607 322 454 404
-3 134 -83 -583 -687 187 340 353
-12 125 -81 -633 -768 53 226 303
-21 115 -80 -683 -849 -82 111 252
-30 106 -78 -732 -930 -218 -4 200
-33 79 -72 -711 -913 -301 -89 137
-31 45 -64 -648 -843 -354 -159 66
-29 10 -56 -586 -773 -408 -229 -5
-27 -26 -48 -523 -702 -463 -299 -76
-25 -61 -38 -461 -632 -517 -368 -147
-23 -76 -31 -401 -561 -505 -374 -169
-22 -79 -23 -344 -490 -454 -342 -161
-20 -82 -15 -286 -420 -404 -310 -154
-19 -86 -7 -228 -349 -354 -278 -146
-17 -89 2 -171 -279 -303 -246 -139
-15 -87 5 -135 -229 -264 -219 -128
-12 -79 5 -110 -190 -230 -194 -115
-10 -72 5 -87 -151 -197 -170 -102
-7 -65 5 -62 -113 -163 -145 -90
-4 -58 5 -38 -74 -130 -119 -76
-3 -51 5 -24 -51 -109 -103 -66
-3 -45 5 -15 -36 -95 -91 -58
-3 -38 5 -6 -22 -81 -78 -50
-3 -31 5 3 -7 -67 -66 -41
-3 -25 5 12 8 -54 -54 -33
-3 -21 6 18 16 -46 -48 -30
-2 -19 5 23 20 -41 -45 -29
0 -17 4 28 25 -37 -41 -27
1 -15 4 32 29 -33 -38 -26
2 -12 3 37 33 -29 -36 -25
3 -11 2 39 36 -27 -34 -24
3 -11 2 42 39 -25 -33 -23
3 -11 1 44 42 -24 -31 -22
3 -11 1 45 45 -22 -30 -21
3 -11 1 47 48 -21 -29 -20
2 -12 0 48 49 -20 -28 -19
2 -11 1 48 49 -20 -28 -20
2 -10 2 47 49 -20 -27 -21
2 -9 3 46 49 -20 -26 -22
2 -8 4 46 49 -20 -26 -23
2 -7 6 44 49 -19 -25 -24
1 -8 8 40 48 -21 -27 -25
0 -9 11 38 47 -22 -28 -26
-2 -10 13 35 47 -24 -30 -26
-3 -11 16 33 46 -25 -31 -27
-4 -12 17 31 45 -26 -32 -28
-4 -13 17 31 46 -25 -32 -28
-5 -14 18 32 48 -24 -31 -28
-5 -15 18 32 49 -23 -31 -28
-5 -16 18 32 50 -22 -31 -28
-6 -17 19 35 52 -21 -30 -29
-6 -16 19 39 54 -21 -30 -29
-6 -14 18 44 56 -20 -30 -29
-6 -13 17 48 58 -20 -30 -29
-6 -12 17 52 60 -20 -30 -29
-5 -11 16 55 62 -18 -31 -29
-5 -11 16 58 65 -17 -29 -29
-5 -11 15 61 67 -15 -27 -29
-5 -11 15 64 70 -13 -26 -29
-5 -11 15 67 72 -11 -24 -29
-4 -11 14 71 76 -10 -23 -30
-4 -11 14 74 80 -8 -22 -29
-3 -10 14 78 84 -6 -21 -28
-3 -9 14 81 88 -5 -21 -28
-3 -9 14 86 92 -3 -20 -27
-2 -8 13 88 95 -2 -19 -26
-2 -8 13 89 98 1 -19 -26
-2 -8 13 90 101 3 -18 -26
-2 -8 13 90 104 4 -17 -26
-2 -8 13 91 107 6 -17 -26
-3 -8 13 95 111 9 -16 -25
-2 -8 12 100 116 12 -15 -25
0 -7 11 105 121 16 -13 -24
0 -7 11 110 127 19 -12 -23
1 -7 10 115 132 23 -11 -23
2 -6 9 119 137 27 -9 -22
2 -6 9 123 141 31 -5 -20
2 -6 9 127 144 35 -2 -19
2 -6 9 130 148 40 3 -17
2 -6 9 133 152 45 6 -16
2 -6 8 136 155 49 10 -14
2 -5 8 140 159 54 13 -12
2 -3 7 143 162 58 17 -10
2 -2 7 147 167 63 20 -8
2 0 7 150 170 68 24 -5
2 1 6 152 172 70 27 -3
4 2 6 152 172 72 30 1
5 3 6 152 172 73 32 3
7 3 6 152 172 75 35 6
8 4 6 152 172 76 37 8
9 5 7 153 173 78 39 10
9 5 7 153 173 80 42 10
9 5 6 154 174 82 43 11
9 5 6 154 175 85 45 12
9 5 6 154 175 87 46 12
9 6 5 155 176 88 47 13
9 6 5 154 174 88 47 13
8 6 4 153 173 89 47 13
7 6 4 152 172 90 47 13
7 6 4 151 170 90 47 13
6 6 3 150 169 91 48 14
6 6 3 150 169 91 48 15
7 6 4 149 168 92 49 16
7 6 5 148 167 92 49 16
7 6 5 148 167 92 49 17
8 7 6 145 163 93 50 18
8 7 5 141 158 92 50 18
8 6 4 137 153 91 50 19
8 5 4 133 148 91 50 19
8 5 3 129 144 90 50 19
8 4 2 125 138 87 49 20
8 4 2 121 132 84 48 20
9 4 2 117 127 79 46 20
9 4 2 113 120 76 45 20
9 4 2 109 114 72 44 20
10 3 1 104 107 68 40 19
10 3 1 99 99 62 37 18
10 3 1 93 92 57 33 17
10 3 1 88 84 52 30 16
10 3 1 81 75 47 26 15
9 2 1 76 68 40 22 13
9 0 1 72 62 35 19 11
9 -3 1 67 56 29 15 9
9 -4 1 63 49 23 11 7
9 -6 1 58 43 17 7 5
8 -7 0 55 37 12 5 4
8 -7 0 53 32 8 3 2
7 -8 1 50 27 3 1 0
7 -9 2 48 22 -2 -2 -3
7 -9 2 46 18 -6 -4 -5
6 -10 3 44 15 -10 -5 -6
6 -10 3 43 13 -12 -7 -7
6 -10 2 42 11 -14 -9 -8
6 -10 1 40 10 -16 -11 -8
6 -10 1 39 8 -18 -13 -9
7 -11 0 37 7 -21 -15 -10
7 -11 0 33 5 -23 -17 -12
6 -11 1 30 3 -25 -20 -14
5 -11 2 26 1 -27 -22 -15
5 -11 2 23 -2 -29 -24 -17
4 -11 4 20 -3 -31 -26 -18
4 -11 6 18 -5 -33 -27 -18
3 -12 8 16 -7 -35 -28 -19
3 -13 10 14 -8 -37 -28 -19
3 -13 12 12 -10 -39 -29 -19
2 -14 14 11 -11 -41 -30 -20
2 -14 14 11 -12 -44 -30 -20
1 -14 14 10 -13 -46 -31 -21
1 -14 14 10 -14 -47 -32 -22
1 -14 14 10 -15 -49 -32 -22
0 -14 14 9 -16 -50 -33 -23
0 -14 14 9 -16 -50 -33 -24
0 -13 13 8 -15 -50 -34 -25
0 -12 13 8 -15 -50 -34 -25
0 -12 13 8 -15 -50 -34 -26
-2 -11 12 7 -14 -51 -35 -27
-2 -13 12 5 -14 -51 -35 -27
-2 -14 11 3 -15 -52 -36 -27
-2 -15 11 1 -15 -53 -37 -27
-2 -17 11 -2 -15 -53 -37 -27
0 -18 10 -3 -16 -54 -38 -27
0 -17 10 -3 -14 -53 -38 -27
0 -15 9 -3 -13 -52 -37 -27
0 -14 9 -3 -12 -51 -36 -27
0 -13 9 -3 -10 -50 -36 -27
-2 -12 8 -2 -9 -49 -35 -27
-2 -12 8 -4 -9 -49 -35 -27
-3 -11 8 -6 -9 -48 -34 -27
-3 -10 8 -7 -9 -48 -34 -27
-3 -10 8 -9 -9 -48 -34 -27
-4 -9 8 -10 -10 -47 -33 -26
-4 -9 7 -10 -10 -46 -33 -26
-3 -9 5 -9 -10 -45 -32 -26
-2 -9 4 -9 -10 -45 -31 -26
-2 -9 3 -9 -10 -44 -31 -26
0 -8 2 -8 -10 -43 -30 -25
0 -9 2 -9 -10 -41 -29 -24
0 -10 1 -11 -11 -40 -28 -23
0 -11 1 -12 -11 -40 -28 -22
0 -12 1 -13 -11 -39 -27 -21
-2 -13 0 -14 -12 -38 -26 -20
1 -13 0 -12 -11 -36 -24 -20
2 -12 0 -11 -10 -35 -22 -19
3 -11 0 -10 -10 -34 -20 -18
5 -11 0 -8 -9 -32 -18 -18
6 -10 0 -7 -8 -31 -17 -17
6 -10 0 -6 -8 -31 -17 -17
6 -10 0 -5 -8 -31 -17 -17
6 -10 0 -4 -8 -30 -17 -17
6 -10 0 -3 -8 -30 -17 -17
6 -10 -2 9 6 -27 -21 -21
6 -9 1 31 34 -23 -28 -29
6 -8 3 53 63 -19 -35 -36
6 -6 5 75 93 -15 -43 -45
6 -5 7 98 121 -11 -50 -53
7 0 7 106 137 3 -48 -54
11 6 5 100 137 25 -34 -48
15 12 3 93 137 48 -21 -41
19 19 1 86 136 70 -7 -34
23 25 -2 79 136 92 7 -28
27 34 -8 45 107 136 56 6
31 46 -18 -20 51 202 144 69
35 57 -28 -85 -7 269 231 132
39 69 -38 -149 -63 336 318 195
44 80 -49 -214 -120 402 406 258
44 94 -58 -280 -195 433 460 305
35 108 -64 -348 -288 425 476 336
28 123 -71 -416 -382 417 493 366
20 138 -77 -484 -476 407 510 398
12 153 -85 -553 -569 399 527 429
4 150 -88 -600 -642 328 477 415
-6 127 -85 -626 -691 190 352 351
-14 103 -82 -651 -740 53 228 287
-23 79 -79 -677 -790 -86 103 223
-32 56 -76 -702 -840 -223 -22 159
-36 31 -69 -680 -830 -311 -112 96
-32 7 -59 -603 -755 -346 -166 33
-29 -19 -48 -527 -679 -381 -220 -29
-26 -44 -37 -450 -603 -414 -273 -93
-22 -69 -26 -374 -528 -449 -326 -155
-20 -82 -18 -312 -461 -447 -341 -184
-18 -85 -12 -267 -403 -402 -310 -173
-16 -86 -7 -221 -346 -357 -279 -161
-14 -88 0 -175 -288 -313 -248 -150
-12 -90 6 -129 -231 -268 -218 -138
-11 -88 9 -95 -186 -231 -192 -127
-11 -78 9 -74 -153 -202 -171 -114
-10 -70 9 -55 -121 -175 -150 -102
-9 -62 10 -34 -90 -147 -129 -91
-9 -54 10 -14 -57 -118 -108 -78
-8 -47 11 1 -34 -99 -92 -69
-7 -41 10 10 -23 -88 -82 -63
-6 -35 9 19 -11 -77 -73 -57
-4 -30 7 27 2 -66 -64 -51
-3 -24 6 36 13 -56 -55 -46
-2 -21 5 43 21 -49 -50 -41
-2 -20 5 46 23 -47 -48 -40
-2 -20 4 48 25 -44 -47 -40
-3 -19 3 51 27 -41 -46 -39
-3 -18 3 54 29 -38 -44 -38
-4 -17 2 56 31 -36 -43 -37
-4 -15 4 57 33 -36 -43 -37
-4 -14 6 58 34 -36 -41 -37
-4 -13 8 59 36 -35 -40 -37
-4 -11 10 60 38 -35 -40 -37
-3 -10 12 61 39 -34 -39 -37
-4 -12 15 58 38 -35 -39 -37
-5 -13 17 56 37 -35 -40 -37
-7 -15 20 54 36 -36 -41 -37
-8 -17 23 52 35 -37 -41 -37
-9 -18 25 50 34 -38 -43 -36
-9 -16 23 50 36 -37 -43 -37
-8 -15 22 50 37 -36 -43 -37
-7 -14 20 50 38 -35 -43 -38
-7 -12 18 50 40 -34 -43 -39
-6 -11 17 51 42 -33 -44 -40
-6 -11 17 54 44 -32 -43 -40
-6 -11 17 56 45 -31 -41 -40
-6 -12 18 59 47 -30 -40 -40
-6 -12 18 62 49 -29 -39 -40
-6 -13 19 65 51 -28 -38 -39
-6 -13 19 68 53 -28 -38 -38
-6 -13 19 72 56 -28 -38 -38
-7 -13 18 75 58 -27 -38 -37
-7 -13 18 79 61 -27 -38 -36
-8 -13 17 81 63 -26 -38 -35
-8 -13 17 85 65 -24 -38 -35
-8 -13 17 87 67 -22 -38 -35
-7 -12 17 89 69 -20 -37 -36
-7 -12 17 91 71 -19 -37 -36
-6 -11 16 94 74 -17 -36 -37
-6 -11 16 96 77 -16 -35 -37
-6 -11 15 98 79 -15 -34 -37
-6 -10 14 101 82 -14 -33 -36
-6 -10 14 103 86 -13 -32 -36
