I II V1 V2 V3 V4 V5 V6
10 19 4 0 6 3 1 0
9 18 4 -2 5 2 1 0
8 16 4 -3 4 1 0 0
6 14 3 -5 2 -2 -2 -2
5 12 3 -6 1 -3 -3 -2
4 11 3 -7 0 -4 -4 -2
3 10 2 -8 -2 -5 -5 -3
3 10 2 -8 -2 -6 -5 -3
3 11 2 -9 -3 -6 -6 -4
3 11 2 -9 -3 -7 -6 -4
3 11 2 -9 -3 -7 -6 -4
4 12 1 -10 -4 -8 -7 -5
4 11 1 -10 -4 -8 -7 -5
4 10 2 -10 -4 -8 -7 -5
4 9 2 -10 -4 -8 -7 -5
4 8 2 -10 -4 -8 -7 -5
5 8 3 -10 -4 -9 -8 -6
4 9 3 -10 -4 -9 -8 -6
3 10 3 -10 -4 -9 -8 -6
2 11 3 -10 -4 -9 -8 -6
2 12 3 -10 -4 -9 -8 -6
1 13 3 -10 -3 -10 -9 -5
2 12 3 -10 -3 -10 -9 -5
2 11 2 -10 -3 -10 -9 -5
3 10 2 -10 -3 -10 -9 -5
3 10 2 -10 -3 -10 -9 -5
4 10 1 -10 -4 -11 -9 -6
4 12 2 -9 -3 -10 -8 -5
4 13 3 -9 -3 -10 -8 -4
4 15 4 -8 -2 -9 -7 -3
4 16 5 -8 -2 -9 -7 -3
5 17 6 -7 0 -8 -6 -2
5 16 5 -7 0 -8 -6 -2
5 16 4 -8 0 -8 -7 -2
5 15 3 -8 0 -8 -7 -2
5 15 3 -8 0 -8 -7 -2
5 14 2 -9 0 -8 -8 -3
5 14 2 -9 0 -8 -8 -3
6 14 2 -9 0 -8 -8 -2
6 14 2 -9 0 -8 -8 -2
6 14 2 -9 0 -8 -8 -2
7 15 1 -10 -2 -7 -7 0
7 15 1 -9 0 -6 -6 0
6 15 2 -8 1 -5 -5 1
6 15 2 -7 2 -4 -4 1
6 15 2 -7 2 -4 -3 1
4 14 3 -6 3 -3 -2 2
3 13 2 -7 2 -4 -3 1
2 12 2 -8 2 -4 -3 0
1 11 1 -9 1 -5 -4 -2
0 10 1 -9 1 -5 -4 -2
0 9 0 -10 0 -6 -5 -3
1 10 0 -10 0 -6 -5 -3
2 10 0 -9 0 -5 -4 -2
3 11 0 -9 0 -5 -4 -2
4 11 0 -9 0 -5 -4 -2
4 12 0 -8 0 -4 -3 0
3 12 0 -8 0 -4 -3 0
1 12 0 -9 0 -4 -3 0
0 12 0 -9 0 -4 -3 0
-2 12 0 -9 0 -4 -3 0
0 12 -2 -10 0 -3 -3 1
3 13 -2 -10 0 -3 -3 1
5 15 -2 -10 0 -4 -3 1
8 16 -2 -10 0 -4 -3 1
10 17 -2 -10 0 -4 -3 1
10 18 -2 -10 -2 -5 -3 0
8 17 -2 -10 -2 -5 -3 0
6 16 -2 -10 -3 -5 -3 0
4 15 -2 -10 -3 -5 -3 0
3 14 -2 -10 -3 -5 -3 0
2 13 -2 -11 -4 -5 -3 1
3 13 -2 -11 -4 -5 -3 1
3 13 -3 -11 -5 -6 -3 1
4 13 -3 -11 -5 -6 -3 1
4 13 -3 -11 -5 -6 -3 1
5 13 -4 -12 -6 -7 -4 0
5 14 -4 -12 -6 -7 -4 0
5 14 -3 -12 -6 -7 -4 0
5 15 -3 -12 -6 -7 -4 0
5 15 -3 -12 -6 -7 -4 0
6 16 -2 -12 -6 -7 -5 -2
5 15 -2 -13 -6 -7 -5 -2
4 14 -3 -13 -6 -8 -5 -2
3 13 -3 -14 -6 -8 -5 -2
2 13 -3 -14 -6 -8 -5 -2
1 12 -4 -15 -7 -9 -6 0
1 12 -4 -15 -8 -10 -6 0
1 11 -5 -15 -8 -10 -6 0
1 11 -5 -15 -9 -11 -6 0
1 11 -5 -15 -9 -11 -6 0
1 10 -6 -16 -10 -12 -7 -2
1 10 -6 -16 -10 -12 -7 -2
1 9 -6 -16 -10 -12 -8 -2
1 9 -6 -16 -10 -12 -8 -2
1 9 -6 -16 -10 -12 -8 -2
1 8 -5 -17 -11 -12 -9 -3
1 8 -5 -17 -11 -12 -9 -3
0 7 -5 -17 -11 -12 -9 -3
0 7 -5 -17 -11 -12 -9 -3
0 7 -5 -17 -11 -12 -9 -3
0 6 -5 -18 -12 -13 -9 -4
1 7 -5 -18 -12 -13 -9 -4
3 8 -5 -18 -12 -13 -9 -4
4 9 -5 -18 -12 -13 -9 -4
5 9 -5 -18 -12 -13 -9 -4
6 10 -6 -18 -12 -14 -10 -5
5 9 -6 -18 -12 -14 -10 -5
4 8 -5 -18 -12 -14 -10 -4
3 7 -5 -18 -12 -14 -10 -4
2 7 -5 -18 -12 -14 -10 -4
1 6 -4 -17 -12 -14 -10 -3
1 7 -4 -17 -12 -14 -10 -3
2 7 -4 -17 -12 -14 -9 -3
2 8 -4 -17 -12 -14 -9 -3
2 8 -4 -17 -12 -14 -9 -3
3 9 -4 -17 -11 -13 -8 -2
3 9 -4 -17 -12 -14 -9 -3
3 9 -5 -18 -12 -14 -10 -3
3 9 -5 -18 -13 -15 -11 -4
3 9 -5 -18 -13 -15 -11 -4
3 10 -6 -19 -14 -16 -12 -5
2 9 -6 -19 -14 -16 -12 -5
1 8 -6 -19 -14 -16 -12 -5
0 7 -6 -19 -14 -16 -12 -5
0 7 -6 -19 -14 -16 -12 -5
-2 6 -6 -19 -14 -16 -12 -6
-2 7 -6 -19 -14 -16 -12 -6
0 7 -6 -19 -14 -16 -12 -6
0 8 -6 -19 -14 -16 -12 -6
0 8 -6 -19 -14 -16 -12 -6
1 9 -7 -20 -15 -17 -13 -7
1 9 -7 -20 -15 -17 -13 -7
0 8 -7 -20 -15 -17 -13 -7
0 8 -7 -20 -15 -17 -13 -7
0 8 -7 -20 -15 -17 -13 -7
-2 7 -7 -21 -15 -18 -13 -7
-2 7 -7 -21 -15 -18 -13 -7
0 7 -7 -22 -15 -18 -13 -7
0 7 -7 -22 -15 -18 -13 -7
0 7 -7 -22 -15 -18 -13 -7
1 7 -7 -23 -16 -18 -14 -8
1 7 -7 -23 -16 -18 -14 -8
1 7 -7 -22 -16 -18 -13 -7
1 7 -7 -22 -16 -18 -13 -7
1 7 -7 -22 -16 -18 -13 -7
0 8 -6 -21 -15 -17 -12 -6
0 7 -7 -22 -16 -18 -13 -7
0 7 -7 -22 -17 -18 -13 -8
0 6 -8 -23 -18 -19 -14 -9
0 6 -8 -23 -18 -19 -14 -9
1 5 -9 -24 -19 -20 -15 -10
0 5 -9 -24 -19 -19 -14 -9
-2 5 -9 -23 -19 -19 -14 -8
-3 5 -9 -23 -19 -18 -13 -7
-4 5 -9 -23 -19 -18 -13 -6
-4 6 -8 -22 -18 -17 -12 -5
-3 6 -8 -22 -18 -17 -12 -6
0 6 -7 -22 -18 -18 -12 -6
1 6 -7 -22 -18 -18 -12 -7
2 6 -7 -22 -18 -18 -12 -7
2 7 -6 -22 -17 -19 -13 -8
1 6 -6 -22 -17 -19 -13 -8
-2 5 -6 -22 -17 -19 -14 -8
-4 4 -6 -22 -17 -19 -14 -8
-5 4 -6 -22 -17 -19 -14 -8
-5 4 -7 -22 -17 -19 -15 -9
-4 5 -7 -22 -17 -19 -15 -9
-2 6 -7 -22 -17 -19 -15 -9
0 7 -7 -22 -17 -19 -15 -9
1 8 -7 -22 -17 -19 -15 -9
1 8 -8 -23 -18 -19 -15 -10
-2 6 -8 -24 -19 -19 -16 -10
-4 4 -9 -24 -19 -20 -16 -10
-6 3 -9 -25 -20 -20 -17 -10
-8 1 -9 -25 -20 -20 -17 -10
-8 1 -10 -26 -21 -21 -18 -11
-7 2 -9 -25 -20 -21 -17 -10
-5 4 -8 -24 -20 -21 -16 -9
-3 6 -7 -23 -19 -21 -15 -8
-2 7 -7 -22 -19 -21 -15 -8
0 8 -6 -21 -18 -20 -14 -7
0 8 -6 -22 -18 -20 -14 -7
1 8 -7 -22 -19 -20 -14 -7
1 8 -7 -23 -19 -20 -14 -7
1 8 -7 -23 -19 -20 -14 -7
2 7 -8 -24 -20 -19 -15 -8
1 6 -8 -24 -20 -19 -16 -9
0 6 -8 -24 -21 -20 -17 -10
-2 5 -8 -24 -21 -20 -18 -11
-2 5 -8 -24 -21 -20 -18 -11
-3 4 -9 -25 -22 -21 -19 -12
-3 4 -9 -25 -21 -21 -18 -11
-3 4 -8 -24 -21 -21 -17 -11
-3 4 -8 -24 -20 -21 -16 -10
-3 4 -8 -24 -20 -21 -16 -10
-2 3 -7 -23 -19 -20 -15 -9
-3 3 -7 -22 -19 -20 -15 -9
-4 2 -6 -22 -18 -19 -15 -8
-5 2 -6 -21 -18 -19 -15 -8
-5 2 -6 -21 -18 -19 -15 -8
-5 2 -4 -19 -16 -17 -13 -7
-4 5 -2 -17 -13 -15 -12 -6
-3 7 1 -15 -11 -13 -10 -5
-2 9 2 -13 -9 -12 -8 -4
0 11 4 -11 -7 -10 -7 -4
1 12 5 -10 -6 -9 -6 -3
1 12 5 -9 -6 -9 -6 -3
2 12 5 -9 -5 -8 -6 -3
2 12 5 -8 -5 -8 -6 -3
2 12 5 -8 -5 -8 -6 -3
3 12 6 -7 -4 -7 -6 -2
3 11 6 -7 -4 -6 -5 -2
3 10 6 -7 -4 -6 -5 -2
3 9 6 -7 -4 -5 -4 -2
3 9 6 -7 -4 -5 -4 -2
4 8 4 -7 -4 -4 -3 0
5 10 0 -8 -5 -5 -3 1
5 11 -4 -9 -6 -5 -3 2
6 12 -8 -10 -8 -6 -3 3
6 13 -11 -11 -9 -6 -3 3
7 14 -13 -14 -11 -8 -2 4
7 13 -15 -17 -14 -10 -4 3
7 12 -17 -21 -16 -12 -5 3
7 11 -18 -24 -19 -14 -6 2
7 11 -20 -27 -21 -16 -7 2
8 10 -21 -28 -22 -17 -8 1
8 10 -20 -28 -23 -17 -9 1
8 9 -20 -28 -23 -18 -9 0
8 9 -19 -28 -24 -18 -10 0
8 9 -19 -28 -24 -18 -10 0
7 8 -18 -28 -25 -19 -11 -2
6 7 -18 -28 -25 -19 -11 -2
6 6 -18 -28 -25 -19 -11 -2
5 5 -18 -28 -25 -19 -11 -2
5 5 -18 -28 -25 -19 -11 -2
4 4 -17 -28 -25 -20 -10 0
3 3 -17 -28 -25 -20 -10 0
2 3 -17 -28 -25 -19 -10 -2
1 2 -17 -28 -25 -19 -10 -2
0 2 -17 -28 -25 -19 -10 -2
-2 1 -16 -27 -26 -18 -10 -3
-2 2 -15 -27 -26 -18 -11 -4
-2 2 -15 -27 -26 -19 -11 -5
-2 3 -14 -27 -26 -19 -12 -6
-2 3 -14 -27 -26 -19 -12 -6
-3 2 -13 -27 -26 -21 -14 -8
-5 -3 -14 -29 -28 -23 -16 -10
-7 -6 -15 -31 -30 -26 -19 -12
-9 -9 -16 -32 -32 -28 -21 -13
-11 -13 -17 -34 -34 -30 -23 -15
-12 -14 -18 -35 -35 -31 -24 -16
-12 -13 -18 -35 -35 -31 -24 -16
-12 -12 -17 -34 -35 -30 -23 -16
-12 -11 -17 -34 -35 -30 -23 -16
-12 -11 -17 -34 -35 -30 -23 -16
-13 -10 -16 -33 -34 -29 -22 -15
-13 -10 -16 -33 -34 -29 -22 -15
-13 -10 -15 -32 -34 -29 -22 -15
-13 -10 -15 -32 -34 -29 -22 -15
-13 -10 -15 -32 -34 -29 -22 -15
-12 -9 -14 -31 -33 -29 -22 -16
-12 -9 -14 -31 -33 -29 -22 -16
-13 -10 -14 -31 -33 -29 -22 -16
-13 -10 -14 -31 -33 -29 -22 -16
-13 -10 -14 -31 -33 -29 -22 -16
-14 -11 -14 -32 -33 -30 -23 -16
-14 -11 -14 -31 -32 -29 -23 -16
-14 -10 -13 -31 -32 -29 -22 -16
-14 -10 -13 -30 -31 -28 -22 -16
-14 -10 -13 -30 -31 -28 -22 -16
-14 -9 -12 -29 -30 -27 -21 -15
-14 -8 -12 -29 -30 -27 -20 -15
-15 -7 -12 -30 -30 -27 -20 -15
-15 -6 -12 -30 -30 -27 -19 -15
-15 -6 -12 -30 -30 -27 -19 -15
-16 -5 -10 -27 -27 -23 -16 -14
-16 -4 -5 -22 -20 -19 -14 -13
-16 -4 0 -17 -14 -15 -11 -12
-16 -3 5 -11 -8 -11 -9 -11
-16 -3 9 -6 -2 -6 -6 -10
-11 0 11 3 13 19 17 4
-5 3 10 12 28 50 46 19
3 5 9 21 45 81 74 35
9 8 8 30 60 112 102 51
16 10 8 39 76 144 131 67
27 10 7 57 97 180 161 84
40 8 7 75 119 217 192 101
54 5 7 95 142 255 223 117
67 3 7 114 164 292 254 135
80 1 7 133 186 329 284 152
80 -13 13 137 187 307 256 137
75 -29 21 135 180 265 206 111
70 -46 28 134 173 223 158 86
65 -62 35 132 165 181 109 60
60 -79 44 130 158 139 61 33
43 -87 49 112 135 90 15 7
22 -91 53 91 106 38 -30 -21
2 -95 58 68 77 -13 -75 -50
-19 -99 62 47 48 -64 -120 -77
-40 -103 66 25 19 -115 -165 -105
-47 -105 76 29 12 -129 -173 -113
-50 -105 88 43 14 -130 -166 -114
-53 -104 99 56 15 -131 -161 -116
-55 -104 111 70 16 -132 -155 -118
-58 -104 122 84 17 -132 -149 -119
-59 -98 129 80 14 -130 -144 -117
-59 -92 134 70 8 -124 -139 -112
-59 -85 138 60 2 -119 -135 -107
-59 -77 143 50 -5 -114 -130 -102
-59 -70 147 39 -11 -110 -126 -98
-60 -66 149 26 -19 -108 -120 -94
-61 -62 148 13 -27 -107 -116 -90
-63 -58 147 0 -34 -106 -112 -87
-64 -54 146 -15 -43 -106 -108 -82
-66 -50 145 -28 -51 -105 -104 -78
-67 -49 145 -33 -53 -102 -101 -76
-68 -49 148 -34 -52 -99 -98 -74
-69 -48 150 -35 -50 -96 -95 -73
-69 -48 152 -37 -49 -93 -93 -71
-70 -48 155 -38 -47 -90 -90 -69
-71 -47 153 -41 -48 -89 -88 -67
-70 -48 148 -46 -52 -88 -87 -66
-70 -48 143 -50 -56 -88 -85 -65
-69 -49 138 -54 -60 -87 -83 -63
-69 -49 133 -58 -64 -87 -81 -62
-66 -49 126 -57 -65 -83 -78 -60
-64 -48 119 -55 -63 -80 -75 -57
-61 -46 112 -52 -61 -77 -72 -54
-58 -45 105 -49 -59 -74 -69 -52
-55 -43 98 -46 -57 -70 -65 -49
-51 -39 88 -45 -55 -66 -61 -46
-47 -36 74 -43 -54 -62 -57 -41
-41 -33 62 -41 -53 -57 -52 -37
-37 -30 50 -40 -51 -52 -47 -33
-33 -27 37 -39 -50 -48 -43 -30
-28 -24 30 -36 -46 -43 -38 -26
-24 -20 26 -32 -39 -38 -34 -23
-19 -16 21 -28 -34 -33 -30 -20
-15 -12 17 -24 -28 -28 -26 -17
-11 -9 13 -20 -23 -24 -23 -13
-9 -7 10 -18 -21 -22 -21 -12
-9 -7 9 -17 -20 -20 -20 -12
-9 -8 7 -16 -19 -19 -19 -12
-9 -8 6 -16 -19 -18 -19 -12
-9 -8 4 -15 -18 -17 -18 -12
-9 -8 3 -14 -17 -16 -17 -11
-7 -6 3 -13 -16 -15 -16 -10
-6 -5 2 -12 -15 -14 -16 -10
-5 -3 2 -11 -14 -13 -15 -9
-4 0 2 -10 -13 -12 -15 -9
-3 1 1 -9 -12 -10 -14 -8
-3 1 0 -8 -10 -8 -12 -7
-2 2 -2 -8 -9 -6 -11 -6
-2 2 -2 -7 -8 -4 -10 -6
-2 2 -3 -7 -7 -2 -9 -5
0 3 -4 -6 -6 0 -8 -4
0 2 -5 -5 -6 0 -8 -4
0 2 -5 -5 -6 0 -8 -4
0 1 -6 -4 -6 0 -8 -4
0 1 -6 -4 -6 0 -8 -4
0 0 -7 -3 -7 0 -7 -5
1 1 -7 -2 -6 1 -6 -4
1 2 -8 -2 -5 2 -5 -4
2 3 -8 0 -4 3 -5 -3
2 4 -8 0 -3 4 -4 -3
3 5 -9 1 -2 5 -3 -2
3 5 -9 1 -2 5 -3 -2
3 5 -9 2 -2 5 -3 -2
3 5 -9 2 -2 5 -3 -2
3 5 -9 2 -2 5 -3 -2
4 6 -9 3 0 5 -4 0
4 6 -9 3 1 6 -3 0
5 6 -9 4 1 7 -3 0
5 6 -9 4 2 7 -2 0
5 6 -9 4 2 8 -2 0
6 6 -9 5 3 9 0 1
6 6 -10 5 4 9 0 1
6 5 -10 6 4 10 0 2
6 5 -11 6 5 10 0 2
6 5 -11 6 5 10 0 2
6 4 -12 7 6 11 1 3
8 6 -12 8 7 13 2 4
9 7 -12 9 8 14 3 5
11 8 -12 10 9 16 4 6
13 9 -12 11 10 17 5 7
14 10 -12 12 11 18 6 8
14 11 -12 12 11 18 6 8
14 11 -13 12 11 18 6 8
14 12 -13 12 11 18 6 8
14 12 -13 12 11 18 6 8
14 13 -14 11 11 18 6 7
14 12 -14 12 13 19 8 9
14 11 -15 13 14 21 9 10
14 10 -15 14 15 22 11 11
14 9 -15 15 16 24 12 12
13 8 -16 16 17 25 13 13
15 10 -16 17 18 26 14 14
16 11 -16 18 19 27 14 14
17 12 -16 19 19 27 15 15
18 13 -16 20 20 28 15 15
19 14 -16 21 21 30 17 16
20 14 -17 22 23 31 18 18
21 15 -18 23 24 33 20 19
22 15 -18 24 25 34 21 21
23 15 -19 25 26 36 23 22
24 16 -20 26 27 38 24 23
24 16 -21 28 29 39 26 25
24 16 -22 29 30 42 27 26
24 16 -22 31 32 43 29 27
24 16 -23 32 33 45 30 28
26 18 -24 34 35 47 32 30
29 20 -24 36 37 50 35 32
32 22 -25 37 38 53 37 33
35 25 -25 39 40 56 39 35
38 27 -25 42 43 59 43 37
40 28 -26 43 44 61 45 39
40 28 -27 45 46 62 46 40
42 28 -28 46 47 64 48 43
42 28 -29 48 49 66 50 44
42 28 -30 49 50 68 52 46
43 29 -31 50 52 70 54 48
45 30 -32 52 53 73 56 49
46 32 -34 53 55 75 59 51
48 33 -35 55 56 78 61 53
49 34 -36 56 58 81 64 55
51 35 -37 57 59 84 66 57
53 36 -37 59 61 86 68 58
56 38 -38 60 62 89 70 60
58 39 -39 62 64 91 72 61
61 40 -39 63 65 94 74 63
62 42 -40 64 66 96 76 64
62 44 -41 65 67 98 77 66
63 45 -44 67 69 100 79 67
63 47 -45 68 70 102 81 69
63 48 -46 69 71 104 84 70
64 49 -47 70 72 105 85 71
64 49 -47 71 73 106 86 72
65 49 -47 72 74 108 88 73
65 49 -47 72 74 109 89 74
65 49 -47 73 75 110 90 75
66 48 -48 74 76 111 91 76
66 48 -48 74 77 112 92 76
66 49 -48 75 78 113 94 77
66 50 -48 76 78 114 95 78
66 50 -48 76 79 115 96 78
66 51 -47 77 80 116 97 79
66 51 -47 77 80 116 97 79
65 51 -47 77 80 115 96 78
64 51 -47 77 80 115 95 78
64 51 -47 77 80 115 95 78
62 50 -45 76 79 113 93 76
59 50 -41 76 78 111 91 74
56 49 -39 75 77 109 89 71
53 49 -36 74 77 106 86 69
50 49 -33 74 76 104 84 66
48 48 -31 73 75 101 81 64
48 48 -28 72 74 98 78 62
48 49 -26 71 73 95 75 59
48 50 -23 71 72 91 72 57
48 50 -20 70 71 88 69 54
45 50 -18 68 69 84 65 51
42 47 -16 67 67 79 61 48
37 44 -14 65 65 76 57 45
33 40 -12 63 63 72 53 42
30 37 -9 61 61 68 49 38
28 35 -7 59 59 64 45 35
26 34 -6 56 57 59 42 32
25 32 -4 54 54 55 38 29
23 31 -3 51 52 51 35 26
22 30 0 48 49 46 32 23
20 29 1 46 47 43 29 20
19 27 1 43 44 39 26 19
17 25 2 39 42 36 23 17
15 24 3 36 38 33 20 15
13 22 3 33 35 31 18 13
11 21 4 30 33 28 15 11
10 19 4 27 29 25 13 10
8 17 4 24 26 22 11 8
6 16 4 21 23 19 9 6
4 14 4 19 20 16 6 4
3 13 3 16 17 13 5 3
2 13 3 14 15 11 3 3
1 12 2 11 12 9 1 2
1 11 2 9 10 7 0 1
0 11 2 6 7 5 -3 1
-2 10 1 4 6 3 -4 0
-2 9 1 2 5 2 -5 -2
-3 8 0 0 3 0 -7 -3
-4 7 -2 -3 2 -3 -8 -4
-4 6 -2 -5 1 -5 -9 -5
-5 5 -3 -6 0 -6 -10 -6
-5 5 -3 -7 -3 -6 -10 -7
-5 5 -4 -8 -4 -7 -11 -8
-5 5 -4 -9 -6 -8 -12 -8
-5 5 -4 -10 -7 -8 -12 -9
-5 4 -5 -11 -8 -9 -13 -10
-5 4 -5 -11 -8 -9 -13 -10
-5 3 -5 -12 -9 -10 -14 -10
-5 3 -5 -12 -9 -11 -14 -10
-5 3 -5 -12 -9 -11 -14 -10
-4 2 -5 -13 -10 -12 -15 -11
-5 2 -5 -13 -10 -12 -15 -11
-6 1 -5 -14 -11 -13 -15 -12
-6 1 -5 -14 -11 -13 -15 -12
-7 1 -5 -14 -11 -13 -15 -12
-8 0 -5 -15 -12 -14 -16 -13
-8 0 -5 -15 -12 -14 -16 -13
-7 0 -4 -14 -11 -14 -16 -12
-6 0 -4 -13 -11 -14 -16 -11
-6 0 -4 -13 -11 -14 -16 -11
-5 1 -3 -12 -10 -13 -15 -10
-5 1 -3 -12 -10 -13 -15 -10
-5 2 -2 -11 -9 -12 -14 -9
-5 3 -2 -10 -8 -11 -13 -8
-5 3 -2 -10 -8 -11 -13 -8
-4 4 0 -9 -7 -10 -12 -7
-4 3 0 -10 -8 -11 -13 -8
-5 1 -2 -11 -9 -12 -14 -9
-5 0 -3 -11 -10 -13 -14 -9
-5 -2 -3 -12 -11 -14 -15 -10
-6 -3 -4 -13 -12 -15 -16 -11
-5 0 -4 -13 -12 -14 -15 -10
-4 1 -3 -12 -11 -13 -14 -9
-4 3 -3 -12 -10 -12 -14 -9
-3 4 -3 -12 -10 -11 -13 -8
-2 5 -2 -11 -9 -10 -12 -7
-2 5 -2 -11 -9 -10 -12 -7
-2 5 -2 -10 -9 -10 -12 -7
-2 5 -2 -9 -9 -10 -12 -7
-2 5 -2 -9 -9 -10 -12 -7
-3 4 -2 -8 -8 -10 -12 -7
-3 4 -2 -8 -8 -10 -12 -7
-4 3 -3 -9 -8 -10 -12 -7
-5 3 -3 -10 -8 -10 -12 -7
-5 3 -3 -10 -8 -10 -12 -7
-6 2 -4 -11 -9 -10 -12 -7
-6 2 -4 -11 -9 -10 -12 -7
-6 2 -4 -11 -9 -10 -12 -7
-6 2 -4 -11 -9 -10 -12 -7
-6 2 -4 -11 -9 -10 -12 -7
-5 1 -4 -11 -10 -11 -12 -8
-5 1 -4 -11 -10 -11 -12 -8
-4 1 -4 -11 -10 -11 -12 -7
-4 1 -4 -11 -10 -11 -12 -7
-4 1 -4 -11 -10 -11 -12 -7
-3 1 -5 -12 -10 -11 -12 -6
-3 2 -5 -12 -10 -11 -12 -6
-3 3 -5 -12 -10 -10 -11 -6
-3 3 -5 -12 -10 -10 -11 -6
-3 4 -5 -12 -10 -10 -11 -6
-2 5 -4 -11 -9 -9 -10 -5
-2 5 -4 -11 -9 -9 -10 -5
-2 5 -4 -11 -9 -9 -10 -5
-2 5 -4 -11 -9 -9 -10 -5
-2 5 -4 -11 -9 -9 -10 -5
0 6 -4 -11 -10 -9 -10 -5
0 6 -4 -11 -10 -10 -10 -5
-2 5 -5 -12 -11 -11 -11 -6
-3 4 -5 -13 -12 -11 -11 -7
-3 4 -5 -13 -12 -12 -11 -7
-4 3 -6 -14 -13 -13 -12 -8
-5 3 -6 -14 -13 -13 -12 -8
-6 3 -6 -15 -13 -13 -12 -7
-6 3 -6 -15 -13 -13 -12 -7
-7 3 -6 -15 -13 -13 -12 -7
-8 2 -5 -16 -13 -13 -13 -6
-8 2 -5 -16 -13 -13 -13 -6
-7 2 -5 -16 -14 -13 -13 -7
-6 2 -5 -16 -14 -13 -13 -7
-6 2 -5 -16 -14 -13 -13 -7
-5 2 -6 -17 -15 -14 -13 -8
-5 2 -6 -17 -15 -14 -13 -8
-5 2 -6 -17 -15 -14 -13 -7
-5 2 -6 -17 -15 -14 -13 -7
-5 2 -6 -17 -15 -14 -13 -7
-4 3 -5 -16 -16 -15 -13 -6
-4 3 -5 -16 -16 -15 -13 -6
-4 3 -6 -17 -17 -16 -14 -6
-4 3 -7 -17 -18 -17 -14 -6
-4 3 -7 -17 -18 -17 -14 -6
-3 2 -8 -18 -19 -18 -15 -7
-3 3 -8 -18 -19 -18 -15 -7
-2 5 -8 -18 -19 -17 -14 -7
-2 6 -8 -18 -19 -17 -14 -7
-2 7 -8 -18 -19 -17 -14 -7
-2 7 -8 -17 -18 -16 -13 -8
-4 5 -8 -18 -19 -17 -14 -9
-7 2 -9 -19 -21 -19 -16 -10
-9 0 -9 -20 -22 -20 -17 -11
-11 -3 -9 -21 -23 -21 -18 -12
-12 -5 -10 -22 -24 -22 -19 -13
-10 -3 -10 -22 -24 -22 -19 -12
-7 0 -10 -22 -23 -21 -18 -11
-5 1 -10 -22 -22 -20 -17 -11
-3 3 -10 -22 -22 -20 -17 -10
0 4 -9 -21 -21 -19 -16 -9
-2 3 -9 -21 -21 -19 -16 -9
-4 2 -9 -21 -21 -20 -16 -9
-5 1 -9 -21 -21 -21 -16 -9
-6 0 -9 -21 -21 -21 -16 -9
-7 -2 -8 -21 -22 -22 -17 -10
-7 -2 -8 -21 -22 -22 -17 -10
-6 -3 -8 -21 -23 -22 -18 -11
-5 -3 -8 -21 -23 -22 -18 -11
-5 -3 -8 -21 -23 -22 -18 -11
-4 -4 -9 -22 -24 -22 -19 -12
-4 -4 -9 -22 -24 -22 -19 -12
-5 -4 -9 -21 -24 -22 -18 -11
-5 -4 -9 -21 -24 -22 -18 -11
-5 -4 -9 -21 -24 -22 -18 -11
-6 -3 -9 -20 -23 -22 -17 -10
-6 -3 -9 -20 -23 -22 -17 -10
-6 -2 -9 -20 -23 -22 -17 -10
-6 -2 -9 -20 -23 -22 -17 -10
-6 -2 -9 -20 -23 -22 -17 -10
-7 0 -9 -21 -24 -23 -18 -11
-7 0 -9 -21 -24 -23 -18 -11
-8 -2 -10 -22 -24 -23 -18 -11
-8 -3 -10 -22 -24 -23 -18 -11
-8 -3 -10 -22 -24 -23 -18 -11
-9 -4 -11 -23 -24 -23 -18 -11
-9 -4 -11 -23 -24 -23 -18 -11
-9 -3 -10 -23 -24 -23 -18 -11
-9 -3 -9 -23 -24 -23 -18 -11
-9 -3 -9 -23 -24 -23 -18 -11
-8 -2 -8 -22 -24 -23 -17 -12
-7 0 -8 -22 -24 -23 -17 -12
-7 0 -8 -22 -24 -23 -17 -12
-6 1 -8 -22 -24 -23 -17 -11
-5 2 -8 -22 -24 -23 -17 -11
-4 3 -8 -21 -23 -22 -16 -10
-4 3 -8 -21 -23 -22 -16 -10
-4 2 -8 -21 -23 -22 -16 -10
-5 1 -9 -21 -23 -23 -16 -10
-5 1 -9 -21 -23 -23 -16 -10
-6 0 -10 -22 -24 -24 -16 -11
-6 0 -10 -22 -24 -24 -16 -11
-6 0 -10 -22 -24 -24 -16 -11
-5 0 -10 -22 -24 -24 -17 -11
-5 0 -10 -22 -24 -24 -17 -11
-4 0 -9 -22 -25 -23 -18 -12
-4 0 -9 -22 -25 -23 -18 -12
-5 -2 -10 -22 -25 -23 -18 -12
-6 -3 -11 -22 -26 -23 -19 -12
-6 -3 -11 -22 -26 -23 -19 -12
-7 -4 -12 -21 -27 -24 -20 -13
-7 -4 -12 -21 -27 -24 -20 -13
-7 -4 -12 -21 -27 -24 -20 -13
-7 -3 -12 -21 -27 -25 -20 -13
-7 -3 -12 -21 -27 -25 -20 -13
-6 -2 -11 -22 -27 -26 -20 -13
-6 -2 -11 -22 -27 -26 -20 -13
-7 -2 -11 -22 -27 -25 -20 -13
-8 -2 -11 -22 -27 -24 -20 -13
-8 -2 -11 -22 -27 -24 -20 -13
-9 -3 -10 -23 -26 -23 -19 -13
-9 -3 -10 -23 -26 -23 -19 -13
-8 -3 -10 -23 -26 -24 -19 -13
-7 -3 -10 -23 -26 -25 -19 -13
-7 -3 -10 -23 -26 -25 -19 -13
-6 -2 -11 -24 -27 -26 -20 -13
-6 -2 -11 -24 -27 -26 -20 -13
-7 -2 -11 -24 -27 -26 -20 -13
-8 -2 -11 -24 -27 -26 -20 -13
-8 -2 -11 -24 -27 -26 -20 -13
-9 0 -11 -23 -27 -25 -19 -12
-8 0 -11 -23 -27 -25 -19 -12
-8 0 -11 -23 -27 -25 -19 -12
-7 0 -11 -23 -27 -26 -20 -12
-6 0 -11 -23 -27 -26 -20 -12
-5 -2 -12 -24 -28 -27 -21 -13
-5 -2 -12 -24 -28 -27 -21 -13
-5 -3 -12 -24 -28 -27 -21 -13
-6 -4 -11 -24 -28 -26 -20 -12
-6 -4 -11 -24 -28 -26 -20 -12
-7 -5 -9 -22 -27 -25 -19 -11
-6 -3 -7 -20 -25 -23 -18 -11
-5 -2 -5 -18 -23 -21 -17 -10
-3 0 -3 -16 -21 -19 -15 -9
-2 2 0 -14 -19 -17 -14 -9
0 3 2 -12 -17 -16 -13 -8
0 4 2 -11 -16 -15 -13 -8
0 5 2 -11 -16 -15 -12 -8
0 6 2 -10 -15 -14 -11 -7
0 7 2 -9 -14 -13 -11 -7
1 8 3 -8 -13 -12 -10 -6
3 9 4 -7 -12 -11 -9 -5
4 10 4 -7 -11 -10 -9 -5
5 12 5 -6 -10 -9 -8 -4
7 13 6 -5 -9 -8 -7 -3
8 14 7 -4 -8 -7 -6 -2
8 14 6 -4 -8 -7 -6 0
8 14 5 -4 -8 -7 -5 0
8 14 4 -5 -8 -7 -4 1
8 14 3 -5 -8 -7 -4 2
8 13 1 -7 -10 -7 -3 3
8 13 -4 -10 -12 -9 -4 3
9 13 -7 -12 -15 -10 -5 3
10 13 -11 -15 -17 -12 -6 2
10 13 -14 -18 -20 -14 -7 2
11 13 -17 -20 -22 -15 -8 1
10 11 -18 -21 -23 -15 -8 1
10 9 -18 -22 -23 -15 -9 0
9 7 -19 -24 -24 -16 -10 -2
8 5 -20 -25 -25 -16 -10 -2
7 3 -21 -26 -26 -17 -11 -3
7 3 -21 -26 -26 -18 -11 -3
7 3 -20 -26 -27 -19 -11 -3
7 3 -19 -25 -28 -20 -11 -3
7 3 -19 -25 -28 -21 -11 -3
8 4 -18 -24 -29 -22 -11 -2
7 4 -17 -24 -29 -22 -11 -2
7 4 -17 -24 -29 -22 -11 -2
6 4 -16 -24 -28 -21 -11 -2
5 4 -15 -24 -28 -21 -11 -2
3 4 -14 -23 -27 -20 -12 -3
1 2 -14 -23 -28 -21 -12 -5
-3 0 -14 -24 -29 -23 -13 -7
-5 -3 -14 -25 -30 -24 -14 -9
-8 -5 -14 -25 -31 -26 -14 -10
-10 -7 -14 -26 -32 -27 -15 -12
-10 -7 -14 -26 -32 -27 -16 -12
-10 -7 -14 -26 -32 -27 -16 -12
-10 -7 -14 -27 -33 -27 -17 -12
-10 -7 -14 -27 -33 -27 -18 -12
-10 -7 -14 -28 -34 -28 -19 -12
-9 -7 -14 -28 -34 -28 -19 -12
-8 -7 -14 -28 -34 -29 -20 -13
-7 -7 -14 -29 -35 -30 -21 -14
-6 -7 -14 -29 -35 -30 -21 -14
-5 -8 -14 -30 -36 -31 -22 -15
-5 -8 -14 -30 -36 -31 -22 -15
-5 -8 -14 -30 -36 -31 -22 -15
-6 -8 -14 -29 -36 -31 -22 -15
-6 -8 -14 -29 -36 -31 -22 -15
-7 -7 -13 -28 -35 -30 -21 -15
-8 -7 -13 -28 -35 -30 -21 -15
-9 -7 -13 -28 -35 -30 -21 -15
-10 -8 -12 -28 -35 -30 -21 -15
-11 -8 -12 -28 -35 -30 -21 -15
-12 -9 -11 -27 -34 -29 -20 -15
-11 -9 -11 -27 -34 -29 -20 -15
-10 -9 -11 -26 -34 -29 -20 -15
-9 -9 -11 -25 -33 -29 -20 -15
-8 -9 -11 -25 -33 -29 -20 -15
-7 -8 -11 -24 -32 -29 -21 -16
-7 -8 -11 -24 -32 -29 -21 -16
-7 -8 -11 -24 -32 -29 -21 -16
-6 -8 -11 -25 -32 -29 -21 -16
-6 -8 -11 -25 -32 -29 -21 -16
-6 -7 -9 -26 -32 -28 -20 -16
-8 -6 -7 -24 -30 -28 -20 -16
-11 -5 -4 -23 -27 -27 -20 -16
-13 -4 0 -21 -25 -26 -19 -16
-16 -3 3 -19 -22 -26 -19 -16
-17 -2 5 -15 -16 -18 -12 -12
-13 0 8 -6 -3 4 6 -4
-8 1 10 5 11 24 24 6
-4 3 13 14 23 45 42 15
1 4 15 23 36 65 59 23
9 5 16 35 53 94 84 36
22 6 14 52 73 133 118 57
35 7 11 68 95 172 153 77
49 9 9 85 116 212 188 98
62 10 6 102 138 251 224 117
72 6 5 115 152 273 238 128
75 -8 9 126 157 266 219 117
78 -22 13 136 161 258 199 107
81 -36 16 146 165 251 180 97
86 -50 20 155 171 243 159 87
81 -61 25 154 164 216 127 68
62 -67 30 132 139 155 73 38
44 -73 35 109 113 95 19 9
25 -79 42 87 88 33 -34 -21
7 -87 47 64 62 -27 -89 -51
-9 -91 55 50 44 -70 -126 -73
-18 -93 65 50 36 -86 -135 -83
-27 -94 76 50 30 -101 -143 -94
-37 -96 87 50 23 -115 -152 -104
-47 -98 98 50 17 -131 -161 -113
-53 -98 108 53 13 -139 -164 -119
-53 -96 116 59 16 -131 -157 -116
-54 -93 125 66 19 -122 -149 -112
-55 -90 133 72 22 -115 -141 -109
-55 -87 141 78 25 -107 -133 -106
-56 -82 147 77 23 -102 -126 -102
-58 -77 148 59 12 -102 -120 -98
-60 -71 148 42 0 -101 -116 -94
-62 -65 149 23 -12 -100 -112 -90
-64 -59 150 6 -23 -100 -107 -86
-66 -55 151 -8 -31 -99 -103 -82
-66 -53 152 -13 -32 -96 -101 -80
-66 -51 153 -17 -34 -94 -98 -78
-66 -49 155 -21 -35 -92 -95 -76
-66 -48 156 -26 -37 -90 -92 -74
-66 -46 157 -30 -38 -88 -90 -72
-66 -46 156 -34 -40 -87 -88 -70
-66 -46 154 -38 -43 -87 -86 -69
-66 -47 153 -44 -45 -86 -83 -67
-66 -47 151 -48 -46 -85 -81 -66
-67 -48 149 -51 -48 -83 -78 -64
-66 -47 144 -50 -49 -81 -76 -62
-64 -46 139 -49 -50 -78 -73 -60
-63 -44 134 -47 -51 -76 -70 -58
-61 -43 130 -46 -52 -74 -67 -56
-60 -41 121 -45 -53 -72 -64 -54
-57 -41 109 -45 -53 -69 -61 -51
-54 -40 97 -44 -53 -66 -57 -48
-51 -39 85 -43 -53 -63 -54 -46
-48 -39 71 -43 -53 -60 -51 -43
-44 -37 60 -41 -51 -57 -47 -39
-37 -32 51 -39 -46 -51 -41 -36
-30 -27 42 -36 -40 -46 -37 -32
-23 -22 32 -34 -35 -39 -32 -28
-17 -17 22 -32 -31 -34 -27 -25
-12 -13 16 -29 -27 -29 -24 -22
-11 -12 14 -25 -24 -26 -21 -20
-11 -11 13 -21 -21 -23 -18 -18
-10 -9 11 -16 -18 -20 -16 -16
-9 -8 10 -12 -15 -17 -13 -14
-8 -7 8 -9 -13 -15 -11 -12
-7 -7 8 -7 -12 -14 -10 -12
-6 -7 8 -6 -11 -13 -10 -11
-5 -6 8 -4 -10 -11 -9 -10
-4 -6 8 -3 -9 -10 -8 -10
-3 -5 7 0 -8 -9 -7 -9
-3 -4 5 0 -8 -9 -7 -9
-3 -4 4 0 -8 -8 -6 -9
-3 -3 2 0 -7 -7 -5 -9
-3 -2 1 0 -7 -7 -5 -9
-3 0 -2 0 -6 -6 -4 -8
-2 0 -2 0 -6 -6 -4 -8
0 0 -2 1 -6 -5 -4 -8
1 1 -2 1 -5 -5 -3 -7
2 1 -2 2 -5 -4 -3 -7
3 2 -3 3 -4 -3 -2 -6
4 2 -3 3 -4 -3 -2 -6
4 2 -3 3 -4 -3 -2 -6
5 2 -4 3 -4 -2 -2 -6
6 2 -4 3 -4 -2 -2 -6
7 3 -5 3 -4 0 0 -6
7 3 -5 4 -3 0 0 -6
7 3 -5 4 -3 0 0 -6
6 3 -6 5 -2 1 1 -5
6 3 -6 6 0 1 1 -5
5 4 -7 7 1 2 2 -4
5 4 -7 7 1 2 2 -4
5 4 -8 7 1 2 2 -4
5 4 -8 8 2 2 2 -4
5 4 -9 8 2 2 2 -4
6 3 -10 9 3 2 2 -4
7 4 -10 9 4 2 3 -3
9 5 -10 9 4 3 4 -3
10 6 -9 10 5 3 5 -2
12 7 -9 10 6 4 6 0
13 8 -8 11 7 5 7 1
13 8 -8 11 7 6 7 1
13 8 -8 12 7 6 8 2
12 8 -9 12 7 7 8 2
12 8 -9 13 7 8 9 3
11 7 -10 14 8 9 10 4
12 8 -10 14 9 10 10 4
13 9 -10 15 10 11 11 4
14 10 -10 15 11 12 11 4
15 12 -10 16 13 13 12 4
16 13 -10 17 14 14 13 5
15 12 -11 17 14 14 13 5
15 11 -11 17 14 14 13 5
14 10 -12 18 14 15 13 5
13 9 -13 18 14 15 13 5
12 8 -14 19 14 16 13 5
13 9 -14 20 15 17 14 6
14 11 -14 21 16 18 15 7
15 12 -14 22 17 19 16 8
17 14 -14 24 19 20 18 9
18 15 -14 25 20 21 19 10
19 15 -15 26 20 22 20 10
21 16 -15 26 20 23 21 11
22 16 -16 27 21 24 22 11
24 17 -17 28 21 26 24 12
25 18 -18 29 22 27 25 13
26 18 -18 30 23 29 26 15
26 18 -18 31 25 30 28 16
27 19 -19 32 26 32 29 18
28 19 -19 33 28 33 31 19
29 20 -20 34 29 35 32 21
31 20 -21 36 31 37 34 23
32 20 -21 37 32 39 36 24
34 20 -22 39 34 40 38 26
35 20 -23 40 35 43 40 27
37 21 -24 43 37 45 43 29
39 23 -24 45 39 48 45 31
42 25 -25 46 40 51 47 32
44 27 -25 48 43 54 49 34
46 29 -26 49 44 56 51 35
48 31 -27 51 46 59 53 37
48 31 -28 53 47 61 55 39
48 31 -30 54 49 63 57 40
48 32 -31 56 50 64 58 43
48 32 -32 57 51 66 60 44
48 33 -34 59 53 68 62 46
52 35 -35 60 54 71 64 47
55 38 -36 61 56 73 67 47
59 40 -37 62 57 76 69 48
62 43 -38 64 58 79 71 49
65 45 -39 65 60 81 73 50
65 45 -39 66 60 82 75 52
65 45 -40 67 61 85 76 54
65 46 -40 68 61 86 78 56
65 46 -41 69 62 87 79 58
64 47 -43 70 63 89 81 60
65 47 -44 71 64 91 84 62
65 47 -44 73 66 93 86 64
66 47 -45 74 67 95 89 66
67 47 -46 75 68 97 91 68
68 47 -47 77 70 99 93 70
70 49 -47 78 71 100 94 70
72 51 -47 78 71 101 96 71
73 52 -47 79 72 102 97 71
75 54 -47 80 73 104 98 72
77 56 -46 81 74 105 100 73
77 56 -46 81 74 105 100 73
77 56 -46 81 74 105 100 73
77 57 -46 81 74 105 100 72
77 57 -46 81 74 105 100 72
76 58 -45 81 75 106 99 71
74 56 -43 80 74 104 96 69
72 54 -41 79 73 102 94 67
69 52 -39 78 72 101 92 65
67 50 -38 77 71 99 89 63
65 48 -36 76 70 97 87 61
63 49 -33 75 69 94 84 58
61 50 -31 75 69 92 81 56
58 51 -29 74 68 89 79 53
56 52 -26 73 67 86 76 50
54 53 -24 72 66 84 74 48
52 50 -22 71 64 79 71 45
50 48 -20 70 63 76 68 43
48 45 -17 69 61 72 65 40
46 42 -15 68 60 69 62 37
44 39 -13 67 58 66 59 35
40 39 -11 65 57 63 55 33
37 38 -8 63 56 59 52 31
34 37 -6 62 55 56 48 29
32 36 -3 60 53 53 45 27
29 35 0 58 52 50 42 25
26 34 0 55 49 46 38 22
24 32 0 51 46 42 34 18
21 30 1 48 43 37 31 15
18 29 1 45 39 33 28 12
16 27 2 42 36 30 25 9
15 25 2 37 33 27 22 7
14 23 2 34 29 23 19 4
13 22 2 30 26 20 16 2
12 20 2 27 23 17 14 -2
11 18 2 24 20 14 11 -4
10 17 2 21 18 12 10 -4
8 16 2 19 16 10 8 -5
7 15 2 16 13 9 7 -5
6 14 2 13 11 7 6 -6
4 13 2 11 9 5 4 -7
4 13 2 9 8 4 3 -8
4 13 2 7 6 2 2 -9
4 13 1 5 4 0 1 -10
4 13 1 3 3 -2 -2 -11
5 13 0 1 1 -4 -3 -12
5 13 0 0 0 -4 -3 -12
5 13 0 -3 -3 -5 -4 -12
5 12 0 -4 -5 -6 -5 -12
5 12 0 -5 -6 -7 -6 -12
4 11 -2 -7 -8 -8 -7 -13
4 11 -2 -7 -8 -8 -7 -13
3 10 -2 -7 -8 -8 -7 -13
2 10 -2 -8 -9 -9 -7 -13
1 9 -2 -8 -9 -9 -7 -13
0 8 -3 -9 -10 -10 -7 -13
0 8 -3 -9 -10 -11 -7 -13
0 8 -3 -10 -11 -12 -8 -14
-2 7 -4 -11 -11 -13 -9 -15
-2 7 -4 -12 -12 -14 -10 -16
-3 6 -5 -13 -13 -15 -11 -17
-3 6 -5 -13 -13 -15 -11 -17
-3 5 -4 -13 -13 -16 -11 -17
-3 4 -4 -14 -13 -16 -11 -17
-3 3 -3 -14 -13 -17 -11 -17
-3 2 -2 -15 -14 -18 -12 -16
-2 3 -2 -14 -14 -17 -12 -16
1 5 -2 -13 -13 -16 -12 -16
2 7 -2 -12 -13 -15 -12 -16
3 8 -2 -11 -12 -13 -12 -16
5 10 -2 -10 -11 -12 -12 -16
4 10 -2 -10 -11 -12 -12 -16
3 10 -2 -10 -11 -13 -12 -16
2 10 -3 -11 -12 -13 -12 -16
1 10 -3 -11 -12 -14 -12 -16
0 9 -4 -12 -13 -15 -12 -15
0 9 -4 -12 -13 -15 -12 -15
1 9 -4 -12 -13 -15 -12 -15
1 9 -4 -12 -13 -15 -12 -15
2 9 -4 -12 -13 -15 -12 -15
3 10 -4 -12 -13 -14 -12 -14
3 10 -4 -12 -13 -14 -12 -14
3 10 -4 -12 -13 -14 -12 -14
3 10 -4 -12 -13 -14 -11 -14
3 10 -4 -12 -13 -14 -11 -14
3 10 -5 -12 -12 -13 -10 -14
3 10 -5 -12 -12 -13 -10 -14
3 11 -5 -12 -11 -12 -9 -13
3 11 -4 -11 -11 -11 -8 -13
3 12 -4 -11 -10 -10 -7 -12
3 13 -3 -10 -9 -9 -6 -11
3 13 -3 -10 -9 -9 -6 -11
2 13 -3 -10 -9 -9 -6 -11
2 13 -3 -10 -9 -9 -7 -11
1 13 -3 -10 -9 -9 -7 -11
0 12 -3 -10 -9 -10 -8 -12
0 12 -3 -10 -9 -10 -8 -12
0 12 -4 -10 -9 -10 -8 -12
1 13 -4 -11 -9 -10 -7 -11
1 13 -5 -11 -9 -10 -7 -11
2 14 -6 -12 -10 -9 -6 -10
2 14 -6 -12 -10 -9 -6 -10
2 14 -6 -12 -10 -9 -7 -10
2 13 -6 -12 -11 -10 -7 -11
2 13 -6 -12 -11 -10 -8 -11
3 12 -5 -12 -12 -11 -9 -12
2 12 -5 -12 -12 -11 -9 -12
1 12 -5 -12 -12 -12 -9 -13
0 13 -5 -13 -12 -12 -9 -13
-3 13 -5 -13 -12 -13 -9 -14
-4 14 -5 -14 -13 -14 -9 -15
-3 13 -5 -14 -13 -14 -9 -15
-2 12 -6 -14 -13 -14 -9 -14
0 11 -6 -15 -13 -14 -9 -14
1 10 -7 -15 -13 -14 -9 -13
2 9 -8 -16 -14 -13 -8 -12
2 10 -8 -16 -14 -13 -8 -12
3 11 -8 -16 -14 -13 -8 -11
4 12 -8 -15 -14 -13 -7 -11
5 14 -8 -15 -14 -13 -7 -10
6 15 -7 -14 -14 -12 -6 -9
5 14 -7 -14 -15 -13 -7 -9
3 13 -8 -15 -16 -14 -9 -10
1 12 -8 -16 -17 -15 -10 -11
0 11 -9 -17 -18 -16 -11 -12
-3 9 -10 -18 -20 -17 -13 -13
-3 10 -10 -18 -20 -17 -13 -13
-2 11 -10 -18 -20 -17 -13 -13
-2 12 -10 -18 -20 -17 -13 -14
0 13 -10 -18 -20 -17 -13 -14
1 14 -9 -18 -19 -17 -13 -15
1 14 -9 -18 -19 -17 -13 -15
1 13 -9 -18 -19 -17 -12 -14
2 13 -9 -18 -19 -17 -12 -13
2 12 -9 -18 -19 -17 -11 -12
3 11 -9 -18 -18 -16 -10 -11
3 11 -9 -18 -18 -16 -10 -11
3 11 -9 -18 -18 -17 -10 -11
3 12 -9 -18 -19 -17 -11 -12
3 12 -9 -18 -19 -18 -11 -12
3 13 -8 -19 -20 -19 -12 -13
2 13 -8 -19 -20 -19 -12 -13
1 13 -8 -19 -20 -19 -12 -13
0 12 -8 -20 -20 -19 -13 -13
-2 12 -8 -20 -20 -19 -13 -13
-3 11 -9 -21 -21 -20 -14 -14
-4 10 -9 -21 -21 -20 -14 -14
-5 8 -10 -22 -22 -21 -15 -14
-6 7 -10 -22 -23 -21 -15 -15
-7 6 -11 -23 -24 -22 -16 -15
-9 4 -12 -24 -25 -23 -17 -16
-8 4 -12 -24 -25 -23 -17 -16
-7 5 -12 -24 -25 -23 -17 -16
-6 6 -11 -23 -24 -22 -16 -15
-5 7 -11 -23 -24 -22 -16 -15
-3 8 -10 -22 -23 -21 -15 -14
-3 8 -10 -22 -23 -21 -15 -14
-3 8 -10 -22 -23 -21 -15 -14
-4 9 -10 -22 -23 -21 -15 -14
-4 9 -10 -22 -23 -21 -15 -14
-5 10 -9 -22 -24 -21 -15 -15
-4 10 -9 -22 -24 -21 -15 -15
-3 10 -9 -22 -24 -21 -15 -15
-2 10 -9 -22 -24 -21 -15 -15
0 10 -9 -22 -24 -21 -15 -15
1 10 -10 -23 -24 -21 -16 -14
0 10 -10 -23 -24 -21 -16 -14
-2 9 -10 -23 -24 -21 -16 -14
-3 8 -10 -24 -24 -22 -16 -14
-4 7 -10 -24 -24 -22 -16 -14
-5 6 -11 -25 -24 -23 -17 -14
-5 6 -11 -25 -24 -23 -17 -14
-4 6 -11 -25 -24 -23 -17 -14
-3 6 -10 -24 -23 -23 -17 -14
-2 6 -10 -24 -23 -23 -17 -14
0 7 -9 -23 -22 -22 -16 -13
0 7 -9 -23 -22 -22 -16 -13
-2 8 -9 -23 -23 -23 -17 -14
-2 8 -9 -24 -23 -23 -17 -14
-3 9 -9 -24 -24 -24 -18 -15
-4 10 -9 -25 -25 -25 -19 -16
-4 10 -9 -25 -25 -25 -19 -16
-4 10 -9 -25 -25 -25 -19 -16
-3 10 -9 -24 -25 -25 -18 -15
-3 10 -9 -24 -25 -25 -18 -15
-2 9 -9 -23 -24 -24 -17 -14
-2 9 -9 -23 -24 -24 -17 -14
-2 8 -9 -24 -24 -24 -17 -14
-2 8 -10 -24 -24 -24 -17 -14
-2 7 -10 -25 -24 -24 -17 -14
-3 6 -11 -26 -25 -24 -17 -13
-4 5 -11 -26 -25 -24 -17 -13
-5 4 -11 -26 -25 -24 -17 -14
-6 3 -11 -26 -25 -24 -18 -15
-7 2 -11 -26 -25 -24 -18 -16
-8 1 -12 -26 -26 -25 -19 -17
-8 1 -12 -26 -26 -25 -19 -17
-9 1 -12 -26 -26 -25 -20 -17
-9 0 -12 -26 -26 -26 -20 -17
-10 0 -12 -26 -26 -26 -21 -17
-11 -2 -12 -27 -27 -27 -22 -17
-10 0 -12 -27 -27 -27 -22 -17
-8 2 -12 -27 -27 -27 -22 -17
-7 4 -11 -27 -26 -26 -21 -17
-5 6 -11 -27 -26 -26 -21 -17
-3 8 -10 -26 -25 -25 -20 -16
-4 7 -10 -26 -25 -25 -20 -16
-5 6 -10 -26 -25 -25 -19 -15
-6 5 -10 -26 -25 -25 -18 -15
-7 4 -10 -26 -25 -25 -17 -14
-8 3 -9 -26 -24 -24 -16 -13
-7 3 -9 -26 -24 -24 -16 -13
-6 3 -9 -26 -24 -24 -16 -13
-5 3 -9 -26 -25 -24 -16 -13
-4 3 -9 -26 -25 -24 -16 -13
-3 2 -9 -26 -26 -24 -17 -14
-3 2 -9 -26 -26 -24 -17 -14
-4 3 -9 -26 -25 -24 -17 -14
-5 4 -8 -25 -25 -24 -17 -14
-6 5 -8 -25 -24 -24 -17 -14
-7 6 -7 -24 -23 -23 -17 -13
-7 5 -7 -24 -23 -23 -17 -13
-7 3 -8 -24 -24 -24 -18 -14
-7 2 -8 -25 -25 -24 -19 -14
-7 0 -9 -25 -26 -25 -20 -15
-8 -3 -10 -26 -27 -26 -21 -16
-8 -3 -10 -26 -27 -26 -21 -16
-8 -3 -10 -26 -27 -26 -21 -16
-7 -2 -10 -27 -27 -26 -20 -16
-7 -2 -10 -27 -27 -26 -20 -16
-6 0 -10 -28 -27 -26 -19 -15
-6 0 -10 -28 -27 -26 -19 -15
-6 0 -9 -27 -27 -26 -19 -14
-5 0 -9 -27 -26 -25 -18 -14
-5 0 -8 -26 -26 -25 -18 -13
-4 0 -7 -25 -25 -24 -17 -12
-5 0 -7 -25 -25 -24 -17 -12
-6 0 -7 -25 -25 -24 -18 -12
-7 -2 -8 -25 -25 -24 -18 -12
-8 -2 -8 -25 -25 -24 -19 -12
-10 -3 -9 -26 -26 -25 -20 -13
-9 -2 -9 -26 -26 -25 -20 -13
-8 0 -9 -25 -26 -24 -19 -13
-6 1 -8 -25 -25 -24 -19 -13
-5 2 -8 -24 -25 -23 -18 -13
-3 3 -7 -23 -24 -22 -17 -12
-3 3 -5 -21 -23 -20 -16 -11
-3 4 -3 -18 -21 -18 -15 -10
-3 4 0 -16 -20 -16 -13 -9
-3 5 2 -13 -18 -14 -12 -8
-2 6 5 -10 -16 -12 -10 -6
-2 6 5 -10 -16 -12 -10 -6
-3 6 4 -11 -15 -12 -10 -6
-4 5 4 -11 -14 -12 -10 -6
-5 5 3 -12 -13 -12 -10 -6
-6 4 2 -13 -12 -12 -10 -7
-4 5 3 -12 -10 -11 -9 -6
-2 6 4 -10 -8 -10 -8 -4
1 8 5 -9 -6 -8 -6 -2
3 9 6 -7 -4 -7 -5 1
6 11 8 -5 -2 -5 -3 3
6 11 5 -6 -3 -5 -3 3
6 11 2 -8 -5 -5 -3 3
7 11 -2 -10 -7 -6 -3 3
7 11 -5 -12 -9 -6 -3 3
8 11 -8 -14 -11 -7 -3 4
8 11 -11 -17 -14 -9 -5 3
7 10 -14 -20 -17 -12 -7 1
6 10 -17 -24 -20 -15 -9 0
5 9 -20 -27 -23 -18 -11 -3
4 8 -24 -31 -27 -21 -14 -5
4 8 -23 -31 -27 -21 -14 -5
4 8 -22 -31 -27 -21 -14 -5
4 8 -21 -30 -27 -21 -14 -5
4 8 -20 -30 -27 -21 -14 -5
4 7 -18 -29 -27 -20 -13 -4
5 7 -18 -29 -27 -20 -13 -4
7 6 -18 -29 -27 -20 -12 -3
8 6 -18 -29 -27 -20 -12 -3
10 5 -18 -29 -27 -20 -11 -2
12 4 -17 -29 -26 -20 -10 0
9 4 -17 -29 -26 -20 -10 -2
5 3 -16 -28 -26 -20 -10 -3
2 3 -15 -27 -25 -19 -11 -4
-3 2 -14 -26 -25 -19 -11 -5
-7 1 -13 -25 -24 -18 -12 -6
-7 1 -13 -25 -25 -20 -14 -8
-6 1 -13 -26 -26 -22 -16 -10
-6 1 -13 -26 -27 -24 -18 -12
-5 1 -13 -27 -28 -26 -20 -14
-4 0 -13 -28 -30 -28 -23 -16
-4 0 -13 -29 -30 -28 -23 -16
-4 -2 -13 -30 -31 -28 -23 -16
-5 -2 -14 -31 -31 -29 -23 -16
-5 -3 -14 -32 -32 -29 -23 -16
-6 -4 -15 -33 -33 -30 -23 -15
-7 -5 -15 -33 -33 -30 -23 -15
-8 -6 -15 -33 -33 -30 -23 -14
-9 -8 -15 -33 -33 -30 -23 -14
-10 -9 -15 -33 -33 -30 -23 -13
-12 -11 -15 -32 -33 -29 -22 -12
-13 -11 -15 -32 -33 -29 -22 -13
-14 -12 -16 -32 -33 -30 -23 -14
-15 -13 -16 -32 -34 -31 -24 -15
-16 -14 -17 -32 -34 -32 -25 -16
-17 -15 -18 -32 -35 -33 -26 -18
-16 -13 -17 -32 -35 -33 -26 -18
-14 -11 -16 -31 -34 -32 -26 -18
-13 -9 -15 -31 -33 -32 -25 -17
-11 -7 -14 -30 -32 -31 -25 -17
-9 -5 -13 -29 -31 -30 -24 -16
-9 -5 -13 -29 -31 -30 -24 -16
-10 -5 -12 -29 -31 -30 -23 -16
-11 -5 -12 -29 -30 -29 -23 -16
-12 -5 -11 -29 -30 -29 -22 -16
-13 -6 -10 -29 -29 -28 -21 -16
-13 -5 -10 -29 -29 -28 -21 -16
-13 -4 -10 -29 -29 -28 -21 -15
-13 -2 -10 -29 -29 -29 -21 -15
-13 0 -10 -29 -29 -29 -21 -14
-12 2 -11 -30 -30 -30 -22 -13
-13 2 -8 -25 -24 -25 -22 -13
-14 2 -4 -20 -18 -19 -22 -13
-15 2 1 -15 -12 -14 -22 -13
-16 2 5 -10 -6 -8 -22 -13
-18 3 9 -5 1 -2 -21 -14
-10 4 9 5 17 29 12 4
-2 6 9 15 33 60 45 21
7 8 8 24 50 92 78 39
14 10 8 34 65 122 111 57
22 11 8 44 81 153 144 74
36 11 7 62 103 192 178 93
50 10 6 80 125 231 211 111
64 9 6 99 146 269 244 130
77 8 5 117 168 308 277 148
91 7 5 135 188 346 310 165
89 -10 10 134 182 305 262 142
85 -25 17 131 175 263 213 117
80 -41 24 129 167 220 162 92
76 -57 31 126 159 177 112 67
73 -72 38 123 152 135 63 43
50 -78 43 103 125 82 15 12
26 -83 46 84 98 29 -33 -19
3 -90 50 63 71 -23 -82 -50
-20 -95 53 43 44 -75 -131 -79
-44 -100 56 23 17 -129 -179 -110
-46 -100 69 36 22 -130 -173 -111
-48 -99 81 51 29 -130 -164 -112
-50 -98 94 65 36 -130 -157 -113
-52 -97 106 80 44 -130 -149 -114
-54 -96 118 95 51 -130 -142 -114
-54 -89 123 88 44 -123 -136 -110
-53 -81 129 78 34 -117 -131 -104
-52 -74 133 69 26 -111 -124 -99
-51 -67 138 60 17 -105 -119 -93
-50 -60 142 52 9 -100 -114 -88
-51 -56 143 37 1 -99 -110 -85
-54 -53 143 24 -8 -99 -107 -81
-57 -49 143 11 -16 -98 -103 -79
-60 -46 143 -4 -24 -98 -100 -76
-63 -43 143 -17 -32 -98 -97 -74
-64 -40 144 -19 -33 -95 -94 -72
-63 -39 146 -21 -32 -93 -91 -70
-62 -38 149 -23 -31 -90 -88 -68
-61 -37 151 -25 -30 -88 -85 -66
-61 -36 153 -26 -29 -86 -82 -64
-60 -35 151 -31 -32 -85 -79 -62
-60 -35 148 -35 -36 -83 -77 -60
-59 -35 145 -39 -41 -82 -75 -58
-59 -35 142 -44 -46 -81 -73 -56
-59 -35 139 -48 -50 -81 -71 -55
-57 -34 133 -48 -51 -78 -68 -52
-55 -34 126 -46 -50 -76 -65 -50
-53 -34 119 -44 -49 -73 -63 -48
-51 -34 113 -41 -48 -71 -60 -46
-50 -34 107 -39 -47 -69 -58 -44
-44 -29 95 -38 -45 -64 -53 -39
-37 -24 82 -37 -44 -60 -49 -35
-31 -20 71 -36 -41 -55 -45 -32
-26 -15 59 -35 -40 -51 -40 -28
-20 -11 47 -35 -39 -47 -36 -25
-17 -9 39 -31 -34 -41 -31 -22
-15 -7 33 -28 -30 -37 -27 -19
-13 -5 26 -25 -25 -32 -22 -16
-11 -3 19 -22 -21 -28 -18 -13
-9 -2 13 -19 -17 -24 -14 -11
-8 1 12 -17 -15 -21 -12 -9
-7 2 11 -15 -13 -19 -10 -7
-6 3 10 -14 -11 -16 -8 -5
-5 4 9 -12 -9 -14 -6 -3
-5 5 8 -11 -7 -12 -5 -2
-3 6 7 -9 -6 -11 -4 0
-2 6 6 -8 -5 -10 -3 0
0 7 5 -7 -4 -9 -3 0
1 7 4 -6 -3 -8 -2 0
2 7 4 -5 -3 -8 -2 0
4 9 3 -4 -2 -7 0 0
6 11 2 -4 0 -6 1 0
8 13 2 -3 0 -5 2 0
10 15 1 -3 1 -4 3 0
12 16 1 -3 1 -4 3 0
13 17 0 -2 2 -3 4 1
12 17 0 -2 3 -3 4 1
11 17 0 -2 3 -3 5 2
10 17 0 -2 4 -3 5 2
9 17 0 -2 4 -3 5 2
8 16 -2 0 5 -2 6 3
9 16 -3 0 5 0 7 4
9 16 -3 1 5 0 7 5
10 16 -4 1 5 1 8 6
10 16 -4 1 5 1 8 6
11 15 -5 2 6 2 9 7
10 15 -5 2 7 3 10 7
10 14 -5 3 7 3 11 7
9 14 -5 3 8 4 12 7
9 14 -5 3 8 4 12 7
8 13 -6 4 9 5 13 8
9 14 -6 4 10 6 13 8
10 15 -6 5 11 7 14 8
11 16 -6 5 12 8 14 8
11 17 -6 5 12 8 14 8
13 18 -6 6 13 9 15 9
14 19 -6 6 13 9 15 10
16 19 -6 7 13 9 15 10
17 20 -6 7 13 9 15 11
18 20 -6 7 13 9 15 11
19 21 -7 8 14 10 16 12
18 20 -8 8 14 11 17 13
17 19 -9 8 15 12 18 14
16 18 -10 8 15 13 19 15
16 18 -10 8 15 14 19 15
15 18 -11 8 16 15 20 16
16 19 -11 9 17 15 20 16
17 20 -10 10 17 16 20 16
18 21 -10 11 18 16 20 16
19 22 -10 12 18 16 20 16
20 23 -9 13 20 18 22 17
21 23 -10 13 21 20 24 18
21 24 -10 14 23 22 25 19
22 24 -11 14 24 24 27 20
22 24 -11 14 25 26 28 21
24 25 -12 15 26 27 29 22
25 26 -12 16 27 28 30 23
27 27 -13 17 28 28 31 24
28 28 -13 18 29 29 32 25
29 28 -13 18 29 29 32 25
30 29 -14 20 31 31 34 27
30 29 -14 21 32 33 36 28
29 29 -15 22 34 35 38 30
29 29 -15 23 35 37 40 31
29 29 -15 24 36 39 42 32
30 31 -16 25 37 42 44 34
33 33 -16 26 38 45 46 36
36 34 -17 27 39 47 48 38
38 36 -17 28 40 49 50 40
42 37 -17 28 42 51 52 42
43 38 -19 29 44 53 54 43
43 38 -20 30 45 55 56 44
43 38 -21 31 46 57 58 45
43 38 -22 32 47 59 60 46
43 38 -23 33 48 61 61 47
44 39 -24 35 50 63 63 49
44 40 -25 37 52 66 65 51
45 42 -25 38 54 68 67 53
45 43 -26 40 56 70 69 55
45 43 -26 42 57 72 71 57
47 45 -28 44 59 75 74 59
49 47 -29 46 62 79 77 62
51 49 -30 47 64 82 80 64
52 51 -31 49 66 86 82 66
54 53 -32 50 68 89 86 68
57 55 -33 52 70 92 89 71
59 57 -34 53 71 95 93 73
62 59 -35 55 73 98 96 75
65 60 -36 56 74 101 99 78
67 62 -36 57 75 104 102 80
68 63 -37 58 77 106 104 81
69 63 -37 59 78 109 106 82
70 63 -38 60 80 111 108 84
71 63 -38 61 81 113 110 85
71 63 -38 62 82 115 112 86
72 62 -40 63 84 116 113 87
72 63 -41 63 84 117 113 87
72 63 -43 64 85 118 113 87
72 64 -44 64 85 119 113 87
72 64 -45 64 85 119 113 87
73 66 -46 65 86 121 115 88
74 67 -45 66 87 122 116 89
75 69 -45 67 88 125 118 91
76 71 -44 68 89 126 120 93
77 72 -44 68 90 127 121 94
77 72 -43 69 91 128 122 95
76 71 -41 69 91 127 122 94
75 70 -40 69 90 127 122 93
74 69 -39 69 90 126 122 92
73 68 -39 69 90 126 122 92
71 67 -37 68 89 125 122 91
70 68 -35 68 89 123 121 90
68 69 -33 68 89 123 120 89
67 70 -31 68 89 122 119 88
66 70 -29 68 89 122 118 88
64 71 -27 69 89 117 113 84
62 70 -26 68 88 112 109 79
60 69 -24 68 87 107 104 75
58 68 -23 67 86 101 99 71
56 68 -22 67 85 96 94 67
52 65 -19 65 82 92 90 63
48 61 -16 64 80 88 85 59
44 58 -13 63 78 84 80 55
39 54 -10 62 77 78 76 51
35 51 -7 61 75 74 71 47
34 50 -5 59 73 70 68 45
33 49 -3 57 70 66 65 43
32 48 0 55 68 62 62 40
31 47 1 54 66 58 59 38
31 46 3 52 64 54 56 36
29 44 4 49 61 50 52 33
28 43 5 46 58 47 48 31
26 42 6 44 56 43 45 28
24 39 7 40 53 39 40 25
23 38 8 37 50 35 36 23
22 37 9 34 47 32 34 21
22 37 9 32 45 29 32 20
22 36 9 29 42 27 30 19
22 36 9 27 39 24 29 17
22 36 9 24 36 21 27 16
22 33 8 21 33 19 25 15
21 31 7 18 31 17 23 14
19 29 6 16 28 15 21 13
17 26 5 13 26 13 20 12
16 24 4 10 23 11 18 11
15 23 3 8 21 9 16 9
14 22 3 6 18 6 15 8
13 22 2 4 16 4 14 6
12 21 2 3 14 2 12 4
11 21 2 1 12 0 11 3
10 20 1 0 11 -2 10 2
10 20 1 0 11 -3 9 2
10 20 1 -2 10 -3 9 2
10 20 1 -2 10 -4 8 2
10 20 1 -2 10 -4 8 2
9 21 2 -3 9 -5 7 2
11 21 2 -4 8 -6 6 1
12 21 2 -4 7 -6 6 1
13 21 2 -5 6 -7 5 0
14 21 2 -5 6 -7 5 0
15 20 1 -6 5 -8 4 -2
14 21 1 -6 5 -8 4 0
14 21 1 -6 5 -8 5 1
13 22 1 -6 5 -8 5 2
13 22 1 -6 5 -8 5 2
12 23 1 -7 4 -8 6 3
12 23 1 -7 4 -8 6 3
12 22 1 -7 4 -8 5 3
12 22 1 -7 4 -8 5 3
12 22 1 -7 4 -8 5 3
11 21 2 -7 3 -9 4 2
11 21 2 -7 3 -10 3 1
10 20 1 -8 3 -10 3 1
10 20 1 -8 3 -11 2 0
10 20 1 -8 3 -11 2 0
9 19 0 -9 2 -12 1 -2
9 19 0 -9 2 -12 2 0
9 19 0 -9 2 -12 2 0
9 19 0 -9 2 -12 3 1
9 19 0 -9 2 -12 3 1
10 19 1 -9 1 -11 4 2
10 20 1 -8 2 -10 5 2
11 21 2 -7 2 -9 5 3
11 22 2 -6 3 -8 6 3
11 23 2 -6 3 -8 6 3
12 24 3 -5 4 -7 7 4
12 23 2 -6 3 -7 6 4
11 22 1 -6 2 -8 6 3
11 21 0 -7 1 -8 5 3
11 20 -2 -7 1 -8 5 3
10 19 -3 -8 0 -9 5 2
11 20 -3 -8 1 -8 6 3
11 20 -2 -7 2 -7 8 4
12 21 -2 -7 3 -6 10 5
12 21 -2 -7 3 -5 11 5
13 22 0 -6 4 -4 12 6
12 22 0 -6 3 -4 11 5
12 22 0 -6 3 -5 10 5
11 22 0 -6 2 -5 9 4
11 22 0 -6 2 -5 9 4
11 22 -2 -6 1 -6 8 3
12 22 -2 -6 1 -6 9 4
13 23 -2 -6 1 -5 9 4
15 23 -2 -6 1 -5 10 5
16 23 -2 -6 1 -5 10 5
16 24 0 -6 2 -4 11 6
14 22 0 -7 1 -5 10 6
12 21 -2 -7 0 -6 9 6
10 20 -2 -8 -2 -7 8 6
8 19 -2 -8 -2 -8 7 6
7 18 -3 -9 -3 -9 6 5
8 19 -3 -9 -3 -9 6 5
9 20 -3 -9 -3 -9 7 5
10 21 -3 -9 -3 -9 7 5
11 22 -3 -9 -3 -9 7 5
12 23 -4 -10 -4 -8 8 4
12 23 -4 -9 -4 -8 8 4
12 23 -3 -9 -4 -8 8 4
12 23 -3 -8 -4 -8 8 4
12 23 -3 -8 -4 -8 8 4
12 23 -2 -7 -5 -7 7 3
10 22 -3 -8 -6 -8 7 3
9 20 -4 -9 -7 -8 7 4
8 18 -5 -10 -8 -9 7 4
7 17 -5 -11 -8 -9 7 4
6 16 -6 -12 -9 -10 6 5
6 16 -6 -12 -9 -10 5 5
6 16 -6 -12 -9 -11 5 4
6 16 -6 -12 -9 -11 4 4
6 16 -6 -12 -9 -11 4 4
7 16 -5 -13 -10 -12 3 3
7 16 -5 -13 -11 -13 2 2
7 16 -5 -13 -11 -13 2 2
7 16 -5 -13 -12 -14 1 1
7 16 -5 -13 -12 -14 1 1
8 16 -6 -14 -13 -15 0 0
8 16 -6 -14 -13 -15 0 0
8 16 -6 -14 -13 -15 1 0
8 16 -6 -14 -13 -15 1 0
8 16 -6 -14 -13 -15 1 0
9 15 -6 -15 -14 -14 2 -2
9 16 -6 -15 -14 -14 2 -2
8 16 -6 -15 -14 -14 1 -2
8 17 -6 -15 -14 -14 1 -2
8 17 -6 -15 -14 -14 1 -2
7 18 -6 -16 -15 -15 0 0
8 18 -6 -16 -15 -15 0 0
9 17 -6 -15 -15 -15 0 0
10 17 -6 -15 -15 -15 0 0
10 17 -6 -15 -15 -15 0 0
11 16 -5 -14 -14 -14 0 0
9 15 -5 -15 -15 -15 -2 0
8 14 -6 -15 -15 -15 -2 0
7 13 -6 -16 -16 -16 -3 0
6 13 -6 -16 -16 -16 -3 0
5 12 -7 -17 -17 -17 -4 -2
5 12 -7 -17 -17 -17 -4 -2
5 13 -7 -17 -17 -17 -3 0
5 13 -7 -17 -17 -17 -3 0
5 13 -7 -17 -17 -17 -3 0
5 14 -7 -17 -18 -18 -2 1
5 14 -7 -17 -18 -18 -2 1
5 14 -7 -17 -18 -18 -3 0
5 14 -7 -17 -18 -18 -3 0
5 14 -7 -17 -18 -18 -3 0
6 13 -7 -18 -18 -18 -4 -2
4 12 -7 -18 -19 -19 -5 -3
3 11 -7 -19 -20 -20 -5 -4
2 10 -7 -19 -20 -20 -6 -4
1 9 -7 -19 -21 -21 -6 -5
0 9 -8 -20 -22 -22 -7 -6
1 10 -8 -20 -21 -22 -7 -6
2 12 -7 -19 -21 -21 -7 -6
2 13 -7 -19 -20 -21 -7 -6
3 15 -7 -19 -20 -21 -7 -6
4 16 -6 -18 -19 -20 -8 -5
4 16 -6 -19 -20 -20 -8 -4
5 15 -7 -19 -21 -20 -7 -4
5 15 -7 -20 -21 -20 -7 -3
5 15 -7 -20 -22 -20 -7 -3
6 14 -8 -21 -23 -21 -6 -2
6 13 -8 -21 -23 -21 -6 -2
6 13 -8 -20 -23 -20 -5 -3
6 12 -8 -20 -23 -20 -5 -3
6 12 -8 -20 -23 -20 -5 -3
6 11 -7 -19 -22 -19 -4 -4
5 11 -7 -19 -22 -20 -5 -5
5 10 -8 -20 -22 -21 -6 -5
4 10 -8 -20 -22 -22 -7 -6
4 10 -8 -20 -22 -23 -8 -6
3 9 -9 -21 -22 -24 -9 -7
3 9 -9 -21 -22 -24 -9 -7
2 9 -9 -21 -22 -24 -10 -7
2 9 -9 -21 -22 -24 -10 -7
2 9 -9 -21 -22 -24 -10 -7
1 9 -8 -20 -22 -24 -11 -7
2 9 -8 -20 -22 -24 -11 -7
3 10 -8 -20 -22 -24 -12 -7
3 10 -8 -20 -22 -24 -12 -7
4 10 -8 -20 -22 -24 -12 -7
5 11 -8 -19 -23 -24 -13 -8
4 10 -8 -20 -23 -24 -13 -8
3 9 -9 -20 -24 -24 -13 -8
3 8 -9 -21 -24 -24 -13 -8
2 7 -9 -21 -24 -24 -13 -8
1 6 -10 -22 -25 -25 -12 -7
1 5 -10 -22 -26 -25 -12 -7
0 5 -11 -22 -26 -25 -12 -7
0 4 -11 -22 -27 -25 -12 -7
0 4 -11 -22 -27 -25 -12 -7
-2 3 -12 -22 -28 -24 -11 -7
-2 4 -12 -22 -27 -24 -11 -7
-2 5 -11 -22 -26 -24 -11 -6
-2 6 -11 -22 -26 -24 -11 -6
-2 7 -11 -22 -25 -24 -11 -6
0 8 -10 -22 -24 -24 -10 -5
0 7 -10 -22 -24 -24 -11 -6
-2 7 -9 -22 -25 -24 -11 -6
-2 6 -9 -22 -25 -24 -12 -7
-2 6 -9 -22 -25 -24 -12 -7
-3 5 -8 -22 -26 -25 -13 -8
-3 5 -9 -22 -26 -25 -14 -8
-3 6 -9 -22 -26 -25 -14 -9
-3 6 -10 -22 -26 -25 -15 -9
-3 6 -10 -22 -26 -25 -15 -9
-2 7 -11 -23 -26 -26 -16 -10
-2 8 -11 -22 -25 -25 -15 -9
0 8 -10 -22 -25 -25 -15 -8
0 9 -10 -21 -24 -24 -14 -8
0 9 -10 -21 -24 -24 -14 -7
1 10 -8 -19 -22 -22 -12 -6
3 10 -6 -17 -20 -20 -11 -6
4 11 -5 -16 -19 -19 -9 -5
5 11 -3 -14 -17 -17 -8 -5
6 11 0 -12 -15 -15 -6 -5
7 12 1 -11 -14 -14 -5 -4
8 14 1 -11 -14 -14 -5 -4
8 15 1 -11 -13 -14 -6 -4
9 16 1 -11 -13 -14 -6 -4
9 17 1 -11 -13 -14 -6 -4
10 18 2 -10 -12 -14 -7 -3
10 18 1 -10 -11 -12 -6 -2
9 18 1 -10 -11 -11 -5 0
9 18 0 -10 -10 -9 -4 1
9 18 0 -10 -10 -8 -3 2
8 19 -2 -9 -9 -8 -2 3
9 19 -3 -11 -11 -10 -3 4
9 20 -4 -12 -12 -11 -4 4
10 20 -5 -13 -13 -13 -4 5
10 20 -6 -14 -14 -15 -5 5
11 21 -9 -16 -16 -16 -6 6
11 21 -12 -19 -17 -17 -6 5
11 20 -15 -21 -19 -17 -6 5
11 20 -18 -23 -20 -18 -6 4
11 20 -21 -26 -22 -18 -6 4
11 18 -23 -27 -23 -19 -6 3
11 16 -23 -27 -25 -20 -6 3
10 15 -22 -27 -26 -20 -7 3
10 13 -22 -27 -27 -21 -7 3
10 11 -22 -27 -28 -21 -7 3
9 10 -21 -28 -29 -22 -8 3
9 10 -19 -27 -28 -21 -8 3
10 11 -18 -25 -27 -20 -8 3
11 11 -16 -24 -26 -20 -8 3
11 11 -15 -23 -25 -19 -8 3
11 12 -14 -22 -24 -19 -8 2
9 10 -14 -22 -25 -20 -9 0
7 9 -14 -23 -26 -22 -11 -3
4 7 -14 -24 -27 -23 -13 -5
2 6 -14 -24 -28 -25 -15 -7
1 4 -15 -25 -29 -26 -16 -8
0 2 -15 -26 -30 -27 -16 -8
-2 0 -15 -27 -31 -28 -17 -8
-3 -3 -15 -28 -31 -28 -18 -8
-4 -5 -15 -29 -32 -29 -18 -8
-5 -6 -16 -30 -33 -30 -20 -9
-5 -5 -16 -30 -33 -31 -21 -11
-4 -4 -16 -30 -34 -32 -23 -12
-3 -4 -16 -30 -35 -33 -24 -14
-3 -3 -16 -30 -35 -34 -26 -15
-2 -2 -16 -30 -36 -35 -27 -16
-4 -2 -16 -30 -36 -35 -26 -15
-5 -2 -16 -31 -36 -34 -25 -14
-7 -2 -16 -31 -36 -34 -24 -13
-8 -2 -16 -31 -36 -34 -23 -12
-9 -3 -17 -32 -36 -33 -22 -11
-8 -3 -17 -32 -36 -33 -22 -11
-7 -4 -16 -31 -36 -33 -23 -12
-7 -5 -16 -31 -36 -33 -24 -13
-6 -5 -16 -31 -36 -33 -24 -13
-5 -6 -15 -30 -35 -33 -25 -14
-6 -6 -15 -30 -35 -33 -25 -14
-7 -6 -15 -30 -36 -33 -25 -14
-7 -6 -15 -30 -36 -33 -25 -14
-8 -6 -15 -30 -36 -33 -25 -14
-9 -7 -14 -29 -37 -33 -24 -15
-9 -7 -14 -29 -37 -33 -24 -15
-9 -7 -14 -29 -37 -33 -24 -15
-9 -7 -14 -29 -37 -33 -24 -15
-9 -7 -14 -29 -37 -33 -24 -15
-9 -5 -15 -29 -38 -33 -25 -16
-10 -3 -14 -29 -38 -33 -25 -16
-12 0 -13 -28 -37 -34 -26 -16
-13 2 -12 -28 -37 -34 -27 -16
-14 5 -11 -28 -37 -34 -27 -16
-15 6 -8 -23 -30 -29 -23 -14
-14 6 -4 -16 -19 -19 -14 -10
-13 5 0 -9 -8 -9 -6 -5
-12 5 4 0 4 3 4 1
-11 5 8 7 14 13 12 6
-5 5 9 16 30 44 40 21
6 6 6 27 49 87 80 44
15 8 3 38 67 130 120 65
25 9 0 50 86 173 160 88
34 11 -4 60 105 217 200 109
43 6 -5 74 122 246 223 121
50 -5 -2 89 140 269 235 129
58 -15 2 104 157 290 247 135
65 -25 5 118 175 313 261 141
73 -36 8 134 192 335 273 147
68 -49 14 131 185 307 238 129
55 -62 20 115 160 245 173 93
40 -75 27 100 137 185 108 57
27 -89 33 85 112 123 43 21
14 -102 40 69 89 62 -23 -15
0 -109 49 59 68 13 -67 -41
-15 -112 57 53 50 -29 -97 -62
-29 -115 65 46 32 -72 -127 -82
-44 -118 73 38 15 -114 -157 -103
-58 -120 81 31 -4 -156 -187 -123
-64 -119 90 33 -8 -166 -193 -129
-62 -113 97 43 -2 -154 -181 -122
-61 -108 104 51 5 -142 -170 -116
-59 -102 111 60 11 -130 -157 -110
-58 -97 119 69 17 -117 -146 -104
-58 -91 122 65 13 -113 -140 -100
-60 -86 123 52 0 -115 -138 -98
-62 -80 125 38 -14 -117 -136 -96
-64 -75 126 25 -27 -119 -134 -94
-67 -70 127 12 -39 -121 -132 -92
-68 -67 128 2 -47 -121 -129 -90
-68 -64 128 -7 -50 -118 -124 -87
-68 -61 129 -15 -53 -115 -120 -83
-68 -58 130 -23 -56 -112 -115 -80
-68 -55 130 -30 -59 -110 -111 -77
-68 -53 132 -34 -61 -107 -108 -75
-70 -54 134 -36 -61 -105 -106 -74
-72 -55 136 -37 -61 -103 -104 -73
-74 -55 138 -39 -61 -101 -102 -73
-77 -56 141 -40 -61 -99 -99 -72
-77 -57 140 -41 -60 -98 -97 -70
-74 -57 135 -43 -62 -96 -94 -67
-72 -56 131 -45 -63 -94 -92 -64
-69 -55 126 -46 -65 -93 -89 -61
-67 -55 120 -47 -66 -91 -87 -59
-65 -54 113 -48 -67 -89 -83 -56
-63 -54 104 -47 -66 -86 -80 -54
-62 -53 95 -46 -65 -82 -78 -52
-60 -53 85 -46 -65 -79 -75 -50
-59 -53 75 -45 -64 -77 -73 -48
-57 -52 65 -44 -62 -73 -69 -46
-54 -50 53 -43 -59 -68 -65 -41
-52 -49 42 -41 -56 -63 -60 -38
-49 -47 29 -41 -53 -58 -56 -34
-47 -46 17 -40 -50 -53 -51 -31
-43 -43 11 -37 -46 -48 -47 -28
-39 -37 9 -34 -41 -44 -44 -25
-35 -33 7 -30 -38 -39 -39 -22
-32 -28 5 -27 -34 -35 -36 -19
-28 -23 3 -23 -30 -31 -32 -16
-26 -21 2 -21 -28 -29 -30 -14
-24 -21 0 -20 -28 -28 -30 -14
-22 -21 -3 -19 -27 -26 -29 -13
-21 -21 -4 -19 -26 -25 -28 -13
-19 -21 -6 -18 -26 -24 -28 -13
-18 -21 -7 -17 -25 -23 -27 -12
-18 -20 -8 -16 -23 -22 -26 -12
-17 -19 -9 -15 -22 -21 -25 -12
-16 -18 -9 -15 -20 -20 -25 -12
-16 -17 -10 -14 -19 -19 -24 -12
-15 -16 -11 -13 -18 -18 -23 -12
-15 -16 -11 -13 -18 -18 -23 -12
-16 -16 -11 -12 -17 -17 -22 -11
-17 -16 -11 -11 -17 -16 -21 -10
-17 -16 -11 -11 -17 -16 -21 -10
-18 -17 -12 -10 -16 -15 -20 -9
-16 -16 -12 -10 -15 -15 -20 -9
-15 -15 -12 -9 -14 -15 -19 -9
-14 -14 -12 -8 -13 -15 -18 -9
-12 -13 -12 -8 -12 -15 -18 -9
-11 -12 -13 -7 -11 -14 -17 -9
-11 -13 -14 -8 -12 -14 -18 -9
-12 -15 -15 -10 -13 -14 -19 -9
-13 -16 -16 -11 -13 -14 -20 -9
-13 -17 -17 -12 -14 -14 -21 -9
-14 -18 -18 -13 -15 -13 -22 -8
-14 -18 -18 -11 -13 -12 -21 -7
-15 -18 -18 -10 -12 -11 -19 -6
-16 -18 -18 -9 -11 -11 -18 -6
-16 -18 -18 -7 -9 -10 -17 -5
-17 -17 -17 -6 -8 -9 -16 -4
-17 -17 -17 -6 -8 -8 -16 -4
-17 -17 -17 -6 -7 -7 -15 -4
-17 -17 -17 -6 -7 -7 -14 -4
-17 -17 -17 -6 -7 -6 -14 -4
-18 -16 -17 -5 -6 -5 -13 -4
-17 -16 -17 -5 -6 -5 -13 -4
-15 -17 -18 -4 -6 -5 -12 -3
-14 -17 -19 -4 -6 -5 -12 -2
-13 -17 -19 -4 -6 -5 -12 -2
-12 -18 -20 -3 -5 -4 -11 0
-12 -17 -20 -2 -3 -2 -10 1
-12 -15 -19 0 0 1 -9 3
-12 -14 -19 0 2 3 -9 4
-12 -13 -19 1 4 5 -8 5
-13 -12 -18 2 5 6 -7 6
-13 -12 -19 2 5 6 -7 6
-13 -13 -20 2 5 6 -7 5
-13 -13 -21 2 5 6 -7 5
-13 -13 -22 2 5 6 -7 5
-12 -14 -23 2 4 6 -7 4
-12 -14 -23 2 5 7 -6 4
-12 -14 -24 2 6 8 -5 4
-12 -14 -24 2 6 9 -5 4
-12 -14 -24 2 7 10 -4 4
-11 -13 -25 3 8 12 -2 6
-10 -11 -25 5 10 14 1 8
-8 -9 -25 7 11 16 4 11
-7 -7 -25 9 12 18 7 14
-6 -5 -25 11 14 20 9 16
-5 -4 -26 12 16 22 11 18
-3 -4 -26 13 18 25 12 18
0 -3 -26 14 20 28 14 19
1 -2 -26 14 22 30 15 19
3 -2 -26 15 24 33 16 19
4 0 -27 16 25 35 18 21
4 -2 -29 17 26 37 20 23
5 -3 -31 18 28 38 23 25
5 -3 -32 19 29 39 25 27
5 -4 -34 20 30 42 27 29
6 -5 -35 21 31 44 30 30
6 -5 -35 22 32 48 32 32
6 -5 -36 23 34 51 34 34
6 -5 -37 24 35 54 36 36
6 -5 -37 25 36 58 38 38
6 -4 -38 27 38 61 40 39
8 -2 -39 29 42 64 44 42
9 1 -40 31 45 67 47 44
10 2 -41 33 47 70 49 46
12 4 -43 35 50 73 52 48
13 5 -44 36 53 76 55 50
14 6 -44 38 55 80 58 52
16 8 -45 40 57 84 61 54
17 9 -46 42 59 87 64 56
18 10 -46 44 61 91 67 58
20 11 -47 45 62 94 70 60
22 13 -48 45 63 96 72 62
24 14 -50 45 65 99 75 64
26 15 -51 45 66 101 78 66
28 17 -52 45 67 103 80 68
30 18 -53 46 68 106 84 69
29 18 -53 48 70 108 86 71
28 19 -53 50 71 111 88 73
28 20 -53 52 72 114 90 74
27 20 -53 54 74 116 92 76
27 21 -53 55 75 118 94 77
30 23 -54 55 75 119 95 77
33 24 -56 56 76 120 96 77
35 25 -57 57 76 121 96 77
38 27 -58 57 76 122 97 77
40 28 -59 58 77 123 98 77
40 29 -58 58 77 123 99 78
40 30 -57 58 78 123 99 79
40 32 -56 59 79 125 100 80
40 33 -55 59 79 125 101 81
42 34 -54 60 80 126 102 82
39 33 -54 60 80 123 100 80
37 32 -53 60 79 121 99 79
35 30 -52 59 78 119 98 78
33 29 -52 59 78 117 96 76
30 28 -50 58 77 115 94 74
27 27 -48 57 76 112 91 72
25 27 -46 57 75 109 89 70
22 26 -43 56 73 105 86 67
19 25 -40 55 72 102 82 65
17 24 -37 54 70 98 78 61
15 24 -35 53 68 92 72 57
13 23 -32 52 66 87 67 53
11 22 -29 50 63 80 62 48
9 22 -27 49 61 74 56 44
8 21 -25 47 58 69 51 39
6 19 -24 45 56 64 47 35
5 17 -24 43 53 59 43 32
3 15 -23 40 50 54 37 29
1 13 -22 38 48 49 33 25
-2 11 -21 35 45 44 29 22
-5 9 -19 33 42 39 25 20
-7 7 -17 31 39 35 22 17
-10 5 -15 28 36 30 18 14
-13 3 -13 26 33 26 14 12
-15 1 -12 23 30 22 11 9
-15 0 -12 20 26 18 8 7
-15 -2 -12 17 23 15 5 5
-15 -3 -12 14 20 11 1 3
-15 -4 -12 11 16 7 -3 1
-16 -6 -11 8 13 4 -6 -2
-18 -8 -11 5 10 1 -8 -4
-19 -10 -12 3 7 -2 -10 -5
-20 -12 -13 0 3 -5 -12 -6
-22 -14 -13 -4 0 -8 -14 -8
-23 -16 -14 -6 -3 -10 -16 -9
-21 -15 -14 -7 -5 -11 -18 -10
-20 -14 -14 -8 -6 -12 -19 -10
-19 -13 -14 -10 -7 -13 -20 -11
-17 -12 -14 -11 -9 -14 -22 -12
-17 -11 -14 -12 -10 -15 -23 -13
-19 -12 -14 -13 -11 -16 -23 -13
-22 -13 -14 -14 -12 -17 -23 -13
-24 -14 -14 -15 -14 -19 -23 -13
-27 -15 -14 -16 -15 -20 -23 -13
-29 -16 -14 -17 -16 -21 -22 -12
-28 -16 -14 -18 -18 -22 -24 -14
-27 -16 -14 -19 -19 -22 -25 -15
-26 -16 -15 -21 -21 -23 -27 -16
-25 -16 -15 -22 -23 -24 -29 -18
-24 -16 -16 -23 -24 -25 -30 -19
-25 -16 -16 -23 -24 -26 -30 -19
-25 -16 -16 -23 -24 -27 -31 -20
-26 -16 -17 -24 -25 -29 -32 -21
-27 -16 -17 -24 -25 -30 -32 -21
-28 -15 -18 -25 -26 -31 -33 -22
-28 -17 -18 -25 -26 -31 -33 -22
-28 -18 -18 -25 -26 -31 -33 -22
-28 -19 -18 -25 -26 -31 -33 -22
-28 -21 -18 -25 -26 -31 -33 -22
-29 -22 -17 -26 -27 -32 -33 -21
-27 -20 -17 -26 -27 -32 -33 -21
-26 -19 -17 -26 -27 -32 -33 -20
-24 -18 -17 -25 -27 -32 -32 -19
-22 -16 -17 -25 -27 -32 -32 -19
-21 -15 -18 -24 -26 -33 -31 -18
-22 -15 -18 -24 -26 -33 -31 -18
-22 -15 -18 -24 -26 -33 -31 -18
-23 -16 -18 -25 -25 -33 -31 -18
-24 -16 -18 -25 -25 -33 -31 -18
-25 -17 -17 -26 -24 -33 -31 -19
-27 -18 -17 -26 -24 -33 -31 -19
-28 -18 -17 -26 -24 -33 -31 -19
-29 -19 -17 -26 -24 -32 -31 -19
-31 -20 -17 -26 -24 -32 -31 -19
-32 -21 -18 -26 -25 -31 -32 -18
-31 -21 -18 -26 -25 -31 -32 -18
-31 -20 -18 -25 -25 -31 -32 -18
-30 -19 -18 -24 -25 -31 -32 -18
-29 -19 -18 -24 -25 -31 -32 -18
-28 -18 -18 -23 -24 -30 -31 -19
-28 -17 -18 -23 -24 -30 -31 -19
-27 -17 -18 -23 -24 -30 -30 -18
-26 -16 -18 -23 -24 -29 -29 -17
-26 -15 -18 -23 -24 -29 -29 -17
-25 -14 -17 -24 -23 -28 -28 -16
-24 -13 -17 -24 -22 -27 -27 -16
-23 -12 -17 -23 -21 -26 -26 -15
-21 -11 -16 -22 -20 -25 -25 -14
-20 -10 -16 -22 -19 -24 -24 -14
-19 -9 -15 -21 -18 -23 -23 -13
-20 -9 -15 -21 -18 -23 -23 -13
-21 -10 -15 -21 -18 -23 -23 -13
-23 -11 -16 -21 -18 -23 -22 -13
-24 -11 -16 -21 -18 -23 -22 -13
-25 -12 -17 -22 -19 -24 -21 -13
-24 -12 -17 -22 -19 -24 -21 -13
-24 -12 -17 -22 -19 -24 -22 -13
-23 -13 -17 -22 -20 -24 -23 -14
-22 -13 -17 -22 -20 -24 -23 -14
-21 -14 -17 -23 -21 -25 -24 -15
-21 -14 -17 -23 -21 -25 -24 -15
-22 -14 -17 -23 -21 -25 -24 -14
-23 -14 -17 -23 -21 -25 -23 -13
-23 -14 -17 -23 -21 -25 -23 -13
-24 -14 -18 -24 -21 -25 -22 -12
-23 -14 -18 -24 -21 -25 -22 -12
-23 -14 -18 -24 -21 -25 -22 -12
-22 -14 -18 -24 -21 -25 -22 -13
-21 -14 -18 -24 -21 -25 -22 -13
-20 -13 -17 -23 -22 -25 -22 -14
-20 -13 -17 -23 -22 -25 -22 -14
-20 -14 -17 -24 -22 -25 -22 -14
-21 -15 -17 -25 -22 -25 -22 -14
-21 -15 -17 -25 -22 -25 -22 -14
-22 -16 -18 -26 -23 -26 -21 -14
-22 -16 -18 -26 -23 -26 -21 -14
-22 -16 -18 -26 -23 -26 -22 -14
-22 -16 -18 -26 -24 -27 -23 -14
-22 -16 -18 -26 -24 -27 -23 -14
-23 -17 -18 -27 -25 -28 -24 -14
-22 -15 -17 -27 -25 -28 -23 -14
-20 -14 -17 -26 -24 -27 -23 -13
-19 -12 -16 -25 -23 -26 -22 -12
-17 -10 -15 -25 -23 -26 -21 -12
-16 -9 -14 -24 -22 -25 -20 -11
-18 -11 -15 -25 -23 -26 -21 -12
-20 -12 -17 -27 -24 -27 -23 -12
-22 -14 -18 -28 -26 -29 -24 -13
-24 -16 -20 -30 -27 -30 -26 -14
-26 -17 -21 -31 -28 -31 -27 -15
-26 -17 -21 -31 -28 -31 -27 -15
-26 -17 -20 -31 -28 -31 -27 -15
-25 -17 -19 -31 -28 -31 -27 -16
-25 -17 -19 -31 -28 -31 -27 -16
-24 -17 -18 -30 -29 -32 -27 -17
-24 -18 -18 -30 -29 -32 -27 -17
-24 -18 -18 -30 -29 -32 -27 -17
-24 -19 -18 -30 -29 -32 -27 -16
-24 -20 -18 -30 -29 -32 -27 -16
-25 -21 -19 -29 -29 -31 -27 -15
-24 -19 -19 -29 -29 -31 -27 -15
-22 -18 -19 -29 -29 -31 -27 -15
-21 -16 -19 -29 -29 -31 -26 -15
-19 -14 -19 -29 -29 -31 -26 -15
-18 -13 -18 -29 -29 -31 -25 -15
-18 -13 -18 -29 -29 -31 -25 -15
-18 -13 -18 -29 -29 -31 -25 -15
-18 -13 -17 -29 -29 -30 -25 -15
-18 -13 -17 -29 -29 -30 -25 -15
-19 -13 -16 -29 -28 -29 -25 -14
-19 -13 -16 -29 -28 -30 -25 -14
-19 -13 -16 -29 -28 -31 -26 -15
-19 -13 -17 -30 -29 -32 -27 -16
-19 -13 -17 -30 -29 -33 -27 -16
-18 -13 -18 -31 -30 -34 -28 -17
-18 -13 -18 -31 -30 -33 -27 -16
-18 -13 -17 -30 -30 -33 -27 -15
-18 -14 -16 -29 -29 -32 -26 -14
-18 -14 -16 -29 -29 -31 -25 -13
-17 -15 -15 -28 -28 -30 -24 -12
-18 -16 -16 -29 -28 -31 -25 -13
-18 -16 -17 -29 -28 -31 -25 -13
-19 -17 -18 -30 -28 -32 -26 -14
-20 -18 -19 -31 -28 -33 -27 -15
-21 -19 -20 -32 -29 -34 -28 -16
-21 -18 -20 -32 -29 -34 -28 -16
-21 -17 -19 -32 -29 -34 -28 -16
-21 -15 -18 -31 -29 -33 -27 -16
-21 -14 -18 -31 -29 -33 -27 -16
-21 -13 -17 -30 -30 -32 -26 -16
-21 -13 -17 -30 -30 -32 -26 -16
-20 -13 -17 -30 -30 -32 -26 -16
-19 -13 -17 -29 -30 -32 -26 -15
-19 -13 -17 -29 -30 -32 -26 -15
-18 -14 -16 -28 -29 -32 -25 -14
-18 -14 -16 -28 -29 -32 -25 -14
-18 -14 -16 -28 -29 -32 -25 -14
-18 -14 -16 -28 -29 -32 -25 -14
-18 -14 -16 -28 -29 -32 -25 -14
-17 -15 -16 -29 -28 -32 -26 -15
-17 -15 -16 -29 -28 -32 -26 -15
-18 -15 -16 -29 -28 -32 -26 -15
-19 -15 -17 -29 -29 -32 -26 -15
-19 -15 -17 -29 -29 -32 -26 -15
-20 -16 -18 -29 -30 -33 -26 -15
-20 -16 -18 -29 -30 -33 -26 -15
-19 -16 -17 -29 -30 -32 -26 -15
-18 -16 -16 -29 -29 -31 -25 -15
-18 -16 -16 -29 -29 -31 -25 -15
-17 -15 -15 -28 -28 -30 -24 -14
-17 -14 -15 -28 -28 -30 -24 -14
-17 -14 -15 -28 -28 -30 -24 -14
-16 -13 -15 -29 -28 -31 -24 -14
-16 -12 -15 -29 -28 -31 -24 -14
-15 -11 -16 -30 -29 -32 -25 -15
-15 -11 -16 -30 -29 -32 -25 -15
-15 -11 -16 -30 -29 -32 -25 -15
-15 -11 -16 -30 -29 -32 -24 -15
-15 -11 -16 -30 -29 -32 -24 -15
-14 -11 -15 -29 -28 -31 -23 -15
-13 -11 -15 -29 -28 -31 -23 -15
-13 -11 -15 -29 -28 -31 -23 -15
-12 -12 -15 -29 -28 -32 -24 -15
-11 -12 -15 -29 -28 -32 -24 -15
-10 -13 -15 -29 -29 -33 -25 -14
-11 -13 -15 -29 -29 -33 -25 -14
-12 -13 -15 -29 -29 -33 -25 -14
-13 -13 -15 -29 -29 -33 -25 -14
-14 -13 -15 -29 -29 -33 -25 -14
-15 -12 -16 -28 -29 -32 -26 -15
-15 -12 -16 -28 -29 -32 -26 -15
-15 -12 -16 -28 -29 -32 -26 -15
-15 -11 -15 -28 -29 -32 -26 -15
-15 -11 -15 -28 -29 -32 -26 -15
-14 -10 -14 -29 -30 -32 -25 -15
-14 -10 -14 -29 -30 -32 -25 -15
-14 -11 -15 -29 -30 -32 -25 -15
-14 -11 -15 -29 -30 -32 -25 -15
-14 -12 -16 -29 -30 -32 -25 -15
-15 -13 -17 -30 -31 -32 -25 -15
-15 -12 -17 -30 -31 -32 -25 -15
-15 -11 -16 -30 -30 -32 -25 -15
-15 -10 -16 -29 -30 -31 -24 -15
-15 -9 -15 -29 -29 -31 -24 -15
-14 -8 -14 -28 -28 -30 -23 -15
-13 -8 -14 -28 -28 -30 -23 -15
-13 -8 -14 -28 -28 -30 -23 -14
-12 -8 -14 -27 -27 -30 -22 -14
-11 -8 -14 -27 -27 -30 -22 -13
-10 -7 -13 -26 -26 -29 -21 -12
-10 -7 -13 -26 -26 -29 -21 -12
-10 -7 -13 -26 -26 -29 -21 -12
-11 -7 -13 -26 -27 -29 -22 -13
-11 -7 -13 -26 -27 -29 -22 -13
-12 -8 -14 -27 -28 -30 -23 -14
-12 -8 -14 -27 -28 -30 -23 -14
-12 -8 -14 -27 -28 -30 -23 -14
-12 -8 -14 -27 -28 -30 -23 -14
-12 -8 -14 -27 -28 -30 -23 -14
-12 -9 -14 -28 -28 -30 -22 -14
-12 -9 -14 -28 -27 -30 -22 -13
-11 -9 -13 -28 -27 -29 -21 -13
-11 -9 -13 -27 -26 -29 -21 -12
-10 -9 -12 -27 -25 -28 -20 -11
-9 -9 -11 -26 -24 -27 -19 -10
-9 -7 -9 -24 -22 -25 -18 -9
-9 -5 -8 -21 -20 -23 -17 -9
-8 -3 -6 -19 -18 -22 -16 -8
-8 0 -5 -17 -16 -20 -14 -7
-7 2 -3 -15 -14 -18 -13 -6
-6 3 -2 -15 -13 -18 -13 -6
-4 4 0 -15 -12 -18 -12 -6
-3 5 1 -14 -11 -17 -12 -5
0 7 2 -14 -10 -17 -11 -5
1 8 3 -13 -9 -16 -10 -4
2 9 3 -13 -9 -15 -9 -3
3 11 3 -12 -8 -14 -8 -2
4 12 2 -12 -8 -13 -7 0
5 14 2 -11 -7 -11 -5 1
6 15 1 -10 -6 -10 -4 2
5 13 -3 -11 -7 -11 -4 2
4 10 -6 -13 -9 -11 -5 2
3 8 -9 -14 -10 -12 -5 1
1 6 -12 -15 -11 -13 -6 1
0 4 -15 -17 -13 -14 -7 0
1 4 -17 -20 -16 -15 -8 0
1 4 -18 -22 -19 -17 -9 -2
2 4 -20 -25 -22 -18 -10 -2
3 4 -21 -28 -24 -19 -11 -3
4 3 -23 -30 -27 -21 -12 -4
4 3 -22 -30 -27 -21 -12 -4
4 3 -22 -30 -27 -21 -12 -4
4 4 -21 -30 -27 -21 -12 -4
4 4 -20 -30 -27 -21 -12 -4
3 5 -19 -30 -27 -22 -13 -4
3 5 -19 -30 -27 -22 -12 -3
3 4 -19 -30 -26 -21 -11 -3
3 4 -18 -29 -26 -21 -10 -2
3 3 -18 -29 -25 -20 -9 0
4 2 -17 -28 -24 -19 -8 1
2 2 -16 -28 -24 -19 -9 -2
0 2 -15 -28 -24 -20 -10 -3
-2 1 -14 -27 -24 -20 -11 -5
-4 1 -13 -27 -24 -21 -13 -6
-6 0 -12 -26 -25 -22 -14 -8
-6 -3 -13 -27 -26 -23 -16 -9
-7 -5 -13 -28 -28 -25 -17 -11
-7 -6 -14 -29 -29 -26 -19 -12
-8 -8 -15 -31 -30 -27 -20 -13
-9 -10 -16 -32 -32 -29 -22 -15
-10 -10 -16 -32 -33 -30 -22 -15
-10 -11 -16 -32 -34 -30 -22 -16
-11 -11 -16 -33 -35 -31 -23 -16
-12 -12 -16 -33 -36 -32 -23 -17
-13 -13 -17 -34 -37 -33 -24 -18
-13 -12 -17 -34 -37 -33 -24 -18
-12 -12 -17 -34 -36 -33 -24 -17
-12 -11 -16 -33 -36 -32 -24 -17
-11 -10 -16 -33 -35 -32 -24 -16
-10 -9 -15 -32 -34 -31 -24 -15
-10 -10 -15 -32 -34 -31 -24 -15
-10 -10 -15 -32 -34 -31 -24 -15
-11 -11 -15 -32 -34 -31 -24 -15
-11 -12 -15 -32 -34 -31 -24 -15
-12 -13 -15 -32 -33 -32 -23 -16
-12 -12 -15 -32 -33 -32 -23 -16
-12 -11 -14 -31 -32 -31 -23 -16
-13 -10 -14 -31 -32 -30 -23 -15
-13 -8 -13 -30 -31 -29 -23 -15
-14 -7 -12 -29 -30 -28 -23 -14
-14 -7 -12 -29 -30 -28 -23 -14
-14 -8 -12 -29 -30 -28 -23 -14
-13 -8 -12 -29 -30 -28 -23 -14
-13 -9 -12 -29 -30 -28 -23 -14
-12 -10 -13 -30 -31 -29 -22 -15
-13 -8 -11 -29 -30 -29 -22 -15
-14 -6 -9 -27 -28 -29 -22 -15
-15 -3 -7 -26 -26 -29 -22 -15
-17 0 -5 -25 -25 -29 -22 -15
-18 2 -3 -22 -21 -27 -19 -15
-17 2 0 -15 -10 -16 -11 -9
-15 2 3 -8 2 -5 -2 -2
-13 2 5 0 12 6 8 5
-12 2 8 6 23 17 17 12
-8 2 10 15 36 36 33 22
5 6 10 28 58 84 77 44
17 10 9 42 78 131 120 66
29 14 8 55 99 178 163 89
40 18 7 68 120 224 206 111
51 20 7 82 139 263 240 129
56 7 11 97 152 276 244 130
60 -7 16 111 165 289 248 132
64 -20 20 126 179 303 253 133
68 -33 25 141 192 316 257 134
69 -46 30 148 197 313 245 129
56 -58 35 131 172 250 179 92
42 -70 40 112 146 185 112 56
28 -82 46 94 121 120 47 20
14 -95 51 75 96 56 -20 -16
1 -105 56 60 72 -2 -76 -48
-13 -108 65 56 58 -34 -100 -66
-26 -111 74 51 44 -67 -122 -83
-39 -114 82 47 28 -100 -146 -102
-53 -116 92 42 14 -133 -169 -119
-64 -118 100 38 2 -157 -185 -133
-63 -112 108 47 6 -148 -174 -127
-61 -106 115 54 9 -138 -163 -119
-59 -100 123 61 13 -128 -152 -113
-58 -93 132 69 17 -117 -141 -107
-56 -87 138 72 18 -109 -132 -101
-57 -80 139 58 4 -109 -128 -98
-59 -75 140 43 -10 -110 -123 -94
-61 -69 141 27 -24 -110 -119 -91
-62 -63 142 12 -37 -111 -115 -88
-64 -58 143 -2 -49 -112 -112 -85
-65 -57 142 -9 -51 -110 -109 -82
-67 -56 141 -16 -54 -108 -106 -80
-68 -55 140 -24 -56 -105 -104 -78
-69 -54 139 -31 -59 -103 -101 -76
-71 -53 138 -37 -61 -101 -98 -74
-70 -51 139 -37 -61 -99 -94 -71
-68 -49 141 -38 -60 -96 -91 -68
-66 -47 142 -38 -60 -94 -88 -66
-65 -45 143 -39 -59 -91 -83 -63
-63 -43 145 -40 -58 -89 -80 -60
-62 -43 141 -40 -58 -87 -78 -58
-60 -43 137 -41 -59 -83 -75 -57
-58 -44 133 -43 -60 -81 -73 -55
-57 -44 130 -44 -61 -78 -70 -53
-55 -45 125 -45 -62 -76 -68 -51
-51 -43 114 -43 -60 -72 -64 -48
-47 -40 104 -41 -58 -68 -60 -44
-43 -38 94 -39 -55 -64 -56 -40
-39 -36 84 -37 -53 -61 -52 -37
-35 -34 72 -35 -51 -57 -48 -34
-34 -32 61 -34 -47 -52 -43 -31
-32 -30 50 -32 -44 -47 -38 -28
-31 -27 38 -30 -39 -41 -34 -25
-30 -25 27 -29 -35 -36 -30 -22
-28 -23 17 -27 -32 -32 -26 -19
-23 -19 16 -23 -28 -28 -22 -16
-19 -14 15 -20 -24 -25 -19 -14
-14 -10 14 -16 -20 -21 -16 -11
-10 -6 12 -12 -17 -17 -12 -9
-6 -2 11 -9 -13 -14 -9 -6
-6 0 11 -8 -12 -13 -8 -6
-5 1 11 -7 -10 -11 -7 -5
-4 2 10 -6 -9 -9 -6 -5
-3 3 10 -4 -8 -8 -4 -4
-2 4 9 -3 -6 -6 -3 -3
-2 3 7 -3 -6 -6 -3 -3
-2 2 5 -3 -6 -6 -3 -3
-3 1 3 -3 -6 -6 -3 -3
-3 0 1 -3 -6 -6 -3 -3
-4 -2 -2 -4 -5 -7 -3 -4
-4 0 -2 -3 -5 -5 -2 -3
-3 1 -2 -2 -4 -4 0 -2
-3 2 -2 0 -3 -2 1 0
-2 3 -2 1 -2 1 3 1
0 4 0 2 0 3 4 2
0 4 0 2 0 3 4 2
0 4 0 2 0 3 4 2
0 4 -2 3 0 3 4 3
0 4 -2 3 0 3 4 3
1 4 -3 4 1 3 4 4
1 4 -3 4 2 4 5 4
2 4 -3 5 3 5 6 4
3 5 -3 5 4 6 7 4
4 5 -3 6 5 7 8 4
5 6 -2 7 6 8 9 5
5 6 -2 7 6 8 9 5
4 6 -3 7 6 8 9 5
4 6 -3 7 6 8 8 5
3 6 -4 7 6 8 8 5
2 5 -5 7 6 7 7 4
3 5 -5 7 7 8 8 5
4 6 -5 8 8 9 10 6
5 6 -5 9 9 10 11 7
6 7 -5 10 10 11 12 8
8 8 -5 11 12 13 14 10
8 8 -5 11 12 13 14 10
7 8 -5 11 12 13 14 10
7 8 -6 11 12 13 14 10
6 8 -6 11 12 13 14 10
5 7 -7 11 11 14 14 10
7 8 -7 12 12 15 15 11
8 10 -7 13 14 17 17 12
10 12 -6 14 16 18 18 13
12 13 -6 15 17 19 19 14
14 15 -5 17 19 21 21 16
14 15 -6 17 19 21 21 16
14 14 -7 17 19 21 21 16
13 13 -8 17 19 21 21 15
13 12 -9 17 19 21 21 15
12 11 -10 17 19 20 20 14
12 11 -10 18 20 22 20 14
13 12 -10 19 22 24 21 15
13 13 -10 20 24 26 21 15
14 14 -10 21 25 28 22 16
15 15 -11 22 27 30 23 17
15 15 -11 23 28 31 25 18
16 15 -11 24 29 32 27 20
16 16 -12 25 30 33 29 22
17 16 -12 26 31 34 32 23
18 17 -13 27 32 35 34 25
18 17 -13 27 32 37 35 25
19 17 -14 28 33 39 36 26
20 18 -15 29 33 42 38 26
21 18 -16 30 34 45 39 27
22 19 -17 31 35 47 42 28
24 21 -17 33 38 49 44 30
27 24 -17 35 40 52 47 33
29 26 -17 37 44 55 49 36
31 28 -17 39 47 57 51 38
34 31 -17 42 50 60 54 42
34 31 -17 42 50 62 56 43
35 32 -18 43 51 65 57 44
36 32 -18 44 52 67 59 46
37 33 -19 45 53 69 61 47
38 34 -20 46 54 72 63 49
38 34 -21 47 55 74 65 50
39 34 -23 49 56 77 67 51
40 35 -24 50 57 80 69 52
42 35 -26 52 58 82 72 53
43 36 -28 54 59 86 74 54
44 37 -28 56 59 89 77 56
45 38 -28 57 60 92 79 59
46 39 -29 59 61 95 82 62
47 40 -29 61 62 99 86 64
49 43 -30 63 63 102 89 67
51 43 -31 64 64 104 90 68
53 44 -32 65 65 105 92 69
55 44 -34 66 66 107 93 71
57 45 -35 67 67 109 95 72
59 46 -37 69 68 111 97 74
59 48 -37 70 68 113 98 74
60 50 -37 71 69 115 99 75
61 52 -37 72 70 117 100 76
62 54 -37 73 71 120 101 77
63 56 -37 74 72 122 103 78
64 57 -37 75 73 123 105 79
65 58 -37 76 74 126 108 81
66 59 -38 77 76 127 110 84
67 60 -38 78 77 129 112 86
69 62 -39 79 79 131 115 88
68 61 -39 79 79 131 115 88
67 60 -39 79 79 131 115 88
66 59 -39 79 79 131 115 88
65 58 -39 79 79 131 115 88
63 57 -39 80 78 132 116 88
63 57 -38 80 78 131 116 88
62 58 -37 80 78 130 115 87
61 58 -36 80 77 129 114 87
60 59 -35 80 77 128 113 86
59 60 -34 80 76 126 112 85
57 59 -31 80 76 122 109 82
55 58 -28 80 75 118 105 80
53 57 -25 79 75 115 102 78
50 56 -22 79 74 112 99 76
48 54 -19 78 73 108 95 74
47 53 -17 77 71 104 91 70
46 52 -15 76 69 100 88 66
45 51 -13 75 67 96 84 62
44 50 -11 74 65 91 79 57
43 48 -9 72 62 87 75 53
40 47 -7 70 60 82 71 50
37 46 -5 68 57 77 66 46
35 45 -3 66 54 73 62 43
33 44 0 64 52 69 58 39
30 43 2 61 49 64 53 35
27 42 3 58 47 60 50 33
25 39 4 55 44 56 47 31
22 37 5 52 40 52 44 29
19 35 6 48 38 48 40 27
16 33 7 45 35 44 37 24
15 31 7 42 32 40 34 22
14 29 7 38 28 36 31 20
12 27 7 35 25 32 28 17
11 25 7 31 22 29 24 15
9 22 8 28 18 25 21 12
8 21 8 26 16 23 20 11
7 20 8 24 13 20 18 10
6 18 8 21 11 18 16 9
5 17 8 19 8 15 14 8
4 15 7 16 5 12 12 6
4 15 7 15 3 11 11 6
4 15 7 13 1 10 10 5
4 15 6 12 -2 9 9 5
4 15 6 10 -4 8 8 4
5 16 5 8 -6 6 7 3
5 16 5 7 -7 4 6 2
5 15 4 5 -9 2 4 1
4 14 3 3 -10 0 3 -2
4 13 2 1 -12 -3 1 -3
3 12 1 -2 -14 -5 -2 -5
3 12 1 -2 -14 -5 -2 -5
2 12 1 -3 -15 -5 -2 -5
2 11 1 -4 -15 -5 -3 -5
1 11 1 -5 -16 -5 -3 -5
0 10 0 -6 -17 -6 -4 -5
0 10 0 -6 -17 -6 -4 -5
0 10 0 -6 -17 -7 -5 -5
0 9 0 -6 -18 -8 -5 -5
0 9 0 -6 -18 -9 -6 -5
0 8 1 -6 -19 -10 -7 -6
-2 7 1 -6 -19 -10 -7 -6
-3 6 1 -6 -19 -10 -7 -6
-5 5 1 -7 -19 -10 -7 -6
-6 4 1 -7 -19 -10 -7 -6
-8 2 0 -8 -19 -11 -7 -7
-7 2 0 -8 -19 -11 -7 -7
-6 3 0 -8 -19 -11 -7 -6
-5 4 0 -8 -19 -11 -7 -6
-4 5 0 -8 -19 -11 -7 -5
-3 6 1 -7 -19 -11 -7 -4
-3 6 1 -7 -19 -11 -7 -4
-2 6 1 -7 -19 -11 -7 -4
-2 6 1 -7 -19 -11 -6 -5
0 6 1 -7 -19 -11 -6 -5
1 7 2 -8 -18 -10 -5 -6
-2 6 2 -8 -18 -10 -5 -6
-4 5 2 -8 -18 -10 -5 -6
-6 4 1 -7 -18 -10 -5 -5
-8 3 1 -7 -18 -10 -5 -5
-10 2 0 -6 -17 -10 -6 -4
-9 2 0 -6 -17 -10 -6 -4
-7 2 0 -6 -17 -10 -6 -4
-5 3 0 -6 -17 -10 -6 -4
-3 3 0 -6 -17 -10 -6 -4
0 4 1 -5 -16 -9 -6 -4
0 4 1 -5 -16 -9 -6 -4
0 5 1 -5 -16 -9 -6 -4
0 6 1 -5 -16 -8 -6 -4
0 7 1 -5 -16 -8 -6 -4
-2 8 1 -4 -16 -7 -6 -4
-2 7 1 -4 -16 -7 -6 -4
-2 6 1 -5 -16 -7 -6 -4
-3 5 0 -5 -16 -8 -6 -4
-3 4 0 -6 -16 -8 -6 -4
-4 2 -2 -7 -15 -9 -5 -5
-3 3 -2 -7 -15 -9 -5 -5
-2 5 -2 -7 -15 -8 -4 -4
0 6 -2 -6 -15 -8 -4 -4
1 8 -2 -6 -15 -7 -3 -3
2 10 0 -5 -15 -6 -2 -2
1 10 0 -5 -15 -6 -2 -2
0 9 0 -5 -15 -6 -2 -2
-2 9 0 -5 -15 -6 -2 -2
-3 8 0 -5 -15 -6 -2 -2
-4 7 -2 -5 -15 -6 -3 -3
-4 7 -2 -5 -15 -6 -3 -3
-4 7 -2 -5 -15 -7 -3 -3
-3 7 -2 -6 -16 -7 -3 -3
-3 7 -2 -6 -16 -8 -3 -3
-2 7 -3 -7 -17 -9 -3 -4
-2 7 -3 -7 -17 -9 -3 -4
-2 7 -3 -7 -17 -9 -3 -4
-3 6 -3 -7 -17 -9 -3 -3
-3 6 -3 -7 -17 -9 -3 -3
-4 5 -4 -7 -18 -8 -3 -2
-4 5 -4 -7 -18 -8 -3 -3
-5 4 -4 -8 -19 -9 -4 -4
-5 3 -5 -9 -20 -10 -4 -5
-6 2 -5 -10 -21 -11 -5 -6
-7 1 -6 -11 -22 -12 -6 -7
-6 1 -6 -11 -22 -12 -6 -7
-5 2 -6 -11 -22 -12 -6 -6
-4 3 -6 -11 -22 -12 -6 -6
-3 4 -6 -11 -22 -12 -6 -5
0 5 -6 -11 -22 -12 -5 -4
0 5 -6 -11 -22 -12 -5 -4
0 5 -6 -11 -22 -12 -5 -4
-2 5 -6 -12 -22 -12 -5 -4
-2 5 -6 -12 -22 -12 -5 -4
-3 6 -7 -13 -23 -13 -5 -5
-3 5 -7 -13 -23 -13 -5 -5
-4 4 -7 -14 -24 -14 -6 -5
-4 4 -7 -14 -24 -14 -6 -6
-5 3 -7 -15 -25 -15 -7 -6
-5 2 -7 -15 -25 -15 -7 -6
-6 1 -8 -16 -26 -16 -8 -7
-6 1 -8 -16 -26 -16 -8 -7
-7 0 -8 -16 -26 -16 -9 -7
-7 0 -8 -16 -26 -16 -9 -7
-7 0 -8 -16 -26 -16 -9 -7
-8 -2 -8 -17 -27 -17 -10 -8
-7 0 -7 -17 -27 -17 -9 -7
-7 1 -7 -17 -26 -16 -9 -7
-6 2 -6 -17 -26 -16 -8 -6
-6 2 -6 -17 -26 -16 -8 -6
-5 3 -5 -16 -25 -15 -7 -5
-5 3 -6 -17 -26 -16 -8 -6
-6 3 -6 -17 -26 -17 -8 -7
-6 3 -7 -18 -27 -18 -9 -8
-6 3 -7 -18 -27 -18 -9 -8
-7 1 -8 -19 -28 -19 -10 -9
-8 0 -8 -20 -28 -19 -11 -9
-9 -3 -9 -20 -29 -20 -11 -10
-10 -4 -9 -21 -29 -20 -12 -10
-10 -5 -9 -21 -29 -20 -12 -10
-11 -5 -10 -22 -30 -21 -13 -11
-10 -4 -10 -22 -30 -21 -13 -11
-9 -3 -9 -21 -30 -21 -13 -11
-8 -2 -9 -21 -30 -21 -13 -11
-8 0 -9 -21 -30 -21 -13 -11
-7 0 -8 -20 -31 -20 -12 -10
-8 -3 -8 -20 -31 -20 -12 -10
-9 -4 -8 -21 -31 -20 -12 -10
-10 -6 -8 -21 -31 -20 -12 -10
-10 -7 -8 -21 -31 -20 -12 -10
-11 -7 -9 -22 -30 -20 -13 -9
-10 -6 -9 -22 -30 -20 -13 -9
-10 -4 -9 -22 -30 -21 -13 -9
-9 -3 -9 -22 -30 -21 -13 -9
-9 -2 -9 -22 -30 -21 -13 -9
-8 0 -9 -23 -31 -22 -13 -10
-7 0 -9 -22 -31 -21 -13 -10
-6 0 -8 -22 -30 -21 -13 -9
-5 0 -8 -21 -30 -20 -13 -9
-5 0 -8 -21 -30 -20 -13 -9
-5 -2 -7 -20 -29 -19 -12 -8
-7 -3 -8 -21 -29 -20 -13 -9
-9 -4 -8 -21 -30 -21 -13 -9
-11 -5 -9 -22 -30 -22 -14 -10
-13 -5 -9 -22 -30 -23 -14 -10
-14 -6 -10 -23 -31 -24 -15 -11
-13 -7 -10 -23 -31 -25 -16 -12
-12 -7 -11 -24 -32 -25 -16 -12
-11 -8 -11 -24 -32 -26 -17 -13
-10 -8 -11 -24 -32 -26 -17 -13
-9 -9 -12 -25 -33 -27 -18 -14
-9 -8 -11 -25 -32 -26 -17 -13
-9 -7 -11 -24 -32 -26 -17 -13
-9 -6 -10 -24 -31 -25 -16 -12
-9 -5 -10 -24 -31 -25 -16 -12
-8 -4 -9 -23 -30 -24 -15 -11
-7 -4 -9 -23 -29 -24 -15 -11
-7 -4 -9 -23 -29 -23 -14 -10
-6 -4 -9 -23 -28 -23 -14 -10
-6 -4 -9 -23 -28 -23 -14 -10
-7 -5 -9 -22 -27 -22 -13 -9
-10 -6 -9 -23 -28 -23 -14 -10
-12 -8 -9 -23 -29 -24 -15 -11
-15 -9 -9 -24 -30 -25 -16 -12
-17 -10 -9 -24 -30 -25 -16 -12
-17 -11 -10 -25 -31 -26 -17 -13
-16 -11 -10 -25 -31 -26 -17 -13
-15 -11 -11 -25 -31 -26 -17 -13
-14 -11 -11 -25 -31 -26 -17 -13
-13 -11 -11 -25 -31 -26 -17 -13
-12 -10 -12 -26 -32 -26 -18 -13
-12 -10 -12 -26 -32 -26 -17 -13
-11 -10 -11 -25 -31 -26 -17 -12
-11 -10 -11 -25 -31 -26 -16 -12
-11 -10 -11 -25 -31 -26 -16 -12
-10 -9 -10 -24 -30 -25 -15 -11
-10 -9 -10 -24 -30 -25 -15 -11
-10 -9 -10 -24 -30 -25 -15 -11
-10 -9 -10 -24 -30 -25 -15 -11
-10 -9 -10 -24 -30 -25 -15 -11
-11 -9 -10 -25 -30 -25 -15 -11
-11 -9 -10 -25 -30 -25 -15 -11
-11 -9 -11 -25 -30 -25 -16 -12
-11 -9 -11 -25 -30 -25 -16 -12
-11 -9 -11 -25 -30 -25 -16 -12
-10 -10 -12 -26 -31 -26 -17 -13
-10 -10 -12 -26 -31 -26 -17 -13
-11 -11 -12 -26 -31 -26 -17 -13
-11 -11 -12 -26 -31 -26 -17 -13
-11 -11 -12 -26 -31 -26 -17 -13
-12 -12 -12 -26 -31 -27 -17 -13
-12 -11 -12 -26 -31 -27 -17 -13
-11 -10 -12 -26 -31 -27 -17 -13
-11 -9 -12 -26 -31 -27 -17 -13
-11 -9 -12 -26 -31 -27 -17 -13
-10 -8 -11 -25 -31 -27 -16 -12
-10 -8 -11 -25 -31 -27 -16 -12
-10 -9 -11 -25 -31 -27 -16 -12
-10 -9 -11 -25 -31 -27 -16 -12
-10 -9 -11 -25 -31 -27 -16 -12
-10 -10 -11 -25 -30 -26 -16 -12
-10 -10 -11 -25 -30 -26 -16 -12
-10 -11 -11 -25 -30 -26 -16 -12
-10 -11 -11 -25 -30 -26 -16 -12
-10 -11 -11 -25 -30 -26 -16 -12
-9 -12 -9 -23 -27 -26 -15 -11
-9 -11 -7 -20 -25 -24 -13 -10
-8 -10 -5 -17 -22 -23 -11 -8
-8 -9 -3 -15 -19 -21 -9 -7
-8 -8 0 -12 -17 -20 -8 -6
-7 -7 1 -11 -16 -19 -7 -5
-7 -7 1 -11 -16 -18 -7 -5
-7 -6 0 -11 -16 -18 -7 -5
-7 -6 0 -11 -16 -17 -7 -5
-7 -6 0 -11 -16 -17 -7 -5
-6 -4 -2 -12 -16 -15 -7 -5
-5 -3 -2 -12 -15 -14 -5 -4
-5 -2 0 -11 -13 -13 -4 -3
-4 0 0 -11 -12 -12 -2 -2
-4 1 0 -11 -11 -11 0 0
-3 2 1 -10 -10 -10 1 1
-2 2 0 -10 -10 -11 0 1
0 2 0 -10 -11 -12 0 1
1 2 -2 -10 -11 -13 -2 1
1 2 -2 -10 -11 -13 -2 1
3 1 -6 -13 -14 -14 -3 1
4 2 -9 -16 -16 -15 -3 1
5 2 -13 -19 -19 -16 -4 1
6 3 -17 -21 -22 -17 -4 1
7 3 -20 -24 -24 -17 -4 1
7 4 -21 -25 -25 -18 -5 2
5 3 -21 -25 -25 -19 -6 1
4 2 -21 -26 -26 -20 -6 1
2 1 -21 -26 -26 -21 -7 0
1 0 -21 -26 -26 -22 -7 0
0 -2 -20 -27 -27 -23 -8 -2
0 -3 -20 -27 -27 -23 -8 -2
0 -4 -20 -27 -27 -24 -9 -2
0 -5 -20 -27 -27 -24 -9 -2
0 -6 -20 -27 -27 -24 -9 -2
-2 -7 -19 -27 -28 -25 -10 -3
-5 -8 -18 -27 -28 -25 -11 -4
-8 -9 -18 -27 -28 -25 -11 -4
-10 -10 -17 -27 -28 -25 -12 -5
-13 -10 -17 -27 -28 -25 -12 -5
-14 -11 -16 -26 -27 -26 -14 -7
-14 -12 -16 -27 -28 -27 -15 -8
-14 -13 -16 -27 -29 -29 -17 -10
-14 -14 -16 -28 -30 -30 -18 -11
-14 -15 -16 -28 -31 -31 -19 -12
-15 -16 -16 -29 -33 -32 -20 -13
-15 -17 -17 -30 -34 -33 -21 -14
-15 -18 -18 -31 -35 -34 -22 -15
-15 -19 -19 -32 -36 -35 -23 -16
-15 -19 -19 -32 -37 -36 -23 -16
-15 -20 -20 -33 -38 -37 -24 -17
-14 -19 -20 -32 -37 -37 -24 -17
-14 -19 -19 -32 -36 -36 -23 -16
-13 -18 -19 -31 -35 -36 -23 -16
-13 -18 -19 -31 -35 -36 -23 -16
-12 -17 -18 -30 -34 -35 -22 -15
-12 -17 -18 -30 -34 -35 -22 -15
-13 -17 -18 -30 -34 -35 -22 -15
-13 -17 -18 -30 -34 -35 -22 -15
-13 -17 -18 -30 -34 -35 -22 -15
-14 -17 -17 -30 -34 -35 -23 -15
-15 -18 -17 -30 -34 -35 -23 -15
-16 -19 -17 -30 -34 -35 -23 -16
-17 -20 -17 -30 -34 -35 -23 -16
-17 -21 -17 -30 -34 -35 -23 -16
-18 -22 -17 -29 -35 -36 -24 -17
-18 -22 -17 -29 -35 -36 -24 -17
-18 -22 -17 -29 -35 -36 -24 -17
-18 -22 -17 -29 -35 -36 -24 -17
-18 -22 -17 -29 -35 -36 -24 -17
-17 -20 -16 -30 -34 -35 -24 -17
-17 -19 -15 -29 -33 -35 -24 -16
-17 -18 -14 -29 -32 -35 -23 -16
-17 -16 -13 -28 -31 -35 -23 -15
-17 -15 -12 -28 -30 -35 -23 -15
-18 -14 -8 -21 -21 -26 -16 -12
-18 -13 -4 -14 -11 -13 -9 -9
-18 -12 1 -6 0 0 -2 -6
-18 -11 5 2 10 13 6 -3
-18 -10 9 9 20 26 13 1
-9 -7 8 20 37 58 45 18
3 -4 6 32 56 94 80 38
14 -2 3 45 74 130 116 59
25 2 0 56 93 165 151 79
36 5 -3 68 111 201 187 100
47 -2 0 85 129 223 201 108
57 -10 4 102 145 241 212 113
66 -19 8 119 162 261 222 118
76 -28 12 138 179 279 232 123
87 -36 16 155 196 299 242 130
76 -49 21 145 181 254 194 104
62 -62 25 130 158 196 135 72
47 -74 30 113 136 138 75 40
31 -88 35 98 113 80 15 9
17 -100 40 81 91 23 -45 -23
1 -104 48 69 71 -16 -77 -45
-15 -106 55 59 53 -52 -105 -64
-31 -108 63 48 34 -87 -132 -82
-47 -109 71 36 16 -121 -159 -102
-63 -111 78 25 -3 -157 -187 -120
-65 -110 89 33 0 -154 -184 -122
-63 -106 100 46 7 -143 -173 -118
-61 -102 111 59 15 -132 -161 -115
-60 -99 122 71 23 -120 -151 -111
-58 -95 134 84 30 -109 -140 -108
-58 -90 136 75 23 -107 -135 -104
-59 -85 138 61 11 -108 -130 -101
-60 -79 139 46 0 -109 -126 -97
-62 -74 140 31 -13 -110 -121 -93
-63 -69 141 17 -24 -111 -116 -89
-65 -66 142 6 -31 -111 -113 -87
-68 -64 142 -5 -36 -109 -109 -83
-70 -61 142 -15 -41 -107 -106 -81
-72 -59 142 -25 -47 -106 -103 -78
-74 -56 142 -35 -52 -104 -99 -76
-75 -55 142 -37 -53 -102 -97 -74
-74 -55 142 -39 -53 -100 -94 -72
-73 -54 143 -40 -53 -98 -92 -70
-72 -54 143 -41 -53 -97 -90 -69
-71 -54 143 -43 -53 -95 -88 -67
-70 -53 142 -45 -55 -93 -86 -65
-69 -53 138 -47 -57 -91 -82 -63
-69 -53 135 -49 -59 -89 -80 -61
-68 -53 132 -50 -60 -87 -77 -59
-68 -53 128 -52 -62 -85 -75 -57
-65 -53 118 -52 -63 -81 -72 -55
-63 -52 107 -51 -62 -79 -69 -53
-60 -51 97 -49 -61 -76 -67 -51
-58 -50 86 -47 -60 -74 -64 -49
-55 -50 75 -46 -60 -71 -61 -47
-49 -45 64 -43 -56 -66 -57 -43
-43 -39 53 -40 -52 -61 -52 -38
-36 -34 42 -37 -47 -56 -47 -34
-30 -29 30 -35 -43 -51 -41 -30
-24 -24 19 -32 -37 -46 -36 -26
-21 -22 14 -29 -34 -41 -33 -24
-20 -20 11 -26 -31 -37 -30 -22
-19 -18 8 -23 -28 -33 -27 -19
-17 -17 5 -20 -24 -30 -24 -17
-16 -15 2 -17 -21 -26 -21 -15
-14 -13 1 -15 -19 -24 -20 -14
-12 -12 1 -13 -18 -22 -18 -13
-10 -11 1 -11 -17 -20 -17 -12
-8 -9 1 -10 -15 -18 -16 -11
-6 -8 1 -8 -14 -16 -15 -10
-5 -7 1 -7 -13 -14 -14 -9
-4 -6 -2 -6 -13 -13 -13 -9
-3 -5 -3 -6 -12 -12 -12 -8
-2 -4 -4 -5 -12 -10 -11 -8
-2 -4 -5 -5 -12 -9 -10 -8
0 -3 -6 -4 -11 -8 -9 -7
0 -3 -6 -3 -10 -7 -9 -6
0 -3 -6 -2 -9 -6 -8 -5
0 -3 -6 0 -8 -5 -8 -4
0 -3 -6 0 -8 -5 -8 -4
1 -4 -6 1 -7 -4 -7 -3
0 -4 -7 2 -7 -4 -7 -4
-2 -4 -8 2 -8 -5 -6 -4
-3 -4 -9 3 -8 -5 -6 -5
-4 -4 -10 3 -8 -5 -6 -5
-5 -3 -11 4 -9 -6 -5 -6
-4 -3 -11 4 -8 -5 -5 -5
-3 -3 -11 4 -7 -4 -4 -5
-2 -3 -11 4 -6 -3 -4 -4
0 -3 -11 4 -6 -2 -4 -4
1 -4 -12 5 -5 0 -3 -3
1 -3 -12 6 -4 0 -2 -3
2 -2 -12 6 -4 0 -2 -3
2 0 -12 7 -3 0 0 -3
2 0 -12 7 -3 0 0 -3
3 1 -13 8 -2 1 1 -3
3 0 -13 8 0 3 1 -2
3 -2 -13 8 1 4 1 0
3 -3 -13 8 2 5 1 1
3 -3 -13 8 2 6 1 1
4 -3 -13 9 3 7 2 2
5 0 -13 10 4 8 3 3
6 2 -13 11 5 8 4 4
7 4 -13 12 6 9 5 5
8 6 -13 13 7 9 5 5
9 7 -14 14 8 10 6 6
9 6 -14 14 8 11 6 6
10 5 -15 14 8 12 6 6
10 4 -15 14 8 13 6 6
10 3 -15 14 8 13 6 6
11 2 -16 13 9 14 6 6
11 2 -16 14 10 14 7 7
11 2 -16 15 11 15 8 8
11 2 -16 16 12 15 9 9
11 2 -16 17 13 15 10 9
12 4 -17 18 15 17 12 11
14 5 -17 19 16 19 13 12
17 6 -18 20 18 21 15 13
19 8 -18 21 20 23 17 15
21 9 -18 21 21 25 18 16
22 10 -19 22 22 26 19 17
22 10 -19 23 22 27 19 17
23 9 -19 24 22 27 19 17
23 9 -19 25 22 28 19 17
23 9 -19 26 22 28 19 17
24 8 -19 27 23 30 20 18
23 8 -20 28 23 31 21 19
23 8 -21 29 24 32 22 19
22 8 -22 30 24 34 23 20
22 8 -23 30 24 35 23 20
23 9 -24 32 26 37 25 22
26 12 -25 34 29 40 28 24
29 15 -26 35 31 43 31 27
32 17 -26 37 33 45 33 29
35 20 -27 39 36 48 36 31
36 21 -28 42 38 50 38 33
37 22 -28 43 39 53 40 34
38 23 -29 45 40 55 43 36
39 23 -29 46 43 57 45 37
40 24 -29 48 44 60 47 39
42 25 -30 50 46 62 49 42
43 24 -32 51 47 64 51 43
43 24 -33 52 48 67 53 45
44 23 -34 54 50 69 55 46
44 23 -35 55 51 71 57 48
46 24 -36 57 52 73 59 50
49 27 -37 58 54 76 62 51
51 30 -38 59 55 78 64 52
53 33 -39 61 56 80 66 54
56 36 -40 62 57 84 69 55
57 37 -41 64 59 86 71 57
58 38 -43 65 60 89 73 59
59 38 -44 66 61 91 75 62
59 39 -45 68 63 93 77 64
60 39 -46 69 64 96 79 66
63 42 -47 71 66 98 81 68
67 43 -47 72 67 100 84 69
70 45 -47 73 69 102 85 70
74 46 -47 75 70 104 87 72
78 48 -47 76 72 106 89 73
78 49 -47 77 73 107 90 74
76 48 -48 78 74 108 91 75
74 48 -49 78 74 109 92 75
71 47 -49 79 75 109 93 76
69 47 -50 79 75 110 94 76
68 46 -51 80 76 111 95 77
69 47 -51 81 77 112 96 77
70 48 -50 82 77 113 96 78
70 48 -50 82 78 114 97 78
71 49 -50 84 78 115 97 78
72 50 -49 85 79 116 98 79
71 51 -47 85 79 115 97 78
71 51 -46 85 79 114 97 77
70 52 -45 85 79 113 96 77
70 52 -44 85 79 112 96 76
68 53 -41 84 78 110 94 74
66 52 -39 82 76 107 91 71
64 51 -37 81 75 105 88 68
61 50 -35 80 74 103 85 66
59 49 -33 79 73 100 81 63
57 48 -31 78 72 97 78 61
54 47 -28 76 70 93 75 58
51 46 -26 75 69 90 72 55
48 45 -24 73 68 86 69 52
45 44 -21 72 67 82 65 49
43 42 -19 70 65 78 62 46
40 39 -16 68 63 74 58 43
38 38 -14 66 61 70 54 39
35 36 -12 64 58 66 50 36
33 34 -9 62 56 63 47 32
31 33 -8 60 53 59 43 30
29 32 -7 57 50 55 39 27
28 31 -6 54 47 51 35 24
26 30 -5 51 44 47 32 22
24 29 -4 48 40 43 29 19
23 28 -3 46 38 39 26 18
22 26 -2 43 36 36 24 16
22 25 -2 39 34 34 22 15
21 24 0 37 32 32 20 13
21 23 0 34 30 29 18 12
19 22 1 31 28 27 16 10
18 20 1 28 25 24 14 8
16 19 0 25 22 21 12 7
15 18 0 22 19 18 9 5
13 17 0 19 16 15 7 3
12 16 -2 17 14 14 6 2
12 16 -2 15 12 13 5 2
12 16 -2 14 10 12 5 2
12 16 -2 12 8 12 4 2
12 16 -2 10 6 11 4 2
12 17 -2 8 5 9 3 2
11 16 -2 6 3 7 1 1
11 15 -3 5 2 5 0 0
10 14 -3 3 1 3 -2 -2
10 13 -3 1 0 1 -3 -3
9 12 -4 0 -2 0 -4 -4
8 11 -5 -2 -4 -2 -5 -4
8 11 -5 -3 -5 -3 -6 -5
7 10 -6 -4 -7 -3 -6 -5
7 10 -6 -5 -8 -4 -7 -5
6 9 -7 -6 -9 -5 -8 -6
7 10 -7 -5 -9 -5 -8 -6
8 11 -7 -5 -8 -5 -8 -6
9 12 -7 -4 -8 -5 -8 -6
10 13 -7 -4 -8 -5 -8 -6
11 14 -7 -3 -7 -4 -9 -6
10 14 -7 -4 -7 -4 -9 -6
10 13 -6 -5 -7 -5 -9 -6
9 13 -6 -6 -7 -5 -9 -6
9 13 -6 -7 -7 -5 -9 -6
8 12 -5 -8 -8 -6 -9 -6
8 11 -5 -8 -9 -7 -10 -6
8 11 -6 -8 -9 -7 -10 -7
8 10 -6 -8 -10 -8 -11 -7
8 10 -6 -8 -10 -8 -11 -7
8 9 -7 -8 -11 -9 -12 -8
9 9 -7 -8 -11 -9 -12 -8
10 10 -6 -8 -11 -8 -11 -7
10 11 -6 -8 -11 -8 -11 -7
11 11 -6 -8 -11 -8 -11 -7
12 12 -5 -8 -10 -7 -10 -6
12 12 -5 -8 -10 -7 -10 -6
12 13 -5 -7 -9 -7 -10 -6
12 13 -5 -7 -9 -7 -10 -6
12 13 -5 -7 -9 -7 -10 -6
12 14 -5 -6 -8 -6 -9 -5
12 14 -5 -6 -8 -6 -9 -5
12 14 -5 -5 -8 -5 -9 -5
12 14 -5 -5 -8 -4 -9 -5
12 14 -5 -5 -8 -4 -9 -5
13 15 -4 -4 -7 -3 -8 -4
13 16 -4 -4 -7 -3 -7 -4
14 17 -4 -4 -7 -3 -6 -4
15 17 -4 -4 -7 -3 -6 -4
15 18 -4 -4 -7 -3 -5 -4
16 19 -4 -3 -7 -3 -4 -4
15 19 -4 -3 -7 -3 -4 -4
14 18 -4 -3 -7 -3 -4 -4
13 17 -4 -3 -7 -3 -4 -4
12 17 -4 -3 -7 -3 -4 -4
12 17 -5 -4 -6 -3 -5 -4
13 18 -5 -4 -6 -3 -4 -3
15 20 -4 -3 -5 -2 -3 -2
17 22 -4 -2 -5 -2 -3 -2
19 24 -4 -2 -5 -2 -2 0
20 25 -3 0 -4 0 0 1
20 24 -3 0 -4 0 0 1
20 23 -4 -2 -5 0 -2 0
20 23 -4 -3 -6 0 -3 0
20 22 -4 -3 -6 0 -3 0
19 21 -5 -4 -7 0 -4 -2
18 21 -5 -4 -7 0 -4 -2
17 20 -5 -4 -7 0 -3 -2
17 19 -5 -4 -7 0 -3 -2
16 19 -5 -4 -7 0 -3 -2
15 18 -5 -4 -8 -2 -2 -2
15 19 -5 -4 -8 -2 -2 -2
16 20 -5 -5 -8 -2 -2 -2
17 20 -5 -6 -8 -2 -2 -2
17 21 -5 -6 -8 -2 -2 -2
18 22 -5 -7 -9 -2 -3 -2
18 22 -5 -7 -9 -2 -3 -2
17 21 -5 -7 -10 -3 -4 -2
16 21 -5 -7 -10 -4 -4 -2
16 21 -5 -7 -10 -4 -4 -2
15 20 -6 -8 -11 -5 -5 -3
15 20 -6 -8 -11 -5 -5 -3
16 20 -6 -8 -11 -6 -5 -3
16 20 -6 -8 -11 -6 -5 -3
16 20 -6 -8 -11 -6 -5 -3
17 21 -7 -9 -11 -7 -4 -3
17 21 -7 -9 -12 -7 -4 -3
17 20 -7 -10 -13 -8 -5 -4
17 19 -7 -10 -13 -8 -6 -4
17 19 -7 -10 -14 -8 -6 -4
17 18 -7 -11 -15 -9 -7 -5
17 18 -7 -11 -15 -9 -7 -5
16 18 -7 -12 -15 -9 -7 -5
16 18 -7 -12 -15 -9 -7 -5
16 18 -7 -12 -15 -9 -7 -5
15 17 -7 -13 -14 -9 -7 -4
15 17 -7 -13 -14 -9 -7 -4
14 17 -7 -12 -14 -9 -7 -4
14 17 -7 -11 -14 -9 -7 -4
14 17 -7 -11 -14 -9 -7 -4
13 17 -7 -10 -13 -10 -8 -5
13 17 -7 -10 -14 -10 -8 -5
13 17 -7 -11 -15 -10 -8 -5
13 17 -7 -12 -15 -10 -8 -5
13 17 -7 -12 -16 -10 -8 -5
13 17 -7 -13 -17 -11 -9 -5
12 16 -7 -13 -17 -11 -9 -5
11 15 -8 -14 -17 -12 -9 -6
11 15 -9 -14 -17 -13 -9 -6
10 14 -9 -14 -17 -13 -9 -6
9 13 -10 -15 -18 -14 -10 -7
9 13 -10 -15 -18 -14 -10 -7
8 13 -10 -15 -18 -14 -10 -7
8 13 -10 -15 -18 -14 -10 -7
8 13 -10 -15 -18 -14 -10 -7
7 14 -9 -15 -18 -13 -10 -6
7 13 -9 -15 -18 -14 -10 -6
7 12 -10 -16 -19 -15 -11 -7
7 11 -10 -16 -19 -15 -12 -8
7 10 -10 -16 -19 -16 -12 -8
8 9 -11 -17 -20 -17 -13 -9
8 9 -11 -17 -20 -17 -13 -9
8 9 -11 -18 -21 -17 -13 -10
8 9 -11 -18 -21 -17 -13 -10
8 9 -11 -18 -21 -17 -13 -10
7 9 -12 -19 -22 -16 -14 -11
7 9 -12 -19 -22 -16 -14 -11
7 8 -12 -19 -22 -16 -14 -11
7 8 -12 -19 -22 -16 -14 -11
7 8 -12 -19 -22 -16 -14 -11
7 7 -12 -19 -23 -17 -15 -10
6 7 -12 -19 -23 -17 -15 -10
5 7 -12 -19 -23 -17 -14 -10
5 7 -12 -19 -23 -17 -14 -10
4 7 -12 -19 -23 -17 -14 -10
3 8 -11 -20 -23 -17 -13 -11
3 8 -11 -20 -23 -17 -13 -11
3 8 -11 -20 -22 -17 -13 -11
3 8 -11 -20 -22 -17 -13 -11
3 8 -11 -20 -22 -17 -13 -11
3 7 -10 -19 -21 -18 -14 -10
2 6 -10 -19 -22 -18 -14 -10
1 5 -11 -20 -23 -18 -15 -11
1 4 -12 -20 -23 -18 -15 -11
0 3 -12 -20 -24 -18 -15 -11
-2 2 -13 -21 -25 -19 -16 -12
-2 4 -12 -20 -24 -19 -16 -12
0 5 -11 -19 -23 -18 -15 -11
1 6 -10 -18 -23 -17 -14 -10
1 8 -9 -17 -22 -17 -14 -10
2 9 -8 -16 -21 -16 -13 -9
2 9 -8 -16 -21 -16 -13 -9
2 9 -9 -17 -21 -17 -13 -9
2 9 -9 -18 -21 -17 -13 -9
2 9 -9 -18 -21 -17 -13 -9
3 8 -10 -19 -21 -18 -14 -10
4 8 -10 -19 -21 -18 -14 -10
5 9 -10 -19 -21 -19 -14 -10
6 10 -10 -19 -21 -19 -14 -10
7 10 -10 -19 -21 -19 -14 -10
8 11 -10 -20 -22 -20 -14 -11
8 11 -10 -20 -22 -20 -14 -11
7 10 -10 -20 -22 -19 -14 -11
7 10 -10 -20 -22 -19 -14 -11
7 10 -10 -20 -22 -19 -14 -11
6 9 -10 -19 -22 -18 -14 -10
6 9 -10 -19 -22 -18 -14 -10
5 8 -10 -19 -23 -18 -14 -10
4 8 -10 -19 -23 -18 -14 -10
4 8 -10 -19 -23 -18 -14 -10
3 7 -11 -20 -24 -19 -15 -11
3 7 -11 -20 -24 -19 -15 -11
3 6 -11 -20 -23 -19 -15 -11
3 6 -11 -20 -23 -19 -15 -11
3 6 -11 -20 -23 -19 -15 -11
4 5 -10 -21 -22 -19 -15 -11
3 4 -10 -21 -22 -19 -15 -11
2 3 -10 -21 -23 -19 -15 -11
1 3 -10 -21 -23 -19 -15 -11
0 2 -10 -21 -23 -19 -15 -11
-2 1 -11 -21 -24 -20 -16 -12
0 2 -11 -21 -24 -20 -16 -12
1 3 -11 -21 -24 -20 -15 -12
2 3 -11 -21 -24 -20 -15 -12
3 4 -11 -21 -24 -20 -15 -12
4 5 -10 -21 -23 -19 -14 -11
3 4 -10 -21 -23 -19 -14 -11
1 3 -10 -21 -23 -20 -15 -11
0 3 -10 -21 -23 -20 -15 -11
-2 2 -10 -21 -23 -20 -15 -11
-3 1 -10 -22 -24 -21 -16 -12
-3 1 -10 -22 -24 -21 -16 -12
-3 2 -10 -22 -24 -21 -15 -11
-3 2 -10 -22 -24 -21 -15 -11
-3 2 -10 -22 -24 -21 -15 -11
-2 3 -9 -21 -23 -20 -14 -10
-2 3 -9 -21 -23 -20 -14 -10
-2 3 -9 -21 -23 -20 -14 -10
-2 3 -9 -21 -23 -20 -14 -10
-2 3 -9 -21 -23 -20 -14 -10
-2 2 -9 -22 -24 -21 -15 -11
-2 2 -9 -22 -24 -21 -15 -11
-2 2 -9 -22 -24 -20 -15 -11
-2 2 -9 -22 -24 -20 -15 -11
-2 2 -9 -22 -24 -20 -15 -11
-2 3 -8 -21 -23 -19 -15 -10
-3 3 -8 -21 -23 -19 -15 -10
-4 2 -9 -22 -23 -20 -15 -11
-4 1 -9 -22 -23 -20 -15 -11
-5 1 -9 -22 -23 -20 -15 -11
-6 0 -10 -23 -24 -21 -16 -12
-6 0 -10 -23 -24 -21 -16 -12
-5 0 -11 -23 -24 -21 -17 -12
-5 0 -11 -23 -24 -21 -17 -12
-5 0 -11 -23 -24 -21 -17 -12
-4 0 -12 -24 -25 -22 -18 -13
-4 0 -11 -23 -24 -22 -17 -13
-4 0 -10 -22 -23 -21 -16 -13
-4 0 -9 -21 -23 -20 -16 -13
-4 0 -8 -20 -22 -20 -15 -13
-4 -2 -6 -18 -20 -18 -14 -12
-2 0 -4 -16 -18 -16 -12 -10
1 2 -2 -14 -15 -14 -10 -8
3 3 1 -12 -12 -12 -9 -6
5 4 3 -10 -10 -10 -7 -4
6 5 4 -8 -8 -9 -6 -3
4 5 4 -8 -8 -9 -6 -3
2 5 4 -8 -8 -9 -7 -4
0 5 4 -8 -8 -9 -7 -5
-3 5 4 -8 -8 -9 -7 -5
-3 4 3 -9 -9 -9 -8 -6
0 6 3 -8 -8 -8 -6 -4
2 8 3 -7 -7 -7 -5 -2
4 9 3 -7 -6 -7 -4 1
6 11 3 -6 -5 -6 -2 3
8 12 3 -6 -5 -5 0 4
8 11 -2 -9 -8 -7 -3 3
7 10 -6 -12 -11 -9 -4 2
6 9 -10 -15 -15 -11 -5 1
6 8 -14 -18 -18 -13 -7 0
5 7 -16 -20 -20 -14 -8 -2
5 7 -17 -22 -21 -15 -8 -2
6 7 -18 -24 -21 -16 -8 -2
7 6 -19 -26 -22 -17 -8 -2
7 6 -20 -28 -23 -18 -8 -2
8 5 -21 -29 -24 -19 -9 -3
8 4 -20 -29 -24 -19 -9 -3
8 4 -20 -29 -25 -19 -9 -3
7 3 -19 -28 -26 -19 -10 -3
7 2 -18 -28 -26 -19 -10 -3
6 1 -17 -27 -27 -20 -11 -4
5 1 -17 -27 -27 -20 -11 -4
5 1 -16 -27 -27 -20 -11 -4
4 1 -15 -26 -26 -19 -10 -4
3 1 -15 -26 -26 -19 -10 -4
2 0 -14 -25 -25 -18 -9 -3
0 0 -14 -26 -25 -20 -11 -5
-2 0 -14 -26 -26 -21 -12 -7
-3 -2 -14 -27 -27 -23 -14 -9
-5 -2 -14 -28 -27 -25 -16 -11
-6 -3 -14 -29 -28 -26 -17 -12
-7 -5 -15 -30 -30 -27 -19 -12
-8 -6 -15 -31 -31 -28 -20 -13
-9 -8 -16 -32 -33 -29 -21 -14
-10 -10 -17 -33 -35 -30 -23 -14
-11 -11 -18 -34 -36 -31 -24 -15
-11 -11 -18 -34 -36 -31 -24 -15
-11 -11 -18 -34 -36 -31 -24 -15
-12 -11 -18 -34 -36 -31 -23 -15
-12 -11 -18 -34 -36 -31 -23 -15
-13 -11 -17 -34 -35 -31 -22 -15
-13 -11 -17 -34 -35 -31 -22 -15
-13 -11 -17 -34 -35 -31 -22 -15
-14 -12 -16 -34 -35 -31 -22 -15
-14 -12 -16 -34 -35 -31 -22 -15
-15 -13 -15 -33 -34 -30 -23 -16
-15 -13 -15 -33 -34 -30 -23 -16
-15 -13 -15 -33 -34 -30 -23 -16
-16 -13 -15 -32 -34 -30 -23 -16
-16 -13 -15 -32 -34 -30 -23 -16
-17 -13 -15 -31 -34 -31 -24 -17
-17 -13 -15 -31 -34 -31 -24 -17
-17 -13 -15 -31 -34 -31 -24 -17
-18 -14 -15 -31 -34 -31 -24 -17
-18 -14 -15 -31 -34 -31 -24 -17
-19 -15 -14 -30 -33 -30 -24 -17
-18 -15 -14 -30 -33 -30 -24 -17
-18 -14 -14 -30 -33 -30 -24 -17
-17 -13 -14 -30 -33 -30 -24 -17
-16 -13 -14 -30 -33 -30 -24 -17
-15 -12 -13 -29 -32 -30 -23 -17
-16 -10 -10 -27 -29 -29 -23 -17
-17 -9 -7 -24 -25 -29 -22 -17
-18 -7 -3 -22 -22 -28 -21 -16
-19 -5 1 -19 -18 -27 -21 -16
-19 -4 3 -14 -11 -16 -12 -11
-14 -4 4 -5 3 7 8 0
-10 -3 5 4 16 30 27 10
-6 -2 6 12 29 53 47 19
-2 -2 7 21 43 76 66 29
7 0 7 33 60 107 93 44
20 1 5 51 81 146 127 64
32 2 3 68 102 185 161 84
46 3 0 86 123 223 195 103
59 4 -3 103 145 262 230 123
67 -2 -2 116 157 279 238 130
70 -15 5 126 160 267 213 115
72 -29 12 134 162 255 186 102
75 -44 19 142 164 242 159 88
78 -58 26 151 167 230 134 74
72 -68 31 147 157 197 96 54
54 -72 34 123 132 137 45 24
35 -77 37 100 105 76 -7 -5
16 -82 40 77 78 16 -58 -34
-3 -88 44 54 53 -44 -109 -63
-17 -91 51 42 36 -82 -141 -83
-24 -92 63 45 33 -93 -146 -91
-32 -92 75 48 29 -103 -151 -98
-39 -93 88 51 26 -114 -156 -105
-47 -94 100 54 22 -124 -162 -112
-52 -95 110 58 20 -129 -162 -115
-55 -93 117 63 22 -121 -154 -112
-57 -91 125 69 24 -115 -147 -109
-59 -89 132 74 26 -109 -139 -106
-61 -87 139 79 28 -102 -131 -102
-63 -82 143 76 25 -98 -124 -99
-65 -76 143 57 13 -98 -120 -95
-66 -70 144 38 0 -98 -116 -91
-68 -64 145 19 -14 -98 -112 -87
-70 -58 145 1 -26 -98 -108 -82
-71 -54 146 -12 -34 -97 -104 -79
-72 -54 148 -16 -35 -96 -101 -77
-72 -53 149 -20 -35 -94 -98 -75
-73 -52 151 -24 -36 -93 -95 -73
-74 -52 153 -28 -37 -91 -91 -72
-75 -51 154 -32 -39 -90 -89 -70
-74 -49 153 -35 -43 -87 -86 -68
-72 -48 151 -39 -46 -85 -83 -66
-71 -46 150 -43 -49 -82 -81 -64
-69 -44 148 -47 -52 -80 -79 -62
-68 -43 145 -49 -54 -78 -76 -60
-66 -41 140 -48 -54 -77 -74 -58
-64 -41 134 -46 -54 -76 -71 -56
-62 -40 129 -45 -54 -75 -69 -54
-60 -39 123 -43 -54 -74 -66 -53
-57 -38 114 -41 -55 -72 -63 -50
-54 -36 102 -41 -54 -67 -59 -47
-51 -35 90 -41 -54 -63 -56 -44
-48 -33 77 -40 -53 -58 -52 -40
-45 -31 65 -40 -52 -54 -49 -36
-40 -29 54 -38 -50 -50 -45 -33
-35 -25 45 -34 -45 -45 -39 -29
-30 -22 36 -30 -39 -39 -34 -26
-25 -18 27 -27 -35 -34 -30 -22
-20 -15 19 -23 -30 -29 -25 -19
-16 -12 13 -19 -27 -25 -22 -16
-14 -10 11 -17 -24 -22 -19 -14
-13 -8 10 -14 -22 -19 -17 -12
-11 -6 8 -11 -19 -16 -14 -10
-9 -4 6 -8 -17 -13 -12 -8
-8 -2 5 -6 -15 -11 -10 -6
-6 -2 4 -6 -14 -10 -10 -6
-5 0 4 -5 -12 -9 -10 -6
-3 1 3 -4 -11 -7 -9 -6
0 1 2 -4 -9 -6 -9 -6
1 2 1 -3 -8 -5 -8 -5
2 3 1 -2 -8 -4 -7 -4
3 3 1 1 -8 -4 -6 -3
5 4 0 2 -8 -3 -5 0
6 5 0 4 -8 -2 -4 1
7 6 -2 5 -7 0 -3 2
6 5 -3 5 -7 0 -3 1
4 3 -4 5 -7 0 -3 1
3 2 -5 4 -7 0 -3 0
1 0 -6 4 -7 0 -3 -2
0 -2 -7 3 -6 1 -3 -3
0 -2 -7 3 -6 1 -2 -3
0 -2 -7 4 -6 1 0 -2
1 -2 -8 5 -5 1 2 0
1 -2 -8 5 -5 1 3 0
2 0 -9 6 -4 2 4 1
3 1 -9 6 -4 3 4 1
4 2 -9 6 -3 3 4 1
5 4 -9 7 -2 4 4 1
6 5 -9 7 -2 5 4 1
7 6 -10 8 0 6 4 2
7 6 -11 8 0 6 4 2
7 6 -11 8 0 6 4 2
8 6 -12 9 1 6 5 3
8 6 -13 9 1 6 5 3
9 6 -14 10 2 7 6 4
9 7 -14 11 3 7 6 4
10 7 -13 11 4 8 6 5
11 8 -12 12 5 9 7 6
11 9 -12 13 6 9 7 6
12 10 -11 14 7 10 8 7
11 9 -12 14 7 10 8 7
11 8 -12 14 7 11 8 7
10 7 -13 14 7 12 8 7
9 6 -14 14 7 12 8 7
8 5 -15 14 7 13 9 7
11 7 -15 15 8 14 10 8
13 9 -15 16 10 16 11 8
15 11 -14 17 11 17 12 9
17 13 -14 18 13 19 13 10
19 15 -13 19 14 20 14 11
18 13 -13 19 14 20 15 11
18 11 -13 19 14 20 15 12
17 9 -14 20 14 20 16 13
16 8 -14 20 14 20 17 13
15 6 -15 21 15 21 18 14
15 8 -15 22 16 23 19 15
15 10 -15 23 17 25 20 16
16 12 -15 25 18 27 22 18
16 13 -15 26 19 28 23 19
17 15 -16 27 20 30 24 20
19 16 -16 28 21 31 25 21
21 16 -17 28 22 32 25 22
23 17 -18 29 24 34 26 23
24 18 -18 30 25 35 27 24
26 19 -19 31 26 36 28 25
26 19 -19 32 27 38 30 26
27 19 -19 33 28 39 32 27
28 19 -20 35 30 42 34 29
28 19 -20 36 31 43 35 30
29 20 -21 37 32 45 37 31
31 21 -22 38 33 47 39 33
33 22 -23 39 34 49 42 34
35 23 -24 42 36 51 44 36
36 24 -25 43 37 53 45 37
38 25 -26 44 38 55 47 39
39 25 -26 46 40 57 49 40
40 25 -27 47 42 60 51 40
42 25 -28 49 44 62 53 42
43 25 -28 50 45 64 54 43
44 26 -29 52 47 66 56 44
45 28 -30 54 48 69 58 47
46 30 -31 55 50 71 61 50
47 32 -32 57 51 74 63 53
48 33 -33 58 53 76 65 56
50 35 -34 60 54 78 67 58
53 36 -35 61 55 80 69 59
57 38 -36 62 56 84 71 61
61 39 -37 64 57 86 73 62
64 42 -38 65 58 88 75 64
67 43 -39 66 59 90 77 65
66 43 -40 67 60 92 79 65
66 43 -41 68 61 94 81 66
65 43 -43 69 62 95 84 66
64 43 -45 70 63 97 86 67
63 44 -46 71 64 99 88 68
65 45 -46 72 65 101 90 70
67 47 -46 73 67 103 92 73
68 48 -46 74 68 105 93 75
70 50 -46 76 70 107 95 77
72 51 -46 77 71 109 97 79
73 52 -46 78 72 111 98 80
73 53 -46 79 74 112 100 82
74 54 -46 80 75 114 101 84
75 55 -46 82 77 115 103 86
76 56 -45 84 78 117 104 87
75 56 -45 84 78 117 104 87
75 55 -45 84 78 117 104 87
74 55 -45 84 78 116 103 86
73 54 -45 84 78 116 103 86
72 53 -44 84 78 115 102 85
70 53 -41 84 78 115 101 82
67 52 -40 84 78 114 99 80
65 52 -38 82 77 114 98 78
63 51 -37 82 77 113 96 76
61 50 -35 81 76 111 94 74
59 50 -34 80 75 108 91 71
58 50 -32 80 75 104 88 68
56 49 -31 79 74 101 85 65
55 49 -29 78 73 97 81 62
53 48 -28 77 72 94 78 59
51 47 -25 76 72 92 76 57
49 47 -22 75 71 89 74 55
48 46 -19 74 71 87 73 54
46 45 -16 73 70 85 71 52
43 44 -13 72 69 81 68 49
39 42 -10 70 66 77 64 46
36 38 -8 68 64 73 60 43
32 36 -6 67 62 69 56 38
29 34 -3 65 59 65 51 35
26 32 0 63 57 61 47 32
24 30 0 59 55 58 44 30
22 29 1 56 52 54 39 28
20 27 1 53 50 50 36 26
18 26 2 50 48 46 32 24
16 24 3 47 45 43 29 22
14 21 3 44 42 39 26 20
11 19 3 40 38 36 24 18
9 16 3 37 34 33 22 16
7 13 3 34 31 30 19 14
5 11 2 31 28 27 17 12
4 11 2 28 25 24 15 10
4 11 2 25 22 22 12 8
3 11 2 22 19 20 10 6
2 11 2 19 16 17 8 4
1 12 2 16 14 15 6 2
1 11 2 14 12 13 5 2
1 10 1 12 10 11 5 1
0 9 1 10 8 9 4 1
0 7 0 8 6 7 3 0
-2 6 -2 6 4 5 2 -2
-3 5 -2 5 3 5 2 -2
-3 4 -2 4 3 5 1 -2
-4 3 -2 3 2 4 1 -2
-5 2 -2 2 1 4 0 -2
-6 1 0 1 0 3 -2 -2
-6 1 -2 0 -2 1 -3 -3
-6 1 -2 -2 -3 0 -4 -4
-6 2 -3 -3 -4 -3 -5 -5
-6 2 -4 -5 -6 -4 -7 -6
-6 3 -5 -6 -7 -6 -8 -7
-6 3 -5 -6 -7 -6 -8 -7
-5 3 -5 -7 -7 -6 -8 -7
-5 2 -5 -7 -8 -6 -8 -7
-4 2 -5 -8 -8 -6 -8 -7
-3 1 -6 -9 -9 -7 -9 -6
-3 2 -5 -9 -9 -7 -9 -6
-3 2 -5 -8 -9 -7 -9 -6
-2 3 -4 -8 -8 -7 -9 -6
-2 4 -3 -7 -8 -7 -9 -6
0 5 -2 -6 -7 -7 -9 -6
0 5 -2 -6 -7 -7 -9 -7
-2 5 -3 -6 -7 -7 -9 -8
-2 5 -3 -7 -8 -8 -9 -9
-3 5 -4 -7 -8 -8 -9 -10
-4 5 -5 -8 -9 -9 -10 -11
-4 5 -5 -8 -9 -8 -10 -10
-4 5 -4 -8 -8 -8 -9 -9
-4 4 -4 -7 -8 -7 -9 -8
-4 4 -3 -7 -7 -6 -8 -6
-4 3 -2 -6 -6 -5 -7 -5
-4 4 -2 -6 -6 -5 -7 -5
-4 5 -2 -6 -6 -5 -7 -5
-4 6 -3 -6 -7 -5 -8 -5
-4 7 -3 -6 -7 -5 -8 -5
-3 8 -4 -6 -8 -6 -9 -5
-2 8 -4 -6 -7 -6 -9 -5
-2 8 -4 -6 -7 -5 -8 -5
0 8 -3 -6 -6 -5 -8 -4
1 8 -3 -6 -5 -4 -7 -4
2 8 -2 -5 -4 -3 -6 -3
2 8 -2 -5 -4 -3 -6 -3
2 7 -2 -5 -4 -3 -6 -3
2 7 -2 -5 -4 -3 -5 -2
2 6 -2 -5 -4 -3 -5 -2
3 5 -3 -5 -5 -3 -4 0
3 7 -3 -5 -5 -3 -4 0
4 9 -2 -4 -4 -2 -3 0
5 12 -2 -4 -3 0 -3 0
6 14 0 -3 -2 1 -2 0
7 16 1 -2 0 2 0 -2
7 16 1 -2 0 2 0 -2
7 16 1 -2 0 2 0 -2
7 16 1 -3 0 2 0 0
7 16 1 -3 0 2 0 0
7 16 0 -4 -2 2 0 1
7 16 0 -4 -2 2 0 1
7 15 0 -4 -2 2 0 1
7 15 -2 -5 -3 1 -2 0
7 14 -2 -5 -3 1 -2 0
8 13 -3 -6 -4 0 -3 -2
8 13 -3 -6 -4 0 -3 -2
7 14 -3 -6 -4 0 -3 -2
7 15 -3 -6 -4 0 -3 0
6 16 -3 -6 -4 0 -3 0
5 17 -2 -5 -4 0 -2 1
5 17 -2 -5 -4 0 -2 1
6 17 -2 -5 -4 0 -2 1
6 17 -2 -6 -4 0 -2 1
7 17 -2 -6 -4 0 -2 1
8 16 -3 -7 -5 -2 -3 0
8 16 -3 -7 -5 -2 -3 0
8 16 -3 -7 -5 -2 -3 0
8 15 -3 -8 -6 -3 -4 0
8 15 -3 -8 -6 -3 -4 0
9 14 -4 -9 -7 -4 -5 -2
8 14 -4 -9 -7 -4 -5 -2
7 14 -4 -9 -7 -4 -5 -2
6 14 -3 -9 -7 -4 -5 -2
5 14 -3 -9 -7 -4 -5 -2
4 14 -2 -9 -8 -5 -4 0
5 14 -2 -9 -8 -5 -4 0
6 15 -2 -9 -8 -5 -4 0
7 15 -2 -9 -8 -5 -4 0
8 16 -2 -9 -8 -5 -4 0
9 17 -3 -9 -8 -6 -5 1
9 17 -3 -9 -8 -6 -5 1
9 17 -3 -9 -8 -7 -5 1
9 17 -3 -10 -9 -7 -6 0
9 17 -3 -10 -9 -8 -6 0
9 18 -4 -11 -10 -9 -7 -2
9 18 -4 -11 -10 -9 -7 -2
10 19 -4 -11 -10 -8 -7 -2
10 20 -3 -11 -9 -8 -6 -2
11 21 -3 -11 -9 -7 -6 -2
12 22 -2 -10 -8 -6 -5 0
12 22 -2 -10 -8 -6 -5 0
12 21 -2 -11 -8 -7 -5 0
13 21 -3 -11 -9 -7 -6 -2
13 20 -3 -12 -9 -8 -6 -2
14 19 -4 -13 -10 -9 -7 -3
14 19 -4 -13 -10 -9 -7 -3
14 20 -4 -13 -10 -9 -7 -3
13 20 -4 -13 -10 -9 -7 -3
13 21 -4 -13 -10 -9 -7 -3
12 22 -3 -13 -11 -10 -8 -4
11 21 -3 -13 -11 -10 -8 -4
9 19 -3 -13 -11 -10 -8 -4
8 18 -3 -14 -11 -11 -8 -4
7 17 -3 -14 -11 -11 -8 -4
5 15 -4 -15 -12 -12 -9 -3
5 15 -4 -15 -12 -12 -9 -3
6 15 -4 -15 -13 -12 -9 -3
6 16 -4 -15 -13 -12 -9 -4
7 16 -4 -15 -14 -12 -9 -4
8 17 -4 -16 -15 -12 -8 -5
8 17 -4 -16 -15 -12 -8 -5
8 17 -4 -16 -14 -12 -8 -5
8 17 -4 -16 -14 -12 -8 -4
8 17 -4 -16 -13 -12 -8 -4
8 17 -4 -15 -12 -11 -8 -3
8 17 -4 -15 -12 -11 -8 -3
8 17 -4 -15 -12 -12 -9 -4
8 17 -4 -15 -12 -12 -10 -5
8 17 -4 -15 -12 -13 -11 -6
8 18 -5 -16 -13 -14 -12 -7
8 17 -5 -16 -13 -14 -12 -7
8 16 -5 -16 -13 -14 -12 -7
7 15 -4 -16 -13 -14 -11 -6
7 14 -4 -16 -13 -14 -11 -6
6 13 -3 -15 -13 -14 -10 -5
6 14 -3 -15 -13 -14 -10 -5
6 15 -3 -15 -13 -14 -10 -5
6 16 -4 -16 -13 -14 -11 -5
6 17 -4 -16 -13 -14 -11 -5
7 18 -5 -17 -13 -14 -12 -6
7 18 -5 -17 -13 -14 -12 -6
6 17 -5 -17 -13 -14 -12 -6
6 17 -5 -17 -13 -14 -11 -6
5 16 -5 -17 -13 -14 -11 -6
4 15 -4 -17 -13 -13 -10 -6
4 15 -4 -17 -13 -13 -10 -6
5 15 -4 -17 -13 -13 -11 -7
6 15 -4 -17 -13 -14 -11 -7
7 15 -4 -17 -13 -14 -12 -8
8 15 -5 -18 -14 -15 -13 -9
8 15 -5 -18 -14 -15 -13 -9
7 14 -5 -18 -14 -15 -13 -9
7 13 -5 -18 -14 -15 -12 -8
6 12 -5 -18 -14 -15 -12 -8
5 11 -4 -18 -13 -15 -11 -7
6 11 -4 -18 -13 -15 -11 -7
7 11 -4 -18 -13 -15 -11 -7
8 12 -4 -18 -13 -15 -11 -6
9 12 -4 -18 -13 -15 -11 -6
10 13 -4 -17 -13 -15 -10 -5
9 13 -4 -17 -13 -15 -10 -5
7 13 -4 -17 -13 -15 -10 -5
5 12 -4 -17 -13 -16 -10 -5
4 12 -4 -17 -13 -16 -10 -5
2 11 -5 -18 -13 -17 -11 -6
3 12 -5 -18 -13 -17 -11 -6
5 14 -5 -18 -13 -17 -11 -6
6 16 -5 -18 -12 -17 -11 -7
7 17 -5 -18 -12 -17 -11 -7
9 19 -4 -18 -11 -16 -11 -8
8 16 -4 -18 -11 -16 -11 -8
6 13 -4 -18 -12 -17 -12 -8
5 11 -5 -18 -13 -18 -13 -8
4 8 -5 -18 -14 -19 -14 -8
2 5 -6 -19 -15 -20 -15 -8
2 6 -6 -19 -15 -20 -15 -8
2 7 -6 -19 -14 -19 -14 -8
2 8 -6 -19 -14 -19 -13 -7
2 9 -6 -19 -13 -18 -12 -7
3 10 -6 -18 -12 -17 -11 -6
3 10 -6 -18 -12 -17 -11 -6
3 10 -6 -18 -12 -17 -12 -7
3 11 -6 -18 -12 -18 -13 -8
3 11 -6 -18 -12 -18 -14 -9
3 12 -6 -19 -13 -19 -15 -10
2 11 -6 -19 -13 -19 -15 -10
0 10 -6 -19 -13 -19 -15 -10
-3 8 -6 -19 -13 -19 -15 -10
-4 7 -6 -19 -13 -19 -15 -10
-6 5 -7 -20 -14 -19 -14 -9
-5 5 -6 -19 -13 -19 -13 -9
-3 6 -4 -18 -12 -18 -12 -9
0 6 -2 -17 -11 -17 -11 -9
1 7 0 -16 -10 -16 -10 -9
3 8 2 -15 -8 -15 -9 -8
3 9 2 -14 -6 -14 -9 -6
3 10 3 -12 -5 -13 -8 -5
3 11 3 -10 -3 -11 -7 -3
3 12 4 -9 0 -10 -6 0
2 13 5 -7 2 -8 -5 2
2 13 5 -7 2 -8 -5 1
1 13 5 -7 2 -8 -5 0
1 13 5 -8 2 -8 -5 -2
0 13 5 -8 2 -8 -5 -3
-2 12 4 -9 1 -9 -6 -4
0 14 4 -9 1 -8 -5 -3
1 15 4 -9 2 -7 -4 -2
2 17 3 -9 2 -6 -3 0
3 19 3 -9 3 -5 -2 1
4 21 2 -8 4 -4 1 2
4 20 -2 -10 2 -5 0 2
4 18 -4 -12 0 -6 -2 1
4 17 -7 -14 -3 -8 -3 1
4 15 -10 -16 -6 -9 -4 0
5 13 -13 -18 -8 -11 -6 -2
5 13 -14 -20 -9 -12 -6 -2
4 13 -15 -21 -10 -13 -7 -2
4 12 -16 -23 -12 -14 -7 -2
3 12 -17 -25 -13 -15 -8 -2
2 11 -19 -27 -15 -17 -9 -2
2 10 -19 -27 -15 -17 -9 -2
1 9 -18 -27 -15 -17 -9 -3
1 7 -18 -27 -16 -18 -9 -3
0 6 -17 -27 -16 -18 -9 -4
-2 4 -16 -26 -17 -19 -10 -5
-3 4 -16 -26 -17 -19 -10 -5
-4 4 -16 -26 -17 -19 -10 -5
-5 4 -15 -26 -16 -19 -10 -5
-6 4 -15 -26 -16 -19 -10 -5
-7 3 -14 -26 -15 -19 -11 -6
-8 2 -14 -26 -16 -20 -13 -8
-10 1 -14 -26 -17 -22 -15 -10
-12 -2 -14 -27 -18 -24 -17 -12
-14 -3 -14 -27 -19 -26 -20 -15
-16 -5 -14 -28 -20 -28 -22 -17
-16 -6 -14 -29 -20 -28 -22 -17
-16 -7 -14 -30 -21 -29 -23 -17
-16 -8 -15 -31 -22 -30 -23 -18
-16 -9 -15 -32 -23 -31 -24 -18
-17 -11 -16 -33 -24 -32 -25 -19
-17 -11 -16 -33 -24 -32 -25 -19
-17 -11 -16 -33 -24 -32 -25 -19
-17 -11 -16 -33 -24 -32 -25 -19
-17 -11 -16 -33 -24 -32 -25 -19
-17 -12 -17 -34 -25 -32 -24 -18
-17 -12 -17 -34 -25 -32 -24 -18
-18 -12 -17 -34 -25 -32 -24 -18
-19 -12 -17 -33 -24 -32 -24 -19
-20 -12 -17 -33 -24 -32 -24 -19
-21 -11 -16 -32 -23 -32 -25 -20
-21 -11 -16 -32 -23 -32 -25 -20
-21 -11 -15 -32 -23 -32 -25 -20
-20 -11 -15 -31 -23 -32 -25 -21
-20 -11 -14 -31 -23 -32 -25 -21
-19 -12 -13 -30 -22 -31 -25 -22
-19 -12 -13 -30 -22 -31 -25 -22
-19 -13 -13 -30 -22 -31 -25 -22
-19 -13 -13 -30 -22 -31 -24 -22
-19 -14 -13 -30 -22 -31 -24 -22
-20 -15 -13 -30 -22 -31 -23 -21
-20 -12 -13 -30 -22 -31 -23 -20
-20 -9 -12 -30 -21 -31 -23 -19
-20 -6 -11 -30 -21 -30 -22 -17
-20 -3 -10 -30 -20 -30 -22 -16
-19 1 -9 -29 -19 -29 -21 -14
-21 -3 -6 -25 -14 -25 -18 -14
-23 -5 -3 -20 -9 -22 -16 -14
-25 -8 1 -15 -4 -18 -13 -14
-27 -11 5 -11 3 -14 -10 -14
-29 -14 8 -6 9 -8 -5 -14
-21 -12 8 4 24 23 24 3
-14 -9 8 13 39 54 53 19
-6 -7 8 22 55 85 82 35
2 -4 8 31 70 115 111 52
10 0 9 42 87 147 141 68
22 -3 9 59 109 188 177 88
34 -5 9 76 132 229 213 108
47 -7 9 94 154 270 248 129
59 -9 9 111 177 311 284 148
71 -12 8 129 198 348 315 167
65 -27 14 127 191 309 267 141
58 -44 19 125 184 269 220 116
52 -60 25 122 177 230 172 91
46 -76 31 120 170 191 123 66
37 -92 37 117 161 150 74 40
21 -97 44 99 134 94 23 9
4 -101 50 79 107 37 -28 -23
-14 -106 56 60 79 -19 -80 -55
-31 -111 63 40 53 -75 -132 -86
-48 -116 69 22 26 -129 -181 -116
-50 -115 79 36 32 -129 -174 -116
-53 -114 89 50 39 -129 -166 -117
-56 -112 99 64 47 -129 -159 -118
-59 -111 108 78 53 -129 -152 -119
-62 -109 118 92 60 -130 -145 -120
-63 -104 122 84 50 -126 -141 -115
-65 -98 127 74 39 -121 -136 -110
-66 -93 131 66 29 -117 -131 -105
-68 -88 135 57 19 -113 -127 -100
-70 -81 139 49 9 -109 -121 -95
-70 -78 139 35 1 -109 -118 -93
-71 -74 139 22 -8 -109 -114 -90
-71 -71 139 9 -16 -108 -111 -88
-72 -67 139 -5 -25 -108 -107 -85
-73 -63 139 -18 -33 -107 -103 -81
-73 -61 141 -19 -31 -103 -99 -79
-72 -58 144 -21 -29 -99 -95 -76
-72 -55 147 -22 -27 -95 -91 -73
-71 -52 150 -24 -25 -91 -87 -70
-70 -49 153 -26 -22 -87 -81 -67
-70 -51 150 -30 -27 -87 -81 -67
-70 -54 146 -34 -32 -87 -80 -66
-71 -56 143 -39 -37 -87 -79 -65
-71 -59 139 -44 -43 -87 -78 -64
-72 -62 135 -49 -49 -88 -77 -63
-71 -60 130 -47 -48 -85 -74 -60
-70 -58 123 -45 -46 -81 -71 -57
-69 -56 118 -43 -45 -78 -68 -54
-68 -54 112 -40 -43 -75 -65 -51
-66 -52 106 -37 -40 -72 -61 -47
-63 -52 94 -37 -39 -68 -57 -44
-59 -51 81 -37 -38 -64 -53 -40
-56 -51 69 -37 -37 -60 -48 -37
-52 -50 57 -37 -36 -56 -44 -34
-48 -49 45 -36 -35 -52 -38 -31
-44 -44 38 -33 -31 -48 -35 -29
-38 -38 31 -30 -27 -44 -32 -26
-33 -32 25 -27 -23 -38 -28 -24
-28 -27 18 -24 -19 -34 -25 -21
-23 -21 11 -21 -15 -29 -21 -18
-23 -21 10 -19 -13 -27 -19 -16
-22 -20 9 -17 -11 -25 -17 -14
-21 -20 8 -15 -9 -23 -15 -12
-20 -19 7 -13 -7 -21 -13 -10
-19 -18 5 -11 -5 -18 -10 -8
-19 -17 4 -11 -5 -18 -10 -8
-18 -16 3 -10 -5 -17 -9 -8
-17 -15 2 -9 -4 -16 -8 -8
-16 -14 1 -8 -4 -15 -7 -8
-15 -13 0 -7 -3 -14 -6 -7
-15 -13 0 -7 -3 -14 -6 -7
-15 -13 -2 -7 -2 -14 -6 -7
-15 -13 -3 -7 0 -13 -6 -7
-15 -13 -4 -7 1 -13 -6 -7
-15 -14 -5 -7 2 -12 -6 -8
-15 -14 -5 -7 2 -12 -6 -8
-15 -13 -5 -6 3 -11 -5 -7
-15 -13 -5 -5 3 -10 -4 -7
-15 -12 -5 -4 4 -9 -3 -6
-14 -11 -4 -3 5 -8 -2 -5
-12 -11 -4 -3 5 -7 0 -5
-10 -10 -4 -3 6 -6 1 -4
-8 -10 -5 -2 6 -5 2 -3
-6 -9 -5 -2 7 -4 3 -2
-4 -8 -6 0 8 -3 4 0
-4 -8 -6 0 8 -3 4 0
-5 -9 -6 0 8 -3 4 0
-6 -10 -6 0 8 -3 4 0
-7 -11 -6 0 8 -3 4 0
-8 -12 -7 0 8 -3 3 1
-8 -12 -7 0 8 -3 3 1
-8 -12 -8 0 8 -3 3 1
-8 -12 -9 0 8 -3 3 0
-8 -12 -10 0 8 -3 3 0
-8 -12 -10 0 8 -3 3 0
-7 -12 -11 1 9 0 5 0
-5 -10 -10 2 10 1 7 2
-3 -8 -9 3 11 3 8 3
0 -6 -8 4 12 4 10 5
2 -4 -8 5 13 5 11 6
2 -5 -8 6 14 6 12 7
0 -7 -9 6 14 6 11 6
-3 -9 -10 5 14 6 10 6
-5 -11 -11 5 14 6 9 5
-6 -13 -12 5 14 6 9 5
-7 -14 -13 4 14 7 9 5
-7 -13 -13 5 15 8 10 6
-7 -13 -13 5 15 10 11 7
-7 -12 -13 6 16 11 12 8
-7 -12 -13 6 16 12 13 9
-6 -11 -13 7 18 14 14 10
-5 -11 -13 8 19 15 15 11
-4 -10 -13 9 21 16 16 11
-3 -10 -13 10 22 17 17 12
-3 -10 -13 11 23 18 17 12
-2 -8 -14 12 24 20 19 13
0 -7 -14 12 25 21 20 14
1 -6 -15 13 26 23 22 15
2 -5 -15 13 27 24 23 16
2 -4 -15 13 28 25 24 16
3 -3 -16 15 29 27 26 17
3 -3 -17 16 29 29 27 18
3 -3 -18 17 29 30 29 19
3 -3 -19 18 29 32 30 20
3 -3 -19 19 29 33 31 21
5 -4 -20 20 30 35 33 22
6 -3 -20 21 32 37 35 23
8 -3 -20 22 34 38 36 24
9 -2 -20 23 36 40 38 25
10 -2 -20 24 37 42 39 26
12 1 -21 26 39 46 43 29
13 3 -22 28 42 49 46 32
14 5 -23 29 44 52 49 35
15 7 -24 31 46 55 52 38
16 8 -25 32 48 58 54 40
17 9 -26 33 49 60 55 42
17 8 -27 34 50 62 56 42
17 7 -27 35 50 63 57 42
17 6 -28 36 51 65 58 42
17 5 -28 36 51 66 59 42
18 6 -30 38 54 70 63 45
20 9 -32 40 57 74 66 48
22 12 -33 43 60 77 69 50
24 15 -35 45 63 81 72 53
26 18 -36 46 65 85 75 55
28 19 -37 48 67 88 79 59
30 19 -37 50 68 91 84 62
32 20 -37 51 70 94 87 65
34 20 -37 53 71 97 91 68
36 20 -37 54 72 100 94 71
37 21 -38 55 73 102 96 72
37 21 -39 56 74 104 97 73
37 20 -39 57 75 106 99 73
37 20 -40 58 76 108 100 74
37 20 -40 58 76 109 101 74
38 21 -41 59 78 111 103 75
39 24 -43 59 79 113 104 75
40 26 -44 60 81 115 105 75
42 29 -45 60 82 117 106 75
43 31 -46 60 84 118 107 75
44 32 -47 61 85 119 108 76
44 32 -47 62 85 120 109 77
43 32 -47 63 86 121 110 78
43 32 -47 64 86 122 111 79
43 32 -47 64 86 122 112 79
42 31 -47 65 87 123 113 80
42 32 -46 65 87 123 113 80
43 32 -46 65 87 123 113 80
43 33 -45 65 87 123 113 80
43 33 -45 65 87 123 113 80
40 32 -43 65 86 120 110 78
35 30 -40 64 85 116 107 75
31 27 -38 63 82 113 104 73
27 25 -36 62 81 110 101 70
23 23 -35 61 80 107 99 68
22 22 -32 60 79 103 95 65
21 22 -29 60 78 99 92 62
20 22 -26 60 78 95 88 59
19 22 -23 60 77 91 84 56
19 22 -21 60 77 87 80 54
16 21 -19 57 74 80 74 49
13 19 -17 55 71 75 69 45
10 17 -16 53 68 70 63 40
8 15 -14 51 66 64 58 35
5 13 -13 49 63 59 52 31
3 11 -11 47 60 55 49 29
1 9 -9 45 58 51 46 27
0 7 -7 44 56 47 43 25
-3 5 -5 42 54 43 39 23
-4 4 -3 40 52 38 36 21
-5 3 -2 38 50 34 33 19
-6 2 -2 36 48 31 30 18
-6 1 0 34 46 28 27 17
-7 0 0 32 44 24 24 16
-7 -2 0 31 43 21 21 15
-9 -4 1 26 37 18 17 12
-11 -6 1 22 32 16 12 9
-13 -7 1 17 27 14 8 6
-15 -9 1 12 22 11 4 4
-16 -10 1 8 17 9 0 1
-18 -11 0 5 14 6 -2 -2
-19 -12 -2 3 12 3 -2 -4
-20 -13 -3 1 10 0 -2 -6
-21 -14 -4 -2 8 -3 -2 -8
-22 -14 -4 -4 6 -6 -2 -9
-23 -16 -5 -6 4 -9 -4 -11
-23 -17 -6 -8 2 -11 -6 -12
-24 -18 -6 -9 0 -13 -8 -13
-24 -19 -7 -11 -3 -16 -10 -14
-24 -20 -7 -12 -5 -18 -12 -15
-25 -21 -8 -13 -6 -19 -13 -16
-25 -21 -8 -14 -7 -20 -13 -16
-25 -20 -8 -14 -7 -20 -13 -16
-25 -20 -8 -15 -8 -21 -13 -16
-25 -20 -8 -15 -8 -21 -13 -16
-25 -20 -7 -16 -9 -22 -14 -15
-26 -23 -7 -17 -10 -23 -15 -16
-28 -25 -7 -18 -10 -24 -16 -16
-29 -27 -7 -19 -11 -25 -17 -17
-30 -29 -7 -19 -11 -25 -17 -17
-30 -28 -8 -20 -12 -26 -18 -18
-29 -26 -8 -20 -12 -26 -18 -18
-27 -24 -8 -20 -12 -26 -18 -18
-26 -21 -8 -20 -12 -26 -18 -18
-25 -19 -8 -20 -12 -26 -18 -18
-24 -19 -8 -20 -13 -27 -19 -18
-25 -21 -8 -21 -14 -28 -20 -19
-26 -23 -8 -22 -15 -29 -21 -20
-27 -25 -8 -23 -16 -30 -22 -21
-28 -26 -8 -23 -17 -31 -23 -21
-29 -27 -9 -24 -18 -32 -23 -22
-29 -27 -9 -24 -18 -31 -22 -21
-29 -26 -9 -24 -18 -30 -21 -20
-29 -26 -9 -24 -18 -29 -20 -19
-29 -26 -9 -24 -18 -29 -19 -18
-29 -25 -9 -23 -17 -28 -18 -17
-28 -25 -9 -23 -17 -28 -18 -17
-27 -24 -9 -23 -16 -28 -19 -17
-26 -24 -9 -23 -16 -28 -19 -17
-25 -24 -9 -23 -16 -28 -19 -17
-24 -23 -9 -22 -15 -28 -20 -16
-25 -23 -9 -22 -15 -28 -20 -16
-26 -23 -9 -21 -15 -27 -20 -16
-27 -23 -9 -21 -15 -27 -20 -16
-27 -23 -9 -21 -15 -27 -20 -16
-29 -22 -9 -20 -15 -26 -19 -16
-30 -23 -9 -21 -16 -27 -20 -17
-31 -23 -10 -22 -16 -27 -21 -18
-32 -24 -10 -23 -17 -28 -22 -19
-33 -24 -10 -23 -17 -28 -23 -20
-33 -24 -11 -24 -18 -29 -24 -21
-31 -23 -11 -24 -18 -28 -23 -21
-29 -21 -11 -24 -17 -28 -22 -20
-27 -20 -11 -24 -17 -27 -21 -20
-25 -19 -11 -24 -17 -27 -20 -20
-24 -18 -11 -23 -16 -26 -19 -19
-24 -18 -11 -23 -16 -26 -19 -18
-24 -18 -11 -22 -16 -25 -18 -17
-24 -18 -11 -22 -16 -25 -18 -16
-24 -18 -11 -22 -16 -25 -18 -15
-25 -19 -10 -21 -15 -24 -17 -14
-25 -19 -10 -21 -15 -24 -17 -14
-24 -19 -10 -21 -15 -24 -17 -13
-24 -19 -10 -21 -15 -24 -17 -13
-24 -19 -10 -21 -15 -24 -17 -13
-23 -18 -10 -21 -15 -23 -16 -12
-24 -19 -10 -21 -15 -23 -16 -12
-25 -19 -10 -22 -15 -23 -16 -13
-26 -20 -10 -22 -15 -23 -16 -13
-26 -20 -10 -22 -15 -23 -16 -13
-27 -21 -11 -23 -16 -24 -17 -14
-27 -20 -11 -23 -16 -24 -17 -14
-27 -19 -11 -23 -16 -25 -18 -14
-27 -18 -11 -23 -16 -25 -18 -14
-27 -18 -11 -23 -16 -25 -18 -14
-26 -17 -11 -23 -17 -26 -19 -15
-26 -18 -11 -23 -18 -26 -19 -16
-25 -19 -12 -24 -18 -26 -20 -16
-25 -20 -12 -24 -19 -26 -20 -17
-25 -20 -12 -24 -19 -26 -20 -17
-24 -20 -13 -25 -20 -27 -21 -18
-24 -19 -13 -25 -20 -27 -21 -17
-24 -18 -13 -25 -19 -26 -20 -16
-24 -17 -13 -25 -19 -26 -20 -15
-24 -16 -13 -25 -19 -26 -20 -14
-25 -15 -12 -24 -18 -25 -19 -13
-26 -16 -12 -24 -18 -26 -20 -13
-27 -17 -12 -25 -19 -26 -20 -14
-28 -18 -12 -25 -19 -27 -21 -14
-28 -19 -12 -25 -19 -27 -21 -14
-29 -20 -12 -26 -20 -28 -22 -15
-29 -20 -12 -26 -20 -28 -21 -14
-28 -20 -11 -26 -21 -28 -21 -14
-28 -20 -11 -26 -21 -28 -20 -13
-28 -20 -11 -26 -21 -28 -20 -13
-27 -19 -10 -26 -22 -27 -20 -13
-27 -19 -10 -26 -22 -27 -21 -14
-26 -19 -11 -26 -22 -28 -22 -15
-26 -19 -11 -26 -22 -28 -23 -16
-26 -19 -11 -26 -22 -28 -24 -17
-25 -20 -12 -27 -23 -29 -25 -18
-26 -20 -12 -28 -23 -29 -25 -18
-26 -21 -12 -28 -23 -30 -25 -18
-27 -21 -12 -29 -23 -30 -25 -18
-27 -21 -12 -29 -23 -30 -25 -18
-28 -22 -13 -30 -24 -31 -26 -18
-27 -22 -13 -30 -24 -31 -26 -18
-26 -21 -13 -30 -24 -31 -26 -18
-25 -21 -13 -30 -24 -31 -26 -18
-24 -21 -13 -30 -24 -31 -26 -18
-24 -20 -13 -29 -25 -32 -26 -19
-25 -21 -13 -29 -25 -32 -26 -19
-26 -22 -14 -30 -26 -32 -26 -18
-28 -23 -14 -30 -26 -32 -26 -18
-29 -24 -14 -30 -26 -32 -26 -18
-30 -25 -15 -31 -27 -33 -27 -17
-30 -25 -15 -31 -27 -33 -27 -17
-30 -25 -15 -31 -27 -33 -27 -17
-30 -25 -15 -31 -27 -33 -27 -17
-30 -25 -15 -31 -27 -33 -27 -17
-29 -26 -14 -30 -26 -33 -26 -18
-28 -25 -13 -30 -26 -33 -26 -18
-28 -24 -13 -30 -25 -32 -26 -17
-27 -23 -12 -30 -25 -32 -26 -17
-27 -23 -12 -30 -25 -32 -26 -17
-25 -22 -11 -29 -24 -31 -25 -16
-23 -22 -11 -29 -24 -31 -25 -16
-21 -21 -11 -29 -25 -31 -25 -16
-20 -21 -11 -29 -25 -31 -25 -16
-18 -21 -11 -29 -25 -31 -25 -16
-18 -21 -11 -28 -26 -31 -26 -16
-21 -23 -12 -29 -26 -32 -26 -16
-23 -25 -12 -29 -27 -32 -26 -16
-26 -27 -13 -30 -27 -33 -26 -16
-28 -29 -13 -30 -27 -33 -26 -16
-29 -30 -14 -31 -28 -34 -27 -17
-30 -30 -14 -31 -28 -34 -27 -17
-30 -29 -13 -31 -28 -34 -27 -17
-31 -29 -13 -31 -28 -34 -27 -17
-31 -29 -13 -31 -28 -34 -27 -17
-32 -28 -12 -31 -27 -33 -28 -18
-31 -27 -12 -31 -27 -33 -28 -18
-30 -27 -13 -31 -27 -33 -28 -18
-29 -26 -13 -31 -27 -33 -28 -18
-29 -26 -13 -31 -27 -33 -28 -18
-28 -25 -14 -31 -27 -34 -28 -18
-28 -25 -14 -31 -27 -34 -28 -18
-27 -25 -13 -31 -27 -34 -28 -18
-27 -25 -13 -31 -27 -34 -28 -18
-27 -25 -13 -31 -27 -34 -28 -18
-26 -25 -12 -32 -28 -34 -29 -18
-26 -24 -12 -32 -28 -34 -29 -18
-26 -24 -12 -31 -27 -34 -29 -18
-26 -23 -12 -31 -27 -34 -29 -18
-26 -23 -12 -31 -27 -34 -29 -18
-25 -22 -12 -30 -26 -33 -28 -17
-25 -22 -12 -30 -26 -33 -28 -17
-26 -23 -12 -31 -27 -33 -28 -17
-26 -23 -12 -31 -27 -33 -28 -17
-26 -23 -12 -31 -27 -33 -28 -17
-27 -24 -13 -32 -28 -34 -28 -17
-26 -24 -13 -32 -28 -34 -28 -17
-25 -24 -12 -31 -28 -34 -28 -16
-24 -24 -12 -31 -28 -34 -28 -16
-24 -24 -12 -31 -28 -34 -28 -16
-23 -24 -11 -30 -27 -33 -27 -16
-24 -25 -12 -31 -28 -34 -28 -17
-25 -26 -12 -31 -28 -35 -29 -18
-26 -27 -13 -32 -29 -36 -30 -20
-26 -28 -13 -32 -29 -36 -31 -21
-27 -29 -14 -33 -30 -37 -32 -21
-26 -28 -14 -33 -29 -37 -30 -20
-26 -27 -14 -33 -29 -36 -29 -19
-25 -26 -14 -33 -28 -36 -28 -17
-25 -26 -14 -33 -28 -36 -27 -16
-24 -25 -13 -32 -27 -35 -26 -15
-24 -25 -13 -31 -27 -35 -26 -15
-24 -25 -12 -31 -27 -34 -26 -14
-24 -25 -12 -30 -27 -34 -26 -14
-24 -25 -12 -30 -27 -34 -26 -14
-25 -24 -11 -29 -27 -33 -25 -13
-25 -24 -11 -30 -27 -33 -27 -15
-25 -24 -11 -30 -28 -34 -28 -16
-25 -24 -11 -31 -28 -34 -29 -17
-25 -24 -11 -31 -28 -34 -30 -18
-25 -23 -11 -32 -29 -35 -31 -19
-24 -23 -11 -32 -29 -35 -30 -19
-23 -23 -11 -31 -28 -35 -30 -19
-21 -23 -11 -31 -28 -35 -29 -19
-20 -23 -11 -31 -28 -35 -29 -19
-19 -22 -11 -30 -27 -35 -28 -18
-19 -21 -11 -30 -27 -35 -27 -17
-19 -21 -11 -30 -27 -35 -26 -16
-19 -20 -11 -30 -27 -35 -25 -15
-19 -20 -11 -30 -27 -35 -24 -14
-19 -19 -10 -30 -28 -34 -23 -13
-19 -19 -10 -30 -28 -32 -23 -14
-19 -19 -10 -30 -28 -31 -24 -14
-19 -19 -10 -30 -28 -30 -24 -15
-19 -19 -10 -30 -28 -29 -24 -15
-20 -20 -8 -28 -26 -27 -24 -15
-19 -18 -7 -25 -23 -24 -22 -13
-19 -17 -5 -23 -20 -21 -20 -12
-18 -16 -4 -21 -18 -19 -18 -10
-18 -15 -2 -18 -15 -16 -16 -8
-16 -13 0 -17 -14 -15 -15 -7
-14 -10 0 -17 -14 -15 -15 -7
-11 -7 0 -17 -14 -15 -15 -7
-9 -5 0 -17 -14 -15 -15 -7
-7 -2 0 -17 -14 -15 -15 -7
-6 0 1 -16 -13 -14 -14 -6
-6 -2 1 -15 -11 -12 -13 -5
-6 -2 1 -15 -10 -11 -12 -3
-6 -3 1 -14 -9 -10 -11 -2
-6 -3 1 -14 -8 -9 -10 1
-6 -4 -3 -14 -8 -9 -9 2
-7 -4 -6 -17 -11 -11 -10 1
-8 -4 -10 -20 -13 -12 -10 0
-9 -4 -13 -22 -15 -14 -11 -2
-10 -4 -17 -25 -18 -16 -11 -3
-10 -3 -18 -26 -20 -17 -12 -4
-8 -2 -18 -27 -21 -17 -12 -3
-5 -2 -19 -28 -22 -18 -12 -3
-3 0 -19 -28 -24 -18 -12 -2
0 0 -19 -29 -25 -18 -12 -2
1 1 -20 -30 -26 -19 -11 0
0 1 -19 -29 -26 -19 -11 0
0 0 -18 -29 -26 -19 -11 0
-2 0 -18 -28 -26 -19 -11 0
-2 0 -17 -28 -26 -19 -11 0
-3 -2 -16 -27 -25 -19 -11 -2
-3 -2 -16 -27 -25 -19 -11 -2
-3 -2 -16 -28 -26 -19 -11 -2
-3 -2 -16 -28 -26 -19 -11 -2
-3 -2 -16 -28 -26 -19 -11 -2
-4 -4 -17 -29 -27 -20 -12 -3
-6 -6 -17 -29 -27 -21 -14 -5
-7 -7 -17 -29 -28 -23 -15 -7
-9 -9 -17 -29 -28 -24 -17 -10
-11 -11 -17 -29 -28 -26 -19 -12
-12 -12 -16 -30 -29 -27 -20 -13
-12 -10 -16 -30 -29 -27 -20 -13
-13 -9 -16 -31 -30 -27 -20 -13
-13 -8 -16 -31 -30 -27 -20 -13
-13 -7 -16 -31 -30 -27 -20 -13
-14 -6 -15 -32 -31 -27 -21 -13
-12 -6 -15 -32 -31 -28 -21 -13
-11 -7 -15 -32 -31 -29 -22 -14
-10 -7 -15 -32 -31 -29 -22 -14
-9 -7 -15 -32 -31 -30 -22 -14
-8 -8 -15 -32 -32 -31 -23 -15
-9 -8 -15 -32 -32 -31 -23 -15
-9 -9 -15 -32 -32 -31 -23 -15
-10 -9 -15 -32 -32 -31 -23 -15
-10 -9 -15 -32 -32 -31 -23 -15
-11 -10 -16 -32 -33 -32 -24 -16
-12 -11 -16 -32 -33 -32 -23 -16
-12 -12 -15 -32 -33 -31 -22 -15
-13 -12 -15 -32 -33 -31 -22 -15
-13 -13 -15 -32 -33 -31 -21 -15
-14 -14 -14 -32 -32 -30 -20 -14
-14 -14 -14 -32 -32 -30 -21 -14
-13 -13 -14 -31 -31 -30 -22 -14
-13 -13 -14 -31 -31 -30 -22 -14
-13 -13 -14 -31 -31 -30 -23 -14
-12 -12 -13 -30 -30 -30 -24 -14
-12 -10 -12 -29 -29 -30 -23 -14
-12 -9 -12 -29 -28 -29 -22 -13
-12 -7 -11 -28 -28 -29 -22 -13
-12 -6 -11 -28 -27 -29 -21 -13
-12 -5 -9 -26 -24 -28 -20 -12
-15 -4 -6 -23 -21 -28 -20 -13
-17 -3 -3 -20 -18 -28 -20 -13
-19 -3 1 -18 -15 -28 -20 -14
-22 -2 4 -15 -12 -28 -20 -14
-21 0 5 -9 -3 -12 -6 -7
-17 0 6 -2 11 13 16 5
-13 1 7 7 24 38 38 17
-9 1 7 15 37 63 61 28
-6 1 8 22 51 89 84 40
5 2 9 35 71 128 117 60
18 3 7 51 95 173 158 81
30 3 6 67 118 218 198 104
44 4 4 82 142 263 238 127
57 4 3 99 164 309 278 149
61 -5 7 108 175 319 277 148
61 -20 15 114 178 311 256 137
62 -35 23 120 181 304 235 125
62 -50 31 127 184 297 214 112
62 -65 39 134 187 289 192 100
52 -76 45 122 169 238 141 71
34 -86 49 101 140 167 76 34
17 -96 52 80 111 94 11 -3
0 -105 56 59 82 22 -54 -40
-18 -114 59 38 54 -50 -119 -77
-28 -118 67 33 42 -82 -145 -94
-35 -117 77 37 37 -97 -151 -100
-43 -116 87 40 34 -110 -158 -106
-49 -116 97 45 30 -124 -164 -112
-56 -115 106 48 27 -139 -171 -118
-59 -111 113 51 22 -140 -169 -118
-59 -105 117 54 17 -134 -159 -113
-59 -100 122 56 13 -128 -150 -109
-59 -94 127 59 8 -121 -141 -105
-59 -88 132 62 3 -115 -132 -101
-58 -82 134 53 -6 -112 -127 -97
-60 -77 134 37 -15 -112 -121 -93
-61 -72 135 22 -25 -112 -117 -89
-63 -66 135 7 -34 -112 -113 -85
-64 -61 135 -9 -44 -112 -109 -80
-65 -57 137 -16 -48 -110 -105 -77
-65 -54 139 -19 -46 -107 -102 -75
-64 -51 141 -22 -45 -103 -98 -73
-64 -48 144 -25 -43 -99 -94 -71
-64 -45 146 -28 -41 -96 -91 -69
-63 -43 147 -31 -40 -94 -88 -67
-62 -43 146 -34 -43 -93 -86 -66
-61 -44 145 -37 -44 -92 -83 -64
-61 -45 144 -40 -46 -92 -81 -62
-60 -45 143 -44 -47 -91 -79 -60
-58 -46 139 -44 -48 -88 -76 -58
-56 -46 133 -43 -48 -85 -73 -56
-54 -46 127 -40 -47 -80 -70 -53
-52 -46 120 -39 -47 -77 -67 -51
-50 -46 115 -37 -47 -74 -64 -48
-49 -46 105 -36 -46 -70 -60 -46
-48 -46 94 -36 -46 -67 -57 -43
-46 -45 82 -36 -45 -64 -53 -39
-45 -45 71 -36 -44 -61 -49 -36
-44 -45 59 -36 -44 -58 -46 -33
-39 -40 51 -35 -39 -53 -40 -29
-33 -34 43 -31 -34 -47 -36 -26
-28 -28 35 -27 -28 -40 -31 -22
-22 -22 28 -23 -23 -34 -26 -18
-16 -16 20 -19 -17 -28 -21 -15
-13 -13 16 -17 -14 -24 -18 -13
-12 -12 15 -15 -13 -22 -16 -11
-10 -11 13 -14 -11 -19 -14 -10
-9 -11 11 -12 -9 -17 -12 -8
-7 -10 9 -11 -7 -14 -10 -7
-6 -9 8 -10 -6 -13 -9 -6
-6 -9 7 -8 -5 -12 -9 -6
-6 -9 6 -7 -4 -11 -8 -5
-6 -9 6 -5 -3 -11 -7 -5
-6 -9 5 -4 -2 -10 -7 -5
-5 -9 4 -3 0 -9 -6 -4
-5 -8 4 -3 0 -8 -5 -3
-4 -7 3 -2 1 -6 -4 -2
-3 -6 2 -2 2 -5 -3 -2
-3 -5 2 -2 2 -4 -2 0
-2 -4 1 0 3 -3 0 1
-2 -5 1 0 3 -3 0 1
-2 -6 1 0 4 -3 0 1
-2 -6 1 0 4 -3 0 1
-2 -7 1 0 4 -3 0 1
-3 -8 0 1 5 -2 1 1
-3 -8 0 2 6 0 2 1
-3 -7 0 3 7 1 3 2
-3 -6 0 4 8 2 4 3
-3 -6 0 5 9 3 5 3
-2 -5 -2 6 10 4 6 4
0 -5 -2 6 10 4 6 4
1 -4 -2 6 10 5 7 5
1 -3 -2 6 10 5 8 5
2 -3 -2 6 10 5 8 5
3 -2 -2 6 11 6 9 6
3 -2 -3 6 11 6 9 6
4 -3 -4 6 12 6 10 6
4 -3 -4 6 13 6 10 6
4 -3 -5 6 13 6 10 6
5 -4 -6 7 14 7 11 7
5 -4 -6 7 14 8 11 8
6 -4 -6 8 15 9 12 9
6 -4 -6 8 16 9 12 9
6 -4 -6 8 16 10 12 10
7 -4 -5 9 17 11 13 11
7 -3 -5 9 18 12 13 11
7 -2 -5 10 19 13 14 12
7 -2 -5 10 20 13 15 12
7 0 -5 10 21 14 15 12
8 1 -6 11 22 15 16 13
10 2 -6 12 22 16 16 13
12 3 -6 13 22 17 16 13
13 4 -6 13 22 17 16 13
15 5 -6 14 22 18 16 13
16 6 -7 15 23 19 16 13
16 6 -7 16 24 20 18 14
16 6 -7 17 25 22 20 15
16 6 -7 18 26 23 21 15
16 6 -7 19 27 24 23 16
15 7 -8 20 29 26 24 17
17 9 -8 21 30 27 26 19
18 11 -8 23 32 29 28 21
20 13 -8 24 34 31 29 22
21 15 -8 25 36 33 31 24
22 16 -7 26 37 34 32 25
22 14 -9 26 37 36 33 25
21 13 -11 26 38 37 34 26
21 11 -12 26 38 39 35 26
21 10 -14 26 38 40 36 26
20 9 -15 27 39 43 38 27
21 10 -15 28 42 45 39 29
22 12 -15 30 43 47 42 30
23 13 -15 31 45 49 44 32
24 14 -15 32 46 52 46 33
26 15 -16 33 48 54 48 35
28 17 -16 34 49 56 50 36
30 19 -17 36 51 58 52 38
32 20 -17 37 53 60 54 40
34 22 -17 38 55 63 57 43
36 24 -18 40 57 65 59 45
39 26 -18 43 60 69 62 47
42 29 -19 45 62 72 64 49
45 31 -19 47 65 76 67 51
47 33 -19 50 67 79 69 54
49 35 -20 51 69 82 72 55
48 34 -21 51 70 85 74 56
47 32 -23 52 71 87 76 58
46 31 -24 52 72 89 78 59
45 30 -25 52 73 92 80 60
44 30 -26 54 75 94 82 62
45 31 -27 56 77 98 86 64
47 33 -28 58 79 101 89 66
48 35 -29 60 81 104 92 68
49 37 -30 63 84 107 94 70
51 38 -31 64 86 110 97 72
53 40 -31 65 88 114 101 74
55 43 -32 66 90 117 104 77
57 44 -33 67 92 120 107 79
60 46 -33 68 94 123 110 81
61 47 -34 69 95 126 112 84
61 47 -34 70 95 127 113 84
62 47 -35 71 96 128 114 85
62 47 -35 71 96 129 114 85
62 47 -35 72 96 130 115 85
64 49 -36 73 97 132 117 86
65 51 -36 75 99 134 118 88
67 53 -36 76 100 136 120 90
69 55 -36 77 101 138 122 91
71 58 -36 79 103 140 125 93
72 59 -35 80 104 141 126 94
70 58 -35 80 104 140 126 93
69 56 -35 79 103 139 125 92
68 55 -35 78 102 139 125 92
66 54 -35 78 102 138 125 91
64 53 -34 77 101 136 122 90
63 53 -33 77 101 134 120 88
61 53 -31 77 100 132 118 87
59 53 -29 77 100 130 116 86
57 53 -27 77 100 127 114 84
55 52 -26 76 99 123 112 81
53 52 -24 75 98 120 108 78
50 51 -22 74 96 116 105 75
48 51 -21 74 95 112 101 72
46 51 -19 73 94 108 98 69
43 50 -17 71 92 104 94 66
40 48 -15 69 89 99 89 62
38 46 -13 67 86 94 85 59
36 45 -11 65 82 89 79 55
34 43 -9 63 79 84 75 52
33 40 -6 61 76 78 70 49
31 38 -4 59 74 73 66 46
29 36 0 57 71 69 62 43
27 34 2 55 69 64 58 39
25 32 4 53 67 60 54 36
24 31 6 51 64 55 51 33
23 30 6 48 60 51 47 30
21 29 7 45 57 47 43 27
20 29 7 43 53 43 39 25
19 28 7 39 50 38 35 22
17 26 8 36 47 35 32 20
14 24 8 33 44 32 30 18
11 22 8 30 40 28 27 16
9 20 8 28 37 25 24 14
6 18 8 25 34 22 22 12
4 17 8 22 31 19 20 11
4 16 8 19 28 17 18 10
4 14 8 16 25 14 16 8
4 13 8 14 23 12 14 7
4 12 8 11 20 10 12 6
4 11 7 9 18 8 11 5
5 11 7 8 16 7 10 4
6 10 6 6 14 5 8 3
7 10 5 5 12 4 7 3
8 10 5 4 10 3 6 2
9 9 4 2 9 1 5 1
7 8 3 0 7 -2 3 0
5 6 1 -3 5 -4 1 -2
3 5 0 -5 3 -6 0 -2
1 4 -2 -7 1 -8 -3 -3
0 3 -3 -9 0 -10 -4 -4
0 4 -2 -9 0 -10 -4 -4
-2 5 0 -8 0 -10 -4 -4
-3 5 0 -8 0 -10 -4 -4
-3 6 1 -8 0 -10 -4 -4
-4 7 2 -7 1 -9 -3 -5
-3 7 2 -7 1 -10 -4 -6
-2 6 1 -8 0 -11 -5 -7
0 6 0 -9 -2 -12 -5 -7
1 6 0 -9 -2 -13 -6 -8
2 5 -2 -10 -3 -14 -7 -9
1 6 -2 -10 -3 -14 -7 -9
-2 7 0 -10 -4 -14 -7 -8
-3 8 0 -10 -4 -14 -7 -8
-4 9 0 -10 -4 -14 -7 -8
-5 10 1 -10 -5 -14 -8 -7
-4 9 1 -10 -5 -14 -8 -7
-3 8 1 -11 -5 -14 -7 -6
-3 8 1 -11 -5 -14 -7 -6
-2 7 1 -11 -5 -14 -7 -6
0 6 1 -12 -5 -14 -6 -5
0 6 1 -12 -5 -14 -6 -5
-2 5 0 -12 -5 -15 -7 -6
-3 4 0 -12 -5 -15 -8 -6
-3 4 0 -12 -5 -15 -8 -6
-4 3 -2 -12 -5 -16 -9 -7
-4 4 -2 -12 -5 -16 -9 -7
-3 4 -2 -12 -5 -15 -9 -7
-2 5 -2 -12 -5 -14 -8 -7
-2 6 -2 -12 -5 -14 -8 -7
0 7 0 -11 -5 -13 -7 -6
0 7 0 -11 -5 -13 -7 -6
0 7 0 -11 -4 -13 -7 -6
0 8 0 -11 -3 -12 -6 -5
0 8 0 -11 -3 -12 -6 -5
0 9 0 -10 -2 -11 -5 -4
-3 8 0 -10 -2 -11 -5 -4
-4 7 0 -10 -3 -11 -5 -4
-6 6 -2 -11 -4 -11 -6 -5
-8 5 -2 -11 -4 -11 -6 -5
-9 4 -3 -12 -5 -12 -7 -6
-8 4 -3 -12 -5 -12 -7 -6
-7 4 -3 -12 -5 -12 -7 -6
-5 5 -3 -11 -4 -12 -6 -5
-4 5 -3 -11 -4 -12 -6 -5
-3 6 -2 -10 -3 -11 -5 -4
-3 6 -2 -10 -3 -11 -5 -4
-4 6 -2 -10 -3 -11 -5 -4
-5 6 -2 -10 -3 -10 -4 -3
-5 6 -2 -10 -3 -10 -4 -3
-6 7 -3 -11 -4 -9 -3 -2
-4 8 -3 -11 -4 -9 -3 -2
-2 9 -3 -11 -4 -9 -3 -2
1 10 -3 -11 -4 -9 -3 -2
3 11 -3 -11 -4 -9 -3 -2
4 12 -2 -11 -4 -10 -4 -3
2 11 -2 -11 -4 -10 -4 -3
1 11 -3 -11 -4 -10 -3 -3
-2 10 -4 -11 -5 -10 -2 -3
-4 9 -4 -11 -5 -10 -2 -3
-5 8 -5 -12 -6 -11 0 -2
-5 9 -5 -12 -6 -11 0 -2
-4 9 -5 -12 -6 -11 0 -2
-3 10 -5 -13 -7 -11 0 -2
-3 11 -5 -13 -7 -11 0 -2
-2 12 -4 -14 -8 -11 -2 -2
-2 12 -4 -14 -8 -11 -2 -2
-2 11 -4 -14 -8 -11 -3 -2
-2 10 -5 -15 -8 -12 -4 -3
-2 10 -5 -15 -8 -12 -4 -3
-3 9 -6 -16 -9 -13 -5 -4
-3 9 -6 -16 -9 -13 -5 -4
-3 8 -6 -16 -10 -13 -5 -4
-4 7 -6 -16 -11 -14 -6 -4
-4 7 -6 -16 -11 -14 -6 -4
-5 6 -6 -16 -12 -15 -7 -5
-5 6 -6 -16 -12 -15 -7 -5
-5 6 -6 -16 -12 -15 -7 -5
-5 6 -6 -17 -12 -15 -7 -5
-5 6 -6 -17 -12 -15 -7 -5
-4 6 -6 -18 -13 -15 -7 -5
-4 6 -6 -18 -13 -15 -7 -5
-5 5 -6 -18 -13 -15 -7 -5
-6 4 -6 -18 -14 -16 -7 -5
-6 4 -6 -18 -14 -16 -7 -5
-7 3 -7 -19 -15 -17 -8 -5
-7 3 -7 -19 -15 -17 -8 -5
-7 3 -7 -19 -15 -17 -8 -5
-7 4 -7 -19 -15 -18 -9 -5
-7 4 -7 -19 -15 -18 -9 -5
-8 5 -7 -20 -16 -19 -10 -6
-7 4 -7 -20 -16 -20 -10 -6
-7 4 -7 -20 -17 -20 -10 -6
-6 3 -7 -20 -18 -21 -10 -6
-5 2 -7 -20 -18 -22 -10 -6
-4 1 -7 -21 -19 -23 -11 -7
-5 1 -7 -21 -19 -23 -11 -7
-6 1 -7 -21 -19 -23 -11 -7
-7 1 -7 -22 -19 -23 -11 -8
-8 1 -7 -22 -19 -23 -11 -8
-9 2 -8 -23 -20 -22 -12 -9
-8 3 -8 -23 -20 -22 -12 -9
-7 3 -8 -23 -20 -22 -12 -9
-6 4 -8 -23 -20 -22 -12 -8
-5 5 -8 -23 -20 -22 -12 -8
-4 6 -7 -22 -20 -21 -11 -7
-4 6 -7 -22 -20 -21 -11 -7
-5 5 -7 -22 -20 -21 -12 -8
-6 4 -8 -23 -21 -22 -13 -9
-6 4 -8 -23 -21 -22 -13 -9
-7 3 -9 -24 -22 -23 -14 -10
-7 3 -9 -24 -22 -23 -14 -10
-7 3 -9 -24 -22 -23 -14 -10
-7 4 -8 -24 -22 -23 -14 -10
-7 4 -8 -24 -22 -23 -14 -10
-6 5 -7 -23 -21 -23 -13 -9
-7 4 -7 -23 -21 -23 -13 -9
-8 3 -7 -23 -21 -23 -13 -9
-9 1 -8 -24 -22 -24 -13 -9
-10 0 -8 -24 -22 -24 -13 -9
-11 -2 -9 -25 -23 -25 -14 -10
-11 -2 -9 -25 -23 -25 -14 -10
-11 -3 -9 -25 -23 -25 -15 -10
-12 -4 -9 -25 -24 -25 -16 -10
-12 -4 -9 -25 -24 -25 -16 -10
-13 -5 -10 -26 -25 -26 -17 -11
-12 -4 -10 -26 -25 -26 -17 -11
-10 -4 -10 -26 -24 -26 -16 -11
-9 -3 -10 -25 -23 -25 -15 -10
-7 -2 -10 -25 -23 -25 -15 -10
-6 0 -9 -24 -22 -24 -14 -9
-6 0 -9 -24 -22 -24 -14 -9
-6 0 -9 -24 -22 -24 -14 -9
-6 1 -9 -24 -22 -24 -14 -9
-6 1 -9 -24 -22 -24 -14 -9
-7 2 -8 -23 -22 -24 -13 -8
-8 1 -8 -23 -22 -24 -13 -9
-9 0 -8 -23 -23 -25 -14 -10
-11 -3 -9 -24 -24 -26 -15 -11
-12 -4 -9 -24 -24 -26 -15 -12
