I II V1 V2 V3 V4 V5 V6
10 -13 -8 -23 -22 -26 -26 -13
10 -13 -8 -23 -22 -26 -26 -13
10 -12 -8 -23 -22 -26 -27 -13
9 -11 -8 -23 -22 -26 -27 -13
9 -10 -8 -23 -22 -26 -28 -13
9 -10 -8 -23 -22 -26 -28 -13
7 -9 -7 -22 -22 -25 -29 -12
5 -9 -7 -21 -21 -24 -28 -12
4 -10 -6 -21 -20 -24 -27 -11
2 -10 -6 -20 -19 -23 -26 -11
1 -10 -6 -20 -19 -23 -26 -11
0 -10 -4 -19 -18 -22 -25 -10
-2 -8 -3 -18 -18 -22 -24 -9
-3 -7 0 -18 -17 -21 -23 -8
-4 -5 1 -17 -17 -21 -22 -7
-4 -4 2 -17 -17 -21 -22 -6
-5 0 3 -15 -15 -19 -21 -5
-4 2 3 -13 -13 -18 -21 -4
-4 5 3 -12 -12 -17 -20 -3
-3 7 3 -10 -10 -16 -20 -2
-3 9 3 -9 -9 -15 -20 -2
-2 10 4 -8 -8 -14 -19 0
-2 9 5 -8 -8 -14 -19 0
-3 9 6 -7 -8 -14 -18 0
-3 8 7 -7 -8 -14 -18 0
-3 8 8 -7 -8 -14 -18 0
-4 7 9 -7 -7 -13 -17 1
-4 7 9 -8 -7 -13 -16 1
-3 8 9 -9 -8 -13 -15 0
-3 8 9 -10 -8 -13 -14 0
-3 8 9 -11 -8 -13 -14 0
0 10 7 -12 -9 -13 -13 -2
1 12 5 -13 -9 -13 -14 -2
3 14 3 -13 -9 -13 -15 0
4 16 1 -14 -9 -13 -16 0
5 17 -2 -14 -9 -13 -16 0
6 19 -4 -16 -10 -13 -17 1
6 21 -6 -17 -11 -13 -17 1
7 22 -7 -19 -12 -14 -17 0
7 24 -9 -20 -13 -14 -17 0
7 25 -10 -21 -14 -14 -17 0
8 25 -12 -22 -15 -15 -17 -2
8 23 -14 -23 -16 -16 -16 0
8 21 -16 -24 -17 -16 -16 1
8 19 -18 -25 -18 -17 -15 2
8 18 -20 -25 -18 -17 -15 3
9 15 -21 -26 -19 -18 -14 3
10 13 -20 -26 -20 -19 -15 1
10 10 -19 -27 -20 -19 -15 0
11 8 -18 -27 -21 -20 -16 -3
11 6 -18 -27 -21 -20 -16 -4
12 5 -16 -28 -22 -21 -17 -5
11 5 -14 -27 -22 -21 -17 -4
10 5 -13 -26 -22 -21 -16 -3
9 5 -11 -25 -22 -21 -16 -2
9 5 -10 -25 -22 -21 -16 0
6 3 -9 -24 -21 -21 -16 0
4 0 -9 -24 -21 -21 -18 -3
1 -3 -9 -24 -21 -21 -19 -5
-2 -6 -9 -24 -21 -21 -21 -7
-4 -8 -9 -24 -21 -21 -22 -9
-6 -10 -8 -23 -22 -23 -23 -10
-7 -12 -8 -23 -23 -25 -23 -11
-9 -14 -8 -23 -24 -26 -24 -12
-10 -16 -8 -23 -25 -28 -24 -13
-11 -18 -8 -23 -26 -29 -24 -14
-12 -19 -7 -24 -27 -30 -25 -15
-12 -20 -7 -24 -28 -30 -26 -15
-13 -20 -8 -25 -28 -30 -26 -16
-13 -21 -8 -25 -29 -30 -27 -16
-13 -21 -8 -25 -29 -30 -27 -16
-14 -22 -9 -26 -30 -30 -28 -17
-13 -21 -8 -26 -30 -30 -28 -17
-12 -21 -8 -25 -30 -31 -28 -17
-11 -20 -7 -25 -30 -31 -28 -17
-11 -20 -7 -25 -30 -31 -28 -17
-10 -19 -6 -24 -30 -32 -29 -18
-10 -19 -5 -23 -29 -32 -29 -18
-10 -19 -5 -23 -28 -32 -29 -18
-10 -19 -4 -22 -27 -32 -29 -18
-10 -19 -4 -22 -27 -32 -29 -18
-11 -19 -3 -21 -26 -31 -28 -19
-11 -20 -3 -21 -26 -30 -27 -19
-11 -21 -4 -21 -26 -29 -26 -19
-11 -22 -4 -21 -26 -28 -25 -19
-11 -23 -4 -21 -26 -28 -25 -19
-13 -24 -4 -20 -26 -27 -24 -18
-15 -24 -2 -19 -25 -27 -24 -19
-17 -24 1 -18 -24 -26 -24 -19
-19 -24 3 -17 -23 -26 -24 -20
-20 -24 4 -16 -23 -26 -24 -20
-22 -23 14 -7 -17 -24 -24 -22
-24 -23 24 3 -11 -23 -25 -23
-25 -23 34 12 -5 -22 -27 -25
-27 -23 45 21 2 -21 -28 -26
-28 -23 55 30 8 -20 -29 -27
-23 -20 58 44 25 2 -15 -19
-16 -15 60 58 44 25 3 -8
-8 -11 62 72 62 48 20 4
0 -7 64 87 80 70 37 15
7 -3 66 101 99 94 55 26
21 12 63 126 136 135 88 49
37 27 58 151 174 178 121 72
53 42 53 177 213 220 155 96
68 57 48 202 251 263 189 119
84 71 43 228 288 306 223 143
91 78 33 231 299 314 233 152
96 86 25 231 306 320 241 160
102 92 16 231 312 325 250 169
107 99 7 231 319 331 258 177
113 105 -3 231 326 337 266 185
99 90 -2 193 269 271 222 158
81 71 1 149 205 197 172 128
63 53 4 106 141 122 121 97
46 33 7 63 76 49 71 66
28 15 9 19 12 -25 21 35
17 5 22 10 -10 -50 -2 18
7 -5 35 3 -28 -69 -21 2
-4 -15 49 -5 -46 -89 -40 -15
-14 -24 63 -11 -63 -108 -60 -31
-24 -34 76 -18 -81 -128 -80 -48
-30 -39 91 -14 -81 -130 -85 -54
-37 -45 104 -7 -79 -129 -88 -60
-45 -49 117 1 -76 -128 -91 -65
-51 -54 132 7 -73 -127 -94 -71
-58 -59 145 14 -71 -126 -97 -76
-61 -58 158 17 -66 -120 -97 -77
-64 -55 171 19 -61 -115 -95 -77
-67 -52 183 21 -57 -109 -93 -76
-70 -49 196 24 -52 -104 -91 -76
-73 -46 209 26 -47 -99 -90 -76
-76 -45 219 21 -48 -98 -89 -75
-80 -46 228 15 -52 -98 -89 -76
-83 -46 237 8 -55 -99 -89 -77
-87 -47 246 1 -58 -99 -89 -78
-90 -47 256 -7 -61 -99 -89 -78
-92 -48 260 -13 -64 -100 -88 -79
-93 -49 264 -19 -66 -100 -88 -79
-95 -50 269 -25 -69 -100 -89 -79
-96 -51 273 -31 -72 -100 -89 -79
-97 -51 277 -37 -74 -100 -89 -79
-98 -52 275 -43 -76 -101 -88 -79
-98 -53 271 -47 -78 -100 -86 -77
-98 -54 267 -52 -80 -99 -83 -76
-98 -55 263 -56 -82 -98 -80 -74
-98 -56 259 -61 -85 -98 -78 -73
-92 -55 235 -62 -85 -94 -74 -70
-86 -52 210 -63 -81 -91 -71 -67
-79 -49 183 -63 -79 -88 -68 -64
-73 -46 157 -64 -77 -83 -64 -62
-67 -43 132 -64 -75 -80 -61 -59
-61 -39 110 -64 -71 -75 -56 -56
-55 -35 91 -62 -67 -70 -52 -52
-49 -32 71 -61 -62 -65 -47 -49
-43 -29 51 -59 -58 -60 -43 -45
-36 -26 31 -58 -54 -55 -37 -41
-33 -24 24 -53 -49 -50 -33 -37
-31 -23 19 -47 -43 -45 -28 -34
-28 -21 14 -41 -36 -39 -24 -30
-25 -19 8 -36 -31 -33 -19 -27
-23 -18 3 -30 -25 -28 -15 -23
-20 -16 2 -28 -23 -26 -13 -21
-17 -15 1 -26 -20 -24 -11 -20
-14 -14 0 -24 -18 -22 -9 -18
-11 -13 -2 -22 -16 -20 -7 -17
-8 -12 -2 -20 -14 -18 -5 -16
-7 -11 -5 -19 -12 -16 -3 -15
-7 -11 -8 -18 -11 -14 -2 -14
-7 -11 -12 -17 -10 -12 1 -14
-7 -11 -15 -16 -9 -11 2 -13
-7 -11 -18 -15 -8 -9 3 -13
-6 -9 -19 -14 -7 -7 5 -11
-5 -7 -20 -13 -6 -6 6 -10
-4 -5 -21 -12 -5 -4 8 -9
-3 -4 -22 -11 -4 -3 10 -8
-3 -2 -23 -11 -4 -2 11 -7
0 0 -25 -11 -3 0 12 -6
2 0 -26 -12 -3 0 12 -6
4 0 -28 -14 -4 0 12 -6
5 0 -29 -16 -4 0 12 -6
7 0 -30 -17 -4 0 12 -6
10 1 -32 -18 -5 1 13 -5
12 2 -35 -18 -4 2 14 -4
14 3 -37 -18 -3 4 16 -3
17 4 -39 -18 -2 6 18 0
19 4 -41 -18 -2 7 19 1
21 5 -45 -18 1 9 21 3
22 6 -47 -18 2 11 23 4
23 7 -50 -17 3 13 25 5
24 8 -53 -17 4 15 27 6
25 8 -55 -17 5 17 29 7
28 10 -58 -16 6 19 32 9
30 11 -61 -16 7 22 34 11
33 13 -65 -16 8 24 36 13
35 15 -68 -16 9 26 39 15
38 16 -71 -16 9 28 42 17
39 17 -74 -17 11 31 44 19
40 18 -77 -17 12 33 47 20
40 19 -81 -17 13 36 49 21
42 20 -85 -17 15 38 51 22
42 20 -88 -17 16 42 53 23
47 23 -91 -18 18 44 56 26
51 26 -93 -18 19 47 58 28
56 29 -95 -18 20 49 61 30
61 32 -98 -18 22 51 63 33
66 35 -100 -18 23 53 66 35
67 36 -105 -19 24 55 67 36
68 36 -109 -20 24 56 68 36
69 36 -114 -21 24 57 69 36
70 36 -119 -22 24 58 70 36
71 36 -124 -22 24 59 71 36
72 38 -126 -23 25 61 74 39
72 39 -127 -22 27 64 77 43
72 40 -128 -21 29 66 79 46
72 43 -129 -20 30 69 82 49
72 44 -129 -20 32 71 86 52
71 46 -131 -19 34 73 88 54
70 47 -133 -17 35 74 90 55
69 49 -135 -16 36 76 92 57
68 51 -137 -15 38 78 93 59
67 52 -139 -14 39 79 95 60
66 53 -140 -13 40 80 95 61
65 52 -140 -13 40 79 94 61
65 51 -140 -13 40 79 93 60
64 50 -140 -13 40 78 91 60
64 49 -140 -13 40 78 90 60
63 48 -138 -14 40 77 89 59
62 49 -136 -13 40 76 89 58
61 50 -134 -12 39 75 88 57
60 51 -133 -11 39 74 88 56
60 51 -131 -11 39 74 88 56
58 51 -128 -10 38 72 86 55
56 50 -124 -9 37 69 82 54
54 49 -121 -8 36 67 80 54
52 47 -118 -7 35 64 77 53
50 46 -115 -6 34 62 75 53
47 44 -110 -4 33 59 72 50
44 42 -105 -2 32 56 68 47
40 39 -100 1 31 53 65 44
37 38 -95 2 30 50 62 39
34 36 -90 4 30 47 58 36
33 34 -86 5 29 44 55 34
32 33 -81 7 28 42 52 32
31 32 -77 8 27 38 49 29
30 30 -73 9 26 36 46 27
30 29 -68 10 25 33 43 25
27 27 -63 12 24 31 40 23
23 25 -57 13 24 29 37 22
20 23 -51 14 24 26 35 20
17 21 -45 16 24 24 32 18
13 19 -39 17 24 22 30 17
12 18 -34 18 23 21 29 16
12 18 -30 19 22 19 27 15
11 17 -25 20 22 18 26 14
11 17 -21 21 21 17 25 13
11 17 -16 22 21 16 24 12
9 15 -13 23 20 14 22 10
8 13 -10 23 19 13 20 8
7 11 -8 24 18 12 18 6
5 9 -5 24 17 10 17 5
4 7 -2 24 17 9 15 3
2 6 1 24 16 8 14 2
1 5 3 23 15 6 13 2
-2 5 6 21 14 5 12 2
-4 4 8 19 13 4 11 2
-5 4 10 18 12 3 11 2
-6 3 11 17 11 1 9 1
-7 2 12 16 11 -2 7 -2
-8 1 13 15 11 -4 5 -3
-9 0 14 14 11 -5 4 -4
-10 -2 15 13 11 -7 2 -5
-11 -3 16 12 11 -8 1 -6
-12 -3 16 11 11 -8 1 -6
-13 -3 16 11 10 -8 1 -6
-14 -3 16 10 10 -8 1 -6
-14 -3 16 10 10 -8 1 -6
-15 -3 16 9 9 -8 2 -6
-14 -3 16 8 8 -9 2 -6
-14 -3 16 8 7 -9 1 -6
-13 -3 16 7 6 -10 1 -6
-13 -3 16 7 6 -10 1 -6
-12 -4 17 6 5 -11 0 -6
-14 -4 17 6 5 -11 0 -6
-15 -5 16 5 5 -12 0 -6
-16 -5 16 5 5 -12 0 -6
-17 -5 16 5 5 -12 0 -6
-18 -6 15 4 4 -13 -2 -7
-16 -5 15 5 4 -13 -2 -7
-15 -4 15 5 4 -13 -2 -7
-14 -3 15 6 4 -13 -2 -7
-13 -3 15 6 4 -13 -2 -7
-12 -2 16 7 3 -12 -2 -6
-12 -2 15 6 3 -12 -2 -6
-12 -3 15 5 3 -13 -2 -6
-12 -3 14 4 3 -13 -2 -6
-12 -3 14 4 3 -13 -2 -6
-11 -4 13 3 4 -14 -2 -7
-12 -4 13 3 4 -13 -2 -7
-13 -4 13 4 3 -13 -2 -6
-14 -4 13 4 3 -12 -2 -6
-14 -4 13 4 3 -12 -2 -6
-15 -5 14 5 2 -11 -3 -5
-14 -4 14 5 2 -11 -3 -5
-14 -4 14 5 2 -11 -3 -5
-13 -3 14 5 2 -11 -3 -5
-13 -3 14 5 2 -11 -3 -5
-12 -2 15 4 3 -12 -3 -5
-12 -2 15 4 3 -12 -3 -5
-12 -3 14 4 2 -13 -4 -5
-12 -3 14 4 2 -13 -4 -5
-12 -3 14 4 2 -13 -4 -5
-13 -4 13 5 1 -14 -5 -4
-13 -4 13 4 1 -14 -5 -4
-14 -4 13 3 1 -13 -4 -4
-14 -4 13 3 1 -13 -4 -4
-14 -4 13 2 1 -13 -4 -4
-15 -5 12 1 2 -12 -3 -4
-14 -4 12 2 2 -12 -3 -4
-14 -3 12 3 2 -11 -3 -4
-13 -3 12 3 2 -11 -3 -4
-13 -2 12 4 2 -11 -3 -4
-12 0 13 5 2 -10 -3 -5
-12 0 13 5 2 -10 -3 -4
-12 0 12 4 2 -10 -2 -3
-12 0 12 4 2 -10 -2 -3
-12 0 12 4 2 -10 -2 -2
-12 -2 11 3 2 -11 0 0
-12 -3 11 3 2 -11 0 0
-13 -3 12 3 2 -11 0 0
-13 -4 12 3 2 -11 0 0
-13 -4 12 3 2 -11 0 0
-14 -5 13 3 1 -12 -2 0
-14 -5 12 3 1 -12 -3 -2
-14 -5 11 3 1 -12 -3 -2
-14 -5 10 3 1 -12 -4 -3
-14 -5 9 3 1 -12 -4 -3
-14 -6 8 2 0 -12 -5 -4
-15 -6 9 1 -2 -12 -5 -4
-16 -7 9 0 -2 -13 -5 -5
-16 -7 10 -3 -3 -13 -5 -5
-17 -7 10 -4 -3 -13 -5 -5
-18 -8 11 -5 -4 -14 -6 -6
-18 -8 11 -5 -4 -15 -7 -6
-17 -8 10 -4 -4 -15 -7 -6
-17 -8 10 -4 -4 -16 -8 -6
-17 -8 10 -4 -4 -16 -8 -6
-16 -7 9 -3 -5 -17 -9 -6
-16 -7 9 -3 -6 -17 -9 -6
-16 -7 9 -4 -6 -17 -10 -6
-16 -7 9 -4 -7 -17 -10 -6
-16 -7 9 -4 -7 -17 -10 -6
-16 -7 9 -5 -8 -17 -11 -7
-17 -8 9 -5 -8 -17 -10 -7
-17 -8 9 -6 -8 -17 -10 -6
-18 -9 9 -6 -8 -17 -9 -6
-18 -9 9 -6 -8 -17 -9 -6
-19 -10 8 -7 -8 -16 -8 -5
-19 -10 8 -7 -8 -16 -9 -5
-18 -9 8 -7 -9 -17 -9 -5
-18 -9 8 -7 -9 -17 -10 -5
-18 -9 8 -7 -9 -17 -10 -5
-17 -8 9 -6 -10 -18 -11 -6
-17 -8 10 -6 -10 -18 -11 -6
-17 -9 11 -6 -10 -18 -11 -6
-17 -9 11 -6 -10 -18 -11 -6
-17 -9 12 -6 -10 -18 -11 -6
-17 -10 13 -6 -9 -17 -10 -5
-17 -10 12 -6 -9 -18 -10 -5
-18 -9 11 -6 -9 -18 -11 -5
-18 -9 11 -6 -9 -19 -11 -5
-18 -9 10 -6 -9 -19 -11 -5
-19 -8 9 -7 -10 -20 -12 -5
-19 -6 10 -6 -9 -18 -11 -4
-20 -5 11 -5 -8 -17 -10 -3
-20 -3 12 -5 -7 -16 -10 -3
-20 -2 13 -4 -6 -15 -9 -2
-21 1 14 -3 -5 -14 -8 0
-21 3 16 0 -3 -13 -8 1
-20 5 17 1 -2 -12 -7 1
-20 8 18 2 0 -11 -7 2
-20 10 19 3 1 -10 -7 2
-19 11 20 4 2 -9 -6 3
-18 11 20 3 1 -10 -6 3
-18 10 19 2 0 -11 -7 3
-17 10 19 1 0 -11 -7 3
-17 10 19 0 -2 -12 -7 3
-16 9 18 -2 -3 -13 -8 2
-16 10 18 -2 -3 -13 -8 2
-16 11 18 -2 -3 -13 -8 2
-16 12 18 -2 -3 -13 -8 2
-16 13 18 -2 -3 -13 -8 2
-15 14 17 -3 -3 -12 -9 3
-15 15 14 -3 -3 -11 -7 4
-15 15 12 -3 -3 -10 -6 4
-15 16 10 -3 -3 -9 -4 5
-15 16 7 -3 -3 -8 -3 5
-14 17 6 -4 -3 -7 -2 6
-14 18 4 -6 -4 -8 -3 7
-13 18 3 -7 -6 -9 -3 8
-13 19 2 -9 -7 -9 -4 8
-13 19 1 -11 -9 -10 -4 9
-12 20 0 -12 -10 -11 -5 10
-10 19 -2 -13 -11 -12 -5 10
-9 19 -3 -14 -12 -12 -5 10
-8 18 -4 -14 -12 -13 -5 10
-7 18 -5 -15 -13 -13 -5 10
-6 16 -6 -16 -14 -14 -5 10
-7 13 -6 -15 -14 -14 -5 9
-8 10 -6 -15 -14 -14 -6 8
-9 7 -6 -14 -14 -14 -6 8
-10 4 -6 -14 -14 -14 -6 7
-11 3 -5 -13 -14 -13 -7 6
-12 2 -3 -12 -14 -13 -7 6
-12 1 -2 -11 -14 -13 -7 6
-13 1 1 -11 -14 -13 -7 6
-13 0 2 -10 -14 -13 -7 6
-14 -4 3 -9 -14 -15 -9 4
-16 -6 3 -11 -15 -17 -12 1
-17 -9 2 -12 -17 -19 -14 -3
-19 -12 1 -14 -19 -22 -17 -6
-20 -15 1 -15 -21 -24 -20 -9
-21 -17 0 -16 -22 -25 -21 -10
-21 -18 -2 -16 -23 -25 -21 -10
-20 -19 -3 -17 -24 -26 -22 -11
-19 -19 -3 -17 -24 -26 -23 -12
-19 -20 -4 -17 -25 -26 -23 -12
-18 -21 -5 -18 -26 -27 -24 -13
-18 -21 -5 -18 -26 -27 -24 -13
-17 -21 -4 -19 -26 -27 -24 -13
-16 -21 -3 -19 -26 -27 -24 -13
-16 -21 -3 -19 -26 -27 -24 -13
-15 -22 -2 -20 -27 -27 -24 -12
-15 -23 -2 -20 -27 -27 -24 -12
-16 -24 -2 -20 -27 -27 -25 -13
-17 -25 -2 -20 -27 -27 -25 -14
-17 -26 -2 -20 -27 -27 -25 -14
-18 -27 -2 -19 -28 -25 -26 -15
-18 -25 0 -18 -26 -23 -26 -15
-17 -24 2 -16 -25 -21 -25 -15
-16 -22 3 -15 -23 -19 -24 -15
-16 -21 5 -13 -22 -17 -24 -15
-15 -20 6 -13 -21 -16 -23 -15
-15 -21 5 -14 -21 -16 -23 -15
-15 -22 3 -16 -21 -16 -23 -15
-15 -22 2 -17 -21 -16 -23 -15
-15 -23 1 -19 -21 -16 -23 -15
-17 -24 3 -18 -22 -16 -25 -14
-19 -24 9 -15 -22 -17 -26 -16
-22 -24 14 -11 -22 -18 -28 -17
-24 -24 20 -7 -22 -18 -30 -19
-27 -24 25 -4 -22 -19 -32 -20
-28 -23 31 5 -16 -15 -31 -21
-27 -22 38 16 -5 -6 -26 -20
-26 -20 45 26 7 4 -22 -18
-26 -19 51 36 18 13 -17 -17
-25 -17 57 48 29 21 -13 -16
-18 -12 60 66 53 47 6 -4
-7 -5 60 89 84 80 31 14
4 3 60 111 113 114 57 31
15 11 60 135 144 148 84 50
26 18 60 157 175 182 109 67
39 30 59 182 210 220 138 88
56 47 54 205 246 259 168 109
71 63 49 230 284 299 198 131
87 78 45 255 322 339 228 152
103 95 39 279 360 378 259 175
108 98 32 274 359 375 263 180
105 93 24 252 335 346 252 174
103 88 15 228 310 316 240 168
100 82 6 205 286 286 228 161
97 77 -3 182 262 257 217 155
84 64 -2 147 210 202 180 133
62 45 9 104 141 132 128 101
40 25 18 61 72 61 75 69
19 6 28 19 4 -10 23 37
-3 -13 37 -24 -65 -80 -29 6
-15 -26 51 -35 -91 -108 -55 -13
-22 -34 65 -27 -88 -108 -63 -23
-30 -43 80 -19 -85 -109 -71 -34
-37 -52 96 -10 -81 -109 -79 -45
-46 -60 111 -2 -78 -109 -88 -56
-52 -64 126 4 -76 -110 -92 -61
-57 -63 139 8 -74 -109 -94 -63
-62 -62 152 11 -73 -107 -96 -66
-67 -61 165 14 -71 -106 -97 -68
-72 -60 179 17 -70 -105 -99 -71
-76 -59 190 17 -69 -102 -100 -72
-78 -58 200 14 -68 -99 -99 -72
-81 -56 211 11 -67 -96 -98 -72
-83 -55 221 7 -66 -92 -97 -72
-87 -54 231 4 -65 -89 -96 -72
-89 -53 239 -4 -66 -87 -95 -72
-91 -53 246 -12 -69 -87 -95 -72
-94 -53 254 -21 -72 -88 -95 -72
-96 -53 261 -30 -76 -88 -95 -72
-99 -53 268 -38 -79 -88 -95 -72
-100 -52 271 -45 -82 -89 -95 -72
-102 -53 271 -50 -85 -89 -95 -73
-104 -55 270 -54 -87 -90 -96 -74
-105 -56 269 -58 -89 -90 -96 -74
-107 -57 269 -63 -91 -90 -96 -75
-105 -57 257 -65 -92 -89 -95 -74
-98 -54 236 -65 -91 -85 -90 -71
-92 -51 216 -66 -90 -81 -86 -67
-85 -48 195 -66 -89 -77 -81 -64
-78 -46 175 -66 -88 -73 -76 -60
-72 -43 152 -66 -85 -69 -72 -57
-67 -39 128 -63 -80 -64 -67 -53
-61 -36 104 -61 -76 -60 -63 -50
-55 -33 79 -58 -71 -56 -59 -47
-50 -31 56 -56 -67 -51 -54 -44
-46 -29 42 -52 -62 -46 -50 -39
-44 -28 32 -47 -56 -40 -45 -36
-41 -27 24 -41 -50 -34 -39 -32
-39 -26 16 -36 -45 -28 -34 -29
-36 -25 8 -31 -38 -23 -29 -25
-34 -24 4 -27 -33 -18 -26 -22
-32 -23 2 -22 -28 -14 -23 -20
-30 -22 1 -17 -24 -10 -20 -18
-28 -22 -2 -12 -19 -5 -17 -16
-25 -21 -3 -7 -14 0 -14 -14
-23 -20 -5 -4 -12 2 -12 -13
-22 -18 -8 -4 -11 3 -10 -12
-20 -16 -11 -4 -10 5 -8 -10
-18 -15 -14 -4 -10 6 -7 -9
-16 -13 -16 -4 -9 7 -5 -8
-15 -12 -18 -3 -8 8 -4 -7
-15 -12 -19 -2 -6 10 -2 -6
-16 -12 -21 1 -5 12 1 -4
-16 -12 -22 2 -3 13 2 -3
-16 -12 -23 3 -2 15 4 -2
-17 -11 -24 4 0 16 5 0
-17 -10 -26 4 1 17 6 0
-16 -9 -28 5 2 18 7 1
-15 -8 -29 5 2 18 7 2
-15 -7 -31 5 3 19 8 2
-14 -6 -32 6 4 21 9 3
-14 -6 -33 6 5 22 11 4
-14 -6 -34 6 6 24 12 5
-14 -6 -34 6 6 26 13 5
-14 -6 -35 6 7 28 15 6
-13 -6 -37 7 8 29 17 8
-11 -4 -39 7 9 31 19 9
-9 0 -41 7 11 33 21 11
-7 2 -44 7 12 34 23 13
-4 4 -47 7 13 36 25 15
-3 6 -49 8 14 38 27 16
-3 6 -51 9 16 40 28 17
-3 6 -54 10 18 43 30 18
-3 6 -56 10 19 45 32 18
-3 6 -58 11 21 48 34 19
-3 6 -61 12 23 50 36 21
-2 7 -63 12 25 53 40 24
1 9 -65 13 27 56 44 26
3 11 -67 14 29 59 48 29
5 13 -70 14 31 62 51 31
6 14 -72 15 32 65 54 33
7 15 -75 15 34 67 56 35
9 17 -79 16 36 70 58 36
10 18 -82 17 38 72 60 37
11 19 -86 17 40 74 62 39
13 20 -88 19 43 78 65 43
15 19 -89 21 47 82 69 47
17 18 -91 23 50 87 74 51
19 18 -92 25 54 91 78 55
21 17 -93 27 57 96 84 59
22 19 -96 28 59 98 86 61
23 25 -101 26 58 98 86 61
24 31 -106 25 57 98 86 60
25 37 -111 24 57 98 86 60
26 45 -116 22 56 98 86 60
27 48 -120 21 55 98 87 59
28 48 -123 21 56 100 89 60
29 48 -126 22 57 101 90 61
30 48 -129 23 58 102 91 61
31 48 -131 23 59 104 93 62
32 48 -133 24 60 105 94 63
33 48 -134 24 61 105 94 64
35 48 -135 24 62 106 95 65
36 48 -135 24 63 107 96 66
37 48 -136 24 64 107 96 67
38 49 -137 24 65 108 97 68
37 49 -135 25 65 107 97 68
36 50 -134 26 65 106 96 68
36 50 -133 26 65 105 96 68
35 50 -131 27 65 104 96 68
34 51 -130 28 65 102 94 66
33 49 -128 28 64 100 92 64
32 48 -126 29 62 98 89 62
31 47 -124 29 61 96 86 60
30 45 -122 29 60 94 84 58
28 44 -119 30 59 92 80 57
26 44 -114 30 57 89 77 55
24 43 -110 30 56 85 74 54
22 43 -105 30 55 81 72 53
20 43 -101 30 53 78 69 51
19 42 -96 31 52 75 66 49
17 40 -91 33 52 73 64 47
15 38 -86 35 51 71 61 44
13 37 -80 37 51 69 58 40
11 36 -75 39 51 67 56 38
9 34 -70 40 50 64 53 35
6 31 -64 42 49 62 51 33
3 28 -58 44 47 59 48 31
0 25 -53 45 46 57 46 29
-4 22 -47 46 45 55 44 27
-7 19 -43 47 44 52 40 25
-9 17 -39 48 43 50 37 23
-11 15 -35 49 42 47 34 21
-13 13 -32 49 42 45 32 19
-15 11 -29 50 40 43 29 17
-16 10 -25 51 39 40 27 16
-16 10 -21 51 37 38 26 14
-17 9 -16 50 36 36 24 13
-18 8 -12 50 35 34 23 12
-18 8 -8 50 33 32 22 10
-20 7 -4 49 32 31 20 9
-22 6 0 48 31 29 18 8
-24 4 3 47 29 27 16 7
-26 3 5 47 28 25 14 6
-28 2 8 46 27 23 12 5
-29 1 10 45 26 22 11 4
-29 0 11 45 25 20 10 3
-28 -2 12 44 23 19 9 1
-28 -2 12 44 22 18 8 0
-28 -3 13 44 21 16 7 -2
-27 -4 14 42 20 15 6 -3
-28 -4 14 39 18 14 5 -3
-29 -4 15 36 17 13 5 -3
-30 -5 16 33 16 12 4 -3
-31 -5 16 31 14 11 3 -3
-32 -6 17 29 13 10 2 -4
-32 -6 17 29 13 10 2 -4
-32 -6 17 29 13 10 2 -4
-33 -6 17 29 13 9 2 -4
-33 -6 17 29 13 9 2 -4
-34 -6 18 29 12 8 2 -5
-34 -6 18 29 12 8 2 -5
-34 -6 18 28 12 8 2 -5
-34 -6 18 27 11 7 1 -5
-34 -6 18 27 11 7 1 -5
-33 -7 18 26 10 6 0 -5
-33 -7 18 25 10 6 0 -5
-33 -7 18 24 9 6 0 -5
-32 -7 17 22 8 5 -2 -5
-32 -7 17 21 8 5 -2 -5
-31 -7 16 20 7 4 -3 -5
-31 -7 17 20 7 4 -3 -5
-31 -7 17 20 8 4 -3 -5
-31 -7 18 20 9 4 -3 -5
-31 -7 19 20 9 4 -3 -5
-32 -7 20 20 10 5 -2 -5
-32 -7 20 18 10 5 -2 -5
-32 -7 19 17 10 5 -2 -4
-32 -7 18 15 9 4 -2 -3
-32 -7 18 13 9 4 -2 -3
-31 -7 17 12 8 3 -2 -2
-31 -7 17 12 8 3 -2 -2
-31 -7 16 12 8 3 -2 -2
-31 -7 15 12 9 3 -2 -2
-31 -7 15 12 9 3 -2 -2
-32 -8 14 11 10 3 0 0
-32 -8 14 9 10 3 0 0
-32 -8 14 7 10 3 0 0
-32 -8 15 5 10 3 0 1
-32 -8 15 3 10 3 0 1
-33 -8 16 2 9 3 0 2
-32 -8 16 2 9 3 0 2
-31 -7 16 2 9 3 0 2
-30 -6 15 2 8 3 0 2
-29 -6 15 2 8 3 0 2
-28 -5 14 3 7 2 0 2
-28 -7 14 3 7 2 -2 2
-28 -8 14 3 7 1 -2 1
-28 -10 14 2 7 0 -3 0
-28 -12 14 2 7 0 -4 0
-29 -13 14 1 7 -2 -5 -2
-29 -11 14 2 7 0 -4 0
-29 -10 14 2 8 0 -3 1
-30 -9 14 3 9 1 0 2
-30 -7 14 4 9 2 1 3
-31 -6 14 5 10 3 2 4
-31 -6 15 5 9 3 2 4
-31 -5 15 5 9 3 1 4
-30 -4 16 5 8 2 0 4
-30 -4 17 5 7 2 0 4
-29 -3 18 4 6 1 -2 3
-29 -4 16 4 6 1 -2 3
-29 -4 15 4 6 1 -2 2
-28 -5 14 4 5 0 -3 1
-28 -6 12 4 5 0 -3 1
-26 -7 11 3 4 -2 -4 0
-24 -7 11 1 2 -4 -5 -2
-22 -7 10 0 1 -5 -6 -3
-19 -7 9 -3 0 -6 -8 -4
-17 -7 9 -5 -3 -8 -9 -5
-15 -7 8 -6 -4 -9 -10 -6
-15 -7 8 -6 -4 -9 -10 -6
-15 -7 8 -6 -4 -9 -10 -6
-15 -7 8 -6 -4 -9 -10 -6
-15 -7 8 -6 -4 -9 -10 -6
-17 -8 7 -6 -3 -8 -11 -5
-20 -8 8 -5 -2 -8 -10 -4
-23 -8 9 -4 0 -8 -9 -3
-26 -7 10 -3 1 -7 -7 0
-29 -7 11 -2 2 -7 -6 1
-32 -6 12 0 3 -6 -5 2
-34 -7 12 0 3 -6 -5 2
-37 -7 12 0 3 -6 -5 2
-39 -8 12 1 3 -5 -5 2
-43 -9 12 1 3 -5 -5 2
-45 -10 13 2 2 -4 -5 2
-43 -10 13 2 2 -4 -5 2
-41 -10 13 2 2 -4 -5 2
-40 -11 13 2 2 -4 -5 2
-38 -11 13 2 2 -4 -5 2
-37 -12 13 2 2 -5 -6 1
-38 -12 13 2 2 -5 -6 1
-39 -12 13 2 1 -5 -6 1
-41 -12 13 2 0 -5 -6 1
-43 -12 13 2 0 -5 -6 1
-44 -11 14 2 -2 -6 -6 1
-43 -11 14 2 -2 -6 -6 1
-41 -11 14 2 -3 -6 -6 1
-40 -11 14 2 -4 -7 -7 1
-39 -11 14 2 -4 -7 -7 1
-38 -10 14 1 -5 -8 -8 0
-38 -10 14 1 -5 -8 -8 0
-39 -10 14 1 -5 -7 -7 1
-40 -10 14 1 -5 -6 -6 2
-40 -10 14 1 -5 -6 -6 2
-41 -9 15 1 -6 -5 -5 3
-41 -8 16 1 -6 -5 -5 3
-40 -7 16 2 -5 -5 -5 3
-39 -5 17 3 -4 -5 -5 4
-39 -4 18 3 -4 -5 -5 4
-38 -3 19 4 -3 -5 -5 5
-37 -2 20 5 -2 -5 -5 5
-35 1 21 5 0 -4 -5 5
-34 2 22 6 1 -3 -4 5
-32 4 23 7 2 -3 -4 5
-31 5 24 8 3 -2 -3 6
-29 6 24 7 2 -2 -3 6
-27 6 24 7 1 -2 -3 6
-25 7 24 6 0 -2 -3 6
-23 8 24 5 -2 -2 -3 6
-21 9 23 4 -3 -2 -4 5
-21 10 23 4 -3 -2 -4 5
-21 10 23 5 -3 -2 -4 5
-22 11 24 6 -2 -2 -4 5
-22 12 24 6 -2 -2 -4 5
-23 13 24 7 0 0 -4 5
-22 14 22 6 0 0 -4 5
-21 15 19 6 0 0 -4 5
-19 16 16 5 0 0 -4 5
-18 17 13 4 0 0 -4 5
-17 18 11 3 0 1 -4 6
-17 19 9 1 -2 1 -4 6
-16 20 7 -2 -3 1 -4 7
-15 21 5 -4 -4 1 -3 8
-15 22 4 -5 -5 1 -3 8
-14 23 2 -7 -6 0 -2 9
-13 20 2 -8 -7 -2 -2 9
-13 18 1 -9 -9 -2 -2 9
-12 15 0 -10 -10 -3 -2 10
-11 13 0 -11 -12 -4 -2 10
-10 11 -2 -12 -13 -5 -2 11
-11 10 -2 -11 -13 -5 -2 11
-11 8 -2 -9 -13 -5 -2 10
-12 7 0 -8 -13 -6 -2 9
-13 5 0 -6 -13 -6 -2 9
-14 4 1 -5 -13 -7 -3 8
-14 2 1 -6 -13 -8 -4 7
-14 1 1 -8 -14 -8 -4 6
-15 -2 1 -9 -15 -9 -5 5
-15 -4 1 -11 -15 -10 -6 4
-16 -5 2 -12 -16 -11 -7 3
-17 -7 2 -12 -17 -12 -9 1
-18 -9 2 -13 -18 -14 -11 -2
-20 -11 2 -14 -20 -15 -13 -4
-21 -12 2 -14 -21 -17 -14 -6
-22 -14 3 -15 -22 -18 -16 -8
-22 -15 3 -16 -23 -19 -17 -8
-22 -16 3 -16 -24 -20 -18 -9
-22 -18 3 -17 -26 -21 -19 -10
-22 -19 3 -18 -27 -22 -20 -10
-22 -20 3 -19 -28 -23 -21 -11
-20 -20 2 -19 -28 -23 -21 -11
-18 -20 1 -19 -28 -24 -21 -12
-16 -21 0 -19 -28 -25 -22 -13
-15 -21 -2 -19 -28 -25 -22 -13
-13 -22 -3 -18 -29 -26 -23 -14
-13 -22 -3 -19 -29 -26 -23 -14
-13 -22 -3 -19 -29 -26 -23 -14
-14 -23 -3 -20 -30 -26 -24 -14
-14 -23 -3 -21 -30 -26 -24 -14
-15 -24 -2 -22 -31 -27 -25 -14
-14 -23 0 -22 -31 -27 -25 -14
-13 -23 0 -22 -31 -27 -25 -14
-11 -22 1 -21 -30 -27 -25 -14
-10 -21 2 -21 -30 -27 -25 -14
-9 -20 3 -20 -29 -26 -25 -15
-9 -20 3 -20 -29 -26 -25 -15
-10 -20 3 -20 -29 -26 -25 -15
-11 -21 3 -20 -29 -26 -25 -15
-11 -21 3 -20 -29 -26 -25 -15
-12 -22 4 -19 -28 -26 -25 -16
-13 -22 9 -17 -28 -27 -27 -17
-14 -22 13 -16 -28 -28 -30 -19
-16 -22 18 -14 -28 -30 -32 -20
-17 -22 23 -13 -28 -31 -34 -22
-18 -22 28 -8 -25 -30 -35 -23
-20 -21 35 4 -16 -23 -31 -21
-21 -21 43 14 -6 -15 -27 -18
-23 -20 51 24 4 -8 -22 -16
-24 -19 58 35 13 1 -18 -14
-22 -16 63 50 29 16 -7 -7
-11 -9 63 72 59 48 17 8
2 -2 64 96 88 79 40 23
14 6 65 118 116 111 64 37
26 13 65 141 146 142 88 53
40 23 65 165 179 177 114 70
60 38 61 194 219 217 144 91
79 55 56 223 259 257 175 112
99 71 52 251 299 297 205 134
118 87 47 279 339 338 236 155
132 97 40 293 359 356 255 169
131 92 29 271 339 332 245 164
129 88 19 250 318 308 236 159
128 82 8 229 298 283 228 155
126 78 -3 207 277 259 219 150
117 68 -8 177 239 219 196 138
96 50 2 127 165 146 144 107
74 31 12 75 92 73 93 77
53 14 21 25 19 1 42 48
31 -5 31 -25 -55 -72 -11 17
13 -20 44 -58 -104 -121 -48 -7
4 -29 61 -49 -101 -122 -57 -17
-6 -38 77 -40 -98 -123 -66 -26
-15 -47 95 -32 -96 -124 -75 -36
-24 -56 111 -23 -93 -127 -85 -47
-32 -62 128 -17 -91 -128 -91 -55
-38 -62 141 -15 -91 -128 -94 -58
-44 -62 154 -14 -90 -128 -97 -61
-49 -62 168 -12 -90 -128 -99 -65
-55 -62 181 -11 -89 -128 -102 -68
-60 -61 192 -10 -88 -126 -104 -71
-65 -60 201 -13 -87 -122 -104 -71
-71 -59 211 -17 -85 -119 -104 -72
-76 -58 220 -20 -83 -116 -104 -72
-81 -56 229 -24 -81 -113 -104 -73
-86 -55 236 -29 -81 -110 -104 -74
-87 -55 242 -38 -85 -111 -104 -74
-87 -55 248 -47 -89 -111 -104 -74
-88 -55 255 -56 -92 -112 -103 -74
-89 -55 261 -65 -96 -113 -103 -74
-90 -54 265 -72 -99 -114 -102 -74
-91 -54 266 -75 -100 -114 -102 -74
-92 -54 266 -79 -102 -114 -102 -74
-93 -55 267 -83 -103 -113 -103 -74
-95 -55 268 -88 -105 -113 -103 -74
-95 -56 263 -91 -106 -112 -103 -73
-89 -56 241 -91 -105 -109 -100 -71
-82 -56 220 -91 -103 -106 -96 -69
-76 -56 199 -91 -102 -103 -92 -67
-70 -56 178 -91 -100 -100 -88 -65
-64 -55 155 -91 -98 -97 -83 -62
-57 -49 131 -87 -94 -91 -77 -58
-51 -44 106 -83 -89 -86 -72 -54
-45 -38 81 -80 -85 -79 -67 -50
-38 -32 57 -77 -80 -73 -61 -45
-32 -28 37 -73 -75 -68 -56 -40
-27 -27 29 -68 -69 -62 -52 -37
-22 -25 21 -63 -64 -57 -47 -33
-18 -24 13 -58 -59 -52 -41 -30
-13 -22 5 -53 -53 -46 -37 -26
-9 -21 -2 -48 -48 -40 -33 -23
-7 -19 -3 -44 -43 -36 -29 -21
-4 -18 -4 -38 -37 -32 -26 -19
-2 -16 -5 -33 -33 -28 -23 -17
1 -15 -6 -29 -28 -24 -20 -15
3 -13 -7 -25 -24 -21 -17 -13
5 -13 -10 -25 -24 -20 -16 -12
6 -12 -13 -25 -23 -20 -16 -11
8 -12 -16 -25 -23 -19 -15 -10
9 -11 -19 -25 -22 -18 -14 -9
11 -10 -22 -25 -21 -17 -13 -8
11 -10 -25 -25 -20 -16 -12 -8
11 -10 -28 -25 -19 -14 -11 -8
12 -10 -31 -24 -18 -13 -10 -8
12 -10 -34 -24 -17 -11 -9 -8
13 -9 -36 -23 -16 -10 -8 -7
15 -8 -36 -23 -16 -10 -7 -6
16 -7 -37 -23 -15 -9 -6 -5
18 -6 -37 -23 -15 -9 -5 -4
19 -5 -38 -23 -14 -8 -3 -2
21 -4 -39 -23 -13 -7 -2 0
21 -4 -41 -23 -12 -6 0 0
21 -4 -44 -23 -10 -5 1 1
21 -4 -45 -23 -9 -4 2 1
21 -4 -47 -23 -8 -2 3 2
20 -4 -49 -22 -6 0 4 3
22 -2 -50 -22 -4 2 6 4
25 1 -52 -22 -3 4 8 6
27 2 -53 -21 0 5 9 7
29 4 -54 -21 1 7 11 8
31 6 -56 -20 3 9 13 10
31 6 -59 -19 4 11 15 10
31 6 -62 -18 6 14 17 11
32 6 -65 -17 7 16 19 11
32 6 -68 -16 8 18 21 12
33 7 -71 -15 10 20 23 13
36 9 -73 -15 11 23 26 15
38 11 -74 -15 13 25 28 17
40 14 -76 -15 14 27 31 18
44 16 -77 -15 15 30 34 20
46 18 -80 -15 17 32 36 22
46 19 -85 -14 19 35 39 25
46 20 -89 -14 21 38 43 28
46 21 -93 -13 22 42 46 31
46 22 -97 -12 24 45 48 34
46 23 -100 -11 26 48 51 37
47 24 -103 -11 27 50 54 38
48 25 -105 -11 28 52 56 40
49 26 -107 -11 29 55 59 42
51 28 -110 -11 31 57 62 43
52 29 -112 -11 32 59 64 45
55 30 -116 -11 34 61 66 47
57 32 -120 -11 35 63 68 48
60 33 -123 -11 37 65 69 50
63 34 -128 -11 38 67 71 51
65 36 -131 -11 40 69 73 53
66 37 -133 -11 40 70 74 54
67 39 -135 -11 42 71 75 55
68 40 -136 -10 42 72 76 56
69 42 -138 -10 43 74 78 58
70 44 -140 -9 44 75 79 59
70 45 -141 -8 46 76 80 60
70 46 -141 -7 47 78 82 61
70 47 -142 -6 49 79 84 62
70 48 -143 -4 50 80 85 64
69 49 -144 -3 52 82 87 65
69 49 -144 -3 52 81 86 65
68 49 -144 -4 51 80 85 64
68 48 -144 -4 50 79 84 64
67 48 -144 -5 49 77 82 63
66 47 -144 -6 48 76 81 62
66 47 -141 -5 48 75 80 61
65 47 -138 -4 48 73 78 60
64 47 -135 -3 48 72 76 59
63 47 -132 0 48 71 75 58
62 47 -129 1 47 69 73 57
59 46 -124 1 46 66 70 55
55 44 -120 1 44 63 68 53
52 42 -116 1 43 60 65 52
49 40 -112 1 42 57 62 50
46 38 -108 2 39 54 60 48
45 38 -104 3 39 51 57 45
43 37 -99 5 38 49 53 43
40 36 -94 6 38 46 50 39
39 35 -89 7 37 43 47 36
37 34 -83 9 36 40 44 34
32 30 -78 9 36 37 40 32
28 27 -73 9 35 34 37 29
24 24 -68 9 34 31 34 27
20 20 -63 9 33 28 31 24
16 17 -57 10 32 25 28 22
15 17 -52 11 32 25 27 22
14 17 -47 13 31 24 26 21
13 16 -41 15 30 23 25 20
11 16 -36 16 29 22 23 19
10 15 -31 18 28 21 22 18
8 13 -27 18 27 19 20 16
6 11 -24 17 25 17 18 15
3 9 -20 17 24 14 15 13
1 7 -16 16 23 12 13 11
-2 5 -13 15 21 10 11 9
-3 5 -10 15 21 10 10 8
-5 5 -7 15 21 9 9 7
-6 4 -4 15 20 9 8 6
-7 4 -2 15 20 8 6 5
-9 3 2 15 19 7 5 4
-9 3 3 15 17 5 4 4
-9 2 5 14 15 4 3 3
-10 2 7 13 13 2 2 2
-10 1 8 12 11 0 0 1
-11 0 10 11 9 -3 -2 0
-12 0 11 11 9 -3 -2 0
-14 -2 13 10 9 -3 -2 0
-15 -3 14 10 9 -3 -3 -2
-16 -4 15 9 9 -3 -3 -2
-18 -5 17 8 9 -3 -4 -3
-18 -5 17 6 8 -4 -4 -3
-18 -5 16 5 6 -5 -4 -3
-19 -5 15 3 4 -6 -5 -4
-19 -5 14 1 3 -7 -5 -4
-20 -5 13 -2 1 -8 -6 -5
-19 -5 13 -2 1 -8 -6 -5
-18 -5 13 -2 1 -8 -6 -5
-17 -5 12 -2 1 -8 -6 -5
-16 -5 12 -2 1 -8 -6 -5
-15 -5 11 -3 1 -9 -7 -5
-16 -5 11 -3 1 -9 -7 -5
-18 -5 12 -3 1 -9 -7 -5
-19 -5 13 -3 1 -9 -7 -5
-20 -5 14 -3 1 -9 -7 -5
-22 -6 15 -4 1 -8 -7 -6
-23 -7 14 -4 1 -8 -7 -6
-25 -8 13 -3 1 -8 -7 -6
-27 -9 12 -3 1 -8 -8 -7
-28 -10 11 -2 1 -8 -8 -7
-30 -11 10 0 1 -9 -9 -8
-26 -10 10 0 1 -9 -9 -8
-23 -8 10 -2 1 -9 -9 -8
-20 -6 10 -2 1 -9 -9 -7
-16 -5 10 -3 1 -9 -9 -7
-13 -3 11 -4 1 -8 -8 -6
-13 -3 11 -4 1 -8 -8 -6
-14 -3 12 -4 1 -7 -8 -6
-15 -3 13 -4 1 -7 -8 -6
-16 -3 14 -4 1 -6 -8 -6
-17 -4 15 -3 2 -5 -7 -5
-17 -4 15 -3 2 -5 -7 -5
-18 -5 15 -3 2 -5 -7 -5
-18 -6 14 -3 2 -5 -7 -5
-19 -7 14 -3 2 -5 -7 -5
-20 -8 13 -4 1 -6 -7 -5
-20 -8 12 -4 1 -6 -7 -5
-20 -8 11 -5 1 -6 -7 -5
-20 -8 10 -5 0 -5 -8 -5
-20 -8 8 -6 0 -5 -8 -5
-20 -9 7 -7 -2 -4 -9 -6
-20 -9 7 -7 -2 -4 -9 -6
-19 -8 8 -8 -2 -4 -9 -6
-19 -7 8 -8 -2 -4 -8 -6
-18 -6 9 -9 -2 -4 -8 -6
-17 -5 10 -10 0 -5 -7 -6
-17 -5 10 -10 0 -5 -7 -6
-17 -5 10 -10 0 -5 -7 -6
-17 -5 9 -10 0 -4 -7 -7
-17 -5 9 -10 0 -4 -7 -7
-18 -6 8 -9 0 -3 -8 -8
-19 -7 8 -9 0 -3 -8 -8
-20 -8 9 -10 -2 -3 -8 -8
-21 -9 9 -10 -3 -4 -8 -8
-22 -10 10 -11 -4 -4 -8 -8
-24 -11 11 -12 -5 -5 -9 -8
-23 -11 11 -12 -5 -5 -9 -8
-22 -10 11 -12 -5 -5 -9 -8
-21 -10 10 -12 -5 -5 -9 -8
-20 -9 10 -12 -5 -5 -9 -8
-19 -8 9 -12 -4 -5 -10 -8
-19 -8 9 -12 -4 -5 -10 -8
-19 -8 9 -12 -4 -5 -10 -8
-19 -7 9 -12 -4 -5 -10 -9
-19 -7 9 -12 -4 -5 -10 -9
-18 -6 9 -11 -5 -4 -10 -10
-19 -6 9 -11 -5 -4 -10 -10
-20 -6 9 -11 -5 -4 -10 -10
-21 -7 9 -11 -5 -5 -11 -10
-22 -7 9 -11 -5 -5 -11 -10
-24 -8 8 -12 -6 -6 -12 -11
-24 -8 8 -12 -6 -6 -12 -11
-24 -8 9 -12 -6 -6 -12 -11
-24 -8 10 -12 -5 -6 -12 -10
-24 -8 11 -12 -5 -6 -12 -10
-25 -8 12 -12 -4 -5 -11 -9
-25 -9 12 -12 -4 -5 -11 -9
-26 -10 12 -12 -4 -5 -11 -9
-27 -11 11 -12 -5 -6 -12 -10
-28 -12 11 -12 -5 -6 -12 -10
-29 -13 10 -13 -6 -7 -13 -11
-29 -12 10 -13 -6 -7 -13 -11
-28 -11 9 -13 -6 -7 -13 -11
-27 -10 9 -12 -6 -7 -12 -10
-26 -9 8 -12 -6 -7 -12 -10
-25 -8 7 -11 -7 -6 -11 -9
-25 -8 7 -11 -7 -6 -11 -9
-24 -8 7 -11 -7 -7 -12 -10
-23 -9 7 -11 -8 -7 -12 -10
-22 -9 7 -11 -8 -8 -13 -11
-21 -10 6 -10 -9 -9 -14 -12
-22 -11 6 -10 -9 -9 -14 -12
-23 -12 6 -10 -9 -9 -14 -12
-24 -13 6 -10 -9 -9 -13 -12
-25 -14 6 -10 -9 -9 -13 -12
-26 -15 5 -9 -9 -8 -12 -11
-25 -15 5 -10 -10 -9 -13 -11
-24 -15 5 -11 -11 -10 -14 -12
-23 -15 5 -13 -12 -12 -15 -13
-22 -15 5 -14 -13 -13 -16 -14
-21 -16 4 -16 -14 -15 -17 -15
-20 -13 6 -15 -13 -14 -16 -14
-18 -9 8 -13 -11 -13 -15 -13
-17 -6 10 -12 -10 -12 -14 -12
-15 -2 13 -10 -8 -11 -13 -11
-13 2 15 -8 -6 -9 -11 -10
-13 2 15 -8 -6 -9 -11 -10
-12 3 14 -8 -6 -9 -12 -10
-11 4 13 -8 -6 -10 -12 -10
-10 5 12 -8 -6 -10 -13 -10
-9 6 11 -9 -7 -11 -14 -11
-10 6 12 -9 -7 -11 -14 -11
-11 7 13 -8 -6 -10 -13 -11
-12 8 14 -8 -6 -9 -13 -10
-13 9 15 -7 -5 -8 -12 -10
-14 10 17 -6 -4 -7 -11 -9
-14 10 17 -6 -4 -7 -11 -9
-14 10 17 -6 -3 -7 -10 -8
-14 10 18 -5 -3 -6 -9 -8
-14 10 18 -5 -2 -6 -8 -7
-13 11 19 -4 0 -5 -7 -6
-12 12 17 -4 0 -5 -6 -5
-11 13 15 -4 0 -5 -5 -4
-9 14 13 -4 0 -5 -4 -3
-8 15 11 -4 0 -5 -3 -2
-6 17 9 -4 -2 -5 -2 1
-5 17 7 -4 -2 -5 -2 1
-3 17 4 -5 -3 -5 -2 1
-2 17 1 -6 -3 -5 -2 1
1 17 -2 -7 -4 -5 -2 1
3 18 -5 -8 -5 -6 -3 1
3 18 -6 -9 -6 -7 -3 1
3 17 -7 -11 -7 -8 -4 1
3 16 -8 -12 -8 -9 -4 0
3 15 -9 -14 -9 -10 -5 0
4 14 -10 -16 -10 -12 -6 -2
5 13 -10 -16 -10 -12 -6 -2
6 12 -10 -15 -11 -12 -6 -3
7 10 -11 -15 -12 -13 -6 -3
8 9 -11 -14 -13 -13 -6 -4
10 7 -12 -13 -14 -14 -7 -5
8 6 -11 -13 -14 -15 -8 -5
5 4 -10 -13 -15 -16 -9 -6
3 3 -8 -13 -16 -17 -10 -6
1 1 -7 -13 -17 -18 -11 -7
-3 -2 -5 -14 -18 -19 -12 -8
-6 -4 -5 -14 -18 -20 -13 -9
-9 -7 -4 -14 -19 -21 -14 -10
-12 -10 -4 -14 -19 -22 -15 -12
-15 -12 -3 -14 -20 -23 -16 -13
-18 -15 -2 -15 -21 -25 -18 -15
-17 -15 -2 -15 -22 -25 -19 -15
-16 -15 -2 -16 -23 -26 -20 -16
-15 -16 -3 -16 -24 -26 -21 -17
-14 -16 -3 -17 -25 -27 -22 -18
-13 -17 -4 -18 -26 -28 -23 -19
-13 -17 -4 -18 -26 -28 -23 -19
-13 -17 -4 -18 -26 -29 -23 -19
-14 -17 -4 -18 -26 -30 -23 -19
-14 -17 -4 -18 -26 -31 -23 -19
-15 -18 -5 -19 -27 -32 -22 -20
-15 -18 -5 -19 -27 -32 -22 -20
-15 -18 -5 -19 -27 -32 -22 -19
-15 -19 -5 -19 -27 -32 -22 -19
-15 -19 -5 -19 -27 -32 -22 -18
-16 -20 -4 -18 -27 -32 -22 -17
-16 -20 -4 -18 -27 -32 -22 -17
-16 -20 -4 -18 -27 -32 -22 -17
-16 -21 -4 -18 -27 -32 -22 -17
-16 -21 -4 -18 -27 -32 -22 -17
-15 -22 -3 -17 -26 -31 -23 -18
-15 -22 -3 -17 -26 -31 -23 -18
-15 -22 -3 -17 -26 -31 -23 -18
-15 -22 -3 -16 -26 -31 -23 -18
-15 -22 -3 -16 -26 -31 -23 -18
-15 -22 -2 -15 -27 -31 -23 -18
-16 -22 2 -15 -27 -31 -24 -18
-17 -22 5 -15 -27 -32 -25 -19
-18 -21 8 -15 -27 -32 -27 -20
-19 -21 11 -15 -27 -33 -28 -21
-21 -20 14 -14 -28 -34 -30 -22
-22 -20 22 -5 -21 -31 -29 -22
-23 -19 30 4 -14 -27 -28 -22
-25 -18 39 13 -8 -24 -27 -22
-26 -17 48 21 0 -21 -26 -22
-28 -16 56 31 8 -16 -23 -22
-17 -11 56 51 32 12 -3 -9
-5 -6 57 71 56 39 19 6
7 0 58 92 80 68 39 19
18 5 59 112 105 96 61 32
29 10 60 133 131 125 82 47
48 24 56 164 172 165 114 68
66 38 53 196 213 206 146 90
85 53 49 228 254 247 178 112
103 67 45 260 295 288 210 134
120 81 40 290 334 328 240 155
123 81 29 283 327 318 238 155
127 80 18 277 320 308 235 155
131 79 7 270 313 299 233 154
134 78 -5 263 307 288 230 154
137 77 -16 254 297 275 225 152
113 59 -10 194 220 198 175 125
90 42 -3 134 143 122 125 96
66 24 5 74 66 46 74 67
43 6 11 15 -11 -31 24 39
19 -12 18 -43 -85 -105 -24 12
10 -20 34 -40 -88 -112 -36 0
1 -28 51 -37 -91 -119 -50 -12
-9 -36 67 -35 -95 -127 -62 -24
-19 -45 84 -32 -98 -135 -75 -35
-28 -53 100 -29 -102 -142 -88 -48
-34 -54 114 -26 -100 -140 -90 -51
-40 -55 130 -22 -98 -138 -92 -54
-47 -56 144 -18 -96 -136 -94 -58
-53 -57 159 -14 -94 -134 -96 -61
-59 -59 174 -10 -91 -131 -99 -65
-64 -58 184 -10 -88 -127 -98 -65
-69 -56 194 -11 -83 -121 -97 -65
-74 -54 204 -12 -80 -117 -96 -65
-79 -52 216 -13 -76 -112 -95 -65
-85 -50 226 -14 -72 -107 -94 -66
-88 -51 232 -23 -73 -108 -94 -66
-91 -52 238 -32 -74 -109 -95 -67
-95 -54 245 -41 -75 -110 -96 -67
-98 -55 252 -51 -76 -111 -97 -68
-102 -57 259 -60 -77 -112 -98 -69
-102 -57 261 -64 -78 -112 -98 -69
-103 -57 264 -69 -80 -112 -97 -68
-103 -56 266 -73 -81 -112 -97 -67
-104 -56 269 -78 -83 -112 -96 -66
-105 -55 272 -83 -86 -111 -95 -65
-101 -55 256 -85 -86 -110 -93 -64
-97 -55 239 -86 -86 -108 -91 -63
-92 -54 223 -87 -85 -107 -89 -61
-88 -54 205 -88 -85 -105 -87 -60
-82 -53 189 -89 -83 -103 -85 -58
-75 -48 162 -88 -80 -98 -80 -55
-68 -43 136 -87 -77 -93 -75 -51
-61 -37 110 -86 -73 -88 -71 -47
-54 -32 84 -85 -70 -82 -66 -43
-46 -27 57 -82 -66 -77 -61 -38
-40 -26 45 -77 -61 -72 -56 -35
-35 -25 32 -72 -56 -66 -51 -31
-30 -24 19 -67 -50 -61 -46 -27
-25 -23 7 -62 -45 -55 -40 -23
-19 -21 -7 -57 -38 -49 -34 -19
-16 -20 -9 -53 -34 -45 -31 -17
-12 -19 -12 -49 -30 -40 -28 -15
-8 -18 -14 -44 -26 -36 -25 -12
-4 -17 -17 -39 -22 -32 -22 -10
1 -16 -20 -34 -17 -28 -19 -7
3 -16 -22 -34 -17 -28 -18 -7
5 -15 -24 -34 -16 -27 -17 -6
7 -14 -27 -33 -15 -26 -16 -6
9 -13 -29 -33 -14 -25 -15 -5
11 -12 -32 -32 -13 -24 -14 -4
13 -10 -33 -32 -11 -22 -12 -3
15 -8 -35 -31 -8 -20 -10 0
17 -5 -36 -31 -5 -18 -8 1
18 -3 -38 -30 -2 -16 -6 3
20 0 -39 -30 1 -14 -4 4
21 1 -41 -29 2 -13 -3 5
21 1 -44 -29 2 -13 -2 6
21 1 -46 -29 2 -12 -2 6
21 1 -48 -29 2 -12 0 7
21 1 -50 -29 2 -12 0 7
22 1 -52 -28 4 -10 2 8
23 1 -53 -26 6 -8 3 9
25 1 -55 -24 7 -7 4 9
26 1 -56 -22 9 -5 5 10
27 1 -57 -20 10 -4 6 10
28 1 -60 -19 11 -3 7 11
29 2 -63 -19 11 -2 8 12
30 3 -66 -20 12 0 9 13
31 4 -69 -20 12 1 10 14
31 4 -71 -20 12 2 11 15
33 6 -74 -21 14 5 14 16
34 7 -76 -21 15 7 16 17
36 8 -79 -21 17 9 18 18
37 9 -81 -21 18 11 20 19
38 10 -83 -21 19 13 22 20
42 12 -87 -20 20 16 25 23
44 14 -90 -19 21 18 28 25
46 15 -92 -18 22 20 30 27
48 17 -95 -17 23 22 33 29
50 18 -97 -17 23 24 35 31
51 20 -100 -16 25 27 37 33
52 21 -103 -16 27 29 39 34
53 22 -106 -15 29 31 42 36
54 23 -109 -15 31 33 44 37
55 24 -111 -15 32 35 46 38
58 25 -115 -14 34 38 49 42
61 26 -119 -13 36 42 52 44
63 27 -122 -12 37 45 55 47
66 28 -127 -11 39 48 58 49
68 29 -130 -11 40 50 61 51
70 31 -132 -10 43 51 64 52
71 33 -134 -10 45 52 66 53
72 35 -136 -10 47 53 68 54
73 37 -138 -10 49 54 70 55
74 38 -140 -10 51 55 72 56
76 40 -144 -10 52 57 73 58
77 42 -147 -10 53 58 74 59
79 43 -151 -10 54 60 74 60
80 44 -154 -10 55 61 75 61
81 45 -157 -10 55 62 75 62
82 47 -159 -8 57 64 77 64
84 49 -161 -6 59 65 79 65
84 50 -163 -5 60 67 80 67
85 52 -165 -3 62 68 82 68
85 53 -166 -2 63 69 84 69
86 54 -168 0 64 70 85 70
86 54 -166 0 64 70 85 70
86 54 -165 0 64 70 84 70
86 54 -164 0 64 70 84 70
86 54 -163 0 64 70 84 70
87 54 -161 -2 64 70 80 68
86 54 -160 0 63 68 78 67
85 53 -159 1 62 66 75 65
84 53 -158 2 61 64 73 64
82 53 -157 2 61 62 71 63
81 51 -152 3 60 59 68 61
80 49 -147 3 59 57 66 59
79 47 -142 3 59 55 64 58
78 45 -137 3 58 53 62 56
78 43 -132 3 58 51 60 55
74 40 -127 4 56 49 57 52
70 39 -121 6 55 47 55 50
67 38 -116 8 54 45 52 48
63 37 -112 10 53 43 50 46
60 36 -107 11 52 40 48 44
57 34 -102 12 51 37 44 40
55 32 -96 13 50 34 40 37
53 31 -91 14 50 31 37 35
51 29 -86 15 49 28 33 32
49 28 -80 16 49 26 30 30
44 25 -75 18 47 24 28 29
39 22 -70 20 46 22 26 28
34 20 -65 21 44 20 25 27
29 17 -61 23 43 18 23 26
25 15 -56 24 42 17 22 26
24 14 -51 25 40 15 19 25
23 13 -46 25 39 13 17 24
23 12 -40 25 38 11 15 23
22 11 -36 25 37 9 13 22
22 11 -31 25 36 7 11 22
21 10 -27 25 35 6 9 20
20 10 -24 25 34 5 7 18
19 10 -21 25 33 4 6 16
18 10 -17 25 32 3 4 14
18 10 -14 25 31 2 3 12
15 9 -12 25 29 0 2 11
13 8 -10 25 27 -2 2 11
11 6 -8 25 26 -4 1 11
9 5 -6 25 24 -5 1 11
7 4 -4 25 23 -6 1 11
6 3 -3 23 21 -8 -2 10
6 3 -3 21 20 -9 -4 8
6 2 -3 19 19 -10 -6 7
6 2 -3 17 18 -11 -8 5
6 2 -3 16 17 -12 -9 4
7 1 -4 15 16 -13 -10 3
6 0 -4 15 16 -13 -10 3
6 0 -4 15 15 -14 -10 3
5 -2 -4 15 15 -14 -10 3
5 -2 -4 15 15 -14 -10 3
4 -3 -4 14 14 -15 -9 3
4 -3 -4 13 14 -15 -9 3
3 -3 -3 12 13 -15 -9 4
3 -3 -3 11 13 -15 -9 4
3 -3 -3 11 13 -15 -9 4
2 -4 -2 10 12 -15 -8 5
2 -4 -3 9 11 -15 -9 5
3 -4 -3 8 10 -16 -9 4
3 -4 -4 7 9 -16 -10 4
3 -4 -4 7 9 -16 -10 4
4 -3 -5 6 8 -17 -11 3
4 -3 -5 6 8 -17 -11 3
3 -3 -5 7 8 -18 -11 2
3 -3 -5 7 8 -18 -11 2
3 -3 -5 7 8 -18 -11 2
2 -4 -6 8 7 -19 -12 1
2 -4 -6 7 6 -20 -12 1
2 -4 -6 6 5 -20 -13 1
2 -4 -6 5 4 -21 -13 1
2 -4 -6 4 3 -21 -13 1
1 -4 -5 3 2 -21 -14 0
2 -3 -5 4 3 -20 -13 0
3 -2 -6 5 4 -18 -12 0
4 0 -6 6 5 -17 -11 0
4 1 -6 7 6 -16 -11 0
5 1 -7 8 7 -15 -10 0
4 -2 -6 7 7 -15 -10 1
4 -3 -5 7 6 -16 -10 1
3 -5 -4 6 6 -16 -10 2
3 -6 -3 6 6 -16 -10 2
2 -7 -2 5 5 -17 -11 3
2 -6 -3 5 5 -17 -11 3
2 -6 -4 5 5 -16 -11 2
2 -5 -5 5 5 -16 -11 2
2 -5 -5 5 5 -16 -11 2
1 -4 -6 6 5 -15 -11 1
2 -4 -7 5 4 -16 -12 1
2 -5 -8 4 4 -16 -13 0
3 -5 -9 3 3 -17 -14 0
3 -5 -9 3 3 -17 -14 0
4 -5 -10 2 2 -18 -15 -2
4 -4 -9 3 2 -17 -14 0
4 -3 -8 3 3 -16 -13 0
4 -2 -7 4 3 -15 -12 1
4 0 -7 4 3 -15 -11 1
4 1 -6 5 4 -14 -10 2
3 0 -5 5 3 -14 -10 2
2 0 -5 5 2 -14 -10 2
1 -2 -4 5 1 -14 -10 2
0 -2 -4 5 1 -14 -10 2
0 -3 -3 5 0 -15 -9 2
1 -3 -4 4 -2 -16 -10 1
2 -3 -5 3 -3 -17 -11 0
3 -3 -6 2 -4 -18 -12 -2
4 -3 -6 1 -5 -18 -12 -3
4 -3 -7 0 -6 -19 -13 -4
3 -3 -6 0 -6 -19 -13 -4
1 -3 -5 0 -6 -18 -13 -4
0 -3 -4 0 -6 -18 -13 -4
-2 -3 -4 0 -6 -18 -13 -4
-3 -3 -3 1 -7 -17 -13 -4
-3 -4 -4 1 -7 -17 -13 -4
-4 -4 -5 1 -7 -17 -13 -4
-4 -5 -6 1 -7 -17 -13 -4
-4 -5 -6 1 -7 -17 -13 -4
-5 -6 -7 0 -7 -18 -14 -4
-5 -7 -6 -2 -8 -18 -14 -4
-5 -7 -6 -3 -8 -18 -13 -4
-5 -8 -5 -4 -9 -18 -13 -4
-5 -8 -5 -5 -9 -18 -13 -4
-6 -9 -4 -6 -10 -18 -13 -4
-6 -9 -4 -6 -10 -19 -14 -5
-5 -9 -5 -6 -10 -20 -15 -6
-5 -9 -5 -6 -10 -21 -16 -8
-5 -9 -5 -6 -10 -21 -17 -9
-4 -9 -6 -5 -11 -22 -18 -10
-4 -9 -6 -6 -11 -22 -17 -10
-5 -9 -6 -6 -11 -21 -17 -10
-5 -9 -6 -7 -11 -21 -16 -10
-5 -9 -6 -7 -11 -21 -16 -10
-6 -8 -6 -8 -10 -20 -15 -9
-7 -8 -6 -8 -10 -20 -15 -9
-7 -8 -5 -8 -10 -20 -16 -8
-8 -8 -5 -8 -10 -20 -16 -8
-8 -8 -5 -8 -10 -20 -16 -8
-9 -8 -4 -9 -11 -21 -17 -7
-9 -8 -3 -9 -11 -21 -17 -7
-9 -9 -3 -9 -11 -21 -17 -8
-9 -9 -2 -9 -11 -21 -17 -8
-9 -9 -2 -9 -11 -21 -17 -8
-8 -10 -2 -9 -11 -21 -17 -9
-8 -10 -3 -10 -12 -21 -18 -10
-8 -10 -4 -11 -13 -22 -20 -11
-8 -10 -6 -12 -14 -22 -22 -12
-8 -10 -7 -13 -14 -22 -23 -12
-9 -10 -8 -14 -15 -23 -24 -13
-9 -9 -7 -14 -15 -23 -23 -12
-9 -8 -6 -14 -15 -22 -22 -11
-9 -6 -5 -14 -15 -22 -21 -10
-9 -5 -5 -14 -15 -22 -20 -10
-10 -4 -4 -12 -16 -21 -19 -9
-9 -3 -3 -11 -15 -20 -18 -9
-8 -2 -2 -10 -14 -20 -17 -9
-7 0 0 -9 -13 -19 -16 -9
-6 0 1 -8 -13 -19 -15 -9
-5 1 3 -7 -12 -18 -14 -8
-6 3 4 -7 -12 -16 -14 -8
-6 4 6 -7 -11 -15 -14 -8
-7 5 8 -7 -11 -14 -14 -8
-7 6 9 -7 -11 -13 -14 -8
-8 7 10 -7 -10 -12 -14 -8
-8 7 11 -6 -9 -12 -13 -7
-9 7 11 -6 -9 -12 -12 -6
-9 7 12 -5 -8 -12 -11 -5
-9 7 12 -5 -8 -12 -10 -4
-10 8 13 -4 -7 -11 -9 -3
-10 9 13 -4 -7 -11 -9 -3
-9 10 12 -4 -7 -11 -9 -3
-9 11 12 -4 -7 -11 -9 -3
-9 12 12 -4 -7 -11 -9 -3
-8 13 11 -4 -6 -12 -8 -3
-7 15 10 -4 -5 -12 -8 -3
-7 16 9 -5 -5 -11 -8 -4
-6 17 8 -5 -4 -11 -8 -4
-6 18 8 -5 -4 -11 -8 -4
-5 19 6 -7 -3 -10 -9 -5
-4 20 4 -8 -3 -9 -8 -4
-4 21 2 -10 -3 -9 -7 -3
-3 22 0 -12 -3 -8 -6 -2
-3 23 -3 -13 -3 -8 -5 0
0 24 -5 -14 -4 -8 -4 1
1 23 -7 -15 -6 -10 -5 1
2 23 -10 -16 -8 -12 -6 0
4 22 -12 -17 -9 -13 -7 0
5 22 -14 -18 -11 -15 -7 0
6 19 -15 -19 -12 -16 -8 -2
6 16 -14 -19 -13 -16 -8 -2
6 13 -13 -19 -13 -16 -8 -2
6 10 -12 -19 -14 -16 -8 -2
6 7 -11 -19 -14 -16 -8 -2
6 6 -10 -19 -15 -16 -7 -3
6 6 -10 -19 -15 -16 -7 -3
5 5 -9 -19 -15 -16 -7 -4
5 5 -9 -19 -15 -16 -7 -4
5 5 -9 -19 -15 -16 -7 -4
2 2 -8 -18 -16 -17 -9 -7
-3 -2 -6 -18 -17 -19 -12 -10
-6 -5 -5 -19 -19 -21 -14 -12
-9 -9 -4 -19 -21 -23 -17 -15
-13 -12 -3 -19 -22 -25 -20 -18
-14 -13 -2 -20 -23 -26 -21 -19
-14 -14 -3 -20 -24 -26 -21 -19
-14 -15 -3 -21 -25 -27 -21 -20
-14 -16 -4 -21 -26 -27 -21 -20
-14 -16 -4 -21 -26 -27 -21 -20
-13 -17 -5 -22 -27 -28 -22 -21
-12 -17 -5 -22 -27 -28 -22 -21
-12 -17 -5 -22 -28 -28 -22 -21
-11 -17 -5 -22 -28 -28 -22 -21
-11 -17 -5 -22 -28 -28 -22 -21
-10 -18 -4 -21 -29 -28 -22 -20
-11 -18 -4 -22 -29 -28 -23 -20
-11 -18 -4 -22 -29 -28 -23 -20
-12 -18 -4 -23 -29 -28 -24 -20
-12 -18 -4 -23 -29 -28 -24 -20
-13 -19 -5 -24 -30 -29 -25 -21
-13 -19 -4 -25 -30 -29 -25 -22
-13 -20 -4 -26 -31 -29 -25 -23
-13 -20 -3 -27 -31 -29 -25 -24
-13 -20 -3 -27 -31 -29 -25 -24
-12 -21 0 -28 -32 -29 -25 -25
-12 -21 1 -27 -32 -29 -25 -25
-11 -21 2 -27 -32 -28 -25 -25
-11 -21 4 -26 -32 -28 -25 -25
-11 -21 5 -26 -32 -28 -25 -25
-10 -21 6 -25 -31 -27 -24 -24
-12 -21 7 -25 -31 -28 -25 -25
-13 -21 7 -25 -32 -28 -26 -26
-14 -21 8 -25 -32 -29 -27 -27
-15 -21 8 -25 -32 -29 -28 -28
-17 -21 16 -17 -27 -27 -29 -29
-20 -20 26 -6 -19 -23 -28 -29
-22 -20 36 5 -10 -19 -28 -29
-25 -19 47 16 -2 -15 -27 -29
-27 -19 57 27 8 -11 -27 -29
-22 -15 60 43 26 10 -11 -20
-13 -10 61 59 48 35 9 -8
-4 -5 62 75 70 62 29 6
6 1 63 92 92 88 49 18
15 5 64 109 113 113 69 31
29 17 62 135 150 152 100 52
45 32 58 162 190 194 134 75
60 47 54 191 230 236 168 98
76 61 50 220 271 278 201 121
92 75 46 248 311 321 235 145
98 80 37 254 321 328 243 153
101 84 27 250 321 324 244 156
104 86 17 245 320 319 245 159
108 89 7 241 320 315 246 162
111 91 -4 237 320 311 246 165
96 78 -4 199 268 253 210 145
73 60 1 149 198 176 158 115
50 40 5 99 129 100 107 86
27 22 9 49 60 24 56 56
5 4 13 -2 -10 -52 5 26
-8 -7 26 -15 -31 -78 -19 9
-16 -15 43 -14 -36 -89 -32 -4
-24 -23 58 -13 -41 -98 -46 -17
-32 -31 74 -12 -48 -108 -60 -29
-40 -39 91 -11 -53 -118 -73 -41
-48 -44 104 -8 -54 -120 -78 -49
-55 -46 118 -5 -53 -118 -81 -53
-62 -49 132 0 -52 -116 -85 -58
-68 -52 146 3 -50 -114 -87 -62
-75 -55 159 7 -49 -112 -90 -66
-80 -56 172 8 -47 -109 -91 -69
-86 -54 183 7 -46 -106 -91 -70
-90 -53 194 7 -44 -103 -91 -71
-95 -52 205 6 -43 -100 -91 -73
-99 -51 218 6 -40 -96 -91 -74
-103 -50 227 0 -41 -95 -92 -75
-105 -51 236 -8 -46 -95 -92 -75
-108 -52 245 -16 -50 -95 -92 -75
-111 -52 254 -23 -54 -95 -92 -75
-114 -53 263 -31 -57 -95 -92 -75
-115 -54 267 -36 -60 -95 -92 -76
-115 -54 269 -43 -62 -95 -91 -75
-115 -54 272 -48 -65 -95 -91 -74
-115 -54 274 -53 -67 -95 -90 -73
-115 -54 276 -58 -69 -95 -90 -72
-116 -53 273 -61 -71 -94 -88 -71
-115 -54 267 -63 -72 -93 -87 -71
-115 -54 262 -66 -73 -93 -86 -71
-114 -55 256 -68 -75 -92 -83 -71
-114 -55 250 -70 -76 -92 -82 -71
-109 -55 228 -71 -76 -88 -78 -68
-102 -52 200 -71 -73 -82 -73 -64
-96 -49 173 -71 -71 -77 -68 -60
-89 -47 145 -71 -69 -73 -64 -56
-81 -44 117 -71 -66 -68 -59 -53
-75 -40 97 -68 -62 -63 -54 -49
-69 -36 78 -65 -58 -58 -50 -45
-63 -32 60 -61 -54 -53 -45 -40
-57 -28 42 -58 -50 -48 -39 -36
-51 -25 23 -54 -46 -43 -35 -33
-47 -22 15 -50 -40 -37 -31 -30
-43 -20 11 -46 -36 -33 -28 -28
-39 -19 8 -41 -31 -28 -25 -27
-35 -17 4 -36 -26 -23 -22 -25
-32 -15 1 -32 -22 -19 -19 -23
-30 -14 -2 -29 -19 -16 -17 -21
-29 -14 -3 -26 -17 -13 -14 -19
-28 -14 -4 -24 -15 -11 -11 -17
-28 -14 -5 -22 -12 -9 -9 -15
-27 -14 -6 -19 -10 -6 -6 -13
-25 -13 -9 -18 -9 -5 -5 -12
-23 -12 -13 -18 -8 -4 -4 -11
-21 -11 -16 -18 -7 -3 -4 -10
-18 -11 -20 -18 -7 -3 -3 -10
-16 -10 -23 -18 -6 -2 -3 -9
-15 -9 -25 -17 -5 0 -2 -8
-15 -9 -26 -17 -5 2 0 -8
-15 -8 -27 -18 -5 3 1 -8
-15 -8 -28 -18 -5 4 1 -8
-15 -8 -29 -18 -5 5 2 -8
-13 -7 -31 -19 -5 6 3 -8
-11 -5 -32 -18 -4 8 5 -6
-10 -4 -34 -17 -3 9 6 -5
-8 -2 -35 -16 -3 11 8 -4
-6 0 -37 -15 -2 12 9 -3
-5 1 -39 -14 0 14 11 0
-4 1 -41 -13 1 16 13 2
-3 2 -43 -12 2 17 15 3
-3 2 -45 -12 3 19 18 5
-2 2 -47 -11 4 21 20 7
1 3 -50 -10 5 22 21 8
3 4 -53 -10 5 24 22 9
4 5 -56 -10 5 25 23 9
6 5 -59 -10 5 26 23 10
8 6 -62 -10 5 27 24 10
10 8 -65 -9 7 29 26 11
11 9 -68 -9 9 32 29 13
13 11 -72 -8 10 35 31 14
14 12 -75 -8 12 38 33 15
16 14 -78 -8 14 42 36 16
19 16 -80 -7 15 44 38 18
22 18 -82 -7 16 46 42 20
25 20 -83 -6 17 48 44 21
28 22 -86 -6 18 50 46 23
31 24 -87 -6 19 52 49 25
33 25 -91 -5 20 54 51 27
34 26 -96 -5 22 57 54 29
34 26 -100 -5 23 59 56 31
35 27 -105 -5 25 62 58 34
35 27 -110 -5 26 65 61 36
37 29 -113 -5 27 66 63 37
40 31 -115 -5 28 68 64 38
43 32 -117 -6 29 69 66 39
45 34 -120 -6 29 70 67 40
48 36 -122 -6 30 71 69 42
49 37 -126 -7 32 73 71 44
49 38 -129 -6 34 76 74 46
49 39 -132 -5 36 79 76 48
49 39 -135 -4 38 82 79 51
49 40 -138 -3 40 86 82 53
49 42 -140 -2 42 87 84 54
49 44 -141 -2 42 88 85 55
49 45 -142 -2 42 89 86 56
49 46 -142 -2 42 89 86 57
49 47 -143 -2 42 90 87 58
50 48 -144 -3 43 91 88 59
50 48 -144 -2 44 91 88 59
49 49 -144 0 45 91 87 58
48 50 -144 1 45 91 86 58
48 50 -144 2 46 91 86 58
47 51 -144 3 47 89 84 56
48 51 -144 2 45 87 81 54
50 51 -143 1 44 85 79 52
51 51 -142 1 42 81 77 50
52 51 -142 0 40 79 75 48
53 49 -140 -2 39 77 73 47
53 48 -137 0 39 74 70 46
52 46 -134 2 39 72 67 45
52 45 -131 3 39 69 64 45
52 43 -128 4 39 66 61 44
51 40 -123 5 38 64 59 42
50 39 -119 6 37 61 56 38
48 37 -115 7 35 58 53 35
47 35 -112 7 34 55 50 32
46 33 -108 8 33 52 47 29
44 32 -103 10 32 49 44 26
40 31 -97 11 32 48 42 24
37 30 -92 13 31 46 38 22
34 30 -86 15 31 44 36 19
31 29 -79 17 31 42 33 17
29 27 -75 18 30 39 31 15
27 24 -70 19 30 37 28 13
24 22 -65 20 29 34 25 11
22 19 -61 20 28 32 22 9
19 16 -56 21 28 29 19 7
17 14 -51 22 27 27 17 5
15 12 -46 22 25 25 16 4
12 9 -40 23 24 23 14 2
10 7 -35 24 22 21 12 1
7 4 -30 24 21 19 10 -2
6 3 -27 25 20 18 9 -3
6 3 -25 25 20 17 8 -3
5 3 -22 25 19 16 7 -4
4 3 -20 25 19 16 7 -5
4 3 -17 25 19 15 6 -5
3 4 -14 25 17 13 4 -6
1 4 -11 24 16 11 2 -8
0 3 -8 22 14 9 0 -9
-3 2 -4 21 12 7 -3 -11
-4 2 0 20 10 5 -5 -12
-5 1 2 19 9 4 -6 -13
-6 0 2 19 8 3 -7 -14
-8 -2 3 18 7 1 -8 -16
-9 -2 3 17 6 0 -8 -17
-10 -3 3 17 5 -2 -9 -18
-11 -4 4 16 4 -3 -10 -19
-11 -3 4 15 4 -3 -10 -18
-11 -2 5 14 4 -3 -10 -17
-11 -2 5 14 4 -3 -10 -17
-11 0 5 13 4 -3 -10 -16
-12 1 6 12 3 -3 -10 -15
-13 0 6 11 2 -3 -10 -15
-14 -3 6 10 1 -4 -10 -16
-15 -4 6 10 1 -5 -10 -16
-16 -5 6 9 0 -5 -10 -16
-17 -6 6 8 -2 -6 -11 -17
-17 -6 6 8 -2 -6 -11 -17
-17 -6 6 8 -2 -7 -11 -17
-17 -6 6 8 -2 -7 -11 -17
-17 -6 6 8 -2 -7 -11 -17
-16 -5 7 7 -3 -8 -12 -17
-16 -5 7 7 -3 -8 -12 -17
-16 -5 7 7 -3 -8 -12 -17
-16 -5 7 7 -3 -8 -12 -17
-16 -5 7 7 -3 -8 -12 -17
-17 -6 7 6 -4 -8 -11 -17
-17 -5 7 6 -4 -8 -11 -17
-17 -4 7 6 -4 -8 -11 -17
-17 -4 7 6 -4 -8 -11 -17
-17 -3 7 6 -4 -8 -11 -17
-16 -2 7 5 -4 -9 -11 -16
-18 -3 7 5 -4 -9 -11 -16
-19 -4 7 5 -4 -9 -11 -17
-21 -4 7 5 -4 -9 -11 -17
-22 -5 7 5 -4 -9 -11 -17
-22 -6 8 4 -5 -9 -12 -18
-21 -5 8 5 -4 -8 -12 -18
-19 -3 8 6 -3 -7 -11 -17
-17 -2 8 6 -3 -7 -10 -16
-15 0 8 7 -2 -6 -10 -16
-14 1 7 8 0 -5 -9 -15
-14 1 7 7 0 -5 -10 -15
-14 0 7 6 -2 -6 -11 -16
-14 0 7 5 -3 -6 -11 -17
-14 0 7 4 -3 -6 -12 -17
-15 -2 8 3 -4 -7 -13 -18
-15 -2 8 3 -4 -7 -13 -18
-15 -2 8 2 -4 -7 -13 -17
-15 -2 8 2 -4 -7 -13 -17
-15 -2 8 2 -4 -7 -13 -17
-16 -3 9 1 -5 -7 -12 -16
-16 -3 9 2 -5 -7 -12 -16
-16 -2 8 3 -5 -6 -11 -15
-16 0 8 4 -5 -6 -10 -14
-16 0 8 5 -5 -6 -10 -14
-16 1 7 6 -4 -5 -9 -13
-16 1 7 6 -4 -6 -10 -13
-16 0 7 5 -4 -7 -11 -14
-16 0 7 4 -4 -7 -11 -15
-16 0 7 4 -4 -8 -12 -15
-16 -2 7 3 -3 -9 -13 -16
-16 -2 7 3 -3 -9 -13 -16
-16 -2 8 3 -2 -9 -13 -15
-16 -2 8 3 -2 -9 -13 -14
-16 -2 8 3 -2 -9 -13 -14
-17 -3 9 2 0 -8 -12 -13
-15 -3 8 2 0 -8 -12 -14
-14 -3 7 2 -2 -8 -12 -15
-12 -3 7 2 -3 -8 -12 -15
-11 -3 6 2 -3 -8 -12 -16
-10 -4 5 2 -4 -8 -12 -17
-11 -5 5 1 -5 -9 -13 -17
-12 -6 4 0 -6 -11 -15 -17
-13 -7 4 -2 -7 -12 -16 -17
-14 -8 4 -3 -8 -13 -17 -17
-15 -9 3 -4 -9 -14 -18 -18
-14 -9 3 -4 -9 -14 -18 -18
-13 -8 3 -4 -9 -13 -18 -18
-13 -8 3 -4 -9 -13 -18 -18
-12 -8 3 -4 -9 -13 -18 -18
-11 -7 3 -4 -9 -12 -17 -18
-11 -7 3 -4 -9 -12 -17 -18
-12 -7 3 -4 -10 -13 -17 -18
-13 -7 3 -4 -10 -13 -17 -18
-13 -7 3 -4 -10 -13 -17 -18
-14 -8 2 -3 -11 -14 -16 -17
-14 -8 2 -4 -11 -14 -16 -17
-13 -8 3 -5 -12 -15 -17 -17
-13 -8 4 -5 -13 -15 -17 -17
-13 -8 4 -6 -13 -15 -17 -17
-12 -7 5 -7 -14 -16 -18 -17
-12 -7 5 -7 -14 -16 -18 -17
-12 -6 5 -6 -14 -16 -18 -17
-12 -6 5 -6 -14 -16 -18 -17
-12 -6 5 -6 -14 -16 -18 -17
-11 -5 5 -5 -13 -16 -18 -17
-11 -5 3 -6 -13 -16 -18 -17
-11 -5 2 -7 -14 -17 -19 -18
-11 -5 1 -7 -14 -17 -19 -18
-11 -5 -2 -8 -14 -17 -19 -18
-10 -6 -3 -9 -15 -18 -20 -19
-10 -7 -2 -9 -15 -18 -20 -19
-11 -8 0 -10 -16 -19 -20 -19
-11 -8 0 -10 -17 -19 -20 -19
-11 -9 1 -10 -17 -19 -20 -19
-12 -10 2 -11 -18 -20 -21 -18
-12 -9 2 -11 -18 -20 -21 -18
-11 -8 2 -10 -18 -19 -20 -18
-11 -7 2 -10 -18 -19 -20 -18
-11 -6 2 -10 -18 -19 -20 -18
-10 -5 2 -9 -17 -18 -19 -19
-10 -4 2 -9 -17 -18 -19 -18
-11 -3 3 -8 -16 -17 -18 -16
-11 -3 4 -8 -15 -16 -18 -15
-11 -2 4 -8 -15 -16 -18 -14
-12 0 5 -7 -14 -15 -17 -13
-12 2 7 -6 -12 -14 -16 -11
-12 4 8 -4 -11 -12 -14 -10
-12 5 9 -3 -10 -11 -13 -9
-12 7 11 -2 -8 -10 -12 -7
-12 8 12 0 -7 -9 -11 -6
-12 8 12 0 -7 -9 -11 -6
-12 8 12 0 -8 -10 -12 -7
-12 8 12 0 -8 -11 -12 -8
-12 8 12 0 -8 -11 -12 -8
-13 8 12 -2 -9 -12 -13 -9
-11 10 12 -2 -9 -12 -13 -9
-9 12 12 -2 -9 -11 -13 -8
-7 13 12 -2 -9 -11 -13 -7
-5 15 12 -2 -9 -11 -13 -7
-4 16 11 -2 -8 -10 -12 -6
-4 16 11 -2 -8 -10 -12 -6
-5 15 10 -3 -8 -10 -12 -6
-5 15 9 -4 -8 -10 -12 -6
-5 15 9 -4 -8 -10 -12 -6
-6 14 7 -5 -7 -10 -11 -6
-6 16 4 -6 -8 -10 -11 -6
-5 17 1 -7 -9 -10 -11 -5
-5 18 -2 -7 -10 -10 -11 -4
-5 20 -5 -8 -11 -10 -11 -4
-4 21 -7 -9 -12 -11 -11 -3
-3 21 -9 -10 -14 -12 -11 -3
0 21 -11 -11 -15 -13 -11 -2
1 21 -12 -12 -16 -13 -11 0
2 21 -14 -13 -18 -14 -11 0
3 21 -15 -14 -19 -15 -11 1
3 18 -15 -14 -19 -16 -11 1
2 14 -15 -15 -19 -17 -12 0
2 11 -15 -16 -19 -17 -12 -2
2 8 -15 -16 -19 -18 -12 -2
1 6 -16 -17 -20 -19 -13 -3
1 6 -14 -16 -19 -19 -13 -3
0 5 -12 -15 -18 -18 -13 -3
0 4 -10 -15 -18 -18 -13 -3
0 4 -8 -14 -17 -18 -13 -3
-2 2 -7 -13 -16 -18 -14 -4
-4 -2 -7 -14 -18 -20 -16 -6
-6 -5 -7 -16 -20 -22 -18 -8
-8 -7 -7 -17 -22 -24 -20 -10
-10 -10 -7 -18 -24 -26 -22 -12
-11 -12 -8 -19 -25 -27 -23 -14
-11 -12 -8 -19 -25 -27 -23 -14
-10 -12 -9 -18 -25 -28 -23 -14
-10 -12 -9 -18 -25 -28 -23 -14
-10 -12 -9 -18 -25 -28 -23 -14
-9 -13 -10 -17 -26 -29 -24 -15
-11 -15 -9 -19 -27 -30 -24 -15
-12 -16 -9 -20 -28 -31 -25 -15
-13 -18 -8 -21 -30 -33 -26 -16
-15 -20 -7 -23 -31 -34 -26 -16
-16 -21 -6 -24 -32 -35 -27 -17
-15 -21 -6 -23 -31 -34 -26 -17
-15 -21 -6 -22 -30 -33 -26 -17
-14 -20 -6 -21 -29 -32 -25 -17
-13 -20 -6 -20 -28 -31 -24 -17
-12 -19 -5 -19 -27 -30 -23 -16
-12 -19 -5 -19 -27 -30 -23 -16
-12 -19 -5 -18 -27 -30 -23 -16
-12 -20 -5 -17 -26 -30 -24 -16
-12 -20 -5 -17 -26 -30 -24 -16
-12 -21 -6 -16 -25 -31 -25 -16
-13 -21 -5 -17 -25 -31 -26 -17
-14 -21 -5 -17 -25 -31 -26 -17
-15 -22 -4 -18 -25 -32 -27 -18
-16 -22 -3 -19 -25 -32 -28 -19
-17 -23 -2 -20 -26 -33 -29 -20
-17 -23 -2 -20 -26 -34 -30 -21
-17 -23 -2 -20 -26 -35 -31 -22
-17 -23 0 -20 -26 -36 -32 -23
-17 -23 0 -20 -26 -37 -33 -24
-19 -23 6 -16 -24 -37 -34 -25
-22 -22 17 -5 -16 -34 -34 -25
-24 -21 28 7 -8 -31 -33 -25
-27 -19 39 18 1 -27 -32 -25
-30 -18 51 30 8 -24 -32 -25
-28 -16 57 44 22 -11 -23 -19
-20 -12 57 59 43 15 -4 -7
-11 -8 58 75 63 39 15 6
-3 -4 59 92 84 65 34 17
7 0 59 107 104 90 54 29
19 10 59 129 134 125 79 47
35 25 55 157 175 168 113 70
52 42 51 185 216 212 147 94
67 57 47 214 257 256 181 117
84 72 44 241 298 300 215 141
95 82 36 256 320 323 234 156
100 87 26 253 322 323 238 161
105 91 15 248 323 323 242 165
110 95 5 245 324 322 246 171
115 98 -6 241 326 322 251 176
110 93 -11 217 295 285 230 165
90 73 -7 169 224 207 179 134
70 54 -3 119 152 131 127 103
51 34 2 70 81 53 74 72
31 15 5 21 10 -25 23 42
16 0 14 -6 -34 -74 -13 18
6 -10 29 -7 -47 -88 -29 4
-5 -20 45 -8 -59 -101 -45 -11
-14 -29 60 -9 -71 -115 -61 -25
-24 -38 74 -10 -83 -129 -77 -39
-32 -45 90 -10 -90 -137 -88 -49
-37 -47 104 -5 -87 -135 -91 -54
-43 -49 118 0 -82 -134 -94 -58
-48 -51 134 4 -79 -132 -97 -63
-54 -53 148 8 -75 -130 -100 -67
-59 -55 161 11 -72 -128 -102 -70
-64 -53 173 11 -70 -123 -101 -71
-69 -52 185 11 -68 -119 -101 -71
-74 -51 196 12 -65 -115 -100 -72
-79 -49 209 12 -63 -111 -99 -73
-82 -48 219 9 -62 -108 -98 -74
-85 -49 227 0 -66 -109 -98 -74
-86 -50 235 -10 -70 -110 -98 -74
-87 -52 242 -18 -74 -112 -99 -75
-89 -53 251 -27 -78 -113 -99 -75
-90 -54 256 -35 -81 -114 -100 -76
-92 -53 259 -40 -83 -114 -100 -76
-94 -52 261 -46 -85 -114 -100 -76
-96 -51 263 -51 -87 -113 -101 -77
-98 -50 265 -57 -89 -113 -101 -77
-100 -49 263 -61 -90 -112 -101 -78
-98 -49 252 -64 -90 -112 -99 -76
-97 -50 240 -67 -91 -112 -96 -74
-95 -51 229 -70 -92 -111 -94 -72
-93 -51 218 -73 -92 -111 -91 -70
-90 -51 200 -75 -92 -108 -88 -67
-83 -48 177 -74 -90 -103 -82 -64
-76 -45 153 -74 -87 -98 -78 -61
-70 -41 129 -73 -85 -93 -74 -58
-64 -38 105 -72 -81 -87 -70 -54
-57 -35 84 -70 -78 -81 -65 -51
-50 -32 67 -67 -73 -76 -61 -47
-41 -28 50 -63 -69 -71 -56 -44
-33 -25 33 -60 -64 -66 -51 -39
-26 -21 16 -56 -60 -60 -46 -36
-21 -19 5 -52 -55 -55 -41 -32
-19 -18 3 -46 -50 -51 -37 -30
-17 -16 1 -39 -44 -46 -33 -27
-15 -15 -3 -34 -38 -40 -29 -24
-14 -13 -5 -28 -33 -35 -25 -21
-11 -12 -8 -24 -29 -32 -22 -19
-9 -12 -10 -23 -27 -30 -20 -18
-7 -12 -13 -23 -25 -28 -18 -16
-4 -11 -16 -22 -23 -26 -16 -15
-2 -11 -19 -21 -22 -25 -15 -13
1 -10 -21 -20 -20 -23 -13 -12
1 -10 -22 -20 -20 -23 -13 -12
2 -10 -24 -20 -20 -22 -13 -12
3 -10 -25 -20 -19 -21 -13 -12
3 -10 -27 -20 -19 -21 -13 -12
4 -9 -28 -20 -18 -20 -14 -13
5 -7 -29 -19 -17 -17 -11 -11
6 -6 -30 -19 -16 -15 -9 -9
7 -4 -32 -18 -14 -13 -6 -7
8 -2 -33 -17 -13 -11 -4 -5
9 0 -35 -16 -12 -9 -2 -3
10 0 -37 -16 -11 -9 0 -3
11 1 -40 -16 -10 -9 0 -3
13 2 -44 -16 -9 -8 1 -3
14 2 -47 -16 -8 -8 2 -3
15 3 -49 -17 -7 -7 3 -3
16 3 -50 -17 -6 -5 5 -2
16 3 -51 -17 -5 -3 6 1
17 4 -52 -17 -4 0 8 2
18 4 -53 -17 -3 1 10 4
19 5 -54 -16 -2 3 11 5
19 7 -56 -15 1 6 14 7
19 9 -57 -14 2 8 16 8
19 11 -59 -12 4 11 18 10
19 12 -61 -11 6 13 20 12
20 14 -63 -10 7 15 22 13
21 14 -66 -10 9 18 25 15
22 14 -69 -10 10 20 27 17
24 15 -72 -10 12 23 30 19
25 15 -75 -10 14 25 32 20
26 16 -78 -9 15 27 34 22
26 16 -81 -9 17 30 37 24
26 16 -85 -9 18 32 39 25
27 17 -88 -9 20 35 42 27
27 17 -91 -9 22 37 44 29
28 19 -94 -8 23 40 47 30
30 21 -97 -8 24 43 49 32
32 24 -100 -8 26 46 52 34
34 26 -103 -8 27 49 54 36
36 29 -106 -8 29 52 57 38
38 31 -109 -7 30 54 59 40
40 32 -111 -7 32 56 62 42
43 34 -114 -7 33 58 64 44
45 35 -116 -6 35 60 66 45
47 37 -119 -6 37 62 68 47
49 38 -122 -5 38 64 70 48
50 39 -124 -4 39 65 72 50
51 40 -128 -3 40 67 73 51
53 42 -131 -2 42 68 75 53
54 43 -134 0 43 70 77 55
55 44 -136 1 44 71 78 56
55 46 -138 1 44 72 79 57
55 47 -140 1 45 73 80 57
56 49 -142 1 46 75 81 58
56 50 -143 1 46 76 82 59
57 52 -145 0 47 77 84 60
58 52 -145 0 47 77 84 60
58 52 -144 0 47 77 84 60
59 52 -143 1 48 77 84 60
60 52 -143 1 48 77 84 60
61 53 -142 2 49 77 85 60
60 53 -140 2 49 75 82 59
59 53 -139 2 50 74 80 58
57 53 -137 3 51 72 78 56
56 53 -136 3 51 71 76 55
54 53 -133 4 52 69 74 54
51 52 -130 4 51 67 73 53
47 51 -126 5 50 65 71 52
43 49 -122 6 49 63 70 50
39 48 -119 6 48 61 68 49
36 47 -115 7 47 58 66 47
36 44 -112 8 45 55 62 44
35 40 -108 9 43 52 58 39
34 38 -105 11 40 49 54 35
34 35 -102 12 39 46 50 32
33 33 -97 13 37 43 47 29
31 33 -92 14 37 40 44 28
30 33 -86 15 37 39 42 27
28 32 -80 16 37 37 38 26
27 32 -74 17 37 36 36 25
25 31 -68 18 36 33 34 24
24 29 -63 19 35 30 31 21
22 26 -57 21 34 27 28 18
21 24 -51 22 32 24 26 15
19 22 -45 24 31 21 23 12
18 20 -39 25 30 18 21 10
16 19 -35 25 29 16 19 8
14 18 -32 25 28 14 17 6
12 17 -28 25 26 12 15 4
11 16 -24 25 25 11 13 3
9 15 -21 24 24 9 11 1
7 13 -19 24 23 7 10 0
5 11 -17 24 22 5 8 -2
3 9 -15 23 21 3 7 -3
2 8 -13 23 20 2 5 -4
0 6 -11 22 19 0 4 -5
0 6 -9 22 17 -2 2 -5
1 6 -6 22 15 -3 1 -6
2 7 -4 21 13 -4 -2 -7
2 7 -2 21 12 -5 -3 -7
3 8 1 20 10 -6 -5 -8
1 6 3 19 9 -7 -6 -9
-2 4 4 18 9 -8 -6 -10
-4 2 6 17 8 -9 -7 -12
-5 1 7 16 7 -10 -8 -13
-7 -2 9 15 6 -11 -9 -14
-7 -2 9 14 5 -12 -9 -14
-6 -2 9 13 5 -14 -9 -14
-6 -2 8 12 4 -15 -9 -14
-5 -2 8 11 3 -17 -9 -14
-4 -2 7 10 2 -18 -10 -15
-5 -2 8 9 1 -18 -10 -15
-7 -2 8 9 1 -18 -10 -15
-8 -2 9 8 0 -17 -11 -15
-10 -2 10 7 -2 -17 -11 -15
-11 -3 11 6 -3 -16 -12 -14
-11 -3 11 6 -3 -16 -12 -14
-11 -3 11 5 -3 -16 -12 -14
-10 -4 10 5 -3 -16 -12 -14
-10 -4 10 4 -3 -16 -12 -14
-9 -5 9 3 -3 -17 -11 -15
-8 -5 9 3 -3 -17 -11 -15
-8 -5 9 3 -3 -17 -11 -15
-7 -4 9 3 -3 -17 -12 -15
-6 -4 9 3 -3 -17 -12 -15
-5 -3 8 3 -4 -17 -13 -16
-5 -3 8 3 -4 -17 -13 -16
-5 -3 8 3 -4 -17 -13 -16
-6 -3 8 3 -4 -17 -13 -16
-6 -3 8 3 -4 -17 -13 -16
-7 -3 8 2 -4 -17 -12 -16
-7 -3 8 2 -4 -17 -12 -16
-7 -3 8 2 -4 -17 -13 -16
-7 -4 8 2 -5 -17 -13 -16
-7 -4 8 2 -5 -17 -14 -16
-6 -5 7 2 -6 -18 -15 -17
-5 -5 6 2 -6 -18 -15 -17
-3 -5 5 2 -6 -18 -15 -17
-2 -5 4 2 -6 -18 -14 -16
1 -5 3 2 -6 -18 -14 -16
2 -5 2 1 -5 -17 -13 -15
1 -4 3 1 -5 -17 -13 -15
0 -3 3 1 -5 -17 -13 -15
-2 -2 4 1 -5 -16 -12 -14
-4 0 5 1 -5 -16 -12 -14
-5 1 6 1 -4 -15 -11 -13
-6 0 7 1 -4 -15 -11 -13
-6 -2 8 1 -4 -15 -11 -13
-7 -3 9 1 -4 -15 -11 -13
-8 -4 10 1 -4 -15 -11 -13
-9 -5 11 0 -5 -16 -11 -12
-9 -5 10 0 -5 -16 -11 -12
-9 -5 8 1 -5 -16 -11 -12
-10 -5 7 1 -5 -16 -11 -12
-10 -5 5 2 -5 -16 -11 -12
-11 -4 4 3 -6 -16 -12 -13
-11 -4 4 3 -6 -16 -12 -13
-11 -4 5 3 -6 -16 -12 -13
-11 -4 5 2 -6 -16 -12 -13
-11 -4 6 2 -6 -16 -12 -13
-11 -4 7 1 -7 -15 -12 -14
-11 -4 7 1 -7 -15 -12 -14
-11 -4 8 1 -7 -15 -12 -14
-11 -3 8 1 -7 -15 -12 -14
-11 -3 9 1 -7 -15 -12 -14
-11 -2 10 2 -6 -15 -11 -13
-11 -3 9 2 -6 -15 -11 -13
-11 -4 8 1 -7 -15 -11 -13
-11 -5 7 1 -7 -15 -12 -13
-11 -6 6 0 -8 -15 -12 -13
-11 -7 5 -2 -9 -16 -13 -14
-11 -7 5 -2 -9 -16 -13 -14
-11 -6 5 -2 -9 -16 -13 -14
-11 -6 6 -2 -10 -17 -13 -14
-11 -5 6 -2 -10 -17 -13 -14
-12 -4 7 0 -11 -18 -14 -14
-12 -4 7 0 -11 -18 -14 -14
-12 -5 7 0 -11 -18 -14 -14
-12 -5 7 0 -11 -18 -14 -14
-12 -6 7 0 -11 -18 -14 -14
-13 -7 7 -2 -11 -18 -14 -14
-13 -7 6 -3 -12 -19 -14 -14
-12 -7 4 -3 -13 -19 -15 -14
-12 -6 3 -4 -14 -20 -15 -15
-11 -6 2 -5 -15 -21 -16 -15
-10 -5 0 -6 -16 -22 -17 -16
-10 -5 1 -6 -16 -22 -17 -16
-11 -6 3 -6 -16 -22 -17 -16
-11 -6 4 -7 -16 -22 -18 -16
-12 -7 5 -7 -16 -22 -18 -16
-13 -8 7 -8 -15 -21 -19 -17
-13 -8 6 -8 -15 -21 -19 -17
-13 -8 6 -8 -15 -21 -19 -17
-13 -8 5 -8 -16 -21 -19 -17
-13 -8 4 -8 -16 -21 -19 -17
-14 -9 3 -8 -17 -22 -19 -17
-13 -9 3 -8 -17 -22 -19 -17
-13 -9 3 -8 -17 -22 -19 -17
-12 -9 2 -8 -18 -22 -19 -17
-11 -9 2 -8 -18 -22 -19 -17
-10 -8 1 -9 -19 -23 -19 -17
-10 -8 1 -9 -19 -23 -19 -17
-10 -8 1 -9 -20 -23 -20 -17
-11 -9 1 -10 -20 -24 -20 -16
-11 -9 1 -10 -21 -24 -21 -16
-12 -10 0 -11 -22 -25 -22 -15
-12 -10 2 -11 -22 -25 -22 -15
-12 -9 3 -11 -22 -25 -22 -15
-12 -9 5 -11 -22 -24 -22 -15
-12 -8 6 -11 -22 -24 -22 -15
-12 -7 8 -12 -21 -23 -21 -15
-12 -6 8 -11 -20 -22 -20 -14
-12 -4 8 -9 -18 -21 -18 -13
-11 -2 9 -7 -16 -20 -17 -12
-11 0 9 -6 -15 -19 -16 -11
-10 2 10 -4 -13 -18 -14 -10
-10 4 11 -4 -12 -17 -14 -10
-9 6 13 -3 -11 -16 -14 -9
-9 7 15 -2 -10 -15 -13 -8
-8 9 16 0 -9 -13 -13 -7
-7 11 18 1 -8 -12 -12 -6
-5 11 16 0 -9 -13 -13 -7
-3 11 14 -3 -11 -15 -14 -8
-2 11 13 -4 -12 -17 -15 -9
1 11 11 -5 -13 -18 -17 -10
3 11 9 -7 -15 -20 -18 -11
5 11 9 -7 -15 -20 -18 -11
7 12 9 -7 -15 -20 -18 -11
8 13 9 -7 -15 -20 -18 -11
10 14 9 -7 -15 -20 -18 -11
12 15 10 -7 -15 -19 -18 -12
12 15 9 -7 -15 -19 -18 -11
12 15 7 -7 -15 -18 -17 -10
12 16 6 -7 -15 -18 -17 -9
12 16 5 -7 -15 -17 -16 -8
11 17 3 -7 -14 -16 -15 -7
11 17 0 -9 -15 -17 -15 -7
11 17 -4 -11 -16 -18 -15 -7
12 17 -7 -13 -17 -19 -16 -7
12 17 -10 -15 -18 -20 -16 -7
13 18 -13 -17 -19 -21 -17 -7
15 18 -13 -17 -19 -21 -17 -7
17 17 -14 -17 -20 -22 -17 -7
18 17 -14 -18 -21 -22 -17 -7
20 16 -15 -18 -22 -23 -17 -7
22 15 -16 -19 -23 -24 -18 -7
22 14 -16 -19 -23 -24 -18 -7
22 13 -16 -19 -23 -24 -18 -8
22 12 -16 -19 -24 -24 -18 -8
22 10 -16 -19 -24 -24 -18 -9
23 9 -16 -20 -25 -24 -18 -10
21 7 -15 -20 -25 -24 -18 -10
19 4 -14 -20 -25 -24 -19 -11
16 2 -13 -20 -26 -25 -20 -12
14 -2 -12 -20 -26 -25 -21 -13
12 -4 -11 -19 -27 -26 -22 -14
12 -5 -11 -20 -28 -27 -23 -16
11 -6 -11 -22 -29 -29 -25 -17
10 -7 -11 -23 -30 -31 -27 -19
9 -9 -11 -24 -32 -32 -28 -21
8 -10 -10 -26 -33 -34 -30 -23
3 -12 -10 -26 -33 -34 -30 -23
-2 -14 -10 -25 -33 -34 -30 -22
-6 -17 -9 -24 -33 -34 -30 -22
-10 -19 -9 -23 -33 -34 -30 -21
-14 -21 -8 -22 -32 -33 -29 -20
-14 -21 -7 -22 -32 -33 -29 -20
-14 -21 -5 -22 -31 -33 -28 -20
-14 -21 -4 -22 -31 -32 -28 -19
-14 -21 -3 -22 -30 -32 -27 -19
-14 -21 0 -21 -29 -31 -26 -18
-14 -21 0 -21 -29 -31 -26 -18
-14 -21 0 -20 -29 -31 -26 -18
-14 -21 -2 -20 -29 -31 -26 -18
-14 -21 -2 -19 -29 -31 -26 -18
-13 -21 -3 -18 -28 -30 -26 -18
-14 -21 -3 -18 -28 -30 -26 -18
-16 -21 -3 -18 -28 -30 -26 -18
-18 -22 -3 -18 -28 -30 -26 -19
-19 -22 -3 -18 -28 -30 -26 -19
-21 -23 -4 -18 -28 -30 -27 -20
-21 -23 -4 -18 -28 -30 -27 -20
-21 -23 -4 -18 -28 -30 -27 -20
-20 -23 -3 -18 -28 -30 -28 -21
-20 -23 -3 -18 -28 -30 -28 -21
-19 -24 -2 -19 -29 -31 -29 -22
-19 -24 2 -18 -29 -31 -30 -22
-19 -23 6 -16 -29 -32 -31 -23
-20 -23 9 -14 -28 -32 -32 -24
-20 -22 12 -13 -28 -33 -33 -25
-21 -21 16 -10 -26 -33 -34 -26
-22 -20 25 2 -17 -26 -32 -26
-24 -19 35 12 -8 -19 -30 -25
-25 -18 45 23 2 -12 -27 -24
-26 -16 54 33 11 -5 -25 -23
-26 -14 62 46 24 7 -19 -20
-15 -8 62 68 52 38 6 -4
-4 -2 62 90 80 70 31 13
9 5 62 112 109 101 56 28
20 11 62 134 138 133 80 45
32 19 62 157 169 167 107 61
49 34 58 187 210 206 139 82
65 51 54 217 251 247 170 105
81 66 50 246 292 287 201 127
98 81 47 276 332 328 232 148
112 95 42 299 364 358 258 167
112 91 30 278 344 335 250 162
112 87 20 257 323 310 241 159
113 82 10 236 304 286 233 155
113 79 -2 215 283 262 225 151
111 72 -10 189 254 230 210 143
89 54 -2 138 181 157 157 113
67 35 8 88 108 86 105 82
45 17 16 36 34 13 54 53
22 -2 25 -15 -38 -59 2 22
3 -18 34 -57 -100 -119 -44 -5
-4 -26 50 -51 -99 -122 -55 -17
-10 -34 65 -45 -98 -124 -65 -28
-16 -43 81 -38 -97 -128 -75 -39
-22 -51 97 -32 -96 -130 -87 -51
-28 -58 112 -26 -95 -133 -96 -61
-33 -58 127 -23 -94 -133 -98 -64
-37 -58 141 -19 -93 -132 -100 -66
-43 -58 155 -16 -92 -132 -102 -69
-48 -58 170 -12 -91 -131 -104 -71
-52 -58 183 -9 -89 -130 -106 -74
-58 -57 192 -14 -88 -127 -106 -74
-63 -56 202 -18 -86 -123 -106 -75
-69 -55 212 -22 -85 -119 -105 -76
-74 -54 222 -27 -83 -116 -105 -77
-79 -52 231 -32 -81 -113 -104 -78
-82 -52 237 -40 -85 -113 -104 -78
-86 -52 244 -49 -88 -113 -104 -78
-88 -52 251 -57 -91 -114 -104 -78
-91 -52 258 -66 -94 -114 -104 -78
-94 -51 264 -73 -97 -115 -104 -79
-95 -51 265 -76 -98 -115 -104 -79
-96 -51 266 -80 -100 -114 -104 -79
-97 -51 267 -83 -101 -114 -103 -79
-98 -51 268 -88 -102 -113 -103 -79
-99 -51 266 -91 -104 -112 -102 -78
-94 -51 245 -91 -103 -110 -99 -76
-90 -51 224 -91 -101 -107 -96 -74
-86 -52 202 -91 -99 -104 -93 -72
-80 -52 181 -91 -98 -102 -90 -70
-75 -53 159 -92 -96 -99 -87 -68
-68 -48 136 -91 -92 -94 -80 -63
-61 -43 111 -90 -89 -88 -75 -59
-54 -37 87 -88 -85 -82 -70 -55
-47 -33 63 -87 -81 -77 -64 -50
-39 -28 40 -85 -77 -72 -59 -46
-33 -27 30 -77 -72 -67 -55 -43
-28 -26 20 -71 -66 -62 -51 -40
-22 -25 10 -65 -61 -57 -48 -37
-16 -24 -2 -59 -56 -53 -44 -34
-11 -22 -11 -53 -51 -48 -39 -31
-6 -20 -13 -49 -46 -44 -35 -29
-2 -19 -14 -45 -41 -38 -32 -26
4 -17 -16 -39 -36 -34 -28 -23
9 -15 -18 -35 -31 -29 -25 -21
13 -13 -20 -31 -27 -25 -21 -18
13 -13 -22 -31 -27 -24 -20 -17
13 -12 -23 -30 -26 -23 -19 -16
13 -12 -25 -29 -25 -22 -18 -15
13 -11 -27 -28 -24 -21 -17 -14
12 -10 -29 -27 -23 -20 -15 -13
13 -10 -32 -27 -22 -19 -15 -13
14 -9 -34 -27 -21 -18 -14 -13
15 -8 -37 -26 -20 -17 -13 -13
16 -7 -40 -26 -19 -16 -12 -13
17 -6 -44 -25 -18 -15 -11 -13
18 -6 -45 -25 -18 -15 -11 -13
20 -6 -46 -25 -18 -14 -10 -12
21 -5 -47 -25 -17 -14 -9 -11
23 -5 -48 -25 -17 -13 -8 -10
25 -4 -50 -25 -16 -12 -7 -9
24 -4 -52 -24 -14 -10 -5 -7
23 -3 -53 -22 -13 -7 -3 -6
22 -2 -55 -21 -11 -4 0 -4
21 0 -57 -19 -9 -2 2 -2
19 1 -59 -17 -7 2 4 1
20 1 -59 -17 -7 3 5 1
21 2 -60 -18 -7 4 6 2
23 2 -60 -18 -6 5 7 3
24 3 -61 -19 -6 6 8 4
26 4 -62 -20 -5 7 10 5
27 5 -65 -19 -3 9 12 6
29 6 -68 -18 0 12 14 7
31 8 -71 -17 2 15 16 9
33 9 -74 -16 4 17 19 10
35 11 -77 -14 6 20 21 12
36 12 -79 -14 7 22 23 13
37 13 -81 -13 8 24 26 15
39 14 -83 -12 10 26 28 16
40 15 -87 -11 11 29 30 18
43 16 -89 -10 13 31 33 20
44 16 -94 -10 14 33 35 21
45 17 -99 -10 15 36 37 23
46 18 -103 -10 17 38 39 24
47 19 -108 -10 18 40 43 26
48 20 -113 -9 20 44 45 28
50 20 -115 -9 21 47 47 30
52 21 -117 -9 23 49 50 32
54 22 -119 -10 24 52 53 34
57 23 -121 -10 26 55 55 37
59 24 -123 -11 28 58 58 39
61 27 -127 -10 29 59 59 39
63 30 -131 -9 30 61 61 40
65 33 -134 -8 31 62 62 40
67 36 -137 -7 32 64 64 42
69 39 -141 -6 34 66 66 43
70 39 -143 -6 35 67 67 44
72 40 -145 -6 36 69 68 46
73 42 -147 -6 37 70 70 48
75 43 -149 -6 38 72 71 50
77 44 -151 -5 40 74 73 52
77 44 -152 -4 42 75 74 52
77 45 -154 -3 43 76 75 53
77 46 -156 -2 44 77 76 53
77 47 -158 0 45 78 77 54
76 48 -160 2 47 79 79 55
76 49 -159 2 47 79 79 55
76 50 -158 1 47 79 79 55
76 51 -157 1 47 78 79 55
76 52 -156 0 47 78 79 55
77 53 -154 -2 46 77 79 56
76 53 -151 0 46 76 77 55
74 52 -148 1 46 75 75 54
73 52 -145 3 46 74 73 53
71 51 -142 4 46 73 71 52
69 50 -139 6 45 71 68 51
67 49 -136 6 44 68 65 50
65 48 -133 6 43 65 63 48
63 46 -130 6 42 62 60 47
61 45 -127 6 40 59 57 45
59 43 -123 7 38 56 54 43
57 42 -118 7 37 54 52 40
54 40 -114 8 36 52 49 37
51 38 -109 9 35 49 47 35
48 37 -104 10 34 47 44 32
45 35 -99 11 32 44 40 29
45 34 -93 12 32 42 37 27
44 32 -87 13 31 38 34 25
43 30 -80 14 30 35 31 23
42 28 -74 15 29 32 28 21
40 26 -68 16 28 29 25 18
36 24 -63 16 28 27 23 16
33 22 -59 17 27 25 21 14
29 20 -54 18 26 23 19 12
25 18 -49 19 25 21 17 10
21 15 -44 20 24 19 14 8
20 15 -39 20 24 18 13 7
19 15 -35 21 23 17 12 6
18 14 -31 21 22 16 11 4
17 14 -26 22 21 15 10 3
15 13 -22 23 20 14 8 1
13 12 -19 22 19 13 7 1
11 11 -16 21 18 11 5 0
9 10 -13 20 16 9 4 -2
7 9 -10 19 15 7 2 -3
5 8 -7 17 13 5 0 -4
5 8 -6 17 12 4 0 -4
4 7 -4 16 10 3 -2 -5
3 6 -2 16 9 2 -3 -6
2 5 1 15 7 1 -4 -7
1 4 3 14 5 -2 -5 -8
1 4 3 14 5 -2 -5 -8
1 4 4 13 5 -3 -6 -9
0 3 5 13 4 -3 -7 -9
0 3 6 12 4 -4 -8 -10
-2 2 7 11 3 -5 -9 -11
-2 2 7 9 2 -6 -9 -11
-2 1 6 7 1 -7 -10 -12
-2 0 5 5 0 -8 -11 -12
-2 -2 4 3 -2 -9 -12 -13
-2 -3 3 1 -4 -11 -13 -14
-2 -2 3 1 -4 -11 -13 -14
-2 0 3 2 -4 -11 -13 -14
-3 1 3 2 -4 -11 -13 -14
-3 2 3 3 -4 -11 -13 -14
-4 3 4 4 -4 -10 -13 -14
-4 2 4 3 -4 -10 -13 -14
-5 1 4 2 -4 -10 -13 -14
-5 0 4 1 -5 -11 -13 -14
-6 -2 4 0 -5 -11 -13 -14
-7 -3 5 -2 -6 -12 -14 -14
-6 -3 5 -2 -6 -12 -14 -14
-4 -3 5 -2 -6 -12 -14 -14
-2 -2 5 0 -6 -13 -15 -14
1 -2 5 0 -6 -13 -15 -14
3 0 5 1 -7 -14 -16 -15
2 0 5 1 -7 -14 -15 -15
0 0 5 1 -7 -14 -14 -15
-2 -2 5 1 -6 -13 -13 -14
-4 -2 5 1 -6 -13 -12 -14
-6 -3 6 2 -5 -12 -11 -13
-6 -3 6 2 -5 -12 -11 -13
-6 -3 5 2 -5 -12 -11 -13
-5 -3 4 2 -5 -11 -12 -13
-5 -3 3 2 -5 -11 -12 -13
-4 -2 2 1 -4 -10 -13 -12
-4 -2 2 1 -4 -10 -13 -12
-4 -2 3 0 -5 -10 -13 -12
-5 -2 4 0 -5 -11 -13 -12
-5 -2 5 -2 -6 -11 -13 -12
-6 -3 6 -3 -7 -12 -14 -11
-6 -3 6 -3 -7 -12 -14 -11
-6 -3 6 -3 -7 -12 -14 -11
-7 -3 6 -2 -7 -12 -14 -11
-7 -3 6 -2 -7 -12 -14 -11
-8 -2 7 0 -7 -12 -14 -12
-8 -2 7 0 -7 -12 -14 -12
-9 -2 7 1 -6 -12 -14 -12
-9 -3 7 1 -6 -12 -13 -12
-10 -3 7 2 -5 -12 -13 -12
-11 -4 8 3 -4 -11 -12 -12
-11 -4 8 3 -4 -11 -12 -12
-11 -4 8 3 -4 -11 -12 -12
-10 -3 8 3 -5 -11 -12 -12
-10 -3 8 3 -5 -11 -12 -12
-9 -2 8 2 -6 -10 -13 -11
-9 -2 8 1 -6 -11 -13 -11
-9 -2 8 0 -7 -12 -13 -11
-8 -2 8 -2 -7 -12 -13 -11
-8 -2 8 -3 -8 -13 -13 -11
-8 -2 8 -4 -8 -14 -13 -11
-8 -2 7 -5 -9 -15 -13 -12
-9 -3 7 -4 -8 -14 -13 -12
-11 -3 7 -3 -8 -14 -13 -12
-12 -4 7 -2 -7 -13 -13 -12
-13 -4 7 -2 -7 -13 -13 -12
-13 -5 8 0 -6 -12 -13 -11
-12 -5 7 -2 -7 -13 -13 -11
-10 -6 7 -2 -8 -14 -13 -11
-9 -6 6 -3 -9 -15 -13 -11
-8 -6 6 -3 -10 -15 -13 -11
-7 -7 5 -4 -11 -16 -14 -12
-8 -7 5 -4 -11 -16 -14 -13
-8 -6 5 -5 -11 -16 -15 -13
-9 -6 5 -5 -11 -16 -15 -14
-9 -6 5 -5 -11 -16 -15 -14
-10 -5 6 -6 -11 -17 -16 -15
-9 -5 6 -7 -12 -17 -16 -15
-9 -5 6 -7 -13 -17 -17 -15
-8 -5 6 -8 -14 -17 -17 -15
-8 -5 6 -8 -14 -17 -17 -15
-7 -5 7 -9 -15 -17 -18 -15
-8 -5 7 -9 -15 -17 -18 -15
-9 -5 7 -8 -14 -17 -17 -15
-10 -5 7 -8 -14 -17 -17 -15
-10 -5 7 -8 -14 -17 -17 -15
-11 -5 6 -7 -13 -18 -16 -15
-11 -5 6 -7 -13 -18 -16 -15
-10 -5 6 -7 -14 -19 -17 -15
-10 -5 6 -7 -14 -19 -17 -15
-10 -5 6 -7 -14 -19 -17 -15
-9 -6 7 -8 -15 -20 -18 -16
-9 -7 7 -8 -15 -20 -18 -16
-9 -7 7 -8 -15 -20 -19 -16
-9 -8 7 -8 -15 -20 -19 -16
-9 -8 7 -8 -15 -20 -19 -16
-10 -9 6 -9 -16 -20 -20 -17
-10 -8 6 -9 -16 -20 -20 -17
-10 -8 6 -9 -16 -20 -20 -18
-10 -7 6 -9 -16 -20 -20 -18
-10 -7 6 -9 -16 -20 -20 -18
-10 -6 5 -10 -16 -21 -19 -19
-10 -6 5 -10 -16 -21 -19 -18
-10 -6 5 -10 -17 -22 -19 -18
-10 -6 5 -10 -17 -22 -19 -17
-10 -6 5 -10 -17 -22 -19 -17
-9 -6 5 -11 -18 -23 -20 -16
-10 -6 5 -11 -18 -23 -20 -16
-11 -6 5 -10 -17 -22 -19 -16
-12 -6 5 -10 -17 -22 -19 -16
-12 -6 5 -10 -17 -22 -19 -16
-13 -7 5 -9 -16 -21 -18 -15
-13 -7 5 -9 -16 -21 -18 -15
-12 -7 5 -9 -16 -21 -18 -15
-12 -7 5 -9 -16 -21 -18 -15
-12 -7 5 -9 -16 -21 -18 -15
-11 -4 6 -8 -16 -21 -19 -16
-10 -2 7 -8 -15 -20 -18 -15
-10 2 9 -9 -14 -19 -18 -14
-9 4 10 -9 -13 -18 -17 -13
-9 6 11 -9 -12 -17 -17 -12
-8 7 12 -9 -11 -16 -16 -11
-8 8 13 -8 -10 -16 -16 -11
-7 9 14 -6 -10 -15 -15 -11
-7 10 15 -5 -9 -15 -15 -11
-7 11 16 -4 -9 -15 -15 -11
-6 12 17 -3 -8 -14 -14 -10
-6 12 17 -3 -7 -13 -14 -10
-6 12 18 -2 -7 -13 -13 -10
-6 12 18 -2 -6 -12 -13 -10
-6 12 18 -2 -6 -12 -13 -10
-7 12 18 0 -5 -11 -12 -9
-7 12 17 0 -5 -11 -12 -9
-7 13 15 0 -6 -11 -12 -9
-7 13 14 0 -6 -11 -12 -9
-7 13 13 0 -6 -11 -12 -9
-8 14 10 -2 -7 -12 -13 -9
-7 15 8 -3 -7 -11 -12 -8
-7 15 6 -3 -7 -11 -11 -7
-6 16 4 -4 -7 -10 -10 -6
-6 16 2 -4 -7 -10 -9 -5
-3 18 0 -6 -7 -9 -8 -4
0 19 -3 -8 -8 -10 -8 -4
2 20 -4 -9 -10 -10 -9 -3
4 21 -6 -11 -11 -11 -9 -3
6 22 -7 -12 -12 -11 -9 -3
7 21 -8 -13 -13 -12 -10 -2
7 19 -9 -13 -13 -12 -10 -3
7 17 -10 -13 -14 -12 -10 -4
7 15 -11 -13 -14 -12 -10 -5
7 13 -11 -13 -14 -12 -10 -5
7 12 -12 -12 -15 -13 -10 -6
6 11 -11 -12 -15 -14 -10 -6
5 11 -10 -12 -15 -15 -10 -6
4 10 -9 -12 -15 -16 -10 -6
3 10 -9 -12 -15 -16 -10 -6
1 7 -8 -12 -15 -18 -10 -6
-2 5 -7 -12 -16 -19 -11 -7
-4 2 -6 -13 -16 -21 -12 -8
-6 -2 -5 -13 -17 -22 -13 -9
-8 -4 -5 -13 -17 -23 -14 -10
-10 -7 -4 -14 -19 -25 -16 -12
-11 -9 -5 -15 -20 -26 -18 -13
-13 -11 -6 -16 -22 -27 -20 -15
-14 -13 -7 -17 -23 -28 -22 -16
-15 -15 -7 -17 -24 -29 -24 -17
-16 -16 -8 -18 -25 -30 -25 -18
-16 -16 -7 -19 -26 -30 -25 -18
-16 -16 -7 -20 -26 -30 -25 -19
-16 -16 -6 -21 -27 -30 -25 -19
-16 -16 -6 -21 -27 -30 -25 -19
-16 -15 -5 -22 -28 -31 -24 -20
-15 -16 -5 -22 -28 -31 -24 -20
-15 -17 -4 -22 -28 -32 -25 -20
-14 -18 -4 -22 -28 -32 -25 -20
-14 -18 -4 -22 -28 -32 -25 -20
-13 -19 -3 -22 -28 -33 -26 -21
-14 -19 -3 -22 -28 -33 -26 -21
-14 -18 -3 -21 -27 -32 -26 -21
-15 -18 -3 -21 -27 -32 -26 -21
-15 -18 -3 -21 -27 -32 -26 -21
-16 -17 -4 -20 -26 -31 -27 -22
-16 -17 -4 -20 -26 -31 -27 -22
-15 -17 -5 -20 -27 -31 -27 -22
-15 -17 -5 -20 -27 -31 -27 -22
-15 -17 -5 -20 -27 -31 -27 -22
-14 -18 -6 -21 -28 -31 -27 -22
-14 -18 -6 -21 -28 -31 -27 -21
-14 -18 -5 -21 -28 -31 -26 -21
-14 -18 -5 -21 -28 -31 -26 -20
-14 -18 -5 -21 -28 -31 -26 -20
-17 -18 5 -18 -25 -31 -27 -20
-19 -18 14 -15 -22 -32 -29 -23
-21 -18 23 -12 -19 -33 -32 -25
-24 -18 32 -9 -16 -34 -35 -27
-26 -18 42 -6 -13 -35 -37 -29
-23 -16 47 7 0 -24 -30 -26
-19 -15 50 20 14 -10 -22 -21
-14 -13 53 32 27 6 -13 -15
-10 -12 57 46 42 20 -4 -10
-5 -11 60 59 55 34 6 -5
10 0 60 87 89 70 33 13
26 11 58 115 126 108 63 32
42 22 57 144 161 147 93 52
57 33 55 174 198 185 122 70
73 45 54 202 234 224 152 90
88 56 46 222 263 252 175 106
101 68 37 240 290 277 197 122
115 79 29 259 318 304 219 138
130 91 21 277 346 329 241 154
144 102 13 295 373 355 263 171
137 92 10 263 334 310 237 156
125 77 6 223 282 255 203 137
113 63 3 183 232 198 170 117
102 48 0 143 181 142 136 98
91 33 -4 103 131 86 102 78
72 21 7 70 84 40 67 57
53 9 19 38 36 -4 33 36
34 -4 32 7 -10 -47 -2 15
15 -16 45 -24 -56 -91 -36 -7
-5 -28 58 -56 -103 -135 -70 -28
-13 -36 71 -55 -106 -140 -79 -37
-20 -44 85 -48 -102 -139 -86 -45
-26 -51 98 -40 -98 -138 -91 -52
-33 -58 112 -33 -94 -137 -96 -59
-40 -65 126 -25 -90 -136 -102 -67
-47 -65 141 -23 -86 -132 -103 -68
-53 -62 157 -22 -81 -128 -103 -69
-60 -60 174 -21 -78 -124 -103 -70
-66 -58 190 -20 -74 -120 -103 -71
-73 -56 205 -19 -70 -116 -103 -71
-77 -55 215 -22 -69 -114 -103 -72
-81 -55 222 -27 -70 -113 -102 -72
-86 -55 229 -32 -71 -112 -101 -72
-90 -55 236 -38 -72 -111 -100 -72
-94 -55 243 -44 -73 -110 -99 -72
-97 -56 251 -50 -76 -109 -98 -73
-100 -55 257 -57 -79 -109 -99 -73
-103 -55 263 -64 -82 -109 -99 -73
-106 -54 269 -71 -86 -109 -100 -73
-109 -54 276 -78 -89 -109 -100 -73
-110 -53 275 -81 -90 -109 -101 -72
-110 -54 272 -83 -91 -109 -100 -72
-110 -55 269 -87 -92 -108 -100 -71
-110 -56 266 -90 -93 -108 -99 -71
-110 -56 263 -92 -93 -108 -99 -71
-106 -56 241 -93 -93 -104 -95 -68
-100 -55 216 -92 -90 -100 -90 -65
-94 -53 190 -91 -88 -96 -86 -61
-88 -51 165 -90 -86 -92 -81 -58
-81 -50 140 -89 -83 -88 -76 -55
-74 -46 117 -86 -79 -82 -71 -51
-65 -40 95 -83 -75 -78 -66 -47
-57 -35 72 -80 -72 -73 -61 -43
-49 -31 50 -78 -68 -68 -56 -37
-40 -26 27 -75 -64 -63 -51 -33
-34 -24 19 -70 -59 -58 -47 -30
-29 -23 13 -65 -54 -53 -41 -27
-24 -21 7 -60 -49 -47 -37 -23
-19 -19 1 -55 -44 -41 -33 -20
-13 -18 -6 -49 -37 -35 -28 -17
-11 -16 -9 -45 -33 -32 -25 -15
-8 -15 -11 -41 -30 -29 -22 -13
-6 -14 -13 -37 -26 -25 -20 -11
-4 -12 -16 -34 -23 -22 -17 -10
-2 -11 -18 -30 -19 -19 -14 -8
0 -10 -21 -29 -18 -18 -13 -7
1 -10 -23 -30 -18 -18 -13 -7
1 -10 -26 -30 -19 -18 -13 -7
2 -10 -28 -31 -19 -18 -13 -7
2 -10 -31 -31 -19 -18 -13 -7
3 -10 -33 -32 -19 -17 -12 -6
4 -9 -35 -31 -17 -14 -9 -5
4 -8 -37 -30 -15 -12 -7 -4
5 -7 -39 -29 -14 -10 -5 -2
5 -7 -41 -28 -12 -8 -3 0
6 -6 -43 -27 -11 -7 -2 1
7 -6 -44 -28 -11 -7 0 2
8 -6 -45 -29 -12 -7 0 3
9 -6 -46 -30 -12 -7 1 4
10 -6 -47 -30 -12 -7 1 4
12 -6 -49 -31 -12 -5 3 5
14 -4 -50 -29 -9 -3 4 7
16 -2 -52 -28 -7 0 6 8
18 1 -54 -27 -4 2 8 9
20 3 -55 -26 -2 4 9 10
21 4 -58 -25 0 5 10 11
23 4 -60 -25 0 5 11 11
24 5 -63 -24 0 5 12 11
25 5 -65 -24 0 5 13 11
26 5 -68 -24 0 5 14 11
27 6 -70 -23 0 8 16 13
28 6 -72 -22 2 12 19 15
29 7 -74 -21 4 15 21 17
30 7 -75 -20 6 18 24 19
31 7 -77 -19 8 22 26 21
33 9 -80 -18 9 24 28 23
35 10 -83 -18 9 26 30 25
37 12 -86 -18 10 28 33 27
38 14 -89 -18 10 29 35 29
40 15 -92 -18 10 31 37 31
44 17 -96 -17 12 34 40 33
47 19 -100 -17 14 37 44 35
50 21 -104 -16 17 39 46 37
54 23 -108 -16 19 43 49 39
57 25 -112 -16 21 46 52 42
58 26 -114 -15 22 48 54 44
58 28 -116 -15 23 50 56 45
59 29 -118 -14 24 53 58 47
59 30 -119 -14 25 55 60 49
59 31 -121 -14 25 57 62 50
62 33 -126 -12 27 59 64 52
64 34 -130 -10 29 61 66 53
67 35 -134 -8 31 64 68 55
69 37 -138 -7 33 66 70 57
72 38 -142 -5 35 68 72 58
73 39 -144 -4 36 69 73 59
73 40 -146 -4 37 70 74 60
73 40 -148 -4 37 70 75 60
73 42 -149 -4 38 71 76 61
73 42 -151 -4 38 71 76 61
72 43 -152 -3 39 72 77 63
72 44 -153 -3 42 74 79 64
73 45 -153 -2 43 75 80 65
73 46 -154 -2 44 76 81 67
73 46 -154 -2 45 77 82 68
74 47 -155 0 46 77 82 69
74 47 -155 0 46 76 81 67
75 48 -155 1 45 75 79 66
75 48 -155 1 45 73 77 65
75 48 -155 1 45 72 76 64
74 49 -152 2 44 70 74 63
72 48 -148 3 44 69 72 63
69 47 -145 4 43 68 70 62
67 46 -142 5 43 66 69 62
64 45 -138 5 43 65 67 62
62 44 -134 7 42 62 64 60
61 43 -130 8 40 60 62 58
60 42 -126 10 39 57 59 55
58 40 -121 12 38 55 56 53
57 40 -117 13 37 52 53 51
55 38 -113 14 35 49 50 49
53 36 -109 14 34 47 47 47
52 33 -104 14 33 44 44 44
50 31 -100 14 31 42 40 42
48 29 -96 14 30 38 37 39
45 27 -90 14 29 36 35 37
42 25 -82 16 28 33 32 35
38 24 -76 17 27 31 30 34
34 22 -69 19 26 28 27 32
31 20 -63 21 25 26 25 30
29 18 -58 22 24 24 23 28
27 17 -53 23 23 23 21 26
25 16 -48 24 23 22 19 25
23 14 -43 25 22 20 17 23
21 13 -37 25 22 19 15 21
19 11 -34 26 21 17 13 19
16 9 -31 26 19 15 11 18
14 8 -28 26 18 14 10 17
11 6 -26 26 17 12 8 15
9 4 -23 26 16 10 6 14
8 3 -19 25 15 8 4 13
7 3 -14 24 14 7 3 12
6 2 -10 24 13 6 2 11
5 2 -5 23 12 4 0 10
4 2 0 23 12 3 -2 9
3 1 2 22 10 1 -3 7
2 0 3 21 8 0 -5 6
2 -2 3 20 7 -3 -6 5
1 -3 4 19 5 -5 -7 3
1 -4 4 18 3 -6 -8 2
0 -5 5 17 2 -7 -9 1
0 -5 4 17 2 -7 -9 1
0 -5 4 16 1 -7 -9 1
0 -5 3 16 1 -7 -9 1
0 -5 3 16 1 -7 -9 1
0 -4 2 14 0 -8 -9 2
0 -4 3 13 -3 -9 -9 2
0 -4 4 12 -4 -9 -10 2
0 -4 4 10 -5 -10 -10 2
0 -4 5 9 -6 -10 -10 2
1 -3 6 8 -7 -11 -11 2
0 -3 6 8 -7 -12 -12 1
-2 -4 6 8 -7 -13 -13 0
-3 -4 6 8 -7 -13 -13 0
-4 -4 6 8 -7 -14 -14 -2
-5 -5 5 8 -8 -15 -15 -3
-5 -5 5 7 -8 -15 -15 -3
-5 -5 5 6 -9 -15 -15 -3
-5 -5 5 5 -9 -15 -15 -3
-5 -5 5 4 -9 -15 -15 -3
-5 -6 4 3 -10 -16 -15 -2
-5 -6 4 4 -10 -16 -15 -2
-5 -7 4 4 -10 -16 -15 -2
-5 -7 4 5 -10 -16 -15 -2
-5 -7 4 5 -10 -16 -15 -2
-5 -8 4 6 -10 -16 -15 -2
-5 -7 4 6 -10 -16 -15 -2
-5 -7 4 6 -10 -15 -15 -2
-5 -6 4 6 -10 -15 -15 -2
-5 -6 4 6 -10 -15 -15 -2
-5 -5 5 7 -11 -14 -15 0
-5 -6 5 6 -11 -14 -15 0
-5 -6 4 5 -11 -14 -15 0
-5 -7 4 5 -11 -14 -15 0
-5 -7 4 4 -11 -14 -15 0
-5 -8 3 3 -10 -14 -15 -2
-4 -7 3 3 -10 -14 -15 -2
-3 -6 4 3 -10 -14 -15 -2
-3 -6 4 3 -10 -14 -15 -2
-2 -5 4 3 -10 -14 -15 -2
0 -4 5 3 -11 -15 -16 -3
-2 -5 5 3 -11 -15 -16 -3
-3 -6 5 2 -11 -15 -15 -3
-3 -6 5 2 -11 -15 -15 -3
-4 -7 5 2 -11 -15 -15 -3
-5 -8 4 1 -11 -15 -14 -3
-5 -7 4 0 -11 -15 -14 -3
-5 -6 3 0 -11 -15 -14 -3
-5 -5 3 -2 -11 -15 -14 -3
-5 -4 3 -2 -11 -15 -14 -3
-4 -3 2 -3 -11 -14 -14 -2
-4 -4 2 -2 -11 -14 -14 -2
-3 -4 2 -2 -10 -14 -15 -2
-3 -5 2 0 -10 -14 -15 -2
-3 -5 2 0 -10 -14 -15 -2
-3 -6 1 1 -9 -14 -16 -3
-4 -6 1 0 -10 -14 -16 -4
-6 -7 1 -2 -10 -14 -16 -4
-7 -7 1 -3 -11 -14 -16 -5
-9 -7 1 -4 -11 -14 -16 -5
-9 -8 0 -5 -12 -14 -17 -6
-7 -8 0 -5 -12 -14 -17 -6
-5 -7 0 -5 -12 -14 -17 -6
-2 -7 0 -5 -12 -14 -17 -6
1 -7 0 -5 -12 -14 -17 -6
2 -6 0 -5 -12 -15 -16 -5
1 -6 1 -6 -12 -15 -16 -5
1 -6 2 -7 -13 -15 -16 -5
0 -6 2 -8 -13 -15 -16 -5
0 -6 3 -9 -13 -15 -16 -5
-2 -7 4 -10 -14 -16 -17 -6
-2 -7 4 -10 -14 -16 -17 -7
-3 -8 4 -9 -14 -17 -18 -7
-3 -8 4 -9 -14 -17 -18 -8
-3 -8 4 -9 -14 -17 -18 -8
-4 -9 3 -8 -13 -18 -19 -9
-5 -9 2 -8 -13 -19 -20 -9
-6 -9 2 -8 -14 -19 -21 -10
-7 -9 1 -8 -14 -20 -21 -10
-8 -9 1 -8 -14 -20 -22 -10
-9 -9 0 -8 -15 -21 -23 -11
-8 -9 0 -8 -15 -21 -23 -11
-7 -9 1 -8 -15 -20 -23 -11
-7 -9 1 -8 -15 -20 -23 -11
-6 -9 1 -8 -15 -20 -23 -11
-5 -9 2 -9 -14 -19 -22 -11
-5 -9 3 -9 -14 -19 -21 -11
-5 -9 4 -9 -14 -19 -21 -10
-5 -9 4 -9 -14 -19 -20 -10
-5 -9 5 -9 -14 -19 -20 -10
-6 -10 5 -8 -14 -18 -19 -9
-6 -10 3 -8 -15 -18 -19 -9
-6 -11 1 -9 -15 -19 -19 -9
-6 -11 -2 -9 -16 -19 -19 -9
-6 -11 -4 -9 -16 -19 -19 -9
-7 -12 -5 -10 -17 -20 -20 -9
-7 -12 -5 -10 -17 -21 -22 -10
-7 -12 -4 -11 -17 -21 -23 -11
-7 -12 -4 -11 -17 -22 -24 -12
-7 -12 -4 -11 -17 -22 -25 -13
-8 -11 -3 -12 -17 -23 -26 -14
-8 -11 -2 -12 -17 -23 -25 -14
-8 -11 -2 -12 -17 -22 -25 -14
-8 -11 0 -12 -17 -22 -24 -14
-8 -11 0 -12 -17 -22 -24 -14
-8 -11 1 -13 -17 -21 -23 -15
-8 -11 1 -13 -17 -21 -23 -15
-7 -12 1 -14 -18 -21 -23 -14
-6 -13 1 -14 -19 -21 -23 -14
-6 -13 1 -14 -19 -21 -23 -14
-5 -14 2 -15 -20 -22 -23 -13
-6 -13 2 -14 -20 -22 -23 -13
-7 -12 3 -13 -19 -21 -24 -13
-7 -11 4 -12 -19 -21 -24 -13
-8 -10 4 -11 -19 -21 -24 -13
-9 -9 5 -10 -18 -20 -25 -14
-9 -9 5 -10 -18 -20 -25 -13
-8 -8 5 -9 -18 -19 -24 -12
-8 -8 5 -8 -18 -19 -24 -12
-8 -8 5 -8 -18 -19 -24 -11
-7 -6 6 -7 -18 -18 -23 -10
-7 -5 7 -7 -17 -18 -23 -10
-8 -3 8 -7 -16 -17 -22 -9
-8 0 9 -7 -16 -16 -22 -8
-8 2 10 -7 -15 -16 -22 -8
-9 3 11 -7 -14 -15 -21 -7
-9 3 12 -5 -13 -14 -20 -7
-8 4 13 -4 -12 -12 -19 -7
-8 5 14 -2 -11 -11 -18 -7
-8 5 15 0 -10 -10 -17 -7
-7 6 16 1 -9 -9 -16 -7
-7 6 15 1 -9 -9 -16 -7
-6 7 13 0 -9 -9 -16 -6
-6 7 12 0 -9 -9 -16 -6
-6 7 11 0 -9 -9 -16 -6
-5 8 10 -2 -10 -9 -15 -5
-5 9 10 -3 -10 -9 -15 -5
-6 10 10 -4 -11 -10 -15 -5
-6 11 10 -4 -11 -10 -15 -5
-6 12 10 -5 -11 -10 -15 -5
-7 13 10 -6 -12 -11 -15 -4
-6 14 8 -6 -12 -11 -15 -4
-4 15 6 -6 -11 -10 -15 -4
-3 15 4 -6 -11 -9 -15 -4
-2 16 2 -6 -11 -9 -15 -4
0 17 0 -8 -10 -8 -14 -3
0 17 -3 -9 -12 -9 -14 -2
1 18 -6 -11 -13 -10 -14 0
1 18 -8 -13 -15 -10 -14 0
1 18 -11 -15 -16 -11 -14 1
2 18 -12 -16 -17 -12 -13 2
2 15 -12 -16 -17 -12 -13 1
2 12 -13 -15 -18 -12 -13 0
2 9 -13 -15 -18 -12 -13 0
2 7 -13 -15 -18 -12 -13 -2
3 5 -14 -14 -19 -13 -13 -3
3 4 -13 -14 -19 -13 -13 -3
2 3 -12 -14 -20 -14 -13 -3
1 3 -11 -14 -21 -14 -13 -3
1 2 -10 -14 -21 -14 -13 -3
-2 1 -9 -15 -22 -15 -14 -4
-5 -2 -8 -15 -22 -15 -15 -5
-8 -3 -6 -15 -22 -16 -17 -7
-11 -5 -5 -15 -22 -16 -18 -8
-14 -6 -4 -15 -22 -16 -19 -9
-16 -7 -3 -15 -23 -18 -21 -11
-16 -9 -3 -17 -25 -20 -23 -13
-15 -11 -4 -18 -27 -22 -25 -15
-15 -12 -4 -20 -29 -24 -27 -17
-15 -14 -4 -21 -31 -26 -29 -20
-14 -15 -5 -22 -32 -27 -30 -21
-14 -17 -5 -22 -32 -27 -30 -21
-14 -18 -5 -23 -32 -27 -30 -21
-14 -20 -5 -23 -32 -27 -30 -21
-14 -21 -5 -23 -32 -27 -30 -21
-14 -22 -4 -24 -33 -28 -30 -21
-15 -22 -4 -24 -33 -28 -30 -21
-16 -21 -4 -23 -33 -28 -29 -20
-16 -21 -4 -23 -33 -28 -28 -19
-17 -21 -4 -23 -33 -28 -28 -19
-18 -20 -4 -22 -33 -27 -27 -18
-18 -20 -4 -22 -33 -27 -27 -18
-17 -20 -3 -21 -33 -26 -27 -18
-17 -20 -3 -20 -33 -25 -27 -18
-17 -20 -3 -20 -33 -25 -27 -18
-16 -19 -2 -19 -32 -24 -27 -19
-16 -19 -2 -19 -32 -24 -27 -19
-17 -20 -2 -19 -32 -25 -27 -19
-18 -21 -2 -19 -32 -25 -27 -19
-18 -21 -2 -19 -32 -25 -27 -19
-20 -22 0 -19 -31 -26 -28 -20
-22 -22 1 -17 -30 -26 -28 -20
-24 -22 2 -16 -29 -25 -28 -21
-26 -22 3 -14 -29 -24 -28 -21
-28 -22 4 -13 -28 -24 -28 -21
-29 -21 10 -8 -26 -23 -29 -22
-31 -21 19 -2 -23 -23 -30 -24
-32 -22 27 6 -20 -23 -32 -26
-34 -22 36 13 -17 -23 -34 -27
-35 -22 46 20 -15 -23 -36 -29
-34 -22 51 30 -4 -13 -30 -26
-29 -19 53 44 14 6 -17 -17
-24 -17 56 58 30 24 -3 -9
-19 -14 58 71 47 42 11 1
-14 -12 61 85 64 60 24 9
-2 -3 60 106 92 92 49 24
15 10 57 133 129 132 79 46
31 23 53 159 165 172 111 66
48 36 50 186 202 213 143 88
64 49 46 214 239 253 175 108
77 60 39 230 264 278 198 126
89 70 32 240 281 295 217 140
99 80 25 251 298 310 234 154
110 91 18 261 315 325 253 169
121 100 11 270 331 341 271 183
117 96 6 251 307 311 254 175
101 79 4 207 251 246 210 149
85 62 1 164 193 182 165 125
68 46 -2 121 137 117 120 99
52 28 -4 77 79 52 76 73
36 16 3 50 38 8 43 52
20 5 17 32 9 -22 17 34
5 -6 32 15 -21 -52 -10 16
-11 -17 48 -2 -51 -80 -35 -3
-27 -27 62 -19 -80 -110 -62 -21
-35 -35 75 -24 -93 -123 -76 -33
-38 -41 89 -18 -89 -123 -81 -40
-41 -47 101 -13 -86 -123 -87 -48
-45 -53 113 -7 -82 -123 -93 -55
-48 -59 126 0 -79 -123 -98 -62
-53 -61 139 4 -75 -120 -101 -66
-60 -59 153 8 -69 -115 -100 -67
-67 -57 168 11 -64 -110 -99 -68
-74 -55 182 15 -59 -105 -98 -69
-81 -52 196 18 -54 -101 -97 -70
-86 -51 207 17 -52 -98 -96 -71
-88 -51 216 11 -55 -97 -95 -70
-90 -52 224 5 -58 -96 -94 -69
-91 -53 232 -3 -60 -96 -94 -69
-93 -53 240 -9 -63 -95 -93 -68
-95 -54 246 -15 -66 -94 -92 -67
-96 -54 252 -21 -69 -95 -94 -68
-98 -55 256 -28 -72 -96 -95 -69
-100 -55 261 -34 -75 -97 -96 -69
-102 -55 265 -41 -78 -98 -98 -70
-103 -56 268 -46 -80 -99 -99 -71
-105 -57 268 -50 -82 -99 -99 -71
-106 -58 267 -54 -83 -99 -98 -71
-107 -59 267 -57 -85 -99 -97 -71
-109 -60 267 -61 -87 -99 -97 -71
-108 -60 253 -63 -88 -98 -94 -69
-104 -57 228 -63 -86 -94 -89 -65
-100 -55 203 -62 -83 -90 -83 -61
-96 -52 179 -61 -81 -86 -78 -57
-91 -50 153 -61 -79 -80 -73 -53
-86 -47 131 -60 -76 -76 -68 -50
-78 -44 108 -58 -73 -71 -63 -46
-71 -40 86 -57 -69 -66 -58 -43
-64 -37 63 -56 -65 -61 -53 -38
-57 -34 40 -54 -61 -56 -49 -35
-51 -31 27 -51 -56 -50 -44 -31
-46 -29 21 -45 -51 -45 -38 -28
-40 -26 14 -39 -45 -38 -33 -24
-36 -24 8 -33 -38 -33 -28 -20
-31 -22 1 -28 -32 -27 -23 -16
-27 -20 -4 -24 -28 -23 -19 -13
-24 -18 -6 -22 -25 -20 -17 -11
-21 -16 -8 -19 -22 -17 -14 -9
-18 -14 -10 -17 -19 -14 -11 -7
-15 -12 -12 -15 -16 -11 -9 -5
-13 -11 -14 -13 -14 -9 -7 -4
-13 -11 -16 -13 -13 -9 -7 -4
-13 -11 -18 -12 -12 -9 -7 -4
-13 -11 -20 -12 -12 -9 -7 -4
-13 -11 -22 -12 -11 -9 -7 -4
-12 -10 -24 -11 -10 -8 -6 -3
-11 -10 -27 -11 -9 -6 -5 -3
-9 -10 -30 -10 -8 -4 -3 -2
-8 -10 -33 -9 -7 -3 -2 -2
-7 -10 -36 -9 -6 0 0 -2
-6 -9 -38 -8 -5 1 1 0
-5 -9 -39 -8 -5 2 2 2
-3 -9 -40 -8 -4 4 4 3
-2 -9 -41 -8 -3 5 5 4
0 -9 -43 -8 -3 6 6 6
2 -8 -45 -9 -2 7 7 7
4 -7 -48 -9 -2 9 9 9
6 -5 -52 -8 0 10 11 10
8 -4 -55 -8 1 11 12 11
10 -3 -58 -8 1 13 14 13
11 -2 -60 -7 2 14 15 14
10 -2 -60 -7 2 15 16 14
9 0 -60 -7 2 17 17 15
8 0 -60 -7 2 18 18 16
7 0 -60 -7 2 19 19 16
7 2 -62 -8 4 21 21 17
10 4 -66 -7 6 24 24 19
13 6 -69 -6 9 27 27 21
16 8 -72 -6 12 29 30 23
19 10 -76 -5 14 32 33 25
21 11 -79 -4 16 35 36 27
21 12 -82 -4 18 37 38 29
22 13 -86 -5 20 40 42 31
23 13 -88 -5 22 44 44 33
23 14 -91 -5 24 46 46 35
24 16 -94 -6 26 49 49 38
26 18 -96 -4 28 53 53 42
27 20 -99 -2 30 56 56 45
28 22 -101 0 32 59 59 47
30 24 -103 2 34 63 63 50
31 26 -106 3 36 65 65 52
31 26 -109 3 37 67 67 53
30 26 -112 3 38 68 69 54
29 26 -116 3 40 70 71 55
29 26 -119 3 42 72 73 56
29 26 -121 2 43 73 74 57
31 28 -123 2 44 75 76 59
34 31 -124 2 45 77 77 60
37 34 -126 3 47 79 78 62
39 36 -128 3 48 81 80 64
42 38 -130 4 49 82 81 65
42 39 -132 5 51 85 84 67
42 40 -134 5 52 87 86 69
42 42 -137 6 53 89 88 71
42 43 -139 7 55 91 90 73
43 44 -141 8 56 93 92 74
43 44 -142 8 56 93 92 74
43 44 -143 8 56 93 93 75
43 45 -145 9 56 93 94 76
43 45 -146 9 56 93 94 76
42 46 -147 10 57 94 95 77
40 46 -147 10 56 92 93 75
39 46 -146 10 56 91 91 74
37 45 -145 11 55 90 89 72
36 45 -145 11 54 88 87 70
35 44 -143 12 53 87 86 69
34 44 -139 12 53 85 84 68
33 44 -136 13 53 82 82 67
32 43 -133 14 52 80 80 66
31 43 -129 14 52 78 78 65
30 42 -124 16 51 77 77 64
29 40 -120 18 51 75 75 63
28 39 -116 21 51 73 74 62
27 38 -111 24 50 71 72 60
26 37 -107 26 50 69 70 59
23 35 -103 28 49 67 68 57
19 32 -98 30 49 64 64 54
14 30 -94 31 49 62 61 52
10 27 -90 33 48 59 57 49
5 24 -86 35 48 56 53 46
2 22 -80 36 47 53 50 43
1 22 -74 38 46 51 47 40
1 22 -69 39 46 49 45 38
0 21 -63 40 45 46 42 36
-2 21 -57 43 44 44 38 34
-4 19 -52 44 43 42 36 32
-7 17 -47 44 42 39 34 30
-10 15 -43 44 42 38 32 29
-13 12 -37 45 40 36 30 27
-16 10 -32 45 39 34 28 25
-18 8 -28 46 38 33 26 24
-19 8 -24 46 37 31 24 23
-19 8 -21 46 36 29 22 22
-20 7 -17 46 34 27 20 20
-21 7 -13 46 33 25 18 19
-22 6 -10 45 32 23 17 18
-24 5 -7 45 31 22 17 18
-26 4 -3 45 30 22 17 17
-28 2 1 46 29 21 16 16
-30 1 5 46 28 20 16 16
-31 0 7 47 27 19 15 15
-32 -2 7 46 26 17 13 14
-32 -3 8 45 25 15 12 13
-33 -5 9 44 23 13 11 11
-34 -6 9 43 22 11 9 10
-35 -7 10 42 21 10 8 9
-35 -7 10 39 19 9 7 9
-35 -7 10 38 18 9 7 9
-35 -7 10 36 17 8 6 9
-35 -7 10 34 15 7 5 9
-34 -6 9 33 14 6 4 8
-35 -6 10 31 13 5 4 7
-35 -6 11 30 13 4 3 7
-36 -7 12 29 12 2 2 6
-37 -7 13 27 11 1 2 5
-38 -8 14 26 10 0 1 4
-38 -8 14 26 10 1 2 5
-38 -8 14 26 11 2 3 5
-38 -8 14 26 12 3 4 6
-38 -8 14 26 12 4 5 7
-39 -9 14 27 13 5 6 8
-39 -9 13 27 12 4 5 7
-39 -9 12 27 11 3 4 6
-39 -9 11 26 10 2 3 5
-39 -9 10 26 9 1 2 4
-39 -10 9 25 8 0 1 3
-39 -9 10 25 8 0 1 3
-39 -8 10 25 8 0 1 3
-39 -7 11 25 8 0 1 4
-39 -6 12 25 8 0 1 4
-38 -5 13 24 8 1 2 5
-38 -6 13 24 8 1 2 5
-38 -7 13 24 8 1 2 5
-39 -8 12 24 8 1 2 5
-39 -9 12 24 8 1 2 5
-40 -10 11 23 8 1 2 5
-40 -10 11 23 8 1 2 5
-40 -9 11 23 8 1 2 5
-39 -8 11 23 8 1 3 5
-39 -8 11 23 8 1 3 5
-38 -7 11 23 7 2 4 5
-38 -7 11 23 7 2 4 5
-37 -7 11 23 6 2 4 5
-36 -7 10 23 5 2 4 4
-36 -7 10 23 5 2 4 4
-35 -7 9 22 4 1 4 3
-36 -7 9 22 4 1 4 3
-36 -8 10 22 4 1 4 3
-37 -9 11 22 4 1 4 4
-38 -9 11 22 4 1 4 4
-39 -10 12 21 3 1 4 5
-38 -10 11 21 3 1 4 5
-37 -10 11 21 2 0 4 5
-35 -9 10 21 1 -2 3 4
-34 -9 9 21 1 -2 3 4
-33 -8 8 20 0 -3 2 3
-33 -8 8 20 0 -3 2 3
-34 -8 8 20 0 -3 2 3
-35 -8 8 19 -2 -3 2 3
-35 -8 8 19 -2 -3 2 3
-36 -7 8 18 -3 -4 1 2
-35 -7 8 18 -3 -4 1 2
-34 -7 8 18 -3 -4 1 2
-33 -7 8 19 -2 -4 1 2
-32 -7 8 19 -2 -4 1 2
-31 -7 9 20 0 -3 2 1
-31 -8 8 19 -2 -4 2 1
-30 -8 8 17 -4 -4 2 1
-29 -9 7 16 -5 -5 2 0
-29 -10 6 14 -7 -6 2 0
-28 -11 5 13 -8 -7 1 -2
-27 -11 5 13 -8 -7 0 -3
-27 -11 5 13 -8 -7 -2 -4
-26 -10 5 13 -8 -7 -3 -5
-25 -10 5 13 -8 -7 -4 -6
-24 -9 4 12 -8 -8 -5 -7
-25 -9 4 12 -8 -8 -5 -7
-25 -9 4 12 -8 -8 -5 -6
-26 -10 4 12 -8 -8 -4 -5
-27 -10 4 12 -8 -8 -4 -5
-28 -11 3 11 -9 -8 -3 -4
-28 -11 4 11 -9 -8 -3 -4
-27 -11 4 11 -9 -8 -3 -4
-26 -11 5 11 -9 -8 -3 -4
-26 -11 6 11 -9 -8 -3 -4
-25 -11 7 12 -8 -9 -2 -3
-26 -11 7 12 -8 -9 -2 -3
-27 -11 7 12 -8 -9 -2 -3
-29 -12 6 12 -9 -9 -3 -3
-30 -12 6 12 -9 -9 -3 -3
-31 -13 5 11 -10 -9 -4 -3
-31 -13 5 10 -11 -9 -4 -3
-31 -13 5 9 -11 -9 -4 -3
-31 -13 5 7 -12 -10 -4 -3
-31 -13 5 6 -13 -10 -4 -3
-32 -12 5 5 -14 -11 -5 -4
-32 -12 5 5 -14 -11 -5 -4
-32 -12 5 5 -14 -11 -5 -4
-32 -12 5 5 -14 -12 -6 -4
-32 -12 5 5 -14 -12 -6 -4
-33 -13 5 6 -13 -13 -7 -5
-33 -13 5 6 -13 -13 -7 -5
-33 -13 5 6 -13 -13 -7 -5
-34 -13 6 6 -13 -13 -7 -5
-34 -13 6 6 -13 -13 -7 -5
-35 -12 7 6 -13 -13 -6 -6
-36 -12 7 6 -13 -13 -6 -6
-36 -12 7 6 -13 -13 -6 -6
-37 -12 6 7 -13 -12 -6 -6
-38 -12 6 7 -13 -12 -6 -6
-39 -11 5 8 -12 -11 -7 -6
-39 -11 5 7 -12 -11 -7 -6
-39 -11 5 7 -13 -11 -7 -6
-38 -11 5 6 -14 -12 -8 -7
-38 -11 5 5 -14 -12 -8 -7
-37 -11 5 4 -15 -13 -9 -8
-37 -9 6 6 -13 -12 -8 -7
-37 -7 7 7 -12 -11 -6 -5
-37 -5 8 9 -10 -9 -5 -4
-37 -4 9 10 -9 -8 -3 -2
-36 -2 10 12 -7 -7 -2 0
-35 0 11 12 -6 -7 -2 1
-34 2 13 13 -5 -6 -2 2
-33 3 14 14 -4 -5 0 3
-32 5 16 14 -3 -5 0 4
-31 6 17 15 -2 -4 1 5
-31 6 17 15 -2 -4 1 5
-31 6 17 15 -2 -4 1 5
-31 7 17 15 -2 -4 1 4
-31 7 17 15 -2 -4 1 4
-32 8 17 15 0 -4 0 3
-32 8 17 14 0 -4 0 3
-32 9 17 14 0 -4 0 3
-32 10 17 13 0 -4 0 3
-32 10 17 12 0 -4 0 3
-33 11 16 11 -2 -3 1 4
-32 12 15 11 -2 -3 1 5
-31 12 14 10 -2 -3 1 5
-29 13 13 9 -2 -3 1 6
-28 14 12 9 -2 -3 1 7
-27 15 11 8 -3 -4 1 8
-27 15 9 7 -3 -4 2 8
-28 15 8 6 -3 -4 2 8
-29 16 6 4 -3 -4 3 9
-29 16 5 3 -3 -4 4 9
-30 17 3 2 -4 -3 5 10
-28 17 1 1 -5 -3 5 10
-26 18 -2 0 -5 -4 5 10
-24 19 -4 -3 -6 -5 5 11
-23 19 -6 -4 -7 -5 5 11
-21 19 -8 -5 -8 -6 5 12
-21 16 -7 -5 -9 -6 5 12
-21 13 -7 -5 -9 -7 5 12
-21 10 -6 -4 -10 -7 5 12
-21 7 -5 -4 -11 -8 5 12
-20 4 -4 -3 -12 -9 4 12
-21 2 -4 -3 -12 -9 4 10
-22 0 -4 -3 -12 -10 3 9
-23 -3 -4 -2 -13 -10 3 7
-25 -5 -4 -2 -13 -11 2 6
-26 -7 -3 0 -14 -12 1 4
-28 -9 -3 -2 -15 -14 -2 3
-29 -11 -3 -3 -16 -15 -4 1
-31 -12 -3 -4 -17 -17 -6 0
-32 -14 -3 -6 -19 -18 -8 -3
-34 -16 -3 -7 -20 -20 -10 -4
-34 -16 -3 -8 -20 -20 -10 -4
-34 -16 -3 -9 -21 -21 -11 -4
-33 -16 -2 -10 -21 -21 -11 -5
-33 -16 -2 -12 -22 -22 -12 -5
-32 -17 0 -13 -23 -23 -13 -6
-29 -18 0 -14 -24 -25 -15 -8
-26 -18 -2 -15 -25 -26 -17 -9
-23 -19 -2 -16 -26 -28 -19 -11
-20 -20 -3 -17 -28 -29 -21 -12
-17 -21 -4 -18 -29 -31 -23 -14
-17 -21 -4 -18 -29 -31 -23 -14
-17 -21 -4 -18 -29 -31 -23 -14
-17 -21 -4 -19 -29 -31 -23 -14
-17 -21 -4 -19 -29 -31 -23 -14
-16 -22 -5 -20 -30 -31 -23 -15
-16 -22 -5 -20 -30 -31 -23 -15
-16 -22 -5 -19 -30 -30 -22 -15
-16 -22 -5 -19 -29 -30 -22 -15
-16 -22 -5 -18 -29 -29 -21 -15
-16 -21 -4 -17 -28 -28 -20 -14
-16 -21 -4 -17 -28 -28 -20 -14
-15 -21 -4 -17 -28 -28 -21 -14
-15 -21 -4 -18 -28 -28 -21 -14
-14 -21 -4 -18 -28 -28 -22 -14
-13 -22 -4 -19 -29 -29 -23 -14
-14 -22 0 -18 -29 -30 -25 -16
-14 -22 3 -16 -29 -32 -27 -18
-15 -23 6 -15 -28 -33 -28 -19
-16 -23 9 -13 -28 -35 -30 -21
-17 -24 14 -9 -25 -35 -32 -23
-18 -23 22 2 -15 -28 -30 -22
-18 -22 31 13 -5 -22 -29 -22
-19 -21 39 23 6 -16 -27 -21
-20 -19 49 34 16 -10 -26 -20
-19 -17 55 48 30 4 -18 -15
-9 -12 55 65 55 31 5 0
2 -6 56 82 79 60 26 14
12 0 56 101 104 88 49 29
22 6 57 118 129 116 71 44
34 14 57 139 156 149 97 61
51 30 52 163 195 191 130 85
66 47 47 189 234 234 163 108
82 63 40 215 273 276 197 132
98 79 35 240 312 319 230 155
110 92 29 257 339 348 254 173
112 92 20 247 331 337 251 173
113 91 11 238 324 326 246 173
115 91 3 229 317 315 242 173
116 90 -7 220 310 305 238 173
113 84 -13 199 283 275 221 165
92 65 -7 152 211 196 168 134
70 47 1 104 138 117 114 101
49 28 7 57 65 38 61 69
27 10 13 9 -8 -40 8 37
10 -6 21 -26 -61 -99 -34 11
3 -15 36 -22 -64 -106 -46 -2
-5 -24 51 -18 -67 -112 -57 -13
-12 -34 65 -15 -70 -118 -68 -25
-19 -44 79 -11 -72 -126 -79 -37
-26 -51 94 -8 -75 -131 -89 -48
-32 -53 107 -4 -74 -129 -92 -52
-38 -55 120 0 -73 -128 -94 -56
-44 -56 135 4 -72 -126 -97 -60
-50 -58 148 7 -71 -124 -100 -64
-55 -60 161 10 -70 -121 -102 -67
-59 -58 173 10 -68 -117 -101 -67
-62 -56 185 10 -66 -113 -100 -67
-66 -54 197 10 -64 -109 -99 -68
-69 -52 210 10 -62 -105 -98 -68
-72 -50 220 7 -61 -102 -97 -69
-75 -51 227 -3 -65 -103 -98 -69
-77 -53 234 -12 -69 -104 -99 -69
-79 -54 241 -21 -73 -105 -100 -69
-82 -55 248 -30 -77 -107 -102 -69
-85 -57 255 -38 -80 -108 -103 -70
-85 -57 259 -44 -83 -108 -103 -70
-85 -56 263 -49 -86 -108 -103 -70
-86 -56 267 -54 -88 -108 -102 -71
-86 -55 271 -60 -91 -108 -102 -71
-87 -54 271 -64 -93 -108 -101 -72
-83 -54 256 -67 -93 -106 -98 -70
-80 -54 241 -70 -93 -104 -95 -68
-77 -54 227 -73 -93 -102 -92 -66
-75 -54 212 -76 -93 -100 -90 -64
-71 -55 195 -79 -94 -97 -86 -62
-66 -52 172 -79 -91 -93 -81 -58
-61 -49 148 -79 -89 -89 -77 -54
-56 -46 125 -79 -87 -83 -72 -51
-51 -44 102 -79 -83 -79 -68 -47
-46 -40 80 -77 -80 -74 -63 -43
-38 -36 66 -73 -75 -68 -58 -38
-31 -32 51 -68 -69 -62 -53 -34
-24 -28 36 -64 -63 -56 -48 -29
-17 -24 21 -59 -58 -50 -41 -25
-11 -21 10 -55 -52 -45 -37 -21
-9 -21 8 -51 -48 -40 -34 -20
-7 -20 6 -47 -44 -36 -32 -19
-5 -20 3 -43 -39 -33 -29 -18
-3 -19 1 -38 -35 -29 -26 -17
0 -18 -2 -34 -31 -26 -24 -16
3 -17 -6 -34 -30 -25 -23 -15
6 -16 -10 -33 -29 -23 -21 -13
9 -15 -13 -32 -28 -22 -20 -12
12 -13 -17 -31 -26 -21 -19 -11
15 -12 -20 -30 -25 -19 -17 -9
16 -12 -22 -30 -25 -18 -16 -8
17 -11 -24 -30 -24 -16 -15 -7
18 -10 -25 -30 -23 -15 -14 -6
19 -9 -27 -30 -22 -14 -12 -5
20 -8 -29 -30 -21 -12 -11 -4
20 -8 -29 -30 -21 -12 -10 -4
21 -7 -30 -30 -21 -11 -9 -3
21 -7 -31 -30 -20 -10 -8 -2
22 -6 -32 -30 -20 -9 -7 0
23 -5 -33 -31 -19 -8 -6 1
23 -5 -35 -31 -19 -7 -5 1
24 -5 -38 -31 -18 -6 -4 1
25 -4 -40 -31 -17 -5 -3 1
26 -4 -44 -31 -16 -3 -2 1
27 -3 -46 -31 -15 -2 0 1
28 -2 -47 -31 -15 0 1 3
29 0 -49 -31 -14 2 3 5
30 1 -51 -31 -13 3 4 6
32 3 -52 -31 -12 4 5 8
33 4 -54 -30 -11 6 7 10
34 5 -56 -30 -10 9 9 11
36 6 -58 -30 -8 12 12 13
37 7 -61 -29 -6 15 14 15
38 9 -63 -29 -5 17 17 16
40 10 -65 -28 -3 20 19 18
42 10 -68 -28 -2 22 21 19
44 10 -71 -28 0 24 23 20
45 11 -74 -28 1 26 25 21
46 11 -76 -28 2 28 27 23
48 12 -79 -28 3 30 29 24
52 15 -82 -28 5 33 31 26
56 18 -87 -28 6 35 34 28
60 20 -90 -27 8 38 36 30
63 23 -93 -27 10 40 39 32
67 26 -96 -26 12 44 42 34
67 27 -99 -27 13 46 45 36
67 28 -102 -28 14 48 47 38
67 29 -105 -29 15 51 50 42
67 30 -108 -31 16 53 52 44
67 31 -111 -32 17 55 55 46
69 32 -114 -31 19 58 57 47
70 33 -117 -29 20 60 58 48
72 34 -119 -28 22 63 60 49
74 36 -122 -27 24 65 62 51
76 37 -126 -25 26 68 64 52
77 38 -128 -25 26 69 66 53
78 40 -131 -26 27 71 68 55
79 42 -133 -27 27 72 71 57
81 43 -136 -28 28 73 73 58
82 45 -138 -29 29 75 75 60
84 45 -140 -29 30 75 75 60
85 46 -142 -29 31 75 75 60
86 46 -145 -29 32 76 75 60
87 47 -147 -29 33 76 75 60
88 48 -149 -28 34 77 75 60
88 49 -149 -28 34 77 75 60
88 50 -149 -27 34 77 75 60
87 51 -149 -27 34 78 76 61
87 52 -149 -26 34 78 76 61
86 53 -148 -25 34 79 77 62
86 53 -147 -25 34 77 75 61
85 53 -145 -25 34 75 73 60
84 52 -144 -24 33 73 70 59
82 52 -143 -24 33 71 68 57
81 51 -141 -23 32 69 66 56
80 50 -137 -23 31 67 64 54
79 48 -134 -23 29 64 61 53
78 46 -131 -22 28 62 59 51
76 45 -127 -22 27 59 56 49
75 43 -123 -21 25 57 54 47
72 40 -117 -20 24 54 50 43
69 37 -112 -19 23 51 47 39
65 35 -107 -18 22 47 43 36
62 32 -102 -16 20 44 38 32
59 30 -97 -15 19 40 35 29
59 30 -93 -14 19 39 33 28
58 29 -89 -13 19 37 32 26
57 29 -85 -12 19 35 30 24
56 28 -80 -10 19 34 28 23
55 27 -76 -9 19 32 26 21
52 25 -70 -9 17 29 23 18
50 24 -65 -9 16 26 20 15
47 22 -60 -8 14 22 16 13
45 20 -55 -8 12 19 13 10
42 18 -50 -7 10 16 10 7
42 17 -45 -7 9 15 9 6
42 16 -39 -7 8 13 8 4
40 15 -34 -6 7 11 7 3
40 14 -30 -6 6 10 6 2
39 13 -25 -5 5 8 4 0
37 11 -23 -5 5 6 2 -2
35 10 -20 -4 4 5 0 -4
33 8 -18 -3 4 3 -3 -5
31 6 -16 -2 3 1 -6 -6
29 4 -13 0 2 -2 -8 -8
29 4 -11 0 1 -2 -8 -8
28 3 -10 0 0 -3 -8 -8
27 3 -8 -2 -2 -3 -9 -9
26 2 -6 -2 -3 -4 -9 -9
25 1 -4 -3 -4 -5 -10 -10
25 1 -4 -3 -5 -6 -11 -11
25 0 -3 -3 -7 -8 -13 -12
24 0 -3 -3 -9 -9 -14 -13
24 -2 -2 -3 -10 -10 -15 -14
23 -3 0 -3 -12 -12 -17 -16
23 -3 0 -3 -12 -12 -17 -16
23 -3 0 -4 -12 -12 -17 -16
23 -3 0 -4 -13 -13 -18 -16
23 -3 0 -5 -13 -13 -18 -16
23 -3 0 -6 -14 -14 -19 -16
23 -3 0 -6 -14 -15 -19 -16
23 -3 0 -7 -15 -17 -20 -17
23 -4 0 -8 -16 -18 -21 -18
23 -4 0 -9 -17 -19 -22 -19
22 -5 0 -10 -18 -21 -23 -20
22 -5 0 -10 -18 -21 -23 -20
21 -5 0 -10 -18 -21 -23 -20
21 -5 0 -10 -18 -21 -23 -20
20 -5 0 -10 -18 -21 -23 -20
19 -6 -2 -10 -19 -21 -22 -20
20 -6 -2 -10 -19 -21 -22 -20
21 -6 -2 -10 -19 -21 -22 -20
22 -6 -2 -10 -19 -21 -22 -20
23 -6 -2 -10 -19 -21 -22 -20
24 -5 -2 -9 -19 -21 -21 -21
24 -5 -3 -10 -19 -21 -21 -21
24 -5 -4 -11 -20 -22 -21 -22
25 -5 -5 -12 -21 -22 -22 -22
25 -5 -6 -13 -22 -23 -22 -23
26 -5 -8 -15 -23 -24 -23 -24
26 -5 -7 -15 -23 -24 -23 -24
26 -5 -6 -15 -22 -24 -23 -24
26 -5 -5 -14 -22 -24 -23 -24
26 -5 -4 -14 -21 -24 -23 -24
26 -5 -2 -13 -20 -23 -24 -24
26 -5 -2 -13 -20 -23 -23 -24
26 -5 -3 -13 -20 -23 -22 -23
26 -5 -3 -13 -20 -22 -21 -23
26 -5 -4 -13 -20 -22 -20 -22
26 -6 -5 -13 -19 -21 -19 -21
26 -6 -5 -13 -19 -21 -19 -21
26 -6 -6 -13 -20 -22 -20 -21
26 -5 -6 -13 -21 -22 -21 -21
26 -5 -7 -13 -22 -23 -22 -21
27 -4 -8 -13 -23 -24 -23 -22
27 -4 -8 -13 -23 -24 -23 -22
27 -4 -8 -13 -23 -24 -23 -22
27 -4 -8 -13 -23 -24 -23 -22
27 -4 -8 -13 -23 -24 -23 -22
28 -4 -8 -13 -22 -23 -22 -21
28 -4 -8 -13 -22 -23 -22 -21
28 -4 -8 -13 -22 -23 -23 -22
28 -4 -8 -13 -23 -23 -23 -23
28 -4 -8 -13 -23 -23 -24 -24
29 -5 -7 -14 -24 -24 -25 -25
29 -5 -7 -14 -24 -24 -25 -25
29 -5 -7 -14 -24 -24 -25 -25
29 -5 -7 -14 -24 -24 -24 -25
29 -5 -7 -14 -24 -24 -24 -25
28 -5 -7 -14 -23 -23 -23 -24
28 -5 -7 -14 -23 -23 -23 -24
28 -5 -7 -14 -23 -23 -23 -24
29 -6 -8 -14 -24 -24 -24 -24
29 -6 -8 -14 -24 -24 -24 -24
30 -7 -9 -15 -25 -25 -25 -25
30 -7 -9 -16 -25 -25 -25 -25
31 -7 -9 -17 -25 -25 -25 -25
31 -6 -10 -18 -26 -25 -25 -25
32 -6 -10 -19 -26 -25 -25 -25
33 -5 -11 -20 -27 -26 -25 -26
33 -5 -11 -20 -27 -26 -25 -26
33 -5 -11 -20 -27 -26 -26 -26
32 -6 -12 -20 -27 -27 -26 -26
32 -6 -12 -20 -27 -27 -27 -26
31 -7 -13 -19 -28 -28 -28 -27
31 -7 -13 -19 -28 -28 -28 -27
32 -7 -12 -19 -28 -28 -28 -27
32 -7 -11 -19 -28 -28 -28 -27
33 -7 -10 -19 -28 -28 -28 -27
34 -6 -9 -20 -28 -27 -27 -28
34 -6 -9 -20 -28 -27 -27 -28
34 -6 -10 -20 -29 -27 -28 -29
33 -6 -10 -20 -29 -28 -29 -30
33 -6 -11 -20 -30 -28 -30 -31
32 -7 -12 -21 -31 -29 -31 -32
33 -7 -12 -21 -31 -29 -31 -32
34 -7 -12 -21 -31 -29 -31 -32
35 -8 -13 -22 -31 -30 -31 -32
36 -8 -13 -22 -31 -30 -31 -32
38 -9 -14 -23 -32 -31 -30 -31
37 -9 -14 -23 -32 -31 -30 -31
36 -9 -14 -23 -32 -31 -30 -31
35 -9 -14 -22 -33 -31 -30 -31
34 -9 -14 -22 -33 -31 -30 -31
33 -10 -13 -21 -34 -31 -31 -32
33 -10 -13 -21 -34 -31 -31 -32
33 -10 -13 -22 -34 -31 -31 -32
33 -10 -13 -22 -34 -32 -31 -32
33 -10 -13 -23 -34 -32 -31 -32
33 -11 -14 -24 -34 -33 -31 -32
33 -11 -14 -24 -34 -33 -31 -32
33 -11 -14 -24 -34 -33 -31 -32
33 -10 -13 -24 -34 -32 -30 -32
33 -10 -13 -24 -34 -32 -30 -32
33 -9 -12 -23 -33 -31 -29 -31
33 -9 -12 -23 -33 -31 -29 -31
33 -9 -12 -23 -34 -32 -30 -31
33 -9 -13 -24 -34 -32 -30 -31
33 -9 -13 -24 -35 -33 -31 -31
34 -10 -14 -25 -36 -34 -32 -32
34 -10 -14 -25 -36 -34 -33 -32
34 -10 -15 -25 -36 -34 -34 -33
33 -10 -15 -26 -37 -35 -35 -34
33 -10 -16 -26 -37 -35 -36 -35
32 -10 -17 -27 -38 -36 -37 -36
32 -9 -15 -27 -37 -35 -36 -35
32 -8 -13 -26 -36 -34 -34 -34
32 -7 -11 -25 -34 -33 -33 -32
32 -6 -9 -24 -33 -32 -31 -31
32 -5 -7 -23 -31 -30 -29 -29
32 -2 -6 -22 -31 -29 -29 -28
33 2 -5 -21 -30 -28 -29 -27
34 5 -4 -20 -30 -27 -28 -26
35 8 -3 -19 -29 -26 -28 -25
36 11 -2 -17 -28 -24 -27 -24
36 11 -2 -17 -28 -24 -27 -24
35 11 -2 -17 -27 -24 -27 -24
35 11 0 -17 -27 -24 -26 -24
34 11 0 -17 -26 -24 -26 -24
33 10 1 -17 -25 -24 -25 -24
33 11 1 -17 -25 -24 -25 -24
34 12 1 -17 -24 -24 -25 -24
35 13 1 -16 -24 -23 -24 -24
36 14 1 -16 -23 -23 -24 -24
37 16 1 -15 -22 -22 -23 -24
37 16 -2 -16 -22 -22 -23 -24
36 16 -4 -17 -22 -22 -23 -23
36 16 -6 -18 -23 -22 -23 -22
35 16 -8 -19 -23 -22 -23 -21
34 15 -10 -21 -24 -22 -23 -20
34 15 -11 -21 -24 -22 -23 -20
35 16 -12 -22 -24 -22 -22 -20
36 17 -14 -22 -25 -22 -22 -19
37 18 -15 -23 -25 -22 -21 -19
38 19 -17 -24 -26 -21 -20 -18
39 19 -18 -26 -27 -22 -20 -18
42 18 -20 -28 -29 -23 -21 -18
44 18 -22 -31 -31 -24 -22 -18
46 17 -24 -33 -33 -25 -23 -18
48 16 -26 -36 -35 -27 -24 -17
48 15 -26 -35 -35 -27 -24 -17
47 13 -26 -34 -35 -27 -24 -17
47 12 -26 -33 -34 -27 -24 -17
46 10 -26 -32 -34 -27 -24 -17
45 8 -25 -30 -33 -27 -23 -18
43 7 -23 -29 -33 -26 -23 -18
39 6 -21 -28 -32 -25 -22 -17
37 4 -19 -27 -31 -24 -22 -16
34 3 -17 -26 -30 -23 -21 -15
31 1 -14 -25 -29 -22 -20 -14
25 -2 -14 -25 -29 -22 -20 -14
18 -5 -13 -25 -29 -23 -20 -15
12 -8 -12 -25 -29 -23 -20 -15
5 -11 -11 -25 -29 -24 -20 -16
-3 -14 -10 -24 -30 -25 -21 -17
-3 -14 -10 -24 -30 -25 -21 -17
-3 -15 -9 -24 -30 -25 -22 -17
-4 -15 -8 -24 -30 -25 -22 -17
-4 -16 -7 -24 -30 -25 -23 -17
-5 -17 -6 -23 -31 -25 -24 -18
-6 -18 -6 -23 -31 -25 -24 -18
-7 -19 -6 -23 -31 -25 -24 -18
-9 -21 -5 -23 -31 -26 -25 -18
-10 -22 -5 -23 -31 -26 -25 -18
-12 -24 -4 -24 -32 -27 -26 -19
-12 -24 -4 -24 -32 -27 -26 -19
-12 -24 -4 -24 -32 -27 -26 -19
-12 -24 -4 -24 -32 -27 -25 -19
-12 -24 -4 -24 -32 -27 -25 -19
-13 -24 -5 -23 -31 -27 -24 -18
-12 -23 -5 -23 -31 -27 -24 -18
-11 -22 -4 -22 -30 -26 -24 -18
-9 -21 -3 -22 -30 -25 -24 -18
-8 -20 -2 -21 -29 -24 -24 -18
-6 -18 0 -20 -28 -23 -24 -17
-7 -19 0 -20 -28 -23 -24 -17
-9 -20 0 -21 -28 -23 -24 -17
-10 -21 0 -21 -28 -24 -25 -17
-12 -22 0 -22 -28 -24 -25 -17
-14 -23 -2 -23 -29 -25 -26 -18
-14 -23 -2 -22 -29 -25 -27 -18
-14 -23 0 -21 -29 -26 -28 -19
-13 -23 0 -19 -29 -27 -29 -20
-13 -23 1 -18 -29 -28 -30 -21
-12 -24 2 -16 -29 -29 -31 -22
-15 -23 13 -8 -23 -26 -31 -22
-18 -22 24 2 -16 -22 -31 -22
-22 -20 35 11 -10 -18 -30 -22
-25 -19 47 20 -3 -14 -30 -22
-28 -18 58 28 4 -11 -30 -22
-20 -13 59 46 26 15 -11 -11
-11 -9 60 63 49 40 9 2
-2 -5 61 80 71 66 28 14
8 0 62 98 94 92 48 26
17 4 63 115 115 116 66 37
34 20 61 147 159 161 100 61
52 35 57 178 202 207 135 85
69 52 53 209 246 253 169 107
87 67 49 240 289 298 202 131
103 82 46 271 334 343 236 153
107 85 35 269 335 343 239 157
111 87 25 266 336 341 242 161
115 88 15 263 336 339 245 165
119 90 5 260 337 337 248 170
122 91 -5 257 337 336 251 174
103 73 0 202 263 257 201 146
81 55 5 148 187 178 150 116
60 36 11 94 111 99 99 86
39 17 16 39 34 19 48 56
18 -2 21 -15 -41 -60 -4 26
8 -12 37 -18 -55 -74 -20 13
-3 -21 53 -19 -66 -87 -35 -2
-13 -30 68 -21 -78 -99 -52 -15
-23 -40 85 -22 -91 -112 -68 -28
-33 -50 100 -23 -102 -124 -83 -41
-39 -52 113 -20 -100 -124 -87 -47
-45 -54 128 -15 -97 -123 -90 -51
-51 -55 141 -11 -94 -122 -93 -55
-56 -57 154 -6 -91 -121 -96 -59
-61 -58 168 -2 -88 -120 -99 -63
-67 -58 180 0 -85 -115 -100 -64
-72 -56 192 -2 -81 -110 -99 -64
-77 -54 204 -3 -78 -106 -99 -65
-82 -52 216 -4 -75 -101 -98 -65
-88 -50 228 -4 -73 -97 -98 -65
-90 -49 234 -14 -75 -96 -97 -66
-92 -49 240 -24 -79 -97 -98 -66
-94 -49 246 -34 -83 -98 -99 -67
-96 -49 253 -44 -88 -99 -100 -67
-97 -49 259 -54 -91 -100 -100 -67
-100 -51 261 -59 -93 -101 -101 -68
-103 -52 263 -63 -94 -101 -101 -68
-105 -53 265 -68 -95 -102 -101 -69
-108 -54 267 -72 -96 -102 -101 -69
-110 -55 268 -76 -97 -102 -101 -69
-107 -56 256 -77 -98 -100 -99 -68
-102 -55 241 -77 -97 -96 -95 -65
-97 -54 227 -77 -96 -93 -92 -63
-93 -53 213 -77 -95 -89 -88 -60
-88 -53 198 -77 -94 -86 -85 -58
-80 -49 174 -77 -91 -81 -80 -55
-73 -45 148 -76 -88 -77 -76 -52
-66 -40 123 -74 -86 -73 -72 -49
-59 -36 98 -73 -82 -69 -68 -46
-52 -33 73 -72 -80 -65 -64 -43
-45 -30 58 -67 -74 -59 -59 -38
-38 -28 45 -63 -69 -54 -54 -34
-32 -25 30 -58 -64 -49 -49 -30
-25 -23 16 -53 -58 -43 -45 -26
-19 -21 2 -49 -53 -37 -39 -23
-16 -20 -2 -44 -48 -32 -35 -20
-14 -20 -4 -37 -43 -28 -32 -18
-11 -20 -6 -32 -37 -24 -29 -16
-9 -20 -8 -27 -33 -19 -26 -14
-7 -20 -10 -22 -28 -15 -23 -12
-4 -18 -13 -21 -26 -13 -21 -11
0 -16 -16 -21 -25 -11 -20 -10
2 -14 -18 -20 -24 -10 -18 -9
5 -12 -21 -20 -23 -8 -17 -8
7 -11 -23 -20 -22 -7 -16 -7
9 -10 -26 -19 -21 -6 -15 -6
10 -10 -28 -19 -21 -5 -15 -6
11 -10 -31 -19 -20 -4 -15 -6
12 -10 -33 -19 -20 -3 -15 -6
13 -10 -35 -19 -20 -3 -15 -6
15 -10 -38 -18 -19 -2 -15 -6
17 -9 -40 -18 -19 -2 -14 -5
19 -7 -43 -18 -19 0 -13 -5
21 -6 -45 -18 -19 0 -12 -4
23 -5 -47 -18 -19 0 -11 -4
24 -3 -48 -18 -17 2 -9 -2
25 -2 -49 -17 -16 4 -7 0
26 0 -50 -16 -14 6 -6 2
27 1 -51 -15 -13 8 -4 3
28 2 -52 -14 -12 10 -3 4
30 3 -54 -13 -11 11 0 5
32 3 -56 -13 -11 12 1 6
34 4 -58 -13 -10 13 2 7
36 4 -60 -13 -10 14 3 8
37 4 -62 -13 -10 14 4 8
39 6 -64 -14 -8 16 6 9
42 8 -66 -14 -6 18 8 10
44 9 -68 -14 -5 20 10 11
46 11 -70 -14 -3 22 12 12
47 12 -71 -14 -2 24 13 13
49 13 -74 -13 1 27 16 15
50 14 -78 -12 3 29 18 17
52 14 -81 -12 5 31 20 19
53 15 -85 -11 7 33 22 21
54 15 -88 -11 8 35 24 23
55 17 -91 -10 10 38 27 25
55 18 -94 -10 12 42 29 27
56 20 -97 -10 14 45 32 28
56 21 -100 -10 16 48 35 30
56 22 -103 -10 17 51 37 31
59 24 -106 -10 19 54 40 34
61 26 -108 -9 21 57 43 36
63 27 -110 -8 23 60 45 38
66 29 -113 -7 25 62 48 40
68 30 -115 -6 26 65 50 43
70 32 -119 -5 28 67 52 45
71 33 -122 -4 29 69 54 46
73 35 -127 -4 31 71 56 48
74 36 -131 -3 32 73 58 49
75 37 -134 -3 33 75 59 50
76 38 -136 -2 35 77 61 52
76 39 -138 -2 37 80 64 54
76 40 -139 -2 38 82 66 56
76 42 -141 -2 40 85 68 58
76 43 -142 -2 42 87 70 60
77 45 -143 0 43 89 71 62
78 48 -144 1 44 90 72 63
79 50 -145 1 45 91 73 64
80 52 -146 2 46 92 74 65
80 54 -146 2 47 93 74 66
81 55 -148 3 48 94 75 67
80 54 -150 3 48 93 75 67
79 54 -151 3 48 93 75 66
78 53 -153 3 48 92 75 66
78 53 -154 3 48 92 75 66
77 52 -154 4 48 90 73 65
77 52 -151 5 48 89 71 64
77 52 -149 5 48 88 70 63
77 52 -147 6 48 87 68 62
77 52 -145 6 48 86 67 61
75 51 -141 7 46 82 65 60
74 50 -137 7 45 80 63 59
72 49 -133 7 43 77 61 58
71 48 -129 7 42 74 60 57
70 47 -124 7 40 72 58 56
66 45 -120 8 39 70 54 54
63 44 -116 9 38 68 51 51
60 42 -111 10 37 66 48 49
56 40 -107 11 36 64 44 47
53 39 -103 12 36 62 40 45
51 37 -98 14 35 59 37 42
50 36 -92 16 34 56 35 39
49 35 -86 17 34 53 33 37
48 34 -80 19 33 51 30 34
47 33 -74 20 33 48 28 32
44 30 -69 21 32 46 25 29
39 28 -65 21 31 43 22 27
36 26 -60 20 30 40 19 24
33 23 -56 20 29 38 17 21
30 21 -51 20 29 36 14 19
28 20 -46 19 27 34 12 18
26 19 -39 20 26 33 11 17
24 18 -33 20 25 31 10 17
23 17 -28 21 24 30 9 16
21 16 -22 21 23 29 8 16
19 13 -20 22 21 27 6 14
16 11 -17 22 20 25 4 13
14 8 -15 22 19 23 2 11
12 5 -13 22 18 21 0 9
10 3 -11 22 17 19 -3 8
9 2 -9 21 16 18 -4 7
8 3 -6 20 15 17 -5 7
8 4 -4 19 14 16 -6 6
7 5 -2 18 13 15 -7 6
7 5 1 17 12 14 -7 6
6 6 3 16 11 13 -8 5
5 5 4 16 10 12 -9 4
4 5 6 15 9 11 -10 3
3 4 8 15 8 10 -11 2
3 4 9 15 7 9 -11 2
2 3 10 13 6 8 -12 1
2 2 10 12 5 7 -12 1
1 1 9 10 5 6 -12 1
1 0 9 8 4 5 -12 1
1 -2 9 7 4 5 -12 1
0 -3 8 6 2 4 -14 0
-2 -3 8 5 1 3 -15 -2
-3 -3 8 5 0 2 -16 -2
-4 -3 8 4 -2 1 -17 -3
-4 -3 8 4 -3 0 -18 -3
-4 -3 7 3 -4 -2 -19 -4
-3 -3 6 2 -4 -2 -19 -4
0 -3 6 2 -5 -2 -19 -5
2 -3 5 1 -5 -2 -19 -5
3 -3 5 1 -5 -2 -19 -5
4 -4 4 0 -6 -3 -19 -6
4 -4 4 0 -7 -4 -20 -6
4 -3 4 -2 -7 -4 -20 -6
4 -3 4 -2 -8 -5 -21 -6
4 -3 4 -2 -8 -5 -21 -6
5 -2 4 -3 -9 -6 -22 -6
6 -2 3 -4 -9 -6 -22 -6
7 -2 3 -4 -10 -7 -22 -7
9 -2 2 -5 -10 -7 -22 -7
10 -2 2 -5 -10 -7 -22 -7
11 -3 1 -6 -11 -8 -22 -8
11 -3 1 -6 -11 -8 -22 -8
11 -3 2 -5 -11 -8 -22 -8
11 -3 2 -5 -11 -8 -22 -8
11 -3 2 -5 -11 -8 -22 -8
10 -4 3 -4 -11 -9 -23 -8
10 -4 3 -4 -11 -9 -23 -8
10 -4 2 -5 -11 -9 -22 -8
10 -4 2 -5 -11 -9 -22 -8
10 -4 2 -5 -11 -9 -22 -8
10 -5 1 -6 -12 -10 -21 -7
10 -5 1 -5 -12 -10 -21 -7
10 -4 1 -5 -11 -10 -21 -7
10 -4 1 -4 -11 -10 -21 -7
10 -4 1 -4 -11 -10 -21 -7
11 -3 0 -3 -10 -9 -22 -8
11 0 0 -3 -10 -9 -21 -7
11 1 0 -3 -10 -9 -21 -7
11 2 0 -3 -10 -9 -20 -6
11 3 0 -3 -10 -9 -20 -6
10 4 1 -4 -10 -8 -19 -5
9 2 0 -4 -10 -8 -19 -5
8 1 -2 -4 -10 -8 -19 -5
7 0 -3 -4 -10 -8 -19 -5
6 -2 -4 -4 -10 -8 -19 -5
5 -3 -4 -5 -9 -9 -20 -5
4 -3 -3 -4 -10 -9 -20 -5
4 -3 0 -4 -10 -9 -19 -4
3 -3 2 -3 -11 -9 -19 -4
3 -3 3 -3 -11 -9 -19 -4
2 -4 4 -3 -12 -8 -18 -3
2 -4 3 -4 -12 -8 -19 -4
2 -4 3 -5 -13 -9 -19 -4
2 -4 2 -7 -13 -9 -20 -5
2 -4 2 -8 -13 -9 -20 -5
3 -3 1 -9 -14 -10 -21 -6
4 -2 2 -9 -14 -10 -21 -6
5 0 3 -9 -14 -10 -21 -6
6 1 4 -9 -14 -10 -21 -6
7 1 4 -9 -14 -10 -21 -6
7 2 5 -9 -13 -11 -22 -7
6 0 4 -8 -13 -11 -22 -7
5 -2 3 -8 -13 -11 -22 -7
3 -3 2 -7 -13 -11 -22 -7
2 -4 2 -7 -13 -11 -22 -7
0 -5 1 -6 -13 -12 -22 -8
-2 -5 1 -7 -13 -12 -22 -8
-3 -6 1 -8 -14 -12 -21 -7
-5 -6 1 -9 -14 -12 -21 -7
-6 -6 1 -9 -14 -12 -21 -7
-7 -7 1 -10 -15 -11 -20 -6
-5 -6 1 -9 -15 -11 -20 -6
-4 -5 1 -9 -15 -12 -20 -6
-3 -4 1 -8 -15 -12 -20 -6
-2 -4 1 -8 -15 -12 -20 -6
0 -3 1 -7 -14 -13 -21 -7
-2 -4 1 -8 -15 -14 -21 -7
-3 -5 1 -9 -15 -15 -22 -7
-4 -6 1 -10 -16 -16 -22 -7
-4 -6 1 -11 -16 -16 -22 -7
-5 -7 0 -12 -17 -17 -23 -8
-5 -7 0 -12 -17 -17 -23 -8
-6 -7 0 -11 -17 -17 -23 -9
-6 -7 0 -11 -17 -17 -23 -9
-6 -7 0 -11 -17 -17 -23 -9
-7 -8 0 -10 -18 -18 -24 -10
-7 -8 2 -10 -18 -18 -24 -10
-7 -8 3 -10 -18 -18 -23 -9
-7 -8 4 -10 -18 -18 -23 -9
-7 -8 5 -10 -18 -18 -23 -9
-6 -7 6 -10 -17 -18 -22 -8
-7 -7 5 -10 -17 -18 -23 -8
-8 -8 5 -10 -18 -18 -23 -9
-9 -8 4 -10 -18 -18 -24 -9
-10 -8 4 -10 -18 -18 -24 -9
-11 -9 3 -11 -19 -18 -25 -10
-10 -7 4 -12 -19 -18 -25 -10
-10 -6 4 -12 -19 -19 -25 -9
-9 -5 5 -13 -19 -19 -25 -9
-9 -4 5 -13 -19 -19 -25 -9
-8 -3 6 -14 -20 -20 -24 -8
-8 -4 5 -14 -20 -20 -24 -8
-8 -5 5 -14 -20 -20 -24 -9
-8 -6 4 -14 -20 -20 -24 -9
-8 -7 4 -14 -20 -20 -24 -9
-9 -8 3 -13 -19 -19 -24 -10
-10 -8 4 -12 -18 -18 -23 -9
-11 -7 4 -11 -18 -17 -22 -8
-12 -7 5 -10 -17 -16 -20 -7
-12 -7 5 -10 -17 -16 -19 -6
-13 -6 6 -9 -16 -15 -18 -5
-13 -5 6 -9 -15 -15 -18 -5
-12 -4 6 -8 -15 -15 -18 -5
-12 -3 6 -8 -14 -15 -18 -5
-12 -3 6 -8 -14 -15 -18 -5
-11 0 7 -7 -13 -14 -19 -6
-10 2 8 -6 -12 -13 -18 -5
-9 5 8 -5 -11 -13 -18 -5
-8 7 9 -4 -10 -12 -17 -4
-8 9 9 -4 -10 -12 -17 -4
-7 10 11 -3 -9 -11 -16 -3
-8 10 13 -3 -9 -11 -16 -3
-9 10 14 -3 -9 -11 -16 -3
-10 10 16 -3 -9 -11 -16 -3
-11 10 18 -3 -9 -11 -16 -3
-12 10 19 -3 -9 -11 -16 -4
-12 11 19 -3 -9 -11 -16 -3
-12 11 19 -3 -8 -11 -15 -2
-12 12 19 -3 -8 -11 -15 -2
-12 12 19 -3 -8 -11 -15 0
-12 13 18 -3 -7 -10 -14 1
-11 14 16 -3 -7 -10 -14 1
-10 15 15 -2 -6 -9 -13 2
-9 16 13 -2 -6 -9 -13 2
-8 17 11 -2 -6 -9 -13 2
-7 18 10 0 -5 -8 -12 3
-6 19 8 -2 -5 -8 -12 3
-5 20 7 -3 -6 -8 -11 4
-5 21 6 -4 -6 -8 -11 4
-4 22 5 -5 -6 -8 -11 4
-3 23 2 -6 -8 -9 -10 5
-2 21 -2 -7 -9 -10 -10 5
-2 20 -5 -8 -10 -11 -11 5
0 19 -8 -9 -12 -12 -11 5
0 18 -11 -10 -13 -13 -11 5
1 17 -12 -12 -14 -14 -12 4
2 16 -11 -13 -15 -14 -12 4
3 15 -11 -14 -16 -15 -12 4
3 14 -10 -16 -16 -15 -12 4
4 13 -10 -17 -17 -15 -12 4
4 11 -8 -17 -18 -16 -11 3
3 10 -7 -16 -18 -16 -11 3
1 9 -6 -14 -17 -16 -11 3
0 7 -4 -13 -17 -16 -11 3
-3 6 -3 -11 -17 -16 -11 3
-5 4 -2 -11 -16 -17 -11 1
-7 2 -2 -12 -17 -18 -13 -2
-9 0 -2 -13 -18 -20 -14 -4
-12 -4 -2 -15 -19 -21 -16 -7
-14 -6 -2 -16 -20 -23 -18 -9
-15 -8 -3 -17 -21 -24 -20 -10
-15 -9 -4 -18 -23 -26 -21 -12
-14 -10 -5 -19 -24 -27 -22 -13
-14 -12 -6 -19 -25 -28 -24 -14
-14 -13 -7 -20 -26 -29 -25 -15
-13 -14 -8 -21 -27 -30 -26 -16
-14 -15 -6 -21 -27 -30 -26 -16
-15 -16 -5 -21 -27 -30 -25 -17
-16 -17 -4 -21 -27 -30 -25 -17
-17 -18 -3 -21 -27 -30 -25 -17
-18 -19 -2 -20 -28 -30 -24 -18
-17 -19 -3 -20 -28 -30 -24 -18
-16 -19 -4 -20 -28 -31 -24 -18
-15 -19 -4 -20 -28 -31 -24 -18
-14 -19 -5 -20 -28 -31 -24 -18
-13 -19 -6 -20 -28 -32 -25 -18
-13 -19 -6 -20 -28 -32 -25 -18
-13 -18 -5 -20 -28 -32 -25 -18
-13 -18 -5 -20 -28 -32 -25 -18
-13 -18 -5 -20 -28 -32 -25 -18
-13 -17 -4 -19 -27 -31 -25 -18
-15 -18 -4 -18 -27 -31 -25 -18
-16 -18 -3 -17 -27 -31 -26 -18
-17 -19 -3 -17 -27 -31 -26 -18
-18 -19 -3 -16 -27 -31 -26 -18
-19 -20 -2 -15 -27 -31 -27 -19
-18 -19 1 -16 -27 -31 -27 -19
-17 -19 2 -17 -27 -32 -28 -20
-16 -18 3 -18 -27 -32 -28 -20
-15 -18 4 -19 -27 -32 -28 -20
-17 -17 12 -15 -23 -33 -29 -21
-22 -17 23 -6 -19 -31 -30 -22
-26 -17 34 3 -14 -30 -31 -23
-31 -17 45 12 -9 -29 -32 -24
-36 -17 56 20 -5 -28 -33 -25
-33 -16 60 33 11 -12 -24 -20
-24 -13 61 50 30 10 -8 -11
-16 -9 62 66 50 32 9 0
-7 -6 62 81 69 54 25 9
2 -3 63 98 89 76 42 19
17 10 63 125 123 113 69 36
35 24 60 156 165 156 102 59
53 39 57 188 207 199 136 81
71 54 54 221 250 242 169 103
90 69 51 253 292 285 201 126
101 76 44 265 310 303 218 138
109 80 34 269 318 308 227 145
116 85 25 273 326 313 236 152
125 89 16 277 335 319 244 160
133 93 6 280 343 324 254 168
122 84 3 245 298 277 225 152
103 65 3 191 227 204 178 126
82 48 3 137 156 132 131 99
62 29 3 82 86 59 84 71
43 12 3 28 16 -14 36 45
27 0 15 3 -21 -51 8 25
14 -11 31 -9 -41 -71 -13 10
1 -21 48 -21 -62 -92 -33 -6
-13 -31 64 -33 -81 -111 -54 -21
-26 -41 80 -46 -102 -132 -74 -37
-35 -48 96 -46 -107 -139 -83 -46
-41 -51 111 -37 -104 -138 -88 -52
-48 -55 127 -30 -101 -137 -92 -57
-54 -58 141 -23 -98 -137 -96 -62
-60 -61 156 -16 -95 -136 -100 -68
-65 -61 170 -13 -91 -132 -102 -70
-71 -58 182 -12 -87 -127 -100 -70
-76 -55 194 -11 -81 -121 -99 -71
-81 -52 206 -11 -77 -115 -98 -71
-88 -49 219 -10 -72 -110 -97 -71
-91 -47 228 -14 -72 -108 -96 -72
-94 -49 235 -23 -75 -108 -97 -72
-97 -50 242 -31 -79 -109 -97 -72
-100 -52 248 -39 -82 -109 -98 -72
-103 -53 256 -49 -86 -109 -98 -72
-104 -54 260 -55 -89 -110 -99 -72
-105 -54 261 -60 -91 -110 -99 -72
-106 -54 263 -66 -93 -111 -99 -73
-106 -54 265 -71 -96 -111 -99 -74
-107 -54 267 -77 -98 -111 -99 -74
-107 -54 265 -79 -99 -111 -99 -75
-105 -54 259 -79 -99 -110 -97 -73
-103 -53 253 -80 -98 -108 -95 -72
-101 -53 246 -81 -98 -106 -92 -70
-99 -53 240 -81 -98 -104 -90 -69
-94 -50 219 -81 -95 -100 -86 -66
-86 -46 189 -79 -92 -96 -81 -62
-78 -40 159 -77 -88 -91 -76 -58
-70 -36 130 -75 -85 -87 -72 -55
-63 -32 100 -73 -81 -81 -67 -51
-57 -29 78 -70 -76 -76 -62 -47
-51 -27 61 -66 -72 -71 -57 -44
-45 -25 43 -62 -67 -66 -52 -39
-38 -23 25 -59 -62 -61 -47 -35
-33 -21 8 -55 -57 -55 -41 -32
-29 -20 0 -50 -52 -50 -37 -29
-26 -19 -3 -45 -47 -46 -33 -26
-23 -18 -6 -39 -41 -40 -29 -24
-20 -18 -8 -34 -36 -35 -26 -21
-17 -17 -11 -29 -31 -30 -22 -18
-14 -16 -13 -27 -29 -28 -20 -17
-11 -15 -16 -26 -28 -27 -19 -17
-9 -14 -18 -25 -27 -26 -17 -16
-6 -13 -21 -24 -26 -25 -16 -15
-3 -12 -24 -23 -25 -24 -15 -15
-2 -11 -26 -22 -23 -22 -13 -14
-2 -9 -27 -21 -22 -20 -12 -12
0 -8 -29 -19 -20 -18 -10 -11
1 -6 -30 -18 -19 -16 -8 -9
1 -5 -32 -17 -17 -14 -6 -8
2 -4 -33 -16 -16 -13 -5 -7
2 -4 -35 -16 -15 -12 -4 -6
2 -3 -36 -16 -14 -10 -2 -5
2 -3 -38 -16 -13 -9 0 -4
2 -3 -39 -16 -12 -8 1 -3
1 -2 -41 -15 -11 -7 2 -2
2 -2 -43 -15 -11 -7 2 -2
4 -2 -45 -15 -11 -6 3 -2
5 -2 -47 -15 -11 -6 3 -2
6 -2 -49 -15 -11 -6 3 -2
7 0 -51 -14 -10 -4 5 0
9 0 -52 -14 -8 -2 6 1
10 1 -54 -13 -7 1 8 3
12 2 -55 -12 -5 3 10 4
13 2 -57 -12 -4 6 12 5
14 3 -59 -11 -3 8 14 6
16 4 -62 -9 -2 9 16 8
17 6 -65 -8 1 11 18 9
19 7 -68 -6 2 13 20 11
20 8 -70 -5 3 15 22 12
21 9 -73 -4 4 17 24 13
21 9 -75 -4 5 19 26 15
22 10 -78 -5 6 21 28 16
22 10 -80 -5 7 23 30 18
22 10 -83 -5 8 25 32 19
24 12 -86 -6 9 27 34 20
27 14 -89 -5 11 29 36 22
30 16 -91 -3 13 32 38 23
33 18 -94 -2 14 34 40 25
35 20 -96 0 16 37 43 26
38 21 -100 1 17 39 45 28
40 23 -103 1 19 43 48 30
43 24 -106 2 21 45 51 32
45 26 -110 2 22 48 54 34
47 27 -113 2 24 50 56 36
49 28 -116 3 25 52 58 37
50 29 -119 3 26 54 60 39
52 31 -122 3 27 56 62 40
54 32 -126 3 27 57 63 43
56 33 -129 3 28 59 65 44
58 35 -132 3 29 61 67 46
60 36 -135 3 31 63 69 47
62 38 -138 4 33 65 71 49
64 40 -141 5 34 67 73 51
67 43 -144 5 36 69 75 53
68 44 -146 6 37 70 76 54
68 44 -147 6 39 71 78 55
68 45 -148 7 40 73 80 56
68 46 -149 7 43 74 81 57
68 46 -150 7 44 75 84 58
68 47 -151 8 45 76 85 59
68 48 -151 9 46 76 85 59
68 49 -152 10 47 77 86 60
68 49 -153 11 48 78 86 61
68 50 -153 12 49 78 86 61
68 51 -154 13 50 79 86 62
68 51 -152 13 49 79 85 62
68 51 -151 13 48 78 82 61
68 51 -149 13 47 77 80 60
68 51 -148 13 46 77 78 60
66 51 -146 13 45 75 76 58
63 50 -142 13 45 74 74 56
61 48 -139 13 44 72 72 54
58 47 -136 13 44 70 70 52
56 46 -133 13 44 68 67 50
54 44 -129 14 43 66 65 48
53 42 -124 14 40 62 62 45
51 39 -120 15 38 59 59 42
50 37 -115 16 37 55 56 38
49 35 -111 16 35 52 53 36
47 34 -106 17 34 49 50 34
43 33 -101 18 34 47 48 33
39 32 -96 19 33 45 45 31
36 32 -90 20 33 43 43 30
33 31 -85 21 33 39 40 29
30 29 -78 22 32 37 37 27
26 26 -73 22 30 34 34 24
23 24 -68 23 29 32 31 22
20 21 -62 24 27 29 28 19
17 19 -57 24 26 27 26 17
15 17 -52 25 25 24 23 14
14 16 -48 25 24 22 20 12
13 15 -44 25 23 19 18 10
13 14 -39 25 22 17 15 8
12 13 -34 25 21 15 13 6
10 12 -30 24 20 13 11 5
8 11 -27 24 19 12 11 5
6 10 -23 24 18 11 10 4
4 10 -19 24 18 11 9 3
2 9 -15 24 17 10 9 3
1 8 -12 25 15 8 8 2
0 7 -10 24 14 7 7 2
-2 5 -8 23 12 5 5 1
-3 4 -6 22 10 3 4 0
-4 3 -3 21 8 1 3 0
-5 2 -2 20 7 0 2 -2
-6 2 1 20 7 -2 0 -4
-7 1 2 19 6 -3 -2 -5
-8 0 3 18 5 -3 -3 -6
-9 0 5 18 5 -4 -5 -8
-10 -2 6 17 4 -5 -6 -9
-10 -2 6 15 3 -6 -6 -9
-9 -3 6 13 1 -7 -6 -9
-9 -3 6 12 0 -7 -6 -9
-9 -3 6 10 -2 -8 -6 -9
-8 -4 5 9 -3 -9 -7 -10
-10 -4 5 9 -3 -9 -7 -10
-11 -5 6 9 -3 -9 -7 -10
-12 -5 7 9 -3 -9 -7 -10
-14 -5 7 9 -3 -9 -7 -10
-15 -6 8 9 -4 -10 -8 -11
-15 -6 8 9 -4 -10 -8 -11
-14 -6 7 9 -4 -10 -9 -11
-14 -6 7 9 -4 -10 -9 -11
-14 -6 7 9 -4 -10 -9 -11
-13 -6 6 9 -5 -11 -10 -12
-13 -6 6 9 -5 -11 -10 -12
-13 -6 6 9 -6 -12 -11 -12
-13 -6 6 9 -6 -12 -11 -12
-13 -6 6 9 -6 -12 -11 -12
-12 -7 5 8 -7 -13 -12 -12
-11 -7 5 8 -7 -13 -12 -12
-10 -7 4 8 -7 -13 -12 -12
-9 -7 4 8 -7 -13 -12 -12
-8 -7 4 8 -7 -13 -12 -12
-7 -7 3 8 -8 -13 -12 -13
-8 -8 3 7 -8 -13 -12 -13
-10 -9 3 6 -9 -13 -12 -12
-11 -9 3 5 -9 -13 -12 -12
-12 -10 3 4 -9 -13 -12 -12
-13 -11 3 3 -10 -14 -13 -11
-12 -9 4 3 -9 -14 -13 -11
-11 -7 5 4 -8 -13 -12 -11
-10 -5 6 5 -8 -13 -12 -11
-9 -3 7 5 -7 -13 -12 -11
-8 -2 8 6 -6 -12 -11 -11
-8 -3 7 6 -7 -12 -11 -11
-9 -4 5 6 -8 -13 -12 -12
-9 -5 4 6 -8 -13 -12 -13
-9 -6 3 6 -9 -13 -12 -13
-10 -7 2 6 -10 -14 -13 -14
-9 -7 3 6 -10 -14 -13 -14
-8 -7 4 7 -10 -13 -12 -13
-7 -7 5 7 -10 -12 -12 -13
-6 -7 6 7 -10 -12 -12 -13
-5 -7 7 8 -9 -11 -11 -12
-5 -6 7 7 -9 -12 -11 -12
-5 -5 6 5 -9 -13 -11 -12
-5 -5 6 4 -9 -13 -11 -12
-5 -4 6 3 -9 -14 -11 -12
-6 -3 5 2 -10 -15 -12 -12
-7 -4 5 2 -10 -15 -12 -12
-8 -5 4 2 -10 -14 -13 -13
-9 -5 3 2 -10 -13 -13 -13
-10 -6 3 2 -10 -13 -13 -13
-11 -7 2 3 -10 -12 -14 -14
-11 -7 2 3 -10 -12 -14 -14
-10 -6 2 2 -11 -12 -14 -14
-9 -6 2 2 -11 -12 -14 -14
-9 -6 2 2 -11 -12 -14 -14
-8 -5 1 1 -12 -13 -14 -15
-8 -5 1 1 -12 -13 -14 -15
-7 -5 1 0 -12 -14 -14 -15
-7 -5 1 -2 -12 -14 -14 -15
-7 -5 1 -2 -12 -14 -14 -15
-7 -6 2 -3 -12 -15 -15 -16
-9 -6 2 -2 -12 -15 -15 -16
-11 -6 3 0 -12 -14 -15 -15
-13 -6 4 0 -12 -14 -15 -15
-15 -6 4 1 -12 -14 -15 -15
-16 -7 5 2 -12 -13 -15 -14
-16 -7 5 2 -12 -13 -15 -14
-15 -8 5 2 -12 -13 -15 -14
-14 -9 5 1 -13 -14 -15 -15
-14 -9 5 1 -13 -14 -15 -15
-13 -10 4 0 -14 -15 -16 -16
-13 -10 4 0 -14 -15 -16 -16
-12 -10 3 0 -14 -16 -16 -16
-11 -10 2 -2 -15 -17 -17 -16
-11 -10 2 -2 -15 -17 -17 -16
-10 -10 1 -3 -16 -18 -18 -16
-10 -10 1 -4 -16 -18 -18 -16
-10 -10 1 -4 -16 -18 -19 -16
-10 -10 2 -5 -17 -18 -20 -17
-10 -10 2 -6 -17 -18 -20 -17
-9 -9 3 -7 -18 -19 -21 -18
-9 -9 4 -7 -18 -19 -21 -18
-10 -9 5 -6 -18 -19 -21 -18
-11 -9 6 -5 -18 -19 -21 -18
-11 -9 7 -5 -18 -19 -21 -18
-12 -10 8 -4 -18 -18 -20 -18
-10 -10 8 -5 -18 -18 -20 -18
-9 -10 8 -5 -19 -19 -20 -18
-7 -10 7 -6 -20 -20 -20 -19
-5 -10 7 -7 -20 -20 -20 -19
-4 -10 6 -8 -21 -21 -21 -20
-5 -10 6 -8 -21 -21 -21 -20
-6 -11 6 -9 -21 -21 -21 -20
-7 -12 7 -10 -21 -21 -21 -19
-8 -12 7 -10 -21 -21 -21 -19
-9 -13 8 -11 -22 -22 -21 -18
-9 -13 8 -11 -22 -22 -21 -18
-9 -13 8 -10 -22 -22 -21 -18
-9 -12 8 -9 -21 -21 -21 -18
-9 -12 8 -9 -21 -21 -21 -18
-10 -11 8 -8 -20 -20 -20 -18
-10 -11 6 -9 -20 -21 -21 -19
-9 -11 4 -9 -21 -21 -21 -20
-8 -11 2 -10 -22 -22 -22 -21
-8 -11 0 -11 -22 -23 -23 -22
-7 -12 -2 -12 -23 -24 -24 -23
-8 -12 1 -12 -23 -23 -23 -23
-9 -12 3 -11 -23 -23 -23 -23
-11 -12 5 -10 -22 -22 -22 -23
-12 -12 7 -10 -22 -21 -21 -23
-13 -12 8 -9 -21 -20 -20 -22
-13 -12 8 -9 -21 -20 -20 -21
-13 -12 8 -9 -21 -20 -20 -21
-13 -12 7 -9 -21 -20 -21 -20
-13 -12 7 -9 -21 -20 -21 -19
-12 -11 6 -10 -21 -20 -22 -18
-11 -9 7 -9 -20 -19 -21 -17
-10 -8 8 -8 -20 -19 -21 -16
-9 -6 10 -7 -19 -18 -20 -15
-8 -4 11 -6 -18 -17 -19 -14
-7 -2 12 -5 -17 -16 -18 -13
-7 1 13 -5 -16 -16 -18 -13
-7 3 14 -4 -15 -15 -18 -13
-6 6 16 -3 -13 -14 -17 -13
-6 8 17 -3 -12 -14 -17 -13
-5 10 18 -2 -11 -13 -16 -12
-5 10 19 -2 -11 -13 -16 -12
-5 10 19 -2 -11 -13 -16 -12
-5 9 20 -2 -11 -13 -16 -12
-5 9 21 -2 -11 -13 -16 -12
-4 8 22 0 -11 -12 -15 -12
-4 9 21 0 -11 -12 -15 -12
-3 9 21 0 -11 -12 -15 -12
-2 10 20 0 -11 -12 -15 -12
-2 11 19 0 -11 -12 -15 -12
0 12 18 1 -11 -13 -14 -11
0 12 16 0 -11 -13 -14 -11
0 12 15 0 -11 -13 -14 -10
-2 13 13 -2 -11 -12 -14 -9
-2 13 11 -3 -11 -12 -14 -9
-3 14 10 -4 -11 -11 -13 -8
0 15 8 -5 -12 -11 -13 -8
1 15 6 -6 -13 -11 -13 -8
3 16 4 -7 -14 -11 -13 -8
5 17 3 -8 -15 -11 -13 -8
6 18 1 -9 -16 -12 -13 -7
6 16 -2 -10 -16 -12 -13 -7
6 14 -4 -11 -17 -12 -13 -7
6 12 -6 -12 -18 -13 -12 -7
6 11 -8 -13 -18 -13 -12 -7
6 9 -10 -14 -19 -14 -11 -6
6 8 -8 -14 -19 -14 -11 -6
7 8 -7 -14 -19 -15 -11 -6
8 7 -5 -14 -20 -16 -12 -6
8 6 -3 -14 -20 -16 -12 -6
9 5 -2 -14 -21 -17 -13 -6
8 3 -2 -13 -21 -17 -13 -7
7 1 -2 -12 -21 -17 -13 -9
5 -2 -2 -10 -20 -17 -14 -10
4 -3 -2 -9 -20 -17 -14 -12
2 -5 -2 -8 -19 -18 -15 -13
0 -8 -2 -10 -21 -20 -17 -14
-4 -10 0 -12 -23 -21 -19 -16
