I II V1 V2 V3 V4 V5 V6
7 3 -4 -8 -20 -5 -3 13
7 3 -4 -8 -20 -5 -3 14
7 3 -4 -7 -19 -5 -3 16
6 3 -3 -6 -18 -5 -3 18
6 3 -3 -5 -17 -5 -3 20
6 3 -3 -5 -16 -5 -3 21
5 3 -3 -5 -16 -6 -3 20
6 4 -4 -6 -17 -6 -4 18
7 4 -5 -7 -18 -6 -4 16
8 5 -6 -8 -19 -6 -5 14
9 5 -7 -9 -20 -6 -5 12
9 6 -7 -10 -21 -5 -5 12
7 5 -6 -10 -20 -4 -3 14
6 5 -5 -9 -19 -2 0 15
4 4 -4 -9 -18 0 2 17
3 4 -3 -9 -17 1 3 18
2 3 -2 -7 -16 2 4 19
2 4 0 -6 -15 2 4 19
3 5 1 -4 -15 2 4 19
3 6 2 -3 -14 2 4 19
3 7 2 -2 -14 2 4 19
5 8 2 -2 -14 3 5 20
6 8 1 -4 -15 2 5 20
8 7 -2 -6 -16 1 4 20
9 7 -3 -8 -17 0 4 20
10 7 -4 -10 -18 -2 4 20
11 6 -5 -11 -19 -3 3 20
10 6 -5 -11 -19 -3 3 20
9 6 -4 -10 -19 -4 2 19
8 6 -4 -10 -19 -4 2 19
8 6 -4 -10 -19 -4 2 19
7 6 -3 -9 -20 -5 1 18
6 5 -4 -10 -21 -6 1 18
6 3 -4 -11 -22 -6 1 18
5 2 -5 -12 -23 -7 1 18
5 1 -5 -13 -23 -7 1 18
4 0 -6 -14 -24 -8 0 16
4 0 -7 -14 -24 -9 -2 15
4 0 -8 -14 -24 -9 -3 14
4 0 -9 -14 -24 -10 -4 13
4 0 -9 -14 -24 -10 -4 12
3 -2 -10 -15 -25 -10 -3 12
3 0 -10 -15 -24 -9 0 14
3 1 -9 -15 -23 -8 2 16
3 2 -9 -15 -22 -7 4 18
3 3 -9 -15 -22 -6 6 20
4 4 -8 -14 -21 -6 5 19
4 3 -9 -15 -22 -7 2 16
4 2 -9 -15 -23 -8 -2 13
4 1 -10 -16 -24 -9 -5 10
4 0 -10 -16 -24 -10 -7 8
4 -2 -11 -17 -25 -11 -7 8
4 -2 -11 -17 -25 -11 -5 10
5 0 -10 -17 -25 -11 -4 12
5 0 -10 -17 -25 -11 -2 14
5 0 -10 -17 -25 -11 0 16
6 1 -9 -18 -26 -10 0 15
6 1 -10 -18 -26 -11 -3 13
5 0 -10 -18 -27 -12 -5 10
5 0 -11 -18 -27 -13 -7 8
5 0 -11 -18 -27 -13 -8 6
4 -2 -12 -18 -28 -14 -8 6
4 -2 -12 -19 -28 -14 -7 8
4 -2 -12 -19 -27 -14 -6 9
4 -2 -12 -20 -27 -14 -5 11
4 -2 -12 -20 -27 -14 -4 12
3 -3 -11 -21 -26 -14 -3 12
2 -3 -9 -21 -26 -14 -3 11
1 -3 -8 -21 -26 -13 -3 9
0 -3 -6 -21 -26 -13 -3 8
-2 -3 -5 -21 -26 -13 -3 7
0 -3 -6 -21 -26 -12 -4 6
2 -3 -9 -22 -27 -12 -4 7
4 -3 -11 -23 -28 -13 -5 8
6 -3 -14 -24 -29 -13 -5 9
8 -3 -16 -25 -29 -13 -5 10
7 -4 -16 -26 -30 -14 -6 10
5 -4 -14 -26 -29 -14 -7 8
2 -4 -13 -25 -28 -14 -8 6
0 -4 -11 -25 -27 -14 -9 4
-3 -4 -10 -25 -27 -14 -9 3
-4 -4 -10 -24 -26 -14 -10 2
-4 -5 -11 -24 -26 -14 -9 3
-4 -6 -12 -24 -27 -15 -9 4
-4 -7 -13 -24 -27 -15 -8 5
-4 -8 -14 -24 -27 -15 -8 6
-3 -9 -15 -24 -28 -16 -8 5
0 -8 -15 -24 -28 -17 -9 3
2 -7 -15 -25 -29 -17 -10 1
4 -6 -15 -25 -29 -18 -11 -2
6 -5 -15 -25 -29 -18 -12 -4
6 -4 -15 -26 -30 -19 -12 -3
5 -4 -14 -26 -30 -18 -10 0
3 -4 -14 -26 -30 -18 -9 2
2 -4 -13 -26 -30 -17 -7 4
1 -4 -13 -26 -30 -17 -6 6
0 -3 -12 -25 -29 -16 -5 5
0 -3 -12 -25 -29 -16 -6 3
-2 -4 -13 -25 -29 -16 -7 0
-2 -4 -13 -25 -29 -16 -8 -3
-2 -4 -13 -25 -29 -16 -9 -5
-2 -5 -14 -24 -29 -16 -10 -4
0 -5 -14 -25 -30 -17 -10 -2
1 -5 -15 -25 -30 -17 -10 2
2 -5 -15 -26 -31 -18 -10 4
3 -5 -15 -26 -31 -18 -10 6
4 -5 -16 -27 -31 -19 -10 5
3 -5 -16 -26 -30 -18 -10 3
2 -5 -16 -26 -28 -18 -10 0
1 -5 -16 -25 -27 -17 -10 -4
1 -5 -16 -25 -26 -17 -10 -6
0 -5 -16 -24 -25 -16 -10 -5
0 -5 -15 -24 -25 -16 -9 -2
-2 -5 -14 -24 -25 -15 -8 2
-2 -5 -13 -24 -25 -15 -7 5
-2 -5 -13 -24 -25 -15 -6 8
-2 -4 -12 -23 -26 -14 -6 7
0 -4 -12 -23 -26 -14 -7 3
2 -4 -13 -24 -27 -14 -9 0
3 -4 -13 -24 -27 -14 -10 -4
4 -4 -13 -24 -27 -14 -11 -7
5 -4 -14 -25 -28 -15 -12 -7
5 -4 -14 -25 -28 -16 -11 -4
5 -5 -14 -25 -28 -17 -11 -2
5 -5 -14 -25 -28 -18 -10 1
5 -5 -14 -25 -28 -19 -10 3
5 -6 -15 -26 -28 -20 -9 2
3 -6 -15 -26 -28 -20 -9 0
2 -7 -15 -26 -28 -20 -10 -4
0 -7 -15 -26 -28 -20 -10 -7
-2 -7 -15 -26 -28 -20 -10 -9
-3 -8 -15 -26 -28 -20 -11 -8
-3 -7 -14 -25 -27 -19 -10 -4
-3 -6 -13 -25 -27 -18 -9 0
-3 -5 -12 -24 -26 -17 -8 3
-3 -4 -12 -24 -26 -17 -8 6
-2 -3 -11 -23 -25 -16 -8 4
-2 -3 -11 -24 -26 -17 -10 0
-2 -3 -12 -24 -26 -18 -12 -5
-2 -3 -12 -25 -27 -19 -13 -9
-2 -3 -12 -25 -27 -19 -15 -13
-2 -4 -13 -26 -28 -20 -15 -12
0 -4 -13 -26 -27 -19 -13 -8
1 -4 -13 -26 -26 -18 -12 -5
2 -4 -13 -26 -25 -17 -10 -2
2 -4 -13 -26 -25 -17 -9 2
3 -3 -13 -25 -24 -16 -8 1
3 1 -12 -24 -23 -15 -8 -2
3 3 -10 -23 -22 -15 -8 -4
3 5 -9 -22 -21 -14 -8 -7
3 7 -8 -21 -21 -14 -8 -9
3 8 -7 -20 -20 -13 -8 -8
2 8 -7 -19 -20 -12 -7 -4
1 8 -7 -19 -19 -12 -5 0
0 8 -7 -18 -19 -11 -4 3
0 8 -7 -18 -19 -11 -3 6
2 9 -7 -17 -18 -10 -3 4
5 9 -8 -17 -18 -10 -5 1
9 9 -9 -17 -18 -11 -7 -4
12 9 -10 -17 -18 -11 -8 -7
16 9 -11 -17 -18 -11 -10 -11
15 8 -12 -17 -18 -12 -10 -9
12 9 -12 -17 -18 -12 -7 -4
8 10 -12 -17 -17 -11 -5 1
5 11 -12 -17 -17 -11 -3 6
2 12 -12 -17 -17 -11 0 10
1 12 -13 -18 -17 -11 0 8
2 9 -15 -19 -18 -12 -4 4
3 7 -17 -21 -20 -14 -6 -2
4 5 -20 -22 -22 -15 -8 -6
4 3 -22 -23 -23 -16 -10 -10
5 2 -23 -24 -24 -17 -11 -9
4 3 -23 -24 -24 -16 -10 -5
3 4 -23 -24 -24 -15 -9 -2
2 5 -23 -24 -24 -14 -8 3
2 5 -23 -24 -24 -14 -8 6
2 6 -21 -24 -22 -13 -7 5
3 7 -20 -22 -21 -13 -7 2
4 7 -18 -20 -20 -13 -7 -2
5 8 -16 -19 -19 -13 -7 -4
6 8 -15 -17 -18 -13 -7 -7
7 9 -14 -16 -17 -13 -7 -7
6 8 -15 -17 -18 -13 -8 -5
6 7 -16 -18 -18 -14 -8 -3
5 6 -17 -19 -19 -14 -9 0
5 6 -17 -19 -19 -14 -9 2
4 4 -18 -20 -20 -15 -11 0
3 3 -18 -20 -20 -16 -12 -4
2 2 -18 -21 -21 -17 -13 -8
1 0 -18 -21 -21 -18 -15 -11
1 -2 -18 -21 -21 -18 -16 -15
0 -4 -17 -22 -22 -19 -17 -15
0 -5 -17 -22 -22 -19 -17 -13
-2 -6 -17 -23 -23 -19 -18 -11
-2 -7 -17 -23 -23 -19 -18 -9
-2 -8 -17 -23 -23 -19 -18 -7
-3 -9 -18 -24 -24 -20 -19 -8
-3 -9 -18 -24 -23 -20 -19 -10
-3 -9 -18 -23 -23 -20 -19 -13
-3 -9 -18 -23 -22 -20 -19 -15
-3 -9 -18 -23 -22 -20 -19 -18
-2 -9 -18 -22 -21 -21 -19 -17
-2 -9 -18 -22 -22 -21 -18 -14
-2 -9 -17 -23 -22 -21 -17 -12
-2 -9 -17 -23 -23 -21 -16 -9
-2 -9 -17 -23 -23 -21 -16 -6
-4 -8 -16 -24 -24 -20 -15 -7
-5 -9 -16 -23 -23 -20 -15 -9
-6 -9 -15 -22 -22 -19 -15 -11
-7 -10 -15 -21 -21 -19 -15 -14
-8 -10 -15 -21 -21 -19 -15 -16
-9 -11 -14 -20 -20 -18 -15 -16
-9 -11 -14 -21 -20 -18 -16 -15
-9 -11 -14 -22 -21 -19 -17 -13
-9 -11 -14 -23 -21 -19 -18 -11
-9 -11 -14 -23 -21 -19 -18 -10
-8 -10 -15 -24 -22 -20 -19 -10
-7 -10 -16 -24 -22 -20 -19 -13
-7 -10 -16 -23 -22 -21 -19 -15
-6 -10 -17 -23 -22 -21 -19 -17
-6 -10 -17 -23 -22 -21 -19 -19
-5 -9 -18 -22 -22 -22 -19 -18
-5 -9 -18 -22 -22 -22 -19 -16
-6 -9 -18 -21 -22 -22 -19 -13
-6 -9 -18 -21 -22 -22 -19 -11
-6 -9 -18 -21 -22 -22 -19 -8
-9 -10 -17 -20 -21 -22 -18 -10
-12 -10 -14 -20 -23 -24 -19 -14
-14 -10 -12 -21 -24 -26 -20 -18
-17 -10 -9 -21 -25 -27 -21 -22
-20 -10 -7 -21 -26 -29 -22 -26
-19 -6 -2 -17 -21 -25 -19 -22
-15 2 5 -11 -14 -17 -14 -16
-12 9 11 -4 -6 -10 -9 -9
-9 16 17 4 2 -3 -4 -2
-5 23 23 10 10 5 2 5
2 33 30 31 33 29 21 18
10 44 36 55 61 58 46 31
17 55 43 79 88 87 69 46
24 65 49 103 115 115 94 59
31 76 55 128 142 144 117 73
38 81 60 153 170 171 139 89
47 86 64 180 197 196 159 105
54 90 69 205 225 223 181 121
61 94 73 232 252 248 201 138
68 99 78 258 279 275 223 154
66 84 88 264 281 265 213 145
60 62 99 264 275 244 194 129
54 42 110 264 269 224 176 112
48 20 121 264 263 203 157 96
42 0 133 264 257 183 139 79
27 -18 136 226 215 143 104 56
12 -34 137 180 163 97 65 31
-5 -51 137 134 112 51 26 7
-20 -67 138 88 61 5 -14 -18
-35 -83 138 42 11 -40 -53 -43
-41 -86 142 25 -7 -55 -65 -52
-45 -81 146 17 -15 -62 -70 -59
-47 -77 150 9 -23 -68 -76 -65
-50 -74 154 0 -31 -74 -81 -71
-53 -70 159 -9 -39 -80 -87 -77
-54 -68 165 -11 -41 -81 -88 -78
-54 -66 173 -12 -40 -80 -86 -77
-55 -64 179 -12 -40 -78 -83 -76
-55 -62 186 -13 -39 -76 -82 -74
-55 -60 193 -13 -39 -75 -80 -73
-56 -58 195 -15 -38 -74 -79 -72
-56 -56 194 -16 -38 -72 -77 -71
-55 -54 193 -17 -38 -71 -76 -70
-55 -53 192 -19 -38 -70 -75 -69
-55 -51 192 -20 -38 -69 -74 -69
-54 -50 187 -25 -41 -68 -73 -66
-54 -48 182 -30 -44 -68 -71 -63
-54 -47 177 -35 -47 -67 -70 -60
-54 -46 172 -40 -50 -67 -69 -57
-54 -45 167 -46 -53 -67 -68 -54
-54 -41 155 -48 -54 -66 -66 -53
-53 -39 142 -49 -54 -64 -64 -54
-53 -36 130 -49 -54 -63 -61 -54
-52 -34 116 -50 -54 -62 -59 -55
-52 -31 103 -50 -54 -61 -57 -55
-49 -28 90 -50 -53 -59 -55 -53
-45 -25 76 -49 -52 -56 -53 -49
-41 -22 62 -48 -50 -54 -52 -45
-38 -19 49 -46 -48 -51 -50 -40
-34 -16 35 -45 -47 -49 -48 -35
-32 -14 28 -41 -43 -45 -44 -34
-31 -12 23 -37 -38 -39 -39 -33
-29 -9 19 -33 -34 -35 -35 -32
-27 -7 14 -29 -30 -30 -31 -31
-26 -5 10 -25 -25 -26 -26 -31
-22 -4 6 -23 -23 -24 -24 -28
-18 -4 4 -21 -22 -22 -23 -24
-14 -3 1 -20 -21 -21 -22 -20
-10 -3 -3 -18 -19 -20 -20 -16
-5 -3 -6 -16 -18 -19 -19 -12
-4 -2 -7 -14 -16 -17 -17 -11
-5 -2 -8 -13 -14 -15 -16 -12
-6 -2 -9 -12 -13 -13 -14 -13
-7 -2 -10 -10 -11 -11 -12 -14
-7 -2 -10 -9 -9 -9 -11 -15
-7 -3 -11 -8 -8 -8 -10 -14
-6 0 -11 -7 -7 -8 -10 -11
-5 1 -12 -7 -7 -8 -9 -8
-3 2 -12 -6 -6 -8 -9 -5
-2 3 -12 -6 -6 -8 -9 -2
0 4 -13 -5 -5 -7 -8 -2
1 4 -14 -5 -4 -7 -8 -4
2 5 -15 -5 -4 -6 -7 -5
3 5 -16 -5 -3 -6 -7 -7
3 5 -16 -5 -3 -6 -7 -9
4 6 -17 -4 -2 -5 -6 -9
4 5 -17 -4 -2 -5 -6 -7
3 5 -17 -4 -2 -5 -7 -4
3 4 -17 -4 -2 -5 -7 -2
3 4 -17 -4 -2 -5 -7 1
2 3 -18 -3 0 -3 -7 2
3 5 -19 -2 1 -2 -6 1
3 6 -19 1 2 0 -5 0
4 7 -20 2 4 2 -3 -2
4 8 -20 4 5 3 -2 -3
5 9 -21 5 6 4 0 -3
5 9 -21 4 6 4 0 1
5 9 -21 4 6 4 1 3
5 9 -21 3 6 4 1 5
5 9 -21 3 6 4 1 8
6 8 -22 2 5 5 2 8
6 7 -23 3 5 5 3 6
6 7 -23 3 6 6 3 3
6 6 -24 4 6 6 4 1
6 6 -24 4 6 6 4 -2
6 5 -25 5 7 7 5 -2
6 5 -25 5 7 7 5 2
6 5 -25 6 7 8 5 4
6 5 -25 6 7 8 5 6
6 5 -25 6 7 8 5 9
7 6 -25 7 9 9 6 9
8 6 -27 8 10 11 7 8
9 7 -28 8 12 12 7 7
10 7 -29 9 13 13 8 5
11 7 -30 9 15 14 8 4
12 9 -31 10 16 15 9 5
12 10 -31 11 17 16 11 8
13 11 -31 12 18 16 12 11
13 13 -31 13 18 17 13 14
13 14 -31 14 19 17 14 18
14 15 -31 15 20 18 15 19
14 14 -32 16 21 20 16 18
14 13 -32 17 22 21 17 17
14 13 -33 18 23 22 18 16
14 12 -33 19 24 23 19 15
14 11 -35 20 26 25 20 16
16 12 -36 21 27 26 22 18
17 12 -38 21 28 28 23 21
18 13 -39 22 30 29 24 24
19 13 -41 22 31 31 25 27
20 14 -43 23 32 32 27 28
20 14 -44 24 33 33 28 27
21 14 -44 25 33 34 29 26
21 14 -45 25 34 35 31 25
21 14 -45 26 34 36 32 24
22 15 -46 27 35 37 33 24
24 15 -48 27 36 38 34 27
25 15 -49 28 37 39 35 30
27 15 -50 28 37 39 35 32
28 15 -51 28 38 40 36 35
29 16 -53 29 39 42 37 36
29 16 -55 30 39 43 37 34
28 15 -56 30 40 44 38 33
28 15 -58 31 40 44 38 31
28 15 -60 31 40 45 38 30
27 14 -61 32 42 46 39 30
27 14 -63 32 42 45 39 31
27 14 -64 32 42 45 39 33
27 14 -65 32 42 44 39 34
27 14 -66 32 42 44 39 36
28 13 -67 31 42 43 38 37
30 14 -68 30 40 43 39 36
31 15 -69 29 40 43 39 35
33 16 -70 28 39 43 40 34
35 17 -71 27 39 43 40 33
36 18 -72 26 38 43 42 32
35 17 -74 27 39 44 42 34
34 16 -75 27 40 44 40 35
33 16 -77 28 40 45 40 36
32 15 -78 28 42 45 40 37
31 14 -79 29 43 46 39 37
31 15 -79 27 42 45 39 36
31 16 -78 26 40 45 39 34
31 17 -78 25 40 44 39 33
31 18 -78 24 39 44 39 31
30 19 -77 23 38 43 40 30
29 19 -77 21 36 43 40 31
28 19 -77 20 35 42 39 32
28 19 -77 19 34 42 39 33
27 19 -77 18 33 42 39 34
26 20 -78 16 31 39 37 34
26 20 -78 14 29 37 35 31
27 21 -77 12 27 35 33 29
27 21 -77 10 24 32 31 26
27 21 -77 8 22 30 29 23
27 22 -75 7 20 29 27 22
25 22 -73 6 18 27 25 22
23 21 -71 5 16 26 23 22
21 21 -69 4 14 25 20 22
19 21 -67 3 12 24 18 22
18 20 -66 2 11 22 17 22
18 20 -65 0 10 20 16 20
17 19 -64 -2 9 19 15 19
17 19 -64 -3 8 17 15 17
17 19 -63 -4 7 15 14 15
16 18 -59 -5 6 14 13 14
15 17 -53 -4 6 13 11 13
14 17 -48 -4 5 12 10 13
13 16 -43 -3 5 11 8 12
12 16 -36 -3 5 10 7 12
11 15 -32 -2 4 8 5 9
11 13 -30 -3 3 6 3 6
10 12 -27 -4 2 4 1 3
9 10 -24 -4 2 1 -2 0
9 9 -21 -5 1 -2 -4 -4
7 8 -18 -6 0 -3 -5 -6
5 7 -16 -6 0 -3 -5 -5
3 6 -14 -6 0 -3 -5 -3
1 5 -11 -6 0 -3 -5 -2
-2 4 -9 -6 0 -3 -5 0
-3 3 -7 -5 -2 -3 -6 1
-4 2 -6 -4 -2 -3 -6 0
-6 1 -4 -3 0 -3 -6 -3
-7 1 -2 -3 0 -3 -6 -4
-8 0 1 -2 0 -3 -6 -5
-8 -2 2 0 1 -4 -7 -6
-5 -2 2 -3 0 -6 -9 -6
-3 -2 2 -4 -2 -7 -10 -5
1 -2 2 -6 -3 -9 -12 -5
4 -2 2 -7 -4 -10 -13 -5
4 0 2 -8 -5 -11 -14 -5
3 -2 2 -8 -5 -11 -14 -6
1 -3 2 -7 -5 -11 -14 -8
-2 -4 2 -6 -5 -11 -14 -9
-4 -5 2 -6 -5 -11 -14 -11
-5 -6 1 -5 -6 -10 -13 -12
-5 -6 2 -5 -6 -10 -13 -11
-5 -6 3 -5 -5 -10 -13 -9
-5 -6 4 -5 -5 -10 -13 -8
-5 -6 5 -5 -5 -10 -13 -7
-6 -5 6 -5 -4 -10 -13 -6
-6 -5 6 -5 -4 -10 -13 -7
-6 -5 5 -5 -4 -11 -13 -8
-6 -5 4 -5 -4 -11 -13 -9
-6 -5 4 -5 -4 -11 -13 -10
-5 -5 3 -4 -5 -12 -13 -10
-4 -5 3 -4 -5 -12 -13 -9
-3 -4 3 -5 -5 -12 -14 -7
-3 -4 3 -6 -5 -12 -14 -6
-2 -4 3 -6 -5 -12 -14 -4
0 -3 4 -7 -6 -12 -15 -3
0 -3 4 -7 -6 -12 -14 -4
-2 -3 3 -7 -5 -12 -13 -5
-2 -3 3 -7 -5 -12 -13 -5
-2 -3 3 -7 -5 -12 -12 -6
-3 -3 2 -6 -4 -12 -11 -7
-3 -3 2 -6 -4 -12 -11 -6
-2 -3 2 -6 -4 -11 -12 -5
-2 -3 2 -6 -4 -10 -12 -4
-2 -3 2 -6 -4 -10 -12 -3
0 -4 2 -6 -4 -9 -13 -2
-2 -4 2 -5 -3 -9 -13 -2
-3 -3 3 -4 -2 -8 -12 -3
-4 -2 3 -4 -2 -7 -11 -4
-5 -2 3 -3 0 -7 -11 -4
-6 0 4 -2 1 -6 -10 -5
-4 0 4 -2 0 -7 -10 -4
-2 1 3 -3 -2 -8 -11 -3
0 2 3 -3 -3 -8 -12 -3
2 2 3 -3 -4 -9 -12 -2
2 3 2 -4 -5 -10 -13 0
1 2 2 -4 -5 -10 -12 -2
-2 1 2 -4 -4 -9 -11 -3
-4 1 2 -4 -3 -8 -11 -4
-6 0 2 -4 -3 -8 -10 -5
-7 -2 1 -4 -2 -7 -9 -6
-6 -2 1 -4 -2 -7 -9 -5
-5 -2 1 -5 -3 -8 -10 -4
-4 -2 1 -5 -4 -9 -10 -3
-3 -2 1 -5 -4 -9 -10 -2
-2 -2 0 -6 -5 -10 -11 0
0 1 0 -6 -4 -9 -10 0
1 2 0 -6 -3 -8 -9 0
2 4 0 -6 -2 -7 -8 0
3 5 0 -6 0 -6 -7 0
4 6 1 -5 1 -5 -6 0
3 6 1 -5 0 -5 -7 0
2 5 1 -5 -3 -6 -8 1
1 4 1 -5 -4 -7 -8 2
0 4 1 -5 -5 -7 -9 2
-2 3 0 -6 -6 -8 -10 2
-2 3 0 -7 -6 -8 -10 1
-2 3 -2 -8 -7 -9 -11 -2
-2 3 -3 -9 -7 -9 -11 -4
-2 3 -3 -10 -7 -9 -11 -6
-2 2 -4 -11 -8 -10 -12 -7
-2 2 -5 -11 -8 -10 -13 -7
-2 2 -6 -11 -9 -11 -14 -6
-2 2 -6 -11 -9 -12 -14 -5
-2 2 -7 -11 -9 -12 -15 -5
0 1 -8 -11 -10 -13 -16 -4
1 1 -8 -11 -10 -13 -16 -4
2 1 -7 -12 -11 -13 -16 -5
3 1 -6 -12 -12 -13 -16 -6
4 1 -6 -12 -12 -13 -16 -6
5 2 -5 -13 -13 -12 -15 -7
5 2 -6 -13 -13 -12 -15 -7
5 2 -7 -13 -13 -13 -15 -7
5 2 -8 -13 -13 -13 -15 -7
5 2 -9 -13 -13 -13 -15 -7
4 3 -10 -14 -12 -14 -14 -6
4 3 -10 -14 -12 -13 -14 -6
3 3 -9 -14 -12 -12 -13 -6
3 3 -9 -14 -12 -12 -12 -6
3 3 -9 -14 -12 -11 -12 -6
2 3 -8 -13 -12 -10 -11 -6
2 3 -8 -13 -12 -11 -12 -6
1 2 -8 -14 -13 -12 -13 -5
1 2 -8 -15 -13 -12 -13 -4
1 2 -8 -15 -13 -13 -14 -4
0 1 -9 -16 -14 -14 -15 -4
1 1 -10 -16 -14 -15 -16 -5
2 2 -11 -17 -15 -16 -17 -7
3 2 -12 -17 -15 -17 -18 -9
4 2 -13 -17 -15 -18 -19 -11
5 3 -14 -18 -16 -19 -20 -12
4 2 -14 -18 -16 -19 -20 -11
3 1 -13 -18 -17 -18 -19 -9
3 1 -12 -18 -17 -18 -19 -8
2 0 -12 -18 -17 -18 -19 -7
1 -2 -11 -19 -18 -17 -18 -6
1 -2 -11 -19 -18 -16 -17 -6
1 -2 -10 -19 -18 -15 -16 -7
1 -2 -9 -19 -18 -15 -16 -7
1 -2 -9 -19 -18 -14 -15 -7
1 -3 -8 -18 -17 -13 -14 -8
0 -4 -10 -19 -18 -15 -16 -8
-2 -6 -11 -20 -19 -17 -18 -8
-3 -8 -12 -21 -19 -18 -19 -8
-4 -10 -14 -22 -20 -20 -21 -8
-5 -10 -15 -23 -21 -21 -22 -9
-3 -8 -15 -23 -21 -20 -22 -9
-2 -6 -14 -22 -20 -19 -21 -10
0 -4 -14 -21 -20 -19 -20 -10
2 0 -14 -21 -20 -18 -20 -10
3 1 -13 -20 -19 -17 -19 -11
3 1 -13 -20 -19 -17 -19 -11
4 0 -13 -20 -19 -17 -19 -10
4 0 -13 -20 -19 -17 -19 -10
4 0 -13 -20 -19 -17 -19 -10
5 -2 -13 -19 -19 -17 -19 -9
5 -2 -13 -20 -19 -17 -19 -9
6 0 -13 -21 -19 -17 -18 -10
6 0 -13 -21 -19 -17 -18 -10
6 0 -13 -22 -19 -17 -18 -10
7 1 -13 -23 -20 -18 -17 -11
6 1 -13 -23 -20 -18 -17 -11
5 0 -13 -22 -20 -18 -17 -10
4 -2 -13 -22 -20 -18 -17 -9
3 -2 -13 -22 -20 -18 -17 -9
2 -3 -13 -21 -20 -18 -17 -8
1 -3 -14 -21 -20 -18 -17 -9
0 -4 -15 -21 -21 -19 -18 -10
0 -4 -15 -21 -21 -19 -18 -11
-2 -4 -16 -21 -21 -19 -18 -12
-3 -5 -17 -22 -22 -20 -19 -13
-2 -4 -17 -22 -22 -20 -19 -13
0 -3 -17 -23 -22 -20 -19 -12
0 -3 -17 -24 -22 -20 -19 -11
1 -2 -17 -24 -22 -20 -19 -11
2 0 -17 -25 -21 -19 -18 -10
2 0 -17 -23 -21 -19 -18 -10
3 1 -16 -22 -21 -19 -18 -11
4 1 -15 -21 -21 -19 -18 -11
4 1 -15 -19 -21 -19 -18 -11
4 2 -14 -18 -22 -19 -17 -12
2 0 -14 -20 -23 -19 -17 -12
-2 -3 -14 -22 -24 -20 -18 -11
-4 -4 -14 -23 -24 -21 -19 -11
-6 -6 -14 -25 -25 -21 -19 -11
-8 -7 -15 -26 -26 -22 -20 -10
-6 -5 -15 -26 -25 -21 -19 -10
-4 -3 -15 -25 -24 -19 -18 -11
-3 0 -15 -25 -23 -18 -17 -11
0 2 -15 -25 -22 -17 -16 -11
1 3 -14 -24 -21 -16 -15 -12
1 3 -14 -24 -21 -17 -16 -12
1 3 -15 -23 -21 -18 -17 -11
1 3 -15 -22 -21 -18 -17 -10
1 3 -15 -22 -21 -19 -18 -10
2 2 -16 -21 -21 -20 -19 -9
3 1 -17 -22 -22 -20 -19 -10
4 0 -18 -23 -23 -20 -19 -12
4 0 -18 -24 -23 -20 -19 -13
5 -2 -19 -25 -24 -20 -19 -14
6 -3 -20 -26 -25 -20 -20 -15
6 -3 -20 -26 -25 -20 -20 -14
6 -2 -19 -25 -24 -19 -20 -13
6 0 -18 -24 -24 -19 -20 -13
6 0 -18 -24 -24 -19 -20 -12
5 1 -17 -23 -23 -18 -20 -11
4 0 -17 -23 -24 -18 -20 -11
2 -3 -17 -23 -25 -18 -19 -12
1 -4 -17 -23 -25 -18 -19 -13
0 -5 -17 -23 -26 -18 -19 -13
-2 -6 -18 -24 -27 -19 -18 -14
-2 -5 -18 -24 -26 -18 -18 -12
-3 -3 -17 -23 -25 -17 -17 -11
-3 -2 -16 -23 -25 -16 -16 -10
-3 0 -16 -23 -24 -15 -16 -8
-3 1 -15 -22 -23 -14 -15 -7
0 3 -15 -22 -23 -14 -15 -9
3 4 -15 -22 -23 -15 -16 -10
5 5 -15 -22 -23 -15 -16 -11
7 7 -15 -22 -23 -15 -16 -13
9 8 -14 -22 -23 -16 -17 -14
8 8 -13 -21 -23 -15 -17 -12
7 9 -11 -20 -22 -14 -16 -11
7 9 -10 -20 -21 -14 -16 -10
6 9 -9 -19 -21 -13 -16 -8
5 10 -8 -18 -20 -12 -15 -7
5 10 -8 -18 -20 -12 -14 -7
5 10 -9 -18 -20 -11 -14 -7
5 10 -10 -17 -19 -10 -13 -8
5 10 -10 -17 -19 -10 -12 -8
5 9 -11 -16 -18 -9 -11 -9
5 10 -11 -16 -18 -9 -11 -9
5 10 -11 -16 -18 -9 -11 -8
5 11 -11 -16 -18 -9 -11 -7
5 12 -11 -16 -18 -9 -11 -7
5 13 -11 -15 -18 -8 -11 -6
5 13 -12 -15 -18 -8 -11 -6
5 13 -12 -16 -18 -8 -11 -6
5 13 -13 -17 -19 -9 -11 -6
5 13 -14 -17 -19 -9 -11 -6
6 13 -15 -18 -20 -10 -12 -7
6 12 -17 -20 -22 -12 -13 -7
7 11 -18 -22 -23 -13 -14 -7
8 9 -19 -24 -25 -14 -15 -8
8 8 -21 -26 -27 -16 -16 -8
9 7 -22 -27 -28 -17 -17 -9
10 7 -22 -27 -28 -16 -16 -9
11 8 -22 -27 -28 -15 -16 -9
12 9 -21 -27 -28 -14 -15 -8
13 9 -21 -27 -28 -13 -14 -8
14 10 -20 -26 -27 -12 -13 -7
13 9 -19 -25 -27 -12 -13 -7
13 8 -19 -25 -26 -12 -13 -7
12 6 -18 -24 -25 -12 -13 -7
11 5 -17 -23 -25 -12 -13 -7
9 4 -16 -22 -24 -12 -14 -7
7 4 -16 -22 -24 -12 -14 -7
4 4 -16 -22 -24 -12 -14 -8
1 3 -15 -23 -24 -12 -14 -9
-2 3 -15 -23 -24 -12 -14 -9
-4 2 -14 -24 -25 -12 -14 -10
-3 1 -15 -24 -25 -13 -15 -10
-3 1 -16 -24 -26 -14 -16 -10
-2 0 -17 -24 -27 -15 -17 -10
0 -2 -18 -24 -27 -16 -18 -10
1 -3 -19 -25 -28 -17 -19 -11
2 -3 -19 -25 -28 -17 -19 -12
2 -3 -19 -25 -28 -17 -19 -12
3 -3 -19 -26 -28 -17 -19 -13
4 -3 -19 -26 -28 -17 -19 -14
5 -3 -18 -27 -29 -17 -19 -15
5 -3 -18 -27 -29 -17 -19 -15
5 -4 -18 -27 -29 -17 -19 -15
4 -5 -19 -27 -30 -18 -20 -14
4 -5 -19 -27 -30 -18 -20 -14
3 -6 -20 -27 -31 -19 -21 -13
3 -6 -20 -27 -31 -19 -21 -14
3 -6 -20 -27 -31 -19 -21 -15
3 -6 -20 -28 -31 -19 -21 -16
3 -6 -20 -28 -31 -19 -21 -17
2 -6 -20 -29 -31 -19 -20 -18
1 -6 -20 -27 -31 -19 -20 -18
0 -6 -19 -26 -30 -19 -20 -17
-3 -6 -18 -25 -29 -18 -20 -16
-4 -6 -18 -23 -29 -18 -20 -16
-5 -5 -17 -22 -28 -17 -21 -15
-5 -6 -17 -23 -28 -17 -21 -15
-5 -6 -16 -23 -28 -17 -21 -16
-5 -7 -15 -24 -29 -17 -21 -17
-5 -8 -15 -25 -29 -17 -21 -17
-4 -9 -14 -26 -30 -16 -20 -18
-2 -9 -16 -26 -30 -16 -20 -18
0 -8 -17 -26 -30 -16 -20 -18
1 -7 -18 -27 -31 -17 -21 -18
3 -7 -20 -27 -31 -17 -21 -18
4 -6 -21 -28 -32 -18 -22 -17
3 -6 -20 -28 -32 -18 -22 -17
3 -6 -20 -28 -32 -18 -22 -17
2 -6 -19 -27 -32 -18 -22 -17
1 -6 -18 -27 -32 -18 -22 -17
0 -4 -15 -25 -31 -17 -21 -16
0 0 -8 -23 -29 -17 -21 -16
-2 4 0 -20 -28 -17 -21 -17
-3 7 6 -18 -26 -17 -22 -18
-3 11 13 -15 -24 -17 -22 -18
-4 16 18 -7 -16 -8 -16 -14
-2 25 20 9 4 13 2 -3
0 33 23 24 22 34 19 10
1 42 25 38 40 55 37 22
3 51 28 54 59 75 55 34
9 59 34 77 85 101 76 49
22 67 46 110 119 134 102 67
34 74 56 144 154 167 129 85
48 82 67 178 189 199 154 103
60 91 77 212 224 231 181 120
68 94 86 236 246 251 196 132
68 87 91 248 253 251 196 132
69 79 96 262 260 252 196 132
70 72 100 274 266 253 196 132
70 65 105 286 272 253 196 132
65 49 110 281 261 235 182 119
51 22 116 248 225 191 143 91
36 -6 123 216 188 147 104 62
21 -32 130 184 151 103 65 33
7 -60 136 151 114 59 26 6
-6 -76 140 119 81 23 -4 -17
-13 -76 140 90 53 1 -23 -31
-21 -76 140 60 23 -23 -43 -45
-28 -76 140 30 -6 -46 -62 -58
-36 -76 140 1 -34 -68 -81 -72
-41 -75 142 -17 -52 -81 -93 -79
-43 -72 149 -16 -51 -78 -91 -77
-43 -70 156 -15 -49 -75 -88 -74
-44 -67 164 -14 -48 -72 -85 -72
-45 -65 172 -13 -46 -69 -81 -69
-46 -62 178 -12 -45 -67 -79 -67
-47 -59 181 -13 -45 -65 -77 -66
-47 -56 185 -13 -45 -64 -75 -66
-48 -53 188 -14 -44 -62 -73 -65
-49 -50 191 -15 -44 -60 -71 -64
-50 -48 193 -17 -43 -59 -69 -63
-50 -48 190 -20 -44 -59 -69 -62
-50 -48 187 -24 -46 -59 -69 -61
-51 -48 184 -27 -47 -59 -69 -60
-51 -48 181 -30 -49 -59 -69 -59
-52 -47 176 -34 -51 -60 -69 -58
-53 -45 167 -38 -53 -60 -69 -58
-54 -43 158 -43 -56 -60 -69 -58
-55 -40 149 -46 -59 -60 -69 -58
-56 -38 141 -50 -62 -60 -69 -58
-56 -35 129 -53 -64 -61 -69 -57
-54 -32 113 -53 -63 -60 -67 -54
-51 -29 98 -53 -61 -58 -65 -50
-48 -26 81 -53 -60 -57 -63 -47
-45 -22 66 -53 -58 -55 -61 -44
-41 -19 54 -52 -56 -52 -57 -39
-39 -16 47 -47 -52 -47 -52 -35
-36 -13 39 -43 -47 -41 -47 -32
-34 -10 32 -38 -43 -36 -40 -28
-31 -7 26 -33 -38 -31 -35 -25
-28 -5 20 -30 -35 -27 -31 -22
-26 -5 15 -28 -33 -25 -30 -21
-23 -6 10 -26 -31 -23 -29 -20
-20 -7 5 -24 -29 -21 -27 -18
-17 -7 0 -23 -27 -20 -26 -17
-14 -8 -5 -21 -25 -18 -25 -16
-12 -8 -7 -19 -24 -17 -24 -16
-9 -7 -9 -18 -24 -16 -23 -15
-7 -6 -11 -16 -23 -14 -21 -14
-4 -6 -12 -14 -22 -13 -20 -14
-2 -5 -14 -13 -21 -12 -19 -13
1 -3 -14 -13 -20 -11 -17 -11
2 0 -14 -12 -19 -9 -15 -9
4 2 -15 -11 -17 -8 -13 -7
6 3 -15 -11 -16 -6 -12 -5
7 5 -16 -10 -15 -5 -10 -3
6 4 -17 -10 -14 -5 -10 -3
4 3 -17 -9 -14 -5 -10 -3
3 1 -18 -8 -13 -4 -10 -3
1 0 -19 -8 -12 -4 -10 -3
0 -2 -20 -7 -11 -3 -10 -2
2 -2 -21 -6 -11 -3 -10 -2
4 0 -21 -6 -11 -3 -10 -2
6 1 -22 -5 -10 -3 -10 -2
7 1 -23 -4 -10 -3 -10 -2
9 2 -24 -3 -9 -2 -10 -2
6 2 -24 -3 -9 -2 -9 -2
4 2 -24 -3 -9 -2 -9 -2
2 2 -25 -3 -8 0 -8 0
0 2 -25 -3 -8 0 -7 0
-3 2 -26 -2 -7 1 -6 1
-3 2 -26 0 -6 2 -6 2
-2 2 -25 0 -6 2 -5 3
0 2 -24 1 -5 3 -4 4
0 2 -24 2 -4 4 -4 5
1 3 -23 3 -3 5 -3 6
2 3 -23 3 -3 5 -3 5
3 3 -24 4 -3 5 -2 5
4 3 -25 5 -2 6 0 4
5 3 -25 5 -2 6 0 3
6 2 -26 6 0 7 1 2
7 3 -26 6 1 8 1 3
9 3 -26 6 1 9 2 4
10 4 -27 7 2 10 3 6
12 5 -27 7 3 11 3 7
13 6 -28 8 4 12 4 8
13 6 -29 9 5 13 5 8
13 7 -30 9 5 13 6 8
13 8 -32 10 6 14 8 8
13 8 -33 11 7 15 9 8
13 9 -34 12 8 16 10 9
12 9 -34 12 9 16 10 10
11 9 -34 12 9 16 10 10
9 8 -34 13 10 17 10 11
8 8 -34 13 11 17 10 12
7 7 -34 14 12 18 11 13
9 7 -34 15 12 18 12 13
12 7 -35 15 12 19 13 13
14 7 -36 16 13 20 14 14
16 7 -36 17 13 20 15 14
18 6 -37 18 14 21 16 15
17 6 -37 19 15 23 18 17
17 6 -37 19 17 25 19 19
16 6 -38 20 18 27 21 21
15 6 -38 21 20 28 22 23
14 7 -39 22 21 30 24 25
16 8 -41 22 22 31 25 25
18 9 -45 23 22 32 26 25
20 10 -47 24 23 33 27 26
22 11 -49 24 24 34 28 26
24 12 -51 25 25 35 29 27
24 12 -51 27 27 37 31 29
24 12 -51 28 30 39 32 31
25 12 -52 30 32 40 34 32
25 12 -52 31 34 43 35 34
26 13 -53 33 36 45 37 36
26 13 -55 33 36 45 37 35
26 13 -58 32 35 45 37 34
26 13 -60 32 35 45 36 33
26 13 -62 31 34 45 36 31
27 12 -64 30 33 44 35 30
27 12 -65 30 33 44 35 30
27 12 -66 30 33 44 35 31
28 12 -67 30 33 44 35 31
28 12 -68 30 33 44 35 32
29 13 -69 29 33 43 34 33
29 13 -70 29 33 43 34 33
29 13 -71 29 33 43 34 32
30 13 -72 29 33 43 35 32
30 13 -74 29 33 43 35 31
31 13 -75 29 33 44 36 30
32 13 -75 29 33 44 37 32
32 14 -76 29 33 44 37 34
33 14 -76 29 33 45 38 36
34 15 -77 29 33 45 39 38
35 16 -78 28 33 46 40 40
34 16 -79 28 32 46 39 39
33 16 -80 28 31 45 39 38
32 15 -81 27 30 45 38 37
30 15 -83 27 28 44 37 36
29 14 -85 26 27 43 36 35
30 14 -86 25 27 43 36 35
31 14 -87 23 27 43 36 35
32 14 -88 22 26 43 36 35
33 14 -90 20 26 43 36 35
34 15 -91 19 25 42 35 36
34 15 -91 18 24 42 35 36
34 16 -90 18 23 42 35 35
33 16 -90 17 22 40 35 35
33 17 -89 16 21 40 35 34
32 18 -88 15 20 39 35 33
31 18 -88 14 18 37 32 32
29 18 -88 12 16 34 30 32
28 19 -87 11 14 32 28 31
26 19 -87 9 12 30 25 30
25 20 -86 8 10 28 23 29
24 21 -81 6 9 27 21 26
23 21 -78 4 8 26 19 24
22 22 -75 2 7 25 17 21
21 23 -72 0 5 23 15 18
20 24 -69 -3 4 22 13 16
20 23 -66 -3 3 20 12 16
20 22 -64 -3 2 18 11 15
20 21 -62 -3 1 17 10 15
20 19 -59 -3 0 15 9 14
20 18 -56 -2 -2 13 8 13
17 17 -52 -2 -2 12 7 12
14 17 -48 -2 -2 11 7 11
11 16 -44 -2 -3 10 6 10
8 15 -39 -2 -3 9 5 8
6 14 -36 0 -4 8 4 7
6 13 -33 0 -4 7 3 7
6 13 -30 0 -4 7 2 7
6 12 -27 0 -4 6 1 6
6 11 -25 0 -4 5 -2 6
7 10 -22 1 -5 4 -3 5
7 9 -20 1 -6 3 -4 3
7 7 -18 1 -7 2 -6 2
7 6 -17 1 -8 1 -7 0
7 5 -15 1 -9 -2 -8 -2
7 3 -13 1 -10 -3 -10 -4
4 3 -11 1 -9 -3 -10 -4
2 3 -10 2 -8 -3 -10 -4
0 3 -8 2 -7 -3 -10 -4
-4 3 -7 3 -6 -3 -10 -4
-6 3 -5 4 -5 -2 -9 -3
-4 3 -5 3 -6 -3 -9 -3
-3 3 -5 3 -7 -3 -10 -4
0 3 -5 2 -8 -4 -10 -4
1 3 -5 1 -9 -5 -11 -5
3 4 -6 0 -10 -6 -12 -6
4 4 -6 0 -10 -6 -12 -6
5 4 -5 0 -10 -6 -13 -6
6 4 -5 0 -10 -7 -13 -7
8 4 -4 0 -10 -7 -14 -7
9 4 -3 1 -10 -8 -15 -8
10 4 -3 1 -10 -8 -15 -9
11 4 -3 1 -10 -8 -15 -9
12 4 -3 1 -10 -8 -15 -10
13 4 -3 1 -10 -8 -15 -11
14 5 -2 0 -9 -8 -15 -12
12 4 -2 0 -9 -8 -15 -11
10 4 -2 0 -9 -7 -15 -10
7 3 -2 0 -8 -7 -15 -9
5 2 -2 0 -8 -6 -15 -8
3 1 -3 0 -7 -5 -14 -7
2 1 -3 0 -7 -5 -14 -7
2 1 -3 1 -7 -5 -14 -7
1 1 -3 1 -7 -5 -14 -7
0 1 -3 2 -7 -5 -14 -7
-2 1 -4 3 -6 -6 -14 -6
0 1 -4 3 -6 -6 -14 -6
1 2 -4 3 -6 -6 -14 -5
2 2 -4 3 -5 -5 -13 -5
4 3 -4 3 -5 -5 -13 -4
5 4 -4 2 -4 -4 -12 -3
5 4 -4 2 -4 -4 -12 -4
6 4 -4 1 -5 -4 -12 -4
6 5 -4 1 -5 -4 -12 -5
7 5 -4 0 -6 -4 -12 -6
8 6 -4 -2 -7 -5 -12 -7
7 6 -4 -2 -7 -5 -12 -7
6 5 -5 0 -7 -5 -13 -7
5 4 -5 1 -7 -5 -13 -7
3 3 -6 2 -7 -5 -14 -7
2 2 -7 3 -7 -4 -15 -8
2 3 -6 3 -7 -4 -14 -7
2 4 -5 3 -6 -3 -12 -5
2 5 -4 3 -5 -2 -10 -3
2 7 -3 3 -4 0 -9 -2
2 8 -2 3 -3 1 -7 1
2 8 -2 3 -3 1 -7 1
3 7 -3 3 -3 0 -8 0
4 6 -3 3 -3 0 -8 0
5 5 -4 3 -3 -2 -9 -2
6 4 -5 3 -3 -3 -10 -3
6 4 -5 2 -4 -3 -10 -4
7 4 -6 1 -5 -4 -11 -5
7 5 -7 0 -6 -5 -12 -6
8 5 -8 -2 -7 -6 -13 -7
9 6 -9 -3 -8 -7 -14 -8
9 6 -9 -3 -8 -7 -14 -8
8 6 -9 -3 -8 -7 -13 -7
8 6 -9 -3 -8 -7 -13 -6
7 6 -9 -3 -8 -7 -12 -5
6 6 -8 -4 -9 -6 -11 -4
6 6 -8 -4 -9 -6 -11 -4
6 5 -8 -5 -9 -6 -11 -4
5 5 -8 -5 -9 -7 -11 -5
5 4 -8 -6 -9 -7 -11 -5
4 3 -9 -7 -10 -8 -12 -6
3 3 -9 -7 -10 -8 -12 -6
1 3 -9 -6 -10 -8 -12 -5
-2 4 -8 -5 -9 -8 -11 -4
-3 4 -8 -4 -9 -8 -11 -3
-5 5 -7 -3 -8 -7 -10 -2
-4 5 -7 -3 -9 -7 -10 -2
-3 5 -7 -4 -10 -8 -11 -3
-2 5 -8 -5 -11 -8 -12 -4
1 5 -8 -6 -12 -9 -13 -5
2 4 -9 -7 -13 -10 -14 -6
2 4 -9 -7 -13 -10 -14 -6
2 4 -10 -7 -13 -10 -15 -6
3 3 -10 -7 -13 -11 -15 -7
3 3 -11 -7 -13 -11 -16 -7
4 2 -12 -8 -14 -12 -17 -8
4 2 -12 -9 -14 -13 -17 -9
4 1 -12 -10 -15 -14 -17 -10
3 1 -12 -11 -16 -15 -18 -11
3 0 -12 -12 -17 -16 -18 -12
2 -2 -11 -13 -18 -17 -19 -13
2 -2 -11 -12 -18 -16 -18 -12
2 -2 -11 -11 -17 -15 -17 -10
1 -2 -11 -10 -16 -14 -16 -9
1 -2 -11 -9 -15 -13 -14 -8
0 -3 -12 -8 -14 -12 -13 -6
0 -2 -12 -8 -14 -12 -13 -6
0 1 -11 -9 -14 -12 -13 -6
0 2 -10 -9 -14 -12 -13 -6
0 3 -9 -10 -14 -12 -13 -6
-2 5 -8 -11 -14 -11 -13 -7
0 5 -9 -12 -15 -12 -13 -7
1 5 -11 -13 -16 -13 -14 -8
2 4 -12 -14 -17 -14 -15 -9
3 4 -13 -15 -19 -15 -16 -10
4 3 -15 -16 -20 -16 -17 -11
4 2 -15 -16 -20 -16 -17 -11
4 1 -15 -15 -19 -16 -17 -11
4 0 -15 -15 -19 -16 -17 -10
4 -2 -15 -14 -18 -16 -17 -10
5 -3 -15 -13 -17 -15 -16 -9
5 -3 -15 -13 -17 -15 -16 -9
5 -3 -15 -14 -18 -15 -17 -9
5 -3 -16 -15 -18 -16 -18 -10
5 -3 -16 -16 -19 -16 -19 -10
4 -3 -17 -17 -20 -17 -20 -11
4 -3 -17 -17 -20 -17 -20 -11
3 -3 -17 -17 -20 -17 -20 -11
3 -3 -17 -16 -20 -18 -21 -12
2 -3 -17 -16 -20 -18 -21 -12
1 -4 -17 -15 -21 -19 -22 -13
0 -4 -17 -15 -21 -18 -21 -13
-2 -4 -16 -15 -20 -17 -19 -12
-3 -4 -15 -14 -19 -16 -17 -11
-5 -4 -14 -14 -18 -15 -16 -10
-6 -3 -13 -13 -17 -14 -14 -9
-6 -3 -13 -13 -17 -14 -14 -9
-6 -3 -13 -14 -17 -14 -14 -8
-6 -3 -13 -14 -18 -15 -14 -8
-6 -3 -13 -15 -18 -15 -14 -7
-5 -4 -14 -16 -19 -16 -14 -6
-4 -4 -14 -16 -19 -16 -14 -6
-3 -4 -15 -16 -19 -16 -15 -7
-2 -4 -15 -16 -19 -17 -16 -7
0 -4 -16 -16 -19 -17 -17 -8
1 -3 -17 -15 -20 -18 -18 -9
1 -3 -17 -15 -20 -18 -18 -9
1 -3 -17 -16 -20 -18 -18 -10
0 -3 -17 -17 -21 -18 -19 -11
0 -3 -17 -18 -21 -18 -19 -12
-2 -4 -18 -19 -22 -19 -20 -13
-2 -4 -18 -19 -22 -19 -20 -13
-2 -4 -18 -19 -22 -19 -19 -13
-2 -4 -18 -19 -22 -19 -19 -12
-2 -4 -18 -19 -22 -19 -18 -12
-2 -3 -17 -18 -22 -19 -17 -11
-2 -3 -17 -18 -22 -19 -17 -11
-3 -4 -17 -18 -22 -19 -17 -11
-3 -4 -17 -18 -21 -18 -17 -12
-4 -5 -17 -18 -21 -18 -17 -12
-5 -6 -16 -18 -20 -17 -17 -13
-5 -6 -16 -18 -20 -17 -17 -12
-5 -5 -15 -17 -20 -17 -16 -11
-4 -5 -14 -17 -19 -16 -15 -10
-4 -4 -13 -16 -19 -16 -14 -9
-3 -3 -12 -15 -18 -15 -13 -7
-2 -3 -14 -16 -19 -16 -14 -8
0 -4 -17 -17 -21 -17 -15 -9
1 -4 -19 -18 -22 -18 -16 -10
2 -5 -21 -19 -23 -19 -17 -11
4 -6 -24 -20 -25 -21 -18 -12
2 -6 -23 -20 -25 -21 -18 -12
0 -6 -21 -20 -24 -21 -18 -12
-3 -6 -19 -20 -24 -21 -18 -12
-6 -6 -18 -20 -23 -21 -18 -12
-8 -7 -16 -21 -22 -20 -18 -12
-8 -7 -17 -21 -22 -20 -18 -12
-7 -7 -18 -21 -23 -21 -19 -13
-7 -7 -19 -21 -24 -21 -20 -14
-6 -7 -20 -21 -25 -22 -21 -15
-5 -7 -21 -22 -26 -23 -22 -16
-5 -7 -20 -20 -25 -21 -20 -14
-5 -7 -19 -19 -23 -20 -18 -13
-5 -7 -18 -17 -21 -18 -16 -11
-5 -7 -17 -15 -20 -16 -14 -9
-5 -7 -15 -13 -18 -14 -12 -7
-6 -7 -15 -14 -18 -15 -13 -8
-7 -7 -15 -15 -19 -16 -14 -9
-8 -7 -16 -16 -19 -17 -15 -10
-9 -7 -16 -17 -20 -18 -16 -11
-11 -7 -17 -19 -21 -19 -18 -12
-11 -6 -17 -19 -21 -19 -18 -12
-10 -5 -16 -19 -21 -19 -18 -12
-10 -4 -15 -18 -21 -18 -18 -12
-9 -3 -14 -18 -21 -18 -18 -12
-8 0 -13 -17 -21 -17 -17 -12
-7 1 -13 -17 -21 -17 -17 -12
-6 2 -13 -17 -21 -17 -17 -11
-5 3 -13 -17 -21 -17 -16 -11
-4 4 -13 -17 -21 -17 -16 -10
-2 5 -12 -16 -21 -18 -15 -9
-3 5 -12 -16 -21 -17 -15 -9
-5 4 -12 -15 -20 -16 -14 -9
-6 3 -11 -15 -19 -15 -14 -9
-8 2 -11 -14 -18 -14 -13 -9
-10 1 -10 -13 -17 -12 -12 -8
-9 2 -10 -13 -17 -12 -12 -8
-7 3 -10 -13 -16 -11 -11 -7
-6 4 -10 -13 -15 -11 -10 -7
-4 5 -10 -13 -14 -10 -9 -6
-2 6 -9 -12 -13 -9 -8 -5
-2 6 -10 -12 -14 -10 -8 -5
-2 6 -11 -13 -15 -11 -9 -5
0 6 -13 -14 -17 -12 -9 -5
0 6 -14 -15 -18 -13 -10 -5
1 5 -16 -16 -20 -15 -11 -6
1 4 -18 -17 -20 -15 -11 -6
1 3 -20 -18 -20 -15 -11 -6
1 2 -22 -19 -21 -15 -12 -7
1 1 -24 -20 -21 -15 -12 -7
2 0 -26 -21 -22 -15 -13 -8
2 0 -25 -21 -22 -15 -13 -8
2 1 -24 -21 -22 -15 -13 -8
1 2 -23 -21 -22 -15 -12 -7
1 3 -22 -21 -22 -15 -12 -7
0 4 -21 -21 -21 -14 -11 -6
-4 2 -20 -21 -21 -14 -11 -6
-7 0 -19 -21 -21 -14 -12 -7
-10 -3 -18 -20 -21 -15 -12 -8
-13 -5 -17 -20 -21 -15 -13 -9
-16 -7 -16 -19 -20 -16 -14 -10
-16 -8 -16 -19 -20 -16 -14 -10
-15 -9 -16 -19 -20 -16 -14 -10
-14 -10 -17 -19 -20 -17 -15 -11
-13 -11 -17 -19 -20 -17 -15 -11
-12 -12 -18 -19 -21 -18 -16 -12
-12 -12 -19 -20 -22 -19 -17 -13
-12 -13 -20 -22 -23 -20 -18 -14
-12 -13 -22 -23 -25 -21 -20 -15
-12 -14 -23 -25 -26 -22 -21 -16
-13 -15 -25 -27 -28 -24 -23 -17
-13 -14 -24 -27 -28 -24 -22 -17
-12 -13 -23 -26 -27 -24 -21 -16
-12 -12 -21 -26 -27 -23 -20 -15
-11 -11 -20 -25 -26 -23 -19 -14
-10 -9 -18 -24 -25 -22 -18 -13
-10 -9 -18 -24 -25 -22 -18 -13
-10 -10 -18 -24 -25 -22 -18 -13
-11 -11 -17 -24 -25 -22 -18 -14
-11 -12 -17 -24 -25 -22 -18 -14
-12 -13 -16 -24 -26 -23 -18 -15
-10 -12 -16 -24 -26 -23 -18 -15
-8 -11 -16 -23 -26 -23 -18 -15
-6 -10 -17 -23 -26 -22 -18 -14
-4 -9 -17 -22 -26 -22 -18 -14
0 -8 -18 -21 -25 -21 -17 -13
-3 -8 -18 -21 -25 -21 -17 -13
-5 -9 -18 -21 -25 -21 -17 -13
-8 -10 -18 -22 -25 -21 -18 -14
-10 -11 -18 -22 -25 -21 -18 -14
-13 -12 -17 -23 -24 -22 -19 -15
-11 -11 -17 -23 -24 -22 -18 -15
-9 -10 -17 -23 -23 -21 -17 -14
-7 -8 -16 -23 -22 -20 -16 -14
-5 -7 -16 -23 -21 -19 -15 -13
-3 -5 -15 -22 -20 -18 -14 -12
-3 -5 -15 -22 -20 -18 -14 -12
-4 -6 -15 -22 -21 -18 -15 -12
-4 -7 -15 -23 -21 -19 -15 -12
-5 -8 -15 -23 -22 -19 -16 -12
-6 -9 -14 -24 -23 -20 -17 -13
-6 -9 -13 -24 -23 -21 -17 -13
-7 -9 -11 -24 -23 -22 -18 -14
-8 -9 -10 -24 -24 -23 -19 -15
-9 -9 -8 -24 -24 -24 -20 -16
-10 -10 -6 -23 -25 -25 -21 -17
-11 -6 2 -19 -21 -23 -20 -16
-12 0 9 -14 -16 -21 -18 -15
-13 4 17 -9 -12 -19 -17 -14
-14 8 24 -5 -8 -17 -15 -13
-16 13 31 2 -2 -13 -12 -12
-9 23 34 19 19 12 8 3
-2 33 38 36 40 35 28 16
6 43 43 54 62 60 48 30
13 53 46 71 82 84 68 44
20 63 50 90 104 108 89 58
27 69 56 120 138 141 115 75
34 76 63 150 171 173 142 93
43 84 70 181 203 204 168 110
50 90 76 212 236 237 194 128
57 97 84 240 268 268 220 145
58 84 92 247 269 264 216 142
59 70 99 255 271 260 212 139
61 57 107 262 273 256 207 136
62 44 114 270 275 251 203 133
64 29 122 276 275 244 197 129
46 8 125 238 233 196 155 98
27 -15 128 200 191 149 113 68
9 -36 131 163 148 101 72 37
-10 -59 134 126 106 53 30 8
-27 -80 137 90 65 7 -11 -22
-30 -79 138 69 45 -11 -25 -32
-34 -78 139 50 25 -28 -40 -43
-37 -77 140 30 6 -46 -55 -54
-41 -76 141 11 -14 -62 -69 -64
-46 -75 142 -9 -33 -79 -83 -74
-47 -73 153 -9 -32 -77 -81 -73
-49 -70 164 -9 -31 -75 -78 -71
-51 -68 177 -9 -30 -73 -76 -69
-53 -65 188 -9 -29 -71 -73 -67
-55 -62 199 -8 -27 -68 -70 -65
-54 -60 201 -9 -27 -68 -70 -65
-53 -58 203 -10 -27 -67 -69 -64
-51 -56 205 -11 -28 -67 -69 -64
-50 -54 207 -12 -28 -66 -68 -63
-48 -51 210 -14 -29 -65 -67 -62
-49 -50 209 -18 -30 -65 -66 -60
-50 -49 207 -23 -32 -64 -64 -58
-52 -48 205 -27 -33 -64 -63 -56
-53 -47 204 -32 -35 -63 -61 -54
-55 -46 202 -37 -37 -62 -59 -52
-55 -45 192 -40 -39 -62 -59 -52
-55 -44 181 -44 -43 -62 -59 -52
-55 -43 170 -48 -46 -62 -59 -52
-55 -41 159 -51 -49 -62 -59 -52
-56 -40 148 -55 -52 -62 -60 -53
-53 -36 132 -54 -51 -60 -57 -50
-50 -32 115 -53 -49 -57 -53 -46
-47 -28 100 -52 -47 -55 -50 -43
-44 -24 84 -51 -45 -52 -46 -38
-40 -20 67 -49 -43 -49 -41 -34
-36 -18 60 -46 -39 -46 -38 -32
-32 -15 53 -43 -35 -41 -35 -29
-28 -13 45 -39 -32 -37 -32 -27
-24 -10 37 -36 -28 -33 -29 -24
-20 -7 29 -32 -24 -29 -25 -21
-19 -6 26 -30 -22 -27 -23 -19
-17 -5 23 -27 -19 -25 -21 -17
-16 -3 19 -25 -17 -22 -19 -15
-14 -2 16 -22 -14 -20 -17 -13
-12 1 12 -19 -11 -17 -15 -10
-11 1 11 -18 -10 -16 -14 -10
-10 1 10 -17 -9 -14 -12 -9
-9 1 8 -16 -7 -13 -11 -9
-8 1 7 -15 -6 -11 -9 -8
-7 1 5 -14 -4 -9 -7 -7
-7 1 5 -13 -3 -8 -7 -6
-7 1 4 -12 -2 -7 -6 -5
-6 1 3 -11 0 -6 -6 -4
-6 1 2 -10 1 -5 -5 -3
-5 2 1 -9 2 -4 -4 0
-5 2 0 -9 2 -4 -4 0
-5 1 -2 -9 2 -4 -4 0
-5 1 -3 -10 2 -4 -4 0
-5 0 -4 -10 2 -4 -4 0
-5 -2 -5 -11 1 -5 -4 0
-4 0 -5 -11 2 -5 -4 0
-2 1 -6 -10 3 -4 -3 0
1 3 -7 -10 4 -3 -2 -2
3 4 -8 -9 4 -2 0 -2
4 5 -8 -9 5 -2 0 -2
4 6 -9 -8 6 0 1 -3
3 5 -8 -8 6 0 1 -2
1 4 -8 -7 7 1 2 0
0 3 -7 -7 7 1 2 1
-2 3 -7 -7 7 1 2 2
-2 2 -6 -5 8 2 3 3
0 2 -7 -4 9 2 3 3
1 3 -8 -3 9 3 3 4
2 3 -9 -2 10 3 3 4
3 3 -9 0 10 3 3 4
4 4 -10 1 12 4 5 5
4 4 -9 1 13 5 6 6
4 4 -9 1 14 6 8 6
4 4 -8 1 15 7 9 7
4 4 -8 1 16 8 10 7
5 5 -7 2 17 10 11 8
5 6 -7 4 18 11 11 8
5 8 -7 5 18 12 12 9
5 9 -7 7 19 13 12 9
5 10 -7 8 19 14 12 9
6 10 -8 9 20 15 13 10
6 9 -9 9 20 15 13 11
6 8 -10 8 20 15 13 12
6 7 -11 8 20 15 13 13
6 6 -11 8 20 15 13 14
7 5 -13 7 20 14 14 15
9 6 -15 7 21 14 14 15
11 6 -16 8 22 15 14 14
13 7 -18 8 23 15 14 14
14 7 -19 8 23 15 14 14
14 8 -20 10 26 18 17 14
13 8 -20 12 28 20 19 16
12 8 -20 14 30 23 21 17
11 8 -20 16 32 25 23 19
10 8 -20 18 34 27 25 20
10 9 -20 19 35 28 26 21
12 9 -21 19 35 28 26 21
14 9 -21 18 35 29 26 22
16 9 -22 18 35 29 26 22
18 9 -22 18 35 29 26 22
19 8 -23 18 38 32 29 25
18 9 -24 20 40 34 31 27
18 10 -25 22 44 37 34 29
17 11 -26 24 46 39 36 31
17 12 -26 26 48 42 38 33
18 13 -28 27 49 43 39 34
21 14 -30 27 49 43 39 34
24 14 -32 27 48 43 39 34
27 15 -34 27 48 43 39 34
30 15 -35 27 48 43 39 34
31 16 -36 26 47 43 39 33
31 16 -37 26 48 44 40 34
30 16 -38 26 49 44 42 34
30 16 -39 26 50 45 43 35
30 16 -40 26 50 45 43 35
28 16 -41 26 51 46 44 36
27 15 -43 26 51 46 44 36
26 14 -44 27 51 47 44 36
25 13 -45 27 51 47 44 36
24 13 -45 27 51 47 44 36
24 12 -47 28 52 48 45 36
25 12 -49 27 52 48 45 36
27 13 -50 27 52 48 45 37
28 13 -52 26 52 48 45 37
29 13 -53 26 52 48 45 37
29 14 -54 25 51 47 46 38
28 14 -54 25 51 47 46 38
26 14 -55 25 51 47 46 38
25 14 -55 25 51 47 46 38
24 14 -55 25 51 47 46 38
23 13 -57 26 51 47 46 38
23 13 -58 25 50 47 45 38
23 13 -59 25 49 46 45 37
23 13 -60 24 48 46 44 37
23 13 -61 24 48 46 44 37
25 13 -62 22 46 45 43 36
27 14 -63 20 45 44 42 35
28 15 -63 18 44 43 40 35
30 16 -64 16 43 42 39 34
31 17 -64 15 42 42 39 34
31 18 -65 13 38 39 38 33
29 18 -65 11 36 37 37 32
28 18 -65 9 34 36 36 32
26 18 -65 7 32 34 35 31
25 18 -65 6 30 33 35 31
24 17 -64 5 29 31 33 30
24 17 -62 5 28 30 31 29
24 18 -60 4 27 28 29 28
24 18 -58 4 26 27 27 27
24 18 -56 4 26 26 26 26
22 19 -53 3 25 25 25 25
20 20 -50 2 24 24 24 24
17 21 -47 1 23 23 23 24
15 22 -45 0 22 22 22 23
13 22 -41 0 22 22 22 23
11 22 -38 -2 20 19 19 20
9 20 -36 -3 18 17 17 18
8 19 -34 -4 16 14 14 15
6 17 -32 -5 14 11 11 13
5 16 -30 -5 13 9 9 11
4 14 -27 -6 12 8 7 10
4 12 -23 -6 12 7 6 9
4 11 -20 -6 11 6 4 8
4 9 -17 -6 11 5 3 7
4 8 -14 -6 11 4 2 6
4 7 -11 -6 10 3 0 5
3 6 -8 -6 10 2 -2 4
3 5 -5 -5 10 1 -3 3
2 4 -2 -5 10 0 -4 2
2 4 2 -5 10 0 -5 1
1 3 4 -4 9 -2 -6 0
1 3 6 -4 9 -2 -6 0
1 3 8 -4 9 -2 -6 0
1 3 10 -4 9 -2 -6 0
1 3 11 -4 9 -2 -6 0
-2 3 12 -5 10 -3 -5 1
-3 1 12 -5 9 -4 -6 0
-5 0 12 -5 8 -4 -6 -2
-6 -3 12 -5 7 -5 -7 -3
-7 -4 12 -5 7 -5 -7 -3
-7 -5 12 -5 6 -6 -8 -4
-5 -4 12 -6 5 -7 -9 -4
-3 -4 12 -7 4 -8 -10 -4
0 -3 12 -8 3 -9 -11 -4
1 -3 12 -8 3 -9 -11 -4
2 -2 12 -9 2 -10 -12 -5
1 -3 12 -9 2 -10 -12 -5
0 -4 12 -9 2 -10 -12 -6
-2 -5 12 -9 2 -10 -12 -6
-2 -5 12 -9 2 -10 -12 -6
-3 -6 12 -8 3 -9 -12 -7
-2 -6 12 -8 3 -10 -13 -7
0 -6 12 -9 2 -10 -13 -8
1 -6 12 -9 2 -11 -14 -8
2 -6 12 -9 2 -11 -14 -8
2 -5 11 -10 1 -12 -15 -9
1 -5 11 -9 2 -11 -14 -9
-2 -5 11 -8 3 -10 -13 -9
-3 -5 11 -7 4 -9 -12 -9
-4 -5 11 -6 4 -9 -11 -9
-5 -5 12 -5 5 -8 -10 -8
-6 -5 12 -5 5 -8 -10 -7
-7 -5 12 -5 5 -8 -10 -7
-8 -5 12 -5 5 -8 -10 -6
-9 -5 12 -5 5 -8 -10 -6
-10 -5 12 -5 5 -7 -11 -5
-10 -5 12 -5 5 -7 -11 -6
-9 -4 12 -5 5 -7 -11 -6
-9 -4 12 -5 5 -7 -11 -7
-9 -4 12 -5 5 -7 -11 -7
-8 -3 12 -5 5 -6 -11 -8
-7 -3 12 -5 5 -6 -11 -8
-6 -3 12 -4 6 -6 -11 -7
-5 -3 12 -4 6 -6 -11 -7
-5 -3 12 -4 6 -6 -11 -7
-4 -4 13 -3 7 -7 -12 -6
-4 -4 12 -3 7 -7 -11 -6
-5 -4 11 -4 6 -7 -11 -6
-5 -4 10 -4 6 -7 -10 -6
-5 -4 9 -4 6 -7 -10 -6
-5 -4 8 -5 5 -6 -9 -7
-3 -2 8 -5 5 -6 -9 -6
0 1 8 -5 5 -5 -9 -6
2 2 8 -5 5 -5 -9 -5
4 4 8 -5 5 -5 -9 -5
4 5 9 -5 5 -4 -9 -4
3 4 10 -4 6 -3 -8 -4
1 4 10 -3 7 -3 -7 -4
0 3 11 -2 8 -2 -6 -4
-2 3 11 0 9 -2 -6 -4
-3 2 12 1 9 0 -5 -3
-3 2 11 0 8 -2 -6 -3
-3 1 11 0 6 -3 -7 -3
-3 1 10 -2 5 -4 -8 -3
-3 1 10 -2 4 -5 -8 -3
-3 0 9 -3 3 -6 -9 -4
-3 0 9 -3 3 -6 -9 -4
-3 0 9 -4 4 -6 -9 -4
-3 0 9 -4 4 -6 -9 -4
-3 0 9 -4 4 -6 -9 -4
-3 -2 7 -5 5 -6 -8 -5
-2 -2 6 -6 4 -7 -9 -6
0 -2 5 -7 3 -8 -10 -7
1 -2 4 -8 2 -9 -11 -8
1 -2 3 -8 1 -9 -12 -8
1 -3 2 -9 0 -10 -13 -9
0 -3 2 -9 0 -10 -13 -9
-3 -3 2 -9 0 -10 -13 -9
-5 -3 2 -9 0 -10 -13 -9
-6 -3 2 -9 0 -10 -13 -9
-7 -2 3 -10 0 -10 -12 -9
-8 -2 3 -10 0 -10 -12 -8
-8 -3 3 -10 0 -10 -12 -8
-9 -3 3 -10 0 -10 -12 -7
-9 -3 3 -10 0 -10 -12 -7
-10 -4 4 -9 -2 -10 -11 -6
-10 -4 4 -9 -2 -10 -11 -6
-10 -4 3 -10 -3 -10 -10 -6
-10 -4 3 -10 -3 -10 -10 -6
-10 -4 3 -10 -3 -10 -10 -6
-9 -3 1 -12 -5 -11 -10 -7
-6 -3 0 -13 -6 -12 -11 -8
-3 -4 -2 -14 -7 -13 -13 -8
1 -4 -3 -15 -8 -14 -15 -9
4 -4 -4 -16 -9 -15 -16 -9
4 -5 -5 -17 -10 -16 -17 -10
2 -5 -5 -17 -10 -16 -17 -10
0 -5 -5 -17 -10 -16 -16 -10
-2 -5 -5 -17 -10 -16 -16 -10
-4 -5 -5 -17 -10 -16 -16 -10
-5 -4 -4 -16 -10 -16 -15 -10
-4 -5 -5 -16 -10 -16 -15 -10
-4 -5 -6 -16 -9 -16 -15 -11
-3 -6 -7 -16 -9 -16 -15 -11
-3 -6 -7 -16 -9 -16 -15 -11
-3 -7 -8 -15 -8 -16 -15 -12
-4 -7 -7 -15 -8 -16 -15 -12
-6 -7 -6 -15 -8 -15 -15 -11
-8 -7 -5 -15 -8 -15 -15 -11
-9 -7 -5 -15 -8 -15 -15 -11
-10 -6 -4 -15 -8 -14 -14 -10
-9 -6 -4 -16 -9 -14 -15 -11
-8 -6 -5 -17 -9 -15 -15 -11
-7 -6 -5 -18 -10 -15 -16 -12
-7 -6 -5 -18 -10 -15 -16 -12
-6 -6 -6 -19 -11 -16 -17 -13
-4 -6 -6 -19 -11 -16 -17 -13
-3 -5 -6 -18 -11 -16 -17 -14
-2 -5 -6 -18 -11 -16 -17 -14
0 -5 -6 -18 -11 -16 -17 -14
0 -4 -7 -17 -10 -16 -17 -15
-2 -5 -8 -17 -11 -16 -17 -14
-3 -5 -8 -18 -12 -16 -16 -14
-5 -6 -9 -18 -13 -16 -16 -13
-6 -6 -9 -18 -13 -16 -16 -13
-7 -7 -10 -19 -14 -17 -15 -12
-6 -7 -10 -19 -14 -17 -16 -12
-5 -8 -10 -19 -14 -17 -16 -13
-4 -8 -10 -19 -14 -17 -17 -13
-3 -8 -10 -19 -14 -17 -17 -13
-3 -9 -11 -19 -13 -18 -18 -14
-4 -9 -11 -18 -13 -17 -18 -14
-6 -8 -10 -17 -13 -17 -17 -13
-8 -8 -10 -16 -13 -16 -17 -13
-9 -8 -10 -16 -13 -16 -17 -13
-9 -7 -9 -15 -13 -15 -16 -12
-8 -7 -9 -16 -13 -15 -16 -12
-7 -7 -9 -16 -13 -15 -15 -12
-5 -7 -9 -17 -13 -15 -15 -12
-4 -7 -9 -17 -13 -15 -15 -12
-3 -7 -8 -18 -13 -15 -14 -12
-3 -7 -9 -18 -13 -15 -14 -12
-4 -8 -10 -18 -13 -16 -14 -12
-4 -8 -11 -18 -13 -16 -14 -12
-4 -8 -11 -18 -13 -16 -14 -12
-5 -9 -12 -18 -14 -17 -15 -13
-5 -9 -13 -18 -14 -17 -16 -13
-5 -9 -13 -19 -14 -17 -16 -13
-5 -9 -14 -19 -14 -17 -17 -13
-5 -9 -14 -19 -14 -17 -17 -13
-5 -10 -15 -20 -14 -17 -18 -14
-6 -10 -14 -20 -14 -17 -18 -14
-7 -9 -14 -19 -15 -17 -17 -13
-8 -9 -13 -19 -15 -17 -17 -13
-8 -9 -13 -19 -15 -17 -17 -13
-9 -8 -12 -18 -16 -16 -16 -12
-7 -8 -12 -18 -16 -16 -16 -12
-6 -8 -12 -18 -16 -16 -16 -12
-5 -8 -12 -18 -16 -16 -16 -12
-4 -8 -12 -18 -16 -16 -16 -12
-3 -7 -12 -18 -15 -17 -16 -13
-4 -7 -12 -17 -15 -17 -16 -13
-4 -7 -12 -17 -14 -17 -16 -13
-5 -7 -12 -16 -14 -17 -16 -13
-5 -7 -12 -16 -14 -17 -16 -13
-6 -8 -12 -15 -13 -16 -15 -12
-6 -8 -13 -16 -13 -16 -15 -12
-6 -8 -13 -16 -14 -16 -15 -12
-6 -8 -14 -17 -14 -16 -15 -12
-6 -8 -14 -17 -14 -16 -15 -12
-7 -9 -15 -18 -15 -15 -14 -11
-8 -10 -14 -18 -15 -15 -14 -11
-8 -10 -14 -18 -16 -16 -15 -12
-9 -11 -13 -18 -16 -16 -15 -12
-9 -11 -13 -18 -16 -16 -15 -12
-9 -12 -12 -17 -17 -17 -16 -13
-8 -10 -12 -17 -17 -17 -16 -13
-7 -9 -12 -17 -16 -16 -16 -13
-5 -8 -12 -17 -16 -16 -16 -13
-4 -7 -12 -17 -16 -16 -16 -13
-3 -6 -12 -18 -15 -15 -15 -12
-3 -6 -12 -18 -15 -15 -15 -12
-4 -6 -13 -18 -15 -15 -15 -12
-4 -6 -13 -18 -15 -15 -15 -12
-4 -6 -13 -18 -15 -15 -15 -12
-5 -7 -14 -17 -16 -16 -15 -12
-4 -7 -14 -17 -16 -15 -14 -12
-4 -6 -14 -17 -16 -15 -13 -12
-3 -6 -14 -17 -16 -14 -12 -12
-3 -6 -14 -17 -16 -14 -12 -12
-2 -5 -12 -17 -15 -13 -11 -12
-3 -4 -11 -16 -14 -11 -10 -11
-4 -3 -10 -15 -13 -10 -9 -10
-5 -2 -8 -14 -12 -9 -8 -9
-5 0 -7 -13 -11 -8 -8 -9
-5 1 -6 -12 -10 -7 -7 -8
-3 2 -6 -12 -10 -8 -7 -8
1 2 -6 -12 -11 -8 -7 -8
3 3 -6 -12 -11 -9 -7 -8
5 3 -6 -12 -11 -9 -7 -8
6 4 -5 -12 -12 -10 -8 -8
5 5 -5 -11 -10 -8 -7 -7
4 5 -5 -11 -9 -7 -6 -6
3 6 -5 -10 -8 -6 -5 -5
2 6 -5 -10 -7 -5 -4 -4
1 6 -6 -9 -6 -4 -3 -3
0 5 -7 -9 -6 -4 -3 -3
0 4 -9 -9 -6 -4 -4 -4
-2 2 -10 -9 -6 -4 -4 -4
-2 1 -12 -9 -6 -4 -4 -4
-3 0 -14 -9 -8 -6 -5 -5
0 0 -15 -12 -11 -7 -6 -5
1 0 -17 -14 -14 -8 -7 -5
2 0 -18 -16 -16 -10 -7 -5
3 0 -20 -19 -19 -11 -8 -5
4 1 -21 -20 -20 -12 -9 -5
3 0 -21 -19 -18 -11 -8 -5
2 0 -21 -18 -17 -11 -7 -4
1 -2 -21 -18 -16 -10 -7 -4
0 -2 -21 -17 -15 -10 -6 -4
-2 -3 -20 -16 -14 -9 -5 -3
-2 -2 -19 -15 -14 -9 -5 -3
-2 0 -18 -14 -14 -8 -5 -4
-2 0 -18 -14 -14 -8 -5 -4
-2 1 -17 -13 -14 -8 -5 -4
-3 1 -16 -13 -14 -8 -6 -6
-4 -3 -16 -14 -15 -9 -8 -7
-4 -5 -16 -15 -16 -10 -9 -8
-5 -7 -16 -17 -18 -12 -10 -10
-5 -10 -16 -18 -19 -13 -11 -11
-6 -11 -17 -19 -20 -14 -12 -12
-5 -10 -17 -18 -19 -14 -12 -12
-4 -9 -16 -18 -19 -13 -12 -11
-4 -9 -16 -17 -18 -13 -12 -11
-3 -8 -16 -17 -18 -13 -12 -11
-2 -7 -15 -16 -17 -12 -11 -10
-2 -8 -16 -17 -18 -14 -12 -11
0 -9 -16 -17 -19 -15 -13 -12
0 -9 -17 -18 -20 -16 -13 -13
0 -10 -17 -18 -21 -17 -14 -14
0 -12 -18 -19 -22 -18 -15 -15
-4 -13 -18 -19 -22 -18 -15 -15
-7 -15 -18 -19 -22 -18 -15 -14
-9 -16 -18 -19 -22 -18 -15 -14
-12 -18 -18 -19 -22 -18 -15 -14
-13 -19 -18 -18 -23 -17 -14 -13
-12 -18 -18 -18 -23 -17 -14 -14
-12 -17 -18 -18 -22 -17 -14 -15
-11 -16 -18 -18 -22 -17 -14 -15
-11 -15 -18 -18 -22 -17 -14 -16
-10 -14 -19 -18 -21 -17 -14 -17
-9 -13 -18 -18 -21 -17 -14 -16
-9 -12 -17 -18 -21 -16 -13 -15
-8 -11 -16 -18 -21 -16 -13 -15
-8 -10 -15 -18 -21 -16 -13 -14
-7 -9 -14 -18 -21 -15 -12 -13
-7 -10 -14 -18 -21 -15 -12 -14
-7 -11 -14 -18 -21 -16 -13 -15
-7 -11 -14 -18 -21 -16 -13 -15
-7 -12 -14 -18 -21 -16 -13 -16
-8 -13 -15 -19 -22 -17 -14 -17
-9 -14 -15 -20 -23 -18 -15 -17
-9 -15 -16 -22 -24 -19 -16 -17
-10 -15 -16 -23 -25 -19 -17 -17
-10 -16 -16 -25 -26 -20 -18 -17
-11 -16 -17 -25 -26 -21 -18 -18
-11 -14 -15 -23 -25 -19 -17 -17
-10 -13 -14 -21 -23 -18 -15 -16
-10 -11 -12 -19 -22 -17 -14 -15
-10 -9 -11 -17 -20 -16 -12 -14
-9 -7 -7 -16 -19 -15 -11 -13
-11 -5 0 -15 -19 -16 -13 -15
-12 -3 5 -14 -20 -17 -14 -16
-13 0 10 -13 -20 -17 -16 -17
-14 2 16 -12 -20 -18 -17 -18
-12 9 19 -2 -10 -7 -8 -12
-7 18 22 12 7 12 8 0
-3 27 24 26 24 29 23 11
3 36 26 39 40 48 39 22
8 46 29 53 57 66 55 33
16 54 37 80 87 95 77 49
26 62 48 113 121 128 104 65
35 70 59 146 156 160 131 82
46 78 70 179 191 193 157 100
55 87 80 212 226 226 184 116
60 87 88 233 243 240 195 125
62 82 93 247 254 244 199 128
63 78 97 263 264 250 203 132
65 73 102 278 274 254 206 135
67 69 107 294 283 259 211 138
58 48 114 280 265 233 188 121
42 19 122 253 232 191 151 93
26 -11 131 225 198 149 114 64
10 -40 139 197 165 108 76 35
-6 -69 147 169 132 66 39 8
-16 -79 150 137 98 33 12 -13
-23 -81 149 102 63 5 -12 -28
-29 -82 148 68 28 -24 -36 -45
-36 -83 148 33 -7 -53 -60 -60
-43 -85 147 0 -40 -81 -83 -75
-46 -82 150 -13 -52 -90 -90 -80
-46 -77 157 -12 -50 -87 -87 -79
-47 -73 164 -12 -48 -82 -83 -77
-47 -68 171 -11 -45 -79 -80 -76
-47 -63 178 -11 -43 -76 -77 -74
-49 -61 183 -10 -41 -73 -75 -72
-50 -61 186 -11 -41 -71 -73 -70
-52 -60 190 -12 -41 -69 -71 -68
-54 -59 193 -12 -41 -66 -69 -66
-56 -59 196 -13 -41 -64 -67 -64
-57 -58 195 -15 -40 -63 -66 -63
-58 -57 190 -18 -41 -63 -66 -62
-60 -55 185 -21 -43 -63 -65 -61
-61 -54 180 -24 -43 -63 -64 -61
-62 -53 175 -27 -44 -63 -64 -60
-63 -51 169 -31 -46 -62 -63 -59
-61 -48 161 -34 -47 -62 -62 -59
-60 -45 154 -38 -49 -62 -60 -59
-58 -41 147 -41 -51 -62 -59 -59
-57 -38 140 -45 -53 -62 -58 -59
-55 -36 127 -47 -54 -61 -56 -56
-52 -34 111 -47 -54 -58 -53 -53
-49 -32 95 -47 -53 -55 -50 -49
-46 -29 79 -47 -53 -52 -47 -46
-43 -27 63 -47 -53 -49 -44 -43
-41 -24 53 -46 -51 -46 -39 -38
-39 -21 46 -43 -48 -43 -36 -35
-38 -17 38 -39 -45 -38 -33 -32
-36 -13 31 -36 -41 -35 -30 -29
-35 -10 24 -33 -38 -32 -27 -26
-32 -8 19 -30 -36 -29 -24 -23
-29 -8 14 -27 -33 -27 -22 -22
-26 -8 10 -24 -30 -25 -20 -20
-22 -8 5 -21 -27 -22 -17 -19
-19 -8 1 -18 -24 -20 -15 -17
-16 -7 -2 -17 -23 -18 -13 -15
-14 -6 -2 -16 -22 -17 -12 -14
-11 -4 -3 -14 -20 -15 -10 -12
-9 -3 -3 -13 -19 -13 -8 -11
-6 -2 -3 -12 -18 -11 -6 -9
-5 0 -4 -10 -16 -9 -4 -8
-5 1 -5 -8 -14 -8 -3 -7
-5 2 -6 -6 -12 -6 0 -5
-5 2 -7 -4 -10 -4 1 -4
-5 3 -8 -2 -8 -2 3 -3
-5 4 -9 0 -7 0 4 -2
-4 4 -9 -2 -8 0 3 -2
-3 3 -10 -3 -9 -2 2 -3
-2 3 -11 -4 -9 -3 2 -3
0 3 -11 -5 -10 -3 1 -3
1 2 -12 -6 -11 -4 0 -4
1 2 -12 -5 -9 -4 0 -4
1 2 -13 -3 -8 -3 1 -3
1 2 -13 -2 -6 -2 1 -3
1 2 -13 0 -5 -2 1 -3
1 2 -14 1 -4 0 2 -2
1 2 -15 1 -4 0 2 -2
2 3 -16 0 -5 0 2 -2
2 3 -16 -2 -6 0 2 -2
2 3 -17 -2 -6 0 2 -2
3 4 -18 -3 -7 -2 3 -3
3 4 -18 -3 -6 0 4 -3
4 4 -18 -2 -5 1 5 -2
4 4 -18 0 -4 2 5 0
4 4 -18 0 -3 3 6 0
5 5 -19 1 -2 4 7 1
5 5 -19 1 -2 5 8 3
4 5 -19 2 0 6 10 4
3 5 -19 3 0 6 11 6
3 5 -19 3 0 7 12 7
2 6 -20 4 1 8 13 8
2 6 -20 5 2 9 13 8
3 6 -21 6 3 10 14 9
4 6 -21 7 3 10 15 9
4 6 -21 8 4 11 15 9
5 7 -22 9 5 12 16 10
6 7 -22 9 6 13 17 10
7 8 -23 10 7 14 18 11
7 9 -24 11 8 14 18 11
8 9 -24 11 9 15 19 11
9 10 -25 12 10 16 20 12
9 9 -25 12 10 16 20 13
9 8 -26 13 11 17 20 14
9 8 -26 13 11 17 20 14
9 7 -26 13 11 17 20 15
10 6 -27 14 12 18 21 16
12 7 -27 14 13 19 23 16
13 8 -28 15 15 21 24 17
15 9 -28 16 16 22 26 18
16 10 -28 16 17 23 27 18
17 11 -29 17 18 24 28 19
17 11 -29 19 20 26 30 20
17 11 -30 20 22 28 32 21
17 11 -30 22 23 29 33 21
17 11 -30 23 25 31 35 22
16 12 -31 24 26 32 36 23
16 12 -31 24 26 32 37 23
15 12 -32 25 27 33 38 24
14 12 -33 25 27 34 39 25
14 12 -33 25 27 34 40 25
13 13 -35 26 28 35 42 26
14 12 -38 26 29 36 42 27
15 10 -41 27 30 37 43 28
15 9 -45 27 31 37 43 28
16 8 -47 27 32 38 43 29
18 8 -49 28 33 39 44 30
20 10 -49 28 33 40 45 31
22 13 -49 29 34 43 47 33
24 15 -49 29 34 44 48 34
26 17 -49 29 34 45 49 35
27 19 -50 30 35 46 50 36
28 18 -53 30 36 46 50 36
30 17 -56 31 37 46 50 36
31 16 -59 31 37 46 50 36
32 15 -61 31 38 46 50 36
33 14 -63 32 39 47 51 37
33 14 -64 32 39 47 51 37
33 15 -65 31 38 47 51 38
33 15 -65 31 37 47 51 38
33 15 -66 31 37 47 51 38
33 16 -67 30 36 47 52 39
32 16 -67 30 36 47 52 39
30 16 -68 29 37 47 53 39
29 16 -69 29 38 47 54 39
28 16 -69 29 38 47 54 39
27 15 -70 28 39 48 55 39
28 15 -71 28 39 48 55 39
29 16 -72 28 39 49 55 40
29 16 -72 28 39 49 55 40
30 16 -73 28 39 49 55 40
31 17 -74 27 37 49 56 42
31 17 -75 26 35 48 54 40
31 17 -77 24 33 46 52 39
31 17 -78 22 31 44 51 38
31 17 -79 20 29 42 49 37
31 17 -80 19 28 40 48 36
29 18 -80 17 27 40 48 36
26 20 -80 16 26 39 48 35
24 21 -80 15 26 38 48 35
22 22 -80 13 25 38 48 35
20 23 -79 12 24 37 47 34
20 23 -78 12 23 37 47 34
20 22 -76 12 22 37 46 34
20 21 -74 12 22 37 45 34
20 21 -72 12 21 37 45 34
19 20 -70 11 19 35 43 34
18 20 -68 9 17 32 40 32
17 20 -66 7 14 29 38 30
17 20 -64 5 12 27 36 28
16 20 -62 2 10 24 33 26
15 19 -60 1 8 21 31 25
15 19 -57 1 7 19 29 23
16 19 -54 0 6 17 27 22
16 19 -51 -2 6 15 25 21
16 19 -48 -2 5 13 22 19
16 18 -45 -3 4 12 21 18
14 18 -40 -3 4 11 20 16
12 17 -37 -2 3 10 18 14
10 17 -33 -2 3 9 17 12
8 17 -30 -2 3 8 16 10
7 16 -27 0 2 7 15 9
7 15 -23 0 2 6 14 8
6 14 -20 -2 1 4 13 7
5 13 -16 -2 0 3 12 6
5 12 -13 -2 0 2 11 5
4 11 -11 -3 -2 1 10 4
2 10 -9 -3 -2 1 10 4
1 8 -7 -2 0 1 10 4
0 7 -5 -2 0 1 10 4
-3 6 -3 -2 0 1 10 4
-4 4 -2 0 1 2 9 4
-4 2 -2 0 0 0 7 2
-4 0 -2 0 -2 -2 6 0
-4 -3 -2 0 -2 -3 5 -2
-4 -5 -2 0 -3 -5 3 -4
-5 -7 0 0 -4 -6 2 -5
-4 -5 2 0 -4 -6 2 -4
-3 -3 3 -2 -4 -6 2 -3
-3 0 4 -2 -4 -6 2 -3
-2 2 6 -2 -4 -6 2 -2
0 3 7 -3 -5 -6 1 0
-3 1 7 -3 -4 -6 1 0
-4 0 7 -2 -3 -6 2 0
-5 -2 7 -2 -2 -6 3 0
-7 -4 7 -2 0 -6 3 0
-8 -5 8 0 1 -5 4 1
-6 -5 8 0 1 -5 4 1
-4 -5 7 0 0 -5 3 0
-2 -5 7 0 -2 -5 2 -2
1 -5 7 0 -2 -5 2 -2
2 -4 6 -2 -3 -6 1 -3
1 -4 7 -2 -3 -6 1 -3
-2 -4 8 -2 -3 -6 1 -3
-3 -4 8 -2 -3 -6 1 -3
-4 -4 9 -2 -3 -6 1 -3
-5 -5 10 0 -3 -5 2 -3
-5 -5 10 0 -3 -5 2 -3
-6 -4 9 0 -2 -5 2 -2
-7 -4 8 0 -2 -5 2 -2
-7 -4 8 0 -2 -5 2 -2
-8 -3 7 -2 0 -6 2 0
-7 0 7 -2 0 -6 2 0
-5 2 7 0 0 -5 2 0
-4 3 7 0 0 -5 2 0
-3 5 7 0 0 -5 2 0
-2 6 7 1 0 -4 3 1
-3 4 7 1 0 -4 3 1
-4 3 8 0 0 -4 4 1
-4 2 8 0 0 -4 5 1
-5 0 8 0 0 -4 5 1
-6 -2 9 -2 0 -4 6 2
-5 -2 8 -2 0 -4 6 2
-4 -2 7 -2 0 -4 6 2
-3 -2 6 -2 0 -4 6 2
-2 -2 5 -2 0 -4 6 2
0 0 4 0 0 -4 5 1
-2 0 4 0 0 -4 4 1
-3 0 4 0 0 -5 4 0
-4 0 4 0 0 -6 3 -2
-5 0 4 0 0 -6 2 -2
-6 0 4 -2 -2 -7 1 -3
-8 0 4 -2 -2 -6 2 -2
-9 0 4 -2 0 -5 3 0
-10 0 5 0 1 -3 4 1
-12 0 5 0 1 -2 5 2
-12 0 6 1 2 0 6 3
-9 1 6 0 2 -2 6 3
-7 2 6 0 2 -2 5 2
-4 4 5 -2 1 -3 4 1
0 5 5 -3 1 -4 4 1
2 6 4 -4 0 -5 3 0
1 5 4 -4 0 -5 3 0
0 5 4 -4 -2 -5 3 0
-2 4 4 -4 -3 -5 3 0
-3 3 4 -4 -3 -5 3 0
-4 2 5 -4 -4 -6 2 -2
-4 2 3 -5 -5 -6 2 -2
-5 2 1 -6 -5 -6 2 -2
-6 2 -2 -8 -6 -7 2 0
-6 2 -4 -9 -7 -7 2 0
-7 2 -5 -10 -8 -8 1 1
-7 2 -4 -10 -7 -8 1 1
-7 2 -4 -9 -6 -8 1 1
-7 2 -3 -8 -5 -7 2 2
-7 2 -2 -8 -4 -7 2 2
-7 1 0 -7 -3 -6 3 3
-7 1 0 -7 -3 -6 3 2
-7 1 0 -7 -4 -6 3 2
-7 2 -2 -8 -5 -7 3 1
-7 2 -2 -8 -5 -7 3 0
-7 3 -3 -9 -6 -8 2 -2
-6 2 -3 -9 -6 -8 1 -2
-6 1 -4 -10 -7 -9 1 -2
-5 0 -5 -11 -8 -10 0 -3
-4 -2 -5 -11 -8 -10 -2 -3
-3 -3 -6 -12 -9 -11 -3 -4
-3 -3 -6 -13 -10 -12 -3 -4
-3 -3 -6 -13 -11 -12 -3 -4
-4 -3 -7 -14 -13 -13 -4 -4
-4 -3 -7 -15 -14 -14 -4 -4
-5 -4 -8 -16 -15 -15 -5 -5
-5 -4 -8 -16 -13 -15 -5 -5
-5 -4 -7 -15 -12 -14 -5 -5
-5 -3 -6 -14 -11 -13 -4 -5
-5 -3 -6 -14 -9 -13 -4 -5
-5 -2 -5 -13 -8 -12 -3 -4
-6 -3 -7 -14 -10 -13 -5 -5
-7 -3 -8 -15 -11 -14 -6 -6
-8 -4 -9 -17 -12 -16 -7 -7
-9 -5 -11 -18 -14 -17 -9 -8
-10 -6 -12 -19 -15 -18 -10 -9
-10 -4 -11 -18 -15 -18 -9 -8
-10 -3 -11 -18 -14 -17 -8 -8
-10 0 -10 -17 -13 -16 -7 -7
-10 2 -9 -16 -13 -16 -6 -6
-10 3 -8 -15 -12 -15 -5 -5
-9 2 -8 -15 -12 -15 -5 -5
-8 1 -9 -15 -12 -15 -5 -5
-7 0 -10 -16 -12 -16 -6 -6
-6 -2 -10 -16 -12 -16 -6 -6
-5 -3 -11 -17 -13 -17 -7 -7
-5 -3 -11 -17 -13 -17 -7 -7
-5 -3 -11 -17 -13 -17 -7 -7
-6 -4 -11 -16 -13 -17 -7 -7
-6 -4 -11 -16 -13 -17 -7 -7
-7 -5 -11 -15 -13 -16 -6 -7
-7 -5 -11 -16 -13 -16 -6 -7
-7 -5 -11 -17 -14 -16 -7 -7
-8 -5 -11 -18 -15 -17 -8 -7
-8 -5 -11 -19 -15 -17 -8 -7
-9 -6 -12 -20 -16 -18 -9 -8
-7 -6 -13 -20 -16 -18 -9 -8
-5 -5 -14 -20 -16 -18 -9 -8
-3 -4 -16 -20 -17 -18 -9 -8
0 -4 -17 -20 -17 -18 -9 -8
2 -3 -18 -20 -18 -17 -8 -8
0 -3 -17 -20 -17 -17 -8 -8
-3 -3 -16 -19 -17 -17 -7 -8
-5 -3 -15 -18 -16 -17 -6 -7
-7 -3 -14 -18 -15 -17 -6 -7
-9 -3 -13 -17 -14 -17 -5 -6
-9 -3 -13 -17 -14 -17 -5 -6
-9 -3 -13 -17 -14 -17 -5 -7
-9 -4 -14 -18 -14 -17 -6 -8
-9 -4 -14 -18 -14 -17 -6 -8
-8 -5 -15 -19 -15 -16 -7 -9
-8 -4 -15 -19 -16 -17 -8 -9
-8 -4 -15 -20 -17 -18 -8 -9
-8 -3 -15 -21 -18 -19 -9 -9
-8 -2 -15 -21 -19 -20 -10 -9
-7 0 -14 -22 -20 -21 -11 -9
-7 -2 -14 -22 -19 -21 -11 -9
-7 -4 -14 -21 -19 -21 -11 -9
-7 -5 -14 -20 -18 -20 -11 -9
-7 -7 -14 -20 -17 -20 -11 -9
-8 -8 -15 -19 -16 -19 -11 -10
-9 -8 -15 -19 -16 -19 -11 -10
-9 -8 -15 -20 -17 -19 -11 -10
-10 -8 -15 -21 -18 -20 -11 -10
-11 -8 -15 -21 -18 -20 -11 -10
-12 -8 -15 -22 -19 -21 -11 -11
-10 -6 -15 -21 -18 -20 -10 -10
-8 -5 -15 -20 -17 -19 -9 -10
-6 -3 -14 -18 -15 -18 -8 -9
-5 0 -14 -17 -14 -17 -7 -8
-3 1 -13 -16 -13 -16 -6 -7
-4 0 -13 -17 -14 -16 -6 -7
-4 0 -13 -17 -15 -17 -7 -7
-5 -2 -13 -18 -17 -18 -8 -7
-6 -3 -13 -19 -18 -18 -8 -7
-7 -4 -14 -20 -19 -19 -9 -7
-7 -4 -14 -20 -19 -19 -9 -7
-7 -5 -14 -20 -19 -19 -9 -7
-7 -6 -15 -20 -19 -19 -9 -8
-7 -6 -15 -20 -19 -19 -9 -8
-7 -7 -16 -21 -18 -19 -10 -9
-7 -7 -16 -21 -18 -19 -10 -9
-7 -7 -16 -21 -18 -19 -10 -10
-7 -7 -15 -20 -18 -19 -11 -11
-7 -7 -15 -20 -18 -19 -11 -11
-8 -7 -14 -19 -18 -18 -12 -12
-8 -7 -14 -19 -18 -18 -12 -12
-8 -7 -14 -19 -18 -18 -12 -12
-8 -6 -14 -19 -17 -18 -12 -11
-8 -6 -14 -19 -17 -18 -12 -11
-8 -5 -15 -19 -16 -18 -11 -10
-8 -5 -15 -19 -16 -18 -11 -10
-7 -5 -15 -19 -17 -18 -11 -10
-6 -6 -15 -20 -18 -19 -12 -10
-6 -6 -15 -20 -18 -19 -12 -10
-5 -7 -15 -21 -19 -20 -13 -11
-5 -5 -15 -20 -18 -19 -11 -11
-5 -3 -15 -20 -18 -18 -10 -10
-5 0 -14 -19 -17 -16 -8 -9
-5 1 -14 -18 -16 -15 -6 -9
-6 3 -13 -17 -15 -14 -5 -8
-6 3 -13 -17 -15 -14 -5 -8
-6 3 -12 -17 -15 -14 -6 -8
-6 2 -11 -17 -15 -14 -7 -8
-6 2 -11 -17 -15 -14 -7 -8
-5 1 -10 -17 -15 -15 -8 -7
-5 3 -10 -17 -15 -15 -8 -7
-4 4 -10 -17 -15 -15 -8 -7
-3 6 -10 -17 -15 -15 -8 -7
-3 8 -10 -17 -15 -15 -8 -7
-2 9 -11 -17 -14 -15 -8 -7
-2 9 -11 -15 -13 -14 -7 -6
-2 10 -11 -14 -12 -14 -7 -6
-2 11 -11 -12 -11 -13 -6 -5
-2 11 -11 -11 -10 -12 -5 -4
-2 12 -10 -9 -9 -11 -4 -3
1 12 -11 -12 -11 -12 -5 -3
3 11 -12 -14 -13 -12 -5 -4
5 10 -14 -16 -15 -13 -6 -5
6 10 -15 -18 -16 -14 -7 -5
8 9 -16 -20 -18 -15 -8 -6
7 9 -17 -20 -18 -15 -8 -6
6 9 -18 -20 -18 -15 -8 -6
4 9 -19 -20 -18 -15 -8 -6
3 9 -20 -20 -18 -15 -8 -6
2 10 -21 -20 -17 -16 -9 -7
2 10 -20 -19 -17 -15 -8 -6
2 10 -19 -18 -17 -15 -7 -6
2 10 -17 -17 -17 -14 -6 -5
2 10 -16 -16 -17 -13 -5 -4
2 10 -15 -15 -16 -12 -4 -3
2 8 -15 -16 -16 -13 -6 -4
2 7 -15 -17 -17 -14 -8 -5
2 5 -15 -19 -18 -15 -10 -7
2 4 -15 -20 -18 -16 -11 -8
1 2 -16 -21 -19 -17 -13 -9
1 2 -16 -21 -19 -17 -13 -10
1 2 -16 -21 -19 -18 -13 -11
0 1 -16 -21 -20 -19 -14 -13
0 1 -16 -21 -20 -19 -14 -14
-2 0 -17 -21 -21 -20 -15 -15
-3 -3 -17 -22 -22 -21 -16 -15
-4 -6 -18 -23 -23 -22 -16 -16
-5 -8 -19 -25 -24 -23 -17 -17
-6 -10 -19 -26 -25 -24 -18 -17
-7 -12 -20 -27 -26 -25 -19 -18
-7 -11 -19 -27 -26 -24 -19 -17
-7 -11 -19 -26 -25 -23 -18 -17
-8 -10 -18 -25 -24 -22 -17 -16
-8 -9 -17 -25 -24 -21 -17 -15
-9 -8 -16 -24 -23 -20 -16 -14
-9 -8 -16 -24 -22 -20 -16 -14
-9 -8 -16 -23 -21 -20 -16 -14
-8 -8 -16 -22 -20 -20 -15 -13
-8 -8 -16 -22 -19 -20 -15 -13
-7 -8 -16 -21 -18 -19 -14 -12
-7 -9 -16 -21 -19 -19 -14 -12
-7 -9 -16 -21 -20 -19 -15 -12
-7 -10 -16 -21 -21 -20 -16 -12
-7 -11 -16 -21 -22 -20 -16 -12
-7 -12 -16 -22 -23 -21 -17 -13
-8 -12 -16 -22 -23 -21 -17 -13
-9 -11 -15 -22 -23 -21 -17 -14
-10 -10 -14 -22 -23 -21 -18 -15
-11 -10 -14 -22 -23 -21 -18 -15
-12 -9 -13 -22 -23 -21 -19 -16
-12 -9 -13 -22 -23 -21 -19 -16
-12 -9 -13 -22 -23 -21 -19 -16
-12 -9 -13 -22 -23 -21 -19 -16
-12 -9 -13 -22 -23 -21 -19 -16
-12 -9 -14 -21 -22 -20 -18 -15
-11 -9 -14 -21 -22 -20 -18 -15
-10 -9 -14 -22 -22 -20 -18 -15
-9 -9 -14 -22 -22 -20 -18 -15
-8 -9 -14 -23 -22 -20 -18 -15
-7 -9 -13 -24 -23 -21 -19 -15
-8 -9 -11 -24 -24 -23 -20 -15
-10 -9 -8 -24 -25 -24 -20 -15
-11 -9 -6 -24 -26 -26 -21 -16
-13 -9 -4 -24 -27 -27 -22 -16
-14 -7 1 -21 -26 -27 -22 -17
-14 -2 7 -15 -20 -20 -18 -15
-14 3 14 -8 -13 -13 -13 -13
-14 8 21 -2 -6 -6 -9 -12
-14 12 28 6 2 2 -4 -10
-11 19 34 17 14 15 6 -4
-3 29 39 39 39 40 28 13
6 39 46 61 64 67 51 28
13 50 51 82 89 94 73 44
21 61 56 105 114 120 96 59
29 69 61 129 141 147 119 75
37 75 65 156 170 177 142 92
46 80 70 184 199 205 165 108
55 86 74 212 229 234 189 125
63 92 78 239 259 263 213 141
68 91 86 259 278 278 225 150
63 71 95 260 273 260 209 137
58 52 105 262 269 241 192 123
53 32 115 263 264 224 177 111
48 13 126 265 260 205 160 98
39 -7 133 253 241 179 138 80
24 -23 134 210 191 133 98 53
9 -40 134 165 141 87 58 25
-7 -58 135 121 91 40 18 -3
-22 -75 136 77 42 -6 -22 -30
-34 -87 138 45 4 -40 -52 -51
-37 -82 143 35 -6 -48 -59 -56
-40 -77 148 26 -15 -56 -66 -61
-45 -73 154 17 -24 -63 -72 -65
-48 -69 159 9 -32 -70 -79 -70
-51 -65 165 2 -39 -76 -85 -74
-51 -62 173 2 -39 -74 -82 -73
-51 -60 180 2 -39 -72 -80 -72
-50 -57 188 2 -39 -70 -78 -71
-50 -54 195 2 -39 -68 -76 -70
-49 -52 201 1 -38 -66 -74 -69
-50 -51 203 -2 -38 -64 -71 -67
-51 -50 205 -3 -37 -62 -69 -64
-52 -49 207 -5 -37 -61 -66 -62
-54 -47 210 -6 -36 -59 -63 -60
-55 -46 212 -9 -35 -57 -61 -58
-55 -46 212 -12 -38 -58 -61 -58
-54 -46 211 -16 -41 -59 -62 -58
-54 -46 211 -20 -45 -60 -62 -58
-53 -46 210 -24 -48 -61 -63 -58
-52 -47 205 -28 -51 -62 -64 -59
-53 -47 193 -31 -53 -62 -64 -59
-54 -47 182 -35 -55 -62 -64 -58
-55 -47 170 -38 -56 -62 -64 -58
-56 -47 157 -43 -58 -62 -64 -57
-57 -45 144 -46 -60 -62 -63 -55
-53 -39 127 -46 -60 -58 -60 -51
-50 -34 110 -46 -59 -55 -56 -47
-47 -29 94 -46 -59 -52 -52 -43
-44 -24 76 -46 -58 -49 -48 -38
-39 -20 62 -44 -56 -45 -45 -35
-34 -17 55 -39 -52 -41 -40 -33
-29 -14 47 -34 -48 -37 -37 -31
-23 -11 38 -30 -44 -33 -33 -29
-18 -8 30 -26 -39 -29 -30 -27
-14 -5 24 -22 -36 -26 -27 -25
-13 -4 20 -20 -34 -24 -25 -23
-12 -3 17 -18 -32 -22 -23 -21
-11 -2 13 -16 -30 -19 -21 -18
-10 0 10 -14 -28 -17 -19 -16
-9 1 7 -12 -26 -15 -17 -14
-9 1 6 -11 -25 -14 -16 -14
-8 1 5 -9 -23 -12 -15 -14
-8 0 4 -8 -22 -11 -14 -13
-7 0 3 -7 -21 -10 -13 -13
-6 -2 2 -5 -19 -8 -12 -12
-3 -2 1 -5 -19 -7 -11 -11
0 -2 0 -5 -19 -7 -11 -10
3 -2 -2 -5 -18 -6 -10 -9
6 -2 -3 -5 -18 -5 -9 -8
8 0 -4 -4 -17 -4 -8 -7
8 0 -5 -4 -17 -4 -8 -7
7 0 -6 -4 -17 -4 -8 -7
7 0 -7 -4 -17 -3 -8 -7
6 0 -8 -4 -17 -3 -8 -7
5 1 -9 -4 -17 -2 -7 -6
3 1 -9 -4 -16 0 -6 -5
1 1 -9 -4 -16 1 -5 -4
-2 1 -9 -3 -15 2 -4 -3
-4 1 -9 -3 -14 3 -3 0
-6 1 -10 -2 -13 4 -2 1
-4 1 -10 0 -13 4 -2 1
-2 1 -10 1 -13 4 -2 1
1 1 -10 2 -12 4 -2 1
3 1 -10 3 -12 4 -2 1
5 0 -10 4 -11 3 -2 0
6 0 -12 4 -11 3 -2 0
7 1 -14 5 -11 3 -2 0
8 2 -15 6 -10 4 -2 0
10 3 -17 7 -10 4 -2 0
11 4 -19 8 -9 5 -2 1
11 4 -18 8 -9 6 0 1
11 5 -17 8 -9 7 2 2
11 6 -16 8 -8 8 3 3
11 7 -15 8 -8 9 4 4
12 8 -14 7 -7 10 6 5
12 8 -14 9 -7 10 6 5
12 7 -15 11 -6 11 6 5
12 7 -16 12 -5 11 7 6
12 6 -17 14 -4 12 7 6
11 5 -18 16 -3 13 8 7
11 5 -18 16 -2 14 8 7
10 6 -18 16 0 16 9 8
10 6 -17 16 1 17 10 9
9 7 -17 16 3 18 11 10
8 8 -16 16 4 20 12 11
10 8 -17 16 4 20 12 11
13 8 -18 16 4 21 13 11
15 8 -19 17 5 21 13 11
18 8 -21 17 5 22 14 11
20 9 -22 18 6 23 15 12
20 9 -22 18 6 24 16 13
20 9 -23 18 7 26 18 14
20 9 -23 19 8 28 20 15
20 9 -24 19 9 29 21 17
19 8 -25 20 10 31 23 18
19 8 -25 21 11 31 23 19
19 9 -26 23 13 32 24 20
20 9 -27 24 15 33 25 21
20 10 -28 25 16 34 26 23
21 11 -29 27 18 35 27 24
21 11 -30 27 18 36 28 24
21 11 -32 27 19 38 29 24
22 11 -33 27 20 39 30 25
22 11 -34 27 21 40 31 25
23 12 -36 26 22 43 32 26
23 12 -36 27 22 44 32 27
24 12 -37 28 23 45 33 28
25 12 -37 29 23 46 34 29
26 12 -38 30 24 47 35 30
27 12 -39 31 25 48 36 31
28 12 -41 31 25 48 36 31
29 12 -44 31 25 48 36 31
30 12 -47 30 25 48 37 31
31 12 -49 30 25 48 37 31
32 13 -51 29 26 49 38 31
31 13 -51 29 26 49 38 31
30 13 -52 29 26 49 38 32
29 12 -52 29 27 49 39 32
28 12 -53 29 27 49 39 33
27 11 -54 29 28 50 40 34
28 11 -54 29 28 50 40 34
29 11 -55 29 28 50 40 34
30 11 -56 29 28 50 40 34
32 11 -57 29 28 50 40 34
33 10 -58 30 29 51 40 33
33 10 -59 30 29 51 40 33
33 10 -61 30 29 51 40 34
32 10 -62 30 28 51 42 34
32 10 -63 30 28 51 42 35
31 10 -65 29 27 51 43 36
32 11 -65 28 26 51 43 36
34 12 -65 26 25 51 43 36
36 13 -65 25 24 50 42 36
37 15 -65 24 23 50 42 36
39 16 -65 22 22 49 40 35
37 16 -65 21 21 49 40 35
34 16 -66 20 20 48 40 35
32 16 -67 19 19 48 40 35
29 16 -68 17 17 47 40 35
27 16 -69 16 16 46 40 36
27 16 -68 15 16 45 39 36
26 15 -66 14 15 44 38 35
26 15 -65 13 15 43 37 34
25 14 -64 12 14 42 36 33
24 13 -62 11 13 40 35 32
24 13 -62 9 10 37 33 30
24 14 -61 8 8 35 30 29
24 15 -61 6 5 32 28 27
24 16 -60 4 3 30 25 25
23 17 -59 2 0 27 23 23
23 17 -57 1 -2 25 21 21
23 17 -55 -2 -4 23 19 19
22 17 -53 -4 -6 21 17 17
22 17 -50 -5 -7 19 14 14
21 17 -48 -7 -9 17 12 12
20 16 -44 -7 -10 16 10 11
18 14 -40 -7 -11 14 8 10
16 12 -36 -7 -12 12 6 9
15 11 -32 -7 -13 11 4 8
13 9 -29 -7 -14 9 2 7
13 9 -26 -7 -14 9 2 6
12 8 -23 -7 -13 8 1 5
12 8 -19 -7 -13 8 1 4
11 7 -16 -7 -12 7 0 2
10 6 -13 -7 -11 6 -2 1
9 6 -10 -7 -11 6 -2 1
7 5 -8 -6 -11 5 -2 1
5 4 -5 -5 -11 4 -3 1
4 3 -3 -4 -11 3 -3 1
2 2 1 -3 -10 2 -4 1
2 1 3 -3 -10 2 -4 0
2 0 4 -3 -10 2 -5 -2
2 -2 6 -3 -10 1 -6 -3
2 -3 8 -3 -10 1 -7 -4
1 -4 10 -2 -9 0 -8 -5
1 -4 10 -3 -10 -2 -9 -6
2 -5 9 -4 -12 -4 -11 -7
3 -5 9 -5 -13 -5 -13 -8
4 -6 8 -6 -14 -6 -14 -9
5 -7 7 -8 -16 -8 -16 -11
5 -7 8 -8 -16 -8 -15 -11
5 -7 9 -8 -16 -8 -14 -10
5 -7 10 -8 -15 -8 -13 -10
5 -7 11 -8 -15 -8 -12 -9
5 -6 13 -7 -14 -7 -11 -8
5 -7 12 -7 -14 -7 -11 -8
4 -8 11 -8 -14 -7 -12 -8
3 -9 10 -8 -15 -7 -13 -9
2 -10 9 -9 -15 -7 -14 -9
1 -11 8 -10 -16 -8 -15 -10
0 -11 10 -9 -15 -7 -14 -9
-2 -10 12 -7 -13 -5 -13 -8
-3 -9 14 -6 -11 -4 -12 -7
-4 -8 17 -5 -10 -3 -11 -6
-5 -7 19 -3 -8 0 -9 -4
-2 -7 16 -5 -10 -3 -11 -5
2 -7 13 -8 -12 -5 -13 -7
6 -7 11 -10 -14 -7 -15 -8
9 -7 8 -12 -16 -10 -17 -9
12 -8 5 -15 -18 -12 -19 -11
10 -8 6 -15 -17 -11 -18 -11
8 -8 7 -14 -16 -10 -17 -10
6 -8 8 -14 -15 -8 -15 -9
4 -8 9 -13 -14 -7 -14 -8
2 -8 10 -12 -13 -5 -12 -7
2 -8 11 -11 -12 -5 -12 -7
2 -7 12 -9 -10 -5 -12 -7
2 -6 13 -7 -8 -4 -11 -7
2 -5 14 -6 -7 -4 -11 -7
3 -4 15 -4 -5 -3 -10 -6
3 -4 14 -4 -5 -3 -10 -6
3 -4 13 -4 -6 -3 -10 -6
3 -4 12 -5 -6 -3 -10 -6
3 -4 11 -5 -7 -3 -10 -6
4 -5 9 -6 -8 -3 -11 -7
3 -5 9 -6 -8 -3 -10 -6
2 -5 10 -6 -8 -2 -9 -4
1 -5 10 -7 -8 -2 -8 -2
0 -5 11 -7 -8 0 -7 0
-3 -4 12 -8 -7 1 -5 2
-2 -4 12 -8 -7 1 -5 2
0 -4 11 -8 -7 1 -5 1
1 -4 11 -8 -6 1 -5 1
2 -4 10 -8 -6 1 -5 0
3 -3 9 -7 -5 1 -5 -2
3 -3 9 -7 -5 1 -5 -2
3 -2 9 -7 -6 1 -6 -2
4 0 9 -7 -6 1 -6 -2
4 1 9 -7 -7 1 -7 -2
5 2 9 -7 -8 0 -8 -3
5 2 9 -7 -8 0 -8 -3
5 2 8 -7 -8 0 -8 -3
4 1 7 -8 -8 0 -8 -4
4 1 6 -8 -8 0 -8 -4
3 0 5 -9 -7 -2 -8 -5
3 0 6 -9 -7 -2 -8 -5
3 0 7 -9 -8 -2 -8 -5
2 0 8 -9 -8 -2 -9 -5
2 0 9 -9 -9 -2 -9 -5
1 0 10 -10 -10 -3 -10 -4
1 0 8 -10 -10 -3 -10 -4
1 0 6 -10 -10 -4 -10 -4
2 0 4 -11 -11 -4 -11 -4
2 0 2 -11 -11 -5 -11 -4
3 0 0 -12 -12 -6 -12 -4
3 0 0 -12 -12 -6 -12 -4
3 0 0 -13 -12 -7 -12 -5
3 0 1 -13 -13 -7 -12 -5
3 0 1 -14 -13 -8 -12 -6
4 -2 2 -15 -14 -9 -11 -7
4 -2 2 -15 -14 -9 -11 -7
4 -3 1 -15 -14 -9 -11 -7
3 -3 1 -15 -14 -8 -11 -7
3 -4 0 -15 -14 -8 -11 -7
2 -5 -2 -16 -13 -7 -12 -6
2 -5 -2 -16 -13 -7 -12 -6
2 -5 -2 -16 -13 -8 -12 -6
3 -5 -2 -16 -13 -8 -13 -6
3 -5 -2 -16 -13 -9 -13 -6
4 -6 0 -17 -14 -10 -14 -7
3 -6 -2 -17 -14 -10 -14 -7
2 -6 -3 -18 -15 -11 -14 -7
1 -7 -4 -19 -15 -11 -15 -8
0 -7 -5 -20 -16 -12 -15 -8
-2 -8 -7 -21 -17 -13 -16 -9
-2 -8 -7 -21 -17 -13 -16 -9
-2 -7 -6 -21 -17 -13 -16 -9
-2 -6 -6 -21 -17 -13 -16 -9
-2 -5 -5 -21 -17 -13 -16 -9
0 -4 -4 -21 -17 -12 -16 -9
-2 -4 -4 -21 -17 -12 -16 -9
-3 -4 -4 -21 -17 -12 -16 -9
-4 -5 -3 -22 -16 -12 -16 -9
-5 -5 -3 -22 -16 -12 -16 -9
-7 -6 -2 -23 -15 -11 -17 -9
-5 -6 -2 -23 -15 -11 -17 -9
-3 -6 -2 -23 -15 -11 -17 -9
0 -6 -3 -22 -16 -12 -17 -8
2 -6 -3 -22 -16 -12 -17 -8
5 -5 -4 -21 -17 -13 -16 -7
4 -6 -5 -21 -17 -13 -16 -7
2 -7 -6 -21 -17 -13 -16 -8
0 -8 -7 -21 -17 -13 -16 -8
-3 -9 -8 -21 -17 -13 -16 -9
-5 -10 -9 -22 -17 -12 -15 -10
-5 -9 -9 -22 -17 -12 -15 -10
-5 -8 -9 -22 -17 -12 -15 -9
-5 -7 -9 -22 -17 -12 -15 -9
-5 -6 -9 -22 -17 -12 -15 -8
-4 -5 -9 -23 -18 -13 -15 -7
-3 -5 -9 -23 -18 -13 -15 -8
0 -5 -9 -24 -18 -14 -16 -9
2 -5 -9 -24 -19 -14 -16 -10
4 -5 -9 -25 -19 -15 -17 -11
6 -4 -10 -26 -20 -16 -18 -12
6 -4 -10 -26 -20 -16 -18 -12
6 -5 -10 -26 -20 -16 -18 -12
6 -6 -10 -26 -20 -16 -18 -12
6 -7 -10 -26 -20 -16 -18 -12
6 -8 -10 -26 -21 -16 -19 -11
4 -8 -10 -26 -21 -16 -19 -11
2 -8 -10 -26 -21 -16 -18 -11
-2 -8 -10 -25 -20 -16 -18 -11
-4 -8 -10 -25 -20 -16 -17 -11
-7 -8 -10 -24 -19 -15 -16 -11
-7 -8 -10 -24 -19 -15 -16 -11
-6 -8 -11 -24 -19 -15 -16 -11
-6 -8 -12 -24 -19 -15 -16 -10
-5 -8 -13 -24 -19 -15 -16 -10
-4 -8 -14 -23 -18 -15 -17 -9
-3 -8 -14 -23 -18 -15 -17 -9
-2 -8 -14 -24 -19 -15 -17 -10
0 -8 -15 -24 -19 -15 -17 -10
1 -8 -15 -25 -20 -15 -17 -11
2 -9 -16 -26 -21 -16 -17 -12
2 -9 -15 -26 -21 -16 -17 -12
1 -9 -14 -26 -21 -16 -16 -12
0 -9 -13 -26 -21 -16 -16 -11
-2 -9 -12 -26 -21 -16 -15 -11
-3 -8 -11 -25 -21 -16 -14 -10
-3 -8 -11 -25 -21 -16 -14 -10
-3 -8 -12 -25 -21 -16 -14 -10
-3 -8 -13 -25 -21 -16 -15 -11
-3 -8 -14 -25 -21 -16 -15 -11
-2 -8 -15 -26 -21 -16 -16 -12
-2 -8 -15 -26 -21 -16 -16 -12
-2 -8 -15 -26 -21 -16 -16 -12
-2 -8 -15 -26 -21 -16 -16 -11
-2 -8 -15 -26 -21 -16 -16 -11
-2 -9 -14 -25 -22 -16 -17 -10
-2 -9 -14 -25 -22 -16 -17 -10
-3 -9 -13 -25 -22 -16 -17 -10
-4 -8 -13 -24 -21 -16 -16 -11
-5 -8 -12 -24 -21 -16 -16 -11
-6 -7 -11 -23 -20 -15 -15 -12
-5 -7 -11 -23 -20 -15 -15 -12
-4 -7 -12 -24 -20 -16 -15 -12
-2 -7 -12 -24 -21 -16 -15 -13
0 -7 -13 -25 -21 -17 -15 -13
2 -6 -14 -26 -22 -18 -16 -14
2 -6 -14 -26 -22 -18 -16 -14
2 -6 -15 -26 -22 -18 -16 -14
1 -7 -16 -26 -22 -18 -17 -14
1 -7 -17 -26 -22 -18 -17 -14
0 -8 -18 -27 -22 -19 -18 -15
0 -8 -17 -27 -22 -18 -18 -14
0 -7 -15 -27 -22 -17 -18 -13
0 -7 -14 -26 -21 -15 -17 -12
0 -6 -12 -26 -21 -14 -17 -11
-2 -5 -10 -25 -20 -12 -16 -9
-2 -4 -10 -24 -20 -12 -15 -9
-2 -3 -10 -23 -20 -12 -14 -9
-2 -2 -10 -22 -19 -11 -12 -9
-2 0 -10 -21 -19 -11 -11 -9
-3 2 -9 -20 -18 -10 -9 -10
-2 2 -9 -20 -18 -10 -9 -10
0 2 -9 -20 -18 -10 -9 -9
1 2 -9 -20 -18 -10 -10 -9
2 2 -9 -20 -18 -10 -10 -8
4 3 -10 -21 -17 -11 -11 -7
4 3 -10 -20 -16 -10 -10 -7
4 3 -10 -19 -15 -9 -9 -7
3 3 -9 -17 -14 -8 -8 -7
3 3 -9 -16 -13 -7 -7 -7
2 3 -8 -14 -12 -6 -6 -7
3 4 -9 -15 -12 -6 -6 -7
4 6 -11 -16 -13 -6 -6 -7
5 7 -12 -18 -14 -7 -6 -7
6 9 -14 -19 -15 -7 -6 -7
8 11 -16 -21 -16 -8 -7 -6
8 10 -17 -21 -16 -8 -7 -6
8 9 -19 -21 -16 -9 -7 -6
8 8 -20 -21 -17 -9 -7 -6
8 7 -22 -21 -17 -10 -7 -6
8 5 -24 -22 -18 -11 -6 -6
8 5 -24 -22 -19 -11 -7 -6
8 4 -24 -23 -20 -11 -8 -6
8 3 -24 -23 -20 -12 -8 -7
8 2 -24 -24 -21 -12 -9 -7
8 2 -24 -24 -22 -12 -10 -7
7 2 -23 -25 -23 -13 -11 -8
7 3 -22 -24 -22 -13 -11 -8
7 4 -22 -23 -21 -12 -10 -8
7 5 -21 -22 -20 -12 -10 -8
7 6 -21 -22 -19 -12 -10 -8
6 5 -20 -21 -18 -11 -9 -9
3 3 -20 -21 -18 -11 -9 -9
0 0 -20 -22 -19 -11 -10 -9
-4 -3 -20 -22 -19 -11 -10 -9
-6 -5 -20 -22 -19 -11 -10 -9
-7 -6 -19 -23 -20 -12 -11 -9
-7 -6 -19 -23 -20 -12 -11 -10
-8 -7 -19 -23 -21 -13 -11 -10
-8 -7 -19 -23 -21 -13 -11 -11
-8 -7 -19 -23 -21 -13 -11 -11
-8 -8 -19 -23 -22 -14 -12 -12
-6 -8 -19 -24 -22 -15 -13 -12
-4 -9 -19 -24 -23 -16 -14 -13
-2 -9 -19 -25 -23 -17 -15 -13
0 -9 -19 -25 -23 -18 -15 -13
1 -10 -19 -26 -24 -19 -16 -14
1 -10 -19 -26 -24 -19 -16 -15
1 -10 -20 -26 -24 -19 -17 -16
1 -10 -20 -26 -24 -19 -17 -17
1 -10 -20 -26 -24 -19 -17 -17
1 -10 -21 -26 -25 -19 -18 -18
0 -10 -21 -25 -25 -19 -17 -17
0 -9 -21 -25 -25 -19 -17 -16
-2 -9 -21 -24 -25 -19 -16 -15
-2 -9 -21 -24 -25 -19 -16 -14
-3 -8 -20 -23 -25 -19 -15 -13
-3 -8 -20 -23 -25 -19 -15 -14
-2 -8 -20 -23 -25 -18 -15 -14
-2 -8 -20 -23 -25 -18 -15 -15
-2 -8 -20 -23 -25 -18 -15 -15
0 -9 -20 -24 -25 -17 -14 -16
-2 -10 -20 -24 -25 -17 -14 -16
-2 -10 -20 -24 -25 -17 -14 -16
-3 -11 -20 -24 -25 -17 -14 -16
-3 -11 -20 -24 -25 -17 -14 -16
-4 -12 -21 -24 -24 -17 -14 -15
-4 -12 -21 -24 -24 -17 -15 -15
-4 -12 -22 -25 -25 -18 -15 -16
-4 -12 -22 -25 -25 -18 -16 -16
-4 -12 -22 -25 -25 -18 -16 -16
-3 -13 -23 -26 -26 -19 -17 -17
-3 -13 -23 -25 -26 -19 -17 -17
-3 -12 -23 -25 -26 -20 -18 -17
-3 -12 -23 -24 -26 -20 -18 -17
-3 -12 -23 -24 -26 -20 -18 -17
-4 -10 -15 -22 -26 -21 -19 -16
-7 -8 -8 -20 -26 -22 -20 -17
-9 -7 0 -18 -26 -23 -20 -18
-12 -5 8 -16 -26 -24 -21 -19
-14 -4 15 -15 -26 -24 -21 -20
-10 7 16 0 -10 -7 -7 -11
-3 18 17 13 9 13 10 1
4 28 18 27 27 33 26 13
10 39 19 42 46 53 44 24
16 50 19 56 64 73 60 35
21 59 29 88 98 106 87 53
27 69 39 119 133 140 114 71
32 78 51 152 168 174 142 89
37 89 61 185 202 209 170 107
43 98 71 218 238 242 197 126
50 94 78 231 247 246 200 128
57 89 85 244 256 248 202 129
64 82 92 258 263 252 203 130
71 76 99 270 271 254 205 131
78 71 105 283 279 256 206 132
61 43 112 259 250 218 174 107
40 13 119 230 216 176 137 78
21 -17 127 202 182 135 100 51
1 -48 134 175 148 93 63 23
-19 -77 141 146 115 51 26 -6
-25 -80 142 116 84 24 4 -20
-31 -82 142 86 52 -3 -18 -34
-36 -83 142 55 21 -28 -39 -48
-41 -86 142 24 -11 -54 -61 -62
-47 -87 142 -7 -41 -80 -82 -76
-48 -82 148 -9 -44 -80 -83 -77
-48 -77 155 -9 -43 -78 -81 -76
-49 -71 163 -9 -41 -76 -79 -75
-49 -65 171 -9 -40 -74 -77 -74
-49 -60 178 -9 -39 -72 -76 -73
-50 -59 182 -10 -38 -70 -74 -71
-50 -59 185 -12 -39 -69 -72 -69
-50 -59 189 -13 -39 -68 -70 -67
-50 -59 193 -15 -40 -67 -68 -65
-50 -59 196 -16 -40 -66 -66 -64
-49 -57 193 -20 -41 -65 -65 -63
-49 -55 188 -24 -43 -65 -64 -62
-49 -54 183 -28 -44 -64 -63 -61
-49 -52 178 -31 -45 -64 -62 -60
-49 -51 173 -35 -46 -64 -61 -60
-49 -49 163 -40 -50 -63 -60 -59
-50 -47 154 -46 -54 -64 -61 -59
-50 -46 145 -51 -58 -65 -61 -59
-51 -44 135 -55 -62 -66 -62 -59
-51 -43 126 -60 -66 -67 -62 -59
-52 -38 112 -58 -64 -65 -60 -57
-51 -34 99 -55 -61 -61 -56 -54
-50 -30 85 -52 -57 -57 -52 -51
-49 -27 71 -48 -53 -54 -48 -47
-49 -23 58 -45 -50 -50 -44 -44
-44 -19 50 -41 -47 -46 -39 -39
-39 -16 43 -38 -45 -43 -36 -36
-34 -13 35 -35 -41 -39 -33 -32
-30 -9 27 -32 -38 -35 -29 -28
-25 -6 20 -29 -36 -32 -26 -25
-20 -5 15 -27 -34 -29 -24 -24
-16 -4 11 -26 -32 -27 -22 -23
-12 -3 7 -25 -31 -25 -20 -22
-7 -2 2 -24 -29 -22 -18 -21
-3 -2 -3 -23 -28 -20 -17 -20
-2 0 -5 -21 -26 -18 -15 -18
-3 0 -7 -19 -25 -17 -13 -16
-3 0 -8 -17 -23 -16 -11 -15
-4 0 -10 -15 -22 -15 -9 -13
-4 0 -11 -14 -21 -14 -8 -12
-5 0 -12 -12 -19 -12 -7 -11
-5 0 -13 -11 -17 -11 -6 -11
-5 0 -14 -10 -15 -10 -6 -10
-5 0 -15 -9 -13 -9 -5 -10
-5 0 -15 -8 -11 -8 -5 -10
-5 1 -16 -7 -10 -7 -4 -9
-4 1 -16 -7 -10 -7 -4 -8
-3 1 -17 -7 -10 -7 -4 -7
-2 1 -17 -7 -10 -7 -4 -6
0 1 -17 -7 -10 -7 -4 -5
1 2 -18 -8 -10 -5 -2 -4
1 2 -18 -7 -9 -4 0 -4
0 2 -18 -6 -8 -3 1 -4
0 2 -18 -5 -7 -2 2 -4
0 2 -18 -4 -6 0 3 -4
-2 3 -17 -3 -5 1 4 -3
-2 3 -18 -3 -5 1 4 -3
-2 2 -19 -4 -5 1 4 -3
-2 2 -20 -4 -5 1 4 -3
-2 2 -20 -4 -5 1 4 -3
-2 2 -21 -4 -6 0 5 -4
2 3 -22 -3 -5 1 6 -3
4 4 -22 0 -4 2 6 -2
6 5 -23 1 -3 3 7 0
8 6 -23 2 -3 3 7 0
9 7 -24 3 -2 4 8 1
8 7 -24 3 -2 4 8 1
7 6 -23 3 0 4 8 2
6 6 -23 3 0 4 8 2
6 6 -23 3 0 4 8 2
6 5 -23 3 1 5 8 3
8 6 -24 4 2 6 9 3
9 7 -26 5 3 6 9 3
11 8 -27 6 4 7 10 3
12 8 -28 6 4 7 10 3
12 9 -29 7 5 8 11 4
11 9 -29 7 6 9 12 5
9 8 -29 7 6 10 13 6
8 8 -29 7 7 11 14 7
7 8 -29 7 7 12 15 8
7 7 -29 8 8 14 17 9
8 8 -29 9 9 15 18 10
10 9 -30 10 10 16 20 11
12 10 -30 11 11 17 22 12
13 11 -30 12 12 18 23 13
14 12 -31 13 13 19 24 14
14 12 -32 14 14 19 24 14
14 12 -33 15 15 20 24 14
14 12 -34 16 16 20 24 14
14 12 -34 16 16 20 24 14
13 11 -35 18 18 22 24 15
13 11 -36 19 19 23 25 16
13 11 -37 20 21 25 26 17
13 11 -38 21 23 26 27 18
13 11 -39 22 24 27 28 18
15 10 -41 23 25 28 29 19
17 10 -43 23 25 29 30 20
19 10 -44 24 26 30 31 21
20 10 -46 24 26 31 32 22
22 10 -47 24 26 31 32 22
24 11 -49 26 28 33 34 24
25 13 -50 27 30 35 37 25
26 15 -51 28 32 37 39 26
27 16 -52 30 34 39 42 28
28 18 -53 31 36 42 44 29
29 18 -55 31 37 43 45 30
29 17 -56 30 36 43 45 30
29 16 -58 29 35 42 44 30
29 15 -60 28 34 42 44 30
29 14 -61 27 33 42 44 30
29 13 -62 27 33 40 43 29
28 13 -63 28 34 42 44 30
28 13 -63 29 35 43 45 30
27 13 -64 31 37 44 46 31
27 13 -64 32 38 45 46 31
26 14 -66 32 39 46 47 32
25 14 -67 31 38 46 47 33
24 14 -68 30 38 46 47 34
23 14 -70 29 37 46 47 35
23 14 -71 28 37 46 47 35
24 15 -73 27 36 47 48 36
26 15 -74 27 36 47 48 36
28 16 -75 27 36 47 48 35
31 16 -77 27 36 47 48 35
33 16 -78 27 36 47 48 35
34 17 -79 27 37 47 49 34
35 17 -80 26 35 46 48 34
36 18 -80 24 34 45 48 33
37 18 -81 22 33 44 47 33
37 18 -81 21 32 44 47 33
36 19 -82 20 31 43 46 32
33 19 -82 20 31 43 46 32
30 19 -82 20 31 43 46 32
27 19 -82 20 31 43 46 32
24 19 -82 20 31 43 46 32
23 18 -83 20 29 42 47 33
23 18 -85 18 27 40 46 32
23 18 -85 16 25 39 45 32
23 18 -86 15 24 37 44 31
23 18 -86 13 22 36 44 31
23 18 -86 11 20 34 42 29
22 18 -85 9 18 32 38 27
21 18 -83 7 16 30 36 25
20 18 -81 5 14 28 34 24
20 18 -80 3 12 26 32 22
19 18 -78 2 10 24 30 21
18 18 -75 1 9 22 29 20
17 18 -73 1 8 20 27 19
16 18 -70 0 6 19 25 18
15 18 -68 0 5 17 24 18
14 17 -65 -2 4 15 22 16
13 17 -62 -3 3 14 21 14
13 17 -59 -4 2 12 19 12
12 17 -56 -5 1 10 17 11
12 17 -53 -5 1 9 16 9
11 17 -50 -6 0 8 15 8
10 17 -46 -6 0 8 15 8
9 16 -41 -5 0 8 14 7
8 16 -38 -5 0 8 14 7
8 16 -34 -5 0 8 14 7
6 15 -31 -4 -2 6 12 6
5 14 -27 -3 -2 5 11 5
3 13 -23 -3 -3 4 10 5
1 12 -20 -2 -3 2 8 4
0 12 -16 -2 -3 1 7 4
-2 11 -14 0 -4 0 6 3
0 11 -13 -2 -4 -2 5 2
0 11 -12 -3 -4 -3 4 1
1 11 -10 -4 -4 -4 3 0
1 11 -9 -4 -4 -4 3 -2
2 10 -8 -5 -5 -5 2 -3
2 8 -8 -4 -5 -5 1 -4
2 7 -7 -4 -5 -6 1 -5
2 6 -7 -3 -5 -6 0 -6
2 5 -7 -3 -5 -6 0 -6
3 4 -6 -2 -5 -7 -2 -7
2 3 -5 -3 -6 -8 -3 -7
1 2 -4 -3 -7 -9 -3 -8
0 1 -3 -4 -8 -10 -4 -8
-2 0 -3 -4 -9 -10 -4 -8
-3 -2 -2 -5 -10 -11 -5 -9
-3 -2 -2 -5 -10 -11 -5 -9
-3 -2 -2 -5 -10 -12 -5 -9
-3 -2 -2 -5 -10 -12 -5 -9
-3 -2 -2 -5 -10 -12 -5 -9
-2 -2 -2 -6 -10 -13 -6 -10
0 2 0 -5 -10 -12 -5 -9
2 4 1 -5 -10 -11 -4 -8
4 7 2 -4 -10 -10 -3 -7
5 9 2 -4 -10 -9 -3 -6
5 10 3 -3 -10 -8 -2 -5
4 8 2 -3 -8 -8 -2 -6
3 7 2 -2 -7 -8 -3 -6
1 6 1 -2 -6 -8 -3 -7
0 5 1 -2 -5 -8 -3 -7
-2 4 0 0 -4 -7 -4 -8
-2 4 0 -2 -5 -7 -4 -8
-2 4 0 -2 -6 -7 -4 -7
-2 4 0 -3 -7 -7 -4 -7
-2 4 0 -3 -7 -7 -4 -7
-2 3 -2 -4 -8 -8 -4 -6
0 4 -2 -4 -7 -8 -4 -6
1 4 0 -3 -6 -7 -3 -6
2 5 0 -3 -5 -7 -3 -6
3 5 0 -3 -5 -7 -3 -6
4 6 1 -2 -4 -6 -2 -6
3 5 1 -3 -5 -7 -2 -6
3 4 1 -4 -5 -7 -3 -6
2 3 1 -5 -6 -8 -3 -6
2 2 1 -5 -6 -8 -3 -6
1 1 0 -6 -7 -9 -4 -5
0 1 0 -4 -7 -9 -4 -5
0 1 -2 -3 -7 -8 -5 -5
-2 1 -2 -2 -7 -8 -5 -5
-2 1 -2 0 -7 -8 -5 -5
-3 0 -3 1 -8 -7 -6 -6
-3 1 -2 0 -8 -7 -5 -6
-4 2 0 0 -7 -7 -4 -5
-4 3 1 -2 -7 -7 -3 -5
-4 4 1 -2 -7 -7 -3 -5
-5 5 2 -3 -6 -6 -2 -4
-4 6 2 -3 -5 -5 0 -4
-3 7 2 -2 -5 -5 0 -3
-2 8 2 -2 -4 -4 1 -3
-2 8 2 -2 -4 -4 1 -3
0 9 2 -2 -4 -3 1 -2
0 8 0 -3 -5 -4 0 -3
-2 8 -2 -4 -7 -5 -2 -4
-2 7 -3 -6 -9 -6 -4 -5
-2 7 -4 -7 -10 -6 -5 -5
-3 6 -5 -8 -11 -7 -6 -6
-2 6 -4 -7 -10 -7 -5 -6
0 6 -4 -6 -9 -7 -5 -6
0 6 -3 -6 -9 -7 -4 -6
1 6 -3 -5 -8 -7 -4 -6
2 7 -3 -5 -7 -7 -3 -6
1 6 -4 -6 -8 -8 -4 -6
0 5 -5 -8 -9 -8 -4 -6
-2 5 -7 -9 -10 -9 -5 -6
-3 4 -8 -11 -11 -9 -5 -6
-4 3 -9 -12 -12 -10 -6 -7
-3 3 -9 -12 -12 -10 -6 -7
-2 4 -10 -12 -13 -10 -6 -7
-2 4 -10 -12 -13 -10 -6 -7
0 4 -10 -12 -13 -10 -6 -7
0 5 -11 -11 -14 -11 -7 -8
-2 5 -11 -11 -14 -11 -7 -8
-4 4 -10 -12 -14 -12 -7 -8
-5 4 -10 -12 -14 -12 -7 -8
-7 4 -10 -12 -14 -12 -7 -8
-8 3 -9 -13 -14 -13 -7 -8
-8 2 -11 -13 -15 -14 -8 -9
-9 1 -12 -13 -15 -15 -9 -10
-9 0 -13 -13 -16 -15 -9 -10
-9 -2 -14 -13 -16 -16 -10 -11
-10 -2 -15 -13 -17 -17 -11 -12
-9 0 -14 -13 -16 -17 -10 -10
-8 1 -13 -13 -16 -16 -9 -9
-7 3 -13 -13 -15 -16 -8 -8
-6 4 -12 -13 -15 -16 -7 -7
-4 5 -11 -14 -14 -15 -6 -6
-3 5 -12 -14 -15 -15 -8 -8
-2 5 -13 -14 -16 -15 -9 -9
1 5 -13 -14 -17 -15 -10 -10
2 5 -14 -14 -18 -15 -11 -11
3 4 -15 -14 -19 -14 -12 -12
1 4 -15 -14 -19 -15 -11 -12
0 4 -14 -14 -19 -15 -11 -12
-2 4 -14 -14 -19 -16 -10 -12
-3 4 -14 -14 -19 -16 -10 -12
-4 2 -13 -15 -18 -17 -9 -11
-5 1 -14 -16 -19 -17 -10 -12
-6 0 -14 -17 -20 -17 -11 -12
-7 -3 -15 -18 -20 -17 -12 -13
-8 -4 -15 -19 -21 -17 -13 -13
-8 -5 -16 -20 -22 -16 -14 -14
-7 -4 -16 -19 -22 -16 -14 -13
-5 -3 -16 -19 -21 -17 -14 -13
-4 -3 -16 -18 -21 -17 -14 -12
-2 -2 -16 -18 -21 -17 -14 -12
-2 0 -15 -17 -20 -18 -14 -11
-5 0 -15 -17 -20 -18 -13 -11
-7 0 -15 -17 -19 -17 -12 -11
-9 0 -15 -17 -19 -17 -11 -11
-12 0 -15 -17 -19 -17 -10 -11
-12 1 -14 -17 -18 -16 -9 -10
-11 0 -15 -18 -18 -17 -10 -10
-9 -2 -15 -18 -18 -17 -11 -11
-8 -2 -16 -19 -18 -18 -12 -11
-6 -3 -16 -19 -18 -18 -13 -11
-5 -4 -17 -20 -19 -19 -14 -12
-6 -4 -17 -20 -19 -19 -13 -12
-7 -3 -17 -20 -19 -18 -13 -12
-8 -3 -17 -20 -19 -18 -12 -12
-9 -3 -17 -20 -19 -18 -12 -12
-10 -2 -17 -20 -20 -17 -11 -11
-8 -2 -18 -20 -20 -18 -12 -11
-7 -2 -19 -21 -21 -18 -12 -11
-5 -2 -19 -21 -21 -19 -13 -11
-4 -2 -20 -21 -21 -19 -13 -11
-3 0 -21 -22 -22 -20 -14 -12
-4 0 -20 -21 -21 -19 -14 -11
-5 0 -19 -21 -21 -18 -13 -10
-5 0 -19 -20 -20 -18 -13 -10
-6 0 -18 -20 -20 -17 -13 -9
-7 1 -17 -19 -19 -16 -12 -8
-8 1 -17 -19 -19 -17 -12 -9
-8 0 -16 -19 -20 -17 -13 -10
-9 0 -16 -19 -20 -18 -13 -10
-9 0 -16 -19 -20 -18 -13 -11
-10 -2 -15 -20 -21 -19 -14 -12
-8 -2 -15 -20 -21 -19 -14 -12
-7 -2 -16 -21 -21 -19 -14 -12
-6 -2 -16 -21 -21 -19 -14 -12
-5 -2 -16 -21 -21 -19 -14 -12
-4 0 -17 -22 -22 -20 -15 -12
-5 -2 -17 -22 -22 -20 -15 -12
-6 -2 -17 -22 -22 -20 -15 -13
-7 -3 -17 -22 -22 -20 -15 -13
-8 -3 -17 -22 -22 -20 -15 -13
-9 -4 -18 -21 -22 -20 -15 -14
-9 -4 -18 -21 -22 -20 -15 -13
-8 -4 -18 -21 -22 -20 -15 -13
-8 -4 -18 -21 -22 -20 -15 -12
-8 -4 -18 -21 -22 -20 -15 -12
-7 -3 -18 -22 -22 -20 -15 -11
-7 -3 -18 -21 -22 -20 -15 -10
-7 -3 -18 -21 -22 -20 -14 -10
-7 -3 -18 -20 -22 -20 -14 -9
-7 -3 -18 -20 -22 -20 -14 -9
-8 -2 -18 -19 -21 -19 -13 -9
-8 -3 -18 -20 -22 -20 -15 -10
-9 -4 -18 -21 -23 -21 -16 -12
-9 -5 -18 -21 -23 -22 -17 -13
-9 -6 -18 -22 -24 -23 -18 -15
-10 -7 -19 -23 -25 -24 -19 -16
-10 -7 -19 -23 -25 -23 -19 -15
-11 -6 -18 -23 -24 -22 -18 -14
-11 -6 -18 -23 -24 -22 -17 -14
-11 -6 -18 -23 -24 -21 -17 -13
-12 -5 -17 -24 -23 -20 -16 -12
-12 -5 -17 -23 -22 -20 -16 -12
-12 -4 -17 -22 -21 -19 -15 -12
-12 -3 -17 -22 -21 -19 -15 -12
-12 -3 -17 -21 -20 -19 -15 -12
-11 -2 -16 -20 -19 -18 -14 -11
-10 -2 -16 -20 -19 -18 -14 -11
-8 0 -16 -21 -20 -18 -15 -11
-7 0 -16 -21 -21 -18 -15 -11
-5 0 -16 -21 -21 -18 -15 -11
-4 1 -16 -22 -22 -19 -16 -12
-4 2 -15 -22 -21 -18 -15 -12
-3 4 -14 -21 -19 -16 -13 -11
-3 5 -14 -20 -18 -15 -12 -10
-3 6 -13 -20 -17 -14 -11 -10
-2 7 -12 -19 -16 -13 -10 -9
-3 6 -12 -19 -16 -13 -10 -9
-5 5 -12 -19 -17 -14 -11 -9
-6 5 -12 -19 -17 -14 -11 -9
-7 4 -12 -19 -17 -14 -11 -9
-8 3 -12 -19 -18 -15 -12 -9
-6 4 -11 -18 -18 -15 -11 -9
-5 5 -10 -16 -17 -14 -10 -8
-3 6 -10 -15 -16 -13 -10 -8
-2 7 -9 -14 -16 -13 -9 -8
0 8 -8 -13 -15 -12 -8 -7
0 10 -9 -14 -15 -12 -8 -7
1 11 -10 -15 -15 -12 -8 -6
2 13 -11 -15 -15 -12 -8 -6
2 14 -12 -16 -15 -12 -8 -6
3 14 -13 -17 -14 -12 -9 -5
3 12 -14 -17 -14 -12 -9 -5
2 10 -16 -17 -14 -12 -9 -6
1 8 -17 -17 -14 -12 -9 -6
1 5 -18 -17 -14 -12 -9 -6
0 4 -19 -18 -15 -13 -10 -7
0 4 -19 -19 -17 -14 -10 -7
0 5 -20 -20 -18 -15 -10 -6
0 5 -20 -21 -20 -16 -10 -6
0 5 -20 -22 -21 -17 -10 -6
-2 6 -21 -23 -22 -18 -10 -5
-2 6 -21 -22 -22 -18 -10 -5
-2 7 -20 -21 -21 -17 -10 -5
-2 8 -20 -21 -20 -16 -10 -5
-2 8 -20 -20 -20 -16 -10 -5
-3 9 -19 -19 -19 -15 -9 -6
-4 7 -19 -19 -19 -15 -9 -6
-5 6 -18 -19 -19 -15 -9 -6
-5 4 -18 -19 -19 -15 -9 -6
-6 3 -18 -19 -19 -15 -9 -6
-7 2 -17 -19 -19 -14 -10 -7
-5 2 -17 -19 -19 -15 -12 -9
-4 2 -16 -20 -20 -16 -14 -10
-2 2 -16 -21 -20 -17 -15 -12
0 2 -16 -21 -20 -18 -17 -13
0 2 -15 -22 -21 -19 -18 -14
-3 0 -16 -22 -21 -19 -18 -14
-5 -3 -17 -22 -22 -19 -18 -13
-7 -5 -18 -22 -22 -19 -18 -12
-10 -8 -19 -22 -22 -19 -18 -12
-11 -9 -20 -23 -23 -20 -17 -11
-11 -9 -20 -24 -24 -21 -17 -12
-10 -10 -19 -25 -25 -22 -18 -13
-9 -11 -19 -26 -26 -22 -19 -14
-9 -11 -19 -27 -27 -23 -19 -15
-8 -12 -18 -28 -28 -24 -20 -16
-9 -12 -18 -28 -27 -24 -20 -16
-11 -12 -18 -28 -26 -24 -20 -15
-12 -12 -18 -28 -26 -24 -20 -15
-13 -12 -18 -28 -25 -24 -20 -15
-14 -13 -18 -27 -24 -23 -20 -14
-13 -12 -18 -26 -24 -23 -20 -14
-11 -11 -17 -24 -23 -22 -19 -14
-10 -11 -16 -23 -22 -21 -19 -14
-9 -10 -16 -22 -22 -21 -19 -14
-8 -9 -15 -21 -21 -20 -18 -14
-8 -9 -15 -21 -21 -20 -18 -14
-9 -10 -15 -21 -22 -20 -18 -14
-9 -11 -15 -21 -22 -20 -18 -14
-9 -11 -15 -21 -22 -20 -18 -14
-10 -12 -15 -21 -23 -21 -19 -13
-10 -11 -15 -21 -23 -21 -18 -13
-10 -10 -15 -21 -22 -20 -17 -13
-10 -9 -15 -21 -21 -20 -17 -13
-10 -8 -15 -21 -21 -20 -16 -13
-10 -7 -14 -21 -20 -19 -15 -13
-9 -7 -14 -21 -21 -19 -15 -13
-8 -7 -15 -22 -22 -20 -16 -13
-7 -7 -15 -23 -22 -20 -17 -13
-6 -7 -15 -23 -23 -20 -17 -13
-5 -8 -15 -24 -24 -21 -18 -13
-7 -8 -13 -24 -24 -22 -19 -14
-9 -8 -11 -23 -24 -23 -20 -15
-10 -8 -9 -23 -24 -23 -20 -16
-12 -8 -6 -23 -24 -24 -21 -17
-13 -6 -2 -19 -22 -24 -21 -18
-13 0 4 -14 -17 -20 -19 -16
-12 5 10 -9 -12 -17 -16 -14
-11 10 16 -4 -7 -13 -14 -13
-11 15 21 2 -2 -10 -12 -11
-7 23 27 17 16 9 4 -2
1 33 33 39 43 36 27 15
8 44 38 62 68 65 51 30
14 54 45 85 94 93 74 46
21 63 51 106 120 121 98 61
28 71 57 133 149 149 121 77
37 76 63 162 179 178 144 94
47 81 69 191 210 205 168 110
55 88 75 221 240 233 190 127
64 93 81 250 271 262 214 144
66 86 90 263 282 264 215 144
63 67 101 264 276 244 198 131
59 48 111 266 271 225 181 117
56 29 122 267 266 205 164 103
52 10 133 268 261 187 148 90
40 -9 138 244 230 153 118 69
23 -26 139 199 182 109 80 43
6 -45 140 155 133 65 44 16
-12 -63 141 111 85 21 6 -11
-29 -81 142 66 35 -23 -32 -36
-39 -89 144 40 9 -47 -53 -52
-43 -87 147 29 -3 -55 -60 -57
-47 -83 150 18 -13 -62 -67 -62
-51 -81 152 7 -24 -70 -74 -68
-55 -79 155 -6 -34 -78 -81 -73
-57 -75 161 -11 -39 -81 -85 -75
-57 -72 170 -11 -38 -79 -81 -72
-56 -68 178 -11 -37 -77 -78 -70
-55 -64 186 -11 -36 -75 -75 -67
-55 -60 194 -11 -35 -73 -72 -65
-54 -58 198 -12 -34 -72 -70 -63
-54 -57 196 -13 -34 -71 -69 -63
-54 -56 195 -15 -34 -70 -68 -63
-54 -56 194 -17 -34 -69 -67 -63
-54 -55 192 -19 -34 -68 -66 -63
-54 -54 190 -21 -35 -67 -65 -61
-56 -52 187 -25 -37 -65 -63 -59
-58 -50 185 -28 -39 -64 -61 -56
-60 -49 182 -32 -40 -63 -60 -54
-62 -47 180 -35 -43 -61 -58 -52
-63 -46 172 -38 -45 -60 -57 -50
-61 -44 158 -43 -48 -61 -57 -50
-59 -41 145 -47 -50 -62 -57 -50
-58 -40 133 -50 -53 -62 -57 -50
-56 -38 119 -54 -55 -63 -57 -50
-54 -35 106 -56 -57 -63 -57 -50
-51 -31 92 -56 -55 -60 -54 -47
-47 -27 77 -55 -53 -57 -52 -45
-44 -23 63 -54 -52 -55 -49 -41
-40 -19 49 -54 -50 -52 -47 -39
-36 -16 38 -51 -47 -48 -43 -36
-32 -13 33 -45 -43 -44 -38 -33
-28 -10 27 -39 -37 -38 -34 -29
-24 -8 22 -34 -33 -34 -30 -26
-19 -5 16 -29 -29 -30 -26 -23
-17 -3 12 -26 -26 -26 -23 -20
-15 -3 8 -24 -24 -24 -21 -18
-14 -4 5 -22 -22 -22 -19 -15
-13 -4 1 -21 -20 -20 -17 -13
-11 -4 -3 -19 -18 -18 -15 -11
-10 -5 -5 -18 -17 -17 -13 -9
-10 -5 -7 -18 -17 -17 -13 -9
-10 -5 -9 -17 -16 -16 -12 -9
-10 -5 -10 -17 -15 -15 -11 -9
-10 -5 -12 -17 -15 -15 -11 -9
-9 -4 -13 -16 -14 -14 -10 -9
-8 -2 -13 -15 -12 -13 -9 -8
-7 1 -13 -13 -11 -11 -8 -6
-7 3 -13 -12 -10 -10 -7 -5
-6 5 -13 -11 -8 -9 -6 -4
-5 6 -14 -10 -7 -8 -5 -3
-4 6 -15 -10 -6 -7 -4 -3
-2 6 -17 -9 -5 -6 -3 -3
0 6 -18 -8 -5 -6 -3 -3
1 6 -19 -8 -4 -5 -2 -3
2 6 -20 -7 -3 -4 0 -3
2 5 -20 -6 -3 -4 0 0
2 4 -20 -5 -2 -4 1 1
2 4 -20 -5 0 -4 2 2
2 3 -20 -4 0 -4 2 4
2 2 -21 -3 1 -3 3 5
2 0 -21 -3 1 -3 3 5
1 -2 -22 -4 1 -3 4 5
0 -3 -23 -4 1 -3 4 5
0 -5 -23 -4 1 -3 4 5
-2 -6 -24 -5 1 -3 5 4
-2 -4 -24 -4 2 0 6 6
-2 -3 -23 -3 3 1 7 7
-2 -2 -23 -3 3 2 8 8
-2 1 -23 -2 4 4 9 10
-3 2 -22 0 5 5 10 11
-3 2 -23 0 5 5 10 10
-2 3 -24 1 6 6 10 9
0 3 -24 1 6 6 10 8
0 3 -25 1 6 6 10 7
2 4 -26 2 7 7 10 6
4 4 -26 3 7 7 10 7
6 4 -27 4 8 7 10 8
8 4 -28 5 8 7 10 9
10 4 -28 6 8 7 10 10
11 4 -29 7 9 7 11 11
11 4 -29 7 9 8 12 11
11 4 -30 6 9 9 13 11
10 3 -31 5 9 10 14 12
10 3 -31 5 9 11 15 12
9 2 -32 4 9 12 16 13
10 4 -33 6 11 14 18 15
11 5 -33 7 13 15 19 16
13 7 -34 9 15 17 21 17
14 9 -35 11 17 19 23 19
15 10 -36 12 19 20 24 20
15 10 -36 12 20 21 24 20
15 10 -37 12 20 21 25 20
15 10 -38 13 21 22 26 20
15 10 -38 13 22 23 26 20
14 9 -39 14 23 24 27 20
15 9 -39 16 25 24 28 22
15 9 -40 17 26 25 29 23
16 10 -41 19 28 26 31 24
17 10 -41 21 30 26 32 26
18 11 -43 22 31 27 33 27
18 11 -44 22 31 28 34 27
18 11 -45 22 31 29 35 27
18 11 -46 22 31 31 36 27
18 11 -47 22 31 32 37 27
17 11 -48 22 32 33 38 28
18 11 -50 23 33 35 40 30
19 11 -52 23 34 36 42 32
20 11 -54 24 35 38 44 34
21 11 -56 25 36 40 46 36
22 12 -57 26 37 42 47 37
23 12 -59 26 37 42 47 37
23 12 -61 26 37 42 47 37
24 12 -63 25 37 42 47 37
25 12 -65 25 37 42 47 37
26 12 -66 24 38 42 47 37
26 12 -67 24 38 42 47 37
26 12 -68 24 38 42 47 37
26 11 -70 25 37 42 47 37
26 11 -71 25 37 42 47 37
25 10 -72 26 36 40 46 36
27 11 -73 25 37 40 46 36
28 12 -74 24 37 40 46 36
30 13 -76 23 38 42 46 36
32 14 -77 22 39 42 46 36
33 15 -78 21 40 43 47 37
33 15 -79 21 40 43 47 38
32 15 -80 21 39 43 48 38
31 15 -81 21 38 42 49 39
31 15 -82 21 38 42 49 40
30 15 -83 21 37 40 50 42
29 15 -85 20 36 40 50 42
28 15 -86 19 36 42 50 42
27 15 -88 18 35 43 50 42
26 15 -89 17 34 43 50 42
25 16 -90 16 33 44 50 40
26 16 -90 15 32 43 50 40
26 16 -90 15 32 43 50 40
27 16 -90 14 31 42 49 40
28 16 -90 13 30 40 49 40
29 17 -91 12 29 39 48 39
29 18 -91 11 27 37 46 38
29 18 -90 10 25 35 45 37
29 19 -89 9 23 33 43 36
29 20 -89 8 21 31 40 35
26 21 -88 7 19 29 39 34
22 20 -88 5 17 28 37 33
17 20 -87 3 15 28 35 32
13 19 -86 1 13 27 33 31
8 18 -86 -2 11 26 31 30
5 17 -85 -3 9 24 29 28
6 17 -82 -4 8 21 27 25
7 17 -80 -5 7 18 24 22
9 17 -78 -7 5 15 22 18
10 17 -76 -8 4 12 19 15
11 17 -72 -9 3 10 17 13
11 17 -67 -9 3 10 17 13
11 17 -62 -8 3 10 17 13
11 17 -57 -7 3 9 17 13
11 17 -51 -7 3 9 17 13
10 16 -47 -6 2 8 16 13
8 14 -44 -6 2 6 14 13
6 11 -41 -6 2 5 13 12
4 9 -38 -6 1 3 11 11
3 6 -35 -6 1 1 9 11
1 4 -32 -5 0 0 8 10
1 4 -29 -5 0 -2 7 9
2 4 -26 -5 -2 -2 7 8
3 4 -23 -5 -3 -3 6 6
3 4 -19 -5 -3 -4 5 5
4 5 -17 -6 -4 -5 4 4
3 4 -17 -6 -4 -5 3 3
2 3 -16 -6 -4 -6 2 1
1 1 -15 -5 -4 -7 1 0
0 0 -15 -5 -4 -7 0 -3
-2 -2 -14 -4 -4 -8 -2 -4
0 -2 -13 -4 -4 -9 -2 -4
0 -2 -12 -5 -5 -9 -3 -4
1 -2 -10 -6 -6 -10 -4 -4
2 -2 -9 -6 -6 -11 -4 -4
3 -3 -8 -7 -7 -12 -5 -4
2 -4 -8 -6 -7 -12 -5 -5
0 -6 -8 -6 -7 -12 -5 -5
-2 -7 -8 -5 -6 -12 -5 -6
-4 -9 -8 -4 -6 -12 -5 -7
-5 -10 -8 -3 -5 -11 -5 -8
-6 -10 -7 -3 -5 -11 -5 -7
-8 -9 -6 -3 -5 -11 -5 -6
-9 -8 -4 -3 -5 -11 -5 -4
-11 -8 -3 -3 -5 -11 -5 -3
-12 -7 -2 -2 -4 -10 -4 -2
-12 -7 -3 -3 -4 -10 -4 -3
-12 -7 -4 -3 -5 -11 -4 -3
-11 -7 -5 -4 -6 -12 -4 -4
-11 -7 -6 -5 -6 -12 -4 -5
-10 -7 -7 -6 -7 -13 -5 -6
-9 -7 -7 -6 -7 -13 -5 -6
-9 -7 -6 -6 -7 -13 -5 -6
-8 -6 -5 -6 -7 -12 -5 -6
-7 -6 -5 -6 -7 -12 -5 -6
-6 -5 -4 -6 -6 -11 -4 -5
-6 -5 -4 -6 -6 -11 -4 -5
-6 -5 -5 -6 -6 -11 -4 -5
-6 -5 -6 -5 -5 -11 -4 -5
-6 -5 -6 -5 -5 -11 -4 -5
-6 -6 -7 -4 -4 -10 -4 -5
-5 -6 -7 -4 -4 -10 -4 -5
-4 -6 -7 -4 -5 -10 -4 -5
-2 -6 -7 -4 -6 -10 -3 -5
0 -6 -7 -4 -6 -10 -3 -5
1 -5 -6 -3 -7 -9 -2 -4
1 -5 -6 -3 -7 -9 -2 -4
2 -5 -6 -3 -6 -9 -2 -4
3 -4 -6 -3 -5 -8 -2 -4
3 -4 -6 -3 -5 -8 -2 -4
4 -3 -5 -4 -4 -7 0 -3
1 -5 -6 -4 -4 -7 0 -3
-2 -6 -6 -4 -4 -8 -2 -3
-5 -8 -7 -4 -5 -9 -3 -3
-7 -10 -8 -4 -5 -9 -3 -3
-8 -10 -9 -4 -6 -10 -4 -4
-5 -8 -9 -4 -6 -10 -4 -4
-2 -5 -9 -4 -6 -10 -3 -4
2 -3 -9 -4 -6 -10 -2 -4
5 1 -9 -4 -6 -10 -2 -4
7 3 -8 -4 -5 -9 0 -4
5 3 -8 -5 -6 -9 0 -4
4 3 -8 -6 -8 -9 0 -3
2 2 -9 -8 -9 -10 0 -2
0 2 -9 -9 -11 -10 0 -2
-2 1 -10 -10 -12 -11 -2 0
-5 1 -10 -9 -11 -10 -2 0
-7 1 -9 -8 -10 -10 -2 0
-10 1 -8 -7 -8 -9 -2 0
-12 1 -8 -6 -7 -8 -2 0
-14 1 -7 -5 -6 -7 0 -2
-13 0 -7 -5 -6 -8 0 -2
-12 -2 -8 -5 -7 -8 0 -2
-10 -3 -9 -6 -8 -9 -2 -2
-9 -4 -9 -6 -8 -10 -2 -2
-8 -5 -10 -7 -9 -11 -3 -2
-8 -4 -10 -7 -9 -11 -3 -2
-8 -3 -10 -7 -9 -11 -3 -2
-7 -2 -11 -7 -9 -11 -3 -2
-7 0 -11 -7 -9 -11 -3 -2
-6 1 -12 -8 -10 -11 -2 -3
-5 1 -12 -8 -10 -11 -2 -3
-4 1 -12 -9 -10 -11 -2 -3
-3 1 -12 -10 -10 -12 -3 -4
-2 1 -12 -10 -10 -12 -3 -4
0 1 -12 -11 -10 -13 -4 -5
-2 -2 -12 -11 -10 -13 -4 -6
-3 -3 -12 -11 -11 -13 -4 -6
-5 -5 -13 -11 -12 -14 -5 -7
-6 -6 -13 -11 -12 -14 -5 -8
-7 -8 -14 -12 -13 -15 -6 -9
-7 -7 -14 -12 -13 -15 -5 -8
-7 -7 -14 -12 -13 -14 -4 -6
-6 -6 -13 -12 -12 -13 -3 -5
-6 -5 -13 -12 -12 -13 -2 -3
-5 -4 -12 -11 -11 -12 0 -2
-6 -4 -12 -11 -11 -12 0 -3
-8 -4 -12 -12 -12 -13 -2 -3
-9 -4 -12 -13 -13 -14 -3 -4
-11 -4 -12 -13 -13 -14 -3 -5
-12 -4 -13 -14 -14 -15 -4 -6
-10 -4 -14 -15 -15 -16 -5 -7
-7 -4 -15 -16 -16 -17 -6 -7
-5 -5 -17 -18 -18 -18 -8 -8
-3 -5 -18 -19 -19 -19 -9 -9
0 -6 -19 -20 -20 -20 -10 -10
0 -6 -19 -20 -20 -20 -10 -10
0 -5 -19 -20 -20 -20 -10 -10
0 -4 -19 -19 -19 -20 -10 -10
0 -4 -19 -19 -19 -20 -10 -10
-2 -3 -18 -18 -18 -20 -10 -9
-3 -3 -18 -18 -18 -20 -10 -9
-5 -4 -18 -18 -19 -20 -10 -9
-6 -5 -18 -19 -20 -20 -10 -9
-8 -5 -18 -19 -20 -20 -10 -9
-9 -6 -18 -20 -21 -21 -10 -9
-9 -6 -18 -20 -21 -21 -10 -9
-9 -6 -18 -20 -21 -21 -10 -10
-9 -7 -18 -20 -20 -21 -11 -11
-9 -7 -18 -20 -20 -21 -11 -11
-9 -8 -18 -20 -19 -20 -12 -12
-8 -8 -18 -20 -19 -20 -11 -11
-8 -8 -18 -20 -19 -20 -11 -10
-7 -8 -18 -19 -19 -20 -10 -9
-6 -8 -18 -19 -19 -20 -9 -8
-5 -7 -17 -18 -18 -19 -8 -7
-5 -7 -17 -18 -18 -19 -8 -7
-5 -7 -17 -18 -18 -18 -7 -7
-5 -7 -17 -18 -17 -18 -7 -7
-5 -7 -17 -18 -17 -17 -6 -7
-6 -6 -17 -19 -16 -16 -5 -6
-6 -6 -17 -19 -16 -16 -6 -6
-6 -6 -18 -19 -16 -16 -6 -7
-6 -7 -18 -19 -16 -17 -7 -7
-6 -7 -19 -19 -16 -17 -8 -8
-6 -8 -20 -18 -17 -18 -9 -9
-6 -8 -20 -18 -17 -18 -9 -9
-7 -8 -20 -18 -18 -18 -9 -9
-7 -8 -20 -19 -18 -19 -9 -9
-8 -8 -20 -19 -19 -19 -9 -9
-9 -9 -20 -20 -20 -20 -9 -9
-9 -8 -19 -20 -20 -20 -9 -9
-9 -8 -19 -20 -19 -20 -9 -8
-8 -7 -18 -20 -19 -20 -9 -8
-8 -6 -17 -20 -18 -20 -9 -7
-7 -5 -16 -19 -17 -20 -10 -6
-7 -5 -16 -19 -17 -20 -10 -7
-7 -5 -16 -19 -17 -20 -10 -7
-7 -5 -16 -19 -17 -20 -10 -8
-7 -5 -16 -19 -17 -20 -10 -9
-7 -6 -17 -20 -18 -19 -10 -10
-8 -6 -17 -20 -18 -19 -10 -10
-9 -6 -17 -20 -18 -19 -10 -10
-10 -6 -17 -20 -18 -19 -11 -10
-12 -6 -17 -20 -18 -19 -11 -10
-13 -7 -18 -19 -19 -20 -12 -9
-11 -7 -18 -19 -19 -20 -12 -9
-9 -7 -19 -20 -19 -20 -12 -9
-8 -6 -19 -20 -19 -20 -12 -9
-6 -6 -20 -21 -19 -20 -12 -9
-4 -5 -21 -22 -20 -21 -11 -9
-4 -5 -20 -22 -20 -21 -11 -9
-3 -5 -19 -22 -20 -21 -11 -9
-3 -5 -18 -21 -19 -20 -11 -8
-2 -5 -16 -21 -19 -20 -11 -8
0 -6 -15 -20 -18 -19 -10 -7
-2 -6 -15 -20 -18 -19 -10 -7
-2 -5 -15 -20 -18 -19 -10 -7
-3 -5 -15 -20 -18 -18 -10 -7
-4 -4 -15 -20 -18 -18 -10 -7
-5 -3 -15 -20 -17 -17 -9 -8
-5 -4 -15 -20 -17 -17 -9 -8
-5 -4 -15 -20 -17 -17 -9 -8
-6 -5 -15 -20 -17 -17 -9 -7
-6 -6 -15 -20 -17 -17 -9 -7
-7 -7 -15 -19 -17 -17 -8 -6
-7 -6 -15 -19 -17 -17 -8 -6
-7 -5 -15 -19 -17 -17 -8 -6
-7 -4 -16 -20 -17 -17 -8 -6
-7 -2 -16 -20 -17 -17 -8 -6
-8 0 -17 -21 -18 -18 -9 -7
-9 0 -16 -21 -18 -18 -9 -7
-9 0 -15 -20 -17 -18 -9 -7
-10 0 -14 -20 -17 -17 -9 -7
-11 0 -12 -19 -16 -17 -9 -7
-12 1 -11 -18 -15 -16 -8 -7
-10 2 -11 -17 -15 -16 -8 -7
-8 4 -11 -17 -14 -16 -7 -7
-6 5 -11 -16 -14 -15 -7 -6
-4 6 -11 -15 -13 -15 -6 -6
-2 8 -12 -14 -12 -14 -5 -5
-2 8 -12 -14 -12 -14 -5 -5
-2 8 -12 -14 -12 -14 -5 -5
-2 8 -12 -15 -12 -14 -5 -5
-2 8 -12 -15 -12 -14 -5 -5
-2 7 -13 -16 -13 -15 -6 -4
-4 8 -13 -15 -12 -14 -6 -4
-6 9 -13 -15 -12 -13 -6 -4
-7 10 -12 -14 -11 -12 -6 -3
-9 12 -12 -13 -10 -11 -6 -3
-11 13 -11 -12 -9 -10 -5 -2
-9 12 -12 -14 -10 -11 -5 -2
-7 12 -13 -16 -12 -12 -5 -2
-4 11 -14 -17 -13 -13 -5 -2
-2 10 -16 -19 -14 -15 -5 -2
1 9 -17 -21 -16 -16 -4 0
2 9 -19 -21 -16 -16 -4 0
2 9 -21 -21 -16 -16 -4 -2
3 8 -22 -21 -16 -16 -4 -2
4 8 -24 -21 -16 -16 -4 -3
5 7 -26 -21 -16 -16 -5 -4
4 7 -24 -21 -16 -16 -5 -3
3 7 -22 -21 -16 -16 -5 -2
2 7 -19 -21 -16 -16 -5 0
1 7 -17 -21 -16 -16 -5 2
0 7 -15 -20 -15 -16 -6 3
-2 5 -15 -20 -14 -16 -6 2
-4 3 -15 -20 -14 -16 -6 2
-5 1 -15 -19 -13 -15 -6 1
-6 -2 -15 -19 -12 -15 -6 0
-8 -4 -16 -18 -11 -14 -5 -2
-8 -4 -16 -19 -12 -15 -6 -3
-8 -4 -16 -20 -13 -16 -8 -4
-8 -4 -16 -21 -14 -17 -9 -5
-8 -4 -16 -22 -15 -18 -10 -7
-9 -4 -16 -23 -16 -19 -12 -8
-10 -4 -16 -23 -16 -19 -12 -8
-11 -5 -16 -23 -16 -19 -12 -8
-12 -5 -16 -23 -16 -19 -11 -8
-13 -6 -16 -23 -16 -19 -11 -8
-14 -7 -16 -24 -17 -20 -10 -8
-13 -7 -16 -24 -17 -20 -10 -8
-12 -7 -16 -24 -17 -20 -10 -7
-11 -7 -16 -24 -17 -20 -10 -7
-9 -7 -16 -24 -17 -20 -10 -6
-8 -6 -17 -25 -17 -20 -10 -5
-8 -6 -17 -25 -17 -20 -10 -5
-8 -7 -17 -25 -18 -21 -10 -6
-8 -8 -17 -26 -18 -21 -11 -7
-8 -9 -17 -26 -19 -22 -11 -8
-7 -10 -17 -27 -20 -23 -12 -9
-7 -10 -17 -27 -20 -23 -12 -9
-7 -10 -16 -26 -20 -23 -12 -9
-8 -10 -16 -26 -19 -23 -12 -8
-8 -10 -15 -25 -19 -23 -12 -8
-9 -10 -14 -24 -18 -22 -11 -7
-9 -10 -14 -24 -18 -22 -11 -7
-9 -10 -14 -24 -18 -22 -11 -7
-9 -10 -13 -24 -18 -22 -11 -7
-9 -10 -13 -24 -18 -22 -11 -7
-10 -10 -12 -24 -17 -21 -12 -8
-11 -10 -12 -24 -17 -21 -12 -8
-12 -10 -12 -24 -17 -21 -12 -7
-13 -10 -12 -24 -17 -21 -12 -6
-14 -10 -12 -24 -17 -21 -12 -5
-15 -10 -12 -23 -16 -22 -12 -4
-14 -10 -12 -23 -16 -22 -12 -5
-13 -10 -12 -23 -16 -22 -12 -7
-12 -10 -12 -23 -16 -22 -12 -8
-11 -10 -12 -23 -16 -22 -12 -9
-10 -9 -12 -24 -17 -22 -12 -11
-11 -9 -7 -24 -18 -23 -15 -11
-12 -8 0 -24 -19 -25 -17 -12
-13 -8 5 -24 -20 -27 -20 -13
-14 -7 10 -24 -21 -28 -22 -14
-15 -5 15 -22 -20 -28 -23 -14
-14 3 18 -13 -9 -17 -13 -8
-12 10 22 -4 2 -5 -2 -2
-11 16 25 6 13 7 9 5
-10 23 28 15 24 19 19 12
-7 31 32 28 39 34 33 20
3 42 40 57 71 66 60 38
12 52 49 86 103 99 87 57
21 62 57 114 135 131 112 75
30 72 65 143 165 162 139 94
38 80 72 171 195 192 163 110
43 81 77 192 217 213 180 121
48 82 82 214 239 233 196 133
53 84 87 235 261 254 214 144
58 86 92 257 283 275 230 156
60 81 97 272 297 285 238 161
50 56 106 262 277 254 211 141
39 30 115 252 258 221 182 119
29 5 125 240 238 189 154 99
19 -21 134 230 219 156 127 78
9 -43 141 213 193 122 97 56
-2 -51 139 170 148 81 62 31
-11 -59 138 127 103 39 26 7
-20 -66 136 84 57 -2 -10 -19
-29 -74 134 40 12 -43 -46 -44
-37 -81 133 6 -25 -76 -74 -64
-39 -76 141 5 -25 -75 -73 -63
-41 -71 150 4 -25 -74 -72 -61
-44 -67 158 3 -25 -73 -71 -60
-46 -62 167 1 -25 -71 -69 -59
-48 -58 175 0 -25 -70 -68 -57
-50 -57 183 -2 -25 -70 -68 -57
-51 -56 191 -3 -26 -70 -68 -57
-53 -55 199 -4 -27 -70 -68 -58
-55 -53 207 -6 -28 -70 -68 -58
-57 -52 215 -7 -29 -70 -68 -59
-57 -52 214 -10 -29 -69 -66 -56
-57 -51 213 -12 -29 -67 -64 -54
-57 -51 212 -15 -29 -65 -61 -51
-57 -50 211 -17 -29 -64 -59 -49
-58 -49 210 -20 -29 -62 -57 -46
-58 -47 205 -25 -33 -63 -57 -47
-58 -46 202 -29 -38 -65 -58 -48
-58 -44 198 -34 -43 -66 -59 -49
-58 -41 194 -38 -47 -67 -60 -51
-58 -39 189 -43 -51 -69 -61 -52
-58 -38 173 -45 -51 -68 -59 -49
-57 -37 157 -47 -52 -67 -58 -47
-56 -36 142 -50 -53 -66 -56 -44
-55 -34 127 -52 -54 -64 -54 -41
-54 -33 111 -54 -55 -63 -52 -38
-51 -29 99 -51 -52 -59 -48 -36
-49 -24 86 -48 -49 -55 -45 -33
-46 -20 73 -44 -45 -51 -40 -31
-44 -16 61 -40 -41 -47 -36 -28
-40 -12 50 -37 -38 -43 -33 -26
-35 -11 44 -34 -35 -39 -30 -23
-30 -9 37 -31 -32 -35 -27 -19
-26 -7 32 -27 -28 -32 -25 -16
-21 -6 26 -24 -25 -28 -22 -12
-17 -4 21 -21 -22 -25 -19 -9
-16 -4 18 -20 -22 -25 -18 -9
-14 -4 15 -19 -21 -24 -17 -9
-13 -4 12 -18 -21 -23 -16 -8
-12 -4 9 -17 -20 -22 -15 -8
-10 -3 6 -16 -19 -21 -14 -7
-10 -3 6 -14 -17 -19 -12 -5
-10 -3 5 -13 -14 -16 -10 -4
-10 -3 4 -11 -12 -14 -8 -2
-10 -3 3 -9 -10 -12 -5 1
-10 -3 2 -7 -7 -9 -3 3
-9 0 2 -7 -7 -9 -3 3
-8 1 2 -7 -7 -9 -3 3
-7 3 2 -6 -7 -9 -3 3
-6 5 2 -6 -7 -9 -3 3
-4 7 2 -5 -6 -8 -4 3
-4 7 2 -5 -6 -8 -4 4
-3 6 1 -5 -5 -7 -3 5
-2 6 1 -4 -4 -7 -3 6
0 5 0 -4 -3 -6 -2 7
1 4 -2 -3 -2 -5 0 8
0 4 -2 -3 -2 -5 1 8
-2 4 -2 -2 -2 -5 2 8
-3 4 -2 0 0 -4 3 8
-4 4 -2 1 0 -4 4 8
-6 4 -3 2 1 -3 5 8
-5 4 -4 2 1 -3 5 8
-4 4 -5 2 1 -3 5 8
-3 4 -6 3 1 -2 5 8
-2 4 -7 3 1 -2 5 8
0 3 -8 4 2 0 5 8
0 3 -8 4 2 0 5 8
0 4 -7 5 2 0 5 8
1 4 -7 5 3 1 6 9
1 5 -6 6 3 1 6 9
2 6 -5 7 4 2 7 10
3 6 -6 7 4 2 7 10
4 6 -8 7 4 2 7 11
5 6 -9 7 4 2 7 12
6 6 -10 7 4 2 7 13
7 6 -12 8 4 3 8 14
6 6 -12 9 5 4 9 14
5 7 -11 10 6 5 10 15
4 7 -10 11 7 6 12 15
3 8 -9 12 8 7 13 16
1 9 -8 14 10 9 15 17
3 9 -9 14 10 9 15 17
6 9 -10 14 10 10 15 17
9 9 -12 14 10 10 16 18
11 9 -13 14 10 11 16 18
14 8 -15 13 11 12 17 19
14 8 -15 14 12 13 17 19
15 9 -16 15 13 14 17 19
15 9 -16 16 14 15 17 19
16 10 -17 17 15 16 17 19
17 11 -18 18 17 17 17 18
15 11 -18 19 18 18 19 20
13 11 -18 20 20 20 21 22
11 11 -18 22 22 22 23 24
9 11 -18 23 23 23 26 27
7 10 -17 25 25 25 28 29
10 12 -18 25 25 26 28 29
13 14 -19 25 25 27 28 29
16 16 -20 25 26 28 28 29
20 18 -21 25 26 29 28 29
23 20 -23 26 27 30 28 28
22 19 -25 26 28 31 30 29
21 18 -26 27 29 32 33 30
20 17 -28 28 30 33 35 31
19 16 -30 29 31 34 37 32
17 14 -32 30 32 36 40 33
19 14 -32 30 32 36 40 33
21 15 -32 30 32 36 40 34
23 15 -33 31 33 37 40 34
25 16 -33 31 33 37 40 35
27 17 -34 32 34 38 42 36
27 17 -34 32 34 38 42 37
27 17 -35 32 34 39 43 38
27 17 -36 33 35 40 44 39
27 17 -37 33 35 42 45 40
27 18 -38 34 36 43 46 42
27 18 -40 34 36 43 46 42
27 17 -44 33 35 42 45 40
27 17 -47 33 35 40 45 39
27 16 -49 32 34 39 44 38
28 15 -52 31 33 38 43 37
28 15 -52 31 34 39 44 38
28 16 -52 31 35 42 46 40
28 16 -52 32 36 44 47 43
28 17 -52 32 37 46 49 45
29 18 -52 33 39 48 51 47
29 18 -53 33 38 47 50 46
29 18 -54 32 36 45 48 44
28 17 -56 31 35 44 47 42
28 17 -57 30 33 42 45 39
27 16 -59 29 31 39 43 37
27 16 -59 29 31 39 43 37
26 16 -59 29 31 39 43 38
26 16 -59 29 31 39 43 39
25 16 -59 29 31 39 43 40
24 16 -60 28 31 39 44 42
24 16 -60 26 29 38 43 40
24 17 -60 24 27 36 42 39
25 18 -59 22 25 35 40 37
25 19 -59 20 23 33 39 36
26 20 -58 17 20 31 37 34
26 20 -58 17 19 31 36 34
25 20 -58 16 18 31 35 34
24 21 -58 15 17 30 34 34
23 21 -58 14 16 30 33 34
22 22 -57 13 14 29 32 34
22 22 -55 12 12 26 30 32
22 22 -53 10 10 23 27 29
21 21 -51 8 8 20 25 27
21 21 -49 6 6 17 23 25
20 20 -47 4 3 14 20 22
19 20 -44 4 3 13 20 22
18 20 -40 4 3 12 19 22
16 20 -37 4 3 11 19 22
15 20 -33 4 3 10 18 22
13 21 -30 3 2 9 17 21
11 18 -27 3 1 7 14 18
9 16 -24 3 0 5 12 15
7 13 -21 3 -2 3 9 12
5 10 -18 3 -3 1 6 9
3 7 -15 3 -5 -3 3 6
3 8 -12 3 -5 -3 3 6
4 9 -9 3 -5 -3 3 6
4 10 -6 3 -5 -3 3 6
5 11 -3 3 -5 -3 3 6
6 13 1 4 -6 -3 2 7
5 12 3 4 -6 -3 1 5
4 10 5 4 -6 -4 -2 3
3 9 7 4 -6 -4 -4 1
2 7 9 4 -6 -5 -6 -2
1 5 11 5 -6 -6 -8 -4
1 5 12 5 -6 -6 -8 -4
0 5 13 5 -6 -7 -8 -3
0 4 14 5 -6 -8 -8 -3
-2 4 15 5 -6 -9 -8 -2
-3 3 17 5 -7 -10 -8 0
-4 3 17 5 -7 -10 -8 0
-5 2 18 5 -7 -10 -8 -2
-6 1 19 5 -8 -11 -9 -3
-7 0 20 5 -8 -11 -9 -4
-8 -2 21 5 -9 -12 -10 -5
-8 -3 21 5 -9 -12 -10 -5
-7 -4 20 4 -10 -13 -10 -5
-7 -6 19 3 -11 -13 -11 -5
-6 -7 18 2 -12 -14 -11 -5
-5 -9 17 1 -13 -15 -12 -6
-5 -8 17 1 -13 -15 -12 -6
-5 -7 17 1 -13 -15 -12 -7
-6 -6 18 1 -13 -15 -12 -7
-6 -5 18 1 -13 -15 -12 -8
-7 -3 19 0 -12 -16 -13 -9
-7 -3 19 0 -12 -16 -13 -8
-8 -3 20 1 -11 -15 -12 -7
-8 -3 20 1 -11 -15 -11 -5
-9 -3 21 2 -10 -14 -10 -4
-10 -3 22 3 -9 -13 -9 -2
-9 -3 22 3 -9 -13 -9 -3
-8 -3 22 4 -9 -13 -9 -4
-7 -2 22 4 -9 -13 -9 -6
-6 -2 22 5 -9 -13 -9 -7
-5 0 21 6 -8 -13 -9 -9
-3 0 21 6 -8 -13 -9 -9
0 0 21 5 -8 -13 -9 -9
2 0 21 4 -9 -13 -10 -8
4 0 21 3 -9 -13 -10 -8
7 -2 20 2 -10 -13 -11 -7
4 -2 20 2 -10 -13 -11 -7
1 -3 20 2 -10 -13 -10 -7
-3 -3 20 3 -10 -13 -10 -6
-6 -4 20 3 -10 -13 -9 -6
-10 -5 20 4 -9 -12 -8 -5
-10 -5 20 4 -9 -11 -8 -4
-9 -4 20 5 -8 -10 -7 -3
-8 -3 20 6 -8 -9 -7 -2
-7 -2 20 7 -7 -8 -6 0
-6 0 19 8 -6 -7 -5 2
-6 0 19 8 -6 -7 -5 1
-5 1 19 7 -6 -7 -6 -2
-5 2 19 7 -6 -8 -6 -4
-4 3 19 6 -6 -8 -7 -6
-3 4 18 5 -6 -9 -8 -8
-4 4 18 5 -6 -9 -8 -7
-5 4 18 5 -6 -9 -7 -5
-6 4 18 5 -6 -8 -7 -4
-7 4 18 5 -6 -8 -6 -2
-8 3 19 6 -7 -7 -5 1
-8 3 20 6 -7 -7 -5 1
-8 3 21 6 -7 -7 -5 0
-7 3 22 6 -7 -8 -6 -2
-7 3 23 6 -7 -8 -6 -3
-6 4 24 6 -6 -9 -7 -4
-6 4 22 6 -6 -9 -7 -4
-6 3 19 6 -7 -9 -7 -4
-5 2 17 5 -7 -9 -7 -4
-5 1 14 5 -8 -9 -7 -4
-4 0 11 4 -9 -9 -6 -3
-4 0 12 4 -9 -9 -6 -3
-4 0 13 4 -9 -9 -6 -3
-3 0 14 4 -9 -9 -6 -3
-3 0 15 4 -9 -9 -6 -3
-2 1 16 3 -8 -10 -7 -3
-3 1 16 3 -8 -10 -7 -3
-4 1 15 3 -8 -10 -7 -3
-5 0 14 3 -8 -10 -8 -3
-6 0 13 3 -8 -10 -8 -3
-8 -2 12 3 -9 -11 -9 -2
-7 -2 12 2 -10 -12 -9 -3
-6 -3 12 1 -11 -13 -9 -4
-5 -3 12 -2 -13 -14 -9 -5
-4 -4 12 -3 -14 -15 -9 -6
-3 -5 11 -5 -16 -17 -10 -8
-3 -5 11 -5 -16 -17 -10 -8
-3 -5 10 -5 -16 -17 -10 -8
-3 -4 10 -6 -16 -17 -11 -8
-3 -4 9 -6 -16 -17 -11 -8
-3 -4 9 -6 -16 -17 -11 -8
-4 -3 8 -7 -16 -17 -12 -7
-4 -3 8 -7 -16 -17 -12 -8
-4 -2 8 -7 -16 -17 -12 -8
-4 -2 8 -7 -16 -17 -12 -9
-4 -2 8 -7 -16 -17 -12 -9
-3 0 8 -6 -17 -18 -13 -9
-4 0 9 -6 -17 -17 -13 -7
-4 0 9 -6 -16 -17 -13 -6
-5 0 10 -6 -16 -16 -13 -4
-5 0 10 -6 -16 -16 -13 -3
-6 0 11 -6 -16 -16 -13 -3
-7 -3 10 -8 -17 -17 -14 -5
-7 -5 10 -9 -18 -18 -15 -7
-8 -7 9 -11 -19 -19 -16 -9
-8 -9 9 -12 -20 -20 -17 -11
-9 -10 7 -13 -21 -21 -18 -12
-9 -10 5 -13 -21 -21 -18 -11
-9 -10 4 -13 -21 -21 -17 -10
-9 -10 2 -13 -21 -21 -17 -9
-9 -10 1 -13 -21 -21 -17 -9
-9 -9 0 -12 -20 -20 -16 -8
-9 -8 1 -12 -19 -20 -16 -8
-9 -7 2 -12 -19 -19 -15 -8
-9 -6 3 -12 -18 -19 -15 -8
-9 -5 3 -12 -18 -19 -15 -8
-7 -4 4 -12 -17 -18 -14 -9
-5 -4 3 -12 -18 -18 -15 -9
-4 -4 3 -12 -18 -19 -15 -8
-2 -4 2 -12 -19 -19 -16 -8
0 -4 2 -12 -19 -19 -16 -8
0 -5 1 -12 -20 -20 -17 -8
-3 -7 0 -13 -21 -21 -18 -9
-5 -8 -2 -13 -21 -21 -18 -11
-7 -10 -3 -14 -22 -22 -19 -12
-8 -11 -3 -14 -22 -22 -19 -13
-9 -11 -4 -15 -23 -22 -19 -13
-9 -10 -3 -15 -22 -21 -18 -11
-8 -8 -3 -14 -21 -20 -16 -9
-8 -7 -2 -14 -20 -19 -15 -7
-8 -6 -2 -14 -20 -18 -14 -5
-7 -5 0 -13 -19 -17 -13 -4
-8 -5 0 -12 -19 -17 -13 -5
-8 -5 1 -12 -18 -17 -13 -6
-9 -5 1 -11 -18 -17 -13 -7
-9 -5 1 -11 -18 -17 -13 -8
-9 -4 1 -11 -18 -17 -15 -9
-8 -5 -2 -13 -19 -18 -16 -9
-7 -6 -3 -14 -20 -19 -17 -10
-6 -7 -5 -16 -21 -20 -18 -10
-5 -8 -6 -17 -22 -21 -19 -10
-4 -9 -7 -18 -23 -22 -20 -11
-4 -8 -6 -18 -23 -22 -19 -11
-5 -7 -6 -18 -22 -21 -18 -11
-5 -6 -5 -18 -22 -21 -17 -11
-5 -6 -5 -18 -22 -21 -17 -11
-6 -5 -4 -17 -21 -20 -16 -11
-6 -5 -4 -17 -21 -20 -16 -10
-7 -5 -4 -16 -20 -20 -16 -10
-7 -5 -4 -16 -20 -20 -16 -9
-7 -5 -4 -16 -20 -20 -16 -9
-8 -6 -4 -15 -19 -19 -17 -8
-7 -7 -4 -15 -20 -19 -17 -9
-6 -7 -4 -16 -20 -19 -17 -10
-5 -8 -4 -16 -21 -19 -17 -11
-5 -8 -4 -16 -21 -19 -17 -11
-4 -9 -5 -17 -22 -20 -18 -12
-5 -9 -5 -17 -22 -20 -18 -12
-5 -9 -6 -17 -22 -20 -18 -11
-6 -9 -6 -17 -22 -20 -18 -11
-6 -9 -6 -17 -22 -20 -18 -11
-7 -9 -7 -17 -21 -20 -19 -10
-7 -9 -7 -17 -21 -20 -19 -10
-8 -10 -7 -17 -21 -20 -19 -11
-8 -10 -7 -17 -21 -20 -19 -11
-8 -10 -7 -17 -21 -20 -19 -11
-9 -11 -7 -16 -21 -20 -18 -11
-9 -11 -6 -16 -21 -20 -18 -10
-9 -10 -5 -16 -21 -20 -18 -9
-9 -10 -4 -16 -21 -20 -18 -8
-9 -10 -3 -16 -21 -20 -18 -7
-7 -8 -2 -16 -21 -20 -18 -7
-6 -7 -2 -16 -21 -20 -18 -8
-4 -6 -2 -17 -21 -20 -18 -10
-3 -5 -2 -17 -21 -20 -18 -11
-2 -4 -2 -17 -21 -20 -18 -12
0 -3 -2 -18 -22 -21 -18 -13
-2 -4 -3 -18 -21 -21 -18 -12
-3 -5 -4 -18 -21 -21 -18 -11
-4 -6 -5 -18 -20 -21 -18 -10
-4 -6 -6 -18 -20 -21 -18 -10
-5 -5 -6 -17 -18 -19 -16 -9
-5 -3 -4 -16 -17 -17 -15 -8
-6 0 -2 -15 -15 -16 -13 -7
-6 2 1 -14 -14 -14 -12 -6
-6 4 3 -14 -13 -13 -11 -6
-6 5 3 -13 -12 -12 -10 -5
-5 5 2 -13 -13 -13 -10 -5
-4 4 1 -14 -14 -14 -10 -5
-3 4 0 -14 -15 -15 -10 -5
-2 4 -2 -14 -15 -15 -10 -5
0 3 -3 -15 -16 -16 -11 -5
-2 3 -3 -14 -15 -16 -11 -5
-2 2 -2 -13 -15 -15 -11 -5
-3 2 -2 -12 -14 -15 -11 -5
-3 2 -2 -12 -14 -15 -11 -5
-4 3 0 -11 -13 -14 -11 -6
-3 5 -2 -11 -13 -13 -10 -5
-2 7 -3 -11 -13 -12 -10 -4
0 9 -4 -11 -13 -11 -9 -3
0 11 -4 -11 -13 -11 -9 -2
2 11 -6 -12 -14 -11 -9 -2
4 8 -8 -14 -15 -13 -11 -5
5 6 -9 -16 -17 -15 -13 -7
7 4 -11 -18 -18 -17 -15 -9
8 2 -12 -19 -19 -18 -16 -11
8 1 -13 -20 -20 -18 -16 -10
6 1 -13 -20 -20 -17 -14 -8
5 2 -13 -20 -19 -15 -13 -6
3 2 -13 -20 -19 -14 -11 -3
2 2 -13 -20 -19 -13 -10 0
1 3 -13 -19 -18 -12 -9 0
1 3 -14 -19 -18 -13 -10 -2
2 4 -14 -19 -18 -13 -10 -3
2 4 -15 -19 -18 -14 -11 -4
2 4 -15 -19 -18 -14 -11 -5
2 4 -16 -19 -19 -15 -12 -6
1 2 -16 -19 -19 -15 -12 -6
0 0 -15 -19 -19 -15 -12 -6
-2 -3 -15 -19 -19 -15 -12 -6
-3 -4 -15 -19 -19 -15 -12 -6
-5 -5 -14 -20 -19 -15 -12 -6
-6 -5 -14 -20 -19 -16 -13 -8
-7 -6 -14 -21 -20 -17 -14 -10
-8 -6 -14 -21 -20 -18 -15 -12
-9 -6 -14 -21 -20 -18 -16 -13
-9 -7 -14 -22 -21 -19 -17 -14
-7 -7 -14 -22 -21 -19 -17 -13
-5 -7 -15 -22 -21 -19 -17 -13
-4 -7 -15 -22 -21 -19 -17 -12
-2 -7 -15 -22 -21 -19 -17 -12
0 -8 -16 -23 -21 -19 -18 -11
-2 -9 -16 -23 -21 -19 -18 -11
-3 -9 -16 -23 -22 -19 -18 -12
-4 -10 -16 -23 -22 -19 -18 -12
-5 -10 -16 -23 -22 -19 -18 -12
-6 -11 -15 -23 -23 -20 -19 -13
-6 -12 -15 -24 -24 -21 -20 -13
-6 -12 -15 -25 -24 -21 -20 -14
-6 -13 -15 -26 -25 -22 -21 -14
-6 -13 -15 -27 -25 -22 -21 -14
-7 -14 -15 -28 -26 -23 -22 -15
-8 -14 -15 -27 -25 -23 -22 -15
-8 -13 -15 -26 -25 -23 -22 -15
-9 -13 -15 -25 -24 -23 -22 -15
-9 -13 -15 -25 -24 -23 -22 -15
-10 -12 -16 -24 -23 -22 -22 -16
-10 -11 -16 -24 -23 -22 -21 -15
-9 -11 -16 -23 -23 -22 -21 -15
-9 -10 -16 -23 -23 -22 -20 -14
-9 -10 -16 -23 -23 -22 -20 -14
-8 -9 -17 -22 -22 -21 -19 -13
-8 -10 -17 -23 -22 -21 -19 -14
-9 -11 -17 -24 -22 -21 -19 -15
-9 -12 -17 -25 -22 -21 -19 -16
-9 -13 -17 -25 -22 -21 -19 -17
-9 -14 -16 -26 -22 -21 -19 -18
-8 -13 -17 -26 -22 -21 -19 -18
-7 -12 -17 -25 -22 -20 -19 -17
-6 -11 -18 -25 -22 -20 -19 -17
-5 -11 -18 -25 -22 -20 -19 -17
-5 -9 -16 -24 -23 -19 -18 -16
-6 -8 -12 -24 -23 -20 -19 -17
-8 -6 -9 -24 -24 -21 -20 -18
-9 -5 -5 -24 -24 -22 -21 -19
-10 -4 0 -24 -24 -23 -22 -19
-11 1 4 -20 -20 -19 -19 -17
-11 5 8 -14 -14 -13 -15 -13
-12 9 12 -9 -8 -7 -10 -10
-12 13 17 -3 -2 0 -5 -6
-12 17 21 4 6 7 1 -2
-9 27 27 24 29 31 21 12
-4 37 34 49 57 59 45 28
2 49 40 72 84 88 69 44
8 59 48 97 111 115 93 59
13 70 55 120 138 143 116 74
22 76 60 147 167 170 138 90
33 81 65 175 196 195 159 105
44 87 71 201 225 222 180 120
54 92 76 229 254 247 201 136
65 97 82 256 282 274 222 151
63 80 93 261 279 260 211 141
58 60 104 260 268 238 191 126
52 39 115 260 257 217 172 110
47 19 128 259 246 194 152 94
40 -2 139 259 235 173 133 78
27 -20 141 219 194 132 97 53
13 -37 142 173 147 87 58 26
-2 -55 142 127 99 42 19 -2
-17 -73 143 79 52 -4 -20 -29
-31 -91 143 33 5 -49 -59 -56
-38 -91 147 18 -10 -61 -69 -63
-44 -87 152 10 -18 -67 -74 -67
-49 -82 156 1 -26 -73 -79 -70
-54 -77 160 -8 -34 -79 -83 -74
-59 -73 165 -17 -43 -86 -89 -77
-60 -71 172 -19 -45 -85 -88 -77
-61 -68 178 -20 -44 -81 -86 -74
-61 -66 184 -20 -43 -79 -82 -72
-62 -63 190 -21 -41 -76 -80 -70
-62 -61 196 -21 -41 -73 -77 -68
-62 -59 197 -23 -40 -71 -74 -67
-60 -57 196 -24 -39 -69 -71 -65
-58 -55 195 -25 -38 -67 -69 -64
-57 -53 193 -27 -37 -65 -66 -63
-55 -51 192 -28 -37 -63 -63 -62
-54 -49 188 -32 -38 -62 -62 -61
-53 -47 183 -36 -43 -63 -62 -60
-53 -45 178 -40 -46 -63 -62 -59
-52 -43 173 -45 -49 -64 -62 -58
-52 -40 168 -49 -53 -64 -62 -57
-52 -39 155 -51 -54 -65 -62 -56
-53 -38 142 -54 -55 -64 -61 -56
-55 -37 128 -56 -56 -63 -61 -56
-57 -36 114 -58 -57 -62 -60 -56
-58 -36 100 -60 -57 -62 -60 -56
-57 -32 88 -60 -56 -59 -56 -52
-54 -29 75 -58 -53 -56 -53 -48
-52 -25 63 -55 -50 -52 -49 -44
-49 -21 51 -53 -47 -49 -45 -38
-46 -17 38 -51 -44 -46 -40 -34
-40 -16 31 -48 -40 -43 -37 -32
-35 -14 26 -45 -37 -38 -34 -30
-30 -13 20 -41 -34 -35 -31 -27
-25 -12 15 -38 -31 -32 -27 -25
-20 -11 10 -35 -28 -28 -24 -23
-19 -9 8 -32 -25 -26 -21 -20
-17 -7 7 -29 -23 -23 -18 -17
-16 -5 6 -26 -20 -21 -16 -14
-15 -3 5 -23 -18 -18 -13 -10
-14 0 5 -20 -15 -16 -10 -7
-12 1 2 -19 -14 -15 -9 -6
-11 1 0 -20 -13 -15 -9 -6
-10 1 -4 -21 -12 -14 -8 -6
-8 1 -6 -22 -11 -14 -8 -6
-7 1 -9 -22 -11 -14 -8 -6
-6 2 -10 -22 -10 -13 -7 -7
-6 2 -11 -20 -9 -12 -6 -6
-6 2 -11 -18 -8 -11 -6 -5
-6 2 -12 -16 -7 -10 -5 -4
-6 2 -12 -14 -7 -9 -5 -3
-7 3 -13 -13 -6 -8 -4 -2
-6 3 -13 -13 -6 -8 -3 -2
-5 3 -13 -13 -6 -7 -2 -2
-4 3 -13 -13 -6 -7 0 -2
-3 3 -13 -13 -6 -7 0 -2
-2 4 -14 -14 -5 -6 1 -2
-2 5 -14 -13 -4 -6 1 -2
-2 5 -14 -12 -3 -5 1 0
-2 6 -14 -11 -2 -5 1 0
-2 6 -14 -10 0 -5 1 0
0 7 -13 -9 1 -4 1 1
0 7 -14 -9 1 -4 2 1
-2 6 -14 -10 1 -3 3 2
-2 6 -15 -10 1 -3 4 2
-2 6 -15 -10 1 -3 4 2
-3 5 -16 -11 1 -2 5 3
-3 5 -16 -9 2 0 5 4
-3 5 -17 -8 3 1 5 4
-3 5 -17 -7 4 2 5 5
-3 5 -17 -6 5 2 5 5
-3 6 -18 -5 6 3 5 6
-3 6 -19 -5 6 3 5 5
-3 6 -19 -6 6 3 6 4
-3 6 -20 -6 6 3 6 3
-3 6 -20 -6 6 3 6 3
0 5 -21 -7 5 3 7 3
3 6 -22 -6 5 3 7 4
5 6 -23 -6 5 3 7 6
8 7 -24 -5 5 3 7 8
10 7 -24 -5 5 3 7 9
11 9 -25 -4 6 4 8 10
10 10 -25 -4 8 6 11 10
9 11 -25 -4 10 9 13 11
8 13 -25 -4 12 11 16 11
7 14 -25 -4 14 13 18 11
6 15 -24 -2 15 14 19 13
6 14 -24 1 16 14 19 14
6 13 -25 3 17 14 20 15
6 12 -25 5 18 14 20 17
6 11 -25 7 19 14 20 18
6 10 -27 8 20 15 22 19
7 11 -28 8 21 16 23 19
8 12 -29 8 21 16 24 19
9 13 -31 8 22 17 26 19
10 13 -32 8 22 17 27 19
11 14 -33 8 23 19 28 19
12 14 -33 9 25 21 29 20
12 15 -34 11 26 22 30 22
13 15 -34 13 27 24 31 24
13 15 -34 14 28 26 32 25
15 16 -36 15 29 27 33 26
17 17 -38 15 30 28 34 26
19 17 -40 15 31 29 35 27
21 18 -43 15 32 30 36 27
23 18 -45 15 32 31 37 27
24 19 -46 16 33 32 38 28
22 18 -47 17 34 34 39 29
21 18 -48 17 35 35 40 30
20 17 -48 18 36 36 42 30
19 17 -49 18 37 37 43 31
18 16 -50 19 38 38 44 32
20 16 -52 19 38 38 44 32
21 15 -53 19 38 38 44 32
22 15 -54 19 38 38 44 32
23 15 -55 19 38 38 44 32
24 14 -57 19 38 38 44 33
25 15 -58 19 38 39 45 34
25 16 -59 19 38 39 46 35
26 16 -61 19 38 40 46 36
26 17 -62 19 38 40 47 37
27 18 -64 19 39 42 48 38
27 18 -66 19 38 42 48 38
27 18 -68 18 38 40 47 37
27 18 -70 18 37 40 47 37
27 18 -72 18 37 40 47 37
27 18 -73 17 36 39 46 36
27 18 -73 17 37 40 47 37
27 18 -74 17 38 40 47 38
27 18 -74 17 38 42 48 39
27 18 -74 17 39 42 48 40
28 18 -76 18 40 43 49 40
26 16 -78 17 39 43 49 39
25 15 -79 16 38 43 49 38
24 14 -81 16 38 43 49 36
23 13 -83 15 37 43 49 35
22 14 -83 14 36 42 50 34
23 16 -82 13 35 40 49 35
23 19 -80 12 34 39 49 36
24 22 -79 11 34 39 48 36
24 25 -77 10 33 38 48 37
25 26 -76 8 32 37 47 37
25 26 -77 7 30 36 45 35
25 27 -78 6 29 35 44 33
25 27 -79 4 28 34 43 31
25 27 -80 3 27 33 42 29
24 28 -80 1 25 31 40 28
22 27 -77 0 23 30 39 29
21 27 -74 -3 21 29 38 29
19 26 -72 -4 18 27 37 30
17 26 -69 -6 16 26 36 30
16 25 -67 -7 14 23 33 29
16 24 -66 -9 12 20 30 25
16 24 -64 -10 10 16 26 22
16 23 -63 -11 7 13 23 18
16 23 -61 -12 5 9 19 15
13 21 -58 -13 4 8 18 13
9 18 -54 -13 4 7 16 13
6 16 -50 -13 4 6 15 13
2 14 -46 -13 4 6 14 13
-2 11 -43 -13 4 5 13 13
-4 10 -38 -13 4 4 12 12
-4 11 -34 -12 4 3 11 11
-4 12 -30 -11 4 3 11 9
-4 12 -26 -10 4 2 10 8
-4 13 -22 -9 4 2 10 6
-4 14 -19 -8 5 1 9 5
-4 14 -16 -8 5 1 9 5
-5 13 -13 -8 4 1 9 5
-5 13 -11 -8 4 1 9 5
-5 13 -8 -8 4 1 9 5
-6 12 -7 -9 3 0 8 6
-5 10 -5 -9 3 -2 7 5
-5 9 -4 -9 3 -3 6 4
-4 7 -3 -9 3 -4 6 3
-4 6 -2 -9 3 -5 5 2
-3 4 0 -9 3 -6 4 1
-5 2 1 -9 2 -7 2 0
-6 1 1 -9 2 -8 1 -2
-8 -2 2 -9 1 -8 0 -3
-9 -4 2 -9 1 -9 -2 -4
-10 -5 3 -10 0 -10 -3 -5
-10 -4 4 -10 0 -10 -4 -6
-10 -3 4 -10 0 -11 -5 -7
-10 -3 5 -10 0 -11 -5 -7
-10 -2 5 -10 0 -11 -6 -8
-9 0 6 -9 -2 -12 -7 -8
-9 0 7 -8 0 -11 -5 -6
-9 0 8 -8 0 -10 -4 -4
-9 0 8 -7 1 -10 -2 -2
-9 0 9 -7 1 -9 0 1
-8 1 10 -6 2 -8 1 2
-8 1 10 -7 2 -8 1 0
-7 0 10 -8 1 -8 0 -2
-7 0 10 -8 1 -8 0 -3
-7 0 10 -9 1 -8 0 -4
-6 -2 9 -10 0 -9 -2 -5
-6 0 8 -9 0 -9 -2 -4
-5 0 8 -9 0 -9 -2 -4
-5 1 7 -8 0 -9 -2 -3
-5 1 7 -8 0 -9 -2 -3
-4 2 6 -7 1 -8 -3 -2
-5 2 7 -7 2 -8 -3 -2
-6 1 7 -7 2 -8 -3 -2
-6 1 8 -7 3 -8 -3 -2
-7 1 8 -7 3 -8 -3 -2
-8 0 9 -8 4 -7 -3 -3
-8 0 9 -8 4 -7 -2 -2
-8 1 9 -7 4 -7 0 0
-8 1 9 -7 4 -7 0 0
-8 1 9 -7 4 -7 1 1
-7 2 9 -6 4 -6 2 2
-7 2 9 -5 4 -6 2 2
-7 3 9 -5 5 -5 3 2
-7 3 9 -4 5 -5 3 2
-7 3 9 -4 5 -5 3 2
-8 4 10 -3 6 -4 4 1
-8 4 10 -4 5 -4 3 1
-7 4 9 -5 4 -5 2 1
-7 4 8 -6 4 -6 2 1
-7 4 8 -7 3 -6 1 1
-6 3 7 -8 2 -7 0 0
-6 3 6 -9 1 -7 0 -2
-6 3 5 -10 0 -8 -2 -3
-6 3 5 -10 0 -9 -2 -3
-6 3 4 -11 -2 -9 -2 -4
-6 3 3 -12 -3 -10 -3 -5
-6 3 4 -11 -2 -9 -2 -3
-7 3 5 -9 1 -8 0 -2
-7 3 5 -8 2 -7 1 1
-7 3 6 -7 3 -6 2 2
-8 3 7 -6 4 -5 3 3
-8 3 7 -6 4 -5 3 2
-8 4 7 -7 4 -6 3 1
-8 4 7 -7 4 -6 3 0
-8 4 7 -7 4 -6 3 -2
-8 5 6 -8 3 -7 2 -3
-7 5 5 -9 2 -7 2 -3
-6 5 4 -10 0 -8 1 -2
-6 5 4 -10 -2 -9 0 -2
-5 5 3 -11 -3 -9 0 -2
-4 5 2 -12 -4 -10 -2 0
-5 5 2 -12 -4 -10 -2 -2
-6 4 3 -12 -4 -10 -2 -3
-6 3 3 -12 -4 -10 -2 -3
-7 3 3 -12 -4 -10 -2 -4
-8 2 4 -13 -3 -9 0 -5
-8 2 2 -14 -5 -10 -2 -5
-8 1 1 -16 -6 -11 -4 -5
-8 1 -2 -17 -8 -11 -5 -5
-8 1 -3 -19 -9 -12 -6 -5
-7 0 -4 -20 -10 -13 -7 -6
-7 0 -4 -19 -10 -13 -7 -6
-6 1 -4 -17 -9 -13 -6 -6
-6 1 -4 -16 -8 -13 -6 -6
-6 1 -4 -15 -8 -13 -6 -6
-5 2 -4 -14 -7 -12 -5 -7
-5 2 -4 -15 -7 -12 -5 -6
-5 1 -4 -16 -8 -13 -5 -5
-5 0 -4 -16 -8 -13 -5 -4
-5 0 -4 -17 -8 -13 -5 -3
-6 -2 -4 -18 -9 -14 -5 -2
-6 -2 -4 -18 -9 -14 -5 -4
-6 -2 -5 -18 -9 -14 -6 -5
-6 -2 -5 -18 -9 -14 -7 -7
-6 -2 -5 -18 -9 -14 -7 -8
-7 0 -6 -17 -8 -14 -8 -9
-6 0 -6 -17 -8 -14 -8 -9
-5 0 -6 -17 -9 -15 -9 -9
-4 0 -6 -17 -10 -15 -10 -9
-3 0 -6 -17 -10 -15 -10 -9
-3 1 -5 -17 -11 -16 -11 -9
-6 0 -5 -17 -11 -16 -10 -9
-9 -3 -5 -18 -12 -15 -9 -8
-12 -4 -5 -18 -12 -15 -8 -8
-14 -5 -5 -18 -12 -15 -7 -8
-15 -6 -6 -19 -13 -14 -6 -7
-14 -5 -6 -19 -13 -14 -6 -7
-12 -3 -6 -19 -12 -14 -7 -7
-10 -2 -6 -19 -12 -14 -7 -7
-8 0 -6 -19 -12 -14 -7 -7
-7 1 -7 -20 -11 -15 -8 -7
-7 1 -7 -20 -11 -15 -8 -7
-8 1 -7 -19 -11 -14 -7 -6
-8 1 -7 -19 -11 -14 -7 -6
-8 1 -7 -19 -11 -14 -7 -6
-9 1 -8 -18 -10 -13 -6 -5
-8 1 -8 -18 -10 -14 -7 -5
-7 0 -8 -19 -11 -15 -8 -6
-7 -2 -8 -19 -12 -16 -8 -7
-6 -2 -8 -19 -12 -17 -9 -7
-5 -3 -8 -20 -13 -18 -10 -8
-5 -4 -8 -20 -13 -18 -11 -8
-6 -5 -9 -21 -14 -19 -12 -9
-7 -5 -10 -21 -14 -19 -12 -9
-7 -6 -10 -21 -14 -19 -13 -9
-8 -7 -11 -22 -15 -20 -14 -10
-8 -7 -10 -22 -15 -20 -14 -10
-8 -6 -9 -22 -15 -20 -13 -9
-8 -6 -8 -22 -15 -20 -13 -8
-8 -6 -7 -22 -15 -20 -13 -8
-9 -5 -6 -21 -15 -21 -12 -7
-8 -4 -6 -20 -14 -20 -11 -7
-7 -2 -5 -19 -13 -18 -10 -7
-6 0 -5 -19 -12 -17 -10 -7
-5 1 -5 -18 -11 -16 -9 -7
-4 2 -4 -17 -10 -15 -8 -6
-4 1 -4 -17 -11 -15 -8 -6
-5 0 -5 -18 -12 -16 -9 -6
-6 -2 -6 -18 -12 -17 -9 -6
-6 -3 -6 -18 -13 -17 -9 -6
-7 -4 -7 -19 -14 -18 -10 -7
-7 -4 -7 -19 -14 -18 -10 -8
-7 -3 -8 -20 -15 -18 -11 -9
-7 -3 -9 -20 -15 -18 -11 -10
-7 -3 -9 -20 -15 -18 -11 -11
-7 -2 -10 -21 -16 -19 -12 -12
-6 -2 -10 -20 -16 -19 -12 -11
-4 -2 -9 -19 -16 -19 -12 -10
-3 -2 -8 -19 -16 -19 -12 -9
-2 -2 -8 -18 -16 -19 -12 -8
0 -3 -7 -17 -15 -19 -13 -7
-2 -3 -7 -17 -15 -19 -13 -8
-3 -3 -8 -18 -15 -18 -12 -9
-4 -3 -9 -19 -15 -18 -12 -9
-5 -3 -9 -19 -15 -18 -12 -10
-6 -4 -10 -20 -14 -17 -11 -11
-7 -4 -10 -20 -14 -17 -11 -10
-8 -4 -10 -19 -14 -17 -10 -8
-8 -4 -10 -18 -14 -17 -10 -7
-9 -4 -10 -18 -14 -17 -10 -6
-10 -5 -9 -17 -13 -16 -9 -5
-10 -5 -9 -17 -13 -16 -9 -6
-10 -5 -9 -16 -13 -16 -9 -7
-10 -5 -9 -16 -13 -16 -9 -7
-10 -5 -9 -16 -13 -16 -9 -8
-11 -6 -8 -15 -12 -15 -9 -9
-10 -6 -8 -16 -13 -16 -9 -9
-8 -6 -9 -18 -14 -17 -10 -9
-7 -6 -9 -19 -15 -18 -11 -9
-6 -6 -9 -20 -16 -19 -11 -9
-5 -6 -10 -21 -17 -20 -12 -8
-6 -4 -10 -19 -16 -19 -12 -8
-7 -2 -9 -18 -15 -18 -12 -8
-8 0 -9 -17 -15 -17 -12 -8
-9 2 -9 -15 -14 -16 -12 -8
-9 3 -8 -14 -13 -15 -11 -9
-7 4 -7 -14 -13 -15 -10 -8
-4 5 -6 -14 -12 -14 -9 -7
-2 5 -5 -14 -12 -14 -8 -7
1 6 -4 -14 -12 -14 -7 -6
3 7 -3 -14 -11 -13 -6 -5
3 6 -3 -14 -11 -13 -6 -6
2 5 -3 -14 -11 -13 -7 -7
2 5 -3 -14 -11 -13 -8 -7
2 4 -3 -14 -11 -13 -8 -8
1 3 -4 -13 -11 -13 -9 -9
0 4 -4 -13 -10 -12 -8 -7
-2 5 -3 -12 -9 -11 -7 -6
-2 6 -2 -11 -9 -11 -6 -5
-3 7 -2 -11 -8 -10 -5 -3
-4 8 0 -10 -7 -9 -4 -2
-4 9 0 -10 -7 -8 -4 -2
-4 11 0 -9 -7 -7 -4 -2
-4 12 0 -9 -7 -7 -4 -2
-4 13 0 -9 -7 -6 -4 -2
-3 13 -2 -8 -6 -5 -3 -2
-3 11 -5 -9 -7 -6 -3 -2
-3 9 -7 -11 -9 -7 -4 -2
-3 7 -10 -12 -10 -8 -5 -2
-3 5 -12 -13 -11 -9 -5 -2
-3 3 -14 -14 -12 -10 -6 0
-3 3 -14 -15 -13 -10 -6 -2
-3 4 -14 -16 -14 -11 -7 -3
-3 4 -14 -17 -14 -12 -8 -3
-3 4 -14 -18 -15 -12 -8 -4
-4 5 -15 -19 -16 -13 -9 -5
-2 7 -14 -18 -15 -13 -8 -4
0 9 -12 -17 -14 -12 -7 -3
1 10 -11 -16 -13 -11 -7 -2
3 12 -10 -15 -12 -11 -6 0
3 12 -9 -14 -11 -10 -5 1
1 10 -9 -14 -11 -10 -5 0
-3 7 -8 -14 -11 -10 -5 -2
-6 4 -8 -14 -11 -10 -5 -3
-8 2 -8 -14 -11 -10 -5 -4
-10 0 -7 -13 -12 -9 -6 -5
-12 -2 -7 -13 -12 -9 -6 -4
-14 -3 -8 -13 -13 -10 -6 -3
-16 -3 -9 -13 -13 -10 -6 -3
-18 -4 -9 -13 -13 -10 -6 -2
-18 -5 -10 -14 -14 -11 -6 -2
-15 -6 -10 -15 -15 -12 -8 -5
-11 -7 -11 -16 -16 -14 -10 -8
-8 -8 -11 -17 -17 -15 -12 -10
-5 -9 -11 -18 -18 -16 -14 -13
-3 -10 -12 -19 -19 -17 -16 -15
-4 -10 -11 -18 -19 -17 -16 -15
-5 -10 -10 -17 -18 -17 -15 -14
-6 -10 -10 -17 -17 -17 -15 -13
-7 -10 -9 -16 -17 -17 -15 -13
-8 -10 -8 -15 -16 -16 -14 -12
-10 -10 -8 -16 -17 -16 -14 -12
-11 -10 -9 -17 -18 -17 -14 -12
-12 -10 -10 -17 -18 -17 -14 -12
-14 -10 -10 -18 -19 -17 -14 -12
-15 -11 -11 -19 -20 -18 -14 -13
-15 -11 -11 -19 -20 -18 -14 -12
-14 -10 -10 -18 -19 -17 -14 -11
-13 -9 -9 -18 -18 -17 -14 -11
-13 -9 -9 -18 -18 -17 -14 -10
-12 -8 -8 -17 -17 -16 -14 -9
-12 -9 -8 -17 -17 -16 -14 -10
-12 -10 -9 -18 -18 -17 -14 -11
-12 -10 -9 -18 -18 -17 -14 -11
-12 -11 -9 -18 -18 -17 -14 -12
-13 -12 -10 -19 -19 -18 -15 -13
-13 -12 -10 -19 -19 -18 -15 -12
-14 -11 -10 -18 -18 -17 -14 -11
-14 -11 -10 -17 -18 -17 -13 -11
-14 -11 -10 -17 -18 -17 -13 -10
-15 -10 -9 -16 -17 -16 -12 -9
-14 -10 -9 -16 -17 -16 -12 -9
-13 -9 -9 -16 -17 -16 -12 -9
-12 -8 -8 -15 -17 -15 -12 -9
-11 -8 -8 -15 -17 -15 -12 -9
-10 -7 -6 -14 -16 -14 -11 -10
-10 -7 -2 -14 -17 -16 -13 -11
-10 -7 2 -14 -18 -18 -15 -12
-11 -7 6 -14 -20 -20 -17 -14
-11 -7 10 -14 -21 -22 -19 -15
-12 -3 14 -11 -18 -19 -17 -14
-13 4 18 -3 -8 -9 -9 -9
-14 11 23 7 3 2 0 -4
-16 18 28 16 13 13 9 3
-17 24 32 24 23 23 17 8
-15 31 38 43 44 44 34 19
-7 39 47 69 74 75 60 37
2 48 54 97 105 106 87 56
10 56 62 125 135 137 112 74
17 64 70 152 165 169 138 92
26 70 74 177 192 195 160 107
36 74 76 198 215 216 177 118
46 77 78 220 237 237 194 129
56 81 80 241 259 259 211 140
66 86 82 263 281 280 228 151
69 76 89 273 286 278 226 149
63 53 100 268 269 248 200 131
57 29 110 264 253 220 176 111
51 7 120 259 235 191 150 93
45 -17 131 254 219 161 125 74
33 -34 137 229 188 127 95 52
17 -45 137 184 143 85 58 26
0 -55 137 138 98 44 21 1
-17 -65 137 93 53 2 -15 -26
-33 -75 137 47 8 -40 -52 -52
-43 -79 141 21 -18 -63 -71 -66
-44 -75 147 18 -21 -63 -71 -66
-45 -70 154 15 -24 -63 -71 -65
-47 -66 160 11 -27 -63 -70 -64
-48 -61 168 8 -30 -63 -70 -64
-50 -58 175 6 -32 -63 -69 -63
-52 -57 183 6 -31 -62 -67 -63
-54 -56 191 6 -30 -61 -66 -62
-56 -54 199 6 -29 -59 -64 -61
-58 -53 207 6 -28 -58 -62 -61
-60 -52 213 5 -27 -57 -61 -59
-60 -52 212 3 -27 -57 -59 -57
-60 -52 211 1 -28 -56 -58 -55
-59 -51 210 -2 -29 -55 -57 -52
-59 -51 209 -4 -29 -55 -55 -50
-58 -50 207 -8 -31 -54 -54 -48
-58 -48 205 -14 -35 -56 -56 -50
-58 -47 203 -20 -39 -57 -57 -52
-58 -45 201 -26 -44 -58 -58 -54
-58 -43 199 -31 -47 -60 -60 -56
-59 -41 191 -35 -50 -61 -60 -56
-57 -40 175 -36 -50 -59 -58 -53
-55 -39 159 -37 -51 -58 -56 -50
-53 -38 144 -39 -52 -56 -54 -47
-51 -37 129 -40 -52 -54 -52 -44
-48 -34 113 -41 -53 -52 -49 -41
-45 -29 99 -40 -51 -49 -46 -39
-41 -24 85 -40 -50 -47 -44 -38
-37 -19 70 -39 -49 -44 -40 -37
-34 -14 56 -38 -47 -40 -37 -35
-32 -11 46 -35 -44 -36 -34 -32
-31 -9 40 -31 -38 -32 -29 -28
-31 -8 34 -26 -33 -27 -25 -23
-30 -6 29 -21 -28 -23 -21 -19
-29 -4 23 -16 -23 -18 -17 -14
-28 -3 20 -12 -20 -15 -14 -11
-25 -3 17 -10 -18 -13 -12 -10
-23 -3 15 -8 -16 -11 -11 -10
-21 -3 13 -5 -14 -9 -9 -9
-19 -3 11 -3 -13 -8 -7 -8
-16 -2 8 0 -11 -6 -6 -7
-13 0 6 0 -11 -6 -6 -5
-10 1 3 0 -11 -5 -5 -4
-6 3 1 0 -10 -4 -4 -3
-3 4 -3 0 -10 -4 -4 0
0 5 -5 -2 -9 -3 -3 1
0 5 -6 -2 -9 -3 -3 0
0 4 -7 -2 -9 -3 -3 -2
0 3 -9 -2 -9 -3 -3 -4
0 3 -10 -2 -9 -3 -3 -5
1 2 -11 0 -8 -2 -4 -5
1 3 -11 1 -6 0 -2 -3
1 4 -11 2 -5 1 0 0
1 6 -11 4 -4 3 1 3
1 7 -11 5 -2 4 3 5
0 8 -10 6 0 5 4 7
0 8 -10 6 0 5 4 6
0 7 -10 6 -2 4 4 6
0 6 -11 5 -3 3 3 5
0 6 -11 5 -3 3 3 4
1 5 -12 4 -4 3 2 3
1 5 -12 6 -2 5 4 4
1 5 -12 8 1 8 6 6
1 6 -12 10 3 10 8 7
1 6 -12 11 5 13 10 9
0 7 -11 13 7 15 12 10
2 7 -13 13 7 15 12 10
4 7 -14 13 7 15 12 10
6 7 -16 14 7 14 12 10
7 7 -18 14 7 14 12 10
9 8 -19 15 6 13 11 9
7 8 -19 15 6 13 11 10
6 8 -19 15 6 14 12 10
4 8 -18 14 6 15 13 11
2 8 -18 14 6 15 13 12
2 7 -17 13 7 16 14 13
4 8 -17 14 7 16 14 13
7 9 -17 14 7 16 14 13
10 11 -17 15 8 16 14 13
13 12 -17 16 8 16 14 13
15 13 -17 17 9 17 15 14
14 12 -18 17 10 17 16 15
13 11 -19 17 10 18 17 16
11 10 -20 17 11 19 19 18
10 9 -21 17 12 19 20 19
9 8 -22 18 13 20 21 20
10 9 -23 19 14 21 21 19
12 10 -23 20 15 22 21 19
13 12 -24 22 17 24 22 18
15 13 -25 23 18 25 22 17
16 14 -26 24 19 27 24 17
14 14 -26 25 21 29 26 21
12 14 -26 26 23 32 29 24
10 14 -27 28 25 34 31 28
9 14 -27 29 27 37 34 31
7 13 -28 30 29 39 36 34
9 13 -30 30 29 39 36 32
11 13 -32 30 29 39 36 30
13 12 -34 30 28 39 35 28
15 12 -36 30 28 39 35 27
17 11 -38 29 27 38 34 25
19 12 -40 30 28 39 35 27
21 13 -41 31 29 40 36 29
23 15 -44 33 31 42 37 31
25 16 -46 34 32 43 38 32
27 17 -47 35 33 44 39 34
27 17 -47 35 33 45 39 34
27 17 -47 35 33 46 40 34
27 17 -48 35 34 47 42 34
27 17 -48 35 34 48 42 34
28 16 -49 34 35 49 43 33
28 16 -50 34 36 50 44 34
28 17 -52 35 37 50 46 35
28 18 -53 36 38 51 47 36
28 18 -55 36 39 52 49 37
29 19 -56 37 40 53 50 38
30 19 -57 37 40 53 50 38
30 19 -57 37 40 53 50 38
31 19 -58 37 39 53 49 38
32 19 -59 37 39 53 49 38
33 20 -60 36 38 52 48 37
32 19 -61 36 38 52 48 37
31 18 -63 36 38 52 48 38
29 16 -64 36 38 53 49 39
28 15 -66 36 38 53 49 39
27 14 -67 35 38 54 50 40
27 15 -68 35 37 53 50 40
28 16 -69 34 37 53 50 39
29 17 -71 33 36 52 50 38
29 18 -72 33 35 51 50 38
30 19 -73 32 34 50 49 37
30 19 -73 31 34 50 49 38
30 19 -73 31 34 50 49 38
31 19 -74 30 33 50 49 39
31 19 -74 29 33 50 49 40
32 20 -75 28 32 51 50 42
32 21 -75 27 31 50 49 42
31 21 -75 25 30 49 48 42
30 22 -75 24 28 48 47 40
30 23 -75 22 27 47 46 40
29 24 -74 21 26 46 45 39
27 24 -74 20 25 45 44 39
25 24 -74 19 23 44 44 39
23 23 -73 17 22 42 43 39
22 23 -73 16 20 40 42 39
20 22 -72 15 19 39 40 39
19 22 -69 14 17 37 37 36
17 22 -66 14 16 34 35 33
16 22 -63 13 14 32 32 30
14 22 -60 12 13 30 30 27
13 23 -58 11 11 28 28 25
15 23 -58 8 9 26 26 24
18 23 -57 6 6 23 23 23
20 23 -56 3 4 21 21 21
22 23 -56 1 2 19 19 20
24 24 -54 -2 0 17 17 19
22 23 -50 0 0 16 16 17
19 23 -46 0 0 15 15 14
17 22 -40 1 -2 13 14 12
15 21 -36 2 -2 12 13 10
13 19 -32 3 -3 11 12 8
10 16 -29 3 -3 9 10 8
8 13 -26 3 -3 8 8 7
5 10 -23 3 -4 6 6 6
3 7 -20 3 -4 5 5 6
1 4 -18 3 -5 3 3 5
2 5 -16 3 -5 3 3 4
2 5 -13 3 -5 3 2 3
3 6 -11 3 -5 2 1 2
4 7 -9 3 -5 2 1 1
5 8 -7 4 -4 1 0 0
4 7 -6 5 -4 1 0 1
2 6 -5 5 -3 1 0 2
1 5 -3 6 -2 1 0 3
-2 4 -2 7 -2 1 0 4
-3 3 0 8 0 0 -2 5
