I II V1 V2 V3 V4 V5 V6
5 7 -2 3 0 1 -36 10
1 6 -2 2 0 1 -33 7
-1 7 0 -2 -1 1 -35 9
0 5 -1 -6 -4 -6 -40 3
-1 3 0 -6 -6 -4 -41 3
-2 -7 5 -4 -3 -1 -40 6
-1 -13 5 -7 -5 -2 -40 8
0 -10 1 -9 -8 -6 -43 6
2 -10 0 -14 -13 -10 -46 4
5 -5 -2 -15 -15 -12 -46 1
6 -4 -3 -15 -18 -16 -52 -1
1 -6 0 -11 -14 -12 -49 2
-2 -9 1 -10 -12 -11 -49 0
0 -10 2 -10 -12 -11 -52 4
0 -12 3 -11 -13 -9 -49 4
-3 -12 4 -15 -15 -11 -49 5
1 -8 3 -18 -18 -10 -50 3
2 -3 1 -20 -23 -12 -52 0
2 -3 1 -21 -26 -17 -57 -2
3 -4 0 -21 -24 -19 -57 -1
9 -6 -1 -20 -23 -20 -62 -2
7 -11 5 -18 -17 -16 -57 2
2 -16 7 -15 -14 -13 -57 3
-2 -14 5 -15 -15 -13 -57 2
-7 -12 5 -12 -16 -11 -57 4
-5 -10 4 -13 -16 -11 -59 2
-4 -11 3 -10 -13 -7 -55 4
-2 -12 3 -11 -14 -10 -54 6
0 -7 0 -16 -19 -13 -57 4
4 -1 0 -21 -22 -16 -63 0
6 -9 2 -20 -20 -15 -66 0
5 -16 2 -16 -19 -11 -63 2
2 -17 2 -11 -20 -10 -65 2
-2 -16 0 -8 -18 -13 -67 1
-2 -11 0 -10 -18 -14 -67 1
-3 -7 0 -16 -22 -17 -68 -2
-4 -6 0 -25 -25 -17 -70 0
-2 -7 1 -30 -25 -17 -70 1
0 -11 1 -22 -22 -16 -71 -5
3 -9 -2 -19 -21 -15 -73 -5
-2 -15 1 -17 -14 -11 -68 7
-4 -16 0 -16 -16 -15 -72 2
-5 -13 -2 -12 -18 -15 -74 -1
-3 -12 -2 -14 -18 -17 -79 -3
-2 -11 1 -9 -21 -14 -75 -2
-1 -9 1 -8 -21 -12 -75 -1
-5 -14 0 -9 -17 -12 -76 0
-2 -13 -3 -13 -19 -16 -79 -1
-1 -8 -4 -16 -22 -18 -80 -1
-1 -10 -3 -15 -21 -18 -81 1
3 -11 -2 -14 -19 -16 -81 3
7 -11 0 -14 -18 -21 -82 -1
5 -12 0 -13 -18 -19 -85 0
5 -13 -2 -12 -16 -17 -85 -1
6 -11 -4 -13 -18 -18 -86 -4
7 -12 -4 -12 -18 -17 -87 -2
4 -18 0 -12 -18 -18 -90 -5
0 -19 0 -16 -18 -19 -90 -6
-1 -15 -1 -18 -17 -19 -88 -3
-6 -17 0 -14 -12 -14 -86 2
-8 -17 3 -11 -17 -21 -91 -3
-4 -12 3 -8 -16 -22 -92 -5
-3 -11 4 -6 -14 -16 -91 -1
-2 -7 1 -8 -13 -14 -90 -1
1 -8 -1 -8 -14 -18 -94 -6
-1 -9 0 -11 -16 -23 -98 -6
-5 -5 -1 -13 -18 -20 -97 -3
-3 -10 -1 -13 -15 -16 -93 -4
2 -18 0 -14 -16 -17 -97 -3
3 -15 -2 -13 -14 -16 -96 -1
0 -15 -2 -11 -13 -16 -100 -2
-1 -17 1 -4 -9 -16 -98 -3
-6 -22 4 0 -9 -14 -100 -1
-6 -18 3 -4 -10 -16 -99 -3
-4 -11 2 -7 -9 -14 -100 -4
-4 -11 3 -8 -10 -14 -101 -2
-2 -11 4 -8 -10 -13 -101 -2
-2 -11 2 -7 -11 -15 -101 -3
-6 -15 2 -1 -10 -15 -104 -5
-5 -15 6 5 -5 -12 -101 -2
-5 -10 4 2 -8 -14 -104 -4
-4 -9 3 -4 -8 -15 -103 -2
-2 -9 3 -8 -9 -17 -106 -2
-2 -11 0 -8 -8 -17 -108 -3
-8 -15 -1 -12 -7 -14 -107 -2
-9 -13 1 -13 -5 -11 -106 -1
-5 -8 -1 -5 -7 -9 -108 -2
1 -2 -7 6 -7 -10 -108 -3
7 -2 -6 0 -9 -13 -110 -4
3 -5 -9 -6 -9 -11 -111 -3
1 -6 -8 -7 -9 -11 -112 -1
2 -10 -9 -4 -7 -14 -114 -3
0 -8 -8 -4 -11 -14 -116 -6
1 -5 -8 -5 -12 -12 -115 -6
0 -7 -7 -4 -9 -10 -113 -3
-1 -7 -5 -4 -7 -8 -112 1
-3 -11 -2 -1 -7 -6 -110 3
0 -8 -5 -3 -9 -11 -114 -1
4 -3 -4 0 -8 -13 -113 1
0 -11 0 4 -3 -10 -112 4
1 -14 -1 2 -5 -11 -114 1
2 -10 -2 -5 -7 -15 -120 -4
-1 -8 -5 -10 -9 -13 -120 -1
4 -12 -5 -10 -9 -11 -121 -1
6 -13 -7 -16 -12 -13 -124 -6
5 -10 -7 -11 -10 -10 -122 -4
-2 -6 -3 -4 -7 -7 -117 1
-8 -8 -2 -4 -4 -5 -118 3
-9 -6 -2 -4 -6 -8 -119 3
-7 -2 -3 -7 -10 -11 -124 -1
-8 -7 -1 -6 -11 -11 -123 0
-4 -11 0 -2 -7 -12 -126 1
-5 -11 -2 -3 -8 -11 -125 -1
-10 -16 -1 -4 -6 -8 -123 3
-10 -23 3 -5 -7 -6 -122 2
-4 -16 -1 -11 -11 -9 -125 0
-4 -12 -6 -8 -13 -10 -128 -1
-1 -11 -10 -4 -10 -10 -129 -1
-1 -14 -9 -9 -10 -13 -116 -3
0 -12 -8 -13 -10 -13 -47 -3
-3 -5 -7 -14 -13 -15 -7 -3
-6 -1 -9 -15 -15 -18 6 -6
-6 -4 -9 -13 -16 -17 14 -6
-6 -5 -9 -17 -22 -14 22 -3
-6 -2 -9 -14 -21 -13 26 -3
-7 -9 -9 -8 -11 -9 30 -2
-5 -14 -8 -6 -10 -6 33 -2
2 -14 -11 -3 -11 -10 33 -1
4 -16 -12 -6 -15 -16 32 -2
4 -17 -12 -8 -16 -19 29 -3
3 -10 -10 -7 -16 -18 29 -4
5 -12 -10 -7 -14 -17 28 -4
1 -14 -8 -8 -14 -17 30 -4
-3 -11 -7 -7 -12 -13 34 -2
-3 -15 -7 -5 -11 -13 33 -2
2 -17 -10 -6 -12 -15 31 -3
-2 -12 -12 -12 -16 -17 28 -5
-7 -8 -12 -13 -15 -17 32 -4
-11 -12 -10 -12 -12 -16 31 -3
-11 -14 -10 -8 -9 -13 29 -4
0 -11 -13 -8 -10 -14 27 -4
5 -10 -13 -10 -12 -14 26 -8
8 -11 -12 -10 -15 -17 21 -11
7 -9 -11 -8 -15 -18 20 -10
4 -9 -9 -7 -12 -17 21 -8
-4 -5 -5 -5 -9 -9 31 -2
-5 -2 -2 -5 -5 -4 34 2
-6 1 -3 -6 -6 -5 32 2
-3 6 -4 -6 -7 -9 30 1
-4 4 -4 -6 -7 -10 25 -3
-7 -1 -5 -2 -4 -7 25 -1
-4 -4 -5 0 -1 -5 31 2
-3 -1 -4 4 1 -3 31 0
-4 -2 -1 9 5 -2 28 0
-6 -4 3 11 5 -4 29 1
-3 3 -1 10 5 -6 25 -1
3 8 -5 4 0 -9 21 -5
3 9 -5 -6 -4 -11 20 -6
-4 11 -5 -10 -5 -9 18 -5
-6 8 -2 -4 -5 -5 21 -2
-6 6 -1 0 1 1 26 2
-10 4 1 -6 6 4 31 9
-5 3 -1 -12 2 2 30 6
-1 3 -5 -4 -6 -1 24 3
7 8 -9 1 -7 -5 22 -1
10 11 -14 -5 -8 -9 18 -6
7 10 -14 -4 -10 -6 22 -1
3 8 -11 0 -7 -3 26 2
-3 5 -10 -1 -8 -4 22 1
-9 7 -10 -4 -10 -7 19 0
-8 7 -11 -7 -10 -7 19 0
-6 4 -15 -12 -10 -8 15 0
-4 3 -17 -14 -9 -7 16 -2
-2 7 -21 -15 -14 -11 16 -1
0 14 -25 -15 -19 -16 9 -6
0 7 -21 -9 -15 -12 11 -4
-1 -5 -17 -7 -11 -7 14 -1
0 -9 -17 -12 -16 -12 9 -5
2 -12 -13 -8 -14 -11 9 -6
-2 -16 -9 -2 -10 -7 12 -2
-6 -15 -7 -4 -9 -11 8 -4
-5 -12 -9 -7 -12 -17 4 -8
-5 -12 -12 -7 -13 -17 4 -10
-5 -19 -9 -5 -9 -17 2 -11
-5 -25 -8 -6 -9 -16 1 -11
-9 -25 -9 -3 -11 -16 0 -10
-11 -21 -9 -5 -10 -13 3 -9
-11 -16 -11 -12 -17 -17 -1 -11
-7 -13 -10 -13 -18 -17 -1 -12
-6 -18 -9 -15 -19 -17 -3 -14
-6 -25 -8 -21 -20 -17 -5 -12
-7 -26 -12 -21 -18 -19 -6 -12
-9 -27 -17 -3 -13 -20 -7 -13
-7 -24 -16 5 -13 -17 -7 -12
-8 -26 -14 -2 -17 -20 -8 -14
-10 -27 -16 -10 -18 -21 -11 -13
-10 -27 -15 -15 -21 -18 -8 -12
-12 -27 -15 -13 -22 -17 -6 -12
-14 -27 -15 -9 -20 -19 -7 -11
-11 -33 -12 -9 -19 -19 -8 -10
-9 -33 -14 -12 -22 -21 -12 -17
-3 -32 -15 -12 -21 -21 -14 -17
2 -28 -15 -12 -22 -22 -14 -16
-4 -20 -14 -13 -22 -21 -15 -17
-9 -23 -9 -9 -19 -16 -11 -15
-12 -26 -11 -10 -21 -19 -14 -15
-10 -25 -12 -10 -20 -21 -15 -16
-5 -23 -12 -11 -22 -21 -17 -19
-5 -23 -10 -10 -22 -23 -17 -18
-4 -19 -12 -13 -23 -25 -20 -18
-2 -22 -14 -15 -24 -26 -22 -21
-3 -25 -13 -16 -21 -23 -19 -18
-6 -29 -9 -15 -19 -21 -16 -16
-10 -29 -7 -13 -19 -20 -17 -15
-13 -33 -7 -6 -16 -13 -11 -12
-7 -37 -11 -4 -12 -9 -11 -10
-8 -38 -7 3 -2 -3 -8 -9
-6 -36 -1 13 12 8 -4 -9
-1 -28 7 29 34 24 1 -10
2 -18 20 58 71 52 9 -8
3 -11 39 90 112 84 24 2
5 -4 55 112 140 109 37 12
14 3 62 122 153 133 52 17
17 14 60 124 167 159 70 28
18 30 51 125 184 189 95 47
23 49 37 116 183 214 118 63
25 65 15 84 155 229 145 81
31 83 -13 30 102 230 172 104
32 107 -44 -29 47 232 200 128
27 130 -72 -73 2 243 226 144
34 152 -107 -109 -39 258 254 162
38 167 -138 -154 -80 265 272 176
32 183 -172 -206 -121 262 278 180
21 196 -197 -247 -167 230 260 174
12 186 -217 -278 -220 165 215 152
-5 166 -231 -306 -282 65 140 110
-22 135 -230 -326 -342 -62 44 58
-29 92 -230 -335 -386 -184 -48 11
-25 58 -237 -340 -409 -273 -123 -34
-22 26 -231 -326 -408 -317 -173 -68
-26 0 -215 -297 -382 -320 -186 -79
-30 -4 -194 -267 -350 -305 -183 -82
-37 -4 -177 -238 -316 -279 -173 -83
-36 -14 -157 -200 -275 -246 -159 -82
-38 -19 -141 -167 -242 -216 -142 -74
-35 -20 -136 -157 -223 -196 -131 -68
-27 -21 -121 -143 -198 -176 -119 -64
-22 -27 -100 -116 -165 -156 -109 -58
-22 -33 -82 -88 -139 -135 -97 -53
-20 -37 -68 -69 -117 -116 -88 -46
-23 -44 -55 -46 -94 -98 -78 -39
-15 -39 -48 -35 -77 -84 -68 -35
-5 -27 -45 -29 -63 -71 -61 -35
-5 -20 -37 -22 -51 -61 -56 -33
-9 -19 -30 -17 -38 -45 -49 -26
-10 -27 -19 -13 -24 -30 -37 -17
-9 -27 -12 -7 -15 -24 -32 -14
-7 -19 -7 4 -9 -20 -31 -14
-6 -15 -5 14 -5 -17 -30 -13
-7 -13 -4 14 -1 -16 -31 -15
-9 -11 -2 17 4 -14 -31 -16
-10 -12 -2 16 4 -13 -30 -15
-7 -8 -4 13 4 -14 -34 -20
-5 -15 0 17 8 -10 -28 -15
-8 -25 5 23 14 -4 -21 -10
-3 -25 4 22 10 -6 -22 -10
-3 -21 5 20 8 -8 -24 -11
-7 -21 11 25 12 -2 -16 -4
-6 -19 15 19 14 -2 -15 -5
-8 -18 12 12 12 -6 -21 -9
-7 -18 13 18 16 -4 -20 -9
-6 -13 12 32 21 -1 -18 -8
-6 -17 14 31 21 1 -17 -9
-3 -17 13 24 19 4 -17 -8
-3 -9 9 27 16 2 -21 -10
-3 -9 6 31 17 3 -19 -10
-5 -16 9 35 23 7 -17 -8
-7 -22 14 36 28 7 -12 -3
-3 -21 17 35 28 3 -16 -3
0 -19 18 34 27 0 -19 -7
2 -19 16 39 29 1 -19 -10
6 -22 16 35 31 2 -18 -11
0 -20 17 35 32 1 -19 -11
-3 -11 14 37 30 2 -20 -15
-2 -7 12 35 27 4 -20 -11
-4 -12 13 31 20 4 -18 -11
-2 -14 15 33 24 4 -17 -9
0 -8 13 30 27 2 -19 -11
-5 -12 17 33 29 5 -17 -9
-9 -16 20 44 36 10 -15 -5
-10 -18 20 52 40 12 -12 -4
-5 -18 19 53 44 15 -11 -3
-4 -16 20 48 42 16 -10 -2
-6 -17 18 42 42 16 -11 -3
-6 -12 18 42 42 17 -11 -5
-9 -10 22 48 45 16 -9 -2
-14 -9 23 56 49 19 -8 0
-10 -12 26 62 54 20 -4 1
-8 -10 27 58 53 19 -5 -2
-7 -1 27 56 51 15 -10 -6
-7 -6 30 61 56 20 -5 -4
-7 -12 31 64 60 21 -3 -4
-3 -9 31 59 58 21 -8 -7
2 -12 33 60 63 23 -4 -4
2 -15 38 64 67 27 0 -3
6 -10 36 66 70 29 1 -3
9 -4 33 68 68 27 1 -3
1 -3 36 75 74 30 4 1
-7 -8 41 87 80 34 6 0
-4 -6 40 89 82 36 5 -2
0 -3 39 80 84 39 5 -2
2 7 39 74 86 38 4 -4
-3 10 41 85 91 42 9 1
-4 0 47 103 102 49 11 3
0 -4 47 109 104 49 13 3
2 -1 47 109 106 51 13 2
4 3 49 109 109 51 12 1
3 6 50 109 110 50 13 1
2 7 52 111 115 49 12 0
-3 9 52 112 118 49 12 1
-8 10 53 118 128 55 16 5
-6 12 56 127 132 62 19 8
-2 15 54 125 132 61 18 6
3 15 53 121 133 63 19 2
5 13 58 122 137 68 24 5
3 9 61 126 139 73 28 10
8 13 63 130 140 73 28 11
9 18 63 133 143 74 30 13
4 23 66 134 148 76 32 14
1 24 66 131 145 70 29 10
-2 23 66 130 148 73 33 9
1 25 65 130 149 74 33 10
3 25 63 129 146 75 33 13
1 32 58 125 142 72 30 11
0 32 61 124 142 76 33 14
4 27 64 126 139 79 38 17
5 26 67 131 137 80 41 20
0 31 69 133 143 80 39 20
-2 36 69 129 141 79 38 20
-1 45 64 124 138 74 35 19
1 47 62 121 135 74 35 18
2 39 59 119 132 73 32 16
2 37 56 114 130 73 34 18
-1 38 55 108 125 72 32 18
-7 37 53 103 123 74 38 22
-10 39 50 97 119 73 40 24
-6 40 45 95 109 69 39 22
-3 40 45 90 105 66 36 22
-4 44 41 79 97 59 33 19
-4 45 37 68 88 56 31 18
-2 40 34 75 85 57 34 21
1 36 28 76 80 56 33 20
3 35 26 64 75 51 32 19
5 36 22 51 65 47 28 16
-2 35 19 46 61 46 26 15
-3 28 18 50 58 43 26 17
-1 24 16 54 55 41 26 16
-2 26 12 47 47 33 21 12
-2 29 7 38 40 26 19 10
0 29 5 32 38 23 18 10
0 25 5 27 33 19 13 9
-1 21 3 19 29 16 12 7
-2 14 2 18 26 17 13 8
0 12 -1 17 19 17 12 6
-3 7 0 18 15 19 15 6
-11 5 -1 19 13 18 14 8
-11 6 -1 16 10 15 12 7
-6 6 -4 10 6 10 9 5
-6 0 -6 11 7 10 10 6
-8 -5 -4 13 7 8 7 5
-5 -2 -6 12 6 7 5 4
-1 1 -7 9 2 2 2 0
-2 -4 -4 11 4 2 2 -1
-8 -6 -4 12 2 1 0 -1
-8 -5 -3 7 -2 -1 1 0
-10 -4 -2 2 -4 -2 2 0
-6 -3 -5 -4 -4 -4 0 -2
-5 -8 -5 -4 -5 -4 -1 -3
-6 -12 -7 0 -8 -6 -3 -3
-7 -12 -5 3 -6 -9 -6 -1
-6 -11 -5 1 -8 -11 -7 -3
-1 -9 -11 -3 -11 -13 -9 -5
-7 -6 -10 -1 -9 -12 -6 -6
-6 -5 -9 -2 -9 -11 -7 -4
-3 -11 -6 2 -8 -9 -5 -3
-1 -20 -4 3 -8 -9 -6 1
-5 -19 -1 4 -9 -11 -8 -2
-6 -17 1 6 -6 -9 -6 -1
-5 -19 2 2 -4 -9 -5 -2
-5 -18 0 -3 -7 -12 -7 -1
-8 -15 3 -1 -7 -9 -6 1
-19 -14 5 4 -10 -5 -4 2
-15 -14 -1 -1 -16 -5 -6 0
-12 -13 -3 -3 -10 -5 -8 -3
-19 -11 -2 -6 -9 -4 -4 0
-9 -9 -7 -12 -16 -10 -6 -1
-2 -13 -8 -9 -21 -13 -9 -5
-3 -17 -5 -4 -20 -14 -9 -3
-6 -17 -6 -3 -18 -13 -8 -1
-9 -12 -8 -4 -18 -14 -10 -3
-12 -10 -6 0 -12 -9 -5 1
-17 -10 -4 3 -11 -10 -9 -2
-13 -12 -3 4 -10 -11 -9 -2
-9 -14 -3 1 -13 -11 -9 -1
-10 -13 -3 0 -13 -10 -5 0
-11 -9 -3 -4 -12 -10 -6 0
-6 -10 -4 -5 -13 -15 -10 -4
-4 -7 -8 -5 -13 -14 -12 -6
0 -6 -10 -6 -15 -18 -14 -8
-5 -9 -5 -6 -15 -15 -12 -5
-6 -14 -5 -5 -16 -13 -9 -2
-5 -15 -4 -4 -13 -14 -11 -3
-6 -15 -5 -4 -12 -13 -13 -3
-6 -15 -6 -3 -15 -12 -12 -2
-5 -15 -6 -3 -15 -12 -12 -1
-6 -15 -5 -4 -15 -12 -14 -2
-7 -7 -6 -8 -16 -12 -13 -1
-15 -8 -2 -6 -14 -11 -11 0
-16 -13 -1 -4 -13 -10 -9 -1
-15 -11 -1 -2 -12 -12 -10 -2
-15 -10 1 1 -10 -13 -12 -3
-15 -16 1 2 -8 -12 -12 -2
-14 -14 -1 -2 -13 -12 -13 -1
-13 -11 -4 -6 -14 -15 -15 -5
-11 -14 -4 -5 -15 -14 -13 -6
-10 -20 -3 -4 -16 -14 -14 -4
-16 -18 -1 -1 -13 -11 -9 -1
-10 -14 -4 -1 -12 -14 -15 -2
-6 -16 -3 3 -13 -19 -15 -2
-4 -17 -4 3 -12 -19 -19 -4
-4 -16 -2 -1 -10 -17 -18 -5
-7 -19 0 -8 -11 -16 -17 -7
-5 -20 0 -2 -10 -16 -18 -9
-6 -19 0 2 -8 -17 -20 -8
-4 -16 -2 -9 -9 -18 -19 -9
-6 -16 0 -10 -7 -15 -14 -3
-14 -18 2 -1 -8 -14 -14 -1
-15 -10 -1 7 -11 -16 -16 -2
-9 -6 -2 5 -12 -16 -17 -3
-6 -10 0 2 -7 -15 -17 -3
-7 -12 2 1 -5 -14 -18 -4
-8 -13 2 0 -5 -15 -18 -9
-7 -10 1 -2 -9 -16 -19 -7
-4 -8 -1 -3 -15 -16 -17 -5
-1 -14 -3 -1 -17 -17 -17 -5
-2 -13 -4 0 -14 -16 -16 -4
2 -14 -4 1 -11 -15 -16 -5
1 -18 -4 2 -10 -14 -18 -9
-8 -21 0 8 -5 -11 -15 -2
-14 -17 2 6 -5 -10 -14 1
-9 -12 0 -1 -6 -12 -18 -6
-11 -11 3 -1 -6 -13 -16 -4
-11 -14 4 2 -5 -13 -16 -4
-6 -8 0 0 -6 -15 -20 -9
-6 -5 2 0 -7 -14 -18 -7
-8 -8 3 2 -4 -12 -11 -2
-7 -8 1 -1 -7 -12 0 -2
-10 -12 1 -6 -13 -14 -3 -2
-9 -16 0 -2 -14 -13 -8 -2
-4 -11 1 3 -7 -10 -5 1
-3 -12 0 5 -5 -9 -7 -1
-12 -13 -1 6 -5 -10 -8 0
-11 -10 0 7 -6 -9 -8 1
-10 -7 -2 3 -9 -10 -9 -2
-9 -8 1 -6 -8 -11 -12 -3
-5 -9 0 -15 -9 -12 -13 -3
-5 -8 0 -10 -7 -10 -12 -1
-6 -8 0 4 -6 -11 -14 -1
-7 -11 0 2 -7 -14 -20 -4
-5 -12 -2 -4 -10 -14 -17 -6
-4 -12 -2 -3 -10 -12 -14 -3
-3 -11 -2 -6 -10 -10 -12 -1
-5 -8 -2 -8 -11 -11 -13 -3
-10 -7 -5 -4 -12 -11 -14 -4
-4 -7 -5 -2 -13 -13 -14 -4
2 -8 -5 -7 -15 -15 -16 -4
-4 -15 0 -8 -12 -14 -12 0
-3 -16 1 -8 -11 -12 -10 2
1 -10 -1 -7 -14 -14 -15 -2
-3 -9 -2 -2 -12 -12 -15 -3
-4 -12 0 0 -7 -10 -14 0
-6 -15 0 -2 -6 -10 -11 1
-6 -13 -2 -4 -8 -11 -12 0
-8 -11 -2 -6 -9 -9 -11 0
-13 -9 -2 -6 -12 -9 -10 0
-12 -11 -2 -7 -18 -11 -11 2
-9 -15 -2 -9 -21 -11 -12 0
-3 -14 -6 -12 -18 -15 -15 -1
0 -11 -7 -13 -17 -16 -16 -3
-1 -12 -5 -12 -15 -15 -16 -4
3 -12 -7 -11 -16 -17 -19 -6
2 -7 -7 -15 -21 -19 -20 -8
-2 -3 -9 -18 -26 -20 -20 -8
-1 -3 -10 -17 -25 -18 -23 -8
-4 -7 -7 -13 -20 -14 -19 -5
-9 -15 -4 -7 -17 -14 -16 -2
-7 -13 -2 -9 -16 -12 -15 -1
-5 -11 -5 -11 -20 -17 -18 -5
-7 -12 -4 -8 -19 -17 -18 -4
-12 -16 0 -7 -16 -12 -14 -3
-15 -18 2 -10 -15 -12 -12 2
-6 -17 -2 -13 -17 -14 -15 0
-3 -13 -5 -18 -18 -15 -17 -3
-8 -11 -6 -23 -21 -17 -18 -1
-7 -9 -6 -18 -21 -17 -18 -2
-4 -8 -9 -13 -22 -19 -20 -5
-3 -7 -13 -15 -26 -20 -22 -6
-4 -12 -10 -15 -25 -19 -21 -5
-3 -13 -11 -12 -24 -19 -22 -5
0 -12 -11 -10 -24 -19 -21 -8
2 -15 -8 -14 -24 -20 -23 -9
4 -14 -9 -16 -22 -19 -22 -9
3 -11 -9 -14 -20 -16 -20 -6
-2 -14 -7 -10 -21 -15 -19 -6
-1 -14 -9 -11 -23 -18 -21 -10
2 -12 -7 -17 -24 -18 -22 -7
-3 -9 -6 -18 -24 -16 -22 -5
-2 -4 -4 -16 -21 -12 -15 -1
1 -3 -4 -10 -18 -12 -14 -1
3 -5 -3 -3 -15 -11 -16 0
4 3 -2 -7 -17 -12 -17 -4
5 4 -2 -18 -20 -14 -17 -5
-2 -2 0 -17 -17 -11 -13 -1
-4 0 2 -10 -16 -10 -13 0
-5 4 1 -5 -13 -9 -14 -2
-3 5 1 -4 -14 -11 -14 -2
-6 5 1 -6 -14 -9 -14 -2
-7 1 2 -6 -13 -10 -16 0
-5 -1 3 -6 -12 -9 -11 2
-4 -2 3 -7 -14 -9 -12 1
-3 2 3 -9 -14 -9 -11 1
-2 8 1 -10 -13 -9 -13 0
4 10 1 -7 -12 -6 -11 0
8 12 2 -7 -13 -6 -10 2
-2 14 2 -7 -14 -9 -10 2
-6 13 2 -12 -18 -12 -13 2
-4 17 -1 -20 -20 -13 -15 -1
-1 14 -3 -27 -24 -16 -18 -4
0 8 -2 -29 -21 -14 -16 0
0 2 -7 -24 -18 -11 -14 2
1 3 -14 -23 -23 -14 -15 0
6 8 -14 -24 -28 -17 -16 0
11 5 -13 -27 -30 -16 -13 1
11 3 -11 -23 -32 -12 -13 3
13 9 -13 -23 -30 -17 -18 -5
11 9 -17 -30 -34 -21 -21 -2
11 6 -16 -29 -35 -19 -18 -2
15 3 -16 -28 -34 -20 -19 -1
11 -3 -12 -26 -32 -21 -18 -3
0 -8 -8 -23 -29 -19 -16 -1
4 -9 -10 -24 -30 -20 -17 -3
9 -5 -11 -25 -33 -21 -19 -3
10 -3 -9 -19 -33 -20 -20 -5
6 -7 -7 -21 -36 -20 -21 -7
3 -12 -1 -22 -31 -19 -18 -4
-1 -12 0 -26 -30 -21 -20 -5
-1 -15 0 -24 -31 -21 -21 -7
4 -14 -2 -25 -33 -21 -20 -7
4 -15 -3 -27 -34 -25 -23 -9
4 -18 -7 -27 -37 -28 -27 -12
2 -16 -6 -28 -39 -28 -28 -15
1 -17 -7 -27 -39 -28 -29 -14
-1 -20 -6 -28 -38 -28 -31 -12
-3 -22 -6 -26 -40 -26 -29 -12
-6 -27 -6 -21 -38 -26 -27 -11
-4 -24 -6 -19 -37 -26 -26 -10
-1 -20 -8 -21 -40 -31 -30 -14
2 -16 -9 -29 -44 -37 -34 -17
2 -18 -6 -32 -44 -34 -31 -12
-1 -23 -3 -36 -40 -30 -27 -8
1 -25 -5 -37 -42 -32 -28 -11
-3 -26 -6 -32 -41 -31 -29 -12
-4 -20 -10 -32 -44 -33 -31 -14
7 -20 -8 -34 -45 -31 -31 -14
6 -27 -5 -35 -46 -32 -30 -15
2 -22 -6 -35 -47 -33 -31 -17
3 -19 -8 -33 -46 -32 -30 -16
8 -21 -8 -33 -47 -32 -30 -15
7 -22 -8 -32 -48 -32 -29 -13
4 -23 -6 -30 -46 -35 -36 -16
1 -19 -4 -27 -45 -34 -31 -16
2 -19 0 -25 -38 -29 -27 -11
3 -21 -1 -37 -42 -32 -28 -14
9 -18 -7 -48 -49 -36 -34 -18
13 -20 -9 -42 -50 -35 -32 -17
12 -29 -9 -29 -48 -30 -27 -13
13 -35 -9 -30 -51 -28 -25 -11
14 -30 -7 -31 -44 -24 -25 -14
13 -23 -6 -24 -31 -19 -26 -16
10 -14 0 -9 -14 -7 -22 -9
7 -13 10 11 10 12 -11 -8
12 -6 24 36 47 39 -2 -4
22 -3 45 65 82 66 8 0
23 -2 58 90 109 93 23 9
20 8 66 112 130 122 44 23
18 13 63 111 141 148 62 36
22 30 56 108 155 179 86 49
27 56 45 91 159 203 108 66
28 77 22 60 138 222 136 85
35 96 -5 14 91 226 164 108
44 115 -34 -37 37 226 186 127
41 129 -57 -74 1 241 214 147
44 144 -87 -110 -38 256 244 164
43 160 -120 -149 -75 267 264 180
41 182 -156 -200 -121 264 271 185
31 200 -185 -252 -171 235 255 178
16 198 -204 -292 -222 173 216 154
4 179 -221 -329 -290 72 144 115
-7 143 -226 -354 -352 -59 42 60
-17 104 -231 -367 -402 -183 -52 7
-23 64 -233 -370 -429 -267 -119 -29
-22 26 -229 -356 -426 -310 -158 -56
-19 11 -217 -330 -406 -318 -175 -69
-17 5 -198 -300 -376 -310 -177 -77
-20 -2 -180 -271 -343 -286 -169 -81
-21 -8 -160 -234 -302 -253 -156 -81
-22 -19 -141 -199 -266 -223 -140 -74
-24 -23 -132 -179 -242 -205 -128 -66
-13 -15 -120 -165 -219 -186 -119 -61
-4 -17 -105 -146 -194 -168 -111 -60
-2 -18 -87 -121 -166 -148 -100 -53
1 -25 -71 -92 -140 -128 -86 -46
6 -35 -61 -77 -120 -111 -78 -43
5 -33 -50 -73 -101 -93 -69 -39
-2 -31 -38 -59 -83 -73 -55 -32
-3 -28 -35 -50 -77 -61 -48 -27
5 -20 -28 -42 -70 -50 -42 -23
6 -12 -19 -26 -52 -39 -33 -16
2 -12 -11 -14 -37 -30 -27 -12
2 -17 -7 -10 -29 -28 -28 -15
1 -14 -2 -7 -22 -23 -27 -13
5 -15 2 -8 -17 -19 -21 -10
6 -19 3 -8 -13 -14 -21 -12
4 -19 1 -11 -14 -15 -23 -19
4 -11 -1 -9 -15 -15 -22 -12
7 -10 -1 -1 -16 -11 -18 -7
6 -12 3 8 -14 -5 -14 -4
6 -15 7 6 -9 -5 -13 -4
8 -19 8 -1 -8 -7 -16 -8
12 -17 7 -2 -6 -9 -15 -10
11 -15 6 2 -6 -12 -18 -10
5 -16 9 9 -2 -9 -15 -7
1 -13 13 7 2 -3 -14 -6
-2 -18 15 5 5 1 -11 -4
3 -18 11 6 5 -1 -13 -6
7 -14 10 10 6 2 -9 -6
2 -15 10 11 7 3 -7 -4
2 -15 14 11 10 5 -5 0
6 -8 14 11 10 2 -9 -1
5 -7 13 13 10 -3 -9 -4
9 -9 15 16 12 -2 -11 -3
11 -13 17 17 13 -2 -11 -5
11 -9 17 15 14 1 -10 -7
13 -5 14 2 11 0 -12 -9
3 -9 17 3 15 3 -10 -3
-1 -11 18 11 17 7 -5 1
3 -12 17 23 22 7 -6 0
9 -8 16 19 21 4 -8 -1
10 -7 18 16 20 4 -8 -2
4 -10 21 17 19 5 -7 -1
5 -9 19 17 20 4 -8 -2
10 -7 16 21 19 4 -9 -3
16 -8 13 16 15 6 -10 -5
12 -11 17 18 25 11 -7 -2
3 -10 17 26 31 13 -6 -2
7 -10 17 29 31 17 -5 -1
13 -10 18 30 34 18 -3 -2
13 -6 18 27 33 17 -4 0
9 -5 19 29 35 16 -4 -1
6 -5 23 34 40 18 -1 1
3 -10 26 40 44 18 -2 1
6 -11 28 42 45 16 -4 -1
4 -8 27 43 46 22 -2 -2
0 -6 26 40 49 25 0 -2
2 -5 25 38 50 25 -1 -2
5 -6 24 41 48 23 -4 -3
7 -3 24 45 50 27 -3 -2
9 -3 29 47 55 30 4 2
6 -4 33 54 61 34 6 4
5 2 36 58 65 33 4 2
7 6 37 59 68 30 -2 -1
14 5 36 61 72 31 1 -1
16 7 39 61 75 35 2 0
13 5 40 64 82 39 3 1
15 -3 43 66 88 44 5 4
21 0 45 69 87 44 6 0
21 2 46 76 89 47 8 1
19 2 45 80 92 47 9 3
25 8 45 79 94 46 8 0
24 8 49 85 102 48 9 2
12 5 56 98 116 58 19 12
5 5 58 103 121 61 23 14
2 9 63 104 126 64 25 16
-1 12 65 104 130 67 28 14
-1 14 64 106 132 68 27 12
4 18 64 101 130 69 25 12
8 19 63 97 131 72 26 11
10 22 62 99 133 69 26 13
15 25 61 115 138 71 26 12
10 24 66 125 145 75 29 16
9 20 69 125 149 76 30 18
10 25 71 119 149 78 34 18
9 30 72 113 150 79 33 18
13 38 67 106 150 78 32 17
17 30 64 104 147 78 31 17
18 33 61 107 141 78 31 15
16 31 63 113 139 82 33 16
11 31 63 113 146 82 35 22
12 43 63 107 145 81 35 21
14 46 59 99 137 77 32 17
11 39 60 106 140 79 34 21
6 37 63 109 141 85 40 25
2 31 62 109 141 86 40 27
6 38 57 102 136 82 37 21
10 42 54 90 130 79 33 22
10 44 52 83 123 76 34 23
14 47 47 79 118 73 32 19
14 48 41 77 112 70 30 17
10 48 39 76 111 68 30 17
12 51 40 74 107 68 33 21
14 54 36 65 101 63 29 20
11 57 33 56 94 59 27 16
13 48 29 53 93 61 29 19
12 37 27 50 90 61 32 22
13 30 25 48 85 59 31 21
14 25 23 47 79 55 32 19
14 30 18 40 69 49 28 18
14 35 15 30 59 46 29 21
9 35 13 22 52 44 27 20
8 29 12 21 50 42 26 19
3 27 15 24 50 41 27 18
0 26 12 25 47 34 21 15
-1 27 6 25 43 33 18 13
1 22 3 17 36 30 18 14
4 23 -1 3 31 28 16 10
3 14 2 -4 29 27 15 10
5 5 1 -2 27 26 18 13
8 8 -5 -1 24 22 17 11
9 15 -7 -5 19 17 11 6
0 5 -4 -1 18 15 11 8
2 4 -2 9 19 14 12 7
5 7 -4 5 15 8 5 2
7 3 -7 -5 11 8 4 4
8 2 -8 -12 7 7 5 2
4 1 -12 -14 3 5 1 -5
-3 -2 -10 -10 2 7 5 1
0 -8 -7 -7 3 4 4 3
0 -11 -8 -9 8 8 10 6
-3 -7 -8 -14 5 5 6 3
-2 -2 -9 -14 3 2 4 2
2 -3 -7 -12 4 0 5 1
3 -2 -7 -12 5 0 4 2
1 -8 -9 -12 5 0 3 1
3 -10 -8 -13 2 -4 1 -1
3 -7 -5 -13 -2 -4 3 0
2 -7 -8 -18 -6 -1 3 -2
6 -8 -10 -22 -10 -4 2 -3
3 -9 -7 -23 -13 -4 2 -4
3 -10 -8 -21 -18 -6 -1 -1
9 -11 -8 -17 -12 -6 0 -2
8 -14 -6 -13 -4 -6 2 -2
3 -9 -3 -15 -2 -4 3 -1
1 -5 -5 -18 -3 -3 1 -3
-4 -5 -3 -17 -6 -3 3 -1
-6 -8 -1 -15 -7 -2 5 1
-6 -10 -2 -15 -5 0 5 2
-4 -11 -3 -14 -6 0 5 -1
-1 -12 -4 -16 -8 -4 3 -3
-3 -13 -4 -16 -7 -5 4 1
-1 -9 -4 -22 -9 -6 0 -2
-1 -11 -3 -22 -8 -5 0 -3
-3 -9 -7 -20 -8 -9 0 -3
-3 -3 -8 -16 -7 -7 0 -4
2 -4 -9 -15 -9 -9 -1 -4
5 -10 -7 -12 -7 -6 -2 -3
5 -12 -5 -12 -5 -4 4 0
2 -13 -5 -13 -8 -6 3 -1
-4 -12 -3 -15 -7 -8 3 -2
-9 -13 -2 -15 -7 -8 0 -2
-6 -12 -3 -22 -9 -11 -2 -4
-2 -13 -1 -31 -9 -12 -5 -6
-2 -15 0 -32 -9 -10 -5 -5
1 -10 -4 -24 -10 -10 -6 -7
3 -8 -8 -12 -10 -10 -3 -6
4 -11 -11 -8 -7 -9 -3 -6
1 -8 -8 -13 -6 -11 -4 -5
-6 -8 -5 -18 -6 -9 -4 -5
-6 -9 -3 -17 -7 -8 -3 -5
2 -7 -5 -16 -11 -9 -3 -4
3 -9 -7 -17 -15 -14 -4 -6
-4 -9 -5 -11 -12 -10 -2 -4
-3 -10 -4 -12 -10 -10 -2 -5
-8 -14 -4 -15 -8 -11 -4 -4
-7 -13 -2 -17 -8 -10 -2 -3
-4 -14 -4 -20 -10 -13 -5 -6
-6 -5 -5 -17 -11 -15 -5 -8
-1 -2 -7 -14 -12 -18 -10 -9
0 -10 -1 -9 -7 -15 -6 -6
-2 -10 2 -7 -5 -13 -5 -5
-3 -10 4 -10 -4 -12 -4 -2
-4 -16 2 -17 -5 -9 0 -2
-6 -19 5 -15 -2 -8 1 0
-4 -13 2 -11 -3 -10 0 -3
-6 -7 -3 -12 -4 -12 1 -7
-5 -8 -2 -13 -4 -13 -2 -9
-8 -11 0 -10 -2 -10 0 -5
-3 -12 -1 -11 -3 -13 -1 -6
-1 -14 0 -11 0 -11 1 -5
-4 -11 0 -11 -1 -12 0 -6
-2 -7 -1 -10 -8 -16 -2 -9
0 -13 2 -12 -11 -15 -1 -8
0 -17 4 -12 -5 -13 0 -6
-3 -11 2 -13 -6 -14 -2 -9
-9 -13 -1 -10 -8 -14 -2 -11
-8 -17 1 -7 -6 -13 -2 -8
-1 -14 2 -8 -6 -13 -2 -6
1 -8 -4 -12 -8 -13 -1 -10
-3 -13 -2 -8 -4 -10 3 -6
-4 -10 0 -11 -1 -10 3 -5
0 -3 -3 -12 -4 -12 2 -6
3 -5 -1 -5 -2 -13 2 -4
4 -10 -2 -4 -3 -16 -2 -8
5 -10 -1 -5 -3 -15 -2 -7
2 -10 3 -4 1 -11 3 -3
1 -11 3 -9 -2 -12 2 -5
3 -9 2 -14 -6 -14 1 -6
0 -9 2 -13 -5 -12 2 -6
0 -6 -2 -8 -4 -13 3 -8
-1 -5 -2 -6 -2 -13 4 -7
-2 -7 -1 -12 -3 -13 1 -7
0 -6 0 -8 -2 -12 5 -6
-7 -6 0 -3 -3 -9 8 -3
-12 -7 0 -2 -2 -7 7 -1
-11 -6 2 -3 3 -4 10 0
-6 -6 -1 -6 -1 -9 9 -2
0 -5 -8 -10 -7 -13 4 -5
-2 -6 -5 -9 -6 -10 9 -2
-4 -9 -3 -7 -5 -10 9 -2
-2 -9 -3 -6 -5 -9 7 -2
0 -6 -5 -7 -8 -13 3 -5
-2 -7 -6 -6 -6 -14 4 -6
-5 -6 -3 -5 -3 -12 8 -2
-8 -10 -2 -7 -6 -11 5 -3
-6 -11 -1 -4 -5 -11 6 -4
-5 -9 -1 -3 -3 -9 5 -4
0 -6 -4 -9 -8 -13 4 -6
1 -3 -2 -9 -7 -13 3 -7
-3 -7 0 -9 -5 -13 6 -5
-2 -9 -2 -16 -9 -15 5 -6
-2 -6 -2 -16 -11 -15 4 -4
-4 -10 -2 -8 -7 -12 8 -3
-4 -7 -5 0 -8 -12 8 -4
-1 -7 -6 0 -8 -14 3 -3
-1 -11 -6 -7 -7 -14 5 -5
-1 -7 -3 -16 -8 -12 6 -6
-7 -8 -3 -20 -11 -11 8 -3
-5 -7 -5 -18 -13 -13 5 -5
-2 -6 -5 -13 -14 -14 6 -5
-2 -8 -4 -9 -15 -17 6 -3
-2 -9 -5 -7 -13 -15 9 -2
-5 -7 -5 -8 -12 -15 6 -5
-9 -9 -5 -8 -11 -18 4 -6
-7 -7 -3 -6 -10 -16 4 -4
-10 -5 -2 -6 -10 -18 3 -5
-11 -6 1 -5 -9 -16 8 -5
-7 -5 0 -10 -9 -17 7 -3
-6 0 -6 -22 -16 -23 -1 -9
-2 -5 -5 -21 -17 -24 -2 -11
6 -10 -3 -11 -17 -21 3 -8
-2 -12 -2 -7 -16 -19 5 -5
-8 -15 1 -8 -14 -17 8 -1
-6 -14 0 -13 -16 -19 4 -4
-5 -15 -1 -10 -15 -17 4 -6
-8 -12 0 -4 -13 -16 6 -4
-11 -13 -1 -4 -14 -17 6 -5
-12 -7 -2 -7 -14 -17 7 -6
-8 -5 -3 -5 -15 -18 4 -7
-4 -11 -3 -7 -16 -20 5 -8
-6 -16 2 -6 -12 -16 10 -2
-6 -13 2 -8 -15 -20 5 -5
-2 -7 -1 -9 -15 -22 2 -8
-3 -11 2 -5 -12 -21 4 -5
-3 -13 0 -7 -14 -22 0 -5
0 -12 1 -8 -14 -23 0 -8
-4 -17 3 -12 -14 -23 1 -9
-13 -17 4 -12 -14 -21 0 -7
-15 -15 5 -7 -13 -18 1 -4
-14 -11 2 -3 -10 -18 5 -3
-12 -6 4 3 -6 -17 3 -5
-11 2 8 6 -6 -16 1 -5
-9 2 8 2 -11 -17 -1 -3
-4 2 8 -4 -12 -19 -2 -5
0 3 9 -9 -12 -17 -1 -5
2 0 8 -13 -14 -15 -1 -5
1 -2 6 -11 -12 -13 0 -2
-4 1 4 -3 -10 -12 -3 -5
-9 5 3 2 -11 -9 -2 -3
-8 9 5 3 -9 -6 -1 -1
-7 5 10 4 -6 -7 -5 -2
-4 10 10 -2 -6 -4 -3 -2
-2 12 8 -7 -8 -5 -6 -5
-2 15 6 -5 -7 -8 -8 -7
-3 10 10 2 -4 -5 -5 -4
-3 -1 12 5 -3 -3 -1 0
-3 2 10 3 -5 -6 -3 0
-5 8 10 2 -4 -5 -1 0
-4 5 9 1 -5 -6 0 0
-4 7 8 -2 -8 -9 -1 2
-3 10 4 -6 -13 -13 -6 -1
-3 6 2 -7 -13 -13 -7 -3
-6 7 2 -3 -12 -12 -5 -3
-7 13 1 1 -10 -12 -4 -2
-2 19 -3 -2 -12 -15 -4 1
-1 18 -4 -13 -16 -17 -7 -5
-2 12 -5 -22 -20 -18 -8 -5
-1 7 -2 -17 -20 -15 -7 1
-2 2 -1 -3 -21 -15 -4 1
0 -4 -4 -5 -20 -15 -3 0
0 -7 -2 -9 -20 -15 -5 1
-4 -3 -1 -10 -20 -17 -7 -3
-6 -4 0 -9 -18 -19 -5 -2
-2 -2 -2 -13 -20 -23 -12 -6
-1 -7 -2 -15 -22 -25 -14 -8
3 -9 -2 -9 -20 -22 -12 -4
-2 -8 -1 -3 -20 -19 -10 -5
-16 -7 2 1 -23 -17 -11 -6
-16 -6 4 2 -23 -15 -9 -4
-10 -5 4 -1 -21 -19 -9 -6
-11 -7 4 -2 -22 -22 -14 -10
-10 -13 7 0 -21 -24 -15 -11
-15 -17 7 1 -19 -24 -14 -12
-13 -12 2 -5 -23 -29 -20 -17
-13 -11 4 -2 -21 -26 -19 -18
-13 -16 5 1 -23 -28 -17 -16
-13 -23 9 -2 -25 -26 -16 -9
-14 -32 9 -7 -27 -25 -13 -8
-15 -29 7 -6 -28 -24 -12 -7
-12 -21 5 -10 -31 -28 -15 -10
-10 -22 4 -16 -32 -29 -17 -13
-12 -23 3 -12 -30 -29 -17 -15
-16 -24 5 -7 -28 -32 -19 -16
-11 -23 2 -10 -31 -37 -23 -19
-5 -18 2 -12 -32 -38 -24 -17
-6 -16 -2 -13 -34 -38 -22 -18
-8 -19 -5 -12 -34 -36 -20 -16
-9 -20 -3 -12 -36 -33 -20 -16
-11 -25 0 -7 -33 -28 -16 -14
-9 -19 1 -5 -32 -29 -17 -14
-8 -15 -1 -8 -33 -29 -19 -16
-10 -17 1 -10 -34 -29 -18 -17
-11 -18 2 -8 -31 -28 -17 -16
-11 -18 0 -9 -32 -30 -19 -17
-8 -21 0 -11 -33 -32 -22 -20
-9 -23 2 -12 -32 -31 -19 -20
-11 -22 1 -12 -32 -31 -19 -21
-14 -18 2 -9 -32 -32 -20 -20
-14 -20 3 -9 -32 -31 -18 -18
-13 -20 5 -17 -34 -33 -19 -15
-11 -21 7 -16 -32 -30 -15 -12
-6 -33 7 -3 -25 -23 -14 -13
-5 -35 11 10 -17 -16 -10 -11
0 -30 16 16 -6 -7 -7 -12
-3 -24 25 28 17 12 1 -9
-3 -17 40 55 52 41 11 -4
-4 -11 55 86 89 68 19 -3
-5 -3 68 114 122 95 33 5
-3 10 82 134 147 125 59 23
5 18 79 137 160 149 75 32
13 37 72 135 170 172 96 43
14 60 62 125 176 197 122 61
19 73 45 93 162 218 148 78
24 85 23 48 123 228 176 101
25 106 -4 7 75 233 205 122
24 128 -31 -32 34 243 230 140
25 150 -62 -74 -6 255 254 155
30 162 -100 -118 -49 260 271 167
23 175 -133 -166 -90 260 281 175
11 200 -164 -222 -142 236 273 173
3 207 -190 -264 -197 180 234 153
-6 180 -210 -295 -259 85 165 114
-20 142 -212 -317 -317 -36 74 68
-33 101 -211 -335 -369 -156 -18 15
-39 71 -217 -340 -401 -250 -91 -27
-43 37 -214 -330 -403 -299 -133 -53
-42 19 -204 -308 -385 -310 -154 -70
-41 12 -186 -278 -359 -308 -160 -80
-41 8 -171 -254 -332 -288 -157 -87
-41 1 -151 -222 -298 -260 -146 -87
-39 -11 -137 -188 -266 -232 -131 -82
-37 -19 -127 -165 -240 -209 -114 -72
-30 -16 -113 -144 -216 -188 -104 -66
-26 -25 -92 -117 -186 -163 -90 -61
-26 -32 -73 -88 -146 -142 -79 -55
-22 -32 -60 -67 -122 -127 -69 -48
-18 -34 -48 -54 -104 -108 -58 -44
-17 -36 -37 -47 -91 -92 -48 -40
-14 -29 -30 -45 -79 -77 -40 -35
-7 -24 -23 -33 -65 -66 -33 -32
-7 -23 -16 -15 -52 -51 -26 -27
-10 -20 -9 -5 -41 -42 -19 -24
-8 -13 -2 1 -29 -33 -15 -21
-7 -14 3 1 -23 -27 -11 -19
-9 -15 6 9 -14 -21 -8 -15
-7 -15 7 16 -11 -24 -13 -18
-9 -16 13 18 -6 -18 -11 -17
-8 -16 16 22 -1 -11 -3 -10
-7 -17 16 20 1 -9 -3 -13
-10 -14 16 17 -2 -11 -2 -15
-15 -10 16 18 -2 -9 3 -9
-18 -15 19 19 -1 -10 2 -7
-16 -15 22 23 2 -10 -1 -9
-17 -14 25 30 7 -6 -2 -9
-19 -18 28 32 10 -4 -1 -8
-12 -16 23 30 10 -5 -2 -6
-8 -13 23 30 7 -8 -9 -9
-6 -12 22 30 8 -6 -9 -11
-6 -12 23 28 11 -2 -10 -9
-10 -13 25 28 12 1 -6 -7
-14 -15 26 28 12 2 -8 -7
-11 -19 28 28 14 3 -5 -6
-11 -15 25 25 11 0 -10 -9
-12 -10 25 32 15 0 -12 -10
-6 -11 25 37 15 -3 -15 -15
-8 -11 22 38 15 -3 -16 -14
-6 -10 23 36 17 -1 -17 -12
-10 -14 25 31 18 1 -13 -9
-11 -16 26 30 20 3 -12 -8
-11 -15 27 38 20 3 -13 -10
-15 -15 28 45 23 7 -12 -8
-10 -11 28 41 24 5 -11 -7
-10 -5 29 39 25 8 -6 -1
-8 -9 27 41 27 11 -4 1
-4 -12 25 44 28 10 -7 -3
-2 -18 25 48 33 8 -9 -3
-2 -18 27 43 32 7 -11 -5
-1 -12 25 38 29 7 -14 -9
-5 -5 22 41 28 7 -12 -10
-6 -3 23 44 29 12 -9 -6
-4 -5 23 41 28 10 -11 -9
-6 -8 27 45 33 13 -11 -8
-3 -7 30 51 37 16 -10 -7
-1 -7 29 56 41 15 -9 -7
-2 -9 30 56 43 17 -10 -6
-1 -6 32 57 45 17 -10 -8
-4 -7 33 63 49 20 -9 -5
0 -6 30 63 48 19 -14 -9
-3 -1 31 58 49 20 -16 -13
-9 -5 32 55 52 24 -13 -13
-6 -11 35 57 56 28 -8 -8
-7 -11 35 66 61 30 -1 -3
-5 -13 38 79 69 34 5 1
-1 -7 40 81 73 34 3 -3
-1 -7 40 80 76 32 -2 -5
-8 -5 45 84 81 34 -2 -5
-7 1 44 87 84 33 -6 -8
6 1 42 88 83 33 -4 -9
3 -1 45 88 86 42 7 -1
-7 -1 46 87 87 48 11 6
-9 3 45 87 89 51 6 1
-8 5 50 93 96 51 9 -2
-4 -1 55 97 104 55 9 0
1 0 56 103 111 58 13 6
-2 5 57 111 116 59 13 6
-4 9 57 113 116 60 11 3
-5 11 62 114 117 65 13 4
-6 14 63 114 120 68 15 -1
-5 19 61 113 123 67 11 -5
1 21 58 113 125 69 13 -2
-2 18 60 119 129 75 19 6
-7 15 65 126 130 77 21 9
-4 17 66 126 128 76 20 8
-7 19 72 130 135 79 23 11
-5 23 71 132 144 81 26 11
-1 26 69 130 142 80 26 10
1 30 68 128 144 84 28 12
0 30 70 132 146 90 33 16
5 31 68 129 141 83 25 8
12 25 67 125 138 79 24 8
12 21 65 115 136 80 24 9
6 27 63 112 136 84 27 11
-1 28 66 123 140 87 30 13
-2 36 64 133 141 84 24 9
2 47 60 125 137 80 20 3
5 45 60 112 134 79 23 5
3 38 61 113 135 84 31 15
1 35 62 114 132 86 36 21
-2 37 60 110 130 86 36 21
1 42 54 98 124 82 33 18
4 46 52 94 118 78 27 14
-2 42 49 97 113 72 23 10
1 44 46 92 110 71 27 12
6 44 43 86 104 70 30 12
5 42 41 80 101 69 30 11
7 41 40 77 98 67 30 12
4 38 41 78 98 68 28 15
-3 36 41 78 94 69 29 17
-3 30 41 70 89 70 33 16
0 31 32 56 77 61 24 11
1 33 28 47 67 55 21 11
4 36 25 39 60 52 24 10
-1 37 22 39 55 54 26 11
-5 34 18 40 51 51 25 11
-6 26 19 39 50 45 24 10
-8 16 20 35 48 37 18 7
-6 11 20 32 44 35 16 8
-3 14 17 26 39 33 14 6
-2 15 14 21 37 31 14 0
-7 13 13 19 32 32 15 2
-10 11 14 19 29 28 12 1
-3 8 12 19 26 23 9 1
-1 5 8 17 23 20 7 0
-4 7 9 13 20 16 5 -2
-9 5 15 13 22 17 8 -1
-8 -1 7 4 18 13 5 -6
0 1 3 -1 11 11 2 -10
-2 0 3 -1 9 11 0 -8
-8 -3 4 -2 6 10 1 -6
-6 -5 3 -2 1 7 -2 -9
-6 -8 2 1 4 10 -1 -8
-6 -10 4 4 5 11 5 -2
-3 -8 6 4 1 7 4 -3
-9 -11 6 -3 1 4 0 -4
-8 -9 6 -11 1 3 -1 -7
-10 -5 6 -9 -1 2 -3 -10
-14 -2 2 2 -1 1 -7 -11
-7 -3 1 3 0 0 -6 -12
-10 -6 1 -1 -1 -1 -3 -11
-9 -14 2 -2 0 2 0 -6
-8 -14 3 -4 0 3 0 -6
0 -13 2 -8 -6 -2 -6 -12
2 -18 3 -5 -5 0 -1 -8
-10 -17 8 4 1 5 5 -1
-12 -15 8 3 0 3 3 -5
-6 -9 6 -11 0 3 2 -8
-15 -11 6 -14 -1 -2 -3 -9
-12 -13 6 -8 -1 1 -1 -10
-6 -14 4 -4 -3 2 -1 -10
-6 -19 1 -4 -9 0 -2 -8
0 -20 -1 -4 -11 -1 -4 -13
0 -13 0 -6 -7 -5 -5 -15
-3 -5 1 -7 -8 -8 -3 -12
-3 -1 4 -5 -4 -4 1 -11
-3 -10 5 -5 -3 -4 1 -11
-4 -19 6 -8 -3 -7 -3 -11
-2 -16 6 -7 -3 -8 -5 -13
-7 -16 4 -5 -2 -5 0 -10
-9 -19 5 -3 2 2 9 -6
-13 -21 8 -4 0 4 12 -4
-8 -11 0 -10 -3 1 9 -6
-3 -7 0 -8 -3 -1 8 -7
-5 -15 3 -6 -2 -2 8 -10
-7 -14 3 -5 -1 -4 6 -13
-5 -12 2 -5 -3 -7 3 -12
-6 -18 3 -8 -5 -7 2 -11
-9 -13 4 -6 -3 -3 5 -10
-11 -9 7 -8 -5 -7 1 -13
-11 -11 6 -15 -4 -7 -1 -14
-5 -14 1 -21 -5 -6 1 -10
0 -9 -4 -20 -8 -9 -3 -14
0 -6 -4 -8 -6 -6 1 -12
-3 -6 -5 -4 -5 -9 0 -11
-3 -11 -5 -3 -2 -10 3 -13
-3 -16 -2 -2 -1 -11 1 -13
-6 -16 1 -6 -2 -11 0 -13
-4 -14 1 -10 -3 -7 2 -15
-7 -12 0 -14 -8 -11 0 -17
-16 -17 1 -11 -6 -7 2 -14
-13 -23 0 -5 -6 -4 3 -10
-7 -28 2 1 -2 0 7 -8
-10 -31 4 1 1 -3 5 -9
-10 -21 1 -8 -2 -10 1 -11
-13 -12 -1 -9 -1 -11 2 -11
-4 -8 -6 -5 -2 -13 -1 -15
4 -13 -2 -1 -2 -15 -6 -15
-3 -16 1 -1 1 -12 -3 -12
-1 -12 2 -3 4 -11 2 -12
-2 -12 2 -7 2 -12 -1 -11
-3 -21 2 -9 -1 -12 -3 -14
5 -23 2 -4 -3 -8 1 -11
4 -14 0 -5 -9 -11 0 -12
0 -14 -4 -9 -9 -14 -5 -15
-3 -15 -3 -6 -3 -12 -5 -18
-6 -15 -2 1 1 -10 -5 -19
-5 -19 0 6 6 -8 -3 -17
-1 -19 0 1 2 -8 1 -12
-6 -19 -3 -1 0 -9 -2 -12
-4 -19 -6 -1 1 -10 -6 -14
7 -13 -7 -4 1 -7 -4 -13
6 -9 -7 -5 0 -4 2 -9
6 -8 -5 -6 -2 -8 -1 -12
2 -9 -5 -6 -3 -14 -7 -17
0 -8 -4 -2 -1 -12 -7 -17
-8 -16 -1 1 4 -7 -3 -14
-13 -18 1 2 6 -6 0 -12
-8 -17 4 2 5 -7 1 -9
-5 -20 2 0 6 -4 3 -6
-7 -14 -3 -3 4 -6 0 -8
-3 -10 -6 -4 3 -7 -4 -10
1 -10 -9 -1 4 -3 -1 -10
6 -7 -10 -6 0 -7 -2 -14
8 -2 -9 -11 -3 -18 -14 -22
4 -5 -8 -14 -5 -18 -15 -23
10 -14 -4 -5 -1 -11 -4 -13
9 -20 -3 2 0 -11 -1 -8
5 -19 -2 1 3 -6 1 -5
1 -15 -4 -5 4 -4 -1 -7
-5 -8 -5 -7 5 -5 -3 -10
-9 -7 -2 -4 7 -3 -1 -8
-7 -10 -1 -4 6 -4 -3 -10
-2 -8 -4 -2 3 -6 -4 -10
4 -7 -5 -2 -3 -11 -6 -10
3 -4 -4 -8 -6 -12 -7 -13
1 -5 -3 -9 -5 -7 -5 -12
5 -7 -6 -10 -7 -8 -5 -9
7 -10 -11 -13 -6 -8 -6 -10
6 -9 -10 -12 -4 -9 -8 -9
2 -16 -6 -9 -4 -8 -4 -8
0 -13 -7 -7 -3 -3 0 -4
3 -8 -9 -10 -9 -6 -4 -10
-1 -13 -9 -10 -12 -13 -11 -13
-4 -13 -9 -3 -4 -9 -9 -9
-2 -14 -5 2 -2 -7 -2 -3
1 -19 -5 1 -3 -9 -2 -2
5 -17 -7 -4 -4 -9 -4 -2
6 -13 -7 -12 -8 -13 -10 -7
-1 -12 -7 -10 -8 -12 -12 -8
-4 -11 -7 -7 -7 -9 -9 -6
0 -18 -9 -3 -6 -8 -9 -10
-1 -13 -10 -8 -7 -11 -12 -12
-2 -7 -12 -14 -10 -15 -15 -14
-3 -7 -11 -10 -8 -14 -17 -14
-5 -9 -10 -8 -7 -8 -7 -6
-6 -12 -10 -7 -6 -4 -5 -3
-4 -15 -11 -11 -8 -7 -7 -3
1 -13 -13 -8 -14 -10 -7 -6
1 -17 -12 1 -14 -12 -11 -7
0 -18 -12 -5 -8 -11 -11 -9
0 -12 -13 -19 -11 -11 -13 -10
7 -11 -17 -29 -16 -16 -18 -16
15 -9 -21 -26 -20 -21 -22 -20
10 -10 -18 -9 -18 -20 -14 -10
2 -9 -17 -4 -16 -18 -12 -5
-1 -13 -14 -6 -12 -17 -12 -5
-2 -17 -14 -9 -9 -14 -12 -6
2 -18 -12 -10 -12 -18 -15 -8
2 -17 -10 -6 -14 -18 -16 -9
2 -15 -11 -5 -13 -15 -15 -10
0 -10 -12 -9 -14 -15 -18 -11
-4 -11 -12 -13 -15 -12 -14 -9
0 -17 -10 -13 -14 -12 -13 -6
3 -17 -9 -12 -17 -14 -14 -8
4 -12 -12 -14 -19 -18 -20 -14
4 -9 -13 -14 -16 -20 -21 -12
5 -11 -13 -13 -15 -19 -21 -12
2 -15 -15 -14 -15 -21 -23 -12
-3 -12 -15 -10 -15 -21 -21 -8
-5 -8 -15 -13 -17 -18 -21 -8
-7 -12 -14 -9 -16 -17 -19 -10
-7 -17 -8 -9 -16 -16 -17 -8
-5 -16 -12 -16 -16 -15 -13 -7
-4 -12 -16 -17 -15 -16 -16 -6
-5 -15 -18 -15 -21 -22 -20 -10
-3 -18 -17 -14 -18 -20 -20 -12
-4 -14 -16 -11 -16 -19 -21 -13
-7 -9 -13 -7 -12 -16 -20 -13
-7 -5 -12 -6 -10 -13 -15 -8
-11 -1 -6 -6 -7 -5 -11 1
-15 -2 -2 -5 -8 -10 -12 1
-8 -2 -5 -8 -9 -12 -13 -1
-1 -2 -7 -6 -12 -15 -17 -3
6 -1 -8 -4 -13 -15 -15 -4
5 0 -7 -4 -13 -12 -14 -1
-5 0 -4 -3 -9 -10 -14 -3
-4 -3 -3 -4 -11 -14 -18 -5
-1 -2 -4 -5 -11 -12 -18 -7
0 -3 -5 -7 -7 -10 -16 -6
3 5 -9 -15 -10 -11 -19 -4
2 6 -10 -20 -15 -15 -23 -7
0 4 -11 -15 -14 -14 -19 -9
-1 0 -10 -4 -11 -12 -15 -1
-6 -7 -7 -3 -8 -10 -13 4
-3 -1 -8 -8 -10 -11 -12 2
-1 13 -7 -6 -10 -14 -15 0
2 15 -7 -2 -6 -11 -17 -1
7 14 -8 -2 -4 -5 -13 1
5 10 -9 -8 -10 -13 -16 -1
1 8 -11 -14 -12 -18 -20 -3
2 8 -15 -18 -14 -15 -18 -1
3 -1 -16 -17 -17 -17 -18 1
3 -5 -17 -14 -15 -10 -13 3
1 2 -18 -12 -15 -10 -17 0
5 8 -20 -15 -23 -16 -22 -4
11 9 -18 -15 -26 -19 -21 3
6 8 -17 -20 -22 -20 -23 3
1 5 -16 -23 -21 -19 -20 0
-2 -2 -13 -23 -19 -20 -22 1
-2 -5 -14 -15 -17 -19 -23 0
1 -5 -15 -14 -19 -21 -22 -1
1 -2 -17 -15 -24 -25 -27 -2
2 -5 -19 -19 -28 -23 -23 -1
2 -6 -21 -22 -32 -28 -24 -4
2 -7 -17 -22 -30 -30 -26 -6
2 -11 -13 -20 -25 -27 -28 -4
3 -12 -14 -23 -23 -28 -28 -6
7 -14 -14 -21 -26 -32 -37 -11
12 -15 -14 -21 -23 -26 -32 -12
9 -18 -14 -20 -24 -27 -32 -10
3 -20 -15 -20 -27 -31 -33 -8
4 -21 -14 -21 -27 -33 -38 -10
0 -22 -11 -18 -27 -31 -33 -8
-5 -27 -13 -17 -27 -28 -31 -5
-2 -23 -15 -19 -32 -28 -31 -6
-3 -15 -16 -19 -36 -32 -36 -7
-3 -10 -16 -24 -35 -30 -35 -9
-4 -15 -17 -32 -37 -39 -40 -10
-3 -22 -18 -39 -39 -43 -43 -13
-2 -21 -17 -36 -42 -41 -43 -17
0 -17 -19 -29 -45 -45 -45 -17
4 -16 -18 -24 -44 -44 -44 -15
6 -19 -16 -20 -38 -36 -38 -10
9 -27 -19 -20 -34 -35 -37 -4
11 -35 -16 -20 -35 -39 -38 -7
4 -33 -12 -20 -35 -39 -40 -12
2 -26 -12 -25 -38 -42 -42 -16
8 -19 -20 -25 -38 -43 -47 -18
4 -22 -16 -24 -37 -45 -49 -20
7 -21 -15 -22 -34 -41 -45 -15
3 -21 -12 -21 -31 -32 -33 -7
-3 -23 -11 -24 -32 -31 -32 -3
-3 -24 -11 -22 -31 -29 -33 -2
-1 -21 -16 -25 -35 -32 -37 -9
-3 -18 -19 -31 -41 -40 -42 -12
-2 -23 -16 -27 -35 -38 -43 -12
-3 -25 -15 -26 -35 -37 -41 -11
-3 -19 -18 -24 -35 -33 -39 -10
-1 -24 -17 -19 -30 -30 -36 -10
-1 -31 -13 -15 -22 -25 -37 -9
5 -31 -8 -10 -15 -21 -32 -5
4 -25 -4 0 -3 -10 -24 -3
9 -23 2 12 18 12 -16 1
13 -18 19 40 57 42 -3 4
12 -12 36 68 90 63 -2 4
9 5 43 89 114 92 16 11
11 16 52 111 137 121 36 21
18 21 55 118 161 152 59 37
28 41 44 106 171 181 83 55
32 57 31 92 168 204 107 69
36 76 11 66 140 216 136 92
36 97 -13 20 89 218 160 110
38 115 -34 -26 35 218 187 131
43 138 -52 -56 1 233 221 155
47 157 -76 -96 -37 245 249 176
44 163 -108 -141 -78 252 267 186
42 171 -135 -181 -119 244 267 184
31 180 -158 -220 -168 206 241 173
14 175 -173 -246 -218 143 196 149
3 150 -189 -285 -281 31 113 106
-7 117 -202 -323 -351 -110 4 44
-17 94 -210 -345 -401 -226 -87 -6
-20 74 -221 -352 -427 -307 -160 -45
-27 41 -217 -333 -417 -338 -195 -68
-28 17 -202 -305 -395 -340 -205 -79
-29 4 -178 -272 -360 -319 -199 -85
-34 -4 -156 -239 -324 -297 -192 -87
-30 -11 -140 -211 -291 -277 -187 -91
-18 -19 -134 -190 -260 -248 -170 -86
-8 -21 -130 -174 -237 -226 -156 -78
-3 -24 -119 -159 -217 -209 -144 -72
2 -26 -105 -141 -189 -183 -130 -64
-1 -26 -90 -116 -160 -155 -111 -53
0 -22 -76 -97 -140 -139 -102 -49
2 -28 -61 -78 -116 -119 -92 -46
1 -41 -45 -58 -94 -100 -81 -36
7 -45 -41 -49 -83 -86 -75 -34
12 -34 -37 -38 -70 -73 -69 -35
11 -26 -26 -28 -55 -63 -61 -29
9 -26 -16 -22 -41 -50 -51 -21
14 -25 -10 -26 -43 -50 -48 -18
16 -15 -9 -20 -33 -41 -43 -17
10 -12 -8 -10 -20 -35 -41 -16
11 -18 1 -1 -14 -39 -41 -16
10 -21 4 1 -9 -36 -40 -17
6 -28 11 3 -3 -29 -36 -10
9 -25 13 -1 -3 -29 -35 -10
8 -10 9 -5 -8 -27 -35 -13
14 -4 11 2 -6 -23 -37 -15
20 -11 10 6 -8 -18 -25 -6
13 -19 11 6 -7 -17 -23 -7
6 -18 15 1 -2 -19 -27 -9
3 -20 17 -5 0 -23 -31 -12
5 -20 18 0 4 -16 -30 -13
10 -19 20 9 11 -10 -24 -6
10 -20 15 10 6 -16 -30 -10
19 -14 9 8 4 -15 -30 -15
19 -14 8 13 4 -12 -26 -10
17 -10 9 14 4 -17 -27 -9
15 -15 16 19 11 -11 -22 -5
12 -21 20 23 13 -7 -17 -2
13 -24 20 22 12 -12 -23 -9
20 -22 19 18 16 -10 -21 -9
22 -15 16 6 12 -15 -24 -8
14 -7 16 3 13 -17 -23 -8
5 -12 19 10 14 -15 -26 -8
6 -15 15 11 13 -14 -28 -9
11 -14 12 11 11 -10 -24 -9
17 -15 11 16 17 -2 -14 -2
21 -16 14 23 22 -2 -15 -3
18 -17 19 25 22 -9 -23 -11
17 -13 17 22 21 -10 -22 -13
23 -7 17 19 22 -8 -20 -8
25 -7 20 15 22 -12 -22 -7
19 -5 19 15 24 -8 -21 -7
13 -3 18 23 30 1 -16 -6
8 -2 18 24 27 -1 -17 -7
10 -2 19 23 23 -4 -20 -9
9 -1 20 27 27 4 -16 -5
10 -4 22 28 30 9 -11 -4
13 -8 20 29 34 10 -9 -5
20 -7 18 29 37 11 -12 -5
20 -5 21 36 38 8 -9 1
18 -14 25 35 39 -1 -14 -3
18 -27 27 28 44 3 -15 -3
19 -24 27 28 48 11 -12 -3
18 -18 23 37 51 12 -10 -4
17 -8 23 48 55 19 -8 -2
20 -4 22 48 53 18 -3 0
23 -12 25 49 48 13 -7 -2
15 -4 26 50 54 17 -7 -4
9 5 30 54 66 24 -3 -2
13 6 34 57 70 25 0 0
16 2 37 54 71 22 -5 -6
17 3 36 56 76 29 0 -1
17 4 37 60 74 25 -1 -1
12 1 40 68 82 32 4 3
9 -3 44 76 91 39 10 5
19 2 43 77 94 42 8 3
23 10 39 72 93 39 7 0
23 17 35 65 90 37 5 -1
24 20 36 69 91 38 3 -4
24 11 43 81 103 48 11 -1
24 5 47 89 112 52 14 3
18 11 50 93 115 47 8 1
13 15 53 91 121 48 9 4
11 12 56 97 128 58 21 13
13 6 58 98 129 62 25 16
10 3 59 104 129 67 29 15
15 17 55 102 129 67 29 16
20 26 51 100 124 61 21 10
18 19 54 103 131 67 25 12
17 14 59 107 135 67 28 15
18 21 58 109 138 72 29 13
21 34 57 104 141 79 30 11
20 39 56 98 138 73 27 12
20 42 54 99 134 68 25 12
26 46 54 100 137 78 34 16
22 33 58 101 139 77 35 18
22 25 58 101 139 77 35 16
23 24 57 103 137 77 38 18
23 28 57 103 136 75 36 19
20 30 56 99 136 75 37 17
19 30 59 96 134 76 37 23
19 34 51 87 121 66 32 18
22 37 54 89 122 62 31 12
21 38 51 88 124 64 34 17
27 38 46 80 119 64 30 18
27 37 48 73 115 58 28 14
23 39 42 71 110 57 30 12
21 37 42 70 107 56 34 16
21 39 39 66 96 55 35 18
18 47 33 59 84 55 39 18
16 46 32 59 77 55 40 17
8 38 33 59 77 55 38 18
10 35 35 56 79 50 35 19
16 36 32 51 76 52 35 19
13 32 29 45 66 48 34 17
17 34 27 34 55 39 30 16
16 34 21 26 48 32 27 12
14 25 22 26 48 32 29 14
16 15 23 27 44 35 34 20
12 13 22 25 41 28 28 14
14 19 19 20 38 21 23 7
18 23 16 19 36 24 24 10
14 14 14 14 28 17 23 8
13 6 16 13 25 14 26 9
17 11 14 9 21 10 21 5
17 11 14 9 16 8 17 1
12 3 17 7 15 6 19 4
6 1 17 0 9 3 19 4
7 2 16 -11 6 0 17 3
13 6 12 -14 1 -5 14 -1
8 5 10 -7 3 -7 11 -3
14 5 10 -2 0 -7 9 -5
16 -6 9 -2 1 -8 7 -9
13 -12 10 -4 -1 -9 8 -7
13 -7 7 -5 -5 -7 10 -4
9 -4 5 -7 -9 -7 11 -6
7 -7 3 -10 -9 -9 10 -6
9 -12 6 -8 -7 -9 11 -4
10 -5 5 -10 -9 -11 10 -5
6 5 6 -11 -9 -12 12 -5
6 1 5 -15 -12 -17 7 -5
10 -7 8 -16 -12 -20 7 -5
9 -6 10 -16 -4 -10 11 -2
3 -13 9 -12 -6 -9 13 -2
0 -17 11 -4 -7 -13 13 0
12 -11 9 -5 -7 -12 10 -6
12 -12 5 -16 -13 -21 7 -9
13 -11 8 -21 -13 -20 10 -5
16 -2 3 -23 -17 -22 6 -8
18 -3 4 -20 -18 -26 3 -12
18 -17 5 -10 -9 -16 10 -7
10 -30 11 -5 -5 -14 14 -1
8 -22 14 -10 -10 -13 17 -1
4 -19 13 -13 -11 -14 17 -5
3 -22 12 -15 -14 -19 8 -11
8 -19 15 -9 -7 -11 17 -2
10 -20 12 -11 -9 -13 18 -1
7 -20 9 -19 -16 -17 11 -6
11 -17 9 -18 -13 -13 14 -5
12 -15 9 -16 -9 -12 17 -5
12 -7 8 -12 -12 -22 10 -9
11 -8 8 -8 -8 -18 13 -7
7 -16 11 -6 -5 -18 12 -6
9 -19 12 -13 -10 -17 14 -7
10 -16 13 -12 -7 -6 22 -3
7 -16 14 -12 -15 -17 14 -7
4 -13 12 -14 -22 -17 15 -6
4 -17 12 -12 -19 -21 13 -6
8 -22 13 -14 -13 -18 15 -8
7 -19 13 -13 -9 -15 16 -5
8 -9 9 -21 -12 -19 14 -8
9 -12 10 -18 -11 -19 12 -9
8 -14 9 -16 -9 -21 11 -11
13 -12 6 -14 -12 -24 6 -15
14 -15 10 -12 -11 -22 7 -14
16 -16 12 -14 -13 -19 10 -11
15 -14 12 -21 -14 -22 8 -9
8 -20 13 -28 -16 -24 6 -11
6 -18 14 -21 -12 -18 8 -7
1 -19 18 -9 -9 -21 6 -2
8 -22 12 -10 -11 -23 1 -7
15 -16 7 -11 -13 -21 -2 -10
11 -12 8 -10 -12 -22 -4 -11
10 -13 12 -9 -11 -25 -8 -11
2 -20 18 -4 -2 -13 2 -5
0 -27 20 -5 -4 -15 2 -2
7 -27 17 -6 -10 -22 -4 -6
13 -19 13 -5 -5 -17 1 -4
12 -16 14 -10 -3 -15 -3 -10
13 -15 13 -13 -8 -27 -15 -18
12 -10 14 -9 -7 -25 -10 -14
6 -19 13 -7 -8 -25 -8 -12
-1 -28 17 -10 -5 -21 -6 -8
3 -23 19 -13 -7 -18 -6 -6
4 -14 17 -14 -7 -16 -5 -9
5 -11 15 -15 -5 -17 -12 -13
9 -9 10 -15 -3 -20 -12 -17
9 -12 13 -8 -2 -22 -12 -15
11 -22 18 -5 -1 -21 -13 -8
6 -25 18 -8 -3 -24 -12 -6
5 -19 15 -14 -8 -25 -14 -10
6 -18 13 -14 -16 -23 -15 -13
10 -8 8 -11 -9 -19 -14 -15
5 -2 12 -9 -5 -19 -17 -13
5 -10 14 -7 -2 -17 -14 -10
7 -17 15 -8 -2 -14 -11 -9
8 -19 17 -5 -3 -16 -10 -8
3 -19 17 -2 3 -10 -7 -5
4 -21 16 0 3 -11 -7 -4
8 -19 15 -2 3 -14 -10 -5
9 -17 13 -5 2 -17 -15 -9
10 -16 17 -7 -2 -19 -14 -12
13 -15 12 -11 -3 -19 -13 -11
11 -11 12 -10 0 -14 -12 -7
5 -11 14 -8 -1 -13 -8 -7
5 -10 13 -9 -1 -13 -10 -9
11 -15 12 -11 2 -11 -7 -9
15 -22 12 -16 1 -11 -9 -8
10 -23 17 -11 5 -9 -8 -7
14 -13 14 0 5 -14 -9 -8
13 -7 9 -3 4 -13 -11 -10
13 2 9 -7 3 -12 -14 -13
16 2 8 -8 2 -14 -15 -14
18 -1 10 -9 1 -15 -15 -12
15 -2 11 -13 -1 -14 -15 -11
11 -10 13 -11 -1 -13 -12 -6
9 -20 14 -5 2 -11 -8 -7
3 -18 16 0 2 -11 -9 -9
8 -15 14 -2 2 -13 -8 -7
9 -8 13 -8 3 -11 -8 -4
10 -4 13 -8 1 -11 -7 -1
16 -5 8 -8 0 -13 -7 -3
17 -11 10 -14 0 -17 -12 -7
16 -11 15 -17 3 -14 -12 -8
7 -14 15 -14 1 -9 -6 -6
15 -12 10 -12 -3 -12 -8 -4
20 -9 5 -11 -4 -15 -8 -4
18 -9 6 -11 -3 -13 -10 -5
13 -9 10 -10 -3 -13 -11 -2
5 -14 15 -8 0 -11 -6 -3
4 -10 15 -5 3 -11 -7 -4
6 -11 16 1 4 -12 -8 -5
6 -16 15 -2 3 -12 -6 -3
7 -11 20 -8 2 -9 -3 -1
11 -6 12 -13 -2 -8 -3 -2
6 -10 15 -9 -1 -8 -4 -1
4 -8 14 -6 1 -8 -6 -4
0 -7 13 -5 -1 -10 -6 -4
-4 -2 11 -9 -4 -16 -7 -4
-5 -9 14 -10 -1 -15 -8 -3
-4 -17 16 -6 1 -10 -6 -3
3 -17 15 -7 -1 -15 -9 -4
8 -17 16 -8 0 -16 -9 -4
6 -12 17 -11 3 -13 -6 -3
3 -7 15 -19 -3 -16 -8 -7
5 -12 16 -22 -6 -21 -14 -9
15 -12 13 -21 -7 -17 -9 -4
14 -14 12 -12 -7 -19 -11 -7
9 -13 11 -7 -4 -11 -7 -4
6 -13 14 -7 -3 -11 -6 -3
1 -13 13 -9 -5 -14 -9 -6
4 -11 13 -9 -7 -14 -10 -7
3 -10 11 -12 -15 -18 -13 -9
7 -4 9 -13 -11 -18 -13 -9
3 1 11 -10 -8 -17 -11 -9
0 0 12 -8 -6 -14 -9 -7
4 -8 17 -3 1 -7 -4 -5
5 -15 23 1 2 -8 -7 -3
2 -14 24 2 0 -6 -3 2
4 -6 22 3 5 -3 0 4
2 2 20 -2 2 -7 -3 0
4 6 21 -4 0 -5 -3 -1
5 3 24 -5 4 -3 -1 1
5 0 20 -13 4 -7 -3 2
12 -1 14 -14 0 -6 -1 1
9 0 13 -8 -1 -4 2 3
8 1 13 -2 2 -6 -4 -2
3 2 18 2 4 -4 -2 -1
-4 7 19 0 1 -6 -1 0
5 9 18 -1 -4 -11 -2 0
11 5 18 0 -3 -12 -4 -4
5 0 19 -3 -1 -9 -1 0
9 1 16 -5 0 -6 1 1
15 7 14 -5 0 -4 2 2
5 6 15 -4 0 -5 2 3
-1 7 15 1 2 -2 1 5
4 10 14 -3 1 -4 4 5
10 17 12 -9 -6 -10 -3 0
10 16 11 -13 -12 -13 -5 -3
9 11 8 -15 -8 -6 4 3
12 11 10 -10 -6 -6 5 7
11 10 11 -7 -8 -8 1 5
5 9 7 -8 -7 -11 0 2
6 10 7 -12 -8 -12 -2 -2
1 8 6 -13 -6 -6 2 2
4 6 7 -12 -14 -10 1 5
1 7 8 -10 -14 -18 -3 0
1 1 5 -18 -16 -16 -5 -3
-4 -7 9 -15 -15 -10 2 5
-2 -10 11 -8 -13 -11 1 7
-1 -9 10 -9 -15 -14 -1 3
4 -5 9 -9 -14 -14 -1 2
3 -3 9 -12 -15 -18 -7 -2
1 -8 13 -12 -17 -21 -8 -3
4 -12 13 -10 -14 -17 -6 -5
5 -17 13 -8 -12 -14 -6 -5
10 -13 10 -10 -13 -16 -10 -8
5 -10 9 -12 -16 -22 -12 -10
-5 -18 11 -13 -16 -21 -8 -6
-7 -22 12 -16 -18 -22 -8 -4
-6 -20 14 -13 -16 -22 -9 -6
1 -14 13 -12 -18 -22 -12 -6
1 -16 14 -11 -23 -22 -12 -8
-4 -19 15 -11 -22 -24 -12 -10
-2 -20 13 -14 -19 -26 -16 -12
-9 -24 15 -12 -18 -25 -12 -10
-1 -20 6 -18 -22 -26 -11 -8
-1 -18 5 -22 -28 -26 -12 -7
-5 -21 9 -19 -26 -24 -10 -5
-5 -22 8 -12 -24 -22 -6 -5
-13 -21 7 -8 -21 -21 -7 -6
-12 -17 7 -8 -20 -23 -12 -8
-4 -19 8 -9 -19 -24 -13 -11
-4 -18 7 -14 -25 -28 -14 -12
-9 -20 8 -12 -23 -20 -8 -7
-12 -20 13 -5 -21 -17 -3 -4
-7 -18 13 -9 -26 -28 -11 -12
-3 -18 11 -13 -25 -27 -14 -8
-6 -26 14 -22 -22 -25 -13 -8
-11 -31 13 -21 -20 -21 -7 -4
-6 -26 8 -14 -21 -22 -8 -6
-7 -28 9 -6 -18 -21 -9 -3
-9 -26 9 -10 -15 -16 -6 0
-9 -21 10 -5 -17 -18 -5 -2
-6 -17 2 -5 -20 -21 -12 -9
-7 -22 5 -8 -22 -22 -13 -9
-6 -23 9 -4 -17 -18 -8 -3
-4 -19 6 -5 -17 -15 -6 -5
-4 -27 10 1 -8 -8 -1 -2
-7 -23 17 13 10 11 10 5
-6 -14 20 27 27 28 15 4
0 -8 36 54 58 47 18 4
3 -3 49 82 103 82 32 8
6 1 64 105 135 111 47 19
16 8 71 119 154 137 66 31
10 16 70 118 163 162 89 42
14 34 65 118 178 193 113 61
19 54 52 106 178 222 140 81
22 75 29 77 148 227 159 93
28 87 6 34 96 226 185 110
31 106 -18 -16 41 225 211 134
36 127 -38 -52 3 238 240 152
38 146 -64 -87 -34 255 268 170
36 162 -97 -128 -75 260 285 182
31 182 -127 -171 -114 260 295 191
24 199 -152 -218 -164 227 277 181
11 197 -168 -249 -213 161 230 158
-4 172 -183 -282 -274 60 158 119
-12 129 -185 -304 -329 -70 58 65
-22 94 -186 -321 -382 -200 -45 12
-24 73 -193 -324 -407 -286 -119 -30
-28 41 -190 -310 -403 -325 -161 -56
-31 17 -177 -298 -384 -330 -177 -73
-36 2 -159 -272 -355 -314 -173 -78
-40 -12 -142 -238 -320 -281 -161 -76
-37 -19 -130 -207 -289 -251 -150 -76
-29 -19 -123 -181 -260 -230 -140 -78
-16 -13 -115 -160 -231 -208 -129 -74
-9 -11 -105 -140 -208 -189 -120 -67
-8 -16 -87 -115 -174 -158 -97 -58
-15 -17 -65 -94 -145 -140 -84 -49
-25 -23 -47 -69 -120 -121 -74 -39
-26 -30 -35 -42 -95 -101 -61 -34
-21 -35 -24 -32 -77 -82 -50 -29
-19 -37 -19 -31 -61 -65 -40 -23
-14 -37 -10 -26 -50 -58 -35 -21
-10 -30 -5 -19 -39 -45 -31 -19
-9 -19 -2 -8 -27 -36 -22 -13
-10 -20 5 4 -16 -30 -17 -8
-10 -23 12 10 -8 -22 -14 -8
-13 -15 17 10 -4 -20 -11 -7
-7 -12 15 9 -3 -19 -11 -7
-5 -13 18 10 0 -16 -11 -11
-6 -16 19 15 6 -8 -7 -6
-7 -16 21 16 8 -7 -6 -5
-11 -9 19 16 7 -4 -3 -3
-12 1 19 13 6 -6 -9 -7
-13 -1 20 13 7 -7 -7 -10
-1 -11 20 17 12 -5 -2 -6
-5 -16 25 20 16 -4 0 1
-13 -16 28 20 18 -2 4 4
-11 -12 29 22 17 -2 4 2
-9 -11 26 24 20 0 2 -1
-11 -15 26 23 20 -2 1 0
-5 -12 23 21 22 3 4 2
-5 -10 24 19 17 1 4 -1
-7 -12 23 20 15 1 4 1
-5 -15 22 24 17 3 2 1
-7 -14 22 25 17 5 3 -1
-5 -7 21 25 18 4 4 1
-14 -9 27 29 24 1 3 2
-13 -14 31 31 27 4 3 0
-9 -19 34 35 31 8 5 2
-13 -17 32 37 37 12 12 5
-12 -13 31 36 34 10 10 4
-6 -16 31 36 32 9 7 4
-9 -11 27 27 32 14 11 5
-13 -2 26 19 31 11 11 6
-12 -2 23 26 28 7 6 2
-9 -2 19 30 28 1 -1 -4
-6 -4 22 36 35 7 5 2
-6 -12 21 41 40 12 8 2
-6 -16 22 44 46 15 9 3
-2 -16 19 47 46 13 7 2
-5 -18 22 48 51 16 9 3
-7 -14 22 49 51 18 11 3
-7 -8 20 48 48 18 12 4
-8 -4 21 49 48 15 12 5
-6 -1 21 51 52 19 14 5
-10 -3 20 48 48 17 13 6
-6 -3 20 48 44 11 7 2
-7 -6 23 51 47 21 12 3
-9 -6 22 45 48 24 13 5
-4 -5 23 44 55 27 14 6
-5 -2 25 50 61 29 13 5
-7 6 23 57 65 33 16 8
-4 8 26 61 68 35 18 7
-2 2 25 67 70 33 17 5
-3 0 28 70 75 36 21 9
-2 1 33 75 79 35 20 10
-2 0 33 73 81 34 16 6
-2 0 37 75 85 34 16 6
-3 0 38 78 87 38 17 7
0 3 35 81 91 42 20 8
2 4 36 83 97 47 24 9
-2 4 40 87 100 53 27 13
-6 4 42 90 104 56 30 15
-8 2 45 95 106 53 24 11
-8 2 47 99 114 60 27 13
-6 4 51 102 120 62 31 14
-8 8 51 104 124 57 28 13
-6 11 49 103 126 59 27 11
6 16 47 101 125 58 26 8
7 17 47 105 127 61 29 11
-2 17 51 112 131 69 32 14
-4 21 50 112 131 72 33 13
1 24 51 114 134 71 33 13
5 24 49 117 139 72 35 15
3 22 53 118 143 77 39 18
2 29 57 115 144 77 39 17
5 33 58 113 146 76 37 19
3 26 57 117 149 79 39 17
-1 29 58 122 152 86 43 21
-4 30 61 129 154 86 46 27
-8 39 56 122 152 85 43 23
-4 43 51 118 148 84 42 19
-2 38 50 118 146 83 42 20
1 37 48 115 141 80 40 20
7 42 44 115 139 78 39 18
4 43 45 121 145 82 44 22
4 42 47 117 141 82 43 23
7 38 46 113 141 82 42 22
9 41 44 111 138 80 40 18
5 41 45 111 136 80 43 21
1 39 45 109 133 82 44 22
3 36 40 102 130 81 44 25
6 39 37 93 124 75 41 28
3 44 33 90 116 71 42 26
0 45 28 86 110 66 42 24
-2 44 23 83 105 65 43 25
-1 43 22 81 102 64 43 28
1 45 22 75 95 62 44 26
-3 45 23 71 95 65 46 27
-2 44 19 63 86 61 44 28
4 43 12 53 77 56 41 27
2 42 10 47 67 53 40 24
-1 39 7 47 61 48 38 23
-4 35 3 46 58 43 37 21
-7 32 0 42 56 38 32 20
-9 28 2 40 50 34 31 20
-8 23 -3 32 45 30 32 18
-8 19 -7 25 38 24 27 14
-7 22 -6 24 36 28 27 14
-8 22 -6 29 29 30 32 16
-5 24 -8 28 23 22 28 14
-9 21 -10 24 24 17 25 13
-6 11 -13 19 21 18 27 14
1 8 -15 12 15 11 20 9
0 12 -18 5 10 7 16 6
-3 16 -19 2 7 6 18 7
-12 8 -15 4 8 7 16 8
-13 -4 -13 14 12 8 19 10
-8 -3 -12 12 8 8 18 9
-4 3 -16 3 -1 3 14 6
-3 -1 -16 -3 -5 1 16 8
1 -3 -15 -4 -5 0 14 6
0 2 -21 -3 -10 -6 7 0
3 3 -23 0 -6 -4 12 3
4 -2 -22 1 -7 -9 8 0
-1 -4 -18 1 -9 -12 3 -2
-6 -5 -14 2 -5 -8 9 1
-9 -6 -14 2 -4 -6 12 5
-10 -8 -13 -1 -8 -6 10 2
-10 -9 -13 -2 -10 -7 8 1
-9 -8 -17 -3 -11 -6 10 2
-9 -11 -17 -1 -9 -5 9 3
-9 -9 -16 0 -9 -5 10 3
-3 -1 -19 -6 -11 -6 8 0
-7 1 -15 -2 -8 -3 12 1
-12 0 -12 -2 -10 -11 6 -1
-8 -9 -12 -4 -12 -17 2 -2
-6 -16 -12 -6 -9 -13 6 -1
-7 -16 -11 -6 -11 -13 9 1
-9 -11 -13 -4 -12 -11 9 0
-9 -6 -13 -1 -13 -10 9 1
-7 -10 -18 -5 -17 -14 6 -1
-9 -9 -15 -3 -16 -12 6 0
-12 -10 -14 -7 -15 -11 8 1
-12 -9 -13 -9 -16 -15 7 0
-8 -7 -14 -10 -17 -17 5 -1
-8 -9 -15 -11 -14 -17 5 -2
-8 -10 -17 -7 -15 -16 5 -3
-4 -8 -19 -4 -16 -16 2 -5
-1 -4 -21 -5 -16 -16 3 -3
-3 -9 -17 -8 -14 -14 7 0
-7 -10 -16 -10 -13 -10 9 0
-8 -11 -20 -9 -12 -8 8 1
-4 -9 -23 -6 -15 -14 6 1
-1 -6 -23 -3 -17 -18 4 -3
-2 -8 -20 2 -12 -15 6 1
-7 -9 -17 5 -12 -16 6 1
-12 -9 -17 -3 -14 -18 5 -2
-11 -11 -12 -9 -13 -15 9 1
-3 -12 -17 -14 -17 -16 4 -1
0 -13 -19 -7 -16 -14 5 -1
-2 -16 -19 1 -14 -16 3 -2
-6 -20 -19 5 -12 -15 2 -1
-5 -15 -19 1 -15 -14 4 -3
-11 -5 -17 -13 -19 -17 2 -4
-8 2 -20 -22 -20 -15 1 -5
-2 -5 -22 -19 -20 -20 -1 -8
-1 -11 -23 -5 -19 -26 -6 -11
-1 -9 -22 0 -17 -25 -6 -9
-3 -7 -19 -2 -12 -16 1 -4
-8 -5 -17 -3 -12 -18 3 -3
-8 -12 -16 0 -11 -15 4 0
-9 -19 -16 0 -13 -14 4 0
-11 -17 -16 0 -16 -14 5 0
-4 -13 -17 -1 -18 -16 4 -4
-3 -9 -17 -2 -19 -21 -2 -7
-2 -4 -18 -1 -18 -21 -4 -7
-4 -5 -17 0 -16 -20 -1 -7
-3 -13 -14 1 -13 -18 -1 -7
-1 -18 -13 -1 -13 -19 -1 -5
-4 -11 -13 -4 -17 -23 -4 -7
-6 -8 -12 -8 -16 -23 -5 -8
-7 -14 -11 -3 -11 -17 0 -6
-12 -21 -9 2 -9 -13 4 -4
-14 -16 -9 4 -11 -17 -1 -12
-10 -15 -11 3 -11 -15 0 -5
-7 -16 -12 2 -10 -15 0 -2
-3 -15 -12 1 -9 -15 1 -4
-4 -13 -11 2 -7 -13 1 -4
-4 -11 -10 4 -6 -12 1 -4
-5 -11 -10 3 -8 -17 -1 -5
-5 -14 -10 3 -9 -17 -1 -4
-9 -11 -8 4 -6 -13 3 -2
-10 -11 -7 5 -4 -10 5 0
-12 -12 -6 7 -5 -13 3 -3
-9 -6 -9 7 -6 -13 0 -7
-3 -2 -13 0 -9 -17 -6 -8
0 -7 -15 -6 -10 -17 -2 -5
0 -7 -12 -4 -10 -15 1 -6
0 -9 -15 0 -10 -13 0 -4
-4 -7 -13 3 -10 -14 2 -3
-6 -10 -10 2 -7 -11 3 0
-3 -13 -11 -1 -6 -10 3 1
0 -11 -14 3 -6 -10 5 0
4 -6 -17 7 -6 -12 3 -1
4 -6 -20 11 -6 -13 2 -5
-3 -10 -14 9 -2 -13 3 -2
-9 -11 -13 0 -1 -12 5 1
-4 -6 -17 -7 -4 -12 2 -2
0 -6 -21 -7 -6 -12 -1 -4
1 -6 -23 -2 -8 -15 -5 -5
2 -8 -26 0 -10 -15 -5 -8
4 -9 -27 0 -11 -13 -4 -4
8 -4 -26 1 -11 -10 -1 0
4 1 -25 0 -9 -9 0 0
-6 -5 -22 3 -9 -9 -2 -2
-7 -9 -18 7 -3 -8 -3 -1
-2 -12 -18 6 -3 -6 2 0
-7 -9 -20 7 -4 -10 -3 -3
-11 -7 -19 7 -2 -7 0 0
-9 -7 -22 1 -5 -10 -2 0
-8 -4 -21 -4 -6 -12 -4 -1
-7 -4 -19 -10 -7 -11 -3 -1
-8 -6 -21 -8 -12 -11 -2 -1
-5 -3 -22 -4 -14 -12 -2 -2
-3 -7 -21 -2 -12 -12 -1 -2
-6 -5 -19 -4 -9 -11 -3 0
-2 -6 -18 -5 -7 -11 -3 0
-3 -11 -16 -2 -6 -10 -1 -2
-7 -13 -16 1 -8 -8 -1 0
-7 -6 -18 -3 -16 -10 -4 -4
-5 -7 -20 -8 -17 -13 -6 -5
1 -13 -19 -6 -15 -9 -3 1
5 -14 -20 -4 -15 -11 -2 0
5 -2 -22 -6 -15 -12 -4 -3
6 4 -21 -4 -16 -11 -4 -4
-1 2 -20 -3 -14 -16 -8 -5
-5 -9 -16 -1 -14 -18 -11 -5
-6 -12 -13 1 -11 -14 -6 -1
-1 -18 -13 -2 -10 -12 -1 1
3 -17 -16 -7 -10 -12 -4 -2
-1 -6 -18 -11 -15 -16 -7 -5
-5 -1 -18 -7 -16 -13 -6 -3
-2 -5 -18 -6 -14 -12 -4 -3
-4 -9 -18 -6 -15 -13 -4 -3
-3 -9 -20 -5 -14 -15 -4 -2
1 -11 -21 -5 -13 -16 -10 -6
-1 -18 -20 0 -12 -17 -8 -6
-2 -13 -17 -1 -13 -15 -7 -3
-2 -12 -18 -13 -16 -16 -7 -2
-3 -7 -20 -24 -20 -17 -8 -5
1 -9 -20 -20 -23 -18 -10 -7
0 -12 -22 -7 -20 -17 -11 -7
5 -10 -26 -10 -22 -21 -12 -9
4 -11 -25 -11 -21 -21 -14 -10
1 -13 -23 -6 -17 -17 -11 -8
2 -10 -23 -3 -14 -16 -11 -5
0 -9 -20 -1 -11 -15 -6 -3
1 -11 -21 -8 -16 -18 -9 -5
0 -11 -21 -11 -18 -15 -8 -5
-4 -12 -21 -8 -19 -15 -10 -7
-2 -8 -20 -9 -20 -17 -11 -10
-1 -7 -22 -13 -18 -14 -11 -8
-4 -13 -21 -13 -19 -13 -8 -5
0 -17 -21 -6 -19 -15 -10 -4
-3 -17 -21 0 -17 -15 -9 -5
-3 -17 -19 -1 -13 -14 -8 -4
7 -14 -18 -6 -15 -15 -10 -5
12 -5 -21 -12 -19 -19 -14 -10
14 2 -21 -12 -18 -16 -11 -11
9 1 -16 -11 -15 -13 -12 -8
2 -2 -11 -4 -9 -5 -5 -3
-2 1 -8 1 -6 -5 -4 0
-2 2 -8 -2 -8 -9 -7 -3
-3 -1 -9 -6 -12 -11 -7 -4
-1 -1 -10 -7 -13 -10 -10 -7
-5 0 -9 -8 -13 -11 -11 -6
-4 5 -11 -4 -9 -9 -5 1
-2 7 -9 0 -8 -7 -4 2
1 8 -13 1 -7 -5 -5 -2
7 7 -13 -1 -8 -6 -6 -3
4 1 -10 -1 -8 -4 -6 0
1 5 -6 0 -6 0 -3 3
7 8 -8 -3 -9 -4 -5 0
10 9 -10 -6 -11 -8 -8 -2
13 10 -9 -4 -7 -6 -7 -1
11 12 -10 -9 -10 -8 -10 -3
-2 15 -7 -6 -10 -4 -5 0
4 14 -7 -9 -10 -4 -5 1
7 7 -9 -11 -11 -6 -9 0
2 12 -13 -11 -14 -8 -8 1
5 22 -17 -14 -16 -7 -6 0
5 17 -21 -17 -18 -8 -8 1
7 13 -20 -15 -16 -8 -6 0
7 9 -21 -17 -18 -10 -7 -1
0 7 -19 -18 -18 -10 -9 -2
-2 5 -15 -14 -13 -6 -5 2
2 0 -14 -16 -13 -6 -6 1
5 0 -18 -15 -18 -9 -9 -1
2 2 -19 -12 -19 -9 -9 -1
6 -3 -22 -18 -22 -13 -13 -4
11 -2 -23 -25 -23 -16 -14 -6
9 -3 -21 -23 -24 -14 -13 -5
9 2 -22 -21 -27 -17 -15 -9
4 0 -17 -23 -25 -18 -16 -9
1 -4 -15 -24 -23 -16 -15 -6
4 -7 -18 -19 -22 -16 -16 -5
4 -10 -17 -15 -22 -16 -18 -7
3 -11 -15 -12 -19 -15 -19 -8
-3 -12 -13 -12 -20 -11 -16 -9
-3 -16 -15 -13 -23 -12 -17 -8
-4 -17 -16 -17 -24 -12 -18 -10
-4 -15 -16 -19 -26 -16 -21 -14
2 -20 -17 -18 -25 -18 -21 -15
4 -14 -20 -19 -28 -24 -23 -16
4 -14 -19 -19 -26 -23 -23 -15
2 -20 -18 -20 -24 -25 -25 -14
3 -21 -15 -20 -24 -25 -23 -14
3 -20 -19 -20 -24 -21 -24 -17
4 -20 -21 -22 -27 -25 -27 -15
4 -22 -19 -23 -32 -24 -28 -15
4 -30 -18 -23 -32 -23 -26 -17
8 -29 -22 -23 -29 -23 -27 -16
6 -23 -20 -27 -33 -24 -25 -14
4 -21 -22 -36 -37 -26 -27 -14
3 -20 -26 -39 -39 -26 -27 -18
3 -17 -26 -29 -34 -26 -26 -16
2 -17 -23 -23 -30 -24 -23 -12
0 -18 -21 -20 -27 -21 -24 -14
-3 -22 -19 -20 -28 -20 -24 -16
4 -26 -18 -20 -27 -18 -24 -15
9 -25 -17 -19 -29 -17 -22 -15
7 -24 -17 -21 -29 -18 -23 -15
7 -22 -18 -26 -30 -20 -22 -15
4 -22 -19 -30 -32 -22 -27 -17
5 -24 -20 -27 -31 -24 -28 -16
11 -22 -22 -24 -30 -24 -26 -14
9 -21 -22 -21 -28 -25 -24 -12
3 -23 -15 -16 -24 -19 -21 -10
1 -25 -14 -18 -24 -19 -21 -13
7 -25 -17 -17 -21 -15 -21 -14
17 -17 -17 -10 -14 -9 -20 -16
10 -16 -6 6 5 8 -11 -11
7 -19 9 32 36 34 2 -3
8 -14 27 62 81 67 12 0
10 -10 43 84 114 90 20 4
14 -1 54 92 138 114 36 13
18 15 56 101 153 138 50 20
20 29 49 112 167 167 71 33
21 46 43 110 178 196 97 50
27 60 32 88 169 222 127 70
31 81 5 47 130 232 152 90
37 97 -21 3 75 232 180 114
41 116 -50 -41 26 237 207 136
45 136 -79 -81 -12 252 237 155
45 154 -111 -127 -53 261 260 173
46 171 -145 -167 -92 265 275 183
38 190 -175 -211 -135 255 275 184
29 204 -200 -256 -186 212 245 169
15 189 -219 -295 -243 134 193 139
4 159 -228 -330 -307 20 108 92
-6 119 -227 -347 -365 -107 7 39
-10 82 -230 -352 -403 -214 -76 -7
-15 48 -230 -348 -418 -288 -142 -43
-19 24 -225 -332 -410 -320 -180 -70
-17 13 -207 -304 -385 -320 -188 -84
-18 5 -186 -270 -348 -302 -187 -87
-16 -4 -168 -239 -311 -273 -175 -84
-16 -12 -149 -206 -271 -241 -161 -86
-20 -17 -136 -184 -243 -217 -148 -79
-14 -18 -128 -166 -220 -194 -132 -70
-13 -23 -111 -143 -193 -171 -118 -61
-12 -26 -90 -115 -162 -145 -101 -54
-10 -26 -75 -94 -136 -128 -92 -47
-8 -32 -61 -76 -114 -111 -85 -45
-6 -35 -47 -59 -92 -94 -76 -42
-3 -36 -38 -50 -75 -81 -66 -38
2 -34 -30 -43 -60 -67 -60 -33
7 -24 -23 -37 -48 -55 -53 -29
6 -21 -15 -28 -35 -44 -43 -22
5 -16 -12 -22 -29 -36 -38 -19
6 -13 -6 -13 -25 -27 -33 -18
0 -14 -1 -5 -21 -19 -27 -13
-3 -17 4 -6 -13 -17 -26 -12
6 -13 7 -14 -8 -18 -28 -14
7 -11 6 -14 -8 -18 -31 -17
6 -15 8 0 -1 -14 -27 -14
6 -16 10 13 5 -8 -22 -9
6 -20 12 15 6 -5 -21 -9
0 -23 17 15 9 -3 -18 -10
1 -22 17 10 7 -3 -21 -11
1 -18 18 3 7 -2 -19 -9
0 -17 18 -4 8 -1 -17 -10
0 -11 16 -3 9 -3 -20 -10
7 -9 14 13 12 -2 -20 -9
5 -13 16 25 19 3 -16 -7
5 -14 17 20 19 3 -18 -8
8 -11 17 15 16 -1 -23 -12
15 -11 14 11 12 -3 -25 -13
16 -9 14 13 11 -4 -24 -13
15 -9 16 13 13 -3 -22 -13
15 -7 16 11 13 -2 -22 -12
18 -7 15 8 15 -2 -22 -13
18 -11 19 5 16 -6 -23 -13
15 -14 19 10 20 0 -21 -11
5 -11 21 19 24 4 -17 -10
-3 -10 23 22 28 8 -15 -7
-7 -7 25 21 26 10 -15 -5
-7 -12 25 22 23 10 -15 -6
-5 -19 26 26 28 10 -15 -5
-4 -16 27 26 28 11 -13 -2
-1 -10 26 23 25 9 -14 -4
5 -9 24 20 25 8 -14 -5
10 -9 25 20 30 6 -19 -7
11 -11 23 20 31 8 -20 -8
8 -13 25 26 34 10 -16 -7
1 -15 28 32 38 13 -13 -3
-2 -13 26 30 37 13 -17 -5
2 -8 24 29 38 14 -18 -9
3 -11 25 29 39 14 -12 -9
8 -10 25 31 41 14 -10 -2
7 -8 29 39 44 19 -9 2
3 -11 30 41 46 21 -9 -3
1 -7 33 40 50 22 -8 -2
2 -7 36 37 52 22 -11 -2
4 -10 35 38 53 20 -13 -3
10 -8 30 38 53 21 -13 -5
8 -8 30 40 58 24 -11 -4
11 -6 26 41 56 23 -15 -9
12 0 28 48 58 25 -13 -8
6 -4 31 53 62 27 -12 -4
3 -7 38 58 66 30 -8 -1
4 -5 41 61 71 30 -8 -2
6 -3 42 63 75 30 -9 -3
7 -4 46 71 79 32 -9 -3
6 -2 48 71 83 36 -8 -3
8 -1 49 65 87 40 -4 0
12 -5 50 65 90 39 -7 -2
10 -1 47 73 89 40 -10 -5
15 6 44 80 93 40 -8 -4
15 9 45 79 97 42 -7 -4
15 3 49 83 103 48 -4 0
11 1 55 89 113 53 0 4
4 5 57 98 119 55 3 6
4 11 60 106 123 54 1 5
4 14 64 107 127 56 0 2
4 14 66 107 129 57 0 3
9 15 67 107 127 58 2 2
15 13 66 107 126 61 2 1
19 13 65 107 128 63 3 2
21 11 67 105 130 65 6 8
14 13 72 106 131 69 11 11
7 20 72 103 135 71 12 12
4 29 72 106 138 73 14 14
5 31 72 114 142 74 13 12
6 29 75 121 145 76 12 13
12 31 74 117 144 74 9 11
11 30 72 114 143 73 10 10
10 28 71 113 143 74 9 10
8 30 70 114 141 73 11 10
9 38 66 112 138 74 13 12
11 37 68 112 138 73 11 12
16 36 64 111 134 72 9 9
19 42 61 106 129 67 9 9
17 46 62 104 129 65 4 8
18 43 65 101 129 68 8 10
15 42 66 94 126 68 10 12
9 42 65 88 119 66 11 13
6 49 62 90 113 67 9 14
5 45 63 95 118 68 11 16
6 37 62 90 117 70 15 18
7 34 61 87 110 69 15 21
8 33 55 82 105 68 15 21
8 37 50 73 96 60 14 19
3 38 48 65 89 55 10 17
4 39 44 59 82 52 10 15
11 37 39 53 77 50 8 14
13 35 35 45 70 47 4 10
17 36 31 41 64 45 3 10
14 36 31 39 62 45 5 14
9 33 29 34 55 41 5 14
1 31 31 35 52 40 3 14
0 28 28 31 47 36 2 13
2 25 22 24 38 29 -2 10
7 26 18 15 31 24 -7 7
7 24 14 3 25 18 -10 2
5 20 11 0 22 17 -8 4
7 24 11 8 22 19 -7 5
8 19 9 14 18 14 -12 1
2 10 10 10 18 16 -8 3
-2 8 11 6 14 13 -6 4
-2 9 8 2 8 9 -12 2
6 9 7 5 6 6 -14 2
3 4 7 3 4 5 -12 4
0 3 7 -1 2 4 -12 5
0 2 9 -3 1 3 -16 0
0 -1 7 -4 0 1 -20 -3
2 3 3 -5 -2 -1 -21 -4
0 3 2 -5 -4 -1 -19 -3
0 2 1 -5 -5 -2 -19 -1
6 -1 0 -7 -7 -7 -21 -5
8 -5 3 -10 -11 -8 -23 -5
7 -5 1 -16 -14 -11 -25 -6
2 -6 1 -11 -12 -12 -24 -5
-2 -8 5 -1 -7 -9 -21 -1
2 -9 4 -6 -8 -12 -21 -5
6 -6 2 -13 -12 -16 -25 -8
1 -5 0 -13 -11 -15 -26 -8
1 -5 -1 -20 -13 -16 -27 -12
5 -9 0 -27 -16 -16 -25 -8
3 -10 -1 -22 -18 -15 -25 -6
4 -10 1 -13 -21 -13 -25 -6
4 -9 2 -7 -19 -12 -24 -7
3 -6 1 -11 -18 -13 -26 -6
-2 -11 6 -9 -14 -13 -22 -2
-3 -10 6 -9 -15 -14 -25 -4
-4 -7 5 -11 -15 -13 -27 -8
-3 -13 5 -8 -12 -13 -26 -8
-1 -16 3 -9 -16 -13 -25 -5
6 -6 -1 -17 -21 -17 -28 -9
7 -8 -1 -22 -25 -20 -32 -11
-1 -10 -2 -21 -20 -17 -31 -9
-1 -9 -1 -19 -19 -13 -28 -6
3 -8 -2 -21 -23 -17 -32 -11
1 -8 2 -17 -22 -17 -31 -8
-2 -6 1 -18 -22 -17 -32 -9
-5 -9 2 -17 -18 -12 -26 -5
0 -9 1 -17 -21 -15 -29 -6
-3 -11 -3 -18 -22 -16 -30 -7
-3 -10 -2 -18 -20 -14 -30 -7
-5 -10 -1 -18 -19 -12 -27 -4
-9 -15 1 -16 -16 -11 -25 0
-9 -15 -1 -15 -16 -12 -27 -1
-6 -12 -7 -16 -16 -14 -28 -2
-7 -11 -8 -21 -16 -15 -27 -2
-3 -12 -7 -21 -17 -18 -33 -8
-1 -15 -9 -13 -17 -19 -35 -10
-7 -12 -7 -6 -15 -17 -34 -7
-4 -18 -3 -5 -11 -13 -31 -4
1 -22 -3 -8 -11 -14 -31 -6
3 -14 -5 -12 -16 -19 -35 -9
0 -13 -5 -15 -18 -22 -36 -10
-4 -17 -5 -14 -16 -18 -34 -7
-2 -12 -7 -18 -20 -19 -33 -8
-1 -10 -9 -15 -20 -20 -36 -10
3 -16 -7 -8 -17 -19 -38 -9
2 -17 -4 -3 -16 -21 -38 -9
3 -10 -6 -8 -18 -22 -41 -12
2 -9 -4 -13 -18 -21 -39 -10
4 -15 -1 -15 -17 -19 -37 -9
4 -15 -3 -20 -16 -21 -37 -8
7 -10 -4 -18 -19 -21 -41 -8
2 -10 -4 -14 -18 -20 -42 -13
-2 -11 -3 -13 -14 -17 -40 -9
-1 -11 -3 -12 -13 -18 -39 -8
0 -11 -4 -8 -13 -19 -44 -12
-2 -18 -1 -1 -9 -17 -41 -10
0 -18 1 -6 -8 -16 -38 -10
-1 -16 0 -8 -10 -17 -39 -8
-2 -11 1 -6 -10 -18 -40 -5
-7 -9 -1 -8 -12 -20 -40 -8
-7 -8 1 -12 -11 -19 -43 -9
-2 -16 3 -11 -10 -17 -41 -8
-2 -21 4 -5 -8 -17 -40 -6
-5 -14 4 -4 -13 -17 -42 -6
-5 -10 4 -9 -21 -19 -45 -9
-2 -8 0 -8 -15 -18 -45 -10
-5 -13 2 -7 -11 -15 -44 -10
-6 -18 3 -7 -11 -13 -40 -9
-3 -17 4 -6 -9 -13 -39 -7
1 -16 3 -7 -10 -16 -40 -8
4 -16 -1 -10 -13 -18 -44 -11
7 -13 -2 -11 -12 -19 -45 -11
5 -13 1 -9 -12 -20 -45 -14
4 -11 0 -6 -9 -21 -44 -12
8 -8 -4 -11 -9 -20 -44 -9
4 -12 -2 -16 -10 -21 -48 -9
0 -12 -3 -20 -15 -21 -47 -12
2 -11 -3 -15 -17 -20 -46 -12
-2 -10 -1 -10 -15 -15 -42 -8
-4 -8 0 -8 -13 -15 -41 -7
-8 -9 0 -5 -10 -12 -40 -8
-7 -9 0 -5 -8 -11 -39 -5
-3 -8 -1 -3 -7 -12 -40 -4
-1 -10 -2 -4 -9 -14 -44 -7
2 -5 -3 -6 -11 -16 -47 -10
-1 -6 -2 -4 -9 -14 -41 -6
2 -7 -5 -6 -12 -15 -43 -8
2 -9 -5 -8 -10 -12 -43 -7
-2 -9 -5 -13 -12 -13 -46 -7
-3 -15 -3 -12 -10 -12 -41 -5
1 -15 -4 -13 -10 -13 -44 -4
5 -17 -7 -11 -11 -15 -45 -7
0 -15 -3 -2 -7 -13 -42 -6
2 -12 -2 -1 -7 -16 -46 -7
1 -6 -5 -6 -11 -18 -47 -9
-1 -10 -1 -4 -12 -16 -46 -7
1 -17 -2 -10 -16 -17 -47 -8
2 -18 -3 -14 -16 -15 -46 -8
-5 -17 -2 -15 -12 -11 -44 -6
-10 -15 -4 -22 -13 -13 -45 -6
-6 -8 -5 -18 -13 -12 -46 -9
-10 -10 -6 -10 -15 -13 -46 -6
-8 -12 -7 -4 -12 -12 -44 -4
-3 -12 -2 -1 -9 -9 -41 -2
-2 -14 -1 -4 -8 -9 -46 -4
-2 -10 -2 -7 -8 -10 -46 -4
-2 -5 -3 -11 -12 -13 -49 -7
-3 -8 -3 -13 -14 -15 -48 -6
-3 -13 -3 -11 -15 -12 -47 -7
-4 -12 -4 -10 -16 -11 -47 -8
2 -13 -5 -12 -17 -13 -48 -6
1 -12 -4 -14 -15 -12 -47 -5
-1 -9 -5 -18 -19 -16 -51 -7
1 -11 -6 -17 -20 -17 -51 -8
2 -8 -7 -18 -21 -20 -56 -12
-2 -7 -8 -18 -18 -19 -56 -12
-2 -9 -5 -19 -16 -16 -53 -8
2 -9 -5 -23 -17 -17 -54 -10
3 -14 -7 -20 -18 -16 -53 -10
-3 -17 -4 -9 -16 -15 -54 -7
-7 -16 -3 -7 -15 -14 -53 -6
-4 -10 -7 -13 -16 -15 -55 -10
-3 -8 -8 -17 -20 -17 -56 -10
-3 -13 -9 -20 -21 -19 -56 -9
3 -14 -12 -21 -24 -19 -60 -10
-2 -17 -8 -14 -19 -18 -58 -10
-5 -17 -7 -10 -18 -16 -55 -7
-2 -17 -7 -13 -19 -17 -59 -8
-4 -15 -7 -19 -23 -18 -61 -8
-1 -14 -6 -18 -20 -16 -57 -8
-1 -12 -8 -21 -20 -17 -60 -11
-1 -9 -9 -23 -20 -19 -60 -11
2 -9 -8 -21 -22 -22 -64 -12
1 -14 -11 -18 -24 -22 -62 -11
0 -16 -10 -16 -25 -20 -61 -9
3 -14 -9 -17 -23 -20 -62 -10
-8 -16 -5 -18 -22 -16 -58 -7
-1 -20 -6 -25 -25 -18 -61 -10
3 -14 -6 -29 -28 -20 -66 -13
-3 -10 -6 -21 -25 -19 -64 -11
-4 -6 -5 -10 -20 -17 -62 -9
-6 -2 -4 -8 -16 -13 -60 -7
-2 1 -1 -10 -14 -10 -57 -7
0 -3 -1 -11 -14 -10 -58 -6
-4 -6 2 -14 -14 -8 -57 -4
-1 -3 2 -15 -13 -9 -58 -4
-3 -6 1 -12 -12 -8 -57 -5
-3 -3 2 -6 -12 -8 -59 -3
0 2 2 -8 -13 -7 -56 -3
-4 -2 3 -15 -14 -7 -55 -2
-3 -4 7 -14 -12 -5 -55 0
1 3 5 -11 -12 -7 -57 -2
3 5 3 -9 -13 -9 -59 -4
5 7 1 -10 -13 -9 -61 -8
4 6 1 -15 -15 -11 -63 -10
3 6 -1 -19 -17 -11 -65 -8
3 12 -2 -13 -13 -8 -62 -6
-4 13 1 -9 -9 -5 -61 -5
-2 10 1 -6 -9 -7 -61 -2
1 10 1 -7 -11 -8 -62 -2
1 10 -1 -16 -16 -10 -63 -4
0 10 1 -23 -18 -9 -61 -2
1 7 2 -26 -18 -9 -59 0
2 10 -5 -21 -19 -9 -63 0
3 11 -10 -18 -19 -10 -62 -1
0 8 -12 -20 -19 -9 -62 0
-2 4 -11 -20 -20 -8 -61 2
-4 2 -11 -20 -21 -11 -64 -1
-2 0 -12 -22 -23 -11 -65 -4
6 1 -15 -29 -29 -15 -68 -8
9 -3 -15 -29 -30 -18 -71 -7
14 -6 -17 -32 -31 -21 -74 -8
14 -8 -18 -32 -30 -21 -75 -7
3 -9 -17 -23 -27 -19 -73 -4
-3 -10 -14 -17 -24 -15 -69 -2
-2 -10 -10 -16 -22 -15 -69 -2
-2 -9 -11 -19 -27 -16 -71 -4
-2 -10 -10 -19 -24 -15 -72 -4
-8 -12 -8 -19 -24 -15 -74 -6
-8 -15 -8 -20 -24 -17 -75 -6
-2 -17 -9 -23 -25 -17 -75 -8
-5 -16 -10 -29 -28 -20 -78 -12
-3 -15 -10 -33 -32 -25 -82 -17
3 -14 -10 -30 -34 -27 -84 -17
3 -17 -9 -26 -34 -22 -80 -12
3 -19 -7 -24 -32 -22 -76 -14
1 -22 -6 -24 -34 -26 -64 -14
-3 -26 -6 -26 -34 -27 -59 -13
-9 -25 -5 -26 -32 -25 -58 -14
-9 -24 -7 -27 -32 -23 -54 -15
-5 -22 -10 -28 -34 -24 -58 -16
-4 -19 -11 -30 -35 -27 -60 -18
-1 -19 -13 -32 -39 -31 -62 -18
-4 -22 -13 -30 -39 -31 -61 -17
-6 -28 -10 -23 -36 -29 -58 -14
-5 -29 -8 -21 -35 -27 -57 -12
-5 -26 -7 -22 -37 -27 -59 -13
-2 -25 -9 -29 -36 -28 -59 -15
-1 -25 -7 -35 -35 -27 -59 -16
-7 -21 -10 -42 -39 -27 -57 -15
-5 -19 -13 -40 -39 -28 -58 -15
-4 -20 -13 -32 -36 -26 -59 -16
-6 -25 -12 -28 -35 -27 -59 -16
-4 -26 -13 -23 -34 -27 -57 -15
-1 -26 -14 -20 -34 -27 -57 -16
-2 -22 -15 -25 -35 -30 -60 -17
1 -23 -12 -32 -32 -28 -60 -18
-5 -27 -6 -32 -30 -24 -57 -16
-7 -25 -5 -26 -30 -23 -55 -13
-2 -22 -5 -25 -34 -26 -57 -15
-1 -26 -2 -28 -42 -25 -55 -15
-3 -32 -4 -26 -40 -23 -54 -16
-3 -29 -4 -18 -26 -15 -48 -11
-1 -23 -2 -6 -16 -8 -45 -11
0 -22 4 8 -3 3 -39 -8
-1 -22 14 17 17 23 -32 -5
4 -12 28 43 56 53 -23 -1
6 -9 48 78 98 86 -9 6
12 -4 58 95 124 108 5 13
15 9 65 107 141 132 20 23
20 18 64 110 156 162 43 36
22 34 56 108 172 190 66 50
27 58 41 95 172 213 90 65
30 77 21 69 149 230 120 87
33 93 -6 23 100 233 147 107
34 113 -30 -24 52 237 176 131
33 130 -55 -66 10 248 204 149
28 148 -86 -108 -29 265 231 167
31 162 -118 -151 -71 268 247 177
28 178 -151 -199 -116 261 256 180
20 195 -179 -250 -170 226 250 173
14 191 -201 -291 -226 156 213 144
8 163 -217 -325 -289 49 140 102
-13 130 -216 -345 -345 -77 45 48
-25 92 -219 -359 -393 -192 -40 0
-25 61 -226 -363 -418 -274 -105 -38
-26 33 -223 -349 -414 -313 -144 -66
-32 8 -207 -316 -387 -311 -152 -76
-31 0 -186 -284 -354 -299 -150 -82
-29 -4 -171 -252 -321 -278 -143 -86
-31 -12 -152 -217 -284 -249 -129 -89
-27 -17 -136 -190 -255 -223 -116 -82
-22 -13 -131 -174 -236 -206 -101 -72
-16 -9 -119 -158 -211 -181 -87 -67
-10 -26 -98 -132 -178 -157 -73 -58
-9 -35 -79 -110 -149 -137 -58 -52
-13 -32 -68 -97 -127 -120 -48 -49
-13 -34 -57 -86 -109 -103 -37 -45
-9 -36 -49 -74 -93 -87 -24 -38
-2 -33 -39 -59 -77 -72 -16 -35
2 -27 -31 -38 -68 -59 -6 -33
5 -21 -24 -18 -54 -47 2 -29
1 -19 -17 -13 -38 -36 11 -23
0 -20 -6 -15 -28 -28 16 -18
1 -20 0 -14 -21 -22 20 -16
-2 -20 4 -12 -16 -20 24 -13
-9 -19 6 -5 -9 -15 28 -12
-7 -15 8 1 -7 -9 30 -13
-1 -19 7 6 -3 -6 33 -12
3 -16 4 3 -4 -8 31 -11
3 -11 1 1 -5 -7 30 -14
-3 -14 3 2 -2 -4 33 -13
-3 -13 5 8 1 -4 34 -9
-3 -15 7 13 3 -1 37 -9
-4 -18 11 14 6 -2 40 -9
0 -18 14 13 10 -3 38 -9
3 -26 15 12 10 -1 40 -8
7 -25 12 13 9 1 37 -12
8 -21 11 10 7 -1 38 -11
4 -16 11 9 8 2 38 -9
-1 -15 14 9 9 2 38 -10
-7 -16 17 14 13 6 42 -6
-7 -10 18 15 14 3 39 -6
-2 -10 18 16 13 2 37 -10
0 -8 17 14 12 -1 36 -12
2 -7 18 12 12 -1 37 -10
1 -12 22 19 17 1 39 -9
-2 -18 23 20 20 5 38 -8
4 -12 20 15 20 8 41 -6
6 -13 17 13 16 8 41 -6
10 -17 16 15 16 8 39 -8
7 -17 16 15 20 12 43 -6
-3 -18 18 18 23 12 44 -4
-7 -17 20 25 27 14 43 -3
-4 -16 20 29 28 13 43 -4
8 -18 17 26 26 8 38 -6
10 -16 19 27 27 8 40 -5
8 -9 17 25 25 9 38 -9
3 -8 17 25 27 9 38 -10
2 -7 20 29 31 12 41 -6
5 -7 18 29 31 13 40 -7
7 -7 20 30 32 15 40 -7
2 -7 20 29 33 15 40 -6
0 -13 23 35 38 18 44 -1
2 -15 26 39 43 21 46 0
1 -12 25 42 43 19 42 -3
6 -10 23 42 43 17 40 -4
5 -9 25 35 45 20 41 -5
5 -9 25 24 44 22 42 -5
5 -6 24 32 48 25 43 -5
0 -5 26 50 54 29 44 -5
0 -6 30 55 58 34 45 0
-3 -5 33 56 61 34 49 3
-2 -8 33 57 62 36 48 2
3 -2 31 62 64 34 44 0
6 -2 33 63 68 35 45 0
8 -1 34 60 70 34 43 -4
3 6 34 62 73 38 42 -6
4 5 35 71 77 38 43 -4
8 2 36 72 82 40 44 -4
8 1 43 77 86 48 51 -1
6 -6 48 84 91 51 52 2
9 -1 44 85 91 50 52 2
10 8 45 87 93 51 52 1
0 7 51 89 100 54 54 4
-4 3 54 94 107 59 57 9
3 0 57 98 112 62 60 9
6 4 54 98 114 61 55 5
7 11 57 101 118 63 58 7
4 12 57 104 121 66 58 4
7 15 61 109 124 70 61 9
11 15 62 113 129 72 64 12
5 16 65 115 133 74 66 13
3 16 66 113 136 75 64 9
5 21 65 111 136 74 63 10
9 25 63 108 134 72 61 8
6 26 66 111 135 75 65 13
4 24 64 115 135 77 64 12
5 28 64 116 132 79 67 15
5 26 66 115 135 81 68 17
3 23 67 115 141 83 70 19
4 25 65 115 139 84 69 19
4 25 65 115 138 81 69 17
6 32 64 113 134 80 67 16
6 37 67 114 133 80 67 18
3 41 64 110 131 78 68 16
2 44 62 109 129 77 69 16
5 41 61 107 126 75 65 14
6 40 61 104 125 74 65 17
5 48 56 97 119 72 64 13
-2 52 53 90 115 71 64 13
-4 45 52 83 112 72 65 17
0 38 53 76 109 69 66 20
7 39 48 72 103 68 66 18
7 40 47 73 98 67 69 22
6 36 46 74 97 67 69 24
10 33 41 68 91 65 68 23
9 36 39 62 86 63 66 21
6 40 37 59 84 59 65 25
0 41 30 54 78 58 64 26
1 37 29 53 72 56 63 26
2 32 23 43 65 53 62 22
3 31 19 34 56 46 61 19
0 29 17 33 50 44 61 20
2 29 14 32 44 41 61 20
-3 28 13 29 41 39 61 20
-4 22 11 23 35 36 61 18
-2 23 8 15 30 34 59 15
2 22 5 8 28 31 58 14
3 17 1 5 21 25 51 10
7 14 1 9 16 24 52 9
5 9 0 10 15 23 54 11
0 7 -2 5 12 20 54 13
-2 10 -4 -2 7 17 51 8
-3 9 -4 -3 5 14 49 8
3 7 -10 -7 3 9 44 5
8 5 -11 -7 0 8 44 3
9 3 -12 -6 0 8 43 1
9 3 -11 -7 0 5 40 -1
-3 3 -7 -4 0 3 41 -1
-6 5 -7 -8 -4 1 39 -2
-4 -1 -7 -11 -5 3 42 3
-9 -11 -5 -11 -6 5 45 4
-5 -13 -6 -9 -9 5 46 7
-2 -11 -6 -10 -11 0 41 5
-3 -13 -9 -12 -13 -2 34 3
-2 -10 -11 -15 -13 -3 32 -2
-2 -10 -10 -12 -12 -3 33 -3
-4 -10 -7 -14 -12 -1 37 -1
-6 -4 -6 -23 -15 -3 36 -3
-9 -8 -6 -25 -16 -3 35 -2
-8 -13 -6 -16 -11 0 37 3
-3 -12 -10 -12 -14 -4 34 1
-4 -7 -10 -19 -18 -6 31 -3
-4 -6 -8 -29 -16 -6 31 -2
1 -12 -9 -30 -17 -7 32 -1
7 -15 -10 -17 -17 -9 31 -4
7 -13 -9 -5 -18 -6 31 -4
-2 -11 -7 -5 -14 -4 33 0
-6 -4 -4 -10 -13 -6 30 -1
-3 -10 -1 -12 -11 -1 33 0
-1 -11 -3 -12 -14 -2 30 0
-1 -9 -4 -14 -19 -5 31 1
-6 -11 -2 -13 -20 -6 30 0
-9 -11 -1 -14 -17 -4 29 1
-4 -10 -3 -19 -16 -3 32 1
0 -9 -8 -22 -17 -8 27 -4
-1 -11 -9 -20 -17 -8 25 -4
-5 -17 -5 -17 -14 -5 28 0
-8 -21 -3 -15 -15 -4 27 -1
-9 -19 -4 -12 -16 -3 30 1
-8 -14 -6 -12 -15 -1 30 3
-3 -15 -5 -14 -17 -3 30 2
-3 -11 -5 -17 -21 -7 26 1
-7 -11 -2 -15 -19 -6 27 2
-3 -8 -6 -16 -19 -7 23 0
-10 -11 -5 -14 -18 -10 23 0
-15 -15 -4 -14 -16 -7 23 1
-15 -19 -3 -14 -14 -6 24 2
-13 -20 -5 -17 -16 -7 23 3
-8 -14 -7 -18 -18 -7 20 0
-1 -12 -9 -19 -19 -8 20 -4
-6 -15 -8 -24 -20 -10 21 3
-1 -16 -10 -26 -22 -12 17 1
2 -16 -8 -22 -21 -15 15 -4
0 -15 -9 -17 -19 -14 16 -2
-1 -11 -11 -12 -17 -13 18 -2
-1 -13 -13 -13 -17 -13 14 -3
-1 -12 -13 -15 -18 -15 10 -6
-2 -8 -13 -17 -19 -15 10 -6
-3 -10 -12 -14 -17 -14 12 -6
-2 -16 -12 -11 -14 -11 13 0
-5 -16 -7 -8 -13 -9 14 3
-6 -14 -8 -11 -16 -11 14 1
-5 -11 -8 -11 -14 -12 13 -2
-1 -9 -10 -16 -16 -15 10 -4
-2 -13 -9 -16 -15 -13 13 -3
-5 -17 -6 -11 -11 -9 14 2
-7 -15 -8 -14 -13 -11 15 1
-3 -13 -10 -17 -16 -11 14 1
-3 -17 -10 -22 -18 -15 8 -4
2 -19 -12 -16 -19 -15 7 -5
4 -14 -14 -6 -18 -15 8 -4
-2 -12 -13 -5 -18 -16 6 -6
-6 -5 -13 -10 -18 -16 7 -5
-6 1 -12 -12 -16 -13 9 -3
-11 -5 -8 -11 -13 -13 6 -2
-10 -10 -6 -13 -12 -11 9 -2
-12 -17 -3 -8 -8 -7 12 1
-10 -17 -3 -5 -8 -6 11 -2
-3 -8 -10 -12 -13 -10 8 -2
-3 -10 -10 -14 -13 -9 9 -2
1 -17 -9 -10 -11 -8 10 -1
3 -16 -9 -5 -10 -9 6 -2
-6 -14 -8 -3 -7 -9 7 -2
-6 -10 -10 -6 -8 -11 5 -4
-4 -7 -9 -6 -8 -13 6 -2
-3 -11 -8 -4 -8 -9 7 0
0 -11 -7 -5 -7 -7 10 1
-3 -13 -9 -3 -6 -9 10 0
-4 -13 -4 -4 -5 -6 11 3
-2 -13 -1 -5 -4 -6 9 1
-4 -15 -2 -6 -4 -6 9 -1
-4 -13 -2 -4 -6 -6 9 1
-7 -16 1 -4 -6 -5 12 4
-5 -13 -3 -7 -6 -6 9 1
-2 -8 -6 -10 -6 -9 4 -3
-2 -14 -3 -8 -5 -8 6 -1
3 -10 -5 -7 -7 -9 6 -2
4 -9 -6 -5 -9 -9 6 -2
-3 -14 -4 -5 -7 -6 9 -1
-4 -14 -2 -6 -8 -3 11 3
0 -10 -5 -9 -12 -7 10 1
-4 -10 -6 -7 -11 -6 11 2
1 -9 -7 -8 -13 -9 11 -1
1 -9 -8 -8 -11 -11 8 -5
4 -9 -9 -13 -11 -11 11 -2
3 -10 -9 -15 -12 -10 9 1
-4 -10 -10 -14 -11 -10 9 -2
-5 -9 -10 -6 -11 -12 10 0
-7 -9 -9 -4 -11 -11 10 1
-3 -11 -9 -5 -10 -8 10 3
-3 -13 -5 -6 -7 -7 15 7
-2 -19 -6 -9 -10 -8 14 5
0 -16 -8 -11 -10 -7 12 5
-2 -17 -9 -14 -10 -8 10 4
-4 -14 -13 -11 -11 -11 7 0
-2 -14 -13 -1 -8 -11 5 0
-6 -14 -12 1 -9 -12 4 -1
-9 -14 -9 0 -5 -9 8 2
-11 -13 -4 -5 -2 -7 10 4
-6 -10 -8 -15 -9 -11 4 1
-4 -2 -9 -12 -11 -11 7 1
-9 -7 -6 -1 -9 -9 10 5
-9 -11 -8 -7 -13 -13 6 2
-5 -12 -7 -13 -20 -13 3 0
-4 -11 -8 -13 -18 -14 4 -1
1 -14 -12 -7 -12 -12 3 -1
-1 -15 -10 -4 -11 -13 4 1
-8 -19 -7 -3 -10 -13 5 3
-9 -17 -7 -4 -11 -13 5 2
-4 -12 -12 -9 -17 -19 -1 -2
-2 -4 -11 -16 -19 -20 -1 -4
-6 -5 -10 -19 -18 -16 0 -1
-11 -11 -10 -19 -16 -17 1 0
-12 -14 -7 -12 -11 -14 3 4
-6 -13 -7 -8 -12 -15 1 2
-2 -12 -10 -4 -13 -14 -1 -1
-3 -4 -13 -8 -19 -19 -4 -5
-6 -5 -12 -9 -19 -19 -4 -3
-7 -10 -11 -7 -18 -17 -3 -1
-3 -16 -11 -7 -18 -16 -1 0
-1 -17 -11 -11 -18 -17 -1 -2
-1 -12 -13 -15 -18 -18 -4 -3
0 -12 -12 -11 -18 -18 -4 -2
-3 -16 -10 -7 -16 -19 -5 -3
0 -15 -8 -6 -14 -17 -2 -1
2 -12 -9 -9 -16 -18 -9 -6
2 -11 -10 -10 -18 -20 -11 -7
4 -7 -10 -12 -18 -19 -10 -6
-7 -4 -9 -12 -22 -16 -7 -5
-9 -10 -7 -8 -17 -9 -2 0
-6 -17 -6 -7 -15 -10 -1 1
-9 -18 -4 -8 -16 -10 -3 1
-9 -12 -5 -11 -17 -11 -3 2
-9 -5 -8 -13 -19 -14 -9 -7
-4 -6 -10 -12 -21 -17 -11 -8
-4 -7 -8 -7 -20 -15 -8 -1
-10 -17 -5 -2 -15 -10 -3 2
-12 -21 -2 -6 -14 -9 -2 3
-7 -15 -4 -12 -16 -11 -3 -3
0 -14 -5 -11 -16 -10 -4 0
0 -15 -3 -2 -11 -9 -1 5
0 -13 -2 2 -8 -7 -2 3
-6 -14 -1 5 -4 -5 0 3
-11 -9 0 7 -3 -7 -3 3
-12 -5 2 7 -5 -9 -4 3
-6 -2 0 6 -8 -11 -3 3
-4 0 -2 -1 -9 -11 -4 2
-4 7 -1 -12 -11 -12 -1 3
-4 11 0 -13 -11 -11 0 5
-5 2 1 -2 -11 -9 0 4
-6 -3 2 9 -5 -6 2 6
-6 -3 4 4 -7 -6 -1 5
-3 -3 3 -1 -8 -7 -3 4
0 -4 2 1 -6 -5 -2 4
4 2 -4 1 -8 -8 -5 -2
6 6 -7 -1 -11 -9 -5 -2
8 6 -5 -1 -10 -8 -3 2
5 6 -3 -3 -9 -7 -1 4
4 7 -1 -1 -8 -7 0 6
-1 9 2 0 -9 -6 0 7
0 12 -2 -6 -14 -13 -5 2
2 11 -3 -7 -12 -11 -6 3
-2 7 -4 -7 -12 -10 -4 4
-6 8 -7 -8 -11 -12 -3 6
-9 8 -6 -4 -9 -10 -1 9
-10 5 -7 -3 -9 -8 1 10
-6 7 -9 -3 -10 -9 0 10
-6 1 -7 1 -7 -7 1 11
-5 -7 -6 3 -8 -9 -2 9
2 -6 -6 4 -12 -11 -3 8
5 -3 -7 -3 -18 -17 -8 5
8 2 -9 -14 -24 -24 -13 1
8 3 -8 -18 -23 -21 -11 4
3 -3 -6 -20 -21 -20 -9 6
1 -10 -6 -21 -20 -20 -9 4
-6 -9 -5 -7 -21 -16 -9 6
-10 -8 -6 1 -20 -14 -9 5
-10 -8 -6 2 -18 -13 -11 3
-12 -11 -4 0 -20 -16 -15 -1
-10 -14 -4 1 -20 -16 -15 -2
-6 -14 -1 3 -16 -15 -12 1
-4 -13 -1 -2 -18 -17 -13 1
2 -14 -5 -6 -22 -21 -19 -4
1 -23 -4 -6 -24 -25 -25 -10
-3 -22 -1 -3 -21 -23 -25 -6
-3 -20 -1 -5 -21 -24 -23 -4
-6 -21 -2 -6 -22 -27 -25 -9
-9 -17 -5 -6 -23 -28 -26 -9
-6 -13 -11 -9 -27 -31 -28 -10
-3 -16 -12 -8 -28 -31 -27 -9
-1 -23 -10 -9 -30 -32 -28 -7
-3 -21 -8 -10 -32 -32 -27 -7
-8 -22 -7 -8 -30 -31 -28 -10
4 -24 -7 -15 -29 -33 -28 -9
2 -30 -4 -19 -29 -32 -26 -7
-12 -30 -1 -12 -25 -27 -22 -4
-11 -32 -2 2 -20 -24 -21 -5
-8 -32 -5 4 -20 -25 -23 -6
-6 -24 -5 0 -22 -24 -24 -5
-6 -24 -5 -4 -26 -24 -23 -3
-7 -24 -8 -8 -27 -26 -25 -7
-1 -28 -7 -5 -24 -24 -24 -6
-2 -31 -6 -2 -24 -23 -23 -6
-4 -25 -5 1 -23 -27 -25 -5
1 -17 -8 -5 -27 -31 -30 -11
4 -20 -8 -8 -29 -29 -30 -11
0 -19 -6 -9 -27 -29 -28 -7
-4 -20 -3 -10 -29 -30 -28 -7
-6 -22 -2 -9 -30 -28 -27 -7
-4 -24 -1 -7 -26 -26 -25 -5
-5 -26 -2 -8 -23 -24 -24 -7
-3 -30 -1 -4 -17 -19 -23 -6
0 -32 2 5 -8 -9 -20 -4
3 -32 6 20 6 3 -13 -1
9 -26 17 43 28 23 -6 2
11 -18 36 77 70 55 7 7
13 -9 53 106 114 83 21 13
9 3 64 122 134 106 32 21
10 14 68 133 151 129 48 28
13 29 62 127 166 159 67 40
14 37 59 129 185 193 94 59
16 51 48 127 186 215 121 77
27 74 23 92 154 224 143 94
37 92 -3 38 102 224 168 116
35 111 -27 -13 52 233 193 137
38 129 -52 -54 15 249 223 154
44 150 -86 -96 -27 258 242 170
47 169 -121 -144 -70 263 259 181
41 186 -152 -197 -115 255 263 185
30 196 -180 -246 -170 216 237 174
12 189 -200 -286 -227 143 187 145
-5 165 -213 -318 -289 34 107 101
-20 132 -216 -337 -346 -94 8 46
-30 97 -218 -344 -389 -204 -73 0
-33 57 -220 -339 -408 -279 -134 -33
-36 24 -215 -322 -402 -307 -166 -52
-41 6 -195 -290 -376 -305 -173 -64
-44 -3 -175 -259 -343 -291 -168 -68
-41 -9 -156 -227 -309 -266 -158 -70
-39 -22 -137 -190 -271 -239 -146 -74
-34 -29 -126 -169 -242 -216 -129 -66
-24 -21 -122 -164 -224 -201 -117 -63
-20 -25 -107 -145 -197 -179 -104 -57
-19 -27 -89 -113 -168 -158 -90 -55
-14 -25 -72 -85 -143 -142 -82 -52
-4 -26 -63 -73 -126 -125 -74 -46
-1 -32 -49 -55 -107 -107 -63 -42
1 -35 -37 -36 -83 -88 -50 -33
2 -34 -27 -25 -66 -71 -39 -26
-2 -27 -15 -15 -53 -56 -30 -20
-4 -20 -8 -9 -40 -47 -19 -16
-1 -10 -6 -13 -36 -44 -21 -19
-5 -8 4 -6 -27 -36 -16 -14
-7 -13 9 4 -14 -27 -9 -9
-2 -15 10 12 -5 -23 -7 -8
-4 -15 12 18 -5 -24 -10 -12
-3 -17 12 21 -4 -20 -7 -11
-3 -24 15 17 1 -13 -2 -5
0 -21 14 12 0 -13 -1 -5
4 -17 9 15 -3 -11 -2 -8
1 -19 12 27 1 -9 -1 -5
0 -17 14 28 2 -9 2 -3
-6 -12 19 31 9 -3 5 0
-10 -12 22 31 12 -5 4 0
-2 -10 20 25 9 -11 -1 -5
2 -13 17 25 9 -11 -3 -9
-3 -16 18 27 11 -5 1 -7
0 -14 17 28 12 -6 1 -6
-2 -22 22 33 15 -2 5 -3
-6 -18 21 31 13 -1 5 -4
-5 -12 20 27 13 -2 4 -4
-3 -13 21 28 12 -2 5 -1
0 -20 25 34 15 0 6 0
2 -18 27 36 19 -2 4 1
-2 -14 26 32 21 -4 4 0
0 -11 24 33 18 -5 0 -3
2 -14 25 34 19 -3 0 -4
1 -18 23 35 19 -2 1 -2
2 -15 23 34 20 -1 0 -4
3 -13 22 36 19 1 1 -4
-2 -16 22 38 22 4 4 -2
-2 -14 22 40 24 2 4 -1
-1 -14 23 41 26 2 4 0
-1 -15 30 48 32 7 9 4
-2 -17 32 49 35 8 8 2
-2 -16 29 48 31 4 6 0
2 -14 29 47 34 5 4 1
-1 -14 28 42 29 3 1 -4
-2 -16 29 45 30 4 1 -5
4 -16 32 48 35 10 6 -1
2 -16 35 50 38 11 9 3
6 -10 28 47 36 6 5 0
11 -5 26 50 35 5 2 -3
6 -5 28 56 40 6 3 -5
4 -7 31 51 43 9 3 -4
5 -3 32 47 42 11 4 -3
5 -7 34 49 47 16 7 -4
4 -7 36 56 54 19 8 -1
2 -10 38 66 56 22 10 1
5 -16 42 75 61 26 15 4
7 -15 41 75 61 25 14 4
7 -6 38 73 60 22 10 5
1 -4 43 75 63 24 13 4
-1 -6 46 79 68 26 15 3
-3 -5 45 78 73 27 13 2
-4 1 47 78 75 29 12 1
1 4 47 77 78 30 11 0
9 2 49 85 80 35 13 2
3 -1 53 97 85 40 18 5
0 -2 53 100 90 45 22 7
8 1 55 100 93 46 21 6
5 1 58 101 96 42 21 7
3 0 61 102 101 47 21 6
5 -3 64 108 107 48 22 6
5 -1 62 112 110 46 19 5
5 8 63 119 114 48 19 6
7 8 67 123 120 53 23 7
11 9 70 124 125 58 26 9
15 10 72 121 125 58 24 8
12 7 74 120 125 60 24 8
12 8 73 127 130 65 28 11
11 17 71 131 130 63 26 12
9 22 73 128 128 61 24 9
12 18 76 129 129 61 28 10
11 16 78 130 131 62 29 11
3 25 79 132 132 65 28 12
2 29 78 132 134 68 29 13
0 25 77 134 139 70 31 16
-1 27 77 131 139 73 31 17
-1 32 80 132 137 75 32 16
-2 27 80 136 140 76 34 22
2 30 79 137 138 75 37 24
9 31 79 130 137 73 33 21
5 31 80 130 138 73 35 22
1 34 79 132 138 71 36 21
8 31 76 132 134 67 31 19
9 26 77 129 133 70 32 21
7 31 74 123 128 67 28 18
6 38 68 114 122 63 26 12
5 38 70 113 117 65 29 19
0 40 72 112 118 69 36 25
-2 42 70 110 116 69 37 26
1 43 68 104 111 64 34 23
5 41 62 97 104 59 32 21
5 40 59 92 99 57 30 22
2 44 57 86 95 55 29 21
0 40 55 81 91 56 29 21
8 39 48 73 84 52 30 20
14 42 40 61 73 45 26 16
12 43 36 57 69 46 24 16
8 40 32 51 64 42 23 15
1 38 31 53 63 39 24 15
2 33 31 58 61 37 25 20
7 29 27 50 54 34 23 19
4 27 26 42 48 30 18 16
-1 28 26 35 45 28 17 15
-5 19 27 33 46 30 18 16
-6 9 25 33 45 30 20 18
-2 7 21 36 43 29 19 17
-2 8 16 32 35 22 14 10
-2 12 12 24 29 18 12 10
0 12 10 18 22 12 11 7
1 10 8 16 17 9 7 4
-1 10 5 19 18 9 7 6
-1 6 3 18 17 8 6 5
-1 4 3 15 14 6 3 3
5 2 4 11 12 4 1 2
4 -4 3 6 7 1 1 2
0 -6 2 7 5 1 1 3
3 -6 -1 3 -1 -2 -2 -1
3 -6 -4 0 -1 -5 -4 -2
-2 -4 -2 0 1 -3 -3 -2
-7 -7 -1 5 5 -3 -3 -1
-7 -6 -2 9 6 -5 -5 -1
-8 -5 0 9 9 -4 -3 0
-5 -3 -1 0 7 -8 -7 -2
1 0 1 -4 4 -9 -10 -4
2 -7 2 1 5 -10 -7 0
-3 -12 3 -1 4 -6 -6 1
-2 -10 3 -6 -4 -6 -7 -2
0 -7 0 -7 -12 -8 -9 -4
4 -4 -3 -7 -14 -11 -12 -7
0 -4 -5 -5 -10 -12 -13 -8
-1 -9 -4 -5 -8 -14 -14 -10
4 -8 -6 -2 -7 -15 -16 -8
7 -10 -3 -1 -3 -12 -15 -4
4 -16 0 2 -1 -8 -9 -2
2 -15 1 2 -1 -10 -10 -2
-1 -13 2 -2 -5 -11 -12 -2
-2 -10 2 -6 -6 -7 -9 -1
0 -8 4 -7 -5 -8 -8 -1
-1 -6 3 -8 -10 -15 -14 -6
-4 -6 4 -7 -9 -14 -15 -7
-5 -9 7 -5 -4 -13 -11 -2
3 -10 5 -8 -9 -18 -17 -8
5 -7 4 -9 -9 -18 -19 -9
0 -10 4 -5 -6 -15 -17 -8
0 -13 0 -4 -7 -16 -17 -9
-1 -14 -1 -6 -8 -13 -15 -6
-3 -15 1 -9 -7 -11 -13 -4
-1 -13 5 -8 -5 -9 -11 -3
1 -13 6 -5 -5 -10 -11 -1
-1 -8 3 -5 -6 -12 -13 -1
-3 -8 3 -8 -6 -15 -15 -2
-9 -14 4 -1 0 -11 -11 0
-6 -14 3 3 0 -12 -13 -1
-2 -10 0 3 -4 -17 -21 -7
-1 -11 -2 -4 -9 -19 -22 -9
2 -11 -4 -12 -11 -18 -20 -10
2 -12 -4 -12 -9 -16 -18 -9
6 -13 -5 -15 -10 -18 -20 -9
7 -13 -5 -15 -10 -22 -23 -7
2 -13 -3 -7 -8 -21 -21 -4
-2 -15 -1 1 -2 -17 -15 1
2 -15 0 -1 -1 -18 -17 1
-1 -12 0 -1 -2 -18 -19 0
-7 -10 1 0 -2 -17 -18 0
-11 -15 1 1 0 -16 -17 0
-6 -17 0 -3 -4 -16 -19 -1
-1 -17 -2 -6 -7 -16 -20 -3
-2 -20 -1 -4 -6 -15 -20 -2
1 -11 -3 -2 -7 -19 -21 -4
4 -5 -2 3 -6 -21 -23 -4
1 -10 1 1 1 -16 -21 -1
-5 -13 6 -3 4 -14 -17 1
-7 -14 6 -6 3 -16 -18 2
-3 -13 3 -2 0 -18 -23 1
-3 -12 2 -3 1 -16 -22 0
-4 -10 1 -9 0 -18 -24 -2
-5 -13 3 -2 2 -16 -23 -2
-6 -14 5 4 3 -14 -19 -1
-3 -15 5 2 3 -15 -23 0
-3 -13 6 6 5 -15 -21 4
-2 -12 7 2 2 -16 -22 2
-2 -11 5 0 3 -18 -25 0
-1 -6 1 -1 2 -20 -28 -3
-1 -6 1 2 3 -18 -26 -2
-2 -8 7 5 5 -12 -22 2
-5 -10 6 0 3 -16 -24 0
-6 -10 5 -3 0 -15 -25 -2
-2 -11 5 -5 1 -13 -21 0
0 -12 5 -9 0 -14 -21 0
2 -13 2 -7 1 -14 -22 0
6 -12 1 -7 0 -17 -27 -3
2 -13 3 -3 4 -17 -26 -2
2 -9 4 3 5 -16 -23 1
-4 -10 7 5 8 -11 -20 3
-12 -13 11 8 13 -7 -15 7
-5 -11 8 5 8 -11 -20 1
-3 -12 6 5 5 -11 -21 -1
1 -9 4 2 3 -12 -21 0
5 -6 5 -1 3 -14 -23 -1
5 -8 4 -3 4 -13 -22 0
9 -5 2 -10 1 -16 -25 -3
3 -6 3 -10 2 -16 -25 -4
-3 -2 5 0 6 -14 -23 1
0 -1 7 6 8 -11 -20 2
-6 -5 7 4 9 -9 -18 5
-9 -14 9 1 11 -6 -16 7
-6 -16 9 2 12 -5 -16 4
-7 -9 7 4 9 -6 -16 4
-4 -11 6 5 9 -8 -16 6
-6 -8 4 3 7 -9 -19 5
-4 -4 1 0 5 -11 -20 2
1 -1 0 -2 3 -14 -21 4
4 -5 1 -2 4 -14 -21 4
5 -7 0 -8 3 -13 -23 1
3 -9 3 -4 5 -10 -21 3
5 -6 -1 -4 2 -12 -21 0
0 -4 -2 -8 5 -10 -20 2
-7 -6 3 -12 7 -7 -17 7
-11 -9 6 -7 7 -7 -17 7
-7 -8 3 4 9 -8 -18 6
-4 -10 1 4 5 -11 -20 5
-1 -11 1 -1 6 -13 -20 5
1 -9 0 -3 7 -14 -24 2
-3 -8 -2 -8 5 -14 -25 1
-4 -6 -2 -14 2 -15 -25 -1
-2 -8 -1 -15 -3 -12 -23 1
2 -9 -2 -12 -1 -11 -20 2
3 -6 0 -10 2 -8 -20 5
4 -8 -3 -9 0 -11 -21 2
6 -11 -5 -5 0 -15 -23 0
3 -13 0 -3 1 -14 -22 5
-2 -13 0 -5 2 -14 -21 4
-2 -11 2 -2 4 -12 -16 8
-7 -8 0 -3 2 -11 -19 6
-9 -7 -1 -2 5 -12 -21 6
3 -9 -3 -4 3 -16 -24 1
10 -4 -7 -11 -3 -18 -25 0
9 0 -9 -17 -4 -19 -26 0
2 -5 -7 -18 -2 -17 -23 3
1 -10 -5 -15 -4 -18 -25 3
2 -12 -3 -13 -1 -16 -22 6
-1 -18 -1 -9 4 -12 -17 11
2 -19 -2 -4 3 -13 -19 7
2 -15 -3 -5 2 -14 -21 4
-4 -10 -4 -11 1 -15 -20 4
-6 -9 -3 -11 0 -14 -21 5
-6 -8 -5 -7 -1 -15 -22 1
-6 -10 -6 -8 -1 -16 -21 1
-2 -7 -6 -11 -4 -19 -22 1
1 -7 -7 -15 -5 -19 -20 -1
2 -5 -7 -19 -5 -19 -22 -2
2 -10 -6 -19 -2 -16 -21 1
-3 -15 -7 -13 0 -15 -19 1
-2 -12 -10 -8 1 -14 -19 2
-3 -9 -10 -10 -2 -16 -20 2
-2 -9 -9 -12 -3 -15 -21 1
1 -6 -11 -15 -7 -17 -20 -2
-4 -8 -12 -15 -6 -15 -23 -3
-3 -11 -12 -14 -3 -16 -19 0
-1 -9 -11 -13 -6 -17 -21 1
0 -9 -11 -11 -6 -19 -22 -2
3 -13 -8 -14 -2 -16 -19 2
1 -15 -6 -20 -2 -16 -18 2
1 -13 -8 -19 -3 -17 -19 -1
0 -12 -8 -9 -1 -16 -21 -1
4 -14 -11 -13 -4 -19 -22 -4
4 -11 -10 -15 -4 -18 -21 -2
2 -12 -9 -14 -2 -16 -20 -2
-2 -12 -11 -15 -4 -18 -21 -3
-4 -14 -9 -15 -4 -16 -19 -2
0 -8 -9 -14 -3 -17 -20 -1
1 2 -6 -13 1 -16 -18 1
0 5 -3 -11 5 -13 -15 4
6 0 -4 -11 7 -11 -13 4
6 0 -4 -7 8 -13 -14 2
8 4 -2 -7 6 -13 -16 -1
5 6 -3 -11 3 -12 -16 -1
-1 4 -2 -13 3 -10 -12 2
-2 6 -4 -16 3 -8 -10 3
-1 1 -5 -17 2 -7 -11 0
3 -1 -4 -19 5 -8 -11 5
5 -1 -3 -15 10 -6 -9 7
7 -1 -3 -6 13 -7 -10 5
10 2 -5 0 15 -7 -10 3
6 5 -5 0 13 -8 -9 4
5 6 -2 -6 10 -7 -8 5
-1 10 -1 -12 7 -5 -6 7
-8 11 -1 -11 11 -1 0 10
-6 15 -2 -10 11 -2 -1 11
-7 11 -3 -7 10 -4 -5 7
-4 9 -4 -6 11 -5 -3 8
-1 11 -5 -10 10 -6 -4 6
-3 7 -9 -16 6 -10 -8 4
-4 10 -12 -18 4 -9 -7 3
1 14 -14 -20 3 -9 -8 2
7 13 -19 -21 3 -9 -8 1
10 18 -19 -19 4 -9 -8 3
11 20 -21 -20 2 -12 -13 -1
14 17 -20 -25 2 -13 -11 2
5 5 -15 -28 6 -9 -7 7
-7 2 -14 -27 5 -10 -7 9
-1 9 -20 -24 1 -15 -11 3
0 4 -21 -23 -3 -17 -12 1
1 -4 -21 -25 -3 -15 -13 1
1 -4 -19 -22 -2 -13 -10 2
4 -3 -21 -22 -5 -15 -11 2
5 0 -19 -25 -5 -15 -10 1
2 2 -18 -33 -5 -17 -13 0
0 6 -21 -39 -9 -22 -16 -6
5 3 -19 -29 -5 -19 -19 -7
8 -5 -18 -19 -2 -18 -17 -7
8 -12 -15 -17 0 -16 -13 -6
-5 -16 -12 -17 2 -12 -13 -3
-10 -22 -14 -20 2 -15 -16 -6
-3 -22 -18 -26 -2 -19 -18 -8
-1 -19 -17 -28 -3 -18 -17 -7
-7 -21 -17 -27 -4 -17 -13 -5
-7 -24 -18 -23 -1 -16 -15 -3
-6 -24 -22 -23 -3 -18 -17 -6
-3 -19 -23 -25 -9 -24 -21 -10
-5 -18 -22 -24 -8 -24 -20 -11
-4 -18 -21 -26 -7 -25 -20 -10
2 -12 -20 -30 -8 -26 -21 -11
0 -13 -22 -32 -8 -25 -21 -12
3 -13 -25 -37 -10 -28 -23 -14
4 -12 -26 -41 -12 -27 -23 -14
-7 -22 -23 -31 -8 -23 -19 -11
-10 -23 -24 -25 -5 -22 -18 -12
-3 -20 -27 -28 -5 -23 -20 -11
0 -21 -27 -30 -6 -22 -21 -7
0 -23 -22 -26 -5 -21 -19 -7
-3 -25 -20 -25 -1 -19 -15 -6
1 -21 -23 -29 -4 -22 -18 -10
12 -18 -26 -30 -7 -24 -21 -12
7 -19 -25 -31 -7 -25 -22 -12
-1 -17 -25 -30 -7 -23 -21 -11
-4 -18 -23 -26 -7 -22 -19 -9
-6 -21 -24 -25 -6 -21 -19 -11
-3 -21 -23 -30 -8 -23 -20 -12
-3 -24 -22 -33 -8 -22 -21 -10
-2 -23 -22 -31 -9 -21 -18 -10
-1 -23 -21 -27 -5 -17 -14 -8
1 -24 -20 -25 1 -15 -15 -10
4 -22 -19 -20 6 -9 -13 -9
6 -19 -9 -10 19 3 -9 -5
3 -18 2 6 39 21 -3 -4
4 -11 16 34 72 47 7 0
1 -6 35 71 115 78 21 5
3 3 47 96 146 102 33 13
7 11 56 116 170 129 52 25
14 21 55 116 182 154 66 33
20 38 47 108 193 178 85 45
22 57 38 102 204 210 113 64
26 74 17 77 189 228 137 84
30 93 -12 31 147 237 169 106
31 118 -38 -19 94 241 196 129
31 139 -64 -63 52 253 219 148
31 153 -95 -109 14 269 247 166
36 166 -132 -158 -29 274 263 179
34 190 -166 -203 -72 273 270 185
22 211 -197 -249 -122 249 261 182
14 207 -223 -297 -179 187 218 156
7 186 -242 -336 -241 94 149 120
-16 157 -244 -361 -303 -33 55 66
-31 123 -244 -372 -356 -155 -35 16
-32 82 -245 -378 -386 -244 -105 -23
-32 48 -245 -372 -390 -294 -151 -53
-27 29 -233 -343 -374 -303 -165 -66
-26 6 -209 -302 -343 -297 -169 -73
-29 -9 -190 -268 -306 -275 -161 -74
-28 -13 -171 -234 -269 -248 -153 -78
-29 -17 -155 -206 -236 -221 -142 -74
-28 -17 -150 -187 -215 -202 -129 -69
-21 -14 -140 -170 -194 -182 -119 -64
-23 -20 -116 -143 -162 -155 -104 -56
-18 -16 -97 -123 -134 -138 -93 -51
-12 -18 -87 -106 -116 -126 -90 -49
-7 -26 -75 -85 -95 -109 -84 -45
-2 -36 -59 -65 -70 -89 -66 -37
0 -38 -47 -51 -51 -71 -55 -29
1 -29 -41 -44 -42 -60 -49 -26
1 -22 -34 -39 -31 -49 -43 -23
4 -16 -28 -30 -21 -40 -36 -20
1 -12 -21 -22 -12 -33 -30 -18
-6 -10 -13 -15 -6 -25 -27 -13
-10 -14 -9 -12 2 -20 -23 -9
-6 -17 -7 -8 9 -17 -23 -8
-3 -12 -2 -10 11 -15 -24 -10
0 -11 -2 -12 13 -14 -21 -10
3 -11 0 -10 15 -12 -21 -9
0 -11 4 1 17 -8 -19 -10
2 -10 3 7 21 -5 -17 -9
1 -7 0 3 19 -7 -19 -10
1 -5 0 1 18 -8 -15 -10
3 -5 2 2 18 -8 -18 -12
-2 -11 7 7 22 -6 -16 -10
-3 -14 7 6 24 -3 -11 -4
3 -12 5 3 25 -3 -14 -6
4 -14 4 3 26 -3 -15 -8
6 -8 2 1 25 -4 -18 -11
-1 -9 6 4 25 -2 -17 -8
-2 -15 7 10 28 0 -14 -6
1 -15 9 18 30 1 -11 -3
7 -9 8 18 27 0 -14 -6
7 -7 7 10 23 0 -15 -7
-1 -8 10 11 29 2 -14 -5
-1 -11 10 12 30 1 -14 -5
-2 -9 10 14 33 1 -16 -6
-4 -6 11 16 34 2 -17 -7
5 -7 9 17 33 1 -17 -9
6 -8 12 21 35 4 -14 -7
5 -6 11 20 35 4 -15 -8
2 -9 15 21 37 6 -10 -5
0 -12 17 22 38 8 -9 -1
2 -14 15 23 36 4 -10 -2
3 -12 15 21 37 4 -10 -4
3 -8 16 18 38 6 -12 -4
3 -8 16 22 42 7 -15 -4
2 -7 15 24 43 8 -12 -3
4 -4 15 24 45 9 -12 -6
2 0 15 21 43 7 -16 -7
-1 1 13 23 42 8 -16 -7
-1 1 13 29 44 10 -12 -5
1 1 18 33 49 13 -9 -2
2 -2 21 34 52 14 -7 -2
-1 -4 22 37 55 14 -9 -1
2 -1 20 34 52 10 -11 -4
5 -1 17 34 51 12 -13 -8
9 -3 20 40 58 15 -10 -9
5 -3 24 44 64 17 -6 -8
1 -6 26 44 63 20 -3 -3
1 -2 28 47 65 26 0 -2
0 -1 31 49 68 25 3 -3
4 6 30 51 67 23 -1 -8
8 6 34 55 71 24 0 -8
2 -1 38 55 75 28 4 0
4 -10 42 57 80 31 6 2
6 -3 42 62 82 31 6 -2
3 0 40 65 84 31 5 -5
3 0 40 67 87 33 9 -4
4 -4 42 70 92 37 11 -1
8 0 44 78 96 39 14 0
14 10 44 79 97 37 14 -2
14 10 44 79 98 38 14 -2
9 11 48 86 105 42 17 -1
3 8 54 96 115 48 24 3
3 6 60 100 119 53 31 8
9 11 59 98 119 53 32 4
9 14 60 96 122 55 33 4
11 15 59 96 124 57 34 5
14 17 57 100 126 57 35 2
17 18 56 102 127 58 46 3
9 18 60 109 134 61 57 8
5 21 65 113 138 64 59 10
2 20 67 122 140 64 60 12
3 25 68 124 142 65 62 12
7 30 65 112 139 63 61 9
3 30 68 113 140 65 62 10
2 30 70 116 142 68 63 12
5 35 67 123 144 70 64 12
6 37 65 122 143 68 65 12
9 34 65 121 143 67 64 12
5 28 68 119 146 69 66 16
2 31 70 113 144 70 67 18
2 33 66 108 138 66 65 15
2 37 65 111 138 66 67 16
3 38 68 113 134 68 68 17
5 37 64 111 132 66 67 16
7 41 65 109 132 67 71 19
6 48 63 101 129 65 71 17
3 49 61 93 124 64 70 17
2 48 61 94 122 66 72 19
-1 48 59 92 119 64 73 20
0 48 55 88 115 62 71 19
8 49 49 83 109 59 69 17
11 45 46 75 102 55 68 16
7 46 45 73 102 56 69 16
7 47 42 69 98 54 69 19
7 41 39 64 92 51 70 19
7 42 38 56 83 48 69 18
-1 40 34 48 74 47 68 16
1 41 31 45 69 43 65 15
-2 37 31 40 68 42 66 19
-5 37 29 35 61 40 69 17
-1 35 27 31 54 34 66 15
-1 28 24 29 48 31 66 12
-2 26 20 26 46 30 66 13
-2 27 16 24 42 27 62 9
-5 25 13 22 36 23 60 10
-3 25 11 21 33 20 58 7
1 22 10 17 28 19 59 8
-3 17 9 14 23 19 61 7
-5 21 8 3 18 15 58 6
-5 22 4 -6 11 11 53 2
0 18 4 -8 7 8 49 0
1 11 3 -8 6 7 51 0
-5 3 3 -10 7 6 52 1
-4 8 1 -5 6 5 51 1
0 8 3 -1 5 3 50 1
3 -3 3 -3 1 1 51 2
1 -2 3 -11 -2 1 49 0
0 -1 0 -11 -4 0 48 -1
-5 -2 -3 -11 -7 -5 45 -5
2 1 -4 -11 -11 -7 42 -6
1 -1 -4 -11 -12 -8 40 -4
-4 -1 -1 -10 -8 -8 41 -4
-6 0 1 -11 -7 -7 45 -2
0 -4 -1 -12 -8 -8 41 -5
8 -2 -2 -15 -10 -10 38 -9
1 -3 -3 -14 -11 -13 37 -11
-1 -6 -2 -11 -9 -11 38 -7
5 -8 -2 -12 -11 -12 35 -7
8 -9 -4 -17 -20 -18 32 -11
4 -8 0 -18 -20 -15 35 -8
-3 -6 4 -23 -18 -12 41 -5
-6 -6 3 -25 -19 -11 40 -4
-7 -7 3 -20 -17 -10 40 -4
-5 -7 2 -16 -15 -11 37 -7
-6 5 0 -16 -18 -13 33 -10
-11 2 2 -20 -18 -13 32 -10
-11 -5 3 -22 -19 -9 35 -8
-6 1 1 -25 -22 -11 34 -9
-1 -6 3 -25 -25 -12 32 -10
-4 -8 4 -19 -26 -10 33 -8
-3 -2 2 -13 -27 -11 33 -11
-3 -1 -1 -15 -23 -12 32 -11
5 -2 -3 -20 -24 -13 30 -8
3 1 0 -22 -23 -14 26 -12
-6 -5 3 -25 -24 -12 27 -9
-7 -9 5 -24 -23 -8 35 -6
-10 -8 5 -20 -23 -7 33 -8
-14 -7 4 -14 -20 -6 32 -9
-12 -7 6 -12 -21 -7 31 -10
-9 -8 5 -14 -23 -10 29 -13
0 -10 6 -14 -25 -12 27 -9
9 -5 4 -20 -25 -14 26 -12
9 -8 6 -25 -25 -14 26 -10
5 -11 9 -21 -23 -12 27 -9
0 -10 10 -13 -23 -12 27 -10
-2 -8 8 -16 -26 -13 25 -12
-3 -7 9 -18 -26 -13 26 -13
-6 -8 8 -17 -27 -14 24 -13
-5 -4 4 -19 -32 -18 23 -13
-6 -5 6 -16 -30 -15 23 -12
-9 -10 8 -15 -27 -13 25 -10
-9 -8 7 -18 -28 -15 27 -8
-8 -9 7 -20 -26 -15 23 -9
-1 -11 5 -21 -27 -15 22 -12
-1 -13 5 -16 -25 -14 24 -9
-2 -14 5 -12 -26 -13 23 -11
-3 -8 2 -14 -30 -18 19 -16
-5 -5 4 -12 -27 -16 21 -12
-5 -8 5 -13 -28 -15 21 -12
-3 -8 7 -15 -26 -17 20 -14
-5 -9 9 -15 -25 -17 20 -12
-5 -9 7 -14 -26 -19 16 -12
1 -3 4 -13 -28 -19 16 -15
0 -7 5 -16 -29 -19 16 -16
1 -12 3 -17 -29 -20 15 -17
4 -9 0 -16 -32 -20 16 -18
-3 -8 1 -8 -29 -15 19 -13
-7 -14 8 -1 -24 -10 24 -9
-8 -14 10 -3 -24 -12 24 -11
-6 -9 8 -10 -29 -18 16 -17
0 -5 8 -13 -27 -18 16 -16
-3 -5 6 -15 -28 -18 15 -16
-8 -6 8 -12 -28 -18 16 -14
-10 -7 7 -18 -27 -18 18 -12
-6 -11 4 -15 -29 -19 14 -16
-1 -11 4 -7 -29 -17 17 -13
5 -13 5 -6 -29 -15 19 -11
2 -10 4 -8 -28 -14 17 -12
3 -6 5 -8 -28 -14 17 -14
-2 -4 6 -7 -29 -18 14 -15
4 -7 8 -6 -29 -20 14 -16
2 -11 14 -2 -25 -14 19 -12
-4 -12 16 -2 -25 -14 18 -11
-2 -6 13 -9 -28 -13 19 -11
5 -6 9 -18 -34 -16 16 -13
6 -9 7 -24 -36 -19 13 -14
4 -6 8 -19 -34 -16 16 -12
-2 -1 6 -12 -36 -14 18 -12
-2 -1 9 -10 -31 -13 18 -14
-4 -5 13 -10 -28 -11 20 -9
-1 -6 10 -9 -29 -12 20 -8
3 -2 10 -1 -29 -12 20 -8
-1 1 11 2 -29 -12 20 -7
0 -3 10 0 -28 -11 19 -9
0 -5 10 -2 -28 -12 19 -8
-6 -11 13 -4 -25 -9 21 -5
-6 -13 13 -3 -25 -7 22 -8
-1 -5 8 -9 -32 -14 13 -16
-2 -3 6 -14 -35 -17 13 -14
-6 -7 10 -6 -31 -11 20 -7
-11 -11 15 -3 -28 -7 23 -2
-10 -9 16 -5 -28 -7 25 1
-3 -8 15 -7 -31 -10 23 -2
0 -10 9 -8 -35 -13 18 -5
-1 -3 6 -7 -36 -14 16 -9
-5 -7 7 -7 -36 -14 14 -12
-5 -9 8 -10 -35 -11 17 -9
0 -7 7 -15 -37 -13 16 -10
0 -6 5 -18 -40 -15 14 -13
-1 -5 4 -15 -40 -15 16 -9
6 -9 5 -10 -41 -17 14 -9
0 -11 6 -9 -41 -17 12 -9
0 -5 8 -9 -39 -17 13 -10
-1 -3 10 -8 -38 -15 13 -12
-3 -4 10 -8 -37 -13 14 -12
4 -3 9 -11 -38 -13 14 -12
6 -8 9 -16 -39 -14 14 -11
1 -7 9 -16 -43 -14 14 -11
-2 -11 10 -13 -42 -15 13 -10
0 -14 8 -12 -43 -16 13 -9
1 -12 9 -10 -42 -15 13 -8
-6 -14 10 -9 -42 -14 16 -5
-7 -10 9 -9 -41 -15 14 -6
-5 -5 9 -10 -43 -16 10 -10
-5 -7 8 -12 -44 -17 8 -12
-3 -4 8 -11 -43 -15 10 -10
-1 -4 9 -13 -44 -19 9 -11
-6 -10 12 -13 -42 -16 14 -7
-4 -18 15 -14 -44 -13 16 -2
-5 -17 12 -12 -44 -15 10 -10
-6 -11 8 -11 -45 -17 6 -14
-4 -6 7 -12 -44 -17 4 -13
-4 -8 8 -13 -45 -19 5 -16
-5 -11 6 -14 -46 -19 6 -14
-7 -11 8 -8 -43 -16 10 -8
-8 -12 10 -5 -41 -16 12 -7
-3 -14 11 -9 -43 -18 9 -8
-4 -13 12 -12 -45 -18 7 -10
-5 -11 10 -16 -48 -22 2 -17
-6 -14 12 -18 -46 -22 2 -18
-6 -12 12 -21 -46 -21 1 -17
-1 -10 11 -16 -44 -19 3 -15
-1 -14 11 -6 -44 -19 4 -16
-4 -12 10 -2 -44 -20 3 -18
0 -8 8 -7 -45 -20 1 -17
-1 -7 5 -16 -45 -21 0 -20
2 -3 2 -23 -48 -23 -4 -20
3 -5 3 -24 -50 -21 0 -16
-4 -15 6 -20 -49 -21 2 -18
-1 -16 7 -15 -48 -21 -1 -20
2 -12 8 -10 -52 -22 -3 -21
4 -15 8 -5 -51 -23 -3 -20
3 -18 8 -6 -48 -23 -2 -20
0 -14 8 -17 -51 -25 -4 -18
3 -11 5 -24 -51 -24 -2 -17
0 -12 7 -16 -46 -22 1 -14
-4 -12 5 -12 -47 -22 -2 -16
5 -15 5 -13 -46 -21 -3 -16
5 -20 7 -13 -45 -21 -3 -18
-3 -21 10 -9 -42 -19 -2 -17
-3 -18 14 -4 -40 -17 -2 -18
0 -13 11 -10 -41 -20 -4 -20
-6 -4 8 -10 -39 -21 -4 -20
-15 -1 13 -2 -35 -17 -1 -17
-13 -6 16 1 -30 -11 5 -12
-6 -5 14 -1 -29 -13 2 -14
-1 -4 14 -7 -32 -16 0 -16
-1 -6 15 -10 -32 -15 -3 -18
-4 -6 16 -4 -28 -11 2 -14
-6 -6 18 1 -24 -10 4 -12
-3 -4 18 -1 -23 -9 2 -13
0 -1 18 -5 -24 -11 2 -14
2 2 16 -10 -28 -16 -4 -17
7 3 15 -8 -28 -15 -6 -18
4 -1 16 1 -28 -13 -4 -15
-4 -2 18 6 -24 -11 0 -8
-2 3 17 -3 -26 -15 -4 -12
2 2 15 -14 -30 -17 -9 -16
7 7 10 -16 -32 -17 -11 -16
7 10 8 -12 -31 -16 -8 -15
4 12 9 -8 -27 -12 -1 -11
1 10 14 0 -23 -10 1 -5
-1 2 15 2 -23 -11 0 -4
0 -1 14 -1 -24 -11 1 -1
3 -2 14 -7 -27 -12 -1 -3
1 1 10 -10 -29 -12 -5 -5
1 10 4 -12 -34 -14 -8 -10
1 9 2 -15 -38 -16 -10 -10
1 4 2 -13 -36 -18 -6 -10
6 -2 4 -11 -33 -16 -6 -7
13 -6 2 -15 -33 -15 -8 -11
15 -4 0 -14 -35 -18 -10 -13
13 -1 0 -14 -36 -21 -12 -12
8 -6 2 -12 -37 -25 -13 -13
-2 -10 6 -7 -39 -22 -11 -9
-6 -10 7 -5 -37 -19 -10 -7
-5 -9 5 -12 -43 -21 -15 -11
-2 -9 7 -13 -43 -20 -13 -9
1 -10 7 -16 -40 -19 -10 -8
-3 -12 7 -23 -41 -19 -13 -10
-5 -10 6 -17 -40 -20 -16 -15
-7 -18 5 -8 -39 -19 -15 -14
-9 -25 5 -4 -36 -18 -14 -16
-6 -26 5 -4 -37 -21 -17 -16
-8 -29 6 -6 -36 -21 -16 -15
-10 -28 7 -7 -35 -22 -18 -15
-7 -23 7 -11 -37 -24 -21 -16
-4 -21 2 -16 -41 -27 -24 -20
-4 -20 -3 -17 -44 -32 -29 -26
-5 -19 -4 -13 -44 -32 -30 -27
-5 -14 -6 -13 -44 -30 -28 -28
-4 -18 -3 -14 -43 -30 -28 -26
-7 -29 0 -11 -38 -26 -22 -19
-4 -33 -3 -10 -40 -24 -20 -18
-4 -35 -2 -10 -39 -24 -23 -20
-2 -30 -3 -11 -40 -28 -29 -23
2 -27 -2 -14 -40 -29 -27 -24
-2 -30 -1 -17 -41 -29 -28 -25
-3 -33 3 -17 -38 -28 -26 -20
-1 -32 1 -15 -39 -30 -30 -23
0 -34 0 -10 -41 -32 -32 -23
5 -32 -2 -11 -43 -34 -35 -26
4 -28 -1 -12 -40 -33 -34 -26
6 -23 -5 -20 -46 -36 -37 -29
-1 -31 -2 -23 -44 -31 -31 -25
-6 -33 -2 -22 -41 -29 -32 -26
-2 -28 -4 -13 -39 -27 -31 -25
0 -32 -1 -5 -37 -25 -28 -24
-2 -35 0 -6 -37 -24 -23 -20
-2 -37 3 -5 -35 -22 -23 -17
-1 -29 1 -10 -35 -24 -25 -17
1 -22 -3 -16 -40 -30 -33 -25
0 -24 -4 -16 -42 -34 -37 -28
-1 -31 -3 -13 -38 -26 -31 -25
-5 -36 1 -6 -29 -17 -21 -17
-7 -39 8 7 -19 -8 -15 -13
-1 -44 12 16 -5 6 -10 -10
1 -42 22 30 16 27 -3 -7
-5 -35 40 64 57 57 9 -4
-3 -19 53 93 93 79 16 1
4 -3 64 112 120 103 30 7
15 3 69 120 139 129 43 10
20 13 67 124 152 155 62 18
24 36 58 123 164 184 86 41
29 56 47 116 171 211 112 59
29 74 29 89 152 229 141 80
25 89 4 44 108 236 170 103
21 109 -17 0 60 245 202 127
30 130 -39 -42 19 259 227 148
42 144 -69 -92 -26 270 247 163
47 159 -104 -144 -66 274 264 173
42 182 -137 -194 -111 269 266 176
31 196 -167 -246 -166 233 247 164
17 185 -181 -273 -215 171 202 139
2 159 -198 -305 -276 66 122 95
-19 122 -203 -327 -336 -62 22 39
-35 87 -213 -341 -383 -179 -65 -7
-36 48 -217 -348 -410 -263 -131 -41
-37 25 -211 -334 -405 -295 -164 -63
-40 10 -199 -310 -389 -302 -176 -77
-38 -2 -180 -276 -361 -293 -179 -88
-36 -11 -158 -241 -327 -270 -171 -91
-36 -25 -139 -213 -293 -246 -164 -96
-32 -30 -128 -195 -266 -223 -154 -93
-21 -21 -124 -178 -244 -204 -141 -86
-14 -21 -118 -157 -220 -184 -129 -78
-12 -27 -103 -132 -190 -161 -113 -67
-10 -33 -86 -111 -166 -144 -104 -63
-8 -37 -71 -88 -145 -126 -92 -56
-5 -46 -58 -65 -121 -105 -85 -50
-9 -50 -44 -48 -101 -90 -75 -48
-8 -46 -35 -41 -87 -75 -64 -45
-4 -42 -27 -33 -72 -62 -58 -41
-3 -37 -21 -25 -60 -49 -52 -39
-5 -30 -11 -17 -47 -38 -45 -31
-5 -26 -4 -8 -40 -32 -39 -26
-4 -26 1 1 -32 -26 -34 -21
-3 -30 9 5 -21 -21 -30 -21
3 -24 6 3 -16 -23 -33 -25
1 -16 4 5 -13 -20 -36 -29
-2 -16 7 9 -9 -17 -33 -27
-5 -21 11 11 -6 -15 -33 -22
-7 -23 16 14 -2 -11 -29 -19
-5 -24 16 18 -2 -9 -30 -19
2 -28 16 21 1 -8 -27 -19
10 -24 15 18 2 -7 -24 -20
7 -20 15 12 0 -7 -25 -21
4 -21 17 10 3 -5 -24 -22
4 -19 19 14 2 -8 -28 -23
1 -26 24 22 6 -5 -26 -17
-8 -28 25 24 10 -2 -24 -16
-13 -29 26 24 10 -1 -26 -20
-7 -28 24 20 10 0 -23 -18
-2 -24 23 20 10 5 -19 -11
-1 -18 19 17 5 2 -22 -14
1 -16 18 21 7 2 -23 -14
4 -22 17 25 11 0 -24 -16
4 -23 16 24 10 -1 -24 -19
5 -15 15 23 11 -1 -22 -22
4 -13 18 26 14 0 -23 -16
2 -16 19 25 15 1 -24 -17
-2 -17 23 27 17 3 -22 -14
0 -32 25 35 18 5 -20 -13
0 -34 24 38 18 7 -18 -12
-1 -25 23 33 21 10 -16 -12
-2 -16 19 23 19 7 -21 -14
0 -13 17 25 18 4 -21 -14
1 -10 16 29 18 4 -22 -14
-3 -15 18 26 22 4 -24 -18
-6 -18 23 34 26 9 -25 -19
1 -16 21 46 30 13 -19 -17
2 -18 22 53 37 18 -15 -11
-6 -19 23 49 38 17 -14 -10
-8 -19 25 43 37 18 -15 -10
-4 -18 24 39 36 16 -17 -13
-2 -18 23 39 34 15 -16 -12
-1 -21 23 46 36 15 -16 -11
-4 -20 24 49 39 17 -16 -9
-3 -12 22 47 38 16 -18 -14
4 -6 21 50 42 19 -17 -13
2 -16 27 53 47 26 -10 -8
2 -18 28 56 52 29 -9 -7
0 -13 32 57 54 32 -7 -8
0 -15 34 58 55 31 -7 -6
2 -15 34 61 57 31 -8 -7
0 -8 33 63 57 29 -10 -10
1 -9 33 63 60 32 -11 -13
1 -11 38 67 64 35 -8 -9
1 -9 40 71 72 39 -5 -7
2 -8 42 76 75 40 -7 -10
5 -5 46 79 78 41 -7 -11
0 -7 50 77 80 43 -6 -7
-1 -5 50 81 85 47 -4 -8
-1 -5 48 89 91 53 0 -3
4 -3 46 91 96 56 2 -3
11 -4 48 95 97 58 3 -3
8 -3 50 94 98 54 -1 -8
4 -4 54 100 103 55 0 -5
3 -5 59 108 113 62 7 3
8 1 58 105 116 62 6 2
4 2 58 103 117 64 7 2
2 2 60 104 118 67 7 1
5 3 60 110 118 69 5 1
9 6 62 117 123 72 8 1
8 8 63 115 125 74 14 5
4 10 64 114 127 77 13 7
4 19 60 115 129 78 11 5
2 21 61 123 132 78 10 4
5 20 62 123 133 78 9 5
11 21 60 116 134 79 10 4
13 18 61 109 134 80 10 2
10 20 62 116 138 86 16 9
8 23 60 123 136 85 13 7
3 25 61 127 139 89 18 11
3 27 63 125 143 93 22 16
6 27 62 122 139 88 16 15
8 31 61 119 136 85 11 10
8 35 63 118 136 85 14 12
6 31 63 117 133 85 15 14
7 28 61 118 135 88 18 14
3 24 62 118 135 86 15 14
3 23 60 112 133 85 16 15
7 26 58 106 123 83 18 17
7 29 54 103 120 82 19 19
6 33 52 93 116 81 18 17
8 34 49 85 106 76 13 14
7 36 44 87 100 75 13 12
3 42 41 86 98 77 16 13
3 47 36 77 92 73 12 8
6 44 35 71 88 72 13 12
4 42 34 68 83 67 12 10
-2 33 31 60 77 64 13 11
3 31 29 55 69 63 15 16
7 25 28 56 65 61 16 19
3 25 24 54 62 59 17 18
4 30 19 46 54 54 12 11
10 28 14 36 45 42 3 4
9 26 13 31 39 41 0 5
1 24 15 31 38 41 5 9
-4 19 17 32 36 42 6 9
-1 12 15 34 32 43 9 10
3 7 10 27 27 37 4 8
-2 6 7 22 21 35 1 4
-5 4 10 25 22 35 2 6
-7 6 8 25 20 30 -2 5
-7 5 6 18 14 23 -9 2
-3 4 5 8 6 16 -9 -2
-3 2 7 7 3 19 -6 1
1 -1 9 9 4 18 -6 2
3 -5 7 8 2 15 -9 -3
2 -1 4 -3 -4 13 -11 -3
0 -2 3 -2 -5 12 -11 0
-6 -11 7 5 -3 15 -10 3
-15 -18 9 5 -2 17 -6 1
-13 -10 5 0 -7 15 -7 0
-1 -7 -2 -5 -14 7 -14 -4
10 -4 -3 -6 -16 2 -20 -10
7 -8 -2 -2 -16 2 -20 -12
10 -9 -5 -2 -15 1 -21 -10
6 -13 0 0 -11 2 -22 -5
-5 -18 5 2 -9 6 -16 -2
-4 -16 4 -1 -10 6 -17 -5
-3 -15 5 0 -8 11 -13 -5
-4 -15 2 -2 -11 10 -13 -3
-8 -13 3 -4 -12 4 -19 -6
-9 -16 5 -6 -16 3 -18 -6
-4 -16 2 -8 -18 4 -15 -3
-6 -13 0 -4 -16 5 -12 0
-6 -14 -1 -5 -18 -1 -19 -6
-3 -14 -4 -8 -21 -2 -24 -13
-1 -17 -3 -9 -22 -3 -23 -8
3 -17 -2 -9 -20 -6 -22 -8
7 -12 -4 -11 -22 -6 -25 -10
8 -8 -5 -12 -26 -8 -29 -14
10 -11 -5 -10 -22 -4 -23 -11
4 -17 0 -7 -17 0 -18 -8
-8 -23 3 -1 -13 3 -13 -4
-9 -17 2 -5 -13 0 -17 -7
-8 -16 2 -8 -13 0 -20 -7
-8 -17 -1 -8 -16 -4 -20 -9
-5 -20 -3 -8 -21 -3 -20 -8
-5 -21 -3 -9 -23 -2 -21 -7
-7 -17 -1 -11 -23 -2 -21 -6
-11 -14 4 -8 -21 2 -15 -3
-6 -13 3 -8 -22 0 -16 -3
-2 -16 2 -8 -23 -4 -21 -8
3 -19 2 -10 -22 -6 -22 -10
0 -20 3 -6 -21 -4 -19 -4
-3 -19 5 2 -19 -5 -17 0
-8 -16 5 0 -19 -3 -17 -3
-2 -12 0 -8 -20 -4 -20 -6
1 -15 0 -7 -17 -6 -24 -12
-4 -13 0 -4 -17 -8 -28 -13
-4 -14 -1 -2 -15 -6 -25 -13
-10 -20 2 -3 -18 -5 -21 -9
-11 -21 7 -4 -21 -3 -17 -5
-7 -19 7 -3 -20 -3 -16 -3
0 -20 5 -3 -18 -5 -20 -6
-1 -19 3 -3 -21 -10 -22 -10
-6 -19 5 3 -17 -7 -20 -7
-6 -11 2 -1 -19 -9 -23 -8
-9 -14 -1 -7 -20 -8 -23 -8
-10 -17 -1 -9 -21 -7 -19 -6
-11 -20 -3 -7 -20 -6 -18 -4
-4 -18 -7 -3 -21 -9 -20 -7
-5 -17 -6 1 -22 -14 -28 -14
-5 -23 -2 7 -19 -11 -26 -10
-4 -26 3 9 -13 -5 -22 -6
-2 -19 -1 5 -14 -12 -23 -13
0 -10 -3 6 -16 -14 -25 -13
-6 -10 -1 4 -17 -15 -27 -13
-7 -9 -4 -1 -19 -14 -26 -14
-5 -9 -6 -2 -20 -10 -21 -12
-6 -15 -5 -2 -19 -9 -22 -13
-6 -16 -3 -2 -17 -10 -21 -10
-4 -13 -5 -1 -19 -12 -23 -8
-1 -15 -4 5 -16 -8 -21 -8
-1 -8 -4 4 -17 -13 -22 -10
-2 -7 -3 2 -19 -19 -27 -14
-4 -14 0 6 -15 -15 -23 -13
-7 -14 1 8 -15 -11 -21 -9
-8 -12 1 9 -13 -8 -21 -8
-8 -18 2 10 -11 -5 -17 -7
-4 -24 1 7 -14 -4 -17 -8
-2 -22 -2 7 -13 -6 -18 -8
-2 -17 -3 8 -12 -7 -21 -9
-9 -14 1 4 -11 -8 -19 -9
-10 -14 3 2 -7 -5 -18 -7
-11 -20 9 11 -5 -4 -15 -5
-8 -15 0 12 -9 -8 -18 -8
-9 -8 -3 10 -10 -8 -17 -8
-4 -7 -3 6 -10 -6 -18 -7
-1 -10 -2 7 -10 -4 -15 -3
3 -13 -5 5 -11 -4 -13 -3
3 -19 -5 1 -14 -9 -18 -7
3 -11 -8 2 -15 -10 -19 -11
-2 -11 -6 9 -11 -6 -15 -6
-8 -18 -3 13 -6 -1 -11 -2
-14 -10 -3 9 -8 -3 -14 -5
-10 -4 -3 6 -10 -6 -17 -10
-9 -11 -2 7 -8 -7 -17 -8
-10 -18 -1 7 -2 -2 -15 -3
-3 -20 0 6 -5 -2 -12 -2
-2 -15 -3 6 -9 1 -9 -2
-8 -11 -1 8 -9 -2 -10 0
-1 -8 -5 5 -9 -3 -12 -5
1 -4 -6 6 -12 -4 -11 -4
-1 -5 -10 5 -14 -5 -13 -3
-3 -14 -9 2 -14 -7 -13 -1
-5 -18 -8 4 -12 -3 -10 -3
-5 -22 -3 -3 -11 -4 -12 -6
3 -17 -5 -14 -12 -6 -11 -1
6 -5 -11 -12 -13 -6 -12 -1
0 -4 -11 1 -13 -7 -14 -5
-2 -3 -11 5 -12 -9 -15 -6
1 -6 -10 3 -15 -10 -15 -5
-2 -8 -6 5 -15 -7 -13 -5
5 -12 -10 5 -14 -7 -10 -2
7 -14 -10 1 -13 -5 -8 1
3 -13 -11 -2 -12 -6 -12 -4
-4 -11 -8 0 -14 -10 -15 -6
-9 -11 -6 7 -11 -7 -13 -5
-4 -10 -4 2 -11 -6 -12 -4
-1 -8 -4 -6 -12 -6 -10 -2
-4 -4 -5 -9 -14 -7 -12 -4
-5 -6 -6 -1 -14 -9 -13 -4
-9 -10 -8 10 -9 -6 -11 -3
-11 -16 -8 8 -14 -9 -13 -5
-8 -14 -4 7 -15 -9 -11 -2
-3 -10 -7 0 -19 -11 -11 -1
-1 -6 -9 -5 -20 -10 -11 -2
-7 -10 -8 -9 -18 -8 -10 -3
-6 -14 -11 -11 -17 -10 -16 -6
-2 -14 -13 -2 -18 -12 -17 -8
0 -10 -14 3 -16 -12 -16 -7
-2 -9 -12 1 -15 -10 -14 -4
1 -11 -10 2 -14 -8 -11 -4
3 -12 -12 -2 -16 -11 -11 -2
-2 -14 -8 0 -11 -6 -9 -1
-10 -11 -8 -3 -14 -8 -9 -2
-11 -6 -10 -4 -17 -12 -12 -4
-6 -3 -13 -6 -23 -18 -19 -7
-1 -5 -10 -6 -23 -17 -16 -8
5 -12 -12 -8 -23 -17 -16 -6
9 -14 -14 -8 -20 -15 -16 -7
8 -18 -10 -5 -19 -12 -12 -4
6 -10 -6 -1 -16 -10 -10 -3
7 -3 -5 -1 -13 -7 -6 0
3 4 -4 -3 -11 -8 -9 0
-2 -2 1 -3 -6 -3 -9 0
-3 -6 1 -1 -5 -3 -10 -2
-4 -3 -1 5 -3 2 -1 2
-3 -2 -1 9 -3 0 -1 6
-3 -3 -4 5 -7 -3 -3 4
-6 -3 -2 4 -6 -2 -5 2
-1 3 -7 -1 -10 -9 -9 -2
9 6 -11 -3 -12 -8 -11 -3
4 9 -5 0 -9 -5 -6 -1
-3 7 -2 -3 -6 -4 -5 1
0 4 -3 -9 -8 -3 -1 1
0 2 -2 -8 -11 -8 -7 1
0 7 -5 -2 -11 -9 -8 0
3 13 -8 2 -9 -6 -4 2
6 16 -9 -1 -10 -5 -4 0
3 15 -8 -5 -11 -6 -4 1
7 13 -9 -7 -11 -7 -2 4
0 9 -8 -5 -10 -7 -3 5
-3 7 -11 -2 -11 -7 -4 7
-2 4 -5 -2 -7 -8 -2 6
2 7 -8 -11 -10 -7 -4 5
5 12 -15 -11 -12 -5 -1 5
3 12 -19 -14 -16 -11 -4 2
1 11 -19 -13 -17 -13 -5 1
2 10 -17 -12 -14 -14 -7 1
1 7 -17 -16 -16 -15 -9 1
2 11 -20 -14 -18 -15 -7 -1
3 10 -21 -14 -20 -17 -9 -3
5 1 -21 -16 -22 -18 -9 1
7 -3 -22 -15 -20 -18 -8 0
4 -5 -20 -16 -21 -20 -12 -2
7 2 -16 -14 -19 -17 -11 -4
5 2 -14 -13 -23 -22 -15 -6
2 -5 -13 -9 -25 -23 -12 -5
2 -6 -10 -4 -16 -16 -4 2
1 -6 -9 -8 -13 -12 -2 7
4 -9 -9 -15 -17 -17 -6 3
2 -11 -11 -14 -19 -17 -9 -1
-2 -13 -11 -16 -21 -22 -12 -5
-3 -12 -14 -22 -26 -26 -18 -9
-3 -12 -15 -17 -23 -23 -13 -4
-9 -12 -14 -12 -22 -20 -9 -2
-8 -13 -12 -11 -19 -17 -6 0
-5 -20 -14 -14 -23 -23 -11 -4
1 -25 -14 -16 -29 -31 -17 -9
2 -21 -14 -18 -29 -32 -17 -4
-9 -19 -9 -13 -24 -28 -13 -4
-13 -14 -10 -12 -24 -28 -15 -6
-10 -11 -11 -15 -29 -32 -19 -8
-10 -15 -12 -18 -27 -34 -16 -7
2 -20 -10 -21 -25 -31 -13 -3
5 -31 -9 -21 -24 -28 -14 -1
1 -35 -12 -15 -23 -28 -15 -6
-3 -26 -13 -14 -23 -29 -19 -10
-8 -20 -13 -23 -26 -31 -20 -13
-6 -19 -11 -28 -25 -30 -15 -6
-2 -15 -12 -31 -31 -32 -16 -5
-2 -16 -14 -27 -33 -33 -16 -7
0 -15 -15 -20 -29 -30 -14 -9
6 -14 -16 -22 -27 -29 -14 -3
5 -17 -15 -20 -26 -30 -16 -5
3 -14 -15 -19 -28 -33 -20 -10
-3 -20 -14 -17 -25 -33 -19 -10
-9 -24 -12 -15 -22 -31 -17 -7
-1 -20 -13 -18 -25 -30 -12 -4
-6 -24 -7 -15 -23 -29 -10 -3
-9 -24 -6 -16 -21 -25 -9 0
-3 -21 -7 -20 -26 -31 -14 -4
-4 -24 -6 -18 -20 -23 -11 -4
-1 -22 -7 -14 -18 -18 -9 -6
-1 -20 0 0 -7 -8 -3 -3
1 -15 6 13 12 8 2 -1
2 -14 18 36 43 33 12 3
1 -17 35 67 82 62 23 8
-2 -8 50 93 118 91 37 18
-3 2 56 103 142 120 56 28
1 11 64 114 160 145 75 39
10 27 61 112 170 171 96 51
23 54 46 104 180 196 117 63
36 78 30 88 171 218 142 80
43 95 8 55 137 228 171 106
42 111 -15 9 85 234 201 131
39 132 -33 -33 37 239 224 143
29 151 -50 -66 -1 250 253 161
27 163 -79 -110 -49 255 275 178
32 174 -111 -151 -92 260 289 186
26 182 -133 -191 -134 250 290 191
15 181 -151 -233 -182 205 261 176
4 170 -166 -268 -234 117 195 138
-13 147 -184 -297 -297 -12 92 82
-19 114 -196 -322 -358 -148 -16 23
-26 84 -204 -344 -405 -254 -94 -16
-34 51 -205 -342 -414 -314 -152 -51
-40 29 -197 -327 -402 -329 -172 -68
-41 16 -190 -309 -378 -324 -177 -76
-38 8 -169 -272 -347 -307 -174 -80
-36 -1 -146 -225 -305 -277 -161 -78
-35 -15 -135 -197 -273 -250 -150 -79
-28 -15 -129 -181 -248 -229 -138 -75
-21 -8 -126 -164 -225 -213 -128 -71
-19 -18 -108 -143 -197 -187 -116 -65
-15 -25 -91 -126 -170 -169 -104 -60
-12 -19 -78 -107 -150 -156 -96 -54
-9 -17 -65 -87 -127 -134 -83 -46
-2 -31 -49 -64 -102 -108 -68 -38
-2 -44 -37 -49 -80 -89 -53 -31
-3 -39 -30 -46 -69 -75 -48 -27
-4 -39 -20 -33 -53 -65 -43 -25
-10 -34 -13 -19 -40 -51 -28 -15
-10 -25 -7 -16 -32 -42 -21 -9
-13 -24 1 -13 -25 -39 -22 -8
-5 -12 1 -13 -16 -29 -17 -9
-4 -8 4 -5 -8 -27 -16 -9
-6 -10 5 3 -8 -27 -17 -9
-1 -15 8 11 -2 -18 -12 -7
-5 -20 13 12 3 -17 -11 -8
1 -19 15 8 2 -19 -13 -9
9 -13 12 4 2 -16 -10 -6
2 -5 12 1 2 -16 -4 -1
-4 -7 14 -1 3 -16 -6 -2
-1 -18 14 3 5 -14 -7 -3
-3 -19 15 8 6 -16 -8 -5
-6 -16 17 15 12 -13 -8 -5
-5 -12 19 16 13 -10 -6 -2
0 -12 19 13 13 -8 -7 -2
1 -14 19 10 11 -8 -6 -4
-2 -15 19 13 13 -7 -4 -2
-5 -13 20 18 14 -7 -5 -2
-4 -13 17 23 19 -3 -1 3
-2 -10 14 17 16 -9 -5 -2
-1 -9 18 11 16 -10 -11 -7
5 -5 15 11 20 -5 -5 -2
5 -7 15 16 22 -6 -5 1
2 -7 19 22 22 -8 -9 -4
-1 -9 20 22 17 -8 -6 -4
-1 -10 23 16 18 -2 3 3
0 -10 21 8 19 -2 -1 -1
-2 -13 21 9 18 -1 -3 -1
-2 -13 22 26 25 3 3 6
-12 -14 24 37 30 6 7 10
-10 -19 26 29 32 6 9 9
-6 -20 27 19 31 2 4 5
2 -13 20 15 29 -2 -1 1
4 -8 21 25 32 0 -2 1
-3 -10 23 30 34 1 -1 2
-3 -11 21 32 36 4 2 3
-1 -9 24 30 38 9 3 3
1 -9 23 24 31 5 1 1
8 -9 20 24 32 3 -1 0
5 -6 24 32 36 6 0 2
2 -2 25 32 41 12 7 5
5 -1 25 30 39 8 6 3
3 -7 29 37 45 8 4 5
2 -5 31 45 47 8 1 2
6 -3 30 44 49 12 2 0
2 -5 32 42 54 18 6 3
1 -6 30 36 51 18 8 5
-1 -14 33 39 55 23 12 6
-2 -11 35 42 57 19 11 6
1 -3 36 51 60 21 12 7
4 2 39 55 64 23 8 6
6 9 34 54 65 20 6 1
5 6 37 54 70 24 11 6
-2 3 42 58 78 32 15 7
-6 1 47 66 85 37 20 13
-4 1 46 67 85 34 18 11
0 5 41 63 86 36 19 10
6 10 40 63 84 36 16 6
6 4 48 66 87 38 17 7
3 8 49 71 96 40 20 9
7 13 50 77 99 41 18 10
6 11 51 85 107 44 22 11
11 6 54 83 113 46 26 12
8 2 62 83 118 54 24 11
6 7 61 91 124 59 24 12
8 16 59 99 125 60 29 13
4 18 61 98 131 67 35 17
6 15 61 95 127 63 31 17
4 17 64 97 128 63 28 13
2 17 66 102 135 69 31 17
5 19 70 108 141 72 36 20
2 21 74 114 147 76 43 25
5 22 73 114 148 76 43 27
9 31 68 109 145 75 41 24
7 29 69 105 145 77 42 23
9 34 68 99 140 72 36 17
10 36 65 94 134 70 34 15
8 33 62 96 135 76 37 18
13 32 62 105 144 84 46 25
15 38 65 103 144 81 47 29
11 42 61 97 139 75 43 25
10 40 60 100 139 74 40 24
10 38 62 104 142 71 37 21
11 40 62 103 142 76 38 23
9 37 63 99 140 76 43 25
10 38 59 93 132 78 46 28
6 41 58 91 129 75 45 29
2 43 56 91 126 76 44 29
6 40 54 83 122 72 44 28
9 39 51 71 113 64 39 26
14 41 49 64 106 60 34 22
15 41 45 63 101 58 37 22
12 42 43 63 98 57 42 25
6 44 38 60 94 55 40 24
2 47 36 58 92 56 40 25
-1 42 39 55 88 56 39 26
-3 39 38 50 78 50 37 22
-3 36 39 47 73 47 34 22
-1 36 34 40 64 46 38 26
1 38 32 28 56 42 41 27
6 35 30 15 49 37 36 27
4 27 25 15 47 35 32 22
7 28 23 23 45 32 32 18
9 23 20 23 39 28 29 15
3 24 19 15 31 20 22 10
2 26 17 8 28 19 23 11
2 13 16 7 26 17 21 14
1 12 17 6 21 12 19 11
3 14 19 6 18 11 22 14
-3 12 17 3 16 11 21 15
-2 7 19 5 17 10 22 20
-1 -2 19 5 14 7 21 18
1 -1 15 2 10 1 14 12
2 2 13 -2 9 3 14 5
3 3 13 -10 -1 -5 14 5
3 2 10 -19 -4 -10 8 2
-1 0 10 -20 -6 -10 8 0
-4 2 11 -23 -5 -5 12 2
3 6 8 -26 -5 -4 16 2
2 0 9 -22 -13 -9 13 1
0 -8 9 -12 -12 -12 11 0
-4 -11 13 -5 -3 -5 16 4
-5 -10 14 -9 -2 -8 13 0
1 -8 9 -15 -8 -16 8 -4
9 -9 4 -20 -13 -19 7 -4
10 -4 4 -22 -12 -17 7 -6
6 -7 8 -18 -12 -16 12 -6
-1 -13 11 -13 -14 -13 14 0
-3 -17 12 -10 -10 -9 18 2
-5 -7 8 -18 -13 -17 10 -6
-6 -3 7 -22 -16 -22 4 -10
-6 -7 12 -25 -14 -14 13 -5
-1 -11 13 -22 -14 -12 20 2
0 -15 11 -15 -13 -11 17 1
0 -15 11 -15 -13 -13 15 -3
-8 -16 13 -15 -11 -15 15 -4
-11 -19 12 -13 -10 -13 17 0
-7 -16 11 -11 -9 -11 16 -1
-4 -8 8 -16 -12 -14 13 -6
0 -1 9 -25 -17 -22 8 -8
2 -5 14 -30 -16 -23 4 -8
0 -18 18 -18 -12 -16 11 -5
0 -27 20 -15 -12 -15 16 -1
-3 -21 20 -17 -11 -13 17 -1
-2 -14 12 -20 -14 -16 12 -7
0 -7 9 -19 -13 -18 10 -8
-2 -13 9 -13 -12 -17 11 -9
-3 -17 9 -7 -12 -12 15 -4
-3 -19 11 -9 -11 -13 16 -3
-3 -20 11 -16 -11 -14 13 -7
-5 -16 10 -22 -14 -15 12 -6
-9 -13 12 -25 -15 -14 14 -2
-10 -15 13 -23 -10 -11 17 -1
-1 -11 11 -22 -15 -16 9 -5
-4 -13 10 -17 -14 -13 9 -5
-4 -11 10 -17 -18 -24 5 -12
-2 -11 7 -18 -14 -20 10 -7
-2 -19 10 -19 -13 -16 11 -5
2 -17 13 -20 -14 -19 12 -4
-2 -16 13 -20 -15 -21 8 -7
-11 -16 14 -15 -15 -19 7 -10
-10 -15 17 -16 -13 -17 9 -5
-5 -15 14 -21 -15 -20 9 -7
6 -11 11 -20 -16 -22 5 -10
6 -13 8 -22 -17 -27 0 -15
-1 -11 11 -16 -8 -21 4 -12
-9 -7 16 -12 -5 -15 10 -7
-8 -14 14 -16 -9 -14 7 -8
-1 -23 13 -14 -13 -17 11 -7
3 -24 15 -19 -15 -20 8 -10
6 -21 12 -24 -19 -24 3 -13
-6 -15 17 -17 -11 -22 6 -7
-6 -17 20 -14 -8 -22 4 -7
3 -22 17 -13 -8 -21 6 -10
-1 -20 19 -9 -8 -17 7 -8
-2 -20 17 -15 -11 -22 0 -12
-4 -19 15 -21 -13 -21 1 -13
-1 -17 18 -20 -13 -20 4 -13
-4 -16 19 -14 -12 -16 10 -9
-5 -10 19 -13 -13 -23 5 -8
-3 -12 19 -19 -11 -23 2 -9
-4 -16 17 -13 -8 -20 4 -9
-7 -15 22 -2 -1 -17 9 -4
-6 -17 18 -10 -3 -18 2 -7
-6 -19 17 -14 -7 -21 1 -11
-5 -12 17 -13 -5 -19 4 -10
-3 -12 16 -15 -7 -18 4 -10
-2 -8 16 -13 -10 -19 4 -8
-1 -10 15 -8 -11 -20 3 -9
-3 -15 16 -7 -9 -19 0 -10
-3 -12 16 -9 -10 -21 -1 -12
-2 -6 13 -10 -6 -20 1 -9
0 -8 17 -10 -3 -16 7 -4
0 -16 20 -16 -1 -13 10 -1
2 -18 15 -19 -3 -15 8 -6
3 -14 14 -19 -5 -15 2 -8
-3 -17 15 -21 -10 -18 1 -11
0 -14 14 -17 -6 -12 6 -7
2 -10 17 -8 -5 -10 10 -4
-1 -13 16 -8 -2 -12 8 -5
-3 -16 13 -8 -5 -14 3 -6
-3 -17 20 -4 -1 -10 10 -1
0 -14 19 -7 -3 -10 11 -1
3 -10 16 -11 -3 -8 9 -2
3 -9 15 -8 -4 -14 5 -5
4 -6 11 -8 -1 -12 4 -4
3 -7 11 -7 1 -9 9 -3
0 -16 15 -7 -3 -15 4 -7
-2 -13 15 -12 -3 -14 3 -6
5 -8 11 -21 -9 -16 3 -4
9 -6 8 -21 -7 -15 2 -5
5 -9 14 -11 -3 -12 7 0
4 -8 18 -4 -1 -9 10 -1
1 -4 13 -8 -3 -5 9 -5
2 -2 12 -14 -7 -10 6 -7
-3 -8 14 -23 -9 -15 5 -5
-3 -11 13 -22 -7 -11 9 -4
1 -12 13 -12 -7 -11 6 -5
-6 -14 11 -5 -3 -8 7 -4
-8 -13 11 -5 1 -8 9 -2
-11 -15 13 -3 -1 -12 7 -3
2 -7 14 -4 1 -10 10 1
6 -6 15 -6 -2 -11 9 0
1 -9 15 -15 -10 -14 3 -5
1 -9 16 -19 -13 -14 3 -5
-3 -11 14 -25 -11 -11 8 -1
-4 -10 12 -22 -8 -10 10 2
-3 -12 13 -11 -6 -8 7 -3
0 -10 5 -11 -8 -13 2 -8
5 -7 2 -9 -6 -10 6 -2
0 -7 8 -4 -5 -9 7 1
-2 -9 9 -7 -5 -11 3 -4
2 -10 12 -9 -1 -11 6 0
-1 -8 14 -12 -2 -10 4 -5
-3 -11 11 -19 -11 -16 0 -5
3 -15 12 -11 -3 -11 5 1
6 -11 9 -10 -5 -10 6 0
-2 -9 12 -12 -5 -9 5 -2
-2 -4 7 -15 -10 -14 1 -6
6 -4 4 -14 -14 -19 -4 -8
3 -13 9 -9 -11 -18 0 -6
-2 -15 13 -10 -9 -13 4 -1
0 -11 12 -21 -11 -15 5 1
0 -4 14 -24 -8 -10 8 1
1 -2 13 -13 0 -6 8 1
5 -2 15 -3 4 -6 7 1
8 -7 18 -1 4 -6 5 0
9 -8 19 -3 2 -4 8 5
7 -8 16 -7 0 -5 9 5
3 -5 15 -8 -4 -8 5 3
3 5 11 -13 -3 -5 7 0
4 9 12 -17 -4 -4 8 -1
4 6 14 -19 -3 -7 3 -1
0 2 14 -8 -1 -9 3 1
-4 4 13 -3 3 -7 6 4
-1 7 12 -7 1 -6 3 2
8 4 14 -5 1 -2 10 4
4 -1 18 2 7 2 16 10
3 7 15 3 11 4 14 10
4 7 15 0 6 0 13 8
-1 8 15 -3 2 -5 11 7
1 9 17 -7 2 -6 8 3
2 16 13 -15 0 -8 5 0
-3 16 9 -17 0 -6 7 4
-2 11 9 -15 1 -5 5 6
0 3 8 -15 -2 -6 3 5
6 9 1 -17 2 -1 10 4
11 12 -3 -19 -2 -6 7 2
12 7 0 -17 -5 -11 4 2
18 7 -1 -17 -9 -13 4 4
19 10 -2 -21 -16 -13 5 5
10 6 -2 -20 -17 -11 5 3
7 5 -1 -17 -12 -8 4 2
3 5 3 -14 -9 -13 2 3
1 5 1 -14 -10 -12 2 4
-3 -5 4 -15 -9 -13 3 7
0 -17 6 -16 -9 -10 5 7
6 -17 7 -15 -9 -11 6 8
10 -12 4 -12 -9 -11 6 8
6 -10 5 -13 -10 -13 0 3
7 -6 4 -14 -11 -15 -3 -4
9 -8 6 -18 -12 -17 -2 -2
11 -9 7 -22 -13 -18 -5 -3
15 -5 2 -23 -15 -22 -7 -6
2 -13 5 -18 -13 -22 -7 -8
1 -19 8 -16 -10 -17 -4 -5
0 -24 10 -11 -7 -8 1 2
-8 -24 15 -11 -10 -15 -3 -2
-6 -20 12 -20 -14 -18 -2 -7
-4 -25 13 -23 -15 -18 -1 0
-5 -24 10 -15 -17 -20 -3 0
-3 -22 7 -10 -18 -22 -8 -4
-3 -24 8 -12 -20 -25 -9 -6
-2 -21 7 -20 -22 -29 -13 -7
-6 -21 9 -22 -20 -26 -12 -4
-5 -22 6 -21 -18 -21 -8 -2
-4 -21 4 -18 -17 -18 -5 1
-7 -18 2 -19 -19 -20 -7 -1
-7 -18 2 -15 -17 -23 -11 -2
-1 -23 1 -16 -19 -27 -16 -5
2 -26 1 -15 -17 -23 -15 -5
0 -21 4 -17 -16 -24 -15 -2
1 -22 6 -16 -14 -24 -17 -3
4 -27 6 -22 -19 -30 -20 -8
11 -27 5 -22 -17 -23 -15 -5
3 -25 10 -12 -12 -18 -11 -1
-4 -22 9 -11 -14 -22 -14 -2
-5 -23 9 -13 -15 -22 -16 -3
-4 -21 3 -19 -18 -23 -18 -7
-2 -22 4 -15 -15 -21 -14 -2
-1 -23 6 -17 -14 -21 -12 3
-5 -30 8 -19 -15 -21 -15 1
-1 -33 10 -20 -16 -19 -16 0
3 -28 7 -23 -19 -24 -18 -3
4 -26 5 -17 -16 -17 -13 -3
5 -28 10 -5 -7 -7 -10 -2
8 -24 16 9 8 2 -7 0
13 -12 19 18 25 18 -2 5
17 -12 29 40 59 49 12 9
20 -12 51 72 104 81 23 12
12 1 65 95 136 102 33 16
4 9 75 113 158 130 52 29
4 17 77 118 172 157 72 43
16 33 69 118 183 188 96 60
24 46 58 107 185 214 121 75
31 67 38 74 159 227 145 92
41 96 9 22 109 230 170 112
40 118 -15 -27 54 230 196 131
36 132 -35 -58 14 239 225 151
37 142 -60 -86 -23 256 256 171
41 151 -88 -118 -57 272 282 188
40 158 -115 -159 -93 274 293 197
30 177 -144 -209 -145 244 278 196
20 183 -164 -253 -204 177 234 167
7 172 -181 -287 -265 86 166 132
-8 144 -192 -311 -325 -44 65 76
-17 106 -194 -328 -377 -172 -33 25
-19 75 -200 -337 -410 -267 -112 -17
-19 44 -198 -325 -413 -318 -167 -51
-18 20 -188 -307 -397 -333 -191 -70
-24 4 -168 -281 -366 -325 -198 -82
-26 -4 -151 -250 -329 -296 -183 -77
-25 -12 -137 -217 -293 -271 -173 -78
-24 -24 -119 -186 -256 -236 -158 -75
-17 -22 -112 -169 -229 -214 -146 -72
-11 -14 -107 -157 -208 -196 -133 -65
-5 -14 -91 -135 -181 -172 -120 -58
1 -20 -71 -106 -150 -148 -108 -53
-4 -30 -57 -84 -123 -126 -92 -43
-6 -35 -42 -64 -104 -115 -86 -39
2 -40 -32 -51 -87 -101 -79 -37
11 -39 -24 -41 -67 -81 -66 -30
8 -35 -14 -32 -53 -66 -57 -24
0 -32 -8 -26 -41 -51 -49 -19
4 -22 -4 -20 -30 -41 -42 -17
3 -20 5 -12 -20 -33 -35 -11
-5 -22 12 -4 -13 -26 -33 -11
-6 -20 17 3 -3 -19 -29 -7
-3 -19 17 2 2 -21 -28 -5
4 -16 17 2 4 -20 -29 -7
10 -15 19 7 8 -17 -26 -7
3 -17 24 8 13 -11 -23 -5
-8 -16 26 6 12 -11 -23 -3
-8 -18 25 9 10 -7 -20 -2
0 -16 23 14 11 -7 -20 -4
2 -14 24 15 11 -7 -20 -2
-2 -12 25 10 8 -8 -19 -2
6 -12 22 2 7 -8 -24 -7
11 -13 22 -1 11 -11 -24 -4
3 -18 25 9 16 -5 -20 -2
3 -20 26 24 21 -1 -16 -1
1 -20 24 24 25 3 -14 -2
3 -18 25 24 24 1 -16 -1
7 -10 26 26 21 -3 -20 -6
6 -12 29 29 26 1 -17 -3
3 -9 29 27 28 3 -16 -2
5 -5 29 22 27 1 -16 -2
8 -11 26 17 26 2 -16 -1
2 -18 29 15 27 1 -17 -1
-3 -18 31 19 29 0 -17 -1
4 -13 28 21 30 6 -14 -1
9 -10 25 22 26 4 -16 -3
8 -15 27 24 26 4 -13 0
13 -14 29 25 26 6 -13 -3
12 -15 29 25 30 10 -12 1
4 -18 29 27 33 8 -12 1
-3 -14 32 32 35 7 -14 1
-2 -12 31 35 36 8 -14 0
1 -11 29 34 36 8 -14 0
0 -9 27 29 35 5 -16 -3
-2 -10 28 26 40 10 -13 2
5 -8 24 25 41 13 -13 -1
10 -8 23 29 40 8 -16 -3
12 -6 21 36 42 12 -14 -3
13 -5 25 36 44 18 -8 2
10 -12 27 38 45 14 -13 -3
7 -11 28 42 47 13 -14 -4
3 -6 30 43 50 16 -13 -1
3 -8 30 43 50 15 -14 -1
5 -8 33 43 54 20 -13 -1
1 -13 35 42 57 23 -10 1
0 -15 38 47 63 26 -10 0
3 -9 39 51 68 30 -7 1
5 -7 36 48 68 33 -6 1
8 -6 37 51 67 28 -6 3
9 -5 41 58 70 30 -5 3
3 -5 43 63 73 32 -5 3
3 -2 42 65 77 32 -9 0
6 -1 47 65 82 34 -6 2
11 2 50 69 85 36 -6 3
9 4 52 71 88 38 -4 2
10 6 48 68 92 41 -2 3
7 8 42 63 92 41 -7 -1
2 2 49 80 101 50 0 3
3 -6 53 99 109 56 11 10
16 -7 50 93 106 50 2 6
16 0 48 83 107 48 -1 5
13 5 51 86 115 53 1 5
14 9 56 94 119 53 3 8
10 11 58 98 121 57 4 8
13 13 58 99 125 59 6 8
18 15 58 105 133 69 8 10
11 8 63 113 137 71 9 9
9 14 61 113 138 70 11 11
6 12 62 114 141 73 16 16
6 16 61 116 142 74 15 16
8 29 60 116 143 75 16 15
11 29 59 112 144 75 15 14
13 25 62 113 147 79 20 18
12 31 61 117 150 82 18 18
13 39 58 113 147 75 13 11
19 42 55 110 145 74 14 10
19 32 56 114 148 80 19 19
18 25 59 120 154 85 25 23
11 33 59 120 151 85 22 20
9 37 56 117 149 80 20 18
11 39 55 114 148 80 21 18
13 30 58 113 147 82 22 20
11 31 57 109 147 82 24 22
9 40 56 108 144 82 20 20
9 42 56 109 143 81 24 22
13 41 53 105 139 77 22 21
11 43 50 98 133 77 23 23
12 48 45 88 125 77 23 21
12 50 40 81 116 70 21 19
5 45 41 83 112 68 17 17
1 42 40 85 113 72 24 24
10 47 33 77 107 67 21 21
12 51 30 69 100 60 17 18
11 48 28 67 96 60 18 18
13 38 26 67 94 60 20 22
9 32 25 62 89 59 21 23
8 31 24 54 83 56 20 22
6 39 20 51 73 52 17 17
6 40 14 47 64 47 18 16
5 39 10 43 58 41 13 14
8 34 9 31 52 38 12 14
9 28 7 23 50 39 14 19
9 22 5 22 45 32 12 18
6 17 3 31 41 29 8 16
3 18 0 29 39 30 8 15
8 21 -3 22 34 25 6 12
10 22 -4 14 26 18 1 9
8 17 -6 7 19 16 -1 4
4 13 -5 5 19 17 2 7
6 12 -13 3 14 15 1 7
1 10 -9 6 13 14 1 8
-4 5 -9 6 13 12 3 10
-1 8 -10 2 10 4 -2 6
6 7 -14 1 8 4 -8 3
11 2 -15 2 4 3 -10 1
11 0 -13 0 1 1 -6 0
5 -5 -14 -4 -4 -3 -10 -1
1 0 -14 -7 -3 -3 -9 -1
6 10 -18 -13 -7 -5 -9 -3
7 8 -21 -17 -12 -10 -14 -6
9 0 -22 -14 -11 -10 -14 -2
6 -3 -20 -7 -6 -7 -11 -1
4 -10 -16 -2 -4 -6 -8 -4
4 -10 -16 -6 -6 -4 -11 -3
9 -6 -20 -13 -14 -12 -17 -5
10 -1 -20 -15 -16 -11 -16 -5
11 2 -19 -16 -17 -11 -16 -7
10 -2 -21 -15 -16 -10 -16 -8
6 0 -21 -13 -15 -11 -13 -4
4 2 -22 -15 -13 -9 -11 -3
-3 -1 -20 -12 -11 -8 -13 -3
-7 -10 -15 -7 -9 -5 -10 3
-6 -21 -10 -5 -6 -3 -5 6
0 -16 -13 -8 -7 -5 -9 1
4 -9 -16 -6 -8 -6 -10 0
0 -9 -17 -2 -8 -7 -12 -2
3 -4 -18 -6 -10 -11 -16 -6
0 -6 -18 -9 -12 -10 -16 -9
-1 -8 -21 -14 -14 -13 -15 -8
5 -4 -21 -20 -16 -14 -15 -6
5 -6 -22 -21 -18 -12 -14 -4
4 -10 -21 -15 -15 -9 -13 -5
9 -11 -20 -5 -10 -13 -14 -6
4 -13 -19 -8 -9 -13 -16 -6
6 -8 -20 -11 -9 -12 -14 -5
5 -7 -20 -10 -9 -10 -12 -3
-1 -8 -23 -8 -12 -11 -14 -4
-2 -12 -22 -9 -14 -12 -16 -8
1 -13 -24 -14 -17 -14 -16 -8
4 -12 -23 -15 -15 -10 -11 -4
4 -10 -22 -13 -14 -11 -13 -3
1 -12 -22 -12 -15 -13 -15 -4
5 -12 -21 -10 -13 -13 -15 -7
5 -12 -18 -8 -10 -10 -10 -3
3 -12 -18 -7 -9 -8 -10 0
5 -9 -17 -9 -8 -8 -13 -2
6 -5 -21 -17 -15 -14 -16 -6
8 -2 -24 -17 -17 -15 -18 -8
9 -10 -22 -11 -15 -13 -17 -8
12 -20 -23 -9 -14 -16 -17 -9
16 -12 -25 -13 -17 -19 -19 -9
9 -7 -23 -19 -17 -18 -20 -8
4 -8 -23 -22 -17 -21 -23 -12
3 -11 -20 -16 -14 -17 -18 -8
3 -10 -25 -10 -14 -16 -17 -6
-2 -13 -22 -8 -13 -13 -16 -2
1 -17 -21 -9 -11 -12 -13 -1
0 -16 -21 -9 -13 -11 -15 -6
1 -10 -21 -8 -13 -12 -17 -5
1 -12 -19 -9 -9 -10 -14 -2
-1 -13 -19 -10 -11 -14 -17 -3
-3 -12 -19 -6 -10 -14 -16 -3
-2 -12 -23 -5 -12 -17 -17 -4
-1 -13 -22 -5 -11 -16 -18 -5
3 -12 -20 -5 -13 -16 -20 -7
6 -9 -24 -10 -14 -17 -22 -9
6 -9 -24 -14 -13 -18 -22 -9
0 -12 -19 -11 -8 -15 -19 -3
0 -13 -19 -5 -6 -13 -16 -4
0 -14 -19 2 -5 -13 -19 -7
-2 -10 -22 0 -6 -14 -19 -9
1 -3 -23 -6 -7 -15 -19 -4
0 -4 -24 -4 -8 -17 -20 -5
-2 -11 -23 1 -6 -15 -20 -8
-4 -15 -20 4 -4 -14 -19 -6
-4 -14 -19 -5 -7 -15 -21 -6
6 -11 -22 -16 -11 -16 -21 -9
17 -11 -23 -17 -10 -13 -18 -8
19 -9 -28 -9 -12 -17 -23 -10
17 -7 -28 -2 -11 -18 -24 -10
16 -4 -26 -7 -10 -16 -23 -10
13 -6 -26 -11 -9 -14 -22 -10
7 -7 -23 -5 -5 -12 -16 -5
-2 -11 -22 0 -2 -9 -14 -2
-4 -10 -23 3 3 -5 -11 0
-3 -10 -22 3 2 -7 -14 -2
0 -12 -23 3 1 -10 -17 -8
7 -12 -23 0 -4 -10 -17 -6
5 -9 -24 -1 -7 -11 -15 -1
2 -9 -23 1 -4 -10 -15 -1
6 -6 -22 1 -2 -9 -17 -4
4 -4 -21 2 -1 -9 -16 -3
5 -5 -23 -2 -5 -12 -16 -4
10 -7 -24 -4 -5 -13 -16 -5
4 -10 -23 -2 -3 -9 -17 -4
11 -9 -24 -6 -6 -13 -18 -6
14 -7 -23 -6 -5 -13 -19 -6
7 -8 -26 -4 -5 -12 -17 -4
2 -5 -26 -2 -2 -9 -14 -2
0 -7 -23 -3 -2 -10 -16 -4
3 -4 -23 -5 -5 -12 -17 -5
4 -5 -23 -5 -3 -6 -10 -1
1 -5 -23 -7 -4 -8 -13 -6
5 -5 -24 -7 -7 -11 -15 -5
9 -3 -25 -5 -8 -10 -14 -2
5 -3 -25 -5 -7 -9 -14 -3
2 -4 -21 -4 -3 -4 -10 0
6 -1 -24 -4 -5 -7 -14 -5
8 2 -27 -7 -7 -10 -16 -5
8 1 -28 -7 -5 -11 -15 -3
6 -1 -27 -3 -5 -12 -16 -4
6 2 -27 -2 -6 -12 -15 -4
5 2 -27 -5 -8 -13 -15 -2
8 -6 -24 -5 -9 -12 -17 -4
11 -7 -22 -5 -6 -8 -13 -2
14 -6 -23 -6 -7 -9 -14 -2
3 -6 -19 -10 -5 -9 -14 -2
-1 -6 -19 -14 -5 -7 -11 0
5 -2 -25 -15 -10 -11 -14 -3
11 1 -25 -9 -12 -12 -15 -3
3 -3 -24 -6 -10 -6 -12 -1
-4 -5 -22 -9 -8 -6 -12 -2
0 -8 -21 -6 -8 -9 -15 1
3 -8 -22 4 -6 -8 -16 -1
5 -2 -23 3 -9 -10 -14 -3
2 -1 -22 -2 -10 -10 -13 -1
2 -9 -22 -2 -8 -8 -11 1
5 -11 -20 -2 -8 -6 -11 2
8 -5 -24 -12 -15 -13 -18 -6
8 0 -26 -13 -16 -14 -20 -9
6 -4 -24 -7 -10 -10 -16 -5
1 -11 -25 -2 -6 -8 -16 -1
-1 -11 -26 -1 -3 -7 -14 0
-2 -4 -24 -2 -3 -6 -11 -1
-2 0 -25 -4 -6 -5 -13 -1
-1 1 -18 2 -1 1 -7 2
-4 4 -16 4 0 2 -5 5
5 9 -19 1 0 -1 -10 1
8 10 -20 -2 -1 -3 -12 -2
6 5 -21 -1 -1 -3 -11 -1
6 5 -21 0 1 -1 -7 3
5 6 -17 1 2 0 -6 4
6 8 -20 -3 -5 -4 -12 -1
10 7 -23 -2 -4 -3 -13 -2
8 8 -24 0 -6 -2 -12 -3
11 8 -21 -1 -4 0 -8 0
13 9 -20 -3 -4 0 -10 0
12 9 -20 -4 -5 -4 -14 -5
11 9 -16 -1 -2 -3 -12 -3
8 12 -14 3 2 -1 -11 -2
4 15 -13 5 2 0 -7 1
7 18 -14 3 2 1 -6 4
5 18 -14 -2 0 -1 -7 3
