I II V1 V2 V3 V4 V5 V6
-11 -15 -7 -13 -11 -11 -12 -12
-11 -17 -8 -14 -12 -13 -15 -12
-13 -18 -8 -13 -12 -14 -15 -12
-8 -15 -7 -13 -11 -14 -14 -12
-6 -19 -8 -14 -12 -15 -16 -15
-9 -16 -4 -9 -8 -9 -13 -11
-3 -12 -2 -8 -5 -7 -10 -8
-5 -14 -3 -10 -8 -9 -10 -8
-10 -14 -5 -10 -9 -9 -11 -9
-11 -13 -5 -10 -8 -9 -10 -8
-13 -15 -7 -13 -11 -11 -13 -12
-13 -12 -5 -12 -9 -10 -12 -11
-16 -16 -7 -13 -11 -12 -14 -14
-14 -25 -8 -13 -11 -14 -17 -17
-5 -24 -6 -8 -9 -14 -17 -18
-8 -23 3 4 -1 -10 -17 -16
-8 -19 11 15 7 -7 -16 -17
-9 -14 20 27 16 -2 -13 -16
-14 -15 24 37 26 6 -10 -14
-13 -9 23 43 35 14 -3 -10
-8 -5 17 48 47 25 4 -5
-6 -6 19 60 62 41 15 2
0 -4 27 84 87 62 27 12
10 7 49 128 129 96 53 33
22 27 82 187 185 144 86 59
42 45 115 249 240 189 119 84
50 58 136 291 285 230 150 108
61 72 127 279 296 252 171 129
61 81 107 239 282 259 185 145
59 88 79 173 239 237 182 148
54 96 48 93 172 192 163 140
43 101 12 11 97 138 136 124
25 97 -21 -64 22 83 103 102
12 85 -61 -127 -47 25 67 78
0 61 -104 -180 -107 -28 28 51
-17 35 -135 -226 -159 -75 -4 25
-26 12 -155 -261 -200 -110 -30 4
-25 -5 -167 -272 -216 -125 -44 -8
-27 -24 -180 -273 -220 -133 -56 -20
-20 -38 -182 -261 -218 -138 -66 -31
-18 -49 -172 -237 -202 -136 -71 -39
-18 -58 -159 -213 -185 -129 -75 -48
-21 -59 -141 -185 -165 -119 -74 -50
-13 -47 -116 -153 -139 -102 -63 -44
-4 -39 -95 -128 -118 -88 -57 -41
-2 -37 -79 -107 -101 -76 -51 -38
-3 -32 -64 -90 -85 -66 -45 -35
-10 -32 -50 -72 -70 -56 -39 -31
-18 -33 -41 -59 -60 -47 -36 -29
-17 -28 -34 -52 -52 -41 -34 -29
-18 -26 -27 -43 -44 -36 -30 -27
-15 -23 -20 -34 -35 -28 -25 -23
-12 -24 -17 -29 -31 -25 -23 -21
-11 -20 -14 -24 -27 -23 -21 -21
-7 -10 -12 -21 -24 -19 -18 -19
0 -8 -9 -19 -21 -18 -16 -16
-4 -12 -9 -18 -18 -17 -16 -17
-10 -17 -8 -15 -17 -17 -16 -18
-12 -20 -8 -16 -19 -18 -17 -18
-11 -20 -7 -16 -19 -18 -19 -20
-16 -23 -5 -14 -18 -18 -19 -20
-18 -22 -6 -16 -19 -18 -19 -22
-12 -18 -6 -15 -17 -16 -18 -20
-9 -16 -3 -11 -15 -13 -16 -18
-9 -15 0 -9 -10 -8 -11 -13
-5 -12 -2 -9 -10 -7 -11 -12
0 -14 -4 -10 -12 -9 -13 -14
-7 -18 -1 -10 -11 -8 -12 -14
-19 -21 0 -10 -11 -9 -11 -13
-18 -22 -1 -10 -12 -10 -12 -15
-18 -25 -1 -9 -12 -11 -13 -16
-23 -26 0 -10 -12 -11 -15 -17
-18 -21 -2 -10 -12 -11 -15 -16
-15 -19 0 -9 -12 -9 -14 -15
-16 -20 2 -7 -10 -8 -13 -14
-7 -15 1 -6 -9 -7 -13 -14
-7 -16 1 -4 -6 -6 -12 -12
-7 -14 1 -2 -6 -5 -12 -15
-8 -14 1 -1 -5 -5 -11 -14
-15 -20 1 -2 -7 -5 -13 -15
-15 -20 2 0 -5 -5 -13 -15
-13 -18 0 -3 -7 -7 -14 -17
-12 -19 -1 -5 -10 -8 -15 -18
-10 -16 5 1 -7 -5 -10 -15
-12 -17 7 3 -3 -3 -8 -11
-4 -13 6 3 -3 -3 -8 -12
-4 -13 5 4 -3 -4 -7 -10
-8 -16 3 3 -4 -5 -10 -12
-14 -18 7 5 -1 -3 -9 -11
-10 -14 6 5 -2 -2 -9 -13
-11 -16 5 5 -2 -3 -11 -15
-14 -16 4 5 -3 -4 -11 -15
-12 -19 3 4 -4 -5 -12 -16
-5 -17 5 7 -2 -4 -10 -16
-5 -14 7 9 1 -1 -9 -14
-7 -15 7 9 1 0 -9 -12
-9 -18 9 10 2 2 -7 -12
-9 -17 9 12 4 3 -8 -11
-7 -18 7 12 4 2 -9 -13
-6 -20 6 14 4 1 -9 -15
-11 -25 6 13 2 -2 -12 -17
-11 -23 7 16 4 2 -10 -16
-9 -19 9 17 7 3 -7 -14
-8 -19 10 20 7 3 -7 -14
-6 -17 13 24 12 4 -7 -12
-4 -16 13 25 12 5 -5 -11
-1 -21 12 25 12 4 -5 -12
-2 -19 13 29 15 7 -6 -10
-6 -22 12 30 17 8 -5 -11
-5 -19 13 32 19 10 -5 -11
-6 -18 14 34 20 10 -6 -12
-6 -22 12 35 21 11 -5 -10
4 -22 10 36 21 10 -5 -10
1 -21 12 41 25 14 -2 -8
-3 -21 15 45 29 16 0 -6
10 -13 17 49 32 19 3 -3
10 -15 16 51 34 20 4 -3
9 -20 15 53 35 19 2 -4
8 -20 14 55 36 18 1 -5
9 -21 13 55 37 18 0 -7
11 -19 12 56 37 17 0 -8
10 -23 13 58 38 18 -2 -8
12 -22 13 58 38 18 -1 -9
14 -16 15 63 42 23 4 -3
21 -9 16 64 45 25 5 0
25 -10 15 63 44 25 6 0
25 -9 14 62 43 24 6 -1
19 -10 15 63 46 27 8 2
17 -10 15 61 45 28 10 2
15 -13 15 61 45 28 10 2
11 -17 14 59 42 23 8 0
15 -15 13 58 40 22 7 -1
19 -10 12 56 39 22 8 0
20 -5 13 58 40 25 12 2
19 -6 10 54 37 22 9 2
23 -3 12 53 36 23 10 4
24 0 14 55 40 25 14 8
17 -4 11 51 36 21 11 4
19 -6 9 45 31 18 8 2
17 -6 10 43 30 18 6 3
10 -9 8 41 26 14 4 -1
11 -8 10 39 25 15 5 0
11 -7 9 35 22 14 5 -1
8 -7 9 33 21 13 4 0
11 -4 9 31 19 11 5 1
10 -4 11 31 21 14 7 3
17 4 11 32 21 15 9 6
15 7 14 33 21 16 11 9
10 4 13 27 18 14 8 6
10 1 8 21 11 9 3 -1
4 -2 5 19 9 7 2 -2
4 -2 7 17 9 8 2 -2
6 4 10 17 9 10 5 1
7 6 10 17 8 11 6 2
11 10 10 16 9 11 7 2
6 8 9 14 8 10 6 4
6 5 9 13 6 7 4 2
10 8 10 14 7 9 5 3
5 7 14 14 8 11 6 4
-1 1 12 11 5 8 3 1
-2 2 11 10 5 6 3 -1
-3 4 10 8 3 6 2 -2
-2 2 9 6 2 5 0 -3
2 5 9 7 2 7 3 -1
-3 6 10 7 4 8 5 0
1 4 10 7 4 8 4 3
2 4 8 5 3 5 4 1
4 6 10 5 2 5 3 2
3 6 10 4 0 4 1 1
2 5 8 1 -2 1 -2 -2
0 3 7 1 -4 0 -2 -3
-3 0 5 -1 -5 1 -2 -2
-4 -1 5 -2 -5 -1 -2 -3
1 2 6 -1 -4 0 0 -2
1 -1 4 -3 -4 0 0 -4
3 -2 4 -4 -4 -1 1 -2
3 1 7 -1 -3 1 2 -1
-4 -2 6 -3 -4 0 -1 -3
0 1 5 -6 -8 -2 -2 -5
-1 2 6 -4 -7 -3 -2 -5
-5 0 4 -4 -8 -2 -3 -6
-1 4 2 -6 -8 -4 -4 -6
-3 2 4 -4 -7 -3 -3 -5
3 2 3 -7 -9 -6 -4 -6
7 5 5 -7 -8 -4 -2 -5
4 2 6 -6 -7 -4 -2 -3
3 1 5 -4 -7 -3 -1 -2
4 1 4 -6 -9 -4 -4 -3
-1 -1 5 -7 -9 -5 -4 -4
-2 1 7 -6 -8 -5 -3 -4
0 2 4 -8 -10 -6 -6 -8
-1 1 4 -9 -10 -6 -6 -7
0 3 6 -8 -9 -7 -4 -7
1 6 6 -7 -9 -6 -2 -4
4 8 5 -6 -7 -5 -2 -3
3 5 5 -6 -8 -6 -2 -4
7 3 5 -6 -7 -4 -1 -3
4 2 4 -6 -7 -4 -1 -4
0 1 4 -6 -6 -4 -2 -4
4 4 3 -7 -8 -6 -4 -5
2 4 2 -7 -8 -5 -3 -4
-4 0 3 -5 -6 -5 -2 -4
0 4 6 -2 -2 0 2 0
4 6 6 -1 -2 0 3 1
2 4 6 -3 -3 0 2 -1
4 5 6 -2 -2 -1 1 -2
4 5 4 -3 -4 -2 1 -1
6 5 3 -4 -4 -3 -1 -3
5 3 3 -5 -4 -3 -2 -3
0 2 3 -4 -5 -3 -1 -2
3 4 4 -3 -4 -1 0 -1
3 8 5 -1 -2 0 2 -2
3 6 3 -2 -3 -2 0 -2
5 7 4 0 -1 0 2 1
5 6 5 0 1 2 4 1
9 11 7 1 3 3 6 4
10 11 6 1 3 5 5 4
10 12 7 2 3 5 6 4
11 11 7 3 4 6 8 5
5 8 6 3 3 5 5 4
0 5 3 0 0 1 3 1
4 7 5 1 1 1 3 1
2 9 5 0 1 1 3 1
9 14 5 2 1 1 5 3
10 11 6 3 3 3 5 3
11 11 7 4 5 5 5 5
12 17 10 7 8 9 10 10
15 17 10 6 7 9 11 9
13 13 7 4 6 6 8 6
6 13 9 6 6 6 9 7
2 12 7 2 3 2 6 2
6 14 9 4 4 2 6 2
7 19 13 6 6 4 9 4
6 21 15 9 10 8 12 8
5 22 17 10 11 11 14 9
5 23 17 12 11 12 15 10
7 25 16 10 10 10 14 9
12 30 17 11 11 10 12 9
7 26 17 11 11 10 12 9
4 24 18 11 11 9 11 10
2 18 17 9 9 7 9 7
3 18 18 9 9 8 10 6
6 22 18 10 10 10 11 8
5 22 18 10 10 8 10 8
4 23 17 9 10 10 13 9
10 25 16 9 10 10 13 11
9 20 15 7 8 8 12 10
6 22 18 11 12 11 14 14
8 24 15 8 9 9 12 10
5 22 13 7 7 6 10 9
9 28 15 9 10 8 13 11
12 27 12 7 8 7 11 10
7 20 9 3 4 6 8 6
10 20 13 6 9 8 12 10
17 26 15 9 12 12 15 13
20 30 12 7 8 9 14 13
16 27 11 7 9 9 16 14
17 29 9 6 9 7 15 13
21 35 8 7 10 9 15 14
18 31 7 9 11 10 17 15
15 25 6 8 11 9 14 12
17 27 6 8 10 8 13 11
13 23 3 3 6 5 9 8
14 21 5 2 4 2 8 6
14 21 6 1 3 1 7 6
9 17 7 3 4 3 9 10
8 19 9 4 6 4 11 12
7 15 7 3 4 1 8 9
3 11 7 2 2 0 6 6
3 10 6 1 2 -1 5 5
2 6 4 -2 -1 -5 2 0
3 4 4 -3 -2 -6 1 -1
4 6 6 -2 -2 -5 1 0
3 5 4 -3 -1 -6 0 -1
5 3 2 -5 -4 -10 -2 -4
3 0 2 -7 -8 -12 -4 -5
1 0 2 -7 -6 -10 -3 -4
4 -1 1 -8 -8 -13 -5 -6
1 -7 2 -10 -10 -14 -6 -7
-5 -8 4 -8 -9 -13 -5 -5
-2 -6 1 -12 -11 -17 -7 -8
-3 -5 0 -11 -11 -16 -8 -8
0 -4 -1 -12 -12 -16 -8 -8
1 -4 0 -12 -11 -17 -7 -8
2 -2 2 -10 -10 -16 -5 -7
1 -2 2 -9 -10 -16 -5 -7
1 -3 0 -11 -11 -15 -5 -8
0 -4 2 -9 -9 -14 -3 -5
-3 -4 4 -9 -10 -13 -3 -5
-2 -4 0 -11 -12 -16 -6 -10
-6 -8 -3 -13 -13 -17 -9 -13
-5 -8 -2 -14 -15 -18 -8 -11
4 -3 0 -14 -15 -18 -7 -10
0 -1 2 -9 -9 -14 -2 -6
-2 -1 2 -9 -8 -11 -2 -5
3 -1 4 -7 -7 -11 -1 -3
9 -4 1 -8 -9 -15 -4 -8
5 -12 2 -7 -9 -17 -7 -11
0 -12 6 -1 -6 -16 -10 -14
-2 -13 14 9 -1 -14 -11 -16
-1 -11 18 17 4 -15 -16 -21
-5 -7 25 30 17 -5 -11 -16
-8 -5 28 40 31 8 -1 -7
-6 -4 27 49 46 23 11 2
2 -1 27 61 64 41 23 9
14 6 32 84 89 63 40 21
24 16 52 126 128 95 61 39
35 34 82 185 180 138 91 62
46 51 115 245 234 183 126 90
49 66 135 282 277 222 155 112
57 83 129 273 289 244 178 132
66 96 112 235 280 257 195 150
66 103 83 173 244 242 197 157
61 104 51 96 179 200 179 149
54 114 22 20 111 153 158 140
40 116 -10 -54 36 95 125 122
28 104 -53 -123 -37 33 87 95
12 80 -96 -176 -100 -24 46 66
-4 52 -132 -227 -158 -76 7 36
-19 27 -149 -260 -202 -114 -23 11
-18 12 -165 -277 -224 -135 -42 -5
-13 -8 -174 -275 -228 -142 -51 -15
-6 -20 -176 -264 -225 -148 -62 -27
-9 -38 -168 -242 -211 -147 -69 -36
-10 -48 -153 -215 -189 -137 -69 -40
-3 -46 -137 -188 -169 -127 -68 -45
2 -37 -114 -158 -144 -110 -59 -41
-1 -29 -90 -128 -119 -93 -51 -35
-4 -27 -77 -112 -105 -84 -47 -34
0 -23 -65 -96 -92 -76 -44 -32
-5 -22 -52 -79 -77 -66 -40 -29
-7 -20 -39 -64 -65 -58 -35 -28
-3 -14 -30 -52 -53 -50 -31 -28
-7 -16 -24 -44 -47 -47 -31 -27
-5 -16 -18 -36 -39 -40 -26 -24
-2 -11 -11 -31 -34 -33 -19 -20
-1 -9 -8 -26 -29 -31 -17 -17
2 -7 -9 -25 -28 -30 -17 -17
1 -7 -10 -25 -28 -30 -17 -18
-4 -11 -8 -23 -27 -29 -18 -16
-7 -12 -5 -18 -22 -26 -17 -15
-4 -12 -4 -15 -20 -24 -15 -14
-5 -13 -3 -16 -21 -26 -16 -17
-5 -13 -1 -15 -21 -26 -17 -17
-9 -14 0 -15 -20 -25 -15 -16
-5 -9 1 -14 -18 -21 -11 -15
4 -3 0 -14 -18 -21 -12 -16
1 -10 -1 -14 -17 -20 -14 -16
-6 -12 2 -11 -15 -18 -11 -13
-3 -9 -1 -13 -17 -21 -14 -15
-6 -9 -1 -11 -14 -21 -14 -13
-5 -9 0 -10 -14 -20 -14 -13
-7 -14 2 -8 -11 -19 -12 -13
0 -9 0 -10 -14 -20 -14 -15
3 -4 2 -6 -9 -16 -10 -12
-1 -4 5 -4 -8 -13 -9 -10
6 -3 5 -5 -9 -15 -10 -11
3 -5 5 -4 -8 -13 -10 -10
-3 -7 5 -5 -9 -14 -8 -10
-2 -6 2 -6 -12 -17 -10 -12
-4 -6 4 -6 -11 -18 -12 -13
-6 -6 5 -4 -10 -17 -11 -13
-7 -5 5 -3 -9 -16 -12 -13
-7 -7 7 -1 -8 -16 -10 -13
-1 -6 9 1 -5 -14 -8 -10
1 -4 8 1 -6 -13 -8 -11
3 0 8 2 -4 -11 -6 -9
3 1 9 3 -3 -9 -4 -7
0 -5 6 1 -5 -11 -6 -7
1 -5 6 1 -6 -13 -9 -10
-1 -4 7 2 -5 -13 -10 -9
-1 -7 6 2 -6 -15 -11 -11
-2 -7 6 2 -5 -13 -10 -11
-2 -10 8 5 -4 -13 -10 -12
-1 -8 10 8 -1 -11 -9 -10
2 -3 12 10 1 -9 -6 -10
1 -3 11 9 1 -8 -6 -9
8 3 13 12 3 -7 -4 -6
8 2 11 11 2 -6 -5 -8
8 -1 5 8 -3 -12 -9 -11
3 -3 7 10 -1 -11 -8 -11
-7 -8 11 14 4 -8 -6 -8
1 -8 9 13 3 -9 -7 -10
4 -7 11 16 4 -9 -7 -10
0 -9 13 18 7 -6 -8 -10
7 -4 15 21 11 -2 -5 -7
8 -1 18 24 13 1 -2 -4
11 -5 15 24 13 -2 -3 -6
11 -5 16 25 13 0 -4 -7
11 -5 15 26 13 -1 -4 -9
3 -9 15 29 16 0 -2 -8
5 -9 17 32 17 0 -5 -9
2 -11 16 30 16 -3 -6 -11
0 -14 18 32 17 -2 -5 -10
9 -8 17 38 23 3 -2 -7
19 0 20 43 28 8 1 -4
21 1 21 46 31 10 5 -2
18 -5 21 48 33 10 5 -1
22 -5 19 50 34 11 3 -3
24 -1 20 53 35 12 4 -2
25 -1 14 51 34 9 1 -4
25 -1 16 54 36 10 1 -4
13 -8 18 56 38 12 3 -2
17 -8 17 58 39 11 2 -4
25 -1 17 62 45 16 4 -2
21 -5 20 64 47 19 6 0
24 -5 20 65 49 19 9 2
30 -1 19 67 50 20 10 4
29 -2 19 65 49 19 10 4
31 -1 19 64 47 18 10 3
26 0 17 64 46 17 9 2
20 -2 18 64 47 19 9 1
22 -2 20 65 47 18 10 3
23 -3 19 64 47 17 7 3
29 1 18 61 45 15 7 2
31 3 21 61 46 18 10 6
25 -2 21 61 46 19 12 8
23 0 20 59 45 19 11 8
25 2 16 55 41 17 12 8
22 0 16 55 39 17 12 7
27 6 16 54 38 17 11 7
24 5 13 49 35 15 10 5
19 -1 12 46 33 13 10 3
22 5 14 47 33 14 11 3
22 8 12 43 30 12 10 3
18 5 12 39 28 12 10 5
21 7 14 40 29 14 13 7
22 11 13 37 25 12 12 8
17 10 12 31 19 6 10 8
12 8 12 29 17 3 7 5
11 10 11 27 15 3 6 3
9 9 11 24 14 3 5 3
10 8 11 23 13 3 5 2
14 13 14 24 17 7 6 3
13 13 14 23 16 7 7 4
15 13 14 19 11 4 6 4
12 13 16 18 10 4 7 4
7 11 14 17 9 2 8 5
9 13 11 13 7 1 6 3
9 13 10 13 7 2 6 0
2 6 11 13 6 0 5 1
0 6 11 10 4 0 3 0
-5 4 10 8 3 0 3 0
-1 7 11 7 3 0 2 -1
4 12 13 8 4 1 2 0
4 11 11 5 1 -1 1 -1
12 11 11 4 1 -2 2 -1
14 9 7 0 -3 -6 -1 -4
1 2 9 1 -1 -3 1 -2
-4 4 10 3 0 -1 3 0
-4 5 7 1 -2 -4 0 -3
-7 2 6 -1 -4 -4 -3 -4
-7 1 7 -2 -4 -4 -2 -5
-9 3 10 -1 -3 -3 -1 -3
-6 7 10 0 -1 -3 0 0
3 5 8 -3 -3 -3 0 -1
6 4 6 -3 -3 -3 1 -3
7 5 5 -3 -4 -5 2 -2
5 5 4 -5 -6 -6 1 -3
-5 3 6 -4 -6 -6 -1 -3
-8 0 3 -7 -9 -10 -4 -6
-8 -3 4 -8 -9 -9 -5 -8
-5 -2 4 -7 -9 -8 -5 -8
-3 1 4 -6 -8 -8 -4 -8
1 6 6 -5 -6 -7 -2 -5
2 8 9 -4 -5 -5 0 -1
-3 6 8 -3 -5 -4 2 -1
4 5 8 -4 -6 -6 0 -1
4 5 4 -9 -11 -9 -3 -4
-5 -2 2 -11 -13 -12 -4 -7
-9 -6 1 -11 -14 -14 -5 -9
-2 1 3 -10 -12 -12 -3 -7
-5 0 3 -10 -11 -12 -4 -9
-5 -1 4 -8 -10 -10 -6 -9
-3 -2 5 -8 -10 -9 -4 -6
-7 -3 5 -7 -8 -8 -4 -6
-7 0 5 -7 -7 -6 -2 -5
-2 0 6 -6 -7 -6 -2 -4
1 6 7 -6 -6 -6 0 -2
-3 5 5 -7 -7 -8 -3 -5
-3 1 2 -9 -9 -11 -6 -8
-6 0 2 -9 -10 -13 -7 -9
-10 -3 3 -9 -10 -12 -6 -7
-7 -2 3 -8 -9 -12 -5 -5
-6 -1 7 -6 -7 -7 -3 -4
-7 -2 5 -7 -7 -7 -2 -5
-5 0 5 -7 -7 -7 0 -2
-1 0 6 -5 -6 -6 1 -2
-3 0 5 -6 -6 -5 0 -4
3 5 3 -8 -7 -5 1 -3
-7 2 5 -4 -4 -3 2 -1
-6 1 4 -4 -5 -5 -2 -5
-3 3 3 -5 -6 -6 -2 -5
-2 4 5 -3 -2 -4 -1 -3
1 5 6 -2 0 -2 0 -2
-1 5 6 -1 -1 -1 2 -1
-3 3 7 -1 -1 -1 3 2
-2 3 7 1 1 0 3 2
-3 3 3 -2 -2 -2 1 0
1 9 5 -2 -1 -1 3 1
-5 5 5 -3 -2 -1 3 1
-7 0 4 -2 0 1 3 1
-4 3 4 -2 1 2 6 1
-1 6 4 -1 1 2 6 1
-2 7 6 1 3 4 5 1
-7 9 10 4 7 7 10 5
0 7 6 0 3 4 6 4
-1 4 8 2 5 5 7 4
-3 7 10 2 7 7 7 4
-4 7 7 2 7 6 7 3
-7 6 8 4 8 7 8 6
-9 11 13 6 9 9 10 5
-2 17 13 4 8 7 9 3
2 18 17 9 12 10 12 7
-3 13 18 10 12 10 12 8
-6 13 18 11 14 12 15 11
-6 15 20 12 15 14 17 16
-4 13 18 10 13 13 16 12
-6 14 15 6 11 11 13 7
-7 14 18 7 11 10 12 7
-6 17 20 10 12 11 14 11
-7 17 17 9 12 12 13 9
-7 18 17 8 12 11 14 10
-4 21 18 10 14 13 16 11
-1 22 18 10 14 16 15 12
2 25 17 9 14 14 15 11
4 25 18 9 13 14 16 12
4 21 15 8 11 11 13 9
0 22 14 5 9 10 13 8
1 25 16 6 11 13 16 11
-1 21 13 6 12 13 15 12
-1 20 10 7 12 13 13 10
1 20 10 4 10 10 12 8
1 21 14 9 13 13 14 11
2 27 17 12 16 17 18 15
3 28 14 9 14 16 18 15
10 26 10 5 12 14 17 13
11 26 9 6 14 16 19 15
5 23 8 7 15 17 19 16
5 21 8 9 16 18 20 16
4 20 7 9 15 16 18 15
4 20 9 9 14 16 17 14
3 19 8 6 11 13 13 11
-1 11 5 3 8 9 10 8
-4 10 4 1 6 8 8 6
3 12 5 0 5 7 8 6
-1 10 6 0 5 5 9 7
-2 10 7 2 7 7 11 8
-1 12 8 2 7 9 12 7
-1 8 7 2 7 7 10 4
-4 4 5 -1 4 4 5 1
-12 -4 5 -2 1 1 2 -1
-14 -6 4 -3 0 -1 1 -4
-12 -4 6 -1 2 1 3 -2
-8 -2 7 -2 1 1 2 -3
-8 -6 3 -7 -2 -2 2 -6
-10 -8 4 -6 -1 0 3 -4
-7 -5 2 -7 -2 -2 2 -3
0 0 1 -9 -4 -3 -1 -5
-7 -2 1 -9 -6 -5 -2 -5
-11 -3 0 -9 -5 -6 -4 -5
-7 -4 -1 -9 -5 -5 -4 -6
-9 -9 1 -8 -5 -4 -4 -7
-9 -6 1 -7 -3 -3 -2 -6
-7 -7 2 -10 -5 -4 -3 -7
-8 -10 4 -10 -5 -5 -2 -7
-8 -6 3 -10 -5 -3 0 -6
-5 -7 -1 -12 -6 -5 -1 -6
-2 -3 2 -10 -4 -3 1 -3
-5 -3 1 -11 -5 -5 -1 -3
-7 -7 -1 -13 -7 -8 -5 -6
-13 -8 3 -9 -4 -4 -3 -5
-14 -8 3 -10 -5 -5 -4 -6
-12 -9 1 -12 -6 -8 -7 -8
-8 -7 3 -11 -6 -6 -5 -8
-10 -10 3 -10 -4 -6 -4 -7
-5 -12 1 -8 -4 -8 -6 -6
-3 -15 3 -4 -2 -7 -6 -6
-7 -20 7 0 1 -7 -9 -10
-10 -19 13 9 5 -8 -13 -14
-12 -14 21 19 12 -5 -13 -17
-14 -9 27 30 23 3 -9 -15
-10 -5 29 40 37 16 -1 -9
-5 -4 27 48 52 30 11 -2
0 1 31 63 72 51 26 11
-2 1 40 88 97 75 45 25
11 12 61 135 141 110 69 44
29 34 95 195 195 156 101 70
35 51 127 252 250 201 134 96
39 67 146 288 291 242 166 120
47 84 135 274 301 265 188 139
53 96 114 231 291 273 202 154
59 108 85 170 254 258 203 162
60 117 53 95 190 217 186 157
44 118 20 16 119 164 163 146
34 120 -16 -56 45 105 128 127
26 115 -64 -121 -29 40 88 98
10 86 -108 -176 -93 -17 46 67
-8 54 -139 -229 -155 -71 6 36
-28 23 -157 -264 -201 -111 -25 13
-29 2 -171 -280 -221 -131 -42 -3
-17 -8 -181 -278 -224 -139 -53 -14
-17 -24 -176 -260 -217 -141 -59 -22
-11 -33 -165 -237 -202 -139 -65 -31
-8 -40 -154 -211 -181 -130 -67 -37
-3 -38 -132 -181 -159 -116 -65 -38
-2 -31 -107 -150 -132 -99 -56 -34
-2 -28 -89 -126 -113 -87 -51 -32
-6 -27 -75 -110 -97 -75 -44 -30
-5 -20 -63 -93 -85 -67 -40 -28
-8 -20 -50 -78 -73 -60 -37 -28
-12 -21 -37 -64 -60 -50 -32 -26
-17 -20 -28 -51 -47 -40 -26 -21
-16 -20 -18 -39 -37 -34 -22 -19
-10 -17 -10 -32 -28 -26 -17 -15
-13 -18 -7 -27 -24 -21 -14 -11
-9 -15 -5 -24 -21 -19 -11 -9
-5 -12 -5 -23 -19 -19 -13 -11
-5 -11 -6 -23 -18 -19 -13 -11
-5 -10 -5 -20 -18 -19 -12 -8
-11 -14 -5 -20 -18 -20 -15 -11
-10 -13 -3 -19 -16 -18 -14 -13
-10 -13 -2 -17 -14 -17 -12 -11
-10 -15 -2 -15 -15 -17 -12 -11
-8 -13 3 -13 -10 -14 -11 -10
-8 -10 5 -11 -8 -10 -8 -8
-4 -11 3 -12 -10 -12 -8 -9
-3 -9 3 -12 -10 -13 -9 -11
-12 -9 4 -11 -8 -11 -8 -9
-10 -9 1 -14 -13 -15 -11 -11
-11 -8 0 -12 -11 -15 -10 -11
-10 -11 2 -10 -9 -14 -10 -10
-8 -9 5 -8 -7 -12 -9 -7
-12 -14 4 -8 -9 -14 -9 -9
-6 -13 6 -7 -6 -12 -10 -10
-5 -9 8 -7 -5 -9 -7 -8
-2 -11 8 -5 -3 -7 -4 -5
0 -7 8 -5 -3 -7 -4 -4
-4 -8 5 -8 -6 -10 -7 -7
-8 -9 5 -7 -7 -10 -7 -7
-8 -4 5 -6 -5 -11 -8 -8
-5 -5 4 -6 -6 -12 -9 -10
-9 -8 6 -5 -5 -11 -8 -10
-8 -9 8 -2 -3 -9 -6 -7
-9 -13 9 -1 -1 -8 -7 -7
-4 -9 11 -1 0 -6 -5 -5
-2 -5 12 0 1 -6 -4 -3
-4 -10 10 0 -1 -7 -6 -6
-5 -12 9 0 0 -7 -5 -7
-10 -14 7 -2 -3 -9 -6 -7
-12 -13 6 -1 -3 -11 -7 -9
-6 -7 9 2 0 -7 -5 -7
-6 -6 10 2 1 -8 -7 -8
-6 -9 15 8 4 -5 -4 -6
-5 -12 14 8 5 -4 -5 -7
-3 -11 12 7 4 -4 -5 -7
-3 -7 14 9 7 -3 -2 -4
-4 -8 11 9 6 -3 -2 -5
0 -10 8 6 4 -6 -6 -8
-1 -12 8 8 3 -7 -7 -8
-11 -13 12 12 8 -5 -4 -4
-8 -12 11 12 6 -5 -5 -5
-6 -14 11 12 7 -6 -7 -6
-2 -13 14 17 9 -4 -5 -6
1 -10 16 18 10 -3 -6 -6
2 -8 16 20 12 1 -4 -5
0 -10 16 22 15 1 -2 -4
2 -9 17 23 15 1 -2 -4
2 -13 12 21 14 -1 -5 -7
-1 -12 12 24 15 0 -4 -6
-4 -11 15 28 19 1 -2 -5
-2 -12 14 29 21 3 -3 -5
-1 -12 15 31 22 5 -2 -6
-2 -14 18 37 25 5 -2 -4
5 -9 20 40 28 7 -1 -3
12 -6 20 42 30 10 2 -1
9 -10 22 48 35 12 5 2
10 -10 21 50 37 14 5 3
8 -11 18 49 38 15 4 1
11 -11 15 50 36 12 2 -2
13 -12 16 53 37 10 1 -3
5 -16 17 55 38 9 -1 -4
5 -20 18 58 41 12 0 -3
10 -19 19 63 45 14 1 -2
10 -16 22 66 50 20 5 0
20 -7 24 68 54 25 10 4
26 -4 21 68 53 24 10 5
16 -10 19 67 51 22 10 5
16 -11 17 65 51 22 9 5
18 -9 16 65 48 19 9 4
21 -6 16 66 51 21 12 6
20 -5 17 66 51 21 11 7
12 -14 17 65 49 20 11 7
12 -13 19 66 50 20 10 8
14 -12 19 63 51 21 9 7
15 -10 19 62 51 23 11 8
16 -6 20 62 50 24 15 10
21 -2 17 59 49 23 12 10
28 -2 14 55 45 19 10 7
23 1 13 52 41 16 8 6
13 -1 13 51 39 15 8 6
9 -1 13 48 37 13 5 4
10 -4 11 44 32 10 4 0
9 -5 9 42 30 10 1 1
12 2 13 42 33 13 6 6
11 -2 12 38 30 12 6 7
13 0 14 38 30 14 9 10
14 6 13 36 29 13 9 10
11 4 10 31 23 8 7 8
10 6 11 30 21 8 7 9
8 5 12 29 21 7 6 7
5 -1 12 26 18 5 3 5
5 1 11 22 15 3 0 1
-2 1 12 21 14 3 -2 0
-3 1 12 19 14 4 0 1
3 5 12 18 13 5 1 4
2 5 12 18 13 6 2 4
4 6 10 15 9 4 1 4
-1 8 11 13 8 1 2 4
-5 7 9 11 7 0 1 3
-2 7 7 10 4 -2 0 0
-6 5 8 9 4 -3 -2 0
-7 6 9 8 3 -2 -1 0
-9 0 7 6 0 -4 -6 -3
-8 -1 9 5 1 -5 -6 -3
-5 3 9 4 2 -3 -3 -1
-1 5 8 4 2 -3 -2 0
-6 0 8 5 3 -1 0 2
-11 0 7 3 1 -3 -1 1
-8 1 3 -2 -4 -7 -3 -2
-6 1 3 -1 -4 -8 -4 -3
-5 4 5 0 -3 -6 -4 -1
-7 2 4 -2 -4 -8 -6 -4
-8 3 7 1 -3 -6 -5 -2
-6 3 6 -2 -4 -7 -7 -3
-5 -1 4 -5 -6 -8 -8 -4
-4 -2 3 -4 -5 -8 -5 -3
-9 -5 2 -5 -6 -7 -6 -4
-7 1 1 -7 -6 -7 -7 -6
-9 -1 1 -5 -6 -7 -6 -5
-14 -6 -1 -6 -9 -10 -9 -9
-11 -2 2 -6 -8 -9 -8 -8
-2 1 1 -7 -10 -12 -10 -11
-5 2 2 -6 -9 -11 -9 -9
-5 5 5 -4 -6 -8 -7 -4
-3 5 4 -6 -8 -8 -7 -4
-2 5 2 -7 -9 -10 -7 -4
-8 2 1 -8 -11 -10 -8 -5
-9 -2 0 -10 -12 -12 -9 -4
-6 -3 -4 -13 -15 -14 -11 -7
-9 -5 -4 -12 -15 -15 -12 -8
-12 -5 -3 -12 -13 -13 -12 -8
-13 -5 -2 -11 -13 -14 -12 -8
-10 -7 -2 -10 -12 -14 -13 -9
-8 -3 2 -9 -9 -11 -9 -6
-8 1 4 -7 -8 -8 -6 -5
-7 1 3 -7 -8 -9 -7 -5
-3 3 2 -9 -10 -12 -8 -5
-5 -1 0 -12 -12 -14 -12 -8
-8 -6 -1 -11 -12 -14 -11 -9
-13 -5 1 -8 -12 -15 -10 -7
-10 -4 -4 -13 -16 -18 -13 -10
-8 -4 -3 -12 -15 -17 -14 -12
-8 -4 -4 -12 -14 -16 -14 -11
-7 -2 -1 -10 -10 -12 -11 -10
-5 1 1 -7 -6 -7 -6 -4
-7 0 0 -6 -6 -6 -3 -2
-3 3 0 -6 -7 -7 -4 -3
3 5 0 -7 -7 -7 -5 -3
-2 4 0 -6 -8 -7 -5 -2
-6 4 -1 -7 -9 -9 -6 -4
-6 2 -3 -9 -8 -10 -9 -6
-9 -1 -2 -8 -8 -10 -8 -6
-8 -1 0 -5 -6 -9 -6 -4
-5 2 3 -3 -3 -5 -4 -3
-3 6 2 -3 -2 -4 -2 -2
1 5 2 -2 -3 -3 -1 -1
0 6 0 -4 -4 -5 -3 -3
1 9 -1 -5 -4 -5 -2 -3
3 11 0 -3 -3 -3 0 -1
0 9 0 -4 -5 -6 -1 -1
-6 7 0 -3 -4 -5 -3 -1
-4 5 -2 -5 -6 -5 -3 -3
-5 4 -1 -3 -4 -4 -4 -4
-5 4 2 -2 -2 -2 -3 -1
-3 5 3 -1 0 0 1 0
-1 8 1 1 1 2 3 2
3 12 2 1 1 1 2 2
-3 13 4 3 5 5 5 4
-2 19 8 7 6 7 9 7
-2 19 8 7 6 4 6 6
-4 20 8 6 6 4 5 4
-7 16 8 5 4 5 6 4
-5 16 11 9 7 6 8 5
3 20 14 9 11 10 12 9
1 19 14 9 11 12 11 9
-2 17 12 11 10 11 11 9
1 18 13 11 10 10 9 10
1 19 11 9 10 10 9 8
2 19 9 8 7 8 8 5
-1 21 10 7 6 5 7 5
-6 22 9 6 6 5 6 3
3 30 11 7 6 6 7 5
4 32 14 9 8 8 10 9
3 31 14 10 11 11 11 12
4 28 13 10 10 12 12 11
2 26 12 10 10 11 13 12
3 27 12 11 12 12 14 12
7 24 9 8 10 11 13 12
8 22 4 5 5 7 10 8
9 23 4 5 6 6 9 7
7 23 3 4 5 5 8 6
4 25 6 7 7 9 11 8
3 27 7 8 7 8 12 8
4 27 5 6 8 9 11 9
15 28 2 6 8 10 12 11
18 28 4 9 10 14 15 13
15 26 5 11 13 16 17 15
10 23 3 9 12 14 14 12
5 22 3 10 11 12 14 12
6 21 2 8 8 9 10 9
7 16 0 5 6 6 6 5
7 7 -7 -1 -1 1 3 1
3 12 -4 1 0 1 6 4
0 18 2 5 5 6 9 8
1 19 3 6 5 7 11 10
5 17 0 2 1 3 6 5
3 13 2 4 2 4 6 4
6 10 -1 1 1 2 4 1
4 4 -1 1 -1 0 1 -3
-5 -3 -2 -1 -4 -4 -4 -6
-6 -5 -1 -4 -6 -7 -6 -7
-8 -7 -2 -3 -6 -7 -4 -7
-4 -4 -3 -2 -6 -6 -3 -7
0 -1 0 -2 -4 -5 -2 -7
-3 -4 0 -3 -6 -6 -4 -6
0 -2 -1 -4 -7 -6 -2 -4
4 0 -3 -4 -7 -7 -3 -5
2 0 -5 -7 -9 -8 -5 -7
-2 -3 -5 -7 -9 -8 -4 -7
-7 -7 -6 -8 -10 -10 -8 -10
-8 -8 -7 -9 -11 -11 -8 -11
-3 -8 -7 -10 -12 -11 -8 -12
-5 -12 -4 -8 -12 -12 -10 -14
-3 -8 -3 -8 -11 -12 -10 -11
-3 -7 -3 -5 -9 -9 -7 -8
0 -4 -3 -7 -9 -8 -4 -7
3 -2 -3 -6 -9 -6 -2 -5
3 0 -6 -8 -11 -8 -3 -7
0 -3 -9 -10 -13 -11 -5 -9
-4 -2 -8 -9 -13 -13 -6 -10
-7 -7 -9 -10 -14 -14 -10 -13
-7 -10 -7 -9 -12 -12 -8 -13
-8 -12 -6 -7 -10 -11 -9 -12
-10 -17 -4 -4 -7 -10 -8 -10
-2 -19 -1 -1 -5 -8 -7 -10
2 -19 4 5 -1 -8 -7 -11
-3 -22 11 15 5 -7 -9 -13
-5 -19 17 24 11 -4 -9 -15
-10 -13 23 35 21 3 -6 -13
-6 -7 24 43 31 12 0 -9
-9 -4 23 53 45 26 10 -2
-8 -2 24 66 63 43 22 6
4 1 33 91 90 65 38 17
13 6 55 137 132 100 60 34
21 20 90 198 189 147 93 60
36 44 127 261 246 195 130 90
48 63 145 294 287 235 159 113
56 82 136 283 299 260 182 134
65 100 113 239 287 266 195 150
63 108 78 173 249 250 196 155
57 116 44 99 190 211 183 152
44 116 7 17 114 158 158 137
34 109 -33 -57 39 98 123 116
19 93 -77 -119 -31 41 88 93
9 69 -119 -176 -98 -18 47 63
-2 42 -147 -226 -158 -71 9 34
-14 21 -164 -260 -202 -109 -21 11
-16 0 -176 -275 -223 -129 -39 -3
-4 -17 -190 -275 -229 -140 -52 -16
-3 -31 -189 -258 -222 -145 -60 -26
-10 -41 -176 -232 -206 -141 -66 -35
-5 -44 -159 -206 -185 -133 -69 -41
-7 -46 -137 -176 -162 -120 -65 -42
-4 -40 -111 -146 -137 -103 -56 -40
3 -31 -95 -125 -117 -90 -51 -37
-2 -28 -78 -104 -98 -77 -44 -32
-1 -24 -64 -85 -83 -64 -37 -27
-3 -27 -52 -70 -69 -57 -33 -25
-9 -29 -41 -58 -60 -52 -31 -25
-11 -25 -32 -48 -53 -46 -27 -24
-17 -23 -25 -39 -45 -42 -24 -24
-14 -19 -18 -31 -36 -35 -20 -22
-9 -15 -16 -27 -33 -31 -20 -21
-9 -14 -12 -22 -27 -27 -16 -17
-6 -14 -11 -20 -24 -22 -12 -14
-6 -18 -9 -19 -22 -20 -10 -12
-3 -17 -7 -16 -20 -20 -9 -11
-4 -15 -9 -15 -19 -22 -12 -13
-10 -20 -9 -16 -21 -24 -14 -15
-14 -22 -7 -14 -19 -23 -13 -15
-10 -22 -6 -13 -19 -23 -13 -16
-11 -18 -3 -11 -17 -20 -14 -15
-11 -16 -1 -7 -14 -17 -10 -11
-8 -15 1 -7 -14 -16 -9 -11
-9 -17 -2 -9 -15 -17 -10 -13
-5 -14 0 -8 -13 -14 -6 -9
-1 -8 1 -5 -11 -13 -3 -6
-3 -6 0 -5 -11 -14 -4 -6
-7 -12 -4 -8 -15 -18 -9 -11
-8 -12 -6 -9 -16 -18 -12 -13
-7 -10 -4 -8 -14 -18 -12 -14
-10 -11 0 -6 -12 -15 -9 -13
-10 -12 2 -3 -10 -14 -8 -11
-9 -13 4 -1 -8 -11 -5 -8
1 -14 0 -4 -11 -14 -6 -10
-3 -12 3 -2 -7 -11 -3 -6
-7 -6 5 1 -5 -9 -2 -5
-4 -11 2 -1 -8 -11 -4 -8
-2 -12 -1 -3 -12 -16 -8 -11
-10 -18 2 -1 -10 -15 -8 -11
-15 -17 5 1 -9 -14 -8 -11
-11 -16 6 2 -9 -13 -7 -11
-10 -16 4 0 -9 -14 -8 -12
-8 -13 8 3 -4 -9 -3 -7
-5 -15 6 4 -4 -11 -3 -7
-3 -15 4 4 -5 -9 -2 -4
-3 -12 6 6 -5 -9 -2 -5
-4 -11 6 5 -4 -10 -4 -6
-2 -11 3 4 -5 -12 -7 -9
-8 -12 5 6 -4 -12 -7 -10
-12 -17 5 7 -4 -12 -7 -11
-8 -14 6 7 -2 -11 -7 -10
-8 -12 8 8 -3 -10 -5 -10
-10 -15 10 9 -2 -8 -4 -9
-5 -12 8 10 0 -6 -2 -7
-2 -10 8 11 3 -4 -1 -5
0 -8 8 15 2 -5 1 -5
4 -11 6 13 0 -7 -2 -6
-3 -15 6 14 1 -8 -3 -6
-10 -18 8 16 2 -6 -4 -7
-5 -17 10 18 3 -6 -5 -8
-5 -15 13 22 8 -2 -2 -7
-11 -17 14 21 8 -1 -2 -7
-6 -17 12 21 8 -3 -3 -9
2 -9 15 25 12 1 1 -5
3 -8 15 26 14 2 2 -4
7 -7 12 27 10 -1 1 -6
8 -7 13 29 13 0 1 -7
1 -11 15 33 15 0 0 -7
-1 -13 14 34 16 1 -2 -9
2 -11 14 36 16 0 -3 -9
5 -11 15 39 20 1 -2 -9
8 -12 18 43 25 6 2 -6
15 -14 16 42 25 5 -2 -9
9 -13 18 46 29 7 2 -5
10 -12 20 50 33 10 5 -2
8 -14 20 55 36 13 6 0
7 -16 19 57 38 11 6 0
7 -15 17 58 38 11 5 -1
6 -19 16 58 38 11 4 -3
14 -13 18 61 40 14 5 -3
13 -12 17 61 42 14 5 -4
12 -15 16 61 42 15 6 -5
15 -10 19 66 47 19 12 1
18 -12 19 65 47 19 11 3
21 -11 19 64 47 20 12 3
21 -8 19 67 48 21 14 4
18 -9 15 66 46 18 11 3
16 -9 14 64 44 17 10 2
14 -8 16 63 44 18 11 3
14 -10 16 63 43 17 10 2
17 -8 17 62 44 17 10 0
17 -6 16 60 43 18 12 3
19 -2 17 60 43 19 14 5
20 2 16 59 43 20 15 7
22 3 13 55 39 18 14 7
22 5 12 53 36 17 14 7
16 -1 10 49 34 14 12 6
16 -4 8 45 29 10 10 2
16 -4 7 41 26 6 7 -1
13 -2 10 42 25 7 6 1
16 2 13 42 27 9 9 3
10 0 13 40 26 11 9 3
9 1 13 39 26 12 10 3
17 6 13 37 24 13 12 5
20 10 11 32 21 12 14 7
8 4 11 30 20 12 13 8
0 3 12 29 19 12 14 10
-1 4 10 26 16 8 12 8
3 4 8 21 11 5 8 4
0 4 10 21 10 4 7 2
-1 2 8 17 8 2 6 -1
-2 2 9 17 9 6 8 2
2 4 9 16 9 6 10 4
0 5 10 17 9 7 11 6
5 10 12 16 11 9 13 9
8 7 9 13 8 5 9 6
3 3 10 11 7 3 7 5
-1 1 8 8 4 0 4 2
-7 2 4 5 1 -1 2 -1
-5 2 5 4 -2 -4 1 -3
-8 1 4 2 -3 -4 -1 -5
-10 1 4 2 -3 -3 0 -3
-10 -3 5 0 -2 -3 2 -3
-7 -1 4 2 -1 -1 4 -1
0 4 4 1 -1 0 5 0
-2 2 5 1 -2 -2 4 2
-1 2 4 -1 -4 -5 3 1
-1 2 4 -1 -5 -5 2 0
-7 -1 1 -3 -7 -7 -1 -4
-8 -2 2 -3 -7 -7 -1 -3
-4 1 1 -6 -7 -7 -2 -6
-6 -1 0 -7 -9 -8 -4 -8
-7 -3 0 -8 -9 -7 -2 -7
-9 -4 1 -6 -8 -4 1 -5
-6 2 3 -5 -5 -2 4 -1
-2 4 1 -4 -5 -2 4 -1
-4 2 0 -6 -7 -5 1 -2
-7 0 -1 -8 -10 -8 -1 -5
-5 0 -1 -9 -11 -10 -3 -7
-12 -3 1 -9 -11 -9 -2 -7
-11 -1 1 -10 -10 -8 -3 -8
-6 -2 -3 -11 -12 -8 -3 -9
-12 -4 1 -8 -9 -6 1 -5
-10 -1 2 -7 -8 -5 3 -3
-9 -1 1 -9 -9 -8 0 -4
-3 -5 -4 -10 -12 -10 -3 -6
-3 -5 -4 -12 -13 -10 -2 -6
-9 -6 -2 -12 -13 -10 -2 -5
-9 -2 -4 -13 -15 -11 -5 -8
-11 -2 -5 -13 -16 -11 -6 -10
-12 -2 -2 -12 -14 -11 -5 -9
-10 -3 1 -9 -12 -8 -3 -6
-10 -6 -1 -9 -10 -7 -2 -6
-8 -3 -2 -11 -12 -10 -2 -7
-7 -2 -3 -11 -12 -10 -3 -8
-9 -5 -1 -10 -11 -10 -2 -6
-6 -4 -2 -12 -12 -11 -3 -6
-9 -5 -3 -12 -14 -12 -3 -7
-11 -2 -4 -12 -14 -12 -3 -8
-10 1 -2 -11 -13 -10 -4 -10
-11 0 -1 -9 -12 -9 -4 -9
-10 1 -1 -9 -12 -8 -4 -8
-6 3 0 -8 -9 -7 -2 -6
-8 1 1 -8 -8 -5 3 -2
-6 4 2 -6 -5 -2 5 1
-5 4 1 -6 -5 -2 4 1
-11 1 0 -8 -6 -4 1 -2
-10 2 -3 -8 -9 -6 0 -2
-13 -1 -5 -11 -11 -9 -1 -5
-12 -1 -2 -7 -8 -5 0 -5
-7 5 1 -4 -4 -1 3 -3
-8 3 0 -6 -5 -3 2 -4
-9 2 1 -4 -3 -2 4 -2
-7 4 1 -3 -3 0 3 -1
-4 9 3 -2 0 2 9 2
3 12 1 -3 -1 0 8 2
-3 9 -1 -5 -4 -2 5 -1
-6 6 -1 -4 -4 -2 4 -1
-7 2 -1 -4 -3 -2 4 -2
-10 1 -3 -6 -6 -3 -1 -5
-11 1 -2 -7 -4 -3 0 -5
-13 3 0 -3 -2 1 3 -2
-9 5 3 -1 1 2 6 -1
-2 11 4 0 2 5 8 1
-1 10 4 -1 1 4 10 2
-2 12 6 4 3 7 11 5
-1 15 9 4 6 8 13 5
-5 15 10 4 5 8 12 5
-10 16 9 4 5 8 12 5
-14 13 8 3 6 8 11 2
-16 9 9 3 5 7 10 3
-12 15 12 5 6 9 13 6
-6 16 13 6 9 11 15 8
-3 16 16 8 12 15 17 10
-5 17 16 7 11 14 16 11
-4 20 16 8 10 14 16 10
0 23 15 8 11 13 15 9
-3 21 13 7 9 13 14 7
-4 20 11 7 8 11 14 7
-5 22 10 7 9 11 15 8
-8 19 9 4 6 11 13 7
-7 19 10 4 8 11 14 6
-5 18 11 3 9 11 13 7
-1 20 10 3 8 11 12 7
2 25 12 5 11 15 16 12
1 24 10 5 11 15 17 12
5 23 7 4 9 13 15 11
5 22 5 3 7 10 14 7
-2 20 5 3 6 9 13 8
-5 22 6 4 8 10 14 9
-7 18 3 0 6 10 11 7
-4 13 -1 -4 3 7 8 3
6 21 1 0 7 12 12 8
0 18 4 3 10 14 16 11
2 19 6 6 13 18 19 14
8 22 7 9 15 19 22 17
5 18 4 6 12 17 18 14
6 17 4 4 10 13 17 11
7 12 -1 -1 4 7 11 6
-2 8 -3 -3 1 4 8 4
-9 8 -2 -4 0 6 8 3
-11 5 -1 -6 0 5 8 3
-5 7 1 -3 3 9 10 6
-5 7 2 -1 4 11 11 7
-7 2 2 -3 4 9 9 6
-7 0 3 -3 2 6 7 4
-5 -1 0 -6 -1 1 2 0
-9 -3 1 -5 -2 0 0 -2
-10 0 0 -6 -4 -1 -2 -4
-11 0 -4 -10 -6 -4 -5 -6
-12 -4 -4 -11 -7 -4 -4 -6
-12 -5 -2 -12 -7 -3 -3 -7
-10 -5 -4 -13 -8 -3 -6 -8
-12 -7 -3 -13 -8 -3 -4 -6
-10 -9 -4 -14 -9 -3 -4 -7
-4 -12 -6 -15 -12 -6 -5 -8
-2 -7 -4 -14 -10 -6 -4 -7
-11 -11 -2 -11 -8 -3 -4 -6
-12 -13 -5 -15 -11 -7 -8 -10
-11 -12 -6 -16 -11 -5 -8 -11
-17 -11 -4 -14 -9 -2 -6 -10
-13 -10 -5 -15 -10 -4 -7 -11
-8 -8 -5 -15 -9 -3 -5 -9
-12 -12 -4 -15 -9 -2 -3 -7
-12 -8 -3 -13 -7 -1 -2 -6
-8 -10 -3 -14 -8 -3 -3 -7
-3 -9 -9 -18 -12 -7 -8 -12
-10 -9 -7 -15 -10 -5 -7 -11
-19 -17 -6 -16 -11 -6 -7 -10
-17 -17 -9 -18 -13 -9 -9 -13
-18 -18 -10 -18 -13 -8 -10 -15
-12 -15 -6 -13 -10 -5 -9 -13
-9 -16 -4 -12 -8 -6 -10 -15
-9 -20 -1 -6 -6 -8 -13 -17
-12 -18 10 7 3 -3 -10 -16
-14 -15 16 17 10 -2 -11 -17
-18 -18 20 25 19 2 -9 -16
-15 -15 21 35 31 15 -2 -12
-9 -10 19 44 46 30 8 -5
-10 -9 22 58 64 49 21 5
-2 -5 31 85 92 72 37 16
7 6 54 131 134 107 60 34
24 28 90 193 190 153 94 60
35 50 123 254 247 201 127 87
44 64 140 287 288 240 157 110
55 81 131 276 302 265 183 134
59 97 109 234 286 269 196 150
57 104 78 169 247 252 194 154
50 107 42 86 178 206 175 146
37 106 3 0 97 147 143 128
26 99 -36 -76 20 84 106 104
7 83 -85 -142 -54 25 68 78
2 62 -126 -195 -116 -33 28 48
-5 45 -150 -242 -171 -80 -5 22
-19 20 -163 -270 -207 -113 -30 5
-20 3 -176 -280 -222 -127 -43 -7
-11 -13 -185 -276 -223 -132 -53 -18
-10 -30 -185 -261 -219 -138 -63 -30
-17 -44 -173 -235 -203 -134 -69 -40
-15 -49 -157 -210 -183 -125 -72 -45
-13 -50 -136 -181 -159 -114 -69 -46
-14 -41 -112 -152 -134 -96 -60 -43
-10 -35 -94 -128 -114 -82 -54 -39
-9 -34 -80 -112 -99 -71 -48 -37
-9 -28 -66 -94 -83 -60 -41 -33
-9 -23 -51 -74 -67 -50 -34 -28
-7 -20 -39 -60 -55 -42 -32 -26
-7 -21 -34 -53 -48 -37 -31 -26
-11 -18 -24 -42 -40 -33 -25 -23
-16 -19 -21 -38 -35 -30 -25 -24
-18 -24 -18 -34 -31 -26 -22 -23
-13 -21 -16 -31 -28 -24 -20 -20
-16 -19 -10 -24 -22 -17 -13 -16
-17 -18 -8 -23 -20 -14 -12 -14
-8 -15 -9 -22 -20 -16 -13 -15
-8 -16 -8 -19 -19 -15 -13 -14
-10 -16 -4 -16 -15 -12 -12 -13
-13 -12 -6 -17 -17 -14 -14 -14
-16 -14 -6 -17 -18 -15 -16 -16
-16 -15 -5 -17 -17 -15 -16 -17
-6 -12 -5 -17 -17 -14 -14 -16
-6 -12 -6 -18 -18 -15 -15 -17
-9 -15 -3 -16 -15 -12 -12 -14
-13 -17 -2 -15 -13 -11 -10 -11
-10 -15 -2 -13 -13 -12 -9 -10
-10 -12 -2 -12 -12 -11 -8 -10
-11 -13 -1 -11 -10 -10 -10 -11
-10 -14 -1 -11 -11 -10 -12 -13
-9 -11 -1 -10 -12 -12 -13 -15
-13 -13 -2 -12 -12 -10 -13 -16
-16 -11 1 -9 -10 -7 -9 -12
-10 -10 -2 -10 -12 -11 -11 -14
-10 -12 0 -10 -10 -11 -10 -13
-8 -10 2 -8 -8 -9 -8 -11
-9 -14 1 -8 -9 -11 -9 -11
-7 -12 1 -6 -7 -9 -10 -11
-9 -16 2 -5 -7 -9 -9 -11
-16 -20 2 -6 -9 -11 -13 -14
-18 -21 2 -5 -9 -12 -14 -16
-19 -17 3 -3 -5 -8 -12 -14
-15 -16 5 -2 -4 -7 -8 -11
-11 -13 4 -1 -3 -6 -7 -11
-9 -14 2 -3 -5 -9 -10 -13
-8 -13 4 -2 -3 -6 -7 -10
-8 -13 4 -1 -4 -6 -4 -9
-11 -15 3 -2 -5 -9 -7 -11
-8 -11 6 1 -2 -8 -7 -11
-9 -11 6 2 -3 -8 -10 -12
-13 -17 6 3 -3 -9 -11 -14
-13 -17 5 3 -2 -7 -11 -14
-13 -20 7 4 -2 -7 -8 -12
-11 -16 7 6 -1 -4 -7 -10
-8 -13 6 6 1 -3 -8 -11
-4 -10 4 5 0 -5 -8 -14
-4 -9 8 11 5 1 -4 -8
-2 -9 8 13 7 3 -4 -8
-2 -9 9 13 7 2 -5 -9
-4 -11 8 14 7 1 -5 -9
-3 -11 8 14 8 1 -5 -10
-10 -14 9 16 9 2 -6 -11
-11 -17 9 15 8 1 -8 -13
-7 -15 10 17 9 0 -7 -12
0 -7 13 20 12 3 -4 -9
0 -10 13 20 13 3 -4 -8
3 -12 11 22 13 3 -3 -7
6 -11 12 26 17 4 -3 -7
6 -6 13 27 17 6 -5 -9
1 -5 14 31 20 7 -3 -8
-3 -10 14 33 21 7 -3 -7
-4 -19 13 33 23 7 -5 -10
1 -19 13 36 25 8 -4 -9
3 -17 12 38 27 9 -4 -9
7 -13 15 42 30 11 -1 -6
11 -12 16 45 33 13 1 -4
14 -15 14 47 33 12 0 -4
11 -16 16 52 36 13 1 -3
12 -12 16 53 38 14 0 -4
12 -10 15 54 38 15 -1 -5
14 -12 14 55 38 14 0 -5
11 -14 17 58 42 17 2 -4
11 -13 16 58 44 19 4 -2
11 -13 14 57 41 18 2 -4
15 -14 16 60 44 19 4 -1
17 -15 16 61 45 20 6 2
22 -9 14 61 45 21 7 2
24 -6 16 63 46 23 8 4
24 -6 15 63 46 23 9 6
19 -8 13 61 44 21 6 4
18 -8 12 59 42 20 5 2
20 -5 14 57 41 19 3 1
20 -4 12 54 38 18 4 0
14 -7 13 53 37 16 5 1
13 -5 15 54 39 18 7 3
20 -7 12 49 35 15 5 2
30 -1 12 49 34 16 6 4
21 -1 13 50 36 18 9 7
17 -1 12 48 34 18 8 7
14 1 10 45 31 16 7 6
12 1 11 43 29 15 7 5
14 8 13 41 29 15 7 6
13 9 12 37 26 15 7 6
9 5 12 35 25 14 8 6
13 6 11 32 23 14 8 6
10 1 13 32 22 14 8 8
10 5 11 29 20 12 7 7
11 7 10 28 19 11 6 6
14 3 7 24 15 8 3 3
3 1 10 24 15 9 4 4
2 0 8 21 12 7 1 0
1 3 7 17 10 5 0 0
5 10 10 16 10 7 3 2
4 7 12 17 11 9 5 4
0 4 10 16 11 10 5 5
-5 -1 7 10 7 5 1 1
-1 3 8 11 7 6 2 2
7 12 11 14 9 8 5 5
3 6 7 9 4 4 1 1
-3 3 6 7 2 2 -2 0
-5 4 6 6 2 1 -1 -1
-9 2 7 4 2 0 -2 -1
-5 4 8 5 3 2 0 0
-2 4 7 3 1 2 -1 1
-1 2 7 2 -1 1 -1 1
-3 3 8 2 1 3 0 2
-5 3 6 0 -1 1 0 1
-4 5 7 2 0 1 -1 1
-6 2 7 0 -1 0 -2 0
-13 -3 5 -3 -4 -3 -4 -1
-5 -4 0 -8 -9 -7 -9 -7
-12 -7 0 -9 -8 -5 -9 -7
-16 -9 -2 -10 -10 -7 -10 -8
-17 -8 -2 -11 -11 -9 -10 -8
-14 -5 0 -9 -9 -8 -9 -6
-9 -3 -2 -10 -9 -7 -7 -4
-2 2 0 -9 -8 -7 -6 -2
-1 2 0 -10 -9 -7 -6 -3
-5 -3 -1 -9 -9 -8 -8 -5
-13 -8 0 -10 -10 -9 -10 -6
-15 -9 -1 -11 -12 -12 -13 -11
-21 -12 -3 -13 -15 -14 -15 -12
-21 -8 -4 -14 -16 -14 -14 -12
-21 -8 -3 -14 -15 -12 -11 -8
-16 -7 -2 -14 -14 -12 -12 -8
-9 -5 -2 -12 -14 -11 -11 -7
-2 -2 1 -9 -10 -8 -8 -3
-1 -2 2 -9 -9 -8 -8 -3
-1 0 3 -8 -9 -8 -8 -3
-6 2 3 -7 -9 -8 -9 -2
-9 0 1 -8 -10 -10 -10 -4
-7 -1 0 -10 -13 -11 -12 -7
-9 0 -1 -11 -13 -10 -13 -8
-12 -3 -2 -12 -13 -12 -12 -8
-9 -2 -1 -10 -10 -10 -10 -5
-7 0 2 -7 -6 -5 -7 -2
1 4 3 -5 -4 -3 -5 0
8 8 4 -3 -3 -4 -5 0
2 5 6 -3 -3 -2 -5 2
3 4 5 -3 -3 -2 -5 1
5 7 2 -4 -4 -5 -7 -2
12 8 1 -5 -5 -7 -8 -4
3 8 3 -4 -3 -5 -7 -2
-6 4 2 -3 -4 -6 -8 -3
-1 8 2 -3 -4 -6 -7 -2
8 9 5 -1 0 -1 -4 2
12 13 4 0 0 -1 -3 4
13 16 7 4 3 1 1 6
17 18 8 4 4 2 -1 5
13 16 7 2 3 -1 -2 3
11 15 6 3 3 -1 -2 3
8 13 5 3 4 0 -2 2
4 15 5 1 3 0 -3 1
3 13 3 1 1 -1 -3 0
8 12 4 2 2 -1 -2 1
12 11 4 2 2 0 -1 3
13 15 4 3 4 2 2 5
11 14 6 6 6 4 4 7
12 12 7 6 7 5 4 7
13 13 5 5 6 4 2 6
15 17 6 7 6 3 2 5
14 16 3 3 4 0 -1 3
6 14 3 2 3 1 0 3
6 15 4 2 3 1 -1 3
10 15 3 2 3 0 0 4
4 12 5 4 5 2 2 7
11 14 7 7 8 3 4 9
16 23 6 7 7 2 3 8
13 21 10 9 10 4 5 9
9 17 12 10 10 6 5 9
3 16 12 12 11 6 6 9
2 20 15 13 13 7 5 10
6 27 13 11 11 5 3 8
4 27 13 11 11 5 6 9
9 27 14 14 13 7 6 11
13 30 17 14 15 11 8 11
15 32 19 17 18 13 11 15
16 31 20 18 18 13 11 16
17 28 18 15 15 11 11 12
12 26 19 15 15 11 9 11
9 27 18 16 15 9 8 10
11 29 19 15 16 9 7 12
10 31 19 15 16 11 7 11
8 31 14 10 11 7 4 8
10 31 14 11 13 8 6 11
16 35 14 10 13 7 6 10
17 32 14 12 13 8 8 12
22 37 17 16 17 12 10 16
24 37 15 14 17 11 9 16
20 34 13 12 14 9 9 14
16 29 12 13 15 10 8 13
9 25 10 11 13 7 6 11
4 23 11 13 13 8 8 13
4 25 11 11 13 8 8 13
12 27 9 11 13 8 7 14
18 33 7 9 13 9 9 15
24 32 8 12 15 11 10 18
29 33 7 13 17 10 11 18
22 32 9 16 20 14 14 20
18 26 6 12 15 9 10 16
14 23 5 13 13 8 7 15
8 18 3 8 10 4 3 9
3 13 -1 3 4 0 -1 5
1 9 -1 2 3 -1 -4 3
0 5 1 2 3 -2 -3 4
1 7 3 2 4 -1 0 6
9 13 4 5 6 1 2 8
8 12 6 8 9 3 3 8
8 10 8 8 9 2 2 8
5 12 6 6 6 -2 -2 4
-2 8 5 5 4 -5 -6 1
-3 3 3 1 1 -7 -8 -2
-3 0 0 -4 -3 -11 -11 -5
-9 -4 -2 -6 -5 -14 -14 -8
-5 -3 -1 -6 -6 -13 -14 -7
-3 -2 -2 -7 -6 -12 -13 -7
5 3 -1 -4 -5 -13 -12 -6
3 0 -1 -4 -5 -13 -12 -5
-2 -2 0 -6 -6 -14 -13 -7
2 3 2 -3 -5 -13 -12 -6
4 3 2 -4 -6 -15 -13 -6
-1 1 -1 -7 -9 -16 -15 -10
-2 0 -4 -8 -10 -18 -16 -10
-10 -7 -3 -7 -9 -16 -15 -8
-4 -4 -3 -7 -8 -16 -15 -10
1 -1 -2 -4 -6 -14 -12 -6
4 -4 -1 -5 -6 -14 -13 -6
1 -6 -1 -3 -5 -13 -11 -5
-1 -6 0 -2 -4 -12 -10 -5
-2 -8 -2 -3 -6 -14 -12 -6
2 -2 0 -2 -5 -13 -11 -6
-4 -2 -1 -5 -6 -14 -13 -8
-6 -6 -4 -7 -7 -16 -16 -11
-5 -7 -5 -6 -8 -16 -16 -11
1 -7 -4 -6 -8 -18 -17 -13
5 -9 -5 -4 -6 -17 -18 -12
1 -13 1 3 -3 -17 -16 -11
0 -16 9 13 2 -15 -16 -13
4 -10 19 24 11 -10 -16 -13
-3 -6 27 35 20 -4 -13 -13
-2 -2 28 44 31 2 -10 -12
-4 1 23 52 44 16 1 -6
0 3 24 63 62 34 12 4
12 12 30 83 84 52 26 14
25 19 45 119 120 81 46 29
36 32 73 174 171 124 76 53
51 50 111 240 230 171 114 84
61 67 139 290 280 215 144 109
74 85 141 298 302 243 168 130
80 97 120 264 296 255 184 145
78 106 95 207 266 246 190 154
73 116 65 131 206 212 177 151
66 120 26 47 132 158 151 138
49 118 -7 -33 54 98 117 115
37 111 -46 -105 -22 36 81 90
25 94 -92 -163 -87 -20 42 65
11 71 -125 -209 -140 -66 10 40
-2 44 -147 -246 -187 -107 -21 15
-9 24 -160 -264 -210 -129 -41 -2
-6 7 -173 -269 -218 -138 -54 -13
-3 -14 -177 -259 -217 -143 -63 -25
-5 -31 -171 -238 -206 -145 -72 -37
-5 -37 -158 -212 -187 -139 -75 -42
-3 -41 -141 -185 -166 -128 -73 -44
10 -36 -120 -157 -143 -114 -67 -42
8 -26 -97 -129 -118 -96 -58 -36
8 -24 -78 -106 -97 -82 -49 -31
6 -22 -66 -88 -84 -74 -45 -29
5 -18 -51 -72 -69 -64 -39 -25
5 -16 -38 -57 -57 -53 -36 -23
3 -14 -29 -44 -47 -47 -32 -21
-4 -16 -24 -37 -43 -43 -32 -20
-5 -16 -19 -32 -34 -39 -29 -18
-4 -13 -15 -25 -28 -31 -24 -17
-1 -13 -12 -23 -26 -29 -22 -16
-6 -13 -13 -21 -25 -28 -21 -14
-3 -6 -7 -14 -17 -23 -17 -9
9 -1 -5 -11 -15 -21 -15 -6
11 -3 -4 -10 -14 -21 -16 -7
3 -6 -3 -9 -12 -19 -16 -9
0 -7 -3 -9 -13 -21 -18 -10
1 -7 -3 -7 -14 -22 -20 -12
-5 -12 -2 -7 -13 -21 -20 -12
-7 -9 0 -7 -12 -19 -18 -11
-3 -7 0 -6 -11 -18 -16 -9
1 -8 0 -7 -12 -19 -17 -9
6 -4 0 -6 -10 -17 -15 -7
6 -3 -1 -6 -10 -18 -14 -6
8 -1 0 -3 -8 -17 -14 -5
6 -4 0 -2 -8 -17 -17 -8
4 -4 0 -4 -9 -18 -19 -10
1 -5 0 -4 -9 -19 -20 -12
-5 -8 3 -2 -8 -17 -17 -9
-6 -7 3 -3 -9 -17 -16 -8
-2 -6 3 -2 -8 -17 -15 -7
-4 -10 1 -3 -8 -16 -15 -8
0 -6 3 -2 -6 -15 -13 -5
7 -7 2 0 -6 -15 -13 -4
4 -8 3 0 -5 -15 -13 -6
1 -8 3 1 -4 -14 -15 -8
-5 -9 5 1 -4 -13 -13 -7
-3 -5 5 3 -4 -13 -11 -7
-3 -6 6 3 -4 -13 -12 -7
-1 -8 4 1 -6 -16 -14 -9
-2 -9 5 4 -4 -14 -12 -6
-1 -7 5 5 -3 -12 -11 -4
-1 -7 7 6 -1 -12 -9 0
2 -8 6 6 -1 -12 -8 -1
-1 -12 8 10 2 -10 -9 -1
3 -8 8 8 1 -12 -12 -6
5 -7 9 8 1 -11 -12 -6
-2 -7 7 9 0 -11 -12 -8
1 -6 10 11 2 -9 -11 -7
-2 -8 6 9 1 -9 -13 -9
0 -8 8 11 2 -8 -10 -6
4 -3 10 14 5 -5 -7 -3
6 -7 11 15 6 -6 -8 -2
10 -4 10 14 5 -7 -9 -3
8 -3 10 16 5 -7 -10 -3
6 -3 10 17 8 -5 -10 -3
3 -5 13 19 9 -6 -11 -5
-1 -8 10 18 5 -9 -14 -10
-3 -8 13 21 11 -3 -11 -8
1 -4 13 23 13 0 -8 -5
4 -5 12 23 11 -1 -9 -5
13 -1 13 26 14 1 -7 -3
16 -4 14 28 19 5 -3 0
16 -6 15 33 21 6 -2 2
13 -3 16 34 21 6 -3 2
8 -7 13 33 19 4 -7 -2
11 -12 11 32 18 2 -11 -7
6 -11 11 35 19 2 -10 -7
6 -10 14 37 23 4 -9 -6
11 -8 16 40 27 8 -6 -4
13 -8 16 44 27 8 -5 -2
13 -9 16 47 29 9 -4 -1
23 -5 17 49 33 10 -4 0
20 -8 17 51 33 10 -4 0
24 -7 17 54 35 12 -3 0
19 -11 13 54 36 12 -6 -3
13 -16 14 56 37 10 -6 -4
13 -10 18 61 43 14 -3 0
17 -10 18 62 46 17 -2 1
18 -14 15 62 44 16 -2 1
25 -8 16 62 46 18 0 4
24 -5 17 66 49 22 4 7
30 -3 17 65 50 22 6 8
33 0 17 66 49 22 6 9
30 -1 18 66 49 22 5 8
27 -4 15 64 47 19 2 6
23 -3 14 63 46 19 2 4
21 -4 14 62 45 17 1 2
25 -4 12 59 42 16 1 1
18 -10 12 58 41 17 2 3
22 -5 15 58 42 20 7 7
30 4 15 59 42 22 8 9
36 4 13 57 41 21 9 12
34 9 15 58 42 25 10 15
34 9 13 54 40 22 7 12
29 3 13 51 37 18 3 7
24 3 13 50 36 17 4 8
14 -1 9 45 32 14 0 5
15 1 9 42 29 13 0 4
17 4 9 39 27 14 1 6
14 -1 8 37 25 13 3 7
14 1 8 33 23 12 3 7
19 8 12 36 26 15 7 12
20 8 12 34 23 14 8 12
24 10 11 32 20 11 5 11
18 7 9 28 18 10 1 7
11 4 11 26 17 9 1 5
6 1 8 21 12 5 -2 2
5 1 8 20 12 5 -1 4
3 4 8 18 10 6 -1 3
0 2 9 17 10 6 0 4
2 3 9 17 10 8 2 7
4 6 9 17 12 11 5 9
2 3 7 14 8 8 3 8
6 8 8 15 9 8 4 8
4 7 8 12 7 6 0 6
0 2 7 10 5 3 -1 4
-1 3 6 7 2 2 -3 3
-3 6 7 9 5 4 -1 5
-2 7 6 6 2 3 -4 2
2 5 6 5 1 3 -3 1
-3 2 4 3 -2 0 -4 2
4 5 7 5 1 3 -2 3
4 6 5 5 2 4 -1 4
1 5 6 4 2 5 -2 2
-3 5 5 3 0 4 -3 2
-2 1 3 1 -1 2 -5 -1
-3 2 2 -1 -4 2 -7 -3
-1 6 1 -2 -4 1 -7 -3
-8 0 1 -3 -5 2 -6 -2
-4 0 2 -2 -3 4 -3 0
2 4 3 -1 -4 2 -4 1
5 6 3 -2 -5 -1 -4 1
2 5 4 -2 -4 1 -3 2
-4 1 4 -2 -5 -1 -5 0
-8 -4 3 -2 -5 -2 -8 -1
-7 -5 2 -6 -8 -5 -9 -3
-9 -2 2 -6 -8 -3 -10 -4
-7 -4 2 -5 -7 -3 -9 -3
-2 -2 -1 -10 -11 -5 -12 -5
-3 -2 -2 -9 -9 -4 -11 -4
-7 -1 -2 -9 -9 -4 -9 -3
-6 -2 -1 -10 -10 -4 -10 -4
-5 -5 -1 -9 -10 -4 -11 -4
-2 -2 0 -7 -9 -3 -9 -1
-5 -2 -1 -9 -11 -6 -14 -4
-10 -3 0 -8 -10 -5 -11 -5
-11 -3 -1 -10 -13 -8 -14 -7
-11 -5 -1 -10 -11 -6 -14 -7
-7 -2 -2 -10 -10 -5 -13 -6
-4 1 -1 -8 -7 -2 -7 -3
-3 2 -1 -7 -7 -1 -6 -1
3 6 2 -7 -6 0 -4 1
6 4 2 -5 -6 0 -3 1
-1 2 4 -3 -4 2 -3 3
-5 0 2 -5 -6 0 -5 1
-8 -1 -1 -7 -7 -2 -8 -3
-11 -1 -4 -7 -8 -5 -11 -5
-13 -2 -5 -9 -9 -5 -10 -5
-7 2 1 -3 -3 1 -4 1
-2 4 -1 -5 -4 0 -4 2
1 3 -2 -5 -4 -1 -4 3
6 5 0 -3 -2 0 -1 4
2 3 0 -1 -3 1 -2 3
-3 2 2 -1 -1 1 -3 4
-6 1 4 1 1 3 -3 3
-7 -3 1 -2 -3 -2 -6 -1
-5 1 1 -2 -3 -2 -5 -2
-1 0 -1 -4 -3 -2 -7 -3
-7 1 -4 -4 -4 -2 -6 -2
-4 2 1 -1 0 2 -1 3
0 3 1 -2 0 2 -2 4
3 6 0 -1 1 2 -1 6
4 9 2 2 3 3 1 7
3 8 2 2 2 3 1 7
4 6 1 1 1 2 -1 6
-1 -1 0 2 1 2 -3 4
-5 -5 0 0 0 -1 -5 2
-6 1 -1 -2 0 0 -4 2
-6 1 -2 -2 0 1 -4 2
-6 1 0 -1 2 3 0 4
-3 1 0 -1 3 4 2 4
2 2 -1 0 3 5 0 4
0 5 1 2 2 3 1 4
3 9 1 3 3 2 4 7
4 11 2 3 3 4 2 5
2 11 5 6 5 6 4 7
-3 12 6 7 6 7 4 6
-5 11 5 7 7 8 4 7
-5 12 8 8 9 11 5 8
1 13 8 6 8 9 4 8
3 13 8 7 8 9 6 10
2 14 9 7 10 10 5 10
0 16 10 9 10 11 7 11
-1 19 11 10 11 12 8 13
-5 17 14 11 11 11 8 13
4 20 12 9 8 10 6 10
1 16 11 8 7 8 3 6
-4 17 12 11 11 12 7 8
-2 21 13 9 10 13 7 8
-2 22 12 8 10 12 7 9
2 19 11 8 10 13 9 12
5 20 11 9 11 12 11 13
3 23 13 9 11 14 12 14
-2 15 11 8 10 12 11 13
-1 15 10 8 9 11 7 12
-1 14 7 7 9 11 6 10
0 16 7 6 7 11 6 9
5 16 6 6 8 11 7 10
0 13 5 4 5 10 7 10
6 18 5 6 8 12 10 11
5 19 5 8 11 15 13 15
6 18 5 7 11 15 14 17
10 18 2 4 8 12 11 16
14 20 0 6 10 13 13 17
8 18 2 8 11 15 14 18
5 16 2 9 12 15 13 17
4 16 1 8 10 13 9 13
5 17 2 9 11 13 11 13
0 10 1 6 7 11 10 12
6 8 0 3 6 9 10 12
14 13 -2 2 5 9 10 10
8 12 0 3 6 10 11 11
5 12 0 3 4 10 10 11
0 10 1 4 6 10 9 11
-5 2 0 3 5 8 7 7
-5 -1 1 3 3 8 4 6
-3 -3 -1 0 -1 3 -1 -1
-1 -2 0 -2 0 2 1 1
-9 -4 -1 -3 -3 2 1 1
-5 -4 -2 -4 -3 1 1 0
1 -1 -2 -4 -3 2 1 1
0 -3 -4 -5 -4 1 2 1
1 -6 -3 -5 -6 1 1 1
4 -4 -2 -4 -4 0 0 1
-3 -7 -4 -7 -9 -4 -5 -4
-9 -13 -3 -7 -9 -4 -4 -3
-10 -15 -6 -10 -12 -6 -7 -6
-11 -14 -8 -11 -11 -5 -8 -7
-9 -14 -8 -12 -12 -5 -8 -9
-10 -15 -6 -9 -8 -2 -5 -5
-7 -14 -6 -10 -9 -4 -6 -6
0 -9 -5 -8 -7 -3 -4 -3
2 -10 -5 -9 -8 -3 -2 -4
-2 -10 -5 -8 -8 -3 -3 -4
-9 -16 -7 -10 -10 -5 -5 -6
-14 -20 -9 -12 -12 -8 -6 -7
-13 -17 -9 -14 -14 -8 -7 -9
-13 -17 -9 -13 -14 -10 -9 -9
-8 -15 -7 -12 -12 -8 -8 -7
-8 -13 -6 -11 -11 -6 -7 -6
-10 -16 -4 -9 -9 -4 -8 -4
-6 -16 -4 -7 -7 -3 -9 -3
0 -14 -3 -5 -5 -4 -9 -3
0 -20 -3 -2 -6 -6 -13 -6
1 -18 1 5 -1 -6 -19 -12
-10 -21 9 15 5 -5 -23 -15
-16 -23 14 22 9 -4 -26 -19
-15 -17 20 33 20 5 -17 -14
-17 -14 20 40 34 18 -2 -9
-8 -8 19 51 49 33 16 2
-1 -5 21 64 66 51 32 12
14 -1 29 89 94 74 49 24
30 16 54 137 138 110 79 46
38 32 83 196 190 154 109 70
48 50 114 255 245 197 139 94
57 67 131 291 286 236 167 116
58 79 123 277 293 256 186 135
65 94 104 234 279 262 197 149
64 100 74 164 230 237 190 151
57 101 43 85 162 191 169 145
54 110 10 5 91 139 143 132
40 109 -19 -68 18 81 109 110
15 86 -60 -132 -54 22 71 84
-2 61 -106 -185 -115 -34 30 55
-21 33 -141 -236 -171 -81 -8 24
-25 15 -156 -262 -204 -111 -31 5
-22 3 -169 -274 -220 -127 -47 -7
-17 -15 -179 -270 -223 -133 -56 -17
-16 -33 -180 -255 -217 -137 -67 -29
-18 -49 -168 -228 -198 -132 -71 -33
-12 -54 -152 -200 -177 -121 -71 -37
-1 -49 -132 -173 -155 -109 -67 -37
-5 -47 -113 -147 -135 -98 -64 -38
-5 -41 -95 -123 -115 -85 -60 -35
-8 -39 -80 -105 -98 -73 -56 -34
-9 -36 -67 -88 -85 -65 -51 -32
-9 -33 -54 -73 -73 -56 -47 -28
-14 -33 -42 -61 -60 -46 -42 -26
-11 -30 -34 -50 -50 -40 -38 -24
-6 -22 -23 -37 -39 -31 -29 -16
-8 -19 -18 -31 -31 -24 -26 -13
-3 -14 -15 -27 -27 -19 -24 -10
-7 -16 -12 -24 -24 -16 -22 -9
-6 -19 -12 -20 -21 -15 -20 -10
-7 -19 -14 -23 -23 -18 -22 -13
-12 -17 -12 -20 -23 -18 -24 -15
-12 -16 -10 -16 -21 -17 -25 -16
-11 -15 -9 -16 -18 -16 -26 -17
-10 -15 -7 -15 -17 -16 -25 -16
-7 -11 -6 -12 -14 -13 -24 -12
-5 -9 -4 -11 -11 -10 -21 -10
2 -8 -3 -11 -12 -9 -20 -9
2 -9 -6 -12 -13 -9 -20 -9
-1 -13 -6 -11 -13 -7 -20 -10
-6 -13 -7 -13 -14 -8 -21 -10
-6 -10 -9 -13 -16 -14 -23 -11
-12 -15 -10 -15 -19 -18 -27 -16
-14 -16 -7 -13 -16 -16 -27 -17
-14 -16 -4 -10 -13 -12 -23 -14
-11 -16 -1 -5 -9 -9 -20 -10
-8 -14 1 -4 -6 -6 -17 -7
3 -8 -2 -6 -8 -6 -16 -7
2 -8 -1 -5 -8 -7 -17 -7
-6 -14 -1 -4 -8 -7 -19 -8
-13 -19 -5 -9 -12 -12 -21 -11
-8 -14 -3 -5 -9 -11 -20 -10
-6 -13 -2 -4 -10 -13 -22 -12
-14 -17 -2 -5 -10 -13 -25 -13
-15 -18 0 -5 -11 -15 -23 -14
-8 -17 2 -3 -9 -13 -23 -12
-7 -12 5 1 -5 -8 -18 -10
-3 -8 6 2 -2 -6 -16 -8
-2 -9 4 2 -4 -7 -16 -8
-2 -7 6 4 -1 -6 -14 -6
-4 -9 4 3 -2 -6 -17 -8
-3 -10 2 2 -3 -8 -20 -10
-8 -13 2 3 -3 -9 -21 -12
-11 -14 3 3 -3 -10 -21 -13
-13 -16 2 2 -4 -10 -21 -15
-7 -16 4 6 0 -8 -19 -11
-1 -10 7 8 2 -5 -15 -9
2 -7 9 9 4 -2 -13 -6
3 -8 6 9 4 -2 -14 -6
3 -8 6 10 5 -2 -14 -8
-2 -6 7 10 5 -1 -16 -8
-5 -7 5 9 3 -4 -16 -8
-5 -10 3 9 3 -6 -18 -9
-3 -13 5 11 4 -6 -16 -10
-6 -15 4 10 2 -6 -20 -12
-9 -17 6 13 5 -5 -18 -12
-5 -17 9 16 9 -1 -15 -9
5 -14 10 19 12 2 -13 -7
5 -10 10 20 13 3 -12 -5
7 -12 9 21 13 1 -13 -8
9 -12 8 22 13 2 -14 -6
5 -11 8 23 13 1 -15 -6
0 -12 7 23 12 -1 -19 -9
-2 -13 9 27 15 1 -16 -9
-5 -19 7 28 15 2 -18 -11
1 -16 10 32 20 3 -16 -9
4 -14 13 36 24 7 -12 -7
4 -17 15 39 28 13 -6 -2
4 -16 13 40 28 12 -7 -1
6 -16 13 44 30 11 -10 -3
8 -16 12 46 31 11 -9 -5
13 -13 10 46 30 8 -12 -6
6 -19 11 49 33 11 -12 -7
9 -21 12 53 36 11 -12 -7
15 -16 11 55 37 12 -10 -7
18 -13 12 57 39 14 -8 -5
20 -10 13 58 42 17 -6 -3
18 -10 15 60 45 18 -5 0
20 -9 15 62 46 21 -1 3
23 -11 14 62 47 20 -2 4
21 -12 11 59 42 18 -5 1
19 -12 10 60 44 18 -3 2
17 -11 9 59 41 17 -4 1
22 -7 10 58 41 16 -5 0
21 -6 11 58 42 17 -4 1
21 -5 13 61 44 19 -1 5
24 -3 13 59 43 20 1 6
28 -3 14 58 43 20 0 6
24 -6 12 55 39 17 -1 6
24 -6 11 53 38 16 -1 6
21 -4 7 47 33 13 -2 3
8 -9 5 46 31 11 -4 3
6 -11 4 43 27 10 -7 1
11 -10 5 41 26 9 -8 -1
17 -2 7 42 28 12 -5 0
21 1 9 43 29 13 -3 3
17 0 7 39 27 13 -3 3
19 1 8 37 25 13 -1 6
13 -2 9 35 24 13 1 8
13 1 9 33 22 13 1 8
12 -1 5 27 17 10 -3 5
10 -1 2 25 13 5 -6 2
6 -2 7 25 14 5 -6 2
4 -4 9 25 14 8 -5 4
3 -2 6 21 12 6 -6 2
5 5 9 21 12 7 -4 4
9 5 9 20 12 8 -4 6
10 4 10 18 12 9 -1 8
11 6 11 18 10 9 1 9
7 7 10 15 9 8 -1 7
0 4 6 11 5 5 -5 3
-1 6 6 9 3 4 -7 0
-5 1 6 7 2 2 -9 -3
-6 0 8 8 4 3 -7 0
-7 -1 7 5 1 2 -8 -1
-5 -3 7 5 2 2 -9 -1
-3 2 9 6 4 3 -7 2
3 8 12 7 5 6 -3 5
3 7 11 7 3 6 -2 5
5 7 8 5 1 4 -4 3
-1 4 6 1 -1 1 -7 1
-5 5 5 0 -2 1 -8 0
-8 3 4 0 -3 -2 -10 0
-10 -2 4 -2 -3 -2 -12 -2
-7 -1 6 -1 -3 0 -11 -1
-7 1 6 1 -2 -1 -10 -1
-4 1 5 -2 -4 -2 -9 -2
1 5 4 -4 -4 -1 -8 0
-3 4 2 -5 -6 -2 -8 1
-4 3 4 -2 -4 0 -6 1
0 3 1 -6 -8 -3 -8 -1
-1 2 1 -7 -9 -6 -9 -2
-7 0 -1 -9 -12 -9 -14 -6
-16 -6 1 -9 -11 -8 -14 -7
-11 -3 1 -10 -13 -9 -15 -7
-3 2 1 -7 -9 -8 -13 -4
-4 -1 4 -6 -6 -5 -11 -3
-5 -3 5 -6 -7 -4 -10 -2
-5 -2 1 -10 -11 -7 -11 -3
-2 2 2 -8 -9 -6 -9 -2
-7 1 0 -9 -10 -5 -11 -4
-6 -3 0 -10 -13 -7 -12 -5
-11 -4 0 -10 -12 -8 -12 -6
-8 -2 1 -9 -12 -8 -12 -7
-6 -3 2 -9 -11 -7 -12 -5
-5 0 5 -8 -10 -7 -11 -3
-3 3 5 -10 -11 -10 -12 -7
-3 3 6 -7 -8 -6 -10 -4
-2 1 3 -8 -9 -5 -9 -2
-4 -2 3 -7 -9 -6 -10 -3
-4 1 2 -9 -11 -5 -10 -4
-5 1 -1 -10 -13 -9 -11 -6
-9 -1 -1 -10 -12 -9 -14 -7
-6 3 1 -8 -11 -8 -12 -6
-5 5 1 -9 -10 -7 -11 -6
-6 5 2 -7 -9 -6 -11 -4
-2 7 3 -7 -6 -5 -8 -1
-1 7 5 -5 -4 -3 -5 0
-7 2 5 -4 -3 -1 -3 2
-9 0 3 -5 -4 -3 -5 1
-8 -2 -1 -9 -8 -5 -8 -3
-6 2 -2 -7 -7 -6 -7 -4
-5 3 -1 -7 -7 -6 -8 -5
-7 3 -2 -7 -7 -7 -10 -6
-6 6 2 -6 -5 -4 -8 -4
-1 8 6 -1 -1 -1 -4 0
2 7 3 -3 -3 -2 -4 0
0 7 4 -2 -2 0 -2 1
-2 5 5 -1 0 1 0 2
2 7 6 1 1 1 0 3
-6 3 1 -2 -2 -1 -2 1
-5 2 -2 -6 -4 -5 -6 -3
-2 5 -1 -5 -5 -5 -6 -2
-4 6 0 -3 -3 -3 -4 -1
-6 6 3 -3 -3 -2 -4 -1
-7 4 4 -1 0 0 -3 -1
-1 7 5 0 1 2 0 2
4 14 7 3 4 5 3 5
3 12 5 2 4 3 1 4
3 8 2 -1 2 2 -2 3
2 9 2 0 1 2 0 2
0 7 2 -1 0 1 -2 0
-3 7 0 -2 -1 -2 -4 -2
-3 9 1 -2 -2 -1 -2 0
-4 10 2 -2 -1 0 -1 0
2 13 4 0 3 2 -1 1
2 11 4 0 2 2 0 1
7 19 7 4 6 6 4 5
7 22 13 8 11 10 9 11
10 22 13 8 11 10 8 10
2 22 12 9 9 9 9 10
-3 19 14 7 9 9 8 8
-4 16 12 6 6 5 4 6
-5 19 14 6 8 7 5 6
-4 18 14 6 7 6 5 4
-1 18 15 7 8 8 6 6
-1 20 19 9 10 10 8 8
3 25 19 9 11 12 11 10
7 28 17 8 9 9 9 9
3 25 17 10 11 11 10 8
1 25 17 9 11 11 9 9
0 25 16 10 11 9 9 11
-1 22 12 6 6 4 3 6
-2 19 12 3 5 3 2 4
-3 19 13 5 6 4 5 6
-3 18 13 7 8 8 8 8
-1 22 16 8 11 10 11 11
9 24 15 7 11 10 12 11
12 26 11 7 9 10 12 12
13 27 12 7 10 10 12 11
9 26 7 2 7 6 8 7
7 27 9 5 8 8 9 8
5 29 8 5 8 10 10 8
6 28 9 3 7 7 9 7
10 28 5 2 5 7 8 7
7 26 8 5 9 9 11 10
3 21 10 7 11 10 12 12
10 25 9 7 12 11 13 11
17 31 8 9 13 11 15 14
16 29 7 6 11 9 13 11
11 22 4 1 6 5 8 7
4 17 3 1 5 3 7 6
4 17 2 -1 2 1 4 4
1 17 4 -2 2 0 3 4
2 15 2 -4 -1 -1 0 0
6 19 8 2 4 4 6 6
2 17 8 2 5 4 5 5
2 12 10 2 6 4 6 4
4 9 8 0 3 0 3 3
6 4 2 -4 -2 -5 -2 -2
1 6 5 -5 -2 -4 -2 -2
-3 6 4 -5 -3 -5 -4 -3
-4 4 0 -8 -7 -9 -8 -8
-2 4 3 -6 -6 -8 -7 -6
-2 2 0 -10 -9 -9 -8 -8
-1 3 2 -10 -8 -11 -8 -9
-5 0 5 -8 -6 -8 -7 -8
-2 -3 3 -8 -6 -7 -6 -7
4 0 4 -8 -6 -7 -4 -4
-2 0 5 -6 -4 -7 -3 -3
-7 -4 2 -10 -8 -9 -7 -8
-8 -1 1 -10 -9 -9 -8 -9
-11 -3 1 -11 -10 -12 -10 -10
-8 -2 1 -10 -9 -9 -8 -9
-9 -2 3 -10 -9 -8 -6 -8
-3 -3 4 -8 -9 -9 -8 -9
1 0 6 -7 -6 -8 -7 -8
2 5 5 -6 -4 -5 -4 -4
4 4 5 -7 -4 -5 -4 -3
2 1 4 -7 -5 -6 -5 -4
-3 -5 -1 -13 -11 -11 -8 -8
-1 -3 0 -13 -12 -13 -9 -9
-7 -4 1 -11 -10 -12 -11 -11
-7 -7 3 -8 -8 -9 -9 -10
-5 -7 4 -6 -7 -10 -11 -13
-2 -11 11 3 0 -7 -10 -12
-1 -12 17 13 6 -5 -12 -14
1 -2 24 23 13 0 -10 -13
2 3 31 35 24 5 -7 -11
5 8 32 44 36 15 -1 -7
5 6 25 47 44 23 4 -6
-1 5 26 59 61 41 16 4
-3 5 30 78 82 59 27 13
13 14 47 117 121 90 49 28
30 29 78 175 173 133 80 51
43 50 116 241 230 181 116 83
54 70 144 290 281 226 149 110
70 90 143 293 303 255 176 134
80 106 123 258 296 265 193 152
80 113 95 197 261 251 193 158
71 115 61 116 196 209 175 150
60 116 26 35 122 157 149 137
41 110 -8 -43 45 99 120 118
24 102 -48 -112 -28 40 80 90
9 83 -95 -170 -92 -14 42 62
-4 56 -132 -222 -149 -64 6 33
-16 31 -152 -260 -195 -103 -23 10
-15 16 -162 -273 -215 -122 -37 -1
-8 5 -171 -273 -218 -129 -45 -10
-3 -11 -173 -261 -213 -132 -54 -19
-6 -25 -165 -240 -203 -135 -64 -30
-7 -35 -156 -216 -186 -131 -71 -39
-5 -38 -139 -188 -165 -121 -71 -43
-2 -35 -114 -159 -140 -105 -65 -41
-9 -36 -95 -133 -120 -91 -58 -39
-4 -29 -77 -110 -101 -78 -52 -35
0 -23 -62 -93 -88 -67 -46 -32
-4 -17 -44 -72 -70 -55 -35 -22
2 -11 -33 -59 -57 -46 -30 -22
0 -7 -27 -49 -49 -41 -28 -21
-2 -7 -20 -41 -43 -37 -26 -19
1 -6 -17 -36 -37 -34 -24 -19
-5 -8 -14 -31 -32 -29 -23 -19
-8 -9 -9 -25 -25 -23 -20 -16
-7 -6 -8 -22 -23 -21 -19 -15
-2 -3 -7 -21 -22 -21 -20 -16
4 -3 -6 -21 -22 -21 -20 -15
4 -4 -2 -16 -18 -18 -15 -11
-6 -8 0 -13 -15 -16 -13 -9
-4 -7 3 -11 -12 -14 -12 -8
-8 -9 1 -12 -13 -15 -14 -11
-9 -8 -1 -13 -15 -16 -15 -13
-9 -2 0 -11 -14 -15 -15 -13
-7 -2 -1 -12 -14 -16 -16 -15
-10 -7 1 -10 -12 -14 -14 -14
-7 -8 1 -10 -11 -14 -15 -13
-7 -6 0 -10 -13 -13 -14 -12
-4 -3 6 -6 -9 -10 -9 -7
-2 -3 5 -6 -10 -11 -11 -10
-2 -2 4 -6 -9 -10 -11 -9
-4 -3 3 -7 -12 -12 -12 -10
-9 -3 3 -8 -11 -13 -12 -12
-12 -4 4 -8 -10 -13 -12 -13
-10 -3 4 -7 -9 -12 -12 -12
-9 -2 3 -6 -10 -12 -13 -14
-5 0 6 -4 -5 -9 -9 -9
0 1 6 -2 -6 -10 -9 -8
7 0 4 -3 -7 -10 -9 -8
6 -2 5 0 -4 -8 -8 -7
-2 -4 7 0 -4 -9 -9 -8
-6 -4 5 -1 -5 -10 -10 -9
-6 -6 6 1 -4 -9 -10 -10
-7 -8 6 -1 -5 -11 -12 -12
-5 -4 5 -2 -6 -11 -13 -13
-2 -5 5 -1 -5 -10 -12 -14
-5 -5 7 1 -4 -9 -11 -12
-4 -1 9 4 -2 -7 -7 -7
1 0 11 6 1 -5 -4 -5
0 -1 11 8 1 -4 -5 -5
3 3 10 8 2 -3 -7 -7
-3 -2 9 6 -1 -5 -9 -9
-5 -3 10 8 -1 -6 -9 -11
-7 -2 9 6 -1 -6 -10 -11
-8 -4 9 7 1 -5 -9 -11
-4 -2 8 7 0 -6 -11 -12
1 0 9 8 2 -5 -9 -11
2 3 10 10 3 -4 -7 -10
3 2 13 16 7 1 -4 -6
3 -3 14 17 8 2 -3 -5
6 -4 14 16 8 1 -5 -8
1 -7 11 16 6 -2 -10 -11
-4 -7 13 18 7 -2 -9 -11
-6 -5 11 15 6 -3 -10 -12
-3 -7 9 17 6 -2 -10 -11
-5 -9 12 20 9 0 -9 -12
-2 -6 14 22 11 2 -7 -10
4 -4 14 23 13 4 -4 -8
9 -1 17 30 18 7 -2 -4
9 -3 17 32 19 8 -1 -3
7 -2 21 35 22 11 2 -1
4 -4 19 37 22 10 -1 -4
8 -7 16 37 22 6 -5 -9
5 -9 16 37 22 7 -7 -10
6 -11 14 38 21 6 -8 -10
5 -9 16 41 23 8 -7 -9
13 -4 15 42 26 9 -6 -8
12 -8 18 46 28 12 -1 -4
17 -5 20 54 35 18 4 1
21 -4 21 55 37 19 4 0
18 -7 19 56 38 19 3 -1
17 -8 16 57 37 16 0 -5
18 -8 15 57 36 14 -4 -8
13 -14 15 58 36 14 -3 -7
17 -13 14 57 37 16 -2 -6
19 -9 16 60 40 18 2 -2
25 -3 17 62 42 22 4 0
23 -5 19 64 44 24 7 4
21 -5 20 65 45 25 8 5
26 -1 18 63 44 23 8 5
26 1 17 61 43 23 7 4
24 0 15 57 40 19 6 2
25 1 16 58 40 20 4 1
20 -2 14 56 39 22 4 1
23 -3 14 54 38 22 4 1
20 -3 13 53 37 24 4 0
20 -3 14 51 36 24 5 3
19 -4 16 52 35 24 8 7
24 -2 15 52 35 24 8 8
23 -2 11 48 31 21 7 6
23 3 15 47 31 22 10 8
18 2 14 44 28 21 9 6
20 3 12 41 26 18 5 4
12 4 10 38 23 17 5 4
12 6 11 36 22 17 6 4
16 7 12 33 21 18 5 2
16 7 12 31 19 17 6 4
14 7 11 30 18 17 7 6
17 7 15 31 19 18 9 8
15 8 14 29 18 16 9 8
11 7 15 27 17 16 8 7
6 6 13 24 12 13 6 5
6 7 11 20 9 11 3 2
1 9 10 18 8 12 2 1
1 6 9 15 5 9 1 0
2 7 10 16 6 12 4 2
8 15 12 15 6 12 4 2
4 10 11 13 4 11 3 3
4 9 11 11 4 9 4 4
4 10 11 11 4 11 4 3
4 11 13 12 5 12 4 3
0 11 13 12 5 11 4 4
-6 2 10 9 2 10 2 2
-9 1 9 5 -2 7 0 -2
-2 7 7 1 -4 6 -1 -3
-3 7 5 0 -6 4 -2 -3
-5 6 7 2 -4 6 1 0
2 9 9 4 -2 7 2 3
7 10 9 5 -1 7 1 2
2 7 11 6 0 8 4 3
-4 4 12 6 0 8 1 1
-1 4 8 1 -5 3 -2 -2
-4 5 7 -1 -6 1 -5 -5
-10 1 4 -5 -9 0 -4 -5
-12 -5 3 -5 -9 0 -5 -4
-14 -7 1 -5 -10 0 -6 -5
-7 -2 4 -5 -7 2 -3 -4
0 3 5 -5 -8 0 -2 -3
0 4 5 -3 -5 1 1 0
2 5 6 -3 -5 2 -1 -1
3 7 8 -1 -4 3 1 0
-1 2 5 -4 -8 1 -1 -3
-1 4 2 -7 -10 -3 -6 -6
-8 2 3 -8 -12 -3 -6 -6
-11 0 2 -9 -13 -3 -6 -6
-13 -2 -1 -11 -14 -4 -7 -7
-11 -6 -1 -13 -14 -6 -6 -8
0 4 1 -9 -12 -3 -3 -4
2 4 5 -3 -6 0 0 0
-2 -1 3 -9 -11 -5 -5 -4
2 5 2 -8 -11 -4 -4 -3
-2 6 4 -8 -11 -5 -5 -3
-4 2 3 -10 -13 -7 -6 -5
-8 0 0 -12 -15 -8 -8 -7
-6 -3 -1 -12 -16 -9 -10 -7
-9 -6 1 -12 -15 -7 -9 -7
-6 -2 2 -10 -11 -5 -4 -4
-8 -4 3 -10 -12 -4 -4 -4
0 1 4 -9 -11 -4 -2 -3
3 2 4 -8 -11 -3 -2 -3
2 2 3 -8 -10 -3 -3 -4
-4 1 5 -7 -10 -4 -3 -4
-2 2 3 -7 -11 -6 -5 -5
-10 -2 2 -8 -12 -7 -8 -7
-11 -1 2 -8 -11 -7 -7 -7
-16 -3 3 -8 -11 -6 -5 -5
-8 0 3 -6 -9 -5 -4 -3
0 1 0 -9 -11 -5 -6 -5
0 2 4 -4 -6 -1 0 0
-2 0 3 -5 -7 -2 1 1
-1 0 3 -6 -7 -2 1 0
-3 3 3 -4 -7 -1 1 -1
-2 3 2 -5 -6 -3 -1 -1
-5 1 -1 -7 -8 -4 -4 -5
0 3 0 -7 -8 -4 -3 -5
-1 5 1 -5 -6 -1 0 -2
1 8 3 -4 -4 -1 2 1
4 9 3 -3 -3 0 3 0
7 10 4 -1 -1 0 4 3
7 6 2 -1 -1 1 3 3
0 4 5 0 1 4 6 6
-2 5 4 0 0 2 4 3
1 9 2 -2 -1 1 3 1
-2 4 -1 -4 -3 1 0 -1
-2 4 1 -4 -3 1 1 -1
-4 8 4 -2 -3 2 3 0
0 11 4 -2 -1 1 5 3
3 12 5 1 1 5 6 3
3 11 7 2 2 4 7 4
8 9 4 1 1 3 6 3
11 12 7 2 3 5 6 3
3 11 8 3 3 6 6 4
-5 9 10 3 5 8 8 6
-5 11 10 3 4 8 7 4
-6 15 12 3 4 9 7 6
-8 17 15 7 7 11 10 8
-5 18 12 4 6 9 8 6
1 18 12 3 3 6 8 6
9 24 15 6 6 8 11 9
7 21 15 7 7 9 12 8
9 24 16 9 9 11 14 11
3 21 16 7 6 9 10 8
0 17 16 8 7 8 10 6
-1 18 16 7 6 9 10 5
-3 21 14 5 6 9 11 6
0 23 12 4 5 8 9 5
4 24 11 3 4 7 8 5
1 20 12 4 6 9 9 7
4 23 14 7 10 10 12 9
10 28 15 9 10 11 11 9
12 25 11 6 7 9 11 9
7 24 10 5 6 9 11 10
3 19 7 3 4 6 10 8
1 15 5 -1 1 5 6 4
5 20 5 0 2 5 8 5
5 19 5 1 3 7 10 8
10 24 5 1 4 8 11 8
11 22 3 -1 3 9 12 10
15 24 4 2 7 10 14 13
18 29 7 6 11 12 15 14
19 26 5 6 12 12 15 13
8 21 7 7 10 10 12 12
12 24 4 4 7 7 10 9
14 18 0 -1 1 5 6 6
10 14 0 -2 0 3 7 6
7 12 -1 -4 -3 1 4 3
6 12 0 -4 -1 2 6 5
5 10 1 -3 0 3 6 5
4 9 2 -2 1 4 7 7
8 11 3 -3 0 3 6 7
8 9 3 -2 1 2 5 5
-1 1 3 -4 -2 -1 -1 0
-3 1 1 -8 -7 -7 -3 -3
2 3 -2 -11 -10 -9 -5 -6
-3 7 -2 -11 -10 -9 -4 -6
-10 6 -1 -10 -9 -7 -4 -5
-5 -2 0 -11 -9 -7 -4 -4
-2 -8 -2 -14 -12 -12 -7 -7
-4 -6 0 -11 -11 -10 -4 -5
1 -6 0 -12 -12 -11 -5 -5
6 -1 1 -10 -10 -9 -3 -3
2 -3 0 -11 -11 -11 -6 -6
-4 -5 -2 -14 -15 -14 -8 -9
-6 -4 -4 -17 -17 -16 -11 -12
-4 -5 -5 -16 -16 -16 -12 -12
-6 -11 -3 -16 -16 -15 -12 -12
-3 -3 -3 -15 -13 -14 -9 -9
-2 -4 -4 -14 -14 -13 -9 -10
3 -4 -4 -14 -15 -15 -10 -10
4 -3 -5 -17 -16 -15 -11 -10
2 -3 -3 -13 -13 -12 -8 -7
1 -3 -2 -13 -12 -12 -9 -8
-5 -6 -3 -13 -11 -11 -8 -8
-6 -7 -6 -16 -15 -15 -13 -13
-3 -5 -7 -16 -16 -16 -13 -13
0 -6 -4 -14 -15 -15 -12 -12
0 -7 -3 -13 -13 -13 -11 -11
-1 -12 -3 -11 -13 -14 -11 -12
0 -16 -2 -10 -13 -16 -13 -13
-1 -18 1 -4 -11 -16 -16 -17
1 -12 12 8 -1 -12 -13 -14
-2 -13 19 19 5 -10 -15 -18
-7 -13 24 29 16 -4 -11 -16
-13 -10 24 38 28 8 -5 -11
-5 -1 21 46 42 22 6 -3
5 3 24 61 60 41 18 6
11 4 34 86 86 63 33 18
25 13 52 128 125 94 54 34
39 28 81 185 176 133 83 57
49 46 116 248 233 179 116 83
61 69 139 291 279 221 149 110
63 79 131 281 290 240 168 128
69 87 107 239 277 246 180 140
75 99 76 173 237 231 180 149
69 106 48 97 176 194 169 147
61 115 14 17 103 144 145 135
47 112 -21 -61 28 86 113 115
31 99 -67 -131 -46 26 75 89
22 78 -109 -183 -104 -25 40 63
5 53 -141 -232 -160 -70 6 36
-8 30 -158 -265 -201 -106 -22 15
-15 7 -172 -279 -220 -125 -39 -2
-18 -13 -181 -277 -224 -132 -47 -11
-13 -26 -183 -266 -223 -139 -60 -23
-9 -39 -173 -242 -209 -139 -68 -36
-8 -50 -157 -215 -189 -131 -71 -41
0 -43 -134 -184 -164 -117 -66 -40
4 -38 -112 -156 -141 -104 -61 -39
4 -30 -89 -127 -117 -88 -51 -32
4 -27 -73 -108 -100 -76 -45 -30
3 -24 -60 -91 -87 -67 -41 -28
-1 -23 -48 -76 -76 -58 -37 -27
-5 -24 -40 -63 -63 -51 -36 -29
-9 -24 -32 -54 -56 -46 -33 -28
-7 -20 -24 -44 -47 -40 -28 -24
-11 -20 -20 -39 -40 -35 -25 -23
-8 -18 -15 -32 -34 -29 -21 -19
-6 -14 -13 -29 -32 -27 -19 -17
-1 -10 -10 -24 -27 -25 -17 -14
0 -12 -8 -22 -25 -22 -16 -13
-3 -13 -7 -20 -24 -22 -17 -14
-7 -14 -7 -19 -24 -22 -17 -15
-6 -15 -7 -20 -25 -24 -20 -18
-11 -21 -9 -22 -27 -26 -21 -19
-15 -17 -7 -19 -25 -25 -20 -18
-14 -15 -5 -19 -24 -24 -20 -19
-5 -13 -3 -18 -23 -20 -18 -16
-1 -7 -1 -16 -19 -18 -13 -11
-1 -7 -1 -14 -18 -15 -13 -11
0 -5 0 -12 -15 -12 -11 -10
-2 -8 -1 -12 -16 -14 -12 -10
-7 -12 -4 -13 -18 -18 -15 -13
1 -7 -2 -12 -16 -17 -15 -11
-6 -7 -2 -12 -17 -18 -16 -12
-9 -13 -5 -16 -20 -21 -19 -17
-8 -13 -1 -12 -18 -18 -17 -15
-1 -9 1 -10 -16 -16 -15 -13
3 -6 1 -11 -16 -17 -14 -11
2 -1 3 -5 -11 -12 -9 -7
-1 -3 5 -4 -10 -12 -7 -5
1 -1 5 -4 -11 -14 -10 -8
-1 -6 4 -6 -14 -18 -14 -13
-3 -7 1 -6 -13 -17 -15 -13
-12 -9 2 -7 -14 -16 -15 -13
-9 -6 3 -4 -13 -14 -14 -13
1 -4 6 -2 -10 -13 -13 -12
3 -6 5 -2 -8 -11 -13 -12
-1 -7 7 -1 -6 -11 -9 -9
5 -2 7 2 -4 -9 -7 -5
1 -6 4 -1 -5 -11 -8 -7
-2 -7 3 0 -6 -11 -8 -9
0 -6 4 0 -9 -13 -11 -11
0 -4 0 -3 -11 -15 -17 -15
-9 -5 5 1 -7 -13 -12 -13
-4 -7 6 4 -6 -12 -12 -11
-5 -7 7 4 -5 -10 -11 -11
0 -3 8 5 -2 -8 -9 -9
-3 -5 8 6 -3 -9 -8 -8
0 -4 10 9 1 -7 -6 -4
6 -1 8 6 -2 -8 -8 -7
0 -8 6 8 -1 -8 -9 -8
-6 -9 9 10 -1 -8 -9 -8
-4 -7 8 10 0 -8 -12 -11
-4 -12 5 7 -3 -10 -13 -12
-1 -10 9 13 1 -7 -9 -8
-5 -11 8 12 -1 -9 -12 -11
1 -11 8 13 3 -6 -11 -11
0 -11 10 16 4 -4 -8 -9
5 -8 12 20 8 -2 -7 -7
15 3 16 24 12 2 -3 -2
14 -1 13 23 10 -1 -5 -5
5 -8 14 25 10 -1 -6 -8
7 -8 12 26 11 -2 -9 -9
2 -10 10 27 11 -3 -9 -11
9 -6 16 32 15 1 -7 -9
7 -7 16 32 16 1 -8 -10
9 -7 16 36 19 4 -5 -8
12 -6 16 39 23 5 -3 -6
18 -4 20 46 28 8 -1 -2
19 -4 20 47 29 8 -2 -3
22 -3 18 48 28 7 -3 -4
18 -8 15 48 27 5 -6 -8
16 -8 14 50 30 6 -7 -8
9 -12 15 53 32 8 -4 -7
9 -19 14 53 31 6 -6 -9
17 -12 14 54 34 8 -5 -7
16 -10 17 59 40 15 2 -2
19 -8 17 60 41 16 5 0
28 -3 18 62 43 17 6 2
29 -3 16 62 43 19 7 3
28 -2 16 63 42 17 5 3
23 -6 16 62 41 17 4 2
20 -8 15 59 40 16 4 -1
14 -8 14 57 38 14 2 -2
16 -7 11 56 37 14 4 -1
19 -6 11 54 37 14 4 -1
24 -3 12 56 38 16 6 1
23 -4 11 55 36 16 6 3
28 1 13 55 38 17 9 7
28 4 12 52 37 17 8 6
26 2 11 49 32 12 5 4
22 -1 9 46 30 9 1 -1
24 5 9 45 29 9 2 0
18 -1 8 41 26 7 0 -1
17 3 10 41 26 11 2 2
13 1 11 41 27 11 3 2
13 -1 12 38 26 11 4 4
16 4 11 36 23 10 5 6
19 9 11 35 23 11 7 7
18 11 11 34 22 10 8 7
17 8 12 30 19 7 7 8
15 8 8 24 11 2 2 3
13 7 6 20 8 -1 -1 0
5 8 6 19 7 -2 -2 -1
7 12 9 19 7 1 -1 1
3 9 10 17 8 3 1 3
1 6 12 17 8 4 2 5
7 13 11 17 9 5 3 5
9 13 11 17 9 5 3 4
7 7 10 15 8 6 3 4
8 9 11 14 6 2 4 5
1 5 8 10 2 -2 0 3
-3 6 8 10 2 -1 -1 1
-4 7 6 6 -2 -3 -3 -2
-5 9 7 5 -1 -3 -2 -1
-4 7 7 5 -2 -3 -3 -2
-2 4 8 3 -2 -3 -3 -2
-3 3 8 3 -1 -1 -2 0
3 7 8 5 0 0 -1 1
2 7 9 5 2 2 2 4
3 7 7 3 0 0 1 4
-3 4 5 1 -4 -4 -3 0
-8 2 6 1 -4 -5 -4 -1
-4 9 3 -2 -5 -4 -4 -3
-5 8 3 -1 -6 -4 -4 -4
-7 5 2 -3 -7 -6 -5 -5
-4 8 6 -1 -5 -4 -3 -1
-3 7 5 -2 -6 -5 -3 -1
5 10 5 -1 -6 -5 -2 0
4 7 4 -3 -5 -5 -3 -1
-2 1 5 -3 -6 -6 -4 -1
-12 -3 2 -6 -9 -7 -6 -3
-9 3 2 -5 -8 -7 -5 -3
-6 4 1 -8 -9 -7 -7 -5
-8 2 3 -7 -11 -11 -9 -7
-13 1 3 -7 -11 -9 -8 -7
-8 5 4 -7 -9 -6 -5 -4
4 10 3 -6 -9 -7 -5 -3
8 9 5 -6 -9 -7 -5 -3
4 6 4 -7 -9 -7 -4 -2
0 3 3 -8 -10 -8 -5 -1
-1 2 1 -9 -11 -10 -6 -3
-4 1 0 -11 -14 -12 -8 -5
-11 -5 -5 -15 -18 -16 -13 -10
-9 -3 -1 -11 -15 -13 -9 -7
-7 -1 0 -11 -14 -11 -10 -7
-5 -1 3 -8 -9 -6 -6 -3
-1 3 4 -6 -8 -7 -4 -1
2 5 3 -7 -8 -7 -4 0
4 7 4 -5 -7 -5 -3 0
4 3 1 -7 -9 -8 -4 -2
-3 -2 0 -7 -11 -11 -7 -4
-6 1 0 -8 -12 -11 -9 -7
-7 -1 -1 -10 -14 -12 -12 -10
-14 -5 0 -8 -13 -12 -9 -8
-12 -4 2 -9 -12 -10 -9 -7
-4 1 4 -5 -8 -6 -3 -2
-1 7 6 -2 -5 -4 0 0
-1 6 7 0 -3 -2 1 3
0 5 7 -2 -4 -4 1 2
2 8 5 -1 -4 -2 -1 2
-1 9 3 -1 -4 -2 -2 0
-3 7 1 -4 -7 -4 -4 -3
-9 5 0 -5 -7 -6 -4 -2
-10 0 0 -5 -6 -5 -5 -2
-10 -2 0 -5 -5 -5 -4 -2
-4 3 2 -1 -2 -2 -1 2
3 8 5 2 2 1 3 5
9 10 5 2 2 2 2 4
11 10 4 1 1 3 2 5
11 10 3 2 2 4 4 5
9 9 3 0 0 1 1 3
-1 10 4 3 2 4 2 5
-4 10 3 1 1 4 1 2
-8 7 2 0 0 0 -1 0
-14 4 2 1 0 2 0 2
-3 6 1 0 -1 1 -1 2
6 10 2 0 -1 0 0 0
6 10 4 3 3 2 2 5
5 13 3 3 4 5 4 7
6 13 6 5 5 6 7 8
5 14 4 4 4 5 5 7
0 12 5 6 5 7 4 8
-4 13 4 3 3 6 3 4
1 19 7 6 5 7 5 6
-5 14 11 9 8 10 8 9
-5 17 13 10 10 13 11 11
5 24 12 10 11 13 12 11
1 22 14 13 13 15 14 13
0 21 16 13 14 15 14 15
2 21 15 12 12 13 13 15
0 17 12 9 8 10 11 12
2 22 14 10 10 12 10 11
-3 23 14 10 9 12 9 9
-3 21 15 11 10 11 9 9
-1 24 16 13 13 13 11 12
3 27 17 15 15 15 14 15
4 27 18 14 14 17 15 15
5 26 16 12 13 17 16 16
5 25 14 10 12 15 14 15
9 27 14 11 13 15 13 15
6 24 12 10 11 14 12 13
3 23 11 10 11 13 12 13
5 28 9 9 9 12 10 11
2 25 9 9 9 11 11 11
-1 23 10 11 11 14 11 12
10 32 11 13 14 17 14 16
15 33 9 12 12 16 16 17
21 34 8 10 11 17 16 17
14 30 6 8 11 17 15 18
14 29 5 9 12 17 17 19
14 26 3 8 12 15 15 17
6 20 4 9 12 14 13 15
1 20 2 9 12 15 11 14
2 21 3 10 12 16 10 12
8 23 6 11 13 16 12 14
12 21 5 8 11 16 13 14
9 20 3 7 10 14 11 13
16 23 5 7 10 13 13 14
7 19 2 5 8 12 10 12
3 14 2 5 7 13 9 13
0 10 4 7 9 13 11 14
-1 8 2 6 6 11 8 11
-5 6 1 3 3 8 4 5
-4 5 2 2 1 5 2 3
-4 2 1 0 0 4 0 2
-1 4 3 2 2 6 3 4
0 6 2 1 1 6 4 6
4 4 0 0 0 5 3 5
8 5 0 -2 -2 3 1 3
3 4 0 -2 -2 1 -1 4
-5 -3 -1 -4 -4 -1 -4 1
-9 -5 -3 -5 -6 -2 -6 -2
-13 -9 -7 -8 -9 -5 -9 -5
-3 -2 -4 -7 -8 -5 -9 -4
-3 -2 -3 -7 -8 -4 -7 -4
-5 0 -1 -5 -6 1 -3 0
-1 4 0 -4 -4 2 -2 2
-2 7 3 1 0 6 2 6
0 5 2 -1 -1 4 2 5
7 4 1 -2 -4 2 -2 2
-5 0 -1 -3 -4 0 -3 1
-7 -3 -2 -5 -6 -2 -5 -2
-7 -5 -4 -7 -9 -2 -7 -4
-8 -4 -3 -5 -7 -2 -6 -3
-8 -7 -3 -6 -7 -3 -7 -4
-4 -3 0 -6 -7 -3 -6 -3
-3 -5 0 -5 -6 -4 -5 -2
-1 -6 -1 -4 -6 -2 -4 0
-1 -6 2 -1 -3 0 -4 1
1 -6 3 3 -1 0 -5 0
1 -10 2 4 -2 -5 -11 -7
-3 -10 7 12 3 -5 -14 -11
-10 -10 14 22 10 -1 -14 -12
-17 -7 21 35 21 7 -10 -9
-16 -3 25 45 35 19 -1 -2
-4 1 24 54 49 36 11 7
4 0 25 65 65 51 23 16
18 6 31 87 90 72 38 26
21 12 48 126 127 102 58 42
33 30 77 183 177 141 87 63
37 50 111 245 232 188 120 88
46 66 135 291 280 230 151 113
56 82 132 289 295 256 173 133
67 99 113 251 287 264 190 150
69 109 87 189 254 253 193 159
65 115 58 113 194 218 182 158
54 118 22 30 119 166 156 145
43 115 -12 -47 44 107 125 125
29 106 -55 -114 -28 47 89 103
13 83 -100 -168 -89 -8 51 75
-2 58 -138 -220 -148 -58 12 44
-12 34 -159 -257 -195 -99 -20 16
-17 14 -173 -276 -219 -121 -41 -1
-11 -1 -180 -274 -223 -128 -48 -6
-5 -14 -181 -263 -219 -132 -57 -17
-4 -24 -171 -239 -206 -131 -64 -26
-4 -33 -159 -213 -188 -125 -65 -31
-5 -38 -137 -181 -161 -111 -62 -33
-3 -38 -115 -152 -138 -98 -59 -34
3 -29 -95 -127 -117 -85 -53 -31
0 -25 -78 -106 -100 -73 -48 -29
-2 -22 -64 -89 -87 -65 -43 -27
-5 -19 -56 -77 -76 -58 -41 -28
-7 -19 -45 -62 -63 -50 -37 -26
-8 -16 -31 -47 -51 -38 -31 -22
-7 -15 -23 -38 -40 -30 -25 -18
-3 -12 -16 -29 -31 -24 -21 -14
-1 -11 -13 -25 -26 -19 -18 -12
1 -9 -11 -22 -24 -18 -17 -12
1 -1 -10 -17 -20 -14 -14 -9
-10 -6 -11 -18 -20 -15 -16 -11
-12 -12 -11 -17 -21 -16 -18 -13
-12 -14 -12 -18 -23 -18 -20 -15
-13 -12 -8 -15 -18 -17 -19 -14
-6 -7 -7 -15 -17 -15 -17 -11
-2 -6 -4 -11 -15 -13 -14 -8
-3 -4 -2 -10 -12 -9 -13 -8
0 -1 1 -7 -10 -6 -8 -4
1 -1 0 -8 -10 -7 -9 -6
0 -2 -1 -7 -11 -10 -11 -7
-4 -4 -4 -10 -12 -11 -11 -8
-5 -5 -4 -10 -15 -12 -12 -10
-9 -6 -5 -10 -15 -13 -14 -12
-9 -8 -3 -8 -13 -11 -16 -13
-7 -7 -1 -8 -12 -10 -15 -11
-6 -5 4 -3 -9 -8 -12 -9
-5 -3 3 -4 -9 -8 -12 -9
2 0 6 1 -4 -2 -7 -3
3 0 5 1 -5 -1 -6 -1
0 -3 5 1 -6 -4 -7 -3
-4 -6 1 -5 -9 -8 -12 -6
-7 -8 -2 -6 -12 -11 -13 -9
-10 -10 -3 -6 -13 -11 -15 -10
-9 -7 0 -2 -9 -7 -12 -9
-8 -7 1 -2 -9 -9 -13 -10
-3 -6 5 1 -8 -8 -11 -9
-3 -4 6 3 -3 -5 -10 -7
0 -2 8 5 0 -1 -5 -5
8 2 7 4 -2 -2 -6 -5
4 -1 7 7 0 0 -4 -1
-3 -5 5 4 -2 -2 -7 -4
-5 -5 3 3 -5 -5 -10 -6
-10 -9 1 3 -6 -9 -13 -9
-11 -8 5 6 -3 -6 -11 -7
-10 -8 4 6 -3 -5 -11 -9
-7 -9 7 9 0 -4 -9 -8
-6 -5 8 9 1 -3 -8 -7
-2 -5 10 11 4 0 -6 -4
1 -4 11 13 6 2 -3 -3
5 -2 12 14 6 2 -2 0
-2 -7 8 11 2 -3 -7 -3
-2 -7 7 12 2 -3 -8 -4
-3 -4 6 12 1 -4 -9 -6
-5 -5 9 15 3 -2 -8 -5
-7 -7 8 15 2 -2 -9 -7
-4 -6 12 19 7 2 -5 -4
-1 -5 14 20 9 3 -4 -4
6 -3 14 22 11 6 -3 -1
8 -2 11 22 11 5 -3 -2
14 -2 10 24 11 5 -4 -3
7 -3 10 25 12 4 -5 -4
1 -7 10 27 12 5 -6 -5
-4 -8 10 28 12 1 -10 -8
-4 -10 11 31 13 1 -11 -10
1 -10 11 30 15 1 -11 -10
8 -5 14 36 20 5 -7 -6
8 -9 14 37 21 4 -9 -7
13 -7 17 42 26 10 -3 -2
13 -3 18 45 29 13 0 1
15 -5 16 45 28 12 -3 -2
10 -5 12 44 27 8 -5 -5
10 -8 11 47 29 11 -4 -4
6 -9 10 49 32 11 -4 -4
15 -2 15 55 37 14 -1 -3
17 -4 15 57 38 16 -2 -3
20 -8 17 61 41 18 0 -1
19 -10 17 63 44 18 1 1
22 -9 19 66 47 23 3 4
27 -6 18 66 48 23 4 5
26 -7 16 67 48 23 4 6
22 -8 11 63 45 19 0 3
22 -7 8 60 41 17 -1 1
16 -9 9 60 41 16 0 0
21 -3 11 61 44 19 2 1
25 -5 11 62 44 19 1 1
25 -6 12 64 45 21 4 3
23 0 16 66 48 23 8 8
27 2 15 65 49 25 10 9
30 1 13 61 44 24 9 9
30 4 14 61 44 24 11 11
25 1 10 55 37 18 5 6
19 0 9 52 34 16 4 6
14 0 8 50 32 13 4 5
19 0 7 48 32 14 2 4
21 3 9 47 32 15 3 4
18 6 12 49 33 17 8 9
19 9 12 48 33 19 10 11
25 11 12 46 32 21 12 13
24 12 12 43 30 18 12 12
23 11 12 43 29 18 12 12
16 7 10 35 22 14 7 7
13 7 8 30 19 11 5 5
9 9 6 29 17 11 4 4
4 5 5 27 16 8 3 4
2 3 7 24 13 6 0 2
4 6 9 24 13 7 4 6
8 9 9 24 14 8 5 7
16 15 11 24 14 8 5 8
14 15 11 22 13 9 7 8
11 14 11 21 12 8 7 10
10 15 8 15 7 3 3 7
4 8 4 12 4 2 1 3
-4 5 2 10 1 -1 -3 0
-11 2 4 10 1 -1 -4 0
-13 -2 3 8 0 -2 -5 -1
-5 3 7 10 3 3 -1 3
-1 8 11 13 7 6 3 7
6 15 9 11 7 5 5 7
10 14 7 8 4 4 2 5
10 10 7 8 3 3 1 3
-1 6 5 5 1 1 0 3
1 10 5 5 1 0 -1 2
-5 7 2 3 -2 -2 -4 -1
-4 9 2 2 -3 -3 -5 -3
-6 5 3 0 -4 -6 -6 -4
-8 5 6 2 -3 -3 -4 -2
-4 7 6 2 -2 -2 -2 -1
1 6 7 3 0 1 0 0
0 7 8 4 2 4 2 4
3 7 5 3 -2 1 0 3
2 3 3 -2 -5 -2 -3 0
1 3 2 -2 -6 -2 -5 -3
2 6 0 -3 -8 -4 -5 -4
-6 4 1 -4 -8 -4 -6 -5
-8 3 1 -6 -8 -6 -9 -6
-7 1 3 -4 -8 -6 -9 -6
-1 1 3 -5 -7 -6 -6 -4
5 5 3 -4 -6 -4 -5 -2
3 3 2 -4 -7 -4 -3 -2
2 6 0 -4 -7 -4 -3 -2
-7 5 -1 -6 -9 -6 -5 -2
-8 4 0 -6 -9 -6 -5 -2
-9 4 -1 -7 -12 -10 -8 -5
-10 1 -1 -7 -12 -10 -10 -6
-8 -1 0 -8 -12 -10 -10 -7
-7 -1 2 -6 -10 -8 -9 -6
-5 -1 1 -7 -10 -7 -8 -5
0 2 3 -3 -6 -2 -4 -2
-3 -2 3 -5 -7 -3 -5 -3
-6 -5 0 -7 -9 -6 -8 -5
-6 0 0 -7 -10 -8 -7 -4
-7 0 1 -8 -11 -9 -8 -5
-6 1 -1 -10 -12 -11 -10 -8
-6 2 0 -7 -10 -9 -9 -6
-9 1 0 -8 -10 -9 -10 -7
-5 4 3 -4 -7 -6 -6 -4
-4 5 4 -5 -8 -5 -4 -2
-4 5 5 -2 -6 -2 -2 0
2 8 4 -4 -8 -4 -3 -2
1 5 2 -3 -7 -4 -3 -1
-2 6 2 -3 -5 -1 -2 -1
-8 3 1 -2 -5 -2 -3 -2
-13 -6 -3 -5 -9 -8 -9 -7
-7 -1 -2 -7 -9 -6 -8 -5
-4 8 1 -4 -6 -3 -5 -3
0 10 3 -2 -4 -1 -3 -2
4 12 4 0 -1 2 1 1
6 12 4 1 1 5 1 2
7 14 5 3 3 6 4 4
3 10 4 4 2 5 5 5
1 5 1 -2 -2 0 -1 0
-2 5 1 0 -1 1 -1 0
-8 5 0 -1 -2 -1 -3 -4
-4 5 0 -1 -3 -2 -4 -2
1 9 2 1 0 1 -1 -1
-4 6 5 5 4 6 3 4
-4 5 6 4 5 6 3 4
1 6 7 4 5 6 4 5
3 7 5 4 5 6 5 5
5 12 6 5 6 7 6 7
-2 6 5 3 4 6 4 4
0 7 3 1 2 3 2 2
2 10 1 0 -1 1 0 0
-3 13 4 4 3 5 3 3
-9 14 8 8 8 10 7 5
-6 18 13 11 11 13 9 7
0 22 16 12 13 15 11 9
7 24 18 15 16 19 16 12
7 24 16 13 14 19 16 13
15 32 19 16 18 21 19 18
13 34 17 14 15 18 17 15
10 32 15 12 12 16 16 13
-1 26 15 10 10 12 11 10
-10 19 12 8 8 10 7 5
-8 19 13 9 9 10 9 7
-2 21 17 12 13 13 10 9
-2 20 16 13 14 14 12 9
2 23 18 14 15 16 15 13
6 25 16 12 14 16 15 14
11 26 13 11 13 15 14 12
8 26 10 10 11 14 13 11
3 25 10 10 11 14 12 10
-6 23 8 6 8 11 11 7
-4 22 6 5 9 11 9 6
-4 18 7 6 10 13 10 7
5 20 8 8 10 13 12 9
7 23 11 11 14 16 16 13
8 23 13 14 18 20 19 17
7 22 11 11 15 18 18 15
9 22 7 10 14 18 19 16
15 24 3 7 12 16 16 12
14 27 4 10 14 18 17 15
1 21 4 10 15 17 16 13
2 19 4 9 14 17 15 11
4 19 5 10 15 17 15 10
7 18 5 8 13 14 13 10
7 15 5 7 12 14 13 10
4 13 7 8 12 16 14 12
3 12 5 5 9 12 12 9
3 12 4 5 9 11 13 10
1 10 2 1 5 7 7 4
-1 8 2 2 5 7 6 3
-9 7 2 1 3 6 5 0
-7 2 2 -1 3 6 2 -1
1 5 6 1 5 8 4 1
13 17 9 5 7 8 6 4
10 13 10 4 7 7 8 3
8 16 14 7 11 11 12 9
11 12 9 3 6 7 8 4
5 2 5 1 2 3 5 1
-11 -12 0 -7 -4 -4 -2 -6
-7 -8 -2 -8 -6 -6 -3 -6
-13 -7 -2 -7 -6 -5 -3 -7
-6 -2 0 -7 -3 -3 -2 -6
-7 -4 0 -7 -3 -1 -3 -7
-5 0 -1 -7 -4 -2 -3 -7
-5 -3 0 -6 -2 -3 -3 -7
-7 -6 3 -5 0 0 1 -6
2 -3 2 -6 -1 -1 1 -6
-1 -7 4 -3 -1 0 3 -3
-5 -6 1 -6 -3 -2 1 -5
-7 -10 -2 -9 -6 -4 -2 -9
-11 -11 -3 -11 -9 -8 -6 -11
-8 -8 0 -8 -6 -7 -3 -11
-13 -11 -1 -10 -6 -6 -4 -11
-9 -10 2 -7 -4 -4 -3 -8
-8 -12 1 -7 -4 -3 -2 -7
-3 -13 1 -7 -2 -2 1 -7
-8 -15 0 -7 -2 -2 -1 -7
-9 -21 -1 -5 -2 -4 -4 -9
-7 -21 1 -1 -3 -8 -8 -12
-11 -24 5 4 1 -10 -12 -17
-20 -31 11 13 5 -8 -15 -22
-19 -23 21 27 16 -2 -9 -18
-26 -19 26 38 29 9 -3 -13
-20 -20 27 47 44 24 8 -5
-7 -9 30 62 65 45 23 7
7 -3 31 75 83 63 35 14
14 2 40 105 112 86 51 27
25 20 66 158 161 124 78 48
32 35 97 215 212 168 107 70
39 49 128 271 265 211 140 94
52 70 136 292 294 242 166 115
57 86 126 268 298 261 186 136
57 93 100 216 275 260 196 149
61 103 70 144 224 233 191 152
63 113 40 66 155 186 172 145
51 115 9 -12 83 134 145 132
33 105 -29 -84 8 74 110 110
24 93 -76 -143 -59 15 73 84
9 72 -116 -198 -120 -38 33 53
-7 45 -145 -245 -175 -85 -3 23
-13 25 -161 -268 -206 -113 -26 5
-12 4 -173 -276 -220 -128 -42 -8
-8 -10 -180 -269 -219 -136 -53 -19
-3 -21 -169 -246 -206 -135 -57 -26
-19 -51 -162 -224 -191 -136 -67 -37
-7 -48 -141 -193 -167 -124 -65 -36
-2 -46 -120 -164 -143 -110 -60 -37
7 -32 -96 -134 -118 -91 -51 -33
15 -17 -76 -112 -98 -75 -43 -29
18 -7 -59 -90 -82 -60 -32 -24
-5 -22 -54 -81 -75 -56 -34 -30
-10 -25 -43 -66 -61 -47 -31 -29
-16 -32 -35 -57 -54 -44 -30 -29
-6 -21 -25 -45 -43 -35 -24 -26
1 -11 -15 -33 -30 -24 -14 -18
-6 -23 -11 -29 -26 -22 -14 -19
-10 -24 -9 -24 -22 -19 -11 -16
-17 -28 -10 -23 -22 -19 -12 -16
-23 -30 -12 -26 -23 -22 -16 -20
-14 -19 -7 -20 -19 -18 -11 -16
-17 -23 -9 -18 -19 -18 -12 -15
-17 -21 -5 -15 -15 -16 -11 -14
-23 -26 -6 -17 -17 -17 -16 -19
-16 -20 -1 -12 -14 -14 -9 -14
-13 -19 0 -9 -10 -11 -7 -13
-8 -18 3 -9 -8 -9 -7 -12
-4 -14 3 -10 -10 -10 -5 -9
-7 -13 2 -6 -8 -8 -2 -9
-12 -13 0 -11 -9 -10 -7 -11
-12 -12 -1 -12 -11 -12 -8 -13
-18 -18 -4 -12 -14 -14 -11 -15
-20 -18 -1 -9 -11 -12 -10 -14
-13 -13 2 -8 -9 -10 -10 -14
-10 -11 5 -5 -8 -8 -7 -12
-1 -10 7 -1 -3 -5 -2 -7
-1 -10 11 1 0 0 0 -7
-5 -14 7 -3 -2 -4 -2 -9
-5 -12 6 -1 -2 -3 1 -6
-1 -9 5 -3 -3 -4 -3 -9
-8 -13 4 -5 -6 -6 -3 -9
-20 -23 0 -7 -11 -11 -7 -13
-10 -14 4 -2 -6 -8 -6 -10
-2 -8 7 0 -3 -5 -3 -9
4 -2 11 4 -1 -3 0 -6
11 3 15 9 6 2 3 -2
26 15 20 13 11 9 8 1
-1 -12 11 3 3 0 1 -7
-11 -21 7 0 -2 -5 -4 -11
-11 -19 7 1 -1 -4 -3 -11
-18 -24 4 0 -5 -7 -5 -12
-9 -16 4 0 -6 -11 -6 -15
-1 -6 8 5 -1 -6 -5 -12
-3 -10 8 4 0 -5 -6 -13
-4 -15 7 5 -1 -7 -5 -14
0 -8 13 10 5 -2 -2 -10
8 -2 18 15 11 6 4 -5
17 3 20 18 14 9 7 -1
17 5 20 20 14 10 9 2
10 2 18 17 13 9 5 -2
-5 -13 11 13 7 3 0 -7
-7 -15 10 13 5 1 -3 -8
-13 -23 7 11 3 -2 -7 -12
-6 -16 10 13 6 0 -4 -11
6 -8 16 19 10 3 0 -7
4 -8 17 21 13 6 1 -5
5 -8 20 24 17 11 3 -3
12 -5 21 27 19 14 6 0
17 1 21 29 19 13 6 1
6 -8 18 26 18 11 3 -2
3 -9 17 27 18 12 1 -4
5 -8 15 28 16 8 0 -6
3 -9 13 28 16 7 -3 -8
4 -12 11 26 15 4 -6 -11
10 -8 17 33 19 9 -3 -9
11 -11 19 38 23 10 0 -8
17 -5 23 42 29 16 4 -3
19 -1 23 44 31 19 6 0
25 1 25 51 36 23 10 3
19 -2 23 50 38 23 9 4
23 2 23 53 39 24 8 3
25 -2 17 51 35 18 4 -2
27 -2 18 56 38 20 5 -2
19 -4 19 58 41 22 5 -1
21 -6 24 64 47 28 10 4
31 -1 29 71 53 33 16 9
45 12 30 73 58 37 18 11
58 19 31 75 59 40 22 14
79 40 37 84 67 46 30 24
49 13 26 75 60 38 20 14
21 -13 16 64 48 29 10 4
30 2 17 66 50 29 13 8
40 13 21 71 54 33 17 11
55 24 26 74 58 37 18 13
50 20 26 73 56 37 18 13
55 25 29 77 61 40 23 18
41 10 23 69 54 35 18 13
42 10 22 66 52 36 18 15
51 20 25 69 53 38 23 20
46 19 22 65 50 34 20 17
40 15 19 62 47 33 19 15
22 3 10 51 37 23 11 7
23 0 12 52 37 23 10 9
24 4 13 50 37 25 10 9
32 13 16 50 38 27 13 11
32 13 16 49 37 26 13 12
35 12 19 50 39 30 18 15
41 18 21 50 37 31 20 19
39 19 19 46 34 27 21 18
33 17 17 40 31 25 17 14
32 20 14 35 26 23 14 12
27 21 14 35 24 22 14 13
28 23 16 33 24 22 14 14
27 23 17 31 23 22 13 12
25 22 16 30 20 19 12 12
27 23 15 28 20 18 10 11
29 23 19 29 22 22 13 13
28 22 19 28 21 22 15 14
26 21 19 26 19 22 14 14
24 18 17 22 16 19 11 11
7 9 12 17 11 16 7 7
2 9 9 15 8 12 7 6
16 20 13 18 11 15 8 9
19 23 14 15 10 16 9 10
19 22 15 17 11 16 10 11
21 20 17 17 10 16 7 7
25 23 19 19 14 21 12 11
15 15 14 14 10 17 11 9
22 26 17 16 12 20 13 14
31 34 17 16 12 20 14 15
43 44 19 18 14 21 17 17
33 35 15 13 8 15 12 11
5 13 9 5 0 8 1 2
-27 -17 -1 -5 -11 -4 -10 -8
-13 -4 4 0 -5 2 -4 -4
-8 -4 4 -1 -4 5 -3 -1
-10 -8 6 -1 -3 7 -1 0
-4 -1 7 0 -2 7 0 2
2 3 4 1 -2 7 0 2
2 4 3 -3 -4 6 -1 0
-5 -1 1 -5 -8 3 -3 -2
-8 -5 1 -4 -7 2 -4 -3
-7 -3 0 -5 -9 1 -6 -3
-8 -4 -1 -7 -10 1 -7 -5
-4 -1 3 -3 -7 4 -3 -3
-1 3 4 -2 -5 3 -3 -2
7 3 7 -1 -4 6 0 0
9 5 6 -4 -5 6 0 -1
4 3 6 -2 -5 5 1 1
0 2 4 -5 -6 5 -2 0
-5 0 1 -7 -10 3 -3 -3
-7 -2 -3 -10 -14 -2 -7 -5
-7 -6 -2 -9 -13 -3 -7 -7
-5 -5 -1 -10 -13 -2 -7 -8
-8 -7 0 -9 -14 -1 -7 -7
-9 -5 3 -7 -10 0 -4 -4
-6 -4 6 -5 -7 5 -1 0
-3 -4 5 -5 -6 5 0 0
3 1 4 -5 -7 4 0 -1
4 3 3 -6 -7 2 -1 -1
1 3 1 -8 -10 1 -3 -3
-16 -11 -7 -13 -16 -6 -10 -8
-14 -9 -2 -9 -13 -3 -7 -6
-9 0 3 -5 -9 -1 -6 -4
-8 -7 0 -9 -12 -3 -10 -8
-3 -5 -1 -9 -11 -3 -8 -6
-3 -2 3 -3 -7 4 -1 0
-6 -5 3 -5 -6 3 -3 -1
-1 -6 0 -6 -8 0 -3 -3
-7 -8 -1 -9 -9 -1 -4 -4
1 2 -1 -7 -8 2 -2 -2
9 13 3 -3 -3 5 2 2
1 5 0 -5 -7 -1 -3 -3
-10 -3 -2 -7 -9 -4 -7 -8
-13 -6 -1 -7 -9 -2 -6 -7
-4 -3 2 -4 -6 -1 -3 -2
3 3 4 0 -1 5 2 2
-3 -5 4 -2 -1 5 3 1
1 -2 2 -2 -3 3 2 1
1 1 -1 -3 -3 3 1 1
-2 1 0 -4 -4 1 2 1
2 6 1 -3 -4 1 1 1
4 7 1 -2 -3 1 0 -1
9 15 3 0 -1 4 1 0
18 22 8 5 4 9 8 6
14 16 7 4 4 9 7 5
16 18 9 5 7 12 8 7
19 23 10 7 8 14 11 10
20 22 10 9 8 14 13 12
21 22 9 7 8 11 11 9
21 26 7 5 5 11 9 8
17 27 9 7 7 12 10 9
20 32 15 13 11 15 12 11
21 38 15 14 11 15 13 11
23 39 19 17 15 19 18 16
29 43 23 19 18 22 19 18
31 44 25 21 20 25 23 20
31 44 25 21 21 27 25 21
28 40 21 19 18 23 22 18
23 36 19 16 16 20 20 17
20 37 17 16 13 19 18 16
14 37 17 15 13 17 16 15
19 38 19 16 13 18 16 15
21 42 18 17 14 18 17 15
25 42 20 18 15 20 19 17
27 45 22 19 19 22 21 20
31 46 22 18 19 24 22 21
32 46 22 19 18 25 23 22
32 44 22 19 19 24 23 21
23 36 16 13 15 19 17 16
22 35 13 13 12 19 16 15
20 36 9 11 10 16 15 14
17 30 8 9 9 15 12 11
16 29 9 11 9 15 13 12
20 30 12 13 11 18 16 15
26 34 13 14 15 20 18 19
38 45 15 16 17 24 21 21
32 38 14 15 17 25 24 23
30 34 10 15 17 24 23 22
19 28 5 11 12 18 17 17
14 27 1 9 9 16 14 14
16 23 0 8 7 12 11 13
11 19 0 8 7 11 11 12
9 15 1 7 8 11 11 11
18 18 4 8 8 13 12 13
19 16 2 6 6 10 10 12
19 19 5 7 7 12 12 13
14 17 4 5 6 12 13 13
5 9 1 2 1 7 9 9
5 10 0 1 0 6 7 6
3 11 -1 1 -1 6 3 3
-1 6 -3 -1 -4 1 -1 0
0 4 0 -1 -3 0 -1 0
0 2 -2 -3 -6 -1 -3 -3
6 5 2 0 -4 2 1 0
8 2 3 2 -2 2 2 1
10 2 3 1 -2 2 1 2
12 6 3 0 -2 2 3 3
1 -5 -2 -4 -7 -4 -2 -2
-9 -12 -7 -7 -11 -7 -6 -6
-8 -8 -7 -9 -12 -9 -8 -7
-10 -12 -9 -11 -15 -11 -9 -8
-5 -9 -8 -8 -14 -9 -9 -8
-5 -10 -8 -10 -15 -10 -10 -8
-5 -12 -5 -7 -13 -9 -8 -6
1 -8 -2 -5 -9 -5 -4 -5
1 -12 -4 -6 -9 -6 -5 -5
-3 -13 -6 -7 -11 -7 -4 -4
-8 -12 -7 -8 -12 -8 -6 -5
-16 -19 -11 -12 -14 -12 -9 -9
-22 -22 -12 -14 -17 -13 -12 -11
-19 -22 -15 -15 -19 -15 -14 -14
-17 -21 -13 -15 -19 -16 -15 -13
-10 -16 -11 -12 -15 -12 -11 -10
-2 -11 -8 -8 -12 -9 -7 -6
0 -12 -7 -7 -11 -7 -7 -6
6 -11 -6 -6 -10 -7 -7 -6
6 -11 -5 -4 -9 -8 -6 -6
7 -10 -2 1 -7 -7 -7 -7
-6 -21 -2 3 -7 -12 -16 -16
-24 -34 1 9 -7 -16 -20 -21
-29 -34 7 18 0 -14 -22 -23
-24 -22 15 31 16 -2 -14 -17
-17 -17 17 42 32 15 -3 -10
-9 -13 18 55 49 31 10 0
-5 -10 22 71 69 49 21 9
8 -4 35 104 102 77 40 23
20 8 61 156 149 114 66 43
28 21 92 214 199 154 95 65
29 35 120 267 252 197 126 89
34 52 128 285 281 230 153 110
46 73 113 260 282 247 171 129
54 87 93 212 265 249 183 144
62 99 59 141 217 226 180 147
59 104 23 59 146 180 161 141
38 97 -14 -23 69 122 131 123
17 76 -64 -105 -13 57 89 94
6 62 -113 -169 -84 -3 52 68
-13 36 -150 -218 -143 -57 13 39
-31 11 -175 -263 -197 -103 -24 11
-44 -15 -190 -290 -233 -136 -48 -11
-45 -39 -201 -296 -243 -149 -62 -23
-37 -50 -206 -286 -241 -156 -71 -31
-34 -59 -195 -264 -228 -155 -77 -39
-29 -68 -178 -234 -208 -146 -78 -44
-25 -71 -158 -203 -183 -132 -77 -47
-19 -69 -135 -174 -158 -118 -73 -47
-19 -60 -115 -149 -138 -107 -67 -46
-28 -60 -100 -128 -121 -96 -62 -45
-31 -58 -90 -112 -108 -88 -60 -45
-36 -55 -74 -93 -91 -76 -52 -41
-44 -57 -61 -79 -79 -68 -49 -37
-43 -52 -50 -65 -66 -60 -44 -35
-41 -51 -42 -55 -60 -55 -41 -35
-38 -51 -34 -46 -52 -50 -37 -31
-33 -47 -25 -37 -41 -40 -31 -27
-33 -43 -22 -33 -37 -37 -27 -24
-33 -44 -23 -32 -36 -35 -28 -25
-32 -41 -22 -30 -33 -32 -27 -24
-35 -42 -26 -32 -35 -36 -30 -27
-41 -45 -25 -31 -34 -36 -30 -27
-47 -46 -22 -28 -34 -37 -33 -27
-46 -49 -20 -27 -33 -36 -33 -28
-41 -44 -20 -25 -31 -34 -31 -27
-37 -43 -16 -22 -26 -31 -28 -25
-37 -44 -13 -20 -25 -29 -25 -23
-35 -41 -11 -17 -22 -26 -21 -19
-36 -41 -15 -20 -25 -28 -23 -21
-32 -38 -15 -20 -23 -27 -21 -21
-35 -41 -17 -22 -26 -29 -24 -24
-41 -43 -21 -25 -30 -33 -28 -24
-43 -45 -21 -24 -30 -35 -31 -27
-40 -42 -17 -22 -29 -33 -29 -26
-40 -41 -14 -19 -25 -31 -28 -25
-39 -42 -10 -14 -20 -27 -24 -22
-37 -41 -11 -15 -21 -27 -23 -21
-35 -43 -11 -16 -20 -25 -20 -20
-33 -41 -10 -14 -18 -22 -18 -18
-33 -41 -10 -14 -20 -23 -16 -19
-35 -38 -15 -18 -23 -27 -19 -21
-38 -38 -16 -18 -26 -30 -23 -23
-41 -38 -15 -17 -24 -30 -24 -25
-38 -36 -11 -14 -21 -28 -20 -22
-36 -40 -10 -14 -22 -27 -19 -24
-36 -36 -4 -8 -16 -23 -14 -19
-29 -32 -4 -8 -14 -20 -14 -20
-29 -36 -4 -7 -12 -18 -12 -16
-26 -35 -6 -9 -16 -21 -12 -18
-28 -36 -8 -9 -17 -23 -15 -18
-36 -41 -10 -11 -19 -24 -16 -20
-29 -38 -11 -10 -19 -26 -18 -20
-35 -33 -9 -7 -17 -25 -17 -22
-39 -32 -5 -5 -14 -23 -17 -20
-27 -27 -4 -4 -14 -23 -16 -19
-26 -30 -2 -1 -11 -22 -17 -19
-22 -32 -1 -1 -10 -19 -15 -18
-21 -30 0 1 -7 -17 -11 -14
-24 -29 1 3 -5 -13 -8 -11
-23 -28 1 4 -4 -14 -7 -10
-27 -35 -6 -2 -12 -20 -14 -17
-27 -36 -6 0 -12 -22 -16 -19
-30 -32 -4 3 -10 -19 -15 -18
-28 -29 1 7 -6 -17 -14 -16
-20 -27 3 8 -3 -13 -12 -16
-12 -22 8 15 2 -10 -10 -14
-11 -21 9 17 4 -8 -11 -12
-16 -27 9 17 4 -7 -10 -12
-18 -29 5 16 3 -7 -10 -13
-15 -29 5 18 5 -6 -7 -11
-19 -33 3 16 3 -9 -10 -13
-23 -35 1 16 0 -11 -13 -15
-23 -33 0 17 0 -14 -16 -19
-21 -33 2 20 4 -11 -15 -18
-20 -34 6 24 6 -10 -16 -19
-15 -29 11 29 11 -5 -12 -16
-14 -28 13 35 17 -2 -8 -11
-8 -25 12 36 20 0 -6 -10
-2 -26 11 38 19 -3 -5 -10
-4 -28 10 40 20 -3 -6 -11
-11 -30 6 37 20 -7 -9 -12
-16 -39 2 39 19 -8 -11 -15
-17 -40 3 41 21 -8 -12 -15
-12 -37 6 45 24 -6 -10 -15
-8 -37 9 50 29 -2 -6 -12
-2 -32 13 55 36 3 -3 -8
1 -28 14 57 38 4 -2 -6
0 -30 14 59 39 8 3 -4
3 -23 13 60 40 8 4 -3
4 -24 12 60 41 9 3 -2
5 -26 7 55 38 5 0 -6
-4 -29 5 53 35 2 -3 -9
-8 -31 3 53 32 -1 -6 -10
-5 -32 5 53 34 2 -4 -9
0 -28 7 53 34 3 -5 -8
4 -22 9 55 35 4 -1 -5
7 -19 12 55 38 7 3 0
6 -19 13 55 38 8 6 2
10 -17 10 54 37 8 6 3
8 -16 6 50 34 7 4 1
2 -18 5 45 31 5 2 -1
3 -18 4 44 27 2 1 -1
2 -22 1 40 24 -1 -1 -5
-2 -21 3 39 25 0 -1 -3
-4 -17 4 40 25 2 2 -1
-1 -16 5 37 22 0 1 -3
1 -13 7 36 24 3 3 -1
3 -9 7 36 23 4 6 5
1 -15 5 32 19 3 5 4
1 -12 5 31 18 2 6 3
-7 -17 3 26 15 0 4 1
-12 -16 0 23 10 -4 1 -1
-14 -16 -1 19 8 -4 -2 -3
-16 -14 -2 15 5 -7 -3 -6
-14 -15 -1 12 3 -9 -5 -9
-6 -9 5 17 8 -4 0 -4
-4 -8 8 18 10 0 3 -1
-8 -11 7 15 7 -2 3 0
-12 -11 6 13 5 -2 4 3
-7 -5 4 11 6 -2 4 3
-9 -5 2 8 2 -4 2 1
-15 -9 0 5 -2 -7 -1 -1
-16 -10 -1 2 -4 -9 -3 -4
-15 -3 2 4 0 -6 -2 -4
-16 -6 3 4 -1 -6 -3 -4
-12 -6 5 4 0 -5 -2 -4
-7 -4 5 5 0 -3 1 -2
-12 -8 5 3 -1 -3 1 -2
-13 -5 5 3 0 -2 3 0
-14 -2 4 3 0 -2 2 0
-14 -5 1 -1 -3 -4 1 -2
-15 -9 -2 -3 -6 -8 -3 -4
-17 -10 -1 -3 -6 -8 -4 -5
-18 -9 -2 -5 -8 -9 -6 -7
-19 -8 -1 -5 -9 -9 -6 -8
-12 -6 2 -2 -4 -4 -3 -4
-11 -7 3 -1 -3 -3 -1 -2
-12 -9 2 -5 -6 -5 -3 -4
-10 -6 1 -4 -7 -7 -3 -4
-13 -7 0 -6 -8 -8 -4 -6
-19 -12 -4 -9 -11 -10 -6 -7
-18 -10 -5 -11 -11 -11 -8 -7
-25 -17 -4 -11 -11 -12 -9 -8
-23 -15 -6 -12 -13 -13 -11 -11
-14 -8 -3 -9 -11 -11 -8 -8
-13 -7 -2 -9 -10 -11 -8 -7
-13 -8 1 -7 -7 -8 -6 -5
-10 -6 1 -7 -7 -5 -3 -4
-10 -6 -1 -9 -8 -7 -4 -5
-8 -5 -2 -10 -10 -8 -6 -5
-15 -12 -4 -10 -11 -10 -7 -5
-14 -16 -7 -16 -17 -16 -13 -11
-20 -19 -7 -15 -16 -16 -13 -12
-26 -16 -5 -13 -14 -14 -12 -11
-19 -13 -3 -12 -12 -14 -11 -10
-13 -9 -1 -11 -12 -11 -10 -10
-9 -7 1 -10 -11 -10 -8 -7
-7 -5 4 -6 -7 -6 -3 -2
-9 -7 3 -6 -7 -6 -3 -2
-10 -6 -1 -9 -9 -8 -5 -5
-13 -6 -4 -11 -11 -10 -7 -6
-18 -11 -5 -13 -13 -12 -9 -8
-18 -14 -6 -13 -16 -15 -10 -10
-23 -12 -3 -12 -14 -12 -10 -9
-20 -8 -1 -8 -9 -9 -6 -6
-5 -3 0 -9 -10 -10 -8 -7
-8 -2 2 -6 -7 -8 -5 -3
-6 -4 3 -6 -5 -5 -3 -1
0 -1 3 -4 -4 -4 -2 -1
-6 -2 2 -5 -2 -3 -2 0
-11 -6 -3 -9 -7 -7 -5 -4
-12 -6 -6 -11 -11 -11 -8 -7
-13 -6 -4 -10 -10 -9 -8 -7
-16 -10 -1 -7 -6 -8 -9 -7
-21 -11 0 -6 -5 -6 -6 -5
-16 -8 1 -5 -3 -4 -3 -3
-1 2 2 -3 -1 -2 0 -1
0 1 2 -2 0 -1 0 0
0 3 4 -1 2 -1 2 3
0 2 2 -1 1 -1 1 2
-7 -1 -2 -4 -2 -2 0 0
-8 -1 -3 -6 -4 -5 -2 -2
-13 -5 -5 -8 -5 -7 -6 -4
-9 -4 -1 -4 0 -2 -2 -1
-10 -2 0 -4 -1 -3 -3 -2
-9 -2 3 0 2 0 -1 1
-7 1 7 4 6 5 4 5
3 5 6 4 7 7 6 5
8 10 8 4 7 7 7 6
0 5 5 2 7 6 6 6
-10 -2 2 0 4 4 3 4
-6 5 1 0 3 3 1 2
-5 9 3 0 4 3 2 2
-8 9 5 4 6 5 5 4
-10 15 10 8 10 8 8 5
-6 14 14 10 12 10 8 8
-3 15 18 12 14 12 10 10
-1 19 18 13 17 16 15 13
-1 15 13 10 14 14 13 11
-1 16 12 10 14 13 11 12
-4 19 14 11 15 14 12 11
-2 20 13 10 13 11 12 10
-1 21 11 9 11 10 10 8
-2 22 13 10 11 10 10 8
-3 24 14 12 12 12 11 9
0 26 15 13 16 15 12 10
1 24 15 11 15 13 10 9
-1 23 18 12 17 16 15 14
-1 21 15 12 16 16 14 13
1 16 11 10 15 14 11 10
1 21 12 10 15 15 15 13
-1 21 8 9 13 12 12 11
-1 20 4 6 11 10 9 9
5 22 4 6 11 10 8 9
7 21 6 8 11 11 10 9
16 26 9 10 14 14 13 13
13 29 12 12 17 18 16 16
10 27 12 11 19 18 18 19
15 28 8 10 17 17 18 18
14 22 4 8 17 16 16 15
10 23 2 6 15 16 15 15
7 21 2 10 16 15 15 17
3 17 1 9 14 14 13 13
4 18 2 7 13 13 12 12
6 18 2 7 12 11 10 11
7 12 2 6 11 9 8 9
12 14 4 6 12 11 9 10
5 15 8 9 16 15 14 15
9 14 6 7 12 11 12 12
9 11 4 4 11 9 8 10
0 9 3 3 9 9 7 9
-2 7 4 3 9 8 7 9
-4 4 1 1 4 4 2 3
-3 4 0 -1 2 1 -1 0
0 7 3 0 3 1 -1 0
2 4 4 1 4 1 -1 0
0 1 3 0 4 0 0 1
3 3 6 0 5 2 1 2
4 1 6 1 4 2 2 4
-2 -1 1 -4 1 -1 -1 1
-3 1 1 -5 0 -2 -3 -1
-2 1 -2 -6 -2 -5 -5 -3
-8 -2 -3 -7 -4 -6 -7 -5
-7 -5 -2 -9 -3 -6 -9 -7
-6 -8 -3 -9 -4 -7 -8 -7
-5 -7 0 -5 0 -4 -4 -3
2 -1 3 -3 2 -2 -1 -1
7 6 5 -1 4 1 2 2
7 5 4 -2 3 1 1 2
6 2 2 -3 0 -2 -2 -1
4 2 0 -6 -1 -4 -5 -2
-8 -5 -4 -10 -5 -7 -7 -5
-9 -8 -6 -12 -8 -10 -10 -9
-10 -7 -6 -11 -6 -8 -9 -8
-12 -7 -3 -8 -4 -9 -7 -7
-7 -5 0 -5 -2 -7 -5 -5
-4 -5 2 -4 0 -5 -3 -2
1 -4 3 -1 2 -3 -2 -1
9 -5 5 2 5 -1 -2 -1
7 -7 6 6 6 -3 -5 -6
-1 -9 11 12 9 -4 -9 -11
-6 -5 18 22 14 -3 -10 -12
-14 -4 24 34 23 3 -8 -10
-8 0 24 41 35 12 -3 -7
-1 2 21 49 47 25 6 -2
2 4 25 63 67 44 20 9
15 11 33 85 91 66 34 22
31 17 48 122 127 94 53 36
38 30 79 180 180 137 86 61
40 46 114 243 236 182 120 88
55 64 133 285 280 218 146 107
64 82 132 288 298 244 170 127
66 94 117 254 291 255 184 143
71 104 87 190 254 240 184 149
66 109 57 113 190 199 170 146
54 110 24 29 115 147 147 134
44 110 -8 -48 40 92 116 115
31 100 -53 -120 -34 33 78 90
14 74 -98 -177 -96 -22 42 63
2 53 -132 -224 -149 -66 9 38
-9 33 -154 -260 -192 -105 -20 15
-16 14 -169 -276 -214 -126 -40 -3
-14 -7 -182 -277 -220 -135 -53 -17
-14 -27 -184 -264 -215 -139 -62 -27
-15 -36 -169 -237 -200 -136 -64 -33
-12 -42 -153 -209 -179 -128 -64 -36
-7 -44 -133 -181 -157 -118 -63 -40
-1 -36 -108 -149 -130 -100 -55 -36
1 -34 -90 -124 -111 -87 -49 -32
1 -32 -76 -105 -94 -74 -44 -29
1 -26 -63 -88 -80 -64 -37 -25
-3 -22 -52 -73 -68 -57 -35 -24
-10 -22 -40 -58 -55 -49 -33 -25
-11 -23 -30 -48 -44 -43 -28 -23
-13 -20 -22 -38 -37 -37 -24 -20
-6 -11 -14 -27 -26 -28 -17 -16
1 -7 -8 -22 -19 -22 -13 -13
3 -10 -8 -19 -16 -20 -11 -12
-4 -10 -6 -16 -15 -19 -9 -8
-7 -9 -6 -15 -14 -18 -9 -8
-1 -8 -9 -18 -17 -21 -11 -11
-7 -13 -9 -16 -18 -21 -14 -13
-9 -9 -5 -10 -12 -18 -13 -12
-8 -7 -4 -11 -13 -18 -12 -13
-9 -10 -2 -8 -12 -16 -11 -12
-4 -3 3 -4 -6 -12 -8 -9
3 3 3 -5 -5 -12 -6 -8
3 1 3 -6 -5 -11 -5 -7
3 2 3 -4 -4 -9 -4 -5
2 -2 0 -8 -7 -12 -6 -7
-3 -4 -2 -8 -8 -12 -5 -7
-7 -6 -2 -8 -10 -16 -9 -9
-11 -9 -2 -7 -9 -17 -11 -11
-9 -8 -3 -10 -11 -19 -13 -13
-10 -8 -1 -5 -9 -15 -11 -10
-7 -9 4 -2 -4 -11 -8 -7
-2 -7 7 1 -1 -6 -4 -3
0 -4 9 2 2 -5 -1 -1
4 -4 6 2 0 -6 0 -2
4 -1 5 -1 -1 -9 -4 -4
-10 -6 4 1 -1 -7 -3 -4
-4 -8 2 0 -4 -11 -6 -8
-4 -10 -1 -4 -7 -14 -10 -13
-15 -16 2 -3 -4 -14 -9 -11
-7 -11 5 2 -3 -11 -8 -10
-1 -3 9 5 1 -9 -4 -8
4 -1 10 6 2 -6 -2 -5
6 -1 10 8 4 -3 1 -2
2 -3 13 11 7 -2 2 0
4 -4 11 9 5 -4 1 -1
1 -3 6 6 2 -7 -2 -5
-2 -1 4 5 0 -10 -4 -7
-5 -4 5 6 0 -10 -6 -8
-9 -7 5 6 0 -9 -7 -10
-8 -8 9 10 4 -6 -4 -8
-6 -8 11 12 6 -6 -3 -7
-3 -7 11 11 6 -4 -1 -5
4 -1 13 13 8 -3 1 -3
4 0 15 17 11 1 5 1
6 -4 11 15 10 1 3 -1
4 -3 8 13 7 -2 0 -3
4 -2 8 14 6 -5 -2 -7
-4 -5 9 16 8 -4 -4 -8
-6 -7 9 16 7 -3 -5 -9
-7 -9 11 18 9 -3 -4 -9
-5 -10 13 22 13 1 0 -7
-2 -9 12 22 14 3 -2 -5
2 -6 15 26 17 5 3 -1
6 -3 15 27 19 6 5 1
6 -5 13 25 17 5 2 -1
6 -7 12 26 17 5 1 -3
7 -4 10 28 18 4 2 -4
8 -2 9 29 17 3 -1 -6
4 -4 12 31 20 4 0 -6
5 -7 12 34 21 2 -3 -7
9 -9 15 37 23 4 -1 -6
9 -8 17 41 27 9 2 -3
11 -12 17 43 30 11 5 -1
9 -15 15 44 31 10 4 0
15 -9 16 47 34 13 7 2
17 -7 14 49 35 13 7 1
10 -10 14 51 35 12 5 -2
5 -14 12 52 35 11 2 -4
10 -12 10 50 34 10 0 -6
12 -9 14 56 39 13 3 -4
19 -7 16 58 41 14 4 -4
22 -6 15 60 43 17 7 -2
25 -6 18 64 47 22 11 3
25 -9 15 64 48 22 12 4
25 -8 14 63 47 22 11 4
25 -7 10 61 44 17 9 2
23 -7 10 62 45 17 9 1
22 -5 9 61 44 17 8 0
16 -8 10 60 43 16 8 0
18 -8 12 61 42 16 8 1
24 -3 13 61 43 19 9 2
24 -4 14 60 45 22 13 5
28 0 15 60 45 22 18 9
30 3 13 58 42 20 17 10
30 4 10 55 41 18 16 9
25 0 7 51 38 16 13 7
16 -3 7 51 37 15 11 6
12 -4 6 47 33 13 10 3
14 -3 5 44 32 10 8 2
20 -2 3 40 28 8 5 -1
18 2 9 44 31 14 9 3
16 2 12 43 31 16 13 7
21 5 10 40 29 14 15 9
20 10 11 39 27 14 16 10
15 3 7 31 23 9 13 6
14 2 4 28 19 7 10 3
10 2 4 27 17 7 12 4
3 -1 4 24 14 6 8 2
5 5 7 25 16 7 9 3
6 6 7 23 14 6 7 2
8 6 9 25 17 9 10 5
8 5 10 23 16 9 10 5
7 8 11 23 16 11 13 6
5 9 13 23 17 12 15 8
9 13 10 19 13 10 12 8
9 13 8 16 11 8 10 6
4 10 5 15 8 5 8 4
-6 0 2 8 4 1 1 -1
-10 -1 2 7 3 1 1 -3
-6 5 7 11 5 4 5 1
-6 5 8 9 6 4 4 0
-4 3 8 8 6 5 4 0
6 8 10 12 8 9 10 5
7 12 13 14 11 10 11 9
5 14 11 10 8 7 9 8
1 10 4 5 3 3 5 4
-3 4 3 3 0 -1 0 1
-6 3 3 2 0 0 -1 1
-9 -1 2 1 -1 -2 -1 -1
-7 2 2 2 0 -2 0 -1
-6 5 4 2 0 1 1 -1
-5 2 4 0 0 0 -1 -1
-2 4 8 3 4 5 5 4
1 7 8 6 4 7 6 6
-1 8 6 3 3 6 5 5
1 6 0 -2 -3 -1 1 2
-3 1 -1 -4 -6 -4 -3 -2
-5 2 -1 -4 -5 -5 -5 -4
-8 -2 -4 -7 -8 -8 -8 -8
-8 -1 -1 -5 -7 -7 -6 -6
-8 1 2 -3 -5 -5 -4 -3
-4 3 4 -2 -4 -3 -2 -1
-1 1 4 -3 -3 -2 0 0
1 1 4 -3 -3 -2 0 1
-3 2 2 -4 -4 0 1 2
-2 3 -1 -6 -5 0 1 2
-4 -1 -4 -9 -12 -9 -5 -5
-10 -1 -3 -10 -13 -11 -7 -7
-8 3 -3 -10 -13 -10 -8 -6
-2 7 -1 -7 -11 -8 -8 -5
0 10 3 -4 -7 -6 -5 -3
2 9 4 -3 -5 -4 -2 0
-4 2 2 -4 -5 -2 -1 1
-9 0 6 -1 -2 0 1 3
-6 2 3 -4 -5 -2 0 1
0 3 0 -7 -8 -4 -4 -3
-3 5 0 -6 -8 -5 -3 -2
-12 -1 -2 -6 -8 -5 -4 -5
-15 -3 -2 -6 -8 -5 -4 -5
-10 2 1 -5 -7 -5 -4 -5
-7 3 3 -2 -4 -3 -3 -2
5 10 6 0 -1 -1 0 1
2 7 3 -2 -3 -3 0 0
0 1 2 -3 -4 -4 -2 -1
3 8 5 -1 -1 -1 3 4
-5 3 2 -2 -4 -3 0 2
-14 0 0 -4 -6 -4 -2 -1
-10 2 -2 -6 -7 -5 -4 -5
-10 1 -1 -5 -6 -5 -4 -4
-12 1 0 -3 -5 -4 -5 -5
-14 1 0 -4 -5 -5 -4 -4
-3 8 2 0 0 0 1 1
5 13 4 1 1 3 6 6
3 7 4 1 1 2 6 6
2 9 2 1 2 2 6 5
0 10 -1 0 -1 1 4 4
-6 4 -3 -3 -3 -3 -1 0
-10 2 -1 -1 -2 -2 -2 -1
-10 4 -2 -1 -3 -3 -1 -1
-10 6 -1 -1 -2 -2 -1 1
-5 6 2 2 3 1 1 2
-4 5 6 5 5 5 4 6
1 9 9 8 8 8 10 11
5 14 9 8 10 10 12 12
7 13 7 7 9 8 10 10
2 11 4 5 4 6 8 8
-3 10 2 3 3 4 5 6
-7 10 5 5 4 5 4 6
-6 15 8 7 7 6 7 6
-6 16 10 10 9 7 8 8
-4 17 14 12 12 11 10 10
-3 19 16 12 13 14 12 12
3 21 15 13 14 14 14 14
8 24 17 16 16 17 18 16
6 25 17 15 15 17 16 15
3 27 14 11 11 12 11 11
2 28 13 11 10 8 11 10
-3 21 11 8 7 7 9 7
-6 23 11 8 8 8 9 7
-7 26 12 11 10 9 10 7
-6 21 13 9 10 10 11 7
-1 20 13 10 11 13 13 10
4 20 13 9 11 11 12 10
8 23 13 10 12 11 11 9
13 29 14 11 14 14 14 13
9 24 10 9 10 13 12 12
4 22 6 7 9 10 11 12
-3 20 2 5 6 7 9 8
-4 17 0 2 4 5 6 6
-1 17 5 6 7 7 9 7
2 23 10 10 12 11 14 12
8 27 10 10 12 14 15 12
16 29 4 6 10 13 14 11
15 27 4 6 11 12 17 15
15 30 4 8 13 14 20 17
16 32 1 8 10 14 17 15
9 25 0 7 10 11 13 13
3 21 0 7 9 12 13 10
0 19 -2 5 7 9 10 10
-2 13 -2 3 3 6 8 8
6 17 1 4 6 5 8 8
8 13 1 3 4 5 8 6
3 11 3 4 7 8 10 10
5 15 5 6 9 11 13 12
7 18 3 4 6 8 11 11
7 20 2 3 2 4 9 9
-4 11 0 0 1 0 6 5
-7 8 0 0 -2 -3 3 0
-7 8 0 -1 -2 -2 2 -1
-8 7 2 -1 -2 -2 0 -2
-6 7 2 -1 -1 -1 0 -4
-4 4 2 -1 -2 -1 2 -3
-4 0 0 -6 -4 -4 0 -4
2 5 1 -4 -3 -2 1 -1
3 2 0 -4 -4 -3 1 -1
-2 -3 -3 -7 -8 -4 0 -3
-4 1 -4 -8 -8 -6 -1 -4
-8 -7 -7 -11 -13 -11 -7 -10
-8 -7 -5 -11 -12 -10 -7 -10
-9 -1 -3 -10 -11 -10 -4 -7
-6 -2 -2 -10 -10 -10 -5 -8
-3 1 -1 -7 -7 -6 -1 -6
-4 0 0 -6 -6 -5 1 -4
0 2 0 -5 -5 -3 2 -1
-1 1 -2 -6 -7 -5 -1 -4
-9 -6 -3 -9 -9 -7 -2 -5
-9 -10 -6 -11 -12 -11 -6 -8
-9 -11 -9 -13 -13 -12 -8 -10
-11 -9 -7 -12 -12 -12 -7 -10
-14 -7 -6 -10 -11 -10 -6 -9
-12 -7 -3 -9 -9 -8 -6 -8
-5 -4 -1 -8 -7 -6 -4 -7
8 0 -2 -6 -7 -7 -5 -7
5 -7 1 -2 -5 -6 -6 -8
2 -11 4 3 -3 -8 -7 -11
-3 -12 8 11 1 -8 -10 -14
-10 -11 15 21 8 -5 -11 -16
-19 -7 22 33 20 3 -7 -13
-23 -9 21 39 30 12 -2 -11
-8 0 21 49 44 26 7 -3
4 5 23 61 61 41 19 6
10 7 30 84 86 63 36 17
25 18 46 123 124 93 57 34
41 37 73 180 174 135 86 58
51 53 106 242 230 182 120 85
55 65 129 287 275 221 149 109
58 77 125 281 285 239 168 125
66 94 107 241 275 247 181 141
69 102 82 177 233 227 179 146
66 105 52 97 165 183 160 137
54 112 20 17 94 134 138 126
40 113 -9 -60 19 78 107 108
25 99 -48 -126 -49 22 73 85
18 79 -91 -179 -106 -27 38 60
-6 49 -127 -228 -159 -72 5 33
-12 32 -149 -259 -197 -105 -22 11
-23 11 -165 -273 -217 -124 -41 -5
-24 -10 -177 -274 -223 -135 -54 -19
-21 -28 -179 -263 -219 -139 -64 -31
-18 -37 -167 -237 -205 -136 -70 -39
-15 -45 -150 -209 -181 -126 -70 -42
-8 -46 -132 -180 -160 -113 -67 -44
-4 -42 -111 -151 -135 -99 -59 -40
1 -31 -88 -121 -110 -81 -48 -34
-1 -23 -73 -105 -96 -69 -41 -30
-7 -21 -63 -88 -84 -61 -36 -28
-10 -19 -51 -72 -70 -54 -32 -25
-11 -21 -43 -61 -61 -49 -33 -27
-14 -21 -34 -51 -53 -44 -32 -27
-11 -15 -25 -41 -43 -37 -28 -24
-10 -11 -19 -33 -35 -30 -24 -21
-6 -10 -13 -27 -28 -23 -19 -17
-4 -9 -9 -22 -23 -19 -14 -12
0 -5 -8 -17 -20 -17 -11 -9
5 -1 -7 -17 -19 -14 -11 -9
2 -3 -8 -17 -20 -17 -12 -10
-8 -8 -7 -14 -19 -17 -13 -12
-12 -8 -7 -14 -18 -18 -15 -14
-11 -9 -8 -16 -20 -20 -17 -17
-8 -10 -6 -12 -18 -19 -17 -17
-10 -12 -3 -11 -17 -17 -16 -17
-9 -13 -1 -11 -15 -14 -14 -14
-3 -3 2 -7 -11 -10 -8 -9
-2 -4 1 -6 -9 -10 -8 -8
-1 -6 -1 -9 -11 -11 -9 -9
0 -3 -1 -10 -13 -13 -9 -8
-7 -7 -3 -11 -14 -16 -12 -10
-10 -8 -2 -9 -13 -13 -12 -12
-16 -6 -2 -9 -14 -13 -12 -12
-12 -5 0 -7 -12 -14 -13 -12
-11 -6 2 -5 -11 -13 -12 -12
-11 -11 3 -5 -9 -10 -11 -11
-3 -5 6 -3 -7 -8 -6 -6
7 1 5 -2 -5 -7 -4 -4
3 -3 1 -5 -8 -10 -7 -6
-4 -7 1 -4 -9 -11 -8 -6
-9 -10 0 -4 -10 -12 -9 -8
-9 -9 -1 -5 -10 -13 -12 -11
-10 -7 0 -4 -11 -12 -12 -13
-13 -15 -3 -6 -14 -17 -17 -17
-9 -8 3 0 -9 -12 -12 -13
-2 0 7 4 -3 -6 -6 -7
-1 0 9 6 -1 -5 -2 -4
4 1 8 6 -1 -4 -2 -3
0 -1 7 4 -2 -3 -3 -4
-3 -4 5 4 -3 -6 -5 -5
-8 -8 3 3 -6 -10 -9 -10
-10 -9 1 3 -7 -11 -12 -12
-7 -4 4 4 -4 -10 -10 -11
-6 -4 4 5 -4 -9 -10 -11
-3 -2 7 7 -2 -7 -8 -10
2 4 10 9 1 -3 -3 -5
5 3 11 10 3 0 -1 -3
7 0 10 11 3 0 -2 -3
4 -1 8 10 2 -3 -4 -4
0 -2 5 8 -1 -6 -6 -7
-5 -4 6 12 1 -4 -6 -7
-7 -6 5 11 -1 -7 -11 -11
-9 -10 3 8 -2 -11 -13 -13
-13 -15 6 12 0 -8 -11 -12
-5 -11 10 17 5 -3 -8 -10
6 -6 12 18 7 -1 -7 -8
4 -3 12 21 10 2 -3 -3
2 -7 13 24 12 3 0 -2
10 -3 11 22 12 4 1 -2
8 -5 9 22 11 2 -2 -4
5 -5 8 25 11 0 -5 -5
0 -9 8 26 11 1 -6 -8
-3 -13 7 25 10 -1 -10 -11
-3 -14 9 30 12 -1 -10 -11
0 -14 12 34 17 3 -8 -9
6 -11 14 36 20 6 -4 -7
13 -8 15 40 25 10 0 -4
14 -5 16 44 29 13 3 -1
11 -8 15 44 29 11 2 0
15 -6 14 47 30 10 2 0
14 -8 11 47 30 8 -1 -3
10 -11 11 46 30 8 -3 -5
3 -13 9 47 29 7 -4 -8
7 -14 8 50 31 8 -3 -7
18 -10 13 54 38 13 1 -3
19 -9 16 57 41 17 4 1
21 -10 14 59 41 17 4 1
29 -4 15 62 44 19 7 5
30 -4 13 58 42 19 6 5
24 -6 10 58 41 17 7 5
19 -9 9 57 39 14 4 2
20 -7 8 56 38 14 3 1
15 -5 10 56 40 15 4 2
20 -3 10 57 39 14 4 2
22 -7 9 53 37 12 2 -1
23 -6 10 53 37 15 5 2
24 -1 9 52 36 16 6 3
29 -2 10 53 36 19 9 7
26 -3 10 51 36 20 11 10
19 -3 8 50 34 19 11 11
17 -3 7 47 31 16 8 8
16 -4 6 45 29 14 4 5
14 -4 4 40 25 11 3 3
9 -4 8 43 27 12 6 5
9 -6 10 41 27 13 5 5
18 -2 9 37 24 14 7 6
20 2 9 36 23 14 9 8
16 0 8 35 23 16 11 11
15 3 7 32 21 15 10 10
13 5 7 29 17 10 7 9
10 1 4 26 14 7 4 6
10 0 1 20 9 4 -1 1
3 -1 3 19 9 4 0 1
2 1 4 19 8 2 0 1
3 7 7 20 10 4 2 4
7 9 10 20 10 7 5 6
7 9 11 19 10 8 7 7
5 8 11 19 11 8 9 10
7 6 8 15 8 8 7 9
7 7 8 15 6 7 5 8
1 2 6 12 4 4 2 4
1 4 4 9 1 2 -2 1
-5 2 5 7 -1 2 -2 0
-8 3 6 8 -1 0 -2 0
-5 8 11 10 3 4 2 3
-2 7 11 9 3 6 3 4
-2 4 8 7 2 5 4 5
4 11 9 8 4 7 7 8
0 8 7 6 3 6 6 8
3 6 4 3 0 4 2 5
-7 0 3 3 -2 0 -1 4
-10 -1 4 2 -2 1 -2 3
-9 0 4 1 -4 0 -3 0
-12 -3 4 2 -3 0 -3 0
-17 -8 5 0 -3 -2 -2 1
-5 3 7 2 -1 3 1 3
4 6 6 1 -1 3 1 3
4 6 6 2 1 5 4 6
-1 3 5 2 0 4 2 5
-2 2 4 0 -3 1 1 5
-4 5 2 -2 -5 -2 -2 2
-11 0 1 -4 -8 -5 -3 0
-18 -5 1 -4 -8 -5 -5 0
-17 -7 2 -3 -8 -6 -4 0
-16 -8 -1 -7 -10 -8 -8 -5
-6 -3 2 -4 -7 -4 -4 -1
-5 -5 3 -5 -8 -3 -3 1
-3 -4 2 -5 -8 -3 -3 2
5 4 3 -6 -7 -2 -1 2
-1 0 1 -7 -9 -5 -2 1
-10 -3 1 -8 -11 -8 -4 0
-17 -3 1 -8 -12 -8 -5 -2
-20 -6 -1 -11 -13 -10 -8 -5
-12 -4 -1 -8 -12 -10 -9 -6
-14 -4 2 -8 -11 -8 -8 -4
-11 -5 4 -6 -8 -5 -4 -1
-4 -2 4 -6 -8 -3 -3 1
-2 2 6 -3 -6 -3 -1 3
-2 6 6 -5 -7 -2 -1 3
0 6 5 -4 -6 -2 -1 4
-3 2 -1 -8 -11 -7 -6 -1
-8 -2 -3 -8 -12 -9 -8 -4
-10 -3 -3 -9 -12 -9 -9 -5
-13 -6 0 -5 -9 -8 -7 -3
-8 -2 3 -4 -7 -6 -6 -2
-5 -1 5 -2 -4 0 0 2
-5 -1 5 -2 -4 -1 0 4
-2 1 4 -2 -5 -3 0 5
-3 0 1 -3 -5 -2 0 5
-1 2 1 -4 -6 -4 -1 5
-6 1 0 -5 -8 -5 -3 3
-9 -1 -2 -6 -9 -7 -6 -2
-10 -3 -4 -9 -10 -7 -8 -4
-16 -4 0 -4 -7 -4 -5 -1
-16 -3 -1 -3 -6 -4 -3 0
-7 5 2 -2 -4 -2 1 3
-5 3 5 0 -2 -1 3 5
0 2 3 0 -1 0 4 6
1 2 4 1 1 2 5 9
-4 1 3 0 -1 1 4 9
-2 4 1 0 -2 0 1 6
-4 8 -1 -1 -2 0 1 5
-8 8 0 -1 -2 0 1 4
-6 5 1 1 -2 -1 1 4
-5 3 1 1 0 -1 1 5
-1 5 5 2 2 4 6 9
1 6 5 4 3 5 7 9
3 6 6 5 6 7 11 13
6 9 6 6 6 7 11 13
2 8 2 3 2 4 7 10
1 8 3 3 2 4 7 10
0 9 3 2 1 4 6 9
-11 8 6 5 3 6 7 9
-6 17 8 9 7 9 9 12
-5 19 11 12 11 11 11 14
0 19 12 11 11 12 12 14
10 24 14 12 12 13 15 17
8 20 14 13 13 13 16 18
4 17 11 10 11 10 13 16
-4 18 12 11 11 12 15 17
-7 15 11 8 7 8 10 12
-3 15 11 8 6 5 8 10
-5 16 11 8 6 4 7 10
-7 18 14 11 8 7 11 13
-2 24 17 13 10 11 14 15
0 24 19 14 14 14 17 18
-1 21 16 13 14 15 18 19
2 19 15 12 12 14 16 19
5 18 14 11 11 13 16 19
7 17 13 9 10 13 14 18
0 15 8 6 7 8 12 14
-4 13 6 5 5 7 11 14
-5 16 6 6 8 8 11 15
-4 13 5 6 6 6 9 12
-2 13 4 6 7 7 10 13
0 17 10 11 12 13 15 19
6 20 9 9 12 14 17 21
18 26 9 11 13 15 19 22
17 26 8 10 13 15 20 24
11 23 3 6 8 11 17 22
6 26 2 9 11 13 18 24
4 19 0 7 11 11 16 21
5 16 1 8 10 12 15 20
5 16 2 9 10 11 14 18
2 10 0 5 7 7 11 15
12 14 1 5 6 8 12 16
7 13 4 6 8 11 16 20
10 14 6 8 9 11 18 21
8 14 4 3 6 10 17 20
2 12 2 2 3 7 14 17
-1 13 2 2 4 5 12 13
-5 7 1 2 1 2 8 10
-6 0 0 -1 0 1 5 7
-10 -1 1 0 -1 -2 4 7
-10 -5 -1 -2 -3 -3 2 5
-10 -4 4 1 0 0 5 8
-1 -1 3 -1 -1 -2 6 9
7 1 3 -1 -1 -1 6 9
3 -1 3 -4 -2 -3 4 8
-2 -4 0 -5 -5 -5 3 8
-6 -10 -1 -7 -9 -8 -1 4
-7 -9 -3 -10 -12 -12 -4 0
-13 -12 -6 -13 -15 -15 -8 -4
-9 -9 -5 -11 -13 -14 -6 -1
-12 -12 -1 -9 -11 -11 -4 0
-9 -15 -1 -9 -11 -10 -3 1
-6 -11 1 -7 -7 -7 1 5
-4 -5 2 -4 -4 -4 3 7
-3 -6 -2 -7 -5 -5 2 7
-2 -6 -4 -8 -9 -8 0 5
-13 -12 -4 -9 -9 -9 -3 2
-12 -9 -4 -8 -8 -8 -2 0
-9 -5 -4 -9 -10 -9 -2 0
-11 -11 -5 -9 -11 -10 -4 -3
-9 -13 -6 -11 -10 -10 -5 -4
-3 -9 -3 -8 -8 -8 -1 3
-3 -8 1 -5 -4 -3 3 7
1 -9 2 0 0 0 5 8
-1 -16 -1 -2 -3 -5 0 4
2 -14 1 2 -4 -8 -4 -1
-2 -16 5 7 -2 -11 -10 -8
-11 -17 14 18 5 -8 -10 -9
-18 -11 22 31 18 -1 -6 -6
-17 -10 24 41 29 9 0 -3
-8 -7 23 48 43 23 10 3
3 2 26 63 63 43 25 16
7 1 28 80 83 62 39 27
21 10 42 117 119 91 60 44
35 26 69 172 169 132 90 68
45 41 98 232 222 175 122 92
54 59 126 284 272 217 152 117
59 72 126 288 292 242 174 135
63 84 108 253 283 250 187 149
73 98 88 198 253 241 192 159
67 102 62 120 189 201 177 154
64 112 32 39 119 154 156 143
45 107 4 -36 47 102 127 128
28 95 -36 -107 -26 42 90 104
18 76 -83 -165 -89 -12 54 78
-4 49 -123 -216 -144 -60 18 49
-25 20 -149 -257 -191 -101 -15 23
-31 6 -163 -272 -213 -122 -33 7
-33 -15 -174 -275 -220 -132 -46 -5
-22 -31 -176 -263 -218 -138 -56 -17
-16 -36 -167 -241 -205 -136 -61 -25
-7 -44 -152 -213 -184 -125 -60 -28
0 -46 -136 -186 -162 -113 -58 -31
3 -40 -113 -155 -137 -98 -50 -28
0 -37 -94 -129 -117 -85 -45 -26
-4 -34 -78 -110 -99 -73 -39 -23
-8 -34 -68 -95 -89 -68 -39 -24
-9 -31 -57 -80 -77 -62 -37 -24
-12 -29 -45 -66 -64 -53 -35 -23
-13 -24 -34 -54 -54 -46 -30 -21
-10 -18 -22 -39 -41 -34 -22 -16
1 -14 -16 -31 -32 -26 -17 -11
-2 -17 -12 -25 -27 -21 -12 -7
-1 -12 -8 -21 -21 -19 -7 -4
-3 -13 -7 -19 -20 -17 -7 -4
-2 -9 -6 -18 -18 -15 -6 -2
-8 -12 -10 -18 -21 -19 -9 -6
-13 -17 -11 -18 -22 -21 -13 -10
-15 -19 -10 -18 -20 -21 -14 -11
-15 -18 -7 -17 -19 -19 -13 -11
-14 -14 -3 -13 -17 -17 -12 -10
-10 -13 0 -11 -12 -13 -7 -7
-6 -14 0 -11 -11 -10 -6 -6
1 -7 2 -5 -8 -7 -1 -1
-8 -10 4 -5 -8 -8 -1 2
-8 -9 2 -8 -10 -11 -3 -1
-4 -8 -2 -12 -14 -15 -7 -6
-10 -13 -6 -14 -17 -19 -12 -10
-18 -19 -6 -13 -17 -19 -13 -12
-13 -15 -2 -9 -13 -16 -10 -9
-13 -19 0 -8 -13 -15 -11 -10
-11 -17 2 -5 -7 -12 -8 -7
-5 -12 5 -4 -6 -7 -2 -3
-2 -9 7 -1 -3 -4 2 2
-1 -5 5 -2 -4 -5 0 1
1 -1 5 -1 -1 -4 3 2
-2 -4 3 -3 -5 -8 -2 0
-7 -9 0 -5 -8 -13 -7 -6
-10 -11 -2 -6 -10 -13 -10 -9
-9 -11 2 -3 -7 -12 -6 -7
-4 -12 3 -2 -6 -11 -6 -7
-1 -7 6 0 -2 -8 -4 -5
-8 -5 8 3 0 -3 1 -1
-6 -7 11 5 3 -1 5 2
1 -6 9 5 2 -1 5 2
5 -3 6 2 -1 -4 1 0
-11 -9 6 4 -2 -4 1 0
-12 -12 5 4 -2 -8 -3 -4
-9 -10 3 1 -5 -10 -6 -8
-9 -11 5 3 -4 -9 -6 -8
-5 -7 7 5 -1 -7 -4 -7
-3 -8 10 8 3 -4 -1 -4
-3 -10 9 7 1 -4 -1 -2
-1 -8 9 9 3 -2 2 0
-4 -10 11 10 4 -1 2 1
3 -7 9 10 5 1 3 1
1 -8 6 10 4 -2 1 0
-3 -9 6 10 3 -4 -3 -4
-3 -8 6 10 3 -5 -5 -6
-6 -11 6 14 5 -3 -3 -4
-5 -10 11 18 9 0 -1 -3
-3 -11 14 20 12 2 1 -2
3 -6 14 21 13 4 3 1
12 1 17 25 17 7 8 5
16 5 16 26 18 8 8 4
11 -5 10 21 12 3 2 0
-4 -19 5 18 8 -1 -3 -5
-12 -22 7 21 11 0 -2 -3
-7 -20 7 23 12 0 -4 -6
-4 -17 10 26 14 1 -3 -5
-3 -17 13 30 17 3 -1 -5
8 -10 17 35 21 5 1 -2
12 -12 16 35 21 6 2 -1
17 -5 18 40 26 11 7 4
14 -7 17 43 30 14 8 5
11 -12 15 44 31 13 8 4
10 -14 10 41 27 9 3 -1
8 -16 8 42 27 6 -1 -3
4 -19 8 46 28 7 -1 -6
9 -14 11 49 32 10 1 -5
12 -14 13 55 37 13 3 -2
22 -8 18 61 43 19 7 1
31 -4 18 63 46 22 12 6
29 -3 18 64 49 24 15 8
31 -5 16 64 47 24 14 8
30 -6 13 61 45 22 12 6
21 -8 9 59 41 19 9 5
20 -9 7 59 41 17 7 3
18 -10 6 57 41 17 6 1
19 -9 5 56 39 16 6 1
21 -8 7 57 40 16 6 2
22 -7 12 60 45 21 11 7
26 -3 13 62 48 26 16 12
33 -1 13 60 46 25 17 14
33 -1 12 57 44 23 16 13
29 -2 9 55 42 23 15 12
18 -10 5 49 36 18 12 8
16 -11 2 47 33 13 7 4
16 -7 4 46 32 14 8 5
15 -6 6 45 31 14 9 7
19 -1 7 44 30 14 11 8
21 3 7 42 31 16 13 8
19 4 10 43 31 18 16 12
26 6 11 43 31 18 17 14
22 3 8 38 27 14 13 11
19 1 7 36 25 13 13 12
21 7 6 33 20 11 11 10
15 4 5 29 19 9 9 8
7 2 1 23 14 5 5 3
11 7 4 24 13 6 6 3
9 4 5 23 14 5 7 3
16 11 11 26 20 11 12 10
16 12 12 24 18 11 12 12
20 16 13 23 18 12 15 13
11 13 10 20 14 10 13 11
10 10 5 15 9 6 9 7
8 9 3 13 7 4 7 7
8 12 5 13 9 5 8 7
0 7 4 10 5 2 4 4
-4 7 5 10 5 3 4 3
-15 -2 3 7 3 1 2 -1
0 4 8 9 7 5 6 3
7 10 11 11 8 6 7 8
3 10 12 12 10 8 10 9
5 10 9 9 8 6 10 10
7 9 5 5 5 4 8 8
-1 7 3 4 2 1 3 4
-1 8 4 4 3 1 3 2
-6 4 3 2 0 -1 0 1
-3 4 4 2 1 -1 -1 0
-2 3 4 2 -2 -3 -2 -1
-1 1 6 2 1 0 1 2
4 8 9 4 3 3 4 5
3 10 9 5 2 3 5 6
1 4 6 2 0 1 3 3
1 3 5 1 0 0 3 2
-4 -1 2 -3 -5 -5 -1 0
-4 2 1 -3 -5 -5 -2 0
-6 1 1 -4 -6 -7 -5 -4
-4 1 0 -5 -7 -7 -7 -6
2 6 -1 -4 -5 -6 -6 -4
3 8 5 0 0 -1 1 0
-3 4 8 1 1 2 4 4
1 7 9 3 2 3 7 8
7 6 5 -2 -2 -2 1 2
1 2 0 -6 -5 -7 -1 0
-7 -1 -3 -8 -9 -9 -4 -2
-3 5 -1 -6 -6 -7 -4 -3
-2 7 0 -6 -6 -7 -5 -5
-5 4 2 -5 -6 -5 -4 -4
-4 3 4 -5 -6 -5 -3 -3
1 6 4 -5 -6 -5 -3 -2
-3 4 4 -4 -5 -4 -1 -2
6 9 6 -2 -4 -3 3 3
5 6 6 -4 -5 -6 -1 0
0 5 4 -5 -5 -6 0 -1
1 8 1 -6 -8 -8 -2 -3
-4 2 -2 -8 -10 -11 -7 -6
-10 -1 -2 -8 -10 -11 -8 -7
-6 1 0 -7 -8 -8 -6 -5
-9 -1 3 -7 -8 -8 -6 -4
-5 5 6 -4 -6 -6 -3 -1
1 9 4 -4 -4 -5 -1 -1
9 10 6 -1 0 0 1 2
6 10 6 1 1 0 2 3
3 6 3 -2 -1 -1 0 2
-3 5 1 -3 -3 -4 0 1
-6 3 1 -4 -5 -6 -2 -1
-17 -3 -1 -7 -9 -8 -5 -5
-12 -3 0 -7 -7 -8 -5 -4
-8 -2 2 -5 -5 -6 -4 -3
-3 3 6 0 1 1 1 0
2 12 7 3 4 4 6 3
6 12 8 5 6 5 8 6
9 9 4 2 3 3 5 4
10 11 4 2 4 3 4 4
-2 7 3 1 3 2 4 3
-2 6 1 1 2 1 2 1
0 5 1 0 2 0 0 0
-1 4 4 2 3 2 2 1
-1 6 6 3 3 2 2 0
2 8 7 3 4 4 3 3
6 14 9 5 6 5 8 6
9 16 10 8 10 8 10 7
6 14 8 6 9 8 9 8
13 20 7 6 9 8 9 8
8 19 5 5 8 6 8 7
-1 12 4 5 7 6 7 7
-9 9 4 4 6 4 5 5
-4 12 7 6 9 7 6 6
-2 14 12 10 12 11 10 7
3 21 18 15 17 17 16 13
7 22 16 13 16 16 15 14
12 21 17 16 18 18 18 14
14 23 16 15 17 18 17 14
10 22 16 13 15 16 17 14
5 22 16 12 14 13 15 11
5 24 13 11 12 10 11 6
0 24 14 10 11 10 10 4
1 24 16 12 13 11 10 5
-3 26 18 13 14 12 11 6
2 27 21 18 20 20 16 13
4 25 20 17 20 20 16 14
11 26 20 18 22 20 17 16
16 27 19 17 21 22 18 17
13 24 15 12 16 17 15 13
8 24 12 11 15 16 14 13
8 26 13 14 17 17 15 14
3 25 9 11 14 15 13 13
3 26 6 8 13 12 11 10
10 27 6 8 13 11 9 9
16 28 10 12 16 14 13 12
17 28 13 13 17 17 15 13
18 26 12 13 18 18 17 15
20 32 14 16 21 22 21 20
17 33 11 14 19 20 21 18
17 29 7 10 15 16 17 14
16 31 5 12 16 17 16 13
16 32 3 12 16 16 14 12
24 32 1 10 14 14 12 9
13 32 7 15 19 19 16 13
13 30 10 16 19 19 15 13
19 27 9 12 17 16 15 14
20 23 7 10 15 14 16 15
22 24 8 11 15 14 16 16
18 23 7 9 13 13 14 14
7 20 5 7 11 9 10 9
2 15 3 6 9 8 8 7
1 12 2 4 6 5 3 2
6 12 1 4 5 2 1 0
2 13 5 7 9 4 3 3
3 11 9 9 12 8 6 6
6 12 10 9 12 11 8 7
14 15 8 7 8 8 7 6
7 7 6 4 8 6 6 5
3 4 5 4 6 4 4 2
8 4 0 -1 0 -2 -2 -4
1 -5 -1 -4 -3 -6 -5 -6
-5 -3 -3 -6 -4 -7 -6 -8
-1 2 -1 -4 -2 -6 -5 -8
-1 2 2 0 1 -2 -5 -5
5 9 6 1 3 -1 -3 -2
4 5 2 -2 0 -3 -4 -3
7 4 5 0 2 0 0 0
11 11 8 3 7 4 3 2
10 10 6 1 4 2 1 1
9 7 0 -2 -1 -1 -2 -2
5 6 -2 -6 -4 -6 -7 -5
-1 2 -2 -6 -4 -6 -7 -6
0 2 -1 -4 -2 -4 -5 -6
-6 2 1 -1 -1 -3 -4 -5
0 5 4 0 2 -2 -3 -3
5 5 3 0 2 -1 -3 -2
15 8 4 1 3 0 -1 0
15 4 5 2 3 1 0 1
12 0 4 1 1 -3 -3 -2
3 -3 4 3 -2 -9 -10 -11
-2 -6 10 11 4 -9 -13 -14
-4 -4 17 22 11 -5 -12 -15
-6 1 25 36 23 2 -8 -12
-8 6 31 47 36 13 -2 -8
3 7 30 54 51 28 8 1
15 10 30 66 68 47 23 11
28 18 33 84 90 66 37 22
33 27 45 119 125 98 58 40
40 40 71 172 174 138 88 61
50 55 98 227 223 177 115 81
65 78 129 283 277 226 151 110
67 92 135 296 306 259 179 133
65 99 117 263 301 268 193 147
70 108 95 211 275 264 199 157
77 120 70 140 221 233 190 158
72 127 41 61 151 185 169 148
58 128 11 -15 78 130 143 134
41 122 -27 -85 2 70 106 111
27 99 -75 -148 -67 7 65 83
3 68 -116 -202 -128 -46 24 52
-8 48 -144 -247 -182 -93 -12 22
-14 31 -159 -270 -212 -122 -35 3
-13 16 -169 -272 -220 -131 -48 -9
-5 2 -175 -264 -218 -137 -57 -20
1 -14 -166 -240 -205 -134 -63 -25
7 -26 -155 -214 -186 -127 -66 -32
12 -27 -137 -183 -161 -112 -62 -32
8 -27 -115 -154 -138 -97 -56 -33
5 -24 -93 -128 -116 -83 -51 -30
7 -18 -80 -111 -101 -75 -47 -30
7 -11 -67 -92 -85 -64 -40 -26
6 -8 -54 -77 -72 -57 -38 -26
5 -5 -40 -61 -59 -49 -35 -25
5 -2 -32 -49 -49 -40 -29 -23
12 5 -20 -35 -36 -31 -22 -16
8 0 -12 -28 -27 -26 -19 -14
10 -1 -9 -24 -23 -23 -16 -12
12 4 -5 -16 -17 -19 -11 -9
8 1 -5 -15 -17 -19 -12 -10
3 -3 -6 -16 -17 -18 -13 -10
-2 -4 -6 -14 -15 -18 -12 -10
-7 -5 -9 -15 -18 -21 -17 -13
-3 -3 -4 -10 -13 -17 -17 -13
-8 -7 -2 -8 -12 -15 -15 -13
2 1 4 -4 -7 -12 -12 -11
12 7 5 -2 -6 -10 -10 -9
13 5 6 -2 -5 -8 -7 -6
10 3 3 -2 -4 -7 -6 -4
5 0 3 -2 -4 -7 -6 -4
3 -3 0 -6 -9 -12 -10 -6
-1 -1 -1 -7 -10 -13 -10 -8
-4 -2 -3 -8 -10 -15 -13 -10
-4 -3 0 -5 -7 -13 -12 -11
3 3 2 -5 -8 -13 -13 -12
7 3 5 -1 -5 -11 -9 -8
4 4 10 4 0 -7 -5 -4
13 10 12 5 4 0 0 0
13 7 11 5 3 -2 -2 0
11 6 8 2 0 -4 -4 -2
3 0 5 0 -2 -7 -8 -7
2 1 3 0 -3 -7 -9 -7
0 3 2 0 -3 -10 -10 -9
1 2 3 2 -2 -9 -10 -8
4 2 5 3 -2 -9 -11 -8
9 3 8 7 2 -6 -8 -5
9 11 13 10 5 -3 -4 -2
16 15 18 13 10 3 1 2
20 13 12 9 5 -1 -1 -1
14 8 9 8 4 -3 -1 0
4 5 6 5 0 -8 -7 -6
6 7 6 7 1 -7 -7 -6
3 6 6 5 -1 -9 -9 -9
1 3 8 8 2 -7 -9 -8
2 2 9 9 3 -7 -8 -9
4 -1 11 12 5 -5 -6 -7
5 -1 13 15 9 -1 -3 -4
7 -1 16 17 12 2 -1 0
13 5 17 18 13 5 2 2
16 7 15 19 12 5 4 3
15 8 10 15 9 0 -3 -2
5 0 10 14 6 -3 -6 -3
-6 -4 9 15 7 -4 -7 -4
-1 -2 9 17 9 -3 -7 -6
-3 -4 11 19 11 -2 -6 -6
3 -5 13 20 11 0 -5 -5
15 0 16 22 14 3 -3 -5
21 3 18 26 18 7 1 -2
15 3 17 27 18 7 1 0
14 4 17 27 17 6 2 -1
9 -1 14 25 15 2 -2 -3
11 0 14 26 15 3 -3 -3
5 -2 12 27 16 0 -6 -6
4 -4 12 30 18 1 -7 -8
4 -5 14 33 21 3 -5 -5
11 -4 17 36 24 6 -3 -2
19 2 19 39 29 9 0 0
24 7 23 46 34 15 6 4
20 0 22 47 34 15 6 5
21 2 20 50 35 14 5 4
19 2 17 49 34 12 2 0
18 -3 16 49 33 10 -1 -2
20 -4 15 52 35 10 0 -3
17 -4 16 55 38 12 -1 -2
21 -3 17 58 40 13 -1 -3
21 -6 18 63 46 17 2 0
22 -6 20 67 50 22 6 1
27 -3 24 70 54 27 9 6
31 -4 22 71 55 28 11 7
38 -1 21 72 56 28 12 9
34 -1 17 68 53 24 9 5
31 -2 14 66 51 22 8 5
27 1 13 67 50 22 8 2
30 5 14 68 51 24 8 3
27 3 15 71 53 25 11 5
34 4 21 73 58 28 15 11
35 5 21 72 58 29 18 14
36 7 20 71 58 32 18 17
39 6 19 71 59 33 19 16
36 3 17 69 57 33 18 17
33 3 17 65 53 30 16 14
32 1 13 62 50 26 13 11
22 -3 9 57 43 22 9 6
24 1 9 55 43 22 8 5
20 -2 10 54 41 20 8 3
27 5 14 57 45 25 14 10
34 13 18 59 47 29 18 14
36 17 17 56 46 28 19 15
37 16 16 51 41 25 18 16
36 16 13 45 34 21 15 12
17 7 12 40 32 19 13 11
14 6 11 37 30 18 12 10
15 3 7 33 25 12 7 6
16 6 8 34 24 13 9 7
15 7 12 34 24 13 9 8
17 5 12 32 23 14 9 9
19 14 17 33 26 17 12 12
22 19 18 32 26 19 15 14
20 15 16 30 23 18 14 14
17 13 15 27 20 16 12 12
11 10 11 21 15 10 8 7
10 10 8 18 12 8 3 3
3 7 7 15 8 4 1 0
-1 4 8 15 8 5 3 0
4 9 9 15 8 5 3 1
4 9 12 18 10 9 6 5
7 8 15 17 11 10 7 6
14 12 18 18 13 11 9 10
14 15 16 18 14 13 11 9
15 16 13 15 11 10 8 9
11 12 10 11 7 7 6 6
3 6 7 8 4 5 3 4
-2 2 7 7 3 2 2 1
-8 3 11 10 5 3 2 4
-10 0 9 6 3 1 0 0
0 2 11 9 5 4 2 1
2 2 12 9 6 5 3 2
14 10 15 12 10 10 8 8
17 13 13 10 8 9 7 6
12 13 13 10 8 8 7 9
5 10 9 6 3 4 4 4
0 5 4 3 0 1 1 1
1 6 4 2 -1 -1 -2 -2
-3 0 4 1 -2 -1 -4 -3
-5 -3 7 2 -1 -1 -3 -3
-1 0 9 6 4 2 1 -1
5 4 8 4 3 3 2 -1
7 10 10 6 5 6 6 3
12 12 9 3 2 4 3 2
14 9 8 2 0 4 3 3
4 4 4 -1 -3 1 1 0
-1 3 3 -2 -4 0 -1 -1
-3 1 -1 -5 -6 -4 -5 -5
1 4 2 -2 -4 -2 -3 -5
-4 5 4 -2 -6 -5 -4 -5
-3 2 7 1 -2 -3 -3 -4
7 3 6 1 -2 -2 -2 -4
7 5 10 4 1 1 2 2
2 3 9 3 0 1 4 4
0 2 8 4 0 2 3 4
2 1 2 -3 -6 -4 -2 -1
2 4 1 -4 -7 -5 -4 -3
-6 1 1 -4 -7 -6 -5 -5
-4 1 4 -4 -8 -7 -6 -6
1 6 2 -6 -9 -10 -8 -8
-1 4 6 -1 -4 -5 -5 -3
2 2 7 0 -2 -3 -2 -2
5 7 10 2 2 2 2 2
4 3 4 -3 -4 -3 -3 -3
4 4 5 -1 -3 -3 0 0
2 3 2 -3 -3 -3 0 -1
-7 -2 1 -3 -4 -3 -2 -4
-6 -1 1 -3 -6 -6 -5 -7
-4 0 2 -1 -4 -6 -5 -6
-2 3 4 0 -2 -4 -2 -4
5 5 8 4 2 1 0 -1
4 6 9 5 3 2 1 1
8 11 12 6 5 5 5 5
6 11 9 5 5 5 6 4
6 8 8 5 4 4 5 3
0 5 4 1 2 2 3 1
-4 3 2 -1 -1 0 1 1
-3 5 2 -2 -2 -1 0 -1
-2 7 3 0 0 1 1 -2
-1 8 4 1 1 1 1 -3
4 11 9 7 6 5 4 2
7 12 9 8 8 8 7 4
12 15 11 9 11 12 12 8
9 12 10 9 11 12 12 7
8 11 7 6 7 8 7 5
4 8 5 3 4 5 5 2
-3 6 3 1 1 1 3 0
-8 3 1 0 0 0 1 0
1 15 2 2 2 3 2 0
2 19 8 7 8 9 7 3
6 22 14 13 14 15 12 8
10 26 16 15 17 18 14 12
16 30 18 18 20 22 18 14
11 27 19 18 21 22 20 15
6 19 17 15 17 19 17 14
3 16 14 13 15 16 14 11
4 21 14 12 12 14 12 9
-9 13 11 9 8 9 8 5
-11 12 15 11 10 11 9 4
-6 22 18 15 15 16 12 7
2 25 19 16 17 18 16 10
6 26 20 19 21 21 20 15
15 32 23 19 23 24 23 19
17 34 18 16 20 23 21 17
10 34 19 19 22 24 23 17
10 31 14 14 16 19 19 12
10 30 10 9 12 15 15 9
1 28 8 9 11 13 12 6
1 24 7 9 11 13 12 6
5 25 8 9 12 14 13 6
14 28 11 12 14 17 16 10
16 29 12 14 19 21 18 14
21 31 15 17 22 24 22 17
15 29 13 14 20 23 21 15
17 32 12 13 19 24 21 14
13 33 6 9 15 19 18 11
12 32 3 8 13 17 15 9
18 34 3 10 15 18 15 10
10 27 4 12 16 20 15 9
4 23 4 12 15 19 15 8
13 27 8 14 18 21 17 11
15 28 10 14 18 20 19 14
19 24 7 12 15 19 18 13
14 18 5 9 12 16 15 10
7 15 6 10 14 19 16 10
3 17 3 6 9 13 13 7
2 18 3 5 8 12 11 4
-5 13 1 4 5 8 7 1
-3 11 2 4 6 10 7 1
-6 8 3 3 5 8 6 -2
1 7 5 5 6 9 7 0
3 5 6 4 6 10 8 0
-1 1 7 5 7 12 8 2
2 3 7 3 7 10 8 2
8 3 3 -1 1 6 5 -1
-1 -5 -2 -5 -3 1 0 -7
-3 -2 -3 -5 -3 3 0 -6
-5 -1 -4 -6 -5 -1 -2 -8
-8 -2 -2 -3 -3 2 -2 -8
-5 -1 -3 -5 -5 0 -4 -11
-2 -2 2 -3 -2 2 -2 -8
1 0 4 -1 0 4 1 -6
2 3 5 -1 1 4 3 -4
4 2 2 -3 -1 3 1 -6
2 0 -1 -5 -2 4 1 -6
-7 -9 -4 -7 -4 1 -2 -9
-9 -6 -2 -6 -3 2 -2 -8
-6 -3 -5 -9 -7 -1 -5 -10
-4 -1 -5 -9 -7 -1 -4 -11
-2 5 -3 -7 -5 0 -4 -11
3 7 0 -4 -2 4 0 -7
4 5 2 -4 -2 4 1 -6
6 4 4 -2 2 7 4 -2
5 -3 -1 -5 -2 2 0 -6
10 -1 0 -4 -3 1 -2 -8
1 -4 0 -1 -2 0 -5 -10
-10 -12 3 6 3 0 -7 -12
-12 -15 9 14 5 -1 -11 -19
-11 -11 19 25 14 4 -11 -19
-13 -7 27 39 28 14 -6 -15
-6 1 30 50 44 30 6 -5
2 6 31 60 59 45 19 4
14 12 33 76 81 66 35 16
20 14 41 104 111 91 52 29
28 23 63 154 155 126 76 46
39 41 92 212 208 169 104 67
44 55 124 268 261 213 137 93
51 72 136 295 295 249 163 113
58 91 132 281 307 276 191 138
56 103 113 239 297 284 209 156
67 115 84 173 258 269 211 166
68 119 47 96 193 226 190 158
60 123 16 18 121 173 166 147
47 121 -20 -54 46 113 132 128
32 109 -70 -119 -28 51 93 100
13 80 -116 -177 -95 -9 49 66
-4 50 -149 -229 -158 -65 8 33
-22 26 -168 -263 -203 -105 -22 9
-17 9 -178 -278 -221 -123 -37 -3
-4 -6 -183 -272 -221 -128 -48 -15
-1 -20 -176 -251 -210 -130 -55 -24
-2 -31 -165 -224 -194 -126 -61 -32
3 -35 -147 -197 -170 -113 -58 -35
6 -35 -127 -168 -147 -100 -56 -35
5 -26 -106 -140 -124 -86 -49 -33
3 -23 -91 -121 -108 -76 -47 -35
1 -19 -76 -101 -92 -65 -41 -31
-4 -17 -62 -85 -80 -57 -37 -29
-11 -25 -52 -72 -70 -53 -37 -31
-12 -22 -39 -59 -56 -42 -32 -29
-10 -19 -28 -46 -46 -34 -27 -26
-14 -23 -21 -36 -36 -27 -22 -21
0 -10 -10 -24 -24 -16 -13 -14
1 -9 -9 -22 -22 -15 -11 -14
7 -4 -8 -19 -20 -14 -11 -13
3 0 -10 -21 -20 -15 -14 -14
-4 -4 -10 -20 -20 -14 -13 -14
-9 -7 -11 -19 -20 -15 -14 -16
-11 -12 -8 -17 -18 -15 -16 -17
-11 -14 -5 -14 -14 -12 -13 -16
-5 -8 -1 -11 -11 -9 -9 -12
-5 -9 1 -8 -9 -8 -10 -12
-6 -6 5 -5 -4 -3 -4 -8
-1 -2 3 -6 -7 -4 -5 -9
1 -4 3 -6 -7 -4 -4 -8
-2 -6 0 -8 -8 -5 -6 -9
-6 -8 -2 -12 -11 -8 -7 -11
-8 -7 -6 -12 -14 -10 -10 -14
-7 -4 -3 -8 -10 -7 -11 -12
-8 -5 0 -8 -8 -7 -11 -13
-7 -6 3 -6 -6 -6 -9 -11
2 -5 3 -5 -7 -6 -10 -13
4 -2 10 1 0 2 -3 -5
6 -3 8 1 0 1 -1 -4
4 -5 4 -3 -5 -3 -4 -8
-1 -4 3 -4 -6 -5 -6 -9
-1 0 1 -6 -7 -6 -7 -11
-9 -6 -3 -8 -11 -11 -11 -13
-6 -3 0 -3 -7 -8 -10 -12
-4 -1 5 -1 -4 -5 -8 -11
0 2 6 0 -4 -5 -8 -11
5 6 10 6 0 -2 -6 -8
5 0 11 6 3 0 -4 -8
1 -5 10 5 2 0 -3 -7
2 -2 10 6 3 1 -1 -6
-3 -8 5 3 -1 -1 -5 -8
-4 -8 3 -1 -3 -4 -7 -11
-13 -8 2 0 -5 -6 -9 -13
-10 -7 4 3 -1 -4 -7 -11
-7 -6 6 4 0 -4 -8 -12
-1 -5 10 6 2 -2 -7 -10
1 -7 11 10 6 2 -2 -6
2 -7 14 13 10 6 -1 -5
1 -7 13 13 10 6 1 -5
3 -4 11 13 8 4 0 -5
-1 -8 6 9 4 0 -4 -10
-3 -9 3 6 1 -3 -8 -13
-12 -11 2 8 0 -3 -8 -12
-8 -12 4 8 0 -5 -9 -13
-2 -8 9 13 4 -2 -7 -12
6 -3 13 16 8 0 -4 -8
5 -4 15 21 12 3 -4 -7
12 -2 19 26 16 8 0 -3
15 -3 16 25 16 9 2 -3
8 -2 16 27 18 10 3 -1
1 -3 16 28 18 11 2 -3
-2 -8 12 25 15 7 -1 -4
3 -8 8 24 12 3 -5 -8
3 -10 11 27 14 2 -6 -9
-2 -12 11 29 16 4 -6 -10
6 -9 16 34 21 7 -2 -8
11 -7 18 38 24 9 0 -7
13 -4 21 45 32 15 3 -2
16 -2 20 46 33 15 3 -2
21 -1 19 46 30 14 3 -2
15 -1 18 48 32 14 3 -4
10 -5 15 48 31 13 1 -5
5 -13 11 46 29 9 -4 -11
7 -12 12 49 32 10 -4 -10
6 -16 15 54 36 13 -2 -8
7 -17 20 59 41 16 1 -4
20 -11 21 64 45 19 3 -4
28 -7 24 70 53 25 9 1
28 -5 24 72 55 28 12 4
29 -4 20 71 55 28 12 4
24 -8 13 68 51 25 7 1
20 -9 11 66 51 24 8 1
17 -14 10 67 50 23 6 0
14 -11 13 68 52 24 8 1
13 -10 14 67 52 23 7 0
21 -7 18 70 53 25 10 3
22 -6 20 71 56 26 13 5
26 -3 21 72 58 29 16 8
30 0 18 70 57 31 16 10
33 3 16 68 57 31 19 13
27 0 13 66 52 28 16 11
21 -2 11 61 49 26 12 8
15 -4 9 57 45 22 10 5
21 0 8 55 42 19 8 3
23 1 9 53 41 18 7 4
21 3 13 54 42 21 9 5
18 -2 11 54 42 21 11 6
21 3 15 55 44 24 15 11
29 7 15 53 42 24 17 12
31 8 14 49 39 23 17 13
24 8 8 42 34 18 13 9
18 8 8 39 29 16 11 8
17 9 6 36 26 12 10 6
11 2 5 33 23 8 6 3
1 -3 6 31 21 8 5 2
13 8 11 32 23 11 9 6
14 9 14 35 27 16 14 9
19 12 14 32 27 18 14 10
20 13 13 30 24 14 13 10
17 9 12 26 19 11 11 9
10 7 9 22 16 8 9 7
2 8 9 20 14 7 8 6
-4 5 5 17 10 3 4 2
1 8 6 16 9 3 2 1
-1 6 4 13 8 2 0 -1
2 10 9 16 11 5 4 1
2 8 10 17 11 6 7 4
8 8 12 17 13 7 9 8
9 12 12 16 11 7 10 6
7 11 9 13 9 4 6 4
2 3 4 7 4 -1 1 1
-4 1 5 7 2 -2 -1 0
-9 -1 3 5 0 -4 -2 -3
-2 4 3 5 2 -3 -2 -2
-3 4 3 5 1 -4 -3 -3
-3 4 5 7 3 -2 0 -1
-3 2 9 7 5 1 3 1
4 11 9 8 8 3 5 2
4 11 8 6 6 2 6 4
9 8 7 7 5 4 5 6
0 2 3 2 1 0 3 3
-8 -1 1 -1 -1 -1 1 1
-10 -1 -2 -3 -4 -6 -3 -2
-7 0 -1 -2 -5 -8 -4 -2
-6 5 1 -2 -4 -7 -3 -3
1 8 3 -1 -3 -6 -2 -1
3 8 6 3 1 -1 1 3
10 9 8 4 4 0 4 4
7 8 4 1 1 -2 0 2
5 8 5 3 2 -2 1 3
0 3 2 1 0 -4 0 2
1 0 -3 -5 -5 -9 -5 -2
-4 -1 -6 -7 -8 -10 -5 -4
-6 -3 -3 -4 -5 -10 -4 -2
-12 -8 -4 -6 -7 -10 -5 -3
-12 -8 0 -4 -5 -9 -4 -4
-8 -2 4 0 -2 -7 -2 -2
4 6 9 5 3 -2 3 2
5 3 8 4 4 -1 2 4
7 2 3 0 -1 -3 -1 2
-1 0 0 -3 -3 -6 -4 0
-7 -3 -2 -5 -5 -8 -5 -3
-10 1 -2 -6 -8 -10 -6 -6
-9 0 -2 -6 -9 -10 -7 -7
-10 -6 -3 -7 -9 -12 -9 -10
-5 -2 -1 -4 -8 -11 -7 -8
1 2 4 -1 -4 -9 -5 -5
7 3 6 3 1 -4 -2 0
5 2 6 3 2 -2 1 3
6 1 3 1 -1 -4 0 2
1 5 0 -2 -3 -5 -3 0
-2 6 -1 -2 -4 -6 -2 -1
-9 1 -4 -5 -9 -12 -7 -5
-4 0 -4 -5 -7 -12 -8 -6
-8 -3 -3 -5 -8 -13 -9 -8
-5 1 1 -1 -5 -10 -5 -4
2 6 5 2 -1 -5 -3 -2
5 8 7 5 4 0 0 2
7 9 8 6 4 1 2 5
-2 7 6 5 4 1 2 5
-2 6 2 2 1 -1 1 3
-3 4 -2 0 -1 -3 1 2
-9 -2 -5 -3 -4 -7 -3 0
-3 4 -2 -1 -3 -6 -2 -1
1 4 -1 -1 -2 -5 -3 -3
-2 1 3 2 1 -3 -2 1
-1 3 7 5 4 -1 1 4
8 10 7 6 6 1 4 5
3 5 4 4 4 3 3 5
4 6 5 6 7 4 6 8
-4 6 2 3 4 1 2 6
-6 4 0 2 1 -2 1 3
-8 3 0 1 0 -3 -2 2
-6 1 1 3 1 -3 -2 1
-4 4 3 5 4 0 -1 3
5 6 5 6 6 3 2 6
6 7 4 6 5 3 2 6
5 10 8 10 9 7 6 10
3 14 12 14 14 13 11 15
4 16 12 14 13 11 11 14
0 16 9 10 10 9 9 11
-3 16 10 10 10 9 8 12
-5 15 8 9 7 7 6 9
-5 15 10 11 10 8 6 11
-5 18 9 11 10 8 5 10
4 25 14 15 13 10 8 13
5 24 18 18 16 12 10 15
5 23 22 20 19 15 13 17
7 23 20 19 18 15 14 18
11 24 17 18 17 15 14 18
3 22 13 15 14 14 12 17
3 22 12 14 13 13 12 16
-3 19 8 9 9 8 7 12
2 22 8 9 8 7 4 9
1 23 9 10 9 9 6 10
3 22 13 15 13 13 12 15
13 26 13 15 14 14 12 16
12 25 13 14 16 16 14 17
8 27 14 17 18 17 16 20
11 22 10 15 14 13 14 19
5 19 7 13 13 13 11 16
8 22 6 12 13 14 10 15
7 19 3 10 10 11 9 14
7 18 -2 7 7 8 5 12
4 17 -1 7 9 10 7 13
8 18 3 12 14 14 12 18
15 24 6 14 16 16 14 20
19 27 10 19 21 23 18 23
20 26 8 18 19 22 18 22
19 26 5 14 17 20 16 20
7 14 0 9 11 14 10 15
8 12 -3 5 7 10 7 13
4 14 -3 5 5 7 3 10
-2 8 -3 4 4 5 1 9
-8 6 1 5 5 6 3 9
-6 7 3 7 7 8 4 11
5 7 5 9 9 10 4 11
12 11 8 12 12 13 7 12
6 9 7 11 11 12 6 12
3 9 5 9 8 10 4 10
2 4 1 5 5 7 2 8
1 0 -2 1 0 3 -2 4
-4 0 -5 -2 -4 -2 -6 2
-11 -7 -2 -1 -4 -3 -8 1
-12 -13 -5 -5 -6 -6 -11 -4
-6 -8 -1 0 -2 -1 -5 0
1 -4 2 3 1 3 -4 3
8 2 4 4 3 5 -2 4
10 3 2 2 2 4 -1 4
6 -1 2 2 1 4 -2 5
0 -1 -1 1 -2 1 -4 3
-2 -2 -4 -1 -4 0 -7 0
-4 -2 -6 -6 -9 -6 -11 -4
-3 -2 -5 -4 -9 -4 -11 -4
-8 -7 -6 -5 -7 -4 -11 -3
-4 -9 -2 -2 -5 -1 -9 -2
-1 -9 -2 -2 -4 -1 -9 -1
3 -8 0 0 -1 2 -5 3
2 -8 2 3 0 5 -1 5
1 -6 2 3 0 4 -1 6
-3 -9 -3 -3 -5 -2 -7 0
-4 -10 -4 -3 -7 -1 -8 -2
-5 -10 -7 -4 -10 -5 -11 -5
-1 -11 -8 -4 -8 -6 -14 -8
-4 -19 -4 1 -7 -7 -17 -11
-6 -22 6 12 1 -3 -15 -10
-2 -15 17 26 12 3 -13 -9
-2 -11 27 39 25 12 -7 -5
-4 -7 30 49 35 19 -1 -1
3 -1 28 57 47 30 7 6
4 0 26 67 63 45 17 13
8 3 28 82 83 63 29 21
11 6 39 113 113 87 43 31
19 15 65 167 161 127 70 50
35 38 101 231 219 176 104 77
49 61 136 291 277 225 142 107
61 78 146 311 310 261 171 130
75 98 133 287 316 282 196 154
75 103 108 236 296 285 206 167
78 112 75 163 244 256 201 170
77 118 32 75 167 199 172 154
52 113 -5 -6 90 143 141 135
22 104 -45 -76 16 83 106 113
12 84 -94 -141 -56 21 66 84
3 56 -133 -195 -118 -35 24 55
-1 37 -156 -238 -173 -80 -9 28
-14 13 -169 -264 -207 -111 -32 10
-10 -3 -178 -269 -216 -120 -42 3
2 -9 -178 -259 -212 -122 -48 -4
3 -27 -175 -241 -205 -126 -56 -14
0 -38 -165 -218 -189 -124 -63 -25
-3 -47 -150 -192 -170 -115 -67 -33
-5 -46 -130 -164 -149 -105 -66 -36
-7 -41 -104 -134 -124 -90 -57 -34
-9 -36 -86 -112 -105 -77 -53 -32
0 -26 -68 -89 -86 -61 -42 -25
2 -23 -54 -72 -70 -52 -37 -22
5 -17 -38 -55 -55 -40 -30 -16
2 -18 -29 -42 -44 -31 -25 -15
-3 -22 -24 -34 -37 -26 -22 -14
-5 -18 -20 -28 -31 -22 -23 -14
-6 -15 -17 -24 -27 -20 -21 -12
-10 -19 -17 -23 -27 -20 -21 -13
-8 -15 -14 -18 -24 -19 -20 -12
-5 -12 -10 -14 -21 -16 -18 -13
-4 -10 -7 -11 -18 -12 -15 -10
2 -7 -6 -7 -15 -11 -14 -8
2 -10 -3 -6 -13 -9 -13 -9
-3 -10 -2 -5 -12 -7 -12 -8
-1 -9 0 -1 -9 -5 -9 -5
-2 -9 0 -2 -9 -5 -10 -5
-7 -8 -3 -5 -10 -6 -13 -7
-7 -9 -6 -6 -12 -6 -14 -9
-7 -14 -5 -5 -13 -7 -15 -10
-9 -16 -5 -7 -13 -8 -15 -11
-5 -11 -2 -3 -10 -5 -12 -8
-1 -7 1 1 -8 -5 -11 -6
6 -3 5 4 -3 -1 -8 -4
7 -3 4 3 -2 0 -8 -4
7 1 6 7 -1 2 -6 -2
6 -2 4 5 -2 1 -7 -4
0 -8 0 1 -6 -2 -11 -7
-14 -14 -3 -2 -9 -4 -12 -8
-9 -15 -2 0 -9 -5 -12 -9
-8 -12 0 0 -7 -4 -12 -8
-7 -8 5 4 -4 0 -8 -5
-3 -7 7 7 -1 1 -5 -3
1 -4 11 11 1 2 -4 -1
3 -8 9 9 0 2 -6 -5
3 -11 8 9 0 2 -5 -3
4 -5 6 10 1 1 -7 -4
-3 -7 4 8 -1 -1 -10 -7
-8 -7 4 5 -4 -4 -12 -8
-6 -5 5 8 -1 -2 -10 -6
-6 -11 2 6 -3 -4 -12 -9
-4 -11 5 9 0 -1 -9 -7
-2 -10 8 13 3 1 -8 -4
4 -9 10 16 7 5 -5 -2
10 -6 9 14 5 4 -4 -2
4 -7 12 16 6 5 -2 0
1 -7 10 15 4 3 -5 -2
0 -7 8 13 3 1 -8 -7
-7 -11 3 11 -1 -2 -9 -10
-1 -6 5 13 2 0 -9 -8
0 -5 8 16 5 2 -8 -6
1 -7 10 17 7 4 -6 -5
3 -8 15 22 11 8 -1 -1
7 -4 15 24 14 11 -1 0
8 -5 16 25 14 11 0 -1
5 -11 17 27 16 12 2 2
2 -9 14 26 14 10 -2 -2
4 -7 12 25 13 8 -4 -5
-3 -12 9 22 9 4 -7 -8
-7 -14 7 23 10 4 -8 -8
5 -5 9 26 13 6 -8 -7
12 -3 13 29 16 8 -5 -4
10 -4 18 35 20 12 0 0
12 -4 20 39 25 16 0 -1
12 -8 17 39 24 15 -1 -1
15 -7 20 42 27 16 2 1
11 -7 18 43 28 16 -1 -1
4 -15 15 41 27 15 -3 -4
1 -17 12 42 27 15 -3 -4
0 -17 15 47 30 16 -1 -2
2 -15 15 49 32 17 -1 -2
10 -13 17 52 35 17 -1 -1
16 -13 17 55 37 18 0 -1
21 -9 22 63 44 24 6 4
21 -11 21 65 47 25 6 5
26 -11 21 67 47 25 4 4
19 -15 20 68 48 25 3 2
13 -20 17 66 46 23 1 0
15 -17 14 65 44 22 1 -1
16 -13 12 65 43 20 -1 -3
15 -11 14 66 46 24 1 -2
26 -7 15 70 50 27 5 2
28 -7 16 73 52 30 7 5
30 -7 21 78 57 33 11 10
33 -5 22 79 59 35 12 13
34 -3 23 80 61 36 15 15
33 -3 20 78 58 36 14 14
31 -2 17 74 56 34 12 12
22 -9 10 66 47 26 7 6
14 -15 7 64 46 25 5 5
15 -14 8 63 46 26 6 5
25 -6 13 65 48 29 10 9
30 0 15 66 49 30 12 11
33 4 17 66 51 33 15 15
36 7 17 65 50 33 17 15
35 8 16 63 47 32 16 16
23 4 17 61 46 31 16 17
21 2 15 56 42 30 14 14
19 -1 8 48 33 22 9 7
15 -1 11 48 34 24 10 10
12 1 10 47 34 22 10 10
12 -2 8 43 31 21 9 10
14 -2 9 42 29 21 10 11
28 8 14 43 30 23 12 13
31 11 15 42 31 23 13 13
27 7 15 41 29 23 14 12
14 2 11 35 25 19 9 9
13 5 10 32 21 17 8 9
7 6 9 29 17 13 7 8
9 6 9 26 15 12 6 7
4 1 8 23 15 13 5 6
2 1 9 22 13 12 7 7
5 0 12 23 15 14 8 9
12 3 14 24 17 16 9 10
10 4 13 22 17 16 10 11
11 7 12 21 15 15 10 12
7 5 10 18 12 13 6 7
0 3 7 14 9 10 4 4
-3 2 7 14 8 11 5 5
-1 5 6 13 7 10 3 4
-2 4 4 10 5 7 0 2
5 9 7 13 7 10 4 5
5 8 9 13 7 8 5 6
3 5 13 16 11 11 6 8
7 5 12 14 9 12 6 8
8 5 11 14 9 10 6 7
3 2 8 11 6 9 4 4
-5 -2 6 9 4 8 2 2
-3 1 3 5 1 6 1 0
-2 4 4 6 1 4 1 1
-4 1 7 9 4 8 3 4
11 12 10 12 8 11 7 7
10 9 9 10 6 10 5 6
3 1 9 11 8 12 6 6
4 1 9 10 7 12 7 6
7 0 6 6 3 7 4 6
0 -3 5 5 2 5 2 3
1 0 3 3 0 3 1 0
-3 -1 1 -1 -3 2 0 -2
-2 -1 2 2 0 3 1 1
-3 -3 1 -1 -2 1 -1 -2
-3 -5 1 -3 -4 0 -1 -4
-1 -4 2 0 -2 0 -2 -1
4 -1 5 4 3 5 3 3
3 -2 5 4 2 4 3 4
4 -1 5 4 1 4 2 4
1 -4 6 4 3 4 2 4
-5 -5 3 1 0 2 1 2
0 -4 -2 -3 -7 -3 -5 -3
-3 -4 -1 -2 -6 -3 -5 -2
-3 -2 0 -3 -6 -4 -5 -2
-3 -1 1 -1 -4 -1 -3 0
0 0 1 0 -4 -2 -3 -1
11 7 6 3 2 2 2 4
13 6 5 3 1 1 1 4
8 6 6 5 2 4 3 6
3 3 3 2 0 1 -1 2
-4 -2 5 2 1 3 2 4
-7 -3 2 0 -2 1 0 1
-7 -5 0 0 -2 0 -4 -1
-4 -4 -1 -2 -4 -3 -5 -2
2 4 1 0 -2 0 -1 1
5 3 4 2 0 1 -1 2
9 8 8 6 4 4 2 6
12 9 7 8 6 7 4 7
10 8 10 10 7 8 6 9
8 6 8 7 6 7 4 7
1 -1 3 1 2 4 0 2
1 3 2 2 2 3 2 3
-1 3 2 2 1 3 1 4
-4 0 1 1 2 3 1 3
0 3 2 2 3 4 2 5
-2 3 4 5 5 6 4 6
5 5 9 10 11 11 10 11
14 10 8 9 12 12 10 10
10 7 8 9 11 10 8 10
