I II V1 V2 V3 V4 V5 V6
-2 -15 1 -17 -46 -50 -28 -14
-2 -17 0 -18 -47 -49 -29 -14
-2 -20 0 -18 -47 -50 -30 -15
-4 -23 1 -17 -47 -50 -31 -16
-5 -24 1 -18 -48 -52 -32 -17
-5 -24 1 -19 -50 -53 -34 -18
-5 -24 1 -20 -52 -55 -35 -18
-6 -26 1 -20 -53 -56 -36 -18
-8 -28 1 -21 -55 -57 -38 -21
-10 -29 0 -24 -57 -60 -43 -25
-10 -30 1 -23 -56 -60 -41 -24
-10 -31 1 -23 -55 -60 -41 -25
-10 -31 1 -22 -55 -60 -40 -25
-10 -28 0 -23 -56 -60 -41 -26
-10 -27 0 -23 -56 -60 -41 -26
-10 -28 1 -22 -56 -60 -40 -25
-9 -28 1 -21 -56 -59 -40 -24
-9 -28 1 -21 -56 -59 -40 -25
-10 -30 2 -20 -55 -58 -41 -25
-10 -31 1 -21 -55 -59 -44 -25
-10 -32 1 -21 -55 -60 -44 -26
-10 -31 2 -21 -55 -60 -44 -26
-10 -31 2 -20 -55 -59 -44 -26
-10 -31 3 -20 -54 -58 -44 -25
-9 -30 2 -20 -54 -58 -43 -25
-9 -30 2 -19 -53 -57 -41 -25
-9 -29 2 -19 -53 -58 -43 -25
-10 -30 3 -18 -53 -58 -43 -25
-10 -30 3 -18 -53 -58 -43 -25
-9 -31 3 -18 -54 -58 -43 -25
-9 -30 2 -19 -55 -60 -44 -26
-8 -29 2 -19 -54 -59 -45 -26
-9 -28 2 -18 -54 -58 -45 -26
-10 -29 2 -17 -54 -59 -46 -26
-11 -31 5 -13 -51 -59 -47 -28
-12 -33 11 -5 -47 -60 -50 -31
-12 -38 18 6 -45 -65 -55 -36
-11 -44 23 15 -44 -70 -61 -41
-10 -45 28 27 -37 -70 -63 -44
-7 -40 30 39 -26 -62 -58 -39
-3 -31 30 49 -8 -45 -44 -29
6 -17 24 54 18 -13 -20 -12
16 4 15 56 52 33 15 15
25 29 6 49 90 92 59 48
35 60 -7 24 121 152 105 84
46 95 -19 -7 150 219 158 125
56 130 -28 -23 186 294 217 169
65 168 -35 -27 230 370 276 213
71 204 -38 -38 274 444 330 254
71 238 -44 -71 306 504 373 286
66 266 -58 -135 314 539 397 306
57 283 -76 -211 303 553 404 315
42 284 -88 -264 283 544 393 309
20 265 -78 -277 266 520 364 287
3 229 -63 -275 238 478 320 252
-8 190 -55 -282 190 421 271 212
-13 159 -61 -301 117 339 213 171
-23 132 -64 -313 26 228 139 120
-36 97 -50 -306 -66 95 54 62
-50 62 -26 -286 -146 -36 -27 8
-59 35 -4 -260 -196 -126 -75 -28
-62 15 9 -234 -207 -149 -92 -46
-61 -4 10 -213 -191 -132 -89 -51
-58 -16 4 -196 -174 -118 -88 -53
-53 -21 -6 -180 -161 -113 -86 -53
-47 -24 -13 -158 -147 -104 -80 -50
-39 -27 -19 -138 -133 -95 -75 -48
-35 -26 -22 -118 -120 -89 -70 -44
-30 -26 -23 -99 -106 -81 -66 -40
-23 -25 -24 -81 -92 -75 -62 -37
-18 -24 -22 -66 -82 -71 -60 -35
-15 -23 -19 -53 -72 -67 -57 -32
-12 -22 -15 -38 -59 -60 -52 -28
-10 -21 -9 -26 -48 -53 -45 -25
-10 -20 -4 -17 -39 -48 -40 -20
-9 -19 0 -13 -35 -45 -40 -19
-9 -18 3 -6 -29 -40 -37 -16
-9 -17 6 1 -24 -37 -34 -14
-9 -18 7 5 -22 -35 -33 -13
-8 -19 7 8 -21 -35 -35 -14
-8 -20 8 10 -19 -35 -35 -16
-6 -20 11 14 -16 -33 -33 -15
-4 -21 12 17 -13 -31 -32 -15
-4 -22 14 20 -10 -28 -29 -14
-4 -21 14 20 -9 -27 -29 -12
-4 -18 13 21 -8 -25 -28 -11
-3 -17 13 23 -7 -23 -26 -9
-3 -19 13 24 -7 -22 -25 -8
-3 -20 15 27 -5 -21 -23 -7
-2 -18 14 27 -5 -23 -22 -8
-2 -18 14 27 -5 -34 -21 -10
-2 -21 15 28 -5 -54 -21 -10
-2 -22 15 28 -3 -68 -20 -10
-2 -19 15 28 -2 -70 -18 -8
0 -19 16 29 1 -67 -16 -6
-2 -20 15 29 3 -66 -15 -4
-2 -18 16 30 4 -66 -14 -3
-2 -16 16 30 4 -66 -14 -4
-2 -17 16 31 4 -65 -14 -5
-2 -19 18 32 6 -65 -14 -5
-2 -21 19 33 8 -65 -14 -5
0 -23 20 34 9 -64 -14 -5
0 -22 20 34 11 -62 -13 -4
0 -21 19 34 12 -62 -12 -4
-2 -21 20 36 15 -60 -9 0
0 -18 19 35 16 -60 -9 0
1 -12 18 35 16 -60 -10 0
1 -10 17 35 16 -60 -10 -2
1 -12 18 37 17 -59 -10 0
1 -14 19 39 18 -58 -9 0
0 -16 19 42 20 -57 -8 0
1 -17 19 43 22 -56 -8 -2
2 -16 18 42 24 -54 -8 -3
2 -15 20 44 28 -51 -5 1
2 -14 20 44 30 -50 -4 2
2 -13 20 45 30 -48 -3 3
1 -12 20 45 30 -46 -2 3
1 -11 20 47 32 -45 1 4
2 -11 19 49 34 -44 1 3
3 -14 20 52 36 -40 2 4
4 -15 21 53 37 -39 2 4
4 -15 21 54 39 -37 4 5
4 -15 21 55 42 -35 5 6
3 -12 19 54 44 -34 6 7
4 -9 20 55 48 -31 8 9
5 -8 20 55 48 -28 10 10
4 -8 19 57 50 -26 13 12
4 -8 19 59 50 -25 14 13
6 -7 20 60 52 -23 14 13
7 -6 20 61 54 -22 14 12
7 -5 20 63 55 -22 14 12
6 -6 20 64 57 -21 15 11
7 -7 21 65 60 -17 17 13
8 -6 21 68 64 -13 19 15
9 -3 19 68 67 -11 19 15
9 0 20 70 70 -8 22 18
9 1 19 70 71 -7 23 19
9 1 20 72 73 -4 25 20
10 2 20 74 76 -3 26 22
11 2 20 75 77 -2 26 21
11 2 19 77 80 0 28 22
12 3 19 79 84 2 29 24
12 4 18 79 86 4 29 24
13 6 18 80 89 7 32 25
14 9 18 81 93 11 35 28
15 11 18 84 96 15 38 30
15 12 19 86 100 20 43 33
16 13 19 87 103 23 45 35
18 14 18 89 105 25 47 35
19 15 16 90 108 28 48 36
20 18 17 92 111 31 49 38
21 20 17 94 115 35 52 39
20 19 18 97 121 40 56 42
20 19 18 98 127 45 59 45
21 22 17 98 130 50 62 48
23 25 17 99 134 56 66 51
23 27 17 100 137 61 69 54
22 30 15 101 139 64 71 55
22 33 14 101 141 68 73 56
25 33 14 102 144 71 76 58
28 33 14 103 147 75 79 61
29 36 14 103 150 79 82 63
30 39 14 103 153 85 86 65
30 42 14 103 157 90 89 68
31 44 14 104 159 95 93 71
32 48 12 103 161 99 96 73
32 52 12 103 163 105 100 76
32 55 11 102 164 108 102 77
32 56 11 102 167 111 105 78
33 56 10 101 168 114 107 80
35 56 10 101 170 118 110 84
36 57 9 99 170 121 111 84
37 60 7 97 171 123 113 84
37 63 7 96 171 126 114 86
37 65 7 94 171 129 116 89
37 66 7 93 171 133 120 92
37 65 7 92 171 135 122 95
37 65 6 90 170 137 125 96
37 64 5 88 168 137 125 96
37 64 3 86 164 136 123 96
37 66 3 84 161 135 122 95
37 67 2 79 158 133 121 95
36 67 3 77 156 133 121 95
36 66 3 73 153 131 119 93
35 66 3 69 149 128 117 92
34 66 4 66 144 126 116 91
32 64 3 63 137 120 112 89
31 62 3 60 131 114 108 86
30 59 4 56 125 107 102 80
29 53 6 54 118 101 98 77
27 49 7 51 111 94 94 73
25 45 8 48 105 87 90 69
24 38 9 44 98 80 84 65
24 35 8 37 91 73 78 61
22 34 8 32 84 65 73 58
19 30 8 28 76 58 68 55
18 26 8 25 69 51 63 52
17 25 7 22 62 43 58 48
16 23 7 18 54 34 51 43
15 19 6 14 46 26 45 36
13 17 7 11 40 18 39 32
12 13 6 7 34 10 33 28
11 7 8 5 30 6 29 26
10 3 8 1 25 0 24 22
9 1 8 -3 20 -6 20 19
8 0 8 -6 16 -11 17 16
6 -4 8 -8 12 -15 14 14
5 -6 7 -10 7 -20 10 11
4 -7 5 -13 1 -27 5 8
4 -8 6 -14 -2 -30 2 6
4 -10 6 -16 -6 -34 -3 2
2 -15 7 -16 -7 -36 -5 0
0 -20 7 -16 -8 -38 -6 -3
0 -20 7 -18 -10 -40 -7 -3
0 -18 6 -21 -12 -43 -9 -4
0 -18 5 -23 -14 -45 -10 -5
-2 -21 6 -22 -15 -45 -10 -4
-2 -23 6 -23 -16 -48 -12 -5
-3 -23 6 -22 -17 -49 -13 -6
-3 -23 6 -22 -19 -51 -16 -8
-2 -22 5 -24 -22 -54 -19 -11
-2 -21 4 -24 -23 -56 -21 -12
-3 -23 5 -24 -22 -56 -21 -12
-4 -25 5 -23 -21 -55 -21 -12
-5 -25 5 -23 -20 -55 -21 -12
-4 -24 5 -24 -21 -54 -20 -11
-3 -23 5 -22 -20 -53 -19 -10
-3 -23 5 -22 -21 -53 -20 -10
-3 -24 5 -23 -21 -54 -21 -11
-2 -25 5 -23 -22 -55 -22 -12
-2 -25 5 -23 -22 -56 -22 -13
-2 -25 5 -23 -21 -57 -23 -14
-3 -25 5 -23 -21 -57 -25 -15
-3 -25 5 -23 -22 -57 -25 -14
-3 -25 5 -23 -21 -56 -24 -13
-4 -26 6 -21 -20 -54 -22 -12
-4 -27 6 -21 -22 -55 -21 -13
-4 -25 6 -20 -21 -54 -21 -13
-4 -21 3 -22 -23 -56 -24 -15
-4 -21 3 -22 -23 -56 -24 -15
-4 -23 4 -21 -23 -55 -24 -15
-3 -24 4 -20 -22 -54 -24 -15
-3 -24 4 -21 -21 -53 -24 -15
-3 -25 4 -21 -21 -53 -24 -14
-4 -24 4 -22 -20 -52 -22 -14
-4 -23 5 -21 -19 -51 -21 -12
-4 -26 6 -20 -18 -49 -19 -10
-4 -28 6 -19 -19 -49 -19 -10
-4 -27 5 -20 -21 -51 -20 -11
-4 -26 4 -21 -22 -51 -21 -12
-4 -26 5 -22 -22 -51 -22 -12
-3 -26 5 -23 -22 -51 -22 -11
-3 -25 3 -24 -23 -52 -22 -12
-3 -25 4 -23 -23 -51 -21 -11
-3 -25 4 -23 -23 -50 -21 -10
-5 -26 4 -24 -23 -49 -21 -10
-5 -26 3 -24 -25 -50 -22 -11
-4 -22 2 -25 -25 -50 -22 -12
-3 -20 2 -26 -26 -50 -21 -13
-3 -21 2 -26 -26 -51 -22 -14
-3 -24 2 -27 -26 -51 -23 -12
-3 -24 2 -28 -27 -52 -23 -12
-5 -23 1 -30 -28 -52 -24 -13
-5 -24 2 -29 -28 -50 -23 -13
-4 -25 2 -29 -27 -49 -21 -11
-2 -25 2 -30 -27 -49 -21 -11
-4 -24 1 -31 -29 -50 -22 -12
-6 -23 1 -31 -30 -50 -23 -12
-5 -23 1 -32 -32 -52 -24 -13
-5 -24 2 -31 -32 -51 -24 -12
-4 -26 1 -32 -33 -53 -24 -13
-4 -26 0 -34 -34 -53 -25 -13
-5 -25 -2 -35 -35 -53 -27 -15
-5 -26 -2 -36 -36 -53 -29 -16
-5 -24 -2 -36 -34 -54 -28 -15
-4 -22 0 -37 -34 -53 -28 -16
-5 -23 0 -38 -36 -54 -28 -16
-6 -23 0 -38 -38 -54 -28 -16
-5 -22 -2 -39 -39 -55 -29 -17
-5 -22 -3 -39 -40 -55 -29 -17
-6 -24 -3 -40 -40 -56 -29 -17
-7 -25 -3 -40 -39 -56 -29 -16
-7 -24 -3 -41 -40 -56 -30 -16
-5 -23 -3 -43 -41 -55 -30 -17
-4 -23 -3 -44 -41 -56 -31 -17
-5 -23 -4 -45 -43 -56 -31 -18
-7 -26 -3 -45 -43 -55 -30 -17
-8 -27 -4 -45 -43 -55 -30 -16
-6 -26 -5 -44 -43 -55 -29 -15
-4 -24 -5 -44 -44 -56 -30 -15
-5 -25 -4 -44 -44 -57 -31 -16
-7 -26 -4 -45 -45 -58 -32 -18
-7 -26 -3 -45 -46 -57 -33 -18
-7 -26 -3 -45 -46 -56 -33 -18
-7 -27 -3 -46 -47 -57 -33 -18
-6 -26 -3 -47 -47 -56 -32 -18
-5 -25 -5 -48 -48 -57 -32 -19
-5 -24 -6 -48 -49 -58 -33 -19
-6 -24 -7 -48 -50 -59 -34 -20
-6 -25 -7 -48 -50 -59 -35 -20
-6 -27 -6 -48 -49 -58 -34 -19
-6 -26 -5 -48 -48 -59 -34 -19
-6 -24 -5 -49 -49 -59 -35 -21
-6 -25 -5 -49 -48 -59 -35 -21
-7 -27 -5 -48 -48 -57 -34 -20
-7 -27 -5 -49 -48 -56 -34 -20
-7 -24 -6 -51 -50 -58 -35 -21
-7 -23 -6 -51 -51 -58 -36 -21
-7 -26 -6 -50 -51 -58 -36 -20
-7 -28 -5 -50 -50 -58 -36 -20
-7 -27 -6 -51 -51 -59 -37 -22
-8 -27 -5 -50 -50 -59 -37 -22
-8 -26 -6 -51 -51 -60 -38 -23
-7 -25 -6 -51 -52 -60 -38 -23
-7 -26 -6 -51 -51 -58 -37 -21
-8 -27 -4 -50 -50 -56 -35 -19
-8 -29 -4 -50 -50 -56 -35 -18
-8 -30 -3 -50 -51 -56 -35 -18
-8 -29 -4 -51 -52 -57 -36 -20
-8 -27 -5 -51 -54 -58 -37 -21
-8 -26 -7 -52 -55 -60 -38 -23
-7 -25 -7 -52 -54 -59 -38 -23
-7 -24 -8 -53 -54 -59 -39 -24
-7 -25 -7 -52 -52 -58 -37 -22
-8 -27 -6 -51 -52 -56 -36 -21
-9 -27 -6 -52 -53 -57 -36 -21
-8 -27 -6 -52 -54 -57 -36 -22
-8 -27 -5 -52 -54 -57 -36 -22
-8 -26 -6 -52 -55 -58 -36 -23
-8 -25 -6 -52 -55 -58 -37 -24
-8 -26 -7 -53 -55 -58 -38 -25
-8 -28 -6 -53 -54 -57 -37 -26
-8 -29 -6 -53 -53 -57 -37 -25
-7 -27 -7 -54 -54 -57 -37 -25
-7 -27 -7 -54 -54 -58 -36 -25
-7 -26 -6 -54 -54 -57 -35 -24
-7 -26 -6 -54 -55 -57 -35 -23
-7 -27 -7 -54 -55 -57 -35 -23
-8 -27 -6 -53 -55 -57 -35 -22
-8 -27 -7 -54 -56 -57 -36 -23
-8 -27 -7 -54 -56 -59 -37 -24
-8 -29 -7 -55 -56 -59 -37 -25
-8 -30 -7 -55 -56 -59 -37 -26
-8 -29 -6 -55 -55 -58 -37 -26
-8 -27 -6 -55 -55 -57 -37 -26
-9 -27 -6 -56 -56 -57 -37 -26
-9 -26 -6 -56 -56 -57 -37 -25
-8 -25 -7 -55 -56 -58 -37 -25
-8 -24 -6 -53 -55 -57 -36 -24
-8 -24 -7 -54 -56 -58 -37 -25
-8 -25 -7 -55 -57 -58 -38 -26
-8 -25 -7 -55 -56 -58 -37 -26
-8 -25 -7 -55 -56 -57 -37 -26
-8 -26 -7 -55 -57 -57 -37 -26
-9 -27 -6 -56 -56 -57 -37 -25
-9 -27 -7 -57 -56 -56 -36 -24
-8 -27 -7 -56 -56 -56 -36 -24
-8 -25 -8 -57 -57 -57 -37 -25
-8 -27 -7 -56 -56 -56 -37 -25
-8 -29 -8 -56 -56 -57 -37 -25
-9 -27 -8 -56 -57 -57 -38 -26
-9 -25 -9 -58 -57 -58 -39 -27
-9 -25 -9 -56 -57 -58 -39 -27
-9 -26 -7 -49 -56 -57 -37 -26
-9 -25 -8 -39 -57 -58 -38 -27
-9 -25 -7 -33 -57 -58 -38 -27
-8 -25 -7 -32 -57 -56 -36 -25
-8 -24 -7 -30 -57 -55 -34 -24
-8 -24 -7 -29 -57 -55 -34 -24
-8 -25 -6 -28 -57 -56 -35 -24
-7 -24 -6 -28 -57 -56 -36 -25
-7 -23 -5 -26 -55 -55 -34 -24
-6 -22 -3 -25 -54 -54 -34 -24
-6 -19 -2 -25 -53 -53 -34 -24
-6 -17 0 -23 -50 -51 -32 -23
-6 -15 0 -23 -50 -51 -31 -22
-6 -14 1 -21 -50 -50 -31 -21
-6 -12 0 -21 -50 -50 -31 -21
-7 -11 0 -21 -51 -50 -32 -22
-6 -11 1 -20 -51 -50 -32 -22
-6 -12 2 -19 -50 -50 -32 -22
-5 -12 3 -18 -48 -49 -31 -22
-5 -9 3 -19 -48 -48 -32 -22
-5 -6 5 -18 -47 -48 -31 -22
-4 -4 6 -17 -47 -48 -31 -22
-4 -7 5 -17 -48 -48 -30 -21
-4 -11 3 -18 -49 -48 -30 -20
-4 -12 0 -19 -50 -49 -31 -21
-3 -9 -3 -19 -50 -49 -30 -20
-2 -8 -5 -19 -50 -48 -29 -19
0 -7 -7 -18 -48 -46 -28 -17
1 -4 -9 -21 -49 -47 -28 -17
1 -3 -10 -22 -49 -46 -28 -16
2 -5 -10 -24 -49 -46 -27 -15
2 -5 -11 -26 -49 -46 -26 -15
1 -4 -10 -27 -50 -46 -26 -16
-2 -5 -9 -27 -50 -45 -25 -16
-3 -7 -8 -25 -49 -44 -25 -16
-2 -6 -7 -23 -47 -41 -24 -15
0 -6 -7 -22 -47 -41 -24 -16
1 -6 -7 -22 -47 -41 -24 -16
1 -6 -8 -24 -48 -44 -24 -16
2 -7 -9 -26 -49 -44 -24 -16
1 -7 -10 -27 -51 -45 -23 -15
1 -8 -9 -27 -50 -44 -22 -14
1 -8 -9 -27 -50 -44 -22 -14
1 -7 -9 -28 -51 -44 -22 -14
0 -6 -9 -27 -51 -43 -22 -14
-3 -6 -8 -26 -50 -43 -22 -13
-3 -7 -10 -28 -52 -45 -24 -15
-4 -9 -10 -29 -54 -47 -26 -17
-5 -13 -9 -29 -55 -49 -28 -19
-6 -16 -9 -31 -57 -51 -30 -22
-7 -19 -8 -30 -56 -52 -31 -22
-7 -21 -9 -32 -58 -53 -33 -24
-8 -24 -7 -31 -57 -52 -32 -24
-9 -23 -7 -32 -59 -54 -34 -25
-8 -21 -8 -32 -61 -56 -36 -26
-9 -22 -9 -32 -62 -57 -38 -26
-10 -23 -8 -31 -61 -57 -38 -25
-9 -22 -9 -31 -60 -57 -38 -25
-9 -22 -8 -31 -60 -57 -38 -25
-10 -21 -8 -32 -61 -57 -38 -25
-10 -21 -8 -33 -60 -57 -38 -26
-10 -21 -8 -34 -60 -56 -37 -25
-10 -21 -8 -33 -60 -56 -36 -25
-10 -22 -7 -31 -58 -54 -34 -24
-9 -22 -8 -31 -59 -55 -35 -25
-9 -21 -8 -31 -60 -56 -36 -26
-10 -21 -9 -32 -61 -57 -38 -27
-11 -23 -8 -31 -61 -58 -38 -27
-10 -24 -7 -31 -60 -58 -38 -28
-10 -24 -6 -31 -59 -58 -38 -27
-10 -23 -6 -30 -59 -57 -38 -27
-10 -22 -6 -30 -58 -56 -36 -26
-10 -21 -7 -30 -60 -56 -36 -26
-10 -20 -6 -30 -60 -56 -35 -25
-10 -21 -7 -29 -58 -56 -34 -25
-10 -23 -6 -28 -57 -55 -33 -24
-10 -23 -6 -28 -58 -56 -34 -25
-10 -24 -6 -29 -58 -57 -36 -26
-10 -25 -5 -27 -56 -56 -36 -26
-10 -26 -3 -24 -54 -55 -37 -28
-12 -26 1 -19 -52 -56 -39 -33
-12 -28 6 -11 -49 -59 -46 -39
-11 -34 11 -2 -47 -64 -51 -45
-10 -39 18 12 -37 -63 -51 -45
-7 -36 21 23 -26 -58 -48 -43
-3 -28 21 30 -11 -46 -39 -36
3 -16 15 34 9 -19 -21 -21
10 3 5 36 35 21 12 3
20 26 -6 33 70 75 53 33
30 53 -16 19 100 136 100 67
40 85 -26 -7 122 200 151 106
50 120 -36 -28 146 270 207 148
56 157 -43 -33 180 345 265 192
61 193 -47 -40 217 415 319 233
63 228 -52 -66 245 479 365 268
59 260 -59 -115 255 522 394 290
51 281 -74 -185 240 537 402 299
36 288 -86 -246 217 531 391 295
18 278 -83 -270 197 509 362 273
1 248 -68 -264 181 479 324 240
-9 206 -52 -260 151 439 283 206
-13 172 -49 -272 96 372 234 170
-21 147 -53 -288 19 272 167 125
-32 122 -48 -291 -66 142 84 69
-45 94 -30 -283 -146 2 -3 13
-54 67 -8 -264 -201 -111 -64 -28
-58 44 11 -238 -219 -158 -89 -49
-58 26 17 -214 -205 -147 -90 -57
-56 12 13 -197 -189 -130 -88 -62
-53 4 6 -183 -177 -123 -87 -63
-48 -3 -2 -164 -162 -116 -80 -60
-41 -8 -9 -143 -144 -105 -74 -55
-36 -13 -14 -123 -129 -98 -69 -52
-32 -13 -19 -108 -119 -94 -66 -51
-26 -13 -22 -92 -107 -88 -63 -48
-21 -15 -23 -74 -94 -80 -57 -44
-16 -16 -23 -61 -82 -76 -54 -41
-12 -16 -21 -49 -72 -72 -51 -40
-11 -14 -17 -36 -60 -64 -46 -37
-10 -12 -12 -27 -49 -59 -41 -33
-10 -11 -7 -19 -39 -53 -37 -30
-10 -9 -4 -14 -34 -49 -34 -29
-10 -7 -2 -9 -29 -46 -31 -26
-10 -8 0 -5 -25 -43 -29 -25
-9 -8 1 0 -22 -41 -27 -24
-9 -6 1 2 -22 -43 -29 -26
-8 -5 2 3 -20 -44 -31 -28
-8 -8 5 7 -16 -41 -29 -27
-7 -11 7 11 -12 -39 -27 -24
-6 -10 7 12 -9 -38 -26 -23
-5 -7 8 13 -7 -36 -24 -22
-5 -8 9 14 -6 -34 -22 -21
-6 -10 9 16 -4 -31 -20 -19
-5 -10 8 18 -4 -31 -20 -19
-5 -9 9 19 -4 -31 -21 -19
-4 -10 9 20 -4 -31 -21 -20
-4 -11 9 20 -3 -31 -22 -20
-3 -11 10 22 1 -30 -21 -19
-3 -12 11 23 3 -28 -19 -18
-3 -12 12 23 6 -26 -18 -17
-3 -10 11 22 6 -26 -18 -17
-4 -8 12 22 8 -24 -17 -16
-3 -7 12 22 7 -24 -17 -16
-3 -7 12 24 7 -23 -17 -16
-2 -6 12 26 8 -22 -16 -16
-2 -7 12 26 9 -21 -16 -16
-2 -7 11 27 10 -22 -17 -17
-2 -7 12 27 11 -23 -17 -18
-2 -8 13 27 14 -21 -17 -17
-3 -8 15 29 17 -18 -14 -14
-3 -7 14 29 18 -17 -14 -14
-3 -6 14 30 20 -15 -12 -13
-2 -5 13 31 21 -14 -11 -13
-2 -4 13 32 21 -14 -11 -13
-2 -3 13 34 20 -14 -11 -14
0 -2 12 34 20 -15 -13 -16
0 -3 13 34 21 -15 -13 -17
0 -4 14 36 25 -12 -11 -15
0 -5 14 38 29 -10 -10 -14
0 -5 15 39 31 -8 -8 -13
1 -4 15 38 32 -7 -7 -13
1 -3 16 39 34 -4 -5 -11
1 0 15 39 34 -3 -4 -11
1 2 14 42 36 -2 -3 -10
2 2 13 42 36 -2 -3 -10
2 2 14 44 38 0 -4 -10
3 2 14 45 40 0 -4 -11
3 2 14 46 42 -2 -4 -11
4 2 13 46 45 2 -2 -12
4 3 13 47 47 4 -2 -11
3 4 14 48 50 6 1 -9
3 5 14 49 52 9 3 -7
3 5 14 51 53 10 5 -6
4 5 14 52 54 12 6 -5
4 6 13 53 56 13 7 -5
4 6 14 55 57 15 7 -4
4 6 14 56 59 16 7 -4
5 5 14 57 62 19 9 -3
6 4 15 59 66 21 11 -2
6 6 16 60 70 24 13 1
6 11 15 59 70 25 14 1
6 13 14 59 71 27 14 2
7 13 14 61 74 30 16 4
6 14 15 63 77 32 17 5
6 16 14 65 79 33 17 5
8 16 14 68 82 35 18 5
9 15 14 70 85 37 20 5
10 16 14 71 87 39 21 5
11 16 14 72 91 44 23 6
11 17 14 73 94 46 25 8
11 21 13 74 97 49 28 10
12 24 13 75 100 53 30 13
12 25 12 76 103 56 32 15
12 27 12 80 106 60 35 17
13 30 10 81 108 62 36 18
14 29 11 85 110 64 38 20
15 28 12 86 113 67 40 21
16 29 13 89 117 71 44 23
17 30 13 90 121 75 46 25
18 31 13 92 126 79 49 27
18 34 13 94 131 86 53 29
19 38 13 95 135 91 56 30
18 42 13 96 137 95 58 32
18 42 13 98 139 97 61 34
19 44 12 99 141 100 63 36
20 45 11 101 144 103 65 37
21 45 11 102 146 106 68 39
21 46 11 103 149 110 70 42
23 49 10 102 152 112 72 43
25 51 11 103 156 118 76 46
25 53 12 104 159 125 80 49
25 58 10 103 159 127 82 51
26 61 9 102 159 130 85 53
26 61 9 103 160 133 87 56
26 59 9 104 162 137 91 58
28 61 6 102 161 138 91 58
29 63 7 102 162 140 93 59
30 62 7 101 163 142 94 61
30 62 6 99 162 144 95 62
31 64 5 98 162 145 97 64
31 68 5 96 163 147 100 65
30 69 5 95 162 149 102 67
29 70 5 93 161 150 103 68
30 72 4 91 159 150 103 69
30 73 3 90 157 150 104 70
29 72 3 87 154 147 102 69
28 72 3 85 150 145 101 68
28 71 3 81 146 142 99 66
29 69 3 78 143 140 98 66
29 66 4 76 141 139 98 66
29 67 3 72 136 136 96 64
27 66 3 68 131 132 93 62
25 63 3 66 126 127 90 61
23 61 4 62 119 120 86 58
22 60 4 60 112 113 80 54
21 56 4 57 105 104 74 49
20 51 6 55 99 96 68 45
19 49 7 50 93 87 63 40
18 48 7 46 87 78 57 36
17 45 7 42 79 70 52 32
15 40 8 38 74 63 48 29
13 36 9 35 68 57 44 26
12 34 9 32 61 50 39 22
10 31 10 29 56 43 35 19
9 28 10 25 49 34 28 15
7 24 11 23 43 26 22 11
6 19 12 22 38 20 18 8
6 17 12 19 33 13 14 4
5 14 12 16 28 7 10 1
4 12 12 13 24 1 6 -3
3 9 13 11 22 -4 4 -5
2 8 12 8 18 -9 -2 -8
1 7 11 6 14 -14 -5 -11
0 6 10 5 10 -20 -9 -14
-2 4 10 4 6 -25 -13 -17
-3 1 10 3 2 -30 -16 -20
-3 -2 11 2 1 -33 -19 -22
-4 -4 12 1 -2 -36 -22 -24
-5 -5 11 -2 -5 -40 -25 -27
-6 -6 11 -3 -6 -43 -27 -28
-6 -8 12 -3 -7 -44 -27 -27
-6 -9 12 -4 -8 -45 -28 -28
-7 -11 13 -3 -7 -45 -28 -28
-7 -14 14 -3 -7 -46 -29 -28
-7 -16 14 -2 -7 -47 -30 -29
-6 -15 13 -3 -10 -50 -32 -31
-5 -11 11 -6 -13 -54 -36 -34
-5 -11 10 -7 -13 -55 -37 -34
-6 -14 12 -5 -11 -53 -36 -33
-6 -14 12 -6 -11 -54 -36 -33
-7 -11 11 -7 -12 -56 -38 -34
-8 -11 11 -7 -12 -56 -38 -33
-8 -12 12 -6 -11 -55 -36 -32
-7 -13 12 -6 -12 -55 -36 -32
-7 -14 11 -5 -13 -56 -36 -33
-7 -15 11 -5 -12 -56 -38 -34
-7 -15 10 -4 -12 -57 -39 -35
-6 -14 10 -4 -11 -57 -39 -35
-6 -14 11 -4 -10 -57 -39 -35
-6 -15 11 -4 -9 -56 -38 -34
-7 -14 11 -4 -9 -55 -37 -33
-7 -13 11 -3 -8 -54 -35 -32
-7 -11 11 -4 -9 -55 -36 -33
-7 -11 10 -4 -9 -55 -36 -33
-7 -12 10 -4 -10 -56 -37 -34
-8 -13 11 -2 -9 -55 -36 -33
-7 -14 12 -2 -9 -56 -36 -34
-6 -14 12 -2 -8 -56 -36 -33
-6 -15 11 -2 -7 -56 -36 -33
-7 -18 12 -2 -6 -56 -34 -32
-8 -19 12 0 -6 -55 -32 -31
-7 -16 12 -2 -7 -55 -32 -31
-7 -13 12 -3 -8 -55 -33 -31
-6 -13 11 -4 -9 -55 -34 -32
-6 -14 11 -2 -8 -54 -33 -31
-6 -13 9 -3 -9 -56 -34 -32
-6 -12 9 -3 -9 -57 -34 -33
-6 -13 9 -4 -9 -57 -35 -33
-6 -13 9 -4 -10 -57 -35 -33
-6 -13 9 -4 -10 -57 -34 -32
-6 -13 10 -5 -10 -56 -33 -32
-6 -13 10 -5 -10 -56 -33 -32
-6 -12 10 -5 -10 -55 -33 -31
-6 -12 10 -5 -11 -56 -32 -31
-6 -12 10 -5 -12 -57 -33 -31
-6 -12 9 -5 -13 -58 -33 -31
-5 -13 9 -6 -13 -58 -34 -32
-5 -14 8 -6 -14 -59 -35 -32
-5 -15 9 -6 -13 -58 -33 -32
-6 -14 9 -7 -14 -58 -33 -32
-6 -13 9 -8 -16 -60 -34 -32
-7 -12 8 -9 -17 -60 -34 -32
-7 -12 8 -10 -18 -60 -35 -32
-7 -12 8 -10 -19 -61 -36 -33
-7 -13 8 -10 -19 -62 -36 -33
-7 -12 6 -11 -21 -63 -36 -34
-6 -12 6 -11 -22 -63 -36 -34
-5 -13 6 -12 -22 -63 -36 -34
-5 -14 6 -13 -23 -64 -36 -34
-5 -15 7 -12 -22 -62 -35 -32
-5 -16 7 -13 -23 -62 -35 -31
-6 -17 8 -13 -23 -61 -34 -30
-6 -15 7 -15 -25 -63 -35 -32
-7 -15 7 -16 -27 -63 -36 -32
-7 -17 7 -15 -27 -64 -36 -31
-8 -17 6 -16 -29 -66 -37 -32
-8 -16 6 -16 -30 -67 -38 -33
-6 -16 6 -17 -30 -68 -38 -34
-5 -16 7 -17 -30 -67 -38 -33
-7 -16 7 -17 -29 -66 -38 -32
-7 -16 5 -18 -30 -66 -38 -32
-7 -16 6 -18 -30 -66 -37 -32
-7 -18 7 -18 -31 -66 -36 -32
-8 -17 6 -19 -32 -67 -37 -32
-7 -15 4 -20 -34 -69 -40 -34
-6 -14 5 -20 -34 -69 -40 -34
-6 -15 5 -20 -35 -69 -40 -34
-6 -14 4 -21 -35 -71 -41 -35
-7 -16 4 -21 -35 -71 -40 -35
-7 -19 5 -21 -34 -69 -39 -33
-7 -20 6 -21 -35 -69 -39 -33
-7 -18 4 -23 -36 -70 -39 -33
-7 -18 4 -23 -36 -70 -39 -32
-8 -19 5 -21 -35 -69 -38 -31
-8 -19 5 -22 -36 -70 -39 -32
-9 -19 4 -22 -38 -72 -40 -34
-9 -21 4 -22 -38 -71 -39 -34
-8 -21 5 -22 -37 -71 -39 -34
-7 -21 4 -23 -38 -72 -40 -34
-8 -21 4 -23 -38 -71 -39 -33
-8 -20 3 -24 -38 -69 -40 -34
-8 -19 4 -24 -38 -63 -39 -34
-8 -19 4 -25 -38 -59 -39 -33
-8 -20 4 -25 -39 -58 -39 -33
-8 -19 4 -25 -40 -59 -40 -33
-7 -17 2 -26 -41 -60 -41 -34
-8 -18 3 -25 -41 -59 -40 -34
-9 -20 4 -25 -41 -59 -39 -34
-9 -22 3 -26 -41 -59 -39 -34
-9 -22 3 -26 -41 -57 -39 -33
-8 -22 3 -25 -41 -56 -39 -32
-8 -21 3 -26 -40 -56 -38 -32
-7 -20 3 -27 -41 -56 -39 -33
-7 -18 2 -28 -44 -56 -40 -34
-8 -20 2 -27 -44 -56 -40 -33
-9 -22 1 -27 -45 -56 -39 -33
-9 -24 2 -26 -43 -56 -39 -33
-8 -24 3 -25 -43 -56 -39 -33
-8 -24 2 -25 -43 -56 -39 -33
-8 -25 2 -26 -43 -55 -38 -33
-8 -25 3 -26 -43 -55 -38 -32
-8 -23 2 -28 -44 -55 -39 -31
-8 -22 2 -28 -44 -55 -38 -30
-7 -22 2 -28 -44 -56 -38 -30
-7 -22 2 -28 -45 -56 -39 -30
-8 -23 1 -28 -47 -57 -39 -31
-8 -25 1 -27 -46 -57 -39 -31
-8 -24 2 -26 -46 -57 -40 -31
-7 -24 1 -27 -47 -58 -40 -33
-7 -25 2 -26 -46 -57 -39 -32
-8 -25 2 -26 -46 -56 -39 -31
-8 -23 1 -26 -47 -57 -40 -31
-8 -21 2 -25 -48 -57 -39 -30
-7 -21 0 -26 -49 -58 -40 -31
-7 -22 0 -24 -48 -57 -39 -30
-7 -22 0 -24 -48 -57 -39 -30
-7 -22 0 -24 -48 -58 -38 -30
-7 -24 0 -23 -48 -58 -38 -30
-6 -26 1 -22 -47 -57 -37 -28
-7 -25 0 -23 -47 -57 -37 -28
-7 -25 0 -23 -47 -57 -37 -28
-7 -25 0 -23 -47 -57 -37 -28
-7 -25 0 -23 -47 -57 -36 -28
-8 -25 0 -23 -48 -57 -37 -28
-8 -24 -2 -22 -48 -57 -37 -28
-8 -25 -2 -23 -49 -58 -38 -28
-8 -25 -2 -23 -49 -58 -38 -28
-7 -24 -3 -24 -50 -59 -39 -29
-7 -24 -3 -24 -50 -59 -38 -29
-6 -24 -3 -25 -50 -59 -38 -29
-6 -25 -3 -25 -49 -58 -37 -28
-6 -24 -2 -25 -48 -58 -36 -28
-6 -23 0 -24 -48 -58 -36 -27
-6 -22 -2 -24 -50 -59 -36 -28
-5 -22 0 -21 -48 -58 -36 -27
-4 -21 2 -20 -47 -56 -34 -27
-4 -20 3 -19 -46 -55 -34 -27
-5 -20 2 -18 -44 -55 -35 -27
-5 -17 3 -17 -43 -54 -33 -25
-4 -14 4 -17 -41 -53 -32 -24
-4 -13 4 -16 -40 -52 -31 -23
-4 -13 4 -16 -39 -51 -29 -21
-3 -12 4 -16 -39 -52 -29 -21
-3 -12 5 -15 -39 -52 -29 -21
-4 -12 5 -15 -39 -52 -29 -22
-3 -11 6 -14 -39 -51 -29 -21
-3 -10 6 -13 -38 -51 -29 -21
-2 -10 7 -12 -37 -50 -28 -20
-2 -9 7 -12 -37 -49 -27 -20
-2 -8 5 -14 -38 -51 -28 -22
0 -8 3 -16 -39 -53 -30 -22
1 -9 1 -16 -40 -54 -30 -22
2 -10 0 -15 -40 -52 -28 -20
3 -8 -4 -16 -40 -51 -27 -20
4 -7 -7 -18 -40 -51 -27 -19
5 -7 -8 -20 -40 -50 -25 -18
4 -7 -9 -21 -40 -50 -25 -17
3 -8 -9 -21 -39 -49 -25 -17
4 -11 -9 -22 -39 -48 -25 -17
4 -12 -8 -22 -39 -48 -25 -16
4 -12 -7 -21 -39 -48 -24 -15
4 -13 -7 -21 -39 -48 -24 -15
4 -13 -6 -20 -38 -47 -23 -14
4 -13 -6 -20 -37 -45 -21 -14
4 -13 -6 -21 -38 -46 -21 -14
3 -13 -7 -21 -39 -47 -22 -13
3 -12 -10 -24 -41 -49 -24 -15
3 -12 -10 -26 -43 -49 -24 -15
4 -13 -11 -27 -44 -50 -25 -15
3 -15 -10 -27 -44 -50 -24 -14
3 -16 -10 -25 -40 -49 -23 -13
2 -14 -10 -26 -40 -49 -23 -13
1 -15 -9 -25 -40 -48 -22 -12
0 -16 -9 -25 -41 -49 -23 -13
0 -18 -10 -26 -45 -51 -25 -16
0 -20 -11 -26 -46 -53 -26 -17
0 -22 -10 -26 -48 -55 -28 -18
-2 -24 -11 -27 -49 -56 -30 -20
-3 -26 -10 -28 -50 -57 -31 -21
-4 -27 -11 -29 -51 -59 -33 -22
-5 -28 -10 -29 -52 -60 -34 -23
-5 -28 -10 -30 -52 -61 -35 -24
-6 -28 -10 -30 -53 -61 -35 -24
-6 -27 -10 -30 -53 -61 -35 -25
-6 -27 -10 -30 -53 -61 -36 -25
-6 -27 -10 -29 -53 -61 -36 -25
-5 -29 -11 -29 -52 -62 -36 -25
-5 -30 -10 -28 -51 -61 -35 -25
-6 -30 -10 -28 -51 -60 -35 -24
-6 -30 -9 -28 -50 -60 -34 -24
-6 -31 -9 -29 -50 -59 -34 -24
-5 -30 -10 -29 -51 -59 -35 -24
-6 -29 -10 -29 -51 -60 -35 -23
-6 -28 -10 -30 -52 -61 -36 -25
-5 -29 -10 -29 -52 -61 -36 -25
-5 -30 -9 -27 -50 -60 -35 -23
-6 -30 -10 -27 -51 -60 -35 -24
-7 -31 -11 -27 -52 -61 -36 -25
-7 -32 -10 -27 -51 -60 -35 -25
-6 -30 -9 -26 -51 -58 -34 -24
-5 -31 -9 -26 -51 -57 -34 -24
-5 -32 -9 -27 -51 -58 -34 -25
-6 -32 -9 -27 -51 -59 -35 -26
-6 -31 -9 -27 -51 -60 -35 -26
-6 -31 -10 -27 -51 -60 -35 -26
-7 -32 -9 -24 -51 -60 -36 -27
-7 -33 -6 -19 -49 -59 -36 -28
-8 -34 -3 -14 -47 -61 -40 -33
-9 -39 4 -5 -45 -65 -46 -39
-8 -44 10 6 -43 -69 -51 -44
-5 -44 14 16 -35 -71 -53 -45
-2 -38 17 29 -22 -64 -50 -43
2 -30 18 40 -4 -48 -38 -33
8 -17 11 45 17 -21 -17 -18
16 2 3 43 47 23 17 7
25 25 -9 29 77 76 57 36
34 52 -20 0 102 136 102 70
44 84 -31 -36 122 199 152 107
52 118 -39 -56 152 272 209 151
60 155 -48 -65 192 349 267 194
66 192 -54 -83 232 422 321 233
68 226 -60 -120 260 485 365 268
65 255 -73 -179 266 523 391 289
56 274 -93 -247 252 535 399 300
43 281 -107 -302 227 525 387 295
23 272 -104 -320 202 498 357 273
6 241 -88 -313 179 463 317 241
-5 198 -75 -307 144 413 273 203
-10 160 -75 -313 87 342 221 164
-19 132 -78 -322 8 240 153 118
-30 104 -72 -322 -82 110 68 62
-43 73 -52 -306 -161 -25 -13 9
-52 47 -29 -279 -215 -129 -69 -30
-56 25 -14 -251 -230 -164 -91 -49
-55 9 -10 -225 -213 -149 -90 -57
-52 -5 -12 -204 -192 -132 -87 -60
-48 -13 -18 -186 -178 -126 -86 -61
-43 -19 -23 -163 -161 -115 -79 -58
-37 -24 -27 -140 -142 -104 -73 -53
-32 -25 -31 -120 -128 -98 -68 -51
-26 -23 -33 -101 -115 -91 -62 -47
-20 -21 -34 -82 -101 -82 -58 -43
-14 -21 -32 -65 -88 -75 -53 -38
-11 -21 -31 -52 -76 -71 -50 -36
-9 -20 -28 -39 -65 -66 -46 -33
-8 -18 -21 -26 -53 -59 -40 -29
-6 -16 -16 -16 -44 -55 -38 -28
-5 -17 -11 -9 -37 -51 -34 -25
-5 -16 -8 -3 -31 -46 -30 -23
-6 -15 -5 3 -26 -41 -27 -20
-5 -14 -5 7 -23 -40 -26 -20
-5 -16 -3 11 -19 -38 -26 -19
-5 -18 -2 14 -15 -37 -26 -19
-4 -20 -2 16 -13 -37 -25 -20
-2 -18 0 19 -10 -35 -24 -20
0 -17 1 21 -8 -34 -23 -20
0 -16 3 23 -7 -31 -22 -19
0 -16 3 24 -5 -30 -21 -17
-2 -17 4 27 -3 -29 -19 -16
-2 -19 5 30 1 -27 -17 -14
-2 -19 5 31 3 -26 -16 -13
-2 -18 5 32 4 -25 -16 -14
-2 -18 5 32 5 -25 -17 -15
0 -19 5 33 6 -24 -16 -15
1 -19 5 32 6 -24 -17 -16
1 -19 6 33 7 -23 -16 -15
1 -19 7 35 10 -21 -15 -13
2 -18 8 36 12 -20 -13 -11
2 -15 8 36 13 -20 -13 -10
1 -12 7 36 13 -20 -13 -10
1 -13 7 37 14 -19 -13 -10
2 -15 7 38 15 -18 -13 -10
2 -15 7 39 16 -18 -13 -11
3 -16 8 40 18 -18 -14 -11
3 -17 8 42 19 -17 -14 -11
3 -18 9 43 20 -16 -14 -11
3 -16 10 44 23 -14 -12 -11
3 -14 10 45 24 -13 -11 -10
3 -13 10 47 27 -12 -10 -9
3 -13 10 48 28 -10 -9 -8
3 -13 10 50 30 -9 -8 -7
4 -13 9 50 30 -9 -8 -8
4 -13 9 51 31 -9 -8 -8
4 -13 9 51 32 -8 -8 -8
4 -14 11 53 35 -6 -6 -7
5 -15 13 55 38 -5 -4 -6
6 -14 13 56 40 -3 -3 -6
5 -10 13 57 42 -2 -2 -5
5 -10 13 58 43 1 0 -4
5 -11 13 60 45 2 1 -3
5 -10 13 61 47 3 2 -3
6 -9 12 62 47 3 1 -4
6 -9 11 62 48 3 2 -5
6 -10 12 64 51 6 3 -4
7 -8 12 66 53 8 4 -3
8 -7 13 68 54 9 5 -2
8 -7 13 68 56 11 7 0
7 -7 14 69 58 13 8 0
7 -6 14 72 61 15 10 1
8 -4 14 73 62 16 10 2
8 -4 14 75 64 18 12 3
8 -3 14 78 65 19 13 4
9 -2 13 78 66 20 13 4
10 -2 13 79 69 22 14 5
11 0 14 80 71 24 15 6
11 0 15 84 74 25 16 7
11 1 16 85 77 27 18 7
11 1 16 88 79 30 20 8
11 1 17 90 82 34 22 10
11 3 16 92 85 35 22 10
12 5 15 93 87 37 23 10
12 6 15 95 90 39 25 12
13 6 15 96 92 40 25 11
13 7 15 98 96 44 26 12
14 7 16 102 100 47 28 14
16 7 16 104 104 50 30 16
16 9 17 106 107 54 33 18
16 12 16 108 111 56 35 20
16 14 17 111 115 60 38 23
17 17 16 112 117 62 39 23
19 19 16 114 120 66 40 24
20 18 16 117 125 69 44 26
20 17 16 120 130 73 46 29
20 20 16 121 133 76 47 30
21 23 16 122 137 80 49 31
21 26 16 125 141 84 52 32
22 27 16 127 146 88 54 34
23 29 16 128 150 93 58 37
25 33 16 130 154 98 61 39
26 35 16 133 158 102 64 43
26 36 17 135 162 107 68 46
26 39 16 136 165 110 71 48
27 43 15 137 169 113 73 50
29 45 15 137 171 116 75 51
29 47 16 139 176 121 78 54
30 48 14 139 178 126 81 55
30 50 14 139 181 129 84 57
31 52 14 140 184 134 88 60
32 54 14 140 186 138 91 63
32 55 14 140 188 142 94 65
32 57 12 139 188 144 96 66
34 58 12 139 190 148 99 69
35 59 13 140 192 151 102 72
35 60 11 137 192 152 101 72
35 60 11 135 193 153 103 73
35 63 11 133 194 155 106 74
35 64 11 132 194 157 108 77
35 65 12 131 193 159 110 79
35 67 10 130 192 160 111 81
35 69 9 128 191 160 112 81
35 70 8 125 189 161 113 81
35 71 8 121 186 160 113 81
34 70 7 117 183 159 112 81
34 68 8 114 180 158 112 81
34 66 8 112 177 157 111 81
33 66 8 108 172 153 110 80
34 67 7 104 165 149 107 78
34 68 7 99 160 145 104 77
32 66 7 95 153 140 102 74
30 62 7 91 146 134 98 72
28 58 7 86 139 127 93 69
26 56 8 82 133 119 88 65
25 53 8 77 123 111 82 60
23 50 9 73 116 103 77 55
22 46 9 67 108 93 70 50
20 40 11 64 102 86 65 47
19 35 11 59 96 78 60 44
18 33 11 54 89 71 55 39
16 32 11 49 80 63 50 35
15 28 10 45 72 54 45 31
13 24 10 40 65 47 39 28
11 21 10 36 59 39 34 24
10 17 10 33 53 32 29 20
8 13 10 30 47 25 25 17
7 10 9 26 42 18 20 14
6 7 9 23 36 11 16 11
6 4 9 20 30 6 12 8
5 1 10 18 26 2 8 6
3 0 9 15 20 -5 4 3
1 -3 8 12 17 -10 0 0
1 -5 8 11 14 -13 -3 -3
0 -8 9 10 11 -17 -5 -5
0 -10 10 9 8 -20 -8 -7
0 -11 9 7 5 -25 -12 -10
-2 -13 9 6 2 -28 -14 -12
-3 -15 8 5 -2 -31 -16 -13
-4 -18 8 4 -2 -32 -18 -14
-4 -19 9 4 -3 -33 -18 -14
-5 -19 9 4 -4 -35 -19 -15
-5 -20 8 3 -6 -37 -21 -17
-6 -21 9 3 -7 -38 -21 -16
-5 -19 8 3 -9 -40 -23 -18
-5 -18 8 2 -10 -43 -25 -19
-5 -20 8 1 -11 -45 -27 -21
-5 -21 9 2 -10 -44 -27 -21
-5 -19 7 1 -11 -46 -28 -22
-5 -20 7 1 -11 -46 -29 -22
-6 -22 7 2 -10 -46 -29 -22
-6 -23 8 3 -10 -46 -27 -21
-5 -22 7 3 -11 -47 -28 -21
-5 -21 8 4 -10 -46 -27 -20
-5 -21 8 4 -9 -47 -28 -20
-5 -21 8 4 -10 -47 -29 -21
-6 -22 8 4 -10 -48 -31 -22
-6 -23 8 5 -9 -48 -31 -22
-6 -22 8 4 -9 -49 -32 -23
-6 -23 9 6 -7 -47 -30 -22
-6 -24 9 6 -7 -47 -30 -21
-6 -23 9 6 -7 -46 -30 -21
-6 -22 8 6 -8 -47 -31 -22
-6 -21 8 8 -7 -47 -31 -22
-5 -20 7 8 -8 -49 -32 -23
-5 -21 8 9 -8 -48 -31 -22
-5 -22 8 8 -8 -48 -32 -23
-5 -23 9 7 -8 -48 -32 -23
-5 -23 9 7 -7 -48 -31 -23
-5 -24 10 9 -6 -47 -30 -22
-5 -25 10 9 -6 -46 -29 -21
-5 -23 9 9 -6 -46 -29 -22
-5 -21 8 9 -6 -46 -29 -20
-5 -22 8 9 -7 -46 -29 -20
-6 -23 8 9 -6 -46 -29 -20
-6 -23 9 9 -7 -47 -28 -21
-5 -22 9 8 -7 -47 -29 -21
-6 -23 10 10 -7 -46 -28 -20
-6 -25 9 10 -6 -46 -29 -21
-6 -24 9 10 -6 -45 -29 -20
-6 -24 9 9 -6 -45 -28 -20
-6 -23 8 9 -7 -45 -28 -20
-7 -21 7 7 -9 -45 -29 -20
-5 -20 7 6 -11 -46 -29 -21
-5 -20 6 6 -11 -46 -29 -21
-6 -21 7 7 -12 -46 -29 -20
-6 -21 6 5 -13 -48 -30 -21
-6 -20 6 4 -13 -48 -31 -21
-6 -19 5 2 -14 -49 -32 -22
-6 -20 6 3 -13 -48 -30 -21
-5 -20 5 1 -15 -49 -31 -22
-5 -19 5 1 -15 -48 -31 -22
-6 -18 4 0 -16 -48 -31 -22
-7 -19 5 1 -17 -48 -30 -21
-7 -19 6 0 -17 -49 -31 -22
-7 -19 5 -2 -18 -50 -31 -22
-7 -21 5 -3 -19 -51 -32 -23
-7 -23 5 -3 -19 -51 -32 -22
-7 -23 5 -3 -20 -51 -33 -22
-7 -23 5 -4 -20 -51 -33 -21
-7 -22 5 -4 -21 -51 -32 -21
-8 -23 5 -5 -22 -52 -33 -21
-8 -23 4 -6 -24 -54 -33 -22
-7 -22 3 -7 -25 -53 -33 -21
-6 -21 3 -7 -26 -54 -34 -22
-6 -22 3 -8 -26 -55 -34 -22
-7 -24 3 -8 -27 -56 -35 -22
-9 -24 3 -8 -28 -57 -35 -23
-8 -23 3 -9 -29 -58 -36 -25
-8 -23 3 -10 -29 -57 -36 -25
-8 -24 3 -10 -29 -56 -35 -24
-8 -23 2 -11 -31 -58 -36 -25
-9 -22 2 -12 -31 -59 -36 -24
-9 -21 2 -12 -32 -58 -35 -24
-8 -21 2 -12 -33 -59 -36 -24
-8 -21 2 -12 -34 -59 -37 -25
-8 -22 2 -12 -35 -59 -37 -24
-8 -22 2 -13 -35 -59 -37 -24
-7 -23 2 -14 -35 -59 -37 -25
-7 -24 1 -14 -35 -59 -37 -26
-7 -25 2 -13 -35 -58 -37 -25
-8 -25 1 -14 -36 -59 -37 -26
-8 -24 1 -13 -37 -59 -37 -26
-8 -23 0 -14 -38 -59 -37 -26
-9 -22 0 -14 -39 -60 -37 -26
-9 -23 1 -15 -38 -60 -38 -27
-9 -24 0 -16 -39 -60 -38 -27
-8 -24 0 -15 -39 -59 -37 -26
-8 -25 -2 -15 -40 -60 -37 -27
-8 -26 -2 -16 -40 -61 -38 -27
-9 -26 0 -16 -40 -59 -37 -26
-8 -26 0 -16 -41 -59 -37 -26
-7 -25 1 -16 -41 -58 -36 -25
-7 -25 2 -17 -41 -58 -36 -25
-9 -25 0 -19 -43 -59 -38 -26
-10 -26 1 -19 -43 -59 -38 -26
-9 -25 0 -19 -44 -60 -38 -27
-9 -23 0 -18 -44 -60 -38 -27
-9 -25 -2 -19 -45 -61 -39 -27
-10 -27 1 -20 -44 -59 -38 -26
-10 -26 1 -19 -44 -58 -38 -26
-10 -25 1 -19 -44 -57 -37 -26
-10 -24 -2 -20 -45 -58 -38 -27
-10 -24 -3 -20 -45 -58 -38 -27
-10 -25 -2 -19 -45 -57 -38 -26
-10 -26 -2 -19 -45 -57 -38 -26
-10 -27 -2 -19 -45 -57 -37 -26
-10 -27 -2 -18 -45 -57 -37 -26
-10 -27 -2 -19 -46 -58 -38 -26
-10 -27 -3 -19 -46 -57 -37 -26
-10 -27 -2 -20 -45 -56 -37 -26
-10 -27 -2 -20 -45 -56 -37 -26
-9 -27 -2 -20 -45 -56 -37 -26
-9 -27 -2 -19 -45 -55 -36 -25
-9 -27 -2 -19 -45 -55 -36 -25
-10 -27 -3 -20 -46 -56 -37 -25
-10 -27 -3 -20 -47 -56 -37 -25
-9 -26 -2 -20 -47 -56 -37 -26
-10 -25 -2 -21 -47 -56 -37 -26
-10 -26 -2 -22 -46 -55 -37 -26
-10 -26 -3 -22 -47 -55 -37 -26
-10 -24 -4 -22 -48 -55 -38 -27
-10 -23 -5 -21 -49 -55 -38 -27
-10 -23 -5 -21 -49 -55 -38 -27
-10 -24 -5 -22 -49 -54 -38 -27
-10 -25 -3 -21 -48 -54 -37 -26
-10 -26 -3 -21 -49 -54 -37 -26
-10 -27 -4 -22 -49 -54 -37 -26
-10 -26 -4 -22 -49 -53 -37 -26
-9 -25 -5 -21 -49 -53 -38 -27
-9 -25 -5 -21 -49 -53 -38 -27
-10 -26 -4 -22 -49 -52 -37 -26
-10 -25 -4 -22 -49 -52 -37 -26
-10 -24 -4 -22 -51 -53 -38 -26
-10 -23 -4 -22 -51 -52 -37 -26
-9 -22 -5 -23 -52 -53 -38 -27
-9 -21 -6 -23 -51 -53 -39 -27
-10 -22 -5 -22 -51 -53 -38 -27
-10 -26 -4 -22 -51 -54 -38 -27
-10 -27 -4 -22 -51 -54 -37 -27
-10 -23 -4 -23 -51 -53 -38 -27
-10 -21 -5 -24 -53 -54 -38 -28
-10 -23 -5 -23 -53 -54 -37 -27
-11 -24 -5 -22 -52 -52 -37 -26
-10 -24 -5 -23 -53 -52 -38 -27
-10 -24 -4 -23 -53 -53 -38 -27
-9 -24 -4 -23 -53 -53 -37 -27
-9 -25 -4 -22 -53 -53 -38 -27
-10 -25 -3 -20 -51 -52 -37 -26
-10 -25 -4 -22 -51 -52 -37 -26
-11 -26 -5 -24 -52 -52 -37 -26
-10 -27 -5 -23 -52 -52 -37 -26
-10 -27 -3 -22 -52 -51 -36 -26
-10 -26 -2 -21 -52 -51 -36 -26
-11 -24 -3 -22 -52 -51 -36 -26
-11 -23 -5 -24 -54 -53 -37 -27
-10 -23 -5 -23 -53 -53 -37 -27
-10 -22 -5 -22 -53 -53 -37 -27
-10 -22 -5 -22 -53 -53 -37 -27
-11 -22 -6 -23 -53 -54 -37 -27
-11 -22 -5 -23 -53 -53 -37 -27
-11 -25 -4 -22 -52 -51 -36 -26
-11 -27 -5 -22 -53 -51 -35 -26
-11 -24 -5 -22 -54 -51 -35 -26
-11 -21 -6 -23 -55 -53 -36 -27
-11 -23 -7 -24 -55 -54 -37 -27
-11 -24 -6 -23 -54 -53 -37 -26
-11 -24 -6 -23 -54 -53 -36 -26
-11 -24 -5 -22 -54 -53 -36 -26
-11 -23 -6 -23 -54 -53 -36 -27
-10 -22 -5 -22 -53 -52 -35 -26
-10 -21 -5 -23 -53 -53 -35 -26
-10 -21 -4 -22 -53 -53 -34 -26
-10 -21 -3 -20 -51 -51 -33 -25
-10 -18 -2 -19 -50 -50 -33 -24
-10 -15 0 -18 -49 -50 -33 -24
-10 -13 2 -16 -47 -48 -31 -22
-9 -12 3 -15 -47 -48 -31 -22
-9 -11 4 -14 -46 -47 -30 -21
-8 -9 3 -15 -46 -47 -30 -19
-8 -8 3 -15 -46 -47 -30 -20
-8 -8 4 -14 -45 -47 -29 -20
-8 -9 6 -12 -43 -45 -27 -19
-8 -8 6 -12 -43 -45 -27 -19
-7 -5 7 -10 -43 -45 -27 -19
-7 -3 8 -9 -43 -46 -27 -19
-8 -5 7 -9 -41 -46 -27 -19
-8 -6 6 -9 -41 -46 -27 -19
-6 -7 3 -11 -44 -49 -29 -21
-5 -8 2 -13 -45 -50 -29 -22
-5 -8 1 -13 -45 -48 -29 -21
-3 -6 -2 -14 -44 -46 -28 -20
-2 -5 -4 -15 -43 -45 -27 -18
-3 -5 -5 -15 -43 -43 -24 -16
-4 -6 -6 -16 -44 -43 -25 -16
-4 -7 -6 -16 -44 -43 -24 -15
-4 -8 -6 -17 -44 -44 -25 -15
-5 -9 -5 -17 -43 -43 -24 -15
-6 -8 -4 -17 -43 -41 -25 -15
-5 -8 -4 -17 -44 -43 -25 -15
-3 -10 -2 -15 -43 -40 -24 -14
-3 -11 0 -13 -40 -38 -22 -12
-3 -10 -3 -15 -43 -40 -23 -13
-4 -7 -5 -18 -45 -41 -23 -13
-4 -4 -7 -21 -47 -44 -25 -15
-4 -5 -8 -23 -50 -45 -26 -16
-3 -8 -8 -23 -51 -45 -26 -16
-4 -11 -7 -22 -50 -45 -26 -15
-4 -12 -7 -22 -49 -45 -26 -16
-5 -11 -7 -22 -49 -44 -25 -15
-6 -10 -7 -22 -48 -43 -25 -14
-7 -10 -6 -21 -48 -40 -24 -13
-7 -12 -6 -22 -50 -43 -26 -15
-8 -14 -6 -22 -51 -45 -28 -17
-9 -16 -6 -23 -53 -46 -30 -19
-10 -18 -7 -25 -54 -48 -31 -20
-10 -20 -6 -25 -55 -49 -32 -20
-12 -22 -5 -25 -56 -50 -33 -22
-13 -23 -5 -25 -56 -51 -34 -24
-13 -22 -5 -26 -57 -53 -35 -26
-14 -21 -5 -26 -57 -54 -36 -26
-13 -23 -4 -26 -58 -54 -36 -26
-13 -23 -4 -26 -58 -54 -36 -26
-13 -23 -4 -25 -58 -53 -36 -26
-14 -24 -4 -26 -58 -53 -36 -26
-14 -26 -3 -25 -57 -52 -36 -25
-14 -26 -4 -25 -57 -53 -36 -25
-14 -25 -5 -26 -58 -54 -37 -26
-14 -24 -4 -25 -57 -53 -37 -26
-13 -24 -3 -25 -57 -52 -35 -26
-13 -24 -3 -24 -56 -51 -34 -25
-14 -24 -4 -24 -57 -51 -35 -26
-14 -24 -4 -23 -57 -51 -35 -26
-13 -23 -3 -22 -56 -51 -35 -26
-13 -23 -3 -22 -56 -51 -34 -26
-13 -24 -3 -21 -56 -51 -35 -26
-12 -25 -3 -21 -56 -51 -35 -26
-11 -25 -3 -22 -56 -50 -35 -26
-11 -25 -4 -22 -56 -49 -35 -26
-12 -25 -4 -23 -56 -49 -36 -26
-13 -25 -4 -23 -56 -49 -36 -26
-14 -25 -4 -22 -56 -50 -37 -28
-14 -26 -2 -21 -54 -49 -36 -27
-15 -27 1 -17 -52 -50 -36 -27
-16 -29 5 -10 -49 -51 -39 -30
-18 -32 12 0 -47 -53 -45 -35
-18 -37 19 10 -45 -59 -50 -41
-15 -40 24 21 -41 -62 -53 -45
-12 -39 27 32 -32 -59 -50 -44
-9 -32 28 44 -16 -46 -38 -35
-3 -20 25 51 7 -19 -19 -20
6 0 16 53 35 21 13 3
16 24 5 47 69 72 52 31
27 51 -8 26 103 133 98 65
37 80 -19 -5 131 198 149 104
49 115 -30 -28 162 270 205 147
58 151 -37 -34 205 348 265 192
66 187 -41 -41 252 426 323 235
68 222 -46 -66 289 495 372 272
66 254 -57 -119 307 543 403 297
59 278 -76 -194 302 565 418 311
46 287 -94 -259 284 566 414 311
26 277 -93 -286 267 548 392 296
7 246 -76 -285 243 513 353 264
-6 205 -63 -285 204 463 306 224
-13 171 -64 -300 141 391 252 184
-22 143 -69 -314 57 289 185 137
-35 112 -63 -315 -36 161 101 81
-49 79 -41 -299 -121 24 15 24
-60 51 -17 -274 -186 -89 -49 -19
-64 28 0 -245 -212 -140 -77 -41
-63 10 5 -221 -203 -133 -80 -52
-62 -4 2 -203 -185 -114 -77 -55
-59 -13 -7 -187 -172 -109 -77 -58
-54 -19 -16 -166 -158 -104 -74 -57
-48 -23 -21 -144 -140 -92 -67 -53
-43 -23 -24 -124 -127 -85 -62 -49
-36 -21 -26 -106 -115 -78 -58 -47
-30 -19 -26 -86 -101 -70 -53 -43
-24 -19 -25 -68 -88 -64 -48 -39
-19 -19 -23 -55 -77 -61 -45 -36
-17 -18 -18 -39 -66 -55 -39 -32
-16 -17 -13 -27 -56 -49 -36 -28
-15 -16 -8 -17 -47 -45 -32 -26
-14 -15 -3 -10 -39 -40 -29 -24
-14 -13 0 -5 -35 -37 -27 -23
-14 -13 2 2 -31 -33 -25 -21
-13 -13 4 6 -28 -30 -23 -20
-13 -14 4 10 -25 -29 -23 -19
-12 -16 5 14 -23 -29 -23 -19
-11 -18 8 18 -20 -26 -21 -17
-10 -18 9 21 -19 -25 -20 -16
-10 -15 10 22 -17 -24 -19 -15
-9 -15 11 24 -15 -22 -18 -14
-10 -16 12 26 -13 -19 -16 -12
-10 -15 10 26 -13 -19 -16 -13
-9 -13 9 27 -13 -20 -16 -13
-9 -12 10 29 -13 -19 -15 -12
-9 -13 10 30 -12 -18 -14 -11
-8 -14 10 32 -11 -18 -15 -10
-8 -15 12 33 -9 -16 -14 -9
-7 -15 11 32 -9 -16 -14 -9
-7 -15 12 33 -8 -15 -12 -8
-7 -15 13 34 -6 -14 -11 -7
-7 -15 14 35 -5 -12 -10 -5
-7 -14 14 36 -4 -11 -9 -5
-7 -13 14 36 -3 -10 -9 -6
-7 -12 13 36 -4 -11 -10 -7
-7 -12 13 38 -3 -11 -10 -6
-6 -12 14 39 0 -10 -10 -6
-6 -12 15 40 1 -8 -10 -6
-6 -12 16 40 3 -8 -10 -6
-6 -14 17 43 5 -6 -8 -4
-6 -15 17 44 6 -4 -7 -3
-6 -13 17 44 7 -3 -7 -3
-5 -11 16 44 8 -2 -6 -3
-4 -8 16 45 9 0 -5 -3
-4 -7 16 47 11 1 -4 -2
-4 -7 17 49 13 2 -4 -2
-4 -8 17 50 14 3 -4 -2
-4 -9 17 51 16 4 -3 -2
-4 -9 18 51 17 6 -3 0
-4 -10 19 53 19 8 0 1
-3 -9 19 54 20 10 1 2
-3 -9 19 55 23 13 4 3
-3 -8 20 57 24 15 5 4
-3 -6 19 58 25 17 6 4
-3 -5 19 60 26 18 6 4
-3 -5 19 62 28 20 7 4
-3 -6 19 63 30 20 7 4
-2 -4 18 64 31 20 7 3
0 -4 19 65 33 22 8 5
1 -5 19 66 36 25 9 6
1 -4 18 66 37 26 9 6
2 1 18 68 39 28 10 8
2 3 18 69 40 31 11 9
1 2 20 71 43 33 13 10
1 2 19 72 45 34 14 10
1 1 19 74 47 36 15 10
2 1 20 77 50 38 16 11
3 0 20 79 53 40 17 12
4 1 20 79 55 43 17 12
4 1 20 81 57 46 19 13
4 2 21 82 60 49 21 14
4 4 20 84 62 52 23 16
5 7 20 86 64 54 25 17
6 9 20 87 66 55 26 19
6 9 20 90 68 58 28 20
6 9 20 92 71 61 29 21
7 10 19 93 73 63 30 21
8 10 19 95 77 65 32 22
9 11 19 97 80 67 33 23
9 13 19 99 84 70 34 24
10 15 19 102 88 74 37 26
11 17 19 105 91 77 40 28
12 19 19 106 94 80 43 29
12 20 19 109 98 85 46 31
12 22 18 111 100 87 47 31
12 23 18 114 104 90 49 32
13 24 18 117 107 93 50 33
14 25 19 119 112 97 53 36
16 27 17 120 115 100 55 37
16 28 18 123 121 105 59 40
17 29 19 126 125 110 63 44
18 31 19 128 129 115 66 47
20 35 18 128 132 119 69 48
20 39 17 130 135 125 72 51
20 42 17 131 138 128 75 53
21 44 16 133 141 132 77 55
22 45 17 135 146 136 81 58
24 47 15 135 148 139 84 59
25 48 16 137 152 145 88 62
25 51 16 138 156 150 92 65
26 54 15 138 158 154 94 67
27 56 15 138 160 158 97 70
29 58 14 138 162 162 100 72
29 60 14 139 164 167 103 75
29 61 14 139 168 170 106 77
29 62 14 139 170 173 109 79
30 65 12 137 170 174 109 80
31 67 11 136 171 177 111 82
32 70 10 135 172 180 113 85
32 72 10 134 172 183 116 86
33 73 10 133 174 186 119 89
33 72 10 132 174 188 121 91
32 72 9 130 173 190 122 93
32 75 8 128 172 191 123 94
32 78 7 126 171 191 125 94
32 77 7 125 170 192 126 95
32 76 6 121 168 192 126 95
32 76 6 118 165 191 126 95
32 76 6 116 162 190 126 95
32 75 5 113 159 186 126 94
31 74 6 110 156 180 125 93
29 73 7 107 152 174 123 92
29 73 7 103 146 169 119 90
29 71 7 100 141 164 116 89
27 68 7 96 135 157 112 85
26 65 7 94 128 151 108 81
24 62 7 89 120 143 102 76
23 60 8 85 113 135 97 72
22 56 9 80 106 127 92 68
19 50 9 76 99 118 87 65
17 45 8 71 91 110 80 60
16 40 10 67 86 104 76 57
15 36 11 64 79 98 72 55
13 33 11 60 71 89 66 50
12 31 9 55 63 80 60 45
10 26 10 53 57 72 55 42
9 23 9 48 50 63 49 36
8 22 9 44 44 57 44 31
7 18 9 40 37 50 38 28
6 13 10 37 32 44 34 25
5 11 9 33 27 37 29 22
3 9 10 31 23 33 26 20
2 6 9 28 18 27 22 17
0 2 9 25 13 22 18 15
-2 -2 8 24 9 16 13 11
-2 -4 8 23 5 12 10 8
-3 -7 8 21 2 8 7 5
-3 -9 8 19 -3 3 4 3
-3 -11 8 17 -6 0 1 1
-3 -11 7 15 -9 -5 -3 -2
-3 -10 5 13 -12 -8 -5 -4
-3 -11 7 13 -12 -9 -5 -4
-5 -13 7 13 -14 -11 -7 -5
-7 -16 7 14 -15 -11 -8 -5
-6 -15 6 13 -18 -15 -10 -7
-6 -14 5 12 -19 -17 -11 -8
-6 -15 5 11 -19 -18 -13 -10
-6 -17 5 11 -19 -19 -15 -10
-6 -19 5 11 -20 -21 -16 -11
-6 -19 5 11 -21 -22 -16 -12
-7 -20 6 12 -20 -22 -16 -12
-7 -20 6 12 -21 -22 -16 -12
-7 -21 6 12 -21 -22 -17 -12
-7 -22 7 14 -20 -22 -16 -12
-7 -20 6 14 -22 -23 -17 -13
-7 -20 6 14 -23 -24 -18 -13
-7 -22 6 15 -23 -25 -19 -14
-7 -24 7 15 -22 -25 -20 -15
-7 -24 7 15 -22 -25 -20 -15
-8 -23 6 15 -21 -24 -19 -14
-8 -21 5 15 -21 -24 -19 -13
-8 -20 5 15 -22 -25 -19 -14
-7 -20 6 16 -21 -24 -19 -14
-6 -19 6 16 -22 -25 -19 -15
-7 -18 6 16 -22 -26 -19 -15
-7 -17 5 16 -23 -27 -20 -15
-7 -19 6 18 -22 -26 -20 -14
-6 -22 6 17 -22 -26 -21 -14
-6 -23 7 18 -21 -25 -19 -13
-6 -22 6 17 -21 -26 -20 -14
-6 -21 6 18 -21 -25 -19 -13
-6 -20 6 18 -21 -25 -19 -13
-6 -20 6 18 -21 -25 -19 -12
-6 -20 6 18 -22 -25 -19 -12
-6 -19 5 17 -23 -27 -20 -13
-6 -18 4 17 -24 -27 -20 -14
-6 -20 5 18 -22 -25 -20 -13
-6 -20 5 18 -22 -25 -19 -12
-6 -20 6 18 -21 -24 -19 -12
-5 -20 5 17 -22 -25 -20 -12
-4 -19 5 16 -23 -25 -19 -12
-5 -17 4 14 -24 -26 -19 -13
-6 -19 4 14 -24 -25 -18 -13
-5 -21 5 15 -24 -24 -17 -11
-5 -19 4 14 -26 -25 -18 -12
-5 -17 3 13 -28 -27 -20 -13
-5 -18 3 13 -28 -27 -19 -13
-6 -20 3 13 -28 -27 -19 -13
-6 -20 4 13 -28 -27 -18 -12
-6 -19 3 11 -29 -27 -19 -12
-5 -18 4 11 -29 -27 -18 -11
-5 -17 2 9 -30 -28 -19 -13
-5 -17 2 9 -31 -27 -19 -13
-6 -20 4 10 -30 -26 -17 -11
-7 -20 4 9 -31 -27 -17 -11
-6 -18 3 8 -34 -28 -19 -12
-5 -17 2 7 -35 -29 -20 -13
-6 -18 2 7 -35 -30 -20 -13
-6 -18 1 5 -36 -31 -21 -13
-6 -17 1 4 -37 -31 -21 -14
-6 -18 1 4 -37 -31 -21 -14
-6 -19 1 3 -38 -31 -20 -14
-6 -19 1 3 -38 -31 -20 -13
-6 -19 1 2 -39 -32 -21 -14
-6 -19 1 2 -39 -33 -22 -15
-6 -18 0 1 -40 -34 -23 -16
-6 -18 0 1 -41 -35 -23 -16
-6 -21 1 0 -40 -35 -23 -16
-6 -22 0 -2 -41 -36 -24 -16
-6 -21 0 -3 -43 -36 -24 -16
-6 -22 1 -3 -44 -36 -23 -16
-6 -22 0 -4 -45 -35 -23 -16
-7 -21 0 -4 -45 -35 -23 -15
-7 -21 0 -4 -46 -36 -23 -15
-7 -21 0 -5 -47 -37 -24 -16
-8 -22 0 -5 -47 -37 -24 -17
-7 -20 -2 -5 -48 -39 -26 -18
-7 -19 -2 -5 -48 -40 -25 -18
-7 -20 -2 -6 -49 -41 -25 -18
-7 -20 -3 -7 -49 -40 -26 -18
-8 -21 -2 -7 -49 -39 -25 -17
-8 -23 -2 -7 -49 -40 -25 -17
-8 -23 0 -7 -50 -40 -25 -17
-8 -23 0 -7 -50 -40 -26 -17
-8 -22 -2 -7 -51 -40 -27 -17
-8 -22 -2 -7 -51 -41 -28 -18
-9 -22 -3 -8 -52 -41 -28 -19
-8 -23 -3 -8 -52 -41 -29 -20
-8 -24 -2 -8 -52 -40 -28 -19
-7 -24 -4 -9 -53 -43 -29 -20
-7 -22 -4 -9 -53 -43 -29 -20
-7 -21 -5 -10 -54 -44 -29 -21
-8 -21 -4 -9 -53 -43 -29 -20
-8 -22 -4 -10 -54 -43 -29 -20
-7 -21 -5 -11 -55 -44 -30 -21
-7 -21 -5 -11 -55 -45 -31 -21
-7 -21 -5 -11 -57 -46 -31 -22
-8 -22 -4 -10 -56 -46 -31 -21
-8 -24 -4 -10 -55 -46 -30 -20
-9 -23 -4 -11 -56 -47 -30 -21
-9 -22 -6 -13 -58 -49 -32 -22
-9 -22 -5 -12 -57 -47 -31 -20
-8 -23 -4 -11 -57 -47 -30 -19
-8 -24 -3 -9 -56 -46 -29 -19
-7 -24 -5 -11 -57 -47 -30 -21
-8 -23 -5 -11 -58 -47 -31 -22
-8 -23 -6 -12 -58 -48 -32 -22
-8 -23 -6 -12 -58 -48 -32 -22
-8 -24 -6 -11 -57 -47 -31 -22
-8 -24 -6 -12 -57 -48 -32 -22
-9 -23 -6 -13 -57 -48 -32 -21
-9 -22 -6 -14 -58 -48 -32 -22
-9 -22 -6 -13 -58 -47 -31 -21
-9 -23 -5 -12 -57 -47 -30 -21
-9 -26 -5 -11 -56 -46 -30 -20
-9 -27 -6 -11 -57 -46 -30 -21
-9 -26 -5 -11 -57 -46 -30 -21
-8 -24 -6 -12 -57 -48 -31 -22
-8 -24 -6 -13 -57 -48 -32 -22
-8 -26 -6 -14 -58 -49 -32 -23
-8 -25 -6 -15 -58 -49 -32 -23
-8 -23 -7 -15 -59 -50 -33 -23
-8 -23 -7 -15 -58 -49 -32 -22
-8 -23 -7 -15 -59 -50 -33 -23
-9 -24 -7 -15 -59 -49 -33 -22
-9 -24 -7 -15 -59 -50 -33 -23
-8 -24 -7 -15 -59 -50 -33 -23
-8 -23 -8 -16 -59 -51 -34 -24
-8 -22 -8 -17 -60 -51 -34 -23
-8 -23 -8 -18 -60 -51 -34 -23
-9 -25 -7 -17 -59 -50 -32 -22
-9 -25 -7 -17 -59 -50 -32 -22
-8 -24 -6 -17 -59 -50 -31 -22
-7 -23 -7 -18 -61 -51 -33 -23
-7 -23 -8 -18 -61 -52 -33 -24
-8 -25 -7 -17 -60 -51 -33 -24
-9 -26 -6 -17 -60 -50 -33 -23
-9 -25 -7 -18 -60 -51 -34 -24
-9 -23 -7 -18 -60 -51 -33 -24
-8 -25 -7 -18 -59 -51 -33 -23
-8 -25 -7 -18 -59 -51 -33 -24
-9 -23 -6 -18 -59 -51 -33 -23
-9 -23 -6 -18 -59 -51 -32 -22
-9 -25 -6 -18 -59 -50 -32 -22
-8 -24 -7 -19 -59 -50 -33 -23
-8 -21 -8 -20 -60 -52 -35 -24
-8 -23 -8 -20 -61 -52 -35 -24
-8 -26 -7 -20 -60 -52 -35 -24
-8 -24 -7 -20 -60 -52 -35 -24
-8 -22 -8 -21 -60 -53 -35 -25
-8 -23 -8 -20 -59 -52 -35 -25
-8 -25 -7 -19 -58 -52 -34 -26
-9 -25 -6 -20 -59 -52 -34 -27
-8 -25 -6 -20 -59 -52 -35 -27
-7 -25 -6 -20 -59 -52 -35 -26
-8 -25 -6 -19 -59 -53 -35 -27
-9 -26 -6 -18 -58 -52 -34 -26
-8 -26 -7 -20 -59 -53 -35 -27
-8 -24 -7 -20 -59 -53 -35 -27
-8 -24 -6 -21 -59 -53 -35 -27
-8 -25 -6 -21 -58 -53 -35 -27
-7 -25 -6 -21 -58 -53 -35 -26
-7 -22 -7 -22 -59 -53 -35 -27
-8 -22 -7 -22 -59 -53 -36 -27
-8 -23 -8 -22 -59 -54 -36 -27
-8 -23 -8 -23 -60 -54 -37 -28
-8 -23 -8 -23 -60 -55 -38 -28
-8 -24 -6 -22 -59 -54 -36 -27
-8 -24 -6 -22 -58 -53 -36 -27
-8 -24 -6 -21 -58 -53 -35 -27
-8 -24 -5 -20 -57 -53 -35 -26
-8 -24 -3 -19 -56 -52 -34 -25
-7 -22 -2 -18 -54 -52 -33 -25
-5 -19 -2 -17 -54 -52 -34 -25
-5 -17 -2 -16 -53 -52 -34 -25
-6 -14 0 -14 -52 -51 -33 -24
-5 -13 0 -14 -52 -51 -33 -25
-5 -12 1 -13 -51 -50 -32 -24
-5 -10 1 -14 -51 -50 -32 -24
-4 -8 1 -14 -51 -51 -32 -24
-4 -6 1 -15 -51 -51 -32 -24
-4 -5 3 -14 -50 -51 -32 -23
-4 -5 4 -12 -50 -50 -31 -23
-4 -5 5 -10 -49 -49 -30 -22
-4 -5 6 -9 -47 -49 -30 -22
-3 -4 5 -9 -47 -50 -31 -23
-3 -5 4 -9 -48 -50 -32 -23
-2 -8 2 -11 -50 -52 -34 -24
-2 -11 1 -12 -51 -53 -34 -23
-2 -12 1 -11 -49 -51 -31 -22
0 -11 -2 -12 -47 -49 -30 -21
2 -9 -4 -13 -46 -48 -29 -20
2 -6 -5 -14 -46 -47 -28 -19
2 -4 -7 -15 -47 -48 -27 -20
2 -6 -7 -14 -46 -47 -26 -19
2 -8 -8 -16 -48 -48 -28 -20
2 -8 -8 -18 -49 -50 -30 -21
1 -8 -7 -17 -48 -50 -29 -19
1 -9 -6 -16 -48 -50 -28 -18
1 -10 -5 -15 -47 -49 -27 -18
1 -9 -5 -14 -45 -48 -26 -17
2 -8 -6 -16 -45 -48 -26 -18
2 -7 -7 -17 -46 -48 -26 -18
2 -7 -8 -19 -47 -49 -27 -19
1 -9 -9 -20 -48 -50 -27 -19
2 -11 -10 -21 -50 -51 -28 -20
3 -12 -10 -21 -50 -52 -29 -20
2 -12 -9 -20 -49 -51 -28 -19
1 -11 -7 -19 -48 -49 -27 -18
1 -9 -7 -20 -48 -49 -27 -18
0 -9 -8 -21 -49 -51 -28 -19
-2 -12 -7 -20 -49 -51 -28 -19
-3 -15 -6 -21 -50 -53 -29 -21
-3 -18 -7 -22 -52 -55 -30 -22
-3 -19 -9 -24 -54 -58 -33 -24
-4 -20 -9 -24 -55 -59 -34 -26
-6 -21 -8 -24 -56 -60 -35 -27
-7 -22 -7 -24 -57 -60 -36 -28
-7 -23 -8 -25 -58 -61 -38 -29
-8 -24 -7 -24 -57 -61 -38 -29
-8 -24 -7 -25 -57 -61 -38 -30
-9 -23 -6 -25 -57 -61 -38 -30
-9 -23 -6 -25 -57 -62 -38 -30
-10 -24 -6 -25 -57 -62 -39 -31
-10 -24 -6 -24 -57 -62 -40 -31
-10 -24 -6 -22 -56 -61 -39 -31
-9 -24 -5 -22 -55 -61 -39 -31
-9 -24 -5 -21 -56 -61 -39 -31
-9 -23 -6 -22 -56 -62 -40 -31
-10 -23 -6 -22 -56 -62 -40 -31
-9 -24 -6 -23 -55 -62 -40 -31
-8 -24 -6 -23 -55 -61 -39 -31
-9 -21 -6 -23 -55 -62 -39 -32
-9 -21 -6 -22 -55 -63 -39 -32
-9 -23 -5 -21 -54 -62 -39 -31
-9 -24 -6 -22 -54 -62 -40 -32
-9 -25 -6 -22 -55 -63 -40 -32
-8 -25 -6 -22 -55 -64 -40 -32
-8 -24 -5 -22 -55 -64 -40 -32
-9 -23 -5 -22 -54 -64 -40 -31
-9 -21 -6 -23 -55 -64 -41 -32
-10 -22 -5 -21 -53 -63 -40 -32
-10 -25 -3 -18 -51 -62 -39 -31
-10 -27 0 -14 -49 -63 -41 -34
-12 -29 5 -7 -46 -66 -46 -39
-12 -33 11 5 -44 -72 -52 -46
-11 -39 17 16 -39 -76 -57 -50
-9 -41 21 26 -34 -77 -59 -52
-6 -37 23 36 -23 -71 -55 -49
-2 -27 23 45 -6 -54 -41 -38
6 -13 18 50 19 -23 -17 -21
15 8 9 52 51 23 19 6
26 32 -3 49 88 79 62 37
37 60 -14 32 121 143 112 74
48 91 -26 4 147 211 165 114
58 127 -36 -14 179 284 223 159
66 164 -44 -17 220 360 282 204
72 201 -47 -26 262 435 338 245
73 236 -50 -55 295 498 382 279
68 263 -60 -112 306 539 408 302
59 279 -77 -187 295 555 415 310
44 281 -88 -243 278 551 405 305
23 263 -79 -258 260 527 376 280
6 227 -62 -253 236 490 334 244
-4 188 -53 -260 190 434 284 205
-10 158 -54 -280 118 351 226 163
-21 133 -55 -297 27 235 150 113
-35 104 -44 -295 -64 98 61 54
-48 74 -22 -277 -140 -36 -19 3
-56 49 0 -253 -189 -131 -70 -33
-58 27 13 -228 -202 -159 -88 -50
-57 10 14 -205 -187 -142 -86 -58
-55 -2 8 -190 -172 -128 -83 -62
-53 -9 0 -175 -161 -124 -82 -63
-49 -15 -10 -155 -148 -116 -77 -61
-40 -20 -16 -136 -132 -107 -72 -58
-35 -23 -19 -116 -118 -101 -68 -54
-30 -21 -24 -100 -108 -98 -67 -53
-25 -20 -25 -81 -94 -91 -62 -51
-19 -19 -25 -66 -81 -85 -58 -48
-16 -18 -23 -53 -71 -80 -55 -46
-13 -17 -21 -39 -60 -74 -51 -43
-10 -15 -16 -28 -50 -68 -47 -39
-9 -13 -11 -18 -40 -63 -43 -35
-9 -12 -6 -12 -32 -58 -38 -31
-10 -10 -3 -6 -27 -54 -35 -29
-9 -9 -2 -2 -24 -53 -34 -28
-9 -10 0 3 -21 -51 -33 -28
-9 -13 2 8 -18 -49 -31 -26
-8 -13 4 12 -14 -48 -29 -25
-7 -11 5 14 -12 -47 -28 -25
-6 -14 6 17 -9 -45 -26 -24
-6 -17 7 20 -7 -43 -25 -22
-5 -16 7 21 -5 -41 -24 -21
-5 -14 6 21 -4 -39 -23 -20
-5 -13 7 22 -4 -38 -21 -20
-6 -13 7 23 -3 -38 -21 -20
-5 -12 8 25 0 -37 -20 -20
-5 -11 7 26 0 -38 -21 -21
-4 -12 7 27 0 -38 -21 -22
-4 -14 8 29 2 -37 -20 -22
-4 -15 9 29 3 -35 -19 -20
-3 -15 9 29 5 -33 -18 -18
-3 -13 9 29 6 -32 -17 -18
-3 -12 9 30 7 -29 -17 -18
-3 -10 9 30 7 -29 -17 -18
-2 -8 8 30 7 -30 -18 -19
-3 -9 9 32 8 -29 -17 -18
-3 -12 10 34 10 -28 -16 -18
-3 -13 10 35 11 -28 -16 -19
-2 -12 10 35 12 -28 -16 -19
-2 -11 9 34 13 -28 -16 -19
-2 -9 10 37 15 -26 -15 -19
0 -9 9 38 16 -25 -15 -19
0 -8 10 40 18 -22 -13 -17
0 -8 11 43 20 -19 -12 -16
0 -8 12 45 22 -18 -11 -15
0 -8 11 47 22 -18 -11 -15
0 -9 9 48 22 -18 -11 -15
-2 -10 11 50 24 -18 -10 -14
0 -12 12 51 26 -18 -9 -14
0 -11 12 53 28 -15 -8 -13
1 -8 12 53 30 -13 -7 -13
2 -6 12 53 31 -12 -7 -13
3 -5 11 53 31 -11 -6 -13
2 -5 11 54 32 -9 -5 -12
0 -5 13 57 36 -6 -3 -10
1 -5 14 59 38 -5 0 -8
2 -5 12 60 38 -5 0 -8
2 -6 12 62 40 -3 2 -7
2 -7 12 63 43 -2 2 -8
3 -8 13 63 45 1 3 -8
3 -6 13 64 47 2 3 -8
4 -4 12 64 48 3 4 -7
4 0 12 65 50 6 6 -5
5 2 11 66 51 9 7 -4
5 3 11 68 52 10 8 -3
4 3 11 69 53 11 8 -3
4 2 13 71 56 14 10 -2
6 1 13 72 58 14 10 -2
7 0 13 73 61 16 11 -2
7 1 13 74 63 18 12 -2
7 2 14 76 66 21 14 1
8 3 13 76 67 23 15 1
8 4 13 78 70 26 17 3
8 6 12 78 72 28 19 4
9 8 11 80 74 30 21 5
9 10 10 82 75 32 22 6
9 10 11 85 78 35 24 8
11 11 10 85 80 37 25 8
12 11 11 87 84 40 26 10
12 11 12 88 88 44 28 12
13 12 12 89 91 47 30 13
14 13 12 91 96 51 34 15
14 16 11 92 98 53 36 16
13 19 10 92 100 56 38 18
13 20 10 95 102 59 40 20
14 21 9 97 105 61 42 21
14 22 10 100 109 65 44 22
16 23 10 102 111 68 45 23
17 25 9 103 114 71 47 25
18 26 9 104 117 74 49 26
17 27 9 105 121 79 52 28
18 28 9 106 126 85 56 31
20 30 9 107 131 90 60 34
20 32 9 108 134 95 64 37
21 35 9 110 137 99 67 39
22 37 8 112 140 103 70 42
23 42 6 112 142 106 72 43
23 45 6 113 144 110 74 44
24 47 6 115 147 114 77 46
26 48 6 115 150 118 80 48
28 49 6 115 152 122 84 51
29 51 5 115 154 127 88 54
28 53 5 115 157 131 91 57
28 55 4 114 158 135 92 59
29 59 4 115 159 138 95 61
30 61 4 115 160 141 97 62
30 62 2 113 160 143 98 63
31 62 2 113 161 145 101 66
32 62 2 113 162 149 105 68
32 62 2 112 164 153 108 70
32 65 2 111 165 156 111 72
32 68 2 110 167 158 113 75
33 70 0 108 164 160 114 75
33 71 -3 105 162 161 115 75
33 71 -4 104 161 161 116 76
33 70 -3 104 161 162 118 78
33 69 -3 102 159 162 118 77
32 70 -3 100 156 161 117 76
32 71 -3 98 154 161 116 77
33 71 -5 94 151 159 115 76
32 70 -4 91 147 157 114 76
30 67 -3 89 144 155 114 76
30 67 -3 85 139 151 111 74
29 66 -3 80 133 146 108 72
28 64 -3 78 127 141 105 70
26 60 -2 76 121 135 102 68
25 56 0 74 115 129 98 65
24 52 1 71 109 121 94 61
23 51 0 67 102 112 87 55
22 49 1 63 94 104 80 51
21 45 3 59 87 97 75 47
18 40 4 55 80 90 70 44
16 37 5 51 74 82 66 39
15 33 5 48 67 75 61 36
14 30 4 44 60 67 55 31
13 27 4 40 53 58 49 27
12 24 4 38 48 51 44 23
11 20 4 34 42 43 37 19
10 16 4 32 36 36 33 16
7 12 5 29 31 30 29 13
6 9 6 26 26 24 25 10
5 6 6 23 21 18 21 7
4 4 7 20 17 13 16 3
3 5 6 17 12 7 11 -2
2 4 6 16 8 2 7 -4
1 0 6 15 5 -3 5 -6
0 -6 6 14 2 -7 2 -8
-3 -7 6 12 -3 -13 -3 -11
-3 -9 6 10 -5 -16 -4 -13
-3 -11 7 9 -7 -19 -5 -14
-3 -12 6 7 -10 -22 -8 -16
-4 -11 5 5 -12 -25 -10 -17
-4 -10 4 4 -15 -27 -13 -19
-4 -11 4 3 -17 -30 -16 -20
-4 -13 4 3 -17 -31 -17 -21
-5 -15 4 3 -18 -33 -18 -22
-5 -17 3 3 -20 -35 -21 -24
-5 -17 2 2 -22 -38 -23 -27
-6 -17 4 3 -20 -37 -23 -26
-7 -18 5 2 -20 -38 -23 -26
-7 -18 5 1 -20 -38 -24 -25
-6 -18 6 2 -19 -37 -22 -24
-6 -19 6 2 -18 -36 -20 -24
-6 -21 6 3 -18 -35 -20 -23
-6 -22 6 2 -19 -36 -21 -24
-5 -22 5 2 -20 -37 -21 -24
-5 -21 5 3 -21 -38 -22 -25
-5 -21 5 3 -22 -39 -23 -26
-5 -22 4 3 -21 -40 -24 -27
-5 -22 4 3 -21 -40 -25 -27
-5 -21 3 3 -20 -39 -25 -28
-5 -20 3 2 -20 -39 -24 -28
-5 -19 4 1 -19 -39 -23 -27
-5 -19 4 1 -20 -38 -22 -26
-5 -18 4 3 -20 -38 -22 -25
-4 -18 3 3 -21 -38 -23 -26
-5 -20 4 5 -20 -38 -23 -25
-5 -21 5 6 -19 -38 -23 -25
-5 -21 5 6 -19 -38 -23 -25
-5 -21 5 6 -18 -37 -22 -25
-4 -20 4 5 -18 -37 -22 -26
-4 -20 4 6 -18 -36 -20 -24
-4 -20 4 5 -18 -35 -19 -22
-5 -20 4 5 -19 -35 -19 -22
-4 -19 4 5 -18 -35 -19 -22
-4 -19 3 4 -18 -35 -20 -22
-4 -19 3 4 -19 -35 -21 -23
-4 -19 3 4 -20 -36 -22 -25
-4 -20 3 3 -20 -37 -23 -26
-4 -21 3 2 -21 -37 -23 -25
-4 -19 3 2 -20 -36 -22 -24
-4 -16 2 1 -21 -36 -22 -24
-4 -16 2 0 -21 -36 -21 -23
-4 -16 2 0 -22 -36 -21 -23
-5 -16 2 0 -22 -37 -22 -23
-5 -16 2 0 -23 -38 -22 -23
-4 -17 1 -2 -24 -38 -22 -24
-4 -19 2 0 -25 -38 -22 -24
-5 -19 2 -2 -24 -38 -21 -23
-5 -18 3 -3 -23 -37 -21 -23
-4 -17 3 -5 -25 -38 -21 -23
-4 -16 3 -6 -25 -37 -21 -22
-4 -18 1 -8 -27 -38 -21 -22
-5 -21 1 -7 -26 -37 -20 -20
-5 -20 1 -7 -27 -39 -22 -22
-4 -18 0 -8 -29 -40 -22 -22
-4 -18 -2 -8 -30 -40 -22 -23
-4 -20 -2 -8 -32 -43 -23 -23
-5 -19 -2 -10 -33 -43 -24 -24
-5 -18 -2 -10 -33 -43 -24 -23
-6 -19 -2 -11 -34 -44 -24 -24
-7 -20 0 -12 -34 -44 -24 -23
-6 -20 1 -12 -34 -43 -23 -22
-5 -21 1 -12 -34 -41 -23 -21
-4 -22 0 -13 -35 -44 -23 -23
-4 -21 -4 -16 -38 -47 -26 -25
-5 -20 -5 -16 -38 -47 -27 -26
-5 -20 -5 -15 -38 -48 -28 -27
-5 -23 -3 -15 -38 -47 -27 -25
-5 -25 -2 -15 -37 -46 -27 -24
-5 -23 -2 -17 -39 -46 -28 -25
-5 -22 -2 -17 -40 -46 -28 -25
-6 -22 0 -18 -40 -46 -28 -26
-6 -23 1 -17 -40 -47 -28 -25
-6 -24 0 -17 -41 -48 -29 -26
-6 -24 -2 -17 -43 -48 -29 -26
-6 -24 -2 -17 -44 -48 -30 -26
-7 -25 -2 -17 -43 -48 -29 -25
-6 -25 -3 -19 -44 -50 -30 -26
-6 -25 -3 -19 -44 -49 -30 -26
-6 -24 -4 -20 -44 -49 -30 -27
-6 -24 -4 -21 -45 -49 -31 -27
-7 -24 -3 -22 -45 -49 -30 -27
-6 -24 -3 -21 -45 -49 -30 -26
-5 -23 -3 -20 -47 -50 -31 -27
-5 -22 -4 -20 -47 -50 -31 -26
-5 -25 -4 -20 -47 -50 -30 -25
-6 -27 -4 -19 -48 -50 -31 -25
-6 -27 -4 -20 -48 -51 -32 -26
-6 -27 -3 -20 -47 -51 -32 -26
-5 -26 -4 -22 -49 -52 -33 -27
-6 -26 -4 -22 -48 -51 -32 -26
-6 -26 -4 -23 -48 -51 -32 -26
-6 -26 -3 -23 -48 -50 -32 -26
-6 -25 -4 -24 -49 -52 -34 -28
-6 -24 -6 -25 -50 -53 -35 -28
-6 -25 -5 -24 -50 -53 -35 -28
-5 -25 -4 -22 -50 -52 -34 -28
-4 -25 -4 -22 -50 -52 -34 -28
-5 -26 -6 -23 -51 -54 -35 -28
-6 -28 -6 -24 -51 -54 -35 -27
-5 -29 -5 -23 -51 -53 -33 -27
-5 -27 -4 -23 -50 -52 -32 -26
-6 -24 -5 -24 -51 -53 -33 -26
-5 -25 -5 -24 -51 -53 -33 -26
-4 -27 -6 -24 -52 -53 -33 -26
-5 -28 -5 -23 -52 -53 -33 -26
-7 -29 -4 -23 -53 -54 -34 -26
-7 -29 -4 -24 -53 -54 -34 -26
-7 -28 -4 -24 -53 -53 -34 -26
-6 -27 -6 -24 -53 -54 -35 -27
-5 -26 -7 -25 -53 -54 -35 -27
-6 -25 -7 -25 -54 -54 -35 -27
-7 -25 -5 -25 -54 -54 -35 -27
-8 -26 -5 -26 -53 -55 -35 -27
-6 -26 -5 -25 -53 -54 -34 -26
-6 -26 -6 -24 -53 -54 -35 -26
-6 -27 -6 -25 -55 -56 -36 -28
-7 -27 -7 -26 -54 -56 -36 -29
-6 -26 -5 -24 -53 -54 -35 -27
-5 -25 -5 -24 -54 -55 -35 -28
-5 -25 -6 -26 -55 -56 -35 -28
-6 -25 -6 -28 -55 -56 -35 -28
-6 -27 -5 -26 -54 -54 -34 -26
-5 -29 -5 -26 -55 -54 -34 -27
-5 -27 -5 -26 -55 -54 -34 -27
-5 -26 -7 -27 -56 -56 -36 -27
-5 -27 -7 -26 -55 -55 -35 -26
-5 -28 -7 -26 -55 -56 -36 -27
-6 -27 -7 -27 -55 -56 -36 -27
-6 -27 -7 -28 -56 -55 -36 -27
-6 -28 -7 -28 -56 -54 -35 -26
-6 -27 -6 -28 -56 -54 -35 -26
-6 -25 -8 -29 -57 -55 -36 -27
-6 -25 -8 -28 -57 -55 -36 -27
-5 -25 -8 -27 -57 -55 -35 -27
-5 -26 -8 -27 -57 -56 -36 -28
-6 -27 -7 -27 -56 -55 -36 -28
-6 -27 -7 -28 -57 -56 -36 -28
-5 -28 -7 -28 -57 -56 -36 -28
-4 -28 -7 -28 -57 -57 -36 -27
-5 -28 -7 -29 -58 -58 -37 -27
-6 -28 -7 -29 -59 -57 -36 -27
-5 -27 -7 -28 -57 -55 -34 -26
-4 -25 -7 -29 -58 -55 -35 -26
-4 -26 -8 -29 -58 -55 -35 -26
-5 -27 -7 -28 -57 -55 -35 -26
-6 -28 -8 -28 -57 -56 -36 -27
-5 -28 -7 -28 -57 -55 -37 -27
-4 -27 -8 -28 -58 -56 -37 -27
-5 -28 -8 -28 -57 -55 -36 -26
-6 -28 -8 -29 -58 -56 -37 -27
-6 -27 -7 -29 -58 -55 -36 -26
-5 -26 -8 -29 -58 -56 -36 -26
-5 -25 -7 -29 -58 -56 -35 -27
-5 -24 -7 -29 -58 -57 -35 -28
-5 -23 -6 -28 -59 -56 -35 -28
-4 -22 -5 -25 -56 -54 -34 -26
-3 -20 -6 -24 -54 -53 -33 -25
-3 -19 -6 -23 -53 -52 -32 -24
-4 -18 -4 -23 -52 -50 -32 -22
-3 -16 -4 -24 -51 -50 -32 -22
-3 -15 -4 -24 -50 -49 -31 -21
-3 -15 -3 -23 -49 -48 -30 -20
-4 -14 -2 -21 -49 -48 -30 -20
-4 -13 0 -20 -49 -48 -30 -20
-3 -11 0 -20 -49 -49 -30 -21
-3 -10 1 -19 -49 -49 -30 -21
-2 -9 2 -18 -48 -49 -29 -21
0 -9 2 -18 -49 -49 -30 -22
1 -9 2 -18 -48 -48 -30 -21
1 -11 1 -18 -48 -47 -29 -20
1 -13 -2 -21 -49 -48 -29 -20
0 -13 -4 -21 -49 -47 -28 -19
1 -12 -7 -22 -49 -48 -28 -20
3 -9 -9 -23 -49 -47 -27 -19
6 -7 -10 -23 -48 -45 -25 -17
6 -9 -10 -24 -48 -45 -24 -16
5 -11 -12 -25 -48 -45 -24 -15
5 -10 -12 -26 -49 -44 -24 -14
4 -9 -13 -27 -50 -44 -24 -14
4 -9 -13 -28 -51 -45 -25 -14
4 -10 -11 -28 -50 -45 -25 -15
4 -11 -8 -24 -47 -41 -23 -13
4 -12 -8 -21 -45 -39 -22 -13
4 -12 -9 -23 -46 -40 -22 -13
4 -12 -11 -26 -49 -43 -23 -15
5 -10 -12 -28 -51 -44 -24 -16
6 -7 -13 -30 -53 -46 -25 -17
5 -9 -13 -30 -52 -46 -25 -16
3 -12 -13 -30 -52 -46 -25 -16
3 -14 -12 -29 -52 -44 -23 -13
3 -13 -11 -28 -51 -43 -21 -12
3 -12 -12 -29 -51 -44 -21 -13
3 -15 -11 -28 -51 -44 -21 -13
2 -18 -10 -29 -52 -44 -21 -13
1 -20 -10 -30 -54 -46 -23 -15
0 -22 -10 -31 -55 -48 -26 -17
-2 -23 -11 -32 -56 -50 -29 -20
-2 -25 -11 -32 -57 -51 -30 -20
-3 -25 -12 -33 -58 -53 -32 -22
-4 -25 -11 -32 -58 -54 -33 -23
-4 -25 -11 -33 -59 -55 -34 -25
-5 -26 -11 -33 -59 -57 -35 -24
-6 -28 -12 -33 -59 -57 -36 -25
-7 -29 -11 -33 -60 -57 -36 -26
-6 -28 -10 -33 -61 -57 -36 -26
-6 -28 -9 -31 -60 -57 -36 -26
-6 -31 -9 -31 -60 -57 -35 -25
-6 -31 -10 -31 -60 -56 -36 -24
-5 -29 -11 -32 -60 -56 -35 -25
-5 -27 -11 -32 -59 -55 -34 -24
-5 -27 -10 -31 -58 -55 -34 -24
-4 -27 -11 -32 -59 -55 -35 -25
-4 -27 -10 -32 -59 -55 -35 -25
-4 -27 -11 -32 -61 -57 -36 -25
-5 -28 -10 -32 -61 -57 -35 -24
-5 -29 -10 -31 -60 -57 -36 -25
-6 -30 -8 -30 -59 -55 -35 -25
-6 -31 -7 -29 -59 -55 -36 -25
-5 -32 -7 -29 -58 -54 -36 -25
-5 -30 -7 -29 -57 -53 -36 -25
-5 -31 -7 -30 -57 -54 -36 -25
-6 -32 -8 -30 -58 -56 -37 -25
-6 -31 -8 -30 -58 -55 -37 -26
-5 -29 -8 -30 -57 -55 -38 -27
-6 -30 -7 -27 -56 -54 -36 -27
-7 -32 -6 -26 -55 -55 -38 -29
-8 -36 -3 -19 -51 -55 -39 -32
-9 -41 4 -10 -47 -57 -45 -36
-8 -47 10 1 -44 -62 -51 -43
-6 -49 15 12 -37 -63 -53 -45
-3 -44 19 23 -25 -57 -49 -43
2 -34 19 32 -10 -44 -39 -35
7 -22 14 35 10 -18 -20 -20
14 -5 6 35 36 23 12 5
23 18 -5 31 69 78 55 36
34 46 -16 12 96 138 100 70
43 76 -26 -17 114 201 151 109
50 110 -37 -38 136 271 206 149
57 146 -46 -44 169 345 265 193
63 184 -51 -52 204 418 319 233
65 220 -55 -81 230 480 363 266
62 250 -65 -135 234 521 390 287
54 269 -80 -202 217 534 396 297
39 276 -90 -259 190 524 384 293
21 264 -86 -278 169 498 354 271
4 232 -69 -271 151 467 315 238
-6 192 -55 -267 123 427 274 203
-10 160 -53 -279 69 361 225 167
-17 138 -57 -293 -4 265 161 123
-27 113 -52 -295 -82 139 79 70
-38 86 -35 -285 -156 2 -5 14
-49 60 -14 -267 -211 -111 -66 -28
-54 39 4 -241 -228 -160 -94 -49
-53 20 12 -216 -213 -150 -93 -55
-50 5 9 -198 -194 -132 -90 -60
-47 -4 2 -183 -181 -126 -90 -62
-41 -10 -6 -164 -166 -117 -86 -61
-37 -19 -10 -140 -146 -103 -77 -56
-32 -25 -15 -120 -131 -96 -71 -52
-27 -24 -20 -105 -119 -92 -68 -49
-21 -22 -23 -88 -106 -85 -63 -46
-16 -22 -25 -72 -94 -78 -59 -43
-11 -22 -25 -59 -81 -73 -54 -39
-9 -21 -23 -47 -69 -67 -49 -35
-7 -19 -19 -34 -58 -60 -44 -32
-6 -17 -14 -24 -48 -53 -39 -29
-5 -15 -9 -18 -39 -49 -36 -26
-5 -13 -6 -13 -35 -46 -34 -24
-5 -12 -4 -9 -30 -44 -32 -22
-6 -15 0 -5 -25 -39 -29 -19
-5 -15 1 0 -22 -37 -27 -18
-4 -15 2 3 -20 -37 -27 -19
-3 -16 2 6 -17 -35 -27 -19
-3 -18 4 10 -13 -33 -25 -18
-2 -17 4 11 -11 -33 -26 -19
0 -17 5 13 -9 -32 -25 -18
0 -19 7 16 -5 -29 -23 -17
-2 -19 7 17 -4 -28 -22 -17
-2 -17 6 17 -4 -28 -21 -19
-2 -16 7 19 -3 -26 -20 -21
-2 -16 8 20 0 -25 -19 -22
-2 -17 8 21 1 -25 -20 -23
0 -18 7 21 2 -25 -19 -24
0 -19 8 23 4 -23 -18 -25
1 -17 9 22 4 -24 -19 -27
2 -16 9 22 5 -23 -18 -26
1 -17 10 23 8 -21 -16 -24
0 -18 9 23 8 -20 -16 -23
1 -16 9 25 8 -19 -15 -23
1 -13 8 26 8 -18 -14 -24
1 -13 8 26 9 -19 -15 -25
1 -14 8 26 10 -19 -16 -26
2 -13 8 27 11 -19 -15 -26
2 -9 9 27 14 -18 -15 -27
3 -12 9 28 16 -17 -16 -27
3 -15 10 29 19 -16 -14 -26
2 -15 13 32 21 -12 -11 -23
2 -13 13 32 21 -10 -10 -23
2 -12 14 34 22 -8 -9 -22
2 -10 13 35 23 -8 -8 -21
1 -9 12 36 24 -8 -8 -21
1 -11 11 37 26 -7 -8 -21
2 -13 12 38 28 -6 -7 -20
3 -14 13 39 31 -4 -6 -20
3 -14 13 39 33 -3 -5 -21
3 -15 13 39 34 0 -5 -20
3 -12 13 40 35 2 -4 -19
4 -8 13 40 36 3 -3 -19
3 -8 14 42 38 4 -3 -18
2 -9 15 44 40 5 0 -17
3 -8 14 44 40 6 0 -17
4 -7 12 45 43 6 -2 -18
4 -10 13 47 45 7 0 -17
4 -11 14 48 47 8 1 -17
5 -10 14 48 49 10 2 -17
5 -8 14 48 51 12 3 -15
5 -6 14 50 53 15 5 -13
5 -5 13 50 54 17 6 -13
5 -5 13 51 56 19 8 -11
6 -3 13 52 57 20 9 -11
7 -2 13 53 59 22 10 -10
8 0 13 54 60 23 10 -11
8 1 14 55 62 24 10 -11
9 1 13 56 64 24 10 -11
9 0 14 58 68 27 13 -10
9 0 14 59 71 29 14 -9
9 3 14 60 73 32 15 -9
9 5 14 61 74 35 17 -7
10 7 13 62 76 37 18 -5
10 8 14 65 79 40 20 -3
11 9 13 66 81 42 21 -3
11 8 13 68 85 45 22 -2
12 7 13 70 88 47 24 0
12 7 14 72 91 50 25 2
13 7 15 74 95 53 28 4
13 9 15 74 97 55 30 5
13 11 15 75 100 59 33 7
13 12 14 78 102 62 34 8
14 15 14 80 104 65 36 9
14 17 14 82 108 68 39 11
15 18 14 86 112 72 42 13
16 19 13 88 115 76 44 15
18 19 13 89 118 78 46 15
18 19 14 91 121 82 48 17
18 20 15 93 126 86 51 19
19 25 14 94 130 89 53 19
21 29 13 95 133 94 55 21
22 30 14 97 137 99 59 24
22 31 14 100 141 104 62 28
22 33 13 102 143 108 65 30
23 35 12 103 145 111 67 31
23 38 11 104 146 114 69 32
24 39 12 106 150 118 72 35
25 39 12 106 153 121 74 37
26 42 12 107 156 126 77 39
27 44 13 108 159 130 80 42
28 46 12 108 160 133 82 44
28 49 10 107 161 136 85 45
28 50 11 108 163 141 89 49
28 51 11 109 165 146 93 52
28 53 11 109 165 147 94 53
28 55 10 108 165 148 95 53
29 55 10 108 168 151 97 55
30 55 10 107 169 153 99 57
30 56 9 106 169 155 101 59
30 59 8 104 168 156 103 60
31 61 7 102 168 159 104 62
31 60 9 102 168 162 107 64
31 59 9 100 165 162 108 66
31 60 8 98 163 162 109 66
30 62 6 95 159 161 108 65
30 62 6 92 156 159 107 64
30 61 6 91 154 158 107 63
29 60 6 87 151 155 105 62
29 58 7 85 148 153 104 62
29 57 7 81 144 150 103 61
28 57 8 79 140 147 102 61
26 57 7 74 134 142 98 58
26 54 7 71 128 137 95 56
25 52 8 68 121 131 91 54
24 50 8 64 114 125 86 51
23 48 7 60 106 115 80 47
21 46 8 56 100 107 75 43
19 43 9 52 93 99 69 38
18 39 10 49 87 93 64 34
17 36 10 44 79 84 59 30
15 32 11 40 73 76 54 27
13 27 12 36 66 69 50 24
12 24 13 34 61 62 46 22
12 23 13 31 54 55 39 17
10 19 14 28 48 48 34 13
9 13 13 25 43 39 28 9
8 10 14 22 37 33 25 6
6 9 15 19 32 27 20 3
5 7 14 16 27 20 15 -2
3 3 14 13 22 14 11 -5
2 1 13 10 17 9 8 -7
2 0 13 6 12 3 3 -10
1 -4 13 4 8 -3 -2 -11
0 -6 13 2 5 -7 -5 -13
-2 -7 13 2 3 -11 -7 -15
-3 -10 13 2 0 -15 -10 -18
-4 -13 14 2 -3 -18 -12 -19
-4 -15 13 0 -6 -22 -15 -23
-4 -17 13 -2 -8 -24 -16 -23
-4 -18 13 -3 -10 -26 -18 -24
-5 -17 12 -5 -12 -28 -20 -26
-7 -17 13 -5 -13 -29 -20 -26
-7 -16 14 -6 -14 -31 -21 -26
-6 -16 12 -7 -16 -33 -24 -28
-6 -19 13 -7 -16 -33 -24 -28
-6 -22 13 -6 -16 -34 -24 -28
-6 -23 14 -6 -16 -35 -24 -28
-7 -24 13 -7 -17 -37 -27 -29
-7 -24 13 -8 -18 -38 -29 -30
-8 -22 12 -7 -17 -38 -28 -30
-7 -21 12 -6 -17 -38 -29 -31
-7 -21 13 -6 -17 -38 -29 -31
-8 -22 13 -6 -18 -38 -28 -30
-8 -21 12 -6 -18 -38 -28 -30
-8 -21 11 -6 -18 -38 -29 -30
-8 -22 11 -6 -17 -39 -29 -31
-9 -22 11 -6 -17 -39 -30 -31
-8 -22 11 -6 -16 -39 -30 -31
-7 -21 10 -6 -17 -39 -31 -32
-7 -22 11 -5 -15 -38 -29 -30
-8 -22 11 -5 -15 -37 -29 -30
-8 -20 10 -5 -15 -37 -29 -30
-8 -19 11 -4 -15 -36 -28 -30
-8 -19 11 -3 -14 -35 -27 -29
-7 -20 11 -3 -14 -35 -27 -29
-7 -22 12 -2 -14 -35 -27 -29
-9 -23 12 -2 -13 -35 -27 -29
-8 -22 11 -4 -14 -36 -29 -30
-7 -19 11 -4 -14 -37 -28 -29
-6 -18 11 -4 -13 -36 -27 -29
-7 -19 12 -3 -12 -35 -26 -28
-8 -21 12 -3 -12 -35 -26 -27
-7 -21 11 -4 -14 -36 -26 -27
-7 -18 11 -4 -14 -34 -25 -27
-7 -17 11 -3 -13 -35 -25 -27
-7 -19 11 -3 -14 -36 -25 -27
-8 -21 11 -3 -14 -36 -25 -27
-8 -20 10 -4 -14 -36 -26 -28
-8 -19 10 -4 -14 -35 -25 -27
-7 -19 10 -4 -14 -34 -24 -26
-8 -21 11 -4 -14 -33 -22 -25
-8 -21 11 -4 -14 -33 -21 -24
-8 -18 10 -5 -15 -34 -22 -24
-7 -16 9 -6 -16 -35 -23 -25
-7 -18 9 -7 -17 -36 -23 -25
-7 -20 9 -6 -17 -36 -23 -25
-7 -19 9 -8 -18 -37 -23 -25
-7 -18 8 -10 -20 -38 -24 -26
-7 -18 8 -9 -20 -38 -24 -26
-6 -18 9 -9 -20 -38 -24 -25
-6 -18 9 -10 -20 -38 -24 -25
-6 -18 8 -11 -21 -39 -24 -25
-6 -19 8 -11 -22 -39 -24 -25
-7 -19 8 -10 -21 -39 -23 -25
-8 -19 8 -11 -23 -39 -24 -26
-8 -19 7 -13 -25 -40 -25 -27
-8 -18 7 -14 -26 -41 -25 -27
-9 -18 7 -14 -26 -40 -25 -27
-8 -18 7 -14 -26 -40 -25 -26
-7 -19 7 -14 -26 -41 -25 -25
-8 -20 7 -15 -27 -43 -25 -25
-9 -19 7 -16 -27 -43 -25 -26
-9 -18 7 -16 -28 -44 -25 -26
-9 -19 7 -17 -29 -45 -26 -27
-9 -21 8 -16 -30 -45 -26 -27
-8 -21 7 -16 -31 -46 -27 -27
-7 -21 6 -18 -33 -47 -28 -27
-8 -20 6 -18 -33 -47 -29 -28
-8 -19 6 -19 -34 -48 -29 -29
-8 -19 5 -20 -35 -50 -30 -29
-8 -21 6 -20 -34 -48 -29 -28
-8 -23 6 -21 -34 -48 -29 -28
-9 -23 7 -20 -34 -47 -27 -27
-9 -20 5 -21 -36 -49 -29 -28
-8 -19 4 -22 -37 -50 -30 -29
-8 -21 5 -21 -36 -49 -29 -28
-8 -21 6 -22 -37 -49 -29 -28
-8 -20 5 -23 -38 -51 -31 -29
-8 -21 6 -22 -38 -51 -31 -28
-8 -23 5 -22 -38 -50 -31 -28
-8 -24 6 -22 -38 -49 -30 -28
-8 -25 6 -23 -38 -50 -30 -29
-8 -22 5 -23 -39 -51 -31 -29
-7 -20 4 -24 -40 -52 -32 -29
-8 -21 5 -23 -40 -51 -31 -29
-8 -21 4 -24 -40 -52 -31 -29
-8 -20 2 -25 -43 -53 -32 -30
-8 -21 3 -25 -43 -53 -32 -29
-8 -24 3 -24 -41 -53 -32 -28
-9 -24 3 -25 -43 -54 -32 -29
-9 -23 4 -25 -43 -53 -32 -28
-8 -23 4 -25 -43 -53 -32 -28
-7 -23 4 -25 -43 -53 -31 -28
-8 -24 5 -23 -43 -52 -31 -28
-8 -25 4 -23 -44 -52 -31 -27
-8 -26 4 -23 -44 -53 -32 -27
-7 -26 3 -23 -44 -53 -32 -28
-7 -25 3 -24 -44 -53 -33 -28
-8 -25 2 -24 -44 -53 -33 -28
-8 -25 1 -24 -43 -53 -32 -27
-8 -25 0 -24 -43 -54 -32 -27
-9 -25 -2 -25 -44 -54 -32 -28
-9 -26 0 -24 -44 -54 -31 -27
-9 -27 -2 -24 -44 -54 -32 -27
-10 -26 -2 -24 -45 -54 -33 -28
-10 -25 -3 -24 -45 -55 -34 -29
-10 -25 -3 -24 -45 -55 -34 -29
-9 -25 -3 -25 -46 -56 -36 -30
-9 -23 -4 -25 -46 -56 -36 -30
-9 -23 -4 -25 -46 -56 -36 -30
-10 -23 -4 -25 -46 -56 -35 -30
-10 -24 -3 -25 -46 -56 -34 -30
-10 -24 -3 -25 -46 -55 -34 -29
-10 -24 -4 -25 -46 -55 -34 -28
-10 -25 -4 -24 -46 -54 -33 -28
-9 -25 -4 -25 -47 -54 -34 -30
-9 -25 -4 -25 -47 -54 -34 -29
-10 -25 -3 -25 -46 -54 -34 -28
-10 -26 -4 -26 -47 -54 -35 -29
-10 -24 -5 -27 -48 -55 -35 -30
-9 -22 -6 -27 -48 -55 -36 -30
-9 -22 -5 -27 -48 -55 -35 -30
-10 -23 -4 -25 -47 -54 -34 -28
-10 -22 -4 -25 -47 -54 -34 -28
-10 -21 -5 -27 -49 -55 -35 -29
-10 -22 -5 -26 -48 -55 -35 -29
-10 -24 -6 -27 -49 -56 -35 -29
-9 -23 -6 -27 -49 -56 -35 -28
-9 -21 -7 -28 -50 -56 -36 -29
-9 -23 -6 -27 -49 -55 -35 -29
-10 -26 -5 -26 -48 -54 -33 -28
-10 -26 -5 -25 -48 -54 -33 -27
-9 -27 -5 -23 -48 -53 -33 -26
-9 -25 -5 -23 -49 -54 -33 -27
-9 -24 -6 -23 -49 -55 -34 -27
-9 -25 -7 -25 -50 -55 -35 -28
-10 -25 -6 -24 -49 -55 -34 -27
-10 -24 -6 -23 -49 -55 -35 -28
-10 -24 -6 -24 -49 -55 -35 -28
-10 -25 -5 -24 -49 -55 -34 -27
-10 -25 -5 -24 -49 -54 -33 -27
-10 -26 -5 -23 -49 -54 -33 -26
-11 -26 -6 -23 -49 -54 -34 -26
-10 -24 -7 -24 -50 -56 -36 -27
-10 -23 -6 -23 -50 -56 -35 -27
-10 -25 -4 -21 -50 -55 -34 -26
-10 -24 -5 -22 -51 -56 -35 -27
-10 -20 -7 -23 -51 -56 -35 -28
-9 -18 -6 -22 -50 -55 -35 -29
-9 -17 -4 -20 -48 -53 -32 -26
-8 -17 -3 -19 -47 -52 -32 -26
-8 -15 -2 -17 -45 -50 -30 -25
-8 -12 -2 -17 -44 -50 -30 -24
-8 -10 -2 -17 -43 -50 -30 -24
-7 -11 -2 -16 -43 -49 -29 -23
-7 -12 1 -15 -41 -48 -28 -21
-6 -10 1 -15 -43 -48 -29 -21
-6 -7 1 -15 -43 -48 -29 -21
-6 -6 2 -14 -40 -47 -28 -21
-6 -7 3 -13 -39 -47 -27 -20
-6 -8 4 -11 -38 -45 -26 -18
-6 -7 4 -10 -38 -45 -26 -19
-6 -7 5 -9 -37 -45 -25 -18
-5 -7 3 -10 -39 -45 -26 -18
-5 -8 0 -12 -43 -47 -28 -20
-5 -8 -3 -14 -45 -49 -29 -21
-5 -9 -4 -13 -43 -47 -28 -19
-4 -6 -7 -15 -43 -46 -27 -19
-3 -3 -9 -16 -43 -45 -26 -18
-2 -2 -11 -18 -44 -44 -25 -17
0 -5 -10 -18 -43 -43 -23 -16
-2 -7 -10 -18 -40 -41 -22 -15
-2 -7 -10 -19 -40 -40 -22 -14
-2 -9 -9 -19 -39 -40 -21 -13
-3 -12 -8 -18 -39 -40 -20 -14
-4 -12 -7 -17 -39 -43 -21 -15
-3 -9 -7 -16 -39 -41 -21 -14
-3 -9 -7 -15 -38 -40 -20 -13
-3 -9 -8 -17 -39 -40 -20 -13
-3 -10 -9 -19 -40 -41 -20 -13
-2 -9 -11 -21 -41 -41 -20 -13
-3 -8 -12 -23 -44 -43 -20 -13
-4 -8 -13 -24 -46 -45 -22 -14
-4 -9 -14 -24 -46 -46 -22 -14
-3 -9 -12 -23 -46 -45 -21 -13
-4 -7 -11 -22 -45 -44 -21 -13
-5 -6 -12 -22 -46 -44 -21 -13
-5 -10 -12 -22 -46 -44 -21 -14
-6 -14 -11 -21 -45 -44 -21 -14
-7 -17 -10 -22 -47 -46 -23 -16
-8 -19 -11 -23 -48 -48 -25 -18
-9 -21 -11 -24 -50 -50 -26 -20
-10 -20 -12 -25 -53 -53 -29 -22
-11 -20 -12 -27 -55 -55 -31 -24
-11 -22 -11 -27 -56 -56 -33 -26
-12 -22 -12 -28 -57 -58 -34 -27
-12 -23 -12 -27 -56 -57 -34 -26
-12 -24 -12 -27 -56 -57 -34 -26
-12 -24 -11 -27 -56 -57 -34 -26
-12 -24 -11 -26 -56 -57 -34 -26
-12 -24 -11 -26 -56 -57 -34 -26
-12 -25 -11 -26 -56 -57 -33 -25
-13 -23 -11 -26 -55 -57 -33 -25
-13 -22 -10 -25 -55 -57 -33 -25
-12 -23 -10 -25 -55 -56 -33 -25
-12 -23 -10 -25 -55 -57 -33 -25
-13 -23 -11 -26 -55 -57 -34 -25
-12 -23 -10 -26 -55 -57 -34 -25
-12 -22 -11 -26 -56 -57 -35 -26
-12 -21 -11 -26 -55 -56 -35 -26
-12 -23 -10 -25 -54 -55 -35 -26
-12 -25 -9 -24 -54 -55 -35 -26
-11 -26 -9 -23 -54 -54 -34 -24
-10 -25 -8 -22 -53 -53 -33 -23
-10 -24 -11 -25 -55 -56 -35 -25
-12 -25 -11 -25 -56 -57 -35 -26
-12 -25 -11 -25 -56 -57 -36 -26
-11 -25 -10 -24 -56 -57 -36 -26
-11 -25 -9 -23 -55 -56 -36 -26
-12 -27 -7 -20 -53 -57 -37 -28
-13 -29 -3 -13 -50 -57 -38 -31
-15 -35 5 -4 -47 -60 -41 -34
-14 -41 11 8 -44 -64 -48 -39
-12 -43 14 18 -40 -67 -53 -44
-10 -39 18 31 -28 -63 -50 -43
-7 -34 20 43 -13 -51 -40 -35
-3 -22 16 48 8 -26 -23 -21
6 0 8 48 35 13 7 2
17 24 -3 39 68 65 47 30
27 49 -13 15 98 126 93 65
35 77 -24 -20 118 187 142 102
44 111 -34 -45 144 256 196 143
51 150 -44 -54 181 330 254 186
58 189 -51 -68 220 405 309 227
62 224 -58 -100 250 471 355 262
61 252 -68 -152 264 518 387 287
54 273 -87 -222 256 538 399 300
40 283 -100 -281 235 536 394 301
23 278 -101 -308 214 515 369 284
5 250 -87 -303 193 482 332 254
-9 207 -71 -295 162 438 289 217
-14 171 -69 -302 108 372 238 177
-20 146 -76 -316 31 276 174 133
-32 119 -73 -319 -57 152 94 80
-46 87 -55 -307 -141 14 10 25
-56 57 -30 -283 -203 -103 -57 -19
-61 33 -12 -255 -229 -160 -89 -44
-61 15 -4 -228 -219 -155 -92 -54
-59 1 -6 -207 -198 -134 -89 -58
-56 -10 -12 -190 -183 -126 -88 -59
-51 -16 -18 -170 -168 -118 -82 -57
-46 -20 -24 -146 -149 -106 -74 -53
-39 -22 -28 -124 -134 -97 -69 -49
-33 -20 -31 -106 -120 -92 -66 -46
-27 -18 -32 -87 -107 -85 -60 -41
-22 -18 -31 -68 -93 -77 -55 -38
-18 -18 -29 -55 -81 -72 -52 -36
-15 -18 -26 -41 -70 -67 -48 -32
-12 -16 -21 -29 -59 -60 -44 -29
-11 -14 -15 -18 -50 -56 -41 -27
-11 -14 -11 -10 -43 -51 -37 -24
-11 -13 -8 -4 -37 -47 -33 -21
-11 -10 -6 1 -33 -45 -31 -20
-11 -8 -4 5 -30 -44 -30 -19
-10 -10 -2 9 -27 -41 -28 -18
-10 -14 2 13 -24 -39 -27 -17
-9 -16 3 16 -21 -38 -27 -17
-8 -16 4 18 -17 -37 -26 -16
-6 -16 5 20 -15 -36 -25 -16
-6 -17 7 24 -12 -33 -21 -14
-7 -16 7 26 -10 -31 -19 -13
-6 -12 4 26 -11 -31 -19 -14
-6 -11 5 27 -11 -30 -18 -14
-6 -12 6 28 -11 -30 -18 -14
-6 -15 7 30 -10 -29 -17 -13
-4 -17 7 33 -9 -28 -17 -13
-4 -17 7 33 -8 -28 -17 -13
-5 -15 7 32 -7 -29 -18 -13
-5 -14 6 33 -5 -28 -18 -13
-4 -12 6 33 -4 -27 -18 -13
-4 -12 8 34 -2 -24 -17 -11
-4 -11 8 35 0 -23 -16 -10
-4 -12 9 36 0 -21 -15 -9
-4 -12 9 37 0 -21 -15 -8
-4 -13 10 39 1 -20 -15 -7
-4 -13 10 40 2 -21 -16 -8
-4 -13 10 40 3 -21 -17 -9
-4 -13 10 40 5 -20 -17 -10
-3 -13 10 40 6 -20 -17 -11
-3 -14 12 43 9 -17 -14 -9
-3 -13 12 44 10 -16 -14 -8
-2 -12 13 46 13 -13 -12 -5
-2 -10 13 47 13 -13 -11 -5
-2 -7 12 47 13 -13 -11 -6
-2 -6 12 48 13 -13 -12 -6
-2 -8 13 50 14 -13 -12 -7
0 -10 14 52 17 -12 -10 -6
0 -10 14 53 19 -12 -9 -6
0 -9 14 53 20 -11 -9 -7
0 -9 15 54 23 -8 -7 -5
1 -8 16 56 25 -5 -5 -3
1 -7 16 57 27 -3 -4 -2
1 -6 16 59 28 -2 -2 0
2 -6 17 61 30 0 0 0
2 -6 17 63 31 1 0 0
2 -7 17 64 32 1 0 -2
2 -7 17 65 33 2 0 -2
2 -7 17 65 35 3 1 0
2 -7 18 66 37 5 2 0
2 -7 19 68 40 8 4 2
3 -6 19 69 43 10 5 3
3 -4 20 71 46 13 8 5
3 -2 19 72 47 14 8 6
3 0 20 74 48 16 9 7
3 0 20 76 49 17 10 6
4 0 19 78 50 18 9 4
5 0 19 79 53 20 10 5
6 0 20 80 56 22 11 6
6 -2 21 82 59 24 13 8
6 -2 22 85 63 26 16 10
7 1 22 86 65 29 17 11
7 4 21 88 67 32 18 13
7 5 22 90 69 34 20 15
7 5 23 93 72 36 21 16
7 7 21 94 73 36 20 14
7 7 21 95 75 38 21 14
8 8 21 96 77 39 22 14
10 11 21 99 82 43 23 16
11 11 21 101 86 46 25 17
12 11 21 104 89 49 27 18
12 12 22 106 93 54 30 21
13 14 23 109 97 58 32 24
13 16 23 112 99 61 34 25
14 19 23 114 102 65 36 27
15 20 22 116 105 67 37 27
16 20 22 119 110 69 39 28
17 22 23 122 114 73 43 30
19 23 23 126 119 77 45 32
19 23 24 128 123 81 48 35
19 23 25 130 128 86 51 37
20 26 24 131 131 90 54 39
21 30 24 133 134 96 57 43
22 33 23 135 137 99 60 44
23 37 23 137 140 104 63 46
24 39 22 139 143 107 66 48
24 38 21 141 147 110 69 49
24 42 19 141 150 114 70 51
26 45 18 141 152 117 73 52
27 46 19 143 157 122 78 56
27 46 19 145 161 128 82 59
26 49 18 145 164 133 86 62
28 53 17 145 167 137 89 64
29 56 17 145 169 141 93 67
29 58 17 145 169 143 94 69
29 58 15 144 170 145 95 69
29 59 14 143 171 147 96 69
30 59 14 142 172 150 99 71
31 61 14 141 175 152 101 73
32 63 14 140 176 154 102 74
32 62 15 141 178 158 105 77
32 64 14 139 178 160 108 79
32 68 13 136 177 162 109 81
32 71 12 134 174 163 110 81
31 71 12 133 173 164 111 82
32 70 11 131 172 165 112 84
33 70 10 128 169 163 111 84
31 70 10 125 165 161 110 82
31 68 10 121 163 160 110 82
31 66 11 118 161 158 109 82
30 64 11 115 157 155 108 81
28 64 11 111 151 151 105 78
26 62 12 108 146 148 104 77
25 60 12 104 138 143 101 74
25 57 12 100 131 137 97 72
25 57 11 96 123 130 92 68
25 54 11 92 115 121 86 63
23 48 11 87 107 112 79 59
20 42 12 82 100 105 74 57
18 39 13 78 94 99 70 53
17 37 13 73 87 92 65 49
16 33 13 68 79 85 59 45
14 28 14 65 72 78 55 42
12 27 13 61 64 70 49 37
11 26 11 57 55 61 42 32
10 23 12 54 49 54 37 29
9 17 12 51 42 47 31 23
7 12 13 47 36 38 26 19
5 8 13 44 31 31 21 16
5 5 12 40 25 25 16 12
4 2 12 37 21 20 13 10
4 0 11 34 16 16 9 7
3 -3 12 32 11 12 6 5
1 -4 11 30 7 8 2 3
0 -5 11 28 2 3 -2 0
0 -6 9 25 -4 -4 -6 -4
0 -9 9 24 -8 -8 -9 -6
0 -12 9 23 -10 -11 -12 -8
-2 -15 10 23 -10 -13 -12 -9
-3 -16 9 21 -13 -17 -15 -12
-4 -17 9 20 -15 -20 -16 -14
-4 -18 9 19 -16 -21 -16 -15
-4 -21 10 20 -17 -22 -16 -14
-4 -23 11 20 -18 -22 -16 -14
-4 -22 9 20 -20 -24 -18 -15
-5 -21 8 19 -21 -27 -20 -17
-5 -23 8 18 -23 -30 -21 -18
-5 -25 9 19 -22 -30 -21 -18
-5 -27 10 20 -22 -30 -21 -18
-5 -26 9 19 -23 -32 -23 -20
-5 -24 10 19 -23 -33 -23 -20
-5 -23 10 18 -24 -33 -24 -21
-5 -22 10 19 -24 -32 -24 -21
-5 -22 11 20 -23 -32 -24 -21
-5 -22 10 20 -23 -33 -24 -21
-5 -22 9 19 -24 -34 -26 -22
-6 -24 9 20 -24 -34 -27 -23
-6 -25 9 20 -25 -34 -27 -23
-6 -25 10 20 -23 -33 -26 -22
-6 -26 12 22 -21 -32 -26 -22
-6 -27 12 22 -21 -33 -26 -22
-6 -26 12 22 -21 -31 -25 -20
-5 -22 11 22 -20 -31 -25 -21
-5 -21 11 23 -21 -31 -25 -20
-5 -23 10 23 -22 -31 -25 -21
-5 -24 10 24 -22 -31 -25 -20
-4 -23 11 23 -23 -32 -26 -22
-4 -23 11 23 -22 -33 -26 -22
-4 -24 11 23 -22 -33 -26 -22
-4 -27 11 23 -21 -33 -26 -22
-5 -28 12 24 -20 -32 -25 -21
-5 -27 12 24 -20 -31 -24 -20
-5 -26 12 23 -21 -31 -24 -20
-5 -25 12 24 -21 -30 -24 -19
-5 -25 12 24 -21 -30 -24 -19
-5 -25 12 23 -21 -30 -25 -19
-6 -25 11 23 -21 -31 -26 -20
-6 -26 12 23 -20 -31 -25 -19
-6 -26 12 23 -20 -31 -25 -19
-5 -25 10 21 -21 -31 -25 -20
-5 -24 10 20 -21 -31 -24 -19
-5 -24 9 20 -21 -30 -23 -18
-5 -25 8 20 -21 -30 -22 -19
-4 -25 7 19 -21 -30 -22 -19
-4 -24 5 18 -23 -31 -23 -19
-4 -24 4 17 -23 -32 -23 -20
-3 -24 4 17 -23 -33 -23 -20
-3 -22 3 15 -24 -34 -24 -20
-4 -21 2 14 -24 -34 -25 -20
-6 -22 2 13 -25 -35 -25 -21
-5 -23 1 12 -25 -35 -25 -21
-4 -25 3 13 -24 -32 -22 -18
-3 -26 4 13 -25 -31 -21 -18
-3 -27 4 12 -26 -32 -22 -18
-3 -26 4 12 -26 -33 -22 -18
-3 -25 3 10 -28 -34 -24 -20
-3 -25 2 9 -28 -35 -24 -20
-4 -25 3 9 -28 -35 -25 -20
-4 -26 1 8 -28 -36 -26 -21
-3 -27 -2 7 -29 -36 -25 -21
-4 -27 -2 6 -29 -36 -25 -21
-4 -27 -3 5 -30 -36 -25 -21
-5 -27 -3 6 -31 -35 -24 -20
-5 -27 -4 5 -32 -36 -24 -20
-4 -27 -6 3 -34 -39 -25 -21
-4 -27 -7 2 -35 -40 -27 -22
-4 -28 -7 2 -34 -40 -27 -22
-4 -27 -7 0 -34 -43 -28 -23
-3 -26 -7 0 -33 -43 -27 -23
-3 -25 -7 -2 -34 -43 -28 -24
-4 -25 -6 -2 -34 -41 -28 -23
-5 -24 -7 -3 -35 -43 -29 -23
-5 -25 -7 -4 -36 -44 -31 -23
-5 -27 -7 -3 -36 -43 -29 -23
-5 -28 -7 -3 -37 -43 -29 -23
-5 -29 -7 -4 -37 -44 -30 -24
-6 -28 -8 -5 -38 -46 -31 -25
-6 -27 -8 -6 -38 -47 -31 -25
-6 -28 -7 -6 -38 -47 -31 -25
-5 -28 -7 -6 -38 -47 -31 -25
-6 -29 -6 -5 -38 -46 -30 -23
-6 -28 -8 -7 -39 -47 -32 -24
-6 -28 -8 -8 -40 -48 -32 -24
-6 -27 -8 -8 -40 -48 -32 -24
-6 -28 -8 -8 -40 -48 -32 -24
-6 -29 -7 -7 -40 -48 -32 -24
-6 -29 -7 -7 -41 -48 -32 -24
-5 -30 -7 -8 -41 -50 -33 -25
-6 -31 -7 -9 -43 -51 -34 -25
-6 -30 -7 -9 -43 -51 -34 -26
-6 -29 -6 -9 -41 -50 -33 -26
-6 -29 -6 -10 -41 -50 -34 -26
-7 -29 -6 -11 -43 -51 -34 -26
-7 -29 -7 -10 -44 -51 -34 -26
-7 -28 -8 -10 -44 -51 -34 -26
-7 -28 -8 -10 -44 -51 -35 -26
-7 -28 -8 -11 -44 -52 -35 -26
-6 -29 -7 -12 -45 -53 -35 -26
-7 -29 -7 -12 -45 -53 -35 -26
-7 -29 -7 -13 -45 -53 -36 -26
-7 -31 -7 -13 -45 -52 -35 -26
-7 -31 -7 -13 -45 -52 -35 -26
-7 -30 -6 -13 -46 -52 -35 -26
-8 -28 -7 -13 -46 -53 -35 -26
-8 -28 -7 -14 -47 -54 -36 -26
-7 -28 -7 -14 -48 -55 -36 -27
-8 -29 -7 -14 -49 -55 -37 -28
-8 -30 -7 -15 -49 -56 -37 -28
-7 -30 -6 -15 -48 -56 -37 -28
-6 -29 -6 -14 -47 -55 -36 -27
-5 -29 -7 -15 -48 -55 -37 -28
-6 -29 -7 -14 -48 -54 -36 -27
-6 -29 -8 -15 -49 -55 -37 -27
-7 -29 -7 -15 -51 -56 -37 -27
-7 -30 -7 -15 -51 -56 -38 -27
-7 -31 -7 -15 -51 -56 -38 -28
-7 -31 -7 -16 -51 -57 -39 -28
-7 -30 -7 -16 -50 -57 -39 -28
-6 -31 -7 -16 -50 -57 -39 -27
-6 -32 -7 -16 -50 -57 -38 -27
-7 -32 -7 -17 -50 -57 -38 -27
-7 -30 -6 -17 -49 -57 -37 -27
-7 -27 -7 -18 -51 -57 -38 -27
-6 -27 -7 -18 -51 -57 -38 -27
-7 -29 -6 -16 -51 -56 -37 -26
-7 -31 -6 -17 -51 -57 -38 -26
-6 -30 -6 -17 -51 -57 -39 -27
-6 -27 -8 -18 -52 -58 -40 -28
-7 -27 -8 -18 -52 -59 -40 -29
-8 -31 -7 -18 -51 -58 -39 -28
-8 -33 -6 -18 -50 -57 -38 -27
-7 -31 -6 -19 -50 -57 -38 -27
-7 -31 -6 -19 -51 -57 -38 -26
-7 -30 -6 -19 -51 -57 -39 -26
-7 -30 -6 -19 -51 -57 -39 -27
-7 -29 -6 -19 -52 -57 -39 -26
-7 -31 -6 -19 -52 -57 -40 -26
-6 -32 -7 -20 -53 -57 -41 -27
-7 -32 -7 -20 -53 -57 -41 -28
-7 -32 -6 -20 -52 -57 -41 -28
-7 -32 -6 -20 -52 -56 -40 -28
-7 -30 -6 -21 -52 -54 -40 -27
-7 -28 -6 -20 -52 -54 -40 -26
-7 -29 -6 -20 -53 -54 -40 -26
-8 -31 -6 -21 -54 -54 -40 -26
-8 -32 -5 -20 -53 -54 -40 -26
-8 -31 -6 -21 -54 -55 -41 -28
-7 -30 -6 -21 -54 -55 -41 -29
-7 -30 -6 -21 -54 -55 -43 -28
-7 -31 -6 -21 -54 -55 -43 -28
-8 -33 -5 -21 -54 -54 -40 -27
-8 -34 -5 -22 -54 -53 -40 -27
-8 -31 -6 -22 -54 -53 -39 -26
-8 -29 -5 -21 -54 -52 -38 -26
-8 -30 -6 -22 -54 -53 -40 -27
-8 -30 -6 -22 -55 -54 -41 -28
-7 -30 -6 -21 -55 -54 -43 -27
-7 -30 -6 -21 -55 -54 -43 -27
-7 -32 -6 -22 -55 -54 -43 -27
-7 -31 -6 -23 -55 -54 -43 -27
-7 -29 -5 -23 -55 -53 -43 -26
-8 -28 -5 -23 -55 -53 -41 -26
-8 -29 -5 -23 -54 -52 -41 -26
-7 -30 -5 -23 -55 -52 -41 -27
-7 -30 -5 -22 -55 -52 -41 -26
-7 -30 -4 -22 -55 -52 -41 -26
-8 -30 -4 -22 -55 -53 -43 -26
-9 -30 -5 -22 -55 -53 -43 -26
-7 -29 -3 -21 -53 -52 -40 -26
-6 -27 0 -19 -51 -49 -38 -25
-5 -26 2 -19 -50 -48 -39 -25
-6 -25 3 -18 -48 -47 -38 -23
-5 -24 3 -16 -46 -45 -36 -22
-4 -22 5 -15 -45 -43 -35 -22
-4 -20 5 -15 -45 -41 -35 -22
-4 -18 4 -15 -45 -43 -36 -22
-4 -16 5 -14 -44 -43 -36 -21
-4 -16 6 -13 -44 -41 -36 -21
-4 -16 6 -13 -43 -41 -35 -21
-4 -14 6 -13 -43 -41 -36 -21
-4 -13 8 -12 -41 -39 -35 -20
-3 -13 9 -12 -41 -39 -35 -20
-3 -12 10 -10 -40 -38 -34 -19
-2 -11 7 -11 -43 -39 -36 -20
-2 -11 5 -12 -44 -40 -37 -21
0 -14 4 -12 -44 -41 -37 -21
1 -16 3 -13 -45 -43 -38 -21
2 -17 1 -13 -44 -41 -37 -20
2 -18 1 -13 -41 -39 -34 -18
3 -15 -3 -17 -43 -39 -34 -18
3 -12 -4 -18 -43 -39 -33 -18
3 -13 -4 -18 -41 -37 -30 -16
3 -16 -4 -17 -40 -36 -28 -15
3 -17 -4 -18 -41 -37 -28 -15
2 -17 -4 -18 -43 -37 -29 -15
1 -16 -3 -18 -44 -37 -29 -16
1 -16 -3 -17 -45 -38 -30 -16
2 -15 -2 -15 -43 -36 -28 -16
3 -15 -2 -16 -43 -36 -28 -17
3 -16 -3 -17 -43 -36 -28 -16
2 -17 -5 -20 -45 -38 -28 -16
2 -18 -5 -20 -45 -37 -27 -14
1 -18 -5 -21 -47 -38 -27 -14
1 -19 -6 -22 -48 -39 -28 -15
1 -20 -5 -21 -47 -38 -27 -14
1 -18 -4 -21 -47 -38 -27 -14
1 -16 -4 -21 -48 -39 -27 -15
0 -18 -4 -21 -48 -39 -29 -15
-2 -20 -5 -22 -48 -40 -30 -16
-3 -22 -4 -22 -49 -41 -31 -18
-3 -25 -3 -23 -49 -43 -32 -20
-4 -27 -3 -24 -50 -44 -33 -19
-5 -28 -2 -24 -51 -45 -34 -19
-7 -28 -2 -25 -53 -45 -35 -20
-8 -29 -3 -26 -55 -48 -37 -23
-10 -30 -4 -26 -56 -51 -39 -25
-9 -28 -5 -27 -58 -53 -41 -26
-9 -29 -5 -27 -59 -53 -43 -26
-9 -32 -4 -27 -59 -53 -43 -26
-10 -35 -4 -26 -58 -52 -41 -26
-10 -33 -3 -25 -57 -50 -40 -25
-10 -30 -3 -26 -56 -49 -39 -25
-10 -30 -3 -26 -57 -50 -40 -25
-10 -29 -3 -27 -58 -51 -41 -26
-10 -28 -3 -27 -58 -49 -41 -26
-10 -29 -3 -26 -58 -48 -41 -26
-9 -32 -3 -26 -58 -48 -40 -25
-9 -35 -2 -25 -57 -49 -40 -25
-9 -35 -2 -25 -57 -49 -41 -25
-9 -32 -3 -25 -57 -50 -41 -25
-9 -29 -4 -25 -57 -50 -41 -26
-9 -29 -4 -25 -57 -50 -41 -26
-10 -29 -4 -25 -57 -50 -41 -25
-10 -29 -4 -25 -57 -50 -41 -25
-9 -29 -4 -25 -56 -49 -41 -25
-9 -30 -4 -25 -56 -50 -41 -25
-9 -31 -3 -24 -57 -50 -41 -25
-10 -32 -2 -24 -57 -50 -43 -26
-10 -33 1 -22 -54 -50 -43 -25
-10 -33 2 -19 -53 -51 -44 -26
-10 -33 4 -14 -52 -53 -47 -29
-12 -37 10 -5 -49 -54 -51 -33
-12 -44 17 7 -47 -58 -56 -39
-10 -49 24 18 -43 -61 -59 -43
-8 -46 27 30 -33 -59 -58 -43
-4 -37 27 39 -20 -50 -51 -37
1 -27 24 47 1 -25 -33 -23
9 -10 16 48 28 14 -2 1
19 14 6 43 64 66 38 30
29 42 -6 21 97 123 82 63
39 72 -17 -11 123 188 132 101
50 106 -27 -33 155 259 188 143
60 143 -36 -44 195 335 246 186
67 179 -41 -51 241 411 305 229
70 215 -46 -73 281 482 354 268
69 246 -56 -123 301 531 387 294
63 268 -74 -195 298 557 404 309
51 278 -92 -261 282 559 403 311
31 272 -92 -290 263 543 383 297
12 243 -78 -294 239 507 343 265
-2 203 -65 -291 203 457 296 228
-10 168 -65 -303 143 388 243 187
-18 140 -69 -318 61 290 178 143
-31 109 -64 -319 -29 168 98 90
-45 76 -44 -305 -115 29 13 32
-56 46 -19 -280 -183 -89 -55 -14
-62 21 -3 -254 -216 -149 -89 -40
-62 2 3 -229 -210 -145 -92 -51
-58 -11 0 -211 -189 -126 -89 -55
-54 -18 -8 -193 -175 -118 -88 -57
-50 -22 -15 -174 -160 -112 -85 -56
-44 -26 -23 -151 -144 -100 -77 -52
-38 -26 -26 -130 -129 -91 -71 -47
-33 -23 -28 -110 -115 -87 -67 -44
-27 -20 -29 -91 -102 -79 -63 -40
-21 -20 -28 -73 -91 -72 -60 -38
-17 -21 -26 -59 -80 -68 -57 -35
-13 -21 -22 -46 -69 -64 -53 -32
-11 -23 -16 -31 -57 -58 -47 -28
-10 -22 -9 -20 -47 -51 -40 -25
-10 -18 -7 -14 -40 -48 -39 -23
-10 -14 -5 -9 -35 -45 -36 -21
-10 -14 -3 -4 -31 -41 -33 -19
-10 -14 0 2 -28 -39 -32 -18
-9 -14 0 6 -26 -37 -31 -18
-9 -16 1 9 -24 -37 -30 -18
-9 -20 5 14 -20 -34 -29 -17
-7 -21 6 16 -19 -34 -30 -17
-5 -20 6 18 -18 -32 -29 -17
-5 -18 7 20 -15 -30 -27 -16
-5 -18 8 22 -12 -27 -25 -14
-5 -18 8 24 -10 -24 -22 -12
-5 -18 9 25 -9 -22 -21 -10
-5 -18 8 27 -9 -22 -20 -9
-4 -15 6 26 -10 -24 -22 -11
-4 -13 6 28 -10 -24 -23 -11
-3 -14 7 28 -10 -24 -23 -12
-3 -16 7 28 -9 -24 -23 -12
-2 -19 8 30 -7 -21 -22 -10
-3 -18 9 32 -5 -18 -21 -9
-3 -17 10 32 -3 -16 -19 -8
-3 -16 9 32 -2 -15 -18 -8
-3 -15 9 33 0 -13 -17 -7
-2 -13 9 34 0 -13 -17 -6
-2 -12 9 35 0 -11 -16 -6
0 -14 9 36 0 -11 -17 -6
-2 -17 10 37 2 -9 -16 -6
-2 -17 11 37 3 -6 -16 -7
-2 -15 12 38 5 0 -16 -7
-2 -15 12 40 8 3 -15 -6
-2 -15 12 40 10 5 -13 -4
-2 -15 12 42 12 8 -11 -3
-2 -13 12 43 13 10 -10 -3
-2 -12 13 45 14 12 -9 -2
0 -12 11 46 13 13 -10 -2
1 -12 11 47 13 13 -11 -3
1 -12 11 48 15 14 -11 -3
1 -11 12 49 17 16 -10 -3
1 -11 13 51 19 18 -8 -3
1 -10 12 51 21 20 -7 -2
1 -10 13 52 23 23 -5 0
1 -9 13 53 25 26 -3 2
1 -8 14 56 28 29 0 4
1 -7 13 57 29 30 1 4
1 -6 12 58 29 31 0 4
1 -5 11 59 29 31 -2 3
2 -4 11 59 30 30 -3 2
3 -4 11 61 32 33 1 4
4 -5 12 62 35 36 2 5
4 -6 13 64 37 38 4 6
4 -4 13 64 40 40 5 7
4 -3 13 66 43 44 8 9
4 -3 13 68 45 47 9 10
5 0 13 70 46 48 10 11
6 1 12 71 47 48 10 11
6 0 13 74 49 50 12 11
6 0 12 75 51 51 12 11
6 2 11 75 52 53 12 11
7 3 11 76 55 55 13 11
8 3 13 78 60 58 15 13
9 5 13 80 62 61 17 15
9 8 13 81 65 64 19 16
9 9 12 84 67 67 21 18
9 10 11 85 68 68 21 18
9 11 11 87 70 70 23 18
10 13 11 88 71 71 23 17
11 13 11 91 75 74 24 19
12 11 12 93 79 77 26 21
12 12 12 96 84 80 28 22
12 15 12 97 87 82 29 23
13 16 11 98 91 87 32 25
13 17 12 100 95 92 35 28
13 20 12 102 98 96 38 30
14 23 11 104 100 99 39 31
15 25 11 107 103 102 42 32
16 25 12 111 107 107 45 34
18 26 11 112 110 109 46 35
18 26 11 114 114 113 49 38
18 26 11 116 119 117 52 42
19 29 11 118 125 122 55 44
20 33 11 119 129 128 60 45
21 37 10 120 131 132 63 47
21 38 11 122 135 137 67 51
22 42 11 125 138 140 69 54
22 44 10 126 141 143 71 56
23 46 10 128 144 147 73 57
25 48 10 129 148 151 76 59
27 49 10 130 151 155 79 62
27 50 9 130 154 159 82 65
26 52 9 131 157 163 86 67
27 55 9 131 160 170 91 70
29 60 8 130 163 174 94 72
31 64 7 130 165 177 96 75
30 65 6 130 167 180 99 77
30 65 5 130 168 182 101 79
31 66 6 131 169 186 104 81
32 68 5 130 170 189 105 82
33 70 5 128 172 191 107 84
34 72 4 126 172 193 109 85
34 73 2 125 172 195 112 87
34 74 2 122 173 200 115 90
34 74 2 121 173 205 118 92
35 75 1 119 171 206 119 94
36 77 0 117 169 206 119 94
36 78 -2 115 168 207 120 94
36 79 -2 113 165 207 120 95
36 80 -3 110 162 205 119 94
35 79 -3 107 159 204 119 93
35 78 -4 103 156 202 117 92
34 76 -3 100 153 201 117 92
34 75 -2 98 149 199 116 92
32 74 0 95 145 195 115 90
31 72 0 92 140 190 113 88
29 70 -2 88 132 184 107 85
27 67 -2 85 125 178 103 81
27 64 0 80 117 170 98 77
27 60 0 75 110 162 93 73
26 56 1 71 103 154 88 69
23 51 1 67 96 146 82 65
21 47 2 62 90 137 76 61
19 45 2 58 82 131 72 58
17 43 2 52 74 123 66 54
15 40 1 47 66 115 60 49
14 37 2 44 59 108 55 45
13 33 0 39 51 99 48 38
12 31 -2 34 42 90 42 33
11 27 -2 31 36 82 36 30
10 20 1 29 33 77 33 28
9 13 1 26 28 71 29 25
8 10 1 23 23 65 25 23
6 10 0 19 18 59 21 19
5 8 0 16 13 54 17 17
4 6 -2 13 8 49 13 14
3 6 -2 12 3 44 9 11
2 6 -3 9 -3 37 5 7
1 1 -3 8 -6 33 2 5
0 -5 -2 7 -9 28 -2 3
-2 -8 -2 4 -11 25 -5 0
-2 -9 -2 3 -12 22 -7 -3
-2 -11 -2 2 -15 19 -9 -5
0 -13 0 1 -16 17 -10 -5
-2 -14 0 1 -17 16 -11 -6
-3 -14 1 1 -17 15 -12 -6
-4 -14 -2 0 -18 12 -13 -8
-4 -14 -4 -2 -20 10 -15 -9
-3 -15 -4 -3 -21 8 -17 -10
-3 -16 -4 -3 -21 6 -19 -11
-3 -17 -3 -3 -21 5 -20 -12
-3 -19 -3 -2 -22 4 -22 -13
-3 -19 -2 -2 -21 4 -21 -13
-3 -18 -2 -2 -21 4 -21 -13
-3 -18 -2 -3 -22 3 -22 -13
-4 -18 -3 -3 -23 2 -23 -14
-5 -18 -3 -2 -22 2 -22 -13
-5 -18 -3 0 -22 2 -22 -14
-4 -18 -4 -2 -24 0 -24 -15
-4 -19 -3 -2 -23 0 -23 -14
-4 -19 -2 -2 -23 -2 -24 -14
-4 -20 -2 -2 -22 -2 -24 -15
-4 -20 0 -2 -21 0 -24 -14
-3 -20 0 0 -20 0 -23 -13
-4 -19 0 0 -20 1 -23 -13
-4 -19 -2 0 -21 1 -24 -13
-5 -19 -2 0 -21 0 -25 -14
-4 -19 -2 0 -21 -2 -25 -14
-3 -19 -2 0 -22 -3 -26 -15
-3 -18 -3 0 -22 -4 -27 -16
-4 -19 -2 1 -22 -4 -26 -15
-5 -20 -3 1 -22 -5 -26 -15
-4 -21 -3 0 -22 -6 -26 -15
-4 -19 -2 0 -21 -4 -25 -14
-4 -17 -2 -2 -21 -4 -25 -14
-4 -18 0 -2 -20 -4 -25 -13
-4 -17 0 0 -20 -3 -24 -13
-4 -17 0 0 -20 -4 -23 -14
-4 -17 0 0 -21 -4 -23 -14
-4 -18 0 -2 -21 -5 -24 -14
-4 -19 0 0 -20 -4 -23 -13
-4 -18 -2 -3 -21 -6 -25 -15
-4 -17 -3 -4 -22 -6 -25 -15
-4 -16 -2 -4 -21 -6 -24 -14
-4 -16 -2 -5 -21 -6 -24 -13
-4 -18 -2 -5 -22 -6 -24 -13
-5 -20 -2 -5 -23 -5 -23 -13
-4 -18 -3 -5 -25 -6 -24 -13
-3 -15 -3 -6 -26 -8 -25 -14
-3 -15 -3 -7 -27 -9 -25 -15
-4 -17 -2 -9 -27 -10 -25 -15
-3 -16 -4 -10 -29 -11 -26 -16
-3 -16 -4 -11 -28 -11 -26 -15
-4 -15 -5 -12 -28 -11 -26 -15
-5 -16 -4 -13 -28 -10 -25 -14
-5 -17 -4 -13 -30 -10 -25 -14
-5 -18 -3 -13 -29 -10 -23 -13
-5 -19 -4 -13 -30 -11 -24 -13
-5 -17 -5 -15 -33 -14 -25 -14
-4 -15 -5 -17 -34 -17 -27 -15
-3 -13 -6 -19 -35 -18 -29 -16
-3 -13 -6 -20 -36 -18 -30 -17
-5 -15 -6 -19 -35 -17 -29 -16
-6 -18 -6 -20 -35 -17 -28 -16
-6 -18 -5 -19 -35 -17 -27 -15
-5 -19 -5 -18 -35 -16 -27 -15
-6 -19 -5 -20 -36 -17 -28 -16
-7 -19 -5 -20 -36 -18 -27 -16
-6 -19 -6 -22 -38 -20 -29 -17
-5 -19 -6 -23 -39 -22 -30 -18
-5 -19 -6 -24 -40 -23 -31 -18
-5 -18 -6 -24 -40 -24 -31 -18
-5 -18 -6 -25 -41 -25 -31 -18
-6 -18 -6 -26 -41 -25 -31 -19
-6 -19 -6 -27 -41 -25 -31 -19
-6 -19 -6 -27 -43 -25 -30 -19
-6 -20 -6 -26 -44 -25 -29 -18
-7 -20 -7 -27 -45 -27 -30 -18
-6 -20 -8 -27 -46 -28 -32 -19
-5 -20 -9 -27 -47 -30 -33 -20
-5 -22 -8 -28 -47 -29 -32 -20
-6 -23 -7 -28 -47 -29 -32 -20
-6 -21 -7 -29 -47 -30 -32 -19
-5 -20 -8 -30 -48 -30 -33 -19
-5 -20 -8 -30 -49 -29 -32 -19
-5 -21 -8 -30 -49 -29 -31 -18
-4 -22 -8 -30 -49 -30 -31 -18
-4 -22 -7 -29 -50 -31 -32 -18
-4 -22 -8 -29 -50 -32 -32 -18
-5 -22 -8 -30 -51 -33 -34 -20
-5 -23 -9 -30 -52 -34 -35 -21
-5 -24 -8 -30 -51 -33 -34 -20
-5 -24 -7 -30 -51 -33 -34 -20
-5 -24 -7 -30 -50 -33 -34 -20
-5 -24 -7 -30 -50 -33 -33 -20
-5 -22 -9 -31 -52 -34 -34 -21
-6 -21 -9 -31 -53 -35 -34 -21
-6 -22 -10 -31 -53 -36 -35 -22
-7 -24 -9 -30 -52 -36 -35 -21
-7 -24 -9 -31 -53 -37 -35 -22
-7 -24 -9 -32 -53 -37 -36 -23
-7 -24 -8 -32 -52 -37 -36 -22
-6 -25 -7 -31 -51 -36 -34 -20
-5 -25 -6 -30 -51 -36 -33 -19
-6 -25 -7 -31 -52 -36 -33 -20
-6 -24 -8 -32 -53 -36 -33 -20
-6 -23 -8 -32 -53 -36 -33 -19
-6 -24 -8 -32 -54 -36 -33 -19
-5 -26 -8 -31 -54 -37 -34 -20
-6 -27 -7 -30 -53 -37 -34 -20
-6 -25 -8 -32 -55 -39 -36 -22
-6 -24 -8 -32 -55 -40 -36 -23
-6 -23 -8 -33 -56 -40 -37 -24
-6 -25 -8 -33 -55 -40 -36 -24
-5 -25 -8 -32 -55 -40 -36 -23
-6 -25 -8 -32 -55 -39 -36 -23
-6 -24 -9 -32 -56 -39 -36 -23
-5 -24 -8 -32 -56 -39 -35 -22
-5 -25 -8 -31 -56 -39 -35 -22
-6 -27 -8 -31 -55 -40 -35 -22
-7 -27 -8 -33 -56 -43 -37 -24
-6 -25 -9 -34 -57 -43 -38 -24
-5 -25 -9 -34 -57 -43 -38 -24
-5 -25 -9 -34 -57 -43 -38 -23
-6 -25 -8 -34 -58 -43 -37 -23
-6 -25 -8 -34 -58 -43 -37 -23
-6 -25 -8 -33 -58 -43 -37 -23
-6 -24 -9 -33 -58 -44 -38 -23
-6 -23 -9 -33 -58 -44 -38 -24
-6 -23 -8 -33 -58 -44 -39 -24
-6 -23 -8 -33 -57 -45 -39 -25
-6 -23 -8 -33 -58 -45 -39 -25
-6 -24 -8 -33 -58 -46 -39 -25
-6 -25 -8 -33 -58 -47 -39 -25
-7 -26 -7 -32 -56 -45 -37 -23
-6 -25 -8 -32 -58 -46 -38 -24
-6 -25 -8 -33 -58 -46 -38 -25
-9 -26 -7 -33 -57 -46 -37 -24
-9 -25 -8 -35 -60 -48 -39 -26
-7 -24 -9 -35 -60 -49 -40 -27
-5 -23 -9 -34 -60 -50 -41 -28
-6 -23 -8 -33 -58 -49 -40 -26
-7 -24 -8 -33 -58 -48 -39 -25
-5 -23 -9 -33 -58 -47 -39 -25
-5 -22 -9 -32 -58 -47 -38 -24
-5 -22 -9 -32 -58 -47 -38 -24
-6 -23 -8 -31 -58 -47 -37 -23
-5 -23 -9 -32 -59 -49 -39 -25
-5 -24 -8 -31 -59 -50 -39 -25
-5 -25 -8 -31 -60 -51 -40 -27
-6 -26 -7 -31 -59 -51 -40 -27
-5 -26 -8 -32 -60 -52 -40 -27
-4 -26 -7 -31 -59 -50 -39 -26
-5 -27 -7 -30 -58 -49 -37 -24
-6 -27 -7 -30 -58 -50 -38 -25
-6 -26 -7 -30 -59 -50 -38 -25
-6 -24 -8 -31 -59 -52 -39 -25
-5 -22 -9 -32 -60 -53 -40 -26
-5 -22 -9 -31 -60 -53 -40 -27
-5 -22 -9 -30 -61 -53 -40 -27
-5 -23 -8 -30 -61 -53 -40 -28
-5 -23 -8 -30 -59 -52 -40 -27
-5 -23 -6 -28 -57 -50 -38 -25
-3 -22 -5 -27 -56 -49 -37 -24
-4 -19 -3 -25 -54 -47 -36 -23
-5 -16 -3 -25 -54 -48 -36 -23
-4 -14 -3 -24 -54 -48 -36 -23
-3 -14 0 -22 -52 -46 -34 -22
-4 -13 0 -21 -51 -46 -34 -22
-4 -13 0 -20 -50 -46 -35 -23
-3 -10 -2 -20 -51 -47 -35 -24
-2 -9 2 -20 -51 -46 -34 -24
-2 -9 4 -20 -50 -47 -34 -23
-2 -8 3 -20 -50 -47 -35 -24
-3 -7 4 -18 -49 -47 -34 -23
-3 -6 5 -16 -48 -46 -33 -22
-3 -6 6 -15 -48 -45 -32 -21
-2 -7 5 -15 -49 -45 -32 -20
0 -9 2 -16 -50 -46 -33 -21
1 -11 1 -16 -50 -46 -33 -22
2 -12 0 -16 -49 -46 -32 -22
3 -10 -3 -16 -48 -45 -31 -20
4 -7 -6 -18 -49 -45 -30 -20
5 -7 -7 -19 -48 -43 -29 -18
5 -9 -6 -19 -46 -41 -27 -16
5 -9 -6 -20 -47 -41 -26 -15
5 -8 -8 -21 -48 -44 -28 -17
4 -9 -8 -21 -49 -44 -28 -17
3 -10 -7 -20 -49 -44 -28 -17
3 -10 -6 -19 -49 -45 -29 -19
3 -10 -5 -18 -48 -44 -29 -19
3 -10 -4 -17 -46 -43 -27 -18
4 -11 -3 -17 -46 -41 -26 -17
5 -12 -4 -19 -47 -41 -25 -15
5 -9 -6 -22 -49 -44 -26 -16
4 -6 -8 -25 -52 -46 -28 -17
3 -7 -8 -25 -53 -47 -28 -17
4 -10 -8 -25 -54 -48 -29 -17
3 -13 -7 -23 -52 -46 -28 -17
1 -13 -7 -22 -50 -46 -28 -18
2 -11 -6 -23 -50 -46 -28 -18
2 -12 -5 -22 -49 -46 -28 -17
2 -14 -6 -23 -50 -47 -29 -18
1 -14 -6 -23 -52 -49 -30 -19
0 -15 -7 -24 -54 -52 -32 -22
-2 -18 -6 -24 -55 -53 -33 -23
-4 -20 -6 -25 -56 -55 -35 -24
-5 -20 -7 -26 -58 -58 -38 -27
-6 -23 -5 -25 -58 -58 -39 -28
-6 -27 -4 -24 -58 -58 -39 -30
-6 -28 -5 -24 -58 -60 -39 -30
-6 -27 -5 -24 -59 -60 -39 -30
-5 -27 -5 -24 -59 -60 -39 -30
-5 -27 -5 -24 -59 -59 -39 -30
-6 -26 -5 -24 -59 -59 -38 -29
-7 -23 -6 -24 -59 -60 -39 -30
-6 -23 -5 -23 -59 -59 -39 -29
-6 -23 -5 -22 -58 -59 -39 -29
-6 -24 -5 -21 -59 -59 -39 -31
-6 -24 -5 -21 -59 -60 -40 -32
-5 -25 -4 -21 -58 -60 -40 -32
-5 -26 -4 -20 -58 -59 -39 -32
-6 -27 -3 -18 -57 -59 -38 -31
-6 -27 -3 -18 -57 -59 -39 -30
-7 -28 -2 -17 -56 -58 -38 -29
-7 -27 -3 -17 -57 -58 -38 -29
-6 -26 -2 -16 -56 -57 -37 -28
-5 -26 -3 -16 -57 -58 -38 -30
-6 -27 -3 -15 -56 -57 -38 -30
-6 -27 -4 -15 -56 -57 -38 -30
-6 -27 -4 -15 -56 -57 -38 -30
-6 -27 -4 -16 -56 -58 -38 -31
-6 -27 -3 -16 -56 -58 -39 -32
-7 -27 -2 -14 -54 -58 -40 -33
-7 -29 3 -9 -51 -57 -40 -34
-7 -32 7 -2 -50 -60 -46 -39
-7 -37 13 10 -46 -65 -51 -45
-6 -43 19 21 -41 -69 -55 -50
-4 -43 23 32 -32 -67 -55 -51
0 -37 24 43 -18 -57 -49 -47
5 -26 21 49 1 -37 -34 -34
12 -11 15 53 25 -3 -7 -14
21 10 6 54 58 47 31 15
31 34 -6 48 94 106 77 49
42 62 -16 27 122 170 128 85
52 97 -29 0 144 235 181 125
61 136 -40 -15 173 308 236 167
68 172 -46 -18 213 383 295 211
72 207 -48 -30 251 454 347 250
70 240 -51 -65 277 513 387 280
65 265 -62 -128 279 546 407 298
54 278 -77 -201 261 553 408 302
36 279 -82 -248 239 542 391 290
16 262 -73 -257 222 515 356 263
2 224 -56 -249 198 479 315 226
-5 185 -49 -257 150 422 266 187
-11 156 -53 -277 77 331 204 143
-23 130 -52 -287 -9 214 128 92
-36 98 -38 -282 -95 74 39 34
-48 68 -14 -265 -166 -59 -36 -14
-54 45 6 -240 -205 -141 -79 -44
-55 26 19 -214 -205 -152 -88 -56
-53 10 19 -194 -188 -132 -85 -61
-50 -2 11 -181 -176 -122 -86 -66
-48 -9 2 -165 -164 -117 -82 -65
-41 -13 -7 -146 -150 -107 -77 -62
-34 -16 -14 -126 -134 -97 -72 -58
-30 -18 -18 -108 -122 -93 -69 -56
-25 -17 -21 -92 -111 -89 -66 -54
-20 -17 -23 -74 -99 -82 -62 -52
-15 -17 -24 -59 -87 -78 -58 -49
-11 -18 -23 -46 -74 -73 -55 -46
-9 -19 -19 -32 -61 -65 -50 -41
-6 -17 -14 -20 -49 -57 -43 -37
-5 -12 -10 -11 -39 -52 -38 -34
-5 -11 -6 -6 -35 -49 -35 -33
-5 -10 -3 0 -30 -46 -34 -32
-6 -10 1 5 -27 -44 -32 -29
-5 -11 2 9 -24 -43 -31 -28
-4 -14 2 13 -21 -41 -30 -28
-3 -16 3 16 -19 -41 -31 -28
0 -15 4 18 -17 -40 -31 -29
0 -13 6 21 -14 -38 -29 -28
0 -14 7 23 -11 -36 -27 -26
0 -14 8 25 -8 -33 -25 -24
1 -13 8 26 -7 -31 -23 -24
1 -13 8 28 -6 -29 -22 -23
1 -13 8 30 -5 -28 -21 -23
1 -13 8 31 -5 -28 -21 -23
1 -12 8 32 -3 -28 -20 -23
3 -12 8 33 -3 -29 -21 -24
3 -12 9 33 -2 -29 -20 -23
3 -13 10 34 1 -28 -19 -21
3 -12 10 34 3 -26 -18 -21
3 -12 10 35 5 -23 -17 -20
3 -12 10 36 6 -20 -16 -19
2 -12 11 37 7 -19 -15 -18
2 -11 10 37 6 -21 -16 -19
3 -10 11 38 7 -21 -17 -20
4 -9 11 38 6 -22 -19 -22
3 -10 11 40 8 -22 -19 -22
2 -10 10 40 8 -22 -20 -22
3 -9 10 40 10 -21 -19 -22
5 -9 11 42 13 -17 -16 -20
5 -9 12 43 16 -14 -13 -18
4 -8 12 44 17 -11 -11 -16
3 -9 13 45 18 -9 -9 -15
3 -11 14 47 20 -8 -8 -14
3 -11 13 47 20 -9 -8 -14
4 -9 11 48 20 -10 -10 -16
5 -8 11 49 21 -10 -11 -17
6 -9 12 50 24 -9 -10 -17
6 -11 13 52 26 -6 -9 -16
5 -9 14 53 28 -4 -8 -15
5 -5 13 51 28 -4 -7 -16
5 -4 13 52 30 -2 -6 -15
5 -3 12 54 32 1 -5 -14
5 -2 13 55 32 2 -4 -14
6 -2 14 57 34 3 -3 -13
6 -3 13 58 35 4 -3 -13
7 -2 14 60 38 5 0 -12
8 0 13 60 40 6 1 -12
8 -4 14 61 44 8 3 -10
7 -6 14 63 46 11 6 -8
8 -6 14 64 49 14 8 -5
9 -3 12 63 50 15 9 -5
9 1 12 63 51 16 10 -4
9 2 12 65 51 18 11 -4
10 2 13 66 52 18 11 -4
10 3 12 67 53 18 9 -6
10 3 12 68 54 19 8 -7
9 3 13 71 59 22 10 -5
10 1 14 72 64 26 13 -4
11 -2 14 73 66 28 14 -2
11 1 15 74 67 31 16 1
11 7 14 74 69 33 18 1
12 10 13 74 71 34 19 1
13 10 13 76 74 38 21 3
14 10 13 79 77 40 23 4
15 10 12 80 79 43 23 4
15 10 12 82 81 44 25 5
15 10 12 84 85 46 26 6
15 10 12 84 88 49 28 7
15 11 13 86 91 53 30 10
16 13 14 87 94 56 32 12
17 15 13 89 97 60 35 14
17 17 12 90 99 63 37 15
18 18 12 93 102 67 39 17
18 18 12 95 105 71 42 19
18 18 13 98 109 74 45 20
19 19 13 101 112 77 46 21
21 22 12 101 115 80 48 22
23 25 12 103 120 85 52 25
24 27 12 103 125 89 55 27
24 28 11 104 127 93 57 29
24 29 10 106 131 97 60 32
24 31 10 108 133 102 64 35
25 34 10 110 136 107 68 37
26 36 11 111 138 111 70 39
27 38 10 112 141 114 72 40
28 39 9 113 143 117 74 43
28 40 9 114 146 121 76 44
28 42 9 115 150 126 79 46
29 45 8 113 151 129 81 47
30 48 8 113 153 133 85 50
31 51 8 113 155 137 89 53
32 54 6 113 155 140 92 54
32 56 6 114 158 144 95 58
33 56 6 114 159 147 97 59
34 55 7 114 161 151 100 62
34 55 6 114 162 154 102 64
34 56 6 113 162 156 105 65
34 56 6 112 163 159 107 67
34 57 7 111 165 162 110 70
35 58 5 109 165 164 112 72
36 62 3 106 163 165 113 73
36 65 2 104 161 167 114 74
35 65 3 103 160 168 115 76
35 64 3 101 157 168 114 75
35 64 2 100 154 165 114 75
35 64 1 97 151 164 113 75
35 63 1 94 148 163 114 74
35 62 1 92 147 162 115 75
34 63 1 89 144 159 113 73
31 62 2 85 140 156 111 73
30 60 3 82 135 152 109 71
30 59 2 78 128 146 105 69
30 57 3 75 121 140 101 66
28 56 3 72 114 133 96 62
27 53 3 69 107 125 91 58
25 49 4 66 101 117 85 54
24 45 6 63 95 110 79 50
23 40 7 60 90 103 75 47
22 37 7 56 82 95 70 44
20 34 8 53 77 88 66 40
18 31 8 49 70 80 61 37
17 28 8 46 64 74 57 34
16 24 8 43 57 66 51 29
14 21 8 39 50 58 45 24
12 17 9 36 44 49 38 19
10 14 9 33 37 40 32 15
9 10 9 29 31 32 26 10
7 7 10 27 26 27 22 7
7 6 9 24 22 22 18 5
6 4 11 22 20 18 16 4
5 2 10 19 16 13 13 2
3 0 10 17 11 8 10 1
3 -2 10 15 7 2 5 -4
3 -6 10 14 3 -4 2 -5
2 -11 10 13 0 -9 -2 -8
1 -14 10 12 -5 -14 -6 -11
0 -15 9 10 -8 -19 -9 -14
0 -16 10 9 -9 -21 -10 -15
-2 -17 10 8 -10 -23 -13 -17
-2 -17 10 7 -11 -25 -14 -18
-3 -17 11 7 -11 -25 -14 -19
-3 -17 11 6 -14 -28 -17 -21
-4 -20 10 6 -16 -31 -19 -22
-4 -22 9 6 -18 -34 -21 -23
-4 -22 10 6 -19 -35 -23 -25
-4 -22 10 6 -20 -36 -24 -26
-4 -23 10 5 -20 -36 -24 -26
-4 -24 9 3 -19 -36 -25 -27
-5 -25 10 4 -18 -35 -25 -25
-4 -26 11 4 -18 -34 -24 -24
-3 -23 10 4 -18 -35 -24 -25
-4 -21 9 4 -18 -37 -25 -26
-5 -23 9 4 -19 -37 -25 -25
-6 -25 10 4 -19 -38 -26 -25
-5 -25 10 5 -20 -38 -26 -26
-5 -26 10 6 -19 -39 -26 -27
-5 -26 10 4 -19 -39 -26 -27
-5 -27 10 5 -18 -38 -25 -25
-5 -25 9 5 -17 -37 -25 -26
-5 -25 9 5 -16 -36 -24 -26
-6 -26 10 5 -15 -35 -23 -25
-6 -25 9 5 -15 -36 -23 -26
-5 -24 10 6 -16 -35 -23 -25
-5 -25 10 6 -16 -36 -24 -24
-6 -25 8 6 -17 -37 -25 -25
-6 -23 9 7 -17 -37 -25 -24
-4 -22 8 7 -17 -37 -24 -24
-3 -24 8 7 -16 -36 -24 -24
-3 -24 8 6 -15 -36 -24 -24
-4 -23 8 6 -15 -35 -22 -23
-4 -22 9 6 -14 -34 -21 -22
-4 -22 9 6 -14 -34 -21 -22
-4 -22 8 7 -15 -35 -22 -23
-4 -22 6 6 -16 -36 -23 -24
-4 -23 6 6 -17 -37 -24 -24
-4 -22 6 5 -18 -37 -24 -23
-4 -21 6 4 -18 -38 -25 -24
-4 -22 7 4 -17 -37 -23 -23
-4 -22 7 4 -17 -36 -23 -23
-4 -22 8 4 -17 -35 -22 -21
-4 -22 8 3 -16 -34 -22 -20
-5 -22 7 3 -16 -34 -22 -20
-6 -21 6 3 -17 -34 -23 -20
-4 -21 6 3 -18 -35 -24 -20
-3 -22 6 4 -18 -35 -24 -21
-3 -24 7 3 -19 -36 -23 -21
-4 -25 7 2 -19 -36 -22 -20
-4 -23 7 1 -20 -37 -23 -21
-4 -21 6 -2 -21 -38 -23 -22
-4 -21 5 -3 -21 -37 -23 -21
-4 -22 5 -3 -21 -37 -23 -20
-4 -21 4 -4 -23 -38 -24 -21
-4 -22 5 -3 -23 -38 -24 -21
-4 -24 4 -4 -24 -39 -25 -22
-3 -23 4 -5 -26 -41 -26 -23
-3 -23 4 -6 -27 -43 -27 -23
-4 -24 4 -7 -28 -44 -28 -24
-6 -25 3 -7 -27 -43 -27 -23
-5 -26 2 -8 -27 -43 -27 -22
-5 -25 3 -8 -26 -41 -26 -21
-6 -24 4 -7 -27 -41 -26 -20
-7 -24 4 -8 -29 -41 -26 -20
-7 -26 4 -7 -29 -43 -26 -20
-7 -26 3 -8 -31 -44 -27 -21
-7 -25 3 -9 -32 -46 -29 -22
-6 -25 3 -10 -33 -47 -30 -23
-6 -26 4 -10 -32 -47 -30 -23
-6 -27 3 -11 -33 -47 -30 -24
-6 -27 3 -12 -33 -47 -30 -24
-6 -26 3 -12 -32 -47 -29 -22
-6 -26 3 -12 -33 -46 -29 -22
-6 -27 3 -13 -35 -47 -29 -22
-7 -28 3 -12 -35 -47 -29 -21
-7 -27 1 -13 -37 -49 -31 -23
-7 -26 0 -14 -38 -51 -32 -24
-7 -27 0 -14 -39 -52 -33 -25
-7 -27 1 -15 -38 -52 -33 -24
-7 -27 2 -14 -37 -51 -32 -24
-7 -27 2 -15 -38 -51 -32 -24
-8 -27 3 -15 -37 -51 -31 -24
-8 -27 2 -15 -37 -50 -31 -24
-8 -28 2 -15 -38 -50 -32 -25
-8 -30 1 -15 -39 -51 -33 -25
-9 -30 0 -16 -39 -52 -34 -26
-8 -28 0 -16 -39 -52 -33 -25
-8 -27 0 -16 -40 -53 -33 -25
-8 -30 0 -17 -40 -54 -34 -25
-9 -32 1 -16 -40 -54 -34 -24
-8 -30 0 -17 -41 -54 -34 -25
-7 -27 0 -18 -41 -54 -34 -26
-7 -27 0 -18 -41 -53 -33 -25
-8 -29 0 -16 -41 -52 -32 -24
-9 -29 0 -16 -41 -52 -33 -24
-8 -29 0 -16 -43 -53 -34 -24
-7 -29 0 -16 -44 -54 -35 -25
-7 -30 0 -17 -44 -55 -35 -25
-8 -31 0 -18 -45 -56 -36 -26
-8 -31 0 -19 -45 -57 -36 -26
-8 -30 0 -18 -44 -56 -35 -25
-8 -29 0 -18 -44 -55 -35 -24
-8 -28 0 -18 -45 -56 -36 -25
-9 -29 -2 -19 -46 -56 -36 -26
-9 -29 -2 -18 -46 -56 -36 -27
-9 -29 -2 -18 -46 -57 -36 -27
-10 -29 -2 -18 -46 -57 -37 -27
-10 -30 0 -17 -45 -57 -36 -27
-9 -31 0 -18 -45 -57 -37 -26
-9 -31 0 -19 -45 -57 -36 -26
-9 -31 0 -19 -46 -57 -36 -25
-10 -32 -2 -19 -46 -57 -36 -25
-10 -32 -2 -19 -46 -57 -36 -25
-10 -32 -2 -20 -46 -56 -35 -25
-10 -31 -2 -19 -47 -56 -35 -25
-9 -30 -3 -20 -48 -58 -36 -26
-9 -29 -3 -20 -48 -58 -37 -26
-9 -29 -3 -20 -48 -58 -37 -26
-9 -30 -4 -20 -48 -59 -37 -27
-10 -30 -3 -20 -47 -59 -37 -26
-10 -30 -3 -20 -48 -59 -36 -25
-10 -31 -2 -20 -48 -59 -36 -25
-10 -34 0 -19 -47 -58 -35 -24
-10 -35 0 -19 -47 -58 -35 -23
-10 -32 -3 -20 -49 -59 -36 -24
-10 -29 -4 -21 -50 -60 -37 -26
-10 -30 -3 -21 -48 -59 -37 -25
-10 -31 -2 -20 -48 -58 -37 -25
-9 -31 -2 -19 -47 -58 -36 -25
-9 -32 -2 -19 -46 -58 -36 -25
-10 -32 -2 -20 -46 -57 -36 -24
-10 -32 -4 -22 -48 -60 -37 -25
-11 -33 -4 -22 -49 -60 -37 -26
-10 -34 -3 -21 -48 -58 -36 -24
-9 -32 -3 -20 -48 -58 -36 -24
-9 -30 -5 -22 -50 -60 -39 -26
-10 -30 -5 -22 -50 -60 -39 -27
-10 -30 -4 -22 -50 -61 -39 -28
-9 -30 -5 -22 -51 -61 -39 -28
-9 -30 -5 -22 -51 -61 -39 -28
-9 -30 -5 -21 -50 -60 -38 -27
-9 -29 -4 -20 -50 -59 -37 -26
-9 -27 -2 -19 -49 -58 -36 -24
-8 -26 -2 -18 -48 -58 -36 -23
-8 -25 1 -16 -46 -57 -34 -21
-8 -23 1 -15 -45 -56 -34 -21
-8 -22 2 -14 -44 -55 -33 -20
-8 -25 4 -12 -40 -53 -31 -19
-8 -25 4 -11 -39 -53 -30 -19
-8 -23 4 -12 -39 -53 -31 -20
-8 -20 4 -12 -40 -52 -31 -20
-8 -18 5 -11 -39 -51 -30 -19
-9 -18 5 -12 -38 -50 -29 -18
-9 -17 6 -11 -38 -49 -29 -18
-9 -16 6 -10 -39 -50 -31 -19
-8 -14 7 -9 -39 -51 -32 -19
-7 -12 7 -8 -38 -51 -32 -19
-7 -11 8 -7 -38 -51 -31 -19
-7 -12 6 -9 -38 -53 -32 -20
-8 -15 5 -9 -39 -53 -31 -20
-8 -17 3 -11 -41 -53 -32 -21
-6 -16 1 -12 -41 -51 -30 -20
-4 -14 -3 -12 -39 -49 -28 -18
-3 -11 -5 -14 -39 -48 -26 -16
-2 -9 -7 -15 -39 -47 -26 -15
0 -10 -7 -16 -38 -46 -25 -14
-2 -14 -7 -16 -38 -45 -24 -13
-3 -16 -7 -16 -39 -46 -24 -13
-4 -15 -7 -17 -39 -47 -25 -13
-4 -14 -6 -18 -38 -47 -25 -14
-4 -16 -4 -17 -37 -46 -24 -13
-3 -18 -3 -15 -36 -44 -22 -11
-3 -18 -3 -14 -34 -41 -21 -9
-3 -15 -5 -15 -36 -43 -22 -10
-3 -13 -7 -17 -39 -45 -23 -11
-3 -11 -7 -19 -40 -45 -23 -11
-2 -12 -8 -20 -41 -46 -23 -11
-2 -13 -10 -21 -44 -48 -24 -12
-3 -14 -10 -22 -44 -48 -25 -13
-4 -14 -9 -22 -43 -47 -25 -13
-4 -14 -7 -20 -40 -45 -23 -11
-5 -15 -5 -20 -40 -43 -20 -10
-5 -16 -5 -21 -43 -44 -21 -11
-6 -16 -6 -22 -45 -46 -23 -13
-7 -18 -5 -23 -47 -48 -24 -14
-8 -22 -5 -23 -47 -49 -25 -14
-9 -25 -7 -24 -49 -51 -27 -17
-10 -24 -7 -26 -51 -54 -31 -20
-11 -26 -6 -26 -52 -56 -33 -23
-12 -28 -6 -26 -53 -56 -34 -24
-12 -31 -4 -26 -53 -56 -34 -23
-12 -33 -4 -26 -54 -57 -34 -23
-13 -31 -4 -27 -54 -57 -34 -23
-13 -28 -6 -27 -55 -58 -35 -23
-13 -27 -6 -26 -55 -57 -35 -23
-13 -28 -6 -26 -54 -57 -35 -24
-13 -28 -6 -26 -54 -57 -35 -25
-12 -28 -6 -26 -53 -57 -36 -25
-12 -29 -5 -26 -54 -57 -36 -25
-12 -29 -6 -26 -54 -57 -36 -25
-12 -28 -7 -26 -53 -56 -36 -24
-12 -27 -6 -27 -54 -57 -36 -24
-13 -27 -6 -26 -53 -56 -35 -24
-13 -27 -6 -26 -54 -56 -35 -25
-13 -27 -6 -26 -54 -56 -34 -25
-13 -27 -6 -26 -54 -56 -34 -25
-12 -28 -6 -26 -54 -56 -34 -25
-12 -29 -6 -26 -54 -56 -35 -25
-12 -29 -6 -26 -54 -55 -35 -25
-12 -27 -7 -27 -55 -56 -35 -26
-12 -27 -6 -27 -54 -55 -34 -26
-12 -27 -6 -27 -54 -55 -34 -26
-12 -27 -6 -27 -54 -55 -34 -25
-12 -27 -5 -27 -54 -55 -34 -25
-12 -27 -4 -24 -53 -55 -34 -26
-13 -28 -2 -19 -50 -54 -35 -27
-15 -34 4 -11 -46 -54 -37 -30
-15 -39 8 -3 -44 -60 -45 -37
-12 -43 14 9 -40 -63 -50 -43
-9 -43 19 21 -31 -61 -50 -43
-7 -37 22 33 -17 -52 -44 -37
-5 -27 21 42 3 -31 -29 -27
2 -11 13 42 24 1 -5 -9
11 11 3 39 54 49 32 19
21 37 -9 27 85 104 75 51
30 65 -20 0 106 163 121 86
38 97 -31 -30 123 230 174 125
46 133 -39 -44 151 303 231 168
53 170 -46 -49 188 377 288 210
58 204 -51 -69 221 445 339 246
58 237 -57 -110 240 500 378 277
53 264 -69 -170 237 530 397 294
42 282 -86 -239 216 533 397 298
25 286 -95 -288 188 516 378 287
6 272 -88 -299 167 486 344 263
-10 236 -70 -287 146 452 306 231
-15 195 -59 -286 108 403 262 194
-19 162 -61 -299 45 326 206 154
-28 136 -63 -308 -33 217 135 106
-40 107 -53 -303 -112 86 52 52
-52 78 -31 -288 -183 -48 -28 1
-60 56 -11 -266 -225 -137 -76 -34
-63 38 3 -238 -228 -157 -90 -50
-61 20 6 -215 -208 -137 -88 -56
-57 6 1 -198 -192 -123 -86 -59
-53 -2 -6 -182 -180 -118 -83 -59
-47 -8 -13 -161 -163 -108 -77 -56
-41 -15 -18 -138 -145 -97 -70 -52
-36 -17 -23 -118 -131 -90 -65 -49
-31 -14 -26 -102 -118 -85 -63 -46
-25 -13 -28 -85 -105 -77 -58 -41
-20 -13 -28 -69 -91 -71 -52 -37
-16 -12 -27 -57 -80 -65 -49 -35
-13 -10 -24 -45 -69 -59 -44 -32
-11 -9 -19 -32 -58 -52 -39 -29
-11 -10 -12 -21 -48 -46 -34 -25
-12 -10 -9 -14 -43 -41 -32 -23
-13 -7 -6 -10 -38 -38 -30 -22
-12 -4 -5 -8 -35 -37 -29 -22
-10 -4 -4 -3 -31 -34 -26 -20
-10 -3 -3 0 -30 -34 -26 -20
-10 -5 0 4 -28 -32 -25 -19
-10 -9 2 7 -25 -30 -24 -18
-9 -11 4 11 -21 -27 -22 -17
-7 -11 4 12 -20 -27 -22 -17
-7 -12 5 14 -19 -25 -20 -15
-6 -12 5 15 -19 -23 -19 -15
-6 -11 6 17 -18 -22 -18 -14
-6 -10 6 19 -17 -22 -18 -14
-6 -9 6 20 -16 -20 -17 -14
-6 -8 6 21 -16 -20 -18 -14
-6 -9 5 22 -15 -20 -17 -14
-6 -11 7 24 -12 -17 -15 -12
-5 -10 7 23 -12 -16 -16 -12
-5 -7 6 23 -12 -16 -16 -13
-5 -7 6 23 -11 -15 -14 -12
-5 -8 6 23 -11 -14 -14 -12
-4 -7 7 25 -10 -12 -13 -10
-3 -5 7 26 -9 -11 -13 -10
-5 -5 7 26 -10 -11 -14 -11
-6 -6 8 27 -8 -11 -14 -10
-4 -6 8 27 -7 -11 -14 -11
-3 -5 9 28 -5 -10 -13 -10
-2 -5 8 27 -4 -9 -14 -11
-2 -4 9 28 -2 -7 -13 -10
-2 -4 9 29 0 -5 -11 -9
-3 -5 10 32 2 -2 -9 -7
-3 -3 9 33 2 -2 -10 -8
-3 -2 9 34 3 -2 -10 -8
-3 -3 9 36 4 0 -9 -8
-2 -3 10 37 5 1 -8 -7
-2 -2 9 37 7 1 -9 -7
0 -3 10 38 9 3 -8 -7
0 -3 10 38 10 4 -8 -7
-2 -3 11 40 13 7 -5 -5
-2 -2 10 42 14 8 -4 -5
-2 0 11 44 15 9 -4 -5
-2 1 10 45 16 11 -3 -4
-2 2 9 46 16 11 -3 -4
0 2 9 48 17 12 0 -3
1 3 9 48 18 13 0 -4
1 3 9 49 21 14 1 -3
1 2 11 51 24 17 3 0
2 2 11 52 26 18 3 0
2 2 11 53 27 20 3 0
2 3 11 54 29 22 4 1
2 4 11 56 31 25 6 3
3 5 11 57 32 27 7 4
3 5 11 59 34 28 9 4
2 6 11 61 36 29 10 5
3 8 10 62 37 30 10 4
4 10 9 62 38 31 10 4
4 11 10 63 42 32 11 4
4 12 10 63 43 33 11 5
6 13 10 64 46 36 13 6
7 13 10 66 49 39 15 7
7 14 11 68 51 44 17 9
8 15 10 70 52 46 18 10
8 16 11 73 55 48 20 11
9 17 10 74 56 50 20 11
9 18 10 77 58 52 21 12
9 18 10 79 62 54 22 13
10 17 11 81 65 57 24 15
11 15 11 82 69 60 26 16
11 15 12 85 73 64 29 18
11 17 11 86 75 67 31 20
12 20 11 88 77 70 33 21
13 22 11 92 80 73 35 23
14 26 10 94 84 75 36 24
14 29 10 95 86 78 38 25
14 29 10 97 89 80 39 26
15 29 11 100 94 86 43 28
16 31 11 102 98 90 45 30
18 33 11 104 102 94 48 31
19 35 11 106 106 99 51 33
19 38 11 107 109 103 54 35
20 42 10 109 112 106 56 37
20 44 10 112 115 111 60 42
20 44 11 115 119 115 63 44
20 45 10 116 122 119 65 45
21 45 11 118 127 123 68 47
23 46 11 120 130 128 71 50
24 49 11 121 134 132 75 53
25 52 9 120 136 135 76 54
25 54 10 121 139 140 80 57
26 56 10 121 140 144 84 59
26 58 9 121 142 148 86 60
26 61 9 121 143 151 88 62
28 62 9 121 144 154 91 64
29 63 8 121 146 157 94 66
29 64 7 121 147 160 95 68
28 65 6 120 148 163 97 70
30 66 6 120 149 165 99 71
32 67 7 119 150 168 102 73
32 67 7 118 151 171 104 75
31 68 6 116 151 174 106 77
31 72 4 113 149 174 107 78
31 76 2 111 147 174 107 78
31 76 3 111 146 175 108 79
31 75 3 109 145 176 109 80
30 74 2 106 141 174 108 80
30 73 2 103 139 174 108 80
29 72 1 100 137 172 107 80
29 72 1 96 134 170 107 79
30 73 2 92 129 167 105 78
31 73 1 87 121 162 102 75
30 72 2 84 116 158 100 73
29 70 2 79 109 152 96 70
27 67 2 76 102 146 93 67
25 64 2 72 94 139 88 64
24 60 2 69 88 132 82 61
23 57 2 64 79 122 77 57
22 54 2 60 73 115 72 54
20 49 3 55 66 107 67 50
18 45 3 51 59 100 62 46
16 43 4 46 51 92 57 42
15 42 4 40 43 84 51 37
13 37 5 37 36 76 46 34
11 33 5 33 29 68 40 30
9 30 5 30 22 61 34 26
8 26 4 26 15 53 28 22
7 22 5 23 10 46 24 19
6 19 5 20 4 38 20 15
5 17 5 17 -2 32 15 11
4 13 6 14 -6 28 12 9
2 10 7 12 -11 23 8 7
1 8 6 9 -16 18 5 5
1 7 5 6 -21 12 1 2
1 5 4 5 -26 7 -3 0
-2 1 4 4 -29 3 -6 -3
-4 -4 4 3 -31 0 -9 -5
-5 -6 4 1 -34 -5 -11 -7
-4 -7 4 -2 -37 -9 -14 -10
-4 -8 3 -3 -39 -12 -17 -12
-4 -8 2 -5 -41 -15 -19 -13
-5 -9 3 -5 -43 -16 -20 -13
-6 -10 3 -6 -45 -17 -21 -15
-6 -12 4 -6 -46 -19 -22 -15
-6 -11 3 -6 -47 -21 -23 -17
-6 -9 2 -7 -50 -23 -25 -18
-5 -10 2 -6 -51 -25 -26 -19
-5 -13 2 -5 -50 -25 -27 -19
-6 -15 2 -6 -51 -26 -28 -20
-8 -16 2 -7 -51 -27 -29 -20
-8 -14 1 -7 -51 -27 -29 -21
-7 -13 3 -7 -50 -27 -29 -20
-6 -13 3 -7 -51 -27 -29 -20
-6 -14 4 -5 -50 -25 -28 -20
-6 -15 3 -5 -50 -25 -29 -20
-7 -15 2 -5 -51 -25 -29 -20
-6 -14 2 -5 -51 -26 -30 -20
-6 -14 3 -4 -50 -27 -30 -21
-6 -14 3 -4 -49 -27 -30 -21
-6 -13 2 -5 -50 -28 -31 -22
-6 -13 2 -4 -49 -27 -30 -22
-6 -15 3 -3 -48 -26 -29 -22
-6 -17 4 -2 -47 -26 -27 -21
-6 -16 3 -2 -48 -26 -28 -21
-5 -14 2 -2 -48 -26 -29 -22
-4 -14 1 0 -48 -26 -29 -22
-5 -15 2 1 -47 -26 -29 -21
-5 -15 2 0 -47 -26 -29 -22
-5 -13 1 -2 -47 -26 -30 -23
-5 -12 1 0 -47 -26 -29 -23
-5 -13 1 0 -47 -25 -29 -22
-5 -14 1 -2 -47 -25 -28 -22
-5 -13 1 0 -47 -25 -28 -21
-5 -13 1 1 -47 -25 -27 -21
-5 -13 1 1 -47 -24 -27 -20
-6 -15 2 2 -46 -24 -27 -19
-6 -18 2 3 -45 -23 -26 -18
-5 -19 2 4 -45 -23 -26 -19
-4 -17 2 3 -45 -23 -26 -19
-4 -14 1 2 -46 -24 -26 -19
-5 -13 1 1 -46 -24 -27 -19
-6 -13 1 0 -47 -25 -27 -19
-6 -13 2 -2 -47 -25 -26 -19
-5 -13 2 -2 -48 -25 -26 -19
-5 -13 1 -2 -48 -24 -26 -19
-6 -13 1 -2 -48 -24 -26 -18
-5 -13 1 0 -48 -24 -26 -18
-5 -13 0 0 -48 -24 -26 -18
-5 -13 0 -2 -48 -25 -26 -18
-5 -14 0 -3 -49 -25 -26 -19
-4 -16 1 -3 -48 -25 -24 -18
-4 -16 1 -4 -48 -25 -24 -17
-3 -15 0 -5 -50 -26 -25 -18
-3 -14 0 -4 -50 -26 -25 -18
-3 -14 0 -4 -51 -26 -26 -17
-4 -12 -2 -5 -53 -28 -27 -18
-4 -10 -3 -6 -54 -28 -28 -19
-5 -12 -3 -7 -55 -29 -28 -19
-5 -14 -4 -8 -57 -30 -30 -21
-5 -16 -4 -7 -56 -30 -30 -20
-5 -16 -2 -7 -57 -30 -29 -20
-5 -16 0 -8 -57 -29 -28 -19
-5 -18 0 -8 -57 -28 -27 -18
-6 -18 -2 -9 -58 -29 -27 -18
-6 -18 -3 -10 -59 -30 -28 -19
-5 -18 -3 -10 -59 -30 -28 -19
-5 -19 -3 -11 -60 -31 -29 -20
-6 -19 -3 -13 -60 -32 -29 -21
-6 -19 -2 -12 -61 -33 -30 -21
-6 -16 -3 -12 -62 -34 -31 -20
-6 -15 -4 -13 -63 -34 -31 -21
-6 -17 -3 -13 -62 -33 -31 -21
-6 -18 -3 -13 -62 -33 -31 -21
-5 -17 -4 -14 -63 -34 -32 -22
-5 -15 -4 -14 -64 -35 -31 -21
-5 -17 -4 -14 -64 -35 -32 -21
-5 -18 -4 -13 -64 -35 -31 -21
-6 -19 -4 -14 -64 -36 -32 -22
-6 -19 -5 -16 -65 -36 -33 -24
-5 -20 -5 -15 -65 -36 -32 -23
-6 -21 -4 -15 -64 -36 -31 -22
-6 -20 -5 -17 -64 -36 -32 -23
-7 -19 -5 -17 -64 -36 -32 -22
-6 -18 -5 -17 -65 -37 -32 -22
-6 -18 -5 -17 -64 -38 -31 -22
-6 -19 -4 -17 -64 -40 -32 -23
-7 -21 -4 -16 -64 -41 -31 -22
-6 -23 -3 -16 -62 -41 -31 -22
-6 -24 -3 -16 -62 -41 -32 -22
-6 -24 -4 -16 -63 -43 -32 -23
-7 -23 -5 -17 -63 -43 -32 -23
-6 -21 -5 -18 -63 -44 -33 -23
-6 -19 -6 -19 -63 -45 -34 -24
-6 -20 -5 -18 -62 -44 -33 -22
-6 -22 -5 -18 -63 -45 -33 -23
-7 -23 -4 -17 -62 -44 -33 -22
-7 -24 -5 -17 -62 -44 -33 -22
-6 -24 -5 -17 -61 -44 -33 -22
-5 -23 -5 -18 -61 -45 -34 -23
-6 -22 -5 -18 -62 -45 -35 -23
-6 -22 -5 -19 -62 -45 -35 -24
-6 -22 -5 -19 -61 -46 -35 -24
-6 -23 -5 -18 -60 -45 -34 -23
-6 -24 -5 -19 -61 -46 -34 -23
-6 -22 -5 -20 -62 -47 -35 -24
-5 -21 -5 -19 -61 -47 -35 -25
-5 -22 -5 -19 -61 -47 -35 -25
-5 -23 -5 -20 -61 -47 -36 -26
-6 -24 -4 -20 -60 -47 -35 -25
-7 -25 -4 -19 -59 -47 -35 -25
-7 -25 -4 -19 -59 -47 -35 -24
-6 -23 -5 -20 -60 -47 -35 -24
-7 -22 -5 -21 -60 -47 -34 -24
-7 -24 -5 -21 -61 -47 -34 -25
-7 -23 -5 -21 -60 -48 -34 -25
-7 -22 -5 -20 -59 -47 -34 -24
-7 -22 -6 -20 -59 -47 -35 -24
-7 -24 -6 -20 -60 -48 -35 -25
-7 -24 -5 -20 -60 -48 -35 -25
-7 -24 -4 -21 -60 -48 -35 -25
-7 -25 -3 -20 -59 -47 -34 -24
-6 -25 -4 -22 -60 -48 -34 -24
-4 -23 -4 -22 -60 -49 -35 -25
-5 -24 -3 -21 -59 -48 -34 -24
-7 -25 -4 -21 -59 -47 -34 -24
-7 -25 -4 -22 -59 -48 -34 -24
-6 -27 -4 -22 -59 -49 -35 -24
-6 -27 -4 -22 -59 -49 -35 -25
-6 -27 -4 -22 -59 -49 -35 -25
-6 -27 -3 -22 -59 -49 -35 -25
-6 -27 -4 -21 -59 -49 -35 -24
-6 -26 -4 -21 -59 -49 -35 -24
-7 -22 -5 -23 -60 -50 -36 -25
-7 -24 -5 -23 -61 -50 -36 -25
-7 -26 -4 -22 -60 -50 -36 -24
-7 -26 -4 -22 -60 -50 -35 -25
-7 -25 -4 -22 -60 -50 -35 -25
-6 -26 -4 -22 -59 -50 -34 -25
-6 -24 -5 -23 -60 -51 -35 -26
-6 -24 -5 -23 -59 -50 -35 -26
-6 -26 -5 -22 -58 -49 -33 -24
-6 -27 -5 -23 -59 -49 -33 -24
-7 -26 -5 -23 -59 -49 -33 -24
-7 -26 -4 -23 -59 -49 -33 -24
-5 -27 -3 -23 -59 -49 -33 -25
-6 -27 -3 -22 -59 -50 -34 -25
-7 -27 -4 -22 -59 -51 -34 -26
-7 -27 -4 -22 -59 -51 -35 -26
-6 -27 -4 -22 -58 -51 -35 -25
-7 -27 -3 -23 -58 -51 -35 -26
-7 -27 -4 -24 -58 -51 -35 -26
-7 -26 -4 -23 -57 -51 -35 -26
-5 -27 -3 -22 -57 -49 -33 -24
-5 -27 -2 -21 -56 -48 -32 -23
-5 -25 -3 -22 -56 -49 -33 -24
-5 -23 -3 -22 -56 -50 -33 -24
-3 -23 0 -19 -54 -48 -32 -22
-2 -24 3 -17 -51 -46 -30 -20
-2 -22 3 -17 -50 -46 -30 -20
-2 -19 4 -16 -49 -46 -30 -20
-2 -17 4 -15 -48 -45 -29 -20
-2 -15 5 -14 -47 -44 -28 -18
-2 -12 4 -14 -47 -44 -28 -18
-2 -10 4 -14 -47 -45 -29 -19
-2 -8 4 -15 -48 -45 -30 -20
-2 -8 5 -14 -47 -45 -29 -20
-2 -9 7 -12 -45 -43 -28 -18
0 -7 8 -12 -44 -43 -28 -18
0 -6 8 -11 -43 -43 -28 -19
1 -8 9 -10 -39 -41 -27 -18
1 -10 7 -12 -40 -43 -28 -19
1 -12 6 -12 -41 -44 -29 -19
2 -11 4 -14 -44 -45 -30 -20
3 -10 3 -14 -44 -44 -28 -19
4 -10 0 -15 -44 -44 -27 -18
4 -11 -2 -14 -41 -40 -25 -16
4 -11 -3 -15 -41 -40 -24 -14
4 -10 -4 -17 -41 -40 -25 -15
4 -10 -5 -18 -41 -40 -24 -14
4 -13 -4 -18 -40 -39 -23 -13
5 -15 -4 -18 -40 -39 -23 -12
4 -14 -4 -18 -40 -39 -23 -12
4 -13 -4 -18 -41 -40 -24 -14
4 -13 -3 -17 -40 -39 -23 -13
5 -13 -2 -15 -39 -37 -22 -12
5 -13 -3 -17 -39 -38 -22 -12
5 -13 -5 -20 -41 -40 -22 -13
5 -13 -6 -22 -43 -41 -22 -13
5 -13 -6 -23 -44 -43 -23 -12
4 -14 -6 -23 -44 -43 -23 -11
4 -17 -6 -23 -45 -44 -23 -12
4 -19 -5 -22 -45 -44 -22 -11
4 -18 -3 -21 -43 -41 -20 -9
4 -15 -3 -22 -41 -41 -20 -9
3 -15 -4 -23 -44 -44 -22 -12
2 -18 -3 -23 -44 -45 -23 -14
1 -20 -3 -23 -45 -46 -24 -16
1 -23 -4 -24 -47 -48 -26 -17
0 -26 -4 -24 -48 -50 -27 -18
-2 -27 -4 -25 -49 -50 -28 -19
-4 -26 -4 -26 -50 -52 -30 -21
-5 -26 -5 -28 -52 -54 -33 -24
-6 -27 -4 -28 -52 -55 -34 -24
-6 -27 -4 -28 -53 -55 -34 -25
-6 -28 -3 -28 -53 -56 -33 -25
-7 -30 -3 -27 -53 -55 -33 -24
-7 -31 -3 -26 -53 -56 -33 -26
-6 -33 -3 -25 -53 -56 -33 -25
-6 -34 0 -24 -51 -55 -32 -24
-6 -32 -2 -24 -52 -56 -32 -24
-6 -30 -2 -25 -52 -56 -31 -25
-6 -31 -3 -25 -52 -56 -29 -25
-7 -31 -4 -25 -51 -57 -27 -25
-6 -30 -2 -24 -50 -56 -25 -24
-5 -29 -2 -25 -51 -57 -25 -25
-6 -30 -2 -24 -51 -56 -25 -25
-6 -32 -2 -24 -51 -57 -25 -26
-6 -32 -2 -23 -50 -57 -25 -26
-6 -31 0 -22 -50 -57 -25 -25
-6 -30 1 -22 -49 -56 -24 -24
-7 -31 1 -22 -49 -56 -24 -24
-7 -31 1 -22 -49 -56 -23 -24
-7 -30 0 -22 -49 -56 -23 -25
-7 -28 0 -23 -49 -57 -23 -25
-7 -29 0 -23 -49 -57 -23 -25
-7 -32 1 -21 -48 -57 -24 -25
-8 -36 5 -15 -45 -55 -23 -25
-9 -38 9 -8 -41 -58 -27 -30
-10 -40 15 2 -40 -64 -33 -36
-9 -45 22 12 -37 -69 -39 -41
-7 -45 26 23 -33 -72 -43 -45
-5 -41 29 37 -20 -64 -38 -41
1 -35 30 49 0 -48 -26 -30
7 -23 25 53 22 -19 -3 -14
14 -2 15 50 51 24 30 11
24 25 4 35 84 78 71 40
34 54 -8 4 112 138 116 74
43 84 -20 -31 136 201 167 112
52 118 -28 -49 170 274 224 155
62 156 -36 -56 215 353 282 198
69 193 -41 -72 258 429 338 240
71 227 -51 -112 285 490 382 273
67 256 -66 -174 294 531 407 296
59 276 -86 -245 284 547 415 306
45 281 -98 -297 266 543 408 303
26 267 -92 -313 243 518 381 282
7 233 -76 -308 217 478 338 246
-5 191 -64 -306 176 425 290 209
-11 156 -67 -316 111 348 235 167
-20 129 -72 -327 27 242 165 119
-32 98 -63 -323 -63 112 81 63
-45 67 -40 -304 -142 -23 0 9
-53 37 -15 -276 -196 -127 -57 -29
-57 13 0 -246 -212 -161 -77 -49
-57 -5 3 -222 -196 -145 -75 -56
-55 -14 -4 -204 -177 -128 -74 -60
-50 -20 -11 -186 -163 -123 -73 -61
-45 -25 -17 -163 -146 -114 -68 -58
-39 -27 -23 -141 -129 -103 -63 -54
-33 -27 -25 -120 -114 -95 -58 -51
-27 -25 -25 -99 -99 -88 -52 -46
-21 -25 -24 -78 -83 -78 -46 -40
-16 -25 -23 -63 -72 -74 -43 -38
-12 -22 -22 -51 -62 -71 -39 -36
-9 -19 -17 -36 -52 -64 -35 -33
-8 -20 -10 -23 -39 -57 -29 -29
-8 -20 -4 -13 -31 -52 -26 -27
-8 -17 0 -7 -26 -50 -24 -26
-7 -16 2 -2 -20 -46 -21 -24
-7 -17 5 4 -15 -43 -18 -22
-7 -18 6 9 -11 -39 -17 -21
-7 -19 8 13 -8 -37 -16 -20
-6 -19 8 16 -8 -37 -17 -21
-5 -17 9 18 -6 -37 -18 -21
-4 -16 10 22 -4 -35 -16 -20
-3 -18 12 24 0 -34 -14 -19
-2 -18 12 26 2 -33 -13 -18
-3 -17 12 27 3 -31 -12 -17
-4 -17 12 29 5 -29 -11 -16
-4 -17 13 31 6 -28 -9 -15
-3 -16 13 32 6 -28 -10 -15
-3 -17 13 34 7 -27 -9 -14
-3 -19 13 34 7 -27 -10 -16
-3 -19 13 34 8 -27 -10 -17
-2 -18 14 34 9 -26 -10 -16
-2 -18 15 36 10 -25 -9 -14
0 -17 16 37 12 -24 -7 -14
1 -16 16 37 13 -23 -7 -14
0 -17 17 38 15 -22 -5 -12
0 -17 16 39 15 -21 -5 -12
-2 -16 16 39 15 -21 -6 -12
-2 -14 15 39 15 -22 -7 -13
-2 -13 15 40 15 -22 -7 -13
1 -13 15 40 17 -22 -7 -13
1 -14 16 44 20 -21 -5 -11
0 -14 17 45 21 -20 -5 -11
0 -14 18 46 23 -20 -4 -10
0 -15 18 47 26 -18 -3 -8
1 -15 19 49 28 -16 0 -8
1 -12 18 50 28 -15 0 -9
1 -10 17 50 29 -14 0 -9
1 -11 18 52 31 -12 1 -7
0 -12 18 52 32 -13 1 -8
0 -13 19 53 35 -13 1 -8
2 -12 20 55 36 -12 2 -8
3 -11 20 56 38 -11 2 -8
3 -10 20 57 40 -10 4 -7
3 -8 20 57 42 -9 4 -6
3 -7 20 59 44 -6 6 -5
3 -7 21 61 46 -5 7 -3
4 -7 19 62 47 -4 7 -3
4 -7 19 64 49 -3 8 -3
4 -8 21 66 51 0 9 -2
5 -8 20 67 53 0 10 -3
5 -8 21 68 55 2 11 -2
5 -8 21 70 57 3 13 -2
5 -7 22 71 59 5 15 1
6 -4 22 73 60 7 16 1
7 -2 21 74 61 8 17 2
7 -2 21 76 63 10 19 3
6 1 20 76 64 11 18 3
6 2 20 78 66 12 19 4
7 -2 21 80 69 14 20 5
7 -4 21 81 71 15 20 5
7 -2 21 84 74 17 22 7
9 3 20 84 75 18 23 6
10 4 20 85 78 20 24 7
9 5 21 88 81 23 26 9
9 5 21 90 84 26 28 11
9 6 21 92 87 29 30 12
9 7 20 93 89 30 31 12
10 9 19 95 91 31 31 12
11 12 19 96 94 32 31 12
12 13 19 98 97 34 32 13
12 12 21 102 102 40 35 16
12 12 22 104 106 45 37 18
13 14 22 106 109 47 39 20
14 16 21 107 113 51 43 21
15 17 21 110 116 55 45 23
16 19 21 112 119 58 48 25
16 21 20 114 122 61 50 27
17 23 20 116 127 64 51 28
17 24 20 118 131 68 54 30
18 25 20 120 135 70 56 30
19 26 21 123 140 75 59 33
20 26 21 126 144 80 61 35
21 29 21 128 148 86 64 38
21 32 21 130 151 90 68 42
21 34 21 132 154 94 71 44
22 37 21 134 158 99 75 47
23 39 20 135 163 104 78 49
24 42 20 137 167 108 81 52
24 43 20 138 170 112 84 54
25 45 19 139 172 115 86 54
26 48 17 138 175 119 88 55
27 51 18 139 179 126 93 59
29 53 18 140 182 131 97 62
29 55 18 140 185 136 100 65
30 57 17 140 187 140 102 67
30 60 17 141 189 143 105 69
30 64 17 140 190 147 107 71
31 65 16 139 192 149 109 73
32 65 15 138 194 152 112 76
32 65 15 137 196 156 115 78
33 67 14 137 196 160 117 79
34 69 14 136 197 163 120 81
35 72 12 134 196 164 121 81
35 74 12 132 196 167 123 85
34 74 12 131 196 169 126 87
34 73 12 129 195 171 127 89
35 75 11 127 193 171 127 89
35 76 11 126 192 171 128 90
35 76 11 122 189 169 127 89
35 75 10 117 186 167 126 87
34 73 11 115 183 165 126 86
33 72 12 113 179 164 125 86
32 71 12 109 175 161 123 85
31 69 12 106 170 158 121 85
30 68 11 101 162 153 118 82
29 68 12 97 155 147 114 79
28 67 11 93 146 139 108 74
26 64 12 89 139 132 102 70
24 58 13 86 133 126 98 67
23 52 14 81 125 117 92 63
22 49 14 76 116 109 87 59
21 47 14 72 108 100 80 54
19 44 15 68 102 93 75 51
17 39 15 64 95 86 71 47
15 34 16 60 87 78 67 44
13 32 15 56 79 71 61 39
12 29 14 51 71 63 54 35
10 26 14 47 64 56 49 31
9 21 15 43 58 49 44 27
8 18 14 38 51 40 36 21
7 16 14 34 44 34 32 17
5 12 14 31 38 28 28 14
3 5 14 28 33 23 23 11
2 1 15 25 30 18 19 9
2 3 13 21 24 12 14 6
2 4 13 19 20 7 12 4
1 0 13 18 16 3 10 2
0 -5 13 17 13 0 6 -3
0 -7 12 15 10 -6 1 -6
0 -9 12 13 6 -10 -3 -9
-2 -11 12 11 3 -13 -5 -10
-4 -13 13 11 2 -14 -6 -11
-5 -14 11 9 -3 -16 -9 -13
