I II V1 V2 V3 V4 V5 V6
3 -11 13 20 0 -3 -20 -14
3 -11 13 21 0 -3 -20 -14
3 -11 13 23 1 -2 -19 -13
3 -11 13 24 1 -2 -19 -13
3 -11 13 26 2 0 -18 -12
3 -11 13 27 2 0 -18 -12
5 -11 12 28 3 1 -17 -11
6 -10 10 27 3 1 -16 -11
7 -9 8 26 2 1 -16 -11
8 -8 6 25 2 1 -15 -11
9 -7 5 25 2 1 -15 -11
10 -6 4 24 2 0 -14 -10
10 -6 5 25 3 1 -13 -10
10 -6 6 25 4 1 -13 -9
10 -6 7 26 5 2 -12 -9
10 -6 8 26 6 2 -12 -9
10 -6 9 27 7 3 -11 -8
11 -6 8 28 8 4 -10 -7
12 -6 7 29 9 5 -9 -6
13 -6 6 30 10 6 -8 -5
13 -6 5 31 10 6 -8 -4
15 -5 4 32 11 7 -7 -3
16 -4 3 32 10 7 -7 -3
17 -3 3 32 10 7 -7 -3
18 -2 2 32 9 7 -7 -3
19 0 2 32 9 7 -7 -3
20 1 1 31 8 6 -6 -2
21 2 1 31 9 7 -5 -2
21 3 0 32 10 8 -5 0
22 4 0 32 11 9 -4 0
22 4 0 32 11 9 -4 0
23 5 -2 33 12 10 -3 1
23 5 -3 33 12 10 -2 2
23 5 -4 33 11 10 0 3
23 5 -5 33 11 10 1 4
23 5 -6 33 11 10 1 5
25 5 -8 32 10 9 2 6
26 6 -9 31 10 9 3 7
27 7 -10 30 10 9 3 8
28 8 -11 29 10 9 4 9
29 9 -12 28 10 9 4 9
30 11 -13 27 10 9 5 10
30 12 -13 27 10 10 6 11
30 13 -13 27 9 10 6 11
30 14 -13 27 9 11 7 12
30 15 -13 27 9 11 7 12
30 16 -14 27 8 12 8 13
30 16 -13 26 8 12 9 14
30 17 -12 25 8 12 9 14
30 17 -11 24 8 12 10 15
30 17 -11 24 8 12 10 15
31 18 -10 23 7 11 11 16
30 18 -10 22 6 10 11 16
29 18 -10 21 5 10 10 16
28 18 -10 20 4 9 10 16
28 18 -10 20 3 9 10 16
27 18 -10 19 2 8 9 15
27 18 -10 19 2 8 9 15
27 18 -10 18 2 8 10 15
27 18 -10 18 2 8 10 15
27 18 -10 18 2 8 10 15
25 18 -11 16 2 9 11 16
23 16 -10 15 1 8 10 15
22 15 -10 14 0 7 9 14
20 13 -9 13 -2 6 8 13
19 12 -9 12 -2 6 7 12
18 11 -7 10 -3 5 6 11
17 10 -6 9 -3 5 5 10
17 9 -4 8 -4 5 5 10
16 8 -3 7 -4 5 4 9
16 8 -2 6 -4 5 4 9
13 6 0 5 -6 4 2 7
11 5 0 4 -8 3 0 6
9 4 1 3 -9 2 -3 4
7 3 1 2 -11 1 -5 3
5 2 1 2 -12 0 -6 2
4 1 3 1 -13 -2 -7 1
3 1 4 0 -13 -2 -7 0
2 0 6 -2 -13 -2 -8 -2
1 0 7 -3 -13 -2 -8 -3
0 0 8 -3 -13 -2 -8 -4
-2 -3 9 -4 -14 -3 -9 -5
-3 -4 9 -5 -15 -4 -10 -5
-4 -5 9 -6 -16 -5 -11 -6
-5 -6 9 -7 -17 -6 -12 -6
-6 -7 9 -8 -18 -7 -13 -6
-7 -8 9 -9 -19 -8 -14 -7
-7 -8 9 -9 -19 -8 -14 -7
-7 -9 9 -10 -19 -9 -15 -8
-7 -9 9 -10 -19 -9 -15 -8
-7 -9 9 -10 -19 -9 -15 -8
-8 -10 10 -11 -20 -10 -16 -9
-8 -10 11 -11 -20 -10 -16 -9
-9 -10 11 -11 -20 -10 -16 -9
-9 -10 12 -11 -20 -10 -16 -9
-9 -10 12 -11 -20 -10 -16 -9
-10 -11 13 -11 -21 -10 -15 -10
-10 -12 13 -11 -21 -10 -15 -11
-11 -12 14 -11 -20 -10 -15 -11
-11 -13 14 -11 -20 -10 -15 -12
-11 -13 14 -11 -20 -10 -15 -12
-12 -14 15 -11 -19 -9 -16 -13
-12 -14 15 -11 -19 -10 -16 -13
-13 -13 15 -11 -20 -10 -16 -13
-13 -13 15 -11 -20 -11 -16 -13
-13 -13 15 -11 -20 -11 -16 -13
-14 -12 14 -12 -21 -12 -17 -13
-14 -11 14 -12 -21 -12 -17 -13
-14 -11 14 -12 -21 -11 -17 -13
-14 -10 14 -12 -21 -11 -17 -13
-14 -10 14 -12 -21 -11 -17 -13
-14 -9 13 -12 -20 -10 -17 -13
-14 -10 14 -12 -20 -10 -17 -13
-14 -11 15 -12 -20 -10 -17 -12
-14 -12 16 -12 -20 -10 -17 -12
-14 -13 17 -12 -20 -10 -17 -12
-14 -14 17 -11 -19 -11 -16 -11
-14 -13 16 -11 -19 -10 -16 -11
-14 -13 15 -11 -18 -9 -15 -11
-14 -12 14 -11 -18 -8 -15 -11
-14 -12 13 -11 -18 -8 -15 -11
-13 -11 12 -12 -17 -7 -14 -10
-14 -11 12 -12 -18 -8 -15 -10
-14 -11 12 -13 -19 -9 -15 -11
-15 -11 12 -13 -20 -10 -16 -11
-15 -11 12 -13 -20 -11 -16 -11
-16 -11 12 -14 -21 -12 -17 -12
-16 -11 13 -13 -20 -11 -16 -11
-16 -12 15 -13 -20 -10 -16 -11
-16 -12 16 -12 -19 -9 -15 -10
-16 -12 17 -12 -19 -9 -15 -10
-15 -13 18 -11 -18 -8 -14 -9
-15 -13 17 -11 -18 -8 -14 -9
-15 -14 17 -11 -19 -8 -14 -9
-15 -14 16 -11 -19 -8 -14 -9
-15 -14 16 -11 -19 -8 -14 -9
-16 -15 15 -11 -20 -9 -13 -10
-16 -15 15 -11 -20 -9 -13 -10
-16 -14 15 -11 -20 -9 -13 -11
-16 -14 15 -11 -20 -9 -13 -11
-16 -14 15 -11 -20 -9 -13 -11
-15 -13 14 -12 -19 -9 -14 -12
-15 -13 14 -12 -19 -9 -14 -12
-15 -13 14 -13 -19 -9 -14 -12
-15 -13 14 -13 -19 -9 -14 -12
-15 -13 14 -13 -19 -9 -14 -12
-15 -14 13 -14 -20 -10 -14 -12
-15 -14 13 -14 -20 -10 -14 -12
-15 -14 13 -15 -21 -11 -14 -12
-15 -14 13 -15 -21 -11 -14 -12
-15 -14 13 -15 -21 -11 -14 -12
-15 -15 12 -16 -22 -12 -14 -12
-16 -15 12 -16 -22 -12 -14 -11
-17 -16 12 -16 -22 -12 -14 -11
-18 -16 12 -16 -22 -12 -14 -10
-18 -16 12 -16 -22 -12 -14 -10
-19 -17 12 -17 -22 -12 -13 -9
-19 -17 12 -17 -22 -12 -13 -9
-18 -18 12 -17 -22 -12 -13 -10
-18 -18 12 -17 -22 -12 -13 -10
-18 -18 12 -17 -22 -12 -13 -10
-17 -19 13 -17 -22 -13 -14 -11
-17 -18 13 -17 -22 -13 -15 -12
-17 -17 12 -17 -23 -14 -15 -12
-17 -16 12 -17 -23 -14 -16 -13
-17 -16 12 -17 -23 -14 -16 -13
-16 -15 11 -17 -24 -15 -17 -14
-16 -15 11 -17 -24 -15 -17 -14
-17 -15 10 -18 -24 -16 -17 -15
-17 -15 10 -18 -24 -16 -17 -15
-17 -15 10 -18 -24 -16 -17 -15
-18 -16 9 -19 -24 -17 -18 -16
-18 -16 10 -19 -24 -17 -18 -16
-19 -16 11 -19 -24 -16 -18 -15
-19 -16 12 -19 -24 -16 -18 -15
-19 -16 12 -19 -24 -16 -18 -15
-20 -17 13 -19 -24 -15 -18 -14
-20 -17 13 -19 -24 -15 -18 -14
-20 -17 13 -19 -23 -14 -17 -13
-20 -17 13 -19 -23 -14 -17 -13
-20 -17 13 -19 -23 -14 -17 -13
-19 -18 12 -18 -22 -13 -16 -12
-19 -18 12 -18 -22 -14 -16 -12
-19 -18 11 -18 -22 -14 -16 -13
-19 -18 11 -18 -22 -15 -16 -13
-19 -18 11 -18 -22 -15 -16 -13
-19 -19 10 -19 -23 -16 -16 -14
-19 -19 10 -19 -23 -16 -16 -14
-19 -19 10 -19 -23 -16 -16 -14
-19 -19 10 -19 -23 -16 -16 -14
-19 -19 10 -19 -23 -16 -16 -14
-18 -19 11 -19 -22 -15 -16 -13
-18 -18 12 -18 -21 -14 -15 -13
-17 -17 13 -17 -20 -13 -13 -12
-17 -16 14 -16 -18 -12 -11 -12
-17 -15 15 -15 -17 -11 -10 -12
-15 -13 16 -13 -15 -9 -9 -11
-14 -12 17 -10 -14 -8 -8 -10
-13 -11 18 -8 -12 -7 -7 -9
-12 -9 19 -6 -10 -5 -6 -8
-11 -8 20 -4 -9 -4 -6 -8
-10 -7 21 -3 -8 -3 -5 -7
-10 -7 21 -3 -8 -3 -5 -6
-10 -7 21 -2 -8 -3 -4 -6
-10 -7 21 -2 -8 -3 -4 -5
-10 -7 21 -2 -8 -3 -4 -5
-8 -7 20 0 -7 -3 -3 -4
-7 -8 19 1 -6 -3 -3 -4
-6 -9 18 1 -6 -3 -3 -4
-5 -10 17 2 -5 -3 -3 -4
-4 -11 17 2 -5 -3 -3 -4
-3 -12 14 1 -5 -3 -4 -5
-3 -10 11 -2 -8 -4 -5 -5
-3 -9 7 -5 -10 -6 -6 -5
-3 -8 4 -7 -12 -8 -7 -5
-3 -7 1 -10 -14 -9 -7 -5
-2 -7 0 -12 -16 -11 -8 -5
-3 -8 0 -14 -17 -12 -10 -7
-4 -10 0 -16 -18 -13 -11 -8
-5 -12 0 -17 -20 -15 -12 -9
-6 -13 0 -19 -21 -16 -13 -10
-7 -14 -2 -20 -22 -17 -14 -11
-7 -15 -2 -20 -22 -17 -14 -11
-7 -15 0 -20 -22 -17 -14 -12
-7 -16 0 -20 -22 -17 -14 -12
-7 -16 0 -20 -22 -17 -14 -12
-8 -17 1 -20 -22 -18 -14 -13
-10 -17 1 -19 -21 -18 -14 -13
-11 -17 2 -19 -21 -18 -14 -13
-12 -17 2 -18 -20 -18 -14 -13
-13 -17 2 -18 -20 -18 -14 -13
-15 -17 3 -17 -19 -18 -14 -13
-16 -18 3 -17 -20 -18 -14 -14
-18 -19 3 -17 -20 -18 -15 -14
-20 -20 3 -17 -21 -18 -15 -15
-21 -20 3 -17 -21 -18 -15 -15
-22 -21 4 -18 -22 -17 -16 -16
-22 -21 4 -18 -23 -19 -17 -17
-22 -21 4 -19 -23 -20 -18 -17
-22 -21 4 -19 -24 -21 -19 -18
-22 -21 4 -19 -24 -22 -19 -18
-21 -20 3 -20 -25 -23 -20 -19
-22 -21 3 -20 -25 -23 -20 -19
-23 -21 3 -20 -25 -23 -21 -19
-24 -22 3 -20 -25 -23 -21 -19
-24 -22 3 -20 -25 -23 -21 -19
-25 -23 2 -21 -24 -23 -22 -20
-25 -23 2 -21 -24 -23 -22 -20
-25 -23 2 -21 -23 -23 -22 -20
-25 -23 2 -21 -23 -23 -22 -20
-25 -23 2 -21 -23 -23 -22 -20
-24 -23 1 -20 -22 -22 -21 -20
-25 -23 3 -20 -22 -22 -21 -20
-25 -23 4 -19 -22 -22 -21 -20
-26 -23 5 -19 -22 -22 -21 -20
-26 -23 6 -19 -22 -22 -21 -20
-27 -22 7 -18 -23 -23 -21 -21
-26 -22 6 -18 -23 -23 -21 -21
-25 -22 6 -18 -22 -22 -21 -20
-24 -22 5 -18 -22 -22 -21 -20
-23 -22 5 -18 -22 -22 -21 -20
-22 -21 4 -18 -21 -21 -21 -19
-22 -21 4 -18 -21 -21 -21 -19
-22 -21 4 -17 -21 -21 -20 -19
-22 -21 4 -17 -21 -21 -20 -19
-22 -21 4 -17 -21 -21 -20 -19
-23 -21 5 -16 -20 -21 -19 -19
-23 -20 5 -16 -20 -20 -19 -19
-23 -19 5 -16 -20 -19 -19 -19
-23 -18 5 -16 -20 -18 -19 -19
-23 -18 5 -16 -20 -18 -19 -19
-24 -21 8 -15 -20 -20 -22 -22
-27 -26 13 -13 -21 -24 -27 -26
-29 -32 18 -10 -22 -28 -32 -31
-32 -38 23 -8 -23 -32 -37 -35
-34 -44 28 -6 -24 -37 -41 -40
-33 -43 30 1 -19 -32 -39 -38
-30 -37 30 7 -11 -25 -33 -34
-27 -32 29 14 -2 -17 -27 -30
-24 -27 29 20 7 -9 -22 -26
-21 -23 29 27 16 0 -16 -21
-3 -8 19 35 34 21 5 -6
20 10 7 44 55 47 29 14
43 27 -6 52 76 71 54 33
65 45 -18 60 98 97 77 52
87 62 -30 68 119 122 102 71
109 88 -52 55 135 152 136 100
132 115 -76 34 148 183 172 131
153 144 -101 14 161 214 207 161
176 173 -126 -7 174 244 243 192
197 200 -150 -27 187 275 279 223
197 221 -161 -48 178 280 292 237
188 238 -170 -69 159 276 296 248
179 256 -178 -90 141 272 300 259
170 273 -185 -110 122 268 304 270
160 290 -193 -132 105 264 308 280
137 271 -188 -146 69 224 275 258
109 237 -178 -158 27 173 231 223
81 204 -168 -171 -15 120 186 189
55 172 -158 -183 -56 69 142 154
27 138 -148 -195 -98 18 97 120
12 113 -135 -192 -110 -6 69 95
2 92 -121 -182 -113 -20 48 73
-10 70 -107 -173 -116 -34 25 51
-21 49 -93 -163 -120 -49 4 29
-32 27 -79 -154 -123 -63 -18 8
-32 20 -66 -133 -110 -60 -22 2
-28 17 -54 -107 -90 -51 -20 0
-23 15 -41 -82 -70 -40 -17 -2
-19 12 -29 -57 -51 -30 -14 -3
-15 10 -17 -32 -30 -21 -11 -4
-13 6 -11 -22 -23 -18 -10 -5
-14 1 -8 -18 -20 -16 -11 -7
-15 -5 -4 -15 -16 -15 -12 -8
-16 -10 0 -11 -13 -14 -12 -9
-17 -15 4 -7 -9 -13 -13 -10
-18 -17 6 -4 -8 -12 -14 -11
-17 -16 7 -3 -7 -12 -15 -12
-16 -15 9 -2 -6 -12 -16 -13
-16 -14 10 1 -5 -12 -17 -14
-15 -13 12 2 -4 -12 -18 -15
-14 -13 13 3 -3 -13 -19 -16
-14 -14 13 4 -2 -13 -19 -16
-15 -16 14 4 0 -12 -19 -15
-15 -17 14 5 0 -12 -19 -15
-15 -19 14 5 1 -12 -19 -15
-16 -20 15 6 2 -11 -18 -14
-15 -20 16 6 2 -11 -18 -15
-14 -19 16 6 2 -12 -18 -15
-14 -19 17 6 2 -12 -18 -16
-13 -19 17 6 2 -12 -18 -16
-12 -18 18 7 2 -13 -19 -17
-12 -19 18 8 4 -12 -19 -17
-12 -19 18 9 5 -11 -19 -17
-12 -20 18 9 6 -11 -19 -17
-12 -20 18 10 7 -10 -19 -17
-13 -21 18 11 8 -9 -18 -16
-13 -20 18 11 8 -8 -18 -16
-12 -20 17 11 8 -8 -17 -16
-12 -19 17 11 8 -7 -17 -16
-12 -19 17 11 8 -7 -17 -16
-11 -18 16 10 9 -6 -16 -16
-11 -18 16 11 9 -6 -16 -16
-11 -18 16 12 10 -6 -17 -17
-11 -18 16 12 10 -6 -17 -17
-11 -18 16 13 10 -6 -17 -17
-11 -17 15 14 11 -7 -18 -18
-11 -17 15 15 12 -6 -17 -18
-10 -17 16 15 12 -5 -16 -18
-10 -17 16 16 13 -4 -16 -18
-10 -17 16 16 13 -3 -15 -18
-9 -17 17 17 14 -2 -14 -17
-8 -18 17 17 16 -2 -14 -16
-8 -18 17 17 17 -2 -14 -15
-7 -19 17 17 18 -2 -14 -15
-7 -19 17 17 19 -2 -14 -14
-6 -20 17 18 20 -3 -14 -13
-6 -20 17 18 20 -2 -13 -13
-5 -20 18 19 20 -2 -13 -13
-5 -20 18 19 20 0 -12 -13
-5 -20 18 19 20 0 -12 -13
-4 -19 19 20 21 1 -11 -12
-4 -18 19 22 22 1 -11 -12
-3 -18 19 23 23 1 -11 -12
-3 -17 19 24 24 1 -11 -12
-3 -17 19 25 25 1 -11 -12
-2 -16 19 26 26 0 -12 -13
-2 -16 18 27 26 -2 -11 -13
0 -15 17 28 26 -3 -10 -12
0 -15 17 28 26 -4 -10 -12
0 -15 16 29 26 -5 -9 -12
1 -14 15 30 27 -6 -8 -11
1 -15 15 31 29 -6 -8 -11
2 -15 16 32 30 -6 -8 -11
2 -16 16 33 31 -6 -8 -11
2 -16 16 34 32 -6 -8 -11
3 -17 17 35 33 -5 -8 -11
4 -15 17 35 33 -5 -7 -10
5 -14 16 35 33 -4 -7 -9
5 -13 16 35 33 -4 -6 -9
6 -12 16 35 33 -4 -6 -8
7 -11 15 36 34 -3 -5 -7
7 -11 15 37 36 -2 -3 -6
8 -11 15 37 37 0 -2 -5
8 -11 15 38 38 0 0 -4
8 -11 15 38 39 1 1 -3
9 -11 16 39 40 2 2 -2
10 -11 14 39 40 2 2 -2
11 -10 13 39 40 2 2 -2
11 -10 12 39 40 2 2 -2
12 -10 11 39 40 2 2 -2
13 -9 10 40 39 1 2 0
15 -7 10 42 40 1 3 1
16 -6 10 43 42 2 4 1
17 -5 10 44 42 2 4 2
18 -4 10 45 43 2 5 2
19 -3 9 46 44 3 6 3
19 -3 8 45 44 3 7 4
20 -3 7 45 43 4 7 5
20 -3 7 44 43 4 8 5
20 -3 6 44 43 4 8 6
21 -4 5 43 42 5 9 7
22 -2 4 42 42 5 10 8
23 0 3 42 42 5 10 9
23 2 3 40 42 5 11 9
24 3 2 40 42 5 11 10
25 4 1 39 42 4 12 11
25 5 0 37 40 3 11 11
25 5 -2 36 38 3 10 11
25 6 -3 34 37 2 10 11
25 6 -4 33 35 2 9 11
25 7 -5 32 34 1 8 11
25 7 -5 32 34 1 9 12
24 7 -5 32 34 1 10 13
24 7 -5 32 34 1 11 14
24 7 -5 32 34 1 12 15
23 8 -5 31 35 0 13 16
23 8 -6 30 35 0 13 16
23 8 -8 29 34 1 14 17
23 8 -9 29 34 2 14 17
23 8 -10 28 34 2 14 17
24 9 -11 27 33 3 15 18
24 9 -11 27 33 3 15 18
23 9 -10 26 34 3 15 18
23 9 -9 25 34 3 15 18
23 9 -9 25 34 3 15 18
22 10 -8 24 35 3 16 18
21 10 -8 23 35 3 16 18
19 10 -7 22 34 3 16 18
18 10 -6 21 33 3 16 18
17 10 -6 20 33 3 16 18
16 10 -5 19 32 3 14 17
16 10 -5 18 32 3 13 15
15 10 -5 17 31 2 11 14
14 10 -5 17 30 2 9 12
14 10 -5 16 30 2 7 11
12 8 -4 15 29 1 6 10
10 7 -3 14 28 0 5 9
8 5 0 12 26 -2 4 7
5 4 1 11 25 -3 4 6
3 2 2 10 24 -4 3 5
2 0 3 9 23 -5 2 4
1 -2 3 9 23 -5 1 3
-2 -4 4 8 22 -5 0 2
-3 -5 5 7 22 -5 0 1
-4 -7 5 7 22 -5 -2 0
-5 -8 6 6 21 -5 -3 -2
-6 -8 6 4 21 -6 -3 -2
-7 -8 6 3 20 -7 -4 -2
-8 -8 6 1 19 -7 -5 -2
-9 -8 6 0 19 -8 -5 -2
-10 -8 6 -2 18 -9 -6 -3
-10 -9 6 -2 17 -9 -7 -4
-11 -10 7 -3 16 -10 -9 -5
-11 -11 7 -3 16 -10 -10 -6
-11 -12 7 -3 15 -10 -11 -7
-12 -13 8 -4 14 -11 -12 -8
-12 -13 8 -4 14 -11 -12 -8
-13 -14 9 -4 14 -11 -12 -8
-13 -15 10 -4 14 -11 -12 -8
-13 -15 10 -4 14 -11 -12 -8
-14 -16 11 -4 13 -11 -11 -8
-14 -16 11 -4 13 -11 -11 -8
-15 -16 10 -4 12 -11 -12 -8
-15 -16 10 -4 12 -11 -12 -8
-15 -16 10 -4 12 -11 -12 -8
-16 -17 9 -5 11 -12 -13 -9
-16 -17 9 -5 11 -12 -13 -9
-16 -16 9 -5 12 -12 -13 -9
-16 -15 9 -5 12 -12 -13 -9
-16 -15 9 -5 12 -12 -13 -9
-15 -14 10 -6 13 -11 -12 -9
-15 -14 10 -6 13 -11 -12 -9
-15 -14 10 -5 14 -11 -13 -10
-15 -14 10 -5 14 -11 -13 -10
-15 -14 10 -5 14 -11 -13 -10
-16 -14 11 -4 15 -10 -14 -11
-16 -14 11 -4 15 -10 -14 -11
-16 -14 11 -5 15 -10 -13 -10
-16 -14 11 -6 15 -10 -13 -9
-16 -14 11 -6 15 -10 -13 -9
-16 -14 11 -7 14 -10 -12 -8
-16 -14 11 -7 14 -10 -12 -8
-15 -14 11 -6 14 -9 -12 -8
-15 -14 11 -6 14 -9 -12 -8
-15 -14 11 -6 14 -9 -12 -8
-14 -15 12 -5 15 -8 -11 -8
-14 -15 12 -6 15 -8 -11 -8
-14 -15 11 -7 14 -9 -11 -8
-14 -15 11 -7 13 -9 -11 -8
-14 -15 11 -8 13 -9 -11 -8
-15 -14 10 -9 12 -10 -12 -8
-15 -14 10 -9 12 -10 -12 -8
-15 -14 10 -8 13 -10 -12 -8
-15 -14 10 -8 14 -10 -12 -8
-15 -14 10 -8 14 -10 -12 -8
-15 -15 11 -7 15 -9 -12 -8
-15 -15 11 -8 15 -9 -12 -8
-15 -14 10 -9 14 -9 -12 -8
-15 -13 10 -10 14 -9 -12 -8
-15 -13 10 -11 14 -9 -12 -8
-14 -12 9 -12 13 -9 -11 -8
-14 -13 9 -12 13 -9 -11 -8
-14 -14 9 -12 12 -9 -11 -9
-14 -14 9 -12 12 -9 -11 -9
-14 -15 9 -12 12 -9 -11 -9
-15 -16 10 -12 11 -10 -12 -10
-15 -16 10 -12 11 -10 -12 -10
-14 -16 11 -13 11 -10 -12 -9
-14 -16 11 -13 11 -10 -12 -8
-14 -16 11 -13 11 -10 -12 -8
-13 -16 12 -14 11 -9 -11 -7
-13 -16 12 -14 11 -9 -11 -7
-14 -17 12 -14 11 -9 -11 -7
-15 -18 12 -14 11 -9 -11 -7
-15 -18 12 -14 11 -9 -11 -7
-16 -19 11 -14 11 -10 -11 -8
-16 -19 11 -15 10 -10 -11 -8
-15 -18 11 -17 9 -10 -11 -8
-15 -17 11 -18 8 -10 -11 -8
-15 -17 11 -19 7 -10 -11 -8
-14 -16 10 -20 6 -10 -12 -9
-15 -16 10 -20 6 -10 -12 -10
-16 -16 9 -20 6 -11 -13 -11
-16 -16 9 -20 6 -12 -14 -11
-17 -16 9 -20 6 -12 -14 -12
-18 -17 8 -19 5 -13 -15 -13
-18 -17 8 -19 5 -13 -15 -13
-18 -18 8 -20 4 -13 -15 -13
-18 -18 8 -21 3 -13 -15 -13
-18 -18 8 -21 3 -13 -15 -13
-18 -19 8 -22 2 -13 -15 -13
-18 -19 8 -22 2 -13 -15 -13
-17 -18 8 -23 1 -14 -16 -13
-16 -17 8 -23 1 -14 -16 -13
-16 -17 8 -23 1 -14 -16 -13
-15 -16 9 -24 0 -15 -17 -13
-15 -16 9 -24 0 -15 -17 -13
-16 -16 9 -24 0 -15 -16 -12
-16 -16 9 -24 0 -15 -16 -12
-16 -16 9 -24 0 -15 -16 -12
-17 -17 10 -23 0 -15 -15 -11
-17 -17 10 -23 0 -15 -15 -11
-17 -17 10 -23 0 -15 -15 -11
-17 -17 10 -23 0 -15 -15 -11
-17 -17 10 -23 0 -15 -15 -11
-17 -18 10 -23 -2 -14 -15 -12
-17 -18 10 -23 -2 -14 -15 -12
-17 -18 10 -23 -2 -14 -15 -12
-17 -18 10 -23 -2 -14 -15 -12
-17 -18 10 -23 -2 -14 -15 -12
-16 -18 10 -24 -2 -13 -14 -12
-16 -18 10 -24 -2 -13 -14 -12
-17 -19 10 -24 -3 -14 -15 -13
-17 -19 10 -24 -3 -15 -16 -14
-17 -19 10 -24 -3 -15 -16 -14
-18 -20 10 -23 -4 -16 -17 -15
-18 -20 10 -22 -4 -15 -17 -14
-17 -19 11 -21 -3 -14 -16 -13
-17 -18 12 -21 -3 -14 -15 -13
-17 -18 12 -20 -3 -13 -15 -12
-16 -17 13 -19 -2 -12 -14 -11
-15 -15 14 -18 0 -10 -13 -11
-13 -13 15 -16 1 -9 -12 -11
-12 -11 15 -15 2 -8 -12 -11
-11 -9 16 -14 3 -6 -11 -11
-10 -8 17 -13 4 -5 -10 -10
-10 -8 19 -13 4 -5 -9 -9
-10 -7 20 -12 5 -4 -8 -8
-10 -7 21 -11 6 -3 -8 -7
-10 -7 23 -11 6 -3 -7 -6
-9 -6 24 -10 7 -2 -6 -5
-8 -7 23 -10 7 -2 -6 -5
-7 -9 21 -10 7 -2 -6 -5
-6 -10 20 -10 7 -2 -6 -5
-5 -11 19 -10 7 -2 -6 -5
-4 -12 18 -9 8 -2 -7 -6
-3 -11 16 -9 8 -2 -7 -6
-2 -9 15 -9 8 -2 -7 -5
-2 -8 14 -9 8 -2 -7 -5
0 -7 12 -9 8 -2 -7 -5
1 -6 10 -10 6 -4 -6 -4
0 -8 8 -13 4 -6 -8 -6
-2 -10 6 -16 1 -8 -9 -7
-3 -11 4 -19 -3 -10 -10 -8
-4 -13 2 -22 -5 -12 -12 -10
-5 -14 1 -24 -7 -13 -13 -11
-6 -16 2 -24 -8 -14 -14 -11
-7 -18 3 -24 -9 -15 -15 -12
-7 -19 4 -24 -9 -15 -15 -13
-8 -21 5 -24 -10 -16 -16 -13
-9 -22 6 -23 -11 -17 -17 -14
-9 -20 6 -23 -11 -17 -17 -14
-8 -19 6 -23 -10 -16 -16 -13
-7 -18 6 -23 -10 -16 -16 -12
-7 -16 6 -23 -10 -16 -16 -12
-6 -15 6 -22 -9 -15 -15 -11
-8 -15 6 -22 -9 -15 -15 -12
-10 -16 6 -22 -10 -15 -16 -13
-12 -16 6 -22 -10 -15 -16 -14
-14 -16 6 -22 -10 -15 -16 -15
-15 -17 7 -21 -11 -16 -17 -16
-16 -18 7 -21 -11 -16 -18 -17
-17 -19 8 -21 -12 -17 -20 -18
-17 -19 8 -21 -13 -18 -21 -18
-18 -20 8 -21 -13 -18 -22 -19
-19 -21 9 -22 -14 -19 -23 -20
-19 -21 9 -22 -14 -19 -23 -20
-20 -21 9 -23 -15 -20 -23 -20
-20 -21 9 -24 -16 -20 -23 -20
-20 -21 9 -24 -16 -20 -23 -20
-21 -22 8 -25 -17 -21 -23 -21
-21 -22 8 -25 -17 -21 -23 -21
-21 -22 8 -24 -17 -21 -23 -22
-21 -22 8 -23 -17 -21 -23 -22
-21 -22 8 -23 -17 -21 -23 -22
-21 -23 9 -22 -18 -22 -22 -23
-21 -23 9 -22 -18 -22 -22 -23
-21 -23 8 -22 -18 -21 -22 -22
-21 -23 8 -22 -18 -21 -22 -21
-21 -23 8 -22 -18 -21 -22 -21
-21 -22 7 -23 -18 -20 -22 -20
-21 -22 7 -22 -18 -20 -22 -20
-21 -22 8 -21 -18 -20 -22 -20
-21 -22 9 -21 -18 -20 -22 -20
-21 -22 9 -20 -18 -20 -22 -20
-22 -23 10 -19 -18 -19 -21 -21
-22 -23 10 -19 -18 -19 -21 -21
-22 -23 10 -19 -18 -19 -21 -21
-21 -23 9 -19 -18 -19 -21 -21
-21 -23 9 -19 -18 -19 -21 -21
-20 -22 8 -20 -19 -20 -22 -21
-20 -22 8 -20 -19 -20 -22 -21
-20 -22 9 -19 -19 -20 -22 -21
-21 -22 10 -18 -19 -19 -22 -21
-21 -22 10 -18 -19 -19 -22 -21
-22 -21 12 -17 -19 -19 -23 -22
-24 -23 14 -17 -20 -21 -25 -25
-25 -25 16 -16 -20 -23 -28 -28
-26 -27 18 -15 -21 -25 -31 -31
-28 -29 20 -15 -22 -27 -33 -34
-29 -30 23 -12 -22 -29 -35 -36
-29 -32 27 -6 -19 -28 -36 -37
-29 -33 31 0 -17 -28 -36 -38
-30 -35 35 6 -14 -27 -37 -40
-30 -37 39 12 -11 -26 -38 -41
-25 -33 40 19 0 -16 -31 -37
-12 -22 34 29 17 4 -15 -24
2 -10 28 39 34 23 3 -12
15 2 22 50 52 43 19 2
29 14 16 59 70 62 36 14
48 31 1 60 89 88 62 34
73 57 -23 49 108 121 96 62
98 82 -48 37 128 154 131 90
123 108 -72 26 147 188 164 117
149 134 -96 15 167 221 199 145
164 159 -118 0 178 246 229 172
171 184 -138 -20 178 263 254 196
177 209 -157 -38 178 279 278 220
183 234 -177 -58 178 296 304 244
188 259 -196 -77 178 312 328 269
183 269 -206 -96 159 303 328 275
161 262 -203 -112 120 264 300 258
140 254 -200 -130 80 224 271 241
118 246 -196 -146 42 185 242 225
98 238 -193 -162 2 145 214 207
75 218 -184 -172 -32 105 179 182
53 181 -166 -172 -59 65 138 147
30 144 -149 -172 -86 25 96 111
8 107 -132 -172 -112 -15 55 76
-15 71 -115 -172 -139 -55 14 40
-27 48 -99 -159 -146 -72 -9 19
-25 39 -83 -135 -126 -64 -11 12
-24 30 -69 -109 -106 -55 -13 6
-23 22 -55 -85 -87 -46 -15 0
-21 14 -39 -60 -67 -36 -17 -7
-20 8 -28 -43 -53 -30 -19 -11
-19 5 -22 -33 -47 -26 -17 -11
-19 2 -15 -25 -39 -23 -16 -11
-18 -3 -8 -16 -33 -19 -15 -12
-17 -6 0 -8 -26 -15 -13 -12
-16 -8 4 -3 -22 -13 -12 -13
-16 -9 6 0 -20 -13 -13 -15
-16 -10 8 1 -19 -12 -13 -16
-16 -11 10 3 -18 -11 -14 -17
-16 -12 12 5 -16 -11 -15 -19
-15 -13 13 6 -15 -10 -16 -20
-15 -14 14 7 -15 -10 -16 -20
-15 -14 15 8 -15 -11 -16 -20
-16 -15 17 9 -15 -12 -16 -21
-16 -16 18 10 -15 -12 -16 -21
-17 -17 19 11 -14 -13 -17 -22
-17 -17 19 11 -13 -13 -17 -22
-17 -18 19 11 -13 -12 -17 -21
-17 -19 20 12 -12 -11 -16 -20
-17 -19 20 12 -11 -11 -16 -20
-18 -20 21 13 -10 -10 -15 -19
-17 -20 21 13 -10 -10 -15 -19
-17 -20 22 13 -10 -10 -15 -20
-16 -20 23 14 -10 -10 -15 -21
-15 -20 23 14 -10 -10 -15 -21
-14 -20 24 15 -11 -11 -15 -22
-14 -20 24 15 -10 -10 -15 -22
-13 -20 24 15 -10 -9 -15 -22
-12 -20 23 15 -9 -8 -15 -22
-12 -20 23 15 -8 -7 -15 -22
-11 -20 22 16 -7 -6 -15 -21
-11 -20 22 16 -7 -6 -15 -21
-11 -20 22 16 -7 -6 -15 -21
-11 -19 22 17 -7 -6 -15 -21
-11 -19 22 17 -7 -6 -15 -21
-12 -18 23 18 -8 -6 -14 -21
-11 -18 23 18 -8 -6 -14 -21
-11 -18 23 18 -7 -5 -14 -21
-10 -18 22 18 -6 -4 -13 -21
-9 -18 22 18 -6 -4 -13 -21
-8 -18 21 19 -5 -3 -12 -20
-8 -18 21 20 -5 -3 -12 -20
-8 -18 21 20 -5 -3 -12 -20
-9 -18 22 21 -5 -2 -12 -20
-9 -18 22 22 -5 -2 -12 -20
-10 -17 23 23 -5 0 -11 -20
-9 -17 23 23 -3 0 -11 -20
-8 -17 23 23 0 0 -10 -19
-6 -17 22 23 2 1 -9 -18
-5 -17 22 23 4 1 -9 -18
-4 -16 21 24 6 2 -8 -17
-4 -16 21 24 7 2 -8 -17
-4 -16 21 25 7 2 -8 -17
-4 -16 21 26 8 2 -8 -17
-4 -16 21 26 9 2 -8 -17
-4 -15 22 27 10 1 -8 -18
-3 -15 22 27 11 2 -7 -18
-2 -15 22 28 11 3 -7 -18
0 -15 22 29 12 4 -6 -17
1 -15 22 29 13 5 -5 -17
2 -15 22 30 14 6 -4 -16
2 -14 22 31 14 6 -4 -16
2 -14 22 31 14 6 -4 -16
2 -13 22 32 14 6 -4 -16
2 -12 22 33 14 6 -4 -16
2 -11 23 34 13 5 -4 -16
2 -11 23 35 15 6 -3 -15
3 -11 23 35 17 7 -2 -14
4 -11 23 36 19 8 0 -13
4 -11 23 37 21 9 1 -12
5 -11 23 38 23 10 2 -11
5 -11 23 38 23 10 2 -11
6 -10 23 39 23 10 2 -11
7 -9 23 40 24 10 2 -11
7 -9 23 40 24 10 2 -11
8 -8 22 42 25 9 2 -11
9 -7 21 42 26 10 3 -11
10 -7 21 42 27 11 4 -11
12 -6 20 43 28 12 5 -10
13 -5 19 43 29 13 6 -10
14 -4 18 44 30 14 7 -9
14 -4 18 44 30 14 7 -8
14 -4 18 44 30 14 7 -8
15 -3 17 44 30 14 8 -7
15 -3 17 44 30 14 8 -6
16 -2 16 44 31 14 9 -5
17 -2 15 44 31 14 9 -4
17 -2 14 44 31 15 10 -4
18 0 12 44 31 16 11 -3
19 0 11 44 31 16 11 -2
20 1 10 43 32 17 12 0
20 2 10 43 32 17 13 1
21 3 10 43 32 17 13 1
22 5 9 42 32 17 14 2
22 6 9 42 32 17 15 3
23 7 8 40 31 16 16 4
23 7 7 39 31 16 16 4
24 7 6 38 31 16 17 5
25 8 5 36 30 16 18 6
25 8 4 35 30 16 18 6
26 9 3 34 29 17 19 7
26 9 3 33 28 17 19 7
26 10 3 33 28 17 19 7
25 11 3 32 27 16 19 8
25 11 3 31 26 16 19 8
24 12 2 30 25 15 20 9
24 12 2 29 25 15 20 10
24 12 1 28 25 15 21 11
25 12 0 27 24 15 22 12
25 12 0 26 24 15 22 13
26 13 -2 25 23 15 23 14
25 13 -2 24 22 15 23 14
25 13 -2 23 21 14 23 14
24 13 -2 22 20 13 23 14
23 13 -2 21 19 13 23 14
22 13 -3 20 18 12 22 13
22 13 -3 18 17 12 22 13
21 13 -3 17 17 12 21 13
20 13 -3 15 16 12 20 12
20 13 -3 14 15 12 20 12
19 13 -3 12 14 12 19 11
18 13 -2 12 14 12 18 10
17 13 0 11 13 12 18 10
15 13 1 10 12 11 17 9
14 13 2 10 12 11 16 8
13 12 3 9 11 10 15 7
12 11 3 8 10 9 14 6
10 9 3 7 9 9 14 5
9 8 3 6 8 8 13 3
7 6 3 5 7 7 12 2
6 5 4 4 6 6 11 1
5 4 5 3 5 5 10 0
4 3 6 1 4 4 10 -2
2 1 7 0 2 3 9 -3
1 0 8 -3 1 2 8 -4
0 -2 9 -4 0 1 7 -5
-3 -3 9 -5 -2 1 6 -6
-4 -3 9 -6 -3 1 4 -6
-6 -4 9 -7 -4 0 3 -7
-7 -5 9 -8 -5 0 1 -8
-9 -6 9 -9 -6 -2 0 -9
-9 -7 9 -9 -7 -3 0 -9
-9 -7 9 -9 -7 -4 -2 -9
-10 -8 9 -10 -8 -5 -3 -10
-10 -9 9 -10 -9 -6 -3 -10
-11 -10 10 -11 -10 -7 -4 -11
-12 -11 10 -12 -10 -7 -4 -11
-13 -11 10 -12 -10 -7 -4 -11
-14 -12 10 -13 -10 -7 -5 -12
-15 -13 10 -14 -10 -7 -5 -12
-16 -14 10 -15 -11 -8 -6 -13
-16 -14 10 -15 -11 -8 -6 -13
-16 -14 10 -15 -11 -8 -6 -14
-16 -14 10 -15 -11 -9 -7 -15
-16 -14 10 -15 -11 -9 -7 -15
-16 -14 11 -14 -12 -10 -8 -16
-16 -14 11 -14 -12 -10 -8 -16
-16 -14 11 -14 -12 -10 -8 -16
-17 -14 11 -14 -11 -9 -8 -15
-17 -14 11 -14 -11 -9 -8 -15
-18 -15 12 -14 -10 -8 -7 -14
-18 -15 12 -14 -10 -8 -7 -14
-18 -15 12 -14 -10 -8 -7 -14
-18 -15 12 -13 -10 -8 -8 -14
-18 -15 12 -13 -10 -8 -8 -14
-18 -14 13 -12 -11 -9 -9 -15
-18 -14 13 -12 -11 -9 -9 -15
-18 -14 13 -12 -11 -9 -9 -15
-18 -14 12 -13 -11 -9 -9 -15
-18 -14 12 -13 -11 -9 -9 -15
-18 -15 11 -14 -11 -9 -8 -14
-18 -15 11 -14 -11 -9 -8 -14
-18 -15 11 -14 -11 -9 -8 -14
-18 -15 10 -14 -11 -9 -8 -14
-18 -15 10 -14 -11 -9 -8 -14
-19 -16 9 -14 -11 -9 -7 -13
-19 -16 9 -14 -11 -9 -7 -13
-19 -16 9 -14 -11 -9 -7 -13
-18 -16 8 -14 -11 -8 -7 -13
-18 -16 8 -14 -11 -8 -7 -13
-17 -16 7 -14 -10 -7 -7 -13
-17 -16 7 -14 -10 -7 -7 -13
-17 -16 7 -14 -10 -7 -7 -13
-17 -16 7 -13 -11 -8 -7 -13
-17 -16 7 -13 -11 -8 -7 -13
-17 -16 8 -12 -12 -9 -7 -14
-17 -16 8 -12 -12 -9 -7 -14
-17 -16 7 -13 -12 -9 -7 -14
-17 -16 7 -13 -12 -9 -7 -14
-17 -16 6 -14 -12 -9 -7 -14
-18 -16 5 -15 -12 -8 -8 -13
-18 -16 5 -15 -12 -8 -8 -13
-18 -16 5 -15 -12 -8 -8 -13
-18 -16 6 -15 -12 -8 -8 -13
-18 -16 6 -15 -12 -8 -8 -13
-17 -17 7 -15 -13 -9 -8 -14
-17 -17 7 -15 -13 -9 -8 -14
-17 -17 6 -15 -13 -9 -8 -14
-17 -17 6 -15 -13 -9 -8 -14
-17 -17 5 -15 -13 -9 -8 -14
-18 -17 4 -16 -13 -10 -8 -14
-18 -17 4 -16 -13 -10 -8 -14
-18 -17 4 -16 -13 -10 -8 -14
-18 -17 4 -17 -13 -10 -8 -14
-18 -17 4 -17 -13 -10 -8 -14
-18 -17 4 -18 -14 -10 -9 -14
-18 -17 4 -18 -14 -10 -9 -14
-18 -17 4 -18 -14 -10 -9 -14
-18 -17 4 -18 -14 -10 -9 -14
-18 -17 4 -18 -14 -10 -9 -14
-18 -17 3 -19 -15 -10 -8 -14
-18 -17 3 -19 -15 -11 -8 -14
-18 -17 3 -19 -16 -11 -9 -14
-18 -18 3 -20 -16 -12 -9 -14
-18 -18 3 -20 -17 -13 -10 -14
-19 -19 4 -21 -18 -14 -11 -14
-19 -19 4 -21 -18 -14 -11 -14
-19 -19 4 -21 -18 -14 -11 -14
-19 -19 3 -22 -18 -14 -11 -14
-19 -19 3 -22 -18 -14 -11 -14
-18 -18 2 -23 -17 -13 -11 -15
-18 -18 2 -23 -17 -13 -11 -15
-18 -18 2 -23 -18 -13 -11 -15
-18 -18 2 -23 -18 -14 -11 -15
-18 -18 2 -23 -19 -14 -11 -15
-18 -18 2 -23 -20 -15 -12 -16
-18 -18 2 -23 -20 -15 -12 -16
-18 -18 2 -23 -20 -15 -12 -16
-18 -18 2 -23 -20 -15 -12 -16
-18 -18 2 -23 -20 -15 -12 -16
-19 -19 1 -24 -21 -15 -11 -15
-19 -19 1 -24 -21 -15 -11 -15
-19 -19 1 -24 -21 -16 -11 -15
-19 -19 1 -24 -21 -16 -12 -15
-19 -19 1 -24 -21 -17 -12 -15
-19 -19 1 -24 -22 -18 -13 -16
-19 -19 1 -24 -22 -18 -13 -16
-19 -19 1 -24 -22 -18 -13 -16
-19 -19 1 -24 -22 -17 -13 -16
-19 -19 1 -24 -22 -17 -13 -16
-20 -19 2 -23 -21 -16 -12 -16
-20 -19 2 -23 -21 -16 -12 -16
-20 -19 2 -23 -21 -16 -12 -16
-20 -19 2 -23 -22 -16 -13 -16
-20 -19 2 -23 -22 -16 -13 -16
-19 -18 2 -23 -23 -16 -14 -16
-19 -18 2 -23 -23 -16 -14 -16
-19 -18 2 -23 -22 -16 -14 -16
-19 -18 2 -22 -22 -16 -13 -16
-19 -18 2 -22 -21 -16 -13 -16
-19 -19 2 -21 -20 -15 -12 -15
-18 -18 2 -21 -20 -15 -12 -15
-18 -18 2 -21 -20 -15 -12 -15
-17 -17 2 -21 -20 -15 -12 -15
-16 -16 2 -21 -20 -15 -12 -15
-15 -15 2 -22 -21 -16 -12 -15
-14 -14 3 -19 -19 -14 -11 -14
-13 -12 5 -17 -17 -12 -9 -12
-12 -11 6 -15 -14 -10 -8 -11
-11 -10 7 -12 -12 -8 -7 -10
-10 -8 9 -10 -10 -6 -5 -8
-10 -8 10 -9 -9 -6 -5 -8
-10 -8 11 -8 -9 -5 -5 -8
-9 -7 12 -7 -8 -5 -5 -8
-9 -7 13 -6 -7 -4 -5 -8
-8 -6 14 -5 -6 -3 -4 -7
-7 -6 14 -5 -6 -3 -4 -7
-6 -7 13 -4 -5 -2 -4 -7
-5 -7 12 -4 -5 -2 -3 -6
-3 -8 11 -3 -4 0 -3 -6
-2 -9 10 -2 -3 1 -2 -5
0 -9 8 -2 -3 0 -2 -5
1 -8 6 -3 -4 -3 -3 -5
2 -8 5 -4 -5 -4 -3 -5
3 -7 3 -5 -6 -5 -4 -5
4 -6 1 -6 -7 -7 -5 -6
3 -7 -2 -9 -10 -8 -6 -6
1 -8 -4 -12 -12 -10 -8 -7
-2 -9 -6 -15 -15 -12 -9 -7
-3 -10 -8 -18 -18 -13 -10 -8
-5 -11 -10 -21 -20 -15 -12 -9
-5 -12 -9 -21 -20 -15 -12 -10
-5 -13 -8 -20 -20 -16 -12 -11
-6 -14 -7 -20 -20 -16 -13 -12
-6 -15 -5 -19 -20 -17 -13 -13
-7 -16 -4 -18 -20 -18 -14 -14
-7 -16 -4 -18 -20 -18 -14 -14
-6 -16 -4 -18 -20 -18 -14 -13
-6 -16 -4 -18 -19 -17 -14 -12
-5 -16 -4 -18 -19 -17 -14 -11
-4 -15 -4 -17 -18 -16 -13 -10
-6 -15 -4 -17 -18 -16 -13 -11
-8 -15 -4 -17 -18 -16 -14 -12
-11 -15 -4 -18 -18 -17 -14 -13
-13 -15 -4 -18 -18 -17 -15 -14
-15 -16 -3 -19 -19 -18 -16 -15
-15 -16 -3 -19 -19 -18 -16 -15
-15 -16 -3 -19 -20 -18 -16 -15
-16 -17 -3 -19 -20 -19 -17 -15
-16 -17 -3 -19 -21 -19 -17 -15
-17 -18 -2 -19 -22 -20 -18 -15
-17 -18 -2 -19 -22 -20 -18 -15
-18 -18 -2 -19 -22 -20 -19 -16
-18 -19 -2 -20 -22 -21 -20 -17
-19 -19 -2 -20 -22 -21 -21 -18
-20 -20 -2 -21 -23 -22 -22 -19
-20 -20 -2 -21 -23 -22 -22 -19
-20 -20 -2 -21 -23 -22 -21 -19
-20 -20 -2 -21 -23 -22 -20 -19
-20 -20 -2 -21 -23 -22 -19 -19
-19 -19 0 -20 -23 -23 -18 -19
-19 -19 0 -20 -23 -23 -18 -19
-19 -19 0 -20 -23 -23 -19 -19
-19 -20 0 -20 -23 -23 -20 -19
-19 -20 0 -20 -23 -23 -21 -19
-19 -21 1 -19 -24 -22 -22 -18
-19 -21 1 -19 -24 -22 -22 -18
-19 -21 1 -19 -24 -22 -22 -18
-20 -20 1 -18 -23 -22 -22 -18
-20 -20 1 -18 -23 -22 -22 -18
-21 -19 2 -17 -22 -21 -21 -19
-21 -19 2 -17 -22 -21 -21 -19
-21 -19 2 -17 -22 -21 -21 -19
-21 -19 3 -17 -22 -21 -21 -18
-21 -19 3 -17 -22 -21 -21 -18
-21 -19 4 -17 -22 -21 -22 -17
-21 -19 4 -17 -22 -21 -22 -17
-21 -19 4 -17 -22 -21 -21 -17
-20 -18 5 -16 -21 -20 -21 -17
-20 -18 5 -16 -21 -20 -20 -17
-19 -17 6 -15 -20 -19 -19 -17
-20 -19 8 -15 -21 -21 -22 -20
-22 -22 10 -14 -23 -24 -25 -22
-24 -24 13 -14 -24 -26 -28 -25
-25 -27 15 -13 -25 -29 -31 -27
-27 -29 17 -11 -27 -31 -34 -30
-27 -29 21 -6 -23 -30 -34 -30
-27 -29 26 0 -19 -28 -34 -31
-27 -30 30 6 -15 -27 -34 -32
-27 -30 34 11 -12 -26 -34 -33
-26 -29 37 17 -5 -21 -33 -32
-12 -18 32 27 12 -4 -18 -21
3 -7 27 37 29 15 -3 -9
17 5 21 48 47 33 13 3
31 16 16 58 64 51 28 15
48 30 7 65 80 71 47 29
74 54 -19 49 96 99 78 56
101 78 -45 32 111 128 110 81
128 102 -69 16 127 155 142 107
153 126 -95 0 141 184 174 134
177 150 -119 -18 154 210 204 159
184 177 -140 -36 154 227 229 185
190 202 -159 -56 154 243 255 211
197 229 -180 -74 155 260 279 235
204 255 -199 -93 155 276 304 261
207 276 -217 -111 150 284 321 279
185 266 -214 -126 112 245 293 262
163 257 -211 -139 73 206 264 244
142 247 -206 -153 35 168 235 227
119 237 -203 -168 -4 129 206 210
98 224 -197 -180 -38 91 176 189
73 188 -178 -177 -58 57 138 155
50 153 -157 -173 -78 23 101 121
26 117 -137 -170 -99 -11 63 89
3 82 -117 -165 -118 -45 25 55
-18 52 -98 -158 -133 -72 -7 26
-17 45 -82 -133 -114 -63 -8 20
-16 37 -67 -107 -95 -54 -10 14
-15 30 -51 -81 -75 -44 -11 9
-14 23 -35 -56 -56 -34 -12 3
-12 16 -22 -33 -39 -26 -14 -3
-12 12 -16 -27 -33 -24 -14 -4
-12 8 -10 -20 -28 -23 -14 -5
-12 4 -4 -13 -23 -21 -14 -6
-12 1 3 -6 -18 -19 -14 -7
-12 -4 8 1 -13 -17 -13 -9
-12 -5 10 2 -12 -16 -13 -9
-12 -6 12 4 -10 -15 -14 -10
-12 -7 14 5 -9 -14 -14 -10
-12 -8 16 6 -8 -13 -15 -11
-13 -10 18 8 -6 -12 -16 -12
-13 -11 19 9 -6 -12 -16 -12
-13 -12 20 10 -5 -12 -17 -13
-13 -13 21 11 -5 -13 -17 -14
-13 -14 22 12 -4 -13 -18 -15
-14 -15 23 14 -3 -14 -19 -16
-14 -15 23 14 -3 -14 -19 -16
-13 -15 23 14 -3 -14 -19 -16
-13 -15 23 14 -2 -13 -18 -16
-12 -15 23 14 -2 -13 -18 -16
-11 -14 23 14 0 -12 -17 -17
-11 -14 23 15 0 -12 -17 -17
-11 -15 24 16 1 -12 -17 -16
-12 -15 25 17 1 -12 -17 -16
-12 -16 26 18 2 -12 -17 -15
-13 -17 27 20 3 -11 -17 -14
-12 -17 27 20 3 -10 -17 -14
-11 -16 27 20 4 -9 -17 -14
-10 -16 27 20 5 -8 -16 -13
-9 -15 27 20 6 -7 -16 -13
-8 -14 26 21 7 -6 -15 -12
-8 -14 26 21 7 -6 -15 -12
-8 -14 26 22 7 -6 -15 -13
-9 -14 27 23 8 -6 -15 -13
-9 -14 27 24 8 -6 -15 -14
-10 -15 28 25 9 -6 -16 -15
-10 -15 28 25 9 -6 -16 -15
-9 -15 28 25 10 -5 -15 -15
-8 -14 28 25 11 -5 -15 -15
-7 -14 28 25 12 -4 -14 -15
-6 -13 28 26 13 -3 -13 -15
-6 -13 28 26 13 -3 -13 -15
-6 -13 28 27 13 -3 -13 -15
-6 -13 28 28 13 -3 -13 -14
-6 -13 28 29 13 -3 -13 -14
-6 -13 28 30 13 -4 -14 -13
-6 -13 28 30 14 -3 -14 -13
-5 -13 28 30 15 -2 -13 -13
-5 -13 28 30 16 0 -13 -13
-4 -13 28 30 17 1 -12 -13
-3 -13 29 31 19 2 -11 -12
-3 -13 29 32 19 2 -11 -12
-2 -12 29 33 20 2 -11 -12
-2 -12 29 34 20 2 -11 -12
0 -11 29 35 21 2 -11 -12
1 -10 30 37 22 3 -11 -12
1 -10 30 37 22 3 -11 -12
2 -10 30 37 22 4 -10 -12
3 -10 29 37 23 4 -9 -12
4 -10 29 37 23 5 -8 -12
5 -10 28 38 24 6 -7 -12
5 -10 28 39 24 6 -7 -12
5 -10 28 40 25 6 -7 -11
5 -9 28 43 25 6 -7 -11
5 -9 28 44 26 6 -7 -10
5 -8 29 46 27 6 -7 -9
6 -8 29 46 27 6 -7 -9
7 -7 29 46 28 6 -6 -9
9 -6 28 46 28 7 -6 -9
10 -5 28 46 29 7 -5 -9
12 -4 27 47 30 8 -4 -8
12 -4 27 48 30 8 -4 -8
12 -4 27 49 30 8 -4 -8
11 -4 27 50 31 8 -4 -7
11 -4 27 51 31 8 -4 -7
10 -4 27 52 32 8 -3 -6
11 -4 27 52 32 9 -2 -5
12 -3 27 52 33 10 0 -4
13 -3 26 53 34 11 2 -3
14 -2 26 53 35 12 3 -2
16 0 25 54 36 13 5 1
16 0 25 54 36 13 5 1
17 1 24 54 36 13 5 1
17 1 24 54 36 13 5 1
18 2 23 54 36 13 5 1
19 3 22 55 37 13 5 1
20 4 21 55 37 13 5 2
22 5 20 55 37 14 6 3
23 6 19 55 38 15 7 5
25 7 18 55 38 16 8 6
27 8 17 54 39 17 9 8
27 8 17 54 39 17 9 8
27 8 17 54 39 17 10 8
27 8 16 55 39 17 10 9
27 8 16 55 39 17 11 9
27 9 15 56 40 17 12 10
27 10 14 56 40 17 13 11
28 11 13 55 40 17 14 12
29 12 12 54 40 17 15 13
30 13 11 53 40 17 16 14
31 15 9 52 39 18 18 15
31 15 9 52 39 18 18 15
31 15 9 52 38 18 18 15
31 15 8 51 38 18 18 16
31 15 8 51 37 18 18 16
31 15 7 50 36 17 17 17
31 15 7 49 36 17 17 17
31 15 6 48 36 17 18 18
31 16 6 47 35 17 19 18
31 16 5 46 35 17 20 19
31 17 4 45 34 18 21 20
31 17 4 45 34 18 21 20
30 18 4 45 34 18 21 20
30 18 4 44 33 17 21 20
29 19 4 44 33 17 21 20
28 20 3 43 32 16 20 19
28 20 3 43 32 16 20 19
27 20 3 42 31 16 19 19
27 20 3 42 31 16 19 18
26 20 3 40 30 16 18 18
25 19 3 39 29 16 17 17
24 18 3 38 29 16 17 17
22 17 4 37 28 15 17 16
20 16 4 36 27 14 16 16
18 15 5 35 26 13 16 15
16 14 6 34 25 12 15 14
15 13 6 33 25 12 14 13
14 12 6 32 24 12 13 12
13 10 6 30 24 11 12 11
12 9 6 29 23 11 11 10
10 7 6 27 22 10 10 9
9 7 6 26 21 9 8 8
8 6 7 25 19 7 6 7
6 5 8 23 17 6 4 6
5 4 9 22 15 4 2 5
3 3 10 20 13 2 0 3
2 2 10 19 13 2 0 3
1 1 10 18 12 2 -2 2
0 0 10 17 11 2 -2 1
-2 -2 10 16 10 2 -3 0
-3 -3 10 15 9 1 -4 -2
-3 -3 10 15 9 0 -4 -2
-4 -4 10 14 8 -2 -5 -3
-5 -5 10 14 7 -3 -6 -4
-6 -6 10 13 6 -4 -7 -5
-7 -7 11 12 5 -5 -8 -6
-7 -7 11 12 5 -5 -8 -6
-7 -7 11 12 5 -5 -8 -7
-8 -7 11 11 4 -6 -9 -7
-8 -7 11 11 4 -6 -9 -8
-9 -8 11 10 3 -7 -10 -9
-9 -8 11 10 3 -7 -10 -9
-9 -8 11 10 2 -8 -11 -9
-10 -8 11 10 1 -8 -12 -9
-10 -8 11 10 0 -9 -13 -9
-11 -9 11 9 -2 -10 -14 -10
-11 -9 11 9 -2 -10 -14 -10
-11 -9 11 9 -2 -10 -14 -10
-10 -9 11 8 0 -9 -14 -10
-10 -9 11 8 0 -9 -14 -10
-9 -10 10 7 1 -8 -13 -10
-9 -10 10 7 1 -8 -13 -10
-10 -10 10 7 1 -8 -13 -10
-10 -10 10 7 1 -9 -13 -10
-11 -10 10 7 1 -9 -13 -10
-12 -10 10 8 2 -10 -13 -9
-12 -10 10 8 2 -10 -13 -9
-12 -10 10 8 2 -10 -13 -9
-12 -10 10 8 2 -10 -13 -9
-12 -10 10 8 2 -10 -13 -9
-13 -11 9 8 1 -9 -12 -9
-13 -11 9 8 1 -9 -12 -9
-13 -11 9 8 1 -9 -12 -9
-13 -11 9 8 1 -9 -12 -9
-13 -11 9 8 1 -9 -12 -9
-12 -11 8 8 0 -10 -13 -10
-12 -11 8 8 0 -10 -13 -10
-12 -11 8 8 0 -10 -13 -10
-12 -11 8 8 0 -10 -13 -10
-12 -11 8 8 0 -10 -13 -10
-12 -11 8 7 1 -9 -12 -10
-12 -11 8 7 1 -9 -12 -10
-12 -11 8 7 1 -9 -12 -10
-13 -11 8 7 1 -9 -12 -10
-13 -11 8 7 1 -9 -12 -10
-14 -10 9 8 1 -10 -13 -10
-14 -10 9 8 1 -10 -13 -10
-14 -10 9 8 1 -10 -13 -10
-14 -10 8 8 1 -10 -13 -10
-14 -10 8 8 1 -10 -13 -10
-13 -11 7 7 0 -9 -12 -11
-13 -11 7 7 0 -9 -12 -11
-13 -11 7 7 0 -9 -12 -11
-13 -11 8 7 -2 -10 -12 -11
-13 -11 8 7 -2 -10 -12 -11
-14 -12 9 7 -3 -11 -13 -11
-14 -12 9 7 -3 -11 -13 -11
-14 -12 9 6 -3 -11 -13 -11
-14 -13 8 6 -3 -11 -13 -11
-14 -13 8 5 -3 -11 -13 -11
-15 -14 7 4 -3 -11 -13 -10
-15 -14 7 4 -3 -11 -13 -10
-15 -14 7 4 -3 -11 -14 -11
-15 -13 7 4 -3 -11 -14 -11
-15 -13 7 4 -3 -11 -15 -12
-15 -13 7 4 -3 -11 -15 -12
-15 -12 8 4 -4 -12 -16 -13
-15 -13 8 4 -4 -12 -16 -13
-16 -13 8 3 -5 -12 -16 -13
-16 -14 8 3 -5 -12 -16 -13
-16 -14 8 3 -5 -12 -16 -13
-17 -15 8 2 -6 -13 -16 -13
-17 -15 8 2 -6 -13 -16 -13
-16 -15 8 2 -6 -13 -16 -13
-16 -15 8 2 -6 -13 -16 -13
-16 -15 8 2 -6 -13 -16 -13
-15 -15 9 2 -6 -14 -16 -12
-15 -15 9 2 -6 -14 -16 -12
-15 -15 9 1 -6 -14 -16 -12
-15 -15 9 1 -6 -14 -16 -12
-15 -15 9 1 -6 -14 -16 -12
-14 -14 8 0 -7 -14 -16 -12
-14 -14 8 0 -7 -14 -16 -12
-14 -14 8 0 -8 -15 -16 -12
-14 -14 8 0 -8 -15 -16 -12
-14 -14 8 0 -8 -15 -16 -12
-15 -15 8 0 -9 -16 -16 -13
-16 -15 8 -2 -9 -16 -16 -13
-16 -16 8 -2 -9 -16 -17 -13
-17 -16 8 -3 -9 -16 -17 -13
-17 -16 8 -3 -9 -16 -17 -13
-18 -17 7 -4 -10 -16 -18 -13
-18 -17 7 -4 -10 -16 -18 -13
-18 -16 7 -4 -10 -17 -18 -13
-18 -16 7 -4 -10 -17 -18 -13
-18 -16 7 -4 -10 -17 -18 -13
-17 -15 7 -3 -11 -18 -18 -14
-17 -15 7 -3 -11 -17 -18 -14
-17 -16 7 -3 -11 -17 -18 -14
-17 -16 7 -3 -11 -16 -18 -14
-17 -16 7 -3 -11 -16 -18 -14
-17 -17 6 -4 -10 -15 -18 -14
-17 -17 6 -4 -11 -16 -18 -14
-17 -16 6 -5 -12 -16 -18 -14
-17 -16 6 -5 -13 -17 -18 -14
-17 -16 6 -5 -13 -17 -18 -14
-17 -15 5 -6 -14 -18 -18 -15
-17 -15 5 -6 -14 -18 -18 -15
-17 -15 5 -6 -14 -18 -18 -15
-17 -15 5 -6 -14 -18 -18 -15
-17 -15 5 -6 -14 -18 -18 -15
-16 -15 6 -5 -12 -18 -18 -15
-15 -14 7 -3 -11 -17 -17 -14
-14 -12 8 -2 -9 -16 -16 -13
-13 -11 9 1 -8 -15 -15 -12
-13 -10 10 2 -7 -15 -15 -12
-12 -8 12 3 -5 -13 -14 -11
-11 -6 14 4 -4 -11 -13 -11
-10 -5 15 5 -3 -10 -12 -10
-9 -3 17 6 -2 -8 -11 -10
-8 -2 18 7 0 -7 -11 -10
-7 0 19 8 1 -6 -10 -9
-7 0 20 9 1 -6 -9 -8
-6 0 20 10 1 -6 -8 -7
-6 0 21 11 1 -6 -7 -6
-6 0 21 12 1 -6 -7 -5
-4 0 22 13 1 -7 -6 -4
-3 -2 21 12 2 -6 -6 -4
0 -3 20 11 2 -5 -6 -4
1 -4 19 10 3 -4 -6 -4
2 -5 18 10 3 -3 -6 -4
3 -6 15 8 3 -3 -6 -3
3 -5 13 7 2 -4 -7 -3
3 -4 10 5 0 -5 -7 -4
3 -3 8 4 -2 -6 -8 -4
3 -3 6 3 -3 -7 -8 -4
2 -3 5 0 -6 -9 -10 -6
0 -4 4 -4 -8 -11 -11 -7
-3 -6 3 -7 -11 -12 -12 -8
-5 -7 2 -10 -13 -14 -13 -9
-6 -8 2 -12 -15 -15 -14 -10
-7 -9 1 -13 -16 -16 -15 -11
-7 -10 1 -13 -17 -17 -16 -12
-6 -11 2 -13 -17 -18 -17 -13
-6 -12 2 -13 -18 -19 -18 -14
-6 -12 2 -13 -18 -19 -18 -15
-5 -13 3 -13 -19 -20 -19 -16
-5 -12 3 -13 -18 -20 -18 -15
-5 -11 4 -13 -18 -19 -18 -15
-5 -10 4 -13 -17 -19 -17 -14
-5 -10 4 -13 -17 -19 -17 -14
-8 -10 5 -13 -16 -18 -16 -13
-10 -11 5 -13 -17 -18 -17 -13
-12 -13 6 -13 -17 -19 -18 -14
-14 -14 6 -13 -18 -19 -19 -14
-16 -15 6 -13 -18 -19 -20 -14
-17 -16 7 -14 -19 -20 -21 -15
-17 -16 7 -15 -20 -20 -21 -15
-17 -15 7 -15 -20 -21 -22 -16
-17 -15 7 -16 -21 -21 -22 -16
-17 -15 7 -16 -21 -21 -22 -16
-19 -15 6 -17 -22 -22 -23 -17
-20 -16 6 -17 -22 -23 -23 -18
-21 -17 6 -18 -23 -24 -23 -18
-22 -18 6 -18 -23 -25 -23 -19
-23 -19 6 -18 -23 -25 -23 -19
-24 -20 6 -19 -24 -26 -23 -20
-23 -19 6 -19 -24 -26 -23 -20
-23 -19 6 -19 -24 -25 -23 -20
-22 -18 6 -19 -24 -25 -23 -20
-22 -18 6 -19 -24 -25 -23 -20
-21 -17 5 -19 -23 -24 -23 -19
-21 -17 5 -19 -23 -24 -23 -19
-21 -17 6 -18 -23 -24 -23 -20
-21 -17 6 -18 -23 -24 -23 -20
-21 -17 6 -18 -23 -24 -23 -20
-22 -16 7 -17 -22 -24 -24 -21
-22 -15 7 -17 -22 -23 -24 -21
-22 -15 7 -17 -22 -22 -23 -21
-22 -14 7 -17 -22 -21 -23 -21
-22 -14 7 -17 -22 -21 -23 -21
-21 -13 6 -18 -22 -20 -22 -20
-22 -14 6 -18 -22 -20 -22 -20
-22 -15 6 -18 -22 -21 -22 -20
-23 -16 6 -18 -22 -21 -22 -20
-23 -16 6 -18 -22 -21 -22 -20
-24 -17 6 -18 -23 -22 -23 -20
-24 -17 6 -18 -23 -22 -23 -20
-23 -16 7 -18 -23 -22 -23 -20
-23 -16 7 -18 -23 -22 -23 -20
-23 -16 7 -18 -23 -22 -23 -20
-23 -17 10 -17 -22 -23 -26 -23
-25 -21 14 -16 -23 -26 -30 -26
-27 -24 17 -15 -24 -29 -34 -30
-29 -27 20 -14 -25 -32 -37 -34
-30 -30 23 -13 -26 -35 -41 -37
-30 -30 25 -6 -22 -31 -39 -37
-29 -28 28 2 -17 -26 -35 -35
-28 -26 30 9 -11 -20 -32 -34
-27 -24 32 16 -5 -15 -28 -32
-26 -23 34 23 2 -9 -24 -31
-8 -10 27 32 19 10 -7 -17
14 6 17 42 37 29 13 0
34 21 8 51 56 50 32 15
55 35 -3 60 74 69 52 30
75 51 -12 69 93 89 70 47
102 76 -37 52 106 115 102 73
129 103 -64 30 117 143 135 101
155 129 -91 8 129 171 168 130
182 155 -117 -14 141 198 200 157
209 182 -144 -36 152 225 233 185
212 203 -157 -56 145 232 248 204
209 225 -169 -75 133 235 262 223
206 245 -180 -95 121 239 274 240
204 267 -191 -114 110 242 287 259
202 287 -202 -134 99 246 301 276
176 266 -197 -147 62 207 268 254
147 237 -189 -160 22 161 228 223
117 209 -181 -173 -18 114 188 192
89 180 -173 -186 -58 68 148 162
59 151 -165 -198 -99 22 108 132
42 128 -147 -188 -107 3 81 107
25 106 -129 -174 -111 -13 57 82
9 84 -110 -159 -115 -29 32 58
-8 61 -91 -145 -119 -45 8 33
-24 38 -72 -130 -123 -61 -17 9
-25 31 -59 -110 -110 -56 -20 4
-23 27 -46 -90 -92 -48 -19 1
-21 22 -33 -70 -74 -39 -17 -2
-18 18 -21 -50 -57 -31 -15 -4
-16 13 -8 -29 -39 -23 -14 -6
-15 10 -3 -23 -33 -20 -13 -8
-15 6 2 -18 -29 -19 -13 -9
-15 3 7 -14 -26 -18 -14 -10
-15 -2 11 -9 -22 -17 -14 -11
-15 -5 15 -5 -18 -16 -14 -12
-14 -6 17 -4 -17 -15 -15 -13
-14 -7 18 -3 -17 -15 -16 -14
-15 -8 20 -3 -17 -15 -16 -15
-15 -9 21 -2 -17 -15 -17 -16
-15 -10 22 -2 -17 -15 -17 -17
-16 -11 23 0 -17 -15 -18 -18
-16 -11 23 1 -16 -15 -18 -18
-16 -11 24 2 -15 -15 -18 -19
-16 -11 24 3 -14 -15 -18 -19
-16 -11 24 4 -13 -15 -18 -19
-16 -12 25 5 -12 -15 -19 -20
-15 -12 25 5 -12 -14 -19 -19
-15 -12 25 5 -12 -14 -18 -19
-14 -12 25 5 -12 -13 -18 -18
-14 -12 25 5 -12 -13 -18 -18
-13 -13 26 6 -12 -12 -17 -17
-13 -14 26 6 -12 -12 -17 -18
-14 -14 27 7 -11 -13 -18 -19
-14 -15 27 7 -11 -13 -18 -20
-14 -15 27 7 -11 -13 -18 -20
-15 -16 28 8 -10 -14 -19 -21
-14 -15 29 8 -10 -13 -18 -20
-13 -14 29 9 -10 -12 -18 -20
-12 -13 30 9 -10 -11 -17 -19
-12 -13 30 9 -10 -11 -17 -19
-11 -12 31 10 -9 -10 -16 -18
-10 -13 31 11 -8 -10 -16 -18
-10 -13 32 12 -7 -10 -16 -18
-9 -14 32 13 -6 -10 -16 -18
-9 -14 32 13 -5 -10 -16 -18
-8 -15 33 14 -4 -9 -15 -18
-8 -15 33 14 -4 -9 -15 -18
-8 -15 32 14 -4 -10 -15 -18
-8 -15 32 14 -4 -10 -15 -18
-8 -15 32 14 -4 -10 -15 -18
-9 -14 31 13 -4 -11 -14 -18
-9 -14 31 13 -4 -11 -14 -18
-9 -14 31 14 -3 -10 -14 -18
-9 -14 31 14 -3 -10 -14 -18
-9 -14 31 14 -3 -10 -14 -18
-7 -14 32 15 -2 -9 -13 -18
-6 -13 32 15 0 -8 -12 -17
-5 -13 32 16 1 -8 -11 -17
-3 -12 32 16 2 -7 -10 -16
-2 -12 32 16 3 -7 -10 -16
0 -11 32 17 4 -6 -9 -15
0 -12 32 18 4 -6 -9 -15
-2 -12 31 19 4 -7 -9 -16
-2 -13 31 20 4 -7 -9 -16
-2 -13 31 20 4 -7 -9 -16
-3 -14 30 21 5 -8 -10 -17
-2 -13 31 22 6 -7 -9 -16
0 -12 32 23 7 -6 -9 -15
1 -11 33 24 8 -5 -8 -14
1 -10 34 24 8 -4 -8 -13
2 -9 35 25 9 -3 -7 -12
2 -9 35 26 9 -3 -7 -12
2 -10 35 27 10 -4 -7 -12
2 -10 35 28 10 -4 -7 -12
2 -10 35 28 10 -4 -7 -12
3 -11 34 29 11 -5 -8 -13
4 -10 34 29 11 -4 -7 -13
5 -9 33 30 11 -4 -6 -12
6 -8 33 30 11 -3 -5 -12
7 -7 33 30 11 -3 -5 -12
8 -6 32 31 12 -2 -4 -11
8 -6 32 32 13 0 -3 -11
8 -7 32 32 14 0 -3 -11
8 -7 32 33 15 1 -2 -11
8 -7 32 33 15 1 -2 -11
10 -7 32 34 16 2 0 -10
11 -6 32 35 16 2 1 -9
12 -5 31 35 17 3 2 -8
14 -3 31 36 17 3 3 -7
15 -2 31 36 17 3 3 -6
16 0 30 37 18 4 4 -5
17 1 29 37 18 4 4 -5
18 2 29 37 19 5 5 -5
19 3 28 37 19 5 5 -5
20 3 28 37 19 5 5 -5
21 4 27 37 20 6 6 -4
22 4 26 37 20 6 8 -2
22 5 25 37 20 6 9 0
23 5 24 37 20 6 10 1
23 5 23 37 20 6 11 2
24 6 22 37 19 6 12 3
25 7 22 37 19 7 12 4
25 8 21 37 20 7 12 5
26 9 21 37 20 8 12 6
26 9 21 37 20 8 12 6
27 10 20 38 21 9 13 7
27 12 20 37 20 9 14 8
28 13 19 36 20 8 15 9
28 14 19 35 19 8 16 10
28 15 19 35 19 8 16 10
29 16 17 34 18 7 17 11
29 16 16 34 18 7 17 11
29 16 14 34 18 8 17 11
29 16 12 34 18 8 17 11
29 16 11 34 18 8 17 11
28 16 10 33 17 9 17 11
29 17 10 32 17 9 18 12
29 19 11 31 17 9 19 13
30 21 11 30 17 9 20 14
30 22 11 30 17 9 20 14
31 23 12 29 16 9 21 15
30 22 12 29 15 8 21 15
29 21 12 28 14 7 20 15
28 20 12 28 13 6 20 15
28 20 12 28 13 6 20 15
27 19 11 27 12 5 19 14
26 19 11 26 12 5 19 14
25 20 10 25 12 6 19 14
24 20 10 24 12 6 19 14
24 20 10 23 12 6 19 14
23 20 9 22 11 7 19 13
21 19 11 22 11 7 18 12
20 18 12 22 10 6 17 11
19 16 13 22 10 6 15 10
18 15 14 22 10 6 14 9
16 13 15 21 9 5 13 8
15 12 16 19 7 4 12 7
13 10 16 18 6 3 11 6
11 8 17 16 5 2 10 5
10 7 17 14 4 2 10 4
8 6 18 13 2 1 8 2
6 5 18 11 1 -2 6 1
5 5 19 10 0 -3 5 0
3 4 19 9 -3 -4 3 -3
1 4 19 8 -4 -5 1 -4
0 3 20 7 -6 -6 0 -5
-2 2 20 6 -7 -7 0 -5
-3 1 20 5 -8 -8 -2 -6
-4 0 20 4 -10 -9 -2 -6
-4 -2 20 3 -11 -10 -2 -6
-5 -3 20 2 -12 -11 -3 -7
-6 -4 20 2 -12 -12 -4 -8
-6 -5 20 1 -13 -13 -4 -9
-7 -6 20 1 -13 -14 -5 -10
-7 -7 20 1 -13 -14 -5 -10
-8 -8 20 0 -14 -15 -6 -11
-9 -8 20 -2 -14 -15 -6 -11
-9 -8 20 -2 -15 -15 -6 -11
-10 -8 20 -3 -15 -15 -6 -11
-10 -8 20 -3 -15 -15 -6 -11
-11 -7 20 -4 -16 -15 -7 -11
-11 -8 20 -3 -16 -15 -7 -11
-12 -8 20 -3 -16 -15 -8 -12
-12 -9 20 -2 -16 -15 -8 -12
-12 -9 20 -2 -16 -15 -8 -12
-13 -10 21 0 -15 -16 -9 -13
-13 -10 21 -2 -16 -16 -9 -13
-13 -10 20 -2 -16 -16 -10 -13
-13 -10 20 -3 -17 -16 -10 -13
-13 -10 20 -3 -17 -16 -10 -13
-14 -11 19 -4 -18 -17 -11 -13
-14 -11 19 -4 -18 -17 -11 -13
-15 -12 19 -4 -18 -17 -11 -13
-15 -12 19 -4 -18 -17 -11 -13
-15 -12 19 -4 -18 -17 -11 -13
-16 -13 19 -3 -18 -17 -11 -14
-16 -12 19 -3 -18 -17 -11 -14
-16 -12 19 -3 -17 -17 -11 -14
-16 -11 19 -3 -17 -17 -11 -14
-16 -11 19 -3 -17 -17 -11 -14
-15 -10 18 -2 -16 -18 -11 -13
-16 -11 18 -2 -16 -18 -11 -13
-16 -11 18 -2 -16 -17 -11 -14
-17 -12 18 -2 -16 -17 -11 -14
-17 -12 18 -2 -16 -17 -11 -14
-18 -13 18 -2 -17 -16 -12 -15
-18 -13 18 -2 -17 -16 -11 -15
-18 -14 18 -2 -17 -17 -11 -15
-18 -14 18 -2 -17 -17 -10 -15
-18 -14 18 -2 -17 -17 -10 -15
-18 -15 17 -3 -18 -18 -9 -14
-18 -15 16 -3 -18 -18 -9 -14
-18 -15 16 -3 -18 -18 -9 -13
-18 -15 15 -3 -18 -18 -9 -13
-18 -15 15 -3 -18 -18 -9 -13
-17 -15 14 -3 -17 -17 -9 -12
-17 -15 14 -3 -17 -17 -9 -12
-17 -15 14 -3 -18 -17 -9 -12
-17 -15 14 -3 -18 -17 -9 -12
-17 -15 14 -3 -18 -17 -9 -12
-17 -16 14 -4 -19 -18 -10 -12
-17 -16 13 -4 -19 -18 -10 -12
-17 -15 12 -4 -19 -18 -10 -12
-17 -15 11 -4 -19 -18 -10 -12
-17 -15 10 -4 -19 -18 -10 -12
-17 -14 9 -4 -18 -18 -11 -13
-17 -14 9 -4 -18 -18 -11 -13
-17 -14 10 -4 -18 -18 -11 -13
-17 -14 10 -4 -18 -18 -11 -13
-17 -14 10 -4 -18 -18 -11 -13
-18 -15 11 -5 -19 -19 -12 -13
-18 -15 11 -5 -19 -19 -12 -13
-18 -15 10 -5 -19 -19 -12 -13
-18 -15 10 -5 -19 -19 -12 -13
-18 -15 10 -5 -19 -19 -12 -13
-18 -16 9 -5 -20 -19 -13 -14
-18 -16 9 -5 -20 -19 -13 -14
-18 -16 9 -6 -20 -20 -13 -14
-18 -16 9 -6 -20 -20 -13 -14
-18 -16 9 -6 -20 -20 -13 -14
-18 -16 8 -7 -21 -21 -14 -14
-18 -16 8 -7 -21 -21 -14 -14
-19 -17 8 -7 -21 -20 -13 -14
-19 -17 8 -7 -21 -20 -13 -14
-19 -17 8 -7 -21 -20 -13 -14
-20 -18 7 -6 -21 -19 -12 -13
-20 -18 7 -6 -21 -19 -12 -13
-20 -19 7 -7 -21 -19 -12 -13
-20 -19 7 -7 -21 -19 -12 -13
-20 -19 7 -7 -21 -19 -12 -13
-20 -20 7 -8 -22 -20 -12 -12
-20 -20 6 -8 -22 -21 -13 -13
-20 -20 5 -9 -22 -22 -14 -13
-20 -20 5 -9 -22 -22 -15 -14
-20 -20 4 -9 -22 -23 -16 -14
-21 -19 3 -10 -23 -24 -17 -15
-21 -18 3 -10 -23 -24 -17 -15
-20 -18 2 -10 -23 -24 -17 -15
-20 -17 2 -10 -23 -24 -17 -15
-20 -17 2 -10 -23 -24 -17 -15
-19 -16 1 -11 -24 -23 -16 -16
-19 -16 1 -11 -24 -23 -16 -16
-19 -16 1 -11 -24 -23 -16 -16
-19 -16 1 -11 -24 -23 -16 -16
-19 -16 1 -11 -24 -23 -16 -16
-20 -16 1 -12 -24 -23 -17 -17
-20 -16 1 -12 -24 -23 -17 -16
-20 -16 1 -12 -24 -23 -17 -16
-20 -16 1 -12 -24 -23 -17 -15
-20 -16 1 -12 -24 -23 -17 -15
-20 -17 1 -13 -24 -23 -16 -14
-20 -17 1 -12 -24 -23 -16 -14
-20 -17 2 -12 -23 -23 -16 -14
-20 -17 2 -11 -23 -23 -16 -14
-20 -17 2 -11 -23 -23 -16 -14
-19 -18 3 -10 -22 -22 -16 -15
-19 -17 3 -10 -21 -20 -15 -15
-18 -16 3 -10 -20 -19 -14 -14
-18 -16 3 -10 -19 -18 -14 -14
-18 -15 3 -10 -18 -17 -13 -14
-17 -13 3 -8 -17 -16 -12 -13
-16 -11 5 -7 -15 -14 -12 -12
-14 -9 6 -5 -14 -13 -11 -11
-13 -7 8 -3 -12 -11 -11 -11
-12 -5 9 0 -11 -10 -11 -10
-11 -4 10 1 -10 -9 -10 -9
-11 -4 11 2 -10 -9 -10 -9
-11 -4 12 3 -9 -9 -9 -8
-11 -4 12 3 -8 -9 -9 -7
-11 -4 13 4 -8 -9 -9 -7
-10 -4 14 5 -7 -8 -8 -6
-8 -5 14 5 -7 -8 -8 -6
-7 -6 13 5 -7 -8 -7 -6
-5 -7 12 5 -7 -8 -7 -6
-4 -8 12 5 -7 -8 -7 -6
-3 -9 10 6 -6 -9 -6 -7
-2 -8 9 5 -6 -9 -6 -7
0 -7 7 3 -7 -9 -6 -6
1 -6 5 2 -8 -9 -6 -6
2 -5 3 1 -8 -9 -6 -6
2 -4 1 -3 -10 -9 -7 -6
1 -6 -2 -6 -13 -11 -9 -7
-2 -7 -4 -10 -15 -13 -11 -9
-4 -9 -7 -13 -18 -16 -14 -10
-6 -10 -9 -16 -21 -18 -16 -12
-7 -11 -9 -18 -22 -19 -17 -13
-7 -12 -8 -18 -22 -19 -17 -13
-8 -14 -6 -18 -22 -20 -17 -13
-8 -15 -5 -18 -22 -20 -17 -13
-8 -16 -3 -18 -22 -20 -17 -13
-9 -17 -2 -19 -23 -21 -17 -14
-9 -17 -2 -19 -23 -21 -17 -14
-9 -16 -2 -18 -22 -20 -16 -13
-9 -15 -2 -18 -22 -20 -16 -12
-9 -15 -2 -18 -22 -20 -16 -12
-9 -14 -2 -17 -21 -19 -15 -11
-11 -14 0 -17 -21 -19 -15 -11
-13 -15 1 -18 -21 -19 -16 -12
-15 -16 1 -18 -21 -19 -17 -13
-18 -16 2 -18 -21 -19 -17 -13
-19 -17 3 -19 -22 -20 -18 -14
-20 -17 3 -19 -22 -20 -19 -15
-21 -18 4 -19 -23 -21 -20 -17
-21 -19 4 -19 -23 -22 -21 -18
-22 -19 4 -19 -23 -22 -22 -19
-23 -20 5 -20 -24 -23 -23 -20
-23 -20 5 -20 -24 -23 -23 -20
-24 -21 5 -21 -24 -23 -23 -20
-24 -21 5 -21 -24 -23 -23 -20
-24 -21 5 -21 -24 -23 -23 -20
-25 -22 4 -22 -24 -24 -23 -19
-25 -22 4 -22 -24 -24 -23 -19
-25 -22 4 -22 -24 -24 -23 -19
-25 -22 4 -22 -24 -24 -23 -19
-25 -22 4 -22 -24 -24 -23 -19
-24 -21 5 -22 -25 -24 -24 -20
-24 -21 5 -22 -25 -24 -24 -20
-24 -21 6 -22 -24 -23 -23 -19
-24 -21 6 -22 -24 -23 -22 -18
-24 -21 6 -22 -24 -23 -22 -18
-23 -20 7 -21 -23 -22 -21 -17
-23 -20 7 -21 -23 -22 -21 -17
-24 -20 8 -21 -23 -22 -22 -18
-24 -20 8 -21 -23 -22 -22 -19
-24 -20 8 -21 -23 -22 -22 -19
-25 -21 9 -20 -24 -23 -23 -20
-25 -21 9 -20 -24 -23 -23 -20
-24 -20 9 -20 -23 -23 -22 -20
-24 -20 9 -20 -23 -23 -22 -20
-24 -20 9 -20 -23 -23 -22 -20
-23 -19 8 -20 -22 -22 -21 -20
-23 -19 8 -20 -22 -22 -21 -20
-24 -19 9 -20 -22 -22 -22 -21
-25 -19 10 -20 -22 -22 -22 -21
-25 -19 10 -20 -22 -22 -22 -21
-26 -19 12 -19 -22 -21 -24 -22
-26 -21 14 -19 -22 -23 -27 -24
-27 -23 16 -19 -23 -25 -30 -26
-28 -25 18 -19 -24 -26 -33 -27
-28 -27 21 -19 -24 -28 -35 -29
-29 -28 23 -15 -23 -29 -37 -30
-30 -29 27 -10 -20 -29 -37 -31
-32 -31 30 -5 -17 -28 -37 -32
-33 -32 33 1 -13 -28 -37 -33
-34 -33 36 6 -10 -28 -37 -34
-26 -27 34 14 2 -16 -28 -28
-11 -16 26 23 18 3 -11 -16
5 -4 19 32 34 21 7 -3
21 9 11 42 51 40 23 10
36 21 4 51 67 59 40 22
59 42 -14 51 86 86 67 45
86 68 -37 44 104 117 102 73
112 94 -60 36 123 148 137 102
140 120 -83 29 143 180 171 131
167 147 -106 22 162 212 205 159
180 172 -124 5 169 231 232 184
184 196 -139 -20 164 243 254 206
187 220 -154 -45 160 255 275 229
191 243 -169 -69 156 266 297 252
195 268 -184 -95 152 278 318 274
183 273 -188 -114 128 262 309 273
158 263 -184 -132 90 223 277 252
134 253 -181 -149 51 185 245 231
109 242 -177 -166 13 146 214 210
86 233 -173 -184 -26 108 182 189
62 207 -162 -191 -54 73 147 161
40 172 -147 -189 -74 40 110 130
19 137 -133 -187 -95 8 74 98
-3 101 -117 -185 -114 -24 37 66
-24 65 -103 -182 -135 -57 1 34
-32 46 -89 -168 -134 -67 -15 18
-29 38 -76 -143 -114 -59 -16 14
-27 31 -63 -119 -96 -51 -17 9
-24 24 -50 -95 -76 -43 -18 5
-22 17 -37 -71 -57 -34 -19 0
-20 12 -28 -56 -46 -29 -20 -3
-19 9 -23 -48 -38 -25 -18 -4
-18 7 -17 -39 -32 -22 -16 -6
-17 4 -11 -32 -25 -18 -15 -7
-16 2 -6 -24 -18 -15 -13 -8
-15 0 -3 -20 -15 -13 -12 -9
-15 -2 0 -19 -14 -13 -13 -10
-15 -4 1 -17 -13 -13 -14 -11
-15 -5 2 -16 -13 -13 -15 -12
-15 -6 4 -15 -12 -13 -16 -13
-15 -7 5 -14 -11 -13 -17 -14
-15 -8 5 -14 -10 -13 -17 -14
-15 -10 6 -13 -9 -13 -18 -15
-15 -11 7 -13 -8 -13 -18 -15
-15 -12 7 -13 -7 -13 -18 -15
-16 -13 8 -12 -6 -12 -19 -16
-15 -13 8 -12 -5 -12 -19 -16
-14 -12 8 -11 -4 -12 -19 -16
-14 -12 8 -10 -4 -12 -19 -16
-13 -12 8 -10 -3 -12 -19 -16
-12 -11 9 -9 -2 -11 -18 -17
-12 -11 9 -9 -2 -11 -18 -17
-12 -12 9 -9 -2 -11 -18 -16
-12 -13 9 -9 -2 -11 -18 -16
-12 -13 9 -9 -2 -11 -18 -16
-13 -14 9 -8 0 -10 -17 -15
-13 -14 9 -7 1 -9 -16 -15
-12 -14 10 -6 2 -8 -15 -14
-11 -14 11 -5 2 -8 -15 -13
-11 -14 11 -4 3 -7 -14 -13
-10 -14 12 -3 4 -6 -13 -12
-10 -14 12 -3 4 -6 -13 -12
-9 -13 11 -3 5 -5 -13 -12
-8 -12 11 -3 5 -4 -13 -12
-8 -12 11 -3 5 -4 -13 -12
-7 -11 10 -2 6 -3 -12 -12
-7 -11 10 -2 6 -3 -12 -12
-6 -11 9 0 7 -3 -12 -13
-5 -11 9 0 8 -3 -12 -13
-5 -11 9 0 8 -3 -12 -13
-4 -12 8 1 9 -2 -13 -14
-4 -12 8 2 9 -2 -13 -14
-4 -12 8 3 10 -2 -13 -14
-4 -12 8 4 10 -2 -13 -14
-4 -12 8 5 10 -2 -13 -14
-4 -11 8 6 11 -2 -13 -13
-3 -11 7 6 11 -2 -13 -13
-2 -10 6 6 12 0 -13 -13
0 -10 6 6 12 0 -13 -13
1 -10 5 6 12 0 -13 -13
2 -9 4 6 13 1 -12 -13
2 -9 4 7 13 1 -12 -13
2 -9 4 8 14 1 -11 -13
2 -9 4 8 15 1 -11 -13
2 -9 4 9 15 1 -11 -13
1 -9 5 10 16 1 -10 -12
1 -9 5 11 17 2 -9 -11
2 -9 4 13 18 4 -8 -10
2 -9 3 14 19 5 -7 -9
2 -9 3 15 20 6 -6 -8
3 -9 2 16 21 7 -5 -7
4 -9 2 16 21 7 -5 -7
5 -8 3 17 21 7 -5 -7
6 -7 3 17 21 7 -5 -7
7 -7 3 17 21 7 -5 -7
8 -6 4 18 22 6 -6 -8
8 -6 4 19 23 7 -5 -8
9 -7 4 20 24 8 -4 -7
9 -8 4 20 24 8 -4 -7
9 -8 4 21 25 9 -3 -7
10 -9 3 22 26 10 -2 -6
10 -7 1 22 26 10 -2 -6
11 -6 0 23 26 9 -2 -6
11 -5 -2 23 26 9 -2 -6
11 -3 -4 23 26 9 -2 -6
12 -2 -5 24 26 8 -3 -7
13 0 -5 24 26 9 -2 -6
15 1 -5 25 27 10 0 -4
16 1 -5 26 28 11 1 -3
17 2 -5 26 28 12 2 -2
18 3 -6 27 29 13 3 0
18 3 -7 27 29 13 3 0
18 3 -8 28 30 13 4 1
18 3 -8 28 30 13 5 2
18 3 -9 28 30 13 5 2
19 2 -10 29 31 13 6 3
20 3 -10 29 31 13 8 4
22 4 -11 29 32 14 9 6
23 4 -12 29 32 14 10 7
24 5 -12 29 32 14 12 8
25 6 -13 28 33 15 13 9
25 6 -14 28 33 15 13 9
25 7 -15 27 32 15 13 9
25 7 -16 27 32 15 13 9
25 7 -17 27 32 15 13 9
25 8 -18 26 31 15 12 10
25 10 -20 24 30 15 12 10
26 11 -21 23 29 14 12 10
27 13 -23 22 28 13 12 10
27 15 -25 20 27 13 12 10
28 16 -26 19 26 12 11 10
28 16 -26 19 26 12 11 10
28 16 -26 19 25 12 11 10
28 17 -26 19 24 11 11 10
28 17 -26 19 24 11 11 10
28 18 -27 18 23 10 12 10
28 18 -27 17 23 10 14 12
28 18 -27 16 23 10 16 14
28 17 -27 15 23 10 18 16
28 17 -27 14 23 10 20 18
29 16 -28 13 22 11 21 19
29 16 -28 12 21 11 20 19
28 16 -29 12 20 11 20 19
27 15 -30 11 19 10 19 18
27 15 -30 10 18 10 18 18
26 14 -31 9 17 9 17 17
26 15 -31 9 17 9 17 17
26 16 -31 9 17 9 17 17
25 17 -32 8 17 9 17 17
25 18 -32 8 17 9 17 17
24 19 -33 7 17 9 17 17
23 19 -32 7 17 9 15 15
22 18 -32 7 17 9 14 14
20 17 -31 6 16 9 12 12
19 17 -30 6 16 9 10 10
18 16 -29 5 15 9 9 9
17 15 -28 5 15 9 9 9
16 14 -27 4 15 9 9 9
14 12 -26 3 14 9 9 9
13 11 -25 3 14 9 9 9
12 10 -24 2 13 8 8 8
10 8 -24 0 12 7 8 6
8 7 -24 -2 11 6 7 5
6 5 -23 -4 9 5 6 4
4 3 -23 -6 8 4 6 2
3 2 -22 -7 7 3 5 1
3 2 -22 -8 7 3 3 1
2 2 -22 -9 6 2 2 1
1 2 -22 -11 5 1 1 0
1 2 -22 -12 5 1 -2 0
0 1 -21 -13 4 0 -3 -2
-2 0 -20 -13 4 0 -4 -3
-3 -2 -20 -13 3 0 -4 -3
-5 -3 -19 -13 2 -2 -5 -4
-6 -4 -18 -13 2 -2 -6 -5
-7 -5 -17 -13 1 -3 -7 -6
-7 -5 -17 -13 1 -3 -7 -7
-7 -5 -17 -14 1 -3 -7 -7
-8 -5 -17 -15 1 -4 -8 -8
-8 -5 -17 -15 1 -4 -8 -9
-9 -5 -18 -16 0 -5 -9 -10
-9 -5 -18 -16 -2 -5 -9 -10
-9 -5 -18 -16 -2 -5 -9 -10
-9 -5 -18 -17 -3 -6 -9 -10
-9 -5 -18 -17 -4 -6 -9 -10
-9 -6 -17 -18 -5 -7 -10 -10
-9 -6 -17 -18 -4 -6 -10 -10
-9 -6 -17 -17 -3 -6 -10 -10
-9 -6 -16 -16 -2 -5 -10 -10
-9 -6 -16 -16 0 -4 -10 -10
-10 -7 -15 -15 1 -3 -9 -9
-10 -7 -15 -15 1 -3 -9 -9
-10 -8 -15 -16 0 -3 -8 -9
-11 -9 -15 -17 -2 -4 -7 -8
-11 -9 -15 -17 -2 -4 -7 -8
-12 -10 -16 -18 -3 -5 -6 -7
-12 -10 -16 -18 -3 -5 -7 -7
-12 -10 -16 -19 -3 -5 -8 -8
-12 -9 -16 -20 -3 -5 -9 -9
-12 -9 -16 -20 -3 -5 -10 -9
-12 -8 -17 -21 -3 -6 -11 -10
-12 -8 -17 -21 -3 -6 -11 -10
-12 -8 -17 -21 -3 -6 -11 -10
-11 -8 -16 -21 -3 -6 -11 -10
-11 -8 -16 -21 -3 -6 -11 -10
-10 -9 -15 -20 -4 -6 -10 -10
-10 -9 -15 -20 -4 -6 -10 -10
-10 -9 -16 -20 -4 -6 -10 -10
-10 -9 -17 -21 -4 -6 -9 -10
-10 -9 -17 -21 -4 -6 -9 -10
-11 -10 -18 -22 -4 -5 -8 -10
-11 -10 -18 -22 -4 -5 -8 -10
-11 -10 -18 -22 -5 -5 -8 -10
-11 -10 -18 -22 -6 -6 -9 -10
-11 -10 -18 -22 -6 -6 -9 -10
-12 -9 -18 -23 -7 -7 -10 -9
-12 -9 -18 -23 -7 -7 -10 -9
-12 -9 -18 -23 -7 -7 -10 -9
-12 -9 -18 -23 -7 -7 -9 -9
-12 -9 -18 -23 -7 -7 -9 -9
-12 -9 -17 -23 -6 -7 -8 -8
-12 -9 -17 -23 -6 -7 -8 -9
-12 -9 -17 -23 -6 -7 -9 -9
-12 -9 -17 -23 -7 -7 -10 -10
-12 -9 -17 -23 -7 -7 -10 -11
-13 -10 -18 -24 -8 -8 -11 -12
-13 -10 -18 -24 -8 -8 -11 -12
-13 -10 -18 -24 -8 -8 -11 -11
-13 -11 -18 -24 -8 -9 -11 -10
-13 -11 -18 -24 -8 -9 -11 -10
-13 -12 -18 -24 -9 -10 -11 -9
-13 -12 -18 -24 -9 -10 -11 -9
-14 -13 -18 -24 -10 -10 -11 -10
-15 -14 -18 -25 -11 -11 -12 -11
-15 -14 -18 -25 -11 -11 -12 -11
-16 -15 -18 -26 -12 -12 -13 -12
-16 -15 -18 -26 -12 -12 -13 -12
-16 -14 -18 -26 -12 -12 -13 -12
-15 -13 -17 -25 -12 -12 -13 -11
-15 -13 -17 -25 -12 -12 -13 -11
-14 -12 -16 -24 -11 -12 -12 -10
-14 -13 -16 -24 -11 -12 -12 -10
-14 -13 -16 -24 -11 -12 -12 -10
-15 -14 -16 -25 -12 -12 -12 -10
-15 -15 -16 -25 -12 -12 -12 -10
-16 -16 -15 -26 -13 -13 -12 -10
-16 -16 -15 -26 -13 -13 -12 -10
-16 -16 -15 -26 -13 -13 -12 -10
-16 -16 -15 -26 -13 -13 -12 -10
-16 -16 -15 -26 -13 -13 -12 -10
-15 -16 -15 -25 -12 -12 -13 -11
-15 -16 -15 -25 -12 -12 -13 -11
-15 -16 -15 -25 -12 -12 -13 -11
-16 -16 -15 -25 -13 -13 -13 -12
-16 -16 -15 -25 -13 -13 -13 -12
-17 -15 -14 -24 -14 -14 -14 -13
-17 -15 -14 -25 -14 -14 -14 -13
-17 -15 -14 -25 -15 -14 -14 -13
-17 -15 -15 -26 -16 -15 -14 -13
-17 -15 -15 -27 -16 -15 -14 -13
-16 -16 -16 -28 -17 -16 -15 -13
-16 -16 -15 -28 -17 -16 -15 -13
-16 -16 -15 -28 -17 -16 -15 -13
-16 -16 -14 -27 -17 -16 -15 -13
-16 -16 -13 -27 -17 -16 -15 -13
-17 -17 -12 -26 -17 -17 -15 -12
-17 -17 -12 -26 -17 -17 -15 -12
-17 -17 -12 -26 -17 -17 -15 -12
-17 -17 -11 -26 -17 -17 -15 -12
-17 -17 -11 -26 -17 -17 -15 -12
-17 -16 -10 -26 -16 -17 -15 -13
-17 -16 -10 -26 -16 -17 -15 -13
-17 -16 -10 -26 -16 -17 -15 -14
-17 -16 -10 -26 -16 -17 -16 -15
-17 -16 -10 -26 -16 -17 -16 -15
-17 -16 -9 -25 -17 -17 -17 -16
-17 -16 -9 -25 -17 -17 -17 -15
-17 -16 -9 -25 -17 -17 -17 -14
-17 -16 -9 -24 -16 -16 -16 -13
-17 -16 -9 -24 -16 -16 -16 -12
-17 -16 -8 -23 -15 -15 -15 -11
-16 -14 -6 -20 -14 -14 -14 -10
-15 -12 -4 -18 -12 -13 -13 -9
-13 -10 -2 -16 -11 -11 -11 -8
-12 -9 0 -14 -9 -10 -10 -7
-11 -7 2 -12 -8 -9 -9 -6
-11 -6 3 -11 -7 -8 -9 -6
-10 -6 3 -11 -7 -7 -9 -6
-9 -5 4 -10 -6 -6 -9 -6
-9 -4 5 -9 -5 -5 -9 -6
-8 -3 6 -8 -4 -4 -8 -5
-7 -4 6 -8 -4 -4 -8 -5
-7 -4 6 -8 -4 -4 -8 -5
-6 -5 6 -8 -4 -4 -8 -6
-5 -6 6 -8 -4 -4 -8 -6
-4 -7 6 -8 -4 -5 -8 -7
-3 -6 5 -8 -4 -5 -8 -7
-2 -6 4 -8 -4 -5 -8 -6
0 -5 2 -8 -4 -5 -8 -5
1 -4 1 -8 -4 -5 -8 -5
2 -3 0 -8 -5 -6 -8 -4
1 -4 -3 -11 -7 -7 -8 -5
1 -4 -5 -14 -10 -9 -9 -6
0 -5 -7 -16 -13 -10 -10 -7
-2 -6 -8 -19 -16 -12 -10 -8
-3 -7 -10 -21 -18 -13 -11 -9
-4 -10 -9 -21 -18 -14 -12 -10
-5 -12 -8 -21 -19 -15 -13 -10
-7 -15 -6 -22 -20 -17 -15 -11
-8 -17 -5 -22 -20 -18 -16 -12
-9 -19 -4 -23 -21 -19 -17 -13
-9 -18 -4 -23 -21 -19 -17 -13
-9 -18 -4 -23 -21 -19 -17 -12
-8 -17 -4 -23 -21 -19 -16 -11
-8 -16 -4 -23 -21 -19 -16 -11
-7 -15 -4 -22 -20 -18 -15 -10
-9 -15 -3 -22 -20 -18 -15 -10
-11 -15 -2 -22 -20 -18 -15 -11
-13 -16 0 -22 -20 -18 -15 -12
-15 -16 1 -22 -20 -18 -15 -12
-17 -17 2 -21 -20 -18 -16 -13
-18 -17 2 -21 -20 -18 -17 -13
-18 -17 3 -21 -20 -19 -17 -14
-19 -18 4 -21 -20 -20 -18 -15
-20 -18 4 -21 -20 -20 -19 -15
-21 -19 5 -21 -21 -21 -20 -16
-21 -19 5 -21 -22 -21 -21 -16
-21 -19 5 -22 -22 -22 -21 -16
-22 -20 5 -23 -23 -23 -22 -17
-22 -20 5 -23 -24 -23 -23 -17
-23 -21 4 -24 -25 -24 -24 -18
-23 -21 4 -24 -25 -24 -24 -18
-23 -21 4 -24 -25 -24 -24 -18
-23 -21 4 -24 -25 -24 -24 -18
-23 -21 4 -24 -25 -24 -24 -18
-24 -21 5 -23 -25 -24 -23 -18
-24 -21 6 -23 -25 -24 -23 -18
-24 -21 6 -23 -25 -24 -23 -18
-24 -22 7 -23 -24 -23 -23 -18
-24 -22 8 -23 -24 -23 -23 -18
-25 -23 9 -22 -23 -22 -23 -19
-25 -23 9 -22 -23 -22 -23 -19
-25 -23 9 -22 -23 -22 -23 -19
-25 -23 9 -22 -23 -22 -24 -19
-25 -23 9 -22 -23 -22 -24 -19
-24 -23 10 -21 -24 -22 -25 -20
-24 -23 10 -21 -24 -22 -25 -20
-24 -22 11 -21 -24 -22 -25 -19
-24 -22 11 -21 -24 -22 -24 -19
-24 -21 12 -21 -24 -22 -24 -18
-24 -20 13 -21 -23 -22 -23 -17
-24 -20 13 -21 -23 -22 -23 -17
-25 -20 14 -21 -23 -22 -23 -17
-25 -20 14 -20 -23 -22 -23 -17
-26 -20 15 -20 -23 -22 -23 -17
-27 -20 16 -19 -23 -22 -23 -18
-27 -22 17 -19 -24 -23 -26 -20
-28 -24 19 -19 -25 -24 -28 -21
-28 -25 20 -18 -26 -25 -30 -23
-29 -27 22 -18 -27 -27 -33 -24
-30 -29 24 -16 -28 -28 -35 -26
-32 -31 29 -11 -27 -29 -37 -29
-33 -34 34 -6 -26 -29 -39 -31
-35 -36 39 -2 -25 -30 -41 -33
-36 -38 45 4 -23 -31 -44 -36
-35 -37 48 10 -17 -27 -41 -35
-23 -27 43 20 0 -11 -27 -25
-11 -17 37 30 17 7 -12 -14
2 -7 33 39 33 24 3 -3
14 4 28 50 51 42 17 8
30 18 18 56 69 63 37 24
55 43 -3 51 90 96 71 51
79 67 -24 46 110 129 105 78
104 92 -45 40 132 160 139 105
130 117 -66 35 152 193 173 133
149 142 -87 25 168 223 205 159
158 168 -107 2 170 244 233 185
169 192 -127 -21 171 266 261 212
178 218 -146 -44 173 287 287 237
187 243 -166 -67 174 309 315 264
189 262 -181 -89 165 314 329 280
170 259 -181 -106 131 279 306 272
149 256 -180 -124 96 244 282 265
130 253 -180 -142 60 209 259 257
110 250 -179 -160 25 174 236 248
90 236 -174 -174 -10 136 206 231
65 199 -157 -177 -43 93 162 190
40 163 -141 -179 -76 49 118 149
16 127 -126 -181 -109 5 73 107
-9 90 -109 -184 -142 -38 29 66
-26 61 -93 -180 -161 -69 -4 34
-26 50 -78 -155 -140 -62 -7 26
-26 39 -64 -132 -119 -56 -11 19
-27 29 -50 -107 -99 -49 -15 11
-27 19 -35 -82 -77 -43 -19 3
-28 11 -22 -62 -60 -36 -22 -4
-25 10 -15 -52 -51 -32 -20 -4
-23 8 -8 -40 -43 -27 -18 -4
-20 7 1 -29 -33 -22 -17 -4
-17 6 8 -18 -25 -18 -15 -4
-15 4 14 -10 -18 -14 -13 -5
-15 1 16 -8 -16 -14 -14 -6
-15 -3 19 -6 -14 -13 -14 -7
-15 -6 21 -4 -13 -13 -15 -8
-15 -9 23 -2 -11 -12 -16 -10
-16 -12 25 1 -9 -11 -17 -11
-16 -12 26 1 -9 -11 -17 -11
-16 -12 27 1 -9 -12 -17 -11
-15 -12 28 2 -9 -12 -17 -12
-15 -12 29 2 -9 -13 -17 -12
-14 -12 30 3 -8 -14 -18 -13
-14 -12 30 3 -7 -13 -18 -13
-14 -12 30 4 -6 -13 -18 -13
-13 -12 30 4 -5 -12 -18 -13
-13 -12 30 5 -4 -11 -18 -13
-12 -13 30 6 -3 -10 -18 -14
-12 -13 30 6 -3 -10 -18 -14
-12 -13 31 6 -3 -10 -18 -14
-12 -14 31 7 -3 -10 -18 -14
-12 -14 32 7 -3 -10 -18 -14
-13 -15 33 8 -3 -10 -17 -13
-13 -15 33 8 -2 -10 -17 -13
-12 -15 33 8 0 -9 -17 -13
-12 -15 33 8 1 -9 -17 -13
-11 -15 33 8 2 -8 -17 -13
-10 -14 32 9 3 -7 -16 -13
-10 -14 32 10 3 -7 -16 -13
-10 -14 32 11 3 -7 -16 -13
-10 -14 32 12 3 -7 -16 -13
-10 -14 32 13 3 -7 -16 -13
-9 -14 33 14 3 -7 -15 -13
-9 -14 33 14 4 -7 -15 -13
-8 -14 33 14 4 -7 -15 -13
-8 -14 32 14 5 -6 -15 -13
-7 -14 32 14 6 -6 -15 -13
-6 -13 31 15 7 -5 -14 -12
-6 -13 31 15 7 -5 -14 -12
-6 -13 31 16 8 -5 -14 -12
-5 -13 32 17 9 -4 -13 -12
-5 -13 32 18 10 -4 -13 -12
-4 -12 33 19 11 -3 -12 -12
-4 -12 33 19 11 -3 -12 -12
-3 -12 32 19 11 -2 -12 -12
-2 -12 32 19 12 -2 -12 -13
0 -12 31 19 12 0 -12 -13
1 -11 30 19 13 1 -12 -14
1 -11 30 19 13 1 -12 -14
1 -11 30 20 13 1 -12 -13
0 -11 30 21 14 1 -11 -13
0 -11 30 22 14 1 -11 -12
-2 -10 29 23 15 0 -10 -11
-2 -10 29 23 16 1 -10 -11
0 -10 29 24 17 2 -9 -10
1 -10 29 25 18 3 -8 -10
2 -10 29 26 20 5 -7 -9
3 -10 28 27 21 6 -6 -8
3 -10 28 27 21 6 -6 -8
4 -10 28 28 21 6 -6 -8
4 -9 28 28 21 6 -6 -8
5 -9 28 29 21 6 -6 -8
6 -8 27 30 21 5 -5 -7
7 -8 27 31 22 6 -5 -7
8 -7 27 32 23 7 -4 -7
9 -6 27 33 24 8 -4 -6
10 -5 27 34 26 10 -3 -6
11 -4 27 35 27 11 -2 -5
11 -4 27 35 27 11 -2 -5
11 -4 27 36 27 11 0 -4
11 -4 27 36 28 11 0 -4
11 -4 27 37 28 11 1 -3
11 -5 26 38 29 11 2 -2
12 -5 26 38 29 11 2 -2
13 -5 26 38 29 11 2 -2
14 -5 25 38 30 11 3 -2
16 -5 25 38 30 11 3 -2
17 -4 24 38 31 12 4 -2
17 -4 24 38 31 12 4 -2
17 -3 23 38 31 12 4 0
18 -2 22 39 31 12 4 0
18 0 21 39 31 12 4 1
19 1 20 40 31 13 5 2
20 2 19 40 32 14 6 3
21 3 18 40 33 15 8 4
22 4 17 40 34 16 9 5
23 5 15 40 35 17 10 7
24 6 14 40 36 18 12 8
24 6 14 40 36 18 12 8
25 7 13 39 35 18 12 8
25 8 12 39 34 17 13 8
26 9 11 38 33 17 13 8
27 10 10 37 32 16 14 9
27 10 9 37 32 16 14 10
28 11 8 36 32 16 15 11
28 11 7 35 32 16 15 12
29 12 6 34 32 16 16 13
30 13 5 33 31 15 17 14
30 14 5 33 30 15 17 14
30 15 4 32 29 15 17 14
30 16 3 31 28 14 17 14
30 17 2 30 27 14 17 14
30 18 1 29 26 13 17 15
30 18 1 28 26 13 17 15
30 18 0 27 26 13 17 15
30 18 0 26 26 13 18 16
30 18 -2 24 26 13 18 16
29 18 -3 23 26 14 19 17
29 18 -3 22 25 14 19 17
29 18 -3 21 24 13 19 17
28 19 -4 20 23 12 20 18
28 19 -4 19 21 11 20 18
27 20 -5 18 20 10 21 19
27 20 -5 17 20 10 21 19
27 20 -5 16 20 10 21 19
27 20 -5 15 20 10 21 19
27 20 -5 14 20 10 21 19
27 20 -5 13 20 10 20 18
26 20 -4 13 19 10 20 17
24 19 -3 12 18 10 19 16
23 18 -2 12 17 10 19 15
22 17 0 11 16 10 18 14
20 16 1 10 15 9 17 13
19 15 1 9 15 9 17 13
17 14 1 7 15 8 16 12
16 13 2 5 14 8 15 12
15 11 2 4 14 7 14 11
13 10 3 2 13 6 13 10
12 10 3 2 12 6 12 9
11 10 4 1 11 5 11 8
10 9 4 0 10 4 10 7
9 9 5 -2 8 3 8 5
8 8 6 -3 7 2 7 4
6 7 6 -4 7 2 6 3
5 5 7 -6 6 1 5 2
3 4 7 -7 5 1 4 1
1 3 8 -8 4 0 2 -2
-2 1 9 -10 3 -2 1 -3
-2 1 9 -10 2 -3 1 -3
-3 0 10 -10 1 -4 0 -4
-4 0 10 -11 0 -5 -2 -4
-5 -2 11 -11 -3 -7 -3 -5
-6 -3 12 -12 -4 -8 -4 -6
-6 -3 12 -12 -4 -8 -4 -6
-6 -4 12 -13 -4 -8 -4 -6
-7 -5 12 -13 -4 -8 -4 -6
-7 -6 12 -14 -4 -8 -4 -6
-8 -7 12 -15 -4 -9 -5 -7
-8 -7 12 -15 -4 -9 -5 -7
-8 -7 12 -15 -4 -9 -5 -7
-9 -7 12 -15 -5 -9 -6 -7
-9 -7 12 -15 -5 -9 -6 -7
-10 -6 12 -16 -6 -10 -7 -8
-10 -6 12 -16 -6 -10 -7 -8
-10 -6 12 -16 -6 -10 -7 -8
-10 -6 12 -16 -6 -10 -6 -8
-10 -6 12 -16 -6 -10 -6 -8
-10 -7 12 -16 -6 -9 -5 -8
-10 -7 12 -16 -6 -9 -5 -8
-10 -6 12 -16 -6 -9 -5 -8
-10 -6 12 -15 -6 -9 -5 -8
-10 -5 12 -15 -6 -9 -5 -8
-11 -4 13 -14 -6 -8 -6 -8
-11 -4 13 -14 -6 -8 -6 -8
-11 -4 12 -14 -6 -9 -6 -9
-10 -5 12 -15 -6 -9 -6 -9
-10 -5 11 -15 -6 -10 -6 -10
-9 -6 10 -16 -6 -11 -6 -11
-9 -6 10 -16 -6 -11 -6 -11
-10 -6 10 -16 -6 -11 -6 -11
-10 -6 10 -16 -6 -11 -6 -11
-11 -6 10 -16 -6 -11 -6 -11
-12 -7 11 -17 -7 -10 -7 -10
-12 -7 11 -17 -7 -10 -7 -10
-12 -7 11 -17 -7 -10 -7 -10
-11 -8 11 -17 -6 -10 -7 -10
-11 -8 11 -17 -6 -10 -7 -10
-10 -9 11 -16 -5 -9 -6 -9
-10 -9 11 -16 -5 -9 -6 -9
-10 -9 11 -16 -5 -9 -6 -9
-11 -9 11 -16 -5 -9 -6 -9
-11 -9 11 -16 -5 -9 -6 -9
-12 -8 11 -16 -6 -9 -7 -10
-12 -8 11 -16 -6 -9 -7 -10
-12 -8 11 -16 -6 -9 -7 -10
-11 -8 11 -16 -6 -9 -6 -10
-11 -8 11 -16 -6 -9 -6 -10
-10 -9 10 -17 -5 -9 -5 -9
-10 -9 10 -17 -5 -9 -5 -9
-10 -9 10 -17 -6 -9 -5 -9
-10 -9 9 -17 -6 -9 -5 -9
-10 -9 9 -17 -7 -9 -5 -9
-11 -9 8 -17 -8 -10 -6 -8
-11 -9 8 -17 -8 -10 -6 -8
-11 -9 8 -17 -8 -10 -6 -8
-11 -9 7 -17 -8 -10 -6 -9
-11 -9 7 -17 -8 -10 -6 -9
-11 -8 6 -18 -8 -10 -6 -10
-11 -8 6 -18 -8 -10 -6 -10
-11 -8 6 -18 -8 -10 -6 -10
-11 -8 6 -18 -9 -11 -6 -11
-11 -8 6 -18 -9 -11 -6 -11
-11 -9 6 -19 -10 -12 -7 -12
-11 -9 6 -19 -10 -12 -7 -12
-11 -9 6 -20 -10 -12 -7 -12
-10 -9 6 -20 -10 -12 -7 -11
-10 -9 6 -21 -10 -12 -7 -11
-9 -9 5 -22 -10 -13 -6 -10
-9 -9 5 -22 -10 -13 -6 -10
-10 -9 5 -22 -10 -13 -6 -10
-11 -9 5 -22 -10 -13 -7 -10
-12 -9 5 -22 -10 -13 -7 -10
-13 -10 4 -21 -11 -14 -8 -11
-13 -10 4 -21 -11 -14 -8 -11
-13 -10 4 -21 -11 -14 -8 -11
-13 -11 4 -21 -11 -15 -8 -11
-13 -11 4 -21 -11 -15 -8 -11
-12 -12 5 -22 -11 -16 -7 -10
-12 -12 5 -22 -11 -16 -7 -10
-12 -12 5 -22 -11 -16 -7 -10
-12 -11 5 -22 -12 -16 -8 -11
-12 -11 5 -22 -12 -16 -8 -11
-12 -10 4 -21 -13 -16 -9 -12
-12 -10 4 -21 -13 -16 -9 -12
-12 -10 4 -21 -13 -16 -9 -12
-12 -10 4 -22 -13 -16 -9 -12
-12 -10 4 -22 -13 -16 -9 -12
-12 -11 5 -23 -14 -17 -8 -12
-12 -11 5 -23 -14 -17 -8 -12
-12 -11 5 -23 -15 -17 -9 -12
-11 -11 4 -23 -15 -18 -9 -13
-11 -11 4 -23 -16 -18 -10 -13
-10 -10 3 -23 -17 -19 -11 -14
-10 -10 3 -23 -17 -19 -11 -14
-10 -10 3 -23 -17 -19 -11 -14
-11 -11 3 -23 -17 -19 -10 -14
-11 -11 3 -23 -17 -19 -10 -14
-12 -12 4 -23 -16 -19 -9 -13
-12 -12 4 -23 -16 -19 -9 -13
-12 -12 4 -23 -16 -19 -9 -13
-13 -12 4 -22 -16 -19 -9 -13
-13 -12 4 -22 -16 -19 -9 -13
-14 -11 4 -21 -16 -18 -9 -12
-14 -11 4 -21 -16 -18 -9 -12
-14 -11 4 -21 -16 -18 -9 -12
-14 -11 4 -21 -15 -18 -9 -12
-14 -11 4 -21 -15 -18 -9 -12
-13 -10 5 -21 -14 -17 -8 -11
-13 -10 5 -20 -14 -17 -8 -11
-13 -9 5 -19 -14 -17 -8 -11
-12 -9 6 -18 -13 -17 -8 -11
-12 -8 6 -17 -13 -17 -8 -11
-11 -7 7 -15 -12 -16 -7 -11
-10 -7 8 -14 -11 -15 -6 -10
-9 -6 10 -12 -9 -13 -5 -9
-8 -5 12 -11 -7 -12 -4 -8
-7 -4 14 -9 -5 -10 -3 -7
-5 -3 16 -7 -3 -8 -2 -5
-5 -3 16 -7 -3 -8 -2 -5
-5 -2 16 -6 -2 -8 -2 -5
-5 0 17 -5 -2 -7 0 -5
-5 1 17 -4 0 -7 0 -5
-5 2 18 -3 1 -6 1 -4
-4 1 17 -3 1 -6 1 -4
-3 0 16 -3 1 -6 1 -4
-2 -2 15 -3 1 -6 2 -3
0 -3 14 -3 1 -6 2 -3
2 -5 12 -2 2 -7 3 -2
2 -5 11 -2 2 -7 3 -2
2 -4 10 -3 1 -7 3 -2
2 -4 9 -4 0 -7 3 -2
2 -3 8 -5 -2 -7 3 -2
3 -2 6 -6 -3 -8 2 -2
3 -2 5 -8 -5 -10 1 -3
2 -3 3 -11 -7 -12 0 -4
2 -4 1 -14 -10 -14 -2 -5
1 -5 -2 -17 -12 -16 -3 -6
0 -6 -4 -20 -15 -18 -5 -7
0 -7 -3 -20 -15 -18 -6 -8
0 -8 -2 -20 -15 -19 -7 -9
-2 -10 0 -19 -15 -19 -8 -10
-2 -11 1 -19 -15 -20 -9 -11
-3 -13 2 -18 -16 -21 -11 -12
-3 -13 2 -18 -16 -21 -11 -12
-3 -13 2 -18 -15 -21 -10 -11
-3 -12 2 -18 -15 -20 -10 -11
-3 -12 2 -18 -14 -20 -9 -10
-4 -11 1 -17 -13 -19 -8 -9
-6 -11 1 -17 -13 -19 -9 -10
-9 -11 2 -17 -14 -20 -10 -11
-11 -11 2 -17 -14 -20 -11 -12
-14 -11 3 -17 -15 -21 -12 -13
-17 -12 4 -17 -16 -22 -13 -14
-17 -13 4 -17 -16 -22 -13 -14
-17 -14 4 -18 -17 -22 -13 -14
-18 -15 4 -19 -17 -23 -14 -14
-18 -16 4 -20 -18 -23 -14 -14
-19 -18 3 -21 -19 -24 -15 -14
-19 -18 3 -21 -19 -24 -15 -14
-20 -18 3 -21 -19 -24 -16 -15
-21 -19 3 -21 -20 -25 -16 -15
-22 -19 3 -21 -20 -25 -17 -16
-23 -20 3 -21 -21 -26 -18 -17
-23 -20 3 -21 -21 -26 -18 -17
-23 -20 3 -21 -21 -26 -18 -17
-23 -19 3 -20 -21 -26 -19 -18
-23 -19 3 -20 -21 -26 -19 -18
-23 -18 3 -19 -20 -26 -20 -19
-23 -18 3 -19 -20 -26 -20 -19
-23 -18 3 -19 -20 -26 -20 -19
-23 -18 4 -19 -20 -26 -20 -18
-23 -18 4 -19 -20 -26 -20 -18
-24 -19 5 -18 -20 -26 -20 -17
-24 -19 5 -18 -20 -26 -20 -17
-24 -19 5 -18 -20 -26 -20 -17
-24 -19 5 -18 -20 -26 -21 -18
-24 -19 5 -18 -20 -26 -21 -18
-25 -20 5 -17 -20 -27 -22 -19
-25 -20 5 -17 -20 -27 -22 -19
-25 -20 5 -17 -20 -27 -22 -19
-25 -20 5 -16 -20 -27 -22 -19
-25 -20 5 -16 -20 -27 -22 -19
-26 -19 5 -15 -19 -27 -21 -19
-26 -19 5 -15 -19 -27 -21 -19
-26 -19 5 -15 -19 -26 -21 -19
-26 -19 6 -14 -19 -26 -21 -19
-26 -19 6 -14 -19 -25 -21 -19
-26 -19 7 -13 -20 -24 -22 -19
-28 -21 9 -13 -21 -27 -24 -22
-30 -23 12 -13 -23 -30 -26 -25
-32 -25 15 -12 -24 -33 -29 -29
-34 -27 18 -12 -26 -36 -31 -32
-36 -29 21 -11 -28 -39 -34 -36
-36 -29 24 -5 -23 -36 -34 -36
-36 -29 28 3 -18 -32 -34 -36
-35 -30 31 9 -13 -29 -35 -36
-35 -30 35 16 -8 -25 -35 -36
-34 -31 39 23 -2 -21 -36 -35
-18 -19 32 31 16 -2 -19 -21
-2 -7 25 40 34 18 -2 -7
15 7 17 50 53 37 17 8
31 19 10 59 71 57 34 22
48 32 2 68 90 77 53 36
73 57 -26 51 105 107 86 64
100 82 -54 32 120 137 118 92
127 108 -81 15 136 168 152 119
153 134 -109 -4 151 197 185 147
180 159 -137 -22 168 228 219 175
183 184 -153 -39 165 239 240 197
186 210 -171 -57 162 251 262 220
190 234 -187 -74 160 262 283 242
193 260 -204 -92 157 273 305 265
196 284 -221 -109 155 284 326 287
174 264 -217 -124 112 241 290 265
149 241 -212 -139 69 196 254 240
125 220 -205 -154 26 152 217 217
100 197 -200 -169 -17 107 180 192
75 176 -195 -183 -60 63 143 169
54 148 -175 -177 -74 35 109 138
33 121 -155 -169 -88 9 76 108
13 95 -135 -160 -102 -18 43 77
-8 67 -115 -152 -115 -45 9 47
-28 40 -96 -144 -129 -71 -24 17
-28 33 -80 -120 -111 -64 -25 13
-27 26 -65 -97 -93 -55 -25 9
-26 20 -50 -73 -74 -46 -25 5
-25 13 -34 -50 -56 -36 -25 1
-24 7 -19 -26 -37 -27 -25 -4
-23 4 -13 -20 -32 -26 -26 -5
-22 1 -8 -14 -27 -25 -26 -6
-22 -3 -3 -8 -23 -24 -26 -7
-21 -6 3 -2 -18 -23 -26 -8
-21 -9 8 4 -14 -22 -26 -8
-20 -11 9 5 -13 -21 -27 -10
-20 -12 10 6 -13 -20 -28 -11
-21 -14 11 6 -12 -20 -29 -13
-21 -15 12 7 -12 -19 -30 -14
-21 -16 13 7 -12 -19 -31 -15
-22 -17 14 9 -11 -18 -32 -16
-22 -18 15 10 -10 -18 -33 -16
-23 -19 16 11 -10 -19 -34 -16
-23 -20 17 12 -9 -19 -35 -16
-23 -20 18 13 -9 -19 -36 -16
-24 -21 19 14 -8 -20 -37 -17
-24 -21 19 14 -8 -20 -37 -18
-24 -21 19 14 -8 -20 -37 -18
-24 -21 19 14 -8 -20 -37 -19
-24 -21 19 14 -8 -20 -37 -19
-23 -22 20 15 -7 -19 -37 -20
-23 -22 20 16 -6 -19 -37 -21
-23 -23 20 17 -5 -18 -37 -21
-23 -23 20 18 -4 -18 -37 -22
-23 -23 20 19 -4 -18 -37 -22
-24 -24 21 20 -3 -17 -38 -23
-23 -23 22 20 -3 -16 -38 -22
-22 -23 22 21 -2 -15 -37 -22
-21 -22 23 21 -2 -14 -37 -21
-21 -22 23 21 -2 -13 -37 -21
-20 -21 24 22 0 -12 -36 -20
-20 -22 24 23 0 -12 -37 -21
-21 -23 24 24 0 -13 -38 -21
-21 -24 24 25 0 -13 -39 -22
-21 -25 24 26 0 -13 -39 -22
-22 -26 24 27 0 -14 -40 -23
-22 -26 23 27 1 -13 -40 -23
-22 -26 23 27 1 -13 -39 -22
-22 -26 22 27 2 -12 -39 -22
-22 -26 22 27 2 -12 -39 -22
-21 -25 21 27 3 -11 -38 -21
-21 -25 21 28 4 -11 -38 -21
-21 -25 21 29 5 -10 -38 -21
-21 -25 21 30 6 -10 -38 -21
-21 -25 21 31 6 -10 -38 -21
-21 -24 22 32 7 -9 -39 -21
-20 -24 22 32 8 -8 -39 -20
-19 -24 23 32 9 -7 -39 -20
-18 -24 23 32 10 -6 -39 -19
-18 -24 23 32 10 -6 -39 -19
-17 -23 24 34 11 -5 -38 -18
-16 -23 24 35 11 -5 -38 -18
-15 -22 24 36 12 -4 -39 -18
-14 -22 24 37 12 -4 -39 -18
-14 -22 24 38 12 -4 -39 -18
-13 -21 24 39 13 -3 -40 -19
-12 -21 24 40 14 -2 -39 -18
-11 -20 24 40 15 -2 -39 -17
-10 -20 24 42 16 0 -38 -16
-10 -20 24 42 16 0 -38 -15
-9 -19 24 44 17 1 -37 -14
-10 -19 24 45 17 1 -37 -14
-10 -19 24 46 17 1 -38 -15
-11 -19 24 47 17 1 -38 -15
-11 -19 24 48 17 1 -38 -15
-11 -19 25 49 17 1 -39 -16
-10 -18 25 49 18 2 -38 -15
-8 -17 25 50 19 3 -37 -14
-7 -16 25 50 20 4 -36 -13
-6 -16 25 50 21 5 -35 -12
-5 -15 25 51 22 6 -34 -11
-5 -15 25 52 23 6 -34 -11
-4 -15 25 53 23 6 -34 -10
-4 -15 25 54 24 6 -34 -10
-4 -15 25 54 24 6 -34 -10
-2 -14 24 55 25 6 -35 -9
0 -13 24 55 25 7 -35 -8
2 -12 24 55 26 8 -34 -7
3 -11 24 55 26 9 -34 -6
4 -10 24 55 26 10 -34 -6
5 -9 23 55 27 11 -33 -5
6 -9 23 56 28 11 -33 -5
6 -8 22 57 29 11 -33 -4
7 -8 22 58 30 11 -33 -4
7 -8 22 59 30 11 -33 -4
9 -6 21 60 31 12 -32 -2
10 -5 20 60 31 13 -31 0
11 -4 20 59 31 13 -30 1
12 -3 19 59 31 14 -29 2
13 -2 19 59 31 14 -29 3
14 0 18 58 31 15 -28 4
14 1 17 58 31 15 -28 5
15 2 17 58 31 15 -28 5
15 3 16 58 31 15 -28 6
15 4 16 58 31 15 -28 6
16 5 14 57 30 16 -27 7
16 5 13 56 30 16 -27 7
17 5 12 55 30 16 -27 8
17 5 11 54 30 16 -27 8
17 5 10 53 30 16 -27 8
18 6 9 52 30 16 -26 9
18 6 9 52 29 16 -26 10
18 6 9 52 29 16 -26 10
18 6 9 52 28 16 -26 11
18 6 9 52 28 16 -26 11
17 7 8 51 27 15 -26 12
17 8 8 50 27 15 -26 13
18 9 7 50 27 16 -26 14
18 10 7 49 27 16 -26 15
18 10 7 49 27 16 -26 15
19 11 6 48 27 17 -25 16
18 11 6 47 26 16 -25 16
18 11 6 47 25 16 -26 16
17 11 6 46 24 15 -26 16
17 11 6 46 23 15 -26 16
16 11 5 44 22 14 -27 15
16 11 5 43 22 14 -28 15
16 11 6 42 22 15 -28 15
16 11 6 40 22 15 -29 15
16 11 6 39 22 15 -29 15
14 11 7 38 22 16 -31 15
12 10 8 37 21 16 -32 14
11 10 9 36 20 15 -33 13
9 9 10 35 19 15 -34 12
8 9 10 34 18 15 -35 11
6 7 11 32 17 14 -36 10
4 6 11 30 16 13 -37 9
2 4 11 29 15 12 -38 8
1 3 11 27 14 11 -39 7
-2 2 11 26 14 10 -40 7
-4 1 12 25 12 9 -43 5
-6 0 13 24 11 8 -45 3
-7 -2 14 24 9 7 -47 2
-9 -3 15 23 8 6 -48 0
-10 -3 15 23 7 6 -50 -2
-11 -4 16 21 6 5 -52 -3
-11 -5 16 19 5 4 -53 -3
-11 -6 16 17 5 4 -54 -4
-11 -7 16 16 4 3 -55 -4
-11 -8 16 14 4 3 -56 -4
-12 -9 17 13 3 2 -57 -5
-13 -10 18 13 2 1 -58 -6
-14 -11 18 12 1 0 -59 -7
-15 -12 19 12 0 -2 -60 -8
-15 -12 19 12 -2 -3 -61 -9
-16 -13 20 11 -3 -4 -61 -10
-16 -13 20 11 -3 -4 -60 -10
-16 -12 21 11 -3 -4 -58 -10
-16 -12 21 11 -3 -4 -57 -10
-16 -12 21 11 -3 -4 -56 -10
-16 -11 22 10 -4 -4 -55 -11
-16 -11 22 10 -4 -4 -54 -11
-16 -12 22 10 -4 -4 -54 -11
-16 -12 22 10 -4 -4 -53 -11
-16 -12 22 10 -4 -4 -53 -11
-17 -13 22 10 -5 -5 -51 -11
-17 -13 22 10 -5 -5 -50 -11
-17 -12 22 9 -4 -5 -48 -11
-17 -12 22 9 -4 -5 -47 -11
-17 -12 22 9 -4 -5 -46 -11
-18 -11 23 8 -3 -4 -45 -10
-18 -11 23 8 -3 -4 -44 -10
-18 -12 23 8 -4 -5 -43 -10
-18 -12 23 8 -4 -5 -41 -10
-18 -12 23 8 -4 -5 -40 -10
-17 -13 23 8 -5 -6 -38 -11
-17 -13 23 8 -5 -6 -37 -11
-17 -12 23 8 -5 -5 -36 -11
-17 -12 23 8 -5 -5 -34 -11
-17 -12 23 8 -5 -5 -33 -11
-16 -11 24 7 -5 -4 -32 -10
-16 -11 24 7 -5 -4 -31 -10
-16 -11 24 7 -4 -4 -30 -10
-16 -11 24 7 -4 -4 -29 -10
-16 -11 24 7 -4 -4 -29 -10
-17 -11 23 8 -3 -4 -27 -11
-17 -11 23 8 -3 -4 -26 -11
-17 -10 23 8 -3 -4 -25 -11
-17 -10 23 8 -3 -4 -24 -11
-17 -10 23 8 -3 -4 -23 -11
-16 -9 23 7 -4 -5 -22 -10
-16 -10 23 7 -4 -5 -21 -10
-16 -11 23 6 -4 -5 -20 -10
-16 -12 23 6 -4 -5 -19 -10
-16 -12 23 6 -4 -5 -18 -10
-17 -13 22 5 -3 -6 -16 -11
-17 -13 22 5 -3 -6 -15 -11
-17 -12 22 5 -3 -6 -14 -10
-17 -12 22 5 -3 -6 -13 -10
-17 -12 22 5 -3 -6 -12 -10
-16 -11 22 5 -4 -5 -11 -9
-16 -11 22 5 -4 -5 -10 -9
-17 -11 22 5 -4 -5 -9 -10
-17 -11 22 5 -4 -5 -8 -10
-17 -11 22 5 -4 -5 -8 -10
-18 -12 22 5 -5 -6 -7 -11
-18 -12 22 5 -5 -6 -5 -11
-18 -13 22 4 -5 -6 -4 -10
-18 -13 22 4 -5 -6 -3 -10
-18 -13 22 4 -5 -6 -2 -10
-18 -14 21 3 -5 -5 0 -9
-18 -14 21 3 -6 -6 1 -10
-18 -14 21 2 -6 -6 2 -10
-18 -14 21 2 -7 -7 3 -11
-18 -14 21 2 -7 -7 3 -11
-18 -13 20 1 -8 -8 4 -12
-19 -14 20 1 -8 -8 6 -12
-19 -15 19 0 -8 -8 7 -12
-20 -16 19 0 -8 -8 8 -12
-20 -16 19 0 -8 -8 9 -12
-21 -17 18 -2 -8 -7 10 -12
-21 -17 18 -2 -8 -7 10 -12
-21 -17 18 -2 -8 -8 10 -12
-21 -17 18 -2 -8 -8 10 -12
-21 -17 18 -2 -8 -8 10 -12
-22 -16 19 -3 -9 -9 10 -13
-22 -16 19 -4 -9 -9 10 -13
-22 -16 19 -4 -9 -9 10 -13
-22 -16 19 -5 -9 -9 10 -13
-22 -16 19 -5 -9 -9 10 -13
-21 -16 19 -6 -10 -9 9 -12
-21 -16 19 -6 -11 -9 9 -13
-21 -17 18 -6 -11 -10 8 -13
-21 -17 18 -6 -12 -10 8 -14
-21 -17 18 -6 -12 -10 8 -14
-22 -18 17 -6 -13 -11 7 -15
-22 -18 17 -6 -13 -11 7 -15
-22 -18 17 -6 -12 -11 7 -14
-22 -18 17 -6 -12 -11 7 -14
-22 -18 17 -6 -12 -11 7 -14
-21 -17 17 -7 -11 -11 7 -13
-21 -17 17 -7 -11 -11 6 -13
-21 -18 17 -7 -12 -11 5 -13
-21 -18 17 -7 -12 -11 4 -13
-21 -18 17 -7 -12 -11 4 -13
-21 -19 17 -7 -13 -12 3 -14
-21 -19 17 -8 -13 -12 3 -14
-21 -19 16 -8 -14 -13 2 -14
-21 -19 16 -9 -14 -13 2 -14
-21 -19 16 -9 -14 -13 2 -14
-21 -18 15 -10 -15 -14 1 -15
-21 -18 15 -10 -15 -14 0 -15
-21 -17 15 -10 -15 -14 0 -15
-21 -17 15 -10 -15 -14 -2 -15
-21 -17 15 -10 -15 -14 -2 -15
-22 -16 14 -10 -15 -15 -3 -15
-21 -16 14 -10 -15 -14 -3 -14
-20 -15 14 -10 -14 -14 -2 -14
-19 -15 14 -10 -14 -13 -2 -13
-19 -15 14 -10 -14 -13 -2 -13
-18 -13 14 -9 -12 -12 0 -12
-17 -12 15 -7 -10 -10 1 -11
-16 -10 17 -5 -8 -9 2 -11
-15 -8 19 -4 -7 -8 3 -10
-14 -7 20 -2 -5 -7 4 -10
-13 -6 22 0 -4 -6 5 -9
-12 -5 23 1 -3 -5 5 -8
-11 -4 24 2 -2 -4 6 -7
-10 -3 26 3 0 -3 6 -6
-10 -2 27 4 0 -2 6 -6
-9 0 28 5 1 0 7 -5
-9 -2 26 5 2 0 7 -5
-9 -2 25 5 2 0 7 -5
-9 -3 24 5 3 0 7 -5
-9 -3 23 5 3 0 7 -5
-7 -4 22 6 4 0 7 -4
-5 -4 21 6 4 0 7 -4
-3 -4 21 6 4 0 7 -3
0 -4 20 6 4 0 7 -3
2 -4 20 6 4 0 7 -3
3 -5 17 4 2 0 6 -2
2 -5 13 1 0 -3 5 -3
1 -4 10 -3 -4 -5 4 -4
0 -4 7 -7 -6 -7 2 -5
-2 -4 3 -10 -8 -9 1 -5
-3 -4 2 -11 -10 -11 -2 -7
-4 -6 2 -12 -11 -12 -3 -8
-4 -9 2 -13 -13 -13 -5 -9
-5 -11 2 -14 -15 -15 -7 -11
-5 -13 2 -14 -16 -16 -8 -12
-6 -14 3 -15 -17 -17 -9 -13
-6 -13 3 -15 -17 -17 -9 -13
-6 -13 3 -16 -17 -17 -9 -13
-6 -12 3 -16 -17 -17 -9 -13
-6 -12 3 -16 -17 -17 -9 -13
-6 -11 4 -17 -16 -17 -10 -12
-7 -11 4 -17 -16 -17 -10 -12
-8 -11 4 -17 -16 -16 -10 -12
-10 -11 4 -17 -16 -16 -10 -12
-11 -11 4 -17 -16 -16 -10 -12
-12 -12 3 -16 -15 -15 -11 -13
-13 -12 4 -16 -15 -16 -12 -14
-14 -12 5 -17 -16 -17 -13 -14
-15 -12 6 -17 -16 -18 -14 -15
-16 -12 6 -17 -16 -18 -14 -15
-17 -13 7 -18 -17 -19 -15 -16
-18 -14 6 -19 -17 -19 -15 -16
-18 -14 6 -19 -18 -20 -16 -16
-19 -15 5 -20 -18 -20 -16 -16
-19 -15 5 -20 -18 -20 -16 -16
-20 -16 4 -21 -19 -21 -17 -16
-20 -16 4 -21 -20 -21 -17 -16
-20 -17 4 -21 -20 -21 -18 -17
-20 -17 4 -21 -21 -21 -18 -17
-20 -17 4 -21 -21 -21 -18 -17
-20 -18 4 -21 -22 -22 -19 -18
-20 -18 3 -21 -22 -22 -19 -18
-20 -18 3 -21 -22 -22 -19 -18
-20 -18 2 -21 -22 -22 -19 -18
-20 -18 2 -21 -22 -22 -19 -18
-21 -19 1 -20 -22 -21 -20 -19
-21 -19 1 -20 -22 -21 -21 -19
-21 -19 1 -20 -22 -21 -21 -19
-21 -19 1 -20 -22 -21 -22 -19
-21 -19 1 -20 -22 -21 -22 -19
-22 -18 2 -21 -22 -22 -23 -19
-22 -18 2 -21 -22 -21 -23 -19
-22 -18 2 -21 -21 -21 -23 -18
-22 -18 2 -21 -21 -20 -23 -18
-22 -18 2 -21 -21 -20 -23 -18
-22 -18 3 -20 -20 -19 -22 -17
-22 -18 2 -20 -20 -19 -22 -17
-22 -18 1 -20 -20 -20 -22 -17
-22 -18 1 -20 -20 -20 -22 -17
-22 -18 0 -20 -20 -20 -22 -17
-23 -19 -2 -19 -20 -21 -22 -16
-23 -19 0 -19 -20 -21 -22 -17
-23 -19 0 -19 -20 -22 -22 -17
-23 -19 1 -19 -20 -22 -22 -18
-23 -19 1 -19 -20 -22 -22 -18
-24 -22 4 -17 -21 -25 -26 -21
-26 -26 8 -15 -21 -27 -30 -25
-28 -30 12 -12 -22 -30 -34 -29
-31 -35 16 -9 -22 -33 -38 -33
-33 -39 20 -6 -22 -36 -43 -36
-30 -37 22 2 -16 -30 -39 -34
-24 -31 22 10 -6 -21 -31 -28
-18 -24 22 18 5 -11 -23 -22
-12 -18 22 27 15 0 -16 -16
-6 -11 22 35 25 10 -8 -10
13 4 13 39 40 28 12 5
36 21 -4 42 60 52 34 22
59 38 -19 44 78 74 58 39
82 56 -35 46 97 98 80 57
106 74 -51 48 115 120 104 75
130 99 -75 33 128 146 134 100
152 127 -102 11 138 172 168 130
176 154 -130 -12 147 197 200 158
198 182 -157 -34 157 224 233 187
222 210 -185 -57 168 250 266 216
221 225 -196 -75 156 253 276 230
207 235 -202 -93 135 244 276 237
194 245 -207 -110 113 236 277 244
182 256 -213 -128 92 228 277 252
169 266 -219 -144 71 220 277 259
144 246 -215 -157 36 182 246 237
115 213 -206 -168 -3 131 200 200
86 178 -197 -177 -43 80 153 164
56 144 -189 -187 -81 29 107 129
26 110 -180 -197 -121 -22 61 92
12 89 -162 -187 -128 -40 37 70
3 73 -141 -164 -117 -45 24 54
-6 58 -119 -143 -107 -50 10 37
-15 42 -99 -120 -97 -54 -4 22
-23 26 -77 -99 -87 -59 -17 6
-25 19 -64 -81 -75 -56 -22 0
-22 16 -54 -67 -63 -49 -20 -3
-20 12 -44 -52 -52 -41 -19 -5
-17 9 -33 -37 -39 -33 -18 -7
-14 6 -23 -22 -28 -26 -17 -9
-13 3 -17 -15 -22 -23 -16 -10
-13 0 -14 -12 -19 -22 -17 -11
-13 -4 -10 -8 -16 -21 -17 -12
-13 -7 -7 -5 -13 -20 -18 -12
-13 -10 -4 -2 -10 -19 -18 -13
-14 -11 -2 1 -9 -18 -19 -14
-14 -12 1 2 -9 -18 -19 -14
-15 -12 2 3 -9 -19 -20 -14
-15 -13 4 3 -9 -19 -20 -14
-15 -13 5 4 -9 -19 -20 -14
-16 -14 6 5 -9 -20 -21 -15
-16 -15 6 6 -7 -20 -21 -16
-16 -16 6 7 -6 -20 -21 -16
-16 -16 6 7 -5 -20 -21 -17
-16 -17 6 8 -4 -20 -21 -17
-16 -18 6 9 -3 -19 -22 -18
-16 -18 6 10 -3 -19 -22 -18
-15 -18 7 11 -3 -19 -22 -18
-15 -18 7 11 -3 -19 -22 -18
-15 -18 7 12 -3 -19 -22 -18
-14 -18 8 13 -3 -18 -22 -17
-14 -18 8 13 -3 -18 -22 -17
-14 -18 8 13 -2 -18 -21 -17
-14 -18 8 13 -2 -18 -21 -17
-14 -18 8 13 -2 -18 -21 -17
-13 -19 8 14 0 -17 -20 -18
-13 -19 9 14 1 -17 -20 -17
-13 -18 10 15 1 -16 -19 -17
-13 -18 10 15 2 -16 -19 -16
-13 -18 11 15 2 -16 -19 -16
-12 -17 12 16 3 -15 -18 -15
-12 -17 12 17 4 -15 -18 -15
-12 -17 12 19 5 -14 -18 -16
-12 -17 12 20 5 -13 -18 -17
-12 -17 12 21 6 -13 -18 -17
-11 -18 12 22 7 -12 -18 -18
-11 -18 12 22 7 -12 -18 -18
-10 -17 12 22 7 -12 -17 -17
-10 -17 12 22 7 -12 -17 -16
-10 -17 12 22 7 -12 -17 -16
-9 -16 13 23 8 -12 -16 -15
-8 -17 13 24 9 -12 -16 -15
-7 -18 13 25 10 -12 -16 -15
-7 -18 13 26 11 -12 -16 -15
-6 -19 13 27 12 -12 -16 -15
-5 -20 14 28 13 -11 -16 -16
-5 -20 14 28 13 -11 -16 -16
-5 -19 13 29 13 -10 -15 -16
-5 -18 12 30 13 -10 -15 -16
-5 -18 12 30 13 -10 -15 -16
-6 -17 11 31 13 -9 -14 -16
-5 -16 11 32 14 -9 -14 -16
-4 -15 12 33 15 -8 -14 -16
-4 -14 12 33 16 -7 -14 -16
-3 -13 12 34 17 -7 -14 -16
-2 -12 13 35 18 -6 -14 -17
-2 -12 13 36 18 -6 -14 -16
-2 -13 13 37 18 -6 -13 -15
-2 -14 13 37 18 -6 -12 -15
-2 -14 13 38 18 -6 -12 -14
-2 -15 12 40 18 -6 -11 -13
-2 -15 12 42 19 -5 -10 -13
0 -14 12 44 21 -4 -9 -12
0 -14 12 45 22 -3 -8 -12
0 -14 12 47 23 -2 -7 -12
1 -13 13 48 24 0 -6 -11
2 -13 13 48 24 0 -6 -11
4 -13 12 48 23 -2 -6 -10
5 -13 12 48 23 -2 -6 -10
6 -13 12 48 23 -2 -6 -10
7 -12 11 47 22 -3 -7 -9
8 -12 11 48 23 -3 -7 -9
9 -11 11 49 25 -2 -6 -8
9 -11 11 50 26 0 -6 -8
10 -11 11 51 27 0 -6 -8
11 -10 10 52 28 1 -5 -7
11 -9 10 52 28 1 -4 -7
12 -8 9 52 28 1 -3 -6
13 -7 8 52 28 1 -3 -6
13 -6 8 52 28 1 -2 -6
14 -5 7 53 28 2 0 -5
15 -4 7 54 29 3 2 -4
17 -3 7 56 30 4 3 -2
18 -3 7 57 31 4 5 0
19 -2 7 58 32 5 6 1
20 0 6 59 33 6 7 2
21 1 5 59 32 6 7 2
22 2 4 58 31 6 8 3
22 3 3 58 31 6 8 4
23 4 2 58 30 6 8 4
24 5 1 57 29 6 9 5
24 6 0 57 30 6 10 6
24 8 -2 57 31 7 11 7
24 9 -3 57 31 8 11 8
24 10 -4 57 32 8 12 9
24 11 -5 58 33 9 13 10
25 11 -5 58 33 9 14 11
27 12 -5 58 32 9 15 12
28 12 -5 58 32 9 16 13
29 12 -5 58 32 9 17 14
30 13 -6 57 31 10 18 15
30 13 -6 57 31 10 18 15
30 14 -7 56 30 9 19 16
30 14 -7 56 30 9 19 17
30 14 -7 56 30 9 19 17
30 15 -8 55 29 8 20 18
30 16 -8 55 29 8 20 18
30 17 -8 55 29 8 20 18
30 18 -8 55 29 8 20 18
30 19 -8 55 29 8 20 18
30 20 -8 54 28 8 19 17
30 20 -8 53 28 8 19 17
30 20 -8 52 28 8 20 18
30 20 -8 52 28 8 20 18
30 20 -8 51 28 8 20 18
30 20 -8 50 28 9 21 19
30 20 -8 50 28 9 21 19
29 19 -7 49 27 9 20 18
28 19 -6 49 26 9 19 17
28 19 -6 49 26 9 19 17
27 18 -5 48 25 8 17 16
25 17 -5 46 24 7 15 14
23 16 -4 44 22 5 13 13
22 15 -3 43 21 4 11 11
20 14 -3 40 20 3 9 10
19 13 -2 39 19 2 8 9
17 12 0 38 17 2 7 7
15 11 1 37 16 1 5 6
14 10 2 36 14 0 4 4
12 9 3 35 13 0 3 3
11 7 4 34 12 -2 2 2
10 6 4 33 12 -2 2 2
8 4 5 32 11 -3 1 1
7 2 5 31 11 -4 0 0
6 0 5 30 11 -4 0 0
5 -2 6 29 10 -5 -2 -2
4 -2 6 28 8 -6 -2 -2
2 -3 6 27 7 -7 -2 -2
1 -3 6 26 5 -7 -2 -2
0 -3 6 25 4 -8 -2 -2
-2 -4 7 24 3 -9 -3 -2
-2 -5 8 24 3 -10 -4 -4
-3 -6 9 24 2 -11 -6 -6
-4 -6 10 24 2 -11 -7 -7
-4 -7 11 24 2 -12 -8 -9
-5 -8 12 23 1 -13 -9 -10
-5 -8 12 23 0 -13 -9 -10
-5 -7 12 23 -2 -14 -9 -10
-5 -7 12 23 -3 -14 -9 -10
-5 -7 12 23 -4 -14 -9 -10
-4 -6 11 22 -5 -15 -10 -11
-4 -6 11 22 -5 -15 -10 -11
-5 -7 11 22 -5 -14 -10 -11
-5 -7 11 22 -5 -14 -10 -11
-5 -7 11 22 -5 -14 -10 -11
-6 -8 11 22 -4 -13 -11 -12
-6 -8 12 22 -4 -13 -11 -12
-6 -8 13 22 -4 -13 -10 -11
-6 -8 13 22 -4 -13 -10 -10
-6 -8 14 22 -4 -13 -10 -10
-5 -9 15 23 -3 -13 -9 -9
-5 -9 14 23 -3 -13 -9 -9
-5 -9 12 22 -3 -13 -9 -9
-5 -9 11 21 -3 -13 -9 -9
-5 -9 10 21 -3 -13 -9 -9
-6 -10 9 20 -4 -13 -8 -10
-6 -10 9 20 -4 -13 -8 -10
-6 -9 10 20 -4 -13 -9 -10
-6 -8 11 20 -4 -13 -10 -10
-6 -8 11 20 -4 -13 -10 -10
-5 -7 12 21 -4 -13 -11 -10
-5 -7 12 21 -4 -13 -11 -10
-5 -7 13 21 -4 -13 -11 -10
-5 -7 13 21 -4 -13 -11 -10
-5 -7 13 21 -4 -13 -11 -10
-6 -8 14 21 -4 -14 -11 -9
-6 -8 15 21 -4 -14 -11 -9
-7 -8 16 21 -4 -14 -11 -9
-7 -8 16 21 -4 -14 -11 -9
-7 -8 17 21 -4 -14 -11 -9
-8 -9 18 21 -5 -14 -12 -10
-8 -9 18 21 -5 -14 -12 -10
-8 -9 17 21 -5 -14 -12 -10
-8 -9 17 21 -5 -14 -12 -10
-8 -9 17 21 -5 -14 -12 -10
-7 -9 16 20 -5 -13 -11 -11
-7 -9 16 20 -5 -13 -11 -11
-7 -9 15 19 -5 -13 -10 -10
-7 -9 15 19 -5 -13 -9 -9
-7 -9 15 19 -5 -13 -9 -9
-7 -10 14 18 -6 -12 -8 -8
-7 -11 14 18 -6 -12 -8 -8
-8 -12 15 18 -6 -12 -9 -9
-8 -12 15 18 -6 -12 -10 -10
-8 -13 15 18 -6 -12 -10 -10
-9 -14 16 17 -6 -13 -11 -11
-9 -14 16 17 -6 -13 -11 -11
-9 -13 15 16 -7 -14 -11 -10
-9 -12 15 16 -8 -14 -11 -10
-9 -12 15 16 -8 -14 -11 -10
-9 -11 14 15 -9 -15 -10 -9
-9 -11 14 15 -9 -15 -10 -9
-9 -12 15 15 -9 -15 -11 -9
-9 -12 15 15 -9 -15 -11 -9
-9 -12 15 15 -9 -15 -11 -9
-9 -13 16 14 -8 -15 -12 -9
-9 -13 16 13 -8 -15 -12 -9
-9 -14 16 12 -9 -15 -12 -10
-9 -15 16 12 -9 -15 -12 -11
-9 -15 16 11 -9 -15 -12 -11
-10 -16 17 10 -10 -16 -12 -12
-10 -16 17 10 -10 -16 -12 -12
-11 -16 16 9 -11 -17 -13 -13
-11 -16 16 8 -11 -17 -13 -13
-11 -16 16 8 -11 -17 -13 -13
-12 -16 15 7 -12 -18 -14 -14
-12 -16 15 7 -12 -18 -14 -14
-12 -17 15 7 -12 -18 -14 -13
-12 -17 15 7 -12 -18 -14 -13
-12 -17 15 7 -12 -18 -14 -13
-12 -18 15 7 -13 -17 -13 -12
-12 -18 15 7 -13 -17 -13 -12
-12 -17 15 7 -13 -17 -14 -13
-12 -17 15 7 -13 -17 -15 -14
-12 -17 15 7 -13 -17 -15 -14
-11 -16 16 6 -14 -18 -16 -15
-11 -16 16 6 -14 -18 -16 -15
-12 -16 15 5 -15 -18 -16 -15
-12 -16 15 4 -15 -18 -16 -15
-12 -16 15 4 -15 -18 -16 -15
-13 -16 14 3 -16 -17 -16 -15
-13 -16 14 3 -16 -17 -16 -15
-13 -16 14 3 -16 -18 -16 -14
-13 -16 14 3 -16 -19 -16 -14
-13 -16 14 3 -16 -19 -16 -14
-12 -17 14 2 -17 -20 -15 -13
-12 -17 14 2 -17 -20 -15 -13
-12 -17 15 2 -17 -20 -15 -13
-12 -17 16 2 -17 -20 -15 -13
-12 -17 16 2 -17 -20 -15 -13
-13 -18 17 2 -17 -19 -16 -14
-13 -18 17 2 -17 -19 -16 -14
-13 -18 17 2 -16 -19 -16 -14
-13 -17 17 2 -15 -19 -16 -14
-13 -17 17 2 -15 -19 -16 -14
-13 -16 16 3 -14 -18 -16 -13
-12 -15 18 5 -12 -16 -14 -13
-11 -14 20 6 -11 -14 -13 -12
-10 -12 22 8 -10 -12 -12 -11
-9 -11 24 10 -8 -10 -10 -11
-8 -10 25 11 -7 -8 -9 -10
-7 -9 26 11 -6 -8 -9 -10
-6 -9 26 12 -6 -8 -9 -9
-5 -8 27 13 -5 -8 -9 -8
-4 -7 28 13 -4 -8 -9 -8
-3 -6 29 14 -3 -7 -8 -7
-3 -6 29 14 -3 -7 -8 -7
-3 -7 29 14 -3 -7 -8 -7
-3 -8 28 14 -2 -6 -8 -7
-3 -8 28 14 -2 -6 -8 -7
-2 -9 27 14 0 -5 -7 -6
1 -9 25 14 0 -4 -6 -6
2 -9 24 14 1 -3 -6 -6
4 -8 23 15 2 -2 -5 -6
6 -8 21 15 2 0 -4 -6
7 -7 19 15 2 0 -3 -6
6 -6 16 11 -2 -3 -4 -6
6 -5 13 7 -5 -5 -5 -6
5 -4 9 3 -8 -7 -7 -6
4 -3 6 -2 -11 -9 -8 -6
3 -3 4 -4 -13 -11 -9 -6
1 -7 6 -5 -14 -12 -11 -8
0 -11 7 -6 -15 -13 -12 -10
-2 -15 9 -7 -16 -14 -14 -12
-4 -19 11 -8 -17 -15 -16 -14
-5 -22 12 -9 -18 -16 -17 -15
-5 -21 12 -9 -18 -16 -17 -15
-5 -21 11 -9 -18 -16 -16 -14
-5 -20 10 -9 -17 -15 -15 -13
-5 -19 10 -9 -17 -15 -15 -13
-5 -18 9 -9 -16 -14 -14 -12
-6 -18 9 -9 -16 -15 -15 -13
-7 -18 9 -9 -16 -15 -15 -14
-8 -18 9 -9 -17 -16 -16 -15
-9 -18 9 -9 -17 -17 -17 -16
-10 -18 8 -10 -18 -18 -18 -17
-12 -18 8 -11 -19 -18 -18 -17
-14 -19 8 -12 -20 -18 -19 -17
-16 -20 8 -14 -21 -19 -20 -17
-18 -20 8 -15 -22 -19 -20 -17
-19 -21 7 -16 -23 -20 -21 -17
-19 -21 7 -16 -23 -20 -21 -17
-19 -21 7 -16 -23 -20 -21 -17
-20 -21 7 -17 -23 -20 -21 -18
-20 -21 7 -17 -23 -20 -21 -18
-21 -20 7 -18 -23 -21 -22 -19
-21 -22 7 -18 -23 -21 -22 -19
-21 -24 8 -18 -23 -21 -22 -19
-21 -26 9 -18 -24 -21 -22 -19
-21 -28 9 -18 -24 -21 -22 -19
-22 -29 10 -17 -25 -20 -23 -19
-22 -28 9 -17 -25 -20 -23 -19
-22 -28 9 -17 -25 -20 -23 -19
-22 -27 8 -17 -25 -20 -23 -20
-22 -26 7 -17 -25 -20 -23 -20
-23 -25 6 -18 -24 -20 -23 -21
-23 -24 6 -18 -24 -20 -23 -21
-23 -24 6 -18 -24 -20 -23 -21
-22 -23 6 -18 -23 -20 -23 -21
-22 -22 6 -18 -23 -20 -23 -21
-21 -21 6 -18 -22 -19 -22 -20
-22 -22 6 -18 -22 -19 -22 -20
-22 -23 6 -18 -22 -19 -22 -20
-23 -25 6 -18 -22 -19 -23 -20
-24 -26 6 -18 -22 -19 -23 -20
-25 -27 7 -19 -23 -18 -24 -20
-25 -26 7 -19 -23 -18 -24 -20
-25 -26 6 -19 -23 -18 -24 -20
-25 -25 5 -19 -23 -18 -24 -20
-25 -24 5 -19 -23 -18 -24 -20
-24 -23 4 -19 -23 -18 -23 -19
-25 -24 4 -19 -23 -19 -24 -21
-25 -25 4 -19 -23 -19 -25 -22
-26 -27 4 -19 -23 -20 -27 -23
-27 -28 4 -19 -23 -21 -28 -25
-28 -30 6 -18 -24 -23 -30 -27
-30 -33 10 -16 -24 -25 -35 -31
-32 -37 13 -13 -25 -27 -40 -36
-34 -40 17 -10 -26 -30 -45 -40
-36 -45 20 -7 -26 -32 -50 -45
-36 -45 23 -2 -23 -30 -49 -45
-31 -37 22 7 -11 -19 -39 -36
-26 -30 20 16 1 -7 -29 -29
-21 -23 19 24 13 5 -19 -21
-16 -16 17 33 24 16 -9 -13
-2 -3 9 38 39 34 10 2
25 18 -10 39 62 63 38 24
51 38 -29 40 84 92 68 48
77 60 -48 43 105 120 98 70
104 80 -66 44 127 149 128 93
127 104 -87 36 143 177 158 118
144 131 -109 16 153 203 191 148
162 158 -132 -5 162 230 224 177
180 185 -154 -25 172 257 257 205
197 213 -177 -46 181 283 289 235
202 231 -192 -66 176 293 307 253
186 238 -197 -86 148 273 301 255
169 245 -201 -106 119 254 296 256
152 253 -206 -127 91 234 289 258
136 259 -211 -147 63 216 283 260
114 250 -208 -162 30 184 259 245
87 213 -194 -172 -9 135 209 205
59 177 -180 -180 -48 86 159 165
31 140 -165 -189 -86 37 109 126
4 104 -152 -197 -124 -12 59 87
-15 76 -138 -195 -144 -43 24 57
-20 61 -124 -176 -133 -47 12 43
-25 46 -111 -155 -121 -50 1 28
-29 30 -98 -135 -109 -54 -12 15
-34 15 -83 -114 -98 -57 -24 1
-36 5 -72 -96 -86 -57 -30 -9
-33 3 -63 -79 -73 -48 -27 -9
-30 0 -55 -64 -60 -38 -24 -9
-27 -3 -46 -48 -47 -29 -21 -8
-24 -6 -37 -31 -33 -20 -18 -8
-22 -8 -30 -21 -25 -14 -16 -7
-22 -10 -27 -18 -23 -14 -17 -9
-22 -12 -24 -16 -21 -14 -18 -11
-22 -14 -21 -13 -19 -13 -20 -13
-22 -16 -18 -11 -17 -13 -21 -15
-21 -18 -16 -9 -15 -12 -22 -17
-21 -19 -16 -8 -15 -12 -22 -17
-21 -19 -15 -7 -15 -12 -22 -17
-22 -20 -14 -5 -14 -12 -22 -18
-22 -21 -14 -4 -14 -12 -22 -18
-23 -22 -13 -3 -13 -13 -23 -19
-23 -22 -13 -3 -12 -12 -23 -19
-22 -23 -13 -3 -10 -12 -23 -19
-21 -24 -12 -2 -9 -11 -23 -19
-21 -24 -12 -2 -7 -10 -23 -19
-20 -25 -11 0 -6 -9 -24 -19
-20 -25 -11 0 -6 -9 -24 -19
-20 -25 -11 0 -6 -10 -24 -19
-21 -25 -11 0 -6 -11 -24 -19
-21 -25 -11 0 -6 -11 -24 -19
-22 -25 -11 1 -7 -12 -24 -20
-22 -25 -11 1 -7 -12 -24 -20
-22 -25 -11 1 -6 -12 -24 -20
-21 -25 -11 2 -5 -11 -23 -19
-21 -25 -11 2 -5 -11 -23 -19
-20 -24 -12 3 -4 -10 -22 -18
-20 -24 -12 3 -4 -10 -22 -18
-20 -24 -12 3 -4 -10 -22 -18
-19 -24 -12 4 -3 -10 -22 -18
-19 -24 -12 4 -3 -10 -22 -18
-18 -23 -13 5 -2 -9 -22 -19
-18 -24 -13 6 0 -8 -22 -19
-18 -24 -13 6 1 -7 -22 -19
-18 -25 -13 7 3 -6 -21 -19
-18 -26 -13 8 4 -5 -21 -19
-18 -27 -13 9 5 -4 -20 -18
-18 -27 -13 10 5 -4 -20 -18
-18 -27 -13 10 5 -4 -20 -18
-17 -26 -13 11 5 -3 -20 -18
-17 -26 -13 12 5 -3 -20 -18
-16 -25 -13 13 6 -2 -21 -19
-15 -25 -13 13 7 -2 -21 -19
-14 -24 -14 13 8 -2 -20 -19
-13 -23 -15 13 9 0 -19 -19
-12 -23 -15 13 10 0 -19 -19
-11 -22 -16 14 11 1 -18 -18
-11 -22 -16 15 11 1 -18 -18
-11 -22 -16 16 11 1 -18 -17
-11 -22 -16 17 11 1 -18 -16
-11 -22 -16 18 11 1 -18 -16
-11 -22 -15 19 12 1 -17 -15
-10 -22 -15 19 13 1 -17 -15
-10 -22 -15 19 14 2 -17 -15
-9 -22 -15 20 16 3 -17 -15
-8 -22 -15 20 17 3 -17 -15
-7 -21 -16 21 18 4 -16 -14
-7 -21 -16 22 18 4 -16 -14
-7 -21 -17 23 18 4 -16 -14
-7 -20 -18 24 18 5 -16 -14
-7 -20 -18 25 18 5 -16 -14
-7 -19 -19 26 19 6 -15 -15
-6 -19 -19 26 20 7 -14 -14
-6 -19 -19 26 21 7 -14 -14
-5 -19 -19 27 22 8 -13 -13
-4 -19 -19 27 23 9 -12 -12
-3 -18 -19 28 24 10 -11 -11
-2 -17 -19 29 24 10 -11 -11
0 -16 -19 30 24 10 -10 -11
1 -15 -20 31 24 10 -9 -10
2 -14 -20 32 24 10 -9 -10
3 -13 -21 33 24 10 -8 -9
3 -13 -21 34 25 11 -8 -9
3 -13 -21 34 27 11 -8 -8
3 -14 -22 35 28 12 -8 -7
3 -14 -22 36 30 13 -8 -7
4 -15 -23 37 31 14 -7 -6
4 -14 -23 37 31 14 -7 -6
5 -13 -23 37 31 14 -7 -6
6 -12 -24 37 31 14 -6 -5
6 -11 -24 37 31 14 -6 -5
7 -10 -25 38 30 13 -5 -4
8 -10 -26 38 30 13 -4 -4
9 -10 -27 38 30 13 -4 -4
10 -9 -28 37 30 13 -3 -3
12 -9 -30 37 30 13 -2 -3
13 -8 -31 36 31 14 0 -2
14 -7 -31 36 31 14 0 0
15 -5 -32 36 31 14 1 1
16 -4 -32 36 31 14 1 2
17 -2 -33 36 31 14 2 3
18 0 -34 37 31 14 3 4
18 0 -35 36 31 14 3 4
18 0 -35 35 31 14 4 4
18 1 -36 34 30 15 4 5
18 1 -37 33 30 15 5 5
19 2 -38 32 29 16 6 6
19 3 -39 32 28 16 6 6
19 5 -40 31 28 15 6 7
20 6 -41 31 27 15 6 7
20 8 -44 30 26 14 6 8
21 9 -45 29 25 13 6 9
21 9 -45 28 25 13 6 10
21 9 -45 27 25 13 7 10
21 9 -45 26 24 12 7 11
21 9 -45 25 24 12 8 12
20 9 -44 24 23 11 9 13
20 9 -44 23 23 11 9 13
20 9 -44 23 22 11 9 13
20 10 -44 22 22 11 10 14
20 10 -44 21 21 11 10 14
21 11 -45 20 20 10 11 15
21 11 -45 19 20 10 11 15
21 11 -45 19 20 10 11 15
20 11 -45 18 21 11 11 15
20 11 -45 17 21 11 11 15
19 11 -45 16 22 12 10 14
18 11 -45 15 21 12 10 13
16 11 -45 14 19 11 10 13
15 11 -45 13 18 11 9 12
13 11 -45 11 16 10 9 11
12 11 -45 10 15 9 8 10
11 10 -45 9 15 9 7 9
10 9 -45 8 15 9 6 9
9 8 -44 7 15 9 5 8
8 7 -44 6 15 9 4 7
7 6 -43 5 15 9 3 6
6 5 -41 4 14 8 2 6
4 4 -39 3 13 8 2 6
3 3 -38 2 12 7 1 5
1 2 -36 0 11 6 0 5
0 1 -35 -2 10 5 -2 4
-2 0 -34 -3 10 5 -3 3
-3 -2 -33 -3 9 4 -4 2
-4 -3 -32 -4 9 4 -5 1
-6 -5 -31 -5 8 3 -7 -2
-7 -6 -30 -6 7 2 -8 -3
-8 -7 -30 -7 6 2 -9 -4
-9 -8 -30 -8 5 1 -10 -6
-10 -9 -30 -9 4 1 -11 -7
-11 -10 -30 -10 3 0 -13 -9
-12 -11 -30 -11 2 -2 -14 -10
-12 -11 -29 -11 2 -2 -14 -10
-12 -11 -29 -11 2 -2 -14 -10
-13 -11 -28 -11 2 -3 -14 -10
-13 -11 -27 -11 2 -3 -14 -10
-14 -11 -26 -12 1 -4 -14 -11
-14 -11 -26 -12 1 -4 -14 -11
-14 -11 -26 -12 1 -4 -14 -10
-14 -11 -25 -12 0 -4 -14 -10
-14 -11 -25 -12 0 -4 -14 -9
-14 -10 -24 -12 -2 -5 -13 -8
-14 -10 -24 -12 -2 -5 -13 -8
-14 -10 -24 -12 -2 -5 -13 -9
-14 -11 -25 -12 -2 -5 -14 -9
-14 -11 -25 -12 -2 -5 -14 -10
-15 -12 -26 -13 -2 -5 -15 -11
-15 -12 -26 -13 -2 -5 -15 -11
-15 -12 -25 -13 -2 -5 -15 -11
-15 -12 -25 -13 -2 -5 -15 -11
-15 -12 -24 -13 -2 -5 -15 -11
-16 -13 -23 -13 -3 -6 -14 -11
-16 -14 -23 -13 -3 -6 -14 -11
-16 -15 -22 -13 -3 -6 -14 -11
-16 -16 -22 -13 -2 -6 -14 -11
-16 -17 -21 -13 -2 -6 -14 -11
-16 -18 -20 -13 0 -5 -13 -10
-16 -17 -20 -13 0 -5 -13 -10
-16 -16 -20 -13 0 -5 -13 -10
-16 -15 -20 -12 0 -5 -13 -10
-16 -14 -20 -12 0 -5 -13 -10
-15 -13 -21 -11 -2 -6 -14 -10
-15 -13 -21 -11 -2 -6 -14 -10
-15 -14 -21 -11 -2 -6 -14 -10
-15 -14 -20 -12 -2 -6 -14 -11
-15 -15 -20 -12 -2 -6 -14 -11
-16 -16 -19 -13 -2 -7 -15 -12
-16 -16 -19 -13 -2 -7 -15 -12
-16 -16 -19 -13 -2 -7 -15 -12
-16 -16 -19 -13 -2 -7 -15 -11
-16 -16 -19 -13 -2 -7 -15 -11
-15 -15 -18 -13 -3 -7 -14 -10
-15 -15 -18 -13 -3 -7 -14 -10
-15 -15 -18 -13 -3 -7 -14 -10
-15 -15 -18 -13 -3 -7 -14 -11
-15 -15 -18 -13 -3 -7 -14 -11
-14 -14 -19 -14 -4 -7 -15 -12
-14 -14 -19 -14 -4 -7 -15 -12
-14 -14 -19 -14 -5 -7 -15 -12
-14 -14 -19 -15 -5 -8 -15 -12
-14 -14 -19 -15 -6 -8 -15 -12
-15 -15 -18 -16 -7 -9 -16 -12
-15 -15 -18 -16 -7 -9 -16 -12
-15 -15 -18 -16 -7 -9 -16 -12
-16 -15 -17 -16 -7 -9 -16 -12
-16 -15 -17 -16 -7 -9 -16 -12
-17 -15 -16 -16 -6 -9 -15 -11
-17 -15 -16 -16 -6 -9 -15 -11
-17 -15 -16 -17 -7 -9 -15 -11
-17 -15 -16 -17 -7 -10 -15 -11
-17 -15 -16 -18 -8 -10 -15 -11
-17 -14 -15 -19 -9 -11 -14 -10
-17 -14 -15 -19 -9 -11 -14 -10
-17 -15 -15 -19 -9 -11 -14 -10
-17 -15 -15 -19 -9 -11 -14 -10
-17 -16 -15 -19 -9 -11 -14 -10
-17 -17 -14 -20 -9 -11 -14 -10
-17 -17 -14 -20 -9 -11 -14 -10
-17 -17 -14 -20 -10 -11 -15 -10
-17 -17 -14 -21 -10 -12 -15 -11
-17 -17 -14 -21 -11 -12 -16 -11
-17 -17 -14 -22 -12 -13 -17 -12
-17 -17 -14 -22 -12 -13 -17 -12
-17 -17 -14 -22 -12 -13 -17 -12
-17 -18 -14 -23 -12 -13 -17 -12
-17 -18 -14 -23 -12 -13 -17 -12
-17 -19 -13 -24 -12 -13 -17 -12
-17 -19 -13 -24 -12 -13 -17 -12
-17 -19 -12 -24 -12 -13 -17 -12
-17 -19 -12 -24 -13 -13 -17 -12
-17 -19 -11 -24 -13 -13 -17 -12
-18 -19 -10 -25 -14 -14 -17 -13
-18 -19 -10 -25 -14 -14 -17 -13
-18 -19 -10 -25 -14 -14 -17 -13
-18 -19 -9 -25 -14 -15 -17 -13
-18 -19 -9 -25 -14 -15 -17 -13
-17 -19 -8 -24 -15 -16 -17 -13
-17 -19 -8 -24 -15 -16 -17 -13
-17 -19 -8 -24 -15 -16 -17 -13
-18 -19 -9 -25 -15 -16 -18 -14
-18 -19 -9 -25 -15 -16 -18 -14
-19 -19 -10 -26 -16 -15 -19 -15
-19 -19 -10 -26 -16 -15 -19 -15
-19 -19 -10 -26 -16 -15 -19 -15
-18 -19 -9 -26 -16 -15 -19 -15
-18 -19 -9 -26 -16 -15 -19 -15
-17 -18 -8 -25 -17 -15 -18 -15
-17 -18 -8 -25 -17 -15 -18 -15
-17 -18 -7 -25 -17 -15 -18 -15
-17 -18 -7 -25 -17 -16 -18 -15
-17 -18 -6 -25 -17 -16 -18 -15
-18 -18 -5 -25 -17 -17 -19 -15
-18 -18 -5 -25 -17 -17 -19 -15
-18 -18 -5 -25 -18 -17 -19 -14
-18 -18 -5 -25 -18 -17 -19 -14
-18 -18 -5 -25 -19 -17 -19 -13
-17 -19 -5 -26 -20 -18 -18 -12
-17 -19 -5 -26 -19 -18 -18 -12
-17 -18 -5 -25 -18 -17 -18 -12
-17 -18 -5 -24 -17 -17 -18 -12
-17 -17 -5 -23 -16 -16 -18 -12
-17 -16 -4 -22 -15 -15 -17 -12
-16 -15 -3 -22 -15 -15 -17 -12
-15 -13 0 -21 -14 -14 -16 -12
-14 -11 1 -20 -13 -13 -15 -12
-12 -10 2 -19 -12 -12 -14 -12
-11 -8 4 -18 -11 -11 -13 -11
-11 -8 5 -17 -10 -11 -13 -10
-11 -8 7 -15 -9 -10 -12 -9
-11 -8 9 -13 -8 -9 -12 -8
-11 -8 10 -12 -7 -8 -11 -7
-10 -7 12 -10 -6 -7 -10 -6
-9 -7 12 -10 -6 -7 -10 -6
-7 -7 11 -10 -6 -7 -10 -6
-5 -7 10 -10 -5 -6 -9 -6
-4 -7 9 -10 -5 -6 -9 -6
-2 -8 8 -10 -4 -5 -8 -5
-2 -8 8 -10 -4 -5 -8 -5
-2 -8 7 -10 -4 -5 -8 -5
-2 -7 6 -10 -4 -5 -8 -4
-2 -7 5 -10 -4 -5 -8 -4
0 -6 4 -9 -4 -5 -7 -3
0 -6 2 -13 -7 -7 -8 -4
0 -7 -2 -16 -10 -9 -10 -6
0 -8 -4 -19 -12 -11 -12 -7
0 -9 -7 -23 -15 -14 -13 -8
0 -10 -9 -26 -18 -16 -15 -10
-2 -12 -8 -26 -18 -16 -15 -10
-4 -14 -6 -26 -19 -17 -16 -11
-5 -16 -5 -26 -20 -17 -16 -12
-6 -19 -4 -26 -21 -18 -17 -13
-8 -21 -2 -25 -22 -19 -18 -14
-8 -20 -2 -25 -22 -19 -18 -14
-8 -19 -2 -25 -22 -19 -17 -14
-7 -18 -2 -25 -21 -18 -17 -13
-7 -17 -2 -25 -21 -18 -16 -13
-6 -16 -2 -24 -20 -17 -15 -12
-7 -16 -2 -24 -20 -17 -15 -12
-8 -16 -2 -24 -20 -17 -16 -13
-9 -16 -2 -24 -21 -17 -17 -14
-10 -16 -2 -24 -21 -17 -18 -15
-12 -17 0 -24 -22 -17 -19 -16
-13 -17 0 -24 -22 -17 -19 -16
-15 -18 1 -24 -22 -18 -20 -16
-16 -18 1 -25 -23 -19 -20 -16
-17 -19 2 -25 -23 -20 -21 -16
-19 -20 3 -26 -24 -21 -22 -17
-19 -20 3 -26 -24 -21 -22 -17
-20 -20 3 -26 -24 -21 -22 -17
-20 -20 3 -25 -25 -21 -22 -18
-21 -20 3 -25 -25 -21 -22 -18
-22 -21 2 -24 -26 -22 -23 -19
-22 -21 2 -24 -26 -22 -23 -19
-22 -21 2 -24 -26 -22 -23 -19
-22 -21 2 -24 -26 -22 -24 -19
-22 -21 2 -24 -26 -22 -24 -19
-21 -21 1 -25 -26 -23 -25 -20
-21 -21 1 -25 -26 -23 -25 -20
-21 -20 1 -24 -26 -23 -25 -20
-21 -19 1 -23 -26 -23 -25 -19
-21 -18 1 -22 -26 -23 -25 -19
-20 -17 1 -21 -25 -23 -24 -18
-20 -17 1 -21 -25 -23 -24 -18
-20 -17 1 -21 -25 -23 -24 -18
-20 -18 1 -21 -26 -23 -24 -18
-20 -18 1 -21 -26 -23 -24 -18
-21 -19 2 -22 -27 -23 -25 -19
-21 -19 2 -22 -27 -23 -25 -19
-21 -19 2 -22 -27 -23 -25 -19
-21 -19 2 -21 -27 -23 -25 -19
-21 -19 2 -21 -27 -23 -25 -19
-22 -18 3 -20 -27 -23 -25 -20
-22 -18 3 -20 -27 -23 -25 -20
-22 -18 3 -19 -27 -23 -25 -20
-22 -18 3 -19 -26 -23 -25 -20
-22 -18 3 -18 -26 -23 -25 -20
-23 -18 4 -17 -25 -22 -25 -20
-23 -19 5 -17 -25 -23 -26 -21
-24 -20 7 -17 -26 -25 -28 -23
-25 -22 9 -17 -27 -27 -30 -25
-26 -23 10 -17 -28 -28 -31 -26
-27 -25 12 -18 -29 -30 -33 -28
-28 -27 17 -12 -28 -30 -35 -31
-29 -29 21 -7 -27 -31 -38 -33
-31 -31 26 -2 -26 -32 -41 -36
-32 -34 30 5 -25 -33 -44 -39
-33 -35 35 11 -22 -32 -46 -41
-21 -26 31 21 -6 -16 -31 -31
-10 -16 26 31 11 1 -17 -20
3 -6 22 42 28 18 -3 -9
14 4 17 53 45 34 12 2
28 15 11 62 62 53 28 15
53 39 -11 56 82 85 61 40
78 64 -32 51 103 116 94 66
104 88 -54 45 123 148 127 93
130 112 -75 38 144 179 159 118
153 137 -97 31 162 210 191 145
163 162 -118 10 164 231 219 171
175 187 -140 -12 168 252 246 197
185 213 -161 -34 170 273 274 223
195 238 -183 -56 172 294 302 250
203 262 -202 -77 172 310 324 273
184 259 -201 -95 137 276 303 266
164 257 -200 -112 102 243 281 259
145 254 -199 -130 67 210 261 252
126 251 -198 -147 32 176 239 244
106 243 -196 -163 -3 142 216 233
80 207 -178 -165 -35 99 172 193
55 171 -160 -168 -68 55 128 153
29 134 -142 -170 -100 12 84 113
4 97 -124 -172 -133 -31 39 72
-20 63 -107 -172 -160 -70 0 36
-20 54 -92 -147 -140 -63 -5 27
-20 44 -76 -122 -119 -56 -9 19
-19 33 -61 -99 -99 -49 -13 11
-19 23 -46 -74 -78 -43 -17 3
-18 14 -31 -51 -59 -35 -21 -6
-17 12 -23 -40 -51 -32 -20 -6
-16 10 -16 -30 -44 -28 -19 -6
-15 8 -8 -19 -35 -24 -17 -6
-14 5 1 -9 -27 -21 -16 -6
-13 3 8 2 -20 -17 -14 -6
-13 1 10 3 -19 -16 -14 -7
-13 -3 13 5 -17 -15 -14 -8
-13 -6 15 6 -15 -14 -15 -9
-13 -8 17 8 -13 -13 -15 -10
-12 -11 20 10 -11 -12 -16 -12
-12 -12 20 11 -11 -12 -16 -12
-13 -13 21 12 -11 -13 -17 -13
-14 -14 22 14 -11 -13 -17 -14
-15 -15 23 15 -11 -14 -18 -15
-16 -17 24 17 -10 -15 -19 -16
-16 -17 24 17 -9 -15 -19 -16
-15 -17 24 17 -8 -14 -18 -16
-14 -17 24 18 -6 -14 -17 -16
-13 -17 24 18 -5 -13 -16 -16
-12 -16 25 19 -3 -12 -15 -17
-12 -16 25 19 -3 -12 -15 -17
-12 -16 25 19 -3 -12 -16 -17
-12 -16 25 19 -3 -12 -16 -17
-12 -16 25 19 -3 -12 -17 -17
-12 -17 25 20 -4 -11 -18 -18
-11 -17 25 20 -3 -11 -18 -18
-10 -17 25 20 -2 -10 -18 -18
-9 -16 25 21 0 -9 -17 -17
-8 -16 25 21 1 -8 -17 -17
-7 -15 25 22 2 -7 -16 -16
-7 -15 25 22 2 -7 -16 -16
-7 -15 25 23 2 -7 -16 -16
-7 -16 25 24 2 -7 -15 -16
-7 -16 25 25 2 -7 -15 -16
-8 -17 26 26 2 -7 -14 -15
-8 -17 26 26 2 -7 -14 -15
-7 -17 25 26 3 -6 -14 -15
-7 -17 24 27 3 -6 -13 -15
-6 -17 23 27 4 -5 -13 -15
-5 -18 22 28 5 -4 -12 -16
-5 -18 22 29 5 -4 -12 -16
-5 -18 22 30 5 -4 -12 -16
-6 -18 23 31 6 -4 -12 -16
-6 -18 23 32 6 -4 -12 -16
-7 -17 24 33 7 -3 -12 -16
-7 -17 24 33 8 -3 -12 -16
-6 -17 24 33 9 -2 -12 -16
-5 -17 23 33 10 -2 -11 -16
-4 -17 23 33 11 0 -11 -16
-3 -16 22 33 12 1 -10 -15
-3 -16 22 34 12 1 -10 -15
-2 -15 23 35 12 1 -10 -15
-2 -15 23 37 13 1 -9 -15
0 -14 24 38 13 1 -9 -15
1 -13 25 40 14 1 -8 -14
1 -13 25 40 14 1 -8 -14
2 -13 24 40 15 2 -8 -14
2 -13 24 40 15 2 -8 -14
3 -13 23 40 16 3 -8 -14
4 -14 22 42 17 4 -7 -14
4 -14 22 43 17 4 -7 -14
4 -14 22 44 18 4 -7 -13
4 -13 23 46 18 4 -7 -12
4 -13 23 47 19 4 -7 -11
5 -12 24 49 20 4 -6 -10
5 -12 24 49 20 4 -6 -10
6 -12 23 49 21 5 -5 -10
6 -12 23 50 22 6 -4 -9
7 -12 22 50 23 7 -3 -9
8 -12 21 51 24 8 -2 -8
8 -12 21 52 24 8 -2 -8
8 -12 21 53 24 8 -2 -8
8 -12 21 54 24 8 0 -8
8 -12 21 55 24 8 0 -8
9 -11 21 56 25 8 1 -8
10 -10 21 56 26 8 2 -8
12 -9 21 56 27 9 3 -7
13 -8 21 56 28 10 4 -6
15 -7 21 56 29 11 5 -5
17 -5 20 57 30 12 6 -4
17 -5 20 57 30 12 6 -4
17 -5 20 57 30 12 6 -4
17 -5 20 57 29 12 6 -4
17 -5 20 57 29 12 6 -4
18 -4 21 58 28 11 5 -4
19 -3 20 58 28 11 6 -3
20 -2 19 58 29 12 7 -2
21 0 18 58 30 13 9 1
22 1 17 58 31 14 10 2
23 2 16 59 32 15 12 4
23 3 16 59 32 15 12 4
24 4 15 59 32 15 13 5
24 5 15 59 32 15 13 6
25 6 14 59 32 15 14 7
26 7 13 58 31 14 15 8
27 7 13 58 31 14 15 8
28 8 12 57 31 14 15 9
29 8 11 56 31 14 16 9
30 9 10 55 31 14 16 10
31 10 9 54 30 15 17 11
31 10 9 53 30 15 17 11
30 10 9 52 29 15 17 11
29 11 9 51 28 14 17 11
28 11 9 50 27 14 17 11
27 12 8 49 26 13 18 12
27 13 7 48 26 13 18 12
28 14 6 47 26 13 19 13
28 15 5 46 26 14 20 14
29 16 4 45 26 14 21 15
30 17 3 43 26 15 22 16
30 17 3 42 25 14 22 16
30 17 3 40 24 13 22 16
29 17 2 39 23 12 22 16
29 17 2 38 22 11 22 16
28 16 1 37 20 10 22 17
28 16 1 37 20 10 22 17
28 16 1 36 20 11 22 17
28 17 1 36 20 11 21 17
28 17 1 35 20 12 21 17
27 18 1 34 21 13 20 18
26 17 1 34 20 12 20 18
24 16 2 33 19 11 19 17
23 14 2 32 18 10 18 17
21 13 3 31 17 9 17 16
19 11 4 30 16 8 16 15
19 11 4 29 16 8 16 14
18 11 4 28 16 8 15 13
17 10 4 26 15 8 15 12
16 10 4 25 15 8 14 11
15 9 3 23 14 7 13 9
14 8 3 23 14 7 12 8
12 8 4 22 13 6 11 8
10 7 4 22 12 5 9 7
8 6 5 21 11 4 8 6
7 5 5 21 11 4 7 5
6 4 6 19 10 3 6 4
6 3 6 18 10 3 5 3
5 3 7 16 9 2 5 2
5 2 7 15 9 2 4 1
5 2 7 14 9 2 4 0
3 0 8 13 7 0 2 -2
1 -2 8 13 6 -2 0 -3
-2 -4 8 12 4 -4 -2 -4
-4 -5 8 12 3 -5 -4 -5
-5 -6 8 12 2 -6 -5 -5
-6 -7 9 11 1 -7 -6 -6
-6 -7 9 11 1 -7 -6 -6
-7 -8 9 10 1 -7 -7 -6
-7 -8 9 10 1 -7 -7 -6
-7 -8 9 10 1 -7 -7 -6
-8 -9 10 9 1 -6 -8 -7
-8 -9 10 9 1 -6 -8 -7
-9 -9 10 9 0 -7 -8 -8
-9 -9 10 9 0 -7 -8 -8
-9 -9 10 9 0 -7 -8 -8
-10 -10 10 8 -2 -8 -7 -9
-10 -10 10 8 -2 -8 -7 -9
-11 -10 10 7 -2 -8 -7 -9
-11 -10 10 7 -2 -8 -7 -9
-11 -10 10 7 -2 -8 -7 -9
-12 -10 10 6 0 -8 -8 -8
-12 -11 10 6 0 -8 -8 -8
-12 -12 10 6 -2 -9 -8 -8
-12 -13 10 6 -2 -9 -8 -8
-12 -13 10 6 -2 -9 -8 -8
-13 -14 11 6 -3 -10 -8 -9
-13 -14 11 6 -3 -9 -8 -9
-12 -13 10 6 -2 -8 -8 -9
-12 -13 10 6 -2 -7 -8 -9
-12 -13 10 6 -2 -7 -8 -9
-11 -12 9 5 0 -6 -8 -9
-11 -12 9 5 0 -6 -8 -9
-12 -12 10 5 0 -6 -8 -9
-12 -12 10 5 0 -6 -8 -9
-12 -12 10 5 0 -6 -8 -9
-13 -13 11 5 0 -7 -9 -10
-13 -13 10 5 0 -7 -8 -10
-13 -13 9 5 0 -7 -8 -9
-13 -13 8 5 0 -7 -7 -9
-13 -13 8 5 0 -7 -7 -9
-12 -12 7 4 0 -7 -6 -8
-12 -12 7 4 -2 -7 -6 -8
-13 -13 7 3 -3 -7 -7 -8
-13 -13 7 3 -4 -7 -7 -8
-13 -13 7 3 -4 -7 -7 -8
-14 -14 8 2 -5 -8 -8 -9
-14 -14 8 1 -5 -8 -8 -9
-13 -14 8 1 -4 -8 -8 -9
-13 -14 8 0 -4 -8 -8 -9
-13 -14 8 0 -4 -8 -8 -9
-12 -14 7 -2 -3 -7 -9 -10
-12 -14 7 -2 -3 -7 -9 -10
-12 -14 7 -2 -4 -8 -9 -10
-12 -14 7 -2 -4 -8 -9 -10
-12 -14 7 -2 -4 -8 -9 -10
-12 -14 8 -4 -5 -9 -9 -10
-12 -14 7 -6 -5 -9 -9 -10
-12 -14 6 -7 -5 -9 -9 -10
-12 -14 5 -9 -5 -9 -9 -10
-12 -14 5 -10 -5 -9 -9 -10
-12 -14 4 -11 -6 -8 -9 -9
-12 -14 4 -11 -6 -9 -9 -9
-13 -14 4 -11 -7 -9 -9 -9
-13 -14 4 -11 -7 -10 -9 -9
-13 -14 4 -11 -7 -10 -9 -9
-14 -14 4 -12 -8 -11 -9 -9
-14 -14 4 -13 -8 -11 -9 -9
-14 -14 4 -14 -8 -11 -9 -10
-14 -14 4 -15 -8 -11 -9 -10
-14 -14 4 -16 -8 -11 -9 -10
-14 -15 3 -17 -8 -10 -9 -11
-14 -15 3 -17 -9 -10 -9 -11
-14 -15 3 -18 -9 -10 -10 -11
-14 -15 3 -18 -10 -10 -10 -11
-14 -15 3 -18 -10 -10 -10 -11
-14 -15 2 -19 -11 -11 -11 -11
-14 -15 2 -20 -11 -11 -11 -11
-14 -15 1 -20 -11 -11 -11 -12
-14 -15 1 -21 -11 -11 -11 -12
-14 -15 1 -21 -11 -11 -11 -12
-15 -15 0 -22 -11 -12 -11 -13
-15 -15 0 -22 -12 -12 -11 -13
-15 -15 0 -22 -12 -13 -12 -13
-15 -15 0 -22 -13 -13 -12 -13
-15 -15 0 -22 -13 -13 -12 -13
-15 -14 0 -23 -14 -14 -13 -13
-15 -14 0 -24 -14 -14 -13 -13
-15 -14 0 -25 -14 -14 -13 -13
-15 -14 0 -26 -14 -14 -13 -13
-15 -14 0 -26 -14 -14 -13 -13
-14 -14 0 -27 -14 -14 -12 -12
-14 -14 0 -27 -15 -14 -13 -12
-14 -14 -2 -27 -15 -14 -13 -12
-14 -14 -2 -27 -16 -14 -14 -12
-14 -14 -2 -27 -16 -14 -14 -12
-15 -15 -3 -26 -17 -15 -15 -13
-15 -15 -3 -26 -17 -15 -15 -13
-15 -15 -3 -26 -17 -15 -14 -13
-15 -15 -3 -26 -17 -15 -14 -13
-15 -15 -3 -26 -17 -15 -14 -13
-16 -15 -4 -27 -16 -16 -13 -14
-16 -15 -4 -27 -16 -16 -13 -14
-16 -15 -4 -27 -17 -16 -14 -14
-16 -15 -4 -27 -17 -16 -14 -14
-16 -15 -4 -27 -17 -16 -14 -14
-16 -14 -3 -27 -18 -16 -15 -13
-16 -14 -3 -27 -17 -16 -15 -13
-16 -14 -3 -27 -16 -15 -14 -13
-16 -14 -3 -27 -15 -15 -14 -13
-16 -14 -3 -27 -14 -15 -14 -13
-17 -15 -4 -26 -13 -14 -13 -14
-16 -14 -3 -25 -13 -14 -13 -13
-15 -14 -3 -24 -12 -14 -12 -12
-14 -13 -2 -23 -12 -14 -12 -11
-14 -13 -2 -22 -12 -14 -12 -11
-13 -11 1 -20 -10 -13 -10 -10
-12 -10 3 -19 -9 -11 -9 -9
-11 -8 4 -17 -7 -10 -8 -8
-10 -7 6 -16 -6 -8 -7 -7
-9 -6 7 -15 -5 -7 -6 -7
-8 -5 8 -13 -4 -6 -5 -6
-7 -4 9 -12 -3 -5 -5 -5
-6 -3 10 -11 -2 -4 -5 -5
-5 -2 11 -10 0 -3 -5 -4
-5 -2 11 -9 0 -3 -5 -4
-4 0 12 -8 1 -2 -4 -3
-3 -2 11 -8 1 -2 -4 -3
-2 -3 10 -8 1 -2 -4 -3
0 -4 9 -8 1 -2 -4 -3
0 -5 8 -8 1 -2 -4 -3
1 -6 6 -8 1 -2 -4 -4
1 -5 5 -8 1 -2 -4 -4
2 -5 4 -9 0 -2 -4 -3
2 -4 3 -9 0 -2 -4 -3
2 -4 2 -9 0 -2 -4 -3
3 -3 0 -12 -4 -4 -5 -3
2 -4 -3 -15 -6 -6 -6 -4
1 -5 -4 -18 -9 -8 -8 -5
0 -6 -6 -20 -12 -10 -9 -6
-2 -7 -7 -23 -14 -12 -10 -7
-3 -9 -7 -24 -15 -13 -11 -8
-4 -11 -6 -23 -15 -13 -11 -9
-4 -13 -4 -23 -15 -14 -12 -9
-5 -14 -3 -22 -15 -14 -12 -10
-5 -16 -2 -22 -15 -14 -12 -10
-6 -17 0 -21 -15 -15 -13 -11
-6 -16 0 -21 -15 -15 -12 -10
-6 -16 0 -21 -15 -14 -12 -10
-6 -15 0 -21 -15 -14 -11 -9
-6 -15 0 -21 -15 -14 -11 -9
-6 -15 1 -20 -15 -13 -10 -8
-9 -16 2 -20 -15 -14 -11 -9
-11 -17 3 -20 -16 -14 -12 -10
-13 -18 4 -20 -16 -15 -13 -11
-15 -19 4 -20 -16 -15 -14 -11
-16 -20 5 -19 -17 -16 -15 -12
-16 -20 5 -19 -17 -17 -15 -12
-17 -20 5 -20 -18 -17 -16 -13
-17 -20 5 -20 -18 -18 -16 -13
-17 -20 5 -20 -18 -18 -16 -13
-18 -20 5 -21 -19 -19 -17 -14
-19 -20 5 -21 -20 -19 -17 -14
-19 -20 5 -21 -20 -19 -18 -15
-20 -20 5 -21 -21 -19 -18 -15
-20 -20 5 -21 -21 -19 -18 -15
-21 -21 6 -21 -22 -20 -19 -16
-21 -21 6 -21 -22 -20 -19 -16
-21 -21 6 -20 -22 -20 -19 -16
-21 -21 6 -20 -22 -20 -19 -16
-21 -21 6 -20 -22 -20 -19 -16
-22 -21 6 -19 -22 -21 -19 -16
-22 -21 6 -18 -22 -20 -19 -16
-22 -21 7 -18 -22 -20 -19 -16
-22 -21 7 -17 -22 -19 -19 -16
-22 -21 7 -17 -22 -19 -19 -16
-21 -20 8 -16 -23 -18 -20 -16
-21 -20 8 -16 -23 -18 -20 -16
-22 -20 8 -16 -23 -18 -20 -16
-22 -20 8 -16 -23 -18 -20 -16
-22 -20 8 -16 -23 -18 -20 -16
-23 -20 8 -16 -22 -19 -20 -17
-23 -19 8 -16 -22 -19 -20 -17
-23 -19 8 -15 -23 -19 -20 -17
-23 -18 8 -15 -23 -19 -20 -17
-23 -18 8 -15 -23 -19 -20 -17
-22 -17 8 -14 -24 -20 -21 -17
-22 -17 8 -13 -23 -19 -21 -17
-22 -17 8 -13 -23 -19 -21 -17
-22 -17 8 -12 -22 -18 -21 -17
-22 -17 8 -12 -22 -18 -21 -17
-22 -19 9 -11 -22 -19 -22 -19
-24 -22 11 -11 -24 -22 -24 -22
-26 -24 13 -11 -26 -25 -26 -24
-27 -27 15 -11 -28 -28 -28 -27
-29 -30 17 -11 -30 -31 -30 -30
-30 -31 21 -5 -28 -31 -31 -31
-30 -31 24 2 -24 -29 -32 -31
-30 -31 28 9 -20 -27 -32 -31
-30 -31 32 15 -16 -25 -33 -31
-30 -31 36 21 -12 -23 -33 -31
-18 -22 32 31 4 -7 -20 -22
-3 -11 26 43 21 12 -2 -10
12 2 19 54 38 30 16 4
27 13 13 64 56 49 34 16
43 25 7 75 73 67 52 28
67 47 -16 64 89 95 82 53
95 71 -43 49 104 122 115 79
121 96 -68 32 119 151 149 107
149 120 -94 16 135 180 182 134
176 145 -119 0 150 209 215 160
185 171 -139 -19 152 224 239 184
190 196 -156 -37 149 237 262 206
195 221 -175 -57 147 251 284 230
200 246 -192 -76 145 264 307 253
205 272 -210 -95 143 277 329 275
188 264 -211 -110 110 248 309 265
164 246 -206 -126 71 209 277 245
141 229 -202 -141 31 170 246 225
117 212 -198 -155 -8 130 215 205
94 195 -194 -171 -47 91 184 186
70 168 -178 -170 -68 59 149 156
47 138 -159 -163 -86 29 113 125
23 108 -140 -157 -103 0 78 93
0 79 -121 -151 -120 -30 43 61
-24 50 -102 -146 -138 -60 7 28
-28 38 -87 -124 -127 -60 0 19
-26 32 -71 -101 -108 -51 -3 14
-23 26 -57 -77 -89 -43 -4 10
-21 19 -43 -53 -70 -33 -5 5
-19 13 -27 -29 -51 -25 -6 0
-18 9 -20 -19 -44 -22 -7 -3
-18 5 -15 -13 -38 -21 -7 -5
-18 2 -9 -7 -34 -20 -6 -7
-18 -2 -4 0 -29 -18 -6 -9
-18 -6 2 6 -24 -17 -6 -11
-17 -8 5 8 -23 -16 -5 -12
-17 -10 6 9 -21 -15 -5 -12
-17 -12 8 10 -20 -14 -6 -12
-17 -13 10 11 -19 -13 -6 -12
-17 -15 11 12 -18 -12 -6 -12
-18 -16 12 14 -17 -11 -7 -13
-18 -16 13 15 -16 -12 -8 -13
-19 -17 14 17 -15 -12 -8 -13
-19 -17 15 19 -14 -13 -9 -13
-19 -17 16 20 -14 -13 -9 -13
-20 -18 17 21 -13 -14 -10 -14
-20 -18 17 21 -13 -13 -10 -14
-19 -18 17 21 -12 -12 -9 -14
-19 -18 17 21 -12 -11 -9 -14
-19 -18 17 21 -12 -11 -9 -14
-18 -17 18 22 -11 -10 -8 -14
-18 -17 18 23 -11 -10 -8 -14
-18 -18 18 24 -11 -10 -8 -14
-18 -18 18 25 -11 -10 -8 -14
-18 -18 18 25 -11 -10 -8 -14
-17 -19 19 26 -11 -10 -8 -15
-17 -19 19 26 -10 -9 -8 -15
-16 -19 19 26 -9 -8 -8 -15
-16 -19 19 26 -8 -7 -8 -15
-16 -19 19 26 -8 -7 -8 -15
-15 -20 19 26 -7 -6 -7 -14
-15 -20 19 27 -7 -6 -7 -14
-15 -20 19 27 -7 -6 -7 -15
-15 -20 19 28 -7 -6 -7 -15
-15 -20 19 28 -7 -6 -7 -15
-14 -19 20 29 -7 -7 -8 -16
-14 -19 20 29 -6 -6 -7 -16
-13 -18 20 30 -5 -5 -6 -16
-13 -18 20 30 -4 -4 -5 -16
-13 -18 20 30 -3 -3 -5 -16
-12 -17 19 31 -2 -2 -4 -17
-12 -17 19 32 -2 -2 -4 -17
-12 -17 19 33 -2 -2 -4 -17
-12 -17 19 34 -2 -2 -4 -17
-12 -17 19 35 -2 -2 -4 -17
-11 -18 20 36 0 -2 -5 -18
-11 -18 20 36 1 0 -5 -18
-10 -18 19 36 1 0 -5 -18
-10 -18 19 36 2 1 -5 -18
-10 -18 19 36 2 1 -5 -18
-9 -18 18 36 3 2 -4 -17
-9 -18 18 37 3 2 -4 -17
-9 -18 18 38 3 2 -4 -17
-9 -18 18 39 3 2 -4 -17
-9 -18 18 39 3 2 -4 -17
-8 -19 18 40 4 2 -5 -17
-8 -18 18 40 5 3 -4 -16
-7 -17 18 40 5 4 -4 -16
-7 -16 18 40 6 5 -3 -15
-7 -15 18 40 6 5 -3 -15
-6 -14 17 42 7 6 -2 -14
-5 -14 17 43 8 6 -2 -14
-5 -14 17 44 8 6 -2 -14
-4 -14 17 45 9 6 -2 -14
-4 -14 17 45 9 6 -2 -14
-3 -15 16 46 10 5 -2 -14
-2 -14 15 46 10 6 0 -14
0 -13 15 46 11 7 1 -13
1 -12 14 46 11 8 2 -13
1 -11 14 46 11 8 2 -13
2 -10 13 46 12 9 3 -12
2 -10 13 47 12 9 3 -12
2 -10 13 48 12 9 3 -12
2 -10 13 48 12 9 3 -12
2 -10 13 49 12 9 3 -12
3 -10 13 50 13 8 3 -12
4 -9 12 50 13 8 4 -11
5 -8 11 50 14 8 5 -10
7 -8 11 50 14 8 6 -10
8 -7 10 50 14 8 7 -9
9 -6 9 49 15 9 8 -8
9 -6 9 50 15 9 8 -8
9 -6 8 51 16 10 8 -7
9 -6 8 51 16 10 8 -7
9 -6 8 52 16 10 8 -7
10 -5 7 53 17 11 8 -6
12 -5 6 53 17 12 10 -5
13 -4 6 53 17 13 11 -4
14 -4 5 53 17 13 12 -3
15 -4 5 53 17 14 13 -2
16 -3 4 52 18 15 14 0
17 0 4 52 18 15 14 1
18 1 3 52 18 15 14 2
19 2 3 52 18 15 14 3
20 3 3 52 18 15 14 4
21 4 2 53 18 15 15 5
22 4 1 51 17 15 16 5
22 5 0 50 17 15 17 6
23 5 -2 49 16 15 18 6
23 5 -3 48 16 15 19 6
24 6 -4 47 15 16 20 7
24 7 -5 47 15 16 20 8
24 8 -5 47 14 16 20 9
24 8 -6 47 14 16 20 9
24 9 -6 47 14 16 20 10
24 10 -7 46 13 15 21 11
24 11 -7 44 13 15 22 12
25 12 -8 43 13 16 22 12
25 12 -8 42 13 16 23 13
25 13 -8 40 13 16 23 13
26 14 -9 39 12 17 24 14
26 14 -9 39 12 17 24 14
25 14 -8 39 12 16 24 14
25 14 -8 39 12 16 24 14
25 14 -8 39 12 16 24 14
24 15 -7 37 11 15 23 14
23 15 -7 35 11 15 23 14
23 15 -8 34 10 15 23 14
22 15 -8 32 10 15 23 14
22 15 -8 30 10 15 23 14
21 15 -9 29 9 14 23 13
19 14 -8 29 8 14 22 12
18 13 -7 28 8 14 21 11
17 13 -6 28 7 14 21 11
16 12 -5 28 7 14 20 10
15 11 -4 26 6 13 19 9
14 10 -4 24 5 13 17 8
14 10 -4 22 5 12 16 8
13 9 -4 19 4 12 15 7
13 9 -4 17 4 12 14 7
11 8 -4 16 2 11 13 5
9 7 -4 14 1 9 11 3
7 6 -3 13 -2 8 10 2
5 6 -3 12 -3 6 8 0
3 5 -3 11 -5 5 7 -3
2 4 -2 10 -6 4 6 -4
1 3 -2 8 -7 4 4 -5
1 2 -2 7 -7 3 3 -6
0 2 -2 5 -8 3 2 -7
0 1 -2 4 -8 3 1 -8
-3 0 0 3 -9 2 0 -9
-4 -2 1 3 -10 1 -2 -10
-6 -3 1 2 -11 0 -3 -11
-7 -3 2 2 -11 0 -3 -11
-9 -4 2 2 -12 -2 -4 -12
-10 -5 3 1 -13 -3 -5 -13
-10 -5 2 -2 -13 -3 -5 -13
-10 -5 2 -3 -14 -3 -5 -14
-10 -5 1 -4 -14 -3 -5 -14
-10 -5 1 -5 -14 -3 -5 -14
-10 -6 0 -6 -15 -3 -6 -15
-11 -6 1 -6 -16 -4 -6 -15
-12 -6 1 -6 -16 -4 -7 -15
-12 -6 2 -6 -17 -5 -7 -15
-13 -6 2 -6 -17 -5 -7 -15
-14 -7 3 -5 -18 -6 -8 -15
-14 -7 3 -6 -18 -6 -8 -15
-14 -8 3 -6 -18 -6 -8 -15
-14 -8 3 -7 -18 -6 -8 -15
-14 -8 3 -7 -18 -6 -8 -15
-15 -9 2 -8 -18 -6 -8 -15
-15 -9 2 -8 -18 -6 -8 -15
-15 -10 2 -7 -18 -6 -8 -15
-15 -10 2 -7 -18 -6 -8 -15
-15 -10 2 -7 -18 -6 -8 -15
-15 -11 2 -6 -17 -6 -8 -15
-15 -11 2 -7 -17 -6 -8 -15
-15 -11 2 -8 -17 -6 -8 -15
-15 -11 2 -9 -17 -6 -8 -15
-15 -11 2 -10 -17 -6 -8 -15
-14 -10 1 -11 -18 -6 -8 -15
-14 -10 0 -11 -18 -6 -8 -15
-15 -10 0 -11 -18 -6 -8 -15
-15 -10 -2 -11 -18 -6 -8 -15
-15 -10 -2 -11 -18 -6 -8 -15
-16 -11 -3 -12 -18 -7 -8 -15
-16 -10 -3 -12 -18 -7 -8 -15
-15 -9 -3 -12 -18 -7 -8 -15
-15 -9 -3 -12 -18 -7 -8 -15
-15 -8 -3 -12 -18 -7 -8 -15
-14 -7 -3 -12 -17 -7 -9 -16
-14 -8 -3 -12 -17 -7 -9 -16
-15 -10 -3 -12 -17 -8 -9 -16
-16 -11 -3 -12 -17 -8 -9 -16
-16 -12 -3 -12 -17 -8 -9 -16
-17 -13 -3 -13 -18 -9 -10 -17
-17 -13 -3 -13 -18 -9 -10 -17
-17 -13 -3 -13 -18 -9 -9 -16
-17 -13 -3 -13 -18 -9 -9 -15
-17 -13 -3 -13 -18 -9 -9 -15
-16 -13 -2 -13 -18 -8 -8 -14
-16 -13 -2 -13 -18 -8 -8 -14
-17 -14 -2 -13 -18 -8 -9 -14
-17 -14 -2 -13 -18 -8 -10 -14
-17 -14 -2 -13 -18 -8 -10 -14
-18 -15 -2 -12 -19 -9 -11 -15
-18 -15 -2 -12 -19 -9 -11 -15
-17 -15 -2 -12 -19 -9 -10 -14
-16 -15 -2 -12 -19 -9 -9 -14
-16 -15 -2 -12 -19 -9 -9 -14
-15 -15 -3 -13 -19 -10 -8 -13
-16 -15 -3 -13 -19 -10 -9 -13
-17 -15 -4 -13 -19 -10 -10 -14
-17 -15 -4 -13 -19 -10 -10 -15
-18 -15 -4 -13 -19 -10 -11 -15
-19 -15 -5 -13 -19 -11 -12 -16
-18 -15 -5 -14 -19 -11 -12 -16
-17 -15 -5 -15 -19 -11 -11 -16
-17 -15 -5 -15 -19 -11 -11 -16
-16 -15 -5 -16 -19 -11 -11 -16
-15 -14 -5 -17 -19 -10 -10 -16
-15 -14 -5 -17 -19 -10 -10 -16
-16 -14 -4 -17 -20 -11 -10 -16
-17 -14 -4 -17 -20 -12 -10 -16
-17 -14 -4 -17 -20 -12 -10 -16
-18 -15 -3 -16 -21 -13 -11 -16
-18 -15 -3 -16 -21 -13 -11 -16
-18 -16 -4 -16 -21 -14 -11 -16
-18 -17 -4 -16 -21 -14 -11 -16
-18 -17 -4 -16 -21 -14 -11 -16
-19 -18 -5 -17 -21 -15 -12 -17
-19 -18 -5 -17 -21 -15 -12 -17
-19 -18 -5 -18 -21 -16 -13 -18
-19 -18 -5 -18 -21 -16 -14 -18
-19 -18 -5 -18 -21 -16 -14 -18
-20 -19 -5 -19 -22 -17 -15 -19
-20 -19 -5 -19 -22 -17 -15 -18
-20 -18 -4 -20 -22 -16 -15 -17
-20 -17 -4 -21 -22 -16 -15 -17
-20 -17 -4 -21 -22 -16 -15 -16
-19 -16 -3 -22 -22 -15 -14 -15
-19 -17 -3 -22 -22 -15 -14 -15
-20 -18 -3 -22 -22 -16 -14 -16
-20 -18 -3 -22 -22 -16 -14 -16
-20 -19 -3 -22 -22 -16 -14 -16
-21 -20 -4 -23 -23 -17 -14 -17
-21 -20 -4 -23 -23 -17 -14 -17
-20 -19 -4 -23 -23 -17 -14 -17
-20 -19 -4 -23 -23 -17 -14 -17
-20 -19 -4 -23 -23 -17 -14 -17
-19 -18 -5 -24 -22 -17 -14 -17
-19 -18 -5 -24 -22 -17 -14 -17
-19 -18 -5 -24 -22 -17 -15 -18
-19 -18 -5 -24 -22 -17 -15 -19
-19 -18 -5 -24 -22 -17 -15 -19
-20 -18 -4 -25 -23 -16 -16 -20
-20 -18 -4 -25 -23 -16 -16 -20
-19 -17 -4 -26 -23 -17 -16 -19
-19 -17 -4 -26 -23 -17 -16 -19
-19 -17 -4 -26 -23 -17 -16 -19
-18 -16 -5 -27 -23 -18 -16 -18
-18 -16 -4 -25 -22 -17 -16 -18
-17 -15 -3 -24 -21 -16 -15 -17
-16 -15 -2 -22 -21 -16 -14 -17
-16 -15 0 -21 -20 -15 -14 -17
-15 -14 1 -20 -19 -14 -13 -16
-13 -12 3 -18 -17 -12 -11 -14
-12 -10 5 -16 -15 -11 -10 -12
-10 -9 6 -15 -14 -9 -8 -11
-9 -7 8 -13 -12 -8 -7 -9
-8 -6 9 -12 -11 -7 -6 -8
-8 -5 9 -11 -10 -7 -6 -8
-8 -4 10 -10 -9 -6 -6 -8
-8 -4 10 -9 -9 -5 -6 -8
-8 -3 10 -8 -8 -5 -6 -8
-7 -2 11 -7 -7 -4 -5 -8
-5 -3 11 -7 -7 -4 -5 -8
-4 -5 10 -7 -6 -3 -4 -7
-2 -6 9 -7 -5 -3 -4 -7
0 -7 9 -7 -5 -3 -4 -7
1 -8 7 -6 -4 -2 -3 -6
1 -7 4 -8 -5 -3 -3 -6
1 -5 2 -10 -7 -4 -4 -6
1 -4 -2 -11 -8 -5 -4 -6
1 -3 -4 -13 -9 -6 -4 -6
2 -2 -6 -15 -11 -8 -6 -7
2 -4 -7 -17 -13 -10 -7 -9
1 -5 -8 -20 -15 -12 -9 -10
0 -7 -8 -22 -17 -14 -11 -12
0 -8 -9 -25 -20 -17 -13 -13
-2 -9 -10 -26 -21 -18 -14 -14
-2 -10 -9 -26 -21 -18 -15 -14
-3 -11 -8 -26 -21 -19 -16 -15
-4 -11 -7 -26 -21 -20 -16 -15
-4 -12 -6 -26 -21 -20 -17 -15
-5 -13 -5 -25 -22 -21 -18 -16
-5 -13 -5 -25 -22 -20 -18 -16
-5 -13 -5 -25 -22 -19 -17 -15
-5 -13 -5 -25 -22 -19 -16 -14
-5 -13 -5 -25 -22 -18 -16 -14
-7 -12 -4 -24 -21 -17 -15 -13
-9 -13 -3 -24 -21 -18 -16 -14
-11 -14 -2 -23 -21 -19 -18 -15
-13 -15 -2 -23 -21 -20 -19 -16
-16 -16 0 -23 -21 -21 -20 -17
-17 -17 1 -22 -22 -22 -21 -18
-17 -17 1 -22 -22 -22 -21 -18
-18 -18 1 -22 -22 -22 -21 -18
-19 -18 1 -22 -22 -22 -21 -18
-19 -18 1 -22 -22 -22 -21 -18
-20 -19 1 -22 -23 -22 -20 -18
-20 -19 1 -22 -23 -22 -20 -18
-20 -19 1 -22 -23 -23 -21 -18
-20 -19 1 -22 -23 -23 -21 -18
-20 -19 1 -22 -23 -23 -21 -18
-21 -18 1 -22 -24 -24 -22 -19
-21 -18 2 -22 -24 -24 -22 -19
-21 -17 3 -21 -23 -24 -21 -19
-21 -17 3 -21 -22 -24 -21 -19
-21 -17 4 -21 -22 -24 -21 -19
-22 -16 5 -20 -21 -23 -20 -18
-22 -16 5 -20 -21 -23 -20 -18
-22 -16 5 -20 -21 -23 -21 -19
-22 -16 5 -20 -21 -23 -21 -20
-22 -16 5 -20 -21 -23 -21 -20
-23 -16 5 -19 -22 -23 -22 -21
-23 -16 5 -19 -22 -23 -22 -21
-22 -16 5 -18 -22 -23 -22 -20
-22 -16 5 -18 -22 -23 -22 -19
-22 -16 5 -18 -22 -23 -22 -19
-21 -17 6 -17 -21 -22 -22 -18
-21 -17 8 -16 -21 -22 -22 -18
-21 -17 9 -15 -20 -22 -22 -18
-21 -17 10 -14 -20 -22 -22 -18
-21 -17 12 -13 -20 -22 -22 -18
-21 -18 13 -12 -19 -22 -22 -17
-21 -18 13 -12 -19 -22 -22 -17
-21 -18 13 -12 -19 -22 -22 -18
-21 -18 13 -12 -19 -22 -22 -18
-21 -18 13 -12 -19 -22 -22 -18
-23 -19 13 -12 -19 -23 -23 -21
-26 -21 14 -12 -20 -25 -28 -25
-28 -23 16 -11 -21 -27 -32 -29
-31 -24 17 -11 -22 -29 -37 -33
-33 -26 18 -11 -23 -31 -41 -37
-35 -27 21 -7 -22 -31 -44 -39
-33 -26 24 0 -18 -28 -40 -37
-31 -25 28 6 -13 -25 -37 -36
-30 -24 32 12 -9 -22 -34 -35
-28 -23 36 19 -5 -19 -31 -33
-18 -16 34 27 8 -7 -20 -25
1 -3 26 37 27 13 0 -10
20 11 18 48 47 32 18 6
38 24 10 59 65 52 37 21
57 37 1 69 85 72 56 36
80 57 -17 66 101 97 82 58
108 84 -43 50 116 126 117 87
135 110 -68 33 131 154 151 115
162 137 -94 17 146 184 185 144
190 162 -119 1 161 213 220 173
203 187 -138 -18 165 230 244 196
203 210 -151 -38 159 236 260 216
202 232 -164 -59 152 242 275 234
202 254 -178 -78 146 248 290 253
202 276 -191 -99 140 256 306 272
187 276 -195 -116 114 236 296 268
159 253 -188 -132 71 194 259 242
132 229 -181 -147 29 151 222 216
104 205 -174 -162 -13 108 185 189
76 182 -166 -178 -56 65 149 163
54 157 -154 -182 -81 32 115 137
34 131 -137 -173 -93 9 86 109
15 104 -120 -163 -104 -14 56 82
-5 77 -103 -155 -114 -36 26 55
-23 51 -87 -146 -126 -60 -4 27
-32 35 -71 -130 -122 -67 -19 13
-30 29 -58 -107 -104 -58 -18 9
-27 23 -45 -85 -86 -50 -17 6
-24 18 -32 -61 -67 -40 -17 3
-22 12 -19 -38 -48 -32 -16 -2
-20 8 -10 -25 -36 -27 -15 -4
-20 5 -4 -19 -31 -25 -15 -6
-19 2 2 -13 -26 -23 -15 -7
-19 -2 7 -7 -22 -22 -15 -8
-19 -5 13 0 -17 -20 -15 -10
-18 -7 16 3 -14 -19 -16 -11
-18 -8 18 4 -13 -19 -16 -11
-18 -10 19 5 -12 -19 -17 -12
-18 -11 20 6 -12 -19 -17 -13
-18 -12 22 7 -11 -19 -17 -13
-18 -13 23 8 -10 -18 -18 -14
-18 -14 24 9 -9 -18 -18 -15
-19 -15 25 11 -8 -18 -19 -16
-19 -15 26 12 -8 -18 -20 -16
-19 -16 27 13 -7 -18 -20 -17
-20 -17 28 14 -6 -19 -21 -18
-20 -17 29 14 -6 -19 -20 -18
-20 -17 30 14 -6 -18 -20 -18
-19 -16 32 14 -5 -17 -19 -18
-19 -16 33 14 -5 -17 -18 -18
-18 -15 34 14 -4 -16 -17 -17
-18 -16 34 14 -4 -16 -17 -17
-17 -16 34 14 -4 -16 -17 -17
-16 -17 34 15 -4 -16 -18 -17
-16 -18 34 15 -4 -16 -18 -17
-15 -19 34 16 -3 -15 -19 -17
-15 -19 34 16 -3 -14 -18 -17
-15 -19 34 16 -2 -14 -17 -17
-15 -19 34 16 0 -13 -16 -16
-15 -19 34 16 0 -12 -15 -16
-14 -18 33 16 1 -11 -14 -15
-14 -18 33 17 1 -11 -14 -16
-14 -18 33 17 1 -11 -15 -16
-14 -19 33 18 2 -11 -16 -17
-14 -19 33 19 2 -11 -16 -18
-15 -20 34 20 3 -12 -17 -19
-15 -19 34 20 3 -12 -17 -19
-14 -19 34 19 3 -12 -17 -19
-13 -18 33 18 3 -12 -17 -18
-13 -17 33 18 3 -12 -17 -18
-12 -16 32 17 3 -11 -17 -17
-12 -17 32 19 4 -11 -17 -17
-12 -17 32 20 5 -10 -17 -17
-12 -18 33 22 6 -9 -16 -17
-12 -19 33 24 7 -9 -16 -17
-12 -20 34 25 8 -8 -15 -17
-12 -19 34 25 8 -8 -15 -17
-11 -18 34 25 8 -8 -15 -17
-10 -16 34 25 8 -8 -15 -17
-10 -15 34 25 8 -8 -15 -17
-9 -14 33 24 9 -7 -14 -17
-9 -14 33 25 10 -7 -14 -17
-9 -14 34 26 11 -6 -14 -16
-8 -15 35 28 12 -5 -14 -15
-8 -15 35 29 13 -5 -14 -15
-7 -16 36 30 14 -4 -13 -14
-7 -16 36 31 14 -3 -12 -14
-6 -16 35 31 15 -3 -11 -14
-5 -16 34 32 16 -2 -9 -14
-5 -16 34 33 16 0 -8 -14
-4 -15 33 34 17 1 -7 -13
-4 -15 33 34 17 1 -7 -13
-4 -15 32 34 17 1 -7 -13
-4 -15 31 35 17 0 -7 -13
-4 -15 31 35 17 0 -7 -13
-4 -15 30 36 18 -2 -8 -12
-3 -15 30 36 18 0 -7 -11
-2 -15 30 36 18 1 -7 -11
1 -14 29 37 19 2 -6 -10
2 -14 29 37 19 3 -5 -9
3 -13 28 38 20 4 -4 -8
3 -13 28 39 21 4 -4 -8
3 -12 27 40 21 4 -4 -8
3 -11 26 42 22 4 -4 -8
