I II V1 V2 V3 V4 V5 V6
-3 -1 -1 4 -17 -68 -87 -90
-2 -1 -1 6 -15 -67 -86 -91
-2 -1 1 6 -13 -65 -84 -91
-2 -1 1 6 -14 -65 -85 -91
-7 -4 2 6 -14 -64 -83 -93
-4 0 2 6 -14 -63 -81 -89
-1 3 2 7 -11 -60 -80 -85
0 5 3 9 -11 -57 -75 -80
3 8 5 9 -10 -56 -72 -77
1 7 5 9 -10 -56 -72 -76
1 7 6 10 -9 -55 -71 -74
-1 5 7 12 -7 -54 -70 -75
-5 3 8 13 -6 -54 -69 -75
-6 3 7 11 -7 -53 -68 -76
-8 2 7 11 -7 -52 -67 -75
-4 1 10 12 -5 -50 -66 -73
-2 4 11 13 -6 -48 -64 -71
-3 8 11 13 -4 -46 -60 -67
1 14 13 15 -1 -43 -57 -62
3 17 12 15 -1 -42 -54 -58
3 18 12 13 -2 -41 -53 -56
3 17 11 13 -2 -41 -52 -56
0 13 9 13 0 -41 -50 -58
-3 12 7 9 -2 -41 -51 -58
-2 10 3 7 -5 -44 -52 -59
-3 7 0 4 -6 -44 -52 -56
-1 9 -1 2 -7 -45 -52 -55
-1 12 0 3 -6 -42 -48 -52
-2 14 3 5 -3 -39 -46 -48
3 17 3 7 -3 -37 -44 -46
3 13 4 8 -3 -38 -44 -45
2 10 4 9 -3 -39 -42 -46
1 8 3 10 0 -37 -41 -46
0 7 3 12 0 -36 -40 -45
3 5 1 11 -2 -37 -41 -47
3 2 1 11 0 -34 -40 -45
1 0 2 10 0 -32 -38 -43
0 -1 2 11 -1 -33 -36 -42
-2 -5 1 9 -3 -35 -37 -41
-3 -7 2 9 -3 -34 -37 -39
-2 -8 0 8 -5 -35 -38 -40
-5 -13 -2 4 -8 -38 -40 -41
-6 -16 0 3 -9 -38 -40 -43
-9 -16 4 4 -7 -38 -40 -45
-10 -16 7 6 -6 -37 -38 -44
-11 -16 6 5 -5 -36 -36 -42
-15 -19 6 3 -6 -35 -35 -41
-14 -17 6 3 -7 -34 -34 -39
-12 -17 6 3 -7 -34 -35 -37
-14 -18 6 3 -8 -34 -34 -35
-14 -18 6 4 -9 -32 -32 -35
-16 -22 6 6 -9 -34 -32 -35
-20 -26 7 5 -9 -34 -33 -37
-20 -27 6 5 -8 -34 -33 -38
-20 -27 6 5 -7 -32 -31 -37
-16 -24 4 5 -6 -30 -30 -35
-17 -25 4 6 -5 -29 -28 -32
-19 -24 4 7 -6 -26 -26 -30
-18 -24 7 9 -3 -24 -22 -25
-17 -24 5 9 -3 -23 -21 -23
-12 -20 7 12 0 -20 -18 -20
-11 -19 7 14 1 -19 -17 -19
-16 -25 6 11 0 -22 -19 -20
-20 -29 6 9 0 -22 -19 -21
-23 -31 7 9 -1 -21 -19 -22
-18 -27 8 8 0 -21 -17 -21
-18 -25 7 9 1 -18 -16 -18
-20 -25 6 8 0 -19 -15 -17
-18 -24 6 6 -2 -18 -16 -15
-14 -20 7 8 1 -17 -13 -12
-15 -22 8 7 0 -17 -14 -12
-18 -25 9 6 -1 -19 -16 -16
-23 -28 12 11 4 -16 -16 -19
-25 -29 16 22 11 -12 -16 -22
-24 -29 22 37 22 -5 -15 -25
-24 -34 24 48 34 4 -8 -26
-20 -38 26 53 41 15 2 -22
-12 -37 25 58 47 27 16 -15
-1 -35 27 73 63 44 35 -2
14 -28 24 91 83 67 60 13
30 -22 21 105 105 95 88 32
37 -12 22 121 133 128 124 56
45 4 23 118 152 159 161 83
51 23 19 91 157 182 199 111
63 42 11 55 151 207 241 144
78 60 -9 1 128 221 277 176
92 73 -38 -67 86 216 301 208
110 89 -76 -141 40 202 319 236
124 107 -120 -216 -3 191 334 263
128 114 -152 -274 -39 174 326 270
124 100 -170 -309 -72 135 277 249
112 59 -176 -330 -113 71 197 201
92 31 -173 -349 -152 8 121 152
60 10 -160 -355 -181 -36 68 115
30 -10 -156 -354 -205 -79 16 76
6 -32 -154 -352 -230 -128 -41 34
-32 -50 -140 -341 -254 -180 -98 -11
-69 -63 -118 -323 -268 -217 -141 -50
-82 -68 -109 -302 -258 -215 -147 -64
-82 -69 -109 -284 -241 -199 -140 -68
-81 -71 -104 -254 -214 -177 -127 -68
-77 -70 -98 -220 -187 -160 -117 -66
-70 -70 -90 -187 -163 -143 -107 -64
-61 -66 -79 -157 -137 -125 -94 -58
-55 -59 -70 -132 -115 -104 -78 -51
-48 -49 -59 -106 -93 -86 -62 -41
-42 -41 -44 -80 -70 -69 -50 -32
-38 -35 -33 -56 -50 -53 -39 -26
-31 -29 -23 -36 -34 -40 -30 -21
-26 -26 -16 -22 -24 -31 -27 -20
-26 -28 -11 -10 -15 -25 -22 -18
-24 -27 -6 -1 -9 -20 -17 -16
-25 -28 -4 6 -5 -18 -16 -16
-24 -28 -2 12 0 -13 -14 -17
-22 -27 0 16 4 -12 -13 -17
-21 -29 1 21 7 -10 -12 -18
-19 -27 8 26 11 -9 -11 -17
-20 -27 11 29 13 -6 -9 -17
-21 -26 10 30 14 -5 -8 -16
-18 -25 10 30 15 -6 -7 -15
-17 -24 9 31 16 -3 -5 -14
-19 -26 10 31 16 -2 -5 -14
-21 -28 12 33 16 -1 -4 -12
-22 -30 11 33 15 -2 -3 -13
-22 -29 9 34 18 -1 -3 -13
-18 -26 10 37 19 -1 -1 -11
-16 -23 12 39 22 2 -1 -9
-15 -21 12 39 24 4 1 -8
-16 -21 11 39 24 4 2 -7
-17 -22 13 38 25 5 2 -4
-16 -22 11 37 24 7 2 -5
-17 -23 10 35 22 6 3 -7
-17 -24 10 36 21 4 1 -7
-17 -24 11 37 22 5 3 -8
-16 -23 12 40 25 7 5 -6
-16 -24 12 40 26 6 4 -6
-17 -26 12 39 26 6 3 -7
-15 -24 12 38 27 7 5 -9
-10 -19 13 42 30 11 8 -4
-8 -16 17 42 30 12 10 -2
-11 -18 17 42 31 14 11 -1
-13 -20 15 40 28 13 10 -3
-14 -22 13 39 27 13 10 -2
-13 -20 14 37 27 13 11 -3
-14 -21 13 38 28 14 11 -5
-15 -21 13 40 30 13 12 -4
-15 -21 14 41 31 14 11 -4
-13 -18 14 39 31 14 11 -5
-9 -14 14 41 33 18 13 -2
-9 -16 14 41 33 18 14 0
-11 -17 14 41 33 20 14 -1
-9 -14 13 42 33 22 18 0
-11 -17 11 42 34 23 17 2
-14 -19 11 44 35 24 19 2
-12 -18 11 44 35 24 19 2
-10 -18 12 44 36 25 20 3
-8 -17 14 45 39 25 19 3
-6 -16 14 46 40 28 21 4
-6 -14 15 47 42 31 23 6
-6 -11 14 48 44 32 25 7
-8 -13 12 48 44 33 24 6
-8 -12 14 49 45 36 27 9
-7 -12 14 52 46 36 28 9
-8 -15 13 51 45 35 28 8
-7 -14 14 52 47 36 30 8
-7 -13 13 55 50 37 32 10
-7 -14 15 59 54 40 32 10
-5 -11 14 61 56 41 35 13
-6 -12 14 62 57 44 36 14
-2 -8 14 66 61 48 38 17
1 -5 14 68 63 50 41 18
-1 -6 12 70 63 50 43 19
1 -6 12 72 64 50 44 20
1 -6 12 74 66 52 46 20
3 -6 11 77 67 54 47 21
3 -4 10 79 69 55 48 22
3 -2 9 81 72 57 49 25
7 1 11 85 77 62 53 29
9 2 11 85 79 65 54 32
9 3 11 87 81 65 58 35
12 5 11 91 84 68 58 37
14 5 11 94 86 72 64 38
15 6 8 95 86 73 63 39
16 9 8 97 89 75 66 40
15 8 6 97 91 76 68 42
15 9 4 100 92 79 71 45
15 11 2 102 97 82 72 47
18 14 3 105 100 86 77 51
25 21 4 109 105 90 83 57
29 23 3 108 107 93 85 60
30 25 3 108 105 93 85 60
31 25 4 109 108 98 91 63
31 25 2 109 108 98 93 66
33 28 2 110 109 101 94 69
33 28 2 110 110 102 97 70
33 28 0 111 110 102 98 71
34 29 -1 112 112 104 98 73
35 31 -2 114 113 106 101 76
38 34 -3 112 114 107 101 77
39 36 -4 110 112 107 102 77
41 36 -5 108 113 109 104 81
43 37 -5 106 111 108 105 82
37 34 -7 104 110 106 103 79
37 35 -7 104 109 106 103 79
39 36 -8 102 108 106 103 79
36 35 -8 102 106 104 102 79
38 41 -6 101 107 105 103 81
37 41 -4 100 106 104 103 82
35 39 -4 98 104 104 102 81
38 40 -3 96 102 102 102 82
36 37 -4 91 100 101 101 80
28 30 -4 89 95 97 101 78
23 26 -5 84 92 93 95 72
21 24 -5 82 89 89 92 71
21 25 -4 80 86 86 92 71
21 25 -1 78 84 84 90 69
21 24 0 77 83 83 86 68
22 24 0 73 80 80 84 65
21 22 0 69 76 75 80 65
18 19 1 64 72 72 77 62
16 16 4 62 70 70 74 60
13 13 3 55 63 65 70 56
9 9 3 51 60 61 67 53
6 6 4 48 57 58 64 51
3 4 3 44 52 54 62 47
2 3 6 42 49 52 60 46
0 0 7 40 47 47 54 44
-1 0 7 36 45 45 51 41
-2 0 8 33 42 43 48 40
-5 -2 9 29 40 41 47 38
-5 -3 9 27 38 39 46 37
-4 -3 9 24 34 37 43 35
-3 -4 8 22 31 34 40 33
-4 -6 9 22 29 33 38 30
-8 -11 10 20 26 29 34 29
-10 -11 12 19 25 26 34 28
-10 -10 13 19 23 27 30 25
-8 -9 13 18 23 25 30 24
-7 -9 13 17 22 25 30 27
-9 -12 12 15 21 23 28 26
-12 -14 11 13 20 23 27 26
-12 -13 11 12 17 21 26 24
-10 -12 10 11 16 20 25 25
-11 -15 11 11 16 19 25 24
-12 -16 11 10 14 17 22 23
-14 -16 12 10 13 16 23 21
-12 -15 12 10 14 16 22 20
-12 -15 12 11 14 16 21 21
-15 -16 13 10 13 15 21 22
-15 -16 14 11 13 16 21 22
-14 -17 12 8 13 16 18 21
-16 -18 11 6 9 14 18 20
-16 -18 9 6 7 11 15 17
-18 -19 10 6 7 12 16 16
-13 -15 10 6 8 12 17 16
-13 -16 10 7 7 10 14 15
-17 -19 11 7 7 9 13 13
-16 -18 13 8 8 10 14 14
-16 -19 12 7 7 9 13 14
-15 -19 12 6 7 8 13 13
-16 -20 10 4 5 8 12 13
-17 -19 11 4 4 7 13 11
-13 -15 13 6 6 9 15 12
-14 -16 11 5 5 9 14 11
-13 -16 10 5 5 7 14 10
-16 -17 10 5 3 6 13 9
-17 -20 11 4 4 5 10 8
-14 -16 13 7 6 7 13 9
-13 -14 12 8 7 8 13 10
-14 -16 11 9 7 8 13 8
-12 -14 11 7 7 8 13 8
-15 -16 11 6 6 8 12 8
-15 -17 11 6 6 8 12 7
-15 -16 13 7 8 9 14 8
-16 -19 10 6 7 7 12 6
-14 -16 10 7 7 6 12 6
-12 -14 10 7 8 7 10 5
-14 -15 10 8 9 7 11 6
-13 -14 12 9 9 9 12 6
-12 -14 11 7 8 9 11 7
-13 -16 10 8 10 11 12 8
-12 -16 11 8 8 11 13 8
-16 -18 11 7 7 9 11 6
-20 -20 11 9 8 10 12 6
-18 -14 12 11 10 11 14 7
-16 -12 14 11 9 9 13 6
-14 -12 14 10 12 9 13 5
-14 -12 13 10 13 10 13 6
-13 -11 15 10 14 11 13 8
-14 -12 13 8 13 11 12 7
-16 -13 13 9 15 12 14 8
-14 -9 14 8 14 12 16 8
-14 -13 13 8 13 11 16 8
-16 -16 12 7 11 11 14 6
-14 -14 10 6 9 9 14 3
-12 -12 12 7 10 8 14 3
-11 -11 12 8 11 9 14 4
-8 -8 13 7 13 10 15 5
-7 -7 15 8 13 11 16 6
-5 -4 17 9 14 11 18 8
-6 -6 16 9 14 12 17 8
-8 -7 16 10 12 11 17 7
-7 -8 15 10 11 10 17 6
-10 -11 12 9 11 9 15 5
-11 -11 10 10 10 9 14 4
-10 -9 11 11 10 9 13 3
-11 -11 12 10 10 8 12 3
-10 -8 12 12 11 9 13 5
-10 -8 14 12 11 8 12 4
-5 -5 14 12 12 8 12 6
-4 -5 16 12 12 10 13 6
-10 -10 15 11 11 9 11 4
-12 -13 13 10 8 5 9 2
-8 -9 14 11 10 6 10 3
-5 -10 13 11 8 5 8 0
-8 -10 12 12 9 5 8 1
-9 -10 12 11 9 4 7 0
-11 -12 13 12 11 4 8 0
-10 -10 14 13 11 4 9 2
-12 -10 15 12 9 4 7 2
-11 -10 15 12 9 5 7 2
-11 -9 14 13 8 4 8 2
-12 -12 11 11 5 1 5 -1
-10 -12 10 10 5 2 5 -2
-10 -10 12 10 3 1 3 -4
-10 -10 13 10 3 1 3 -4
-10 -9 14 10 4 -1 3 -4
-11 -10 12 9 4 -1 1 -5
-12 -13 13 9 4 -1 2 -5
-14 -13 12 8 4 -1 0 -5
-12 -12 14 8 3 -1 1 -5
-10 -10 16 10 4 0 3 -4
-11 -11 15 9 1 -1 1 -5
-13 -14 12 7 0 -2 0 -6
-12 -11 14 9 1 -1 0 -7
-10 -9 15 11 3 -1 1 -6
-9 -9 13 9 1 -3 0 -8
-9 -11 12 9 1 -3 -1 -8
-11 -12 12 10 0 -4 -1 -9
-10 -12 11 10 1 -4 0 -7
-11 -13 11 9 -1 -5 -1 -8
-11 -9 12 9 -1 -2 1 -7
-9 -9 13 8 -2 -4 -1 -9
-12 -12 11 7 -4 -5 -3 -11
-12 -13 11 9 -3 -5 -2 -11
-9 -10 11 9 -3 -5 -3 -10
-8 -11 12 10 -2 -6 -3 -10
-7 -9 12 10 -1 -5 -2 -9
-8 -11 13 10 -1 -6 -3 -9
-9 -10 12 8 -2 -7 -4 -9
-9 -11 12 8 -4 -8 -5 -11
-11 -14 11 7 -5 -8 -6 -11
-12 -14 11 8 -5 -9 -7 -11
-10 -13 11 8 -5 -9 -7 -11
-11 -12 10 8 -5 -9 -7 -13
-10 -11 13 8 -3 -8 -6 -11
-11 -12 13 8 -3 -10 -7 -12
-11 -13 14 8 -3 -9 -6 -12
-11 -12 12 7 -4 -10 -7 -14
-12 -13 11 6 -5 -11 -7 -14
-9 -13 12 6 -5 -11 -6 -14
-11 -15 11 4 -7 -11 -8 -14
-14 -15 11 4 -9 -14 -9 -15
-9 -12 13 6 -6 -11 -8 -14
-8 -10 14 7 -6 -11 -9 -14
-7 -9 13 6 -5 -11 -9 -13
-7 -8 12 7 -5 -10 -8 -12
-10 -12 12 4 -7 -13 -11 -15
-13 -13 11 3 -7 -13 -11 -14
-11 -12 10 3 -7 -13 -12 -14
-12 -14 11 3 -9 -14 -12 -16
-9 -12 11 2 -9 -14 -12 -16
-10 -12 11 2 -10 -15 -12 -16
-12 -13 13 1 -9 -14 -13 -15
-11 -11 14 3 -9 -13 -11 -15
-10 -12 15 3 -7 -12 -12 -15
-10 -9 14 3 -8 -14 -12 -15
-9 -11 15 2 -9 -14 -14 -16
-9 -12 14 2 -8 -15 -15 -16
-8 -9 15 2 -8 -13 -13 -14
-8 -10 15 1 -10 -14 -14 -16
-10 -12 15 -1 -11 -15 -13 -16
-12 -13 13 -1 -12 -15 -12 -16
-13 -16 13 -1 -13 -15 -14 -18
-12 -15 14 1 -11 -14 -13 -16
-11 -14 12 0 -12 -15 -15 -17
-12 -15 11 0 -12 -16 -15 -19
-11 -14 12 -2 -12 -15 -15 -19
-12 -14 12 -2 -10 -15 -14 -16
-12 -14 14 -3 -11 -15 -14 -16
-10 -12 14 -3 -11 -14 -14 -17
-9 -11 18 -3 -10 -14 -13 -15
-9 -10 16 -3 -11 -15 -14 -16
-11 -14 15 -4 -14 -15 -16 -18
-12 -14 15 -3 -13 -16 -15 -17
-10 -11 16 -1 -11 -16 -14 -17
-11 -11 17 -1 -12 -17 -15 -18
-8 -7 19 0 -9 -13 -13 -16
-8 -6 18 0 -9 -13 -12 -17
-9 -5 20 1 -9 -12 -13 -16
-5 -1 22 3 -6 -10 -10 -13
-9 -2 20 2 -7 -11 -10 -15
-10 -2 22 3 -8 -11 -10 -15
-6 0 24 4 -8 -11 -11 -16
-9 -2 25 3 -8 -11 -13 -16
-11 -1 26 2 -9 -13 -14 -19
-8 0 25 3 -8 -13 -13 -19
-9 -2 25 3 -8 -12 -14 -18
-6 0 25 3 -7 -11 -14 -18
-6 1 27 4 -7 -10 -13 -18
-6 3 28 5 -5 -9 -12 -14
-6 7 28 6 -4 -6 -9 -12
-8 7 27 4 -4 -8 -10 -12
-5 6 24 2 -5 -8 -11 -13
-1 8 22 0 -6 -8 -11 -12
5 15 22 1 -5 -8 -10 -10
5 15 20 -3 -7 -10 -11 -10
2 10 16 -7 -11 -12 -14 -12
-3 7 13 -9 -14 -15 -17 -13
-3 6 14 -8 -12 -14 -15 -12
-1 8 16 -7 -12 -14 -16 -15
2 8 16 -7 -12 -12 -15 -13
4 9 16 -6 -11 -13 -15 -13
4 8 15 -6 -10 -13 -15 -12
2 10 17 -4 -9 -11 -14 -11
2 8 17 -4 -9 -11 -14 -11
0 8 17 -4 -8 -12 -15 -11
1 8 16 -4 -8 -12 -14 -11
1 5 16 -5 -8 -12 -15 -13
0 2 14 -7 -10 -13 -16 -12
0 0 14 -6 -11 -13 -17 -13
2 -2 15 -6 -11 -14 -17 -12
1 -4 16 -6 -13 -14 -18 -12
1 -5 15 -9 -15 -16 -20 -12
2 -5 13 -11 -17 -18 -23 -16
0 -7 13 -12 -17 -18 -24 -15
-3 -10 13 -12 -19 -22 -26 -17
-3 -9 16 -12 -18 -21 -27 -17
-3 -7 20 -11 -18 -21 -27 -17
-6 -9 19 -11 -19 -21 -27 -18
-8 -9 18 -12 -20 -22 -30 -18
-9 -12 17 -12 -21 -23 -29 -18
-8 -13 14 -14 -22 -25 -31 -20
-7 -12 13 -14 -23 -24 -32 -19
-7 -13 10 -17 -25 -26 -35 -22
-5 -13 9 -17 -24 -25 -34 -21
-6 -13 8 -16 -24 -25 -35 -19
-6 -13 6 -17 -24 -26 -34 -18
-6 -12 7 -17 -24 -27 -34 -19
-5 -12 8 -19 -24 -27 -35 -19
-7 -12 7 -18 -24 -26 -35 -19
-8 -12 8 -19 -25 -25 -36 -18
-8 -13 9 -19 -24 -26 -36 -19
-7 -12 11 -18 -24 -25 -34 -17
-7 -11 11 -17 -23 -24 -35 -16
-7 -13 11 -17 -22 -23 -34 -16
-6 -12 13 -17 -23 -23 -34 -15
-7 -14 12 -18 -23 -24 -34 -16
-5 -13 12 -18 -23 -24 -34 -15
-3 -11 14 -19 -21 -23 -31 -14
-3 -10 15 -19 -21 -22 -30 -14
-1 -7 14 -19 -19 -19 -27 -12
-4 -8 14 -20 -21 -21 -28 -14
-3 -9 14 -22 -22 -21 -28 -14
-2 -9 17 -21 -21 -19 -27 -14
-5 -9 20 -18 -18 -17 -28 -15
-8 -11 24 -9 -13 -17 -29 -19
-10 -14 28 3 -4 -10 -28 -22
-7 -16 33 16 7 -1 -23 -23
2 -17 33 21 13 7 -15 -22
7 -21 31 23 19 16 -4 -16
13 -22 29 34 31 31 11 -7
27 -18 28 52 48 51 31 6
40 -12 27 66 68 75 59 24
53 1 27 81 92 105 90 46
64 16 29 88 113 134 125 72
74 32 28 74 124 158 160 99
88 52 19 42 121 178 194 130
100 69 1 -8 101 191 229 163
114 83 -28 -78 61 185 250 193
131 96 -64 -157 13 169 262 218
144 111 -104 -235 -30 155 274 243
150 123 -138 -295 -68 138 267 253
149 113 -154 -334 -103 97 222 231
140 76 -162 -361 -147 33 141 183
115 46 -158 -380 -188 -27 71 137
80 25 -145 -390 -215 -65 24 101
49 8 -140 -388 -234 -99 -19 69
22 -12 -139 -388 -257 -138 -65 32
-14 -28 -124 -374 -272 -178 -112 -7
-54 -38 -98 -353 -277 -203 -146 -44
-75 -47 -89 -333 -270 -206 -154 -63
-77 -51 -92 -314 -254 -193 -149 -67
-69 -51 -86 -285 -229 -174 -138 -68
-65 -51 -82 -251 -205 -158 -128 -66
-55 -48 -75 -218 -182 -144 -118 -61
-45 -41 -67 -190 -160 -127 -106 -57
-39 -36 -58 -167 -139 -110 -94 -49
-31 -26 -46 -141 -116 -91 -78 -40
-26 -19 -32 -115 -94 -74 -66 -31
-23 -14 -21 -90 -73 -58 -55 -27
-17 -10 -10 -69 -57 -45 -45 -22
-12 -9 -5 -56 -49 -38 -41 -23
-10 -8 2 -47 -41 -34 -37 -22
-7 -8 4 -38 -36 -29 -33 -19
-5 -9 7 -31 -32 -26 -31 -18
-4 -7 10 -25 -27 -21 -30 -16
-1 -5 12 -20 -24 -20 -29 -17
-3 -6 13 -15 -20 -18 -27 -16
-1 -5 17 -12 -16 -17 -27 -16
1 -4 18 -10 -13 -14 -26 -17
0 -4 17 -10 -12 -12 -25 -16
-3 -8 18 -12 -12 -14 -25 -18
-8 -13 15 -15 -13 -14 -26 -20
-3 -8 16 -15 -12 -12 -23 -18
2 -2 17 -11 -10 -10 -20 -13
1 -3 17 -12 -11 -9 -20 -16
2 -2 18 -10 -8 -8 -20 -15
1 -2 20 -9 -8 -8 -19 -13
1 -3 20 -9 -7 -8 -20 -15
0 -4 21 -8 -4 -8 -20 -15
0 -5 20 -8 -5 -8 -19 -16
2 -3 20 -8 -3 -6 -16 -13
2 -3 20 -9 -3 -5 -16 -15
2 -3 20 -10 -4 -4 -16 -14
3 -4 20 -8 -6 -4 -15 -13
5 -2 21 -8 -5 -3 -14 -13
3 -2 21 -5 -4 -3 -14 -11
4 -1 22 -4 -3 -4 -14 -11
5 1 23 -2 -1 -4 -13 -10
4 0 24 -2 2 -2 -14 -12
1 -3 22 -2 1 -3 -14 -12
1 -4 21 -4 0 -2 -13 -13
3 -2 21 -3 1 1 -12 -12
3 -2 20 -5 0 1 -10 -11
5 -1 20 -3 0 2 -8 -9
8 1 22 -3 0 2 -9 -10
7 2 23 -2 1 1 -9 -10
8 3 25 0 2 2 -6 -8
9 2 24 2 3 3 -7 -9
9 0 22 1 5 5 -6 -8
8 1 22 3 6 7 -4 -7
6 1 21 1 5 7 -4 -6
6 1 20 -1 4 7 -4 -7
6 0 21 0 5 9 -2 -5
3 -1 20 1 4 8 -1 -4
6 1 19 1 4 8 -2 -4
11 7 21 5 8 11 0 -4
14 10 24 9 11 13 3 0
15 11 24 9 13 14 3 2
17 10 23 10 14 16 3 1
15 9 22 10 14 17 4 2
12 7 20 7 12 15 3 1
10 3 19 7 13 16 4 1
13 6 19 8 13 18 6 3
13 6 19 8 13 18 7 5
14 8 20 13 16 23 10 8
14 9 19 16 19 25 12 11
14 9 20 18 20 25 12 12
14 10 22 20 23 27 13 13
15 11 23 22 25 30 14 13
15 10 23 23 26 29 15 15
17 11 22 25 29 32 17 16
18 11 20 26 30 34 19 16
18 12 19 26 29 35 20 17
20 12 19 28 30 35 22 20
21 13 16 31 31 38 23 21
22 15 16 34 34 40 25 22
19 13 19 38 36 40 27 25
17 13 18 39 39 40 25 23
22 16 19 42 45 46 29 25
25 18 18 43 46 46 31 26
26 19 19 45 47 49 33 28
30 23 20 48 51 53 38 31
32 24 19 50 51 55 40 34
34 27 17 51 53 58 42 36
35 29 16 54 55 60 44 38
34 27 14 55 56 59 44 39
39 30 15 59 59 60 46 42
39 32 14 61 61 64 49 43
37 32 13 63 65 67 51 45
41 35 14 64 68 71 55 48
42 35 11 64 68 71 56 48
46 38 8 63 70 73 58 49
50 40 7 64 70 74 62 55
51 42 7 63 70 74 62 57
55 44 7 65 71 78 65 60
56 47 6 66 73 79 65 62
57 47 6 67 74 79 68 63
57 49 5 68 75 80 68 65
53 47 3 69 77 83 68 65
53 46 3 67 76 83 70 66
54 48 3 67 75 82 70 66
53 47 1 64 75 83 71 67
55 48 -1 65 74 82 73 68
54 48 0 65 72 82 74 70
56 51 0 63 71 82 73 69
58 53 0 61 73 82 73 71
56 52 -2 60 70 81 73 71
53 51 0 60 72 81 73 71
53 49 -1 58 71 81 72 70
52 50 0 55 70 79 70 69
51 50 0 53 67 78 69 67
50 48 -1 50 64 76 67 65
46 46 0 47 61 74 66 65
46 44 2 45 59 70 64 64
46 45 0 42 56 69 61 61
48 46 2 42 56 66 60 61
43 42 2 39 53 64 57 59
39 39 4 39 52 61 55 57
38 38 5 36 50 59 53 53
34 33 7 32 47 56 50 51
28 28 7 26 41 51 44 46
26 28 7 23 38 49 42 46
27 28 10 23 38 48 43 50
26 27 12 20 36 46 41 49
24 25 12 16 32 42 37 47
24 25 13 15 31 40 35 47
22 24 12 13 27 37 32 46
19 21 15 11 25 34 29 43
16 19 16 11 24 32 27 41
16 16 17 6 21 30 23 37
14 14 15 3 17 26 19 34
15 12 16 0 16 25 17 31
13 9 14 -5 11 21 15 28
10 7 15 -8 7 18 13 27
10 8 16 -11 6 17 12 27
8 5 15 -12 4 14 9 24
6 4 16 -12 2 12 7 23
8 7 18 -11 2 10 5 21
9 7 19 -11 4 11 5 21
9 8 20 -12 2 10 5 20
4 3 18 -14 -2 8 2 18
0 -3 17 -17 -4 6 0 16
-1 -4 17 -19 -7 5 0 14
-2 -4 17 -20 -9 3 0 16
-1 -3 17 -19 -9 3 0 15
1 -1 18 -18 -8 3 0 17
1 -2 17 -17 -9 2 0 18
2 -2 18 -16 -9 1 -1 19
1 -1 19 -17 -8 1 1 18
1 -3 19 -17 -8 1 1 20
0 -4 19 -19 -9 1 1 20
-1 -6 18 -21 -11 0 -2 20
-2 -6 17 -22 -12 -1 -1 20
-2 -5 16 -20 -13 0 0 21
-2 -6 16 -22 -15 -2 -1 19
-2 -5 17 -20 -13 -2 0 21
-5 -7 17 -19 -13 -2 -1 21
-6 -8 15 -20 -14 -4 -5 19
-3 -5 17 -20 -12 -2 -4 18
-2 -3 19 -19 -13 -2 -4 20
-3 -5 18 -20 -14 -3 -4 21
-4 -5 18 -20 -14 -2 -4 20
-5 -6 16 -22 -17 -4 -5 19
-2 -5 16 -22 -17 -4 -4 19
0 -6 16 -22 -15 -4 -4 19
0 -6 16 -21 -15 -4 -4 18
0 -4 17 -20 -15 -4 -4 18
-1 -5 18 -19 -14 -5 -6 18
-2 -6 16 -19 -13 -6 -6 17
-4 -8 17 -18 -14 -5 -5 16
-6 -9 16 -20 -16 -6 -8 15
-4 -8 17 -19 -14 -4 -6 16
-3 -6 15 -18 -14 -4 -5 16
3 0 17 -14 -13 -2 -3 19
3 1 16 -15 -12 -3 -4 18
2 -1 16 -14 -11 -4 -3 20
-1 -3 16 -13 -11 -4 -4 19
-4 -6 16 -14 -12 -5 -7 17
-2 -5 15 -15 -12 -6 -8 14
-1 -4 16 -14 -11 -5 -7 15
-2 -4 18 -13 -11 -3 -6 15
-2 -4 18 -12 -10 -2 -5 16
0 -3 16 -14 -12 -3 -4 15
-1 -3 14 -14 -13 -4 -7 14
1 -1 15 -12 -12 -4 -6 14
0 -3 16 -11 -11 -4 -6 13
-2 -2 17 -9 -11 -3 -5 13
2 1 19 -6 -8 -2 -5 12
2 -1 18 -8 -7 -3 -5 10
-2 -3 17 -8 -7 -3 -6 8
-3 -2 16 -9 -8 -3 -6 8
-3 -4 17 -10 -8 -2 -6 8
-1 -1 17 -11 -8 -1 -4 8
-1 -2 17 -9 -7 0 -3 10
-2 -2 16 -9 -8 -2 -5 9
-2 -3 16 -10 -8 -2 -5 9
-3 -3 16 -8 -8 -2 -5 8
-2 -2 18 -6 -7 -3 -5 9
0 1 17 -6 -6 -2 -4 8
0 0 18 -6 -5 0 -3 9
-1 0 19 -5 -5 0 -4 7
1 -2 18 -7 -5 -1 -4 6
-1 -3 17 -8 -6 -1 -3 6
1 -2 16 -7 -7 -2 -3 6
0 -3 16 -8 -7 -3 -3 6
0 -3 14 -8 -8 -4 -3 4
-2 -1 15 -7 -7 -3 -4 4
-2 0 17 -5 -6 -3 -6 2
-2 -1 16 -6 -6 -3 -5 1
-2 -1 16 -5 -6 -3 -5 3
-4 -2 16 -4 -5 -1 -6 2
-4 -3 16 -5 -5 -1 -6 3
-2 -2 12 -8 -8 -3 -7 1
0 -2 11 -8 -9 -3 -7 1
1 -2 12 -9 -11 -4 -8 1
0 -4 13 -9 -11 -5 -8 -1
-2 -3 13 -7 -11 -5 -8 0
-3 -5 15 -8 -10 -5 -11 -2
-4 -4 15 -8 -11 -6 -10 -3
-5 -4 14 -8 -11 -7 -10 -4
-4 -3 15 -6 -9 -5 -9 -2
1 1 17 -6 -8 -4 -8 -1
0 -1 15 -8 -10 -5 -9 -3
-4 -3 13 -7 -11 -7 -9 -3
-3 -3 13 -8 -12 -7 -11 -4
2 0 15 -6 -11 -7 -9 -3
0 0 15 -6 -12 -8 -9 -4
-3 -3 13 -7 -13 -10 -12 -6
-4 -7 11 -7 -13 -10 -12 -6
-1 -4 12 -7 -13 -9 -11 -6
-1 -4 12 -8 -13 -9 -14 -7
-1 -5 13 -8 -14 -10 -14 -7
0 -4 14 -9 -15 -10 -13 -8
-2 -4 12 -8 -15 -10 -12 -6
-4 -5 11 -8 -15 -12 -12 -7
-4 -6 10 -8 -17 -12 -13 -8
-6 -7 11 -7 -16 -12 -15 -9
-4 -3 12 -5 -14 -11 -15 -9
-3 -3 13 -5 -13 -10 -15 -10
-6 -5 16 -4 -12 -10 -14 -9
-4 -3 14 -5 -13 -10 -14 -9
-3 -4 12 -6 -13 -10 -15 -10
-3 -4 11 -6 -14 -11 -14 -11
-3 -3 12 -5 -13 -11 -14 -9
-2 -3 13 -6 -14 -11 -14 -9
-2 -3 14 -6 -13 -11 -14 -10
-4 -5 14 -6 -14 -13 -14 -10
-5 -5 13 -5 -13 -13 -15 -11
-2 -4 13 -5 -12 -11 -15 -11
-4 -4 12 -5 -12 -12 -16 -10
-2 -3 12 -6 -13 -13 -17 -12
-1 -2 12 -6 -12 -12 -15 -11
-3 -3 12 -5 -13 -12 -14 -10
-3 -2 11 -4 -12 -11 -15 -9
-6 -3 10 -5 -14 -12 -15 -10
-6 -6 9 -6 -15 -13 -16 -11
-4 -4 11 -5 -14 -13 -17 -11
-4 -5 11 -5 -13 -13 -18 -11
-4 -4 12 -4 -13 -13 -18 -12
-3 -3 13 -4 -12 -13 -17 -11
-5 -5 10 -6 -13 -13 -18 -12
-4 -5 10 -6 -13 -13 -18 -14
-6 -6 10 -7 -14 -13 -17 -13
-4 -4 11 -5 -13 -13 -15 -12
-1 -1 12 -5 -14 -12 -17 -13
-2 -3 11 -5 -14 -13 -17 -13
-4 -3 9 -5 -14 -16 -17 -14
-5 -5 9 -5 -13 -16 -18 -13
-5 -7 8 -7 -14 -16 -20 -16
-2 -4 10 -4 -10 -13 -17 -13
2 0 11 -4 -10 -13 -16 -12
-1 -3 10 -4 -11 -13 -18 -12
-3 -7 7 -6 -13 -14 -18 -14
-11 -13 6 -6 -15 -16 -19 -16
-10 -13 5 -7 -15 -17 -20 -14
-7 -11 7 -6 -14 -16 -19 -14
-4 -8 8 -5 -14 -15 -19 -15
-2 -6 11 -3 -11 -13 -18 -12
-4 -6 10 -4 -11 -14 -19 -15
-4 -6 9 -4 -11 -14 -20 -16
-4 -6 6 -6 -12 -14 -20 -16
-4 -9 6 -6 -13 -14 -19 -16
-5 -9 5 -7 -15 -16 -20 -17
-5 -10 5 -6 -15 -16 -20 -17
-6 -11 3 -7 -15 -17 -20 -17
-7 -10 5 -5 -13 -16 -19 -16
-4 -6 6 -4 -12 -15 -17 -14
-3 -8 6 -4 -12 -16 -19 -15
-4 -7 6 -5 -14 -17 -21 -17
-6 -9 6 -5 -14 -17 -22 -18
-6 -8 6 -7 -14 -17 -22 -17
-4 -8 6 -7 -14 -17 -21 -18
-6 -8 6 -8 -15 -17 -21 -18
-7 -9 6 -6 -15 -16 -19 -16
-9 -9 5 -6 -15 -16 -19 -16
-9 -12 6 -4 -14 -15 -19 -15
-6 -8 6 -4 -14 -16 -18 -15
-7 -7 8 -1 -12 -14 -19 -13
-7 -7 8 -2 -11 -15 -18 -14
-6 -9 7 -3 -12 -17 -19 -16
-7 -11 7 -4 -12 -17 -19 -14
-6 -9 7 -4 -11 -16 -19 -14
-6 -9 5 -4 -12 -16 -18 -15
-7 -10 5 -3 -12 -15 -17 -14
-7 -9 5 -2 -12 -15 -17 -14
-8 -10 6 -2 -12 -16 -17 -15
-6 -7 6 -2 -12 -15 -16 -14
-9 -8 6 -1 -11 -14 -17 -14
-11 -6 7 0 -9 -14 -16 -14
-8 -3 8 1 -7 -13 -15 -12
-5 1 9 1 -6 -11 -13 -10
-4 2 9 1 -6 -10 -13 -12
-4 2 8 1 -6 -10 -13 -13
-6 0 7 1 -7 -11 -13 -12
-7 0 9 1 -7 -11 -13 -14
-10 -2 10 2 -8 -12 -14 -16
-10 -2 11 2 -8 -13 -14 -15
-9 -2 12 2 -6 -13 -14 -15
-11 -3 11 3 -7 -12 -14 -15
-11 -2 9 3 -6 -11 -13 -15
-6 2 12 5 -2 -9 -11 -13
-6 3 15 6 -2 -7 -11 -12
-3 9 16 9 0 -4 -7 -10
-2 11 15 9 0 -3 -6 -9
-4 10 14 8 -1 -3 -6 -9
-2 11 12 7 -2 -5 -7 -9
-2 10 10 6 -2 -6 -8 -10
-3 11 8 5 -3 -7 -8 -8
-2 10 5 2 -6 -8 -10 -10
-5 6 3 1 -7 -9 -11 -11
-5 6 2 0 -7 -9 -11 -10
-3 8 -1 1 -6 -8 -11 -11
-2 10 1 2 -5 -7 -11 -10
-2 8 0 3 -4 -7 -11 -10
-3 5 -3 2 -6 -9 -14 -11
-2 4 -1 3 -6 -9 -13 -10
4 8 0 3 -5 -9 -12 -10
4 8 -2 4 -4 -9 -13 -10
0 6 -3 5 -4 -7 -12 -10
-1 6 -1 5 -4 -8 -13 -12
-1 4 0 6 -3 -7 -12 -11
1 4 1 5 -4 -7 -13 -12
-1 1 1 5 -5 -7 -12 -11
-3 -4 -2 5 -6 -10 -14 -13
-3 -7 -3 4 -8 -11 -16 -15
-5 -11 -2 2 -10 -13 -17 -16
-5 -11 -2 0 -12 -17 -19 -17
-7 -12 -1 0 -11 -17 -21 -18
-4 -9 1 2 -10 -16 -20 -16
-7 -11 1 3 -10 -17 -20 -18
-13 -16 -1 1 -10 -17 -22 -20
-13 -14 0 2 -11 -17 -23 -20
-11 -13 0 2 -11 -16 -23 -20
-15 -17 1 3 -11 -17 -23 -20
-13 -16 -1 2 -11 -18 -23 -20
-12 -15 -1 1 -13 -19 -24 -21
-12 -15 -2 1 -14 -21 -24 -21
-10 -15 -1 1 -15 -22 -26 -22
-11 -16 -1 1 -14 -20 -25 -23
-10 -15 0 1 -12 -20 -24 -22
-9 -14 0 2 -11 -19 -24 -21
-13 -17 -2 2 -13 -20 -25 -22
-14 -18 -2 2 -13 -21 -24 -21
-13 -15 -3 1 -14 -21 -24 -22
-15 -16 -2 2 -13 -19 -24 -21
-15 -15 -2 3 -12 -19 -24 -21
-14 -15 -3 3 -13 -20 -25 -22
-11 -12 -3 4 -12 -20 -25 -22
-11 -12 -2 5 -11 -18 -23 -21
-13 -13 -3 5 -10 -19 -23 -22
-12 -12 -2 4 -10 -18 -22 -20
-12 -13 -3 3 -11 -18 -24 -21
-13 -14 -3 4 -11 -18 -24 -20
-14 -15 -3 3 -12 -20 -23 -20
-16 -17 -5 2 -11 -19 -23 -20
-15 -15 -3 4 -11 -19 -22 -18
-17 -15 0 6 -9 -18 -20 -17
-19 -16 3 9 -5 -17 -21 -18
-18 -16 7 19 0 -14 -20 -21
-18 -20 11 32 11 -8 -18 -24
-17 -24 15 42 20 0 -13 -24
-12 -27 13 47 24 6 -7 -23
-4 -28 11 50 29 16 5 -16
7 -25 8 62 41 30 21 -6
18 -24 6 78 56 48 39 7
34 -18 4 95 76 71 64 25
50 -4 4 113 100 100 96 49
60 11 6 123 122 129 130 75
70 29 6 114 137 154 164 104
84 45 -2 86 136 174 198 133
96 60 -18 39 117 185 229 162
110 74 -42 -35 76 177 248 192
124 87 -79 -113 28 158 258 217
139 104 -117 -191 -15 148 271 244
144 117 -150 -253 -53 128 262 251
140 102 -165 -295 -88 86 214 228
130 67 -171 -322 -133 22 136 180
107 38 -168 -344 -174 -36 67 135
69 20 -154 -355 -200 -72 23 101
38 3 -150 -357 -220 -104 -17 69
10 -19 -148 -357 -242 -142 -59 32
-31 -35 -131 -342 -253 -174 -103 -5
-74 -47 -110 -321 -258 -199 -134 -42
-92 -56 -103 -301 -252 -201 -143 -60
-91 -58 -103 -283 -236 -189 -136 -62
-86 -57 -98 -253 -210 -168 -123 -59
-79 -55 -94 -217 -185 -153 -112 -56
-69 -51 -84 -185 -163 -139 -102 -51
-62 -49 -76 -158 -141 -123 -93 -45
-53 -42 -68 -134 -120 -106 -79 -38
-45 -32 -56 -110 -99 -90 -65 -28
-41 -29 -45 -84 -79 -74 -57 -22
-34 -22 -33 -58 -57 -58 -42 -16
-29 -19 -22 -38 -42 -47 -35 -10
-25 -19 -16 -25 -32 -40 -32 -9
-21 -17 -10 -14 -24 -33 -27 -7
-18 -17 -8 -7 -19 -29 -23 -4
-17 -17 -9 -3 -18 -28 -24 -4
-16 -15 -8 3 -13 -25 -21 -3
-16 -16 -5 8 -9 -22 -21 -3
-14 -14 -3 12 -8 -23 -22 -3
-14 -14 0 16 -5 -22 -24 -4
-19 -16 1 18 -2 -21 -22 -4
-17 -13 4 20 0 -19 -20 -2
-17 -12 5 20 0 -17 -20 -1
-17 -13 4 20 1 -16 -18 0
-14 -13 3 21 1 -16 -17 0
-13 -14 1 21 -1 -16 -17 2
-12 -14 3 23 2 -14 -16 3
-10 -14 3 24 1 -16 -16 3
-9 -14 4 25 1 -16 -16 2
-9 -13 4 26 3 -16 -16 1
-11 -14 5 28 7 -14 -14 1
-11 -14 3 28 6 -15 -14 2
-12 -13 4 27 6 -12 -15 3
-12 -14 4 26 6 -12 -14 2
-10 -12 5 27 5 -12 -13 4
-7 -10 4 27 5 -13 -14 5
-8 -9 4 27 7 -12 -13 6
-8 -9 5 30 8 -12 -11 6
-10 -10 5 29 6 -14 -14 5
-10 -12 4 30 6 -14 -16 3
-10 -12 6 30 9 -14 -14 2
-10 -12 6 31 8 -14 -16 0
-11 -12 7 32 10 -11 -15 2
-11 -11 7 32 11 -9 -13 2
-8 -9 6 32 10 -8 -12 2
-5 -7 6 33 10 -8 -11 5
-7 -8 7 33 11 -7 -10 4
-7 -11 6 34 10 -9 -10 5
-9 -14 6 34 10 -9 -11 4
-10 -13 5 34 11 -9 -12 3
-10 -12 7 34 14 -6 -10 3
-10 -11 6 34 13 -8 -12 3
-9 -10 8 34 13 -7 -11 3
-8 -8 8 34 15 -4 -11 4
-9 -8 6 34 13 -6 -10 3
-10 -9 4 35 12 -5 -12 3
-8 -8 4 35 14 -3 -10 5
-3 -5 5 39 15 -2 -7 7
-2 -5 7 40 15 -2 -8 8
-4 -8 7 38 17 -1 -10 6
-7 -9 6 40 21 1 -6 7
-4 -6 5 43 21 2 -5 8
-2 -4 4 41 20 2 -6 8
-1 -3 6 42 23 5 -3 9
-2 -3 6 43 22 5 -2 12
-3 -4 4 43 21 5 -4 14
-2 -3 3 45 22 6 -2 14
-1 -1 4 48 23 7 -1 14
0 1 6 51 26 10 1 16
3 1 7 53 30 12 0 16
1 -1 5 54 32 12 2 14
1 0 5 57 34 14 4 17
3 3 5 59 35 16 6 17
6 4 3 58 36 17 6 17
8 5 2 61 37 19 10 19
9 5 1 63 38 20 10 20
7 3 2 66 39 21 10 19
7 2 0 67 41 21 11 20
7 3 -1 69 41 22 10 22
11 7 0 72 46 25 14 26
17 12 3 78 51 30 19 29
14 11 3 80 52 31 20 32
12 10 2 80 54 33 22 32
10 7 1 82 56 35 24 34
13 10 2 84 57 38 27 36
16 13 0 86 59 39 28 39
19 15 -2 89 60 41 29 40
23 18 -2 90 63 43 31 41
25 21 -3 92 64 44 33 44
25 20 -6 94 66 45 34 43
27 21 -5 96 68 48 37 45
27 22 -6 97 71 50 38 47
29 25 -6 100 72 53 40 50
33 29 -7 101 74 55 43 51
33 29 -10 100 74 55 45 55
37 31 -9 102 75 60 47 58
37 32 -11 101 76 61 50 59
37 31 -11 102 77 61 50 58
40 37 -9 104 80 62 52 61
38 35 -11 104 80 64 52 59
38 36 -11 104 80 64 52 60
40 39 -12 104 81 64 56 61
41 40 -12 104 82 67 57 63
41 42 -13 101 82 68 57 63
41 43 -15 101 82 69 60 66
41 41 -17 100 80 68 59 66
43 43 -15 99 79 67 59 67
44 44 -13 99 80 67 59 67
43 43 -13 98 78 65 57 66
42 42 -14 98 77 64 56 64
39 40 -16 94 75 61 54 61
40 42 -14 93 76 62 54 63
40 42 -15 93 74 62 53 60
38 39 -15 88 71 59 50 58
38 39 -14 86 71 59 51 59
35 36 -13 84 68 57 49 59
34 36 -12 82 66 56 47 56
33 37 -11 80 63 53 45 55
29 31 -10 79 62 49 43 53
29 30 -12 76 58 46 37 49
25 27 -10 72 56 43 36 44
22 26 -9 70 53 41 34 43
21 26 -8 66 50 40 31 40
18 23 -7 61 48 36 28 37
16 21 -8 58 43 33 25 34
15 20 -8 55 39 30 22 30
13 18 -5 52 37 27 20 29
11 15 -3 49 34 23 17 25
6 10 -2 47 31 20 13 23
4 7 -2 46 31 19 10 20
6 8 0 42 28 16 8 17
6 8 -1 40 25 13 4 15
5 8 -1 38 22 9 2 13
4 7 0 34 20 8 -1 10
0 4 -1 30 15 5 -3 8
1 6 1 29 13 3 -4 7
2 7 2 29 11 0 -6 6
-1 4 3 28 10 -1 -7 4
-5 1 2 25 8 -4 -9 3
-8 -4 1 23 6 -4 -13 -1
-9 -4 4 23 6 -5 -11 -2
-9 -4 7 22 5 -6 -12 -1
-10 -6 5 21 3 -7 -15 -4
-12 -7 4 19 1 -9 -16 -5
-13 -8 3 16 -1 -12 -17 -6
-12 -8 2 14 -4 -14 -18 -7
-10 -8 2 12 -6 -17 -21 -9
-13 -10 4 11 -8 -19 -21 -10
-12 -10 4 11 -7 -19 -23 -11
-11 -10 3 12 -7 -19 -22 -11
-15 -13 3 11 -7 -20 -25 -14
-11 -10 4 11 -7 -20 -25 -11
-7 -7 3 10 -8 -20 -26 -12
-9 -10 2 8 -9 -21 -27 -14
-14 -11 2 9 -9 -21 -24 -12
-17 -14 3 6 -11 -22 -24 -13
-16 -13 4 7 -11 -21 -24 -11
-16 -13 5 8 -10 -22 -24 -12
-15 -15 4 7 -13 -23 -27 -14
-14 -15 6 8 -12 -23 -26 -15
-16 -14 6 7 -11 -23 -26 -15
-17 -15 5 7 -11 -23 -26 -17
-16 -14 3 6 -12 -23 -27 -18
-14 -13 3 6 -11 -23 -27 -16
-14 -12 6 6 -12 -23 -25 -16
-16 -14 4 5 -14 -24 -26 -17
-17 -15 1 3 -16 -26 -28 -19
-16 -14 2 4 -15 -25 -27 -18
-17 -16 2 4 -16 -26 -29 -20
-15 -15 4 6 -15 -25 -29 -20
-14 -14 6 8 -13 -26 -28 -21
-14 -12 6 7 -12 -26 -29 -21
-11 -9 7 7 -11 -24 -29 -21
-10 -9 8 8 -10 -23 -28 -20
-13 -11 6 7 -11 -25 -28 -21
-15 -13 5 8 -11 -24 -28 -20
-18 -15 5 7 -12 -25 -29 -20
-17 -15 6 9 -11 -24 -27 -20
-15 -13 5 10 -11 -24 -28 -19
-16 -15 5 8 -11 -26 -31 -21
-15 -14 5 8 -10 -26 -29 -21
-13 -13 4 8 -11 -26 -29 -20
-15 -13 4 7 -11 -27 -30 -21
-13 -10 6 8 -10 -24 -27 -18
-12 -8 5 7 -11 -24 -27 -18
-11 -9 6 7 -12 -24 -27 -19
-11 -9 6 8 -11 -25 -25 -20
-12 -11 6 7 -10 -24 -22 -21
-13 -9 6 8 -10 -25 -22 -20
-15 -11 8 10 -8 -23 -22 -21
-14 -11 7 10 -8 -23 -23 -20
-13 -10 6 9 -8 -25 -24 -20
-15 -12 5 9 -8 -25 -23 -21
-15 -14 4 8 -8 -24 -24 -21
-9 -7 5 9 -7 -22 -22 -18
-8 -6 6 7 -7 -22 -21 -18
-9 -7 6 6 -8 -23 -22 -19
-10 -8 3 5 -10 -25 -24 -20
-11 -9 3 7 -10 -25 -24 -21
-9 -7 3 7 -8 -25 -25 -22
-10 -6 3 7 -8 -24 -24 -21
-9 -4 4 8 -6 -24 -22 -20
-11 -6 3 7 -7 -24 -22 -19
-12 -8 3 5 -7 -23 -23 -20
-10 -6 4 5 -7 -24 -21 -20
-9 -6 5 5 -7 -23 -21 -19
-9 -8 5 5 -7 -22 -21 -19
-9 -9 3 4 -8 -23 -22 -19
-10 -8 3 5 -8 -24 -22 -19
-6 -5 5 6 -6 -23 -21 -20
-7 -4 5 5 -5 -22 -22 -18
-11 -8 4 4 -7 -25 -24 -22
-11 -7 4 3 -8 -26 -24 -22
-11 -7 4 2 -8 -25 -24 -22
-11 -6 4 3 -8 -24 -22 -21
-11 -5 4 3 -8 -25 -22 -21
-11 -6 4 3 -8 -26 -22 -22
-11 -7 4 1 -10 -26 -23 -23
-9 -7 4 1 -11 -27 -25 -23
-7 -7 5 3 -8 -25 -24 -23
-6 -3 6 3 -7 -24 -23 -22
-8 -3 6 4 -7 -23 -23 -21
-12 -7 5 3 -9 -25 -24 -24
-15 -11 5 2 -9 -25 -25 -24
-14 -11 4 2 -10 -25 -23 -23
-9 -10 3 -1 -11 -27 -24 -25
-9 -10 4 0 -11 -27 -25 -23
-12 -12 4 1 -10 -27 -23 -23
-11 -12 4 2 -10 -28 -24 -23
-14 -13 6 3 -9 -27 -24 -23
-13 -12 7 2 -8 -28 -24 -22
-12 -11 5 1 -11 -29 -25 -23
-15 -14 4 -2 -13 -31 -29 -23
-13 -12 5 -2 -11 -29 -27 -22
-10 -10 4 -1 -11 -28 -24 -20
-12 -12 3 -1 -11 -28 -25 -19
-6 -7 4 1 -11 -28 -24 -18
-7 -7 4 1 -11 -29 -25 -15
-11 -11 4 1 -12 -29 -26 -16
-12 -13 6 1 -10 -29 -26 -17
-13 -14 6 1 -10 -28 -26 -16
-10 -10 8 2 -10 -28 -25 -16
-10 -10 9 2 -11 -29 -27 -17
-12 -12 9 1 -12 -28 -26 -15
-11 -11 7 0 -12 -28 -26 -15
-11 -10 6 0 -12 -28 -25 -15
-10 -9 6 1 -12 -28 -25 -14
-9 -8 6 1 -11 -28 -25 -15
-11 -12 6 2 -12 -30 -27 -15
-10 -13 7 1 -12 -31 -28 -16
-12 -14 5 0 -13 -33 -29 -17
-13 -14 5 0 -13 -32 -29 -16
-13 -13 6 0 -12 -30 -28 -14
-11 -14 5 -1 -13 -31 -26 -17
-11 -12 4 -3 -14 -31 -27 -18
-12 -12 6 -2 -13 -31 -27 -17
-11 -12 5 -3 -15 -33 -29 -18
-11 -11 6 -3 -14 -32 -26 -18
-13 -13 6 -3 -13 -31 -27 -18
-12 -13 7 -1 -12 -31 -28 -17
-10 -12 7 0 -12 -29 -27 -16
-14 -14 7 -2 -12 -30 -28 -17
-12 -13 7 -2 -13 -31 -29 -16
-13 -12 6 -3 -14 -31 -29 -17
-16 -15 4 -4 -16 -32 -29 -17
-16 -15 3 -3 -15 -32 -28 -18
-13 -13 5 -2 -13 -33 -26 -16
-12 -10 6 -1 -13 -32 -26 -16
-4 -3 8 1 -11 -30 -25 -13
-3 -7 8 1 -12 -31 -25 -14
-9 -12 6 -2 -13 -33 -28 -16
-13 -15 5 -2 -13 -32 -28 -16
-13 -14 6 -2 -14 -32 -28 -15
-11 -11 5 -2 -13 -30 -26 -15
-10 -10 5 -4 -14 -31 -27 -16
-12 -11 6 -3 -13 -30 -27 -15
-12 -10 6 -3 -14 -31 -27 -14
-13 -13 7 -1 -12 -30 -27 -14
-13 -13 7 -2 -12 -30 -27 -15
-13 -14 9 0 -12 -30 -27 -16
-14 -16 8 -1 -12 -30 -29 -16
-13 -14 8 -2 -12 -30 -29 -18
-10 -13 6 -3 -13 -30 -28 -17
-12 -14 5 -4 -13 -31 -27 -18
-11 -13 8 -5 -13 -31 -28 -17
-10 -13 8 -4 -14 -31 -29 -17
-10 -13 9 -3 -13 -31 -27 -16
-10 -12 9 -3 -14 -31 -25 -17
-12 -12 9 -4 -14 -31 -26 -16
-11 -12 10 -4 -14 -31 -28 -15
-13 -13 10 -4 -13 -31 -28 -15
-12 -13 9 -4 -13 -32 -28 -15
-7 -9 8 -3 -12 -31 -26 -15
-7 -9 9 -2 -11 -30 -26 -13
-7 -6 10 -2 -9 -28 -25 -13
-5 -4 10 -1 -8 -26 -23 -12
-6 -4 10 0 -8 -27 -24 -12
-9 -5 12 0 -8 -27 -24 -12
-11 -5 12 -1 -8 -27 -23 -11
-10 -3 14 2 -7 -25 -23 -11
-8 -1 14 0 -7 -26 -25 -12
-10 -3 15 1 -6 -25 -24 -12
-8 -3 14 0 -7 -26 -24 -12
-8 -2 15 0 -6 -26 -23 -10
-10 -2 16 -1 -6 -26 -23 -11
-13 -3 18 1 -5 -25 -21 -10
-13 -3 20 3 -4 -23 -22 -10
-9 0 20 5 -2 -22 -20 -9
-5 5 20 7 0 -20 -18 -6
-3 9 20 8 1 -17 -14 -4
0 12 21 8 2 -16 -14 -2
0 12 17 4 -1 -18 -14 -3
-2 13 17 4 1 -17 -15 -2
-1 14 14 2 0 -19 -16 -3
-5 9 9 -2 -4 -22 -18 -4
-4 8 5 -7 -8 -24 -19 -5
-2 8 2 -10 -10 -25 -20 -5
-3 10 5 -9 -10 -25 -19 -5
-3 12 7 -6 -8 -22 -17 -4
-4 10 8 -5 -6 -20 -17 -4
-6 8 5 -5 -5 -21 -17 -4
-4 8 6 -4 -6 -21 -16 -4
-2 7 8 -4 -5 -20 -16 -4
-3 6 9 -3 -3 -19 -14 -2
-1 5 10 -2 -3 -18 -14 -2
-3 3 11 -2 -5 -19 -15 -2
-3 2 11 -2 -4 -19 -15 -2
-4 1 9 -3 -4 -20 -15 -2
-2 -2 8 -7 -8 -23 -19 -5
-1 -4 8 -8 -9 -24 -20 -7
-2 -6 8 -9 -10 -26 -21 -8
-3 -8 10 -10 -11 -26 -22 -9
-3 -8 9 -11 -11 -27 -23 -10
-6 -11 9 -11 -13 -27 -23 -10
-6 -10 9 -13 -14 -29 -24 -12
-8 -10 9 -14 -15 -29 -25 -13
-10 -11 8 -15 -15 -30 -26 -13
-13 -15 9 -14 -15 -30 -27 -15
-12 -14 10 -14 -16 -32 -30 -15
-11 -12 10 -14 -16 -31 -28 -14
-12 -13 10 -13 -14 -30 -27 -15
-14 -15 10 -15 -15 -31 -29 -16
-12 -14 10 -15 -17 -31 -29 -15
-11 -15 10 -15 -16 -31 -27 -13
-10 -15 9 -16 -18 -32 -29 -14
-10 -14 9 -17 -18 -31 -26 -13
-10 -13 9 -17 -17 -31 -25 -12
-8 -11 10 -17 -16 -29 -24 -10
-7 -10 12 -17 -15 -28 -24 -10
-11 -13 12 -18 -15 -28 -25 -11
-12 -16 10 -18 -15 -28 -26 -11
-13 -17 9 -19 -16 -28 -26 -11
-13 -17 11 -18 -15 -28 -25 -9
-11 -16 12 -18 -14 -27 -23 -9
-12 -16 13 -19 -13 -26 -22 -9
-12 -17 11 -21 -15 -27 -23 -10
-11 -14 11 -19 -13 -26 -20 -8
-11 -14 12 -18 -12 -25 -19 -8
-12 -15 14 -18 -12 -25 -19 -9
-12 -15 13 -19 -13 -26 -21 -10
-12 -15 12 -19 -14 -26 -21 -10
-15 -16 13 -19 -14 -26 -21 -13
-17 -16 15 -17 -13 -26 -24 -15
-18 -15 21 -9 -7 -25 -25 -18
-18 -18 26 5 4 -18 -24 -22
-17 -22 30 19 15 -8 -18 -23
-11 -26 31 26 25 2 -9 -20
-5 -29 28 29 30 13 3 -16
2 -30 27 39 42 28 20 -6
12 -26 28 57 61 51 43 10
23 -22 27 73 82 77 72 28
39 -9 24 91 109 108 107 50
53 8 27 105 136 144 146 80
58 24 28 93 150 173 184 108
69 46 22 67 149 196 226 140
82 62 9 26 137 215 264 174
91 75 -16 -34 101 215 292 205
106 90 -49 -107 54 203 311 235
122 109 -86 -177 15 197 332 265
125 121 -120 -242 -23 180 329 276
121 115 -144 -287 -58 146 288 258
113 86 -152 -313 -93 88 213 216
98 53 -150 -333 -138 22 131 167
66 33 -138 -349 -173 -27 70 125
34 14 -125 -356 -202 -74 14 82
10 -7 -126 -358 -232 -125 -44 38
-28 -26 -113 -351 -257 -177 -104 -9
-68 -43 -95 -338 -278 -223 -155 -55
-87 -54 -84 -323 -277 -235 -171 -78
-88 -57 -84 -309 -261 -222 -167 -82
-83 -57 -88 -291 -241 -203 -155 -83
-77 -58 -81 -263 -217 -186 -144 -80
-66 -55 -75 -229 -191 -168 -132 -73
-54 -49 -69 -197 -164 -147 -119 -67
-45 -45 -63 -173 -142 -129 -102 -57
-36 -35 -54 -150 -122 -113 -89 -48
-33 -28 -43 -129 -104 -98 -79 -42
-31 -24 -31 -105 -81 -81 -67 -37
-28 -21 -18 -81 -63 -66 -55 -31
-26 -20 -11 -65 -50 -59 -53 -31
-19 -17 -2 -50 -39 -49 -47 -29
-13 -13 4 -39 -29 -41 -40 -27
-15 -16 8 -31 -25 -37 -35 -24
-13 -14 11 -25 -21 -34 -35 -24
-12 -15 11 -20 -17 -30 -33 -24
-12 -15 12 -15 -14 -29 -30 -24
-7 -10 15 -8 -9 -26 -29 -23
-8 -11 15 -7 -7 -27 -31 -26
-12 -13 15 -5 -5 -25 -30 -25
-13 -13 17 -3 -3 -23 -29 -26
-13 -13 18 -3 0 -21 -27 -26
-11 -12 17 -3 -1 -19 -24 -26
-8 -11 17 -3 -3 -20 -26 -25
-4 -6 17 -4 -2 -18 -24 -25
-1 -4 18 -1 0 -17 -22 -23
-3 -6 18 0 1 -17 -21 -23
-4 -9 17 2 1 -18 -25 -24
-8 -11 18 2 2 -19 -25 -27
-11 -15 18 3 3 -18 -25 -27
-10 -12 20 4 5 -17 -24 -26
-9 -13 19 4 7 -15 -24 -27
-8 -12 18 2 5 -14 -22 -28
-7 -9 19 2 5 -14 -22 -26
-6 -8 19 0 3 -16 -23 -27
-5 -8 18 0 3 -16 -24 -27
-4 -8 17 1 2 -18 -25 -28
-7 -9 20 5 4 -17 -24 -27
-8 -9 20 6 6 -15 -24 -28
-10 -12 20 8 9 -12 -22 -27
-11 -12 20 8 10 -11 -22 -29
-6 -10 19 8 10 -10 -20 -28
-5 -9 17 6 9 -11 -18 -28
-4 -8 18 6 8 -9 -18 -25
-3 -6 14 5 6 -11 -18 -27
-4 -8 13 3 4 -13 -19 -29
-2 -5 14 6 5 -11 -18 -27
-5 -6 17 9 8 -9 -18 -27
-2 -3 18 10 10 -8 -19 -29
2 0 18 13 12 -4 -16 -29
-4 -4 18 12 13 -5 -17 -30
-5 -4 17 10 12 -4 -17 -31
-4 0 15 10 14 -2 -15 -28
0 0 14 10 14 -1 -13 -27
3 0 15 10 14 0 -13 -27
-1 -3 16 11 14 -1 -12 -25
-3 -4 18 13 14 0 -13 -24
0 -2 18 15 15 0 -12 -24
2 -1 19 15 16 2 -12 -25
2 -1 18 18 19 5 -9 -25
2 1 19 19 22 6 -9 -24
4 3 17 19 22 9 -7 -23
6 5 15 19 23 11 -5 -23
1 1 15 19 21 10 -5 -22
2 2 14 19 21 10 -5 -22
5 4 13 22 22 13 -3 -21
5 3 14 25 26 14 -2 -21
5 4 15 29 28 16 -1 -21
4 4 17 32 31 19 1 -20
3 3 16 34 34 19 2 -20
5 5 16 37 38 22 3 -18
7 6 15 37 39 24 6 -20
8 8 15 39 41 27 8 -19
9 10 16 41 42 30 11 -15
10 11 13 41 42 30 12 -15
12 11 13 45 44 33 16 -13
11 10 12 45 44 31 17 -12
15 13 14 50 48 35 18 -10
16 14 15 54 54 40 21 -9
16 12 13 57 58 42 23 -9
17 14 12 59 62 44 25 -9
21 18 13 60 64 48 27 -6
19 18 12 62 67 52 31 -3
21 21 11 65 71 57 36 2
22 23 8 65 71 57 38 3
22 23 5 68 72 60 41 5
26 26 7 71 76 63 43 8
28 28 5 74 78 65 44 8
26 28 4 76 82 69 46 10
33 34 6 80 86 72 49 12
35 37 7 81 89 74 48 14
35 34 5 82 92 78 51 15
34 35 3 81 93 80 56 17
35 37 5 85 96 85 61 23
36 41 4 85 97 88 63 25
37 42 0 85 99 89 65 26
42 46 -1 85 98 90 68 27
47 50 -1 88 100 94 70 30
46 51 -2 88 103 97 70 29
42 48 -3 90 105 99 71 30
36 45 -3 88 106 97 73 28
39 45 -3 89 106 98 74 30
41 47 -4 87 106 100 76 31
42 45 -4 88 105 101 77 34
44 47 -4 87 104 101 78 35
45 50 -4 86 102 99 78 36
41 48 -5 84 100 96 75 35
40 48 -5 87 100 96 76 34
40 49 -6 84 98 94 73 31
40 49 -5 82 97 93 72 30
40 50 -3 81 97 91 70 30
40 48 -1 78 94 90 68 28
38 47 -1 76 92 88 67 27
35 45 -1 74 89 86 66 27
34 43 -2 69 84 82 63 25
35 42 -2 67 81 80 61 23
33 40 0 66 79 76 57 20
27 36 2 64 75 70 50 17
24 36 3 61 71 65 46 12
22 35 4 60 71 63 44 10
20 35 8 58 67 62 42 10
17 32 9 53 63 58 38 6
14 30 9 50 59 55 36 3
13 28 11 47 55 51 33 2
11 27 11 42 50 46 28 -1
7 22 10 38 44 42 22 -6
5 19 11 36 41 38 19 -6
3 15 12 35 39 34 15 -10
1 14 12 33 36 31 11 -13
0 12 15 33 34 27 9 -16
-1 11 15 29 31 24 4 -20
0 11 16 25 28 22 3 -21
-2 8 15 21 24 20 1 -22
-3 7 15 18 20 16 -3 -23
0 9 18 16 17 13 -4 -25
-2 7 17 14 14 10 -8 -27
-5 3 16 11 11 6 -11 -30
-9 -2 16 10 8 2 -15 -33
-11 -3 15 8 7 0 -18 -37
-10 -2 17 9 9 1 -18 -36
-10 -3 18 7 7 0 -20 -37
-9 -4 17 4 5 -1 -20 -37
-9 -4 18 3 4 -1 -19 -36
-10 -5 18 2 1 -4 -20 -37
-10 -5 16 1 -1 -5 -21 -38
-12 -7 15 1 -1 -5 -21 -39
-12 -7 14 0 -3 -7 -23 -40
-13 -7 15 1 -3 -8 -23 -39
-16 -9 14 -1 -4 -9 -26 -41
-17 -10 16 -1 -3 -11 -27 -41
-13 -7 19 1 -2 -11 -26 -41
-14 -9 17 -2 -3 -11 -28 -43
-14 -9 17 -3 -5 -11 -28 -43
-15 -9 17 -2 -6 -12 -29 -42
-13 -10 16 -4 -7 -13 -31 -45
-10 -9 16 -3 -7 -13 -31 -45
-15 -12 15 -3 -8 -15 -32 -43
-16 -13 15 -3 -10 -19 -35 -46
-14 -11 16 -2 -8 -17 -36 -47
-17 -15 13 -4 -9 -19 -36 -48
-17 -14 15 -3 -9 -17 -35 -47
-16 -13 17 -2 -5 -15 -33 -48
-16 -14 17 -2 -6 -16 -34 -48
-16 -14 18 -3 -9 -18 -36 -48
-19 -17 16 -4 -11 -18 -36 -48
-16 -14 16 -5 -10 -18 -36 -49
-13 -10 18 -1 -9 -19 -34 -47
-12 -8 19 0 -8 -17 -34 -47
-11 -6 18 0 -7 -18 -34 -48
-16 -12 17 -1 -7 -20 -36 -51
-20 -16 16 -3 -9 -22 -38 -53
-18 -14 18 -2 -7 -20 -39 -54
-14 -10 19 -1 -6 -17 -37 -51
-14 -9 18 0 -6 -18 -35 -50
-14 -9 17 -1 -7 -19 -37 -49
-16 -12 16 -2 -8 -19 -37 -49
-15 -11 17 0 -8 -19 -36 -47
-16 -12 15 -1 -8 -20 -38 -49
-15 -11 17 1 -6 -17 -36 -49
-14 -10 16 2 -3 -16 -35 -47
-16 -10 17 1 -3 -17 -35 -48
-16 -11 16 0 -3 -16 -37 -49
-13 -9 15 0 -2 -16 -35 -48
-14 -11 15 1 -3 -15 -33 -47
-13 -10 14 1 -4 -15 -33 -46
-15 -10 15 1 -4 -14 -32 -46
-11 -6 15 1 -5 -15 -33 -45
-11 -5 15 4 -4 -15 -35 -47
-13 -6 14 3 -3 -15 -36 -49
-12 -7 13 3 -2 -15 -35 -48
-12 -6 13 3 -2 -15 -35 -49
-13 -7 14 3 0 -13 -34 -48
-11 -6 13 1 0 -13 -33 -46
-12 -8 14 2 -1 -12 -31 -46
-11 -6 13 2 -3 -13 -32 -46
-12 -6 13 2 -2 -12 -31 -44
-13 -7 14 1 -4 -13 -31 -43
-12 -6 14 3 -3 -12 -32 -43
-10 -5 13 4 -1 -13 -30 -43
-9 -3 12 5 1 -12 -29 -43
-10 -2 13 5 2 -11 -30 -43
-13 -6 14 6 3 -9 -29 -42
-13 -8 14 3 2 -10 -28 -42
-12 -8 14 2 0 -10 -27 -42
-13 -9 12 0 -3 -12 -30 -43
-12 -7 13 2 -2 -11 -29 -43
-10 -4 14 4 -1 -9 -27 -40
-12 -5 13 5 -1 -10 -28 -41
-11 -6 15 6 0 -10 -27 -40
-14 -10 15 6 1 -11 -27 -41
-15 -11 15 4 -1 -12 -29 -41
-15 -12 14 3 -1 -11 -29 -42
-11 -7 14 3 -2 -12 -29 -42
-6 -3 14 5 -1 -10 -26 -39
-9 -6 15 3 -3 -11 -28 -41
-11 -7 12 4 -3 -11 -29 -41
-9 -7 11 2 -4 -13 -29 -41
-10 -8 10 2 -5 -16 -31 -43
-13 -8 11 1 -5 -15 -30 -43
-14 -8 11 2 -4 -15 -31 -43
-13 -6 14 2 -3 -15 -30 -42
-8 -3 14 2 -3 -14 -31 -42
-10 -5 14 1 -6 -15 -30 -42
-13 -8 14 2 -5 -14 -29 -42
-11 -6 13 2 -6 -15 -30 -42
-11 -7 13 3 -6 -15 -29 -42
-12 -8 13 3 -7 -16 -29 -42
-12 -10 13 5 -6 -16 -28 -40
-15 -12 14 4 -7 -16 -28 -41
-16 -13 15 3 -6 -16 -29 -38
-14 -10 15 3 -7 -16 -30 -39
-13 -9 14 4 -6 -14 -29 -38
-12 -9 12 3 -7 -16 -30 -38
-11 -9 10 1 -9 -18 -31 -39
-11 -7 12 1 -10 -18 -31 -38
-8 -5 11 1 -10 -17 -30 -39
-10 -8 11 1 -10 -19 -30 -39
-11 -10 12 2 -9 -18 -29 -39
-11 -11 13 2 -10 -18 -30 -41
-10 -11 12 2 -10 -19 -31 -40
-11 -12 12 2 -11 -20 -31 -41
-12 -12 11 1 -12 -20 -31 -42
-12 -11 12 1 -11 -19 -30 -42
-11 -9 13 3 -9 -18 -28 -42
-13 -11 10 1 -11 -19 -30 -42
-12 -9 9 1 -11 -18 -29 -42
-10 -8 11 3 -9 -17 -27 -40
-9 -7 11 4 -10 -18 -29 -41
-8 -8 12 3 -11 -19 -29 -43
-11 -12 13 3 -10 -21 -30 -43
-10 -13 13 2 -12 -22 -30 -43
-11 -11 11 1 -12 -22 -32 -43
-14 -13 10 0 -13 -22 -30 -44
-14 -13 10 1 -12 -21 -29 -42
-16 -14 12 2 -12 -20 -28 -42
-15 -13 10 1 -13 -20 -30 -43
-14 -13 11 2 -12 -20 -29 -42
-13 -13 11 4 -12 -19 -30 -42
-11 -10 11 5 -10 -20 -29 -42
-9 -8 12 6 -10 -19 -29 -43
-14 -13 13 4 -11 -21 -31 -44
-13 -11 13 3 -12 -21 -31 -44
-9 -7 14 6 -9 -18 -27 -41
-9 -6 14 6 -9 -18 -26 -40
-8 -6 14 6 -10 -17 -26 -38
-10 -5 13 5 -10 -16 -26 -38
-9 -4 14 7 -7 -15 -22 -35
-11 -2 14 8 -7 -15 -23 -36
-12 -2 15 8 -9 -15 -22 -35
-9 0 14 6 -9 -17 -22 -37
-11 -2 15 7 -8 -16 -22 -35
-12 -2 16 6 -8 -16 -23 -36
-11 0 19 9 -8 -13 -20 -34
-11 0 19 7 -8 -15 -20 -34
-7 1 19 8 -8 -14 -20 -35
-8 2 17 8 -9 -15 -20 -35
-9 0 15 8 -10 -16 -21 -35
-9 -1 15 10 -8 -14 -22 -35
-7 4 16 12 -6 -12 -19 -32
-5 8 18 13 -3 -12 -17 -31
-5 8 17 13 -3 -10 -16 -28
-7 8 14 13 -3 -10 -15 -28
-5 9 10 10 -5 -11 -14 -28
-2 11 9 7 -5 -10 -12 -26
0 14 8 6 -7 -11 -12 -26
-1 11 5 6 -9 -12 -12 -25
-4 6 3 3 -12 -16 -17 -28
-8 2 3 2 -14 -18 -19 -29
-8 0 4 4 -13 -17 -19 -30
-6 0 4 6 -11 -16 -19 -29
-3 1 7 8 -9 -14 -16 -28
-1 2 6 7 -8 -13 -18 -28
-3 0 3 7 -9 -14 -16 -28
-1 1 3 7 -11 -14 -16 -26
-1 0 3 6 -13 -16 -16 -26
-1 -2 5 5 -14 -16 -15 -25
-2 -5 3 4 -15 -17 -17 -25
-4 -6 2 3 -16 -18 -18 -25
-6 -5 4 3 -13 -18 -16 -25
-6 -7 3 1 -15 -19 -18 -26
-7 -9 2 0 -16 -21 -20 -28
-8 -13 0 -2 -18 -22 -20 -29
-10 -16 1 -3 -20 -23 -22 -29
-7 -13 5 -1 -19 -21 -20 -28
-10 -14 5 -1 -20 -22 -20 -28
-14 -16 5 -2 -20 -23 -22 -29
-14 -16 4 -1 -20 -22 -21 -27
-14 -16 3 0 -20 -22 -23 -28
-16 -18 2 -2 -21 -24 -24 -30
-15 -18 3 -4 -23 -27 -25 -31
-13 -18 3 -4 -24 -28 -25 -32
-12 -16 4 -6 -25 -28 -25 -33
-14 -17 5 -8 -26 -28 -24 -31
-15 -17 3 -9 -27 -28 -24 -31
-13 -17 2 -8 -26 -27 -23 -31
-13 -16 3 -8 -26 -27 -22 -29
-13 -17 2 -7 -25 -26 -22 -29
-13 -17 1 -7 -25 -26 -23 -30
-14 -18 0 -6 -24 -26 -24 -30
-14 -18 0 -6 -25 -26 -23 -31
-16 -19 0 -6 -24 -25 -22 -30
-13 -17 -1 -7 -25 -26 -23 -30
-13 -19 -2 -10 -25 -26 -22 -30
-15 -20 -2 -10 -26 -25 -21 -29
-13 -18 -1 -9 -25 -24 -20 -27
-12 -18 -1 -10 -25 -25 -21 -26
-14 -21 -2 -10 -25 -25 -20 -26
-13 -19 -2 -9 -25 -25 -21 -26
-13 -18 -3 -8 -24 -24 -21 -26
-13 -18 -2 -9 -25 -25 -21 -26
-13 -18 -2 -9 -23 -23 -20 -25
-15 -19 -1 -9 -24 -23 -19 -26
-15 -18 2 -7 -22 -21 -18 -26
-14 -17 3 -5 -22 -22 -19 -29
-18 -21 7 5 -14 -18 -19 -31
-18 -21 15 21 -1 -11 -17 -34
-17 -24 20 35 12 2 -9 -32
-14 -29 19 40 18 11 -2 -33
-6 -30 18 46 27 25 14 -25
2 -29 18 58 41 42 34 -15
11 -25 17 79 67 72 62 2
25 -17 14 94 92 103 97 23
35 -5 13 106 118 138 135 49
47 15 17 110 140 173 177 79
57 37 17 86 148 203 221 110
64 52 6 44 139 227 264 144
73 68 -11 -5 120 244 304 178
86 82 -37 -66 79 239 333 209
109 103 -72 -134 37 232 358 242
121 121 -114 -204 -1 228 377 268
121 125 -149 -263 -36 209 366 273
116 112 -167 -299 -69 170 316 251
109 76 -173 -320 -107 107 235 205
92 47 -172 -339 -149 44 159 160
59 28 -158 -351 -185 -9 97 117
29 6 -153 -355 -217 -65 31 72
6 -15 -152 -354 -246 -123 -37 26
-28 -30 -136 -344 -275 -189 -106 -23
-62 -45 -114 -332 -299 -240 -156 -69
-75 -51 -107 -317 -293 -242 -167 -88
-78 -57 -109 -303 -275 -226 -159 -92
-78 -62 -109 -284 -252 -204 -146 -93
-70 -61 -101 -252 -225 -182 -132 -88
-61 -59 -92 -216 -196 -160 -116 -80
-53 -57 -84 -183 -169 -138 -101 -73
-45 -50 -74 -159 -145 -120 -85 -62
-38 -41 -66 -139 -127 -103 -71 -53
-33 -33 -56 -116 -105 -89 -59 -45
-28 -26 -43 -89 -81 -70 -45 -41
-25 -21 -31 -66 -61 -54 -35 -36
-22 -20 -24 -51 -51 -45 -30 -36
-21 -21 -17 -40 -42 -40 -27 -35
-17 -19 -13 -30 -34 -32 -21 -32
-13 -15 -9 -23 -31 -29 -18 -29
-9 -13 -6 -16 -27 -26 -16 -27
-10 -14 -5 -11 -24 -24 -14 -27
-12 -16 -4 -7 -22 -22 -13 -28
-12 -15 -4 -3 -17 -23 -13 -30
-11 -12 0 4 -12 -19 -11 -30
-13 -14 1 5 -11 -18 -11 -30
-14 -14 2 5 -10 -18 -11 -31
-10 -13 2 5 -8 -15 -10 -30
-9 -12 2 5 -8 -13 -8 -28
-8 -11 2 6 -9 -13 -6 -25
-8 -12 2 5 -9 -14 -6 -25
-9 -14 2 6 -10 -13 -8 -24
-9 -15 2 8 -9 -14 -8 -22
-10 -15 0 9 -8 -16 -9 -21
-13 -16 2 10 -5 -13 -7 -20
-15 -16 5 11 -3 -11 -6 -19
-14 -15 4 10 -1 -12 -5 -19
-11 -14 3 10 0 -9 -5 -19
-5 -7 4 11 1 -5 -1 -15
-2 -2 4 13 0 -6 0 -13
-2 -3 2 11 -1 -6 0 -12
-1 -5 3 13 -1 -6 0 -10
-3 -6 5 14 -1 -8 -1 -9
-4 -10 3 13 -1 -11 -4 -11
-9 -13 4 14 0 -10 -4 -14
-10 -11 5 16 3 -6 -2 -11
-7 -10 3 14 3 -6 -2 -12
-4 -9 3 12 3 -4 -1 -9
-5 -7 3 11 3 -2 1 -7
-7 -10 3 10 1 -3 2 -2
-5 -8 4 11 2 -2 3 1
-5 -7 3 12 2 -1 3 2
-4 -6 4 15 4 0 4 5
-3 -6 3 17 5 1 4 6
0 -4 4 17 8 2 5 5
-1 -5 3 16 8 2 3 4
-2 -6 4 16 10 4 5 4
-4 -8 4 14 10 6 6 4
-2 -5 4 14 10 9 8 7
-1 -5 2 14 8 9 9 9
-2 -5 0 13 8 9 10 10
-2 -4 0 14 8 9 11 11
-2 -4 1 18 9 8 12 12
-1 -4 2 21 12 11 12 15
2 -1 4 22 15 13 14 14
1 -3 5 23 18 15 14 15
-1 -4 3 23 19 16 15 15
-1 -4 1 21 19 17 15 15
-1 -2 0 21 19 20 17 16
2 4 1 23 19 21 20 18
2 3 3 24 20 22 22 20
3 3 0 26 19 22 20 20
6 5 1 30 21 22 22 23
6 4 0 33 24 24 21 22
7 6 2 35 28 26 23 21
9 8 3 37 30 27 25 22
8 8 3 38 34 30 27 25
9 8 2 38 37 33 29 27
7 8 0 38 36 36 30 28
4 6 -2 40 37 37 32 30
5 5 -4 43 37 37 34 31
7 7 -4 46 39 39 35 34
11 11 -2 52 44 43 39 38
9 10 -1 56 48 45 39 39
13 16 2 59 53 49 43 40
18 21 4 65 57 53 47 43
17 20 0 65 59 56 48 44
17 21 -1 66 61 59 51 46
20 24 -2 67 63 61 56 49
21 25 -5 68 63 63 58 52
23 27 -5 71 65 65 62 54
25 28 -6 73 67 68 63 56
25 29 -6 79 71 72 69 60
29 31 -7 81 75 75 70 62
28 31 -8 84 80 78 74 62
30 31 -7 86 84 82 77 65
34 36 -8 88 87 87 82 70
34 38 -9 86 88 90 84 70
37 40 -9 90 91 93 90 74
39 41 -14 89 90 96 92 77
40 43 -16 89 91 96 94 80
41 44 -16 91 94 99 96 83
38 44 -15 94 94 100 99 85
41 46 -14 95 97 100 99 86
40 47 -13 96 99 103 102 86
39 45 -14 96 101 105 104 87
42 48 -14 98 102 108 104 91
43 50 -16 93 101 107 105 90
44 51 -15 90 101 107 106 91
45 52 -18 89 97 106 105 91
44 50 -19 88 94 104 105 91
45 53 -19 87 94 105 105 92
47 53 -19 88 93 104 105 94
43 50 -20 86 91 101 101 92
40 48 -17 84 92 100 101 90
37 46 -17 84 91 99 100 90
38 48 -17 81 89 98 100 89
41 52 -15 78 88 98 99 91
38 50 -14 75 84 96 99 90
37 49 -13 73 80 93 97 90
34 45 -12 70 77 90 94 88
29 41 -14 66 73 84 88 84
27 39 -15 65 67 79 85 79
25 37 -14 62 63 74 80 77
22 32 -14 57 60 69 74 72
20 28 -13 53 56 66 70 68
20 27 -9 49 53 63 67 65
24 29 -7 47 49 59 64 64
20 27 -9 43 46 56 63 63
17 26 -9 38 40 51 59 62
15 25 -6 35 36 49 55 61
13 24 -7 31 30 43 50 56
11 22 -6 30 27 39 47 54
11 20 -5 27 25 35 42 50
6 14 -5 26 23 30 38 46
5 12 -4 24 20 28 35 43
2 9 -3 21 19 24 33 42
1 7 -3 16 14 22 29 38
0 6 -3 13 12 22 30 39
-2 4 -3 11 10 18 27 40
-1 1 -3 8 5 14 24 38
0 -1 -4 5 2 11 21 36
-2 -4 -3 4 1 8 20 34
-2 -4 -3 4 1 7 15 33
-2 -5 -3 2 0 4 14 31
-3 -5 -2 1 0 4 16 31
-3 -6 -2 -2 -2 2 13 30
-7 -7 -2 -4 -4 1 12 29
-9 -8 -2 -6 -5 1 12 28
-9 -7 -4 -7 -9 -2 10 28
-4 -3 -2 -6 -10 -1 10 28
-1 -3 -2 -8 -12 -3 8 26
-5 -4 -3 -7 -13 -5 6 25
-9 -7 -3 -8 -13 -8 2 23
-10 -8 -3 -8 -13 -7 2 20
-10 -9 -4 -8 -12 -8 3 19
-9 -9 -4 -9 -12 -7 2 20
-8 -9 -3 -11 -13 -8 1 21
-8 -10 -5 -12 -16 -8 1 19
-8 -9 -4 -14 -17 -9 2 21
-7 -9 -5 -15 -18 -10 1 19
-9 -11 -4 -17 -18 -12 -1 17
-10 -11 -3 -15 -19 -14 -1 18
-12 -12 -2 -15 -17 -14 -3 18
-12 -13 -1 -14 -16 -13 -3 16
-10 -12 -2 -13 -15 -13 -3 17
-10 -13 -1 -15 -18 -14 -5 15
-11 -14 1 -15 -17 -15 -4 16
-14 -15 0 -16 -19 -14 -4 17
-10 -12 -1 -16 -19 -14 -3 18
-6 -8 1 -15 -18 -14 -4 18
-9 -12 0 -16 -20 -16 -5 15
-10 -12 -1 -14 -19 -15 -5 15
-11 -12 -2 -14 -19 -18 -8 15
-12 -14 0 -14 -19 -17 -9 13
-10 -13 -1 -13 -17 -17 -8 14
-9 -10 0 -12 -16 -15 -8 14
-9 -10 1 -13 -15 -15 -8 14
-7 -9 0 -14 -15 -14 -8 15
-10 -11 0 -15 -17 -17 -8 14
-11 -13 1 -13 -17 -16 -9 14
-9 -12 0 -12 -17 -17 -8 14
-9 -12 0 -11 -18 -17 -9 13
-7 -9 1 -11 -16 -17 -10 15
-5 -9 1 -10 -12 -15 -8 17
-7 -9 1 -11 -12 -15 -9 17
-7 -7 1 -11 -10 -13 -7 18
-6 -6 2 -10 -10 -11 -6 20
-7 -7 1 -12 -12 -11 -5 20
-12 -11 0 -13 -14 -13 -5 19
-14 -11 1 -12 -13 -11 -6 19
-12 -8 0 -11 -12 -10 -5 19
-9 -7 -1 -8 -12 -11 -6 19
-9 -7 1 -8 -11 -13 -7 19
-11 -10 2 -7 -10 -12 -8 16
-11 -10 2 -7 -9 -12 -7 18
-9 -6 2 -8 -9 -10 -6 18
-9 -8 1 -9 -9 -10 -7 20
-9 -8 -1 -10 -10 -10 -5 25
-7 -6 -2 -11 -10 -9 -4 31
-6 -6 -1 -11 -11 -11 -4 30
-8 -6 0 -10 -11 -11 -6 29
-7 -5 1 -9 -10 -11 -4 29
-6 -5 1 -10 -11 -13 -5 28
-4 -5 2 -7 -7 -10 -6 28
-7 -7 0 -9 -8 -11 -6 26
-11 -10 1 -8 -7 -11 -7 27
-10 -9 0 -10 -8 -12 -8 27
-4 -3 1 -9 -8 -9 -3 29
-5 -3 1 -9 -8 -9 -3 32
-8 -7 -1 -10 -10 -10 -5 30
-7 -8 -1 -10 -10 -11 -6 30
-1 -2 1 -7 -8 -8 -4 31
-1 -2 0 -8 -9 -12 -7 30
-4 -5 1 -8 -8 -11 -8 28
-3 -2 1 -8 -7 -11 -6 28
-4 -3 1 -9 -8 -11 -7 28
-5 -4 1 -9 -8 -11 -7 28
-4 -6 2 -10 -9 -10 -6 28
-6 -6 0 -12 -11 -12 -8 27
-7 -7 1 -10 -11 -12 -9 29
-7 -6 2 -9 -11 -12 -8 29
-3 -3 2 -9 -11 -11 -7 28
0 -2 2 -7 -9 -12 -8 29
-6 -7 2 -7 -8 -12 -10 28
-8 -10 3 -9 -8 -15 -11 27
-8 -11 2 -11 -9 -16 -12 26
-8 -9 3 -10 -8 -14 -11 28
-7 -6 3 -11 -9 -13 -9 29
-9 -8 2 -12 -10 -14 -8 28
-8 -9 2 -13 -11 -14 -10 28
-7 -9 2 -11 -13 -16 -11 26
-7 -10 3 -11 -13 -16 -12 27
-5 -9 3 -10 -12 -18 -14 26
-5 -8 3 -10 -11 -17 -15 26
-6 -8 3 -9 -10 -16 -13 26
-7 -9 4 -10 -9 -15 -13 25
-7 -8 4 -10 -10 -16 -15 24
-8 -10 2 -11 -13 -16 -15 23
-6 -9 2 -11 -13 -16 -15 23
-8 -10 3 -11 -13 -18 -15 23
-7 -10 3 -10 -13 -19 -17 23
-7 -9 4 -9 -12 -19 -17 24
-10 -11 4 -7 -11 -19 -18 24
-8 -9 5 -7 -9 -17 -17 24
-5 -7 4 -7 -9 -18 -18 22
-6 -9 5 -9 -10 -18 -19 21
-6 -7 6 -9 -10 -19 -20 20
-8 -9 7 -10 -11 -17 -19 20
-8 -10 6 -10 -11 -18 -18 20
-8 -10 5 -10 -12 -17 -18 21
-6 -9 5 -9 -12 -17 -18 21
-3 -6 6 -8 -11 -17 -18 21
-6 -10 5 -8 -11 -19 -21 19
-6 -11 4 -8 -13 -21 -21 18
-6 -8 5 -6 -10 -19 -22 18
-5 -7 6 -6 -9 -18 -20 20
-3 -6 7 -7 -9 -19 -20 20
-8 -10 6 -9 -11 -18 -21 22
-11 -13 4 -10 -12 -20 -22 21
-7 -10 3 -12 -13 -21 -23 20
-8 -9 5 -10 -12 -20 -22 22
-7 -9 6 -9 -12 -20 -22 22
-8 -9 6 -8 -11 -21 -24 20
-10 -11 7 -9 -11 -21 -25 18
-9 -10 8 -7 -10 -20 -23 19
-8 -12 7 -8 -9 -20 -24 18
-10 -12 6 -8 -10 -22 -26 17
-9 -10 6 -9 -12 -21 -24 18
-7 -10 4 -10 -13 -22 -26 18
-7 -11 3 -11 -14 -23 -26 16
-5 -9 5 -9 -14 -21 -26 17
-6 -10 6 -8 -14 -21 -27 17
-7 -10 4 -8 -13 -23 -27 15
-8 -10 5 -7 -11 -22 -28 16
-7 -9 6 -5 -10 -21 -26 16
-8 -10 7 -7 -9 -20 -28 15
-8 -10 6 -6 -11 -21 -27 15
-6 -8 7 -6 -11 -18 -26 17
-5 -7 6 -5 -11 -19 -25 17
-7 -9 6 -6 -11 -21 -25 17
-8 -10 7 -4 -11 -20 -25 17
-8 -9 7 -4 -12 -21 -27 16
-8 -9 6 -4 -12 -22 -28 16
-7 -9 5 -5 -12 -22 -29 13
-8 -9 8 -5 -12 -22 -31 12
-7 -8 8 -6 -12 -23 -31 12
-8 -9 9 -5 -10 -22 -30 12
-8 -10 9 -4 -11 -20 -29 12
-5 -6 12 -3 -11 -20 -27 13
-4 -4 13 -2 -9 -18 -26 16
-2 0 13 0 -8 -17 -23 17
-4 0 13 0 -7 -17 -24 16
-6 -2 14 2 -4 -17 -23 15
-9 -2 13 1 -4 -18 -24 14
-7 0 13 2 -4 -17 -25 14
-10 -1 15 1 -4 -17 -26 13
-12 -2 16 1 -4 -16 -25 13
-14 -1 16 1 -4 -15 -23 14
-9 2 15 2 -4 -15 -24 13
-4 5 17 2 -3 -14 -22 13
-5 3 17 4 -4 -16 -22 13
-5 4 19 6 -2 -16 -23 14
-4 4 20 8 -1 -15 -24 13
-4 6 20 8 0 -13 -23 13
-3 10 19 9 0 -12 -22 14
-4 10 20 8 1 -11 -22 15
-4 10 18 5 2 -9 -21 14
-2 11 17 4 0 -10 -20 16
-3 11 13 2 -1 -13 -22 16
-2 11 11 0 -2 -13 -23 15
1 10 9 -2 -5 -16 -24 13
-1 9 5 -5 -8 -19 -28 10
1 12 5 -4 -7 -19 -27 9
1 14 8 -2 -4 -17 -28 8
2 14 9 -2 -4 -17 -27 7
2 14 8 -2 -4 -17 -28 7
0 12 6 -3 -5 -18 -28 6
1 11 6 -3 -4 -15 -26 7
1 10 5 -1 -5 -15 -26 7
0 8 5 -1 -5 -14 -25 7
2 7 5 0 -4 -15 -26 6
2 6 4 1 -3 -15 -26 6
2 6 4 3 -2 -15 -26 5
4 6 7 4 0 -13 -25 6
5 2 7 3 -2 -16 -27 3
6 0 8 2 -3 -17 -30 2
0 -6 6 -2 -6 -20 -31 -2
-3 -8 5 -4 -8 -21 -33 -2
-2 -8 6 -3 -9 -22 -34 -3
0 -6 8 -2 -9 -22 -34 -3
-4 -8 7 -2 -10 -23 -34 -4
-7 -10 7 -2 -11 -24 -36 -5
-11 -13 8 -2 -12 -26 -39 -9
-11 -13 10 -2 -11 -25 -41 -10
-11 -12 10 -2 -10 -26 -41 -11
-11 -13 11 -3 -9 -28 -41 -12
-10 -12 9 -4 -10 -27 -41 -13
-11 -13 8 -5 -12 -26 -41 -12
-9 -13 7 -3 -12 -26 -41 -12
-9 -11 5 -3 -12 -25 -42 -12
-11 -13 6 -4 -12 -26 -42 -12
-13 -14 8 -3 -12 -26 -42 -11
-13 -14 8 -3 -11 -27 -43 -13
-10 -13 10 -3 -10 -25 -43 -14
-7 -12 10 -2 -9 -25 -43 -15
-8 -11 8 -2 -8 -25 -43 -16
-9 -12 7 -3 -8 -25 -42 -17
-6 -10 7 -4 -9 -24 -42 -17
-7 -11 6 -2 -8 -24 -41 -16
-7 -10 7 -2 -7 -23 -40 -16
-7 -11 8 -1 -8 -23 -39 -15
-7 -12 6 -2 -10 -24 -44 -17
-5 -11 7 -1 -8 -24 -43 -17
-8 -12 7 -1 -7 -23 -43 -18
-10 -12 7 -1 -7 -23 -43 -17
-11 -11 6 -2 -7 -22 -43 -18
-12 -12 6 -3 -7 -24 -44 -19
-12 -12 8 -1 -5 -23 -43 -16
-13 -13 11 4 -2 -20 -42 -18
-15 -16 13 15 5 -17 -43 -23
-12 -16 20 33 17 -8 -40 -24
-8 -20 22 42 28 2 -33 -24
-1 -21 24 49 38 13 -21 -19
8 -17 26 58 49 27 -4 -9
15 -18 23 75 64 47 12 0
25 -17 19 88 82 69 37 15
36 -9 16 100 106 98 69 37
50 6 20 113 132 133 109 64
60 26 21 104 147 162 146 95
69 44 15 72 145 185 184 123
85 64 5 33 138 208 225 156
96 81 -16 -23 111 216 260 190
108 91 -50 -96 63 202 276 216
123 107 -93 -172 19 190 294 243
130 122 -135 -242 -21 182 306 266
131 125 -165 -294 -55 156 284 263
129 103 -175 -324 -90 107 221 230
119 66 -178 -344 -132 40 139 180
94 42 -170 -362 -171 -15 72 138
58 21 -156 -366 -200 -60 18 98
32 -2 -156 -366 -224 -106 -36 58
5 -21 -152 -361 -250 -157 -94 16
-37 -39 -131 -345 -270 -205 -150 -30
-66 -49 -113 -326 -275 -230 -181 -66
-75 -53 -108 -308 -262 -221 -180 -76
-76 -56 -109 -288 -242 -203 -170 -78
-70 -55 -102 -255 -214 -181 -156 -77
-62 -53 -94 -220 -186 -163 -143 -72
-53 -48 -84 -187 -163 -144 -132 -65
-43 -41 -77 -160 -139 -127 -117 -58
-40 -36 -68 -136 -118 -108 -103 -51
-37 -29 -55 -110 -97 -93 -91 -43
-30 -21 -40 -83 -72 -73 -78 -36
-23 -14 -29 -59 -51 -57 -67 -31
-20 -12 -21 -41 -37 -47 -60 -30
-18 -12 -16 -28 -29 -42 -56 -27
-12 -10 -11 -19 -20 -33 -52 -25
-9 -9 -9 -13 -16 -30 -48 -23
-10 -10 -4 -6 -13 -27 -46 -23
-8 -9 -1 -1 -10 -27 -47 -25
-5 -8 -1 5 -7 -25 -46 -23
-5 -8 3 11 -5 -24 -44 -23
-3 -6 7 15 0 -22 -45 -24
-5 -7 8 17 4 -20 -43 -25
-9 -10 8 19 6 -19 -43 -24
-8 -9 9 18 7 -18 -41 -25
-6 -8 9 17 6 -15 -40 -24
-6 -7 8 17 5 -13 -36 -22
-3 -5 8 18 4 -13 -35 -20
-4 -9 6 18 4 -15 -37 -23
-5 -9 7 19 5 -14 -37 -22
-6 -8 10 24 8 -13 -35 -22
0 -4 13 26 11 -12 -35 -22
0 -4 12 26 14 -11 -34 -24
-2 -5 12 27 15 -9 -33 -21
-1 -4 12 26 15 -9 -31 -21
0 -3 10 24 13 -7 -31 -22
0 -4 7 23 11 -8 -30 -21
0 -2 7 23 10 -9 -30 -18
-2 -2 7 25 11 -8 -29 -19
-3 -1 8 27 12 -8 -30 -19
-2 -1 11 31 15 -7 -27 -17
0 -1 11 30 16 -7 -30 -20
-1 -3 9 30 17 -7 -29 -22
-3 -3 11 32 20 -5 -28 -21
-4 -4 13 31 21 -3 -27 -20
0 -1 12 29 19 -2 -26 -20
0 0 10 28 17 -1 -26 -19
1 0 11 30 16 -2 -26 -15
2 1 9 30 15 -2 -25 -13
2 1 9 31 16 -2 -26 -11
1 1 10 33 17 -2 -25 -12
1 0 12 34 21 0 -25 -11
0 0 12 35 23 1 -23 -12
2 2 14 36 25 3 -22 -11
6 4 15 35 25 5 -21 -10
8 6 13 36 25 8 -19 -9
5 4 10 34 24 7 -17 -9
-2 -2 6 32 21 5 -19 -9
1 0 6 34 22 5 -19 -10
6 6 7 38 24 8 -16 -6
4 5 10 38 25 8 -17 -7
8 7 13 41 29 9 -17 -8
6 5 14 44 33 12 -13 -7
2 4 14 43 32 14 -14 -6
3 4 12 43 34 16 -11 -5
6 4 10 42 35 18 -10 -7
11 9 11 43 35 19 -6 -3
11 10 12 44 35 19 -5 -1
8 8 11 46 36 20 -5 -2
8 7 9 48 36 20 -4 -3
7 6 11 52 39 22 -3 -1
8 8 12 55 42 22 -2 0
9 9 13 56 47 25 0 0
8 9 13 59 48 28 1 2
10 11 12 57 50 30 3 3
13 14 12 60 53 34 6 5
16 16 12 63 54 37 11 6
17 16 9 64 53 35 9 7
17 14 9 65 54 36 11 7
16 15 8 70 56 38 13 8
17 16 8 74 59 38 13 7
19 17 10 77 62 40 14 8
22 19 10 79 66 42 16 10
21 20 9 81 68 45 18 11
20 20 9 83 72 48 22 14
23 25 6 84 75 53 27 15
28 29 5 86 76 56 31 18
29 30 4 88 75 57 32 21
28 29 3 89 76 58 35 21
27 29 3 92 80 59 36 23
32 32 6 99 84 64 40 27
35 36 8 102 87 66 41 28
38 38 5 102 90 67 44 28
40 41 4 105 94 72 46 30
36 38 2 103 96 74 49 31
35 37 1 103 98 77 52 34
40 41 -2 103 97 80 55 36
40 43 -2 104 97 81 57 39
44 46 -3 103 97 81 60 38
44 46 -4 105 97 83 60 41
43 46 -4 108 100 84 67 43
43 47 -5 108 101 85 73 43
45 47 -5 108 103 85 73 41
47 48 -5 108 103 87 75 44
51 52 -6 106 104 89 79 45
50 51 -7 102 102 90 78 44
50 53 -7 101 102 92 81 46
49 56 -7 102 101 91 82 49
51 58 -7 101 100 91 83 48
56 60 -7 102 99 90 82 48
50 56 -8 100 97 87 80 45
48 53 -6 98 96 87 79 44
47 54 -6 97 97 85 77 43
44 53 -5 95 96 85 77 42
47 54 -5 92 93 85 77 41
46 54 -7 89 92 85 76 40
44 54 -8 85 89 82 76 40
44 55 -7 84 85 82 77 39
43 52 -6 81 83 78 73 36
39 48 -5 79 80 76 71 34
39 47 -5 77 77 73 68 32
36 44 -4 76 76 70 63 28
35 43 -1 73 74 66 61 24
31 40 1 70 72 65 58 21
30 38 3 66 68 64 57 21
29 37 2 61 64 60 54 17
25 34 2 55 58 56 52 14
23 31 2 50 52 51 48 11
25 31 3 48 49 48 44 9
23 28 3 46 46 46 42 5
20 27 3 46 44 41 39 2
17 26 6 44 45 39 36 -1
11 21 8 41 40 35 32 -5
6 19 8 39 39 34 32 -7
5 17 9 36 36 31 31 -10
6 17 9 31 32 29 29 -15
5 15 7 27 28 26 27 -16
3 11 7 24 24 24 24 -18
4 11 7 23 23 22 22 -19
2 8 8 22 20 19 21 -22
2 8 9 21 18 15 18 -24
4 9 11 21 18 15 17 -25
2 6 11 19 16 12 15 -28
0 5 10 17 15 10 13 -31
1 6 10 16 14 11 12 -31
-2 4 10 13 13 11 12 -33
-3 3 10 10 11 10 11 -34
-4 -1 7 8 7 7 9 -35
-1 0 7 7 5 5 7 -37
-4 0 9 8 5 4 8 -37
-8 -2 8 9 5 2 5 -38
-8 -3 8 8 6 2 4 -41
-10 -5 7 7 5 1 3 -44
-10 -5 7 7 5 0 3 -45
-3 0 8 6 5 1 3 -44
-3 -1 8 5 5 2 4 -46
-7 -3 8 3 2 1 3 -48
-6 -4 8 2 1 -1 3 -47
-4 -3 6 1 -1 -2 2 -46
-3 -2 8 3 1 -2 3 -47
-4 -2 10 4 0 -3 1 -49
-7 -5 9 3 0 -3 0 -50
-7 -4 11 5 1 -3 0 -53
-6 -4 14 6 3 -2 1 -53
-5 -5 15 7 3 0 1 -52
-8 -7 15 5 4 2 3 -50
-13 -12 13 3 1 -1 2 -53
-11 -13 12 3 1 -1 2 -53
-10 -13 11 3 -1 -2 1 -53
-11 -15 12 4 0 -2 0 -54
-10 -15 11 4 -1 -4 -1 -55
-12 -17 12 4 -1 -4 -1 -57
-11 -16 14 7 2 -2 -2 -58
-11 -13 13 7 3 -1 0 -57
-11 -15 12 6 3 0 0 -57
-8 -12 12 5 4 1 1 -57
-5 -11 10 5 3 0 1 -59
-8 -14 9 4 2 -2 1 -58
-8 -13 12 5 1 0 1 -58
-10 -12 12 7 1 -1 -1 -60
-11 -14 12 8 2 -1 -1 -61
-9 -13 11 8 3 -3 -2 -63
-8 -14 10 8 4 -1 -3 -65
-8 -14 10 8 6 -1 -1 -66
-9 -15 12 6 7 1 0 -67
-8 -12 12 5 7 1 -1 -67
-8 -11 11 5 6 2 1 -66
-6 -12 10 4 4 1 0 -66
-5 -12 9 4 3 0 -1 -70
-9 -14 10 6 4 0 -1 -68
-10 -14 10 7 4 -2 -1 -68
-7 -12 11 8 6 -1 -2 -69
-9 -13 12 9 8 0 -2 -71
-11 -14 12 9 9 1 -1 -71
-8 -11 12 7 8 1 -1 -72
-8 -12 11 5 8 2 0 -74
-10 -13 10 5 8 2 0 -73
-8 -13 11 4 6 1 1 -73
-10 -16 10 6 5 1 -2 -76
-11 -13 11 7 6 1 0 -74
-6 -9 13 11 8 2 1 -71
-2 -7 13 12 10 2 1 -73
-6 -8 13 12 9 2 -1 -77
-14 -15 12 10 10 1 -1 -77
-15 -17 11 9 9 0 -1 -78
-13 -15 9 7 8 1 -2 -81
-12 -14 11 8 8 2 1 -79
-10 -11 10 10 7 2 2 -77
-9 -10 10 10 6 2 0 -78
-8 -11 10 9 5 0 1 -80
-10 -12 11 10 5 -2 -1 -81
-11 -15 10 9 6 -2 -2 -83
-9 -12 11 8 7 -1 -3 -84
-8 -11 11 9 7 -2 -2 -84
-10 -12 10 6 5 -3 -4 -84
-6 -11 10 6 5 -1 -4 -86
-7 -11 10 5 4 -1 -3 -86
-9 -13 8 6 3 -2 -2 -85
-8 -13 8 6 3 -2 -3 -87
-8 -14 7 6 3 -3 -3 -88
-6 -11 6 7 3 -4 -4 -88
-9 -13 8 7 2 -4 -5 -90
-11 -14 11 7 4 -3 -6 -92
-11 -14 12 7 5 -3 -5 -92
-10 -13 10 6 4 -4 -5 -94
-10 -12 10 6 4 -3 -5 -95
-12 -14 9 6 3 -3 -4 -97
-13 -15 8 5 1 -5 -4 -97
-11 -14 9 6 0 -5 -5 -98
-10 -15 10 6 1 -5 -6 -99
-14 -18 8 5 1 -7 -7 -101
-11 -15 8 5 1 -7 -8 -103
-8 -13 9 4 1 -7 -10 -106
-10 -13 9 5 2 -7 -8 -106
-10 -12 11 5 3 -4 -8 -107
-11 -14 8 3 1 -6 -9 -109
-11 -14 7 4 0 -6 -9 -110
-13 -17 6 3 -2 -8 -9 -111
-15 -21 7 0 -4 -10 -12 -116
-15 -20 8 0 -5 -9 -13 -115
-12 -17 10 2 -4 -10 -13 -115
-6 -12 12 4 -3 -8 -12 -115
-6 -11 13 6 -2 -6 -11 -117
-10 -13 13 6 -1 -7 -11 -118
-13 -15 11 4 -3 -8 -12 -117
-16 -16 9 2 -4 -9 -12 -120
-14 -15 9 2 -5 -8 -11 -118
-11 -13 8 1 -8 -9 -12 -118
-11 -16 7 1 -11 -10 -13 -119
-13 -16 5 0 -12 -11 -13 -121
-11 -15 5 2 -12 -13 -15 -121
-12 -17 5 2 -12 -13 -17 -125
-12 -17 5 3 -11 -13 -16 -126
-12 -17 6 2 -12 -13 -16 -126
-12 -16 7 3 -12 -11 -16 -125
-14 -16 7 0 -13 -11 -16 -128
-15 -18 6 -1 -16 -13 -16 -127
-13 -18 6 0 -16 -12 -16 -127
-12 -15 6 0 -16 -12 -17 -129
-14 -15 6 1 -16 -13 -16 -128
-14 -15 7 3 -15 -12 -16 -127
-13 -15 7 4 -15 -13 -17 -128
-14 -17 6 4 -13 -12 -17 -128
-12 -14 7 2 -14 -12 -17 -130
-14 -17 5 1 -15 -12 -19 -130
-13 -15 5 0 -14 -12 -17 -131
-12 -12 5 1 -15 -11 -16 -130
-13 -15 5 0 -18 -13 -17 -132
-12 -15 5 1 -16 -12 -17 -131
-14 -15 5 0 -17 -14 -18 -135
-14 -16 5 1 -17 -14 -19 -135
-12 -16 5 0 -17 -15 -21 -138
-15 -19 5 0 -16 -15 -22 -141
-15 -17 6 0 -16 -16 -23 -142
-12 -16 5 0 -16 -15 -22 -143
-9 -13 5 -1 -16 -14 -21 -143
-8 -10 6 -1 -16 -14 -21 -142
-10 -12 6 -1 -16 -14 -20 -143
-14 -15 5 -2 -17 -16 -21 -146
-15 -16 4 -2 -18 -17 -22 -147
-16 -15 4 -2 -19 -18 -24 -149
-16 -17 6 0 -16 -15 -23 -149
-15 -15 8 0 -14 -14 -23 -151
-21 -16 8 0 -14 -15 -24 -152
-20 -16 7 -1 -14 -16 -25 -155
-15 -16 5 -3 -14 -17 -26 -159
-11 -13 5 -3 -16 -15 -24 -158
-13 -15 5 -3 -16 -16 -25 -159
-14 -16 4 -4 -16 -16 -26 -160
-12 -14 6 -3 -16 -16 -24 -161
-13 -13 7 -1 -16 -17 -23 -161
-15 -16 5 -3 -16 -19 -28 -163
-13 -14 5 -2 -15 -18 -28 -166
-11 -12 3 -3 -16 -17 -28 -168
-11 -11 3 -3 -14 -17 -27 -168
-13 -12 4 -4 -14 -17 -27 -169
-13 -12 4 -5 -16 -16 -26 -170
-10 -11 3 -6 -16 -17 -25 -170
-12 -12 2 -5 -16 -18 -25 -160
-16 -14 2 -7 -18 -20 -27 -129
-14 -13 3 -5 -18 -20 -28 -120
-9 -10 6 -3 -15 -18 -26 -119
-10 -10 6 -3 -14 -18 -28 -123
-11 -9 6 -4 -14 -19 -28 -122
-13 -10 7 -3 -13 -17 -29 -121
-11 -9 7 -3 -13 -15 -28 -120
-11 -6 7 -2 -12 -14 -25 -118
-9 -3 9 -1 -11 -14 -24 -115
-10 -1 8 0 -10 -12 -25 -115
-11 -2 7 -1 -11 -13 -26 -116
-12 -3 8 1 -11 -14 -25 -117
-11 -3 10 0 -10 -14 -26 -116
-15 -5 11 0 -9 -15 -28 -117
-13 -2 14 2 -7 -13 -27 -111
-11 2 15 3 -5 -11 -26 -109
-11 2 16 2 -5 -10 -23 -111
-10 4 15 3 -6 -11 -23 -111
-14 -1 13 3 -8 -12 -26 -114
-17 -4 13 3 -9 -14 -27 -115
-13 1 14 3 -9 -11 -24 -116
-5 9 14 6 -6 -9 -21 -113
-2 11 14 5 -7 -9 -24 -114
-3 11 12 4 -7 -9 -23 -114
-2 12 10 3 -8 -8 -23 -113
-4 11 8 0 -9 -9 -23 -113
-6 9 3 -5 -13 -13 -24 -113
-6 8 1 -6 -15 -13 -26 -115
-5 8 -1 -9 -17 -16 -28 -114
-4 10 0 -7 -16 -14 -27 -114
-2 10 4 -3 -13 -11 -24 -112
-4 8 4 -1 -14 -12 -25 -114
-7 3 2 -1 -13 -14 -27 -114
-6 5 1 -1 -11 -12 -28 -115
-1 8 3 1 -9 -10 -25 -114
-1 8 2 -1 -11 -11 -26 -114
2 10 3 -2 -11 -10 -25 -113
-1 7 2 -2 -12 -10 -27 -115
3 7 2 -1 -12 -10 -27 -115
4 6 -1 -3 -13 -12 -27 -117
2 3 0 -3 -12 -13 -27 -118
0 0 1 -2 -14 -14 -29 -119
-4 -6 0 -4 -17 -16 -34 -124
-6 -7 -3 -8 -18 -19 -35 -126
-6 -9 -2 -8 -19 -19 -35 -124
-9 -12 -2 -10 -21 -22 -38 -127
-11 -13 -1 -12 -23 -21 -40 -126
-12 -13 0 -12 -23 -22 -40 -126
-11 -9 1 -10 -22 -21 -39 -124
-11 -7 3 -9 -22 -21 -39 -124
-11 -8 3 -11 -23 -21 -40 -113
-11 -8 2 -10 -23 -22 -40 -109
-13 -11 1 -11 -24 -24 -42 -110
-17 -14 -1 -13 -24 -25 -43 -113
-16 -13 -1 -12 -25 -25 -42 -113
-16 -15 -2 -13 -26 -25 -45 -114
-16 -16 0 -15 -26 -25 -44 -112
-17 -16 1 -15 -26 -25 -43 -108
-20 -17 -1 -16 -28 -25 -45 -109
-19 -16 -1 -14 -27 -25 -43 -106
-14 -15 -1 -15 -27 -24 -44 -106
-10 -11 0 -12 -25 -23 -43 -100
-11 -11 0 -11 -23 -21 -41 -93
-15 -11 1 -12 -24 -21 -43 -91
-14 -12 -2 -14 -27 -23 -44 -88
-14 -12 -2 -15 -25 -22 -43 -84
-17 -14 -2 -15 -25 -22 -43 -82
-16 -14 -1 -16 -25 -21 -43 -81
-12 -12 -2 -16 -27 -22 -44 -81
-9 -11 -1 -15 -26 -21 -42 -79
-9 -12 -2 -15 -25 -21 -43 -80
-10 -13 -3 -15 -26 -22 -43 -81
-14 -14 -3 -14 -25 -21 -44 -82
-15 -13 -1 -15 -23 -20 -44 -81
-15 -9 2 -14 -24 -20 -42 -81
-16 -10 5 -10 -21 -17 -41 -82
-18 -13 8 -1 -14 -14 -41 -84
-17 -14 14 13 -4 -6 -38 -85
-13 -16 16 25 5 1 -34 -86
-10 -22 15 29 11 8 -27 -85
-5 -24 13 32 16 15 -17 -80
5 -23 12 46 29 30 -1 -67
16 -20 11 61 46 51 20 -39
36 -9 12 78 67 75 48 -17
51 3 12 93 92 105 79 6
61 19 13 99 114 134 114 33
74 40 12 88 125 163 150 68
85 57 5 59 125 184 189 107
96 72 -12 9 104 195 222 140
107 83 -44 -64 60 184 241 167
118 91 -81 -143 11 167 251 191
133 109 -119 -219 -31 154 261 216
135 119 -150 -280 -67 136 250 221
131 106 -164 -318 -102 93 203 197
123 71 -170 -347 -147 27 121 146
100 41 -167 -371 -189 -32 51 100
65 23 -153 -381 -214 -67 5 68
35 5 -150 -384 -236 -102 -37 35
6 -16 -149 -382 -258 -142 -83 -1
-33 -33 -131 -367 -272 -179 -127 -41
-76 -46 -110 -345 -276 -204 -162 -77
-91 -53 -103 -324 -268 -205 -168 -93
-89 -55 -104 -306 -253 -192 -163 -97
-86 -56 -99 -274 -225 -171 -150 -96
-77 -53 -91 -240 -200 -154 -138 -91
-70 -50 -82 -208 -176 -138 -127 -87
-63 -48 -76 -181 -156 -123 -118 -82
-55 -42 -68 -157 -136 -105 -103 -72
-42 -27 -57 -131 -114 -86 -88 -61
-34 -18 -43 -103 -91 -69 -77 -54
-34 -18 -32 -81 -72 -55 -67 -46
-30 -16 -23 -62 -57 -45 -59 -36
-26 -15 -15 -48 -48 -37 -56 -33
-23 -14 -10 -37 -38 -30 -51 -28
-18 -12 -7 -30 -34 -25 -47 -26
-14 -9 -3 -24 -29 -21 -45 -22
-11 -7 -2 -19 -25 -20 -43 -15
-10 -6 -1 -14 -22 -16 -40 -4
-12 -6 1 -10 -20 -16 -38 -4
-15 -8 3 -7 -18 -15 -40 -5
-17 -9 6 -5 -15 -12 -38 -7
-17 -8 8 -3 -13 -12 -38 -7
-17 -8 7 -2 -11 -10 -37 -7
-11 -5 7 -1 -11 -7 -36 -7
-11 -6 5 -4 -13 -8 -38 -8
-12 -8 4 -4 -14 -9 -35 -6
-11 -8 3 -4 -14 -8 -35 -7
-10 -9 4 -4 -14 -8 -35 -7
-8 -7 8 0 -10 -6 -32 -4
-10 -8 9 4 -8 -6 -32 -6
-9 -9 10 4 -7 -4 -32 -9
-8 -7 10 6 -6 -4 -30 -8
-11 -10 10 6 -4 -2 -30 -7
-13 -11 8 4 -4 -2 -30 -7
-13 -11 7 3 -5 -2 -30 -5
-13 -11 6 2 -6 -2 -28 -1
-8 -4 7 4 -4 1 -25 1
-4 0 8 7 -3 2 -24 3
-9 -6 8 5 -5 -1 -26 1
-8 -7 8 5 -5 -2 -28 -2
-7 -7 8 6 -3 0 -27 -2
-9 -8 9 7 -2 0 -27 0
-9 -8 9 10 0 2 -27 9
-9 -6 8 9 0 4 -26 9
-8 -4 7 8 -1 4 -24 9
-9 -4 6 9 -3 3 -22 9
-7 -4 8 8 -2 5 -22 11
-6 -3 8 7 -2 4 -22 13
-6 -5 8 8 -2 4 -22 13
-5 -4 8 10 0 3 -22 14
-3 -3 8 11 2 6 -22 22
-4 -3 7 12 2 5 -21 23
-4 -3 8 13 5 8 -21 24
-4 -3 8 12 4 8 -21 22
-4 -3 8 11 3 10 -19 25
-4 0 8 12 4 12 -17 30
-6 -1 8 12 5 13 -16 31
-7 -2 8 14 6 14 -15 40
-4 0 7 15 6 14 -14 54
-2 1 8 16 9 15 -14 52
-1 2 11 18 13 19 -12 54
-2 3 12 21 15 20 -10 55
1 4 11 19 15 21 -11 55
-2 1 10 18 15 21 -11 53
-1 1 8 19 15 23 -9 55
1 5 8 21 17 25 -5 59
0 4 10 22 20 27 -3 61
-2 2 9 23 20 26 -3 63
-3 1 9 25 22 27 -2 64
-3 0 8 27 23 27 -3 63
3 5 9 29 26 29 -1 64
11 13 12 34 31 34 3 68
6 8 11 34 31 35 3 67
3 5 9 34 31 35 4 68
6 8 9 36 32 37 7 70
7 9 9 39 35 39 10 75
13 14 8 42 37 43 11 77
13 14 8 45 39 44 13 79
10 12 9 49 40 45 15 80
11 12 8 51 42 45 15 80
11 12 8 53 44 46 16 81
12 14 9 57 48 48 18 84
13 15 8 59 50 51 19 84
14 15 6 61 53 54 22 85
18 19 4 62 54 55 27 88
20 20 3 63 54 57 35 91
26 23 1 66 57 60 39 93
29 27 2 68 60 63 43 99
26 25 2 73 62 64 45 101
25 25 1 74 64 66 46 103
28 27 2 76 68 68 48 104
30 28 0 79 69 69 51 104
32 33 -2 80 71 72 53 106
33 33 -1 81 73 74 56 110
37 36 0 82 74 77 60 116
40 40 -1 83 75 80 64 121
39 40 -2 84 76 82 66 124
37 39 -4 85 77 81 67 127
39 40 -5 86 76 82 67 130
40 42 -5 86 79 83 70 131
41 43 -4 86 80 84 71 132
40 43 -5 86 80 84 71 131
40 43 -7 84 80 84 71 132
43 46 -6 85 82 86 75 134
45 48 -7 83 82 87 76 135
47 49 -10 81 79 87 75 135
46 48 -12 77 77 86 75 135
44 47 -11 78 78 86 76 135
45 48 -10 78 76 85 75 136
43 46 -10 77 75 83 73 133
43 48 -8 77 77 84 75 134
44 47 -9 75 76 82 74 135
42 47 -9 72 74 80 71 135
42 46 -9 70 73 80 72 133
39 44 -11 68 70 79 71 133
38 42 -11 65 67 76 69 132
36 42 -12 62 64 75 66 130
32 38 -13 59 60 70 64 128
35 39 -11 58 59 67 61 127
34 40 -9 58 59 66 59 125
31 36 -6 55 58 65 58 121
29 33 -6 51 55 61 55 116
24 31 -4 51 54 61 53 116
24 31 -4 47 51 59 52 114
21 30 -4 44 49 57 51 113
18 28 -5 40 44 52 49 111
16 25 -4 36 41 50 48 113
15 23 -3 35 38 47 48 111
10 19 -3 33 35 43 45 109
6 17 -3 31 33 40 41 105
4 13 -3 29 32 39 39 100
2 12 -3 26 29 35 35 98
2 10 0 23 26 33 33 96
6 11 2 19 22 31 31 93
4 9 0 16 20 28 31 92
5 10 1 14 16 26 29 90
5 9 1 11 14 24 28 89
4 7 2 11 15 23 27 90
1 7 2 10 11 21 26 87
-5 2 3 10 11 21 23 84
-5 0 4 9 13 20 22 83
-7 -1 6 8 12 20 22 81
-9 -2 6 6 10 18 20 78
-11 -5 7 4 9 18 20 77
-13 -6 6 3 7 16 19 76
-10 -4 5 1 4 14 17 74
-9 -3 3 -1 3 13 16 74
-10 -7 3 -2 2 12 14 71
-10 -7 3 -3 -1 10 14 70
-11 -8 5 -3 -1 8 12 67
-10 -8 6 -2 1 9 13 68
-12 -10 4 -4 0 8 11 64
-14 -10 4 -6 -2 6 8 62
-9 -6 5 -7 -3 7 9 62
-11 -8 5 -7 -3 7 10 63
-12 -8 3 -9 -5 5 9 62
-12 -8 4 -10 -5 5 10 62
-13 -9 5 -9 -5 6 10 61
-13 -8 5 -10 -6 4 9 61
-12 -7 6 -8 -5 4 8 59
-12 -9 6 -9 -4 4 7 56
-10 -7 6 -9 -5 3 6 53
-13 -8 7 -8 -5 4 7 54
-14 -9 5 -11 -7 3 5 52
-11 -7 5 -10 -7 3 6 53
-11 -5 3 -12 -10 1 4 51
-9 -3 3 -12 -9 2 6 52
-11 -5 4 -12 -8 2 5 52
-15 -9 3 -13 -10 -1 4 51
-16 -10 3 -11 -11 -1 2 48
-17 -10 3 -10 -9 0 3 47
-13 -7 4 -8 -7 2 5 47
-11 -5 3 -8 -6 1 4 45
-12 -6 2 -9 -6 1 3 45
-11 -5 1 -10 -6 1 3 45
-11 -7 1 -10 -8 1 4 45
-14 -8 0 -11 -8 -1 3 43
-12 -6 1 -9 -7 1 4 43
-12 -5 1 -8 -6 1 4 43
-11 -7 3 -8 -7 0 2 43
-10 -6 2 -8 -5 1 2 42
-11 -8 1 -8 -6 0 1 40
-12 -7 3 -7 -6 1 3 41
-12 -7 4 -6 -6 3 3 41
-10 -5 3 -6 -5 4 4 42
-7 -4 1 -7 -7 3 3 41
-11 -5 0 -7 -7 2 3 42
-12 -5 2 -5 -5 4 3 43
-11 -4 1 -3 -6 3 3 43
-11 -6 1 -4 -6 2 2 42
-10 -4 3 -3 -4 3 2 42
-11 -5 5 -2 -3 4 2 42
-12 -4 4 -1 -2 3 2 41
-10 -3 5 0 -2 5 2 43
-11 -4 2 -2 -3 4 2 43
-11 -3 2 -2 -4 4 2 43
-11 -3 2 -3 -5 3 1 44
-14 -7 2 -2 -5 3 0 45
-11 -3 1 1 -4 2 0 45
-7 -1 3 1 -3 2 0 44
-10 -2 2 0 -4 1 -1 42
-10 -3 2 1 -3 2 -1 41
-9 -1 4 1 -3 3 0 40
-8 -1 3 0 -3 4 0 40
-9 -1 3 0 -3 3 1 41
-8 0 2 0 -3 3 0 42
-4 2 1 0 -3 2 0 42
-8 -2 0 -2 -5 0 -3 43
-14 -8 -2 -3 -7 -2 -3 42
-12 -7 -1 -2 -6 -1 -4 41
-9 -4 0 -2 -6 -1 -4 39
-9 -4 0 -1 -6 -1 -4 40
-10 -6 0 -2 -6 -2 -5 39
-11 -5 -2 -5 -8 -3 -5 37
-8 -2 0 -3 -6 -1 -4 38
-8 -2 -1 -4 -8 -1 -4 38
-10 -4 -1 -4 -9 -2 -4 39
-11 -5 -2 -5 -10 -3 -5 38
-11 -5 -3 -5 -10 -3 -5 37
-9 -4 -2 -4 -10 -4 -5 37
-11 -3 0 -4 -8 -3 -6 35
-13 -5 0 -5 -9 -4 -7 34
-12 -5 0 -5 -9 -4 -9 37
-11 -5 -2 -8 -10 -6 -10 38
-10 -4 -1 -7 -10 -4 -10 38
-6 -4 -2 -8 -13 -7 -11 36
-8 -6 -2 -7 -13 -7 -11 36
-8 -2 0 -6 -12 -6 -10 37
-10 -2 0 -4 -12 -8 -10 36
-12 -5 0 -5 -13 -8 -11 34
-11 -4 0 -5 -13 -9 -12 32
-11 -5 0 -6 -15 -9 -13 30
-11 -5 0 -5 -15 -9 -13 29
-10 -6 -1 -7 -16 -11 -14 28
-11 -7 -2 -9 -18 -12 -16 26
-7 -4 0 -8 -18 -11 -13 28
-11 -6 -1 -8 -19 -12 -14 27
-12 -6 -2 -8 -20 -12 -14 26
-8 -2 -2 -6 -19 -13 -14 25
-8 -3 -1 -7 -19 -13 -16 24
-10 -3 0 -7 -18 -12 -16 22
-11 -5 -2 -8 -19 -13 -17 20
-11 -5 -2 -7 -19 -13 -17 18
-9 -5 -1 -6 -18 -11 -16 18
-10 -5 -2 -9 -19 -12 -17 18
-13 -10 -2 -10 -21 -14 -18 17
-12 -7 -2 -10 -21 -13 -18 17
-9 -5 -1 -9 -21 -13 -19 17
-9 -4 -1 -9 -22 -13 -19 16
-9 -5 -1 -9 -22 -14 -19 14
-10 -7 -1 -8 -21 -15 -19 13
-10 -7 -1 -9 -21 -16 -20 11
-10 -7 -2 -10 -23 -17 -22 9
-11 -8 -3 -9 -22 -16 -22 8
-11 -7 -4 -10 -22 -16 -22 8
-12 -8 -3 -11 -23 -17 -22 7
-12 -8 -2 -11 -23 -17 -23 9
-10 -6 -1 -9 -21 -16 -22 11
-10 -6 -1 -9 -22 -16 -23 10
-9 -5 0 -8 -21 -16 -23 10
-11 -7 -1 -8 -20 -16 -23 8
-12 -8 -1 -8 -21 -17 -25 7
-11 -6 -1 -8 -20 -17 -24 6
-10 -7 -1 -8 -20 -16 -24 6
-12 -7 -3 -10 -22 -17 -24 8
-13 -8 -3 -12 -23 -18 -25 7
-11 -6 -3 -11 -22 -18 -25 8
-8 -4 -1 -10 -21 -17 -26 10
-10 -7 -1 -11 -22 -19 -26 8
-10 -7 1 -9 -20 -18 -27 7
-10 -6 0 -9 -19 -18 -27 5
-12 -7 0 -10 -20 -19 -28 3
-12 -7 0 -9 -20 -20 -28 3
-13 -8 -2 -11 -20 -20 -29 0
-14 -9 -1 -12 -20 -19 -27 -1
-9 -5 0 -11 -19 -19 -27 1
-4 -1 0 -10 -20 -18 -26 2
-9 -4 -2 -12 -21 -20 -28 1
-11 -5 -3 -12 -21 -21 -29 0
-14 -10 -4 -11 -23 -23 -32 -1
-12 -9 -3 -10 -21 -22 -30 -2
-10 -6 -1 -10 -20 -23 -31 -2
-12 -8 -1 -10 -21 -23 -31 -3
-10 -7 -2 -9 -21 -22 -31 -3
-11 -8 -4 -10 -22 -23 -33 -3
-13 -10 -4 -11 -23 -24 -33 -4
-10 -8 -4 -11 -22 -23 -31 -3
-9 -8 -5 -12 -22 -24 -32 -4
-10 -7 -5 -10 -22 -24 -32 -4
-11 -5 -3 -8 -19 -21 -31 -2
-14 -8 -3 -8 -19 -22 -31 -2
-14 -8 -2 -10 -20 -24 -32 -3
-14 -9 -3 -11 -21 -25 -34 -4
-14 -11 -2 -9 -19 -24 -33 -3
-12 -8 -3 -10 -20 -24 -33 -4
-12 -7 -2 -9 -19 -23 -33 -3
-11 -6 -1 -7 -20 -22 -32 -3
-10 -8 -2 -8 -21 -24 -34 -6
-10 -10 -4 -10 -23 -26 -34 -6
-9 -9 -2 -9 -23 -26 -35 -7
-9 -8 0 -9 -21 -26 -36 -8
-9 -8 1 -8 -19 -26 -37 -9
-10 -8 1 -9 -20 -27 -38 -11
-11 -9 0 -9 -19 -27 -38 -11
-9 -8 0 -8 -20 -26 -37 -14
-10 -10 -1 -8 -20 -26 -37 -14
-12 -11 -2 -8 -20 -26 -37 -13
-10 -9 -2 -8 -20 -26 -38 -15
-9 -8 -3 -8 -22 -28 -39 -15
-12 -8 1 -5 -19 -25 -38 -12
-10 -8 2 -5 -20 -26 -38 -14
-14 -10 0 -7 -20 -29 -40 -16
-17 -13 1 -8 -21 -29 -40 -17
-13 -11 1 -7 -20 -27 -41 -15
-13 -11 0 -9 -21 -28 -41 -16
-13 -11 0 -9 -20 -28 -42 -14
-10 -10 1 -9 -21 -28 -41 -14
-11 -9 0 -8 -20 -27 -41 -14
-9 -7 -1 -8 -20 -29 -41 -14
-10 -9 -1 -7 -20 -30 -42 -15
-10 -9 -2 -8 -19 -30 -44 -16
-11 -9 -2 -9 -21 -32 -45 -18
-12 -10 -1 -8 -20 -31 -45 -21
-12 -10 0 -7 -20 -29 -43 -20
-12 -11 -1 -10 -21 -31 -44 -22
-11 -10 -1 -9 -19 -30 -45 -21
-10 -10 -2 -9 -21 -31 -45 -21
-12 -11 -2 -10 -22 -32 -45 -23
-13 -11 -1 -9 -21 -33 -44 -23
-13 -11 -2 -7 -21 -32 -45 -24
-14 -13 -2 -7 -19 -32 -45 -26
-13 -9 -1 -6 -18 -32 -46 -28
-10 -7 1 -6 -18 -31 -44 -28
-12 -7 2 -6 -17 -30 -44 -29
-11 -7 1 -7 -19 -30 -44 -30
-11 -6 1 -7 -19 -30 -44 -31
-5 -1 0 -5 -19 -30 -42 -31
-5 -1 1 -5 -18 -29 -43 -30
-8 0 3 -2 -16 -28 -42 -31
-7 3 6 -1 -15 -27 -40 -29
-5 4 5 -1 -14 -27 -40 -28
-4 6 7 0 -12 -27 -39 -28
-5 6 9 1 -11 -26 -39 -27
-10 1 7 0 -12 -25 -41 -29
-11 0 4 -3 -14 -27 -42 -31
-12 0 4 -3 -13 -29 -42 -30
-11 1 5 -1 -14 -28 -40 -28
-9 2 6 0 -12 -27 -39 -28
-7 4 8 1 -11 -26 -39 -28
-6 6 8 3 -9 -26 -38 -29
-3 9 9 6 -7 -23 -38 -29
-3 9 9 5 -7 -24 -37 -28
-5 10 9 3 -7 -24 -38 -29
-5 9 7 3 -8 -24 -38 -29
-1 12 6 2 -9 -23 -35 -29
-1 14 3 -2 -11 -26 -36 -28
-5 8 -1 -6 -14 -30 -40 -31
-6 7 -3 -6 -15 -29 -41 -31
-4 8 -6 -7 -16 -30 -42 -32
-3 9 -6 -6 -15 -31 -42 -33
1 11 -4 -3 -12 -29 -41 -33
4 13 -1 -1 -10 -27 -39 -32
2 12 -2 -2 -9 -28 -40 -33
4 12 -5 -3 -10 -28 -41 -34
6 11 -5 -3 -10 -28 -40 -34
3 9 -6 -4 -11 -29 -41 -35
3 9 -6 -4 -11 -29 -41 -37
1 5 -7 -4 -12 -29 -41 -38
1 4 -5 -2 -11 -28 -41 -38
-2 1 -5 -2 -11 -30 -43 -38
-4 -4 -6 -2 -12 -32 -44 -41
-2 -6 -7 -3 -13 -32 -45 -42
0 -5 -6 -4 -13 -33 -46 -43
0 -5 -7 -8 -16 -37 -49 -47
-2 -8 -7 -9 -16 -37 -50 -48
-4 -10 -5 -10 -18 -39 -51 -50
-5 -9 -5 -9 -18 -39 -52 -52
-8 -10 -6 -9 -19 -40 -53 -52
-12 -9 -5 -7 -18 -38 -52 -53
-12 -9 -4 -6 -18 -40 -53 -54
-11 -10 -5 -7 -18 -41 -54 -56
-9 -10 -5 -7 -18 -41 -53 -57
-12 -15 -6 -11 -19 -43 -56 -61
-15 -16 -8 -13 -20 -44 -57 -61
-12 -14 -7 -12 -20 -43 -56 -62
-11 -12 -8 -12 -20 -43 -55 -61
-10 -12 -7 -12 -19 -42 -53 -60
-8 -12 -8 -11 -19 -41 -52 -61
-11 -14 -10 -13 -21 -44 -54 -64
-14 -17 -10 -11 -19 -43 -52 -62
-15 -18 -11 -11 -20 -43 -52 -64
-12 -15 -10 -8 -17 -42 -49 -62
-10 -12 -9 -8 -16 -41 -49 -57
-11 -13 -7 -8 -16 -39 -48 -54
-12 -14 -9 -10 -16 -41 -48 -56
-12 -14 -9 -10 -17 -41 -48 -55
-11 -13 -9 -10 -16 -40 -48 -55
-8 -13 -9 -10 -17 -39 -48 -55
-8 -12 -10 -11 -18 -42 -48 -56
-9 -13 -9 -9 -17 -42 -48 -54
-9 -12 -9 -8 -17 -41 -48 -55
-9 -14 -11 -10 -18 -42 -50 -57
-10 -14 -10 -11 -17 -41 -49 -57
-12 -15 -11 -11 -17 -41 -48 -57
-15 -16 -9 -10 -17 -41 -47 -60
-16 -15 -5 -4 -14 -39 -46 -60
-15 -17 0 8 -7 -35 -45 -62
-13 -19 4 22 4 -25 -41 -62
-12 -22 6 31 11 -19 -35 -63
-6 -27 5 33 15 -13 -28 -60
4 -24 8 43 26 1 -13 -50
15 -21 6 58 41 16 4 -40
30 -16 1 71 57 36 26 -25
46 -7 0 87 77 61 52 -6
58 5 0 102 101 89 84 17
68 19 -1 104 118 115 118 43
78 38 -4 91 127 141 152 73
94 55 -15 57 120 157 185 104
106 70 -35 1 91 160 211 134
121 82 -66 -77 46 143 223 158
135 95 -101 -156 1 128 234 182
147 114 -134 -226 -39 116 242 202
143 113 -160 -281 -73 89 217 197
136 89 -172 -316 -113 38 153 162
120 54 -174 -344 -160 -29 75 111
89 31 -164 -363 -194 -74 22 75
57 17 -154 -368 -215 -104 -18 46
27 -3 -154 -371 -236 -137 -57 10
-8 -24 -147 -364 -253 -174 -101 -27
-54 -39 -125 -342 -259 -202 -141 -69
-88 -51 -109 -320 -258 -217 -160 -96
-90 -51 -106 -302 -245 -210 -158 -102
-85 -52 -106 -279 -225 -191 -150 -103
-81 -54 -101 -247 -201 -174 -137 -100
-70 -49 -93 -214 -178 -160 -128 -95
-58 -43 -86 -184 -156 -146 -118 -88
-51 -38 -79 -158 -135 -130 -104 -80
-44 -33 -70 -135 -116 -112 -92 -73
-38 -27 -63 -112 -99 -99 -83 -67
-32 -22 -50 -85 -76 -83 -70 -61
-26 -17 -39 -63 -57 -68 -61 -56
-24 -16 -29 -47 -44 -58 -53 -54
-21 -16 -24 -36 -36 -52 -49 -52
-18 -16 -20 -29 -31 -47 -46 -51
-13 -13 -16 -22 -26 -43 -43 -47
-6 -7 -14 -15 -23 -39 -39 -45
-7 -9 -12 -10 -20 -37 -40 -46
-10 -12 -11 -6 -18 -36 -39 -46
-9 -11 -9 -1 -16 -36 -39 -45
-7 -8 -6 4 -11 -35 -39 -46
-3 -5 -4 7 -6 -31 -36 -44
-5 -6 -3 9 -5 -29 -34 -43
-8 -10 -4 6 -6 -30 -38 -43
-10 -11 -7 5 -6 -28 -35 -43
-7 -9 -9 6 -7 -27 -32 -38
-7 -9 -9 7 -6 -26 -31 -32
-4 -8 -10 7 -6 -27 -31 -29
-6 -8 -9 9 -5 -26 -30 -28
-5 -8 -7 12 -3 -28 -31 -27
-5 -11 -7 12 -2 -28 -31 -28
-4 -11 -6 13 0 -25 -32 -29
-3 -10 -4 14 1 -25 -31 -27
-5 -11 -3 14 2 -23 -29 -24
-9 -11 -5 13 2 -21 -27 -22
-3 -7 -6 14 1 -21 -25 -20
-2 -5 -5 14 0 -21 -24 -18
-1 -5 -3 15 1 -20 -23 -18
-4 -6 -3 16 2 -21 -23 -17
-5 -8 -4 17 1 -22 -24 -17
-4 -6 -2 20 6 -19 -23 -16
-4 -7 -2 20 8 -19 -24 -17
-7 -8 -2 21 8 -18 -22 -15
-7 -10 -3 19 7 -18 -23 -16
-10 -12 -4 19 8 -17 -21 -16
-4 -7 -6 17 6 -15 -19 -14
0 -4 -6 18 6 -15 -18 -12
3 -2 -6 18 6 -15 -17 -11
2 -3 -5 20 7 -14 -17 -10
1 -4 -6 22 6 -14 -18 -11
1 -3 -4 23 9 -13 -17 -12
0 -3 -3 24 13 -10 -15 -11
-1 -4 -4 23 11 -11 -17 -12
0 -3 -3 23 13 -8 -13 -10
-2 -4 -3 23 13 -5 -12 -9
0 -3 -5 21 12 -5 -11 -7
2 -1 -5 21 11 -6 -11 -6
0 -3 -6 21 12 -5 -10 -5
2 -2 -5 23 13 -4 -10 -3
4 2 -5 26 14 -3 -9 -2
2 1 -3 30 19 -1 -8 -1
5 2 -4 31 22 1 -6 -1
5 1 -3 32 23 2 -6 -1
3 0 -3 30 23 4 -5 -1
2 -2 -3 29 23 5 -3 0
1 -3 -6 29 21 5 -2 2
1 0 -6 30 23 5 -1 4
3 1 -6 32 23 7 0 5
3 0 -5 35 25 8 1 7
4 1 -6 38 26 8 2 8
8 4 -3 41 30 10 2 9
9 6 -2 43 35 13 4 10
10 5 -2 44 36 15 5 11
12 7 -2 45 37 17 7 12
13 7 -3 46 38 18 8 13
13 8 -3 48 39 21 13 18
13 9 -3 51 40 22 14 20
16 9 -5 50 39 21 15 21
14 8 -6 52 40 21 16 21
15 9 -8 56 42 22 16 22
20 13 -6 61 47 28 19 24
20 13 -6 63 49 30 21 25
22 13 -7 64 51 31 23 26
23 14 -8 66 53 33 25 27
24 15 -9 66 55 35 28 28
29 19 -9 68 57 39 32 33
29 21 -10 69 57 40 33 37
27 20 -11 72 58 42 34 38
26 21 -10 74 60 44 38 39
27 20 -12 76 61 46 38 40
30 23 -12 78 65 48 39 41
33 24 -12 81 67 50 42 43
32 25 -12 82 71 53 45 44
35 28 -12 83 72 56 48 47
36 27 -13 83 72 58 51 49
40 31 -14 82 72 59 53 52
42 36 -15 83 73 60 55 55
42 35 -17 83 73 62 56 56
44 38 -18 84 72 64 58 58
48 41 -18 86 75 65 59 61
52 43 -16 89 79 67 61 61
48 41 -18 88 78 68 62 61
45 37 -21 87 78 67 61 62
44 40 -21 87 79 69 63 63
46 42 -21 86 79 72 65 65
46 41 -23 83 78 71 66 67
51 45 -23 83 77 70 66 70
54 47 -23 82 76 70 67 69
52 45 -23 81 74 69 66 68
51 47 -22 82 75 69 66 70
48 46 -23 81 76 67 65 69
49 46 -23 80 76 69 65 69
52 47 -23 79 76 68 66 69
47 44 -23 77 75 68 64 70
44 44 -23 74 74 67 65 69
42 42 -23 72 70 65 65 70
41 41 -23 70 69 66 64 70
42 42 -22 69 68 65 63 71
41 39 -22 67 64 61 61 69
42 38 -21 67 62 58 58 66
41 36 -20 65 61 58 55 64
38 34 -19 62 60 56 53 62
33 31 -16 60 59 55 53 62
34 32 -15 57 56 52 51 60
32 29 -14 54 53 52 50 58
30 27 -14 50 50 49 48 59
25 25 -13 48 48 47 47 59
21 22 -14 46 44 45 44 55
18 19 -15 44 41 40 42 53
14 17 -14 43 41 38 40 52
17 18 -10 42 39 36 37 50
17 18 -7 39 38 36 35 48
16 17 -7 37 36 34 34 47
14 15 -7 34 35 32 32 44
10 11 -9 30 30 30 31 42
8 8 -11 24 25 26 28 41
4 5 -10 23 23 24 28 41
3 3 -9 21 20 22 25 38
3 3 -8 20 19 20 24 39
-1 0 -7 20 17 18 21 37
-2 -1 -6 19 17 17 20 35
-5 -1 -4 17 17 16 20 34
-6 -2 -4 16 15 16 17 32
-4 -1 -3 16 15 16 18 33
-3 -1 -3 13 14 15 18 33
-4 -3 -6 9 10 12 15 31
-4 -3 -7 10 9 11 16 32
-3 -3 -7 8 8 11 14 30
-2 -2 -7 8 7 10 14 31
-2 -2 -7 7 6 8 12 29
-5 -4 -7 8 6 6 11 30
-7 -4 -5 8 8 9 13 30
-10 -5 -4 8 8 10 15 31
-8 -6 -5 7 6 7 13 30
-7 -5 -3 5 5 7 14 30
-9 -6 -5 2 4 7 12 31
-10 -8 -7 2 2 5 13 31
-9 -8 -8 1 1 4 11 30
-10 -10 -8 1 0 4 11 31
-9 -8 -8 2 0 2 10 31
-6 -6 -8 3 0 2 8 30
-9 -8 -6 1 1 2 9 28
-11 -10 -5 2 1 3 10 29
-11 -10 -6 2 1 2 10 30
-4 -2 -5 2 1 5 12 31
0 0 -5 1 1 5 12 32
-2 -1 -7 1 -1 3 12 32
-5 -2 -8 1 -2 3 11 33
-11 -7 -9 0 -2 2 10 33
-13 -12 -11 -1 -3 0 8 30
-10 -12 -8 2 -1 2 10 30
-6 -11 -7 3 0 2 9 30
-6 -13 -5 4 1 3 11 32
-9 -14 -5 5 1 4 10 32
-10 -12 -7 5 2 5 13 33
-7 -10 -7 3 1 4 12 36
-8 -10 -6 5 2 4 13 37
-10 -12 -6 6 3 5 14 37
-9 -10 -6 7 4 6 14 39
-8 -9 -4 8 3 5 13 39
-9 -10 -4 10 5 6 14 38
-11 -11 -4 9 5 7 13 38
-11 -11 -4 8 4 5 13 39
-8 -10 -4 9 4 6 13 37
-9 -11 -5 8 4 7 13 37
-10 -13 -7 6 3 6 14 39
-7 -11 -8 7 3 5 14 40
-5 -12 -7 7 2 6 13 38
-4 -10 -7 7 2 6 13 41
-2 -8 -7 9 3 5 12 40
-5 -10 -5 10 4 5 13 41
-6 -10 -5 11 5 5 11 40
-8 -11 -5 10 4 5 12 40
-8 -11 -6 10 5 5 12 40
-6 -10 -7 9 5 6 14 41
-7 -9 -8 9 5 6 14 43
-7 -9 -9 7 3 4 14 43
-6 -10 -7 7 3 5 12 41
-5 -8 -6 7 4 5 13 41
-3 -5 -8 8 4 4 12 43
-6 -6 -7 9 6 5 14 42
-9 -7 -7 10 6 6 13 43
-8 -7 -6 10 6 6 13 44
-8 -8 -7 9 6 5 13 42
-6 -6 -7 9 6 6 14 43
-8 -10 -8 8 5 4 13 44
-7 -8 -9 8 3 4 13 44
-2 -5 -8 9 4 5 13 45
-2 -6 -10 7 3 3 12 44
-4 -5 -7 10 5 3 13 46
-3 -5 -7 10 4 3 12 45
-6 -7 -6 9 5 3 11 43
-5 -6 -7 9 5 2 11 44
-5 -6 -8 9 5 2 12 44
-5 -6 -8 7 3 2 13 43
-5 -6 -7 7 3 2 13 44
-4 -6 -9 7 1 1 13 42
-5 -7 -8 7 1 2 13 43
-5 -5 -8 7 2 1 13 44
-6 -7 -8 8 2 1 12 44
-6 -7 -10 6 0 -1 10 42
-8 -9 -8 7 2 0 10 41
-10 -9 -9 6 0 -2 9 40
-10 -10 -9 7 1 -2 9 41
-9 -10 -10 6 1 -1 10 41
-6 -7 -11 6 1 0 10 43
-7 -8 -11 5 -1 -1 10 43
-8 -11 -11 4 -2 -2 9 42
-8 -12 -11 3 -2 -4 8 42
-9 -12 -10 3 -3 -5 6 41
-6 -10 -12 3 -3 -5 5 38
-3 -8 -10 5 -2 -4 6 38
-4 -8 -11 3 -2 -6 6 37
-4 -8 -12 3 -2 -6 5 37
-3 -8 -10 2 -2 -5 7 38
-5 -9 -10 1 -2 -6 6 38
-7 -9 -10 0 -4 -6 5 37
-8 -12 -11 0 -5 -6 6 37
-9 -12 -13 -1 -6 -8 5 37
-9 -11 -11 1 -5 -8 5 38
-11 -13 -12 0 -7 -9 3 36
-11 -14 -11 1 -5 -7 2 35
-5 -8 -8 2 -3 -6 5 37
-3 -5 -7 3 -3 -6 5 38
-4 -6 -9 1 -3 -6 4 36
-6 -8 -12 0 -6 -8 4 36
-10 -11 -15 -2 -8 -9 1 34
-8 -10 -14 -2 -8 -9 2 34
-6 -10 -12 -2 -8 -9 4 34
-4 -7 -10 -2 -9 -10 3 34
-6 -8 -13 -2 -8 -10 3 33
-8 -10 -12 0 -6 -9 5 34
-5 -8 -9 1 -6 -9 4 35
-6 -9 -10 0 -6 -11 4 33
-5 -10 -10 -1 -7 -11 3 33
-3 -9 -11 -2 -8 -11 2 34
-6 -10 -12 -3 -9 -11 1 32
-8 -10 -13 -3 -8 -12 0 30
-8 -10 -14 -2 -7 -12 1 31
-10 -11 -13 -1 -8 -14 -1 30
-7 -8 -12 0 -6 -12 0 32
-6 -8 -12 0 -4 -11 0 32
-8 -11 -11 1 -4 -11 1 31
-7 -9 -10 0 -5 -12 0 30
-9 -12 -12 -2 -6 -12 -1 30
-8 -11 -13 -1 -7 -12 -1 30
-8 -10 -13 -2 -7 -12 -1 29
-9 -12 -14 -4 -9 -12 -2 26
-7 -11 -15 -3 -8 -12 -2 26
-5 -8 -13 -1 -7 -13 0 28
-11 -12 -13 -2 -7 -14 -2 26
-11 -14 -14 -2 -8 -15 -2 26
-10 -13 -13 -2 -8 -16 -1 27
-6 -10 -11 -2 -7 -14 0 27
-5 -8 -14 -2 -7 -12 0 27
-4 -7 -15 -1 -7 -12 2 28
-8 -10 -16 -2 -9 -15 -1 25
-14 -14 -15 -2 -9 -16 -3 24
-14 -13 -16 -2 -9 -16 -2 24
-10 -9 -12 1 -8 -14 -2 26
-11 -11 -14 0 -7 -15 -3 25
-10 -13 -16 0 -7 -16 -4 25
-7 -11 -15 0 -6 -16 -4 24
-6 -11 -14 -1 -7 -16 -4 24
-6 -11 -13 -2 -7 -15 -5 24
-8 -12 -14 -3 -9 -15 -5 24
-9 -12 -15 -3 -9 -15 -4 24
-9 -10 -15 -3 -9 -14 -4 24
-10 -11 -15 -2 -9 -14 -4 23
-9 -11 -12 -2 -8 -16 -3 24
-9 -11 -12 -2 -6 -16 -3 23
-10 -12 -14 -2 -7 -16 -4 24
-10 -12 -16 -2 -6 -15 -3 24
-13 -14 -15 -3 -6 -16 -4 24
-11 -13 -16 -3 -7 -15 -3 24
-8 -12 -16 -4 -9 -16 -3 24
-9 -13 -18 -5 -9 -17 -5 23
-8 -11 -18 -5 -10 -17 -5 23
-8 -9 -18 -3 -10 -17 -5 22
-11 -12 -18 -4 -10 -19 -8 21
-12 -11 -17 -3 -8 -19 -7 21
-12 -12 -18 -3 -9 -19 -8 20
-13 -13 -17 -2 -7 -18 -7 20
-11 -11 -14 -2 -5 -15 -5 20
-12 -11 -14 -2 -4 -15 -6 21
-10 -11 -16 -3 -6 -17 -7 19
-11 -12 -18 -4 -8 -19 -8 18
-9 -12 -20 -6 -10 -21 -10 17
-6 -10 -19 -4 -9 -21 -10 18
-8 -12 -18 -4 -9 -22 -9 17
-12 -12 -17 -4 -8 -21 -10 16
-9 -11 -18 -2 -7 -20 -10 17
-9 -12 -19 -3 -8 -21 -10 16
-8 -9 -19 -3 -6 -19 -9 16
-6 -6 -18 -2 -5 -17 -8 18
-6 -4 -18 -1 -5 -16 -7 18
-6 -4 -18 -1 -5 -16 -8 18
-9 -8 -19 -1 -5 -16 -8 17
-12 -8 -19 0 -5 -17 -8 17
-12 -6 -16 1 -5 -18 -8 18
-8 -4 -13 2 -3 -17 -9 16
-6 -2 -13 2 -2 -16 -8 16
-9 -3 -15 2 -3 -17 -10 15
-9 -4 -13 1 -4 -16 -10 12
-10 -5 -12 2 -3 -15 -9 13
-12 -5 -12 2 -4 -16 -9 15
-8 -2 -12 3 -2 -15 -7 16
-8 1 -12 2 -3 -14 -7 15
-10 -1 -13 2 -3 -15 -9 14
-7 0 -11 5 -1 -14 -6 15
-5 3 -10 7 2 -13 -6 16
-6 4 -11 9 5 -9 -4 18
-8 7 -13 8 4 -9 -4 18
-8 7 -15 6 3 -10 -5 18
-3 11 -16 6 3 -9 -4 19
0 13 -15 5 5 -8 0 22
-2 12 -19 1 0 -11 -3 20
-3 10 -20 -2 -4 -15 -5 18
-4 10 -21 -4 -6 -16 -6 17
-4 11 -22 -2 -4 -14 -5 19
-4 10 -23 0 -1 -13 -7 17
-8 7 -24 1 0 -13 -7 16
-7 7 -23 2 -1 -13 -7 16
-7 4 -24 1 -1 -13 -8 16
-6 3 -25 0 -2 -12 -6 16
-1 7 -24 2 -2 -11 -4 19
0 6 -24 1 -2 -11 -4 20
1 4 -25 1 -2 -11 -5 18
1 3 -23 4 -1 -10 -4 18
-2 2 -24 3 -1 -12 -6 17
-2 1 -26 2 -2 -14 -9 16
-3 -1 -25 3 -1 -13 -8 15
-4 -4 -24 3 -2 -15 -10 13
-3 -6 -26 0 -3 -18 -13 10
-5 -10 -27 -3 -6 -19 -14 7
-4 -10 -26 -3 -8 -19 -15 6
-4 -7 -23 -2 -7 -19 -15 7
-8 -11 -24 -3 -9 -21 -16 5
-14 -15 -24 -3 -10 -22 -17 4
-19 -21 -25 -6 -12 -25 -21 0
-18 -19 -26 -6 -11 -26 -21 -2
-15 -16 -27 -4 -9 -24 -19 1
-11 -11 -29 -5 -10 -23 -19 0
-9 -12 -29 -6 -9 -23 -19 0
-10 -13 -27 -6 -10 -23 -20 -1
-15 -17 -29 -8 -12 -24 -21 -2
-12 -15 -29 -8 -13 -24 -22 -2
-14 -16 -26 -7 -9 -24 -21 -1
-15 -17 -28 -7 -12 -26 -23 -2
-11 -15 -29 -6 -11 -27 -24 -2
-10 -15 -30 -6 -10 -26 -23 -1
-11 -15 -29 -5 -9 -25 -22 -1
-10 -14 -29 -5 -9 -24 -21 0
-11 -16 -29 -5 -8 -24 -20 -1
-13 -16 -30 -4 -7 -23 -20 -1
-15 -18 -30 -3 -7 -20 -19 -1
-15 -17 -30 -5 -9 -21 -19 0
-13 -15 -27 -4 -8 -20 -17 0
-13 -14 -14 -2 -7 -21 -17 0
-14 -17 -1 -2 -9 -22 -17 -1
-15 -19 15 -3 -10 -23 -19 -3
-17 -20 31 -3 -9 -22 -19 -3
-14 -18 49 -2 -8 -21 -19 -2
-12 -16 63 -4 -8 -21 -19 -3
-13 -14 74 -4 -8 -21 -20 -4
-15 -14 81 -2 -8 -20 -20 -7
-17 -16 87 5 -4 -18 -21 -8
-18 -19 94 19 6 -12 -21 -12
-13 -19 100 33 16 -4 -17 -14
-12 -27 99 38 21 2 -12 -16
-7 -33 97 38 24 7 -5 -14
-1 -34 97 46 36 21 10 -5
12 -29 95 61 52 40 30 7
29 -20 95 79 72 64 56 26
41 -12 93 95 94 91 86 46
55 3 91 113 120 121 120 70
65 19 91 117 140 151 157 100
74 37 87 103 149 176 191 130
87 56 76 70 141 192 226 161
97 68 55 15 111 194 252 191
113 82 26 -58 64 181 268 217
129 101 -11 -134 22 168 283 246
129 112 -45 -202 -17 153 283 258
128 111 -68 -253 -55 117 249 246
121 87 -78 -287 -95 62 176 204
103 53 -80 -314 -142 -6 95 154
75 36 -70 -331 -175 -49 43 117
37 16 -55 -339 -199 -85 -4 80
10 -3 -52 -341 -223 -125 -51 40
-26 -23 -41 -333 -241 -164 -101 -2
-69 -40 -22 -317 -252 -200 -144 -44
-91 -48 -13 -304 -254 -214 -163 -70
-94 -52 -15 -291 -243 -207 -162 -78
-92 -55 -19 -276 -227 -191 -152 -77
-83 -53 -16 -248 -204 -174 -140 -75
-72 -50 -9 -215 -179 -158 -129 -68
-61 -47 -3 -182 -156 -141 -116 -61
-51 -43 3 -156 -134 -123 -103 -53
-45 -38 9 -136 -115 -109 -91 -47
-41 -33 19 -113 -96 -94 -84 -41
-35 -26 28 -89 -76 -78 -73 -36
-30 -21 39 -65 -57 -63 -61 -31
-21 -15 46 -49 -44 -53 -55 -27
-20 -14 51 -37 -34 -45 -51 -27
-16 -12 55 -27 -25 -39 -46 -26
-14 -10 59 -21 -21 -36 -43 -24
-15 -13 59 -14 -19 -34 -42 -23
-11 -10 63 -9 -14 -31 -41 -22
-12 -9 65 -3 -12 -30 -40 -20
-13 -11 67 3 -7 -29 -41 -20
-12 -10 67 5 -4 -26 -41 -22
-14 -12 70 9 0 -23 -38 -21
-15 -13 67 8 1 -23 -39 -22
-13 -13 69 9 2 -22 -38 -21
-11 -13 68 6 1 -23 -39 -23
-9 -11 68 6 0 -22 -37 -19
-11 -12 68 7 1 -21 -36 -18
-12 -15 67 7 1 -21 -36 -19
-10 -12 68 9 2 -21 -36 -19
-6 -9 69 12 5 -20 -36 -17
-3 -7 71 14 6 -18 -36 -20
-4 -8 70 15 9 -18 -36 -21
-7 -11 68 14 8 -18 -37 -22
-7 -11 65 13 9 -17 -37 -22
-7 -10 63 9 8 -17 -37 -24
-6 -8 62 9 6 -17 -36 -22
-6 -5 63 11 6 -18 -35 -21
-6 -5 63 10 6 -19 -36 -21
-5 -5 63 12 6 -19 -35 -21
-3 -3 65 15 8 -18 -38 -19
-3 -5 65 16 9 -19 -39 -23
-3 -7 66 18 12 -16 -38 -21
-5 -8 67 18 12 -15 -37 -22
-6 -8 66 17 12 -14 -37 -22
-2 -5 66 15 13 -12 -34 -22
-4 -7 63 13 10 -13 -34 -21
-6 -7 61 13 8 -14 -35 -19
-4 -5 60 14 9 -13 -35 -19
-5 -7 57 13 7 -14 -36 -20
-1 -4 55 15 8 -15 -38 -21
0 -2 58 17 10 -13 -37 -21
-1 -1 61 17 13 -10 -25 -22
-2 -1 62 20 15 -8 -7 -20
-3 -2 61 19 15 -6 1 -21
-1 1 60 17 15 -4 10 -21
2 1 58 16 14 -3 14 -19
-4 -5 54 14 12 -3 14 -20
-5 -7 52 15 14 -4 17 -20
-4 -6 52 18 15 -4 19 -18
-2 -4 52 20 16 -4 18 -17
1 0 57 22 19 -1 20 -17
-1 0 56 23 21 1 21 -16
-3 0 56 23 23 3 23 -15
0 1 56 24 25 6 25 -13
0 1 55 22 26 8 28 -13
3 3 55 22 24 8 30 -10
5 4 54 25 24 9 30 -9
4 3 53 26 25 10 31 -8
1 2 52 28 25 9 31 -10
-1 0 53 32 28 10 30 -8
2 2 51 35 32 13 31 -10
7 5 53 37 36 15 34 -9
5 5 51 38 36 16 33 -9
5 5 48 39 38 18 35 -9
5 5 47 39 39 21 39 -8
9 7 45 39 37 19 39 -6
12 10 45 40 37 20 40 -5
15 14 46 43 40 23 42 -2
16 16 48 47 43 24 45 0
14 14 48 51 46 26 46 1
13 12 46 54 49 29 48 1
15 13 46 56 53 31 48 2
13 12 46 58 55 32 50 3
13 12 45 60 57 35 52 5
21 19 45 61 59 39 58 8
21 21 43 62 57 39 59 13
24 23 40 63 58 42 61 15
26 25 40 66 61 45 63 18
28 26 36 67 61 44 64 18
30 27 35 71 65 46 64 19
29 28 33 74 70 49 67 21
29 29 34 77 74 53 69 23
31 30 35 79 76 56 72 25
32 29 34 80 79 60 75 28
36 33 32 80 81 64 80 31
40 37 29 81 81 64 83 34
39 36 26 80 79 66 84 38
42 37 24 80 80 66 84 38
42 39 23 81 82 67 86 39
42 41 24 84 84 69 87 41
46 45 24 88 90 74 90 43
44 45 23 87 92 76 92 44
43 44 24 88 92 76 93 46
41 44 23 84 91 78 92 47
42 44 23 82 91 78 95 48
43 44 21 82 90 78 95 49
41 42 18 80 87 76 94 49
43 46 17 78 85 76 95 51
42 46 17 80 86 76 96 51
43 46 16 81 88 76 94 51
47 49 15 81 90 78 95 48
49 50 15 82 90 77 93 48
46 48 17 80 87 74 92 47
44 48 17 76 85 75 91 48
42 46 15 73 84 72 90 46
39 44 13 69 79 68 88 45
39 45 16 67 76 66 86 44
35 42 17 66 75 64 84 43
37 44 19 67 73 61 83 43
36 43 23 68 72 60 79 43
33 40 23 66 70 56 75 38
31 37 23 64 69 54 73 36
26 32 25 61 67 54 70 32
25 30 25 58 64 50 66 30
24 29 23 54 61 48 63 28
21 28 22 50 56 43 61 25
20 28 24 46 52 40 58 25
15 25 24 44 48 38 55 22
12 22 27 42 45 33 51 19
12 20 29 41 42 29 45 14
8 14 32 39 41 25 43 11
6 12 33 38 39 23 41 7
7 12 34 36 38 21 39 7
6 10 34 35 35 19 36 5
5 8 30 29 30 16 32 2
2 6 28 25 24 12 28 -1
1 7 29 23 21 9 26 -1
-1 5 30 20 19 6 23 -4
-3 2 29 18 16 2 20 -6
-4 2 29 20 15 2 18 -7
-4 2 29 18 14 0 16 -9
-7 -2 28 16 13 -3 14 -11
-9 -3 30 15 13 -3 14 -11
-9 -5 32 13 11 -3 12 -12
-6 -4 29 8 7 -6 10 -14
-3 -1 31 7 5 -8 10 -13
-2 -1 29 4 4 -10 8 -14
-3 -1 30 4 2 -11 7 -15
-5 -3 30 6 3 -12 6 -14
-8 -5 30 6 2 -14 2 -15
-10 -6 30 7 2 -13 2 -17
-11 -9 30 7 2 -15 1 -17
-13 -12 28 5 1 -14 0 -18
-14 -12 29 4 0 -14 -1 -19
-5 -6 28 3 0 -13 0 -18
-4 -3 26 2 -3 -15 -1 -17
-9 -6 27 0 -5 -18 -2 -18
-10 -9 28 0 -6 -18 -2 -18
-9 -7 27 1 -5 -19 -3 -19
-10 -9 28 3 -4 -19 -4 -18
-14 -11 30 5 -3 -20 -4 -22
-12 -12 29 4 -3 -21 -6 -23
-12 -12 28 2 -4 -21 -7 -24
-10 -11 29 3 -3 -19 -6 -23
-12 -11 30 1 -3 -17 -4 -22
-15 -12 28 0 -5 -18 -3 -21
-13 -12 27 -1 -5 -18 -3 -21
-11 -12 26 0 -5 -19 -4 -20
-9 -10 27 1 -6 -19 -4 -20
-9 -9 27 3 -7 -21 -6 -21
-16 -15 26 4 -5 -21 -7 -23
-15 -16 25 5 -4 -20 -8 -23
-14 -15 25 4 -4 -21 -8 -24
-12 -14 27 5 -4 -20 -8 -24
-10 -12 28 5 -2 -18 -5 -23
-12 -11 27 4 -5 -19 -4 -21
-12 -12 25 4 -4 -19 -5 -20
-11 -11 23 5 -3 -19 -4 -21
-12 -11 23 5 -4 -21 -6 -22
-12 -10 25 8 -3 -21 -7 -20
-11 -11 24 7 -4 -22 -11 -24
-12 -11 23 7 -5 -21 -11 -24
-7 -6 26 6 -3 -19 -10 -23
-9 -8 26 6 -3 -18 -10 -23
-13 -11 24 4 -2 -17 -8 -23
-15 -11 23 5 -2 -17 -6 -20
-15 -11 24 5 -2 -16 -5 -18
-12 -10 24 7 -2 -15 -3 -18
-8 -6 23 9 -2 -16 -2 -16
-5 -6 23 12 0 -14 -2 -17
-6 -7 22 11 1 -15 -4 -18
-8 -9 21 11 0 -16 -5 -20
-8 -7 22 10 -1 -17 -5 -18
-8 -7 23 10 0 -15 -4 -18
-11 -8 21 7 -1 -16 -4 -17
-9 -8 20 7 -3 -16 -5 -17
-8 -6 19 8 -4 -16 -5 -15
-6 -5 20 10 -2 -13 -2 -13
-7 -6 18 9 -1 -12 -2 -13
-9 -8 18 9 -3 -14 -4 -15
-11 -8 19 10 -1 -14 -4 -16
-9 -9 19 9 -1 -14 -3 -16
-9 -6 17 9 -1 -15 -4 -16
-8 -5 18 10 -1 -15 -5 -15
-10 -6 18 8 -2 -16 -5 -14
-11 -8 18 7 -3 -17 -5 -13
-11 -8 17 8 -4 -16 -5 -13
-9 -8 19 9 -3 -15 -4 -10
-3 -2 20 11 -2 -14 -4 -10
2 1 20 13 -1 -13 -4 -10
-5 -4 17 12 -2 -16 -7 -13
-9 -7 13 8 -4 -18 -9 -15
-11 -8 14 8 -4 -18 -9 -15
-8 -6 15 8 -4 -16 -8 -13
-6 -2 18 7 -3 -15 -6 -12
-8 -5 18 7 -5 -15 -6 -12
-10 -4 17 8 -4 -15 -7 -12
-10 -6 18 8 -4 -14 -7 -12
-10 -6 17 7 -5 -18 -8 -13
-10 -7 17 8 -4 -17 -9 -12
-11 -7 17 9 -3 -17 -8 -12
-8 -6 19 9 -2 -15 -6 -10
-3 -2 19 9 -4 -17 -7 -11
-4 -5 20 7 -6 -17 -9 -13
-5 -4 21 7 -5 -17 -8 -12
-7 -6 21 7 -6 -16 -8 -11
-9 -7 20 6 -6 -17 -10 -11
-6 -7 20 7 -6 -17 -9 -10
-6 -6 18 5 -7 -19 -10 -12
-7 -6 17 7 -6 -18 -10 -10
-7 -5 16 6 -6 -19 -10 -12
-10 -9 15 4 -7 -19 -11 -12
-10 -8 15 5 -7 -20 -12 -13
-11 -9 16 3 -8 -21 -13 -12
-14 -11 17 3 -8 -21 -13 -12
-9 -6 19 4 -8 -19 -11 -9
-5 -4 21 6 -9 -19 -11 -8
-5 -6 21 7 -9 -19 -11 -9
-3 -5 18 7 -10 -20 -11 -8
-5 -8 16 7 -10 -20 -13 -9
-8 -8 18 7 -10 -21 -13 -11
-11 -11 18 7 -10 -21 -14 -12
-8 -9 18 7 -9 -20 -13 -12
-5 -5 17 6 -9 -19 -12 -13
-3 -3 18 5 -10 -20 -13 -11
-3 -4 18 5 -11 -19 -13 -10
-7 -6 17 4 -10 -21 -14 -10
-11 -12 16 4 -11 -22 -16 -10
-8 -9 16 5 -11 -23 -16 -10
-7 -7 17 5 -12 -22 -16 -10
-10 -9 18 7 -11 -22 -16 -10
-10 -9 17 6 -10 -21 -15 -9
-12 -13 18 5 -11 -22 -16 -9
-11 -12 19 5 -12 -21 -15 -9
-13 -13 20 4 -11 -20 -14 -9
-13 -15 17 2 -13 -20 -15 -9
-10 -12 18 5 -12 -20 -13 -9
-9 -11 15 3 -13 -21 -15 -10
-10 -10 13 3 -13 -22 -14 -9
-11 -9 13 6 -11 -21 -14 -7
-11 -10 14 7 -9 -20 -14 -9
-9 -10 14 5 -13 -21 -15 -9
-8 -9 15 4 -14 -21 -16 -9
-7 -10 16 4 -13 -21 -16 -10
-6 -8 18 3 -13 -21 -15 -9
-9 -11 16 1 -13 -20 -16 -9
-10 -14 16 2 -14 -20 -16 -10
-10 -12 16 3 -13 -20 -16 -11
-11 -12 15 3 -14 -22 -17 -10
-11 -13 15 2 -15 -23 -18 -11
-10 -13 14 3 -15 -23 -18 -12
-8 -12 14 3 -14 -23 -17 -10
-4 -8 16 5 -12 -20 -15 -8
-5 -9 16 6 -11 -19 -13 -8
-7 -10 14 3 -14 -21 -13 -8
-8 -11 14 1 -15 -21 -13 -7
-9 -12 12 0 -17 -22 -15 -9
-9 -10 12 2 -15 -21 -14 -8
-11 -12 10 2 -15 -22 -14 -8
-13 -14 9 1 -18 -23 -15 -10
-15 -14 12 1 -18 -22 -17 -10
-9 -8 17 4 -13 -18 -13 -5
-6 -6 17 6 -12 -17 -11 -5
-8 -9 16 4 -12 -18 -12 -5
-9 -12 14 1 -13 -18 -14 -7
-11 -15 12 -1 -16 -20 -14 -7
-12 -15 13 -1 -16 -19 -15 -7
-10 -12 11 -2 -18 -21 -15 -7
-8 -12 11 -1 -16 -20 -16 -7
-9 -12 11 1 -15 -20 -15 -6
-9 -10 13 3 -14 -20 -15 -7
-9 -9 14 3 -13 -18 -13 -5
-7 -8 15 4 -13 -18 -14 -6
-5 -4 16 5 -12 -16 -12 -4
-6 -6 15 3 -10 -14 -10 -3
-7 -6 13 1 -11 -14 -9 -2
-7 -2 15 4 -9 -14 -8 -1
-8 -1 15 4 -10 -14 -7 0
-10 -1 15 2 -13 -14 -8 1
-10 -1 17 2 -13 -16 -10 -1
-10 -3 18 4 -12 -16 -12 -4
-9 -3 20 4 -10 -14 -12 -3
-11 -4 20 5 -9 -13 -11 -3
-12 -5 17 4 -10 -14 -12 -2
-11 -3 17 4 -9 -12 -11 -1
-11 -3 18 3 -10 -12 -11 0
-8 0 18 4 -10 -11 -11 0
-5 5 20 6 -9 -10 -9 3
-7 5 19 6 -7 -9 -7 5
-5 7 17 6 -8 -10 -6 5
-5 6 13 5 -9 -10 -7 5
-4 8 13 3 -8 -8 -6 6
-4 11 10 2 -8 -8 -4 7
-6 8 8 0 -10 -8 -5 8
-5 6 4 -5 -14 -12 -9 5
-5 5 2 -8 -17 -12 -8 5
-2 9 2 -5 -15 -11 -7 6
4 16 7 0 -11 -8 -4 9
0 12 5 -1 -12 -8 -5 8
-5 6 4 -3 -15 -12 -7 6
-3 6 2 -4 -15 -12 -7 6
-3 6 4 -4 -14 -12 -7 6
-4 5 4 -3 -14 -11 -7 6
-3 3 3 -2 -14 -11 -7 5
0 4 4 -3 -13 -10 -7 6
1 4 5 -1 -12 -9 -6 8
0 2 4 -3 -14 -10 -7 7
-1 -2 3 -3 -14 -10 -6 7
0 -3 3 -4 -15 -11 -6 6
-1 -9 3 -4 -16 -12 -7 5
-3 -10 3 -7 -18 -14 -9 3
-5 -10 3 -7 -19 -15 -10 2
-6 -11 2 -8 -20 -16 -12 0
-7 -11 3 -9 -21 -16 -14 -2
-10 -13 3 -10 -21 -15 -13 -2
-9 -13 2 -12 -23 -16 -14 -4
-9 -13 4 -12 -25 -17 -16 -6
-14 -14 3 -13 -25 -18 -18 -7
-13 -14 2 -13 -26 -21 -19 -7
-12 -15 5 -12 -25 -20 -19 -7
-12 -17 4 -12 -25 -21 -20 -7
-9 -14 5 -10 -22 -19 -18 -5
-12 -15 4 -11 -23 -19 -18 -5
-13 -17 4 -11 -22 -17 -16 -3
-11 -17 3 -11 -21 -16 -15 -3
-12 -17 1 -14 -24 -18 -15 -3
-11 -16 1 -14 -25 -18 -15 -4
-13 -18 3 -11 -23 -15 -12 -2
-16 -19 -1 -13 -25 -18 -14 -4
-12 -16 0 -14 -24 -18 -14 -3
-12 -15 2 -15 -23 -18 -15 -3
-10 -14 2 -14 -21 -16 -13 -2
-9 -12 1 -14 -21 -15 -12 -1
-12 -15 0 -14 -21 -16 -12 -2
-12 -17 0 -16 -21 -15 -12 -2
-12 -17 0 -16 -22 -16 -12 -1
-11 -16 0 -16 -22 -15 -12 -2
-11 -17 1 -16 -21 -15 -11 0
-14 -18 2 -16 -21 -14 -11 -1
-9 -17 1 -16 -23 -16 -11 -2
-3 -9 4 -14 -21 -15 -10 -1
-8 -12 4 -11 -18 -14 -11 -3
-14 -17 6 -4 -13 -12 -13 -8
-18 -23 11 9 -3 -6 -13 -12
-15 -25 17 22 9 5 -7 -15
-10 -28 20 29 17 15 1 -12
-5 -30 18 31 22 25 14 -6
2 -32 17 39 34 41 32 2
11 -28 16 57 53 63 56 16
23 -23 13 77 76 91 85 35
35 -10 13 94 105 126 123 58
49 11 14 108 134 165 166 87
55 29 16 101 151 197 206 117
64 47 12 72 153 224 249 149
77 64 -3 27 139 245 292 183
86 81 -23 -29 106 249 328 218
99 92 -56 -98 56 235 349 249
112 105 -95 -171 13 229 372 278
120 121 -131 -236 -25 215 372 292
116 118 -154 -281 -59 183 334 278
110 91 -165 -307 -91 130 262 238
98 58 -165 -326 -132 65 179 189
70 37 -155 -341 -167 14 115 147
34 17 -142 -349 -200 -40 52 99
10 -4 -140 -353 -229 -95 -14 53
-24 -25 -130 -349 -259 -155 -82 3
-60 -41 -110 -337 -284 -211 -141 -46
-79 -53 -100 -326 -294 -234 -167 -75
-83 -59 -99 -311 -280 -221 -161 -83
-75 -54 -102 -295 -260 -202 -150 -83
-71 -55 -101 -271 -233 -183 -137 -79
-62 -54 -91 -236 -205 -162 -124 -75
-53 -51 -82 -201 -175 -140 -107 -66
-48 -52 -77 -178 -153 -121 -94 -60
-40 -45 -71 -159 -134 -104 -80 -52
-34 -35 -60 -137 -113 -89 -66 -41
-28 -27 -49 -113 -93 -72 -57 -37
-28 -25 -36 -89 -74 -56 -45 -33
-25 -23 -28 -71 -60 -47 -38 -29
-16 -17 -18 -53 -47 -37 -31 -26
-12 -15 -14 -41 -37 -29 -26 -25
-14 -16 -12 -33 -31 -24 -23 -23
-13 -15 -10 -26 -27 -21 -21 -23
-13 -15 -9 -22 -24 -19 -21 -23
-11 -16 -7 -17 -20 -17 -20 -23
-11 -14 -2 -12 -17 -15 -20 -22
-12 -15 0 -8 -14 -14 -20 -23
-9 -13 0 -6 -11 -12 -18 -23
-7 -11 1 -3 -9 -11 -16 -23
-7 -13 1 -3 -8 -11 -18 -23
-8 -13 1 -2 -6 -7 -17 -22
-8 -13 1 -2 -6 -7 -16 -22
-7 -12 1 -3 -7 -7 -15 -21
-9 -11 2 -2 -5 -7 -14 -22
-9 -12 2 0 -5 -5 -13 -22
-8 -12 1 2 -4 -5 -13 -22
-9 -14 1 4 -2 -4 -13 -23
-10 -15 2 4 -1 -3 -13 -24
-5 -11 3 5 -1 -4 -11 -23
-4 -10 3 7 0 -2 -10 -24
-4 -9 3 6 1 -1 -9 -23
-3 -7 3 6 -1 -1 -8 -22
-6 -9 3 5 -2 -1 -8 -23
-7 -10 2 4 -3 -2 -11 -24
-4 -8 2 6 -2 -2 -10 -24
-5 -10 1 7 -3 -2 -10 -24
-5 -11 1 8 -1 -3 -10 -24
-7 -13 0 8 -1 -2 -11 -26
-5 -11 2 9 2 0 -8 -25
1 -6 4 11 6 2 -5 -22
0 -6 4 9 5 3 -5 -23
-2 -9 5 10 4 4 -3 -21
-7 -12 0 7 1 2 -6 -24
-11 -16 0 6 1 2 -7 -25
-6 -12 0 9 2 4 -6 -23
-1 -6 1 11 3 4 -4 -21
4 -1 3 14 6 6 -4 -21
0 -5 3 14 7 8 -3 -21
-1 -6 0 11 5 6 -4 -23
-2 -6 1 13 7 11 -1 -22
-2 -4 0 12 7 11 -1 -22
-2 -5 -3 11 6 11 -2 -22
-2 -5 -3 12 6 13 0 -21
-3 -6 -3 13 9 16 1 -19
-1 -5 -3 13 9 16 2 -19
-1 -4 -2 15 9 16 2 -18
-1 -5 0 16 12 17 3 -17
3 -3 -1 15 13 18 2 -20
2 -3 -2 16 13 18 4 -19
-1 -3 -2 17 15 21 6 -18
1 -2 0 18 19 25 9 -16
3 2 -1 19 19 25 10 -14
1 2 -1 22 19 26 12 -13
1 0 0 23 21 29 13 -13
4 3 -2 25 22 30 13 -13
7 7 -1 27 23 30 14 -13
5 5 0 28 26 30 15 -12
5 4 0 31 29 33 17 -12
10 6 0 32 31 34 18 -11
9 4 -2 33 33 34 19 -11
11 6 -2 33 34 37 22 -10
10 5 -5 35 35 40 23 -9
8 4 -7 36 35 41 24 -9
13 9 -6 40 39 43 26 -6
15 12 -4 41 40 44 28 -5
16 13 -3 46 44 47 32 -2
16 13 -3 49 48 50 33 0
15 12 -6 49 50 52 34 -2
16 14 -6 53 50 53 37 -1
17 16 -6 56 56 58 40 2
17 17 -5 59 59 62 45 5
18 19 -7 60 61 65 48 8
17 18 -9 63 63 67 50 10
20 21 -8 67 67 71 55 13
23 24 -8 69 69 74 58 16
23 23 -9 71 71 77 61 17
26 25 -10 73 75 79 62 18
28 28 -10 75 79 83 67 21
30 31 -9 78 81 87 71 25
33 34 -10 80 84 91 73 28
35 35 -13 80 86 94 77 30
36 37 -15 79 86 96 80 33
38 38 -14 81 88 99 83 34
40 39 -18 81 89 101 84 35
40 40 -20 82 91 104 89 38
39 41 -20 85 94 106 90 42
39 41 -20 86 95 108 92 43
41 43 -20 84 95 109 93 42
40 44 -19 84 97 110 95 44
40 44 -19 85 97 112 96 46
43 46 -18 84 98 114 99 47
43 47 -20 83 97 114 98 48
45 50 -20 84 96 114 99 50
47 52 -22 82 96 114 99 50
44 52 -22 80 95 113 100 49
44 53 -23 81 94 113 99 50
40 51 -22 80 96 113 99 51
38 48 -21 78 93 113 99 49
40 49 -19 76 91 109 97 47
41 49 -18 75 91 109 98 47
41 50 -17 71 88 109 97 47
36 47 -19 69 84 106 95 45
37 46 -19 67 82 103 93 45
37 47 -18 65 79 101 91 44
35 44 -18 61 74 96 86 41
32 40 -17 57 71 91 82 37
32 39 -15 57 68 88 79 36
27 36 -14 55 66 86 75 32
25 34 -14 52 61 80 71 29
24 33 -12 49 59 76 68 27
24 32 -13 44 55 73 63 24
23 31 -11 43 51 71 61 21
20 27 -11 38 44 64 55 19
15 22 -8 34 41 59 52 14
14 21 -7 32 38 55 48 11
13 18 -8 28 34 51 43 8
10 16 -7 27 31 48 39 4
8 14 -7 23 28 45 35 1
8 13 -7 21 25 41 33 0
6 10 -5 18 20 37 30 -2
3 7 -5 15 17 35 27 -6
0 5 -2 13 15 34 25 -5
1 4 -2 9 10 29 21 -7
-2 2 -2 9 9 27 19 -8
-1 3 -4 7 7 24 18 -10
-2 1 -3 7 4 22 15 -12
-2 0 -1 6 2 19 11 -14
-3 -3 -2 3 0 17 8 -16
-5 -4 0 2 -2 14 8 -18
-3 -5 0 0 -4 12 5 -19
-3 -7 -2 -4 -6 11 4 -22
-5 -7 -2 -4 -9 10 4 -22
-5 -5 -4 -5 -11 8 1 -21
-6 -5 -4 -6 -12 5 0 -22
-5 -5 -5 -7 -12 4 0 -23
-5 -5 -4 -6 -13 5 -1 -22
-5 -7 -4 -6 -13 4 -2 -24
-7 -8 -3 -7 -13 3 -2 -25
-5 -6 -3 -8 -13 2 -4 -24
-6 -8 -2 -9 -13 2 -4 -25
-7 -8 -3 -11 -15 2 -5 -25
-9 -10 -4 -12 -17 1 -6 -25
-8 -8 -3 -11 -16 0 -5 -23
-7 -7 -2 -11 -15 2 -5 -22
-10 -8 -2 -11 -16 2 -5 -21
-11 -11 -2 -10 -19 -1 -7 -22
-10 -11 0 -9 -19 -2 -7 -23
-11 -11 -1 -9 -18 -2 -9 -21
-8 -9 -2 -9 -18 -3 -9 -18
-8 -9 -1 -9 -19 -3 -9 -17
-10 -12 -1 -11 -21 -4 -10 -18
-14 -14 -2 -12 -23 -5 -11 -19
-17 -16 -2 -12 -23 -7 -11 -20
-12 -15 -2 -12 -22 -5 -12 -20
-11 -14 -1 -12 -23 -6 -13 -22
-15 -18 -2 -13 -25 -9 -16 -23
-17 -19 -3 -13 -24 -8 -15 -23
-13 -18 -2 -11 -23 -9 -16 -23
-9 -12 0 -9 -21 -7 -14 -22
-7 -12 1 -7 -20 -6 -14 -21
-8 -13 -1 -9 -21 -6 -16 -22
-7 -11 -1 -8 -20 -6 -14 -20
-6 -9 -1 -7 -19 -6 -13 -19
-7 -11 -2 -8 -20 -6 -15 -19
-7 -11 -2 -9 -20 -7 -15 -19
-11 -13 -2 -9 -21 -8 -16 -21
-10 -12 -1 -9 -19 -8 -16 -22
-9 -11 0 -8 -18 -6 -14 -20
-11 -11 -1 -8 -17 -6 -14 -20
-10 -10 0 -9 -17 -5 -15 -20
-11 -12 -1 -9 -17 -2 -13 -18
-11 -10 1 -8 -18 -2 -11 -16
-7 -7 1 -9 -18 -3 -13 -16
-8 -9 -1 -9 -19 -3 -12 -16
-8 -8 -2 -9 -19 -3 -12 -17
-7 -6 0 -7 -18 -3 -11 -16
-6 -7 0 -8 -17 -4 -12 -16
-7 -8 -1 -8 -16 -2 -12 -15
-8 -8 0 -7 -16 -3 -12 -15
-10 -9 0 -7 -16 -2 -12 -14
-8 -7 -1 -8 -15 -1 -11 -14
-8 -7 -1 -7 -15 0 -10 -15
-8 -7 -1 -7 -14 0 -9 -13
-7 -7 0 -7 -13 1 -8 -13
-8 -7 -2 -8 -14 0 -10 -14
-4 -5 0 -6 -15 0 -9 -12
-3 -4 0 -4 -13 1 -7 -11
-5 -7 -2 -6 -13 1 -10 -13
-7 -9 -2 -7 -14 0 -10 -15
-8 -9 -4 -6 -14 -1 -11 -14
-7 -6 -5 -7 -13 1 -10 -13
-7 -6 -4 -7 -13 2 -8 -13
-9 -7 -2 -8 -14 0 -10 -13
-7 -7 -2 -9 -15 0 -10 -12
-7 -7 -3 -9 -15 1 -9 -12
-4 -4 -1 -6 -12 2 -7 -10
-2 -2 2 -5 -10 3 -7 -8
-4 -7 0 -7 -12 2 -7 -10
-2 -6 1 -8 -13 2 -8 -13
-4 -7 1 -7 -12 0 -9 -11
-7 -8 -1 -9 -13 0 -9 -12
-7 -7 -2 -8 -12 0 -8 -10
-5 -6 -1 -7 -13 1 -9 -10
-3 -4 -1 -7 -13 1 -10 -10
-4 -5 -1 -9 -15 -2 -12 -11
-5 -7 -1 -10 -16 -3 -13 -11
-3 -7 0 -8 -15 -3 -12 -12
-2 -4 -1 -9 -15 -2 -13 -12
-5 -6 -1 -9 -15 -4 -12 -13
-7 -7 -2 -9 -16 -5 -13 -13
-6 -6 -1 -9 -15 -4 -13 -14
-4 -5 -1 -9 -16 -3 -14 -12
-4 -5 0 -8 -17 -5 -15 -12
-7 -7 1 -7 -17 -5 -15 -13
-8 -10 -1 -9 -18 -5 -14 -13
-8 -9 -1 -8 -19 -6 -15 -13
-7 -8 1 -7 -18 -5 -15 -14
-9 -9 2 -6 -16 -4 -14 -12
-11 -10 3 -7 -16 -5 -12 -14
-10 -11 3 -6 -16 -6 -15 -14
-7 -9 3 -8 -19 -6 -15 -14
-7 -9 1 -9 -21 -7 -15 -15
-6 -9 4 -8 -19 -7 -16 -14
-5 -7 3 -7 -19 -8 -15 -13
-3 -7 1 -7 -20 -8 -15 -15
-1 -5 2 -4 -17 -7 -15 -14
-4 -7 2 -5 -19 -10 -18 -16
-5 -9 0 -7 -19 -10 -20 -17
-7 -11 0 -7 -19 -10 -19 -16
-10 -12 2 -7 -19 -10 -19 -16
-10 -11 5 -7 -18 -9 -18 -16
-6 -7 4 -8 -17 -9 -17 -14
-7 -9 3 -8 -18 -10 -19 -16
-8 -10 3 -8 -19 -11 -21 -17
-8 -10 3 -9 -21 -11 -20 -16
-6 -9 4 -8 -20 -11 -20 -16
-5 -10 5 -7 -19 -11 -22 -17
-4 -9 4 -6 -20 -11 -22 -17
-4 -8 4 -5 -19 -11 -21 -18
-7 -10 3 -7 -20 -11 -23 -19
-8 -9 2 -8 -21 -13 -23 -20
-7 -8 2 -7 -21 -13 -23 -19
-7 -8 3 -8 -22 -14 -26 -19
-7 -10 2 -9 -22 -14 -26 -20
-6 -10 2 -9 -23 -16 -25 -20
-9 -13 2 -9 -22 -16 -27 -20
-10 -13 4 -8 -22 -16 -27 -21
-9 -11 5 -7 -20 -15 -28 -19
-8 -12 6 -6 -20 -14 -28 -18
-9 -11 6 -5 -19 -15 -26 -19
-10 -11 5 -5 -19 -13 -25 -19
-10 -11 4 -6 -19 -13 -25 -18
-10 -12 5 -6 -19 -14 -26 -20
-9 -11 7 -5 -18 -15 -27 -18
-11 -12 5 -6 -19 -15 -26 -19
-12 -14 3 -7 -20 -17 -27 -21
-11 -13 4 -6 -19 -17 -29 -19
-9 -9 7 -4 -18 -15 -27 -18
-10 -10 6 -5 -18 -15 -28 -20
-9 -9 7 -4 -17 -16 -29 -20
-6 -6 6 -3 -18 -15 -29 -21
-4 -4 6 -3 -18 -15 -26 -20
-4 -4 7 -3 -18 -15 -24 -20
-10 -9 6 -5 -19 -18 -25 -23
-12 -13 6 -7 -21 -20 -25 -26
-10 -12 8 -5 -20 -20 -23 -25
-8 -11 7 -5 -20 -22 -24 -26
-8 -11 8 -4 -19 -20 -23 -25
-9 -10 10 -4 -17 -20 -21 -24
-10 -10 9 -3 -16 -19 -21 -25
-8 -8 9 -3 -15 -17 -22 -24
-7 -5 11 0 -13 -16 -19 -22
-5 -2 10 1 -13 -15 -19 -20
-5 -3 11 1 -13 -15 -18 -16
-6 -2 11 0 -13 -14 -18 -17
-3 2 14 3 -12 -15 -17 -15
-1 5 14 4 -11 -12 -17 -14
-6 1 14 3 -12 -14 -18 -15
-7 -1 16 2 -13 -16 -19 -17
-10 -3 15 3 -12 -16 -21 -17
-9 -2 15 2 -11 -16 -19 -17
-7 1 15 4 -11 -14 -19 -14
-6 0 15 5 -9 -14 -19 -14
-6 3 16 6 -9 -15 -18 -15
-4 5 18 8 -7 -13 -17 -12
-5 4 19 9 -7 -13 -18 -12
-2 8 17 7 -5 -13 -16 -13
-4 9 17 8 -4 -11 -15 -10
-5 8 15 6 -5 -12 -15 -10
-5 9 13 6 -5 -11 -15 -11
-4 11 13 3 -6 -13 -16 -11
-2 15 11 0 -8 -13 -15 -9
-4 11 8 -2 -10 -16 -19 -9
-5 8 6 -4 -12 -18 -20 -12
-3 9 6 -4 -13 -19 -20 -12
-2 10 8 -3 -11 -17 -22 -11
2 14 9 0 -9 -18 -19 -12
5 15 9 1 -9 -17 -19 -12
2 12 8 1 -10 -18 -21 -12
-1 10 10 3 -7 -16 -18 -11
2 12 11 3 -6 -15 -18 -12
2 10 9 2 -8 -16 -20 -12
2 6 8 2 -9 -17 -20 -14
3 6 8 1 -9 -17 -21 -15
4 6 7 1 -11 -19 -21 -15
7 7 8 4 -9 -18 -20 -14
3 1 9 3 -10 -19 -24 -16
0 -6 8 1 -12 -22 -27 -19
-1 -7 7 -2 -15 -26 -29 -21
-4 -10 6 -3 -15 -27 -31 -21
-3 -9 9 -4 -16 -27 -31 -22
-1 -8 10 -3 -16 -27 -32 -22
-1 -7 12 -3 -16 -28 -32 -24
-5 -9 13 -5 -18 -30 -33 -27
-11 -11 12 -6 -19 -31 -35 -26
-13 -13 12 -5 -19 -32 -37 -28
-12 -15 12 -3 -18 -31 -36 -29
-12 -16 11 -5 -17 -32 -38 -31
-11 -15 11 -6 -18 -34 -38 -31
-9 -12 14 -4 -16 -34 -37 -29
-7 -10 13 -6 -19 -34 -39 -31
-7 -11 13 -6 -19 -33 -38 -32
-9 -14 12 -6 -19 -35 -40 -32
-9 -11 13 -6 -19 -34 -39 -31
-9 -12 11 -7 -19 -35 -38 -30
-9 -13 12 -5 -17 -35 -37 -28
-7 -11 14 -5 -16 -35 -37 -28
-7 -12 13 -4 -16 -34 -37 -28
-8 -14 12 -4 -16 -34 -39 -30
-8 -13 12 -3 -15 -33 -39 -31
-8 -12 11 -4 -15 -34 -39 -31
-6 -13 10 -4 -16 -33 -38 -31
-6 -13 10 -5 -15 -34 -38 -31
-8 -13 10 -7 -17 -36 -40 -32
-6 -12 10 -7 -17 -35 -39 -31
-5 -12 10 -7 -17 -36 -40 -31
-4 -10 11 -4 -15 -34 -37 -30
-6 -10 11 -4 -14 -32 -35 -29
-9 -14 11 -6 -16 -33 -37 -30
-10 -13 15 -5 -15 -33 -38 -32
-10 -12 17 -1 -12 -30 -36 -33
-11 -12 22 11 -3 -26 -34 -34
-12 -15 30 26 8 -20 -34 -37
-13 -20 33 38 18 -10 -28 -39
-12 -26 32 44 26 1 -18 -34
-5 -27 32 50 34 12 -5 -27
4 -25 31 64 51 31 14 -19
16 -20 29 84 72 56 39 -5
29 -14 26 98 94 84 71 16
47 5 31 113 124 120 111 44
61 25 34 114 145 155 152 73
65 40 31 88 150 181 190 102
74 57 21 48 142 203 231 135
90 74 3 -2 122 218 271 169
100 88 -24 -68 77 211 298 201
115 102 -63 -141 31 199 319 231
126 117 -105 -215 -10 192 337 257
131 129 -138 -273 -44 173 327 263
129 117 -158 -311 -79 133 278 241
120 77 -165 -332 -116 70 195 193
102 48 -161 -350 -157 7 119 147
70 29 -147 -360 -190 -42 58 107
37 7 -140 -361 -217 -91 -1 65
15 -13 -140 -359 -245 -145 -63 19
-23 -33 -124 -349 -271 -202 -127 -27
-61 -46 -103 -332 -289 -246 -175 -70
-76 -55 -97 -316 -282 -249 -186 -91
-78 -57 -99 -301 -263 -230 -177 -96
-78 -60 -96 -277 -239 -209 -164 -94
-68 -56 -85 -241 -211 -188 -149 -92
-57 -52 -76 -206 -182 -170 -137 -84
-49 -48 -69 -177 -158 -150 -124 -78
-46 -43 -60 -154 -136 -132 -110 -69
-38 -36 -50 -132 -117 -115 -96 -63
-30 -26 -37 -108 -95 -100 -83 -54
-26 -20 -23 -81 -72 -81 -72 -49
-19 -16 -14 -58 -54 -67 -61 -44
-18 -15 -8 -45 -44 -60 -58 -43
-15 -16 -2 -32 -33 -53 -53 -42
-11 -14 0 -26 -27 -49 -49 -42
-10 -14 5 -20 -23 -44 -47 -39
-8 -11 9 -12 -18 -40 -43 -37
-6 -10 11 -6 -15 -37 -42 -36
-6 -9 15 0 -11 -34 -41 -37
-4 -7 19 6 -6 -33 -38 -35
-4 -8 20 7 -3 -32 -39 -38
-8 -13 19 7 -4 -33 -39 -41
-11 -15 19 7 -2 -31 -39 -39
-10 -14 19 9 0 -28 -37 -39
-7 -10 17 10 -1 -29 -35 -38
-3 -5 19 12 1 -25 -32 -35
-5 -7 19 13 1 -25 -30 -33
-7 -9 18 12 0 -26 -31 -34
-7 -10 17 12 0 -28 -31 -34
-7 -10 19 16 3 -27 -33 -33
-5 -9 18 15 4 -27 -33 -33
-5 -10 21 16 5 -26 -33 -34
-2 -8 23 16 7 -24 -32 -31
-2 -7 23 17 8 -22 -30 -30
-3 -7 19 15 5 -22 -28 -31
-3 -6 19 16 6 -21 -27 -29
-7 -9 19 17 7 -21 -26 -26
-9 -11 17 16 6 -22 -27 -27
-3 -5 19 20 10 -20 -25 -26
-2 -6 22 21 10 -22 -25 -25
0 -6 21 19 9 -23 -27 -28
2 -5 22 20 10 -22 -25 -29
-2 -6 22 21 12 -20 -24 -27
-1 -4 23 21 14 -17 -23 -26
0 -4 21 19 12 -17 -21 -25
0 -5 20 19 10 -17 -20 -25
-2 -4 19 20 10 -17 -19 -23
-2 -4 19 20 10 -16 -18 -24
0 -3 18 22 12 -15 -16 -24
1 -2 23 26 15 -14 -17 -22
0 -2 22 25 16 -13 -17 -23
3 1 24 27 19 -10 -14 -22
0 -1 23 29 20 -8 -14 -21
-2 -4 21 25 18 -8 -15 -23
0 -3 19 23 15 -8 -13 -24
0 -3 19 23 15 -7 -13 -24
0 -2 18 24 16 -7 -14 -22
1 -2 17 25 17 -6 -12 -22
-2 -3 17 26 18 -7 -11 -21
-1 -2 18 29 20 -7 -12 -21
1 -1 18 31 22 -6 -11 -22
1 0 19 32 25 -3 -8 -21
1 1 22 32 27 -2 -7 -20
1 1 21 33 27 -1 -6 -17
5 4 20 33 27 2 -2 -14
5 3 20 34 28 5 0 -12
2 2 20 34 27 4 0 -11
4 2 19 36 27 4 -1 -10
4 1 19 38 31 7 1 -9
5 3 23 42 34 8 2 -8
9 9 22 46 37 11 3 -7
9 7 21 47 39 12 4 -8
10 8 21 48 40 12 4 -7
9 8 22 49 42 15 7 -5
7 8 19 51 43 18 9 -3
9 9 20 53 45 21 13 -2
8 8 18 54 44 20 13 0
10 9 16 57 46 22 14 0
15 14 16 60 49 23 16 1
17 15 18 66 54 24 17 3
18 17 18 67 56 27 17 2
20 18 16 68 58 28 20 2
20 19 17 71 61 33 24 4
20 20 18 74 66 38 29 7
21 22 16 75 67 41 32 9
23 23 14 76 69 43 34 12
23 23 11 79 69 44 35 13
25 24 10 83 74 47 38 16
32 30 12 86 77 52 43 18
32 31 13 90 80 53 45 20
31 31 14 91 84 56 48 20
31 29 12 91 85 58 50 20
29 29 10 91 85 60 51 22
33 32 11 93 89 65 55 25
35 36 8 93 90 67 59 29
36 35 6 93 90 68 62 30
41 39 6 94 91 70 63 34
43 41 5 97 93 73 65 35
44 44 5 98 96 75 68 37
45 45 6 100 99 76 70 39
45 45 4 100 98 78 71 38
45 45 3 101 101 80 72 42
47 47 3 100 101 82 74 43
46 48 2 100 101 85 76 45
47 50 1 98 100 85 78 46
45 49 -1 97 100 86 80 48
43 49 -3 95 98 86 80 49
44 51 -4 96 98 85 78 49
44 52 -2 96 98 85 79 52
41 49 0 94 97 83 78 50
43 48 -2 91 95 82 74 47
44 49 -1 93 95 81 76 47
43 52 1 90 96 81 77 48
43 50 2 89 94 80 74 46
43 49 -1 83 88 77 72 45
43 49 0 80 86 76 71 46
41 47 1 77 82 72 69 44
40 46 1 77 79 70 68 43
37 45 3 74 77 65 63 41
34 42 3 69 74 62 61 38
33 41 5 67 72 59 58 36
28 37 4 65 69 56 54 32
27 35 5 61 66 52 52 30
26 36 6 57 62 50 49 27
24 33 7 53 57 47 47 24
23 31 7 48 52 43 44 22
22 31 8 46 49 41 42 21
21 29 9 43 45 37 40 19
20 29 10 42 42 33 36 17
17 24 13 39 40 28 31 14
11 18 14 36 36 24 27 12
6 13 14 33 32 21 24 7
4 10 14 29 30 17 22 5
3 10 14 26 27 16 20 5
3 11 13 24 23 14 19 5
4 9 12 20 19 11 16 3
5 8 13 16 15 8 13 0
3 5 14 14 12 5 12 -1
2 5 15 14 10 2 10 -2
1 4 17 15 11 2 9 -3
-2 2 18 13 10 2 8 -3
0 2 17 13 8 1 7 -4
-1 0 16 9 7 -1 5 -7
0 0 17 8 5 -2 3 -8
1 1 17 6 3 -2 3 -8
-5 -3 15 4 0 -4 2 -10
-4 -4 15 4 -2 -6 0 -11
-4 -3 14 5 -2 -7 0 -11
-5 -5 11 1 -4 -10 -3 -11
-5 -5 12 2 -4 -10 -4 -14
-2 -2 15 1 -4 -10 -5 -14
-2 -2 16 1 -5 -10 -5 -14
-4 -4 18 0 -4 -9 -4 -13
-6 -6 15 -1 -4 -10 -6 -15
-7 -7 15 -3 -5 -11 -5 -14
-8 -8 14 -2 -6 -11 -5 -14
-9 -8 15 -3 -7 -12 -6 -15
-5 -5 15 -2 -7 -12 -5 -14
-7 -6 15 -2 -8 -12 -6 -15
-7 -9 14 -2 -8 -14 -7 -16
-7 -9 13 -3 -8 -14 -9 -17
-5 -7 12 -3 -9 -15 -9 -18
-5 -6 14 -3 -7 -14 -9 -18
-7 -7 13 -3 -8 -15 -8 -16
-8 -6 13 -4 -9 -15 -7 -15
-6 -4 13 -3 -9 -13 -5 -14
-8 -6 14 -4 -10 -13 -6 -13
-9 -6 14 -1 -9 -13 -5 -13
-10 -9 14 -2 -9 -14 -8 -13
-12 -12 13 -3 -13 -15 -10 -16
-13 -11 13 -2 -11 -15 -11 -15
-12 -11 12 -1 -12 -15 -11 -16
-13 -12 13 -2 -11 -14 -10 -15
-9 -10 13 -1 -9 -14 -9 -15
-9 -8 13 -1 -10 -13 -8 -13
-8 -7 15 -1 -10 -12 -7 -12
-5 -4 15 -2 -9 -11 -7 -12
-6 -5 15 1 -9 -11 -6 -11
-7 -6 15 0 -9 -12 -9 -12
-9 -8 16 1 -8 -13 -8 -11
-10 -8 16 1 -7 -12 -8 -13
-8 -8 16 2 -5 -12 -8 -12
-8 -8 13 2 -6 -12 -9 -14
-6 -6 14 1 -6 -11 -8 -13
-6 -3 13 1 -6 -10 -8 -13
-8 -5 12 0 -7 -10 -8 -11
-7 -4 14 -1 -7 -9 -8 -12
-6 -3 14 1 -7 -9 -7 -11
-7 -5 13 2 -7 -9 -7 -12
-7 -6 13 3 -6 -9 -8 -12
-11 -8 13 2 -5 -10 -10 -15
-9 -5 15 4 -5 -8 -8 -14
-4 -2 16 5 -2 -5 -5 -12
-6 -3 14 4 -2 -5 -4 -12
-6 -3 12 3 -3 -5 -5 -12
-5 -3 10 3 -4 -6 -5 -10
-6 -4 11 2 -4 -6 -5 -11
-6 -3 12 4 -3 -5 -3 -9
-5 -3 11 4 -4 -5 -4 -11
-6 -3 14 6 -2 -4 -4 -9
-6 -3 16 7 0 -4 -4 -10
-6 -4 14 7 -2 -5 -5 -13
-5 -2 16 8 1 -4 -3 -12
-5 -1 16 8 1 -4 -1 -11
-9 -2 13 5 -2 -4 -2 -11
-10 -3 12 6 -2 -3 -2 -10
-12 -6 10 4 -3 -4 -3 -10
-6 -2 9 5 -4 -5 -2 -11
-1 1 12 6 -1 -3 -1 -9
-3 -1 10 6 -1 -4 -2 -10
-6 -4 11 7 0 -3 -3 -11
-5 -3 11 8 0 -4 -2 -11
-5 -3 11 7 1 -4 -3 -11
-4 -3 10 6 1 -4 -2 -12
-4 -3 10 5 0 -4 -2 -10
-6 -3 10 7 0 -3 -1 -10
-6 -2 9 5 -1 -3 -2 -10
-8 -2 10 6 -1 -4 -1 -10
-8 -1 10 7 -1 -3 -1 -9
-7 -2 10 7 0 -4 -2 -10
-6 -3 11 7 0 -4 -5 -12
-5 -2 11 7 -1 -5 -5 -13
-7 -3 11 6 0 -5 -6 -13
-8 -4 10 6 -1 -6 -5 -15
-8 -3 10 5 -3 -6 -5 -15
-8 -5 8 4 -5 -7 -6 -16
-5 -2 8 3 -5 -6 -7 -16
-6 -3 8 4 -6 -9 -7 -16
-8 -5 8 5 -5 -8 -6 -16
-8 -5 10 7 -3 -7 -6 -15
-9 -6 10 5 -4 -8 -8 -17
-9 -7 10 6 -3 -7 -7 -16
-6 -5 9 4 -3 -7 -8 -18
-6 -4 10 4 -2 -6 -6 -17
-5 -2 12 5 -1 -4 -3 -15
-9 -5 10 4 -4 -5 -5 -15
-10 -6 8 2 -6 -6 -6 -18
-11 -7 9 4 -6 -6 -5 -17
-9 -6 10 3 -6 -7 -7 -19
-9 -5 11 4 -4 -6 -6 -18
-8 -5 12 4 -5 -7 -7 -21
-9 -6 12 4 -5 -7 -8 -20
-10 -6 11 3 -5 -8 -9 -22
-7 -4 12 3 -5 -8 -7 -21
-6 -2 12 4 -5 -6 -6 -20
-8 -3 9 3 -6 -7 -8 -20
-12 -6 9 2 -7 -8 -8 -21
-12 -7 8 2 -8 -9 -10 -22
-10 -6 6 2 -10 -12 -11 -23
-11 -8 7 3 -9 -12 -11 -24
-9 -6 8 3 -9 -12 -12 -22
-10 -5 10 4 -7 -10 -10 -14
-9 -4 9 3 -6 -9 -11 -13
-9 -2 11 3 -6 -10 -10 -13
-10 -4 11 0 -9 -11 -10 -14
-9 -4 11 0 -10 -11 -12 -14
-5 -1 11 1 -9 -10 -11 -13
-7 -2 12 1 -9 -10 -11 -12
-8 -4 13 1 -10 -11 -11 -13
-10 -5 13 1 -9 -12 -13 -14
-10 -6 12 1 -8 -13 -14 -17
-8 -5 12 3 -7 -11 -13 -15
-11 -6 11 2 -7 -11 -14 -16
-11 -7 12 3 -6 -11 -12 -16
-9 -5 12 2 -7 -10 -12 -16
-10 -5 11 2 -7 -10 -12 -15
-10 -5 12 3 -7 -9 -11 -13
-11 -7 12 3 -8 -9 -12 -14
-10 -8 11 3 -8 -10 -13 -15
-12 -10 11 3 -8 -11 -13 -16
-15 -13 10 2 -8 -13 -16 -20
-13 -11 12 3 -8 -11 -14 -18
-11 -7 12 4 -6 -11 -13 -17
-9 -6 12 4 -6 -12 -13 -17
-9 -6 10 4 -7 -12 -13 -18
-11 -7 10 3 -8 -12 -15 -16
-9 -5 11 2 -8 -14 -15 -17
-6 -1 13 3 -9 -13 -15 -17
-9 -3 14 3 -10 -14 -15 -16
-12 -6 14 4 -9 -14 -17 -17
-13 -8 15 4 -8 -14 -17 -17
-12 -8 13 3 -9 -14 -18 -19
-12 -8 12 3 -8 -14 -17 -18
-13 -9 12 4 -8 -14 -16 -18
-12 -9 10 1 -9 -14 -17 -19
-11 -8 9 0 -11 -15 -18 -19
-11 -8 9 0 -11 -16 -18 -20
-11 -7 9 2 -10 -14 -17 -18
-12 -7 9 1 -11 -16 -17 -18
-12 -5 13 5 -8 -14 -15 -17
-7 1 17 7 -4 -13 -14 -16
-8 2 17 8 -4 -11 -13 -16
-8 2 17 6 -3 -12 -13 -16
-9 2 17 7 -3 -12 -14 -16
-13 -1 17 6 -3 -10 -13 -16
-10 3 17 5 -4 -11 -14 -16
-11 3 18 5 -4 -10 -14 -17
-8 3 17 4 -6 -13 -15 -18
-6 5 17 4 -7 -13 -15 -19
-6 4 20 6 -5 -13 -17 -21
-7 5 22 6 -3 -12 -16 -21
-7 8 21 7 -2 -11 -15 -20
-9 7 21 8 -1 -11 -13 -21
-9 6 23 9 0 -11 -12 -21
-11 5 23 9 1 -10 -12 -20
-8 9 21 9 0 -9 -12 -20
-7 14 21 10 2 -7 -10 -17
-8 13 20 8 -1 -9 -10 -18
-8 13 19 7 0 -9 -9 -17
-6 15 18 7 0 -9 -11 -16
-9 11 14 2 -2 -11 -14 -20
-8 10 10 -2 -5 -13 -17 -22
-7 10 8 -3 -5 -14 -17 -24
-4 14 10 -1 -3 -13 -14 -23
1 20 13 1 -2 -10 -12 -20
0 20 13 1 -3 -11 -13 -20
-2 17 13 1 -3 -12 -13 -21
-6 13 11 1 -5 -12 -14 -21
-6 10 11 1 -5 -14 -15 -22
-1 12 9 1 -5 -14 -15 -22
0 12 10 2 -2 -13 -14 -21
-1 11 10 2 -3 -12 -14 -21
-2 10 9 2 -2 -13 -15 -24
-4 6 10 2 -1 -13 -15 -23
-3 7 9 2 -3 -12 -14 -22
-3 4 10 3 -3 -11 -13 -22
-6 -1 8 2 -6 -14 -16 -24
-6 -3 6 1 -9 -16 -20 -25
-8 -6 6 -4 -12 -19 -23 -27
-7 -7 7 -5 -13 -22 -26 -29
-7 -7 9 -4 -12 -21 -26 -28
-10 -8 11 -4 -12 -22 -28 -31
-11 -8 10 -6 -13 -25 -29 -32
-12 -8 12 -6 -13 -24 -30 -34
-15 -11 12 -6 -12 -24 -29 -35
-14 -10 11 -7 -12 -23 -28 -36
-14 -10 9 -8 -13 -25 -29 -35
-16 -13 8 -8 -14 -25 -31 -36
-18 -13 8 -8 -13 -26 -32 -36
-19 -13 9 -9 -15 -27 -32 -37
-16 -11 11 -9 -14 -27 -32 -36
-13 -7 12 -8 -14 -24 -31 -37
-14 -8 13 -7 -11 -24 -29 -36
-15 -9 12 -8 -12 -24 -30 -36
-14 -9 9 -8 -12 -24 -30 -36
-13 -10 9 -8 -13 -23 -30 -36
-11 -10 8 -9 -15 -25 -31 -37
-14 -10 8 -8 -15 -26 -32 -35
-12 -8 8 -7 -13 -24 -30 -37
-9 -6 9 -7 -13 -24 -31 -37
-15 -11 8 -6 -12 -25 -32 -38
-15 -10 7 -7 -12 -24 -32 -38
-14 -10 8 -6 -11 -24 -30 -38
-16 -12 8 -7 -13 -24 -33 -38
-17 -13 8 -7 -12 -23 -31 -38
-18 -13 8 -8 -13 -24 -31 -38
-16 -12 8 -7 -13 -23 -30 -37
-16 -10 7 -8 -13 -24 -31 -37
-18 -11 7 -9 -14 -24 -31 -37
-18 -9 11 -6 -13 -23 -31 -38
-21 -10 14 1 -7 -20 -31 -38
-22 -12 20 14 2 -15 -32 -43
-21 -14 25 29 14 -7 -28 -45
-18 -17 28 37 23 2 -21 -45
-14 -21 25 40 29 12 -10 -39
-7 -21 23 46 36 24 3 -32
4 -20 21 62 51 40 21 -22
20 -14 20 78 71 64 47 -4
36 -3 18 94 94 91 77 17
50 15 19 108 121 124 112 41
60 31 21 103 137 153 149 70
67 46 17 77 141 176 185 97
79 63 5 36 130 195 222 130
90 76 -17 -24 101 201 253 161
103 89 -48 -99 54 186 270 188
121 104 -87 -175 9 175 289 217
133 121 -130 -249 -33 161 296 236
132 123 -158 -302 -70 135 270 233
127 98 -169 -332 -106 84 209 199
115 63 -171 -353 -149 18 124 151
92 41 -162 -369 -184 -35 62 116
56 19 -152 -374 -210 -75 12 79
28 0 -151 -374 -234 -115 -38 41
3 -18 -145 -368 -255 -159 -87 3
-41 -34 -126 -353 -271 -198 -135 -39
-79 -48 -109 -333 -276 -222 -166 -72
-94 -57 -105 -317 -265 -215 -167 -82
-93 -59 -105 -296 -245 -198 -158 -84
-81 -53 -95 -260 -216 -178 -142 -79
-72 -50 -87 -225 -191 -160 -131 -75
-63 -46 -80 -193 -165 -144 -120 -69
-53 -40 -71 -166 -142 -125 -106 -63
-48 -36 -60 -143 -122 -108 -94 -55
-43 -28 -47 -120 -101 -92 -81 -48
-37 -20 -35 -92 -79 -73 -67 -41
-35 -17 -23 -68 -58 -58 -56 -33
-28 -11 -15 -51 -45 -47 -50 -30
-25 -10 -7 -38 -34 -39 -44 -26
-22 -10 -3 -26 -25 -32 -40 -24
-17 -8 0 -18 -23 -29 -37 -22
-15 -7 1 -13 -18 -26 -36 -21
-13 -7 2 -7 -16 -25 -37 -21
-12 -8 6 -3 -13 -23 -35 -20
-14 -10 7 1 -10 -23 -35 -20
-13 -8 8 4 -7 -21 -33 -19
-15 -9 10 6 -4 -19 -32 -18
-14 -9 13 9 -2 -17 -30 -15
-15 -9 14 10 0 -15 -29 -15
-16 -10 13 10 0 -14 -28 -15
-13 -7 11 11 -1 -15 -28 -14
-9 -3 12 13 1 -12 -26 -11
-10 -4 10 12 1 -12 -27 -13
-12 -5 11 13 2 -13 -27 -12
-12 -7 12 15 2 -12 -27 -12
-13 -7 12 15 4 -11 -25 -12
-9 -3 14 19 8 -9 -23 -10
-7 -1 14 19 6 -9 -24 -10
-7 -1 15 19 8 -6 -22 -8
-8 0 14 18 8 -7 -21 -7
-14 -5 15 19 7 -7 -20 -6
-16 -6 14 19 6 -9 -23 -5
-15 -6 13 20 8 -8 -22 -4
-10 -3 13 21 8 -8 -21 -4
-4 0 15 23 8 -7 -21 -1
-6 -3 15 22 9 -7 -21 -2
-8 -3 15 24 11 -5 -20 -1
-10 -4 16 25 11 -6 -19 0
-10 -5 15 25 12 -5 -18 1
-7 -2 14 24 12 -4 -17 2
-7 -3 16 25 12 -3 -15 3
-9 -3 15 25 12 -2 -15 5
-9 -3 15 26 13 -1 -16 4
-9 -3 14 25 13 -2 -17 4
-8 -3 16 27 14 -1 -18 6
-7 -2 16 25 16 0 -17 7
-10 -4 17 26 17 1 -16 7
-9 -1 18 27 18 3 -15 10
-10 -3 18 28 19 5 -14 11
-6 0 15 26 19 6 -13 11
-2 3 16 27 19 7 -12 13
-5 1 14 27 18 7 -12 13
-6 0 13 27 19 8 -11 14
-3 2 14 28 19 8 -11 13
-3 0 16 30 21 9 -11 16
0 3 18 31 23 12 -9 16
0 3 18 32 24 14 -8 16
-2 0 17 34 26 14 -7 17
-4 0 16 33 27 16 -6 18
-5 1 15 33 29 18 -4 20
-1 3 15 35 29 19 -3 21
1 6 17 36 30 20 0 24
3 6 17 37 31 21 1 23
5 7 17 40 33 22 2 25
2 4 17 43 34 23 3 25
1 6 19 45 39 26 5 27
4 9 20 47 41 30 8 29
6 11 19 49 43 31 10 31
6 12 19 50 45 33 12 32
3 10 18 51 46 34 13 32
6 11 18 53 46 35 15 35
8 13 15 54 48 36 16 36
6 13 15 57 50 38 18 37
7 14 13 59 50 38 19 38
5 11 13 62 52 39 21 40
6 11 13 64 54 41 24 41
13 19 16 68 59 45 29 44
13 19 15 69 60 46 30 46
11 17 13 70 61 48 32 47
16 21 13 73 64 51 36 50
17 22 12 75 65 53 40 52
16 22 12 78 68 56 43 55
19 25 11 80 70 58 44 56
21 26 12 83 72 59 47 58
24 27 11 87 76 63 50 61
24 28 10 88 78 65 52 63
26 29 9 89 79 67 52 63
26 30 8 91 81 68 53 64
26 30 7 91 82 71 56 66
30 34 7 93 85 74 60 70
36 38 7 95 87 76 63 74
37 41 6 96 88 79 66 78
38 41 4 96 88 79 66 75
39 42 0 97 89 79 68 77
40 42 0 98 91 81 71 78
42 43 1 99 91 83 72 80
43 44 1 99 93 85 75 82
45 48 1 99 93 87 76 83
46 51 -1 99 94 89 77 85
46 51 -3 97 95 89 80 86
49 54 -3 99 94 91 82 88
46 52 -3 96 93 90 81 89
44 49 -6 93 90 87 80 87
44 51 -5 94 89 87 80 87
44 50 -4 96 93 88 81 90
44 50 -4 93 91 88 82 89
42 48 -4 92 89 87 80 89
41 49 -3 89 88 85 79 89
45 52 -3 87 88 85 79 89
44 51 -6 84 85 85 79 88
40 49 -7 83 83 82 77 89
37 47 -6 81 81 81 76 88
34 45 -4 78 79 79 75 87
35 45 -3 75 77 76 72 84
33 41 -2 72 72 73 69 81
29 36 -1 71 71 70 68 78
28 35 0 67 68 67 64 75
31 39 3 66 68 66 63 75
29 36 2 63 66 64 61 74
26 35 1 58 60 60 57 71
20 32 2 55 56 58 56 70
20 30 3 53 54 55 53 68
15 26 3 49 50 51 49 65
11 23 4 46 47 47 45 62
7 20 6 45 45 45 43 60
7 19 6 44 45 44 41 58
11 20 7 41 43 41 39 56
8 17 6 37 39 38 36 53
5 14 5 32 35 33 32 50
6 12 8 29 32 31 30 48
3 11 8 26 28 29 28 46
4 12 9 26 27 27 27 44
4 13 11 24 23 26 25 43
2 10 9 21 19 22 23 41
0 7 9 19 19 20 20 39
-2 5 9 18 17 18 17 37
-6 1 11 17 17 18 16 35
-8 -1 11 14 16 16 15 34
-10 -1 12 14 15 15 15 33
-9 -1 13 13 13 14 14 32
-9 1 11 11 12 13 14 34
-7 0 9 9 9 10 12 32
-5 0 10 9 8 10 11 31
-8 -2 10 8 6 7 10 28
-13 -6 11 8 7 7 10 29
-10 -4 12 8 7 6 7 27
-11 -5 12 8 7 6 7 28
-14 -7 10 6 5 5 6 26
-15 -9 9 3 4 3 5 25
-15 -11 8 0 2 3 4 24
-12 -8 10 2 1 4 6 27
-9 -5 11 4 3 5 7 29
-9 -4 10 2 1 4 6 27
-10 -4 14 3 2 4 6 28
-10 -4 13 2 2 3 4 26
-10 -7 10 1 0 2 3 24
-10 -5 11 0 0 1 3 24
-11 -6 11 0 0 2 2 23
-10 -6 9 -1 0 2 1 21
-11 -7 8 -1 -2 2 2 22
-13 -9 8 -3 -3 0 1 21
-11 -10 8 -3 -4 -1 1 20
-11 -8 8 -4 -4 -1 0 20
-10 -6 9 -1 -2 -1 1 21
-13 -7 9 -1 -1 -2 -1 20
-17 -11 9 -1 -2 -2 -2 18
-16 -11 10 -1 -2 -2 -1 19
-13 -8 11 0 -1 -2 0 19
-12 -7 10 -1 -2 -2 0 18
-10 -6 9 0 -1 0 1 18
-12 -6 9 1 -1 0 2 18
-12 -8 7 0 -2 -1 1 17
-10 -6 6 0 -3 -2 1 16
-11 -7 8 2 -1 -2 1 18
-10 -6 8 3 0 -2 1 18
-10 -7 8 2 0 -3 -1 16
-11 -8 9 4 2 -1 0 17
-10 -7 10 5 2 -1 1 17
-10 -7 8 2 1 0 1 16
-8 -5 8 3 2 1 1 17
-7 -3 10 4 3 2 4 19
-9 -5 10 4 2 2 3 19
-11 -7 9 3 2 1 2 18
-14 -10 7 4 1 0 1 18
-15 -10 6 3 2 0 2 17
-13 -7 7 4 3 0 2 16
-15 -7 7 6 4 2 4 17
-16 -10 7 5 4 1 4 18
-14 -7 7 4 4 2 4 18
-15 -8 8 4 4 3 4 18
-12 -6 9 7 4 3 6 18
-12 -7 8 6 4 2 6 17
-13 -7 8 6 5 3 6 17
-12 -8 9 7 5 1 5 16
-15 -9 8 7 5 1 4 14
-10 -4 8 8 6 1 4 15
-8 -1 9 9 7 3 5 19
-9 -5 8 7 7 2 5 19
-7 -3 7 5 5 2 4 17
-7 -3 8 5 5 1 4 17
-7 -3 8 5 4 2 5 18
-6 -3 7 5 3 2 5 18
-8 -5 6 5 2 1 4 16
-9 -4 6 6 3 1 4 17
-8 -4 7 8 5 2 5 19
-10 -6 6 6 4 0 3 17
-11 -6 7 7 6 2 6 18
-12 -7 6 6 5 1 5 17
-12 -6 6 7 6 2 6 17
-9 -4 6 8 5 1 7 18
-8 -3 6 7 4 1 8 19
-6 -3 5 6 4 0 5 18
-6 -3 5 5 3 1 4 15
-7 -4 5 6 2 -1 4 16
