I II V1 V2 V3 V4 V5 V6
1 16 10 12 -7 -8 -6 -7
6 22 9 12 -9 -9 -7 -3
10 25 9 12 -9 -8 -9 -8
7 11 11 14 -5 -5 -6 -5
4 4 12 14 -5 -5 -4 -3
0 0 12 13 -6 -6 -6 -6
2 3 11 12 -8 -6 -6 -9
4 8 12 13 -7 -5 -2 -7
1 7 11 11 -8 -7 -6 -10
1 6 9 10 -10 -7 -4 -9
2 11 8 9 -14 -7 -7 -6
2 5 9 10 -13 -9 -10 -4
7 4 11 12 -10 -6 -5 -10
10 8 10 11 -11 -7 -7 -12
9 16 7 6 -14 -10 -13 -17
5 12 7 6 -14 -11 -14 -16
3 6 9 8 -13 -10 -11 -4
5 16 9 7 -15 -12 -11 -14
2 15 8 7 -15 -13 -11 -22
4 7 10 9 -16 -12 -9 -12
7 7 12 11 -14 -9 -8 -10
8 8 11 9 -15 -12 -12 -11
8 10 10 11 -14 -11 -11 -3
8 15 6 7 -18 -15 -13 -14
7 9 6 7 -16 -15 -11 -17
12 8 9 9 -13 -11 -9 -9
9 8 12 12 -10 -8 -4 -1
7 3 17 16 -6 -4 0 -2
5 3 17 15 -8 -5 -3 -1
5 5 15 14 -11 -7 -7 -3
9 21 15 14 -10 -7 -4 -8
8 22 17 16 -8 -7 -2 -1
11 17 20 19 -6 -5 -3 -2
11 16 22 20 -6 -5 -1 -3
8 18 20 16 -6 -7 -4 -5
10 26 19 15 -9 -8 -5 -8
14 38 16 14 -10 -9 -3 -8
13 51 9 9 -17 -16 -13 -16
15 48 14 12 -13 -11 -10 -13
17 28 24 23 -2 0 1 -4
11 23 21 21 -4 -1 -1 -1
12 25 16 16 -6 -4 -2 2
10 14 13 15 -6 -2 4 -3
8 12 8 11 -9 -4 0 -2
9 23 3 6 -12 -8 -7 -8
7 23 3 4 -14 -9 -10 -9
7 18 6 7 -11 -6 -6 -1
5 23 4 7 -12 -6 -5 -1
7 30 3 4 -14 -7 -4 -3
14 34 6 6 -9 -2 3 -1
11 29 4 5 -11 -4 4 -3
12 35 2 2 -13 -7 -2 -9
12 37 0 2 -14 -8 -5 -10
10 34 -1 0 -15 -9 -6 -6
10 30 -1 -1 -16 -10 -7 -6
14 26 1 2 -15 -8 -7 -5
21 31 1 4 -12 -5 -2 -4
20 33 3 5 -10 -4 1 -6
13 23 4 5 -12 -6 -3 -7
11 19 3 3 -14 -9 -3 -6
15 18 4 4 -13 -8 -5 -3
12 11 8 9 -9 -5 -5 -4
12 14 8 9 -10 -7 -10 -10
10 16 4 6 -14 -11 -11 -11
6 9 2 3 -18 -15 -14 -17
4 8 0 -2 -22 -17 -20 -20
4 1 1 -1 -21 -17 -15 -18
3 -12 5 2 -18 -17 -15 -18
-3 -13 5 1 -21 -19 -18 -23
-2 -16 6 1 -20 -18 -19 -20
8 -3 10 5 -17 -15 -15 -13
12 3 9 4 -19 -17 -18 -17
8 -2 6 0 -22 -19 -17 -14
4 -3 4 -2 -24 -21 -15 -22
2 -4 2 -4 -25 -23 -20 -23
1 -5 2 -3 -25 -22 -20 -23
3 -2 3 -3 -22 -21 -16 -20
2 -2 -1 -5 -26 -24 -23 -24
2 -2 -2 -6 -26 -25 -26 -24
2 -4 -1 -5 -26 -22 -22 -26
3 -5 1 -3 -27 -21 -20 -28
3 4 -2 -6 -29 -25 -24 -26
2 7 -4 -8 -31 -25 -29 -26
1 -3 -2 -4 -28 -25 -27 -19
-3 -13 -2 -2 -28 -26 -26 -23
-5 -15 -2 -4 -28 -26 -26 -29
1 -15 3 -2 -22 -21 -23 -22
1 -18 3 -1 -23 -19 -21 -24
0 -8 -1 -7 -27 -23 -21 -27
-1 -7 0 -6 -28 -22 -22 -27
-1 -10 0 -4 -28 -22 -23 -29
3 -7 1 -3 -25 -19 -20 -22
2 -13 2 -2 -23 -18 -20 -22
-1 -16 5 1 -21 -16 -19 -22
3 -4 4 -1 -21 -18 -23 -28
3 -4 2 -2 -22 -18 -23 -16
2 2 -3 -7 -26 -21 -25 -15
4 6 -5 -7 -28 -23 -26 -24
0 0 -5 -6 -27 -25 -29 -29
-3 -14 2 2 -22 -22 -29 -32
-4 -19 8 10 -20 -21 -28 -25
-5 -19 18 24 -13 -20 -29 -27
-3 -15 28 37 -4 -19 -31 -34
0 3 35 45 1 -20 -35 -40
0 15 43 55 11 -14 -31 -39
1 25 47 63 23 -1 -19 -22
5 23 57 80 42 16 -4 -8
12 35 65 95 55 29 9 0
15 52 67 100 62 37 17 7
16 66 68 108 73 48 31 18
26 75 70 118 91 72 57 40
31 80 60 104 101 91 79 60
45 90 28 64 100 109 101 82
63 101 -5 23 103 136 131 103
74 105 -36 -18 106 167 164 127
80 121 -74 -80 94 188 194 154
82 140 -109 -130 80 202 216 175
78 143 -131 -160 77 218 232 190
66 141 -137 -175 79 232 243 191
47 138 -139 -185 88 250 249 188
32 128 -143 -187 105 272 256 180
21 116 -149 -191 106 267 234 153
-1 76 -147 -191 76 204 161 100
-15 24 -137 -191 23 111 71 36
-29 -15 -132 -197 -48 21 3 -5
-32 -34 -126 -191 -96 -45 -44 -33
-30 -33 -114 -172 -109 -64 -55 -47
-25 -32 -99 -146 -100 -58 -51 -44
-16 -25 -87 -122 -92 -54 -52 -47
-11 -20 -76 -102 -82 -50 -51 -49
-13 -37 -60 -82 -72 -46 -47 -44
-8 -41 -43 -61 -60 -40 -38 -39
-6 -38 -33 -47 -53 -35 -35 -37
-6 -29 -28 -39 -50 -38 -38 -40
-1 -32 -19 -27 -43 -36 -35 -39
0 -31 -13 -19 -38 -36 -36 -38
0 -20 -12 -18 -37 -37 -39 -42
-2 -25 -5 -12 -31 -33 -35 -35
1 -27 -1 -8 -27 -29 -30 -28
3 -20 -1 -8 -26 -28 -26 -26
1 -31 5 -1 -20 -22 -21 -24
1 -30 8 2 -20 -22 -21 -22
4 -17 9 2 -20 -23 -22 -26
2 -11 7 0 -23 -25 -25 -23
0 -12 7 2 -22 -25 -24 -19
-4 -18 9 4 -19 -24 -20 -20
-7 -19 7 3 -20 -25 -17 -25
-3 -18 7 5 -17 -23 -22 -20
-5 -16 6 2 -20 -24 -24 -23
-3 -6 3 -2 -23 -27 -27 -26
0 0 5 0 -22 -26 -25 -22
-2 -1 6 0 -21 -26 -25 -19
0 -16 12 6 -16 -20 -16 -9
-1 -22 14 9 -13 -17 -16 -18
-5 -22 14 10 -13 -17 -20 -24
-1 -17 11 7 -15 -20 -22 -22
-3 -15 9 6 -16 -21 -21 -21
-5 -16 8 6 -15 -22 -19 -23
-1 -11 6 3 -16 -23 -23 -27
-4 -10 6 2 -16 -24 -25 -29
-5 -12 10 7 -14 -20 -22 -22
0 -8 13 9 -12 -17 -20 -13
-1 -5 10 6 -15 -21 -20 -28
-2 -9 11 7 -14 -18 -21 -25
-2 -10 11 8 -13 -17 -20 -25
-7 -17 11 9 -12 -17 -21 -21
-4 -8 8 5 -13 -20 -23 -17
-4 -9 9 6 -12 -18 -19 -21
-8 -12 7 4 -12 -19 -22 -21
-6 -18 9 7 -8 -14 -16 -14
-7 -21 12 11 -5 -10 -6 -15
-2 -14 10 9 -8 -11 -13 -14
6 -6 12 12 -5 -8 -13 -15
4 -9 12 13 -5 -8 -14 -18
1 -13 12 13 -7 -9 -14 -19
0 -6 8 10 -9 -14 -18 -21
-4 -1 7 6 -9 -16 -22 -18
-6 -12 9 8 -7 -15 -22 -23
-1 -18 12 11 -4 -11 -16 -20
3 -13 11 10 -4 -11 -14 -22
-2 -12 9 7 -7 -14 -19 -26
-4 -11 7 6 -8 -15 -16 -26
-1 -9 9 10 -5 -10 -15 -22
-1 -7 9 10 -4 -10 -18 -24
0 -4 9 10 -5 -11 -20 -25
1 4 3 6 -8 -15 -23 -26
-3 0 3 6 -7 -16 -20 -28
-6 -23 10 13 1 -8 -12 -12
0 -22 10 15 3 -4 -11 -4
3 -11 9 14 3 -5 -12 -12
1 -8 8 15 2 -5 -13 -15
1 -9 8 15 4 -3 -9 -9
-1 -18 8 16 3 -3 -6 -15
-1 -11 6 15 2 -4 -8 -15
0 -4 6 15 3 -4 -12 -15
1 -7 6 16 5 -2 -12 -18
-2 -14 8 17 8 3 -6 -13
1 -14 9 19 12 5 -5 -14
4 -13 11 21 14 6 -2 -15
3 -13 8 20 14 5 -5 -13
2 -15 7 20 15 7 -4 -7
1 -14 7 21 14 8 -4 -13
-1 -12 7 21 17 9 0 -11
4 -1 6 21 16 9 -5 -9
9 9 3 20 14 6 -7 -12
6 8 2 21 16 9 -4 -12
5 2 5 24 22 13 -3 -12
8 -4 9 29 30 19 6 -7
10 -3 7 29 32 22 9 -2
6 -9 4 28 32 24 12 1
5 -14 3 28 33 24 11 -1
9 -12 2 30 36 29 11 -1
5 -16 1 30 37 31 12 -3
1 -22 1 32 39 31 13 -1
3 -18 -1 30 38 30 13 6
1 -15 -5 28 37 29 12 4
5 -11 -8 28 39 31 16 3
8 -1 -11 26 38 29 13 0
7 4 -14 24 38 29 12 6
10 2 -15 24 39 31 16 -2
7 -9 -12 29 44 36 22 2
9 -17 -11 30 46 39 22 6
9 -12 -14 27 43 37 21 4
8 -14 -15 26 42 38 16 5
12 -14 -14 28 44 40 17 8
15 -10 -15 27 44 38 20 12
12 -13 -15 26 42 37 20 4
8 -20 -13 28 45 39 23 5
5 -28 -10 30 47 43 30 10
8 -26 -14 26 44 40 26 13
10 -18 -17 24 41 37 21 14
12 -12 -21 21 36 33 19 7
11 -7 -24 19 35 32 20 4
12 -13 -19 23 38 36 22 10
13 -12 -17 22 37 35 23 8
15 -10 -17 22 37 34 20 12
11 -16 -16 22 37 33 20 12
12 -12 -19 19 33 30 18 15
15 -8 -19 18 32 29 17 19
14 4 -24 14 27 24 12 6
11 13 -25 10 22 20 9 5
11 -8 -18 16 26 25 14 14
13 -19 -9 22 32 29 19 15
14 -17 -6 25 33 32 22 20
10 -20 -4 25 32 32 20 14
8 -15 -8 21 26 25 13 10
5 -11 -11 17 21 20 12 6
5 -13 -12 16 20 18 11 6
12 -10 -7 19 22 20 13 9
10 -9 -6 19 21 18 10 5
2 -9 -8 15 16 14 6 1
0 -2 -8 14 12 11 2 -1
0 3 -9 13 9 6 -1 -1
-1 -11 -5 16 11 8 4 5
-4 -16 0 17 13 10 5 2
-3 -12 -1 16 11 8 3 -5
-2 -9 2 17 11 8 4 -2
-8 -15 1 15 9 6 0 -5
-3 -4 4 16 10 5 -2 0
-2 6 3 13 8 4 -2 0
-5 0 2 10 4 1 -3 -2
-3 -7 5 11 3 3 -1 0
-4 -2 3 9 0 -3 -6 2
-5 -8 7 11 3 -1 -4 0
-7 -10 8 12 2 -1 -3 -1
-7 -4 7 10 1 -4 -7 -6
-3 5 8 9 1 -4 -7 -7
-2 -1 10 10 2 -4 -9 -5
0 -5 12 11 4 -1 -6 -2
-3 -9 11 10 2 -2 -8 -8
-8 -11 12 9 1 -4 -10 -7
-8 -13 14 9 0 -5 -11 -6
-7 -4 11 5 -4 -9 -15 -7
-6 1 8 2 -8 -12 -17 -5
-6 -6 10 5 -5 -9 -12 0
-6 -3 11 7 -1 -7 -13 -8
-8 -10 10 7 -2 -6 -8 -6
-6 -6 9 5 -3 -8 -9 -8
-7 -6 10 6 -1 -8 -12 -11
-4 -5 8 5 -1 -7 -12 -9
-6 -8 10 6 -1 -5 -10 -9
-8 -7 11 5 -2 -7 -11 -6
-6 -4 13 7 -2 -5 -9 -6
-6 -4 11 6 -3 -5 -8 -10
-10 -2 9 3 -7 -9 -10 -13
-9 -5 12 8 -2 -6 -9 -10
-8 -5 12 8 -1 -4 -10 -10
-7 0 11 7 -1 -5 -12 -8
-5 -1 14 10 3 -2 -8 -11
-8 -7 12 8 3 -3 -9 -11
-10 -5 10 7 0 -3 -10 -8
-13 -6 9 6 -1 -5 -10 -12
-15 -6 5 5 -4 -7 -13 -9
-9 2 8 6 -4 -7 -12 -8
-6 -9 14 13 2 1 -6 -4
-8 -14 14 14 5 5 -1 -6
-13 -10 9 9 1 -1 -4 -5
-16 -2 3 4 -4 -8 -13 -17
-11 3 6 7 0 -6 -10 -15
-11 -6 12 10 5 -1 -3 -10
-9 -5 12 11 3 -1 -4 -10
-7 -6 16 14 7 4 0 -6
-5 -2 17 16 8 5 0 -5
-2 7 12 13 4 1 -8 -10
-7 7 10 10 0 -2 -6 -17
-13 -11 13 12 3 0 -3 -13
-8 -18 16 17 8 4 2 -3
-9 -10 12 12 4 0 -2 -9
-7 5 8 7 0 -5 -7 -11
-8 8 8 6 0 -4 -6 -12
-13 -10 11 9 2 0 -5 -12
-14 -6 9 8 -1 -1 -5 -10
-9 -3 11 10 0 -1 -2 -8
-8 -1 10 10 1 0 -3 -8
-7 -1 9 9 -2 -3 -6 -11
-13 -8 7 7 -3 -5 -8 -11
-14 -13 7 7 -4 -6 -10 -12
-8 -15 12 10 0 -2 -8 -10
-12 -11 10 8 -2 -4 -8 -13
-11 -7 8 5 -3 -5 -7 -12
-9 -4 7 5 -4 -5 -6 -11
-7 4 6 5 -8 -7 -11 -12
-5 1 7 8 -7 -5 -5 -7
-7 -8 8 9 -6 -3 -5 -1
-8 -18 10 10 -5 -2 -6 -6
-8 -16 11 9 -6 -3 -7 -8
-8 -13 10 7 -7 -5 -11 -13
-9 -11 10 6 -8 -5 -9 -12
-13 -7 6 2 -11 -8 -11 -5
-16 -13 4 1 -13 -10 -13 -11
-18 -21 5 2 -13 -9 -12 -15
-18 -14 2 -2 -17 -12 -14 -18
-16 -5 0 -3 -19 -15 -17 -15
-12 -3 4 0 -16 -12 -16 -11
-10 -1 2 -2 -18 -12 -14 -15
-7 -4 3 1 -15 -10 -10 -13
-2 -9 6 5 -12 -7 -7 -12
-7 -15 7 4 -11 -8 -9 -14
-10 -24 7 3 -11 -8 -12 -14
-9 -15 3 0 -14 -11 -11 -10
-13 -11 4 -1 -16 -12 -14 -11
-14 -11 6 1 -15 -11 -15 -18
-10 -16 9 5 -12 -7 -10 -13
-10 -17 8 5 -12 -7 -10 -6
-10 -11 9 5 -12 -7 -9 -11
-11 -7 7 4 -13 -10 -12 -6
-12 -10 9 5 -11 -8 -9 -5
-12 -16 10 6 -10 -7 -8 -8
-6 -12 6 4 -12 -10 -11 -11
-4 -2 6 4 -11 -9 -11 -8
-6 -5 5 3 -12 -10 -11 -14
-6 -7 8 6 -10 -7 -7 -10
-7 -3 11 7 -9 -6 -8 -14
-10 5 13 8 -9 -5 -7 -13
-8 14 13 8 -9 -6 -7 -8
-15 10 16 9 -6 -5 -6 1
-20 10 16 10 -5 -3 -3 -2
-20 9 23 15 0 2 5 -2
-23 7 24 15 1 1 -1 -1
-19 7 29 18 3 3 2 2
-19 6 24 16 0 -1 2 -3
-18 2 25 18 1 2 4 -1
-14 6 24 19 2 2 2 -1
-13 6 24 18 -1 0 1 -2
-15 5 19 12 -6 -6 -3 -8
-9 9 19 11 -3 -3 -4 -2
-7 12 13 7 -5 -3 -4 -1
-9 21 7 3 -8 -4 -4 0
-6 19 7 5 -3 -2 0 -1
-9 13 6 4 -4 -1 0 -1
-4 19 4 2 -7 -2 1 4
-3 26 4 2 -8 -2 1 -2
-3 24 3 2 -6 -1 2 -2
-3 19 6 5 -4 2 4 1
-3 5 6 6 -3 3 4 10
-5 7 5 5 -3 1 4 5
-4 3 4 4 -3 1 8 1
0 3 7 7 0 2 12 4
6 9 7 7 -1 1 10 8
6 8 5 6 -3 -1 4 9
5 8 3 4 -6 -3 2 3
7 14 1 2 -7 -4 0 5
4 16 0 1 -11 -8 -2 -2
4 17 -1 0 -13 -10 -3 -6
1 23 -1 -1 -13 -12 -5 -10
-2 19 -1 -2 -15 -12 -7 -11
-2 1 5 4 -9 -8 1 -8
-4 -9 6 4 -7 -7 -1 -9
-7 -14 5 3 -8 -10 -3 -8
-4 -12 4 2 -10 -11 -2 -13
-7 -10 3 -1 -13 -13 -7 -13
-6 -9 1 0 -15 -14 -11 -15
-7 -17 3 3 -15 -14 -11 -11
-10 -17 3 -1 -16 -14 -12 -18
-6 -14 3 -1 -17 -15 -11 -17
-8 -21 5 -1 -16 -16 -13 -18
-10 -28 5 -2 -16 -16 -13 -21
-13 -21 4 -4 -18 -18 -14 -21
-12 -18 2 -7 -20 -21 -17 -19
-12 -18 0 -6 -19 -21 -17 -19
-13 -19 1 -4 -19 -19 -16 -13
-11 -20 3 -3 -18 -17 -16 -16
-6 -10 3 -4 -19 -18 -16 -14
-16 -18 1 -5 -21 -19 -16 -14
-16 -22 0 -7 -22 -21 -18 -16
-10 -18 5 -4 -18 -19 -19 -17
-11 -28 6 -1 -15 -17 -14 -13
-11 -23 3 -3 -17 -20 -12 -20
-11 -20 -1 -8 -22 -26 -18 -29
-9 -23 1 -5 -20 -22 -18 -21
-9 -25 2 -2 -17 -19 -13 -19
-12 -20 -1 -6 -19 -21 -16 -23
-8 -16 1 -5 -20 -20 -15 -20
-8 -16 1 -4 -19 -20 -14 -16
-12 -20 0 -5 -18 -19 -16 -18
-15 -19 -1 -7 -20 -20 -15 -20
-13 -20 -1 -5 -19 -20 -13 -15
-9 -17 0 -5 -17 -18 -16 -16
-8 -21 0 -5 -16 -18 -16 -16
-4 -19 1 -3 -16 -18 -13 -10
-1 -10 -1 -5 -18 -21 -13 -15
-4 -12 1 -5 -18 -19 -15 -19
-9 -18 2 -4 -18 -19 -14 -13
-12 -17 2 -2 -18 -21 -17 -23
-12 -16 3 1 -17 -23 -23 -22
-11 -16 12 14 -9 -20 -23 -28
-8 -16 25 32 3 -14 -21 -31
-7 -15 32 42 9 -14 -26 -30
-10 -11 40 52 16 -12 -24 -25
-16 -11 47 61 27 -1 -14 -15
-16 2 52 71 38 9 -4 -15
-8 12 59 85 52 22 7 -7
-1 25 67 97 64 34 22 12
3 42 71 104 74 45 34 23
14 61 69 111 86 59 50 30
26 81 65 108 99 79 68 43
37 92 48 82 105 102 93 66
47 93 14 41 107 126 123 93
61 90 -20 2 111 157 156 120
70 102 -54 -51 106 184 190 155
72 116 -92 -110 91 201 218 178
72 131 -121 -150 81 216 236 196
67 138 -135 -172 82 232 252 202
50 134 -135 -180 88 248 260 200
31 137 -144 -193 94 264 261 194
19 126 -150 -195 107 277 257 178
6 103 -151 -196 97 251 215 145
-9 53 -139 -191 58 171 132 85
-26 0 -129 -194 -5 78 57 32
-35 -27 -127 -197 -70 -7 -7 -12
-34 -38 -118 -183 -100 -52 -40 -33
-32 -39 -102 -157 -100 -56 -42 -41
-30 -36 -89 -134 -90 -51 -42 -37
-27 -36 -80 -115 -82 -50 -41 -35
-21 -43 -69 -97 -76 -50 -39 -39
-20 -50 -53 -78 -66 -44 -34 -38
-19 -53 -40 -63 -57 -39 -30 -38
-16 -50 -31 -48 -50 -38 -31 -35
-10 -44 -22 -35 -44 -35 -28 -29
-11 -45 -16 -25 -39 -35 -27 -26
-9 -42 -10 -18 -34 -36 -27 -32
-8 -30 -10 -17 -34 -37 -31 -34
-6 -19 -10 -17 -32 -37 -32 -32
0 -13 -5 -13 -26 -31 -26 -32
1 -18 -1 -9 -21 -27 -16 -27
-4 -25 3 -7 -20 -24 -16 -24
-8 -30 7 -2 -16 -20 -17 -26
-9 -26 7 -1 -17 -21 -18 -23
-8 -15 6 -2 -20 -23 -19 -19
-10 -14 7 -2 -19 -23 -19 -23
-10 -13 7 0 -17 -23 -18 -21
-8 -13 6 -1 -17 -24 -18 -21
-10 -23 5 -2 -17 -24 -19 -27
-5 -28 10 3 -12 -18 -14 -19
1 -23 12 5 -10 -17 -11 -16
-7 -18 10 2 -13 -18 -12 -11
-9 -15 8 0 -15 -20 -10 -9
-13 -20 7 1 -16 -20 -12 -20
-12 -22 9 3 -15 -19 -14 -21
-10 -21 12 4 -13 -18 -13 -21
-4 -11 12 5 -12 -18 -10 -19
-1 1 8 1 -16 -22 -12 -15
-3 5 4 -3 -18 -26 -18 -25
-5 -7 9 1 -12 -19 -13 -23
-5 -29 14 7 -7 -15 -9 -19
-4 -31 15 7 -6 -14 -10 -20
-4 -25 13 7 -6 -14 -13 -12
-6 -28 13 8 -5 -13 -11 -11
-11 -22 9 5 -10 -17 -11 -18
-7 -16 10 6 -8 -16 -13 -22
-2 -11 8 6 -8 -18 -15 -20
-7 -18 9 4 -9 -18 -16 -21
-5 -17 10 4 -7 -15 -15 -20
-7 -23 14 8 -2 -9 -7 -13
-11 -28 13 9 -1 -10 -5 -9
-9 -18 14 8 -1 -9 -8 -16
-10 -11 13 9 0 -7 -5 -17
-11 -9 11 9 -2 -8 -6 -18
-12 -11 9 6 -5 -12 -9 -18
-14 -12 9 5 -6 -12 -13 -17
-9 -11 8 6 -5 -13 -14 -18
-5 -20 14 11 1 -5 -5 -9
-7 -32 17 13 4 -4 -1 -9
-9 -24 14 10 1 -7 -6 -15
-12 -11 9 6 -3 -12 -12 -20
-9 -12 14 9 1 -7 -7 -15
-8 -17 17 13 5 -3 -4 -9
-8 -13 15 13 3 -4 -5 -12
-6 -6 14 13 3 -6 -7 -5
-5 -8 15 16 3 -3 -4 -8
-8 -16 16 16 6 -2 0 -11
-7 -17 16 15 7 -1 1 -11
-6 -11 14 11 5 -5 -4 -15
-6 -16 14 12 6 -3 3 -12
-5 -15 13 12 7 -3 -2 -13
-4 -13 14 13 8 -1 -3 -7
-1 -7 13 14 8 -1 -2 -8
-2 -10 13 17 11 3 4 -9
-1 -13 14 17 12 4 3 -12
1 -5 11 15 11 3 -2 -7
0 -6 14 19 14 5 2 -5
3 -8 16 20 17 7 3 -8
2 -12 15 21 18 7 4 -8
1 -10 14 19 18 7 5 -4
0 -11 13 18 18 8 6 1
-2 -17 12 19 19 10 6 0
-2 -17 13 20 22 13 7 -2
-2 -19 14 23 24 14 7 5
3 -17 17 27 30 18 11 14
5 -7 12 24 26 15 10 -2
5 -6 10 22 28 16 13 -5
1 -13 8 24 29 19 12 1
-2 -19 7 23 32 21 14 4
-2 -16 4 22 33 24 14 2
2 -5 1 20 33 25 14 1
5 -6 1 22 35 27 16 5
5 -12 2 25 39 32 24 5
8 -1 0 23 38 31 20 2
8 -10 3 27 42 35 24 4
7 -25 6 32 50 44 29 9
10 -14 2 28 49 41 29 6
11 -13 1 28 50 41 28 7
16 -14 3 31 53 44 29 8
16 -16 3 32 55 47 31 17
16 -13 -1 29 53 45 33 14
18 1 -7 25 49 43 30 7
17 -1 -7 25 51 45 33 14
13 -13 -6 28 53 46 32 20
17 -13 -7 27 51 46 33 15
17 -14 -7 29 54 50 35 16
17 -14 -6 29 56 52 37 20
18 -15 -6 28 55 52 37 20
18 -12 -9 26 53 50 39 17
18 -9 -12 24 54 48 39 23
20 -13 -9 25 55 50 42 28
20 -15 -7 27 55 50 40 22
19 -8 -11 23 50 44 37 17
18 -10 -15 19 46 41 33 13
19 -10 -12 21 48 43 37 17
17 -19 -9 24 50 47 41 23
14 -22 -9 22 48 44 37 23
17 -13 -10 20 46 41 35 21
15 -4 -11 18 43 39 29 14
15 -4 -10 18 44 38 32 14
19 -8 -9 19 44 38 29 13
17 -7 -7 20 45 39 35 18
18 -2 -6 20 43 37 33 24
15 -9 -5 20 41 37 27 20
14 -15 -4 20 39 36 29 19
18 -7 -3 21 38 38 29 16
17 -11 -4 19 36 35 26 11
12 -11 -8 15 32 29 27 8
9 -8 -5 16 30 27 25 9
11 -4 -5 17 30 27 26 23
15 0 -1 19 32 27 27 21
11 -6 2 20 32 28 25 20
8 -9 1 20 29 24 22 13
11 0 1 19 25 21 19 8
14 1 5 22 25 20 18 4
7 -1 4 20 23 18 19 7
10 0 8 21 23 17 21 12
5 -7 7 19 23 16 18 11
8 -5 10 20 22 14 13 4
10 -4 14 23 24 18 16 11
8 0 12 19 21 15 14 15
11 11 11 17 18 13 13 12
7 15 11 15 15 8 8 8
6 15 10 14 13 7 6 2
10 16 11 13 12 5 5 4
8 18 11 11 9 1 3 0
5 3 16 15 13 2 5 2
4 -6 19 17 15 4 6 3
4 -4 17 12 11 1 3 1
6 3 17 12 9 -1 2 0
4 7 16 8 6 -7 -1 -6
-1 5 15 6 3 -9 1 -6
3 3 15 7 3 -9 -2 -7
2 -4 16 9 5 -8 1 -5
2 5 14 7 2 -10 4 -4
0 10 13 6 1 -11 7 -10
3 7 18 9 6 -7 4 -5
4 6 17 9 6 -6 2 3
2 -3 17 10 5 -7 2 0
4 3 19 10 6 -5 3 0
3 6 17 9 5 -7 5 0
-6 -10 17 8 3 -9 -1 -4
-2 -11 20 11 6 -7 2 -2
4 7 19 10 4 -8 0 -6
3 13 17 8 2 -12 -5 -6
1 11 19 10 2 -10 -4 -4
-2 3 22 13 7 -5 4 -3
1 -2 20 14 8 -3 4 1
4 4 19 15 9 -3 13 -1
2 8 18 13 8 -3 7 2
0 7 18 12 8 -2 6 -4
-2 5 16 11 6 -5 -1 -14
-3 -6 18 14 7 -4 1 -8
1 -4 20 16 9 -1 5 -6
6 -1 21 17 11 -1 10 -4
6 0 20 17 9 -1 4 7
5 9 18 15 7 -5 1 -5
6 17 17 14 4 -7 1 -7
8 15 19 16 9 0 5 -6
4 6 20 18 12 3 10 -3
3 6 18 15 10 -1 8 -2
7 9 16 16 9 0 11 2
4 8 13 13 7 -2 4 -2
3 10 16 17 10 1 7 1
1 3 21 19 13 2 13 7
-2 -5 20 18 10 1 10 6
1 -3 21 19 12 1 9 6
3 5 18 17 8 -1 1 3
0 12 15 14 6 -3 -2 1
4 16 15 14 7 -5 -1 0
5 11 16 15 10 -3 2 10
4 11 15 15 8 -2 3 8
3 5 17 15 8 -2 -1 -3
4 7 17 17 8 -2 0 -3
8 9 17 18 7 -2 4 4
6 14 16 16 6 -2 4 7
3 9 15 14 7 -2 1 5
4 4 15 15 6 -2 1 8
1 2 13 10 4 -5 -2 -5
2 2 14 12 6 -4 0 -4
5 9 14 12 5 -4 -1 -2
4 5 13 12 4 -4 -2 -5
8 15 13 10 1 -7 -2 -5
9 21 13 10 -2 -8 0 0
7 15 14 13 -1 -8 0 -2
9 10 17 16 2 -4 2 -2
3 -6 21 17 5 -2 1 -1
0 -5 19 14 3 -5 0 -1
2 5 14 10 -1 -10 -5 -2
3 9 12 9 -2 -10 -6 9
7 18 12 8 -2 -10 -1 1
7 11 10 5 -5 -12 -6 -8
6 17 9 3 -9 -14 -8 -8
7 15 14 7 -5 -11 -6 -4
10 11 14 8 -4 -10 -5 -1
11 9 14 8 -5 -10 -4 -2
6 -5 16 10 -3 -9 0 2
7 -6 18 11 -3 -6 -1 2
11 2 17 12 0 -6 1 6
14 5 18 11 0 -5 4 4
13 10 14 9 -2 -7 0 -3
8 12 14 9 -3 -6 -3 2
6 6 18 11 -1 -5 -3 2
8 7 21 13 0 -4 -1 -2
9 14 22 14 2 -4 5 3
9 24 19 12 -2 -7 2 2
7 28 17 9 -3 -10 -4 -5
4 15 19 12 -1 -9 -4 -4
8 8 24 17 3 -5 2 3
8 14 24 15 1 -6 0 3
2 11 23 14 0 -9 -2 4
2 10 22 13 -3 -11 -4 1
2 23 19 10 -6 -12 -6 -2
6 27 22 13 -2 -7 -4 1
9 18 28 21 5 1 3 10
7 18 25 18 3 0 1 8
3 17 22 14 1 -1 2 8
9 10 23 17 6 4 10 13
10 16 16 11 3 3 15 10
8 22 11 6 -1 -1 9 5
7 26 7 4 -4 -5 5 0
5 21 8 5 -3 -1 6 2
8 26 13 8 1 3 8 13
9 33 10 5 -3 -1 6 11
10 38 9 6 -3 -1 6 10
10 38 5 4 -4 -3 5 7
10 31 4 3 -5 -5 4 9
15 31 5 5 -6 -5 2 14
17 34 5 3 -6 -7 -2 8
17 32 6 5 -4 -5 4 1
14 34 4 3 -7 -8 5 -1
12 32 0 1 -10 -8 2 2
13 29 3 4 -6 -4 4 6
14 23 8 10 -3 0 5 6
8 17 7 8 -5 -3 4 5
8 11 9 7 -5 -4 3 9
10 8 12 10 -3 -3 -1 6
7 6 12 10 -4 -5 -2 5
9 9 11 8 -7 -9 -6 7
7 6 11 6 -9 -10 -7 1
2 1 6 2 -12 -15 -14 -4
4 13 0 -4 -20 -19 -16 -8
0 23 -4 -6 -24 -22 -20 -9
-4 10 0 -2 -20 -21 -18 -13
-5 -21 8 5 -13 -13 -7 -7
-3 -24 11 5 -12 -12 -6 -1
-3 -17 10 4 -15 -13 -10 -5
-4 -17 10 2 -18 -17 -14 -8
1 -12 11 3 -16 -14 -10 -8
3 -8 10 2 -15 -14 -11 -3
3 -4 6 0 -18 -19 -16 -8
1 -4 5 -2 -20 -19 -15 -15
2 -11 9 1 -17 -17 -9 -11
0 -15 9 1 -17 -16 -12 -8
2 -5 6 -1 -19 -19 -18 -14
2 -2 4 -4 -22 -22 -20 -17
-2 -9 6 -2 -20 -21 -19 -13
-6 -11 4 -4 -23 -23 -21 -19
-10 -16 3 -5 -24 -24 -22 -16
-3 -13 5 -3 -21 -21 -19 -17
6 2 4 -3 -21 -22 -19 -15
8 7 4 -1 -19 -18 -18 -13
6 -1 5 -1 -19 -18 -17 -12
2 -10 6 -1 -19 -18 -18 -10
6 -12 7 1 -17 -16 -16 -9
5 -16 8 1 -17 -17 -17 -5
1 -15 7 -1 -19 -20 -17 -7
-2 -16 6 -1 -19 -19 -18 -12
-2 -16 5 -2 -19 -20 -21 -12
-2 -11 4 -4 -21 -21 -22 -5
0 -10 5 -2 -18 -19 -19 -7
-1 -13 5 -1 -16 -15 -12 -10
2 -9 6 -1 -17 -16 -17 -13
2 -9 6 0 -17 -18 -16 -9
3 -1 6 2 -19 -19 -17 -8
3 -2 11 9 -14 -17 -15 -9
0 -17 18 19 -9 -16 -16 -12
-2 -18 27 32 -1 -15 -20 -23
-3 -17 36 46 8 -13 -24 -22
-5 -7 40 51 12 -16 -27 -23
-6 6 42 56 19 -10 -24 -26
-2 24 45 64 30 2 -13 -18
4 30 54 80 46 15 -3 -4
10 32 63 96 60 28 9 8
13 44 70 101 68 39 22 23
23 59 72 112 82 57 42 40
27 73 67 112 94 74 60 54
31 90 48 87 95 90 81 70
43 99 14 44 95 116 109 90
59 99 -15 10 104 153 150 120
71 109 -43 -31 108 190 194 162
72 124 -81 -95 89 211 224 185
67 123 -110 -140 76 228 243 199
63 126 -128 -166 74 245 258 210
47 134 -129 -179 75 260 265 213
29 141 -131 -190 81 276 272 211
21 145 -139 -194 93 295 275 200
7 126 -143 -198 82 274 243 166
-8 81 -136 -199 43 195 158 103
-21 32 -123 -197 -16 99 72 46
-30 -8 -116 -196 -84 -1 -1 9
-31 -22 -108 -183 -119 -59 -43 -24
-29 -21 -100 -161 -120 -70 -52 -33
-25 -23 -89 -134 -107 -62 -46 -37
-20 -25 -79 -111 -96 -56 -44 -33
-15 -30 -66 -92 -82 -50 -38 -28
-9 -37 -50 -70 -69 -42 -35 -31
-6 -40 -36 -53 -58 -38 -31 -26
-2 -34 -26 -40 -50 -36 -29 -28
1 -34 -16 -26 -44 -32 -29 -26
2 -35 -11 -16 -38 -33 -31 -25
7 -30 -6 -9 -34 -34 -30 -25
6 -28 -5 -6 -31 -34 -32 -25
2 -27 -2 -6 -29 -33 -32 -23
2 -13 -2 -8 -29 -32 -30 -26
7 -4 0 -6 -26 -30 -27 -24
10 5 3 -3 -25 -28 -23 -15
12 2 12 5 -17 -21 -16 -9
10 -1 14 6 -15 -18 -16 -6
8 5 12 5 -17 -20 -18 -6
11 6 14 8 -14 -18 -16 -4
8 -4 17 12 -11 -17 -13 -11
7 -9 17 12 -9 -16 -10 -1
7 -5 15 11 -9 -16 -10 -4
3 -13 14 11 -10 -16 -15 -9
5 -12 14 10 -10 -17 -13 -4
5 -9 17 13 -8 -15 -10 -6
4 -6 16 12 -8 -14 -8 -7
6 -3 18 13 -9 -13 -9 -8
4 -6 20 15 -7 -13 -9 -3
4 -4 20 15 -8 -13 -12 -1
11 2 20 14 -7 -15 -12 -3
10 2 20 13 -9 -16 -15 -10
9 2 22 14 -6 -15 -14 -6
6 3 15 10 -10 -17 -17 -4
-2 0 11 6 -12 -20 -19 -12
-3 -5 15 9 -10 -17 -18 -9
4 -6 20 14 -5 -11 -9 1
4 4 16 12 -9 -13 -9 -5
3 11 12 9 -11 -16 -15 -5
3 16 12 10 -11 -16 -17 -13
10 9 20 16 -3 -9 -9 -6
9 -1 22 20 1 -5 -4 3
4 -5 20 18 1 -7 -4 0
0 -10 20 17 0 -5 -6 -3
0 -10 17 15 -1 -6 -7 -7
2 -1 15 14 -4 -7 -6 -10
1 -2 19 17 -3 -8 -5 -7
-3 -12 20 19 -3 -6 -5 -2
-2 -2 20 18 -2 -9 -8 1
-3 3 17 17 -4 -10 -10 -5
-1 -4 22 20 0 -9 -9 -6
3 -4 22 22 4 -4 -4 1
-2 -3 20 20 3 -5 -3 -1
-2 7 18 18 3 -4 -2 -5
3 6 19 17 3 -3 -5 -4
4 2 19 17 3 -3 -5 -8
8 6 21 20 4 0 -5 -4
13 7 20 20 5 1 -3 -2
11 3 19 19 3 -4 -7 2
9 5 18 18 2 -5 -10 -3
8 16 15 15 0 -8 -11 -5
8 20 14 15 1 -7 -10 -7
10 7 20 22 9 -1 -3 -7
11 1 20 22 9 1 -5 -3
13 6 17 21 9 -1 -6 1
12 6 14 20 8 -1 -7 1
8 9 16 21 8 0 -3 -7
9 16 14 19 7 -2 -5 -9
6 16 15 20 8 -1 -5 -7
3 10 17 22 9 1 -4 -1
4 5 19 26 15 6 0 0
2 5 17 24 15 6 3 1
3 10 16 23 17 6 3 1
1 7 17 25 19 9 8 4
-1 -10 20 30 26 16 15 10
5 -13 21 34 29 21 14 9
9 2 21 32 27 18 11 12
10 10 15 27 24 15 5 7
3 5 12 25 21 13 4 1
0 -1 11 27 23 15 7 8
1 -2 13 28 26 18 9 5
0 0 12 29 28 20 9 2
-2 -3 14 32 35 25 14 3
0 -9 15 34 38 28 14 11
4 -11 15 35 42 32 22 13
9 -9 14 37 44 34 27 12
6 -8 10 36 44 35 21 13
3 -3 5 33 41 33 23 8
7 2 5 33 43 35 23 8
7 -5 6 36 45 38 26 9
5 -12 4 36 47 40 26 17
11 -12 3 37 51 42 28 20
14 -3 1 35 50 42 25 13
14 -7 1 36 51 43 24 25
13 -3 -2 34 52 42 26 25
14 0 -2 35 53 44 29 23
16 -5 -2 37 55 47 35 22
16 -12 -1 38 57 48 33 25
16 -8 -2 38 55 48 32 22
18 -7 0 39 57 50 34 22
15 -11 -2 37 57 49 35 26
17 -6 -6 34 53 45 34 19
21 -6 -8 33 53 44 32 23
20 -10 -9 30 50 43 31 19
19 -7 -11 29 49 40 30 22
20 -2 -11 28 47 38 26 26
17 -2 -12 28 46 39 29 21
16 -1 -12 28 44 38 30 20
15 -12 -8 31 47 41 34 27
18 -10 -8 31 47 40 30 29
17 -8 -8 28 45 39 30 24
19 -1 -9 26 42 35 30 14
21 2 -9 26 41 34 33 19
16 -5 -10 25 40 33 28 23
16 -1 -10 22 37 30 24 17
20 4 -9 23 36 30 25 15
17 -6 -7 24 36 30 23 21
12 -16 -5 25 35 28 24 20
11 -11 -4 24 31 24 25 17
11 -5 -6 24 29 22 21 18
16 3 -4 24 29 22 21 20
18 -1 -2 26 31 24 25 23
18 7 -2 25 30 22 24 24
18 12 2 26 30 22 24 22
13 2 5 26 28 21 26 17
14 6 3 26 26 18 21 20
11 11 4 25 22 17 14 14
8 7 6 24 21 15 15 13
6 -4 11 29 23 16 17 12
2 -4 12 28 20 13 15 11
2 1 13 27 21 12 15 12
4 1 11 25 18 9 14 7
3 2 9 22 15 4 9 2
2 10 9 21 14 3 6 9
3 14 9 20 13 2 3 13
5 20 10 18 9 -2 -1 6
1 13 12 19 8 -2 0 12
-4 17 9 16 3 -7 -1 1
0 21 12 16 2 -8 0 2
2 9 19 22 8 -3 4 4
-3 -3 22 22 10 -1 8 4
0 1 23 21 9 -2 5 2
0 3 22 20 9 -3 0 12
2 4 21 19 9 -3 0 17
5 6 22 18 9 -2 0 5
2 0 18 15 5 -5 -2 -3
-1 7 17 13 3 -7 -5 0
-9 5 17 13 0 -9 -6 1
-9 1 17 13 -1 -10 -5 -3
-3 3 22 16 2 -7 -2 -2
-1 3 22 16 4 -6 -4 -3
-5 -2 21 15 4 -5 0 3
-6 -1 20 16 5 -5 0 3
-6 -2 19 15 5 -6 -2 -4
-1 5 17 12 2 -8 -4 0
-3 2 19 13 3 -6 -3 0
-5 2 22 14 4 -5 -1 1
-2 11 23 17 6 -3 1 1
2 14 22 17 5 -4 -2 -1
-1 14 22 17 2 -4 -2 2
-3 10 24 18 5 -3 0 2
-5 7 22 17 6 -3 -1 6
-6 8 21 16 5 -7 1 4
-7 14 16 11 1 -11 -1 -3
-8 19 14 10 0 -12 -5 -11
-5 7 18 16 6 -4 -2 -1
-5 -2 21 19 7 -2 -2 0
-1 -1 22 21 10 -2 3 10
1 4 25 24 11 0 3 10
-3 12 20 19 7 -4 1 4
-5 18 17 16 4 -7 -2 -4
-5 14 18 17 6 -5 0 -2
-5 6 20 20 9 -3 1 5
-6 4 20 21 11 -1 5 3
-11 3 19 19 9 -2 4 2
-11 3 17 17 7 -4 -1 -4
-6 5 20 20 8 -3 1 1
-4 10 18 19 7 -2 2 1
-1 11 19 19 7 -3 4 2
-1 10 20 20 8 -1 5 2
-4 -1 21 22 10 -1 2 5
-5 -3 20 21 10 -1 2 0
-7 2 18 17 5 -6 -1 -4
-4 7 15 15 4 -6 -2 -2
-4 4 17 16 5 -5 0 2
-7 3 14 14 2 -7 1 1
-3 10 14 14 1 -9 -6 -1
-1 6 17 17 5 -5 0 0
-5 1 18 17 4 -7 2 1
-8 1 18 16 4 -5 -1 3
-9 1 19 16 4 -6 -3 3
-3 6 16 14 2 -6 -4 1
-1 7 17 14 3 -6 -2 -1
-1 7 15 12 2 -7 -3 -2
-3 7 16 13 1 -7 -3 0
-3 11 16 13 0 -8 -5 3
-7 6 16 14 -1 -8 -4 4
-4 5 16 13 0 -7 -3 2
-2 5 15 12 -2 -8 -6 3
-1 0 17 14 0 -6 -2 5
-3 1 17 13 -1 -9 -5 3
-2 0 18 12 -1 -8 -7 -2
2 10 18 12 -1 -11 -7 -3
0 13 16 9 -3 -12 -5 0
-4 8 16 8 -3 -13 -7 -3
-6 0 20 11 0 -9 -3 -3
-7 -16 25 15 1 -6 0 3
-4 -3 22 12 -3 -9 2 -1
2 8 19 12 -3 -10 0 -1
-2 4 18 11 -4 -10 -2 4
0 7 16 10 -5 -13 -4 0
-1 4 14 9 -5 -12 -6 -8
0 -3 20 15 1 -8 -2 -1
1 5 20 14 2 -7 -3 -2
-3 13 17 10 -1 -10 -5 -3
0 18 18 10 0 -8 -1 5
0 22 21 12 1 -7 -1 -2
-1 16 25 16 4 -2 1 7
0 12 27 18 5 -3 1 8
0 9 28 19 5 -2 2 7
-5 2 28 20 6 -3 3 8
-7 -2 30 21 6 -2 2 1
-3 1 29 20 5 -4 5 2
2 15 28 17 4 -6 5 6
4 22 27 16 4 -6 2 8
3 27 25 15 3 -7 -2 1
8 33 24 15 3 -7 -1 6
6 34 22 12 2 -8 -2 4
3 31 18 8 -1 -8 1 2
7 25 16 6 -2 -6 4 7
3 13 15 6 -1 -5 2 8
1 6 18 11 5 0 8 13
2 9 16 9 4 1 6 14
2 17 12 4 0 -4 2 9
4 21 12 4 0 -6 0 6
0 27 9 2 -2 -7 -2 15
1 29 6 1 -4 -8 3 15
4 24 6 2 -3 -8 5 10
4 20 9 5 -1 -5 4 11
6 28 6 2 -4 -7 1 9
8 26 6 2 -3 -7 4 16
6 19 7 1 -4 -7 2 14
8 14 7 1 -4 -7 2 6
7 13 4 0 -4 -8 -1 5
4 20 2 -1 -5 -10 -1 6
4 24 2 -2 -6 -11 -4 7
1 16 5 0 -6 -9 -3 4
8 14 10 5 -2 -6 3 4
5 -2 15 10 2 -1 8 11
-1 -13 14 7 1 -3 1 9
0 -9 12 6 -2 -6 -4 5
-6 -13 10 2 -6 -12 -10 -8
-4 -9 7 -1 -11 -16 -14 -11
-3 -4 5 -5 -13 -20 -18 -14
-9 -7 4 -7 -17 -23 -17 -18
-12 -15 5 -4 -13 -20 -14 -13
-12 -20 10 -1 -10 -16 -11 -5
-7 -16 10 -2 -11 -18 -14 -1
-7 -16 10 -3 -12 -19 -13 -4
-8 -26 9 -4 -13 -19 -12 -9
-8 -26 11 -3 -12 -18 -11 -7
-4 -24 12 -1 -10 -16 -11 -10
-6 -21 9 -3 -11 -18 -15 -11
-5 -7 6 -7 -14 -21 -14 -16
-6 -1 2 -11 -18 -24 -17 -17
-7 -3 0 -12 -20 -27 -23 -16
-8 -17 4 -9 -16 -23 -19 -7
-10 -22 2 -9 -17 -24 -19 -6
-9 -26 4 -7 -15 -22 -14 -5
-8 -32 6 -5 -13 -20 -14 -10
-11 -37 8 -4 -11 -18 -14 -9
-10 -31 6 -6 -14 -21 -16 -12
-8 -21 2 -10 -17 -25 -19 -14
-9 -20 2 -10 -16 -24 -22 -16
-11 -21 3 -11 -16 -27 -25 -16
-11 -26 4 -9 -15 -24 -17 -13
-9 -26 5 -7 -14 -22 -15 -14
-9 -15 1 -11 -18 -27 -19 -17
-6 -12 -1 -11 -19 -30 -20 -22
-4 -14 1 -9 -15 -25 -20 -16
-8 -24 4 -7 -12 -21 -18 -10
-7 -30 5 -5 -10 -20 -16 -7
-1 -23 6 -5 -9 -18 -14 -10
-3 -25 6 -7 -9 -18 -12 -8
-3 -26 7 -5 -7 -17 -7 -4
-3 -20 3 -8 -11 -19 -13 -8
-6 -19 4 -6 -13 -22 -16 -13
-9 -21 9 2 -10 -23 -21 -16
-13 -23 17 13 -4 -23 -23 -21
-16 -35 30 30 7 -18 -21 -23
-14 -28 38 41 14 -18 -24 -24
-11 -12 40 46 18 -16 -25 -26
-9 -2 43 52 28 -6 -15 -18
-6 8 50 65 43 7 -1 -8
-1 19 56 79 55 17 9 1
4 32 63 90 65 29 15 11
8 46 68 98 76 41 29 23
17 58 70 108 92 62 52 35
28 73 67 104 107 82 75 61
36 81 44 71 108 101 99 83
53 85 10 30 110 126 128 103
62 93 -24 -10 114 155 157 131
65 110 -63 -68 105 178 187 161
72 119 -96 -123 92 201 214 185
71 119 -122 -158 87 218 235 194
65 122 -134 -179 87 235 248 199
50 128 -135 -189 94 251 259 204
33 131 -144 -199 104 271 265 199
21 123 -150 -201 112 280 259 182
3 97 -151 -206 91 238 209 144
-15 47 -145 -203 44 149 115 81
-27 7 -136 -206 -25 51 34 28
-36 -30 -129 -206 -86 -33 -28 -14
-39 -43 -118 -190 -109 -70 -55 -33
-34 -35 -107 -165 -106 -70 -55 -42
-26 -37 -91 -138 -92 -60 -49 -37
-18 -53 -76 -113 -76 -51 -41 -31
-16 -56 -64 -93 -66 -47 -37 -32
-17 -57 -52 -76 -58 -46 -36 -30
-11 -52 -37 -59 -49 -40 -30 -28
-10 -48 -31 -48 -45 -38 -30 -25
-12 -44 -24 -38 -41 -40 -33 -30
-9 -46 -16 -28 -36 -40 -33 -31
-5 -46 -10 -19 -29 -37 -30 -24
-5 -44 -8 -17 -26 -37 -33 -25
-7 -39 -7 -18 -24 -38 -34 -21
-5 -34 -3 -15 -22 -36 -32 -19
-3 -29 0 -12 -19 -32 -25 -19
-7 -21 -5 -15 -23 -37 -30 -24
-7 -12 -3 -14 -22 -35 -26 -19
-4 -13 3 -8 -17 -30 -24 -13
-6 -24 9 -2 -14 -26 -21 -16
-4 -26 10 -2 -12 -26 -19 -17
-8 -18 6 -5 -15 -28 -23 -23
-12 -29 6 -5 -15 -28 -25 -17
-7 -28 10 -2 -10 -25 -19 -19
-3 -28 10 -2 -8 -23 -14 -16
-4 -29 10 1 -6 -21 -15 -9
-3 -25 8 -2 -9 -24 -16 -13
-5 -22 6 -2 -11 -25 -17 -11
-2 -19 8 1 -9 -22 -16 -12
-4 -25 11 4 -6 -20 -15 -13
-9 -32 10 2 -8 -22 -15 -12
-9 -29 9 2 -7 -23 -17 -17
-6 -28 8 0 -7 -23 -20 -16
-5 -25 9 1 -5 -22 -18 -13
-5 -26 9 0 -6 -22 -18 -13
-10 -31 7 -1 -8 -23 -17 -14
-4 -21 6 -4 -10 -26 -16 -16
-3 -17 6 -2 -10 -26 -15 -16
-3 -22 7 0 -9 -24 -18 -14
-1 -19 8 1 -7 -23 -15 -15
-5 -15 5 -2 -10 -26 -22 -21
-8 -8 3 -2 -11 -26 -19 -23
-8 -16 6 0 -7 -23 -15 -20
-8 -33 11 6 0 -14 -11 -11
-4 -26 12 7 1 -10 -9 -10
-11 -21 8 3 -2 -14 -12 -15
-14 -20 6 2 -3 -17 -14 -13
-12 -11 5 3 -4 -17 -12 -13
-12 -11 6 3 -4 -18 -14 -17
-5 -18 11 8 1 -12 -8 -7
-7 -15 10 5 -1 -15 -12 -11
-10 -15 8 3 -1 -15 -14 -7
-5 -15 9 5 2 -14 -17 -11
-4 -11 6 2 -1 -17 -16 -16
-1 -19 9 4 2 -14 -7 -11
-1 -27 11 8 5 -11 -2 1
-4 -21 8 5 1 -16 -13 -8
-5 -14 7 5 1 -15 -11 -12
-6 -8 3 3 -2 -17 -15 -13
-2 -20 6 7 2 -13 -11 -7
2 -23 10 10 6 -10 -7 -8
0 -21 9 9 7 -10 -10 -11
0 -21 9 9 8 -10 -12 -10
1 -16 6 7 7 -12 -12 -12
-3 -13 4 4 6 -12 -12 -13
-2 -11 3 5 6 -11 -12 -5
0 -10 3 6 6 -10 -10 -6
0 -16 6 10 8 -7 -7 -8
0 -20 7 12 11 -4 -5 -9
-5 -14 4 10 9 -8 -7 -13
-7 -23 5 10 11 -6 -8 -5
-5 -21 5 12 14 -4 -8 -6
0 -12 4 11 14 -5 -8 -7
6 -3 5 12 16 -3 -5 -5
3 -8 5 13 18 -1 -3 -8
-1 -7 1 11 16 -2 -4 -10
2 -10 1 13 18 -1 -5 -8
2 -17 4 16 20 4 1 -5
-1 -18 5 17 21 6 1 -8
-2 -18 4 18 22 7 2 -5
-2 -15 0 15 21 5 1 -5
0 -13 -1 15 23 6 2 -4
4 -11 -1 17 27 9 2 -6
5 -16 1 21 32 12 11 -2
6 -20 1 23 37 17 15 5
6 -26 1 25 41 20 16 4
2 -26 1 26 42 21 15 5
6 -19 -2 25 42 24 12 6
8 -17 -4 25 42 24 20 4
8 -13 -7 23 39 21 16 -1
8 -14 -11 22 40 22 14 7
10 -13 -10 24 43 26 16 3
11 -8 -10 25 47 28 20 2
12 -10 -10 26 49 31 23 9
20 -11 -9 29 54 36 24 16
21 -11 -10 29 54 37 25 27
16 -13 -14 27 51 34 24 14
18 -19 -13 29 55 38 25 17
18 -19 -15 27 52 38 25 18
13 -19 -15 28 52 38 25 13
14 -13 -20 24 48 33 21 14
14 -10 -22 22 47 32 20 16
14 -11 -21 23 49 34 28 16
13 -16 -22 22 49 33 25 9
16 -12 -25 19 47 32 23 10
20 -11 -21 23 50 36 26 14
20 -13 -21 22 48 34 26 20
17 -18 -20 24 47 35 26 19
20 -19 -18 26 48 37 30 19
19 -8 -21 21 43 30 22 20
22 4 -26 17 41 28 21 17
19 -8 -23 19 43 30 27 17
14 -21 -18 21 45 32 35 18
15 -17 -18 21 43 31 27 21
16 -18 -21 17 39 27 23 15
13 -11 -24 14 34 23 20 15
15 -2 -26 11 30 19 16 14
17 -4 -24 12 30 20 21 14
21 -5 -21 16 32 21 24 19
16 -10 -18 18 31 22 23 20
14 -9 -20 15 29 19 17 14
17 -9 -17 17 30 20 21 14
18 -15 -15 18 31 20 19 11
14 -10 -14 17 29 18 18 12
16 -3 -16 13 24 13 12 11
13 -8 -15 13 21 11 9 11
11 -9 -11 14 22 12 14 14
9 -7 -10 15 19 10 15 13
10 -2 -11 13 16 5 9 9
13 3 -9 14 15 5 7 10
12 0 -8 13 14 3 4 5
12 -10 -2 18 18 7 8 12
14 -10 1 20 20 9 10 11
9 -4 -3 15 16 3 6 3
6 -1 -5 11 12 -1 3 -1
2 -2 -7 9 7 -5 -3 -4
1 -1 -6 8 5 -7 -5 0
4 0 0 12 8 -5 -1 0
2 -4 2 12 6 -6 -2 -1
3 1 3 12 6 -6 -2 0
5 2 4 13 7 -6 -3 0
1 -2 4 11 6 -6 -1 -1
-4 2 3 8 3 -9 -5 -3
-3 2 2 7 3 -10 -5 -4
-1 5 0 4 0 -13 -7 -8
-3 6 -2 2 -2 -15 -12 -9
-4 -2 1 4 0 -12 -10 -4
-3 -7 6 9 3 -8 -4 0
-3 -10 6 9 1 -8 -4 -2
-9 -3 0 1 -6 -16 -11 -6
-10 -4 2 2 -6 -17 -14 -6
-9 -10 8 5 -2 -12 -11 -5
-9 -12 11 7 0 -10 -9 -3
-6 -6 11 6 1 -11 -9 0
-9 -8 12 6 1 -10 -9 -2
-9 -8 13 8 3 -7 -8 -2
-4 -6 15 11 6 -4 -4 4
-8 -7 13 8 3 -8 -6 1
-10 -2 11 6 0 -10 -9 -3
-10 -3 13 8 1 -8 -7 -3
-12 -2 13 6 1 -10 -9 -6
-10 -1 14 8 2 -7 -8 -4
-7 -5 13 8 2 -6 1 -4
-3 1 14 8 3 -6 1 -4
-2 6 13 6 2 -8 -8 -3
-3 10 11 6 0 -9 -11 -4
4 17 10 5 -1 -11 -12 -3
4 16 12 7 0 -10 -11 -1
4 16 10 6 -2 -11 -11 1
2 14 12 8 0 -10 -8 -2
-4 -4 15 10 3 -6 -7 -6
-2 -8 17 14 7 -2 -4 1
1 -6 17 15 9 -1 -1 7
-5 -5 14 11 5 -4 -3 -2
-6 -4 12 9 3 -5 -6 -6
-5 -2 13 9 3 -5 -6 -7
-3 1 14 9 2 -5 -3 1
-1 3 14 11 3 -4 -5 3
-2 2 14 11 2 -5 -5 -1
0 -1 15 12 3 -3 -3 -5
2 1 12 11 2 -6 -6 -4
0 3 9 8 -1 -9 -10 -6
1 10 8 8 -2 -8 -15 -9
3 8 10 9 1 -8 -11 -7
0 9 10 8 0 -9 -10 -5
5 9 12 11 3 -5 -7 0
4 4 13 11 2 -5 -6 3
5 2 15 12 3 -2 -1 -3
5 5 12 10 1 -4 -1 2
-3 3 10 8 -2 -7 -8 1
-3 -1 8 7 -3 -10 -8 -2
1 7 8 7 -3 -10 -9 -5
3 10 10 9 0 -7 -7 -3
2 8 8 6 -2 -9 -8 -3
1 6 5 3 -4 -11 -7 -4
3 -3 10 8 -1 -6 -5 2
4 -7 13 8 0 -7 -6 4
2 -7 12 8 -2 -8 -7 1
4 -1 10 7 -5 -11 -8 0
3 0 10 6 -6 -11 -7 -4
4 0 11 6 -6 -12 -3 -4
7 6 10 6 -6 -13 -7 1
5 4 10 3 -7 -13 -11 0
8 -2 10 5 -4 -12 -11 -5
4 0 8 3 -7 -13 -9 -7
-1 9 4 -1 -10 -18 -10 -8
4 18 6 -1 -9 -16 -7 -3
5 10 8 2 -8 -14 -11 -1
2 3 7 2 -9 -15 -11 -3
1 4 5 0 -11 -16 -10 -6
-1 9 5 -1 -12 -17 -11 -4
0 6 9 3 -8 -13 -5 6
2 4 10 5 -7 -12 -9 5
-4 -1 9 3 -8 -14 -9 -5
-2 0 11 3 -8 -13 -8 -5
-1 2 11 3 -7 -12 -11 -6
-2 0 13 5 -6 -12 -9 -5
-5 -3 13 5 -5 -11 -9 -2
-9 -1 11 3 -10 -15 -10 -1
-7 2 10 3 -9 -14 -8 -3
-5 4 10 4 -9 -14 -8 -6
1 4 12 6 -7 -12 -6 -5
6 10 14 7 -5 -8 -5 -3
6 11 15 10 -2 -7 -4 5
6 7 14 9 -4 -9 -6 -1
5 10 17 10 -1 -6 -3 5
5 10 18 10 -1 -7 -4 6
5 14 17 9 -2 -7 -4 2
6 14 20 11 -2 -6 -4 11
7 20 18 10 -3 -8 -6 6
5 21 17 9 -5 -9 -6 5
3 15 20 11 -2 -7 -5 5
6 13 21 13 1 -5 -2 5
6 13 23 13 2 -5 -1 4
5 20 19 9 -3 -10 -1 3
12 23 22 13 3 -5 -1 9
11 21 25 16 5 1 0 10
9 24 24 15 4 -2 2 10
12 30 23 15 3 0 2 11
7 26 18 10 0 -3 0 9
4 25 14 7 -2 -5 1 7
6 26 13 7 -1 -4 -3 5
6 30 10 5 0 -4 -3 5
5 38 7 3 -2 -5 -4 3
5 38 5 1 -5 -6 -2 1
5 33 7 3 -2 -4 -1 4
5 28 8 5 1 -1 2 16
-2 28 7 4 -1 -2 2 16
-1 35 6 5 -2 -4 2 16
-3 31 5 4 -2 -3 2 16
-2 27 5 3 -4 -4 2 13
2 31 8 5 -3 -4 3 14
5 33 8 4 -3 -4 3 12
8 36 5 2 -5 -6 -2 14
8 36 2 1 -6 -7 -3 13
8 35 1 0 -5 -7 -4 4
9 31 2 1 -4 -6 -2 7
8 20 4 4 -3 -6 -1 6
3 22 2 1 -8 -9 -6 4
6 25 2 0 -8 -11 -9 3
10 23 4 2 -8 -11 -8 6
4 18 5 3 -9 -12 -10 -4
-3 4 6 4 -8 -13 -11 -1
-3 -4 7 3 -8 -15 -11 0
2 -2 10 6 -6 -12 -9 4
3 6 5 2 -10 -16 -11 -5
-2 7 0 -4 -15 -21 -17 -6
-1 1 2 -3 -14 -18 -17 -4
-5 -13 5 1 -11 -16 -13 -4
1 -7 4 -1 -11 -17 -14 -5
5 2 3 -2 -13 -17 -13 -4
5 -2 4 0 -12 -17 -13 -9
4 -4 3 -2 -13 -19 -16 -9
-4 -12 1 -4 -14 -21 -18 -10
-7 -13 2 -5 -16 -22 -18 -14
-3 -8 -2 -7 -19 -25 -23 -15
-3 -2 -4 -9 -21 -27 -23 -11
-5 -3 -3 -8 -22 -25 -26 -11
-1 -7 0 -6 -20 -26 -22 -15
-1 1 -1 -7 -21 -26 -20 -14
0 8 -2 -8 -21 -27 -20 -11
-2 9 -3 -10 -22 -27 -25 -11
-5 5 -3 -9 -22 -25 -26 -14
0 7 -2 -9 -20 -27 -23 -15
1 2 0 -4 -17 -23 -20 -9
0 1 -4 -7 -19 -26 -23 -13
-2 -11 -2 -5 -17 -24 -22 -8
-5 -13 -3 -6 -18 -24 -20 -6
-3 -10 -2 -5 -18 -22 -22 -11
-2 -6 -3 -7 -17 -23 -23 -8
2 -5 1 -3 -14 -19 -22 -10
2 -10 0 -3 -14 -20 -21 -12
-2 -9 -2 -5 -16 -22 -23 -12
0 -7 1 -2 -13 -21 -17 -9
2 -1 -1 -3 -15 -21 -20 -8
1 -4 -1 -5 -15 -20 -21 -5
4 -2 0 -2 -13 -18 -15 -6
4 -2 0 -2 -14 -21 -18 -12
-1 -6 4 4 -13 -22 -25 -12
-2 -6 10 14 -8 -23 -28 -15
-4 -1 20 27 -2 -21 -29 -18
1 -6 35 46 12 -15 -25 -19
-2 -1 41 54 17 -13 -29 -20
-6 13 40 54 22 -11 -27 -14
2 30 46 65 34 1 -16 -4
11 41 54 82 52 16 -2 0
14 42 65 98 65 31 18 14
18 56 68 105 75 42 28 34
23 79 65 110 86 55 41 44
29 93 66 111 100 76 60 56
39 101 52 89 107 98 88 84
47 101 20 48 109 121 115 108
61 101 -14 10 115 151 147 138
70 118 -48 -41 112 178 178 166
68 136 -88 -102 96 193 205 182
65 144 -115 -139 92 213 233 199
60 148 -130 -162 92 229 244 221
50 147 -130 -171 100 247 252 221
27 137 -136 -180 109 266 258 210
13 126 -147 -188 117 276 249 189
-1 98 -146 -188 111 252 214 157
-14 56 -139 -185 71 171 133 92
-28 17 -136 -191 6 77 48 34
-37 -3 -135 -197 -63 -10 -15 -8
-40 -11 -130 -190 -101 -61 -53 -29
-33 -22 -112 -163 -99 -65 -55 -32
-27 -25 -97 -137 -89 -56 -49 -33
-22 -23 -84 -114 -80 -53 -48 -30
-10 -22 -68 -91 -67 -46 -43 -25
-8 -25 -53 -71 -58 -43 -43 -25
-9 -26 -42 -59 -52 -42 -41 -28
-8 -27 -28 -43 -42 -38 -35 -23
-8 -35 -19 -29 -35 -34 -35 -18
-3 -39 -13 -19 -31 -34 -34 -15
-3 -27 -12 -15 -30 -37 -36 -22
-6 -23 -10 -14 -27 -36 -32 -24
-1 -13 -6 -10 -22 -31 -27 -18
-1 -13 -5 -9 -20 -30 -26 -11
-1 -19 -1 -6 -17 -28 -23 -4
0 -15 1 -3 -16 -25 -28 -15
-5 -4 0 -5 -18 -28 -29 -16
-6 2 1 -4 -20 -28 -28 -17
-7 -5 2 -3 -19 -27 -28 -14
-5 -10 6 2 -16 -24 -27 -6
3 -8 10 6 -12 -23 -24 -7
3 -12 10 7 -11 -24 -22 -9
-1 -9 5 0 -16 -30 -28 -15
-3 -6 2 -2 -17 -30 -28 -13
-4 -12 4 1 -14 -27 -26 -14
3 -14 11 7 -9 -21 -19 -9
4 -12 9 7 -11 -22 -21 -8
0 -12 6 4 -13 -24 -24 -12
0 -8 8 4 -13 -24 -24 -11
-2 -12 8 5 -12 -23 -19 -11
-1 -10 9 7 -10 -23 -20 -11
0 -7 6 4 -11 -25 -25 -11
-4 -16 6 4 -11 -25 -25 -7
-9 -21 5 4 -11 -24 -24 -12
-9 -18 1 -1 -15 -28 -29 -18
-11 -9 0 -2 -15 -28 -30 -18
0 1 5 5 -11 -22 -24 -11
4 7 5 5 -11 -22 -25 -12
1 8 3 2 -13 -24 -28 -11
2 4 4 4 -11 -23 -26 -10
2 -5 6 7 -8 -20 -23 -11
5 -15 11 10 -3 -15 -17 -11
4 -9 9 9 -5 -17 -17 -10
1 0 4 4 -7 -20 -21 -13
1 -2 3 3 -8 -22 -21 -16
-2 -16 5 7 -5 -17 -17 -11
4 -15 10 13 -1 -13 -16 -2
7 -10 11 12 0 -11 -15 -4
4 -8 11 11 -1 -13 -18 -3
7 1 9 10 -3 -15 -19 -8
6 0 8 8 -3 -15 -15 -5
6 1 7 8 -2 -15 -18 -9
8 6 7 9 -2 -15 -19 -8
3 8 3 7 -4 -17 -19 -8
0 -5 4 7 -2 -14 -19 -8
2 -12 9 12 2 -11 -15 -4
1 -4 5 9 -1 -11 -16 -10
2 -3 6 11 0 -12 -15 -10
5 0 9 14 3 -10 -14 -6
3 4 7 12 1 -12 -15 -4
0 7 2 8 -1 -15 -16 -12
0 3 3 9 0 -14 -10 -15
2 -4 5 12 2 -12 -16 -10
2 -5 4 11 2 -11 -15 -11
3 -1 3 10 1 -14 -19 -11
4 -4 5 13 4 -10 -15 -8
0 -7 5 13 6 -8 -14 -9
-1 -5 5 14 6 -7 -11 -5
3 -2 4 14 6 -8 -12 -5
4 -6 7 16 8 -6 -4 -4
5 -10 8 18 11 -2 -6 -2
4 -5 7 17 11 -1 -7 0
6 -4 6 18 14 1 -7 -7
7 -5 8 19 18 5 -4 0
7 2 5 17 18 3 -6 -1
4 8 3 16 14 0 -8 -5
5 -3 7 21 19 5 -4 -2
2 -11 8 24 20 7 2 3
2 -8 8 23 20 6 1 -1
9 -6 6 24 22 6 -4 5
10 -7 6 24 24 8 -2 7
9 -14 7 26 27 13 7 9
6 -9 1 22 27 11 4 5
7 -2 -3 21 26 11 2 -1
9 -1 -2 23 30 16 6 4
5 -10 -1 25 32 19 10 8
4 -9 -2 27 34 22 15 8
4 5 -6 25 31 20 10 5
5 8 -9 24 32 21 9 4
6 -5 -5 29 38 26 15 10
4 -12 -5 30 42 29 17 12
5 -8 -7 29 42 29 16 11
8 3 -10 28 42 29 15 13
5 2 -13 27 42 30 16 13
7 -12 -11 29 46 35 22 13
10 -8 -11 29 47 34 22 15
12 -1 -14 28 45 35 22 19
11 -8 -11 31 47 39 23 27
5 -19 -13 31 47 40 24 28
7 -18 -11 32 48 42 26 22
10 -12 -12 31 48 41 24 20
11 -6 -16 28 45 38 22 18
17 2 -19 25 43 35 21 19
16 -3 -20 25 44 36 26 21
16 -1 -21 25 43 37 24 19
17 -9 -20 26 44 39 26 22
17 -10 -19 24 43 39 27 23
18 -4 -19 25 43 39 27 20
17 -3 -18 25 42 38 27 26
15 -13 -17 26 43 37 30 29
17 -15 -15 27 43 39 29 27
15 -10 -17 23 38 34 25 22
16 2 -21 19 35 30 20 17
17 3 -21 20 36 31 23 19
14 0 -22 19 34 31 24 19
12 5 -23 17 31 28 24 21
11 -1 -22 17 31 29 26 17
15 0 -15 22 34 31 31 21
15 3 -12 23 34 32 23 20
14 6 -12 22 33 29 22 23
17 7 -10 22 32 28 23 21
17 9 -10 21 29 25 21 16
15 6 -9 20 27 23 17 17
16 6 -9 18 25 18 15 17
13 8 -9 17 22 16 11 14
7 -4 -7 19 22 16 13 18
5 -8 -7 19 19 14 13 21
4 -4 -7 19 18 12 12 20
8 1 -3 21 19 13 12 17
10 8 -3 22 17 12 12 18
9 6 -2 20 17 12 11 14
8 3 -1 19 16 10 9 22
3 1 -1 16 13 7 9 15
-1 2 -2 14 12 6 8 8
1 10 -2 12 9 4 4 4
0 2 2 16 12 5 2 10
-3 -1 5 17 11 5 3 14
-1 2 5 17 9 4 3 11
-4 0 6 17 7 1 1 4
-6 12 3 13 3 -3 -3 -1
-1 18 4 11 2 -4 1 0
1 13 7 11 5 -1 5 10
-2 3 8 12 6 -2 3 11
-3 -3 9 12 5 -2 4 9
-4 4 7 9 2 -4 2 1
-6 9 4 5 -2 -9 -5 -4
-10 0 6 6 -2 -7 -4 2
-9 -9 9 10 2 -3 -2 5
-9 -15 11 11 2 -3 -1 3
-11 -4 8 8 -1 -7 -5 0
-7 5 8 7 -2 -8 -2 -5
-7 -2 8 8 -1 -7 -4 -8
-5 -4 9 7 1 -6 -1 -2
-3 -5 11 10 3 -3 7 5
-4 0 11 9 3 -2 1 5
-9 -1 8 7 1 -5 -6 -1
-13 -8 10 9 1 -4 1 4
-9 -12 10 11 2 -2 4 7
-8 -6 10 9 0 -4 0 -2
-12 2 7 6 -3 -7 -5 -4
-13 10 4 4 -6 -11 -7 2
-10 5 6 7 -2 -7 -4 0
-9 -6 10 10 3 -3 3 -2
-9 -3 10 9 3 -4 0 -5
-8 3 9 9 1 -6 -1 -5
-7 11 8 8 0 -6 -3 -7
-12 13 8 8 0 -7 -1 -2
-12 11 7 10 0 -5 -2 -3
-9 2 12 14 4 -2 1 -4
-9 -5 14 16 7 1 4 0
-10 -6 12 16 7 0 5 0
-12 -5 10 14 4 -3 1 -4
-14 -8 12 15 5 -4 1 -5
-14 -10 13 16 6 -2 0 1
-9 1 12 15 5 -3 1 1
-3 11 11 14 4 -3 4 -2
-5 5 13 16 7 0 8 0
-6 3 12 15 6 0 6 2
-2 12 9 14 2 -5 5 -3
-3 10 11 17 4 -3 3 -3
-4 4 14 18 6 -2 6 4
-7 -2 12 16 5 -2 5 7
-9 -3 12 16 5 -1 3 1
-8 -5 13 15 6 1 7 2
-1 3 14 16 7 2 9 2
-4 6 11 14 3 -3 3 0
-9 2 10 13 1 -4 3 1
-4 7 12 15 3 -2 4 4
-4 6 12 16 2 -2 7 1
-6 8 11 15 2 -2 8 2
-5 13 8 12 1 -5 2 -2
-7 0 9 13 1 -3 7 -6
-6 -8 12 16 3 0 9 0
-5 5 9 10 -1 -7 -1 -4
-5 12 5 7 -4 -11 -4 -6
-6 2 9 11 -1 -6 1 -5
-8 -4 11 13 1 -4 3 -1
-6 -1 10 11 -1 -5 3 4
-2 15 6 8 -5 -9 -2 -1
-2 11 9 12 -3 -7 3 -5
-4 -1 12 12 -2 -5 6 4
-6 -10 12 12 -1 -7 4 5
-9 -6 7 8 -5 -10 1 -3
-7 -5 7 6 -5 -10 2 -3
-10 -12 7 5 -6 -11 0 -3
-12 -1 2 2 -12 -16 -4 -4
-9 2 5 5 -9 -12 -4 -11
-12 -6 9 8 -5 -10 0 -5
-11 -4 8 7 -7 -11 -1 -5
-5 -7 12 10 -3 -8 1 -2
-5 -14 14 13 -1 -6 5 -2
-5 -15 15 14 1 -3 6 1
-1 -4 10 9 -4 -6 4 -3
-1 2 5 2 -9 -11 2 -5
-4 -3 7 3 -9 -10 0 -2
-11 -7 6 2 -9 -11 -5 1
-12 -9 7 3 -9 -13 -4 -7
-12 -10 7 2 -10 -13 -1 -3
-12 -3 4 0 -13 -16 -7 -9
-6 8 5 1 -13 -17 -8 -8
2 12 7 3 -12 -16 -10 -6
2 9 5 2 -12 -15 -7 -13
1 4 8 2 -10 -13 -4 -3
-1 -3 8 3 -9 -12 -5 -3
-3 -2 7 3 -9 -13 -5 -10
-11 -4 3 -1 -13 -17 -10 -6
-13 -14 5 1 -13 -16 -8 -3
-7 -11 5 3 -12 -14 -4 -9
-7 -8 5 3 -12 -14 -3 -5
-8 -11 8 4 -11 -14 -8 -3
-5 -4 10 6 -9 -13 -7 -6
-8 -3 9 3 -11 -15 -11 -10
-6 -5 9 3 -9 -13 -7 -10
-2 -3 11 6 -7 -10 -4 2
-2 3 10 6 -8 -11 -6 -5
-7 5 12 6 -7 -9 -3 -9
-6 4 15 8 -6 -8 -3 -3
-5 2 17 10 -4 -6 -1 -4
-7 -3 18 11 -3 -6 1 -4
-10 -5 16 10 -4 -9 -4 -3
-8 1 14 7 -6 -10 -7 -8
-9 -1 16 10 -3 -7 -4 -4
-9 3 16 9 -3 -8 -3 -8
-4 6 17 9 -3 -8 -3 0
-5 11 17 9 -3 -8 -2 1
-4 10 20 12 -1 -7 -5 -3
-3 14 19 12 -1 -6 -2 3
-4 11 19 12 -2 -5 -1 2
-4 4 22 14 0 -2 1 1
-4 5 14 7 -4 -4 -3 -3
-4 5 11 4 -4 -5 1 -3
-4 8 9 3 -3 -4 2 -6
-6 16 5 -1 -5 -7 0 -1
-5 19 3 -1 -6 -8 3 0
-5 19 4 -3 -8 -9 2 6
-5 22 3 -4 -8 -8 -2 5
0 31 4 -3 -7 -7 -1 0
-1 20 5 0 -5 -3 2 3
-2 8 6 2 -3 -1 6 6
1 6 6 3 -3 -1 5 7
-1 12 6 2 -4 -3 3 5
-2 18 5 1 -5 -3 -3 -3
-3 16 4 0 -6 -1 -4 -4
-4 11 1 -4 -9 -8 -4 0
0 10 3 0 -6 -6 3 2
4 3 4 3 -3 -2 12 -1
1 4 4 0 -6 -5 3 -2
1 16 3 -3 -9 -7 -3 0
0 9 4 0 -9 -8 -2 0
-2 -3 5 0 -10 -7 -2 -2
-6 -5 7 -1 -10 -9 -5 -7
-10 -12 6 0 -11 -10 -6 -10
-11 -19 6 -1 -11 -11 -5 -10
-9 -19 3 -3 -13 -13 -10 -14
-8 -9 2 -5 -16 -16 -13 -16
-7 -6 0 -7 -17 -18 -15 -14
-10 -5 0 -8 -20 -20 -17 -13
-12 -10 2 -7 -19 -19 -16 -13
-15 -19 3 -7 -18 -18 -16 -17
-16 -28 6 -4 -16 -16 -13 -11
-12 -23 7 -4 -17 -18 -14 -10
-13 -17 4 -6 -18 -18 -14 -19
-13 -17 2 -9 -20 -22 -14 -19
-13 -20 4 -10 -19 -19 -16 -16
-18 -22 5 -10 -20 -21 -17 -19
-14 -22 4 -10 -19 -19 -12 -16
-11 -23 4 -8 -18 -17 -9 -9
-11 -30 7 -5 -16 -16 -10 -7
-9 -27 8 -3 -15 -15 -9 -13
-10 -13 3 -6 -19 -19 -16 -14
-15 -6 -2 -12 -24 -25 -24 -19
-10 -6 -2 -12 -24 -24 -23 -19
-10 -18 0 -11 -22 -23 -18 -13
-14 -26 0 -10 -22 -20 -17 -15
-15 -29 1 -9 -20 -20 -17 -9
-19 -37 4 -7 -17 -17 -16 -13
-20 -35 3 -7 -18 -18 -16 -12
-18 -32 2 -8 -18 -18 -17 -15
-19 -33 3 -7 -17 -18 -14 -8
-20 -30 5 -5 -17 -17 -13 -10
-16 -23 5 -6 -16 -17 -9 -14
-14 -24 8 -3 -13 -14 -10 -12
-13 -24 7 -3 -14 -15 -14 -12
-14 -28 7 -3 -13 -14 -13 -12
-13 -21 5 -5 -15 -13 -10 -13
-17 -19 2 -8 -17 -14 -10 -12
-17 -8 -4 -14 -23 -23 -19 -22
-12 1 -3 -12 -23 -25 -21 -20
-16 -21 7 2 -15 -20 -15 -18
-20 -38 19 17 -4 -14 -13 -18
-16 -32 30 32 4 -12 -12 -20
-14 -16 38 42 10 -13 -12 -21
-16 -11 46 52 20 -7 -13 -20
-21 -16 51 61 32 7 -5 -12
-18 -2 53 72 43 15 0 -5
-9 23 56 82 52 24 6 3
-1 39 62 92 61 34 20 13
6 50 69 104 76 49 36 27
11 60 69 112 91 67 55 39
17 77 60 101 98 82 70 55
29 94 38 68 100 101 95 76
47 94 7 32 106 129 132 103
63 84 -22 -4 114 162 166 137
69 109 -61 -64 103 183 191 158
67 127 -102 -123 84 195 210 174
69 136 -126 -156 80 210 229 188
60 135 -135 -173 82 226 245 196
42 120 -133 -177 97 248 253 200
23 111 -137 -183 111 267 262 193
11 101 -145 -187 117 271 251 177
-4 81 -144 -189 98 228 194 134
-21 30 -136 -188 51 142 107 65
-33 -17 -131 -193 -15 53 33 22
-41 -43 -127 -194 -74 -20 -16 -12
-47 -48 -120 -183 -101 -55 -42 -31
-43 -45 -105 -159 -99 -57 -46 -39
-31 -46 -89 -132 -85 -48 -43 -39
-26 -48 -79 -112 -77 -45 -42 -34
-24 -47 -66 -93 -69 -44 -41 -34
-21 -47 -55 -79 -65 -45 -40 -40
-17 -46 -42 -62 -55 -40 -35 -36
-14 -48 -29 -46 -45 -33 -27 -27
-15 -51 -21 -34 -39 -33 -25 -20
-10 -43 -15 -26 -36 -32 -29 -22
-9 -34 -11 -20 -31 -30 -29 -24
-9 -29 -9 -17 -29 -30 -27 -22
-7 -28 -5 -14 -24 -22 -19 -22
-10 -36 -1 -10 -21 -20 -12 -19
-10 -29 -2 -10 -21 -23 -18 -20
-8 -25 0 -9 -22 -23 -20 -19
-9 -18 -1 -7 -23 -23 -18 -23
-9 -19 2 -6 -19 -20 -18 -20
-8 -20 6 -1 -17 -19 -16 -17
-11 -26 7 0 -17 -19 -17 -17
-13 -24 6 -1 -17 -19 -17 -18
-14 -19 4 -4 -19 -22 -18 -19
-14 -20 4 -3 -18 -21 -11 -18
-9 -16 7 -1 -14 -18 -14 -13
-6 -18 9 1 -11 -15 -13 -8
-3 -26 11 4 -9 -12 -10 -10
-5 -28 11 5 -9 -11 -9 -7
-4 -25 12 6 -8 -11 -9 -6
-4 -12 7 2 -14 -16 -16 -15
-9 -5 3 -2 -18 -20 -21 -20
-5 -11 6 1 -13 -17 -17 -17
-2 -16 11 5 -8 -13 -12 -13
-8 -19 9 3 -9 -14 -10 -16
-10 -17 6 -1 -12 -16 -16 -20
-9 -17 5 0 -11 -16 -14 -20
-10 -18 5 1 -12 -16 -15 -19
-3 -14 9 5 -9 -12 -13 -14
-1 -14 11 8 -7 -9 -12 -12
-6 -16 9 6 -9 -11 -11 -12
-3 -22 10 8 -8 -10 -13 -10
-6 -24 11 8 -6 -11 -11 -14
-4 -18 9 6 -7 -12 -13 -12
-7 -23 8 6 -6 -12 -14 -12
-11 -23 6 2 -9 -14 -13 -16
-8 -20 6 3 -7 -12 -16 -14
-9 -20 7 5 -7 -12 -17 -16
-8 -12 6 3 -9 -12 -16 -19
-7 -15 9 7 -6 -9 -12 -15
-7 -18 9 6 -5 -8 -11 -10
-3 -16 11 8 -4 -6 -10 -11
3 -4 11 9 -1 -4 -4 -6
1 0 6 6 -4 -7 -7 -7
-5 -4 5 5 -4 -8 -12 -12
-4 -18 7 6 -2 -5 -9 -14
-7 -26 9 8 0 -2 -4 -14
-7 -17 9 7 -2 -3 -9 -14
-7 -5 7 7 -2 -5 -7 -12
-7 -3 9 9 0 -4 -5 -9
-5 -15 12 13 4 0 -5 -11
-4 -22 15 16 6 2 -3 -10
-3 -14 10 12 4 -1 -9 -11
1 -12 7 9 2 -3 -10 -11
-4 -17 7 9 2 -2 -7 -9
0 -17 8 10 3 -1 -1 -13
0 -12 9 11 5 2 -2 -7
-6 -14 10 10 4 2 -7 -10
-3 -11 6 9 2 0 -7 -15
2 -8 8 13 4 1 -5 -9
2 -7 8 13 5 1 -7 -4
-1 -16 9 15 7 3 -6 -6
-2 -23 9 16 10 4 -4 -9
-2 -19 6 14 9 4 -5 -7
-3 -9 1 10 6 1 -6 -13
7 -10 5 15 11 7 -1 -9
3 -14 5 17 14 10 7 -6
1 -17 5 16 14 11 5 -5
5 -8 5 18 16 13 6 -1
2 -9 5 18 16 13 5 -3
-1 -11 3 15 14 11 5 -3
2 -18 7 21 19 16 10 9
4 -22 7 23 24 21 12 7
8 -17 5 23 25 21 14 3
7 -10 1 20 24 19 10 -3
6 -15 1 22 25 20 9 3
9 -18 1 24 29 26 15 6
9 -17 2 26 30 28 16 4
7 -13 0 25 30 28 15 5
8 -10 -3 23 29 27 15 8
7 -9 -6 20 26 25 14 3
7 -4 -10 20 26 25 14 -1
8 -5 -10 21 31 29 18 7
10 -11 -8 22 35 34 22 12
13 -12 -9 22 38 36 26 8
15 -11 -8 25 41 38 26 8
17 -1 -13 21 38 36 21 6
20 6 -14 21 37 36 20 10
19 -5 -12 24 41 40 29 20
18 -20 -8 29 45 45 31 20
18 -17 -11 26 42 44 28 20
16 -13 -11 26 42 45 29 14
19 -9 -14 26 42 41 29 14
18 -8 -17 25 41 38 30 15
16 -23 -16 23 43 42 33 15
17 -27 -13 26 46 47 33 20
18 -22 -15 24 45 46 32 22
27 -5 -17 22 43 46 33 20
27 1 -19 21 40 44 34 22
19 -10 -19 21 38 43 35 24
18 -21 -16 22 40 43 33 20
18 -22 -15 23 40 44 34 18
17 -7 -17 18 36 41 29 17
16 -6 -20 15 34 38 26 12
14 -11 -20 14 33 37 27 15
16 -3 -22 11 30 34 28 12
17 -5 -20 14 33 36 31 16
15 1 -24 10 27 31 29 19
23 7 -20 13 28 34 30 21
25 -3 -16 17 31 35 29 19
22 -9 -13 18 30 34 28 20
20 -3 -11 19 29 32 29 19
16 -4 -12 17 27 28 29 17
18 2 -13 15 23 26 25 14
17 -7 -9 18 26 28 28 17
15 -11 -7 17 27 29 26 17
17 -7 -7 19 27 29 26 23
15 -5 -5 18 25 28 29 21
16 3 -6 17 21 24 24 15
13 3 -5 16 19 22 21 19
15 1 -2 19 20 23 21 19
17 4 0 20 20 22 20 22
14 9 -1 18 18 17 14 10
12 9 0 18 17 15 14 10
11 2 2 19 17 14 13 9
9 -3 5 21 18 16 16 13
11 6 4 18 13 12 14 5
7 7 4 15 10 8 9 5
2 5 1 11 5 5 4 3
4 9 1 10 4 3 5 -2
1 4 3 13 5 6 6 3
0 5 4 11 3 4 6 4
5 7 8 14 6 5 12 0
6 0 13 18 10 9 10 3
5 -5 14 16 9 7 9 10
2 1 12 13 6 2 8 6
2 2 7 8 0 -2 0 -1
4 0 8 10 1 0 2 1
0 -1 7 9 0 1 4 6
-3 1 4 5 -4 -3 3 -1
1 1 8 7 -3 -2 3 -2
6 11 6 6 -4 -3 -2 -5
2 12 6 6 -3 -4 -3 -3
-3 -4 11 10 1 -1 3 -2
-7 -6 7 5 -3 -5 -5 -3
-2 7 7 4 -4 -6 -6 2
1 10 7 4 -3 -5 -5 0
1 10 7 3 -5 -5 -3 5
0 13 5 2 -6 -5 -2 -4
-1 7 10 5 -4 -3 -2 -6
0 -1 12 8 -1 0 2 -1
0 -16 16 13 4 4 6 1
-2 -20 20 16 8 8 11 7
1 -4 17 13 5 3 7 2
1 5 14 11 1 -1 3 2
-1 4 13 10 1 -2 0 -2
0 3 13 11 3 0 2 -1
1 1 13 11 2 1 4 2
1 -2 15 13 4 4 6 2
-4 -7 14 14 5 4 9 5
-3 -5 12 13 3 3 5 4
1 5 11 12 2 3 1 6
1 9 8 10 1 1 1 -2
-1 7 9 11 2 1 2 4
0 8 9 9 1 -1 3 1
-3 3 10 10 1 -2 7 1
0 11 11 13 1 1 6 0
3 21 10 10 0 0 4 -4
3 20 8 9 -1 0 2 -1
1 15 10 11 -1 1 1 -5
-4 13 8 9 -2 -1 2 4
-1 9 10 12 2 2 6 3
1 -8 16 18 8 9 14 4
-3 -8 14 16 6 5 8 2
1 5 11 12 3 2 5 2
0 4 12 13 3 1 3 4
3 3 14 13 3 3 4 -2
2 7 14 14 3 4 5 6
5 16 11 12 1 3 6 2
6 14 11 12 1 3 5 6
8 10 14 14 3 4 7 8
8 15 14 13 3 5 8 3
8 11 13 12 1 4 9 2
4 7 12 10 -1 1 6 -1
5 13 10 8 -3 -1 5 -3
8 18 7 6 -5 -2 2 -4
6 14 8 8 -2 0 10 0
8 10 14 13 1 3 12 2
9 11 11 11 -1 1 5 1
6 8 9 9 -4 -1 3 -4
8 15 8 8 -5 -3 2 -1
10 21 7 6 -6 -4 3 -1
7 17 7 6 -5 -4 2 -6
8 14 4 4 -7 -4 0 -8
6 4 4 4 -7 -6 1 -7
5 2 4 3 -8 -6 2 -10
6 5 5 4 -8 -6 0 -1
7 4 4 1 -10 -7 -4 -3
6 3 6 4 -9 -5 0 -5
4 -3 8 6 -7 -5 1 -6
3 2 7 5 -9 -7 -1 -6
7 10 5 4 -10 -8 -4 0
7 8 5 3 -10 -9 -4 -7
8 10 5 3 -10 -8 -3 -9
11 18 1 -2 -14 -13 -6 -10
9 8 1 -1 -12 -11 -2 -11
7 3 3 0 -12 -10 1 -7
6 0 5 -1 -14 -12 -2 -4
5 0 5 0 -14 -12 1 -10
4 4 3 -1 -15 -13 -4 -13
4 12 -1 -3 -19 -16 -6 -15
9 4 0 -1 -16 -14 -2 -9
8 -6 5 3 -12 -10 4 -6
9 -5 6 3 -11 -10 0 -7
12 0 8 4 -10 -9 0 -8
12 6 5 1 -13 -11 -4 -7
10 8 5 0 -14 -14 -8 -11
9 5 6 0 -16 -14 -8 -9
8 1 6 0 -17 -14 -5 -5
7 0 5 -1 -18 -16 -2 -6
10 7 2 1 -19 -17 -5 -11
9 9 1 -2 -19 -15 -7 -6
9 14 -1 -5 -20 -14 -8 -13
7 9 0 -4 -18 -16 -6 -13
11 12 4 -1 -15 -13 1 -9
19 13 8 3 -12 -10 0 -5
15 13 6 2 -13 -11 -1 -1
16 5 9 5 -10 -7 3 5
14 6 7 4 -10 -8 4 -1
8 12 2 0 -17 -15 -3 -9
8 16 2 0 -16 -17 -4 -12
8 14 4 0 -16 -16 -6 -12
8 14 8 3 -13 -13 -3 -12
9 9 12 7 -8 -9 0 -2
8 3 13 8 -8 -7 4 -2
11 14 10 6 -9 -8 3 -7
13 21 7 4 -11 -9 6 -4
12 19 10 6 -10 -8 9 0
11 19 14 8 -7 -5 7 4
6 10 14 8 -8 -7 5 3
6 10 14 7 -9 -8 1 2
7 12 15 8 -8 -5 3 2
6 20 15 8 -9 -7 3 0
7 32 13 6 -9 -7 0 -2
7 34 11 5 -10 -8 1 -2
5 26 9 4 -10 -8 4 -3
7 30 0 -2 -15 -12 -1 -7
10 37 -4 -5 -17 -15 1 -10
12 35 -2 -3 -13 -11 2 -4
13 24 2 2 -8 -6 4 1
16 29 4 3 -8 -5 8 9
16 27 6 4 -6 -3 11 9
12 26 4 2 -7 -3 13 3
8 26 0 -1 -10 -6 10 3
9 31 -2 -1 -11 -6 4 4
14 32 -2 -1 -11 -6 4 3
17 32 -1 1 -8 -4 7 2
15 38 -1 -1 -11 -5 7 3
15 36 -1 -1 -11 -6 7 2
17 32 1 2 -10 -3 6 5
22 33 0 1 -11 0 9 3
24 38 -1 1 -10 0 9 4
21 37 -3 1 -10 -2 6 7
14 23 -3 1 -10 -4 6 9
14 18 -4 -2 -13 -9 6 6
12 15 -3 -2 -15 -10 1 -2
11 11 0 1 -13 -8 0 -1
10 11 2 2 -13 -9 2 1
7 8 3 2 -12 -12 3 1
8 10 1 -1 -16 -15 -3 -5
13 13 1 -1 -18 -17 -5 -7
10 11 0 -2 -20 -20 -8 -10
4 11 -1 -5 -22 -23 -10 -14
2 8 1 -5 -21 -22 -10 -6
-1 8 -3 -8 -25 -24 -13 -8
1 12 -5 -9 -26 -24 -17 -12
3 2 -3 -5 -21 -23 -9 -13
1 5 -4 -8 -24 -25 -12 -14
-1 4 -3 -7 -24 -26 -11 -14
-2 -8 -1 -6 -23 -23 -5 -14
1 -8 3 -2 -21 -19 -4 -9
1 -3 2 -3 -21 -18 -4 -10
-3 -4 -1 -6 -23 -21 -7 -12
-2 -8 2 -3 -19 -18 -9 -11
0 -12 3 -2 -19 -20 -10 -10
0 -5 0 -4 -24 -24 -12 -13
0 5 -2 -7 -25 -26 -13 -10
-3 2 -2 -7 -27 -26 -15 -16
-2 2 -3 -7 -26 -24 -15 -17
-2 6 -3 -6 -25 -23 -12 -17
0 -2 0 -2 -21 -18 -8 -15
5 -6 3 0 -18 -15 -6 -9
2 -5 -1 -2 -20 -18 -10 -5
-2 0 -3 -5 -22 -19 -13 -10
3 8 -3 -5 -20 -16 -11 -9
2 1 -6 -7 -22 -21 -13 -12
0 -6 -5 -6 -22 -18 -11 -11
-1 -8 -5 -6 -22 -18 -12 -12
-4 -7 -6 -8 -24 -20 -14 -13
-4 -4 -4 -5 -22 -19 -13 -12
-5 1 -5 -7 -24 -21 -15 -15
-7 -1 -5 -7 -23 -21 -14 -15
-2 0 -3 -4 -21 -18 -11 -13
-1 -5 2 2 -18 -18 -10 -13
-2 -5 7 7 -17 -20 -13 -16
-2 -3 16 20 -9 -17 -17 -15
2 5 25 34 0 -16 -15 -20
-5 8 29 43 6 -16 -20 -20
-9 6 35 51 14 -9 -12 -20
-3 21 40 58 24 1 -9 -16
1 25 47 72 39 15 0 -7
-1 29 52 85 51 25 9 3
6 47 55 90 55 30 19 15
10 63 58 96 67 43 35 33
16 70 63 107 87 67 57 52
26 84 56 99 99 90 79 70
39 99 32 67 103 116 108 95
54 110 -5 24 104 144 139 115
64 113 -35 -14 109 182 180 145
60 110 -67 -67 100 212 220 179
60 127 -101 -123 83 229 243 196
60 141 -126 -158 75 246 259 206
48 140 -133 -175 76 262 270 215
33 141 -129 -180 85 280 279 217
15 144 -140 -192 92 298 282 208
6 137 -151 -198 94 301 270 190
-7 104 -146 -198 68 251 211 142
-20 48 -134 -195 20 160 117 74
-31 4 -122 -198 -49 60 40 30
-33 -4 -121 -197 -108 -27 -23 -14
-29 -12 -112 -177 -123 -57 -46 -31
-24 -15 -96 -148 -108 -49 -41 -27
-20 -22 -84 -123 -93 -41 -37 -24
-13 -20 -75 -104 -84 -37 -37 -20
-12 -25 -64 -87 -75 -32 -36 -28
-13 -28 -52 -72 -67 -33 -38 -28
-12 -33 -37 -55 -56 -27 -33 -28
-8 -30 -28 -42 -50 -24 -28 -24
-7 -34 -20 -29 -43 -23 -23 -22
1 -32 -15 -19 -37 -20 -27 -27
-3 -35 -14 -13 -32 -21 -28 -25
1 -26 -12 -12 -30 -19 -26 -24
0 -23 -12 -12 -29 -19 -24 -21
1 -17 -8 -12 -26 -18 -25 -20
3 -11 -6 -10 -24 -17 -22 -20
0 -4 -8 -13 -24 -18 -20 -22
-1 -1 -6 -12 -24 -16 -19 -19
-1 -4 -3 -8 -22 -11 -15 -15
-5 -3 -3 -8 -22 -13 -17 -16
-5 -2 1 -4 -19 -11 -17 -8
-1 -8 7 2 -14 -7 -9 -7
-3 -19 7 1 -11 -7 -13 -9
-1 -15 6 0 -12 -7 -13 -8
3 -12 6 1 -10 -6 -13 -5
2 -13 6 1 -9 -5 -13 -10
3 -12 3 -1 -12 -8 -17 -14
-4 -14 0 -3 -14 -7 -18 -8
-4 -8 -1 -5 -18 -8 -18 -11
2 -9 4 -1 -15 -11 -13 -7
4 -11 8 3 -12 -7 -14 0
-1 -8 7 3 -12 -6 -15 -4
1 -4 4 -1 -14 -9 -18 -3
4 4 2 -3 -14 -11 -17 -5
7 5 0 -5 -15 -11 -21 -10
4 -3 2 -3 -12 -7 -18 -12
5 -4 3 -1 -10 -6 -17 -10
2 0 4 -2 -12 -6 -17 -12
3 -3 3 1 -10 -1 -10 -12
4 -8 8 5 -5 3 -6 -5
4 -1 6 3 -8 -1 -14 -2
2 -2 5 2 -8 -1 -14 -7
-2 -4 3 0 -9 -4 -18 -8
-3 -1 2 -1 -8 -4 -17 -2
2 6 -1 -2 -7 -2 -15 -2
3 -9 1 4 -2 3 -8 -2
2 -13 3 3 -1 4 -8 -2
-3 -22 4 4 -1 4 -9 -2
-3 -22 5 2 -3 2 -7 -3
3 -7 5 3 -3 1 -7 -3
4 2 1 0 -7 -2 -14 -7
4 5 1 -2 -9 -4 -20 -10
2 -5 2 0 -5 -3 -18 -12
-1 -15 8 5 1 3 -13 -8
0 -12 6 3 0 2 -14 -7
2 -7 5 2 0 1 -13 -9
1 -14 5 2 1 3 -12 -8
2 -4 4 2 1 3 -12 -5
5 1 2 3 0 2 -12 -3
3 -1 3 3 0 2 -13 -1
3 1 -1 2 -1 1 -15 -8
1 -1 2 3 1 3 -13 -8
0 -7 3 4 3 4 -8 -8
1 -5 2 2 4 4 -6 -13
-3 -5 -2 -1 1 1 -15 -12
0 -3 1 1 5 4 -14 -7
5 2 2 4 8 7 -4 -9
3 5 2 3 7 7 -6 -8
6 10 1 4 7 8 -9 -11
8 0 2 8 10 12 -1 -9
9 -6 1 9 11 12 -6 -4
7 -11 4 10 14 13 -6 -3
4 -9 1 6 12 9 -9 -9
3 -10 3 9 15 12 -8 -6
2 -8 0 7 15 11 -8 -5
-1 -13 1 7 16 13 -4 2
0 -9 0 8 17 15 -1 6
7 -2 1 10 19 20 1 2
6 1 -3 7 18 20 -1 4
8 0 -2 11 21 21 -1 7
6 -10 0 14 24 23 0 8
4 -20 5 18 31 29 8 8
7 -11 4 17 31 32 9 10
10 -13 1 17 32 32 9 12
12 -6 -1 15 32 30 10 7
12 2 -6 11 30 29 7 3
8 -5 -7 12 32 31 7 5
4 -14 -4 16 37 36 8 10
2 -18 -4 16 38 38 10 10
10 -12 -5 20 41 41 13 11
10 -13 -7 19 40 42 13 11
2 -18 -10 16 40 42 13 8
10 -8 -12 15 44 45 17 8
15 -7 -12 18 48 48 19 13
14 -10 -16 16 48 49 19 12
13 -12 -18 14 48 48 24 12
9 -11 -22 13 47 47 23 15
11 -21 -16 19 52 53 25 17
14 -22 -15 20 52 53 25 18
15 -12 -19 17 49 50 23 18
16 -2 -22 16 48 50 22 16
16 -10 -21 16 49 49 24 17
18 -13 -18 18 51 51 25 22
22 -13 -16 20 54 53 25 23
21 -19 -14 21 55 55 28 19
20 -16 -18 19 54 54 28 17
18 -9 -23 13 48 50 27 23
18 -9 -23 13 47 48 21 25
19 -12 -21 14 48 48 25 29
17 -14 -21 14 46 47 29 24
19 -11 -21 15 46 48 28 25
23 -19 -19 17 48 51 30 23
16 -25 -20 15 46 51 32 27
17 -21 -21 14 47 47 34 23
17 -17 -26 10 42 43 29 22
16 -15 -28 6 39 39 24 19
14 -7 -29 5 35 37 19 16
11 -6 -24 8 36 40 20 20
11 -4 -24 8 33 35 18 18
10 -6 -24 6 31 32 17 21
6 -4 -25 3 27 27 12 15
6 -2 -26 3 25 25 10 16
11 -5 -22 7 27 26 11 19
11 -10 -16 9 30 27 15 16
12 -18 -12 11 32 29 16 19
10 -10 -15 8 29 25 19 14
9 -4 -13 7 26 24 13 15
10 -4 -13 8 24 22 9 20
8 0 -13 8 22 20 11 21
9 3 -11 8 20 18 10 18
6 -2 -11 10 19 17 12 16
0 -13 -6 12 21 17 9 16
1 -18 -3 13 22 17 8 13
3 -14 -3 10 20 14 8 19
5 -4 -4 8 17 12 6 13
2 -2 -4 8 16 11 1 14
-3 -6 -5 5 13 8 -2 10
3 0 -1 8 14 11 4 12
5 8 1 10 13 10 5 10
-1 7 0 7 9 3 -4 5
-4 0 0 7 8 3 -4 4
-5 -6 2 8 9 4 -2 2
-4 -10 6 10 11 5 0 8
-3 -3 3 7 10 1 -5 11
-8 -4 -1 2 4 -4 -8 2
-12 -10 1 1 4 -5 -12 6
-5 -3 2 2 4 -2 -12 14
-6 -2 2 2 2 -4 -12 6
-1 2 6 4 4 -3 -8 11
-7 0 6 4 3 -4 -7 7
-10 2 7 4 2 -6 -12 -1
-6 8 8 4 2 -7 -8 2
-9 2 8 4 4 -4 -5 6
-7 -6 12 8 9 1 -1 10
-8 -13 11 7 8 0 -6 7
-11 -14 8 6 6 -1 -7 9
-10 -9 8 4 4 -3 -8 6
-8 -1 6 2 2 -5 -12 7
-1 7 6 3 3 -3 -8 9
-3 10 5 4 4 -2 -8 0
-6 10 5 4 3 -3 -9 3
-5 11 4 4 3 -2 -8 8
-7 8 6 4 6 -2 -2 11
-8 -5 12 10 10 2 -2 11
-5 -4 10 8 10 1 -4 8
-8 2 6 5 7 -4 -8 6
-7 4 7 7 6 -4 -4 11
-6 4 8 8 7 -3 -5 10
-4 5 7 7 6 -4 -9 6
2 6 11 12 11 2 -4 12
2 -2 15 15 14 5 -1 17
5 1 15 16 17 7 1 18
5 6 14 16 15 6 1 22
0 5 12 16 14 3 -4 12
0 8 11 14 12 2 -5 5
-1 5 9 11 11 0 -5 9
-4 1 8 10 10 0 -5 11
-4 -1 8 12 11 3 1 14
-2 0 9 14 11 3 0 17
-1 6 9 13 9 4 -3 11
-2 5 9 12 9 2 -2 10
-2 2 9 11 9 -2 -2 13
2 -2 13 15 13 1 0 15
2 0 12 14 13 1 0 14
0 10 7 9 8 -3 -4 7
0 15 3 6 5 -5 -7 6
3 20 5 7 5 -5 -5 9
7 13 8 10 8 -3 -1 16
5 10 8 10 6 -5 -3 13
0 10 9 12 7 0 3 14
1 9 9 11 8 0 0 15
4 4 12 15 10 2 4 14
3 10 9 12 7 -2 1 10
4 14 6 8 5 -5 -4 9
4 5 8 9 6 -5 -3 14
5 2 9 10 7 -4 1 20
6 12 9 10 6 -5 -1 18
4 14 8 8 3 -7 -5 17
3 10 9 9 3 -6 -3 15
0 3 8 9 3 -5 -4 12
4 16 9 9 1 -4 -2 12
7 11 11 12 5 -4 4 9
5 5 8 11 4 -6 -2 9
8 11 7 7 2 -9 -2 8
3 12 6 4 -1 -10 -6 13
4 13 4 3 -1 -10 -3 10
5 5 7 7 2 -7 -3 12
6 4 10 10 4 -5 0 10
8 11 9 9 1 -7 -2 1
11 16 10 10 3 -6 -3 1
6 17 11 10 3 -6 -4 3
1 7 15 12 4 -5 -1 5
4 6 17 14 5 -1 -2 9
3 16 14 10 4 -4 -3 6
7 23 15 11 5 -5 -2 7
5 20 15 11 6 -4 -2 6
5 27 12 8 2 -7 -4 -1
9 25 16 11 4 -5 -1 4
8 13 20 15 6 -2 2 9
2 9 20 15 6 -1 2 9
0 8 20 14 4 -2 0 5
7 16 20 15 5 -5 2 9
9 20 18 14 4 -5 1 9
5 25 16 12 4 -4 4 6
3 23 17 11 6 -5 3 8
5 21 15 10 6 -4 2 6
5 19 11 6 5 -3 2 10
8 16 9 6 7 1 8 13
6 15 8 6 6 2 8 13
4 19 6 4 3 -1 8 12
5 28 5 2 1 -4 5 10
7 31 7 4 4 -2 7 15
6 27 5 4 4 -3 5 11
3 31 0 -2 0 -7 -1 10
2 31 -5 -5 -4 -11 -5 5
8 26 -2 -2 -1 -7 -1 6
10 15 1 0 3 -3 6 15
8 20 2 1 2 -4 8 16
12 32 1 0 -1 -6 2 7
13 29 -3 -3 -4 -10 0 9
11 25 -1 -2 -3 -8 3 17
12 20 3 4 2 -3 6 15
9 24 -1 1 -1 -8 2 5
9 21 1 1 0 -10 0 10
7 15 2 1 -1 -11 -2 8
7 15 1 0 -2 -12 -1 0
4 13 3 2 -1 -11 -3 1
2 3 5 3 0 -9 -1 3
-2 -1 3 0 -4 -13 -3 2
-2 -2 2 -1 -7 -17 -7 -5
1 0 2 -1 -8 -17 -9 -3
1 -12 5 1 -6 -16 -8 -2
-2 -12 4 0 -5 -17 -9 -4
-5 -13 2 -4 -9 -19 -11 -8
-4 -17 3 -4 -8 -20 -10 -4
-3 -8 -1 -8 -12 -23 -16 -7
-4 -5 -3 -9 -13 -24 -17 -9
-7 -3 -3 -11 -15 -25 -18 -13
-8 -16 2 -7 -12 -21 -14 -6
-7 -29 7 -1 -7 -17 -7 2
-7 -24 7 -2 -9 -19 -9 -1
-2 -14 6 -3 -9 -20 -11 -4
-5 -13 5 -4 -10 -20 -12 -5
-8 -9 -3 -10 -15 -26 -17 -8
-9 -9 -6 -12 -15 -27 -20 -10
-6 -9 -4 -11 -14 -24 -18 -11
-6 -8 -5 -10 -14 -24 -17 -8
-4 -18 -2 -9 -12 -23 -16 -10
-6 -28 3 -6 -11 -21 -12 -1
-9 -23 1 -6 -13 -24 -12 -2
-6 -19 2 -4 -13 -24 -14 -2
-3 -13 1 -7 -14 -26 -17 -5
-3 -13 4 -5 -11 -23 -17 -5
-2 -11 3 -6 -12 -23 -18 1
-2 -18 2 -5 -10 -21 -13 -2
-4 -21 0 -6 -10 -23 -14 -1
-10 -22 0 -7 -11 -23 -17 -5
-7 -12 -4 -10 -14 -25 -8 -7
-2 -15 0 -5 -11 -22 -9 -5
-5 -27 3 -2 -8 -20 -10 1
-6 -28 2 -3 -9 -20 -12 -3
-6 -21 1 -5 -11 -22 -13 -3
-10 -21 -1 -7 -13 -24 -17 -4
-6 -16 0 -5 -12 -25 -19 -11
-3 -14 5 2 -9 -25 -21 -13
-5 -8 11 12 -4 -26 -26 -20
-6 -6 23 27 5 -22 -26 -18
-3 -6 32 40 14 -18 -25 -17
-5 -1 40 52 23 -13 -20 -18
-6 7 43 57 31 -5 -11 -5
-4 19 47 67 40 3 -4 -1
2 36 50 77 53 11 2 -2
5 32 58 89 64 23 15 11
6 43 63 95 74 35 28 28
15 59 64 103 91 55 48 43
20 69 60 99 105 77 71 63
36 85 42 72 111 102 102 89
54 87 8 32 115 131 131 114
62 80 -22 -3 122 166 171 143
66 92 -57 -57 114 192 204 169
69 114 -97 -119 94 207 224 189
70 128 -127 -159 85 223 241 204
64 132 -142 -182 84 237 253 210
44 133 -144 -194 86 250 258 205
25 133 -150 -204 96 270 265 203
14 117 -156 -207 107 285 271 192
5 89 -153 -206 92 251 224 157
-7 48 -144 -203 46 163 134 93
-21 6 -135 -207 -25 63 49 34
-30 -20 -129 -206 -90 -27 -17 -4
-30 -23 -123 -193 -118 -72 -51 -30
-31 -32 -109 -166 -111 -74 -51 -34
-25 -40 -93 -137 -94 -62 -44 -29
-19 -43 -78 -111 -79 -53 -39 -27
-11 -35 -69 -95 -70 -49 -37 -31
-7 -41 -56 -79 -61 -46 -34 -31
-12 -52 -42 -63 -52 -40 -29 -24
-13 -51 -32 -49 -45 -37 -29 -19
-11 -40 -25 -39 -41 -38 -27 -24
-6 -37 -20 -29 -36 -34 -24 -26
-2 -26 -15 -22 -31 -35 -27 -21
4 -21 -9 -17 -26 -38 -27 -20
2 -36 -4 -10 -20 -34 -21 -17
-1 -41 -1 -11 -16 -30 -23 -17
-4 -27 -3 -14 -18 -32 -25 -18
-4 -20 -3 -14 -20 -33 -28 -17
-6 -28 1 -10 -16 -29 -24 -11
-8 -28 1 -9 -15 -26 -22 -14
-8 -28 7 -3 -12 -21 -15 -9
-5 -26 10 0 -10 -20 -14 -5
-5 -26 10 0 -9 -19 -12 -6
-4 -31 10 1 -7 -17 -13 -7
-6 -24 8 -2 -7 -21 -15 -7
-3 -16 6 -3 -10 -22 -18 -10
-1 -19 8 0 -7 -20 -16 -12
-5 -17 5 -4 -9 -21 -15 -7
-4 -12 3 -4 -12 -23 -19 -8
-2 -18 4 -2 -10 -20 -12 -6
-4 -24 8 1 -9 -20 -7 -3
-2 -20 9 1 -10 -20 -10 -8
-7 -28 9 2 -9 -19 -15 -12
-5 -28 10 2 -6 -17 -16 -11
0 -14 7 -1 -6 -20 -15 -9
-3 -7 3 -5 -8 -21 -19 -13
-3 -11 5 -4 -6 -19 -16 -10
-3 -30 10 2 -2 -13 -10 -2
-3 -30 10 2 -2 -12 -11 -7
-1 -26 9 3 -2 -11 -12 -9
-3 -18 8 1 -5 -11 -15 -9
-5 -16 7 0 -7 -12 -11 -4
-2 -19 9 3 -3 -12 -9 -4
-3 -21 9 2 -3 -13 -12 -1
-4 -28 10 2 -2 -12 -10 -3
-1 -19 7 -1 -1 -12 -15 -6
-1 -15 6 -2 -2 -13 -15 0
-2 -12 4 -4 -4 -14 -15 -7
-2 -8 3 -3 -4 -9 -16 -8
1 -3 2 -3 -5 -11 -17 -12
-2 -11 5 1 -4 -13 -14 -10
-3 -25 10 6 -1 -9 -7 -2
-1 -20 11 6 1 -8 -9 -8
-1 -3 6 0 -6 -14 -15 -17
-3 5 1 -5 -9 -17 -17 -22
-4 -15 5 -1 -3 -11 -11 -11
1 -27 11 6 6 -4 -4 -3
5 -31 15 10 9 1 -1 -1
1 -29 12 10 9 1 -4 -2
0 -24 12 9 6 -1 -4 -3
1 -18 11 8 4 -3 -7 -4
2 -13 8 7 2 -4 -9 -6
4 -10 8 7 4 -3 -7 -6
3 -12 7 6 4 -3 -7 -10
-2 -25 8 6 7 -2 -9 -9
0 -28 8 8 10 1 -5 -1
-1 -20 8 8 11 3 -4 -1
-1 -17 6 7 9 4 -5 -4
-2 -14 4 6 8 2 -8 -9
1 -8 3 7 7 1 -7 -5
1 -6 3 7 7 0 -6 -4
3 -11 6 11 10 4 -3 -4
2 -22 9 14 14 8 -1 -4
1 -25 9 14 16 8 -3 -4
0 -21 7 13 18 9 -2 -3
-1 -15 3 10 16 6 -4 -1
3 -14 5 11 19 9 -3 -2
3 -19 6 12 20 10 -3 3
1 -23 5 14 21 12 -1 9
4 -20 6 17 23 16 3 5
4 -17 8 19 25 18 4 6
5 -15 8 21 26 21 5 8
2 -13 5 20 27 21 4 3
4 -4 1 19 25 18 1 -1
4 -5 0 17 29 21 6 1
2 -7 -3 16 29 22 5 0
2 -6 -4 15 32 24 6 -3
5 -4 -6 15 33 26 9 9
5 -6 -6 17 34 29 11 6
7 -13 -5 21 37 33 14 6
3 -18 -7 22 39 35 18 13
8 -16 -5 25 42 39 18 18
11 -21 -2 29 48 45 25 17
7 -31 -1 32 53 49 28 20
10 -23 -4 28 53 49 27 22
13 -19 -7 27 54 50 25 22
13 -22 -9 26 54 49 25 16
15 -23 -8 25 53 49 26 18
16 -15 -13 24 51 48 26 16
11 -16 -15 24 51 49 27 18
12 -12 -16 22 49 48 26 17
13 -15 -16 25 50 51 30 15
13 -20 -14 29 54 54 36 22
18 -18 -12 29 56 55 39 21
20 -18 -12 27 56 57 37 25
19 -14 -17 25 55 55 35 31
21 -9 -19 20 53 51 29 20
20 -11 -20 19 49 50 35 21
18 -11 -21 20 48 50 32 22
15 -27 -19 22 49 52 35 26
16 -24 -16 23 49 54 35 31
18 -15 -18 21 47 51 34 20
16 -14 -19 21 45 49 34 24
16 -13 -19 18 43 47 30 22
16 -5 -21 17 41 44 27 17
15 -3 -23 13 39 42 26 17
15 -3 -21 13 38 41 24 20
15 -13 -18 15 39 44 25 23
14 -11 -22 12 33 39 20 14
14 -6 -20 13 31 37 19 15
16 1 -18 13 28 35 20 16
18 2 -15 15 29 35 22 18
16 -6 -11 17 31 35 24 17
13 -10 -10 16 28 32 20 15
12 -16 -7 19 31 33 22 23
10 -12 -6 18 29 32 23 22
11 -9 -4 18 28 31 18 22
9 -16 -2 19 28 31 17 20
12 -9 -4 15 23 26 13 21
15 -1 -3 16 22 27 15 20
11 3 -4 14 17 23 12 9
11 2 0 16 17 23 13 10
11 -2 3 19 20 25 13 10
6 -3 4 17 16 21 10 11
1 -5 3 14 14 17 5 8
1 -7 1 12 13 16 8 6
2 -1 2 13 13 17 6 14
3 -1 6 15 14 17 5 8
0 -3 4 11 9 14 3 4
0 -4 5 12 8 13 4 10
1 8 4 8 4 9 -1 9
1 14 3 6 0 7 -7 8
0 8 7 9 4 10 0 10
-5 -8 10 12 6 11 5 12
-10 -17 12 12 7 13 5 10
-8 -13 10 9 6 12 1 8
-5 -8 6 3 1 7 -4 3
-8 -7 3 1 -2 5 -6 -2
-11 -6 6 1 -1 6 -4 -4
-10 -17 11 7 3 12 2 6
-7 -16 12 7 2 10 0 5
-7 -5 9 3 -4 4 -8 2
-9 -3 8 2 -4 2 -9 -2
-9 -1 5 0 -6 1 -12 1
-13 -5 7 -1 -5 2 -11 4
-12 -7 8 1 -3 4 -9 -6
-11 -6 7 0 -4 3 -9 -7
-11 -4 4 -2 -6 1 -12 -5
-9 -2 5 -2 -7 2 -9 -2
-12 -13 10 5 -1 7 -6 0
-14 -12 12 6 -1 9 -5 4
-9 -2 14 8 1 12 -5 6
-7 -2 14 8 2 12 -4 10
-7 4 9 4 -2 6 -9 0
-6 10 9 2 -4 5 -8 -5
-10 2 7 3 -4 3 -11 -6
-13 -5 7 3 -2 5 -8 1
-12 -11 10 6 0 9 -3 6
-13 -15 14 10 4 13 -1 4
-12 -11 14 10 3 12 -2 3
-9 -6 14 12 4 13 -2 3
-8 -3 17 16 5 16 -2 5
-7 -5 15 17 6 16 -3 5
-8 -4 13 13 5 13 -3 2
-9 -5 13 13 6 12 -3 3
-4 -3 12 11 6 11 -3 4
-4 4 10 11 5 10 -3 8
-7 9 7 8 3 10 -5 2
-8 10 7 8 1 9 -8 -4
-9 10 11 12 4 11 -3 -1
-12 8 12 13 5 13 -2 2
-10 -4 15 16 7 15 -1 5
-7 -11 17 18 9 16 4 9
-7 1 13 13 6 14 -1 4
-7 -1 15 15 8 16 2 5
-6 -5 17 16 10 17 3 7
-3 2 11 12 7 14 4 7
-4 4 9 10 4 13 1 3
-6 3 10 12 4 15 -1 7
-11 1 7 10 2 11 -1 2
-6 9 9 12 3 12 -1 5
-8 10 11 13 3 11 -4 4
-10 1 13 16 5 14 -3 10
-6 -1 14 16 8 17 -1 9
-8 0 12 14 6 13 -1 8
-8 15 7 8 0 6 -5 3
-8 15 6 8 -1 6 -1 -2
-7 1 10 11 2 10 -1 6
-6 -6 14 14 5 14 3 8
-3 2 11 12 3 11 -1 5
-1 14 8 10 0 9 -4 4
-6 11 7 8 -4 5 -7 -4
-11 3 6 7 -4 7 -8 2
-9 5 5 6 -4 5 -10 -2
-7 6 7 7 -3 4 -8 -4
-6 5 9 7 -2 5 -7 -2
-7 -1 9 9 0 10 -4 2
-3 -4 8 9 0 8 -3 2
-1 0 11 11 0 10 1 3
-2 3 12 11 -1 9 -3 3
-3 2 11 11 -2 10 -1 6
-6 3 9 10 -5 6 -5 6
-8 4 9 10 -3 5 -6 1
-6 5 6 8 -4 5 -8 2
-1 8 8 10 -2 7 -7 4
-2 4 9 12 0 9 -5 9
-7 4 7 10 -1 8 -5 5
-6 14 10 11 0 7 -6 3
-3 19 12 10 -1 7 -1 7
-2 19 15 14 1 10 3 6
-6 19 14 15 1 11 -3 3
-2 16 19 18 4 12 -2 3
-1 18 18 17 3 12 2 2
-7 12 19 18 3 11 -2 3
-2 11 23 21 7 15 1 5
1 15 23 20 8 15 1 10
-2 22 17 15 4 10 -1 3
-1 32 13 13 0 8 -5 1
-5 21 13 13 1 9 -2 1
-5 3 17 20 7 15 2 8
-4 2 20 22 8 19 9 15
-3 11 17 18 5 18 8 15
-1 22 9 12 1 15 3 17
1 31 4 8 0 11 -1 12
-1 28 5 10 2 12 1 6
-1 26 5 10 3 14 7 6
-4 28 3 6 1 12 3 7
-9 26 3 7 -1 10 -1 9
-7 27 5 8 1 13 2 13
-6 30 3 7 -1 11 -3 11
-2 38 2 7 -2 11 2 7
2 35 4 8 -2 10 1 9
2 28 3 9 -1 9 1 8
2 30 4 9 1 11 4 5
6 31 2 9 1 12 5 5
7 23 2 8 1 13 1 5
9 25 1 8 2 12 2 12
2 23 -3 5 -3 7 -3 8
-7 20 -2 6 -3 6 -4 6
-7 24 -1 6 -4 5 -6 7
-7 14 -1 6 -5 4 -6 3
-5 13 3 9 -2 6 -5 5
-4 18 3 9 -4 4 -7 -2
-6 2 5 11 -1 7 -6 -2
-6 -3 4 9 -3 4 -8 1
-4 -2 4 6 -6 -2 -7 0
-2 7 1 4 -8 -3 -5 -5
-5 -4 2 6 -6 1 -5 -4
-6 -14 6 10 -5 0 -6 -4
-10 -12 5 8 -7 -3 -10 -3
-13 -5 0 4 -12 -8 -16 -13
-14 -6 -2 1 -16 -13 -19 -15
-15 -5 -4 -1 -19 -16 -23 -14
-13 -12 0 2 -13 -12 -17 -12
-5 -18 5 7 -8 -8 -11 -6
-5 -11 4 6 -9 -9 -14 -7
-8 -1 -1 1 -14 -15 -21 -16
-6 8 -3 -1 -16 -16 -22 -19
-6 4 -2 0 -17 -16 -23 -18
-8 -2 -1 0 -16 -13 -19 -17
-6 -17 5 7 -11 -7 -10 -13
-12 -18 2 4 -14 -10 -15 -14
-13 -8 -3 1 -18 -16 -20 -15
-14 -11 -4 0 -19 -16 -20 -13
-14 -13 -2 3 -17 -15 -22 -13
-11 -12 -5 0 -18 -16 -23 -15
-10 -11 -4 0 -18 -15 -21 -16
-7 -5 -5 -2 -21 -17 -22 -17
-8 2 -6 -4 -23 -17 -25 -22
-8 -8 0 2 -19 -14 -19 -15
-11 -12 -1 2 -19 -14 -18 -15
-12 -8 -1 1 -21 -16 -16 -14
-11 -8 -1 2 -21 -15 -17 -11
-9 -8 0 2 -19 -15 -17 -14
-9 -9 1 4 -17 -13 -16 -9
-10 -9 -1 1 -20 -16 -18 -11
-8 -2 -3 -1 -21 -17 -19 -15
-12 -14 -1 1 -19 -15 -18 -12
-11 -15 0 3 -18 -13 -15 -9
-10 -19 6 10 -14 -10 -17 -8
-17 -16 8 15 -14 -11 -17 -13
-20 -12 14 23 -11 -15 -22 -17
-18 -7 22 36 -7 -18 -29 -25
-19 -1 32 48 1 -18 -29 -30
-12 9 42 60 13 -9 -26 -26
-10 19 46 66 23 2 -14 -10
-9 27 49 76 35 14 -4 -3
-5 39 53 89 47 21 3 8
2 52 58 97 56 31 15 12
13 62 68 111 72 50 36 33
21 75 66 119 87 67 51 43
29 81 64 112 101 90 75 62
41 93 42 81 105 113 102 84
53 97 9 41 108 140 131 111
65 105 -27 -2 110 164 161 131
66 112 -67 -63 100 185 190 164
67 120 -104 -120 84 201 214 184
71 135 -130 -154 78 216 231 195
66 143 -143 -172 78 231 242 199
48 146 -144 -182 86 248 256 202
33 140 -152 -191 97 264 256 194
20 140 -160 -197 102 267 238 172
7 118 -160 -197 84 226 186 129
-8 50 -145 -187 44 145 104 62
-22 -3 -138 -192 -22 54 33 17
-34 -30 -135 -192 -83 -25 -25 -16
-34 -35 -127 -180 -110 -63 -54 -33
-29 -29 -114 -157 -108 -65 -55 -33
-24 -42 -92 -124 -90 -49 -42 -31
-21 -46 -80 -103 -80 -45 -42 -36
-19 -44 -68 -84 -73 -46 -40 -40
-17 -47 -52 -65 -63 -41 -34 -35
-11 -41 -39 -50 -54 -36 -34 -32
-6 -29 -30 -36 -48 -36 -33 -32
-4 -25 -24 -25 -44 -38 -35 -31
-3 -27 -18 -17 -38 -35 -38 -30
-4 -27 -11 -10 -33 -34 -32 -33
-5 -24 -9 -8 -30 -33 -27 -27
-4 -27 -3 -3 -22 -25 -25 -20
-6 -21 -6 -4 -24 -26 -21 -17
-10 -11 -8 -7 -28 -29 -27 -18
-7 -5 -7 -4 -28 -27 -26 -15
-4 -5 -2 0 -24 -26 -21 -16
-5 -9 3 6 -19 -21 -17 -13
-8 -17 6 8 -18 -20 -19 -12
-7 -21 6 8 -17 -21 -19 -13
-1 -19 9 12 -14 -19 -17 -16
-3 -21 10 12 -13 -19 -15 -15
-6 -18 7 8 -15 -21 -18 -16
-4 -9 5 6 -17 -23 -18 -18
-8 -13 6 6 -17 -23 -18 -17
-8 -16 6 8 -17 -21 -20 -10
-7 -12 5 8 -17 -22 -18 -6
-6 -3 4 7 -18 -22 -21 -11
-4 8 1 5 -21 -26 -24 -19
-7 3 3 6 -19 -25 -20 -21
-7 -11 8 11 -12 -18 -16 -15
-5 -20 11 15 -8 -10 -12 -8
0 -17 11 14 -9 -14 -12 -6
1 -13 10 13 -8 -14 -10 -7
-5 -10 7 10 -12 -17 -16 -10
-8 -16 8 11 -11 -16 -16 -12
-5 -16 9 13 -9 -14 -13 -8
-1 -12 8 14 -8 -10 -13 -1
-3 -8 6 12 -12 -13 -13 -10
-3 -1 4 9 -13 -15 -18 -12
-7 -14 5 10 -10 -15 -17 -12
-6 -12 6 12 -9 -14 -17 -14
-3 -7 5 11 -8 -14 -12 -10
-1 -9 8 12 -6 -13 -12 -9
2 -9 10 16 -4 -9 -10 -6
0 -9 9 14 -5 -10 -11 -10
-1 -11 8 12 -6 -11 -11 -11
-1 -7 10 14 -5 -10 -11 -9
-2 -9 9 13 -6 -12 -13 -15
-2 -9 6 11 -7 -13 -18 -14
-4 -16 8 14 -2 -10 -15 -14
-3 -13 8 15 -1 -11 -16 -14
-1 -10 7 14 -2 -11 -17 -12
-2 -11 8 14 -1 -9 -12 -11
1 -7 7 14 0 -8 -11 -4
3 -3 8 15 0 -6 -9 -3
2 0 6 14 -1 -7 -10 -6
2 8 2 11 -5 -11 -15 -13
-1 1 3 12 -4 -11 -13 -11
-2 -18 10 19 3 -5 -6 -6
0 -12 7 17 2 -5 -9 -10
0 -5 5 16 1 -7 -10 -11
-1 -8 5 16 3 -6 -6 -7
0 -2 5 16 3 -6 -5 4
2 -1 5 17 5 -4 -8 -2
6 3 6 17 5 -3 -5 -9
9 12 5 18 6 -1 -5 -10
7 6 6 20 8 0 -5 -9
5 -13 10 24 13 3 7 -1
4 -14 10 22 12 3 4 -3
2 -10 7 21 11 1 -6 -8
-1 -8 5 19 10 -2 -6 -7
1 -10 4 19 11 -2 -4 -3
1 -13 7 22 16 4 -1 -1
0 -13 7 23 16 4 -1 -2
4 -9 6 23 17 5 2 3
8 0 5 24 17 6 1 -2
3 -7 6 27 20 10 3 2
7 -14 6 30 24 12 9 7
5 -17 5 29 25 14 7 4
0 -14 3 27 25 13 5 2
1 -4 -2 23 22 9 1 -5
-1 -6 -1 24 27 14 7 2
2 -7 -3 24 28 15 8 10
7 -2 -3 27 30 21 9 7
8 8 -5 25 29 22 8 1
16 6 4 34 38 29 17 14
17 -6 6 39 44 33 22 20
16 -7 2 36 41 32 20 16
20 -1 2 37 45 35 22 16
15 -3 -2 36 44 35 25 18
12 -3 -8 34 44 34 21 11
12 4 -11 30 42 32 21 6
12 -6 -13 30 43 33 21 15
14 -5 -13 31 45 35 22 18
12 -6 -15 31 45 36 25 16
14 -12 -13 35 48 41 30 20
20 -7 -13 36 49 42 28 20
21 -10 -12 38 51 47 31 21
22 -15 -12 38 53 47 32 24
24 -7 -13 37 53 47 33 24
23 -8 -15 36 53 46 34 31
25 -3 -14 38 53 46 35 40
23 0 -15 36 52 47 35 27
24 -4 -16 34 50 46 35 25
24 -2 -18 32 49 44 36 26
22 -1 -20 30 47 43 39 23
20 -1 -20 29 44 41 34 25
20 -9 -16 32 47 45 40 32
19 -15 -17 31 47 44 36 34
21 -5 -21 27 44 41 30 27
24 0 -20 26 42 39 30 26
25 5 -21 24 41 38 31 19
24 8 -23 21 38 36 28 17
23 -3 -20 26 38 37 33 24
24 -6 -17 29 40 38 37 25
24 2 -17 26 39 38 31 22
20 2 -17 24 34 36 26 25
20 4 -15 24 33 33 26 22
20 6 -14 24 33 31 25 21
21 0 -14 24 34 31 32 23
18 -5 -11 25 33 31 30 21
15 -9 -10 24 31 30 26 20
16 -6 -9 26 31 28 24 21
15 -3 -5 28 31 28 23 22
15 -7 -3 28 32 28 27 23
15 -5 -3 28 28 25 29 28
14 1 -4 24 25 21 21 19
14 10 -3 23 22 19 18 17
15 14 -1 24 23 18 15 21
14 14 -1 23 21 17 14 14
14 22 -3 20 18 12 13 9
11 17 0 20 17 13 11 7
10 6 3 22 20 14 12 9
13 8 6 24 21 16 14 11
11 16 5 21 16 11 9 9
11 13 4 20 15 10 8 12
11 7 6 20 14 10 9 10
9 -3 10 22 14 10 9 11
6 -6 11 21 14 9 9 9
3 -4 13 22 16 13 10 15
1 -2 9 16 11 10 6 4
-1 -3 8 14 8 6 3 3
-2 -8 8 15 10 7 8 8
2 1 8 13 9 6 10 5
3 9 7 9 7 4 5 5
-3 -1 9 12 7 6 4 5
0 0 11 13 6 8 8 5
-1 4 9 10 2 4 0 3
-6 0 7 7 0 -1 1 -2
-4 3 8 8 2 0 1 1
-3 -1 11 10 5 5 2 4
-4 -11 12 11 6 4 3 6
-8 -12 11 10 7 3 5 6
-4 -3 12 11 6 2 4 5
-2 4 12 10 6 1 5 3
-8 5 8 9 4 0 -2 0
-6 -2 10 11 4 1 -1 4
-1 -6 13 14 6 3 3 7
0 3 11 12 5 0 4 8
0 5 13 14 7 2 4 3
1 -2 13 13 8 2 2 2
-2 -5 13 12 8 3 2 6
-2 6 10 10 5 0 1 3
-1 3 12 11 6 2 5 8
0 6 12 11 6 2 3 4
3 17 11 11 6 2 3 6
0 17 10 11 5 1 2 2
0 14 11 12 6 1 5 0
0 16 11 14 7 2 8 2
-2 11 14 15 8 4 6 3
-1 -2 17 18 13 7 8 3
1 1 16 16 13 5 9 5
0 3 15 16 13 5 7 5
0 5 15 16 12 8 7 7
0 0 16 17 11 9 7 6
-2 -4 16 18 12 9 10 5
-2 3 14 15 10 5 9 3
1 6 13 14 9 4 5 6
3 8 13 15 10 5 6 4
5 9 12 15 10 6 6 6
0 6 10 12 7 1 2 2
-2 10 12 13 9 3 3 3
-3 15 10 12 7 4 3 2
-4 8 13 14 9 7 8 5
-1 9 14 15 9 4 8 5
2 12 12 14 7 4 7 8
1 18 8 10 3 0 2 10
-3 7 10 14 5 0 6 7
-4 2 13 19 8 4 10 5
-2 11 11 15 7 3 8 2
2 16 10 12 7 2 8 2
1 16 7 9 4 0 9 3
-3 7 10 12 7 4 10 6
-1 0 15 16 12 11 14 10
4 0 18 18 12 14 15 7
3 3 16 17 11 10 13 3
0 8 13 13 6 3 9 5
0 13 8 8 -1 -2 5 5
-2 7 6 8 -1 -1 5 -2
0 4 11 11 3 1 10 5
1 6 12 11 4 1 8 1
0 8 10 9 2 -3 8 2
2 4 12 10 2 -3 7 4
3 1 13 11 3 0 8 3
4 6 11 8 0 0 7 1
3 7 12 10 0 -1 10 2
1 13 10 7 -1 -2 7 -1
2 13 11 7 -1 -2 6 -3
3 8 10 8 -1 -3 7 -4
-2 5 9 5 -4 -7 2 -7
1 2 11 8 -1 -5 3 -2
4 3 11 9 1 -4 6 1
4 2 9 9 -1 0 3 4
5 -3 12 11 2 -1 5 7
2 -2 11 9 1 -3 7 6
4 6 14 11 1 -1 8 4
6 18 12 10 0 0 7 2
3 16 12 9 -1 -5 5 -2
5 15 17 13 2 -1 10 1
5 12 18 14 3 1 9 8
1 11 15 9 1 -4 6 7
3 22 16 8 1 -5 5 1
3 21 21 13 4 -1 9 5
7 23 23 14 5 3 11 3
4 24 19 12 3 0 7 1
6 22 20 13 3 -1 9 0
12 20 23 17 7 6 17 5
10 13 24 19 8 5 17 6
5 12 21 16 6 3 15 7
4 10 21 14 7 2 19 8
2 11 14 9 5 0 13 7
2 13 11 7 4 0 13 5
6 21 7 6 3 0 14 8
9 26 5 4 2 0 16 12
13 28 6 5 4 5 18 13
7 22 7 5 3 2 17 11
7 27 7 5 3 2 17 12
11 31 6 4 2 1 15 5
8 32 4 2 1 0 13 3
6 33 1 0 -2 -2 12 4
7 25 3 2 2 0 15 8
8 21 5 5 3 1 14 11
10 20 8 8 4 2 15 8
9 21 5 1 0 -2 12 5
9 21 1 0 -2 -4 12 10
8 20 0 2 -2 -3 11 10
8 21 3 3 0 0 13 12
14 21 5 3 0 -2 16 7
13 20 5 3 -1 -5 13 8
8 13 4 1 -3 -7 7 6
8 13 4 2 -2 -3 5 2
7 13 1 0 -4 -8 2 -1
6 11 1 -2 -7 -14 1 -5
1 5 1 -4 -9 -15 -2 -7
-1 -8 3 -2 -8 -14 -3 -5
-2 -16 7 1 -7 -13 0 -7
-3 -7 4 -2 -10 -16 -5 -7
-4 -2 2 -4 -12 -18 -7 -6
1 -2 0 -5 -13 -20 -10 -16
-2 -6 -1 -7 -14 -20 -9 -14
-4 0 -5 -13 -19 -24 -13 -18
-1 -9 0 -8 -14 -19 -9 -13
1 -11 3 -6 -11 -17 -7 -8
0 -10 3 -6 -11 -18 -5 -10
-3 -12 3 -7 -13 -18 -9 -12
-4 -14 1 -8 -16 -16 -12 -7
-3 -13 1 -8 -16 -20 -12 -14
-4 -11 -1 -10 -18 -25 -15 -17
-4 -15 2 -6 -14 -22 -12 -12
-3 -18 6 -3 -10 -18 -9 -7
-3 -15 5 -4 -10 -19 -10 -7
-1 -13 4 -5 -10 -19 -10 -9
-6 -14 2 -7 -13 -22 -13 -15
-8 -10 -3 -13 -17 -24 -16 -18
-3 -5 -4 -13 -19 -26 -15 -15
-4 -15 -1 -9 -15 -23 -11 -12
-3 -21 3 -5 -12 -20 -3 -8
-4 -20 2 -4 -11 -18 -7 -3
-5 -21 1 -6 -12 -20 -10 -4
-7 -15 -1 -9 -13 -24 -11 -15
-8 -6 -7 -13 -18 -28 -18 -12
-7 -1 -7 -15 -18 -29 -20 -13
-2 -2 -3 -11 -16 -27 -14 -16
-2 -9 1 -8 -11 -23 -11 -13
0 -18 4 -4 -9 -21 -10 -14
-2 -24 4 -5 -10 -18 -6 -12
-5 -25 2 -6 -10 -20 -5 -9
-2 -15 -1 -9 -12 -23 -13 -13
-4 -13 1 -6 -12 -25 -15 -19
-8 -21 9 5 -6 -22 -12 -12
-9 -22 17 17 1 -21 -15 -16
-10 -21 24 29 8 -23 -21 -25
-10 -14 34 41 14 -22 -24 -26
-8 1 42 50 24 -15 -22 -27
-6 18 43 55 33 -4 -14 -20
1 32 49 69 48 8 -1 -8
8 39 57 85 63 23 13 6
13 41 64 95 73 34 26 18
21 56 67 103 86 50 43 34
27 71 65 107 101 68 61 45
35 81 55 92 109 87 84 65
47 88 29 56 111 114 112 89
59 97 -7 14 114 140 145 114
73 108 -42 -30 114 169 180 143
76 122 -79 -90 99 189 210 171
73 128 -110 -138 87 206 230 193
76 139 -132 -168 82 220 243 203
68 140 -137 -182 84 233 256 206
47 142 -139 -193 92 250 263 208
29 127 -148 -200 104 269 263 195
13 108 -150 -203 107 264 245 172
0 74 -144 -201 79 204 174 118
-15 26 -134 -201 26 113 88 53
-27 -10 -130 -206 -46 22 16 16
-32 -27 -126 -201 -97 -48 -33 -16
-34 -34 -114 -181 -107 -65 -47 -30
-26 -29 -98 -151 -94 -60 -41 -28
-16 -28 -84 -127 -82 -56 -39 -33
-12 -29 -74 -109 -75 -54 -42 -39
-10 -29 -61 -90 -66 -50 -41 -42
-16 -44 -48 -74 -57 -46 -35 -38
-16 -52 -35 -57 -45 -39 -29 -26
-14 -49 -27 -46 -42 -35 -29 -29
-14 -44 -20 -33 -36 -36 -27 -29
-10 -36 -16 -25 -31 -36 -24 -25
-1 -26 -10 -19 -25 -32 -23 -25
-1 -24 -5 -16 -21 -31 -22 -18
-2 -24 -2 -13 -18 -29 -20 -13
-6 -25 -1 -12 -15 -30 -21 -15
-5 -20 -3 -11 -15 -29 -20 -16
-4 -9 -5 -13 -17 -30 -17 -16
-7 -8 -1 -10 -13 -25 -12 -16
-6 -16 4 -4 -9 -21 -13 -10
-10 -20 4 -3 -10 -22 -16 -10
-10 -11 1 -7 -14 -27 -20 -18
-8 -7 2 -6 -14 -28 -21 -20
-8 -11 5 -4 -11 -26 -18 -20
-7 -21 9 1 -6 -23 -11 -17
-8 -32 12 2 -3 -19 -6 -8
-7 -22 12 2 -2 -18 -11 -4
-4 -13 10 0 -4 -20 -13 -4
-6 -18 9 1 -5 -20 -11 -4
-4 -17 11 4 -3 -17 -2 -2
-2 -15 13 5 -3 -15 -7 -6
-3 -17 11 3 -4 -18 -8 -12
-1 -8 6 0 -7 -19 -10 -12
-2 -1 5 -1 -7 -21 -15 -12
-3 -5 5 -1 -6 -21 -15 -14
-2 -16 5 -1 -4 -19 -13 -10
-1 -17 5 -1 -3 -18 -11 -11
1 -13 6 -1 -4 -17 -6 -11
0 -10 4 -3 -6 -17 -14 -17
-3 -4 1 -6 -10 -21 -18 -21
-3 -13 7 0 -4 -16 -14 -15
1 -14 8 2 -3 -17 -14 -14
5 -8 6 1 -3 -17 -15 -14
3 -14 8 4 1 -12 -13 -10
-7 -25 7 3 0 -13 -12 -7
-8 -22 3 -3 -3 -13 -10 -15
-3 -12 4 -2 -1 -13 -14 -17
-5 -12 5 -2 -1 -15 -16 -13
-1 -12 6 1 1 -13 -14 -12
2 -11 7 2 0 -13 -13 -13
0 -13 7 3 -1 -13 -13 -16
1 -14 10 5 1 -12 -12 -14
3 -4 5 3 -1 -12 -12 -16
1 3 1 -1 -2 -13 -15 -17
0 2 2 0 1 -12 -12 -12
0 -9 7 3 4 -10 -8 -8
1 -8 6 2 4 -8 -8 -12
2 3 2 -1 2 -10 -13 -14
4 3 3 0 3 -9 -10 -15
8 -6 6 5 7 -5 -7 -14
2 -22 11 11 12 -1 -5 -4
2 -15 10 10 9 -3 -6 -1
6 -6 11 11 10 -3 -5 -6
5 -8 10 9 11 -2 -6 -7
4 -10 9 9 12 -2 -7 -11
3 -14 9 9 13 -1 -6 -10
0 -14 6 7 11 -4 -8 -10
3 -4 3 5 8 -9 -9 -9
3 -7 3 6 7 -7 -6 -12
2 -19 6 9 11 0 -2 -9
4 -8 3 7 10 -1 -3 -10
1 -5 1 6 10 -2 -6 -12
5 4 3 7 13 2 -3 -12
10 10 5 10 16 6 -2 -9
6 5 5 8 17 6 1 -12
6 -4 7 12 21 7 4 -3
6 -14 11 16 27 13 6 6
2 -21 9 17 28 13 8 2
4 -17 6 16 27 13 8 -2
1 -12 3 15 25 10 2 -4
-3 -7 -1 12 21 7 -2 -5
-2 -12 -1 16 26 12 3 -5
4 -5 0 17 30 18 6 -3
8 -3 1 18 34 20 10 1
5 -13 2 19 38 25 14 3
6 -12 -1 18 38 28 13 2
7 -5 -4 18 40 27 10 0
7 -4 -4 19 41 24 10 4
12 -11 1 24 47 34 18 9
12 -12 0 24 48 39 22 6
10 -14 -1 25 50 44 27 10
11 -14 -2 26 52 41 25 10
12 -12 -3 24 53 43 25 11
14 -9 -4 25 56 44 26 17
13 -11 -5 26 57 45 29 12
14 -12 -9 25 57 46 31 16
15 -11 -13 22 57 47 29 14
15 -18 -11 24 61 50 36 17
16 -19 -14 24 61 51 35 16
19 -11 -15 24 59 50 37 20
18 -10 -15 23 59 52 36 20
19 -8 -13 24 60 51 32 19
21 0 -17 21 59 50 33 20
16 0 -23 16 56 45 28 13
16 -6 -22 17 58 47 29 11
21 -8 -20 20 60 50 33 17
24 -15 -15 24 66 56 37 25
24 -11 -16 24 65 55 37 24
20 -7 -18 20 60 52 36 21
19 -10 -17 20 60 52 36 25
18 -9 -16 20 58 50 36 30
20 -5 -17 20 57 47 35 26
18 -4 -18 18 54 46 32 28
18 -10 -18 18 54 49 32 22
22 -10 -13 20 57 52 35 23
23 -13 -15 19 56 49 35 23
21 -5 -19 17 51 45 28 16
20 3 -19 15 48 39 25 13
18 4 -17 14 47 41 29 19
15 3 -17 14 45 39 28 21
16 0 -14 17 47 42 30 21
21 -5 -9 21 49 44 34 23
23 0 -12 19 47 40 32 21
16 -3 -14 15 43 34 26 20
11 -3 -14 14 42 33 24 18
12 2 -15 14 40 32 27 22
8 1 -12 14 38 31 25 18
4 -1 -11 13 37 28 21 18
10 3 -10 13 34 27 19 16
11 5 -7 14 33 28 16 14
7 5 0 18 33 22 17 18
12 12 3 19 34 22 16 17
10 8 4 20 33 20 16 15
9 11 0 14 28 16 17 7
5 12 -2 13 26 14 10 5
4 11 1 14 26 12 9 8
6 -2 6 18 30 15 10 11
6 -5 6 17 28 13 10 16
5 -1 5 13 23 11 8 10
2 -2 4 11 21 9 7 6
-1 0 5 11 19 7 4 6
4 12 4 7 15 2 0 4
0 9 5 8 16 2 0 3
3 2 8 10 18 5 2 6
4 0 10 10 19 5 2 10
-4 0 6 6 14 -1 -1 9
-3 5 8 7 14 -2 1 6
-1 2 10 7 15 -1 -1 6
-5 3 9 6 12 -4 -2 0
-4 0 9 7 12 -3 -2 5
-6 -2 8 6 10 -3 -5 3
-6 1 9 4 9 -5 -7 -3
-4 0 12 6 11 -4 -6 -3
-6 -6 11 5 13 -4 -2 -3
-6 -8 14 9 13 -1 0 3
-3 -5 14 8 13 2 -2 11
3 -3 15 7 16 3 0 4
3 1 15 8 16 3 1 6
-3 -2 15 7 13 4 0 4
-7 2 16 6 11 -1 -3 2
-6 5 17 6 12 -3 1 4
-8 5 16 7 12 -4 -2 0
-4 6 15 8 10 -3 -6 -1
-2 9 15 7 12 -4 -6 -5
-5 12 13 6 11 -5 -5 -5
-3 8 16 9 12 -4 -4 -2
-2 2 17 12 15 0 -2 5
-7 8 12 5 10 -6 -7 0
-8 13 10 4 8 -5 -3 -3
-10 6 9 6 8 -5 -2 2
-7 -1 13 9 12 -1 -1 5
-5 2 15 12 15 4 4 7
-1 7 14 12 15 6 2 3
0 8 15 12 17 5 4 1
-2 4 17 14 19 10 10 1
-1 5 19 16 20 13 7 7
0 10 18 15 19 12 8 10
-3 14 17 12 16 7 5 2
-5 17 17 11 14 6 1 7
-4 7 18 14 17 8 5 15
-2 8 17 15 17 5 5 9
1 18 14 13 15 4 -2 2
-2 8 17 16 18 6 1 11
-8 -2 16 15 18 7 2 10
-4 2 13 12 16 6 1 6
-7 0 14 12 16 5 1 3
-6 3 15 14 17 6 3 5
-4 13 13 12 16 6 3 13
-3 11 11 12 15 7 7 15
-2 13 13 12 15 7 10 14
1 17 17 13 16 7 10 12
3 16 18 13 15 6 8 8
-1 10 19 17 16 10 7 7
-1 15 13 12 13 5 1 4
0 23 10 7 10 1 -3 0
-3 12 15 12 14 5 0 3
-2 1 17 15 16 8 5 11
1 12 16 13 16 9 6 14
5 21 13 11 13 4 4 4
10 26 14 13 13 5 4 10
10 17 18 17 16 9 8 15
5 12 18 17 15 9 8 20
7 18 20 21 18 11 9 14
7 21 24 22 19 15 9 13
5 22 24 18 17 12 11 14
8 26 24 17 18 15 13 18
2 22 22 16 17 11 8 8
-2 16 22 15 15 9 8 10
1 20 23 18 15 11 14 14
3 25 22 18 15 9 11 14
4 38 20 16 13 8 8 12
3 34 24 18 14 10 11 11
2 28 27 21 16 11 10 13
1 26 27 20 16 10 9 13
1 25 25 18 14 9 11 14
3 25 25 18 14 7 10 15
3 29 22 17 14 10 12 15
1 27 24 15 13 12 11 15
2 35 17 9 9 9 11 15
4 40 11 5 7 7 14 13
4 37 10 6 9 9 21 17
5 33 12 8 10 14 17 21
4 31 12 9 11 13 16 23
5 27 13 9 11 11 15 24
4 31 10 7 10 12 15 24
3 33 7 5 8 11 14 22
0 35 3 2 5 10 12 22
6 38 4 2 6 11 13 19
9 39 5 4 7 10 14 19
9 42 3 3 6 7 9 19
8 43 2 2 3 9 8 16
13 43 3 2 3 9 10 22
12 37 5 6 5 8 15 21
13 33 9 8 8 8 12 22
12 29 9 8 8 11 12 21
11 17 11 9 9 14 13 22
7 18 8 5 5 10 11 17
6 20 7 3 2 8 9 13
2 15 9 5 2 5 8 14
6 15 12 7 3 6 8 11
6 12 12 8 2 4 7 12
1 8 11 5 -1 0 3 12
2 4 7 3 -3 0 4 7
0 7 7 2 -4 -3 -1 4
-1 7 6 0 -6 -4 -3 7
1 6 10 0 -6 -4 -3 8
-1 2 8 -1 -6 -5 -4 4
0 -1 8 -2 -7 -6 -5 0
-2 0 8 -2 -10 -7 -7 2
-3 -4 9 0 -9 -6 -7 0
0 1 9 -1 -11 -6 -7 -2
-2 3 11 -1 -11 -6 -6 2
-5 3 9 -3 -13 -10 -7 -1
-5 0 9 -2 -11 -6 -5 1
-7 -5 7 -2 -12 -5 -6 -3
-4 -10 11 0 -9 -4 -5 -2
-4 -4 10 0 -8 -5 -4 5
-6 -10 8 -3 -12 -8 -6 -1
-4 -7 7 -4 -14 -8 -7 -3
-3 8 4 -5 -16 -12 -13 -6
-3 3 5 -4 -15 -12 -12 0
-4 -15 10 1 -10 -5 -2 6
-7 -18 10 1 -10 -3 -3 5
-5 -12 10 1 -10 -5 -5 4
-2 -3 8 -3 -13 -7 -5 5
-3 -3 7 -5 -14 -8 -5 -1
-3 -5 8 -3 -12 -6 -6 -1
-3 -1 6 -5 -14 -7 -6 3
1 2 7 -3 -13 -6 -1 3
-2 -1 6 -4 -14 -7 -7 3
-2 -5 7 -3 -14 -4 -9 0
-2 -10 10 0 -12 -3 -5 6
-8 -5 5 -4 -16 -11 -9 -1
-2 4 4 -5 -16 -10 -12 -4
5 12 7 -4 -14 -8 -8 5
2 3 5 -5 -15 -9 -7 2
-4 -10 9 1 -10 -7 -5 -4
-3 -2 12 7 -9 -7 -9 -10
-3 3 21 21 -2 -5 -14 -9
-1 -1 36 40 10 -1 -7 -6
-2 -4 44 51 18 -1 -9 -9
-6 11 46 54 21 0 -12 -5
-3 27 47 61 32 9 -5 3
-4 36 52 72 44 19 3 10
4 49 58 85 56 30 15 18
11 55 66 94 67 42 29 24
15 71 65 99 75 54 42 35
20 81 66 104 90 74 66 54
27 87 59 95 104 99 94 76
39 91 30 61 106 124 121 101
56 94 -1 22 112 158 156 127
65 110 -34 -20 114 191 191 154
71 129 -73 -80 98 214 223 180
71 129 -103 -131 85 234 255 213
69 124 -123 -161 82 254 270 227
59 140 -130 -178 82 267 273 221
38 146 -130 -186 88 284 278 217
22 148 -140 -196 96 298 281 212
10 137 -149 -202 94 294 264 194
-5 106 -145 -205 60 231 194 136
-17 53 -132 -201 10 142 108 76
-28 15 -120 -203 -60 42 33 27
-33 -7 -113 -195 -109 -35 -23 -10
-31 -16 -102 -172 -117 -57 -41 -22
-25 -19 -87 -142 -101 -48 -35 -14
-18 -26 -74 -117 -85 -40 -31 -14
-15 -23 -65 -97 -76 -39 -31 -16
-13 -22 -58 -84 -70 -38 -33 -20
-7 -26 -43 -65 -59 -30 -26 -20
-5 -30 -29 -47 -49 -21 -16 -15
-6 -36 -20 -36 -45 -25 -20 -16
-4 -32 -13 -26 -40 -25 -24 -19
-2 -26 -10 -18 -34 -24 -24 -23
-3 -21 -7 -14 -31 -27 -24 -18
-3 -3 -10 -18 -32 -31 -27 -16
-2 -3 -8 -17 -29 -28 -25 -17
1 -23 3 -7 -17 -19 -14 -9
-4 -28 5 -6 -16 -16 -10 -4
-9 -26 5 -5 -16 -15 -6 -5
-5 -15 8 -3 -16 -13 -5 -6
-4 -10 9 -2 -17 -12 -5 -1
-8 -15 9 -2 -17 -9 -8 -4
-3 -4 12 2 -13 -11 -9 1
-2 1 12 2 -12 -12 -10 -4
4 7 12 0 -12 -14 -12 -9
-1 4 11 -1 -12 -13 -12 -9
-3 -2 11 0 -12 -14 -13 -5
1 -3 13 1 -9 -11 -10 -5
1 2 12 1 -10 -10 -8 -1
0 3 11 1 -12 -10 -8 -2
-1 -4 12 3 -13 -10 -8 -1
0 -1 13 3 -13 -11 -8 -1
2 1 13 4 -12 -10 -8 3
-1 -7 17 8 -7 -6 -5 3
-1 -7 14 5 -8 -5 -5 -1
5 -6 16 7 -3 -3 2 2
5 -2 13 5 -5 -7 -3 -3
3 1 12 2 -7 -8 -7 1
2 -5 11 2 -9 -4 -9 0
1 0 8 1 -12 -8 -10 -9
0 0 9 2 -12 -11 -10 -9
0 -7 13 5 -8 -7 -7 -3
0 -6 13 6 -9 -8 -7 -4
0 -5 11 4 -8 -9 -8 -3
-4 -6 9 1 -9 -10 -10 -4
-2 -2 10 1 -7 -6 -9 -3
2 1 10 3 -5 -4 -7 -3
0 2 11 3 -5 -4 -4 -4
3 2 11 4 -5 -6 -4 -1
2 -4 11 5 -5 -4 -4 0
1 -4 13 7 -5 -4 -6 -2
-1 1 13 7 -6 -5 -7 -2
-7 -5 12 7 -5 0 -6 -7
-3 -9 14 7 -2 1 -2 -9
0 -10 14 8 0 -1 0 -7
-4 -7 10 3 -2 -2 -5 -7
-4 -4 9 4 -1 -3 -2 -3
-2 0 7 3 -2 -5 -3 -2
-1 1 5 1 -5 -6 -6 -9
-1 0 7 4 -3 -2 -3 -8
-3 -7 9 6 -3 -1 -1 -8
2 -1 12 9 0 2 3 -1
6 7 12 9 2 2 -1 -2
3 7 11 8 0 -1 -5 -12
5 9 11 8 2 -2 -4 -4
4 6 10 7 3 -1 -4 -5
3 3 9 7 4 0 -4 1
5 -3 12 9 6 5 0 9
-1 -5 10 8 4 2 1 -2
-4 5 9 8 3 2 0 -7
-1 13 5 5 0 -2 -7 -9
1 1 11 10 5 2 -1 -1
6 -10 17 19 14 11 8 5
6 -1 14 16 13 9 5 0
3 4 8 11 9 4 -1 -8
0 10 5 7 8 2 -3 -3
-1 8 2 7 10 2 -2 -4
2 -5 7 12 16 10 4 -2
3 0 7 11 16 11 5 1
1 -4 8 14 19 14 10 0
4 -6 10 19 22 21 13 4
5 -9 13 22 26 23 13 11
5 -8 11 22 28 22 13 7
8 -11 12 25 30 24 15 7
7 -11 8 22 30 23 16 15
7 -2 5 18 30 23 14 5
4 0 0 15 29 21 12 2
1 3 -5 11 26 19 9 1
8 1 0 19 34 29 17 7
9 2 1 20 36 34 21 9
9 -5 -1 22 37 35 23 10
10 -6 0 24 41 39 26 13
12 -4 1 26 44 45 29 11
11 -7 0 26 45 41 31 15
11 -11 -3 25 47 42 30 15
11 -10 -3 25 50 43 30 13
16 -8 -5 26 51 48 31 16
16 -9 -7 24 51 48 31 21
14 -6 -7 26 53 49 36 22
17 -2 -7 25 53 51 35 18
16 2 -12 22 50 48 34 16
17 1 -13 22 48 48 34 18
16 -6 -11 24 51 48 35 16
13 -4 -13 23 51 48 33 18
16 2 -15 21 51 46 34 19
18 7 -16 20 51 46 34 20
21 3 -17 20 51 46 34 20
23 -3 -13 25 54 50 35 22
24 -9 -13 24 53 49 35 22
24 -2 -12 23 51 52 37 27
21 -2 -14 22 49 49 39 26
18 -7 -10 25 50 50 42 23
16 -5 -11 24 48 49 41 23
15 -1 -14 22 46 47 38 22
19 4 -15 19 44 44 35 21
20 3 -16 17 44 42 34 21
18 -1 -17 17 43 42 33 18
21 0 -15 18 42 41 32 26
22 3 -14 19 41 40 33 26
18 3 -13 18 38 39 32 26
16 1 -13 18 36 36 30 23
16 5 -14 16 32 31 26 23
16 19 -14 14 29 28 24 16
12 8 -10 15 31 28 23 20
10 -4 -8 16 31 28 25 27
9 -1 -10 13 27 22 22 22
13 10 -11 12 25 20 17 16
16 13 -8 14 24 22 20 18
14 2 -4 18 26 24 22 24
13 -4 -1 20 25 22 23 22
14 1 0 19 22 19 19 14
13 12 0 17 19 16 14 9
9 9 5 19 20 14 15 11
9 0 8 21 21 13 14 7
6 2 6 17 18 9 10 11
3 5 2 12 13 5 6 7
2 11 1 10 11 4 4 4
2 13 2 10 8 2 2 3
6 11 8 15 12 8 8 8
6 7 10 17 13 12 11 10
4 8 10 16 10 6 8 12
6 16 9 14 8 2 6 10
5 15 11 13 7 1 6 8
4 12 11 12 6 4 2 2
2 8 10 10 6 5 0 6
-3 2 10 7 5 0 0 3
-2 6 10 5 2 -2 -1 0
0 3 13 7 4 -1 1 7
-2 5 11 5 1 -3 0 7
1 18 10 3 -2 -6 -1 -1
-1 22 10 2 -3 -7 -4 -1
-4 19 11 4 -3 -5 -3 -3
-3 20 10 3 -4 -8 -5 -4
-4 17 10 2 -2 -7 -7 -7
-4 8 13 5 1 -5 -6 -3
-7 -8 15 8 6 -1 -3 6
-5 0 13 4 3 -1 -4 4
-2 16 11 2 0 -3 -7 -3
-5 17 10 3 -1 -4 -6 -4
-7 -1 12 6 3 -1 0 4
-9 -2 12 6 1 -3 -4 1
-9 3 10 6 0 -4 -3 1
-1 10 12 8 2 -2 -1 1
1 9 12 8 4 1 0 -2
-3 7 12 7 4 -3 1 -5
-4 13 12 8 5 -2 0 -5
-5 9 12 8 7 3 -1 0
-4 2 14 9 8 3 1 2
-1 9 13 9 5 2 -1 3
-8 8 12 8 4 -2 1 0
-5 10 14 9 5 -1 1 3
-2 10 15 12 6 2 -1 -4
-1 16 15 12 7 1 -3 -7
0 16 15 11 9 2 0 -2
-2 16 16 12 9 3 2 -2
-1 16 14 11 8 1 1 2
-1 13 14 12 10 1 -1 4
-4 11 13 12 9 1 0 4
-2 16 11 11 6 -1 -2 3
-4 27 6 9 1 -5 -5 -4
-5 26 7 9 2 -5 -4 -2
1 15 17 18 11 5 6 7
0 6 19 20 13 9 7 7
-3 6 18 18 11 7 8 3
-7 10 15 14 9 3 6 1
-3 10 16 14 10 8 5 4
2 15 15 14 11 9 5 7
2 14 14 14 9 3 4 2
0 19 12 13 7 2 2 5
-1 23 11 12 5 3 5 2
-2 22 9 11 4 3 3 2
-5 24 7 10 -1 -1 -1 5
-5 30 5 8 -2 -2 -2 4
-7 20 7 9 -1 -2 -1 -2
-9 6 12 15 5 0 1 3
-10 -2 14 14 7 2 2 4
-9 12 9 10 4 -1 0 2
-1 17 13 14 8 4 4 2
-3 11 14 15 6 4 4 2
-4 23 8 10 0 -2 0 0
6 38 9 10 1 -3 -1 -1
5 19 15 16 6 4 5 3
5 9 18 20 11 9 8 9
5 15 16 17 9 5 9 4
0 15 15 15 7 3 8 2
1 11 18 18 11 7 8 4
2 12 21 20 13 8 11 6
3 19 21 19 12 7 7 6
0 19 20 19 10 7 9 9
0 21 18 18 9 6 9 5
2 23 22 20 10 10 10 13
0 34 22 21 10 9 8 9
4 39 22 23 10 8 6 8
3 36 21 19 9 5 6 4
1 26 22 19 9 5 6 4
3 31 23 19 11 6 8 12
-1 21 25 24 14 10 13 12
-5 14 23 20 12 10 11 6
5 26 24 22 14 9 14 9
7 34 25 23 15 14 17 10
5 41 22 19 12 10 13 9
6 43 17 14 9 7 9 8
6 38 15 14 10 8 14 14
7 36 13 14 11 9 12 10
5 34 11 12 10 8 15 11
5 37 8 9 8 5 14 13
4 44 7 5 6 3 10 9
0 43 6 4 5 3 7 10
1 47 3 3 2 1 4 10
3 45 2 5 5 4 7 12
-1 41 2 5 3 7 8 10
0 43 1 6 4 10 9 12
3 43 2 7 6 6 10 13
3 36 5 9 8 7 10 11
3 28 6 10 10 8 10 13
3 24 4 8 8 6 9 8
7 28 3 8 7 5 8 10
10 25 4 10 9 8 9 16
9 28 1 6 5 5 6 11
3 27 1 7 4 1 3 6
-5 14 6 10 4 1 5 4
0 19 8 12 6 3 5 7
8 25 9 12 7 3 5 3
2 18 8 11 6 2 4 -2
-1 21 5 6 1 -3 -5 -7
0 20 5 5 0 -4 -4 -5
-1 16 5 4 0 -5 -4 -6
-2 16 6 3 -1 -5 -3 -6
-6 14 4 1 -3 -7 -5 -9
-9 13 1 0 -6 -11 -9 -10
-7 1 6 3 -4 -8 -7 -5
-8 -10 9 6 -2 -5 -4 -2
-11 -7 6 5 -3 -7 -7 -6
-13 -5 5 4 -4 -9 -8 -7
-13 4 1 -1 -7 -13 -13 -10
-15 -1 2 1 -5 -10 -11 -11
-8 -5 6 5 0 -5 -10 -7
-4 4 6 4 0 -5 -7 -9
-8 -4 8 5 0 -5 -3 -8
-13 -5 4 2 -5 -10 -11 -11
-14 -11 6 4 -3 -9 -11 -10
-12 -9 10 7 0 -6 -8 -7
-12 -9 9 6 -1 -6 -7 -5
-10 -5 8 5 -2 -4 -8 -5
-12 -2 6 4 -2 -6 -8 -9
-14 -7 3 2 -2 -8 -8 -13
-14 -9 4 4 1 -6 -7 -12
-12 3 -1 0 -3 -9 -10 -11
-9 11 -2 -1 -3 -9 -10 -4
-14 11 0 0 -4 -7 -11 -12
-12 -10 3 3 -1 -4 -6 -11
-8 -5 3 3 -2 -6 -9 -11
-10 2 1 1 -3 -9 -13 -12
-11 2 0 0 -3 -10 -13 -7
-11 7 -3 -3 -6 -12 -14 -10
-9 8 -2 -2 -5 -11 -12 -5
-8 3 1 1 -1 -8 -7 -1
-7 1 1 2 -2 -7 -8 -6
-8 -1 2 3 0 -7 -10 -7
-10 -6 7 10 3 -5 -9 -5
-13 -10 14 20 9 -2 -9 -5
-10 -10 26 34 15 -2 -11 -9
-10 -9 35 47 22 -3 -15 -17
-11 -3 39 54 26 -4 -18 -20
-12 12 45 61 34 1 -15 -17
-7 31 50 68 47 12 -6 -8
-7 30 56 82 63 26 9 3
-3 43 58 91 72 33 16 8
4 66 60 97 77 40 22 18
14 78 68 110 92 59 44 33
22 84 70 120 110 80 66 56
27 91 61 108 120 101 89 76
36 98 33 72 123 124 119 92
51 103 -3 28 125 149 144 115
63 111 -39 -14 127 178 174 136
64 129 -78 -76 113 198 202 166
63 133 -113 -131 100 219 227 187
59 135 -135 -160 97 239 244 198
56 140 -144 -174 101 251 256 205
40 140 -143 -181 111 273 271 208
26 139 -149 -189 123 291 273 204
13 122 -151 -187 130 295 259 185
-2 94 -151 -190 101 237 192 128
-14 48 -141 -189 48 143 103 62
-27 9 -132 -192 -21 49 31 17
-33 -17 -129 -191 -78 -24 -24 -12
-33 -18 -119 -174 -95 -53 -45 -26
-32 -17 -105 -148 -88 -52 -45 -32
-29 -18 -93 -125 -77 -47 -42 -34
-25 -24 -81 -103 -67 -41 -38 -36
-20 -24 -64 -82 -56 -35 -34 -33
-15 -36 -44 -58 -39 -23 -24 -22
-17 -42 -29 -40 -29 -20 -19 -18
-17 -27 -24 -31 -27 -23 -22 -18
-8 -20 -16 -19 -19 -20 -20 -21
-7 -27 -10 -10 -14 -16 -22 -23
-9 -23 -9 -7 -10 -17 -22 -17
-7 -16 -8 -7 -10 -21 -22 -16
-6 -6 -8 -7 -9 -18 -22 -17
-7 -12 -4 -2 -4 -14 -16 -16
-11 -20 -1 -1 -3 -16 -15 -17
-11 -18 4 3 -2 -13 -13 -11
-8 -12 7 6 2 -10 -9 -9
-11 -9 5 4 -1 -11 -12 -13
-12 -1 3 3 -3 -14 -17 -12
-12 -4 3 4 -2 -15 -14 -14
-13 -4 4 4 -1 -15 -14 -19
-13 -3 4 4 0 -15 -16 -18
-13 -11 3 4 1 -14 -16 -16
-11 -14 4 5 2 -12 -13 -11
-8 -11 7 9 5 -9 -9 -10
-9 -3 7 9 3 -10 -9 -7
-9 -5 8 11 3 -8 -5 -5
-8 -2 7 9 1 -11 -9 -6
-13 -6 7 10 2 -11 -13 -8
-8 -4 10 12 6 -8 -10 -5
-3 0 9 12 7 -8 -9 3
-2 1 6 7 3 -9 -12 -2
-5 3 5 6 3 -9 -12 -10
-8 -4 8 8 5 -8 -10 -8
-9 -6 8 10 7 -7 -8 -10
-9 -4 5 8 4 -10 -12 -11
-11 -5 7 9 5 -7 -10 -3
-9 1 8 10 5 -4 -8 -3
-9 -2 9 12 7 -5 -8 -4
-7 0 10 13 9 -6 -9 -5
-7 4 9 12 10 -3 -8 -9
-5 -7 11 14 13 -3 -4 -8
-4 -4 8 11 12 -1 -6 -8
-3 1 9 10 11 2 -5 -3
-5 -4 9 12 12 -2 -5 -5
-5 -5 9 13 11 -1 -4 -3
-5 -10 11 15 13 3 -3 -4
-2 -12 14 16 13 3 -4 -6
-7 -10 12 14 12 -2 -8 -4
-12 -14 11 13 12 -3 -8 -3
-12 -17 12 15 15 0 -4 -4
-9 -10 9 12 13 -1 -6 -9
-6 -2 7 11 13 -1 -7 -10
-2 3 9 12 14 3 -5 -5
-3 3 9 13 14 1 -7 -4
-3 -2 9 13 13 1 -5 -6
-5 -2 8 13 13 2 -5 -4
-6 2 6 13 11 -1 -7 -7
-4 4 9 15 13 -1 -7 -6
-2 -2 10 15 15 1 -4 -3
-4 -4 7 13 14 0 -7 -7
-6 -9 9 15 16 4 -7 -1
-5 -9 9 15 18 4 -7 -4
-4 -1 6 10 16 5 -6 -2
1 -8 11 18 22 8 0 0
2 -12 15 22 23 9 6 2
2 -4 11 19 20 8 6 -5
0 0 10 18 19 7 -1 -8
1 5 7 18 19 4 -3 -10
2 -1 9 18 21 5 -2 -5
-3 -9 10 21 24 8 1 -3
-2 -7 10 21 26 10 0 -2
1 -6 11 21 27 12 2 -1
5 -3 12 22 29 13 4 2
5 -4 10 23 29 18 5 2
2 0 9 23 30 19 5 3
5 12 9 23 30 17 7 2
7 8 9 26 33 18 7 1
2 2 7 25 33 17 6 6
3 -1 7 27 36 19 8 3
4 -5 6 26 38 20 8 0
0 -10 4 24 39 21 7 2
3 -1 3 24 41 22 10 2
5 -5 5 28 45 27 17 5
2 -6 5 29 45 32 18 7
3 -7 7 31 48 36 18 8
3 -15 7 33 51 37 21 12
7 -10 6 35 53 36 24 14
8 -1 1 32 52 36 21 9
8 5 -1 30 53 36 19 9
10 10 -4 30 54 40 19 8
8 1 -5 31 57 43 21 12
10 0 -6 30 58 42 22 17
14 2 -9 29 57 43 24 19
13 2 -12 27 57 45 25 13
12 -6 -8 32 62 49 31 17
12 0 -11 31 60 48 30 25
15 6 -11 31 59 48 27 23
16 2 -10 33 62 52 31 19
14 -8 -9 35 66 55 34 23
17 -14 -8 38 70 59 38 25
17 -15 -10 37 70 58 39 30
14 -12 -13 31 66 56 38 28
16 -6 -15 30 63 52 36 24
16 -1 -15 30 62 51 34 22
18 -4 -13 32 63 53 36 27
19 -4 -12 33 63 54 37 26
22 2 -14 29 60 51 33 23
22 4 -15 29 59 53 32 21
22 9 -16 27 56 49 30 19
26 7 -16 26 57 45 29 22
25 3 -15 28 59 48 32 33
20 6 -14 28 57 47 33 27
20 12 -15 26 54 47 32 30
23 11 -12 27 54 45 33 26
18 -8 -8 31 56 51 37 31
19 -5 -10 30 53 45 34 28
20 -3 -13 27 48 40 30 27
15 -8 -13 27 48 39 29 27
15 -10 -10 27 47 35 26 24
14 -4 -9 26 45 33 24 23
12 0 -11 23 40 28 21 18
15 5 -9 21 40 29 21 16
17 6 -8 23 39 32 22 19
18 12 -7 23 38 28 21 18
15 9 -6 22 34 25 18 21
14 8 -2 25 34 24 19 23
13 9 -1 24 32 21 18 22
11 9 1 23 30 19 14 15
12 6 1 23 30 19 16 11
13 18 1 21 28 16 11 12
12 21 2 20 26 13 9 15
11 14 5 23 29 16 12 16
9 6 5 21 26 14 8 9
5 2 6 21 25 14 8 12
5 -2 7 22 25 14 9 17
4 5 6 17 20 8 4 13
3 9 5 16 17 5 2 9
3 3 9 18 20 6 4 11
1 0 11 18 19 7 5 9
1 3 11 17 18 5 4 5
-3 -1 9 14 15 4 0 10
-1 -1 12 14 17 5 2 10
4 7 10 12 14 4 -2 5
-1 5 10 11 13 5 4 5
-1 6 8 9 9 0 1 5
1 11 7 10 9 1 -3 1
2 10 9 9 9 4 -4 1
2 7 11 11 11 4 1 6
3 1 13 11 12 2 -1 5
1 -1 13 10 12 0 -4 1
1 4 11 8 9 0 -3 2
-2 -2 10 6 8 -2 -5 0
-3 -4 9 6 8 -3 -6 -1
-3 5 9 6 8 -2 -3 0
0 10 11 7 7 1 -4 0
5 12 12 10 10 2 -3 4
3 5 14 11 10 1 -3 0
0 4 11 12 7 0 -6 -3
-5 7 8 7 4 -3 -7 -4
-7 2 9 7 7 -6 -7 -5
-5 2 10 8 8 -5 -6 -3
-3 2 10 9 8 -3 -4 -3
-3 -5 12 11 10 1 0 3
-4 -7 15 13 12 3 1 4
-5 2 11 9 8 0 0 -1
-7 12 7 6 4 -5 -7 -4
-6 17 9 8 6 -3 -4 -3
-2 8 13 14 11 2 3 3
1 0 17 17 15 6 4 8
0 -2 17 18 17 8 6 18
0 2 15 15 15 5 3 8
0 5 12 14 14 4 4 5
-3 4 12 15 14 5 5 8
-4 3 13 15 13 8 5 15
-1 3 13 16 13 8 5 12
-2 5 11 14 10 6 2 5
1 13 11 12 9 1 1 0
0 15 13 14 10 2 3 1
0 8 13 14 10 2 6 5
5 9 14 15 11 2 -1 4
7 13 15 15 12 7 -2 2
3 8 16 16 14 10 4 6
5 19 12 13 11 7 4 1
2 25 9 10 7 8 -1 1
-2 11 11 14 9 7 6 4
-4 -5 17 19 15 8 10 11
-4 -3 14 17 12 6 8 7
0 9 13 14 9 3 3 4
2 10 14 15 10 4 2 5
-1 -4 16 17 12 6 5 7
0 1 14 14 10 6 5 6
2 6 14 15 11 11 5 9
4 14 12 12 9 5 4 5
3 16 10 11 7 1 1 7
0 11 11 11 6 1 1 1
1 7 13 14 9 2 5 1
2 12 11 12 6 0 3 3
1 14 11 12 5 -1 0 10
3 10 14 14 7 0 0 4
1 7 14 13 8 -1 2 3
3 10 12 10 6 0 3 2
2 11 10 10 3 -1 3 4
2 9 9 8 2 0 -2 4
8 9 11 9 5 2 2 1
7 12 9 8 2 -1 0 -1
6 11 11 10 4 1 2 5
3 4 13 11 5 6 4 6
1 -1 11 10 2 4 2 9
3 5 10 9 1 1 0 6
-1 4 8 7 0 -4 -3 7
-1 5 8 7 0 -4 -1 8
3 6 9 8 1 -2 1 5
6 1 12 11 3 0 3 5
8 6 13 10 4 0 4 5
10 10 13 10 2 -1 4 4
8 7 13 10 1 -1 0 6
10 8 12 10 2 -2 -1 3
5 9 12 11 1 -2 0 1
8 16 12 10 0 -2 3 4
10 19 15 12 3 0 4 4
8 23 14 10 2 -2 0 0
6 24 12 9 1 -1 -2 6
8 20 13 11 4 0 1 11
3 11 17 13 6 4 6 6
2 17 16 13 3 2 4 7
6 18 17 13 4 2 4 5
9 17 22 17 8 5 6 14
9 14 23 18 8 9 9 14
5 16 19 14 4 5 8 14
7 21 20 16 6 5 9 13
7 24 19 14 6 4 9 7
4 17 19 14 6 6 6 10
10 27 18 12 5 3 5 18
7 30 13 8 2 1 0 14
5 38 5 1 -6 -4 -2 6
12 52 1 0 -5 1 1 9
14 44 5 6 0 9 11 13
13 19 12 11 8 11 16 18
13 16 12 11 8 10 11 14
9 22 7 7 3 6 8 15
8 38 0 0 -2 1 3 13
9 35 -1 -1 -3 0 3 13
13 30 -1 0 -2 1 5 16
16 30 0 1 0 3 6 13
12 30 0 1 -1 8 5 12
12 28 3 5 0 7 11 20
13 27 3 5 0 6 9 18
12 28 0 2 -4 3 4 6
19 25 3 5 0 6 9 16
20 20 4 6 2 3 10 19
18 16 1 6 1 5 7 17
15 19 -1 2 -3 2 1 13
10 0 3 4 -1 1 5 13
10 0 4 5 -1 0 7 10
10 14 0 1 -5 -6 1 3
5 13 -1 0 -9 -7 -5 -3
6 5 2 2 -9 -6 -4 -1
6 -4 3 2 -8 -8 -4 2
3 -6 3 2 -9 -10 -6 -1
3 -3 2 -1 -10 -11 -8 -5
2 -9 1 -2 -10 -8 -6 -1
1 -13 1 -3 -10 -11 -7 -4
3 -8 -1 -5 -13 -8 -10 -7
4 -8 0 -4 -13 -11 -9 -6
2 -13 1 -5 -12 -16 -11 -6
0 -15 1 -4 -15 -18 -11 -6
0 -7 -2 -7 -19 -21 -10 -4
1 -5 -1 -4 -16 -20 -9 -7
-1 -8 -2 -6 -17 -21 -13 -7
0 -7 -1 -6 -16 -20 -13 -3
1 -9 -2 -7 -17 -21 -14 -5
0 -1 -6 -11 -21 -23 -16 -14
4 4 -6 -12 -21 -23 -14 -13
2 -8 -2 -10 -19 -23 -10 -5
0 -24 2 -4 -14 -17 -6 -8
4 -20 5 -2 -12 -14 -6 -5
8 -10 3 -2 -15 -15 -8 -3
7 -17 4 0 -14 -14 -9 -3
4 -21 3 -3 -15 -18 -9 -6
1 -9 -2 -8 -19 -23 -16 -7
5 5 -6 -12 -23 -28 -18 -11
5 10 -9 -14 -24 -29 -20 -15
6 -6 -3 -6 -18 -23 -14 -11
6 -22 5 0 -10 -13 -3 -2
6 -24 4 -1 -11 -14 -6 -1
4 -19 2 -1 -11 -15 -8 -2
1 -19 2 -2 -13 -16 -8 1
2 -11 -2 -5 -16 -19 -9 -3
3 -4 -3 -6 -16 -15 -10 -5
2 -10 -4 -8 -16 -14 -14 -7
1 -14 -2 -7 -16 -18 -14 -10
0 -15 -1 -4 -14 -19 -17 -6
-1 -16 4 2 -12 -18 -18 -1
0 -16 13 14 -4 -14 -17 -10
-1 -16 22 28 2 -11 -16 -14
-3 -8 29 39 6 -14 -21 -18
0 6 37 49 13 -14 -22 -17
-2 12 41 55 23 -5 -16 -15
-3 12 48 67 36 7 -2 -6
3 27 55 83 52 21 11 3
12 40 60 92 60 30 15 14
15 45 67 105 74 46 32 26
23 59 68 116 90 70 53 44
33 76 66 112 106 89 74 65
47 90 49 84 108 105 97 84
63 96 16 44 111 130 127 106
78 101 -20 4 115 159 156 130
86 112 -58 -50 107 185 190 158
83 123 -97 -111 90 200 213 183
83 132 -124 -150 85 217 230 196
79 135 -138 -171 87 234 246 209
64 132 -143 -183 94 248 254 205
44 132 -149 -194 103 267 256 192
29 123 -156 -196 114 276 249 181
16 99 -154 -196 106 251 212 149
0 50 -144 -190 67 174 130 86
-16 4 -137 -193 3 80 48 31
-22 -25 -134 -197 -63 -4 -10 -3
-25 -34 -126 -189 -100 -52 -46 -24
-27 -38 -111 -167 -103 -60 -50 -28
-15 -26 -95 -137 -89 -52 -42 -27
-4 -22 -83 -116 -80 -47 -40 -27
-4 -34 -69 -96 -69 -43 -37 -28
-7 -41 -56 -76 -59 -38 -34 -28
-6 -40 -43 -60 -53 -33 -32 -23
-2 -37 -31 -45 -45 -31 -28 -16
-3 -33 -23 -33 -39 -31 -29 -24
-2 -41 -14 -20 -31 -26 -26 -17
2 -42 -8 -14 -27 -24 -24 -17
4 -31 -6 -11 -23 -24 -24 -18
0 -25 -6 -11 -22 -25 -25 -14
-3 -32 -3 -11 -19 -24 -21 -12
-3 -31 -3 -9 -18 -22 -19 -15
-2 -27 -1 -7 -17 -22 -19 -10
-3 -24 3 -3 -16 -20 -16 -9
-2 -18 3 -2 -16 -18 -14 -5
1 -12 6 3 -14 -15 -14 -6
2 -10 6 3 -15 -14 -13 -6
4 -8 8 4 -12 -13 -11 -6
1 -9 5 3 -13 -17 -14 -8
-2 -13 3 1 -13 -19 -16 -11
2 -8 2 -1 -14 -19 -14 -14
4 -11 4 1 -10 -15 -15 -10
1 -18 5 2 -10 -17 -15 -10
0 -19 9 6 -9 -15 -11 -9
0 -19 11 7 -9 -14 -7 -6
1 -13 10 9 -8 -13 -10 -7
0 -16 12 10 -8 -12 -12 -4
-1 -16 11 9 -8 -13 -15 -5
4 -11 11 8 -6 -14 -11 -9
1 -20 13 10 -3 -11 -9 0
5 -15 13 9 -3 -8 -9 -2
9 -10 12 10 -1 -10 -9 -7
8 -11 12 9 -2 -10 -9 -5
5 -3 9 6 -6 -13 -11 -8
2 -6 9 8 -6 -11 -8 -6
4 -6 9 8 -5 -11 -12 -8
6 1 10 7 -7 -10 -14 -7
5 -11 13 11 -3 -7 -7 4
4 -11 11 10 -2 -8 -7 -9
1 -7 7 6 -3 -9 -14 -13
-2 -13 7 4 -3 -8 -13 -13
4 -19 10 9 3 -6 -6 -7
5 -20 11 11 5 -3 -5 -5
1 -16 10 10 1 -4 -8 -3
3 -5 5 7 -3 -6 -10 0
-1 -1 4 5 -7 -8 -12 -4
0 -3 6 6 -6 -5 -13 -5
0 -11 11 11 0 -2 -10 -6
1 -16 14 14 4 0 -9 -3
3 -13 9 11 2 -4 -11 -8
2 -12 7 6 0 -5 -11 -10
2 -15 7 8 3 -5 -8 -9
5 -2 5 6 0 -6 -10 -8
1 -1 4 6 -1 -7 -9 -4
3 -5 10 12 4 0 -4 0
7 -9 13 16 8 5 -2 0
2 -16 13 16 7 7 -4 -3
2 -15 12 17 8 6 -5 -1
2 -5 7 12 4 -1 -9 -5
2 -14 10 12 8 1 -8 -5
2 -19 10 14 10 5 -6 -3
3 -14 9 13 10 5 -4 -3
4 -9 11 14 11 7 -2 -2
5 -2 8 13 9 6 -3 -3
3 2 5 12 7 6 -4 -5
5 0 8 15 10 7 -4 5
7 -16 13 21 15 14 1 11
7 -20 14 21 18 14 2 0
6 -13 10 18 16 12 -2 -3
2 -13 7 14 15 12 -1 -4
1 -12 5 14 16 11 -3 -1
3 -8 6 15 20 13 0 2
5 -2 5 15 18 14 -1 -2
7 3 6 16 19 12 -1 2
6 6 4 16 18 12 -1 -4
6 6 4 16 19 14 -1 -3
8 0 7 20 21 17 4 1
8 -5 6 21 23 18 4 0
7 -18 9 25 29 23 7 6
6 -27 8 26 34 25 10 12
6 -22 2 22 32 24 7 11
10 -8 1 21 33 26 8 8
6 -6 -1 21 32 29 8 7
6 -1 -3 20 32 27 8 6
7 -6 -2 24 34 30 9 10
8 -11 -2 25 37 31 12 11
13 -10 0 28 40 34 17 15
15 0 -4 28 41 35 16 13
12 5 -8 27 40 34 14 9
16 -2 -5 28 46 39 21 13
17 -11 -7 28 49 46 24 18
16 -19 -8 29 52 53 28 21
19 -19 -7 32 55 51 31 24
13 -14 -9 28 51 48 28 21
16 -4 -16 24 46 43 24 16
22 7 -16 26 48 47 30 19
23 9 -14 28 48 48 32 20
24 -10 -9 31 54 54 36 24
19 -12 -11 30 53 52 32 23
20 -3 -14 28 54 50 32 22
25 -7 -12 31 59 57 37 27
23 -8 -15 28 56 57 35 25
21 -1 -19 26 52 54 33 22
18 -10 -19 25 50 51 33 25
18 -18 -18 27 50 50 37 29
24 -8 -17 27 50 51 36 28
24 -10 -16 28 47 50 33 23
25 -7 -16 26 46 49 31 22
23 0 -20 22 43 44 28 19
23 0 -20 21 42 44 27 20
28 4 -21 22 42 43 27 21
32 5 -18 23 46 47 33 29
33 1 -15 26 47 51 36 32
26 -2 -14 26 46 51 33 33
23 2 -14 23 41 44 29 25
22 -2 -13 24 40 41 28 25
22 -7 -10 27 40 41 27 28
18 -8 -11 24 37 38 25 26
19 -10 -8 26 38 38 25 24
20 -3 -9 25 37 35 22 21
20 1 -10 23 34 33 22 19
18 1 -12 20 31 30 21 21
17 5 -12 18 27 27 19 15
16 10 -10 18 26 27 17 19
22 9 -4 23 28 29 19 21
22 1 1 27 31 31 22 22
17 4 1 25 27 27 17 21
14 11 -4 18 21 20 10 14
14 9 -2 19 21 20 10 11
12 0 2 21 23 22 12 18
9 0 -1 19 21 19 10 13
10 5 3 19 22 19 10 12
10 -2 6 21 22 19 10 14
12 -1 7 19 21 21 13 16
15 2 10 22 20 23 14 19
14 10 8 19 15 16 7 9
11 18 5 13 11 8 -1 6
11 14 5 13 10 10 1 9
8 6 8 13 11 9 0 7
7 1 8 12 11 7 1 5
9 0 9 13 13 16 3 9
2 8 5 8 8 6 -2 5
1 8 5 8 8 5 -3 2
2 7 5 6 6 4 -4 1
4 5 7 7 6 4 -3 7
4 4 10 10 7 6 1 8
2 0 10 10 7 6 -1 2
0 0 10 8 6 8 -3 6
-1 -6 9 8 6 5 -3 3
1 -9 12 8 8 6 -2 1
2 -3 10 6 6 3 -5 -4
2 7 7 3 3 1 -9 2
-1 7 6 3 2 0 -4 1
4 6 8 6 4 2 -2 0
0 -1 11 8 5 4 -2 5
0 -4 14 11 8 7 -2 5
1 -4 15 11 10 10 -1 8
0 -3 12 9 7 6 -1 5
2 0 10 8 7 4 -2 3
-3 -3 13 11 11 7 0 5
-4 -2 12 10 11 6 1 4
-2 -4 12 11 10 8 -1 10
-4 -1 10 9 8 6 -3 5
1 17 10 7 5 5 -5 2
0 8 10 10 7 8 -2 5
1 -2 14 14 11 9 0 8
4 6 14 15 12 9 5 9
5 21 12 12 9 7 3 3
3 28 7 10 6 4 -4 -1
0 11 10 14 11 10 -2 3
1 0 11 15 14 13 2 3
1 0 13 15 15 13 3 5
-1 1 14 15 13 15 2 8
-3 2 13 13 11 14 1 6
2 3 15 17 12 15 5 9
1 11 14 16 10 11 2 6
-4 18 10 11 5 5 -2 -3
1 16 12 15 10 10 2 11
4 9 14 17 12 14 2 10
3 5 15 18 13 15 3 8
1 16 9 12 9 9 0 4
2 22 9 11 7 9 -2 0
-1 13 10 14 10 14 1 8
-7 -1 12 15 12 14 4 11
-6 2 12 16 11 13 5 6
-3 6 13 15 11 13 3 6
-1 1 12 16 11 15 4 9
3 5 13 15 11 14 5 10
1 10 9 11 7 11 2 2
2 14 8 9 7 9 1 1
6 14 11 13 10 13 5 6
5 9 11 13 11 14 6 4
3 10 10 12 9 13 3 5
4 12 13 15 13 17 5 14
3 14 13 15 10 15 5 8
4 12 12 13 8 12 0 5
5 11 11 12 8 12 1 7
-2 5 8 9 5 8 -3 -1
-3 1 6 7 3 9 -3 -5
1 6 9 9 5 11 1 1
7 9 9 10 6 10 -1 0
9 12 8 9 5 8 0 0
6 12 7 8 4 5 1 2
4 8 8 9 2 7 0 10
5 13 6 7 1 5 -1 8
8 18 9 10 3 7 -1 2
6 8 10 10 4 7 1 1
3 0 11 12 5 8 2 1
4 6 8 11 1 3 -4 4
4 9 4 6 -1 0 -7 0
2 1 4 4 -1 -1 -6 -2
3 -1 5 5 0 0 -7 -7
5 8 4 5 -1 1 -8 -3
6 10 3 4 -3 3 -6 4
7 11 5 6 -1 3 -2 5
4 8 3 8 -2 2 -2 -2
4 5 4 5 -3 0 -5 -1
1 -1 4 4 -3 -1 -6 3
1 6 1 1 -6 -5 -9 3
2 11 1 0 -6 -6 -10 -6
0 -2 4 2 -4 -3 -7 -2
-2 -9 6 5 -1 1 -4 1
1 -2 3 3 -2 -2 -8 -3
5 -2 5 4 -3 1 -5 -3
4 2 5 4 -3 3 -6 -6
4 9 2 3 -6 0 -9 -8
4 9 3 2 -6 -4 -4 -7
5 6 4 3 -5 -1 0 -8
3 1 4 4 -3 0 -5 -5
3 4 5 4 -3 -1 -7 -4
4 8 4 2 -3 -3 -6 -4
2 6 1 0 -6 -3 -6 0
5 11 2 1 -5 -1 -8 1
6 6 4 4 -3 -2 -8 -1
6 7 0 1 -6 -4 -9 -6
5 10 1 3 -7 -3 -9 -8
1 12 0 1 -9 -6 -13 -11
-1 10 1 0 -9 -4 -12 -11
1 -6 5 5 -3 -2 -8 -8
2 -15 6 7 -2 -1 -8 -7
6 -3 6 5 -1 0 -7 -4
2 -3 4 2 -4 -1 -8 -4
1 -3 2 2 -4 -3 -8 -7
6 1 2 2 -5 -2 -7 -6
5 7 1 -1 -8 -4 -10 -12
4 6 1 0 -8 -5 -12 -13
4 -6 7 5 -4 -1 -7 -8
-1 -7 6 4 -4 1 -5 -9
-1 -1 2 2 -4 2 -7 -10
1 9 -2 -1 -7 -4 -11 -9
4 23 -6 -6 -11 -8 -14 -16
5 19 -4 -4 -9 -3 -7 -14
-1 -10 1 1 -4 -2 -3 -5
0 -6 -2 -2 -9 -7 -9 -10
5 3 0 1 -7 -5 -7 -7
1 -4 1 3 -6 -1 -8 -4
2 -2 3 4 -5 -1 -4 2
3 0 3 5 -4 -1 -6 -4
6 8 0 1 -9 -7 -13 -15
8 13 1 1 -8 -6 -13 -11
6 16 -2 -3 -10 -9 -16 -12
6 9 1 1 -6 -5 -12 -12
8 2 10 10 2 3 -6 -7
6 0 13 12 5 5 -3 2
7 4 13 12 4 5 -2 3
6 7 11 12 2 4 -3 2
3 7 9 10 1 2 -5 0
5 6 9 9 0 3 -2 -5
7 11 10 8 1 2 2 -4
11 22 11 9 3 2 2 3
11 27 10 8 1 0 -3 -2
5 19 8 6 -1 2 -5 0
3 11 11 10 2 2 -3 1
6 23 10 9 1 1 -4 -3
9 30 10 10 2 6 -1 -1
9 32 10 10 2 7 -3 -5
8 27 8 6 0 1 -3 -4
8 14 7 7 3 6 1 3
7 14 4 6 4 6 2 4
9 8 4 7 6 10 4 6
10 11 5 9 8 12 10 9
8 18 2 5 4 8 7 5
6 18 1 3 1 4 4 7
8 27 -3 0 -3 2 4 7
7 34 -6 -2 -4 1 -1 2
8 30 -5 -1 -3 3 1 4
9 22 -3 2 0 3 1 3
8 15 -2 4 2 5 4 8
10 21 -2 4 2 5 5 4
9 20 -2 3 1 6 2 6
8 20 -4 1 -1 6 1 0
10 27 -8 -2 -3 1 -3 0
10 28 -10 -3 -5 -1 -7 2
11 31 -9 -1 -4 1 -8 0
12 29 -8 0 -3 1 -7 -3
13 27 -7 1 -4 -2 -7 -7
13 21 -4 2 -3 -2 -5 -4
14 19 -8 -1 -6 -4 -7 -1
10 11 -7 0 -5 -5 -8 -5
4 -1 -5 2 -5 -7 -11 -12
3 -14 -4 4 -4 -7 -9 -10
5 -8 -7 0 -7 -10 -11 -15
3 -9 -10 -2 -10 -13 -16 -19
5 -6 -8 -2 -10 -13 -14 -15
6 -7 -4 0 -7 -8 -11 -7
6 0 -6 -2 -10 -11 -14 -15
8 3 -6 -2 -12 -14 -16 -20
7 6 -6 -3 -12 -15 -17 -22
5 -2 -7 -4 -13 -14 -12 -22
4 -8 -4 -2 -11 -13 -14 -16
2 -6 -6 -4 -11 -16 -18 -12
2 -5 -9 -7 -13 -17 -18 -15
4 0 -9 -7 -14 -17 -17 -17
2 -4 -9 -7 -16 -16 -20 -16
-1 -6 -11 -9 -18 -19 -25 -21
-2 -2 -12 -9 -19 -21 -25 -23
1 -4 -8 -5 -18 -18 -22 -22
5 -13 -3 0 -11 -10 -12 -10
5 -15 -2 2 -9 -8 -10 -7
1 -16 -5 -2 -11 -14 -18 -9
0 -13 -6 -2 -12 -14 -17 -14
-2 -7 -12 -8 -16 -14 -23 -22
-3 1 -13 -10 -18 -18 -25 -19
-4 -1 -13 -10 -19 -22 -25 -15
-4 -16 -10 -5 -15 -17 -19 -12
0 -20 -6 -1 -11 -14 -16 -16
-3 -17 -5 -1 -11 -14 -15 -15
-4 -14 -7 -2 -12 -16 -14 -21
1 -6 -8 -3 -13 -16 -18 -22
-1 -12 -5 1 -10 -14 -16 -16
0 -9 -8 -3 -12 -16 -18 -16
5 -6 -9 -4 -10 -15 -18 -20
6 -6 -10 -4 -11 -16 -16 -14
3 -8 -9 -4 -11 -16 -17 -16
1 -11 -4 1 -9 -14 -16 -19
3 -3 2 9 -5 -14 -18 -17
2 1 8 18 -3 -15 -23 -22
-3 -3 15 30 4 -14 -25 -30
-3 -9 25 44 13 -11 -23 -28
-6 0 30 52 20 -10 -25 -29
-2 15 34 57 30 -1 -21 -20
7 32 42 71 45 14 -8 -12
11 39 49 88 59 27 5 1
14 44 55 97 69 38 17 8
21 61 59 106 81 50 31 17
26 74 61 115 97 70 50 32
32 82 56 108 108 89 78 51
43 94 37 77 110 109 98 72
57 99 4 36 113 136 124 98
73 106 -32 -5 115 161 154 121
76 121 -71 -63 106 184 185 149
75 130 -109 -121 91 205 214 178
76 136 -135 -155 89 228 237 196
72 144 -150 -176 89 244 252 202
59 158 -154 -189 92 256 259 206
36 151 -160 -199 100 273 263 202
22 124 -160 -197 116 288 267 186
12 101 -160 -196 105 261 225 149
-4 52 -150 -194 61 174 132 83
-17 12 -145 -197 -5 82 48 26
-27 -17 -142 -199 -69 -5 -14 -14
-30 -31 -130 -187 -102 -54 -48 -35
-26 -22 -120 -167 -105 -64 -53 -43
-18 -20 -103 -138 -93 -56 -47 -46
-11 -27 -91 -115 -79 -46 -40 -42
-6 -31 -76 -94 -68 -42 -34 -43
-7 -26 -66 -79 -61 -36 -37 -41
-11 -36 -53 -62 -53 -36 -34 -35
-9 -44 -38 -44 -41 -31 -24 -35
-1 -39 -27 -30 -33 -29 -21 -30
3 -33 -21 -20 -27 -29 -25 -33
3 -32 -16 -14 -21 -28 -24 -28
3 -29 -13 -12 -18 -28 -25 -25
1 -21 -14 -11 -19 -28 -27 -23
0 -17 -13 -13 -19 -31 -32 -34
2 -16 -10 -9 -16 -27 -27 -29
2 -7 -8 -5 -15 -26 -23 -24
2 -2 -7 -5 -15 -25 -24 -24
2 -5 -5 -3 -12 -23 -19 -20
8 -4 -1 1 -9 -20 -17 -19
7 -13 2 3 -6 -16 -14 -16
1 -20 3 6 -5 -14 -12 -12
-2 -13 -2 1 -8 -16 -17 -20
-1 -7 -1 0 -8 -19 -18 -20
-2 -6 -3 -2 -9 -22 -21 -19
1 -9 0 3 -7 -16 -18 -24
4 -10 2 4 -5 -14 -14 -20
3 -10 1 4 -6 -16 -14 -21
-2 -6 1 3 -7 -17 -20 -22
0 4 -1 2 -10 -22 -23 -25
3 6 -3 0 -10 -22 -22 -26
5 4 0 3 -7 -18 -14 -22
0 0 0 3 -6 -18 -17 -23
-7 -11 -3 1 -7 -19 -21 -22
-4 -22 2 6 -1 -13 -15 -14
0 -13 1 5 -2 -13 -14 -12
3 -5 0 3 -2 -14 -13 -15
9 -1 3 5 -1 -11 -12 -14
4 -9 4 8 0 -10 -10 -13
1 -11 2 7 -1 -15 -15 -16
0 -12 1 6 -1 -13 -15 -20
-3 -7 -3 3 -4 -15 -16 -19
-1 0 -5 0 -4 -15 -18 -18
2 -6 -1 4 0 -13 -13 -18
1 -12 1 5 2 -10 -12 -17
3 -1 -1 3 -1 -14 -16 -20
3 -1 -2 1 -2 -14 -15 -25
2 1 -3 1 -2 -13 -16 -19
0 -3 -1 3 0 -12 -16 -15
0 -8 -1 5 1 -12 -12 -21
5 -8 3 8 5 -7 -9 -16
5 -3 1 7 3 -9 -10 -14
5 0 -1 4 2 -11 -12 -19
3 4 -2 3 2 -11 -11 -17
1 -5 0 4 4 -8 -14 -12
1 -12 2 8 7 -7 -13 -13
1 -7 1 7 5 -8 -14 -17
1 -4 0 7 4 -9 -12 -18
1 -5 1 8 5 -9 -13 -16
0 -4 0 9 4 -7 -10 -15
0 -7 1 8 6 -7 -11 -19
3 -9 3 11 9 -4 -9 -15
2 -4 0 8 8 -6 -11 -15
5 2 -1 7 7 -7 -9 -15
5 1 -1 6 8 -8 -6 -15
2 -2 -3 6 6 -9 -6 -13
1 3 -3 6 6 -8 -12 -16
-2 2 -6 6 6 -8 -12 -24
-2 -9 -2 10 10 -3 -7 -17
0 -17 3 13 14 3 -2 -6
1 -11 2 12 15 5 -3 -7
3 -3 2 14 17 5 2 -4
2 -10 6 17 22 9 4 3
1 -14 7 17 23 8 1 -8
1 -7 2 14 21 6 1 -15
7 -2 2 15 23 7 -1 -11
9 -1 4 17 24 8 0 -12
10 -5 4 18 23 7 1 -10
4 -2 0 14 19 3 -2 -11
2 1 -3 13 20 5 -2 -13
4 3 -2 14 23 9 1 -14
7 -1 -1 18 28 14 5 -9
9 -6 2 21 34 19 10 -7
8 -5 0 20 35 19 12 -8
7 -3 -3 18 34 18 8 -12
8 6 -7 15 31 15 5 -14
12 11 -7 16 34 18 8 -10
15 5 -5 20 38 26 11 -7
12 -1 -6 20 40 28 11 -4
8 -5 -5 22 39 28 15 -3
10 -7 -5 23 43 30 17 6
7 -11 -5 24 46 31 17 14
8 -10 -9 21 46 31 17 1
10 -7 -10 20 47 37 19 0
11 -9 -10 22 52 39 26 7
15 -9 -8 25 55 42 32 9
14 2 -12 22 53 40 27 8
13 14 -19 17 48 38 24 0
14 11 -21 17 50 41 25 1
14 -1 -20 20 52 43 26 -1
15 -16 -15 24 58 49 30 6
16 -19 -15 25 59 52 32 10
14 -10 -18 22 57 47 29 3
16 -3 -22 18 56 44 29 2
20 -2 -23 17 56 44 31 5
23 -9 -19 21 59 50 34 12
25 -6 -19 21 59 51 36 22
21 -6 -20 20 59 49 37 15
21 -8 -19 21 58 49 37 21
24 -5 -19 21 57 48 36 21
24 -5 -21 18 54 46 33 15
22 -2 -21 17 53 48 34 13
22 -4 -21 16 53 46 34 12
20 -3 -23 14 52 44 32 15
18 -4 -21 15 54 45 37 16
16 -5 -21 14 52 45 40 15
20 12 -24 11 48 42 35 11
22 6 -21 14 50 44 34 15
21 -7 -18 17 52 47 39 24
21 -4 -18 17 51 49 39 26
22 6 -18 15 48 42 33 21
19 1 -13 18 49 42 34 20
20 -2 -14 17 48 40 35 15
17 4 -16 14 44 35 30 10
18 9 -15 14 42 33 31 10
16 7 -13 15 41 31 25 10
16 2 -8 17 40 30 26 14
16 11 -10 15 38 29 25 15
17 15 -10 14 36 28 24 15
15 8 -7 17 37 29 27 15
13 7 -4 20 39 30 28 30
9 11 -6 17 35 26 26 16
8 16 -8 14 31 21 19 4
7 18 -5 13 30 19 16 7
8 16 -3 14 30 18 16 14
8 18 -2 14 30 21 19 10
9 22 -1 13 28 16 16 7
5 19 -1 11 24 12 12 7
3 20 0 12 23 13 11 8
5 22 -1 11 22 8 11 10
7 15 6 16 26 12 18 14
3 13 8 16 27 14 16 13
4 11 7 14 24 10 11 10
8 13 9 14 25 9 13 8
10 13 13 16 28 11 14 6
3 7 12 15 25 8 11 3
2 5 9 13 24 7 9 -1
3 10 9 12 22 7 6 -2
1 15 11 11 19 3 4 -5
-2 12 11 10 16 0 5 4
-1 9 11 10 17 2 9 3
3 15 9 9 15 2 4 -1
3 14 10 9 15 4 3 -3
-1 5 14 10 17 1 5 -1
-1 4 15 10 19 4 9 2
-4 2 17 12 19 3 8 4
-5 2 15 10 17 1 5 2
-6 4 13 9 15 -1 6 -1
-4 11 12 7 12 -4 3 -1
-2 11 14 9 13 -4 0 -3
-6 7 14 11 13 -1 0 -3
-8 8 12 10 12 0 -2 -4
-2 16 14 9 14 -2 4 1
-3 13 15 10 16 3 5 -1
-6 4 16 11 16 6 5 3
-2 5 19 13 18 4 9 5
-1 7 20 15 20 8 10 6
-1 10 19 14 18 7 10 8
-5 8 16 12 15 2 5 1
-7 6 17 13 16 3 8 -1
-6 11 17 14 18 4 8 -2
-8 13 17 14 19 4 9 -3
-7 15 16 13 18 4 8 -1
-4 12 18 14 19 5 7 -2
-4 13 17 13 19 4 5 0
-2 18 17 14 19 6 5 -1
-4 21 15 12 16 8 4 -4
-2 20 16 13 17 2 5 -4
2 21 18 15 20 6 10 1
1 22 19 17 21 8 11 3
1 11 24 21 25 15 17 2
-1 7 24 22 26 13 15 9
-3 13 20 18 22 9 11 10
-3 15 19 16 21 6 9 6
-1 21 17 16 20 5 8 7
1 22 19 18 23 9 10 6
3 23 18 18 22 9 9 8
0 24 15 16 19 6 6 4
-1 25 14 16 20 7 7 5
4 22 20 20 26 12 14 8
4 14 22 21 25 11 15 6
0 18 17 17 20 8 10 8
-4 24 14 12 16 4 6 7
-7 21 17 12 18 5 7 5
1 21 20 18 23 11 12 11
4 20 21 19 24 13 11 14
3 32 17 14 17 7 7 4
-2 33 16 13 16 6 4 -4
-4 26 18 14 16 5 8 1
-1 17 20 16 21 9 14 9
2 10 22 18 21 11 12 5
4 9 24 20 24 16 16 8
1 9 23 18 22 14 17 8
0 20 14 11 16 7 9 3
1 31 11 10 13 6 8 1
0 28 10 9 13 7 10 6
-2 23 10 9 12 6 7 6
-2 14 11 13 15 6 8 9
-3 2 13 15 17 9 10 13
-3 1 11 13 17 9 13 7
-2 10 8 11 14 10 10 4
-3 10 7 10 12 4 5 3
-1 13 9 11 13 3 9 8
0 22 9 10 13 4 10 8
0 28 6 6 10 2 9 5
2 26 7 7 10 2 7 3
1 26 6 6 7 1 6 3
1 27 6 7 8 0 1 2
-1 17 9 10 9 4 2 3
-2 9 9 12 12 4 6 12
0 6 10 13 13 5 8 13
-2 8 8 9 9 0 6 3
-3 9 7 8 8 0 1 -2
0 5 8 10 10 1 2 6
0 3 10 11 12 4 7 12
2 8 8 8 10 2 6 5
-1 9 7 8 8 1 6 4
-4 14 5 5 5 -3 3 5
-3 14 5 6 6 -2 2 1
-5 10 5 6 7 -1 2 2
-2 14 4 5 5 -2 3 13
-2 18 4 4 5 -3 2 7
-3 17 3 3 4 -3 -1 -3
0 19 4 4 5 -3 0 1
-3 10 5 4 6 -1 1 3
-7 13 2 1 3 -4 0 4
-6 13 -1 0 1 -7 -2 0
-3 25 -1 -2 -2 -9 -7 -3
-3 30 -1 -1 -1 -8 -3 -3
-7 16 4 2 1 -6 3 2
-8 4 7 5 4 -3 1 9
-10 0 9 6 6 1 1 11
-11 0 8 6 7 -1 -3 -2
-3 7 8 5 6 0 1 0
2 12 7 5 7 1 1 1
1 7 7 6 7 1 4 3
-3 0 9 8 9 4 6 3
-1 11 8 7 7 2 7 5
1 17 8 7 7 1 4 13
0 20 6 6 4 -2 2 10
-1 21 4 4 3 -2 -1 -2
-1 19 7 7 8 4 2 4
1 22 10 10 12 5 8 10
-2 20 13 10 11 5 7 13
1 24 13 9 10 5 9 6
4 29 17 11 12 10 9 9
0 29 17 10 11 7 8 9
-2 31 16 9 9 5 7 6
-1 32 16 10 9 5 6 10
-1 30 16 10 8 5 5 12
-2 24 18 11 10 6 7 4
-3 16 24 17 16 13 12 8
-1 13 25 19 18 16 16 18
-4 5 23 18 17 13 14 16
-8 7 20 16 17 12 12 11
-3 19 19 15 16 12 11 8
0 29 17 13 14 11 11 13
0 33 15 10 13 9 14 10
0 32 10 6 10 10 12 8
3 39 9 7 11 10 11 9
2 38 7 6 10 10 13 14
1 35 8 6 12 10 13 20
0 38 6 4 10 9 12 17
-3 37 6 5 11 11 14 20
-3 42 6 4 12 12 15 22
0 54 1 0 7 9 14 20
4 47 4 4 10 12 16 25
4 35 6 7 13 14 15 20
4 43 3 4 9 11 11 20
7 47 3 5 9 10 11 19
6 41 3 5 9 10 12 11
5 30 8 10 14 15 14 24
6 23 10 11 15 17 16 24
4 21 10 9 13 15 14 15
8 21 11 10 13 14 16 18
3 16 10 9 12 13 12 19
3 20 10 10 13 15 15 15
3 23 9 9 11 13 13 11
0 27 6 7 8 9 8 14
0 27 7 6 6 7 4 12
-3 23 6 5 3 4 4 6
-5 16 7 4 3 4 1 9
-4 15 6 2 1 2 -2 13
-6 13 8 2 0 3 0 9
-5 20 4 -1 -2 1 -3 5
-4 19 4 -1 -1 0 -3 2
-4 13 5 0 -2 4 0 1
-6 0 9 3 1 7 4 8
-6 -8 13 5 3 6 5 11
-10 -9 12 3 2 4 2 11
-16 -14 13 4 2 5 2 8
-10 -6 12 4 3 4 3 13
-5 0 11 4 4 5 4 11
-8 1 10 3 3 5 1 5
-6 7 8 1 1 6 3 3
-6 2 10 3 4 8 3 4
-9 -5 11 4 4 7 4 10
-12 -5 9 3 2 5 2 11
-11 -2 8 1 0 4 0 13
-12 -1 9 0 0 1 -2 12
-15 -2 10 2 1 3 2 5
-15 3 8 0 0 2 1 6
-9 17 6 -3 -5 -2 -3 -1
-7 18 4 -3 -5 -3 -2 1
-9 17 4 -3 -4 -2 -3 2
-4 20 6 -1 -2 0 -1 1
-1 12 11 5 4 6 3 11
0 3 14 8 8 9 6 11
-6 -5 13 8 7 9 9 9
-12 -9 11 5 4 4 3 10
-12 -4 9 2 2 4 5 10
-9 7 6 -1 -1 0 0 3
-12 6 6 -1 0 1 2 14
-12 4 9 3 2 3 9 14
-7 3 16 13 8 6 8 4
-8 -4 26 25 15 10 3 3
-4 -5 38 40 26 14 2 1
-4 1 43 50 31 11 -2 -2
-4 9 50 60 39 14 -2 -3
-6 22 53 65 46 21 1 1
-7 36 54 71 55 33 8 2
0 46 61 84 67 39 18 10
2 51 68 96 79 49 30 25
3 60 70 101 85 57 41 38
12 69 73 110 102 81 63 53
20 86 73 112 119 102 90 74
31 106 55 89 123 120 115 95
48 124 21 47 122 145 141 116
58 131 -14 7 126 177 170 141
61 143 -47 -41 122 208 210 176
58 142 -84 -101 106 229 239 196
59 139 -109 -140 100 250 263 214
55 147 -124 -164 99 268 279 230
35 150 -126 -175 100 281 286 228
16 156 -136 -191 103 294 288 226
6 151 -144 -195 114 312 288 215
-6 132 -146 -198 102 289 253 178
-15 95 -139 -198 61 209 171 115
-26 37 -122 -193 4 118 90 61
-38 -3 -113 -191 -63 22 17 18
-36 -11 -108 -178 -96 -35 -24 -7
-31 -6 -95 -154 -94 -45 -32 -18
-26 -12 -82 -127 -79 -34 -27 -22
-18 -15 -72 -105 -67 -30 -23 0
-16 -26 -59 -86 -55 -24 -19 4
-14 -32 -44 -65 -43 -19 -15 -9
-14 -28 -35 -54 -39 -19 -15 2
-9 -17 -28 -43 -34 -17 -15 -7
-4 -6 -19 -31 -29 -18 -16 -17
-2 -6 -12 -20 -23 -17 -12 -8
0 -20 -3 -8 -13 -12 -8 -1
0 -23 3 -2 -6 -9 -7 7
-2 -13 1 -6 -7 -12 -8 3
-1 1 0 -8 -8 -12 -9 -6
-3 1 3 -5 -5 -6 -8 -5
0 0 5 -2 -3 -4 -7 -2
-1 -2 11 3 1 0 -1 -1
-8 -2 11 5 1 0 -1 4
-9 -6 14 8 4 2 1 8
-6 -6 18 11 6 4 5 8
-3 3 15 10 5 1 4 8
-1 3 16 10 6 0 0 6
-2 3 14 8 6 1 -1 13
-1 8 13 7 6 0 1 10
3 8 16 9 10 3 4 7
1 5 15 10 9 5 7 11
-3 0 17 10 8 6 9 10
-9 -2 17 11 7 4 7 4
-11 -5 19 12 7 5 4 2
-9 1 17 11 5 3 4 6
-8 7 14 9 3 -1 -1 2
-6 13 13 7 4 -1 -3 0
-1 4 16 10 9 4 0 7
-1 3 16 10 10 4 2 5
-1 6 14 8 9 3 2 3
0 9 14 8 9 4 3 13
-1 2 15 11 10 7 7 9
-1 -1 15 14 10 7 9 9
-2 3 15 13 8 7 6 3
-3 6 16 13 8 6 4 7
-1 5 17 15 10 8 6 12
-4 4 16 13 11 7 7 7
1 11 14 11 10 7 5 0
1 10 11 9 10 5 3 3
1 11 12 9 12 6 3 8
0 2 19 14 17 12 11 18
2 -4 22 18 20 16 14 23
3 2 20 16 16 14 13 11
1 2 22 17 16 14 9 10
-1 6 18 14 11 12 5 7
-1 11 16 12 10 8 5 2
-1 13 14 10 11 7 2 5
2 19 11 7 10 7 0 -1
2 15 11 7 11 6 6 2
-1 2 16 12 16 11 6 14
0 -3 18 13 19 14 8 14
3 7 16 13 17 14 10 15
5 19 13 12 13 12 8 4
5 14 18 16 16 15 8 3
2 6 18 16 16 14 9 4
2 6 15 13 14 12 6 7
3 6 18 16 17 14 7 5
0 8 15 15 18 13 7 3
-1 4 16 14 19 14 10 7
4 8 15 16 21 16 13 10
5 10 15 16 21 18 11 10
6 8 16 19 23 20 14 11
5 10 17 19 23 21 15 11
4 6 16 20 23 21 12 11
4 5 17 22 22 21 15 17
2 6 13 19 23 20 13 9
-1 6 14 18 24 20 11 5
-1 -7 18 23 30 24 14 9
-2 -9 18 22 31 27 16 13
2 0 13 19 30 25 14 12
-1 0 14 20 30 27 19 11
6 3 14 23 33 31 18 13
9 6 15 26 34 35 20 15
8 8 14 26 34 34 19 9
8 12 10 23 31 29 16 12
8 14 10 22 33 29 18 16
6 12 10 24 35 32 20 11
8 11 10 25 38 33 19 16
5 6 9 24 39 34 19 20
5 -1 8 23 42 37 19 19
7 4 6 23 42 36 24 19
9 10 5 23 42 37 23 11
8 20 2 22 41 38 19 16
13 26 3 25 45 42 23 16
14 10 6 33 51 48 30 19
16 8 5 31 53 50 33 18
13 5 4 30 55 53 34 18
13 7 0 28 57 52 34 24
16 -2 2 31 62 59 37 22
16 -5 0 29 62 60 38 23
14 -4 -3 27 62 60 40 22
13 -1 -7 25 60 59 38 26
12 -10 -5 29 61 62 42 30
15 -10 -5 31 64 64 44 30
17 0 -7 30 62 63 43 31
22 4 -5 32 65 66 44 34
23 9 -8 30 63 64 41 30
20 10 -11 26 62 62 39 24
22 8 -13 25 62 64 41 26
25 10 -14 25 62 62 40 32
29 9 -12 28 64 64 43 31
29 8 -10 27 64 65 45 36
20 6 -13 25 60 64 44 38
21 12 -16 22 57 59 44 36
22 6 -15 22 56 59 45 33
20 1 -15 22 55 60 41 28
24 9 -17 22 55 60 45 34
28 9 -13 23 57 58 44 40
26 -1 -11 25 60 64 47 35
28 2 -11 23 59 62 50 36
29 7 -13 22 55 59 45 34
27 7 -13 20 53 56 41 37
25 6 -12 22 51 55 42 43
22 7 -12 20 47 53 38 40
23 16 -14 17 42 49 36 32
25 15 -12 19 44 49 37 31
20 6 -9 21 45 48 38 27
17 10 -12 16 42 44 34 22
19 9 -9 17 42 45 35 29
22 8 -7 18 42 45 35 35
23 14 -6 19 41 44 35 27
22 17 -6 18 38 41 35 27
21 24 -7 17 35 39 31 27
19 25 -5 18 34 37 31 24
19 15 -2 19 34 36 32 27
19 8 3 23 38 38 34 30
15 13 2 21 34 34 30 34
12 17 -2 17 30 28 23 28
14 21 0 17 28 29 21 23
11 12 4 18 29 28 22 26
11 22 3 16 26 24 20 20
13 22 4 18 27 25 21 26
12 14 10 22 27 26 21 26
14 12 13 25 29 28 24 35
11 15 13 24 27 25 21 29
10 24 10 18 22 20 15 14
10 22 12 19 23 21 16 13
5 23 8 13 18 14 11 11
8 30 9 13 18 14 15 13
8 22 13 15 21 16 14 10
8 22 11 14 19 16 11 7
10 28 14 16 20 17 12 9
12 33 16 16 18 16 12 13
9 28 15 15 17 15 11 10
10 18 18 18 19 17 16 17
8 12 20 19 21 18 14 15
8 9 23 22 23 21 15 16
7 16 17 17 20 17 13 8
4 21 14 13 16 12 8 11
6 28 13 10 15 11 5 12
3 26 13 10 14 11 5 7
3 19 14 13 16 14 10 13
5 17 18 21 18 17 14 15
3 23 17 16 16 14 11 11
4 26 15 15 14 13 14 9
3 10 21 21 21 19 16 20
5 10 21 21 21 20 15 17
8 12 21 22 24 22 20 25
4 24 15 17 19 17 12 16
1 29 11 14 16 14 9 5
0 19 15 16 18 17 11 10
1 12 17 18 19 18 10 8
2 15 18 20 20 18 10 13
1 22 16 18 18 15 10 16
4 29 16 18 17 13 8 12
7 32 17 20 19 15 11 8
7 30 15 20 20 16 17 11
7 30 17 21 23 20 15 12
8 26 20 24 26 21 14 9
9 19 21 25 29 23 17 13
9 20 20 25 28 23 17 19
4 33 15 21 21 17 11 11
4 30 14 22 21 18 11 18
7 19 20 26 26 24 20 19
7 20 20 27 26 25 19 15
7 20 20 28 25 26 17 21
7 20 18 27 25 24 15 11
5 13 17 26 26 22 15 12
9 19 19 28 28 25 23 23
12 29 19 27 27 25 20 22
9 28 15 25 25 23 19 22
9 26 16 25 25 24 21 29
6 23 15 24 22 22 17 21
6 25 14 21 21 21 19 15
6 30 12 20 20 21 17 15
4 35 9 16 16 16 11 13
4 30 10 18 17 18 16 8
4 25 12 19 20 20 13 5
7 23 14 19 20 20 14 12
15 30 17 22 22 21 15 18
11 25 16 21 22 22 15 10
11 20 15 21 22 24 16 16
9 22 13 20 19 21 16 13
9 26 12 19 17 19 14 16
7 21 14 19 18 20 13 11
5 16 13 17 16 17 12 15
8 22 8 15 14 15 18 7
8 26 8 14 14 14 15 2
6 19 9 16 16 15 14 7
7 16 10 15 16 16 16 10
7 20 9 16 14 17 14 9
4 26 9 14 12 15 14 6
6 23 9 15 12 15 15 9
6 23 9 14 12 15 13 10
3 22 8 14 11 15 12 12
7 25 8 15 11 14 12 6
8 19 9 19 12 15 11 1
6 17 9 15 13 14 11 7
6 25 5 9 8 9 10 10
6 21 5 9 7 7 6 7
6 8 8 12 11 12 8 12
4 2 8 11 10 13 8 18
7 15 7 10 8 12 8 6
12 23 6 10 7 12 9 5
9 19 6 13 8 12 10 11
10 17 11 15 11 13 12 17
7 22 8 10 8 12 8 11
7 22 5 6 6 9 7 9
7 18 6 7 7 8 9 14
5 23 2 3 3 6 3 7
4 10 6 7 7 11 11 9
9 7 11 11 10 14 16 14
10 14 8 8 8 13 11 9
11 15 9 11 9 14 13 5
8 8 10 12 10 13 13 6
6 18 4 6 5 9 10 5
6 19 5 6 6 11 10 4
7 9 8 8 9 12 10 12
7 7 6 8 8 10 11 9
4 7 6 7 7 11 8 6
6 11 6 6 6 9 9 6
10 13 7 7 6 10 11 12
10 22 7 8 6 12 8 9
11 16 8 11 9 15 12 9
12 23 5 8 7 10 10 6
11 29 3 6 4 8 11 -1
10 29 2 4 4 8 9 -2
10 20 5 7 8 11 11 2
12 16 6 8 8 11 11 15
11 18 4 6 7 11 6 3
10 15 5 8 9 13 12 8
6 17 4 7 8 11 12 13
10 24 10 11 10 15 11 18
11 28 12 12 12 16 13 14
9 29 14 13 13 17 15 9
7 30 14 14 14 18 15 12
7 29 11 11 11 15 11 19
12 37 13 12 13 16 14 13
16 36 18 16 16 19 20 15
14 28 17 16 17 20 17 17
12 25 18 18 19 21 19 13
11 29 15 15 14 18 16 14
14 30 15 16 15 19 16 12
14 33 15 16 15 20 16 14
11 30 18 16 16 19 19 17
13 33 15 15 14 18 19 13
11 36 7 9 11 15 14 5
11 38 3 7 11 16 12 7
16 38 3 7 12 17 15 18
21 37 5 9 15 21 22 15
19 44 1 6 12 18 19 20
13 45 -1 3 9 16 17 15
10 42 -1 3 9 17 17 21
11 45 -1 4 10 18 19 18
10 35 2 7 13 21 22 22
11 28 -1 7 13 21 21 16
16 35 -2 7 14 22 23 11
17 40 -3 6 13 21 19 14
16 40 -4 4 10 17 16 18
18 36 -3 5 11 18 17 17
18 37 -4 4 10 18 16 13
21 39 -3 6 11 20 21 17
22 42 -2 6 10 18 19 21
19 35 -2 9 11 19 19 17
19 27 1 9 13 20 19 12
17 26 1 8 12 18 19 18
17 26 -1 7 10 17 16 11
16 20 1 8 12 16 15 13
14 19 0 7 10 13 13 5
15 22 -1 6 9 13 11 4
16 22 -4 2 5 10 7 8
17 20 -4 1 3 6 6 -3
17 22 -4 0 1 5 4 -2
14 18 -2 2 2 6 5 0
12 14 1 5 5 7 7 -2
9 15 -1 3 2 5 5 6
5 17 -6 -1 -2 1 4 -8
11 17 -6 -3 -1 1 5 -11
10 14 -5 -3 0 2 5 -9
8 0 -2 1 3 6 6 1
10 -1 -2 1 3 6 8 7
11 7 -5 -1 1 3 6 -2
8 -3 -2 1 2 6 8 -1
7 -1 -2 2 2 4 6 -4
6 11 -6 -2 -3 -2 -4 -11
11 12 -6 -2 -3 -1 -2 -10
11 9 -6 -3 -2 0 -2 -2
8 11 -7 -4 -3 -1 -3 -4
9 10 -5 -2 -2 0 4 2
8 13 -8 -5 -4 -3 2 3
7 8 -6 -3 -1 0 4 3
7 3 -3 0 2 4 5 0
10 1 -1 1 3 7 5 0
13 2 0 4 5 8 8 1
13 2 -1 3 4 7 7 -4
13 11 -4 0 1 4 3 -5
13 10 -6 -1 2 5 5 -4
14 13 -8 -2 1 4 4 -7
12 18 -10 -5 -1 1 1 -11
6 4 -9 -5 -2 2 1 -6
3 5 -10 -5 -2 1 3 -3
9 17 -8 -4 -2 1 -2 -7
11 8 -4 2 2 5 3 -4
14 4 4 10 7 7 6 1
10 -4 11 21 13 7 6 1
6 1 17 32 17 5 2 -9
8 12 25 42 23 5 -3 -18
13 25 35 55 33 9 -1 -17
13 35 38 59 40 15 0 -14
15 41 43 68 54 26 11 -5
16 52 48 83 67 39 21 6
20 64 53 93 76 48 31 9
24 75 60 103 88 62 46 23
31 79 67 116 105 83 69 41
40 95 67 118 119 102 93 57
49 110 51 95 125 119 109 76
61 113 22 55 129 143 135 102
74 114 -13 17 133 170 163 125
79 126 -49 -33 130 199 199 148
85 148 -93 -97 113 217 223 177
86 150 -123 -140 104 235 246 199
81 144 -143 -165 104 254 265 205
68 148 -147 -178 109 267 276 204
48 157 -151 -191 114 284 284 201
34 148 -160 -197 125 300 278 191
25 130 -163 -197 127 295 257 165
9 88 -158 -194 94 225 183 116
-1 37 -147 -191 37 128 96 56
-12 3 -143 -197 -34 37 27 9
-18 -11 -135 -190 -82 -27 -20 -24
-16 -11 -121 -169 -93 -46 -34 -35
-12 -9 -107 -143 -82 -39 -30 -30
-5 -10 -95 -119 -70 -32 -26 -32
-1 -20 -79 -95 -59 -28 -25 -32
-1 -35 -61 -74 -47 -19 -18 -29
4 -26 -51 -61 -40 -18 -17 -34
5 -18 -40 -48 -33 -17 -16 -27
