I II V1 V2 V3 V4 V5 V6
-9 -12 -12 -20 -26 -21 -24 -32
-8 -13 -13 -20 -26 -21 -25 -33
-6 -13 -14 -21 -28 -23 -26 -34
-5 -12 -15 -22 -29 -24 -27 -34
-6 -12 -14 -21 -29 -24 -27 -34
-9 -11 -14 -21 -29 -24 -27 -34
-13 -10 -13 -20 -28 -23 -26 -33
-15 -11 -12 -20 -27 -22 -24 -32
-13 -13 -12 -20 -27 -22 -25 -32
-11 -14 -12 -21 -28 -23 -25 -32
-11 -12 -12 -22 -28 -23 -26 -32
-9 -11 -13 -23 -29 -24 -26 -32
-8 -12 -14 -25 -31 -25 -27 -34
-8 -13 -14 -24 -30 -24 -26 -32
-8 -13 -13 -23 -29 -23 -26 -31
-6 -14 -15 -24 -29 -24 -27 -34
-4 -15 -16 -25 -30 -25 -28 -36
-7 -15 -16 -24 -30 -25 -27 -35
-11 -14 -14 -23 -29 -24 -25 -33
-11 -12 -14 -23 -29 -24 -26 -34
-10 -12 -13 -22 -28 -23 -25 -33
-9 -12 -13 -22 -28 -23 -25 -33
-8 -12 -14 -23 -28 -24 -26 -34
-6 -13 -14 -23 -28 -24 -26 -34
-5 -13 -14 -23 -29 -24 -25 -34
-6 -12 -14 -23 -29 -24 -25 -33
-7 -11 -13 -22 -28 -23 -24 -32
-9 -10 -11 -21 -27 -22 -23 -31
-10 -9 -10 -20 -26 -22 -22 -31
-9 -8 -11 -21 -27 -23 -23 -32
-6 -8 -12 -22 -28 -23 -24 -32
-6 -8 -12 -23 -28 -24 -25 -33
-10 -8 -10 -20 -27 -22 -23 -31
-11 -6 -10 -19 -25 -21 -22 -30
-8 -5 -11 -20 -24 -20 -21 -30
-5 -5 -13 -22 -25 -20 -21 -29
-5 -5 -13 -23 -25 -19 -21 -27
-5 -5 -11 -21 -23 -18 -20 -25
-3 -3 -11 -20 -22 -18 -20 -25
-3 0 -12 -22 -22 -19 -21 -25
-5 -2 -12 -22 -22 -18 -20 -23
-4 -3 -11 -21 -23 -18 -20 -22
-2 -2 -11 -22 -24 -19 -22 -22
1 0 -12 -23 -25 -20 -23 -21
1 2 -14 -24 -26 -20 -23 -19
1 2 -16 -25 -26 -20 -23 -17
0 1 -17 -25 -25 -20 -22 -15
2 0 -17 -24 -24 -18 -21 -13
5 2 -18 -25 -23 -18 -20 -11
5 3 -18 -25 -23 -18 -20 -9
5 3 -19 -25 -23 -18 -20 -7
8 3 -18 -24 -23 -17 -18 -5
10 2 -18 -24 -22 -17 -18 -3
9 2 -19 -25 -23 -18 -18 -3
8 2 -21 -27 -26 -21 -21 -6
7 2 -20 -27 -26 -21 -21 -7
6 2 -17 -24 -23 -18 -19 -5
5 3 -16 -23 -22 -17 -19 -5
4 2 -16 -22 -22 -18 -19 -4
5 2 -14 -20 -21 -16 -18 -4
7 4 -13 -18 -19 -14 -16 -3
7 6 -13 -19 -20 -14 -17 -3
7 5 -14 -22 -23 -17 -19 -3
7 3 -15 -23 -22 -18 -19 -4
5 -2 -14 -22 -20 -17 -18 -4
3 -5 -12 -20 -20 -16 -17 -4
2 -7 -12 -20 -21 -17 -18 -5
1 -9 -12 -21 -23 -19 -19 -6
-2 -10 -12 -22 -25 -21 -21 -7
0 -10 -13 -24 -26 -23 -24 -10
0 -10 -13 -25 -27 -24 -26 -12
-2 -12 -13 -25 -27 -25 -27 -14
-4 -14 -11 -26 -28 -26 -28 -16
-3 -16 -12 -28 -31 -28 -33 -19
-2 -17 -13 -29 -33 -30 -34 -21
-5 -17 -12 -28 -32 -30 -32 -21
-11 -16 -11 -26 -31 -28 -29 -19
-15 -17 -11 -26 -32 -28 -27 -18
-14 -17 -13 -28 -33 -30 -28 -20
-10 -18 -12 -29 -33 -30 -26 -20
-7 -18 -13 -29 -34 -30 -25 -20
-9 -19 -12 -28 -33 -30 -24 -19
-11 -19 -15 -29 -34 -31 -24 -19
-10 -19 -15 -29 -34 -32 -22 -19
-9 -19 -13 -28 -33 -31 -20 -18
-9 -19 -13 -29 -34 -31 -19 -18
-10 -19 -14 -29 -35 -31 -18 -19
-11 -20 -14 -30 -35 -32 -18 -20
-14 -21 -13 -29 -34 -32 -15 -19
-14 -22 -13 -30 -34 -33 -15 -19
-11 -21 -14 -30 -35 -33 -15 -20
-9 -21 -14 -30 -36 -34 -14 -22
-8 -21 -15 -30 -36 -34 -13 -23
-8 -21 -15 -30 -36 -33 -11 -22
-8 -20 -15 -30 -35 -32 -9 -21
-10 -21 -15 -30 -35 -32 -7 -21
-11 -21 -14 -30 -34 -31 -5 -20
-11 -20 -15 -31 -35 -33 -5 -21
-12 -18 -14 -31 -35 -33 -4 -21
-13 -18 -14 -31 -36 -33 -2 -20
-13 -19 -13 -30 -35 -32 0 -20
-13 -20 -13 -29 -34 -32 1 -20
-13 -17 -12 -29 -33 -29 3 -19
-14 -12 -10 -28 -29 -26 8 -18
-16 -6 -7 -25 -24 -21 13 -14
-16 0 -3 -19 -14 -12 21 -10
-12 4 7 -6 3 2 32 -5
-8 9 14 12 23 19 46 2
0 15 18 27 45 40 63 10
8 21 23 45 74 71 89 24
17 24 28 65 109 108 120 40
28 24 35 92 146 145 152 58
42 24 48 123 185 184 186 77
58 22 65 160 230 228 221 98
74 21 85 199 279 275 258 119
88 23 104 233 322 315 288 138
96 28 117 253 347 338 307 150
99 30 116 248 342 331 303 152
94 19 101 221 300 286 267 137
74 -4 86 171 213 192 193 100
40 -21 63 87 77 52 88 47
2 -24 22 -27 -87 -99 -20 -4
-26 -18 -27 -134 -219 -205 -93 -36
-30 -9 -77 -202 -283 -247 -121 -49
-18 -3 -127 -238 -301 -248 -121 -47
-9 -2 -177 -269 -316 -249 -121 -46
-5 -8 -218 -301 -340 -262 -129 -51
-3 -22 -245 -327 -368 -279 -139 -58
0 -37 -260 -339 -387 -290 -143 -60
1 -44 -258 -333 -385 -286 -138 -57
1 -43 -242 -313 -357 -265 -122 -50
1 -40 -221 -280 -320 -238 -107 -44
5 -39 -197 -243 -282 -215 -94 -40
8 -41 -176 -211 -253 -196 -86 -41
8 -47 -153 -182 -224 -181 -79 -44
5 -50 -131 -154 -197 -164 -72 -45
0 -47 -108 -127 -169 -145 -63 -44
-3 -40 -88 -104 -143 -124 -53 -41
-4 -33 -70 -87 -120 -106 -43 -38
-4 -28 -55 -72 -100 -91 -31 -33
-4 -27 -44 -59 -82 -77 -23 -29
-4 -26 -31 -46 -67 -64 -15 -23
-4 -24 -20 -34 -53 -53 -8 -19
-5 -21 -15 -28 -44 -45 -2 -18
-6 -18 -10 -24 -36 -38 4 -15
-5 -17 -7 -23 -32 -33 7 -13
-5 -16 -5 -20 -26 -29 11 -11
-5 -16 -3 -18 -23 -25 12 -11
-6 -16 -2 -16 -21 -22 13 -11
-7 -16 2 -13 -17 -19 16 -10
-6 -14 3 -12 -15 -17 18 -10
-5 -12 4 -11 -13 -17 18 -10
-5 -11 5 -9 -11 -15 19 -9
-7 -11 7 -7 -8 -12 21 -7
-8 -12 7 -6 -8 -12 21 -7
-9 -13 7 -6 -7 -11 21 -7
-9 -12 9 -5 -5 -9 23 -7
-8 -11 11 -3 -3 -9 23 -8
-7 -10 11 -3 -3 -8 22 -8
-8 -9 11 -3 -2 -6 23 -8
-8 -8 13 1 2 -4 25 -7
-7 -7 14 2 3 -4 25 -8
-6 -8 14 3 4 -3 26 -7
-6 -9 15 5 5 -2 26 -7
-5 -9 14 5 4 -3 25 -8
-5 -8 15 6 6 1 27 -6
-5 -8 16 7 7 3 29 -5
-7 -9 18 8 9 4 30 -5
-8 -8 19 10 10 3 29 -6
-8 -6 19 11 12 4 29 -6
-8 -6 20 13 14 6 30 -5
-6 -6 20 14 15 7 31 -4
-4 -6 20 13 15 7 31 -4
-4 -6 20 15 17 8 32 -2
-5 -5 20 16 16 9 33 1
-4 -5 21 17 18 11 35 3
0 -4 21 17 18 11 34 2
2 -4 22 18 19 11 35 1
2 -4 23 18 20 11 35 0
1 -4 23 19 22 12 36 0
0 -3 25 22 24 14 37 1
-5 -3 27 25 27 17 39 2
-9 -2 29 28 30 20 42 5
-7 0 28 28 31 20 42 5
-2 0 26 28 30 19 40 3
1 0 26 27 29 19 39 2
-2 0 27 29 31 21 40 3
-2 0 28 30 33 22 40 2
0 1 30 32 35 23 42 1
0 3 32 35 38 26 44 2
0 4 34 37 43 28 45 4
4 5 33 37 43 27 44 3
6 5 33 39 44 29 45 4
4 5 33 40 46 30 46 4
3 5 34 43 48 31 46 5
4 7 34 43 47 32 46 4
3 7 37 47 50 34 48 5
2 7 39 51 53 36 49 6
5 10 39 52 55 36 49 5
6 12 40 54 57 38 50 5
5 13 43 57 60 40 52 7
2 13 45 61 63 44 54 9
3 13 47 63 66 47 57 11
4 13 49 66 69 49 59 13
5 13 50 68 70 50 59 14
7 14 51 70 72 52 59 14
8 15 53 73 76 54 62 16
8 15 54 77 80 57 64 17
9 18 56 79 82 58 64 17
10 20 58 82 86 60 66 18
8 19 60 87 89 62 67 21
6 19 62 91 92 65 69 23
9 22 63 93 94 66 70 23
13 23 63 95 96 68 72 24
14 22 65 98 99 69 73 26
14 24 66 100 102 72 75 29
14 26 67 103 104 75 77 30
12 27 68 106 106 78 79 32
12 28 70 108 110 80 81 34
14 29 72 110 113 82 82 35
17 31 72 113 114 84 84 35
16 34 74 116 117 87 86 38
16 35 74 116 118 88 87 39
17 36 75 117 120 89 89 40
19 37 74 117 120 88 88 40
20 37 73 117 119 89 88 42
21 38 73 118 120 91 89 44
21 40 72 117 119 91 90 45
20 42 73 118 121 93 92 46
16 43 76 120 126 95 94 48
13 44 78 122 128 97 96 50
14 45 76 120 126 96 95 49
16 45 74 117 122 95 94 48
16 44 74 117 121 95 94 49
14 44 73 114 120 95 93 50
13 45 72 112 119 95 93 51
14 47 69 110 117 94 93 51
15 48 68 108 116 94 93 51
15 49 66 104 113 91 91 50
14 50 64 103 111 90 90 49
14 50 62 101 109 89 89 48
15 49 60 97 107 87 88 47
16 49 57 93 103 85 87 46
17 48 54 88 100 81 85 45
16 47 51 85 97 79 84 45
14 46 49 81 94 78 82 45
13 45 46 77 91 76 81 44
12 45 46 74 88 74 79 44
10 45 44 69 85 71 77 43
11 43 43 66 80 69 77 42
11 42 38 62 75 65 73 39
11 39 36 56 70 62 69 37
13 37 33 50 66 59 67 36
12 35 31 49 63 57 66 35
8 32 29 48 59 54 64 33
5 30 28 44 55 51 61 30
5 28 25 38 51 48 57 27
5 26 22 34 47 44 54 25
4 21 20 30 42 39 51 22
3 19 18 27 38 36 49 20
1 19 18 26 36 34 47 19
0 18 16 21 32 30 44 17
0 14 14 17 29 27 40 16
-2 12 12 14 24 23 37 14
-3 10 10 12 20 20 35 12
-2 9 8 9 16 17 32 10
-2 8 7 7 15 15 30 8
-3 7 8 7 14 14 28 8
-2 6 7 5 11 12 27 6
0 4 6 2 8 10 25 3
-2 1 5 1 6 7 22 1
-3 1 3 -2 4 5 20 -2
-2 1 0 -5 1 2 17 -5
-2 -2 -2 -6 -2 1 16 -6
-3 -5 -2 -7 -4 -2 15 -7
-3 -6 -3 -8 -4 -2 15 -7
-5 -6 -2 -9 -5 -3 13 -8
-7 -7 0 -9 -6 -3 11 -8
-7 -7 -2 -11 -8 -5 8 -10
-7 -7 -3 -10 -8 -5 9 -10
-8 -7 0 -8 -7 -5 10 -10
-10 -7 0 -9 -8 -5 9 -11
-10 -8 -2 -9 -9 -5 9 -11
-8 -9 -4 -11 -10 -7 7 -12
-7 -9 -4 -12 -10 -9 6 -13
-7 -10 -4 -13 -12 -10 5 -13
-6 -10 -5 -13 -12 -10 4 -13
-6 -9 -5 -13 -12 -9 4 -13
-6 -8 -5 -13 -12 -10 3 -14
-5 -7 -3 -11 -10 -8 6 -12
-4 -7 -3 -10 -9 -7 7 -12
-7 -8 -2 -9 -8 -7 7 -11
-10 -9 -3 -11 -9 -8 6 -12
-9 -10 -3 -11 -10 -9 4 -12
-8 -10 -4 -12 -11 -9 4 -11
-8 -9 -6 -13 -12 -9 4 -12
-8 -10 -4 -11 -10 -8 5 -11
-7 -10 -5 -12 -11 -10 3 -12
-7 -11 -5 -12 -11 -9 3 -12
-7 -10 -6 -12 -11 -8 3 -12
-7 -9 -4 -10 -8 -7 5 -11
-8 -9 -3 -10 -8 -6 6 -10
-9 -9 -3 -9 -7 -6 6 -10
-10 -8 -4 -9 -8 -7 5 -11
-9 -8 -4 -11 -10 -9 2 -12
-6 -8 -5 -12 -11 -9 2 -13
-7 -9 -5 -11 -10 -7 4 -12
-10 -9 -4 -11 -10 -7 4 -12
-10 -10 -4 -12 -11 -9 3 -13
-7 -9 -5 -12 -11 -9 3 -13
-7 -9 -4 -11 -10 -8 3 -13
-7 -9 -4 -12 -12 -10 2 -13
-5 -9 -7 -13 -14 -12 0 -14
-4 -9 -7 -13 -14 -13 -3 -14
-7 -10 -7 -13 -13 -12 -3 -13
-11 -10 -5 -12 -11 -11 0 -11
-11 -10 -6 -12 -10 -10 1 -10
-8 -9 -7 -13 -12 -11 0 -11
-7 -10 -7 -13 -12 -11 0 -10
-7 -10 -6 -13 -13 -11 0 -9
-5 -8 -6 -13 -13 -11 0 -10
-2 -7 -7 -14 -13 -11 0 -10
-4 -8 -6 -14 -13 -11 1 -9
-6 -9 -6 -14 -14 -11 1 -8
-7 -9 -7 -14 -14 -12 0 -9
-8 -9 -9 -16 -15 -13 -2 -10
-8 -9 -10 -17 -16 -14 -4 -10
-8 -8 -9 -16 -15 -13 -3 -9
-9 -10 -8 -14 -14 -12 -2 -9
-10 -12 -8 -15 -15 -13 -4 -11
-11 -12 -7 -14 -15 -13 -5 -11
-12 -10 -6 -14 -14 -13 -4 -10
-13 -10 -7 -15 -15 -13 -4 -9
-12 -10 -8 -17 -17 -14 -5 -9
-9 -9 -10 -18 -19 -15 -6 -10
-8 -9 -12 -19 -20 -17 -8 -12
-10 -10 -12 -19 -20 -17 -9 -12
-11 -12 -10 -18 -20 -17 -9 -12
-11 -12 -10 -19 -20 -17 -9 -13
-11 -12 -11 -20 -20 -17 -9 -13
-11 -12 -10 -19 -20 -18 -10 -14
-11 -11 -9 -19 -21 -18 -10 -14
-11 -11 -11 -20 -21 -19 -11 -14
-12 -12 -12 -20 -21 -19 -10 -15
-12 -12 -12 -21 -22 -20 -11 -16
-11 -12 -13 -22 -24 -21 -13 -19
-10 -12 -13 -23 -24 -22 -13 -20
-10 -13 -12 -23 -24 -22 -12 -20
-9 -12 -12 -22 -24 -21 -12 -20
-8 -11 -13 -22 -24 -22 -13 -21
-7 -11 -13 -23 -24 -21 -13 -21
-7 -11 -13 -23 -24 -21 -14 -20
-8 -11 -13 -23 -25 -21 -14 -18
-10 -10 -13 -23 -25 -22 -14 -17
-11 -10 -13 -23 -25 -22 -15 -17
-12 -11 -14 -24 -26 -24 -16 -17
-13 -12 -14 -23 -26 -23 -15 -17
-15 -12 -13 -22 -25 -22 -14 -16
-14 -11 -14 -24 -26 -23 -15 -17
-12 -11 -14 -24 -27 -23 -15 -17
-11 -10 -13 -23 -26 -23 -15 -17
-10 -10 -14 -25 -27 -24 -15 -18
-10 -10 -14 -25 -28 -24 -14 -17
-11 -10 -14 -24 -27 -23 -14 -15
-11 -11 -15 -25 -28 -24 -15 -14
-10 -12 -16 -26 -29 -24 -16 -14
-8 -12 -17 -27 -30 -25 -17 -15
-7 -12 -16 -26 -30 -24 -17 -15
-9 -11 -15 -25 -29 -25 -17 -15
-11 -12 -14 -24 -28 -24 -17 -15
-11 -12 -14 -25 -29 -25 -19 -16
-11 -12 -15 -26 -30 -26 -21 -17
-11 -12 -15 -27 -30 -27 -22 -18
-12 -13 -14 -26 -29 -27 -21 -18
-12 -13 -14 -25 -29 -27 -21 -17
-11 -12 -14 -25 -28 -26 -20 -17
-11 -11 -14 -25 -27 -24 -18 -16
-11 -11 -14 -24 -28 -25 -20 -16
-12 -11 -14 -25 -28 -26 -20 -17
-12 -12 -13 -24 -28 -25 -19 -17
-11 -13 -13 -24 -29 -26 -19 -18
-11 -12 -14 -25 -31 -28 -21 -18
-11 -11 -13 -24 -30 -27 -19 -16
-8 -11 -14 -25 -29 -27 -20 -16
-6 -10 -15 -27 -29 -28 -21 -17
-7 -9 -15 -26 -28 -27 -20 -16
-10 -8 -13 -23 -26 -23 -17 -14
-13 -7 -12 -22 -26 -23 -16 -13
-15 -6 -10 -21 -26 -22 -14 -12
-12 -6 -11 -21 -25 -21 -14 -12
-10 -6 -12 -22 -24 -21 -15 -13
-10 -6 -13 -24 -26 -21 -15 -13
-11 -4 -13 -23 -25 -21 -14 -11
-9 -2 -15 -23 -26 -22 -14 -11
-8 1 -15 -24 -26 -22 -13 -10
-8 2 -15 -24 -25 -21 -12 -9
-8 3 -14 -23 -23 -19 -12 -9
-7 3 -15 -24 -24 -20 -14 -10
-7 3 -15 -25 -25 -20 -14 -11
-9 4 -14 -24 -24 -20 -13 -11
-9 4 -15 -24 -24 -20 -13 -11
-9 3 -15 -25 -25 -21 -14 -10
-8 3 -16 -26 -25 -22 -14 -10
-7 4 -19 -28 -27 -23 -15 -11
-3 5 -21 -30 -28 -25 -17 -13
0 6 -22 -30 -27 -23 -17 -12
-2 6 -21 -29 -25 -20 -14 -9
0 7 -22 -29 -25 -18 -12 -8
4 7 -22 -28 -25 -18 -12 -7
6 7 -22 -28 -25 -18 -12 -7
5 7 -21 -28 -25 -19 -12 -7
5 7 -22 -29 -27 -22 -14 -9
4 6 -22 -29 -27 -22 -16 -10
2 6 -20 -27 -24 -20 -14 -8
2 6 -18 -25 -22 -18 -12 -7
1 4 -18 -22 -21 -16 -10 -5
1 2 -17 -21 -21 -15 -9 -5
0 3 -16 -20 -19 -15 -9 -4
-2 3 -16 -20 -19 -15 -9 -4
-2 4 -19 -23 -22 -17 -12 -7
-2 4 -19 -24 -22 -18 -12 -7
-2 4 -17 -22 -22 -18 -11 -7
-2 2 -14 -19 -21 -17 -11 -7
-3 0 -14 -18 -20 -17 -12 -8
-5 -4 -14 -20 -22 -19 -14 -8
-6 -6 -14 -22 -24 -20 -14 -8
-5 -6 -15 -23 -25 -20 -14 -9
-6 -6 -15 -22 -25 -20 -14 -9
-9 -9 -14 -24 -26 -22 -16 -11
-11 -10 -14 -24 -28 -24 -18 -13
-10 -11 -13 -25 -29 -25 -20 -15
-10 -13 -14 -25 -30 -27 -22 -16
-12 -14 -14 -25 -31 -28 -22 -16
-14 -15 -15 -25 -31 -29 -23 -16
-13 -16 -15 -26 -32 -30 -24 -17
-12 -15 -15 -27 -33 -31 -24 -17
-12 -15 -16 -27 -33 -31 -24 -17
-12 -16 -16 -28 -34 -32 -24 -17
-11 -17 -16 -28 -33 -32 -25 -17
-11 -16 -16 -27 -33 -31 -25 -16
-10 -15 -16 -27 -33 -31 -25 -17
-9 -16 -16 -27 -33 -32 -26 -18
-8 -18 -16 -27 -34 -34 -27 -19
-11 -18 -16 -27 -34 -34 -27 -18
-13 -18 -16 -28 -35 -34 -28 -19
-12 -19 -16 -29 -36 -34 -29 -20
-11 -20 -16 -29 -36 -34 -30 -20
-9 -19 -16 -28 -35 -33 -29 -20
-8 -18 -17 -28 -36 -34 -30 -21
-8 -18 -17 -28 -36 -34 -31 -21
-9 -18 -15 -27 -34 -33 -30 -21
-11 -18 -15 -28 -34 -32 -30 -21
-14 -18 -14 -27 -33 -31 -28 -20
-18 -18 -13 -27 -32 -30 -27 -19
-18 -17 -13 -26 -32 -31 -26 -19
-15 -16 -15 -27 -34 -33 -28 -20
-13 -17 -15 -27 -33 -33 -28 -19
-14 -18 -15 -27 -33 -33 -28 -19
-13 -18 -15 -29 -34 -33 -29 -21
-12 -16 -13 -28 -32 -29 -26 -19
-14 -10 -11 -26 -28 -26 -24 -17
-15 -3 -10 -24 -23 -21 -21 -15
-14 5 -7 -18 -15 -14 -15 -11
-11 10 1 -6 2 -2 -6 -7
-9 16 10 11 24 19 10 3
-3 21 15 26 47 44 29 13
6 26 19 43 75 76 55 27
17 30 24 62 110 114 85 45
29 32 31 85 146 153 117 63
42 30 43 113 185 196 154 84
54 27 59 148 231 244 193 107
66 26 78 185 280 295 234 131
76 29 97 216 320 335 265 150
82 33 109 232 342 354 278 159
84 34 108 229 336 347 273 160
77 24 97 204 294 298 235 144
61 2 85 160 207 197 155 103
32 -18 63 85 73 46 40 46
0 -25 26 -15 -85 -116 -75 -11
-25 -22 -18 -108 -213 -230 -155 -49
-33 -18 -59 -166 -274 -270 -183 -62
-28 -14 -102 -200 -294 -271 -183 -61
-18 -14 -147 -228 -307 -270 -181 -59
-11 -19 -186 -258 -329 -280 -187 -64
-9 -31 -213 -281 -354 -294 -193 -67
-7 -47 -226 -293 -369 -301 -194 -67
-4 -53 -228 -290 -368 -296 -188 -64
0 -49 -220 -276 -348 -278 -177 -59
2 -43 -202 -252 -315 -253 -159 -53
6 -39 -183 -222 -281 -229 -146 -51
10 -39 -162 -193 -249 -207 -135 -48
9 -44 -141 -164 -219 -188 -124 -46
3 -46 -119 -137 -191 -169 -116 -47
-4 -44 -98 -110 -163 -149 -104 -45
-7 -37 -80 -91 -138 -130 -92 -41
-6 -30 -66 -77 -117 -112 -82 -40
-6 -26 -53 -65 -97 -95 -72 -35
-5 -23 -41 -53 -80 -79 -62 -29
-3 -20 -32 -41 -65 -67 -53 -24
-2 -18 -22 -32 -53 -57 -47 -22
-3 -17 -17 -27 -44 -49 -41 -21
-2 -15 -14 -24 -37 -43 -36 -19
0 -13 -12 -22 -31 -36 -31 -18
-2 -12 -9 -20 -26 -32 -29 -17
-5 -11 -6 -18 -22 -28 -26 -15
-6 -11 -4 -18 -21 -26 -25 -14
-7 -10 -2 -16 -18 -23 -23 -14
-7 -10 1 -14 -15 -21 -21 -13
-7 -9 2 -12 -12 -19 -20 -13
-6 -9 4 -10 -10 -16 -18 -13
-6 -8 4 -9 -8 -14 -17 -13
-6 -8 4 -8 -7 -14 -15 -11
-7 -7 5 -8 -6 -12 -13 -10
-7 -6 5 -6 -3 -10 -11 -8
-6 -6 6 -6 -2 -9 -11 -7
-7 -6 8 -5 -2 -8 -10 -7
-8 -6 9 -3 2 -7 -8 -6
-7 -5 11 -2 4 -5 -7 -5
-6 -5 11 0 5 -5 -8 -4
-5 -4 12 1 6 -4 -6 -3
-3 -4 12 1 6 -3 -5 -3
-3 -3 11 1 6 -2 -4 -2
-4 -4 11 0 5 -2 -4 -3
-5 -4 12 1 7 1 -3 -2
-4 -4 11 1 7 0 -3 -2
-3 -4 12 3 8 2 -2 1
-2 -3 13 5 10 4 0 1
0 0 12 5 12 5 0 1
-2 1 13 7 13 5 2 2
-5 1 15 9 15 7 4 3
-5 1 16 9 15 7 4 3
-3 1 17 9 15 7 4 3
0 2 16 8 15 8 4 2
0 3 15 8 16 8 4 1
2 4 14 7 16 7 4 1
4 5 14 8 16 8 3 1
4 6 16 10 19 10 5 2
2 6 19 13 22 12 7 2
0 6 20 14 22 12 7 1
-3 6 22 16 24 14 8 3
-5 6 24 18 27 17 10 5
-5 7 23 17 27 16 9 5
-2 7 22 16 27 16 9 4
2 8 20 17 29 18 11 4
3 7 20 19 30 19 11 5
2 7 20 20 31 20 12 5
2 9 23 23 34 22 14 6
3 11 25 26 37 24 15 7
5 13 25 26 38 25 15 7
6 13 27 28 40 27 16 7
6 13 28 29 42 28 18 8
4 12 30 31 45 30 20 9
2 13 30 32 46 31 21 9
1 14 30 34 48 33 22 10
3 15 31 36 49 34 23 11
6 16 32 37 51 35 24 11
5 17 35 40 54 38 26 13
4 18 37 43 57 40 28 14
5 18 38 45 60 43 30 16
7 18 39 46 62 44 31 16
8 18 42 49 65 46 32 17
10 19 43 51 66 48 33 18
11 20 43 53 67 49 34 18
10 21 43 56 70 50 35 19
9 23 45 59 73 52 37 20
8 25 48 62 76 55 38 20
8 26 51 65 81 60 44 23
8 27 52 68 85 61 45 25
8 27 53 69 87 62 46 26
10 29 53 70 88 62 46 25
13 30 55 73 89 64 47 26
15 30 55 74 91 65 47 28
15 32 57 77 94 68 49 31
15 33 57 79 97 70 51 33
15 34 59 84 100 73 55 36
15 36 61 85 102 76 57 37
14 38 63 87 105 79 60 39
14 40 63 89 106 81 62 40
15 43 64 90 108 82 63 42
17 44 64 91 109 85 65 43
19 44 64 92 111 87 67 45
21 44 63 92 111 86 65 46
21 46 63 92 110 87 65 46
20 47 63 93 113 89 68 48
20 48 63 94 115 90 70 51
19 49 65 95 116 92 72 53
18 50 66 96 117 94 74 55
16 51 66 97 118 96 76 56
14 52 67 96 118 97 78 58
14 52 65 95 117 97 77 58
16 52 63 93 116 95 76 57
15 52 63 91 115 94 75 58
17 53 62 90 113 93 75 57
19 54 59 88 111 92 74 56
18 53 58 85 109 90 73 56
17 53 56 81 106 88 71 54
18 54 55 80 105 88 72 55
20 54 53 77 103 86 71 54
18 53 53 75 101 86 71 55
17 53 51 71 98 84 71 54
18 53 48 68 95 81 70 54
19 53 46 64 92 78 68 54
16 53 44 61 88 76 66 53
16 53 40 57 84 72 64 51
18 52 36 52 78 67 61 48
18 51 35 49 76 66 60 47
14 49 34 47 74 66 59 46
11 47 32 43 70 62 56 44
10 45 29 38 65 58 53 42
11 45 27 35 61 55 49 38
10 42 26 32 57 51 45 36
9 37 24 28 53 48 43 34
8 35 21 24 49 45 42 33
6 33 19 21 46 42 39 31
3 31 18 19 43 38 37 30
3 28 17 16 38 34 33 28
4 24 15 13 35 32 31 26
4 22 14 11 31 29 29 24
4 20 12 8 27 25 26 21
4 20 10 5 24 22 23 19
4 19 9 3 22 20 21 18
4 17 7 -2 17 17 18 14
3 15 5 -5 13 14 16 12
2 13 4 -7 11 11 14 10
1 11 4 -7 9 9 12 9
1 9 4 -8 7 8 10 8
1 8 3 -10 5 6 8 5
1 6 3 -11 4 5 7 4
1 5 2 -12 2 2 5 1
0 4 1 -13 1 0 3 1
-2 3 1 -13 0 -2 2 1
-3 2 0 -15 -4 -4 -2 -2
-4 1 -2 -15 -6 -5 -2 -3
-5 0 -3 -16 -7 -6 -3 -3
-4 -2 -3 -18 -7 -8 -4 -3
-4 -2 -3 -18 -7 -8 -4 -3
-4 -4 -3 -18 -8 -8 -3 -3
-3 -4 -2 -18 -8 -9 -3 -4
0 -4 -3 -19 -9 -11 -5 -4
0 -4 -4 -19 -10 -11 -6 -4
0 -5 -4 -19 -9 -10 -5 -4
2 -4 -5 -20 -10 -11 -6 -5
2 -4 -5 -20 -10 -10 -6 -5
0 -5 -4 -19 -10 -10 -5 -4
0 -6 -4 -20 -10 -11 -6 -4
0 -5 -4 -20 -9 -10 -5 -5
1 -5 -4 -20 -10 -11 -6 -6
2 -5 -4 -20 -10 -11 -6 -6
1 -4 -4 -19 -9 -11 -6 -5
-3 -4 -3 -18 -7 -10 -6 -4
-3 -6 -3 -18 -8 -10 -6 -4
-2 -6 -5 -20 -11 -13 -9 -7
-5 -5 -4 -19 -9 -11 -7 -7
-9 -5 -3 -17 -7 -9 -5 -4
-8 -5 -2 -16 -7 -8 -4 -3
-5 -5 -4 -18 -8 -10 -6 -6
-5 -5 -4 -19 -9 -10 -8 -8
-5 -4 -3 -18 -9 -11 -7 -7
-3 -4 -3 -19 -9 -12 -7 -7
-3 -4 -4 -19 -9 -11 -8 -6
-4 -5 -3 -18 -7 -10 -8 -5
-2 -4 -3 -19 -8 -10 -8 -6
0 -3 -4 -19 -9 -11 -8 -7
-2 -4 -4 -19 -8 -11 -7 -7
-3 -5 -5 -19 -9 -11 -7 -8
0 -4 -6 -21 -10 -10 -8 -9
1 -4 -6 -21 -11 -10 -8 -8
-2 -4 -5 -20 -10 -10 -7 -7
-4 -4 -4 -20 -10 -10 -8 -7
-6 -4 -3 -19 -9 -9 -7 -6
-7 -4 -4 -19 -9 -10 -6 -5
-7 -5 -5 -18 -8 -9 -5 -4
-6 -5 -6 -18 -9 -10 -6 -5
-6 -5 -6 -19 -10 -10 -7 -6
-6 -5 -7 -19 -10 -11 -7 -6
-6 -5 -6 -19 -10 -11 -8 -6
-6 -4 -6 -19 -10 -9 -6 -6
-5 -4 -5 -18 -9 -8 -5 -5
-2 -2 -5 -20 -11 -10 -7 -6
1 0 -6 -21 -13 -12 -8 -7
0 -3 -7 -21 -13 -12 -8 -7
-3 -5 -8 -22 -13 -12 -9 -7
-3 -6 -7 -22 -12 -11 -7 -7
-2 -6 -9 -23 -13 -11 -7 -7
-2 -6 -9 -23 -14 -11 -7 -6
-3 -6 -8 -23 -13 -11 -7 -6
-3 -6 -8 -23 -13 -11 -7 -8
-4 -5 -8 -23 -13 -11 -8 -8
-6 -5 -8 -23 -13 -11 -8 -7
-7 -5 -6 -22 -13 -11 -8 -6
-5 -4 -7 -24 -15 -13 -10 -8
-3 -4 -9 -25 -16 -14 -11 -9
-2 -5 -9 -25 -16 -14 -11 -9
0 -6 -10 -25 -17 -15 -11 -9
0 -7 -11 -26 -17 -16 -12 -10
-2 -6 -10 -25 -16 -15 -11 -9
-5 -6 -9 -24 -15 -13 -9 -8
-7 -7 -9 -24 -16 -14 -11 -9
-9 -7 -9 -25 -17 -16 -12 -10
-9 -8 -10 -26 -18 -16 -13 -10
-8 -8 -11 -27 -18 -15 -13 -9
-6 -8 -11 -27 -19 -16 -13 -10
-5 -8 -10 -27 -19 -16 -13 -10
-4 -8 -10 -27 -20 -17 -13 -10
-3 -8 -12 -28 -22 -19 -14 -12
0 -9 -13 -29 -22 -20 -15 -12
2 -9 -13 -30 -23 -20 -16 -14
2 -8 -13 -31 -23 -21 -16 -14
0 -8 -12 -30 -23 -22 -15 -13
-4 -9 -12 -29 -23 -22 -15 -12
-6 -10 -11 -28 -22 -21 -14 -11
-8 -10 -11 -28 -21 -19 -14 -10
-10 -10 -11 -28 -21 -19 -15 -10
-10 -10 -10 -27 -20 -19 -13 -9
-10 -9 -9 -26 -19 -18 -13 -8
-12 -10 -9 -26 -20 -18 -14 -8
-13 -11 -9 -27 -21 -18 -14 -9
-11 -10 -10 -28 -21 -18 -14 -10
-8 -9 -12 -30 -23 -20 -16 -12
-7 -9 -12 -30 -24 -20 -16 -12
-6 -9 -12 -30 -24 -21 -17 -12
-5 -10 -11 -29 -24 -22 -17 -13
-4 -10 -14 -31 -26 -24 -19 -15
-5 -11 -15 -32 -26 -25 -20 -16
-7 -12 -15 -31 -26 -23 -20 -15
-6 -11 -14 -32 -25 -23 -20 -14
-6 -11 -14 -32 -26 -23 -19 -14
-8 -12 -14 -31 -27 -23 -18 -14
-11 -12 -14 -31 -27 -23 -18 -14
-11 -11 -13 -30 -26 -23 -18 -13
-9 -11 -13 -31 -27 -24 -19 -14
-8 -12 -13 -31 -27 -24 -20 -14
-7 -11 -14 -31 -26 -23 -19 -14
-7 -11 -14 -30 -26 -23 -18 -13
-8 -11 -13 -30 -26 -22 -17 -13
-8 -12 -13 -30 -27 -22 -18 -12
-8 -10 -12 -29 -27 -21 -18 -12
-7 -8 -12 -29 -25 -20 -17 -11
-6 -7 -12 -29 -24 -20 -16 -11
-7 -8 -11 -28 -24 -20 -15 -11
-7 -8 -12 -29 -24 -20 -16 -12
-7 -6 -12 -30 -25 -21 -16 -12
-7 -5 -12 -29 -25 -20 -15 -12
-7 -5 -12 -29 -25 -20 -16 -13
-5 -5 -13 -29 -26 -21 -19 -14
-4 -5 -13 -29 -25 -21 -19 -13
-3 -5 -14 -30 -26 -21 -19 -14
-2 -4 -15 -29 -25 -20 -18 -13
-2 -3 -15 -30 -25 -20 -17 -11
-2 -2 -14 -28 -24 -18 -15 -10
-4 0 -13 -28 -23 -16 -14 -9
-6 1 -12 -28 -22 -15 -13 -8
-6 1 -13 -29 -22 -16 -13 -7
-4 1 -14 -30 -23 -17 -14 -8
-4 1 -13 -29 -23 -17 -14 -9
-4 1 -14 -30 -23 -16 -13 -8
-3 2 -16 -32 -25 -18 -14 -9
-4 2 -17 -32 -24 -17 -13 -7
-5 3 -18 -31 -23 -16 -11 -7
-6 5 -18 -30 -23 -15 -10 -6
-3 6 -18 -30 -23 -15 -10 -5
3 5 -20 -31 -23 -15 -10 -4
3 4 -21 -32 -23 -14 -9 -3
2 3 -20 -30 -22 -12 -7 -2
5 2 -21 -31 -23 -13 -9 -3
5 1 -21 -31 -24 -14 -10 -4
2 2 -20 -31 -24 -14 -11 -4
-3 4 -18 -31 -24 -15 -11 -4
-2 5 -18 -30 -23 -14 -10 -4
1 5 -17 -28 -22 -13 -10 -4
-2 4 -15 -25 -19 -10 -8 -3
-2 3 -14 -23 -17 -9 -7 -2
2 2 -16 -22 -18 -10 -7 -2
4 2 -17 -24 -20 -11 -8 -3
6 2 -18 -27 -21 -11 -9 -3
8 1 -20 -29 -23 -13 -10 -4
9 -2 -18 -27 -22 -12 -10 -4
9 -4 -17 -25 -22 -13 -12 -6
7 -6 -16 -24 -22 -13 -12 -6
3 -8 -15 -25 -23 -14 -13 -6
0 -9 -15 -26 -24 -15 -14 -8
-5 -9 -15 -26 -25 -15 -14 -9
-11 -9 -12 -25 -22 -13 -12 -7
-14 -10 -10 -24 -21 -14 -12 -8
-15 -13 -11 -25 -23 -17 -16 -12
-15 -15 -14 -27 -27 -20 -19 -15
-15 -16 -14 -27 -28 -21 -21 -16
-13 -17 -14 -28 -30 -23 -22 -18
-12 -18 -15 -29 -32 -25 -24 -18
-10 -17 -15 -30 -32 -25 -24 -18
-9 -18 -16 -31 -33 -26 -24 -18
-11 -19 -17 -32 -34 -27 -25 -20
-13 -19 -16 -31 -34 -26 -24 -20
-12 -18 -17 -32 -35 -27 -25 -21
-11 -19 -18 -32 -35 -28 -26 -22
-11 -21 -17 -31 -34 -27 -25 -21
-12 -22 -17 -31 -34 -26 -25 -20
-13 -22 -14 -29 -32 -25 -24 -19
-13 -22 -14 -29 -33 -25 -24 -19
-14 -22 -14 -29 -33 -26 -24 -19
-13 -22 -15 -29 -34 -27 -24 -19
-11 -23 -16 -31 -35 -28 -26 -20
-11 -23 -16 -31 -36 -28 -26 -19
-11 -22 -16 -31 -36 -28 -25 -19
-11 -22 -16 -30 -35 -28 -25 -20
-15 -21 -14 -28 -33 -27 -25 -19
-19 -21 -13 -26 -32 -26 -24 -17
-19 -21 -13 -27 -33 -27 -25 -18
-18 -21 -14 -28 -33 -27 -26 -19
-17 -22 -14 -28 -34 -28 -26 -20
-17 -22 -15 -29 -35 -29 -27 -20
-17 -22 -15 -30 -36 -29 -27 -21
-16 -22 -15 -29 -36 -28 -27 -20
-14 -19 -16 -30 -35 -28 -27 -21
-14 -16 -15 -30 -33 -27 -25 -20
-16 -12 -13 -29 -30 -23 -23 -18
-16 -6 -11 -26 -25 -19 -20 -16
-16 0 -6 -19 -15 -10 -14 -12
-14 4 3 -6 3 5 -4 -7
-12 9 11 13 25 26 13 3
-7 17 17 29 50 51 32 15
3 24 20 45 80 82 58 29
14 28 25 65 116 122 90 48
25 29 33 92 153 164 122 67
36 28 48 123 195 209 159 88
50 27 66 160 243 258 198 111
64 27 87 196 294 307 237 132
73 30 106 227 334 347 267 149
78 35 116 243 353 365 280 159
81 36 112 236 342 353 272 159
74 22 99 209 295 299 231 140
54 -7 84 159 201 192 149 97
25 -29 58 78 58 36 35 42
-5 -35 13 -30 -107 -124 -78 -12
-25 -30 -36 -128 -234 -234 -155 -50
-32 -24 -78 -183 -288 -267 -179 -62
-26 -20 -122 -214 -303 -265 -177 -60
-17 -20 -168 -242 -317 -266 -176 -58
-14 -27 -201 -270 -341 -278 -182 -61
-13 -43 -224 -290 -365 -294 -190 -67
-11 -59 -233 -297 -377 -299 -191 -66
-8 -64 -231 -290 -368 -289 -182 -60
-4 -58 -221 -274 -344 -269 -168 -53
0 -52 -203 -246 -309 -243 -152 -48
2 -50 -182 -212 -272 -217 -138 -44
5 -50 -160 -180 -240 -195 -127 -43
5 -52 -137 -151 -212 -177 -117 -43
1 -53 -115 -127 -185 -159 -110 -45
-2 -50 -96 -103 -158 -139 -100 -44
0 -44 -77 -82 -133 -118 -88 -40
-3 -38 -63 -68 -111 -101 -77 -38
-8 -34 -52 -57 -94 -87 -67 -34
-10 -31 -40 -46 -78 -73 -58 -30
-11 -29 -30 -35 -64 -61 -51 -27
-11 -26 -23 -27 -52 -51 -45 -24
-11 -24 -18 -23 -43 -43 -37 -19
-11 -22 -15 -19 -35 -35 -32 -17
-11 -20 -13 -16 -31 -30 -29 -16
-11 -18 -10 -13 -26 -26 -26 -14
-11 -18 -7 -11 -23 -23 -24 -13
-12 -18 -4 -10 -20 -21 -22 -12
-15 -18 0 -7 -16 -18 -20 -10
-17 -18 2 -4 -13 -15 -18 -9
-14 -16 1 -5 -13 -16 -19 -11
-10 -15 2 -4 -12 -15 -18 -10
-8 -15 2 -4 -12 -14 -17 -10
-9 -15 4 0 -10 -12 -15 -7
-9 -14 4 1 -9 -12 -14 -7
-10 -14 6 3 -6 -10 -13 -6
-11 -15 6 3 -5 -10 -13 -7
-11 -15 7 3 -4 -9 -13 -7
-8 -13 8 5 -2 -6 -11 -7
-8 -11 8 6 0 -6 -11 -7
-9 -11 8 6 0 -6 -11 -8
-11 -12 9 7 2 -5 -9 -7
-10 -11 10 9 4 -5 -8 -6
-10 -10 11 10 5 -5 -7 -5
-11 -10 12 12 7 -4 -5 -4
-12 -11 12 13 7 -4 -5 -3
-10 -12 12 13 7 -4 -6 -3
-10 -11 13 15 9 -2 -5 -3
-11 -9 13 16 10 1 -4 -3
-11 -8 13 17 11 2 -3 -2
-9 -7 13 17 11 1 -4 -2
-7 -7 13 18 11 1 -4 -3
-4 -7 13 18 11 1 -5 -4
-2 -7 14 19 12 2 -4 -3
-3 -6 14 20 13 3 -3 -2
-4 -6 14 21 15 4 -2 0
-4 -5 15 22 17 5 0 0
-4 -4 15 23 18 6 1 0
-5 -2 17 25 21 9 4 2
-7 -2 19 27 23 10 5 3
-5 -3 18 27 22 9 4 2
-4 -3 19 29 24 11 6 3
-6 -3 21 32 27 14 8 4
-8 -2 22 33 28 15 8 4
-9 -2 22 34 29 16 9 3
-9 0 23 36 31 17 10 4
-9 1 24 38 33 18 11 5
-7 2 25 40 34 19 11 5
-6 4 25 42 36 21 12 5
-6 5 25 43 37 22 13 4
-6 4 27 45 39 24 15 5
-6 5 27 45 42 25 15 6
-5 6 29 48 44 27 16 7
-4 7 29 49 45 28 17 6
-5 6 31 52 48 30 18 7
-5 6 31 54 50 31 19 8
-4 7 31 56 51 32 20 8
-2 8 33 57 53 34 21 8
-2 9 35 60 56 36 23 10
-2 10 37 62 57 37 24 10
1 11 38 64 58 38 25 11
2 11 40 66 61 40 27 12
3 12 40 68 62 42 27 12
2 12 44 72 66 45 30 15
2 14 45 75 69 48 31 16
1 16 47 78 72 50 33 18
1 16 49 81 76 52 36 19
2 18 51 86 79 53 37 21
3 20 53 90 84 56 40 22
4 19 55 92 87 58 42 24
4 18 56 93 88 58 42 25
5 20 56 96 90 60 43 25
6 21 58 99 92 62 44 25
6 23 61 103 95 65 47 27
6 25 62 105 98 68 49 29
6 26 63 107 101 70 51 31
6 26 64 109 102 71 52 32
7 28 65 110 104 73 53 33
10 31 66 112 107 76 56 35
13 33 67 115 108 77 57 37
13 34 68 116 110 79 59 39
13 35 66 116 110 80 60 40
12 36 68 119 113 82 63 43
8 37 70 122 117 87 65 46
6 38 72 126 119 90 68 48
9 39 71 123 119 89 67 47
11 42 71 123 119 89 67 47
12 44 71 125 120 90 68 49
14 45 71 125 121 92 70 51
16 46 71 125 120 91 70 52
13 47 71 125 120 92 71 53
11 47 70 123 119 92 71 54
11 48 70 122 118 92 72 54
12 48 69 121 117 92 72 54
13 48 67 119 115 91 71 53
15 48 66 117 114 90 70 54
16 47 65 115 112 89 70 55
14 49 64 113 111 89 71 55
14 50 61 110 110 88 70 55
16 49 59 107 107 87 70 55
14 48 57 104 105 85 69 55
8 46 56 103 104 85 70 57
7 46 53 99 100 82 69 56
7 46 50 96 97 80 67 54
6 46 47 92 93 78 65 53
8 45 44 88 89 74 63 52
9 44 43 84 85 71 61 51
9 44 42 79 81 68 58 49
9 42 39 76 78 65 57 48
9 39 35 72 73 61 54 45
8 38 33 68 69 58 52 44
6 36 31 65 65 55 50 42
4 34 31 62 62 53 48 40
6 32 27 57 56 49 43 37
7 29 23 51 51 43 37 32
7 26 19 48 47 38 34 29
4 25 20 46 44 36 33 28
0 25 19 44 40 33 31 26
-4 22 19 42 38 31 29 25
-4 17 18 39 35 28 27 23
-3 14 15 34 29 24 23 19
-2 14 13 31 26 21 20 18
-2 13 11 28 22 18 17 16
0 11 9 25 19 16 15 15
1 8 7 22 15 13 13 12
1 6 7 21 13 11 11 11
-2 5 6 20 11 9 10 10
-3 4 6 19 9 7 8 8
-3 2 4 17 6 4 5 6
-4 1 3 16 5 3 4 4
-4 0 2 14 3 0 3 2
-5 -3 1 12 1 -2 1 2
-5 -4 1 11 0 -3 0 1
-5 -4 0 10 -4 -5 -3 0
-5 -4 0 9 -5 -7 -5 -2
-5 -5 -2 8 -6 -8 -7 -4
-5 -7 -2 9 -6 -8 -7 -4
-6 -7 -2 8 -7 -9 -8 -5
-5 -7 -2 7 -8 -10 -9 -5
-5 -7 -3 6 -9 -11 -10 -7
-6 -8 -4 5 -11 -12 -11 -8
-7 -8 -3 6 -10 -11 -10 -7
-5 -8 -4 5 -11 -12 -12 -8
-4 -8 -4 5 -12 -12 -12 -8
-3 -8 -6 3 -13 -14 -14 -9
-3 -8 -6 3 -13 -15 -15 -10
-3 -8 -7 2 -13 -17 -16 -10
-2 -8 -5 4 -12 -16 -15 -9
-2 -8 -4 5 -11 -14 -14 -9
-3 -9 -2 6 -10 -12 -12 -8
-4 -10 -4 4 -11 -15 -13 -8
-6 -10 -4 5 -11 -14 -12 -8
-9 -10 -3 6 -10 -13 -11 -7
-8 -9 -4 5 -11 -14 -13 -8
-6 -10 -4 5 -11 -14 -13 -8
-7 -10 -4 5 -11 -14 -14 -8
-9 -10 -2 7 -10 -13 -13 -6
-10 -9 -2 7 -10 -13 -13 -6
-8 -9 -3 5 -11 -14 -14 -7
-6 -10 -4 5 -11 -15 -14 -9
-5 -9 -5 3 -13 -16 -15 -10
-6 -8 -5 4 -12 -15 -15 -9
-5 -9 -4 4 -11 -15 -15 -9
-6 -9 -3 5 -10 -13 -14 -8
-7 -8 -3 5 -10 -13 -14 -8
-6 -8 -4 4 -11 -14 -15 -9
-5 -8 -4 4 -11 -15 -15 -9
-4 -8 -5 3 -11 -15 -15 -8
-4 -8 -4 4 -11 -14 -14 -8
-5 -8 -4 4 -10 -13 -14 -7
-7 -7 -4 4 -11 -12 -13 -7
-10 -7 -4 5 -10 -12 -12 -6
-9 -8 -4 4 -10 -12 -12 -6
-5 -9 -6 3 -12 -13 -13 -7
-5 -8 -6 3 -12 -13 -13 -7
-7 -8 -6 3 -12 -13 -12 -6
-7 -8 -7 2 -12 -13 -12 -6
-5 -6 -7 1 -14 -14 -14 -8
-4 -5 -6 2 -12 -13 -13 -7
-4 -6 -7 2 -12 -13 -13 -8
-4 -7 -9 0 -13 -14 -14 -8
-4 -6 -8 1 -13 -14 -14 -7
-3 -5 -9 0 -14 -15 -14 -7
-4 -6 -9 0 -14 -14 -13 -7
-7 -5 -9 0 -14 -13 -13 -7
-7 -4 -9 -2 -15 -15 -15 -8
-5 -5 -8 -2 -16 -15 -15 -8
-3 -7 -8 -3 -16 -16 -16 -9
-2 -8 -9 -3 -16 -16 -16 -10
-2 -8 -9 -3 -17 -17 -17 -10
-2 -9 -9 -4 -18 -18 -17 -10
-2 -9 -9 -5 -19 -18 -17 -10
0 -10 -10 -5 -19 -18 -17 -10
0 -10 -10 -6 -20 -18 -17 -10
-4 -10 -10 -5 -19 -17 -16 -9
-6 -9 -8 -4 -17 -16 -15 -7
-5 -8 -8 -5 -17 -17 -16 -8
-4 -8 -8 -4 -17 -17 -16 -8
-4 -8 -9 -4 -17 -17 -16 -8
-5 -8 -10 -6 -18 -19 -17 -9
-5 -9 -11 -8 -20 -20 -18 -11
-5 -10 -10 -7 -20 -20 -18 -10
-8 -10 -9 -7 -20 -19 -18 -10
-10 -10 -9 -7 -21 -20 -19 -10
-9 -10 -10 -7 -21 -20 -19 -11
-7 -10 -11 -9 -23 -22 -20 -13
-7 -10 -10 -9 -23 -22 -20 -12
-8 -10 -9 -7 -21 -21 -18 -10
-9 -10 -9 -7 -21 -21 -18 -9
-8 -10 -9 -8 -21 -21 -18 -9
-7 -10 -11 -10 -23 -23 -19 -10
-9 -10 -10 -10 -23 -22 -19 -9
-10 -11 -10 -10 -23 -22 -19 -10
-8 -12 -12 -12 -25 -24 -21 -12
-7 -14 -13 -13 -25 -24 -22 -12
-7 -15 -12 -12 -24 -24 -21 -12
-6 -13 -12 -13 -25 -24 -21 -12
-4 -12 -13 -13 -25 -24 -22 -12
-4 -12 -12 -14 -25 -25 -22 -12
-4 -13 -13 -14 -25 -26 -23 -13
-4 -13 -13 -15 -26 -26 -23 -14
-3 -13 -14 -15 -27 -27 -23 -14
-2 -13 -14 -16 -28 -27 -24 -15
-3 -13 -14 -16 -28 -28 -25 -14
-6 -14 -13 -15 -27 -26 -25 -13
-9 -14 -13 -14 -27 -26 -25 -13
-9 -14 -14 -14 -28 -27 -25 -14
-9 -12 -12 -13 -26 -25 -23 -13
-9 -11 -11 -14 -26 -25 -23 -13
-7 -11 -12 -15 -26 -25 -22 -13
-5 -11 -14 -17 -28 -27 -23 -14
-6 -12 -14 -17 -28 -26 -22 -13
-8 -13 -13 -16 -27 -24 -21 -11
-7 -12 -14 -17 -27 -25 -22 -11
-6 -11 -14 -18 -27 -26 -23 -12
-6 -11 -14 -17 -27 -26 -23 -12
-7 -11 -13 -16 -26 -25 -22 -11
-7 -12 -13 -17 -27 -26 -22 -12
-6 -12 -14 -18 -28 -27 -24 -13
-6 -12 -15 -20 -29 -28 -25 -14
-6 -11 -15 -20 -30 -29 -25 -14
-6 -11 -14 -19 -29 -28 -24 -14
-5 -10 -14 -19 -29 -27 -23 -14
-5 -11 -14 -19 -29 -27 -23 -14
-5 -11 -14 -18 -29 -28 -23 -14
-7 -12 -13 -17 -29 -27 -22 -12
-10 -12 -13 -18 -28 -26 -21 -12
-10 -12 -14 -19 -28 -27 -22 -13
-7 -10 -15 -20 -29 -28 -24 -14
-4 -9 -13 -21 -30 -28 -23 -15
-3 -10 -14 -21 -31 -28 -24 -16
-3 -11 -16 -22 -32 -30 -25 -17
0 -9 -16 -23 -32 -30 -25 -16
-3 -7 -15 -21 -30 -28 -24 -15
-6 -7 -12 -19 -27 -26 -22 -13
-6 -7 -12 -18 -26 -25 -22 -13
-3 -6 -12 -19 -26 -26 -22 -13
-2 -5 -13 -21 -27 -27 -23 -14
-4 -6 -13 -21 -27 -26 -23 -14
-5 -8 -13 -21 -27 -26 -22 -13
-4 -6 -14 -21 -27 -25 -21 -13
-3 -5 -14 -21 -27 -25 -20 -13
-2 -3 -15 -21 -26 -24 -20 -13
0 -2 -14 -21 -25 -24 -20 -12
0 0 -14 -22 -25 -24 -20 -12
-2 2 -14 -21 -24 -23 -19 -12
-3 2 -14 -21 -24 -23 -19 -11
-5 3 -13 -21 -23 -22 -18 -11
-5 2 -13 -22 -24 -23 -19 -11
-4 2 -13 -21 -24 -23 -19 -11
-3 3 -13 -22 -24 -23 -20 -11
0 3 -15 -23 -26 -24 -20 -12
2 3 -16 -24 -26 -24 -20 -11
1 4 -17 -25 -26 -23 -19 -10
-2 5 -18 -24 -25 -21 -17 -9
-2 7 -18 -24 -24 -21 -16 -8
0 7 -18 -24 -23 -19 -15 -6
4 7 -20 -25 -24 -19 -14 -4
7 6 -20 -24 -23 -19 -13 -4
9 6 -20 -24 -22 -20 -13 -4
10 5 -21 -25 -24 -20 -13 -4
11 4 -23 -28 -26 -22 -15 -6
10 4 -23 -29 -27 -22 -15 -6
8 4 -21 -28 -26 -23 -15 -6
10 5 -20 -25 -24 -22 -15 -6
11 5 -18 -22 -22 -20 -13 -5
11 4 -18 -22 -21 -20 -13 -6
9 2 -16 -20 -20 -18 -12 -5
6 2 -14 -20 -19 -16 -11 -4
5 5 -15 -21 -21 -17 -11 -4
4 6 -16 -23 -22 -19 -12 -4
2 4 -16 -23 -22 -19 -12 -4
1 2 -14 -21 -20 -18 -11 -4
0 0 -12 -20 -19 -18 -11 -4
0 -4 -13 -20 -20 -19 -13 -6
0 -6 -14 -22 -22 -21 -14 -7
0 -8 -14 -23 -23 -22 -15 -7
-2 -7 -14 -23 -23 -22 -15 -8
-4 -6 -13 -24 -24 -23 -16 -10
-6 -8 -12 -26 -26 -25 -19 -12
-5 -10 -14 -28 -29 -28 -22 -14
-4 -11 -15 -29 -31 -30 -23 -15
-4 -12 -15 -31 -32 -31 -24 -17
-5 -14 -15 -31 -32 -32 -24 -17
-7 -14 -14 -30 -32 -31 -24 -17
-9 -13 -15 -31 -32 -31 -24 -18
-11 -14 -14 -30 -32 -31 -23 -17
-11 -15 -14 -30 -32 -32 -24 -18
-10 -16 -14 -30 -32 -32 -25 -19
-10 -16 -15 -30 -33 -32 -25 -19
-10 -17 -15 -30 -32 -31 -25 -18
-9 -17 -15 -31 -33 -32 -25 -18
-9 -17 -15 -31 -33 -32 -25 -18
-11 -17 -15 -31 -31 -31 -24 -18
-12 -18 -16 -32 -32 -32 -25 -18
-11 -19 -16 -33 -33 -32 -25 -19
-10 -18 -15 -32 -33 -33 -26 -19
-11 -18 -16 -33 -33 -33 -26 -20
-11 -18 -16 -33 -33 -34 -27 -21
-9 -18 -16 -33 -33 -33 -26 -20
-9 -17 -17 -33 -34 -34 -27 -21
-11 -16 -16 -32 -33 -33 -26 -20
-11 -16 -16 -32 -33 -33 -26 -20
-9 -15 -15 -33 -34 -33 -27 -21
-9 -16 -15 -34 -34 -34 -27 -21
-10 -19 -16 -34 -34 -35 -28 -22
-9 -20 -16 -36 -35 -37 -29 -24
-8 -19 -16 -36 -35 -36 -30 -24
-10 -18 -16 -37 -34 -34 -29 -24
-11 -17 -15 -36 -33 -32 -28 -24
-11 -12 -15 -35 -31 -31 -26 -23
-11 -6 -13 -33 -28 -28 -24 -21
-12 1 -9 -28 -19 -21 -19 -17
-13 5 -2 -17 -5 -9 -11 -13
-11 11 7 -2 14 7 1 -7
-5 17 14 15 36 27 18 3
3 24 18 30 63 56 40 15
9 30 23 51 97 94 69 32
18 33 31 74 135 134 101 51
32 33 43 103 174 173 133 69
48 32 57 138 216 215 168 88
63 31 78 178 266 263 205 109
75 32 101 218 317 312 243 131
84 37 118 245 353 346 271 148
89 43 120 251 362 354 277 153
89 37 107 233 337 327 259 147
77 17 91 194 269 255 200 117
56 -8 71 126 151 128 103 67
24 -21 33 16 -13 -33 -12 12
-9 -21 -20 -104 -176 -176 -110 -32
-29 -15 -70 -189 -272 -248 -159 -56
-30 -7 -118 -234 -302 -260 -168 -59
-21 -4 -165 -262 -311 -255 -161 -54
-13 -8 -208 -295 -332 -265 -166 -55
-9 -20 -239 -325 -364 -284 -180 -65
-3 -39 -256 -341 -389 -301 -189 -72
5 -51 -261 -341 -393 -302 -188 -72
8 -48 -253 -327 -372 -285 -176 -65
7 -40 -233 -299 -336 -257 -157 -56
6 -36 -207 -260 -296 -230 -140 -50
8 -40 -183 -224 -262 -208 -130 -49
10 -47 -162 -195 -234 -193 -123 -52
9 -49 -138 -168 -206 -176 -116 -54
7 -44 -115 -140 -177 -155 -105 -53
4 -37 -94 -116 -147 -133 -93 -51
0 -32 -75 -98 -122 -113 -81 -48
-4 -28 -62 -82 -103 -97 -71 -45
-5 -23 -50 -70 -85 -81 -62 -41
-4 -21 -38 -59 -70 -70 -54 -38
-4 -19 -29 -49 -58 -60 -48 -35
-4 -18 -22 -41 -48 -51 -40 -31
-5 -16 -18 -37 -40 -45 -35 -28
-6 -14 -16 -34 -35 -38 -32 -27
-6 -13 -13 -32 -29 -32 -28 -25
-7 -12 -10 -30 -25 -29 -27 -24
-9 -12 -7 -27 -22 -28 -25 -24
-9 -11 -5 -26 -20 -26 -25 -25
-7 -8 -3 -24 -15 -23 -23 -24
-7 -8 0 -21 -13 -22 -21 -22
-8 -8 1 -20 -12 -21 -20 -22
-8 -8 1 -19 -10 -19 -19 -22
-9 -9 2 -17 -8 -17 -17 -21
-10 -9 3 -16 -6 -16 -17 -21
-10 -9 3 -15 -5 -14 -17 -21
-8 -9 3 -15 -4 -13 -16 -22
-7 -8 4 -14 -2 -12 -14 -22
-8 -8 6 -13 0 -11 -13 -22
-8 -7 8 -11 2 -9 -12 -21
-10 -6 10 -10 3 -8 -10 -20
-11 -5 10 -9 4 -7 -8 -18
-10 -5 10 -8 5 -7 -8 -18
-9 -4 9 -8 5 -8 -9 -19
-9 -4 9 -8 5 -7 -9 -19
-9 -5 10 -7 7 -5 -8 -19
-9 -5 10 -6 9 -4 -8 -20
-8 -5 9 -5 8 -4 -8 -20
-7 -4 10 -4 7 -3 -7 -19
-6 -2 11 -3 9 0 -6 -19
-4 -2 12 -2 12 1 -4 -18
-3 -2 11 -2 11 0 -5 -18
-4 0 11 0 12 0 -4 -18
-6 0 12 1 13 1 -3 -17
-7 -2 13 2 15 2 -2 -16
-8 -2 14 3 16 3 -2 -17
-8 0 16 5 18 5 0 -17
-5 0 17 5 18 5 0 -17
-2 1 16 5 18 5 0 -18
-2 2 17 6 20 7 2 -18
-3 2 18 8 22 8 3 -17
0 3 18 8 23 7 3 -17
2 5 17 8 23 8 4 -16
1 4 19 10 25 9 6 -15
0 3 20 11 26 9 6 -16
-2 4 21 13 28 12 8 -15
-3 6 23 16 31 15 9 -14
-5 7 24 19 34 17 11 -14
-6 8 26 21 36 19 13 -13
-4 9 27 23 38 20 13 -13
-2 9 29 25 40 21 14 -13
-3 9 29 26 42 22 15 -13
-2 10 29 27 42 22 15 -14
1 11 28 27 43 22 14 -15
2 12 29 28 44 23 15 -15
2 11 30 29 46 24 15 -15
2 11 31 31 49 25 15 -16
4 11 31 34 51 26 17 -16
5 14 33 38 53 29 18 -15
4 16 36 42 57 33 20 -13
3 16 37 44 59 35 22 -12
2 15 39 47 62 36 24 -10
1 16 42 49 64 37 26 -8
1 17 42 51 65 38 27 -7
4 17 43 53 66 39 28 -7
6 19 44 55 69 42 29 -6
7 20 45 58 72 44 31 -5
6 22 48 62 75 47 33 -4
5 23 51 66 79 50 36 -2
7 26 53 68 81 51 36 -2
9 27 54 71 85 53 37 -2
8 28 56 74 88 54 38 0
6 29 59 78 92 57 42 2
3 29 62 82 95 60 45 5
3 30 62 85 96 61 45 6
7 30 63 88 99 64 47 8
11 32 64 90 101 66 49 8
11 35 65 92 104 68 51 9
10 36 67 95 107 71 54 11
8 37 69 97 110 74 55 13
7 38 70 100 112 76 57 15
9 40 71 101 113 77 60 16
11 42 72 102 115 78 62 17
11 44 71 102 116 78 62 18
10 45 70 102 117 80 63 19
11 46 72 104 119 84 65 21
12 47 72 105 120 85 67 21
13 49 72 105 120 86 68 22
16 50 72 105 121 86 68 23
19 51 71 104 120 86 67 22
19 52 72 105 120 86 68 23
18 52 71 104 120 86 68 25
17 52 70 103 120 86 69 26
15 52 68 100 119 85 69 26
14 52 67 99 118 86 70 27
13 52 67 98 117 87 70 27
12 53 67 97 117 87 71 27
10 53 67 96 116 88 72 28
10 53 66 94 113 87 72 27
13 53 63 90 110 85 69 26
15 53 59 87 107 81 67 24
13 53 58 84 106 80 68 25
11 52 56 80 104 79 68 26
13 52 52 75 99 76 65 24
14 51 49 70 96 74 63 22
14 50 46 65 92 72 61 20
15 49 44 60 88 68 60 19
15 49 40 56 85 65 58 17
13 48 39 53 81 64 57 16
11 47 37 50 79 63 55 16
11 45 35 46 75 60 54 15
10 43 32 42 71 57 51 13
9 39 29 36 66 52 48 10
9 37 27 32 62 48 44 9
9 36 24 27 57 44 40 7
9 34 22 23 53 42 37 5
9 32 20 19 48 37 35 2
8 29 17 14 44 34 32 -2
7 28 17 13 42 32 30 -4
7 26 15 10 37 28 27 -7
6 24 13 6 33 26 25 -10
4 21 11 3 30 23 23 -11
2 19 9 0 26 20 20 -12
-2 17 8 -3 25 18 20 -12
-6 15 7 -4 23 16 19 -12
-8 13 6 -7 20 14 16 -15
-7 11 5 -9 17 11 14 -18
-6 10 3 -12 14 8 11 -20
-7 9 2 -14 12 7 10 -22
-6 9 2 -16 9 5 8 -23
-5 8 1 -18 7 3 5 -25
-5 7 0 -21 4 1 3 -28
-5 5 -3 -22 2 -3 1 -28
-5 3 -4 -24 0 -5 0 -29
-4 2 -6 -27 -3 -7 -3 -30
-3 1 -7 -27 -5 -8 -4 -32
-3 0 -7 -28 -7 -10 -5 -33
-5 -2 -7 -29 -8 -10 -6 -34
-6 -3 -6 -28 -8 -10 -6 -34
-6 -3 -6 -28 -8 -10 -7 -35
-5 -3 -6 -29 -9 -12 -8 -36
-4 -3 -7 -30 -9 -12 -8 -36
-2 -4 -8 -30 -10 -13 -8 -36
0 -3 -8 -30 -10 -14 -10 -36
-2 -3 -9 -31 -12 -14 -11 -38
-4 -6 -9 -31 -12 -15 -10 -39
-3 -6 -9 -31 -12 -16 -11 -41
-3 -5 -8 -30 -12 -14 -11 -41
-5 -5 -6 -28 -10 -12 -10 -39
-8 -5 -5 -28 -8 -12 -9 -39
-7 -4 -6 -29 -9 -13 -10 -40
-5 -4 -7 -29 -10 -14 -10 -39
-4 -4 -8 -31 -12 -16 -11 -41
-7 -4 -8 -30 -11 -16 -11 -40
-9 -4 -8 -30 -10 -14 -11 -40
-8 -5 -8 -31 -11 -14 -11 -41
-7 -5 -8 -31 -11 -14 -11 -43
-7 -5 -8 -31 -11 -15 -11 -43
-6 -5 -9 -32 -11 -15 -11 -44
-5 -5 -9 -32 -10 -14 -12 -43
-4 -4 -9 -33 -11 -15 -13 -44
-4 -4 -8 -32 -12 -15 -12 -44
-4 -3 -8 -32 -12 -15 -12 -43
-3 -4 -8 -32 -13 -16 -12 -43
-2 -4 -9 -32 -14 -16 -13 -43
0 -5 -9 -32 -14 -15 -12 -43
1 -4 -10 -33 -14 -16 -12 -44
-2 -4 -9 -32 -13 -15 -12 -43
-7 -4 -8 -31 -12 -14 -11 -43
-10 -3 -7 -29 -9 -12 -9 -40
-9 -3 -6 -29 -8 -11 -8 -39
-4 -3 -8 -31 -10 -13 -10 -41
-3 -3 -9 -31 -11 -14 -10 -43
-4 -5 -9 -31 -12 -15 -11 -43
-4 -6 -10 -32 -14 -15 -13 -44
-4 -6 -9 -31 -13 -14 -12 -44
-2 -3 -10 -32 -13 -15 -13 -45
4 0 -11 -34 -14 -17 -14 -47
4 0 -11 -34 -15 -17 -14 -47
0 -3 -10 -33 -14 -16 -13 -47
-6 -5 -8 -33 -12 -15 -12 -46
-8 -5 -8 -32 -11 -15 -11 -45
-11 -4 -8 -31 -11 -14 -10 -44
-11 -4 -8 -31 -11 -13 -10 -43
-10 -4 -8 -32 -12 -14 -10 -43
-8 -4 -9 -33 -13 -13 -10 -43
-7 -5 -9 -33 -13 -14 -10 -44
-7 -6 -10 -33 -13 -15 -11 -45
-8 -7 -9 -32 -13 -15 -12 -46
-6 -7 -11 -34 -14 -16 -13 -48
-5 -6 -10 -33 -15 -17 -13 -49
-6 -7 -10 -32 -15 -17 -13 -49
-6 -8 -11 -34 -17 -19 -14 -50
-3 -8 -13 -36 -19 -20 -16 -50
-4 -8 -12 -35 -19 -19 -15 -48
-7 -8 -11 -34 -19 -17 -14 -48
-7 -9 -11 -34 -19 -17 -13 -48
-7 -9 -11 -35 -19 -17 -13 -48
-7 -8 -11 -35 -19 -18 -13 -48
-7 -8 -11 -35 -19 -18 -13 -49
-6 -7 -11 -36 -19 -18 -14 -50
-5 -6 -13 -37 -20 -19 -15 -50
-4 -7 -14 -38 -21 -20 -16 -51
-4 -8 -14 -38 -21 -20 -17 -51
-5 -9 -14 -38 -21 -20 -17 -51
-4 -9 -14 -39 -22 -21 -16 -51
-3 -9 -14 -38 -23 -22 -17 -52
-4 -9 -13 -38 -23 -22 -18 -52
-6 -9 -13 -37 -22 -21 -16 -50
-6 -9 -13 -38 -22 -22 -16 -52
-4 -9 -14 -40 -24 -24 -19 -55
-2 -9 -16 -41 -26 -26 -21 -57
-2 -8 -17 -41 -27 -25 -21 -56
-5 -7 -15 -40 -25 -24 -20 -55
-8 -8 -13 -38 -23 -22 -19 -54
-10 -9 -13 -37 -23 -22 -18 -54
-11 -11 -14 -38 -24 -23 -19 -55
-11 -12 -15 -39 -25 -24 -21 -56
-8 -11 -14 -39 -26 -25 -21 -56
-7 -10 -14 -39 -27 -24 -20 -56
-8 -10 -12 -39 -26 -23 -19 -55
-9 -10 -13 -39 -26 -24 -19 -55
-9 -10 -13 -39 -26 -24 -19 -55
-8 -11 -13 -39 -27 -25 -20 -55
-7 -11 -14 -39 -28 -24 -20 -55
-7 -11 -15 -38 -27 -24 -20 -55
-8 -11 -14 -38 -26 -23 -19 -55
-9 -10 -14 -38 -26 -24 -20 -55
-8 -10 -13 -38 -26 -24 -20 -55
-7 -9 -14 -39 -27 -25 -21 -57
-6 -9 -13 -39 -27 -25 -21 -57
-5 -10 -13 -38 -27 -25 -21 -57
-3 -11 -15 -39 -29 -27 -22 -59
-3 -12 -15 -39 -29 -27 -23 -59
-5 -13 -14 -39 -30 -27 -24 -59
-5 -14 -15 -40 -29 -27 -23 -59
-4 -13 -15 -40 -29 -27 -23 -59
-5 -13 -14 -39 -28 -26 -21 -58
-11 -12 -12 -37 -26 -24 -19 -57
-15 -11 -11 -35 -25 -21 -18 -56
-15 -11 -11 -34 -24 -21 -18 -56
-11 -11 -11 -35 -25 -23 -19 -57
-9 -11 -13 -36 -26 -24 -20 -58
-8 -11 -13 -35 -26 -24 -19 -58
-7 -10 -14 -36 -28 -25 -20 -59
-9 -12 -14 -37 -27 -23 -20 -59
-11 -15 -15 -38 -29 -25 -22 -61
-11 -15 -15 -38 -30 -26 -23 -61
-7 -12 -15 -38 -31 -27 -23 -62
-6 -12 -15 -38 -30 -26 -23 -61
-6 -12 -15 -39 -31 -27 -24 -60
-5 -12 -16 -40 -33 -29 -26 -60
-5 -13 -15 -38 -32 -28 -24 -58
-7 -13 -15 -38 -32 -28 -24 -56
-10 -13 -15 -37 -31 -27 -23 -53
-11 -13 -14 -36 -30 -26 -22 -51
-9 -14 -15 -37 -30 -26 -22 -51
-6 -13 -14 -37 -30 -26 -23 -50
-6 -12 -14 -36 -29 -25 -22 -48
-5 -12 -15 -37 -30 -26 -23 -48
-5 -12 -15 -38 -31 -27 -23 -47
-6 -12 -14 -37 -30 -26 -22 -44
-7 -11 -13 -36 -29 -25 -21 -41
-5 -10 -14 -35 -30 -25 -22 -40
-5 -11 -15 -35 -30 -26 -23 -40
-7 -13 -14 -34 -29 -25 -23 -38
-6 -12 -13 -34 -29 -25 -22 -36
-3 -10 -13 -35 -30 -26 -23 -36
0 -9 -13 -35 -30 -26 -23 -35
0 -8 -12 -35 -29 -24 -22 -33
-3 -7 -12 -34 -28 -24 -22 -31
-5 -7 -12 -32 -27 -23 -21 -29
-6 -8 -12 -32 -28 -24 -21 -28
-5 -8 -12 -32 -29 -23 -20 -26
-4 -7 -12 -33 -30 -23 -20 -25
-4 -6 -11 -32 -28 -22 -19 -23
-3 -6 -11 -31 -26 -21 -18 -20
-3 -5 -12 -30 -26 -21 -18 -19
-3 -4 -12 -29 -26 -20 -17 -17
0 -2 -11 -30 -24 -19 -17 -15
2 1 -12 -32 -26 -21 -18 -15
3 2 -13 -33 -27 -21 -18 -14
4 2 -16 -33 -29 -22 -20 -15
3 3 -15 -32 -28 -22 -19 -14
3 4 -14 -32 -27 -22 -18 -11
2 4 -15 -31 -27 -21 -17 -9
3 5 -16 -32 -27 -20 -17 -8
4 4 -18 -33 -27 -20 -17 -7
3 2 -18 -33 -26 -19 -17 -6
1 3 -17 -31 -25 -17 -15 -5
2 4 -18 -31 -24 -16 -14 -4
4 4 -18 -30 -23 -15 -12 -2
6 4 -19 -29 -22 -15 -11 0
7 3 -18 -28 -22 -15 -11 0
7 2 -19 -30 -24 -17 -12 -2
6 1 -19 -31 -25 -16 -12 -2
5 0 -18 -29 -25 -15 -11 -2
5 1 -17 -29 -25 -15 -12 -3
5 2 -15 -27 -23 -14 -11 -3
8 1 -15 -26 -23 -14 -10 -3
10 0 -14 -25 -22 -13 -10 -2
11 0 -14 -25 -22 -13 -11 -2
11 0 -14 -26 -23 -14 -11 -2
10 0 -15 -27 -24 -15 -12 -2
8 -3 -15 -27 -25 -16 -12 -2
5 -5 -13 -25 -22 -14 -11 0
2 -7 -10 -21 -20 -12 -9 0
3 -8 -10 -21 -22 -14 -11 -3
5 -9 -13 -25 -25 -18 -15 -6
4 -10 -14 -26 -26 -18 -17 -7
1 -10 -12 -25 -26 -18 -17 -8
0 -11 -10 -24 -26 -18 -17 -9
-3 -12 -10 -25 -27 -20 -19 -10
-5 -13 -11 -25 -28 -21 -21 -12
-6 -14 -12 -26 -30 -23 -22 -13
-6 -15 -12 -26 -30 -23 -22 -13
-5 -16 -13 -27 -32 -24 -24 -15
-8 -16 -13 -27 -32 -25 -24 -15
-10 -17 -12 -26 -32 -25 -24 -15
-9 -18 -13 -27 -33 -26 -24 -16
-6 -19 -14 -28 -34 -28 -26 -18
-7 -20 -12 -28 -34 -28 -26 -17
-9 -20 -13 -28 -35 -29 -27 -18
-9 -20 -15 -28 -36 -29 -28 -18
-7 -20 -15 -28 -36 -29 -27 -18
-7 -20 -13 -27 -35 -28 -26 -18
-7 -20 -13 -26 -35 -28 -26 -18
-6 -20 -14 -28 -37 -30 -28 -20
-8 -21 -14 -28 -37 -29 -28 -20
-9 -22 -15 -29 -38 -31 -30 -21
-9 -23 -15 -28 -38 -30 -29 -20
-9 -23 -14 -28 -38 -29 -28 -20
-8 -20 -14 -29 -37 -29 -27 -20
-7 -20 -14 -28 -36 -30 -28 -20
-7 -20 -15 -29 -38 -30 -29 -21
-7 -20 -15 -29 -38 -30 -29 -22
-8 -21 -14 -29 -37 -30 -29 -21
-8 -21 -14 -29 -37 -30 -28 -21
-9 -21 -14 -28 -37 -30 -28 -21
-8 -21 -12 -27 -36 -29 -27 -20
-8 -21 -12 -27 -36 -29 -27 -20
-9 -20 -13 -28 -37 -30 -28 -21
-10 -20 -14 -28 -36 -29 -27 -21
-11 -18 -12 -27 -33 -28 -26 -19
-12 -13 -11 -26 -31 -24 -24 -18
-14 -8 -6 -21 -24 -17 -18 -15
-14 -3 -2 -12 -14 -8 -11 -11
-11 3 7 2 3 6 -3 -6
-6 7 13 18 23 23 10 1
0 13 19 33 47 46 28 11
8 18 24 53 77 77 53 25
20 22 29 74 112 113 81 42
34 24 37 101 149 151 112 59
49 22 49 132 186 189 144 77
63 20 66 169 231 233 180 98
78 21 89 211 283 282 220 120
91 26 110 246 328 324 253 140
98 30 122 265 352 346 270 152
99 31 118 260 348 342 267 155
94 20 102 233 307 296 232 140
75 -4 88 183 219 199 157 100
44 -22 62 94 77 55 50 46
8 -26 15 -29 -92 -98 -58 -5
-19 -19 -39 -140 -227 -205 -133 -39
-28 -11 -88 -204 -287 -242 -158 -51
-20 -5 -136 -237 -302 -242 -157 -48
-9 -5 -185 -269 -317 -245 -157 -47
-3 -12 -225 -303 -344 -259 -165 -52
0 -26 -251 -328 -373 -278 -177 -60
4 -43 -264 -340 -392 -291 -184 -64
9 -49 -263 -335 -388 -287 -179 -63
9 -45 -247 -312 -359 -265 -163 -54
9 -41 -226 -276 -320 -237 -146 -48
12 -41 -203 -239 -283 -214 -134 -45
14 -47 -179 -205 -253 -195 -126 -45
13 -52 -155 -176 -225 -180 -119 -47
11 -52 -132 -148 -198 -161 -111 -48
8 -48 -109 -122 -171 -142 -101 -47
4 -41 -87 -97 -142 -120 -88 -43
-2 -37 -68 -75 -117 -102 -76 -39
-5 -33 -55 -62 -99 -87 -68 -37
-5 -30 -44 -52 -85 -75 -62 -35
0 -28 -33 -39 -70 -64 -54 -32
3 -25 -24 -30 -59 -54 -47 -30
2 -22 -18 -23 -49 -46 -40 -26
0 -21 -15 -19 -40 -39 -36 -23
1 -20 -13 -17 -35 -33 -32 -21
2 -19 -10 -13 -30 -29 -28 -19
0 -18 -6 -10 -26 -26 -27 -18
-3 -17 -3 -8 -22 -24 -25 -18
-3 -16 1 -5 -19 -21 -21 -17
1 -15 2 -3 -17 -19 -20 -16
2 -14 2 -3 -16 -18 -19 -16
1 -14 3 -2 -15 -16 -18 -16
1 -15 4 1 -13 -15 -17 -16
1 -15 4 2 -12 -15 -17 -16
-2 -14 5 2 -11 -14 -16 -15
-4 -14 6 5 -8 -11 -14 -14
-4 -12 7 6 -6 -10 -14 -15
0 -10 7 7 -5 -8 -14 -16
2 -9 8 8 -4 -6 -12 -16
0 -9 10 11 -2 -5 -11 -14
-4 -10 11 12 0 -6 -11 -13
-4 -11 11 13 1 -5 -9 -12
-4 -11 12 13 2 -3 -8 -11
1 -10 10 11 1 -5 -10 -12
5 -10 9 11 1 -5 -10 -13
5 -9 8 11 1 -5 -10 -13
1 -9 13 16 6 -2 -6 -10
-2 -8 16 18 9 2 -4 -9
-3 -8 17 20 11 5 -3 -8
-4 -8 17 22 12 6 0 -6
-2 -8 16 21 11 5 -2 -7
2 -7 15 21 12 5 -3 -8
2 -7 16 22 13 6 -2 -8
1 -8 16 23 14 5 -2 -8
1 -9 17 25 15 8 1 -7
3 -7 17 26 15 8 0 -8
4 -5 18 27 16 8 -2 -9
5 -4 20 28 17 10 0 -8
5 -3 20 28 19 11 2 -9
7 0 20 29 21 11 3 -9
8 0 21 30 22 12 3 -8
6 -2 21 31 23 13 4 -8
4 -2 20 33 24 14 5 -8
5 -2 21 35 26 16 6 -7
5 -2 22 37 27 16 7 -6
5 0 23 39 29 17 7 -5
5 1 25 40 30 18 7 -5
7 2 25 43 32 19 8 -6
8 3 27 45 34 21 9 -5
7 4 28 46 35 23 10 -5
6 4 28 47 37 23 11 -4
5 4 28 48 38 24 12 -4
6 3 29 50 40 26 13 -4
9 5 29 52 42 27 14 -3
10 7 30 54 44 28 14 -2
8 7 32 57 46 30 16 -2
5 7 35 61 50 32 18 1
7 8 36 63 52 34 19 1
9 8 38 66 54 36 21 2
12 9 38 67 55 36 21 2
14 10 39 69 57 37 23 2
16 10 40 72 59 39 24 3
16 10 42 74 61 40 24 3
15 10 44 76 64 42 25 5
14 10 45 79 67 46 28 7
15 11 47 84 70 47 30 8
19 12 47 86 71 47 29 6
20 14 50 89 74 49 31 6
18 17 53 93 78 52 34 9
19 19 55 96 81 54 36 11
24 22 54 97 82 54 36 11
26 23 55 99 85 57 37 12
24 23 57 103 89 61 40 15
23 23 59 106 91 64 42 16
23 24 61 109 93 68 45 17
21 26 63 113 97 72 47 20
22 28 66 116 100 75 49 22
24 29 68 119 103 79 51 23
21 30 69 122 106 82 54 25
18 30 71 126 109 86 57 28
20 31 71 127 110 86 58 29
24 33 69 126 110 85 57 29
25 34 69 127 111 86 58 31
26 35 68 127 111 86 57 31
26 36 70 128 113 89 60 33
26 38 71 129 115 91 61 34
26 40 71 129 115 91 61 34
27 43 71 129 115 92 61 34
27 44 71 130 117 93 63 36
27 45 72 131 118 95 66 37
26 46 71 130 119 95 67 39
25 47 70 130 119 96 68 40
27 47 68 128 117 94 67 40
29 47 66 126 115 93 67 40
29 48 65 122 113 93 67 40
29 48 64 119 112 92 66 40
29 49 62 116 110 91 65 40
29 49 61 114 109 90 65 40
27 49 60 112 107 89 65 39
26 48 59 110 106 88 65 39
26 48 57 107 103 87 63 38
27 48 54 103 100 86 63 38
27 47 51 99 96 84 62 38
26 46 49 96 94 81 62 38
26 44 46 92 90 78 60 37
26 44 43 88 87 75 58 36
26 44 39 84 84 73 57 35
25 44 39 80 81 72 57 35
25 42 37 76 77 69 55 33
25 40 35 73 74 67 52 31
25 39 32 68 69 62 48 28
24 38 29 64 64 59 46 27
22 36 25 59 59 55 43 25
20 33 23 55 55 52 40 24
19 30 20 50 51 48 37 21
18 27 18 47 47 45 34 19
17 25 17 44 43 42 31 16
17 23 16 40 39 38 30 15
19 21 14 35 36 36 28 12
21 19 11 31 31 32 24 9
22 17 8 27 26 27 19 5
21 15 6 24 23 24 18 4
19 14 4 21 19 21 16 3
16 12 3 19 16 20 14 3
13 10 2 18 15 18 14 3
12 9 1 15 13 15 12 1
14 9 0 13 10 13 9 -2
16 8 -2 9 6 9 6 -5
17 7 -4 6 3 7 3 -8
18 4 -5 4 1 5 1 -10
16 1 -5 4 0 4 1 -11
14 1 -6 2 -4 2 0 -12
13 1 -6 1 -5 1 0 -12
13 -3 -8 0 -7 0 -3 -13
13 -6 -9 -2 -9 -3 -5 -14
10 -7 -9 -2 -10 -4 -7 -14
10 -6 -8 -2 -9 -4 -6 -13
12 -5 -8 -3 -10 -5 -7 -14
12 -6 -8 -4 -11 -6 -7 -15
11 -8 -8 -4 -11 -7 -9 -16
11 -8 -10 -4 -12 -8 -10 -17
14 -8 -11 -6 -14 -10 -11 -18
14 -9 -11 -7 -16 -12 -11 -19
11 -10 -11 -6 -15 -11 -11 -18
10 -10 -11 -6 -16 -11 -10 -18
12 -9 -11 -6 -15 -10 -10 -18
13 -8 -11 -6 -15 -10 -11 -18
12 -8 -9 -5 -14 -10 -10 -18
11 -9 -9 -5 -13 -10 -9 -19
11 -10 -8 -5 -12 -9 -9 -18
12 -11 -9 -6 -14 -10 -10 -19
13 -13 -11 -7 -16 -12 -11 -20
17 -13 -13 -9 -17 -12 -13 -21
19 -13 -15 -10 -18 -14 -14 -22
17 -14 -15 -10 -18 -14 -14 -21
14 -14 -14 -9 -17 -13 -12 -20
15 -12 -13 -9 -17 -14 -13 -20
17 -10 -13 -9 -17 -14 -13 -20
18 -9 -14 -9 -18 -15 -14 -21
19 -9 -13 -9 -17 -14 -14 -20
18 -9 -13 -10 -17 -14 -13 -19
18 -9 -12 -10 -18 -13 -13 -19
18 -9 -13 -10 -18 -14 -14 -19
19 -10 -14 -9 -18 -14 -14 -19
20 -11 -15 -10 -18 -15 -14 -19
20 -10 -15 -10 -18 -15 -13 -19
20 -9 -14 -10 -18 -15 -14 -20
19 -8 -14 -10 -17 -14 -13 -20
16 -9 -13 -10 -16 -12 -11 -18
15 -9 -13 -10 -16 -12 -11 -18
17 -9 -14 -11 -17 -13 -13 -19
19 -9 -15 -11 -18 -14 -14 -19
18 -9 -16 -12 -19 -14 -14 -19
17 -9 -16 -12 -19 -14 -14 -19
18 -9 -16 -12 -19 -15 -14 -19
20 -9 -16 -13 -20 -16 -15 -20
21 -8 -15 -13 -21 -16 -15 -19
19 -8 -15 -14 -21 -16 -15 -19
17 -9 -15 -13 -19 -15 -14 -18
19 -9 -16 -12 -19 -15 -13 -19
22 -8 -17 -14 -20 -16 -14 -20
22 -8 -17 -14 -20 -16 -14 -19
19 -9 -16 -13 -20 -15 -14 -18
18 -11 -16 -14 -21 -16 -14 -19
21 -10 -19 -16 -23 -17 -15 -19
23 -8 -18 -15 -23 -17 -15 -18
22 -7 -17 -14 -22 -17 -14 -18
21 -7 -17 -15 -21 -17 -14 -18
23 -7 -17 -16 -22 -18 -15 -19
25 -8 -19 -18 -24 -20 -17 -21
24 -8 -19 -17 -24 -21 -18 -21
24 -8 -20 -18 -25 -21 -19 -21
26 -8 -21 -19 -27 -22 -20 -23
26 -8 -21 -20 -28 -23 -21 -23
24 -9 -21 -20 -27 -23 -20 -23
23 -10 -21 -21 -28 -23 -20 -24
25 -10 -21 -22 -29 -25 -22 -25
27 -9 -22 -23 -29 -25 -22 -25
29 -9 -23 -24 -30 -26 -24 -27
30 -10 -23 -24 -32 -28 -25 -28
31 -11 -24 -25 -33 -29 -27 -29
32 -12 -25 -25 -34 -28 -27 -28
33 -12 -24 -25 -34 -28 -26 -28
34 -12 -23 -26 -34 -29 -26 -28
33 -12 -24 -27 -35 -30 -26 -29
31 -12 -25 -27 -35 -29 -26 -29
31 -11 -26 -28 -36 -31 -28 -30
33 -11 -25 -29 -36 -31 -28 -30
35 -11 -27 -30 -38 -32 -30 -31
36 -12 -27 -30 -39 -33 -30 -32
36 -12 -27 -31 -39 -34 -31 -32
35 -12 -28 -32 -40 -34 -32 -32
36 -13 -28 -31 -40 -34 -31 -31
39 -13 -29 -32 -40 -35 -31 -32
42 -13 -30 -33 -41 -36 -32 -32
40 -14 -31 -34 -43 -37 -33 -33
39 -14 -29 -32 -41 -36 -32 -32
40 -13 -29 -32 -41 -35 -32 -32
40 -12 -28 -32 -40 -34 -32 -31
37 -11 -28 -32 -40 -34 -31 -31
34 -10 -28 -32 -40 -34 -31 -31
33 -10 -29 -34 -43 -35 -31 -32
35 -11 -31 -35 -44 -37 -32 -32
37 -11 -32 -37 -46 -39 -33 -33
37 -11 -32 -36 -45 -38 -32 -31
35 -12 -31 -35 -43 -37 -30 -29
34 -12 -30 -35 -44 -37 -31 -29
34 -12 -30 -36 -45 -37 -32 -31
33 -11 -28 -34 -44 -35 -31 -30
32 -11 -27 -32 -41 -35 -31 -29
32 -11 -27 -32 -41 -35 -30 -28
31 -12 -27 -32 -41 -34 -30 -27
31 -12 -28 -33 -43 -35 -30 -28
28 -13 -28 -33 -43 -35 -30 -28
22 -13 -26 -31 -40 -33 -29 -27
18 -13 -25 -30 -39 -32 -28 -26
20 -13 -25 -30 -39 -32 -29 -25
22 -13 -26 -32 -39 -32 -30 -27
19 -12 -24 -30 -37 -31 -29 -26
15 -11 -22 -28 -35 -30 -27 -25
15 -11 -22 -28 -36 -30 -27 -25
14 -11 -22 -30 -37 -31 -28 -25
12 -12 -22 -30 -37 -31 -27 -24
10 -12 -21 -29 -36 -30 -26 -23
11 -12 -22 -30 -37 -30 -26 -23
11 -11 -21 -29 -37 -30 -27 -24
11 -10 -21 -29 -37 -31 -27 -24
9 -10 -22 -29 -36 -30 -27 -23
8 -10 -21 -28 -34 -26 -25 -21
6 -7 -20 -27 -34 -26 -24 -21
4 -5 -18 -25 -33 -26 -24 -21
2 -5 -18 -25 -32 -25 -23 -20
0 -6 -18 -26 -31 -24 -22 -19
-2 -6 -18 -26 -31 -23 -22 -19
-3 -6 -16 -24 -30 -22 -20 -18
-4 -6 -15 -23 -29 -21 -20 -17
-4 -5 -15 -23 -28 -21 -19 -16
-5 -4 -14 -23 -27 -19 -18 -15
-5 -3 -14 -22 -26 -18 -17 -15
-5 0 -13 -20 -24 -16 -16 -14
-6 2 -14 -21 -24 -17 -16 -14
-8 2 -14 -21 -24 -16 -15 -13
-9 2 -15 -22 -25 -17 -16 -14
-8 1 -16 -22 -26 -18 -16 -14
-7 1 -15 -22 -25 -17 -16 -13
-8 1 -15 -22 -25 -17 -16 -12
-9 1 -14 -21 -25 -17 -15 -11
-10 1 -15 -22 -24 -16 -14 -10
-10 2 -16 -22 -24 -15 -13 -9
-11 3 -17 -23 -24 -14 -12 -9
-12 4 -16 -22 -24 -14 -12 -8
-11 5 -17 -23 -24 -14 -11 -8
-7 6 -20 -24 -25 -15 -12 -8
-4 6 -22 -25 -25 -16 -13 -9
-4 5 -22 -24 -24 -15 -13 -8
-5 4 -22 -24 -24 -15 -12 -7
-3 4 -21 -23 -24 -14 -11 -7
-2 5 -21 -26 -26 -15 -13 -8
-4 6 -21 -28 -27 -15 -14 -9
-4 7 -20 -27 -25 -14 -12 -8
0 8 -18 -24 -23 -12 -10 -7
1 8 -18 -23 -23 -11 -8 -7
1 5 -18 -21 -22 -10 -7 -5
0 2 -17 -18 -21 -8 -6 -3
-3 2 -16 -18 -20 -8 -6 -2
-3 4 -16 -19 -21 -9 -7 -2
-3 3 -17 -21 -22 -11 -8 -2
-3 1 -17 -21 -22 -9 -7 -3
-4 -3 -14 -19 -20 -8 -6 -3
-5 -4 -11 -17 -19 -8 -7 -4
-4 -5 -11 -18 -21 -11 -9 -6
-4 -7 -14 -21 -24 -14 -12 -8
-6 -8 -16 -23 -26 -16 -14 -9
-9 -9 -14 -21 -25 -14 -13 -8
-11 -10 -13 -20 -24 -13 -13 -9
-11 -12 -13 -22 -26 -16 -16 -12
-11 -13 -13 -23 -28 -18 -18 -13
-12 -15 -13 -23 -29 -20 -20 -15
-14 -16 -15 -25 -32 -22 -23 -18
-14 -16 -16 -27 -33 -24 -25 -19
-11 -16 -16 -28 -34 -26 -26 -19
-11 -16 -17 -29 -34 -27 -26 -20
-11 -16 -17 -28 -34 -26 -26 -20
-11 -16 -16 -28 -35 -26 -26 -20
-14 -17 -17 -29 -36 -27 -27 -21
-15 -18 -18 -29 -37 -28 -27 -20
-12 -18 -18 -29 -37 -28 -28 -21
-9 -18 -17 -29 -36 -28 -27 -20
-9 -18 -17 -29 -36 -28 -27 -19
-10 -18 -17 -29 -36 -28 -27 -19
-11 -19 -17 -29 -37 -28 -27 -19
-11 -20 -17 -30 -37 -27 -27 -19
-10 -20 -17 -29 -37 -27 -27 -19
-10 -19 -16 -29 -36 -27 -27 -18
-10 -18 -16 -29 -35 -27 -26 -18
-9 -18 -16 -31 -35 -27 -26 -18
-9 -18 -16 -30 -35 -28 -26 -18
-9 -18 -16 -29 -34 -27 -25 -18
-11 -18 -15 -29 -33 -26 -25 -18
-14 -18 -15 -28 -34 -26 -25 -18
-15 -19 -15 -29 -35 -27 -26 -18
-14 -19 -15 -29 -35 -27 -27 -19
-16 -20 -14 -28 -35 -27 -27 -19
-17 -20 -14 -29 -36 -27 -27 -20
-17 -20 -15 -30 -36 -25 -27 -20
-16 -16 -15 -30 -34 -20 -26 -19
-16 -11 -13 -29 -31 -12 -25 -18
-16 -6 -12 -28 -27 -6 -24 -17
-14 1 -9 -23 -20 0 -19 -15
-11 5 -3 -13 -6 11 -10 -10
-9 10 5 2 14 28 3 -3
-4 16 11 18 36 49 20 8
3 21 17 35 65 78 46 23
9 26 24 57 100 116 76 42
20 28 31 80 136 154 108 59
34 27 40 109 175 195 141 78
50 24 55 143 219 240 179 100
65 22 75 182 269 292 220 125
76 23 96 218 316 337 257 146
84 26 111 239 345 362 276 159
87 29 115 242 349 363 276 163
85 22 106 223 316 327 248 150
69 0 93 185 243 243 182 116
43 -24 73 115 120 105 75 62
11 -34 39 14 -40 -58 -44 4
-17 -31 -8 -92 -188 -192 -139 -41
-31 -23 -53 -165 -270 -252 -180 -62
-28 -16 -97 -206 -297 -259 -183 -62
-19 -13 -144 -234 -308 -256 -179 -60
-14 -16 -186 -264 -327 -263 -182 -62
-11 -24 -218 -291 -353 -276 -189 -66
-5 -38 -236 -309 -376 -290 -195 -70
2 -49 -240 -309 -380 -289 -191 -67
1 -50 -231 -296 -361 -272 -178 -59
0 -46 -215 -271 -329 -247 -161 -52
1 -44 -194 -238 -294 -222 -146 -48
5 -44 -174 -206 -261 -200 -136 -47
6 -47 -152 -179 -231 -181 -127 -46
5 -50 -131 -152 -203 -163 -118 -47
3 -48 -109 -128 -178 -146 -110 -48
1 -43 -90 -106 -152 -127 -100 -46
-4 -35 -72 -88 -128 -107 -88 -43
-7 -31 -58 -72 -106 -89 -77 -39
-8 -29 -48 -61 -90 -75 -67 -35
-8 -27 -36 -49 -74 -61 -57 -29
-9 -24 -26 -38 -60 -49 -49 -24
-8 -22 -19 -31 -50 -39 -44 -22
-4 -20 -16 -29 -41 -30 -37 -19
-4 -18 -12 -25 -35 -23 -31 -16
-5 -18 -8 -21 -29 -17 -27 -12
-5 -18 -6 -20 -26 -15 -25 -10
-4 -16 -5 -20 -24 -13 -24 -10
-5 -15 -3 -17 -21 -10 -22 -10
-7 -16 -2 -15 -18 -8 -21 -10
-8 -17 0 -14 -16 -6 -20 -10
-6 -15 2 -12 -13 -5 -19 -10
-5 -13 4 -10 -11 -4 -18 -10
-5 -13 4 -9 -11 -3 -18 -9
-7 -13 4 -9 -11 -3 -18 -9
-11 -13 7 -6 -6 2 -15 -6
-11 -12 7 -6 -5 3 -14 -6
-10 -11 8 -5 -3 5 -12 -6
-10 -10 9 -5 -2 6 -10 -6
-10 -9 11 -4 1 8 -9 -3
-9 -10 12 -2 2 9 -9 -3
-9 -10 12 0 3 10 -9 -3
-10 -11 12 1 5 11 -8 -3
-9 -11 12 1 5 10 -9 -4
-7 -10 12 1 5 10 -8 -5
-5 -9 12 1 5 10 -8 -5
-3 -9 13 2 6 11 -7 -4
-3 -9 15 4 7 12 -7 -3
-3 -8 15 4 8 13 -6 -3
-3 -7 15 5 9 14 -5 -3
0 -7 14 5 9 14 -6 -3
1 -6 14 6 10 15 -5 -3
1 -5 14 7 10 16 -6 -4
1 -5 15 8 11 16 -5 -4
3 -6 16 8 12 15 -4 -4
3 -7 16 9 13 16 -4 -4
-2 -7 19 12 16 19 0 -2
-3 -5 19 13 17 19 0 -2
-2 -4 21 15 20 22 3 1
-3 -4 23 17 23 26 6 3
-4 -4 23 18 24 26 6 4
-4 -4 23 18 24 25 6 4
-5 -4 23 20 25 25 8 5
-5 -3 24 21 26 27 9 5
-2 0 24 22 28 29 10 6
-2 0 25 23 29 30 11 7
-3 -2 25 24 30 30 10 6
-2 -2 26 25 32 32 11 7
1 1 28 27 35 34 13 8
2 3 29 29 37 35 14 9
2 4 29 29 38 36 15 9
0 4 30 32 40 38 17 10
-3 5 31 33 42 39 18 10
-2 5 32 35 44 40 19 10
1 5 32 35 46 40 19 9
2 5 33 38 48 43 21 11
3 5 34 40 50 44 22 12
4 6 34 42 51 45 22 12
5 7 34 43 52 46 22 13
6 9 36 46 54 47 23 13
7 10 39 49 57 49 25 14
7 11 40 51 59 50 26 14
7 12 42 53 61 51 27 15
7 13 43 55 64 53 29 16
9 14 44 56 65 55 30 17
10 15 46 60 68 57 31 20
10 16 49 64 72 60 33 22
9 17 52 68 75 62 35 23
10 18 53 70 78 64 36 23
11 18 54 73 81 66 38 25
10 17 55 75 82 68 40 26
10 19 58 78 87 70 43 28
12 21 59 80 90 72 46 28
14 23 60 84 92 74 47 29
14 24 62 87 94 77 49 30
13 26 63 89 96 78 50 32
13 27 64 91 99 80 52 34
14 29 65 92 101 81 53 36
13 32 66 93 104 85 55 37
12 34 68 97 107 88 58 40
16 35 68 98 108 88 58 40
19 35 69 100 109 88 59 40
19 37 70 102 112 91 62 43
17 38 70 103 114 94 64 45
16 38 70 104 114 95 65 47
15 38 71 105 117 97 67 49
15 40 71 105 117 97 67 50
15 40 72 105 118 98 68 51
14 40 73 105 118 99 70 52
14 43 74 107 120 101 72 54
15 44 73 107 120 102 73 55
16 45 72 105 119 100 72 54
16 46 71 104 118 99 73 55
15 47 71 104 117 99 73 55
15 47 69 102 115 98 73 55
14 48 67 99 113 97 72 54
14 48 65 97 111 96 71 55
15 49 64 95 109 95 69 55
16 50 64 93 108 95 70 55
17 50 62 90 106 93 69 54
16 49 59 87 103 91 68 54
15 47 57 82 99 89 67 53
15 47 54 78 95 87 65 52
14 47 51 74 92 85 64 51
12 47 50 72 90 82 64 52
12 46 47 68 87 79 61 50
13 46 45 64 82 75 59 49
14 44 40 60 77 72 57 46
13 42 37 56 74 69 55 44
12 38 35 53 71 67 53 43
10 37 35 51 68 65 51 42
8 36 35 48 65 62 50 40
5 34 32 44 60 59 46 38
2 32 29 39 55 55 43 36
3 30 27 35 51 50 39 32
6 29 25 31 47 46 36 30
7 27 23 27 42 40 32 27
6 25 21 24 37 37 29 25
4 22 19 21 35 34 26 23
3 19 17 18 32 31 23 20
3 16 16 16 29 29 22 19
4 16 14 13 25 26 20 17
6 16 12 10 21 23 17 14
7 14 10 8 17 20 15 12
6 12 9 5 14 17 13 10
5 9 8 2 12 14 11 9
2 7 7 0 10 12 9 8
-2 5 7 0 9 12 8 8
-6 3 8 0 9 12 9 8
-6 3 8 -2 8 10 8 6
-4 3 6 -4 5 7 5 3
-4 1 5 -6 3 6 4 2
-7 -4 4 -9 0 3 2 1
-8 -6 2 -10 -3 1 0 -2
-5 -6 1 -11 -5 0 -3 -4
-6 -6 2 -11 -5 0 -3 -4
-7 -7 1 -13 -6 -2 -4 -5
-6 -7 1 -13 -7 -3 -6 -5
-4 -6 0 -14 -9 -6 -7 -7
-6 -6 1 -13 -9 -6 -7 -7
-7 -6 1 -14 -9 -7 -8 -8
-5 -7 1 -14 -10 -8 -9 -8
-5 -8 0 -15 -11 -8 -9 -8
-5 -9 0 -15 -12 -8 -9 -8
-7 -9 1 -13 -11 -7 -9 -7
-9 -10 1 -13 -10 -7 -8 -6
-10 -10 1 -13 -10 -7 -8 -6
-10 -10 1 -13 -11 -7 -7 -6
-11 -9 2 -12 -10 -7 -7 -6
-11 -9 2 -11 -10 -7 -8 -6
-10 -9 2 -12 -11 -8 -9 -8
-9 -9 1 -13 -12 -9 -9 -8
-8 -8 0 -13 -12 -10 -10 -9
-6 -8 -2 -14 -12 -10 -10 -10
-5 -9 -2 -14 -12 -10 -10 -11
-4 -10 -3 -15 -13 -11 -10 -12
-4 -10 -4 -16 -13 -12 -11 -12
0 -9 -2 -15 -13 -11 -11 -11
0 -8 1 -13 -11 -10 -10 -10
-3 -8 0 -13 -11 -10 -11 -10
-6 -8 0 -12 -10 -10 -11 -10
-7 -7 0 -12 -10 -9 -10 -8
-7 -7 0 -12 -11 -9 -9 -8
-9 -9 1 -11 -10 -7 -8 -7
-11 -11 1 -12 -10 -6 -8 -7
-10 -10 1 -12 -9 -8 -8 -7
-10 -9 1 -11 -9 -8 -7 -6
-9 -10 1 -11 -9 -8 -6 -5
-7 -10 0 -12 -9 -9 -7 -6
-5 -9 -2 -13 -10 -9 -7 -7
-5 -8 -2 -13 -10 -9 -7 -7
-5 -7 0 -12 -11 -9 -7 -7
-5 -6 -2 -12 -12 -9 -8 -8
-6 -6 0 -12 -11 -8 -7 -7
-4 -7 -4 -16 -14 -10 -10 -9
-2 -8 -4 -16 -15 -11 -11 -10
-2 -8 -4 -15 -15 -12 -10 -9
0 -7 -5 -16 -15 -12 -11 -10
0 -7 -5 -16 -14 -12 -11 -10
-4 -6 -3 -13 -12 -10 -10 -9
-8 -5 0 -12 -11 -9 -8 -8
-9 -5 -2 -13 -12 -9 -9 -8
-10 -6 -3 -14 -12 -9 -9 -7
-10 -7 -2 -14 -12 -9 -9 -8
-9 -7 -2 -14 -13 -9 -8 -7
-7 -8 -2 -14 -13 -9 -9 -6
-6 -8 -4 -16 -15 -10 -10 -6
-7 -8 -4 -15 -14 -10 -9 -7
-7 -7 -4 -16 -15 -11 -10 -8
-7 -7 -3 -16 -14 -11 -10 -9
-7 -6 -3 -16 -15 -12 -11 -9
-6 -6 -4 -17 -16 -12 -11 -9
-5 -6 -4 -18 -17 -13 -12 -9
-8 -6 -3 -17 -16 -12 -11 -8
-11 -7 -3 -17 -16 -11 -10 -8
-11 -8 -5 -18 -18 -12 -12 -9
-10 -7 -5 -19 -18 -13 -12 -9
-8 -7 -5 -19 -18 -14 -11 -9
-7 -8 -6 -20 -18 -14 -12 -10
-7 -8 -6 -19 -18 -14 -13 -10
-7 -7 -6 -20 -19 -15 -14 -11
-6 -7 -6 -20 -20 -16 -14 -11
-5 -8 -7 -21 -21 -17 -15 -11
-7 -8 -7 -21 -21 -17 -15 -10
-8 -8 -6 -21 -22 -17 -15 -10
-10 -9 -6 -20 -22 -17 -14 -9
-12 -10 -5 -20 -21 -17 -14 -9
-13 -10 -5 -20 -22 -17 -16 -9
-11 -10 -5 -20 -22 -17 -15 -10
-10 -10 -7 -21 -23 -18 -15 -12
-9 -10 -7 -20 -24 -18 -15 -12
-6 -9 -7 -21 -24 -19 -16 -12
-7 -9 -7 -21 -23 -18 -16 -12
-9 -11 -6 -20 -23 -18 -15 -12
-10 -12 -6 -20 -23 -17 -15 -12
-11 -12 -7 -21 -23 -18 -16 -13
-11 -12 -7 -21 -24 -19 -17 -13
-11 -12 -7 -21 -24 -20 -17 -13
-10 -11 -7 -20 -24 -20 -18 -13
-9 -12 -7 -20 -25 -21 -18 -13
-8 -12 -7 -20 -26 -22 -19 -14
-7 -10 -8 -21 -27 -22 -19 -15
-9 -9 -8 -21 -26 -22 -18 -14
-9 -10 -9 -22 -27 -23 -19 -14
-8 -10 -9 -22 -27 -23 -19 -14
-11 -11 -8 -22 -27 -22 -19 -12
-12 -11 -8 -22 -27 -23 -20 -12
-12 -10 -8 -21 -26 -22 -19 -12
-12 -10 -8 -21 -25 -22 -19 -12
-13 -10 -9 -22 -26 -23 -19 -13
-12 -10 -9 -23 -27 -24 -20 -14
-11 -10 -9 -22 -27 -24 -19 -14
-13 -11 -8 -21 -26 -22 -18 -13
-12 -11 -9 -23 -27 -24 -19 -13
-11 -12 -8 -23 -28 -24 -19 -14
-9 -12 -8 -23 -28 -24 -20 -14
-7 -12 -10 -23 -29 -25 -21 -15
-6 -11 -12 -24 -31 -27 -22 -16
-5 -11 -11 -23 -30 -27 -22 -16
-5 -11 -10 -23 -29 -26 -22 -16
-8 -12 -9 -22 -29 -25 -22 -15
-13 -12 -8 -21 -27 -23 -19 -14
-15 -10 -7 -20 -26 -22 -18 -13
-11 -9 -8 -20 -26 -23 -19 -14
-9 -9 -7 -20 -25 -22 -18 -13
-12 -9 -6 -19 -24 -20 -16 -11
-15 -7 -6 -19 -24 -20 -16 -11
-15 -6 -6 -18 -23 -19 -15 -10
-14 -6 -7 -18 -24 -19 -16 -11
-12 -6 -7 -18 -24 -20 -17 -11
-11 -6 -8 -20 -25 -21 -19 -12
-9 -5 -9 -20 -25 -21 -18 -12
-8 -4 -8 -19 -24 -20 -17 -11
-7 -3 -9 -20 -25 -20 -16 -12
-6 -2 -11 -22 -26 -21 -17 -13
-6 0 -11 -21 -25 -20 -16 -12
-7 2 -10 -20 -22 -18 -14 -10
-6 4 -10 -20 -22 -18 -14 -10
-8 4 -10 -20 -22 -17 -14 -9
-10 3 -9 -20 -22 -16 -13 -9
-11 3 -9 -19 -21 -15 -12 -9
-9 3 -10 -21 -23 -17 -13 -9
-9 3 -12 -21 -23 -17 -13 -9
-9 4 -13 -22 -23 -17 -14 -10
-6 5 -15 -25 -24 -18 -15 -10
-3 6 -17 -25 -24 -18 -15 -10
-3 6 -17 -24 -23 -18 -14 -9
-3 5 -18 -24 -23 -17 -13 -8
1 5 -18 -24 -23 -17 -13 -8
4 5 -18 -23 -23 -17 -13 -9
5 6 -17 -22 -22 -16 -13 -9
4 6 -18 -24 -24 -18 -15 -10
2 6 -17 -25 -26 -20 -16 -11
0 7 -16 -25 -25 -19 -15 -10
-4 7 -14 -23 -23 -16 -12 -8
-3 7 -13 -21 -21 -14 -10 -7
0 6 -13 -21 -21 -13 -10 -7
0 6 -13 -19 -19 -12 -9 -6
-3 6 -12 -18 -18 -11 -7 -4
-2 7 -13 -20 -20 -12 -8 -5
1 7 -14 -21 -21 -13 -9 -5
1 6 -14 -20 -21 -14 -10 -6
0 3 -12 -19 -20 -14 -10 -7
-3 -2 -9 -17 -19 -14 -10 -6
-2 -4 -9 -18 -20 -15 -12 -8
0 -5 -12 -20 -23 -18 -15 -10
-4 -6 -12 -21 -24 -20 -16 -12
-7 -6 -11 -21 -24 -20 -16 -11
-11 -7 -10 -19 -23 -19 -14 -10
-13 -8 -10 -20 -25 -21 -17 -13
-15 -10 -9 -22 -27 -23 -19 -16
-14 -10 -10 -22 -27 -24 -20 -17
-14 -11 -11 -23 -28 -25 -21 -16
-14 -12 -13 -24 -29 -26 -23 -18
-13 -14 -13 -25 -30 -26 -24 -18
-14 -14 -13 -25 -31 -27 -24 -18
-15 -13 -13 -25 -32 -28 -24 -18
-16 -13 -13 -26 -32 -28 -25 -18
-14 -13 -14 -27 -33 -29 -24 -19
-13 -14 -14 -27 -33 -29 -26 -20
-12 -16 -14 -28 -34 -30 -27 -21
-12 -16 -14 -27 -33 -30 -28 -21
-14 -16 -15 -27 -34 -30 -28 -21
-15 -17 -14 -27 -33 -30 -27 -21
-13 -17 -16 -29 -35 -32 -29 -22
-12 -17 -16 -29 -35 -32 -28 -22
-13 -17 -16 -29 -35 -32 -28 -22
-15 -17 -15 -28 -34 -31 -28 -21
-16 -18 -15 -28 -33 -30 -28 -21
-17 -18 -14 -27 -32 -29 -26 -20
-17 -17 -15 -28 -32 -29 -27 -20
-17 -18 -14 -27 -32 -28 -26 -20
-18 -18 -15 -28 -32 -29 -28 -22
-18 -18 -15 -29 -33 -30 -28 -22
-16 -18 -16 -30 -34 -30 -29 -22
-16 -18 -16 -30 -35 -30 -30 -22
-18 -18 -15 -30 -35 -30 -30 -22
-19 -18 -15 -30 -35 -31 -30 -23
-20 -18 -14 -30 -33 -29 -29 -22
-22 -16 -13 -29 -31 -26 -27 -22
-23 -11 -13 -29 -30 -25 -25 -21
-22 -5 -10 -27 -25 -21 -22 -18
-19 2 -8 -22 -18 -15 -18 -16
-17 6 0 -12 -5 -4 -11 -11
-16 9 7 3 15 14 1 -5
-14 15 15 20 39 36 19 6
-8 21 20 36 67 66 43 21
4 28 25 56 100 102 72 36
16 31 32 80 138 143 104 54
29 30 43 108 176 184 138 74
45 29 56 140 218 227 175 94
59 29 75 178 268 277 214 117
72 31 97 215 317 325 251 139
81 35 114 240 350 357 275 154
87 38 117 245 357 362 278 157
86 30 106 227 329 331 254 147
71 8 91 189 261 252 191 115
44 -18 74 125 142 120 92 65
10 -30 38 23 -20 -43 -25 10
-21 -29 -11 -89 -176 -184 -122 -33
-41 -23 -57 -169 -267 -254 -170 -57
-40 -17 -101 -210 -295 -263 -175 -59
-26 -12 -150 -239 -308 -262 -173 -56
-17 -16 -193 -271 -328 -269 -178 -57
-13 -28 -223 -300 -357 -285 -187 -63
-9 -46 -241 -315 -380 -300 -194 -68
-5 -54 -246 -316 -384 -301 -192 -68
-5 -51 -236 -302 -363 -281 -179 -60
-4 -41 -219 -276 -328 -255 -161 -53
-2 -39 -197 -242 -290 -228 -146 -48
1 -41 -176 -210 -258 -205 -134 -46
2 -46 -153 -181 -228 -186 -124 -46
2 -48 -132 -154 -200 -169 -117 -46
-2 -47 -110 -128 -172 -148 -106 -45
-7 -41 -90 -105 -144 -128 -94 -43
-11 -36 -72 -87 -119 -107 -81 -38
-12 -32 -58 -73 -100 -91 -72 -36
-13 -29 -48 -62 -85 -78 -64 -32
-11 -25 -37 -53 -70 -66 -57 -30
-10 -21 -28 -44 -57 -55 -50 -27
-9 -18 -21 -35 -46 -45 -43 -23
-8 -16 -18 -31 -37 -38 -36 -20
-9 -15 -16 -29 -32 -32 -31 -17
-10 -16 -13 -29 -28 -29 -29 -16
-11 -14 -11 -27 -24 -25 -28 -16
-11 -12 -9 -24 -21 -23 -26 -17
-11 -11 -7 -22 -18 -20 -25 -15
-12 -12 -5 -20 -14 -17 -23 -14
-13 -11 -3 -19 -12 -15 -22 -13
-14 -10 -2 -17 -10 -13 -20 -12
-14 -10 -2 -16 -9 -12 -19 -11
-15 -10 0 -16 -8 -11 -17 -11
-15 -11 0 -16 -7 -10 -16 -10
-13 -11 0 -14 -5 -8 -15 -9
-13 -10 1 -13 -5 -7 -15 -9
-12 -10 3 -11 -3 -6 -14 -8
-12 -10 4 -10 0 -4 -13 -7
-12 -9 5 -9 2 -2 -11 -7
-12 -8 6 -8 3 0 -11 -7
-11 -7 7 -8 4 1 -10 -7
-11 -7 7 -8 5 1 -9 -6
-11 -7 7 -8 6 2 -9 -6
-11 -8 6 -7 6 2 -8 -6
-11 -7 6 -6 6 3 -7 -6
-11 -5 7 -6 7 4 -7 -6
-10 -4 8 -6 9 5 -7 -7
-8 -4 9 -4 11 6 -6 -6
-6 -4 8 -5 12 6 -7 -7
-5 -4 9 -4 13 7 -6 -7
-5 -3 9 -4 13 8 -6 -7
-7 -3 10 -2 15 9 -5 -4
-9 -3 11 0 16 9 -3 -3
-8 -3 9 -2 16 8 -4 -4
-7 -4 9 0 16 9 -3 -4
-7 -3 11 0 17 10 -3 -4
-7 -2 13 3 20 13 -2 -3
-10 0 15 6 23 16 2 0
-11 1 17 8 26 18 3 2
-11 1 18 10 28 20 4 2
-12 1 20 12 30 22 7 4
-15 1 20 14 32 23 8 5
-15 1 20 14 32 23 9 6
-11 2 18 12 31 22 9 5
-7 3 16 10 30 22 9 4
-10 3 19 13 33 25 11 5
-10 4 21 16 35 26 11 4
-6 6 21 16 36 26 11 3
-3 5 21 17 37 27 11 2
-4 4 23 19 40 29 12 3
-5 4 23 21 43 30 12 3
-6 7 25 23 46 32 15 6
-8 8 26 25 48 33 16 7
-8 8 26 26 49 34 17 8
-5 7 26 27 50 35 17 7
-5 9 29 29 53 37 19 8
-5 10 31 31 55 39 20 8
-3 11 31 33 58 42 21 9
0 11 33 36 61 44 23 10
0 12 34 37 63 45 23 10
1 13 36 40 66 48 26 12
1 14 36 43 67 50 27 13
0 14 38 46 69 50 28 14
1 14 37 47 69 50 28 14
2 16 39 50 73 53 30 16
1 17 43 54 78 57 33 18
1 19 46 58 81 59 35 20
2 21 48 61 85 62 37 21
4 22 49 63 87 64 38 22
5 23 50 65 89 66 39 23
5 23 52 67 92 68 43 25
5 24 54 71 96 70 45 27
4 25 56 74 99 72 46 29
5 26 57 75 101 73 47 29
6 26 59 77 103 75 49 30
8 28 59 77 105 76 50 30
11 30 60 81 108 80 53 33
12 32 62 85 111 85 55 35
10 34 65 88 115 88 58 37
8 35 66 90 118 90 61 39
8 36 67 92 120 92 63 44
7 36 68 93 122 93 65 47
7 38 67 93 122 94 67 48
8 40 67 93 123 95 68 49
9 42 67 94 125 97 70 51
9 42 67 95 127 99 71 53
8 44 68 96 128 100 71 54
8 46 70 98 129 102 73 55
10 47 69 96 129 103 73 55
15 48 66 93 128 102 73 54
17 48 65 92 126 101 72 54
15 47 65 91 126 100 72 54
13 46 64 91 125 99 72 54
13 47 62 89 122 99 72 56
10 48 61 86 122 100 72 57
10 49 61 84 121 100 72 57
12 50 59 80 118 98 71 56
14 50 57 77 116 97 70 56
14 51 55 75 115 96 70 56
15 51 53 72 113 94 70 57
15 51 50 69 110 92 69 56
14 51 48 66 107 90 67 56
12 51 46 62 104 88 66 56
11 50 42 56 100 85 64 55
8 48 40 54 98 85 65 55
8 46 39 51 95 82 63 54
10 45 35 46 90 78 59 51
12 44 33 42 86 75 57 49
10 43 31 37 82 72 55 47
7 40 30 34 79 70 54 47
4 39 28 29 74 66 51 44
2 36 26 25 70 63 48 43
2 33 23 21 65 59 44 39
3 30 20 16 60 54 40 36
0 27 19 14 58 52 39 35
-3 25 19 12 55 51 37 34
-3 23 17 7 50 46 34 31
1 21 13 2 44 42 30 28
1 18 11 -2 40 37 27 26
-2 16 10 -5 37 34 24 23
-5 15 10 -8 35 32 23 22
-6 15 8 -12 31 29 20 19
-3 14 4 -15 27 25 16 17
0 13 2 -18 24 22 14 15
-3 10 2 -20 22 20 12 13
-6 6 1 -22 19 18 10 11
-6 5 0 -24 17 16 8 10
-5 4 -2 -25 15 14 6 8
-6 3 -2 -26 14 12 5 8
-8 1 -2 -28 12 11 4 7
-6 0 -3 -31 10 9 1 5
-5 -4 -4 -32 7 6 -2 4
-5 -6 -6 -35 4 2 -5 1
-5 -7 -6 -35 4 2 -5 1
-7 -6 -7 -36 3 2 -5 0
-9 -7 -6 -36 2 2 -5 0
-10 -7 -7 -37 1 0 -6 -2
-11 -8 -6 -37 1 -2 -7 -2
-10 -8 -6 -37 1 -3 -8 -4
-10 -8 -6 -36 0 -3 -8 -4
-9 -8 -7 -37 -2 -4 -9 -5
-10 -9 -7 -37 0 -3 -9 -4
-10 -9 -8 -39 -3 -4 -10 -4
-10 -10 -9 -41 -5 -6 -11 -5
-10 -11 -8 -41 -5 -5 -11 -5
-10 -11 -8 -41 -4 -5 -11 -5
-9 -10 -9 -41 -3 -6 -11 -5
-8 -10 -8 -40 -2 -6 -10 -5
-8 -10 -7 -40 -2 -6 -10 -5
-8 -10 -7 -40 -2 -6 -11 -5
-8 -11 -7 -41 -3 -6 -12 -6
-6 -10 -8 -43 -3 -7 -12 -6
-7 -10 -9 -43 -4 -8 -13 -6
-9 -11 -9 -43 -4 -8 -13 -6
-10 -12 -9 -43 -4 -7 -12 -5
-11 -12 -8 -43 -3 -6 -11 -4
-11 -10 -8 -41 0 -5 -10 -2
-10 -9 -8 -41 0 -6 -10 -3
-9 -8 -9 -43 -2 -7 -11 -4
-8 -8 -8 -44 -2 -7 -11 -4
-8 -8 -9 -45 -3 -7 -12 -5
-6 -8 -10 -46 -4 -8 -13 -6
-7 -9 -10 -45 -4 -7 -12 -5
-9 -10 -9 -44 -3 -6 -12 -4
-10 -10 -9 -45 -3 -6 -12 -3
-9 -10 -9 -44 -2 -6 -11 -2
-7 -10 -9 -45 -2 -6 -11 -2
-7 -9 -8 -44 -2 -6 -10 0
-8 -10 -7 -43 0 -5 -10 0
-8 -12 -7 -44 -2 -6 -11 0
-7 -11 -8 -46 0 -6 -11 -2
-4 -10 -10 -47 -3 -7 -12 -3
0 -9 -11 -47 -4 -8 -12 -4
1 -9 -11 -48 -4 -7 -12 -4
-3 -10 -10 -48 -3 -6 -11 -3
-6 -11 -10 -48 -3 -6 -10 -3
-9 -11 -9 -48 -2 -7 -10 -2
-9 -10 -9 -47 -2 -6 -10 -2
-11 -9 -8 -46 0 -6 -10 -2
-11 -8 -8 -46 0 -6 -10 -2
-9 -9 -8 -48 -2 -7 -10 -3
-6 -9 -10 -50 -4 -8 -12 -4
-7 -9 -10 -50 -4 -8 -12 -4
-8 -9 -11 -50 -5 -8 -12 -4
-8 -9 -11 -50 -5 -8 -12 -4
-9 -9 -10 -50 -4 -7 -11 -3
-10 -9 -11 -50 -4 -7 -11 -3
-10 -9 -11 -50 -4 -8 -11 -3
-9 -8 -11 -51 -4 -9 -12 -4
-8 -8 -10 -52 -5 -9 -12 -4
-7 -8 -11 -52 -5 -9 -12 -4
-8 -9 -12 -53 -7 -10 -13 -4
-9 -10 -12 -53 -7 -11 -14 -4
-6 -10 -13 -55 -8 -12 -15 -5
-5 -10 -14 -56 -8 -12 -15 -6
-6 -12 -13 -56 -8 -12 -16 -6
-9 -13 -13 -56 -9 -13 -17 -7
-8 -13 -12 -56 -8 -14 -16 -7
-7 -12 -13 -56 -9 -14 -17 -7
-7 -12 -12 -56 -9 -14 -17 -7
-8 -12 -13 -58 -10 -15 -17 -8
-9 -12 -12 -59 -10 -15 -17 -7
-8 -10 -14 -60 -11 -16 -18 -8
-7 -9 -15 -60 -11 -16 -18 -9
-7 -10 -15 -60 -12 -16 -19 -9
-9 -12 -13 -58 -10 -15 -17 -8
-10 -13 -13 -60 -11 -16 -18 -9
-9 -12 -12 -59 -10 -16 -18 -8
-10 -11 -11 -58 -9 -16 -17 -7
-11 -11 -11 -59 -10 -16 -17 -6
-9 -11 -12 -61 -12 -17 -18 -7
-7 -12 -13 -62 -12 -18 -18 -7
-8 -12 -15 -64 -13 -19 -19 -8
-9 -13 -16 -64 -15 -20 -20 -8
-7 -13 -16 -65 -16 -20 -21 -9
-7 -13 -16 -65 -14 -19 -20 -8
-9 -14 -15 -64 -14 -19 -19 -8
-11 -15 -14 -64 -15 -20 -19 -8
-11 -14 -13 -64 -14 -19 -18 -7
-9 -13 -13 -64 -14 -20 -19 -7
-8 -13 -13 -64 -15 -20 -19 -8
-8 -14 -13 -65 -15 -20 -20 -9
-8 -14 -14 -66 -16 -21 -21 -10
-9 -15 -14 -66 -16 -21 -21 -9
-10 -15 -15 -67 -16 -22 -22 -10
-10 -16 -15 -67 -16 -22 -22 -10
-10 -16 -14 -66 -15 -21 -22 -10
-10 -15 -13 -66 -15 -21 -22 -10
-7 -15 -14 -67 -16 -23 -23 -11
-3 -14 -16 -69 -18 -26 -24 -12
0 -14 -15 -70 -17 -25 -23 -12
-3 -14 -15 -71 -17 -25 -23 -11
-7 -15 -15 -70 -16 -24 -22 -10
-10 -16 -16 -70 -17 -25 -23 -10
-10 -16 -15 -69 -17 -25 -22 -10
-7 -16 -16 -69 -17 -25 -22 -10
-6 -16 -15 -69 -17 -24 -22 -10
-8 -16 -14 -70 -17 -24 -22 -10
-10 -15 -13 -69 -16 -23 -22 -10
-10 -14 -12 -68 -16 -23 -21 -9
-10 -14 -13 -70 -16 -24 -21 -10
-9 -15 -14 -71 -17 -25 -22 -11
-9 -15 -14 -71 -17 -25 -22 -11
-10 -15 -15 -72 -17 -25 -22 -10
-10 -15 -15 -73 -17 -25 -22 -10
-9 -15 -15 -73 -17 -25 -22 -11
-9 -15 -14 -73 -17 -25 -21 -11
-8 -14 -15 -74 -17 -26 -22 -11
-7 -15 -14 -73 -17 -26 -21 -10
-7 -15 -14 -73 -18 -26 -22 -11
-8 -16 -14 -74 -18 -25 -21 -11
-8 -16 -14 -75 -18 -26 -21 -12
-8 -16 -14 -74 -18 -27 -21 -11
-11 -15 -14 -75 -18 -27 -21 -10
-12 -15 -14 -74 -17 -26 -20 -9
-11 -15 -14 -72 -17 -26 -20 -10
-9 -15 -13 -67 -16 -25 -20 -10
-7 -15 -13 -61 -17 -26 -21 -11
-5 -14 -12 -57 -18 -26 -21 -11
-4 -13 -12 -55 -18 -26 -21 -11
-4 -12 -11 -53 -18 -26 -21 -10
-5 -10 -11 -50 -17 -25 -20 -9
-7 -10 -12 -48 -17 -24 -19 -9
-6 -10 -13 -47 -17 -25 -19 -9
-6 -10 -14 -45 -18 -25 -20 -10
-6 -10 -13 -43 -19 -24 -19 -10
-5 -9 -13 -41 -19 -24 -18 -9
-2 -9 -13 -40 -19 -24 -18 -8
-4 -8 -12 -38 -18 -22 -16 -7
-8 -7 -11 -37 -18 -21 -15 -7
-8 -4 -11 -36 -16 -20 -14 -7
-3 -2 -13 -37 -17 -22 -16 -9
-2 -2 -14 -37 -18 -22 -16 -9
-4 -2 -14 -36 -19 -21 -16 -8
-6 -2 -14 -36 -19 -21 -16 -8
-5 0 -13 -35 -19 -21 -16 -8
-4 0 -14 -35 -20 -21 -16 -8
-4 1 -15 -34 -20 -21 -16 -8
-2 1 -16 -35 -21 -21 -15 -7
1 1 -18 -36 -21 -21 -14 -6
2 1 -20 -37 -22 -22 -16 -7
2 0 -19 -35 -21 -20 -14 -5
3 0 -20 -35 -22 -21 -14 -5
6 0 -21 -35 -23 -21 -13 -6
9 0 -22 -34 -23 -21 -13 -5
10 0 -21 -33 -21 -20 -12 -4
7 1 -20 -32 -22 -19 -11 -3
5 1 -20 -34 -25 -21 -13 -5
5 2 -21 -35 -26 -22 -14 -5
7 2 -19 -33 -24 -21 -13 -5
7 3 -16 -31 -21 -19 -11 -4
6 1 -16 -29 -20 -19 -10 -2
7 -2 -17 -28 -20 -19 -10 -2
8 -2 -17 -27 -19 -18 -9 0
6 1 -16 -26 -19 -16 -7 1
5 1 -16 -27 -20 -17 -8 1
4 1 -15 -27 -20 -17 -8 1
5 0 -13 -26 -20 -17 -8 0
5 -3 -13 -26 -21 -19 -9 -3
3 -6 -12 -24 -20 -20 -10 -3
2 -6 -13 -26 -22 -21 -11 -3
1 -7 -12 -26 -23 -22 -11 -3
-2 -9 -12 -26 -24 -23 -12 -5
-5 -10 -12 -26 -24 -22 -12 -6
-8 -11 -12 -26 -24 -23 -14 -7
-8 -12 -12 -27 -25 -25 -16 -9
-8 -14 -11 -27 -25 -26 -17 -10
-7 -16 -12 -29 -28 -28 -19 -12
-7 -17 -12 -29 -30 -30 -20 -13
-6 -18 -13 -30 -31 -30 -22 -14
-6 -18 -14 -31 -31 -31 -22 -15
-7 -19 -14 -31 -32 -32 -22 -16
-8 -20 -14 -30 -32 -32 -22 -16
-9 -20 -14 -31 -33 -33 -22 -16
-10 -20 -14 -31 -33 -32 -22 -16
-10 -20 -13 -30 -33 -32 -22 -16
-10 -20 -13 -29 -32 -32 -22 -16
-10 -21 -13 -30 -33 -33 -23 -18
-11 -22 -13 -31 -33 -33 -23 -17
-10 -22 -13 -31 -34 -33 -24 -18
-7 -22 -13 -32 -35 -34 -24 -19
-5 -22 -14 -32 -34 -34 -24 -19
-6 -22 -14 -31 -34 -34 -25 -19
-7 -23 -14 -31 -36 -35 -26 -19
-7 -23 -14 -31 -36 -35 -25 -19
-6 -23 -14 -30 -35 -34 -24 -19
-6 -23 -14 -31 -35 -34 -25 -19
-7 -22 -13 -31 -35 -34 -25 -19
-8 -22 -13 -30 -35 -35 -25 -19
-8 -21 -13 -30 -35 -35 -24 -19
-8 -21 -13 -30 -35 -35 -25 -19
-8 -22 -12 -30 -36 -35 -26 -19
-10 -22 -12 -30 -35 -35 -26 -19
-11 -22 -13 -31 -35 -34 -26 -20
-11 -22 -13 -31 -35 -34 -25 -20
-12 -21 -13 -30 -33 -32 -24 -20
-13 -16 -11 -29 -30 -29 -23 -19
-15 -8 -7 -25 -24 -23 -18 -16
-16 0 -2 -18 -14 -15 -12 -11
-14 4 6 -5 2 -2 -2 -6
-11 11 14 14 24 19 14 3
-6 17 21 31 50 45 34 15
4 22 26 50 80 76 59 32
15 26 30 71 115 113 88 49
27 28 39 97 152 153 119 67
43 27 52 128 191 194 153 87
61 25 70 165 238 240 191 107
74 25 92 207 292 290 232 129
84 28 113 243 337 334 266 148
91 34 123 260 358 354 280 159
94 34 117 254 351 346 274 160
88 20 102 227 309 299 239 143
69 -7 88 178 222 200 162 103
42 -26 61 91 78 52 51 48
6 -32 15 -27 -92 -106 -61 -4
-22 -29 -37 -136 -228 -218 -139 -39
-29 -21 -86 -200 -289 -257 -165 -53
-20 -14 -136 -236 -307 -258 -164 -52
-11 -14 -182 -267 -321 -259 -161 -49
-7 -22 -220 -299 -349 -272 -171 -55
-2 -38 -244 -321 -377 -291 -183 -62
6 -53 -255 -329 -392 -303 -188 -65
9 -57 -254 -323 -386 -296 -181 -62
8 -51 -240 -303 -357 -273 -165 -55
9 -46 -218 -268 -317 -245 -148 -47
12 -45 -192 -229 -279 -219 -134 -43
15 -48 -169 -196 -247 -200 -123 -43
14 -52 -145 -168 -220 -184 -117 -45
10 -53 -122 -140 -192 -165 -110 -46
7 -48 -99 -113 -162 -144 -98 -44
4 -40 -80 -92 -137 -123 -86 -40
1 -35 -64 -74 -114 -105 -75 -38
-3 -32 -52 -61 -96 -91 -66 -37
-3 -29 -40 -49 -79 -78 -57 -33
0 -26 -29 -37 -64 -66 -49 -29
0 -23 -21 -29 -52 -55 -41 -26
-5 -20 -17 -24 -43 -47 -35 -22
-10 -18 -11 -18 -35 -39 -29 -18
-12 -17 -7 -14 -30 -33 -25 -17
-11 -17 -4 -11 -25 -29 -24 -16
-6 -18 -3 -10 -24 -29 -24 -16
-4 -16 -3 -11 -23 -29 -25 -16
-4 -15 0 -9 -21 -28 -23 -15
-4 -15 1 -8 -19 -26 -22 -13
-5 -15 2 -8 -17 -25 -22 -12
-5 -14 3 -6 -15 -23 -20 -10
-5 -13 4 -3 -12 -21 -18 -7
-5 -12 4 -2 -11 -20 -17 -5
-5 -12 5 1 -9 -18 -16 -3
-6 -13 8 4 -5 -15 -13 1
-8 -12 9 5 -4 -13 -12 2
-9 -11 10 7 -2 -12 -11 4
-8 -12 10 8 -2 -11 -11 6
-8 -12 11 9 0 -11 -10 8
-9 -11 12 10 1 -10 -10 10
-11 -10 14 12 4 -8 -8 13
-9 -9 14 13 4 -8 -8 14
-7 -8 14 13 4 -8 -8 15
-4 -8 14 13 5 -7 -7 16
-2 -8 14 13 6 -6 -7 18
-3 -7 14 13 6 -6 -8 19
-4 -7 13 13 5 -7 -9 19
-4 -7 13 14 7 -5 -7 21
-3 -6 15 17 9 -4 -5 23
-2 -6 15 17 9 -5 -6 24
0 -6 16 18 9 -5 -6 25
0 -6 17 19 10 -4 -5 27
-2 -5 17 19 11 -3 -5 29
-2 -5 17 19 12 0 -5 30
-3 -6 19 23 15 3 -2 33
-3 -6 21 25 17 4 1 34
-3 -5 21 25 18 4 0 32
-4 -3 22 27 20 5 1 33
-3 -3 22 29 21 7 2 34
-2 -3 22 29 22 7 3 34
0 -3 22 31 24 8 4 35
0 -3 23 32 25 8 5 35
0 -2 23 34 26 9 5 35
0 0 23 34 27 10 5 34
0 1 26 37 29 14 8 34
-2 1 28 39 31 15 9 35
-2 2 29 40 33 15 9 35
0 2 30 44 36 17 11 35
1 2 30 45 37 17 11 34
0 3 31 46 38 18 11 34
-2 4 32 48 42 21 13 35
0 5 33 51 44 23 14 36
1 6 33 52 44 22 14 36
1 6 34 54 46 24 16 37
2 7 35 56 48 26 17 37
3 7 38 59 51 28 18 37
5 7 38 61 53 29 18 37
6 7 39 64 55 31 20 38
6 8 43 66 58 33 22 39
6 10 44 68 59 33 22 39
7 10 45 70 61 35 24 42
7 10 46 74 64 37 25 43
8 12 47 77 67 38 26 44
10 14 48 79 69 39 28 44
10 14 50 82 72 43 30 45
10 14 52 85 75 45 31 46
10 15 55 88 78 47 33 47
9 17 58 94 84 51 37 49
5 20 61 99 88 55 40 52
2 22 63 102 92 57 43 53
3 22 65 105 95 59 44 55
9 23 64 106 95 58 44 54
13 25 64 106 96 58 45 54
12 26 66 109 99 61 47 56
9 27 67 113 102 65 49 58
9 27 69 118 105 68 51 59
11 29 71 120 108 70 53 60
13 31 72 121 109 71 54 61
13 33 72 122 110 72 55 62
12 34 74 125 112 73 56 64
12 36 75 127 114 75 58 66
13 37 76 130 117 78 61 68
14 38 76 130 117 78 62 69
14 39 77 131 119 79 63 70
14 40 76 130 119 80 64 71
14 42 77 131 120 82 65 72
14 43 78 132 121 85 67 74
15 45 77 133 122 86 68 75
16 46 76 133 122 86 68 75
17 47 75 132 121 85 68 74
19 49 74 130 120 84 68 74
21 49 72 127 118 82 67 74
20 48 71 126 117 82 67 75
19 47 71 125 117 84 69 77
19 48 70 122 116 82 68 76
19 49 70 121 115 82 68 76
19 49 68 119 113 82 67 76
19 49 67 116 112 82 66 76
19 50 65 114 111 82 67 77
18 50 63 111 109 81 67 77
17 50 60 109 107 80 67 77
15 49 59 106 104 78 66 77
12 47 57 102 102 76 65 77
11 45 54 97 98 73 63 76
13 45 51 92 94 71 62 74
15 45 49 88 91 70 61 74
16 45 46 84 86 67 58 72
15 44 45 79 82 65 56 71
13 42 42 75 78 61 54 69
10 38 38 71 74 59 52 68
9 35 37 68 72 57 51 67
9 34 34 63 67 52 47 64
9 32 31 58 63 48 44 60
9 30 27 53 57 43 39 56
9 29 26 50 54 40 37 55
9 27 24 46 49 36 34 52
8 24 22 42 46 34 32 50
7 22 19 37 42 31 29 48
7 20 17 33 36 27 25 45
6 18 16 29 33 24 23 43
4 16 16 28 30 22 21 42
4 14 13 24 26 17 18 38
8 12 9 20 21 13 14 35
11 11 6 16 17 10 11 31
11 9 6 14 15 9 10 29
6 8 6 13 14 7 9 28
-3 6 7 12 13 6 8 28
-7 5 7 12 12 6 8 28
-6 3 7 11 10 5 7 26
-4 2 6 9 8 2 5 24
-6 1 4 6 6 0 3 23
-7 0 2 3 3 -4 1 20
-7 -2 2 2 1 -5 0 20
-8 -3 1 1 0 -6 -2 19
-9 -4 1 1 0 -6 -2 18
-7 -4 0 -2 -3 -8 -4 17
-4 -4 -2 -4 -5 -9 -6 15
-4 -5 -2 -3 -6 -9 -6 15
-6 -7 -2 -3 -6 -11 -7 15
-5 -7 -2 -4 -6 -12 -8 14
-4 -7 -4 -5 -8 -13 -9 13
-4 -8 -4 -5 -8 -13 -8 13
-5 -8 -5 -6 -9 -14 -8 13
-4 -7 -6 -7 -11 -15 -9 12
-2 -7 -5 -7 -10 -14 -9 12
0 -7 -4 -7 -11 -15 -10 11
0 -7 -4 -7 -10 -15 -10 11
0 -7 -5 -7 -10 -14 -11 10
-2 -7 -4 -6 -9 -15 -10 11
-2 -7 -4 -6 -9 -15 -10 11
-3 -7 -4 -6 -9 -14 -10 12
-3 -8 -5 -6 -10 -14 -9 12
-4 -8 -5 -7 -10 -15 -9 12
-4 -8 -6 -8 -12 -16 -10 11
-5 -8 -5 -6 -11 -15 -10 12
-5 -7 -4 -5 -10 -15 -10 12
-4 -7 -4 -6 -10 -15 -10 11
-3 -7 -4 -6 -10 -14 -10 10
-3 -8 -5 -7 -10 -15 -11 9
-4 -9 -5 -6 -10 -15 -11 9
-4 -8 -4 -6 -9 -13 -10 10
-3 -7 -5 -7 -9 -13 -9 10
-3 -6 -6 -8 -10 -15 -10 10
-5 -7 -6 -8 -11 -15 -9 10
-8 -9 -4 -7 -9 -14 -8 10
-8 -9 -3 -6 -9 -14 -8 10
-7 -8 -3 -6 -8 -13 -8 11
-5 -8 -3 -6 -9 -14 -10 10
-3 -7 -5 -7 -11 -15 -11 9
0 -7 -6 -9 -12 -17 -12 8
1 -7 -6 -9 -11 -16 -11 9
1 -6 -6 -10 -11 -15 -10 9
-2 -6 -7 -10 -11 -17 -11 9
-3 -6 -7 -10 -11 -15 -9 10
-5 -6 -6 -9 -10 -14 -9 10
-7 -6 -5 -9 -9 -13 -8 11
-7 -6 -5 -10 -10 -14 -9 10
-4 -6 -6 -11 -10 -14 -10 9
-3 -6 -6 -11 -10 -14 -10 9
-4 -7 -7 -11 -11 -15 -11 8
-2 -7 -8 -11 -12 -15 -11 7
2 -6 -10 -14 -14 -17 -13 5
4 -6 -10 -14 -15 -18 -14 5
3 -7 -11 -15 -16 -19 -15 5
1 -9 -9 -14 -15 -18 -13 6
-2 -9 -9 -13 -14 -17 -12 6
-4 -7 -8 -13 -13 -16 -11 7
-5 -5 -7 -13 -13 -15 -11 7
-6 -5 -8 -13 -14 -16 -11 7
-7 -6 -7 -13 -14 -16 -11 7
-9 -7 -7 -12 -13 -14 -9 9
-9 -7 -8 -13 -14 -14 -9 9
-8 -7 -9 -14 -15 -17 -11 8
-6 -7 -11 -16 -17 -18 -12 5
-2 -7 -11 -17 -18 -19 -13 4
1 -8 -11 -19 -19 -20 -15 3
0 -8 -10 -18 -19 -20 -15 4
-3 -9 -10 -18 -19 -20 -15 4
-5 -9 -11 -18 -19 -21 -15 3
-6 -10 -10 -17 -19 -20 -15 3
-4 -10 -11 -18 -19 -21 -15 2
-4 -9 -11 -18 -19 -20 -15 3
-6 -8 -11 -18 -19 -20 -15 3
-9 -9 -9 -17 -18 -19 -14 3
-10 -10 -10 -19 -19 -19 -16 2
-10 -10 -10 -19 -20 -19 -15 2
-9 -10 -10 -19 -19 -19 -15 2
-7 -10 -11 -21 -20 -21 -16 2
-6 -10 -11 -22 -20 -22 -16 2
-5 -8 -12 -22 -21 -22 -16 2
-5 -8 -12 -21 -22 -21 -15 2
-6 -8 -13 -22 -24 -22 -16 1
-5 -10 -13 -22 -24 -22 -16 0
-5 -11 -14 -23 -24 -23 -18 -2
-7 -12 -14 -24 -25 -24 -18 -2
-7 -11 -14 -25 -26 -24 -19 -3
-7 -10 -13 -25 -26 -25 -20 -3
-10 -10 -13 -24 -25 -24 -19 0
-11 -11 -13 -24 -25 -24 -19 0
-8 -11 -13 -24 -26 -24 -20 -2
-7 -10 -13 -24 -26 -24 -20 -3
-7 -10 -13 -25 -26 -25 -20 -3
-5 -11 -14 -26 -27 -27 -21 -4
-3 -12 -15 -26 -28 -26 -21 -4
-4 -11 -14 -25 -27 -26 -20 -5
-4 -10 -14 -26 -27 -26 -21 -6
-2 -9 -15 -27 -28 -27 -22 -7
0 -9 -15 -27 -27 -26 -21 -6
0 -10 -16 -28 -28 -27 -22 -7
-3 -11 -17 -29 -29 -27 -22 -7
-6 -13 -15 -28 -27 -24 -20 -5
-8 -12 -15 -27 -27 -24 -19 -5
-9 -12 -14 -26 -26 -23 -18 -3
-10 -13 -14 -27 -28 -24 -19 -4
-11 -14 -13 -27 -27 -23 -19 -3
-10 -13 -14 -28 -27 -25 -20 -5
-9 -13 -13 -28 -27 -25 -19 -6
-8 -13 -14 -26 -26 -25 -19 -6
-7 -14 -14 -26 -26 -25 -19 -5
-7 -14 -14 -26 -26 -25 -19 -5
-7 -13 -15 -28 -27 -25 -20 -7
-6 -13 -15 -28 -28 -25 -20 -7
-6 -13 -15 -29 -29 -26 -21 -8
-5 -13 -15 -29 -30 -26 -22 -8
-4 -13 -16 -31 -31 -28 -23 -10
-7 -12 -15 -30 -29 -27 -22 -9
-7 -11 -15 -30 -29 -27 -22 -9
-6 -12 -15 -30 -30 -27 -22 -9
-6 -13 -15 -30 -29 -27 -22 -9
-7 -12 -15 -29 -29 -26 -22 -9
-8 -11 -15 -29 -28 -25 -21 -9
-11 -11 -15 -28 -27 -24 -20 -8
-11 -11 -14 -27 -27 -23 -19 -7
-9 -11 -14 -27 -27 -23 -19 -7
-7 -11 -14 -27 -27 -23 -19 -7
-9 -10 -14 -27 -27 -23 -19 -8
-10 -9 -13 -26 -26 -22 -19 -7
-9 -8 -14 -26 -25 -23 -19 -7
-7 -7 -14 -27 -26 -23 -19 -8
-6 -6 -13 -28 -26 -23 -18 -8
-5 -7 -13 -28 -26 -23 -19 -9
-3 -8 -13 -29 -27 -24 -20 -11
-2 -7 -13 -28 -26 -22 -19 -9
-2 -5 -14 -27 -26 -21 -17 -8
-5 -4 -13 -26 -24 -20 -16 -6
-6 -3 -14 -26 -24 -20 -17 -6
-4 -2 -15 -27 -25 -20 -17 -6
-2 0 -14 -27 -24 -20 -17 -6
-2 1 -14 -27 -24 -20 -17 -7
-3 1 -14 -26 -23 -19 -16 -7
-4 0 -15 -27 -24 -19 -16 -7
-5 0 -15 -27 -24 -18 -16 -7
-5 0 -14 -27 -24 -18 -16 -7
-3 2 -16 -29 -26 -20 -18 -9
1 4 -17 -30 -26 -19 -17 -8
2 4 -19 -31 -27 -19 -16 -8
2 4 -20 -32 -26 -19 -16 -7
1 4 -20 -31 -25 -18 -15 -6
3 4 -21 -31 -25 -18 -15 -6
7 5 -23 -32 -25 -18 -14 -6
8 5 -23 -32 -24 -16 -12 -4
9 5 -24 -31 -23 -15 -11 -3
10 5 -24 -30 -24 -15 -12 -3
9 5 -22 -29 -23 -15 -11 -3
7 3 -22 -31 -25 -17 -13 -5
4 3 -22 -32 -26 -17 -13 -6
4 4 -20 -30 -23 -15 -11 -4
6 4 -19 -28 -22 -14 -11 -3
8 4 -19 -27 -21 -14 -10 -3
9 4 -18 -26 -20 -13 -9 -2
10 5 -18 -26 -20 -13 -9 -3
11 5 -18 -27 -22 -14 -10 -4
10 4 -19 -28 -24 -15 -10 -3
8 3 -19 -29 -25 -15 -10 -3
8 1 -18 -27 -24 -15 -11 -4
7 0 -16 -25 -22 -15 -11 -4
5 -3 -17 -26 -22 -15 -12 -6
2 -5 -17 -26 -23 -16 -12 -6
0 -7 -17 -27 -23 -18 -14 -8
-2 -7 -15 -26 -23 -18 -13 -7
0 -6 -16 -27 -25 -18 -14 -9
0 -5 -16 -28 -27 -20 -16 -12
0 -9 -18 -31 -30 -24 -20 -15
-3 -12 -18 -32 -31 -26 -22 -18
-3 -13 -19 -33 -32 -27 -23 -19
-3 -13 -19 -33 -33 -28 -24 -21
-7 -14 -18 -32 -33 -28 -23 -20
-11 -15 -17 -32 -34 -27 -23 -19
-10 -15 -17 -32 -34 -27 -23 -19
-8 -16 -17 -32 -34 -27 -23 -19
-8 -16 -17 -32 -34 -28 -24 -19
-7 -17 -18 -33 -35 -29 -25 -20
-6 -17 -20 -35 -36 -31 -26 -21
-6 -17 -20 -35 -36 -31 -26 -21
-6 -17 -19 -34 -35 -30 -26 -21
-7 -18 -18 -33 -34 -29 -25 -20
-9 -18 -18 -33 -34 -28 -24 -20
-10 -18 -18 -34 -34 -28 -24 -20
-11 -18 -18 -34 -35 -29 -25 -20
-10 -18 -18 -34 -34 -29 -25 -21
-9 -18 -17 -33 -34 -29 -25 -21
-9 -18 -17 -33 -34 -28 -25 -21
-10 -18 -18 -32 -35 -29 -25 -21
-11 -19 -18 -33 -35 -29 -25 -21
-12 -19 -19 -34 -36 -29 -26 -22
-11 -18 -19 -34 -36 -29 -26 -22
-9 -18 -18 -34 -36 -29 -26 -22
-6 -18 -20 -36 -38 -32 -29 -24
-5 -19 -20 -37 -38 -33 -30 -25
-6 -19 -20 -37 -39 -32 -30 -26
-6 -19 -20 -37 -39 -31 -29 -26
-6 -18 -20 -36 -38 -30 -28 -26
-10 -15 -18 -35 -35 -29 -26 -24
-14 -11 -16 -33 -32 -23 -24 -20
-16 -4 -13 -31 -27 -18 -19 -17
-14 3 -9 -24 -17 -10 -13 -14
-12 8 -3 -13 -3 2 -6 -12
-10 14 6 5 18 21 8 -4
-4 20 12 21 42 44 25 6
6 25 16 38 69 72 48 19
15 29 23 62 105 110 77 35
26 31 31 88 142 150 108 54
42 28 43 118 180 189 141 74
58 25 60 156 226 232 177 94
74 26 79 198 276 279 215 115
89 30 102 236 323 322 251 136
96 35 117 260 353 349 271 150
99 35 116 259 354 349 271 153
96 24 102 235 319 312 242 141
79 0 88 190 242 226 175 105
47 -23 66 111 112 93 73 54
11 -31 24 -7 -54 -61 -35 4
-17 -25 -31 -127 -202 -182 -120 -35
-31 -16 -80 -203 -277 -231 -154 -50
-25 -7 -131 -242 -298 -234 -155 -49
-12 -3 -182 -272 -310 -233 -152 -46
-6 -8 -225 -308 -337 -245 -159 -51
-3 -20 -255 -337 -367 -266 -173 -60
5 -37 -270 -352 -390 -282 -182 -65
11 -46 -271 -350 -391 -281 -179 -63
13 -41 -260 -331 -367 -263 -165 -57
13 -35 -238 -298 -329 -235 -147 -49
13 -34 -213 -258 -289 -208 -132 -43
11 -38 -188 -223 -257 -189 -122 -44
9 -46 -165 -193 -230 -175 -118 -49
9 -48 -142 -163 -203 -159 -111 -51
8 -43 -117 -136 -174 -140 -101 -49
5 -36 -95 -111 -145 -117 -89 -45
0 -31 -76 -92 -120 -98 -77 -41
-6 -28 -62 -76 -102 -81 -68 -39
-7 -25 -50 -63 -85 -68 -58 -35
-6 -23 -37 -49 -68 -56 -50 -32
-4 -20 -28 -38 -56 -46 -43 -29
-3 -18 -23 -32 -47 -39 -38 -27
-3 -17 -19 -29 -40 -32 -34 -25
-5 -15 -16 -25 -35 -26 -29 -23
-8 -14 -12 -22 -29 -22 -26 -21
-9 -13 -9 -20 -25 -19 -25 -20
-8 -13 -7 -19 -23 -16 -24 -20
-8 -12 -5 -17 -20 -14 -23 -21
-8 -11 -3 -14 -17 -11 -20 -20
-9 -10 0 -12 -14 -9 -19 -19
-10 -10 0 -11 -13 -8 -18 -19
-11 -10 1 -9 -12 -7 -17 -19
-10 -11 1 -8 -11 -7 -17 -18
-9 -10 2 -7 -9 -6 -16 -18
-10 -9 4 -5 -6 -4 -15 -17
-11 -8 5 -4 -5 -3 -14 -17
-9 -7 4 -4 -6 -3 -14 -18
-7 -7 4 -3 -5 -2 -13 -18
-6 -7 6 -2 -3 0 -12 -18
-5 -7 6 0 -2 0 -12 -17
-4 -6 5 -2 -2 -2 -12 -18
-9 -5 7 2 2 3 -10 -16
-13 -5 11 6 6 7 -7 -13
-14 -5 12 8 7 7 -6 -12
-12 -5 12 8 7 7 -6 -13
-11 -6 12 8 8 8 -5 -13
-9 -5 12 9 9 8 -5 -13
-9 -3 14 12 11 10 -3 -13
-9 0 15 13 12 11 -2 -13
-9 1 16 13 13 12 -2 -12
-7 0 14 12 12 12 -3 -13
-6 -2 13 12 12 11 -4 -13
-6 -4 14 14 13 12 -3 -12
-7 -3 16 15 15 14 0 -11
-8 -2 18 18 18 16 2 -9
-7 1 19 19 19 17 3 -9
-5 1 19 20 20 18 4 -9
-5 2 20 22 22 19 5 -8
-6 3 21 23 23 20 6 -8
-5 4 20 22 22 19 5 -9
-3 4 20 22 23 19 6 -8
-2 4 19 22 22 19 5 -9
0 4 19 23 23 19 5 -9
2 4 19 25 25 20 5 -10
3 4 21 28 27 22 6 -10
2 4 21 29 29 23 7 -11
0 5 23 32 32 26 9 -10
-3 6 26 35 35 29 11 -9
-4 7 28 38 38 31 13 -8
-3 8 28 38 39 31 13 -7
-2 8 28 40 40 32 14 -7
-2 8 28 44 42 33 15 -7
-2 7 28 44 43 33 15 -7
1 7 30 46 45 35 17 -5
3 9 31 48 48 37 18 -4
2 11 34 52 51 40 21 -2
2 13 35 54 53 42 22 -2
3 13 37 58 56 44 23 0
3 14 39 60 59 45 24 1
2 13 42 62 61 46 24 1
2 13 43 66 64 48 25 2
2 14 44 69 66 51 27 4
2 15 45 72 69 53 29 6
3 16 46 74 71 55 31 6
3 17 49 77 74 58 33 7
4 18 50 80 77 60 34 8
4 19 53 85 81 63 36 10
5 20 55 88 85 65 38 11
8 22 55 90 87 65 39 11
10 23 57 93 88 67 39 11
10 23 59 96 91 69 42 13
9 24 60 99 93 71 43 15
8 24 63 104 97 74 46 18
9 25 65 107 101 77 49 20
11 28 66 109 103 79 51 21
12 30 67 112 106 81 53 23
11 32 70 115 109 84 54 24
10 33 71 118 111 87 57 26
9 35 73 121 114 89 59 28
10 36 74 122 115 90 60 30
12 36 74 122 116 91 61 31
14 37 73 123 117 92 61 31
15 39 73 125 118 93 62 32
16 40 75 126 121 96 67 36
16 42 74 126 121 97 67 37
15 42 75 128 123 98 69 38
16 43 75 128 123 98 68 39
18 44 75 128 125 100 70 39
18 46 74 127 125 100 71 40
16 48 74 127 125 101 72 42
14 49 75 129 126 102 74 44
13 49 74 128 126 102 74 44
15 49 72 125 123 100 73 43
16 49 71 121 121 99 72 43
15 49 70 120 120 98 72 43
15 50 69 118 118 98 71 43
17 51 67 115 116 96 70 42
18 51 66 112 114 95 70 42
18 51 65 109 112 95 69 42
18 51 62 106 110 93 68 40
18 51 60 102 107 92 68 40
18 51 56 98 104 90 67 42
14 51 54 95 102 89 67 43
11 49 53 92 100 89 67 44
10 47 52 89 97 87 65 43
11 45 50 84 93 84 63 40
12 44 48 79 89 80 61 38
13 44 45 74 86 77 58 36
14 43 40 69 81 74 56 34
14 40 37 63 76 70 52 31
13 39 34 58 71 67 50 29
8 36 32 55 68 65 49 30
2 33 30 52 66 63 48 30
0 30 28 48 62 60 46 28
0 28 26 45 58 57 44 26
0 26 25 42 55 55 42 24
0 25 23 37 50 51 37 21
0 24 21 32 46 47 33 18
0 23 19 28 42 44 30 15
-2 20 16 24 36 39 27 12
0 18 13 20 32 35 23 10
1 16 12 18 29 32 22 8
2 14 9 14 25 29 19 6
2 11 7 10 21 26 16 4
0 10 5 8 19 24 15 2
-3 8 5 7 17 22 14 0
-6 7 6 6 15 21 14 0
-7 6 6 4 12 19 11 -2
-6 5 4 1 10 16 8 -5
-6 4 2 0 8 13 6 -6
-7 2 0 -3 6 10 4 -7
-7 0 0 -4 4 8 2 -8
-7 -2 0 -5 3 8 2 -9
-8 -4 0 -7 2 7 1 -10
-8 -5 -3 -8 0 5 -2 -12
-6 -4 -4 -10 -3 4 -3 -14
-6 -3 -3 -11 -4 3 -3 -13
-6 -4 -3 -12 -5 3 -4 -14
-6 -5 -3 -12 -6 2 -5 -15
-5 -5 -4 -12 -7 1 -6 -16
-5 -5 -4 -12 -8 0 -7 -16
-6 -5 -5 -12 -8 -2 -6 -16
-7 -5 -4 -12 -6 0 -4 -15
-10 -7 -4 -12 -6 1 -4 -15
-13 -8 -2 -11 -5 2 -4 -14
-14 -9 -3 -11 -6 1 -4 -15
-11 -9 -3 -11 -6 1 -4 -15
-7 -8 -3 -12 -7 0 -5 -16
-6 -8 -4 -13 -8 -3 -7 -17
-7 -9 -4 -13 -8 -3 -7 -17
-7 -10 -6 -15 -9 -5 -7 -18
-6 -9 -5 -14 -9 -4 -7 -18
-6 -9 -5 -13 -9 -4 -7 -17
-6 -8 -5 -14 -9 -4 -8 -17
-7 -9 -4 -13 -8 -4 -7 -16
-8 -9 -4 -13 -8 -4 -8 -17
-9 -10 -3 -13 -7 -3 -7 -16
-7 -8 -3 -13 -7 -2 -7 -16
-5 -6 -4 -14 -7 -2 -8 -17
-6 -7 -5 -13 -7 -3 -8 -17
-8 -8 -6 -14 -8 -4 -8 -18
-9 -8 -6 -14 -8 -5 -8 -19
-10 -8 -5 -12 -7 -4 -7 -18
-10 -8 -5 -12 -7 -3 -7 -18
-9 -8 -5 -12 -8 -4 -8 -18
-8 -7 -5 -13 -9 -4 -9 -18
-8 -7 -5 -13 -9 -5 -10 -17
-9 -6 -6 -14 -9 -5 -10 -17
-9 -5 -7 -15 -10 -5 -10 -18
-9 -5 -6 -15 -10 -5 -10 -18
-11 -5 -6 -15 -9 -4 -9 -17
-12 -6 -6 -14 -8 -3 -8 -16
-11 -6 -7 -15 -9 -3 -8 -16
-8 -6 -8 -16 -10 -4 -9 -16
-8 -6 -8 -16 -10 -4 -9 -16
-9 -5 -7 -15 -10 -3 -8 -16
-8 -5 -7 -15 -10 -3 -7 -16
-8 -5 -7 -15 -10 -3 -6 -15
-7 -6 -7 -16 -10 -4 -7 -15
-5 -6 -9 -18 -12 -6 -10 -16
-4 -6 -9 -18 -12 -7 -10 -16
-4 -6 -8 -17 -12 -7 -9 -16
-6 -6 -7 -17 -11 -6 -8 -15
-8 -7 -7 -17 -11 -5 -7 -14
-9 -6 -7 -17 -11 -5 -7 -15
-10 -6 -6 -16 -11 -5 -8 -14
-11 -5 -5 -16 -11 -4 -8 -14
-10 -4 -7 -17 -12 -5 -9 -14
-9 -5 -8 -19 -13 -7 -10 -15
-10 -6 -8 -19 -15 -8 -10 -15
-10 -6 -10 -19 -15 -8 -10 -16
-8 -4 -10 -20 -15 -8 -11 -17
-6 -5 -11 -21 -17 -10 -13 -18
-7 -6 -9 -20 -17 -10 -13 -18
-8 -8 -9 -20 -16 -10 -12 -17
-7 -9 -10 -21 -16 -10 -12 -17
-7 -9 -11 -22 -16 -10 -12 -16
-7 -7 -11 -22 -17 -11 -12 -17
-6 -6 -11 -21 -17 -11 -12 -17
-8 -7 -10 -21 -17 -11 -13 -17
-11 -8 -9 -22 -18 -12 -14 -17
-11 -9 -10 -22 -18 -13 -13 -17
-10 -9 -10 -21 -18 -13 -13 -17
-10 -10 -11 -22 -19 -14 -14 -17
-8 -10 -12 -23 -20 -14 -15 -17
-7 -10 -13 -25 -21 -15 -17 -19
-8 -9 -13 -25 -22 -15 -18 -19
-8 -9 -14 -25 -22 -15 -17 -19
-8 -9 -14 -26 -22 -14 -17 -19
-9 -8 -13 -26 -21 -15 -17 -19
-8 -8 -13 -27 -22 -15 -17 -18
-7 -10 -14 -28 -23 -17 -18 -19
-5 -12 -16 -29 -25 -18 -18 -20
-3 -12 -15 -28 -25 -17 -18 -19
0 -10 -16 -29 -26 -19 -20 -20
-4 -9 -14 -28 -26 -18 -19 -19
-8 -10 -14 -27 -25 -17 -18 -18
-10 -12 -13 -27 -24 -16 -18 -18
-11 -11 -13 -26 -24 -16 -18 -18
-11 -11 -13 -26 -23 -17 -18 -18
-11 -11 -13 -26 -24 -17 -18 -18
-11 -12 -14 -28 -24 -19 -19 -19
-11 -13 -14 -28 -24 -18 -19 -19
-10 -12 -14 -29 -26 -18 -19 -20
-8 -11 -14 -28 -25 -17 -19 -20
-8 -10 -14 -27 -24 -17 -19 -19
-8 -10 -15 -27 -24 -17 -19 -18
-8 -9 -15 -28 -26 -18 -20 -19
-8 -9 -14 -27 -26 -18 -20 -19
-7 -9 -14 -27 -26 -19 -20 -20
-7 -10 -15 -29 -27 -20 -21 -21
-8 -11 -15 -29 -27 -20 -21 -21
-9 -12 -13 -28 -26 -20 -19 -19
-9 -12 -13 -27 -26 -19 -19 -19
-10 -11 -14 -26 -26 -18 -18 -19
-11 -10 -14 -26 -26 -19 -19 -19
-11 -9 -15 -27 -27 -20 -20 -20
-11 -9 -14 -28 -27 -19 -20 -20
-10 -9 -15 -28 -28 -19 -20 -21
-10 -9 -15 -28 -28 -20 -20 -21
-10 -10 -15 -28 -28 -21 -21 -21
-10 -8 -14 -27 -26 -19 -19 -21
-10 -7 -14 -27 -26 -18 -19 -21
-9 -7 -14 -27 -26 -18 -18 -20
-9 -6 -14 -27 -27 -17 -18 -20
-9 -4 -15 -27 -27 -18 -19 -21
-10 -3 -14 -27 -26 -18 -19 -20
-8 -2 -14 -27 -27 -18 -20 -20
-6 0 -14 -27 -27 -18 -20 -21
-5 0 -13 -25 -25 -17 -18 -18
-4 0 -13 -26 -25 -17 -19 -18
-4 0 -15 -27 -25 -18 -18 -19
-2 0 -17 -28 -26 -18 -18 -20
0 0 -17 -28 -27 -18 -19 -20
-3 1 -15 -26 -25 -15 -17 -18
-3 4 -16 -26 -25 -16 -17 -18
-2 6 -17 -27 -25 -16 -17 -18
-4 5 -16 -27 -24 -16 -17 -19
-6 3 -16 -27 -24 -16 -18 -20
-4 3 -18 -28 -26 -18 -19 -21
-2 3 -18 -28 -26 -18 -18 -20
1 5 -21 -30 -27 -19 -18 -20
1 8 -22 -30 -26 -18 -16 -19
1 10 -21 -29 -24 -14 -15 -17
-2 10 -21 -29 -24 -13 -14 -16
0 8 -20 -28 -23 -12 -13 -15
4 6 -22 -28 -23 -13 -12 -15
8 6 -23 -29 -23 -12 -11 -14
8 6 -23 -28 -23 -11 -11 -13
8 5 -24 -29 -24 -13 -12 -14
8 4 -25 -30 -27 -16 -14 -15
8 5 -26 -32 -29 -17 -16 -17
7 6 -24 -31 -27 -16 -16 -17
6 7 -21 -29 -24 -14 -14 -16
7 7 -21 -26 -22 -13 -12 -15
10 6 -23 -25 -22 -13 -12 -15
10 7 -22 -24 -22 -12 -11 -14
8 8 -21 -24 -22 -12 -11 -13
6 8 -20 -25 -22 -12 -10 -12
6 6 -21 -27 -24 -14 -12 -13
6 4 -20 -28 -25 -15 -13 -14
6 3 -20 -26 -24 -15 -13 -15
6 1 -19 -24 -23 -14 -13 -15
5 -3 -19 -24 -24 -16 -14 -17
0 -5 -18 -24 -25 -16 -14 -17
-4 -7 -18 -25 -25 -16 -15 -19
-5 -7 -17 -24 -25 -16 -15 -20
-6 -7 -16 -25 -26 -18 -17 -21
-6 -7 -17 -26 -28 -19 -19 -23
-6 -8 -18 -28 -30 -22 -22 -25
-6 -10 -19 -28 -31 -23 -23 -27
-6 -12 -19 -29 -32 -23 -23 -27
-6 -12 -20 -30 -33 -24 -24 -26
-7 -12 -20 -30 -35 -25 -24 -25
-9 -12 -19 -29 -34 -24 -24 -23
-10 -11 -18 -30 -34 -26 -25 -23
-7 -12 -19 -31 -36 -28 -27 -24
-4 -13 -21 -33 -37 -31 -29 -24
-3 -15 -21 -32 -36 -30 -28 -22
-6 -15 -21 -31 -36 -29 -28 -20
-7 -14 -21 -32 -36 -29 -28 -19
-5 -15 -22 -33 -37 -30 -29 -18
-6 -16 -21 -31 -36 -29 -28 -16
-10 -16 -20 -30 -35 -29 -27 -14
-11 -15 -20 -30 -35 -29 -27 -12
-9 -15 -20 -31 -36 -29 -27 -12
-10 -16 -21 -31 -36 -29 -28 -11
-12 -17 -20 -30 -35 -28 -27 -8
-13 -16 -17 -29 -34 -27 -26 -6
-10 -15 -18 -30 -34 -28 -26 -5
-7 -14 -19 -32 -35 -29 -27 -4
-5 -15 -21 -33 -37 -31 -28 -4
-6 -16 -20 -33 -37 -30 -28 -3
-9 -17 -19 -32 -36 -30 -28 -2
-9 -16 -18 -32 -36 -30 -28 1
-8 -15 -18 -32 -36 -31 -29 1
-10 -13 -18 -32 -35 -30 -29 3
-11 -13 -17 -30 -34 -29 -28 5
-10 -12 -18 -32 -35 -29 -28 5
-8 -7 -19 -33 -34 -28 -27 8
-10 0 -18 -32 -30 -24 -23 12
-11 5 -14 -27 -21 -16 -18 16
-11 9 -8 -15 -6 -3 -8 22
-11 15 2 3 16 17 6 31
-6 21 8 19 39 39 23 44
5 26 13 35 66 68 47 57
15 30 17 56 99 103 74 74
26 30 26 81 137 144 107 95
39 28 36 111 175 184 140 114
55 25 51 146 219 228 177 134
69 23 70 185 269 276 216 156
82 23 92 220 314 319 252 178
93 27 107 242 342 345 270 190
97 29 111 247 346 346 270 194
95 21 101 228 315 311 242 182
79 -2 88 188 243 229 178 148
49 -24 69 116 119 93 73 96
13 -32 34 11 -44 -68 -44 40
-15 -27 -14 -100 -193 -198 -136 -4
-27 -18 -62 -178 -277 -258 -177 -22
-23 -8 -111 -222 -305 -266 -181 -24
-13 -4 -159 -251 -316 -264 -178 -22
-9 -6 -202 -281 -337 -271 -180 -24
-6 -17 -237 -311 -364 -286 -189 -29
0 -32 -257 -327 -387 -300 -194 -33
5 -41 -260 -327 -392 -301 -192 -32
6 -41 -248 -313 -371 -283 -179 -25
3 -36 -229 -285 -336 -256 -160 -18
2 -35 -204 -248 -296 -228 -145 -13
6 -37 -182 -214 -262 -206 -133 -10
10 -43 -162 -186 -234 -190 -124 -11
8 -46 -140 -158 -206 -172 -116 -12
5 -44 -119 -134 -181 -155 -109 -14
1 -38 -99 -110 -154 -136 -99 -13
1 -32 -81 -91 -129 -116 -88 -9
0 -25 -66 -75 -108 -99 -77 -5
-2 -22 -52 -62 -91 -85 -67 0
-3 -21 -41 -51 -75 -72 -58 3
-4 -19 -31 -39 -61 -60 -51 6
-5 -17 -22 -30 -48 -49 -43 11
-5 -14 -18 -25 -39 -41 -36 15
-4 -12 -16 -23 -35 -37 -32 16
-3 -11 -15 -23 -32 -34 -30 16
-4 -11 -13 -21 -28 -29 -28 17
-6 -11 -11 -20 -25 -28 -27 17
-7 -9 -8 -17 -21 -24 -26 16
-6 -8 -7 -14 -18 -22 -25 15
-5 -8 -5 -13 -16 -20 -23 15
-5 -8 -4 -12 -13 -18 -21 17
-6 -7 -2 -11 -11 -17 -19 18
-6 -7 0 -9 -10 -15 -18 20
-6 -7 -2 -8 -10 -14 -17 20
-8 -9 -2 -8 -9 -13 -16 21
-9 -10 0 -7 -8 -11 -16 22
-6 -8 0 -6 -7 -10 -15 21
-2 -5 3 -3 -4 -8 -13 22
0 -5 4 -2 -2 -7 -12 21
-4 -6 6 0 -2 -6 -12 21
-5 -6 6 0 0 -6 -11 22
-6 -5 6 1 2 -5 -10 23
-5 -5 6 2 2 -5 -9 24
-4 -4 6 2 2 -4 -9 23
-5 -3 7 3 3 -4 -9 23
-7 -5 9 6 5 -2 -7 25
-8 -4 10 7 7 1 -6 26
-6 0 11 8 9 4 -4 27
-2 3 11 9 11 4 -3 27
-2 2 13 9 12 4 -3 27
-2 0 12 10 12 5 -2 27
0 1 11 10 12 4 -3 25
0 1 11 11 12 4 -2 26
-2 2 10 11 13 5 0 26
-3 2 9 11 13 5 0 26
-3 1 12 12 14 7 1 26
-2 0 14 15 17 9 2 26
-2 1 15 17 19 11 2 26
-2 3 16 20 21 13 4 27
0 4 16 20 22 14 5 27
2 4 16 21 23 14 5 26
3 4 16 21 24 15 5 26
3 3 16 22 24 15 5 26
3 2 18 23 26 16 7 27
3 4 18 25 28 18 8 27
3 6 19 27 29 19 8 27
3 7 20 29 31 21 9 27
2 8 21 31 32 21 10 27
1 8 22 32 35 22 12 27
2 9 23 34 38 25 14 28
3 9 24 36 39 27 15 28
3 9 25 38 40 28 16 29
2 9 26 42 43 29 17 30
2 9 27 43 45 30 18 30
3 10 27 44 46 31 19 30
6 11 28 47 48 32 20 31
8 12 30 49 51 35 21 31
10 14 31 51 52 37 21 31
8 14 34 55 55 38 24 33
6 13 36 59 58 39 27 35
7 15 37 61 61 42 27 36
8 16 39 63 64 43 28 37
8 17 40 65 66 45 29 38
6 18 42 67 68 47 30 39
9 19 42 69 69 49 31 39
12 20 43 71 71 50 32 39
12 20 46 74 75 53 34 40
9 20 49 79 80 57 37 44
11 22 52 84 85 59 39 45
13 24 53 88 89 61 43 45
14 26 53 89 91 63 44 45
14 27 54 91 93 65 45 47
15 29 55 94 95 66 46 49
14 30 57 98 98 69 48 51
13 31 58 100 101 73 50 53
14 31 59 103 104 75 52 54
13 34 62 107 108 79 56 57
11 37 64 109 110 82 58 59
11 37 66 112 113 85 60 61
9 36 68 115 116 88 63 63
8 37 70 116 118 91 65 65
9 39 70 117 119 92 67 66
12 40 69 117 119 93 67 67
13 43 67 117 120 93 68 68
14 44 67 117 121 95 70 69
15 46 67 117 122 96 71 70
16 46 68 118 123 97 72 71
15 47 69 119 123 97 72 71
15 47 69 119 123 97 73 72
18 48 69 118 123 98 73 72
19 50 67 117 122 99 74 72
16 49 67 117 122 99 74 74
16 48 66 114 120 97 73 74
18 50 63 111 117 96 72 74
18 52 60 109 114 95 72 73
17 52 60 108 114 96 73 74
17 52 59 106 113 95 72 74
17 52 58 104 111 93 71 73
17 52 56 101 109 92 71 72
17 51 55 98 107 90 69 71
17 51 52 94 103 88 67 70
17 51 49 90 100 85 65 69
16 49 46 87 97 84 64 69
16 47 45 84 94 81 64 70
14 47 43 80 91 79 62 68
12 46 42 77 88 77 61 67
12 45 39 73 85 75 60 65
12 45 36 69 80 72 58 63
11 45 33 64 75 69 55 61
10 43 32 60 71 65 51 59
10 40 30 56 66 61 48 56
10 38 26 52 62 57 45 53
9 35 24 49 59 55 43 51
7 32 21 44 54 51 40 49
5 30 20 40 50 48 38 47
5 28 18 34 45 43 34 44
7 25 16 32 40 39 31 43
9 24 12 28 36 35 27 39
9 23 12 26 33 33 26 38
8 21 11 22 30 31 23 37
3 19 10 19 26 27 21 34
-2 16 9 18 24 25 20 32
0 15 7 15 20 22 17 30
5 14 5 11 16 19 14 27
4 13 4 10 14 17 12 26
-2 11 4 10 13 17 11 26
-3 10 3 9 11 15 10 24
-2 8 2 6 8 12 7 21
-4 6 2 5 6 10 5 19
-6 5 2 4 4 8 3 17
-8 4 2 3 3 7 2 16
-9 2 1 2 2 7 2 16
-9 -2 0 1 1 6 2 16
-8 -3 -3 -2 -3 3 0 15
-8 -3 -2 -4 -4 2 -3 13
-8 -3 -2 -5 -5 0 -4 12
-7 -3 -2 -4 -6 -3 -5 10
-6 -3 -3 -3 -7 -3 -5 9
-6 -2 -4 -4 -8 -5 -7 7
-6 -2 -3 -5 -9 -6 -8 7
-5 -2 -4 -7 -10 -7 -9 6
-5 -2 -5 -7 -10 -6 -9 6
-7 -2 -4 -6 -9 -5 -7 7
-9 -3 -4 -6 -9 -4 -7 8
-9 -4 -5 -8 -10 -5 -8 7
-9 -6 -6 -8 -10 -5 -8 6
-9 -6 -5 -7 -10 -5 -8 5
-8 -6 -5 -7 -10 -6 -9 3
-8 -6 -4 -7 -10 -6 -9 4
-8 -6 -3 -7 -9 -5 -8 5
-6 -6 -2 -6 -9 -5 -7 6
-5 -6 -4 -6 -10 -6 -8 5
-7 -6 -4 -6 -10 -6 -8 5
-9 -7 -4 -6 -9 -6 -8 5
-10 -8 -3 -5 -8 -5 -7 6
-10 -8 -3 -5 -7 -4 -6 6
-10 -7 -3 -5 -8 -5 -7 6
-8 -6 -4 -6 -9 -6 -8 4
-7 -6 -5 -5 -9 -6 -9 3
-6 -5 -4 -6 -9 -6 -10 2
-5 -4 -3 -6 -9 -5 -9 3
-4 -5 -5 -6 -9 -6 -10 3
-4 -6 -6 -7 -10 -6 -10 3
-5 -6 -6 -7 -10 -7 -10 3
-4 -8 -5 -7 -9 -6 -9 4
-4 -8 -5 -6 -9 -5 -8 5
-6 -7 -4 -6 -8 -4 -7 6
-10 -7 -3 -4 -7 -3 -6 7
-12 -6 0 -3 -6 -2 -5 7
-11 -6 -2 -4 -8 -4 -6 6
-9 -6 -2 -5 -8 -4 -7 6
-8 -6 -3 -7 -10 -5 -9 4
-6 -6 -5 -8 -11 -6 -9 4
-5 -7 -6 -10 -13 -8 -10 4
-4 -7 -8 -10 -13 -8 -12 2
-5 -7 -8 -9 -12 -7 -10 3
-8 -6 -6 -9 -12 -6 -9 3
-9 -6 -4 -8 -11 -5 -7 4
-9 -6 -2 -7 -10 -4 -7 5
-8 -6 -3 -7 -10 -5 -7 4
-9 -6 -3 -7 -10 -5 -6 5
-8 -6 -6 -9 -12 -7 -8 3
-7 -6 -5 -9 -12 -7 -8 3
-8 -5 -5 -10 -13 -7 -7 4
-11 -5 -4 -9 -12 -5 -6 4
-12 -5 -5 -9 -12 -5 -7 4
-11 -6 -6 -9 -12 -6 -8 3
-11 -6 -5 -8 -12 -6 -8 2
-11 -6 -4 -8 -12 -6 -8 2
-11 -7 -4 -8 -12 -5 -7 3
-11 -8 -6 -10 -13 -6 -8 3
-10 -8 -6 -11 -14 -8 -10 2
-8 -8 -7 -12 -16 -10 -11 0
-6 -7 -8 -14 -17 -11 -12 -2
-5 -6 -9 -14 -18 -12 -13 -2
-7 -6 -8 -12 -17 -10 -11 0
-9 -7 -7 -12 -16 -9 -11 0
-9 -10 -6 -12 -16 -10 -12 -2
-9 -10 -7 -12 -16 -11 -13 -2
-10 -9 -6 -12 -15 -10 -11 0
-10 -9 -6 -11 -15 -9 -10 1
-10 -9 -6 -12 -16 -10 -11 0
-10 -10 -7 -13 -18 -11 -12 -3
-10 -11 -8 -14 -18 -11 -12 -2
-10 -11 -8 -14 -18 -11 -12 -2
-10 -12 -8 -15 -19 -11 -12 -2
-10 -12 -8 -15 -19 -12 -13 -3
-11 -12 -8 -16 -20 -12 -13 -4
-11 -11 -8 -16 -20 -12 -13 -3
-11 -9 -8 -16 -20 -14 -15 -4
-11 -8 -8 -16 -21 -14 -15 -4
-12 -9 -8 -16 -20 -14 -15 -4
-10 -11 -9 -17 -21 -15 -16 -5
-9 -12 -10 -18 -22 -16 -16 -5
-10 -13 -10 -19 -23 -17 -18 -7
-11 -14 -9 -18 -22 -17 -18 -7
-11 -14 -9 -18 -22 -16 -16 -6
-11 -13 -7 -16 -21 -14 -15 -5
-11 -12 -8 -17 -21 -14 -16 -5
-11 -12 -8 -18 -22 -15 -16 -5
-10 -12 -9 -19 -24 -17 -16 -5
-7 -12 -10 -20 -25 -18 -17 -6
-6 -12 -10 -21 -25 -18 -17 -6
-8 -13 -12 -21 -26 -19 -17 -7
-10 -15 -13 -22 -27 -20 -18 -8
-10 -14 -11 -20 -25 -19 -18 -8
-10 -12 -11 -20 -25 -18 -18 -8
-10 -10 -11 -20 -26 -19 -18 -8
-10 -10 -10 -20 -26 -19 -19 -8
-10 -10 -10 -20 -26 -19 -20 -9
-11 -10 -9 -19 -25 -18 -19 -8
-12 -11 -9 -20 -26 -18 -19 -9
-12 -11 -10 -21 -27 -19 -19 -10
-11 -11 -10 -21 -27 -19 -19 -9
-9 -11 -9 -20 -26 -18 -18 -9
-9 -10 -8 -19 -24 -16 -16 -8
-9 -10 -8 -19 -23 -15 -15 -6
-9 -10 -7 -18 -23 -14 -14 -6
-9 -9 -7 -18 -23 -14 -15 -5
-9 -7 -7 -19 -24 -15 -16 -6
-10 -6 -7 -18 -24 -15 -15 -6
-8 -6 -8 -18 -24 -15 -16 -7
-7 -6 -8 -18 -23 -14 -15 -6
-6 -4 -10 -20 -23 -14 -15 -6
-6 -3 -10 -19 -22 -13 -14 -6
-6 -2 -10 -19 -23 -14 -14 -6
-5 0 -10 -19 -22 -13 -13 -6
-5 1 -11 -20 -22 -13 -13 -6
-7 2 -9 -19 -20 -12 -12 -5
-7 2 -9 -18 -19 -12 -12 -5
-6 2 -10 -19 -21 -13 -13 -6
-6 1 -10 -18 -21 -12 -12 -5
-8 1 -12 -19 -22 -12 -12 -5
-7 2 -13 -21 -22 -12 -11 -5
-3 2 -16 -23 -23 -14 -12 -7
-2 3 -17 -24 -23 -13 -12 -6
-3 3 -17 -24 -23 -13 -11 -6
-2 4 -16 -23 -22 -11 -10 -4
1 4 -15 -21 -20 -9 -8 -2
0 4 -15 -21 -19 -8 -6 1
-2 4 -16 -20 -19 -8 -5 2
1 4 -15 -20 -20 -8 -6 2
2 1 -17 -23 -23 -11 -9 -2
1 -2 -18 -25 -26 -14 -10 -4
1 1 -16 -22 -24 -12 -9 -3
0 4 -12 -20 -20 -8 -8 -2
-2 5 -11 -18 -18 -7 -6 0
0 3 -10 -16 -17 -6 -5 0
1 2 -10 -15 -15 -5 -4 2
3 2 -10 -16 -15 -5 -4 2
4 2 -13 -18 -18 -7 -5 1
5 2 -14 -19 -20 -9 -6 0
3 2 -13 -19 -20 -9 -6 0
-2 -3 -11 -17 -19 -9 -6 0
-4 -7 -9 -16 -18 -8 -6 -2
-5 -9 -9 -17 -19 -9 -7 -3
-6 -10 -9 -18 -21 -10 -9 -4
-6 -10 -10 -19 -22 -11 -10 -5
-5 -10 -10 -20 -23 -13 -12 -6
-5 -11 -10 -22 -25 -14 -14 -9
-7 -13 -11 -22 -26 -16 -16 -11
-8 -15 -11 -23 -28 -17 -18 -14
-9 -15 -10 -23 -29 -19 -19 -14
-12 -16 -10 -22 -29 -20 -19 -14
-16 -17 -10 -22 -30 -21 -19 -15
-19 -18 -10 -23 -30 -21 -21 -16
-18 -19 -11 -24 -31 -23 -22 -17
-14 -20 -12 -25 -33 -24 -23 -18
-11 -20 -12 -26 -33 -25 -24 -18
-11 -18 -13 -27 -33 -25 -24 -19
-11 -18 -14 -27 -33 -26 -24 -20
-12 -18 -14 -27 -33 -27 -24 -20
-11 -19 -14 -27 -34 -27 -24 -21
-11 -22 -14 -27 -34 -26 -23 -19
-10 -23 -15 -27 -33 -26 -23 -19
-12 -23 -14 -27 -32 -25 -23 -18
-16 -23 -12 -26 -31 -25 -22 -17
-18 -23 -10 -25 -30 -24 -21 -16
-18 -22 -10 -26 -30 -24 -21 -17
-17 -21 -9 -24 -30 -24 -21 -16
-15 -23 -10 -26 -30 -24 -21 -16
-14 -23 -14 -28 -32 -26 -23 -18
-14 -23 -14 -30 -34 -27 -24 -18
-14 -23 -14 -30 -34 -27 -24 -18
-14 -23 -14 -30 -34 -27 -24 -18
-13 -23 -14 -31 -34 -27 -23 -18
-12 -21 -14 -31 -34 -28 -25 -19
-11 -22 -14 -31 -35 -29 -26 -20
-11 -23 -14 -32 -36 -30 -26 -20
-11 -22 -14 -32 -35 -28 -26 -20
-13 -19 -11 -30 -32 -26 -24 -19
-15 -15 -9 -29 -29 -24 -22 -18
-16 -7 -6 -27 -23 -18 -18 -15
-15 1 -2 -21 -13 -9 -11 -11
-14 5 5 -9 4 5 -2 -6
-13 8 13 8 25 24 14 4
-9 14 18 23 49 50 33 16
0 20 23 40 79 84 60 31
10 24 29 61 114 121 91 48
20 24 38 87 154 163 125 67
33 23 51 117 194 207 160 88
49 21 66 152 240 255 198 109
64 19 86 189 290 305 239 133
77 20 104 220 332 347 271 151
85 24 118 239 358 370 288 163
86 25 119 237 353 363 282 164
78 12 108 215 311 314 245 147
62 -13 92 168 223 211 164 105
34 -31 69 91 86 59 51 49
-2 -36 30 -15 -77 -105 -64 -5
-28 -33 -18 -115 -213 -223 -147 -43
-37 -27 -63 -180 -280 -267 -179 -59
-33 -20 -107 -214 -298 -267 -177 -57
-25 -17 -151 -240 -310 -266 -173 -53
-18 -22 -191 -272 -333 -276 -179 -57
-11 -37 -219 -299 -361 -291 -189 -64
-5 -53 -232 -309 -380 -302 -192 -66
1 -59 -233 -307 -377 -297 -186 -63
1 -55 -223 -291 -353 -275 -171 -55
1 -49 -205 -265 -317 -248 -154 -49
3 -47 -183 -232 -279 -223 -139 -44
5 -48 -162 -202 -248 -201 -128 -41
2 -52 -140 -172 -220 -183 -118 -41
-4 -54 -117 -144 -191 -164 -110 -43
-6 -52 -97 -118 -163 -144 -100 -41
-6 -45 -80 -96 -137 -123 -89 -40
-7 -38 -65 -78 -115 -105 -78 -38
-11 -34 -52 -64 -96 -89 -68 -34
-11 -30 -41 -54 -81 -76 -60 -30
-10 -26 -32 -43 -67 -65 -52 -28
-9 -23 -23 -30 -53 -53 -44 -24
-10 -20 -17 -23 -44 -45 -37 -20
-11 -19 -13 -19 -37 -38 -32 -18
-11 -19 -11 -15 -33 -33 -29 -16
-11 -19 -9 -13 -28 -29 -25 -15
-11 -18 -8 -10 -25 -26 -24 -14
-11 -17 -6 -7 -22 -23 -23 -13
-10 -15 -4 -4 -18 -20 -22 -13
-9 -15 0 1 -15 -18 -19 -11
-10 -14 2 4 -12 -16 -17 -10
-11 -15 4 7 -10 -14 -16 -10
-12 -15 5 9 -9 -12 -14 -8
-11 -15 3 9 -10 -13 -15 -9
-9 -15 3 11 -9 -11 -13 -8
-10 -14 4 14 -6 -10 -11 -8
-11 -14 6 17 -4 -8 -10 -8
-11 -13 7 19 -3 -7 -9 -8
-10 -12 9 21 0 -5 -9 -8
-9 -11 10 23 1 -5 -8 -9
-6 -11 10 24 1 -5 -8 -9
-4 -11 9 24 1 -5 -7 -9
-2 -11 7 24 0 -5 -8 -9
1 -11 6 26 0 -6 -10 -10
0 -11 8 30 1 -4 -8 -9
-6 -11 9 33 4 -2 -6 -7
-12 -10 12 37 7 2 -3 -5
-14 -9 13 39 9 4 0 -3
-12 -8 14 42 10 5 0 -3
-10 -6 15 44 11 6 1 -4
-9 -6 15 46 12 7 1 -4
-9 -6 15 47 12 6 2 -3
-8 -7 14 48 13 6 2 -3
-7 -8 13 49 13 6 2 -3
-7 -8 13 51 14 7 2 -3
-7 -8 14 53 15 8 3 -3
-6 -7 15 55 17 10 5 0
-4 -6 16 58 19 11 6 1
-5 -5 17 62 21 12 7 0
-7 -5 20 66 23 14 8 0
-5 -4 20 69 24 15 8 1
-4 -3 19 70 25 16 9 2
-6 -3 20 71 26 18 10 3
-10 -3 21 71 27 19 11 3
-10 -3 21 71 28 20 12 4
-8 -2 21 72 30 21 13 3
-7 0 22 74 31 21 13 3
-6 2 23 75 32 23 14 2
-4 3 24 76 34 24 15 2
-3 4 26 78 36 25 17 3
-2 5 26 79 37 26 17 2
1 6 26 80 38 27 17 2
3 6 25 80 39 26 17 3
2 6 26 81 42 27 18 5
0 6 26 82 43 29 20 6
-3 6 28 87 47 33 23 9
-2 7 30 88 49 35 23 9
0 8 33 91 52 37 25 10
2 9 34 92 54 38 26 10
2 9 37 97 57 40 28 11
2 10 37 98 59 42 28 11
1 10 40 100 62 45 30 13
2 10 40 101 63 45 30 13
3 11 42 104 66 47 31 15
3 12 43 105 68 48 33 15
3 13 45 108 71 50 35 17
5 14 46 110 73 51 35 17
7 14 47 113 75 53 35 18
10 16 50 116 79 56 37 19
12 19 52 118 81 58 39 19
10 21 55 121 87 62 43 22
7 22 57 126 91 66 46 25
4 22 59 129 94 68 48 28
4 23 59 131 96 69 50 29
7 24 60 132 98 71 53 30
10 25 61 133 100 73 55 32
12 26 62 135 102 75 56 33
13 28 63 138 105 78 58 35
13 31 65 140 108 81 61 37
12 32 67 143 112 85 64 40
12 33 68 143 112 86 65 42
13 34 68 144 114 88 66 43
15 35 68 144 114 88 67 44
17 36 67 144 114 88 67 45
18 37 66 144 114 89 68 46
18 39 65 144 115 91 70 48
16 42 67 145 117 93 73 50
13 44 69 147 121 97 76 53
9 45 71 149 125 99 78 55
7 45 71 150 126 100 80 57
9 46 70 149 125 100 79 57
11 47 68 145 122 99 79 58
13 47 67 145 121 98 78 58
14 47 65 143 118 96 77 58
13 47 64 141 118 96 78 59
13 46 62 137 116 95 78 58
13 46 60 136 114 95 77 56
14 47 59 134 113 94 76 55
16 49 58 131 112 93 75 55
17 51 55 127 108 89 73 53
16 50 53 122 104 87 71 52
14 48 50 118 101 84 70 51
11 47 49 116 99 84 70 53
10 46 47 114 96 82 69 54
10 45 44 108 91 79 67 52
10 44 40 104 88 76 65 51
11 44 36 98 82 73 62 49
11 43 35 95 80 72 62 48
12 43 32 91 75 68 59 45
11 40 30 88 72 64 56 43
10 38 27 82 67 60 52 40
8 35 25 78 62 57 49 38
6 32 25 76 59 54 48 38
3 31 23 73 55 50 45 36
2 29 21 68 50 46 40 31
2 26 18 63 47 42 37 29
3 24 17 60 43 38 34 27
3 22 16 57 39 36 32 25
2 20 14 54 36 33 29 22
4 18 11 50 31 28 24 18
5 17 10 47 27 24 21 15
3 14 10 45 25 23 21 14
-2 12 8 43 22 22 20 13
-4 9 6 39 19 19 18 12
-3 7 5 37 16 17 16 10
0 6 3 33 12 12 12 7
1 4 2 31 10 10 10 5
1 2 0 28 7 6 8 2
1 3 -2 27 6 5 7 1
3 4 -2 25 4 3 5 0
1 2 -2 23 2 1 3 -2
-7 0 -3 23 1 0 2 -2
-11 -4 0 24 1 0 2 0
-9 -5 -3 20 -4 -4 -2 -3
-7 -6 -4 18 -6 -5 -3 -4
-7 -6 -5 17 -7 -6 -3 -4
-6 -7 -6 17 -8 -7 -4 -5
-6 -7 -6 15 -9 -8 -4 -6
-8 -9 -5 15 -8 -8 -4 -6
-8 -10 -3 17 -8 -8 -4 -5
-5 -9 -5 15 -10 -11 -6 -8
-5 -9 -6 14 -11 -11 -7 -8
-8 -10 -6 14 -10 -10 -6 -7
-8 -11 -7 13 -11 -12 -7 -8
-6 -12 -7 12 -11 -11 -7 -8
-8 -12 -6 13 -10 -10 -7 -8
-9 -11 -6 13 -10 -10 -7 -9
-8 -10 -5 14 -9 -9 -6 -9
-4 -10 -7 12 -10 -11 -8 -11
-4 -9 -6 12 -10 -11 -8 -11
-5 -10 -5 13 -10 -11 -8 -11
-8 -10 -5 13 -10 -10 -8 -10
-10 -11 -6 12 -11 -11 -9 -10
-11 -12 -6 11 -12 -13 -10 -11
-11 -11 -6 11 -11 -13 -9 -11
-8 -10 -7 10 -12 -13 -10 -11
-7 -10 -8 10 -13 -14 -11 -12
-9 -9 -6 11 -11 -12 -9 -10
-10 -9 -5 12 -9 -11 -8 -9
-7 -10 -5 12 -9 -11 -8 -8
-5 -9 -5 11 -11 -12 -9 -9
-5 -9 -6 10 -11 -12 -9 -9
-6 -9 -6 10 -12 -12 -9 -8
-6 -10 -7 9 -13 -13 -10 -9
-5 -9 -8 8 -13 -13 -9 -9
-5 -9 -8 8 -12 -12 -9 -8
-6 -9 -7 9 -11 -10 -8 -7
-5 -9 -7 8 -10 -10 -8 -8
-5 -9 -7 8 -9 -10 -8 -8
-6 -9 -6 8 -8 -9 -8 -7
-7 -8 -5 8 -9 -10 -8 -7
-9 -7 -5 8 -9 -10 -8 -7
-10 -7 -5 7 -10 -11 -8 -7
-10 -7 -6 6 -11 -12 -8 -8
-7 -8 -7 5 -12 -11 -8 -8
-6 -8 -9 4 -13 -12 -9 -9
-8 -8 -7 4 -11 -11 -8 -8
-8 -8 -6 5 -10 -10 -8 -8
-6 -7 -7 5 -11 -10 -8 -9
-6 -7 -7 5 -11 -11 -9 -10
-7 -6 -8 3 -11 -12 -10 -11
-5 -6 -9 3 -13 -13 -11 -11
-4 -6 -9 3 -13 -13 -10 -11
-6 -7 -8 3 -13 -13 -9 -10
-9 -9 -7 3 -12 -12 -8 -9
-10 -9 -8 3 -12 -11 -7 -9
-10 -8 -7 3 -12 -10 -7 -9
-8 -8 -7 2 -13 -11 -8 -10
-6 -8 -8 0 -14 -13 -10 -11
-5 -8 -8 0 -15 -13 -10 -11
-5 -7 -8 -2 -15 -14 -10 -10
-5 -7 -8 -3 -15 -13 -10 -9
-4 -7 -10 -4 -16 -14 -11 -10
-5 -8 -10 -4 -16 -14 -11 -10
-8 -10 -9 -3 -16 -14 -10 -9
-9 -10 -10 -4 -16 -14 -10 -9
-7 -10 -10 -6 -17 -15 -11 -10
-6 -10 -10 -6 -17 -16 -12 -10
-8 -9 -11 -6 -18 -17 -13 -10
-9 -9 -10 -6 -18 -17 -13 -10
-8 -8 -10 -7 -19 -18 -13 -11
-7 -8 -11 -7 -19 -17 -13 -11
-8 -8 -12 -8 -20 -18 -13 -12
-10 -9 -11 -8 -20 -18 -13 -11
-11 -9 -11 -9 -21 -18 -14 -12
-10 -10 -11 -9 -21 -18 -14 -13
-9 -10 -11 -9 -21 -18 -13 -13
-9 -10 -12 -10 -20 -17 -14 -13
-10 -10 -12 -10 -20 -18 -14 -13
-11 -10 -10 -9 -20 -18 -14 -12
-11 -11 -10 -9 -20 -19 -15 -13
-12 -12 -10 -9 -20 -19 -15 -12
-11 -12 -11 -11 -22 -20 -16 -13
-7 -12 -12 -13 -24 -22 -17 -14
-7 -13 -13 -13 -25 -23 -17 -15
-8 -14 -13 -13 -25 -22 -16 -14
-9 -15 -11 -12 -23 -20 -15 -13
-8 -13 -12 -13 -24 -21 -16 -13
-7 -12 -12 -14 -25 -22 -17 -13
-9 -11 -12 -15 -25 -22 -17 -13
-11 -11 -12 -15 -24 -22 -16 -12
-11 -11 -12 -14 -24 -21 -15 -12
-10 -11 -12 -14 -24 -21 -15 -12
-11 -11 -12 -14 -24 -22 -16 -12
-11 -11 -13 -14 -25 -22 -16 -12
-10 -12 -13 -15 -25 -22 -16 -12
-10 -12 -13 -15 -25 -22 -16 -12
-10 -12 -12 -16 -25 -23 -17 -13
-8 -12 -12 -16 -25 -24 -18 -14
-6 -12 -12 -16 -25 -24 -18 -14
-7 -12 -13 -18 -26 -25 -18 -14
-8 -13 -14 -17 -26 -24 -18 -13
-9 -13 -14 -17 -27 -24 -18 -13
-9 -12 -15 -18 -27 -25 -18 -14
-8 -12 -16 -20 -29 -26 -19 -15
-8 -11 -14 -19 -28 -24 -18 -14
-9 -10 -13 -18 -27 -23 -17 -14
-10 -11 -11 -17 -26 -22 -17 -14
-11 -13 -11 -17 -25 -22 -17 -14
-10 -14 -11 -18 -25 -22 -17 -14
-8 -13 -12 -19 -25 -24 -18 -15
-9 -11 -12 -18 -25 -23 -18 -15
-11 -11 -10 -16 -23 -21 -16 -13
-12 -11 -11 -18 -24 -23 -16 -13
-11 -10 -12 -19 -25 -23 -15 -12
-10 -8 -12 -18 -24 -22 -16 -12
-9 -7 -12 -18 -24 -21 -16 -12
-8 -7 -12 -18 -23 -21 -16 -12
-6 -7 -11 -20 -24 -22 -16 -13
-4 -7 -11 -19 -24 -22 -17 -13
-3 -6 -11 -18 -23 -21 -16 -12
-3 -5 -13 -19 -23 -21 -16 -13
-7 -5 -12 -17 -21 -19 -14 -11
-11 -4 -11 -17 -20 -18 -12 -9
-10 -2 -11 -18 -20 -17 -11 -9
-6 0 -13 -20 -22 -18 -13 -11
-7 -2 -13 -21 -21 -18 -13 -10
-10 -2 -12 -20 -21 -17 -13 -10
-8 -2 -12 -19 -21 -17 -13 -10
-5 0 -13 -21 -22 -18 -13 -11
-4 1 -14 -23 -23 -20 -14 -12
-3 2 -15 -23 -23 -19 -13 -10
-2 3 -15 -22 -21 -17 -10 -8
-2 1 -18 -24 -23 -19 -11 -9
-4 0 -19 -26 -23 -19 -11 -9
-3 2 -19 -26 -23 -18 -11 -9
2 3 -20 -24 -22 -16 -9 -8
5 3 -21 -24 -22 -16 -8 -7
8 3 -20 -24 -21 -16 -8 -7
10 3 -19 -24 -20 -16 -9 -8
7 2 -19 -25 -21 -17 -9 -7
2 0 -18 -25 -22 -16 -9 -6
1 0 -18 -26 -22 -16 -9 -6
1 1 -17 -23 -19 -14 -6 -3
-2 2 -15 -19 -17 -12 -4 0
-2 2 -14 -17 -15 -11 -3 0
0 1 -13 -17 -15 -10 -3 1
0 2 -12 -18 -15 -10 -2 2
1 2 -13 -20 -16 -11 -3 1
3 2 -14 -20 -17 -12 -4 0
4 1 -14 -21 -17 -13 -5 -2
5 -2 -14 -21 -17 -14 -6 -4
5 -5 -13 -19 -17 -14 -7 -5
3 -8 -13 -20 -18 -15 -8 -6
1 -10 -14 -22 -21 -18 -10 -8
-3 -11 -14 -23 -22 -19 -12 -9
-7 -10 -13 -22 -21 -18 -11 -8
-10 -10 -12 -21 -21 -17 -10 -8
-11 -10 -11 -22 -22 -19 -13 -10
-11 -12 -12 -24 -25 -23 -17 -14
-11 -14 -12 -26 -27 -25 -18 -16
-9 -15 -13 -27 -27 -25 -18 -16
-11 -17 -13 -26 -27 -25 -18 -16
-14 -18 -14 -27 -29 -27 -19 -17
-15 -19 -15 -29 -31 -28 -21 -17
-13 -18 -16 -29 -32 -28 -21 -17
-11 -18 -14 -28 -31 -28 -20 -16
-11 -18 -14 -28 -31 -29 -21 -16
-11 -19 -15 -29 -31 -29 -21 -18
-11 -20 -16 -29 -31 -29 -23 -19
-11 -21 -15 -29 -31 -29 -23 -19
-12 -21 -15 -29 -32 -30 -23 -19
-13 -20 -15 -29 -32 -30 -23 -19
-14 -20 -15 -30 -33 -31 -23 -19
-14 -20 -15 -30 -33 -31 -23 -19
-11 -19 -16 -31 -34 -32 -24 -19
-9 -20 -16 -29 -34 -31 -24 -18
-10 -21 -15 -29 -33 -31 -23 -19
-11 -22 -14 -28 -32 -29 -23 -18
-11 -21 -14 -28 -32 -29 -23 -18
-11 -21 -14 -29 -32 -29 -23 -19
-14 -22 -14 -29 -32 -29 -22 -19
-15 -22 -14 -29 -32 -30 -23 -19
-14 -21 -14 -29 -33 -30 -23 -19
-15 -22 -15 -30 -35 -32 -24 -20
-15 -23 -15 -30 -35 -32 -24 -20
-15 -23 -16 -29 -34 -32 -25 -21
-17 -21 -14 -28 -32 -30 -24 -21
-19 -19 -13 -27 -30 -27 -22 -20
-21 -16 -13 -27 -29 -26 -22 -19
-19 -9 -11 -28 -26 -23 -19 -18
-16 -2 -7 -22 -18 -15 -13 -14
-12 5 0 -13 -5 -5 -6 -9
-9 9 8 4 16 12 7 -2
-3 16 14 21 38 35 24 9
4 22 20 39 68 66 49 23
8 27 26 60 103 104 78 40
17 28 34 86 142 145 111 59
32 28 45 115 182 186 146 77
49 27 61 151 226 231 182 98
63 26 82 191 278 283 223 120
77 28 104 229 327 331 260 141
87 31 119 253 360 362 283 156
91 33 121 258 365 366 286 161
88 25 110 239 338 335 263 151
72 2 98 202 268 256 201 120
44 -24 79 134 144 120 100 70
9 -35 38 25 -27 -47 -19 15
-20 -33 -15 -91 -187 -190 -116 -29
-33 -24 -64 -173 -278 -260 -164 -53
-30 -16 -111 -214 -305 -268 -171 -55
-20 -12 -159 -242 -316 -264 -165 -50
-15 -16 -202 -276 -341 -274 -171 -53
-10 -28 -232 -304 -369 -291 -182 -60
-3 -47 -247 -317 -390 -304 -189 -64
5 -56 -249 -316 -390 -303 -186 -63
7 -54 -240 -301 -369 -283 -172 -55
8 -47 -223 -274 -333 -257 -154 -48
10 -43 -198 -237 -294 -229 -138 -43
9 -44 -173 -200 -256 -204 -126 -38
6 -48 -149 -171 -226 -187 -117 -39
3 -52 -127 -144 -199 -169 -110 -43
0 -49 -105 -119 -171 -148 -101 -43
-4 -41 -85 -96 -142 -127 -89 -38
-5 -34 -68 -77 -119 -108 -77 -34
-7 -31 -56 -64 -99 -92 -68 -31
-9 -28 -45 -54 -83 -78 -60 -29
-8 -25 -32 -40 -68 -66 -52 -26
-8 -21 -23 -29 -55 -55 -43 -22
-10 -18 -16 -23 -44 -46 -36 -18
-11 -17 -13 -20 -36 -38 -31 -17
-12 -16 -10 -18 -31 -32 -27 -15
-12 -16 -8 -16 -27 -29 -24 -14
-12 -16 -7 -14 -25 -27 -24 -12
-9 -16 -5 -13 -24 -26 -24 -12
-6 -14 -4 -12 -21 -24 -23 -13
-6 -13 -2 -9 -17 -20 -21 -12
-7 -13 0 -8 -16 -18 -20 -12
-7 -13 1 -8 -14 -17 -18 -12
-8 -12 3 -5 -12 -15 -17 -11
-9 -11 4 -4 -10 -14 -15 -10
-11 -12 5 -2 -8 -11 -13 -9
-11 -13 6 1 -6 -9 -11 -8
-10 -14 7 1 -5 -8 -11 -7
-9 -14 7 1 -5 -9 -12 -8
-9 -12 9 4 -2 -6 -10 -6
-10 -11 11 7 1 -4 -8 -5
-11 -10 12 8 3 -2 -7 -5
-11 -9 12 8 3 -2 -7 -6
-9 -8 11 8 4 -3 -7 -7
-7 -7 11 8 4 -3 -8 -7
-4 -6 11 9 4 -3 -7 -6
-2 -6 10 9 4 -3 -7 -6
-2 -7 12 10 6 -2 -6 -5
-4 -8 13 11 8 0 -6 -5
-6 -9 15 14 10 2 -4 -4
-9 -8 17 16 12 5 -3 -3
-9 -6 19 17 14 7 0 0
-8 -5 19 17 14 7 0 -2
-8 -5 18 17 13 7 0 -3
-8 -6 17 17 12 6 -2 -4
-9 -5 16 17 13 6 0 -4
-9 -5 17 19 15 8 1 -3
-9 -5 18 20 17 10 2 -2
-9 -5 19 22 18 11 2 0
-10 -3 21 25 21 13 5 2
-11 -2 22 27 23 15 7 3
-9 0 23 28 25 15 8 3
-7 0 23 28 25 16 8 3
-7 0 24 29 26 17 8 3
-5 0 24 31 27 18 8 3
-3 0 24 31 28 18 9 3
-3 1 26 33 30 20 10 3
-2 1 26 33 30 20 10 3
-2 2 26 34 32 21 10 3
-5 2 27 37 35 24 12 4
-6 3 29 39 37 25 13 4
-4 4 30 40 38 26 13 3
-5 4 31 43 42 28 15 4
-5 6 32 46 44 30 17 6
-4 8 32 48 45 31 18 7
-3 8 32 50 46 32 19 8
-3 8 34 52 48 33 20 9
-3 8 35 54 50 34 21 9
-4 8 38 57 53 36 24 11
-3 9 39 60 56 39 25 12
2 10 39 62 58 40 25 11
6 11 40 64 60 42 25 11
7 12 42 65 61 42 25 11
5 12 44 69 65 45 27 12
5 14 45 71 66 46 27 13
5 16 46 73 68 48 30 14
4 17 48 76 71 51 31 16
4 17 49 78 73 51 31 16
6 19 51 81 75 52 33 18
8 20 53 85 78 55 35 19
8 21 56 88 82 59 38 21
8 22 57 91 86 61 39 22
7 24 60 95 89 64 43 24
7 25 63 99 93 66 45 26
9 27 63 101 94 67 46 27
8 27 65 104 97 71 49 30
6 28 66 107 100 74 51 32
7 29 67 109 101 75 52 33
10 30 68 111 104 77 53 34
10 31 70 113 107 80 56 36
11 32 71 115 109 82 57 37
12 34 72 116 111 84 58 38
13 36 73 118 113 86 60 40
14 38 73 119 114 87 62 42
14 39 73 121 116 89 64 45
12 40 74 122 118 91 67 47
12 42 75 123 120 94 69 49
14 43 75 123 120 94 70 50
14 44 74 123 119 93 70 49
13 46 75 125 121 95 71 51
14 47 75 125 121 96 71 52
14 48 76 125 121 97 71 52
14 49 75 125 121 97 73 52
16 51 73 122 120 96 73 52
17 52 72 121 119 96 73 53
18 51 71 119 117 95 72 53
20 52 68 116 115 94 71 53
20 52 67 114 114 93 71 53
15 52 66 112 114 93 72 54
10 52 67 112 114 95 73 56
8 52 67 111 113 95 74 58
6 52 66 109 112 94 73 58
5 51 63 106 109 92 72 57
6 49 59 101 105 88 70 55
10 49 57 97 101 86 69 54
10 50 54 93 97 84 68 54
10 49 51 88 93 81 66 52
12 48 47 82 89 78 63 50
13 46 44 77 85 74 60 49
11 44 40 73 81 72 58 48
8 43 39 71 78 70 57 48
6 40 37 68 75 67 55 46
6 39 35 63 70 63 51 44
6 36 32 59 65 59 49 42
3 34 30 55 62 56 47 39
2 32 27 51 57 52 45 37
6 30 24 46 50 47 39 34
8 28 22 40 45 42 35 31
6 26 21 38 43 39 33 30
5 24 19 35 39 37 31 28
4 22 17 31 35 34 28 25
3 20 15 28 31 31 24 22
2 19 13 24 28 27 22 21
1 17 12 21 25 25 21 20
0 15 10 18 21 22 18 17
1 13 7 15 18 19 16 15
2 12 6 13 15 16 13 13
1 10 6 11 12 14 11 12
1 8 4 8 9 11 8 9
1 5 3 7 7 9 6 8
1 3 2 6 5 7 5 6
1 1 2 5 3 5 3 4
2 0 1 3 1 3 1 2
4 -2 -2 0 -3 0 -2 0
1 -2 -2 0 -4 -2 -2 0
-3 -3 0 0 -4 0 -2 1
-5 -4 -2 -3 -5 -2 -2 1
-10 -5 -2 -3 -5 -3 -3 2
-11 -7 0 -3 -6 -4 -4 2
-9 -6 0 -3 -7 -5 -5 1
-6 -5 -3 -4 -8 -7 -7 -3
-6 -6 -2 -4 -8 -6 -7 -3
-7 -8 0 -4 -8 -7 -7 -3
-7 -7 -3 -6 -10 -9 -8 -5
-6 -7 -3 -6 -11 -10 -9 -5
-6 -8 -3 -6 -11 -10 -9 -5
-7 -8 -2 -5 -10 -8 -8 -5
-8 -8 -3 -6 -10 -8 -8 -4
-9 -8 -4 -7 -12 -9 -9 -4
-10 -9 -4 -6 -12 -10 -9 -5
-9 -8 -4 -7 -12 -10 -10 -5
-5 -8 -4 -7 -13 -10 -11 -6
-4 -8 -4 -7 -13 -10 -11 -6
-5 -9 -4 -7 -13 -11 -11 -6
-4 -9 -5 -7 -12 -11 -10 -6
-3 -8 -6 -8 -13 -12 -11 -8
-4 -8 -5 -8 -12 -11 -10 -7
-6 -8 -5 -8 -12 -11 -12 -7
-8 -9 -3 -6 -11 -10 -10 -6
-9 -10 0 -4 -9 -8 -8 -4
-11 -8 1 -3 -9 -7 -7 -3
-9 -6 -2 -4 -9 -8 -9 -4
-7 -7 -4 -7 -11 -11 -11 -6
-7 -9 -5 -8 -11 -12 -12 -6
-5 -9 -6 -9 -13 -13 -13 -6
-5 -8 -5 -9 -13 -12 -12 -5
-8 -8 -4 -8 -11 -11 -10 -4
-10 -8 -2 -7 -11 -9 -9 -3
-9 -8 -3 -7 -12 -10 -10 -4
-9 -8 -3 -6 -11 -10 -9 -4
-11 -8 -2 -5 -10 -8 -8 -3
-11 -8 -2 -5 -9 -8 -7 -3
-8 -7 -3 -6 -9 -9 -7 -3
-6 -7 -4 -7 -10 -9 -8 -4
-6 -7 -5 -7 -11 -9 -8 -4
-6 -7 -5 -8 -11 -9 -8 -3
-7 -8 -5 -8 -11 -8 -7 -3
-7 -8 -5 -8 -11 -9 -8 -4
-6 -6 -5 -9 -11 -9 -8 -3
-6 -4 -6 -9 -12 -10 -8 -2
-6 -6 -5 -9 -11 -9 -8 -3
-4 -8 -5 -9 -12 -10 -10 -5
-2 -8 -7 -11 -14 -12 -11 -6
-3 -7 -8 -11 -14 -13 -11 -6
-5 -7 -7 -11 -14 -12 -11 -6
-4 -6 -9 -13 -16 -14 -12 -6
-4 -6 -8 -13 -15 -13 -12 -6
-6 -6 -7 -12 -15 -11 -10 -5
-6 -6 -8 -12 -16 -13 -10 -6
-4 -7 -9 -13 -16 -14 -12 -6
-5 -7 -8 -13 -14 -12 -11 -5
-6 -8 -8 -14 -15 -12 -12 -5
-5 -8 -8 -14 -16 -12 -12 -5
-4 -8 -8 -14 -17 -12 -11 -5
-5 -7 -9 -14 -18 -13 -11 -6
-7 -8 -8 -14 -18 -13 -10 -6
-9 -8 -9 -15 -18 -14 -11 -7
-8 -8 -9 -15 -17 -14 -12 -6
-7 -8 -8 -15 -17 -14 -11 -6
-7 -8 -9 -15 -17 -15 -11 -6
-9 -7 -9 -16 -18 -15 -12 -7
-10 -7 -9 -16 -19 -16 -12 -7
-9 -7 -9 -17 -20 -17 -12 -7
-7 -8 -10 -18 -21 -17 -13 -7
-8 -9 -10 -19 -22 -18 -14 -8
-8 -9 -11 -20 -24 -18 -14 -9
-7 -9 -12 -20 -24 -18 -14 -9
-8 -9 -11 -19 -24 -19 -14 -9
-10 -10 -10 -18 -23 -18 -14 -8
-6 -11 -11 -19 -24 -19 -15 -9
-2 -10 -12 -19 -25 -20 -16 -9
-4 -10 -12 -19 -25 -21 -16 -8
-9 -10 -10 -18 -24 -20 -14 -7
-11 -11 -10 -18 -24 -19 -14 -6
-11 -11 -10 -19 -25 -20 -15 -7
-11 -11 -11 -20 -25 -20 -15 -8
-10 -11 -11 -21 -26 -20 -15 -9
-9 -10 -12 -22 -26 -21 -16 -10
-8 -10 -12 -22 -26 -21 -16 -9
-7 -9 -13 -22 -26 -21 -16 -10
-6 -10 -12 -22 -26 -22 -16 -10
-6 -10 -12 -22 -27 -22 -17 -10
-8 -11 -12 -22 -27 -22 -16 -9
-10 -12 -12 -22 -27 -22 -16 -8
-9 -12 -11 -22 -26 -21 -15 -8
-8 -12 -12 -23 -27 -22 -16 -9
-9 -12 -12 -23 -27 -22 -16 -9
-10 -12 -13 -25 -29 -23 -18 -10
-10 -11 -12 -23 -28 -23 -17 -8
-10 -10 -13 -22 -27 -22 -16 -8
-9 -10 -13 -22 -27 -23 -17 -9
-9 -11 -14 -23 -28 -26 -18 -11
-8 -11 -14 -24 -29 -26 -19 -12
-8 -11 -15 -25 -30 -27 -19 -12
-9 -12 -14 -24 -30 -26 -19 -11
-11 -12 -13 -25 -31 -25 -19 -11
-11 -11 -13 -24 -29 -25 -18 -10
-8 -10 -15 -24 -29 -26 -19 -11
-8 -11 -15 -25 -30 -26 -19 -12
-8 -12 -16 -26 -30 -26 -19 -13
-7 -11 -16 -26 -29 -25 -19 -13
-6 -10 -16 -26 -30 -26 -20 -13
-8 -10 -15 -26 -30 -25 -19 -11
-9 -10 -15 -26 -31 -26 -19 -11
-9 -10 -16 -27 -31 -26 -19 -11
-8 -10 -16 -27 -31 -26 -19 -12
-7 -11 -16 -27 -31 -26 -19 -12
-6 -11 -17 -28 -32 -27 -20 -13
-7 -12 -16 -27 -31 -26 -18 -12
-8 -12 -16 -26 -31 -25 -17 -12
