I II V1 V2 V3 V4 V5 V6
2 -4 1 -24 -7 -23 -22 -7
3 -3 -2 -26 -9 -25 -24 -9
3 -3 -4 -26 -8 -25 -24 -9
3 -4 -3 -25 -6 -24 -23 -8
4 -4 -4 -27 -8 -24 -23 -9
5 -4 -4 -28 -9 -24 -23 -9
8 -4 -5 -29 -11 -24 -23 -9
11 -3 -6 -30 -11 -25 -23 -10
13 -4 -7 -30 -12 -26 -24 -11
13 -4 -7 -30 -13 -26 -24 -11
13 -5 -7 -29 -12 -25 -24 -11
10 -5 -6 -29 -11 -25 -23 -11
3 -5 -4 -27 -10 -24 -22 -9
-2 -5 -3 -27 -10 -23 -21 -8
0 -5 -4 -28 -11 -23 -20 -8
3 -5 -6 -28 -11 -23 -21 -8
3 -5 -6 -28 -12 -23 -20 -8
3 -5 -7 -29 -13 -24 -21 -8
3 -6 -7 -30 -13 -25 -22 -9
3 -6 -6 -30 -14 -25 -22 -10
4 -6 -6 -30 -15 -26 -23 -11
4 -6 -6 -30 -16 -27 -23 -12
5 -6 -6 -30 -15 -26 -23 -12
5 -6 -6 -30 -15 -26 -22 -12
4 -6 -7 -31 -15 -25 -22 -12
2 -6 -6 -30 -14 -24 -21 -11
2 -6 -5 -29 -15 -23 -21 -11
2 -5 -5 -29 -16 -24 -21 -11
2 -4 -4 -28 -15 -24 -21 -10
1 -3 -3 -27 -15 -24 -20 -10
2 -3 -2 -27 -14 -23 -20 -10
4 -2 -3 -28 -15 -24 -20 -10
4 -2 -3 -28 -14 -23 -19 -10
5 -2 -4 -28 -15 -24 -20 -11
6 0 -3 -28 -14 -23 -19 -11
7 2 -2 -28 -14 -23 -18 -10
5 4 1 -27 -14 -21 -16 -8
3 5 1 -26 -12 -19 -14 -6
4 5 0 -25 -11 -18 -13 -6
5 6 -2 -25 -12 -18 -14 -6
5 6 0 -25 -12 -19 -14 -7
5 7 0 -25 -12 -19 -15 -7
4 7 0 -25 -12 -19 -15 -7
4 7 0 -25 -11 -19 -14 -7
5 8 -2 -25 -11 -19 -14 -8
7 10 -4 -26 -13 -19 -14 -8
7 11 -4 -26 -13 -18 -13 -6
7 12 -6 -26 -13 -17 -13 -6
10 12 -8 -26 -12 -16 -12 -5
13 13 -11 -26 -12 -15 -11 -3
16 14 -14 -26 -12 -14 -10 -2
18 16 -18 -28 -14 -15 -10 -2
20 17 -18 -29 -15 -15 -10 -3
19 17 -16 -28 -14 -13 -8 0
14 16 -15 -26 -12 -11 -6 2
9 14 -14 -25 -11 -11 -5 3
8 13 -13 -25 -12 -11 -5 2
9 11 -14 -26 -14 -13 -7 0
13 11 -16 -29 -17 -15 -10 -3
16 10 -19 -31 -19 -17 -11 -5
19 10 -19 -33 -22 -18 -13 -6
18 9 -18 -33 -22 -19 -13 -6
14 7 -16 -32 -21 -18 -12 -4
10 5 -14 -29 -19 -17 -11 -4
6 4 -14 -28 -18 -17 -10 -4
2 4 -13 -27 -17 -15 -9 -3
2 4 -12 -27 -17 -13 -8 0
3 4 -12 -28 -19 -14 -9 -2
4 2 -12 -28 -20 -16 -10 -4
4 0 -13 -30 -23 -20 -14 -7
3 -4 -12 -30 -24 -22 -16 -9
1 -7 -12 -31 -26 -24 -18 -12
-2 -9 -12 -31 -26 -26 -20 -13
-2 -11 -14 -34 -29 -28 -22 -16
-2 -12 -14 -35 -30 -28 -22 -16
0 -13 -14 -36 -31 -28 -23 -16
0 -14 -14 -36 -31 -29 -23 -17
-2 -15 -13 -35 -31 -28 -22 -17
-6 -15 -12 -35 -31 -28 -22 -16
-8 -16 -12 -34 -32 -28 -22 -15
-8 -17 -12 -34 -31 -28 -22 -15
-7 -16 -12 -34 -31 -27 -21 -15
-6 -16 -13 -36 -33 -29 -23 -17
-6 -16 -14 -37 -34 -30 -23 -17
-6 -16 -13 -37 -34 -31 -24 -18
-6 -16 -13 -37 -34 -30 -24 -18
-6 -16 -13 -37 -35 -30 -25 -18
-6 -17 -12 -36 -34 -29 -24 -17
-6 -17 -12 -36 -35 -30 -25 -17
-6 -17 -13 -36 -35 -31 -25 -18
-7 -17 -12 -35 -35 -31 -24 -19
-7 -17 -12 -35 -35 -31 -23 -18
-6 -17 -12 -36 -35 -30 -23 -18
-4 -17 -13 -37 -37 -31 -24 -19
-2 -17 -14 -38 -38 -32 -25 -20
-2 -18 -13 -38 -38 -30 -24 -19
-2 -18 -13 -38 -38 -31 -25 -20
-4 -18 -13 -37 -39 -31 -26 -20
-8 -18 -12 -36 -39 -30 -26 -19
-12 -19 -10 -34 -37 -29 -24 -17
-13 -19 -10 -34 -37 -29 -25 -17
-10 -19 -11 -35 -38 -30 -26 -19
-9 -18 -12 -35 -39 -31 -27 -20
-9 -18 -12 -35 -39 -31 -26 -19
-11 -18 -11 -34 -38 -29 -25 -18
-13 -18 -10 -33 -37 -28 -24 -17
-13 -18 -10 -33 -37 -28 -24 -17
-11 -17 -11 -34 -38 -28 -24 -17
-8 -17 -12 -34 -40 -29 -25 -17
-8 -17 -11 -34 -40 -28 -24 -17
-8 -17 -11 -33 -39 -28 -25 -18
-8 -16 -11 -34 -39 -28 -25 -17
-9 -16 -11 -34 -39 -27 -24 -17
-9 -16 -11 -33 -39 -27 -23 -17
-8 -16 -11 -33 -40 -28 -22 -18
-8 -16 -10 -32 -40 -28 -20 -18
-7 -16 -8 -32 -40 -28 -20 -18
-8 -17 -6 -30 -40 -30 -21 -19
-10 -18 -2 -27 -41 -32 -22 -20
-11 -19 4 -24 -43 -37 -25 -26
-13 -21 13 -18 -43 -44 -29 -33
-15 -23 23 -14 -48 -54 -37 -40
-18 -25 32 -9 -51 -63 -43 -45
-18 -23 37 -8 -52 -67 -44 -47
-13 -19 37 -5 -46 -62 -37 -40
-5 -15 37 11 -27 -44 -21 -26
8 -10 37 32 2 -17 3 -9
20 1 35 45 29 17 33 15
32 19 28 43 51 58 71 45
46 48 15 32 72 107 119 84
61 85 -6 21 97 168 178 130
77 122 -36 -4 115 228 238 178
93 158 -79 -44 119 282 295 225
107 197 -132 -92 113 332 346 268
118 235 -182 -127 115 385 394 308
125 259 -217 -140 125 430 431 337
126 258 -234 -137 140 465 452 348
121 241 -241 -126 156 490 457 344
111 223 -244 -120 159 495 446 328
94 203 -252 -136 129 466 410 298
72 176 -254 -164 68 400 356 256
50 141 -247 -194 -7 309 286 203
28 103 -233 -211 -83 190 199 142
4 56 -211 -216 -161 44 93 68
-18 7 -180 -214 -228 -97 -13 -8
-29 -26 -153 -207 -259 -172 -73 -55
-29 -36 -140 -194 -244 -172 -82 -67
-27 -39 -126 -175 -213 -148 -75 -66
-27 -44 -105 -150 -184 -132 -70 -66
-27 -45 -85 -123 -158 -115 -61 -62
-25 -46 -64 -98 -131 -94 -47 -53
-21 -45 -51 -78 -111 -79 -39 -49
-18 -43 -41 -63 -95 -69 -32 -45
-14 -36 -33 -50 -80 -58 -25 -37
-10 -30 -24 -36 -68 -49 -18 -31
-9 -27 -14 -25 -57 -41 -13 -27
-8 -24 -5 -15 -47 -34 -9 -23
-7 -21 2 -8 -40 -30 -6 -21
-5 -17 5 -6 -38 -30 -5 -20
-5 -15 7 -4 -35 -27 -2 -18
-5 -13 8 -3 -35 -26 0 -17
-7 -12 9 -2 -36 -24 1 -16
-9 -12 12 2 -32 -21 3 -15
-10 -12 13 3 -30 -21 4 -15
-9 -12 13 4 -28 -21 3 -15
-8 -12 14 4 -27 -23 1 -17
-8 -12 14 4 -25 -24 2 -16
-7 -12 13 3 -23 -23 2 -16
-6 -11 12 3 -20 -22 3 -15
-6 -10 13 3 -19 -22 3 -15
-6 -9 13 4 -16 -20 4 -13
-5 -9 13 4 -15 -19 5 -12
-4 -10 14 5 -13 -18 6 -12
-3 -9 15 7 -11 -18 6 -13
-4 -9 16 9 -8 -17 6 -12
-6 -9 17 11 -5 -16 6 -11
-8 -9 17 12 -2 -15 7 -11
-8 -9 16 10 0 -15 7 -12
-7 -9 14 8 0 -16 7 -12
-6 -9 15 10 3 -15 8 -10
-5 -8 15 11 5 -14 9 -10
-5 -7 16 13 7 -12 10 -10
-5 -8 17 15 9 -12 10 -9
-4 -8 18 16 11 -11 10 -8
-3 -8 18 17 13 -11 9 -8
-2 -8 17 17 14 -13 7 -10
1 -9 17 17 16 -12 8 -10
4 -9 16 16 17 -12 7 -11
8 -8 14 14 17 -13 6 -13
11 -8 14 14 20 -13 5 -13
11 -7 15 16 25 -11 7 -11
5 -6 18 21 29 -8 11 -9
-6 -6 23 27 33 -4 14 -6
-10 -5 25 31 36 -3 15 -5
-8 -5 25 32 36 -4 13 -7
-4 -5 25 32 35 -5 12 -9
-2 -6 25 33 36 -4 13 -7
-3 -6 26 35 38 -2 15 -6
-2 -5 26 35 38 -2 15 -5
2 -4 26 36 40 0 14 -5
3 -4 27 39 43 4 16 -4
3 -3 26 42 44 5 16 -5
2 -3 29 46 47 6 18 -4
0 -3 31 49 49 7 18 -3
-2 -3 33 53 52 9 19 0
0 -4 33 56 53 10 18 -2
1 -4 33 58 55 10 17 -4
2 -3 35 60 58 12 19 -3
2 -2 35 62 61 12 19 -3
4 -2 37 65 64 14 20 0
5 0 37 68 65 16 21 0
4 1 39 72 68 19 23 1
3 1 43 78 73 22 25 3
4 2 46 84 78 24 26 3
6 2 46 88 79 25 25 2
7 2 48 92 81 27 25 2
6 2 50 97 87 30 27 4
6 3 51 101 91 33 28 5
7 3 52 104 94 35 29 5
8 4 54 110 100 38 32 7
8 5 56 114 104 44 34 8
9 5 58 119 108 47 36 9
10 5 61 123 113 49 37 10
12 5 63 129 116 51 38 10
13 5 65 134 120 54 39 11
14 6 66 137 122 56 39 11
14 6 68 141 128 59 42 13
15 6 70 145 134 64 45 15
15 6 72 149 137 67 47 16
15 7 72 151 138 68 47 16
18 7 72 153 140 70 48 17
21 8 74 157 144 74 50 18
23 8 74 160 147 76 51 18
22 8 75 164 150 78 53 20
21 7 76 167 151 79 53 20
20 7 78 169 153 82 55 21
19 7 78 170 154 84 57 22
17 8 79 170 155 86 58 23
17 8 79 170 155 87 58 24
18 9 79 169 154 88 58 25
18 9 78 167 153 89 59 26
17 10 78 165 152 90 60 27
17 10 78 164 151 90 61 27
17 11 76 161 147 87 58 25
14 11 76 158 145 86 58 25
14 11 73 154 141 85 57 25
17 11 70 148 136 82 57 24
18 12 68 141 130 79 56 24
17 13 65 134 123 76 54 23
15 14 62 127 116 73 53 24
14 14 60 118 109 71 54 24
14 14 57 110 101 68 52 23
13 14 54 103 94 64 51 24
12 14 51 95 85 60 49 23
11 14 48 87 76 54 46 21
11 12 45 78 68 49 43 20
9 12 42 71 60 44 40 18
6 11 38 63 52 38 38 17
5 11 34 54 43 34 35 14
5 10 32 46 36 31 33 14
5 9 29 38 29 26 32 13
4 8 26 32 23 22 30 13
3 7 23 25 15 17 26 10
3 6 22 21 8 14 24 9
3 5 19 16 3 11 22 6
2 5 17 11 -4 5 19 4
0 5 15 7 -9 2 16 4
-3 4 14 3 -13 0 15 4
-4 3 12 -2 -16 -3 14 3
-2 2 10 -7 -21 -7 11 1
-3 1 10 -10 -24 -8 10 1
-6 0 10 -11 -27 -10 10 0
-7 -3 9 -12 -30 -12 9 0
-7 -3 9 -13 -33 -14 7 -4
-9 -3 9 -15 -34 -15 5 -5
-11 -4 9 -16 -36 -16 4 -5
-10 -4 8 -18 -38 -18 4 -6
-7 -4 5 -21 -41 -21 2 -8
-5 -5 3 -24 -45 -22 0 -10
-5 -5 3 -25 -45 -22 -2 -10
-8 -6 5 -24 -44 -21 1 -8
-11 -6 6 -24 -45 -21 1 -6
-12 -6 6 -24 -46 -21 1 -6
-13 -7 7 -21 -46 -21 2 -5
-12 -7 5 -23 -48 -23 -2 -7
-10 -8 4 -24 -48 -24 -3 -8
-8 -8 2 -26 -50 -25 -4 -10
-9 -8 3 -26 -50 -25 -3 -9
-11 -8 4 -27 -51 -25 -3 -9
-11 -8 4 -27 -52 -25 -4 -9
-10 -7 4 -26 -51 -23 -3 -9
-9 -7 3 -27 -52 -23 -3 -10
-9 -7 3 -27 -53 -24 -3 -10
-11 -7 4 -26 -54 -24 -4 -9
-13 -7 5 -25 -54 -23 -4 -8
-14 -7 5 -25 -55 -23 -4 -7
-15 -7 5 -26 -55 -23 -4 -8
-14 -7 6 -26 -55 -23 -4 -8
-14 -8 6 -27 -55 -23 -4 -8
-13 -8 6 -27 -55 -22 -3 -7
-12 -8 5 -26 -56 -22 -2 -6
-11 -8 4 -27 -58 -22 -2 -6
-11 -8 4 -27 -58 -22 -3 -6
-10 -8 4 -26 -58 -22 -3 -6
-10 -7 4 -26 -59 -22 -3 -7
-9 -7 3 -27 -61 -24 -5 -9
-9 -7 3 -27 -61 -24 -5 -10
-11 -6 5 -26 -59 -22 -3 -8
-9 -7 4 -26 -59 -23 -4 -8
-8 -7 4 -26 -58 -22 -4 -7
-9 -7 3 -26 -59 -22 -5 -7
-11 -7 4 -26 -61 -23 -4 -6
-8 -7 3 -27 -62 -24 -5 -7
-5 -7 3 -27 -63 -25 -5 -9
-5 -8 3 -26 -63 -25 -6 -9
-9 -8 5 -25 -62 -23 -4 -8
-13 -9 5 -25 -62 -23 -4 -8
-17 -9 6 -25 -61 -21 -4 -7
-16 -8 6 -25 -62 -21 -4 -8
-13 -8 5 -25 -63 -22 -4 -8
-12 -7 4 -26 -64 -23 -5 -8
-13 -6 4 -25 -64 -23 -5 -8
-14 -6 5 -24 -63 -22 -5 -7
-14 -6 5 -24 -64 -22 -5 -7
-11 -6 4 -24 -65 -23 -6 -8
-9 -6 3 -25 -67 -24 -7 -9
-9 -6 3 -24 -67 -24 -7 -9
-11 -6 4 -23 -65 -22 -6 -8
-12 -5 5 -23 -65 -22 -5 -7
-14 -5 5 -23 -65 -22 -5 -7
-16 -5 6 -23 -65 -22 -4 -6
-16 -5 6 -23 -66 -22 -4 -6
-15 -5 6 -22 -66 -21 -4 -7
-14 -5 5 -22 -67 -21 -5 -8
-14 -5 5 -22 -67 -21 -5 -9
-14 -6 6 -21 -67 -20 -4 -8
-14 -5 5 -22 -68 -21 -6 -9
-14 -5 6 -22 -69 -22 -7 -9
-14 -5 6 -22 -69 -22 -7 -9
-12 -5 5 -22 -69 -22 -7 -8
-11 -6 4 -23 -69 -22 -7 -7
-10 -6 4 -24 -70 -22 -7 -8
-9 -5 4 -23 -71 -22 -7 -8
-8 -4 4 -23 -72 -23 -8 -9
-8 -4 4 -23 -72 -24 -9 -10
-9 -4 3 -23 -73 -24 -9 -11
-12 -4 4 -23 -73 -24 -8 -10
-15 -4 5 -22 -73 -23 -7 -9
-17 -4 6 -21 -72 -21 -6 -7
-17 -4 7 -21 -71 -20 -6 -7
-15 -5 6 -21 -71 -20 -6 -7
-13 -5 5 -22 -73 -21 -6 -8
-13 -5 5 -21 -74 -21 -7 -7
-14 -4 6 -20 -74 -21 -7 -7
-14 -5 7 -20 -74 -21 -7 -8
-13 -6 6 -21 -76 -22 -8 -9
-13 -5 5 -22 -77 -22 -8 -10
-11 -5 4 -23 -78 -23 -9 -10
-9 -5 4 -23 -79 -24 -9 -9
-8 -5 3 -25 -80 -25 -11 -10
-6 -5 2 -25 -80 -24 -10 -10
-6 -5 2 -25 -80 -24 -10 -9
-8 -5 2 -25 -81 -24 -10 -8
-14 -5 5 -23 -81 -23 -8 -7
-17 -6 7 -21 -80 -22 -7 -7
-17 -6 6 -21 -81 -23 -7 -7
-15 -6 4 -23 -82 -24 -8 -8
-14 -6 4 -24 -82 -24 -8 -9
-15 -6 4 -24 -83 -24 -8 -9
-16 -6 4 -24 -83 -23 -8 -8
-17 -6 4 -24 -83 -22 -7 -7
-18 -6 3 -25 -85 -22 -8 -8
-18 -7 3 -25 -86 -22 -8 -7
-16 -7 3 -25 -86 -23 -8 -7
-14 -7 3 -26 -88 -24 -10 -8
-13 -6 2 -27 -89 -26 -11 -10
-13 -6 1 -28 -89 -26 -11 -10
-13 -6 1 -29 -90 -26 -11 -9
-13 -6 1 -29 -90 -26 -11 -10
-13 -6 1 -29 -91 -26 -11 -10
-12 -5 1 -28 -92 -26 -11 -10
-11 -5 1 -28 -93 -26 -12 -10
-11 -5 1 -28 -92 -26 -12 -9
-12 -4 2 -27 -91 -25 -11 -8
-10 -3 1 -27 -92 -25 -11 -9
-8 -3 1 -27 -93 -26 -10 -9
-8 -3 0 -27 -94 -27 -10 -10
-10 -3 0 -28 -95 -27 -11 -10
-11 -3 2 -27 -94 -25 -10 -8
-11 -2 1 -27 -95 -25 -9 -9
-11 1 2 -26 -95 -23 -7 -7
-12 2 4 -24 -94 -21 -6 -4
-13 4 5 -23 -92 -20 -6 -4
-13 5 6 -21 -90 -19 -5 -3
-13 6 6 -21 -88 -18 -5 -3
-12 6 5 -22 -90 -19 -6 -4
-11 6 5 -21 -88 -19 -5 -4
-11 6 5 -21 -86 -19 -5 -3
-12 7 5 -21 -83 -19 -5 -2
-11 7 4 -21 -82 -18 -4 0
-12 7 3 -21 -80 -17 -3 1
-12 8 4 -20 -78 -16 -2 3
-10 9 3 -20 -77 -16 -2 4
-6 8 1 -19 -76 -16 -2 3
1 8 -3 -21 -76 -17 -3 1
7 11 -8 -23 -76 -18 -3 1
12 14 -12 -25 -76 -17 -3 1
13 15 -13 -24 -73 -16 -2 2
9 14 -12 -23 -70 -15 0 5
6 12 -11 -24 -70 -16 0 5
6 11 -13 -27 -73 -20 -3 2
10 9 -16 -29 -75 -22 -6 1
15 8 -19 -31 -77 -24 -8 -2
17 8 -20 -35 -78 -26 -9 -4
17 9 -19 -35 -78 -26 -10 -4
18 9 -18 -35 -77 -27 -11 -5
18 7 -19 -35 -76 -28 -12 -6
18 4 -19 -35 -75 -29 -13 -7
18 3 -18 -35 -74 -28 -12 -6
19 2 -20 -36 -73 -29 -12 -5
18 2 -21 -37 -73 -29 -13 -6
14 1 -18 -35 -70 -28 -13 -5
11 1 -16 -34 -68 -28 -13 -5
12 0 -16 -34 -67 -28 -14 -6
13 -3 -16 -35 -67 -30 -16 -8
10 -6 -15 -36 -67 -32 -17 -9
7 -9 -15 -37 -68 -34 -19 -11
5 -11 -15 -38 -69 -36 -22 -13
5 -12 -14 -39 -70 -37 -24 -15
4 -12 -16 -41 -70 -39 -26 -17
4 -13 -16 -43 -70 -41 -26 -17
5 -14 -17 -44 -69 -41 -27 -18
5 -14 -17 -44 -70 -43 -27 -18
1 -15 -15 -41 -68 -41 -26 -17
-4 -15 -14 -40 -67 -41 -25 -16
-4 -14 -15 -40 -66 -43 -26 -17
0 -14 -16 -43 -66 -44 -28 -18
1 -14 -17 -43 -65 -45 -28 -18
-2 -15 -16 -41 -63 -44 -27 -16
0 -15 -17 -43 -63 -45 -28 -18
3 -15 -18 -44 -63 -47 -29 -20
4 -15 -18 -44 -62 -50 -29 -19
1 -16 -17 -43 -60 -50 -28 -19
-4 -17 -16 -41 -57 -47 -28 -18
-6 -17 -14 -40 -55 -45 -27 -17
-4 -17 -15 -41 -54 -44 -28 -18
-2 -16 -16 -41 -53 -43 -28 -19
-2 -15 -16 -41 -54 -41 -28 -20
-4 -15 -16 -43 -54 -40 -29 -20
-4 -15 -16 -44 -52 -39 -29 -20
-4 -15 -15 -43 -51 -37 -28 -19
-4 -16 -14 -41 -49 -34 -27 -18
-5 -17 -14 -41 -48 -33 -28 -19
-6 -17 -13 -40 -45 -31 -27 -19
-5 -17 -14 -41 -45 -31 -28 -20
-4 -18 -15 -41 -44 -30 -28 -20
-4 -17 -15 -41 -43 -29 -28 -20
-4 -17 -15 -43 -41 -28 -29 -20
-4 -17 -15 -43 -41 -27 -29 -20
-5 -17 -15 -43 -40 -27 -29 -20
-5 -17 -14 -43 -39 -25 -28 -20
-5 -17 -14 -43 -37 -23 -28 -20
-4 -16 -15 -41 -36 -21 -28 -20
-5 -16 -14 -41 -34 -20 -28 -21
-5 -16 -13 -40 -33 -18 -28 -20
-5 -16 -13 -40 -31 -17 -28 -20
-5 -16 -13 -40 -29 -16 -28 -20
-3 -15 -14 -41 -29 -15 -29 -21
0 -15 -15 -43 -29 -15 -30 -22
2 -15 -15 -41 -27 -13 -30 -22
3 -16 -14 -40 -26 -13 -30 -22
3 -17 -13 -40 -25 -13 -31 -23
1 -17 -10 -37 -22 -13 -33 -26
-6 -18 -3 -32 -19 -13 -35 -28
-12 -19 7 -27 -18 -16 -40 -32
-18 -22 18 -21 -17 -22 -46 -35
-23 -25 28 -16 -18 -28 -53 -40
-24 -25 36 -14 -19 -35 -58 -46
-19 -22 36 -15 -19 -35 -59 -45
-11 -18 35 -6 -7 -24 -49 -35
1 -14 37 17 20 1 -29 -21
15 -7 36 36 49 32 -5 -4
29 9 30 40 73 70 27 22
43 33 20 34 98 117 70 58
59 65 4 25 125 174 123 102
75 102 -20 10 153 238 184 152
89 138 -55 -21 169 302 242 202
105 176 -104 -66 169 360 297 248
125 216 -156 -109 171 414 348 292
138 246 -201 -132 181 465 391 325
143 257 -228 -133 199 506 420 345
141 247 -240 -118 224 539 434 349
130 231 -246 -106 241 559 435 342
109 213 -253 -109 230 550 417 323
84 189 -259 -134 185 505 376 290
60 158 -259 -166 115 426 312 242
39 122 -251 -193 34 319 232 184
19 79 -234 -211 -58 178 130 110
-4 30 -208 -220 -149 19 16 29
-22 -12 -179 -222 -214 -100 -72 -36
-28 -30 -159 -214 -224 -134 -106 -63
-28 -35 -145 -194 -194 -114 -103 -67
-27 -40 -126 -169 -161 -94 -98 -69
-26 -46 -104 -141 -135 -81 -93 -70
-23 -46 -83 -115 -108 -64 -81 -64
-20 -45 -66 -94 -85 -48 -71 -58
-16 -44 -54 -77 -68 -38 -65 -55
-10 -38 -47 -64 -55 -29 -59 -51
-8 -32 -37 -48 -39 -18 -51 -44
-8 -28 -26 -34 -27 -9 -45 -39
-9 -24 -14 -22 -16 -3 -40 -35
-8 -21 -6 -13 -7 3 -36 -34
-9 -18 0 -9 -2 6 -34 -32
-11 -17 3 -6 4 9 -31 -29
-10 -14 4 -4 6 11 -29 -27
-11 -13 6 -2 8 13 -28 -26
-15 -12 8 0 10 13 -27 -26
-16 -11 10 1 12 13 -27 -25
-13 -12 11 3 14 12 -27 -25
-10 -12 10 3 13 11 -27 -26
-9 -12 10 4 14 10 -27 -27
-8 -11 9 3 15 10 -28 -27
-8 -11 9 4 17 11 -27 -27
-11 -11 10 4 19 12 -26 -25
-13 -11 12 5 21 14 -24 -23
-11 -11 11 6 21 15 -23 -23
-9 -11 12 8 22 15 -22 -22
-9 -11 13 9 22 15 -22 -22
-11 -12 14 11 24 16 -21 -22
-12 -12 14 12 25 16 -22 -21
-11 -12 14 13 26 15 -21 -21
-11 -11 13 12 26 15 -21 -22
-11 -11 13 13 27 17 -20 -22
-11 -11 13 13 28 17 -20 -21
-10 -10 14 14 29 17 -19 -21
-10 -10 16 15 30 18 -18 -20
-8 -10 16 16 31 17 -19 -20
-8 -11 17 17 32 18 -18 -20
-8 -11 17 19 32 18 -19 -21
-8 -11 17 20 33 19 -19 -20
-8 -11 17 21 35 19 -18 -19
-8 -11 18 21 37 19 -18 -20
-8 -10 18 21 38 19 -19 -20
-8 -10 18 23 39 20 -18 -19
-8 -10 19 25 42 21 -16 -17
-7 -10 20 27 43 23 -15 -16
-6 -10 20 28 44 22 -15 -16
-4 -10 21 30 45 22 -14 -16
-4 -9 21 31 45 21 -16 -18
-6 -10 23 33 47 22 -15 -17
-8 -10 24 37 50 24 -14 -16
-9 -10 25 40 52 26 -13 -15
-13 -9 26 43 55 28 -11 -13
-12 -8 27 45 57 29 -10 -12
-7 -7 26 46 57 28 -11 -13
-5 -6 27 48 58 29 -11 -13
-7 -6 29 51 60 29 -11 -12
-7 -6 30 54 63 31 -10 -12
-5 -6 32 57 65 32 -9 -12
-5 -6 33 60 67 33 -8 -12
-8 -6 36 65 71 34 -6 -11
-8 -6 37 69 75 36 -5 -10
-8 -5 38 71 77 37 -5 -10
-5 -5 38 74 80 38 -5 -9
-2 -5 38 77 84 39 -4 -9
1 -5 40 81 88 42 -3 -8
2 -5 42 85 90 43 -3 -8
1 -4 44 90 94 45 -2 -7
-4 -4 48 97 99 49 2 -5
-7 -3 50 102 103 51 3 -5
-7 -3 52 106 107 53 5 -4
-4 -2 52 110 111 54 6 -4
0 0 53 114 115 55 6 -4
2 0 54 118 119 57 7 -3
3 1 56 122 123 58 7 -2
3 1 59 128 129 62 9 1
3 1 62 134 133 66 11 3
3 1 64 140 137 69 14 4
5 1 66 146 143 72 16 6
6 2 67 151 148 75 17 6
6 2 69 155 152 77 18 6
5 2 70 159 156 79 20 7
6 3 71 163 161 82 21 7
9 3 72 167 164 86 24 9
10 3 72 170 169 89 26 10
10 3 74 174 173 92 28 12
9 3 77 179 178 95 31 15
9 4 78 180 179 96 31 16
9 5 79 183 181 97 32 17
9 5 79 185 184 99 33 17
9 5 79 186 186 100 33 17
10 6 78 186 186 100 33 17
10 7 78 185 187 101 34 18
9 7 78 185 187 102 35 19
9 8 78 184 188 103 37 20
9 8 78 184 187 103 38 21
10 9 77 182 186 102 37 20
10 9 77 180 184 101 38 21
9 10 76 177 182 101 37 21
9 10 75 173 179 100 37 21
10 10 72 168 174 98 36 20
11 11 69 160 169 94 34 18
13 12 65 152 162 91 32 17
15 13 61 144 155 88 31 17
15 14 59 137 149 86 30 17
10 15 57 130 144 82 30 18
3 16 55 122 138 80 30 19
1 16 53 115 131 76 29 19
2 15 50 107 121 71 28 18
-2 14 47 99 113 67 26 16
-7 13 45 91 106 64 26 17
-8 12 42 82 99 60 24 17
-6 12 37 72 90 54 21 16
-6 11 35 65 82 51 19 16
-8 11 32 56 75 46 16 14
-9 9 30 50 68 42 14 12
-10 8 28 45 62 37 11 11
-11 7 25 38 56 33 8 9
-13 6 23 33 50 29 6 7
-13 4 21 28 44 24 3 5
-13 4 18 24 37 20 1 3
-14 3 17 19 32 17 -2 2
-14 2 14 13 27 13 -4 0
-15 1 13 10 24 10 -5 -2
-15 1 12 7 20 7 -7 -3
-17 0 12 5 18 6 -7 -2
-18 -2 12 4 17 5 -7 -2
-19 -2 11 2 14 3 -9 -3
-19 -3 10 0 12 1 -10 -4
-19 -4 11 -2 11 1 -11 -4
-21 -5 9 -4 9 1 -12 -5
-25 -6 9 -3 9 3 -11 -4
-27 -6 9 -5 7 3 -12 -5
-26 -6 9 -6 6 4 -13 -5
-23 -6 8 -8 4 3 -14 -6
-21 -6 7 -9 3 2 -15 -8
-20 -6 7 -9 2 2 -15 -9
-22 -7 8 -9 1 3 -15 -9
-23 -7 7 -9 0 2 -17 -10
-22 -8 7 -10 -2 2 -17 -10
-21 -8 6 -11 -3 2 -17 -10
-22 -8 5 -12 -3 1 -18 -9
-26 -8 8 -11 0 3 -16 -7
-32 -8 11 -9 2 5 -14 -5
-33 -8 10 -9 2 5 -13 -4
-30 -9 9 -10 1 5 -14 -5
-28 -9 9 -9 0 6 -14 -5
-28 -9 10 -9 0 6 -13 -5
-27 -8 8 -10 -3 5 -15 -6
-27 -8 8 -10 -4 5 -16 -6
-27 -8 8 -10 -3 5 -16 -6
-27 -8 8 -10 0 5 -17 -7
-27 -7 8 -11 0 5 -17 -8
-27 -7 7 -12 -2 4 -17 -7
-27 -7 6 -12 -2 4 -16 -7
-26 -7 5 -13 -4 3 -17 -8
-27 -7 6 -13 -4 4 -17 -7
-28 -7 7 -12 -3 4 -17 -7
-28 -7 8 -12 -3 4 -17 -7
-27 -8 8 -11 -3 4 -18 -7
-27 -8 8 -12 -4 3 -18 -7
-26 -8 7 -12 -4 3 -18 -7
-27 -8 7 -12 -3 4 -17 -6
-28 -8 7 -12 -2 4 -16 -5
-30 -8 8 -11 0 6 -14 -4
-31 -8 7 -11 0 6 -14 -4
-31 -8 7 -10 0 7 -14 -4
-31 -8 7 -9 -2 6 -15 -5
-31 -8 8 -9 -2 6 -15 -6
-31 -8 8 -10 -2 5 -16 -7
-31 -8 8 -10 -2 4 -16 -7
-31 -8 7 -10 -2 5 -16 -7
-32 -8 8 -9 0 6 -15 -5
-31 -8 6 -10 -2 4 -17 -6
-27 -8 6 -12 -4 3 -17 -7
-23 -7 4 -13 -5 1 -18 -8
-22 -7 5 -13 -4 2 -17 -8
-25 -7 6 -11 -3 3 -17 -7
-29 -8 8 -9 0 4 -16 -5
-29 -8 8 -8 0 4 -16 -5
-29 -8 9 -8 0 4 -15 -5
-30 -9 8 -8 0 4 -14 -4
-31 -9 9 -8 1 6 -13 -3
-31 -9 9 -8 1 5 -14 -3
-30 -9 8 -8 0 4 -15 -4
-31 -8 9 -8 1 5 -14 -4
-34 -8 10 -6 2 7 -13 -3
-37 -7 11 -4 3 8 -12 -2
-38 -7 12 -4 2 6 -13 -2
-40 -7 13 -3 3 7 -12 -2
-39 -7 14 -3 3 8 -12 -2
-36 -8 13 -4 2 7 -14 -4
-34 -8 12 -5 1 5 -15 -5
-34 -8 11 -6 1 3 -16 -6
-33 -8 11 -5 1 4 -15 -5
-32 -8 10 -5 1 4 -15 -4
-30 -9 9 -7 0 3 -16 -5
-29 -8 10 -6 0 3 -16 -4
-27 -7 10 -7 -2 3 -17 -5
-24 -7 9 -10 -3 2 -17 -6
-24 -7 8 -13 -3 1 -17 -6
-24 -7 7 -13 -3 2 -17 -5
-22 -6 7 -14 -3 1 -17 -6
-20 -6 5 -15 -4 0 -17 -7
-18 -6 4 -15 -4 -2 -17 -7
-17 -6 4 -14 -4 -2 -16 -7
-17 -6 5 -14 -5 -2 -17 -7
-15 -6 4 -16 -7 -3 -18 -8
-12 -6 3 -17 -8 -4 -20 -9
-8 -6 3 -18 -9 -5 -21 -10
-7 -6 1 -20 -11 -7 -22 -12
-6 -6 0 -20 -11 -8 -23 -13
-4 -6 -3 -22 -12 -10 -25 -14
-2 -6 -3 -23 -12 -9 -24 -13
-3 -5 -3 -23 -12 -8 -23 -12
-5 -6 -2 -22 -12 -7 -22 -11
-4 -6 -3 -23 -14 -8 -23 -12
0 -6 -4 -24 -15 -10 -24 -13
1 -7 -5 -24 -15 -11 -24 -13
3 -7 -5 -24 -16 -11 -24 -14
4 -8 -6 -25 -17 -12 -24 -14
7 -9 -7 -26 -18 -13 -25 -16
10 -9 -8 -28 -19 -15 -26 -17
12 -9 -9 -30 -21 -16 -27 -18
11 -9 -8 -29 -20 -16 -26 -16
6 -9 -8 -29 -20 -15 -26 -16
1 -9 -6 -27 -18 -14 -24 -14
-2 -9 -5 -25 -18 -13 -24 -14
0 -8 -5 -26 -19 -14 -25 -16
2 -8 -5 -26 -21 -15 -26 -17
2 -8 -5 -26 -21 -15 -26 -16
3 -8 -5 -26 -20 -15 -25 -14
5 -7 -6 -27 -21 -15 -25 -14
7 -8 -6 -27 -21 -15 -24 -13
8 -8 -6 -28 -22 -16 -25 -14
8 -8 -6 -28 -22 -15 -24 -14
8 -8 -4 -27 -22 -15 -23 -14
7 -8 -3 -26 -21 -14 -22 -13
7 -8 -3 -26 -20 -16 -21 -13
7 -8 -3 -25 -20 -16 -21 -13
7 -7 -3 -25 -20 -16 -22 -13
5 -6 -2 -24 -18 -14 -21 -12
4 -4 0 -24 -18 -13 -21 -12
5 -3 2 -22 -17 -12 -21 -11
7 -2 3 -22 -17 -12 -20 -11
8 1 3 -21 -16 -11 -18 -9
8 3 2 -21 -15 -10 -17 -8
10 3 1 -22 -16 -11 -17 -8
12 4 -3 -23 -17 -12 -18 -9
13 4 -3 -23 -18 -13 -19 -9
13 4 0 -22 -18 -13 -19 -9
13 3 0 -21 -18 -13 -19 -10
13 2 1 -21 -17 -12 -18 -8
11 2 0 -22 -17 -11 -17 -7
10 3 -2 -20 -16 -10 -15 -6
11 4 -2 -17 -12 -7 -11 -3
15 7 -4 -17 -12 -7 -11 -3
19 9 -5 -16 -12 -6 -11 -2
22 12 -8 -17 -12 -6 -10 -2
23 13 -11 -19 -12 -5 -9 0
20 12 -14 -22 -15 -7 -10 -3
12 10 -14 -22 -17 -8 -11 -3
8 7 -13 -23 -18 -8 -9 -2
8 6 -15 -26 -21 -10 -10 -2
11 6 -15 -27 -21 -12 -11 -3
12 6 -14 -27 -21 -12 -12 -3
13 4 -13 -27 -21 -12 -13 -3
14 2 -13 -27 -23 -14 -14 -4
14 0 -12 -27 -23 -15 -15 -5
15 -2 -12 -27 -24 -16 -16 -6
15 -3 -13 -27 -25 -17 -16 -6
15 -3 -14 -27 -25 -16 -15 -6
12 -3 -14 -27 -24 -15 -15 -5
8 -3 -13 -26 -22 -14 -13 -4
8 -4 -13 -28 -23 -16 -14 -5
7 -4 -13 -29 -25 -17 -16 -6
6 -5 -12 -28 -25 -18 -16 -8
4 -6 -11 -29 -27 -20 -18 -10
2 -8 -11 -29 -29 -22 -21 -13
0 -11 -10 -30 -30 -24 -23 -15
-4 -13 -9 -30 -31 -25 -23 -15
-5 -15 -9 -31 -31 -26 -24 -16
-5 -17 -10 -32 -32 -28 -25 -17
-3 -17 -11 -34 -33 -29 -26 -18
0 -17 -13 -36 -36 -31 -28 -20
2 -17 -14 -38 -38 -32 -29 -21
3 -17 -14 -39 -38 -33 -29 -21
4 -17 -15 -39 -39 -33 -30 -21
4 -17 -15 -39 -39 -34 -30 -21
-3 -18 -12 -37 -37 -32 -28 -19
-9 -18 -11 -36 -36 -31 -27 -19
-12 -18 -10 -35 -35 -30 -26 -18
-9 -18 -12 -36 -36 -31 -27 -19
-6 -18 -12 -37 -36 -31 -26 -19
-5 -19 -12 -37 -36 -31 -26 -18
-5 -18 -12 -37 -36 -31 -25 -18
-2 -18 -13 -37 -37 -32 -26 -19
3 -17 -14 -39 -39 -34 -29 -21
3 -17 -14 -39 -39 -34 -29 -22
0 -18 -13 -38 -39 -34 -28 -21
-4 -18 -12 -38 -38 -33 -28 -20
-7 -19 -11 -37 -37 -32 -27 -19
-10 -19 -10 -36 -36 -31 -26 -19
-10 -19 -10 -36 -36 -31 -25 -18
-8 -19 -11 -37 -37 -32 -26 -19
-8 -19 -11 -36 -38 -32 -26 -19
-8 -18 -11 -36 -38 -32 -26 -19
-9 -18 -11 -36 -39 -33 -27 -19
-10 -18 -10 -35 -38 -32 -26 -18
-10 -18 -10 -35 -41 -33 -26 -19
-8 -18 -11 -35 -45 -33 -27 -20
-7 -19 -10 -35 -45 -33 -27 -20
-7 -19 -9 -35 -45 -32 -26 -19
-7 -19 -9 -35 -46 -31 -25 -19
-8 -19 -9 -36 -46 -31 -25 -18
-7 -19 -10 -36 -47 -31 -25 -18
-7 -19 -10 -36 -47 -30 -24 -17
-6 -18 -9 -36 -47 -31 -24 -18
-7 -17 -9 -36 -48 -31 -25 -18
-8 -17 -9 -36 -49 -31 -26 -19
-7 -17 -8 -36 -49 -32 -27 -19
-5 -17 -8 -37 -50 -33 -28 -21
-3 -18 -6 -36 -50 -34 -28 -23
-2 -19 -3 -34 -50 -37 -31 -26
-2 -20 4 -30 -50 -40 -36 -29
-6 -22 12 -24 -50 -46 -43 -33
-13 -26 23 -17 -50 -54 -49 -37
-21 -29 35 -10 -49 -60 -52 -38
-21 -27 39 -9 -51 -64 -55 -40
-12 -23 39 -8 -49 -60 -50 -36
0 -19 38 8 -31 -41 -34 -23
12 -16 38 33 0 -15 -12 -7
25 -5 35 48 26 20 17 17
37 16 26 45 48 61 54 47
50 45 15 35 70 113 103 89
63 80 -2 26 95 175 162 138
77 117 -23 8 113 236 222 187
94 153 -58 -30 116 289 276 233
111 190 -107 -80 110 341 327 277
122 225 -154 -120 110 394 376 317
130 244 -187 -136 121 442 412 344
131 241 -202 -130 141 479 432 353
125 225 -206 -114 161 508 437 348
109 210 -213 -112 162 512 425 330
85 193 -222 -134 129 481 390 301
59 169 -228 -169 63 414 334 258
38 136 -227 -200 -14 320 262 203
21 98 -219 -221 -96 196 171 139
0 52 -199 -229 -182 38 58 61
-20 4 -172 -229 -255 -109 -51 -18
-31 -27 -148 -221 -286 -183 -110 -65
-30 -37 -135 -206 -270 -179 -115 -74
-27 -40 -123 -189 -239 -154 -106 -72
-26 -46 -106 -168 -213 -141 -102 -72
-27 -47 -86 -142 -186 -123 -92 -66
-25 -48 -67 -116 -158 -102 -79 -58
-19 -48 -53 -98 -139 -90 -72 -54
-14 -47 -43 -85 -123 -81 -67 -51
-11 -41 -36 -69 -110 -70 -58 -44
-11 -36 -26 -54 -96 -58 -49 -36
-10 -32 -15 -40 -82 -50 -43 -31
-8 -29 -7 -30 -70 -41 -36 -26
-5 -26 -2 -23 -63 -35 -32 -23
-2 -22 2 -21 -58 -33 -31 -21
0 -19 5 -19 -55 -31 -29 -20
0 -17 6 -17 -53 -30 -27 -18
1 -16 7 -16 -52 -28 -26 -17
2 -15 9 -14 -50 -27 -25 -16
2 -15 11 -12 -49 -26 -26 -16
2 -16 12 -10 -49 -27 -27 -17
0 -17 13 -9 -47 -27 -27 -18
-4 -17 13 -8 -46 -24 -24 -16
-8 -17 14 -7 -43 -21 -21 -13
-9 -15 14 -7 -41 -20 -20 -11
-7 -14 13 -8 -40 -19 -19 -11
-4 -12 13 -10 -41 -19 -19 -11
-4 -12 14 -8 -39 -17 -17 -9
-4 -12 15 -7 -39 -17 -17 -9
-4 -13 16 -4 -38 -16 -17 -9
-4 -14 16 -3 -38 -17 -19 -10
-3 -13 16 -3 -38 -19 -21 -12
-3 -13 16 -3 -38 -19 -21 -13
-2 -12 16 -3 -37 -18 -21 -13
1 -12 15 -5 -38 -18 -21 -13
3 -11 14 -7 -38 -19 -20 -13
5 -11 13 -8 -37 -18 -19 -12
6 -10 14 -6 -36 -17 -18 -11
5 -10 14 -4 -35 -16 -18 -11
1 -10 16 0 -33 -14 -17 -10
-5 -10 19 4 -31 -12 -15 -8
-8 -11 20 7 -29 -12 -14 -7
-6 -11 21 8 -28 -11 -14 -6
-2 -11 19 6 -29 -11 -15 -8
3 -11 19 5 -29 -11 -14 -8
5 -11 18 5 -28 -10 -13 -7
5 -10 18 5 -26 -9 -12 -6
4 -10 18 6 -25 -8 -11 -5
2 -10 21 9 -23 -6 -10 -4
0 -10 23 13 -21 -5 -9 -4
1 -11 24 16 -21 -5 -10 -5
1 -11 24 18 -21 -6 -11 -6
1 -11 25 19 -20 -5 -10 -5
1 -11 25 20 -18 -2 -9 -4
3 -10 25 21 -16 1 -9 -4
6 -9 24 20 -15 1 -9 -4
7 -8 25 22 -13 3 -9 -3
7 -8 26 24 -12 4 -8 -3
7 -8 27 28 -10 5 -9 -3
3 -8 29 32 -7 6 -8 -2
0 -8 32 35 -4 8 -7 -2
2 -7 32 37 -2 8 -8 -3
8 -6 32 39 0 8 -9 -4
10 -6 32 42 2 10 -8 -3
11 -6 32 44 4 12 -6 0
11 -5 32 46 7 14 -4 1
10 -4 33 49 12 17 -2 3
7 -4 36 54 16 20 2 5
6 -4 39 60 19 23 4 7
9 -5 42 64 21 24 4 6
11 -6 44 68 24 25 4 7
11 -6 46 73 28 27 4 7
13 -7 46 76 32 29 4 6
14 -7 48 80 36 32 6 7
14 -6 49 85 40 36 9 9
14 -5 50 87 46 39 11 11
15 -5 52 91 52 44 15 14
16 -4 53 95 56 47 18 15
17 -4 55 100 62 51 20 17
19 -4 56 104 65 53 21 17
19 -3 58 109 70 55 21 17
20 -3 60 114 74 58 22 18
21 -3 61 117 78 61 23 17
24 -2 61 119 81 63 25 16
27 -2 62 121 84 65 26 16
29 0 62 123 87 67 27 16
30 2 63 126 90 71 29 18
27 3 66 130 95 77 33 22
22 3 68 135 99 80 36 25
21 3 71 139 103 84 38 27
25 3 69 140 102 85 37 25
28 3 69 141 103 85 37 25
26 3 70 142 105 86 39 26
23 4 71 143 107 88 42 27
23 4 71 142 108 90 42 27
26 5 69 139 106 90 40 26
27 6 68 138 106 91 43 28
25 6 68 137 104 91 44 29
23 6 68 136 103 92 45 31
23 6 68 135 101 92 45 31
24 6 68 133 97 91 44 30
24 6 66 129 93 88 43 29
24 5 65 122 88 86 42 28
24 7 61 114 81 82 40 27
25 8 59 107 75 80 39 27
26 9 55 99 68 76 37 26
25 10 53 92 61 72 35 25
23 11 51 84 53 67 33 24
21 11 49 76 45 64 32 24
18 10 47 70 37 60 30 22
14 10 45 64 30 56 28 22
12 9 42 56 22 51 26 21
11 8 38 47 13 45 23 19
10 7 35 38 6 40 21 18
9 7 32 29 -3 36 18 15
9 7 29 21 -11 32 15 13
11 7 26 14 -18 27 13 12
12 6 23 8 -25 22 11 10
9 6 22 4 -31 18 8 9
6 5 21 0 -37 14 6 8
5 3 20 -5 -43 10 4 6
5 2 17 -11 -49 5 0 3
5 0 16 -15 -53 2 -3 2
3 0 15 -20 -57 -2 -4 2
1 0 12 -25 -62 -5 -6 0
1 -2 11 -28 -65 -7 -6 0
0 -3 10 -31 -69 -9 -8 -2
-2 -4 10 -33 -71 -10 -8 -2
0 -5 10 -35 -74 -12 -10 -3
2 -7 9 -36 -77 -14 -12 -5
4 -8 8 -38 -80 -17 -14 -8
1 -9 7 -39 -82 -19 -16 -9
-4 -10 8 -39 -82 -18 -16 -7
-8 -10 8 -39 -82 -16 -14 -7
-8 -9 8 -40 -83 -16 -14 -7
-7 -9 7 -44 -86 -18 -15 -9
-6 -9 7 -45 -88 -20 -16 -9
-6 -9 6 -46 -89 -21 -17 -9
-7 -9 6 -47 -90 -22 -19 -9
-6 -10 5 -46 -91 -23 -20 -10
-4 -10 5 -46 -92 -24 -20 -11
-4 -10 6 -46 -93 -25 -22 -12
-5 -9 6 -47 -94 -27 -23 -13
-7 -9 4 -48 -94 -25 -21 -12
-8 -9 5 -49 -93 -23 -19 -10
-10 -10 6 -49 -93 -21 -17 -8
-8 -10 4 -50 -94 -22 -17 -8
-7 -10 4 -49 -94 -22 -17 -9
-7 -11 5 -48 -94 -22 -17 -9
-7 -11 6 -48 -94 -23 -18 -10
-8 -11 6 -48 -96 -24 -19 -11
-8 -11 5 -48 -97 -25 -20 -12
-7 -11 5 -49 -97 -25 -21 -13
-5 -11 4 -50 -98 -27 -22 -14
-3 -11 4 -51 -98 -26 -21 -13
0 -10 3 -52 -99 -26 -21 -13
-2 -10 2 -53 -99 -26 -21 -12
-5 -10 3 -52 -98 -25 -19 -10
-7 -10 4 -50 -98 -24 -18 -9
-7 -10 5 -49 -97 -24 -18 -10
-5 -10 4 -49 -98 -25 -19 -12
-4 -11 4 -49 -99 -25 -20 -13
-6 -12 4 -49 -99 -25 -20 -14
-9 -12 5 -49 -98 -25 -20 -13
-11 -12 5 -48 -97 -24 -19 -12
-9 -12 4 -49 -99 -24 -21 -14
-7 -11 4 -49 -100 -25 -22 -15
-4 -10 3 -48 -101 -25 -22 -15
-3 -10 2 -49 -101 -26 -22 -15
-6 -10 3 -48 -100 -25 -21 -14
-10 -10 5 -46 -99 -23 -19 -12
-12 -11 7 -44 -98 -23 -19 -12
-10 -12 6 -46 -98 -23 -19 -13
-7 -11 4 -47 -99 -24 -19 -13
-6 -11 4 -47 -99 -24 -19 -12
-8 -10 3 -47 -99 -25 -19 -12
-8 -10 3 -47 -99 -24 -19 -12
-7 -10 3 -47 -99 -24 -18 -12
-5 -10 4 -47 -99 -24 -19 -13
-6 -10 5 -46 -99 -24 -19 -13
-8 -10 6 -45 -99 -24 -19 -12
-8 -10 5 -45 -99 -24 -19 -13
-9 -11 5 -44 -99 -24 -19 -12
-10 -11 5 -45 -99 -24 -19 -13
-11 -11 5 -46 -100 -24 -19 -13
-10 -10 5 -47 -100 -23 -18 -12
-9 -8 4 -48 -100 -24 -19 -12
-8 -7 4 -47 -101 -24 -19 -13
-8 -7 4 -47 -101 -25 -19 -13
-7 -8 4 -47 -102 -25 -20 -14
-4 -9 3 -47 -103 -26 -21 -15
0 -10 3 -46 -103 -26 -21 -15
2 -10 1 -47 -103 -26 -21 -16
1 -9 1 -48 -103 -26 -21 -16
-5 -9 2 -47 -101 -24 -19 -14
-9 -9 3 -46 -100 -23 -18 -12
-12 -9 4 -44 -99 -20 -15 -10
-11 -8 4 -44 -101 -20 -15 -10
-9 -8 4 -43 -101 -20 -15 -10
-9 -7 3 -44 -102 -21 -17 -13
-8 -7 3 -43 -102 -21 -17 -14
-8 -6 3 -43 -102 -22 -18 -14
-8 -5 2 -45 -103 -24 -19 -15
-7 -7 3 -45 -103 -23 -19 -13
-4 -8 2 -46 -104 -24 -19 -12
-2 -8 0 -49 -106 -24 -19 -11
-2 -9 1 -49 -104 -23 -17 -9
-4 -9 1 -48 -104 -22 -16 -8
-6 -8 2 -47 -103 -21 -15 -7
-7 -8 2 -47 -104 -20 -15 -8
-8 -8 2 -46 -104 -20 -15 -9
-8 -8 2 -46 -104 -21 -15 -10
-6 -8 1 -47 -104 -22 -17 -11
-4 -7 0 -49 -107 -24 -20 -13
-3 -6 -2 -51 -109 -27 -23 -15
-4 -6 -2 -52 -110 -27 -23 -16
-4 -6 -2 -52 -110 -26 -22 -15
-5 -6 0 -51 -108 -24 -19 -12
-6 -7 1 -50 -108 -23 -18 -11
-7 -8 2 -48 -107 -21 -16 -9
-7 -8 2 -47 -107 -21 -15 -8
-7 -9 2 -48 -107 -21 -15 -7
-5 -10 1 -50 -107 -22 -16 -9
-3 -10 -2 -52 -109 -25 -18 -12
0 -9 -3 -55 -111 -26 -21 -13
-3 -7 -3 -55 -112 -26 -21 -14
-6 -6 0 -54 -110 -24 -19 -13
-6 -5 0 -54 -110 -23 -18 -12
-3 -4 -2 -54 -112 -25 -20 -13
0 -4 -2 -53 -113 -25 -20 -13
1 -5 0 -52 -113 -26 -20 -13
1 -5 0 -52 -113 -26 -19 -12
1 -6 0 -53 -114 -26 -19 -11
0 -7 0 -53 -113 -25 -18 -9
-3 -7 -2 -54 -114 -25 -17 -9
-5 -6 1 -53 -115 -23 -16 -8
-6 -6 2 -53 -115 -23 -16 -8
-4 -5 1 -53 -114 -23 -16 -8
-2 -5 2 -53 -113 -23 -16 -8
0 -4 3 -51 -111 -22 -16 -8
0 -2 4 -52 -109 -23 -17 -9
2 1 4 -52 -108 -23 -18 -10
3 3 4 -51 -106 -22 -18 -11
0 5 5 -50 -103 -21 -17 -9
-4 5 6 -49 -100 -19 -15 -7
-5 5 5 -50 -99 -20 -15 -6
-2 5 4 -50 -98 -20 -15 -7
1 4 4 -50 -96 -19 -14 -5
0 4 4 -49 -95 -18 -13 -4
-2 3 5 -48 -92 -16 -11 0
1 5 3 -48 -91 -17 -11 0
3 7 1 -49 -90 -18 -12 0
5 9 1 -48 -87 -16 -10 0
7 11 0 -47 -82 -12 -8 2
9 14 -3 -48 -80 -11 -7 4
10 16 -7 -49 -78 -10 -6 6
11 15 -10 -52 -79 -10 -5 6
11 14 -12 -54 -82 -13 -8 4
12 12 -13 -56 -83 -16 -10 1
11 11 -14 -59 -87 -20 -12 -3
8 9 -14 -58 -86 -21 -13 -3
6 8 -12 -58 -83 -21 -14 -3
7 8 -11 -58 -81 -20 -14 -3
6 7 -11 -57 -79 -19 -14 -4
4 5 -9 -56 -76 -17 -12 -2
4 3 -9 -56 -75 -18 -12 -2
7 2 -10 -57 -74 -18 -12 0
9 1 -11 -58 -74 -19 -12 0
11 0 -12 -58 -73 -19 -12 0
11 -3 -12 -57 -71 -19 -11 0
9 -4 -11 -57 -70 -19 -12 -2
5 -4 -9 -57 -68 -19 -14 -3
1 -3 -7 -57 -67 -20 -15 -5
-3 -2 -7 -59 -66 -21 -16 -6
-4 -4 -8 -65 -67 -23 -18 -7
-4 -7 -10 -67 -68 -25 -20 -9
-3 -8 -10 -68 -69 -28 -24 -13
-3 -8 -10 -68 -69 -30 -27 -15
2 -9 -11 -68 -72 -34 -30 -18
5 -10 -12 -68 -72 -36 -31 -19
4 -13 -11 -66 -70 -36 -30 -18
-5 -15 -8 -61 -65 -32 -26 -14
-12 -17 -7 -59 -63 -30 -25 -13
-13 -18 -8 -58 -61 -29 -25 -12
-10 -17 -11 -59 -62 -32 -27 -15
-8 -16 -11 -58 -60 -31 -27 -15
-8 -15 -11 -56 -59 -31 -27 -15
-8 -14 -11 -56 -59 -33 -29 -17
-7 -14 -11 -55 -58 -34 -29 -17
-5 -14 -12 -53 -57 -35 -30 -18
-5 -14 -11 -50 -55 -34 -29 -18
-5 -15 -10 -48 -52 -34 -29 -17
-5 -16 -10 -48 -52 -35 -30 -17
-6 -17 -10 -46 -51 -34 -29 -17
-7 -17 -11 -45 -50 -35 -30 -18
-8 -17 -11 -44 -48 -34 -30 -18
-8 -17 -11 -43 -46 -34 -30 -18
-7 -16 -11 -41 -44 -33 -29 -17
-6 -15 -11 -39 -43 -33 -29 -17
-7 -15 -10 -38 -40 -32 -28 -16
-10 -16 -9 -35 -39 -32 -28 -15
-13 -17 -8 -33 -37 -32 -28 -16
-13 -17 -8 -32 -37 -33 -29 -18
-12 -17 -8 -31 -36 -34 -29 -18
-11 -17 -9 -30 -35 -34 -30 -18
-10 -17 -10 -30 -35 -35 -31 -19
-9 -17 -10 -28 -34 -34 -31 -19
-7 -15 -10 -27 -33 -34 -31 -20
-5 -13 -9 -26 -31 -35 -31 -21
-5 -13 -9 -24 -29 -35 -31 -21
-8 -13 -7 -21 -26 -34 -29 -20
-9 -12 -7 -19 -25 -33 -29 -19
-10 -12 -7 -18 -24 -33 -29 -19
-10 -12 -8 -17 -22 -33 -29 -19
-8 -13 -9 -16 -20 -32 -29 -20
-6 -12 -9 -15 -19 -32 -29 -20
-5 -12 -9 -13 -17 -30 -28 -20
-5 -12 -8 -12 -16 -32 -29 -20
-6 -13 -6 -10 -15 -34 -31 -21
-8 -14 -3 -5 -13 -36 -33 -22
-11 -17 5 2 -11 -38 -36 -26
-16 -20 13 8 -9 -44 -43 -32
-17 -24 22 15 -7 -50 -50 -39
-16 -26 29 20 -8 -59 -58 -47
-16 -28 37 24 -7 -67 -64 -51
-14 -25 37 25 -3 -68 -64 -49
-8 -18 36 34 10 -56 -54 -37
3 -12 37 56 36 -30 -32 -21
13 -5 37 80 67 7 0 3
22 9 31 89 90 46 34 29
33 32 20 86 107 90 77 62
47 65 4 77 126 142 130 104
62 101 -17 64 144 201 186 151
76 137 -47 37 151 256 240 196
91 172 -90 -7 146 303 290 239
103 207 -140 -55 138 349 338 279
110 236 -181 -85 138 395 380 312
115 245 -204 -93 146 431 404 326
114 232 -208 -81 163 463 413 325
102 212 -207 -70 173 479 407 311
80 195 -211 -76 156 464 381 285
54 177 -218 -104 103 407 332 247
32 150 -219 -139 30 322 268 198
17 116 -213 -164 -46 212 188 140
3 76 -199 -177 -117 73 87 69
-14 26 -176 -177 -181 -72 -24 -10
-25 -17 -150 -168 -218 -170 -101 -70
-26 -38 -132 -152 -214 -190 -124 -92
-25 -43 -121 -137 -188 -171 -118 -92
-26 -44 -108 -118 -161 -152 -112 -92
-25 -44 -91 -96 -136 -136 -104 -88
-23 -44 -72 -71 -109 -115 -90 -77
-25 -45 -54 -49 -83 -95 -76 -67
-27 -45 -39 -32 -64 -80 -66 -60
-21 -41 -33 -24 -51 -71 -58 -55
-15 -36 -29 -13 -37 -61 -51 -49
-14 -32 -20 4 -25 -50 -43 -44
-14 -28 -11 20 -14 -43 -38 -39
-11 -23 -3 31 -6 -35 -34 -36
-8 -18 1 35 0 -32 -32 -35
-5 -16 3 38 5 -30 -29 -33
-3 -13 3 38 6 -28 -29 -32
-2 -12 4 39 8 -25 -27 -32
-2 -11 4 39 9 -26 -27 -32
-5 -11 5 43 12 -25 -25 -31
-8 -11 7 46 14 -22 -23 -29
-10 -12 8 48 17 -20 -22 -29
-9 -12 9 47 18 -20 -23 -29
-9 -11 9 48 18 -20 -24 -30
-9 -11 9 48 19 -19 -22 -29
-8 -10 8 48 20 -19 -20 -29
-7 -10 9 49 22 -18 -18 -27
-5 -10 9 49 22 -17 -18 -27
0 -10 9 48 23 -16 -18 -27
1 -10 8 48 22 -16 -18 -27
1 -10 8 49 22 -16 -18 -28
1 -11 9 51 23 -15 -17 -28
1 -10 9 51 23 -15 -17 -29
-2 -9 10 53 25 -12 -15 -28
-3 -8 10 53 27 -11 -15 -27
-4 -7 10 53 28 -11 -15 -27
-7 -7 11 54 30 -10 -14 -26
-7 -6 10 54 29 -11 -15 -28
-6 -6 11 54 30 -10 -15 -28
-7 -6 12 56 30 -9 -14 -28
-6 -6 12 58 31 -8 -14 -28
-2 -7 12 58 31 -9 -15 -29
2 -7 11 58 31 -9 -15 -30
3 -7 11 59 32 -8 -14 -30
4 -7 10 58 32 -8 -14 -31
3 -7 11 60 34 -6 -13 -29
0 -7 12 62 36 -4 -11 -27
-2 -7 13 63 37 -3 -10 -27
1 -7 13 63 37 -3 -11 -28
3 -7 14 64 39 -2 -10 -28
1 -7 14 66 40 -2 -9 -28
-3 -6 16 69 44 2 -8 -27
-5 -6 19 72 46 4 -6 -26
-5 -5 18 72 47 4 -7 -27
-4 -5 19 73 48 5 -6 -27
-4 -4 19 74 49 5 -6 -27
0 -4 19 76 50 5 -6 -28
4 -4 18 77 51 6 -7 -29
5 -4 20 78 53 8 -6 -29
3 -4 22 82 56 10 -4 -28
3 -5 22 86 58 11 -3 -28
3 -5 24 89 60 13 -2 -28
4 -5 26 91 63 15 -2 -27
6 -4 26 93 65 16 -2 -28
6 -3 26 94 67 16 -2 -28
6 -2 27 97 69 18 0 -28
6 -2 29 99 72 19 1 -27
6 0 31 103 74 22 2 -27
5 0 33 107 78 25 4 -26
4 0 35 110 82 28 6 -25
6 -2 37 114 87 30 6 -25
8 -2 38 117 89 31 6 -26
8 -2 40 121 93 33 8 -26
8 0 43 126 97 36 10 -25
9 0 44 130 102 39 12 -24
11 0 45 133 106 42 12 -24
13 1 46 136 109 45 14 -23
15 2 47 140 112 47 16 -23
14 2 49 144 117 51 18 -21
12 2 52 150 122 56 21 -18
11 3 54 155 128 61 24 -17
10 3 57 159 132 64 26 -17
12 3 59 164 137 67 28 -17
14 4 60 168 139 70 29 -16
15 4 60 170 142 72 30 -16
16 5 61 172 146 74 31 -15
18 6 62 174 150 77 32 -14
20 6 62 176 152 81 34 -14
22 6 62 178 154 82 35 -14
21 6 64 181 157 85 37 -12
18 6 67 184 160 88 39 -11
17 6 68 187 162 90 40 -11
19 7 68 187 163 91 42 -11
20 9 67 187 164 93 44 -9
22 9 66 185 164 93 43 -9
23 10 66 184 164 94 43 -9
20 10 66 185 165 95 45 -8
16 10 67 186 167 96 48 -7
15 11 67 185 164 97 48 -7
18 11 65 182 162 96 47 -8
21 12 63 178 158 95 45 -9
22 12 61 173 154 92 44 -11
22 12 59 169 151 90 43 -12
21 13 58 163 146 88 43 -12
19 13 57 158 142 87 42 -12
16 14 56 152 137 85 42 -12
14 14 53 146 132 81 40 -13
12 14 51 140 126 77 39 -13
11 14 48 132 117 72 36 -14
14 14 44 122 109 67 33 -16
17 14 39 114 100 62 30 -19
15 14 38 108 93 58 28 -20
11 13 36 103 87 54 26 -21
8 13 34 96 79 49 23 -22
7 13 30 88 71 43 20 -25
5 12 28 80 65 38 18 -27
3 12 26 74 60 34 16 -28
2 11 23 68 53 29 14 -30
5 9 20 62 47 25 12 -32
7 8 18 56 40 20 9 -34
9 6 16 51 34 15 6 -37
9 5 13 45 28 10 2 -40
7 4 12 40 24 7 0 -43
1 3 11 37 21 6 -2 -43
-8 2 12 36 20 6 0 -40
-9 1 11 33 17 4 -2 -41
-6 0 8 29 12 1 -4 -44
-5 0 7 26 9 -2 -5 -45
-6 0 7 24 7 -4 -5 -46
-5 -2 7 22 5 -6 -7 -47
-4 -3 6 20 3 -8 -9 -50
-6 -5 8 20 3 -8 -10 -51
-8 -5 7 18 1 -11 -12 -52
-8 -5 5 17 0 -13 -13 -53
-8 -5 4 15 -3 -14 -13 -54
-8 -6 5 15 -3 -13 -13 -54
-8 -6 4 13 -4 -13 -14 -54
-7 -6 3 11 -6 -15 -15 -55
-7 -7 4 11 -6 -14 -14 -54
-6 -7 3 10 -7 -15 -15 -56
-6 -6 4 10 -7 -15 -15 -56
-6 -6 4 10 -7 -15 -15 -57
-5 -6 3 10 -8 -16 -15 -58
-4 -6 2 8 -10 -18 -17 -60
-5 -6 3 8 -9 -17 -16 -59
-7 -6 3 7 -9 -17 -15 -59
-8 -6 3 8 -7 -15 -14 -58
-8 -6 3 7 -7 -15 -13 -57
-7 -7 3 7 -8 -15 -14 -57
-6 -7 2 6 -9 -16 -15 -59
-6 -8 3 7 -9 -15 -15 -58
-7 -8 3 7 -10 -16 -15 -59
-7 -8 3 7 -10 -16 -15 -61
-8 -7 3 7 -10 -16 -15 -61
-8 -7 3 6 -10 -16 -16 -61
-8 -6 2 5 -11 -16 -16 -61
-8 -6 2 5 -11 -16 -16 -61
-8 -6 2 5 -10 -15 -16 -61
-7 -6 2 4 -11 -16 -17 -63
-3 -6 1 3 -12 -17 -18 -64
2 -5 0 1 -14 -19 -19 -66
2 -5 0 1 -14 -19 -19 -67
-2 -5 1 2 -13 -18 -18 -66
-6 -5 2 5 -11 -16 -16 -65
-9 -5 3 6 -10 -15 -15 -64
-9 -6 3 5 -11 -15 -15 -64
-7 -6 2 3 -12 -16 -15 -65
-5 -7 1 3 -12 -15 -15 -64
-6 -7 1 3 -12 -15 -16 -65
-7 -7 4 5 -11 -13 -14 -64
-6 -6 4 4 -12 -14 -15 -65
-5 -6 3 4 -12 -15 -15 -67
-4 -6 1 3 -13 -17 -17 -70
-2 -6 1 3 -12 -17 -17 -70
-3 -6 1 2 -12 -16 -17 -70
-8 -7 3 4 -10 -14 -15 -68
-12 -7 4 4 -9 -13 -14 -67
-11 -6 4 4 -8 -12 -13 -67
-9 -5 4 4 -9 -13 -15 -69
-9 -6 4 4 -9 -13 -15 -70
-10 -6 4 4 -9 -13 -14 -69
-9 -7 4 5 -9 -12 -13 -68
-8 -6 4 5 -9 -12 -13 -68
-8 -6 4 5 -9 -12 -13 -68
-7 -6 3 3 -10 -13 -14 -70
-6 -6 2 3 -10 -13 -15 -71
-6 -6 2 3 -9 -13 -15 -72
-6 -6 3 3 -10 -13 -15 -72
-6 -6 3 2 -10 -13 -15 -72
-6 -5 4 3 -9 -12 -15 -71
-7 -5 4 4 -9 -12 -15 -71
-8 -5 3 4 -10 -12 -16 -74
-8 -6 4 5 -9 -12 -14 -77
-8 -6 4 5 -7 -10 -13 -76
-7 -6 2 3 -8 -11 -14 -76
-5 -7 2 2 -9 -12 -14 -75
-3 -7 0 1 -10 -13 -15 -75
0 -6 -2 0 -11 -14 -16 -74
1 -6 0 0 -11 -13 -16 -72
0 -6 1 0 -12 -13 -15 -71
-6 -6 3 2 -10 -11 -13 -69
-8 -6 4 4 -9 -10 -13 -67
-8 -6 4 4 -9 -10 -13 -66
-8 -5 2 2 -10 -11 -14 -65
-8 -5 2 2 -10 -11 -13 -62
-7 -5 1 1 -9 -11 -13 -60
-4 -5 0 -2 -10 -11 -13 -60
-6 -5 2 0 -9 -8 -12 -57
-8 -5 2 1 -9 -8 -12 -56
-8 -5 2 0 -10 -9 -12 -55
-6 -6 2 0 -11 -10 -12 -54
-5 -6 2 0 -11 -9 -12 -52
-5 -6 2 -2 -10 -9 -12 -51
-5 -6 2 -2 -11 -10 -13 -51
-3 -6 0 -4 -12 -11 -14 -51
0 -6 -3 -6 -13 -12 -15 -51
-2 -5 -4 -6 -13 -11 -14 -50
-4 -5 -3 -6 -12 -10 -13 -47
-6 -6 0 -5 -11 -9 -12 -44
-8 -6 1 -4 -11 -9 -11 -40
-7 -6 0 -6 -12 -10 -12 -41
-4 -7 0 -6 -13 -10 -13 -40
-3 -8 0 -6 -13 -10 -13 -39
-4 -8 0 -7 -14 -11 -14 -39
-4 -8 -2 -7 -15 -12 -14 -38
0 -8 -3 -9 -16 -13 -15 -37
0 -7 -4 -10 -16 -12 -14 -36
-2 -7 -4 -11 -16 -11 -13 -35
-2 -7 -4 -11 -17 -11 -13 -34
-2 -7 -4 -11 -18 -11 -13 -33
-3 -8 -3 -10 -18 -11 -12 -30
-5 -8 -3 -10 -18 -11 -13 -29
-7 -8 -2 -9 -17 -10 -12 -28
-7 -8 -2 -10 -17 -11 -12 -27
-5 -8 -3 -12 -19 -12 -13 -27
-3 -8 -3 -13 -19 -13 -13 -25
1 -8 -4 -14 -19 -13 -14 -24
3 -7 -4 -14 -20 -13 -15 -25
4 -7 -4 -15 -22 -14 -15 -25
4 -7 -3 -14 -22 -14 -15 -23
2 -7 0 -13 -20 -12 -14 -21
-2 -7 1 -12 -19 -12 -13 -18
-4 -7 2 -12 -19 -11 -12 -17
-6 -7 1 -12 -19 -12 -13 -17
-7 -7 2 -11 -18 -11 -12 -15
-7 -6 1 -12 -17 -10 -12 -13
-5 -5 1 -12 -16 -10 -11 -10
-4 -4 3 -11 -16 -9 -10 -4
-4 -3 4 -11 -16 -8 -9 -2
-3 0 5 -12 -16 -8 -9 -2
-2 2 5 -11 -16 -8 -9 -2
0 3 4 -10 -15 -6 -8 0
2 4 2 -11 -16 -6 -8 -2
2 4 1 -12 -16 -6 -8 -2
3 4 0 -15 -17 -7 -9 -3
3 4 1 -16 -17 -8 -9 -3
3 3 2 -15 -15 -7 -7 -2
4 3 0 -16 -16 -7 -8 -3
5 3 -2 -16 -16 -6 -7 0
6 4 -4 -16 -16 -5 -6 0
8 6 -3 -13 -15 -4 -4 2
10 8 -3 -11 -13 0 0 4
11 10 -4 -10 -11 2 2 6
11 11 -8 -13 -13 1 2 6
12 11 -12 -16 -16 -2 0 5
12 10 -15 -20 -19 -4 -3 3
11 7 -15 -21 -20 -5 -4 2
9 5 -15 -24 -23 -7 -5 1
7 6 -16 -26 -24 -8 -6 0
6 7 -15 -24 -22 -7 -6 0
6 5 -13 -22 -21 -7 -5 0
6 2 -11 -20 -21 -7 -4 0
7 0 -12 -21 -22 -8 -6 -2
7 -2 -11 -21 -22 -7 -6 -2
7 -2 -12 -23 -23 -8 -7 -2
9 -3 -14 -24 -24 -10 -8 -3
11 -4 -14 -25 -25 -10 -8 -3
13 -4 -15 -26 -26 -11 -9 -4
13 -4 -15 -27 -26 -11 -9 -5
9 -4 -13 -24 -25 -11 -8 -4
6 -5 -12 -24 -26 -12 -8 -5
4 -6 -12 -26 -27 -13 -11 -7
0 -8 -11 -26 -28 -14 -13 -9
-7 -11 -9 -25 -27 -14 -14 -9
-8 -14 -10 -27 -29 -16 -16 -12
-8 -15 -10 -28 -31 -19 -17 -14
-8 -16 -11 -30 -33 -22 -19 -16
-8 -17 -11 -32 -35 -23 -20 -17
-8 -17 -11 -33 -36 -23 -21 -17
-8 -18 -12 -33 -37 -24 -21 -17
-7 -18 -13 -34 -37 -25 -21 -17
-6 -18 -14 -34 -38 -25 -21 -17
-4 -19 -13 -34 -38 -25 -21 -18
-3 -19 -14 -35 -39 -26 -22 -19
-3 -19 -15 -35 -39 -26 -22 -18
-4 -19 -14 -35 -39 -25 -22 -18
-5 -19 -14 -36 -39 -25 -22 -19
-4 -20 -13 -36 -39 -26 -23 -19
-5 -21 -13 -36 -39 -27 -23 -19
-8 -21 -12 -35 -39 -28 -23 -19
-10 -21 -12 -35 -39 -28 -22 -19
-10 -21 -12 -35 -40 -28 -23 -20
-9 -21 -13 -36 -41 -29 -24 -21
-8 -20 -12 -36 -40 -28 -23 -20
-6 -20 -13 -37 -40 -29 -24 -20
-4 -20 -13 -37 -39 -29 -24 -20
-6 -20 -12 -37 -40 -29 -24 -20
-9 -20 -10 -37 -40 -28 -23 -19
-10 -19 -10 -37 -40 -29 -23 -20
-9 -19 -11 -37 -41 -29 -24 -21
-8 -20 -11 -37 -41 -29 -24 -22
-6 -21 -12 -37 -43 -30 -24 -22
-6 -20 -12 -37 -43 -30 -24 -22
-7 -20 -12 -38 -44 -30 -25 -22
-6 -20 -12 -38 -45 -31 -25 -22
-8 -20 -10 -37 -43 -30 -24 -20
-11 -19 -10 -36 -41 -29 -23 -19
-11 -18 -10 -36 -40 -29 -22 -18
-8 -18 -11 -38 -43 -30 -24 -20
-6 -18 -11 -38 -43 -31 -24 -20
-8 -18 -11 -37 -43 -30 -24 -19
-9 -18 -11 -37 -43 -31 -24 -20
-11 -18 -9 -36 -41 -30 -23 -19
-9 -18 -10 -37 -41 -31 -24 -20
-7 -18 -9 -37 -41 -32 -25 -20
-8 -19 -8 -37 -41 -33 -26 -21
-8 -20 -5 -35 -40 -33 -26 -21
-10 -22 0 -31 -40 -35 -26 -23
-12 -23 6 -27 -39 -39 -28 -26
-14 -26 15 -21 -38 -47 -33 -32
-16 -30 25 -16 -40 -57 -40 -38
-18 -31 33 -11 -43 -66 -47 -45
-19 -29 38 -10 -45 -72 -49 -48
-16 -25 38 -8 -40 -68 -41 -41
-8 -20 38 8 -23 -53 -25 -28
5 -15 40 31 7 -23 0 -10
16 -3 36 42 34 13 31 14
26 17 27 37 53 57 70 46
36 47 14 27 72 109 119 85
51 82 -6 14 93 172 177 133
68 119 -37 -13 105 230 236 181
84 156 -81 -56 103 280 289 225
98 195 -134 -104 95 328 340 268
112 230 -183 -141 94 377 385 306
120 251 -216 -156 101 419 418 330
122 248 -232 -152 115 452 436 341
117 232 -237 -139 133 478 443 337
102 213 -239 -135 134 483 432 319
78 192 -243 -148 102 451 397 289
53 163 -243 -176 40 385 342 247
32 129 -237 -201 -33 288 269 193
13 90 -225 -218 -108 167 179 130
-8 43 -202 -223 -181 19 72 55
-21 -8 -175 -220 -239 -116 -31 -19
-27 -38 -150 -210 -262 -184 -89 -64
-29 -47 -136 -196 -245 -179 -94 -72
-30 -48 -121 -178 -215 -154 -82 -68
-29 -51 -103 -154 -188 -139 -76 -67
-27 -52 -83 -130 -161 -122 -67 -63
-26 -50 -64 -105 -134 -102 -54 -55
-24 -50 -48 -82 -111 -86 -45 -48
-19 -48 -39 -68 -97 -77 -38 -45
-15 -41 -32 -55 -82 -68 -31 -37
-15 -34 -23 -41 -70 -58 -23 -31
-16 -30 -12 -29 -57 -50 -19 -27
-14 -27 -4 -19 -46 -44 -15 -25
-12 -24 2 -14 -39 -40 -13 -23
-10 -20 3 -13 -37 -39 -11 -21
-8 -19 4 -12 -35 -38 -9 -19
-9 -17 6 -11 -32 -36 -7 -18
-10 -17 8 -9 -31 -35 -6 -18
-11 -17 10 -6 -29 -34 -5 -16
-12 -18 10 -5 -28 -35 -6 -16
-13 -18 11 -2 -26 -34 -6 -16
-14 -17 13 0 -25 -34 -7 -17
-13 -18 14 1 -24 -34 -6 -16
-12 -17 12 -3 -24 -35 -6 -17
-11 -17 11 -5 -24 -35 -6 -16
-11 -15 11 -4 -23 -34 -5 -15
-10 -14 12 -3 -21 -32 -2 -12
-9 -14 13 0 -20 -32 0 -11
-8 -14 13 1 -20 -33 -3 -12
-7 -14 13 2 -19 -33 -3 -12
-6 -14 14 3 -18 -33 -4 -13
-5 -14 13 3 -18 -35 -6 -14
-5 -13 13 3 -17 -35 -5 -15
-8 -13 14 4 -15 -33 -3 -14
-12 -12 15 5 -13 -31 0 -11
-12 -13 15 5 -12 -31 1 -9
-8 -13 14 4 -12 -31 0 -10
-7 -13 15 6 -11 -31 1 -10
-10 -13 17 9 -8 -30 2 -7
-15 -14 19 12 -6 -30 2 -5
-16 -14 19 14 -6 -30 2 -7
-13 -15 19 14 -6 -30 1 -9
-11 -15 18 13 -6 -32 0 -9
-10 -14 18 14 -4 -31 1 -8
-10 -13 18 14 -2 -30 2 -7
-11 -13 19 15 0 -28 4 -6
-11 -13 20 18 3 -26 5 -5
-10 -13 21 20 5 -26 5 -5
-8 -12 21 21 3 -27 4 -6
-7 -12 21 22 3 -28 3 -8
-7 -12 23 24 6 -28 3 -8
-8 -12 25 26 8 -28 3 -7
-8 -12 25 27 8 -28 3 -6
-6 -12 25 27 8 -28 3 -7
-4 -11 24 28 10 -28 3 -7
-4 -11 24 30 12 -27 4 -6
-7 -10 26 33 15 -24 6 -3
-9 -10 28 37 18 -22 8 -2
-10 -10 31 43 22 -20 9 1
-10 -9 31 45 23 -20 9 0
-9 -9 32 49 25 -20 8 -2
-8 -9 34 51 26 -20 8 -3
-6 -9 33 53 28 -21 7 -4
0 -9 32 53 29 -21 6 -4
4 -8 32 54 32 -19 6 -4
4 -8 33 58 35 -17 8 -2
-3 -8 37 64 40 -13 12 3
-11 -8 42 70 48 -8 16 6
-15 -8 47 77 54 -5 18 9
-12 -8 47 80 57 -5 18 7
-7 -8 47 84 58 -6 16 5
-5 -7 48 87 60 -6 15 4
-5 -6 50 91 64 -3 16 4
-4 -5 50 94 68 0 18 5
-4 -5 52 97 73 3 20 9
-4 -5 55 102 78 7 23 11
-2 -4 58 107 82 10 24 11
0 -3 59 111 87 12 26 13
-3 -3 62 118 93 16 28 15
-2 -4 64 125 97 18 29 15
1 -3 65 129 101 20 30 15
2 -2 67 133 105 22 30 14
2 -2 68 136 109 25 32 15
3 -2 70 139 112 27 34 16
4 0 70 141 115 29 35 17
5 0 72 144 119 32 38 18
7 0 72 147 123 34 39 19
8 0 74 151 127 37 42 21
10 0 74 154 130 38 42 22
10 0 76 157 132 40 44 23
9 1 77 160 135 42 45 23
8 2 78 161 136 43 45 24
7 3 77 162 137 44 46 24
9 3 77 161 138 45 47 24
7 3 77 161 139 46 48 25
4 4 78 162 141 48 51 28
4 4 78 162 141 49 53 29
7 4 77 160 140 48 53 29
9 4 75 158 137 46 50 28
11 5 74 155 134 43 49 26
12 5 74 153 131 42 48 27
9 6 73 149 129 40 49 28
6 6 71 145 126 39 49 29
3 7 69 138 120 37 48 29
3 8 66 132 114 34 48 29
3 8 64 125 109 32 48 29
2 8 61 117 102 28 47 28
-2 9 59 111 96 24 45 28
-5 9 57 104 90 21 43 28
-5 8 54 97 81 16 42 27
-5 8 50 89 72 10 37 25
-6 8 47 80 64 4 34 23
-7 8 43 71 55 -3 31 21
-6 7 38 61 46 -9 29 20
-6 7 35 52 37 -15 27 19
-7 6 32 45 31 -19 26 19
-8 5 29 37 25 -23 23 17
-8 4 27 32 18 -27 21 16
-10 3 25 27 12 -31 18 14
-11 2 23 22 6 -36 14 11
-13 1 22 17 2 -40 12 10
-14 0 20 13 -4 -45 11 9
-12 -2 17 8 -9 -49 8 7
-11 -3 14 2 -14 -53 5 6
-12 -4 12 -4 -18 -57 3 5
-14 -5 11 -7 -21 -59 2 4
-16 -5 11 -9 -24 -61 2 4
-20 -5 11 -10 -26 -63 1 3
-25 -6 12 -10 -28 -64 1 3
-26 -7 11 -12 -31 -66 -2 2
-25 -8 10 -14 -33 -68 -4 1
-25 -9 9 -14 -34 -71 -5 -2
-28 -9 9 -15 -35 -72 -6 -3
-30 -10 10 -17 -35 -72 -6 -2
-30 -10 9 -19 -36 -73 -7 -2
-28 -10 8 -21 -38 -76 -8 -3
-27 -11 7 -22 -39 -76 -8 -3
-26 -12 7 -22 -40 -77 -8 -2
-26 -12 7 -22 -40 -78 -9 -2
-27 -12 8 -22 -40 -79 -10 -3
-27 -12 7 -22 -43 -80 -11 -4
-28 -12 8 -21 -43 -81 -10 -3
-27 -12 6 -24 -45 -83 -12 -4
-25 -12 5 -26 -46 -83 -12 -4
-26 -12 4 -26 -46 -83 -11 -4
-28 -12 5 -25 -45 -82 -10 -3
-27 -13 5 -26 -44 -82 -9 -3
-26 -13 5 -26 -45 -85 -11 -4
-26 -13 6 -25 -45 -85 -11 -4
-26 -13 6 -25 -46 -86 -12 -4
-26 -13 6 -25 -47 -87 -13 -5
-26 -13 6 -25 -47 -87 -14 -5
-26 -12 5 -25 -47 -88 -15 -5
-27 -11 5 -26 -47 -88 -15 -5
-30 -11 6 -25 -46 -87 -13 -3
-32 -11 7 -24 -43 -83 -10 0
-31 -11 6 -26 -45 -86 -10 -2
-29 -10 4 -27 -48 -89 -12 -4
-27 -11 5 -26 -47 -88 -12 -4
-24 -11 5 -26 -47 -88 -12 -5
-23 -12 5 -25 -47 -89 -13 -5
-23 -12 4 -25 -49 -91 -15 -5
-27 -12 4 -25 -48 -90 -13 -4
-31 -11 5 -25 -48 -90 -12 -2
-32 -12 6 -24 -46 -89 -10 0
-28 -12 5 -24 -47 -90 -11 -2
-24 -11 3 -26 -48 -91 -12 -4
-25 -11 4 -25 -47 -91 -11 -3
-30 -11 6 -23 -45 -89 -10 -2
-36 -11 8 -20 -43 -88 -10 1
-39 -11 8 -19 -41 -88 -9 1
-36 -11 7 -20 -44 -89 -10 0
-32 -11 6 -21 -46 -91 -11 -3
-32 -11 6 -22 -46 -91 -11 -3
-33 -11 5 -21 -45 -91 -10 0
-34 -11 5 -21 -45 -92 -10 1
-34 -10 6 -21 -45 -95 -10 0
-34 -11 6 -21 -45 -96 -10 0
-36 -11 7 -20 -44 -94 -10 1
-36 -11 8 -19 -44 -92 -10 1
-35 -11 7 -19 -44 -91 -11 1
-33 -12 6 -19 -45 -92 -12 0
-32 -11 6 -19 -45 -90 -11 0
-30 -10 5 -20 -46 -90 -11 0
-29 -10 3 -21 -47 -89 -12 -3
-27 -10 3 -20 -46 -88 -11 -3
-25 -10 3 -20 -46 -87 -12 -2
-23 -10 3 -21 -47 -86 -13 -2
-21 -9 2 -21 -48 -86 -15 -4
-19 -9 3 -21 -49 -85 -16 -5
-16 -8 2 -21 -50 -85 -17 -6
-14 -9 1 -21 -51 -85 -18 -6
-13 -9 -2 -23 -53 -85 -19 -8
-15 -9 0 -23 -53 -82 -19 -8
-17 -9 -2 -23 -52 -81 -18 -8
-18 -9 0 -22 -52 -79 -17 -7
-15 -9 2 -22 -51 -77 -16 -6
-11 -9 2 -22 -52 -77 -17 -6
-9 -10 1 -23 -53 -77 -19 -8
-9 -10 1 -23 -54 -76 -20 -8
-8 -10 0 -23 -54 -75 -21 -9
-7 -9 -2 -23 -55 -76 -22 -9
-5 -9 -2 -23 -56 -74 -21 -9
-3 -8 -3 -24 -56 -73 -21 -10
-2 -9 -3 -25 -56 -71 -21 -10
1 -9 -5 -27 -58 -72 -22 -11
5 -8 -7 -29 -60 -73 -24 -13
6 -8 -7 -28 -60 -71 -24 -13
10 -8 -7 -28 -61 -71 -25 -14
14 -8 -8 -30 -63 -72 -27 -16
14 -8 -9 -30 -64 -71 -28 -16
14 -7 -9 -30 -65 -70 -29 -16
13 -7 -10 -30 -65 -70 -29 -16
13 -7 -10 -31 -66 -69 -28 -16
11 -7 -9 -31 -65 -67 -27 -16
9 -7 -8 -30 -64 -65 -26 -15
7 -8 -7 -28 -63 -62 -25 -13
5 -8 -7 -28 -63 -60 -25 -13
1 -8 -4 -27 -62 -57 -23 -11
-4 -8 -3 -26 -62 -55 -22 -10
-3 -8 -3 -26 -63 -56 -24 -11
2 -8 -5 -28 -65 -58 -26 -14
1 -8 -5 -27 -64 -55 -24 -11
0 -8 -6 -28 -64 -53 -24 -11
1 -9 -7 -29 -66 -53 -24 -11
3 -9 -8 -29 -66 -53 -25 -13
3 -8 -7 -29 -66 -52 -24 -12
5 -8 -8 -30 -68 -51 -26 -13
6 -8 -7 -31 -70 -51 -27 -13
6 -8 -8 -31 -70 -51 -28 -14
6 -8 -9 -31 -71 -51 -29 -14
8 -8 -11 -32 -73 -51 -31 -16
5 -8 -9 -31 -73 -49 -29 -15
-2 -8 -7 -30 -71 -46 -26 -12
-5 -8 -7 -29 -70 -43 -25 -11
-3 -8 -8 -30 -70 -41 -24 -11
1 -8 -8 -30 -71 -41 -25 -12
-2 -8 -7 -30 -72 -40 -26 -12
-3 -8 -5 -28 -72 -38 -25 -11
0 -8 -5 -29 -72 -37 -26 -12
2 -8 -5 -29 -71 -36 -27 -13
3 -8 -5 -29 -72 -36 -28 -13
3 -8 -5 -29 -74 -36 -28 -14
2 -8 -5 -30 -74 -35 -28 -14
-2 -8 -3 -29 -72 -32 -26 -12
-4 -8 0 -27 -71 -29 -24 -9
-2 -7 -2 -28 -71 -28 -24 -10
4 -5 -3 -30 -73 -29 -25 -11
4 -4 -3 -30 -73 -28 -26 -11
1 -3 1 -27 -73 -25 -26 -8
1 -2 2 -24 -71 -23 -25 -7
2 1 3 -23 -70 -21 -24 -7
5 2 2 -23 -71 -20 -25 -8
7 4 2 -24 -71 -18 -24 -8
7 4 2 -24 -69 -16 -22 -6
7 4 1 -25 -69 -15 -21 -5
7 4 0 -25 -69 -13 -21 -5
6 4 1 -24 -69 -12 -20 -6
6 4 2 -23 -68 -9 -20 -6
5 3 3 -21 -67 -4 -20 -4
4 3 2 -20 -67 -3 -21 -4
4 4 1 -19 -67 -3 -20 -4
7 6 0 -19 -67 -3 -19 -3
10 8 0 -18 -64 2 -16 1
12 10 -3 -18 -64 4 -14 2
13 12 -4 -18 -64 4 -13 3
13 14 -7 -20 -66 3 -11 3
13 13 -11 -23 -70 0 -9 2
14 11 -13 -26 -76 -5 -7 0
15 8 -14 -28 -80 -7 -6 -2
16 8 -16 -31 -82 -10 -8 -5
16 8 -16 -32 -82 -12 -9 -6
15 7 -15 -30 -79 -11 -9 -5
12 6 -12 -28 -74 -8 -7 -2
10 4 -11 -27 -72 -9 -6 -3
11 2 -12 -28 -72 -11 -7 -4
14 1 -12 -28 -72 -11 -7 -4
16 1 -13 -29 -72 -11 -8 -5
16 1 -13 -29 -70 -11 -8 -5
15 0 -12 -27 -67 -10 -7 -3
10 0 -11 -27 -65 -10 -7 -2
3 1 -9 -26 -64 -12 -7 -2
-2 0 -8 -25 -62 -13 -8 -3
-2 0 -8 -27 -63 -15 -10 -5
0 -3 -10 -29 -64 -17 -12 -7
-2 -5 -10 -30 -63 -18 -14 -9
-3 -8 -9 -30 -62 -18 -15 -10
-5 -10 -8 -30 -62 -20 -17 -12
-6 -11 -8 -31 -62 -22 -20 -13
-6 -11 -9 -33 -64 -25 -23 -16
-6 -12 -11 -36 -66 -29 -25 -18
-5 -14 -13 -37 -66 -29 -26 -20
-5 -15 -12 -36 -62 -29 -25 -18
-5 -15 -11 -36 -62 -29 -24 -17
-5 -15 -11 -37 -61 -29 -24 -18
-3 -15 -12 -38 -61 -30 -25 -18
-5 -16 -10 -37 -59 -29 -24 -17
-8 -16 -9 -36 -57 -28 -23 -16
-10 -16 -9 -36 -55 -29 -24 -17
-10 -16 -9 -35 -53 -30 -24 -16
-8 -16 -10 -35 -52 -31 -25 -16
-6 -16 -11 -36 -52 -32 -27 -17
-7 -16 -10 -36 -50 -31 -26 -16
-8 -16 -10 -36 -50 -31 -26 -17
-9 -16 -10 -36 -49 -31 -26 -17
-10 -16 -10 -36 -48 -31 -26 -16
-11 -15 -10 -36 -46 -31 -26 -16
-11 -16 -9 -37 -45 -31 -26 -16
-11 -16 -9 -36 -43 -32 -26 -17
-11 -15 -9 -35 -41 -33 -27 -18
-9 -15 -8 -35 -40 -33 -27 -18
-8 -15 -9 -35 -39 -33 -27 -18
-9 -16 -9 -36 -39 -33 -28 -19
-11 -15 -9 -36 -39 -34 -28 -19
-9 -15 -10 -36 -38 -34 -29 -19
-9 -15 -10 -36 -36 -34 -28 -19
-11 -15 -9 -36 -35 -33 -28 -18
-12 -14 -9 -36 -33 -34 -28 -18
-11 -15 -8 -35 -32 -34 -29 -19
-10 -16 -8 -34 -31 -33 -29 -18
-10 -15 -8 -34 -29 -32 -30 -18
-10 -15 -9 -33 -28 -33 -30 -17
-9 -15 -10 -34 -27 -33 -31 -17
-8 -15 -10 -34 -27 -33 -31 -18
-8 -15 -10 -35 -27 -33 -31 -18
-7 -15 -12 -36 -27 -34 -32 -20
-7 -16 -10 -34 -23 -32 -31 -18
-8 -16 -9 -33 -21 -31 -31 -18
-10 -17 -7 -32 -20 -33 -34 -19
-10 -17 -5 -31 -21 -36 -38 -22
-10 -17 -2 -28 -22 -40 -43 -26
-11 -20 6 -23 -20 -45 -47 -30
-16 -23 15 -18 -18 -51 -53 -35
-22 -25 27 -12 -18 -59 -59 -39
-23 -26 36 -9 -20 -67 -65 -44
-20 -23 39 -9 -20 -70 -66 -44
-13 -18 37 -3 -12 -61 -58 -35
-5 -15 39 18 14 -39 -39 -21
6 -9 40 40 44 -11 -17 -4
20 4 36 50 70 25 15 22
34 26 25 44 92 68 53 54
50 57 11 34 116 121 103 96
67 93 -12 19 142 184 161 144
85 130 -45 -9 157 245 220 192
101 167 -93 -53 159 299 274 238
117 206 -144 -97 160 353 327 283
129 240 -189 -124 169 405 373 321
132 256 -217 -129 186 449 405 345
131 250 -231 -118 209 484 422 352
125 233 -240 -105 225 506 424 346
109 216 -246 -104 223 505 409 328
85 195 -254 -124 184 465 371 297
60 165 -255 -157 118 393 314 252
39 130 -249 -188 40 294 239 196
22 90 -237 -208 -44 161 143 129
2 43 -215 -220 -135 4 30 49
-15 -3 -186 -222 -210 -130 -68 -24
-21 -26 -163 -216 -231 -184 -114 -62
-22 -33 -147 -198 -204 -168 -114 -67
-24 -38 -130 -174 -169 -144 -108 -67
-29 -45 -106 -144 -138 -130 -102 -66
-29 -46 -86 -116 -108 -112 -91 -60
-25 -45 -67 -94 -80 -94 -79 -53
-19 -44 -54 -76 -61 -81 -72 -50
-14 -40 -47 -63 -47 -72 -66 -45
-11 -35 -37 -48 -30 -61 -57 -37
-9 -29 -27 -34 -17 -53 -51 -33
-9 -26 -15 -21 -4 -45 -46 -29
-12 -23 -6 -10 9 -37 -40 -25
-14 -20 2 -3 17 -32 -37 -22
-13 -18 4 -2 21 -31 -36 -21
-11 -17 5 -2 24 -30 -35 -20
-10 -16 6 0 27 -29 -33 -19
-9 -15 7 0 28 -29 -32 -19
-9 -15 8 1 30 -29 -32 -19
-8 -14 8 3 32 -30 -33 -20
-8 -15 10 6 35 -29 -32 -19
-8 -15 10 6 37 -28 -32 -19
-9 -15 9 7 39 -27 -32 -19
-8 -14 8 7 40 -28 -33 -20
-7 -14 9 6 43 -28 -33 -20
-6 -14 9 6 45 -27 -32 -20
-7 -13 9 7 48 -25 -30 -19
-8 -13 10 8 50 -23 -28 -17
-6 -13 10 8 51 -24 -29 -18
-4 -13 11 9 53 -25 -29 -17
-3 -13 10 9 53 -25 -30 -18
-3 -13 11 10 55 -24 -30 -18
-2 -13 11 11 57 -24 -30 -18
-2 -13 11 11 59 -24 -30 -18
0 -12 10 10 61 -23 -30 -18
1 -12 10 11 63 -22 -28 -17
-2 -12 11 13 66 -19 -26 -16
-6 -13 13 14 69 -18 -25 -15
-7 -13 15 16 72 -18 -24 -15
-5 -13 14 16 72 -19 -26 -16
-4 -12 13 16 74 -18 -26 -16
-6 -12 14 19 77 -16 -25 -14
-6 -12 14 20 78 -17 -25 -14
-6 -11 14 20 79 -18 -26 -15
-5 -12 13 21 82 -16 -25 -15
-4 -12 13 22 84 -15 -24 -15
-3 -12 14 24 87 -14 -23 -14
-2 -11 14 24 88 -14 -23 -14
-2 -11 15 25 90 -13 -22 -14
-3 -11 17 28 95 -12 -21 -13
-4 -11 18 31 100 -11 -21 -13
-2 -11 17 32 101 -11 -22 -14
3 -11 17 34 101 -11 -23 -15
2 -11 17 36 102 -10 -23 -15
-3 -11 19 39 106 -7 -20 -13
-4 -11 21 40 108 -6 -19 -13
0 -10 21 42 110 -5 -17 -12
2 -10 22 44 111 -4 -17 -11
2 -9 24 48 113 -4 -17 -11
2 -8 24 50 113 -4 -18 -12
3 -8 26 53 114 -2 -17 -12
3 -9 27 56 116 1 -16 -12
4 -9 28 60 120 2 -16 -11
4 -9 29 63 122 4 -15 -11
4 -9 30 66 126 5 -14 -11
5 -9 32 69 129 7 -13 -10
8 -8 32 71 130 7 -14 -11
10 -8 35 75 134 9 -12 -10
11 -7 36 79 137 11 -11 -9
9 -7 39 85 142 15 -8 -7
4 -7 43 91 146 18 -6 -5
2 -7 45 97 150 21 -5 -4
3 -6 46 101 153 23 -4 -3
5 -6 48 105 158 26 -3 -2
7 -6 49 108 161 27 -3 -2
10 -6 50 113 165 28 0 -3
13 -5 51 117 169 31 2 -2
12 -5 53 122 174 34 4 1
11 -5 55 128 178 38 5 2
12 -4 58 133 183 43 7 3
13 -3 60 138 187 45 8 4
13 -3 62 143 192 48 10 5
13 -3 63 148 196 51 11 5
14 -2 63 151 199 52 11 5
15 0 65 154 203 55 13 6
16 0 66 158 206 58 16 7
21 0 67 161 210 62 19 9
26 0 66 161 211 62 18 8
29 1 67 163 213 63 18 8
28 1 68 168 215 66 19 9
26 1 69 171 218 68 21 11
21 1 70 173 220 69 23 12
20 2 72 175 222 71 24 13
21 2 73 177 223 73 25 14
20 2 73 176 223 74 26 14
20 2 73 174 223 75 26 16
24 3 72 172 221 75 27 16
28 4 70 168 218 74 26 15
28 4 69 167 217 74 27 15
25 5 68 164 215 75 28 16
21 5 68 162 213 74 28 16
19 6 67 158 209 73 27 16
19 6 64 153 204 70 25 15
20 6 61 147 200 68 24 14
20 7 58 140 194 65 24 14
21 7 54 131 188 62 22 14
21 8 52 123 181 60 22 14
19 8 50 115 175 59 22 15
17 9 47 107 165 55 20 15
16 9 44 98 156 51 18 14
16 7 40 91 148 47 17 12
15 7 36 81 139 42 14 10
14 7 33 73 132 36 12 9
14 6 30 64 122 31 9 8
13 5 27 57 115 28 8 7
13 4 24 49 107 24 6 6
11 4 22 42 100 21 4 5
7 4 20 35 94 18 2 5
6 3 19 30 88 14 0 4
6 1 17 24 80 10 -3 2
5 0 15 19 76 7 -4 0
3 -3 13 14 71 3 -6 -2
3 -4 11 9 65 -2 -9 -4
4 -4 8 4 59 -7 -12 -8
5 -5 5 -2 55 -9 -14 -9
3 -7 6 -4 53 -10 -14 -8
1 -7 5 -8 49 -12 -15 -9
2 -7 4 -11 45 -14 -16 -10
1 -8 3 -13 42 -15 -17 -10
-2 -9 3 -13 39 -16 -17 -10
-4 -10 3 -14 38 -17 -17 -11
-5 -10 3 -15 36 -19 -18 -11
-3 -10 2 -18 33 -21 -20 -13
1 -10 0 -20 30 -23 -22 -14
1 -11 0 -20 29 -23 -22 -14
-3 -11 0 -21 29 -22 -21 -14
-6 -11 1 -21 30 -22 -21 -13
-6 -11 0 -22 29 -22 -21 -13
-6 -12 0 -23 28 -23 -22 -14
-7 -12 1 -23 27 -24 -22 -14
-6 -12 0 -23 25 -25 -22 -15
-4 -12 -2 -24 24 -26 -23 -17
-3 -12 -2 -25 23 -27 -24 -17
-2 -11 -3 -26 22 -28 -25 -18
0 -11 -4 -27 21 -28 -25 -18
0 -11 -4 -28 21 -27 -26 -18
-4 -11 -4 -27 22 -26 -23 -16
-6 -11 -2 -26 23 -24 -21 -14
-5 -11 -2 -26 22 -25 -22 -15
-4 -11 -2 -25 21 -25 -22 -15
-4 -11 -2 -25 20 -26 -22 -16
-4 -11 -2 -26 20 -27 -22 -16
0 -11 -4 -27 19 -28 -24 -18
1 -10 -5 -29 17 -28 -25 -19
-2 -11 -5 -28 18 -27 -24 -17
-4 -11 -5 -27 19 -25 -23 -15
-3 -11 -5 -27 19 -24 -22 -15
-2 -11 -5 -27 18 -25 -23 -15
-2 -11 -5 -27 18 -25 -23 -15
-2 -11 -5 -27 18 -25 -22 -16
-2 -11 -5 -27 18 -25 -22 -16
-2 -11 -4 -27 17 -25 -23 -17
0 -11 -5 -27 15 -26 -23 -18
1 -11 -5 -27 15 -26 -23 -18
2 -11 -6 -28 14 -26 -24 -18
2 -12 -5 -27 16 -24 -22 -17
-3 -12 -4 -25 17 -22 -20 -15
-4 -11 -4 -26 17 -22 -20 -14
-4 -11 -4 -26 16 -23 -20 -14
-6 -12 -3 -25 16 -23 -19 -13
-8 -12 -2 -23 18 -21 -18 -13
-8 -11 -2 -23 17 -22 -19 -14
-6 -11 -2 -23 17 -22 -19 -14
-3 -10 -4 -25 15 -24 -20 -16
1 -11 -5 -25 15 -24 -21 -16
0 -12 -5 -26 15 -24 -21 -16
-3 -12 -4 -25 16 -23 -20 -14
-3 -11 -4 -25 16 -23 -20 -15
-3 -11 -4 -25 16 -23 -20 -15
-2 -11 -4 -26 14 -24 -22 -16
-2 -11 -4 -25 13 -24 -22 -17
-3 -11 -3 -24 14 -24 -22 -16
-3 -11 -3 -23 14 -24 -21 -16
-2 -11 -3 -24 13 -24 -22 -17
1 -10 -5 -24 12 -25 -22 -19
1 -9 -6 -24 12 -24 -22 -18
0 -9 -6 -24 14 -23 -21 -17
0 -9 -6 -24 15 -23 -21 -17
-2 -9 -4 -23 14 -23 -21 -17
-3 -10 -4 -22 13 -24 -21 -16
-4 -10 -2 -20 15 -22 -19 -14
-4 -10 -2 -19 15 -21 -19 -13
-3 -10 -3 -20 13 -22 -21 -14
-3 -10 -3 -20 14 -22 -20 -14
-3 -10 -4 -21 14 -21 -20 -13
-3 -10 -4 -22 12 -21 -19 -13
-2 -11 -5 -23 12 -21 -19 -13
2 -11 -6 -24 10 -22 -20 -14
4 -11 -6 -24 10 -23 -20 -15
3 -11 -5 -23 10 -22 -20 -15
-2 -11 -4 -21 10 -21 -20 -15
-7 -11 -2 -19 12 -20 -18 -13
-7 -11 -2 -19 11 -21 -18 -14
-4 -10 -3 -20 10 -22 -19 -14
-3 -10 -5 -22 9 -22 -20 -15
-2 -10 -5 -23 9 -22 -20 -15
1 -10 -6 -24 8 -22 -20 -15
-2 -10 -5 -23 9 -21 -18 -13
-4 -9 -5 -22 9 -21 -17 -12
-5 -9 -4 -21 9 -20 -16 -12
-4 -9 -5 -21 7 -21 -18 -13
-2 -9 -5 -22 7 -22 -18 -14
0 -10 -5 -22 7 -22 -19 -14
-2 -10 -5 -23 6 -22 -20 -14
-3 -10 -6 -24 6 -22 -20 -14
-3 -10 -6 -24 5 -22 -19 -14
-2 -9 -7 -25 5 -22 -19 -13
0 -9 -8 -26 4 -22 -19 -14
1 -9 -8 -26 4 -22 -19 -13
1 -10 -7 -26 3 -22 -19 -14
1 -10 -7 -25 2 -22 -19 -14
1 -10 -7 -25 2 -22 -19 -14
-2 -9 -7 -24 2 -21 -18 -13
-5 -9 -6 -24 3 -20 -17 -12
-5 -10 -7 -25 3 -21 -17 -12
-3 -10 -9 -27 2 -22 -18 -13
0 -10 -9 -27 1 -22 -18 -13
1 -10 -10 -29 -2 -24 -19 -14
1 -10 -10 -29 -3 -24 -19 -15
3 -11 -10 -29 -4 -25 -20 -15
4 -11 -10 -28 -5 -25 -21 -16
6 -11 -11 -29 -7 -26 -22 -17
6 -11 -12 -30 -7 -27 -22 -17
5 -10 -12 -31 -7 -26 -22 -16
1 -10 -11 -30 -6 -25 -21 -15
-6 -10 -9 -29 -4 -23 -18 -13
-8 -10 -8 -28 -3 -22 -17 -11
-6 -10 -10 -29 -4 -23 -17 -12
-3 -10 -11 -30 -5 -23 -18 -13
-3 -11 -10 -29 -5 -22 -17 -12
-4 -11 -9 -28 -5 -22 -17 -12
-2 -11 -10 -28 -7 -23 -19 -13
1 -10 -10 -29 -8 -25 -19 -14
3 -9 -11 -30 -8 -26 -20 -15
3 -9 -10 -30 -8 -25 -20 -15
1 -9 -8 -29 -7 -24 -19 -13
0 -8 -7 -29 -6 -23 -18 -12
0 -8 -6 -28 -6 -23 -17 -11
0 -7 -6 -27 -7 -23 -16 -10
1 -7 -7 -28 -8 -23 -16 -12
1 -7 -7 -27 -8 -22 -17 -12
1 -7 -6 -26 -7 -22 -17 -11
3 -6 -5 -26 -7 -22 -16 -11
6 -4 -4 -25 -6 -21 -15 -11
7 -2 -3 -25 -6 -20 -14 -11
4 1 0 -24 -4 -17 -12 -9
2 3 1 -22 -4 -16 -11 -7
5 4 0 -22 -4 -16 -10 -6
7 4 -3 -23 -5 -16 -10 -7
4 3 -2 -22 -4 -15 -8 -5
1 2 1 -19 -2 -13 -6 -3
3 1 0 -20 -3 -15 -8 -4
6 0 0 -19 -3 -15 -8 -4
7 1 -3 -20 -4 -15 -9 -5
10 2 -5 -20 -4 -15 -8 -5
13 5 -7 -20 -5 -14 -8 -5
13 8 -6 -18 -2 -11 -6 -3
11 11 -6 -16 1 -9 -4 1
11 12 -7 -15 3 -6 0 3
13 13 -11 -18 1 -7 0 3
15 12 -14 -21 -3 -10 -3 1
14 9 -16 -24 -7 -12 -6 0
13 6 -18 -27 -10 -15 -8 -2
13 5 -19 -29 -13 -17 -9 -3
12 5 -18 -29 -14 -16 -9 -3
12 5 -17 -28 -13 -15 -8 0
12 3 -15 -27 -12 -14 -7 0
11 1 -14 -26 -12 -13 -6 -2
9 -2 -13 -25 -12 -13 -6 0
9 -3 -14 -25 -13 -13 -7 -2
10 -5 -13 -25 -13 -13 -7 0
11 -5 -15 -27 -14 -15 -9 -3
11 -4 -15 -27 -14 -16 -9 -3
11 -4 -15 -28 -16 -16 -10 -4
10 -4 -16 -29 -18 -18 -11 -5
7 -4 -15 -29 -18 -18 -11 -4
7 -5 -15 -29 -19 -18 -11 -4
9 -6 -17 -31 -22 -20 -13 -7
10 -9 -16 -32 -24 -21 -15 -9
6 -11 -15 -32 -25 -22 -16 -10
1 -13 -14 -32 -26 -24 -18 -12
-5 -14 -13 -33 -27 -25 -20 -13
-9 -15 -12 -32 -27 -26 -20 -14
-11 -16 -14 -34 -29 -28 -22 -15
-8 -17 -15 -35 -30 -28 -22 -15
-4 -17 -16 -38 -32 -29 -23 -16
-2 -17 -17 -39 -34 -30 -24 -17
0 -17 -17 -39 -34 -30 -25 -17
-2 -17 -17 -39 -34 -31 -25 -18
-5 -17 -16 -38 -34 -30 -25 -17
-8 -18 -15 -37 -33 -29 -24 -16
-9 -18 -15 -37 -33 -30 -24 -16
-7 -18 -15 -37 -34 -31 -25 -17
-5 -19 -16 -37 -35 -31 -27 -17
-6 -19 -16 -37 -35 -31 -27 -18
-9 -18 -16 -37 -35 -31 -27 -17
-11 -18 -15 -36 -35 -29 -25 -16
-10 -17 -16 -37 -36 -29 -25 -16
-8 -17 -16 -37 -35 -29 -26 -16
-7 -18 -15 -37 -36 -29 -26 -16
-5 -18 -14 -36 -38 -30 -27 -17
-3 -17 -14 -38 -38 -31 -28 -18
-3 -17 -15 -38 -38 -31 -28 -18
-4 -17 -15 -38 -39 -31 -28 -18
-6 -17 -15 -37 -38 -31 -26 -18
-8 -17 -15 -38 -38 -31 -26 -17
-10 -18 -14 -37 -38 -29 -26 -15
-11 -19 -14 -37 -38 -29 -26 -16
-12 -19 -12 -35 -37 -29 -25 -16
-12 -20 -12 -35 -37 -28 -25 -16
-9 -20 -13 -36 -38 -29 -26 -17
-7 -19 -14 -37 -39 -30 -27 -18
-6 -18 -13 -36 -38 -30 -27 -17
-6 -17 -13 -36 -38 -29 -27 -17
-5 -17 -14 -37 -40 -29 -28 -19
-6 -17 -13 -36 -39 -28 -27 -18
-9 -17 -14 -36 -40 -29 -26 -17
-13 -17 -13 -35 -39 -28 -25 -16
-14 -17 -11 -34 -37 -26 -23 -15
-10 -17 -13 -35 -39 -27 -25 -17
-7 -17 -11 -34 -39 -27 -26 -20
-8 -18 -10 -33 -40 -29 -27 -22
-8 -19 -8 -32 -40 -31 -29 -22
-8 -20 -5 -29 -40 -33 -31 -22
-11 -21 3 -26 -40 -36 -35 -26
-17 -23 12 -19 -39 -40 -39 -28
-21 -25 22 -14 -40 -47 -46 -31
-20 -28 30 -11 -43 -57 -54 -36
-18 -27 35 -9 -46 -62 -59 -37
-14 -23 36 -5 -41 -58 -54 -30
-7 -19 35 10 -26 -41 -40 -18
6 -15 36 34 2 -16 -20 0
19 -6 34 51 30 18 10 24
33 14 26 50 53 58 45 55
51 42 13 39 75 105 91 94
69 77 -5 30 101 165 149 142
86 113 -28 11 121 230 209 194
99 150 -66 -28 127 286 264 246
109 189 -113 -75 128 343 319 296
119 226 -159 -110 134 399 371 340
131 247 -193 -126 146 446 408 367
136 246 -212 -120 167 484 430 379
131 232 -221 -106 189 514 438 377
114 216 -227 -99 197 524 431 365
92 199 -237 -115 171 497 400 340
66 175 -244 -148 111 436 349 299
44 142 -243 -181 34 347 279 246
24 104 -235 -202 -52 227 190 182
4 58 -219 -217 -145 71 77 103
-17 10 -190 -221 -230 -80 -32 24
-30 -21 -165 -220 -277 -169 -100 -27
-33 -33 -149 -205 -266 -171 -111 -40
-30 -39 -135 -184 -230 -146 -104 -40
-29 -46 -115 -160 -201 -132 -100 -43
-28 -49 -95 -134 -176 -116 -91 -38
-26 -48 -75 -108 -148 -96 -77 -30
-24 -48 -59 -88 -127 -80 -68 -26
-22 -47 -48 -70 -111 -70 -62 -21
-22 -41 -39 -55 -96 -60 -55 -15
-21 -35 -28 -38 -80 -49 -47 -9
-18 -31 -16 -25 -67 -40 -41 -5
-14 -28 -8 -16 -58 -36 -38 -4
-12 -25 -2 -8 -50 -30 -34 1
-10 -22 3 -5 -46 -28 -32 3
-8 -19 4 -5 -44 -27 -31 3
-8 -17 6 -3 -40 -25 -29 5
-7 -16 8 -2 -39 -23 -27 7
-6 -16 8 0 -40 -23 -28 7
-7 -16 11 4 -39 -22 -27 8
-8 -17 12 5 -39 -22 -27 7
-10 -17 12 6 -37 -23 -27 6
-14 -17 13 8 -32 -21 -26 7
-16 -16 14 8 -29 -21 -25 7
-13 -15 14 8 -27 -20 -26 7
-10 -14 13 7 -25 -19 -26 8
-9 -12 12 6 -23 -18 -25 9
-9 -12 13 8 -20 -17 -23 10
-9 -11 14 10 -18 -16 -23 10
-8 -11 14 11 -16 -16 -23 9
-9 -11 16 13 -12 -15 -22 11
-10 -12 17 14 -11 -15 -22 11
-10 -13 19 16 -7 -14 -21 12
-9 -13 17 15 -6 -14 -21 11
-8 -12 17 15 -4 -13 -19 12
-8 -11 15 13 -3 -12 -19 13
-5 -10 14 12 -2 -12 -19 13
-3 -10 14 13 1 -12 -19 13
-3 -9 15 15 3 -11 -18 13
-5 -10 17 18 7 -9 -16 14
-8 -11 19 21 10 -8 -15 14
-8 -12 21 23 13 -8 -16 13
-9 -12 21 25 15 -8 -17 13
-12 -12 22 26 18 -7 -16 14
-11 -11 22 26 20 -6 -17 13
-8 -10 20 25 22 -5 -17 13
-7 -10 20 25 25 -4 -16 15
-6 -10 20 26 26 -4 -16 14
-4 -10 21 29 29 -3 -15 14
-3 -9 22 31 32 -3 -15 14
-5 -10 24 35 35 -2 -14 14
-7 -10 25 38 38 0 -13 15
-8 -11 26 40 42 0 -13 15
-6 -11 27 42 45 1 -13 15
-4 -10 27 43 48 2 -13 15
-3 -9 26 43 53 3 -13 15
-3 -9 27 45 56 5 -11 17
-4 -9 29 47 59 7 -10 18
-3 -8 30 51 61 8 -9 18
1 -8 30 53 63 8 -9 17
0 -8 32 57 65 8 -9 17
-5 -8 34 62 67 10 -8 17
-5 -8 35 65 70 11 -8 16
-3 -8 36 68 73 12 -8 17
0 -5 35 68 74 13 -9 16
2 -4 35 70 76 15 -8 17
3 -5 36 73 80 17 -6 18
3 -5 38 77 85 21 -3 20
0 -5 42 84 90 25 1 22
-2 -6 45 90 95 27 4 24
-3 -7 47 94 98 29 5 25
-4 -6 49 99 101 31 6 25
-2 -5 50 103 104 32 6 24
5 -5 49 105 107 33 5 23
10 -5 50 107 111 35 5 23
12 -4 50 111 115 38 7 24
14 -3 52 115 119 42 9 26
15 -2 53 120 123 45 10 27
12 -2 57 128 130 49 13 28
8 -3 61 135 137 54 17 31
7 -3 64 141 142 57 18 32
10 -3 65 145 145 58 18 31
10 -2 67 150 149 60 19 31
7 0 68 154 154 64 21 32
7 1 69 157 158 69 24 34
9 3 68 160 162 72 26 36
11 4 69 162 165 75 29 37
12 4 70 165 169 77 31 38
14 4 72 170 172 80 33 40
15 4 73 172 173 81 33 40
16 3 74 174 175 82 33 40
19 2 75 176 176 84 33 40
21 3 74 176 176 85 33 39
21 4 74 176 177 86 32 39
21 5 74 176 178 88 33 40
19 6 73 175 179 89 35 40
17 7 73 175 180 92 39 44
17 8 72 173 178 92 40 45
16 8 74 173 178 93 43 47
14 7 75 172 177 93 43 48
14 7 74 169 174 92 43 47
16 7 72 164 170 89 39 45
16 8 70 160 165 88 38 44
15 9 68 154 161 87 38 44
13 9 66 148 157 85 38 44
12 10 64 140 150 82 38 44
13 12 60 130 142 79 36 44
15 12 57 122 135 76 35 44
15 12 55 115 128 72 33 44
14 12 53 108 119 67 31 43
15 12 50 100 110 63 29 40
16 12 46 90 99 56 25 37
14 12 44 82 92 52 23 36
8 11 42 74 86 49 22 36
-2 10 42 69 80 48 24 38
-7 9 40 61 73 45 23 37
-5 8 35 52 65 38 20 35
-3 7 33 46 58 34 18 34
-4 6 31 39 51 29 15 31
-6 4 29 34 45 25 11 29
-6 4 27 29 38 21 8 26
-6 3 26 23 32 16 5 23
-8 3 25 18 27 12 2 21
-9 3 22 13 22 8 -3 19
-10 2 20 10 18 6 -3 18
-10 2 18 5 14 3 -5 17
-9 1 17 1 11 0 -6 17
-8 0 16 -3 8 -2 -7 16
-7 -2 15 -5 4 -5 -8 15
-7 -3 15 -7 0 -7 -10 13
-8 -5 16 -7 -3 -8 -11 12
-9 -6 16 -8 -4 -9 -11 12
-14 -6 17 -8 -4 -8 -10 14
-17 -6 17 -9 -5 -8 -9 15
-18 -6 16 -11 -6 -8 -10 14
-17 -6 15 -13 -7 -9 -10 13
-16 -6 13 -17 -9 -11 -11 13
-16 -7 14 -16 -9 -11 -10 14
-16 -7 14 -16 -10 -13 -11 13
-16 -8 14 -16 -11 -13 -14 12
-16 -9 14 -16 -12 -14 -15 10
-17 -9 14 -16 -13 -14 -15 9
-17 -9 13 -17 -14 -15 -16 7
-15 -9 12 -18 -14 -15 -16 8
-13 -9 11 -20 -16 -16 -17 8
-10 -8 11 -22 -17 -17 -17 7
-8 -6 10 -24 -17 -17 -17 7
-9 -6 11 -24 -17 -16 -16 7
-12 -6 12 -22 -16 -15 -15 9
-16 -7 14 -19 -15 -14 -13 11
-19 -8 13 -19 -16 -14 -14 10
-20 -8 14 -18 -15 -14 -13 10
-19 -8 13 -20 -17 -15 -15 8
-19 -8 13 -21 -17 -15 -15 8
-19 -8 12 -21 -18 -16 -15 9
-17 -8 11 -22 -18 -15 -14 9
-16 -7 11 -22 -18 -14 -14 10
-18 -7 12 -23 -18 -14 -14 10
-20 -7 13 -23 -18 -15 -14 8
-20 -7 14 -22 -18 -14 -15 8
-20 -7 14 -21 -18 -14 -15 8
-21 -8 15 -20 -17 -15 -14 8
-19 -9 15 -21 -18 -16 -15 7
-17 -9 13 -22 -19 -16 -16 6
-17 -9 12 -23 -19 -15 -16 5
-18 -8 11 -24 -18 -14 -15 5
-18 -8 12 -23 -18 -14 -14 7
-18 -8 12 -22 -18 -12 -13 9
-18 -8 12 -22 -18 -12 -12 8
-18 -8 13 -21 -19 -13 -13 7
-18 -9 14 -21 -19 -13 -14 7
-19 -9 15 -20 -18 -13 -13 8
-20 -8 14 -20 -18 -13 -13 8
-19 -8 13 -22 -19 -14 -14 7
-18 -7 12 -22 -19 -13 -14 7
-17 -7 12 -22 -18 -13 -13 7
-18 -7 12 -21 -17 -13 -13 7
-20 -7 13 -21 -17 -12 -12 8
-23 -7 14 -19 -16 -11 -11 9
-23 -8 15 -18 -15 -10 -10 10
-20 -8 14 -18 -17 -11 -11 9
-17 -8 13 -19 -18 -13 -13 7
-16 -8 13 -19 -18 -13 -13 6
-17 -8 12 -19 -17 -14 -14 5
-17 -8 12 -20 -17 -14 -13 5
-21 -6 12 -20 -17 -12 -12 7
-24 -4 13 -18 -14 -9 -10 9
-23 -3 12 -19 -16 -9 -10 9
-19 -4 13 -18 -17 -9 -10 9
-17 -5 12 -19 -18 -10 -12 7
-18 -5 14 -17 -17 -9 -11 7
-20 -6 14 -16 -17 -10 -12 6
-20 -7 14 -16 -18 -11 -13 6
-21 -6 14 -17 -18 -11 -14 5
-21 -6 13 -18 -18 -11 -14 5
-20 -5 12 -18 -17 -11 -14 5
-18 -5 12 -18 -17 -11 -13 6
-18 -5 12 -18 -17 -10 -12 6
-19 -4 13 -17 -17 -10 -12 7
-21 -4 13 -17 -17 -10 -12 6
-23 -4 14 -16 -17 -10 -12 6
-23 -4 14 -16 -18 -11 -13 6
-23 -4 13 -16 -18 -12 -14 6
-22 -4 13 -16 -18 -11 -13 6
-21 -3 12 -17 -17 -9 -11 7
-21 -3 12 -17 -16 -8 -10 8
-21 -3 12 -17 -16 -7 -9 9
-20 -4 12 -17 -16 -7 -8 9
-19 -4 13 -16 -17 -7 -8 8
-20 -5 13 -16 -17 -7 -9 8
-19 -4 13 -16 -18 -8 -10 7
-17 -4 12 -17 -20 -10 -12 5
-18 -4 11 -18 -21 -11 -13 4
-21 -3 12 -18 -19 -10 -11 6
-22 -2 11 -18 -19 -9 -10 7
-22 -3 11 -19 -19 -9 -9 7
-22 -3 11 -19 -20 -10 -9 8
-22 -3 11 -19 -20 -9 -9 8
-20 -3 11 -19 -20 -9 -9 8
-18 -3 10 -20 -20 -10 -10 7
-18 -3 9 -20 -21 -10 -10 7
-19 -4 10 -19 -20 -9 -10 7
-19 -4 10 -19 -20 -9 -11 7
-20 -4 9 -20 -20 -9 -10 6
-22 -4 9 -21 -21 -10 -10 6
-21 -4 9 -22 -21 -10 -10 6
-17 -4 8 -24 -22 -11 -11 5
-15 -5 8 -24 -23 -12 -11 5
-18 -5 9 -23 -23 -11 -10 5
-22 -6 10 -21 -23 -10 -10 6
-25 -6 11 -20 -22 -10 -9 6
-27 -6 11 -20 -21 -10 -10 6
-27 -5 11 -20 -21 -10 -10 5
-25 -5 9 -22 -22 -10 -11 4
-23 -4 9 -24 -23 -11 -11 4
-22 -3 10 -24 -22 -11 -10 5
-22 -3 10 -24 -22 -11 -9 6
-22 -4 10 -24 -23 -11 -9 6
-21 -4 11 -24 -23 -10 -9 6
-20 -4 12 -23 -22 -10 -9 6
-19 -4 13 -22 -22 -10 -10 5
-19 -4 13 -22 -22 -11 -10 4
-19 -4 12 -22 -22 -11 -11 4
-18 -3 11 -23 -23 -12 -10 3
-19 0 11 -22 -21 -10 -9 5
-20 2 11 -23 -20 -9 -8 5
-23 3 15 -21 -18 -7 -6 7
-22 5 16 -20 -19 -6 -6 7
-19 6 16 -19 -19 -6 -6 8
-15 8 15 -19 -19 -6 -7 7
-11 9 13 -20 -20 -7 -7 7
-8 9 10 -21 -20 -7 -8 6
-5 8 9 -22 -21 -8 -8 5
-4 8 10 -22 -21 -8 -8 5
-5 9 9 -22 -21 -7 -7 5
-8 9 9 -22 -19 -5 -5 8
-8 10 7 -22 -18 -4 -4 10
-3 12 3 -23 -20 -6 -5 8
5 14 2 -23 -20 -6 -6 7
11 15 2 -22 -18 -5 -5 8
14 16 1 -21 -17 -4 -4 9
16 16 -3 -22 -17 -3 -4 9
17 14 -6 -24 -19 -5 -4 8
14 12 -7 -26 -21 -6 -5 7
11 11 -9 -30 -24 -9 -7 5
10 10 -12 -32 -27 -12 -9 5
11 11 -13 -35 -30 -14 -10 3
11 12 -12 -35 -29 -13 -10 4
10 11 -10 -33 -28 -12 -9 5
8 9 -8 -32 -27 -12 -8 4
6 6 -6 -30 -26 -11 -8 4
4 4 -6 -30 -27 -11 -8 5
6 2 -7 -31 -27 -12 -8 5
8 2 -9 -33 -28 -13 -9 3
9 2 -10 -34 -29 -13 -9 3
10 1 -11 -35 -29 -14 -10 2
10 1 -11 -35 -30 -15 -11 1
9 1 -10 -36 -30 -15 -12 0
6 1 -8 -35 -31 -16 -13 0
6 0 -8 -35 -31 -17 -14 0
4 -4 -8 -36 -33 -19 -16 -4
-2 -7 -6 -35 -33 -20 -18 -6
-8 -10 -4 -35 -33 -21 -20 -8
-8 -10 -6 -37 -36 -25 -22 -12
-8 -10 -8 -39 -38 -26 -23 -13
-8 -11 -9 -40 -38 -26 -24 -14
-8 -11 -10 -40 -39 -26 -24 -14
-7 -11 -10 -41 -40 -27 -24 -14
-6 -11 -10 -41 -40 -27 -24 -13
-5 -12 -10 -41 -40 -28 -24 -13
-4 -14 -10 -41 -40 -29 -25 -14
-3 -15 -11 -43 -41 -30 -26 -15
1 -16 -12 -44 -43 -31 -27 -17
3 -16 -12 -44 -43 -31 -27 -17
2 -16 -13 -44 -43 -31 -28 -17
-3 -15 -12 -44 -41 -31 -27 -16
-8 -14 -11 -43 -39 -29 -26 -15
-10 -14 -10 -41 -38 -28 -24 -14
-10 -14 -11 -41 -39 -28 -25 -14
-9 -14 -11 -41 -38 -29 -25 -15
-8 -14 -11 -43 -38 -31 -26 -16
-8 -13 -11 -43 -38 -32 -26 -17
-11 -13 -9 -40 -37 -31 -25 -16
-13 -12 -9 -40 -37 -30 -25 -17
-11 -13 -9 -40 -37 -30 -26 -17
-10 -13 -10 -40 -36 -29 -26 -16
-9 -14 -10 -41 -36 -30 -26 -16
-9 -15 -11 -43 -36 -30 -25 -16
-8 -16 -11 -43 -36 -31 -26 -16
-8 -17 -10 -43 -36 -31 -27 -17
-5 -16 -10 -43 -37 -32 -28 -19
-3 -15 -12 -44 -38 -33 -29 -20
-3 -14 -13 -44 -38 -33 -29 -20
-5 -13 -13 -45 -38 -33 -29 -20
-8 -12 -12 -44 -37 -32 -28 -20
-13 -12 -10 -43 -35 -31 -27 -19
-15 -12 -10 -41 -35 -31 -27 -19
-11 -12 -10 -40 -34 -30 -26 -18
-8 -11 -12 -41 -36 -32 -27 -20
-8 -12 -11 -40 -34 -31 -26 -19
-7 -13 -12 -40 -34 -32 -26 -20
-7 -14 -12 -39 -34 -32 -26 -20
-7 -14 -11 -39 -34 -32 -26 -20
-8 -15 -9 -38 -34 -32 -26 -20
-11 -16 -7 -38 -34 -33 -27 -21
-12 -16 -4 -35 -33 -35 -29 -23
-10 -17 0 -32 -34 -39 -33 -27
-8 -19 6 -28 -35 -45 -39 -32
-8 -22 14 -23 -38 -52 -48 -38
-13 -25 25 -17 -36 -60 -54 -46
-17 -26 33 -12 -35 -67 -59 -49
-16 -23 33 -12 -35 -68 -58 -47
-9 -19 33 -3 -22 -55 -47 -35
1 -15 35 20 6 -30 -26 -19
12 -7 35 43 39 4 3 3
24 9 28 48 66 44 37 31
38 33 16 39 90 87 79 65
53 67 1 29 112 142 132 109
68 103 -18 18 135 205 192 158
85 139 -47 -11 144 261 246 204
99 175 -91 -57 137 309 297 247
112 212 -140 -106 129 356 343 287
120 240 -180 -137 131 401 382 316
125 247 -201 -142 143 439 406 331
120 234 -206 -130 162 472 418 331
106 217 -210 -119 173 488 412 318
87 200 -218 -130 156 473 387 294
64 181 -227 -159 102 419 340 255
42 152 -230 -195 27 335 273 202
21 118 -225 -219 -50 224 191 144
3 77 -211 -231 -130 80 88 71
-15 26 -186 -230 -202 -72 -24 -7
-30 -16 -158 -220 -243 -176 -102 -64
-34 -34 -140 -205 -241 -197 -126 -85
-29 -40 -130 -190 -215 -177 -119 -86
-24 -46 -117 -173 -187 -159 -113 -87
-20 -48 -101 -150 -162 -145 -106 -83
-17 -48 -80 -124 -135 -126 -94 -76
-18 -48 -63 -100 -109 -107 -82 -69
-20 -48 -49 -81 -91 -94 -74 -63
-22 -44 -39 -66 -76 -83 -65 -56
-20 -38 -32 -50 -61 -71 -56 -49
-15 -33 -25 -38 -49 -64 -51 -46
-11 -29 -16 -28 -36 -57 -45 -41
-10 -26 -8 -20 -28 -51 -39 -38
-9 -23 -4 -15 -22 -46 -36 -35
-8 -20 -2 -13 -18 -44 -33 -33
-8 -17 0 -11 -14 -41 -31 -31
-8 -15 3 -7 -11 -38 -29 -29
-8 -13 3 -5 -9 -37 -28 -29
-7 -12 4 -4 -9 -37 -29 -30
-7 -13 5 -2 -7 -37 -28 -29
-7 -14 6 1 -7 -38 -28 -30
-4 -15 5 0 -7 -39 -30 -31
0 -14 3 -2 -6 -39 -30 -32
-2 -14 3 -2 -5 -39 -30 -31
-3 -13 3 -2 -3 -38 -28 -30
-4 -12 4 -2 0 -37 -27 -29
-3 -11 5 0 0 -35 -25 -28
-2 -11 5 2 0 -35 -26 -28
-2 -12 7 5 3 -34 -25 -26
-2 -12 8 6 4 -34 -25 -27
-2 -12 8 7 5 -34 -26 -29
-3 -13 8 8 5 -34 -26 -30
-3 -13 8 8 6 -34 -25 -29
-2 -12 7 8 8 -34 -23 -28
1 -10 5 5 7 -35 -23 -28
3 -10 5 6 7 -34 -22 -27
6 -10 4 6 7 -34 -23 -28
6 -11 6 8 8 -34 -23 -29
2 -10 8 11 11 -33 -23 -29
-3 -10 10 14 13 -32 -22 -28
-3 -11 12 16 15 -31 -22 -28
-3 -13 12 17 16 -31 -22 -28
-3 -12 12 18 16 -31 -21 -28
-4 -12 11 19 17 -30 -19 -27
-2 -11 10 18 17 -30 -19 -27
0 -9 10 18 18 -30 -19 -27
0 -8 11 20 20 -28 -19 -27
-2 -7 12 23 21 -27 -19 -26
-2 -8 14 25 23 -27 -19 -27
0 -9 16 27 23 -27 -19 -28
0 -10 18 31 25 -26 -18 -28
3 -12 17 32 26 -27 -19 -29
4 -12 16 33 27 -26 -18 -28
2 -11 16 34 28 -26 -16 -27
0 -10 17 36 31 -23 -14 -25
1 -9 17 36 32 -22 -14 -26
3 -9 18 38 34 -22 -14 -27
3 -9 20 42 36 -22 -15 -27
3 -9 22 45 38 -21 -15 -27
5 -10 23 49 40 -20 -15 -28
6 -10 24 53 43 -19 -14 -28
7 -10 24 55 45 -19 -14 -29
8 -10 25 57 48 -17 -13 -28
10 -9 25 58 50 -16 -12 -28
12 -8 25 60 52 -15 -11 -28
12 -7 26 62 55 -13 -9 -26
9 -7 28 67 59 -10 -6 -24
8 -7 30 72 63 -8 -6 -25
9 -8 33 77 66 -7 -6 -26
10 -9 35 82 68 -5 -5 -26
11 -9 36 88 73 -4 -4 -25
10 -9 38 92 77 0 -2 -23
10 -8 39 96 82 3 1 -21
9 -6 39 99 86 5 3 -21
11 -6 40 102 91 8 5 -19
13 -6 42 105 95 11 7 -18
15 -6 43 109 99 14 8 -18
16 -5 47 115 104 18 10 -16
16 -5 51 122 108 21 11 -16
15 -5 53 129 113 23 11 -17
13 -6 55 134 118 26 13 -17
14 -6 56 138 122 28 16 -16
16 -6 56 140 126 30 17 -15
18 -5 56 141 129 32 18 -13
20 -5 56 143 133 34 20 -12
22 -4 57 146 136 37 23 -12
23 -3 59 151 140 42 26 -11
23 -2 61 154 142 44 27 -11
22 0 63 158 146 42 27 -10
22 0 64 161 148 36 28 -10
23 0 64 163 150 33 28 -10
25 0 64 163 150 31 28 -12
27 0 64 163 151 30 29 -12
29 0 63 162 151 28 29 -11
28 0 63 162 152 29 32 -9
25 0 64 162 153 32 35 -6
25 0 64 160 153 32 36 -5
27 2 63 158 151 31 35 -7
30 3 62 156 148 28 34 -8
31 4 60 154 145 25 31 -11
31 4 59 151 142 23 28 -13
27 4 58 148 139 21 29 -13
24 4 57 144 136 19 30 -12
21 3 57 139 133 19 31 -11
19 3 55 132 127 16 30 -11
19 3 53 125 120 13 30 -11
17 3 52 118 114 11 30 -10
13 4 50 113 108 7 30 -9
14 4 48 105 101 2 27 -11
16 5 44 97 92 -5 23 -14
16 4 39 89 84 -10 21 -16
14 4 37 81 76 -14 20 -16
14 4 33 73 68 -20 17 -18
14 3 30 64 60 -27 14 -19
14 2 26 56 53 -32 11 -21
14 1 24 49 47 -35 10 -23
14 1 21 43 39 -40 7 -26
11 1 20 37 33 -46 4 -29
7 1 18 33 27 -51 1 -29
4 0 18 29 22 -54 -2 -30
4 -3 17 26 17 -58 -4 -32
4 -5 15 22 12 -63 -6 -33
3 -7 14 17 8 -65 -8 -34
2 -7 12 10 5 -68 -9 -35
3 -7 11 7 2 -70 -9 -36
4 -7 8 3 -4 -74 -12 -39
5 -7 7 0 -7 -77 -14 -43
6 -8 6 -3 -10 -80 -16 -44
5 -9 7 -3 -11 -81 -17 -44
4 -10 6 -4 -14 -83 -19 -47
4 -11 6 -5 -16 -87 -21 -48
4 -13 4 -8 -18 -89 -22 -50
2 -13 4 -9 -18 -90 -22 -50
-4 -13 5 -9 -18 -90 -20 -48
-8 -13 5 -10 -18 -90 -20 -46
-8 -13 5 -11 -18 -90 -19 -46
-5 -13 4 -12 -19 -90 -19 -47
-3 -13 3 -13 -21 -91 -20 -49
-2 -14 3 -12 -22 -92 -22 -50
-2 -15 3 -11 -23 -93 -23 -52
-3 -17 3 -11 -23 -96 -24 -53
-5 -17 4 -12 -24 -98 -25 -54
-8 -16 4 -12 -23 -97 -25 -54
-8 -16 3 -13 -23 -96 -25 -54
-6 -15 1 -15 -24 -97 -24 -53
-4 -14 0 -17 -26 -98 -23 -52
-3 -14 1 -17 -26 -98 -22 -52
0 -14 0 -18 -27 -100 -23 -54
2 -15 0 -17 -27 -100 -24 -54
2 -16 0 -17 -28 -100 -25 -56
2 -17 0 -16 -29 -103 -27 -57
2 -17 1 -16 -28 -104 -27 -57
0 -16 1 -15 -27 -103 -26 -56
-4 -16 1 -15 -26 -101 -24 -55
-4 -15 0 -17 -28 -102 -24 -57
-3 -14 1 -17 -27 -101 -23 -56
-3 -13 1 -18 -27 -102 -23 -57
-2 -13 1 -17 -27 -101 -21 -56
-2 -13 2 -16 -26 -101 -21 -56
-3 -14 4 -14 -25 -100 -21 -56
-3 -16 3 -15 -26 -103 -23 -58
0 -17 3 -16 -27 -105 -25 -59
1 -17 3 -16 -27 -105 -25 -59
-3 -18 3 -16 -26 -103 -23 -57
-6 -17 3 -16 -25 -102 -21 -56
-7 -17 3 -16 -24 -102 -20 -55
-7 -16 4 -16 -24 -102 -20 -55
-7 -16 4 -15 -24 -102 -20 -57
-4 -15 2 -15 -26 -104 -22 -59
-2 -15 3 -14 -26 -104 -23 -59
-3 -15 5 -13 -27 -106 -23 -60
-3 -15 5 -14 -26 -107 -24 -60
0 -15 3 -16 -26 -106 -24 -61
2 -16 3 -16 -26 -107 -24 -61
3 -16 2 -17 -26 -108 -23 -61
1 -16 2 -17 -26 -108 -22 -60
-3 -16 2 -16 -25 -106 -21 -59
-6 -16 3 -14 -24 -106 -20 -59
-7 -16 5 -12 -24 -106 -20 -59
-5 -16 5 -12 -25 -107 -22 -61
1 -16 3 -14 -27 -109 -24 -65
2 -16 3 -14 -27 -110 -24 -70
-3 -17 5 -12 -24 -108 -22 -68
-5 -17 5 -13 -23 -107 -22 -66
-3 -17 5 -14 -22 -107 -21 -64
-2 -16 4 -14 -23 -111 -21 -63
-5 -16 5 -12 -21 -110 -19 -59
-5 -16 5 -11 -21 -108 -18 -57
-3 -15 5 -11 -22 -106 -18 -56
0 -15 4 -11 -24 -105 -19 -56
1 -15 5 -11 -24 -105 -20 -55
1 -16 4 -12 -24 -104 -21 -55
-3 -17 5 -10 -22 -102 -20 -53
-4 -17 5 -11 -22 -101 -20 -52
-4 -16 5 -11 -21 -100 -20 -51
-3 -16 4 -12 -21 -98 -20 -50
0 -15 3 -13 -22 -96 -20 -49
3 -15 2 -13 -24 -96 -20 -48
2 -15 3 -11 -23 -94 -18 -45
-2 -16 4 -10 -22 -91 -17 -43
-3 -16 5 -9 -22 -90 -18 -40
0 -17 4 -8 -21 -89 -19 -39
1 -17 4 -9 -21 -88 -19 -38
1 -15 3 -11 -21 -87 -19 -38
2 -14 2 -14 -22 -87 -18 -38
4 -13 1 -15 -23 -85 -18 -37
5 -14 1 -14 -23 -82 -17 -34
5 -14 1 -14 -24 -80 -16 -30
5 -15 2 -12 -23 -78 -16 -29
4 -16 2 -11 -23 -77 -16 -28
1 -16 3 -9 -22 -75 -14 -26
-3 -16 3 -9 -21 -73 -15 -24
-2 -16 3 -10 -22 -72 -15 -23
2 -16 1 -13 -23 -72 -15 -22
1 -16 0 -14 -23 -71 -14 -21
0 -16 1 -13 -23 -68 -13 -19
1 -16 0 -14 -24 -68 -14 -20
2 -15 0 -13 -25 -68 -15 -19
2 -15 1 -13 -25 -67 -16 -18
3 -15 0 -13 -27 -67 -18 -18
3 -16 1 -12 -26 -65 -17 -16
3 -16 1 -13 -26 -64 -17 -14
5 -17 0 -14 -27 -65 -19 -15
6 -17 -2 -15 -28 -64 -19 -14
5 -17 -3 -16 -29 -63 -18 -14
2 -17 -2 -16 -27 -60 -16 -11
0 -16 0 -15 -26 -56 -14 -7
1 -16 -2 -15 -27 -57 -15 -2
2 -17 -2 -14 -28 -57 -17 0
2 -17 -2 -14 -28 -57 -18 -2
1 -18 0 -14 -27 -54 -16 0
1 -18 0 -14 -27 -53 -16 0
2 -17 -2 -16 -28 -53 -17 -2
2 -17 -2 -17 -29 -52 -17 -2
2 -17 -2 -19 -30 -51 -17 -3
2 -17 -2 -19 -30 -50 -17 -3
0 -17 1 -17 -28 -48 -16 -2
0 -17 1 -17 -28 -46 -15 -2
3 -17 1 -17 -28 -45 -16 -3
4 -17 1 -16 -28 -43 -16 -3
4 -17 2 -16 -29 -41 -16 -5
3 -17 3 -16 -28 -40 -16 -4
1 -16 3 -17 -28 -39 -16 -3
1 -16 2 -17 -28 -38 -15 -3
4 -16 1 -18 -29 -38 -16 -3
7 -16 1 -19 -30 -37 -16 -3
7 -15 2 -18 -29 -34 -14 -2
5 -14 3 -17 -27 -31 -13 1
6 -13 5 -16 -26 -29 -12 1
7 -12 5 -15 -26 -28 -12 0
6 -11 7 -13 -25 -26 -11 1
7 -9 6 -13 -24 -25 -11 1
7 -7 5 -15 -25 -25 -11 1
6 -7 5 -15 -24 -22 -9 2
5 -7 4 -15 -24 -20 -9 3
6 -8 4 -15 -23 -18 -8 3
6 -8 5 -14 -23 -17 -8 3
6 -8 5 -13 -23 -16 -8 3
7 -8 4 -12 -23 -14 -8 3
9 -8 3 -12 -23 -12 -9 2
9 -7 3 -10 -21 -10 -7 3
8 -5 3 -9 -19 -6 -6 4
9 -2 2 -8 -17 1 -3 6
13 1 -2 -10 -17 3 -2 7
15 1 -6 -14 -19 1 -2 8
15 1 -9 -18 -22 0 -3 7
15 -2 -10 -19 -24 -2 -3 6
13 -3 -11 -20 -26 -3 -5 4
10 -4 -11 -21 -27 -5 -5 3
8 -5 -9 -21 -26 -5 -5 3
9 -5 -9 -20 -26 -6 -7 3
11 -7 -8 -19 -26 -7 -8 2
10 -9 -7 -19 -26 -6 -8 2
10 -12 -8 -19 -25 -6 -7 3
13 -13 -9 -22 -27 -8 -8 2
17 -14 -10 -23 -28 -8 -8 2
18 -14 -9 -23 -28 -8 -7 3
17 -15 -8 -22 -28 -7 -7 3
15 -15 -9 -23 -29 -9 -9 1
11 -15 -7 -21 -28 -9 -9 1
6 -15 -6 -21 -27 -10 -11 0
2 -16 -5 -21 -27 -10 -11 0
2 -18 -6 -23 -29 -12 -13 -2
3 -20 -8 -25 -32 -15 -16 -5
3 -22 -7 -27 -32 -16 -18 -7
2 -24 -7 -28 -33 -18 -19 -9
1 -25 -8 -30 -35 -20 -20 -12
-3 -26 -8 -31 -37 -21 -21 -13
-6 -28 -7 -30 -36 -21 -21 -13
-7 -29 -7 -30 -36 -22 -22 -15
-4 -29 -8 -31 -37 -23 -24 -16
-2 -29 -9 -31 -37 -24 -25 -17
-2 -29 -9 -32 -37 -26 -25 -17
-2 -30 -9 -34 -37 -26 -25 -17
-2 -32 -8 -34 -36 -25 -23 -15
0 -32 -9 -35 -37 -25 -23 -15
-2 -31 -9 -35 -37 -25 -22 -14
-5 -30 -8 -34 -36 -24 -21 -13
-5 -29 -8 -34 -37 -25 -22 -14
-4 -28 -8 -34 -38 -26 -24 -15
-3 -27 -9 -34 -39 -27 -25 -17
-2 -26 -9 -34 -39 -28 -24 -18
1 -24 -10 -36 -40 -30 -26 -19
2 -23 -11 -38 -40 -30 -27 -20
0 -22 -10 -37 -40 -30 -27 -19
-5 -20 -10 -38 -41 -30 -27 -19
-6 -19 -10 -38 -41 -30 -27 -19
-4 -17 -11 -38 -43 -31 -28 -21
-4 -16 -11 -38 -41 -31 -28 -21
-7 -16 -10 -37 -40 -31 -27 -21
-9 -15 -10 -37 -40 -31 -27 -20
-9 -14 -10 -37 -41 -31 -27 -20
-8 -12 -11 -38 -43 -32 -28 -22
-8 -11 -12 -40 -44 -34 -29 -24
-7 -8 -13 -41 -45 -35 -31 -25
-5 -6 -14 -43 -46 -36 -31 -26
-4 -4 -15 -43 -46 -36 -32 -27
-5 -3 -15 -43 -45 -36 -32 -27
-7 -2 -14 -41 -45 -36 -32 -26
-11 0 -13 -40 -44 -35 -31 -25
-11 1 -13 -40 -44 -35 -31 -25
-8 2 -15 -44 -46 -37 -33 -27
-5 3 -17 -45 -47 -38 -34 -28
-5 4 -17 -46 -47 -38 -34 -27
-4 6 -18 -47 -48 -39 -34 -27
-3 7 -18 -47 -49 -40 -35 -29
-4 9 -16 -46 -48 -40 -36 -31
-8 9 -12 -43 -47 -41 -37 -33
-14 8 -5 -37 -45 -44 -41 -36
-18 6 5 -32 -44 -49 -48 -41
-20 3 14 -26 -43 -57 -54 -48
-21 1 22 -22 -44 -66 -62 -53
-20 2 27 -21 -47 -74 -68 -58
-15 7 26 -22 -46 -73 -66 -56
-8 15 24 -13 -32 -58 -54 -45
3 23 24 9 -5 -31 -32 -28
15 33 23 26 24 4 -5 -7
28 52 14 26 44 40 29 20
43 81 0 16 61 85 72 56
60 117 -19 7 80 140 126 100
79 154 -43 -12 96 196 179 145
95 189 -77 -45 99 247 231 190
107 225 -126 -93 91 295 280 232
117 262 -176 -137 86 343 327 272
123 287 -212 -159 91 387 364 302
126 288 -228 -158 104 423 387 314
121 272 -232 -145 122 449 393 310
108 253 -233 -137 129 460 384 295
87 235 -238 -149 105 436 354 266
64 212 -243 -179 48 376 302 224
45 182 -243 -212 -26 286 233 172
29 147 -237 -235 -102 171 148 111
12 105 -221 -247 -178 26 43 37
-8 56 -193 -248 -241 -113 -61 -39
-19 18 -168 -240 -271 -195 -128 -90
-23 4 -150 -225 -261 -201 -139 -102
-24 1 -138 -207 -231 -178 -129 -98
-23 -3 -122 -187 -204 -160 -121 -96
-19 -4 -103 -162 -178 -145 -112 -91
-13 -6 -83 -139 -152 -126 -101 -83
-12 -7 -67 -117 -131 -110 -91 -77
-11 -7 -56 -101 -113 -98 -82 -71
-8 -2 -51 -89 -100 -87 -74 -65
-7 4 -44 -76 -85 -74 -65 -57
-6 8 -32 -63 -70 -64 -58 -51
-5 11 -22 -54 -58 -57 -53 -47
-4 15 -16 -47 -50 -50 -47 -43
-3 19 -12 -43 -46 -47 -46 -41
-3 22 -10 -40 -41 -46 -44 -40
-2 23 -9 -38 -39 -44 -43 -39
0 25 -8 -37 -37 -43 -41 -39
1 27 -7 -37 -37 -43 -41 -39
2 27 -6 -35 -35 -41 -41 -38
2 27 -5 -34 -34 -41 -41 -38
3 26 -6 -33 -32 -41 -40 -37
3 26 -6 -33 -30 -41 -39 -36
3 25 -6 -33 -28 -39 -37 -36
3 25 -6 -33 -27 -38 -36 -35
1 25 -4 -32 -25 -36 -34 -33
-2 26 -4 -31 -24 -35 -34 -33
-5 27 -2 -29 -21 -33 -32 -32
-6 28 -2 -28 -21 -32 -32 -31
-4 28 -2 -29 -21 -33 -33 -32
-2 28 -2 -29 -19 -32 -33 -33
-4 27 0 -29 -16 -32 -33 -32
-3 26 0 -30 -14 -32 -32 -30
-2 26 -2 -32 -13 -31 -31 -30
0 26 -2 -32 -11 -30 -31 -30
2 26 -3 -33 -10 -29 -31 -31
4 26 -2 -33 -8 -27 -30 -30
4 26 -2 -32 -6 -26 -29 -29
5 27 -2 -32 -6 -27 -29 -29
6 27 0 -32 -6 -28 -28 -30
5 27 0 -31 -5 -28 -29 -30
1 27 1 -30 -3 -26 -29 -29
-4 27 3 -28 1 -23 -26 -28
-4 26 4 -27 2 -22 -25 -28
-5 26 4 -26 4 -21 -25 -28
-6 26 6 -24 7 -19 -23 -26
-6 26 6 -23 8 -18 -22 -26
-3 26 6 -23 9 -18 -22 -27
1 27 6 -23 8 -20 -24 -29
1 28 7 -22 10 -20 -24 -28
-2 28 8 -19 13 -19 -24 -27
-2 28 8 -18 14 -17 -24 -26
1 27 7 -17 15 -16 -24 -26
1 27 8 -16 17 -14 -22 -25
0 26 10 -14 20 -12 -20 -23
3 26 9 -13 22 -12 -19 -22
5 26 9 -13 23 -12 -19 -22
7 27 9 -11 24 -12 -19 -23
8 28 11 -9 26 -11 -19 -23
6 28 12 -6 28 -9 -18 -24
3 28 14 -2 31 -7 -17 -23
2 28 16 2 35 -5 -15 -22
5 28 15 4 36 -4 -16 -21
7 28 15 5 38 -3 -16 -22
8 28 17 8 42 0 -16 -23
5 28 20 12 47 3 -13 -20
-2 28 23 17 52 6 -9 -16
-4 29 25 21 56 8 -8 -16
-2 29 26 24 58 10 -7 -16
2 29 27 27 61 11 -7 -16
4 29 28 31 65 14 -5 -15
6 29 29 34 68 15 -5 -16
8 28 31 38 72 18 -4 -14
7 28 32 43 77 21 -2 -13
5 27 35 48 82 24 1 -11
4 27 37 52 88 27 3 -9
6 28 39 55 91 29 4 -9
8 29 40 59 95 33 5 -9
10 30 43 63 99 35 6 -9
9 30 46 69 104 39 9 -7
9 31 47 72 107 42 9 -7
11 31 49 77 111 45 11 -6
13 31 49 80 115 47 12 -5
12 31 51 84 120 51 15 -3
11 31 54 88 126 56 18 1
11 32 55 91 130 59 20 2
13 32 57 94 134 63 23 3
13 32 58 98 137 65 24 3
10 31 61 102 141 69 26 5
10 32 62 105 144 71 28 6
15 32 60 105 144 71 27 6
18 32 60 106 145 71 27 6
20 31 60 108 146 73 28 7
21 31 60 108 147 74 28 7
22 32 59 108 148 76 29 8
19 32 60 108 150 78 31 8
13 33 62 109 151 80 33 9
10 33 63 110 152 81 34 11
9 34 63 108 151 81 34 12
8 34 63 107 150 81 34 12
10 35 61 103 147 79 33 10
12 35 59 99 143 77 32 10
11 35 57 95 140 76 31 11
8 35 56 92 137 75 32 12
7 35 56 87 134 74 33 13
8 36 52 79 128 70 32 13
9 36 49 72 121 67 31 13
9 37 44 64 113 63 29 11
9 37 42 57 106 59 27 10
9 38 39 50 98 55 25 9
8 38 35 42 90 49 22 8
5 36 32 35 84 46 20 8
2 34 30 29 77 43 18 8
1 34 26 21 69 37 16 6
1 34 22 13 62 32 14 4
1 34 19 5 55 27 12 2
1 34 16 -3 48 23 9 1
1 33 14 -9 42 19 6 -2
-3 32 13 -12 36 16 5 -3
-7 31 12 -17 31 12 1 -5
-8 30 10 -21 26 8 -2 -7
-9 28 8 -26 21 4 -3 -7
-11 26 6 -30 16 1 -5 -9
-15 24 6 -34 12 -2 -6 -10
-15 23 5 -37 8 -4 -7 -9
-10 22 1 -44 3 -9 -11 -12
-7 21 -2 -47 0 -11 -12 -13
-6 19 -3 -50 -4 -13 -14 -15
-6 18 -4 -52 -7 -16 -16 -16
-9 18 -3 -52 -9 -18 -17 -17
-18 18 -2 -51 -8 -17 -17 -16
-23 17 -2 -51 -8 -17 -18 -15
-19 16 -4 -54 -11 -19 -19 -16
-15 15 -6 -57 -13 -21 -20 -18
-16 15 -5 -58 -13 -21 -20 -17
-19 15 -5 -58 -13 -21 -19 -17
-19 14 -5 -59 -14 -21 -20 -17
-18 14 -5 -60 -14 -21 -20 -17
-18 13 -6 -60 -15 -22 -21 -17
-19 14 -6 -60 -16 -23 -22 -18
-20 14 -7 -61 -18 -25 -23 -19
-21 13 -6 -61 -18 -24 -22 -19
-21 12 -6 -62 -18 -24 -23 -19
-22 12 -6 -62 -17 -23 -21 -17
-22 12 -6 -63 -17 -23 -21 -17
-21 12 -7 -64 -17 -24 -21 -17
-19 12 -8 -64 -18 -23 -21 -17
-19 11 -8 -64 -18 -23 -21 -17
-18 11 -7 -64 -19 -24 -21 -17
-18 10 -7 -64 -19 -24 -22 -17
-18 10 -8 -64 -20 -25 -23 -18
-20 10 -7 -63 -19 -23 -22 -17
-22 10 -7 -62 -19 -23 -22 -16
-23 9 -6 -62 -17 -22 -20 -15
-23 9 -7 -63 -17 -22 -20 -15
-24 10 -7 -63 -17 -22 -19 -14
-24 10 -6 -63 -17 -21 -19 -14
-23 10 -6 -63 -17 -21 -19 -15
-22 10 -7 -63 -18 -23 -21 -16
-24 10 -6 -61 -18 -22 -21 -15
-24 10 -6 -61 -18 -22 -21 -15
-23 10 -7 -61 -17 -22 -21 -16
-22 10 -8 -62 -19 -23 -22 -17
-21 9 -8 -63 -19 -23 -22 -17
-19 9 -8 -63 -19 -23 -22 -17
-20 9 -7 -63 -18 -23 -21 -17
-21 10 -7 -63 -18 -23 -22 -18
-20 9 -8 -62 -18 -23 -22 -18
-22 9 -7 -61 -17 -21 -21 -16
-26 9 -6 -59 -16 -20 -20 -15
-27 8 -5 -58 -16 -20 -20 -14
-25 7 -6 -59 -17 -22 -22 -16
-25 7 -5 -59 -17 -21 -21 -15
-26 6 -4 -58 -15 -19 -19 -13
-26 6 -4 -58 -14 -19 -18 -13
-26 5 -4 -58 -14 -19 -17 -12
-25 6 -4 -58 -15 -18 -18 -12
-24 6 -5 -60 -17 -18 -19 -13
-24 6 -5 -61 -16 -19 -20 -13
-25 6 -4 -61 -14 -19 -19 -13
-25 6 -4 -60 -14 -18 -19 -13
-26 6 -4 -60 -13 -18 -18 -12
-26 7 -4 -61 -13 -18 -18 -12
-26 7 -4 -61 -13 -18 -17 -12
-29 7 -3 -61 -11 -16 -16 -11
-32 6 -3 -61 -11 -15 -16 -11
-31 6 -3 -60 -10 -15 -16 -11
-28 6 -3 -60 -10 -15 -17 -11
-27 6 -4 -61 -11 -16 -19 -12
-28 5 -2 -59 -10 -15 -19 -11
-29 4 -2 -59 -10 -16 -19 -11
-31 4 0 -57 -9 -15 -17 -10
-32 4 0 -57 -9 -15 -17 -9
-30 4 -2 -59 -10 -15 -17 -10
-30 5 -2 -59 -9 -15 -17 -10
-29 6 -2 -59 -9 -14 -16 -10
-26 6 -3 -59 -9 -15 -18 -11
-23 5 -4 -61 -11 -16 -19 -12
-23 6 -4 -61 -11 -17 -19 -12
-25 7 -3 -60 -11 -16 -19 -12
-29 7 0 -57 -9 -14 -18 -10
-32 6 0 -56 -9 -14 -18 -11
-31 5 -2 -56 -9 -14 -18 -11
-30 5 -2 -57 -9 -14 -18 -11
-29 5 -2 -57 -9 -13 -17 -10
-30 5 -2 -58 -8 -13 -17 -10
-30 5 -2 -58 -9 -13 -17 -9
-31 5 -2 -57 -10 -12 -17 -9
-30 5 -2 -56 -10 -12 -17 -9
-27 6 -3 -57 -10 -13 -17 -10
-24 5 -2 -57 -10 -13 -17 -9
-22 4 -3 -58 -11 -13 -18 -10
-23 4 -3 -57 -11 -13 -17 -9
-22 3 -3 -58 -11 -13 -17 -9
-20 3 -4 -60 -13 -14 -18 -10
-17 4 -5 -61 -14 -15 -19 -11
-14 4 -6 -63 -15 -16 -19 -11
-12 4 -8 -64 -16 -17 -20 -12
-12 4 -8 -63 -17 -17 -21 -13
-12 3 -8 -63 -18 -18 -22 -14
-10 3 -8 -63 -18 -18 -22 -14
-8 3 -9 -65 -19 -19 -23 -16
-6 3 -11 -66 -20 -20 -25 -17
-8 2 -10 -65 -19 -20 -24 -16
-9 1 -9 -65 -19 -19 -23 -15
-8 1 -9 -65 -19 -19 -22 -15
-4 1 -12 -68 -22 -21 -25 -18
3 1 -14 -70 -25 -23 -27 -19
4 0 -13 -69 -24 -23 -27 -17
4 0 -14 -68 -24 -23 -26 -17
4 0 -14 -69 -25 -23 -26 -17
6 0 -15 -69 -25 -23 -26 -17
10 0 -17 -71 -28 -26 -29 -19
10 -2 -15 -71 -27 -26 -29 -19
7 -2 -14 -72 -27 -25 -28 -19
3 -2 -13 -71 -26 -24 -26 -19
1 -2 -12 -70 -25 -23 -25 -17
-4 -2 -11 -69 -25 -22 -25 -16
-8 -3 -11 -67 -24 -21 -23 -14
-7 -3 -12 -68 -26 -23 -25 -16
-4 -3 -13 -69 -27 -24 -27 -18
-3 -3 -13 -69 -27 -24 -26 -17
-3 -3 -12 -69 -27 -24 -26 -16
-2 -3 -12 -69 -27 -24 -26 -17
0 -3 -13 -71 -28 -25 -27 -19
1 -3 -12 -70 -28 -24 -27 -19
2 -3 -12 -70 -28 -23 -26 -17
3 -2 -12 -70 -28 -24 -27 -17
4 0 -13 -70 -29 -25 -28 -18
4 0 -12 -69 -29 -25 -28 -17
4 0 -12 -70 -29 -25 -28 -18
3 0 -10 -69 -29 -25 -28 -18
4 0 -11 -69 -30 -25 -28 -18
4 0 -11 -68 -29 -24 -27 -17
0 1 -10 -67 -27 -21 -25 -15
-5 2 -7 -65 -24 -19 -22 -13
-2 2 -6 -65 -24 -19 -22 -12
3 4 -6 -65 -24 -19 -22 -13
5 6 -5 -64 -24 -19 -22 -13
5 7 -4 -63 -23 -18 -21 -12
7 8 -5 -64 -23 -18 -21 -11
6 8 -5 -63 -23 -18 -20 -10
4 7 -5 -62 -22 -17 -18 -9
2 6 -4 -61 -21 -15 -17 -8
3 6 -4 -61 -21 -15 -17 -8
2 6 -4 -61 -20 -14 -17 -7
1 6 -5 -61 -20 -14 -17 -7
3 7 -7 -61 -21 -14 -17 -7
5 9 -7 -59 -19 -13 -15 -6
7 11 -7 -57 -18 -11 -14 -5
9 13 -8 -56 -17 -10 -13 -4
10 16 -10 -55 -17 -8 -12 -3
10 16 -13 -56 -16 -7 -11 0
10 15 -16 -60 -19 -10 -12 -2
9 12 -16 -63 -22 -12 -12 -3
8 10 -17 -65 -25 -15 -14 -4
9 8 -19 -67 -27 -16 -15 -6
10 8 -20 -68 -27 -16 -16 -6
10 8 -19 -68 -27 -16 -16 -6
10 7 -18 -66 -27 -15 -16 -6
10 5 -16 -65 -26 -15 -16 -6
10 3 -17 -66 -27 -16 -17 -6
8 1 -15 -65 -27 -15 -15 -5
5 0 -15 -65 -26 -14 -14 -5
5 0 -15 -65 -26 -13 -13 -4
6 0 -15 -66 -25 -12 -13 -3
7 0 -15 -71 -27 -14 -15 -5
6 0 -15 -70 -26 -14 -15 -5
6 0 -15 -69 -27 -15 -17 -6
7 -2 -14 -69 -29 -17 -19 -7
7 -4 -15 -69 -31 -19 -21 -10
4 -7 -15 -68 -33 -21 -23 -12
0 -9 -14 -67 -34 -23 -24 -14
-3 -11 -12 -66 -34 -24 -24 -15
-2 -13 -13 -67 -36 -26 -26 -17
0 -15 -14 -67 -38 -28 -28 -19
-5 -16 -14 -65 -37 -27 -27 -18
-9 -16 -13 -63 -37 -27 -27 -17
-11 -17 -13 -61 -37 -27 -27 -17
-13 -17 -13 -60 -37 -27 -27 -18
-13 -17 -13 -58 -37 -27 -28 -18
-13 -17 -14 -56 -37 -27 -27 -18
-11 -17 -14 -55 -37 -27 -27 -18
-10 -17 -14 -55 -38 -28 -27 -18
-9 -17 -14 -53 -38 -28 -27 -18
-8 -17 -14 -52 -37 -27 -27 -18
-8 -17 -13 -51 -38 -28 -27 -18
-8 -17 -13 -50 -39 -28 -27 -18
-8 -17 -13 -48 -39 -29 -28 -18
-8 -18 -14 -46 -39 -29 -28 -19
-8 -18 -14 -44 -39 -30 -29 -19
-8 -18 -14 -43 -39 -30 -29 -19
-8 -18 -13 -43 -40 -31 -30 -20
-8 -18 -13 -41 -40 -30 -30 -20
-7 -18 -12 -39 -40 -29 -29 -20
-9 -18 -12 -38 -39 -29 -29 -20
-11 -18 -11 -36 -38 -28 -28 -19
-12 -18 -11 -34 -38 -28 -28 -19
-12 -19 -10 -31 -37 -27 -27 -18
-11 -19 -11 -30 -39 -29 -28 -20
-9 -19 -11 -29 -39 -29 -29 -19
-7 -19 -12 -29 -39 -30 -29 -20
-8 -18 -12 -27 -39 -30 -29 -19
-12 -18 -11 -25 -38 -28 -27 -18
-12 -17 -10 -23 -38 -28 -27 -18
-10 -17 -11 -23 -39 -29 -28 -18
-11 -17 -10 -21 -38 -28 -27 -18
-12 -17 -10 -19 -38 -28 -27 -18
-11 -17 -10 -17 -38 -27 -27 -18
-10 -17 -11 -16 -39 -28 -28 -19
-9 -17 -11 -14 -39 -29 -28 -19
-8 -17 -11 -13 -39 -29 -28 -19
-8 -17 -11 -12 -39 -30 -28 -19
-8 -18 -10 -11 -39 -30 -29 -20
-9 -19 -7 -8 -38 -30 -28 -20
-12 -20 -3 -4 -37 -31 -30 -20
-17 -21 4 3 -36 -32 -32 -23
-21 -23 12 10 -35 -36 -37 -27
-22 -26 21 16 -37 -46 -46 -34
-22 -29 30 21 -39 -56 -54 -40
-22 -29 37 25 -41 -64 -60 -46
-19 -25 38 26 -41 -65 -59 -44
-13 -21 38 35 -31 -54 -49 -33
-4 -17 40 58 -6 -30 -28 -18
7 -10 40 80 24 3 -3 3
19 6 34 86 49 43 31 30
32 30 23 80 68 87 72 64
47 64 7 76 91 142 123 106
63 102 -16 64 113 204 182 155
78 139 -53 34 123 262 238 202
92 177 -103 -10 121 312 289 247
106 216 -156 -52 119 362 340 289
118 246 -199 -78 123 408 379 319
125 256 -225 -81 138 446 404 336
125 245 -237 -70 158 477 417 339
115 227 -241 -58 172 495 415 330
97 210 -244 -64 158 484 395 309
73 186 -248 -89 109 435 350 272
50 156 -246 -121 37 355 286 224
29 120 -237 -146 -40 250 210 170
12 77 -222 -161 -123 110 111 100
-8 26 -196 -168 -200 -41 2 20
-25 -17 -166 -164 -251 -152 -82 -44
-33 -37 -144 -151 -252 -179 -111 -68
-34 -41 -133 -135 -224 -158 -106 -69
-33 -45 -116 -114 -193 -138 -99 -67
-30 -48 -96 -91 -170 -124 -93 -66
-25 -48 -76 -65 -143 -107 -82 -60
-21 -48 -59 -43 -118 -89 -72 -54
-18 -47 -46 -27 -101 -77 -66 -50
-14 -43 -39 -15 -88 -68 -59 -45
-13 -37 -30 -2 -73 -58 -50 -38
-13 -32 -21 12 -61 -50 -44 -34
-11 -28 -11 24 -49 -44 -40 -32
-9 -25 -4 33 -39 -36 -36 -28
-9 -22 1 37 -35 -33 -32 -25
-9 -19 3 39 -31 -31 -29 -22
-10 -17 5 40 -28 -30 -27 -19
-11 -15 7 42 -26 -27 -26 -19
-12 -14 9 44 -24 -26 -24 -19
-12 -14 10 45 -23 -26 -24 -19
-12 -15 10 46 -22 -26 -24 -18
-10 -15 10 48 -21 -25 -25 -19
-9 -15 10 48 -20 -25 -25 -19
-8 -15 10 48 -19 -24 -24 -19
-6 -15 9 47 -19 -24 -24 -19
-4 -14 9 45 -18 -24 -24 -19
-3 -13 9 46 -17 -23 -23 -19
-5 -13 10 48 -14 -21 -21 -17
-7 -12 10 49 -14 -21 -21 -16
-6 -12 11 50 -13 -22 -21 -17
-4 -12 10 51 -12 -22 -23 -19
-4 -12 11 51 -12 -22 -23 -20
-4 -13 12 52 -11 -22 -23 -20
-4 -13 12 52 -9 -21 -21 -18
-4 -12 11 51 -8 -21 -21 -17
-5 -12 12 52 -7 -19 -18 -14
-3 -11 12 52 -6 -19 -18 -13
-3 -10 12 53 -5 -18 -18 -13
-5 -10 14 55 -4 -16 -16 -12
-8 -10 15 57 -2 -15 -15 -12
-9 -11 16 59 1 -14 -15 -12
-10 -11 17 60 2 -14 -15 -13
-8 -11 16 60 2 -15 -17 -14
-5 -11 15 60 2 -16 -18 -16
-3 -11 15 60 3 -15 -16 -16
-4 -11 16 60 3 -14 -15 -14
-5 -10 17 61 6 -12 -13 -11
-5 -9 18 63 8 -11 -12 -10
-6 -8 19 65 10 -10 -11 -10
-6 -8 20 67 11 -9 -11 -10
-4 -8 20 68 10 -10 -13 -11
-2 -8 20 69 10 -11 -14 -13
-3 -9 21 72 12 -10 -13 -13
-2 -9 22 73 14 -10 -13 -13
1 -9 21 73 17 -8 -13 -13
0 -9 22 74 18 -6 -11 -11
-2 -8 23 76 20 -4 -9 -9
0 -8 24 78 23 -3 -8 -9
2 -8 24 80 23 -3 -9 -10
1 -8 27 86 26 -2 -9 -10
1 -8 28 89 29 0 -9 -9
3 -8 28 91 30 0 -10 -11
4 -8 29 93 32 0 -10 -12
3 -8 29 95 35 2 -9 -11
5 -8 29 96 37 3 -8 -11
6 -7 31 99 40 5 -6 -9
7 -6 32 102 44 7 -5 -8
5 -5 34 106 49 10 -3 -7
0 -5 37 112 55 15 1 -4
-2 -5 40 117 58 16 1 -4
3 -5 42 120 61 17 1 -5
5 -4 43 123 63 18 1 -6
4 -4 45 128 67 20 2 -5
3 -4 48 133 73 23 4 -3
3 -3 49 136 77 25 5 -2
3 -2 50 140 82 29 8 1
3 -2 53 145 87 32 10 2
7 0 53 148 89 33 9 1
10 0 55 152 93 35 10 1
11 -2 57 157 98 38 11 2
10 -2 60 163 103 42 13 4
10 -2 62 169 107 44 14 4
11 0 63 171 111 45 14 3
12 0 65 175 117 49 17 5
13 0 65 177 120 52 18 6
15 0 66 181 125 56 21 8
17 1 67 184 129 59 23 9
18 2 69 187 132 61 24 10
20 3 70 190 134 63 25 10
22 3 71 192 136 64 26 11
23 3 72 195 138 66 27 11
21 2 74 198 142 68 28 13
19 2 75 200 145 70 30 14
18 2 75 200 146 71 30 14
17 3 75 201 148 73 32 16
17 4 75 200 150 75 34 17
22 5 74 198 148 75 34 16
26 6 72 195 147 73 33 14
24 6 73 195 147 74 34 16
19 5 74 196 148 76 36 18
13 5 76 195 147 76 37 19
12 5 74 192 145 75 36 17
14 6 72 186 140 73 34 16
17 6 68 180 136 71 32 16
17 7 66 174 132 69 32 18
17 8 62 167 126 66 32 16
16 9 59 158 120 64 32 16
15 10 56 151 113 61 31 16
14 11 53 143 106 57 30 16
14 11 50 136 98 52 27 15
13 11 48 129 92 49 26 14
12 10 43 119 82 43 23 12
10 8 40 113 76 39 22 12
9 8 36 104 68 34 19 11
8 8 33 95 60 30 17 10
6 8 31 87 53 27 16 9
6 7 27 78 45 22 14 8
7 7 24 72 38 17 12 6
7 6 21 65 32 13 9 4
6 5 19 60 26 10 6 2
7 4 17 54 20 5 3 -2
7 3 14 48 14 0 0 -3
7 1 12 43 9 -5 -3 -4
5 1 10 38 5 -8 -5 -4
2 1 8 33 2 -10 -5 -5
-4 0 8 30 -2 -10 -5 -5
-7 0 8 27 -4 -12 -6 -5
-7 -2 7 24 -7 -15 -7 -6
-7 -2 6 21 -11 -17 -9 -7
-7 -4 6 20 -13 -19 -10 -8
-6 -5 4 17 -15 -22 -12 -10
-3 -5 2 14 -18 -25 -15 -12
0 -6 -2 11 -22 -29 -18 -15
2 -6 -2 10 -24 -31 -19 -16
-2 -7 0 9 -24 -30 -19 -15
-8 -7 1 9 -23 -27 -17 -12
-12 -7 1 8 -21 -26 -16 -11
-10 -8 0 7 -22 -27 -16 -10
-8 -8 -2 6 -24 -29 -18 -12
-7 -9 0 5 -25 -30 -18 -12
-7 -9 -2 5 -27 -31 -19 -14
-7 -8 -2 5 -28 -32 -20 -15
-8 -8 -2 4 -29 -34 -22 -17
-8 -8 -2 4 -29 -34 -22 -17
-8 -8 -3 3 -29 -33 -21 -16
-8 -8 -3 2 -29 -33 -21 -15
-8 -7 -3 1 -29 -33 -20 -15
-7 -7 -3 1 -30 -33 -20 -14
-6 -7 -4 1 -31 -33 -21 -16
-4 -8 -4 1 -30 -34 -21 -16
-3 -8 -4 0 -30 -35 -21 -16
-2 -9 -4 -2 -31 -35 -21 -16
-3 -9 -5 -3 -32 -35 -21 -17
-5 -9 -4 -2 -31 -34 -20 -16
-6 -9 -4 -2 -30 -33 -20 -15
-7 -8 -4 -2 -30 -33 -20 -14
-7 -8 -5 -3 -30 -33 -20 -13
-7 -7 -5 -3 -30 -33 -20 -13
-8 -7 -4 -3 -30 -33 -20 -13
-8 -7 -4 -3 -30 -33 -20 -14
-7 -7 -3 -3 -30 -33 -21 -14
-6 -7 -4 -3 -30 -34 -22 -16
-8 -7 -4 -2 -29 -34 -21 -15
-8 -8 -4 -2 -30 -34 -21 -15
-7 -8 -5 -3 -30 -34 -20 -14
-4 -8 -6 -4 -30 -34 -20 -15
-3 -9 -6 -5 -29 -34 -20 -15
-6 -9 -5 -4 -29 -34 -19 -14
-8 -9 -3 -3 -29 -32 -19 -13
-9 -9 -3 -3 -28 -31 -18 -12
-8 -9 -3 -2 -27 -31 -18 -13
-6 -9 -4 -3 -28 -32 -20 -14
-8 -9 -3 -2 -27 -31 -20 -14
-8 -9 -3 -2 -27 -32 -20 -14
-8 -8 -5 -4 -28 -34 -21 -15
-7 -8 -5 -5 -28 -34 -20 -15
-5 -8 -6 -6 -28 -34 -21 -15
-3 -7 -6 -6 -28 -34 -22 -16
0 -7 -6 -6 -28 -34 -22 -16
-3 -7 -5 -6 -28 -34 -21 -16
-5 -7 -3 -4 -27 -33 -21 -15
-7 -7 -2 -3 -26 -32 -20 -14
-8 -7 -2 -3 -26 -33 -20 -15
-8 -7 -3 -4 -25 -33 -20 -14
-8 -7 -3 -4 -24 -33 -19 -13
-7 -7 -3 -4 -23 -32 -18 -12
-6 -7 -4 -5 -24 -33 -19 -12
-6 -7 -4 -5 -24 -32 -18 -12
-4 -6 -4 -5 -26 -33 -20 -13
-3 -5 -4 -5 -25 -33 -20 -13
-2 -5 -4 -5 -25 -34 -21 -14
-5 -6 -2 -3 -23 -32 -19 -13
-8 -6 -2 -3 -23 -32 -20 -14
-9 -6 -2 -3 -24 -33 -21 -15
-11 -5 -2 -3 -23 -32 -20 -14
-8 -5 -3 -4 -23 -32 -20 -14
-6 -4 -4 -5 -24 -33 -21 -14
-5 -4 -4 -5 -24 -33 -20 -13
-5 -4 -4 -5 -24 -33 -20 -13
-4 -4 -3 -5 -23 -33 -20 -14
-4 -5 -3 -5 -24 -33 -21 -15
-4 -5 -3 -6 -25 -34 -22 -15
-6 -5 -2 -5 -23 -32 -21 -14
-8 -5 -3 -5 -22 -32 -20 -13
-8 -4 -3 -6 -22 -32 -20 -13
-5 -4 -4 -7 -24 -34 -20 -14
-2 -4 -5 -8 -25 -35 -21 -14
0 -3 -6 -9 -26 -35 -22 -15
0 -3 -5 -9 -26 -35 -22 -14
0 -3 -5 -9 -25 -35 -21 -14
0 -4 -4 -8 -25 -34 -21 -14
2 -5 -5 -10 -27 -35 -23 -15
3 -6 -6 -10 -26 -35 -23 -16
-3 -5 -5 -9 -23 -33 -21 -13
-8 -4 -4 -8 -22 -33 -20 -12
-9 -4 -4 -9 -23 -33 -19 -13
-8 -5 -4 -9 -23 -32 -19 -12
-8 -4 -4 -9 -24 -32 -19 -11
-8 -4 -4 -10 -24 -32 -19 -11
-6 -4 -5 -11 -26 -33 -20 -13
-3 -5 -5 -11 -25 -34 -21 -13
0 -6 -7 -13 -26 -35 -22 -14
1 -6 -8 -14 -27 -36 -23 -15
0 -6 -8 -14 -28 -37 -23 -15
-3 -5 -7 -14 -27 -36 -22 -14
-5 -4 -7 -15 -27 -36 -22 -14
-7 -4 -6 -14 -26 -35 -20 -13
-7 -4 -6 -14 -26 -34 -19 -11
-4 -4 -7 -16 -26 -34 -20 -12
0 -4 -8 -17 -27 -35 -21 -14
0 -5 -8 -17 -28 -36 -22 -14
-2 -5 -8 -18 -28 -37 -23 -16
-5 -6 -7 -16 -26 -35 -22 -15
-8 -6 -6 -16 -26 -34 -21 -13
-8 -6 -6 -16 -26 -34 -20 -12
-7 -6 -8 -18 -27 -35 -20 -13
-5 -5 -9 -19 -28 -36 -21 -14
0 -5 -10 -20 -29 -37 -22 -14
2 -5 -11 -22 -30 -38 -23 -15
1 -5 -10 -21 -29 -37 -23 -15
-3 -6 -9 -20 -28 -37 -23 -15
-4 -7 -9 -19 -27 -35 -22 -13
-5 -7 -8 -20 -27 -35 -22 -13
-6 -7 -8 -21 -28 -36 -22 -13
-6 -6 -8 -21 -28 -37 -22 -14
-3 -5 -9 -21 -29 -37 -23 -15
0 -5 -9 -22 -29 -37 -23 -14
0 -4 -8 -22 -28 -37 -22 -13
-2 -3 -7 -21 -28 -37 -21 -13
-3 -3 -7 -21 -28 -37 -21 -13
-5 -3 -5 -19 -27 -36 -20 -13
-5 -3 -5 -19 -27 -36 -21 -13
-3 -4 -6 -21 -27 -38 -22 -15
0 -4 -6 -21 -26 -37 -21 -13
3 -3 -8 -22 -27 -38 -21 -13
5 0 -7 -22 -26 -37 -20 -12
4 2 -5 -21 -25 -35 -19 -11
3 4 -4 -20 -25 -35 -19 -10
4 6 -4 -19 -25 -35 -18 -9
3 8 -2 -18 -23 -34 -17 -8
0 9 0 -16 -21 -32 -15 -7
-3 9 -2 -16 -21 -32 -15 -7
-2 8 -3 -16 -21 -32 -16 -9
1 8 -2 -16 -21 -32 -16 -9
4 9 -4 -18 -23 -34 -18 -10
6 9 -5 -18 -23 -33 -17 -9
9 9 -6 -19 -23 -32 -16 -8
11 11 -8 -20 -24 -32 -15 -7
12 12 -8 -17 -21 -29 -12 -5
12 14 -8 -16 -19 -27 -11 -4
8 16 -7 -13 -16 -24 -8 0
5 17 -8 -12 -14 -23 -6 2
5 16 -9 -13 -13 -22 -5 4
9 15 -13 -17 -18 -26 -8 1
10 13 -16 -21 -22 -29 -11 -3
8 11 -18 -24 -24 -31 -12 -3
6 11 -19 -26 -25 -31 -12 -3
7 11 -18 -26 -26 -32 -13 -4
8 10 -17 -26 -26 -32 -13 -4
8 8 -16 -25 -27 -33 -14 -5
8 6 -15 -25 -26 -34 -15 -6
9 5 -15 -25 -27 -35 -15 -7
14 3 -17 -27 -28 -35 -16 -8
18 2 -18 -29 -28 -35 -17 -8
18 2 -19 -30 -28 -36 -16 -7
13 2 -17 -28 -26 -34 -14 -5
7 3 -16 -28 -25 -33 -13 -4
0 3 -13 -26 -22 -31 -11 -2
-3 3 -13 -27 -23 -32 -12 -3
-2 2 -13 -29 -26 -34 -13 -6
1 -2 -13 -30 -27 -36 -16 -8
0 -5 -13 -31 -29 -38 -18 -11
-3 -8 -12 -31 -30 -40 -19 -12
-4 -10 -12 -33 -31 -43 -21 -14
-5 -11 -13 -35 -33 -45 -24 -16
-6 -11 -13 -37 -34 -46 -26 -16
-5 -11 -15 -39 -36 -48 -27 -18
-4 -11 -16 -39 -37 -48 -27 -18
-3 -12 -16 -40 -37 -48 -27 -19
-3 -13 -16 -40 -38 -48 -28 -19
-3 -13 -15 -40 -38 -49 -28 -19
-3 -14 -14 -39 -38 -51 -28 -19
-7 -14 -14 -38 -37 -53 -28 -19
-11 -14 -13 -37 -35 -52 -27 -17
-11 -14 -13 -38 -35 -50 -27 -17
-8 -14 -14 -40 -36 -50 -27 -18
-4 -14 -16 -41 -37 -50 -28 -19
-4 -13 -15 -41 -37 -48 -28 -19
-5 -13 -15 -41 -37 -46 -28 -19
-7 -14 -13 -40 -36 -43 -27 -18
-8 -14 -13 -40 -36 -41 -28 -18
-8 -15 -12 -39 -36 -39 -27 -17
-7 -15 -14 -40 -37 -39 -28 -19
-8 -14 -14 -40 -37 -38 -29 -19
-8 -14 -14 -40 -37 -36 -28 -19
-8 -15 -13 -39 -35 -33 -27 -18
-8 -15 -13 -40 -35 -31 -27 -18
-6 -14 -14 -41 -37 -32 -28 -19
-5 -14 -15 -43 -38 -32 -29 -20
-5 -14 -15 -43 -39 -31 -30 -20
-4 -14 -14 -44 -39 -31 -31 -20
-3 -14 -14 -43 -39 -29 -31 -21
-3 -15 -14 -43 -39 -28 -31 -21
-3 -15 -14 -43 -38 -27 -31 -21
-6 -15 -13 -41 -36 -24 -29 -19
-10 -14 -12 -40 -35 -20 -27 -18
-13 -14 -12 -40 -34 -18 -27 -17
-13 -14 -11 -40 -35 -17 -27 -16
-10 -13 -11 -40 -35 -15 -27 -16
-9 -13 -12 -40 -36 -14 -28 -17
-11 -13 -11 -39 -35 -12 -27 -17
-12 -13 -11 -39 -35 -12 -28 -18
-9 -13 -12 -40 -36 -12 -29 -20
-8 -14 -12 -39 -36 -11 -29 -20
-7 -14 -11 -38 -36 -10 -30 -20
-6 -15 -8 -37 -36 -11 -32 -22
-7 -17 -2 -33 -35 -11 -35 -26
-12 -19 6 -29 -35 -14 -40 -30
-18 -22 17 -23 -35 -19 -46 -33
-24 -25 29 -16 -36 -26 -52 -37
-24 -25 36 -14 -39 -32 -58 -43
-20 -22 37 -14 -39 -32 -59 -43
-13 -18 37 -6 -29 -19 -48 -32
-5 -15 40 17 -5 6 -28 -17
8 -8 39 37 24 36 -5 2
21 8 34 42 49 74 28 28
35 31 23 36 71 121 70 63
52 64 7 27 97 179 122 107
70 101 -17 14 122 243 180 155
88 138 -53 -15 136 303 236 200
103 176 -100 -56 137 360 289 245
117 215 -153 -96 139 414 341 289
131 246 -196 -117 150 465 384 324
138 259 -225 -121 167 504 410 342
136 250 -237 -109 188 536 425 347
127 232 -243 -98 204 557 426 340
106 216 -251 -102 195 549 408 321
75 194 -255 -127 151 507 368 290
47 163 -253 -158 80 431 309 244
27 126 -244 -186 -2 324 230 187
11 82 -230 -206 -94 184 130 116
-8 32 -205 -218 -186 24 16 35
-24 -12 -177 -219 -248 -96 -73 -32
-29 -31 -157 -213 -260 -132 -108 -62
-28 -37 -143 -195 -231 -112 -104 -64
-29 -44 -124 -171 -197 -91 -98 -63
-29 -48 -102 -145 -171 -77 -93 -62
-26 -48 -82 -119 -145 -60 -81 -57
-22 -47 -66 -98 -121 -44 -71 -51
-21 -47 -52 -78 -102 -31 -64 -46
-20 -44 -41 -63 -87 -20 -57 -40
-19 -36 -32 -49 -72 -10 -49 -32
-21 -32 -20 -32 -58 -2 -41 -27
-20 -29 -8 -20 -47 6 -36 -24
-15 -27 -3 -14 -39 10 -34 -23
-12 -23 1 -11 -35 13 -31 -21
-12 -20 3 -9 -31 14 -30 -19
-13 -19 6 -7 -28 17 -28 -17
-11 -18 8 -6 -26 19 -26 -16
-11 -18 10 -4 -24 19 -26 -15
-13 -18 12 1 -21 19 -25 -14
-15 -18 13 2 -20 19 -25 -16
-14 -18 13 3 -19 18 -26 -17
-14 -19 13 3 -19 17 -26 -17
-13 -18 13 3 -18 19 -25 -15
-11 -18 11 2 -18 20 -25 -15
-9 -17 10 1 -17 20 -24 -15
-8 -17 11 2 -15 21 -22 -14
-8 -17 12 3 -13 23 -21 -12
-9 -16 13 5 -11 23 -20 -12
-13 -17 15 8 -9 24 -19 -10
-17 -17 18 12 -7 26 -18 -9
-18 -17 19 14 -6 25 -18 -10
-14 -17 18 13 -6 24 -19 -11
-13 -17 17 11 -6 24 -20 -12
-14 -17 18 12 -5 26 -19 -11
-14 -16 16 11 -4 26 -19 -10
-11 -16 16 11 -3 27 -18 -10
-8 -15 18 12 -2 29 -16 -9
-6 -16 17 13 -2 27 -17 -10
-4 -16 18 15 0 26 -17 -10
-6 -17 20 18 3 28 -16 -10
-8 -17 20 19 3 27 -17 -11
-12 -17 21 20 5 27 -17 -11
-14 -17 22 22 7 30 -15 -8
-15 -17 22 24 9 33 -13 -6
-13 -17 20 24 9 32 -13 -6
-9 -16 21 23 9 31 -12 -6
-9 -16 22 25 11 34 -10 -5
-11 -16 23 27 13 34 -9 -4
-13 -16 25 30 14 35 -9 -4
-15 -16 26 34 17 36 -9 -4
-16 -17 27 37 19 36 -10 -4
-14 -17 27 38 20 36 -10 -5
-11 -16 26 37 18 34 -11 -7
-8 -16 26 38 20 36 -10 -6
-8 -16 27 40 23 37 -9 -5
-9 -15 29 43 25 39 -7 -2
-9 -15 31 46 28 42 -6 0
-10 -15 32 49 30 44 -5 0
-10 -16 33 52 33 44 -5 0
-11 -17 35 57 36 46 -4 0
-11 -17 36 60 38 46 -5 0
-10 -17 36 61 39 45 -6 -2
-9 -17 37 64 42 47 -5 -2
-8 -17 38 67 45 48 -4 0
-8 -16 39 70 49 50 -2 2
-6 -15 40 72 52 52 1 3
-5 -15 43 76 55 55 2 4
-5 -14 44 80 58 56 3 4
-6 -15 47 87 63 58 5 5
-7 -15 49 93 66 60 5 5
-8 -16 52 98 70 62 6 5
-8 -16 53 102 74 63 6 5
-8 -15 55 107 79 67 8 7
-5 -14 56 108 81 68 8 6
-2 -13 58 111 86 70 10 7
2 -12 60 116 91 72 11 8
3 -11 61 120 95 75 12 9
4 -11 64 127 99 78 14 10
1 -11 67 134 105 81 16 11
-2 -12 70 140 111 85 18 12
-3 -13 72 146 116 87 19 13
-3 -15 75 151 121 90 20 15
-2 -14 75 154 125 93 22 15
0 -14 77 158 129 96 25 17
0 -13 78 161 133 99 27 19
3 -13 79 164 137 102 29 19
5 -12 80 167 140 104 30 20
7 -12 81 171 143 106 31 21
8 -12 82 175 147 108 33 23
6 -12 85 179 150 109 33 23
5 -12 87 182 153 111 35 24
6 -12 86 183 154 111 34 23
7 -12 86 184 155 113 35 24
8 -12 87 184 157 115 37 26
8 -11 86 183 158 116 38 26
7 -10 87 183 159 118 39 27
7 -9 87 182 159 119 40 28
6 -9 87 181 158 118 42 28
3 -9 87 181 158 118 43 29
3 -9 86 179 156 117 42 28
6 -9 84 176 153 115 40 27
7 -9 82 172 149 113 39 27
6 -9 79 165 145 111 39 28
5 -9 77 160 142 111 39 30
4 -8 75 153 138 110 40 30
4 -8 73 147 133 109 40 31
5 -6 69 139 125 105 38 30
5 -6 66 131 117 101 37 29
6 -6 62 122 110 96 34 26
4 -6 59 114 103 92 32 25
-3 -7 57 107 95 88 30 24
-9 -7 55 100 88 85 29 25
-12 -8 53 93 81 81 29 27
-8 -9 48 81 72 75 27 25
-4 -10 44 72 63 70 24 23
-5 -10 40 64 56 67 22 22
-6 -12 38 57 50 64 20 21
-7 -13 36 52 44 60 18 19
-11 -14 34 48 37 56 16 18
-17 -15 32 44 33 53 14 17
-19 -16 30 38 27 48 12 15
-17 -16 26 31 20 42 9 12
-17 -16 24 24 15 37 7 11
-18 -17 23 19 11 35 6 11
-20 -17 22 16 8 33 6 11
-22 -18 22 13 5 32 6 11
-23 -20 21 11 3 31 5 10
-23 -21 20 9 0 28 3 9
-22 -22 19 7 -4 25 1 7
-22 -23 18 5 -7 22 -2 5
-23 -24 17 4 -9 20 -3 4
-23 -26 17 3 -11 18 -5 4
-22 -27 16 0 -13 16 -7 3
-21 -28 15 -3 -15 15 -7 2
-23 -28 15 -5 -16 15 -7 2
-25 -28 16 -5 -16 15 -5 4
-26 -28 15 -6 -16 16 -5 5
-26 -28 15 -6 -16 16 -5 5
-25 -29 15 -6 -16 14 -6 5
-23 -29 14 -5 -17 13 -7 3
-23 -29 14 -6 -18 12 -8 2
-25 -29 13 -7 -19 11 -9 1
-28 -29 14 -7 -19 12 -7 2
-30 -29 15 -7 -18 13 -6 3
-31 -29 15 -8 -18 13 -6 4
-28 -29 14 -10 -19 11 -7 3
-24 -29 13 -11 -19 11 -8 2
-23 -30 13 -10 -20 11 -8 2
-25 -32 14 -8 -19 11 -7 3
-24 -32 14 -8 -19 10 -8 3
-23 -33 13 -8 -20 10 -8 3
-25 -32 13 -8 -20 9 -9 3
-30 -32 15 -6 -19 11 -7 5
-33 -32 16 -6 -17 13 -5 6
-33 -32 16 -7 -17 14 -4 7
-31 -31 15 -9 -18 13 -4 6
-31 -31 16 -9 -18 12 -4 7
-32 -31 16 -8 -17 11 -4 7
-33 -32 17 -6 -16 11 -3 7
-32 -33 17 -6 -17 11 -4 6
-31 -34 16 -6 -17 11 -5 6
-30 -33 15 -7 -18 10 -7 5
-28 -33 15 -7 -18 10 -7 5
-27 -33 13 -9 -19 9 -7 3
-27 -33 13 -9 -19 9 -7 3
-27 -33 13 -9 -18 10 -6 5
-29 -33 14 -7 -16 12 -4 7
-33 -33 16 -5 -15 14 -2 9
-35 -33 17 -3 -14 14 1 10
-32 -33 16 -4 -15 13 -2 9
-29 -33 15 -4 -16 11 -4 7
-29 -34 16 -3 -16 10 -5 6
-29 -34 16 -4 -16 10 -5 5
-28 -34 16 -6 -16 10 -4 6
-27 -34 16 -6 -16 10 -3 7
-27 -33 15 -7 -17 10 -4 5
-27 -33 15 -7 -17 10 -4 6
-28 -33 16 -5 -16 11 -2 8
-32 -34 17 -3 -14 12 0 9
-34 -34 18 0 -14 13 0 9
-31 -35 17 -2 -15 11 -2 8
-29 -35 17 0 -15 10 -2 9
-31 -35 17 0 -14 11 0 9
-34 -35 18 0 -13 12 1 10
-37 -35 19 1 -11 13 2 11
-37 -34 19 0 -11 13 2 11
-35 -34 18 0 -11 13 2 10
-33 -33 17 0 -12 12 1 10
-32 -33 17 2 -11 12 1 10
-32 -34 18 2 -12 12 1 10
-35 -35 20 4 -11 13 3 11
-36 -35 20 4 -11 12 2 11
-36 -35 19 3 -10 13 2 11
-35 -35 19 3 -9 13 3 12
-34 -37 19 2 -8 14 4 11
-32 -40 20 2 -8 14 3 11
-31 -39 20 2 -8 14 3 11
-32 -37 20 2 -9 11 2 9
-34 -35 20 4 -9 11 2 9
-33 -34 20 5 -10 11 1 9
-32 -33 18 4 -11 9 0 7
-32 -33 18 3 -12 9 0 7
-32 -31 17 1 -12 9 -2 7
-32 -30 17 0 -12 10 0 8
-35 -29 18 0 -10 11 2 9
-38 -27 18 0 -10 12 2 9
-35 -25 16 -2 -12 10 0 7
-31 -24 15 -3 -13 8 0 6
-32 -23 15 -3 -13 7 0 6
-35 -22 15 -4 -13 7 -2 6
-36 -20 15 -6 -13 7 -2 6
-32 -18 13 -8 -16 4 -5 4
-26 -17 11 -10 -18 2 -7 2
-23 -17 9 -11 -19 1 -8 1
-23 -16 8 -14 -20 0 -8 0
-23 -14 8 -14 -20 1 -7 1
-25 -13 8 -14 -20 1 -6 2
-27 -11 8 -13 -20 1 -6 3
-25 -11 7 -14 -21 -2 -8 1
-20 -10 5 -16 -24 -4 -11 -3
-17 -10 4 -17 -26 -6 -12 -5
-17 -9 4 -17 -27 -7 -12 -5
-17 -7 3 -18 -27 -7 -13 -5
-17 -4 1 -20 -28 -8 -14 -6
-15 1 -2 -23 -30 -9 -16 -8
-14 2 -3 -24 -31 -11 -16 -8
-13 2 -3 -24 -32 -11 -16 -8
-11 1 -3 -23 -32 -11 -16 -7
-8 1 -4 -24 -32 -13 -17 -9
-6 2 -6 -24 -33 -14 -18 -10
-3 2 -7 -25 -34 -16 -19 -12
2 1 -9 -27 -36 -17 -20 -13
3 1 -11 -30 -37 -19 -22 -15
2 1 -10 -30 -37 -18 -21 -15
1 1 -10 -31 -37 -19 -21 -15
0 1 -10 -31 -37 -19 -21 -14
-5 1 -8 -29 -35 -17 -18 -12
-5 0 -8 -29 -35 -17 -19 -13
-3 0 -8 -29 -36 -18 -21 -14
-2 0 -7 -28 -36 -19 -22 -14
0 0 -7 -28 -36 -19 -22 -14
1 -2 -6 -27 -35 -19 -22 -14
3 -2 -6 -28 -35 -19 -22 -14
6 1 -7 -29 -37 -20 -23 -16
8 2 -8 -31 -37 -20 -23 -16
8 3 -8 -31 -36 -20 -22 -15
5 3 -7 -30 -35 -18 -21 -13
2 2 -6 -29 -33 -18 -20 -11
1 2 -4 -27 -32 -17 -18 -10
0 2 -3 -25 -31 -16 -17 -9
-5 3 0 -22 -29 -14 -15 -8
-8 4 3 -20 -26 -12 -13 -6
-8 6 3 -20 -26 -12 -13 -6
-5 8 3 -21 -27 -12 -13 -6
-2 9 2 -21 -27 -11 -12 -5
1 11 1 -22 -26 -11 -12 -4
1 11 1 -22 -25 -10 -10 -3
1 11 1 -21 -25 -10 -10 -2
0 11 2 -20 -25 -11 -12 -4
3 10 1 -20 -26 -12 -13 -5
6 9 0 -20 -26 -12 -13 -5
6 9 -2 -20 -26 -11 -11 -5
4 10 -3 -19 -24 -10 -9 -2
5 12 -4 -19 -23 -8 -7 1
6 15 -3 -18 -20 -4 -3 3
7 17 -3 -16 -18 1 1 6
10 19 -7 -16 -17 2 1 8
12 20 -12 -19 -20 -2 -2 6
12 17 -13 -21 -23 -5 -4 4
11 14 -15 -24 -26 -9 -7 1
10 12 -16 -26 -29 -12 -10 -3
9 12 -16 -28 -31 -14 -11 -3
9 11 -17 -29 -31 -14 -11 -3
8 10 -15 -28 -29 -13 -10 -2
7 8 -13 -27 -29 -13 -10 -2
5 6 -12 -26 -28 -14 -11 -2
6 4 -13 -26 -29 -13 -11 -2
9 4 -14 -27 -30 -14 -11 -3
13 3 -15 -28 -31 -15 -11 -3
14 3 -15 -28 -30 -15 -11 -3
11 3 -15 -28 -30 -15 -10 -2
6 3 -13 -26 -28 -14 -9 0
1 2 -12 -26 -28 -13 -8 1
-2 1 -11 -26 -28 -13 -8 0
-3 0 -11 -26 -29 -15 -10 -2
-5 -3 -10 -27 -29 -15 -10 -2
-8 -6 -10 -29 -31 -17 -12 -4
-9 -9 -11 -30 -33 -20 -15 -8
-9 -10 -11 -31 -35 -22 -18 -11
-10 -11 -10 -32 -36 -23 -19 -12
-10 -12 -11 -33 -38 -26 -22 -15
-10 -14 -11 -33 -38 -26 -22 -16
-10 -15 -12 -34 -39 -27 -23 -16
-10 -14 -12 -35 -39 -27 -23 -15
-10 -14 -11 -36 -39 -27 -23 -15
-9 -14 -12 -36 -39 -27 -23 -15
-10 -14 -13 -36 -39 -27 -23 -15
-10 -14 -13 -36 -39 -27 -23 -15
-10 -14 -14 -36 -39 -27 -23 -15
-10 -14 -13 -36 -39 -28 -22 -15
-10 -15 -13 -36 -39 -28 -23 -16
-10 -16 -13 -35 -40 -29 -23 -16
-11 -17 -11 -35 -39 -28 -22 -15
-12 -17 -11 -35 -39 -28 -22 -15
-12 -17 -12 -36 -39 -29 -22 -16
-12 -17 -12 -36 -39 -29 -22 -16
-11 -17 -12 -36 -39 -28 -22 -15
-10 -16 -12 -37 -40 -29 -22 -16
-8 -16 -12 -37 -39 -29 -23 -16
-6 -17 -11 -36 -39 -30 -23 -17
-3 -17 -12 -37 -41 -31 -25 -18
0 -17 -13 -38 -41 -33 -26 -19
-4 -18 -13 -37 -40 -32 -25 -17
-11 -18 -11 -35 -38 -30 -24 -16
-18 -18 -10 -34 -36 -29 -22 -15
-21 -18 -9 -33 -36 -28 -21 -15
-18 -17 -10 -35 -38 -29 -22 -20
-16 -17 -10 -35 -39 -29 -23 -21
-16 -16 -10 -35 -38 -29 -23 -19
-14 -15 -10 -35 -38 -30 -23 -18
-13 -15 -10 -34 -37 -30 -22 -17
-15 -15 -9 -34 -37 -29 -22 -15
-17 -15 -8 -32 -35 -28 -20 -12
-16 -15 -8 -32 -35 -27 -20 -10
-15 -15 -9 -34 -36 -28 -20 -8
-14 -16 -8 -35 -36 -27 -20 -7
-14 -16 -9 -34 -37 -27 -20 -5
-14 -16 -9 -34 -37 -27 -20 -5
-15 -16 -7 -32 -35 -27 -20 -3
-16 -17 -6 -31 -34 -28 -22 -4
-16 -17 -3 -29 -34 -29 -24 -6
-17 -19 2 -26 -33 -34 -29 -9
-18 -21 9 -22 -34 -40 -35 -12
-20 -24 19 -17 -33 -47 -41 -14
-21 -26 29 -12 -35 -55 -49 -19
-21 -26 36 -10 -37 -63 -54 -21
-19 -23 37 -11 -37 -63 -52 -17
-14 -19 37 -3 -28 -51 -41 -7
-6 -15 39 22 -2 -27 -22 12
7 -8 40 47 30 5 4 32
19 7 34 53 56 42 36 60
31 31 24 46 77 87 78 95
47 63 10 36 102 144 132 140
66 99 -11 23 126 205 189 191
84 135 -43 -6 137 262 244 242
99 174 -87 -51 136 314 298 289
112 213 -137 -97 134 366 349 332
122 242 -179 -123 140 415 391 366
130 253 -204 -129 153 454 415 383
129 241 -215 -116 175 487 428 385
116 225 -221 -105 190 507 427 376
97 209 -228 -112 179 498 407 354
74 187 -238 -141 130 450 362 317
54 158 -242 -178 57 371 299 268
37 125 -237 -204 -22 266 221 211
20 84 -224 -221 -108 127 119 140
-8 34 -197 -226 -192 -31 7 60
-32 -10 -165 -221 -247 -148 -79 -4
-43 -29 -143 -207 -253 -179 -108 -28
-39 -36 -131 -190 -225 -159 -103 -29
-33 -41 -117 -171 -195 -141 -98 -31
-32 -46 -99 -147 -171 -128 -93 -31
-34 -46 -78 -120 -141 -106 -79 -22
-33 -47 -60 -97 -115 -88 -67 -15
-29 -47 -49 -80 -99 -77 -61 -11
-24 -44 -40 -66 -83 -66 -53 -5
-20 -37 -33 -53 -69 -56 -46 1
-19 -33 -21 -37 -55 -46 -38 6
-17 -30 -11 -26 -43 -39 -35 9
-15 -26 -4 -16 -34 -34 -32 10
-14 -23 3 -10 -27 -30 -29 12
-13 -19 5 -9 -24 -29 -28 12
-10 -17 6 -9 -22 -29 -27 14
-8 -14 6 -8 -19 -27 -26 16
-8 -13 7 -6 -17 -25 -24 18
-6 -12 7 -6 -15 -24 -23 18
-6 -13 9 -4 -13 -23 -22 19
-7 -13 11 -2 -11 -22 -21 20
-8 -13 12 1 -10 -22 -22 20
-10 -13 13 2 -8 -20 -20 22
-9 -13 12 2 -7 -20 -20 21
-7 -13 11 1 -5 -20 -19 21
-3 -12 9 -2 -6 -21 -21 18
0 -11 8 -3 -5 -20 -21 18
-2 -11 9 -2 -4 -19 -20 19
-3 -10 10 1 -2 -18 -18 20
-7 -10 13 5 2 -15 -16 22
-12 -10 15 7 3 -15 -15 23
-16 -11 16 9 5 -14 -14 23
-14 -12 16 9 7 -13 -14 23
-9 -11 15 8 7 -12 -15 22
-8 -10 14 7 8 -14 -15 22
-11 -10 15 8 10 -11 -13 24
-11 -9 15 9 11 -9 -12 25
-9 -9 15 9 12 -9 -11 25
-7 -9 15 10 12 -10 -12 24
-6 -9 16 12 13 -9 -12 23
-7 -10 19 15 15 -8 -11 23
-6 -11 20 16 16 -9 -12 22
-4 -11 19 16 16 -10 -14 21
-4 -11 18 17 17 -9 -13 22
-4 -11 17 17 18 -8 -12 23
-4 -10 18 18 21 -6 -10 24
-4 -9 17 18 22 -5 -10 25
-4 -9 18 19 24 -3 -9 25
-4 -10 20 23 26 0 -6 27
-5 -10 22 26 28 1 -6 26
-5 -10 23 28 29 1 -7 26
-6 -8 24 31 31 0 -8 25
-6 -8 25 33 32 0 -9 24
-4 -8 23 33 32 0 -9 23
-3 -7 22 33 34 1 -9 23
-2 -6 23 34 37 4 -7 24
-2 -5 23 35 39 5 -7 25
0 -5 24 37 42 7 -5 26
3 -5 25 40 43 7 -5 25
6 -6 25 44 45 7 -6 24
5 -7 28 49 48 9 -4 25
3 -6 29 53 52 10 -4 26
1 -5 30 56 55 13 -2 28
2 -6 31 58 57 14 -2 27
5 -6 31 59 59 14 -2 26
3 -5 32 62 63 17 0 27
-2 -5 34 67 68 21 3 30
-4 -4 37 72 72 24 5 32
-2 -4 38 75 74 25 5 32
0 -4 39 79 79 28 6 33
2 -5 40 84 82 29 6 31
4 -6 42 89 86 29 6 30
5 -6 44 93 90 31 6 29
5 -5 44 97 93 33 8 30
5 -4 45 101 99 38 11 32
6 -3 47 104 103 42 13 33
9 -3 49 108 108 45 15 34
12 -2 51 112 112 48 16 35
12 0 54 118 117 52 19 37
13 1 55 123 120 54 20 37
15 0 57 129 125 56 20 38
16 0 58 133 129 58 19 38
16 0 59 137 134 62 22 39
16 1 61 141 138 65 25 40
16 1 62 145 143 68 27 42
16 1 63 148 147 71 29 43
16 2 65 151 151 75 32 45
16 2 67 154 154 78 34 47
17 2 67 155 156 79 35 48
19 1 67 158 157 82 36 48
21 1 66 160 158 84 36 47
20 2 68 162 162 86 36 47
19 2 70 164 165 87 37 47
17 3 69 164 165 88 37 46
16 3 69 164 165 89 38 46
17 4 70 164 167 90 39 48
20 5 68 161 165 90 39 49
24 7 66 158 163 88 38 48
27 8 65 156 161 87 38 48
27 8 64 155 159 87 38 47
24 8 64 153 157 87 38 48
21 8 63 151 155 88 39 48
19 8 63 147 153 87 40 49
17 8 61 142 148 86 39 48
14 9 59 135 144 84 39 49
15 9 56 127 138 80 38 49
17 10 52 118 131 76 36 48
16 10 50 111 122 72 35 47
12 10 49 105 115 69 34 47
10 9 46 98 107 65 32 46
10 9 43 90 99 60 29 44
9 9 40 82 92 56 27 42
7 9 37 74 84 51 24 39
6 9 34 66 76 47 22 38
6 8 31 57 68 39 19 36
4 8 28 50 61 36 17 35
2 7 25 43 55 33 16 35
2 7 22 35 48 29 13 33
3 5 20 29 40 24 11 31
1 3 18 25 35 21 8 29
-3 3 16 21 30 17 6 27
-2 2 14 15 24 11 2 24
-2 2 12 9 18 6 -2 22
-3 1 11 6 15 5 -3 21
-4 0 10 2 12 3 -4 21
-5 -2 8 -3 7 0 -6 19
-6 -4 7 -6 4 -2 -7 18
-5 -4 6 -9 0 -4 -8 17
-2 -3 4 -12 -4 -7 -10 15
0 -4 3 -14 -6 -9 -12 14
-2 -5 3 -15 -8 -12 -14 13
-5 -6 4 -14 -9 -12 -14 13
-8 -7 5 -14 -10 -13 -14 13
-11 -8 5 -15 -11 -13 -13 13
-12 -9 5 -16 -11 -12 -12 14
-8 -9 3 -19 -12 -13 -13 13
-5 -8 0 -22 -15 -15 -15 11
-5 -7 -2 -23 -16 -16 -16 10
-6 -7 -2 -24 -17 -18 -17 9
-8 -7 0 -23 -18 -18 -18 8
-10 -8 1 -22 -18 -18 -18 8
-13 -8 2 -21 -18 -17 -18 7
-15 -9 3 -21 -17 -17 -18 6
-14 -9 2 -22 -18 -18 -19 6
-13 -10 2 -23 -17 -18 -18 7
-12 -10 0 -25 -18 -19 -18 7
-12 -10 0 -25 -19 -17 -17 8
-11 -9 0 -24 -19 -15 -16 9
-10 -9 0 -24 -20 -16 -17 9
-9 -9 0 -24 -20 -17 -18 8
-10 -8 0 -24 -21 -18 -19 6
-10 -8 0 -24 -22 -19 -20 5
-10 -9 1 -24 -22 -20 -21 4
-10 -10 1 -24 -22 -19 -20 4
-10 -9 -2 -26 -23 -20 -21 3
-10 -8 -3 -27 -22 -20 -20 4
-10 -9 -3 -27 -22 -19 -19 4
-9 -9 -3 -27 -22 -18 -19 5
-10 -9 -2 -25 -22 -17 -18 5
-10 -9 0 -24 -22 -17 -18 5
-10 -10 1 -22 -22 -16 -18 5
-8 -11 0 -23 -23 -18 -19 4
-8 -11 -2 -23 -23 -18 -19 4
-9 -11 -2 -23 -24 -17 -17 5
-11 -10 -2 -24 -23 -17 -17 5
-11 -8 -3 -25 -23 -18 -18 5
-9 -7 -4 -26 -24 -19 -19 4
-8 -7 -3 -25 -25 -18 -19 4
-7 -6 -3 -26 -25 -19 -20 4
-8 -6 -2 -24 -24 -19 -19 4
-9 -8 0 -22 -25 -18 -20 3
-12 -9 1 -21 -24 -18 -20 3
-15 -10 2 -20 -23 -17 -19 4
-14 -12 1 -21 -23 -16 -18 4
-11 -11 -2 -22 -24 -16 -18 3
-10 -10 -2 -22 -24 -16 -18 3
-13 -9 0 -21 -23 -16 -18 3
-15 -8 1 -20 -22 -14 -17 4
-14 -7 1 -20 -23 -15 -18 3
-10 -8 0 -20 -25 -16 -19 1
-8 -8 0 -20 -27 -18 -20 0
-8 -8 1 -20 -27 -18 -19 0
-11 -9 2 -18 -25 -15 -17 1
-13 -10 3 -18 -25 -14 -16 2
-12 -9 1 -19 -27 -16 -17 2
-11 -9 1 -19 -27 -15 -16 3
-13 -9 1 -20 -27 -14 -16 3
-12 -9 1 -19 -27 -13 -16 4
-10 -8 0 -19 -27 -14 -16 3
-10 -8 1 -18 -27 -13 -16 3
-11 -7 1 -18 -28 -14 -16 3
-10 -8 2 -17 -28 -14 -17 2
-9 -8 2 -16 -27 -14 -17 1
-9 -8 1 -17 -28 -14 -17 0
-10 -8 1 -18 -28 -15 -17 1
-10 -8 1 -17 -28 -14 -16 2
-10 -7 1 -16 -28 -13 -15 3
-9 -6 0 -17 -29 -13 -15 3
-8 -6 0 -16 -29 -13 -15 2
-7 -7 0 -16 -30 -13 -15 1
-7 -8 0 -16 -31 -14 -17 0
-8 -8 1 -16 -31 -15 -18 -3
-8 -7 1 -16 -31 -15 -19 -4
-8 -7 1 -16 -30 -14 -19 -4
-8 -7 0 -16 -31 -15 -19 -4
-8 -8 -2 -17 -32 -15 -19 -3
-8 -8 -2 -17 -33 -14 -18 -2
-8 -7 -2 -16 -32 -13 -17 1
-11 -6 1 -15 -31 -11 -15 3
-14 -5 1 -14 -31 -10 -14 2
-13 -6 1 -14 -32 -11 -15 1
-11 -6 1 -14 -32 -11 -16 1
-10 -7 1 -15 -32 -12 -17 0
-10 -8 0 -16 -32 -13 -17 -2
-9 -9 0 -17 -33 -13 -17 -2
-8 -9 -2 -17 -34 -13 -16 0
-8 -8 -3 -18 -36 -13 -16 0
-8 -8 -4 -18 -36 -12 -16 0
-8 -7 -3 -18 -37 -12 -16 0
-8 -7 -2 -18 -37 -13 -16 -2
-8 -8 -2 -18 -39 -14 -18 -3
-9 -8 0 -17 -39 -14 -18 -2
-10 -7 -2 -17 -39 -14 -17 -2
-10 -7 -2 -18 -38 -14 -17 -2
-10 -6 -3 -19 -40 -15 -18 -3
-10 -6 -3 -19 -40 -15 -19 -4
-9 -5 -4 -19 -40 -14 -18 -4
-7 -5 -5 -20 -41 -15 -19 -5
-8 -6 -4 -19 -41 -14 -17 -3
-9 -6 -4 -20 -43 -14 -18 -3
-11 -7 -2 -19 -41 -14 -17 -3
-11 -7 -2 -19 -43 -14 -17 -4
-10 -7 0 -18 -41 -15 -17 -5
-8 -6 -2 -19 -43 -16 -18 -6
-6 -5 -4 -20 -44 -17 -19 -6
-5 -5 -5 -21 -45 -17 -19 -7
-4 -4 -5 -21 -45 -17 -19 -6
-5 -5 -4 -21 -46 -16 -18 -6
-6 -5 -2 -19 -45 -15 -17 -5
-5 -6 -2 -19 -46 -14 -18 -6
-5 -7 0 -18 -46 -14 -18 -7
-6 -4 0 -19 -45 -15 -17 -6
-8 -2 0 -18 -45 -14 -16 -3
-9 1 1 -17 -44 -13 -15 -2
-9 1 3 -16 -44 -12 -14 -2
-8 2 3 -16 -44 -12 -14 -2
-7 3 4 -16 -43 -10 -12 1
-6 3 3 -16 -43 -10 -12 1
-5 4 3 -16 -43 -10 -11 0
-5 4 4 -15 -43 -10 -12 -2
-6 5 5 -14 -43 -10 -12 -3
-6 5 6 -13 -41 -9 -12 -3
-3 5 4 -13 -43 -10 -13 -3
1 5 2 -15 -45 -10 -12 -2
-2 6 1 -15 -46 -9 -11 0
-2 7 0 -14 -44 -8 -9 1
1 8 -3 -14 -43 -6 -7 3
2 10 -5 -13 -41 -3 -4 5
4 14 -6 -12 -39 0 -2 6
6 16 -8 -12 -40 0 0 7
6 15 -9 -13 -40 0 0 7
4 12 -10 -15 -43 -4 -4 6
4 9 -11 -17 -46 -7 -6 4
4 7 -11 -18 -48 -9 -8 3
3 6 -11 -19 -49 -9 -8 3
1 5 -11 -19 -49 -9 -7 4
2 5 -12 -20 -51 -10 -9 2
3 5 -12 -20 -52 -10 -9 1
3 4 -12 -21 -52 -11 -10 0
3 2 -11 -20 -52 -11 -10 0
3 1 -11 -19 -53 -11 -11 -2
6 1 -12 -20 -55 -12 -12 -3
6 0 -11 -20 -55 -12 -11 -2
5 -3 -11 -21 -55 -12 -11 -2
5 -3 -10 -21 -55 -13 -12 -3
4 -4 -10 -22 -55 -13 -12 -4
0 -6 -9 -21 -55 -11 -10 -3
-6 -8 -7 -20 -57 -10 -9 -2
-8 -9 -7 -21 -59 -12 -11 -4
-7 -11 -7 -23 -61 -16 -15 -8
-7 -12 -8 -26 -62 -20 -19 -13
-8 -14 -10 -27 -62 -23 -21 -14
-9 -15 -9 -27 -62 -23 -22 -14
-13 -15 -8 -27 -60 -24 -22 -15
-14 -16 -9 -29 -60 -25 -23 -17
-12 -17 -10 -29 -59 -25 -23 -17
-11 -17 -10 -29 -59 -25 -23 -16
-10 -17 -11 -30 -59 -25 -23 -16
-9 -17 -11 -30 -57 -25 -23 -16
-8 -17 -10 -30 -56 -25 -23 -16
-9 -16 -9 -30 -54 -25 -23 -16
-10 -17 -9 -30 -53 -26 -25 -18
-11 -17 -8 -29 -51 -27 -25 -18
-11 -17 -9 -30 -50 -28 -26 -19
-11 -17 -10 -30 -49 -28 -26 -20
-11 -17 -10 -31 -48 -28 -26 -19
-11 -18 -10 -31 -46 -28 -25 -19
-11 -18 -10 -31 -45 -27 -25 -20
-9 -17 -11 -32 -45 -28 -26 -21
-8 -17 -10 -32 -44 -27 -26 -21
-9 -17 -11 -33 -41 -28 -26 -21
-10 -17 -11 -37 -40 -28 -27 -22
-10 -18 -9 -36 -38 -29 -26 -21
-8 -18 -10 -36 -39 -31 -27 -22
-8 -18 -9 -35 -38 -31 -27 -22
-9 -17 -9 -34 -36 -29 -26 -20
-10 -17 -9 -32 -35 -28 -25 -20
-8 -17 -9 -30 -33 -28 -24 -20
-7 -17 -9 -28 -32 -28 -25 -20
-7 -17 -9 -26 -31 -28 -25 -21
-10 -17 -8 -24 -30 -28 -26 -21
-12 -17 -7 -21 -28 -27 -26 -20
-12 -17 -7 -20 -27 -28 -26 -20
-10 -16 -9 -20 -27 -29 -28 -22
-8 -16 -9 -20 -26 -29 -28 -22
-9 -16 -9 -19 -24 -29 -27 -23
-12 -16 -8 -18 -22 -28 -26 -21
-15 -17 -7 -16 -19 -27 -25 -19
-14 -17 -7 -14 -18 -28 -24 -18
-13 -17 -7 -13 -18 -28 -25 -20
-12 -17 -7 -11 -16 -28 -26 -21
