I II V1 V2 V3 V4 V5 V6
7 7 -5 16 24 32 21 4
7 6 -3 16 28 34 23 5
6 8 -3 14 28 32 21 6
5 8 -2 17 27 33 22 7
6 0 -1 22 27 35 24 8
7 3 -4 22 24 33 21 6
6 1 0 23 30 35 22 8
4 2 -3 21 25 33 20 5
7 13 -4 21 24 33 19 4
9 10 0 20 27 36 21 6
4 7 -2 17 23 34 20 5
6 11 -4 18 28 34 20 4
7 11 -3 20 29 34 20 5
3 10 -4 22 30 34 20 5
5 13 -4 20 23 35 19 5
4 13 -2 19 34 36 20 6
10 15 -5 20 37 32 16 5
12 12 -3 25 31 35 18 5
9 9 -2 23 26 35 19 6
9 12 0 23 23 36 20 6
11 15 -1 25 31 36 19 5
12 20 -3 23 36 35 19 5
11 27 -5 22 33 33 17 4
8 24 -5 23 30 33 18 4
10 23 -2 24 40 37 22 7
9 21 2 29 33 41 25 10
5 17 3 32 36 43 26 11
9 23 1 27 33 42 23 7
8 20 4 33 36 47 26 10
10 22 3 31 47 44 25 9
11 24 2 30 44 43 26 10
10 23 2 31 37 43 27 11
10 26 1 30 32 42 26 11
11 24 0 34 34 44 27 12
13 27 -1 34 34 42 26 11
16 27 -4 32 42 44 26 10
16 26 -5 29 38 43 25 10
15 24 -4 33 29 43 25 10
15 29 -4 36 35 44 27 11
12 29 -4 35 41 46 28 12
14 30 -3 35 48 47 30 13
13 29 -5 34 48 49 31 14
16 29 -7 37 35 49 32 16
20 30 -8 40 37 53 37 19
20 35 -13 32 40 50 36 18
19 34 -16 29 39 49 35 18
20 29 -17 26 38 49 35 17
16 25 -18 27 35 45 33 15
14 19 -17 31 33 45 32 14
14 20 -17 37 41 47 32 14
14 19 -19 31 45 44 28 11
17 22 -15 30 39 45 28 12
18 25 -13 29 36 44 28 12
16 22 -14 27 41 43 28 13
14 18 -13 29 39 45 30 15
14 16 -14 27 29 45 29 15
13 17 -14 26 29 43 27 12
12 14 -15 24 25 42 26 11
12 18 -14 25 19 42 24 9
13 9 -8 31 28 46 27 11
12 10 -8 31 36 45 27 9
14 21 -13 31 29 41 22 4
12 17 -12 31 29 44 23 4
12 13 -12 31 31 44 22 4
10 9 -9 33 35 44 23 6
7 8 -9 34 31 42 22 6
6 9 -10 36 23 38 19 3
7 9 -9 35 29 38 19 4
7 6 -10 33 33 36 16 2
4 4 -12 31 22 32 13 0
4 1 -10 32 13 33 13 -1
2 0 -10 28 19 32 12 -2
2 3 -10 28 22 31 11 -3
2 -2 -8 29 25 33 13 -1
3 -1 -10 30 20 33 13 -1
7 3 -12 28 19 31 12 -2
5 5 -13 30 16 31 11 -4
2 6 -12 31 18 32 13 -4
8 5 -10 28 22 34 13 -2
7 2 -7 30 19 34 15 -1
4 3 -10 33 24 32 12 -5
4 -4 -9 34 24 34 13 -3
4 -8 -9 30 21 34 12 -3
6 -5 -8 34 22 36 14 -2
5 -1 -8 36 21 37 14 -1
4 6 -11 35 28 36 13 -1
3 7 -11 41 26 35 11 -3
0 5 -10 42 19 35 12 -3
1 10 -10 37 22 34 11 -4
2 5 -9 37 23 35 12 -2
5 5 -10 34 22 34 10 -4
6 4 -9 35 26 34 11 -4
5 2 -10 35 21 34 11 -4
7 3 -10 36 19 34 12 -4
5 3 -11 39 18 36 12 -4
3 4 -10 43 27 37 12 -5
6 2 -7 47 36 41 11 -7
7 0 -1 62 52 50 17 -7
11 3 1 73 62 57 18 -10
13 0 7 95 83 68 22 -9
11 1 18 118 106 84 27 -8
12 12 31 154 143 106 39 -3
14 24 46 197 186 136 55 5
13 44 60 228 229 172 77 20
16 72 70 260 276 212 104 39
16 97 81 304 342 263 137 62
17 126 95 357 418 329 183 92
27 171 99 393 499 404 236 128
34 209 98 418 574 475 286 162
48 244 90 437 638 540 337 196
69 273 72 426 694 607 392 234
95 298 48 398 728 674 452 273
131 321 13 339 769 756 530 323
165 346 -37 247 797 832 607 367
186 363 -72 165 795 877 664 402
188 348 -83 102 718 825 657 400
166 287 -76 0 522 658 579 356
129 240 -79 -162 251 475 490 309
78 200 -89 -324 -6 307 397 265
30 169 -108 -434 -190 154 296 214
-1 140 -126 -455 -259 47 202 163
-20 106 -138 -433 -280 -29 116 116
-33 68 -137 -393 -279 -107 19 62
-36 43 -129 -336 -259 -147 -46 22
-35 25 -122 -290 -234 -145 -65 -1
-34 6 -112 -253 -206 -134 -75 -19
-36 -16 -95 -209 -187 -120 -79 -31
-27 -28 -78 -166 -156 -108 -76 -37
-20 -30 -61 -118 -134 -94 -71 -40
-17 -29 -50 -90 -115 -77 -60 -38
-16 -25 -43 -69 -97 -60 -50 -32
-14 -15 -36 -50 -77 -51 -43 -28
-10 -14 -24 -32 -58 -41 -38 -26
-4 -4 -12 -13 -41 -32 -32 -22
-4 -4 -6 -1 -31 -24 -27 -20
-5 -7 -5 4 -32 -21 -26 -20
-1 -8 -2 10 -26 -16 -25 -19
-2 -5 0 14 -20 -15 -22 -18
-4 -9 1 17 -21 -16 -21 -17
-2 -13 1 19 -17 -15 -20 -17
-2 -17 0 24 -16 -15 -22 -18
-2 -18 1 26 -18 -15 -23 -20
-3 -19 4 27 -7 -11 -23 -21
-3 -10 3 30 -10 -11 -26 -23
-3 -13 7 35 -13 -8 -23 -23
-3 -16 7 40 -6 -9 -23 -22
-1 -11 5 37 -5 -10 -24 -24
0 -5 3 33 -4 -9 -23 -23
1 -10 4 33 -1 -8 -20 -22
-1 -11 4 33 -6 -7 -19 -20
-2 -9 3 35 -11 -7 -19 -21
-1 -14 2 38 -8 -8 -20 -22
-2 -15 5 42 1 -8 -20 -23
-3 -18 7 45 -5 -7 -20 -21
-1 -18 6 44 -10 -8 -23 -23
-2 -17 7 44 -7 -8 -22 -22
-1 -15 8 40 -1 -7 -20 -22
5 -12 7 41 -6 -8 -19 -20
3 -11 7 44 -8 -8 -19 -21
-1 -7 5 37 -3 -12 -20 -22
-2 -15 6 38 4 -11 -19 -20
-4 -19 6 39 -2 -13 -20 -22
-1 -18 7 44 -4 -10 -19 -20
-2 -17 7 46 -9 -10 -19 -21
-1 -14 6 44 -9 -13 -22 -24
0 -15 12 42 -6 -13 -20 -21
-1 -15 16 40 -3 -10 -19 -20
2 -15 14 44 -4 -11 -18 -19
4 -18 13 48 -5 -10 -17 -18
0 -21 13 46 -6 -11 -17 -17
1 -17 15 49 -3 -10 -17 -16
4 -11 12 49 -5 -15 -21 -20
2 -14 14 51 -13 -17 -22 -21
-1 -22 19 59 1 -14 -19 -19
-2 -19 17 54 2 -18 -23 -23
-1 -19 15 57 1 -18 -23 -23
1 -19 16 55 -2 -15 -22 -21
1 -17 13 52 -2 -15 -22 -22
2 -18 14 55 1 -15 -21 -20
-1 -20 14 57 -4 -17 -22 -19
1 -21 15 55 -11 -18 -24 -20
3 -22 16 54 -4 -20 -24 -20
-1 -22 15 55 1 -20 -26 -22
-4 -22 15 59 -9 -20 -26 -23
-1 -21 15 60 -8 -19 -27 -24
-2 -21 17 63 -10 -18 -25 -23
-1 -16 17 59 -11 -16 -24 -22
-4 -16 17 55 -4 -17 -24 -22
-6 -18 16 53 -7 -20 -26 -22
0 -17 15 57 -15 -23 -28 -22
1 -19 15 67 -17 -23 -29 -23
0 -23 18 61 -14 -22 -26 -21
1 -23 20 62 -2 -20 -27 -21
0 -20 20 62 -3 -20 -27 -23
1 -18 19 64 0 -21 -28 -24
-1 -25 20 65 -1 -22 -28 -24
0 -25 20 63 -7 -25 -31 -26
0 -21 21 66 -15 -24 -30 -25
-2 -17 18 65 -21 -27 -33 -26
-5 -20 18 66 -22 -28 -33 -25
1 -22 19 61 -22 -28 -33 -26
1 -17 16 59 -27 -32 -35 -28
-2 -23 21 64 -17 -30 -32 -26
-4 -29 22 67 -13 -30 -31 -26
-4 -21 18 66 -19 -35 -36 -31
0 -18 18 66 -27 -34 -35 -30
1 -22 22 63 -25 -32 -33 -28
-2 -24 25 67 -27 -34 -33 -28
-3 -26 24 66 -24 -36 -35 -28
-3 -22 21 61 -17 -39 -38 -31
-2 -22 21 62 -18 -39 -39 -30
-4 -25 21 62 -27 -42 -41 -31
-2 -22 23 64 -29 -43 -41 -31
-2 -25 26 68 -23 -42 -41 -32
-5 -34 28 72 -21 -42 -41 -31
-2 -39 30 71 -19 -42 -41 -31
-3 -36 31 68 -20 -40 -41 -30
-4 -28 28 61 -26 -46 -44 -34
-3 -25 28 65 -32 -48 -46 -33
-8 -29 28 64 -34 -52 -48 -35
-7 -35 26 60 -37 -54 -49 -35
-4 -25 25 62 -36 -56 -49 -35
-8 -29 27 71 -36 -54 -48 -34
-7 -28 26 67 -38 -56 -50 -36
-5 -28 27 62 -40 -56 -52 -37
-5 -29 27 57 -41 -57 -52 -38
-5 -29 29 65 -30 -57 -52 -38
-5 -31 27 68 -39 -58 -53 -38
-4 -30 26 58 -48 -62 -57 -40
-7 -35 29 60 -39 -63 -56 -39
-11 -35 31 59 -35 -65 -57 -38
-9 -31 31 62 -45 -68 -58 -40
-7 -34 34 60 -41 -69 -60 -41
-10 -40 32 60 -45 -70 -62 -43
-11 -41 31 54 -57 -71 -64 -44
-12 -41 34 55 -58 -69 -63 -42
-11 -42 35 56 -52 -72 -63 -44
-9 -39 35 54 -52 -75 -66 -44
-11 -36 33 52 -58 -79 -72 -47
-13 -40 36 51 -53 -80 -72 -46
-14 -42 37 50 -65 -80 -73 -46
-12 -50 37 53 -66 -83 -74 -46
-14 -49 38 56 -65 -86 -76 -48
-18 -48 35 52 -67 -91 -80 -53
-19 -47 38 46 -74 -94 -85 -55
-19 -45 41 46 -72 -98 -89 -57
-21 -48 42 46 -74 -101 -89 -58
-24 -49 43 47 -84 -102 -87 -55
-23 -53 42 45 -84 -106 -87 -55
-25 -52 40 38 -89 -112 -94 -58
-24 -43 37 35 -99 -118 -100 -61
-25 -44 36 38 -98 -122 -102 -64
-25 -52 38 34 -101 -125 -104 -66
-26 -58 41 32 -104 -127 -106 -66
-27 -56 40 27 -109 -134 -113 -68
-28 -57 42 24 -114 -138 -115 -71
-29 -59 41 22 -109 -144 -118 -73
-32 -59 37 20 -122 -149 -121 -74
-29 -62 39 17 -128 -152 -123 -72
-35 -64 38 11 -132 -158 -128 -76
-34 -61 38 11 -136 -163 -132 -77
-32 -61 41 13 -140 -168 -133 -78
-35 -66 41 8 -141 -173 -138 -81
-37 -66 41 8 -140 -177 -141 -81
-42 -63 39 -1 -152 -182 -146 -84
-40 -67 39 -7 -148 -185 -149 -87
-39 -66 39 -10 -151 -188 -152 -87
-42 -65 37 -14 -155 -193 -154 -88
-41 -71 38 -14 -161 -197 -155 -86
-38 -70 37 -16 -158 -201 -157 -87
-42 -69 36 -20 -159 -203 -159 -86
-44 -73 37 -22 -172 -204 -159 -87
-44 -74 37 -24 -172 -205 -161 -88
-46 -73 37 -25 -177 -207 -162 -88
-46 -68 37 -33 -178 -209 -164 -89
-47 -69 38 -34 -174 -209 -162 -88
-49 -69 36 -40 -176 -211 -163 -86
-50 -69 31 -42 -189 -212 -163 -87
-48 -68 26 -48 -196 -216 -165 -86
-47 -66 26 -53 -191 -217 -166 -85
-47 -69 29 -56 -189 -219 -164 -83
-47 -68 29 -54 -191 -219 -163 -82
-48 -68 27 -55 -188 -216 -162 -80
-49 -67 25 -55 -193 -213 -160 -81
-45 -63 25 -58 -190 -210 -158 -80
-48 -56 25 -64 -183 -207 -156 -78
-52 -59 22 -68 -182 -204 -155 -77
-46 -60 19 -71 -179 -203 -151 -75
-46 -60 16 -75 -186 -200 -150 -73
-46 -58 15 -75 -191 -197 -148 -71
-45 -55 16 -73 -183 -192 -143 -68
-46 -56 15 -72 -177 -188 -139 -67
-43 -54 13 -72 -175 -185 -140 -66
-44 -43 9 -70 -176 -182 -136 -65
-42 -40 7 -76 -170 -177 -133 -63
-37 -41 9 -69 -157 -168 -126 -59
-36 -41 8 -72 -154 -162 -121 -56
-37 -41 8 -65 -150 -154 -114 -52
-34 -43 8 -63 -141 -147 -107 -49
-34 -40 4 -67 -138 -141 -102 -47
-32 -37 3 -66 -139 -134 -97 -44
-32 -34 3 -65 -137 -128 -94 -42
-36 -38 4 -58 -125 -120 -87 -37
-34 -34 5 -53 -119 -113 -82 -34
-28 -31 3 -57 -119 -106 -77 -33
-25 -26 0 -57 -105 -101 -74 -32
-22 -22 -1 -54 -95 -92 -68 -29
-25 -17 -2 -54 -91 -87 -64 -27
-22 -21 -1 -49 -83 -80 -58 -22
-18 -22 -1 -45 -73 -73 -50 -19
-18 -19 -3 -42 -77 -69 -47 -18
-18 -19 0 -34 -71 -62 -41 -14
-17 -16 -1 -33 -65 -55 -39 -12
-14 -18 -2 -31 -63 -49 -35 -11
-17 -16 -2 -28 -54 -43 -30 -8
-16 -13 -3 -31 -49 -37 -27 -7
-16 -15 -2 -22 -40 -29 -22 -5
-13 -13 -1 -21 -41 -25 -18 -3
-10 -7 -2 -19 -30 -23 -17 -4
-8 -2 -5 -20 -31 -20 -14 -4
-9 -8 -4 -16 -22 -16 -11 -1
-9 -10 -1 -16 -16 -12 -8 2
-10 -8 0 -14 -17 -8 -4 4
-10 -7 -3 -11 -14 -9 -4 2
-5 -1 -4 -8 -15 -6 -1 4
-6 -8 -4 -6 -15 -2 3 7
-9 -3 -4 -6 -10 1 5 8
-7 -6 -3 -7 0 5 9 10
-7 -10 -2 -8 1 8 10 11
-3 -2 -6 -8 -2 7 10 10
-2 -4 -5 -3 -1 11 13 12
-4 0 -4 -1 0 12 14 11
-4 3 -4 3 1 15 15 12
-7 -2 -4 9 4 17 17 12
-8 0 -3 4 -1 17 17 12
-4 2 -1 1 8 18 17 12
-4 -2 -2 1 12 18 17 12
-4 -5 -3 -1 7 20 19 13
-3 1 -3 3 9 20 19 14
-5 1 -5 1 15 18 17 12
-2 0 -4 6 13 19 18 13
-3 0 -3 5 18 18 18 13
-3 4 -4 -3 8 16 16 11
-2 5 -3 4 7 17 17 11
-4 -2 1 5 6 21 20 15
-4 -5 0 1 7 21 20 14
-1 -2 -7 4 10 17 16 11
-3 0 -8 5 9 16 16 9
-4 2 -4 2 7 17 16 11
-3 -1 -3 -3 11 15 16 12
-3 0 -3 3 16 17 18 13
-1 -1 -2 6 18 19 19 14
-4 -7 0 3 18 19 18 15
-4 -4 0 6 23 18 19 15
-2 0 0 3 16 17 19 15
-3 -1 0 0 9 15 17 13
-4 1 -1 3 6 15 16 11
-6 0 -6 -2 11 15 15 10
-6 3 -6 -6 14 15 15 11
-6 5 -6 -3 10 17 14 10
-7 0 -4 -3 10 18 15 11
-6 -5 -3 -4 8 20 16 13
-2 -5 -4 -4 10 17 13 10
-6 -6 -3 -3 6 16 13 12
-6 -6 -2 -4 15 17 13 13
-6 -6 -1 -4 12 16 12 12
-5 -5 -1 -4 11 16 11 12
-7 -5 -3 -6 4 15 10 10
-8 0 -6 -10 7 12 8 9
-3 3 -5 -10 4 11 7 9
-3 -2 -2 -10 2 11 9 11
-7 -7 -3 -5 -3 11 9 10
-6 -6 -4 -7 -1 10 7 8
-6 -5 -5 -7 0 11 7 8
-6 -6 -5 -7 13 12 8 9
-5 -5 -4 -9 6 12 8 9
-6 -9 -1 -6 8 12 8 10
-7 -11 0 -2 16 13 9 10
-7 -10 -2 -7 10 13 9 11
-8 -9 -4 -7 3 13 8 11
-8 -12 -4 -2 9 14 9 12
-7 -6 -4 -4 8 8 5 7
-9 -7 -3 -7 -1 6 4 7
-9 -8 -3 -10 6 6 4 8
-5 -5 -5 -14 6 4 3 6
-6 -4 -5 -15 -1 5 4 7
-5 -9 -5 -9 3 7 4 7
-5 -12 -4 -8 -2 9 5 7
-5 -10 -4 -10 -2 9 4 7
-6 -12 -4 -12 4 9 3 7
-8 -8 -4 -15 8 6 1 5
-7 -8 -6 -16 7 5 -1 3
-7 -8 -6 -16 7 4 -2 2
-7 -7 -5 -15 -1 5 0 4
-10 -12 -3 -5 3 8 2 7
-9 -10 -5 -6 7 6 1 6
-5 -7 -7 -16 0 4 1 6
-8 -9 -8 -10 3 6 3 7
-5 -12 -6 -8 1 8 4 8
-5 -11 -5 -10 2 9 5 9
-6 -9 -7 -16 -3 6 2 4
-4 -10 -6 -17 -5 6 1 3
-4 -7 -5 -17 -1 4 0 4
-5 -7 -4 -17 -6 3 0 3
-2 -10 -4 -17 -4 4 1 4
-2 -10 -7 -16 0 2 0 3
-8 -9 -6 -11 -1 4 1 3
-7 -6 -8 -17 -3 4 1 3
-6 -10 -7 -15 1 4 1 4
-3 -14 -4 -11 4 7 4 6
-5 -13 -5 -8 6 6 4 6
-8 -10 -4 -16 -1 5 3 6
-7 -11 -3 -15 7 5 5 8
-4 -8 -6 -14 14 3 4 6
-3 -5 -8 -18 -4 3 2 4
-3 -7 -6 -18 -4 5 4 7
-5 -10 -6 -22 -2 3 4 6
-7 -8 -6 -17 0 4 4 6
-6 -10 -8 -19 0 5 6 8
-2 -12 -8 -19 0 7 8 9
-2 -10 -9 -18 -3 6 6 7
-5 -10 -4 -13 3 7 7 8
-5 -11 -1 -17 2 7 6 7
-3 -9 -3 -14 1 7 6 9
-2 -10 -2 -18 5 9 7 9
-1 -5 -4 -16 -2 8 6 9
-6 -7 -6 -15 -2 5 4 6
-3 -3 -12 -22 -2 2 1 1
3 1 -13 -22 -2 4 1 0
-1 -1 -11 -23 0 5 3 1
-3 -12 -6 -17 6 8 7 3
-4 -11 -8 -19 9 8 7 3
-5 -11 -7 -17 4 8 6 2
-1 -6 -7 -20 4 8 4 1
-1 -4 -7 -21 9 8 3 1
-2 -6 -7 -21 2 8 5 0
-1 -7 -6 -23 6 8 6 3
-3 -13 -6 -23 8 9 8 4
-4 -11 -6 -22 4 10 9 6
-2 -9 -7 -22 2 9 8 3
-5 -9 -7 -20 -2 10 8 5
-2 -4 -8 -25 1 11 6 1
0 -5 -9 -25 3 11 5 1
0 -9 -5 -19 0 14 7 5
-1 -13 -2 -18 12 18 12 7
-4 -9 -7 -22 9 15 8 2
-4 -1 -8 -24 6 13 5 1
-2 -7 -3 -23 12 17 10 6
-2 -6 -5 -24 13 16 9 7
-1 -3 -5 -25 3 15 9 8
-4 -7 -4 -22 3 14 10 9
-2 -6 -8 -21 9 13 10 9
-2 -2 -10 -25 12 13 9 9
-3 -4 -8 -26 9 16 10 9
0 -2 -6 -27 3 14 9 7
-2 -3 -6 -29 5 16 9 7
0 -5 -5 -27 7 17 10 7
3 -2 -4 -27 11 19 11 8
-3 -7 -3 -26 6 19 13 8
-5 -9 -2 -26 9 18 12 10
-5 -6 -4 -27 10 17 11 9
-6 -6 -6 -27 5 16 12 9
-3 -7 -5 -27 6 18 12 10
-1 0 -4 -24 9 17 11 7
-1 -1 -6 -27 8 14 8 4
-4 -8 -5 -28 3 16 10 7
-1 -1 -6 -30 3 16 9 5
-1 -1 -6 -28 10 17 10 5
3 -5 -3 -25 14 20 12 7
0 -2 -4 -29 4 20 11 6
0 -4 -2 -28 4 22 12 7
0 -6 -5 -31 1 20 11 6
-2 -8 -6 -27 3 19 11 6
0 -8 -6 -33 5 18 11 6
-2 -1 -7 -37 -1 17 9 4
-4 -2 -8 -33 5 19 10 5
-4 -2 -8 -35 8 20 11 5
-5 -5 -5 -33 8 21 12 7
-2 -8 -3 -34 7 23 14 9
0 -12 -1 -28 13 22 14 11
1 -3 -5 -26 12 18 10 7
0 4 -4 -29 9 18 10 7
-4 -1 -1 -29 12 21 12 9
-3 -1 -3 -30 12 21 11 7
-2 -3 -3 -32 7 22 11 6
-5 -9 -3 -33 0 24 11 6
-2 1 -8 -37 4 21 8 3
-1 4 -6 -39 11 21 10 5
-1 -6 -3 -35 12 23 13 7
-1 -1 -2 -32 9 22 13 7
0 0 -2 -32 6 20 13 6
1 -1 -2 -33 7 21 13 7
-1 -1 -2 -34 7 20 13 7
-2 -6 -2 -34 9 20 14 8
-4 -8 0 -32 7 23 17 10
-2 -3 -4 -36 2 19 13 6
2 -3 -4 -37 5 18 12 5
0 -2 -3 -34 14 19 12 5
-4 -4 -3 -32 6 19 12 5
-3 -2 -5 -41 3 17 11 4
-4 -1 -4 -38 4 18 12 6
-1 -2 -6 -39 5 18 12 6
1 -3 -3 -35 12 17 11 5
1 -1 -3 -38 9 16 10 4
1 0 -3 -39 10 16 10 3
1 -1 -5 -37 9 16 10 1
-3 -2 -6 -37 8 17 11 2
-3 -5 -4 -39 3 20 16 6
0 -3 -4 -40 2 21 15 5
-2 1 -7 -41 3 19 13 3
-1 0 -6 -41 9 20 13 5
-2 -8 -3 -38 7 23 16 7
-2 -8 -2 -37 11 23 15 6
0 4 -7 -39 11 19 11 3
-4 -2 -6 -37 9 19 11 3
-4 -9 -3 -35 14 22 15 6
-1 -4 -3 -34 16 23 16 6
-5 -2 -5 -39 13 24 16 6
-5 -4 -7 -41 10 22 15 5
-3 -8 -6 -40 10 23 15 6
-5 -5 -7 -41 5 23 15 5
-3 -2 -7 -41 11 21 13 4
-4 -3 -6 -40 15 20 11 2
-3 -5 -2 -36 14 22 15 6
-4 -2 -6 -37 14 18 12 3
-3 -3 -8 -34 17 18 12 2
0 -2 -8 -34 17 21 13 4
0 -3 -9 -37 13 23 14 4
-4 -6 -8 -39 13 25 15 5
-5 -3 -7 -43 9 24 14 5
-6 -1 -9 -45 5 21 12 2
-2 -1 -5 -42 13 23 13 3
-3 -7 -2 -42 14 24 13 3
-5 -8 -4 -40 15 24 14 2
-2 -4 -6 -42 13 22 12 0
-3 -1 -6 -40 17 24 12 0
-2 -2 -9 -38 14 24 12 -1
-3 -8 -7 -38 10 26 15 1
-2 -2 -11 -41 14 24 12 -2
-2 0 -7 -38 9 26 13 0
-4 -7 -4 -37 9 30 15 3
-1 -4 -6 -40 11 29 15 3
-1 -7 -4 -37 15 31 16 7
-7 -6 -5 -41 16 28 14 4
-5 0 -8 -45 14 24 11 1
-3 -2 -6 -44 9 25 14 3
-3 -3 -6 -45 6 25 13 3
-1 -5 -5 -45 14 25 15 5
-3 -6 -5 -42 8 28 17 5
-2 0 -6 -39 7 26 15 4
-2 5 -8 -45 2 25 13 2
0 -3 -6 -42 11 29 15 5
1 -4 -6 -41 14 31 17 4
-4 -4 -7 -42 14 30 16 2
-6 -6 -8 -42 11 29 16 2
-2 -5 -6 -44 12 29 15 1
-3 -1 -5 -45 11 28 14 -1
-2 3 -6 -42 7 28 14 0
0 4 -5 -40 8 32 18 1
-1 6 -10 -42 3 29 16 -1
-3 2 -9 -37 4 30 17 0
-2 -2 -8 -33 15 30 17 1
-1 -7 -7 -32 24 29 17 0
-1 -4 -6 -35 17 30 17 0
-3 -2 -5 -28 15 29 15 -1
-1 0 -6 -29 26 27 13 -3
3 2 -7 -31 19 27 12 -2
-1 -1 -7 -29 16 27 15 0
-3 -1 -10 -35 18 25 15 -1
0 0 -12 -36 9 24 15 0
1 2 -10 -34 7 23 16 -1
-1 2 -5 -33 5 24 17 0
-3 -2 -5 -28 9 28 18 2
-2 -2 -5 -32 6 28 17 1
-1 -4 -3 -33 15 28 18 1
1 1 -7 -34 10 24 15 -1
0 -2 -5 -34 5 24 15 0
0 -6 -2 -33 7 28 19 3
1 4 -8 -36 1 23 15 -1
-2 6 -10 -32 0 22 13 -2
-2 -2 -7 -31 7 24 14 -2
1 0 -5 -32 14 27 17 1
1 3 -3 -34 18 28 17 1
-1 -1 -3 -31 17 28 18 3
2 -3 -3 -33 12 27 18 3
2 0 -3 -31 7 27 18 3
0 1 -4 -33 14 26 16 1
2 1 -4 -29 11 24 16 1
0 2 -5 -27 11 23 15 0
3 2 -5 -31 17 24 14 1
2 2 -3 -29 11 23 15 1
2 3 -5 -29 10 21 15 1
4 1 -5 -26 12 23 15 1
2 -2 -3 -25 13 25 17 3
1 0 -3 -28 16 25 17 2
3 3 -5 -27 17 24 18 2
1 0 -2 -24 15 27 21 5
0 0 -2 -23 15 29 22 6
3 2 -5 -24 12 29 21 3
0 1 -6 -25 11 28 20 4
-1 1 -7 -28 6 26 20 3
2 3 -8 -26 7 26 19 3
2 2 -9 -27 5 25 17 2
4 0 -6 -21 15 25 18 4
3 1 -4 -19 12 26 18 3
1 0 -3 -24 11 27 19 3
3 1 -1 -19 16 31 21 5
3 0 -6 -20 11 27 19 2
4 4 -9 -21 13 23 16 -1
1 0 -7 -21 22 24 18 3
1 0 -5 -18 15 25 19 3
5 10 -6 -19 13 24 19 3
1 4 -5 -15 12 27 22 6
2 6 -7 -13 11 29 21 5
6 11 -7 -16 16 32 22 4
1 10 -4 -14 24 37 25 6
4 10 -2 -13 22 40 26 7
8 12 -3 -13 22 39 25 7
6 12 -4 -11 18 37 24 6
7 16 -4 -8 18 37 23 5
8 18 -1 -8 24 38 27 6
7 18 0 -8 22 39 27 9
7 21 0 -10 22 39 26 8
4 17 2 -9 30 40 26 9
6 13 4 -5 21 41 27 10
9 16 0 -6 18 38 25 7
8 18 -1 -8 28 37 25 7
9 17 0 -7 27 39 27 9
7 19 -1 -8 29 40 26 8
9 18 -3 -7 30 41 25 7
10 19 -1 1 23 42 27 8
10 19 0 -1 19 42 26 8
11 23 0 3 21 41 25 8
10 24 -2 1 25 37 24 6
10 22 -1 1 31 40 27 9
11 23 -4 6 29 41 28 10
12 22 -7 5 31 41 29 10
10 27 -10 2 36 40 30 12
12 33 -13 1 19 41 31 13
17 32 -16 -1 20 41 34 14
20 30 -15 -2 31 42 35 15
18 20 -14 1 23 42 36 15
17 23 -16 -6 19 40 32 12
19 21 -14 -3 19 40 33 11
18 17 -13 -4 20 43 34 13
15 19 -14 -9 24 42 34 12
16 21 -17 -11 20 40 31 10
15 18 -16 -11 20 38 31 10
14 18 -14 -9 12 37 30 10
11 14 -14 -9 11 38 31 11
12 13 -13 -10 11 38 31 12
13 17 -14 -11 15 37 30 11
11 12 -17 -11 16 33 27 9
16 10 -11 -11 18 35 28 12
16 9 -7 -4 24 37 29 11
14 5 -7 -8 20 36 29 10
14 8 -7 -10 18 36 29 9
10 9 -8 -9 21 36 30 9
12 10 -9 -8 21 34 26 6
11 10 -9 -13 13 33 25 4
10 13 -12 -17 7 30 21 1
7 5 -10 -17 12 32 24 3
5 4 -10 -16 24 31 22 1
5 2 -10 -16 13 27 20 0
5 1 -10 -15 11 25 19 -1
5 1 -11 -16 6 23 17 -2
5 -3 -9 -17 3 23 17 -3
4 -7 -7 -19 4 25 18 -1
1 -10 -7 -19 6 25 17 -2
4 -3 -9 -23 6 22 14 -4
5 -1 -8 -23 0 21 13 -5
6 1 -11 -25 1 20 12 -6
6 -1 -10 -21 11 21 14 -4
6 3 -10 -17 7 23 15 -6
5 3 -10 -19 -1 24 16 -5
5 -5 -5 -12 7 29 20 0
8 3 -10 -19 9 25 16 -6
8 7 -9 -19 8 25 17 -5
7 1 -9 -24 7 27 17 -4
6 2 -11 -23 5 25 16 -4
7 4 -10 -18 11 26 16 -4
5 9 -10 -18 6 25 15 -5
8 2 -6 -20 9 27 17 -3
10 1 -4 -15 15 29 18 -3
8 0 -5 -14 8 28 18 -2
7 0 -3 -14 10 30 20 -1
8 0 -3 -11 24 31 21 0
7 -4 -2 -11 15 30 21 1
7 -3 -2 -8 11 29 21 -1
7 0 0 -2 16 30 20 -3
7 6 0 1 19 31 19 -6
5 -1 4 13 27 40 24 -4
11 -3 4 21 36 48 25 -7
14 -6 11 39 57 58 28 -8
13 -7 20 61 82 68 30 -9
15 3 31 91 102 82 34 -9
18 14 44 128 145 107 47 -4
16 28 54 172 196 137 64 6
17 49 64 204 239 172 88 21
20 76 78 239 288 220 121 43
19 106 97 287 356 278 159 70
26 147 107 337 443 349 208 103
33 185 107 373 520 427 264 140
43 220 106 403 586 496 315 174
61 252 93 411 642 560 367 212
84 276 74 399 697 624 423 249
116 302 48 363 741 692 487 291
155 329 5 287 774 771 567 340
183 352 -43 197 792 835 636 382
198 363 -71 126 757 844 669 403
188 327 -71 47 619 728 622 378
153 263 -63 -88 363 541 533 330
109 220 -72 -263 94 370 448 290
64 186 -92 -418 -118 213 355 243
21 161 -112 -491 -245 89 259 194
-4 130 -124 -486 -281 4 175 148
-19 88 -127 -451 -277 -67 89 101
-30 60 -123 -407 -266 -140 -4 47
-34 38 -118 -357 -247 -159 -48 16
-33 15 -111 -313 -221 -149 -59 -2
-34 6 -100 -272 -203 -144 -71 -23
-31 -7 -85 -231 -184 -132 -73 -33
-20 -20 -65 -190 -166 -118 -68 -38
-14 -27 -47 -148 -136 -99 -57 -35
-10 -18 -40 -119 -114 -85 -47 -33
-10 -16 -30 -100 -96 -72 -38 -26
-8 -13 -21 -81 -73 -62 -33 -22
-5 -10 -11 -63 -59 -51 -26 -20
-5 -10 -4 -48 -40 -43 -21 -16
-1 -5 0 -40 -40 -39 -20 -19
1 -3 5 -31 -42 -36 -18 -16
0 -2 7 -24 -36 -32 -16 -16
-1 -4 6 -21 -35 -30 -15 -15
3 -4 4 -19 -35 -30 -13 -14
2 -4 1 -16 -30 -31 -14 -14
1 -9 3 -11 -31 -29 -13 -14
3 -10 7 -11 -28 -30 -15 -15
1 -10 9 -8 -23 -31 -17 -17
3 -10 9 -4 -21 -31 -18 -18
4 -12 11 -3 -23 -28 -16 -17
3 -15 13 -2 -22 -26 -14 -16
3 -11 13 0 -14 -23 -13 -15
6 -14 13 4 -8 -21 -10 -13
8 -11 11 3 -18 -23 -11 -14
7 -3 8 7 -19 -26 -13 -16
4 -10 9 10 -15 -25 -12 -16
4 -14 11 9 -10 -26 -12 -16
4 -14 12 10 -9 -28 -16 -19
3 -16 14 14 -13 -27 -15 -18
6 -15 15 11 -15 -27 -15 -19
6 -14 14 9 -11 -28 -15 -18
1 -14 16 11 -13 -27 -14 -17
1 -11 13 7 -21 -28 -13 -18
6 -7 11 3 -21 -28 -13 -18
6 -9 15 7 -17 -25 -11 -15
3 -12 16 9 -13 -24 -11 -17
2 -12 15 13 -9 -25 -12 -18
4 -11 18 15 -10 -23 -14 -19
3 -14 18 10 -9 -23 -15 -20
2 -14 19 11 -12 -23 -15 -21
3 -15 20 16 -13 -22 -12 -19
3 -16 17 8 -18 -23 -16 -21
3 -17 18 10 -14 -23 -13 -19
4 -14 18 12 -15 -23 -13 -18
3 -15 16 13 -16 -23 -11 -18
2 -13 17 11 -7 -25 -14 -17
4 -14 17 10 -13 -28 -16 -19
2 -15 20 15 -16 -26 -15 -17
4 -13 24 15 -12 -25 -15 -17
6 -13 22 14 -13 -28 -18 -19
4 -17 24 13 -9 -26 -16 -17
3 -14 21 11 -17 -28 -18 -20
1 -12 20 9 -21 -29 -16 -20
5 -10 18 9 -23 -29 -16 -19
3 -8 17 6 -17 -32 -17 -20
3 -13 20 12 -18 -32 -17 -19
4 -18 22 16 -22 -30 -16 -18
5 -12 23 18 -20 -30 -17 -19
5 -16 26 21 -17 -29 -16 -20
3 -17 28 21 -14 -29 -17 -19
4 -15 27 17 -15 -31 -19 -21
5 -18 27 19 -18 -30 -19 -21
6 -15 26 19 -16 -31 -18 -20
6 -16 23 19 -18 -31 -18 -19
3 -17 21 22 -18 -32 -20 -19
2 -16 20 24 -20 -35 -21 -21
3 -13 22 21 -24 -37 -22 -21
3 -17 25 21 -25 -35 -20 -20
3 -21 26 23 -17 -35 -21 -20
4 -22 28 27 -17 -33 -20 -19
2 -20 31 30 -18 -34 -19 -19
3 -19 31 30 -13 -34 -21 -20
4 -20 30 27 -11 -34 -19 -18
2 -24 28 24 -15 -35 -20 -18
2 -18 28 23 -15 -38 -22 -20
6 -17 25 23 -26 -43 -28 -23
8 -14 25 27 -26 -46 -30 -23
6 -16 29 27 -25 -46 -29 -22
1 -21 31 27 -19 -46 -28 -23
1 -17 30 32 -17 -45 -28 -24
4 -19 33 39 -20 -44 -26 -23
3 -19 31 34 -26 -45 -27 -24
1 -19 31 27 -24 -42 -24 -22
-3 -19 31 25 -24 -43 -23 -21
1 -18 28 22 -27 -50 -29 -25
3 -19 28 25 -37 -51 -29 -25
-1 -24 31 32 -33 -50 -28 -23
2 -22 34 35 -26 -49 -29 -23
2 -19 33 32 -28 -52 -31 -27
0 -27 36 36 -24 -51 -30 -25
0 -21 38 37 -23 -51 -30 -25
2 -19 36 35 -25 -50 -33 -28
1 -24 35 34 -25 -50 -33 -28
2 -26 33 34 -23 -53 -34 -29
-2 -29 35 36 -32 -54 -35 -28
-1 -26 36 35 -41 -58 -36 -28
-4 -22 35 34 -46 -62 -38 -29
-4 -26 34 36 -35 -64 -41 -31
-2 -25 35 37 -24 -66 -41 -32
-1 -28 35 37 -31 -66 -41 -31
-2 -29 37 32 -36 -67 -42 -33
-3 -23 38 29 -42 -70 -45 -35
-4 -21 38 34 -38 -71 -44 -34
-1 -26 39 30 -38 -70 -43 -31
-3 -28 40 28 -41 -71 -44 -32
-4 -27 38 29 -44 -76 -47 -33
-4 -26 39 32 -47 -79 -48 -35
-5 -27 40 28 -43 -80 -50 -36
-6 -34 42 30 -48 -84 -52 -37
-7 -37 44 28 -52 -84 -53 -38
-7 -31 41 24 -56 -88 -57 -41
-8 -33 41 30 -46 -89 -58 -40
-10 -32 40 21 -56 -92 -57 -40
-8 -33 38 21 -65 -97 -62 -43
-11 -35 43 24 -66 -98 -63 -42
-13 -36 43 20 -68 -103 -66 -43
-12 -34 43 16 -73 -108 -71 -45
-11 -32 43 16 -74 -110 -74 -49
-14 -33 44 22 -73 -114 -76 -52
-12 -39 45 20 -71 -112 -75 -50
-14 -41 46 14 -78 -115 -77 -51
-16 -41 45 15 -82 -118 -81 -52
-16 -40 44 13 -87 -122 -83 -53
-21 -41 43 8 -81 -129 -85 -54
-21 -33 42 4 -85 -134 -89 -55
-20 -37 43 6 -94 -140 -91 -56
-22 -46 47 5 -93 -143 -93 -55
-19 -48 49 3 -100 -143 -94 -55
-21 -52 50 4 -104 -145 -94 -56
-24 -50 48 -3 -110 -149 -99 -59
-25 -48 49 -6 -109 -152 -101 -60
-25 -48 45 -10 -105 -157 -107 -64
-29 -54 47 -10 -112 -161 -109 -65
-28 -53 46 -13 -122 -169 -114 -67
-29 -52 44 -17 -124 -174 -119 -69
-30 -50 44 -21 -135 -179 -122 -69
-30 -58 47 -24 -142 -183 -125 -68
-34 -55 48 -26 -141 -188 -129 -71
-32 -58 48 -27 -143 -191 -131 -72
-36 -58 46 -32 -147 -197 -136 -75
-36 -53 46 -35 -142 -201 -139 -77
-35 -55 47 -35 -146 -204 -141 -78
-40 -60 47 -38 -155 -206 -140 -76
-41 -59 47 -39 -164 -208 -142 -76
-45 -59 42 -42 -172 -214 -148 -79
-45 -55 40 -50 -177 -219 -151 -81
-41 -54 40 -52 -178 -221 -152 -82
-42 -57 40 -54 -174 -223 -156 -84
-44 -56 44 -54 -166 -223 -155 -83
-47 -58 46 -57 -175 -223 -155 -80
-48 -57 46 -62 -183 -225 -157 -81
-44 -52 41 -66 -184 -226 -158 -82
-45 -53 41 -67 -177 -225 -154 -78
-45 -55 39 -70 -180 -227 -154 -77
-45 -55 36 -75 -185 -227 -156 -77
-48 -55 32 -74 -189 -229 -157 -76
-47 -54 31 -70 -190 -229 -155 -74
-48 -55 32 -81 -190 -227 -156 -72
-47 -56 29 -84 -188 -226 -156 -72
-45 -50 28 -86 -186 -226 -154 -72
-44 -52 29 -83 -184 -221 -150 -68
-44 -50 26 -84 -185 -215 -146 -65
-43 -44 23 -91 -183 -214 -142 -63
-45 -40 23 -91 -186 -213 -140 -62
-45 -46 22 -88 -181 -207 -136 -59
-40 -46 22 -92 -171 -204 -134 -56
-40 -41 16 -92 -175 -203 -132 -56
-38 -38 15 -89 -168 -200 -129 -54
-38 -35 13 -90 -165 -194 -125 -52
-37 -31 11 -90 -163 -189 -120 -51
-35 -32 12 -89 -155 -181 -114 -47
-35 -34 13 -83 -150 -171 -106 -43
-32 -32 10 -82 -147 -164 -102 -40
-29 -28 9 -80 -142 -156 -95 -36
-29 -26 9 -70 -130 -149 -90 -33
-29 -23 10 -64 -120 -140 -83 -29
-29 -21 8 -51 -127 -136 -78 -26
-26 -20 5 -45 -121 -129 -73 -25
-25 -23 4 -43 -109 -121 -67 -22
-25 -21 2 -39 -92 -115 -66 -22
-24 -15 5 -37 -85 -108 -59 -18
-23 -13 5 -41 -86 -101 -53 -16
-18 -13 4 -36 -88 -93 -47 -12
-17 -9 3 -33 -85 -85 -42 -9
-18 -10 1 -36 -79 -79 -38 -8
-14 -8 0 -29 -73 -73 -33 -5
-12 -5 1 -20 -63 -66 -27 -2
-15 0 -2 -22 -57 -63 -25 -3
-11 -1 0 -21 -49 -57 -20 0
-8 -2 0 -18 -50 -51 -17 0
-11 -6 4 -10 -43 -42 -10 5
-11 -5 3 -9 -29 -36 -5 7
-7 1 0 -9 -28 -35 -5 5
-4 0 -1 -6 -33 -33 -3 6
-2 5 -1 -3 -27 -28 0 8
-4 4 -1 -4 -19 -23 3 8
-2 2 -1 -4 -12 -18 7 11
0 2 -2 2 -10 -14 9 11
0 0 1 9 -13 -10 12 13
-2 4 0 8 -4 -8 13 14
-3 10 -1 2 -3 -8 12 12
1 10 -2 6 -2 -4 15 14
2 12 -5 7 4 -2 18 14
1 14 -6 5 6 -1 18 14
0 12 -4 8 7 2 19 15
-1 13 -2 16 10 4 21 17
2 11 0 13 15 6 24 20
2 10 1 13 19 8 25 21
1 13 -2 9 12 7 24 18
4 16 -3 15 20 6 24 16
6 16 -2 17 22 8 26 18
2 14 -4 14 15 10 26 18
3 15 -4 16 18 13 29 21
6 14 -2 20 21 15 32 23
6 12 -5 18 17 13 29 21
2 9 -4 15 18 16 31 23
2 13 -5 13 22 14 29 20
4 14 -2 16 20 16 31 21
2 14 1 18 20 18 35 24
5 17 -1 19 19 16 33 23
7 15 -1 24 21 18 35 25
2 12 1 25 24 21 38 29
2 16 -2 21 24 16 34 25
2 15 2 17 25 16 34 25
-1 11 1 16 24 15 32 24
2 12 2 19 21 16 33 25
4 11 2 24 19 15 34 25
1 3 2 23 23 15 32 25
2 8 2 21 15 15 32 25
6 15 -1 18 16 12 27 21
4 17 1 19 24 12 28 22
1 13 3 22 25 15 29 23
3 14 2 23 19 13 29 22
6 15 0 22 19 11 28 22
3 12 2 24 22 11 29 23
4 12 1 24 16 9 29 23
3 10 2 26 20 9 29 23
2 8 2 27 24 8 27 22
2 7 2 29 22 9 27 21
2 8 3 31 19 10 28 22
3 7 4 34 19 9 27 22
6 12 4 33 20 9 26 21
3 13 4 34 18 8 25 19
4 13 2 30 19 8 24 20
5 17 2 28 16 8 24 20
6 15 2 30 17 9 25 20
3 10 2 33 18 7 21 19
3 8 3 35 21 7 22 19
4 11 2 30 20 8 21 19
6 12 2 30 18 8 20 19
4 12 1 31 21 7 18 18
3 9 3 32 18 6 18 18
3 11 4 37 19 6 19 19
4 10 2 30 21 4 18 17
3 6 1 35 25 6 21 19
6 6 2 36 20 6 23 21
6 11 -3 26 16 3 18 17
7 10 -2 27 18 6 18 15
2 9 3 29 16 8 19 17
-3 11 4 37 21 8 20 17
-2 6 3 36 18 8 21 18
1 7 4 28 17 7 21 16
2 13 1 20 8 6 18 16
3 11 -1 24 11 7 19 18
0 9 -1 25 8 7 20 19
3 12 -2 29 16 5 18 18
4 9 -1 24 15 5 17 16
1 0 2 27 20 8 19 18
1 3 3 32 22 6 18 17
2 5 0 28 22 3 15 14
2 5 0 28 19 4 16 15
2 2 1 26 23 5 18 17
1 3 0 23 22 5 17 17
3 7 -2 21 16 4 16 16
1 6 -3 23 16 4 16 16
1 6 -2 24 16 4 16 17
5 4 -1 26 21 6 17 17
4 3 -3 25 14 4 14 15
4 7 -4 22 18 1 11 13
4 4 0 27 18 6 14 15
3 1 -1 26 15 6 13 14
3 7 -4 22 21 2 12 12
2 9 -4 20 18 2 12 13
5 11 -6 18 21 3 13 14
8 12 -6 18 22 4 15 15
4 4 -4 26 17 6 17 17
5 3 -4 26 20 8 17 17
3 9 -7 21 15 6 16 16
3 6 -5 25 12 6 17 17
4 7 -4 28 21 7 19 19
5 7 -4 24 22 8 19 18
7 7 -6 24 20 8 18 17
6 9 -6 22 16 8 18 16
4 10 -9 18 12 5 15 14
4 8 -7 24 14 8 15 16
3 11 -7 22 17 7 14 14
3 10 -9 15 11 4 12 12
4 4 -7 16 16 5 15 17
5 1 -7 17 14 8 17 18
7 6 -9 15 12 7 17 17
9 9 -10 16 23 6 16 18
6 8 -10 25 20 6 14 17
7 5 -6 22 18 8 16 17
6 6 -8 16 15 9 17 17
6 11 -11 9 14 7 16 16
6 13 -10 11 20 8 18 18
5 10 -11 11 14 6 17 17
5 7 -12 9 15 5 18 17
8 5 -9 15 13 8 20 18
8 7 -10 16 12 9 19 19
7 8 -9 13 19 12 21 20
8 7 -10 16 14 12 20 18
4 7 -11 14 18 12 22 20
4 7 -10 10 15 15 23 22
9 10 -10 9 22 14 23 21
7 9 -12 6 27 13 22 20
7 9 -12 6 19 11 21 19
5 6 -11 8 19 10 19 19
5 4 -9 5 14 10 19 18
4 7 -9 6 18 10 20 19
4 20 -14 2 16 5 16 16
5 14 -11 4 20 9 20 19
5 10 -12 0 12 9 21 20
8 7 -11 1 16 12 23 22
8 10 -10 2 19 14 23 21
6 14 -12 2 16 14 23 20
7 5 -10 11 16 18 26 23
6 6 -12 17 17 15 23 20
5 11 -13 7 18 12 20 18
4 6 -10 4 18 13 21 19
3 5 -10 5 20 13 21 20
5 11 -11 9 27 13 21 20
7 10 -9 5 19 14 24 22
6 13 -13 1 16 10 20 20
9 16 -14 2 14 9 19 20
6 7 -10 4 19 11 22 22
6 3 -10 2 28 10 22 21
9 12 -12 6 24 9 20 19
6 10 -10 8 18 9 21 19
6 10 -10 4 16 10 21 18
5 11 -12 3 19 13 21 19
5 9 -15 7 16 15 21 19
6 9 -16 6 19 15 22 20
7 11 -16 10 21 13 19 19
7 13 -13 6 16 12 19 19
6 16 -13 10 15 11 20 19
5 13 -12 11 20 14 21 20
6 10 -10 12 32 15 23 22
7 9 -9 16 28 16 24 22
6 6 -11 11 14 15 22 20
9 8 -11 10 18 14 22 20
8 13 -12 9 13 14 22 19
8 13 -11 7 11 15 23 20
5 12 -10 7 17 18 24 22
1 8 -10 6 14 17 23 22
5 12 -10 8 18 18 24 22
9 12 -11 7 17 19 22 21
4 6 -11 5 21 19 22 21
6 9 -10 5 23 18 21 20
8 12 -12 11 19 18 21 20
7 13 -14 7 19 18 19 17
7 11 -14 4 22 18 20 17
7 10 -13 0 18 18 20 17
7 10 -11 0 16 20 22 18
6 5 -10 5 18 22 24 21
4 8 -12 8 18 19 23 20
3 6 -11 4 17 21 23 20
4 7 -12 -1 20 20 22 20
6 11 -12 4 20 20 21 20
7 13 -12 7 19 22 22 20
5 16 -14 -5 18 20 19 19
5 11 -13 -5 18 21 20 20
5 5 -11 -3 18 21 20 21
7 5 -11 -4 20 21 21 22
7 10 -12 -5 22 21 21 21
6 11 -15 -5 19 18 20 20
7 12 -17 -10 15 18 18 20
8 15 -18 -9 19 21 21 21
6 6 -17 -4 19 23 22 22
5 5 -14 -5 14 22 22 20
5 6 -11 -4 17 24 23 20
6 10 -12 2 23 25 22 20
6 12 -12 1 23 26 22 20
7 12 -14 0 29 25 21 20
4 8 -13 3 25 24 21 18
7 13 -16 0 22 23 19 16
5 9 -18 -1 15 20 20 15
8 9 -16 3 21 21 19 16
9 13 -16 5 27 22 20 16
8 14 -14 2 29 26 23 19
7 13 -15 3 36 29 24 19
5 10 -17 3 31 27 23 18
5 8 -18 5 28 28 24 19
8 13 -17 3 22 27 24 18
6 13 -18 0 22 27 24 19
4 10 -19 0 22 29 23 19
5 5 -17 2 21 29 24 19
8 6 -19 2 24 28 22 18
11 12 -20 1 18 25 19 15
8 7 -19 0 25 25 19 16
4 7 -20 2 25 25 18 16
6 11 -21 -1 18 27 18 16
6 11 -22 0 21 26 18 17
8 13 -22 2 23 27 19 17
6 9 -21 6 19 30 22 19
6 7 -20 5 23 30 23 20
7 10 -22 4 24 28 21 18
7 9 -22 2 24 26 19 17
4 3 -20 6 22 28 19 18
2 6 -20 7 21 26 19 18
8 10 -23 8 17 24 17 17
11 10 -22 7 16 25 20 18
9 10 -23 8 22 27 21 17
7 7 -24 10 20 28 21 18
9 12 -24 9 19 27 20 18
7 14 -25 1 20 26 18 16
5 9 -21 8 23 28 20 19
5 11 -21 10 35 27 19 17
5 11 -23 8 39 24 18 15
7 13 -24 12 28 27 19 16
4 9 -22 16 26 30 20 17
4 6 -22 10 29 29 18 16
8 11 -21 7 24 29 18 16
5 14 -21 10 25 32 20 17
8 10 -20 13 33 35 23 19
10 13 -23 16 22 32 21 16
5 10 -23 13 24 30 19 15
5 2 -18 22 26 33 23 18
6 5 -16 26 28 32 22 17
8 9 -18 15 36 30 21 17
8 8 -18 15 32 29 20 15
4 6 -19 14 33 29 19 15
5 9 -18 12 29 31 20 17
2 13 -22 12 30 29 19 16
-1 10 -21 16 25 29 19 16
3 7 -18 16 26 31 21 18
5 9 -19 13 29 30 19 15
7 7 -18 18 25 30 19 16
7 9 -19 19 26 31 19 16
5 3 -18 19 27 33 21 16
5 1 -18 20 30 31 20 14
5 9 -18 16 29 29 17 13
8 11 -18 13 24 26 15 12
6 7 -17 16 32 28 16 13
4 6 -18 16 35 29 18 14
5 8 -17 14 31 30 18 15
7 8 -18 18 23 30 17 15
7 6 -16 20 22 32 19 17
5 5 -16 22 25 33 20 18
5 5 -14 21 26 34 19 18
5 7 -17 18 28 30 16 13
7 8 -17 19 31 29 16 14
7 6 -15 23 38 33 19 16
5 6 -13 21 38 33 19 16
5 14 -14 19 29 31 18 15
5 17 -17 18 23 31 16 14
7 15 -18 17 24 33 16 12
5 11 -16 14 28 34 17 13
5 9 -14 16 30 34 19 14
6 9 -14 19 31 33 17 13
4 5 -12 20 33 35 19 15
6 11 -14 18 36 34 19 15
7 8 -16 20 37 34 18 14
5 6 -18 19 27 32 16 13
3 4 -16 17 32 31 18 15
5 5 -12 16 27 31 17 15
8 4 -13 18 22 30 17 14
5 6 -13 19 31 30 17 14
4 9 -16 20 35 28 15 11
5 6 -16 20 29 28 14 11
8 7 -17 19 24 29 14 9
5 7 -17 20 30 30 14 11
5 8 -14 21 29 32 16 13
4 9 -13 25 33 31 17 12
5 8 -14 32 31 31 18 13
5 9 -13 28 27 31 17 12
4 10 -16 26 31 28 14 10
1 7 -14 23 32 28 13 9
2 7 -15 27 30 28 14 9
3 6 -14 26 24 28 13 9
5 5 -13 33 37 30 16 12
7 4 -11 34 48 33 18 13
6 9 -14 28 43 32 17 11
8 11 -15 26 31 33 17 12
9 9 -15 31 37 33 17 14
9 10 -13 35 38 35 17 14
9 11 -12 29 34 36 19 16
10 12 -9 31 37 35 22 18
11 14 -12 37 39 35 20 15
7 18 -13 36 41 35 19 14
6 13 -12 30 42 36 20 14
9 11 -10 33 47 41 22 16
10 14 -9 39 38 43 22 17
12 25 -10 40 38 42 21 15
11 20 -9 37 39 42 23 16
7 18 -9 35 44 41 19 14
9 25 -11 30 45 38 17 12
8 25 -9 34 43 37 17 12
11 22 -8 39 43 41 19 16
9 15 -4 43 44 43 22 19
7 13 -6 41 44 41 22 19
10 25 -10 31 41 37 18 16
12 25 -11 32 40 39 19 16
14 19 -11 34 44 44 23 18
15 27 -14 32 49 45 24 20
16 32 -14 32 40 43 22 17
16 25 -10 34 43 45 24 20
16 27 -12 28 47 45 24 20
16 27 -15 25 43 45 24 19
17 28 -16 26 50 47 25 20
15 35 -20 25 47 46 23 20
17 34 -24 23 52 45 22 19
19 29 -24 28 46 46 22 20
18 28 -26 21 39 44 19 16
17 25 -25 18 43 41 18 15
16 19 -20 22 48 44 20 17
15 20 -21 21 41 43 20 15
15 18 -18 22 44 44 21 15
12 18 -18 24 45 44 22 15
14 16 -19 21 51 46 22 16
20 21 -22 12 45 44 21 13
18 21 -25 9 48 40 16 9
17 13 -24 14 47 39 16 10
14 8 -21 17 49 41 18 11
11 13 -23 11 41 40 16 10
13 17 -23 12 40 40 15 8
12 10 -21 14 41 42 16 8
15 9 -18 18 40 47 18 10
18 10 -19 19 46 48 18 10
11 11 -18 20 40 47 16 6
9 7 -19 20 35 45 12 5
8 8 -20 13 29 42 9 2
5 4 -21 12 37 40 9 2
6 2 -21 15 37 39 8 2
4 0 -22 13 40 37 6 1
3 1 -21 5 39 35 4 -2
4 3 -23 10 29 35 2 -4
3 1 -21 10 26 36 3 -3
2 -2 -18 8 26 37 4 -2
1 -5 -18 8 30 34 3 -3
3 -2 -20 7 31 33 2 -5
4 -2 -22 10 30 34 1 -4
1 -11 -21 14 32 36 4 -1
1 -6 -22 8 28 37 4 -1
3 -3 -24 6 32 35 2 -4
2 0 -27 6 29 33 -1 -6
0 -1 -26 13 34 35 2 -3
0 -4 -24 11 28 35 2 -3
1 -4 -24 12 32 34 0 -4
4 1 -26 17 31 36 -2 -6
3 -1 -23 21 36 39 1 -3
3 -1 -21 20 34 41 3 -2
4 -1 -20 21 41 43 5 -1
4 -4 -23 21 34 40 3 -3
6 -2 -23 19 30 38 3 -5
6 3 -23 22 28 39 3 -4
2 -1 -21 25 37 41 5 -1
3 -3 -22 27 46 42 5 -1
4 0 -25 20 40 39 2 -4
4 2 -23 23 36 39 2 -3
4 -5 -20 29 38 40 3 -3
5 -7 -16 35 42 43 4 -4
8 -7 -13 43 55 51 5 -6
9 -9 -11 55 72 61 9 -7
9 -11 -9 66 79 70 12 -8
12 -7 -2 87 90 80 14 -11
14 -3 9 115 117 93 18 -12
15 6 19 154 155 113 27 -9
14 14 30 186 202 142 43 -1
13 29 45 224 252 176 64 14
15 64 55 259 289 215 91 30
15 93 69 308 346 269 126 54
19 125 82 360 428 338 173 86
27 164 87 394 513 418 231 124
38 203 85 425 593 491 282 160
54 234 79 442 657 559 336 197
73 261 59 436 711 624 392 236
100 287 38 411 760 690 453 276
137 320 4 353 791 769 530 325
170 336 -40 264 808 844 609 372
194 351 -75 179 802 885 664 405
196 344 -84 105 713 823 651 400
175 286 -80 1 496 645 568 353
133 232 -78 -166 226 460 480 309
81 194 -82 -327 -20 299 393 269
32 166 -98 -430 -170 160 298 221
-3 137 -115 -449 -235 60 206 174
-23 100 -128 -429 -249 -14 119 127
-35 67 -130 -393 -247 -94 18 72
-40 44 -127 -342 -236 -141 -53 27
-40 21 -123 -296 -205 -136 -73 5
-43 3 -117 -259 -192 -126 -83 -16
-38 -10 -104 -222 -166 -116 -88 -29
-32 -22 -91 -179 -147 -106 -88 -37
-25 -36 -71 -140 -125 -91 -82 -38
-19 -33 -59 -106 -99 -77 -72 -36
-15 -23 -52 -78 -75 -64 -62 -31
-10 -14 -45 -55 -59 -51 -53 -26
-12 -17 -34 -37 -42 -40 -46 -23
-10 -20 -21 -18 -34 -28 -38 -18
-7 -12 -15 -7 -25 -21 -35 -18
-7 -9 -13 -2 -27 -20 -36 -20
-4 -14 -11 7 -20 -17 -34 -18
-3 -10 -12 7 -7 -16 -33 -18
-3 -11 -12 10 -3 -16 -31 -16
-3 -11 -12 11 -12 -15 -31 -17
-3 -10 -11 19 -13 -15 -31 -17
-4 -14 -11 20 -10 -17 -34 -19
-5 -14 -9 21 -2 -15 -35 -21
-6 -16 -7 26 -1 -12 -34 -21
-3 -14 -6 28 -2 -10 -33 -21
-2 -17 -6 28 3 -9 -32 -20
0 -19 -6 28 14 -8 -30 -19
1 -18 -5 32 2 -7 -28 -18
-1 -17 -7 33 -6 -9 -28 -18
2 -15 -9 29 -6 -11 -30 -20
0 -14 -9 24 -1 -12 -30 -20
-2 -24 -4 35 3 -8 -26 -16
-6 -31 0 38 2 -4 -26 -15
-4 -27 0 37 2 -5 -28 -18
3 -20 0 35 10 -5 -28 -18
3 -22 0 41 15 -4 -27 -19
0 -19 -3 34 11 -6 -28 -21
2 -14 -6 32 -1 -9 -29 -21
2 -13 -7 31 4 -10 -30 -20
0 -16 -6 26 4 -15 -32 -23
1 -16 -2 30 9 -14 -30 -21
-1 -16 -1 38 8 -12 -31 -20
0 -18 -1 35 0 -14 -34 -22
0 -20 1 38 5 -13 -31 -22
0 -20 1 40 9 -15 -31 -23
0 -17 1 42 11 -13 -32 -23
1 -18 1 41 9 -14 -33 -23
3 -15 0 37 10 -14 -31 -21
5 -19 1 35 11 -11 -28 -19
2 -20 -1 34 5 -11 -29 -19
0 -16 -3 34 8 -14 -30 -20
0 -19 -2 39 1 -16 -31 -21
-1 -21 -2 37 -1 -19 -32 -23
-1 -23 1 36 3 -16 -29 -21
-1 -18 0 35 7 -17 -33 -22
0 -18 0 37 -1 -17 -35 -23
0 -23 2 41 0 -17 -33 -21
0 -21 3 38 -1 -18 -33 -22
2 -23 1 36 4 -21 -35 -22
2 -23 3 42 13 -19 -31 -19
1 -22 3 41 17 -20 -31 -19
2 -24 3 39 9 -23 -35 -21
2 -27 5 41 3 -25 -37 -23
1 -22 5 39 3 -27 -38 -26
1 -19 7 38 0 -25 -37 -25
-2 -28 6 40 -1 -23 -36 -25
-3 -24 4 38 -2 -24 -36 -26
0 -21 4 36 2 -21 -32 -22
2 -23 3 38 3 -23 -34 -21
2 -18 4 41 0 -27 -37 -23
0 -16 2 39 4 -29 -38 -24
1 -23 3 40 1 -29 -39 -24
4 -18 3 41 -2 -29 -41 -25
2 -19 7 41 -5 -29 -40 -26
0 -22 12 39 -3 -26 -39 -25
-1 -23 13 40 0 -24 -37 -23
1 -28 11 36 -3 -24 -37 -24
2 -27 11 46 2 -23 -35 -22
0 -29 8 45 -9 -24 -36 -23
0 -28 9 37 -10 -27 -37 -22
1 -27 8 43 -5 -30 -38 -22
-1 -25 8 41 -2 -36 -43 -26
0 -24 9 35 -6 -40 -47 -28
2 -28 14 42 -10 -38 -44 -27
0 -25 11 41 -14 -37 -46 -30
0 -25 13 38 -14 -34 -46 -32
1 -24 13 40 -7 -33 -46 -31
-2 -27 13 39 -6 -33 -44 -29
1 -27 10 39 -7 -35 -45 -29
2 -29 9 42 -8 -37 -45 -30
1 -27 11 42 -13 -38 -45 -29
0 -28 14 42 -19 -37 -44 -28
-3 -29 14 41 -18 -39 -46 -29
-2 -30 17 46 -12 -41 -46 -29
-2 -32 17 49 -9 -40 -47 -28
1 -28 15 49 -15 -42 -49 -31
0 -28 13 44 -18 -44 -51 -33
-3 -35 13 42 -17 -43 -50 -32
-1 -32 11 42 -17 -45 -52 -34
1 -27 13 39 -18 -48 -52 -34
-1 -30 13 44 -21 -50 -53 -33
-3 -32 14 42 -17 -51 -55 -33
-4 -35 16 45 -19 -51 -56 -34
-3 -38 19 49 -13 -50 -55 -34
-3 -35 19 45 -19 -53 -59 -37
-3 -32 18 46 -23 -56 -63 -40
-3 -34 19 43 -21 -59 -64 -41
-3 -38 23 42 -23 -56 -59 -36
-1 -31 19 37 -35 -61 -62 -38
-3 -35 20 38 -31 -62 -61 -37
-6 -36 17 40 -30 -65 -64 -39
-8 -42 17 39 -31 -68 -67 -41
-7 -42 24 40 -31 -68 -70 -42
-7 -35 23 41 -34 -73 -73 -48
-10 -36 25 46 -37 -72 -74 -48
-9 -39 28 42 -37 -72 -74 -47
-8 -33 25 35 -42 -78 -77 -49
-9 -26 23 37 -49 -82 -77 -49
-11 -33 25 34 -54 -83 -76 -48
-15 -38 27 30 -56 -86 -77 -47
-13 -40 27 34 -53 -88 -79 -47
-16 -44 30 39 -54 -88 -79 -47
-12 -45 31 43 -51 -90 -82 -50
-16 -46 32 40 -60 -94 -85 -53
-16 -51 33 33 -65 -96 -88 -55
-15 -48 35 30 -68 -101 -92 -57
-14 -49 36 27 -66 -105 -94 -57
-18 -49 37 26 -71 -105 -95 -56
-15 -43 34 23 -80 -110 -99 -59
-20 -49 35 20 -86 -116 -102 -61
-23 -54 37 20 -84 -121 -106 -62
-24 -55 37 18 -86 -125 -109 -63
-26 -54 36 17 -87 -129 -114 -67
-26 -53 37 17 -90 -136 -118 -69
-27 -59 37 15 -97 -140 -123 -72
-26 -58 38 18 -105 -145 -126 -73
-25 -56 41 11 -111 -148 -129 -73
-27 -58 40 4 -112 -153 -130 -74
-29 -62 41 4 -113 -155 -132 -74
-30 -55 39 -3 -119 -161 -137 -77
-33 -59 37 -5 -124 -168 -142 -81
-33 -60 39 -4 -128 -171 -145 -81
-34 -65 40 -4 -125 -174 -149 -83
-38 -69 39 -9 -131 -180 -153 -87
-37 -69 40 -12 -127 -183 -154 -87
-38 -70 40 -16 -141 -187 -158 -88
-37 -73 42 -21 -141 -189 -159 -87
-39 -73 43 -23 -151 -192 -159 -86
-38 -70 38 -25 -156 -198 -163 -90
-40 -65 39 -28 -156 -202 -165 -87
-41 -65 36 -35 -163 -207 -167 -89
-44 -67 36 -37 -161 -211 -170 -91
-44 -66 36 -40 -163 -214 -173 -93
-47 -66 35 -46 -169 -216 -175 -94
-45 -71 35 -46 -172 -216 -174 -94
-47 -69 35 -47 -176 -217 -176 -95
-46 -65 31 -51 -181 -221 -177 -94
-48 -66 29 -48 -184 -222 -177 -92
-49 -64 24 -55 -186 -224 -178 -90
-48 -61 22 -57 -185 -225 -178 -89
-48 -62 21 -61 -187 -228 -180 -90
-48 -61 22 -66 -188 -230 -182 -90
-48 -61 24 -65 -183 -228 -180 -88
-50 -65 26 -64 -179 -225 -176 -84
-48 -62 22 -65 -191 -224 -174 -86
-45 -61 19 -71 -188 -222 -172 -86
-47 -66 18 -76 -183 -220 -171 -85
-45 -60 17 -75 -180 -215 -166 -81
-45 -57 16 -75 -183 -211 -163 -79
-46 -57 14 -78 -180 -208 -161 -78
-42 -56 11 -75 -178 -205 -159 -76
-42 -51 8 -80 -177 -203 -155 -76
-41 -51 10 -81 -168 -197 -150 -72
-39 -48 11 -74 -172 -191 -147 -69
-39 -46 10 -75 -170 -185 -141 -66
-38 -46 9 -79 -160 -180 -136 -63
-37 -43 7 -72 -143 -170 -130 -59
-35 -38 2 -76 -142 -165 -126 -59
-33 -33 1 -74 -147 -159 -119 -55
-34 -36 1 -70 -140 -152 -112 -51
-33 -39 1 -71 -131 -145 -106 -46
-30 -36 -1 -68 -128 -141 -104 -44
-28 -33 -3 -66 -128 -135 -100 -44
-27 -27 0 -65 -114 -126 -93 -38
-25 -25 0 -58 -100 -119 -85 -36
-24 -28 -2 -57 -103 -112 -80 -34
-21 -23 -1 -55 -85 -103 -74 -30
-19 -22 -2 -52 -77 -95 -68 -27
-17 -18 -6 -51 -80 -90 -65 -26
-16 -17 -7 -44 -76 -82 -60 -25
-19 -19 -8 -44 -71 -77 -56 -23
-21 -15 -6 -41 -61 -70 -49 -20
-18 -15 -5 -37 -58 -62 -43 -17
-17 -14 -4 -31 -50 -61 -42 -16
-16 -13 -5 -34 -58 -57 -39 -14
-14 -15 -5 -29 -50 -47 -33 -10
-14 -10 -8 -26 -41 -40 -30 -10
-11 -7 -9 -25 -33 -34 -25 -9
-7 -8 -10 -23 -22 -29 -20 -8
-7 -6 -9 -24 -22 -26 -16 -5
-9 -6 -9 -24 -33 -24 -16 -6
-8 -5 -9 -21 -29 -20 -13 -3
-7 -3 -7 -20 -21 -14 -9 -1
-10 -2 -7 -16 -15 -10 -7 -1
-6 -5 -7 -15 -13 -6 -3 1
-4 -7 -5 -13 -7 1 3 5
-3 -7 -5 -14 2 3 5 5
-2 1 -7 -11 -2 5 5 5
-4 1 -6 -5 -6 7 8 6
-5 -1 -8 -4 1 10 10 9
0 2 -9 -6 4 10 9 9
0 4 -11 -4 0 11 11 7
-2 7 -12 -6 0 10 8 5
0 7 -8 -2 1 13 12 7
-1 4 -9 1 11 12 12 7
-2 0 -8 5 17 17 16 10
-2 6 -10 3 12 15 15 8
0 11 -11 5 8 15 15 9
1 13 -12 -3 14 15 16 8
0 10 -13 2 15 17 18 11
0 17 -15 1 7 16 16 9
1 10 -12 5 11 22 19 12
0 6 -11 9 17 21 17 10
-1 5 -9 6 20 23 18 10
-1 7 -11 6 15 21 17 9
0 8 -11 2 15 21 17 9
1 7 -11 -1 13 20 17 8
-2 9 -11 0 12 19 17 9
-2 6 -12 3 11 19 18 10
0 11 -12 8 13 19 18 11
0 12 -12 5 11 19 18 11
-1 5 -10 11 18 21 20 12
-2 4 -11 8 13 19 17 8
-2 1 -12 9 19 20 17 8
1 -2 -9 12 11 21 20 12
2 -2 -9 9 9 19 18 11
0 1 -9 8 15 19 17 11
-1 4 -10 1 10 17 17 11
-2 4 -13 -1 14 17 17 11
-2 5 -14 2 8 20 18 11
-1 2 -13 4 11 20 20 12
-5 1 -11 3 12 20 19 11
-3 2 -9 6 5 18 18 8
1 9 -14 1 3 12 15 4
4 10 -13 4 6 12 16 5
1 3 -10 5 8 17 20 10
-4 4 -10 4 5 16 19 8
-2 4 -10 1 13 16 19 9
0 4 -12 -1 12 14 16 9
1 4 -14 5 4 12 15 8
-1 8 -14 -1 -2 10 14 6
-2 1 -13 5 6 11 14 8
-1 -2 -13 5 3 12 14 7
-1 1 -13 -1 3 11 12 5
-3 2 -12 -1 1 10 12 4
0 5 -11 2 6 12 13 5
-2 0 -9 -2 4 13 14 6
-5 0 -9 0 1 12 15 5
-2 11 -15 -8 4 8 10 2
-3 5 -15 -1 7 9 12 4
-3 0 -15 -1 2 10 13 5
-2 -1 -15 -1 12 9 13 5
-3 -4 -14 -5 13 9 14 5
-3 0 -14 -8 5 6 11 1
-5 -1 -12 -3 7 7 12 2
-2 -3 -12 -4 6 9 12 2
-2 -3 -12 -4 5 10 12 1
-4 -3 -13 -5 5 9 12 1
-5 -7 -13 -6 4 10 14 3
-4 -2 -16 -8 1 7 10 1
-4 -2 -15 -10 -5 5 10 1
-4 -3 -13 -11 -6 4 9 2
-2 -2 -14 -13 7 1 7 1
-3 -2 -14 -14 3 0 8 0
-2 -6 -13 -11 3 2 11 0
-2 -5 -13 -13 -2 4 11 0
-5 -5 -12 -14 -4 6 12 1
-2 -4 -13 -16 -1 6 12 1
-1 -3 -15 -13 7 5 11 2
1 -10 -13 -8 17 11 15 7
-2 1 -19 -17 3 5 11 1
-5 2 -18 -21 -1 1 10 2
-3 -2 -19 -16 0 3 11 3
-3 -5 -17 -20 5 2 10 1
-2 -6 -14 -18 -5 4 11 1
-2 -3 -17 -17 -1 6 13 1
-2 -3 -17 -19 2 6 14 1
-2 -6 -15 -19 4 8 17 2
-1 -2 -18 -21 -3 6 15 2
1 -2 -16 -21 -7 7 16 3
-1 -2 -15 -19 -3 5 16 3
-6 -4 -13 -11 8 7 18 4
-3 -1 -15 -16 4 6 16 4
-1 -8 -14 -20 5 7 17 3
-1 -3 -16 -19 4 5 13 -1
0 0 -17 -21 -4 4 10 -3
-3 -2 -18 -23 -3 4 10 -3
-5 -3 -19 -24 -1 3 11 -3
-1 -5 -19 -20 -5 5 14 1
-3 -4 -19 -20 -9 6 14 1
0 -1 -19 -20 -5 5 13 0
1 1 -19 -20 -3 6 13 1
-1 -3 -19 -19 -3 5 13 0
-1 -2 -20 -22 6 3 12 -1
-2 0 -20 -23 4 3 13 -2
0 -2 -17 -19 -6 8 15 0
-1 -9 -17 -18 -1 9 18 3
-1 -4 -21 -22 0 6 14 0
2 -3 -18 -18 3 10 17 4
-1 -2 -19 -17 -4 7 16 3
-1 -3 -17 -15 2 9 18 4
1 -4 -19 -13 1 9 17 3
0 -6 -20 -20 -5 9 16 2
1 1 -17 -21 -5 9 15 2
2 -1 -16 -18 0 10 15 3
-1 1 -18 -20 -2 8 13 1
-1 3 -17 -16 7 9 15 1
-3 0 -20 -20 6 8 15 0
-1 -1 -23 -24 4 7 14 0
-1 1 -23 -24 -8 9 15 1
-1 -1 -20 -22 -3 11 17 1
0 -3 -18 -22 0 12 18 1
2 -1 -20 -16 -2 11 17 1
1 -1 -21 -20 -6 9 18 1
1 1 -18 -17 -2 10 18 2
2 -3 -18 -17 6 13 18 3
1 0 -18 -17 2 11 18 4
-1 2 -18 -16 -2 11 18 5
-1 2 -18 -18 -5 12 18 4
-1 9 -21 -21 -6 11 16 2
-1 7 -22 -25 -3 11 15 0
-2 0 -20 -21 -5 13 16 1
-1 -4 -18 -17 -4 14 17 3
-1 -4 -18 -19 -4 13 17 3
-1 0 -17 -20 -2 13 16 2
0 1 -15 -21 -1 15 17 2
-2 0 -14 -22 2 15 18 3
-3 -1 -13 -21 -2 15 19 3
-1 -5 -16 -22 -9 15 18 2
0 0 -19 -25 -3 15 18 3
4 9 -20 -27 -6 14 17 2
0 0 -18 -24 -4 15 17 2
-2 0 -15 -21 -4 14 16 2
1 1 -14 -24 2 15 17 3
2 -2 -14 -22 3 15 17 3
5 -1 -12 -20 -4 15 18 4
4 1 -11 -22 -3 15 18 4
0 2 -12 -24 -7 14 15 2
-1 5 -14 -22 4 14 14 1
1 1 -16 -21 8 14 16 2
0 1 -16 -22 7 15 19 4
0 3 -17 -20 7 15 18 3
-3 -4 -15 -22 4 15 19 3
1 -2 -12 -18 3 18 21 4
0 4 -13 -15 3 19 21 4
3 12 -17 -21 3 18 19 2
0 6 -15 -18 2 21 23 4
0 5 -15 -19 7 19 22 5
3 8 -15 -17 8 19 22 6
2 6 -15 -4 5 20 23 7
1 3 -15 -6 4 17 21 6
1 4 -15 -10 7 17 20 6
1 0 -17 -9 7 18 18 6
2 3 -19 -11 -4 17 16 3
2 1 -19 -14 -2 17 16 1
0 -1 -17 -16 5 17 17 3
1 -3 -15 -14 13 20 19 6
1 -1 -13 -12 13 21 20 6
1 4 -16 -15 7 19 18 5
2 6 -14 -13 0 18 18 5
0 4 -12 -10 1 20 19 6
-1 2 -14 -12 1 18 17 5
2 6 -17 -18 5 15 14 3
1 5 -18 -18 0 13 12 0
0 3 -16 -15 1 15 13 0
-1 3 -14 -14 4 17 15 1
1 3 -12 -11 2 17 16 2
0 5 -12 -13 1 17 17 3
1 1 -13 -10 0 18 20 7
0 4 -15 -17 -5 17 20 7
1 5 -18 -13 -4 19 19 6
0 0 -17 -10 1 21 21 8
2 1 -13 -10 10 23 22 9
4 9 -12 -12 8 21 20 6
4 10 -13 -14 6 21 19 4
3 1 -10 -11 13 24 22 7
0 4 -15 -10 18 20 20 6
1 3 -17 -10 7 18 18 6
1 1 -14 -13 12 19 19 8
1 1 -14 -14 15 19 18 6
2 10 -15 -16 4 16 15 3
-1 1 -14 -11 2 19 16 4
1 -2 -14 -10 9 20 17 5
6 6 -16 -11 12 20 14 1
6 12 -17 -12 1 18 12 -1
1 5 -16 -11 7 20 14 1
2 3 -13 -5 9 22 16 3
2 3 -13 -2 3 21 17 3
2 3 -13 -3 4 22 17 4
4 7 -16 -5 3 22 17 3
1 -1 -15 -9 5 22 17 4
-1 -2 -15 -12 5 21 18 3
-1 1 -14 -11 6 22 17 3
0 0 -14 -8 4 25 18 4
2 1 -14 -2 13 25 18 4
5 5 -15 -4 5 23 17 3
3 5 -13 -4 10 26 19 5
-1 2 -12 -1 8 25 21 6
0 0 -14 -5 2 22 19 6
3 4 -16 -13 0 20 18 6
0 7 -17 -9 1 19 16 6
1 -1 -16 -4 4 18 17 5
1 -2 -13 0 0 21 18 5
-1 -1 -13 -3 3 22 19 3
2 1 -12 -2 6 23 19 3
3 6 -15 -2 8 23 18 1
3 9 -16 -5 13 23 16 0
5 7 -14 -7 16 25 19 1
7 4 -13 -8 13 26 20 3
4 5 -15 -8 5 24 18 2
1 5 -13 -7 5 25 18 2
0 0 -11 -6 10 23 17 3
2 2 -12 -5 19 21 16 2
2 3 -13 -2 9 19 15 0
1 4 -13 -4 5 22 16 -1
2 8 -14 -6 13 25 18 0
3 9 -15 -5 16 26 17 -1
7 9 -16 -6 13 25 17 -1
8 7 -14 -8 16 27 18 1
5 6 -11 -6 22 27 18 2
5 5 -11 -6 12 27 18 2
1 0 -10 -4 14 26 18 1
0 -1 -11 -5 15 25 17 1
2 0 -10 -2 14 24 17 0
0 1 -12 -4 12 25 16 0
5 2 -12 -1 6 26 18 1
4 2 -12 3 13 27 19 0
2 2 -11 1 13 27 21 1
4 0 -9 6 13 29 24 5
4 0 -9 6 15 27 23 4
4 4 -11 4 12 28 22 4
6 8 -13 -1 8 24 19 3
5 5 -13 0 13 24 18 4
5 0 -11 1 12 26 19 5
5 0 -11 6 10 28 18 4
4 2 -11 2 7 25 17 2
3 0 -10 2 11 27 18 3
0 -3 -11 2 13 27 19 3
6 2 -11 0 12 28 20 4
7 9 -10 0 15 26 20 3
3 3 -7 0 11 27 21 5
4 2 -7 3 14 27 21 6
4 6 -8 6 12 28 21 6
4 2 -6 6 13 28 20 5
5 -2 -5 3 17 30 20 6
2 0 -5 6 12 28 20 6
1 2 -4 4 9 26 18 5
2 3 -2 6 9 29 21 7
0 3 -4 5 10 28 20 8
4 5 -5 9 14 27 18 5
5 0 -4 14 21 27 21 9
6 0 -5 11 16 26 22 8
6 7 -7 4 14 27 19 6
5 6 -5 11 12 28 20 5
4 9 -8 10 14 28 18 3
6 8 -8 10 17 30 18 3
5 5 -7 7 12 31 18 5
6 7 -6 7 13 30 19 5
6 6 -6 7 24 31 20 6
5 9 -6 7 21 30 21 6
9 14 -5 9 29 32 21 8
8 14 -4 16 23 32 23 8
3 10 -3 15 17 34 23 9
6 12 -2 15 25 33 23 10
5 8 -1 20 23 34 24 12
8 18 -2 16 13 32 23 10
8 14 -1 20 19 36 26 13
8 15 0 17 25 35 26 13
8 18 0 13 23 35 26 13
5 13 1 20 22 36 28 16
6 14 2 20 22 38 28 17
10 20 1 20 18 34 26 14
7 17 1 20 20 35 26 15
10 17 4 22 28 38 28 16
14 23 2 24 35 39 28 15
11 22 1 26 33 39 28 14
11 21 1 19 34 40 30 16
11 19 -1 21 30 40 30 15
12 22 -3 20 27 40 30 17
13 25 -4 21 22 38 29 18
14 17 -2 25 31 40 31 20
14 21 -4 21 27 38 31 19
16 31 -8 18 24 38 29 18
16 30 -10 15 22 38 28 18
14 30 -10 16 21 40 30 18
16 33 -11 16 26 41 32 18
17 33 -15 17 26 42 30 19
18 29 -16 14 36 42 31 19
16 27 -16 10 31 40 29 18
13 25 -18 7 27 37 27 15
12 18 -18 12 22 35 27 16
17 17 -19 12 24 33 27 15
18 20 -18 6 29 35 27 17
17 18 -17 6 26 36 28 18
17 16 -17 0 22 33 25 16
17 12 -15 1 20 37 29 18
16 11 -17 -1 22 36 28 16
17 18 -17 0 29 37 30 16
16 18 -17 -2 23 35 29 14
16 17 -19 -4 15 33 24 13
15 12 -16 -3 20 35 26 16
12 12 -16 -5 23 32 25 14
11 14 -14 -3 20 33 25 14
7 9 -12 4 19 35 27 16
9 12 -11 1 15 32 24 14
9 11 -9 1 15 31 23 14
8 9 -10 0 10 28 21 11
7 9 -14 -9 11 25 18 8
6 10 -14 -5 19 22 17 7
6 3 -14 -5 14 23 16 7
8 -1 -12 -6 15 24 16 7
9 6 -15 -9 14 19 12 1
5 0 -12 -9 15 21 12 3
8 -8 -9 -3 13 23 15 5
4 -10 -11 -9 8 19 14 3
3 -8 -11 -15 5 18 13 4
6 -2 -14 -14 7 19 13 4
4 -1 -14 -8 4 20 14 4
5 0 -12 -7 16 21 16 7
7 1 -13 -9 9 21 16 7
7 1 -14 -12 1 19 14 6
7 0 -15 -12 10 21 15 7
6 0 -14 -13 16 20 14 5
7 2 -14 -11 11 19 12 4
6 -4 -12 -8 11 20 13 5
6 -4 -14 -3 10 19 12 3
6 -6 -10 -9 13 23 15 6
4 -1 -11 -9 14 22 15 5
4 3 -14 -8 13 17 12 3
5 0 -13 -11 10 20 15 6
5 1 -12 -6 11 22 16 8
7 2 -12 -3 14 22 15 6
7 2 -11 -6 11 23 15 7
7 0 -14 -7 10 23 14 6
6 -2 -14 -5 14 24 13 5
6 1 -15 -4 18 21 11 2
6 1 -13 1 18 22 9 0
6 -4 -8 9 24 29 14 1
6 -10 -7 18 40 36 18 1
5 -8 -4 29 65 45 22 0
11 0 0 45 66 56 25 0
13 -2 6 63 78 66 26 -3
15 3 20 99 113 85 34 0
16 15 31 137 154 110 45 5
17 31 43 170 193 140 65 16
21 56 53 204 238 176 88 32
23 82 66 243 299 227 123 57
23 117 79 287 368 281 158 79
26 153 90 334 446 356 210 114
32 187 89 364 526 431 262 150
42 222 83 394 599 500 314 184
58 249 71 408 651 566 370 224
83 276 53 399 699 632 428 262
115 300 28 353 748 706 496 305
152 321 -14 283 786 790 579 354
182 351 -60 191 797 858 648 395
195 363 -84 115 765 869 684 416
183 323 -81 41 632 757 638 391
154 262 -73 -87 393 568 545 339
108 216 -81 -254 115 385 452 293
58 181 -92 -401 -114 215 352 245
14 153 -114 -475 -249 80 249 192
-11 117 -130 -474 -282 -7 162 145
-24 83 -136 -441 -288 -82 72 97
-36 50 -131 -391 -281 -151 -21 45
-39 23 -127 -344 -255 -167 -62 14
-36 9 -117 -300 -228 -154 -71 -3
-35 4 -106 -259 -210 -144 -82 -23
-31 -11 -95 -222 -188 -132 -83 -34
-24 -26 -78 -179 -160 -115 -77 -36
-21 -36 -63 -141 -135 -100 -69 -36
-14 -29 -54 -111 -114 -83 -60 -32
-11 -22 -46 -89 -91 -71 -51 -27
-11 -15 -36 -72 -83 -62 -45 -23
-7 -7 -27 -51 -62 -53 -40 -21
-4 -5 -19 -31 -49 -46 -35 -18
-5 -12 -9 -18 -38 -38 -29 -15
-4 -11 -4 -8 -32 -34 -27 -15
-4 -8 -4 -7 -30 -29 -23 -13
-1 -4 -6 -2 -30 -27 -22 -11
1 -5 -7 -1 -33 -25 -22 -12
1 -9 -7 -2 -32 -26 -23 -13
2 -9 -7 5 -23 -26 -22 -13
1 -9 -6 7 -28 -26 -23 -15
-1 -14 -2 5 -22 -23 -24 -15
-1 -10 1 7 -17 -20 -22 -14
1 -8 3 13 -19 -19 -23 -14
4 -16 4 15 -14 -16 -20 -13
2 -11 3 8 -12 -15 -21 -15
0 -5 1 6 -17 -16 -20 -15
2 -8 2 9 -15 -13 -16 -12
3 -13 2 11 -14 -13 -15 -10
2 -13 2 19 -11 -14 -16 -10
0 -14 3 19 -13 -17 -17 -12
1 -18 5 24 -5 -17 -17 -14
2 -18 6 22 -7 -18 -18 -15
3 -17 7 20 -9 -17 -18 -15
0 -15 5 18 -6 -16 -18 -16
1 -11 3 15 -6 -16 -18 -15
1 -14 5 14 -11 -15 -15 -14
3 -19 7 17 -12 -13 -14 -11
4 -16 7 16 -14 -17 -17 -13
1 -15 5 16 -16 -18 -18 -14
3 -13 4 17 -14 -20 -19 -15
0 -19 6 19 -5 -20 -21 -14
2 -21 9 23 -7 -22 -21 -14
5 -21 11 24 -6 -21 -20 -14
4 -16 10 20 1 -22 -21 -15
1 -14 7 17 -6 -21 -22 -14
3 -12 7 19 -16 -20 -19 -14
5 -12 6 21 -18 -19 -19 -13
5 -13 8 29 -6 -17 -17 -11
-1 -16 9 28 -8 -18 -16 -10
2 -18 9 25 -14 -21 -18 -12
4 -11 9 28 -10 -23 -22 -14
3 -17 12 35 -12 -21 -20 -14
2 -23 14 33 -10 -19 -19 -13
3 -16 12 27 -12 -21 -21 -16
1 -17 8 26 -2 -22 -23 -17
3 -10 7 30 -6 -23 -24 -17
3 -14 7 31 0 -24 -23 -16
3 -19 13 36 1 -22 -21 -13
5 -18 15 43 -3 -22 -19 -11
5 -20 15 44 -3 -24 -19 -11
1 -22 16 46 -7 -26 -21 -12
3 -22 17 45 -7 -26 -21 -14
3 -25 18 48 -8 -25 -22 -14
2 -21 17 44 -5 -27 -23 -16
0 -19 17 41 -13 -26 -25 -16
2 -18 15 40 -20 -27 -24 -16
5 -12 13 40 -20 -28 -26 -15
2 -16 14 43 -17 -29 -26 -16
2 -19 13 44 -18 -32 -27 -17
2 -20 16 47 -16 -32 -27 -16
4 -20 17 49 -17 -33 -29 -18
2 -20 19 50 -17 -31 -28 -19
2 -24 21 52 -10 -30 -27 -17
2 -27 21 52 -9 -30 -27 -18
1 -18 17 49 -23 -34 -32 -21
3 -19 14 51 -24 -36 -31 -20
6 -17 13 48 -22 -37 -31 -19
4 -19 14 47 -18 -36 -29 -18
2 -22 12 46 -22 -40 -33 -20
1 -21 15 49 -26 -42 -34 -21
1 -22 20 52 -16 -41 -33 -20
1 -25 22 55 -17 -39 -33 -20
3 -21 21 56 -20 -39 -34 -20
4 -19 21 54 -21 -39 -35 -22
3 -17 20 53 -16 -39 -36 -22
5 -17 19 55 -20 -40 -35 -24
1 -20 18 52 -15 -41 -36 -23
2 -21 19 50 -22 -41 -36 -22
1 -21 18 50 -27 -45 -38 -23
1 -22 20 54 -29 -48 -39 -24
3 -25 22 56 -28 -49 -40 -24
1 -27 23 56 -23 -50 -41 -25
1 -24 21 55 -24 -51 -41 -26
2 -28 23 54 -25 -51 -40 -25
4 -21 21 50 -30 -53 -44 -28
4 -21 24 56 -30 -50 -42 -25
3 -25 25 54 -20 -49 -41 -24
3 -26 25 58 -25 -51 -43 -26
1 -26 25 57 -37 -53 -44 -26
0 -30 27 57 -31 -55 -44 -25
-2 -28 27 57 -30 -58 -48 -28
-3 -30 27 53 -35 -60 -50 -30
-4 -25 26 51 -41 -62 -51 -32
-5 -24 29 52 -37 -60 -50 -31
-3 -28 29 56 -23 -59 -51 -32
0 -28 29 53 -30 -62 -50 -30
-1 -30 30 54 -33 -61 -50 -29
-2 -31 29 45 -38 -65 -54 -31
-1 -31 29 45 -37 -70 -57 -31
-3 -39 31 46 -45 -72 -57 -33
-6 -39 32 47 -47 -75 -60 -36
-7 -30 31 44 -48 -78 -64 -39
-9 -36 32 42 -55 -79 -65 -38
-9 -37 33 38 -63 -79 -65 -39
-7 -34 34 38 -57 -78 -67 -39
-7 -36 34 38 -52 -82 -68 -39
-7 -34 34 38 -53 -83 -70 -39
-9 -34 35 35 -60 -87 -71 -42
-12 -35 33 35 -58 -91 -75 -43
-11 -39 37 40 -62 -92 -76 -43
-14 -42 36 40 -62 -95 -80 -46
-16 -43 37 39 -64 -98 -83 -48
-14 -45 38 37 -72 -101 -85 -50
-14 -46 39 38 -77 -103 -88 -52
-16 -45 38 35 -81 -108 -93 -54
-20 -42 37 27 -85 -115 -96 -56
-20 -47 39 24 -87 -115 -94 -55
-19 -47 40 24 -97 -118 -96 -54
-19 -51 37 27 -101 -124 -102 -58
-22 -53 41 25 -96 -127 -105 -59
-24 -54 39 26 -99 -130 -107 -60
-23 -58 36 24 -102 -134 -112 -63
-25 -59 40 20 -101 -136 -115 -64
-25 -59 41 15 -119 -144 -119 -67
-27 -60 41 9 -127 -146 -120 -66
-26 -58 40 6 -126 -152 -124 -69
-26 -59 38 5 -127 -156 -127 -70
-29 -59 38 2 -131 -161 -131 -69
-31 -59 36 -2 -132 -166 -135 -73
-31 -66 39 1 -133 -169 -137 -73
-32 -66 38 -4 -140 -174 -141 -75
-35 -63 35 -9 -149 -181 -147 -81
-38 -59 33 -11 -153 -186 -151 -83
-37 -60 34 -13 -160 -189 -153 -83
-38 -66 35 -16 -155 -190 -154 -81
-38 -65 35 -23 -161 -195 -155 -83
-39 -70 34 -24 -170 -196 -156 -82
-42 -71 31 -28 -178 -202 -160 -83
-42 -72 31 -30 -178 -206 -160 -83
-42 -70 30 -32 -179 -210 -163 -83
-42 -65 30 -34 -180 -213 -166 -85
-43 -62 30 -41 -185 -215 -168 -88
-44 -65 28 -46 -186 -216 -169 -89
-44 -69 31 -47 -184 -214 -168 -86
-44 -68 31 -49 -179 -211 -169 -85
-44 -68 28 -51 -184 -215 -167 -84
-47 -63 22 -62 -199 -219 -172 -87
-49 -63 18 -64 -203 -223 -173 -88
-46 -61 14 -67 -201 -223 -173 -86
-43 -60 16 -65 -199 -220 -170 -82
-45 -64 17 -63 -200 -219 -169 -81
-44 -64 20 -67 -195 -216 -167 -80
-45 -60 19 -70 -196 -215 -166 -77
-47 -59 16 -73 -192 -212 -162 -77
-46 -61 14 -77 -184 -206 -156 -73
-43 -50 6 -81 -190 -209 -157 -74
-42 -44 4 -84 -189 -206 -154 -72
-43 -49 8 -80 -194 -201 -149 -68
-47 -51 8 -80 -192 -196 -147 -67
-44 -44 5 -75 -184 -192 -143 -65
-40 -47 6 -70 -180 -184 -137 -61
-38 -45 3 -69 -172 -180 -133 -60
-35 -39 1 -68 -172 -175 -132 -59
-36 -40 1 -67 -164 -168 -126 -56
-34 -41 1 -71 -150 -160 -119 -52
-32 -39 0 -72 -147 -152 -112 -49
-31 -33 -2 -72 -140 -148 -108 -46
-35 -34 -4 -71 -141 -141 -104 -44
-31 -28 -5 -67 -136 -133 -99 -42
-29 -24 -7 -66 -128 -130 -96 -42
-28 -23 -9 -66 -127 -123 -93 -40
-26 -29 -5 -55 -120 -113 -84 -34
-24 -29 -5 -51 -113 -103 -79 -32
-24 -23 -5 -50 -105 -96 -72 -27
-23 -14 -9 -48 -95 -92 -70 -29
-16 -10 -10 -43 -78 -84 -63 -26
-15 -13 -9 -46 -71 -75 -54 -20
-19 -19 -7 -39 -70 -67 -49 -17
-19 -17 -6 -28 -67 -58 -44 -15
-18 -15 -6 -26 -69 -51 -40 -15
-16 -11 -6 -30 -65 -46 -37 -12
-12 -10 -6 -30 -55 -41 -32 -10
-13 -11 -7 -26 -46 -37 -30 -8
-9 -7 -9 -24 -43 -33 -26 -8
-10 -5 -11 -24 -44 -27 -22 -8
-10 -5 -12 -20 -38 -22 -17 -4
-5 -7 -9 -13 -33 -15 -11 0
-3 2 -12 -11 -27 -15 -11 -1
-3 7 -12 -11 -26 -11 -10 -1
-3 4 -9 -6 -16 -4 -4 3
-6 -7 -7 2 -1 3 0 6
-6 -4 -9 7 -6 5 1 6
-8 0 -9 6 -9 8 2 6
-3 -3 -7 0 6 9 3 6
1 3 -8 -2 1 12 4 5
0 4 -9 0 3 13 6 7
0 5 -10 1 3 14 8 9
2 5 -9 7 5 19 11 11
2 1 -9 11 9 23 13 13
4 10 -11 6 7 21 11 10
2 10 -11 8 10 23 12 9
1 9 -8 12 19 25 14 10
4 10 -10 12 21 25 12 8
3 4 -8 14 23 28 16 11
3 8 -10 10 16 28 17 9
4 11 -12 14 18 27 14 7
4 7 -12 11 25 30 18 9
2 8 -9 16 20 33 21 14
1 18 -13 15 19 29 17 9
2 15 -11 20 19 29 18 12
2 11 -8 20 28 32 21 14
1 7 -7 25 23 31 19 13
1 10 -7 21 23 31 19 14
2 6 -4 20 23 33 20 15
2 2 -2 24 24 36 22 17
3 8 -6 20 20 32 19 15
2 11 -9 20 18 31 19 14
2 9 -9 23 23 33 20 15
4 7 -7 20 23 33 20 15
3 4 -5 24 30 33 18 15
3 12 -6 23 26 33 18 12
2 9 -3 24 29 34 18 12
3 4 0 27 24 35 20 14
2 4 2 27 21 36 20 16
2 6 0 26 29 36 20 14
3 9 -5 25 17 31 17 13
2 9 -9 24 15 30 16 12
0 13 -8 23 18 27 15 11
3 11 -5 18 24 25 13 10
1 4 -2 24 28 26 14 13
-1 5 -4 23 25 25 13 9
1 10 -5 22 19 25 12 8
1 6 -4 22 24 26 13 9
2 4 -5 22 17 25 12 8
3 7 -3 22 17 27 13 10
2 2 -3 23 25 29 16 13
3 3 -5 23 24 27 15 11
1 2 -6 24 17 26 14 10
1 9 -8 20 18 22 12 8
1 9 -5 22 25 25 13 10
0 4 -3 25 22 26 15 10
2 2 -3 23 21 24 13 9
2 3 -3 25 18 22 11 7
2 0 -2 24 18 23 10 6
2 5 -2 24 16 24 11 5
4 3 -4 25 19 24 13 6
4 1 -9 22 25 23 12 5
3 10 -11 23 23 22 11 4
3 7 -8 22 30 21 12 4
0 1 -4 21 22 21 11 5
2 5 -5 21 21 20 7 1
-1 1 -5 20 18 19 7 1
-1 -6 -5 21 16 18 7 2
-2 2 -4 19 13 18 5 2
2 12 -6 15 8 14 2 -3
4 13 -4 19 18 16 5 -1
2 7 -5 17 16 17 6 0
1 7 -7 19 12 18 6 1
1 7 -7 20 14 20 8 1
3 4 -9 21 15 19 5 0
2 1 -7 20 20 19 6 0
1 -5 -6 16 25 20 7 0
-1 -4 -6 20 20 21 8 1
2 0 -7 17 20 20 7 -1
2 1 -7 18 11 20 7 -1
1 -1 -7 16 10 20 7 0
2 1 -7 14 14 21 8 1
2 2 -9 17 12 19 7 1
2 2 -8 18 19 20 8 2
5 -1 -7 23 21 20 7 2
3 1 -8 19 17 18 6 0
4 0 -7 20 21 18 6 -1
1 -1 -7 22 17 17 4 -1
0 -3 -7 16 20 19 6 0
2 -2 -7 15 19 20 8 -1
0 -3 -10 12 21 18 7 -1
2 -2 -10 15 20 18 8 1
5 5 -11 13 19 18 8 1
4 1 -9 13 23 20 10 2
3 1 -7 16 19 21 9 2
2 -2 -8 16 19 20 8 1
3 -6 -6 17 24 21 10 2
3 -4 -7 15 22 24 9 1
4 2 -9 11 22 23 8 0
5 0 -11 12 20 21 8 -1
2 -4 -11 13 20 22 9 1
1 -2 -11 9 15 21 8 0
0 2 -9 8 12 20 7 0
2 6 -11 8 13 17 6 -1
5 5 -11 11 15 18 5 -1
4 5 -12 10 18 18 5 -2
2 -4 -8 12 24 22 10 3
3 0 -9 11 22 24 11 2
3 5 -9 9 24 21 10 0
4 10 -8 11 26 21 11 1
5 5 -7 11 17 22 12 1
6 1 -8 12 19 23 12 2
2 3 -8 13 22 22 12 3
1 5 -9 11 25 22 11 2
4 -1 -11 12 18 20 10 2
6 2 -10 13 17 20 10 3
6 6 -10 17 19 18 10 3
6 4 -11 13 23 19 10 3
4 1 -9 14 25 22 13 5
5 -2 -9 13 26 21 12 5
4 -4 -9 15 26 22 15 6
3 0 -11 20 20 22 12 5
5 5 -8 11 18 21 12 5
8 8 -11 10 19 19 11 5
5 -1 -9 12 30 20 12 7
4 1 -9 10 25 19 11 5
4 3 -9 13 18 20 10 4
4 1 -7 18 23 22 12 5
6 7 -8 15 18 23 11 4
5 6 -9 10 20 23 12 6
3 7 -11 8 19 21 12 7
5 7 -10 7 23 21 12 8
4 2 -9 8 22 22 15 10
3 7 -12 6 19 20 12 7
7 8 -12 9 33 20 12 7
8 5 -9 11 21 20 12 6
6 9 -11 9 19 17 9 4
3 1 -9 11 25 21 12 8
5 3 -11 9 23 21 12 7
7 6 -13 9 17 23 14 8
8 4 -14 9 19 24 15 8
4 2 -10 10 24 24 15 9
2 2 -6 9 22 24 16 9
2 2 -7 6 21 24 16 9
3 3 -7 6 22 24 16 9
3 2 -6 6 21 24 15 8
4 4 -7 6 20 23 14 7
5 3 -6 8 20 26 15 8
5 1 -7 7 20 25 13 8
4 -3 -6 4 25 25 14 9
6 -2 -7 4 32 25 15 10
5 7 -11 4 21 22 13 8
5 8 -11 3 18 21 14 8
7 7 -12 2 19 20 14 8
6 7 -12 -1 20 19 13 8
5 10 -12 -1 16 19 12 7
3 9 -9 0 12 19 13 7
6 6 -7 3 16 21 13 8
7 6 -8 1 16 20 12 8
4 4 -7 0 21 20 13 9
5 6 -7 1 20 20 15 10
5 5 -9 3 26 19 15 11
5 3 -8 8 23 22 17 12
6 5 -7 8 20 23 18 11
4 3 -7 6 23 22 16 10
3 5 -8 1 17 22 15 8
4 4 -5 1 18 25 18 9
3 2 -3 4 20 26 19 10
6 -1 -2 3 36 29 20 12
4 1 -4 0 29 27 21 11
1 3 -7 -2 14 26 19 10
3 6 -9 3 21 26 19 10
2 8 -10 1 20 24 18 9
4 5 -6 -1 27 24 19 9
7 3 -3 1 31 26 20 11
7 2 -3 5 29 26 20 11
5 9 -6 4 26 22 16 7
3 3 -5 1 20 24 17 7
4 0 -2 2 26 27 20 10
4 6 -6 3 20 24 18 8
1 4 -7 2 19 24 18 8
1 9 -8 -1 23 23 18 8
3 7 -7 -2 22 24 19 9
3 2 -6 -2 22 23 18 10
3 2 -5 2 16 23 17 10
4 5 -4 0 21 23 18 10
5 7 -4 0 18 24 17 9
7 6 -4 -1 21 24 18 10
6 7 -5 -2 24 22 17 9
6 6 -4 -2 27 22 19 8
5 7 -4 -6 21 24 17 8
6 5 -5 -3 23 24 18 11
8 6 -3 0 24 26 22 14
5 4 -2 -1 25 26 21 13
3 5 -5 0 18 23 18 10
5 2 -2 2 24 25 20 12
5 0 -1 4 24 25 20 12
6 4 -2 2 22 25 19 11
6 8 -4 -1 18 24 18 10
6 6 -4 -2 15 22 17 10
10 7 -2 -4 17 21 16 9
8 6 -2 -5 21 22 17 11
3 5 -2 -6 22 22 17 11
3 2 -2 -5 24 23 17 11
3 2 -2 -6 29 21 16 11
2 1 -1 -3 26 19 15 11
5 -3 1 -1 27 19 15 9
7 2 1 1 31 22 16 9
7 9 -1 -1 31 22 15 9
3 4 -3 -4 26 23 17 10
8 9 -4 -1 25 25 20 12
8 6 -3 1 23 23 20 12
7 3 -1 -5 24 22 20 13
6 5 -2 -6 24 24 21 12
5 0 -2 -1 26 24 22 13
3 5 -3 -7 24 21 18 11
4 5 0 -3 25 26 21 13
4 -3 -3 -3 23 26 21 11
5 1 -5 -6 28 24 19 10
6 8 -5 -6 27 24 19 10
7 6 -4 -8 24 24 18 10
6 4 -4 -9 27 23 20 10
8 6 -2 -6 22 24 22 13
5 8 -1 -6 29 24 21 13
6 12 -2 -7 23 23 22 14
5 10 -5 -9 17 21 18 10
8 9 -4 -8 21 21 19 11
8 8 -6 -9 18 19 18 10
4 5 -4 -8 19 21 20 12
5 3 -3 -7 28 22 20 14
5 7 -4 -8 19 21 20 13
3 7 -1 -5 23 22 24 15
6 5 -2 -1 26 23 22 14
9 4 -5 -5 20 19 16 10
6 3 -3 -7 36 20 18 12
6 1 2 -5 35 25 24 15
6 2 -1 -6 36 23 20 13
6 2 -2 -7 34 22 21 14
7 4 -1 -9 32 19 18 11
6 7 -1 -9 20 19 19 10
8 6 -2 -7 22 20 21 12
7 7 -7 -6 23 18 19 11
6 8 -7 -5 22 21 21 13
6 13 -7 -4 22 21 19 12
5 10 -3 -6 25 21 18 11
4 5 -1 -5 26 22 20 12
4 7 -2 -7 23 21 18 12
4 10 0 -7 23 19 17 11
6 5 2 -6 24 21 22 13
4 1 2 -8 24 20 20 14
5 1 1 -9 26 21 21 14
5 4 3 -9 24 20 21 13
4 7 -1 -8 20 20 21 13
7 10 -3 -7 21 19 19 14
8 8 -5 -13 23 17 18 12
7 3 -3 -10 29 19 20 12
7 5 -2 -7 32 21 20 12
6 5 -1 -10 20 22 20 12
8 6 0 -6 18 23 21 11
6 8 0 -7 28 24 21 12
8 7 -1 -12 32 23 21 12
7 7 -1 -9 25 22 21 11
4 7 -2 -8 19 22 21 10
3 6 -2 -8 27 20 20 11
4 2 -2 -9 34 22 21 12
7 6 -2 -9 23 21 20 10
7 9 1 -6 24 23 21 11
6 7 2 -8 26 21 20 9
6 11 -1 -14 25 19 17 7
8 13 -1 -14 26 19 17 8
7 9 1 -13 27 21 20 11
7 9 0 -14 24 19 19 9
6 5 0 -12 20 19 20 10
4 5 -1 -14 20 17 17 9
4 7 -1 -14 27 17 19 9
4 -1 0 -12 26 18 19 9
5 8 -2 -13 27 18 18 9
8 12 2 -12 24 22 21 11
6 11 3 -13 30 20 20 10
7 4 6 -10 28 24 22 12
10 11 1 -10 21 22 19 10
7 10 -1 -9 22 22 19 12
10 6 -4 -13 28 21 20 12
5 -1 -1 -8 30 24 23 14
4 7 1 -9 30 21 21 12
8 13 0 -15 24 19 18 10
5 10 1 -13 29 22 21 11
7 11 3 -8 30 26 24 13
10 19 1 -11 31 25 22 12
7 15 2 -7 38 27 24 14
10 14 4 -4 32 29 27 17
11 22 3 -8 29 25 25 16
7 19 3 -10 41 25 23 16
6 15 5 -3 44 27 25 16
6 16 5 -5 31 26 24 16
7 20 6 -4 24 27 24 16
4 25 6 -7 28 28 25 16
8 26 7 -7 33 28 25 15
10 26 10 -3 36 30 27 17
8 19 13 2 41 34 31 20
11 25 10 4 36 32 30 20
10 28 9 1 34 31 29 20
10 28 8 6 37 32 29 20
10 22 12 2 33 35 32 22
9 16 12 4 41 34 33 23
10 17 12 9 43 35 32 21
14 25 9 3 44 34 32 20
13 26 9 0 42 34 31 21
12 28 5 -3 35 30 29 19
13 31 6 -4 42 32 29 19
15 28 4 -3 40 32 30 22
17 33 -1 -5 40 32 29 23
15 32 -3 -7 40 32 29 22
15 31 -4 -5 39 32 28 22
20 36 -4 -6 36 31 28 24
17 30 -4 -7 36 32 28 23
15 28 -5 -10 36 29 27 20
13 27 -4 -11 33 28 27 20
11 21 -2 -8 37 29 29 21
14 16 0 -4 38 33 29 22
17 16 0 -6 37 34 31 21
13 23 -3 -8 32 32 28 18
14 21 -2 -9 39 32 29 21
16 17 -2 -14 35 30 29 21
14 17 -3 -15 31 29 29 17
15 17 1 -14 33 31 30 20
11 14 0 -12 30 28 28 18
10 14 -1 -12 32 27 27 16
8 10 1 -8 24 28 29 18
10 19 2 -7 26 28 27 17
12 14 3 -9 37 28 29 18
9 5 5 -8 35 29 29 16
9 9 4 -8 28 26 25 13
9 10 5 -4 30 24 25 15
10 9 3 -7 25 18 20 11
8 8 4 -13 30 17 18 9
4 0 7 -13 32 18 19 10
2 -1 9 -17 27 17 19 10
4 -2 12 -16 20 19 19 10
4 -4 10 -20 16 19 16 6
4 -2 7 -24 14 18 16 5
4 2 4 -27 14 16 15 4
0 -4 3 -27 14 15 16 5
-1 -7 2 -27 14 15 15 6
1 -1 4 -25 14 14 15 6
3 -5 10 -19 16 17 17 8
4 -7 11 -21 24 18 19 8
5 1 6 -25 19 14 16 5
3 -2 3 -27 18 14 16 4
2 -2 6 -27 17 16 16 5
2 -4 7 -27 16 15 17 6
4 -1 7 -28 21 14 17 5
3 -1 6 -27 27 14 17 6
2 -5 7 -26 24 16 18 7
5 -6 9 -26 27 17 18 7
4 -2 8 -24 26 17 15 5
5 -3 7 -25 18 17 15 6
5 0 7 -22 25 18 16 7
3 -2 6 -22 30 18 16 8
2 -4 10 -22 29 20 18 10
1 -3 8 -21 20 17 18 10
0 -1 7 -25 25 15 17 7
1 0 7 -26 28 14 17 8
4 -3 7 -23 31 15 16 7
7 -3 8 -15 27 17 17 6
5 2 9 -13 36 20 16 2
5 -4 10 -10 41 26 17 0
7 -9 17 8 57 39 23 3
5 -11 22 27 74 54 29 5
9 -7 30 41 91 61 28 0
9 -2 42 70 119 75 34 1
7 5 56 111 157 98 45 6
11 21 72 151 206 126 63 16
12 44 85 187 253 163 87 34
12 71 96 222 310 209 119 56
15 111 105 268 364 259 150 74
16 144 115 315 435 325 195 104
23 181 118 351 512 399 246 143
37 220 119 377 584 466 296 176
50 247 114 393 645 530 347 213
70 277 100 378 700 591 402 250
97 307 75 338 748 657 466 292
132 331 32 269 780 738 544 341
165 350 -17 189 798 807 616 384
177 360 -49 120 780 832 657 410
169 336 -56 42 653 737 621 387
144 278 -60 -91 414 563 535 338
104 228 -79 -274 145 395 453 300
56 193 -107 -441 -86 234 359 257
12 162 -120 -526 -230 97 260 206
-14 126 -124 -521 -270 8 173 159
-23 89 -125 -482 -275 -65 91 111
-34 58 -120 -429 -270 -139 -2 58
-35 33 -114 -374 -251 -163 -51 25
-34 13 -102 -326 -226 -153 -60 6
-32 -5 -83 -276 -194 -138 -67 -13
-25 -15 -63 -232 -165 -124 -69 -24
-22 -25 -46 -190 -138 -107 -60 -25
-20 -27 -38 -159 -115 -94 -54 -27
-14 -22 -28 -132 -84 -79 -45 -21
-12 -19 -19 -109 -81 -67 -39 -16
-11 -16 -8 -89 -63 -58 -32 -12
-12 -10 3 -74 -40 -48 -26 -8
-10 -9 8 -61 -31 -43 -23 -9
-5 -7 10 -47 -36 -40 -23 -9
-4 -9 12 -39 -22 -37 -20 -8
-6 -13 15 -37 -18 -34 -18 -7
-4 -13 16 -33 -19 -31 -15 -6
-1 -5 10 -36 -14 -34 -18 -9
-1 -8 8 -36 -18 -33 -17 -10
-6 -13 10 -28 -26 -29 -15 -10
-4 -13 11 -22 -24 -29 -16 -11
0 -16 15 -19 -20 -25 -16 -10
0 -17 18 -4 -16 -23 -14 -10
-2 -20 19 -9 -14 -22 -14 -11
2 -13 19 -16 -11 -22 -15 -12
2 -12 20 -12 -4 -20 -16 -13
1 -14 19 -14 -5 -21 -14 -12
2 -9 15 -16 -4 -22 -15 -12
0 -13 15 -11 -7 -20 -13 -11
-2 -12 15 -10 -6 -22 -14 -11
-1 -17 19 -10 -5 -21 -14 -9
-1 -17 21 -9 -9 -23 -16 -10
-1 -15 20 -2 -3 -24 -17 -12
0 -20 21 1 -4 -21 -15 -11
4 -17 20 -6 -12 -22 -17 -13
2 -15 20 -8 -7 -22 -16 -12
0 -17 20 -6 -6 -22 -15 -14
3 -20 19 -3 -6 -20 -14 -11
1 -20 20 -2 -9 -21 -13 -10
-1 -20 19 -2 -1 -22 -13 -10
3 -21 21 -5 -2 -24 -14 -11
3 -16 18 -7 -7 -28 -20 -15
2 -16 22 -1 -5 -28 -21 -16
3 -19 23 -1 -10 -27 -20 -15
0 -20 25 -4 -13 -27 -22 -17
-3 -20 26 0 -2 -24 -20 -14
0 -16 24 -2 -4 -26 -20 -16
2 -15 22 -4 -10 -24 -18 -14
3 -14 19 -2 -10 -25 -18 -14
-1 -16 18 -6 -4 -26 -19 -14
1 -16 21 -6 -7 -27 -19 -13
3 -19 27 -3 -7 -25 -20 -14
0 -20 30 1 -5 -27 -21 -16
1 -19 29 3 -7 -26 -22 -16
0 -24 28 0 -9 -26 -22 -16
-5 -24 26 2 -7 -28 -22 -15
-1 -19 25 3 -9 -29 -20 -14
3 -21 26 0 -13 -28 -20 -12
4 -9 26 -1 -17 -31 -22 -15
5 -12 27 1 -11 -29 -20 -14
3 -15 29 0 -14 -30 -20 -15
0 -17 30 1 -9 -28 -21 -15
2 -14 29 3 -7 -30 -23 -17
1 -20 29 5 -10 -28 -22 -16
0 -23 31 5 -10 -25 -20 -15
-2 -19 28 3 -13 -27 -23 -18
-1 -18 28 2 -16 -28 -22 -18
1 -23 30 1 -10 -26 -20 -14
0 -24 28 0 -15 -30 -24 -16
0 -18 26 3 -18 -33 -26 -16
-1 -19 30 6 -16 -33 -24 -15
1 -21 32 11 -11 -32 -24 -16
2 -23 32 15 -10 -34 -26 -19
-2 -22 31 13 -10 -34 -28 -21
0 -19 32 14 -13 -33 -26 -20
-1 -24 33 9 -9 -33 -27 -18
-1 -25 32 9 -9 -35 -26 -19
2 -22 31 10 -12 -34 -27 -18
2 -19 28 8 -10 -38 -30 -20
0 -15 26 6 -10 -41 -32 -22
0 -19 29 10 -9 -40 -30 -21
-1 -24 32 22 -9 -40 -31 -20
0 -26 35 20 -20 -38 -31 -20
-2 -30 36 18 -13 -36 -29 -19
-4 -28 35 16 -11 -39 -30 -20
0 -20 32 16 -18 -40 -32 -22
0 -19 30 13 -21 -43 -33 -23
0 -23 30 12 -23 -45 -34 -22
-1 -24 30 13 -29 -47 -37 -24
-6 -32 33 15 -21 -46 -35 -22
-4 -32 33 13 -19 -47 -36 -22
-4 -35 34 17 -21 -46 -37 -21
-1 -23 33 14 -24 -48 -40 -25
2 -19 31 20 -10 -48 -40 -25
-1 -28 33 22 -13 -47 -39 -24
-1 -23 32 17 -22 -49 -41 -27
2 -19 33 17 -25 -49 -40 -27
-1 -22 31 12 -31 -52 -41 -28
-4 -26 32 9 -29 -53 -40 -26
-8 -32 35 19 -27 -52 -39 -25
-10 -29 34 19 -33 -56 -42 -27
-9 -28 33 13 -34 -57 -45 -30
-6 -32 37 15 -32 -56 -43 -30
-5 -32 35 18 -35 -58 -45 -31
-4 -30 35 17 -33 -59 -47 -32
-5 -33 36 13 -28 -59 -46 -31
-2 -28 37 14 -31 -60 -44 -29
-3 -23 34 13 -36 -64 -48 -32
-8 -27 35 11 -41 -65 -49 -31
-5 -35 38 14 -44 -63 -48 -30
-3 -36 36 14 -38 -68 -51 -32
-8 -35 37 17 -40 -71 -56 -35
-10 -35 39 15 -41 -74 -58 -38
-10 -38 38 14 -51 -76 -61 -39
-9 -36 38 13 -50 -78 -63 -41
-12 -35 38 15 -45 -78 -62 -41
-12 -35 38 14 -45 -79 -62 -39
-10 -29 37 12 -50 -85 -65 -43
-10 -38 40 9 -65 -89 -67 -43
-12 -34 42 9 -70 -94 -72 -46
-13 -36 44 11 -68 -96 -73 -47
-19 -41 44 9 -71 -98 -75 -48
-20 -40 45 10 -68 -100 -77 -51
-17 -43 44 9 -69 -103 -81 -54
-13 -48 46 6 -75 -105 -80 -54
-15 -49 46 5 -78 -107 -84 -56
-17 -43 44 1 -83 -112 -90 -59
-16 -41 45 -3 -87 -115 -89 -59
-18 -43 45 -1 -95 -117 -92 -60
-21 -47 44 -6 -89 -123 -96 -60
-24 -49 46 -7 -87 -127 -97 -60
-28 -51 48 -3 -95 -131 -103 -63
-23 -51 48 -11 -102 -138 -108 -68
-27 -59 50 -11 -100 -139 -109 -70
-29 -59 48 -17 -110 -143 -113 -72
-27 -56 48 -21 -113 -144 -114 -72
-30 -58 49 -21 -118 -148 -115 -70
-34 -63 48 -19 -124 -153 -117 -69
-32 -59 48 -27 -124 -158 -119 -72
-32 -61 46 -35 -136 -165 -122 -75
-32 -62 48 -32 -137 -166 -124 -74
-32 -58 47 -34 -136 -169 -129 -78
-35 -60 48 -37 -146 -173 -131 -80
-35 -59 46 -41 -149 -178 -136 -84
-38 -61 44 -44 -143 -184 -142 -86
-40 -61 44 -47 -158 -187 -145 -86
-40 -58 43 -47 -160 -190 -145 -87
-41 -68 42 -43 -165 -194 -148 -86
-42 -65 39 -52 -170 -199 -152 -89
-42 -61 35 -54 -179 -204 -154 -89
-42 -67 37 -59 -175 -208 -155 -89
-41 -71 41 -62 -169 -206 -155 -88
-42 -70 42 -61 -173 -207 -154 -87
-47 -69 42 -62 -180 -208 -155 -88
-46 -66 41 -66 -182 -210 -156 -87
-44 -62 37 -67 -180 -212 -158 -88
-46 -64 34 -69 -191 -212 -156 -84
-46 -67 32 -74 -189 -214 -156 -86
-49 -63 31 -77 -190 -217 -157 -86
-46 -61 32 -78 -188 -215 -156 -83
-43 -59 29 -79 -191 -217 -155 -83
-46 -60 27 -83 -197 -215 -157 -83
-46 -56 23 -85 -192 -215 -157 -83
-45 -55 18 -88 -187 -214 -157 -83
-44 -58 18 -85 -184 -211 -154 -81
-47 -59 23 -87 -176 -205 -148 -78
-45 -56 21 -87 -180 -202 -145 -75
-41 -52 17 -91 -189 -202 -144 -75
-41 -51 15 -97 -184 -200 -143 -73
-39 -45 11 -94 -180 -199 -143 -73
-41 -49 12 -92 -186 -197 -139 -72
-43 -46 13 -94 -175 -192 -135 -68
-38 -41 11 -90 -168 -187 -132 -67
-36 -44 12 -93 -160 -180 -125 -62
-36 -48 11 -88 -155 -172 -119 -59
-36 -42 10 -83 -157 -164 -114 -56
-31 -36 5 -89 -154 -159 -109 -54
-30 -38 5 -91 -149 -151 -104 -51
-30 -38 7 -85 -138 -143 -97 -45
-30 -39 6 -83 -129 -140 -95 -43
-28 -31 3 -82 -119 -136 -91 -42
-26 -25 0 -84 -116 -129 -87 -42
-28 -29 1 -76 -109 -120 -80 -37
-25 -25 0 -76 -103 -113 -74 -35
-23 -22 -1 -76 -105 -104 -69 -33
-21 -19 -1 -70 -92 -94 -62 -31
-17 -21 2 -64 -85 -84 -54 -25
-16 -18 0 -67 -82 -80 -51 -25
-17 -18 0 -64 -69 -74 -46 -22
-17 -14 -1 -65 -67 -68 -39 -18
-15 -10 -2 -66 -67 -64 -37 -18
-14 -12 -1 -62 -54 -58 -33 -17
-14 -12 -1 -60 -53 -52 -29 -15
-10 -10 -2 -52 -60 -47 -26 -14
-10 -10 -3 -50 -52 -40 -22 -12
-12 -13 -4 -49 -47 -33 -17 -8
-8 -9 -4 -46 -40 -27 -12 -5
-8 -6 -4 -44 -26 -23 -9 -5
-8 -7 -2 -42 -28 -21 -7 -3
-9 -6 -1 -36 -21 -17 -5 -2
-10 -7 -1 -35 -20 -13 -1 1
-4 -8 -1 -36 -15 -9 0 0
-1 -5 0 -34 -18 -5 3 2
-2 -5 -1 -34 -19 -3 4 2
-1 0 -3 -30 -18 0 5 2
-2 4 -7 -27 -7 1 6 1
-5 -2 -8 -25 -3 2 8 3
-4 -1 -8 -23 -5 4 10 4
-1 -2 -5 -19 -3 8 12 4
-1 2 -4 -23 -2 10 12 5
1 7 -3 -19 4 11 14 5
1 10 -5 -23 -1 13 13 3
3 7 -2 -18 7 17 16 6
-2 4 -3 -20 6 17 15 5
0 5 -3 -22 6 17 15 6
0 4 -2 -18 14 22 18 8
-2 5 -4 -18 7 21 19 8
-1 8 -4 -18 17 19 20 8
2 7 -4 -17 17 19 20 9
1 5 -3 -15 7 18 19 10
0 4 -2 -15 3 19 22 12
0 7 -4 -13 3 20 19 10
0 4 -3 -10 14 23 22 11
4 4 -1 -10 9 24 22 9
3 3 -2 -9 11 24 21 9
2 1 0 -12 10 25 21 9
-1 2 2 -14 18 25 22 11
-1 7 -2 -19 16 20 18 7
1 5 -5 -18 12 20 18 9
0 6 -6 -15 10 20 18 9
-2 6 -5 -16 8 19 19 9
0 2 1 -14 11 23 21 10
1 0 1 -14 12 23 21 10
0 3 2 -13 16 24 21 10
-1 3 5 -14 13 25 23 11
-1 -2 1 -13 8 24 19 8
0 5 -1 -14 14 22 19 7
-1 9 -4 -18 21 19 16 6
2 6 -4 -16 16 19 16 7
1 3 -2 -14 21 21 19 9
-4 1 -2 -14 13 18 18 9
-3 4 -3 -18 5 16 15 7
-3 2 -2 -16 8 17 15 7
-3 -1 0 -12 4 18 15 8
-2 -1 0 -11 8 18 14 8
-2 -2 1 -12 10 20 15 9
-1 2 -1 -13 11 17 13 8
1 -1 0 -10 7 16 13 9
1 3 -1 -7 11 15 13 9
1 5 -3 -14 6 13 10 5
-2 -1 -2 -12 4 13 12 7
-2 -3 -3 -10 0 14 10 5
-1 -3 -3 -8 -5 15 9 5
1 -1 -4 -10 -2 14 8 1
0 -5 0 -7 6 18 10 4
-1 2 -2 -9 12 17 9 2
-3 5 -3 -14 5 17 9 2
1 6 -4 -17 0 15 7 1
0 3 -2 -15 3 16 9 2
-2 3 -3 -14 -2 15 8 1
-1 2 -2 -16 -4 13 7 2
-2 0 -4 -18 0 10 5 0
-2 -4 -4 -15 1 10 5 1
-1 -6 -3 -14 6 12 6 2
-1 -6 -6 -15 -1 11 5 1
0 -4 -5 -14 0 15 8 2
2 -2 -3 -16 7 16 8 3
1 -1 -3 -14 5 15 7 2
-2 0 -3 -19 1 13 6 -1
-2 0 -3 -17 -2 11 5 -2
-3 -5 -1 -17 1 11 6 0
-2 -5 0 -11 1 12 6 0
-3 -5 -1 -16 2 9 4 -2
-3 -8 0 -13 -2 8 5 -1
-4 -7 -1 -14 -3 8 4 -1
-2 -9 -3 -18 -4 7 3 -2
-2 -9 -2 -15 -4 8 5 0
0 -2 -5 -16 -1 7 2 -2
0 -3 -5 -18 -7 10 3 -2
0 -7 -2 -14 -4 13 6 1
-2 -10 -3 -12 -8 11 5 1
-1 -9 -4 -13 -1 12 5 1
-2 -6 -5 -13 0 10 3 -2
-2 0 -7 -13 -7 7 0 -4
-1 -3 -7 -11 -7 8 0 -3
-3 -7 -7 -12 -8 9 1 -2
-1 -2 -7 -17 -8 5 0 -4
2 -2 -7 -16 -7 5 1 -4
3 -9 -5 -13 -7 8 4 -2
4 -2 -5 -16 -6 8 4 -4
2 -6 -4 -14 6 13 6 1
3 -11 -3 -10 0 17 8 1
4 -6 -4 -10 3 14 5 -1
1 -4 -2 -15 5 12 3 -2
0 -6 -2 -16 1 10 2 -3
1 -10 -2 -14 4 14 5 -1
-1 -10 -3 -14 11 14 5 0
-1 -4 -9 -19 7 12 3 -1
0 -7 -10 -17 1 15 5 0
1 -1 -9 -15 -5 15 4 -1
4 2 -6 -16 -6 15 3 -1
2 -4 -4 -17 1 17 6 0
3 -3 -4 -14 5 18 6 0
1 -4 -4 -14 3 18 7 1
0 -5 -5 -13 -6 20 8 1
0 -2 -6 -19 -5 22 8 1
0 -4 -6 -17 -9 20 7 2
0 -2 -5 -18 -6 19 7 2
3 -2 -6 -13 -5 20 7 1
2 -1 -9 -13 -3 20 5 -1
0 -5 -7 -16 -1 21 6 1
1 -3 -5 -17 1 22 6 0
3 -6 -6 -17 1 22 5 -1
3 -7 -6 -19 -1 21 5 -1
2 -4 -5 -18 2 21 7 0
2 -7 -5 -17 7 24 9 2
1 -7 -6 -12 5 25 10 5
0 -2 -10 -14 1 23 9 3
1 -3 -11 -11 -7 24 9 3
2 -7 -8 -10 -8 24 10 5
-2 -6 -9 -10 -3 22 10 5
-2 -1 -9 -16 -1 19 7 1
0 2 -11 -17 -1 18 5 0
6 0 -8 -13 3 19 6 1
4 -2 -8 -8 2 21 7 1
2 -1 -7 -8 0 22 7 1
5 0 -8 -14 2 21 7 1
3 0 -8 -9 0 23 8 2
-2 -2 -13 -10 6 23 8 2
0 2 -15 -11 2 24 9 2
3 -6 -13 -9 0 25 11 4
1 -6 -12 -11 5 25 10 4
-2 -2 -10 -12 -2 24 9 2
3 0 -12 -12 -8 22 8 1
5 -2 -10 -8 2 26 12 5
2 -7 -8 -5 4 29 15 6
-1 -6 -9 -4 6 27 14 7
0 -2 -9 -5 12 28 15 8
1 -5 -11 -4 6 26 14 7
2 -5 -13 4 11 26 13 8
1 1 -14 -1 11 22 11 6
1 -4 -14 -6 9 21 9 4
2 -8 -12 -7 3 22 10 5
1 -3 -12 -6 1 19 9 3
0 -4 -14 -10 12 18 8 2
0 3 -15 -8 4 19 8 2
2 5 -17 -11 -1 19 9 3
0 3 -17 -10 1 20 10 4
2 3 -16 -9 7 24 12 6
1 -6 -14 -9 8 24 14 8
0 -6 -15 -11 5 23 14 6
4 -3 -15 -11 3 21 11 5
5 2 -16 -5 1 21 11 5
5 2 -15 -5 5 21 11 4
1 1 -16 -12 1 21 10 1
0 3 -14 -11 -2 22 13 3
2 0 -15 -12 0 23 14 6
0 -4 -15 -10 2 24 14 6
5 1 -17 -8 7 25 15 6
3 -1 -16 -5 0 24 15 6
3 -4 -15 -8 3 24 16 6
4 3 -16 -8 2 22 13 4
2 2 -16 -7 3 23 15 6
2 3 -17 -11 5 20 12 5
1 3 -14 -13 5 21 14 6
0 1 -12 -13 2 21 15 7
3 3 -15 -14 0 22 15 6
3 2 -16 -15 0 21 14 6
3 0 -17 -15 4 21 15 7
4 -5 -16 -14 6 20 16 7
2 -2 -17 -13 7 18 13 5
4 3 -16 -8 6 18 11 3
3 1 -15 -9 14 20 14 6
5 3 -18 -15 12 19 13 4
8 4 -19 -16 3 20 13 4
4 3 -18 -16 0 21 13 6
4 2 -19 -14 5 21 15 7
6 3 -18 -14 4 20 16 8
6 4 -19 -17 12 19 15 8
6 -1 -21 -21 8 17 14 6
6 2 -20 -17 7 18 15 6
4 6 -19 -16 4 19 14 5
4 4 -19 -13 7 20 15 7
5 4 -17 -15 11 21 16 7
3 0 -16 -9 10 22 17 9
1 3 -18 -13 4 20 17 7
2 4 -22 -17 0 17 13 5
4 5 -22 -19 -1 17 14 6
3 1 -22 -23 2 18 14 5
3 -1 -22 -23 8 16 14 5
6 2 -21 -21 6 16 14 6
4 3 -20 -19 8 17 15 7
2 5 -21 -16 4 18 15 7
4 3 -18 -17 10 22 18 9
4 1 -18 -19 16 22 18 9
5 7 -21 -18 18 19 15 6
7 6 -20 -19 7 20 16 7
8 5 -18 -21 10 21 16 8
5 3 -19 -17 9 21 16 9
3 1 -23 -18 7 18 13 5
5 2 -24 -17 4 16 12 3
7 2 -23 -15 7 19 12 5
4 1 -24 -12 7 20 13 6
3 4 -23 -8 10 20 15 7
4 6 -26 -9 12 18 14 5
5 3 -23 -8 13 19 14 5
6 5 -19 -5 13 21 16 7
5 4 -23 -11 11 19 14 5
5 7 -25 -12 11 20 15 6
6 11 -26 -10 10 20 15 6
5 4 -26 -14 11 19 15 5
5 5 -25 -11 17 20 15 6
6 5 -25 -9 11 20 16 7
4 1 -24 -8 14 21 17 9
5 0 -24 -8 20 19 16 9
6 1 -25 -11 18 18 14 8
6 6 -28 -13 9 17 15 8
5 4 -27 -8 8 18 15 8
2 1 -27 -8 18 20 15 8
4 3 -27 -11 17 21 15 7
3 4 -28 -9 20 20 15 7
2 5 -26 -11 24 20 15 8
4 5 -26 -7 18 19 15 8
3 -1 -27 -2 14 17 15 7
5 0 -28 -7 11 17 15 8
3 0 -25 -7 15 20 17 9
4 3 -28 -9 12 19 16 9
6 4 -27 -3 10 20 16 10
5 4 -28 -8 14 20 16 9
4 8 -31 -6 12 17 15 8
5 3 -30 -3 19 19 17 11
3 -2 -28 -5 15 18 16 10
2 2 -28 -1 13 18 15 8
4 1 -25 -2 20 20 16 8
3 3 -27 -7 11 18 12 5
6 4 -27 -5 10 17 12 6
5 4 -28 -6 17 18 14 8
6 7 -28 -9 23 19 15 10
5 4 -27 -10 17 22 18 11
4 3 -29 -9 10 20 18 11
5 3 -26 -9 14 19 18 12
9 3 -25 -5 19 19 18 11
7 5 -27 -6 18 19 16 10
3 6 -26 -9 18 18 17 9
4 3 -27 -8 12 18 16 7
6 5 -28 -10 13 20 18 9
7 6 -29 -8 10 19 17 8
6 8 -30 -10 13 19 17 9
3 7 -28 -12 16 19 16 8
4 8 -27 -7 10 18 17 8
5 4 -26 -6 10 17 17 7
4 3 -24 -2 18 19 17 8
5 4 -22 -1 19 20 21 10
4 -1 -20 -1 20 21 20 11
2 -1 -21 -3 20 23 18 11
-1 3 -21 -5 14 21 16 10
3 3 -20 -2 14 20 17 11
4 1 -19 -4 16 21 18 11
3 4 -21 -7 18 20 17 10
2 5 -24 -11 14 18 16 9
4 5 -22 -8 8 20 16 9
6 5 -19 -7 12 23 18 9
8 9 -18 -4 17 24 18 9
6 10 -20 -4 17 21 16 7
6 4 -19 -2 20 24 18 9
5 6 -19 -1 22 24 20 9
4 1 -18 -2 24 24 20 11
3 0 -16 -3 23 24 19 12
4 5 -15 -3 12 22 18 11
5 4 -14 3 13 23 19 12
3 -6 -11 4 20 25 22 16
3 1 -15 4 24 22 17 11
6 4 -16 5 26 22 18 11
7 2 -13 4 17 22 18 11
6 3 -15 -1 14 19 16 9
5 4 -13 -3 22 21 16 9
4 4 -12 -1 26 21 18 10
6 3 -13 1 24 22 20 13
7 9 -17 -3 16 21 17 10
3 8 -16 -7 19 21 17 10
6 9 -11 -7 19 24 20 12
4 5 -9 -4 24 25 19 12
4 7 -11 -3 17 23 17 11
10 10 -10 -1 27 23 19 12
11 13 -13 -2 21 23 19 12
5 13 -15 2 21 23 19 12
6 18 -16 0 28 23 19 12
5 15 -15 -3 34 24 20 14
6 14 -12 -4 27 25 21 15
6 17 -12 -4 28 24 20 14
7 21 -15 0 23 21 17 11
6 19 -12 3 27 24 19 13
5 21 -9 3 25 27 21 15
7 21 -10 5 25 26 20 14
11 19 -8 7 29 28 21 15
10 21 -10 8 29 28 23 16
11 21 -8 6 31 29 24 16
13 18 -9 4 31 29 23 17
13 23 -12 2 25 27 23 16
16 22 -12 5 29 29 25 17
12 22 -10 2 30 31 28 19
9 21 -10 1 24 31 28 19
11 17 -9 4 34 34 30 21
12 16 -11 5 35 36 31 22
15 18 -12 2 39 38 31 22
14 24 -17 -2 36 38 31 22
13 28 -16 -2 30 38 32 23
16 32 -17 -2 35 39 33 24
20 32 -18 -2 29 39 33 26
20 27 -20 -1 30 39 33 26
18 26 -21 -4 29 36 31 25
15 20 -21 -3 29 33 28 22
14 20 -21 -2 28 30 25 19
15 18 -21 -7 25 29 23 18
15 23 -22 -6 28 29 23 18
15 26 -21 -6 29 29 23 19
14 20 -19 -8 20 29 25 18
11 19 -17 -7 14 26 24 17
15 17 -18 -4 21 26 24 19
16 17 -20 -9 23 23 23 17
17 17 -18 -7 23 24 22 17
14 13 -16 -8 32 26 23 18
11 14 -19 -10 23 25 21 16
8 8 -17 -7 22 25 21 16
7 6 -15 -6 20 24 21 16
11 10 -13 -10 22 24 22 16
8 12 -13 -10 23 25 23 16
6 7 -13 -10 28 23 22 16
8 7 -15 -15 23 20 20 14
4 2 -15 -16 19 19 20 14
6 8 -15 -18 17 17 17 11
5 4 -10 -15 21 19 18 12
2 2 -12 -15 18 15 15 9
3 6 -11 -18 12 13 14 8
4 5 -13 -17 13 13 13 7
3 0 -14 -21 20 14 13 7
5 3 -16 -24 15 13 13 6
1 -1 -18 -27 13 13 13 6
-1 -5 -18 -27 7 12 14 6
2 -3 -15 -23 6 13 15 6
2 -6 -16 -22 8 13 12 5
2 -7 -13 -20 15 18 15 9
2 -3 -15 -22 21 16 13 7
3 -2 -16 -24 4 14 12 7
4 1 -14 -24 9 14 11 8
4 1 -14 -25 12 12 11 7
4 -5 -12 -23 12 12 13 10
1 0 -13 -22 11 11 11 8
-1 1 -14 -23 13 11 11 7
1 -2 -12 -21 13 15 13 8
4 0 -11 -20 8 15 12 7
6 7 -12 -16 11 13 9 4
5 6 -12 -12 17 15 10 5
4 -2 -11 -11 13 18 13 8
4 -2 -10 -8 14 19 15 9
4 3 -13 -4 15 18 13 7
3 4 -11 -6 17 16 12 6
3 2 -7 -5 15 17 12 6
3 -2 -6 -4 19 18 12 5
3 -6 -6 2 22 19 12 5
4 -7 -4 8 32 23 13 3
7 -6 -5 14 43 29 14 -1
10 -8 -1 32 56 38 17 -1
10 -7 9 53 68 48 21 -2
10 -11 22 81 90 65 27 0
15 3 33 115 132 88 36 3
16 19 44 155 175 116 52 10
15 40 57 187 221 150 73 26
16 67 69 225 280 195 104 46
18 96 80 268 340 246 138 68
20 132 93 321 419 313 182 97
28 172 100 359 497 389 237 133
36 207 98 388 563 461 289 169
53 236 91 407 627 527 341 204
75 266 72 403 681 591 395 242
103 291 51 384 733 659 458 281
142 317 17 328 772 736 534 330
178 339 -30 237 785 807 609 377
200 359 -66 157 779 845 660 409
198 346 -75 89 681 778 645 404
172 286 -67 -26 461 599 560 357
129 232 -67 -194 193 419 472 313
79 197 -80 -360 -46 256 382 269
27 166 -101 -461 -198 121 286 220
-5 137 -118 -480 -254 27 198 174
-21 102 -128 -457 -263 -44 115 127
-37 66 -127 -418 -262 -121 18 74
-42 43 -121 -373 -251 -160 -47 32
-39 25 -114 -332 -227 -158 -66 10
-36 12 -105 -295 -209 -149 -78 -10
-34 -1 -93 -256 -185 -141 -84 -24
-28 -14 -78 -213 -161 -126 -78 -29
-25 -24 -63 -177 -140 -114 -74 -32
-23 -25 -50 -147 -117 -98 -65 -31
-18 -16 -39 -119 -90 -82 -54 -25
-12 -13 -30 -93 -79 -69 -44 -18
-10 -9 -20 -76 -64 -58 -37 -14
-9 -7 -11 -56 -56 -48 -32 -12
-7 -6 -7 -44 -48 -43 -30 -12
-3 -11 -2 -36 -34 -38 -27 -10
-5 -16 3 -23 -28 -32 -23 -6
-6 -14 4 -21 -21 -32 -23 -7
-6 0 0 -20 -28 -34 -26 -10
0 -2 0 -14 -16 -32 -25 -11
0 -7 0 -16 -23 -33 -25 -11
-1 -9 3 -8 -22 -31 -23 -10
-5 -11 5 -7 -17 -29 -24 -10
-1 -11 3 -3 -14 -31 -26 -13
1 -12 3 -1 -4 -28 -24 -12
1 -12 5 -5 -7 -27 -23 -11
1 -8 5 -1 -19 -26 -19 -11
1 -13 3 2 -15 -25 -19 -10
-1 -16 4 2 -14 -24 -20 -7
0 -14 5 3 -13 -23 -19 -7
2 -13 6 3 -10 -23 -20 -8
0 -10 7 13 -11 -25 -22 -11
-2 -17 9 11 -12 -24 -23 -11
-3 -21 10 9 -15 -24 -22 -12
1 -15 10 10 -10 -22 -21 -12
2 -15 9 12 -2 -21 -21 -13
2 -12 5 9 -6 -23 -22 -14
1 -12 3 10 -17 -24 -22 -14
0 -12 5 12 -14 -23 -23 -13
0 -10 6 10 -13 -24 -22 -11
1 -9 6 9 -11 -22 -20 -12
0 -9 5 12 -9 -24 -22 -13
0 -13 8 16 -1 -23 -22 -13
0 -11 9 19 -5 -24 -23 -15
0 -9 8 16 -12 -27 -25 -17
0 -14 11 19 -10 -25 -23 -14
0 -14 12 20 -5 -26 -24 -15
2 -14 7 25 -9 -28 -25 -14
1 -11 5 19 -15 -28 -25 -14
2 -8 4 14 -14 -31 -27 -16
4 -13 8 16 -8 -28 -25 -13
3 -15 10 19 -6 -29 -26 -13
1 -14 11 20 -12 -32 -29 -16
3 -17 14 26 -13 -29 -26 -15
3 -18 16 21 -9 -28 -26 -15
2 -14 13 19 -7 -31 -29 -16
0 -12 12 19 -3 -29 -28 -16
0 -15 11 16 -12 -27 -25 -14
3 -13 10 16 -13 -30 -28 -14
4 -12 10 15 -11 -31 -27 -14
2 -14 10 19 -12 -29 -26 -13
4 -12 11 20 -13 -28 -25 -12
5 -11 12 22 -14 -32 -28 -14
3 -15 11 29 -13 -32 -28 -15
0 -19 13 27 -6 -30 -27 -14
-1 -16 12 23 -7 -31 -30 -15
3 -11 13 22 -12 -33 -31 -15
2 -12 11 20 -14 -35 -32 -16
-1 -16 12 20 -17 -37 -31 -16
2 -18 13 17 -14 -37 -30 -13
2 -17 12 20 -15 -38 -30 -13
2 -16 12 19 -22 -41 -33 -16
4 -18 14 21 -18 -40 -34 -16
3 -18 15 28 -13 -39 -33 -17
4 -18 18 30 -12 -35 -30 -15
5 -17 16 25 -8 -35 -31 -16
3 -18 15 21 -5 -35 -31 -17
3 -16 17 19 -5 -37 -30 -16
2 -19 18 18 -12 -38 -31 -15
1 -20 16 17 -22 -40 -32 -15
-2 -16 15 23 -22 -40 -33 -16
-3 -21 16 23 -18 -42 -34 -17
-2 -23 16 22 -23 -42 -35 -19
1 -21 15 22 -19 -43 -37 -22
0 -24 20 25 -18 -40 -35 -20
-1 -23 21 28 -21 -41 -37 -22
-1 -23 20 27 -21 -42 -37 -23
2 -19 18 27 -27 -44 -38 -22
5 -19 19 27 -28 -45 -37 -22
1 -20 17 22 -29 -48 -38 -23
1 -22 18 24 -23 -47 -38 -22
1 -16 16 23 -29 -50 -42 -26
-1 -16 15 24 -24 -54 -45 -28
-3 -17 15 24 -23 -57 -46 -29
-1 -18 18 25 -31 -57 -47 -30
-1 -15 20 26 -33 -55 -47 -29
-3 -15 20 28 -29 -54 -46 -30
-3 -20 21 27 -19 -55 -47 -29
0 -20 20 27 -20 -55 -45 -28
1 -18 16 23 -29 -60 -48 -29
-2 -24 18 26 -31 -61 -46 -28
-4 -30 22 29 -34 -60 -46 -28
-5 -24 20 27 -35 -65 -50 -31
-7 -25 20 24 -33 -65 -51 -31
-5 -31 20 27 -30 -63 -51 -31
-5 -28 17 24 -38 -65 -55 -33
-5 -29 19 27 -38 -63 -53 -32
-5 -29 19 30 -39 -68 -54 -31
-4 -28 20 23 -41 -71 -55 -33
-3 -28 22 21 -44 -72 -55 -32
-5 -32 23 21 -43 -73 -56 -31
-5 -28 21 19 -49 -77 -59 -37
-9 -30 20 21 -47 -79 -61 -40
-5 -31 19 24 -46 -80 -65 -40
-6 -31 21 26 -52 -82 -65 -40
-8 -34 24 20 -56 -85 -67 -42
-10 -32 24 18 -46 -87 -70 -43
-9 -32 24 22 -47 -88 -70 -42
-10 -29 22 21 -51 -91 -72 -44
-9 -30 24 21 -52 -94 -72 -43
-10 -33 27 20 -58 -95 -73 -42
-11 -37 27 18 -61 -98 -75 -42
-13 -39 29 20 -53 -100 -76 -43
-15 -39 29 18 -61 -103 -81 -48
-15 -40 28 16 -68 -109 -85 -51
-13 -36 27 19 -81 -113 -88 -53
-14 -38 26 15 -79 -115 -90 -54
-16 -42 28 15 -74 -117 -91 -53
-19 -35 25 19 -79 -120 -95 -56
-20 -37 25 18 -87 -125 -96 -57
-21 -45 28 22 -86 -125 -97 -55
-22 -48 29 18 -91 -129 -100 -57
-23 -45 29 12 -94 -136 -107 -61
-22 -42 30 9 -100 -141 -112 -64
-26 -46 31 6 -103 -144 -113 -65
-25 -51 30 7 -109 -149 -116 -66
-26 -50 29 6 -113 -154 -119 -68
-31 -53 29 2 -119 -158 -121 -67
-27 -52 28 -5 -122 -161 -123 -68
-27 -53 27 -10 -125 -167 -127 -70
-31 -51 28 -12 -132 -170 -129 -72
-30 -55 28 -11 -130 -175 -132 -72
-36 -67 31 -9 -133 -179 -134 -72
-34 -57 30 -12 -138 -184 -139 -75
-35 -59 30 -11 -138 -188 -142 -78
-36 -67 30 -12 -146 -192 -144 -77
-37 -60 28 -21 -151 -198 -149 -80
-41 -53 27 -25 -154 -203 -152 -84
-39 -52 26 -28 -161 -208 -156 -85
-38 -59 28 -26 -161 -208 -158 -84
-43 -59 30 -29 -167 -211 -159 -83
-42 -59 27 -32 -174 -214 -161 -85
-47 -59 24 -32 -172 -217 -163 -86
-45 -61 21 -34 -174 -220 -166 -87
-45 -60 19 -36 -174 -222 -167 -89
-45 -57 19 -45 -181 -228 -170 -90
-45 -55 23 -46 -185 -226 -169 -88
-42 -57 23 -51 -187 -227 -169 -88
-48 -61 21 -51 -183 -226 -168 -86
-46 -63 22 -53 -186 -226 -165 -85
-47 -62 17 -58 -193 -228 -168 -87
-47 -54 15 -64 -196 -230 -170 -86
-47 -54 15 -61 -192 -229 -168 -85
-46 -54 15 -62 -190 -228 -166 -83
-46 -49 15 -63 -184 -226 -166 -82
-45 -55 14 -58 -175 -221 -161 -80
-43 -52 9 -66 -183 -222 -161 -80
-41 -52 9 -62 -182 -218 -157 -75
-44 -51 5 -63 -182 -215 -154 -74
-44 -49 6 -69 -174 -209 -149 -70
-45 -45 2 -72 -173 -208 -149 -71
-44 -48 2 -71 -164 -205 -144 -68
-41 -39 0 -75 -158 -201 -143 -67
-40 -37 0 -69 -161 -197 -139 -67
-44 -43 1 -64 -157 -189 -134 -64
-39 -45 1 -62 -146 -181 -127 -59
-36 -40 -1 -63 -143 -175 -123 -57
-36 -29 -4 -68 -145 -169 -119 -56
-34 -27 -7 -67 -149 -165 -117 -55
-33 -30 -6 -64 -137 -159 -110 -52
-30 -25 -6 -64 -126 -152 -104 -51
-30 -24 -7 -58 -127 -145 -99 -49
-27 -23 -7 -51 -126 -137 -93 -43
-26 -18 -8 -50 -115 -131 -90 -42
-28 -19 -9 -53 -102 -124 -84 -39
-27 -19 -8 -49 -90 -115 -78 -35
-21 -14 -9 -44 -89 -108 -73 -33
-23 -15 -8 -36 -87 -102 -66 -29
-20 -7 -12 -31 -84 -97 -62 -29
-19 -8 -13 -33 -81 -88 -57 -26
-16 -9 -12 -30 -70 -80 -51 -22
-14 -4 -12 -26 -69 -75 -47 -21
-12 -2 -12 -25 -64 -69 -45 -20
-12 -2 -9 -22 -54 -62 -40 -19
-11 2 -10 -14 -42 -57 -35 -16
-11 -4 -10 -12 -40 -49 -29 -12
-11 -2 -12 -9 -35 -44 -25 -9
-8 2 -12 -2 -34 -39 -21 -7
-6 -3 -8 10 -27 -34 -16 -5
-5 0 -10 10 -25 -31 -13 -5
-4 6 -11 4 -24 -28 -13 -5
-3 6 -11 1 -19 -26 -11 -4
-1 5 -9 7 -13 -21 -8 -3
-3 6 -7 19 -6 -16 -5 -2
0 4 -6 21 -3 -11 -1 0
0 0 -7 16 1 -10 0 1
0 7 -8 17 0 -7 1 2
1 7 -6 24 9 -1 5 4
-4 8 -8 22 10 0 7 3
-4 7 -9 20 11 2 9 4
1 9 -7 26 12 4 9 5
6 8 -7 28 11 7 12 4
5 3 -5 35 16 11 13 6
4 11 -7 39 16 11 12 5
3 15 -8 37 21 10 12 4
3 16 -7 32 19 11 13 5
0 10 -5 34 20 13 15 6
1 14 -8 33 20 12 14 5
1 15 -9 37 15 13 14 4
1 9 -9 44 18 17 16 5
3 11 -9 38 20 18 16 6
2 10 -9 39 20 17 18 6
1 10 -7 41 25 18 19 7
2 16 -7 44 24 18 18 7
1 15 -7 39 20 18 17 5
5 13 -7 39 19 18 16 4
5 12 -5 42 22 20 17 6
3 9 -6 40 26 20 18 7
3 11 -6 43 26 19 18 7
2 11 -10 39 24 16 17 5
3 16 -11 35 24 14 16 3
4 17 -11 37 21 13 15 3
4 13 -6 43 23 18 17 5
5 21 -7 43 25 19 16 4
2 13 -5 42 24 21 17 6
2 13 -6 42 20 20 17 6
3 12 -5 42 24 22 18 7
4 12 -5 44 25 21 18 7
2 13 -5 41 20 18 15 5
1 18 -6 40 16 17 15 6
3 18 -9 40 19 15 12 3
4 13 -6 44 25 15 14 5
3 11 -6 44 20 16 14 4
2 12 -9 42 24 15 13 3
3 10 -6 46 31 17 15 5
3 14 -6 43 22 16 16 3
0 10 -4 43 20 19 15 3
1 9 -4 40 24 18 15 1
0 12 -6 39 23 15 12 3
2 14 -8 37 27 15 11 2
3 9 -7 38 26 16 12 2
3 8 -8 39 26 13 10 3
2 8 -8 42 23 14 11 3
1 5 -6 46 28 15 12 2
3 4 -4 44 35 15 11 3
3 10 -5 42 25 15 11 3
3 9 -5 43 23 16 10 3
5 9 -4 39 23 16 11 3
4 9 -5 36 20 14 10 2
1 10 -6 36 18 13 9 1
1 9 -5 38 19 13 9 1
3 10 -6 37 18 11 7 -1
3 10 -6 40 25 12 7 -1
1 -4 -3 42 23 17 10 3
1 1 -5 36 15 15 8 -1
0 7 -6 37 20 13 7 -2
0 3 -3 41 33 15 7 -1
2 1 -3 34 20 15 7 -1
3 7 -5 35 17 14 5 -2
2 8 -4 37 21 14 5 -3
0 8 -3 35 23 15 6 -2
1 8 -2 40 16 15 7 -1
4 5 -4 46 21 13 5 -3
3 4 -3 40 23 13 6 -2
0 4 -2 39 18 11 5 -3
2 5 -3 41 11 10 4 -4
2 4 -3 42 15 16 8 -3
2 0 -5 43 17 17 9 -3
1 3 -9 39 14 15 6 -4
2 6 -7 38 15 16 6 -5
3 4 -4 39 14 15 5 -6
3 4 -4 44 17 16 6 -5
-2 1 -4 46 23 17 6 -4
0 2 -6 46 13 14 4 -6
2 4 -7 50 12 15 4 -6
2 0 -7 49 17 16 6 -4
4 0 -9 44 19 16 6 -6
4 2 -7 49 20 17 7 -6
2 3 -8 50 21 14 5 -8
2 7 -10 43 17 12 2 -8
3 9 -10 43 10 12 3 -7
5 8 -10 51 14 12 2 -8
5 3 -9 53 19 15 2 -7
2 -1 -8 49 18 16 4 -5
3 3 -7 48 14 16 5 -4
3 4 -6 50 14 16 6 -2
2 3 -6 54 21 16 6 -4
1 4 -7 52 20 14 7 -4
1 -1 -7 50 20 16 8 -3
0 -2 -8 53 12 17 7 -3
4 3 -9 52 22 19 8 -3
5 3 -10 54 20 20 9 -2
5 3 -12 51 19 21 7 -2
3 3 -12 51 29 21 8 -1
0 -1 -12 51 22 20 8 -3
0 0 -9 52 20 21 9 -2
3 2 -10 50 19 21 8 -3
4 4 -10 50 23 22 9 -2
2 5 -11 49 22 21 9 -2
2 2 -13 52 28 19 8 -4
3 4 -13 53 25 20 7 -3
5 6 -13 49 22 18 6 -4
3 2 -13 51 21 18 7 -2
6 4 -13 52 16 18 9 -3
5 0 -12 52 14 18 11 -2
6 -4 -10 56 15 20 12 0
0 2 -12 56 20 20 10 -2
2 2 -12 57 25 22 10 -1
8 6 -14 52 27 24 12 0
6 5 -18 50 18 23 12 -2
5 8 -19 47 20 20 9 -1
5 4 -15 49 19 20 9 -1
4 4 -15 48 18 20 8 -3
4 6 -15 51 10 20 9 -1
3 5 -13 54 17 21 10 1
3 -5 -11 56 22 25 12 2
3 2 -14 51 15 23 8 -3
7 13 -17 43 15 19 6 -5
7 12 -16 48 15 22 7 -2
6 10 -15 49 17 24 9 0
2 4 -10 51 22 27 12 3
2 6 -14 51 24 23 9 -1
1 5 -13 56 21 24 7 -1
1 1 -12 58 23 23 10 2
4 6 -14 58 14 23 10 1
5 5 -12 51 19 23 11 1
6 4 -11 51 22 24 11 2
2 3 -10 53 21 25 11 2
3 4 -12 50 23 25 12 3
7 3 -12 56 28 26 12 3
7 6 -13 59 21 28 12 1
7 9 -13 49 24 27 13 1
5 10 -13 49 21 26 11 1
1 6 -11 56 17 28 15 3
3 7 -12 56 15 27 13 3
3 9 -13 49 19 25 8 1
1 5 -14 47 24 25 8 2
2 4 -15 44 25 24 7 2
4 8 -16 47 20 26 10 1
5 9 -14 48 18 27 11 1
5 6 -12 49 19 27 13 2
3 7 -14 50 24 27 14 2
6 7 -15 51 25 27 13 3
9 4 -14 52 21 28 14 3
5 6 -16 50 16 26 11 1
8 8 -16 49 28 28 12 5
5 6 -15 46 19 29 14 5
5 2 -16 46 20 27 13 3
8 4 -17 43 25 26 12 5
5 5 -17 46 23 27 11 7
4 0 -14 50 17 29 13 7
2 -1 -15 46 21 29 14 7
3 9 -19 42 24 25 10 3
7 14 -19 39 20 23 8 -1
6 9 -15 41 20 29 12 3
6 6 -18 44 21 30 14 3
4 8 -19 42 25 31 13 3
3 8 -20 40 20 30 13 2
5 6 -20 36 24 30 12 3
7 7 -19 34 20 27 10 4
5 5 -17 36 22 30 14 5
7 5 -17 40 29 31 15 4
8 7 -19 40 31 29 11 2
6 5 -18 48 28 29 12 5
4 4 -14 45 25 30 14 4
1 6 -12 42 26 29 13 5
6 11 -16 35 24 27 11 3
6 8 -18 36 24 27 12 1
6 9 -20 37 21 27 11 4
7 7 -19 32 25 31 15 5
2 4 -18 32 27 32 14 2
0 1 -17 33 21 31 13 4
5 4 -16 36 26 33 13 6
6 9 -17 34 20 31 12 4
6 10 -17 31 27 32 13 2
5 9 -15 34 23 35 16 3
3 8 -13 36 23 36 15 5
4 7 -15 38 29 34 15 7
3 6 -16 40 27 35 15 5
4 7 -16 35 18 35 17 7
7 3 -16 32 20 33 15 5
4 0 -15 33 28 32 16 6
4 7 -17 26 24 32 13 3
4 3 -14 31 23 33 14 4
3 1 -12 33 23 33 14 3
6 -2 -12 28 20 34 14 4
4 2 -13 23 23 33 15 4
6 5 -12 25 26 34 18 6
7 3 -11 27 24 35 18 8
6 8 -14 22 24 33 16 3
4 6 -13 23 22 33 16 5
3 0 -13 30 18 32 17 6
2 1 -16 24 22 30 14 4
4 4 -16 24 24 31 15 4
7 4 -15 25 28 31 16 5
6 7 -14 25 29 30 15 4
6 7 -11 28 23 32 15 4
5 9 -15 25 20 30 15 3
3 6 -15 24 32 32 16 5
6 5 -14 25 27 33 17 6
5 9 -15 21 16 31 15 3
4 8 -16 24 19 29 15 2
4 7 -15 22 23 30 13 4
3 5 -17 29 25 30 14 3
4 2 -17 34 20 30 15 4
5 4 -16 25 23 30 15 3
5 3 -14 23 23 31 16 2
5 4 -14 22 20 31 16 3
4 3 -15 25 24 31 16 3
7 5 -17 25 28 33 16 2
7 9 -18 24 28 31 16 2
6 12 -20 17 24 28 14 1
3 5 -17 20 23 32 17 4
3 2 -18 21 30 31 16 2
6 4 -16 20 23 29 15 1
4 1 -13 23 22 32 18 3
4 5 -15 21 23 29 16 1
5 5 -16 23 24 30 17 1
4 -3 -16 21 23 32 19 4
7 3 -18 18 16 30 18 2
5 9 -18 18 19 31 17 1
5 5 -17 16 20 30 17 2
4 4 -18 17 19 29 16 1
6 8 -14 20 22 31 18 2
8 13 -16 17 20 29 15 -1
6 13 -16 19 19 31 15 0
6 10 -14 15 21 32 16 2
5 9 -14 16 21 31 16 1
7 6 -13 19 20 31 16 3
7 5 -17 13 29 30 16 1
5 11 -17 12 24 31 18 1
6 8 -19 12 24 31 16 1
4 6 -16 13 28 33 17 2
5 7 -13 13 25 36 18 2
5 7 -14 8 23 35 18 1
5 8 -15 5 23 36 16 1
5 5 -12 4 25 36 16 2
3 6 -14 4 26 34 16 1
4 7 -17 3 20 31 15 0
3 9 -17 5 19 34 16 2
4 12 -18 4 24 33 15 0
7 9 -17 7 25 31 16 0
9 12 -16 6 28 30 14 -1
8 10 -16 1 32 32 15 -1
5 7 -14 1 26 35 18 3
6 9 -14 0 32 36 18 3
5 8 -12 1 27 39 19 2
5 6 -14 -2 19 37 19 -1
6 7 -13 -2 26 38 21 3
7 8 -15 2 25 37 20 1
6 9 -20 -3 25 33 17 1
7 7 -17 -1 20 34 17 2
7 4 -13 4 27 39 21 2
6 -1 -13 5 29 40 21 2
6 5 -13 4 21 38 20 1
4 11 -13 0 27 39 21 1
4 13 -14 -1 29 38 19 1
5 8 -13 0 32 42 22 3
8 4 -12 2 27 43 24 4
5 7 -13 6 26 40 23 3
4 12 -13 5 22 38 22 1
4 6 -15 5 25 39 22 0
4 7 -19 2 27 38 21 2
5 9 -20 5 28 38 23 2
8 12 -15 5 25 41 24 1
8 8 -13 7 29 43 25 3
7 9 -13 8 32 43 26 7
7 6 -7 13 33 48 31 9
9 9 -10 9 29 47 29 5
9 14 -12 11 25 45 26 3
11 13 -11 14 27 45 26 6
7 16 -11 11 29 45 26 4
7 18 -12 10 39 44 25 3
11 19 -11 12 33 43 24 3
10 18 -11 16 27 44 26 5
8 16 -11 14 33 43 26 2
8 18 -10 13 37 43 27 6
6 20 -10 13 33 45 28 8
9 23 -9 16 32 47 30 10
8 20 -6 17 36 49 31 12
6 27 -7 13 34 48 27 11
8 25 -6 15 33 50 30 10
10 20 -6 14 27 48 29 10
10 26 -6 16 29 47 28 6
7 23 -5 18 44 47 27 6
7 23 -6 16 43 47 29 9
12 27 -9 18 40 43 27 8
12 27 -9 15 45 44 27 7
12 22 -8 17 43 47 31 11
15 23 -6 19 43 50 33 12
14 29 -9 10 39 49 33 11
16 32 -10 12 32 51 35 12
15 33 -7 15 39 55 36 14
13 25 -6 10 49 54 36 16
15 25 -11 10 42 53 37 14
14 27 -16 6 39 55 38 12
16 30 -22 5 46 55 39 15
23 37 -25 6 43 56 41 17
19 33 -24 5 44 53 40 16
20 28 -19 5 44 52 39 16
18 29 -16 8 40 51 39 15
19 25 -16 9 41 49 38 12
19 22 -14 4 35 52 41 15
17 29 -14 2 39 51 39 11
18 27 -15 6 47 49 37 10
18 23 -14 5 32 49 37 10
15 20 -14 6 36 48 38 11
18 25 -16 3 31 49 38 12
19 24 -18 -3 30 46 36 10
18 22 -19 -6 28 44 35 11
15 16 -14 3 28 44 37 12
11 18 -14 3 31 43 35 10
14 17 -13 0 38 45 36 11
13 14 -10 8 36 46 36 10
15 13 -10 9 30 45 35 9
15 13 -10 3 30 45 34 8
11 13 -9 2 28 41 31 6
8 10 -10 -3 31 38 29 3
6 4 -8 -4 27 40 30 4
4 5 -11 -8 27 37 26 2
3 1 -12 -8 30 36 26 2
5 6 -14 -11 26 31 23 -2
2 5 -12 -9 29 30 21 -3
4 6 -10 -8 22 31 22 -3
6 1 -9 -10 29 31 22 -2
5 -1 -9 -5 20 33 22 -2
5 3 -11 -12 29 33 22 -3
3 0 -9 -10 19 36 26 -2
4 1 -10 -16 16 34 24 -2
2 1 -10 -19 19 33 23 -3
2 -5 -10 -18 15 34 23 -3
6 1 -12 -18 18 33 23 -5
5 1 -11 -19 22 34 23 -4
7 2 -10 -18 24 34 22 -6
10 8 -10 -15 29 34 21 -6
8 3 -7 -9 27 37 25 -3
9 8 -9 -12 19 37 23 -4
7 9 -12 -14 21 38 24 -4
7 3 -11 -9 26 40 25 -2
4 2 -7 -11 23 41 26 -1
3 5 -6 -10 19 39 25 -1
5 3 -7 -6 24 38 25 0
7 -1 -9 -7 20 37 24 -2
7 -2 -7 -5 22 38 25 0
6 5 -8 -6 21 37 23 -2
6 8 -6 1 27 38 24 -2
6 5 -7 1 28 37 24 -3
7 -1 -4 1 33 42 25 -3
7 1 -1 6 33 45 27 -1
7 1 -3 11 38 50 28 -4
8 -5 0 22 49 61 32 -5
10 -3 4 35 66 67 33 -8
13 -2 16 60 90 76 37 -8
13 8 26 93 116 87 38 -10
13 11 39 128 146 111 49 -7
15 26 54 168 189 142 68 3
14 50 66 206 235 176 90 21
15 74 82 249 300 225 124 43
13 106 98 302 364 280 162 69
16 146 108 352 436 347 207 100
30 187 110 386 513 418 259 134
43 224 107 419 589 487 310 168
57 250 96 429 644 549 362 205
76 276 81 417 684 607 416 243
106 308 63 380 726 671 478 286
144 335 21 308 763 749 555 333
177 361 -30 224 769 814 623 375
188 369 -61 152 747 827 657 398
179 333 -62 79 617 723 616 378
149 282 -66 -65 370 544 529 329
107 241 -89 -252 112 380 452 294
64 205 -116 -404 -90 233 366 254
20 167 -128 -477 -210 113 275 206
-8 136 -135 -473 -251 26 189 157
-19 98 -135 -432 -252 -44 104 110
-35 62 -128 -383 -254 -115 13 59
-36 39 -125 -333 -237 -136 -31 26
-34 23 -116 -287 -219 -129 -45 5
-29 6 -100 -237 -187 -123 -59 -19
-25 -5 -80 -192 -165 -109 -58 -26
-23 -11 -64 -145 -142 -95 -51 -30
-15 -18 -52 -107 -119 -79 -43 -29
-11 -12 -43 -84 -92 -63 -32 -25
-11 -5 -35 -65 -82 -54 -29 -24
-10 -6 -22 -43 -63 -41 -20 -16
-9 -5 -13 -28 -43 -33 -18 -15
-8 -5 -5 -14 -39 -28 -14 -15
-7 -8 1 -1 -29 -22 -10 -13
-6 -10 4 6 -25 -18 -7 -13
-4 -4 1 5 -24 -18 -8 -12
-1 0 1 8 -22 -16 -6 -11
1 -3 -1 13 -22 -15 -6 -12
1 -1 -2 11 -24 -16 -8 -14
0 -6 2 17 -17 -15 -6 -12
1 -9 4 19 -15 -17 -8 -12
2 -8 6 17 -18 -16 -10 -17
0 -13 10 22 -13 -14 -8 -16
1 -13 11 23 -13 -13 -8 -15
8 -7 9 22 -11 -12 -9 -16
2 -13 6 23 -9 -11 -8 -17
0 -12 3 22 0 -12 -6 -15
2 -5 2 18 -8 -13 -6 -14
0 -8 7 19 -11 -13 -4 -15
0 -8 9 23 -4 -10 -5 -15
-1 -8 8 22 -8 -12 -8 -16
4 -5 7 26 -3 -11 -9 -18
2 -7 9 27 -4 -9 -7 -20
-1 -14 12 29 -5 -8 -5 -19
5 -13 12 29 1 -8 -6 -19
3 -13 10 34 -5 -8 -7 -19
-2 -11 7 31 -9 -11 -6 -16
1 -17 7 30 -9 -11 -4 -14
2 -18 6 33 -8 -10 -2 -15
2 -10 6 38 -5 -10 -5 -14
3 -11 7 36 -11 -13 -7 -15
5 -19 11 42 0 -10 -7 -16
6 -14 13 43 -6 -9 -7 -16
6 -9 12 39 -10 -10 -7 -17
3 -12 11 39 -7 -11 -8 -19
3 -14 10 41 2 -8 -6 -17
3 -12 7 39 -5 -11 -7 -16
3 -13 6 39 -13 -12 -9 -17
1 -15 7 42 -10 -13 -7 -15
-3 -17 7 40 -13 -15 -10 -16
1 -14 8 43 -8 -18 -12 -18
3 -15 8 48 -16 -17 -10 -16
3 -13 10 46 -18 -17 -12 -17
2 -14 12 49 -7 -13 -9 -16
1 -18 13 47 -9 -14 -9 -19
5 -13 14 48 -13 -15 -12 -18
7 -8 14 48 -11 -16 -10 -18
1 -14 15 50 -5 -16 -11 -16
2 -17 17 48 -11 -17 -10 -17
0 -15 16 50 -14 -21 -11 -20
0 -17 17 51 -8 -21 -12 -17
5 -15 17 50 -10 -23 -13 -18
3 -14 17 57 -12 -24 -13 -20
2 -13 17 52 -12 -23 -14 -19
1 -16 20 53 -12 -22 -15 -21
3 -20 26 55 -10 -20 -16 -19
5 -17 25 44 -10 -21 -15 -19
4 -8 21 43 -8 -25 -19 -20
2 -12 23 46 -11 -24 -17 -20
4 -12 23 43 -15 -26 -17 -19
5 -15 24 42 -18 -27 -18 -20
4 -16 26 51 -17 -26 -22 -23
3 -19 27 50 -19 -27 -23 -25
1 -24 28 46 -19 -26 -22 -24
2 -20 29 45 -16 -25 -22 -23
1 -19 29 45 -16 -25 -22 -22
2 -15 26 46 -17 -27 -22 -20
6 -14 25 42 -10 -29 -24 -21
4 -18 25 41 -12 -27 -21 -22
5 -19 27 47 -2 -28 -20 -20
3 -25 30 48 -9 -29 -21 -20
0 -22 29 41 -18 -32 -25 -26
0 -22 30 46 -20 -33 -24 -23
-1 -21 29 46 -17 -31 -24 -23
1 -21 28 45 -20 -33 -26 -27
4 -21 27 44 -23 -35 -27 -27
3 -22 29 47 -10 -33 -24 -27
4 -22 30 47 -15 -34 -25 -23
1 -20 30 45 -23 -36 -29 -25
-2 -19 31 47 -24 -37 -28 -27
0 -21 31 53 -25 -37 -29 -27
-2 -22 30 49 -23 -38 -30 -28
-1 -22 28 54 -14 -40 -33 -29
-1 -21 31 56 -15 -39 -33 -28
-1 -27 32 53 -23 -41 -33 -29
0 -26 30 50 -21 -41 -35 -29
-1 -28 33 53 -26 -42 -32 -27
2 -27 37 51 -33 -43 -33 -26
2 -19 37 47 -26 -46 -35 -29
0 -25 39 51 -30 -46 -34 -28
0 -26 37 52 -25 -50 -37 -29
-1 -25 39 51 -24 -50 -38 -32
-3 -30 41 57 -32 -48 -37 -32
-3 -22 41 56 -30 -49 -41 -33
-2 -22 38 49 -35 -52 -45 -35
-5 -30 39 49 -33 -53 -44 -37
-5 -30 39 49 -39 -55 -43 -34
-5 -30 37 43 -48 -58 -46 -33
-7 -30 35 41 -50 -62 -48 -35
-5 -23 33 43 -42 -65 -50 -38
-7 -29 33 41 -41 -65 -50 -37
-5 -33 34 44 -42 -63 -52 -40
-9 -34 36 45 -44 -63 -52 -38
-8 -36 36 43 -47 -66 -53 -38
-10 -40 40 50 -40 -66 -54 -37
-11 -36 38 45 -42 -70 -58 -41
-9 -32 36 40 -47 -71 -59 -43
-12 -36 35 40 -59 -71 -60 -43
-12 -40 32 37 -56 -75 -63 -45
-14 -39 32 38 -59 -78 -65 -45
-15 -40 33 38 -71 -83 -69 -46
-13 -40 37 40 -72 -86 -70 -46
-13 -41 37 45 -67 -89 -73 -48
-15 -44 39 41 -67 -89 -73 -49
-16 -45 40 38 -70 -92 -74 -50
-18 -39 37 37 -79 -93 -76 -52
-18 -42 36 36 -83 -98 -80 -53
-17 -47 36 31 -77 -100 -80 -52
-19 -56 38 32 -77 -102 -81 -52
-21 -52 34 28 -92 -111 -89 -56
-21 -46 35 23 -90 -115 -93 -58
-21 -44 35 18 -101 -121 -98 -64
-23 -53 41 19 -99 -122 -97 -63
-24 -54 40 18 -103 -126 -102 -65
-23 -49 37 15 -97 -132 -107 -67
-26 -50 36 12 -103 -133 -108 -68
-28 -54 34 7 -121 -139 -109 -69
-28 -55 36 6 -124 -142 -112 -70
-28 -46 35 0 -124 -151 -119 -76
-32 -54 36 -1 -134 -152 -121 -74
-34 -61 35 0 -131 -155 -124 -75
-34 -60 36 0 -134 -160 -127 -78
-36 -61 37 -4 -135 -164 -129 -78
-35 -58 33 -14 -143 -169 -135 -80
-36 -59 36 -16 -155 -174 -137 -82
-37 -66 37 -11 -150 -174 -137 -82
-37 -64 37 -15 -153 -176 -137 -80
-38 -64 34 -22 -159 -181 -140 -81
-39 -65 32 -30 -162 -186 -143 -83
-42 -64 30 -32 -165 -188 -146 -83
-44 -64 26 -38 -167 -193 -150 -84
-43 -60 23 -41 -171 -194 -152 -85
-46 -65 24 -42 -176 -194 -152 -86
-46 -60 25 -48 -184 -198 -155 -87
-44 -60 26 -47 -183 -199 -153 -85
-42 -62 23 -46 -188 -198 -154 -85
-43 -60 21 -52 -190 -200 -152 -84
-44 -61 21 -55 -186 -199 -153 -82
-46 -64 21 -55 -180 -200 -151 -80
-44 -58 17 -50 -191 -201 -152 -81
-45 -60 17 -62 -191 -202 -153 -80
-48 -65 17 -61 -186 -200 -151 -79
-48 -63 17 -69 -187 -199 -149 -80
-46 -57 13 -72 -186 -198 -150 -80
-45 -56 11 -75 -188 -196 -148 -77
-46 -58 8 -79 -182 -189 -143 -74
-43 -58 5 -78 -182 -187 -139 -71
-40 -52 5 -76 -181 -183 -137 -69
-46 -52 6 -77 -175 -182 -134 -67
-43 -49 5 -74 -173 -177 -130 -65
-38 -48 5 -73 -174 -175 -127 -63
-40 -49 4 -81 -165 -170 -125 -60
-41 -51 6 -80 -166 -164 -121 -57
-40 -48 3 -82 -161 -160 -119 -57
-37 -41 0 -85 -164 -157 -117 -58
-34 -39 -1 -79 -157 -147 -109 -50
-40 -40 -1 -80 -147 -142 -101 -48
-33 -32 -6 -80 -142 -139 -99 -48
-27 -23 -9 -80 -140 -134 -95 -47
-28 -29 -8 -75 -132 -123 -88 -42
-26 -25 -7 -71 -121 -117 -85 -40
-25 -23 -8 -66 -116 -110 -83 -38
-25 -30 -4 -59 -110 -96 -72 -33
-25 -28 -6 -56 -109 -92 -69 -33
-25 -20 -6 -62 -103 -89 -69 -32
-23 -17 -9 -59 -97 -84 -61 -28
-18 -22 -10 -53 -94 -77 -54 -26
-19 -21 -11 -52 -83 -68 -48 -20
-19 -19 -11 -51 -77 -60 -42 -16
-17 -21 -11 -44 -70 -50 -38 -15
-15 -17 -9 -38 -65 -45 -33 -12
-13 -13 -9 -39 -62 -39 -31 -12
-12 -14 -8 -32 -53 -32 -27 -13
-11 -13 -9 -32 -54 -28 -22 -11
-11 -10 -9 -31 -47 -23 -19 -8
-10 -6 -12 -29 -31 -17 -15 -6
-9 -6 -14 -27 -29 -14 -11 -3
-10 -7 -12 -22 -25 -9 -9 -3
-8 -6 -9 -19 -20 -5 -6 -2
-6 2 -11 -19 -24 -2 -6 -2
-6 -1 -10 -15 -23 2 -2 0
-5 0 -9 -11 -10 8 2 3
-4 0 -10 -8 -14 10 2 1
-4 -5 -11 -4 -10 13 3 3
-3 -4 -8 -2 8 19 8 5
-2 -1 -8 0 12 23 11 7
0 -2 -9 1 5 25 13 5
-1 -6 -10 4 0 30 18 10
-5 -5 -12 -1 7 30 18 10
-4 -1 -10 2 3 34 19 11
0 0 -11 3 5 32 19 12
0 -3 -11 1 1 33 17 10
-1 -3 -10 5 8 35 19 9
0 -3 -9 11 15 38 20 9
3 0 -11 14 21 39 22 11
2 5 -12 11 20 39 23 10
1 4 -13 8 12 40 23 8
-1 2 -13 9 14 41 23 9
3 1 -11 11 8 42 25 11
1 4 -9 8 10 40 23 11
-1 -1 -7 14 22 41 24 13
-3 -2 -10 11 25 41 24 11
-2 -2 -12 9 23 40 23 10
0 -1 -13 10 25 42 25 11
-1 -1 -11 8 15 42 25 11
1 -2 -8 8 18 45 27 12
0 2 -11 9 22 44 25 11
-1 2 -12 7 15 44 25 13
2 5 -10 6 11 42 26 13
1 6 -10 7 15 40 25 12
-1 2 -10 11 14 40 26 13
-3 0 -9 13 22 39 25 13
-4 2 -11 9 22 34 21 9
0 3 -10 17 18 36 22 10
0 4 -10 10 19 37 20 9
0 3 -11 18 19 37 20 9
0 4 -11 12 18 36 22 9
-1 3 -13 6 16 34 22 10
-2 4 -12 6 14 32 21 10
-2 2 -12 11 16 33 22 11
-3 1 -12 14 7 30 19 9
-1 0 -12 12 18 32 17 9
-5 -5 -10 14 17 32 17 8
-4 -6 -9 12 18 32 16 7
-2 -4 -10 10 16 32 15 8
-1 -7 -8 12 23 34 17 8
0 -4 -8 10 9 32 17 8
0 -1 -10 8 6 30 16 8
-2 -4 -10 9 9 28 15 7
-2 -4 -12 8 19 28 15 7
-3 -4 -12 7 23 29 13 5
-6 -7 -13 13 17 28 12 5
-4 -5 -11 11 6 26 10 4
-1 -3 -13 3 8 23 7 1
1 -3 -11 6 16 24 8 2
-1 -4 -7 13 16 27 11 5
-4 -10 -8 7 21 25 11 5
-4 -9 -9 3 15 24 10 6
-5 -11 -7 2 10 23 9 8
-5 -13 -6 5 5 22 13 8
-3 -15 -4 5 10 25 13 9
-6 -12 -4 4 8 24 10 5
-5 -10 -4 6 10 24 8 4
-3 -10 -6 2 11 24 8 4
-2 -5 -11 2 6 21 5 2
-5 -5 -10 2 10 22 7 3
-6 -7 -10 0 2 19 6 2
-2 -5 -11 -3 2 17 5 2
-2 -7 -10 -3 8 18 6 4
-5 -17 -8 -1 5 19 7 6
-3 -15 -8 3 9 20 7 4
-5 -8 -9 -2 8 18 5 3
-4 -8 -8 -1 11 17 5 1
-4 -12 -6 1 11 21 8 5
-6 -12 -4 3 11 23 9 5
-6 -13 -5 6 9 22 8 3
-4 -13 -6 0 13 20 7 3
-5 -7 -11 -4 9 16 4 3
-7 -11 -13 -5 5 16 5 6
-6 -9 -14 -6 6 15 4 4
-3 -9 -14 -7 4 12 1 0
-6 -16 -8 -3 11 15 3 4
-7 -15 -5 -5 2 15 2 4
-3 -14 -4 -3 4 16 4 4
-2 -13 -6 0 12 18 5 4
-4 -15 -7 0 14 20 5 6
-3 -15 -7 1 9 21 9 10
-4 -19 -10 0 10 20 7 10
-4 -18 -8 4 12 17 7 8
-2 -13 -6 3 13 18 7 9
-3 -18 -9 0 11 16 7 9
-3 -18 -11 -3 5 15 4 8
-3 -18 -9 -3 3 17 6 8
-5 -14 -11 -1 6 15 4 6
-3 -14 -12 -4 14 15 4 6
-5 -17 -11 -3 13 19 4 8
-5 -21 -11 0 9 20 7 9
-3 -18 -11 -2 8 19 7 7
-1 -8 -15 -2 7 17 3 3
-1 -12 -16 3 9 16 2 4
-4 -17 -12 8 2 17 4 7
-8 -15 -13 5 8 13 2 5
-5 -15 -11 3 12 13 4 6
-2 -20 -11 5 8 13 4 7
-3 -18 -11 4 3 14 4 7
-4 -13 -12 -4 -1 16 5 5
-4 -14 -12 1 14 19 7 7
-4 -11 -14 -1 22 19 6 8
-1 -11 -14 -1 16 20 6 7
-6 -14 -13 1 3 20 6 8
-6 -16 -12 -1 3 20 8 10
-7 -17 -10 1 13 21 8 9
-6 -13 -13 2 11 18 6 8
-3 -11 -13 -1 10 16 4 7
-5 -14 -11 -1 9 17 5 8
-7 -19 -10 -1 2 19 7 11
-6 -15 -12 2 4 18 8 11
-4 -16 -14 -2 4 17 8 12
0 -14 -15 -3 13 18 9 12
-1 -16 -13 -3 12 19 11 12
-2 -22 -12 -1 9 19 10 13
-4 -22 -9 -1 12 19 10 11
-7 -22 -6 1 10 21 11 14
-4 -17 -8 -5 8 18 9 11
-2 -11 -8 -4 11 17 8 10
-6 -11 -8 -2 20 16 7 10
-4 -11 -11 -1 10 13 5 8
-2 -12 -10 -5 6 14 6 7
1 -11 -9 -7 6 16 9 12
3 -11 -7 -4 8 15 10 12
-5 -14 -6 -5 15 16 8 10
-6 -16 -7 -9 10 14 4 9
-3 -13 -6 -6 7 15 8 11
-2 -10 -7 -5 8 15 7 9
-1 -10 -7 -9 8 15 6 9
-4 -9 -7 -11 2 15 6 8
-3 -12 -10 -14 -2 14 7 10
-2 -13 -10 -15 3 14 7 11
-4 -9 -10 -16 6 14 7 11
-2 -12 -7 -14 11 14 9 14
-2 -14 -7 -14 10 16 10 15
-2 -16 -8 -17 4 14 11 14
-1 -12 -6 -15 15 15 11 14
-1 -12 -7 -14 9 15 10 14
-2 -13 -8 -16 1 13 10 13
-4 -16 -6 -14 2 15 10 16
-2 -11 -9 -16 6 14 8 15
-1 -8 -9 -19 13 13 6 14
0 -11 -8 -8 16 13 7 14
-3 -14 -7 -10 10 11 6 15
-4 -18 -3 -14 14 10 9 16
-3 -13 -4 -15 15 8 9 15
-1 -11 -4 -14 12 8 8 15
-3 -10 -4 -12 4 9 9 15
-3 -16 -6 -17 5 11 8 15
-1 -12 -5 -17 5 14 10 15
-1 -7 -6 -16 5 13 9 15
-3 -9 -6 -13 0 12 10 14
-4 -7 -8 -10 4 12 10 14
-2 -12 -5 -9 -1 11 12 17
2 -13 -3 -12 -1 8 10 16
0 -1 -9 -18 -1 4 5 11
1 -8 -7 -13 9 5 6 12
1 -11 -3 -12 6 8 8 13
0 -8 -4 -17 1 8 7 12
-2 -8 -5 -21 12 7 6 12
1 -5 -1 -16 14 7 8 15
0 -8 -1 -13 8 8 9 16
0 -10 -6 -17 10 6 7 14
1 -5 -8 -19 11 3 4 12
1 -5 -7 -23 9 1 2 11
-1 -7 -2 -21 5 2 2 12
-1 -12 -3 -17 13 3 3 13
0 -10 -3 -18 7 3 5 15
1 -9 -1 -14 8 5 7 16
-1 -16 -1 -12 5 7 9 18
1 -15 -1 -12 9 9 10 18
1 -2 -5 -17 12 5 6 14
-4 1 -7 -20 8 5 5 13
-3 -4 -6 -19 8 6 7 15
-4 -4 -6 -18 9 7 7 15
-3 -5 -3 -17 13 6 9 16
0 0 -5 -19 3 3 6 14
-5 -5 -5 -17 2 3 6 16
-4 -8 -5 -14 9 6 9 17
1 -7 -6 -17 13 6 7 17
4 -8 -7 -19 7 5 6 17
2 -8 -2 -14 20 7 9 20
0 -11 0 -17 16 9 10 21
-2 -10 -1 -19 13 5 8 20
2 -7 -3 -20 14 1 6 18
6 -8 -4 -25 10 -1 4 17
4 -9 -3 -29 4 -2 5 18
2 -8 -2 -22 8 -2 5 19
2 -9 -3 -29 11 -3 4 18
3 -11 -2 -30 20 -1 6 20
3 -10 -5 -31 12 0 6 19
1 -8 -4 -35 2 4 8 19
1 -3 -4 -34 9 4 7 20
0 -3 -4 -36 9 1 4 18
2 -5 -1 -36 4 0 3 18
3 -2 -2 -40 12 0 2 18
2 -3 -2 -42 8 0 3 18
1 -5 -1 -43 13 2 3 19
1 -1 -2 -44 25 1 3 18
2 0 -3 -45 12 1 2 18
2 0 -1 -49 11 1 3 19
2 0 -1 -52 14 1 3 19
3 0 -2 -52 7 1 3 19
3 -2 -4 -52 2 0 1 18
4 0 -7 -57 3 -2 -1 17
4 2 -6 -53 19 0 -1 15
4 3 -4 -53 15 -2 -1 14
3 0 -1 -52 11 0 0 16
0 -6 -1 -47 16 1 1 18
-3 -8 1 -41 15 2 2 20
1 -12 3 -37 13 3 3 21
4 -6 -1 -34 4 1 1 19
2 4 -6 -36 4 -3 -2 17
3 2 -5 -36 12 -1 -2 20
4 0 -5 -28 15 -2 0 22
5 5 -5 -32 8 -1 1 23
6 4 -4 -32 10 0 2 24
3 3 -3 -36 15 -1 0 23
7 5 -3 -39 13 -1 1 23
3 5 -5 -37 1 0 0 23
2 3 -5 -37 6 -1 0 22
5 3 -4 -45 12 -1 -1 23
3 2 -5 -43 10 -2 0 22
1 -2 -4 -41 15 -2 0 24
2 2 -5 -40 8 -5 -2 22
1 -4 -4 -36 6 -3 -1 24
4 -7 -1 -33 16 0 2 27
4 6 -2 -41 13 -4 -2 24
3 10 -4 -46 12 -5 -5 20
3 5 -4 -41 11 -4 -2 23
4 5 -4 -46 10 -2 0 25
4 4 -4 -46 5 -3 -1 24
5 4 -5 -42 4 -3 -2 24
6 4 -7 -52 16 -6 -4 22
6 2 -5 -52 12 -4 -4 23
4 5 -4 -54 6 -5 -5 22
3 4 -4 -53 5 -5 -3 24
6 5 -2 -52 10 -5 -2 25
5 6 -3 -48 7 -5 -2 24
6 4 -6 -49 11 -5 -2 24
6 4 -6 -47 15 -2 0 25
4 5 -4 -41 8 1 2 25
5 4 -4 -49 10 3 3 27
3 5 -3 -52 11 2 2 27
3 1 -2 -51 10 2 1 27
5 1 1 -48 20 1 2 28
2 9 -3 -55 12 -3 -3 23
3 5 -2 -58 16 -3 -3 23
4 6 -1 -53 11 -3 -3 23
6 5 -2 -52 10 -2 -2 23
7 8 -1 -59 19 -1 -1 24
6 6 0 -59 12 1 1 25
5 7 -2 -63 16 0 0 25
5 11 -5 -64 10 -1 0 24
4 11 -6 -60 10 -3 0 22
7 6 -4 -54 11 -1 0 23
7 1 -2 -55 9 1 2 25
3 0 1 -56 12 1 1 25
3 4 1 -53 12 0 0 23
5 6 0 -58 17 -1 -1 22
4 5 0 -60 16 0 -1 22
4 6 0 -58 30 -1 -1 20
4 7 0 -56 14 -1 -1 21
5 9 -1 -49 11 0 -2 21
6 9 1 -50 14 1 0 22
5 2 3 -49 18 2 1 23
7 3 3 -50 17 2 1 23
3 7 0 -48 10 0 -3 21
6 8 -2 -43 11 1 -1 21
5 6 0 -35 17 5 3 24
2 7 0 -31 17 4 2 21
4 9 -2 -27 11 3 1 20
4 7 -1 -28 9 5 2 21
4 6 -1 -30 10 6 2 21
7 9 -1 -26 20 8 4 21
6 9 -1 -19 16 10 5 23
6 7 -2 -21 15 9 4 21
7 9 1 -24 18 10 6 22
6 8 3 -22 24 10 7 23
10 15 -2 -23 21 10 4 21
9 16 0 -22 18 11 6 24
8 13 3 -20 24 10 7 23
8 15 2 -18 20 10 6 22
9 17 2 -21 22 12 4 22
8 23 1 -20 22 13 3 20
10 24 1 -17 25 14 5 21
7 25 -1 -17 33 12 4 19
6 21 4 -15 30 14 7 23
8 23 3 -20 23 12 8 23
9 26 2 -22 27 12 7 22
8 20 7 -14 29 18 12 24
8 21 3 -16 19 19 11 24
10 26 2 -18 20 17 11 23
12 26 1 -17 24 19 14 24
12 22 -4 -12 25 19 13 23
14 23 -1 -7 29 24 16 25
16 23 2 -9 33 26 17 25
15 26 2 -9 30 27 16 24
16 24 1 -4 33 28 19 26
17 19 0 0 37 30 21 29
17 29 -8 -5 34 26 18 26
17 33 -12 -8 26 25 18 24
16 33 -17 -11 22 24 19 24
17 32 -18 -11 30 27 22 27
18 32 -19 -8 24 28 22 27
20 34 -19 -11 25 26 19 23
19 29 -15 -12 26 28 21 24
15 22 -15 -12 31 29 20 23
15 24 -14 -12 32 29 21 24
16 32 -16 -12 29 29 21 23
16 25 -17 -12 31 28 22 23
20 26 -18 -14 25 25 19 21
18 25 -21 -16 20 23 17 19
16 22 -22 -19 19 24 17 20
15 19 -22 -16 21 24 18 20
13 15 -19 -11 17 24 19 21
15 14 -19 -12 22 23 18 20
19 20 -18 -16 22 20 15 17
17 20 -17 -15 13 19 14 14
15 15 -14 -17 19 20 15 14
15 17 -15 -13 22 21 15 14
14 18 -15 -15 25 22 15 14
10 14 -13 -12 28 23 16 16
8 6 -14 -10 21 20 11 13
8 6 -15 -14 19 17 9 11
6 3 -12 -12 25 18 10 12
8 10 -16 -17 22 12 6 6
9 11 -18 -18 22 12 5 3
7 6 -16 -12 17 15 7 3
8 4 -16 -15 17 15 7 2
8 4 -16 -13 12 15 9 3
5 4 -18 -18 10 13 8 0
7 0 -16 -19 9 16 10 2
8 -1 -16 -18 12 19 11 2
4 -2 -16 -18 13 19 10 0
3 -5 -14 -16 5 19 12 0
-1 -8 -16 -15 15 20 12 1
5 0 -16 -15 19 20 12 1
10 7 -17 -19 18 19 10 1
7 5 -19 -20 12 18 10 -1
8 6 -15 -18 15 17 10 -1
5 5 -12 -13 16 19 11 0
5 5 -12 -18 23 18 13 2
7 2 -11 -16 13 20 15 4
7 3 -11 -13 16 20 14 2
7 10 -14 -15 10 17 12 -1
8 9 -15 -13 9 17 12 -2
7 5 -13 -10 14 19 13 -1
6 1 -11 -12 11 20 13 -2
4 3 -11 -15 22 19 13 -2
7 3 -11 -13 23 21 14 0
8 3 -10 -8 16 23 16 0
7 0 -9 -11 19 23 16 0
7 1 -7 -6 20 24 15 -2
10 -5 -3 0 20 28 18 -2
10 -1 -3 4 27 31 17 -6
12 -4 0 16 40 41 20 -7
13 -3 3 29 52 50 22 -9
14 1 8 45 69 57 23 -12
16 4 20 77 98 74 29 -11
15 9 29 114 131 94 38 -8
17 25 43 151 179 126 58 4
21 47 59 193 230 165 84 22
18 79 69 230 274 208 112 38
22 106 84 275 344 262 148 61
25 136 98 330 429 334 199 94
33 174 99 369 502 409 253 131
46 209 99 397 577 480 306 167
63 242 88 412 632 542 356 202
84 267 68 406 679 607 413 241
113 289 48 382 726 675 476 283
155 311 6 314 757 744 546 327
190 342 -39 224 770 807 616 369
208 364 -66 147 749 830 661 397
201 336 -71 77 626 736 630 380
172 276 -64 -45 393 557 542 333
127 228 -69 -216 132 386 459 291
76 198 -84 -371 -80 237 370 248
30 168 -100 -448 -201 118 281 202
-2 136 -113 -449 -238 33 198 158
-20 100 -121 -423 -248 -43 113 111
-34 66 -118 -390 -251 -119 15 57
-40 44 -116 -345 -242 -147 -39 21
-38 27 -114 -306 -219 -139 -55 0
-38 8 -104 -270 -197 -132 -67 -21
-35 -9 -89 -228 -179 -120 -69 -29
-29 -16 -75 -186 -160 -111 -66 -37
-20 -19 -60 -155 -137 -101 -63 -42
-15 -21 -46 -121 -119 -85 -52 -37
-12 -15 -38 -95 -88 -69 -42 -32
-6 -9 -31 -73 -73 -59 -33 -27
-6 -7 -21 -54 -65 -48 -26 -24
-4 -10 -13 -34 -51 -41 -22 -22
-4 -9 -6 -21 -40 -34 -19 -20
-4 -10 -1 -13 -28 -30 -18 -22
-4 -14 3 -5 -18 -25 -16 -22
-1 -7 5 1 -23 -24 -16 -23
-1 -10 7 -2 -24 -21 -15 -22
-3 -19 11 3 -24 -18 -12 -19
-1 -21 12 8 -17 -17 -12 -20
2 -9 6 7 -22 -25 -17 -24
2 -5 8 16 -27 -25 -20 -25
-2 -8 12 20 -18 -22 -18 -25
-2 -13 14 21 -14 -20 -16 -27
3 -12 17 19 -12 -18 -15 -26
1 -15 16 20 -12 -15 -14 -26
0 -15 12 22 -12 -17 -13 -27
2 -11 13 20 -1 -15 -13 -25
2 -13 17 23 3 -13 -10 -21
4 -15 20 26 0 -12 -9 -20
4 -13 20 22 -12 -17 -11 -22
1 -17 22 24 -10 -16 -13 -23
1 -20 24 28 -7 -15 -12 -23
3 -18 25 30 -6 -14 -13 -25
3 -14 23 27 -7 -14 -15 -26
1 -17 22 26 -4 -10 -14 -27
2 -16 20 26 2 -11 -13 -26
3 -11 18 30 -3 -13 -12 -27
2 -12 19 28 -7 -14 -13 -27
0 -17 21 27 -4 -16 -12 -27
3 -15 19 24 -10 -20 -13 -28
2 -17 18 23 -14 -19 -15 -30
1 -19 23 23 -9 -15 -13 -29
4 -16 25 27 -5 -13 -12 -30
2 -19 26 30 -12 -13 -12 -29
1 -16 27 32 -7 -12 -14 -30
1 -14 26 34 -16 -12 -12 -30
0 -13 22 35 -19 -14 -11 -29
2 -13 24 33 -17 -12 -10 -27
3 -13 21 31 -18 -16 -13 -29
3 -14 21 34 -15 -19 -13 -28
3 -19 24 35 -5 -18 -13 -29
1 -19 26 37 -3 -18 -14 -29
3 -19 29 41 3 -18 -13 -29
2 -17 30 40 -7 -18 -13 -30
2 -17 30 39 -11 -17 -15 -31
5 -17 30 41 -8 -16 -13 -30
4 -17 29 42 -2 -16 -13 -29
2 -16 26 40 -8 -18 -14 -29
2 -18 25 41 -12 -19 -16 -30
3 -19 24 42 -17 -21 -17 -31
-1 -24 29 52 -7 -18 -15 -29
1 -25 31 53 -2 -18 -16 -29
4 -14 28 49 -13 -22 -19 -33
4 -13 28 46 -12 -23 -20 -35
1 -14 30 44 -1 -21 -20 -34
4 -16 29 46 -9 -20 -18 -32
6 -20 29 47 -14 -21 -18 -31
2 -23 28 43 -15 -24 -20 -31
0 -17 25 46 -19 -28 -22 -35
-1 -16 24 48 -11 -31 -23 -36
0 -18 25 44 -10 -32 -26 -39
1 -20 27 47 -10 -30 -27 -39
1 -23 29 53 -16 -29 -26 -38
5 -25 31 55 -14 -30 -26 -37
3 -18 30 53 -14 -33 -30 -42
0 -23 27 50 -18 -36 -29 -42
3 -17 28 53 -16 -34 -27 -40
3 -16 25 53 -20 -32 -26 -39
6 -22 25 55 -18 -29 -24 -37
6 -24 27 56 -16 -31 -25 -36
1 -24 30 57 -11 -32 -25 -36
2 -24 31 61 -17 -30 -25 -35
1 -27 32 64 -18 -29 -23 -36
-1 -32 31 65 -16 -32 -27 -38
2 -26 30 61 -23 -34 -29 -41
5 -20 26 57 -29 -37 -33 -43
5 -19 26 61 -27 -36 -32 -43
6 -22 28 63 -17 -35 -30 -40
4 -20 28 62 -22 -36 -31 -41
4 -22 28 61 -25 -38 -32 -42
4 -21 30 61 -27 -39 -32 -43
1 -23 31 65 -19 -38 -31 -41
0 -24 32 66 -20 -39 -33 -44
-2 -27 36 67 -25 -41 -35 -45
-2 -29 38 66 -27 -40 -36 -47
-1 -29 35 66 -31 -41 -38 -47
-3 -29 35 65 -29 -42 -37 -45
2 -25 34 64 -31 -44 -39 -45
2 -27 35 63 -31 -43 -40 -46
-2 -27 35 65 -29 -47 -41 -47
-3 -26 37 66 -25 -50 -44 -50
-2 -28 39 66 -27 -54 -46 -52
-2 -29 40 67 -26 -55 -46 -52
-2 -29 44 69 -29 -54 -45 -51
-5 -31 44 67 -40 -55 -47 -52
-3 -32 41 65 -36 -55 -47 -52
-4 -32 40 67 -39 -55 -46 -53
-4 -32 37 64 -46 -59 -52 -55
-5 -28 37 60 -42 -60 -54 -56
-5 -37 42 70 -35 -59 -51 -53
-4 -38 42 70 -48 -62 -53 -53
-4 -30 42 64 -46 -68 -56 -56
-8 -35 43 67 -41 -69 -57 -58
-7 -38 46 65 -44 -71 -58 -58
-8 -39 45 66 -49 -71 -59 -60
-7 -34 41 65 -52 -74 -63 -62
-6 -30 43 63 -53 -74 -64 -63
-9 -32 42 60 -59 -78 -69 -65
-13 -33 42 62 -65 -85 -74 -67
-12 -32 43 62 -59 -88 -75 -68
-11 -40 48 58 -65 -86 -75 -66
-14 -48 52 59 -58 -86 -74 -62
-14 -43 51 58 -64 -90 -78 -67
-14 -42 49 58 -70 -94 -80 -67
-13 -44 48 56 -75 -95 -82 -69
-17 -43 50 59 -81 -100 -84 -70
-16 -46 53 49 -78 -104 -88 -72
-19 -51 55 50 -79 -107 -88 -70
-22 -52 54 48 -80 -115 -94 -72
-21 -48 53 42 -91 -121 -99 -76
-21 -45 54 37 -92 -126 -103 -77
-22 -47 55 37 -92 -129 -106 -80
-22 -49 59 40 -95 -130 -106 -80
-24 -53 57 39 -100 -133 -108 -82
-27 -56 56 41 -110 -134 -113 -84
-26 -59 54 32 -114 -139 -115 -85
-30 -52 54 26 -116 -144 -120 -88
-30 -53 53 24 -118 -149 -122 -88
-28 -53 50 22 -124 -156 -130 -91
-31 -56 52 18 -127 -161 -134 -92
-30 -60 54 19 -128 -164 -136 -92
-31 -65 55 21 -135 -167 -139 -94
-35 -64 55 14 -136 -171 -142 -97
-33 -61 54 15 -149 -176 -145 -98
-35 -58 51 3 -146 -180 -148 -101
-37 -62 49 2 -147 -185 -151 -101
-38 -64 50 -1 -153 -187 -152 -102
-40 -65 48 -4 -165 -188 -151 -102
-42 -68 50 -7 -160 -189 -152 -103
-42 -65 49 -11 -165 -194 -158 -103
-44 -62 50 -12 -168 -198 -162 -105
-43 -63 51 -10 -170 -202 -165 -105
-43 -68 52 -14 -168 -206 -167 -105
-44 -66 50 -15 -174 -211 -168 -105
-43 -63 47 -18 -178 -212 -170 -107
-42 -62 43 -23 -180 -212 -169 -104
-44 -65 43 -23 -182 -209 -166 -104
-44 -62 41 -31 -181 -210 -166 -105
-44 -57 41 -35 -195 -211 -168 -105
-46 -59 42 -36 -192 -209 -165 -102
-46 -60 44 -33 -182 -208 -164 -99
-44 -57 40 -33 -180 -208 -164 -99
-44 -53 39 -40 -179 -205 -163 -99
-45 -54 38 -42 -181 -204 -162 -98
-43 -53 37 -41 -180 -201 -159 -97
-41 -51 34 -40 -175 -197 -157 -95
-41 -49 30 -44 -175 -195 -154 -93
-40 -48 26 -50 -164 -193 -151 -92
-40 -49 26 -47 -167 -188 -147 -87
-38 -51 27 -42 -163 -181 -141 -83
-40 -47 26 -43 -159 -176 -138 -82
-39 -41 23 -45 -153 -173 -137 -82
-37 -41 22 -42 -153 -166 -133 -80
-38 -48 24 -41 -153 -160 -128 -78
-36 -41 22 -46 -155 -156 -124 -75
-35 -30 18 -45 -149 -151 -121 -75
-32 -29 15 -42 -136 -145 -117 -72
-28 -28 14 -39 -137 -139 -111 -68
-27 -26 14 -34 -123 -130 -104 -64
-26 -24 14 -34 -117 -122 -99 -62
-24 -20 14 -30 -116 -114 -95 -60
-26 -23 11 -27 -99 -108 -91 -59
-24 -24 11 -26 -93 -102 -87 -56
-18 -22 12 -24 -90 -93 -79 -53
-20 -17 11 -25 -86 -85 -75 -52
-19 -13 10 -18 -88 -77 -68 -48
-19 -15 10 -14 -84 -70 -63 -45
-17 -14 8 -14 -81 -64 -59 -41
-13 -7 5 -8 -74 -59 -55 -39
-11 -7 4 -7 -68 -55 -52 -38
-9 -9 7 -1 -47 -45 -44 -34
-7 -7 8 8 -36 -38 -38 -32
-8 -6 10 7 -27 -32 -35 -29
-8 -7 11 7 -30 -26 -28 -28
-9 -5 13 12 -23 -19 -23 -24
-6 2 7 10 -26 -15 -20 -25
-3 1 4 18 -22 -10 -18 -25
-6 -3 4 18 -14 -4 -14 -20
-4 0 2 17 -13 0 -13 -20
-4 1 4 18 -9 0 -13 -22
-3 6 4 21 -7 3 -12 -21
2 9 2 25 -8 8 -8 -20
1 2 5 30 3 15 -4 -17
3 3 8 31 10 20 1 -15
6 7 6 29 9 24 2 -15
3 6 5 33 16 26 3 -14
4 10 4 28 7 26 4 -15
3 9 6 32 8 30 9 -11
2 6 6 36 11 34 12 -7
3 6 6 37 18 35 12 -10
4 8 3 35 20 32 8 -13
5 10 2 36 17 33 8 -14
3 8 4 41 22 37 10 -13
4 8 5 47 22 38 12 -11
6 10 4 47 30 41 13 -9
6 10 3 46 26 43 16 -9
6 12 3 46 33 45 16 -9
6 17 1 46 29 43 16 -9
2 15 1 41 25 45 15 -8
2 10 5 47 32 46 17 -7
2 7 4 47 30 46 17 -7
3 8 1 47 27 46 16 -8
5 10 2 50 36 47 18 -7
4 8 4 51 36 50 20 -4
4 8 3 53 30 50 20 -4
9 12 2 52 25 47 18 -5
7 12 0 46 25 43 15 -8
7 14 1 47 29 42 16 -6
6 13 0 49 36 42 14 -7
6 9 -1 50 24 42 13 -9
7 7 0 45 26 44 14 -9
3 8 -1 44 22 42 12 -12
1 10 0 43 27 42 11 -13
3 14 2 48 32 44 11 -13
4 12 2 47 25 43 11 -14
8 13 3 48 30 43 12 -12
6 14 2 48 25 42 11 -13
6 10 0 46 23 40 12 -11
6 8 0 44 27 40 11 -10
6 13 -1 45 27 40 11 -12
6 12 -1 46 29 43 11 -11
6 10 1 48 30 45 14 -11
4 6 3 50 24 46 14 -11
6 7 1 51 22 44 14 -10
5 8 1 49 26 46 14 -10
4 14 -3 48 21 43 10 -14
5 13 -1 45 28 44 11 -11
4 6 1 47 28 45 13 -7
6 12 -2 46 29 41 10 -10
6 10 0 49 27 39 11 -10
4 10 1 43 29 38 11 -12
5 10 0 49 34 37 9 -13
5 8 2 48 22 38 7 -14
5 4 3 48 23 37 7 -15
4 3 4 49 24 41 8 -12
6 3 0 49 19 41 8 -13
4 11 -3 43 11 34 3 -17
5 15 -4 43 11 32 2 -17
5 10 -4 44 15 35 2 -16
6 11 -2 47 16 35 4 -15
4 11 -1 47 13 34 0 -18
4 7 2 48 16 34 -2 -18
5 7 2 43 21 34 -3 -19
5 9 4 45 29 35 1 -17
3 5 6 43 25 37 1 -15
4 4 4 43 26 37 2 -15
4 9 1 39 22 33 -1 -16
5 10 1 37 18 31 -2 -19
5 5 3 43 23 34 1 -18
3 5 4 45 22 36 2 -17
5 6 7 46 28 38 2 -17
5 5 4 47 25 35 0 -17
6 6 2 46 22 34 -1 -17
7 10 1 45 23 33 1 -18
5 6 2 46 33 34 -2 -18
6 4 3 45 31 33 -1 -19
3 6 1 39 26 31 -3 -18
4 11 -4 33 23 30 -4 -20
5 14 0 38 16 34 -2 -19
7 9 1 43 18 32 -2 -18
6 4 0 42 17 32 -3 -18
3 1 4 46 20 36 -1 -15
5 3 3 44 22 36 -4 -17
9 2 3 44 27 36 -3 -17
5 1 4 43 19 36 -3 -18
5 3 4 41 22 35 -2 -15
6 6 0 38 19 34 -1 -15
3 4 -2 38 24 34 -1 -15
2 4 -2 41 23 36 1 -15
1 7 -2 37 15 35 1 -15
1 2 -2 35 12 34 -1 -15
4 0 2 40 22 36 1 -13
6 2 0 44 29 33 -2 -14
5 2 -1 43 22 33 -3 -15
6 4 0 41 28 36 -2 -15
6 7 -1 37 27 35 -2 -18
6 6 1 37 24 35 -1 -17
7 3 2 38 23 35 0 -15
6 1 1 37 27 34 0 -16
7 6 -2 39 17 32 -2 -17
7 6 -3 37 16 31 -3 -18
4 4 -3 34 28 30 -5 -19
4 4 -1 36 30 31 -5 -19
5 4 0 35 20 34 -4 -17
8 7 2 37 18 37 -1 -15
6 6 0 39 20 38 1 -14
5 6 -3 36 24 39 2 -13
6 6 -3 37 30 40 3 -13
4 10 -2 38 34 40 2 -12
3 5 0 40 30 39 3 -12
8 -5 4 42 24 40 3 -12
7 -1 -1 42 22 36 -1 -16
8 13 -5 35 16 32 -3 -17
8 11 -4 33 14 34 1 -14
5 9 -3 35 20 35 3 -11
6 8 -2 33 22 36 5 -9
4 6 -1 34 20 40 6 -7
6 2 1 34 34 40 6 -8
8 4 0 37 32 41 5 -9
9 8 -2 42 28 39 4 -11
8 9 -3 37 24 38 2 -12
6 6 -3 36 17 36 4 -12
8 4 -4 41 23 34 0 -14
7 7 -4 37 22 32 -2 -14
3 3 -3 34 23 32 -2 -13
2 7 -4 35 21 30 -1 -14
5 5 -4 36 28 33 3 -10
8 4 -3 36 25 38 7 -7
7 12 -3 33 25 36 7 -7
6 9 -2 35 26 37 10 -5
6 10 -5 33 23 35 8 -6
7 9 -5 35 29 38 9 -6
7 5 -3 36 28 40 10 -5
7 10 -2 33 25 37 7 -8
6 13 0 40 30 37 6 -8
4 10 -3 36 28 37 7 -7
6 12 -7 34 34 38 8 -7
6 12 -8 36 33 38 8 -6
6 7 -4 37 28 38 8 -6
5 10 -5 35 22 37 7 -8
5 9 -4 37 23 38 7 -8
7 9 -3 40 28 36 8 -7
8 9 -4 40 30 36 7 -7
6 5 -4 40 25 35 7 -7
8 5 -3 40 25 38 10 -4
9 8 -8 39 24 36 8 -5
8 8 -7 36 24 36 10 -4
8 6 -1 36 21 37 10 -2
4 4 -2 36 21 36 9 -3
5 8 -6 34 26 33 8 -4
9 11 -7 35 25 31 7 -7
8 14 -8 39 30 31 6 -7
8 16 -8 38 26 32 6 -7
7 14 -8 41 20 33 7 -6
7 11 -7 36 20 35 8 -5
6 6 -6 40 28 37 12 -4
4 3 -8 35 23 36 11 -3
6 9 -8 30 18 35 10 -4
7 13 -10 33 28 35 9 -6
4 9 -7 37 24 35 11 -4
6 8 -6 35 20 36 10 -3
4 11 -7 39 17 33 8 -5
6 13 -6 38 20 32 7 -5
8 12 -4 41 20 30 7 -4
5 15 -7 33 22 29 6 -4
7 13 -9 30 19 28 8 -2
6 12 -6 32 16 32 13 0
7 10 -8 30 26 33 14 -1
9 8 -8 30 18 32 13 0
7 6 -6 30 14 32 13 0
5 10 -8 29 20 33 13 0
5 9 -8 30 20 35 15 -1
5 11 -9 32 17 34 14 -2
5 15 -10 32 18 33 12 -4
2 14 -9 30 29 35 12 -4
5 9 -6 29 23 36 15 -2
8 12 -3 29 24 37 17 2
6 14 -5 29 22 36 17 4
5 10 -8 27 20 35 15 1
4 11 -10 31 18 33 14 0
2 15 -10 30 22 31 12 -1
1 11 -8 28 26 29 12 1
0 6 -5 30 21 29 12 3
3 8 -5 27 22 27 12 3
6 12 -8 25 25 26 11 1
6 14 -9 24 25 26 11 0
5 7 -7 25 28 31 15 3
7 11 -6 26 28 35 16 4
7 11 -6 32 28 35 16 2
6 11 -5 31 19 34 16 5
2 10 -7 26 24 31 13 3
2 12 -8 24 14 29 12 2
7 12 -9 23 18 29 13 3
4 9 -8 24 26 32 15 6
4 7 -6 26 20 30 13 4
6 11 -6 27 26 31 14 3
6 14 -6 26 26 31 15 3
7 7 -5 24 22 33 17 7
10 7 -5 24 26 31 16 7
8 11 -7 25 20 28 13 6
6 12 -6 31 23 31 13 5
6 11 -7 26 23 35 15 6
6 14 -7 25 24 34 16 6
3 8 -4 28 23 35 18 7
3 6 -6 22 23 34 17 5
4 15 -9 20 25 32 16 5
4 17 -10 20 20 30 16 6
5 17 -10 21 21 30 18 8
6 13 -8 19 19 30 18 10
5 9 -6 19 28 30 19 12
6 10 -7 19 22 30 18 11
5 13 -7 20 21 31 18 10
4 15 -6 19 25 29 17 8
8 15 -7 20 30 30 17 9
6 13 -7 23 21 32 18 10
4 10 -5 24 21 32 21 11
6 14 -5 24 18 31 18 11
5 13 -8 18 16 28 15 10
4 17 -9 12 12 25 12 8
3 18 -7 16 15 25 16 9
3 15 -6 20 22 26 16 9
4 13 -4 20 22 26 17 11
4 12 -4 17 25 26 16 11
7 18 -7 15 20 26 15 10
3 13 -6 14 20 28 16 11
2 12 -9 13 24 25 14 10
3 17 -7 14 22 27 14 10
4 15 -5 17 17 30 19 13
3 14 -7 19 17 29 18 12
1 14 -5 14 22 29 21 15
6 9 -7 15 26 28 19 13
7 10 -7 15 19 26 18 13
7 17 -7 11 16 24 16 12
5 15 -10 12 23 24 17 14
6 14 -9 12 18 25 17 14
9 13 -8 12 23 25 19 15
6 9 -6 14 30 27 20 17
5 9 -4 15 33 28 22 18
5 9 -6 12 26 27 22 17
5 11 -7 10 28 27 21 17
5 20 -10 8 20 27 20 15
7 14 -8 11 17 28 22 16
4 14 -7 10 22 29 23 17
2 14 -6 7 24 28 24 17
5 8 -5 9 23 30 25 18
4 9 -4 10 25 32 27 21
5 12 -6 8 24 31 26 20
5 16 -7 11 27 31 26 21
4 14 -6 10 29 32 27 23
3 12 -5 9 23 29 27 22
5 21 -4 13 20 27 24 20
5 20 -2 16 27 29 26 21
3 16 -1 16 40 32 28 25
7 20 -2 17 38 31 27 24
7 17 -4 17 37 29 25 23
7 21 -2 12 40 29 28 25
8 26 -1 11 29 29 27 26
6 25 -1 11 32 28 27 26
5 24 1 12 30 28 29 28
7 25 0 14 21 27 29 29
6 28 -2 16 31 27 27 27
7 29 -5 14 35 27 26 25
9 28 -4 17 28 30 27 26
7 32 -7 14 21 29 25 25
9 35 -2 14 24 31 26 26
8 32 0 15 28 30 27 28
7 31 -2 16 26 30 29 30
9 32 -2 17 34 30 31 32
8 30 -3 16 35 33 34 34
10 33 -3 17 39 35 37 35
11 33 -2 16 39 37 38 36
12 33 -2 19 33 38 37 38
12 34 -2 14 40 38 40 39
12 34 -4 9 29 36 39 39
15 35 -6 9 30 36 39 42
16 40 -10 9 28 36 39 42
17 46 -12 8 28 34 38 42
16 39 -13 7 38 35 39 41
15 34 -15 6 33 32 36 39
15 31 -14 7 30 29 36 38
14 34 -13 4 35 31 35 38
13 33 -13 2 30 32 36 38
14 29 -12 4 23 32 36 38
12 31 -13 -1 26 30 36 37
9 30 -11 -2 27 31 37 39
11 27 -11 -4 20 30 37 39
10 24 -12 -7 26 28 38 40
13 25 -13 -7 24 26 37 39
10 26 -9 -4 28 29 39 42
9 22 -7 -8 25 27 39 43
10 23 -6 -9 25 25 37 41
9 19 -4 -9 24 26 37 41
10 18 -3 -4 16 25 37 41
8 20 -2 -4 21 25 35 41
6 17 -1 -4 18 25 34 40
8 21 -4 -7 17 23 33 37
6 19 -4 -10 23 22 31 37
2 14 -2 -10 32 18 29 34
2 13 -3 -13 17 14 26 32
3 12 -3 -17 8 13 25 33
3 9 -3 -21 8 12 24 32
2 13 -5 -21 11 11 24 32
0 7 -6 -18 11 14 26 33
1 3 -6 -19 10 15 28 34
1 8 -5 -19 18 14 26 34
1 9 -4 -21 12 12 25 31
1 11 -1 -25 6 10 24 31
-1 8 -3 -22 2 9 23 33
1 7 -3 -21 5 10 23 34
3 10 -3 -22 10 8 22 34
1 11 -4 -24 14 6 21 32
4 10 -1 -24 18 8 24 36
6 7 -1 -23 17 9 25 37
2 5 2 -22 10 9 26 37
-1 6 2 -20 12 13 28 39
0 6 1 -22 16 13 28 38
1 8 0 -24 16 13 26 37
1 11 -2 -23 18 12 26 36
2 14 -3 -26 17 10 25 37
4 17 -5 -24 6 6 23 36
2 10 -3 -27 12 8 24 38
1 10 -4 -25 14 8 23 36
2 16 -5 -23 9 6 23 34
2 14 -1 -25 10 9 25 36
2 16 -1 -25 12 10 24 34
5 19 0 -23 13 10 25 33
3 15 1 -18 17 11 25 32
2 5 4 -11 18 17 28 34
4 7 4 -7 28 21 30 33
6 4 5 1 44 29 34 34
7 -3 10 15 60 42 39 35
7 1 18 31 73 53 42 32
8 12 26 55 90 64 44 30
13 22 37 88 125 84 54 35
16 30 51 122 163 115 70 45
13 48 66 160 218 151 95 61
13 78 76 195 276 193 122 80
