I II V1 V2 V3 V4 V5 V6
-7 -12 0 -3 -5 -9 -10 -12
-7 -13 0 -3 -5 -9 -11 -12
-7 -15 0 -2 -5 -9 -12 -13
-6 -16 0 -2 -4 -10 -13 -14
-6 -18 0 0 -4 -10 -14 -15
-6 -19 0 0 -4 -10 -15 -16
-4 -20 7 10 5 -8 -15 -17
-2 -20 15 19 12 -5 -14 -18
0 -19 22 29 20 -2 -12 -18
2 -19 30 38 27 2 -11 -19
3 -19 37 48 34 5 -10 -19
11 -3 47 64 52 23 9 -5
19 14 55 79 69 40 27 11
27 30 64 95 87 59 45 27
35 47 72 110 104 76 63 43
44 62 80 126 120 94 80 58
48 90 66 106 116 108 104 87
51 116 50 86 110 122 127 115
54 144 33 64 104 137 150 143
57 171 17 43 98 150 174 172
60 198 1 22 93 164 196 200
56 198 -20 -5 71 156 191 199
51 196 -40 -31 49 147 185 197
45 194 -61 -57 27 137 179 194
39 192 -81 -83 6 128 173 192
34 191 -102 -110 -16 118 167 190
23 155 -104 -118 -37 80 125 149
12 120 -105 -127 -59 43 82 108
1 85 -107 -135 -79 4 39 67
-11 49 -108 -143 -101 -34 -3 26
-22 13 -109 -150 -122 -73 -46 -16
-23 7 -99 -136 -112 -69 -46 -19
-22 1 -87 -119 -99 -64 -45 -22
-21 -5 -74 -103 -87 -58 -43 -25
-20 -11 -62 -87 -74 -53 -41 -28
-19 -16 -50 -70 -62 -48 -40 -31
-18 -16 -43 -60 -54 -41 -36 -30
-17 -15 -34 -51 -46 -36 -32 -27
-16 -14 -27 -40 -37 -31 -28 -24
-15 -13 -20 -30 -29 -26 -24 -21
-15 -12 -13 -21 -21 -21 -20 -19
-14 -11 -12 -20 -20 -20 -19 -18
-14 -12 -11 -19 -19 -20 -19 -19
-13 -12 -11 -18 -19 -21 -20 -19
-13 -13 -10 -17 -18 -21 -20 -20
-13 -13 -10 -16 -18 -21 -20 -20
-12 -14 -9 -15 -17 -22 -21 -21
-12 -14 -8 -14 -17 -22 -21 -21
-12 -14 -7 -13 -16 -22 -21 -21
-12 -14 -6 -12 -16 -22 -21 -21
-12 -14 -6 -11 -16 -22 -21 -21
-13 -14 -5 -10 -15 -22 -21 -21
-13 -14 -5 -10 -14 -21 -21 -21
-13 -14 -4 -10 -14 -21 -20 -21
-13 -14 -4 -10 -13 -20 -20 -21
-13 -14 -4 -10 -13 -20 -20 -21
-12 -15 -3 -9 -12 -19 -19 -21
-11 -15 -3 -9 -12 -19 -19 -21
-11 -14 -3 -8 -12 -20 -19 -21
-10 -14 -3 -8 -12 -20 -19 -21
-10 -14 -3 -8 -12 -20 -19 -21
-9 -13 -4 -7 -12 -21 -18 -21
-10 -13 -4 -7 -11 -20 -18 -20
-11 -13 -3 -7 -11 -20 -18 -20
-12 -13 -3 -7 -10 -19 -18 -19
-12 -13 -3 -7 -10 -19 -18 -19
-13 -14 -2 -7 -9 -18 -17 -18
-12 -14 -2 -7 -9 -18 -17 -18
-11 -14 -2 -7 -9 -19 -17 -18
-10 -14 -2 -7 -9 -19 -17 -18
-10 -14 -2 -7 -9 -19 -17 -18
-9 -13 0 -6 -9 -20 -17 -17
-10 -13 0 -6 -9 -20 -17 -16
-10 -13 0 -6 -8 -20 -17 -15
-11 -13 0 -6 -8 -20 -17 -14
-11 -13 0 -6 -8 -20 -17 -13
-12 -12 0 -5 -7 -19 -16 -12
-12 -12 0 -5 -7 -19 -16 -12
-11 -12 0 -5 -7 -19 -16 -12
-11 -12 0 -5 -7 -19 -16 -12
-11 -12 0 -5 -7 -19 -16 -12
-10 -11 0 -4 -8 -19 -15 -11
-10 -11 0 -4 -8 -19 -15 -11
-10 -11 0 -4 -8 -19 -15 -11
-10 -11 0 -4 -8 -19 -15 -11
-10 -11 0 -4 -8 -19 -15 -11
-10 -12 0 -4 -7 -18 -14 -11
-9 -12 0 -4 -7 -18 -14 -11
-8 -12 0 -4 -8 -19 -14 -11
-7 -12 0 -4 -8 -19 -14 -11
-6 -12 0 -4 -8 -19 -14 -11
-6 -11 0 -5 -9 -20 -15 -12
-7 -11 0 -5 -8 -19 -14 -11
-8 -11 0 -4 -7 -19 -14 -11
-9 -11 0 -4 -6 -18 -13 -10
-10 -11 0 -4 -5 -18 -13 -10
-11 -10 1 -3 -4 -17 -12 -9
-11 -10 1 -3 -5 -17 -12 -9
-10 -10 0 -3 -5 -17 -12 -8
-10 -10 0 -3 -6 -17 -12 -8
-10 -10 0 -3 -6 -17 -12 -8
-9 -10 -2 -4 -7 -18 -13 -7
-9 -10 -2 -4 -7 -18 -13 -7
-8 -10 -2 -4 -7 -18 -13 -8
-8 -10 -2 -4 -7 -18 -13 -8
-8 -10 -2 -4 -7 -18 -13 -8
-7 -10 -2 -5 -7 -17 -13 -9
-7 -10 -2 -5 -7 -17 -13 -9
-7 -9 -3 -5 -7 -17 -13 -8
-7 -9 -3 -5 -7 -17 -13 -8
-7 -9 -3 -5 -7 -17 -13 -8
-6 -8 -4 -5 -8 -16 -12 -7
-6 -8 -4 -5 -8 -16 -12 -7
-6 -8 -4 -5 -8 -17 -12 -7
-6 -8 -4 -5 -8 -17 -12 -7
-6 -8 -4 -5 -8 -17 -12 -7
-5 -8 -4 -6 -7 -18 -12 -7
-5 -7 -4 -6 -8 -18 -12 -7
-5 -7 -5 -6 -8 -18 -12 -7
-5 -6 -5 -6 -9 -18 -12 -7
-5 -6 -5 -6 -9 -18 -12 -7
-6 -5 -6 -7 -10 -18 -11 -6
-5 -5 -6 -7 -10 -18 -11 -6
-5 -5 -6 -8 -10 -18 -11 -5
-4 -5 -6 -8 -10 -18 -11 -5
-4 -5 -6 -8 -10 -18 -11 -5
-2 -4 -7 -9 -9 -17 -10 -4
0 -4 -8 -10 -10 -17 -10 -4
2 -4 -8 -10 -11 -17 -10 -4
3 -4 -9 -11 -12 -17 -10 -4
4 -4 -9 -11 -12 -17 -10 -4
5 -3 -10 -12 -13 -18 -10 -4
5 -3 -10 -12 -13 -18 -10 -4
4 -2 -10 -12 -13 -18 -10 -3
4 -2 -10 -12 -13 -18 -10 -3
4 -2 -10 -12 -13 -18 -10 -3
3 0 -9 -13 -12 -17 -9 -2
3 0 -10 -14 -13 -17 -9 -2
3 0 -10 -14 -13 -17 -9 -2
3 0 -11 -15 -14 -17 -9 -2
3 0 -11 -15 -14 -17 -9 -2
4 1 -12 -17 -15 -16 -8 -2
5 1 -13 -18 -16 -16 -8 -2
5 1 -14 -19 -16 -16 -8 -2
6 1 -15 -20 -17 -16 -8 -2
6 1 -16 -21 -17 -16 -8 -2
7 2 -17 -22 -18 -17 -8 -2
7 2 -17 -22 -18 -17 -8 0
7 3 -17 -22 -18 -17 -8 0
7 3 -17 -22 -18 -17 -8 1
7 3 -17 -22 -18 -17 -8 1
7 4 -17 -21 -19 -17 -7 2
8 4 -17 -21 -19 -17 -7 2
9 4 -17 -21 -19 -17 -7 2
10 4 -17 -21 -19 -17 -7 2
10 4 -17 -21 -19 -17 -7 2
11 4 -18 -22 -18 -18 -6 3
11 4 -18 -22 -18 -18 -6 3
11 5 -18 -22 -19 -18 -6 3
11 5 -18 -22 -19 -18 -6 3
11 5 -18 -22 -19 -18 -6 3
12 6 -17 -21 -20 -18 -5 4
12 6 -17 -21 -19 -17 -4 4
12 7 -17 -20 -19 -16 -4 4
12 7 -17 -20 -18 -15 -3 4
12 7 -17 -20 -18 -15 -3 4
12 8 -16 -18 -17 -14 -2 5
12 8 -15 -17 -16 -13 -2 5
12 9 -14 -15 -16 -13 0 5
12 9 -13 -14 -15 -12 0 5
12 9 -12 -13 -15 -12 0 5
13 10 -11 -11 -13 -10 1 6
12 10 -10 -10 -11 -9 2 7
12 10 -9 -8 -9 -7 3 8
11 10 -8 -6 -7 -6 4 9
11 10 -7 -5 -5 -5 5 9
10 11 -6 -3 -4 -4 6 10
11 11 -5 -2 -3 -3 6 10
12 12 -4 1 -2 -2 6 10
13 12 -3 3 0 0 6 10
13 12 -3 4 1 0 6 10
14 13 0 6 3 2 7 10
14 13 2 8 6 3 8 11
13 14 4 10 8 4 9 12
13 14 5 11 10 6 10 13
13 14 7 13 12 7 11 13
12 15 8 15 13 8 12 14
11 15 8 16 14 8 12 14
11 15 8 17 15 9 12 14
10 15 8 18 16 9 12 14
10 15 8 19 16 9 12 14
9 14 9 20 17 10 12 13
9 13 10 20 18 10 12 12
8 13 10 20 18 11 12 12
8 12 11 20 19 11 12 11
8 12 11 20 19 11 12 11
7 11 12 21 20 12 12 10
6 11 12 21 19 12 12 10
5 11 11 20 18 12 12 10
4 11 11 20 17 12 12 10
4 11 11 20 17 12 12 10
3 10 10 19 16 11 12 10
3 10 10 19 16 11 12 10
3 9 10 19 16 11 11 9
3 9 10 19 16 11 11 9
3 9 10 19 16 11 11 9
2 8 10 18 17 10 10 8
2 8 10 18 17 10 10 8
1 8 10 18 17 10 9 7
1 8 10 18 17 10 9 7
1 8 10 18 17 10 9 7
0 7 11 19 16 9 8 6
0 7 11 19 16 9 8 6
0 7 11 19 16 9 8 6
0 7 11 19 16 9 8 6
0 7 11 19 16 9 8 6
0 7 10 19 17 8 7 6
0 7 10 19 17 8 7 6
0 7 10 19 16 8 7 6
0 7 10 19 16 8 7 6
0 7 10 19 16 8 7 6
1 7 11 19 15 9 8 5
1 7 11 19 15 9 8 5
1 7 11 19 16 8 8 5
1 7 11 19 16 8 8 5
1 7 11 19 16 8 8 5
1 7 10 18 17 7 7 6
0 7 11 18 17 8 8 7
-2 7 11 19 17 8 8 7
-4 7 12 19 17 9 9 8
-5 7 12 19 17 9 9 8
-6 8 13 20 18 10 10 9
-5 8 13 20 18 10 10 9
-4 8 13 20 18 10 10 8
-3 8 13 20 18 10 10 8
-3 8 13 20 18 10 10 8
-2 8 12 19 18 10 9 7
-2 8 12 19 17 10 8 7
0 8 12 19 17 10 8 6
0 8 12 19 16 10 7 6
0 8 12 19 16 10 7 6
1 9 11 18 15 9 6 5
0 9 11 18 15 9 7 5
-2 9 11 18 16 9 8 6
-3 9 11 18 16 9 9 6
-3 9 11 18 16 9 10 6
-4 8 12 19 17 10 11 7
-4 8 12 19 16 10 10 6
-4 8 12 18 16 9 10 6
-4 8 12 18 15 9 9 5
-4 8 12 18 15 9 9 5
-3 7 11 17 14 8 8 4
-3 7 11 17 14 8 8 4
-3 7 11 17 13 8 8 4
-3 7 11 17 13 8 8 4
-3 7 11 17 13 8 8 4
-2 6 10 16 12 8 8 5
-2 6 10 16 12 7 8 5
0 6 10 16 12 7 7 4
0 6 10 16 12 6 7 4
0 6 10 16 12 6 7 4
1 7 9 15 11 5 6 3
1 7 9 14 11 5 6 3
1 7 9 14 10 4 5 2
1 7 9 13 10 4 5 2
1 7 9 13 10 4 5 2
1 6 9 12 9 3 4 1
0 6 9 12 9 3 4 1
0 6 9 12 9 3 4 1
-2 6 9 12 9 3 4 1
-2 6 9 12 9 3 4 1
-3 6 9 13 8 3 4 2
-3 6 8 12 8 3 3 1
-3 6 8 11 7 2 3 1
-3 6 7 10 7 2 2 0
-3 6 7 10 7 2 2 0
-2 5 6 9 6 1 1 -2
-2 4 6 9 5 0 0 -3
-2 4 6 9 5 -2 0 -3
-2 3 6 9 4 -3 -2 -4
-2 3 6 9 4 -3 -2 -4
-2 2 7 9 3 -4 -3 -5
-2 2 7 9 3 -4 -3 -5
-2 2 7 9 3 -4 -3 -5
-2 2 7 9 3 -4 -3 -5
-2 2 7 9 3 -4 -3 -5
-3 2 7 8 4 -4 -3 -5
-3 2 7 8 4 -4 -3 -5
-3 1 6 8 3 -4 -2 -5
-3 1 6 8 3 -4 -2 -5
-3 1 6 8 3 -4 -2 -5
-2 0 5 7 2 -4 0 -5
-3 0 5 7 2 -4 0 -5
-3 0 5 7 2 -4 0 -4
-4 0 5 7 2 -4 0 -4
-4 0 5 7 2 -4 0 -4
-5 1 5 8 2 -3 1 -3
-5 1 5 8 2 -4 0 -3
-4 1 5 8 2 -4 0 -4
-4 1 5 8 2 -5 -2 -4
-4 1 5 8 2 -5 -2 -4
-3 0 5 7 1 -6 -3 -5
-3 0 5 7 1 -6 -3 -5
-4 0 5 7 2 -6 -3 -5
-4 0 5 7 2 -6 -3 -5
-4 0 5 7 2 -6 -3 -5
-5 -2 6 8 3 -5 -3 -6
-5 -2 6 8 3 -5 -3 -6
-4 -2 6 7 3 -5 -3 -6
-4 -2 6 7 3 -5 -3 -6
-4 -2 6 7 3 -5 -3 -6
-3 0 5 6 2 -6 -4 -6
-3 0 5 6 2 -6 -4 -6
-3 0 5 6 2 -6 -4 -6
-3 0 5 6 2 -6 -4 -6
-3 0 5 6 2 -6 -4 -6
-4 0 4 5 2 -5 -3 -6
-4 0 4 5 2 -5 -3 -6
-4 0 4 5 2 -5 -3 -6
-4 0 4 5 2 -5 -3 -6
-4 0 4 5 2 -5 -3 -6
-3 0 4 5 1 -5 -3 -7
-3 0 4 5 1 -5 -3 -7
-3 -2 4 5 1 -5 -4 -7
-3 -2 4 5 1 -5 -4 -7
-3 -2 4 5 1 -5 -4 -7
-3 -3 4 5 1 -5 -5 -7
-3 -3 4 5 1 -5 -5 -7
-2 -3 4 5 1 -6 -5 -7
-2 -3 4 5 1 -6 -5 -7
-2 -3 4 5 1 -6 -5 -7
0 -2 4 4 2 -7 -5 -8
-2 -3 4 4 2 -7 -5 -8
-3 -3 4 4 2 -7 -5 -8
-4 -4 4 4 2 -7 -5 -8
-5 -4 4 4 2 -7 -5 -8
-6 -5 4 3 1 -6 -5 -8
-5 -5 4 3 1 -6 -5 -8
-4 -4 4 3 1 -6 -5 -8
-3 -4 4 3 1 -6 -5 -8
-2 -4 4 3 1 -6 -5 -8
0 -3 3 2 1 -7 -6 -9
-2 -3 3 2 1 -7 -6 -9
-3 -3 3 2 1 -6 -5 -8
-3 -3 3 2 1 -6 -5 -8
-4 -3 3 2 1 -6 -5 -8
-5 -4 3 3 2 -5 -4 -7
-5 -4 3 3 2 -5 -4 -7
-4 -4 3 3 2 -5 -4 -7
-4 -4 3 3 2 -5 -4 -7
-4 -4 3 3 2 -5 -4 -7
-3 -3 3 3 2 -5 -5 -8
-3 -4 3 2 2 -5 -5 -8
-3 -4 3 2 1 -5 -5 -8
-3 -5 3 1 1 -5 -5 -8
-3 -5 3 1 1 -5 -5 -8
-3 -6 3 0 0 -4 -4 -8
-3 -6 3 0 0 -4 -4 -8
-4 -6 2 0 0 -4 -4 -8
-4 -6 2 0 0 -4 -4 -8
-4 -6 2 0 0 -4 -4 -8
-5 -5 1 1 1 -5 -4 -8
-4 -5 1 1 1 -5 -4 -8
-4 -5 1 1 1 -5 -5 -8
-3 -5 1 1 1 -5 -5 -8
-3 -5 1 1 1 -5 -5 -8
-2 -6 1 2 1 -4 -6 -9
-2 -6 1 2 1 -4 -6 -9
-2 -5 1 2 0 -4 -6 -9
-2 -5 1 2 0 -4 -6 -9
-2 -5 1 2 0 -4 -6 -9
-3 -4 0 1 -2 -4 -5 -8
-3 -4 1 2 -2 -4 -5 -8
-3 -4 1 2 0 -4 -5 -8
-3 -4 2 3 0 -4 -5 -8
-3 -4 2 3 0 -4 -5 -8
-2 -3 3 4 1 -5 -6 -9
-2 -2 3 5 1 -4 -5 -8
-2 0 4 6 2 -3 -4 -7
-2 1 4 7 2 -2 -3 -7
-2 2 4 8 2 0 -2 -6
0 3 5 9 3 1 0 -5
0 4 6 9 4 1 0 -5
0 4 7 10 4 1 0 -5
0 5 8 10 5 1 0 -5
0 5 9 10 5 1 0 -5
0 7 10 11 6 2 1 -4
2 9 10 11 7 3 2 -4
3 11 11 12 7 3 2 -3
4 13 11 12 8 4 3 -3
5 15 11 12 8 4 3 -3
6 16 12 13 9 5 4 -2
6 16 11 13 9 6 5 0
6 16 10 13 9 7 6 1
6 16 10 13 9 7 6 1
6 16 9 13 9 8 7 2
6 15 8 14 10 9 8 3
7 13 7 13 10 8 8 3
8 12 6 12 9 7 7 2
9 10 6 12 9 6 7 2
10 9 5 11 9 5 7 2
11 8 4 10 8 4 6 1
11 7 3 9 8 4 5 1
11 6 2 9 7 4 5 1
11 6 1 8 7 4 4 1
11 5 0 8 7 4 4 1
11 4 -2 7 6 4 3 0
9 2 0 7 5 3 3 -2
8 1 0 6 5 3 2 -3
6 0 1 6 4 2 2 -3
5 -2 1 6 4 2 2 -4
4 -3 2 5 3 1 1 -5
3 -5 1 4 2 0 -2 -6
2 -6 0 3 1 -2 -3 -7
2 -8 0 2 0 -3 -4 -8
1 -9 -2 1 -2 -4 -5 -9
0 -10 -3 0 -3 -5 -6 -10
0 -10 -3 0 -3 -5 -6 -10
-2 -10 -3 -2 -4 -5 -6 -10
-2 -10 -3 -3 -5 -5 -6 -10
-2 -10 -3 -3 -5 -5 -6 -10
-3 -10 -4 -4 -6 -6 -6 -11
-3 -10 -4 -4 -6 -6 -7 -11
-3 -10 -3 -3 -6 -7 -8 -12
-3 -10 -3 -3 -6 -7 -8 -12
-3 -10 -3 -3 -6 -7 -9 -12
-3 -9 -2 -2 -5 -8 -10 -13
-3 -9 -2 -2 -5 -8 -10 -13
-3 -9 -3 -3 -6 -8 -10 -13
-3 -9 -4 -4 -6 -8 -10 -13
-3 -9 -4 -4 -6 -8 -10 -13
-3 -10 -5 -5 -7 -8 -10 -13
-3 -10 -5 -5 -7 -8 -10 -13
-3 -10 -5 -4 -6 -7 -9 -13
-3 -10 -5 -4 -6 -7 -9 -13
-3 -10 -5 -4 -6 -7 -9 -13
-4 -10 -4 -3 -5 -6 -8 -12
-4 -10 -4 -3 -5 -6 -8 -12
-4 -10 -4 -3 -5 -6 -8 -12
-4 -10 -4 -3 -5 -6 -8 -12
-4 -10 -4 -3 -5 -6 -8 -12
-3 -10 -4 -3 -6 -6 -8 -12
-2 -12 -4 -3 -6 -6 -8 -13
0 -14 -5 -3 -6 -7 -9 -14
0 -16 -5 -3 -6 -7 -10 -15
1 -18 -5 -3 -6 -7 -10 -16
3 -19 -2 3 -2 -7 -11 -17
4 -20 6 13 6 -4 -11 -19
6 -21 13 23 14 -2 -11 -20
7 -22 20 33 21 2 -11 -22
9 -23 27 44 28 5 -11 -23
11 -15 35 57 42 16 -2 -15
14 0 45 72 59 33 16 1
17 15 53 88 75 51 33 16
20 30 62 102 93 68 51 30
23 45 70 117 109 85 67 46
27 67 72 121 119 104 91 70
31 94 68 116 125 125 117 100
35 119 64 111 130 145 144 129
39 146 60 107 135 165 171 158
44 173 56 102 140 186 197 188
43 184 37 75 125 188 204 199
38 187 10 36 96 178 199 199
33 189 -18 -4 66 167 193 199
28 192 -46 -44 37 156 188 199
23 195 -73 -82 9 145 183 199
16 175 -88 -107 -20 114 151 172
8 139 -96 -122 -48 71 105 129
0 103 -104 -138 -75 27 59 86
-8 67 -112 -154 -103 -16 13 43
-16 32 -120 -170 -131 -60 -34 -2
-20 13 -117 -165 -135 -74 -52 -20
-21 4 -105 -148 -122 -69 -50 -23
-23 -6 -94 -131 -110 -64 -49 -26
-24 -14 -82 -114 -97 -59 -47 -30
-25 -23 -71 -97 -85 -54 -46 -33
-25 -27 -61 -82 -74 -48 -43 -34
-22 -25 -53 -71 -64 -41 -37 -31
-19 -24 -45 -60 -54 -34 -32 -28
-16 -22 -36 -48 -45 -28 -28 -25
-13 -21 -28 -36 -34 -21 -23 -22
-11 -20 -23 -30 -29 -18 -21 -20
-11 -20 -21 -27 -26 -18 -21 -20
-10 -19 -18 -24 -24 -17 -20 -20
-9 -19 -16 -21 -21 -16 -20 -20
-9 -19 -13 -19 -19 -16 -20 -20
-8 -18 -12 -17 -17 -15 -19 -21
-8 -18 -12 -16 -17 -15 -19 -21
-8 -18 -12 -15 -16 -14 -19 -21
-8 -18 -12 -14 -16 -14 -19 -21
-8 -18 -12 -13 -16 -14 -19 -21
-9 -17 -11 -12 -15 -13 -19 -20
-9 -17 -10 -12 -14 -13 -19 -20
-9 -18 -9 -12 -13 -13 -19 -20
-9 -19 -9 -12 -13 -13 -19 -20
-9 -19 -8 -12 -12 -13 -19 -20
-9 -20 -7 -11 -11 -14 -18 -21
-9 -20 -7 -11 -11 -13 -18 -21
-8 -20 -7 -10 -11 -12 -18 -20
-8 -20 -7 -10 -11 -12 -18 -19
-8 -20 -7 -10 -11 -11 -18 -19
-7 -19 -6 -9 -10 -10 -17 -18
-7 -19 -6 -9 -10 -10 -17 -18
-7 -19 -6 -9 -9 -10 -17 -19
-7 -19 -6 -9 -9 -10 -17 -19
-7 -19 -6 -9 -9 -10 -17 -19
-6 -19 -6 -9 -8 -11 -16 -20
-6 -19 -6 -9 -8 -11 -16 -20
-6 -19 -6 -10 -9 -11 -16 -20
-6 -19 -6 -10 -9 -11 -16 -20
-6 -19 -6 -10 -9 -11 -16 -20
-7 -20 -7 -11 -10 -10 -15 -19
-7 -20 -7 -11 -10 -10 -15 -19
-6 -20 -7 -10 -9 -10 -15 -19
-5 -20 -7 -10 -9 -10 -15 -19
-5 -20 -7 -10 -9 -10 -15 -19
-4 -20 -6 -9 -8 -10 -14 -19
-4 -20 -6 -9 -8 -10 -14 -19
-5 -20 -6 -9 -8 -10 -15 -19
-6 -20 -6 -9 -8 -10 -15 -19
-6 -20 -6 -9 -8 -10 -15 -19
-7 -19 -6 -8 -9 -10 -16 -19
-7 -19 -6 -8 -9 -10 -15 -19
-7 -19 -6 -8 -8 -10 -14 -18
-7 -19 -6 -8 -7 -10 -14 -18
-7 -19 -6 -8 -7 -10 -13 -18
-7 -19 -6 -9 -6 -9 -12 -17
-6 -19 -6 -9 -6 -9 -12 -17
-5 -18 -6 -10 -6 -9 -12 -16
-5 -18 -6 -11 -6 -9 -12 -16
-4 -18 -6 -11 -6 -9 -12 -16
-3 -17 -7 -12 -7 -9 -12 -15
-3 -17 -7 -12 -7 -9 -12 -15
-4 -18 -7 -11 -7 -9 -12 -15
-4 -18 -7 -10 -7 -9 -12 -15
-4 -18 -7 -10 -7 -9 -12 -15
-5 -19 -7 -9 -7 -9 -13 -16
-5 -19 -7 -9 -7 -9 -13 -16
-5 -18 -8 -9 -7 -9 -13 -16
-5 -18 -8 -9 -7 -9 -13 -16
-5 -18 -8 -9 -7 -9 -13 -16
-4 -17 -9 -10 -8 -8 -12 -15
-4 -17 -9 -10 -8 -8 -12 -15
-4 -17 -9 -9 -8 -7 -12 -15
-4 -17 -9 -9 -8 -7 -12 -15
-4 -17 -9 -9 -8 -7 -12 -15
-3 -18 -8 -8 -7 -6 -12 -16
-3 -18 -8 -8 -7 -6 -12 -16
-2 -17 -9 -9 -8 -7 -13 -16
-2 -17 -10 -9 -8 -8 -13 -16
-2 -17 -10 -9 -8 -8 -13 -16
0 -16 -11 -10 -9 -9 -14 -16
0 -16 -11 -10 -9 -9 -13 -16
0 -16 -11 -10 -8 -8 -12 -15
0 -16 -11 -10 -8 -7 -12 -15
0 -16 -11 -10 -8 -7 -11 -15
0 -17 -10 -10 -7 -6 -10 -14
0 -17 -10 -10 -7 -6 -10 -14
1 -16 -11 -11 -8 -6 -9 -14
1 -15 -12 -12 -8 -6 -9 -14
1 -15 -12 -12 -8 -6 -9 -14
2 -14 -13 -13 -9 -7 -8 -13
2 -14 -13 -13 -9 -7 -8 -13
3 -14 -14 -13 -9 -7 -8 -13
3 -14 -15 -13 -9 -7 -8 -13
3 -14 -15 -13 -9 -7 -8 -13
4 -13 -16 -13 -9 -7 -9 -14
4 -13 -16 -14 -9 -7 -8 -13
3 -13 -17 -15 -10 -7 -7 -12
3 -13 -17 -15 -10 -7 -7 -11
3 -13 -17 -16 -10 -7 -6 -10
2 -13 -18 -17 -11 -6 -5 -9
3 -13 -19 -17 -11 -6 -5 -9
5 -13 -20 -18 -12 -6 -5 -9
6 -13 -20 -19 -12 -6 -5 -9
7 -13 -21 -19 -12 -6 -5 -9
8 -14 -22 -20 -13 -6 -6 -9
8 -14 -23 -21 -13 -6 -6 -9
9 -14 -24 -22 -14 -6 -6 -9
9 -14 -24 -22 -14 -6 -6 -9
9 -14 -25 -23 -14 -6 -6 -9
10 -14 -26 -24 -15 -7 -6 -8
12 -14 -27 -25 -16 -7 -6 -8
13 -13 -28 -26 -17 -7 -5 -8
14 -13 -29 -27 -17 -7 -4 -8
16 -13 -30 -28 -18 -7 -4 -8
17 -12 -31 -29 -19 -7 -3 -7
17 -12 -31 -29 -19 -7 -3 -7
18 -12 -32 -30 -20 -8 -3 -7
18 -12 -32 -30 -20 -8 -3 -7
18 -12 -32 -30 -20 -8 -3 -7
19 -13 -33 -31 -21 -9 -4 -6
18 -13 -33 -31 -21 -9 -4 -6
17 -13 -33 -31 -20 -8 -3 -6
17 -13 -33 -31 -20 -8 -3 -6
16 -13 -33 -31 -20 -8 -3 -6
15 -12 -32 -31 -19 -7 -2 -6
15 -12 -32 -31 -19 -7 -2 -6
16 -12 -32 -31 -20 -8 -2 -5
16 -12 -32 -31 -21 -8 -2 -4
16 -12 -32 -31 -21 -8 -2 -4
17 -12 -31 -30 -22 -9 -2 -3
17 -12 -31 -30 -22 -9 -2 -3
17 -12 -30 -30 -21 -9 -2 -3
17 -12 -30 -30 -21 -9 -2 -3
17 -12 -30 -30 -21 -9 -2 -3
17 -12 -29 -29 -20 -8 0 -2
17 -11 -29 -28 -19 -7 0 -2
17 -10 -28 -26 -18 -5 1 0
17 -10 -27 -25 -17 -4 1 0
17 -9 -27 -24 -16 -3 1 0
17 -8 -26 -23 -15 -2 2 1
17 -8 -24 -21 -13 1 4 2
16 -8 -22 -20 -11 2 5 3
15 -8 -21 -19 -10 3 6 4
15 -8 -19 -17 -8 5 8 5
14 -8 -18 -15 -7 6 9 6
14 -7 -17 -13 -5 6 10 6
14 -6 -15 -11 -3 7 11 6
14 -6 -14 -9 -2 8 11 6
14 -5 -13 -7 1 8 12 6
14 -4 -12 -5 2 9 13 7
14 -4 -10 -3 4 10 13 7
13 -4 -8 -2 5 12 14 8
12 -4 -7 0 6 13 14 8
12 -4 -5 2 8 14 14 8
11 -3 -4 3 9 15 15 9
10 -3 -2 5 11 15 15 9
9 -3 0 6 12 15 15 9
8 -3 1 8 13 16 15 9
7 -3 3 10 15 16 15 9
6 -2 4 11 16 17 14 8
6 -2 5 11 16 17 14 8
6 -2 5 12 17 17 14 8
6 -2 6 13 18 18 14 7
6 -2 7 13 18 18 14 7
6 0 8 14 19 19 13 6
5 0 8 14 19 19 13 6
5 0 8 14 19 19 13 6
4 0 9 15 19 19 13 6
3 0 9 15 19 19 13 6
2 1 10 16 19 18 13 5
1 1 10 16 19 18 12 4
1 1 10 16 19 18 12 4
0 0 10 16 19 17 11 3
-2 0 10 16 19 17 10 2
-3 -2 10 15 19 16 9 1
-3 -2 10 15 19 16 9 1
-3 -2 10 15 18 16 8 1
-2 -2 10 15 17 15 7 1
-2 -2 10 15 17 15 7 1
0 -2 11 15 16 14 6 0
0 -2 11 15 16 14 6 0
0 -2 11 15 16 14 6 0
-2 -2 11 15 17 14 6 0
-2 -2 11 15 17 14 6 0
-3 -2 12 16 18 15 7 0
-3 -2 12 16 18 15 7 0
-3 -2 12 16 18 15 7 0
-3 0 12 16 18 15 7 0
-3 0 12 16 18 15 7 0
-3 1 11 15 17 16 8 1
-4 1 11 15 18 16 8 1
-5 1 11 16 18 16 8 1
-6 1 12 17 19 17 8 1
-7 1 12 17 20 17 8 1
-8 1 13 18 21 18 8 1
-7 1 13 18 21 18 8 1
-6 1 13 18 20 18 8 1
-5 1 13 18 19 17 8 1
-4 1 13 18 19 17 8 1
-3 2 12 17 18 16 8 1
-2 2 12 17 18 16 8 1
-2 2 12 17 18 16 8 1
0 3 12 17 18 16 8 2
1 3 12 17 18 16 8 2
2 4 11 16 18 16 9 3
1 4 11 16 18 16 9 3
0 4 11 16 18 16 9 3
-3 4 11 16 18 17 9 3
-4 4 11 16 18 17 9 3
-5 4 11 16 19 18 10 4
-4 4 11 16 19 18 10 4
-4 4 11 16 19 18 10 4
-3 4 11 16 19 17 9 3
-2 4 11 16 19 17 9 3
0 5 10 16 18 16 8 2
0 5 10 16 18 16 8 2
0 5 10 16 18 16 8 2
-2 5 10 16 18 16 8 2
-2 5 10 16 18 16 8 2
-3 4 10 15 17 16 7 3
-2 4 10 15 17 16 7 3
-2 4 10 15 16 16 7 3
0 4 9 14 15 15 7 3
1 4 9 14 15 15 7 3
2 3 8 13 14 14 7 2
1 3 8 13 14 14 7 2
0 3 8 13 14 14 7 2
-2 3 8 13 14 14 7 2
-3 3 8 13 14 14 7 2
-4 2 9 13 15 14 8 2
-4 2 9 13 15 14 7 1
-4 2 9 13 14 13 7 1
-4 2 9 13 13 12 6 0
-4 2 9 13 13 12 5 -2
-3 2 9 12 12 11 4 -3
-3 2 9 11 12 11 4 -3
-3 2 8 11 11 11 4 -3
-2 2 7 10 10 10 4 -3
-2 2 7 9 10 10 4 -3
0 1 6 8 9 9 3 -4
0 1 6 8 9 9 3 -4
0 1 6 8 9 9 2 -4
0 1 6 8 9 8 1 -5
0 1 6 8 9 8 1 -5
-2 0 5 8 8 7 0 -6
-2 0 5 8 8 7 0 -6
-2 0 5 8 8 7 0 -6
-2 0 5 7 7 7 0 -6
-2 0 5 7 7 7 0 -6
0 -2 5 6 6 6 0 -5
0 -2 5 6 6 6 0 -5
-2 -2 5 6 6 6 0 -5
-3 -2 5 6 6 6 0 -5
-3 -2 5 6 6 6 0 -5
-4 -2 5 7 7 7 1 -5
-4 -2 5 7 7 6 0 -5
-4 -2 5 7 6 6 0 -6
-3 -2 5 6 5 5 -2 -7
-3 -2 5 6 5 4 -3 -7
-2 -3 4 5 4 3 -4 -8
-2 -3 4 5 4 3 -4 -8
-2 -3 4 5 4 3 -4 -8
0 -3 4 5 4 3 -4 -9
0 -3 4 5 4 3 -4 -9
1 -3 4 4 3 2 -5 -10
0 -3 4 4 3 2 -4 -10
-3 -3 4 4 3 3 -4 -9
-4 -3 4 4 3 4 -3 -8
-6 -3 4 4 3 4 -2 -8
-7 -2 4 5 4 5 0 -7
-6 -2 4 5 4 5 -2 -7
-6 -2 4 4 4 4 -2 -8
-5 -2 4 3 3 3 -3 -9
-4 -2 4 3 3 3 -4 -9
-3 -3 4 2 2 2 -5 -10
-3 -3 4 2 2 2 -5 -10
-3 -3 4 2 2 2 -5 -10
-3 -3 4 3 2 2 -5 -9
-3 -3 4 3 2 2 -5 -9
-4 -3 4 4 2 1 -4 -8
-3 -3 4 3 2 1 -4 -8
-2 -3 3 3 2 1 -5 -9
0 -3 2 2 1 0 -6 -10
1 -3 2 1 1 0 -6 -10
2 -4 1 0 0 -2 -7 -11
1 -4 1 0 0 -2 -7 -11
0 -4 1 0 0 -2 -7 -11
-3 -4 2 1 0 0 -6 -10
-4 -4 2 1 0 0 -6 -10
-5 -4 3 2 0 1 -5 -9
-5 -4 3 2 0 1 -5 -9
-4 -4 3 2 0 1 -5 -9
-3 -4 3 2 0 1 -5 -9
-3 -4 3 2 0 1 -5 -9
-2 -4 4 2 0 0 -6 -10
-2 -4 4 2 0 0 -6 -10
-2 -4 4 2 0 0 -6 -10
-3 -4 4 2 0 0 -6 -10
-3 -4 4 2 0 0 -6 -10
-4 -4 3 1 -2 0 -6 -10
-4 -4 3 1 -2 0 -6 -10
-4 -4 3 1 -2 0 -6 -10
-4 -5 3 1 -2 0 -6 -10
-4 -5 3 1 -2 0 -6 -10
-5 -6 3 0 -2 -2 -7 -10
-5 -6 3 0 -2 -2 -7 -10
-5 -6 3 0 -2 -2 -7 -10
-4 -5 3 0 -2 -2 -7 -10
-4 -5 3 0 -2 -2 -7 -10
-3 -4 2 0 -3 -2 -7 -10
-3 -4 2 0 -3 -2 -7 -10
-3 -4 2 0 -3 -2 -7 -10
-4 -4 2 0 -3 -2 -7 -10
-4 -4 2 0 -3 -2 -7 -10
-5 -4 3 1 -3 0 -6 -9
-5 -4 3 1 -3 0 -6 -9
-5 -4 3 1 -3 -2 -6 -10
-4 -4 2 0 -4 -3 -7 -11
-4 -4 2 0 -4 -3 -7 -11
-3 -5 1 -2 -5 -4 -8 -12
-3 -5 1 -2 -5 -4 -8 -12
-3 -5 1 -2 -5 -4 -8 -12
-3 -5 1 -2 -5 -4 -8 -12
-3 -5 1 -2 -5 -4 -8 -12
-3 -4 2 -2 -4 -4 -8 -12
-3 -4 2 -2 -4 -4 -8 -12
-3 -4 2 -2 -4 -4 -8 -12
-4 -4 2 -2 -4 -4 -8 -12
-4 -4 2 -2 -4 -4 -8 -12
-5 -4 1 -2 -5 -3 -7 -11
-5 -4 1 -2 -5 -3 -7 -11
-4 -4 1 -2 -5 -3 -7 -11
-3 -4 1 -2 -5 -3 -7 -12
-3 -4 1 -2 -5 -3 -7 -12
-2 -5 2 -2 -5 -4 -8 -13
-2 -4 2 -2 -5 -4 -8 -12
-2 -3 3 0 -4 -4 -7 -11
-2 0 4 1 -3 -4 -6 -10
-2 1 4 1 -3 -4 -6 -9
-3 2 5 2 -2 -3 -5 -8
-3 3 6 3 0 -3 -5 -8
-3 4 7 4 0 -2 -5 -8
-3 5 9 5 1 0 -5 -8
-3 6 10 6 2 0 -5 -8
-2 7 11 7 3 1 -4 -7
-2 8 11 7 3 1 -4 -7
-2 8 11 7 3 1 -4 -7
0 9 11 7 3 1 -4 -7
0 10 11 7 3 1 -4 -7
1 11 11 7 2 1 -4 -7
1 11 11 7 3 2 -3 -6
1 12 11 7 3 3 -2 -5
2 13 11 7 4 4 1 -4
2 13 11 7 5 5 2 -3
3 14 10 8 6 6 3 -2
4 14 10 8 6 6 3 -2
5 14 9 8 6 6 3 -2
6 13 8 8 5 6 3 -2
7 13 8 8 5 6 3 -2
8 12 7 7 4 5 3 -2
8 11 6 7 4 5 3 -2
8 11 5 6 4 5 3 -2
7 10 4 6 4 5 3 -2
7 9 3 5 4 5 3 -2
6 8 2 4 3 4 2 -3
6 7 2 3 2 3 1 -4
6 6 2 2 1 2 0 -4
6 5 1 1 0 1 -2 -5
6 3 1 0 -2 -2 -4 -6
7 2 0 -2 -3 -3 -5 -7
5 1 0 -2 -3 -3 -5 -8
2 -2 0 -2 -3 -3 -5 -9
0 -3 0 -2 -3 -4 -6 -10
-3 -5 0 -2 -3 -4 -6 -11
-5 -6 1 -2 -4 -5 -7 -12
-5 -6 1 -3 -5 -6 -8 -12
-5 -6 0 -4 -6 -7 -9 -12
-5 -6 0 -5 -7 -8 -10 -13
-5 -6 -2 -6 -8 -9 -11 -13
-6 -7 -3 -7 -9 -10 -12 -14
-6 -7 -3 -7 -9 -10 -12 -14
-6 -7 -3 -7 -9 -10 -12 -14
-6 -7 -3 -7 -9 -10 -12 -14
-6 -7 -3 -7 -9 -10 -12 -14
-7 -8 -3 -7 -9 -10 -11 -14
-7 -8 -3 -7 -9 -10 -11 -14
-7 -8 -3 -7 -9 -10 -11 -14
-7 -8 -3 -7 -9 -10 -11 -14
-7 -8 -3 -7 -9 -10 -11 -14
-8 -8 -4 -7 -9 -11 -11 -15
-8 -8 -4 -7 -9 -11 -11 -15
-8 -8 -4 -7 -9 -11 -11 -15
-7 -8 -4 -7 -9 -11 -11 -15
-7 -8 -4 -7 -9 -11 -11 -15
-6 -9 -4 -7 -9 -10 -12 -15
-6 -9 -4 -7 -9 -10 -12 -15
-6 -9 -4 -7 -9 -10 -12 -15
-5 -9 -4 -7 -9 -10 -12 -15
-5 -9 -4 -7 -9 -10 -12 -15
-4 -9 -5 -8 -9 -11 -12 -14
-4 -9 -5 -8 -9 -11 -12 -14
-4 -9 -5 -7 -9 -11 -12 -15
-4 -10 -4 -7 -9 -11 -12 -15
-4 -10 -4 -6 -9 -11 -12 -16
-5 -11 -2 -4 -7 -10 -13 -17
-4 -14 2 3 -4 -10 -13 -19
-3 -16 6 8 1 -9 -13 -21
-2 -19 9 13 4 -9 -14 -22
0 -22 13 19 8 -8 -14 -24
1 -22 18 27 15 -4 -13 -24
4 -13 28 42 28 7 -5 -18
7 -5 38 57 43 17 4 -11
10 5 49 71 56 27 12 -4
13 13 59 86 70 37 20 4
17 26 66 97 84 52 33 16
25 51 66 101 96 75 61 44
34 75 66 104 108 100 89 70
43 99 66 108 121 123 116 98
52 123 66 111 134 147 144 126
57 146 59 104 138 165 169 151
52 167 31 67 118 171 185 173
46 188 3 30 98 177 201 193
40 209 -25 -7 78 182 217 215
34 229 -53 -45 58 188 233 236
28 235 -77 -77 34 180 232 240
20 199 -92 -102 -2 134 183 197
11 163 -106 -126 -37 87 134 153
3 128 -120 -150 -73 40 84 110
-6 92 -135 -175 -108 -6 34 66
-13 61 -144 -189 -134 -41 -5 30
-15 45 -133 -176 -130 -49 -16 16
-17 28 -122 -162 -124 -57 -27 1
-19 11 -112 -150 -119 -64 -38 -14
-21 -6 -102 -137 -115 -72 -50 -29
-23 -18 -91 -122 -108 -76 -57 -40
-21 -18 -79 -107 -95 -67 -51 -37
-19 -18 -67 -91 -81 -58 -46 -34
-17 -18 -56 -74 -69 -49 -39 -31
-15 -18 -44 -59 -56 -39 -34 -29
-13 -17 -33 -46 -45 -32 -29 -26
-13 -17 -29 -40 -39 -30 -28 -26
-13 -17 -25 -34 -35 -28 -26 -26
-12 -17 -20 -29 -30 -25 -25 -25
-12 -17 -16 -23 -25 -23 -24 -25
-11 -16 -12 -19 -21 -21 -22 -24
-11 -16 -12 -18 -21 -21 -22 -24
-11 -16 -12 -18 -21 -21 -22 -24
-11 -16 -12 -17 -21 -21 -21 -24
-11 -16 -12 -16 -21 -21 -21 -24
-12 -16 -11 -15 -20 -20 -20 -23
-12 -16 -10 -14 -19 -20 -20 -23
-12 -16 -10 -14 -18 -20 -20 -23
-11 -17 -9 -13 -17 -20 -21 -23
-11 -17 -8 -12 -16 -20 -21 -23
-10 -18 -7 -11 -15 -19 -22 -24
-10 -18 -7 -11 -15 -19 -22 -24
-10 -18 -7 -11 -15 -19 -22 -24
-10 -18 -7 -11 -15 -18 -21 -24
-10 -18 -7 -11 -15 -18 -21 -24
-11 -17 -6 -10 -15 -17 -20 -23
-11 -17 -6 -10 -15 -17 -20 -23
-10 -17 -6 -10 -14 -17 -20 -23
-10 -17 -6 -9 -14 -17 -20 -23
-9 -17 -6 -9 -13 -17 -20 -23
-8 -17 -5 -8 -12 -16 -20 -24
-8 -17 -5 -8 -12 -16 -20 -24
-8 -16 -5 -8 -12 -16 -20 -24
-8 -16 -5 -8 -13 -16 -19 -24
-8 -15 -5 -8 -13 -16 -19 -24
-9 -14 -5 -7 -14 -16 -18 -23
-9 -14 -5 -7 -13 -16 -18 -23
-9 -14 -4 -6 -12 -16 -18 -22
-9 -14 -4 -6 -11 -15 -18 -21
-9 -14 -3 -5 -10 -15 -18 -20
-9 -15 -2 -4 -9 -14 -19 -19
-9 -15 -2 -4 -9 -14 -19 -19
-9 -15 -2 -5 -10 -14 -18 -19
-9 -15 -3 -5 -10 -14 -18 -19
-9 -15 -3 -6 -11 -14 -17 -19
-8 -14 -4 -7 -12 -14 -16 -19
-8 -14 -4 -7 -12 -14 -16 -19
-8 -14 -4 -6 -12 -14 -16 -19
-8 -14 -3 -6 -11 -14 -16 -19
-8 -14 -3 -5 -11 -14 -16 -19
-7 -15 -2 -4 -10 -14 -17 -20
-7 -15 -2 -4 -10 -14 -17 -20
-7 -15 -2 -4 -10 -14 -17 -20
-8 -15 -2 -4 -10 -14 -17 -19
-8 -15 -2 -4 -10 -14 -17 -19
-9 -14 -3 -5 -10 -13 -16 -18
-8 -14 -3 -5 -10 -13 -16 -18
-7 -14 -3 -5 -10 -13 -16 -18
-6 -14 -3 -5 -10 -13 -16 -18
-5 -14 -3 -5 -10 -13 -16 -18
-4 -15 -2 -4 -9 -12 -15 -19
-4 -15 -2 -4 -9 -12 -15 -19
-4 -15 -2 -4 -9 -12 -15 -19
-5 -14 -3 -4 -9 -12 -15 -18
-5 -14 -3 -4 -9 -12 -15 -18
-6 -13 -4 -4 -10 -12 -14 -17
-6 -13 -4 -4 -10 -12 -14 -17
-6 -13 -4 -4 -9 -12 -14 -17
-6 -13 -4 -4 -9 -12 -14 -17
-6 -13 -4 -4 -8 -12 -14 -17
-6 -14 -3 -4 -7 -12 -14 -18
-6 -14 -3 -4 -7 -12 -14 -18
-6 -13 -3 -4 -7 -12 -14 -18
-6 -13 -3 -4 -8 -11 -14 -17
-6 -12 -3 -4 -8 -11 -14 -17
-7 -11 -4 -3 -9 -10 -13 -16
-6 -11 -4 -3 -9 -10 -13 -16
-5 -11 -4 -3 -9 -10 -13 -16
-4 -12 -4 -3 -9 -10 -13 -16
-3 -12 -4 -3 -9 -10 -13 -16
-2 -13 -5 -4 -9 -10 -13 -17
-2 -13 -5 -4 -9 -10 -13 -17
-2 -13 -5 -4 -9 -10 -12 -16
-3 -12 -5 -4 -9 -9 -12 -16
-3 -12 -5 -4 -9 -9 -11 -15
-4 -11 -6 -5 -9 -8 -10 -14
-3 -11 -6 -5 -9 -8 -10 -14
-2 -11 -7 -5 -9 -8 -10 -14
0 -11 -7 -5 -9 -8 -10 -14
2 -11 -8 -5 -9 -8 -10 -14
3 -11 -9 -6 -10 -9 -10 -14
2 -11 -9 -6 -10 -9 -10 -14
1 -11 -9 -6 -10 -8 -9 -13
0 -10 -9 -6 -10 -8 -9 -13
-2 -10 -9 -6 -10 -7 -8 -12
-3 -9 -10 -7 -10 -6 -7 -11
0 -9 -10 -7 -10 -6 -7 -11
1 -9 -11 -8 -10 -6 -7 -11
3 -9 -11 -8 -11 -6 -8 -11
5 -9 -12 -9 -11 -6 -8 -11
7 -8 -13 -10 -12 -7 -9 -11
7 -8 -14 -10 -12 -7 -8 -11
7 -7 -15 -11 -13 -7 -7 -10
7 -7 -16 -11 -13 -7 -6 -9
7 -6 -17 -12 -14 -7 -5 -8
7 -5 -18 -13 -15 -7 -4 -7
7 -5 -18 -13 -15 -7 -4 -7
8 -5 -18 -13 -15 -7 -4 -7
8 -5 -19 -14 -15 -7 -4 -7
9 -5 -19 -14 -15 -7 -4 -7
10 -5 -20 -15 -16 -6 -4 -7
10 -5 -20 -15 -16 -6 -4 -7
10 -4 -20 -16 -17 -6 -4 -6
10 -4 -21 -16 -17 -6 -3 -6
10 -3 -21 -17 -18 -6 -3 -5
11 -2 -22 -18 -19 -5 -2 -4
11 -2 -22 -18 -19 -5 -2 -4
11 -2 -22 -18 -19 -5 -2 -4
12 -2 -22 -18 -19 -5 0 -3
12 -2 -22 -18 -19 -5 0 -3
13 -3 -23 -19 -19 -5 1 -2
13 -3 -23 -19 -19 -5 1 -2
13 -2 -23 -19 -19 -5 1 0
13 -2 -23 -19 -19 -4 2 0
13 0 -23 -19 -19 -4 2 1
14 1 -24 -20 -20 -3 3 2
14 1 -24 -20 -20 -3 3 2
14 1 -23 -20 -20 -3 3 2
14 1 -23 -19 -19 -3 3 2
14 1 -22 -19 -19 -3 3 2
14 2 -21 -18 -18 -4 2 2
14 2 -21 -18 -18 -4 2 2
14 3 -20 -17 -18 -3 3 3
14 3 -20 -17 -18 -3 3 3
14 4 -19 -16 -18 -2 4 4
15 5 -18 -15 -18 0 5 5
15 5 -18 -14 -17 0 5 5
16 5 -17 -12 -15 0 5 5
16 5 -16 -11 -14 1 5 5
17 5 -15 -10 -13 1 5 5
18 5 -14 -8 -11 2 6 4
17 5 -13 -7 -10 3 6 4
16 5 -11 -5 -8 5 7 5
15 6 -9 -3 -7 6 8 5
14 6 -8 -2 -6 7 9 6
13 7 -6 1 -4 9 10 7
13 7 -5 3 -2 9 10 7
12 7 -3 6 1 10 10 7
12 7 0 8 3 11 10 7
11 7 1 10 5 12 10 7
10 7 3 13 7 13 11 7
10 7 3 13 7 13 11 7
9 7 4 14 7 14 12 7
8 8 5 15 8 14 12 7
7 8 6 16 8 15 13 7
6 9 7 17 9 16 14 8
6 9 7 17 9 16 14 8
6 8 8 18 10 16 13 7
6 8 8 18 11 16 12 6
6 7 9 19 12 16 11 5
6 6 10 20 13 15 10 4
6 6 10 20 13 15 10 4
5 6 10 20 13 15 10 4
5 6 10 20 13 15 10 4
4 6 10 20 13 15 10 4
3 6 11 21 12 15 11 3
3 6 11 21 12 15 11 2
2 5 11 21 12 15 10 1
1 5 11 21 12 14 10 0
0 4 11 21 12 14 9 -2
-2 3 12 21 11 13 8 -3
-2 3 12 21 11 13 8 -3
-2 3 12 21 11 13 7 -3
0 3 11 20 11 12 6 -3
0 3 11 20 11 12 5 -3
1 4 10 19 11 11 4 -4
1 4 10 19 11 11 4 -4
1 4 10 19 11 11 4 -5
1 3 10 19 11 10 4 -5
1 3 10 19 11 10 4 -6
2 2 10 18 10 9 3 -7
1 2 10 18 10 9 3 -6
-2 2 10 18 10 9 4 -4
-4 3 11 19 10 9 4 -2
-5 3 11 19 10 9 5 0
-7 4 12 20 11 10 6 2
-7 4 12 20 11 10 6 2
-7 4 12 20 11 10 6 2
-7 4 12 21 11 10 6 2
-7 4 12 21 11 10 6 2
-6 4 13 22 12 11 5 2
-6 4 13 22 12 11 5 2
-6 4 13 22 12 11 5 2
-6 5 13 22 12 11 5 2
-6 5 13 22 12 11 5 2
-5 6 12 21 12 11 6 1
-5 6 12 21 12 11 6 1
-6 6 12 21 12 11 6 2
-6 6 13 22 13 11 6 2
-7 6 13 22 13 11 6 3
-8 5 14 23 14 12 7 4
-8 5 14 23 14 12 7 4
-7 5 13 23 14 12 7 4
-7 5 13 22 14 12 7 4
-6 5 12 22 14 12 7 4
-5 6 11 21 13 12 7 4
-5 6 11 21 13 12 7 4
-5 6 11 21 13 12 7 4
-5 6 12 21 13 12 7 4
-5 6 12 21 13 12 7 4
-4 6 13 22 13 12 7 3
-4 6 13 22 13 12 7 3
-4 6 13 22 13 12 7 3
-4 6 13 22 13 12 7 3
-4 6 13 22 13 12 7 3
-4 7 12 22 13 11 8 4
-4 7 12 22 13 11 8 4
-5 7 12 22 13 11 8 4
-5 6 12 22 13 11 8 4
-6 6 12 22 13 11 8 4
-7 5 13 23 13 12 7 4
-7 5 13 23 13 12 7 4
-6 5 13 22 13 11 7 4
-6 5 13 21 12 11 6 4
-5 5 13 20 12 10 6 4
-4 4 12 19 11 9 5 3
-4 4 12 19 11 9 5 3
-3 4 12 19 11 8 4 2
-3 4 12 19 10 8 4 2
-2 4 12 19 10 7 3 1
0 3 11 19 9 6 2 0
0 3 11 19 9 6 2 0
-2 3 11 19 8 6 2 0
-3 3 10 18 8 6 2 -2
-4 3 10 18 7 6 2 -2
-5 3 9 17 6 5 2 -3
-5 3 9 17 6 5 2 -3
-5 3 9 17 6 5 2 -3
-4 2 9 16 5 4 1 -4
-4 2 9 16 5 4 1 -4
-3 1 8 15 4 3 0 -5
-3 1 8 15 4 3 0 -5
-3 1 8 15 3 3 0 -5
-3 1 8 14 3 2 -2 -5
-3 1 8 14 2 2 -2 -5
-3 1 7 13 1 1 -3 -5
-3 1 7 13 1 1 -3 -5
-3 1 7 13 1 1 -3 -5
-3 1 7 13 1 1 -3 -5
-3 1 7 13 1 1 -3 -5
-4 0 7 13 2 1 -3 -5
-4 0 7 13 2 1 -3 -5
-5 0 7 13 2 1 -3 -5
-5 0 6 13 2 0 -3 -5
-6 0 6 13 2 0 -3 -5
-7 -2 5 12 1 -2 -4 -4
-7 -2 5 12 1 -2 -4 -4
-7 -2 6 12 1 -2 -4 -4
-8 -2 6 12 1 -2 -4 -4
-8 -2 7 12 1 -2 -4 -4
-9 -3 8 12 2 0 -4 -5
-9 -3 8 12 2 0 -4 -5
-8 -3 8 11 1 0 -4 -5
-8 -3 8 11 1 0 -4 -6
-7 -3 8 10 0 0 -4 -6
-6 -3 7 9 -2 -2 -5 -7
-6 -3 7 9 -2 -2 -5 -7
-6 -3 7 9 -2 -2 -5 -7
-6 -3 7 10 0 -2 -5 -7
-6 -3 7 10 0 -2 -5 -7
-7 -4 7 11 1 -2 -4 -7
-7 -4 7 11 1 -2 -4 -7
-7 -4 6 10 0 -3 -4 -7
-7 -4 6 9 0 -4 -5 -6
-7 -4 5 8 -2 -5 -5 -6
-6 -3 4 7 -3 -6 -6 -5
-6 -3 4 7 -3 -6 -6 -5
-6 -3 4 7 -3 -6 -6 -6
-5 -3 4 7 -3 -6 -6 -7
-5 -3 4 7 -3 -6 -6 -8
-4 -4 5 8 -3 -6 -7 -9
-4 -4 5 8 -3 -6 -7 -9
-4 -4 5 8 -3 -6 -7 -9
-4 -4 5 7 -3 -6 -7 -9
-4 -4 5 7 -3 -6 -7 -9
-3 -4 4 6 -3 -7 -8 -9
-3 -4 4 6 -3 -7 -8 -9
-4 -4 4 6 -3 -7 -8 -9
-5 -4 4 6 -3 -7 -8 -9
-6 -4 4 6 -3 -7 -8 -9
-7 -5 5 7 -3 -6 -7 -9
-7 -5 5 7 -3 -6 -7 -9
-7 -5 5 7 -3 -6 -7 -9
-8 -5 5 7 -3 -6 -6 -9
-8 -5 5 7 -3 -6 -6 -9
-9 -4 5 7 -3 -7 -5 -10
-9 -4 5 7 -3 -7 -5 -10
-9 -4 5 7 -3 -7 -5 -10
-9 -5 5 7 -3 -7 -5 -9
-9 -5 5 7 -3 -7 -5 -9
-8 -6 4 7 -3 -6 -5 -8
-8 -6 4 7 -3 -6 -5 -8
-8 -6 4 7 -3 -6 -5 -8
-8 -6 4 6 -3 -6 -6 -8
-8 -6 4 6 -3 -6 -6 -8
-7 -6 4 5 -4 -6 -7 -9
-7 -6 4 5 -4 -6 -7 -9
-6 -6 4 5 -4 -6 -7 -9
-6 -6 4 5 -4 -7 -8 -10
-5 -6 4 5 -4 -7 -8 -10
-4 -7 4 4 -5 -8 -9 -11
-4 -7 4 4 -5 -8 -9 -11
-4 -7 4 4 -5 -8 -9 -11
-5 -7 4 4 -5 -8 -9 -11
-5 -7 4 4 -5 -8 -9 -11
-6 -6 4 5 -5 -8 -9 -11
-6 -6 4 5 -5 -8 -9 -11
-6 -6 4 5 -5 -8 -9 -11
-6 -6 4 5 -5 -8 -9 -11
-6 -6 4 5 -5 -8 -9 -11
-5 -7 4 5 -5 -8 -8 -12
-5 -7 4 5 -5 -8 -8 -12
-6 -7 4 5 -5 -8 -8 -12
-6 -7 4 4 -5 -8 -8 -11
-7 -7 4 4 -5 -8 -8 -11
-8 -7 5 3 -4 -7 -7 -10
-8 -7 5 3 -4 -7 -7 -10
-7 -7 5 3 -4 -7 -7 -10
-7 -7 5 3 -4 -7 -7 -11
-6 -7 5 3 -4 -7 -7 -11
-5 -8 4 4 -5 -8 -8 -12
-5 -8 4 4 -5 -8 -8 -12
-5 -8 4 4 -5 -8 -8 -12
-5 -7 4 4 -5 -9 -9 -12
-5 -7 4 4 -5 -9 -9 -12
-6 -6 5 5 -5 -10 -10 -13
-6 -6 5 5 -5 -10 -10 -13
-7 -6 5 5 -5 -9 -10 -13
-8 -6 5 5 -4 -9 -9 -13
-9 -6 5 5 -4 -8 -9 -13
-10 -7 4 5 -3 -7 -8 -13
-10 -7 4 5 -3 -7 -8 -13
-9 -7 3 4 -3 -7 -8 -13
-9 -7 3 4 -4 -7 -8 -13
-8 -7 2 3 -4 -7 -8 -13
-8 -7 2 3 -4 -7 -8 -13
-7 -7 1 2 -5 -7 -8 -13
-6 -7 1 2 -5 -7 -8 -13
-5 -7 1 2 -5 -8 -8 -13
-4 -7 1 2 -5 -8 -8 -13
-4 -7 1 2 -5 -8 -8 -13
-3 -7 0 2 -6 -9 -9 -14
-4 -7 0 2 -5 -9 -9 -14
-5 -7 0 2 -5 -8 -8 -14
-6 -7 0 2 -4 -8 -8 -14
-6 -7 0 2 -4 -8 -8 -14
-7 -6 1 3 -3 -7 -7 -13
-7 -6 1 3 -3 -7 -7 -13
-6 -6 1 3 -3 -8 -8 -14
-6 -6 1 3 -3 -8 -8 -14
-6 -6 1 3 -3 -8 -8 -14
-5 -7 1 2 -4 -9 -9 -15
-5 -6 1 2 -4 -9 -9 -15
-5 -6 0 1 -5 -9 -9 -15
-5 -5 0 1 -5 -9 -9 -15
-5 -5 0 1 -5 -9 -9 -15
-6 -4 -2 0 -6 -9 -9 -15
-6 -4 -2 0 -5 -9 -9 -15
-6 -4 0 1 -5 -9 -9 -15
-6 -4 0 1 -4 -9 -9 -15
-6 -4 0 1 -4 -9 -9 -15
-6 -5 1 2 -3 -9 -9 -15
-6 -5 1 2 -3 -9 -9 -15
-6 -5 1 2 -4 -9 -9 -15
-6 -5 1 2 -4 -9 -9 -15
-6 -5 1 2 -4 -9 -9 -15
-6 -5 0 1 -5 -9 -9 -15
-6 -5 0 1 -5 -9 -9 -15
-6 -5 0 1 -5 -9 -9 -15
-6 -5 0 1 -5 -9 -9 -15
-6 -5 0 1 -5 -9 -9 -15
-5 -6 1 1 -4 -9 -8 -14
-5 -5 1 1 -3 -9 -8 -14
-5 -4 2 1 -3 -8 -8 -13
-5 -3 2 1 -2 -8 -8 -13
-5 -3 2 1 -2 -8 -8 -13
-4 -2 3 2 0 -7 -8 -11
-3 0 4 3 0 -6 -7 -9
-2 1 5 4 1 -5 -6 -8
0 2 6 5 1 -4 -5 -6
0 3 7 5 1 -3 -5 -5
1 4 8 6 2 -2 -4 -4
1 5 9 6 3 -2 -4 -4
0 5 9 6 3 -2 -4 -4
0 6 10 6 4 -2 -4 -4
0 6 10 6 4 -2 -4 -4
-2 7 11 7 5 0 -3 -3
0 8 11 8 6 1 -2 -2
0 9 11 9 7 2 0 0
1 10 11 10 8 3 1 1
1 11 11 11 8 4 1 2
2 12 12 12 9 5 2 3
3 12 11 12 9 5 2 3
4 12 10 11 8 5 2 3
5 12 9 11 8 5 2 3
5 12 8 11 8 5 2 3
6 11 7 10 7 5 3 3
6 10 6 9 7 5 3 2
6 9 6 9 7 5 3 2
6 8 5 8 7 5 3 1
6 7 5 8 7 5 3 1
7 6 4 7 6 5 2 0
7 5 3 7 5 4 1 0
6 4 3 6 4 3 1 -2
6 3 2 6 3 2 0 -2
6 3 2 6 3 2 0 -2
5 1 1 5 2 1 -2 -3
4 0 1 5 2 1 -3 -4
3 -2 2 5 2 0 -3 -5
2 -3 2 5 2 0 -4 -6
2 -4 2 5 2 0 -4 -6
1 -5 3 4 1 -3 -6 -8
0 -6 3 3 0 -4 -7 -9
-2 -7 2 1 -2 -6 -8 -10
-3 -8 2 0 -3 -7 -9 -11
-4 -9 2 -2 -4 -8 -10 -12
-5 -10 1 -3 -5 -9 -11 -13
-4 -10 1 -3 -5 -9 -11 -13
-4 -10 0 -3 -5 -9 -11 -14
-3 -10 0 -3 -5 -9 -11 -14
-3 -10 0 -3 -5 -9 -11 -14
-3 -11 -2 -4 -6 -10 -12 -15
-4 -11 -2 -4 -6 -10 -11 -14
-5 -11 -2 -4 -6 -10 -11 -14
-6 -11 -2 -4 -6 -10 -10 -13
-7 -11 -2 -4 -6 -10 -10 -13
-8 -11 0 -4 -5 -9 -9 -12
-8 -11 0 -4 -5 -9 -9 -12
-8 -12 0 -4 -5 -9 -9 -12
-8 -12 0 -4 -5 -9 -9 -12
-8 -12 0 -4 -5 -9 -9 -12
-8 -13 -2 -4 -6 -9 -10 -12
-8 -13 -2 -4 -6 -9 -10 -12
-7 -12 -3 -4 -6 -9 -11 -12
-7 -12 -3 -4 -6 -9 -11 -12
-7 -12 -3 -4 -6 -9 -11 -12
-6 -11 -4 -5 -7 -10 -12 -12
-6 -11 -4 -5 -7 -10 -12 -12
-6 -11 -4 -5 -6 -10 -12 -12
-6 -11 -4 -5 -6 -10 -12 -12
-6 -11 -4 -5 -6 -10 -12 -12
-6 -13 -3 -4 -5 -9 -11 -12
-5 -15 -3 -3 -5 -9 -12 -13
-4 -16 -2 -2 -5 -10 -13 -15
-3 -18 -2 0 -5 -10 -14 -16
-3 -19 -2 0 -5 -10 -14 -17
0 -20 7 10 3 -8 -15 -18
2 -19 15 21 12 -5 -14 -18
4 -19 23 31 20 0 -13 -19
6 -18 31 43 28 4 -12 -19
7 -18 39 54 37 7 -11 -19
14 -2 49 68 54 24 8 -5
21 16 58 85 72 44 27 13
28 33 67 100 90 63 47 30
35 51 76 116 107 81 66 48
43 68 87 132 126 101 86 65
46 94 70 111 120 115 108 92
49 121 50 86 113 130 132 119
52 148 30 60 105 144 155 147
55 175 10 34 97 157 178 176
58 202 -11 9 89 172 201 203
55 202 -31 -18 67 163 197 202
50 198 -53 -46 43 152 188 198
46 193 -74 -72 19 141 180 193
40 189 -96 -99 -5 130 171 189
35 185 -117 -127 -28 118 161 184
25 153 -120 -135 -49 81 122 147
15 117 -120 -140 -68 43 80 106
5 81 -119 -146 -88 4 38 65
-6 47 -119 -152 -107 -35 -5 25
-16 11 -119 -158 -127 -74 -47 -16
-17 3 -107 -144 -118 -73 -50 -22
-14 -3 -94 -126 -104 -67 -48 -24
-12 -7 -81 -108 -91 -60 -45 -26
-10 -12 -68 -90 -76 -53 -41 -28
-8 -17 -55 -71 -63 -46 -39 -30
-7 -17 -46 -61 -54 -40 -35 -29
-7 -16 -37 -51 -46 -34 -31 -26
-7 -15 -29 -40 -36 -29 -27 -23
-7 -14 -21 -30 -28 -24 -23 -21
-7 -13 -12 -20 -19 -18 -19 -18
-7 -12 -11 -18 -18 -17 -18 -17
-8 -12 -11 -17 -17 -17 -18 -18
-8 -12 -11 -17 -17 -17 -18 -18
-9 -12 -11 -16 -16 -17 -18 -19
-9 -12 -11 -16 -16 -17 -18 -19
-10 -13 -10 -14 -15 -18 -18 -20
-10 -13 -9 -13 -15 -18 -18 -20
-10 -13 -8 -12 -14 -18 -18 -20
-10 -13 -7 -11 -14 -18 -18 -20
-10 -13 -6 -10 -14 -18 -18 -20
-10 -14 -5 -9 -13 -19 -19 -21
-9 -14 -5 -9 -13 -19 -19 -21
-8 -14 -5 -9 -12 -18 -19 -21
-7 -14 -5 -9 -12 -18 -19 -21
-7 -14 -5 -9 -12 -18 -19 -21
-6 -13 -5 -9 -11 -17 -19 -21
-6 -13 -4 -8 -11 -17 -19 -21
-6 -13 -4 -7 -10 -17 -19 -21
-6 -13 -3 -6 -10 -17 -19 -21
-6 -13 -3 -6 -10 -17 -19 -21
-6 -13 -2 -5 -9 -16 -18 -21
-6 -13 -2 -5 -9 -16 -18 -21
-6 -13 -2 -5 -8 -15 -18 -21
-6 -13 -2 -5 -8 -15 -18 -21
-6 -13 -2 -5 -8 -15 -18 -21
-6 -13 -2 -5 -7 -14 -17 -20
-6 -13 -2 -5 -7 -14 -17 -20
-6 -13 -2 -5 -7 -15 -17 -19
-6 -13 -2 -5 -7 -15 -17 -19
-6 -13 -2 -5 -7 -15 -17 -19
-6 -12 0 -5 -8 -16 -16 -18
-6 -12 0 -5 -8 -16 -16 -18
-6 -12 0 -5 -7 -15 -15 -17
-6 -12 0 -5 -7 -15 -15 -17
-6 -12 0 -5 -7 -15 -15 -17
-5 -11 0 -4 -6 -14 -14 -16
-5 -11 0 -4 -6 -14 -14 -16
-5 -11 0 -4 -6 -14 -14 -16
-5 -11 0 -4 -6 -14 -14 -16
-5 -11 0 -4 -6 -14 -14 -16
-5 -11 0 -4 -6 -15 -15 -17
-5 -11 0 -4 -6 -15 -15 -17
-5 -11 0 -4 -6 -14 -15 -17
-5 -11 0 -4 -6 -14 -15 -17
-5 -11 0 -4 -6 -14 -15 -17
-5 -10 0 -3 -6 -13 -16 -16
-4 -10 0 -3 -6 -13 -16 -16
-3 -10 0 -3 -6 -14 -16 -17
-2 -10 0 -3 -6 -14 -16 -17
-2 -10 0 -3 -6 -14 -16 -17
0 -10 0 -3 -7 -15 -15 -18
0 -10 0 -3 -7 -15 -15 -18
-2 -10 0 -3 -7 -14 -15 -18
-2 -10 0 -3 -7 -14 -15 -18
-2 -10 0 -3 -7 -14 -15 -18
-3 -10 -2 -3 -6 -13 -15 -17
-3 -10 -2 -3 -6 -13 -15 -17
-3 -10 -2 -3 -6 -13 -14 -17
-3 -10 -2 -3 -6 -13 -14 -17
-3 -10 -2 -3 -6 -13 -14 -17
-4 -9 0 -2 -6 -13 -13 -16
-4 -9 0 -3 -6 -13 -13 -16
-3 -9 -2 -3 -6 -13 -13 -16
-3 -9 -2 -4 -6 -13 -13 -16
-3 -9 -2 -4 -6 -13 -13 -16
-2 -8 -3 -5 -6 -12 -13 -16
-2 -8 -3 -5 -6 -12 -13 -16
0 -8 -3 -5 -6 -12 -13 -16
0 -8 -3 -5 -6 -12 -13 -16
0 -8 -3 -5 -6 -12 -13 -16
1 -7 -4 -6 -7 -13 -14 -16
1 -7 -4 -6 -7 -13 -14 -16
1 -7 -4 -6 -7 -13 -13 -16
1 -7 -4 -6 -7 -13 -13 -16
1 -7 -4 -6 -7 -13 -13 -16
0 -6 -4 -5 -6 -12 -12 -15
0 -6 -4 -5 -6 -12 -12 -15
0 -6 -5 -6 -7 -12 -11 -15
0 -6 -5 -6 -7 -12 -11 -15
0 -6 -5 -6 -7 -12 -11 -15
1 -5 -6 -7 -8 -11 -10 -14
1 -5 -6 -7 -8 -11 -10 -13
2 -4 -6 -7 -8 -11 -10 -13
2 -4 -6 -7 -8 -11 -10 -12
2 -4 -6 -7 -8 -11 -10 -12
3 -3 -7 -8 -7 -10 -10 -11
3 -3 -7 -9 -7 -10 -10 -11
3 -2 -8 -9 -7 -10 -9 -11
3 -2 -8 -10 -7 -10 -9 -11
3 -2 -8 -10 -7 -10 -9 -11
3 0 -9 -11 -8 -11 -8 -11
5 0 -10 -12 -9 -11 -8 -11
6 1 -11 -12 -9 -11 -8 -11
7 1 -12 -13 -10 -11 -8 -11
8 1 -13 -13 -10 -11 -8 -11
9 2 -14 -14 -11 -11 -9 -10
10 2 -14 -15 -12 -11 -9 -10
10 3 -15 -15 -12 -12 -8 -10
11 3 -15 -16 -13 -12 -8 -10
11 3 -15 -16 -13 -12 -8 -10
12 4 -16 -17 -14 -13 -7 -9
12 4 -16 -17 -14 -12 -6 -9
13 4 -17 -17 -14 -12 -6 -8
13 4 -17 -17 -14 -11 -5 -8
13 4 -17 -17 -14 -11 -5 -8
14 5 -18 -18 -15 -10 -4 -7
15 6 -19 -19 -15 -10 -4 -7
16 6 -20 -19 -16 -10 -4 -6
17 7 -21 -20 -16 -10 -4 -6
17 7 -21 -20 -16 -10 -4 -6
18 8 -22 -21 -17 -11 -4 -5
18 8 -22 -21 -17 -11 -3 -4
18 8 -22 -21 -17 -11 -3 -4
18 8 -22 -21 -17 -11 -2 -3
18 8 -22 -21 -17 -11 -2 -3
17 8 -21 -22 -18 -10 0 -2
17 8 -21 -22 -18 -10 0 -2
16 9 -21 -21 -17 -9 0 0
16 9 -21 -21 -17 -9 0 0
16 9 -21 -21 -17 -9 0 0
15 10 -20 -20 -16 -8 1 1
15 11 -19 -20 -16 -8 1 2
15 11 -19 -20 -15 -8 1 2
15 12 -18 -20 -15 -8 1 3
15 12 -18 -20 -15 -8 1 3
16 13 -17 -18 -13 -7 2 4
16 13 -15 -16 -12 -6 3 5
16 13 -14 -14 -10 -6 4 6
16 13 -13 -13 -8 -5 5 7
16 13 -12 -11 -7 -5 5 7
16 14 -11 -9 -6 -4 6 8
16 14 -10 -8 -4 -2 7 8
17 14 -10 -7 -3 0 7 8
17 14 -9 -5 -2 1 8 8
17 14 -9 -4 0 2 8 8
18 15 -7 -2 2 3 9 8
18 15 -6 1 3 4 9 8
18 15 -4 2 4 5 10 8
18 15 -2 4 6 6 10 8
18 15 0 6 7 6 10 8
17 15 1 7 9 7 11 8
17 15 2 9 10 8 11 8
17 15 3 10 11 9 11 8
17 15 4 11 13 10 11 8
17 15 4 12 14 10 11 8
16 15 5 14 15 11 12 7
14 15 6 15 17 11 12 7
13 14 7 17 18 12 12 7
12 14 8 19 19 12 12 7
11 14 9 20 20 12 12 7
10 13 10 21 21 13 12 6
9 13 10 21 21 13 12 6
9 13 10 20 21 13 12 5
8 13 10 20 21 13 12 5
8 13 10 20 21 13 12 5
7 12 10 19 20 12 12 4
7 11 9 18 19 11 10 3
8 10 9 17 18 10 9 2
8 9 8 16 17 9 8 1
8 8 8 16 17 9 7 1
9 7 7 15 16 8 6 0
8 7 8 15 17 8 6 0
7 7 8 15 17 8 7 0
6 7 9 15 18 8 7 0
5 7 9 15 18 8 7 0
4 7 10 15 19 8 8 0
4 7 10 15 19 8 8 0
4 7 9 15 18 8 8 -2
4 7 9 15 18 8 8 -2
4 7 9 15 18 8 8 -2
3 6 8 15 17 8 7 -3
3 6 8 15 17 8 7 -3
2 6 8 15 17 8 7 -3
2 6 8 15 17 8 7 -3
2 6 8 15 17 8 7 -3
1 6 8 15 17 8 7 -3
1 6 8 15 17 8 7 -3
1 6 8 15 17 8 7 -3
1 6 8 15 17 8 7 -3
1 6 8 15 17 8 7 -3
0 7 8 15 17 9 7 -3
0 7 8 15 18 9 7 -3
-2 7 9 15 18 10 7 -3
-2 7 9 15 19 10 7 -3
-2 7 9 15 19 10 7 -3
-3 7 10 16 20 11 7 -2
-3 7 10 16 20 11 7 -2
-2 7 10 16 19 11 7 -2
-2 7 10 16 19 11 7 -2
-2 7 10 16 19 11 7 -2
0 8 9 16 18 10 6 -3
0 8 9 16 18 10 6 -3
0 8 10 16 18 10 6 -3
0 8 10 16 18 10 6 -3
0 8 10 16 18 10 6 -3
-2 7 11 16 18 11 7 -2
-2 7 11 16 18 11 6 -2
-2 7 11 16 18 10 6 -2
-2 7 11 16 18 10 5 -2
-2 7 11 16 18 10 5 -2
0 8 10 17 17 9 4 -2
0 8 10 17 17 9 4 0
-2 8 10 17 17 9 4 0
-2 8 10 17 17 9 4 1
-2 8 10 17 17 9 4 1
-3 7 11 17 17 10 5 2
-3 7 11 17 17 10 5 2
-2 7 10 17 16 10 5 2
-2 7 10 17 16 10 5 2
-2 7 10 17 16 10 5 2
0 6 9 16 15 9 5 2
0 6 9 15 15 9 5 2
0 6 9 15 15 9 5 2
0 6 9 14 15 9 5 2
0 6 9 14 15 9 5 2
-2 5 8 13 14 9 4 1
-3 5 8 13 14 9 4 1
-4 5 8 13 14 9 4 1
-4 5 8 13 14 9 4 1
-5 5 8 13 14 9 4 1
-6 4 9 13 14 9 5 2
-5 4 9 12 13 8 4 2
-5 4 9 11 13 8 4 1
-4 4 9 11 12 7 3 1
-4 4 9 10 12 7 3 1
-3 3 8 9 11 6 2 0
-3 3 8 9 11 6 2 0
-3 3 7 9 10 5 1 -2
-3 3 7 9 10 5 1 -2
-3 3 7 9 10 5 1 -2
-3 2 6 8 9 4 0 -3
-3 2 6 8 9 4 0 -3
-3 2 6 8 8 4 0 -3
-3 2 6 8 8 4 0 -3
-3 2 6 8 8 4 0 -3
-4 1 6 7 7 3 0 -4
-4 1 6 7 7 2 0 -4
-4 1 6 6 7 2 -2 -5
-4 1 6 6 7 1 -2 -5
-4 1 6 6 7 1 -2 -5
-3 0 5 5 6 0 -3 -6
-4 0 5 5 6 0 -3 -6
-4 0 5 5 6 1 -3 -6
-5 0 5 5 6 1 -3 -6
-5 0 5 5 6 1 -3 -6
-6 -2 6 4 5 2 -4 -6
-5 -2 6 4 5 1 -5 -6
-4 -2 5 3 4 1 -5 -7
-4 -2 5 3 4 0 -6 -7
-3 -2 5 3 4 0 -6 -7
-2 -3 4 2 3 -2 -7 -8
-3 -3 4 2 3 -2 -6 -8
-4 -3 4 2 3 -2 -6 -7
-4 -3 4 2 3 -2 -5 -7
-5 -3 4 2 3 -2 -5 -7
-6 -2 5 3 4 0 -4 -6
-6 -2 5 3 4 0 -5 -6
-6 -2 5 3 4 0 -5 -6
-6 -2 5 3 4 0 -6 -6
-6 -2 5 3 4 0 -6 -6
-5 -3 4 2 3 0 -7 -7
-5 -3 4 2 3 0 -7 -7
-5 -3 4 2 2 0 -7 -8
-5 -3 4 2 2 0 -7 -8
-5 -3 4 2 2 0 -7 -8
-4 -4 3 2 1 0 -7 -9
-5 -4 3 2 1 0 -7 -9
-5 -4 3 2 1 0 -7 -9
-6 -4 3 2 1 0 -7 -9
-6 -4 3 2 1 0 -7 -9
-7 -4 3 2 2 -2 -7 -8
-7 -4 3 2 2 -2 -7 -8
-7 -4 3 1 2 -2 -7 -8
-7 -4 3 1 2 -2 -7 -8
-7 -4 3 1 2 -2 -7 -8
-6 -5 2 0 1 0 -7 -9
-6 -5 2 0 1 0 -7 -9
-6 -5 3 1 1 0 -7 -9
-6 -5 3 1 1 0 -7 -9
-6 -5 3 1 1 0 -7 -9
-7 -5 4 2 2 -2 -7 -9
-7 -5 4 2 2 -2 -7 -9
-7 -5 4 2 2 -2 -7 -9
-7 -5 4 2 2 -2 -7 -9
-7 -5 4 2 2 -2 -7 -9
-7 -5 3 1 1 -2 -7 -8
-7 -5 3 1 1 -2 -7 -8
-6 -5 3 1 1 -2 -7 -8
-5 -5 3 1 1 -2 -7 -8
-5 -5 3 1 1 -2 -7 -8
-4 -6 2 0 0 -2 -8 -9
-4 -6 2 0 0 -2 -8 -9
-5 -6 2 1 0 -2 -8 -9
-6 -6 2 1 0 -2 -8 -9
-6 -6 2 1 0 -2 -8 -9
-7 -6 2 2 -2 -2 -7 -8
-7 -6 2 2 -2 -2 -7 -8
-7 -6 2 2 -2 -2 -8 -8
-7 -6 2 2 -2 -2 -8 -8
-7 -6 2 2 -2 -2 -8 -8
-6 -6 2 1 -3 -3 -9 -9
-6 -6 2 1 -3 -3 -9 -9
-7 -6 2 1 -3 -3 -9 -9
-7 -6 2 1 -3 -3 -9 -9
-7 -6 2 1 -3 -3 -9 -9
-8 -6 3 2 -2 -2 -10 -9
-8 -6 3 2 -2 -2 -10 -9
-8 -6 3 3 -2 -2 -10 -9
-8 -6 3 3 -2 -2 -10 -9
-8 -6 3 3 -2 -2 -10 -9
-8 -6 4 4 0 -2 -9 -10
-8 -6 4 4 0 -2 -9 -10
-7 -6 3 3 0 -2 -9 -10
-7 -6 3 3 0 -2 -9 -10
-7 -6 3 3 0 -2 -9 -10
-6 -7 2 2 -2 0 -8 -9
-6 -7 2 2 -2 0 -8 -9
-6 -7 3 2 -3 0 -8 -9
-6 -7 3 2 -3 0 -8 -9
-6 -7 3 2 -3 0 -8 -9
-5 -8 4 3 -4 -2 -9 -10
-5 -8 4 3 -4 -2 -9 -9
-6 -8 4 3 -4 -2 -9 -8
-6 -8 4 3 -4 -2 -9 -8
-6 -8 4 3 -4 -2 -9 -7
-7 -8 4 2 -3 0 -8 -6
-7 -8 4 2 -3 0 -8 -6
-7 -8 4 2 -3 0 -8 -7
-7 -8 4 2 -3 0 -8 -7
-7 -8 4 2 -3 0 -8 -7
-6 -8 4 2 -3 0 -9 -8
-6 -8 4 2 -3 0 -9 -8
-5 -8 4 2 -3 -2 -9 -9
-5 -8 4 2 -3 -2 -9 -9
-5 -8 4 2 -3 -2 -9 -9
-4 -8 4 1 -4 -3 -10 -10
-5 -8 4 1 -4 -3 -10 -9
-6 -8 4 1 -3 -2 -9 -8
-7 -8 4 1 -3 -2 -9 -8
-8 -8 4 1 -3 -2 -9 -7
-9 -9 5 2 -2 0 -8 -6
-9 -9 5 2 -2 0 -8 -6
-8 -9 5 2 -2 0 -8 -6
-8 -9 5 2 -2 0 -8 -6
-8 -9 5 2 -2 0 -8 -6
-7 -8 4 1 -2 0 -8 -6
-7 -8 4 1 -2 0 -8 -6
-7 -8 4 1 -2 0 -8 -6
-7 -8 4 1 -2 0 -8 -6
-7 -8 4 1 -2 0 -8 -6
-6 -8 4 1 -2 1 -9 -6
-6 -8 4 1 -2 1 -9 -6
-7 -8 4 1 -2 1 -9 -6
-7 -8 4 1 -2 1 -9 -6
-7 -8 4 1 -2 1 -9 -6
-8 -8 5 1 -2 0 -10 -7
-8 -8 5 1 -2 0 -10 -7
-8 -8 5 1 -2 1 -10 -6
-8 -8 5 1 -2 1 -10 -6
-8 -8 5 1 -2 1 -10 -6
-7 -8 5 1 -2 2 -9 -5
-7 -8 5 1 -2 2 -9 -5
-6 -8 5 1 -2 2 -9 -6
-6 -8 5 1 -2 2 -9 -6
-6 -8 5 1 -2 2 -9 -6
-5 -9 4 0 -3 1 -9 -7
-5 -9 4 0 -3 1 -9 -7
-6 -9 4 0 -3 1 -9 -6
-6 -9 4 0 -3 1 -9 -6
-6 -9 4 0 -3 1 -9 -6
-7 -8 3 1 -2 1 -9 -5
-7 -8 3 1 -2 1 -9 -5
-7 -8 3 1 -2 1 -8 -5
-7 -8 3 1 -2 1 -8 -5
-7 -8 3 1 -2 1 -8 -5
-6 -9 4 0 -3 2 -7 -5
-6 -9 4 0 -3 2 -7 -5
-6 -9 4 0 -3 2 -8 -5
-6 -9 4 0 -3 2 -8 -5
-6 -9 4 0 -3 2 -8 -5
-6 -8 4 0 -2 2 -9 -6
-6 -8 4 0 -2 2 -9 -6
-7 -8 4 0 -2 2 -9 -6
-7 -8 4 0 -2 2 -9 -6
-7 -8 4 0 -2 2 -9 -6
-8 -8 4 0 -2 3 -8 -5
-8 -8 4 0 -2 3 -8 -5
-7 -8 4 0 -2 3 -8 -5
-6 -8 4 0 -2 3 -8 -5
-6 -8 4 0 -2 3 -8 -5
-5 -9 4 0 -3 3 -8 -5
-5 -9 4 0 -3 3 -8 -5
-5 -8 4 0 -3 3 -8 -5
-5 -8 4 0 -3 3 -8 -5
-5 -8 4 0 -3 3 -8 -5
-6 -7 4 1 -2 4 -7 -4
-5 -5 5 2 0 5 -7 -3
-4 -3 6 3 1 6 -6 -2
-4 -2 7 4 1 6 -5 -2
-3 1 8 5 2 7 -5 0
-2 2 9 6 3 8 -4 1
-3 2 9 6 3 8 -4 1
-4 3 10 7 4 9 -3 1
-4 3 11 8 4 10 -3 1
-5 3 11 8 4 10 -3 1
-6 4 12 9 5 11 -2 2
-5 5 12 9 5 11 -2 2
-4 6 12 10 6 12 -2 2
-4 7 12 11 6 12 -2 2
-3 8 12 11 6 12 -2 2
-2 9 13 12 7 13 0 3
1 9 13 12 7 13 0 3
2 10 13 12 7 13 0 3
3 10 13 12 7 13 0 3
5 10 13 12 7 13 0 3
6 11 13 12 7 14 1 4
6 11 13 12 7 14 1 4
6 10 12 12 8 14 1 5
6 10 11 12 8 14 1 5
6 10 11 12 8 14 1 5
7 9 10 12 9 15 2 6
7 8 8 11 7 15 2 6
7 7 7 10 6 14 2 6
7 7 6 10 5 14 2 6
7 6 4 9 3 14 2 6
8 5 3 8 2 13 2 5
8 3 3 8 2 13 2 5
8 2 3 7 2 12 1 4
8 1 3 6 2 12 0 3
8 -2 3 6 2 12 0 3
7 -3 3 5 1 11 -2 2
5 -4 3 5 1 10 -3 1
3 -5 3 4 0 9 -4 0
1 -6 3 4 -2 8 -5 -2
-2 -7 3 4 -2 7 -6 -3
-3 -8 3 3 -3 6 -7 -4
-4 -8 3 3 -3 6 -7 -4
-6 -9 3 2 -4 5 -8 -5
-7 -10 3 2 -5 4 -9 -5
-8 -10 3 2 -5 4 -9 -5
-9 -11 3 1 -6 3 -10 -6
-9 -11 3 1 -6 3 -10 -6
-9 -11 3 1 -6 3 -10 -6
-9 -11 3 1 -6 3 -10 -6
-9 -11 3 1 -6 3 -10 -6
-9 -12 4 2 -6 3 -10 -5
-9 -12 4 2 -6 3 -10 -5
-8 -12 4 2 -6 2 -10 -6
-8 -12 4 2 -6 1 -10 -6
-8 -12 4 2 -6 1 -10 -6
-7 -12 3 1 -7 0 -11 -7
-7 -12 3 1 -7 0 -11 -7
-8 -12 3 0 -7 0 -11 -7
-8 -12 3 0 -7 0 -11 -7
-8 -12 3 0 -7 0 -11 -7
-9 -12 2 -2 -6 1 -11 -6
-9 -12 2 -2 -6 1 -11 -6
-9 -12 2 -2 -6 1 -11 -6
-9 -12 2 -2 -6 1 -11 -6
-9 -12 2 -2 -6 1 -11 -6
-9 -11 1 0 -6 0 -11 -6
-9 -12 1 0 -6 0 -11 -7
-8 -13 1 0 -6 0 -12 -8
-7 -13 1 0 -6 0 -12 -8
-7 -14 1 0 -6 0 -12 -9
-6 -16 3 2 -5 -2 -13 -11
-5 -19 7 7 -2 -2 -14 -13
-3 -22 10 12 3 -2 -15 -15
-2 -24 13 16 6 -2 -15 -17
0 -27 17 21 9 -2 -16 -19
3 -25 23 31 17 3 -13 -17
7 -16 32 46 31 15 -4 -9
12 -7 43 60 45 26 7 0
16 2 52 74 58 37 16 7
20 11 61 89 72 50 25 15
27 28 66 96 84 65 43 31
37 53 65 98 93 86 67 58
47 78 64 100 103 105 93 85
56 103 64 101 112 125 117 110
66 128 63 103 121 145 142 137
69 151 50 89 119 157 161 160
64 172 24 57 103 161 175 182
59 193 0 25 87 165 187 203
54 215 -26 -8 70 171 200 226
49 235 -52 -39 54 175 214 247
40 228 -70 -65 30 157 199 237
28 190 -80 -87 0 116 154 194
17 151 -91 -107 -32 74 110 150
6 113 -102 -128 -64 33 65 106
-7 75 -112 -148 -96 -9 21 62
-14 48 -114 -154 -110 -32 -7 33
-16 32 -105 -142 -105 -38 -16 20
-18 17 -95 -130 -101 -44 -26 7
-20 2 -86 -117 -96 -50 -35 -8
-22 -14 -75 -106 -91 -56 -46 -21
-23 -22 -66 -93 -82 -56 -49 -27
-21 -21 -56 -78 -71 -48 -43 -24
-18 -20 -46 -65 -60 -39 -37 -22
-15 -18 -35 -51 -48 -31 -31 -19
-13 -17 -25 -37 -36 -24 -25 -16
-11 -16 -18 -28 -29 -19 -22 -14
-11 -16 -16 -25 -27 -18 -22 -14
-11 -16 -14 -22 -25 -17 -21 -14
-11 -16 -11 -19 -22 -15 -20 -14
-11 -16 -9 -16 -20 -14 -20 -14
-12 -15 -7 -14 -18 -13 -19 -13
-12 -15 -7 -13 -18 -13 -19 -13
-12 -16 -6 -13 -17 -13 -19 -13
-12 -17 -5 -12 -16 -13 -19 -13
-12 -17 -5 -11 -16 -13 -19 -13
-12 -18 -4 -10 -15 -14 -20 -14
-12 -18 -3 -9 -14 -14 -20 -14
-12 -18 -3 -9 -14 -14 -20 -14
-12 -18 -2 -8 -13 -14 -20 -14
-12 -18 0 -7 -12 -14 -20 -14
-13 -19 1 -6 -11 -14 -21 -15
-13 -19 1 -6 -11 -14 -21 -15
-13 -19 1 -6 -11 -14 -21 -15
-13 -18 1 -6 -11 -13 -20 -15
-13 -18 1 -6 -11 -13 -20 -15
-12 -17 1 -7 -11 -12 -19 -14
-12 -17 1 -7 -11 -12 -19 -14
-12 -17 1 -6 -11 -12 -19 -14
-12 -17 1 -5 -11 -12 -20 -14
-12 -17 1 -5 -11 -12 -20 -14
-11 -17 1 -4 -10 -13 -21 -15
-10 -17 1 -4 -10 -13 -21 -15
-10 -17 1 -4 -10 -13 -21 -15
-9 -16 1 -4 -10 -13 -20 -15
-8 -16 1 -4 -10 -13 -20 -15
-7 -15 0 -4 -9 -14 -19 -15
-7 -15 0 -4 -9 -14 -19 -15
-8 -15 0 -4 -9 -14 -19 -15
-9 -15 0 -3 -8 -14 -19 -15
-9 -15 0 -3 -8 -14 -19 -15
-10 -16 1 -2 -7 -14 -19 -14
-10 -16 1 -2 -7 -14 -19 -14
-10 -16 1 -2 -7 -14 -19 -14
-10 -15 1 -2 -7 -13 -18 -14
-10 -15 1 -2 -7 -13 -18 -14
-9 -14 2 -2 -8 -12 -17 -13
-9 -14 2 -2 -8 -12 -17 -13
-9 -14 2 -2 -8 -12 -17 -13
-9 -14 2 -2 -7 -12 -17 -13
-9 -14 2 -2 -7 -12 -17 -13
-8 -15 2 -2 -6 -13 -17 -14
-8 -15 2 -2 -6 -13 -17 -14
-8 -15 2 -2 -6 -13 -17 -14
-8 -14 2 -2 -6 -13 -17 -14
-8 -14 2 -2 -6 -13 -17 -14
-9 -13 2 -2 -6 -13 -17 -14
-9 -13 2 -2 -6 -13 -17 -14
-9 -13 2 -2 -6 -13 -17 -14
-9 -13 2 0 -6 -13 -16 -14
-9 -13 2 0 -6 -13 -16 -14
-8 -12 3 1 -6 -12 -15 -13
-8 -12 3 1 -6 -12 -15 -13
-8 -12 3 1 -6 -12 -15 -13
-8 -12 3 0 -6 -12 -15 -12
-8 -12 3 0 -6 -12 -15 -12
-9 -12 2 -2 -6 -11 -14 -11
-9 -12 2 -2 -6 -11 -14 -11
-9 -12 2 -2 -6 -11 -14 -11
-9 -12 2 -2 -6 -11 -14 -12
-9 -12 2 -2 -6 -11 -14 -12
-8 -11 2 0 -6 -12 -15 -13
-8 -11 2 0 -6 -12 -15 -13
-8 -11 2 0 -6 -12 -15 -13
-8 -10 1 0 -6 -12 -15 -12
-8 -10 1 0 -6 -12 -15 -12
-7 -9 0 0 -7 -12 -14 -11
-6 -9 0 0 -7 -12 -14 -11
-6 -9 0 0 -7 -12 -14 -11
-5 -9 0 -2 -7 -12 -14 -11
-4 -9 0 -2 -7 -12 -14 -11
-3 -8 0 -3 -7 -13 -15 -12
-3 -8 0 -3 -7 -13 -15 -12
-3 -8 0 -3 -7 -13 -15 -12
-2 -7 -2 -3 -7 -13 -15 -12
-2 -7 -2 -3 -7 -13 -15 -12
0 -6 -3 -4 -7 -13 -15 -12
0 -6 -3 -4 -7 -13 -15 -12
0 -6 -3 -4 -7 -13 -15 -11
0 -6 -3 -4 -7 -13 -14 -10
0 -6 -3 -4 -7 -13 -14 -10
-2 -6 -3 -4 -6 -13 -13 -9
-2 -6 -4 -5 -6 -13 -12 -9
-2 -5 -4 -5 -6 -13 -12 -9
-2 -4 -5 -6 -7 -13 -11 -8
-2 -4 -6 -7 -7 -13 -10 -8
-3 -3 -7 -8 -8 -12 -9 -7
-2 -3 -7 -8 -8 -12 -9 -7
-2 -3 -7 -8 -8 -12 -9 -7
0 -3 -8 -8 -9 -12 -10 -7
1 -3 -8 -8 -9 -12 -10 -7
2 -3 -9 -9 -10 -12 -11 -7
2 -3 -9 -9 -10 -12 -11 -7
3 -2 -9 -10 -10 -12 -10 -6
4 0 -10 -11 -11 -12 -9 -5
4 0 -10 -11 -11 -12 -9 -5
5 1 -11 -12 -12 -13 -8 -4
5 1 -11 -12 -12 -13 -8 -4
5 1 -11 -12 -12 -13 -8 -4
5 1 -12 -13 -13 -13 -8 -4
5 1 -12 -13 -13 -13 -8 -4
6 1 -13 -14 -14 -13 -8 -4
7 1 -13 -15 -14 -13 -8 -4
7 1 -14 -15 -15 -13 -8 -4
8 2 -15 -16 -16 -13 -7 -3
9 2 -15 -17 -16 -13 -7 -3
10 3 -16 -18 -17 -12 -6 -2
12 3 -16 -18 -17 -12 -6 -2
13 3 -16 -18 -17 -12 -6 -2
15 3 -17 -19 -18 -13 -7 -2
17 3 -17 -19 -18 -13 -7 -2
18 4 -18 -20 -19 -14 -8 -2
17 4 -18 -20 -19 -14 -8 -2
16 5 -18 -20 -19 -14 -7 0
14 6 -17 -20 -19 -14 -6 1
13 6 -17 -20 -19 -14 -6 1
12 7 -16 -19 -19 -14 -5 2
12 7 -16 -19 -19 -14 -5 2
12 7 -16 -19 -19 -14 -5 2
12 7 -16 -19 -18 -14 -5 2
12 7 -16 -19 -18 -14 -5 2
13 8 -15 -18 -17 -13 -5 3
13 8 -15 -17 -17 -13 -5 3
14 9 -15 -17 -17 -13 -4 3
15 10 -15 -16 -16 -13 -3 3
15 10 -15 -15 -16 -13 -3 3
16 11 -15 -14 -15 -12 -2 4
16 11 -14 -13 -13 -11 -2 4
16 11 -13 -12 -12 -9 -2 4
16 11 -11 -10 -10 -8 0 4
16 11 -10 -9 -9 -6 0 4
15 11 -9 -8 -7 -5 1 5
15 11 -8 -6 -6 -4 2 6
15 11 -6 -4 -4 -3 3 6
15 12 -5 -2 -3 -2 5 7
15 12 -3 0 0 0 6 8
14 13 -2 2 1 1 7 9
14 13 0 4 3 1 7 9
14 13 1 5 5 2 7 9
14 13 2 7 7 3 8 9
14 13 3 8 8 3 8 9
14 14 4 10 10 4 9 10
13 14 5 11 11 5 9 10
13 14 6 13 12 6 10 10
12 14 7 14 13 7 11 11
11 14 8 16 14 8 11 11
10 14 9 17 15 9 12 12
10 14 9 18 16 9 12 12
10 14 9 18 17 9 12 11
9 14 10 19 18 10 12 10
9 14 10 20 19 10 12 10
8 13 11 21 20 11 11 9
8 13 11 21 20 11 11 9
8 13 11 21 19 10 11 9
8 12 11 21 18 9 11 8
8 12 11 21 18 9 11 8
7 11 11 21 17 8 10 7
6 11 11 21 17 8 10 7
5 10 11 21 17 8 10 7
3 9 12 21 18 8 9 6
2 9 12 21 18 8 9 6
1 8 13 21 19 9 8 5
1 8 13 21 19 9 8 5
1 8 13 21 19 9 8 5
1 8 13 20 18 8 7 5
1 8 13 20 18 8 7 5
0 9 12 19 17 7 6 4
1 9 12 19 17 7 6 4
1 9 12 19 17 7 6 3
2 9 11 18 17 6 6 2
3 9 11 18 17 6 6 2
4 9 10 17 16 5 5 1
3 9 10 17 16 5 5 1
1 9 10 17 16 5 5 2
0 8 11 18 17 6 6 3
-3 8 11 18 17 6 6 3
-4 7 12 19 18 7 7 4
-4 7 12 19 18 7 7 4
-4 7 12 19 18 7 7 4
-3 8 12 19 18 7 7 3
-3 8 12 19 18 7 7 3
-2 9 12 19 19 7 7 2
-2 9 12 19 19 7 7 2
0 9 12 19 19 7 7 2
0 9 11 19 18 7 7 2
1 9 11 19 18 7 7 2
2 9 10 18 17 6 6 3
2 9 10 18 17 6 6 3
1 9 11 18 17 6 6 3
1 9 11 18 18 6 6 3
0 9 12 18 18 6 6 3
-2 8 13 19 19 7 6 3
-2 8 13 19 19 7 6 3
-2 8 13 19 19 7 6 3
-2 8 13 19 19 7 7 3
-2 8 13 19 19 7 7 3
-2 9 12 19 19 7 8 4
-2 9 12 19 19 7 8 4
-2 9 12 19 19 7 8 4
-2 9 12 19 19 7 8 4
-2 9 12 19 19 7 8 4
0 9 11 18 19 6 7 3
0 9 11 18 19 6 7 3
-2 9 11 18 19 6 7 3
-2 9 12 18 19 6 7 3
-3 9 12 18 19 6 7 3
-4 8 13 19 18 6 7 4
-3 8 13 19 18 6 7 4
-3 8 13 18 18 6 7 3
-2 8 12 18 17 5 6 3
0 8 12 17 17 5 6 2
1 7 11 16 16 4 5 1
1 7 11 16 16 4 5 1
1 7 11 16 15 4 5 1
1 7 11 16 15 3 4 1
1 7 11 16 14 3 4 1
1 7 10 16 13 2 3 0
1 7 10 16 13 2 3 0
1 7 10 16 13 2 3 0
1 7 10 15 13 2 3 0
1 7 10 15 13 2 3 0
0 6 10 14 14 2 3 1
0 6 10 14 13 1 3 1
0 6 10 13 12 1 3 1
0 5 10 13 11 0 3 1
0 5 10 12 9 -2 3 1
-2 4 9 11 8 -3 2 1
-2 4 9 11 8 -3 2 1
-2 4 9 11 8 -3 2 0
-2 3 8 11 8 -3 2 0
-2 3 8 11 8 -3 2 -2
-2 2 7 11 9 -3 1 -3
-2 2 7 11 8 -3 1 -3
-2 2 7 11 8 -3 0 -3
-2 2 7 10 7 -4 0 -4
-2 2 7 10 6 -4 -2 -4
0 2 7 9 5 -5 -3 -5
0 2 7 9 5 -5 -3 -5
0 2 7 9 5 -5 -3 -5
-2 2 7 10 5 -5 -4 -5
-2 2 7 10 5 -5 -4 -5
-3 3 6 11 5 -6 -5 -6
-3 3 6 11 5 -6 -5 -6
-3 3 6 11 4 -6 -5 -6
-3 3 6 10 4 -6 -5 -6
-3 3 6 10 3 -6 -5 -6
-3 3 6 9 2 -7 -5 -5
-3 3 6 9 2 -7 -5 -5
-3 3 6 9 2 -7 -5 -5
-3 3 6 8 2 -7 -5 -6
-3 3 6 8 2 -7 -5 -6
-2 2 6 7 2 -8 -6 -7
-3 2 6 7 2 -8 -6 -7
-3 2 6 7 2 -8 -6 -7
-4 2 6 7 2 -8 -5 -7
-5 2 6 7 2 -8 -5 -7
-6 1 7 8 2 -8 -4 -6
-6 1 7 8 2 -8 -4 -6
-6 0 7 8 2 -8 -4 -6
-6 0 7 8 2 -8 -5 -7
-6 -2 7 8 2 -8 -5 -7
-5 -3 6 8 3 -9 -6 -8
-5 -3 6 8 3 -9 -6 -8
-5 -3 6 8 3 -9 -6 -8
-5 -2 6 8 2 -9 -6 -8
-5 -2 6 8 2 -9 -6 -8
-5 0 6 7 1 -9 -6 -8
-5 0 6 7 1 -9 -6 -8
-5 0 6 7 1 -9 -6 -8
-5 -2 5 7 1 -9 -6 -8
-5 -2 5 7 1 -9 -6 -8
-5 -3 4 6 1 -10 -6 -8
-5 -3 4 6 1 -10 -6 -8
-5 -3 4 6 1 -10 -6 -8
-5 -3 4 6 1 -10 -7 -8
-5 -3 4 6 1 -10 -7 -8
-5 -3 5 5 0 -11 -8 -8
-5 -3 5 5 0 -11 -8 -8
-5 -3 5 5 0 -11 -8 -8
-5 -3 5 5 1 -11 -8 -8
-5 -3 5 5 1 -11 -8 -8
-6 -3 5 6 2 -10 -8 -9
-6 -3 5 6 2 -10 -8 -9
-6 -3 5 6 2 -10 -8 -9
-6 -3 5 5 1 -10 -8 -9
-6 -3 5 5 1 -10 -8 -9
-5 -4 4 4 0 -11 -8 -8
-5 -4 4 4 0 -11 -8 -8
-5 -4 4 4 0 -11 -8 -8
-5 -4 4 4 0 -11 -8 -8
-5 -4 4 4 0 -11 -8 -8
-5 -4 5 4 0 -11 -8 -9
-5 -4 5 4 0 -11 -8 -9
-5 -4 5 4 0 -11 -8 -9
-6 -4 5 4 0 -11 -8 -9
-6 -4 5 4 0 -11 -8 -9
-7 -3 4 4 0 -10 -7 -8
-7 -3 4 4 0 -10 -7 -8
-6 -3 4 4 0 -10 -7 -8
-6 -4 4 4 0 -10 -7 -8
-5 -4 4 4 0 -10 -7 -8
-4 -5 4 4 -2 -11 -7 -9
-4 -5 4 4 -2 -11 -7 -9
-4 -5 4 4 -2 -11 -7 -9
-5 -5 4 4 -2 -11 -7 -9
-5 -5 4 4 -2 -11 -7 -9
-6 -6 4 3 -2 -11 -7 -9
-6 -6 4 3 -2 -11 -7 -9
-6 -6 4 3 -2 -11 -7 -9
-6 -6 4 3 -2 -11 -7 -9
-6 -6 4 3 -2 -11 -7 -9
-6 -7 4 4 0 -11 -8 -9
-6 -7 4 4 0 -11 -8 -9
-6 -7 4 4 0 -11 -8 -9
-6 -7 4 4 0 -11 -8 -9
-6 -7 4 4 0 -11 -8 -9
-6 -7 4 3 0 -11 -7 -8
-6 -7 4 3 0 -11 -7 -8
-5 -7 4 3 -2 -11 -7 -8
-5 -7 4 3 -2 -11 -7 -8
-4 -7 4 3 -3 -11 -7 -8
-3 -7 3 2 -4 -11 -8 -8
-3 -7 3 2 -4 -11 -8 -8
-4 -7 3 2 -4 -11 -8 -8
-4 -7 3 2 -4 -11 -8 -8
-5 -7 3 2 -4 -11 -8 -8
-6 -6 2 2 -3 -11 -7 -7
-6 -6 2 2 -3 -11 -7 -7
-6 -6 2 2 -3 -11 -7 -7
-6 -6 2 2 -3 -11 -7 -7
-6 -6 2 2 -3 -11 -7 -7
-5 -6 3 3 -2 -11 -8 -8
-5 -6 3 3 -2 -11 -8 -8
-6 -6 3 3 -2 -11 -8 -8
-6 -6 3 3 -2 -11 -8 -8
-7 -6 3 3 -2 -11 -8 -8
-8 -7 4 3 -2 -10 -8 -7
-8 -7 4 3 -2 -10 -8 -7
-7 -7 4 3 -2 -10 -8 -7
-7 -7 4 3 -2 -10 -8 -8
-6 -7 4 3 -2 -10 -8 -8
-5 -7 3 2 -2 -11 -8 -9
-5 -7 3 2 -2 -11 -8 -9
-5 -7 3 2 -2 -11 -8 -9
-5 -7 3 2 -2 -11 -8 -9
-5 -7 3 2 -2 -11 -8 -9
-6 -7 2 2 -3 -11 -9 -9
-6 -7 2 2 -3 -11 -9 -9
-6 -7 2 2 -3 -11 -9 -9
-6 -7 2 2 -3 -11 -9 -10
-6 -7 2 2 -3 -11 -9 -10
-7 -7 3 2 -4 -11 -9 -11
-7 -7 3 2 -4 -11 -9 -11
-7 -7 3 2 -4 -11 -9 -11
-7 -7 3 2 -4 -11 -9 -10
-7 -7 3 2 -4 -11 -9 -10
-8 -7 3 3 -4 -10 -9 -9
-8 -7 3 3 -4 -10 -9 -9
-8 -7 3 3 -4 -10 -9 -9
-8 -7 3 3 -3 -10 -8 -9
-8 -7 3 3 -3 -10 -8 -9
-8 -8 4 4 -2 -9 -7 -8
-8 -8 4 4 -2 -9 -7 -8
-8 -8 4 4 -2 -9 -7 -8
-8 -8 4 4 -2 -9 -7 -8
-8 -8 4 4 -2 -9 -7 -8
-7 -7 4 4 -3 -9 -8 -9
-7 -7 4 4 -3 -9 -8 -9
-6 -6 4 4 -2 -9 -8 -8
-6 -5 5 4 -2 -8 -8 -8
-5 -4 5 4 0 -8 -8 -7
-4 -3 6 5 1 -7 -7 -6
-4 -3 6 5 1 -7 -7 -6
-4 -2 7 6 1 -7 -7 -6
-4 0 7 7 2 -7 -6 -6
-4 1 8 8 2 -7 -6 -6
-3 2 9 9 3 -7 -5 -5
-3 2 9 9 3 -6 -5 -5
-4 3 10 10 4 -5 -4 -5
-5 4 11 10 4 -4 -4 -4
-6 5 12 11 5 -2 -3 -4
-7 6 13 12 6 0 -2 -3
-6 6 13 12 6 1 0 -2
-5 7 13 13 7 2 2 0
-4 8 13 13 8 3 3 1
-2 9 13 14 9 5 4 3
0 10 13 15 10 6 6 4
1 10 13 15 10 6 6 4
2 10 12 15 10 6 6 4
3 9 12 14 10 5 5 3
5 9 11 14 10 5 5 3
6 8 10 13 9 4 4 2
6 8 9 13 9 4 4 2
6 8 8 13 9 4 4 2
6 8 7 12 8 4 3 2
6 8 6 12 8 4 3 2
6 7 5 11 7 3 2 1
6 6 5 11 7 3 2 1
6 4 5 10 6 3 2 1
5 2 4 9 6 3 1 0
5 1 4 8 5 3 1 0
4 -2 3 7 4 3 0 -2
3 -3 3 7 3 2 -2 -3
1 -5 3 6 2 0 -4 -4
0 -6 3 5 1 -3 -5 -5
-2 -7 3 4 0 -4 -6 -6
-4 -9 2 3 -3 -6 -8 -8
-5 -9 2 3 -3 -6 -8 -8
-7 -9 2 2 -3 -6 -8 -8
-8 -10 2 2 -3 -6 -9 -9
-9 -10 2 1 -3 -6 -9 -9
-11 -11 2 0 -4 -6 -10 -10
-11 -11 2 0 -4 -6 -10 -10
-10 -11 2 0 -4 -6 -10 -10
-10 -11 1 0 -5 -6 -10 -10
-9 -11 1 0 -5 -6 -10 -10
-8 -11 0 -2 -6 -7 -10 -10
-8 -11 0 -2 -6 -7 -10 -10
-8 -11 0 -2 -6 -7 -10 -10
-8 -11 0 -2 -6 -7 -10 -10
-8 -11 0 -2 -6 -7 -10 -10
-8 -12 0 -3 -6 -8 -11 -11
-8 -12 0 -3 -6 -8 -11 -11
-8 -12 0 -3 -6 -8 -11 -11
-9 -12 0 -3 -6 -8 -11 -11
-9 -12 0 -3 -6 -8 -11 -11
-10 -13 -2 -3 -6 -8 -11 -12
-10 -13 -2 -3 -6 -8 -11 -12
-10 -13 -2 -3 -6 -8 -11 -12
-10 -13 -2 -3 -6 -8 -11 -12
-10 -13 -2 -3 -6 -8 -11 -12
-9 -13 0 -4 -5 -7 -11 -12
-9 -13 0 -4 -5 -7 -11 -12
-9 -13 0 -4 -5 -7 -11 -12
-8 -13 0 -4 -5 -7 -11 -13
-8 -13 0 -4 -5 -7 -11 -13
-7 -14 -2 -4 -6 -7 -11 -14
-6 -17 0 -2 -5 -7 -13 -16
-5 -21 1 0 -4 -7 -14 -19
-4 -24 2 2 -2 -7 -16 -22
-3 -28 3 4 0 -7 -18 -24
0 -31 6 7 3 -8 -20 -27
0 -26 14 20 13 1 -14 -23
1 -21 23 32 24 9 -9 -19
1 -16 32 46 35 16 -3 -15
2 -11 42 58 46 24 4 -11
4 -4 50 71 58 33 11 -5
13 18 57 88 76 57 35 19
23 39 63 103 96 80 60 43
33 61 70 118 115 104 85 66
44 82 77 134 134 128 109 90
53 104 81 145 150 150 134 113
49 129 62 116 138 160 153 140
46 153 43 87 126 171 174 165
42 178 23 57 112 181 193 192
38 202 3 28 100 191 213 218
34 223 -17 -2 86 196 227 238
25 197 -34 -31 52 160 191 206
17 173 -53 -61 17 125 154 175
9 148 -71 -91 -17 89 118 144
1 122 -90 -120 -51 53 81 112
-8 98 -106 -147 -81 19 47 81
-12 75 -105 -147 -89 3 26 59
-17 54 -104 -147 -97 -15 5 35
-21 31 -103 -147 -104 -31 -16 13
-26 9 -102 -147 -111 -48 -36 -10
-30 -12 -99 -145 -117 -63 -56 -31
-29 -14 -87 -128 -104 -56 -51 -31
-28 -17 -75 -110 -91 -49 -47 -31
-27 -20 -63 -93 -77 -41 -41 -30
-26 -22 -51 -75 -64 -34 -37 -30
-25 -25 -39 -59 -52 -27 -32 -29
-23 -24 -33 -51 -46 -23 -30 -27
-21 -23 -27 -44 -38 -20 -27 -25
-19 -22 -22 -35 -32 -16 -25 -23
-17 -21 -16 -27 -26 -12 -23 -20
-15 -20 -10 -20 -20 -8 -20 -18
-15 -20 -10 -20 -20 -8 -20 -18
-14 -20 -10 -19 -20 -8 -20 -19
-13 -20 -9 -18 -19 -8 -21 -20
-12 -20 -9 -17 -19 -8 -21 -21
-11 -21 -8 -16 -18 -9 -22 -22
-11 -21 -8 -15 -17 -9 -22 -22
-12 -21 -7 -14 -16 -9 -21 -22
-12 -21 -7 -13 -15 -8 -21 -21
-13 -21 -6 -12 -14 -8 -20 -21
-14 -22 -5 -11 -13 -7 -19 -20
-14 -22 -5 -11 -13 -7 -19 -20
-14 -22 -5 -11 -13 -7 -19 -20
-14 -22 -5 -11 -12 -6 -19 -19
-14 -22 -5 -11 -12 -6 -19 -19
-15 -21 -5 -11 -11 -5 -18 -18
-15 -21 -5 -11 -11 -5 -18 -18
-14 -21 -5 -11 -11 -5 -18 -18
-13 -21 -5 -10 -11 -5 -18 -18
-12 -21 -5 -10 -11 -5 -18 -18
-11 -21 -5 -9 -11 -6 -19 -19
-11 -21 -5 -9 -11 -6 -19 -19
-11 -21 -5 -9 -11 -6 -19 -19
-11 -21 -4 -9 -11 -6 -18 -19
-11 -21 -4 -9 -11 -6 -18 -19
-11 -20 -3 -9 -10 -5 -17 -18
-11 -20 -3 -9 -10 -5 -17 -18
-11 -20 -3 -8 -10 -5 -17 -18
-11 -20 -3 -8 -10 -5 -17 -18
-11 -20 -3 -7 -10 -5 -17 -18
-12 -20 -2 -6 -9 -5 -18 -17
-12 -20 -2 -6 -9 -5 -18 -17
-12 -20 -2 -6 -9 -5 -18 -17
-12 -19 -2 -6 -9 -5 -18 -17
-12 -19 -2 -6 -9 -5 -18 -17
-12 -18 -3 -7 -9 -5 -17 -17
-12 -18 -3 -7 -9 -5 -17 -17
-11 -18 -3 -7 -9 -5 -17 -17
-10 -18 -3 -7 -10 -5 -18 -18
-9 -18 -3 -7 -10 -5 -18 -18
-8 -18 -3 -8 -11 -5 -19 -19
-8 -18 -3 -8 -11 -5 -19 -19
-8 -18 -3 -8 -11 -5 -18 -19
-9 -18 -3 -8 -11 -5 -18 -18
-9 -18 -3 -8 -11 -5 -17 -18
-10 -18 -3 -9 -10 -4 -16 -17
-10 -18 -3 -9 -10 -4 -16 -17
-9 -18 -3 -9 -10 -4 -16 -17
-9 -18 -3 -9 -10 -5 -16 -17
-8 -18 -3 -9 -10 -5 -16 -17
-7 -19 -3 -8 -11 -6 -17 -18
-7 -19 -3 -8 -11 -6 -17 -18
-8 -19 -3 -8 -11 -6 -16 -18
-8 -19 -3 -8 -10 -5 -16 -17
-9 -19 -3 -8 -10 -5 -15 -17
-10 -18 -3 -8 -9 -4 -14 -16
-10 -18 -3 -8 -9 -4 -14 -16
-9 -18 -3 -8 -9 -4 -15 -16
-9 -18 -4 -9 -10 -4 -15 -16
-8 -18 -4 -9 -10 -4 -16 -16
-7 -18 -5 -10 -11 -5 -17 -16
-7 -18 -5 -10 -11 -5 -16 -16
-7 -18 -5 -10 -10 -4 -15 -15
-7 -18 -5 -9 -10 -3 -14 -15
-7 -18 -5 -9 -9 -2 -13 -14
-7 -18 -4 -8 -8 0 -12 -13
-7 -18 -4 -8 -8 0 -12 -13
-7 -17 -4 -8 -8 0 -12 -13
-7 -17 -4 -8 -8 0 -12 -13
-7 -16 -4 -8 -8 0 -12 -13
-7 -15 -5 -9 -8 -2 -13 -12
-7 -15 -5 -9 -8 -2 -13 -12
-6 -15 -5 -9 -8 -2 -13 -12
-6 -14 -6 -10 -9 -2 -13 -12
-5 -14 -6 -10 -9 -2 -13 -12
-4 -13 -7 -11 -10 -2 -13 -13
-4 -13 -7 -11 -10 -2 -13 -13
-3 -13 -7 -11 -10 -2 -13 -13
-2 -13 -8 -11 -10 -3 -13 -13
0 -13 -8 -11 -10 -3 -13 -13
1 -13 -9 -12 -11 -4 -13 -13
1 -13 -9 -12 -11 -4 -13 -13
0 -13 -9 -12 -11 -3 -12 -12
0 -12 -9 -12 -11 -3 -12 -12
-2 -12 -9 -12 -11 -2 -11 -11
-3 -11 -10 -13 -10 0 -10 -10
-3 -11 -11 -13 -10 0 -10 -10
-2 -11 -12 -14 -11 -2 -10 -10
-2 -11 -13 -15 -11 -2 -10 -10
0 -11 -14 -16 -12 -3 -10 -10
1 -10 -15 -17 -13 -4 -11 -9
1 -10 -15 -17 -13 -4 -11 -9
1 -10 -15 -18 -13 -3 -10 -8
1 -10 -16 -18 -13 -3 -10 -7
1 -10 -16 -19 -13 -2 -9 -6
2 -10 -17 -20 -14 0 -8 -5
3 -10 -17 -21 -14 0 -8 -5
4 -10 -18 -22 -15 -2 -8 -5
5 -10 -19 -23 -16 -2 -8 -5
6 -10 -20 -24 -17 -3 -8 -5
7 -10 -21 -25 -18 -4 -8 -5
7 -10 -21 -25 -18 -3 -7 -5
7 -10 -22 -25 -18 -2 -6 -4
8 -9 -22 -26 -18 0 -5 -3
8 -9 -23 -26 -18 1 -4 -2
9 -8 -24 -27 -19 2 -3 0
9 -8 -24 -27 -19 2 -3 0
10 -8 -24 -27 -19 2 -3 0
10 -8 -25 -28 -20 1 -4 0
11 -8 -25 -28 -20 1 -4 0
12 -8 -26 -29 -21 0 -5 -2
12 -8 -26 -29 -21 0 -5 -2
12 -8 -26 -29 -21 0 -5 -2
12 -8 -25 -28 -21 0 -5 0
12 -8 -25 -28 -21 0 -5 0
12 -7 -24 -27 -21 0 -4 1
12 -7 -24 -27 -21 0 -4 1
13 -7 -24 -27 -21 0 -4 1
14 -7 -25 -28 -21 0 -3 2
15 -7 -25 -28 -21 0 -3 2
16 -6 -26 -29 -22 1 -2 3
16 -6 -25 -28 -22 1 -2 3
16 -5 -24 -27 -21 1 -2 3
16 -5 -24 -26 -21 1 -2 3
16 -4 -23 -25 -20 1 -2 3
16 -4 -22 -24 -20 1 -2 3
15 -3 -21 -22 -19 2 0 4
14 -3 -20 -21 -18 3 1 5
14 -3 -19 -20 -17 4 2 6
13 -3 -18 -19 -16 5 3 7
13 -3 -18 -18 -16 6 4 8
12 -2 -17 -16 -14 7 5 9
13 -2 -16 -14 -13 8 6 10
13 -2 -15 -13 -11 9 7 10
14 -2 -14 -11 -10 10 8 11
14 -2 -13 -10 -9 11 8 11
15 0 -11 -7 -7 12 9 12
14 0 -9 -5 -5 13 9 12
13 1 -7 -3 -3 14 10 12
12 1 -5 0 0 15 10 12
11 1 -4 2 2 15 10 12
10 2 -3 4 4 17 11 12
10 2 -2 6 6 18 12 12
10 2 0 7 7 20 13 13
10 2 1 9 9 21 14 13
10 2 2 10 10 22 14 13
10 3 4 12 11 23 15 14
10 3 5 13 12 23 15 14
9 3 6 15 13 23 15 13
9 3 7 16 14 23 15 13
9 3 8 17 15 23 15 13
8 3 9 18 16 24 14 12
7 3 9 19 16 24 14 12
7 3 10 19 17 24 14 12
6 3 10 20 17 24 14 12
6 3 10 20 17 24 14 12
4 3 11 21 18 25 13 11
2 2 12 21 19 25 13 11
1 1 13 22 19 25 13 11
-2 0 14 22 20 25 13 11
-3 0 14 22 20 25 13 11
-4 -2 15 23 21 25 14 10
-4 -2 15 23 20 24 13 9
-3 -2 15 23 20 24 12 8
-3 -2 15 23 19 23 11 7
-3 -2 15 23 19 23 10 6
-2 -2 14 22 18 22 9 5
-3 -2 14 22 18 22 9 5
-3 -2 14 22 18 22 9 5
-4 -2 14 22 18 22 9 5
-4 -2 14 22 18 22 9 5
-5 -3 15 22 19 21 9 6
-5 -3 15 22 19 21 9 6
-6 -2 15 22 18 21 9 7
-6 -2 15 22 18 21 9 7
-6 -2 15 22 18 21 9 7
-7 0 15 21 17 22 10 8
-6 0 15 21 17 22 10 7
-5 0 15 22 17 22 10 7
-4 0 15 22 17 22 10 6
-3 0 15 22 17 22 10 6
-2 -2 14 23 17 21 9 5
-3 -2 14 23 17 22 9 5
-3 -2 14 23 18 22 9 6
-4 -2 14 23 18 23 9 6
-4 -2 14 23 18 23 9 6
-5 0 14 24 19 24 10 7
-5 0 14 24 19 24 10 7
-5 0 14 23 19 24 10 7
-5 0 14 23 19 24 10 7
-5 0 14 23 19 24 10 7
-4 0 14 22 18 23 10 7
-4 0 14 22 18 23 10 7
-5 1 14 22 18 23 10 7
-5 1 14 22 18 23 10 7
-5 1 14 22 18 23 10 7
-6 2 14 22 19 22 10 7
-6 2 14 22 19 22 10 7
-5 2 14 22 18 21 10 7
-5 2 14 22 18 21 10 7
-5 2 14 22 18 21 10 7
-4 2 13 21 17 20 9 7
-4 2 13 21 17 20 9 7
-4 1 13 21 17 20 9 7
-4 1 13 21 17 20 9 7
-4 1 13 21 17 20 9 7
-5 0 12 21 16 21 10 8
-4 0 12 20 16 21 10 8
-3 1 12 20 15 20 10 8
-2 1 12 19 15 20 10 8
0 1 12 19 15 20 10 8
1 2 11 18 14 19 9 7
1 2 11 18 14 18 8 6
1 2 11 17 14 17 7 6
1 2 11 17 14 16 6 5
1 2 11 17 14 16 6 5
0 2 11 16 14 15 5 4
0 2 10 15 13 15 5 4
-2 1 10 15 12 15 5 4
-2 1 9 14 11 15 5 4
-2 1 9 14 10 15 5 4
-3 0 8 13 9 14 5 4
-3 0 8 13 9 14 5 4
-2 0 8 13 9 13 6 4
-2 0 8 13 9 13 6 4
-2 0 8 13 9 13 6 4
0 -2 8 12 9 12 7 3
0 -2 8 12 9 12 6 3
0 -2 8 12 8 11 5 2
0 -2 8 12 8 11 4 2
0 -2 8 12 8 11 4 2
-2 -3 7 11 7 10 3 1
-3 -3 7 11 7 10 3 1
-3 -3 7 11 6 10 2 0
-4 -3 7 11 6 10 2 0
-4 -3 7 11 6 10 2 0
-5 -2 8 10 5 9 1 -2
-5 -2 8 10 5 9 1 -2
-4 -3 8 10 5 8 1 -2
-4 -3 8 10 5 8 1 -2
-4 -3 8 10 5 8 1 -2
-3 -4 7 10 4 7 0 -3
-3 -4 7 10 4 7 0 -3
-4 -4 7 10 4 7 0 -3
-4 -4 7 10 4 7 0 -3
-4 -4 7 10 4 7 0 -3
-5 -5 8 9 4 7 1 -2
-5 -5 8 9 4 7 1 -2
-5 -5 8 9 4 7 1 -2
-5 -5 8 9 4 7 1 -2
-5 -5 8 9 4 7 1 -2
-5 -5 7 9 4 7 0 -2
-5 -5 7 9 4 7 0 -2
-4 -5 7 9 3 6 0 -2
-4 -5 7 9 3 6 0 -2
-4 -5 7 9 3 6 0 -2
-3 -6 7 8 2 5 -2 -2
-2 -6 7 7 2 4 -2 -3
0 -6 7 7 1 4 -3 -4
1 -6 7 6 1 3 -3 -5
2 -6 7 6 1 3 -3 -5
1 -6 6 5 0 2 -4 -6
-2 -6 6 5 1 3 -4 -6
-5 -6 6 5 1 3 -3 -6
-8 -6 6 5 2 4 -3 -6
-10 -6 6 5 2 4 -3 -6
-10 -6 7 6 3 5 -2 -5
-8 -6 7 6 2 4 -3 -5
-7 -6 6 6 2 3 -3 -5
-5 -6 6 6 1 2 -4 -5
-4 -6 6 6 1 2 -4 -5
-3 -7 5 5 0 1 -5 -6
-3 -7 5 5 0 1 -5 -5
-3 -7 5 5 0 1 -4 -5
-3 -7 5 5 0 1 -4 -4
-3 -7 5 5 0 1 -4 -4
-4 -6 6 6 0 2 -3 -3
-4 -6 6 6 0 2 -3 -3
-5 -6 6 5 0 2 -4 -4
-5 -6 6 5 0 2 -4 -4
-5 -6 6 5 0 2 -4 -4
-6 -5 5 4 0 1 -5 -5
-5 -5 5 4 0 1 -5 -5
-4 -5 5 4 0 1 -5 -5
-3 -5 5 4 0 1 -5 -5
-3 -5 5 4 0 1 -5 -5
-2 -5 4 4 -2 0 -6 -5
-2 -5 4 4 -2 0 -6 -5
-3 -5 4 4 -2 -2 -6 -5
-3 -5 4 4 -2 -2 -6 -5
-3 -5 4 4 -2 -2 -6 -5
-4 -6 4 3 -3 -3 -6 -6
-4 -6 4 3 -3 -3 -6 -6
-4 -6 4 3 -3 -3 -6 -6
-4 -6 4 3 -3 -3 -6 -6
-4 -6 4 3 -3 -3 -6 -6
-5 -7 3 3 -2 -3 -5 -6
-5 -7 3 3 -2 -3 -5 -6
-5 -6 3 3 -2 -3 -5 -6
-5 -6 3 3 -2 -3 -5 -6
-5 -6 3 3 -2 -3 -5 -6
-4 -5 4 2 -3 -3 -5 -5
-4 -5 4 2 -3 -3 -5 -5
-4 -5 4 3 -3 -3 -5 -5
-4 -5 4 3 -3 -3 -5 -5
-4 -5 4 3 -3 -3 -5 -5
-5 -6 5 4 -2 -4 -6 -6
-5 -6 5 4 -2 -4 -6 -6
-5 -6 5 4 -2 -4 -6 -6
-5 -6 5 4 -2 -4 -6 -6
-5 -6 5 4 -2 -4 -6 -6
-6 -5 5 3 -3 -4 -5 -5
-6 -5 5 2 -3 -5 -5 -5
-5 -5 4 2 -3 -5 -5 -6
-5 -5 4 1 -3 -6 -5 -6
-5 -5 4 1 -3 -6 -5 -6
-4 -5 3 0 -4 -7 -6 -7
-4 -5 3 0 -4 -7 -6 -7
-3 -5 3 0 -4 -7 -6 -7
-3 -5 3 0 -4 -7 -6 -7
-3 -5 3 0 -4 -7 -6 -7
-2 -4 2 1 -5 -7 -7 -7
-2 -4 2 1 -5 -7 -7 -7
-3 -4 3 2 -4 -6 -6 -7
-3 -4 3 2 -4 -6 -6 -7
-3 -4 3 2 -4 -6 -6 -7
-4 -5 4 3 -3 -5 -5 -7
-4 -4 4 3 -3 -5 -5 -7
-4 -3 4 3 -3 -5 -5 -6
-4 -2 4 3 -3 -5 -5 -6
-4 -2 4 3 -3 -5 -5 -6
-4 0 5 2 -3 -6 -4 -5
-3 1 6 2 -2 -6 -4 -5
-2 2 6 3 -2 -6 -4 -5
0 3 7 3 0 -6 -4 -5
1 4 7 3 0 -6 -4 -5
2 5 9 4 1 -5 -5 -5
1 6 10 5 2 -4 -4 -4
1 6 11 6 3 -4 -3 -4
0 7 13 7 4 -3 -2 -3
0 7 14 7 5 -3 -2 -3
-2 9 15 8 6 -2 0 -2
0 10 15 9 6 0 1 0
0 11 15 9 6 0 1 1
1 13 15 10 6 1 2 2
1 14 15 10 6 1 2 3
2 15 14 11 7 2 3 4
3 15 14 11 7 2 4 4
4 15 14 11 8 2 4 5
5 15 14 11 8 2 5 5
6 15 14 11 8 2 5 5
7 16 13 11 9 3 6 6
7 15 11 10 8 3 5 6
7 14 10 9 8 2 5 6
7 13 9 8 7 2 4 6
7 13 8 8 7 2 4 6
8 12 7 7 6 1 3 5
9 11 6 6 6 1 3 5
9 11 5 6 5 0 3 5
10 10 4 5 5 0 3 5
10 10 3 5 5 0 3 5
10 8 2 4 4 -2 2 4
8 6 2 4 3 -3 1 3
6 4 3 4 3 -4 1 2
4 3 3 4 2 -5 0 1
2 1 3 4 2 -5 0 0
1 0 4 3 1 -6 -3 -2
1 -3 4 2 0 -8 -4 -3
0 -4 4 1 -2 -9 -5 -4
0 -5 4 0 -3 -10 -7 -5
0 -6 4 0 -4 -11 -8 -6
-2 -7 3 -2 -5 -12 -9 -7
-2 -7 3 -2 -5 -12 -9 -7
-2 -7 3 -3 -5 -12 -9 -7
-2 -7 3 -3 -5 -12 -9 -7
-2 -7 3 -3 -5 -12 -9 -7
-3 -7 2 -4 -6 -13 -10 -8
-3 -7 2 -4 -6 -13 -10 -8
-3 -7 2 -4 -6 -13 -10 -8
-3 -7 2 -4 -6 -13 -10 -8
-3 -7 2 -4 -6 -13 -10 -8
-4 -6 2 -5 -7 -14 -11 -9
-4 -6 2 -5 -7 -14 -11 -9
-4 -6 2 -6 -8 -14 -11 -9
-4 -6 2 -6 -8 -14 -11 -9
-4 -6 2 -6 -8 -14 -11 -9
-4 -7 1 -7 -9 -15 -11 -9
-4 -7 1 -7 -9 -15 -11 -9
-4 -7 1 -7 -9 -15 -11 -9
-4 -7 1 -7 -9 -15 -11 -9
-4 -7 1 -7 -9 -15 -11 -9
-3 -6 0 -7 -9 -15 -10 -9
-3 -6 0 -7 -9 -15 -10 -9
-3 -6 1 -6 -9 -15 -10 -9
-3 -6 1 -6 -9 -15 -10 -9
-3 -6 1 -6 -9 -15 -10 -9
-4 -6 2 -5 -8 -14 -10 -10
-2 -9 2 -4 -8 -16 -11 -12
0 -11 2 -3 -8 -17 -12 -14
1 -14 2 -2 -8 -18 -13 -16
2 -16 2 -2 -8 -19 -14 -18
3 -17 9 8 0 -17 -14 -19
4 -17 17 19 9 -13 -13 -19
5 -16 25 29 17 -9 -12 -19
6 -16 33 40 26 -5 -10 -19
7 -16 42 52 35 1 -9 -19
11 -3 50 66 51 16 6 -7
15 14 58 81 68 34 24 11
19 30 67 97 87 53 43 28
23 48 75 112 104 72 61 45
28 64 85 128 121 91 79 62
31 88 77 119 127 109 103 88
35 113 65 102 127 127 129 116
38 140 52 85 126 144 154 144
43 165 39 67 126 161 179 173
47 192 26 50 126 179 204 201
45 198 5 20 102 175 204 205
40 196 -21 -14 72 161 195 201
35 195 -46 -49 42 148 186 197
31 194 -70 -82 12 135 177 193
27 193 -96 -117 -19 122 168 188
18 167 -105 -133 -44 88 132 156
9 132 -109 -144 -68 46 88 115
0 97 -113 -154 -92 4 44 74
-11 62 -117 -165 -115 -37 1 33
-20 27 -121 -176 -140 -79 -44 -8
-23 13 -114 -165 -137 -86 -54 -19
-22 6 -102 -147 -122 -78 -52 -22
-21 -2 -89 -129 -109 -72 -49 -24
-20 -9 -76 -110 -96 -65 -47 -27
-20 -16 -64 -92 -82 -59 -45 -29
-18 -18 -54 -78 -71 -53 -40 -29
-15 -17 -45 -66 -61 -47 -36 -26
-13 -16 -35 -55 -52 -40 -32 -23
-10 -15 -26 -43 -41 -34 -28 -21
-8 -15 -17 -30 -31 -28 -24 -18
-7 -14 -13 -26 -27 -26 -22 -17
-7 -14 -11 -24 -25 -25 -22 -17
-7 -13 -10 -21 -24 -25 -22 -17
-7 -13 -8 -19 -22 -24 -22 -17
-7 -13 -6 -17 -20 -24 -22 -17
-7 -12 -5 -16 -19 -23 -21 -17
-7 -13 -5 -15 -19 -23 -21 -17
-7 -13 -5 -14 -19 -23 -21 -17
-7 -14 -5 -13 -19 -23 -21 -17
-7 -14 -5 -12 -19 -23 -21 -17
-6 -15 -4 -11 -18 -22 -20 -18
-6 -15 -4 -11 -17 -22 -20 -18
-6 -15 -4 -11 -17 -22 -20 -18
-6 -15 -4 -11 -16 -22 -20 -18
-6 -15 -4 -11 -16 -22 -20 -18
-5 -14 -3 -10 -15 -21 -19 -17
-5 -14 -3 -10 -15 -20 -19 -17
-5 -14 -2 -9 -14 -20 -18 -17
-5 -14 -2 -9 -14 -19 -18 -17
-5 -14 -2 -9 -14 -19 -18 -17
-6 -13 0 -8 -13 -18 -17 -16
-5 -13 0 -8 -13 -18 -17 -16
-5 -13 0 -8 -13 -18 -18 -16
-4 -13 0 -8 -13 -18 -18 -16
-4 -13 0 -8 -13 -18 -18 -16
-3 -13 0 -8 -13 -18 -19 -16
-3 -13 0 -8 -13 -18 -19 -16
-4 -12 0 -8 -13 -18 -18 -16
-4 -12 0 -8 -13 -18 -18 -16
-4 -12 0 -8 -13 -18 -18 -16
-5 -11 0 -7 -13 -18 -17 -15
-5 -11 0 -7 -12 -18 -17 -15
-5 -11 0 -7 -12 -17 -16 -15
-5 -11 0 -7 -11 -17 -16 -15
-5 -11 0 -7 -11 -17 -16 -15
-6 -12 1 -6 -10 -16 -15 -14
-6 -12 1 -6 -10 -16 -15 -14
-6 -12 1 -6 -10 -16 -15 -14
-6 -12 1 -6 -10 -16 -15 -14
-6 -12 1 -6 -10 -16 -15 -14
-6 -11 0 -6 -11 -16 -15 -13
-6 -11 0 -6 -11 -16 -15 -13
-5 -11 0 -6 -10 -16 -15 -13
-5 -11 0 -6 -10 -16 -15 -13
-5 -11 0 -6 -10 -16 -15 -13
-4 -12 0 -5 -9 -16 -15 -14
-4 -12 0 -5 -10 -16 -15 -14
-3 -11 0 -5 -10 -16 -15 -14
-3 -11 0 -5 -11 -16 -15 -14
-3 -11 0 -5 -11 -16 -15 -14
-2 -10 -2 -6 -12 -15 -15 -14
-2 -10 -2 -6 -12 -15 -15 -14
-2 -10 -2 -6 -11 -15 -15 -14
-2 -10 -2 -6 -11 -15 -15 -14
-2 -10 -2 -6 -11 -15 -15 -14
-2 -11 0 -6 -10 -15 -15 -14
-2 -11 -2 -6 -10 -15 -15 -14
0 -11 -2 -6 -10 -15 -15 -14
0 -11 -3 -6 -10 -15 -15 -14
0 -11 -3 -6 -10 -15 -15 -14
1 -10 -4 -7 -11 -15 -15 -14
1 -10 -4 -7 -11 -15 -15 -13
1 -9 -4 -7 -11 -15 -15 -13
1 -9 -4 -7 -11 -15 -15 -12
1 -9 -4 -7 -11 -15 -15 -12
0 -8 -4 -6 -11 -14 -14 -11
0 -8 -4 -6 -11 -14 -14 -11
0 -8 -4 -6 -11 -14 -13 -11
0 -8 -4 -6 -11 -14 -13 -11
0 -8 -4 -6 -11 -14 -13 -11
0 -8 -5 -7 -11 -13 -12 -11
1 -8 -5 -7 -11 -13 -12 -11
1 -8 -5 -7 -11 -13 -12 -12
2 -8 -5 -7 -11 -13 -12 -12
2 -8 -5 -7 -11 -13 -12 -12
3 -7 -6 -8 -11 -14 -13 -13
3 -7 -6 -8 -11 -14 -12 -12
3 -7 -6 -8 -11 -13 -12 -11
3 -7 -6 -8 -11 -13 -11 -11
3 -7 -6 -8 -11 -13 -11 -10
4 -7 -7 -9 -11 -12 -10 -9
4 -7 -7 -9 -11 -12 -10 -9
3 -7 -7 -9 -10 -11 -9 -8
3 -7 -7 -9 -10 -11 -9 -8
3 -7 -7 -9 -10 -11 -9 -8
2 -6 -8 -8 -9 -10 -8 -7
3 -6 -9 -9 -10 -10 -8 -7
4 -5 -10 -9 -11 -10 -8 -7
5 -5 -10 -10 -11 -10 -8 -7
6 -5 -11 -10 -12 -10 -8 -7
7 -4 -12 -11 -13 -10 -8 -6
7 -4 -12 -12 -13 -10 -8 -6
7 -4 -13 -12 -13 -10 -8 -6
7 -4 -13 -13 -13 -10 -8 -6
7 -4 -13 -13 -13 -10 -8 -6
8 -3 -14 -14 -13 -10 -7 -5
9 -3 -15 -15 -14 -10 -7 -4
9 -3 -16 -15 -14 -10 -6 -4
10 -3 -16 -16 -15 -10 -6 -3
10 -3 -17 -16 -15 -10 -6 -3
11 -2 -18 -17 -16 -10 -5 -2
12 -2 -19 -18 -16 -10 -5 -2
13 -2 -20 -19 -17 -10 -5 -2
14 -2 -20 -19 -17 -10 -5 -2
15 -2 -21 -20 -17 -10 -5 -2
16 -2 -22 -21 -18 -10 -5 -3
16 -2 -22 -21 -18 -10 -4 -2
17 -2 -22 -21 -19 -10 -3 0
17 -2 -22 -21 -20 -10 -3 0
17 -2 -22 -21 -20 -10 -2 1
18 0 -23 -22 -21 -9 0 2
18 0 -23 -22 -21 -9 0 2
18 0 -23 -23 -21 -8 0 3
18 0 -23 -23 -21 -8 0 3
18 0 -23 -23 -21 -8 0 3
18 1 -23 -24 -20 -7 0 4
18 1 -23 -24 -20 -7 0 4
19 2 -24 -24 -21 -8 0 4
19 2 -24 -24 -21 -9 0 4
19 2 -24 -24 -21 -9 0 4
20 3 -25 -24 -22 -10 0 3
20 3 -24 -24 -22 -10 0 4
20 4 -23 -23 -21 -9 0 5
20 4 -23 -22 -21 -9 0 6
20 4 -22 -22 -21 -9 0 7
19 5 -21 -21 -20 -8 1 8
19 5 -21 -21 -20 -8 1 8
19 6 -20 -20 -19 -7 2 8
19 6 -20 -20 -19 -6 2 8
19 6 -20 -20 -19 -6 2 8
18 7 -18 -18 -17 -5 3 9
18 7 -17 -17 -16 -4 3 9
18 7 -15 -15 -14 -3 4 9
18 7 -14 -14 -12 -2 5 9
18 7 -12 -12 -10 0 5 9
17 7 -11 -10 -9 1 6 10
17 7 -11 -9 -7 1 6 10
17 8 -10 -7 -6 2 7 10
17 9 -10 -5 -4 3 7 10
17 9 -10 -3 -3 3 7 10
16 10 -8 0 0 4 8 11
16 10 -6 2 1 5 8 11
15 10 -4 4 3 7 9 11
14 10 -2 6 4 8 10 11
14 10 1 8 6 9 10 11
13 11 2 9 7 10 11 12
13 11 3 10 8 10 11 12
13 11 5 12 10 11 11 12
13 11 6 13 11 11 11 12
13 11 7 14 12 11 11 12
12 11 8 15 13 12 12 11
11 11 9 16 13 12 12 11
9 10 11 17 14 12 11 10
8 10 12 18 15 12 11 10
6 10 13 19 15 12 11 10
5 9 14 20 16 13 10 9
5 9 14 20 16 13 10 9
5 9 13 19 16 13 9 8
5 9 12 19 16 13 9 8
5 9 12 19 16 13 9 8
4 8 11 18 15 12 8 7
4 8 11 18 15 12 8 7
3 7 11 18 15 12 8 7
3 7 11 18 15 12 8 7
3 7 11 18 15 12 8 7
2 6 12 18 15 12 8 6
2 6 12 18 15 12 8 6
2 6 12 18 15 12 7 6
2 6 12 18 15 12 7 6
2 6 12 18 15 12 7 6
2 6 13 19 14 11 6 6
1 6 13 19 14 11 6 6
0 6 14 19 14 11 6 6
0 6 14 19 14 11 6 6
-2 6 14 19 14 11 6 6
-3 6 15 19 15 12 7 6
-3 6 15 19 15 12 7 6
-3 6 15 19 16 12 7 6
-3 6 15 19 16 12 7 6
-3 6 15 19 16 12 7 6
-4 6 14 19 17 12 6 7
-3 6 14 19 17 12 6 7
-2 6 14 19 17 12 6 7
-2 6 14 19 17 12 6 7
0 6 14 19 17 12 6 7
1 6 14 19 16 12 6 6
1 6 14 19 16 12 6 6
0 6 14 19 16 12 6 6
0 6 14 19 16 12 6 6
0 6 14 19 16 12 6 6
-2 7 13 20 16 12 7 7
-2 7 13 20 16 12 7 7
-2 7 13 20 16 12 7 7
-2 7 13 20 16 12 7 7
-2 7 13 20 16 12 7 7
0 7 14 20 17 12 7 6
0 7 14 20 17 12 7 6
0 7 14 20 17 12 7 6
0 7 14 20 17 12 7 6
0 7 14 20 17 12 7 6
-2 8 13 19 16 13 7 6
-2 8 13 19 16 13 7 6
0 8 13 19 16 13 7 6
0 8 13 19 16 13 7 6
0 8 13 19 16 13 7 6
1 7 13 20 17 14 7 6
1 7 13 20 17 14 7 6
1 7 12 19 16 13 7 6
1 7 12 18 15 13 7 6
1 7 12 18 15 13 7 6
2 7 11 17 14 12 6 7
2 7 11 17 14 12 6 7
2 6 11 17 14 12 6 7
2 6 11 17 14 12 6 7
2 6 11 17 14 12 6 7
2 5 11 16 13 11 7 7
2 5 11 16 13 11 7 7
1 5 11 16 13 11 7 7
1 5 11 16 13 11 7 7
1 5 11 16 13 11 7 7
0 4 12 16 13 11 6 6
0 4 12 16 13 11 6 6
0 4 11 15 12 11 6 5
0 4 10 15 11 11 6 5
0 4 10 15 11 11 6 5
1 3 9 14 10 10 5 4
1 3 9 14 10 9 4 4
1 3 9 13 9 8 3 4
1 3 9 12 8 7 3 4
1 3 9 12 8 6 2 4
0 3 8 11 7 5 1 3
0 3 8 11 7 5 1 3
1 2 8 11 6 5 1 2
2 2 8 11 6 5 1 2
2 2 8 11 6 5 1 2
3 1 8 11 5 4 0 1
2 1 8 11 5 4 0 1
1 1 8 11 5 4 0 1
1 1 8 11 5 4 0 1
0 1 8 11 5 4 0 1
-2 1 8 11 6 4 0 2
-2 1 8 11 6 4 0 2
-2 0 8 10 6 3 0 2
-2 0 8 10 6 3 0 2
-2 0 8 10 6 3 0 2
-2 -2 8 9 5 2 0 1
-2 -2 8 9 5 2 0 1
-2 -2 8 9 5 2 -2 1
-2 -2 8 9 5 2 -3 1
-2 -2 8 9 5 2 -3 1
-3 -2 8 8 5 3 -4 1
-2 -2 8 7 4 3 -4 1
0 -2 8 6 3 3 -4 0
0 -2 8 6 3 3 -4 -2
1 -2 8 5 2 3 -4 -2
2 -3 7 4 1 2 -5 -3
2 -3 7 4 1 2 -5 -3
1 -3 7 5 2 2 -5 -2
0 -3 7 6 3 2 -5 -2
0 -3 7 6 3 2 -5 -2
-2 -3 8 7 4 1 -4 0
-2 -3 8 7 4 1 -4 0
-2 -3 7 6 4 1 -4 0
-2 -3 7 6 4 1 -4 0
-2 -3 7 6 4 1 -4 0
-3 -4 6 5 3 2 -3 0
-3 -4 6 5 3 2 -3 0
-3 -4 6 5 2 2 -4 0
-3 -4 6 5 2 2 -4 0
-3 -4 6 5 2 2 -4 0
-4 -4 5 4 1 1 -5 -2
-4 -4 5 4 1 1 -5 -2
-4 -4 6 4 2 1 -5 -2
-4 -4 6 4 2 1 -5 -2
-4 -4 6 4 2 1 -5 -2
-5 -4 7 5 3 1 -5 -2
-5 -4 7 5 3 1 -5 -2
-5 -4 6 4 2 0 -5 -3
-5 -4 6 4 2 0 -5 -3
-5 -4 6 4 2 0 -5 -3
-4 -4 5 3 1 -2 -6 -4
-4 -4 5 3 1 -2 -6 -4
-4 -4 5 3 1 -2 -6 -4
-4 -4 5 3 1 -2 -6 -4
-4 -4 5 3 1 -2 -6 -4
-4 -4 5 4 1 0 -5 -4
-4 -4 5 4 1 0 -5 -4
-3 -5 5 4 1 0 -5 -4
-3 -5 5 4 1 0 -5 -4
-3 -5 5 4 1 0 -5 -4
-2 -6 5 3 1 0 -5 -3
-2 -6 5 3 1 0 -5 -3
-2 -6 5 3 1 0 -5 -3
-2 -6 5 3 1 0 -5 -3
-2 -6 5 3 1 0 -5 -3
-3 -5 6 3 0 -2 -6 -3
-3 -5 6 3 0 -2 -6 -3
-2 -5 5 3 0 -3 -7 -4
-2 -5 5 3 0 -3 -7 -4
-2 -5 5 3 0 -3 -7 -4
0 -5 4 3 -2 -4 -8 -5
0 -5 4 3 -2 -4 -8 -5
-2 -5 5 4 -2 -3 -7 -5
-3 -5 5 4 -2 -3 -6 -5
-3 -5 5 4 -2 -3 -6 -5
-4 -6 6 5 0 -2 -5 -4
-4 -6 6 5 0 -2 -5 -4
-5 -6 5 4 0 -2 -5 -4
-5 -6 4 3 0 -2 -5 -4
-5 -6 4 3 0 -2 -5 -4
-6 -7 3 2 0 -2 -5 -4
-6 -7 3 2 0 -2 -5 -4
-6 -7 3 2 0 -2 -5 -4
-5 -7 3 2 0 -2 -5 -4
-5 -7 3 2 0 -2 -5 -4
-4 -7 4 3 -2 -3 -5 -4
-4 -7 4 3 -2 -3 -5 -4
-4 -7 4 3 -2 -3 -5 -4
-4 -7 4 3 -2 -3 -5 -4
-4 -7 4 3 -2 -3 -5 -4
-5 -6 4 3 0 -2 -6 -3
-5 -6 4 3 0 -2 -6 -3
-5 -6 4 3 0 -2 -6 -3
-5 -6 4 3 0 -3 -6 -3
-5 -6 4 3 0 -3 -6 -3
-5 -7 4 3 -2 -4 -6 -4
-5 -7 4 3 -2 -4 -6 -4
-5 -7 4 3 -2 -4 -6 -4
-5 -7 4 3 -2 -4 -6 -4
-5 -7 4 3 -2 -4 -6 -4
-4 -6 3 2 -3 -4 -6 -4
-4 -6 3 2 -3 -4 -6 -4
-5 -6 3 2 -3 -4 -6 -4
-6 -6 3 2 -3 -4 -6 -4
-6 -6 3 2 -3 -4 -6 -4
-7 -6 4 3 -2 -4 -6 -4
-7 -6 4 3 -2 -4 -6 -4
-7 -6 4 3 -2 -4 -6 -4
-7 -6 4 3 -2 -4 -6 -5
-7 -6 4 3 -2 -4 -6 -5
-6 -7 5 4 0 -4 -7 -6
-6 -7 5 4 0 -4 -7 -6
-6 -7 5 4 0 -4 -7 -6
-6 -7 4 4 0 -4 -7 -6
-6 -7 4 4 0 -4 -7 -6
-6 -7 3 3 -2 -5 -7 -5
-6 -7 3 3 -2 -5 -7 -5
-6 -7 3 3 -2 -5 -7 -5
-6 -7 3 3 -2 -6 -8 -6
-6 -7 3 3 -2 -6 -8 -6
-5 -7 3 3 -3 -7 -9 -7
-5 -7 3 3 -3 -7 -9 -7
-5 -7 3 3 -3 -6 -8 -7
-6 -7 3 3 -2 -5 -7 -6
-6 -7 3 3 -2 -5 -7 -6
-7 -7 2 2 0 -4 -6 -5
-7 -7 2 2 0 -4 -6 -5
-7 -7 2 2 0 -4 -6 -5
-6 -7 2 2 -2 -5 -6 -6
-6 -7 2 2 -2 -5 -6 -6
-5 -6 2 1 -3 -6 -7 -7
-5 -6 2 1 -3 -6 -7 -7
-4 -6 2 1 -3 -6 -7 -7
-3 -6 2 1 -3 -6 -7 -7
-3 -6 2 1 -3 -6 -7 -7
-2 -7 3 2 -3 -7 -8 -8
-2 -6 3 2 -3 -7 -8 -7
-2 -6 3 2 -3 -7 -8 -7
-2 -5 3 2 -3 -6 -7 -6
-2 -4 3 2 -3 -6 -7 -5
-2 -3 3 1 -3 -5 -6 -4
-2 -2 4 3 0 -4 -5 -3
-2 0 5 4 1 -3 -4 -3
-3 1 7 5 2 0 -3 -2
-3 2 8 7 4 1 -2 0
-4 3 9 8 5 2 0 1
-4 3 10 8 5 2 0 1
-4 3 10 9 5 2 0 1
-4 4 11 10 6 2 0 1
-4 4 12 10 6 2 0 1
-4 5 13 11 7 3 1 0
-3 6 13 11 7 3 2 1
-2 7 13 11 7 4 2 1
0 9 13 11 8 5 3 2
1 10 13 11 8 5 4 3
2 11 13 11 9 6 5 4
2 11 13 11 9 6 5 4
2 11 13 11 9 6 5 4
2 11 13 11 9 6 5 4
2 11 13 11 9 6 5 4
3 11 12 11 9 6 5 4
3 10 11 11 9 6 5 4
3 10 10 11 9 6 5 4
4 9 9 10 9 6 5 4
4 8 8 10 9 6 5 4
5 7 7 9 9 7 4 4
5 6 6 8 8 6 4 4
5 5 5 7 8 6 4 3
6 4 4 6 7 5 3 2
6 3 3 5 6 4 3 2
7 2 2 4 5 3 2 1
6 1 2 4 5 3 1 0
5 0 2 4 5 2 0 0
4 -2 2 4 4 1 -2 -2
3 -3 2 4 4 1 -3 -3
2 -4 3 3 3 0 -4 -4
1 -5 3 2 2 -2 -5 -5
-2 -6 3 1 1 -3 -6 -6
-3 -8 2 0 -2 -4 -7 -8
-5 -9 2 -2 -3 -5 -8 -9
-6 -10 1 -3 -4 -6 -9 -10
-6 -10 1 -3 -4 -6 -9 -10
-6 -10 1 -3 -4 -6 -9 -10
-7 -11 1 -3 -4 -6 -9 -10
-7 -11 1 -3 -4 -6 -9 -10
-8 -12 0 -4 -4 -7 -10 -11
-8 -12 0 -4 -4 -7 -10 -11
-8 -12 0 -4 -4 -7 -10 -11
-8 -12 0 -4 -4 -8 -10 -11
-8 -12 0 -4 -4 -8 -10 -11
-7 -12 0 -3 -5 -9 -10 -10
-7 -12 0 -3 -5 -9 -10 -10
-7 -12 0 -3 -5 -9 -10 -10
-8 -12 0 -4 -5 -9 -10 -10
-8 -12 0 -4 -5 -9 -10 -10
-9 -13 0 -5 -6 -8 -10 -11
-9 -13 0 -5 -6 -8 -10 -11
-9 -13 0 -5 -6 -8 -11 -11
-8 -13 0 -5 -6 -8 -12 -12
-8 -13 0 -5 -6 -8 -12 -12
-7 -13 -2 -4 -7 -9 -13 -13
-8 -13 -2 -4 -7 -9 -13 -13
-8 -13 -2 -4 -7 -9 -12 -13
-9 -12 -2 -4 -7 -9 -11 -12
-10 -12 -2 -4 -7 -9 -11 -12
-11 -11 -3 -4 -6 -8 -10 -11
-10 -13 -3 -4 -6 -9 -11 -13
-9 -15 -3 -3 -6 -9 -12 -15
-8 -17 -2 -2 -6 -10 -14 -17
-7 -18 -2 -2 -6 -11 -15 -18
-6 -20 2 3 -3 -12 -16 -20
-4 -20 9 12 5 -10 -15 -20
-2 -20 16 21 12 -8 -14 -21
1 -21 23 30 19 -6 -13 -22
2 -21 29 39 25 -4 -12 -22
6 -17 37 52 36 5 -5 -18
12 -2 48 67 54 22 11 -4
19 13 57 84 71 40 27 11
25 28 66 100 89 58 43 26
32 44 76 116 106 75 59 40
37 63 77 120 117 93 78 60
40 90 64 103 117 110 103 89
44 117 50 85 117 128 129 117
47 144 35 67 117 144 153 146
51 171 22 50 117 161 179 174
52 188 4 27 108 171 193 192
48 190 -20 -4 84 162 191 194
44 192 -44 -34 59 155 188 196
39 194 -68 -64 34 147 186 198
35 196 -92 -95 10 140 183 199
28 185 -108 -118 -15 119 164 186
18 148 -111 -130 -43 77 118 143
7 111 -115 -141 -69 35 73 101
-4 75 -119 -152 -96 -7 28 58
-15 38 -122 -164 -122 -49 -17 15
-22 13 -121 -165 -135 -74 -46 -13
-22 6 -108 -148 -121 -69 -46 -17
-22 -2 -96 -131 -108 -64 -46 -21
-21 -8 -83 -112 -94 -59 -46 -26
-21 -15 -70 -95 -80 -55 -46 -30
-20 -20 -59 -79 -68 -49 -46 -33
-18 -19 -50 -68 -59 -44 -40 -30
-16 -18 -40 -57 -50 -37 -35 -27
-14 -16 -31 -46 -39 -32 -30 -25
-13 -15 -22 -34 -30 -26 -25 -22
-11 -14 -16 -26 -24 -22 -21 -20
-11 -14 -15 -24 -23 -22 -21 -20
-11 -14 -14 -22 -21 -22 -21 -20
-11 -15 -12 -20 -20 -21 -21 -20
-11 -15 -11 -19 -18 -21 -21 -20
-12 -16 -10 -17 -17 -20 -21 -21
-12 -16 -10 -17 -17 -20 -21 -21
-12 -16 -10 -17 -17 -20 -21 -21
-12 -16 -10 -17 -17 -20 -21 -21
-12 -16 -10 -17 -17 -20 -21 -21
-12 -17 -10 -16 -17 -20 -20 -22
-12 -17 -9 -15 -16 -20 -20 -22
-12 -17 -8 -14 -15 -19 -20 -22
-12 -17 -6 -13 -14 -18 -20 -22
-12 -17 -5 -12 -13 -18 -20 -22
-12 -17 -4 -11 -12 -17 -20 -22
-12 -17 -4 -11 -12 -17 -20 -22
-12 -17 -4 -11 -12 -17 -20 -22
-12 -17 -4 -11 -12 -17 -20 -22
-12 -17 -4 -11 -12 -17 -20 -22
-13 -16 -4 -10 -13 -17 -20 -22
-13 -16 -4 -10 -12 -17 -20 -22
-13 -16 -4 -10 -12 -17 -20 -22
-12 -16 -4 -9 -11 -17 -19 -22
-12 -16 -4 -9 -10 -17 -19 -22
-11 -15 -3 -8 -9 -16 -18 -22
-11 -15 -3 -8 -9 -16 -18 -22
-11 -15 -3 -8 -9 -16 -18 -22
-10 -15 -3 -8 -9 -17 -18 -22
-10 -15 -3 -8 -9 -17 -18 -22
-9 -15 -4 -8 -10 -18 -19 -22
-9 -15 -4 -8 -9 -18 -19 -22
-9 -15 -4 -8 -9 -18 -19 -22
-9 -15 -4 -7 -8 -17 -19 -22
-9 -15 -4 -7 -7 -17 -19 -22
-8 -14 -3 -6 -6 -16 -18 -22
-8 -14 -3 -6 -6 -16 -18 -22
-9 -14 -3 -6 -6 -16 -18 -22
-10 -14 -3 -6 -7 -16 -18 -22
-10 -14 -3 -6 -7 -16 -18 -22
-11 -14 -3 -7 -8 -16 -17 -21
-11 -14 -3 -7 -8 -16 -17 -21
-10 -14 -3 -7 -8 -16 -17 -21
-9 -14 -3 -6 -8 -16 -17 -21
-9 -14 -3 -6 -8 -16 -17 -21
-8 -14 -2 -5 -7 -17 -17 -22
-8 -14 -2 -5 -7 -17 -17 -22
-8 -14 -2 -5 -7 -17 -16 -22
-8 -14 -2 -5 -7 -16 -16 -21
-8 -14 -2 -5 -7 -16 -15 -21
-8 -13 -2 -5 -6 -15 -14 -20
-8 -13 -2 -5 -6 -15 -14 -20
-8 -13 -2 -5 -6 -15 -14 -20
-8 -13 -2 -5 -6 -15 -14 -20
-8 -13 -2 -5 -6 -15 -14 -20
-8 -13 0 -4 -6 -16 -15 -19
-8 -13 0 -4 -6 -16 -15 -19
-7 -13 0 -4 -6 -16 -15 -19
-7 -13 0 -4 -6 -16 -15 -19
-6 -13 0 -4 -6 -16 -15 -19
-5 -12 -2 -5 -7 -15 -15 -20
-5 -12 -2 -5 -7 -15 -15 -20
-5 -12 -2 -5 -7 -15 -15 -20
-5 -12 -2 -5 -6 -15 -14 -20
-5 -12 -2 -5 -6 -15 -14 -20
-6 -11 -2 -4 -5 -15 -13 -20
-6 -11 -2 -4 -5 -15 -13 -20
-6 -11 -2 -4 -5 -15 -13 -20
-5 -11 -3 -5 -6 -14 -13 -19
-5 -11 -3 -5 -6 -14 -13 -19
-4 -11 -4 -6 -7 -13 -12 -18
-4 -11 -4 -6 -7 -13 -12 -18
-4 -11 -4 -6 -7 -12 -12 -18
-4 -11 -4 -6 -6 -12 -12 -17
-4 -11 -4 -6 -6 -11 -12 -17
-5 -11 -4 -5 -5 -10 -11 -16
-5 -11 -4 -5 -5 -10 -11 -16
-5 -11 -4 -5 -5 -10 -11 -16
-4 -10 -5 -6 -5 -10 -11 -15
-4 -10 -5 -6 -5 -10 -11 -15
-3 -9 -6 -7 -6 -11 -10 -14
-3 -9 -6 -7 -6 -11 -10 -14
-3 -9 -6 -7 -6 -11 -10 -14
-3 -8 -6 -7 -6 -11 -10 -14
-3 -8 -6 -7 -6 -11 -10 -14
-2 -7 -7 -7 -6 -11 -9 -14
0 -7 -7 -7 -6 -11 -9 -14
0 -7 -8 -8 -7 -11 -9 -14
1 -7 -8 -8 -7 -11 -9 -14
2 -7 -9 -9 -8 -11 -9 -14
3 -6 -10 -10 -9 -11 -9 -13
3 -6 -10 -10 -9 -11 -9 -13
3 -5 -10 -10 -9 -11 -9 -13
3 -5 -10 -10 -9 -11 -9 -12
3 -4 -10 -10 -9 -11 -9 -12
2 -3 -11 -11 -9 -11 -8 -11
3 -3 -11 -12 -9 -11 -8 -11
3 -3 -12 -12 -10 -11 -8 -11
4 -3 -12 -13 -10 -11 -8 -11
5 -3 -13 -14 -11 -11 -8 -11
6 -3 -14 -15 -12 -11 -7 -10
7 -3 -14 -15 -12 -11 -7 -10
7 -2 -14 -16 -12 -11 -7 -10
8 -2 -15 -16 -12 -11 -6 -9
9 0 -15 -17 -12 -11 -6 -9
10 1 -16 -18 -13 -11 -5 -8
10 1 -16 -18 -13 -11 -5 -8
10 2 -16 -18 -14 -11 -5 -8
10 2 -17 -19 -14 -11 -4 -7
10 3 -17 -19 -15 -11 -4 -7
10 4 -18 -20 -16 -11 -3 -6
10 4 -18 -20 -16 -11 -3 -6
10 4 -18 -20 -16 -11 -3 -6
11 4 -18 -20 -16 -11 -3 -6
11 4 -18 -20 -16 -11 -3 -6
12 4 -19 -21 -16 -11 -3 -5
12 4 -19 -21 -16 -11 -3 -5
12 4 -19 -21 -16 -11 -2 -4
12 5 -19 -20 -16 -11 -2 -4
12 5 -19 -20 -16 -11 0 -3
13 6 -19 -19 -16 -10 1 -2
13 6 -18 -19 -16 -10 1 -2
13 6 -18 -19 -15 -9 1 -2
13 6 -17 -18 -15 -9 1 0
13 6 -16 -18 -14 -8 1 0
12 7 -15 -17 -13 -7 2 1
12 7 -15 -17 -12 -7 2 1
12 8 -14 -17 -12 -6 3 1
13 8 -14 -16 -11 -6 3 1
13 9 -13 -16 -10 -5 4 1
14 10 -12 -15 -9 -4 5 2
14 10 -11 -14 -8 -3 5 2
15 10 -11 -12 -6 -2 5 2
15 11 -10 -11 -5 0 6 3
16 11 -9 -10 -4 2 6 3
17 12 -8 -8 -2 3 7 4
16 12 -7 -6 1 4 8 4
15 12 -5 -4 2 5 8 4
14 13 -4 -2 4 6 9 4
12 13 -3 1 5 7 10 4
11 14 0 3 7 8 11 5
11 14 1 4 8 9 11 5
11 14 2 5 9 9 11 5
11 14 3 6 10 10 12 5
11 14 4 8 12 11 12 5
11 13 5 9 13 12 13 6
11 13 6 11 14 12 13 6
11 13 7 12 16 13 13 6
11 13 8 14 17 13 13 6
11 13 9 15 18 14 13 6
11 13 10 17 20 15 14 5
11 13 10 17 20 15 14 5
10 13 10 17 20 15 14 5
10 13 10 17 20 15 13 4
9 13 10 17 20 15 13 4
8 12 11 17 20 15 12 3
7 12 11 17 20 15 12 3
5 12 11 17 20 15 12 3
4 11 11 18 20 15 12 3
3 11 11 18 20 15 12 3
1 10 12 19 21 16 12 4
1 10 12 19 21 16 12 4
1 10 12 18 21 16 11 3
1 9 11 18 20 15 11 3
1 9 11 17 20 15 10 2
1 8 10 16 19 14 9 1
1 8 10 16 19 14 9 1
1 8 10 16 19 14 9 1
1 8 10 16 18 14 9 1
1 8 10 16 18 14 9 1
2 7 10 15 17 13 8 0
2 7 10 15 17 13 8 0
1 7 10 15 17 13 8 0
1 7 10 15 17 13 8 0
0 7 10 15 17 13 8 0
-2 6 11 15 18 13 9 -2
-2 6 11 15 18 13 9 -2
-2 6 11 15 18 13 9 -2
-2 7 11 15 18 13 8 -2
-2 7 11 15 18 13 8 -2
-2 8 12 16 19 12 7 -3
-2 8 12 16 19 12 7 -3
-2 8 12 16 19 12 7 -3
-2 8 12 16 19 13 7 -3
-2 8 12 16 19 13 7 -3
-2 7 12 16 19 14 8 -2
-2 7 12 16 19 14 8 -2
-2 7 12 16 19 14 8 -2
-2 7 12 16 19 14 8 0
-2 7 12 16 19 14 8 0
-2 8 12 16 19 14 8 2
-2 8 12 16 19 14 8 8
-2 8 12 16 19 14 8 13
-2 8 12 16 19 14 8 19
-2 8 12 16 19 14 8 25
-2 8 13 16 18 14 8 30
-2 8 13 16 18 14 8 29
-2 8 13 16 18 14 8 28
-2 8 13 16 18 14 8 27
-2 8 13 16 18 14 8 26
-3 8 13 16 18 14 9 25
-3 8 13 16 18 14 9 24
-3 8 13 16 18 14 9 22
-3 8 13 16 18 14 9 21
-3 8 13 16 18 14 9 20
-2 8 12 15 19 13 8 18
-2 8 12 15 19 13 8 18
-2 8 12 15 18 13 8 17
0 8 12 15 18 13 8 17
0 8 12 15 17 13 8 16
1 7 12 15 16 12 7 15
1 7 12 15 16 12 7 15
1 7 12 15 16 12 7 15
1 7 12 15 16 12 7 14
1 7 12 15 16 12 7 14
0 6 12 14 16 13 7 13
0 6 12 14 16 13 7 13
0 6 12 13 15 12 7 13
0 6 11 13 14 11 7 13
0 6 11 12 13 10 7 13
-2 5 10 11 12 9 6 12
-2 5 10 11 12 9 6 12
-2 5 10 11 12 9 6 12
-2 5 10 11 12 9 6 11
-2 5 10 11 12 9 6 11
0 4 9 10 12 8 5 10
0 4 9 10 12 8 5 10
0 4 9 9 12 8 5 10
0 4 9 9 11 7 4 10
0 4 9 8 11 7 4 10
-2 3 8 7 10 6 3 9
-2 3 8 7 10 6 3 9
-2 3 8 7 10 6 3 9
-2 2 8 7 10 6 3 8
-2 2 8 7 10 6 3 8
-2 1 9 8 9 6 2 7
-2 1 9 8 9 6 2 7
-2 1 9 8 9 5 2 7
-2 1 8 7 8 4 1 7
-2 1 8 7 8 3 1 7
-3 1 7 6 7 2 0 7
-3 1 7 6 7 2 0 7
-2 1 7 6 7 2 0 6
-2 1 7 5 6 1 0 5
0 1 7 5 6 1 0 4
1 0 7 4 5 0 -2 3
1 0 7 4 5 0 -2 3
1 0 7 4 5 0 -3 3
0 0 7 4 5 0 -3 2
0 0 7 4 5 0 -4 2
-2 0 7 4 5 -2 -5 1
-2 0 7 4 5 -2 -5 1
-2 0 7 4 5 -2 -4 1
-3 0 7 4 5 0 -3 2
-3 0 7 4 5 0 -2 2
-4 -2 6 4 5 1 0 3
-4 -2 6 4 5 1 0 3
-4 -2 6 4 5 0 0 3
-4 -2 6 3 5 0 -2 3
-4 -2 6 3 5 -2 -2 3
-3 -3 6 2 4 -3 -3 2
-3 -3 6 2 4 -3 -3 2
-3 -3 6 2 4 -3 -3 2
-4 -3 6 3 4 -3 -3 2
-4 -3 6 3 4 -3 -3 2
-5 -4 6 4 3 -3 -3 2
-5 -4 6 4 3 -3 -3 2
-5 -4 6 4 3 -3 -3 2
-5 -4 6 4 3 -3 -3 2
-5 -4 6 4 3 -3 -3 2
-4 -3 5 3 3 -3 -4 2
-4 -3 5 3 3 -3 -4 2
-4 -3 5 3 3 -3 -4 2
-4 -3 5 3 3 -3 -4 2
-4 -3 5 3 3 -3 -4 2
-5 -4 6 3 3 -3 -3 1
-5 -4 6 3 3 -3 -3 1
-5 -4 6 3 3 -3 -3 1
-5 -4 6 3 3 -3 -3 1
-5 -4 6 3 3 -3 -3 1
-4 -5 5 3 3 -4 -3 1
-4 -5 5 3 3 -4 -3 1
-4 -5 5 3 3 -4 -3 1
-4 -5 5 3 3 -4 -3 1
-4 -5 5 3 3 -4 -3 1
-5 -5 5 2 3 -4 -4 0
-5 -5 5 2 3 -4 -4 0
-5 -5 5 2 3 -4 -4 0
-5 -5 5 2 3 -4 -4 0
-5 -5 5 2 3 -4 -4 0
-4 -4 6 2 3 -5 -3 1
-4 -4 6 2 3 -5 -3 1
-4 -4 6 2 3 -5 -3 1
-4 -4 6 2 3 -5 -3 1
-4 -4 6 2 3 -5 -3 1
-5 -5 6 3 2 -6 -4 0
-5 -5 6 3 2 -6 -4 0
-5 -5 6 3 2 -6 -4 0
-5 -5 6 3 2 -6 -4 0
-5 -5 6 3 2 -6 -4 0
-6 -5 5 3 2 -5 -4 0
-6 -5 5 3 2 -5 -4 0
-5 -5 5 3 2 -5 -4 0
-5 -6 5 3 2 -5 -5 0
-4 -6 5 3 2 -5 -5 0
-3 -7 5 3 2 -6 -6 -2
-3 -7 5 3 2 -6 -6 -2
-3 -7 5 3 2 -6 -6 -2
-4 -7 5 3 2 -6 -5 -2
-4 -7 5 3 2 -6 -5 -2
-5 -7 6 3 3 -6 -4 -2
-5 -7 6 3 3 -6 -4 -2
-5 -7 6 3 3 -6 -4 -2
-5 -7 6 3 3 -6 -4 0
-5 -7 6 3 3 -6 -4 0
-6 -8 5 2 2 -5 -3 1
-6 -8 5 2 2 -5 -3 1
-6 -8 5 2 2 -5 -3 1
-5 -8 5 2 2 -5 -3 1
-5 -8 5 2 2 -5 -3 1
-4 -8 6 2 2 -5 -4 0
-4 -8 6 2 2 -5 -4 0
-4 -8 6 2 2 -5 -4 0
-4 -8 6 2 2 -5 -4 0
-4 -8 6 2 2 -5 -4 0
-5 -9 5 2 1 -5 -3 -2
-5 -9 5 2 1 -5 -3 -2
-5 -9 5 2 1 -5 -3 -2
-5 -9 5 3 2 -5 -3 0
-5 -9 5 3 2 -5 -3 0
-6 -9 6 4 3 -4 -2 1
-6 -9 6 4 3 -4 -2 1
-6 -9 6 4 3 -4 -2 1
-6 -9 6 4 3 -4 -2 0
-6 -9 6 4 3 -4 -2 0
-6 -10 5 4 3 -5 -3 -2
-6 -10 5 4 3 -5 -3 -2
-5 -10 5 4 2 -5 -3 -2
-4 -10 5 3 2 -5 -3 -2
-3 -10 5 3 1 -5 -3 -2
-2 -10 5 2 0 -6 -4 -2
-2 -10 5 2 0 -6 -4 -2
-3 -10 5 2 0 -6 -4 -2
-4 -10 5 2 1 -6 -4 -2
-5 -10 5 2 1 -6 -4 -2
-6 -10 5 3 2 -6 -3 -2
-6 -10 5 3 2 -6 -3 -2
-5 -10 5 3 2 -6 -3 -2
-5 -10 5 3 2 -6 -3 -2
-4 -10 5 3 2 -6 -3 -2
-3 -10 4 3 2 -7 -4 -3
-3 -10 4 3 2 -7 -4 -3
-3 -10 5 3 2 -6 -3 -2
-4 -10 5 4 3 -5 -2 0
-4 -10 6 4 3 -4 0 1
-5 -11 7 5 4 -3 1 2
-5 -11 7 5 4 -3 1 2
-5 -11 7 5 3 -3 1 2
-5 -11 6 5 3 -4 1 1
-5 -11 6 5 2 -4 1 1
-5 -10 5 4 1 -5 0 0
-5 -10 5 4 1 -5 0 0
-5 -10 5 5 1 -5 0 0
-5 -10 6 5 2 -5 -2 0
-5 -10 6 6 2 -5 -2 0
-6 -10 7 7 3 -5 -3 0
-6 -10 7 7 3 -5 -3 0
-6 -10 7 7 3 -5 -3 0
-6 -10 7 6 3 -5 -3 0
-6 -10 7 6 3 -5 -3 0
-6 -10 7 5 3 -5 -2 1
-6 -10 7 5 3 -5 -2 1
-5 -10 7 5 3 -5 -2 1
-4 -10 6 5 2 -5 -2 1
-3 -10 6 5 2 -5 -2 1
-2 -11 5 5 1 -5 0 0
-2 -11 5 5 1 -5 0 0
-3 -11 5 5 1 -5 0 0
-3 -11 6 5 1 -5 0 0
-4 -11 6 5 1 -5 0 0
-5 -11 7 5 1 -4 -2 1
-5 -11 7 5 1 -4 -2 1
-4 -10 7 6 2 -4 -2 1
-4 -9 7 6 3 -3 0 2
-3 -8 7 7 4 -3 0 2
-2 -7 8 8 5 -2 1 3
-2 -6 9 9 5 -2 1 3
-2 -5 10 10 6 -2 1 4
0 -4 11 11 6 0 2 4
0 -3 12 12 7 0 2 5
1 -2 13 13 8 1 3 6
1 -2 13 13 8 1 3 6
1 -2 14 14 8 1 4 6
1 -2 15 15 9 2 4 6
1 -2 16 16 9 2 5 6
0 0 17 17 10 3 6 7
0 1 17 17 10 3 6 7
1 2 17 17 11 4 7 8
2 4 17 18 11 4 8 9
3 5 17 18 12 5 9 10
4 7 17 19 13 6 10 11
4 7 17 19 13 6 10 11
5 7 17 19 13 7 10 11
6 6 16 19 13 7 10 11
7 6 16 19 13 8 10 11
8 5 15 18 12 9 11 11
8 5 14 18 12 9 11 11
8 4 13 18 12 8 11 11
8 3 12 17 12 8 11 11
8 2 11 17 12 7 11 11
8 1 9 16 12 6 10 10
8 0 9 15 11 6 10 10
8 -2 8 14 10 5 9 9
8 -3 7 13 9 4 8 9
8 -4 6 12 8 3 7 8
9 -5 5 11 7 2 6 7
8 -6 5 11 7 2 6 7
6 -7 5 11 7 2 6 6
5 -8 6 11 6 1 5 6
3 -9 6 11 6 1 5 5
1 -11 7 10 5 0 4 4
0 -12 7 10 5 0 4 4
-2 -13 7 9 4 -2 3 3
-3 -14 6 8 3 -3 2 3
-4 -15 6 7 2 -4 1 2
-6 -16 5 6 1 -5 0 1
-6 -16 5 6 1 -5 0 1
-6 -16 5 6 1 -5 0 1
-7 -16 5 6 0 -5 0 1
-7 -16 5 6 0 -5 0 1
-8 -17 4 5 -2 -6 -2 1
-8 -17 4 5 -2 -6 -2 1
-8 -17 4 5 -2 -6 -2 0
-8 -17 4 5 -2 -7 -2 0
-8 -17 4 5 -2 -7 -2 -2
-7 -18 4 4 -2 -8 -3 -3
-7 -18 4 4 -2 -8 -3 -3
-7 -18 4 4 -2 -8 -3 -3
-7 -19 4 4 -2 -8 -3 -4
-7 -19 4 4 -2 -8 -3 -4
-6 -20 4 4 -3 -7 -3 -5
-6 -20 4 4 -3 -7 -3 -5
-6 -20 4 4 -3 -7 -3 -5
-7 -20 4 4 -3 -7 -2 -5
-7 -20 4 4 -3 -7 -2 -5
-8 -19 4 4 -2 -7 0 -4
-8 -19 4 4 -2 -7 0 -4
-8 -19 4 4 -2 -7 0 -4
-8 -19 4 4 -2 -7 -2 -4
-8 -19 4 4 -2 -7 -2 -4
-7 -19 5 4 -2 -7 -3 -4
-6 -21 5 5 -2 -7 -4 -6
-5 -24 6 6 -2 -7 -5 -8
-3 -26 6 8 0 -8 -6 -10
-2 -29 7 9 0 -8 -7 -12
1 -32 8 11 1 -9 -9 -14
2 -31 15 21 9 -5 -7 -14
3 -30 23 31 17 0 -4 -13
4 -28 30 43 26 4 -2 -12
5 -27 38 53 34 8 2 -11
7 -25 47 64 44 13 5 -10
15 -7 56 79 62 32 24 9
23 12 64 95 79 52 45 28
31 30 73 111 98 71 65 48
39 49 82 127 116 91 86 67
48 67 92 142 135 110 105 86
50 95 73 118 128 123 128 114
52 122 54 93 118 137 150 142
54 149 34 68 110 149 173 170
56 177 15 43 101 162 195 197
57 203 -5 18 93 175 217 225
53 197 -24 -9 67 161 205 218
47 190 -44 -35 43 147 193 209
40 182 -63 -62 18 132 181 199
34 175 -82 -89 -8 117 169 190
28 168 -101 -115 -32 103 156 182
18 133 -102 -120 -49 67 116 143
9 98 -102 -126 -65 31 76 103
-2 64 -101 -130 -81 -6 36 64
-11 29 -101 -135 -98 -41 -4 24
-20 -6 -101 -139 -114 -77 -44 -15
-21 -11 -88 -123 -103 -71 -41 -16
-21 -15 -75 -106 -89 -64 -37 -16
-20 -19 -63 -89 -75 -56 -33 -16
-20 -23 -51 -72 -62 -49 -29 -16
-20 -27 -38 -55 -49 -41 -26 -16
-18 -27 -32 -47 -41 -36 -22 -16
-17 -26 -26 -38 -35 -32 -19 -14
-16 -24 -20 -30 -29 -28 -16 -13
-15 -23 -14 -22 -23 -24 -13 -11
-14 -22 -9 -14 -17 -20 -10 -10
-13 -21 -8 -13 -16 -19 -9 -9
-13 -22 -7 -12 -15 -19 -9 -9
-13 -22 -6 -11 -14 -19 -10 -10
-13 -23 -5 -10 -13 -19 -10 -10
-13 -23 -5 -9 -13 -19 -10 -10
-13 -24 -4 -8 -12 -19 -11 -11
-13 -24 -3 -7 -12 -19 -11 -11
-12 -24 -2 -6 -11 -19 -12 -11
-12 -24 0 -5 -11 -19 -12 -11
-12 -24 1 -4 -11 -19 -12 -11
-11 -25 2 -3 -10 -20 -13 -12
-11 -25 2 -3 -9 -19 -12 -12
-11 -25 2 -3 -9 -19 -11 -12
-11 -25 2 -3 -8 -18 -10 -12
-11 -25 2 -3 -8 -18 -10 -12
-12 -25 2 -3 -7 -17 -9 -11
-12 -25 2 -2 -7 -17 -9 -11
-11 -25 3 -2 -7 -17 -9 -11
-11 -25 3 0 -7 -17 -9 -11
-11 -25 3 0 -7 -17 -9 -11
-10 -24 4 1 -7 -17 -10 -11
-10 -24 4 1 -7 -17 -10 -11
-10 -24 4 1 -6 -17 -10 -11
-10 -24 4 1 -6 -17 -10 -11
-10 -24 4 1 -6 -17 -10 -11
-9 -23 3 1 -5 -18 -9 -11
-9 -23 3 2 -5 -18 -9 -11
-9 -23 3 2 -5 -18 -9 -11
-9 -23 3 3 -5 -18 -9 -11
-9 -23 3 3 -5 -18 -9 -11
-9 -22 4 4 -5 -19 -10 -11
-9 -22 4 3 -5 -19 -10 -11
-9 -22 4 3 -4 -19 -10 -10
-9 -22 4 2 -4 -19 -10 -10
-9 -22 4 2 -4 -19 -10 -10
-9 -22 4 1 -3 -18 -9 -9
-9 -22 4 1 -3 -18 -9 -9
-9 -22 4 1 -4 -18 -9 -9
-9 -22 4 1 -4 -18 -9 -9
-9 -22 4 1 -4 -18 -9 -9
-8 -22 5 2 -5 -18 -9 -10
-8 -22 5 2 -4 -18 -8 -10
-9 -22 5 2 -4 -18 -8 -10
-9 -22 5 2 -3 -18 -7 -10
-9 -22 5 2 -3 -18 -7 -10
-10 -23 5 2 -2 -17 -6 -9
-9 -22 5 2 -2 -17 -6 -9
-8 -21 5 2 -3 -18 -7 -9
-7 -20 5 2 -3 -18 -7 -9
-7 -20 5 2 -3 -18 -7 -9
-6 -19 6 3 -4 -19 -8 -10
-6 -19 6 3 -4 -18 -8 -10
-7 -19 6 3 -4 -18 -7 -10
-7 -19 6 3 -4 -17 -7 -10
-7 -19 6 3 -4 -17 -7 -10
-8 -18 5 2 -4 -16 -6 -10
-8 -18 5 2 -4 -16 -6 -10
-8 -18 4 2 -4 -16 -6 -9
-8 -18 4 2 -4 -16 -6 -9
-8 -18 4 2 -4 -16 -6 -9
-8 -18 3 2 -5 -17 -7 -8
-8 -18 3 2 -5 -17 -7 -8
-8 -18 3 2 -4 -17 -6 -8
-8 -18 3 2 -4 -17 -6 -8
-8 -18 3 2 -4 -17 -6 -8
-7 -17 4 1 -3 -18 -5 -8
-7 -17 4 1 -3 -18 -5 -8
-6 -17 4 1 -4 -18 -5 -7
-6 -17 4 1 -4 -18 -5 -7
-6 -17 4 1 -4 -18 -5 -7
-5 -16 3 1 -5 -17 -5 -6
-4 -16 3 1 -5 -17 -5 -6
-4 -16 2 0 -4 -17 -5 -6
-3 -16 2 0 -4 -17 -5 -6
-3 -16 2 0 -4 -17 -5 -6
-2 -15 1 -2 -3 -16 -4 -6
-2 -15 1 -2 -3 -16 -4 -6
-2 -14 1 -2 -4 -17 -4 -5
-2 -14 1 -2 -4 -17 -4 -5
-2 -14 1 -2 -4 -17 -4 -5
-2 -13 0 -3 -5 -18 -3 -4
0 -13 0 -4 -5 -18 -3 -4
0 -13 0 -4 -5 -18 -2 -4
1 -13 0 -5 -5 -18 -2 -4
1 -13 0 -5 -5 -18 -2 -4
2 -12 -2 -6 -5 -18 0 -4
2 -12 -3 -6 -6 -18 0 -4
3 -12 -3 -7 -6 -18 -2 -3
3 -12 -4 -7 -7 -18 -2 -3
3 -12 -4 -7 -7 -18 -2 -3
4 -11 -5 -8 -8 -18 -3 -2
4 -11 -5 -9 -8 -18 -2 0
4 -10 -6 -9 -8 -18 0 0
4 -10 -6 -10 -8 -18 1 1
4 -10 -6 -10 -8 -18 1 1
5 -9 -7 -11 -8 -17 2 2
5 -9 -7 -11 -9 -17 2 2
5 -9 -8 -11 -9 -17 2 2
5 -9 -8 -11 -10 -17 2 2
5 -9 -8 -11 -10 -17 2 2
6 -8 -9 -12 -11 -18 3 3
6 -8 -9 -12 -11 -18 3 3
7 -8 -9 -13 -11 -18 3 3
7 -8 -9 -13 -11 -18 3 3
7 -8 -9 -13 -11 -18 3 3
9 -8 -10 -14 -12 -17 3 3
10 -8 -11 -15 -13 -17 3 4
11 -7 -11 -15 -13 -17 3 4
12 -7 -12 -16 -14 -17 3 5
13 -7 -12 -16 -14 -17 3 5
14 -6 -13 -17 -15 -18 3 6
14 -5 -13 -17 -15 -18 3 6
14 -5 -14 -17 -15 -18 4 6
14 -4 -14 -17 -15 -18 4 6
14 -4 -14 -17 -15 -18 4 6
13 -3 -15 -18 -16 -19 5 6
13 -3 -14 -18 -16 -19 5 6
13 -3 -14 -17 -16 -19 5 6
13 -3 -13 -17 -16 -19 5 6
13 -3 -13 -17 -16 -19 5 6
14 -2 -12 -16 -17 -19 5 7
14 0 -12 -16 -16 -18 5 8
14 0 -12 -16 -16 -18 6 8
14 1 -12 -16 -15 -17 6 9
14 1 -12 -16 -15 -17 6 9
13 2 -11 -14 -14 -16 7 10
13 2 -10 -13 -13 -16 7 10
14 2 -9 -12 -12 -15 8 10
14 2 -8 -11 -11 -15 8 10
14 2 -8 -10 -10 -15 8 10
15 2 -7 -8 -8 -13 9 10
15 3 -6 -7 -6 -12 10 10
15 4 -5 -5 -4 -10 11 11
15 5 -4 -3 -3 -9 12 11
15 5 -3 -2 0 -8 13 11
14 6 -2 1 2 -7 14 12
14 6 0 2 3 -7 14 13
14 6 1 4 4 -7 14 13
14 6 2 6 5 -7 14 14
14 6 2 7 6 -7 14 14
14 6 4 9 8 -5 15 15
14 6 5 10 9 -4 16 15
13 6 6 11 11 -2 17 15
13 6 7 12 12 0 18 15
13 6 8 13 13 1 18 15
12 6 9 15 14 2 19 14
11 6 10 16 15 2 19 14
11 6 11 18 16 2 19 14
10 6 12 19 17 2 19 14
10 6 13 20 18 2 19 14
9 6 14 21 19 3 20 14
9 6 14 21 19 3 20 14
9 6 14 22 20 4 19 14
9 6 14 22 20 4 19 14
9 6 14 22 20 4 19 14
8 5 15 23 21 5 18 13
7 4 15 23 21 4 17 12
7 4 16 23 20 3 16 11
6 3 16 23 20 2 15 10
6 3 16 23 20 2 15 9
5 2 17 23 19 1 14 8
5 2 17 23 19 1 14 8
4 1 16 23 19 1 14 8
4 1 16 23 19 1 14 8
4 1 16 23 19 1 14 8
3 0 15 22 20 2 14 8
3 0 15 22 20 2 14 8
3 0 15 22 20 2 14 8
3 0 15 22 20 2 14 8
3 0 15 22 20 2 14 8
3 -2 16 22 19 1 13 7
3 -2 16 22 19 1 13 7
3 -2 16 22 19 1 12 6
3 -2 16 22 19 1 12 6
3 -2 16 22 19 1 12 6
3 -2 15 21 18 1 11 5
3 -2 15 21 18 1 11 5
3 -2 15 21 18 1 11 5
3 -2 15 21 18 1 11 5
3 -2 15 21 18 1 11 5
3 0 15 21 19 0 12 6
3 0 15 21 19 0 12 6
3 0 15 21 19 0 12 6
3 0 15 21 19 0 12 6
3 0 15 21 19 0 12 6
3 1 16 21 20 1 11 5
2 1 16 21 20 1 12 5
2 1 16 21 20 1 12 6
1 1 16 21 20 1 13 6
1 1 16 21 20 1 13 6
0 1 16 21 20 2 14 7
0 1 16 21 20 2 14 7
0 1 16 21 20 2 14 7
0 1 16 21 20 2 14 7
0 1 16 21 20 2 14 7
1 1 16 21 20 1 13 7
1 1 16 21 20 1 13 7
0 1 16 20 19 1 12 7
0 1 16 20 19 1 12 7
0 1 16 20 19 1 12 7
-2 2 16 19 18 0 11 6
-2 2 16 19 18 0 11 6
-2 2 16 19 18 0 11 6
-2 2 16 19 18 0 11 6
-2 2 16 19 18 0 11 6
-2 3 15 19 17 -2 11 5
-2 3 15 19 17 -2 11 5
-2 2 16 19 17 -2 11 5
-2 2 16 19 17 -2 11 5
-2 2 16 19 17 -2 11 5
-2 1 17 19 17 -3 10 5
-2 1 17 19 17 -3 10 5
0 0 17 18 17 -4 10 5
0 0 17 18 17 -4 10 5
0 0 17 18 17 -4 10 5
1 -2 16 17 16 -5 9 4
1 -2 15 16 15 -5 8 4
1 -2 15 16 14 -6 8 3
1 -2 14 15 13 -6 7 3
1 -2 14 15 13 -6 7 3
1 -2 13 14 12 -7 6 2
1 -2 13 13 11 -7 6 2
2 -2 12 12 11 -8 5 1
2 -2 12 11 10 -8 5 1
2 -2 12 11 10 -8 5 1
3 -3 11 10 9 -9 4 0
2 -3 11 10 9 -9 4 0
1 -4 11 11 9 -9 4 0
0 -4 11 11 9 -9 4 0
0 -4 11 11 9 -9 4 0
-2 -5 12 12 10 -9 4 1
-2 -6 12 12 10 -9 4 1
-2 -6 12 11 10 -10 4 0
-2 -7 12 11 10 -10 4 0
-2 -7 12 11 10 -10 4 0
0 -8 12 10 9 -11 3 -2
0 -8 12 10 9 -11 3 -2
0 -8 12 10 9 -11 3 -2
0 -8 12 10 9 -11 3 -2
0 -8 12 10 9 -11 3 -2
-2 -7 12 10 8 -10 3 0
-2 -7 12 9 8 -10 3 0
-2 -7 11 9 7 -11 3 0
-2 -7 11 8 7 -11 3 0
-2 -7 11 8 7 -11 3 0
-2 -6 10 7 6 -12 2 -2
-2 -6 10 7 6 -12 1 -3
-2 -6 10 7 6 -12 1 -4
-2 -6 10 7 6 -12 0 -5
-2 -6 10 7 6 -12 0 -6
0 -5 9 6 5 -13 -2 -7
0 -5 9 6 5 -13 -2 -6
-2 -6 9 6 5 -13 -2 -6
-2 -6 9 6 5 -13 -2 -5
-2 -6 9 6 5 -13 -2 -5
-3 -7 9 5 4 -12 0 -4
-3 -7 9 5 4 -12 0 -4
-3 -7 9 5 4 -12 0 -4
-3 -7 9 5 4 -12 0 -4
-3 -7 9 5 4 -12 0 -4
-3 -8 8 5 4 -13 -2 -5
-3 -8 8 5 4 -13 -2 -5
-4 -8 8 5 4 -13 -2 -5
-4 -8 8 5 4 -13 -2 -5
-4 -8 8 5 4 -13 -2 -5
-5 -7 9 5 3 -14 -3 -6
-4 -7 9 5 3 -14 -3 -6
-4 -7 8 5 3 -14 -3 -6
-3 -7 8 5 3 -14 -3 -6
-3 -7 8 5 3 -14 -3 -6
-2 -7 7 4 2 -15 -4 -7
-2 -7 7 4 2 -15 -4 -7
-2 -7 7 3 2 -15 -5 -7
-2 -7 7 3 2 -15 -5 -7
-2 -7 7 3 2 -15 -5 -7
0 -7 6 2 1 -16 -6 -8
-2 -7 6 2 1 -16 -6 -8
-3 -7 6 2 1 -16 -5 -8
-4 -7 6 2 1 -16 -5 -8
-5 -7 6 2 1 -16 -5 -8
-6 -6 6 3 2 -15 -4 -7
-5 -6 6 3 2 -15 -4 -7
-5 -6 6 3 2 -15 -4 -7
-4 -6 6 3 2 -15 -4 -7
-4 -6 6 3 2 -15 -4 -7
-3 -7 6 3 2 -14 -4 -7
-3 -7 6 3 2 -14 -4 -7
-3 -7 6 3 2 -14 -4 -7
-3 -7 6 3 2 -14 -4 -7
-3 -7 6 3 2 -14 -4 -7
-3 -8 7 4 1 -14 -5 -7
-3 -8 7 4 1 -14 -5 -7
-4 -8 7 3 1 -14 -5 -7
-4 -8 7 3 1 -14 -5 -7
-4 -8 7 3 1 -14 -5 -7
-5 -8 6 2 0 -14 -6 -8
-5 -8 6 2 0 -14 -6 -8
-5 -8 6 2 0 -14 -5 -8
-5 -8 6 2 0 -14 -5 -8
-5 -8 6 2 0 -14 -5 -8
-4 -9 6 2 0 -14 -4 -7
-4 -9 6 2 0 -14 -4 -7
-4 -9 6 2 0 -14 -4 -7
-4 -9 6 2 0 -14 -4 -7
-4 -9 6 2 0 -14 -4 -7
-5 -9 6 3 1 -13 -5 -8
-5 -9 6 3 1 -13 -5 -8
-5 -9 6 3 1 -13 -5 -8
-5 -9 6 3 1 -13 -5 -8
-5 -9 6 3 1 -13 -5 -8
-6 -9 6 3 1 -13 -6 -8
-6 -9 6 3 1 -13 -6 -8
-5 -9 5 2 1 -13 -6 -8
-5 -9 5 2 1 -13 -6 -8
-5 -9 5 2 1 -13 -6 -8
-4 -9 4 1 0 -14 -6 -7
-4 -9 4 1 0 -14 -6 -7
-4 -9 4 1 0 -14 -6 -7
-4 -9 4 1 0 -14 -6 -7
-4 -9 4 1 0 -14 -6 -7
-5 -9 5 1 1 -14 -7 -8
-5 -9 5 1 1 -14 -7 -8
-4 -10 5 2 1 -14 -7 -8
-4 -10 5 2 1 -14 -7 -8
-4 -10 5 2 1 -14 -7 -8
-3 -11 5 3 0 -14 -7 -9
-3 -11 5 3 0 -14 -7 -9
-3 -11 5 3 0 -14 -7 -9
-3 -11 5 3 0 -14 -7 -9
-3 -11 5 3 0 -14 -7 -9
-4 -11 4 2 0 -13 -8 -9
-4 -11 4 2 0 -13 -7 -9
-5 -11 4 2 0 -12 -7 -8
-5 -11 4 2 0 -12 -6 -8
-5 -11 4 2 0 -12 -6 -8
-6 -12 4 2 0 -11 -5 -7
-5 -12 4 2 0 -11 -5 -7
-4 -11 4 1 -2 -11 -5 -7
-4 -11 4 1 -2 -11 -5 -7
-3 -11 4 1 -2 -11 -5 -7
-2 -10 3 0 -3 -11 -6 -8
-3 -10 3 1 -2 -10 -6 -8
-4 -9 3 1 -2 -10 -6 -8
-5 -9 3 2 0 -9 -6 -8
-6 -9 3 2 0 -9 -6 -8
-7 -8 3 3 1 -8 -5 -8
-6 -8 3 3 1 -8 -5 -8
-5 -7 4 3 1 -8 -5 -8
-4 -7 4 3 1 -8 -5 -8
-3 -7 4 3 1 -8 -5 -8
-2 -6 5 3 0 -8 -6 -8
-3 -5 6 5 1 -6 -4 -7
-3 -4 7 6 2 -5 -3 -6
-4 -3 8 7 3 -4 -2 -5
-4 -2 9 8 4 -3 0 -4
-5 0 10 9 5 -2 1 -3
-4 1 10 9 5 -2 1 -3
-3 2 11 9 5 -2 1 -3
-3 2 11 9 5 -2 1 -3
-2 3 11 9 5 -2 1 -3
0 4 12 9 5 -2 1 -3
1 6 12 9 6 0 2 -2
1 7 12 10 7 1 3 0
2 8 12 10 8 2 3 1
2 9 12 10 9 3 4 2
3 10 13 11 10 4 5 3
4 10 12 11 10 4 5 3
4 10 11 11 10 5 5 3
5 10 11 11 10 5 5 3
5 10 10 11 10 5 5 3
6 9 9 11 10 6 6 3
6 8 8 10 9 5 6 3
7 7 7 9 9 5 5 3
7 6 6 8 8 4 5 3
7 5 5 7 8 4 5 3
8 4 4 6 7 3 4 2
8 2 4 6 7 3 3 1
7 1 3 6 6 2 2 0
7 0 3 6 6 2 2 0
7 -2 3 6 6 2 1 -2
6 -3 2 5 5 1 0 -3
4 -5 2 4 4 0 -2 -4
3 -6 1 3 4 -2 -3 -5
2 -7 1 2 3 -3 -3 -5
1 -8 1 1 3 -4 -4 -6
0 -9 0 0 2 -5 -5 -7
-2 -10 0 0 1 -6 -7 -8
-3 -11 0 0 0 -7 -8 -8
-4 -11 0 0 0 -7 -9 -9
-5 -12 0 0 -2 -8 -10 -9
-6 -13 1 0 -3 -9 -11 -10
-6 -13 1 0 -3 -9 -11 -10
-6 -13 0 -2 -4 -9 -11 -11
-6 -13 0 -2 -5 -9 -11 -11
-6 -13 0 -2 -5 -9 -11 -11
-5 -13 -2 -3 -6 -10 -10 -12
-6 -13 -2 -3 -6 -10 -10 -12
-8 -13 -2 -3 -6 -9 -10 -11
-9 -13 -2 -3 -6 -8 -10 -11
-10 -13 -2 -3 -6 -8 -10 -11
-11 -13 0 -2 -5 -7 -9 -10
-10 -13 0 -2 -5 -7 -9 -10
-9 -13 0 -3 -5 -7 -10 -11
-9 -13 0 -3 -5 -7 -10 -11
-8 -13 0 -3 -5 -7 -10 -11
-7 -14 -2 -4 -6 -8 -11 -12
-7 -14 -2 -4 -6 -8 -11 -12
-8 -14 -2 -4 -6 -8 -11 -12
-8 -14 -2 -4 -6 -8 -11 -12
-8 -14 -2 -4 -6 -8 -11 -12
-9 -13 -2 -5 -6 -7 -10 -12
-9 -13 -2 -5 -6 -7 -10 -12
-8 -13 -2 -5 -6 -7 -10 -12
-7 -13 -2 -5 -6 -7 -10 -12
-7 -13 -2 -5 -6 -7 -10 -12
-6 -15 -3 -3 -5 -7 -11 -13
-5 -18 -2 -2 -4 -7 -12 -16
-3 -21 0 1 -3 -7 -14 -18
-2 -24 1 2 -3 -7 -15 -21
0 -27 2 4 -2 -7 -16 -24
1 -28 8 12 6 -4 -14 -24
2 -25 17 25 17 4 -10 -21
4 -22 26 37 28 10 -5 -18
5 -19 35 51 39 17 1 -15
6 -16 45 63 51 24 6 -13
12 0 53 77 66 40 22 4
22 22 61 93 85 63 46 27
31 44 69 108 103 85 69 51
40 66 76 123 122 107 93 73
50 89 85 139 141 130 116 97
52 112 76 129 142 145 138 122
49 138 57 102 132 156 158 148
46 163 38 75 121 168 179 174
42 189 20 48 111 180 199 200
38 214 1 21 101 191 220 226
31 210 -18 -8 76 175 207 219
23 186 -37 -38 42 141 174 190
15 163 -57 -69 8 106 140 161
7 140 -76 -100 -26 72 106 134
0 116 -95 -131 -60 37 72 105
-8 93 -103 -143 -78 13 46 78
-14 70 -103 -145 -88 -6 22 54
-19 47 -103 -146 -97 -25 0 29
-25 24 -103 -148 -105 -44 -24 5
-30 1 -103 -149 -114 -63 -47 -20
-32 -11 -95 -140 -111 -66 -54 -30
-30 -14 -83 -122 -98 -59 -50 -30
-27 -17 -71 -105 -85 -53 -46 -30
-25 -21 -60 -88 -71 -46 -40 -30
-22 -24 -48 -70 -58 -38 -36 -30
-20 -26 -39 -59 -49 -33 -33 -28
-18 -24 -33 -51 -43 -29 -30 -26
-16 -23 -27 -43 -35 -25 -27 -23
-14 -21 -22 -34 -29 -21 -24 -21
-12 -20 -16 -27 -22 -17 -21 -18
-11 -19 -13 -23 -19 -15 -19 -17
-11 -19 -12 -22 -19 -15 -19 -17
-12 -19 -11 -21 -18 -15 -19 -17
-12 -19 -11 -20 -18 -15 -19 -17
-12 -19 -10 -19 -18 -15 -19 -17
-13 -20 -9 -18 -17 -14 -18 -18
-11 -20 -9 -18 -17 -14 -19 -18
-10 -21 -9 -17 -17 -14 -20 -19
-8 -21 -9 -16 -17 -14 -20 -19
-7 -21 -9 -16 -17 -14 -21 -19
-6 -22 -9 -15 -16 -15 -22 -20
-7 -22 -8 -15 -15 -14 -21 -19
-8 -21 -7 -14 -13 -13 -20 -18
-9 -20 -7 -14 -12 -12 -19 -18
-10 -20 -6 -14 -11 -11 -18 -17
-11 -19 -5 -13 -10 -10 -17 -16
-11 -19 -5 -13 -10 -10 -17 -16
-11 -19 -5 -13 -10 -10 -17 -16
-11 -19 -5 -13 -10 -10 -17 -16
-11 -19 -5 -13 -10 -10 -17 -16
-11 -19 -4 -13 -10 -11 -17 -17
-11 -19 -4 -13 -10 -11 -17 -17
-11 -19 -4 -13 -9 -11 -17 -17
-11 -19 -4 -13 -9 -11 -17 -17
-11 -19 -4 -13 -9 -11 -17 -17
-10 -20 -3 -12 -8 -12 -18 -18
-10 -20 -3 -12 -8 -12 -18 -18
-10 -20 -3 -12 -8 -12 -18 -18
-10 -20 -3 -12 -8 -12 -18 -18
-10 -20 -3 -12 -8 -12 -18 -18
-9 -21 -4 -13 -9 -11 -18 -17
-9 -21 -4 -13 -9 -11 -18 -17
-9 -20 -4 -13 -9 -11 -18 -17
-9 -20 -4 -13 -9 -11 -18 -17
-9 -20 -4 -13 -9 -11 -18 -17
-8 -19 -3 -12 -8 -12 -18 -17
-8 -19 -3 -12 -8 -12 -18 -17
-8 -20 -3 -11 -8 -12 -17 -16
-8 -20 -3 -11 -8 -12 -17 -16
-8 -20 -3 -11 -8 -12 -17 -16
-8 -21 -3 -10 -7 -11 -16 -15
-8 -21 -3 -10 -7 -11 -16 -15
-9 -20 -3 -10 -7 -11 -16 -15
-9 -19 -3 -10 -7 -11 -16 -15
-9 -19 -3 -10 -7 -11 -16 -15
-10 -18 -3 -11 -7 -10 -15 -14
-10 -18 -3 -11 -7 -10 -15 -14
-9 -18 -3 -11 -7 -10 -15 -14
-9 -18 -3 -11 -7 -10 -15 -14
-9 -18 -3 -11 -7 -10 -15 -14
-8 -18 -3 -11 -8 -9 -16 -15
-8 -18 -3 -11 -8 -9 -16 -15
-8 -18 -3 -11 -8 -8 -15 -14
-8 -18 -3 -11 -8 -8 -14 -14
-8 -18 -3 -11 -8 -8 -14 -14
-7 -17 -3 -12 -8 -7 -13 -13
-7 -17 -3 -12 -8 -7 -13 -13
-7 -17 -3 -12 -8 -7 -13 -13
-7 -17 -3 -12 -8 -7 -13 -13
-7 -17 -3 -12 -8 -7 -13 -13
-6 -16 -4 -12 -8 -8 -14 -13
-6 -16 -4 -12 -8 -8 -14 -13
-6 -16 -4 -12 -8 -8 -14 -13
-6 -16 -4 -12 -8 -8 -14 -13
-6 -16 -4 -12 -8 -8 -14 -13
-7 -17 -4 -11 -8 -8 -14 -12
-7 -17 -4 -11 -8 -8 -14 -12
-7 -17 -4 -11 -8 -7 -14 -12
-7 -17 -4 -11 -8 -7 -14 -12
-7 -17 -4 -11 -8 -7 -14 -12
-6 -16 -5 -11 -7 -6 -13 -11
-6 -16 -5 -11 -7 -6 -13 -11
-5 -16 -5 -11 -7 -6 -13 -11
-5 -16 -5 -11 -7 -6 -13 -11
-5 -16 -5 -11 -7 -6 -13 -11
-4 -15 -6 -11 -8 -6 -12 -11
-4 -15 -7 -12 -8 -6 -12 -11
-4 -15 -8 -13 -8 -6 -11 -11
-4 -15 -8 -13 -8 -6 -10 -11
-4 -15 -9 -14 -8 -6 -10 -11
-3 -15 -10 -15 -9 -5 -9 -10
-2 -15 -10 -15 -9 -5 -9 -10
0 -14 -10 -15 -9 -4 -9 -9
1 -14 -10 -15 -9 -4 -9 -8
2 -14 -10 -15 -9 -4 -9 -8
3 -13 -11 -14 -10 -3 -10 -7
3 -13 -11 -14 -10 -3 -10 -7
3 -13 -12 -15 -10 -3 -10 -6
3 -13 -12 -15 -10 -3 -10 -6
3 -13 -12 -15 -10 -3 -10 -6
4 -13 -13 -16 -11 -4 -10 -5
4 -13 -14 -17 -11 -4 -9 -5
5 -13 -15 -18 -12 -3 -8 -4
5 -13 -15 -19 -13 -3 -7 -4
5 -13 -16 -20 -13 -3 -6 -4
6 -13 -17 -21 -14 -2 -5 -3
6 -13 -18 -21 -14 -2 -5 -3
7 -13 -19 -22 -14 -2 -5 -3
8 -13 -19 -23 -14 -2 -5 -3
8 -13 -20 -23 -14 -2 -5 -3
9 -12 -21 -24 -15 -3 -5 -2
9 -12 -21 -25 -16 -3 -5 -2
9 -11 -22 -26 -17 -4 -5 0
9 -10 -22 -27 -17 -4 -5 1
9 -10 -22 -28 -18 -4 -5 1
10 -9 -23 -29 -19 -5 -5 2
10 -9 -23 -29 -19 -5 -5 2
11 -9 -23 -28 -19 -5 -4 2
12 -9 -23 -28 -19 -5 -4 2
12 -9 -23 -28 -19 -5 -4 2
13 -10 -24 -27 -19 -4 -3 2
13 -10 -24 -27 -19 -4 -3 2
13 -10 -24 -28 -20 -4 -3 2
13 -10 -24 -29 -20 -4 -3 2
13 -10 -24 -29 -20 -4 -3 2
14 -9 -25 -30 -21 -5 -2 2
14 -9 -25 -30 -21 -5 -2 2
14 -9 -25 -30 -21 -5 -2 2
14 -9 -25 -30 -21 -5 -2 2
14 -9 -25 -30 -21 -5 -2 2
15 -8 -24 -29 -21 -5 -2 3
15 -7 -24 -28 -21 -5 -2 3
16 -6 -23 -27 -21 -4 -2 4
17 -6 -23 -27 -21 -4 -2 4
17 -5 -23 -26 -21 -4 -2 4
18 -4 -22 -25 -20 -3 0 5
18 -4 -21 -23 -18 -3 1 6
17 -4 -19 -21 -16 -2 2 7
17 -4 -18 -19 -15 0 2 7
17 -4 -17 -17 -13 0 3 8
16 -3 -16 -16 -12 1 4 9
16 -3 -16 -15 -11 3 5 9
16 -2 -15 -14 -10 4 6 10
16 -2 -15 -14 -9 5 6 11
16 -2 -15 -13 -8 7 7 11
15 0 -14 -11 -6 8 8 12
15 0 -12 -9 -4 9 8 12
15 1 -10 -6 -2 10 9 13
15 2 -8 -4 1 11 10 13
15 2 -6 -2 3 12 10 13
15 3 -5 1 4 13 11 14
14 3 -3 3 6 15 12 14
13 3 -2 5 8 16 13 14
12 3 1 7 10 17 14 15
11 3 3 9 12 19 15 15
10 3 4 10 13 20 16 16
10 3 4 11 13 20 16 16
10 3 5 12 14 20 16 16
9 3 6 14 15 20 16 16
9 3 6 15 15 20 16 16
8 3 7 16 16 21 17 15
6 3 8 16 16 21 17 15
5 3 9 16 17 21 16 15
4 3 10 17 18 21 15 15
2 3 11 17 18 21 15 15
1 2 12 18 19 21 14 14
1 2 12 18 19 21 14 14
1 2 12 19 19 21 14 14
1 2 12 20 19 21 14 13
1 2 12 20 19 21 14 13
1 1 13 21 20 20 13 12
1 1 13 21 20 20 13 12
1 1 13 21 20 20 13 12
0 2 13 21 20 20 12 11
0 2 13 21 20 20 12 11
-2 3 13 21 19 20 11 10
-2 3 13 21 19 20 11 10
-2 2 13 21 19 20 11 10
-2 1 13 21 19 19 10 10
-2 1 13 21 19 19 10 10
-3 0 13 20 19 18 9 9
-3 0 13 20 19 18 9 9
-3 1 13 20 19 18 9 9
-3 2 13 20 19 18 9 9
-3 2 13 20 19 18 9 9
-4 3 14 21 20 18 10 9
-4 3 14 21 20 18 10 9
-4 3 14 21 20 18 9 8
-3 3 14 21 19 17 8 7
-3 3 14 21 19 17 8 7
-2 2 15 21 18 16 7 6
-3 2 15 21 18 16 8 7
-4 2 15 21 18 16 9 7
-5 2 15 21 18 16 10 8
-6 2 15 21 18 16 11 9
-7 2 15 22 19 17 12 10
-7 2 15 22 19 17 11 10
-7 2 15 22 19 17 11 9
-6 2 14 21 19 17 10 8
-6 2 14 21 19 17 9 8
-5 3 13 20 18 17 8 7
-4 3 13 20 18 17 8 7
-3 3 13 20 18 17 8 7
-2 3 13 20 18 17 8 7
0 3 13 20 18 17 8 7
1 3 13 20 18 17 9 8
0 3 13 20 18 17 9 8
0 3 13 20 18 18 9 8
-2 2 13 20 18 19 9 9
-3 2 13 20 18 19 9 9
-4 1 14 19 17 20 10 10
-4 1 14 19 17 20 10 10
-4 1 14 19 17 20 10 10
-4 1 14 18 17 19 10 10
-4 1 14 18 17 19 10 10
-4 0 13 17 17 18 9 10
-3 0 13 17 17 17 9 10
-2 0 12 17 17 16 9 9
0 1 11 16 16 15 8 8
1 1 11 16 16 14 8 8
2 2 10 15 15 13 7 7
2 2 10 15 15 13 7 7
1 2 10 15 15 13 7 7
0 2 10 15 15 13 7 7
0 2 10 15 15 13 7 7
-2 1 10 15 14 13 6 7
-2 1 10 14 13 12 6 7
-2 1 10 14 12 12 5 6
0 1 9 13 11 11 4 5
0 1 9 12 10 10 4 5
1 2 8 11 9 9 3 4
1 2 8 11 9 9 3 4
1 2 8 11 9 9 3 4
0 2 8 11 9 8 3 4
0 2 8 11 9 8 3 4
-2 1 8 10 8 7 3 4
-2 0 8 10 8 7 3 4
-2 0 8 10 8 7 2 4
-2 -2 8 10 8 6 1 3
-2 -3 8 10 8 6 1 3
-2 -4 7 10 7 5 0 2
-2 -4 7 9 7 5 0 2
-2 -4 7 9 7 5 0 2
-2 -4 7 8 7 5 0 2
-2 -4 7 7 7 5 0 2
0 -3 6 6 6 6 0 2
0 -3 6 6 6 6 0 2
0 -3 6 6 6 6 0 2
-2 -3 6 6 6 6 0 2
-2 -3 6 6 6 6 0 2
-3 -4 6 7 6 5 0 3
-3 -4 6 7 6 5 0 3
-4 -4 6 7 6 5 0 3
-5 -5 6 7 5 4 -2 2
-5 -5 6 7 5 4 -2 2
-6 -6 6 7 4 3 -3 1
-5 -6 6 7 4 3 -3 1
-5 -6 6 7 4 3 -3 0
-4 -5 6 7 4 3 -3 -2
-3 -5 6 7 4 3 -3 -2
-2 -4 6 7 3 2 -4 -3
-2 -4 6 7 3 2 -4 -3
-3 -4 6 7 3 2 -4 -3
-4 -5 7 7 3 2 -4 -3
-4 -5 7 7 3 2 -4 -3
-5 -6 8 6 3 1 -5 -3
-5 -6 8 6 3 1 -5 -3
-5 -6 8 6 3 1 -5 -3
-5 -6 8 6 3 1 -5 -3
-5 -6 8 6 3 1 -5 -3
-5 -7 7 5 3 1 -5 -2
-5 -7 7 5 3 1 -5 -2
-5 -7 7 5 3 1 -5 -2
-5 -7 7 5 3 0 -6 -3
-5 -7 7 5 3 0 -6 -3
-4 -7 7 4 2 -2 -7 -4
-4 -7 7 4 2 -2 -7 -4
-4 -7 7 4 2 -2 -7 -4
-5 -7 7 4 2 -2 -7 -4
-5 -7 7 4 2 -2 -7 -4
-6 -8 6 4 3 -2 -7 -4
-6 -8 6 4 3 -2 -7 -4
-6 -8 6 4 3 -2 -7 -4
-5 -7 6 4 2 -2 -7 -4
-5 -7 6 4 2 -2 -7 -4
-4 -6 5 4 1 -3 -8 -3
-4 -6 5 4 1 -3 -8 -3
-4 -6 5 4 1 -3 -8 -3
-5 -7 5 4 1 -3 -8 -3
-5 -7 5 4 1 -3 -8 -3
-6 -8 5 3 1 -4 -8 -4
-6 -8 5 3 1 -4 -8 -4
-6 -8 5 3 1 -4 -7 -4
-6 -8 5 3 1 -4 -6 -4
-6 -8 5 3 1 -4 -6 -4
-6 -9 5 3 1 -3 -5 -3
-5 -9 5 3 1 -3 -6 -3
-5 -9 5 3 0 -3 -6 -3
-4 -9 5 2 -2 -4 -7 -4
-3 -9 5 2 -2 -4 -8 -4
-2 -8 4 1 -3 -5 -9 -5
-3 -8 4 1 -3 -5 -9 -5
-3 -8 4 1 -3 -5 -9 -5
-4 -8 4 2 -2 -5 -9 -5
-5 -8 4 2 -2 -5 -9 -5
-6 -7 4 3 0 -5 -8 -4
-6 -7 4 3 0 -5 -8 -4
-6 -7 4 3 0 -5 -8 -4
-6 -7 4 3 0 -5 -8 -4
-6 -7 4 3 0 -5 -8 -4
-6 -8 4 2 1 -6 -8 -5
-5 -8 4 2 1 -6 -9 -5
-3 -8 4 2 0 -7 -9 -6
-2 -8 4 2 -2 -8 -10 -7
1 -8 4 2 -2 -8 -11 -7
2 -7 5 1 -3 -9 -12 -8
1 -6 5 1 -3 -8 -11 -7
-2 -6 5 2 -2 -7 -10 -6
-3 -5 6 3 0 -6 -9 -4
-5 -4 6 3 0 -5 -8 -3
-6 -3 7 4 1 -4 -7 -2
-6 -2 8 6 2 -4 -7 -2
-5 -2 9 7 3 -4 -7 -2
-4 0 11 9 4 -3 -7 -2
-4 1 12 10 5 -3 -7 -2
-3 2 13 12 6 -2 -6 -2
-3 3 13 12 6 -2 -6 -2
-3 4 13 12 6 0 -6 0
-2 5 14 13 7 1 -5 1
-2 6 14 13 7 1 -5 1
0 7 15 14 8 2 -4 2
0 9 15 14 8 2 -3 3
0 10 15 14 8 3 -2 3
0 12 15 14 9 4 1 4
0 13 15 14 9 4 2 5
1 15 14 14 10 5 3 6
2 15 14 14 10 5 3 6
2 14 14 14 10 5 3 6
3 13 13 13 10 5 3 5
4 13 13 13 10 5 3 5
5 12 12 12 11 4 2 4
5 12 11 12 11 4 2 4
5 11 10 12 10 4 2 4
5 10 9 11 9 3 1 4
5 10 8 11 9 3 1 4
6 9 7 10 8 2 0 3
6 8 7 10 7 1 0 3
6 6 7 10 7 1 -2 3
6 5 6 9 6 0 -3 2
6 3 6 9 5 -2 -3 2
5 2 5 8 4 -3 -4 1
3 0 5 8 4 -3 -5 0
1 -2 5 7 4 -3 -5 -2
-2 -4 5 6 3 -4 -6 -3
-4 -5 5 6 3 -4 -7 -4
-6 -7 5 5 2 -5 -8 -5
-6 -7 5 4 1 -6 -9 -6
-6 -7 4 4 0 -7 -10 -7
-6 -7 3 3 -3 -9 -11 -8
-6 -7 3 2 -4 -10 -12 -9
-7 -8 2 1 -5 -11 -13 -10
-7 -8 2 1 -5 -11 -13 -10
-7 -9 2 1 -5 -11 -13 -10
-7 -9 3 1 -5 -11 -13 -10
-7 -10 3 1 -5 -11 -13 -10
-6 -11 4 1 -5 -12 -14 -11
-6 -11 4 1 -5 -12 -14 -11
-6 -11 4 1 -5 -12 -14 -11
-6 -11 4 1 -5 -12 -14 -11
-6 -11 4 1 -5 -12 -14 -11
-7 -10 3 0 -5 -11 -13 -10
-7 -10 3 0 -5 -11 -13 -10
-7 -10 3 0 -5 -11 -13 -10
-7 -10 3 0 -5 -12 -13 -10
-7 -10 3 0 -5 -12 -13 -10
-7 -11 3 0 -6 -13 -14 -10
-7 -11 3 0 -6 -13 -14 -10
-7 -11 3 0 -6 -13 -14 -10
-7 -11 3 0 -6 -13 -14 -10
-7 -11 3 0 -6 -13 -14 -10
-7 -10 3 1 -6 -12 -13 -10
-6 -10 3 1 -6 -12 -13 -10
-6 -10 3 1 -6 -12 -13 -10
-5 -10 2 1 -6 -12 -14 -10
-4 -10 2 1 -6 -12 -14 -10
-3 -10 1 1 -7 -13 -15 -11
-3 -14 3 4 -6 -13 -16 -13
-3 -17 5 7 -4 -13 -16 -15
-3 -20 7 10 -3 -13 -17 -17
-3 -23 9 13 0 -13 -18 -19
-2 -25 13 19 4 -11 -18 -21
0 -20 23 31 16 -5 -14 -18
1 -16 33 45 27 3 -9 -15
2 -11 43 58 39 9 -5 -12
4 -7 53 71 51 16 0 -9
7 4 62 86 65 27 11 1
15 24 68 100 84 51 35 23
22 45 75 114 102 74 59 47
30 66 81 129 121 98 84 69
38 87 89 143 140 121 108 92
44 109 88 144 150 141 132 115
39 133 66 113 137 153 153 142
35 156 46 82 123 165 174 168
31 181 24 51 110 177 195 194
26 204 3 20 97 189 217 220
22 216 -19 -12 76 188 222 231
16 195 -39 -44 40 152 187 202
10 174 -61 -76 6 116 152 174
4 152 -82 -108 -30 80 117 145
-2 131 -104 -140 -66 44 82 116
-8 109 -119 -163 -94 13 51 89
-12 86 -118 -163 -103 -8 26 64
-17 62 -116 -163 -111 -28 3 38
-21 38 -115 -162 -120 -49 -21 14
-25 15 -113 -162 -129 -68 -46 -12
-29 -4 -109 -156 -132 -81 -62 -30
-27 -7 -96 -137 -116 -74 -58 -30
-25 -11 -81 -116 -102 -67 -53 -30
-24 -15 -68 -97 -87 -59 -48 -30
-22 -19 -55 -76 -71 -52 -44 -30
-20 -22 -44 -60 -58 -45 -39 -31
-18 -21 -36 -51 -51 -40 -36 -28
-16 -20 -30 -43 -44 -36 -33 -26
-14 -19 -23 -33 -36 -32 -30 -23
-12 -18 -17 -25 -29 -28 -27 -20
-10 -17 -12 -18 -23 -24 -24 -18
-10 -17 -11 -17 -22 -24 -24 -18
-10 -17 -10 -15 -21 -23 -24 -18
-10 -17 -9 -14 -20 -23 -23 -18
-10 -17 -7 -13 -18 -22 -23 -18
-9 -16 -6 -11 -17 -21 -22 -18
-9 -17 -5 -10 -17 -21 -22 -18
-9 -17 -4 -9 -17 -21 -22 -18
-9 -18 -3 -8 -16 -21 -22 -18
-9 -19 -2 -6 -16 -21 -22 -18
-9 -20 0 -5 -15 -20 -23 -19
-9 -20 0 -5 -15 -20 -23 -19
-9 -20 0 -5 -15 -20 -23 -19
-10 -20 0 -5 -14 -19 -23 -19
-10 -20 0 -5 -14 -19 -23 -19
-11 -19 -2 -5 -13 -18 -22 -18
-11 -19 -2 -5 -13 -18 -22 -18
-10 -19 -2 -4 -13 -18 -22 -18
-10 -19 -2 -4 -12 -18 -22 -18
-9 -19 -2 -3 -12 -18 -22 -18
-8 -18 0 -2 -11 -18 -21 -18
-8 -18 0 -2 -11 -18 -21 -18
-8 -18 0 -2 -11 -18 -20 -18
-8 -18 0 -3 -11 -17 -20 -18
-8 -18 0 -3 -11 -17 -19 -18
-8 -18 0 -4 -11 -16 -18 -17
-8 -18 0 -4 -11 -16 -18 -17
-9 -18 0 -3 -10 -16 -18 -17
-9 -18 0 -3 -10 -16 -18 -16
-10 -18 0 -2 -9 -16 -18 -16
-11 -17 1 0 -8 -16 -17 -15
-11 -17 1 0 -8 -16 -17 -15
-10 -17 1 0 -8 -16 -17 -15
-10 -17 0 -2 -8 -16 -17 -15
-9 -17 0 -2 -8 -16 -17 -15
-8 -16 -2 -3 -7 -15 -17 -14
-8 -16 -2 -3 -7 -15 -17 -14
-8 -16 -2 -3 -7 -15 -17 -14
-8 -16 0 -2 -7 -16 -17 -14
-8 -16 0 -2 -7 -16 -17 -14
-8 -17 1 0 -6 -17 -18 -15
-8 -17 1 0 -6 -17 -18 -15
-8 -17 1 0 -6 -17 -18 -15
-8 -17 1 0 -6 -17 -18 -15
-8 -17 1 0 -6 -17 -18 -15
-8 -16 0 0 -7 -16 -18 -16
-8 -16 0 0 -7 -16 -18 -16
-8 -16 0 0 -7 -16 -18 -16
-8 -16 0 0 -7 -15 -17 -15
-8 -16 0 0 -7 -15 -17 -15
-7 -15 0 0 -7 -14 -16 -14
-7 -15 0 0 -7 -14 -16 -14
-7 -15 0 0 -7 -14 -16 -14
-6 -15 0 0 -7 -14 -16 -14
-6 -15 0 0 -7 -14 -16 -14
-5 -14 -2 1 -7 -13 -15 -13
-5 -14 -2 1 -7 -13 -15 -13
-5 -14 -2 1 -7 -13 -15 -13
-5 -15 -2 1 -7 -14 -16 -13
-5 -15 -2 1 -7 -14 -16 -13
-5 -16 -2 1 -6 -15 -17 -12
-5 -16 -2 1 -6 -15 -17 -12
-5 -16 -2 1 -6 -15 -17 -12
-4 -16 -2 1 -6 -15 -17 -12
-4 -16 -2 1 -6 -15 -17 -12
-3 -15 -3 0 -7 -15 -17 -13
-3 -15 -3 0 -7 -15 -16 -13
-3 -15 -3 0 -7 -14 -15 -13
-3 -16 -3 0 -6 -14 -14 -12
-3 -16 -3 0 -6 -13 -13 -12
-4 -17 -2 1 -5 -12 -12 -11
-4 -17 -2 1 -5 -12 -12 -11
-4 -16 -3 1 -5 -11 -11 -10
-4 -16 -3 0 -5 -11 -11 -10
-4 -15 -4 0 -5 -10 -10 -9
-5 -14 -5 -2 -5 -9 -9 -8
-5 -14 -5 -2 -5 -9 -9 -8
-4 -14 -5 -2 -5 -9 -9 -8
-3 -14 -6 -2 -5 -9 -9 -8
-2 -14 -6 -2 -5 -9 -9 -8
0 -13 -7 -2 -5 -10 -9 -7
0 -13 -7 -2 -5 -10 -9 -7
1 -13 -7 -2 -5 -10 -9 -7
1 -13 -8 -2 -5 -10 -9 -7
2 -13 -8 -2 -5 -10 -9 -7
3 -13 -9 -3 -5 -10 -8 -7
3 -13 -9 -3 -5 -10 -8 -7
3 -13 -9 -3 -5 -10 -8 -7
3 -13 -10 -3 -6 -10 -8 -6
3 -13 -10 -3 -6 -10 -8 -6
4 -14 -11 -4 -7 -11 -9 -5
4 -14 -11 -4 -7 -11 -9 -5
4 -14 -12 -5 -7 -11 -8 -4
5 -13 -13 -6 -7 -10 -8 -4
5 -13 -14 -7 -7 -10 -7 -3
6 -12 -15 -8 -8 -9 -6 -2
7 -12 -15 -8 -8 -9 -6 -2
8 -12 -16 -9 -9 -9 -6 -2
9 -12 -17 -9 -10 -10 -6 -2
10 -12 -18 -10 -11 -10 -6 -2
11 -12 -19 -11 -12 -11 -5 -2
11 -12 -19 -11 -12 -11 -5 -2
11 -12 -20 -12 -12 -11 -5 -2
12 -11 -20 -12 -13 -11 -5 -2
12 -11 -21 -13 -13 -11 -5 -2
13 -10 -22 -14 -14 -10 -6 -2
13 -10 -22 -14 -14 -10 -6 -2
13 -10 -22 -14 -14 -10 -6 -2
14 -10 -22 -14 -14 -10 -6 0
14 -10 -22 -14 -14 -10 -6 0
15 -10 -23 -14 -15 -11 -5 1
15 -10 -23 -14 -15 -11 -5 1
15 -10 -23 -14 -15 -11 -5 1
15 -10 -23 -14 -15 -10 -4 1
15 -10 -23 -14 -15 -10 -4 1
15 -10 -24 -15 -14 -9 -3 2
15 -10 -24 -15 -14 -9 -3 2
16 -10 -24 -15 -14 -9 -2 3
16 -10 -24 -15 -14 -9 -2 4
17 -10 -24 -15 -14 -9 0 5
18 -11 -23 -15 -15 -9 1 6
18 -11 -23 -15 -15 -9 1 6
17 -10 -22 -14 -15 -9 2 7
17 -9 -21 -14 -14 -8 3 7
16 -8 -20 -13 -14 -8 4 8
15 -7 -19 -12 -13 -7 5 9
15 -7 -19 -11 -12 -6 5 9
15 -6 -18 -10 -11 -5 5 9
15 -5 -17 -9 -10 -4 5 10
15 -4 -16 -8 -9 -3 5 10
15 -3 -15 -7 -8 -2 5 11
15 -3 -14 -5 -7 0 5 11
15 -3 -12 -4 -5 1 6 11
15 -3 -11 -2 -3 2 7 11
15 -3 -10 1 -2 3 8 11
14 -2 -8 3 1 4 9 10
14 -2 -7 4 2 5 9 10
14 -2 -6 6 4 6 10 11
14 0 -5 8 5 7 10 12
14 0 -4 9 6 8 11 13
13 1 -3 11 8 9 12 14
12 1 -2 12 10 10 12 14
11 1 1 13 11 11 12 14
10 2 3 14 13 12 13 15
9 2 4 15 15 13 13 15
7 3 6 16 17 15 14 16
7 3 7 17 17 15 14 16
7 3 8 19 18 15 14 15
7 3 9 21 18 15 14 15
7 3 10 22 19 15 14 14
7 3 12 24 20 15 13 13
6 3 12 24 20 15 13 13
5 3 12 24 20 15 13 13
4 3 13 25 20 15 12 13
3 3 13 25 20 15 12 13
2 3 14 26 20 16 11 12
2 3 14 26 20 16 11 12
2 3 14 26 20 16 10 11
2 3 14 26 20 15 10 10
2 3 14 26 20 15 9 9
2 2 14 27 19 14 8 8
2 2 14 27 19 14 8 8
1 2 14 27 19 14 8 8
1 2 15 27 19 14 7 7
0 2 15 27 19 14 7 7
-2 2 16 27 20 13 6 6
-2 2 16 27 20 13 6 6
-2 2 16 27 20 13 6 6
-2 1 15 27 19 13 6 6
-2 1 15 27 19 13 6 6
0 0 14 26 18 13 6 6
-2 0 14 26 18 13 6 6
-3 0 14 26 18 14 6 6
-4 0 14 26 18 14 7 7
-5 0 14 26 18 15 7 7
-6 1 15 27 19 16 8 8
-6 1 15 27 19 16 8 8
-6 1 15 27 19 16 8 8
-6 2 15 27 19 16 8 8
-6 2 15 27 19 16 8 8
-5 3 15 27 20 17 8 8
-5 3 15 27 20 17 8 8
-5 3 15 27 20 16 8 8
-4 3 15 27 20 16 7 8
-4 3 15 27 20 15 7 8
-3 2 15 26 19 14 6 7
-3 2 15 26 19 14 6 7
-3 2 15 26 19 15 6 7
-4 2 15 26 20 15 7 7
-4 2 15 26 20 16 7 7
-5 2 16 27 21 17 8 8
-5 2 16 27 21 17 8 8
-5 2 16 27 21 17 8 8
-5 2 16 27 21 17 8 8
-5 2 16 27 21 17 8 8
-4 2 15 26 20 17 8 9
-4 2 15 26 20 17 8 9
-4 2 15 26 20 17 8 9
-3 2 15 25 20 17 8 9
-3 2 15 25 20 17 8 9
-2 3 15 24 20 17 8 9
-2 3 15 24 20 17 8 9
-2 3 15 23 20 17 8 9
-2 3 15 23 20 17 8 8
-2 3 15 22 20 17 8 8
-3 3 14 21 21 16 7 7
-3 3 14 21 21 16 7 7
-3 3 14 20 21 16 7 7
-2 3 13 19 20 15 7 7
-2 3 13 18 20 15 7 7
0 2 12 17 19 14 6 7
0 2 12 17 19 14 6 7
0 2 12 17 19 14 6 7
0 2 12 17 18 14 5 7
0 2 12 17 18 14 5 7
-2 1 11 16 17 13 4 7
-2 1 11 16 17 13 4 7
-2 1 11 16 17 13 4 7
0 1 11 15 17 13 4 6
0 1 11 15 17 13 4 6
1 1 11 14 16 12 3 5
1 1 11 14 16 12 3 5
0 1 11 13 16 12 3 5
0 1 10 12 15 12 3 5
-2 1 10 11 15 12 3 5
-3 1 9 10 14 11 4 4
-3 1 9 10 14 11 4 4
-3 1 9 10 14 11 3 4
-3 0 9 10 14 10 3 4
-3 0 9 10 14 10 2 4
-4 -2 10 10 13 9 1 3
-4 -2 10 10 13 9 1 3
-3 -2 10 10 13 9 1 3
-2 -2 9 9 12 8 0 3
0 -2 9 9 12 8 0 3
1 -3 8 8 11 7 -2 2
1 -3 8 8 11 7 -2 2
0 -3 8 8 11 7 -2 2
-2 -3 8 8 11 7 -2 2
-3 -3 8 8 11 7 -2 2
-4 -3 9 8 11 7 0 1
-4 -3 9 8 11 7 0 1
-4 -3 9 8 11 7 0 1
-4 -4 8 7 10 7 -2 1
-4 -4 8 7 10 7 -2 1
-5 -5 7 6 9 6 -3 0
-5 -5 7 6 9 5 -3 0
-5 -5 7 6 9 4 -3 0
-5 -5 7 6 9 3 -4 -2
-5 -5 7 6 9 2 -4 -2
-4 -5 7 6 9 1 -5 -3
-4 -5 7 6 9 1 -5 -3
-4 -5 7 6 9 1 -5 -3
-4 -5 7 6 9 2 -4 -2
-4 -5 7 6 9 2 -4 -2
-4 -5 7 5 9 3 -3 0
-4 -5 7 5 8 3 -3 0
-4 -5 7 5 7 2 -4 -2
-3 -5 6 5 6 1 -4 -2
-3 -5 6 5 5 0 -5 -3
-2 -6 5 4 4 -2 -6 -4
-2 -6 5 4 4 -2 -6 -4
-2 -6 5 4 4 -2 -6 -4
-2 -6 6 5 4 -2 -6 -4
-2 -6 6 5 4 -2 -6 -4
-3 -7 7 6 5 -2 -7 -4
-3 -7 7 6 5 -2 -7 -4
-3 -7 7 6 5 -2 -7 -4
-4 -7 7 6 5 0 -7 -4
-4 -7 7 6 5 0 -7 -4
-5 -8 6 5 5 1 -6 -3
-5 -8 6 5 5 1 -6 -3
-4 -8 6 5 5 1 -6 -3
-4 -8 6 5 4 0 -6 -3
-3 -8 6 5 4 0 -6 -3
-2 -8 6 4 3 -2 -7 -4
-2 -8 6 4 3 -2 -7 -4
-2 -8 6 4 3 -2 -7 -4
-3 -8 6 4 3 -2 -6 -4
-3 -8 6 4 3 -2 -6 -4
-4 -8 6 5 3 0 -5 -3
-4 -8 6 5 3 0 -5 -3
-4 -8 6 5 3 0 -5 -3
-4 -8 6 5 3 0 -6 -3
-4 -8 6 5 3 0 -6 -3
-5 -7 5 5 3 -2 -7 -4
-5 -7 5 5 3 -2 -7 -4
-5 -7 5 5 3 -2 -7 -4
-4 -8 5 5 3 -2 -7 -4
-4 -8 5 5 3 -2 -7 -4
-3 -9 5 4 2 -2 -7 -5
-3 -9 5 4 2 -2 -7 -5
-3 -9 5 4 2 -2 -7 -5
-3 -9 5 4 2 -2 -8 -5
-3 -9 5 4 2 -2 -8 -5
-3 -10 6 4 3 -3 -9 -6
-3 -10 6 4 3 -3 -9 -6
-3 -10 6 4 3 -3 -9 -6
-3 -10 6 4 3 -3 -9 -6
-3 -10 6 4 3 -3 -9 -6
-4 -9 5 4 2 -3 -8 -6
-4 -9 5 4 2 -3 -8 -6
-4 -9 5 4 2 -3 -8 -6
-4 -9 5 4 2 -3 -8 -6
-4 -9 5 4 2 -3 -8 -6
-3 -9 5 3 1 -4 -8 -6
-3 -9 5 3 1 -4 -8 -6
-3 -9 5 3 1 -4 -8 -6
-3 -9 5 3 1 -4 -9 -6
-3 -9 5 3 1 -4 -9 -6
-3 -9 5 3 0 -5 -10 -7
-3 -9 5 3 0 -5 -10 -7
-3 -9 5 3 0 -5 -10 -7
-3 -9 5 3 0 -5 -9 -7
-3 -9 5 3 0 -5 -9 -7
-3 -10 5 3 0 -4 -8 -7
-3 -10 5 3 0 -4 -8 -7
-3 -10 5 3 0 -4 -8 -7
-3 -10 5 3 0 -4 -8 -7
-3 -10 5 3 0 -4 -8 -7
-4 -10 5 3 -2 -4 -9 -7
-4 -10 5 3 -2 -4 -9 -7
-4 -9 5 4 0 -4 -8 -6
-4 -9 6 4 0 -4 -8 -6
-4 -8 6 5 1 -4 -7 -5
-4 -7 7 6 2 -4 -6 -4
-4 -6 7 6 2 -3 -6 -4
-4 -5 8 7 3 -2 -5 -4
-4 -4 8 8 3 0 -5 -3
-4 -3 9 9 4 1 -4 -3
-3 0 10 10 5 2 -3 -2
-3 0 11 10 5 2 -3 -2
-3 1 12 11 6 2 -3 -2
-3 1 13 11 6 3 -2 -2
-3 2 14 12 7 3 -2 -2
-3 3 15 13 8 4 0 0
-2 4 15 13 8 4 0 0
0 5 15 13 9 4 1 1
2 6 15 14 9 5 2 1
3 7 15 14 10 5 3 2
5 8 15 15 11 6 4 3
5 8 15 15 11 6 4 3
5 8 15 15 11 6 4 3
5 8 15 15 11 7 4 4
5 8 15 15 11 7 4 4
5 8 15 15 11 8 4 5
5 8 15 15 11 8 4 5
5 8 14 15 11 8 4 5
6 8 13 15 11 8 4 5
6 8 12 15 11 8 4 5
7 7 11 14 10 7 4 4
