I II V1 V2 V3 V4 V5 V6
-9 -22 15 0 -14 -28 -34 -35
-9 -22 14 0 -14 -28 -35 -36
-9 -23 12 -2 -14 -28 -36 -37
-9 -23 10 -3 -14 -28 -37 -39
-9 -24 8 -4 -14 -28 -38 -40
-9 -24 7 -5 -14 -28 -39 -41
-10 -25 6 -6 -14 -29 -40 -43
-10 -25 6 -6 -14 -30 -40 -43
-9 -24 6 -5 -14 -30 -41 -43
-9 -24 6 -5 -14 -31 -41 -43
-9 -24 6 -5 -14 -31 -41 -43
-8 -23 7 -3 -14 -32 -43 -41
-8 -24 8 0 -13 -32 -43 -41
-7 -25 8 2 -12 -31 -43 -41
-7 -26 9 4 -11 -31 -43 -41
-7 -26 9 6 -10 -31 -43 -41
-6 -27 10 7 -9 -30 -41 -40
-5 -26 10 8 -9 -31 -43 -41
-4 -25 10 8 -9 -32 -43 -41
-3 -24 10 9 -9 -33 -44 -43
-3 -23 10 9 -9 -33 -44 -43
-4 -24 10 11 -10 -34 -46 -45
-6 -26 10 12 -10 -35 -48 -46
-8 -29 9 13 -10 -36 -49 -47
-10 -31 9 14 -10 -37 -51 -48
-12 -33 9 15 -10 -38 -52 -49
-13 -34 8 16 -10 -39 -53 -50
-13 -33 8 16 -10 -39 -54 -50
-12 -32 8 17 -9 -40 -54 -50
-12 -31 8 17 -9 -40 -55 -50
-12 -31 8 17 -9 -40 -55 -50
-10 -31 6 17 -10 -45 -58 -52
-9 -33 3 15 -13 -49 -61 -54
-7 -34 -2 13 -16 -52 -64 -56
-6 -36 -5 11 -19 -56 -67 -58
-5 -37 -8 9 -21 -59 -70 -59
-3 -36 -7 8 -22 -60 -71 -59
-2 -33 -5 9 -21 -59 -70 -57
1 -30 -2 10 -20 -58 -69 -55
2 -27 1 11 -19 -57 -68 -53
3 -24 3 11 -18 -57 -68 -52
2 -24 4 12 -17 -56 -67 -51
-2 -25 5 12 -17 -56 -67 -51
-5 -27 6 11 -17 -57 -67 -51
-8 -28 7 11 -17 -57 -67 -51
-11 -29 7 11 -17 -57 -67 -51
-10 -27 8 10 -18 -57 -65 -49
-7 -23 8 9 -17 -55 -62 -46
-4 -20 7 8 -17 -54 -59 -44
0 -16 7 7 -16 -52 -56 -40
3 -13 7 6 -16 -51 -53 -38
3 -12 6 5 -14 -46 -49 -36
2 -12 6 5 -12 -41 -45 -35
1 -13 7 5 -10 -37 -40 -33
0 -13 7 5 -8 -33 -36 -32
-2 -13 7 5 -6 -29 -33 -31
-3 -12 8 6 -4 -26 -30 -28
-3 -10 9 6 -3 -23 -27 -25
-3 -8 10 6 -2 -20 -24 -22
-3 -6 11 6 0 -17 -21 -19
-3 -4 12 6 1 -15 -19 -17
-2 -4 13 6 2 -14 -17 -16
-3 -5 12 6 2 -13 -16 -15
-4 -7 12 6 2 -12 -14 -15
-5 -8 11 6 2 -11 -13 -14
-5 -9 11 6 2 -10 -12 -14
-6 -9 10 6 3 -9 -11 -12
-6 -8 9 6 3 -8 -11 -11
-6 -6 9 5 4 -7 -10 -10
-6 -5 8 5 4 -6 -10 -9
-6 -4 8 5 4 -5 -10 -8
-4 -3 7 4 5 -4 -9 -7
-2 -3 7 4 5 -3 -8 -7
1 -2 7 5 6 -2 -7 -7
3 -2 7 5 6 0 -6 -7
4 -2 7 5 6 1 -6 -7
4 0 6 6 7 2 -5 -6
3 0 6 6 7 2 -5 -5
1 0 6 6 7 1 -5 -4
0 0 6 6 7 1 -5 -3
-2 0 6 6 7 1 -5 -2
-3 -3 5 7 6 0 -6 0
-3 -4 5 7 6 -2 -7 -2
-3 -5 5 7 5 -2 -7 -3
-3 -6 5 7 5 -3 -8 -4
-3 -7 5 7 5 -3 -8 -4
-3 -8 6 8 4 -4 -9 -5
-5 -8 6 8 3 -4 -9 -5
-7 -7 6 8 2 -4 -9 -5
-9 -7 6 8 1 -4 -9 -5
-10 -7 6 8 1 -4 -9 -5
-7 -6 7 7 0 -5 -9 -6
-3 -6 7 7 1 -4 -8 -7
2 -6 7 7 1 -3 -7 -7
7 -6 7 7 2 -2 -6 -8
11 -6 7 7 2 -2 -5 -8
10 -7 4 2 1 0 -4 -9
8 -8 2 -3 -3 -2 -5 -8
6 -10 -2 -7 -6 -3 -6 -7
4 -11 -4 -12 -9 -4 -7 -6
2 -12 -6 -16 -12 -5 -7 -6
8 -5 -14 -17 -2 14 15 11
15 4 -21 -17 11 35 39 28
23 13 -29 -16 23 57 65 47
31 22 -37 -16 35 78 90 64
39 31 -46 -16 48 100 114 81
56 52 -58 -24 53 149 181 128
72 73 -70 -34 56 201 251 177
89 96 -82 -45 60 254 320 226
106 117 -95 -55 64 305 390 275
122 140 -107 -66 67 357 460 324
117 140 -111 -97 30 318 427 320
109 136 -115 -130 -12 270 385 309
101 133 -118 -162 -54 222 342 299
92 130 -121 -195 -96 173 299 287
84 127 -124 -228 -138 125 256 276
65 109 -114 -218 -141 82 198 228
45 92 -101 -202 -140 42 139 176
24 73 -89 -187 -139 1 80 123
4 55 -75 -173 -138 -40 21 71
-17 36 -63 -157 -137 -81 -38 19
-18 30 -51 -135 -115 -73 -39 10
-15 25 -38 -111 -91 -60 -33 4
-13 21 -26 -88 -67 -47 -27 -2
-11 16 -14 -64 -44 -32 -21 -8
-9 11 -2 -40 -20 -19 -15 -13
-8 7 2 -34 -16 -17 -15 -16
-7 2 4 -29 -15 -17 -17 -19
-6 -3 5 -25 -13 -18 -18 -22
-5 -8 7 -20 -12 -18 -20 -25
-5 -12 8 -16 -11 -18 -21 -28
-4 -13 9 -15 -10 -19 -22 -29
-5 -13 9 -15 -9 -19 -22 -29
-6 -12 9 -14 -9 -19 -22 -29
-7 -12 9 -14 -8 -19 -22 -29
-8 -12 9 -14 -8 -19 -22 -29
-9 -11 10 -13 -7 -19 -22 -28
-8 -11 10 -13 -7 -19 -22 -28
-7 -11 9 -13 -7 -19 -22 -28
-6 -11 9 -13 -7 -19 -22 -28
-6 -11 9 -13 -7 -19 -22 -28
-5 -14 8 -12 -8 -21 -24 -29
-6 -16 7 -13 -9 -22 -26 -31
-7 -18 6 -14 -9 -24 -27 -33
-8 -21 5 -15 -10 -25 -29 -35
-8 -23 5 -15 -10 -26 -30 -37
-8 -22 4 -16 -11 -27 -31 -38
-5 -20 4 -16 -12 -27 -31 -38
-3 -17 5 -16 -12 -27 -31 -38
0 -14 5 -16 -13 -27 -31 -38
2 -12 5 -16 -13 -27 -31 -38
1 -11 6 -17 -14 -28 -31 -38
-2 -12 5 -17 -15 -29 -32 -39
-5 -13 4 -17 -16 -30 -32 -41
-8 -14 3 -17 -17 -31 -33 -43
-10 -15 2 -17 -17 -32 -33 -44
-11 -17 2 -15 -18 -33 -34 -45
-10 -20 3 -14 -18 -33 -35 -45
-9 -22 5 -12 -17 -34 -36 -45
-8 -24 6 -11 -17 -34 -37 -45
-8 -26 7 -10 -17 -34 -38 -45
-6 -26 8 -9 -16 -36 -40 -46
-4 -25 8 -10 -17 -37 -41 -47
-2 -23 8 -11 -17 -38 -43 -48
0 -22 8 -12 -18 -39 -44 -49
2 -21 8 -13 -18 -40 -45 -50
-2 -21 7 -14 -19 -43 -47 -52
-7 -22 8 -15 -20 -45 -50 -53
-12 -24 8 -15 -21 -47 -52 -55
-17 -25 9 -16 -22 -49 -54 -57
-22 -26 9 -16 -22 -51 -56 -58
-21 -27 11 -17 -23 -52 -57 -59
-19 -27 12 -16 -22 -52 -57 -59
-16 -26 13 -15 -21 -52 -57 -59
-13 -26 14 -14 -20 -52 -57 -59
-11 -26 15 -13 -20 -52 -57 -59
-10 -24 17 -11 -18 -52 -58 -59
-10 -22 18 -9 -16 -52 -58 -59
-9 -20 19 -7 -14 -52 -59 -60
-9 -18 20 -6 -13 -52 -59 -60
-9 -16 21 -4 -11 -52 -59 -60
-8 -15 22 0 -8 -50 -58 -59
-8 -15 23 2 -5 -47 -55 -57
-8 -15 23 4 -3 -44 -53 -55
-8 -15 24 7 1 -40 -50 -52
-8 -15 24 9 4 -37 -47 -50
-7 -15 25 11 6 -34 -44 -48
-7 -13 25 12 8 -32 -40 -46
-6 -11 25 13 10 -30 -36 -44
-6 -9 25 14 11 -27 -33 -43
-6 -7 25 15 13 -25 -30 -40
-5 -6 24 16 14 -22 -27 -37
-5 -7 23 16 15 -19 -24 -34
-6 -8 23 17 16 -17 -20 -32
-6 -9 22 17 17 -14 -17 -29
-6 -10 22 17 17 -11 -14 -26
-5 -8 21 18 19 -9 -11 -24
-3 -4 21 19 20 -8 -9 -23
1 1 21 20 22 -7 -6 -21
3 6 21 21 24 -5 -4 -19
6 10 21 22 25 -4 0 -18
7 12 20 23 27 1 4 -15
8 13 19 23 29 4 7 -11
9 14 18 24 31 8 11 -8
10 15 16 24 32 11 15 -4
10 16 15 24 34 15 19 0
11 16 13 25 35 16 20 1
11 15 12 25 35 17 21 2
10 14 10 25 35 17 22 3
10 12 8 25 35 18 23 4
10 11 7 25 35 18 24 4
9 10 5 24 34 19 25 5
8 8 4 23 32 19 26 5
7 7 2 22 31 19 27 6
6 6 0 21 30 19 28 6
5 5 -2 20 29 19 28 6
5 5 -3 19 28 19 29 7
8 7 -3 19 28 19 29 7
10 9 -2 19 27 19 29 7
12 10 -2 19 27 19 29 7
14 12 -2 19 27 19 29 7
14 11 0 18 26 18 30 8
13 9 -2 18 25 17 29 7
11 6 -2 17 24 16 28 6
9 4 -3 17 23 15 27 5
8 1 -3 17 23 15 26 4
7 0 -4 16 22 14 25 3
7 -3 -4 16 22 13 24 2
8 -4 -3 16 22 13 24 2
8 -5 -3 16 22 12 23 1
8 -6 -3 16 22 12 23 1
9 -7 -2 15 21 11 22 0
9 -7 -3 13 21 11 22 -2
8 -7 -4 11 20 10 22 -2
8 -7 -5 10 20 10 22 -3
8 -7 -6 8 20 10 22 -3
7 -8 -6 7 19 9 22 -4
5 -7 -5 7 19 10 22 -3
4 -7 -4 7 19 11 22 -2
3 -6 -2 7 19 12 22 0
2 -6 0 7 19 12 22 0
2 -4 2 10 21 14 23 1
4 -2 5 12 24 16 24 1
7 2 7 15 27 18 25 2
9 4 10 17 31 19 27 2
11 6 12 20 34 21 28 2
11 7 13 22 35 22 29 3
10 8 15 24 36 23 31 3
9 9 16 27 37 24 32 4
7 10 17 29 38 25 33 4
6 10 18 31 39 25 34 4
5 11 19 32 40 26 35 5
5 11 20 33 42 27 36 5
5 11 20 33 43 28 37 5
5 11 21 34 44 29 38 5
5 11 21 34 44 29 38 5
5 12 22 35 45 30 39 6
5 14 22 36 45 31 40 7
5 16 22 37 45 31 42 7
5 17 22 38 45 32 43 8
5 19 22 39 45 32 43 8
6 20 24 40 46 33 45 9
8 21 25 42 48 35 46 10
10 22 26 42 49 36 48 11
12 23 28 43 50 37 50 12
14 24 29 43 51 38 51 12
15 25 30 44 52 39 52 13
14 25 29 43 51 38 51 12
14 25 28 42 50 37 50 11
13 25 27 40 49 36 49 10
13 25 27 39 48 35 48 10
12 24 26 38 47 34 47 9
12 26 26 38 47 35 47 10
12 27 27 38 48 35 47 11
12 28 27 38 48 36 47 12
12 29 27 38 48 36 47 13
12 30 27 38 49 37 44 14
12 30 26 37 47 36 39 14
11 30 25 35 46 35 35 15
11 30 23 33 45 34 31 15
11 30 22 32 44 33 27 15
10 28 20 31 42 31 26 16
9 27 19 30 40 30 25 15
9 26 18 29 38 29 24 14
8 24 16 28 36 27 23 13
8 23 15 27 35 26 22 12
7 22 14 26 33 24 20 11
9 22 13 25 32 23 19 10
10 21 12 24 31 22 17 9
11 21 11 23 29 20 15 8
12 21 11 22 28 19 14 8
12 19 10 21 27 18 13 7
10 17 10 21 27 18 12 7
7 15 9 21 26 17 12 7
5 13 9 21 26 17 11 7
3 11 9 21 26 17 11 7
2 10 8 20 24 15 10 7
2 9 7 19 23 14 9 6
2 8 6 18 22 13 8 5
2 7 5 17 20 11 7 4
2 7 5 16 19 10 6 3
3 4 3 13 17 8 4 1
3 1 0 10 14 6 2 0
3 -3 -4 7 11 3 0 -2
3 -6 -6 4 9 1 -3 -4
3 -9 -9 1 6 -2 -5 -5
2 -10 -10 0 5 -3 -6 -6
2 -10 -11 -2 4 -3 -6 -6
2 -10 -11 -2 3 -4 -7 -7
2 -10 -12 -3 2 -4 -7 -7
2 -10 -12 -3 2 -4 -7 -7
2 -10 -13 -4 1 -5 -8 -8
3 -9 -12 -4 1 -5 -8 -8
5 -8 -12 -4 1 -5 -8 -8
6 -7 -11 -4 1 -5 -8 -8
8 -6 -11 -4 1 -5 -8 -8
8 -5 -9 -5 1 -4 -7 -7
6 -5 -8 -4 1 -4 -7 -6
4 -5 -6 -4 2 -4 -6 -5
2 -5 -5 -3 2 -4 -6 -5
0 -5 -3 -3 2 -4 -6 -4
-2 -5 -2 -2 3 -3 -5 -3
-3 -5 -2 -2 3 -3 -5 -4
-3 -6 -2 0 3 -3 -5 -4
-4 -6 -2 0 3 -3 -5 -5
-4 -6 -2 0 3 -3 -5 -5
-4 -6 0 2 2 -4 -6 -6
-3 -5 2 4 2 -3 -6 -5
-2 -4 3 5 3 -2 -5 -4
1 -2 5 7 3 -2 -5 -4
2 0 7 9 3 0 -5 -3
3 1 8 10 4 1 -4 -2
1 -2 8 10 4 1 -4 -2
0 -3 8 10 5 1 -4 -2
-2 -4 8 10 5 1 -4 -2
-3 -5 8 10 5 1 -4 -2
-3 -5 7 10 6 1 -4 -3
-2 -3 8 10 7 1 -4 -2
1 1 8 10 8 2 -3 -2
2 3 9 10 8 2 -3 0
4 5 9 10 9 2 -3 0
5 6 10 11 10 3 -2 1
5 5 8 11 10 3 -2 1
5 4 7 11 9 3 -2 1
5 4 6 11 9 3 -2 1
5 3 5 11 9 3 -2 1
5 2 4 12 8 4 0 1
5 2 4 12 8 4 0 1
4 2 3 13 9 5 1 2
4 2 3 13 9 5 1 2
4 2 3 13 9 5 1 2
7 10 0 17 22 25 23 17
13 22 -4 22 39 53 53 37
19 35 -7 28 57 80 82 58
26 48 -10 33 74 109 113 79
32 61 -14 38 92 137 143 100
49 75 -21 42 113 187 203 143
69 91 -30 43 137 245 277 195
90 106 -39 44 160 304 350 247
110 120 -49 46 184 363 423 301
131 136 -58 47 207 422 495 353
135 136 -63 28 185 409 489 360
132 129 -67 1 142 366 449 349
128 120 -71 -28 99 324 410 337
125 113 -75 -56 56 281 370 324
120 106 -79 -83 13 239 331 313
100 87 -80 -108 -24 178 262 264
71 63 -77 -130 -59 108 179 199
44 39 -74 -152 -94 38 97 136
15 16 -72 -175 -129 -31 15 71
-13 -8 -69 -196 -162 -100 -68 7
-21 -13 -67 -189 -162 -116 -90 -15
-19 -9 -65 -169 -146 -109 -86 -19
-18 -5 -64 -148 -130 -102 -80 -22
-16 0 -62 -128 -113 -95 -75 -26
-14 4 -60 -108 -96 -88 -71 -29
-13 5 -54 -91 -82 -78 -65 -30
-13 3 -46 -75 -70 -69 -59 -27
-13 2 -37 -61 -58 -60 -53 -24
-13 0 -30 -46 -45 -51 -47 -22
-13 -3 -22 -30 -32 -41 -39 -19
-12 -5 -18 -23 -27 -37 -37 -18
-9 -7 -15 -19 -25 -35 -36 -18
-6 -8 -12 -16 -23 -34 -35 -18
-4 -10 -9 -12 -20 -32 -34 -18
0 -12 -6 -9 -18 -30 -33 -18
0 -13 -5 -7 -17 -29 -32 -19
-3 -13 -3 -5 -17 -29 -32 -19
-5 -13 -2 -4 -17 -30 -33 -20
-8 -13 1 -3 -17 -30 -33 -20
-10 -13 2 -2 -17 -30 -33 -20
-11 -15 3 0 -17 -31 -35 -22
-11 -16 4 0 -17 -31 -36 -25
-12 -18 5 1 -17 -32 -38 -27
-12 -19 5 1 -17 -32 -39 -29
-12 -21 6 1 -17 -32 -41 -32
-13 -21 8 3 -16 -33 -41 -32
-14 -19 10 6 -13 -31 -38 -29
-15 -17 12 9 -11 -30 -36 -26
-15 -14 15 12 -9 -29 -34 -23
-16 -12 17 15 -6 -28 -31 -20
-15 -10 18 16 -5 -27 -30 -19
-11 -8 20 17 -4 -25 -28 -18
-7 -7 21 18 -3 -24 -27 -17
-4 -5 22 19 -2 -23 -26 -17
1 -3 23 20 0 -22 -25 -16
2 -2 24 21 1 -21 -24 -15
0 -4 23 20 0 -23 -25 -16
-3 -5 23 19 -2 -24 -26 -17
-5 -7 22 18 -3 -25 -27 -17
-7 -8 22 17 -4 -26 -28 -18
-8 -9 21 16 -5 -27 -29 -19
-7 -8 21 17 -6 -27 -29 -19
-6 -7 21 17 -7 -27 -29 -19
-6 -6 21 18 -7 -27 -29 -19
-5 -5 21 18 -8 -27 -29 -19
-6 -6 22 19 -10 -27 -29 -18
-8 -10 22 19 -12 -28 -31 -20
-11 -14 21 18 -14 -30 -33 -21
-14 -18 20 18 -17 -31 -35 -23
-17 -22 20 18 -19 -33 -37 -24
-19 -24 19 17 -20 -34 -38 -25
-17 -23 19 17 -20 -34 -38 -25
-16 -21 18 17 -21 -35 -39 -26
-14 -20 17 17 -22 -36 -40 -26
-13 -19 17 17 -22 -36 -40 -26
-12 -18 16 17 -23 -37 -41 -27
-13 -18 16 18 -23 -39 -44 -27
-14 -19 17 19 -24 -40 -45 -28
-14 -19 18 19 -25 -43 -47 -29
-15 -19 18 20 -25 -44 -48 -29
-16 -20 19 21 -26 -46 -50 -31
-17 -22 19 21 -27 -47 -52 -33
-18 -23 18 21 -28 -49 -54 -35
-18 -25 17 21 -28 -51 -56 -38
-19 -26 17 21 -29 -53 -58 -40
-20 -27 16 21 -30 -55 -60 -41
-20 -28 16 21 -32 -57 -61 -41
-19 -29 16 21 -33 -59 -63 -43
-19 -29 16 21 -35 -61 -64 -44
-19 -30 16 21 -36 -63 -66 -44
-18 -31 16 19 -38 -65 -68 -45
-19 -31 14 17 -39 -67 -70 -46
-20 -30 12 14 -41 -70 -72 -47
-20 -29 10 12 -44 -72 -74 -48
-21 -29 8 9 -46 -75 -76 -49
-22 -28 7 7 -48 -77 -78 -50
-22 -29 7 5 -50 -80 -80 -51
-23 -31 7 3 -53 -82 -83 -52
-24 -32 7 0 -55 -86 -86 -53
-24 -33 7 -3 -58 -89 -89 -54
-24 -32 6 -4 -59 -90 -90 -55
-21 -29 6 -5 -59 -91 -90 -55
-18 -26 7 -6 -60 -92 -91 -55
-15 -22 7 -6 -61 -92 -91 -55
-13 -19 7 -7 -61 -93 -91 -55
-11 -17 8 -8 -62 -94 -92 -54
-11 -17 9 -8 -62 -94 -92 -54
-11 -17 10 -9 -62 -94 -92 -53
-11 -17 11 -10 -62 -94 -92 -52
-11 -17 12 -10 -62 -94 -92 -52
-11 -17 14 -10 -59 -92 -88 -49
-14 -17 16 -8 -56 -87 -81 -46
-17 -16 18 -6 -53 -80 -75 -43
-20 -16 20 -4 -50 -75 -69 -38
-22 -16 22 -2 -47 -70 -63 -35
-23 -14 23 0 -44 -65 -59 -32
-21 -13 23 1 -43 -61 -56 -31
-19 -11 24 2 -40 -58 -54 -29
-17 -9 25 3 -38 -54 -51 -28
-14 -7 25 4 -36 -50 -48 -26
-13 -6 26 5 -34 -47 -46 -25
-13 -6 26 7 -32 -44 -41 -24
-14 -6 26 8 -29 -41 -38 -22
-14 -6 26 10 -27 -38 -35 -21
-14 -6 26 11 -24 -35 -32 -20
-15 -6 25 13 -22 -33 -29 -18
-15 -6 27 15 -19 -30 -26 -15
-15 -6 28 18 -16 -27 -23 -13
-15 -6 30 20 -13 -24 -20 -10
-15 -6 31 23 -11 -21 -18 -7
-14 -5 32 24 -9 -19 -16 -6
-12 -3 30 24 -9 -18 -15 -6
-9 1 29 24 -8 -16 -14 -6
-7 3 27 24 -8 -15 -14 -6
-4 6 26 24 -8 -14 -13 -6
-3 7 25 23 -7 -13 -12 -5
-5 7 25 21 -8 -14 -13 -5
-7 6 24 20 -10 -15 -14 -6
-8 5 23 18 -11 -15 -14 -6
-10 5 23 17 -12 -16 -15 -6
-11 2 22 16 -13 -17 -16 -7
-11 -3 20 14 -15 -18 -18 -8
-12 -6 19 13 -16 -20 -19 -9
-13 -10 17 11 -18 -21 -21 -9
-13 -14 16 10 -19 -22 -22 -10
-14 -16 15 9 -20 -23 -23 -11
-13 -15 15 8 -21 -24 -23 -11
-11 -13 15 7 -23 -25 -24 -12
-10 -12 15 7 -24 -25 -25 -12
-9 -11 15 6 -25 -26 -25 -12
-8 -10 14 5 -25 -26 -26 -13
-8 -10 14 5 -23 -25 -24 -12
-9 -11 15 6 -20 -23 -22 -10
-10 -11 16 6 -18 -21 -21 -9
-10 -11 16 6 -15 -19 -19 -8
-11 -12 16 6 -14 -18 -18 -7
-11 -13 13 3 -14 -18 -18 -7
-10 -14 10 1 -15 -18 -19 -8
-9 -15 7 -3 -15 -18 -19 -8
-9 -16 5 -5 -15 -18 -19 -8
-8 -16 3 -7 -15 -18 -19 -9
-8 -14 3 -7 -13 -15 -16 -8
-8 -12 4 -7 -11 -13 -14 -7
-8 -10 4 -7 -9 -10 -11 -6
-8 -7 4 -7 -7 -8 -9 -5
-7 -6 6 -5 -5 -5 -7 -4
-7 -5 8 -3 -2 -3 -5 -2
-8 -4 11 0 2 0 -4 1
-8 -3 13 2 5 2 -2 2
-8 -2 16 5 7 4 0 4
-9 0 17 7 10 6 2 5
-9 0 17 9 12 8 3 5
-8 1 17 11 14 10 5 5
-8 2 17 13 16 12 7 5
-8 2 17 15 18 14 9 5
-7 3 18 17 19 15 10 6
-7 4 19 18 20 15 10 6
-8 5 20 20 21 16 10 7
-8 6 21 22 22 16 10 7
-8 7 22 24 23 16 10 7
-9 8 24 26 25 18 12 8
-9 10 26 27 28 20 14 10
-8 12 28 29 30 22 16 12
-8 13 30 31 33 24 18 13
-8 15 32 33 35 27 21 15
-7 16 33 34 37 28 22 16
-5 16 33 34 37 28 21 15
-4 17 34 35 37 27 19 14
-3 17 34 35 37 26 18 14
0 17 34 35 37 26 17 13
1 18 35 36 36 25 16 12
-2 17 35 36 36 25 16 12
-3 15 35 36 36 24 16 11
-4 14 35 36 36 24 16 10
-6 13 35 36 36 24 16 10
-7 12 35 37 35 23 16 9
-7 13 35 37 35 23 16 9
-6 14 35 36 35 22 16 10
-6 15 35 36 35 22 16 11
-6 16 35 36 35 22 16 11
-5 17 35 35 34 21 15 12
-4 17 34 35 34 21 15 12
-3 16 33 35 34 21 15 11
-3 16 33 35 34 21 15 11
-2 16 32 35 34 21 15 11
0 14 31 34 35 20 14 10
-2 12 30 33 34 18 13 10
-3 10 29 32 33 17 12 9
-3 8 28 32 32 16 12 8
-4 5 27 31 31 14 11 8
-5 4 26 30 30 13 10 7
-5 4 26 29 29 13 9 7
-5 4 25 28 28 12 8 6
-5 4 24 27 27 11 7 5
-5 4 24 26 26 11 6 5
-5 3 23 25 25 10 5 4
-5 4 22 24 24 10 5 4
-4 5 21 23 22 9 4 4
-3 5 21 22 21 8 3 4
-3 6 20 21 20 8 3 4
-2 7 18 19 18 7 2 3
-3 5 15 16 15 6 0 1
-4 3 11 13 13 4 -3 0
-5 1 8 11 10 3 -4 -2
-6 -2 5 8 8 2 -6 -4
-6 -3 3 6 6 1 -7 -5
-4 -3 3 6 6 1 -7 -5
-2 -3 3 6 6 1 -7 -4
1 -3 3 6 6 1 -7 -3
3 -3 3 6 6 1 -7 -3
4 -2 4 5 6 0 -6 -2
2 -3 4 5 6 0 -6 -3
0 -4 4 4 5 -2 -7 -4
-2 -5 4 4 4 -2 -7 -4
-4 -6 4 4 4 -2 -7 -5
-5 -7 4 3 3 -3 -8 -6
-5 -6 6 4 3 -3 -8 -6
-5 -5 8 5 4 -3 -8 -6
-5 -5 10 5 5 -3 -8 -6
-5 -4 12 6 5 -3 -8 -6
-5 -3 13 7 6 -3 -7 -5
-6 -3 13 7 6 -3 -7 -5
-7 -4 13 7 6 -4 -7 -6
-8 -4 13 7 6 -4 -7 -7
-9 -4 13 7 6 -4 -7 -7
-10 -5 13 8 7 -5 -8 -8
-12 -5 15 10 8 -3 -7 -7
-13 -4 17 12 9 -2 -6 -6
-14 -4 19 14 10 0 -6 -5
-16 -4 21 16 11 2 -5 -4
-17 -3 22 17 12 3 -4 -3
-18 -3 22 17 12 3 -4 -3
-19 -4 21 17 12 3 -4 -3
-20 -4 21 17 12 3 -4 -3
-21 -4 21 17 12 3 -4 -3
-19 -3 20 17 13 4 -2 -3
-11 2 20 19 17 10 4 2
-3 7 20 21 22 16 10 5
5 11 20 23 26 22 15 8
13 15 20 25 30 28 20 12
23 26 18 29 47 57 53 34
37 43 10 36 72 108 111 75
51 59 2 44 99 159 171 116
65 75 -6 51 126 212 229 157
78 93 -14 58 152 263 287 198
92 106 -23 57 165 301 337 236
106 117 -33 47 163 327 376 273
119 129 -45 36 162 353 415 309
133 139 -55 26 161 380 454 345
147 150 -65 16 159 405 493 381
143 144 -69 -7 134 382 471 371
118 118 -65 -39 85 307 385 314
94 92 -61 -72 35 233 299 258
69 66 -57 -105 -14 158 213 201
45 40 -54 -138 -63 85 128 144
26 23 -52 -156 -95 30 65 101
13 14 -54 -160 -107 -4 28 70
0 6 -56 -163 -119 -37 -9 39
-15 -4 -59 -168 -132 -72 -46 9
-28 -13 -61 -172 -144 -106 -82 -22
-34 -16 -60 -161 -141 -115 -96 -36
-31 -11 -52 -136 -119 -98 -82 -31
-29 -7 -45 -111 -97 -81 -70 -26
-26 -2 -36 -86 -75 -64 -57 -21
-23 4 -28 -60 -53 -47 -44 -16
-21 5 -22 -43 -39 -36 -36 -13
-19 1 -17 -34 -34 -34 -36 -15
-17 -4 -12 -25 -30 -32 -35 -17
-15 -9 -7 -16 -25 -29 -34 -19
-13 -13 -2 -8 -20 -27 -34 -21
-11 -16 2 -3 -17 -25 -33 -23
-11 -16 2 0 -16 -23 -32 -22
-10 -16 3 1 -15 -22 -31 -22
-9 -15 4 2 -13 -21 -29 -21
-9 -15 4 4 -12 -19 -28 -20
-8 -15 5 5 -11 -18 -27 -19
-9 -17 4 4 -11 -19 -27 -19
-10 -19 3 4 -12 -19 -28 -19
-12 -21 1 3 -13 -20 -29 -20
-13 -23 0 2 -13 -21 -29 -20
-14 -25 -2 1 -14 -22 -30 -21
-12 -25 -2 1 -14 -22 -30 -21
-11 -25 -2 1 -14 -22 -30 -21
-9 -24 -2 1 -14 -22 -30 -21
-7 -24 -2 1 -14 -22 -30 -21
-7 -23 1 2 -14 -21 -29 -21
-9 -23 3 2 -14 -21 -29 -21
-11 -22 5 2 -14 -21 -29 -21
-13 -21 7 2 -14 -21 -29 -21
-15 -21 9 2 -14 -21 -29 -21
-17 -20 11 2 -15 -22 -29 -22
-18 -20 11 2 -14 -22 -29 -22
-19 -20 11 2 -14 -22 -29 -22
-20 -20 11 3 -13 -22 -29 -22
-21 -20 11 3 -12 -22 -29 -22
-22 -21 10 4 -11 -21 -29 -23
-21 -19 11 5 -9 -21 -29 -23
-20 -18 12 5 -8 -21 -29 -23
-19 -17 14 6 -7 -21 -29 -22
-18 -15 15 7 -5 -21 -29 -22
-17 -14 16 8 -4 -20 -28 -21
-17 -15 16 8 -4 -20 -28 -21
-16 -16 16 8 -4 -20 -28 -21
-15 -18 16 8 -4 -21 -29 -22
-15 -19 16 8 -4 -21 -29 -22
-14 -20 16 10 -2 -22 -30 -23
-14 -19 18 13 1 -20 -29 -22
-14 -18 21 16 4 -18 -29 -21
-14 -16 23 20 6 -16 -28 -20
-14 -15 26 23 9 -14 -27 -19
-13 -14 28 25 11 -13 -26 -18
-13 -14 28 25 11 -14 -27 -18
-13 -14 28 25 11 -15 -27 -18
-13 -14 27 25 11 -16 -28 -19
-13 -14 27 25 11 -17 -29 -19
-12 -13 26 26 11 -18 -30 -20
-13 -13 26 27 11 -18 -30 -21
-13 -12 26 28 11 -18 -30 -21
-14 -11 25 29 11 -18 -31 -22
-15 -11 25 30 11 -18 -31 -23
-16 -10 24 31 10 -19 -32 -24
-14 -11 22 31 10 -19 -32 -24
-13 -12 21 31 10 -19 -32 -24
-11 -14 20 32 10 -19 -32 -25
-9 -15 18 32 10 -19 -32 -25
-8 -16 17 33 10 -19 -33 -26
-8 -17 16 33 8 -21 -34 -27
-9 -18 15 33 7 -22 -35 -27
-10 -20 13 32 6 -24 -37 -28
-10 -21 12 32 4 -26 -38 -29
-11 -22 11 31 3 -27 -39 -30
-10 -19 11 31 3 -27 -39 -29
-9 -17 11 31 3 -27 -38 -29
-7 -15 11 31 3 -27 -37 -28
-6 -13 11 31 3 -27 -37 -27
-5 -11 10 29 2 -27 -37 -26
-6 -13 8 26 -2 -31 -39 -28
-7 -14 6 24 -6 -34 -41 -29
-8 -15 4 21 -9 -38 -45 -31
-9 -17 2 18 -13 -41 -47 -33
-10 -18 0 16 -15 -45 -49 -34
-9 -19 0 15 -15 -45 -49 -34
-8 -20 0 14 -15 -45 -49 -34
-6 -21 0 13 -15 -45 -49 -33
-5 -22 0 12 -15 -45 -49 -33
-4 -23 -2 10 -15 -46 -48 -32
-5 -22 -2 6 -16 -46 -47 -32
-5 -21 -2 2 -17 -46 -45 -31
-6 -19 -2 -3 -19 -46 -44 -30
-7 -18 -2 -6 -20 -46 -41 -30
-8 -17 0 -9 -21 -45 -39 -28
-9 -17 -2 -11 -21 -41 -37 -26
-9 -17 -2 -13 -20 -39 -35 -24
-10 -17 -3 -15 -19 -37 -32 -21
-11 -17 -4 -16 -19 -35 -30 -19
-12 -17 -5 -17 -18 -33 -28 -17
-11 -15 -4 -15 -17 -31 -27 -16
-11 -13 -3 -13 -16 -30 -25 -16
-10 -10 -2 -10 -14 -28 -24 -15
-9 -8 0 -8 -13 -26 -22 -14
-8 -6 1 -6 -12 -24 -21 -13
-8 -6 3 -6 -9 -21 -18 -12
-8 -7 5 -6 -7 -18 -16 -10
-8 -8 7 -6 -4 -15 -13 -9
-8 -8 8 -6 -2 -12 -11 -7
-9 -9 10 -5 1 -10 -9 -6
-9 -9 10 -4 2 -9 -8 -6
-10 -9 10 -4 3 -8 -7 -6
-11 -9 10 -3 4 -6 -6 -6
-11 -9 10 -2 5 -5 -5 -6
-12 -8 11 0 6 -4 -4 -5
-12 -8 11 0 6 -4 -4 -5
-12 -7 11 1 6 -4 -4 -5
-12 -6 11 2 6 -3 -4 -5
-12 -6 11 2 6 -3 -4 -5
-12 -5 10 3 7 -2 -4 -4
-11 -3 11 4 7 -2 -4 -4
-9 0 11 5 8 -2 -3 -4
-8 2 12 7 9 0 -2 -4
-6 3 13 8 9 0 -2 -4
-5 5 14 9 10 1 0 -4
-5 5 14 9 10 1 0 -4
-4 4 13 9 10 1 -2 -4
-3 3 12 8 10 1 -3 -4
-3 3 12 8 10 1 -3 -4
-2 2 11 7 9 1 -4 -4
-3 1 10 7 8 1 -4 -4
-4 0 10 7 7 0 -4 -4
-6 -2 9 6 5 -2 -5 -4
-7 -3 8 6 4 -2 -5 -4
-8 -4 7 5 3 -3 -6 -4
-6 -4 6 5 3 -2 -6 -4
-4 -5 6 5 3 1 -6 -3
-2 -6 5 5 3 2 -6 -2
0 -6 4 5 3 4 -6 -2
2 -7 3 6 4 5 -5 0
1 -7 3 8 4 5 -4 1
1 -7 3 10 5 6 -2 1
0 -7 3 12 6 7 0 2
-2 -7 3 13 6 7 2 3
-3 -7 3 15 8 9 4 4
-3 -6 3 16 11 14 8 7
-3 -5 3 16 14 18 13 9
-3 -4 3 17 17 22 17 12
-3 -3 3 18 20 27 21 14
-2 -2 3 18 22 30 24 16
1 1 -2 15 21 30 24 16
3 2 -6 11 20 29 24 16
5 4 -10 8 18 28 24 16
7 6 -14 5 17 28 24 16
11 10 -20 2 20 36 34 25
18 21 -28 0 32 64 67 50
26 32 -36 -2 45 92 100 73
33 43 -45 -4 56 118 132 97
40 54 -53 -5 68 146 164 121
54 68 -61 -8 79 181 206 153
75 89 -66 -10 90 229 268 197
98 109 -72 -13 100 276 328 242
120 130 -78 -16 110 324 389 286
143 150 -85 -19 120 372 449 331
151 160 -89 -30 114 383 467 349
133 150 -86 -58 76 326 407 317
114 140 -83 -85 38 270 348 285
97 131 -80 -112 2 214 288 254
78 120 -78 -140 -36 157 229 221
60 108 -75 -156 -63 109 175 187
42 92 -69 -153 -71 72 129 147
23 76 -64 -149 -78 35 81 108
6 60 -58 -146 -86 0 35 68
-13 44 -53 -143 -94 -37 -11 29
-24 33 -47 -133 -94 -58 -40 4
-19 31 -38 -109 -78 -50 -35 2
-15 29 -30 -87 -63 -40 -30 0
-10 27 -22 -64 -48 -31 -25 -3
-5 26 -15 -41 -32 -22 -21 -5
-2 23 -8 -24 -21 -16 -17 -7
-3 19 -2 -16 -17 -14 -16 -7
-4 14 5 -9 -13 -12 -15 -7
-6 10 10 0 -9 -10 -13 -7
-7 5 16 8 -5 -8 -12 -7
-8 2 20 13 -2 -6 -11 -8
-10 1 20 13 -2 -6 -12 -9
-11 -2 20 13 -2 -7 -13 -10
-13 -3 19 13 -2 -8 -14 -12
-14 -5 19 13 -2 -8 -15 -13
-16 -6 18 13 -2 -9 -16 -14
-16 -7 18 13 -2 -9 -17 -15
-16 -7 17 13 -3 -10 -17 -15
-16 -8 16 14 -4 -11 -18 -16
-16 -9 16 14 -4 -11 -19 -17
-15 -10 15 15 -5 -12 -20 -18
-15 -10 15 15 -5 -12 -20 -18
-14 -10 14 15 -5 -12 -20 -18
-13 -9 13 14 -6 -12 -21 -18
-13 -9 13 14 -6 -12 -21 -18
-12 -8 12 13 -7 -13 -22 -19
-11 -8 11 12 -8 -14 -23 -19
-10 -8 10 12 -9 -15 -25 -20
-9 -8 8 11 -11 -17 -26 -21
-8 -8 7 10 -12 -18 -28 -21
-7 -9 6 9 -13 -19 -29 -22
-10 -12 6 9 -13 -19 -29 -22
-12 -14 6 10 -13 -19 -29 -22
-14 -16 6 10 -13 -19 -29 -22
-17 -19 6 11 -13 -19 -29 -22
-18 -20 7 12 -13 -18 -28 -22
-14 -17 7 12 -14 -19 -29 -23
-10 -14 7 12 -14 -21 -30 -23
-6 -11 8 13 -15 -22 -31 -24
0 -8 8 13 -16 -24 -33 -25
3 -5 9 14 -17 -25 -34 -26
2 -6 10 14 -17 -25 -35 -26
1 -8 11 14 -17 -26 -35 -26
0 -9 12 14 -18 -26 -36 -26
-3 -11 13 14 -18 -27 -37 -26
-4 -13 14 15 -19 -28 -38 -27
-7 -16 11 12 -21 -31 -41 -30
-10 -20 9 9 -24 -34 -45 -33
-12 -23 7 6 -26 -37 -48 -36
-15 -27 4 3 -28 -40 -51 -39
-17 -30 2 0 -30 -44 -54 -41
-17 -30 3 0 -30 -44 -54 -41
-17 -29 4 0 -29 -44 -54 -41
-16 -29 5 1 -29 -44 -54 -41
-16 -28 6 1 -28 -44 -54 -41
-15 -27 7 2 -27 -44 -55 -40
-15 -27 7 2 -27 -46 -57 -43
-16 -27 8 2 -27 -47 -60 -45
-16 -28 8 3 -27 -49 -62 -46
-17 -28 9 3 -27 -50 -64 -48
-18 -29 10 4 -27 -52 -66 -50
-17 -29 12 6 -26 -52 -66 -50
-16 -29 13 9 -25 -52 -66 -50
-15 -28 15 11 -24 -52 -66 -51
-13 -28 16 13 -23 -52 -66 -51
-12 -27 18 15 -22 -53 -67 -52
-12 -25 19 17 -21 -52 -65 -50
-12 -22 20 19 -20 -51 -63 -48
-12 -20 21 21 -19 -50 -61 -47
-12 -18 23 23 -18 -49 -59 -45
-12 -16 24 25 -17 -48 -57 -43
-12 -16 24 25 -16 -46 -55 -40
-12 -16 23 25 -14 -45 -54 -38
-11 -16 23 24 -13 -43 -52 -37
-11 -16 22 24 -11 -41 -51 -35
-10 -15 21 23 -10 -39 -49 -33
-10 -12 22 23 -10 -38 -47 -32
-9 -10 23 24 -10 -37 -45 -31
-9 -7 24 24 -9 -36 -44 -30
-8 -4 25 25 -9 -34 -41 -29
-7 -2 26 26 -8 -33 -39 -28
-7 -2 24 24 -8 -31 -36 -26
-7 -2 21 23 -7 -29 -33 -23
-7 -2 19 21 -7 -27 -30 -21
-7 -2 17 20 -6 -25 -27 -19
-6 -3 15 18 -5 -22 -25 -17
-5 0 15 19 -2 -19 -21 -14
-3 2 15 21 1 -15 -18 -11
-2 4 15 22 3 -12 -14 -8
1 6 15 24 6 -8 -11 -5
2 8 15 25 8 -5 -8 -3
3 9 14 25 8 -4 -6 -3
3 10 12 24 8 -2 -5 -2
4 11 11 24 9 0 -3 -2
5 12 10 23 9 1 -2 0
6 13 8 22 10 3 1 1
5 13 8 21 9 3 1 1
3 12 7 19 9 3 1 1
2 12 7 18 8 2 1 1
1 11 6 17 7 2 1 1
-2 10 5 15 6 1 1 0
0 10 5 15 6 2 1 0
0 9 5 15 6 2 1 0
1 9 6 15 7 3 1 0
2 8 6 15 7 4 1 0
3 7 7 16 8 5 1 1
3 6 6 14 6 3 0 0
3 5 6 12 5 2 -3 -2
3 4 5 10 3 0 -4 -3
3 2 4 8 2 -2 -5 -5
4 1 3 6 0 -4 -7 -6
4 1 3 6 1 -4 -7 -6
4 2 3 6 1 -3 -6 -5
4 2 3 6 2 -3 -6 -5
4 3 3 6 3 -2 -5 -4
4 4 3 5 4 0 -4 -3
2 1 3 4 3 -2 -5 -4
0 -3 3 3 3 -2 -5 -5
-3 -6 3 2 2 -3 -6 -6
-5 -9 3 1 1 -4 -7 -7
-7 -12 2 0 0 -5 -8 -8
-7 -9 3 2 1 -4 -7 -6
-7 -6 4 3 3 -2 -6 -4
-7 -3 5 5 4 0 -5 0
-7 1 7 6 5 1 -3 2
-6 4 8 8 7 3 -2 4
-5 4 9 10 9 4 0 4
-5 4 11 12 10 5 1 3
-4 4 12 13 12 6 2 3
-3 4 13 15 13 8 3 2
-2 5 15 17 15 9 4 1
1 6 16 20 17 13 8 3
2 6 17 22 18 16 11 4
4 7 18 25 20 19 14 6
5 8 19 28 21 22 17 7
7 9 20 30 23 25 20 9
9 12 19 30 24 26 22 11
11 15 19 30 25 28 23 13
13 18 18 30 26 29 25 16
15 20 17 30 28 30 26 18
18 25 15 29 31 36 33 23
22 34 11 32 44 57 56 39
26 44 6 35 56 77 78 56
31 53 2 38 67 98 101 72
35 62 -4 40 79 118 123 89
45 73 -9 45 94 147 156 113
66 90 -17 52 116 199 221 161
88 107 -25 59 139 252 285 210
109 125 -32 66 161 304 350 258
131 142 -40 73 185 357 414 306
147 155 -47 71 193 387 454 340
140 152 -47 36 150 342 411 325
132 149 -47 2 107 297 368 312
125 146 -47 -33 65 252 325 298
117 144 -47 -68 22 206 282 283
105 137 -47 -100 -16 159 233 260
76 117 -45 -117 -43 104 167 202
48 99 -41 -135 -68 49 100 146
20 79 -39 -153 -94 -7 33 90
-9 60 -36 -171 -119 -62 -33 33
-31 45 -34 -180 -137 -103 -82 -11
-27 43 -35 -156 -118 -90 -73 -11
-23 40 -37 -133 -101 -77 -64 -12
-20 37 -38 -109 -83 -64 -54 -13
-16 35 -39 -85 -66 -52 -45 -14
-13 32 -40 -64 -51 -41 -36 -15
-13 26 -33 -53 -45 -38 -35 -15
-13 21 -26 -41 -38 -34 -33 -15
-12 15 -20 -30 -32 -31 -32 -15
-12 9 -13 -19 -26 -28 -31 -15
-11 4 -7 -10 -21 -25 -29 -16
-12 2 -5 -7 -21 -25 -29 -16
-13 -2 -3 -4 -20 -24 -29 -17
-14 -4 0 0 -20 -24 -29 -17
-16 -7 2 2 -19 -23 -29 -18
-17 -9 4 5 -18 -22 -30 -19
-15 -9 4 5 -18 -23 -30 -20
-13 -10 4 5 -18 -24 -30 -21
-10 -10 3 4 -18 -25 -30 -22
-8 -11 3 4 -18 -27 -30 -24
-6 -12 2 3 -19 -28 -31 -25
-6 -12 1 1 -20 -28 -32 -25
-6 -13 -2 0 -21 -29 -33 -26
-7 -13 -4 -3 -22 -30 -34 -26
-7 -14 -5 -5 -23 -31 -36 -27
-8 -15 -7 -7 -24 -32 -37 -28
-10 -15 -6 -7 -24 -32 -37 -28
-12 -16 -5 -7 -25 -32 -38 -28
-14 -16 -4 -6 -25 -33 -38 -29
-16 -17 -3 -6 -26 -33 -39 -29
-18 -18 -2 -5 -27 -34 -40 -30
-16 -16 2 -3 -26 -34 -40 -30
-14 -14 5 -2 -25 -33 -40 -29
-11 -11 7 1 -24 -32 -39 -29
-9 -9 10 3 -22 -31 -39 -28
-7 -7 13 5 -21 -30 -38 -27
-8 -9 13 5 -22 -31 -39 -29
-10 -11 12 4 -23 -33 -40 -30
-12 -14 12 4 -24 -34 -41 -32
-13 -16 11 3 -25 -35 -44 -34
-15 -18 10 2 -26 -37 -45 -36
-15 -18 10 3 -26 -37 -45 -36
-15 -19 11 4 -25 -37 -45 -35
-15 -19 12 5 -24 -37 -45 -35
-15 -20 13 6 -23 -37 -45 -34
-14 -21 14 7 -22 -36 -45 -33
-13 -21 14 8 -22 -37 -46 -34
-12 -20 15 9 -22 -38 -48 -36
-11 -20 15 10 -22 -39 -50 -37
-9 -19 16 11 -22 -41 -51 -38
-8 -18 17 12 -21 -43 -53 -40
-8 -18 18 13 -20 -43 -53 -40
-9 -18 19 15 -19 -43 -53 -39
-10 -18 20 17 -18 -41 -53 -39
-11 -18 22 18 -16 -41 -53 -38
-12 -18 23 20 -15 -40 -54 -37
-13 -20 23 21 -15 -43 -56 -39
-14 -21 23 23 -15 -45 -59 -43
-15 -23 23 25 -16 -48 -61 -45
-17 -25 23 26 -16 -50 -64 -48
-18 -27 22 28 -17 -52 -66 -50
-18 -27 22 29 -17 -52 -66 -50
-18 -27 22 30 -16 -52 -66 -50
-18 -27 21 31 -16 -52 -66 -51
-18 -27 21 33 -15 -52 -66 -51
-18 -28 20 34 -14 -53 -67 -52
-16 -26 20 35 -14 -53 -68 -52
-14 -24 20 36 -13 -54 -69 -52
-12 -22 20 37 -13 -54 -70 -52
-10 -20 20 38 -12 -55 -71 -52
-8 -18 21 39 -11 -56 -72 -53
-8 -18 19 38 -12 -57 -72 -53
-8 -19 17 37 -14 -58 -72 -52
-8 -20 15 36 -16 -59 -72 -52
-8 -21 12 34 -17 -60 -72 -51
-9 -22 10 33 -19 -61 -73 -50
-9 -24 9 30 -21 -62 -73 -50
-9 -26 7 28 -23 -64 -74 -51
-9 -28 5 25 -25 -65 -75 -51
-9 -30 4 23 -27 -66 -76 -52
-9 -32 2 20 -29 -68 -77 -53
-9 -32 2 20 -29 -65 -73 -49
-8 -31 2 19 -29 -63 -69 -46
-7 -30 2 18 -28 -60 -65 -41
-6 -29 2 17 -28 -58 -62 -38
-5 -28 1 16 -27 -55 -58 -34
-5 -25 1 14 -26 -52 -54 -32
-4 -22 0 11 -25 -50 -49 -29
-3 -18 -2 9 -24 -47 -45 -27
-2 -15 -3 7 -23 -45 -40 -25
0 -12 -4 4 -21 -41 -36 -22
0 -12 -4 3 -21 -39 -34 -21
-2 -12 -4 1 -21 -38 -31 -20
-2 -12 -5 -2 -20 -36 -29 -19
-3 -12 -5 -3 -20 -34 -27 -18
-4 -13 -6 -5 -19 -32 -24 -17
-4 -10 -4 -5 -17 -29 -21 -16
-3 -7 -2 -5 -15 -26 -19 -14
-3 -4 1 -5 -13 -24 -16 -12
-2 0 3 -5 -11 -21 -14 -11
0 3 5 -6 -9 -18 -11 -9
-2 2 5 -5 -9 -17 -10 -8
-4 1 5 -4 -8 -15 -9 -6
-5 0 6 -3 -8 -13 -8 -5
-6 -2 6 -2 -7 -12 -7 -4
-8 -4 7 0 -6 -10 -5 -2
-8 -4 7 0 -6 -10 -5 -2
-7 -3 8 1 -5 -10 -5 -2
-7 -3 9 2 -5 -10 -5 -2
-6 -2 10 3 -4 -10 -5 -2
-5 0 11 4 -3 -10 -5 -3
-5 0 11 4 -3 -10 -5 -3
-5 1 11 4 -2 -10 -5 -3
-5 1 12 5 0 -10 -4 -3
-5 2 12 5 1 -10 -4 -3
-4 3 13 6 2 -9 -3 -4
-4 3 14 7 3 -8 -3 -4
-3 3 16 8 4 -7 -2 -3
-3 4 18 10 6 -6 0 -3
-2 4 19 11 7 -5 1 -2
0 5 21 13 9 -3 2 0
0 5 21 13 10 -2 3 1
0 4 21 13 11 1 4 2
-2 4 21 14 12 3 6 3
-2 3 21 14 13 4 7 4
-3 2 20 15 14 6 9 6
0 4 20 17 16 8 11 6
3 6 21 20 18 10 12 7
6 8 21 23 20 12 14 8
8 11 22 25 23 15 16 9
11 13 23 28 25 17 18 10
11 12 22 28 25 18 18 10
11 11 21 28 26 19 19 10
10 10 20 29 26 20 19 11
10 9 19 29 27 21 20 11
9 8 17 30 28 22 21 12
8 8 17 30 28 22 21 12
7 9 17 30 28 22 22 13
5 9 16 31 28 23 22 13
4 10 16 31 28 23 23 14
2 11 15 32 29 24 24 15
2 9 12 31 29 24 24 14
2 7 10 29 28 24 23 13
3 5 7 28 27 23 23 12
3 2 4 26 26 23 22 11
4 0 1 24 25 22 21 10
6 1 1 24 25 22 21 11
9 3 2 25 25 22 22 12
11 4 2 25 25 23 23 13
13 6 3 26 25 23 24 14
16 8 4 27 25 24 25 16
14 7 3 24 24 24 24 16
11 5 2 22 23 23 23 15
9 4 1 19 22 22 22 14
7 2 0 16 21 21 21 13
4 0 -3 13 19 20 20 12
5 0 -3 13 18 19 20 12
6 1 -4 12 17 18 20 12
7 2 -5 11 16 17 19 13
8 3 -6 10 15 16 19 13
10 4 -7 9 13 15 18 14
10 4 -7 8 13 15 18 14
11 5 -6 7 13 14 17 14
11 6 -5 6 12 14 16 14
12 7 -4 5 12 13 15 14
13 8 -3 3 11 12 14 13
8 7 -3 3 11 11 13 12
3 6 -3 3 10 10 11 11
-4 5 -3 3 9 8 9 9
-9 4 -3 3 8 7 7 8
-14 2 -3 2 7 5 5 6
-11 2 -3 2 7 5 5 6
-7 3 -2 2 8 6 6 7
-3 4 -2 3 8 7 7 8
1 5 0 3 9 8 8 9
5 6 1 4 10 9 9 10
3 4 1 4 9 8 8 9
1 2 1 3 8 7 6 8
-2 0 1 2 7 6 5 7
-4 -3 1 1 6 5 3 6
-6 -6 0 0 5 3 1 4
-5 -4 1 0 5 3 2 5
-3 -2 2 1 6 4 3 6
-2 1 3 2 7 5 4 7
1 3 4 3 8 6 5 8
3 6 5 4 9 7 7 10
3 6 5 4 9 7 7 9
4 6 5 5 9 7 6 8
5 6 6 5 8 6 6 7
6 6 6 6 8 6 5 6
7 5 7 7 7 5 4 4
7 5 7 7 7 5 4 4
6 5 7 7 7 5 4 4
6 5 7 7 8 5 4 4
5 5 7 7 8 5 4 4
4 4 6 8 9 6 3 4
4 4 6 8 9 6 3 4
3 3 6 9 10 6 3 4
2 3 6 10 10 6 3 4
1 2 6 11 11 6 3 4
0 1 7 12 12 5 2 3
-2 1 7 12 12 5 2 3
-4 0 7 12 12 5 2 3
-5 -2 7 12 12 6 3 3
-7 -3 7 12 12 6 3 3
-9 -4 8 13 12 7 4 3
-5 -4 8 14 12 7 4 3
0 -4 8 15 13 7 4 3
4 -4 8 16 13 8 4 4
9 -4 8 17 14 8 4 4
13 -4 8 18 15 9 4 5
13 -4 8 17 15 9 4 5
13 -3 8 16 14 9 4 5
13 -2 7 15 14 8 3 4
13 0 7 14 13 8 3 4
12 1 6 12 12 7 2 3
9 1 6 12 12 7 2 3
5 0 7 13 12 7 2 3
1 -2 8 14 12 7 2 3
-3 -3 9 15 12 7 2 3
-7 -4 10 16 11 6 2 3
-5 -6 8 15 10 5 2 3
-3 -9 6 13 9 4 1 2
1 -11 4 12 8 3 0 1
3 -14 2 10 7 2 -2 0
6 -17 0 8 6 1 -3 -2
6 -17 0 8 6 1 -3 -2
6 -16 0 7 6 1 -3 -2
6 -16 0 6 5 1 -4 -2
6 -15 0 5 5 1 -4 -2
5 -14 -2 4 4 0 -5 -2
4 -14 -2 4 4 0 -5 -2
3 -13 -2 4 4 0 -5 -2
2 -12 -2 3 4 -2 -6 -3
1 -11 -2 3 4 -2 -6 -3
0 -10 0 2 3 -3 -7 -4
-3 -10 0 2 3 -3 -7 -4
-5 -10 1 2 3 -3 -7 -4
-7 -10 2 2 3 -3 -7 -4
-9 -10 3 2 3 -3 -7 -4
-11 -10 4 3 4 -2 -6 -3
-9 -9 4 3 4 -2 -6 -3
-6 -7 4 3 4 -2 -6 -3
-3 -6 4 3 4 -2 -6 -4
1 -4 4 3 4 -2 -6 -4
4 -2 3 3 5 0 -6 -5
4 -2 3 3 5 0 -6 -5
5 0 3 3 5 0 -6 -5
5 1 4 3 6 0 -6 -5
6 2 4 3 6 0 -6 -5
7 3 5 4 7 1 -6 -4
5 2 5 4 7 1 -6 -4
2 1 5 5 8 2 -5 -4
0 0 5 5 8 2 -5 -4
-4 -2 5 6 9 3 -4 -4
-7 -4 6 7 10 4 -3 -3
-7 -3 6 7 10 4 -3 -3
-6 0 6 7 10 5 -3 -3
-5 1 6 8 10 5 -3 -3
-4 3 6 8 10 6 -3 -3
-3 5 6 9 9 7 -3 -4
1 8 6 9 12 10 -2 -3
4 12 5 10 15 14 1 -2
7 15 4 10 18 18 2 0
10 19 3 11 21 22 4 1
13 23 2 12 25 26 6 3
24 34 -7 14 43 63 50 33
35 47 -16 17 61 99 94 65
47 58 -24 20 78 135 138 96
58 70 -33 23 96 172 182 128
69 82 -43 26 114 207 226 158
87 102 -52 21 126 256 288 206
105 121 -61 16 137 304 351 255
123 141 -70 11 149 351 413 302
141 161 -79 6 160 399 476 350
159 181 -89 0 173 447 538 398
143 159 -89 -28 129 382 467 356
127 137 -89 -57 86 316 394 313
110 115 -89 -86 42 251 322 271
94 93 -89 -113 -2 185 251 229
77 70 -89 -142 -46 119 179 186
55 52 -87 -154 -69 70 121 141
32 32 -83 -166 -93 20 63 97
9 13 -80 -179 -116 -30 5 52
-14 -7 -77 -191 -140 -79 -53 7
-37 -26 -74 -203 -164 -130 -111 -38
-32 -21 -70 -180 -145 -116 -101 -36
-27 -16 -66 -155 -126 -102 -90 -34
-22 -11 -62 -131 -105 -88 -78 -31
-18 -7 -58 -106 -86 -73 -67 -29
-13 -2 -54 -82 -66 -60 -57 -27
-12 -3 -48 -71 -59 -55 -54 -27
-12 -6 -41 -61 -52 -50 -51 -28
-12 -9 -36 -51 -45 -46 -49 -29
-12 -12 -30 -40 -37 -40 -46 -30
-12 -15 -25 -30 -31 -36 -44 -31
-10 -16 -21 -27 -28 -34 -43 -32
-8 -17 -18 -24 -26 -33 -41 -31
-6 -17 -15 -21 -24 -31 -40 -31
-4 -18 -12 -18 -22 -30 -39 -30
-3 -18 -9 -15 -20 -29 -39 -30
-2 -19 -7 -14 -19 -28 -38 -29
-2 -19 -5 -13 -19 -28 -38 -29
-2 -20 -3 -12 -18 -28 -38 -29
-2 -20 0 -11 -18 -28 -38 -29
-2 -20 1 -11 -18 -28 -38 -29
-4 -21 3 -9 -17 -27 -37 -30
-5 -20 5 -8 -16 -26 -37 -30
-7 -19 7 -6 -15 -26 -36 -30
-8 -18 9 -5 -14 -25 -36 -30
-9 -18 11 -4 -14 -25 -36 -30
-10 -17 12 -3 -13 -24 -35 -31
-10 -17 12 -3 -13 -25 -35 -32
-10 -18 12 -4 -13 -25 -35 -32
-10 -18 12 -4 -13 -26 -35 -33
-10 -18 12 -4 -13 -26 -35 -33
-10 -19 12 -5 -14 -27 -36 -35
-10 -19 12 -5 -15 -28 -37 -36
-11 -20 13 -5 -16 -28 -38 -37
-11 -20 13 -5 -17 -29 -39 -38
-11 -20 13 -5 -17 -29 -39 -39
-12 -21 15 -5 -17 -29 -39 -39
-13 -20 16 -4 -16 -28 -37 -37
-14 -19 17 -3 -14 -26 -36 -36
-15 -18 18 -2 -13 -25 -34 -34
-15 -17 19 0 -12 -24 -33 -33
-16 -17 19 0 -12 -24 -33 -33
-16 -19 18 -2 -14 -26 -35 -35
-15 -21 16 -3 -16 -28 -37 -36
-15 -23 15 -4 -18 -30 -39 -38
-15 -25 14 -5 -19 -31 -41 -39
-13 -24 13 -6 -20 -32 -43 -40
-11 -21 12 -6 -20 -32 -43 -40
-10 -18 11 -6 -20 -33 -43 -41
-8 -15 10 -6 -20 -33 -43 -41
-7 -12 9 -6 -20 -33 -43 -41
-8 -11 9 -4 -19 -34 -44 -43
-10 -12 10 -2 -17 -34 -43 -41
-13 -13 11 1 -16 -33 -43 -40
-15 -14 12 3 -14 -33 -41 -39
-17 -15 13 4 -13 -33 -41 -39
-16 -16 13 5 -13 -33 -41 -39
-14 -17 11 4 -15 -35 -44 -41
-12 -18 10 4 -17 -36 -46 -44
-10 -19 8 3 -19 -38 -48 -46
-8 -20 7 3 -20 -39 -50 -47
-7 -21 6 2 -21 -40 -51 -48
-6 -21 6 2 -21 -41 -51 -48
-6 -21 5 3 -21 -41 -52 -48
-5 -21 5 3 -21 -43 -52 -48
-5 -21 5 3 -21 -43 -52 -48
-4 -22 4 4 -21 -44 -53 -48
-5 -24 3 3 -22 -45 -54 -48
-6 -25 3 2 -22 -46 -54 -48
-7 -27 2 1 -23 -47 -55 -48
-8 -28 2 1 -23 -47 -55 -48
-8 -28 1 0 -24 -48 -56 -47
-6 -26 1 0 -23 -47 -55 -46
-5 -24 1 -2 -23 -47 -55 -46
-3 -22 1 -2 -22 -46 -54 -45
-2 -20 1 -2 -22 -46 -54 -45
0 -18 2 -3 -21 -45 -53 -44
0 -17 3 -4 -21 -46 -53 -44
-2 -16 4 -4 -21 -47 -54 -44
-2 -15 5 -5 -21 -48 -54 -44
-2 -14 5 -5 -21 -48 -54 -44
-4 -13 6 -6 -21 -49 -55 -43
-6 -14 7 -6 -22 -50 -56 -44
-8 -15 8 -7 -23 -51 -57 -45
-10 -16 9 -7 -24 -52 -58 -46
-11 -16 10 -7 -24 -52 -58 -46
-12 -17 11 -8 -25 -53 -59 -47
-11 -16 11 -9 -25 -53 -58 -46
-10 -15 11 -9 -25 -53 -57 -46
-9 -14 11 -10 -25 -53 -56 -45
-8 -13 11 -10 -25 -53 -56 -45
-7 -12 11 -11 -25 -52 -53 -44
-8 -12 11 -12 -25 -50 -51 -43
-8 -12 11 -13 -25 -48 -48 -41
-9 -12 11 -14 -25 -46 -46 -40
-9 -12 11 -14 -25 -44 -44 -40
-8 -12 10 -15 -24 -41 -40 -38
-6 -11 10 -15 -22 -39 -37 -36
-4 -10 10 -15 -20 -38 -35 -34
-2 -9 10 -15 -18 -36 -32 -32
1 -8 10 -15 -17 -35 -30 -31
2 -7 11 -14 -14 -31 -27 -28
2 -6 12 -13 -11 -27 -24 -26
2 -6 13 -12 -8 -23 -21 -23
2 -5 14 -11 -6 -20 -19 -20
2 -5 15 -10 -3 -16 -16 -18
2 -4 15 -10 -2 -15 -15 -17
2 -4 14 -11 -3 -15 -15 -18
2 -4 13 -12 -4 -15 -15 -18
2 -4 12 -13 -5 -15 -15 -19
2 -4 11 -14 -5 -15 -15 -19
2 -3 10 -15 -6 -14 -14 -20
1 -4 10 -15 -5 -13 -13 -19
0 -4 10 -15 -4 -12 -12 -19
-2 -5 10 -15 -3 -11 -11 -18
-2 -5 10 -15 -3 -10 -10 -18
-3 -6 8 -15 -3 -9 -9 -18
-2 -6 6 -17 -4 -10 -10 -19
0 -6 4 -19 -5 -11 -10 -20
1 -6 2 -21 -6 -12 -11 -21
1 -6 0 -23 -7 -12 -11 -22
1 -6 -2 -24 -8 -13 -12 -23
-2 -5 -2 -24 -7 -12 -11 -22
-3 -4 -2 -23 -7 -12 -11 -21
-5 -3 -2 -23 -6 -11 -10 -20
-6 -3 -2 -23 -6 -11 -10 -19
-7 -4 -2 -23 -6 -11 -9 -19
-7 -7 -3 -25 -7 -13 -10 -20
-7 -10 -4 -26 -9 -15 -11 -21
-7 -12 -5 -28 -10 -17 -12 -22
-7 -15 -6 -29 -11 -18 -13 -23
-6 -15 -7 -30 -12 -19 -14 -24
-3 -12 -6 -30 -11 -18 -13 -23
0 -10 -5 -30 -11 -17 -13 -22
2 -8 -4 -30 -10 -16 -12 -21
4 -6 -4 -30 -10 -15 -12 -21
5 -5 -3 -31 -9 -14 -11 -20
4 -6 -4 -32 -9 -14 -11 -20
3 -7 -5 -33 -10 -13 -11 -20
2 -8 -6 -34 -10 -13 -11 -20
1 -8 -6 -34 -10 -13 -11 -20
0 -9 -7 -35 -11 -11 -9 -18
1 -9 -6 -36 -10 -10 -7 -17
2 -9 -6 -37 -9 -8 -6 -16
3 -9 -5 -38 -8 -7 -4 -15
4 -9 -5 -38 -8 -6 -3 -14
5 -8 -2 -39 -6 -3 0 -13
5 -6 1 -39 -4 0 2 -13
5 -4 3 -39 -2 2 4 -13
5 0 6 -39 1 5 6 -13
5 2 8 -39 3 7 8 -13
3 3 10 -36 5 10 10 -12
2 4 11 -33 7 12 11 -9
1 5 12 -29 9 15 13 -7
0 6 13 -26 10 18 14 -5
-2 6 14 -22 12 20 15 -3
-3 7 15 -21 14 21 17 -2
-3 7 15 -20 15 22 19 -2
-4 6 16 -20 17 23 20 -3
-4 6 16 -19 18 24 22 -3
-4 6 16 -19 19 24 23 -3
-3 5 17 -18 20 25 24 -4
2 6 17 -17 21 25 24 -4
5 7 17 -16 21 26 24 -3
9 8 17 -15 22 26 24 -3
12 8 17 -15 22 26 24 -3
12 9 17 -13 23 27 24 -2
11 10 17 -12 24 28 25 0
9 10 18 -10 25 28 26 0
7 11 18 -9 26 29 27 1
6 11 18 -8 26 29 27 1
5 12 19 -7 27 30 27 2
4 12 18 -7 26 29 26 1
4 11 17 -7 25 28 25 0
3 11 16 -7 24 27 24 -2
3 11 16 -7 24 26 23 -2
2 8 15 -7 23 25 22 -3
2 6 14 -7 22 24 21 -4
2 4 13 -7 21 23 20 -4
2 1 12 -7 20 22 19 -5
2 -2 12 -7 20 22 19 -5
4 0 12 -6 19 21 18 -6
5 3 13 -5 20 22 19 -5
6 5 14 -4 20 22 20 -4
7 8 15 -3 21 23 21 -3
8 11 16 -2 21 23 21 -2
8 11 17 0 21 24 22 0
7 10 17 0 20 23 21 -2
5 9 17 -2 19 23 21 -2
3 8 17 -2 18 22 20 -3
2 7 17 -2 17 22 20 -3
1 4 16 -4 14 19 17 -6
1 1 14 -5 11 16 13 -9
0 -4 12 -7 9 12 10 -11
0 -7 9 -9 6 9 6 -14
0 -10 7 -10 3 6 3 -17
1 -8 6 -11 2 5 2 -17
4 -4 6 -11 2 5 3 -16
6 1 6 -11 2 6 4 -15
9 6 6 -11 2 6 5 -14
12 10 6 -11 2 6 5 -13
13 9 7 -10 2 6 6 -12
12 6 6 -11 1 5 5 -13
11 3 5 -12 0 4 4 -14
10 0 4 -13 -2 3 3 -15
9 -4 3 -14 -3 2 3 -15
7 -6 1 -16 -4 1 2 -16
6 -7 0 -17 -5 1 1 -16
5 -8 -3 -18 -6 0 1 -16
4 -9 -5 -19 -7 0 0 -16
3 -10 -6 -20 -8 0 0 -16
2 -11 -7 -21 -9 -2 -2 -17
2 -10 -7 -21 -9 -3 -2 -17
2 -9 -7 -21 -9 -3 -3 -17
2 -8 -7 -21 -9 -4 -3 -17
2 -8 -7 -21 -9 -4 -3 -17
3 -7 -8 -21 -10 -5 -4 -18
3 -5 -7 -21 -9 -5 -4 -16
4 -4 -6 -20 -8 -4 -4 -15
4 -3 -5 -20 -7 -4 -4 -14
4 -2 -4 -20 -7 -4 -4 -13
2 0 -3 -19 -6 -3 -3 -12
-3 -2 -2 -17 -6 -3 -3 -11
-7 -3 0 -16 -7 -3 -3 -10
-11 -4 1 -15 -7 -3 -3 -9
-15 -5 1 -14 -7 -3 -3 -9
-15 -6 2 -13 -8 -3 -4 -8
-12 -6 2 -13 -8 -4 -4 -8
-10 -5 1 -14 -8 -4 -4 -8
-7 -5 1 -14 -8 -5 -4 -8
-5 -5 1 -14 -8 -5 -4 -8
-3 -4 1 -14 -8 -6 -5 -7
0 -4 2 -13 -7 -6 -5 -6
2 -3 3 -12 -6 -5 -5 -5
3 -3 5 -10 -5 -5 -5 -4
5 -3 6 -9 -4 -5 -5 -4
5 -2 7 -8 -3 -4 -4 -3
3 -3 6 -8 -3 -5 -4 -3
1 -3 6 -8 -4 -5 -5 -4
0 -4 5 -8 -4 -6 -5 -4
-3 -4 5 -8 -4 -6 -5 -4
-4 -5 4 -9 -5 -7 -6 -5
-4 -6 4 -8 -5 -7 -6 -5
-4 -7 4 -8 -4 -7 -6 -5
-4 -8 4 -7 -4 -7 -6 -5
-4 -8 4 -7 -4 -7 -6 -5
-5 -9 4 -6 -3 -6 -6 -6
-5 -9 4 -4 -3 -6 -6 -5
-5 -8 5 -3 -2 -6 -6 -4
-5 -8 5 -2 -2 -6 -6 -3
-5 -8 5 0 -2 -6 -6 -2
-4 -7 6 1 0 -7 -7 0
-5 -8 5 1 1 -6 -7 -2
-6 -9 4 1 1 -6 -7 -3
-7 -10 3 1 2 -5 -7 -4
-8 -10 2 1 2 -5 -7 -5
-7 -10 1 2 3 -4 -7 -6
-5 -8 2 3 3 -4 -6 -5
-2 -6 2 3 3 -4 -5 -4
1 -5 3 4 3 -4 -4 -3
4 -3 3 4 3 -4 -3 -2
5 -3 4 5 3 -3 -2 0
5 -5 3 5 2 -4 -3 -2
4 -7 3 5 1 -4 -4 -3
4 -9 2 5 0 -5 -5 -4
4 -11 2 5 0 -5 -5 -4
3 -12 1 4 -2 -6 -6 -5
4 -11 1 4 -2 -6 -6 -5
4 -10 1 5 -2 -6 -6 -4
5 -9 1 5 -2 -6 -6 -4
5 -8 1 5 -2 -6 -6 -4
6 -8 1 6 -2 -5 -5 -3
5 -9 0 5 -3 -6 -6 -4
4 -11 -2 4 -4 -6 -6 -4
3 -13 -3 3 -5 -7 -7 -5
2 -14 -4 2 -5 -7 -7 -5
3 -13 -5 1 -5 -7 -7 -6
5 -11 -7 1 -4 -5 -5 -5
8 -8 -8 1 -2 -3 -3 -4
10 -6 -9 1 1 0 -2 -3
13 -3 -10 1 2 2 1 -2
18 7 -15 2 15 26 29 19
24 17 -22 4 31 58 65 45
30 28 -28 7 47 90 102 70
35 39 -35 10 63 121 138 97
42 50 -41 13 79 153 175 122
60 69 -50 14 96 202 235 169
82 91 -59 14 112 257 304 221
105 112 -68 14 129 311 372 273
128 134 -77 14 145 365 441 325
150 155 -87 14 161 420 510 378
144 148 -90 -12 133 390 482 365
129 132 -91 -46 90 335 424 334
112 115 -92 -78 47 278 365 302
97 98 -93 -112 4 222 307 270
81 81 -94 -146 -39 165 250 238
61 62 -93 -165 -72 106 181 188
38 40 -89 -181 -101 46 109 134
16 20 -86 -195 -131 -15 37 78
-7 -2 -81 -211 -160 -75 -34 24
-28 -23 -77 -226 -190 -136 -106 -31
-33 -25 -72 -210 -181 -140 -115 -44
-32 -19 -66 -182 -158 -126 -105 -41
-30 -14 -60 -155 -136 -111 -94 -40
-28 -9 -55 -128 -113 -98 -83 -38
-27 -4 -49 -100 -91 -83 -72 -36
-24 -2 -40 -81 -77 -74 -66 -35
-22 0 -32 -67 -66 -67 -61 -34
-19 0 -24 -52 -56 -60 -56 -34
-16 1 -16 -37 -45 -52 -51 -33
-13 1 -8 -22 -34 -45 -47 -33
-13 0 -4 -15 -29 -41 -45 -32
-14 -5 1 -9 -26 -39 -44 -33
-15 -8 4 -4 -22 -36 -44 -33
-17 -12 8 2 -19 -34 -43 -34
-18 -16 12 7 -15 -32 -43 -34
-19 -17 13 9 -14 -31 -41 -35
-19 -19 12 9 -14 -32 -41 -35
-19 -20 12 10 -14 -32 -41 -35
-19 -21 11 10 -14 -33 -41 -35
-19 -22 11 10 -14 -33 -41 -35
-18 -23 10 12 -14 -34 -39 -36
-17 -23 10 14 -13 -33 -38 -35
-16 -22 11 16 -12 -32 -37 -35
-16 -22 11 18 -10 -32 -35 -34
-15 -22 11 20 -9 -31 -34 -34
-13 -20 12 21 -9 -31 -34 -33
-11 -18 10 20 -10 -32 -35 -35
-10 -17 9 19 -12 -34 -37 -36
-8 -15 8 18 -13 -35 -38 -37
-6 -13 7 17 -15 -37 -40 -38
-6 -12 7 16 -15 -37 -41 -39
-8 -14 9 18 -14 -35 -40 -38
-9 -15 11 19 -13 -34 -39 -38
-11 -16 13 20 -11 -32 -38 -37
-13 -17 15 21 -10 -30 -37 -37
-14 -18 16 22 -9 -29 -36 -36
-15 -20 14 20 -10 -30 -37 -37
-16 -21 13 19 -11 -31 -37 -37
-17 -22 12 18 -12 -32 -38 -38
-18 -23 11 17 -13 -33 -38 -38
-17 -24 10 16 -14 -34 -39 -39
-14 -24 10 15 -14 -34 -39 -39
-11 -24 10 14 -15 -34 -40 -40
-8 -24 10 14 -15 -34 -40 -40
-5 -24 10 13 -15 -34 -40 -40
-5 -23 9 11 -17 -35 -41 -41
-6 -23 7 9 -19 -36 -44 -41
-7 -23 5 7 -21 -37 -45 -41
-9 -23 2 5 -23 -37 -46 -41
-10 -23 0 3 -25 -38 -47 -41
-11 -25 -2 2 -26 -40 -48 -43
-12 -27 -2 0 -27 -43 -50 -45
-13 -29 -3 -2 -28 -44 -51 -46
-14 -31 -3 -3 -29 -46 -52 -48
-15 -33 -3 -4 -30 -48 -53 -50
-15 -33 -3 -5 -31 -49 -54 -51
-14 -31 0 -4 -31 -48 -54 -51
-13 -29 2 -3 -30 -48 -53 -50
-11 -27 5 -2 -30 -47 -53 -50
-10 -25 7 0 -30 -47 -53 -50
-9 -24 9 2 -29 -46 -52 -49
-10 -24 12 4 -28 -46 -54 -51
-11 -24 14 6 -27 -47 -55 -52
-11 -24 16 9 -27 -47 -56 -53
-12 -24 19 11 -26 -47 -57 -54
-14 -24 20 12 -25 -49 -59 -55
-17 -25 20 12 -25 -50 -60 -57
-20 -25 19 12 -25 -52 -62 -58
-22 -26 19 12 -25 -53 -63 -59
-25 -26 19 12 -25 -55 -65 -60
-24 -26 19 14 -25 -56 -66 -61
-19 -24 22 17 -23 -54 -65 -59
-15 -23 24 20 -21 -53 -64 -58
-11 -21 26 23 -19 -52 -63 -57
-7 -19 29 26 -17 -51 -62 -56
-6 -18 30 27 -16 -50 -61 -55
-9 -17 29 27 -17 -52 -62 -56
-11 -16 29 27 -17 -53 -63 -56
-13 -16 28 27 -18 -55 -64 -57
-16 -15 28 27 -18 -56 -65 -57
-17 -13 27 28 -19 -57 -66 -58
-15 -11 27 28 -19 -57 -66 -57
-14 -10 27 29 -19 -57 -66 -57
-13 -8 27 29 -19 -57 -66 -56
-12 -6 27 29 -19 -57 -66 -56
-13 -5 27 29 -18 -57 -66 -55
-17 -7 25 26 -20 -59 -67 -56
-21 -8 23 23 -21 -60 -68 -56
-25 -9 21 21 -22 -61 -68 -57
-29 -10 19 18 -23 -62 -69 -57
-27 -11 18 17 -24 -63 -70 -55
-21 -11 17 15 -25 -63 -68 -50
-15 -12 16 14 -26 -62 -67 -46
-9 -12 15 13 -26 -62 -65 -40
-2 -12 14 12 -27 -62 -64 -35
1 -13 13 11 -28 -60 -61 -31
-2 -12 13 10 -27 -57 -58 -28
-3 -11 12 9 -26 -55 -55 -24
-4 -11 12 9 -25 -53 -52 -21
-5 -10 12 8 -24 -50 -49 -18
-6 -10 11 7 -23 -48 -46 -15
-7 -12 11 7 -22 -45 -44 -13
-8 -14 11 7 -22 -43 -41 -11
-9 -17 11 7 -21 -39 -38 -8
-10 -19 11 7 -21 -36 -36 -6
-12 -20 12 6 -20 -35 -35 -5
-14 -20 12 5 -20 -34 -35 -5
-15 -20 12 4 -20 -34 -34 -5
-17 -20 12 3 -20 -33 -34 -5
-19 -20 12 2 -20 -33 -34 -5
-18 -18 11 0 -19 -32 -33 -6
-14 -15 10 -3 -19 -32 -32 -6
-10 -13 9 -5 -19 -32 -31 -6
-6 -11 8 -8 -19 -32 -31 -6
-2 -8 7 -10 -19 -32 -30 -6
0 -7 6 -13 -20 -33 -30 -8
-3 -9 5 -16 -22 -35 -32 -9
-5 -10 4 -19 -24 -36 -33 -11
-7 -12 3 -22 -27 -37 -35 -12
-9 -13 2 -25 -29 -38 -37 -14
-10 -14 2 -26 -30 -39 -38 -15
-10 -14 4 -26 -30 -39 -37 -14
-10 -15 6 -26 -29 -39 -36 -13
-10 -15 9 -26 -29 -39 -35 -12
-10 -15 11 -26 -29 -39 -34 -11
-9 -16 12 -26 -28 -38 -34 -10
-10 -15 12 -26 -28 -38 -35 -10
-12 -14 13 -25 -27 -38 -37 -11
-13 -13 14 -24 -26 -38 -38 -11
-14 -12 14 -24 -26 -38 -40 -11
-16 -11 15 -23 -25 -38 -41 -12
-17 -11 17 -22 -25 -38 -40 -13
-19 -12 18 -20 -24 -38 -39 -14
-21 -12 20 -19 -23 -38 -39 -14
-23 -12 21 -18 -23 -38 -38 -15
-24 -13 23 -16 -21 -38 -36 -16
-23 -12 24 -14 -20 -36 -35 -14
-21 -10 26 -12 -18 -34 -33 -13
-20 -9 28 -10 -17 -31 -31 -11
-19 -8 30 -8 -15 -29 -29 -10
-18 -7 31 -6 -13 -27 -28 -9
-17 -7 31 -5 -11 -26 -26 -9
-15 -7 31 -3 -9 -24 -25 -8
-14 -7 31 -2 -6 -22 -23 -7
-13 -7 31 1 -4 -20 -22 -7
-12 -5 31 3 -2 -17 -20 -5
-12 -3 31 5 1 -14 -17 -4
-13 0 32 7 4 -11 -14 -2
-13 3 33 9 6 -8 -11 0
-13 5 33 11 9 -5 -8 2
-13 6 34 13 11 -2 -6 3
-12 6 33 14 13 1 -5 4
-10 6 32 16 15 4 -3 5
-9 6 31 17 18 6 0 6
-7 6 30 19 20 9 2 7
-6 7 29 20 21 10 3 8
-6 7 27 20 21 10 4 8
-6 8 26 20 22 11 5 8
-6 8 24 20 23 11 5 8
-6 8 23 20 23 11 6 8
-6 9 22 21 24 12 7 9
-6 9 22 22 25 14 8 9
-6 9 23 24 26 15 9 10
-6 9 24 25 26 17 10 10
-6 9 24 27 27 18 11 10
-5 8 24 28 27 19 12 11
-4 7 22 26 26 18 11 10
-3 5 20 25 24 17 9 8
-2 4 18 23 22 16 8 7
0 3 16 22 20 15 7 6
1 2 15 21 19 14 6 5
0 3 15 21 19 14 6 5
-2 4 15 21 19 13 6 5
-3 4 15 21 19 13 6 5
-4 5 15 21 19 13 6 5
-5 6 15 21 19 12 5 4
-5 5 13 19 17 11 5 4
-6 4 12 17 16 10 4 4
-6 4 10 15 14 10 3 4
-6 3 9 13 13 9 3 4
-6 2 8 11 11 7 1 3
-4 0 7 9 9 5 0 1
-2 -3 6 7 7 3 -3 -2
1 -4 6 5 5 1 -5 -3
3 -6 5 2 2 -3 -7 -5
3 -7 4 1 1 -4 -8 -6
1 -7 6 1 1 -4 -8 -6
-3 -6 7 2 1 -4 -8 -5
-5 -5 9 2 1 -4 -8 -5
-8 -5 10 2 1 -4 -8 -5
-9 -4 11 3 2 -3 -7 -4
-9 -2 12 4 2 -3 -7 -4
-10 1 14 5 3 -2 -7 -4
-10 2 15 6 4 -2 -7 -4
-10 4 16 7 4 -2 -7 -4
-11 4 17 8 5 0 -7 -4
-12 3 16 8 4 -2 -8 -5
-13 1 14 7 3 -3 -10 -7
-13 -2 13 7 2 -4 -11 -8
-14 -4 12 7 1 -5 -12 -9
-15 -5 11 6 0 -6 -13 -10
-14 -5 11 7 1 -5 -12 -10
-13 -4 12 8 2 -4 -11 -9
-13 -3 12 9 2 -4 -10 -8
-12 -3 12 10 3 -3 -9 -8
-8 5 13 14 11 9 3 1
-2 15 13 20 23 26 21 13
5 26 12 26 36 45 39 26
10 37 12 32 49 62 58 38
16 48 12 38 61 79 75 51
31 64 6 43 82 125 128 89
53 85 -4 47 109 188 203 142
74 105 -13 50 135 252 279 195
96 126 -23 53 161 315 355 248
117 145 -32 56 188 379 431 302
127 154 -41 40 181 400 462 327
128 154 -52 9 149 391 460 334
129 154 -62 -22 117 381 456 340
129 154 -72 -54 86 371 454 346
130 154 -81 -85 54 361 451 352
115 139 -86 -111 17 306 391 316
88 109 -85 -136 -25 218 289 250
61 80 -82 -160 -66 130 188 183
33 51 -80 -185 -107 42 87 116
7 21 -78 -210 -149 -48 -15 50
-8 8 -75 -206 -159 -87 -61 15
-12 5 -71 -184 -146 -91 -67 4
-16 2 -67 -161 -133 -94 -73 -8
-21 -2 -62 -138 -120 -98 -80 -20
-25 -5 -58 -115 -107 -102 -87 -31
-26 -6 -51 -94 -93 -96 -85 -35
-23 -4 -40 -74 -76 -81 -74 -33
-21 -2 -30 -55 -61 -66 -64 -31
-18 1 -20 -34 -45 -52 -54 -29
-16 4 -11 -15 -29 -37 -44 -26
-14 4 -5 -4 -21 -30 -38 -26
-14 0 -3 1 -19 -29 -38 -29
-15 -4 0 5 -17 -28 -38 -32
-15 -8 2 10 -15 -27 -38 -35
-15 -11 5 14 -13 -26 -38 -37
-16 -13 6 16 -12 -25 -37 -38
-15 -13 6 17 -11 -25 -36 -36
-13 -14 6 18 -10 -24 -35 -33
-12 -15 6 19 -10 -24 -35 -31
-11 -15 6 20 -9 -24 -34 -29
-10 -17 6 21 -8 -23 -33 -27
-10 -18 4 20 -9 -23 -33 -27
-11 -20 2 18 -10 -24 -34 -27
-11 -22 0 17 -11 -24 -35 -27
-11 -24 -4 16 -12 -24 -35 -27
-12 -25 -5 15 -13 -25 -36 -28
-12 -26 -5 13 -14 -26 -36 -29
-12 -28 -6 11 -15 -27 -37 -30
-12 -29 -6 10 -16 -28 -38 -30
-12 -30 -6 8 -17 -29 -38 -31
-12 -31 -7 7 -18 -30 -39 -32
-12 -30 -7 7 -18 -30 -39 -32
-13 -29 -7 7 -18 -30 -39 -32
-14 -28 -7 7 -18 -30 -39 -32
-14 -27 -7 7 -18 -30 -39 -32
-15 -26 -5 8 -16 -29 -39 -31
-15 -24 -3 9 -14 -27 -37 -31
-14 -22 1 11 -11 -25 -35 -30
-14 -20 3 12 -9 -24 -34 -29
-14 -18 5 13 -7 -22 -32 -29
-13 -17 7 14 -5 -21 -31 -28
-12 -15 7 14 -5 -21 -31 -27
-11 -14 8 15 -4 -20 -30 -25
-10 -13 9 15 -3 -19 -29 -24
-9 -11 9 15 -3 -19 -29 -23
-8 -10 10 16 -2 -18 -28 -22
-10 -11 10 16 -2 -18 -28 -22
-12 -12 10 16 -2 -18 -29 -23
-14 -13 10 16 -2 -18 -30 -24
-16 -14 10 16 -2 -18 -30 -24
-16 -15 11 15 -2 -19 -31 -25
-13 -15 13 16 1 -18 -30 -24
-10 -15 15 17 3 -16 -29 -23
-8 -15 16 18 5 -15 -28 -23
-5 -15 18 19 7 -14 -27 -22
-4 -15 19 20 8 -13 -26 -21
-8 -16 19 20 8 -14 -27 -22
-11 -17 19 20 8 -15 -28 -23
-15 -18 19 20 8 -15 -29 -23
-18 -19 19 20 8 -16 -30 -24
-19 -20 19 21 8 -17 -31 -25
-17 -18 19 22 8 -16 -31 -25
-15 -17 20 23 9 -15 -31 -26
-13 -16 20 23 10 -14 -31 -26
-11 -14 20 24 10 -13 -31 -26
-10 -13 21 25 11 -12 -30 -27
-10 -12 21 26 12 -12 -30 -27
-9 -11 21 28 13 -12 -29 -27
-8 -10 21 29 14 -12 -29 -27
-8 -9 21 30 15 -12 -29 -27
-7 -8 22 31 16 -11 -28 -26
-5 -8 21 31 16 -11 -27 -26
-4 -9 20 31 17 -10 -26 -26
-3 -10 20 31 18 -9 -26 -26
0 -10 19 31 18 -9 -25 -26
1 -11 18 31 19 -8 -24 -24
1 -10 16 31 19 -8 -23 -22
1 -9 15 32 19 -8 -22 -20
1 -9 14 32 19 -8 -21 -18
1 -8 12 32 19 -8 -20 -16
0 -7 10 32 17 -8 -19 -15
0 -8 8 29 15 -10 -20 -15
0 -9 6 26 12 -12 -21 -16
0 -9 4 23 9 -14 -21 -16
0 -10 2 20 7 -16 -22 -16
-2 -11 1 17 5 -17 -23 -17
0 -11 0 15 4 -17 -23 -17
1 -12 -2 13 3 -18 -23 -16
2 -13 -2 11 3 -19 -23 -15
3 -13 -3 9 2 -19 -23 -15
4 -14 -5 5 0 -20 -24 -14
4 -14 -8 0 -3 -20 -24 -14
4 -14 -11 -7 -5 -20 -23 -14
4 -14 -13 -12 -7 -20 -22 -14
4 -14 -16 -17 -9 -20 -22 -14
5 -14 -18 -21 -11 -21 -21 -13
5 -15 -18 -23 -11 -20 -20 -11
6 -16 -18 -26 -11 -18 -18 -9
6 -17 -18 -29 -11 -17 -17 -8
6 -18 -18 -31 -11 -16 -16 -6
6 -18 -17 -33 -11 -14 -15 -5
4 -16 -15 -34 -11 -12 -13 -5
2 -14 -13 -35 -10 -10 -11 -4
1 -13 -11 -36 -9 -9 -9 -3
-2 -11 -9 -37 -9 -7 -7 -3
-4 -9 -7 -38 -8 -5 -6 -2
-4 -9 -6 -37 -8 -5 -6 -2
-4 -10 -5 -36 -7 -5 -6 -2
-3 -11 -4 -35 -6 -6 -7 -3
-3 -11 -3 -34 -6 -6 -7 -3
-2 -12 -2 -32 -5 -7 -8 -4
0 -12 0 -29 -4 -6 -7 -3
0 -12 1 -26 -3 -5 -6 -3
1 -12 3 -23 -2 -3 -4 -2
2 -12 4 -20 0 -2 -3 0
2 -13 5 -18 1 0 -2 1
0 -13 6 -16 1 0 -2 1
-3 -12 6 -14 1 0 -2 1
-6 -11 7 -12 1 0 -2 1
-8 -11 8 -10 1 0 -2 1
-10 -10 9 -8 2 0 -3 0
-10 -11 8 -8 1 -2 -4 -3
-10 -12 7 -8 1 -3 -5 -4
-9 -13 6 -8 0 -5 -7 -6
-9 -14 5 -8 -2 -6 -8 -8
-8 -15 4 -7 -3 -7 -9 -9
-8 -13 4 -5 -2 -7 -9 -8
-8 -12 5 -3 -2 -6 -9 -8
-7 -11 6 0 0 -5 -8 -7
-7 -9 6 2 1 -5 -8 -6
-6 -8 7 3 2 -4 -7 -5
-5 -7 7 3 2 -3 -7 -5
-4 -7 7 3 3 -2 -7 -5
-3 -6 6 4 4 0 -7 -4
-2 -5 6 4 4 1 -7 -4
0 -4 5 5 5 2 -6 -3
0 -4 4 5 5 3 -5 -2
0 -4 3 5 5 3 -4 -2
0 -4 1 5 6 4 -2 0
0 -4 0 5 6 5 0 1
0 -5 -2 6 7 6 1 2
2 -5 -4 6 7 8 3 2
3 -5 -5 6 7 9 4 3
4 -6 -6 5 7 11 6 4
6 -6 -8 5 7 13 8 4
7 -7 -10 4 6 14 9 5
5 -7 -12 4 7 15 10 6
3 -8 -15 3 7 15 11 6
1 -9 -18 2 8 16 12 7
-2 -9 -20 2 9 17 13 8
0 -7 -24 1 12 21 18 13
4 0 -29 0 17 30 28 22
9 7 -34 -2 22 39 39 31
13 14 -39 -4 27 48 50 40
18 21 -45 -5 33 57 60 51
30 33 -52 -6 45 86 96 77
53 51 -62 -6 63 138 161 125
75 69 -72 -6 81 190 228 173
97 88 -82 -6 100 242 294 221
119 106 -93 -6 119 295 359 268
132 119 -102 -20 116 320 396 298
132 127 -109 -55 86 313 396 306
131 134 -117 -90 56 306 396 314
130 141 -124 -124 25 299 396 321
130 148 -132 -159 -5 290 396 329
116 142 -133 -181 -32 255 357 308
87 118 -122 -187 -56 182 270 248
57 95 -112 -193 -79 109 184 189
28 71 -102 -199 -103 36 98 130
-2 48 -92 -205 -127 -35 11 70
-17 33 -82 -197 -132 -73 -37 33
-14 29 -74 -170 -111 -66 -36 24
-11 26 -66 -142 -92 -58 -35 16
-8 22 -58 -115 -72 -51 -34 8
-5 19 -50 -88 -52 -44 -33 -2
-3 14 -41 -66 -37 -37 -32 -7
-4 10 -32 -53 -29 -32 -30 -8
-5 5 -24 -39 -21 -28 -28 -9
-7 0 -15 -26 -13 -23 -26 -10
-8 -6 -6 -13 -5 -19 -25 -11
-9 -9 0 -5 1 -16 -23 -12
-10 -10 2 -3 2 -16 -23 -14
-11 -11 4 0 3 -16 -24 -15
-13 -13 6 2 4 -16 -25 -16
-14 -14 7 4 5 -16 -25 -18
-15 -15 9 6 6 -17 -26 -19
-15 -15 9 6 6 -17 -26 -19
-15 -15 9 7 6 -17 -26 -20
-16 -16 10 8 6 -18 -26 -21
-16 -16 10 8 6 -18 -26 -21
-17 -17 11 9 5 -19 -27 -22
-16 -17 11 9 5 -19 -27 -23
-15 -17 11 9 5 -19 -28 -23
-13 -17 11 9 5 -19 -29 -24
-12 -17 11 9 5 -19 -29 -25
-11 -16 11 9 4 -19 -30 -26
-11 -16 12 9 4 -19 -30 -25
-10 -16 12 9 4 -18 -29 -24
-9 -15 13 9 5 -17 -28 -23
-9 -15 14 9 5 -17 -28 -22
-8 -14 15 9 6 -16 -27 -21
-9 -14 15 9 6 -16 -27 -21
-11 -14 14 9 6 -16 -27 -21
-12 -14 13 8 5 -16 -27 -21
-14 -14 13 8 5 -16 -27 -21
-15 -15 12 7 4 -17 -28 -22
-15 -15 12 7 4 -17 -28 -22
-16 -16 12 7 3 -18 -28 -23
-17 -17 12 7 2 -19 -29 -24
-17 -17 12 7 2 -19 -29 -24
-18 -18 12 6 1 -20 -30 -25
-17 -19 12 6 0 -22 -32 -26
-16 -20 11 6 -2 -23 -33 -27
-15 -22 10 6 -4 -25 -35 -28
-14 -23 10 6 -5 -27 -37 -29
-13 -24 9 6 -6 -28 -38 -30
-13 -24 9 6 -7 -29 -39 -31
-12 -24 9 6 -8 -31 -40 -31
-11 -24 9 6 -9 -32 -41 -32
-11 -24 9 6 -10 -34 -43 -33
-10 -24 8 7 -11 -35 -44 -34
-11 -25 8 7 -12 -37 -46 -35
-13 -25 8 7 -13 -38 -48 -37
-14 -26 7 6 -14 -40 -50 -38
-16 -27 7 6 -15 -43 -51 -40
-17 -28 6 5 -16 -45 -54 -41
-18 -29 5 2 -19 -48 -57 -45
-19 -29 5 0 -21 -51 -61 -47
-20 -30 4 -3 -23 -54 -64 -50
-21 -31 3 -5 -25 -58 -67 -52
-22 -32 2 -7 -27 -60 -70 -54
-22 -33 2 -8 -28 -62 -72 -56
-22 -33 1 -8 -28 -64 -74 -57
-21 -34 0 -9 -29 -66 -76 -59
-21 -35 0 -10 -30 -67 -77 -61
-20 -36 -2 -11 -31 -69 -79 -62
-19 -35 0 -11 -31 -69 -79 -62
-18 -34 0 -10 -31 -69 -79 -62
-17 -33 1 -9 -31 -68 -79 -62
-16 -32 2 -9 -31 -68 -79 -62
-15 -31 3 -8 -30 -67 -77 -61
-16 -30 4 -5 -27 -64 -75 -59
-17 -30 6 -3 -25 -62 -72 -57
-19 -29 7 0 -22 -59 -70 -55
-20 -28 9 2 -20 -57 -67 -53
-21 -26 10 4 -18 -55 -65 -50
-20 -24 10 5 -16 -53 -62 -48
-19 -21 11 7 -14 -51 -60 -45
-17 -19 12 8 -12 -49 -58 -41
-16 -16 12 10 -11 -48 -56 -38
-15 -14 13 11 -9 -46 -54 -36
-15 -13 13 11 -9 -44 -52 -34
-14 -12 12 10 -9 -41 -50 -33
-13 -11 11 9 -9 -39 -48 -31
-13 -10 11 9 -9 -38 -46 -29
-12 -9 10 8 -8 -35 -43 -28
-13 -9 10 8 -6 -33 -39 -26
-14 -9 10 8 -4 -30 -36 -24
-16 -9 9 8 -2 -27 -33 -22
-17 -9 9 8 1 -24 -30 -20
-17 -8 8 9 3 -22 -26 -18
-13 -6 8 9 4 -19 -24 -15
-9 -4 8 9 5 -16 -21 -13
-4 -2 8 9 6 -14 -18 -11
1 0 8 9 7 -11 -15 -9
4 2 7 9 8 -9 -13 -7
3 2 6 8 8 -7 -11 -5
2 2 6 8 8 -5 -10 -4
1 3 5 7 9 -3 -8 -2
0 3 4 6 9 -2 -7 0
-2 4 3 5 10 1 -5 2
-2 4 3 5 10 1 -5 2
-2 4 3 5 10 2 -4 2
-2 4 3 5 11 3 -3 2
-2 4 3 5 11 3 -3 2
-3 4 4 6 12 4 -2 3
-3 4 4 6 12 4 -2 3
-3 4 4 6 12 4 -2 3
-3 3 4 6 11 4 0 3
-3 3 4 6 11 4 0 3
-4 2 4 5 10 4 1 3
-4 1 4 5 9 4 0 2
-4 1 4 5 9 3 -2 1
-4 0 4 4 8 2 -3 -2
-4 -2 4 4 7 2 -4 -3
-4 -3 3 3 6 1 -5 -4
-4 -4 4 3 6 1 -5 -4
-5 -5 4 4 6 1 -5 -4
-6 -7 5 5 6 1 -5 -4
-6 -8 6 5 6 1 -5 -4
-7 -9 7 6 6 1 -5 -3
-7 -8 6 6 6 1 -5 -3
-7 -6 6 6 6 1 -5 -3
-7 -5 5 5 5 0 -5 -3
-7 -3 4 5 5 0 -5 -3
-6 -2 3 4 4 -2 -4 -2
-5 -2 3 4 4 0 -4 -2
-4 -3 3 4 5 1 -4 -2
-3 -4 3 4 6 3 -4 -2
-2 -4 3 4 6 4 -4 -2
0 -5 4 4 7 5 -3 -2
-2 -6 4 4 7 5 -3 -2
-4 -6 4 4 7 6 -3 -2
-5 -7 4 4 7 7 -2 -2
-7 -8 4 4 7 7 -2 -2
-7 -6 5 4 8 11 4 1
-2 5 2 4 14 23 17 11
4 14 -2 4 20 35 29 21
9 24 -4 5 26 48 43 31
14 34 -7 5 32 60 56 42
24 47 -12 8 46 86 86 63
43 64 -22 17 74 141 149 108
61 81 -33 25 103 196 213 153
80 98 -44 33 132 251 275 198
99 115 -55 43 160 306 339 243
113 130 -63 43 173 342 383 278
119 139 -69 20 149 337 387 292
125 148 -75 -2 126 331 392 304
130 157 -80 -23 102 327 396 317
136 167 -87 -45 78 322 401 330
131 167 -88 -68 49 292 375 320
101 144 -76 -94 8 210 282 260
70 120 -65 -120 -34 129 191 198
40 98 -54 -147 -75 47 99 137
10 75 -43 -173 -117 -35 7 76
-12 58 -35 -186 -143 -91 -56 31
-16 52 -38 -170 -130 -87 -57 20
-20 46 -41 -152 -117 -83 -58 9
-24 39 -46 -135 -105 -79 -59 -3
-29 33 -49 -118 -93 -75 -61 -14
-31 27 -50 -101 -80 -70 -61 -22
-26 23 -43 -83 -68 -61 -55 -21
-22 20 -34 -67 -56 -52 -50 -21
-17 16 -27 -50 -44 -43 -44 -20
-13 12 -20 -32 -32 -33 -37 -19
-9 8 -14 -19 -23 -26 -33 -18
-10 3 -11 -14 -21 -26 -33 -19
-11 -3 -8 -9 -19 -26 -33 -20
-12 -7 -6 -5 -18 -26 -33 -21
-13 -12 -3 1 -16 -26 -33 -23
-14 -16 0 5 -14 -27 -34 -24
-14 -15 0 5 -14 -27 -34 -24
-14 -14 0 5 -15 -27 -34 -24
-14 -13 -2 5 -15 -27 -34 -25
-14 -11 -2 5 -16 -27 -34 -25
-13 -10 -3 5 -17 -26 -34 -26
-13 -13 -3 5 -17 -26 -34 -26
-13 -15 -3 5 -17 -26 -34 -26
-14 -17 -4 5 -18 -27 -35 -27
-14 -20 -4 5 -18 -27 -35 -27
-15 -22 -5 5 -19 -28 -36 -28
-14 -23 -6 3 -21 -29 -36 -29
-13 -23 -8 2 -23 -30 -37 -29
-12 -24 -9 0 -24 -31 -37 -30
-10 -25 -11 -2 -26 -33 -38 -31
-9 -26 -12 -4 -28 -34 -39 -32
-10 -26 -12 -4 -28 -34 -39 -32
-12 -26 -12 -4 -27 -34 -39 -32
-13 -25 -11 -4 -27 -34 -40 -32
-15 -25 -11 -4 -26 -34 -40 -32
-16 -24 -10 -3 -25 -33 -41 -33
-16 -25 -10 -4 -25 -33 -41 -33
-16 -25 -10 -4 -25 -34 -41 -33
-16 -26 -11 -5 -25 -34 -43 -33
-16 -27 -11 -6 -25 -35 -43 -33
-15 -28 -12 -7 -26 -36 -44 -34
-15 -28 -11 -6 -26 -36 -45 -35
-16 -28 -10 -6 -26 -36 -45 -36
-16 -29 -9 -5 -26 -37 -46 -37
-17 -29 -8 -4 -26 -37 -47 -38
-18 -29 -7 -3 -25 -38 -48 -39
-16 -26 -4 0 -23 -37 -47 -39
-14 -22 0 2 -22 -37 -47 -39
-12 -18 3 4 -20 -36 -46 -38
-10 -14 5 6 -19 -35 -45 -38
-8 -11 8 8 -17 -34 -44 -37
-10 -14 8 9 -17 -35 -46 -38
-12 -17 9 9 -17 -35 -47 -39
-14 -20 9 10 -17 -36 -49 -40
-16 -23 10 11 -17 -37 -50 -41
-18 -26 11 12 -17 -38 -52 -43
-18 -26 11 13 -17 -39 -54 -44
-19 -26 11 14 -17 -41 -56 -46
-19 -26 11 15 -17 -43 -57 -47
-20 -26 11 16 -17 -44 -59 -48
-21 -27 11 17 -16 -46 -61 -50
-20 -27 13 20 -14 -46 -61 -50
-19 -27 14 23 -13 -46 -61 -50
-18 -27 16 26 -11 -46 -61 -51
-16 -27 17 29 -10 -46 -61 -51
-15 -26 19 32 -8 -46 -62 -52
-13 -26 19 34 -8 -46 -62 -51
-12 -25 19 35 -8 -46 -62 -51
-10 -25 19 37 -7 -46 -61 -50
-9 -24 19 38 -7 -46 -61 -49
-7 -23 19 40 -6 -45 -60 -48
-8 -23 18 40 -6 -45 -60 -48
-9 -23 18 40 -6 -45 -60 -48
-10 -23 17 40 -6 -46 -60 -48
-12 -23 16 40 -6 -46 -60 -48
-13 -22 15 42 -6 -47 -61 -48
-12 -22 14 42 -6 -47 -61 -47
-12 -21 13 40 -6 -47 -61 -46
-11 -21 12 40 -6 -47 -60 -45
-10 -20 10 39 -6 -47 -60 -43
-9 -19 9 38 -7 -47 -59 -41
-9 -19 8 37 -7 -46 -57 -38
-9 -18 7 36 -8 -45 -55 -36
-9 -18 6 35 -8 -44 -54 -33
-9 -17 5 34 -9 -43 -52 -30
-9 -16 4 33 -10 -41 -49 -28
-7 -15 2 31 -10 -37 -45 -25
-6 -13 0 29 -9 -34 -39 -22
-4 -12 -3 26 -9 -31 -35 -19
-3 -11 -5 24 -8 -28 -30 -17
0 -9 -7 22 -7 -25 -26 -14
1 -8 -7 21 -7 -23 -24 -13
2 -7 -8 19 -7 -21 -22 -11
3 -6 -8 18 -7 -18 -19 -9
4 -5 -9 17 -7 -16 -17 -8
5 -4 -10 15 -6 -14 -15 -6
4 -5 -11 13 -6 -14 -15 -6
3 -6 -12 11 -6 -14 -15 -6
2 -7 -13 8 -7 -14 -15 -6
1 -9 -15 6 -7 -14 -15 -6
0 -10 -16 4 -8 -14 -14 -7
0 -10 -16 4 -8 -13 -14 -7
1 -9 -16 3 -7 -12 -13 -6
2 -8 -16 3 -7 -11 -12 -5
3 -7 -16 2 -6 -10 -11 -4
4 -6 -17 1 -5 -9 -10 -3
4 -6 -16 0 -5 -9 -10 -3
3 -6 -15 -3 -6 -9 -10 -3
3 -6 -14 -4 -6 -10 -10 -4
2 -6 -13 -5 -7 -10 -10 -4
1 -6 -12 -7 -8 -11 -11 -5
0 -6 -11 -7 -7 -10 -11 -5
-2 -7 -10 -6 -5 -9 -11 -5
-3 -8 -9 -6 -4 -8 -11 -5
-4 -9 -7 -5 -3 -6 -11 -5
-5 -10 -6 -4 0 -5 -10 -5
-4 -8 -3 -2 1 -4 -9 -5
-3 -6 0 1 3 -2 -7 -4
-2 -4 3 4 4 1 -5 -3
0 -2 5 6 5 2 -4 -2
1 1 8 8 7 4 -2 0
1 3 8 9 7 4 -2 0
1 5 9 10 8 5 -2 0
2 6 9 11 9 5 0 0
2 8 10 12 10 6 0 0
3 10 11 13 11 7 1 0
1 10 11 15 13 9 2 0
0 9 11 17 15 11 3 0
-3 8 12 19 17 13 4 0
-5 7 12 21 19 15 5 0
-7 6 13 23 21 17 6 1
-5 6 13 25 23 18 8 3
-3 5 14 28 24 20 10 4
1 4 15 30 26 22 13 6
3 3 16 33 28 23 15 8
5 2 17 35 30 25 17 10
9 7 15 35 31 27 20 12
13 11 14 35 32 28 22 15
17 15 12 35 33 30 25 17
21 19 10 35 35 32 27 20
25 25 7 35 38 39 35 25
31 36 2 38 54 64 62 45
37 47 -5 42 68 90 90 63
44 58 -10 45 82 115 116 82
51 69 -16 48 97 141 144 101
59 81 -22 51 113 172 178 126
79 99 -31 54 135 223 242 175
99 116 -40 58 156 273 306 223
118 135 -50 61 178 324 369 272
138 152 -58 64 200 376 434 321
153 165 -66 61 210 406 475 356
144 160 -67 25 163 355 424 331
136 155 -68 -10 118 303 372 307
128 150 -69 -46 73 252 322 282
118 145 -70 -80 28 199 271 258
106 136 -71 -111 -13 147 217 228
80 115 -69 -126 -37 95 155 179
55 94 -67 -140 -63 43 93 130
28 72 -65 -154 -88 -10 30 80
3 51 -63 -169 -112 -62 -32 31
-19 33 -61 -177 -130 -103 -81 -9
-15 29 -61 -151 -112 -92 -74 -11
-11 26 -61 -127 -95 -80 -66 -12
-7 23 -61 -102 -77 -68 -59 -14
-3 19 -61 -76 -59 -57 -51 -16
2 16 -59 -55 -44 -47 -45 -18
-3 11 -51 -45 -37 -41 -43 -18
-6 7 -44 -34 -30 -37 -39 -19
-10 2 -35 -24 -24 -32 -37 -19
-14 -3 -28 -14 -18 -28 -34 -20
-17 -7 -21 -6 -12 -24 -32 -21
-13 -7 -21 -4 -12 -25 -32 -22
-10 -8 -20 -3 -12 -26 -33 -24
-6 -8 -19 0 -12 -27 -34 -25
-2 -9 -18 2 -12 -28 -35 -26
2 -10 -17 4 -13 -29 -36 -28
1 -11 -17 3 -14 -30 -37 -29
0 -13 -17 2 -15 -31 -38 -31
-2 -15 -17 1 -16 -32 -39 -32
-4 -16 -17 -2 -18 -34 -41 -33
-5 -18 -17 -3 -19 -35 -43 -35
-7 -18 -14 0 -19 -35 -43 -35
-10 -18 -11 1 -19 -35 -43 -35
-12 -18 -8 3 -18 -34 -43 -35
-15 -18 -5 5 -18 -34 -43 -35
-17 -19 -2 7 -17 -33 -41 -36
-16 -17 1 9 -16 -33 -40 -36
-14 -15 4 11 -15 -32 -39 -35
-13 -13 6 13 -14 -31 -38 -35
-12 -11 9 16 -12 -30 -37 -34
-10 -9 11 18 -11 -29 -36 -33
-10 -10 12 19 -10 -29 -36 -33
-11 -12 13 21 -9 -29 -36 -33
-11 -13 14 22 -8 -29 -36 -33
-12 -14 15 23 -7 -29 -36 -33
-13 -16 16 25 -6 -28 -37 -34
-12 -15 16 25 -6 -28 -37 -35
-11 -13 17 26 -7 -28 -38 -36
-10 -11 18 27 -7 -28 -38 -37
-9 -10 19 28 -8 -28 -39 -38
-8 -8 20 29 -9 -29 -40 -39
-9 -10 20 30 -8 -29 -40 -39
-11 -11 21 32 -6 -29 -40 -39
-12 -13 22 34 -4 -29 -39 -39
-13 -15 23 35 -3 -29 -39 -39
-15 -17 24 37 0 -28 -38 -38
-14 -17 24 37 0 -28 -39 -38
-13 -17 24 37 0 -29 -40 -38
-12 -17 23 37 0 -30 -41 -39
-11 -17 23 37 0 -31 -43 -39
-9 -16 22 37 0 -32 -44 -40
-9 -16 22 39 1 -32 -45 -40
-8 -15 23 40 2 -33 -46 -41
-7 -15 23 43 3 -34 -47 -41
-6 -14 24 45 4 -35 -48 -43
-5 -13 25 47 5 -36 -50 -44
-7 -16 25 47 5 -37 -51 -46
-10 -20 24 47 5 -38 -52 -48
-12 -23 23 47 4 -39 -53 -50
-14 -27 22 47 4 -40 -54 -52
-17 -30 21 48 3 -41 -56 -54
-16 -30 20 49 3 -43 -57 -54
-14 -29 19 50 3 -44 -58 -54
-13 -28 18 51 3 -45 -59 -55
-12 -27 17 52 3 -46 -60 -55
-10 -26 16 53 3 -48 -62 -56
-8 -25 15 53 3 -48 -62 -56
-6 -24 14 53 3 -48 -62 -56
-4 -23 12 52 3 -48 -62 -55
-2 -22 11 52 3 -48 -62 -55
1 -20 9 51 2 -48 -62 -54
0 -20 8 51 2 -48 -62 -54
-2 -20 7 50 1 -49 -62 -54
-3 -20 5 49 0 -49 -63 -54
-4 -20 4 48 -2 -50 -63 -54
-6 -19 2 47 -3 -51 -64 -53
-6 -20 0 42 -5 -51 -64 -53
-7 -21 -2 36 -6 -52 -64 -52
-8 -22 -4 31 -8 -53 -64 -52
-9 -23 -6 27 -10 -54 -64 -51
-10 -25 -8 22 -12 -55 -63 -50
-10 -24 -8 21 -12 -55 -62 -49
-9 -23 -8 20 -13 -54 -61 -48
-8 -21 -8 19 -13 -53 -60 -47
-7 -20 -8 18 -14 -52 -59 -46
-6 -18 -7 17 -15 -51 -57 -45
-5 -15 -4 18 -11 -45 -51 -40
-3 -12 0 19 -7 -39 -44 -35
-2 -9 3 21 -3 -33 -37 -31
1 -5 6 22 2 -27 -31 -26
3 -2 9 24 6 -22 -25 -22
3 -2 10 24 7 -20 -24 -21
3 0 11 25 8 -19 -23 -20
2 0 12 26 9 -17 -21 -19
2 1 13 27 10 -15 -20 -18
1 2 15 28 12 -13 -18 -17
-4 1 15 28 12 -13 -18 -17
-8 0 15 27 12 -13 -18 -18
-12 -3 15 26 12 -13 -18 -18
-16 -4 15 25 12 -13 -18 -19
-20 -6 15 24 12 -12 -18 -20
-15 -4 17 24 13 -11 -18 -20
-11 0 18 25 14 -10 -18 -20
-6 3 20 25 15 -9 -18 -20
-2 5 22 26 16 -8 -18 -20
4 8 24 27 17 -7 -17 -19
3 7 24 27 17 -7 -17 -19
1 5 24 27 17 -7 -17 -19
-2 4 24 28 17 -7 -16 -19
-4 2 24 28 17 -7 -16 -19
-6 0 23 29 17 -8 -15 -19
-6 0 24 31 17 -6 -14 -18
-7 0 25 33 18 -4 -12 -17
-7 0 26 35 18 -2 -11 -16
-8 0 27 38 19 2 -9 -15
-9 1 29 40 20 4 -7 -14
-7 2 28 40 21 4 -7 -14
-5 3 26 40 22 4 -7 -14
-3 4 25 40 23 4 -7 -15
0 5 23 40 24 4 -7 -15
2 6 21 40 26 4 -8 -16
2 6 21 42 27 6 -7 -15
2 7 21 43 29 8 -5 -14
3 7 21 44 30 10 -4 -13
3 8 21 45 32 12 -2 -12
4 9 22 46 34 14 1 -11
4 9 21 46 34 14 1 -11
3 8 20 46 33 14 1 -12
3 7 18 46 33 14 0 -12
2 6 17 46 32 14 0 -13
1 5 15 45 31 15 -2 -14
1 5 15 45 32 15 0 -14
1 4 15 46 33 16 1 -13
2 4 15 47 34 16 3 -13
2 3 15 48 35 17 4 -12
3 2 14 49 37 18 6 -11
3 3 14 49 37 18 6 -11
4 4 13 49 37 18 6 -11
5 5 12 49 36 18 6 -11
6 6 11 49 36 18 6 -11
7 7 10 48 35 19 6 -11
7 7 10 48 35 19 6 -12
7 6 10 48 35 19 6 -13
7 5 9 48 35 20 6 -14
7 4 9 48 35 20 6 -15
6 3 8 48 36 21 7 -16
5 2 7 46 35 20 6 -17
3 0 6 44 33 19 5 -18
2 -3 4 40 32 17 4 -19
0 -5 3 38 30 16 3 -20
-3 -7 1 35 28 14 2 -21
3 -4 1 35 28 14 2 -21
7 1 2 35 28 15 2 -21
12 4 3 35 29 15 2 -21
17 7 4 35 29 16 2 -21
22 11 5 36 30 17 2 -20
17 11 6 36 30 17 2 -20
13 11 7 36 30 17 2 -19
8 11 9 36 30 18 2 -18
3 11 10 36 30 18 2 -17
-3 11 12 37 29 19 3 -16
-3 10 12 38 29 19 3 -16
-2 8 12 39 30 19 3 -17
-2 7 13 40 30 18 3 -18
0 5 13 42 31 18 3 -19
1 3 14 43 32 17 3 -20
1 4 14 43 32 17 2 -21
1 5 14 43 31 16 0 -22
2 6 14 43 31 16 -2 -23
2 7 14 43 30 15 -4 -24
3 9 14 42 29 14 -6 -25
3 9 15 43 29 14 -6 -25
2 8 16 44 30 14 -6 -25
1 7 17 45 31 14 -5 -25
0 6 18 46 32 14 -5 -25
-2 5 20 47 33 15 -4 -24
-3 5 20 47 33 15 -4 -24
-5 4 20 47 33 15 -4 -25
-6 3 19 46 32 14 -4 -25
-8 2 19 46 32 14 -4 -26
-10 1 18 45 31 13 -5 -27
-9 2 18 45 31 13 -5 -27
-7 3 18 45 31 13 -5 -27
-5 4 18 46 31 13 -5 -27
-3 5 18 46 31 13 -5 -27
0 7 18 47 31 12 -6 -27
0 7 18 47 31 12 -6 -27
1 7 17 47 31 12 -7 -27
2 7 16 46 31 12 -8 -27
3 7 15 46 31 12 -9 -27
4 6 14 45 30 11 -10 -27
4 8 14 45 30 11 -10 -27
4 10 15 46 31 11 -10 -27
3 12 15 46 31 12 -10 -26
3 14 16 47 32 12 -10 -26
2 16 17 48 33 13 -10 -25
1 12 16 47 32 12 -10 -25
0 8 14 45 30 11 -11 -25
-3 4 12 43 29 10 -11 -25
-4 0 10 40 27 9 -12 -25
-6 -5 8 38 25 7 -13 -25
-6 -5 8 38 25 7 -13 -25
-6 -5 8 38 25 7 -13 -25
-6 -6 9 38 25 7 -13 -25
-6 -6 9 38 25 7 -13 -25
-6 -7 10 38 25 7 -14 -26
-5 -4 11 38 25 8 -14 -25
-4 0 12 38 26 9 -13 -24
-2 4 13 39 26 10 -12 -23
0 7 14 39 27 11 -11 -22
2 11 15 40 28 12 -10 -20
2 7 15 40 27 11 -11 -21
2 3 15 39 26 9 -12 -22
2 -2 14 39 25 7 -14 -23
2 -6 14 38 24 5 -15 -24
3 -10 13 37 23 3 -17 -25
1 -10 11 35 21 3 -18 -25
-2 -10 9 33 19 2 -19 -25
-4 -10 7 30 17 1 -20 -25
-6 -10 5 28 15 0 -21 -25
-8 -9 3 25 13 -2 -22 -26
-7 -9 4 25 14 0 -21 -25
-6 -8 5 25 15 1 -20 -24
-5 -7 6 25 16 2 -19 -23
-4 -6 7 25 17 3 -18 -22
-3 -5 9 26 18 4 -17 -20
-3 -5 8 25 17 4 -17 -20
-4 -5 7 24 16 3 -18 -21
-5 -5 6 23 15 2 -18 -21
-6 -5 5 22 14 1 -19 -22
-7 -4 4 20 12 0 -20 -23
-6 -4 4 20 12 0 -20 -23
-5 -3 5 21 13 0 -20 -23
-4 -2 6 22 13 1 -20 -22
-3 0 7 23 14 1 -20 -22
0 1 8 24 15 2 -20 -21
-2 0 8 24 15 2 -20 -21
-4 -2 8 24 15 2 -20 -21
-6 -3 8 23 15 2 -20 -20
-8 -4 8 23 15 2 -20 -20
-10 -6 9 22 15 1 -21 -19
-8 -6 9 22 15 1 -21 -19
-6 -6 10 22 16 1 -21 -19
-5 -6 11 23 16 1 -21 -19
-3 -6 12 23 17 1 -21 -19
0 -6 12 23 17 1 -21 -19
1 -5 13 24 18 2 -20 -19
0 -4 13 24 18 2 -20 -19
-2 -3 13 24 17 3 -19 -19
-3 -2 13 24 17 3 -19 -19
-3 0 13 24 17 3 -19 -19
-4 1 12 23 16 4 -18 -18
-5 0 12 23 17 5 -17 -17
-6 -2 13 24 17 5 -17 -16
-7 -3 13 24 18 6 -16 -15
-7 -3 13 24 18 6 -16 -15
-8 -4 14 24 18 7 -15 -14
-7 -4 13 22 17 6 -15 -14
-7 -4 12 21 16 5 -16 -14
-6 -4 11 19 15 4 -16 -14
-6 -4 10 18 14 4 -16 -14
-5 -4 9 17 13 3 -17 -14
-5 -4 9 17 13 3 -17 -14
-5 -4 9 17 13 3 -16 -14
-5 -4 9 17 13 3 -16 -14
-5 -4 9 17 13 3 -16 -14
-5 -4 9 16 12 3 -15 -13
-5 -3 9 16 12 4 -15 -12
-5 -2 9 16 13 5 -14 -12
-5 0 9 16 13 6 -14 -11
-5 0 9 16 13 7 -14 -11
-5 1 10 15 14 8 -13 -11
-5 0 9 14 13 7 -14 -12
-4 0 8 13 13 6 -15 -13
-4 -2 7 12 12 5 -16 -14
-4 -2 7 11 12 4 -16 -15
-3 -3 6 10 11 3 -17 -15
-3 -3 6 9 11 3 -17 -14
-3 -4 7 8 10 3 -17 -13
-3 -4 7 7 10 3 -17 -12
-3 -4 7 7 10 3 -17 -11
-3 -6 8 5 9 2 -16 -10
-5 -7 7 4 9 1 -16 -10
-6 -9 7 2 8 1 -16 -10
-8 -10 6 1 8 0 -16 -10
-9 -11 6 0 8 0 -16 -10
-7 -11 5 -5 7 -2 -17 -11
-3 -9 5 -9 7 -2 -17 -11
2 -7 4 -12 6 -2 -16 -12
6 -5 4 -16 6 -2 -16 -12
9 -4 4 -19 6 -2 -16 -12
7 -3 3 -20 5 -3 -14 -12
4 -4 4 -21 5 -2 -13 -11
1 -5 5 -21 6 0 -11 -10
-3 -6 6 -22 6 1 -10 -9
-6 -6 6 -22 6 1 -9 -8
-7 -7 7 -23 7 2 -8 -7
-7 -6 7 -22 7 2 -8 -6
-7 -5 8 -21 8 2 -8 -6
-7 -4 8 -20 8 2 -8 -5
-7 -3 8 -20 8 2 -8 -5
-8 -2 10 -18 9 3 -7 -4
-8 -2 11 -16 10 4 -6 -4
-8 0 12 -14 11 4 -6 -3
-8 0 13 -12 12 5 -5 -3
-8 0 14 -10 13 5 -5 -3
-9 1 15 -9 14 6 -4 -2
-9 1 15 -9 13 6 -4 -2
-9 1 15 -9 12 5 -5 -2
-9 1 15 -9 11 5 -5 -2
-9 1 15 -9 11 5 -5 -2
-8 0 15 -8 10 4 -6 0
-8 0 15 -7 11 4 -6 1
-7 -2 15 -7 12 4 -6 1
-7 -2 15 -6 13 4 -6 2
-7 -2 15 -6 13 4 -6 2
-6 -2 14 -5 14 4 -5 3
-6 0 13 -6 13 4 -6 3
-5 2 12 -7 13 4 -6 3
-5 3 11 -8 12 4 -7 3
-5 4 10 -8 12 4 -7 3
-4 5 9 -8 11 3 -8 2
-4 5 9 -6 11 3 -8 2
-4 5 9 -5 11 4 -7 3
-4 5 9 -3 11 4 -7 3
-4 5 9 -2 11 4 -7 3
-3 5 10 0 11 5 -6 4
-3 5 10 0 11 5 -6 4
-3 4 9 0 11 5 -5 4
-3 4 9 0 11 5 -5 4
-3 4 9 0 11 5 -5 4
-3 2 8 2 12 6 -4 5
-4 0 8 3 11 6 -4 5
-5 -2 8 4 11 6 -4 4
-6 -4 8 5 10 6 -4 4
-6 -5 8 6 10 6 -4 4
-7 -6 7 7 8 5 -6 3
-6 -5 7 6 7 3 -8 2
-5 -4 6 6 6 2 -9 1
-4 -3 6 5 5 0 -11 0
-4 -2 6 5 4 -2 -12 -2
-3 0 6 6 4 -2 -12 -2
-4 -2 8 8 5 0 -11 1
-4 -3 10 11 7 1 -9 2
-5 -4 12 13 8 2 -8 4
-5 -4 14 15 9 3 -7 5
-6 -5 15 16 10 4 -6 6
-7 -6 15 16 10 4 -6 6
-7 -7 15 16 10 4 -6 6
-8 -8 15 16 10 4 -6 6
-8 -8 15 16 10 4 -6 6
-8 -9 13 14 9 3 -7 6
-6 -8 10 12 8 2 -7 5
-5 -7 7 10 7 2 -7 4
-3 -6 4 8 6 1 -7 3
-2 -6 1 6 6 1 -7 3
0 -2 0 7 9 5 0 5
1 2 0 9 13 11 7 9
2 5 0 11 17 18 15 13
3 9 0 13 22 24 23 17
4 12 0 15 26 30 31 21
20 28 -12 16 45 77 89 64
38 46 -23 15 65 128 152 111
56 63 -34 14 86 179 215 157
73 80 -46 13 106 230 278 204
92 98 -57 12 127 281 341 252
101 111 -67 -3 126 303 380 287
109 123 -76 -17 121 321 415 322
117 136 -86 -32 117 341 450 357
126 149 -95 -47 114 359 486 391
134 161 -104 -62 110 379 522 426
116 138 -98 -80 70 314 443 373
96 109 -89 -99 26 239 350 310
75 80 -79 -117 -19 165 256 247
55 52 -70 -136 -63 91 162 184
34 22 -61 -154 -107 16 69 120
21 15 -60 -161 -121 -19 27 86
9 9 -61 -166 -133 -50 -9 55
-4 4 -61 -173 -143 -80 -45 23
-16 -3 -62 -178 -154 -111 -80 -9
-28 -8 -62 -184 -164 -142 -117 -39
-27 -6 -59 -164 -147 -131 -110 -41
-24 -2 -54 -141 -124 -113 -97 -39
-20 3 -48 -118 -101 -95 -83 -36
-17 7 -43 -95 -78 -77 -70 -33
-13 11 -37 -71 -56 -59 -57 -31
-12 10 -32 -59 -47 -53 -52 -30
-12 8 -27 -49 -39 -47 -49 -30
-12 6 -22 -37 -31 -41 -45 -30
-12 3 -16 -26 -24 -36 -41 -30
-12 1 -11 -16 -16 -30 -37 -30
-12 -3 -10 -12 -14 -29 -36 -30
-12 -6 -9 -9 -13 -28 -36 -30
-11 -9 -8 -6 -12 -27 -35 -30
-11 -12 -7 -3 -11 -26 -35 -30
-11 -15 -7 1 -10 -26 -35 -30
-11 -16 -6 2 -9 -25 -34 -29
-12 -17 -6 2 -9 -25 -34 -30
-14 -18 -6 2 -9 -25 -34 -31
-15 -19 -6 2 -9 -25 -34 -32
-16 -20 -6 2 -9 -25 -34 -32
-16 -20 -4 3 -10 -26 -34 -33
-15 -19 -3 4 -10 -27 -34 -33
-13 -18 0 5 -10 -28 -35 -33
-11 -17 2 6 -10 -29 -35 -33
-10 -16 3 7 -10 -29 -35 -33
-11 -16 4 8 -11 -30 -36 -32
-13 -19 4 8 -12 -30 -36 -33
-16 -21 4 9 -12 -31 -37 -34
-19 -23 4 9 -13 -31 -37 -35
-21 -25 4 9 -13 -31 -37 -35
-21 -26 5 10 -14 -32 -38 -37
-20 -25 6 10 -14 -32 -38 -38
-18 -24 7 11 -14 -33 -39 -39
-17 -23 8 11 -14 -33 -39 -40
-16 -23 9 11 -14 -33 -39 -41
-15 -22 10 11 -13 -35 -40 -43
-15 -23 9 10 -14 -36 -41 -44
-15 -24 8 8 -15 -37 -41 -45
-15 -25 7 6 -16 -38 -43 -46
-15 -26 6 5 -17 -39 -43 -46
-15 -27 5 4 -18 -40 -44 -47
-16 -27 5 3 -18 -40 -44 -47
-16 -28 5 3 -18 -40 -44 -47
-17 -28 5 2 -18 -40 -44 -47
-17 -28 5 2 -18 -40 -44 -47
-18 -29 4 1 -17 -41 -44 -50
-18 -29 3 1 -18 -43 -45 -53
-18 -29 3 1 -19 -45 -47 -55
-18 -29 2 1 -20 -47 -49 -58
-18 -29 2 1 -20 -48 -50 -61
-17 -28 2 1 -20 -49 -51 -62
-16 -27 4 4 -19 -48 -51 -62
-15 -26 6 6 -18 -47 -51 -62
-13 -25 7 8 -17 -46 -51 -62
-12 -24 9 10 -16 -45 -51 -62
-11 -24 10 11 -15 -44 -50 -62
-12 -25 10 12 -15 -45 -50 -63
-13 -26 9 12 -15 -45 -50 -64
-14 -27 9 13 -15 -46 -50 -65
-14 -28 9 13 -15 -46 -50 -65
-15 -27 9 16 -15 -47 -50 -66
-14 -24 10 18 -14 -47 -50 -67
-13 -21 11 20 -13 -47 -50 -67
-12 -18 12 23 -12 -47 -50 -68
-11 -15 13 25 -11 -47 -50 -68
-11 -15 14 27 -10 -48 -52 -70
-13 -17 13 28 -10 -49 -53 -71
-15 -19 12 30 -11 -50 -54 -73
-17 -21 11 32 -11 -51 -55 -75
-19 -23 10 33 -11 -52 -56 -76
-18 -23 9 35 -11 -53 -57 -77
-16 -22 9 38 -10 -52 -57 -76
-13 -20 10 40 -9 -51 -56 -76
-11 -18 10 44 -7 -50 -56 -75
-8 -17 10 46 -6 -50 -56 -75
-7 -16 10 47 -5 -50 -56 -74
-8 -16 8 47 -5 -51 -57 -75
-9 -17 6 48 -6 -52 -58 -76
-10 -17 5 48 -6 -54 -60 -77
-10 -17 3 48 -6 -55 -61 -78
-11 -18 1 48 -9 -58 -63 -80
-12 -19 0 47 -11 -61 -66 -83
-12 -20 -2 46 -14 -63 -68 -86
-13 -21 -4 44 -16 -66 -70 -89
-13 -22 -5 43 -19 -69 -72 -91
-14 -23 -5 43 -20 -70 -73 -91
-13 -22 -4 45 -19 -70 -72 -88
-12 -21 -2 47 -18 -69 -71 -86
-11 -20 1 48 -17 -69 -70 -82
-11 -19 2 50 -16 -69 -70 -80
-10 -18 3 51 -15 -68 -69 -79
-10 -17 3 51 -15 -68 -68 -77
-10 -17 4 51 -15 -68 -67 -76
-10 -16 4 51 -15 -68 -66 -75
-10 -16 4 51 -15 -68 -66 -74
-11 -15 5 49 -14 -68 -65 -73
-10 -15 4 47 -15 -68 -64 -73
-10 -16 3 45 -15 -68 -63 -72
-9 -16 2 44 -16 -68 -62 -72
-9 -16 1 42 -16 -68 -61 -72
-8 -16 0 40 -17 -65 -58 -69
-7 -15 1 40 -16 -62 -54 -66
-6 -13 2 40 -15 -59 -51 -64
-5 -11 3 40 -14 -55 -48 -61
-5 -10 4 40 -13 -52 -44 -58
-5 -10 5 37 -12 -50 -41 -56
-6 -13 5 34 -12 -49 -39 -55
-8 -15 5 31 -13 -47 -36 -54
-10 -18 5 28 -13 -45 -34 -52
-11 -20 5 25 -13 -44 -32 -51
-11 -20 6 24 -14 -41 -30 -50
-10 -18 6 24 -13 -40 -29 -50
-8 -15 7 24 -13 -39 -28 -49
-6 -13 7 24 -12 -37 -26 -49
-5 -11 7 24 -12 -36 -25 -49
-4 -10 8 23 -11 -35 -24 -48
-5 -10 7 23 -11 -35 -24 -48
-6 -11 7 22 -11 -34 -23 -48
-7 -11 6 22 -11 -34 -23 -48
-8 -11 6 22 -11 -34 -23 -48
-9 -12 5 21 -11 -33 -22 -48
-9 -12 5 21 -11 -33 -22 -50
-9 -13 5 20 -11 -33 -22 -51
-9 -13 5 20 -11 -33 -22 -52
-9 -13 5 20 -11 -33 -22 -53
-9 -13 6 20 -12 -32 -22 -54
-7 -12 7 22 -10 -31 -21 -53
-5 -10 9 24 -9 -30 -21 -52
-4 -8 11 26 -8 -29 -20 -51
-2 -7 12 28 -7 -28 -20 -50
-3 -7 13 29 -6 -27 -19 -50
-6 -8 12 28 -8 -28 -20 -52
-9 -9 11 27 -9 -29 -21 -55
-12 -11 10 26 -10 -30 -22 -57
-15 -12 9 25 -11 -31 -23 -59
-14 -12 8 24 -11 -31 -23 -59
-11 -10 8 25 -9 -29 -21 -57
-8 -8 8 26 -7 -26 -18 -55
-4 -7 8 27 -5 -24 -16 -53
0 -5 8 27 -3 -22 -14 -51
1 -4 8 28 -2 -21 -13 -50
-2 -5 7 29 -2 -20 -12 -50
-3 -5 6 29 0 -19 -12 -50
-4 -6 5 30 0 -18 -11 -50
-5 -6 4 30 0 -18 -11 -50
-6 -7 2 30 1 -17 -10 -50
-6 -7 -2 29 1 -16 -9 -50
-6 -7 -4 28 1 -15 -8 -50
-6 -7 -7 26 1 -14 -7 -50
-6 -7 -9 25 1 -13 -7 -50
-6 -7 -10 24 0 -11 -5 -50
-6 -8 -11 24 0 -9 -4 -49
-6 -9 -11 23 0 -6 -2 -48
-6 -10 -12 23 0 -4 1 -47
-6 -11 -12 23 0 -2 2 -47
-6 -12 -13 22 1 1 4 -45
-5 -11 -14 21 1 3 6 -44
-4 -10 -14 21 2 5 7 -43
-3 -9 -15 20 2 7 9 -40
-3 -8 -15 20 2 9 11 -39
-2 -7 -16 19 3 10 12 -37
-2 -7 -16 19 4 10 12 -36
-2 -7 -16 19 5 10 13 -35
-2 -7 -16 19 6 10 13 -33
-2 -7 -16 19 6 10 13 -32
1 -8 -15 18 7 11 14 -31
2 -6 -16 16 7 12 15 -30
4 -5 -16 13 7 12 15 -30
6 -4 -17 11 7 13 16 -29
7 -3 -17 9 7 13 16 -29
8 -2 -17 8 6 14 17 -28
8 -3 -15 8 6 14 17 -28
7 -3 -14 8 6 14 17 -28
7 -4 -12 8 6 14 17 -28
7 -4 -10 8 6 14 17 -28
6 -5 -8 8 5 13 17 -27
6 -4 -6 8 6 13 17 -27
5 -3 -5 8 7 13 17 -27
5 -3 -3 8 7 13 17 -27
5 -2 0 8 8 13 17 -27
3 0 1 8 9 14 16 -27
2 1 1 8 9 14 15 -27
0 1 2 8 9 13 14 -27
-2 2 2 8 9 13 14 -27
-4 2 2 8 9 13 13 -27
-5 3 3 8 10 12 12 -25
-6 1 2 7 9 11 11 -23
-6 0 2 7 9 10 10 -20
-7 -2 1 6 8 10 10 -17
-7 -3 1 6 8 9 9 -14
-7 -4 1 5 7 8 8 -13
-5 -3 2 6 8 9 8 -11
-2 -2 4 7 9 9 9 -10
1 0 5 7 9 10 9 -9
3 1 7 8 10 10 9 -8
4 3 8 9 11 11 10 -7
3 4 9 9 11 11 9 -5
3 5 10 9 11 10 9 -4
2 7 10 9 11 10 8 -3
2 8 11 9 11 10 8 -2
1 9 12 10 11 9 6 0
0 7 12 10 11 8 5 0
-2 6 11 10 10 7 4 0
-2 5 11 10 10 6 2 0
-3 4 11 10 10 5 1 0
-4 2 10 9 9 4 0 -2
-4 1 9 8 8 3 -2 -3
-4 -2 8 7 7 2 -3 -3
-4 -3 8 6 6 1 -3 -4
-4 -5 7 5 5 0 -4 -4
-3 -6 6 4 4 -2 -5 -5
-5 -8 6 4 4 -2 -6 -5
-6 -9 6 4 4 -3 -6 -4
-7 -10 6 4 4 -3 -7 -4
-8 -11 6 4 4 -3 -7 -4
-7 -10 5 3 3 -4 -8 -3
-5 -7 5 4 4 -3 -8 -2
-2 -4 5 5 5 -3 -8 -2
2 0 5 6 6 -2 -8 0
5 4 5 7 7 -2 -8 0
5 4 5 8 8 0 -7 1
4 2 5 8 8 0 -7 1
2 1 5 7 8 -2 -7 1
1 -2 5 7 8 -2 -7 1
-2 -4 5 7 8 -2 -7 1
-3 -6 4 6 7 -3 -6 1
-3 -8 2 6 6 -4 -7 0
-3 -9 1 5 5 -4 -7 0
-3 -11 0 5 5 -5 -8 -2
-3 -13 -2 5 4 -5 -8 -2
-3 -14 -3 4 3 -6 -9 -3
-2 -14 -3 5 3 -5 -8 -3
1 -13 -3 5 3 -4 -7 -3
2 -13 -3 6 3 -3 -7 -3
4 -13 -3 6 3 -2 -6 -3
6 -9 -4 7 7 5 1 3
8 -4 -6 7 11 12 9 10
9 1 -7 7 16 19 17 16
11 6 -9 7 21 27 24 23
13 11 -10 7 25 34 32 30
23 22 -19 6 39 72 80 64
38 36 -31 4 57 123 146 109
53 51 -44 3 75 175 213 155
67 65 -56 1 94 226 278 201
81 79 -68 -2 111 277 344 247
95 94 -77 -12 114 308 393 287
106 107 -87 -25 109 330 435 325
118 119 -96 -39 104 353 477 364
131 133 -104 -53 98 375 520 402
143 146 -113 -66 93 397 562 440
131 134 -109 -82 58 348 505 408
107 107 -99 -100 10 265 402 344
84 80 -88 -117 -38 182 299 279
59 54 -76 -135 -88 99 196 215
35 28 -66 -152 -136 16 93 150
20 15 -62 -161 -156 -31 34 106
9 8 -61 -168 -164 -63 -5 72
-2 1 -61 -173 -174 -95 -44 37
-13 -7 -60 -178 -182 -126 -82 4
-24 -13 -60 -184 -190 -157 -120 -31
-28 -14 -56 -171 -176 -153 -123 -40
-26 -11 -50 -148 -150 -132 -107 -36
-25 -7 -44 -124 -123 -110 -91 -32
-24 -4 -37 -101 -98 -89 -74 -29
-23 0 -31 -78 -72 -66 -59 -25
-22 -2 -26 -64 -59 -56 -52 -23
-21 -7 -21 -55 -52 -52 -49 -23
-21 -12 -16 -46 -45 -47 -47 -24
-20 -18 -10 -36 -37 -43 -45 -24
-20 -23 -5 -26 -30 -37 -41 -24
-18 -24 -2 -21 -25 -34 -39 -25
-15 -23 1 -18 -22 -32 -38 -25
-12 -21 3 -15 -19 -30 -36 -25
-9 -20 5 -12 -16 -28 -35 -25
-6 -18 7 -9 -13 -26 -33 -25
-5 -17 8 -7 -12 -25 -32 -26
-6 -18 8 -6 -10 -23 -30 -24
-7 -19 9 -4 -9 -22 -29 -23
-8 -20 9 -3 -8 -21 -28 -22
-9 -21 9 0 -7 -20 -27 -21
-10 -22 10 1 -6 -19 -26 -20
-10 -22 10 2 -5 -19 -26 -20
-11 -22 10 4 -4 -18 -25 -19
-12 -22 10 5 -4 -17 -24 -19
-12 -22 10 6 -3 -17 -24 -19
-13 -22 9 7 -2 -16 -23 -18
-12 -22 9 7 -2 -15 -22 -17
-10 -21 8 8 0 -14 -21 -16
-9 -21 8 9 1 -13 -20 -15
-8 -21 8 9 1 -12 -19 -14
-7 -21 7 10 2 -11 -18 -13
-8 -22 6 10 2 -11 -18 -13
-9 -24 5 10 1 -11 -18 -13
-10 -26 5 10 0 -11 -18 -13
-11 -28 4 10 0 -11 -18 -13
-11 -28 3 9 -2 -10 -18 -14
-9 -26 3 9 -2 -10 -18 -14
-7 -24 3 9 -2 -10 -17 -13
-4 -22 3 9 -2 -10 -17 -13
-2 -20 3 9 -2 -10 -17 -13
-2 -20 2 8 -2 -9 -16 -12
-3 -23 1 7 -4 -10 -16 -12
-5 -25 -2 5 -5 -11 -16 -12
-7 -28 -3 4 -7 -12 -16 -12
-9 -31 -4 3 -8 -13 -16 -12
-9 -32 -5 2 -8 -14 -17 -11
-7 -30 -4 3 -7 -12 -17 -11
-5 -29 -3 5 -5 -11 -16 -11
-3 -27 -2 6 -4 -9 -15 -11
0 -26 0 7 -2 -8 -15 -11
1 -25 1 8 0 -7 -14 -11
0 -25 1 7 0 -7 -14 -12
-2 -25 2 6 -2 -8 -15 -13
-3 -25 2 5 -2 -9 -16 -13
-4 -25 2 4 -2 -9 -16 -14
-5 -26 3 3 -3 -10 -17 -16
-5 -27 3 2 -3 -11 -19 -17
-5 -28 3 0 -4 -13 -20 -19
-5 -28 3 -2 -5 -14 -22 -21
-5 -29 3 -3 -5 -15 -23 -23
-5 -30 4 -4 -6 -16 -24 -24
-5 -28 4 -4 -4 -16 -24 -24
-4 -27 5 -3 -3 -15 -23 -25
-3 -25 6 -2 0 -15 -23 -26
-3 -24 6 -2 1 -15 -23 -26
-3 -23 7 2 2 -13 -21 -27
-4 -23 7 5 4 -11 -19 -26
-6 -23 8 9 5 -8 -16 -25
-7 -23 9 13 7 -6 -14 -25
-9 -23 9 16 8 -3 -11 -24
-10 -23 10 18 9 -2 -10 -23
-10 -23 10 18 9 -3 -12 -23
-10 -24 10 19 10 -4 -13 -23
-10 -25 10 19 11 -5 -15 -23
-10 -25 10 19 11 -6 -16 -23
-9 -24 10 21 12 -7 -17 -24
-7 -21 10 22 12 -8 -18 -24
-5 -18 10 24 12 -9 -19 -24
-4 -14 10 26 12 -9 -19 -24
-2 -11 10 28 12 -10 -20 -24
0 -9 11 29 13 -11 -21 -24
0 -10 11 29 13 -12 -21 -24
-2 -11 11 29 12 -14 -22 -23
-3 -12 11 29 11 -15 -22 -22
-3 -13 11 29 11 -16 -22 -22
-4 -14 12 30 10 -17 -23 -21
-4 -13 11 30 10 -17 -23 -19
-4 -12 10 30 11 -17 -22 -18
-4 -12 10 30 11 -17 -21 -16
-4 -11 9 30 11 -17 -21 -15
-3 -9 8 29 12 -15 -19 -14
-2 -6 8 29 12 -14 -17 -13
1 -3 7 28 12 -12 -15 -11
3 1 6 28 12 -10 -13 -10
5 4 6 28 12 -8 -11 -9
6 6 5 27 12 -6 -9 -8
6 4 5 27 13 -5 -7 -7
6 3 6 27 14 -3 -5 -5
6 1 7 27 15 0 -3 -4
6 0 7 27 16 2 1 -3
6 -2 8 28 17 3 2 -2
6 -2 8 28 17 4 3 0
7 -2 8 28 18 6 5 1
8 -2 8 28 19 7 6 1
8 -2 8 28 19 8 7 2
8 -3 8 27 20 9 8 3
7 -5 7 26 20 9 8 3
5 -6 6 25 19 10 9 4
3 -8 5 25 18 11 9 4
1 -9 4 24 18 11 9 4
0 -10 3 23 17 12 10 5
0 -10 3 23 17 12 10 5
-2 -10 3 23 17 12 10 5
-3 -10 3 23 17 12 10 5
-3 -10 3 23 17 12 10 5
-4 -10 3 21 15 12 8 5
-4 -10 1 17 13 10 6 4
-5 -11 -3 14 11 8 4 3
-6 -12 -5 11 9 6 2 3
-6 -12 -8 8 7 4 0 2
-7 -13 -9 6 6 3 -2 1
-6 -11 -8 6 6 3 -2 1
-5 -10 -7 5 6 3 -2 1
-4 -8 -6 5 6 3 -2 1
-3 -7 -5 5 6 3 -2 1
-2 -6 -4 4 7 3 0 1
-3 -6 -3 4 7 2 -3 0
-4 -6 -2 4 6 1 -4 -2
-4 -6 0 4 6 1 -6 -3
-5 -6 1 4 6 0 -7 -4
-6 -5 2 4 5 -2 -8 -5
-6 -5 4 4 5 -2 -7 -5
-5 -5 5 5 6 -2 -6 -5
-4 -5 7 6 7 -2 -5 -5
-4 -5 8 6 7 -2 -4 -5
-4 -5 9 7 8 1 -2 -4
-5 -5 9 8 9 4 1 -2
-7 -5 8 9 10 6 4 1
-9 -5 8 9 11 9 6 3
-11 -5 8 10 12 11 8 5
-11 -4 7 11 13 14 11 7
-10 -3 6 11 14 17 14 9
-8 -2 5 12 16 20 17 11
-6 0 5 13 17 22 20 13
-4 1 4 13 18 25 23 15
0 3 1 13 19 27 25 16
4 5 -4 10 20 27 25 16
8 8 -9 7 21 27 25 17
12 10 -13 5 21 27 25 17
17 12 -18 2 22 27 25 17
25 21 -25 2 34 55 59 37
35 34 -34 7 56 104 119 73
47 48 -45 11 77 153 180 110
58 61 -55 16 99 202 240 146
69 75 -64 20 119 252 301 182
81 92 -75 11 119 286 353 219
94 110 -88 -13 101 309 398 256
107 129 -99 -36 82 332 443 294
120 147 -111 -60 64 355 488 330
134 165 -122 -82 46 379 533 367
130 163 -123 -102 17 347 503 354
109 143 -114 -118 -20 269 410 298
89 122 -105 -135 -56 192 318 240
68 102 -95 -151 -93 115 226 184
48 81 -86 -168 -129 37 133 127
34 69 -78 -165 -137 -4 78 87
26 65 -75 -145 -119 -15 56 59
18 60 -71 -126 -102 -26 33 31
10 56 -67 -105 -83 -37 11 4
2 51 -63 -85 -66 -49 -12 -23
-3 44 -56 -67 -52 -49 -21 -36
-3 34 -45 -52 -39 -38 -17 -38
-4 24 -33 -35 -27 -28 -13 -40
-4 14 -22 -20 -16 -17 -9 -43
-4 5 -11 -5 -4 -7 -5 -45
-5 -2 -6 4 3 -2 -3 -46
-5 -4 -6 6 3 -3 -5 -48
-4 -7 -5 8 3 -4 -6 -49
-3 -9 -4 9 3 -4 -7 -50
-3 -11 -4 11 3 -5 -9 -52
-2 -13 -3 12 4 -6 -10 -53
-2 -13 -3 11 4 -6 -10 -53
-3 -13 -3 10 3 -7 -11 -52
-3 -13 -3 9 2 -7 -12 -51
-3 -13 -3 8 2 -7 -12 -51
-4 -14 -4 7 1 -8 -13 -50
-4 -14 -4 7 1 -8 -13 -50
-3 -14 -5 6 1 -8 -13 -50
-2 -14 -6 5 1 -8 -13 -50
-2 -14 -6 5 1 -8 -13 -50
-2 -15 -7 4 1 -9 -13 -49
-4 -15 -6 4 1 -9 -14 -49
-6 -14 -5 3 1 -10 -15 -49
-8 -14 -4 2 1 -11 -15 -49
-10 -14 -3 2 1 -11 -16 -49
-11 -13 -2 1 0 -12 -17 -48
-11 -13 1 3 0 -12 -17 -48
-10 -13 3 5 1 -12 -18 -49
-9 -13 5 6 2 -12 -19 -50
-9 -13 7 8 2 -12 -19 -50
-8 -12 8 9 3 -11 -20 -51
-8 -12 9 11 3 -11 -20 -51
-9 -11 11 13 3 -12 -21 -51
-10 -11 12 15 3 -13 -22 -51
-10 -11 13 17 3 -13 -22 -51
-11 -10 14 18 4 -14 -23 -52
-11 -10 14 20 5 -14 -23 -52
-10 -10 14 21 6 -14 -24 -52
-9 -10 14 22 6 -14 -25 -52
-9 -10 14 24 7 -14 -25 -52
-8 -10 15 25 8 -15 -26 -53
-9 -11 15 27 8 -15 -26 -53
-10 -12 16 28 8 -16 -27 -53
-11 -12 16 29 8 -17 -28 -53
-12 -13 16 31 8 -17 -28 -53
-13 -14 17 32 7 -18 -29 -54
-15 -16 16 33 7 -19 -31 -54
-16 -18 15 34 7 -20 -33 -55
-17 -19 15 34 7 -21 -35 -55
-19 -21 14 35 7 -22 -37 -55
-20 -22 13 36 7 -23 -38 -56
-19 -22 13 36 7 -24 -39 -57
-18 -22 13 37 6 -26 -40 -58
-18 -22 13 38 6 -27 -41 -58
-17 -22 13 38 6 -28 -43 -59
-15 -22 12 40 5 -29 -44 -60
-11 -20 12 44 7 -29 -45 -60
-7 -18 12 46 9 -29 -46 -61
-3 -16 12 49 11 -29 -47 -62
2 -14 12 52 13 -29 -48 -62
3 -13 11 54 14 -30 -49 -63
1 -14 10 55 14 -30 -49 -63
-2 -15 9 56 14 -30 -49 -63
-4 -16 7 58 14 -30 -50 -63
-6 -17 6 59 14 -30 -50 -63
-8 -18 5 60 14 -31 -51 -63
-7 -17 4 60 15 -30 -49 -61
-6 -16 3 61 15 -29 -47 -60
-5 -15 1 62 16 -27 -45 -59
-4 -14 0 62 17 -26 -43 -57
-3 -13 -2 63 18 -25 -41 -55
-3 -13 -2 63 18 -23 -39 -53
-2 -13 -2 63 18 -22 -37 -51
0 -13 -2 63 18 -21 -35 -49
0 -13 -2 63 18 -19 -33 -47
1 -13 -3 63 19 -18 -32 -45
1 -15 -5 61 18 -18 -32 -45
1 -16 -7 58 17 -18 -32 -45
1 -18 -10 55 16 -18 -32 -45
1 -20 -12 53 15 -18 -32 -45
2 -19 -14 51 14 -17 -31 -43
4 -15 -14 49 14 -15 -27 -38
6 -11 -14 48 14 -13 -23 -35
9 -6 -14 47 14 -11 -19 -31
11 -2 -14 45 14 -9 -15 -27
12 2 -13 43 13 -7 -13 -25
9 0 -14 39 13 -6 -11 -25
6 -3 -14 37 12 -5 -10 -25
2 -5 -15 34 11 -3 -8 -24
-2 -7 -16 31 11 -2 -6 -24
-4 -7 -16 29 11 1 -4 -22
-4 -5 -12 31 13 4 1 -18
-4 -2 -8 32 15 7 4 -15
-3 2 -4 34 18 11 7 -12
-3 4 0 36 20 14 11 -8
-2 6 3 37 22 16 13 -6
1 7 3 37 22 16 13 -7
3 8 3 37 22 16 13 -8
5 10 3 36 22 16 13 -9
7 11 3 36 22 16 13 -10
8 12 4 35 21 17 13 -11
6 10 4 35 20 16 13 -11
5 9 4 35 19 16 12 -11
3 8 4 34 18 15 11 -12
1 6 4 34 17 14 11 -12
0 5 5 33 16 13 10 -13
0 7 7 35 16 14 10 -13
0 8 8 36 16 14 10 -13
0 9 10 38 16 15 11 -13
0 11 12 40 16 16 11 -13
0 12 13 42 17 17 12 -13
1 10 12 42 18 16 11 -14
1 8 11 42 18 16 10 -15
2 6 10 42 19 15 8 -16
3 4 9 42 20 14 7 -17
4 2 8 40 21 13 6 -18
2 2 8 40 21 13 6 -18
0 2 7 40 21 14 6 -18
-3 2 6 42 21 15 7 -17
-5 2 6 42 21 15 7 -17
-6 1 5 43 21 16 8 -15
-4 2 4 43 22 18 10 -11
-3 2 3 43 23 20 12 -7
0 3 1 43 24 22 14 -3
2 4 0 43 25 24 16 2
4 6 -4 44 28 30 22 8
7 9 -9 40 33 39 32 16
11 12 -14 38 38 50 43 24
14 15 -19 36 44 60 54 31
18 18 -25 34 49 69 64 39
27 27 -32 35 64 101 98 63
46 46 -41 44 93 158 160 106
63 64 -51 52 122 217 224 148
80 82 -61 60 151 275 286 191
99 101 -70 68 181 334 350 234
113 116 -80 68 192 369 396 271
125 127 -90 55 179 378 422 301
136 136 -99 42 164 385 447 331
147 146 -108 29 151 393 473 361
157 156 -117 16 138 401 497 391
153 159 -119 -6 107 369 474 387
127 151 -109 -38 53 283 385 336
99 144 -99 -70 -2 198 295 284
72 136 -89 -103 -56 112 204 234
46 128 -78 -135 -110 26 115 183
26 115 -72 -150 -139 -29 53 141
18 96 -73 -141 -132 -43 29 112
11 76 -73 -132 -124 -57 5 82
3 58 -74 -121 -117 -71 -20 53
-6 38 -75 -112 -110 -86 -45 24
-11 25 -75 -99 -100 -90 -57 6
-10 21 -71 -82 -86 -77 -52 4
-9 16 -66 -65 -72 -65 -47 1
-7 11 -62 -48 -58 -53 -41 -2
-6 6 -58 -30 -44 -40 -36 -5
-5 2 -52 -18 -34 -32 -32 -8
-5 -3 -45 -13 -32 -31 -33 -12
-5 -7 -37 -8 -29 -31 -34 -15
-4 -10 -29 -3 -26 -30 -35 -19
-4 -14 -22 3 -23 -29 -36 -22
-3 -17 -17 7 -21 -28 -37 -25
-5 -17 -15 8 -20 -27 -36 -24
-6 -17 -14 8 -19 -27 -35 -24
-8 -17 -12 9 -18 -26 -34 -23
-10 -17 -10 10 -17 -25 -33 -22
-11 -16 -9 11 -16 -24 -32 -21
-11 -16 -8 11 -15 -24 -32 -21
-11 -16 -7 12 -15 -24 -32 -22
-11 -15 -6 13 -14 -24 -33 -23
-11 -15 -5 13 -13 -24 -33 -23
-10 -14 -4 14 -12 -25 -34 -24
-11 -15 -3 14 -12 -25 -34 -24
-13 -15 -3 14 -12 -25 -34 -24
-14 -16 -2 14 -12 -25 -35 -25
-16 -17 0 14 -12 -25 -35 -25
-17 -18 1 15 -12 -26 -36 -26
-17 -18 1 16 -12 -26 -36 -26
-16 -18 2 17 -11 -26 -37 -27
-15 -18 3 18 -10 -26 -38 -28
-15 -18 3 19 -10 -26 -38 -28
-14 -18 4 20 -9 -27 -39 -29
-14 -20 4 20 -9 -28 -39 -30
-14 -22 4 20 -9 -29 -40 -31
-14 -24 4 21 -9 -30 -41 -32
-14 -26 4 21 -9 -31 -41 -33
-14 -28 4 22 -10 -32 -43 -34
-14 -26 6 23 -8 -31 -43 -34
-13 -25 7 24 -7 -30 -43 -33
-12 -23 9 26 -5 -28 -41 -32
-12 -21 11 27 -3 -27 -41 -32
-11 -20 12 28 -2 -26 -40 -31
-11 -20 12 28 -2 -27 -41 -31
-11 -20 12 28 -2 -27 -41 -31
-12 -21 12 27 -3 -28 -43 -31
-12 -21 12 27 -3 -29 -44 -31
-13 -22 11 26 -4 -30 -45 -32
-13 -22 11 26 -4 -30 -46 -34
-13 -23 11 27 -4 -31 -47 -35
-12 -24 10 28 -4 -32 -49 -37
-12 -24 10 28 -4 -32 -50 -39
-11 -25 9 29 -3 -33 -51 -40
-12 -26 9 29 -3 -34 -52 -40
-12 -27 9 30 -3 -35 -53 -41
-13 -28 9 31 -3 -37 -55 -43
-14 -29 9 31 -3 -38 -56 -43
-15 -30 8 32 -4 -39 -57 -44
-15 -30 8 34 -3 -39 -58 -45
-15 -31 8 36 -2 -40 -60 -46
-16 -32 8 38 1 -41 -61 -48
-16 -32 8 39 2 -41 -63 -49
-17 -33 9 42 3 -43 -64 -50
-15 -33 11 43 3 -43 -64 -50
-13 -33 12 44 3 -43 -64 -50
-11 -33 14 45 3 -44 -64 -50
-10 -33 15 46 3 -44 -64 -50
-8 -34 17 47 3 -45 -64 -49
-9 -34 17 47 3 -46 -65 -49
-9 -34 17 47 3 -46 -65 -49
-10 -35 17 47 2 -47 -66 -50
-11 -35 17 47 2 -48 -67 -50
-12 -36 18 45 0 -49 -68 -51
-12 -36 16 39 -3 -51 -68 -50
-12 -36 15 34 -6 -52 -68 -50
-11 -36 13 29 -9 -54 -68 -49
-11 -36 12 25 -12 -55 -68 -48
-10 -35 10 21 -14 -57 -69 -47
-10 -35 7 20 -14 -55 -67 -45
-10 -35 5 19 -13 -53 -66 -44
-11 -35 3 17 -12 -51 -64 -41
-11 -35 1 16 -12 -50 -63 -40
-12 -34 -2 15 -11 -47 -59 -37
-12 -32 0 15 -10 -43 -54 -33
-12 -29 1 15 -8 -39 -48 -28
-12 -26 2 15 -7 -35 -43 -24
-12 -23 3 15 -5 -31 -36 -19
-11 -21 4 16 -4 -28 -32 -16
-10 -18 4 16 -4 -25 -29 -15
-8 -15 4 15 -3 -22 -26 -14
-7 -13 4 14 -2 -20 -24 -13
-5 -10 4 14 -2 -17 -21 -12
-4 -8 5 13 0 -15 -19 -11
-3 -8 5 13 1 -15 -18 -9
-3 -7 6 12 1 -14 -18 -7
-2 -6 7 11 2 -13 -17 -5
0 -6 7 11 3 -13 -16 -4
1 -5 8 10 4 -12 -15 -2
0 -5 8 9 4 -12 -15 -2
-3 -5 8 8 4 -12 -14 -2
-4 -5 8 7 4 -11 -13 0
-6 -5 8 6 4 -11 -13 0
-7 -6 8 5 4 -10 -12 1
-8 -8 8 5 4 -10 -12 1
-8 -9 8 4 4 -10 -12 1
-9 -11 8 3 3 -10 -12 1
-10 -12 8 3 3 -10 -12 1
-11 -14 8 2 2 -9 -11 2
-9 -12 8 2 2 -9 -11 2
-8 -11 8 2 3 -9 -11 2
-6 -9 8 2 4 -8 -11 2
-5 -8 8 2 4 -8 -11 2
-3 -6 7 3 5 -7 -11 1
-2 -6 7 4 6 -6 -10 1
1 -6 7 4 6 -5 -9 2
2 -6 7 5 7 -4 -8 3
4 -6 7 6 8 -3 -7 3
5 -6 6 7 9 -2 -6 4
3 -7 6 9 11 1 -5 5
1 -7 6 10 12 3 -4 5
0 -8 6 12 14 4 -3 6
-3 -9 6 13 15 6 0 7
-5 -10 6 15 17 8 1 8
-3 -10 6 15 17 8 2 8
-2 -9 6 15 18 9 3 8
1 -9 7 16 18 9 4 9
2 -8 7 16 19 10 6 9
4 -7 8 17 20 11 7 10
4 -6 8 18 21 11 7 10
5 -6 9 18 21 11 7 10
5 -5 9 19 22 12 7 10
6 -4 10 20 23 12 7 10
7 -3 11 21 24 13 7 10
4 -5 12 22 24 13 7 10
1 -8 13 22 24 13 7 10
-3 -10 14 23 24 13 7 10
-6 -12 16 24 24 13 7 10
-8 -14 17 25 25 13 8 10
-6 -12 17 22 24 13 8 9
-3 -10 17 20 23 13 7 9
0 -9 17 18 22 12 7 8
2 -7 17 15 21 12 6 7
4 -5 16 13 20 11 5 6
4 -4 15 13 20 11 6 7
4 -2 14 13 20 12 7 8
5 0 13 12 20 12 8 9
5 2 12 12 20 13 9 10
6 3 11 11 20 14 10 11
4 1 10 10 19 13 9 10
3 -3 9 10 19 12 9 9
1 -5 8 9 18 11 8 8
0 -7 7 8 17 10 7 6
-3 -9 6 7 16 9 6 5
-3 -9 6 7 16 9 6 5
-2 -9 6 7 16 8 5 5
-2 -8 6 6 15 8 5 4
0 -8 6 6 15 7 4 4
1 -7 5 5 14 6 3 3
1 -6 5 5 14 6 3 3
1 -4 6 5 14 6 3 4
1 -3 6 5 14 6 3 4
1 0 7 5 14 6 3 5
1 1 8 6 15 7 3 6
1 0 8 6 14 6 2 5
1 -2 8 5 12 5 1 4
1 -3 8 5 11 4 0 3
1 -5 8 4 9 3 -2 2
0 -6 9 3 8 2 -3 1
-3 -6 9 3 8 2 -3 1
-5 -7 9 3 8 2 -4 0
-7 -7 9 3 8 1 -4 0
-9 -8 9 3 8 1 -5 -2
-11 -9 10 3 7 0 -6 -3
-9 -8 10 3 7 0 -6 -3
-7 -7 10 3 7 0 -6 -3
-5 -6 10 3 6 0 -6 -3
-3 -4 10 3 6 0 -6 -3
0 -3 11 3 5 0 -6 -4
0 -4 11 3 5 0 -6 -6
0 -4 10 3 5 0 -6 -8
0 -5 10 2 5 -2 -7 -9
0 -6 9 2 5 -2 -7 -11
0 -7 8 1 4 -3 -8 -13
0 -7 8 1 4 -3 -8 -13
1 -6 8 1 4 -2 -8 -13
1 -6 8 1 5 -2 -7 -13
2 -5 8 1 5 0 -7 -13
3 -4 9 2 6 1 -6 -12
4 -4 8 2 6 1 -6 -12
4 -4 8 2 6 1 -6 -12
5 -5 7 2 6 1 -6 -12
6 -5 6 2 6 1 -6 -12
8 -4 5 3 10 7 2 -9
12 7 2 8 25 33 29 11
16 17 -2 12 40 59 57 29
20 27 -5 17 57 86 85 48
24 37 -8 22 72 111 113 66
32 50 -13 26 91 146 153 94
56 68 -24 26 113 206 228 147
78 86 -35 26 137 267 303 200
101 103 -46 26 160 327 377 254
123 121 -57 26 184 387 451 306
141 134 -66 20 191 423 498 344
138 130 -70 -8 152 385 464 337
136 125 -74 -35 112 347 430 328
133 119 -79 -63 73 309 396 321
130 115 -83 -91 33 272 361 313
120 105 -88 -117 -5 225 313 290
92 78 -83 -139 -40 153 227 224
62 52 -80 -161 -75 80 141 157
33 25 -77 -183 -111 9 54 91
5 -2 -74 -205 -146 -63 -32 24
-18 -22 -71 -218 -170 -117 -97 -27
-21 -22 -70 -198 -155 -116 -97 -32
-23 -22 -69 -180 -141 -116 -97 -37
-26 -23 -68 -161 -128 -115 -98 -43
-29 -23 -66 -142 -113 -114 -98 -49
-30 -24 -64 -123 -99 -110 -97 -53
-25 -20 -56 -107 -85 -96 -87 -50
-20 -16 -48 -91 -70 -81 -76 -48
-15 -13 -40 -74 -56 -67 -65 -46
-9 -9 -32 -58 -41 -53 -55 -43
-5 -6 -26 -44 -30 -41 -47 -40
-5 -9 -22 -38 -26 -39 -46 -41
-6 -12 -18 -32 -23 -37 -44 -43
-6 -15 -15 -26 -19 -34 -43 -44
-7 -18 -11 -21 -16 -32 -41 -45
-8 -21 -8 -16 -13 -30 -39 -46
-9 -21 -8 -15 -13 -30 -39 -46
-10 -20 -7 -14 -12 -30 -38 -45
-11 -20 -6 -13 -11 -29 -38 -45
-12 -19 -5 -11 -10 -29 -37 -44
-13 -18 -4 -10 -9 -28 -36 -43
-13 -18 -4 -10 -9 -28 -36 -43
-13 -19 -3 -9 -9 -28 -36 -43
-13 -19 -3 -9 -9 -29 -37 -44
-13 -20 -2 -8 -9 -29 -37 -44
-12 -21 0 -7 -8 -30 -38 -45
-13 -21 0 -7 -8 -30 -38 -45
-15 -21 0 -6 -7 -30 -38 -45
-16 -22 0 -6 -6 -29 -38 -45
-17 -22 0 -5 -5 -29 -38 -45
-19 -23 1 -4 -4 -28 -37 -44
-17 -23 1 -4 -3 -28 -37 -44
-15 -22 2 -3 -2 -27 -36 -44
-13 -21 3 -3 0 -27 -36 -44
-11 -20 4 -2 1 -26 -35 -44
-9 -19 5 0 2 -25 -34 -43
-9 -19 4 -2 1 -26 -34 -43
-9 -20 3 -3 0 -27 -34 -44
-9 -21 2 -4 -2 -28 -35 -44
-9 -22 0 -6 -4 -29 -35 -45
-9 -23 -2 -7 -5 -30 -36 -46
-9 -23 -2 -7 -5 -30 -36 -46
-8 -22 -2 -7 -4 -30 -36 -46
-7 -22 -2 -6 -4 -30 -35 -45
-6 -21 -2 -6 -3 -30 -35 -45
-5 -20 0 -5 -2 -29 -34 -44
-5 -20 0 -4 0 -29 -34 -44
-5 -21 1 -2 1 -29 -34 -45
-6 -21 2 0 2 -28 -33 -46
-6 -22 3 1 3 -28 -33 -47
-7 -23 4 3 4 -27 -32 -48
-8 -24 4 3 4 -27 -32 -48
-10 -26 4 3 4 -28 -32 -48
-11 -27 4 3 3 -28 -32 -48
-12 -28 4 3 3 -29 -32 -48
-14 -30 3 4 2 -30 -33 -49
-13 -29 3 6 2 -30 -33 -49
-11 -27 3 8 3 -30 -33 -50
-10 -26 4 10 3 -31 -32 -50
-9 -25 4 12 4 -31 -32 -51
-7 -23 5 14 5 -32 -31 -52
-7 -24 4 15 5 -32 -31 -52
-8 -25 3 16 5 -32 -32 -52
-8 -26 2 17 5 -33 -32 -52
-9 -28 1 18 5 -33 -33 -52
-10 -29 0 19 6 -34 -34 -53
-8 -28 -2 19 6 -35 -35 -54
-7 -26 -3 18 5 -36 -36 -55
-5 -25 -4 18 4 -37 -37 -56
-3 -24 -6 17 3 -39 -39 -57
0 -22 -7 16 2 -40 -40 -58
-4 -25 -7 16 2 -40 -40 -58
-7 -29 -7 17 2 -40 -40 -57
-10 -32 -6 18 2 -40 -40 -57
-13 -35 -6 19 2 -40 -40 -56
-16 -38 -5 20 1 -41 -40 -55
-13 -36 -7 17 -2 -44 -43 -56
-11 -34 -9 14 -3 -46 -45 -57
-8 -32 -12 12 -5 -49 -47 -58
-6 -30 -14 9 -7 -51 -49 -59
-3 -28 -16 6 -9 -53 -51 -60
-3 -27 -16 6 -9 -53 -51 -59
-3 -25 -16 5 -9 -53 -50 -58
-3 -23 -16 4 -8 -53 -50 -57
-3 -22 -16 3 -8 -53 -49 -56
-2 -20 -16 2 -7 -52 -48 -55
-3 -20 -16 2 -7 -52 -48 -55
-4 -19 -16 2 -8 -52 -47 -55
-5 -19 -17 1 -8 -51 -46 -54
-7 -18 -17 1 -9 -51 -45 -54
-8 -17 -18 0 -10 -50 -44 -53
-8 -16 -17 1 -10 -46 -38 -47
-7 -15 -16 2 -9 -43 -33 -41
-7 -14 -15 3 -9 -38 -29 -36
-6 -12 -14 4 -8 -34 -24 -31
-5 -11 -13 5 -7 -31 -20 -26
-5 -11 -13 5 -7 -29 -18 -24
-4 -10 -13 4 -7 -27 -17 -22
-3 -9 -13 3 -7 -25 -15 -20
-2 -8 -13 2 -7 -22 -13 -18
0 -7 -13 1 -6 -20 -11 -16
0 -8 -13 0 -6 -19 -11 -16
0 -9 -13 -2 -6 -18 -11 -15
0 -10 -13 -3 -6 -17 -10 -15
0 -11 -13 -4 -6 -16 -10 -14
-2 -12 -13 -5 -7 -15 -9 -13
-2 -10 -12 -3 -6 -13 -7 -11
-2 -8 -10 0 -4 -10 -4 -9
-2 -6 -8 2 -2 -8 -2 -7
-2 -3 -7 4 0 -5 2 -5
-2 0 -5 6 2 -3 4 -3
-2 -3 -5 6 2 -3 4 -4
-3 -6 -5 6 1 -4 3 -5
-4 -8 -5 6 0 -4 3 -6
-5 -10 -5 6 -2 -5 2 -7
-6 -13 -4 6 -3 -6 1 -8
-5 -12 -4 6 -3 -6 1 -8
-3 -10 -4 6 -3 -6 1 -8
0 -9 -4 5 -3 -6 1 -8
1 -8 -4 5 -3 -6 1 -8
3 -6 -4 4 -3 -7 0 -7
3 -6 -3 4 -3 -7 0 -7
4 -6 -2 4 -3 -7 0 -7
4 -6 0 5 -2 -7 0 -7
5 -6 1 5 -2 -7 0 -7
6 -5 2 6 0 -7 0 -6
6 -5 2 6 0 -7 0 -6
5 -5 2 5 0 -7 0 -6
5 -5 1 4 0 -8 -2 -7
4 -5 1 3 0 -8 -2 -7
3 -5 0 2 1 -9 -3 -8
3 -5 1 2 1 -8 -3 -8
2 -5 2 2 2 -7 -3 -7
2 -5 3 3 3 -6 -4 -6
1 -5 4 3 4 -5 -4 -5
0 -5 6 4 5 -4 -5 -4
-2 -5 6 4 6 -2 -5 -4
-3 -5 6 5 7 1 -5 -3
-4 -4 6 5 8 3 -5 -3
-5 -4 6 6 9 5 -5 -2
-6 -3 6 7 10 7 -5 0
-4 -2 6 8 10 8 -5 0
-3 0 5 9 11 9 -4 1
0 1 5 10 11 10 -4 1
2 2 4 11 12 11 -3 2
4 4 3 12 13 13 -2 3
4 4 3 12 13 14 0 4
4 4 2 12 14 16 1 5
4 4 1 12 15 18 2 6
4 4 0 12 16 19 3 7
5 5 -2 12 17 21 4 9
7 6 -7 7 17 21 5 9
10 7 -12 2 17 21 6 10
13 8 -17 -4 17 21 7 11
15 9 -21 -8 17 21 8 12
18 12 -26 -13 17 25 12 15
24 23 -34 -13 30 50 40 35
29 33 -41 -12 44 75 70 56
35 45 -50 -11 57 101 99 75
42 55 -57 -10 69 126 128 96
49 67 -64 -9 82 154 161 119
69 85 -72 -9 96 204 225 168
90 102 -79 -9 109 256 289 215
111 119 -87 -8 122 307 353 263
132 137 -94 -8 136 357 418 310
149 153 -101 -11 143 396 468 349
134 147 -105 -48 100 343 417 324
118 142 -109 -83 57 290 364 300
103 136 -114 -120 14 237 312 274
88 130 -118 -156 -29 185 261 250
73 122 -122 -189 -68 133 209 222
57 105 -117 -188 -79 89 152 179
40 87 -112 -187 -91 45 96 136
24 68 -107 -186 -102 1 40 92
8 50 -102 -185 -113 -44 -16 49
-7 33 -96 -182 -122 -83 -66 10
-8 27 -87 -157 -106 -74 -62 5
-9 21 -77 -133 -90 -66 -58 0
-10 15 -68 -108 -73 -57 -55 -6
-11 10 -59 -83 -57 -49 -51 -11
-12 4 -50 -61 -41 -40 -47 -16
-11 0 -43 -52 -36 -37 -47 -17
-10 -5 -36 -43 -31 -35 -46 -18
-8 -9 -30 -33 -25 -32 -45 -19
-7 -13 -23 -24 -20 -29 -44 -20
-5 -17 -17 -16 -15 -26 -43 -22
-5 -18 -17 -16 -15 -27 -43 -23
-5 -19 -16 -15 -16 -28 -44 -24
-6 -20 -16 -15 -17 -29 -45 -26
-6 -21 -15 -14 -18 -30 -46 -27
-7 -23 -14 -13 -19 -31 -47 -29
-7 -23 -14 -13 -19 -31 -47 -29
-7 -23 -13 -13 -19 -31 -47 -29
-7 -22 -13 -13 -19 -31 -47 -29
-7 -22 -12 -13 -19 -31 -47 -29
-7 -21 -11 -12 -18 -30 -48 -29
-8 -21 -11 -12 -18 -30 -48 -29
-9 -21 -11 -12 -18 -30 -48 -30
-10 -21 -10 -12 -18 -31 -48 -30
-11 -21 -10 -12 -18 -31 -48 -31
-12 -20 -9 -12 -17 -32 -48 -32
-12 -21 -8 -11 -17 -32 -48 -32
-12 -22 -7 -10 -16 -32 -48 -32
-12 -24 -6 -9 -15 -31 -48 -31
-12 -25 -5 -8 -14 -31 -48 -31
-13 -27 -3 -6 -13 -30 -47 -30
-12 -26 -2 -6 -13 -30 -47 -30
-11 -25 0 -5 -13 -31 -47 -31
-10 -24 2 -4 -13 -31 -47 -31
-9 -23 3 -3 -13 -32 -47 -32
-8 -22 5 -2 -14 -33 -48 -33
-9 -22 6 0 -14 -33 -48 -33
-10 -22 8 2 -14 -33 -48 -33
-12 -22 9 3 -13 -34 -48 -33
-13 -22 11 5 -13 -34 -48 -33
-15 -23 13 7 -12 -35 -49 -33
-15 -24 15 8 -12 -35 -50 -34
-14 -25 17 9 -12 -36 -51 -36
-14 -26 19 10 -12 -37 -52 -37
-13 -27 21 11 -12 -38 -53 -39
-12 -28 23 13 -12 -39 -55 -41
-13 -27 24 13 -12 -40 -55 -41
-14 -26 25 12 -12 -41 -56 -41
-16 -25 26 12 -12 -43 -57 -41
-17 -24 27 11 -12 -44 -58 -41
-19 -22 29 10 -13 -45 -59 -41
-19 -21 29 8 -13 -46 -60 -43
-19 -20 29 5 -14 -47 -61 -44
-19 -19 29 3 -14 -49 -63 -45
-19 -18 29 0 -15 -50 -64 -46
-19 -17 28 -4 -16 -52 -66 -48
-19 -18 27 -4 -16 -52 -66 -48
-19 -19 26 -3 -16 -52 -66 -48
-20 -21 24 -2 -16 -53 -67 -49
-20 -22 23 0 -16 -53 -67 -49
-21 -24 21 1 -17 -54 -68 -50
-21 -24 17 1 -17 -54 -69 -50
-21 -24 13 1 -18 -55 -70 -51
-21 -24 9 0 -19 -56 -71 -52
-21 -24 5 0 -20 -57 -72 -53
-20 -25 1 -2 -21 -58 -73 -54
-20 -26 0 -2 -21 -58 -73 -54
-20 -27 -3 0 -21 -58 -73 -54
-20 -28 -5 0 -21 -58 -73 -53
-20 -29 -7 1 -21 -58 -73 -53
-21 -30 -9 2 -20 -58 -72 -52
-19 -30 -8 2 -20 -58 -72 -52
-17 -30 -7 3 -20 -58 -71 -51
-15 -29 -6 4 -20 -58 -70 -50
-13 -29 -5 5 -20 -58 -69 -49
-11 -28 -4 6 -20 -58 -68 -48
-11 -27 -4 5 -20 -58 -68 -47
-12 -26 -5 3 -21 -58 -67 -46
-12 -25 -5 2 -22 -58 -67 -45
-13 -24 -6 0 -23 -58 -66 -44
-14 -23 -7 -3 -24 -59 -65 -43
-13 -24 -7 -3 -24 -57 -63 -41
-11 -25 -7 -4 -24 -55 -60 -39
-10 -26 -8 -4 -24 -53 -57 -38
-8 -27 -8 -5 -24 -51 -54 -36
-6 -29 -9 -6 -23 -49 -51 -34
-5 -26 -8 -6 -21 -46 -48 -31
-3 -23 -7 -6 -19 -43 -44 -27
-2 -20 -6 -5 -17 -39 -40 -23
1 -17 -5 -5 -15 -36 -36 -19
3 -13 -4 -4 -12 -33 -32 -15
3 -13 -4 -4 -12 -32 -31 -15
2 -13 -4 -5 -11 -31 -30 -14
1 -13 -4 -5 -11 -29 -29 -14
0 -13 -4 -6 -10 -28 -28 -13
-2 -13 -4 -7 -9 -26 -26 -12
-2 -12 -3 -7 -8 -25 -24 -11
-2 -11 0 -6 -7 -23 -22 -10
-2 -9 1 -5 -6 -21 -20 -8
-2 -8 3 -4 -5 -19 -18 -7
-3 -6 5 -3 -3 -17 -16 -5
-4 -7 5 -3 -3 -17 -16 -5
-6 -8 6 -4 -3 -17 -16 -6
-7 -9 7 -4 -3 -17 -17 -7
-9 -10 8 -5 -3 -17 -17 -8
-11 -12 9 -6 -4 -18 -18 -9
-11 -12 9 -6 -4 -18 -18 -9
-11 -12 10 -5 -4 -18 -18 -9
-11 -12 10 -4 -4 -17 -18 -9
-11 -12 11 -3 -4 -17 -18 -9
-10 -11 12 -2 -4 -16 -17 -9
-8 -10 13 -2 -4 -16 -17 -9
-6 -8 15 -2 -3 -16 -17 -9
-4 -7 17 -2 -3 -15 -17 -9
-2 -5 19 -2 -2 -15 -17 -9
1 -3 21 -3 0 -14 -17 -10
-3 -3 21 -4 0 -14 -17 -10
-6 -4 21 -5 0 -15 -17 -10
-9 -5 22 -7 -2 -15 -17 -10
-12 -6 22 -8 -2 -16 -17 -10
-15 -7 23 -10 -3 -17 -18 -10
-16 -7 22 -10 -3 -17 -18 -10
-17 -7 21 -11 -3 -17 -18 -10
-18 -8 19 -11 -3 -17 -18 -10
-19 -8 18 -12 -3 -17 -18 -10
-21 -9 16 -13 -2 -16 -17 -11
-17 -6 16 -12 0 -15 -17 -11
-12 -3 17 -11 1 -14 -16 -11
-7 1 17 -9 3 -13 -16 -10
-2 4 18 -8 4 -12 -15 -10
4 7 19 -6 6 -10 -14 -9
2 6 19 -4 7 -9 -13 -8
0 5 18 -2 8 -7 -12 -7
-3 4 18 1 10 -5 -10 -6
-5 3 17 3 11 -3 -9 -5
-8 2 16 6 13 0 -7 -4
-9 3 15 6 13 1 -6 -4
-10 4 14 7 14 2 -5 -3
-11 5 13 7 14 3 -4 -3
-12 6 12 8 15 4 -3 -2
-13 7 11 9 16 5 -2 0
-12 6 8 8 16 5 -2 0
-10 4 5 7 15 5 -2 0
-8 3 1 5 14 5 -3 -2
-6 1 -3 4 13 5 -3 -2
-4 -2 -7 2 12 4 -4 -3
-3 1 -7 2 12 4 -4 -3
-3 2 -6 2 12 5 -3 -3
-2 4 -5 2 12 5 -2 -2
0 6 -4 2 12 6 0 -2
1 8 -4 2 12 6 0 -2
2 9 -3 3 12 7 1 0
2 8 -3 4 12 7 1 0
1 7 -3 4 12 6 1 0
1 6 -3 5 12 6 1 0
1 5 -3 5 12 6 1 0
-3 3 -2 6 11 5 0 0
-5 1 0 6 10 4 -2 0
-7 -2 0 5 9 3 -2 -2
-9 -4 1 5 8 2 -3 -2
-11 -6 1 5 7 2 -3 -2
-10 -6 2 4 6 1 -4 -3
-7 -4 3 4 6 1 -4 -3
-5 -3 4 4 5 1 -4 -3
-2 0 5 4 5 1 -4 -3
1 1 5 4 5 1 -4 -3
1 2 6 5 4 0 -5 -3
0 1 6 5 3 -2 -5 -3
-3 0 6 5 3 -3 -5 -4
-4 -2 6 5 2 -4 -5 -4
-5 -2 6 5 2 -4 -5 -4
-6 -3 7 5 1 -5 -6 -5
-6 -4 7 4 1 -5 -7 -5
-6 -5 7 4 1 -6 -8 -5
-6 -6 7 3 1 -6 -9 -5
-6 -6 7 3 1 -6 -9 -5
-7 -7 7 2 0 -7 -10 -6
-7 -7 8 2 0 -7 -10 -7
-7 -7 9 3 0 -8 -10 -7
-7 -7 10 3 0 -8 -10 -8
-7 -7 11 3 0 -8 -10 -8
-8 -8 12 3 -2 -9 -10 -9
-7 -8 11 2 -3 -9 -11 -9
-6 -7 10 1 -4 -10 -12 -9
-5 -7 9 0 -5 -10 -13 -9
-4 -7 9 -2 -6 -10 -13 -9
1 3 6 0 8 15 16 11
4 11 3 3 23 42 47 33
8 19 1 5 37 69 76 56
11 28 -3 8 53 96 107 77
14 36 -5 10 68 123 138 100
39 60 -16 13 93 180 210 153
65 84 -26 16 117 238 282 207
91 107 -37 19 143 297 354 262
116 131 -48 22 168 355 427 315
143 155 -59 25 193 412 500 369
138 146 -60 2 156 371 457 349
131 134 -61 -25 116 325 409 324
123 122 -62 -51 76 279 362 300
116 110 -63 -77 36 233 314 275
109 99 -64 -103 -4 187 267 251
82 77 -63 -127 -36 125 192 195
55 56 -61 -149 -69 62 117 140
27 34 -59 -172 -102 -2 43 84
0 13 -57 -193 -135 -65 -33 28
-28 -9 -55 -216 -168 -129 -108 -28
-31 -10 -53 -196 -154 -123 -106 -32
-33 -10 -51 -173 -139 -114 -98 -33
-35 -9 -49 -149 -122 -105 -91 -34
-37 -9 -47 -126 -106 -96 -83 -35
-38 -9 -46 -103 -90 -87 -76 -36
-35 -7 -38 -88 -79 -78 -71 -36
-29 -6 -30 -72 -69 -71 -66 -35
-24 -4 -23 -58 -58 -64 -61 -33
-19 -3 -16 -44 -48 -56 -57 -32
-14 -2 -9 -28 -37 -49 -52 -31
-13 -4 -6 -23 -34 -47 -51 -30
-14 -8 -4 -19 -31 -45 -50 -30
-15 -12 -2 -14 -28 -44 -49 -30
-16 -16 1 -9 -25 -41 -48 -30
-17 -20 3 -5 -23 -40 -48 -30
-18 -21 4 -4 -22 -39 -47 -31
-17 -21 3 -4 -22 -39 -47 -31
-17 -21 2 -5 -22 -40 -47 -32
-16 -21 1 -5 -22 -40 -47 -32
-16 -21 0 -5 -22 -40 -47 -32
-15 -21 -2 -6 -23 -41 -47 -33
-15 -21 -2 -5 -23 -41 -47 -33
-15 -20 0 -4 -23 -41 -47 -33
-15 -20 0 -3 -23 -41 -47 -33
-15 -20 0 -2 -23 -41 -47 -33
-15 -21 1 0 -23 -41 -47 -32
-15 -23 2 0 -24 -43 -48 -33
-15 -26 3 -2 -24 -44 -48 -33
-15 -28 4 -2 -25 -45 -49 -34
-15 -30 4 -2 -25 -45 -49 -34
-15 -31 5 -3 -26 -46 -50 -35
-15 -31 6 -2 -26 -46 -50 -35
-14 -31 7 -2 -26 -46 -50 -35
-14 -31 8 0 -26 -46 -50 -35
-14 -31 8 0 -26 -46 -50 -35
-13 -31 9 1 -25 -46 -50 -34
-13 -30 9 1 -25 -46 -50 -34
-13 -30 9 1 -25 -46 -51 -34
-13 -29 9 1 -25 -46 -51 -34
-13 -29 9 1 -25 -46 -51 -34
-14 -28 12 2 -25 -46 -52 -35
-14 -27 15 4 -23 -45 -51 -34
-14 -27 18 6 -22 -44 -50 -34
-14 -26 21 8 -20 -43 -49 -33
-14 -26 24 10 -19 -41 -48 -33
-14 -26 25 11 -19 -41 -48 -33
-14 -28 26 11 -20 -44 -50 -35
-14 -30 26 10 -22 -46 -52 -37
-14 -32 27 10 -23 -48 -54 -39
-14 -34 27 10 -24 -50 -55 -41
-13 -35 29 9 -25 -51 -56 -43
-14 -34 30 9 -25 -51 -56 -43
-15 -33 32 8 -25 -51 -56 -41
-16 -32 33 8 -25 -51 -56 -41
-16 -31 34 8 -25 -51 -56 -41
-18 -31 34 6 -25 -52 -58 -41
-21 -33 32 5 -26 -54 -60 -44
-23 -34 30 4 -27 -56 -62 -45
-25 -36 28 3 -28 -58 -64 -47
-27 -37 26 2 -29 -60 -66 -48
-25 -36 25 1 -30 -61 -67 -49
-21 -33 25 1 -30 -61 -67 -49
-17 -30 24 2 -30 -61 -67 -49
-14 -28 24 2 -30 -61 -67 -49
-10 -25 24 2 -30 -61 -67 -49
-11 -25 22 3 -29 -62 -67 -49
-13 -28 19 3 -30 -64 -67 -49
-16 -30 17 2 -31 -65 -68 -50
-19 -32 15 2 -32 -67 -68 -50
-21 -34 13 2 -33 -68 -68 -50
-21 -33 12 2 -34 -68 -69 -51
-19 -31 13 3 -33 -67 -69 -50
-17 -29 14 4 -32 -65 -69 -50
-15 -26 15 5 -31 -64 -69 -49
-14 -24 15 6 -30 -63 -69 -49
-13 -23 15 7 -30 -63 -69 -48
-13 -22 13 6 -31 -65 -70 -49
-14 -21 12 5 -32 -66 -72 -50
-14 -20 10 4 -33 -68 -73 -51
-14 -19 9 3 -34 -69 -74 -51
-15 -19 7 1 -35 -70 -75 -52
-16 -20 5 -2 -36 -71 -75 -52
-16 -22 3 -3 -37 -72 -75 -51
-17 -23 1 -5 -38 -73 -75 -51
-17 -24 -2 -6 -39 -73 -75 -51
-17 -25 -3 -7 -40 -74 -75 -49
-15 -24 -4 -8 -40 -73 -73 -47
-13 -24 -4 -9 -41 -72 -71 -46
-11 -23 -5 -10 -41 -71 -69 -44
-9 -23 -5 -11 -41 -71 -67 -43
-8 -22 -6 -12 -41 -68 -64 -41
-8 -22 -5 -12 -39 -66 -62 -40
-7 -22 -4 -11 -38 -63 -59 -39
-7 -22 -3 -11 -36 -60 -56 -38
-7 -22 -2 -11 -35 -58 -54 -37
-6 -23 1 -10 -33 -55 -51 -34
-6 -22 3 -9 -31 -53 -48 -31
-6 -21 4 -8 -29 -50 -45 -28
-6 -20 6 -7 -27 -47 -41 -26
-6 -19 7 -7 -25 -45 -38 -23
-7 -18 8 -6 -24 -44 -37 -22
-7 -18 9 -6 -24 -43 -36 -22
-7 -18 9 -5 -24 -41 -36 -22
-7 -18 10 -5 -24 -40 -35 -22
-7 -18 10 -5 -24 -39 -35 -22
-7 -19 13 -3 -23 -37 -33 -22
-6 -18 15 0 -20 -35 -32 -21
-4 -17 18 2 -18 -33 -30 -20
-3 -16 21 4 -16 -31 -28 -19
-2 -15 23 6 -14 -29 -27 -18
0 -15 25 7 -13 -28 -26 -17
1 -16 27 8 -13 -29 -26 -18
1 -18 29 8 -13 -29 -27 -18
2 -20 30 9 -13 -30 -27 -19
2 -21 32 9 -13 -30 -27 -19
1 -22 33 7 -13 -32 -28 -20
-4 -21 32 4 -14 -34 -29 -21
-7 -20 31 0 -15 -36 -30 -22
-11 -19 30 -4 -16 -37 -31 -23
-14 -19 30 -8 -17 -39 -31 -23
-15 -18 29 -9 -18 -39 -32 -24
-14 -18 30 -9 -18 -38 -32 -23
-13 -18 31 -9 -18 -37 -32 -22
-12 -18 32 -9 -18 -35 -32 -21
-12 -18 33 -9 -18 -34 -32 -20
-11 -19 34 -8 -18 -33 -33 -19
-12 -19 34 -8 -18 -33 -33 -19
-12 -19 33 -9 -18 -33 -33 -19
-13 -19 33 -9 -18 -33 -33 -19
-13 -19 33 -9 -18 -33 -33 -19
-14 -20 31 -10 -19 -34 -34 -20
-13 -21 30 -11 -20 -34 -34 -20
-12 -21 29 -11 -20 -34 -34 -20
-11 -22 27 -12 -21 -34 -34 -20
-11 -22 26 -12 -21 -34 -34 -20
-11 -23 25 -13 -22 -34 -34 -20
-12 -22 25 -12 -21 -33 -33 -19
-13 -21 25 -11 -20 -32 -32 -18
-14 -20 25 -10 -19 -30 -30 -17
-15 -20 25 -10 -18 -29 -29 -17
-15 -18 23 -8 -16 -26 -27 -16
-12 -17 22 -7 -13 -24 -25 -15
-10 -16 21 -5 -11 -21 -23 -14
-8 -14 20 -3 -9 -19 -22 -13
-6 -13 19 -2 -7 -16 -20 -13
-5 -11 17 0 -5 -14 -18 -12
-4 -10 15 0 -4 -12 -16 -11
-3 -9 13 0 -3 -10 -14 -10
-2 -8 11 0 0 -8 -12 -9
-2 -7 9 0 1 -6 -10 -8
0 -6 8 0 2 -4 -9 -7
-2 -6 6 1 3 -3 -8 -6
-2 -6 5 1 4 -2 -7 -5
-3 -6 4 2 5 1 -6 -4
-3 -6 3 2 5 2 -5 -3
-3 -6 2 3 6 3 -4 -2
-2 -6 2 4 6 3 -4 -3
0 -7 2 4 5 3 -4 -3
2 -7 2 5 5 3 -4 -4
3 -7 2 5 5 3 -4 -4
4 -8 3 7 4 2 -3 -5
4 -8 4 10 5 3 -2 -5
4 -9 5 12 6 4 -2 -5
4 -9 6 14 7 5 0 -5
4 -9 6 16 7 5 0 -5
5 -8 8 17 8 6 1 -3
8 -5 11 18 10 8 2 0
10 -2 13 19 11 9 3 2
13 2 16 20 12 10 4 4
15 5 18 20 13 11 5 6
16 6 19 21 15 13 7 7
15 6 18 22 16 14 8 8
14 7 17 23 17 16 10 8
13 7 16 24 19 18 12 9
12 7 16 24 20 19 13 9
17 18 13 31 38 50 47 32
25 31 9 39 61 88 89 60
33 46 6 48 84 126 130 89
42 59 3 56 106 163 171 116
50 72 -2 64 128 200 213 144
68 89 -9 62 141 250 271 188
90 105 -17 56 152 301 335 234
111 122 -25 51 163 352 397 281
133 139 -33 45 175 403 461 328
153 155 -41 39 186 454 523 376
142 147 -47 1 147 407 478 354
120 131 -52 -46 94 337 405 316
99 115 -56 -92 40 265 331 277
77 99 -61 -138 -13 193 259 239
57 84 -66 -185 -66 121 186 200
40 68 -68 -195 -90 72 129 159
26 53 -70 -196 -105 27 76 117
11 37 -73 -198 -120 -18 23 75
-4 22 -75 -200 -136 -62 -29 34
-19 8 -77 -201 -151 -107 -82 -8
-21 4 -70 -180 -140 -106 -88 -17
-19 5 -59 -150 -119 -94 -78 -18
-17 6 -48 -120 -99 -80 -70 -19
-16 7 -36 -91 -78 -67 -62 -20
-14 8 -25 -61 -58 -54 -53 -21
-13 6 -17 -48 -49 -49 -51 -22
-13 2 -11 -37 -43 -45 -50 -24
-13 -3 -4 -27 -36 -41 -49 -25
-13 -7 4 -17 -31 -38 -48 -26
-13 -12 10 -8 -25 -34 -47 -27
-13 -13 12 -5 -23 -33 -46 -28
-13 -14 12 -4 -23 -33 -45 -30
-13 -14 13 -3 -22 -33 -45 -31
-13 -15 13 -2 -22 -33 -44 -32
-13 -15 13 0 -22 -33 -44 -33
-13 -16 14 2 -20 -33 -43 -33
-12 -16 15 4 -19 -31 -43 -32
-11 -17 16 6 -17 -30 -41 -31
-10 -17 17 7 -15 -29 -41 -29
-10 -17 18 9 -14 -28 -41 -28
-10 -18 18 10 -13 -27 -40 -27
-12 -18 17 9 -13 -27 -39 -27
-14 -18 16 9 -13 -27 -39 -27
-15 -18 14 8 -13 -27 -38 -27
-17 -18 13 8 -13 -27 -38 -27
-18 -18 12 7 -14 -27 -37 -28
-17 -18 11 7 -14 -27 -37 -28
-17 -17 11 8 -13 -27 -37 -28
-16 -17 10 8 -13 -27 -37 -28
-16 -17 10 8 -13 -27 -37 -28
-15 -16 9 9 -12 -26 -36 -29
-13 -17 7 8 -12 -26 -36 -29
-12 -18 6 8 -12 -26 -36 -29
-11 -19 5 7 -12 -26 -36 -29
-10 -20 4 7 -12 -26 -36 -29
-10 -22 3 6 -12 -27 -36 -28
-12 -23 3 6 -13 -28 -36 -29
-15 -24 3 6 -13 -29 -37 -29
-17 -26 3 6 -14 -30 -37 -30
-19 -27 3 6 -14 -30 -37 -30
-18 -28 3 5 -15 -31 -38 -31
-16 -27 5 5 -15 -31 -38 -31
-13 -26 6 5 -15 -31 -38 -31
-10 -25 7 5 -15 -31 -38 -31
-7 -24 8 5 -15 -31 -38 -31
-6 -23 10 6 -15 -31 -39 -30
-6 -23 11 8 -14 -31 -39 -30
-6 -22 13 9 -12 -30 -38 -30
-6 -22 15 11 -10 -30 -38 -30
-6 -22 16 13 -9 -30 -38 -30
-6 -21 17 14 -8 -29 -37 -31
-7 -23 18 16 -7 -29 -39 -32
-9 -24 19 17 -7 -30 -40 -33
-11 -25 20 18 -6 -30 -41 -34
-12 -26 20 19 -6 -30 -43 -34
-13 -27 22 22 -5 -31 -44 -35
-13 -27 24 25 -3 -31 -44 -36
-13 -27 27 28 -2 -31 -45 -36
-13 -27 29 31 0 -31 -45 -37
-13 -27 31 35 1 -31 -45 -37
-12 -26 33 37 2 -31 -46 -38
-13 -26 35 38 3 -31 -46 -38
-13 -27 37 40 3 -31 -46 -38
-14 -27 39 42 4 -31 -46 -38
-14 -27 42 44 4 -31 -46 -38
-15 -28 43 44 5 -31 -47 -39
-15 -26 43 43 5 -32 -47 -39
-16 -25 42 42 4 -32 -48 -39
-16 -24 42 39 4 -33 -48 -39
-16 -23 42 38 4 -33 -48 -39
-17 -22 38 36 3 -34 -49 -40
-16 -22 35 33 1 -35 -49 -40
-15 -22 32 30 0 -35 -49 -40
-14 -22 29 28 -2 -36 -49 -40
-13 -22 26 25 -3 -36 -49 -40
-12 -21 24 23 -4 -37 -50 -39
-12 -20 22 21 -5 -37 -50 -38
-12 -20 19 20 -5 -38 -49 -37
-12 -19 17 18 -6 -38 -49 -35
-12 -19 15 16 -6 -38 -49 -34
-13 -18 14 14 -7 -39 -48 -33
-12 -18 13 13 -8 -39 -47 -31
-11 -18 12 11 -9 -39 -46 -30
-11 -18 12 10 -10 -39 -46 -29
-10 -18 11 8 -11 -39 -45 -28
-8 -16 10 7 -12 -38 -41 -26
-5 -14 8 6 -12 -35 -38 -23
-2 -12 7 6 -11 -32 -35 -20
1 -9 6 5 -11 -29 -32 -18
4 -7 5 5 -11 -26 -28 -15
4 -6 3 4 -10 -24 -26 -14
1 -6 2 3 -8 -23 -25 -13
-3 -6 1 2 -7 -22 -24 -13
-5 -6 -2 2 -6 -20 -22 -12
-8 -6 -3 1 -5 -19 -21 -12
-8 -6 -4 0 -4 -17 -19 -11
-7 -4 -5 0 -3 -15 -18 -10
-6 -3 -6 -2 -2 -14 -16 -9
-4 -2 -7 -2 -2 -12 -15 -8
-3 0 -8 -2 0 -10 -13 -7
-2 1 -9 -3 1 -9 -12 -6
-2 0 -10 -4 0 -8 -11 -6
-2 0 -11 -5 0 -8 -11 -6
-2 -2 -11 -5 -2 -7 -10 -6
-2 -2 -12 -6 -2 -7 -10 -6
-3 -3 -13 -7 -3 -6 -9 -5
-5 -4 -11 -6 0 -4 -7 -4
-7 -5 -10 -5 1 -3 -6 -3
-9 -5 -8 -5 2 -2 -5 -2
-11 -6 -7 -4 3 0 -4 0
-12 -7 -6 -3 4 1 -3 1
-11 -7 -6 -4 3 0 -4 0
-10 -7 -6 -5 2 -2 -5 -2
-9 -7 -6 -6 1 -2 -5 -2
-8 -7 -6 -7 0 -3 -6 -3
-6 -7 -7 -8 -2 -4 -7 -4
-4 -6 -6 -7 -2 -4 -7 -4
-2 -5 -6 -7 -2 -4 -7 -4
1 -5 -5 -6 -2 -4 -7 -4
3 -4 -5 -6 -2 -4 -7 -4
4 -3 -3 -4 -2 -5 -8 -5
3 -4 0 -3 1 -4 -8 -5
2 -4 2 0 2 -4 -7 -4
1 -5 5 1 4 -3 -7 -4
0 -5 7 3 6 -3 -7 -4
-2 -6 8 4 7 -2 -6 -3
-2 -6 8 5 7 -2 -6 -3
-2 -5 8 5 7 0 -6 -3
-2 -5 8 6 7 0 -6 -3
-2 -5 8 6 7 0 -6 -3
-4 -4 9 8 8 2 -5 -4
-7 -4 10 9 9 3 -4 -3
-9 -3 12 11 11 5 -2 -2
-11 -3 13 12 12 6 0 0
-14 -3 15 14 14 8 2 1
-14 -2 16 16 15 10 3 2
-11 0 17 17 17 11 4 2
-9 1 18 19 18 13 5 3
-7 1 19 20 20 14 6 3
-4 2 20 22 21 16 7 3
-3 3 21 23 22 17 8 4
-2 3 19 22 23 19 10 6
0 3 18 21 23 20 11 7
0 3 17 20 24 21 13 9
1 3 16 19 24 22 14 10
4 8 10 16 27 29 22 17
9 16 3 13 32 38 32 27
13 24 -6 10 36 48 44 36
17 32 -13 7 40 57 54 47
21 40 -21 4 45 66 65 56
38 56 -32 3 62 108 116 94
61 75 -45 5 85 167 188 144
84 94 -58 6 108 225 259 194
106 113 -70 8 132 283 329 244
129 132 -82 10 154 342 401 294
136 140 -90 -4 144 346 418 311
134 143 -93 -26 115 321 406 312
133 146 -96 -48 87 297 395 312
131 149 -99 -70 58 273 384 313
129 152 -102 -92 30 248 372 313
107 138 -96 -110 0 196 310 274
76 115 -86 -127 -33 130 223 214
46 92 -74 -143 -65 63 136 154
15 69 -64 -159 -98 -5 48 94
-16 46 -53 -176 -130 -71 -39 33
-27 35 -49 -170 -131 -89 -66 10
-26 32 -50 -150 -114 -79 -62 5
-24 28 -52 -131 -98 -70 -57 -2
-23 24 -53 -112 -82 -61 -52 -7
-22 21 -54 -93 -66 -52 -47 -13
-21 17 -51 -78 -56 -46 -44 -15
-20 14 -45 -66 -49 -41 -40 -15
-18 10 -37 -54 -40 -36 -37 -15
-17 7 -30 -41 -33 -31 -34 -15
-16 4 -24 -30 -26 -26 -31 -15
-15 -2 -20 -24 -23 -24 -30 -16
-14 -7 -18 -21 -22 -24 -31 -17
-12 -12 -16 -18 -21 -25 -32 -19
-11 -17 -14 -15 -20 -25 -33 -20
-10 -22 -12 -12 -19 -25 -34 -21
-10 -24 -11 -11 -18 -26 -35 -22
-11 -24 -11 -11 -18 -26 -35 -23
-13 -24 -12 -11 -19 -27 -36 -25
-15 -24 -12 -11 -19 -27 -37 -26
-17 -24 -12 -11 -19 -27 -37 -27
-17 -24 -12 -11 -19 -28 -38 -28
-16 -23 -10 -9 -18 -26 -38 -28
-14 -21 -7 -6 -16 -25 -37 -27
-12 -19 -5 -4 -14 -23 -36 -27
-10 -17 -2 0 -12 -22 -36 -27
-10 -17 0 1 -11 -21 -35 -26
-12 -18 0 1 -11 -21 -35 -26
-14 -20 1 1 -11 -22 -34 -27
-16 -21 2 1 -11 -23 -34 -28
-18 -23 2 1 -11 -23 -34 -28
-18 -24 4 2 -10 -24 -33 -29
-17 -23 5 4 -9 -24 -33 -29
-15 -22 7 6 -8 -24 -34 -29
-13 -21 8 8 -7 -24 -35 -29
-11 -20 10 10 -6 -24 -35 -29
-10 -19 11 11 -5 -23 -36 -29
-10 -19 11 11 -5 -24 -36 -29
-11 -20 12 11 -6 -26 -37 -30
-11 -21 13 11 -6 -27 -37 -31
-11 -21 13 11 -6 -28 -37 -31
-13 -22 14 12 -7 -29 -38 -32
-14 -22 15 12 -7 -29 -38 -32
-16 -23 16 13 -6 -29 -39 -33
-18 -24 16 14 -6 -29 -39 -34
-20 -24 17 14 -6 -29 -39 -34
-21 -25 18 15 -5 -29 -40 -35
-21 -25 18 15 -6 -30 -41 -36
-21 -26 18 15 -7 -31 -44 -37
-21 -27 18 15 -7 -32 -45 -37
-21 -27 18 15 -8 -33 -46 -38
-21 -28 18 15 -9 -34 -47 -39
-19 -27 18 16 -9 -34 -47 -39
-17 -25 19 18 -8 -34 -48 -39
-15 -24 20 20 -7 -34 -49 -39
-12 -23 20 22 -7 -34 -49 -39
-12 -22 21 23 -6 -35 -50 -40
-15 -24 21 23 -6 -37 -52 -41
-17 -25 20 23 -7 -39 -54 -43
-20 -27 20 23 -7 -40 -55 -43
-23 -28 20 23 -7 -43 -57 -44
-24 -29 18 24 -8 -44 -58 -45
-22 -29 16 25 -7 -43 -57 -45
-21 -29 13 27 -6 -40 -56 -45
-19 -29 11 29 -6 -39 -55 -45
-18 -29 8 31 -5 -38 -54 -45
-17 -30 4 30 -4 -37 -53 -44
-17 -30 -2 26 -5 -38 -53 -44
-16 -31 -8 23 -7 -39 -53 -44
-16 -32 -13 19 -8 -40 -53 -44
-16 -32 -18 15 -9 -41 -53 -44
-14 -31 -21 13 -9 -41 -53 -41
-11 -28 -19 15 -8 -38 -49 -37
-9 -24 -17 16 -6 -35 -46 -34
-6 -21 -16 18 -4 -32 -43 -31
-4 -17 -14 19 -2 -30 -39 -28
-2 -15 -13 19 0 -28 -37 -26
-4 -15 -15 16 -3 -29 -37 -26
-6 -16 -17 13 -5 -30 -37 -26
-7 -16 -18 10 -6 -31 -37 -26
-9 -16 -20 8 -8 -32 -37 -26
-10 -17 -21 6 -9 -33 -37 -24
-10 -15 -20 6 -9 -31 -35 -22
-10 -14 -19 6 -8 -29 -33 -20
-10 -12 -18 6 -7 -28 -31 -18
-10 -11 -17 6 -7 -26 -28 -16
-7 -9 -16 5 -6 -24 -26 -14
-4 -7 -16 5 -5 -21 -23 -13
1 -5 -16 4 -4 -18 -20 -11
4 -3 -16 4 -3 -15 -17 -9
8 1 -16 4 -2 -13 -14 -7
9 1 -16 3 0 -11 -12 -6
5 -2 -15 3 0 -9 -11 -5
2 -4 -14 4 1 -8 -9 -4
-2 -6 -13 4 1 -6 -8 -3
-5 -8 -12 4 1 -5 -7 -2
-7 -9 -11 5 2 -4 -6 0
-7 -8 -9 5 2 -3 -6 0
-6 -6 -8 5 3 -2 -5 0
-6 -5 -6 5 4 -2 -5 0
-6 -4 -5 5 4 0 -5 0
-5 -3 -4 5 5 1 -4 0
-5 -4 -4 5 5 1 -4 0
-6 -6 -3 5 5 1 -4 0
-7 -7 -3 5 5 1 -4 0
-7 -8 -3 5 5 1 -4 0
-8 -9 -2 5 4 0 -5 -2
-7 -9 -2 5 4 0 -5 -2
-6 -9 0 4 4 0 -5 -3
-6 -9 1 3 4 0 -5 -3
-5 -9 1 3 4 0 -5 -3
-4 -8 2 2 3 -2 -6 -4
-4 -7 3 2 4 -2 -6 -4
-3 -6 4 3 5 -2 -5 -3
-3 -6 5 4 5 -2 -5 -3
-3 -5 6 4 6 -2 -5 -3
-2 -4 7 5 7 0 -4 -2
-4 -5 7 5 7 0 -4 -2
-6 -7 7 5 7 0 -4 -3
-7 -8 7 5 7 0 -4 -3
-9 -9 7 5 7 0 -4 -3
-10 -10 6 7 7 2 -4 -4
-9 -9 7 9 9 4 -2 -4
-7 -8 9 11 11 6 1 -3
-6 -7 10 13 12 8 2 -2
-5 -6 11 15 14 10 4 -2
-4 -5 12 16 15 11 5 0
-4 -5 11 16 15 11 5 0
-4 -5 10 17 16 11 5 0
-4 -5 10 17 16 11 5 0
-4 -5 9 17 16 11 5 0
-4 -6 8 18 18 14 7 2
-4 -4 7 18 20 19 12 5
-4 -3 6 18 22 23 16 9
-4 -2 6 18 24 28 21 12
-4 1 5 18 27 32 25 15
6 12 2 20 40 57 52 32
20 29 -5 27 63 96 94 62
34 48 -10 33 86 136 136 92
50 66 -15 40 108 175 179 120
64 85 -20 48 131 214 221 150
80 102 -28 50 144 253 269 185
99 116 -38 46 152 290 322 226
117 132 -48 43 159 328 376 267
136 146 -58 38 167 366 429 308
153 161 -68 35 174 404 482 349
153 165 -74 13 151 387 471 351
134 160 -77 -24 103 321 405 319
115 154 -80 -62 54 257 340 287
97 149 -83 -100 5 191 273 256
78 143 -87 -138 -45 126 207 225
59 128 -89 -158 -75 73 149 186
39 105 -89 -163 -91 32 97 142
21 81 -89 -170 -107 -10 45 97
2 58 -89 -176 -122 -52 -8 53
-18 35 -89 -182 -138 -94 -60 8
-27 23 -87 -174 -137 -107 -81 -14
-27 19 -83 -152 -119 -95 -74 -17
-27 15 -80 -131 -102 -82 -67 -20
-27 12 -77 -109 -85 -69 -60 -22
-27 8 -74 -88 -67 -57 -54 -25
-26 5 -67 -72 -56 -50 -50 -27
-24 1 -58 -62 -50 -47 -48 -27
-22 -3 -49 -52 -44 -43 -47 -28
-20 -7 -38 -40 -37 -39 -46 -29
-18 -10 -29 -30 -31 -36 -44 -29
-17 -13 -24 -25 -28 -34 -43 -30
-17 -17 -24 -26 -30 -36 -43 -31
-17 -21 -25 -27 -31 -38 -44 -33
-17 -24 -26 -28 -32 -40 -45 -34
-17 -28 -26 -29 -34 -43 -45 -35
-16 -30 -27 -30 -35 -44 -46 -36
-18 -30 -27 -30 -35 -44 -48 -37
-20 -30 -27 -30 -35 -45 -49 -39
-21 -30 -27 -30 -35 -45 -50 -40
-23 -30 -27 -30 -35 -45 -52 -41
-24 -31 -26 -30 -36 -46 -53 -43
-22 -31 -26 -31 -36 -46 -53 -43
-21 -30 -26 -32 -36 -46 -53 -43
-20 -29 -26 -32 -36 -46 -53 -43
-18 -29 -26 -33 -36 -46 -53 -43
-17 -28 -25 -34 -35 -47 -54 -44
-17 -28 -25 -34 -35 -47 -55 -45
-17 -29 -25 -33 -36 -48 -56 -46
-17 -30 -25 -33 -36 -49 -56 -46
-17 -30 -25 -33 -36 -49 -57 -47
-18 -31 -24 -32 -37 -50 -58 -48
-18 -31 -22 -30 -36 -49 -57 -47
-18 -32 -20 -29 -35 -48 -56 -46
-18 -33 -18 -28 -34 -48 -56 -46
-18 -33 -16 -26 -33 -47 -55 -45
-17 -34 -15 -25 -32 -46 -54 -44
-17 -35 -15 -25 -32 -48 -56 -46
-18 -36 -14 -24 -33 -50 -57 -48
-19 -37 -14 -23 -33 -51 -58 -49
-19 -38 -14 -23 -33 -53 -60 -51
-20 -39 -13 -22 -34 -54 -61 -52
-20 -38 -12 -21 -34 -54 -61 -52
-20 -37 -11 -20 -34 -54 -62 -52
-20 -36 -11 -20 -34 -54 -63 -52
-20 -35 -10 -19 -34 -54 -63 -52
-20 -35 -9 -18 -34 -55 -64 -53
-20 -37 -8 -16 -33 -56 -65 -55
-21 -39 -7 -14 -32 -57 -66 -56
-22 -41 -6 -13 -32 -58 -67 -57
-22 -44 -5 -11 -31 -59 -68 -59
-23 -46 -4 -10 -30 -60 -69 -60
-23 -45 -3 -10 -30 -60 -70 -60
-23 -45 -3 -10 -30 -61 -71 -60
-23 -44 -2 -9 -30 -62 -72 -61
-23 -43 0 -9 -30 -62 -73 -61
-22 -41 1 -7 -30 -63 -74 -62
-23 -41 3 -5 -29 -64 -76 -64
-23 -41 5 -2 -29 -65 -77 -66
-24 -43 7 2 -28 -66 -79 -68
-25 -43 9 4 -27 -67 -81 -70
-26 -44 10 6 -26 -68 -82 -72
-25 -43 11 7 -26 -68 -82 -72
-24 -43 12 8 -26 -68 -82 -72
-23 -41 13 10 -26 -68 -83 -72
-22 -40 14 11 -26 -68 -83 -72
-21 -39 15 12 -25 -69 -85 -71
-23 -41 16 13 -25 -71 -86 -71
-25 -43 17 13 -25 -72 -86 -71
-27 -45 19 14 -26 -73 -87 -72
-29 -47 20 15 -26 -75 -88 -72
-29 -47 21 16 -27 -76 -89 -73
-27 -44 21 16 -27 -75 -88 -71
-24 -40 21 17 -27 -74 -87 -70
-21 -36 21 18 -27 -73 -86 -69
-19 -33 21 18 -27 -72 -85 -67
-17 -31 21 19 -27 -71 -82 -66
-18 -31 18 18 -26 -69 -80 -65
-19 -31 15 18 -25 -68 -77 -64
-20 -31 12 17 -23 -66 -74 -62
-21 -31 9 16 -22 -64 -72 -61
-22 -31 5 13 -21 -62 -69 -59
-20 -28 -2 6 -21 -60 -65 -55
-19 -25 -8 0 -21 -58 -62 -51
-18 -22 -14 -7 -22 -56 -58 -47
-16 -19 -19 -13 -22 -54 -54 -43
-15 -17 -24 -18 -23 -52 -52 -39
-13 -17 -28 -21 -24 -50 -50 -37
-11 -17 -32 -24 -25 -48 -48 -36
-9 -17 -36 -27 -26 -46 -46 -35
-7 -17 -39 -30 -27 -44 -44 -33
-6 -18 -43 -32 -28 -43 -40 -32
-6 -16 -43 -34 -28 -40 -38 -31
-6 -14 -43 -35 -28 -39 -36 -30
-7 -12 -43 -36 -27 -38 -34 -29
-7 -10 -43 -38 -27 -36 -32 -28
-8 -9 -44 -39 -26 -35 -30 -27
-8 -11 -43 -38 -25 -33 -30 -26
-9 -13 -41 -37 -25 -32 -30 -26
-10 -16 -40 -36 -24 -31 -29 -25
-10 -18 -39 -35 -23 -29 -29 -24
-11 -20 -38 -34 -22 -28 -28 -23
-11 -20 -38 -35 -22 -28 -28 -23
-11 -19 -37 -35 -22 -28 -28 -23
-11 -18 -36 -36 -22 -28 -27 -22
-11 -18 -36 -37 -22 -28 -27 -22
-10 -17 -35 -38 -23 -27 -26 -21
-10 -17 -35 -38 -23 -27 -26 -21
-10 -16 -35 -38 -23 -27 -26 -21
-10 -15 -34 -37 -23 -27 -26 -22
-10 -15 -34 -37 -23 -27 -26 -22
-9 -14 -33 -36 -22 -26 -27 -23
-9 -14 -32 -36 -21 -25 -26 -22
-9 -14 -31 -36 -21 -24 -25 -21
-8 -14 -30 -35 -20 -23 -23 -20
-8 -14 -29 -35 -19 -22 -22 -19
-7 -15 -28 -34 -18 -21 -21 -18
-7 -12 -28 -33 -18 -20 -21 -16
-7 -10 -28 -32 -17 -20 -21 -15
-7 -8 -27 -30 -16 -19 -20 -13
-7 -6 -27 -29 -16 -18 -20 -11
-7 -4 -26 -28 -15 -17 -19 -10
-8 -4 -25 -27 -13 -16 -18 -8
-9 -5 -24 -26 -12 -15 -17 -7
-11 -6 -22 -24 -11 -13 -16 -5
-12 -6 -21 -23 -9 -12 -15 -3
-13 -7 -20 -21 -8 -11 -14 -2
-13 -8 -18 -19 -6 -9 -13 1
-13 -9 -16 -17 -4 -8 -12 2
-13 -11 -14 -14 -2 -7 -11 3
-13 -12 -13 -12 0 -5 -10 5
-12 -12 -11 -10 2 -4 -9 6
-9 -9 -10 -8 3 -3 -8 7
-6 -6 -9 -6 4 -2 -7 8
-3 -3 -8 -4 5 0 -5 9
1 1 -7 -3 6 1 -4 10
3 3 -6 0 7 2 -3 11
2 3 -6 0 7 2 -3 11
1 3 -5 0 6 2 -4 11
-2 2 -4 0 5 1 -5 11
-3 2 -4 0 5 1 -5 11
-4 1 -3 0 4 0 -6 10
-4 1 0 2 5 1 -5 10
-5 0 1 3 5 2 -4 10
-6 -2 3 5 6 4 -3 10
-6 -2 5 7 7 5 -2 10
-7 -3 6 8 8 6 0 10
-7 -3 6 8 8 5 -2 8
-7 -4 6 8 8 4 -3 5
-7 -5 6 8 7 2 -4 2
-7 -5 6 8 7 1 -5 -2
-7 -6 6 6 6 0 -6 -4
-6 -5 5 4 5 -2 -6 -4
-4 -4 3 1 3 -2 -6 -4
-3 -2 2 -2 2 -3 -6 -4
0 0 0 -5 0 -4 -6 -4
1 1 -3 -7 -2 -5 -6 -5
0 0 -7 -9 -3 -6 -7 -7
-3 -2 -12 -11 -5 -7 -8 -10
-4 -3 -16 -13 -6 -8 -10 -12
-6 -4 -20 -15 -8 -9 -11 -15
-7 -5 -23 -17 -9 -10 -12 -17
-4 -5 -25 -17 -9 -10 -12 -18
-2 -5 -27 -17 -9 -10 -12 -20
2 -5 -29 -18 -9 -9 -11 -21
4 -5 -30 -18 -9 -9 -11 -23
6 -4 -32 -19 -9 -8 -10 -24
5 -5 -33 -19 -9 -8 -10 -24
4 -6 -33 -19 -9 -8 -10 -24
3 -7 -34 -19 -9 -8 -10 -24
2 -8 -35 -19 -9 -8 -10 -24
2 -6 -36 -18 -7 -4 -6 -20
6 4 -36 -16 3 9 4 -10
10 14 -36 -14 11 21 14 0
14 23 -35 -12 20 33 23 9
18 32 -35 -11 28 45 32 19
28 45 -37 -7 45 75 67 45
48 62 -48 1 71 133 139 94
67 78 -57 8 99 190 211 143
86 96 -66 15 126 247 282 192
105 112 -76 21 153 306 354 241
119 126 -85 17 165 342 403 278
127 133 -91 -6 154 347 417 296
134 140 -98 -29 143 352 431 314
141 147 -104 -53 132 357 444 331
148 154 -111 -76 120 362 457 349
143 149 -113 -100 95 334 429 336
114 120 -107 -127 46 252 332 272
86 93 -101 -152 -4 171 236 209
57 64 -94 -179 -53 89 140 145
28 35 -88 -204 -102 7 43 81
9 17 -83 -216 -133 -49 -22 35
2 12 -83 -202 -133 -62 -37 19
-6 8 -85 -189 -134 -75 -52 3
-13 3 -86 -176 -135 -89 -67 -14
-19 -3 -86 -162 -135 -102 -82 -31
-24 -6 -82 -147 -129 -105 -89 -41
-25 -6 -72 -126 -109 -92 -79 -40
-26 -6 -61 -104 -91 -78 -70 -39
-28 -7 -51 -83 -71 -65 -60 -37
-29 -7 -39 -62 -52 -52 -51 -36
-29 -8 -30 -47 -38 -43 -45 -35
-27 -9 -25 -38 -34 -40 -44 -34
-24 -9 -19 -30 -30 -38 -43 -34
-21 -10 -14 -23 -25 -36 -40 -33
-18 -11 -8 -15 -21 -34 -39 -32
-16 -12 -4 -10 -18 -32 -38 -31
-17 -14 -2 -7 -17 -32 -38 -31
-18 -16 1 -5 -16 -31 -38 -31
-19 -18 3 -3 -15 -30 -38 -31
-20 -20 5 0 -14 -30 -38 -31
-20 -22 7 2 -13 -29 -38 -32
-16 -21 8 3 -12 -28 -37 -32
-12 -20 9 4 -12 -28 -37 -32
-9 -18 10 5 -11 -27 -36 -32
-5 -17 11 6 -10 -26 -35 -32
-2 -16 12 7 -9 -25 -34 -32
-3 -16 13 8 -8 -25 -34 -31
-3 -16 14 9 -7 -25 -34 -30
-4 -15 16 10 -6 -24 -33 -29
-5 -15 17 11 -5 -24 -33 -28
-6 -14 18 12 -4 -23 -32 -27
-6 -15 17 11 -5 -24 -33 -28
-7 -16 17 10 -5 -25 -34 -29
-8 -18 16 9 -6 -26 -35 -30
-8 -19 15 8 -7 -27 -36 -31
-9 -20 14 7 -8 -28 -37 -32
-10 -21 14 7 -8 -28 -37 -32
-11 -21 14 7 -8 -28 -37 -32
-13 -22 14 7 -8 -28 -36 -32
-14 -23 14 7 -8 -28 -36 -32
-15 -24 14 6 -9 -28 -35 -31
-15 -24 14 6 -9 -28 -35 -31
-15 -24 14 6 -9 -28 -35 -31
-14 -23 13 6 -9 -28 -35 -30
-14 -23 13 6 -9 -28 -35 -30
-13 -22 12 5 -9 -28 -34 -29
-14 -23 10 5 -10 -28 -35 -29
-14 -24 9 5 -10 -29 -35 -29
-15 -26 7 5 -11 -30 -36 -29
-16 -27 6 5 -12 -30 -37 -29
-17 -28 4 4 -13 -31 -38 -30
-15 -26 3 4 -13 -31 -38 -30
-14 -24 2 4 -13 -31 -38 -30
-12 -22 1 4 -13 -31 -39 -31
-11 -20 0 4 -13 -31 -39 -31
-9 -18 -2 3 -12 -32 -40 -32
-8 -18 0 4 -12 -33 -40 -33
-7 -18 0 6 -12 -33 -41 -33
-5 -19 1 7 -11 -34 -43 -34
-4 -19 2 9 -11 -35 -43 -35
-3 -20 3 10 -10 -36 -44 -36
-4 -22 3 11 -10 -36 -45 -37
-4 -23 4 13 -10 -37 -47 -38
-5 -25 5 14 -10 -38 -48 -39
-6 -26 5 16 -10 -38 -50 -40
-7 -28 6 17 -10 -39 -51 -41
-7 -26 8 19 -9 -39 -51 -41
-7 -24 9 21 -8 -39 -51 -41
-7 -22 11 23 -7 -39 -51 -41
-7 -20 12 25 -6 -39 -51 -41
-8 -18 14 27 -5 -38 -50 -40
-11 -20 16 28 -5 -38 -50 -40
-14 -22 18 29 -4 -38 -50 -40
-18 -24 19 30 -4 -38 -50 -40
-21 -26 21 32 -3 -38 -50 -40
-23 -28 23 33 -2 -38 -51 -41
-20 -26 24 33 -2 -38 -51 -41
-17 -24 24 33 -2 -39 -51 -41
-14 -23 25 33 -3 -39 -52 -40
