I II V1 V2 V3 V4 V5 V6
-2 -8 3 5 -6 -6 -5 -11
-2 -8 3 5 -6 -6 -5 -10
-2 -8 2 5 -6 -6 -5 -9
-2 -8 1 5 -6 -6 -4 -8
-2 -8 0 5 -6 -6 -4 -7
-2 -8 0 5 -6 -6 -4 -6
-2 -7 -2 5 -5 -5 -3 -5
-2 -6 0 6 -4 -5 -3 -4
-2 -5 1 6 -4 -5 -2 -4
-2 -4 2 7 -3 -5 -2 -3
-2 -3 2 7 -3 -5 -2 -3
-2 -2 3 8 -2 -5 0 -2
-2 -2 3 7 -3 -5 -2 -3
-2 -3 3 7 -4 -5 -3 -4
-2 -3 3 6 -5 -5 -4 -5
-2 -3 3 6 -5 -5 -5 -5
0 -5 2 5 -6 -6 -6 -6
1 -6 1 5 -7 -7 -6 -6
1 -7 1 5 -8 -8 -6 -6
2 -8 0 5 -9 -9 -6 -6
2 -9 0 5 -9 -9 -6 -6
2 -10 0 4 -10 -10 -7 -6
0 -10 2 4 -10 -10 -7 -6
-2 -10 3 4 -9 -10 -7 -6
-4 -10 5 4 -9 -10 -7 -6
-5 -10 6 4 -9 -10 -7 -6
-6 -9 7 4 -8 -11 -8 -6
-6 -7 6 4 -8 -11 -8 -5
-6 -6 5 4 -8 -11 -7 -4
-6 -4 4 4 -8 -11 -7 -3
-6 -3 4 4 -8 -11 -7 -3
-6 -4 3 4 -9 -11 -7 -3
-6 -6 2 3 -10 -12 -8 -4
-6 -8 1 2 -11 -13 -10 -5
-6 -10 0 1 -12 -14 -11 -6
-6 -12 -2 1 -13 -15 -12 -7
-6 -12 -2 0 -13 -16 -13 -8
-5 -10 1 1 -12 -15 -12 -7
-4 -9 2 2 -11 -15 -11 -7
-3 -7 4 3 -10 -14 -10 -6
-2 -6 5 3 -9 -14 -9 -6
-3 -4 6 4 -8 -13 -8 -5
-5 -3 6 4 -8 -13 -8 -4
-8 0 6 4 -8 -12 -8 -3
-10 1 6 4 -8 -12 -8 -2
-12 2 6 4 -8 -12 -8 -2
-12 3 7 5 -8 -11 -8 0
-10 3 7 4 -9 -12 -9 -2
-9 3 8 3 -9 -13 -9 -3
-7 3 8 2 -10 -14 -10 -4
-6 3 8 2 -10 -14 -10 -4
-5 4 9 1 -11 -15 -11 -4
-6 4 9 1 -10 -14 -10 -3
-7 5 9 2 -9 -14 -9 -2
-8 5 9 2 -8 -13 -8 0
-8 5 9 2 -8 -13 -8 1
-7 7 8 2 -7 -13 -8 2
-4 9 7 1 -8 -14 -9 1
0 11 6 0 -9 -15 -10 0
3 13 5 -2 -10 -16 -11 -2
6 15 4 -3 -11 -17 -12 -3
4 14 0 -5 -12 -18 -13 -4
-2 11 -5 -6 -13 -19 -13 -5
-6 9 -8 -8 -14 -19 -14 -5
-10 6 -12 -9 -15 -20 -14 -6
-14 4 -15 -10 -16 -20 -14 -6
-15 3 -17 -11 -17 -21 -15 -7
-15 3 -18 -11 -17 -21 -14 -6
-15 2 -20 -11 -16 -20 -13 -5
-15 2 -21 -11 -16 -20 -12 -4
-15 2 -22 -11 -16 -20 -12 -4
-13 1 -21 -10 -15 -19 -11 -2
-11 0 -19 -9 -15 -18 -10 0
-9 0 -17 -8 -14 -17 -9 1
-7 -2 -15 -7 -14 -16 -8 2
-6 -2 -13 -6 -14 -16 -8 3
-5 -3 -12 -5 -13 -15 -7 4
-4 -3 -12 -6 -14 -16 -8 3
-3 -3 -12 -7 -14 -17 -9 2
-2 -3 -12 -8 -15 -18 -10 1
0 -3 -12 -8 -15 -18 -10 0
0 -4 -11 -9 -16 -19 -11 -2
-2 -4 -10 -8 -15 -19 -11 -2
-3 -4 -9 -7 -14 -18 -10 -2
-4 -4 -8 -6 -13 -18 -10 -2
-5 -4 -7 -5 -13 -18 -10 -2
-6 -4 -5 -4 -12 -18 -10 -2
-6 -5 -4 -4 -13 -19 -12 -4
-6 -5 -2 -5 -14 -21 -13 -6
-6 -6 0 -5 -15 -22 -15 -8
-6 -6 1 -5 -15 -23 -16 -9
-7 -7 3 -5 -15 -23 -17 -10
-9 -7 4 -4 -13 -22 -17 -9
-11 -7 5 -3 -12 -21 -17 -9
-13 -7 6 -2 -10 -20 -17 -8
-15 -7 7 0 -9 -19 -17 -8
-14 -7 8 1 -8 -18 -16 -7
-11 -7 7 0 -9 -19 -16 -8
-8 -6 6 -2 -10 -20 -17 -9
-5 -6 5 -3 -11 -21 -17 -10
-2 -6 5 -4 -12 -22 -17 -10
-3 -5 4 -5 -13 -23 -18 -11
-5 -6 5 -4 -12 -22 -18 -12
-8 -7 5 -3 -12 -22 -18 -12
-10 -8 6 -2 -11 -21 -18 -13
-12 -8 6 -2 -11 -21 -18 -13
-13 -9 7 0 -10 -20 -16 -13
-14 -9 7 0 -9 -19 -15 -11
-14 -9 7 1 -9 -18 -14 -9
-15 -9 7 1 -8 -17 -13 -7
-15 -9 7 1 -8 -16 -12 -6
-16 -8 8 2 -7 -15 -11 -5
-15 -7 7 2 -7 -15 -11 -5
-14 -7 6 2 -7 -16 -12 -6
-13 -6 5 2 -7 -16 -12 -6
-12 -6 5 2 -7 -16 -12 -6
-11 -5 4 2 -7 -17 -13 -7
-11 -5 5 2 -7 -17 -13 -7
-11 -4 5 2 -6 -17 -13 -7
-11 -4 6 2 -6 -17 -13 -7
-11 -4 6 2 -6 -17 -13 -7
-14 -4 15 14 -2 -19 -17 -10
-18 -6 25 27 3 -21 -20 -14
-23 -8 34 40 8 -23 -24 -17
-27 -10 45 54 12 -26 -28 -20
-31 -11 55 67 16 -28 -31 -23
-30 -13 68 103 39 -22 -32 -25
-26 -14 82 142 64 -13 -32 -27
-23 -15 98 181 90 -4 -31 -29
-20 -16 112 220 114 6 -31 -31
-17 -17 127 259 140 15 -31 -33
-13 -2 112 253 169 42 -13 -22
-9 17 94 239 198 71 6 -8
-5 35 75 227 228 101 25 7
0 54 57 215 258 131 45 21
4 73 37 202 286 160 64 35
20 103 2 149 309 220 120 73
37 136 -37 92 329 283 180 114
55 168 -76 34 350 346 240 155
72 200 -114 -23 370 409 300 195
91 232 -153 -80 391 473 360 236
104 251 -194 -136 397 548 432 278
117 267 -234 -191 401 625 506 321
131 283 -275 -246 404 701 579 363
144 300 -315 -302 408 779 652 405
157 317 -356 -356 412 856 726 448
146 320 -368 -394 360 843 722 450
131 322 -378 -429 299 817 707 447
115 323 -387 -465 238 792 692 444
100 325 -396 -499 177 766 677 440
85 326 -404 -534 116 740 661 437
71 298 -381 -514 60 619 565 386
58 263 -351 -484 4 487 457 328
45 228 -322 -455 -52 354 349 271
31 193 -293 -426 -107 221 241 214
18 159 -263 -396 -163 89 134 156
9 130 -232 -358 -175 30 81 120
2 101 -201 -318 -180 -16 38 87
-7 71 -171 -279 -185 -63 -5 53
-15 43 -140 -239 -190 -110 -49 19
-23 14 -109 -199 -195 -157 -92 -14
-25 1 -92 -173 -180 -152 -94 -21
-26 -11 -76 -147 -159 -139 -88 -24
-27 -21 -61 -121 -140 -126 -81 -28
-28 -32 -46 -97 -119 -111 -76 -31
-29 -44 -30 -71 -100 -98 -70 -34
-28 -46 -22 -57 -87 -90 -66 -34
-26 -46 -17 -44 -74 -82 -61 -33
-23 -46 -11 -31 -63 -74 -57 -31
-20 -46 -5 -19 -51 -67 -52 -29
-18 -46 2 -6 -38 -60 -48 -28
-17 -41 6 2 -31 -54 -44 -25
-17 -36 10 8 -25 -50 -39 -23
-17 -31 14 14 -19 -45 -36 -20
-17 -25 18 20 -13 -39 -32 -17
-17 -20 22 27 -6 -34 -28 -15
-16 -17 23 29 -4 -33 -27 -14
-15 -15 24 30 -3 -34 -28 -14
-14 -12 25 32 -2 -34 -28 -13
-13 -9 26 33 0 -35 -29 -13
-12 -7 26 34 1 -35 -29 -13
-11 -6 27 35 2 -36 -30 -12
-10 -6 26 35 2 -36 -30 -12
-9 -7 26 35 1 -36 -30 -13
-8 -7 25 35 1 -36 -30 -13
-8 -7 25 35 1 -36 -30 -13
-7 -8 24 34 0 -35 -29 -14
-8 -9 23 34 1 -35 -29 -14
-9 -9 23 34 2 -35 -29 -14
-10 -10 22 34 3 -35 -29 -14
-11 -10 22 34 3 -35 -29 -14
-12 -11 21 35 4 -35 -28 -13
-13 -11 22 36 5 -34 -27 -12
-13 -10 23 37 6 -33 -26 -12
-14 -10 24 39 7 -32 -25 -11
-14 -10 25 40 7 -31 -24 -11
-15 -9 26 42 8 -30 -23 -10
-15 -10 26 42 8 -30 -23 -11
-15 -10 26 42 8 -31 -24 -11
-15 -11 26 42 8 -31 -24 -12
-15 -11 26 42 8 -31 -24 -12
-15 -11 27 43 7 -32 -25 -13
-15 -10 28 44 8 -31 -25 -13
-15 -9 29 45 9 -31 -25 -13
-15 -8 30 46 10 -30 -25 -13
-15 -7 30 47 10 -30 -25 -13
-16 -7 31 48 11 -29 -24 -12
-17 -9 31 49 11 -29 -24 -12
-17 -11 31 49 12 -29 -24 -12
-18 -12 31 50 12 -29 -24 -12
-18 -14 31 50 12 -29 -24 -12
-19 -15 30 51 13 -29 -24 -12
-17 -15 30 51 12 -30 -25 -12
-16 -14 29 51 11 -31 -26 -13
-15 -14 29 51 10 -32 -27 -13
-14 -14 29 51 9 -32 -27 -13
-12 -13 28 50 8 -33 -28 -14
-9 -14 29 51 9 -33 -28 -14
-7 -14 29 51 9 -33 -28 -14
-5 -15 30 52 10 -33 -28 -14
-3 -15 30 52 10 -33 -28 -14
-4 -16 31 53 11 -32 -29 -13
-6 -16 31 53 11 -32 -29 -13
-9 -16 31 54 11 -32 -29 -14
-11 -16 31 54 11 -32 -29 -14
-14 -16 31 54 11 -32 -29 -14
-15 -16 31 56 11 -33 -29 -14
-16 -16 32 57 11 -33 -28 -13
-17 -16 33 58 12 -33 -28 -11
-18 -16 34 60 12 -33 -27 -9
-19 -16 35 61 12 -33 -27 -8
-19 -17 37 62 13 -34 -26 -7
-18 -16 38 62 11 -34 -27 -8
-17 -15 39 63 10 -33 -28 -8
-15 -14 42 63 9 -33 -29 -9
-14 -13 43 63 8 -33 -29 -9
-13 -12 44 64 7 -33 -30 -10
-14 -12 46 64 6 -34 -31 -11
-15 -13 47 64 6 -36 -31 -12
-16 -13 48 64 5 -38 -32 -13
-16 -13 49 64 5 -39 -32 -14
-17 -15 50 64 3 -41 -34 -15
-18 -16 50 63 1 -44 -35 -16
-18 -18 50 63 -3 -47 -36 -16
-19 -20 50 62 -5 -49 -38 -17
-19 -21 50 62 -7 -51 -39 -17
-20 -22 52 61 -9 -53 -40 -19
-19 -24 54 61 -10 -54 -43 -20
-18 -25 56 61 -11 -56 -44 -21
-17 -26 57 61 -13 -58 -45 -23
-16 -27 59 61 -14 -59 -46 -24
-15 -28 60 59 -18 -62 -48 -25
-14 -30 60 57 -21 -65 -50 -27
-13 -31 61 55 -25 -67 -53 -28
-12 -32 61 53 -29 -70 -55 -29
-12 -33 61 51 -33 -73 -57 -30
-12 -35 62 50 -35 -75 -59 -32
-14 -37 63 49 -37 -78 -61 -34
-16 -40 63 48 -40 -80 -63 -36
-17 -43 64 47 -43 -83 -64 -38
-19 -45 64 47 -45 -86 -66 -40
-21 -46 66 45 -47 -87 -67 -41
-22 -47 68 44 -48 -88 -67 -41
-24 -48 70 42 -49 -88 -68 -41
-26 -49 71 39 -51 -89 -68 -41
-27 -50 73 38 -52 -89 -68 -41
-28 -51 73 36 -55 -91 -69 -41
-27 -51 71 34 -58 -92 -70 -41
-26 -51 69 32 -60 -93 -71 -41
-25 -51 67 30 -63 -95 -72 -41
-24 -51 65 28 -66 -96 -72 -41
-23 -53 64 26 -68 -98 -73 -41
-23 -54 64 25 -69 -99 -74 -43
-23 -55 65 23 -70 -101 -75 -43
-23 -57 65 21 -72 -103 -76 -44
-23 -58 65 20 -73 -104 -77 -44
-23 -59 66 19 -74 -105 -78 -45
-23 -58 64 18 -74 -105 -78 -45
-23 -57 63 17 -75 -105 -78 -45
-23 -56 62 16 -75 -105 -78 -45
-23 -55 61 15 -75 -105 -78 -45
-24 -53 60 14 -74 -104 -76 -41
-23 -51 60 14 -71 -100 -72 -37
-23 -49 60 14 -68 -96 -69 -33
-22 -47 60 14 -64 -92 -65 -29
-22 -45 60 14 -61 -88 -61 -25
-22 -44 59 14 -60 -85 -59 -24
-23 -41 57 14 -58 -82 -58 -23
-24 -40 54 14 -57 -79 -57 -23
-26 -39 52 14 -56 -77 -55 -22
-27 -38 50 14 -55 -74 -54 -22
-26 -36 47 13 -53 -72 -52 -21
-24 -35 44 11 -52 -69 -49 -20
-21 -33 40 10 -50 -66 -46 -20
-18 -31 36 9 -48 -64 -44 -19
-15 -30 33 8 -47 -61 -40 -19
-14 -27 32 7 -44 -59 -38 -17
-12 -23 31 7 -39 -57 -36 -14
-11 -20 31 7 -36 -54 -34 -12
-10 -16 30 7 -32 -52 -32 -9
-9 -12 30 7 -28 -50 -30 -7
-8 -10 28 7 -26 -48 -28 -6
-8 -8 26 7 -25 -46 -26 -5
-8 -7 24 6 -23 -44 -25 -4
-8 -5 22 6 -21 -41 -23 -3
-8 -3 20 6 -20 -39 -21 -2
-9 -2 19 5 -18 -37 -19 1
-11 -2 18 5 -16 -35 -17 3
-12 0 18 6 -15 -34 -16 6
-14 0 17 6 -13 -32 -14 8
-16 0 17 6 -11 -30 -12 10
-16 1 16 7 -10 -29 -11 11
-14 0 15 7 -10 -29 -11 10
-11 -2 14 7 -10 -28 -11 9
-9 -2 13 7 -10 -28 -11 9
-7 -3 12 7 -10 -28 -11 8
-4 -2 11 6 -10 -27 -11 7
0 2 11 6 -10 -27 -11 6
3 5 10 6 -10 -27 -11 6
6 8 10 6 -10 -27 -11 5
10 12 10 6 -10 -27 -11 5
8 13 9 5 -8 -27 -11 5
4 12 10 7 -7 -25 -9 6
-2 11 11 8 -6 -23 -8 7
-6 11 12 9 -4 -21 -6 9
-10 10 13 10 -3 -19 -4 10
-11 9 14 11 -2 -18 -3 11
-10 8 14 11 0 -17 -3 11
-9 8 13 11 1 -17 -2 11
-7 7 13 11 2 -16 -2 11
-6 7 13 11 3 -16 -2 11
-4 6 11 12 4 -15 0 9
-3 7 10 11 3 -15 -2 8
-2 7 9 10 2 -16 -2 7
1 8 7 9 2 -16 -3 5
2 8 6 8 1 -16 -3 4
2 9 5 8 1 -16 -3 4
1 9 6 10 2 -13 0 6
0 9 7 12 4 -11 2 9
-3 9 8 14 5 -9 4 11
-4 9 9 16 7 -6 6 13
-5 9 10 17 8 -5 7 14
-4 8 8 16 7 -5 6 13
-3 7 7 15 7 -5 6 12
-3 7 6 14 6 -5 5 11
-2 6 5 13 6 -5 5 10
0 5 4 12 5 -5 4 9
0 6 5 13 6 -4 5 9
0 7 6 13 7 -3 6 9
0 7 6 14 7 -3 6 9
0 8 7 14 8 -2 7 9
2 9 8 15 9 0 8 10
3 9 7 15 9 0 8 11
5 9 7 14 9 1 9 11
6 9 6 14 9 1 9 12
8 9 6 14 9 1 9 12
9 9 5 13 8 2 10 12
9 8 4 12 8 2 9 11
9 7 4 12 8 1 9 10
9 7 3 11 8 1 8 8
9 6 3 11 8 1 8 7
9 5 2 10 7 0 7 6
9 5 2 10 7 0 7 5
9 5 2 10 7 0 7 5
9 5 2 10 7 0 7 4
9 5 2 10 7 0 7 4
8 4 3 10 6 -2 6 3
7 4 3 10 6 -2 6 3
6 4 4 10 6 -2 6 4
5 4 4 10 6 -2 6 4
4 4 4 10 6 -2 6 4
4 4 5 11 7 0 6 5
6 4 3 10 6 0 6 5
8 4 2 9 5 -2 6 5
11 4 1 9 5 -2 6 5
13 4 0 8 4 -2 6 5
14 3 -2 7 3 -3 5 4
13 4 0 7 3 -3 5 4
13 5 0 7 3 -4 5 3
12 5 1 7 3 -4 5 3
12 6 1 7 3 -4 5 3
11 6 2 7 3 -5 4 2
10 5 1 6 2 -6 3 1
10 3 1 6 1 -7 2 0
9 2 0 5 0 -8 1 -2
9 0 0 5 -2 -9 0 -3
8 0 -2 4 -3 -10 -2 -3
6 2 0 5 0 -8 1 -2
5 4 1 6 1 -7 2 1
4 7 1 7 2 -6 3 2
3 9 2 8 3 -5 4 4
3 9 3 9 3 -5 5 4
5 8 2 7 1 -7 3 2
6 6 1 6 0 -8 2 0
8 5 1 4 -3 -10 0 -3
10 3 0 3 -5 -12 -2 -5
11 2 -2 2 -6 -13 -3 -6
11 2 -2 2 -6 -13 -3 -6
11 2 -3 1 -7 -14 -4 -6
11 2 -3 1 -7 -14 -4 -6
11 2 -3 1 -7 -14 -4 -6
10 2 -4 0 -8 -15 -5 -7
8 3 -3 1 -7 -14 -4 -5
7 4 -3 2 -6 -13 -3 -4
5 5 -2 2 -5 -12 -2 -2
3 6 -2 3 -4 -11 0 0
3 7 0 4 -3 -11 0 0
6 5 -2 2 -4 -12 -4 -4
8 4 -3 1 -5 -14 -6 -6
10 3 -3 -2 -6 -15 -8 -9
13 2 -4 -3 -7 -17 -11 -12
14 1 -5 -4 -8 -18 -12 -13
12 2 -5 -3 -8 -18 -12 -13
11 2 -5 -3 -8 -18 -12 -13
10 3 -5 -2 -8 -18 -12 -13
9 3 -5 -2 -8 -18 -12 -13
9 5 -4 0 -8 -17 -11 -13
12 7 -2 1 -7 -17 -11 -12
15 10 0 2 -6 -16 -10 -10
18 12 2 2 -6 -15 -9 -9
21 15 3 3 -5 -15 -9 -8
20 16 5 4 -4 -14 -8 -7
17 16 6 5 -3 -13 -7 -5
14 16 8 6 -2 -12 -6 -4
11 16 10 7 -2 -11 -5 -2
8 16 12 8 0 -10 -4 0
7 17 12 9 1 -9 -3 0
8 16 11 7 0 -10 -5 -3
10 14 9 6 -2 -12 -6 -5
11 13 7 4 -3 -13 -8 -7
13 12 5 3 -4 -14 -9 -9
13 11 4 2 -5 -15 -10 -10
11 11 4 2 -5 -15 -10 -9
9 11 5 2 -5 -14 -9 -8
6 11 6 2 -5 -14 -8 -7
4 11 6 2 -5 -14 -8 -6
4 10 5 2 -4 -13 -7 -5
5 10 2 1 -5 -13 -7 -4
7 11 -2 0 -6 -14 -8 -3
8 12 -5 0 -6 -15 -9 -3
10 12 -8 -2 -7 -15 -9 -2
11 13 -11 -3 -8 -16 -10 0
11 12 -13 -4 -9 -16 -10 0
12 11 -16 -6 -10 -16 -9 0
13 11 -18 -7 -10 -16 -9 0
13 10 -21 -8 -11 -16 -9 0
15 9 -22 -9 -12 -17 -8 0
17 9 -22 -9 -12 -17 -8 -2
19 8 -22 -9 -12 -18 -8 -4
21 7 -22 -9 -12 -19 -8 -5
23 7 -22 -9 -12 -19 -8 -6
22 5 -22 -10 -12 -20 -9 -7
19 4 -21 -10 -12 -20 -9 -6
15 2 -19 -9 -13 -20 -9 -5
11 1 -18 -8 -13 -20 -9 -5
8 -2 -17 -8 -13 -20 -9 -4
7 -3 -16 -7 -14 -20 -10 -3
10 -3 -15 -7 -14 -19 -10 -3
13 -3 -13 -6 -13 -18 -10 -3
16 -3 -12 -5 -13 -18 -10 -3
18 -3 -11 -5 -13 -17 -10 -3
18 -4 -10 -4 -12 -16 -9 -2
14 -5 -10 -4 -12 -16 -9 -2
10 -7 -9 -4 -12 -17 -10 -3
6 -8 -8 -4 -12 -18 -11 -3
2 -9 -8 -4 -12 -18 -11 -3
0 -10 -7 -3 -13 -19 -12 -4
1 -9 -6 -3 -13 -19 -13 -6
2 -8 -4 -3 -13 -20 -15 -7
3 -8 -3 -3 -13 -21 -16 -9
4 -7 -2 -3 -13 -21 -17 -10
5 -6 0 -3 -13 -22 -18 -11
5 -6 0 -2 -13 -22 -18 -11
4 -7 1 0 -12 -21 -17 -11
3 -7 2 0 -12 -20 -16 -11
3 -7 2 1 -12 -20 -16 -11
2 -8 3 2 -11 -19 -15 -11
1 -7 4 3 -9 -18 -15 -10
0 -5 5 4 -8 -17 -15 -8
-2 -4 6 5 -6 -17 -15 -7
-3 -3 7 6 -5 -16 -15 -6
-4 -2 8 7 -4 -15 -14 -5
-4 -2 7 7 -4 -15 -14 -5
-3 -2 6 6 -5 -15 -14 -5
-2 -2 6 6 -5 -15 -14 -5
-2 -2 5 6 -5 -15 -14 -5
0 -3 4 5 -6 -16 -13 -6
1 -4 4 5 -6 -16 -13 -7
2 -6 3 4 -6 -17 -14 -9
2 -7 2 4 -6 -18 -14 -10
3 -8 2 4 -6 -18 -14 -11
4 -9 1 3 -7 -19 -15 -12
4 -9 1 3 -7 -19 -15 -10
3 -8 1 3 -8 -19 -15 -9
3 -7 1 3 -8 -19 -15 -7
3 -7 1 3 -8 -19 -15 -6
2 -6 2 3 -9 -18 -14 -5
1 -7 4 5 -9 -18 -14 -5
0 -8 6 7 -8 -18 -15 -6
-2 -8 7 8 -8 -18 -16 -6
-3 -9 9 10 -8 -18 -16 -6
-5 -13 19 27 -2 -19 -18 -9
-7 -18 35 55 7 -19 -21 -14
-9 -24 52 84 16 -19 -24 -18
-11 -30 68 111 24 -19 -27 -22
-14 -35 85 139 33 -19 -30 -27
-13 -33 91 164 61 -5 -27 -26
-10 -23 89 188 101 19 -17 -19
-7 -14 86 212 141 43 -7 -12
-3 -4 84 234 181 66 4 -6
1 7 80 258 222 90 14 2
9 28 59 242 255 127 40 20
19 60 24 199 282 173 78 48
29 91 -11 156 311 220 116 75
40 122 -46 112 340 266 154 103
51 153 -79 69 367 312 192 130
65 179 -116 18 384 368 245 164
81 201 -155 -39 393 433 308 203
98 223 -193 -97 401 497 370 242
114 245 -231 -154 410 562 434 281
131 268 -269 -211 419 627 496 320
138 284 -305 -265 413 681 552 354
138 298 -341 -317 397 727 601 384
139 311 -376 -368 381 774 651 413
140 323 -410 -421 363 820 701 443
140 337 -445 -472 347 866 751 473
131 334 -452 -497 293 824 722 464
112 318 -436 -503 210 717 635 425
94 302 -421 -509 127 608 547 386
75 286 -404 -515 44 500 460 346
57 270 -389 -520 -39 391 372 307
46 242 -361 -497 -89 297 294 264
38 205 -325 -453 -113 212 221 219
31 169 -289 -408 -138 126 149 173
24 132 -254 -364 -162 40 76 128
17 95 -218 -319 -187 -45 5 82
9 66 -189 -282 -197 -89 -35 52
0 45 -163 -251 -193 -103 -50 34
-11 23 -139 -220 -190 -116 -65 16
-20 1 -114 -188 -187 -130 -80 -2
-29 -21 -90 -157 -184 -144 -95 -20
-34 -33 -72 -131 -170 -142 -98 -28
-34 -39 -59 -109 -146 -127 -90 -27
-33 -45 -47 -88 -123 -111 -81 -26
-33 -50 -34 -66 -101 -95 -73 -25
-33 -55 -22 -45 -77 -79 -65 -24
-30 -57 -14 -30 -63 -69 -60 -23
-27 -54 -10 -21 -55 -64 -56 -22
-23 -51 -5 -12 -47 -59 -53 -20
-19 -49 0 -3 -38 -53 -49 -19
-15 -46 5 7 -30 -48 -46 -18
-13 -43 8 13 -24 -44 -43 -16
-15 -39 10 16 -21 -41 -40 -13
-17 -36 13 20 -17 -38 -37 -11
-18 -33 15 24 -13 -36 -35 -8
-20 -30 17 28 -9 -34 -33 -6
-21 -28 19 30 -7 -33 -32 -5
-21 -28 17 28 -9 -35 -34 -7
-21 -28 15 27 -11 -37 -36 -9
-21 -28 14 26 -12 -39 -38 -11
-21 -28 12 24 -14 -43 -40 -14
-20 -28 11 23 -15 -44 -41 -15
-19 -27 13 25 -13 -41 -39 -14
-18 -25 14 27 -12 -40 -38 -12
-17 -24 15 28 -11 -39 -37 -11
-16 -23 17 30 -9 -37 -35 -10
-15 -22 18 31 -8 -36 -34 -9
-15 -23 18 32 -8 -36 -34 -9
-14 -24 18 33 -8 -36 -34 -9
-14 -25 18 33 -8 -36 -34 -9
-14 -26 18 34 -8 -36 -34 -9
-13 -27 18 35 -8 -36 -34 -10
-14 -26 18 35 -8 -36 -34 -11
-15 -24 17 34 -9 -36 -35 -12
-15 -23 17 34 -9 -36 -35 -12
-16 -22 17 34 -9 -36 -35 -13
-17 -21 16 33 -10 -36 -36 -14
-17 -23 16 33 -10 -36 -36 -14
-17 -25 17 34 -10 -36 -36 -14
-17 -26 18 35 -10 -36 -36 -14
-17 -28 18 35 -10 -36 -36 -14
-17 -29 19 36 -10 -37 -36 -13
-18 -28 19 36 -10 -37 -36 -13
-19 -27 20 36 -10 -37 -35 -12
-20 -27 20 36 -10 -37 -34 -11
-21 -26 20 36 -10 -37 -34 -11
-22 -25 21 37 -9 -36 -33 -10
-22 -26 21 39 -7 -36 -34 -10
-22 -27 22 42 -6 -35 -36 -10
-22 -28 22 43 -5 -34 -37 -10
-22 -29 22 45 -3 -34 -38 -10
-21 -30 23 46 -2 -33 -39 -11
-23 -30 23 46 -2 -33 -38 -11
-24 -29 23 47 -2 -34 -37 -11
-25 -29 23 48 -2 -35 -37 -11
-27 -29 23 48 -2 -35 -36 -11
-27 -28 22 49 0 -36 -35 -10
-24 -28 22 49 -2 -36 -36 -11
-20 -29 22 49 -3 -37 -37 -12
-17 -30 22 49 -3 -37 -38 -12
-14 -30 22 49 -4 -37 -39 -13
-12 -31 23 48 -5 -38 -40 -14
-14 -31 24 48 -5 -38 -40 -14
-15 -31 25 49 -6 -38 -41 -15
-16 -31 26 49 -6 -38 -43 -16
-18 -31 27 49 -6 -38 -43 -16
-19 -32 28 50 -7 -38 -44 -17
-19 -33 29 50 -7 -39 -44 -18
-20 -35 30 51 -8 -41 -45 -19
-21 -36 30 51 -8 -43 -45 -19
-21 -37 31 51 -8 -44 -45 -20
-22 -38 32 52 -9 -45 -46 -21
-21 -37 33 52 -9 -46 -46 -21
-19 -36 34 53 -10 -47 -47 -21
-18 -36 34 53 -11 -48 -48 -21
-17 -35 35 53 -11 -49 -48 -21
-17 -34 36 54 -12 -50 -49 -22
-20 -36 38 54 -12 -50 -49 -22
-23 -38 40 55 -13 -51 -49 -22
-25 -39 42 56 -13 -51 -49 -22
-28 -41 44 56 -13 -51 -49 -22
-29 -43 45 56 -15 -53 -50 -23
-27 -44 45 54 -19 -57 -53 -27
-24 -45 45 52 -23 -61 -57 -30
-22 -46 45 50 -26 -65 -60 -33
-20 -47 45 48 -30 -69 -63 -37
-19 -49 45 46 -32 -71 -65 -39
-22 -51 47 46 -34 -73 -66 -40
-25 -53 49 46 -35 -74 -67 -40
-28 -55 51 45 -37 -75 -68 -41
-31 -57 53 45 -39 -77 -69 -43
-33 -59 55 44 -41 -79 -70 -44
-34 -60 55 43 -44 -81 -72 -44
-35 -60 55 42 -46 -83 -73 -45
-36 -61 55 40 -49 -86 -74 -46
-37 -62 55 39 -51 -88 -76 -46
-37 -63 56 38 -54 -90 -77 -47
-35 -63 58 37 -56 -92 -78 -48
-33 -63 60 36 -59 -94 -79 -48
-31 -64 62 34 -62 -96 -80 -49
-29 -64 64 33 -64 -98 -81 -50
-27 -65 65 31 -67 -100 -83 -52
-28 -66 65 29 -70 -102 -86 -54
-29 -66 65 26 -73 -105 -88 -56
-31 -67 64 23 -76 -108 -90 -59
-32 -68 64 21 -79 -110 -92 -61
-34 -69 63 19 -81 -112 -94 -63
-37 -71 63 18 -82 -112 -93 -61
-40 -72 62 17 -82 -112 -92 -59
-44 -74 61 15 -83 -112 -91 -57
-47 -76 61 14 -85 -112 -90 -55
-49 -77 60 13 -86 -113 -89 -54
-48 -77 60 11 -87 -113 -89 -54
-47 -77 60 9 -88 -114 -89 -55
-45 -76 60 7 -89 -115 -90 -56
-44 -76 60 5 -90 -115 -90 -56
-41 -75 59 4 -91 -116 -91 -57
-39 -73 58 3 -92 -117 -92 -58
-37 -72 57 2 -93 -117 -92 -58
-35 -70 55 0 -94 -118 -93 -59
-33 -68 54 -2 -95 -119 -94 -60
-31 -67 53 -3 -96 -119 -95 -61
-29 -65 51 -4 -95 -116 -93 -60
-27 -64 50 -5 -94 -112 -91 -59
-25 -62 49 -7 -93 -109 -89 -57
-23 -60 47 -8 -92 -105 -87 -56
-22 -59 45 -9 -90 -102 -85 -54
-24 -59 42 -9 -87 -98 -80 -52
-26 -59 38 -9 -85 -95 -76 -50
-28 -58 34 -9 -81 -91 -72 -48
-30 -58 31 -9 -78 -87 -68 -46
-32 -56 29 -8 -75 -83 -64 -43
-33 -53 27 -9 -72 -81 -62 -40
-34 -50 26 -9 -69 -78 -60 -38
-35 -47 25 -10 -66 -76 -58 -36
-36 -44 23 -11 -63 -73 -56 -34
-37 -40 21 -12 -60 -70 -53 -31
-35 -38 18 -12 -58 -67 -50 -29
-33 -36 16 -12 -55 -64 -47 -27
-31 -33 13 -12 -53 -60 -44 -24
-29 -31 10 -12 -50 -57 -40 -22
-27 -28 8 -13 -48 -55 -38 -20
-27 -26 7 -13 -46 -53 -37 -19
-27 -24 6 -13 -44 -52 -36 -18
-27 -21 5 -13 -41 -51 -34 -16
-27 -19 4 -13 -39 -49 -33 -15
-25 -17 3 -14 -38 -48 -32 -14
-23 -16 3 -14 -38 -46 -31 -13
-21 -16 3 -13 -38 -45 -30 -12
-18 -15 3 -12 -37 -44 -28 -11
-16 -14 3 -12 -37 -41 -27 -10
-14 -13 2 -11 -36 -40 -26 -9
-14 -13 0 -11 -36 -40 -26 -9
-14 -13 -2 -12 -36 -40 -27 -10
-14 -13 -4 -13 -35 -41 -28 -11
-14 -13 -6 -13 -35 -41 -28 -11
-14 -14 -7 -14 -34 -43 -29 -12
-16 -13 -6 -13 -32 -41 -27 -12
-17 -12 -6 -12 -31 -41 -26 -12
-18 -11 -5 -11 -30 -40 -24 -11
-20 -10 -4 -10 -28 -39 -22 -11
-21 -9 -3 -9 -27 -38 -21 -10
-20 -9 -3 -9 -26 -37 -21 -10
-19 -9 -3 -8 -25 -36 -21 -10
-17 -9 -3 -7 -24 -34 -21 -9
-16 -9 -3 -7 -23 -33 -21 -9
-15 -10 -2 -6 -22 -32 -22 -8
-14 -10 -2 -6 -21 -31 -21 -8
-13 -10 -2 -5 -20 -30 -20 -7
-12 -9 -2 -4 -19 -29 -18 -6
-11 -9 -2 -4 -18 -28 -17 -6
-10 -8 -3 -3 -17 -27 -16 -5
-8 -8 -3 -3 -17 -27 -16 -5
-7 -8 -3 -3 -17 -26 -16 -5
-6 -9 -3 -3 -16 -25 -16 -5
-4 -9 -3 -3 -16 -25 -16 -5
-3 -10 -4 -3 -15 -24 -16 -6
-6 -9 -4 -3 -14 -23 -15 -6
-8 -9 -4 -2 -13 -21 -15 -5
-10 -8 -4 0 -12 -20 -14 -4
-12 -7 -4 0 -11 -18 -13 -4
-14 -6 -5 1 -10 -17 -12 -3
-12 -6 -6 1 -10 -17 -12 -4
-10 -6 -6 1 -10 -17 -12 -4
-8 -6 -7 1 -10 -17 -12 -5
-6 -6 -8 1 -10 -17 -12 -6
-4 -7 -9 0 -9 -16 -13 -7
-6 -7 -8 1 -8 -14 -11 -5
-8 -7 -7 2 -7 -12 -9 -3
-10 -7 -6 3 -5 -10 -7 0
-11 -7 -5 4 -4 -8 -5 1
-13 -7 -4 5 -3 -6 -3 3
-11 -7 -4 5 -4 -6 -3 2
-10 -7 -5 4 -4 -6 -4 2
-8 -7 -6 3 -5 -7 -5 1
-6 -7 -6 3 -6 -7 -5 0
-5 -8 -7 2 -7 -8 -6 -2
-5 -8 -7 2 -7 -8 -6 -2
-6 -8 -7 2 -6 -8 -6 -2
-7 -9 -7 2 -5 -7 -6 -3
-7 -9 -7 2 -5 -7 -6 -3
-8 -10 -7 3 -4 -6 -6 -4
-7 -9 -7 3 -4 -6 -6 -5
-6 -8 -7 3 -5 -6 -6 -5
-4 -7 -7 2 -6 -7 -7 -6
-3 -6 -7 2 -6 -7 -7 -7
-2 -5 -7 1 -7 -8 -8 -8
-2 -6 -7 1 -7 -8 -8 -7
-3 -6 -7 1 -7 -8 -8 -7
-4 -7 -7 1 -7 -8 -8 -6
-4 -8 -7 1 -7 -8 -8 -5
-5 -9 -6 2 -6 -8 -7 -4
-6 -9 -6 2 -6 -7 -6 -3
-7 -9 -6 2 -6 -7 -5 -2
-8 -8 -6 2 -5 -6 -4 1
-9 -8 -6 2 -5 -5 -3 2
-9 -7 -6 3 -4 -4 -2 3
-6 -6 -6 3 -4 -5 -3 2
-3 -5 -6 3 -4 -5 -4 1
1 -4 -6 3 -5 -6 -5 -2
5 -3 -6 3 -5 -7 -6 -3
7 -2 -7 2 -6 -8 -7 -4
4 -3 -7 2 -6 -8 -7 -4
2 -4 -7 2 -6 -8 -7 -4
-2 -5 -7 1 -7 -9 -7 -4
-4 -6 -7 1 -7 -9 -7 -4
-6 -7 -8 0 -8 -10 -7 -4
-6 -6 -8 0 -8 -10 -7 -4
-5 -5 -8 0 -8 -10 -7 -4
-4 -3 -8 0 -8 -10 -7 -4
-4 -2 -8 0 -8 -10 -7 -4
-3 0 -7 0 -9 -10 -8 -5
0 -2 -7 0 -9 -11 -8 -5
2 -3 -7 0 -10 -11 -9 -6
4 -5 -6 -2 -11 -12 -10 -7
5 -6 -6 -2 -11 -13 -10 -7
7 -7 -5 -3 -12 -14 -11 -8
6 -7 -5 -3 -12 -14 -11 -8
4 -7 -5 -3 -12 -13 -11 -8
3 -7 -6 -3 -12 -12 -10 -7
1 -7 -6 -3 -12 -12 -10 -7
0 -7 -7 -2 -12 -11 -9 -6
0 -7 -7 -2 -12 -11 -9 -6
0 -7 -7 -2 -12 -11 -9 -6
0 -7 -7 -2 -12 -12 -9 -6
0 -7 -7 -2 -12 -12 -9 -6
-2 -8 -7 0 -11 -13 -8 -5
0 -6 -7 0 -11 -13 -9 -6
1 -4 -6 0 -11 -13 -10 -8
2 -2 -5 0 -12 -14 -11 -9
3 1 -5 0 -12 -14 -12 -11
4 3 -4 -2 -13 -15 -13 -12
3 4 -2 0 -12 -14 -12 -10
1 4 1 1 -10 -13 -11 -8
0 5 3 2 -9 -12 -9 -6
-3 6 4 3 -7 -11 -8 -5
-4 7 6 4 -6 -10 -7 -3
-3 6 6 4 -7 -11 -8 -4
-2 5 6 4 -7 -12 -9 -5
1 4 5 3 -8 -13 -10 -7
2 3 5 3 -9 -14 -11 -8
3 2 4 2 -10 -15 -12 -9
4 3 4 2 -10 -15 -12 -8
4 3 4 2 -10 -15 -11 -7
5 4 4 2 -10 -14 -10 -6
6 5 4 2 -10 -14 -10 -5
7 6 5 2 -9 -13 -9 -4
7 6 5 2 -9 -13 -9 -4
6 6 5 2 -9 -13 -9 -4
5 6 6 2 -9 -12 -9 -4
5 6 6 2 -9 -12 -9 -4
4 6 6 2 -9 -11 -8 -4
5 6 3 0 -10 -11 -8 -4
5 7 -2 -2 -10 -12 -8 -4
6 8 -6 -4 -11 -13 -9 -4
7 8 -9 -5 -12 -13 -9 -4
8 9 -12 -7 -13 -14 -10 -3
10 9 -15 -7 -14 -14 -10 -3
12 8 -17 -7 -14 -15 -10 -4
14 7 -20 -8 -15 -16 -10 -5
16 7 -22 -8 -16 -16 -10 -5
18 6 -24 -9 -17 -17 -11 -6
18 5 -23 -9 -17 -17 -11 -5
18 4 -22 -9 -17 -17 -11 -5
18 3 -20 -8 -17 -17 -11 -4
18 2 -19 -8 -17 -17 -11 -3
18 1 -18 -7 -16 -17 -11 -2
18 0 -17 -7 -16 -17 -11 -2
18 -3 -17 -6 -16 -17 -10 -2
17 -4 -16 -5 -16 -16 -9 -2
17 -6 -15 -5 -16 -16 -9 -2
16 -7 -14 -4 -15 -15 -8 0
16 -7 -14 -4 -15 -16 -9 -3
16 -6 -14 -5 -16 -16 -9 -5
16 -6 -13 -5 -16 -17 -10 -6
16 -5 -13 -6 -17 -18 -11 -8
17 -4 -12 -7 -18 -19 -12 -10
17 -4 -10 -7 -18 -19 -12 -10
16 -5 -7 -6 -18 -19 -12 -9
16 -5 -5 -6 -18 -19 -13 -9
15 -6 -3 -5 -18 -19 -13 -8
14 -7 0 -4 -17 -19 -14 -7
13 -7 0 -4 -17 -19 -14 -8
13 -7 0 -4 -17 -19 -14 -9
12 -6 0 -3 -16 -19 -14 -10
11 -6 0 -3 -16 -19 -14 -11
10 -5 1 -2 -15 -18 -15 -12
9 -5 3 1 -13 -17 -14 -12
8 -4 5 2 -11 -16 -14 -11
7 -4 6 4 -10 -15 -13 -11
5 -3 8 5 -8 -13 -12 -10
4 -2 10 7 -6 -12 -11 -9
4 -3 9 6 -7 -13 -12 -10
4 -5 9 6 -7 -14 -12 -12
5 -6 8 5 -8 -15 -13 -13
5 -8 7 4 -9 -16 -14 -15
6 -9 6 3 -10 -17 -15 -16
6 -9 5 3 -10 -17 -15 -16
6 -8 5 3 -10 -17 -15 -16
6 -8 4 3 -10 -17 -15 -16
6 -7 3 3 -10 -17 -15 -16
5 -6 2 4 -10 -17 -14 -15
6 -5 2 4 -10 -17 -14 -15
7 -4 2 4 -10 -17 -14 -15
8 -3 3 4 -10 -17 -14 -15
10 -2 3 4 -10 -17 -14 -15
11 0 4 3 -9 -16 -14 -16
10 0 5 4 -8 -16 -14 -15
8 0 5 4 -7 -15 -14 -15
7 0 6 5 -6 -15 -13 -14
5 0 7 6 -5 -14 -13 -13
4 0 9 8 -4 -13 -12 -12
5 0 13 12 -4 -14 -14 -14
6 -2 17 17 -4 -15 -16 -17
7 -2 21 22 -3 -16 -17 -19
9 -3 25 26 -3 -18 -19 -21
10 -4 32 40 3 -19 -22 -24
9 -8 50 75 20 -19 -26 -31
9 -11 67 110 36 -19 -30 -37
8 -14 84 145 54 -18 -34 -44
7 -17 101 180 70 -18 -39 -50
6 -17 112 209 92 -11 -39 -53
7 -5 108 221 125 13 -27 -44
7 8 104 233 156 36 -16 -34
8 19 100 245 189 60 -4 -26
9 31 95 258 222 82 8 -17
14 49 81 252 252 115 30 0
27 78 43 198 274 168 78 33
42 108 5 144 296 221 127 67
56 138 -33 91 318 274 175 100
70 168 -72 36 341 327 223 134
85 194 -111 -18 359 387 279 171
102 214 -151 -72 369 465 356 216
119 234 -191 -128 380 542 432 261
137 254 -231 -183 390 619 509 305
154 274 -271 -237 400 696 586 350
168 290 -307 -291 398 759 648 388
164 302 -336 -343 361 783 677 407
162 312 -363 -395 323 807 705 427
159 322 -392 -447 286 830 734 446
156 332 -421 -498 250 855 763 466
149 335 -435 -535 202 837 756 467
130 310 -411 -528 130 707 651 415
109 285 -388 -521 57 577 547 364
90 262 -363 -515 -15 448 442 313
70 237 -340 -508 -88 318 338 263
53 211 -314 -490 -145 204 242 213
46 178 -281 -442 -160 131 175 168
37 145 -249 -395 -177 58 107 122
29 112 -218 -348 -193 -16 38 76
21 79 -185 -300 -208 -89 -29 31
15 52 -156 -257 -217 -142 -79 -5
12 36 -134 -226 -199 -137 -82 -15
9 22 -111 -195 -182 -132 -86 -26
6 8 -89 -163 -164 -127 -89 -36
4 -7 -66 -133 -147 -120 -91 -47
1 -19 -47 -105 -130 -114 -93 -55
-2 -24 -38 -87 -113 -104 -86 -55
-3 -30 -29 -69 -98 -94 -79 -55
-5 -35 -21 -51 -81 -83 -73 -55
-6 -41 -13 -32 -65 -73 -66 -55
-8 -45 -5 -17 -51 -64 -60 -54
-6 -38 1 -9 -43 -57 -56 -50
-5 -33 6 0 -34 -51 -52 -47
-3 -27 11 9 -25 -45 -47 -43
-2 -22 16 17 -17 -37 -43 -39
1 -17 20 24 -10 -32 -38 -36
2 -14 20 26 -9 -32 -38 -36
3 -11 20 28 -7 -32 -38 -36
4 -8 21 29 -6 -32 -38 -36
5 -5 21 31 -5 -32 -38 -36
6 -2 22 33 -3 -32 -39 -35
7 -2 22 33 -4 -32 -39 -36
8 -3 22 33 -5 -33 -40 -37
9 -3 21 32 -6 -33 -40 -38
10 -4 21 32 -7 -34 -41 -40
11 -5 20 31 -8 -35 -43 -41
8 -5 21 32 -7 -35 -43 -40
6 -5 21 32 -5 -34 -43 -39
3 -5 22 33 -4 -34 -43 -38
0 -5 23 34 -3 -33 -43 -37
-3 -5 24 35 0 -32 -41 -36
-3 -5 24 35 0 -32 -41 -36
-3 -6 24 36 -2 -32 -41 -36
-3 -6 24 36 -2 -32 -41 -36
-3 -7 24 37 -3 -32 -41 -36
-4 -8 24 38 -4 -32 -43 -36
0 -7 24 38 -4 -32 -43 -36
3 -6 24 39 -3 -32 -43 -36
6 -5 24 40 -3 -32 -43 -37
8 -3 24 42 -2 -32 -43 -37
11 -2 24 43 0 -31 -43 -38
10 -2 24 43 0 -31 -43 -38
8 -3 24 44 0 -30 -43 -38
6 -3 25 44 0 -29 -43 -38
5 -4 25 45 0 -28 -43 -38
3 -5 26 46 0 -27 -43 -37
5 -5 26 46 0 -27 -43 -37
8 -4 26 46 0 -28 -43 -37
10 -4 26 46 0 -29 -43 -38
13 -3 26 46 0 -30 -43 -38
15 -2 26 47 -2 -31 -44 -39
13 -2 27 49 1 -30 -41 -38
11 -2 29 51 3 -28 -39 -37
9 -2 31 54 4 -26 -36 -36
7 -2 32 56 6 -25 -34 -34
5 -3 34 58 8 -23 -32 -33
5 -5 32 56 6 -25 -34 -35
4 -7 30 54 4 -27 -36 -37
4 -8 27 53 3 -30 -39 -40
3 -10 25 51 1 -32 -41 -43
2 -12 23 49 -2 -34 -44 -45
3 -10 26 51 1 -33 -43 -44
4 -8 29 53 2 -31 -41 -41
5 -6 32 56 4 -30 -40 -40
7 -4 34 58 6 -29 -39 -39
8 -2 37 60 8 -27 -38 -37
6 -5 37 60 8 -27 -38 -37
5 -8 37 60 8 -28 -39 -37
3 -11 36 61 8 -28 -39 -38
1 -13 36 61 8 -29 -40 -38
-2 -16 35 62 8 -30 -41 -39
2 -15 35 62 8 -31 -41 -40
5 -14 35 61 7 -32 -43 -43
8 -13 35 60 6 -33 -44 -44
11 -11 35 59 5 -35 -45 -45
14 -10 36 58 4 -36 -46 -47
9 -12 36 58 3 -36 -47 -47
4 -14 37 58 2 -37 -48 -47
0 -17 38 58 1 -38 -49 -48
-6 -19 39 58 0 -39 -51 -48
-10 -21 40 59 -2 -40 -52 -49
-8 -21 43 59 -2 -40 -52 -49
-7 -21 44 59 -3 -41 -53 -49
-5 -21 46 59 -4 -43 -53 -49
-3 -21 48 59 -5 -44 -54 -49
0 -22 50 58 -6 -45 -55 -49
0 -22 50 58 -8 -49 -58 -49
0 -23 50 58 -9 -52 -61 -50
1 -24 51 58 -11 -55 -64 -51
1 -25 51 58 -13 -59 -67 -52
2 -26 52 59 -15 -62 -70 -53
-3 -28 54 58 -18 -63 -70 -54
-6 -30 56 56 -21 -64 -70 -55
-9 -33 58 55 -24 -65 -71 -56
-13 -35 60 54 -27 -66 -71 -57
-16 -37 62 52 -30 -67 -72 -58
-16 -37 62 52 -33 -70 -75 -61
-16 -37 62 51 -37 -74 -77 -63
-15 -37 63 50 -40 -77 -80 -66
-15 -37 63 49 -44 -80 -82 -68
-14 -36 64 48 -47 -83 -86 -71
-12 -36 64 46 -51 -87 -87 -72
-10 -37 64 44 -54 -89 -88 -74
-7 -37 64 40 -57 -92 -89 -75
-5 -38 64 38 -61 -94 -90 -76
-3 -39 65 36 -64 -97 -91 -78
-7 -43 65 34 -65 -99 -92 -78
-10 -46 65 32 -67 -100 -94 -78
-14 -48 65 29 -68 -102 -95 -78
-18 -51 65 27 -69 -104 -96 -78
-21 -54 65 25 -71 -106 -98 -79
-20 -54 65 23 -73 -106 -98 -79
-18 -53 65 20 -75 -106 -98 -79
-17 -53 64 18 -77 -107 -99 -79
-16 -52 64 15 -79 -107 -99 -79
-14 -51 63 13 -81 -108 -100 -79
-14 -50 63 12 -81 -108 -100 -79
-14 -49 62 11 -82 -109 -100 -79
-13 -48 61 10 -83 -109 -100 -80
-13 -47 60 9 -85 -110 -100 -80
-12 -46 59 8 -86 -111 -101 -81
-13 -46 59 8 -86 -110 -100 -79
-14 -46 59 8 -85 -109 -98 -77
-15 -45 59 8 -85 -108 -97 -75
-17 -45 59 8 -83 -106 -96 -73
-18 -44 60 8 -82 -105 -94 -71
-18 -43 57 7 -81 -104 -93 -70
-18 -41 54 6 -80 -102 -92 -68
-18 -40 50 5 -79 -100 -91 -67
-18 -39 47 4 -78 -99 -89 -66
-19 -38 44 3 -77 -97 -88 -64
-15 -35 40 1 -74 -93 -82 -63
-11 -32 37 -3 -71 -90 -77 -62
-7 -28 35 -5 -69 -86 -72 -61
-3 -25 32 -7 -66 -82 -67 -60
2 -22 29 -10 -63 -78 -62 -59
-2 -20 29 -8 -58 -73 -57 -54
-5 -18 28 -6 -53 -68 -52 -49
-8 -16 28 -4 -48 -63 -47 -44
-11 -14 27 -2 -43 -58 -41 -38
-14 -12 26 1 -37 -53 -36 -33
-11 -10 25 1 -36 -51 -35 -33
-8 -7 24 0 -34 -49 -34 -32
-5 -5 23 -2 -33 -47 -33 -31
-2 -3 22 -3 -32 -44 -32 -30
2 1 21 -4 -30 -41 -30 -29
3 1 19 -4 -28 -41 -30 -29
5 1 17 -4 -26 -40 -30 -29
7 1 15 -4 -24 -39 -30 -30
8 1 12 -4 -22 -38 -30 -30
10 1 10 -5 -20 -37 -30 -31
8 3 10 -3 -17 -34 -27 -28
7 5 11 -2 -14 -31 -24 -25
5 7 12 1 -11 -28 -22 -22
3 9 13 3 -8 -25 -19 -19
1 11 14 5 -5 -22 -16 -16
1 9 12 5 -5 -22 -16 -16
1 7 10 4 -5 -22 -16 -16
1 5 8 4 -5 -22 -17 -17
1 2 6 3 -5 -22 -17 -17
1 0 4 2 -4 -23 -18 -18
2 2 4 3 -3 -22 -17 -18
3 5 4 4 -2 -20 -16 -17
4 8 5 5 1 -18 -15 -16
5 10 5 6 2 -17 -14 -15
7 13 6 7 4 -15 -13 -14
7 12 6 7 4 -15 -13 -14
7 11 6 7 4 -15 -13 -14
6 10 6 7 5 -14 -13 -14
6 9 6 7 5 -14 -13 -14
5 8 5 7 6 -13 -14 -15
5 8 5 7 6 -13 -14 -15
5 7 4 7 6 -12 -14 -16
5 7 4 7 7 -11 -14 -16
5 6 3 7 7 -10 -14 -17
6 5 2 7 8 -9 -13 -18
6 6 2 8 10 -7 -12 -17
6 7 3 9 12 -5 -10 -15
6 8 4 10 14 -3 -8 -13
6 9 5 11 16 0 -7 -12
6 10 6 12 18 2 -5 -10
6 10 6 12 18 2 -5 -10
7 10 5 12 17 2 -5 -10
7 9 4 12 16 2 -5 -10
8 9 3 12 15 2 -5 -10
9 8 2 12 14 3 -4 -10
9 6 2 12 14 3 -5 -11
8 5 1 11 14 3 -6 -12
8 3 1 11 14 3 -7 -13
7 1 0 10 14 3 -8 -14
6 -2 -2 9 13 2 -9 -16
6 -2 -2 9 13 2 -9 -15
7 -2 -2 9 13 2 -8 -14
7 -2 -2 9 13 3 -8 -13
8 -2 -2 9 13 3 -7 -12
9 0 -2 9 13 4 -6 -10
9 2 0 10 15 5 -5 -9
9 4 1 11 16 6 -4 -8
8 6 2 13 18 8 -2 -7
8 9 3 14 20 9 0 -6
7 11 4 16 22 11 2 -5
7 10 3 15 21 10 1 -5
7 9 1 14 19 9 -2 -6
7 7 0 13 17 8 -4 -7
7 6 -3 12 15 7 -6 -8
8 4 -5 10 13 5 -8 -9
8 4 -5 10 13 5 -8 -9
8 4 -5 10 13 5 -8 -10
7 3 -4 10 13 5 -8 -10
7 3 -4 10 13 5 -8 -11
6 2 -3 10 12 4 -9 -12
6 1 -3 10 12 4 -8 -12
5 0 -3 10 12 4 -7 -12
5 -2 -3 11 12 3 -6 -11
4 -3 -3 11 12 3 -5 -11
3 -4 -2 12 11 2 -3 -10
4 -4 -2 11 11 2 -3 -11
6 -4 -2 10 11 2 -4 -12
7 -3 -2 8 10 1 -5 -13
9 -3 -2 7 10 1 -6 -14
11 -2 -3 5 9 0 -7 -15
9 -2 -3 5 9 0 -7 -14
6 -2 -3 6 9 0 -6 -13
4 -2 -3 6 8 -2 -5 -12
2 -2 -3 7 8 -2 -4 -11
-2 -2 -3 8 7 -3 -3 -10
1 0 -3 8 7 -3 -3 -10
3 1 -3 8 7 -3 -3 -10
5 2 -3 8 7 -3 -3 -9
7 3 -3 8 7 -3 -3 -9
10 5 -3 8 6 -2 -2 -8
9 3 -3 7 5 -3 -3 -9
8 0 -4 6 4 -4 -4 -10
7 -3 -5 5 3 -6 -6 -11
6 -5 -6 4 2 -7 -7 -12
4 -8 -7 3 0 -9 -9 -14
4 -7 -7 3 0 -9 -9 -14
4 -5 -6 3 0 -9 -9 -14
5 -4 -6 3 0 -9 -9 -14
5 -2 -5 3 0 -9 -9 -14
6 1 -4 4 0 -10 -10 -14
6 1 -4 4 0 -10 -10 -14
6 1 -4 4 0 -10 -10 -14
7 1 -4 4 0 -10 -10 -14
7 1 -4 4 0 -10 -10 -14
8 0 -3 3 -2 -10 -11 -14
8 -2 -3 3 -2 -10 -11 -14
7 -3 -3 3 -2 -10 -11 -14
7 -4 -3 4 0 -10 -11 -14
6 -5 -3 4 0 -10 -11 -14
5 -7 -2 5 1 -10 -11 -13
5 -5 0 5 1 -10 -11 -13
5 -2 1 6 1 -9 -11 -12
6 1 2 6 2 -9 -10 -12
6 4 3 7 2 -8 -10 -11
7 7 4 8 3 -7 -9 -10
8 7 5 8 3 -7 -9 -10
9 8 6 8 3 -7 -9 -10
11 9 7 8 3 -8 -10 -11
12 10 8 8 3 -8 -10 -11
14 11 9 9 3 -9 -11 -12
12 11 9 9 3 -9 -11 -11
9 10 9 9 3 -8 -10 -10
6 10 9 9 3 -8 -10 -9
3 9 9 9 3 -7 -9 -8
0 8 9 8 2 -6 -8 -7
1 8 9 8 2 -6 -8 -7
2 7 9 8 2 -6 -9 -8
3 6 9 8 1 -7 -9 -8
4 5 9 8 1 -7 -10 -9
6 4 10 7 0 -8 -11 -10
6 4 8 6 -2 -8 -11 -10
7 5 5 5 -3 -9 -11 -10
8 5 3 3 -4 -10 -12 -9
9 6 0 2 -5 -11 -12 -9
10 7 -4 0 -6 -12 -13 -8
10 7 -7 -2 -6 -12 -13 -8
10 6 -10 -3 -7 -12 -13 -8
10 5 -14 -4 -8 -13 -13 -7
10 4 -17 -5 -9 -13 -13 -7
9 3 -21 -7 -10 -14 -12 -6
10 3 -21 -7 -10 -14 -12 -7
11 2 -21 -7 -11 -14 -13 -8
12 2 -21 -8 -12 -15 -14 -9
13 1 -21 -8 -13 -15 -15 -10
14 0 -22 -9 -14 -16 -16 -12
14 -2 -20 -8 -13 -16 -15 -11
14 -4 -18 -7 -12 -15 -14 -9
15 -6 -16 -6 -11 -14 -12 -7
15 -8 -14 -5 -10 -13 -11 -5
16 -10 -11 -3 -9 -12 -9 -3
17 -9 -11 -3 -9 -12 -9 -3
18 -8 -12 -4 -10 -12 -9 -3
19 -6 -13 -4 -10 -12 -9 -3
20 -5 -14 -5 -11 -12 -9 -3
21 -3 -15 -6 -12 -12 -8 -2
19 -3 -13 -6 -12 -12 -9 -3
16 -3 -10 -6 -12 -13 -10 -4
14 -4 -8 -6 -13 -14 -11 -5
11 -4 -5 -6 -13 -15 -12 -6
8 -5 -2 -5 -14 -16 -13 -8
8 -5 -2 -5 -14 -16 -13 -8
7 -6 -2 -5 -14 -16 -14 -9
6 -6 -2 -4 -14 -17 -14 -10
5 -7 -2 -4 -14 -17 -15 -11
4 -8 0 -3 -14 -18 -16 -12
2 -8 0 -3 -14 -18 -16 -12
0 -8 1 -3 -13 -18 -16 -12
-4 -9 2 -2 -13 -18 -16 -12
-6 -9 3 -2 -12 -18 -16 -12
-9 -10 4 0 -11 -17 -15 -13
-8 -10 4 0 -11 -17 -15 -13
-6 -10 4 0 -12 -17 -15 -13
-4 -10 5 -2 -12 -17 -15 -13
-2 -10 5 -2 -13 -17 -15 -13
1 -10 6 -3 -14 -17 -15 -13
1 -10 6 -3 -14 -17 -15 -13
1 -9 5 -3 -14 -17 -15 -12
1 -9 5 -3 -13 -16 -15 -12
1 -8 4 -3 -13 -16 -15 -11
1 -7 3 -2 -12 -15 -15 -10
1 -7 3 -2 -12 -15 -15 -10
2 -7 3 -2 -12 -15 -15 -10
2 -7 2 -2 -12 -15 -15 -10
3 -7 2 -2 -12 -15 -15 -10
4 -7 1 -2 -13 -16 -16 -11
4 -7 1 -2 -13 -16 -16 -11
4 -6 2 0 -12 -15 -15 -10
4 -6 2 0 -12 -15 -15 -9
4 -5 3 1 -11 -14 -14 -8
5 -4 4 2 -10 -13 -13 -7
5 -4 6 3 -9 -13 -13 -8
5 -4 8 5 -8 -13 -13 -9
6 -4 11 6 -7 -13 -14 -10
6 -4 13 8 -6 -13 -14 -11
7 -5 16 10 -4 -13 -15 -12
5 -6 29 34 6 -14 -20 -17
2 -8 44 59 15 -16 -25 -22
0 -10 57 84 24 -18 -30 -28
-4 -12 71 108 32 -20 -35 -33
-6 -13 85 133 42 -21 -40 -38
-5 -10 92 167 74 -7 -36 -36
-2 -5 98 200 107 10 -30 -33
2 1 105 233 139 26 -25 -29
5 6 111 267 172 43 -19 -26
7 11 117 300 203 58 -14 -23
17 37 93 267 229 98 19 2
26 63 67 232 255 138 51 25
36 89 42 197 280 178 84 49
46 114 16 163 305 218 116 72
55 140 -10 129 330 258 148 96
71 165 -50 72 348 331 221 141
88 191 -89 17 364 405 294 186
104 217 -128 -39 382 479 366 231
120 241 -168 -95 398 553 439 276
137 267 -206 -151 414 628 513 321
145 283 -245 -210 405 693 577 359
153 299 -285 -267 395 760 642 397
161 314 -324 -325 385 825 706 434
170 330 -363 -384 375 892 771 472
177 346 -403 -442 364 957 836 510
157 338 -394 -457 286 864 765 479
137 328 -383 -472 207 768 690 445
115 319 -371 -486 130 671 615 412
95 310 -361 -502 51 573 540 380
73 301 -350 -516 -28 476 466 346
64 258 -320 -477 -62 373 378 294
55 215 -289 -436 -95 270 288 240
46 172 -259 -395 -128 167 199 188
36 130 -229 -354 -160 64 110 135
27 87 -198 -313 -193 -39 22 82
20 64 -172 -277 -191 -60 0 61
13 42 -144 -242 -188 -79 -21 40
6 20 -117 -206 -184 -98 -43 20
-2 -2 -91 -172 -181 -117 -63 0
-8 -24 -63 -136 -178 -136 -83 -21
-9 -33 -50 -113 -154 -122 -77 -22
-8 -43 -36 -92 -131 -107 -69 -22
-7 -52 -24 -69 -107 -92 -61 -23
-6 -60 -11 -47 -83 -76 -53 -23
-5 -69 3 -24 -60 -61 -45 -23
-5 -68 9 -12 -49 -53 -38 -20
-7 -66 16 0 -38 -45 -32 -15
-8 -63 22 12 -27 -36 -27 -10
-10 -61 28 23 -16 -28 -21 -5
-11 -59 34 35 -6 -20 -16 1
-8 -56 35 37 -4 -19 -15 2
-3 -53 35 38 -2 -18 -14 2
3 -50 35 39 0 -18 -14 2
8 -47 35 40 2 -17 -13 2
13 -44 35 42 3 -17 -13 2
13 -43 37 45 5 -16 -12 2
11 -43 38 47 7 -15 -11 3
9 -44 40 49 9 -15 -10 5
7 -44 42 51 11 -14 -9 6
6 -44 43 53 13 -14 -9 7
5 -46 44 54 14 -13 -8 9
5 -47 44 55 14 -13 -8 11
5 -49 44 55 14 -13 -8 13
5 -50 44 56 14 -13 -8 15
5 -51 44 56 14 -13 -8 17
6 -53 45 57 15 -13 -8 18
6 -55 45 58 16 -13 -8 18
5 -57 45 58 17 -12 -8 18
5 -59 45 59 18 -12 -8 18
5 -61 45 59 19 -12 -8 18
4 -62 46 60 20 -11 -7 19
4 -63 46 61 21 -11 -7 19
4 -64 47 62 22 -11 -7 19
4 -65 47 63 23 -11 -7 19
4 -66 47 64 23 -11 -7 19
5 -67 48 65 24 -10 -8 20
5 -68 48 66 24 -10 -8 20
5 -68 49 66 25 -9 -7 20
5 -69 49 67 25 -9 -7 20
5 -69 49 67 25 -9 -7 20
5 -69 50 69 26 -7 -5 22
5 -68 51 70 27 -6 -4 24
4 -66 52 72 28 -5 -3 26
4 -65 53 73 29 -4 -2 28
4 -64 53 74 30 -3 0 30
4 -63 54 75 31 -2 1 31
6 -64 55 75 31 -3 1 30
7 -64 55 75 31 -3 0 30
9 -65 56 75 31 -4 0 29
10 -65 56 75 31 -4 0 29
9 -66 57 76 31 -5 -2 28
6 -67 56 77 31 -5 -2 29
4 -68 55 77 31 -5 -2 29
1 -69 54 78 31 -5 -2 30
-2 -70 54 78 31 -5 -2 30
-3 -71 53 79 32 -4 -2 31
-3 -70 53 79 32 -5 -3 31
-3 -69 54 80 32 -5 -3 31
-3 -68 54 80 32 -6 -4 31
-3 -67 54 80 32 -6 -4 31
-4 -66 55 81 31 -7 -5 31
-3 -67 56 82 31 -7 -5 32
-3 -67 57 82 31 -7 -5 33
-2 -68 58 84 31 -7 -5 34
-2 -68 59 84 31 -7 -5 34
0 -69 60 85 31 -7 -5 35
1 -69 60 85 30 -8 -6 34
2 -69 59 85 29 -9 -7 33
3 -69 59 85 28 -10 -8 32
3 -69 59 85 27 -11 -9 32
4 -68 59 84 26 -12 -10 31
5 -68 61 85 26 -12 -10 31
5 -68 62 86 26 -12 -10 31
6 -68 64 87 26 -12 -10 31
6 -68 65 87 26 -12 -10 31
7 -68 66 88 25 -15 -11 31
7 -68 66 88 24 -17 -12 30
7 -69 66 88 22 -19 -13 30
7 -69 66 88 21 -21 -14 29
7 -69 66 88 20 -23 -15 29
5 -70 68 87 18 -25 -17 27
4 -71 70 87 15 -27 -19 26
3 -72 71 86 13 -28 -20 24
2 -73 73 86 11 -30 -22 23
1 -73 74 86 9 -31 -23 22
-4 -77 75 85 7 -33 -25 20
-8 -81 75 84 5 -35 -27 18
-12 -86 75 84 3 -37 -28 17
-16 -89 75 82 1 -39 -30 15
-20 -93 75 82 -2 -41 -31 14
-19 -94 76 81 -5 -45 -33 13
-15 -93 78 80 -8 -48 -36 12
-12 -93 80 79 -11 -51 -38 12
-9 -92 84 78 -13 -53 -40 11
-6 -92 86 78 -16 -56 -43 11
-6 -92 87 76 -19 -58 -44 9
-9 -95 87 74 -21 -60 -45 8
-11 -97 87 72 -24 -62 -46 6
-13 -99 87 70 -27 -64 -47 5
-15 -101 87 68 -29 -65 -48 4
-16 -102 88 67 -31 -66 -49 3
-17 -102 88 66 -33 -67 -49 3
-18 -102 89 65 -35 -68 -49 3
-19 -102 89 64 -37 -69 -49 3
-19 -102 89 64 -39 -69 -49 3
-20 -102 90 62 -41 -71 -51 3
-19 -102 90 60 -44 -73 -52 2
-18 -102 89 58 -46 -75 -53 1
-17 -102 89 57 -47 -76 -54 0
-16 -102 89 55 -49 -78 -55 0
-14 -101 87 52 -51 -80 -56 -2
-13 -101 86 49 -52 -82 -57 -2
-11 -100 85 46 -53 -85 -58 -3
-10 -100 84 43 -54 -86 -59 -3
-9 -100 82 39 -55 -88 -59 -3
-9 -99 81 38 -56 -88 -60 -3
-11 -98 81 38 -56 -86 -59 -2
-13 -97 80 38 -56 -85 -58 0
-14 -96 80 38 -56 -82 -57 1
-16 -96 80 38 -56 -81 -56 2
-17 -95 78 37 -55 -79 -54 3
-17 -94 76 36 -54 -77 -53 4
-17 -93 74 35 -53 -75 -51 5
-17 -92 72 34 -52 -73 -49 6
-17 -92 70 33 -51 -71 -48 6
-16 -89 68 32 -48 -68 -45 8
-13 -85 66 31 -46 -64 -41 10
-11 -81 64 31 -43 -61 -38 12
-9 -77 62 30 -39 -57 -36 14
-7 -74 60 30 -37 -54 -33 16
-6 -71 57 28 -35 -51 -31 18
-6 -69 54 27 -33 -49 -29 19
-6 -67 51 25 -31 -47 -27 21
-6 -64 48 24 -29 -44 -25 22
-6 -62 45 23 -27 -41 -23 23
-5 -60 43 22 -25 -38 -20 25
-5 -58 42 22 -24 -36 -18 27
-4 -56 40 22 -22 -34 -16 29
-4 -54 39 22 -20 -31 -13 31
-4 -52 38 22 -19 -29 -11 33
-4 -50 37 22 -16 -27 -9 35
-5 -48 36 22 -14 -26 -8 36
-6 -46 35 21 -12 -25 -7 37
-7 -45 34 21 -9 -23 -5 38
-8 -43 34 21 -7 -22 -4 39
-9 -41 32 20 -6 -21 -3 40
-9 -41 31 20 -6 -21 -3 39
-9 -41 29 20 -5 -21 -3 38
-9 -41 27 20 -5 -21 -3 37
-9 -41 26 20 -5 -21 -3 37
-8 -39 25 19 -2 -19 -2 37
-8 -35 26 20 1 -17 0 40
-7 -32 27 21 3 -15 2 43
-7 -28 28 22 6 -13 4 45
-7 -25 28 22 8 -11 5 47
-4 -24 28 23 9 -10 6 48
-2 -25 27 23 9 -10 6 47
1 -26 25 23 9 -10 6 46
4 -27 23 23 9 -10 6 45
6 -27 22 23 9 -10 6 45
5 -28 21 22 9 -9 6 44
2 -28 21 22 10 -9 6 43
-2 -28 21 22 11 -8 6 43
-5 -28 21 22 12 -8 6 42
-8 -28 21 22 13 -8 6 42
-8 -26 20 21 14 -6 8 40
-7 -25 20 22 14 -5 9 42
-5 -24 20 23 14 -3 10 43
-3 -23 20 24 14 0 12 44
-2 -22 20 25 14 1 13 45
0 -22 21 26 15 2 14 46
-2 -23 20 25 16 2 14 46
-3 -24 20 24 16 2 14 46
-4 -26 19 23 17 2 14 46
-5 -27 19 23 17 2 14 46
-6 -28 18 22 18 3 13 45
-4 -27 17 22 18 4 13 45
-3 -26 17 22 18 4 14 45
-2 -25 16 22 18 5 14 45
0 -24 16 22 18 5 14 45
1 -23 15 22 19 6 15 44
1 -21 15 22 20 6 16 44
2 -20 14 22 20 7 17 45
2 -19 14 22 21 7 18 45
2 -18 14 22 21 7 18 45
3 -17 13 21 22 8 19 46
2 -19 13 21 22 9 19 46
2 -20 13 21 21 9 19 46
1 -21 13 21 21 10 19 46
1 -22 13 21 21 10 19 46
1 -22 14 22 20 11 19 47
2 -21 13 21 20 11 19 46
3 -20 13 21 19 10 18 45
5 -18 12 20 19 10 18 44
6 -17 12 20 19 10 18 44
7 -16 11 19 18 9 17 42
7 -16 11 19 18 9 17 40
7 -17 10 19 17 9 17 38
7 -17 10 19 17 9 17 36
7 -17 10 19 17 9 17 35
7 -18 9 18 16 9 16 34
6 -18 8 17 15 8 15 34
5 -18 8 16 15 7 14 34
4 -18 7 15 14 6 13 34
4 -18 7 14 14 5 13 34
2 -19 6 13 13 4 12 34
-2 -19 6 13 13 4 12 35
-4 -20 6 14 12 4 12 35
-7 -20 6 14 12 4 12 36
-9 -20 6 14 12 4 12 36
-9 -20 7 15 11 4 12 37
-7 -19 7 14 10 3 11 36
-5 -17 6 13 10 2 10 35
-3 -15 6 12 9 1 9 34
0 -14 6 12 9 1 9 33
1 -13 5 11 8 0 8 32
1 -13 5 11 8 0 9 33
1 -14 5 11 9 1 9 33
1 -14 5 11 9 1 10 34
1 -14 5 11 9 1 10 34
3 -15 6 12 10 2 11 35
5 -15 7 12 9 1 10 34
7 -15 8 12 9 1 9 34
9 -15 9 12 8 0 8 33
11 -15 10 12 8 0 8 33
11 -14 9 11 6 -2 7 31
8 -14 6 11 4 -3 6 30
6 -14 3 10 2 -4 5 28
3 -14 -2 10 0 -5 4 26
1 -14 -5 10 -3 -5 4 25
0 -14 -5 9 -4 -6 3 24
-2 -14 -3 9 -3 -7 2 24
-2 -14 0 9 -3 -7 2 24
-3 -14 1 9 -2 -8 1 24
-3 -14 3 9 -2 -8 1 24
-4 -13 4 8 0 -9 0 25
-3 -14 4 8 0 -8 0 26
-2 -14 5 9 1 -8 0 26
0 -15 5 9 1 -7 0 27
0 -15 5 9 1 -7 0 27
1 -16 6 10 2 -6 1 28
1 -15 6 10 2 -6 1 28
0 -14 6 10 1 -6 1 28
0 -13 6 10 1 -6 1 28
0 -13 6 10 1 -6 1 28
-2 -11 7 9 0 -7 0 26
-2 -9 7 9 -2 -8 -2 25
-2 -8 7 8 -2 -8 -3 24
-2 -6 7 8 -3 -9 -4 22
-2 -4 7 8 -3 -9 -4 21
-2 -3 8 7 -4 -10 -5 20
-2 -3 9 8 -3 -9 -4 21
-2 -2 11 9 -2 -8 -4 22
-2 -2 13 10 0 -7 -3 23
-2 -2 14 10 1 -7 -3 23
-2 0 14 11 2 -6 -3 23
1 1 13 9 0 -8 -4 22
3 1 11 8 -2 -9 -5 21
5 2 9 7 -3 -10 -7 19
7 2 8 6 -4 -11 -8 18
6 3 7 5 -5 -12 -8 18
3 3 8 6 -4 -11 -7 21
0 3 9 6 -3 -10 -6 23
-4 3 10 7 -2 -9 -4 26
-7 3 11 7 0 -9 -3 28
-8 2 11 8 1 -8 -2 29
-8 2 10 7 0 -8 -2 28
-8 2 8 7 0 -8 -2 27
-8 2 6 6 -2 -8 -2 26
-8 2 5 6 -2 -8 -2 26
-8 2 0 3 -5 -8 -3 24
-6 1 -7 0 -7 -11 -5 23
-3 0 -13 -4 -10 -14 -6 21
0 -3 -19 -8 -13 -16 -8 19
2 -4 -25 -11 -16 -19 -10 18
3 -5 -26 -11 -16 -19 -10 18
4 -4 -24 -10 -14 -17 -9 19
4 -3 -23 -8 -13 -15 -8 20
5 -3 -21 -7 -11 -13 -6 22
5 -2 -19 -5 -9 -11 -5 23
8 0 -18 -4 -8 -11 -5 23
11 0 -18 -5 -10 -12 -6 21
15 0 -18 -6 -11 -14 -8 18
18 0 -18 -7 -12 -15 -9 16
22 0 -18 -8 -13 -17 -11 14
20 1 -16 -8 -14 -17 -12 14
16 0 -15 -7 -12 -16 -10 15
11 -2 -14 -6 -11 -14 -9 16
7 -3 -12 -4 -10 -13 -8 18
3 -4 -11 -3 -9 -11 -7 19
1 -5 -9 -2 -8 -10 -6 20
1 -5 -7 -2 -9 -11 -7 19
1 -5 -6 -2 -9 -12 -8 18
1 -5 -4 -2 -10 -13 -9 17
1 -5 -2 -2 -10 -14 -10 16
-2 -5 0 -3 -11 -15 -11 14
-3 -6 0 -3 -11 -16 -13 12
-4 -7 0 -3 -12 -17 -14 10
-6 -7 0 -3 -12 -17 -15 8
-7 -8 0 -3 -12 -18 -16 6
-8 -9 1 -3 -13 -19 -17 3
-8 -9 1 -3 -13 -19 -18 1
-7 -9 1 -3 -13 -19 -18 -3
-7 -9 1 -3 -13 -19 -19 -6
-7 -9 1 -3 -13 -19 -19 -9
-6 -9 0 -4 -14 -20 -20 -10
-6 -8 2 -3 -13 -19 -20 -10
-6 -6 3 -2 -12 -19 -19 -10
-6 -5 4 0 -12 -18 -19 -10
-6 -3 5 1 -11 -18 -19 -10
-6 -2 6 2 -10 -17 -18 -10
-6 -3 5 2 -10 -17 -18 -10
-6 -4 5 1 -10 -17 -18 -10
-6 -4 4 1 -10 -17 -18 -10
-6 -5 4 1 -10 -17 -18 -10
-7 -6 3 0 -10 -18 -18 -9
-7 -6 3 0 -10 -18 -18 -10
-7 -6 3 0 -10 -17 -18 -10
-7 -6 3 0 -10 -17 -18 -11
-7 -6 3 0 -10 -17 -18 -11
-8 -7 2 -2 -10 -16 -18 -12
-6 -5 3 0 -9 -15 -17 -11
-5 -4 4 1 -8 -14 -17 -11
-4 -2 5 2 -8 -14 -16 -10
-3 0 6 3 -7 -13 -16 -10
-2 1 7 4 -6 -12 -15 -10
-3 -2 7 5 -6 -13 -17 -12
-4 -3 7 6 -6 -14 -18 -14
-5 -5 7 6 -6 -14 -19 -17
-6 -6 7 7 -6 -15 -20 -19
-7 -10 18 25 3 -16 -23 -23
-9 -14 32 50 14 -16 -26 -27
-10 -18 47 75 25 -15 -30 -31
-11 -23 62 101 37 -15 -33 -36
-12 -27 76 126 49 -15 -36 -40
-13 -27 85 157 75 -3 -36 -43
-15 -23 91 190 108 13 -31 -41
-16 -19 97 224 140 29 -27 -41
-18 -15 102 258 173 46 -23 -40
-19 -11 108 292 205 62 -19 -40
-14 10 94 277 232 93 4 -25
-4 37 69 242 258 131 33 -5
6 65 45 206 282 169 63 17
16 93 20 172 307 206 93 38
26 119 -5 136 331 243 122 59
40 147 -38 87 353 306 179 96
57 175 -77 32 372 380 248 139
73 202 -115 -22 393 452 318 183
90 230 -154 -77 412 526 387 226
106 258 -192 -132 433 599 456 269
115 279 -230 -187 434 667 518 306
121 298 -267 -243 427 730 577 340
127 315 -305 -300 419 795 637 373
132 334 -342 -356 410 858 696 407
138 352 -380 -411 403 923 755 441
130 354 -389 -441 343 877 724 430
113 347 -384 -460 258 778 650 395
97 340 -380 -477 173 680 576 361
80 332 -374 -495 88 581 503 326
64 325 -369 -513 3 483 428 293
52 294 -345 -491 -47 387 351 250
42 252 -311 -450 -77 292 272 201
32 210 -278 -408 -109 197 194 154
22 167 -244 -367 -141 102 115 107
13 125 -211 -325 -173 7 36 59
5 94 -183 -289 -182 -40 -5 29
-3 69 -157 -256 -181 -64 -27 7
-10 45 -133 -222 -179 -89 -51 -15
-16 20 -107 -188 -178 -113 -74 -37
-23 -5 -81 -154 -176 -138 -97 -59
-26 -17 -65 -129 -160 -137 -100 -67
-26 -24 -53 -108 -138 -122 -92 -66
-25 -30 -40 -87 -116 -108 -83 -65
-25 -37 -28 -65 -94 -93 -75 -64
-25 -44 -16 -44 -72 -78 -67 -63
-22 -46 -9 -30 -58 -69 -61 -62
-18 -43 -4 -20 -49 -63 -57 -60
-14 -40 1 -11 -39 -57 -52 -59
-11 -37 6 0 -30 -51 -48 -57
-7 -34 11 9 -21 -45 -43 -56
-7 -32 14 15 -15 -40 -40 -54
-10 -29 15 18 -12 -38 -39 -51
-14 -26 17 22 -9 -36 -37 -48
-18 -23 18 25 -6 -34 -36 -45
-21 -20 20 28 -3 -32 -35 -41
-22 -19 21 30 0 -31 -34 -40
-20 -18 21 30 0 -31 -34 -40
-17 -16 20 30 0 -32 -35 -41
-15 -15 19 30 0 -33 -35 -43
-12 -14 19 30 0 -33 -35 -43
-13 -13 18 29 1 -34 -36 -44
-16 -14 19 31 1 -34 -36 -44
-19 -16 20 32 2 -33 -36 -45
-22 -17 20 34 3 -33 -36 -45
-25 -18 21 35 3 -33 -36 -45
-25 -18 22 36 4 -32 -37 -46
-20 -17 23 37 4 -31 -37 -45
-16 -15 24 38 5 -30 -36 -44
-11 -14 24 38 5 -30 -36 -44
-7 -12 25 39 5 -29 -36 -43
-5 -11 26 40 6 -28 -35 -41
-5 -11 25 40 6 -28 -35 -41
-6 -11 24 39 6 -29 -36 -43
-6 -11 24 39 6 -30 -37 -44
-6 -11 23 39 6 -30 -37 -44
-8 -10 22 38 6 -31 -38 -45
-9 -10 22 39 6 -31 -38 -45
-11 -11 22 40 6 -31 -38 -45
-13 -12 22 42 6 -31 -38 -45
-15 -12 22 43 6 -31 -38 -45
-16 -13 23 44 7 -30 -38 -45
-16 -13 23 44 7 -30 -38 -45
-16 -13 23 44 7 -30 -38 -44
-16 -13 23 44 7 -30 -38 -43
-16 -13 23 44 7 -30 -38 -43
-15 -13 22 44 7 -29 -38 -41
-15 -13 22 44 7 -29 -38 -41
-14 -13 22 45 8 -29 -38 -41
-14 -13 22 46 8 -29 -38 -41
-14 -13 22 46 8 -29 -38 -41
-13 -12 23 47 9 -30 -39 -40
-13 -12 23 47 9 -30 -39 -41
-14 -13 24 46 9 -31 -40 -43
-15 -13 25 46 9 -31 -40 -43
-15 -13 25 46 9 -31 -40 -44
-16 -14 26 46 8 -32 -41 -44
-17 -14 26 48 9 -31 -40 -41
-18 -14 27 50 10 -30 -39 -39
-18 -14 28 52 11 -30 -38 -37
-19 -14 28 55 12 -29 -37 -35
-18 -15 29 56 13 -28 -36 -34
-15 -14 29 56 13 -29 -37 -34
-12 -12 29 56 12 -30 -38 -35
-8 -11 29 56 12 -30 -38 -36
-5 -10 29 56 12 -31 -39 -36
-3 -9 29 56 11 -32 -40 -37
-4 -10 29 56 11 -32 -40 -37
-6 -11 30 57 11 -33 -41 -37
-7 -12 30 57 11 -33 -43 -37
-8 -13 30 57 11 -33 -43 -37
-9 -14 31 58 10 -34 -44 -37
-11 -15 32 59 9 -35 -44 -36
-13 -17 33 60 8 -37 -43 -34
-14 -18 34 60 7 -38 -43 -33
-16 -19 35 61 6 -39 -43 -32
-17 -20 36 62 5 -40 -43 -32
-15 -20 37 61 4 -43 -45 -34
-14 -21 38 60 3 -45 -47 -36
-12 -21 38 60 3 -46 -49 -38
-11 -21 39 59 2 -48 -52 -41
-12 -22 42 58 1 -49 -53 -43
-17 -23 44 59 -2 -50 -53 -41
-21 -25 46 60 -3 -51 -53 -40
-26 -26 48 60 -5 -51 -53 -39
-31 -27 50 61 -6 -52 -53 -38
-32 -28 51 62 -8 -54 -55 -37
-30 -30 51 61 -12 -56 -57 -38
-28 -32 51 60 -15 -58 -60 -39
-26 -33 51 60 -18 -60 -62 -40
-24 -35 51 59 -21 -63 -65 -41
-23 -37 52 57 -25 -66 -67 -44
-22 -40 52 54 -29 -71 -69 -47
-21 -43 52 51 -32 -75 -71 -50
-21 -46 52 48 -36 -80 -73 -53
-20 -48 52 46 -40 -86 -75 -56
-20 -50 52 44 -43 -88 -77 -58
-22 -50 54 44 -45 -89 -78 -59
-25 -51 55 43 -46 -91 -80 -60
-27 -52 57 43 -48 -92 -82 -60
-30 -52 58 43 -49 -93 -85 -61
-31 -53 60 42 -50 -94 -86 -61
-31 -53 62 42 -51 -94 -85 -59
-32 -52 64 42 -52 -94 -82 -56
-33 -52 66 42 -53 -94 -81 -54
-33 -52 69 42 -54 -94 -80 -51
-33 -51 70 42 -56 -96 -80 -50
-31 -53 68 38 -59 -97 -82 -52
-29 -55 67 35 -62 -99 -85 -53
-27 -56 65 32 -65 -101 -87 -55
-24 -58 64 30 -67 -103 -89 -56
-23 -59 63 27 -69 -104 -90 -57
-24 -60 61 25 -71 -105 -91 -59
-26 -62 60 23 -72 -107 -92 -61
-27 -63 58 21 -74 -108 -92 -62
-28 -64 57 19 -75 -109 -93 -64
-29 -64 56 18 -76 -110 -94 -64
-28 -63 56 18 -76 -109 -93 -63
-27 -61 55 17 -75 -108 -92 -61
-26 -59 55 17 -75 -108 -92 -59
-25 -57 55 17 -75 -107 -91 -57
-25 -56 54 16 -73 -104 -89 -55
-29 -56 53 16 -70 -101 -85 -53
-32 -56 52 16 -67 -97 -81 -51
-35 -56 52 16 -64 -94 -78 -49
-38 -56 51 16 -62 -90 -75 -46
-38 -54 49 16 -60 -87 -72 -45
-34 -51 46 14 -58 -82 -69 -43
-29 -47 43 13 -56 -79 -67 -40
-25 -44 39 11 -55 -75 -64 -39
-20 -39 37 10 -53 -72 -62 -37
-18 -36 34 9 -52 -69 -59 -35
-18 -35 31 8 -50 -66 -57 -34
-18 -33 28 7 -48 -64 -55 -32
-18 -31 26 7 -47 -61 -53 -30
-18 -29 23 6 -45 -59 -50 -28
-19 -28 21 5 -43 -56 -48 -26
-20 -27 20 5 -39 -53 -45 -24
-21 -26 19 5 -36 -50 -43 -22
-22 -25 19 5 -34 -48 -39 -20
-23 -24 18 5 -31 -45 -37 -17
-24 -23 16 4 -29 -43 -35 -16
-22 -21 14 2 -29 -43 -35 -16
-20 -19 11 0 -30 -43 -36 -17
-19 -18 9 -3 -30 -43 -36 -18
-17 -16 7 -5 -30 -43 -36 -18
-15 -14 5 -6 -31 -44 -36 -19
-13 -12 5 -5 -29 -41 -35 -17
-11 -9 5 -4 -27 -39 -33 -15
-9 -7 5 -4 -26 -38 -31 -14
-7 -5 5 -3 -24 -36 -29 -12
-7 -3 5 -2 -23 -35 -28 -11
-9 -3 5 -2 -23 -35 -28 -11
-11 -4 5 0 -22 -34 -28 -11
-13 -5 5 0 -22 -34 -28 -11
-16 -5 5 0 -22 -34 -28 -11
-16 -5 5 1 -21 -33 -28 -10
-12 -2 5 1 -19 -31 -27 -9
-9 1 5 2 -17 -30 -25 -7
-5 4 5 3 -15 -29 -24 -6
-2 6 5 3 -13 -27 -23 -5
1 8 5 4 -12 -26 -22 -4
-2 8 5 4 -11 -26 -22 -4
-4 8 5 4 -10 -25 -22 -3
-6 8 5 4 -10 -25 -22 -2
-8 8 5 4 -9 -25 -22 -2
-9 8 5 5 -8 -24 -21 0
-8 7 5 5 -8 -24 -21 -2
-7 5 4 5 -8 -23 -21 -3
-6 4 3 5 -8 -23 -21 -3
-5 3 3 5 -8 -23 -21 -4
-4 2 2 4 -8 -22 -20 -5
-5 2 2 4 -7 -21 -20 -5
-7 2 2 5 -6 -20 -19 -4
-8 2 2 5 -6 -19 -18 -3
-9 2 2 5 -5 -18 -18 -3
-10 2 2 6 -4 -17 -17 -2
-9 2 2 6 -4 -17 -17 -2
-7 2 1 6 -3 -16 -17 -3
-6 2 1 6 -3 -15 -17 -4
-5 2 1 6 -3 -15 -17 -4
-4 2 0 5 -2 -14 -16 -5
-5 2 0 5 -2 -14 -16 -4
-6 3 -2 5 0 -13 -15 -3
-7 3 -2 5 1 -12 -15 -2
-8 3 -2 5 1 -12 -15 0
-8 4 -3 6 2 -11 -14 1
-6 4 -3 6 2 -11 -14 1
-4 3 -2 5 2 -10 -13 1
-2 2 -2 5 2 -10 -13 1
1 2 -2 5 2 -10 -13 1
3 1 0 4 1 -9 -12 0
3 1 0 4 1 -9 -12 0
3 2 -2 4 1 -8 -12 0
3 3 -2 4 1 -8 -12 0
3 3 -2 4 1 -8 -12 0
2 4 -3 4 1 -7 -11 -2
0 2 -3 4 1 -7 -11 -2
-2 1 -3 4 1 -7 -11 -2
-3 0 -3 4 1 -7 -11 -2
-5 -3 -3 4 1 -7 -11 -2
-5 -4 -4 4 2 -7 -11 0
-3 -2 -4 4 1 -7 -11 0
0 0 -4 3 0 -7 -11 -2
2 1 -4 3 0 -7 -11 -2
4 3 -4 3 -2 -7 -11 -2
5 4 -4 2 -3 -8 -11 -3
3 3 -4 2 -3 -8 -11 -3
1 1 -4 2 -2 -8 -11 -3
-2 0 -4 2 -2 -8 -11 -3
-4 -2 -4 2 -2 -8 -11 -3
-5 -3 -4 3 0 -8 -11 -2
-4 0 -4 3 0 -8 -11 -2
-2 1 -3 3 0 -8 -11 0
0 2 -2 3 0 -8 -11 1
1 4 -2 3 0 -8 -11 1
2 5 0 3 0 -8 -10 2
0 4 0 3 0 -8 -10 2
-3 3 0 3 0 -8 -10 1
-4 2 0 3 0 -8 -10 0
-6 1 0 3 0 -8 -10 0
-6 0 -2 3 -2 -9 -9 -2
-4 1 -2 3 -3 -10 -10 -2
-2 2 -3 2 -4 -10 -11 -3
2 3 -4 1 -5 -11 -12 -4
4 4 -4 1 -6 -12 -13 -4
5 5 -5 0 -7 -13 -14 -5
3 5 -4 0 -6 -13 -13 -4
0 4 -4 1 -6 -13 -13 -4
-4 3 -3 2 -5 -12 -12 -3
-6 3 -2 2 -4 -12 -11 -2
-7 2 0 3 -3 -11 -10 0
-5 2 -2 3 -4 -11 -11 0
-3 2 -2 2 -4 -11 -12 -2
1 2 -3 1 -5 -12 -14 -3
3 2 -4 1 -6 -12 -15 -3
5 1 -5 0 -7 -13 -16 -4
4 0 -5 0 -7 -14 -16 -5
3 -2 -5 0 -8 -14 -16 -5
2 -4 -5 -2 -9 -15 -16 -6
1 -5 -5 -2 -9 -16 -16 -7
0 -6 -6 -3 -10 -17 -17 -8
0 -5 -5 -3 -10 -17 -17 -7
0 -4 -5 -3 -10 -16 -17 -7
1 -2 -4 -2 -10 -15 -16 -6
1 0 -3 -2 -10 -15 -16 -5
2 1 -2 0 -9 -14 -15 -4
2 1 -2 0 -9 -14 -15 -4
2 1 -2 1 -9 -14 -15 -4
2 1 -2 2 -9 -14 -15 -4
2 1 -2 2 -9 -14 -15 -4
2 2 0 3 -8 -14 -14 -3
3 2 2 3 -8 -14 -14 -4
3 2 3 3 -8 -14 -14 -4
4 2 5 3 -8 -14 -15 -5
5 2 7 3 -8 -14 -15 -6
6 3 8 2 -9 -15 -16 -7
4 4 8 3 -8 -15 -15 -7
3 5 9 4 -7 -14 -14 -7
2 6 10 5 -6 -13 -13 -7
0 7 10 6 -5 -13 -12 -7
-2 8 11 7 -4 -12 -11 -6
-2 7 11 7 -4 -12 -12 -6
-2 7 10 6 -4 -12 -12 -7
-3 6 9 5 -5 -12 -13 -8
-3 5 9 5 -5 -12 -14 -8
-3 4 8 4 -6 -13 -15 -9
0 6 8 4 -6 -13 -15 -8
2 7 8 4 -6 -13 -14 -8
4 9 8 3 -6 -13 -13 -7
6 11 8 3 -6 -13 -13 -6
8 12 7 2 -6 -12 -12 -5
8 11 3 0 -8 -14 -13 -7
8 11 -3 -3 -9 -15 -14 -8
8 10 -8 -5 -11 -16 -16 -9
8 9 -13 -7 -13 -18 -17 -11
8 8 -16 -8 -14 -19 -18 -12
9 8 -18 -8 -14 -19 -17 -11
9 8 -19 -8 -14 -19 -17 -10
10 8 -20 -9 -15 -19 -16 -9
11 8 -22 -9 -15 -19 -15 -8
12 9 -23 -10 -16 -18 -14 -7
13 7 -23 -10 -16 -18 -14 -7
14 5 -23 -10 -16 -19 -14 -7
15 3 -22 -10 -17 -20 -14 -7
16 1 -22 -10 -17 -20 -14 -7
17 -2 -21 -11 -18 -21 -14 -7
17 -2 -20 -10 -18 -21 -14 -7
17 -2 -19 -10 -18 -21 -14 -7
16 -2 -17 -9 -17 -20 -14 -8
16 -2 -16 -8 -17 -20 -14 -8
15 0 -15 -7 -16 -19 -13 -9
14 0 -14 -7 -16 -19 -13 -8
14 0 -13 -6 -15 -18 -13 -8
13 0 -12 -5 -14 -17 -12 -7
12 0 -11 -5 -14 -17 -12 -6
11 0 -10 -4 -13 -16 -11 -5
11 -2 -8 -4 -13 -17 -12 -7
12 -3 -7 -4 -13 -18 -13 -8
13 -4 -6 -5 -14 -20 -15 -10
13 -5 -4 -5 -14 -21 -16 -12
14 -6 -3 -6 -15 -22 -17 -13
12 -6 0 -6 -15 -22 -17 -13
10 -6 1 -5 -15 -22 -17 -13
8 -6 2 -4 -15 -22 -17 -14
7 -6 4 -4 -15 -22 -17 -14
5 -6 5 -3 -15 -21 -18 -15
4 -7 5 -3 -15 -21 -18 -15
4 -8 6 -2 -15 -21 -18 -15
3 -10 7 0 -14 -21 -18 -16
2 -11 7 0 -14 -21 -18 -16
1 -12 8 1 -13 -20 -18 -17
1 -11 8 1 -13 -20 -17 -16
0 -11 8 1 -13 -19 -17 -15
-2 -10 8 2 -12 -18 -16 -14
-2 -9 8 2 -12 -18 -15 -13
-3 -8 7 3 -11 -17 -14 -12
-2 -7 7 3 -11 -17 -14 -13
1 -6 7 3 -11 -17 -14 -13
2 -4 7 3 -11 -17 -14 -14
4 -3 7 3 -11 -17 -14 -15
5 -2 7 4 -10 -16 -14 -16
5 -3 7 4 -10 -16 -14 -15
5 -3 7 4 -10 -16 -14 -15
5 -4 7 4 -10 -15 -13 -14
5 -5 7 4 -10 -15 -13 -13
5 -6 6 4 -10 -14 -12 -12
5 -7 6 4 -10 -14 -12 -12
5 -8 6 4 -10 -15 -13 -13
5 -9 5 3 -10 -16 -14 -14
5 -10 5 3 -10 -16 -14 -14
5 -11 6 3 -10 -17 -15 -15
5 -11 11 7 -9 -17 -17 -16
5 -11 17 12 -9 -17 -19 -18
4 -12 23 16 -8 -18 -21 -19
4 -12 28 20 -7 -18 -22 -21
3 -14 38 37 2 -19 -24 -23
2 -16 55 73 19 -17 -26 -27
0 -19 70 109 36 -15 -27 -30
-2 -22 87 145 55 -13 -29 -34
-4 -25 103 181 72 -12 -31 -37
-5 -23 110 206 96 -2 -29 -38
-2 -13 102 219 128 21 -19 -32
1 -2 94 231 158 44 -9 -25
3 10 86 243 190 66 2 -19
5 20 76 255 222 88 12 -12
13 39 58 243 251 121 35 5
29 71 24 191 274 173 80 35
46 103 -10 140 298 224 125 67
63 135 -44 89 321 275 170 98
79 167 -77 37 345 326 215 130
94 193 -112 -14 364 389 272 167
106 214 -149 -64 380 468 347 213
118 234 -187 -114 394 546 423 258
131 255 -224 -164 408 625 498 304
142 274 -261 -216 424 703 574 349
150 290 -296 -266 421 762 633 385
150 301 -326 -316 388 790 664 404
150 310 -356 -367 356 819 696 425
150 319 -387 -419 323 848 728 444
150 329 -416 -469 290 877 759 465
143 327 -427 -499 241 848 741 459
123 306 -403 -495 167 724 644 411
104 283 -380 -491 91 600 546 363
85 261 -355 -487 16 476 447 315
65 239 -331 -483 -59 352 349 267
49 212 -304 -464 -113 246 262 221
37 174 -272 -418 -132 169 193 176
25 137 -239 -372 -151 92 125 131
14 99 -207 -327 -170 14 55 86
3 62 -175 -282 -189 -64 -14 42
-6 33 -147 -243 -197 -113 -59 9
-7 20 -126 -215 -184 -116 -65 -3
-9 7 -105 -185 -172 -120 -71 -14
-10 -8 -83 -156 -158 -124 -77 -25
-12 -21 -62 -128 -145 -128 -85 -36
-13 -31 -46 -103 -132 -127 -87 -44
-12 -36 -35 -85 -115 -112 -79 -44
-11 -40 -25 -67 -99 -99 -72 -44
-10 -45 -15 -49 -82 -86 -66 -44
-9 -50 -6 -31 -66 -72 -59 -44
-8 -52 3 -17 -54 -62 -53 -44
-8 -49 6 -10 -47 -57 -50 -41
-7 -45 9 -3 -39 -52 -47 -39
-6 -40 12 5 -32 -47 -44 -37
-6 -37 15 12 -25 -41 -40 -36
-5 -34 18 18 -19 -37 -38 -34
-4 -31 21 21 -17 -36 -37 -32
-4 -29 24 24 -14 -35 -37 -31
-3 -27 26 27 -11 -34 -36 -29
-2 -25 29 30 -8 -33 -35 -28
0 -23 31 33 -6 -32 -34 -26
-3 -23 30 33 -6 -32 -34 -25
-4 -23 29 33 -6 -32 -33 -25
-6 -23 27 32 -6 -32 -32 -24
-7 -23 26 32 -6 -32 -32 -23
-9 -23 25 31 -6 -31 -31 -22
-8 -23 25 32 -6 -31 -31 -22
-7 -23 25 33 -6 -31 -31 -22
-6 -22 25 34 -6 -30 -31 -22
-5 -22 25 35 -6 -30 -31 -22
-4 -21 25 36 -7 -29 -30 -23
-3 -21 25 36 -7 -29 -31 -24
-2 -21 25 36 -7 -29 -31 -24
1 -20 26 37 -7 -30 -32 -25
2 -20 26 37 -7 -30 -33 -26
3 -19 27 38 -8 -31 -34 -27
0 -21 27 38 -7 -31 -34 -27
-4 -24 28 39 -6 -31 -34 -26
-6 -26 29 40 -5 -30 -33 -25
-9 -28 29 40 -4 -30 -33 -25
-11 -30 30 42 -3 -29 -32 -24
-11 -29 30 43 -3 -28 -32 -24
-11 -27 30 44 -2 -28 -32 -24
-10 -26 31 45 0 -27 -31 -23
-10 -24 31 46 0 -26 -31 -23
-9 -23 32 47 1 -25 -30 -22
-8 -24 32 47 1 -26 -30 -22
-8 -24 32 47 1 -26 -30 -23
-7 -25 31 47 1 -27 -31 -24
-6 -26 31 47 1 -28 -31 -24
-5 -27 30 48 0 -29 -32 -25
-6 -27 30 48 0 -29 -32 -25
-6 -26 30 48 0 -29 -32 -25
-7 -25 30 49 0 -29 -33 -26
-8 -25 30 49 0 -29 -33 -26
-9 -24 30 50 -2 -28 -34 -27
-10 -24 31 51 0 -28 -33 -27
-11 -25 31 53 2 -27 -33 -26
-12 -25 32 54 3 -27 -32 -26
-14 -26 33 56 5 -26 -31 -25
-15 -27 34 57 6 -25 -30 -24
-13 -27 34 56 4 -27 -32 -25
-12 -27 34 55 3 -28 -34 -26
-10 -27 33 54 1 -30 -36 -27
-9 -27 33 52 0 -31 -38 -28
-7 -27 32 51 -3 -33 -40 -29
-8 -27 34 53 -3 -33 -40 -29
-8 -28 35 55 -2 -33 -40 -30
-9 -28 37 57 -2 -33 -40 -30
-10 -29 38 59 0 -33 -40 -31
-11 -30 40 61 1 -33 -39 -32
-11 -32 40 61 1 -33 -39 -32
-11 -34 40 60 0 -33 -39 -32
-11 -36 40 60 0 -33 -39 -31
-11 -38 40 59 -2 -33 -39 -31
-11 -40 40 58 -3 -33 -38 -30
-11 -40 42 58 -3 -33 -38 -30
-12 -40 42 59 -3 -34 -39 -30
-12 -40 43 59 -4 -34 -39 -30
-13 -40 44 60 -4 -35 -40 -30
-14 -39 45 61 -5 -36 -41 -31
-15 -39 46 61 -7 -38 -43 -32
-15 -39 47 61 -9 -39 -43 -33
-16 -40 48 60 -11 -41 -44 -34
-17 -40 49 60 -13 -43 -45 -35
-18 -41 50 59 -15 -46 -46 -36
-16 -44 51 58 -18 -49 -49 -38
-15 -46 52 58 -21 -52 -52 -41
-13 -48 53 57 -23 -56 -55 -44
-12 -50 54 56 -26 -59 -58 -46
-10 -52 55 55 -28 -62 -60 -48
-13 -52 58 55 -29 -62 -60 -48
-16 -53 60 55 -30 -63 -60 -47
-19 -53 62 54 -31 -63 -60 -47
-22 -54 65 54 -33 -64 -60 -46
-24 -55 67 53 -34 -65 -60 -45
-23 -56 67 52 -38 -68 -63 -46
-23 -57 67 52 -41 -71 -65 -47
-22 -58 67 51 -45 -74 -67 -48
-21 -59 67 50 -48 -77 -70 -49
-20 -60 68 49 -51 -80 -72 -50
-20 -62 68 45 -55 -83 -74 -53
-19 -64 68 42 -58 -86 -76 -56
-19 -66 68 38 -61 -89 -78 -59
-18 -68 68 35 -64 -92 -80 -62
-17 -70 68 32 -67 -94 -82 -64
-21 -71 69 31 -68 -94 -82 -64
-24 -71 69 31 -70 -95 -82 -64
-27 -72 70 30 -71 -95 -82 -63
-30 -73 71 29 -73 -96 -82 -63
-33 -74 72 28 -74 -97 -82 -62
-32 -76 71 26 -77 -98 -85 -62
-32 -78 70 24 -79 -100 -87 -63
-31 -79 69 22 -81 -101 -88 -63
-30 -81 68 20 -85 -103 -90 -64
-29 -83 67 18 -87 -104 -92 -65
-29 -81 66 16 -87 -104 -91 -65
-29 -79 65 14 -87 -104 -91 -65
-30 -78 64 13 -87 -104 -90 -65
-30 -76 63 11 -87 -104 -89 -65
-31 -74 62 9 -87 -105 -88 -66
-33 -74 62 9 -86 -104 -87 -64
-36 -74 61 9 -85 -103 -86 -61
-38 -74 61 9 -83 -102 -85 -59
-40 -74 60 9 -81 -100 -83 -57
-41 -73 59 9 -80 -99 -81 -55
-36 -72 58 9 -77 -95 -78 -53
-31 -70 56 9 -75 -92 -74 -51
-25 -69 55 8 -72 -88 -71 -50
-20 -68 54 8 -69 -85 -67 -48
-16 -66 52 7 -67 -80 -64 -46
-16 -62 49 7 -64 -76 -61 -44
-16 -59 47 7 -61 -72 -58 -41
-17 -55 44 6 -58 -68 -55 -39
-17 -52 40 6 -56 -64 -53 -37
-18 -49 38 5 -53 -61 -50 -35
-18 -46 34 4 -51 -59 -49 -35
-18 -44 31 2 -50 -58 -48 -34
-18 -41 28 1 -48 -56 -47 -34
-18 -38 25 0 -47 -55 -45 -33
-18 -36 22 -3 -45 -52 -44 -32
-18 -33 22 -3 -41 -49 -39 -28
-18 -30 22 -2 -38 -45 -35 -25
-18 -27 21 -2 -35 -40 -32 -21
-18 -24 21 0 -32 -36 -28 -18
-18 -21 20 1 -29 -33 -25 -15
-15 -20 18 0 -28 -33 -25 -15
-12 -19 16 0 -27 -33 -25 -15
-9 -18 14 -2 -26 -32 -25 -15
-6 -16 12 -3 -25 -32 -25 -15
-3 -15 10 -4 -24 -31 -24 -16
-5 -14 10 -4 -23 -29 -22 -14
-7 -13 10 -4 -21 -27 -20 -13
-8 -12 10 -3 -20 -26 -19 -11
-10 -10 10 -3 -19 -24 -17 -10
-12 -9 11 -2 -17 -22 -15 -8
-11 -9 11 -2 -17 -22 -15 -8
-10 -9 11 0 -17 -22 -15 -8
-9 -9 11 0 -16 -22 -15 -9
-7 -9 11 1 -16 -22 -15 -9
-6 -8 10 2 -15 -22 -16 -10
-6 -8 10 2 -15 -22 -16 -10
-6 -8 10 2 -15 -21 -16 -10
-5 -7 10 3 -15 -21 -15 -9
-5 -7 10 3 -15 -20 -15 -9
-4 -6 9 4 -14 -19 -14 -8
-4 -6 8 4 -14 -19 -14 -8
-5 -7 7 4 -14 -19 -14 -8
-5 -7 6 4 -13 -19 -13 -8
-6 -8 5 4 -13 -19 -13 -8
-7 -9 4 3 -12 -18 -12 -9
-7 -8 5 3 -11 -17 -12 -9
-6 -6 7 4 -10 -15 -11 -8
-6 -5 8 4 -9 -14 -11 -7
-5 -4 9 5 -7 -13 -10 -6
-4 -2 11 6 -6 -11 -9 -5
-4 -3 9 6 -6 -11 -9 -6
-4 -4 7 6 -6 -11 -9 -7
-4 -5 5 5 -7 -12 -9 -8
-4 -6 3 5 -7 -12 -9 -9
-3 -7 1 4 -8 -13 -10 -10
-3 -7 2 4 -8 -12 -9 -9
-3 -7 3 5 -7 -11 -7 -7
-4 -7 4 5 -6 -10 -6 -5
-4 -7 5 6 -5 -8 -5 -4
-5 -7 6 7 -4 -7 -3 -2
-5 -7 5 7 -4 -7 -3 -3
-5 -8 3 7 -4 -7 -4 -4
-6 -8 2 6 -4 -7 -5 -5
-6 -9 1 6 -4 -7 -6 -7
-7 -10 -2 5 -4 -8 -7 -8
-5 -10 -2 5 -4 -7 -6 -7
-3 -10 0 6 -3 -5 -4 -6
0 -9 1 7 -2 -4 -2 -5
2 -9 2 8 0 -3 0 -3
4 -8 3 9 1 0 2 -2
3 -8 3 9 2 0 2 -2
2 -7 4 10 3 1 3 0
1 -7 4 11 4 2 3 0
-2 -6 5 12 6 3 4 1
-3 -5 6 13 7 4 5 2
-2 -5 6 12 6 4 5 1
1 -5 5 11 5 4 4 0
2 -5 4 10 4 3 4 -2
3 -5 3 8 3 3 3 -4
5 -6 2 7 2 2 2 -5
3 -7 2 7 2 2 2 -5
1 -9 1 7 2 1 2 -5
-3 -10 0 7 1 0 1 -5
-5 -11 -2 7 1 -2 1 -5
-7 -13 -3 6 0 -3 0 -4
-5 -13 -3 6 0 -3 0 -4
-3 -12 -2 6 0 -3 0 -4
0 -11 -2 6 0 -2 0 -4
2 -10 0 6 0 -2 0 -4
4 -9 1 7 0 0 1 -4
4 -9 1 7 0 0 1 -4
3 -9 1 7 1 0 1 -4
2 -9 0 8 1 0 1 -4
1 -9 0 8 2 0 1 -4
0 -8 -2 9 3 0 1 -4
0 -8 -2 9 2 0 1 -4
0 -8 -2 8 1 -2 1 -3
0 -8 0 7 0 -2 2 -2
0 -8 0 6 -3 -3 2 0
1 -7 1 5 -4 -4 3 1
1 -7 1 5 -4 -5 1 0
1 -8 0 5 -4 -6 0 -2
1 -8 -2 4 -5 -7 -3 -3
1 -9 -3 4 -5 -8 -5 -5
2 -10 -4 3 -6 -9 -7 -6
1 -11 -4 3 -6 -9 -7 -6
-2 -13 -3 3 -6 -9 -6 -5
-4 -14 -2 3 -6 -9 -6 -4
-5 -15 0 3 -6 -9 -5 -3
-7 -17 1 3 -6 -9 -4 -2
-5 -15 1 3 -6 -9 -4 -2
-3 -13 1 3 -5 -8 -4 0
1 -10 1 3 -5 -8 -3 0
3 -8 1 3 -4 -7 -3 1
5 -6 0 4 -3 -6 -2 2
4 -8 -2 3 -4 -8 -3 1
2 -9 -3 2 -6 -9 -4 0
0 -11 -4 1 -8 -11 -5 -2
-2 -13 -6 0 -9 -13 -6 -4
-4 -15 -7 -2 -11 -15 -7 -5
1 -13 -7 -2 -11 -15 -7 -6
5 -11 -6 -2 -11 -15 -8 -8
9 -9 -5 -2 -10 -15 -9 -9
12 -7 -4 -2 -10 -15 -10 -10
16 -5 -3 0 -9 -14 -11 -12
14 -4 -2 1 -8 -13 -10 -10
13 -3 0 2 -7 -12 -9 -9
11 -2 1 3 -6 -11 -8 -7
9 1 3 5 -5 -10 -6 -5
7 2 4 6 -4 -9 -5 -3
6 4 6 7 -3 -9 -5 -3
4 5 8 8 -2 -9 -5 -3
2 7 10 9 0 -9 -4 -3
1 9 12 10 1 -9 -4 -3
-2 11 14 11 2 -8 -3 -3
2 11 13 10 1 -8 -3 -3
4 11 11 8 -2 -9 -4 -3
7 10 9 7 -3 -9 -5 -3
9 10 8 6 -4 -10 -6 -3
12 9 6 4 -6 -11 -7 -4
12 8 6 4 -6 -11 -8 -5
12 7 6 4 -6 -12 -9 -6
12 6 5 3 -6 -12 -10 -7
12 5 5 3 -6 -13 -11 -8
13 4 4 2 -7 -14 -12 -10
11 4 4 2 -7 -14 -11 -8
8 4 4 2 -7 -13 -10 -7
6 4 4 1 -7 -13 -9 -5
4 4 4 1 -7 -12 -8 -3
1 4 3 0 -7 -11 -6 0
1 3 -3 -2 -8 -12 -6 0
1 2 -7 -4 -10 -13 -7 0
1 1 -11 -6 -11 -14 -8 -2
1 0 -16 -7 -12 -15 -9 -2
0 -3 -20 -9 -14 -17 -10 -3
1 -3 -20 -9 -14 -17 -9 -3
3 -3 -20 -8 -13 -16 -8 -2
5 -4 -20 -8 -13 -15 -7 -2
6 -4 -20 -7 -12 -14 -6 0
8 -5 -20 -6 -11 -13 -5 1
10 -5 -20 -6 -11 -13 -5 1
11 -5 -19 -6 -12 -14 -6 0
13 -6 -19 -6 -12 -14 -7 0
15 -6 -18 -6 -13 -15 -8 -2
17 -7 -17 -7 -14 -16 -9 -3
15 -7 -17 -7 -14 -16 -9 -3
14 -8 -16 -7 -14 -16 -9 -4
12 -8 -16 -6 -14 -16 -9 -4
10 -9 -15 -6 -14 -16 -9 -5
8 -10 -14 -5 -14 -15 -8 -6
7 -10 -12 -5 -14 -15 -8 -5
6 -10 -10 -5 -13 -15 -8 -4
5 -9 -8 -4 -13 -15 -8 -3
4 -9 -5 -4 -12 -15 -8 -2
2 -8 -3 -3 -11 -15 -8 0
3 -8 -3 -3 -11 -15 -9 -2
4 -8 -3 -3 -12 -16 -10 -4
5 -8 -3 -3 -12 -16 -11 -6
6 -8 -3 -3 -13 -17 -12 -7
7 -9 -2 -3 -14 -18 -14 -9
6 -9 0 -3 -14 -18 -14 -10
5 -10 1 -3 -14 -18 -14 -11
4 -11 2 -2 -14 -18 -15 -12
3 -12 3 -2 -14 -18 -15 -13
1 -13 4 0 -13 -19 -16 -14
1 -12 4 0 -13 -19 -16 -14
0 -11 4 0 -13 -19 -16 -14
-2 -10 4 1 -12 -19 -16 -14
-3 -9 4 1 -12 -19 -16 -14
-4 -8 4 2 -11 -19 -15 -15
-4 -8 4 2 -11 -19 -15 -14
-3 -8 4 2 -11 -19 -15 -12
-2 -8 4 2 -10 -19 -14 -11
0 -8 4 2 -10 -19 -14 -9
1 -7 4 2 -9 -18 -13 -7
1 -7 4 2 -9 -18 -13 -7
0 -7 4 2 -9 -18 -13 -8
0 -7 4 2 -9 -18 -12 -8
-2 -7 4 2 -9 -18 -12 -9
-3 -7 4 3 -9 -17 -11 -10
-3 -8 4 3 -9 -17 -11 -10
-3 -9 4 3 -9 -17 -11 -10
-3 -10 4 2 -9 -17 -12 -11
-3 -11 4 2 -9 -17 -12 -11
-4 -12 3 1 -10 -17 -13 -12
-4 -12 3 1 -10 -17 -13 -12
-4 -12 4 1 -10 -17 -13 -12
-4 -12 5 2 -10 -17 -14 -12
-4 -12 6 2 -10 -17 -14 -12
-4 -13 8 4 -10 -18 -15 -12
-6 -14 19 19 -6 -20 -18 -15
-8 -15 30 34 0 -23 -22 -17
-10 -16 42 49 4 -26 -25 -20
-12 -17 53 64 9 -28 -28 -23
-14 -18 63 81 15 -30 -32 -26
-13 -19 72 118 42 -20 -31 -29
-12 -20 80 155 68 -9 -29 -33
-10 -22 89 192 95 2 -28 -36
-9 -23 97 228 120 13 -26 -39
-7 -23 103 261 148 26 -22 -43
3 1 84 244 181 62 4 -23
12 25 63 228 214 98 29 -4
20 49 43 212 246 135 54 16
29 72 22 195 279 171 79 35
38 97 1 175 311 209 108 56
52 126 -39 113 327 272 169 96
66 153 -78 53 344 335 229 135
80 182 -117 -9 359 397 289 174
94 211 -157 -70 376 460 350 214
107 237 -196 -131 391 523 411 253
118 253 -237 -187 388 597 485 296
130 268 -279 -243 386 671 558 338
140 283 -320 -300 383 744 631 380
151 299 -361 -356 380 818 704 423
160 313 -399 -410 371 882 770 462
147 314 -403 -442 308 835 746 454
134 316 -408 -473 244 787 724 447
120 317 -412 -505 180 739 701 440
107 319 -416 -536 116 692 679 433
94 319 -420 -563 54 638 648 422
80 283 -389 -528 6 517 538 363
66 248 -357 -493 -44 396 428 305
52 214 -326 -460 -93 275 317 246
37 179 -295 -425 -142 154 206 189
24 144 -264 -390 -187 39 102 133
18 116 -233 -353 -193 -3 59 98
13 88 -203 -315 -199 -45 17 64
7 60 -173 -278 -205 -87 -26 29
2 32 -142 -240 -212 -130 -69 -6
-5 6 -112 -203 -217 -168 -109 -37
-8 -6 -96 -176 -193 -152 -101 -39
-11 -17 -78 -148 -169 -137 -93 -41
-14 -28 -61 -119 -145 -121 -85 -44
-18 -39 -45 -92 -121 -106 -76 -46
-21 -50 -28 -65 -99 -91 -68 -49
-21 -50 -20 -51 -87 -82 -63 -47
-21 -50 -12 -37 -74 -74 -58 -44
-20 -49 -4 -24 -62 -66 -53 -41
-20 -49 5 -11 -50 -58 -47 -38
-19 -48 13 3 -38 -50 -41 -35
-17 -44 14 7 -34 -48 -40 -35
-15 -39 15 11 -30 -46 -39 -35
-12 -35 16 15 -26 -43 -38 -35
-10 -30 17 20 -21 -40 -37 -35
-7 -26 19 24 -17 -37 -35 -35
-8 -26 20 25 -17 -37 -35 -34
-9 -25 21 27 -17 -37 -34 -32
-10 -25 22 29 -16 -37 -33 -31
-11 -24 23 31 -16 -37 -32 -29
-13 -23 24 33 -15 -38 -31 -27
-13 -22 24 33 -14 -37 -31 -27
-13 -21 24 33 -13 -36 -31 -28
-13 -20 24 33 -12 -35 -31 -28
-13 -19 24 33 -11 -34 -31 -29
-14 -18 25 34 -10 -33 -30 -30
-14 -19 25 34 -10 -33 -30 -30
-15 -20 25 34 -10 -33 -31 -30
-16 -21 25 34 -10 -34 -31 -31
-17 -22 25 34 -10 -34 -32 -31
-18 -24 25 35 -11 -35 -33 -32
-16 -23 25 35 -11 -35 -33 -32
-13 -21 25 35 -11 -35 -33 -32
-11 -20 25 35 -12 -35 -33 -32
-8 -18 25 35 -12 -35 -33 -32
-5 -16 25 36 -13 -35 -33 -31
-6 -17 25 37 -13 -35 -33 -31
-7 -18 26 38 -13 -35 -33 -32
-8 -19 26 39 -12 -35 -33 -32
-9 -20 27 40 -12 -35 -33 -33
-11 -21 28 42 -11 -35 -33 -34
-11 -21 28 42 -11 -35 -33 -34
-12 -21 27 42 -11 -36 -34 -34
-12 -21 27 42 -11 -36 -34 -35
-13 -21 26 42 -11 -37 -35 -35
-14 -21 25 40 -12 -38 -36 -36
-14 -21 25 40 -12 -38 -36 -37
-13 -21 25 42 -12 -39 -37 -38
-12 -22 25 43 -12 -39 -38 -39
-11 -22 25 44 -12 -40 -39 -40
-10 -23 25 45 -13 -41 -40 -41
-12 -22 26 46 -12 -40 -39 -39
-14 -21 27 47 -10 -39 -38 -37
-16 -20 28 48 -9 -37 -36 -35
-18 -19 29 49 -7 -36 -35 -33
-20 -18 31 50 -5 -34 -33 -31
-18 -18 31 50 -5 -34 -34 -33
-15 -19 31 50 -5 -35 -35 -35
-13 -20 31 50 -6 -36 -36 -38
-10 -21 31 50 -6 -37 -37 -40
-7 -22 30 49 -7 -38 -39 -44
-8 -22 30 50 -7 -38 -39 -43
-9 -22 31 51 -7 -38 -38 -40
-11 -22 31 52 -6 -38 -38 -39
-12 -22 32 53 -6 -38 -37 -37
-14 -21 33 54 -5 -37 -36 -35
-14 -21 34 54 -5 -37 -36 -35
-15 -21 35 55 -5 -37 -37 -35
-15 -21 36 55 -5 -38 -37 -36
-16 -21 37 56 -5 -38 -38 -36
-17 -22 39 57 -6 -39 -39 -37
-17 -22 39 57 -6 -40 -40 -38
-17 -23 39 57 -7 -41 -41 -40
-17 -24 39 57 -8 -43 -43 -43
-17 -25 39 57 -9 -44 -44 -45
-16 -26 40 56 -10 -46 -46 -47
-17 -27 40 56 -11 -48 -46 -47
-18 -28 42 56 -13 -50 -47 -47
-19 -30 42 56 -15 -52 -47 -47
-20 -31 43 56 -17 -54 -48 -47
-22 -33 44 55 -19 -56 -49 -48
-21 -33 44 55 -20 -57 -50 -49
-19 -32 45 54 -22 -58 -51 -50
-18 -32 46 54 -24 -59 -53 -52
-16 -31 47 53 -26 -60 -54 -53
-14 -30 48 52 -28 -62 -56 -55
-15 -32 50 52 -29 -63 -56 -55
-16 -34 53 53 -30 -64 -57 -55
-18 -37 56 53 -31 -66 -57 -55
-19 -39 59 54 -32 -67 -58 -55
-21 -43 62 55 -33 -69 -59 -56
-22 -45 62 53 -35 -71 -61 -58
-23 -47 62 51 -38 -74 -64 -60
-24 -50 62 49 -41 -76 -66 -62
-25 -52 62 47 -45 -79 -69 -64
-26 -55 62 45 -48 -82 -72 -66
-26 -55 62 44 -51 -85 -73 -66
-25 -55 62 42 -54 -88 -74 -67
-24 -55 63 40 -56 -90 -76 -67
-23 -55 63 38 -59 -93 -77 -68
-23 -55 63 37 -62 -95 -78 -68
-23 -57 64 35 -65 -97 -79 -69
-24 -59 64 33 -67 -99 -80 -70
-26 -60 64 31 -70 -101 -81 -71
-27 -62 64 29 -72 -103 -82 -72
-28 -63 64 27 -74 -105 -83 -72
-29 -64 65 25 -76 -107 -86 -73
-29 -65 65 23 -78 -108 -87 -74
-28 -66 66 22 -80 -109 -88 -75
-28 -67 66 20 -82 -110 -89 -76
-28 -68 66 19 -83 -111 -90 -76
-27 -69 67 18 -85 -112 -91 -77
-28 -68 66 17 -86 -112 -91 -77
-28 -67 65 16 -86 -113 -91 -77
-29 -66 64 15 -87 -113 -91 -77
-29 -66 64 14 -87 -113 -91 -77
-31 -65 63 12 -88 -114 -90 -77
-32 -66 63 10 -89 -114 -89 -75
-33 -67 62 9 -89 -114 -88 -74
-34 -68 62 7 -90 -114 -87 -72
-35 -68 62 6 -90 -114 -87 -71
-36 -68 59 4 -91 -113 -86 -70
-35 -67 56 2 -90 -112 -86 -71
-34 -65 53 1 -90 -111 -85 -71
-33 -64 50 -2 -89 -110 -85 -72
-32 -63 47 -3 -89 -109 -85 -72
-30 -60 45 -4 -86 -104 -81 -71
-29 -58 44 -3 -83 -100 -79 -69
-27 -55 42 -3 -81 -96 -76 -66
-26 -53 40 -2 -79 -92 -74 -64
-25 -51 39 -2 -77 -88 -72 -62
-23 -47 37 0 -73 -83 -68 -59
-21 -43 35 -2 -69 -80 -64 -56
-20 -39 33 -2 -66 -77 -60 -53
-18 -35 31 -3 -62 -74 -56 -50
-17 -32 29 -3 -59 -71 -52 -47
-16 -28 27 -4 -56 -67 -48 -43
-15 -25 26 -4 -53 -64 -45 -39
-14 -22 24 -4 -50 -60 -40 -36
-13 -19 23 -4 -47 -57 -37 -33
-12 -16 22 -4 -45 -54 -34 -30
-11 -15 19 -4 -43 -52 -33 -29
-11 -15 17 -5 -41 -51 -32 -29
-12 -15 15 -6 -40 -50 -32 -28
-12 -15 13 -7 -39 -49 -31 -28
-12 -15 11 -7 -38 -48 -31 -28
-12 -15 10 -8 -36 -47 -30 -27
-10 -13 10 -8 -34 -46 -29 -26
-8 -12 9 -8 -33 -45 -28 -26
-6 -10 9 -8 -31 -44 -27 -25
-4 -9 9 -8 -30 -44 -26 -25
-4 -8 7 -9 -29 -43 -25 -24
-6 -8 6 -9 -29 -41 -24 -23
-7 -9 5 -8 -28 -40 -24 -22
-9 -9 4 -8 -28 -39 -23 -21
-10 -9 3 -8 -28 -38 -23 -21
-9 -8 2 -7 -26 -36 -22 -20
-7 -6 3 -6 -24 -35 -21 -19
-4 -4 3 -6 -23 -33 -20 -19
-2 -2 4 -5 -21 -32 -19 -18
1 1 4 -5 -20 -31 -19 -18
1 2 6 -3 -18 -29 -17 -17
-2 2 7 -2 -17 -28 -15 -16
-3 3 8 1 -16 -26 -14 -15
-5 3 9 2 -15 -25 -12 -14
-6 3 10 3 -14 -24 -11 -13
-7 4 10 4 -13 -23 -10 -12
-6 3 8 3 -13 -23 -11 -12
-5 2 7 3 -13 -23 -11 -12
-4 1 5 2 -13 -23 -12 -12
-3 0 4 2 -13 -23 -12 -12
2 -2 3 1 -14 -24 -13 -13
5 0 3 1 -13 -23 -13 -13
9 0 4 1 -13 -23 -12 -13
13 1 4 1 -12 -22 -12 -13
16 1 4 1 -12 -22 -12 -13
14 2 5 2 -10 -20 -11 -14
10 3 5 3 -9 -19 -10 -14
6 3 4 4 -8 -18 -9 -14
3 4 4 5 -7 -17 -8 -14
-2 4 4 5 -6 -16 -8 -14
0 5 3 6 -5 -14 -6 -12
2 5 3 7 -4 -12 -5 -11
5 6 3 7 -3 -11 -4 -10
7 6 3 8 -2 -9 -3 -9
9 6 3 8 0 -8 -2 -8
9 6 2 9 1 -7 0 -7
8 5 2 9 1 -7 0 -7
6 3 2 9 1 -6 0 -7
5 2 2 9 1 -6 0 -7
4 1 2 9 1 -6 0 -7
3 1 3 8 1 -5 0 -7
4 2 2 8 2 -4 0 -7
5 4 1 8 2 -3 0 -8
6 5 0 8 3 -2 0 -8
7 6 0 8 3 -2 0 -8
8 7 -2 7 4 0 0 -9
7 6 -2 7 3 -2 0 -10
7 6 -2 6 3 -3 -2 -10
6 5 -2 6 2 -4 -2 -11
6 5 -2 6 2 -4 -2 -11
5 4 -3 5 1 -5 -3 -12
4 3 -3 5 1 -5 -3 -11
3 3 -3 5 1 -5 -3 -11
2 2 -3 5 1 -5 -3 -10
1 2 -3 5 1 -5 -3 -10
2 2 -2 5 0 -5 -2 -9
5 4 0 6 0 -5 -2 -8
8 5 0 6 1 -4 0 -8
10 7 1 7 1 -4 0 -7
13 8 1 7 1 -4 0 -7
14 8 0 7 2 -4 0 -6
14 7 -3 6 1 -5 -2 -7
13 6 -5 4 0 -7 -4 -8
13 5 -7 3 -2 -8 -5 -9
13 4 -9 2 -2 -9 -6 -9
12 3 -9 1 -3 -10 -7 -10
11 3 -8 2 -3 -9 -7 -10
10 4 -7 2 -2 -9 -6 -10
9 4 -6 3 -2 -8 -6 -10
9 4 -5 3 -2 -8 -6 -10
8 5 -4 4 0 -7 -5 -9
7 5 -4 4 -2 -7 -5 -9
6 4 -4 4 -2 -7 -5 -8
5 4 -4 4 -3 -7 -5 -8
4 4 -4 4 -3 -7 -5 -8
3 3 -4 4 -5 -8 -5 -8
4 2 -5 3 -6 -9 -7 -9
5 1 -6 2 -7 -11 -8 -11
6 0 -7 1 -8 -12 -10 -12
7 0 -7 0 -9 -13 -11 -13
8 -2 -8 -2 -10 -14 -12 -14
8 0 -8 -2 -10 -14 -12 -13
8 1 -7 0 -10 -13 -11 -12
8 2 -7 0 -10 -13 -11 -11
8 2 -7 0 -10 -13 -11 -11
7 2 -6 1 -9 -12 -10 -10
5 1 -6 1 -9 -13 -10 -10
4 -2 -6 1 -10 -13 -11 -10
2 -3 -6 1 -10 -14 -11 -10
1 -4 -6 1 -10 -14 -11 -10
2 -4 -7 0 -11 -15 -12 -11
4 0 -7 0 -10 -15 -12 -11
6 2 -6 1 -9 -15 -11 -11
9 4 -6 1 -8 -15 -11 -11
11 6 -6 1 -8 -15 -11 -11
11 7 -5 2 -7 -14 -10 -11
9 6 -4 2 -7 -14 -10 -11
8 6 -4 2 -7 -14 -10 -11
6 5 -3 2 -7 -14 -10 -11
5 5 -3 2 -7 -14 -10 -11
4 5 -2 3 -8 -14 -11 -10
4 7 0 4 -7 -13 -11 -9
5 9 1 5 -6 -12 -10 -8
5 11 2 6 -5 -11 -10 -7
5 13 3 7 -5 -11 -10 -7
6 14 4 8 -4 -10 -10 -7
6 14 5 8 -4 -11 -11 -8
6 14 6 7 -5 -12 -12 -10
6 14 7 7 -5 -13 -13 -11
6 14 8 7 -5 -13 -14 -12
8 14 8 5 -6 -14 -15 -13
9 14 7 4 -7 -14 -15 -13
10 14 5 3 -7 -14 -15 -13
11 14 4 2 -8 -14 -15 -13
12 14 3 1 -8 -14 -15 -13
11 14 2 0 -9 -15 -14 -12
9 13 2 0 -9 -15 -13 -12
6 12 2 0 -9 -16 -13 -11
3 11 2 0 -9 -16 -12 -11
1 10 2 0 -9 -16 -12 -11
2 9 0 -2 -11 -18 -12 -10
5 9 -6 -4 -13 -19 -14 -11
8 9 -11 -7 -15 -21 -16 -12
10 9 -15 -10 -18 -23 -17 -13
13 9 -20 -12 -20 -24 -19 -13
13 9 -21 -13 -20 -24 -19 -13
10 9 -22 -12 -19 -23 -17 -11
8 9 -23 -11 -18 -22 -15 -9
6 9 -24 -10 -17 -20 -14 -8
4 9 -24 -10 -16 -19 -12 -6
6 7 -25 -9 -15 -18 -12 -6
10 4 -25 -9 -16 -19 -13 -7
13 2 -25 -9 -17 -20 -14 -8
17 0 -25 -9 -18 -21 -15 -10
21 -3 -25 -9 -18 -22 -16 -11
20 -4 -24 -9 -19 -22 -16 -11
17 -4 -21 -8 -18 -21 -15 -10
13 -4 -19 -7 -17 -20 -14 -9
10 -4 -17 -5 -16 -19 -12 -8
7 -4 -15 -4 -16 -18 -11 -7
7 -4 -14 -3 -15 -17 -10 -6
8 -4 -14 -4 -15 -17 -10 -6
9 -5 -14 -5 -16 -17 -10 -6
10 -5 -14 -6 -16 -17 -10 -6
11 -5 -14 -6 -16 -17 -10 -6
11 -5 -12 -7 -17 -18 -11 -6
10 -4 -10 -6 -17 -18 -12 -7
8 -3 -8 -5 -16 -19 -12 -8
6 0 -6 -4 -16 -19 -13 -9
5 1 -4 -4 -16 -19 -13 -10
4 2 -3 -3 -15 -20 -14 -11
3 1 -3 -3 -15 -20 -15 -11
2 0 -2 -3 -15 -20 -15 -11
1 -2 -2 -3 -15 -20 -16 -11
1 -3 -2 -3 -15 -20 -16 -11
0 -4 0 -3 -16 -20 -17 -13
1 -5 0 -3 -16 -21 -19 -15
2 -5 0 -3 -16 -22 -20 -17
3 -6 0 -3 -16 -23 -21 -18
4 -6 0 -3 -16 -24 -22 -20
3 -7 1 -3 -17 -24 -22 -20
0 -7 2 -2 -16 -23 -21 -18
-5 -7 3 0 -15 -22 -20 -16
-8 -7 4 1 -14 -20 -18 -14
-11 -7 4 1 -13 -19 -17 -12
-10 -8 5 2 -12 -18 -16 -11
-7 -8 3 1 -13 -19 -16 -12
-4 -8 2 0 -14 -19 -17 -13
0 -8 1 -2 -15 -20 -17 -14
3 -8 0 -2 -15 -20 -17 -14
4 -9 -2 -3 -16 -21 -18 -15
5 -8 -2 -3 -16 -21 -18 -15
6 -7 0 -3 -16 -21 -18 -16
7 -6 0 -3 -16 -21 -18 -16
8 -5 0 -3 -16 -21 -18 -16
9 -4 1 -2 -16 -21 -18 -17
8 -4 1 -2 -16 -21 -18 -16
7 -3 1 0 -15 -20 -17 -16
6 -3 1 0 -15 -20 -17 -15
6 -3 1 0 -15 -20 -17 -15
3 -3 4 2 -14 -19 -17 -14
0 -6 7 5 -14 -20 -18 -16
-4 -8 9 7 -13 -21 -20 -17
-7 -11 12 10 -13 -22 -22 -18
-10 -13 15 12 -13 -22 -23 -19
-9 -15 29 37 -2 -23 -26 -23
-6 -16 47 68 12 -23 -30 -28
-4 -17 63 100 24 -23 -33 -33
0 -19 80 131 37 -23 -36 -38
3 -20 97 162 51 -23 -40 -44
4 -15 100 185 80 -8 -34 -40
4 -7 98 205 114 14 -25 -34
3 2 95 226 149 35 -16 -28
3 10 93 246 183 57 -7 -22
3 18 91 267 217 78 3 -16
12 43 63 235 243 121 37 10
25 72 29 189 268 169 79 39
38 102 -5 142 294 217 121 69
53 131 -39 96 318 265 162 99
66 160 -73 50 344 312 204 130
81 182 -111 -6 356 379 270 169
97 202 -151 -63 364 449 341 211
113 222 -190 -120 373 521 411 253
129 242 -230 -178 383 592 482 295
144 262 -270 -235 392 662 553 337
149 278 -305 -290 375 714 611 371
152 293 -339 -345 349 760 664 404
154 308 -372 -400 324 806 719 437
157 322 -406 -454 299 852 773 470
159 337 -441 -509 274 898 827 503
144 326 -435 -522 210 817 764 476
122 308 -416 -524 135 701 668 432
101 289 -399 -526 59 586 570 389
79 271 -382 -528 -16 470 474 345
58 253 -363 -530 -91 354 378 302
50 223 -333 -496 -124 260 295 253
45 189 -301 -451 -147 172 215 202
39 155 -268 -406 -170 84 136 152
34 121 -235 -361 -192 -5 57 102
29 89 -202 -316 -216 -93 -23 52
21 65 -177 -280 -212 -117 -49 28
12 44 -151 -247 -200 -126 -60 11
4 23 -127 -215 -188 -133 -71 -6
-6 2 -102 -182 -177 -140 -81 -22
-15 -19 -77 -149 -164 -148 -93 -39
-16 -28 -62 -124 -146 -139 -91 -44
-14 -33 -50 -102 -127 -123 -82 -44
-12 -38 -37 -80 -106 -108 -75 -44
-10 -45 -24 -59 -87 -94 -68 -44
-8 -50 -12 -36 -66 -78 -60 -44
-7 -50 -6 -24 -55 -69 -55 -41
-7 -48 0 -15 -46 -62 -50 -38
-8 -45 5 -5 -36 -55 -45 -35
-8 -41 10 5 -27 -47 -39 -32
-8 -38 14 14 -18 -39 -35 -29
-9 -35 16 18 -14 -37 -33 -28
-9 -31 16 19 -13 -36 -32 -28
-9 -28 17 20 -11 -36 -32 -27
-9 -25 17 22 -9 -35 -31 -27
-9 -21 17 23 -8 -35 -31 -27
-8 -20 18 24 -7 -34 -30 -26
-8 -20 19 25 -7 -35 -31 -26
-8 -20 19 26 -7 -36 -31 -27
-8 -20 20 27 -7 -37 -32 -27
-8 -20 20 28 -7 -37 -32 -27
-7 -21 21 29 -8 -38 -33 -28
-6 -21 20 29 -8 -38 -34 -29
-6 -21 20 29 -8 -38 -34 -29
-5 -21 19 29 -8 -38 -35 -30
-5 -21 19 29 -8 -38 -35 -30
-5 -20 18 29 -8 -38 -36 -31
-7 -20 19 30 -7 -38 -35 -30
-8 -20 20 31 -7 -37 -35 -30
-10 -20 21 32 -6 -37 -34 -29
-12 -20 21 32 -6 -37 -34 -29
-13 -21 22 34 -5 -36 -33 -28
-13 -20 23 35 -4 -35 -32 -28
-13 -19 23 37 -3 -34 -31 -27
-13 -18 24 39 -2 -33 -30 -27
-13 -17 24 40 -2 -33 -30 -27
-10 -16 25 42 0 -32 -29 -26
-7 -15 25 42 0 -32 -29 -26
-4 -15 25 42 -2 -32 -29 -26
0 -14 25 42 -2 -32 -29 -26
3 -14 25 42 -2 -32 -29 -26
4 -14 24 40 -3 -33 -29 -26
3 -16 24 40 -3 -34 -30 -27
2 -17 24 40 -4 -34 -31 -27
1 -19 24 40 -4 -35 -31 -28
0 -21 24 40 -4 -35 -32 -28
-2 -22 24 43 -5 -36 -33 -29
-3 -21 26 44 -4 -34 -32 -28
-4 -20 27 46 -3 -33 -31 -27
-5 -19 29 47 -2 -32 -30 -26
-6 -18 31 49 0 -31 -29 -25
-7 -17 32 50 1 -30 -28 -24
-7 -18 31 50 1 -31 -29 -25
-7 -19 30 50 1 -31 -29 -26
-7 -19 30 50 1 -32 -30 -26
-7 -20 29 50 1 -32 -30 -27
-7 -21 28 50 1 -33 -31 -28
-8 -22 28 50 1 -33 -31 -28
-9 -23 29 51 1 -33 -32 -28
-10 -23 29 51 1 -33 -32 -28
-11 -24 29 51 1 -33 -32 -28
-11 -25 30 52 0 -33 -33 -30
-9 -25 30 52 -2 -34 -34 -31
-6 -25 30 52 -2 -35 -35 -32
-4 -25 30 52 -3 -36 -36 -34
-2 -25 30 52 -3 -37 -37 -35
-2 -24 30 51 -4 -38 -38 -36
-3 -25 31 52 -4 -38 -38 -35
-4 -26 32 53 -4 -38 -38 -35
-6 -27 34 53 -4 -38 -38 -34
-7 -28 35 54 -4 -38 -38 -34
-8 -30 36 55 -3 -39 -38 -33
-8 -31 37 55 -5 -40 -40 -35
-8 -33 38 54 -6 -41 -41 -36
-8 -34 38 54 -7 -44 -43 -37
-8 -36 39 54 -8 -45 -44 -38
-10 -37 42 53 -9 -46 -45 -39
-12 -36 43 54 -11 -47 -46 -39
-14 -36 45 55 -12 -48 -47 -40
-17 -35 46 55 -13 -49 -47 -40
-19 -35 48 56 -14 -50 -48 -40
-19 -34 49 56 -16 -53 -50 -41
-17 -35 49 55 -19 -56 -52 -44
-16 -36 49 53 -21 -59 -54 -45
-14 -36 49 52 -23 -62 -57 -47
-12 -37 49 50 -26 -65 -59 -48
-12 -38 51 49 -28 -67 -60 -49
-14 -40 54 48 -30 -68 -62 -49
-15 -41 56 48 -32 -70 -63 -50
-17 -44 58 47 -35 -71 -65 -50
-19 -45 61 47 -37 -73 -66 -50
-20 -46 62 46 -40 -76 -67 -52
-20 -47 62 45 -44 -79 -69 -53
-20 -48 62 44 -47 -82 -70 -55
-20 -49 62 44 -50 -86 -72 -56
-20 -50 62 43 -54 -89 -73 -58
-21 -52 62 40 -57 -91 -75 -60
-21 -54 62 37 -60 -93 -78 -61
-22 -55 62 34 -64 -95 -81 -63
-22 -57 62 31 -67 -97 -83 -64
-22 -59 62 28 -70 -99 -87 -66
-23 -60 63 27 -73 -100 -88 -67
-22 -61 64 25 -75 -102 -89 -68
-21 -61 64 24 -77 -103 -90 -68
-21 -62 65 22 -79 -105 -90 -69
-20 -62 65 21 -81 -106 -91 -69
-20 -63 66 19 -83 -107 -92 -70
-22 -63 65 17 -85 -109 -93 -70
-23 -63 65 16 -87 -110 -94 -71
-25 -63 64 14 -88 -111 -94 -71
-27 -63 64 12 -90 -112 -95 -71
-28 -64 63 11 -91 -113 -96 -72
-26 -64 62 9 -93 -113 -96 -71
-25 -65 62 8 -94 -114 -96 -70
-24 -65 61 7 -95 -114 -96 -70
-23 -65 61 6 -96 -114 -96 -69
-22 -66 59 4 -97 -115 -95 -68
-22 -66 57 2 -99 -115 -95 -68
-22 -65 56 0 -100 -115 -94 -69
-22 -65 54 -3 -101 -115 -94 -69
-22 -65 52 -5 -102 -115 -94 -69
-22 -62 51 -6 -102 -112 -92 -69
-22 -59 50 -6 -100 -109 -89 -66
-21 -56 49 -6 -98 -106 -86 -64
-21 -53 49 -6 -96 -103 -82 -62
-21 -50 48 -6 -94 -100 -79 -59
-20 -48 46 -7 -92 -97 -77 -57
-20 -47 43 -7 -89 -93 -74 -55
-20 -46 40 -7 -87 -89 -71 -53
-20 -45 38 -7 -83 -85 -68 -50
-20 -44 35 -7 -80 -80 -65 -48
-19 -40 33 -7 -77 -76 -63 -46
-17 -37 31 -8 -74 -73 -60 -44
-16 -34 29 -9 -71 -70 -58 -43
-14 -31 27 -9 -68 -67 -55 -40
-12 -28 25 -10 -65 -64 -52 -38
-11 -25 23 -11 -64 -63 -51 -36
-10 -24 20 -12 -62 -61 -49 -34
-9 -22 18 -12 -61 -60 -48 -33
-8 -21 16 -13 -60 -59 -46 -31
-7 -19 13 -13 -59 -58 -45 -29
-6 -18 12 -14 -57 -55 -43 -27
-8 -18 12 -14 -54 -52 -39 -25
-9 -18 11 -13 -51 -49 -37 -23
-11 -18 10 -13 -48 -46 -34 -21
-12 -18 10 -13 -45 -43 -31 -19
-13 -17 9 -12 -43 -40 -30 -18
-12 -15 9 -12 -41 -39 -30 -18
-10 -13 9 -11 -40 -38 -29 -17
-9 -11 9 -11 -39 -38 -28 -16
-8 -9 9 -11 -38 -37 -28 -16
-7 -8 8 -10 -37 -36 -27 -15
-7 -8 6 -10 -36 -36 -27 -15
-8 -8 5 -10 -34 -36 -27 -16
-9 -8 3 -10 -33 -36 -27 -16
-9 -8 2 -10 -32 -36 -27 -16
-9 -8 1 -9 -30 -34 -26 -16
-7 -6 2 -8 -29 -32 -24 -15
-4 -4 3 -6 -27 -30 -22 -13
-2 0 4 -5 -25 -27 -20 -11
2 2 5 -3 -23 -25 -18 -9
3 3 6 -2 -22 -24 -17 -8
3 3 6 -2 -22 -24 -17 -9
3 3 5 -2 -21 -24 -17 -10
3 3 5 -2 -20 -24 -17 -10
3 3 5 -2 -20 -24 -17 -11
3 3 4 0 -19 -22 -18 -12
0 1 4 1 -17 -21 -16 -12
-3 0 4 2 -16 -19 -15 -11
-6 -3 4 2 -14 -18 -13 -10
-9 -4 4 3 -13 -16 -12 -10
-9 -5 4 4 -12 -15 -11 -9
-7 -5 3 4 -12 -15 -11 -9
-5 -4 2 3 -12 -15 -12 -9
-2 -4 2 3 -12 -15 -13 -9
1 -4 1 3 -12 -15 -13 -9
2 -3 0 2 -13 -15 -14 -10
2 -3 0 3 -11 -14 -13 -10
1 -3 1 4 -10 -12 -11 -9
0 -3 2 4 -8 -11 -10 -9
0 -3 2 5 -7 -9 -9 -9
-2 -3 3 6 -6 -8 -8 -8
-2 -3 3 6 -6 -8 -8 -8
-2 -4 2 5 -7 -8 -9 -8
-2 -5 1 5 -7 -8 -10 -8
-2 -5 1 5 -7 -8 -10 -8
0 -6 0 4 -8 -9 -11 -7
-2 -6 0 4 -7 -8 -10 -8
-3 -6 1 5 -5 -6 -8 -9
-4 -6 1 6 -4 -5 -7 -9
-5 -6 1 6 -3 -4 -6 -10
-6 -5 2 7 -2 -3 -5 -10
-4 -4 2 7 0 -2 -4 -9
-3 -3 2 8 1 0 -3 -7
0 -3 2 9 1 1 -3 -6
1 -2 2 9 2 2 -2 -4
2 0 1 10 3 3 0 -3
4 0 1 10 3 3 0 -3
5 -2 1 10 3 3 0 -3
7 -2 1 10 3 3 0 -3
8 -2 1 10 3 3 0 -3
8 -3 2 10 3 2 1 -2
6 -3 2 9 2 1 0 -3
4 -4 1 8 1 0 -2 -4
2 -4 0 8 1 0 -3 -5
0 -4 0 7 0 -2 -4 -6
-2 -5 -2 6 -2 -3 -5 -7
-2 -5 -2 6 -2 -3 -5 -7
0 -6 0 7 0 -2 -4 -6
0 -6 0 8 1 0 -4 -6
0 -6 0 8 1 0 -4 -6
1 -7 1 9 2 1 -3 -5
1 -7 0 8 1 0 -4 -5
1 -7 -2 7 0 -3 -5 -6
1 -7 -2 6 0 -4 -5 -6
1 -7 -3 5 -2 -5 -6 -6
1 -8 -4 4 -3 -6 -7 -7
-3 -8 -4 4 -3 -6 -7 -7
-6 -7 -3 4 -3 -6 -7 -7
-9 -7 -3 4 -3 -6 -7 -7
-12 -7 -3 4 -3 -6 -7 -7
-13 -6 -2 5 -2 -5 -6 -6
-11 -7 -3 5 -3 -6 -7 -6
-9 -8 -4 4 -4 -8 -8 -7
-7 -8 -4 3 -5 -9 -9 -8
-4 -9 -5 3 -6 -10 -10 -8
-3 -10 -6 2 -7 -11 -11 -9
-2 -9 -5 2 -7 -11 -10 -8
1 -8 -4 3 -6 -10 -9 -7
2 -8 -3 3 -6 -9 -9 -7
3 -7 -2 3 -6 -9 -8 -6
4 -6 0 4 -5 -8 -7 -5
2 -6 -2 4 -5 -8 -8 -5
1 -7 -3 3 -6 -9 -9 -6
-2 -7 -3 3 -6 -10 -9 -7
-3 -7 -4 3 -6 -10 -10 -7
-4 -8 -5 2 -7 -11 -11 -8
-3 -8 -5 2 -7 -11 -11 -8
-2 -7 -4 2 -7 -11 -11 -8
-2 -6 -4 2 -7 -11 -11 -8
0 -6 -4 2 -7 -11 -11 -8
1 -5 -3 2 -7 -10 -10 -8
-2 -6 -3 2 -7 -10 -10 -8
-3 -7 -3 2 -7 -11 -10 -8
-5 -7 -3 2 -7 -11 -10 -8
-6 -8 -3 2 -7 -11 -10 -8
-7 -9 -3 3 -7 -12 -11 -7
-5 -10 -4 2 -7 -13 -12 -8
-4 -11 -5 1 -8 -14 -13 -9
-2 -11 -5 0 -9 -15 -14 -10
0 -12 -6 -2 -9 -16 -15 -11
1 -11 -6 -2 -9 -16 -15 -11
-2 -8 -2 1 -7 -14 -13 -9
-3 -4 2 3 -5 -11 -11 -7
-5 1 5 5 -3 -9 -9 -5
-6 5 8 8 1 -7 -7 -2
-7 7 10 9 2 -5 -6 -2
-6 7 10 8 1 -7 -8 -3
-5 6 10 7 0 -8 -9 -5
-4 6 10 7 0 -9 -10 -7
-3 6 10 6 -2 -11 -12 -9
-2 5 11 5 -3 -12 -13 -10
-3 4 10 4 -3 -12 -13 -10
-4 3 9 3 -4 -13 -13 -10
-5 2 8 2 -4 -13 -13 -10
-6 1 7 1 -4 -13 -13 -10
-7 0 6 0 -5 -14 -14 -10
-7 0 6 0 -5 -14 -14 -10
-7 0 6 0 -5 -14 -13 -9
-7 0 6 0 -5 -14 -12 -9
-7 0 6 0 -5 -14 -12 -9
-7 1 7 0 -5 -13 -11 -8
-5 2 5 0 -5 -13 -11 -8
-4 3 4 -2 -6 -14 -12 -8
-3 4 3 -3 -7 -14 -12 -8
0 5 1 -3 -7 -14 -12 -8
1 6 -3 -4 -8 -15 -13 -8
1 6 -7 -6 -9 -15 -13 -8
1 5 -11 -7 -10 -16 -13 -8
1 4 -15 -8 -11 -17 -13 -8
1 4 -20 -10 -12 -17 -13 -8
2 3 -22 -11 -13 -18 -14 -8
2 3 -21 -11 -12 -17 -13 -6
1 3 -20 -10 -11 -16 -12 -4
0 3 -20 -9 -11 -16 -12 -3
0 3 -19 -9 -10 -15 -11 0
-2 1 -18 -8 -9 -14 -10 1
0 -2 -17 -8 -9 -14 -10 1
2 -4 -15 -8 -9 -14 -10 0
3 -6 -14 -8 -9 -14 -10 0
4 -9 -13 -8 -9 -14 -10 0
5 -9 -12 -7 -9 -15 -11 -2
5 -7 -11 -7 -9 -15 -11 -3
5 -5 -10 -6 -9 -15 -11 -4
5 -3 -10 -6 -9 -15 -11 -4
5 0 -9 -6 -9 -15 -11 -5
5 2 -8 -5 -8 -16 -11 -6
3 0 -7 -5 -8 -17 -12 -6
1 -2 -6 -5 -9 -18 -14 -6
-2 -3 -5 -5 -10 -18 -15 -6
-4 -5 -4 -5 -10 -19 -16 -6
-5 -6 -3 -6 -11 -20 -17 -8
-5 -7 0 -6 -11 -20 -18 -10
-6 -8 1 -5 -11 -21 -19 -12
-7 -9 2 -5 -11 -21 -20 -14
-7 -10 4 -5 -11 -21 -21 -16
-8 -10 5 -4 -11 -22 -22 -17
-8 -8 6 -4 -11 -22 -22 -17
-7 -6 8 -3 -10 -21 -21 -17
-6 -4 9 -3 -10 -21 -20 -17
-6 -2 10 -3 -10 -21 -20 -17
-5 0 11 -2 -9 -20 -19 -18
-6 -3 9 -2 -9 -20 -19 -17
-7 -5 8 -2 -9 -19 -19 -16
-8 -6 7 -2 -9 -19 -19 -16
-9 -8 5 -2 -9 -19 -19 -15
-10 -9 4 0 -8 -18 -18 -14
-9 -9 4 0 -8 -18 -18 -14
-8 -8 4 0 -8 -19 -18 -15
-8 -8 4 0 -8 -19 -18 -15
-7 -8 4 0 -8 -19 -18 -15
-6 -7 5 -2 -8 -20 -19 -16
-5 -7 6 0 -7 -20 -18 -15
-4 -7 7 1 -6 -19 -17 -14
-4 -7 8 2 -6 -18 -17 -13
-3 -7 9 3 -5 -18 -16 -12
-2 -7 10 4 -4 -17 -15 -11
-4 -6 10 4 -4 -17 -15 -11
-6 -5 10 4 -4 -16 -14 -11
-8 -4 10 4 -4 -16 -13 -11
-10 -3 10 4 -4 -16 -13 -11
-11 -3 11 5 -4 -15 -12 -11
-11 -5 12 7 -4 -16 -14 -14
-10 -8 13 8 -4 -17 -16 -17
-10 -11 14 9 -4 -18 -17 -19
-10 -13 15 11 -4 -19 -19 -22
-9 -15 24 27 1 -20 -21 -25
-11 -17 43 60 11 -20 -25 -29
-13 -18 61 92 21 -20 -29 -32
-14 -19 78 123 31 -20 -33 -35
-16 -21 97 155 42 -20 -37 -39
-17 -20 106 182 64 -12 -36 -40
-16 -15 106 204 100 7 -29 -37
-14 -10 106 226 137 26 -22 -33
-13 -6 106 247 173 46 -16 -30
-12 0 106 270 209 64 -9 -27
-5 19 91 261 239 98 16 -10
9 53 61 219 265 146 58 21
21 86 31 177 290 194 100 52
34 119 1 135 317 243 142 84
48 153 -29 93 343 292 184 114
62 180 -64 45 362 353 241 152
78 200 -103 -10 377 429 316 196
94 221 -143 -65 390 505 390 241
109 241 -182 -119 404 579 465 285
126 261 -222 -174 419 655 538 330
135 278 -260 -230 413 717 603 368
139 292 -296 -287 389 764 656 399
143 304 -331 -345 364 812 711 431
147 317 -367 -401 339 859 765 463
151 330 -404 -458 314 906 819 494
144 329 -414 -490 263 875 800 489
122 312 -397 -495 184 758 703 443
102 294 -381 -499 106 641 607 398
80 276 -363 -505 27 525 510 352
60 258 -346 -510 -51 408 413 306
45 232 -321 -491 -102 306 326 260
34 198 -288 -445 -123 218 247 212
25 163 -256 -399 -146 129 170 164
15 129 -223 -353 -168 40 92 116
5 95 -190 -308 -189 -48 14 69
-2 67 -162 -269 -197 -98 -33 35
-6 49 -139 -237 -186 -107 -46 19
-10 29 -115 -205 -176 -117 -59 2
-14 10 -92 -174 -165 -127 -72 -16
-18 -10 -68 -143 -155 -137 -86 -33
-21 -23 -52 -117 -141 -136 -90 -43
-21 -31 -41 -98 -123 -121 -82 -43
-20 -39 -31 -78 -105 -107 -76 -43
-19 -48 -21 -59 -88 -94 -69 -43
-19 -56 -11 -39 -70 -79 -62 -43
-18 -58 -3 -25 -56 -68 -56 -43
-17 -52 3 -15 -46 -61 -51 -38
-16 -46 8 -5 -36 -54 -46 -34
-15 -38 14 6 -26 -47 -39 -30
-14 -32 19 15 -17 -39 -34 -26
-13 -28 22 22 -11 -35 -31 -23
-14 -28 22 24 -10 -35 -31 -23
-15 -27 22 26 -9 -35 -31 -23
-16 -26 22 28 -7 -34 -31 -23
-17 -26 22 30 -6 -34 -31 -23
-18 -25 23 32 -5 -33 -30 -23
-18 -23 24 32 -5 -33 -30 -23
-17 -21 25 33 -4 -33 -30 -23
-16 -19 26 34 -3 -33 -30 -23
-16 -17 27 34 -3 -33 -30 -23
-15 -15 28 35 -2 -34 -31 -22
-14 -15 27 35 -2 -34 -31 -22
-14 -16 27 35 -2 -34 -31 -22
-13 -17 26 36 -2 -34 -30 -21
-12 -17 25 36 -2 -34 -30 -21
-11 -18 24 37 -2 -34 -29 -20
-11 -18 24 37 -2 -34 -29 -20
-11 -18 25 38 -2 -34 -29 -21
-12 -17 26 39 -2 -34 -29 -22
-12 -17 26 39 -2 -34 -29 -22
-13 -16 27 40 0 -34 -30 -23
-12 -17 27 40 -2 -34 -31 -24
-12 -18 27 40 -2 -34 -31 -25
-11 -19 27 40 -3 -35 -32 -26
-10 -20 27 40 -4 -35 -33 -27
-9 -21 27 39 -5 -36 -34 -28
-9 -20 27 42 -3 -35 -33 -27
-9 -20 27 43 -2 -34 -33 -27
-9 -19 27 44 1 -33 -32 -26
-9 -18 27 46 3 -32 -31 -25
-10 -17 28 47 4 -31 -30 -24
-12 -17 28 47 4 -31 -30 -24
-13 -17 28 47 4 -31 -30 -24
-15 -17 27 47 4 -32 -30 -24
-17 -17 27 47 4 -32 -30 -24
-18 -18 26 46 3 -33 -30 -23
-16 -16 26 47 3 -33 -30 -23
-14 -15 26 47 3 -33 -30 -23
-12 -14 27 48 3 -33 -31 -24
-10 -12 27 49 3 -33 -31 -24
-8 -11 28 50 4 -33 -32 -25
-8 -12 28 50 4 -33 -32 -25
-8 -13 28 50 4 -34 -33 -25
-7 -14 28 50 4 -35 -34 -26
-7 -15 28 50 4 -35 -34 -26
-6 -16 28 49 3 -36 -35 -27
-6 -17 28 49 3 -36 -35 -28
-6 -17 28 49 3 -37 -35 -28
-7 -18 27 49 2 -38 -36 -29
-7 -19 27 49 2 -38 -36 -30
-8 -20 26 49 1 -39 -37 -31
-10 -18 28 52 2 -38 -36 -29
-12 -16 30 54 4 -37 -35 -27
-14 -14 32 56 5 -35 -33 -25
-15 -13 33 58 7 -34 -32 -24
-17 -11 35 60 8 -33 -31 -22
-17 -12 35 60 6 -35 -32 -23
-16 -13 36 59 5 -37 -34 -24
-15 -15 37 58 3 -39 -35 -26
-15 -16 37 58 1 -40 -37 -27
-14 -17 38 57 0 -43 -38 -28
-13 -17 38 57 0 -43 -38 -28
-12 -17 38 57 -2 -44 -38 -28
-11 -17 38 57 -3 -45 -38 -27
-10 -17 38 57 -3 -45 -38 -27
-9 -16 37 58 -4 -46 -39 -26
-10 -16 38 58 -5 -47 -40 -27
-10 -16 39 58 -6 -49 -41 -28
-11 -17 42 58 -8 -50 -43 -29
-12 -17 43 58 -9 -52 -44 -30
-13 -18 44 57 -11 -54 -46 -31
-13 -21 45 56 -13 -57 -48 -34
-13 -23 45 55 -16 -60 -51 -36
-12 -25 46 54 -19 -63 -54 -39
-12 -27 47 53 -22 -67 -57 -41
-11 -29 48 52 -24 -69 -59 -44
-14 -29 50 52 -25 -70 -59 -44
-16 -29 51 52 -27 -71 -60 -44
-19 -29 53 53 -28 -72 -61 -45
-21 -29 55 53 -30 -73 -61 -45
-23 -28 56 54 -32 -75 -62 -46
-23 -30 57 53 -34 -77 -63 -47
-24 -32 58 52 -37 -80 -64 -49
-25 -34 60 51 -40 -83 -66 -50
-25 -35 61 50 -44 -87 -67 -52
-26 -37 62 49 -47 -90 -69 -53
-25 -40 61 46 -51 -92 -72 -56
-23 -43 61 44 -54 -95 -75 -58
-22 -45 60 40 -58 -97 -78 -60
-20 -47 59 38 -61 -100 -81 -62
-19 -49 58 36 -64 -102 -83 -64
-20 -49 58 35 -65 -104 -85 -65
-20 -49 58 33 -66 -105 -86 -65
-21 -49 59 32 -68 -107 -88 -66
-22 -49 59 30 -69 -109 -89 -67
-23 -49 60 29 -71 -110 -90 -68
-24 -52 60 27 -73 -111 -90 -68
-24 -54 60 26 -76 -112 -90 -68
-25 -56 60 24 -78 -113 -91 -68
-26 -58 60 22 -81 -114 -91 -68
-27 -60 59 21 -83 -115 -92 -69
-27 -59 59 20 -83 -115 -92 -69
-27 -59 59 19 -83 -115 -92 -69
-28 -58 59 18 -83 -115 -92 -68
-28 -57 59 17 -83 -115 -92 -68
-29 -56 59 16 -85 -114 -91 -67
-29 -55 58 14 -85 -114 -90 -67
-29 -54 57 13 -85 -114 -90 -66
-29 -53 56 11 -83 -113 -89 -65
-29 -52 55 9 -83 -113 -88 -65
-29 -51 54 8 -82 -111 -87 -64
-24 -50 53 8 -81 -108 -83 -63
-20 -49 51 8 -80 -105 -81 -63
-15 -47 50 8 -79 -102 -79 -62
-10 -46 48 8 -78 -99 -77 -61
-8 -45 47 7 -76 -96 -74 -59
-12 -44 44 7 -73 -92 -71 -55
-16 -43 42 6 -69 -88 -67 -51
-20 -40 38 5 -66 -85 -64 -47
-24 -39 36 5 -63 -80 -61 -43
-26 -37 34 4 -59 -76 -58 -39
-23 -31 31 3 -57 -73 -55 -38
-19 -26 29 3 -54 -70 -52 -37
-16 -21 26 2 -51 -67 -50 -36
-13 -16 24 1 -48 -64 -47 -35
-10 -12 22 0 -46 -62 -45 -34
-13 -13 21 0 -43 -59 -43 -32
-15 -14 20 0 -40 -57 -40 -30
-17 -16 19 0 -38 -55 -38 -28
-19 -17 18 0 -36 -53 -36 -26
-21 -17 17 0 -34 -51 -34 -24
-19 -14 16 0 -34 -49 -33 -23
-17 -11 15 -2 -33 -48 -31 -23
-15 -8 13 -3 -32 -46 -30 -22
-14 -5 12 -3 -32 -45 -28 -21
-12 -2 11 -4 -31 -43 -27 -20
-10 0 11 -4 -29 -41 -27 -20
-9 1 11 -4 -28 -40 -27 -20
-7 2 10 -4 -26 -38 -26 -20
-6 3 10 -4 -25 -37 -26 -20
-4 4 9 -3 -23 -36 -25 -20
-4 5 9 -2 -21 -35 -23 -19
-4 5 9 -2 -18 -34 -22 -17
-3 6 9 0 -16 -32 -20 -16
-3 7 9 1 -14 -31 -19 -14
-2 8 8 2 -12 -30 -17 -13
-3 8 8 2 -11 -30 -17 -13
-4 8 8 3 -11 -30 -17 -13
-5 9 8 4 -10 -29 -17 -14
-6 9 8 4 -9 -29 -17 -14
-7 10 7 5 -8 -28 -17 -15
-6 10 6 5 -8 -28 -17 -15
-4 11 6 5 -8 -27 -17 -15
-3 12 5 4 -7 -26 -17 -15
0 12 4 4 -7 -26 -17 -15
1 13 3 3 -6 -25 -16 -15
-2 12 3 3 -5 -24 -16 -15
-4 10 3 3 -5 -23 -15 -14
-6 9 3 4 -4 -22 -14 -13
-8 7 3 4 -3 -21 -14 -13
-10 6 3 5 -2 -20 -13 -12
-10 6 3 6 0 -18 -11 -11
-10 6 3 7 2 -16 -10 -10
-10 6 3 8 3 -14 -8 -8
-10 6 3 9 5 -13 -7 -7
-9 6 3 10 6 -11 -5 -6
-8 7 3 10 6 -11 -5 -6
-7 8 3 10 6 -11 -5 -6
-6 9 3 9 6 -11 -5 -6
-5 10 3 9 6 -11 -5 -6
-4 11 2 8 6 -10 -5 -6
-2 11 2 8 6 -10 -5 -6
1 11 1 8 6 -10 -5 -6
3 11 1 7 6 -10 -5 -6
5 11 0 7 6 -10 -5 -6
7 11 -2 6 6 -10 -4 -7
5 11 -2 7 6 -8 -3 -7
3 11 -2 7 6 -7 -2 -7
1 11 -2 8 6 -5 0 -6
-2 11 -2 9 6 -4 1 -6
-4 12 0 10 7 -2 2 -5
-4 11 0 9 7 -2 1 -7
-4 11 0 8 6 -3 -2 -8
-4 10 -2 7 6 -3 -3 -10
-4 9 -2 6 5 -4 -5 -11
-3 8 -3 5 4 -5 -6 -13
-3 8 -3 6 5 -5 -5 -11
-3 8 -3 6 5 -4 -3 -9
-2 8 -3 7 6 -4 -2 -8
-2 8 -3 8 7 -3 1 -6
0 8 -2 9 8 -2 2 -4
0 8 -2 9 7 -2 2 -4
0 8 -2 8 7 -3 2 -4
1 9 -2 8 6 -3 1 -4
1 9 -2 7 5 -4 1 -4
2 10 -3 6 4 -5 0 -5
0 9 -3 6 4 -5 0 -6
-3 8 -3 6 4 -5 0 -7
-4 7 -4 5 4 -5 -2 -8
-6 5 -4 5 4 -5 -2 -9
-8 4 -5 4 3 -6 -3 -10
-7 5 -5 4 3 -6 -3 -10
-6 5 -5 4 3 -6 -3 -10
-5 6 -5 4 2 -7 -4 -11
-4 7 -5 4 2 -7 -4 -11
-3 8 -4 5 1 -8 -5 -12
-3 8 -4 5 1 -8 -5 -11
-3 8 -4 5 1 -8 -5 -11
-4 8 -4 5 1 -8 -5 -10
-4 8 -4 5 1 -8 -5 -9
-5 7 -5 5 1 -9 -4 -8
-4 7 -5 5 0 -9 -4 -9
-3 7 -5 5 -2 -10 -5 -9
-2 7 -5 4 -3 -10 -5 -10
1 7 -5 4 -4 -11 -6 -11
2 6 -4 3 -5 -12 -7 -12
6 8 -4 3 -5 -12 -7 -12
9 11 -4 3 -5 -12 -7 -12
12 13 -4 3 -5 -12 -8 -13
15 15 -4 3 -5 -12 -8 -13
17 17 -3 2 -6 -13 -9 -14
13 14 -3 2 -6 -13 -9 -14
9 11 -4 2 -6 -13 -9 -14
5 8 -4 2 -7 -14 -9 -14
1 5 -5 2 -7 -14 -9 -14
-3 3 -6 2 -8 -15 -10 -13
-3 3 -6 2 -8 -15 -10 -13
-2 3 -6 1 -9 -16 -10 -13
-2 3 -7 1 -9 -16 -11 -13
0 3 -7 0 -10 -17 -11 -13
1 2 -8 -2 -11 -18 -12 -14
1 2 -8 -2 -11 -18 -12 -14
1 1 -8 0 -11 -18 -12 -14
0 1 -8 0 -11 -19 -13 -14
0 0 -8 1 -11 -19 -13 -14
-2 -2 -7 2 -12 -20 -14 -13
-2 0 -7 2 -12 -20 -14 -13
-2 0 -7 2 -12 -20 -14 -13
-2 1 -7 2 -11 -19 -13 -13
-2 2 -7 2 -11 -19 -13 -13
0 3 -7 2 -10 -18 -12 -14
-2 3 -6 3 -8 -18 -12 -12
-2 3 -4 3 -7 -17 -12 -10
-3 3 -3 4 -5 -17 -11 -9
-4 3 -2 5 -4 -16 -11 -7
-5 4 1 6 -2 -15 -10 -5
-4 5 2 6 -2 -15 -10 -7
-3 6 3 6 -3 -15 -10 -8
-2 7 4 6 -3 -15 -10 -10
0 8 5 6 -4 -15 -10 -11
1 9 6 7 -5 -15 -11 -13
2 10 6 7 -5 -15 -11 -12
2 12 6 7 -5 -15 -11 -12
3 13 7 7 -5 -15 -11 -11
4 14 7 7 -5 -15 -11 -10
5 16 8 8 -6 -15 -11 -9
1 15 8 8 -6 -15 -11 -9
-3 14 7 8 -6 -15 -11 -9
-6 13 7 8 -6 -15 -10 -9
-9 12 6 8 -6 -15 -10 -9
-11 11 5 7 -6 -16 -9 -8
-7 11 4 6 -6 -16 -10 -8
-3 12 3 4 -6 -16 -10 -8
2 12 2 3 -6 -16 -11 -8
6 13 1 2 -6 -16 -12 -8
10 14 -2 0 -7 -15 -13 -7
10 13 -7 -3 -9 -17 -13 -8
9 13 -11 -5 -11 -18 -13 -8
9 12 -16 -8 -12 -20 -14 -9
8 11 -21 -10 -14 -21 -14 -10
7 10 -25 -12 -16 -23 -15 -11
7 9 -25 -11 -15 -22 -14 -10
8 9 -25 -10 -14 -21 -13 -8
8 8 -25 -9 -13 -20 -12 -7
9 7 -25 -7 -12 -18 -10 -6
10 6 -24 -6 -11 -17 -9 -4
10 5 -23 -6 -11 -17 -9 -4
10 3 -21 -6 -11 -17 -9 -4
10 1 -19 -6 -11 -17 -8 -5
10 0 -18 -6 -11 -17 -8 -5
9 -3 -16 -5 -12 -18 -7 -6
9 -3 -16 -5 -12 -18 -7 -6
8 -3 -16 -5 -12 -18 -8 -6
8 -4 -15 -5 -12 -18 -8 -7
7 -4 -15 -5 -12 -18 -9 -7
6 -5 -14 -6 -13 -18 -10 -8
6 -5 -14 -6 -13 -18 -11 -8
7 -5 -13 -6 -14 -19 -12 -9
7 -5 -13 -6 -14 -20 -13 -10
8 -5 -12 -6 -15 -21 -15 -11
9 -5 -11 -7 -16 -22 -16 -12
9 -5 -11 -7 -16 -22 -16 -12
9 -6 -10 -7 -16 -22 -16 -12
8 -7 -9 -7 -16 -22 -17 -13
8 -8 -8 -7 -16 -22 -17 -13
7 -9 -7 -6 -16 -23 -18 -14
3 -9 -4 -4 -14 -22 -17 -13
-2 -8 -2 -2 -12 -20 -15 -12
-5 -8 2 0 -11 -18 -14 -11
-9 -7 4 2 -9 -17 -13 -9
-12 -6 7 4 -7 -15 -11 -8
-11 -6 7 4 -7 -15 -11 -8
-9 -6 7 4 -7 -16 -11 -8
-8 -7 7 3 -8 -16 -12 -9
-7 -7 7 3 -8 -17 -12 -9
-5 -8 7 2 -9 -18 -13 -10
-4 -8 6 2 -9 -18 -13 -10
-2 -8 5 1 -9 -19 -13 -10
1 -8 4 1 -10 -19 -14 -11
2 -8 3 0 -10 -20 -14 -11
4 -7 2 -2 -11 -21 -15 -12
4 -6 2 0 -10 -20 -14 -11
4 -4 3 1 -9 -18 -13 -10
3 -2 4 2 -8 -16 -12 -9
3 0 5 3 -7 -15 -11 -8
2 2 6 4 -6 -13 -10 -7
2 0 6 4 -7 -13 -11 -7
2 -3 5 4 -8 -14 -12 -8
2 -6 5 4 -9 -15 -13 -9
2 -8 4 4 -10 -16 -14 -10
1 -10 3 3 -11 -17 -15 -11
1 -10 3 3 -10 -17 -15 -11
1 -9 3 3 -9 -17 -15 -11
1 -9 3 3 -8 -16 -15 -11
1 -8 3 3 -7 -16 -15 -11
1 -7 5 7 -5 -15 -14 -11
1 -8 16 21 1 -16 -18 -15
1 -10 27 36 6 -17 -21 -18
0 -12 38 52 11 -18 -24 -21
0 -13 51 67 16 -19 -28 -25
-2 -15 62 87 26 -19 -31 -28
-2 -16 76 127 53 -9 -31 -30
-3 -17 91 165 80 1 -31 -32
-4 -18 105 204 107 10 -30 -35
-5 -19 118 243 134 19 -30 -37
-5 -16 128 273 161 33 -25 -36
4 6 107 258 190 64 -4 -19
13 27 88 242 219 95 19 -2
21 49 68 228 247 127 42 16
29 70 49 213 276 157 63 33
38 93 25 189 303 195 93 55
54 121 -14 132 324 260 154 94
69 150 -53 74 345 324 215 134
85 180 -92 17 365 389 275 173
100 209 -131 -40 386 454 337 213
114 235 -170 -98 404 521 400 253
125 252 -210 -150 409 601 475 296
136 268 -249 -203 414 680 551 339
147 285 -289 -257 420 759 626 382
158 302 -329 -310 425 838 701 424
165 316 -363 -360 419 895 760 459
150 316 -371 -396 354 851 740 452
136 317 -380 -432 290 808 721 446
121 318 -388 -468 226 765 701 440
106 319 -396 -504 161 722 682 434
92 314 -398 -528 100 663 646 419
77 279 -368 -497 45 542 536 360
63 243 -339 -468 -10 419 427 303
50 207 -309 -437 -64 297 318 244
35 173 -278 -407 -119 174 209 187
22 138 -248 -376 -165 65 111 134
14 110 -219 -338 -171 19 68 101
6 81 -188 -299 -177 -28 25 69
-3 53 -158 -261 -182 -74 -19 36
-11 24 -129 -223 -188 -121 -62 4
-18 0 -101 -187 -190 -158 -97 -23
-18 -10 -85 -160 -169 -142 -90 -25
-18 -19 -69 -135 -147 -127 -82 -28
-18 -27 -54 -108 -126 -110 -75 -30
-18 -36 -37 -82 -104 -94 -67 -33
-18 -45 -23 -59 -85 -79 -61 -35
-17 -45 -17 -47 -73 -73 -58 -34
-16 -46 -11 -35 -62 -67 -55 -32
-15 -47 -5 -24 -52 -61 -53 -31
-13 -48 2 -13 -40 -55 -50 -30
-12 -48 7 -3 -31 -49 -47 -28
-9 -41 10 4 -25 -45 -43 -26
-7 -35 13 9 -20 -40 -38 -24
-4 -29 16 15 -15 -36 -34 -22
-2 -23 19 20 -10 -32 -30 -19
2 -17 22 25 -5 -28 -26 -17
1 -16 22 27 -3 -28 -26 -16
-2 -15 22 28 -2 -27 -25 -14
-4 -14 22 30 1 -27 -24 -13
-5 -13 22 32 3 -26 -23 -12
-7 -12 23 34 5 -25 -22 -10
-7 -12 23 34 5 -25 -22 -10
-7 -12 23 34 4 -25 -23 -11
-8 -12 23 34 4 -26 -23 -12
-8 -12 23 34 3 -26 -24 -13
-9 -13 24 34 2 -27 -25 -14
-9 -13 24 34 2 -27 -25 -14
-9 -13 24 34 2 -27 -25 -14
-9 -13 25 35 3 -27 -25 -14
-9 -13 25 35 3 -27 -25 -14
-9 -14 26 36 4 -27 -24 -13
-7 -14 26 36 4 -27 -25 -13
-4 -14 25 36 4 -28 -26 -13
0 -14 24 35 3 -29 -27 -14
2 -14 23 35 3 -30 -28 -14
5 -13 22 34 2 -31 -29 -15
4 -13 22 34 2 -31 -29 -15
2 -13 22 35 2 -31 -29 -15
1 -14 22 35 2 -31 -28 -15
0 -14 22 36 2 -31 -28 -15
-3 -15 21 37 2 -30 -27 -15
-3 -14 22 38 2 -29 -27 -15
-4 -13 24 40 3 -28 -26 -15
-5 -12 26 42 4 -27 -26 -15
-6 -11 27 43 5 -26 -25 -15
-7 -10 29 45 6 -25 -24 -15
-7 -10 29 45 6 -25 -24 -15
-6 -11 29 45 6 -25 -24 -15
-5 -11 29 46 6 -25 -24 -15
-4 -12 29 46 6 -25 -24 -15
-3 -13 30 47 7 -25 -25 -14
-4 -13 30 47 8 -25 -25 -13
-5 -13 30 48 9 -24 -24 -11
-6 -13 30 48 10 -24 -23 -9
-7 -13 30 49 11 -23 -22 -8
-8 -12 30 50 13 -22 -21 -6
-8 -12 30 50 13 -23 -22 -8
-8 -13 30 50 13 -24 -23 -9
-8 -13 29 50 12 -25 -25 -11
-8 -14 29 50 12 -26 -26 -13
-7 -15 28 49 11 -28 -28 -15
-7 -16 28 50 11 -28 -28 -15
-7 -17 29 51 11 -28 -28 -15
-7 -18 29 52 10 -28 -28 -16
-7 -19 30 53 10 -28 -28 -16
-6 -20 31 55 9 -28 -27 -17
-6 -18 32 56 10 -27 -26 -16
-6 -17 34 57 11 -26 -25 -15
-7 -15 35 58 12 -25 -24 -14
-7 -13 37 59 13 -24 -23 -13
-8 -11 39 61 15 -23 -22 -12
-8 -13 39 61 14 -24 -23 -13
-8 -15 39 60 13 -25 -24 -14
-8 -17 39 60 11 -27 -26 -15
-8 -19 39 59 10 -28 -27 -16
-7 -21 38 58 8 -30 -29 -17
-7 -22 38 58 7 -32 -30 -18
-7 -23 39 58 5 -34 -32 -19
-7 -24 39 58 4 -36 -33 -21
-7 -25 40 58 2 -38 -35 -22
-8 -26 42 57 0 -40 -37 -24
-8 -26 42 57 -4 -41 -38 -24
-8 -26 42 56 -6 -43 -39 -25
-8 -26 43 55 -9 -45 -40 -25
-8 -26 43 54 -12 -46 -41 -26
-8 -27 44 53 -15 -48 -43 -27
-8 -28 46 53 -15 -50 -44 -28
-9 -29 48 53 -16 -52 -45 -29
-9 -31 50 54 -17 -54 -47 -30
-10 -32 53 54 -18 -56 -48 -31
-11 -34 55 55 -19 -58 -50 -33
-11 -35 55 54 -23 -61 -52 -34
-12 -37 55 52 -26 -63 -55 -36
-13 -39 55 51 -30 -66 -58 -37
-14 -41 55 49 -34 -69 -60 -39
-15 -44 56 47 -38 -72 -63 -41
-15 -44 57 47 -39 -73 -63 -41
-15 -45 58 46 -41 -75 -64 -43
-16 -46 60 46 -43 -76 -65 -44
-16 -47 61 45 -45 -78 -66 -45
-17 -48 63 44 -47 -80 -67 -46
-20 -50 63 42 -50 -82 -68 -47
-22 -52 63 39 -53 -85 -70 -48
-25 -54 63 37 -56 -87 -72 -50
-28 -57 63 35 -59 -90 -74 -51
-31 -59 62 33 -62 -92 -76 -53
-28 -58 62 31 -63 -93 -76 -53
-24 -56 62 29 -65 -95 -77 -53
-20 -55 63 27 -67 -96 -77 -54
-17 -53 63 25 -69 -98 -78 -54
-13 -51 64 23 -71 -100 -79 -55
-16 -52 64 23 -72 -100 -79 -55
-20 -53 64 22 -73 -100 -79 -55
-23 -55 64 21 -74 -101 -79 -54
-26 -56 64 20 -75 -101 -79 -54
-30 -58 65 19 -77 -102 -80 -53
-28 -58 63 19 -77 -102 -80 -53
-26 -58 61 18 -77 -102 -80 -53
-24 -58 59 17 -77 -102 -80 -54
-22 -58 57 16 -77 -102 -80 -54
-20 -57 55 15 -78 -103 -81 -55
-20 -55 54 13 -78 -102 -81 -55
-19 -53 53 11 -78 -101 -80 -54
-19 -51 51 9 -78 -100 -79 -54
-18 -49 50 7 -78 -99 -78 -53
-17 -47 48 5 -78 -98 -77 -52
-17 -46 46 5 -75 -94 -74 -51
-16 -45 44 5 -71 -90 -71 -49
-15 -44 40 5 -68 -86 -68 -48
-14 -43 38 5 -65 -81 -65 -46
-13 -41 35 4 -61 -77 -62 -44
-13 -40 34 4 -60 -74 -59 -43
-13 -38 32 3 -58 -70 -57 -40
-13 -36 31 2 -57 -67 -54 -38
-13 -34 29 1 -55 -64 -51 -36
-13 -32 27 0 -53 -60 -48 -34
-15 -29 27 0 -48 -56 -44 -30
-18 -26 26 1 -43 -52 -39 -25
-20 -23 25 1 -37 -48 -35 -20
-23 -20 24 2 -32 -43 -30 -16
-26 -17 23 3 -27 -38 -26 -11
-23 -16 21 3 -27 -38 -26 -11
-19 -15 19 2 -27 -37 -26 -11
-15 -13 16 1 -26 -36 -25 -11
-12 -12 14 0 -26 -35 -25 -11
-8 -10 11 -2 -25 -34 -24 -10
-7 -8 11 -2 -24 -33 -23 -9
-5 -5 11 0 -22 -32 -21 -8
-3 -2 12 1 -20 -31 -20 -7
0 2 12 2 -18 -30 -18 -6
2 5 13 3 -16 -28 -16 -4
0 4 11 3 -16 -28 -16 -5
-3 2 9 2 -16 -28 -17 -6
-5 1 6 1 -17 -29 -17 -7
-7 -2 4 0 -17 -29 -18 -8
-10 -4 1 -2 -18 -30 -19 -10
-9 -3 1 -2 -17 -29 -18 -8
-8 -2 2 0 -15 -27 -17 -6
-7 1 2 1 -14 -26 -15 -4
-6 2 3 2 -12 -24 -14 -2
-4 4 4 3 -10 -22 -12 2
-4 5 4 3 -10 -21 -12 2
-3 6 4 4 -9 -20 -12 2
-3 7 4 4 -8 -19 -12 2
-2 8 4 5 -7 -18 -12 2
0 9 4 6 -6 -17 -11 1
0 9 4 6 -6 -17 -11 1
0 9 4 7 -6 -17 -11 0
-2 8 4 7 -6 -17 -10 0
-2 8 4 8 -6 -17 -10 -2
-3 7 5 9 -5 -17 -9 -3
-4 6 5 9 -5 -16 -9 -2
-5 5 4 9 -4 -15 -8 0
-7 4 4 9 -4 -14 -7 2
-8 3 3 9 -3 -13 -6 3
-10 2 2 10 -2 -12 -5 5
-7 2 2 10 -2 -11 -5 5
-3 3 1 10 0 -10 -5 4
1 4 1 10 0 -9 -4 4
5 5 0 10 1 -8 -4 3
9 6 -2 11 2 -7 -3 2
8 6 -2 11 2 -7 -3 2
7 6 -2 11 3 -6 -3 2
6 6 -2 11 3 -6 -2 3
5 6 -2 11 4 -5 -2 3
4 6 0 10 5 -4 0 4
2 6 0 10 5 -4 0 4
0 6 -2 10 5 -3 0 4
-3 6 -2 10 6 -3 1 5
-5 6 -3 10 6 -2 1 5
-7 5 -4 11 7 0 2 6
-6 5 -4 11 7 0 2 6
-5 5 -4 10 7 0 3 6
-4 5 -5 10 6 1 3 7
-3 5 -5 9 6 1 4 7
0 6 -6 8 5 2 5 8
1 7 -5 9 6 2 5 8
3 9 -4 10 7 3 6 9
5 11 -3 11 8 3 7 10
7 13 -2 12 9 4 8 11
9 15 0 13 10 5 9 12
6 13 0 13 10 5 9 12
3 10 0 12 9 5 9 12
-2 7 -2 12 9 5 8 11
-5 4 -2 11 8 5 8 11
-9 1 -3 10 7 4 7 10
-9 1 -3 10 7 4 7 10
-8 1 -3 10 7 3 6 9
-8 2 -3 10 7 3 6 9
-7 2 -3 10 7 2 5 8
-6 3 -2 10 6 1 4 7
-5 3 -3 9 5 1 4 7
-3 3 -4 8 4 0 3 6
0 3 -5 7 3 -2 2 5
2 3 -6 6 2 -3 1 4
4 2 -8 5 0 -4 0 3
3 2 -8 5 0 -4 0 3
2 2 -8 5 0 -4 0 3
1 2 -7 5 0 -5 0 3
0 2 -7 5 0 -5 0 3
-3 3 -6 5 1 -6 -2 4
-3 3 -6 5 1 -6 -2 4
-3 2 -6 5 0 -6 -2 4
-3 2 -6 5 0 -6 -2 4
-3 1 -6 5 -2 -6 -2 4
-3 1 -6 5 -2 -6 -2 4
-3 0 -6 4 -3 -5 0 3
-3 0 -6 4 -3 -5 0 3
-3 0 -6 4 -3 -6 0 3
-3 0 -6 4 -3 -6 0 3
-3 0 -6 4 -3 -6 0 3
-3 0 -7 4 -3 -7 -2 3
-2 0 -7 4 -4 -8 -3 3
0 0 -7 3 -4 -9 -4 3
1 0 -7 3 -5 -10 -5 3
2 0 -7 3 -5 -10 -6 3
2 0 -6 2 -6 -11 -7 2
1 -2 -6 2 -6 -11 -7 1
0 -3 -7 1 -6 -11 -7 0
-2 -4 -7 1 -6 -11 -7 -2
-3 -5 -7 1 -6 -11 -7 -2
-2 -5 -8 0 -7 -12 -8 -3
1 -4 -7 0 -7 -12 -8 -3
4 -2 -6 0 -7 -12 -8 -3
6 0 -5 0 -7 -12 -8 -3
8 1 -5 0 -7 -12 -8 -3
7 2 -4 2 -6 -12 -7 1
5 2 -3 4 -4 -10 -6 3
2 3 -2 6 -3 -9 -6 5
0 3 0 8 0 -7 -5 7
-3 3 0 9 1 -6 -5 9
-3 4 1 10 2 -5 -4 8
-2 5 1 9 1 -6 -4 6
0 5 1 8 0 -7 -5 4
1 6 1 7 -2 -8 -5 2
2 6 1 6 -2 -9 -5 0
2 7 2 5 -3 -10 -6 -2
1 8 3 5 -3 -10 -6 0
0 8 5 6 -2 -9 -6 0
-2 9 6 6 -2 -9 -6 1
-3 9 7 6 -2 -9 -6 1
-3 10 8 7 0 -8 -5 2
-2 11 8 7 0 -8 -5 2
1 12 8 7 0 -9 -5 3
2 13 8 7 0 -9 -5 3
3 13 8 7 0 -9 -5 3
3 12 8 6 -2 -10 -6 4
1 10 8 5 -2 -10 -6 3
-2 8 7 4 -3 -11 -6 3
-4 6 7 3 -3 -11 -6 2
-5 4 7 3 -3 -11 -6 2
-6 4 6 2 -4 -12 -7 1
-5 6 6 2 -4 -11 -6 2
-4 8 6 2 -4 -11 -5 3
-3 10 6 2 -4 -10 -4 4
-3 12 6 2 -4 -10 -4 5
0 11 1 0 -5 -11 -5 4
1 9 -5 -4 -7 -13 -7 2
3 7 -10 -7 -10 -16 -9 0
4 5 -15 -10 -12 -18 -11 -3
5 3 -20 -12 -14 -20 -13 -5
6 3 -21 -13 -14 -20 -12 -4
6 4 -20 -12 -12 -18 -9 0
5 6 -20 -12 -10 -16 -7 3
5 7 -19 -11 -8 -14 -4 6
5 8 -19 -11 -7 -12 -2 8
4 7 -18 -10 -7 -11 -2 8
4 4 -18 -10 -8 -12 -3 7
4 1 -18 -10 -9 -13 -4 6
4 -3 -18 -10 -10 -14 -5 5
4 -6 -18 -10 -11 -15 -6 4
5 -7 -18 -9 -12 -16 -7 3
7 -7 -17 -9 -12 -16 -7 3
8 -6 -16 -9 -12 -17 -7 2
10 -6 -15 -9 -12 -17 -7 2
11 -6 -15 -9 -12 -17 -7 2
12 -6 -14 -10 -13 -18 -8 1
13 -7 -13 -10 -13 -18 -9 0
13 -9 -12 -10 -13 -18 -9 -2
14 -10 -11 -10 -13 -18 -10 -3
14 -11 -11 -10 -13 -18 -10 -3
13 -11 -8 -8 -12 -18 -11 -4
11 -9 -5 -7 -11 -17 -10 -3
8 -7 -3 -6 -10 -16 -9 -2
6 -5 1 -5 -9 -15 -8 0
4 -4 3 -4 -8 -15 -8 0
2 -4 4 -3 -7 -14 -8 -2
0 -6 4 -3 -7 -15 -10 -4
-2 -8 5 -3 -8 -16 -11 -6
-4 -10 5 -3 -8 -17 -13 -8
-5 -11 5 -3 -8 -18 -14 -10
-6 -12 6 -4 -9 -19 -15 -11
-5 -11 6 -4 -9 -19 -15 -11
-4 -10 6 -4 -9 -18 -15 -11
-3 -9 6 -4 -9 -18 -15 -11
-2 -8 6 -4 -9 -18 -15 -11
0 -7 7 -4 -9 -17 -14 -12
-2 -8 7 -4 -9 -17 -14 -12
-3 -9 7 -4 -8 -17 -14 -11
-4 -10 7 -4 -8 -17 -14 -11
-4 -10 7 -4 -8 -17 -14 -11
-5 -11 7 -3 -7 -16 -13 -10
-6 -11 7 -3 -7 -16 -13 -11
-7 -11 6 -3 -8 -15 -12 -12
-8 -11 6 -3 -8 -15 -12 -13
-9 -11 6 -3 -8 -15 -12 -13
-10 -11 6 -2 -8 -14 -11 -14
-9 -10 7 -2 -7 -14 -11 -13
-8 -10 8 -2 -6 -14 -11 -12
-7 -9 9 -2 -5 -14 -11 -11
-7 -9 10 -2 -4 -14 -11 -11
-6 -8 10 -2 -3 -14 -12 -11
-5 -9 9 -3 -4 -15 -13 -12
-4 -10 7 -4 -5 -16 -14 -14
-3 -11 6 -5 -6 -17 -15 -15
-3 -11 5 -5 -7 -17 -15 -16
-3 -12 11 2 -6 -18 -17 -18
-5 -12 20 9 -4 -19 -19 -20
-7 -12 29 17 -2 -20 -21 -22
-9 -12 38 25 2 -21 -23 -24
-11 -12 48 33 4 -21 -24 -25
-12 -14 61 71 28 -13 -24 -27
-11 -16 74 112 55 -3 -22 -29
-10 -18 88 153 80 8 -20 -31
-9 -20 102 194 107 18 -18 -33
-8 -22 115 235 134 28 -17 -34
0 -6 101 235 168 57 1 -24
8 14 82 230 201 88 19 -12
16 33 63 225 236 117 37 1
23 53 45 220 270 148 56 14
31 73 25 215 305 178 74 26
44 102 -12 157 326 231 121 59
57 132 -52 95 346 287 173 94
70 162 -92 32 364 344 224 128
82 192 -132 -31 384 399 274 162
96 222 -172 -94 403 455 325 197
105 240 -212 -146 410 524 391 237
113 258 -251 -198 415 596 459 277
122 274 -289 -249 422 667 525 317
131 292 -329 -302 427 737 593 358
140 309 -368 -353 432 809 659 398
135 317 -386 -393 385 805 661 403
127 325 -399 -432 329 789 655 404
118 332 -413 -471 274 774 648 405
110 341 -427 -510 219 760 641 406
102 349 -441 -549 163 744 634 406
89 321 -419 -533 100 627 543 361
75 288 -391 -511 34 495 440 308
61 256 -362 -487 -30 364 338 255
47 223 -333 -464 -95 233 235 201
32 190 -306 -440 -159 102 133 149
24 158 -272 -401 -176 44 81 113
16 126 -237 -359 -185 -6 37 79
8 94 -203 -317 -194 -55 -7 46
0 62 -169 -275 -203 -103 -51 12
-9 29 -135 -234 -213 -152 -95 -21
-11 13 -115 -205 -198 -150 -100 -32
-12 0 -98 -179 -179 -141 -98 -40
-14 -15 -80 -152 -159 -132 -96 -48
-15 -29 -63 -127 -141 -122 -94 -56
-16 -44 -46 -100 -121 -113 -92 -64
-17 -46 -34 -82 -106 -103 -86 -62
-16 -46 -25 -66 -91 -92 -78 -59
-15 -46 -16 -50 -76 -81 -72 -55
-14 -46 -6 -33 -61 -71 -65 -52
-14 -46 4 -18 -46 -61 -58 -48
-13 -43 8 -10 -38 -55 -54 -46
-12 -38 11 -3 -31 -49 -50 -45
-12 -33 15 4 -25 -44 -46 -44
-11 -28 18 11 -18 -38 -41 -43
-11 -23 21 18 -11 -32 -37 -41
-10 -21 22 19 -10 -32 -37 -40
-10 -20 22 19 -10 -33 -38 -40
-10 -19 22 20 -10 -35 -39 -40
-10 -18 22 20 -10 -36 -40 -40
-10 -17 22 20 -10 -37 -41 -40
-10 -16 21 21 -9 -38 -43 -40
-11 -16 21 22 -8 -37 -41 -39
-11 -15 21 23 -8 -36 -40 -39
-12 -15 21 24 -7 -35 -39 -38
-12 -15 21 25 -7 -35 -39 -38
-13 -14 22 26 -6 -34 -38 -37
-12 -14 22 26 -7 -35 -39 -38
-12 -15 22 26 -7 -36 -40 -39
-11 -15 22 26 -8 -37 -41 -40
-11 -15 22 26 -8 -37 -43 -41
-11 -16 22 27 -9 -38 -44 -43
-12 -16 23 28 -8 -37 -43 -41
-13 -17 23 28 -8 -36 -41 -40
-14 -17 24 29 -7 -35 -40 -39
-15 -17 24 29 -7 -34 -39 -38
-15 -17 25 30 -6 -33 -38 -37
-12 -15 25 31 -6 -34 -39 -38
-10 -13 26 32 -5 -34 -40 -39
-8 -12 26 33 -5 -35 -41 -40
-6 -10 26 33 -5 -35 -41 -40
-5 -10 27 34 -4 -36 -43 -43
-6 -12 26 34 -5 -36 -44 -44
-7 -14 25 34 -5 -37 -44 -45
-8 -15 24 34 -6 -37 -45 -46
-9 -17 24 34 -6 -37 -45 -47
-10 -18 24 34 -7 -38 -46 -48
-10 -17 25 35 -6 -38 -46 -47
-10 -16 27 36 -5 -37 -45 -46
-10 -15 29 38 -4 -37 -45 -45
-10 -14 30 39 -4 -37 -45 -44
-11 -14 30 40 -3 -36 -44 -43
-11 -15 29 40 -3 -36 -44 -43
-12 -16 28 40 -4 -36 -44 -41
-12 -17 27 40 -4 -36 -44 -41
-12 -18 26 40 -4 -36 -44 -41
-12 -19 25 40 -5 -36 -45 -40
-11 -18 26 42 -5 -36 -45 -41
-9 -17 27 42 -5 -36 -46 -43
-7 -16 28 43 -5 -36 -46 -44
-6 -16 28 43 -5 -36 -46 -44
-7 -16 29 44 -4 -37 -47 -45
-9 -19 28 43 -5 -38 -48 -47
-12 -21 28 43 -6 -39 -49 -48
-14 -23 27 42 -7 -40 -50 -49
-17 -25 27 42 -7 -40 -51 -50
-17 -26 27 42 -8 -41 -52 -51
-15 -24 29 43 -7 -41 -51 -50
-13 -23 31 45 -6 -40 -51 -49
-11 -22 32 47 -5 -40 -50 -48
-9 -21 34 48 -4 -40 -50 -48
-9 -20 36 49 -3 -39 -49 -47
-11 -21 37 50 -3 -39 -49 -47
-13 -21 38 51 -3 -39 -50 -47
-14 -22 40 52 -3 -39 -50 -47
-16 -22 42 52 -3 -39 -50 -47
-17 -23 43 53 -4 -40 -51 -48
-16 -23 44 53 -5 -41 -52 -49
-15 -23 45 53 -6 -43 -52 -49
-14 -23 46 53 -7 -44 -53 -50
-14 -23 47 53 -7 -45 -53 -50
-12 -23 48 54 -10 -48 -55 -52
-11 -25 48 52 -13 -51 -57 -54
-9 -27 48 51 -16 -54 -60 -56
-7 -28 48 50 -19 -57 -62 -58
-6 -30 48 49 -22 -60 -64 -60
-7 -31 49 48 -23 -61 -65 -61
-10 -32 51 48 -24 -62 -66 -61
-13 -32 53 49 -25 -63 -66 -61
-17 -33 55 49 -26 -64 -67 -61
-20 -33 57 49 -26 -65 -67 -61
-21 -34 58 49 -29 -68 -69 -61
-21 -35 58 48 -32 -70 -71 -63
-20 -36 59 46 -35 -73 -74 -66
-20 -37 59 44 -39 -75 -76 -68
-20 -38 59 43 -43 -78 -78 -70
-19 -39 60 42 -45 -81 -80 -71
-19 -41 61 40 -48 -83 -82 -71
-19 -43 61 40 -50 -87 -85 -72
-19 -44 62 39 -53 -89 -86 -72
-19 -45 62 39 -55 -92 -88 -72
-19 -47 63 37 -58 -93 -89 -74
-19 -50 64 36 -61 -94 -90 -75
-20 -52 65 35 -63 -95 -90 -76
-20 -55 66 33 -66 -96 -91 -78
-20 -57 66 32 -69 -97 -91 -79
-21 -58 67 29 -71 -99 -93 -81
-21 -58 66 26 -73 -101 -94 -82
-21 -58 65 24 -75 -104 -96 -83
-21 -58 64 21 -76 -106 -98 -86
-21 -58 64 18 -78 -108 -99 -87
-21 -59 63 16 -80 -109 -100 -88
-22 -59 63 15 -81 -110 -100 -88
-23 -60 63 13 -82 -111 -100 -88
-24 -60 63 11 -85 -112 -100 -88
-25 -60 63 10 -86 -113 -100 -88
-26 -61 64 9 -87 -114 -101 -88
-26 -60 64 9 -86 -113 -100 -87
-26 -59 64 8 -85 -112 -100 -86
-26 -58 64 8 -83 -111 -99 -85
-26 -57 64 8 -83 -110 -99 -85
-26 -56 62 7 -82 -108 -97 -83
-26 -57 61 6 -81 -107 -96 -81
-26 -57 60 5 -80 -106 -94 -80
-26 -58 58 4 -79 -104 -92 -79
-26 -58 57 3 -79 -103 -91 -78
-25 -59 56 2 -77 -100 -90 -76
-25 -58 54 2 -76 -97 -88 -74
-26 -57 53 2 -75 -94 -87 -71
-26 -56 52 2 -73 -91 -86 -69
-26 -56 51 2 -72 -88 -85 -67
-26 -52 48 2 -68 -85 -80 -65
-24 -47 46 1 -64 -80 -76 -64
-23 -43 43 0 -60 -76 -71 -62
-21 -37 39 -2 -56 -72 -67 -60
-19 -33 36 -2 -52 -68 -63 -59
-18 -31 33 -3 -50 -66 -60 -57
-16 -29 30 -3 -47 -63 -58 -55
-15 -28 27 -4 -45 -60 -55 -52
-14 -27 24 -4 -41 -58 -53 -50
-13 -26 21 -4 -39 -55 -51 -48
-11 -24 19 -5 -38 -54 -49 -46
-10 -22 17 -6 -36 -53 -48 -45
-8 -19 15 -7 -35 -53 -47 -43
-6 -17 13 -8 -34 -52 -45 -40
-5 -15 11 -8 -33 -52 -44 -39
-5 -13 10 -9 -31 -50 -41 -37
-6 -12 10 -9 -29 -47 -39 -35
-7 -10 10 -8 -28 -45 -36 -33
-9 -8 10 -8 -26 -41 -34 -31
-10 -7 10 -8 -24 -39 -32 -29
-9 -6 10 -7 -23 -38 -31 -28
-5 -5 9 -8 -23 -38 -31 -28
-2 -4 7 -8 -23 -38 -31 -28
3 -3 5 -9 -23 -38 -31 -28
7 -3 4 -9 -23 -38 -31 -28
7 -2 4 -10 -23 -38 -31 -27
5 -2 5 -9 -21 -36 -30 -25
4 -2 6 -8 -20 -35 -29 -24
2 -2 8 -7 -19 -34 -28 -23
0 -2 9 -6 -18 -33 -27 -22
-3 0 10 -5 -17 -32 -26 -21
-4 1 9 -5 -17 -31 -25 -20
-5 2 8 -5 -16 -30 -24 -19
-7 3 7 -5 -16 -30 -24 -19
-8 4 6 -5 -16 -29 -23 -18
-9 4 5 -4 -15 -28 -22 -17
-8 2 4 -5 -15 -29 -24 -18
-8 1 3 -6 -16 -30 -25 -19
-7 -2 3 -6 -16 -30 -26 -19
-7 -4 2 -7 -16 -31 -27 -20
-6 -4 2 -7 -16 -31 -27 -20
-6 -3 3 -5 -15 -29 -24 -19
-6 0 5 -4 -13 -26 -22 -18
-6 1 6 -2 -12 -24 -20 -16
-6 3 8 1 -10 -22 -17 -15
-5 4 8 2 -9 -21 -16 -14
-3 3 6 1 -9 -21 -17 -15
-2 2 4 0 -9 -22 -18 -16
1 1 2 -2 -9 -22 -18 -16
3 0 0 -3 -9 -22 -19 -17
4 0 0 -3 -9 -22 -19 -17
4 2 1 -2 -7 -20 -16 -15
4 5 2 1 -6 -17 -14 -13
4 7 4 2 -4 -15 -12 -11
4 9 5 4 -2 -13 -9 -9
2 8 5 5 0 -12 -8 -9
0 5 4 4 -2 -13 -10 -10
-3 2 2 3 -2 -14 -11 -11
-5 -2 1 3 -3 -14 -12 -13
-7 -5 -2 2 -3 -15 -13 -14
-7 -6 -3 1 -4 -15 -14 -15
-5 -5 -2 2 -3 -14 -12 -13
-3 -4 -2 2 -2 -13 -11 -12
0 -3 0 3 -2 -11 -10 -11
2 -2 0 3 0 -10 -9 -10
3 0 1 4 1 -9 -8 -9
2 -2 1 4 1 -9 -8 -10
2 -3 0 4 1 -9 -8 -10
1 -3 0 4 1 -9 -8 -11
1 -4 0 4 1 -9 -8 -11
0 -5 -2 3 1 -8 -7 -12
0 -4 -2 4 2 -7 -6 -11
-2 -3 0 5 3 -6 -4 -10
-2 -2 0 5 4 -4 -3 -9
-2 0 0 6 5 -3 0 -8
-3 1 1 7 6 -2 0 -7
-3 -2 0 6 5 -4 -2 -9
-3 -3 -2 5 4 -5 -4 -10
-3 -5 -3 4 3 -7 -5 -12
-3 -6 -4 3 2 -8 -7 -13
-3 -7 -5 2 1 -9 -8 -14
-3 -5 -5 2 1 -9 -7 -12
-3 -4 -5 2 2 -8 -7 -11
-3 -3 -5 2 2 -8 -6 -10
-3 -2 -5 2 2 -8 -6 -9
-3 0 -4 2 3 -7 -5 -8
1 1 -4 2 3 -7 -5 -8
4 1 -4 2 3 -7 -5 -8
7 2 -4 2 3 -7 -5 -8
10 2 -4 2 3 -7 -5 -8
9 3 -3 3 3 -8 -6 -9
5 2 -2 4 3 -8 -5 -8
2 1 0 4 3 -7 -4 -8
-3 1 0 5 3 -7 -4 -7
-6 0 1 5 3 -7 -3 -7
-7 -2 2 6 3 -6 -2 -6
-6 -3 0 5 2 -8 -4 -8
-4 -4 -2 4 2 -9 -5 -9
-3 -4 -4 4 1 -11 -7 -10
0 -5 -5 3 1 -12 -8 -11
1 -6 -6 2 0 -13 -9 -12
0 -6 -5 2 0 -13 -9 -12
-2 -6 -4 1 -2 -12 -9 -11
-3 -6 -4 1 -2 -12 -9 -11
-4 -6 -3 1 -2 -12 -9 -11
-5 -5 -2 0 -3 -11 -8 -10
-4 -5 -2 0 -3 -13 -9 -11
-3 -5 -2 0 -3 -14 -9 -12
-3 -5 -2 0 -3 -15 -10 -12
-2 -5 -2 0 -3 -16 -10 -13
0 -6 -2 1 -4 -17 -11 -14
-2 -6 -3 0 -4 -17 -11 -12
-3 -6 -3 0 -5 -17 -10 -11
-3 -6 -4 -2 -5 -17 -10 -10
-4 -6 -4 -2 -5 -17 -10 -9
-5 -6 -5 -3 -6 -16 -9 -8
-4 -5 -3 -2 -5 -16 -9 -8
-4 -5 -2 -2 -5 -16 -8 -8
-3 -4 0 0 -4 -16 -8 -8
-3 -4 1 0 -4 -16 -8 -8
-2 -3 2 1 -3 -15 -7 -7
0 -3 2 1 -3 -15 -7 -8
0 -3 2 1 -3 -15 -7 -8
1 -3 2 1 -3 -15 -7 -9
1 -3 2 1 -3 -15 -7 -9
2 0 2 0 -4 -15 -8 -10
1 2 4 1 -3 -15 -8 -10
1 4 5 2 -2 -14 -8 -10
0 7 7 2 -2 -14 -8 -10
0 9 9 3 0 -14 -8 -10
-2 10 10 4 1 -13 -8 -9
-2 12 10 5 1 -12 -7 -8
0 13 11 5 2 -12 -6 -8
0 14 11 6 2 -11 -6 -7
0 15 11 6 2 -11 -5 -7
1 15 12 7 3 -10 -4 -6
1 14 11 5 2 -12 -5 -6
2 12 9 4 1 -13 -6 -7
3 11 8 2 0 -15 -7 -8
3 9 7 1 -2 -16 -8 -8
4 8 6 0 -3 -17 -9 -9
4 8 6 0 -3 -17 -9 -9
3 8 5 -2 -4 -17 -9 -9
2 8 5 -3 -4 -17 -9 -9
2 8 5 -3 -4 -17 -9 -9
1 9 2 -4 -5 -16 -8 -8
0 9 -3 -5 -6 -16 -8 -7
-2 8 -8 -7 -7 -17 -8 -6
-3 7 -12 -8 -8 -17 -8 -5
-4 7 -16 -9 -9 -17 -8 -4
-3 5 -19 -10 -10 -18 -7 -4
1 4 -21 -11 -11 -19 -9 -6
5 2 -23 -12 -13 -21 -10 -9
8 1 -26 -13 -14 -22 -12 -11
11 -2 -28 -14 -15 -23 -13 -14
11 -3 -27 -14 -15 -24 -14 -14
7 -4 -24 -13 -14 -22 -12 -11
3 -5 -21 -11 -12 -21 -11 -9
0 -5 -18 -9 -11 -19 -9 -6
-5 -6 -15 -7 -9 -18 -8 -3
0 -5 -13 -6 -8 -17 -7 -2
10 0 -12 -6 -8 -17 -7 -2
19 5 -11 -5 -8 -16 -6 0
29 9 -10 -5 -8 -15 -5 1
39 13 -9 -5 -8 -15 -5 1
39 13 -8 -4 -7 -14 -4 2
31 9 -8 -4 -7 -15 -4 1
23 5 -8 -4 -8 -16 -5 0
15 2 -8 -4 -9 -17 -6 -2
7 -3 -8 -4 -9 -18 -6 -3
3 -5 -7 -4 -10 -19 -7 -4
2 -6 -5 -4 -10 -19 -9 -6
0 -7 -4 -4 -11 -20 -10 -7
-2 -7 -2 -4 -11 -20 -12 -9
-4 -8 0 -4 -11 -20 -13 -10
-5 -9 1 -5 -12 -21 -14 -11
-4 -9 1 -4 -12 -21 -14 -11
-2 -9 2 -3 -11 -21 -14 -11
0 -9 3 -2 -11 -21 -14 -11
1 -9 3 0 -11 -21 -14 -11
2 -8 4 1 -10 -21 -13 -12
1 -8 4 1 -10 -21 -13 -12
0 -8 5 1 -10 -21 -13 -12
0 -8 5 1 -10 -21 -13 -12
-2 -8 5 1 -10 -21 -13 -12
-3 -9 6 1 -10 -20 -14 -13
-3 -8 6 1 -10 -20 -14 -13
-2 -7 6 2 -10 -19 -13 -12
0 -6 6 2 -10 -19 -12 -11
0 -5 6 2 -10 -19 -12 -11
1 -5 7 3 -9 -18 -11 -10
-2 -7 6 2 -9 -18 -12 -11
-3 -9 5 1 -10 -19 -13 -12
-5 -11 5 1 -11 -20 -13 -12
-6 -13 4 0 -11 -20 -14 -13
-7 -13 3 -2 -12 -21 -15 -14
-7 -12 4 0 -11 -20 -14 -13
-6 -10 6 1 -10 -19 -12 -11
-6 -8 7 2 -9 -18 -11 -10
-6 -6 8 3 -8 -17 -10 -9
-5 -5 9 4 -7 -16 -9 -8
-6 -7 9 4 -8 -17 -10 -9
-7 -8 8 4 -9 -18 -11 -11
-8 -10 7 4 -9 -19 -12 -12
-9 -11 7 4 -10 -20 -13 -13
-9 -12 13 11 -8 -21 -15 -14
-6 -11 24 25 -2 -21 -17 -16
-3 -10 36 40 5 -22 -19 -18
1 -10 49 55 11 -22 -21 -19
3 -9 61 69 17 -22 -24 -21
3 -9 72 97 35 -18 -25 -23
-2 -11 84 135 61 -9 -26 -26
-5 -13 95 172 87 1 -27 -29
-9 -15 106 209 112 10 -28 -32
-13 -18 117 245 138 19 -29 -34
-11 -8 110 253 167 43 -16 -27
-3 13 89 238 199 76 9 -10
6 33 67 224 232 110 33 8
14 54 46 210 264 144 59 24
22 74 24 195 297 177 84 42
35 100 -8 154 320 228 129 71
53 130 -46 95 340 292 188 110
69 159 -83 35 358 355 248 149
86 189 -121 -24 378 419 308 188
103 220 -159 -83 396 481 367 227
116 240 -201 -141 404 551 434 267
128 255 -244 -198 404 623 506 308
139 269 -287 -256 403 696 576 349
150 283 -331 -312 402 770 648 389
161 299 -374 -369 402 843 720 430
158 306 -395 -411 366 851 739 445
144 310 -400 -443 306 811 722 440
129 313 -405 -475 245 771 703 436
114 316 -410 -507 185 731 686 431
99 319 -415 -539 125 691 669 426
85 302 -401 -534 68 602 597 392
69 267 -370 -503 15 479 487 336
54 232 -340 -471 -38 356 378 279
38 197 -308 -439 -92 232 268 224
23 162 -277 -407 -145 109 158 168
12 133 -246 -372 -172 31 88 126
5 106 -216 -333 -179 -14 46 92
-4 79 -185 -295 -186 -58 4 58
-11 53 -154 -256 -193 -103 -39 25
-18 26 -123 -217 -200 -148 -81 -9
-22 9 -101 -185 -191 -159 -97 -25
-22 -4 -83 -158 -170 -144 -91 -29
-23 -15 -67 -132 -148 -129 -85 -33
-23 -27 -50 -105 -127 -113 -78 -37
-23 -39 -33 -78 -105 -98 -72 -41
-24 -45 -21 -59 -89 -87 -66 -43
-22 -45 -14 -46 -75 -78 -61 -39
-21 -45 -6 -32 -63 -70 -56 -36
-20 -45 2 -18 -51 -62 -50 -34
-18 -45 9 -5 -38 -54 -45 -31
-17 -41 14 4 -30 -49 -40 -29
-16 -37 16 9 -25 -45 -38 -27
-15 -32 18 14 -20 -41 -36 -26
-14 -28 20 19 -15 -38 -34 -25
-13 -23 22 24 -11 -35 -32 -23
-12 -21 23 27 -8 -33 -31 -22
-12 -20 23 27 -8 -33 -31 -22
-13 -19 24 28 -7 -33 -31 -23
-14 -18 24 29 -7 -33 -31 -23
-14 -17 24 29 -7 -33 -31 -23
-15 -16 25 30 -6 -33 -32 -24
-16 -16 25 31 -6 -33 -32 -24
-17 -15 25 32 -5 -33 -31 -24
-18 -14 25 32 -5 -33 -31 -24
-19 -14 25 33 -5 -33 -31 -24
-20 -13 26 34 -4 -33 -30 -23
-19 -14 26 34 -5 -34 -31 -24
-17 -15 25 34 -6 -35 -32 -25
-16 -15 24 34 -6 -35 -32 -26
-15 -16 24 34 -7 -36 -33 -27
-14 -17 23 34 -8 -36 -34 -28
-14 -16 25 36 -7 -34 -33 -27
-14 -14 27 38 -6 -32 -31 -25
-14 -13 28 40 -5 -30 -30 -24
-14 -12 30 43 -4 -28 -29 -23
-14 -11 31 44 -3 -27 -28 -22
-12 -11 29 43 -4 -29 -29 -23
-10 -12 27 40 -5 -31 -30 -24
-9 -12 26 39 -5 -32 -31 -24
-7 -12 24 38 -6 -34 -32 -25
-7 -13 23 37 -7 -35 -33 -26
-11 -13 25 37 -7 -35 -32 -26
-15 -14 26 38 -6 -35 -31 -25
-18 -15 27 39 -6 -35 -31 -24
-22 -15 29 39 -6 -35 -30 -24
-23 -16 30 40 -5 -34 -29 -23
-20 -15 30 43 -4 -34 -29 -23
-17 -14 30 45 -3 -33 -28 -23
-14 -13 30 46 -3 -32 -28 -23
-11 -12 30 48 -2 -32 -28 -23
-9 -11 31 49 0 -31 -27 -22
-9 -11 31 49 0 -31 -28 -22
-9 -12 31 49 0 -31 -29 -23
-9 -13 31 49 0 -31 -29 -24
-9 -13 31 49 0 -31 -30 -24
-10 -14 31 49 -2 -32 -31 -25
-10 -15 29 49 -2 -33 -32 -26
-11 -16 27 48 -3 -34 -34 -28
-12 -17 25 48 -3 -35 -35 -29
-12 -18 23 48 -3 -36 -36 -30
-13 -19 24 48 -4 -37 -37 -31
-13 -17 27 50 -2 -35 -35 -30
-14 -16 31 53 1 -33 -34 -28
-14 -15 35 55 2 -32 -33 -27
-14 -13 39 57 4 -30 -31 -26
-15 -12 42 59 5 -29 -30 -25
-15 -13 40 59 4 -31 -32 -26
-15 -14 39 58 2 -33 -33 -27
-15 -15 39 58 1 -34 -34 -28
-15 -16 38 58 0 -36 -36 -29
-15 -17 37 57 -2 -37 -37 -30
-15 -18 38 57 -3 -38 -38 -30
-15 -19 40 56 -4 -39 -39 -31
-15 -19 42 56 -4 -39 -39 -31
-15 -20 43 56 -5 -40 -40 -31
-14 -21 44 55 -6 -41 -41 -32
-15 -21 44 55 -6 -44 -41 -32
-16 -21 45 56 -6 -46 -43 -33
-17 -21 45 57 -6 -47 -43 -33
-18 -21 45 57 -6 -49 -43 -33
-19 -20 46 58 -7 -50 -44 -34
-17 -20 48 58 -9 -52 -45 -35
-15 -20 50 58 -11 -53 -46 -36
-13 -20 52 58 -12 -54 -47 -37
-11 -20 54 58 -14 -56 -48 -38
-11 -22 55 57 -16 -58 -50 -39
-13 -25 56 57 -19 -60 -52 -40
-16 -28 57 56 -22 -62 -54 -41
-18 -31 57 55 -24 -64 -56 -41
-20 -34 58 55 -27 -66 -58 -43
-21 -36 59 54 -30 -69 -61 -45
-19 -36 60 52 -34 -71 -63 -47
-17 -36 62 50 -37 -74 -65 -50
-15 -36 63 48 -40 -77 -67 -52
-13 -36 64 46 -45 -79 -69 -54
-13 -38 65 45 -48 -81 -71 -56
-16 -39 65 44 -49 -82 -71 -56
-18 -41 66 43 -51 -83 -72 -56
-21 -44 67 42 -53 -85 -73 -56
-24 -46 67 40 -55 -86 -73 -56
-26 -48 68 39 -58 -88 -74 -57
-26 -48 69 37 -60 -91 -76 -57
-25 -47 69 36 -62 -94 -78 -58
-24 -46 70 34 -64 -97 -80 -59
-24 -46 71 32 -66 -100 -82 -59
-23 -45 72 30 -69 -102 -83 -60
-21 -46 72 28 -71 -103 -85 -62
-19 -47 72 26 -73 -104 -86 -63
-17 -48 72 24 -76 -106 -88 -64
-15 -49 72 22 -78 -107 -89 -66
-16 -50 71 20 -80 -108 -90 -67
-20 -52 70 18 -82 -109 -90 -67
-25 -53 69 16 -85 -110 -90 -67
-30 -54 68 14 -87 -112 -91 -67
-34 -56 67 12 -89 -113 -91 -67
-36 -56 66 11 -91 -114 -92 -66
-32 -54 66 11 -90 -113 -91 -65
-29 -52 66 11 -90 -113 -90 -64
-25 -50 66 10 -89 -112 -88 -62
-21 -48 66 10 -88 -111 -87 -61
-19 -46 67 9 -87 -110 -86 -60
-19 -45 65 8 -87 -108 -86 -60
-18 -44 64 7 -87 -107 -85 -60
-17 -43 62 5 -86 -106 -83 -60
-17 -41 60 4 -86 -104 -83 -60
-16 -39 59 3 -83 -102 -81 -59
-16 -37 57 3 -79 -98 -77 -55
-16 -35 56 3 -76 -95 -74 -52
-16 -33 54 3 -73 -91 -71 -49
-16 -31 52 3 -69 -87 -67 -45
-17 -28 50 4 -67 -83 -65 -43
-16 -26 48 3 -65 -81 -63 -41
-16 -23 46 2 -64 -79 -62 -40
-15 -20 43 0 -62 -77 -60 -38
-14 -18 40 -2 -60 -75 -58 -37
-12 -15 37 -3 -58 -72 -56 -36
-8 -13 35 -3 -55 -69 -53 -34
-4 -11 32 -3 -52 -65 -50 -32
1 -8 29 -4 -48 -62 -47 -30
4 -6 27 -4 -45 -58 -44 -28
6 -4 25 -5 -41 -55 -40 -25
3 -2 24 -5 -38 -52 -37 -22
0 0 24 -5 -36 -50 -34 -20
-4 2 23 -4 -33 -47 -31 -17
-7 4 22 -4 -30 -44 -28 -14
-9 5 21 -3 -28 -41 -26 -12
-8 5 21 -3 -26 -40 -25 -12
-7 5 20 -3 -25 -39 -25 -12
-5 6 19 -3 -24 -37 -24 -11
-4 6 19 -3 -22 -36 -23 -11
-3 7 18 -2 -21 -35 -22 -10
-3 8 16 -2 -20 -34 -21 -9
-3 8 15 -2 -19 -33 -21 -8
-3 9 14 -2 -18 -31 -20 -6
-3 10 12 -2 -17 -30 -19 -5
-3 11 11 0 -16 -29 -18 -4
2 11 10 0 -16 -29 -18 -5
6 11 9 -2 -16 -29 -18 -5
10 12 8 -3 -16 -29 -19 -6
13 12 7 -3 -16 -29 -19 -7
16 13 6 -4 -16 -29 -20 -8
16 12 6 -5 -16 -29 -21 -10
17 11 6 -5 -16 -29 -21 -11
18 10 5 -6 -16 -29 -22 -12
18 9 5 -7 -16 -29 -23 -14
19 8 4 -8 -16 -30 -24 -15
20 10 4 -6 -13 -27 -21 -13
21 11 5 -4 -11 -25 -19 -11
22 13 6 -2 -9 -23 -17 -9
23 15 6 0 -7 -21 -15 -7
24 16 7 2 -5 -19 -13 -5
23 15 7 2 -5 -19 -13 -5
22 14 6 2 -5 -19 -13 -5
20 13 5 2 -5 -19 -13 -5
19 12 5 2 -5 -19 -13 -5
18 11 4 1 -5 -19 -12 -6
17 11 4 1 -4 -18 -11 -5
16 11 4 2 -3 -17 -10 -5
15 11 5 3 0 -15 -9 -4
14 11 5 3 1 -14 -8 -3
14 12 6 4 2 -13 -7 -2
17 12 4 4 2 -12 -7 -2
20 13 3 4 2 -11 -7 -2
23 14 2 4 3 -10 -6 -2
26 14 0 4 3 -9 -6 -2
26 15 -2 4 4 -8 -5 0
21 15 0 5 7 -5 -3 2
16 14 1 6 9 -3 0 3
11 13 3 8 11 0 2 5
6 13 4 9 13 2 3 7
3 12 5 10 15 4 5 8
4 12 5 10 14 4 5 7
4 12 4 9 13 3 5 7
5 12 3 8 12 2 4 6
6 12 3 8 11 2 4 5
7 12 2 7 10 1 3 4
10 11 2 7 9 1 2 3
12 11 2 7 9 1 2 1
14 10 2 7 8 0 1 0
16 9 2 7 7 0 0 -3
16 8 1 6 6 -2 -2 -4
11 8 2 7 7 -2 0 0
6 8 3 8 9 0 0 2
1 8 4 9 10 1 1 4
-5 8 5 10 12 1 2 6
-8 8 6 11 13 2 3 8
-5 8 5 10 12 2 3 7
-3 8 5 9 11 2 3 5
1 7 4 8 10 1 2 4
3 7 3 7 9 1 2 2
5 6 2 6 8 0 1 1
5 7 2 6 8 0 1 1
5 8 2 7 8 0 1 1
5 9 3 8 8 0 1 2
5 10 3 8 8 0 1 2
5 11 4 9 8 0 2 3
5 11 4 8 8 0 2 3
5 11 4 7 8 -2 2 3
5 10 3 6 7 -3 2 2
5 10 3 5 7 -3 2 2
6 9 2 4 6 -4 1 1
6 7 1 4 5 -5 0 0
7 6 1 4 4 -5 -2 -2
8 4 0 4 3 -6 -3 -4
8 2 -2 4 2 -7 -4 -5
8 1 -3 3 1 -8 -5 -6
3 2 -2 4 2 -7 -4 -3
-3 3 0 4 2 -6 -2 0
-8 4 2 5 3 -5 0 3
-13 5 3 6 4 -4 2 5
-16 6 4 7 5 -3 3 7
-11 6 3 7 4 -4 2 6
-6 7 2 6 4 -5 2 5
0 8 0 5 3 -6 1 3
5 8 -2 5 2 -7 0 2
9 9 -3 4 1 -8 -2 1
6 8 -3 4 1 -8 -2 1
4 8 -2 4 1 -8 -2 0
2 7 0 4 1 -8 -3 -2
0 6 0 4 1 -8 -3 -2
-3 5 1 3 0 -9 -4 -3
0 5 1 3 -2 -10 -4 -4
