I II V1 V2 V3 V4 V5 V6
-8 -10 4 -18 -19 -17 -12 -10
-8 -10 4 -18 -19 -17 -12 -10
-8 -10 4 -18 -19 -17 -12 -10
-8 -10 3 -18 -19 -17 -12 -10
-8 -10 3 -18 -19 -17 -12 -10
-8 -10 3 -18 -19 -17 -12 -10
-8 -11 2 -19 -19 -17 -13 -10
-8 -11 2 -19 -19 -17 -13 -10
-7 -10 2 -19 -19 -17 -13 -10
-7 -10 2 -19 -19 -17 -13 -10
-7 -10 2 -19 -19 -17 -13 -10
-6 -9 2 -20 -18 -18 -12 -10
-7 -10 2 -20 -18 -18 -12 -10
-8 -11 2 -20 -19 -18 -13 -11
-9 -12 2 -20 -19 -18 -13 -11
-9 -12 2 -20 -19 -18 -13 -11
-10 -13 1 -20 -20 -19 -14 -12
-10 -13 1 -20 -20 -19 -14 -12
-10 -13 1 -21 -20 -19 -14 -12
-10 -13 1 -21 -20 -19 -14 -12
-10 -13 1 -21 -20 -19 -14 -12
-10 -14 1 -22 -20 -20 -14 -11
-10 -14 1 -22 -20 -20 -14 -11
-11 -15 0 -22 -20 -20 -15 -11
-11 -15 0 -22 -20 -20 -15 -11
-11 -15 0 -22 -20 -20 -15 -11
-11 -15 -2 -22 -21 -20 -16 -12
-10 -14 -2 -22 -21 -20 -16 -12
-9 -12 -2 -22 -21 -19 -15 -12
-8 -11 -2 -22 -21 -19 -15 -12
-7 -10 -2 -22 -21 -19 -15 -12
-7 -10 0 -22 -20 -18 -14 -11
-8 -12 -2 -22 -20 -19 -15 -12
-9 -14 -2 -22 -21 -20 -15 -12
-10 -16 -3 -22 -21 -21 -16 -13
-11 -17 -3 -22 -21 -21 -16 -13
-12 -18 -4 -22 -22 -22 -17 -14
-12 -17 -4 -22 -22 -22 -17 -13
-11 -17 -3 -22 -22 -22 -16 -13
-11 -16 -3 -22 -22 -22 -16 -12
-11 -16 -3 -22 -22 -22 -16 -12
-10 -15 -2 -22 -21 -21 -15 -11
-10 -15 -3 -22 -21 -21 -15 -11
-10 -16 -3 -23 -22 -21 -15 -12
-10 -16 -4 -23 -22 -21 -15 -12
-10 -16 -4 -23 -22 -21 -15 -12
-11 -17 -5 -24 -23 -22 -16 -13
-11 -17 -5 -24 -23 -22 -16 -13
-11 -16 -4 -24 -23 -22 -16 -13
-11 -16 -4 -24 -23 -22 -16 -13
-11 -16 -4 -24 -23 -22 -16 -13
-10 -15 -3 -23 -22 -21 -17 -12
-10 -15 -3 -23 -22 -21 -17 -12
-10 -15 -3 -23 -22 -21 -17 -12
-10 -15 -3 -23 -22 -21 -17 -12
-10 -15 -3 -23 -22 -21 -17 -12
-9 -15 -4 -23 -23 -22 -16 -11
-8 -14 -3 -22 -22 -21 -16 -11
-7 -14 -3 -22 -22 -21 -16 -11
-6 -13 -2 -21 -21 -20 -16 -11
-6 -13 -2 -21 -21 -20 -16 -11
-5 -12 0 -20 -20 -19 -16 -11
-6 -13 -2 -21 -21 -20 -16 -11
-7 -14 -2 -21 -22 -20 -16 -12
-8 -15 -3 -22 -23 -21 -16 -12
-9 -16 -3 -22 -23 -21 -16 -12
-10 -17 -4 -23 -24 -22 -16 -13
-10 -17 -5 -23 -24 -22 -16 -13
-10 -17 -6 -23 -24 -22 -16 -13
-10 -17 -7 -23 -24 -22 -16 -13
-10 -17 -7 -23 -24 -22 -16 -13
-11 -17 -8 -23 -24 -23 -17 -13
-10 -17 -8 -23 -24 -23 -17 -13
-10 -17 -8 -23 -24 -22 -17 -12
-9 -17 -8 -23 -24 -22 -17 -12
-9 -17 -8 -23 -24 -22 -17 -12
-8 -16 -8 -23 -23 -21 -17 -11
-8 -16 -7 -23 -23 -21 -17 -11
-8 -15 -7 -23 -23 -21 -17 -12
-8 -15 -6 -23 -23 -21 -17 -12
-8 -15 -6 -23 -23 -21 -17 -12
-9 -14 -5 -23 -23 -22 -17 -13
-8 -14 -5 -22 -23 -21 -16 -12
-7 -14 -4 -21 -22 -21 -15 -11
-6 -14 -4 -20 -22 -20 -14 -10
-6 -14 -4 -20 -22 -20 -14 -10
-5 -13 -3 -19 -21 -19 -13 -9
-6 -13 -4 -19 -21 -19 -13 -9
-7 -12 -4 -19 -21 -19 -14 -9
-8 -12 -5 -19 -21 -19 -14 -9
-9 -12 -5 -19 -21 -19 -14 -9
-10 -10 -6 -20 -20 -17 -15 -10
-9 -8 -5 -19 -19 -16 -14 -9
-8 -6 -4 -18 -17 -15 -13 -8
-7 -4 -3 -17 -16 -14 -12 -7
-7 -2 -3 -16 -15 -13 -11 -7
-6 0 -2 -15 -14 -12 -10 -6
-5 1 -2 -15 -14 -11 -9 -5
-4 1 -2 -15 -14 -10 -8 -4
-3 2 -2 -15 -14 -9 -7 -3
-2 2 -2 -15 -14 -9 -7 -2
1 4 0 -13 -12 -7 -5 1
3 6 -2 -11 -10 -5 -3 2
5 8 -3 -9 -8 -3 -2 4
7 10 -4 -7 -6 0 1 5
9 11 -5 -5 -5 1 2 6
9 10 -7 -5 -5 1 3 7
8 8 -9 -7 -6 0 2 6
6 6 -11 -9 -8 -3 1 5
5 3 -13 -11 -9 -4 0 4
4 1 -14 -13 -10 -5 -2 4
3 0 -14 -14 -11 -6 -3 3
2 0 -13 -14 -11 -6 -3 3
1 0 -12 -14 -11 -6 -3 3
0 0 -11 -14 -11 -6 -3 3
0 0 -10 -14 -11 -6 -3 3
-2 0 -9 -13 -12 -6 -3 2
-2 -2 -8 -13 -13 -7 -4 1
-2 -3 -8 -13 -13 -8 -4 1
-2 -4 -7 -13 -14 -9 -5 0
-2 -4 -7 -13 -14 -9 -5 0
-3 -6 -6 -14 -15 -11 -7 -3
-5 -8 -6 -15 -16 -12 -8 -4
-7 -9 -6 -16 -17 -13 -10 -6
-10 -11 -6 -17 -18 -14 -11 -7
-12 -12 -6 -17 -19 -15 -12 -8
-12 -13 -6 -18 -20 -16 -13 -9
-11 -13 -5 -18 -20 -16 -13 -9
-10 -13 -5 -18 -20 -16 -13 -9
-9 -13 -4 -18 -20 -16 -13 -9
-8 -13 -4 -18 -20 -16 -13 -9
-7 -12 -3 -18 -21 -15 -13 -9
-8 -12 -3 -19 -22 -16 -14 -10
-8 -13 -4 -19 -23 -17 -14 -10
-9 -13 -4 -20 -24 -18 -15 -11
-9 -13 -4 -20 -24 -19 -15 -11
-10 -14 -5 -21 -25 -20 -16 -12
-10 -14 -5 -21 -25 -20 -16 -12
-10 -14 -5 -21 -25 -20 -16 -12
-10 -14 -5 -21 -25 -20 -16 -12
-10 -14 -5 -21 -25 -20 -16 -12
-10 -15 -4 -21 -25 -20 -15 -11
-10 -15 -4 -21 -25 -20 -15 -11
-10 -14 -3 -21 -25 -20 -16 -12
-10 -14 -3 -21 -25 -20 -16 -12
-10 -14 -3 -21 -25 -20 -16 -12
-9 -13 -2 -20 -25 -21 -17 -13
-9 -13 -2 -20 -25 -21 -17 -13
-9 -13 -2 -20 -25 -21 -17 -13
-9 -13 -2 -20 -25 -21 -17 -13
-9 -13 -2 -20 -25 -21 -17 -13
-8 -12 -2 -20 -25 -20 -17 -12
-8 -12 -2 -20 -24 -20 -17 -12
-8 -12 0 -20 -24 -20 -16 -12
-8 -12 0 -20 -23 -20 -16 -12
-8 -12 0 -20 -23 -20 -16 -12
-8 -13 1 -19 -22 -19 -15 -12
-9 -14 1 -20 -23 -19 -16 -12
-10 -15 0 -20 -23 -20 -16 -13
-11 -16 0 -21 -24 -20 -17 -13
-12 -17 0 -21 -24 -20 -17 -13
-13 -17 -2 -22 -25 -21 -18 -14
-12 -16 -2 -21 -25 -21 -18 -14
-11 -14 -2 -21 -24 -21 -18 -14
-10 -13 -2 -20 -24 -21 -18 -14
-9 -12 -2 -20 -24 -21 -18 -14
-8 -11 0 -19 -23 -20 -17 -13
-8 -11 0 -19 -23 -20 -17 -13
-7 -10 0 -19 -23 -19 -16 -12
-7 -10 0 -19 -23 -19 -16 -12
-7 -10 0 -19 -23 -19 -16 -12
-6 -9 0 -19 -22 -18 -15 -11
-6 -9 0 -19 -22 -18 -15 -11
-6 -9 0 -19 -22 -19 -16 -12
-6 -9 0 -19 -22 -19 -16 -12
-6 -9 0 -19 -22 -19 -16 -12
-7 -10 -2 -19 -22 -20 -17 -13
-7 -10 -2 -19 -22 -20 -17 -13
-7 -10 -2 -19 -22 -19 -16 -13
-7 -10 -2 -19 -22 -19 -16 -13
-7 -10 -2 -19 -22 -19 -16 -13
-6 -10 0 -20 -21 -18 -15 -13
-5 -10 0 -20 -20 -18 -15 -13
-5 -9 1 -19 -20 -18 -15 -12
-4 -9 1 -19 -19 -18 -15 -12
-4 -9 1 -19 -19 -18 -15 -12
-3 -8 2 -18 -18 -17 -14 -11
-3 -7 2 -18 -18 -17 -14 -11
-3 -7 2 -18 -18 -17 -14 -11
-3 -6 2 -18 -18 -17 -14 -11
-3 -6 2 -18 -18 -17 -14 -11
-4 -5 7 -13 -17 -20 -19 -16
-7 -6 13 -8 -16 -26 -26 -22
-9 -7 19 -2 -15 -31 -33 -28
-12 -8 25 4 -14 -37 -40 -34
-15 -8 31 10 -14 -44 -48 -41
-13 -9 35 26 -3 -36 -46 -39
-9 -8 39 44 10 -27 -39 -35
-5 -7 43 62 22 -17 -33 -31
0 -6 47 80 34 -8 -27 -26
4 -5 51 99 48 3 -21 -22
26 11 34 101 67 45 23 13
52 29 13 98 89 92 74 54
77 47 -10 96 111 140 126 94
103 65 -31 94 133 187 177 135
129 84 -53 92 154 235 228 176
142 107 -75 78 180 290 283 219
153 132 -97 63 206 347 339 263
164 156 -119 49 233 403 394 307
175 180 -142 33 260 461 448 351
186 204 -164 18 286 517 504 395
175 196 -164 10 275 483 470 375
158 179 -159 3 255 430 415 339
142 161 -154 -5 233 377 361 303
125 144 -149 -12 213 323 307 267
108 127 -144 -19 192 270 254 231
93 111 -129 -21 168 227 211 196
78 97 -110 -21 141 186 171 160
63 81 -92 -21 115 144 131 125
49 67 -73 -21 90 103 91 89
33 52 -56 -21 64 62 50 53
28 44 -47 -20 53 48 38 40
24 36 -39 -19 45 38 32 33
20 29 -33 -17 36 30 26 26
17 23 -26 -15 28 21 20 20
13 16 -20 -14 20 13 14 13
12 13 -17 -12 17 9 9 9
11 11 -15 -11 15 5 5 5
11 9 -13 -9 13 2 1 1
10 7 -12 -7 11 -2 -4 -3
10 5 -10 -6 9 -6 -8 -7
9 3 -9 -5 7 -8 -10 -9
8 2 -8 -6 5 -10 -12 -10
7 0 -7 -7 3 -13 -14 -11
6 -3 -6 -8 1 -15 -16 -13
5 -4 -6 -8 -2 -17 -18 -14
4 -5 -5 -9 -4 -19 -19 -16
4 -5 -5 -9 -5 -21 -21 -18
4 -6 -5 -9 -6 -23 -22 -20
4 -6 -5 -9 -8 -25 -23 -21
4 -6 -5 -9 -9 -27 -24 -23
3 -7 -4 -10 -10 -28 -25 -24
3 -7 -4 -10 -10 -28 -25 -24
3 -8 -3 -10 -10 -27 -26 -24
3 -8 -3 -10 -10 -27 -26 -24
3 -8 -3 -10 -10 -27 -26 -24
4 -9 -2 -10 -10 -26 -27 -25
4 -9 -2 -10 -11 -27 -28 -25
3 -10 -2 -10 -11 -28 -28 -26
3 -10 -2 -10 -12 -29 -29 -26
3 -10 -2 -10 -12 -30 -29 -26
2 -11 0 -10 -13 -31 -30 -27
2 -11 0 -10 -13 -31 -30 -27
2 -11 0 -10 -13 -31 -30 -27
2 -11 0 -10 -13 -31 -30 -27
2 -11 0 -10 -13 -31 -30 -27
3 -11 0 -9 -14 -31 -31 -28
4 -11 0 -9 -14 -31 -31 -28
4 -11 0 -9 -14 -31 -32 -28
5 -11 0 -9 -14 -31 -32 -28
5 -11 0 -9 -14 -31 -32 -28
6 -11 1 -9 -14 -32 -33 -28
6 -12 1 -9 -14 -32 -33 -29
6 -12 1 -9 -14 -32 -33 -29
6 -13 1 -9 -14 -32 -33 -30
6 -13 1 -9 -14 -32 -33 -30
5 -14 1 -9 -13 -33 -34 -31
5 -14 1 -9 -13 -34 -35 -31
5 -13 1 -9 -14 -34 -35 -32
5 -13 1 -9 -14 -35 -36 -32
5 -13 1 -9 -14 -35 -36 -32
4 -12 2 -10 -15 -36 -37 -33
4 -12 2 -10 -15 -36 -37 -33
3 -13 2 -10 -15 -36 -38 -34
3 -13 2 -10 -15 -36 -38 -34
3 -13 2 -10 -15 -36 -38 -34
2 -14 3 -10 -16 -37 -39 -35
3 -14 3 -10 -16 -37 -39 -35
3 -14 3 -10 -16 -37 -39 -35
4 -14 3 -10 -16 -37 -39 -35
4 -14 3 -10 -16 -37 -39 -35
5 -13 3 -9 -15 -38 -40 -35
5 -13 3 -9 -15 -38 -40 -35
6 -14 3 -9 -15 -37 -40 -35
6 -14 3 -9 -15 -37 -40 -35
6 -14 3 -9 -15 -37 -40 -35
7 -15 4 -8 -15 -36 -39 -36
7 -15 4 -8 -15 -36 -40 -36
7 -15 4 -8 -15 -37 -40 -36
7 -15 4 -8 -15 -37 -41 -36
7 -15 4 -8 -15 -37 -41 -36
6 -14 5 -7 -14 -38 -43 -37
6 -15 5 -7 -14 -38 -43 -37
5 -16 5 -7 -14 -38 -44 -38
5 -17 5 -7 -14 -38 -44 -38
5 -17 5 -7 -14 -38 -44 -38
4 -18 5 -6 -15 -38 -45 -39
5 -17 5 -6 -14 -38 -44 -39
6 -16 5 -5 -14 -37 -44 -38
7 -15 5 -5 -13 -37 -43 -38
8 -15 5 -5 -13 -37 -43 -38
9 -14 5 -4 -12 -36 -41 -37
9 -14 5 -4 -12 -36 -41 -37
9 -15 6 -4 -12 -36 -41 -37
9 -15 6 -4 -12 -36 -41 -37
9 -15 6 -4 -12 -36 -41 -37
9 -16 7 -3 -11 -36 -40 -38
9 -16 7 -2 -10 -36 -40 -38
9 -16 7 -2 -10 -35 -39 -38
9 -16 7 0 -9 -35 -39 -38
9 -16 7 0 -9 -35 -39 -38
8 -17 6 1 -8 -34 -38 -38
9 -16 6 2 -7 -34 -38 -37
10 -15 6 2 -7 -33 -37 -36
10 -15 6 3 -6 -33 -37 -36
11 -14 6 3 -6 -33 -37 -35
12 -13 6 4 -5 -32 -36 -34
12 -13 6 5 -4 -31 -35 -34
12 -13 6 5 -4 -30 -35 -34
12 -13 6 6 -3 -30 -34 -34
12 -13 6 6 -3 -29 -34 -34
12 -13 5 7 -2 -28 -33 -33
13 -12 5 7 -2 -27 -33 -32
14 -12 5 8 -2 -27 -32 -30
14 -11 5 8 -2 -26 -32 -29
15 -11 5 8 -2 -26 -32 -27
16 -10 4 9 1 -24 -30 -26
17 -10 4 10 2 -23 -29 -26
17 -10 4 10 3 -21 -28 -26
18 -10 4 11 5 -20 -26 -26
18 -10 4 11 6 -18 -25 -26
19 -8 3 13 8 -16 -23 -24
20 -6 3 14 9 -14 -21 -22
21 -5 2 16 11 -11 -18 -19
22 -3 2 17 12 -9 -16 -17
23 0 2 19 14 -7 -14 -15
24 1 1 20 15 -6 -13 -14
24 1 1 20 16 -4 -12 -13
25 1 0 20 17 -3 -12 -12
25 1 0 20 17 -2 -11 -11
25 1 0 20 18 0 -11 -10
26 2 -2 21 19 2 -9 -8
26 2 -3 21 21 3 -7 -7
26 2 -4 22 22 5 -5 -6
26 2 -5 22 23 6 -3 -4
26 2 -6 22 24 8 0 -3
26 1 -7 23 25 9 1 -2
28 3 -8 24 26 10 2 0
29 4 -9 25 27 11 3 0
30 5 -9 25 27 11 4 1
31 6 -10 26 28 12 5 1
32 7 -11 27 30 14 7 3
33 8 -11 28 32 16 9 5
34 9 -12 28 33 17 11 6
35 9 -12 29 35 19 14 8
36 10 -12 29 37 21 16 10
37 11 -13 30 38 22 17 11
37 12 -14 30 38 23 17 12
38 12 -14 30 38 24 18 13
38 13 -15 30 38 24 18 13
38 13 -15 30 38 25 18 14
39 14 -16 29 39 26 19 15
39 15 -16 29 40 27 21 17
39 15 -16 29 42 28 22 18
39 16 -16 29 42 28 23 19
39 16 -16 29 43 29 24 20
40 17 -17 28 44 30 25 21
39 16 -17 26 43 29 24 20
39 15 -17 25 42 28 23 19
38 14 -17 23 40 28 23 19
38 13 -17 22 39 27 22 18
37 12 -18 21 38 26 21 17
37 12 -18 20 37 26 21 17
37 13 -18 19 37 25 21 17
37 13 -18 18 36 25 21 17
37 13 -18 17 36 25 21 17
36 14 -19 16 35 24 22 18
36 14 -19 14 33 23 21 18
36 14 -18 13 32 22 21 17
36 14 -18 11 30 22 20 17
36 14 -18 10 29 21 20 17
35 15 -17 9 28 20 19 16
34 14 -17 8 27 18 17 14
33 13 -17 7 26 17 16 13
32 13 -17 6 25 15 15 12
31 12 -17 5 24 14 14 11
29 11 -16 3 22 12 12 9
28 9 -16 2 20 10 10 7
26 8 -17 0 18 9 9 6
25 7 -17 -2 16 7 7 4
23 6 -17 -4 14 5 5 2
22 5 -18 -5 13 4 4 1
23 6 -17 -5 13 4 4 1
23 7 -17 -5 13 3 3 1
24 7 -16 -5 13 3 3 1
24 8 -16 -5 13 3 3 1
25 9 -15 -5 12 2 2 2
24 8 -15 -6 10 1 1 1
23 7 -15 -6 9 0 1 1
23 7 -15 -7 8 0 0 0
22 6 -15 -7 7 -2 0 0
21 5 -15 -8 6 -3 -2 -2
21 5 -15 -8 6 -3 -2 -2
21 5 -15 -8 6 -3 -2 -2
21 5 -15 -8 6 -3 -2 -2
21 5 -15 -8 6 -3 -2 -2
21 5 -15 -8 7 -3 -2 -2
21 5 -15 -8 6 -4 -2 -3
21 5 -14 -8 6 -4 -2 -3
21 5 -14 -8 5 -5 -2 -4
21 5 -14 -8 5 -5 -2 -4
20 5 -13 -8 4 -6 -3 -5
19 4 -13 -8 4 -6 -4 -5
18 4 -13 -8 4 -6 -4 -5
18 3 -13 -8 4 -6 -5 -5
17 3 -13 -8 4 -6 -5 -5
16 2 -14 -8 4 -7 -6 -6
16 2 -14 -8 4 -7 -6 -6
16 3 -14 -7 4 -7 -6 -6
16 3 -14 -7 4 -7 -6 -6
16 3 -14 -7 4 -7 -6 -6
16 4 -13 -6 4 -7 -6 -5
16 4 -13 -6 4 -7 -6 -5
16 3 -13 -6 4 -7 -6 -6
16 3 -13 -6 4 -7 -6 -6
16 3 -13 -6 4 -7 -6 -6
16 2 -13 -7 3 -7 -7 -7
15 2 -13 -7 3 -7 -7 -7
14 2 -13 -7 3 -8 -8 -7
13 2 -13 -7 3 -8 -9 -7
12 2 -13 -7 3 -8 -9 -7
11 1 -13 -8 3 -9 -10 -8
11 1 -12 -8 3 -9 -10 -8
12 2 -11 -7 4 -8 -9 -8
13 3 -11 -6 4 -7 -9 -8
13 3 -10 -6 4 -7 -9 -8
14 4 -9 -5 5 -6 -8 -7
14 4 -9 -5 5 -6 -8 -7
15 5 -9 -5 5 -6 -8 -7
16 6 -9 -5 5 -6 -8 -7
16 6 -9 -5 5 -6 -8 -7
17 7 -8 -4 5 -6 -8 -7
15 5 -8 -4 4 -6 -8 -7
14 4 -9 -4 3 -7 -9 -7
12 2 -9 -4 3 -7 -9 -7
11 1 -9 -4 2 -7 -9 -7
10 0 -10 -5 1 -8 -10 -8
10 0 -10 -5 1 -8 -10 -8
10 1 -10 -5 1 -8 -10 -8
10 2 -10 -5 1 -8 -10 -8
10 2 -10 -5 1 -8 -10 -8
9 3 -9 -4 2 -7 -10 -8
9 3 -9 -4 2 -7 -10 -8
10 3 -9 -4 2 -7 -10 -8
10 3 -9 -4 2 -7 -10 -8
10 3 -9 -4 2 -7 -10 -8
11 4 -8 -3 2 -7 -9 -7
10 4 -8 -3 2 -7 -9 -7
9 3 -8 -3 2 -7 -8 -7
9 2 -8 -3 2 -7 -8 -7
8 2 -8 -3 2 -7 -8 -7
7 1 -8 -3 3 -6 -7 -6
7 1 -8 -3 3 -6 -7 -6
8 2 -7 -3 4 -5 -6 -5
8 2 -7 -3 4 -5 -5 -4
8 2 -7 -3 4 -5 -5 -4
9 3 -6 -2 5 -4 -4 -3
9 3 -6 -2 5 -4 -4 -3
9 2 -6 -2 4 -4 -4 -3
9 2 -6 -2 3 -4 -4 -3
9 2 -6 -2 3 -4 -4 -3
8 1 -7 -3 2 -4 -4 -3
8 1 -7 -3 2 -4 -4 -3
9 2 -7 -3 3 -4 -3 -3
10 2 -7 -3 4 -4 -2 -3
10 2 -7 -3 4 -4 -2 -3
11 3 -8 -2 5 -3 0 -2
10 3 -8 -2 5 -3 0 -2
9 2 -8 -3 4 -3 -2 -3
8 2 -8 -3 3 -3 -3 -3
7 2 -8 -3 3 -3 -3 -3
6 1 -8 -4 2 -2 -4 -4
6 1 -8 -4 2 -2 -4 -4
7 2 -8 -4 2 -2 -3 -4
8 2 -8 -4 2 -2 -2 -4
8 2 -8 -4 2 -2 -2 -4
9 3 -7 -4 1 -3 0 -3
9 3 -7 -4 1 -3 0 -3
9 3 -7 -5 1 -3 -2 -3
9 3 -7 -5 1 -3 -2 -3
9 3 -7 -5 1 -3 -2 -3
10 4 -6 -6 1 -3 -3 -3
10 4 -6 -6 1 -3 -3 -3
9 3 -6 -6 0 -3 -3 -3
9 3 -6 -6 0 -3 -3 -3
9 3 -6 -6 0 -3 -3 -3
8 2 -7 -7 -2 -4 -3 -3
8 2 -7 -7 -2 -4 -3 -3
8 1 -7 -7 -3 -5 -4 -3
8 1 -7 -7 -3 -5 -4 -3
8 1 -7 -7 -3 -5 -4 -3
7 0 -7 -8 -4 -6 -5 -4
7 0 -7 -8 -4 -6 -5 -4
6 -2 -7 -9 -5 -6 -5 -4
5 -3 -7 -9 -5 -6 -5 -4
5 -3 -7 -9 -5 -6 -5 -4
4 -4 -6 -10 -6 -7 -5 -4
4 -4 -6 -10 -6 -7 -5 -4
3 -4 -6 -11 -6 -8 -5 -5
2 -4 -6 -11 -6 -8 -5 -5
2 -4 -6 -11 -6 -8 -5 -5
1 -5 -7 -12 -7 -9 -6 -6
1 -4 -7 -12 -7 -9 -6 -6
2 -3 -6 -12 -7 -9 -6 -6
3 -3 -6 -12 -7 -9 -6 -6
3 -2 -6 -12 -7 -9 -6 -6
4 0 -5 -11 -6 -9 -5 -6
4 0 -5 -11 -6 -9 -5 -6
4 0 -5 -11 -6 -9 -5 -6
4 0 -5 -11 -6 -9 -5 -6
4 0 -5 -11 -6 -9 -5 -6
5 -2 -5 -11 -7 -9 -5 -5
4 -3 -5 -11 -7 -9 -5 -5
3 -4 -5 -11 -7 -9 -5 -5
3 -4 -5 -11 -7 -9 -5 -5
2 -5 -5 -11 -7 -9 -5 -5
1 -6 -5 -12 -8 -10 -6 -6
1 -6 -5 -12 -8 -10 -6 -6
2 -6 -5 -12 -8 -10 -7 -6
2 -6 -5 -12 -8 -10 -7 -6
2 -6 -5 -12 -8 -10 -7 -6
3 -5 -5 -13 -8 -10 -8 -7
5 -4 -5 -13 -8 -10 -8 -7
6 -2 -5 -12 -8 -9 -7 -6
8 1 -5 -12 -8 -8 -7 -6
9 3 -5 -12 -8 -8 -7 -6
9 3 -4 -11 -7 -7 -6 -5
7 1 -4 -11 -8 -7 -6 -5
5 -2 -5 -12 -9 -8 -7 -6
3 -4 -5 -12 -9 -9 -7 -6
0 -6 -5 -12 -10 -9 -7 -6
-2 -7 -6 -13 -11 -10 -8 -7
-2 -7 -6 -13 -11 -10 -8 -7
-2 -8 -6 -13 -11 -10 -8 -7
-2 -9 -6 -13 -11 -10 -8 -7
-2 -9 -6 -13 -11 -10 -8 -7
-3 -10 -7 -14 -10 -11 -9 -6
-3 -10 -7 -14 -10 -11 -9 -6
-3 -10 -7 -14 -10 -11 -9 -7
-3 -10 -7 -14 -10 -11 -9 -8
-3 -10 -7 -14 -10 -11 -9 -8
-3 -9 -6 -14 -11 -12 -9 -9
-3 -9 -6 -14 -11 -12 -9 -9
-2 -8 -6 -14 -10 -11 -8 -8
0 -7 -6 -14 -9 -10 -8 -7
0 -7 -6 -14 -9 -10 -8 -7
1 -6 -5 -13 -8 -9 -7 -6
1 -6 -5 -13 -8 -9 -7 -6
1 -6 -5 -14 -9 -10 -7 -7
1 -6 -5 -15 -9 -10 -7 -7
1 -6 -5 -15 -9 -10 -7 -7
0 -7 -5 -16 -10 -11 -8 -8
0 -7 -5 -16 -10 -11 -8 -8
0 -7 -5 -15 -9 -10 -8 -7
0 -7 -5 -15 -9 -10 -8 -6
0 -7 -5 -15 -9 -10 -8 -6
-2 -7 -4 -14 -8 -9 -7 -5
0 -6 -4 -14 -8 -9 -7 -5
1 -5 -4 -14 -8 -9 -7 -5
2 -4 -4 -14 -8 -9 -7 -5
3 -3 -4 -14 -8 -9 -7 -5
4 -2 -3 -14 -9 -9 -7 -5
4 -3 -3 -14 -9 -9 -7 -5
3 -4 -3 -14 -10 -9 -7 -6
2 -5 -3 -14 -10 -9 -7 -6
2 -6 -3 -14 -10 -9 -7 -6
1 -7 -3 -14 -11 -10 -8 -7
1 -8 -3 -14 -11 -10 -8 -7
0 -9 -3 -14 -11 -10 -8 -7
0 -9 -3 -14 -11 -10 -8 -7
0 -10 -3 -14 -11 -10 -8 -7
-2 -11 -4 -15 -10 -10 -7 -6
-2 -11 -4 -15 -10 -10 -7 -6
-2 -10 -4 -15 -10 -10 -7 -6
-2 -9 -4 -15 -10 -10 -7 -6
-2 -9 -4 -15 -10 -10 -7 -6
0 -8 -4 -15 -11 -11 -8 -7
0 -8 -4 -15 -11 -11 -8 -7
1 -8 -4 -15 -11 -11 -8 -7
1 -8 -4 -15 -11 -11 -8 -7
1 -8 -4 -15 -11 -11 -8 -7
2 -7 -5 -14 -11 -10 -9 -8
2 -7 -5 -14 -11 -10 -9 -8
2 -7 -5 -14 -11 -10 -9 -8
2 -7 -5 -14 -11 -10 -9 -8
2 -7 -5 -14 -11 -10 -9 -8
2 -8 -4 -14 -11 -10 -9 -8
2 -7 -4 -13 -11 -10 -9 -8
3 -5 -4 -12 -10 -9 -9 -7
4 -4 -4 -12 -10 -9 -9 -7
4 -3 -4 -11 -10 -9 -9 -7
5 -2 -4 -10 -9 -8 -8 -6
4 -3 -4 -10 -9 -8 -8 -6
2 -4 -4 -11 -9 -8 -8 -6
1 -5 -4 -11 -9 -8 -8 -6
0 -6 -4 -11 -9 -8 -8 -6
-2 -7 -4 -12 -9 -8 -8 -6
-2 -5 -3 -12 -8 -7 -7 -5
0 -4 -2 -11 -6 -5 -6 -3
1 -3 0 -10 -5 -4 -6 -2
1 0 1 -10 -4 -3 -5 0
2 1 2 -9 -3 -2 -4 1
3 2 2 -9 -3 -2 -3 1
4 3 2 -8 -2 0 -2 1
4 4 2 -8 0 1 -2 1
5 5 2 -8 0 1 0 1
7 6 1 -7 1 2 1 2
9 6 0 -5 2 3 2 3
11 7 -2 -4 3 5 3 5
13 7 -3 -3 4 6 4 6
15 7 -4 0 5 7 5 7
16 8 -5 1 6 8 6 8
16 8 -6 0 6 8 6 8
15 8 -7 -3 5 7 6 7
14 8 -8 -4 4 7 6 7
14 8 -9 -5 4 7 6 7
13 8 -10 -6 3 6 5 6
13 7 -10 -6 2 5 4 6
13 7 -10 -6 2 5 4 5
13 6 -9 -7 1 4 3 4
13 5 -9 -7 0 3 2 4
12 3 -8 -8 -2 2 1 3
10 1 -8 -9 -3 1 0 2
9 -3 -7 -10 -4 0 -2 1
7 -6 -6 -12 -6 -2 -3 -2
5 -8 -6 -13 -7 -3 -4 -3
4 -10 -5 -14 -8 -4 -5 -4
4 -9 -4 -14 -8 -5 -5 -4
4 -9 -3 -14 -8 -5 -6 -4
4 -8 0 -14 -8 -6 -7 -4
4 -7 1 -14 -8 -7 -7 -4
4 -6 2 -14 -9 -8 -8 -5
4 -7 2 -14 -10 -8 -9 -5
4 -7 2 -14 -11 -9 -9 -6
4 -8 2 -14 -12 -10 -10 -7
4 -9 2 -14 -13 -10 -11 -7
3 -10 3 -15 -14 -11 -12 -8
1 -12 2 -16 -15 -12 -12 -9
-2 -14 1 -17 -15 -13 -13 -9
-4 -16 0 -18 -16 -15 -14 -10
-6 -18 -2 -19 -17 -16 -14 -11
-7 -19 -3 -20 -18 -17 -15 -12
-7 -19 -3 -20 -18 -17 -15 -12
-7 -18 -3 -20 -18 -17 -15 -12
-6 -17 -2 -20 -19 -17 -15 -12
-6 -17 -2 -20 -19 -17 -15 -12
-5 -16 0 -19 -20 -16 -16 -12
-5 -16 0 -19 -20 -16 -16 -12
-5 -16 0 -19 -20 -16 -16 -12
-5 -16 0 -19 -20 -16 -16 -12
-5 -16 0 -19 -20 -16 -16 -12
-6 -16 0 -20 -20 -17 -16 -13
-6 -16 0 -20 -20 -17 -16 -13
-5 -16 0 -20 -20 -17 -16 -13
-4 -15 0 -19 -20 -17 -16 -13
-4 -15 0 -19 -20 -17 -16 -13
-3 -14 -2 -18 -20 -16 -16 -12
-3 -15 -2 -18 -20 -16 -16 -12
-3 -16 -2 -18 -20 -16 -17 -12
-4 -17 0 -19 -20 -17 -18 -13
-4 -18 0 -19 -20 -17 -18 -13
-5 -19 1 -20 -21 -18 -19 -14
-5 -19 1 -20 -21 -18 -19 -14
-5 -19 1 -20 -21 -18 -19 -14
-5 -19 1 -20 -21 -18 -18 -13
-5 -19 1 -20 -21 -18 -18 -13
-5 -18 1 -19 -20 -17 -17 -12
-5 -18 1 -19 -20 -17 -17 -12
-6 -18 1 -19 -20 -17 -17 -13
-7 -18 1 -19 -20 -17 -17 -14
-7 -18 1 -19 -20 -17 -17 -14
-8 -18 0 -20 -21 -18 -18 -15
-7 -17 0 -20 -21 -18 -18 -15
-6 -16 1 -19 -21 -18 -18 -15
-4 -15 2 -18 -21 -17 -18 -15
-3 -14 2 -18 -21 -17 -18 -15
-2 -13 3 -17 -20 -16 -17 -14
-2 -13 3 -17 -20 -16 -17 -14
-2 -14 3 -17 -20 -16 -17 -13
-3 -15 3 -17 -20 -16 -17 -12
-3 -15 3 -17 -20 -16 -17 -12
-4 -16 3 -18 -19 -16 -16 -11
-4 -16 3 -18 -19 -16 -16 -11
-5 -16 3 -18 -19 -16 -16 -11
-6 -16 3 -19 -19 -16 -16 -11
-6 -16 3 -19 -19 -16 -16 -11
-7 -16 2 -20 -20 -17 -17 -12
-7 -16 2 -19 -20 -16 -17 -12
-7 -16 2 -19 -19 -16 -17 -12
-7 -16 2 -18 -18 -15 -17 -12
-7 -16 2 -17 -18 -14 -17 -12
-6 -15 2 -16 -17 -13 -16 -12
-6 -15 2 -16 -17 -13 -16 -12
-6 -14 2 -16 -17 -13 -16 -12
-6 -13 2 -16 -17 -13 -16 -12
-6 -13 2 -16 -17 -13 -16 -12
-6 -12 5 -15 -18 -15 -17 -13
-9 -13 11 -9 -17 -20 -22 -19
-13 -13 17 -3 -16 -25 -26 -25
-16 -14 23 3 -15 -30 -30 -31
-20 -15 29 9 -14 -35 -34 -37
-20 -15 35 20 -8 -34 -36 -40
-16 -13 40 38 5 -25 -33 -36
-11 -11 46 57 17 -16 -29 -32
-6 -8 51 75 29 -6 -26 -28
0 -6 56 94 42 4 -22 -24
13 3 51 104 57 28 2 -5
36 18 29 101 76 74 52 36
61 33 8 98 96 119 102 76
86 49 -14 95 115 165 152 116
110 64 -35 92 135 211 202 157
130 84 -56 85 157 261 256 199
142 109 -77 70 183 316 311 244
154 135 -99 56 210 372 366 290
167 160 -120 42 236 429 423 336
179 186 -141 27 263 485 478 381
179 194 -152 16 271 496 488 393
161 178 -147 9 250 442 434 356
144 160 -142 2 228 389 379 319
127 143 -137 -6 206 336 324 283
109 126 -132 -13 185 282 270 246
92 110 -120 -17 162 235 222 211
75 95 -102 -17 138 195 183 175
60 80 -85 -17 113 156 144 140
44 65 -66 -17 89 117 105 104
28 51 -48 -17 64 78 66 68
17 39 -34 -17 47 52 40 45
12 31 -28 -16 38 44 33 37
7 24 -22 -15 31 35 27 30
3 17 -15 -13 23 27 21 23
-3 10 -9 -12 15 19 14 16
-6 5 -5 -11 10 13 9 10
-6 4 -2 -9 8 10 6 7
-6 3 1 -7 6 6 2 4
-7 1 3 -5 4 3 -2 1
-7 0 5 -4 3 0 -5 -3
-8 -2 7 -2 0 -5 -8 -5
-9 -5 7 -2 -3 -7 -11 -7
-10 -7 7 -3 -6 -10 -13 -9
-11 -9 8 -4 -8 -12 -15 -11
-12 -11 8 -4 -11 -15 -17 -13
-13 -13 9 -5 -13 -17 -19 -15
-14 -13 10 -5 -14 -18 -20 -15
-14 -13 11 -5 -14 -18 -20 -16
-15 -13 13 -5 -15 -19 -21 -17
-16 -13 14 -5 -16 -20 -22 -17
-17 -12 15 -4 -17 -21 -23 -18
-17 -12 15 -4 -17 -21 -24 -18
-17 -13 15 -4 -17 -21 -24 -19
-17 -14 15 -5 -17 -22 -25 -20
-17 -14 15 -5 -17 -22 -26 -20
-18 -15 14 -6 -18 -23 -27 -21
-19 -16 14 -6 -19 -23 -27 -21
-19 -17 14 -6 -20 -23 -27 -21
-20 -18 14 -6 -21 -24 -28 -21
-21 -19 14 -6 -22 -24 -28 -21
-22 -20 15 -6 -23 -25 -29 -22
-22 -20 15 -6 -23 -25 -29 -23
-23 -20 15 -6 -23 -26 -29 -23
-24 -21 15 -6 -23 -27 -30 -24
-24 -21 15 -6 -23 -27 -30 -25
-25 -22 15 -5 -24 -28 -31 -26
-24 -21 15 -5 -24 -28 -31 -26
-24 -21 16 -5 -24 -28 -31 -26
-23 -20 17 -5 -24 -28 -30 -25
-22 -19 17 -5 -24 -28 -30 -25
-21 -18 18 -5 -24 -28 -29 -24
-21 -18 18 -5 -24 -28 -29 -24
-21 -18 18 -5 -24 -28 -29 -24
-21 -18 18 -4 -24 -28 -29 -24
-21 -18 18 -4 -24 -28 -29 -24
-21 -19 18 -3 -24 -27 -30 -24
-22 -19 18 -3 -24 -27 -31 -24
-23 -20 18 -3 -24 -27 -31 -25
-25 -21 18 -3 -25 -27 -32 -26
-26 -21 18 -3 -25 -27 -33 -26
-27 -22 17 -2 -26 -28 -34 -27
-27 -22 17 -2 -26 -28 -34 -27
-27 -22 17 -2 -26 -28 -34 -27
-27 -22 17 -2 -26 -29 -34 -27
-27 -22 17 -2 -26 -29 -34 -27
-26 -21 18 -3 -25 -30 -34 -28
-27 -21 18 -3 -25 -30 -34 -28
-27 -21 18 -3 -25 -30 -34 -28
-28 -22 18 -3 -26 -30 -35 -28
-29 -22 18 -3 -26 -30 -35 -28
-30 -23 17 -4 -27 -31 -36 -29
-30 -23 17 -3 -27 -31 -36 -29
-30 -23 18 -3 -27 -31 -36 -29
-30 -23 19 -2 -27 -30 -35 -28
-30 -23 19 0 -27 -30 -35 -28
-29 -22 20 1 -26 -29 -34 -27
-29 -22 20 1 -26 -29 -34 -27
-29 -22 20 2 -26 -29 -34 -27
-28 -21 20 3 -26 -29 -34 -28
-28 -21 20 3 -26 -29 -34 -28
-27 -20 21 4 -27 -30 -35 -29
-28 -21 21 4 -27 -30 -35 -29
-29 -22 21 4 -27 -30 -36 -29
-31 -24 20 4 -27 -30 -37 -29
-32 -25 20 4 -27 -30 -37 -29
-33 -26 19 3 -27 -31 -38 -30
-34 -26 19 3 -27 -31 -38 -30
-34 -26 19 3 -27 -31 -38 -30
-35 -27 19 4 -27 -31 -38 -30
-36 -27 19 4 -27 -31 -38 -30
-37 -28 19 5 -28 -31 -38 -31
-37 -28 19 5 -27 -30 -37 -31
-37 -28 19 6 -27 -30 -37 -31
-36 -27 19 7 -26 -29 -36 -30
-36 -27 19 7 -25 -28 -35 -30
-35 -26 20 8 -24 -27 -34 -29
-35 -26 20 8 -24 -27 -34 -29
-35 -26 20 9 -24 -27 -34 -29
-35 -25 20 10 -24 -27 -34 -28
-35 -25 20 10 -24 -27 -34 -28
-34 -24 20 11 -25 -26 -33 -27
-34 -24 20 11 -24 -25 -33 -27
-34 -24 20 11 -24 -24 -32 -27
-34 -24 20 11 -23 -23 -31 -27
-34 -24 20 11 -22 -22 -31 -27
-34 -23 19 11 -21 -21 -30 -26
-34 -23 19 12 -21 -21 -30 -26
-34 -23 19 14 -21 -21 -30 -26
-35 -22 20 15 -20 -21 -30 -25
-35 -22 20 17 -20 -21 -30 -25
-36 -21 21 18 -19 -20 -29 -24
-35 -21 20 18 -18 -19 -27 -23
-34 -20 20 19 -17 -17 -26 -21
-33 -20 19 19 -16 -16 -24 -20
-32 -19 18 20 -15 -14 -23 -18
-31 -18 17 21 -14 -13 -21 -17
-31 -18 17 22 -13 -12 -20 -16
-30 -17 17 23 -13 -11 -19 -16
-30 -17 16 24 -12 -10 -18 -15
-29 -16 16 26 -11 -9 -16 -14
-28 -15 15 27 -10 -8 -15 -13
-28 -15 15 27 -9 -6 -14 -12
-28 -14 15 27 -9 -4 -13 -10
-28 -14 15 28 -8 -3 -12 -9
-28 -13 15 28 -7 0 -11 -7
-27 -12 14 29 -6 2 -10 -6
-26 -12 14 30 -4 3 -7 -5
-26 -11 14 32 -2 5 -5 -3
-25 -11 14 33 0 6 -3 -2
-24 -10 14 35 2 8 1 1
-23 -9 15 36 4 9 3 2
-22 -9 15 36 5 11 4 3
-22 -8 14 36 7 13 6 4
-21 -8 14 37 8 14 7 5
-20 -7 13 37 10 16 9 7
-19 -6 12 38 11 18 10 8
-19 -6 12 39 12 19 11 9
-19 -6 11 40 13 21 12 11
-19 -6 11 42 14 22 13 12
-19 -6 10 43 16 24 15 14
-18 -5 9 44 17 25 16 15
-18 -5 8 44 18 26 18 16
-18 -4 8 44 19 27 19 17
-18 -4 7 44 20 28 21 18
-18 -3 6 44 21 30 22 20
-17 -2 5 45 22 31 24 21
-17 -2 5 45 23 32 26 23
-17 -2 5 46 25 34 27 24
-16 0 5 46 26 35 29 26
-16 0 5 47 28 37 30 27
-15 1 4 48 29 38 32 29
-14 3 4 48 29 38 32 29
-12 4 4 48 29 39 33 29
-11 6 4 48 30 39 33 30
-9 7 4 48 30 40 34 30
-8 9 3 47 31 42 35 31
-8 9 3 46 31 42 35 31
-9 9 3 44 30 42 35 31
-9 8 3 43 30 42 35 31
-10 8 3 40 29 42 35 31
-11 7 2 39 28 40 34 31
-11 7 2 38 27 40 34 31
-11 7 2 38 27 39 33 31
-11 7 2 37 26 39 33 30
-11 7 2 36 25 38 32 30
-12 6 1 35 24 37 31 29
-12 6 1 33 23 36 31 29
-12 6 1 32 22 35 30 29
-12 6 1 30 21 34 30 28
-12 6 1 29 19 33 29 28
-13 6 2 27 18 32 28 27
-13 6 2 26 17 31 27 26
-13 6 2 24 17 30 26 25
-13 6 3 23 16 29 25 24
-13 6 3 22 15 27 23 22
-13 6 4 20 14 26 22 21
-15 5 4 19 12 24 20 20
-17 3 4 18 10 22 19 18
-18 2 4 17 9 20 17 17
-20 1 4 16 7 18 16 16
-22 -2 5 15 5 16 14 14
-22 -2 5 14 4 15 13 14
-22 -2 5 13 3 14 12 13
-22 -3 5 12 2 13 11 13
-22 -3 5 10 0 11 10 12
-23 -4 4 9 -2 10 9 11
-23 -4 4 9 -2 10 8 10
-23 -4 4 9 -2 9 8 10
-24 -5 4 8 -3 9 7 9
-24 -5 4 8 -3 8 6 8
-25 -6 5 7 -4 7 5 7
-25 -6 5 7 -5 7 5 7
-25 -6 5 7 -5 6 5 7
-25 -6 5 6 -6 6 4 7
-25 -6 5 6 -7 5 4 7
-26 -7 5 5 -8 4 3 6
-26 -7 5 5 -8 4 3 6
-26 -7 5 5 -8 4 3 6
-26 -7 6 6 -7 4 3 6
-26 -7 6 6 -7 4 3 6
-26 -8 7 7 -6 3 3 6
-26 -8 7 7 -6 3 3 6
-26 -7 7 7 -6 3 3 6
-25 -7 7 7 -6 3 2 5
-25 -6 7 7 -6 3 2 5
-24 -5 7 6 -7 3 1 4
-24 -5 7 6 -7 3 1 4
-24 -6 7 6 -7 2 0 3
-24 -6 7 6 -7 2 0 3
-24 -7 7 6 -7 1 -2 2
-25 -8 6 5 -7 0 -3 1
-24 -7 6 5 -7 0 -3 1
-24 -7 6 5 -7 0 -3 1
-23 -6 7 5 -7 0 -3 2
-22 -5 7 5 -7 0 -3 2
-21 -4 8 6 -6 1 -2 3
-21 -5 8 6 -6 1 -2 3
-21 -6 8 6 -6 0 -3 2
-22 -7 8 6 -7 0 -3 1
-22 -8 8 6 -7 -2 -4 0
-23 -9 7 5 -8 -3 -5 -2
-23 -9 8 5 -8 -3 -5 -2
-22 -8 9 5 -7 -3 -4 0
-21 -8 10 6 -6 -2 -3 0
-20 -7 11 6 -5 -2 -2 1
-19 -6 12 7 -4 0 0 2
-19 -6 12 7 -4 0 0 2
-20 -7 11 7 -5 0 -2 1
-20 -7 10 7 -5 -2 -3 1
-21 -8 9 7 -6 -2 -4 0
-22 -9 8 8 -7 -3 -5 -2
-22 -9 8 8 -7 -3 -5 -2
-22 -9 8 8 -7 -3 -5 -2
-22 -9 8 8 -7 -3 -5 -3
-22 -9 8 8 -7 -3 -5 -3
-22 -8 9 7 -6 -3 -6 -4
-22 -8 9 7 -6 -3 -6 -4
-21 -8 9 7 -6 -3 -6 -3
-20 -7 10 7 -6 -3 -6 -3
-19 -7 10 7 -6 -3 -6 -2
-18 -6 11 7 -6 -3 -5 0
-18 -6 11 7 -6 -3 -5 0
-17 -6 11 7 -6 -3 -5 0
-17 -6 11 6 -6 -3 -5 0
-16 -6 11 6 -6 -3 -5 0
-15 -5 11 5 -6 -3 -5 -2
-15 -5 11 5 -6 -3 -5 -2
-15 -5 11 5 -6 -3 -5 -3
-15 -6 10 5 -6 -4 -5 -4
-15 -6 10 5 -6 -4 -5 -5
-16 -7 9 4 -7 -5 -6 -6
-16 -7 9 4 -7 -5 -6 -6
-16 -7 9 4 -7 -5 -6 -6
-16 -7 9 4 -7 -5 -6 -6
-16 -7 9 4 -7 -5 -6 -6
-17 -8 8 3 -6 -4 -6 -5
-16 -8 8 3 -6 -4 -6 -5
-15 -7 8 3 -6 -4 -6 -5
-14 -6 8 3 -6 -3 -5 -5
-13 -5 8 3 -6 -3 -5 -5
-12 -4 9 4 -5 -2 -4 -4
-12 -4 9 4 -5 -2 -4 -4
-12 -4 9 4 -5 -2 -4 -4
-12 -4 9 4 -5 -2 -4 -4
-12 -4 9 4 -5 -2 -4 -4
-13 -5 9 3 -5 -2 -4 -4
-13 -5 9 3 -5 -2 -4 -4
-13 -5 8 2 -6 -3 -4 -4
-12 -5 7 1 -6 -3 -4 -4
-12 -5 6 0 -7 -4 -4 -4
-11 -6 5 -2 -8 -5 -5 -3
-10 -6 5 -2 -8 -5 -5 -3
-9 -6 6 -2 -8 -5 -5 -3
-8 -6 6 -2 -7 -4 -5 -3
-7 -6 7 -2 -7 -4 -5 -3
-6 -5 8 0 -6 -3 -4 -2
-6 -5 8 0 -6 -3 -4 -2
-7 -5 8 0 -7 -4 -4 -3
-7 -6 7 -2 -7 -5 -5 -3
-8 -6 7 -2 -8 -6 -5 -4
-9 -7 6 -3 -9 -7 -6 -5
-9 -7 6 -4 -9 -7 -6 -5
-9 -7 6 -5 -9 -7 -7 -5
-10 -8 6 -6 -10 -7 -7 -5
-10 -8 6 -7 -10 -7 -8 -5
-11 -9 5 -8 -11 -8 -9 -6
-11 -9 5 -8 -11 -8 -9 -6
-10 -8 5 -8 -11 -8 -9 -6
-9 -8 5 -8 -11 -8 -9 -6
-8 -7 5 -8 -11 -8 -9 -6
-7 -6 6 -8 -12 -9 -9 -5
-7 -6 6 -8 -12 -9 -9 -5
-7 -6 6 -8 -12 -9 -9 -5
-7 -6 6 -8 -12 -9 -9 -5
-7 -6 6 -8 -12 -9 -9 -5
-6 -6 6 -8 -12 -8 -8 -6
-6 -6 6 -8 -12 -9 -8 -6
-6 -7 6 -9 -12 -10 -9 -6
-7 -7 6 -9 -12 -11 -10 -7
-7 -8 6 -10 -12 -12 -11 -7
-8 -9 5 -11 -13 -13 -12 -8
-8 -9 5 -11 -13 -13 -12 -8
-8 -9 5 -11 -13 -13 -12 -8
-8 -9 5 -11 -13 -12 -12 -8
-8 -9 5 -11 -13 -12 -12 -8
-7 -8 4 -11 -14 -11 -11 -9
-7 -8 4 -11 -14 -11 -11 -9
-7 -8 4 -11 -14 -12 -11 -9
-7 -8 4 -11 -14 -12 -12 -9
-7 -8 4 -11 -14 -13 -12 -9
-7 -9 4 -12 -15 -14 -13 -8
-7 -9 4 -12 -15 -14 -13 -8
-7 -9 4 -13 -16 -14 -14 -9
-7 -10 3 -14 -17 -15 -14 -10
-7 -10 3 -15 -18 -15 -15 -11
-8 -11 2 -16 -19 -16 -16 -12
-8 -11 2 -16 -19 -16 -16 -12
-8 -10 2 -15 -19 -16 -16 -11
-7 -10 2 -14 -19 -15 -16 -11
-7 -9 2 -13 -19 -15 -16 -10
-6 -8 2 -12 -18 -14 -15 -9
-6 -8 2 -13 -18 -14 -15 -9
-6 -9 2 -14 -19 -15 -15 -9
-7 -10 2 -15 -19 -16 -15 -10
-7 -11 2 -16 -20 -17 -15 -10
-8 -12 1 -17 -21 -18 -15 -11
-8 -12 1 -17 -21 -18 -15 -11
-8 -12 1 -17 -21 -18 -15 -11
-8 -12 1 -17 -21 -18 -15 -11
-8 -12 1 -17 -21 -18 -15 -11
-8 -12 1 -17 -20 -18 -15 -10
-8 -11 1 -17 -20 -18 -15 -10
-7 -10 1 -17 -20 -17 -15 -10
-6 -9 1 -16 -20 -17 -15 -10
-5 -8 1 -16 -20 -16 -15 -10
-4 -6 2 -15 -20 -15 -15 -10
-5 -7 2 -15 -20 -15 -15 -10
-6 -8 2 -16 -20 -16 -16 -11
-7 -9 1 -16 -21 -17 -16 -11
-8 -10 1 -17 -21 -18 -17 -12
-9 -12 0 -18 -22 -19 -18 -13
-9 -12 0 -18 -22 -19 -18 -13
-9 -12 0 -18 -22 -19 -18 -12
-9 -12 1 -17 -22 -18 -17 -12
-9 -12 1 -17 -22 -18 -17 -11
-8 -11 2 -16 -21 -17 -16 -10
-8 -11 2 -16 -21 -17 -16 -10
-8 -10 2 -16 -21 -17 -16 -10
-8 -9 2 -16 -21 -17 -16 -10
-8 -8 2 -16 -21 -17 -16 -10
-7 -7 1 -16 -22 -18 -16 -11
-7 -7 1 -16 -22 -18 -16 -11
-7 -8 1 -16 -22 -18 -16 -11
-8 -9 1 -16 -22 -18 -16 -11
-8 -10 1 -16 -22 -18 -16 -11
-9 -11 1 -17 -22 -18 -16 -11
-9 -11 1 -17 -22 -18 -16 -11
-9 -10 1 -17 -22 -18 -16 -11
-9 -9 1 -17 -22 -18 -16 -11
-9 -8 1 -17 -22 -18 -16 -11
-8 -7 2 -17 -23 -18 -16 -12
-9 -9 2 -17 -23 -18 -16 -12
-10 -10 2 -17 -23 -18 -16 -12
-11 -12 1 -18 -24 -18 -17 -12
-12 -14 1 -18 -24 -18 -17 -12
-14 -16 0 -19 -25 -18 -18 -12
-14 -16 0 -19 -25 -18 -18 -12
-14 -15 0 -19 -25 -18 -17 -12
-13 -14 0 -19 -25 -18 -17 -12
-13 -13 0 -19 -25 -18 -16 -12
-12 -12 0 -19 -25 -18 -15 -11
-12 -12 0 -19 -25 -18 -15 -11
-11 -12 0 -19 -24 -18 -15 -11
-10 -11 0 -19 -24 -18 -15 -11
-9 -11 0 -19 -23 -18 -15 -11
-8 -10 0 -18 -22 -17 -15 -11
-8 -10 0 -18 -22 -17 -15 -11
-8 -10 0 -18 -22 -17 -15 -11
-8 -10 0 -18 -22 -17 -15 -11
-8 -10 0 -18 -22 -17 -15 -11
-9 -9 0 -18 -22 -18 -15 -11
-9 -9 0 -18 -22 -18 -15 -11
-10 -9 0 -18 -23 -18 -15 -11
-10 -10 -2 -18 -24 -19 -15 -11
-11 -10 -2 -18 -25 -19 -15 -11
-12 -11 -3 -18 -26 -20 -16 -12
-11 -10 -3 -18 -25 -19 -16 -12
-10 -9 -3 -17 -24 -18 -15 -11
-9 -7 -3 -17 -23 -17 -15 -11
-8 -6 -3 -16 -22 -16 -14 -10
-7 -4 -2 -15 -20 -15 -13 -9
-7 -3 -2 -15 -19 -14 -12 -8
-7 0 0 -15 -18 -13 -11 -7
-7 1 0 -14 -16 -12 -10 -6
-7 3 1 -14 -15 -11 -9 -5
-7 5 2 -13 -13 -9 -8 -4
-7 5 2 -13 -13 -9 -8 -4
-7 6 3 -12 -13 -9 -8 -4
-6 6 3 -12 -13 -9 -8 -4
-6 7 4 -11 -13 -9 -8 -4
-5 8 5 -10 -12 -8 -7 -4
-5 8 5 -10 -12 -8 -7 -3
-5 8 5 -10 -12 -8 -7 -2
-5 8 4 -10 -12 -8 -7 0
-5 8 4 -10 -12 -8 -7 1
-5 7 3 -11 -12 -7 -6 3
-4 7 2 -11 -11 -6 -5 3
-3 7 0 -10 -10 -5 -4 3
0 7 -3 -9 -9 -4 -2 4
1 7 -5 -8 -8 -3 0 4
3 8 -7 -7 -7 -2 2 5
3 8 -7 -7 -7 -2 2 5
3 8 -7 -7 -7 -2 2 5
4 8 -7 -8 -7 -2 2 5
4 8 -7 -8 -7 -2 2 5
5 9 -7 -9 -7 0 3 6
4 8 -7 -9 -8 -2 2 6
3 6 -7 -10 -9 -3 1 5
2 5 -6 -10 -11 -5 -2 5
1 3 -6 -11 -12 -6 -3 4
-2 1 -5 -12 -14 -8 -5 3
-2 0 -5 -12 -14 -8 -5 2
-2 -2 -4 -13 -14 -9 -5 1
-3 -3 -4 -13 -15 -9 -6 0
-3 -4 -3 -14 -15 -10 -6 -2
-4 -5 -2 -15 -16 -11 -7 -3
-5 -6 -2 -15 -16 -12 -7 -3
-6 -7 -2 -15 -17 -13 -8 -4
-7 -8 -2 -15 -18 -14 -8 -5
-8 -9 -2 -15 -19 -15 -9 -6
-10 -10 0 -16 -20 -16 -10 -7
-10 -10 0 -16 -20 -16 -10 -7
-9 -10 0 -16 -20 -16 -10 -8
-9 -10 0 -17 -20 -16 -11 -9
-8 -10 0 -17 -20 -16 -11 -10
-7 -9 1 -18 -21 -17 -12 -11
-7 -9 1 -18 -21 -17 -12 -11
-7 -9 1 -18 -22 -18 -13 -11
-8 -9 1 -18 -22 -18 -14 -11
-8 -9 1 -18 -23 -19 -15 -11
-9 -10 0 -19 -24 -20 -16 -10
-9 -10 0 -19 -24 -20 -16 -10
-9 -10 0 -19 -24 -20 -16 -10
-9 -10 0 -19 -24 -20 -16 -11
-9 -10 0 -19 -24 -20 -16 -11
-9 -10 0 -20 -24 -20 -17 -12
-9 -10 0 -20 -24 -20 -17 -12
-9 -10 0 -20 -24 -20 -17 -12
-8 -10 0 -20 -24 -20 -17 -12
-8 -10 0 -20 -24 -20 -17 -12
-7 -10 0 -20 -24 -20 -17 -12
-8 -10 0 -20 -24 -20 -17 -12
-9 -11 0 -20 -24 -20 -17 -12
-10 -12 0 -20 -24 -20 -17 -12
-11 -13 0 -20 -24 -20 -17 -12
-12 -14 -2 -21 -24 -21 -18 -12
-11 -13 -2 -21 -24 -21 -18 -12
-10 -12 -2 -20 -24 -21 -18 -12
-8 -10 0 -20 -23 -20 -17 -11
-7 -9 0 -19 -23 -20 -17 -11
-5 -7 1 -18 -22 -19 -16 -10
-5 -7 1 -18 -22 -19 -16 -10
-6 -7 1 -18 -22 -19 -16 -10
-6 -7 0 -19 -22 -20 -16 -11
-7 -7 0 -19 -22 -20 -16 -11
-8 -8 -2 -20 -23 -21 -17 -12
-8 -8 -2 -20 -23 -21 -17 -12
-8 -8 -2 -20 -23 -21 -17 -12
-8 -9 -2 -20 -23 -20 -17 -12
-8 -9 -2 -20 -23 -20 -17 -12
-7 -10 0 -20 -22 -19 -17 -13
-7 -10 0 -20 -22 -19 -17 -13
-7 -10 0 -20 -22 -19 -17 -13
-7 -10 0 -20 -22 -19 -16 -13
-7 -10 0 -20 -22 -19 -16 -13
-8 -10 0 -20 -22 -19 -15 -12
-8 -10 0 -20 -22 -19 -15 -12
-8 -10 0 -19 -22 -19 -15 -12
-7 -10 0 -19 -21 -18 -15 -11
-7 -10 0 -18 -21 -18 -15 -11
-6 -9 1 -17 -20 -17 -14 -10
-6 -9 1 -17 -20 -17 -14 -10
-6 -9 1 -17 -20 -17 -14 -10
-6 -8 1 -17 -19 -17 -14 -10
-6 -8 1 -17 -19 -17 -14 -10
-6 -7 2 -17 -18 -16 -13 -9
-6 -7 2 -17 -18 -16 -13 -9
-6 -7 2 -17 -18 -16 -13 -9
-6 -7 2 -17 -18 -16 -13 -9
-6 -7 2 -17 -18 -16 -13 -9
-7 -8 1 -17 -18 -17 -12 -10
-7 -8 2 -16 -18 -18 -13 -11
-8 -8 3 -15 -18 -19 -15 -12
-8 -8 5 -14 -17 -20 -17 -14
-9 -8 6 -13 -17 -21 -19 -15
-10 -7 8 -11 -16 -23 -21 -17
-12 -7 16 2 -13 -27 -27 -23
-15 -8 24 14 -9 -31 -34 -29
-18 -8 33 26 -6 -36 -40 -35
-21 -9 42 39 -2 -40 -48 -41
-24 -10 51 52 3 -46 -55 -48
-11 -2 48 64 21 -18 -27 -26
4 7 45 75 39 10 1 -4
18 15 40 88 58 36 29 18
31 23 37 100 76 64 57 39
46 32 33 112 95 92 85 62
71 56 4 105 123 157 150 113
98 80 -26 98 153 223 215 163
125 104 -56 91 182 288 279 215
150 128 -86 84 211 354 344 265
177 152 -115 75 240 420 408 316
170 160 -122 58 246 429 417 326
162 170 -131 39 254 439 425 338
155 178 -139 22 261 449 434 348
148 187 -147 4 268 460 442 359
141 196 -155 -15 275 470 451 370
122 175 -141 -15 247 404 384 319
104 152 -127 -15 220 339 315 268
86 131 -111 -15 191 273 247 217
67 108 -97 -15 163 206 180 165
49 86 -81 -14 135 141 111 114
40 74 -68 -14 111 116 94 97
32 62 -55 -14 88 92 76 79
24 50 -41 -14 64 67 59 62
17 37 -28 -14 40 43 42 45
9 26 -15 -14 17 18 24 27
6 22 -12 -12 16 17 20 22
3 18 -9 -9 17 16 17 18
1 14 -6 -7 17 15 13 14
-3 10 -3 -4 18 14 10 10
-5 7 1 -2 18 13 7 6
-6 6 3 0 16 8 3 3
-6 5 4 0 12 3 0 0
-6 4 5 0 8 -2 -5 -4
-6 3 6 0 4 -7 -8 -7
-6 2 7 0 0 -11 -11 -9
-6 0 9 -2 -2 -13 -12 -10
-7 -2 10 -3 -3 -14 -13 -11
-8 -4 11 -3 -4 -15 -14 -12
-9 -5 12 -4 -5 -16 -15 -13
-9 -6 13 -4 -6 -17 -16 -13
-11 -9 14 -5 -8 -19 -18 -15
-13 -11 14 -5 -10 -21 -20 -17
-14 -13 14 -5 -12 -23 -22 -18
-16 -15 14 -5 -14 -25 -24 -20
-17 -17 14 -5 -15 -26 -25 -21
-18 -18 14 -4 -16 -27 -26 -22
-17 -17 14 -4 -16 -27 -26 -22
-17 -16 15 -4 -16 -27 -26 -21
-16 -15 15 -4 -16 -27 -26 -21
-16 -15 15 -4 -16 -27 -26 -21
-15 -14 16 -5 -15 -26 -26 -20
-15 -14 16 -4 -16 -27 -27 -21
-15 -15 16 -4 -16 -28 -28 -22
-15 -15 16 -3 -17 -29 -29 -23
-15 -15 16 -3 -17 -29 -30 -23
-14 -16 15 -2 -18 -30 -31 -24
-15 -16 15 -2 -18 -30 -31 -24
-15 -17 15 -3 -18 -30 -31 -24
-16 -17 15 -3 -18 -30 -31 -24
-16 -17 15 -3 -18 -30 -31 -24
-16 -18 15 -4 -19 -30 -30 -25
-15 -17 15 -3 -19 -30 -30 -25
-14 -16 16 -2 -19 -31 -31 -25
-13 -15 16 0 -19 -31 -31 -25
-12 -15 16 0 -19 -31 -31 -25
-11 -14 17 1 -20 -32 -32 -26
-11 -14 17 0 -20 -31 -32 -26
-12 -14 17 0 -20 -31 -32 -26
-12 -14 17 -2 -20 -30 -32 -26
-12 -14 17 -2 -20 -30 -32 -26
-13 -15 17 -3 -20 -29 -31 -25
-14 -16 17 -3 -20 -30 -32 -26
-14 -16 17 -2 -21 -30 -32 -26
-15 -17 17 -2 -21 -31 -33 -27
-15 -17 17 -2 -21 -31 -33 -27
-16 -18 16 0 -22 -32 -34 -28
-16 -19 16 0 -22 -32 -34 -28
-17 -19 16 -2 -22 -32 -34 -28
-17 -20 16 -2 -22 -32 -34 -28
-17 -20 16 -2 -22 -32 -34 -28
-18 -21 16 -3 -21 -31 -35 -28
-18 -21 16 -2 -21 -32 -35 -29
-18 -21 16 0 -21 -32 -35 -29
-18 -21 16 1 -21 -33 -35 -30
-18 -21 16 1 -21 -33 -35 -30
-18 -21 17 2 -22 -34 -35 -31
-18 -21 17 2 -22 -34 -35 -31
-17 -21 17 2 -21 -34 -35 -30
-17 -21 17 2 -21 -34 -35 -30
-17 -21 17 2 -21 -34 -35 -30
-16 -20 18 2 -20 -33 -36 -29
-16 -20 18 3 -20 -33 -36 -30
-17 -20 18 3 -21 -34 -37 -30
-17 -20 18 4 -21 -34 -37 -31
-17 -20 18 4 -21 -34 -37 -31
-18 -19 18 5 -22 -35 -38 -32
-18 -20 18 5 -22 -35 -38 -32
-18 -20 18 4 -22 -34 -38 -31
-18 -21 18 4 -22 -34 -38 -31
-18 -21 18 4 -22 -34 -38 -31
-19 -22 17 3 -21 -33 -38 -30
-19 -22 17 4 -21 -33 -38 -31
-19 -22 17 5 -21 -33 -38 -31
-19 -22 17 6 -21 -33 -38 -32
-19 -22 17 7 -21 -33 -38 -32
-20 -23 17 8 -21 -34 -37 -33
-20 -23 17 8 -20 -33 -37 -32
-19 -23 17 8 -20 -32 -37 -32
-19 -23 17 8 -19 -31 -37 -31
-19 -23 17 8 -19 -31 -37 -31
-18 -23 18 8 -18 -30 -36 -30
-17 -22 18 9 -17 -30 -36 -30
-16 -21 18 10 -17 -30 -35 -30
-15 -20 18 11 -16 -30 -35 -30
-15 -20 18 12 -16 -30 -35 -30
-14 -19 17 13 -15 -30 -33 -29
-14 -19 17 13 -14 -28 -32 -28
-14 -19 17 14 -14 -27 -31 -27
-14 -19 17 14 -13 -25 -30 -26
-14 -19 17 14 -13 -24 -29 -25
-15 -19 18 15 -12 -23 -28 -24
-15 -19 17 16 -12 -23 -28 -24
-15 -19 16 17 -12 -23 -28 -24
-15 -19 15 18 -12 -23 -28 -24
-15 -19 15 19 -12 -23 -28 -24
-13 -17 14 20 -12 -21 -27 -23
-12 -16 14 21 -10 -20 -25 -22
-10 -15 15 22 -8 -18 -24 -21
-9 -14 15 23 -6 -17 -22 -20
-8 -13 15 23 -5 -16 -21 -19
-7 -12 16 24 -4 -14 -20 -18
-7 -12 15 25 -4 -13 -19 -18
-8 -12 14 25 -4 -12 -18 -18
-8 -12 13 26 -4 -11 -17 -18
-8 -12 12 26 -4 -10 -17 -18
-9 -13 11 27 0 -7 -14 -15
-8 -12 11 28 2 -5 -12 -13
-8 -11 11 29 4 -3 -10 -11
-7 -10 11 30 7 0 -7 -8
-7 -10 11 30 9 2 -5 -6
-6 -9 10 31 11 4 -3 -5
-5 -8 9 32 12 5 -2 -4
-4 -7 9 33 13 7 1 -3
-3 -6 8 34 14 8 2 -2
-3 -6 8 34 15 9 3 0
0 -4 7 35 17 11 5 2
3 -2 7 36 19 14 8 4
5 0 7 37 20 16 10 6
7 2 7 38 22 18 12 8
9 3 7 39 23 20 14 10
10 4 6 40 24 21 15 11
10 4 5 42 25 21 15 11
9 4 4 42 25 22 15 11
9 4 3 43 26 22 15 11
9 4 3 43 26 22 15 11
8 3 2 44 27 24 17 13
8 3 1 44 28 26 18 15
8 4 1 43 29 28 20 17
8 4 0 43 30 30 21 19
8 4 0 43 31 31 22 20
10 6 -2 42 33 33 24 22
13 8 -2 43 34 34 26 23
15 10 -3 43 36 35 28 24
17 12 -3 44 37 36 29 25
19 14 -3 44 38 37 31 26
20 15 -4 45 39 38 32 27
20 15 -4 44 39 38 32 27
20 15 -5 43 40 38 32 28
20 15 -5 42 40 38 32 28
20 15 -5 40 40 38 32 28
18 15 -6 39 42 38 32 29
17 13 -6 38 40 37 32 29
16 12 -6 38 39 37 31 28
15 10 -6 37 38 36 31 28
14 9 -6 37 37 36 31 28
13 8 -7 35 36 35 30 27
14 9 -7 34 35 35 30 27
14 10 -6 32 35 34 30 27
15 11 -6 31 34 34 30 27
15 11 -6 30 34 34 30 27
15 11 -5 29 32 32 28 25
13 9 -5 28 30 31 27 24
11 7 -5 27 28 29 26 22
9 6 -5 26 27 28 25 20
7 4 -5 25 25 27 24 19
6 3 -5 23 23 25 22 18
6 3 -5 21 22 24 21 17
6 3 -5 19 20 22 20 16
6 3 -5 18 19 21 19 15
6 3 -5 16 18 20 18 15
7 3 -4 15 17 18 17 14
7 3 -3 15 16 17 16 13
7 3 -3 15 16 16 15 12
7 3 -2 15 15 15 14 11
7 3 -2 15 15 14 13 11
8 4 0 14 14 12 12 10
8 4 0 13 13 11 11 10
8 3 0 11 12 10 10 9
8 3 0 10 11 9 9 9
8 3 0 9 10 8 9 9
6 2 0 8 9 7 8 8
5 1 0 8 8 6 7 7
3 0 0 8 7 6 6 6
1 -2 0 8 6 5 5 5
0 -2 0 8 5 5 5 4
-2 -3 0 8 4 4 4 3
-2 -3 0 8 4 4 4 3
-2 -3 0 8 4 4 4 3
-2 -3 0 8 4 4 4 3
-2 -3 0 8 4 4 4 3
-2 -4 0 7 4 3 3 3
0 -4 0 7 4 3 3 3
0 -4 0 8 4 3 3 2
1 -4 0 8 4 3 3 2
1 -4 0 8 4 3 3 2
2 -4 1 9 3 2 2 1
2 -4 1 9 3 2 2 1
2 -4 2 9 4 2 2 1
2 -4 2 9 4 2 2 1
2 -4 2 9 4 2 2 1
2 -3 3 8 5 2 2 2
2 -3 3 9 5 2 2 2
2 -3 3 9 5 2 1 1
2 -3 3 10 5 2 1 1
2 -3 3 10 5 2 1 1
1 -2 4 11 5 2 0 0
1 -2 4 11 5 2 0 0
1 -3 4 11 5 2 1 1
1 -3 4 11 5 2 1 1
1 -3 4 11 5 2 1 1
1 -4 3 10 5 2 2 2
0 -5 3 10 5 1 1 1
-2 -6 3 10 5 0 0 0
-4 -7 3 10 5 -2 -2 -2
-5 -7 3 10 5 -3 -3 -3
-6 -8 2 11 4 -4 -4 -4
-5 -6 3 11 4 -3 -4 -4
-4 -5 3 11 4 -3 -4 -4
-3 -4 4 11 4 -2 -4 -4
-2 -3 4 11 4 -2 -4 -4
0 -2 5 12 4 0 -3 -3
0 -3 5 12 4 0 -3 -3
0 -3 5 13 4 0 -3 -3
0 -4 5 13 4 0 -3 -3
0 -4 5 13 4 0 -3 -3
-2 -5 6 14 4 -2 -2 -2
-2 -5 6 14 4 -2 -2 -2
-2 -5 6 14 4 -2 -2 -2
-2 -5 6 14 4 -2 -2 -2
-2 -5 6 14 4 -2 -2 -2
-3 -5 7 13 4 0 -2 -3
-3 -5 7 13 4 0 -2 -3
-3 -5 7 13 4 0 -2 -3
-3 -5 7 13 4 0 -2 -3
-3 -5 7 13 4 0 -2 -3
-4 -4 6 13 3 -2 -2 -4
-4 -4 6 13 3 0 -2 -4
-4 -3 6 13 3 0 0 -3
-4 -3 6 13 3 1 0 -3
-4 -3 6 13 3 1 0 -3
-3 -2 5 12 3 2 1 -2
-3 -2 5 12 3 1 1 -2
-3 -2 5 13 3 1 1 -2
-3 -2 5 13 3 0 1 -2
-3 -2 5 13 3 0 1 -2
-3 -3 5 14 4 -2 0 -3
-3 -2 5 14 4 0 1 -2
-2 0 5 14 4 0 1 0
-2 1 5 14 4 1 2 1
-2 1 5 14 4 1 2 1
0 2 4 13 4 2 3 2
0 2 4 13 4 2 3 2
0 1 4 13 4 2 3 2
0 1 4 13 4 2 3 2
0 1 4 13 4 2 3 2
0 0 5 13 5 2 2 1
0 0 5 13 5 2 2 1
0 0 5 13 5 2 2 1
0 0 5 13 5 2 2 1
0 0 5 13 5 2 2 1
1 0 5 12 4 3 3 1
0 -2 4 11 3 2 2 0
-2 -3 4 10 3 2 2 0
-3 -4 3 9 2 1 1 -2
-3 -5 3 9 2 1 1 -2
-4 -6 2 8 1 0 0 -3
-4 -5 2 8 1 0 1 -2
-3 -5 3 8 1 1 1 -2
-3 -4 3 8 1 1 2 0
-3 -4 3 8 1 1 2 0
-2 -3 4 7 2 2 3 1
0 -3 4 7 2 1 3 1
1 -2 4 7 1 1 2 1
2 -2 4 7 1 0 2 1
2 -2 4 7 1 0 2 1
3 0 4 6 0 -2 1 0
3 0 4 6 0 -2 1 -2
2 0 4 6 0 -2 1 -2
2 0 4 6 0 -2 1 -3
2 0 4 6 0 -2 1 -3
1 1 5 5 -2 -2 1 -4
0 0 5 5 -2 -3 1 -4
0 0 4 4 -3 -4 0 -4
-2 -2 4 4 -3 -5 0 -4
-2 -2 4 4 -3 -5 0 -4
-3 -3 3 3 -4 -6 -2 -5
-3 -3 3 3 -4 -6 -2 -5
-3 -3 3 2 -5 -6 -2 -5
-3 -3 3 2 -5 -6 -2 -5
-3 -3 3 2 -5 -6 -2 -5
-2 -4 2 1 -6 -5 -3 -4
-2 -4 2 1 -6 -6 -4 -5
-2 -4 2 0 -7 -6 -4 -5
-2 -4 2 0 -7 -7 -5 -6
-2 -4 2 0 -7 -7 -5 -6
0 -5 1 -2 -8 -8 -6 -7
0 -5 1 -2 -8 -8 -6 -7
0 -4 1 -2 -8 -7 -5 -6
0 -4 1 -2 -8 -7 -5 -6
0 -4 1 -2 -8 -7 -5 -6
1 -3 1 -3 -7 -6 -4 -5
0 -3 1 -3 -7 -7 -4 -5
0 -3 1 -3 -8 -8 -5 -6
-2 -3 1 -3 -8 -9 -5 -6
-2 -3 1 -3 -8 -9 -5 -6
-3 -4 0 -2 -9 -10 -6 -7
-3 -4 0 -2 -9 -10 -5 -7
-3 -4 0 -2 -8 -9 -5 -7
-3 -4 0 -2 -8 -9 -4 -7
-3 -4 0 -2 -8 -9 -4 -7
-2 -4 0 -3 -7 -8 -3 -8
0 -3 0 -3 -7 -9 -3 -8
1 -2 0 -3 -8 -9 -4 -8
2 0 0 -3 -8 -10 -4 -8
2 0 0 -3 -8 -10 -4 -8
3 1 0 -3 -9 -11 -5 -8
2 0 0 -4 -9 -11 -5 -8
1 -2 0 -5 -9 -11 -5 -9
1 -3 0 -5 -9 -11 -5 -9
0 -4 0 -6 -9 -11 -5 -9
-2 -5 0 -7 -10 -10 -6 -10
-2 -5 0 -7 -10 -10 -6 -10
-2 -5 0 -7 -10 -11 -6 -10
-2 -5 0 -7 -10 -11 -6 -10
-2 -5 0 -7 -10 -11 -6 -10
-3 -6 -2 -7 -11 -12 -6 -9
-3 -5 -2 -7 -11 -12 -6 -9
-3 -5 -2 -7 -11 -11 -6 -9
-3 -4 -2 -7 -11 -11 -6 -9
-3 -4 -2 -7 -11 -11 -6 -9
-2 -3 0 -6 -10 -10 -5 -8
-2 -3 0 -6 -10 -11 -5 -8
-2 -4 0 -6 -10 -11 -6 -9
-2 -4 0 -6 -10 -12 -6 -9
-2 -4 0 -6 -10 -12 -6 -9
-3 -5 -2 -7 -11 -13 -7 -10
-3 -6 -2 -7 -11 -13 -7 -10
-4 -6 -2 -8 -11 -12 -6 -10
-4 -7 -2 -8 -11 -12 -6 -10
-4 -7 -2 -8 -11 -12 -6 -10
-5 -7 -2 -9 -10 -11 -5 -9
-4 -6 -2 -8 -10 -11 -5 -9
-3 -5 0 -8 -10 -11 -5 -9
-2 -3 0 -7 -10 -11 -5 -9
0 -2 0 -7 -10 -11 -5 -9
1 0 1 -6 -9 -11 -6 -9
0 -3 0 -7 -10 -12 -6 -9
0 -4 0 -8 -10 -12 -6 -10
-2 -5 -2 -8 -11 -13 -6 -10
-2 -6 -2 -9 -11 -13 -6 -10
-3 -7 -3 -10 -12 -14 -7 -11
0 -5 -2 -9 -12 -14 -7 -11
1 -4 -2 -9 -12 -14 -7 -11
2 -3 0 -8 -12 -14 -7 -11
3 -2 0 -8 -12 -14 -7 -11
3 0 1 -7 -11 -13 -7 -11
2 0 1 -7 -11 -13 -7 -11
1 -2 0 -7 -11 -13 -7 -11
-2 -2 0 -7 -11 -13 -7 -11
-3 -2 0 -7 -11 -13 -7 -11
-4 -3 -2 -8 -11 -14 -7 -11
-4 -3 -2 -8 -11 -14 -7 -11
-4 -3 -2 -8 -11 -15 -7 -12
-4 -3 -2 -8 -11 -15 -7 -12
-4 -3 -2 -8 -11 -15 -7 -12
-3 -4 -2 -9 -11 -16 -7 -13
-3 -4 -2 -9 -11 -16 -7 -12
-2 -4 -2 -9 -11 -15 -7 -12
-2 -4 -2 -9 -11 -15 -7 -11
-2 -4 -2 -9 -11 -15 -7 -11
0 -5 -2 -9 -11 -14 -8 -10
-2 -5 -2 -9 -11 -14 -8 -10
-2 -6 -2 -9 -11 -14 -9 -11
-3 -6 -2 -9 -11 -14 -9 -11
-3 -6 -2 -9 -11 -14 -9 -11
-4 -7 -2 -9 -11 -15 -10 -12
-4 -7 -2 -9 -11 -15 -10 -12
-4 -7 -2 -9 -11 -15 -10 -12
-4 -7 -2 -9 -11 -15 -10 -12
-4 -7 -2 -9 -11 -15 -10 -12
-3 -6 -2 -9 -12 -15 -10 -13
0 -4 0 -8 -11 -15 -10 -12
2 -2 0 -8 -10 -15 -10 -12
4 2 1 -7 -10 -15 -10 -11
6 4 1 -7 -9 -15 -10 -11
7 5 2 -6 -8 -15 -9 -10
6 5 2 -6 -8 -15 -9 -10
5 4 2 -6 -8 -14 -8 -10
5 4 2 -6 -8 -14 -8 -10
4 4 2 -6 -8 -14 -8 -10
3 3 2 -7 -8 -13 -7 -10
3 4 2 -6 -7 -12 -7 -10
2 5 2 -6 -6 -11 -6 -9
2 5 2 -5 -5 -10 -6 -9
2 6 2 -5 -4 -9 -6 -9
2 7 2 -4 -3 -8 -5 -8
3 9 2 -4 -3 -8 -5 -7
5 10 2 -4 -3 -8 -4 -7
6 11 2 -4 -3 -8 -4 -6
8 12 2 -4 -3 -8 -4 -6
9 13 1 -5 -2 -8 -3 -5
9 13 0 -3 1 -6 0 -4
10 13 0 -2 2 -5 1 -4
10 13 -2 1 4 -3 2 -3
10 13 -2 2 5 -2 3 -3
11 14 -3 3 6 0 4 -2
12 14 -4 1 6 0 4 0
13 15 -5 0 6 0 5 0
14 15 -5 -2 6 0 5 1
15 15 -6 -3 6 0 5 1
15 15 -7 -4 5 0 6 2
14 13 -7 -4 4 -2 5 1
12 11 -8 -4 3 -3 4 0
11 9 -8 -4 2 -3 3 0
9 7 -8 -4 1 -4 2 -2
8 6 -9 -5 0 -5 1 -3
7 4 -8 -6 -2 -7 0 -5
7 3 -7 -7 -3 -8 -2 -6
6 1 -7 -8 -4 -9 -3 -7
6 0 -6 -9 -5 -10 -4 -8
5 -2 -5 -10 -6 -11 -5 -9
4 -2 -4 -10 -6 -11 -5 -10
3 -3 -3 -10 -7 -12 -6 -11
3 -4 -3 -10 -7 -13 -7 -12
2 -4 -2 -10 -7 -13 -7 -13
1 -5 0 -10 -8 -14 -8 -14
1 -5 0 -10 -8 -14 -8 -14
1 -6 0 -10 -9 -14 -8 -14
1 -6 0 -10 -9 -14 -8 -14
1 -6 0 -10 -9 -14 -8 -14
0 -7 0 -11 -10 -15 -9 -15
0 -7 0 -12 -11 -16 -9 -15
1 -7 0 -13 -12 -17 -10 -16
1 -7 0 -13 -12 -18 -11 -16
1 -7 0 -14 -13 -19 -11 -16
2 -7 -2 -15 -14 -20 -12 -17
2 -7 -2 -15 -14 -20 -12 -17
1 -8 -2 -15 -14 -20 -13 -17
1 -9 -2 -15 -14 -20 -13 -17
1 -9 -2 -15 -14 -20 -13 -17
0 -10 0 -16 -14 -21 -14 -18
0 -10 0 -16 -14 -21 -14 -18
0 -9 0 -16 -14 -21 -14 -18
0 -8 0 -16 -14 -21 -14 -18
0 -8 0 -16 -14 -21 -14 -18
1 -7 1 -15 -14 -21 -13 -18
1 -8 1 -16 -14 -21 -14 -18
0 -9 1 -17 -15 -21 -15 -19
-2 -9 1 -17 -16 -21 -15 -19
-2 -10 1 -18 -16 -21 -16 -19
-3 -11 1 -19 -17 -22 -17 -20
-3 -11 1 -19 -17 -22 -17 -20
-3 -11 1 -18 -17 -22 -17 -20
-3 -11 1 -18 -17 -22 -17 -20
-3 -11 1 -18 -17 -22 -17 -20
-4 -12 0 -17 -17 -22 -17 -20
-4 -12 0 -17 -17 -22 -17 -20
-4 -11 0 -17 -17 -22 -17 -20
-4 -11 0 -17 -17 -22 -17 -20
-4 -11 0 -17 -17 -22 -17 -20
-4 -10 1 -18 -16 -22 -17 -19
-4 -10 1 -18 -16 -22 -17 -19
-5 -10 1 -18 -16 -23 -17 -20
-5 -10 1 -18 -16 -23 -17 -20
-5 -10 1 -18 -16 -23 -17 -20
-6 -11 0 -19 -17 -24 -17 -21
-6 -11 0 -19 -17 -24 -17 -21
-5 -10 0 -18 -16 -24 -17 -21
-4 -9 0 -18 -16 -24 -17 -21
-4 -9 0 -18 -16 -24 -17 -21
-3 -8 1 -17 -15 -23 -16 -21
-3 -8 1 -17 -15 -23 -16 -21
-3 -8 1 -17 -15 -23 -16 -21
-3 -8 1 -17 -15 -23 -16 -21
-3 -8 1 -17 -15 -23 -16 -21
-2 -7 1 -17 -14 -23 -16 -21
-2 -7 1 -17 -14 -23 -16 -21
-3 -8 1 -17 -14 -23 -16 -21
-4 -8 1 -17 -14 -23 -16 -21
-4 -8 1 -17 -14 -23 -16 -21
-5 -9 0 -18 -15 -24 -17 -21
-4 -8 0 -18 -14 -24 -17 -21
-2 -6 0 -17 -13 -23 -16 -21
0 -5 0 -16 -13 -22 -15 -21
1 -4 0 -16 -12 -22 -15 -21
2 -3 1 -15 -11 -21 -14 -21
2 -3 1 -15 -11 -21 -14 -21
1 -4 1 -16 -12 -21 -14 -21
1 -4 1 -17 -12 -21 -14 -21
1 -4 1 -17 -12 -21 -14 -21
-3 -5 5 -15 -13 -24 -19 -23
-7 -6 11 -9 -12 -30 -26 -29
-10 -7 17 -3 -11 -36 -33 -36
-14 -7 23 4 -11 -41 -40 -43
-18 -8 29 10 -10 -48 -48 -49
-17 -7 35 23 -2 -45 -46 -49
-12 -4 42 42 12 -34 -36 -41
-6 0 48 60 25 -23 -28 -35
1 4 53 78 38 -13 -19 -28
6 7 59 96 51 -3 -10 -22
22 17 49 102 68 29 22 4
47 31 26 99 88 75 70 42
70 46 3 95 107 120 117 79
94 61 -20 92 128 167 165 117
117 75 -44 88 147 213 213 155
134 97 -64 77 171 264 265 197
146 122 -85 63 197 320 319 241
158 148 -105 49 225 376 375 286
170 175 -126 34 252 432 430 330
182 200 -146 20 278 487 485 376
178 201 -152 11 277 479 476 372
160 184 -147 5 256 426 421 336
143 165 -141 -3 234 371 366 299
127 148 -135 -9 212 318 311 262
109 131 -130 -15 190 264 256 225
93 113 -116 -18 167 219 211 189
75 97 -98 -18 142 179 173 154
59 81 -79 -18 117 140 134 119
43 65 -62 -18 93 101 96 85
25 49 -44 -18 68 61 57 50
17 39 -32 -19 54 40 37 31
15 34 -25 -17 46 32 31 25
13 30 -18 -16 37 25 26 20
11 25 -11 -14 30 17 20 14
8 20 -4 -13 22 10 14 8
6 17 1 -12 17 5 9 3
5 14 2 -10 15 1 5 0
3 11 4 -8 13 -3 2 -5
1 8 6 -7 11 -7 -3 -8
-2 6 8 -5 9 -10 -7 -12
-3 4 9 -4 7 -13 -10 -14
-4 2 9 -5 5 -15 -12 -16
-5 0 10 -6 3 -18 -14 -18
-5 -2 11 -7 1 -20 -16 -19
-6 -4 11 -8 -3 -22 -18 -21
-7 -5 12 -9 -5 -24 -19 -22
-8 -6 12 -9 -6 -25 -21 -24
-9 -7 13 -10 -8 -26 -22 -26
-10 -8 13 -10 -10 -26 -24 -27
-11 -9 13 -10 -12 -27 -25 -29
-12 -10 14 -11 -13 -28 -26 -30
-12 -10 15 -11 -13 -28 -26 -30
-12 -11 16 -10 -12 -29 -26 -30
-12 -12 17 -10 -12 -30 -26 -30
-12 -12 18 -10 -12 -30 -26 -30
-13 -13 19 -9 -11 -31 -25 -29
-13 -13 19 -9 -12 -32 -26 -30
-12 -12 19 -9 -13 -33 -27 -31
-12 -12 19 -9 -13 -33 -27 -31
-12 -12 19 -9 -14 -34 -28 -32
-11 -11 18 -9 -15 -35 -29 -33
-11 -12 18 -9 -15 -35 -29 -33
-12 -13 18 -9 -15 -35 -29 -33
-12 -14 18 -9 -15 -35 -29 -33
-12 -15 18 -9 -15 -35 -29 -33
-13 -16 17 -10 -16 -36 -30 -33
-13 -16 17 -10 -16 -36 -30 -33
-14 -16 17 -10 -16 -37 -30 -34
-15 -16 17 -10 -16 -37 -30 -34
-15 -16 17 -10 -16 -37 -30 -34
-16 -16 17 -9 -17 -38 -31 -35
-15 -15 17 -9 -17 -38 -31 -35
-14 -14 18 -9 -17 -37 -30 -35
-14 -13 19 -9 -17 -37 -30 -35
-13 -12 19 -9 -17 -37 -30 -35
-12 -11 20 -10 -16 -36 -29 -34
-12 -11 20 -10 -16 -36 -29 -34
-13 -12 20 -9 -16 -36 -30 -35
-13 -12 20 -9 -16 -36 -31 -36
-13 -12 20 -9 -16 -36 -31 -36
-14 -13 20 -8 -17 -37 -32 -37
-14 -13 20 -8 -17 -37 -32 -37
-13 -13 20 -8 -17 -38 -32 -37
-13 -13 20 -8 -17 -38 -32 -37
-13 -13 20 -8 -17 -38 -32 -37
-12 -13 20 -8 -18 -39 -33 -37
-13 -14 20 -8 -18 -39 -33 -37
-15 -16 19 -9 -19 -39 -34 -38
-16 -17 19 -10 -19 -39 -34 -39
-17 -18 19 -10 -19 -39 -34 -39
-18 -19 18 -11 -20 -40 -35 -40
-18 -19 18 -11 -20 -40 -35 -40
-18 -19 18 -10 -20 -40 -35 -39
-18 -19 18 -9 -20 -40 -35 -39
-18 -19 18 -9 -20 -40 -35 -39
-17 -18 19 -8 -19 -39 -35 -38
-17 -18 19 -8 -19 -39 -35 -38
-17 -18 19 -8 -19 -39 -35 -39
-17 -18 19 -8 -19 -39 -35 -39
-17 -18 19 -8 -19 -39 -35 -39
-17 -17 19 -9 -19 -39 -36 -40
-17 -17 19 -9 -19 -39 -36 -40
-17 -17 19 -8 -19 -40 -36 -40
-17 -17 19 -8 -19 -40 -36 -40
-17 -17 19 -8 -19 -40 -36 -40
-17 -18 19 -7 -20 -41 -37 -41
-17 -18 19 -7 -20 -41 -37 -41
-18 -18 19 -7 -20 -41 -36 -41
-18 -18 19 -7 -20 -41 -36 -41
-18 -18 19 -7 -20 -41 -36 -41
-19 -19 20 -8 -19 -40 -35 -40
-18 -19 20 -7 -19 -40 -35 -40
-17 -19 21 -6 -18 -39 -34 -39
-17 -19 21 -5 -18 -38 -34 -39
-16 -19 21 -4 -18 -38 -34 -39
-15 -18 22 -3 -17 -37 -33 -38
-15 -18 22 -3 -17 -37 -33 -38
-16 -18 21 -3 -17 -37 -34 -38
-16 -18 20 -3 -17 -37 -35 -38
-16 -18 20 -3 -17 -37 -35 -38
-17 -17 19 -4 -18 -38 -36 -39
-17 -17 19 -3 -17 -37 -35 -39
-17 -17 19 -2 -16 -36 -34 -39
-17 -17 19 0 -16 -36 -33 -39
-17 -17 19 1 -15 -35 -32 -39
-17 -16 18 2 -14 -34 -31 -38
-15 -16 18 3 -14 -33 -31 -38
-14 -15 18 4 -13 -32 -30 -37
-13 -14 18 5 -13 -32 -30 -36
-11 -14 18 6 -13 -31 -30 -36
-10 -13 18 7 -12 -30 -29 -35
-10 -13 18 7 -11 -29 -27 -34
-10 -12 18 8 -10 -27 -26 -32
-10 -12 18 9 -9 -26 -25 -31
-10 -12 18 9 -8 -25 -23 -30
-11 -11 19 10 -7 -24 -22 -29
-11 -11 19 10 -6 -23 -22 -29
-12 -11 18 11 -5 -22 -21 -28
-12 -11 17 12 -5 -21 -20 -27
-12 -11 17 12 -4 -20 -20 -27
-13 -10 16 13 -3 -19 -19 -26
-13 -10 16 13 -3 -17 -17 -24
-12 -10 16 14 -2 -16 -15 -22
-11 -10 15 15 0 -14 -13 -20
-11 -10 15 15 0 -12 -11 -18
-10 -10 14 16 1 -11 -10 -17
-9 -9 14 17 3 -10 -9 -16
-8 -8 14 17 5 -9 -8 -15
-7 -6 13 18 7 -7 -6 -14
-6 -5 13 19 9 -6 -5 -13
-4 -3 12 20 10 -4 -3 -11
-2 0 12 21 12 -2 0 -9
1 2 11 22 14 1 2 -7
4 4 10 23 16 3 5 -5
6 6 10 24 18 5 7 -3
8 8 9 25 19 7 9 0
8 7 8 25 19 8 9 2
7 6 7 25 19 8 9 4
6 4 6 26 19 9 9 6
6 3 5 26 19 10 9 8
5 2 4 27 20 11 11 11
5 3 3 27 22 13 13 14
6 3 3 27 24 15 15 17
7 4 2 28 26 17 17 21
7 5 1 28 28 19 19 24
8 6 0 29 29 20 21 26
8 6 0 29 30 21 22 28
9 7 0 29 30 21 23 30
10 8 -2 29 31 22 24 32
10 8 -2 29 32 23 25 34
11 9 -3 29 33 24 26 35
11 9 -3 29 33 25 27 36
11 9 -3 29 33 25 28 37
11 10 -3 29 34 26 29 38
11 10 -3 29 34 27 30 39
11 11 -3 29 35 28 31 39
12 12 -3 29 35 28 31 36
13 12 -3 29 35 28 31 33
14 13 -3 28 35 28 31 30
15 14 -3 28 35 28 31 27
16 15 -3 27 35 28 30 25
14 13 -3 25 34 27 29 24
13 12 -3 23 33 26 28 24
12 10 -3 21 31 24 27 23
10 8 -3 19 30 23 26 22
9 7 -3 17 29 22 25 21
10 9 -3 16 28 21 25 20
11 10 -3 15 27 21 24 20
12 11 -3 14 26 20 23 19
13 13 -3 13 25 19 23 18
14 14 -4 12 24 18 22 17
13 12 -4 10 23 17 21 16
12 11 -4 9 22 16 20 16
11 10 -4 7 20 14 19 15
10 8 -4 5 19 13 18 14
9 7 -3 4 18 12 17 13
7 5 -3 3 16 10 15 12
5 4 -3 2 14 8 14 11
3 3 -3 1 12 6 13 9
1 1 -3 0 10 4 11 8
0 0 -2 -2 8 3 10 7
0 0 -2 -2 8 3 10 6
0 1 -2 -3 7 2 9 6
0 2 -2 -4 6 1 8 5
0 2 -2 -4 6 1 8 4
0 3 0 -5 5 0 7 3
0 2 0 -5 5 0 6 3
0 1 0 -6 5 -2 5 2
-2 -2 0 -7 5 -3 3 1
-2 -3 0 -7 5 -3 2 1
-3 -4 0 -8 4 -4 1 0
-3 -3 1 -8 4 -4 1 0
-2 -2 1 -8 4 -4 1 0
0 1 2 -7 4 -4 2 0
0 2 3 -7 4 -4 2 0
1 3 4 -6 3 -4 3 1
0 1 4 -6 2 -5 2 0
-2 -2 4 -7 1 -6 1 -2
-4 -4 3 -8 0 -7 0 -4
-5 -5 3 -8 -2 -8 -2 -5
-6 -7 2 -9 -3 -9 -3 -6
-5 -6 2 -9 -3 -9 -3 -6
-5 -5 2 -8 -3 -9 -3 -6
-4 -4 2 -7 -3 -9 -3 -6
-3 -3 2 -7 -3 -9 -3 -6
-2 -2 3 -6 -2 -8 -2 -5
-3 -3 3 -6 -2 -8 -2 -5
-4 -4 3 -6 -2 -8 -2 -5
-5 -5 3 -7 -2 -8 -2 -5
-6 -6 3 -7 -2 -8 -2 -5
-7 -7 2 -8 -2 -9 -3 -5
-7 -7 2 -8 -2 -9 -3 -5
-7 -7 3 -8 -2 -9 -3 -5
-7 -7 4 -8 -2 -9 -4 -5
-7 -7 4 -8 -2 -9 -4 -5
-7 -7 5 -7 -2 -8 -5 -6
-6 -6 5 -7 -2 -8 -5 -6
-6 -6 5 -7 -2 -8 -5 -6
-5 -5 5 -6 -2 -8 -4 -6
-4 -4 5 -6 -2 -8 -4 -6
-3 -3 6 -5 0 -9 -3 -6
-3 -3 6 -5 0 -9 -4 -6
-3 -3 6 -5 0 -9 -4 -6
-3 -3 6 -5 0 -9 -5 -6
-3 -3 6 -5 0 -9 -6 -6
-4 -3 7 -4 0 -9 -7 -7
-5 -4 7 -4 0 -9 -8 -7
-5 -4 6 -5 -2 -9 -8 -8
-6 -5 5 -6 -3 -10 -9 -9
-7 -6 5 -6 -3 -10 -10 -9
-8 -7 4 -7 -4 -11 -11 -10
-8 -7 4 -7 -4 -11 -11 -10
-8 -7 4 -7 -4 -11 -11 -10
-8 -7 4 -6 -4 -11 -10 -10
-8 -7 4 -6 -4 -11 -10 -10
-9 -8 4 -5 -4 -12 -9 -10
-9 -8 4 -5 -4 -12 -9 -10
-9 -8 4 -5 -4 -12 -9 -10
-8 -7 5 -5 -4 -12 -9 -10
-8 -7 5 -5 -4 -12 -9 -10
-7 -6 6 -4 -3 -12 -8 -10
-7 -6 6 -4 -3 -12 -8 -10
-7 -6 6 -4 -3 -12 -8 -10
-7 -7 5 -4 -3 -12 -8 -10
-7 -7 5 -4 -3 -12 -8 -10
-8 -8 4 -4 -3 -11 -8 -10
-8 -8 4 -4 -3 -11 -8 -10
-8 -8 4 -4 -3 -11 -8 -10
-8 -8 4 -5 -3 -11 -8 -10
-8 -8 4 -5 -3 -11 -8 -10
-9 -9 3 -6 -4 -12 -9 -11
-9 -8 4 -6 -4 -12 -8 -11
-8 -8 4 -6 -4 -11 -8 -10
-7 -7 5 -5 -3 -10 -7 -9
-7 -6 6 -5 -3 -10 -6 -9
-6 -5 7 -4 -2 -9 -5 -8
-6 -5 7 -4 -2 -9 -5 -8
-6 -5 7 -4 -2 -9 -5 -8
-7 -6 6 -4 -2 -9 -5 -8
-7 -6 6 -4 -2 -9 -5 -8
-8 -7 5 -4 -2 -8 -4 -8
-8 -7 5 -4 -2 -8 -4 -8
-8 -7 5 -4 -2 -8 -4 -8
-8 -7 5 -4 -2 -8 -4 -8
-8 -7 5 -4 -2 -8 -4 -8
-7 -7 4 -4 -3 -9 -4 -8
-7 -7 4 -4 -3 -9 -4 -8
-7 -7 4 -4 -3 -9 -4 -8
-7 -7 4 -4 -3 -9 -4 -8
-7 -7 4 -4 -3 -9 -4 -8
-6 -6 5 -5 -3 -9 -5 -8
-6 -7 5 -5 -3 -9 -5 -8
-7 -8 5 -6 -4 -10 -6 -8
-8 -9 4 -7 -5 -11 -7 -8
-8 -10 4 -7 -5 -11 -7 -8
-9 -11 3 -8 -6 -12 -8 -9
-9 -10 3 -8 -6 -12 -8 -9
-8 -10 3 -8 -6 -11 -8 -9
-7 -9 4 -7 -6 -10 -7 -8
-7 -8 4 -7 -6 -10 -7 -8
-6 -7 5 -6 -6 -9 -6 -7
-6 -7 5 -7 -6 -9 -6 -8
-6 -7 5 -8 -7 -10 -6 -8
-6 -7 5 -9 -8 -11 -7 -9
-6 -7 5 -10 -8 -11 -7 -10
-6 -8 4 -11 -9 -12 -8 -11
-6 -8 4 -11 -10 -13 -9 -11
-7 -9 3 -11 -10 -13 -9 -11
-8 -10 2 -12 -11 -14 -10 -12
-8 -10 2 -12 -12 -15 -11 -12
-9 -11 1 -13 -13 -16 -12 -13
-9 -11 1 -13 -13 -16 -12 -13
-9 -11 1 -13 -13 -16 -11 -13
-9 -12 1 -13 -13 -15 -10 -12
-9 -12 1 -13 -13 -15 -10 -12
-8 -13 0 -14 -14 -14 -9 -11
-8 -13 0 -14 -14 -14 -9 -11
-8 -13 0 -14 -14 -14 -9 -11
-8 -13 1 -14 -14 -14 -9 -11
-8 -13 1 -14 -14 -14 -9 -11
-8 -13 2 -15 -15 -15 -10 -11
-8 -13 2 -15 -15 -15 -10 -11
-8 -13 2 -15 -15 -15 -10 -12
-8 -12 2 -15 -15 -16 -11 -13
-8 -12 2 -15 -15 -16 -11 -13
-8 -11 2 -16 -15 -17 -12 -14
-8 -11 2 -16 -15 -17 -12 -14
-8 -11 2 -16 -15 -17 -12 -14
-7 -11 2 -16 -15 -17 -12 -13
-7 -11 2 -16 -15 -17 -12 -13
-6 -10 2 -16 -16 -17 -12 -12
-6 -10 2 -16 -16 -17 -12 -12
-6 -10 2 -16 -16 -17 -12 -12
-6 -10 2 -16 -16 -17 -12 -12
-6 -10 2 -16 -16 -17 -12 -12
-7 -11 1 -17 -17 -18 -13 -13
-7 -11 1 -17 -17 -18 -13 -13
-7 -11 1 -17 -17 -18 -13 -13
-7 -11 1 -17 -17 -18 -13 -13
-7 -11 1 -17 -17 -18 -13 -13
-7 -12 2 -17 -17 -18 -12 -14
-7 -12 2 -17 -17 -18 -12 -14
-8 -12 2 -17 -17 -18 -12 -14
-9 -12 2 -17 -18 -19 -13 -14
-9 -12 2 -17 -18 -19 -13 -14
-10 -13 1 -18 -19 -20 -14 -15
-10 -13 1 -18 -19 -20 -14 -15
-10 -13 1 -18 -19 -20 -14 -15
-10 -14 1 -18 -19 -20 -14 -15
-10 -14 1 -18 -19 -20 -14 -15
-9 -15 0 -19 -19 -19 -14 -16
-9 -15 0 -19 -19 -19 -14 -16
-9 -15 0 -19 -19 -19 -14 -16
-9 -15 0 -19 -19 -19 -14 -16
-9 -15 0 -19 -19 -19 -14 -16
-9 -14 1 -18 -19 -19 -13 -15
-9 -14 1 -18 -19 -19 -13 -15
-9 -14 1 -18 -19 -19 -13 -15
-10 -15 0 -18 -20 -19 -13 -15
-10 -15 0 -18 -20 -19 -13 -15
-11 -16 -2 -19 -21 -20 -14 -16
-11 -16 -2 -19 -21 -20 -14 -16
-11 -16 -2 -19 -21 -20 -14 -16
-11 -17 -2 -20 -21 -20 -14 -17
-11 -17 -2 -20 -21 -20 -14 -17
-11 -18 -3 -21 -22 -21 -15 -18
-11 -17 -3 -21 -22 -21 -15 -18
-11 -16 -3 -20 -22 -21 -15 -17
-10 -15 -3 -20 -22 -20 -15 -17
-10 -14 -3 -19 -22 -20 -15 -16
-9 -13 -2 -18 -21 -19 -14 -15
-9 -13 -2 -18 -21 -19 -14 -15
-9 -13 -2 -18 -21 -19 -14 -15
-8 -13 -2 -18 -21 -19 -14 -15
-8 -13 -2 -18 -21 -19 -14 -15
-7 -14 -2 -18 -20 -19 -13 -14
-7 -14 -2 -18 -20 -19 -13 -14
-7 -14 -2 -18 -20 -19 -13 -14
-7 -14 -2 -19 -20 -19 -14 -14
-7 -14 -2 -19 -20 -19 -14 -14
-8 -15 0 -20 -20 -19 -15 -15
-8 -15 0 -20 -20 -19 -15 -15
-8 -15 0 -20 -20 -19 -15 -15
-8 -15 0 -20 -21 -19 -15 -15
-8 -15 0 -20 -21 -19 -15 -15
-7 -15 -2 -20 -22 -20 -14 -15
-7 -15 -2 -20 -22 -20 -14 -15
-7 -15 -2 -20 -22 -20 -14 -15
-8 -15 -2 -20 -22 -20 -14 -15
-8 -15 -2 -20 -22 -20 -14 -15
-9 -14 -2 -19 -21 -19 -13 -14
-9 -14 -2 -19 -21 -19 -13 -14
-9 -14 -2 -19 -21 -19 -13 -14
-9 -14 -2 -19 -21 -19 -14 -15
-9 -14 -2 -19 -21 -19 -14 -15
-9 -14 -3 -20 -21 -20 -15 -16
-9 -14 -3 -20 -21 -20 -15 -16
-9 -14 -3 -20 -21 -20 -15 -16
-9 -14 -3 -20 -21 -20 -15 -16
-9 -14 -3 -20 -21 -20 -15 -16
-9 -15 -3 -19 -22 -20 -15 -16
-8 -15 -3 -19 -22 -20 -15 -16
-7 -15 -3 -19 -21 -20 -14 -16
-6 -15 -3 -19 -21 -20 -14 -16
-5 -15 -3 -19 -20 -20 -13 -16
-4 -14 -2 -18 -19 -19 -12 -15
-4 -14 -2 -18 -19 -19 -12 -15
-5 -13 -2 -18 -19 -19 -12 -15
-5 -13 -3 -18 -20 -19 -13 -15
-6 -12 -3 -18 -20 -19 -13 -15
-7 -11 -4 -18 -21 -19 -14 -14
-7 -11 -4 -18 -21 -19 -14 -14
-7 -11 -4 -18 -21 -19 -14 -14
-7 -11 -4 -18 -20 -19 -14 -14
-7 -11 -4 -18 -20 -19 -14 -14
-8 -12 -5 -18 -19 -18 -14 -14
-7 -9 -4 -17 -17 -16 -12 -13
-5 -7 -3 -15 -16 -15 -11 -11
-4 -4 -2 -14 -14 -13 -9 -10
-3 0 0 -13 -13 -12 -8 -9
0 2 1 -11 -11 -10 -6 -7
0 2 1 -11 -11 -10 -6 -7
0 3 2 -11 -11 -10 -6 -7
-2 3 2 -11 -11 -10 -6 -7
-2 4 3 -11 -11 -10 -6 -7
-3 5 4 -12 -10 -9 -6 -6
-3 5 3 -11 -10 -9 -6 -5
-2 5 2 -11 -9 -8 -5 -5
-2 5 1 -10 -9 -8 -5 -4
0 5 -2 -9 -8 -7 -4 -3
1 5 -3 -8 -7 -6 -3 -2
3 6 -5 -8 -7 -6 -3 -2
4 6 -6 -8 -7 -5 -2 -2
6 7 -8 -8 -6 -5 -2 0
7 8 -9 -8 -6 -4 0 0
9 9 -11 -7 -5 -3 1 1
9 9 -11 -7 -5 -3 1 1
9 9 -11 -8 -5 -3 1 1
9 9 -11 -8 -6 -3 1 2
9 9 -11 -9 -6 -3 1 2
8 9 -12 -10 -7 -3 1 3
6 7 -11 -11 -8 -4 1 2
5 5 -10 -11 -9 -5 0 1
3 2 -9 -12 -10 -6 0 0
2 0 -8 -13 -11 -7 -2 -2
0 -3 -7 -14 -12 -8 -3 -3
0 -3 -7 -14 -13 -9 -5 -4
0 -4 -7 -15 -13 -10 -6 -5
0 -4 -7 -15 -14 -11 -8 -6
0 -5 -7 -16 -15 -13 -9 -8
-2 -6 -6 -17 -16 -14 -11 -9
-3 -6 -6 -17 -16 -14 -11 -9
-4 -7 -6 -17 -16 -14 -11 -9
-5 -7 -6 -17 -16 -15 -11 -9
-6 -8 -6 -17 -16 -15 -11 -9
-7 -9 -6 -18 -17 -16 -11 -10
-7 -9 -6 -18 -18 -16 -11 -10
-7 -9 -6 -18 -19 -16 -12 -10
-7 -9 -6 -19 -20 -17 -12 -11
-7 -9 -6 -19 -22 -17 -13 -11
-8 -10 -5 -20 -23 -18 -14 -12
-8 -10 -5 -20 -23 -18 -14 -12
-8 -10 -4 -20 -23 -19 -14 -13
-7 -10 -4 -20 -23 -19 -15 -13
-7 -10 -3 -20 -23 -20 -15 -14
-6 -11 -2 -20 -22 -21 -16 -15
-6 -11 -2 -20 -22 -21 -16 -15
-6 -11 -2 -20 -22 -21 -16 -15
-7 -11 -2 -20 -22 -21 -16 -14
-7 -11 -2 -20 -22 -21 -16 -14
-8 -12 -3 -20 -22 -21 -17 -13
-9 -12 -3 -20 -22 -21 -17 -13
-10 -13 -3 -21 -23 -21 -17 -13
-11 -13 -3 -21 -23 -21 -18 -14
-12 -14 -3 -22 -24 -21 -18 -14
-13 -15 -4 -23 -25 -22 -19 -15
-12 -14 -4 -23 -25 -22 -19 -15
-11 -13 -4 -23 -25 -22 -19 -15
-10 -12 -3 -22 -25 -21 -19 -15
-9 -11 -3 -22 -25 -21 -19 -15
-8 -10 -2 -21 -24 -20 -18 -14
-8 -10 -2 -21 -24 -20 -18 -14
-8 -10 -2 -21 -24 -21 -18 -14
-8 -10 -2 -21 -24 -21 -18 -14
-8 -10 -2 -21 -24 -22 -18 -14
-8 -11 -3 -21 -25 -23 -19 -15
-8 -11 -3 -21 -25 -23 -19 -15
-8 -10 -3 -21 -25 -23 -19 -15
-8 -10 -3 -21 -25 -23 -19 -15
-8 -9 -3 -21 -25 -23 -19 -15
-8 -8 -3 -20 -25 -23 -19 -16
-8 -9 -3 -20 -25 -23 -19 -16
-8 -10 -3 -20 -25 -23 -19 -16
-9 -11 -3 -20 -24 -22 -19 -16
-9 -12 -3 -20 -24 -22 -19 -16
-10 -13 -2 -20 -23 -21 -18 -15
-10 -13 -2 -20 -23 -21 -18 -15
-9 -12 -2 -20 -23 -21 -18 -15
-8 -12 -2 -20 -22 -21 -18 -14
-7 -11 -2 -20 -22 -21 -18 -14
-6 -10 0 -20 -21 -20 -17 -13
-6 -10 0 -20 -21 -20 -17 -13
-7 -10 0 -20 -21 -20 -17 -13
-8 -10 0 -20 -21 -20 -17 -13
-9 -10 0 -20 -21 -20 -17 -13
-10 -11 0 -20 -21 -21 -17 -13
-10 -11 0 -20 -21 -21 -17 -13
-11 -11 0 -20 -21 -21 -17 -13
-11 -11 -2 -19 -21 -21 -17 -13
-12 -11 -2 -19 -21 -21 -17 -13
-13 -10 -3 -18 -21 -20 -16 -13
-12 -10 -3 -18 -20 -20 -16 -13
-11 -10 -3 -17 -19 -19 -16 -12
-10 -9 -2 -16 -18 -18 -16 -11
-9 -9 -2 -15 -17 -17 -16 -10
-8 -8 0 -14 -16 -16 -15 -9
-8 -8 0 -14 -16 -17 -16 -10
-8 -8 1 -14 -16 -18 -17 -11
-8 -8 1 -13 -16 -19 -18 -12
-8 -8 2 -13 -16 -20 -19 -14
-7 -7 4 -11 -16 -22 -21 -16
-11 -8 12 0 -14 -28 -29 -23
-15 -10 20 10 -11 -34 -37 -30
-19 -11 29 20 -9 -40 -46 -37
-23 -12 37 30 -6 -47 -54 -46
-25 -13 45 43 0 -48 -57 -49
-14 -7 45 59 16 -25 -35 -32
-3 1 44 75 33 -3 -13 -15
9 8 43 92 51 20 10 3
20 14 42 107 68 43 32 20
34 24 35 120 87 73 62 43
62 46 8 114 113 134 122 91
90 68 -21 107 140 194 184 140
117 90 -49 100 167 255 244 188
145 112 -77 94 193 315 306 236
169 133 -103 85 218 369 359 279
169 148 -114 67 231 393 382 301
169 162 -127 50 243 417 404 321
168 177 -139 31 257 440 426 342
168 192 -151 14 270 464 448 363
163 201 -159 -2 277 472 455 372
142 179 -147 -4 251 408 389 324
120 156 -135 -5 224 344 322 276
99 135 -122 -7 197 279 257 228
77 112 -110 -9 171 215 190 180
58 92 -98 -11 144 157 132 137
47 78 -82 -11 119 129 109 114
35 64 -67 -12 94 100 87 92
25 51 -53 -13 68 71 64 69
14 37 -37 -14 44 44 42 47
5 25 -24 -15 22 19 22 27
5 23 -20 -12 22 17 19 23
4 21 -15 -9 22 16 16 19
4 19 -11 -5 22 14 13 15
3 16 -7 -2 22 12 10 11
2 14 -3 2 21 10 7 7
1 11 -2 2 17 5 3 4
-2 8 1 2 13 0 -3 1
-4 6 2 2 9 -6 -7 -4
-5 3 3 2 6 -10 -11 -7
-7 0 5 1 2 -15 -15 -10
-7 -2 6 0 1 -16 -16 -10
-8 -3 7 -2 -2 -17 -18 -11
-8 -4 8 -3 -4 -18 -19 -12
-9 -5 9 -4 -5 -19 -20 -13
-10 -7 10 -5 -7 -20 -22 -14
-10 -7 10 -5 -8 -21 -23 -16
-11 -8 10 -5 -10 -23 -25 -17
-11 -9 11 -4 -11 -25 -26 -19
-12 -10 11 -4 -12 -26 -27 -21
-13 -11 12 -3 -14 -28 -29 -23
-13 -11 12 -3 -14 -28 -29 -23
-14 -12 12 -3 -14 -28 -29 -23
-14 -12 12 -3 -14 -28 -29 -23
-15 -13 12 -3 -14 -28 -29 -23
-16 -14 12 -4 -14 -29 -30 -23
-16 -14 12 -4 -15 -30 -30 -23
-16 -14 12 -3 -16 -31 -31 -24
-16 -14 12 -3 -17 -32 -32 -25
-16 -14 12 -2 -18 -33 -33 -26
-16 -14 13 0 -19 -34 -34 -27
-16 -14 13 0 -19 -34 -34 -27
-15 -14 14 0 -18 -33 -33 -26
-15 -14 14 0 -17 -32 -33 -26
-14 -14 15 0 -16 -31 -32 -25
-13 -13 16 1 -15 -30 -31 -24
-13 -14 16 1 -16 -31 -31 -24
-14 -15 16 1 -17 -32 -31 -24
-15 -16 16 1 -18 -33 -32 -24
-16 -17 16 1 -19 -34 -32 -24
-17 -19 15 0 -20 -36 -33 -25
-16 -18 15 0 -20 -36 -33 -25
-15 -17 15 0 -19 -35 -33 -25
-14 -15 15 1 -18 -34 -33 -25
-13 -14 15 1 -17 -33 -33 -25
-12 -12 16 2 -16 -32 -32 -25
-13 -12 16 2 -16 -32 -33 -25
-14 -13 16 2 -16 -33 -34 -26
-15 -14 16 2 -17 -34 -35 -27
-16 -15 16 2 -17 -35 -36 -28
-17 -16 16 3 -18 -36 -37 -29
-17 -17 16 3 -18 -36 -37 -29
-17 -18 16 3 -18 -36 -37 -29
-18 -19 16 3 -18 -35 -37 -29
-18 -20 16 3 -18 -35 -37 -29
-19 -21 16 2 -18 -34 -37 -29
-19 -21 16 2 -18 -35 -37 -30
-19 -21 16 2 -18 -36 -38 -31
-19 -21 16 2 -18 -38 -39 -32
-19 -21 16 2 -18 -39 -40 -33
-19 -20 16 3 -19 -41 -41 -35
-19 -19 16 3 -19 -40 -41 -34
-19 -18 16 3 -19 -39 -40 -33
-18 -17 17 3 -18 -38 -39 -32
-18 -16 17 3 -18 -37 -38 -31
-17 -15 18 4 -17 -36 -37 -29
-17 -16 18 4 -17 -37 -38 -29
-17 -17 18 4 -18 -38 -39 -30
-18 -18 18 4 -18 -39 -40 -31
-18 -19 18 4 -19 -40 -41 -32
-19 -21 17 5 -20 -41 -43 -33
-19 -21 17 5 -20 -41 -43 -33
-19 -20 17 5 -19 -40 -43 -33
-18 -20 17 6 -18 -39 -43 -33
-18 -19 17 6 -17 -38 -43 -33
-17 -18 18 7 -16 -37 -43 -33
-17 -18 18 7 -16 -37 -43 -33
-17 -18 18 8 -16 -37 -43 -33
-17 -18 18 9 -16 -37 -43 -33
-17 -18 18 10 -16 -37 -43 -33
-17 -19 17 11 -17 -38 -44 -32
-17 -19 17 11 -17 -38 -44 -32
-17 -19 17 11 -17 -38 -43 -32
-18 -19 17 11 -16 -37 -43 -32
-18 -19 17 11 -16 -37 -41 -32
-19 -19 18 11 -15 -36 -40 -31
-19 -19 18 11 -15 -36 -40 -31
-18 -18 18 12 -15 -36 -40 -31
-18 -18 18 12 -15 -35 -40 -31
-17 -17 18 13 -15 -35 -40 -31
-16 -16 17 14 -14 -34 -40 -31
-15 -16 17 14 -14 -33 -39 -31
-14 -16 17 15 -13 -32 -38 -30
-13 -15 17 16 -12 -31 -37 -29
-12 -15 17 17 -11 -30 -36 -28
-11 -14 18 18 -10 -29 -34 -27
-11 -14 18 19 -10 -29 -34 -27
-11 -14 18 20 -9 -29 -34 -27
-11 -13 17 21 -9 -28 -34 -27
-11 -13 17 22 -8 -28 -34 -27
-11 -12 16 23 -7 -27 -33 -26
-11 -12 16 23 -6 -26 -32 -25
-11 -12 16 24 -5 -24 -30 -24
-12 -12 16 24 -3 -23 -29 -22
-12 -12 16 25 -2 -21 -27 -21
-13 -13 15 26 1 -19 -25 -19
-13 -13 15 27 1 -18 -24 -19
-12 -12 14 28 1 -17 -23 -18
-11 -11 14 29 2 -16 -22 -17
-10 -10 13 30 2 -15 -21 -16
-9 -9 12 32 3 -14 -20 -15
-9 -9 12 32 4 -12 -19 -14
-8 -8 12 32 5 -10 -17 -12
-8 -8 11 32 7 -8 -15 -10
-7 -7 11 32 8 -6 -13 -8
-6 -6 10 33 10 -4 -11 -6
-5 -6 10 34 12 -3 -10 -5
-4 -5 10 36 14 0 -9 -4
-3 -5 10 38 16 1 -7 -3
-2 -4 10 40 18 3 -6 -2
1 -3 9 43 20 5 -4 0
1 -3 8 43 21 6 -3 1
1 -2 7 43 22 8 0 3
2 0 6 43 24 10 2 4
2 1 5 43 25 12 4 6
3 2 4 43 27 14 6 8
4 3 4 44 28 15 7 9
5 4 4 45 29 16 8 11
6 5 3 46 31 17 10 12
7 6 3 47 32 18 11 14
8 8 2 48 34 19 13 16
9 9 2 48 35 21 14 17
11 11 2 49 37 23 16 19
12 12 2 49 39 25 18 21
14 14 2 50 42 27 20 23
16 16 2 51 44 30 22 25
16 16 1 51 44 30 22 25
15 15 0 51 44 30 22 25
15 15 -2 51 44 30 22 25
14 14 -3 51 44 30 22 25
13 13 -4 51 44 30 23 25
13 13 -4 51 44 31 24 26
13 13 -4 50 45 32 25 27
13 13 -4 50 45 33 26 28
13 13 -4 49 46 34 27 29
12 13 -5 48 47 35 29 30
12 13 -5 48 47 35 29 30
13 14 -5 47 47 35 29 30
13 14 -5 47 46 35 29 30
14 15 -5 46 46 35 29 30
15 16 -5 45 45 34 28 30
15 16 -5 44 45 34 28 30
15 16 -5 42 44 33 28 30
15 16 -6 39 43 32 27 29
15 16 -6 37 42 31 27 29
15 17 -7 35 40 30 26 28
15 16 -7 34 38 28 24 27
14 15 -7 33 36 26 22 26
13 14 -7 32 34 24 20 25
12 13 -7 31 32 22 18 24
11 11 -7 30 29 19 15 22
11 11 -7 29 29 19 14 22
10 11 -6 27 28 18 13 21
10 11 -6 26 27 17 12 20
9 11 -5 24 26 16 11 19
8 11 -4 22 25 15 10 18
8 10 -4 22 24 13 9 17
7 9 -4 22 23 11 8 16
6 8 -4 21 22 9 7 15
5 7 -4 21 21 7 6 14
4 5 -3 20 19 5 4 13
4 5 -3 20 18 5 4 13
5 6 -3 19 17 5 4 13
5 7 -3 18 16 5 4 12
6 8 -3 17 15 5 4 12
7 9 -3 16 14 5 3 11
6 9 -3 16 14 4 3 11
5 8 -2 16 13 3 3 11
4 7 -2 15 13 2 2 10
3 6 0 15 12 1 2 10
2 5 1 14 11 0 1 9
2 5 1 14 11 0 1 9
2 5 1 14 11 0 1 9
2 5 1 13 11 0 0 9
2 5 1 13 11 0 0 9
3 5 2 12 10 1 -2 8
3 5 2 12 10 1 -2 8
2 4 1 12 10 0 -2 7
1 4 1 12 9 -2 -3 7
0 3 0 12 9 -3 -3 6
-2 2 -2 11 8 -4 -4 5
-2 2 -2 11 8 -4 -4 5
-2 2 0 11 8 -4 -4 5
-2 2 0 11 8 -4 -4 5
-2 2 1 11 8 -4 -4 5
-3 3 2 12 9 -3 -5 5
-2 3 2 12 9 -3 -5 5
0 3 2 12 9 -3 -5 5
1 3 2 13 9 -3 -5 5
2 3 2 13 9 -3 -5 5
3 3 3 14 9 -4 -4 6
2 3 3 14 9 -4 -4 6
1 3 3 14 9 -4 -5 6
0 2 3 14 9 -4 -5 5
-2 2 3 14 9 -4 -6 5
-3 1 3 13 8 -5 -7 4
-3 1 3 13 8 -5 -7 4
-3 2 3 14 8 -5 -7 4
-2 2 4 14 8 -5 -7 4
-2 3 4 15 8 -5 -7 4
0 4 5 16 9 -5 -7 3
0 4 5 16 9 -5 -7 3
0 4 5 16 9 -5 -7 3
-2 4 5 15 9 -5 -7 3
-2 4 5 15 9 -5 -7 3
-2 4 5 15 9 -5 -7 3
-3 3 5 14 9 -6 -7 2
-3 3 5 15 9 -6 -7 2
-3 3 5 15 9 -6 -6 2
-3 3 5 16 9 -6 -6 2
-3 3 5 16 9 -6 -6 2
-2 3 6 17 10 -5 -5 3
-2 3 6 17 10 -5 -5 3
-3 2 6 16 10 -4 -5 3
-3 2 6 16 10 -4 -5 3
-3 2 6 16 10 -4 -5 3
-4 1 5 15 9 -3 -5 4
-4 1 5 15 9 -3 -5 4
-3 2 5 15 9 -4 -5 4
-3 2 5 15 9 -4 -5 4
-3 2 5 15 9 -4 -5 4
-2 3 6 15 9 -5 -6 5
-2 3 6 15 9 -5 -6 5
-2 3 6 15 9 -5 -6 5
-2 3 6 15 9 -5 -6 5
-2 3 6 15 9 -5 -6 5
-3 2 5 15 9 -5 -6 4
-3 3 5 15 9 -5 -6 4
-3 4 5 15 9 -5 -6 4
-3 5 5 15 9 -5 -6 4
-3 5 5 15 9 -5 -6 4
-2 6 5 14 8 -4 -5 4
-2 6 5 14 8 -3 -5 5
-2 5 5 15 9 -3 -4 6
-2 5 5 15 9 -2 -4 7
-2 5 5 15 9 -2 -4 7
-3 4 5 16 10 0 -3 8
-3 3 5 16 10 0 -3 8
-3 3 4 15 10 -2 -3 7
-3 2 4 15 10 -2 -3 7
-3 2 4 15 10 -2 -3 7
-3 1 3 14 9 -3 -4 6
-2 2 3 14 9 -3 -4 6
-2 2 3 14 9 -3 -4 6
0 3 3 14 9 -3 -4 6
0 3 3 14 9 -3 -4 6
1 4 3 13 9 -2 -3 7
0 3 3 13 9 -2 -3 7
0 3 3 13 9 -3 -3 7
-2 2 3 13 9 -3 -3 7
-2 2 3 13 9 -3 -3 7
-3 1 3 12 8 -4 -3 7
-2 1 3 12 8 -4 -3 7
0 2 3 11 8 -3 -3 7
1 2 3 11 8 -3 -3 7
1 2 3 11 8 -3 -3 7
2 3 3 10 7 -2 -2 7
2 3 4 10 7 -2 -2 7
2 4 4 10 7 -3 -2 7
2 4 5 10 7 -3 -2 7
2 4 5 10 7 -3 -2 7
3 5 6 9 6 -4 -2 8
3 4 6 8 6 -4 -2 8
2 4 5 8 6 -4 -2 8
2 3 5 7 6 -4 -2 8
2 3 5 7 6 -4 -2 8
1 2 4 6 5 -4 -3 9
0 2 3 6 5 -5 -4 9
0 2 3 6 4 -5 -4 8
-2 2 2 6 4 -6 -5 8
-2 2 2 6 4 -6 -5 8
-3 1 1 5 3 -7 -6 7
-3 1 1 4 2 -7 -6 7
-3 0 2 4 2 -8 -6 6
-3 0 2 3 1 -8 -6 6
-3 0 2 3 1 -8 -6 6
-4 -2 3 2 0 -9 -7 5
-4 -2 3 2 0 -9 -7 5
-4 -2 3 1 0 -9 -7 5
-4 -2 3 1 0 -9 -7 5
-4 -2 3 1 0 -9 -7 5
-4 -2 3 0 -2 -9 -7 4
-4 -2 3 0 -2 -9 -7 5
-3 -2 3 0 -2 -9 -7 6
-3 -2 3 0 -2 -9 -7 7
-3 -2 3 0 -2 -9 -7 7
-2 0 3 1 -2 -8 -6 8
0 1 3 1 -2 -8 -6 8
1 2 3 1 -2 -8 -6 7
2 3 3 1 -2 -8 -6 7
3 3 3 1 -2 -8 -6 7
4 4 4 1 -2 -9 -6 6
3 3 4 0 -3 -9 -7 6
2 2 3 -2 -3 -9 -7 6
1 1 3 -3 -4 -9 -8 6
0 0 3 -4 -4 -9 -8 6
-2 -2 2 -5 -5 -10 -9 5
-2 -2 2 -4 -5 -10 -9 6
-2 -3 2 -3 -4 -10 -8 6
-2 -3 2 -2 -4 -10 -8 7
-2 -3 2 0 -4 -10 -8 7
-2 -4 2 1 -3 -10 -7 8
-2 -3 2 1 -3 -10 -7 8
0 -3 3 0 -3 -10 -7 8
0 -2 3 0 -3 -10 -7 8
0 -2 3 0 -3 -10 -7 8
1 0 4 -2 -3 -9 -6 8
1 0 4 -2 -3 -9 -7 7
1 0 4 -2 -3 -10 -7 7
1 0 4 -2 -3 -10 -8 6
1 0 4 -2 -3 -10 -8 6
0 -2 3 -3 -4 -11 -9 5
-2 -2 3 -4 -4 -11 -9 5
-2 -3 2 -4 -4 -11 -9 5
-3 -3 2 -5 -4 -11 -9 5
-3 -3 2 -5 -4 -11 -9 5
-4 -4 1 -6 -5 -12 -10 5
-4 -4 1 -6 -5 -12 -10 5
-4 -4 1 -6 -5 -12 -10 5
-4 -4 1 -6 -5 -12 -10 5
-4 -4 1 -6 -5 -12 -10 5
-4 -4 1 -6 -6 -12 -10 5
-4 -4 1 -6 -6 -12 -10 5
-4 -4 2 -6 -6 -12 -10 5
-4 -4 2 -6 -6 -12 -10 5
-4 -4 2 -6 -6 -12 -10 5
-3 -4 3 -5 -6 -11 -9 6
-2 -3 3 -5 -6 -11 -9 6
-2 -2 3 -5 -6 -11 -9 6
0 0 3 -5 -6 -11 -9 6
0 0 3 -5 -6 -11 -9 6
1 1 4 -5 -5 -11 -9 7
1 0 3 -5 -5 -11 -9 7
0 -2 3 -6 -5 -11 -9 7
0 -3 2 -6 -5 -11 -9 7
0 -4 2 -6 -5 -11 -9 7
-2 -5 1 -7 -6 -11 -9 7
-2 -5 1 -7 -6 -11 -9 7
-2 -4 1 -7 -6 -11 -9 6
-2 -4 1 -7 -6 -11 -9 6
-2 -4 1 -7 -6 -11 -9 6
-2 -3 1 -7 -6 -12 -9 5
-2 -3 1 -7 -6 -12 -9 5
-2 -3 1 -7 -6 -12 -9 5
-2 -3 1 -7 -6 -12 -9 5
-2 -3 1 -7 -6 -12 -9 5
0 -2 2 -8 -7 -11 -10 5
1 1 2 -7 -6 -11 -9 6
3 2 3 -6 -6 -11 -9 7
4 4 3 -5 -5 -11 -8 8
5 5 3 -5 -5 -11 -8 9
6 6 4 -4 -4 -11 -7 10
5 5 3 -5 -4 -11 -7 9
5 4 3 -6 -4 -11 -8 9
4 3 2 -7 -4 -11 -8 8
4 2 2 -8 -4 -11 -8 8
3 1 1 -9 -4 -11 -9 7
3 1 1 -9 -5 -11 -9 7
3 0 0 -9 -5 -11 -9 7
3 0 0 -9 -6 -11 -9 7
3 0 0 -9 -6 -11 -9 7
2 -2 -2 -9 -7 -12 -10 7
2 -2 -2 -9 -7 -11 -9 7
1 -2 -2 -9 -7 -11 -8 8
1 -2 -2 -9 -7 -10 -7 8
1 -2 -2 -9 -7 -10 -7 8
0 -2 0 -8 -6 -9 -6 9
1 2 1 -7 -5 -8 -6 9
2 4 2 -7 -4 -8 -5 10
3 6 3 -6 -3 -7 -5 10
3 8 4 -6 -3 -7 -5 10
4 9 5 -5 -2 -6 -4 11
4 9 5 -5 0 -6 -4 12
3 9 5 -5 0 -6 -3 12
3 9 5 -5 1 -6 -3 13
3 9 5 -5 1 -6 -3 13
3 10 5 -4 2 -5 -2 14
4 10 4 -3 3 -4 0 14
5 10 3 -2 3 -3 1 14
6 10 2 0 4 -2 2 14
7 10 1 0 4 0 3 14
9 11 0 1 5 1 4 15
10 12 -2 1 6 2 5 16
12 14 -3 1 6 3 6 18
14 16 -4 1 7 4 7 20
15 17 -5 1 7 4 7 21
16 18 -6 2 8 5 8 22
15 17 -6 1 7 5 8 22
15 16 -7 1 6 4 8 22
14 15 -7 0 5 4 8 22
14 15 -7 0 5 4 8 22
13 13 -8 -2 4 3 8 22
13 12 -7 -2 3 2 7 22
13 11 -6 -3 2 2 7 21
13 9 -5 -3 1 1 6 21
13 8 -5 -3 1 1 6 21
13 6 -4 -4 -2 -2 4 19
12 4 -4 -5 -3 -4 2 17
10 2 -3 -6 -4 -6 0 15
8 1 -3 -7 -5 -7 -2 14
7 -2 -3 -7 -6 -9 -4 12
6 -3 -2 -8 -7 -10 -5 11
5 -3 0 -8 -7 -10 -5 11
5 -2 0 -8 -7 -10 -6 10
4 -2 1 -8 -7 -10 -6 10
4 -2 1 -8 -7 -10 -6 10
3 -2 2 -9 -8 -10 -7 9
2 -3 2 -10 -9 -11 -8 8
1 -5 2 -10 -10 -12 -8 8
0 -7 2 -11 -11 -13 -9 7
-2 -8 2 -11 -11 -14 -9 7
-3 -9 1 -12 -12 -15 -10 6
-2 -9 1 -12 -12 -15 -10 6
0 -8 1 -12 -12 -15 -10 6
1 -8 1 -12 -12 -15 -10 6
1 -8 1 -12 -12 -15 -10 6
2 -7 2 -12 -13 -14 -9 7
1 -8 2 -12 -14 -15 -10 6
0 -9 2 -12 -14 -15 -11 5
-2 -10 2 -12 -15 -16 -12 4
-3 -11 2 -12 -15 -16 -12 4
-4 -12 2 -13 -16 -17 -13 3
-5 -12 2 -14 -16 -17 -13 3
-5 -13 2 -14 -16 -17 -13 3
-6 -13 2 -15 -16 -17 -13 3
-6 -13 2 -15 -16 -17 -13 3
-7 -14 2 -16 -15 -18 -14 3
-6 -14 2 -16 -15 -18 -14 1
-5 -13 2 -16 -16 -18 -14 0
-4 -13 2 -16 -16 -18 -14 -2
-4 -13 2 -16 -16 -18 -14 -3
-3 -12 1 -15 -17 -18 -15 -4
-3 -12 1 -15 -17 -18 -15 -4
-3 -12 2 -15 -16 -18 -15 -5
-3 -12 2 -15 -16 -18 -15 -5
-3 -12 2 -15 -16 -18 -15 -5
-3 -11 3 -15 -15 -18 -14 -6
-2 -10 3 -15 -15 -18 -14 -7
-2 -10 3 -14 -15 -18 -14 -7
0 -9 3 -14 -15 -18 -14 -8
0 -9 3 -14 -15 -18 -14 -8
1 -8 3 -13 -15 -17 -13 -9
1 -8 3 -14 -15 -17 -13 -10
0 -9 2 -14 -16 -17 -13 -10
0 -9 2 -15 -16 -17 -13 -11
0 -9 2 -15 -16 -17 -13 -11
-2 -10 1 -16 -17 -18 -14 -12
-3 -10 1 -16 -17 -18 -14 -12
-4 -9 1 -15 -17 -18 -14 -12
-5 -9 1 -15 -17 -18 -14 -12
-5 -9 1 -15 -17 -18 -14 -12
-6 -8 2 -14 -16 -18 -15 -11
-6 -8 2 -14 -16 -18 -15 -11
-6 -9 2 -15 -16 -18 -15 -11
-6 -9 2 -15 -16 -18 -15 -11
-6 -9 2 -15 -16 -18 -15 -11
-5 -10 1 -16 -16 -19 -14 -11
-5 -10 1 -15 -15 -19 -14 -11
-4 -10 1 -15 -15 -18 -14 -11
-4 -10 1 -14 -14 -18 -14 -11
-4 -10 1 -14 -14 -18 -14 -11
-3 -8 1 -13 -13 -17 -13 -12
0 -6 1 -13 -13 -17 -12 -11
1 -4 2 -13 -13 -16 -12 -11
2 -3 2 -13 -13 -16 -11 -10
3 0 2 -13 -13 -16 -11 -10
4 1 3 -12 -13 -16 -11 -10
4 0 3 -11 -13 -18 -14 -12
3 -2 3 -11 -13 -20 -16 -14
3 -3 3 -10 -13 -21 -19 -15
3 -3 3 -10 -13 -23 -21 -17
-2 -5 9 0 -11 -27 -27 -23
-6 -7 18 11 -9 -32 -35 -30
-10 -9 27 22 -6 -37 -44 -37
-14 -11 36 33 -4 -43 -51 -45
-18 -13 46 45 -2 -48 -59 -52
-11 -9 47 58 14 -30 -40 -38
2 0 44 71 32 -5 -15 -18
13 7 42 85 51 22 12 3
25 14 38 98 69 48 38 22
36 22 36 112 88 73 65 43
60 43 13 111 115 130 120 87
87 66 -16 104 144 194 184 137
114 90 -45 98 174 259 248 187
141 114 -74 92 202 323 312 236
169 138 -103 86 232 388 376 286
171 152 -117 69 245 415 401 310
165 163 -128 51 255 431 415 324
159 175 -137 32 264 447 430 340
153 186 -147 13 273 463 444 355
148 197 -156 -6 282 479 459 369
133 183 -149 -11 265 433 411 336
114 160 -136 -11 237 367 343 285
96 138 -121 -11 210 301 275 235
77 115 -108 -11 182 235 207 185
60 93 -95 -11 154 170 140 135
49 77 -80 -11 128 133 108 108
39 65 -65 -12 102 105 89 88
31 53 -51 -13 76 77 68 68
22 40 -36 -14 51 51 48 49
14 27 -22 -14 25 23 27 28
10 22 -16 -14 19 16 21 21
7 18 -13 -11 19 14 18 17
4 15 -9 -8 19 13 16 13
2 11 -6 -6 19 12 13 9
-2 7 -2 -3 19 11 11 5
-3 5 1 -2 17 7 7 2
-4 3 2 -2 13 2 2 -2
-5 2 4 -2 9 -4 -4 -6
-6 0 6 -2 5 -9 -9 -9
-7 -3 7 -2 1 -14 -14 -13
-8 -4 8 -2 -2 -16 -16 -14
-8 -4 9 -3 -4 -17 -16 -14
-8 -4 10 -3 -5 -17 -17 -15
-8 -4 11 -4 -6 -18 -17 -15
-8 -4 11 -4 -7 -18 -17 -15
-7 -6 12 -5 -9 -20 -19 -17
-9 -8 12 -5 -10 -22 -21 -18
-10 -9 12 -5 -12 -24 -23 -20
-11 -11 12 -5 -13 -26 -25 -21
-12 -13 12 -5 -15 -28 -27 -23
-13 -14 12 -6 -16 -29 -28 -24
-12 -14 12 -6 -16 -29 -28 -24
-12 -13 13 -6 -16 -29 -28 -23
-11 -13 13 -6 -16 -29 -28 -23
-11 -13 13 -6 -16 -29 -28 -23
-10 -12 14 -6 -15 -28 -28 -22
-11 -13 14 -6 -16 -30 -29 -24
-11 -14 14 -6 -17 -31 -30 -25
-12 -14 14 -6 -17 -32 -31 -26
-12 -15 14 -6 -18 -33 -32 -27
-13 -16 14 -5 -19 -34 -33 -28
-13 -15 15 -5 -19 -33 -33 -27
-12 -15 15 -6 -19 -33 -32 -27
-12 -14 16 -6 -19 -32 -32 -26
-12 -14 16 -6 -19 -32 -32 -26
-12 -14 17 -7 -18 -31 -32 -26
-13 -16 17 -7 -19 -33 -33 -27
-14 -17 16 -7 -20 -34 -34 -28
-16 -19 16 -7 -20 -35 -36 -30
-17 -21 16 -7 -21 -36 -37 -31
-18 -22 15 -7 -22 -37 -38 -32
-17 -20 16 -7 -21 -36 -37 -31
-16 -19 17 -7 -21 -35 -36 -30
-15 -18 17 -7 -20 -34 -35 -29
-14 -17 18 -7 -20 -33 -34 -28
-13 -16 19 -6 -19 -32 -34 -28
-14 -17 19 -6 -20 -34 -35 -29
-15 -18 19 -6 -21 -35 -36 -30
-15 -18 19 -6 -21 -36 -38 -32
-16 -19 19 -6 -22 -37 -39 -33
-17 -20 18 -5 -23 -38 -40 -34
-17 -20 18 -5 -23 -38 -40 -33
-17 -20 18 -5 -23 -37 -39 -33
-17 -20 18 -5 -23 -37 -39 -32
-17 -20 18 -5 -23 -37 -39 -32
-16 -19 19 -6 -22 -36 -38 -31
-16 -20 19 -6 -22 -37 -39 -32
-17 -21 19 -5 -23 -38 -39 -33
-17 -21 19 -5 -23 -38 -40 -33
-17 -22 19 -5 -23 -39 -40 -34
-18 -23 18 -4 -24 -40 -41 -35
-17 -22 18 -4 -24 -39 -40 -34
-16 -21 18 -4 -23 -38 -40 -33
-16 -20 18 -4 -23 -38 -39 -33
-15 -19 18 -4 -23 -37 -39 -32
-14 -18 19 -5 -22 -36 -38 -31
-16 -20 19 -5 -23 -38 -40 -32
-17 -21 19 -4 -24 -39 -41 -33
-18 -22 19 -4 -24 -40 -43 -34
-19 -23 19 -4 -25 -41 -44 -35
-20 -24 19 -3 -26 -43 -45 -36
-19 -23 19 -3 -25 -41 -45 -35
-19 -23 19 -3 -24 -40 -44 -34
-18 -22 19 -3 -24 -40 -44 -34
-18 -22 19 -3 -23 -39 -44 -33
-17 -21 18 -3 -22 -38 -43 -32
-17 -21 18 -2 -22 -38 -43 -33
-17 -21 19 -2 -23 -38 -43 -34
-17 -21 19 0 -23 -38 -43 -35
-17 -21 19 0 -23 -38 -43 -36
-18 -20 20 1 -24 -39 -44 -37
-18 -20 19 1 -23 -39 -44 -36
-18 -20 19 1 -23 -38 -43 -35
-18 -20 18 1 -22 -38 -43 -34
-18 -20 18 1 -22 -38 -43 -33
-17 -21 17 0 -21 -37 -41 -32
-17 -20 17 2 -20 -37 -41 -32
-17 -20 18 3 -20 -36 -40 -32
-17 -19 18 4 -19 -36 -40 -32
-17 -19 18 5 -19 -36 -40 -32
-18 -18 19 6 -18 -35 -39 -32
-17 -18 19 6 -18 -34 -38 -31
-17 -17 19 6 -18 -34 -38 -31
-16 -17 19 6 -18 -33 -37 -30
-16 -17 19 6 -18 -33 -37 -30
-15 -16 20 6 -17 -32 -36 -29
-15 -16 19 8 -17 -32 -36 -29
-16 -17 19 9 -16 -32 -36 -28
-16 -17 18 10 -16 -32 -36 -28
-16 -17 18 11 -16 -32 -36 -28
-16 -18 17 12 -15 -30 -34 -27
-15 -16 17 12 -13 -28 -32 -26
-13 -15 17 12 -12 -26 -31 -26
-12 -14 17 12 -11 -24 -29 -25
-10 -13 17 12 -10 -22 -27 -25
-9 -12 16 13 -9 -21 -26 -24
-9 -13 15 15 -8 -20 -25 -22
-9 -13 15 16 -8 -19 -25 -21
-9 -14 14 17 -7 -19 -24 -19
-9 -14 14 18 -7 -18 -24 -18
-10 -15 13 19 -5 -16 -22 -16
-8 -13 13 20 -3 -13 -19 -14
-7 -12 13 20 0 -11 -17 -13
-6 -10 13 21 2 -9 -15 -11
-5 -9 13 21 4 -6 -12 -9
-4 -8 12 22 5 -5 -11 -7
-3 -8 12 24 7 -3 -9 -6
-2 -8 11 25 8 -2 -8 -4
-2 -8 11 27 9 1 -6 -3
0 -8 11 28 10 2 -5 0
1 -7 10 29 12 4 -3 1
1 -5 10 29 13 6 0 3
1 -4 9 29 15 8 2 4
1 -2 8 29 17 10 4 6
1 0 8 29 19 12 6 7
2 1 7 29 20 13 7 9
3 2 7 31 21 14 9 10
5 3 6 32 23 16 10 12
6 3 6 34 24 17 12 13
8 4 6 35 25 18 13 15
9 5 5 36 26 20 14 16
9 5 4 36 27 21 16 17
10 6 3 36 29 23 17 19
10 6 3 36 30 24 19 20
10 6 2 36 31 26 20 21
11 7 1 35 32 27 21 22
11 8 1 35 32 27 22 23
12 9 1 36 33 28 23 25
12 10 1 37 34 29 24 26
12 11 1 37 34 29 25 27
13 12 1 38 35 30 26 28
13 12 1 36 35 30 27 28
13 11 0 35 35 31 28 29
13 11 -2 33 35 31 28 30
13 11 -2 32 35 31 29 30
13 10 -3 31 36 32 30 31
12 9 -3 30 35 31 29 30
11 8 -4 29 33 30 27 29
11 8 -4 28 32 29 26 29
10 7 -4 27 31 28 25 28
9 6 -5 26 30 27 24 27
9 7 -5 25 30 27 24 27
10 8 -5 23 29 26 24 27
11 8 -5 22 28 26 24 27
11 9 -5 21 28 26 24 27
12 10 -5 20 26 24 24 26
12 9 -5 19 25 23 23 26
12 8 -4 18 23 21 21 26
12 8 -4 17 22 20 20 26
12 7 -4 16 20 18 19 26
11 6 -3 14 18 17 18 25
9 5 -3 13 17 15 16 23
8 4 -3 11 15 14 15 22
6 4 -3 9 14 12 13 20
5 3 -3 7 12 11 12 19
4 2 -2 6 11 9 10 18
4 2 -2 6 10 8 9 17
3 2 -2 5 8 6 7 15
2 2 -2 5 7 5 6 14
2 2 -2 5 6 3 4 13
1 1 0 4 5 2 3 12
2 1 0 3 5 2 3 12
3 2 1 2 4 2 3 12
3 2 1 2 4 2 3 12
4 2 1 1 4 2 3 12
5 2 2 0 3 1 3 13
3 1 2 0 2 -2 1 12
2 -2 2 -2 0 -3 0 11
0 -4 2 -3 -2 -5 -3 10
-2 -6 2 -3 -3 -6 -4 9
-3 -7 2 -4 -4 -7 -5 8
-3 -7 2 -4 -4 -7 -5 8
-3 -6 2 -5 -4 -7 -5 8
-3 -6 2 -5 -4 -7 -5 8
-3 -6 2 -5 -4 -7 -5 8
-4 -5 2 -6 -3 -6 -4 8
-4 -5 2 -6 -3 -6 -4 8
-3 -5 2 -5 -4 -7 -5 7
-3 -5 2 -5 -4 -7 -6 7
-3 -5 2 -5 -4 -7 -6 7
-2 -4 2 -4 -5 -8 -7 6
-2 -4 2 -4 -5 -8 -7 6
-3 -4 2 -4 -5 -8 -7 6
-3 -4 2 -4 -5 -8 -7 6
-3 -4 2 -4 -5 -8 -7 6
-4 -4 3 -5 -4 -8 -7 6
-4 -5 3 -5 -4 -8 -7 5
-5 -6 3 -4 -5 -9 -8 4
-5 -6 3 -4 -6 -10 -9 3
-5 -7 3 -4 -6 -10 -9 2
-6 -8 3 -3 -7 -11 -10 1
-6 -8 3 -3 -7 -11 -10 1
-6 -8 3 -3 -6 -10 -9 0
-6 -8 3 -3 -6 -10 -9 -2
-6 -8 3 -3 -6 -10 -9 -2
-7 -8 4 -4 -5 -9 -8 -3
-7 -8 4 -4 -5 -9 -8 -3
-6 -7 4 -3 -5 -10 -9 -4
-5 -6 4 -2 -5 -10 -9 -4
-5 -6 4 -2 -5 -10 -9 -4
-4 -5 5 0 -5 -11 -10 -5
-4 -5 5 0 -5 -11 -10 -5
-5 -6 5 -2 -5 -11 -10 -5
-6 -6 5 -2 -5 -11 -10 -5
-6 -6 5 -2 -5 -11 -10 -5
-7 -7 5 -3 -6 -11 -9 -6
-7 -7 5 -3 -6 -11 -9 -6
-7 -7 5 -3 -7 -12 -10 -7
-7 -7 5 -3 -7 -13 -11 -7
-7 -7 5 -3 -7 -13 -11 -7
-7 -7 5 -3 -8 -14 -12 -8
-6 -6 5 -3 -7 -13 -11 -8
-5 -4 6 -2 -6 -12 -10 -7
-5 -3 6 -2 -5 -11 -9 -6
-4 -2 6 -2 -4 -10 -8 -6
-3 0 7 0 -3 -9 -7 -5
-4 -2 7 0 -5 -10 -9 -6
-5 -3 6 -2 -6 -12 -10 -7
-5 -4 6 -2 -8 -13 -12 -7
-6 -5 6 -2 -9 -14 -13 -8
-7 -6 5 -3 -10 -15 -14 -9
-7 -6 5 -3 -9 -14 -13 -9
-7 -6 5 -3 -8 -13 -12 -8
-7 -6 5 -3 -8 -12 -11 -7
-7 -6 5 -3 -7 -11 -10 -7
-6 -6 5 -3 -6 -10 -9 -6
-6 -6 5 -3 -7 -11 -10 -6
-6 -6 4 -3 -8 -12 -11 -7
-6 -6 3 -3 -8 -12 -12 -8
-6 -6 3 -3 -9 -13 -13 -8
-6 -6 2 -4 -10 -14 -14 -9
-6 -6 2 -4 -10 -13 -13 -9
-7 -7 3 -4 -9 -12 -11 -8
-7 -7 3 -4 -8 -12 -10 -7
-7 -7 3 -4 -8 -11 -9 -7
-8 -8 4 -4 -7 -10 -8 -6
-7 -7 4 -4 -7 -10 -8 -6
-6 -6 4 -4 -7 -10 -8 -6
-6 -6 4 -4 -7 -10 -8 -6
-5 -5 4 -4 -7 -10 -8 -6
-4 -4 3 -3 -7 -10 -7 -6
-4 -5 3 -3 -7 -10 -7 -6
-5 -6 3 -4 -8 -10 -7 -6
-6 -7 3 -4 -8 -10 -7 -6
-6 -8 3 -4 -8 -10 -7 -6
-7 -9 2 -5 -9 -11 -8 -6
-6 -8 2 -5 -9 -11 -8 -6
-5 -7 2 -5 -9 -11 -8 -6
-5 -6 2 -5 -9 -11 -8 -6
-4 -5 2 -5 -9 -11 -8 -6
-3 -4 3 -4 -9 -11 -8 -7
-3 -4 3 -5 -9 -11 -8 -7
-2 -3 3 -6 -8 -10 -7 -6
-2 -3 3 -6 -8 -10 -7 -5
-2 -3 3 -7 -8 -10 -7 -5
0 -2 4 -8 -7 -9 -6 -4
-2 -3 4 -8 -7 -9 -6 -4
-3 -4 3 -8 -8 -10 -7 -5
-3 -4 3 -8 -9 -11 -8 -6
-4 -5 3 -8 -9 -11 -8 -6
-5 -6 2 -7 -10 -12 -9 -7
-5 -6 2 -8 -10 -12 -9 -7
-5 -7 2 -9 -11 -12 -9 -7
-5 -7 2 -10 -11 -12 -9 -7
-5 -7 2 -11 -11 -12 -9 -7
-6 -8 1 -12 -12 -13 -10 -8
-6 -8 1 -12 -12 -14 -10 -8
-7 -8 1 -12 -13 -15 -11 -8
-7 -8 1 -12 -14 -15 -12 -8
-7 -8 1 -12 -14 -16 -12 -8
-8 -9 1 -11 -15 -17 -13 -9
-8 -9 1 -11 -15 -17 -13 -9
-8 -9 1 -12 -15 -17 -13 -9
-8 -9 1 -13 -15 -17 -13 -9
-8 -9 1 -13 -15 -17 -13 -9
-7 -9 0 -14 -16 -17 -13 -9
-7 -9 0 -14 -16 -17 -13 -9
-7 -9 0 -14 -16 -18 -14 -9
-7 -9 0 -14 -16 -18 -14 -9
-7 -9 0 -14 -16 -18 -14 -9
-8 -9 1 -14 -17 -19 -15 -10
-7 -9 1 -14 -17 -19 -15 -10
-6 -8 1 -14 -17 -18 -14 -10
-6 -7 1 -14 -17 -17 -13 -10
-5 -7 1 -14 -17 -17 -13 -10
-4 -6 2 -14 -16 -16 -12 -9
-6 -8 2 -15 -17 -17 -13 -9
-8 -10 1 -16 -18 -18 -14 -9
-9 -12 0 -16 -19 -19 -15 -9
-11 -14 0 -17 -20 -20 -16 -9
-12 -15 -2 -18 -21 -21 -17 -10
-12 -13 -2 -18 -20 -21 -16 -10
-11 -11 0 -18 -19 -20 -15 -11
-10 -10 0 -18 -19 -19 -15 -11
-10 -8 0 -18 -18 -19 -14 -11
-9 -7 1 -18 -17 -18 -13 -12
-8 -7 1 -17 -17 -18 -13 -12
-7 -7 2 -16 -17 -18 -13 -11
-6 -7 2 -16 -17 -18 -13 -11
-5 -7 2 -15 -17 -18 -13 -11
-4 -8 3 -14 -18 -18 -14 -10
-6 -9 3 -15 -18 -19 -14 -10
-7 -10 2 -16 -19 -20 -14 -11
-8 -11 2 -16 -19 -20 -14 -11
-10 -12 2 -17 -19 -21 -14 -11
-11 -13 1 -18 -20 -22 -15 -12
-11 -13 1 -18 -20 -22 -15 -12
-11 -13 1 -18 -20 -22 -15 -12
-11 -13 1 -18 -20 -22 -15 -12
-11 -13 1 -18 -20 -22 -15 -12
-11 -14 0 -19 -20 -21 -16 -12
-11 -14 0 -19 -20 -21 -16 -12
-11 -14 0 -19 -20 -21 -16 -12
-11 -14 0 -19 -20 -21 -16 -12
-11 -14 0 -19 -20 -21 -16 -12
-11 -13 1 -19 -20 -21 -16 -12
-10 -13 1 -19 -20 -21 -16 -12
-10 -13 1 -19 -20 -21 -16 -12
-9 -12 1 -19 -20 -21 -16 -12
-8 -12 1 -19 -20 -21 -16 -12
-7 -11 1 -19 -20 -21 -17 -12
-7 -11 1 -19 -20 -21 -17 -12
-7 -11 1 -19 -20 -21 -17 -12
-8 -11 1 -19 -20 -21 -17 -12
-8 -11 1 -19 -20 -21 -17 -12
-9 -11 0 -19 -20 -20 -17 -12
-9 -11 0 -19 -20 -20 -17 -12
-9 -11 0 -19 -20 -20 -17 -12
-8 -11 0 -19 -20 -20 -17 -12
-8 -11 0 -19 -20 -20 -17 -12
-7 -11 0 -18 -20 -21 -17 -11
-9 -12 0 -19 -20 -21 -17 -11
-10 -12 0 -19 -20 -21 -17 -12
-12 -13 -2 -20 -21 -21 -17 -13
-14 -14 -2 -21 -21 -21 -17 -13
-15 -15 -3 -22 -22 -22 -18 -14
-13 -14 -3 -21 -21 -22 -18 -14
-11 -13 -2 -20 -21 -22 -18 -13
-9 -11 0 -19 -20 -21 -18 -12
-7 -10 0 -18 -19 -21 -18 -12
-6 -9 1 -17 -18 -20 -17 -11
-6 -9 1 -17 -18 -20 -17 -11
-6 -9 1 -18 -18 -20 -17 -11
-6 -9 0 -19 -19 -20 -17 -11
-6 -9 0 -19 -19 -20 -17 -11
-7 -10 -2 -20 -20 -21 -17 -12
-7 -10 -2 -20 -20 -21 -17 -12
-7 -11 -2 -20 -20 -21 -17 -12
-7 -12 -2 -20 -21 -21 -17 -13
-7 -12 -2 -20 -21 -21 -17 -13
-8 -13 -2 -21 -22 -21 -18 -14
-8 -13 -2 -21 -22 -21 -18 -14
-8 -13 -2 -21 -22 -21 -18 -14
-9 -13 -2 -21 -21 -21 -18 -14
-9 -13 -2 -21 -21 -21 -18 -14
-10 -13 -3 -21 -20 -22 -17 -14
-10 -13 -3 -21 -20 -22 -17 -14
-9 -13 -3 -21 -20 -21 -17 -14
-8 -12 -3 -20 -20 -20 -17 -13
-8 -12 -3 -20 -20 -20 -17 -13
-7 -11 -2 -19 -20 -19 -17 -12
-7 -11 -2 -19 -20 -19 -17 -12
-7 -11 -2 -19 -20 -19 -17 -11
-7 -11 -2 -19 -20 -19 -16 -10
-7 -11 -2 -19 -20 -19 -16 -10
-6 -10 -2 -20 -19 -19 -15 -9
-6 -10 -2 -20 -19 -19 -15 -10
-6 -10 -2 -20 -19 -19 -15 -11
-6 -10 -2 -20 -19 -19 -15 -12
-6 -10 -2 -20 -19 -19 -15 -13
-6 -10 -3 -19 -20 -20 -15 -14
-5 -8 -2 -18 -18 -18 -13 -12
-4 -7 -2 -17 -17 -16 -12 -11
-3 -6 0 -15 -15 -14 -11 -9
-2 -4 1 -14 -13 -12 -9 -7
0 -3 2 -13 -12 -11 -8 -6
0 -2 2 -13 -12 -11 -8 -6
-2 0 2 -13 -12 -11 -8 -6
-3 2 2 -13 -11 -11 -8 -6
-3 3 2 -13 -11 -11 -8 -6
-4 4 3 -12 -10 -10 -7 -5
-3 4 3 -12 -10 -10 -6 -5
-2 5 3 -12 -10 -9 -6 -4
1 6 3 -12 -10 -8 -5 -3
2 6 3 -12 -10 -8 -4 -3
3 7 2 -11 -9 -7 -3 -2
4 7 1 -9 -8 -6 -2 0
4 7 0 -8 -7 -5 0 1
5 7 -3 -6 -5 -4 1 2
6 7 -4 -4 -4 -3 2 3
7 8 -5 -3 -3 -2 3 4
7 8 -5 -4 -3 -2 3 4
8 9 -6 -5 -3 -2 3 4
9 10 -7 -7 -3 -2 3 4
9 10 -7 -8 -3 -2 3 4
10 11 -8 -9 -4 0 3 5
9 9 -8 -9 -4 -2 2 5
8 8 -8 -9 -5 -2 2 5
7 6 -7 -9 -6 -3 1 4
6 4 -7 -9 -6 -4 0 4
5 3 -6 -10 -7 -5 -2 3
4 1 -6 -11 -9 -6 -3 2
4 0 -6 -12 -10 -7 -3 1
3 -2 -6 -14 -11 -8 -4 0
2 -4 -6 -15 -13 -9 -5 -2
1 -5 -5 -16 -14 -10 -6 -3
-3 -6 -4 -16 -14 -11 -7 -4
-5 -7 -3 -16 -15 -12 -8 -5
-7 -9 -2 -16 -16 -13 -10 -7
-9 -10 0 -16 -16 -14 -11 -8
-11 -11 1 -16 -17 -15 -12 -9
-10 -11 1 -16 -17 -15 -12 -9
-9 -11 1 -17 -17 -15 -12 -9
-8 -10 1 -18 -17 -16 -12 -9
-7 -10 1 -18 -17 -16 -12 -9
-6 -9 1 -19 -18 -17 -13 -10
-6 -9 1 -19 -19 -17 -13 -10
-6 -9 1 -19 -19 -18 -14 -11
-6 -10 0 -19 -20 -19 -15 -12
-6 -10 0 -19 -21 -19 -15 -12
-7 -11 -2 -20 -22 -20 -16 -13
-7 -11 -2 -20 -22 -20 -16 -13
-7 -12 -2 -20 -22 -20 -16 -13
-8 -13 -2 -20 -22 -20 -16 -13
-8 -13 -2 -20 -22 -20 -16 -13
-9 -14 -3 -21 -22 -21 -17 -14
-9 -14 -2 -21 -22 -21 -17 -14
-8 -14 -2 -21 -22 -21 -17 -14
-7 -13 0 -20 -22 -21 -16 -13
-7 -13 1 -20 -22 -21 -16 -13
-6 -12 2 -19 -21 -20 -15 -12
-6 -12 2 -19 -21 -20 -15 -12
-6 -12 2 -19 -21 -20 -15 -12
-7 -12 1 -20 -21 -20 -15 -13
-7 -12 1 -20 -21 -20 -15 -13
-8 -12 0 -21 -22 -20 -16 -14
-8 -12 0 -21 -22 -20 -16 -14
-8 -12 0 -21 -22 -20 -16 -14
-8 -12 0 -21 -22 -20 -16 -14
-8 -12 0 -21 -22 -20 -16 -14
-7 -12 0 -21 -22 -20 -17 -14
-7 -12 0 -21 -22 -20 -17 -14
-7 -12 0 -21 -22 -20 -17 -14
-7 -12 0 -21 -22 -20 -17 -14
-7 -12 0 -21 -22 -20 -17 -14
-6 -11 0 -21 -22 -20 -18 -15
-6 -11 0 -21 -22 -20 -18 -15
-7 -11 0 -21 -22 -20 -18 -15
-8 -11 0 -21 -22 -20 -18 -14
-8 -11 0 -21 -22 -20 -18 -14
-9 -12 1 -20 -21 -19 -17 -13
-9 -12 1 -20 -21 -19 -17 -13
-9 -12 1 -20 -21 -19 -17 -13
-9 -12 1 -20 -21 -19 -17 -13
-9 -12 1 -20 -21 -19 -17 -13
-8 -12 1 -20 -21 -20 -16 -13
-7 -11 1 -20 -21 -20 -16 -13
-6 -10 1 -19 -21 -19 -16 -13
-5 -9 2 -18 -20 -18 -16 -13
-4 -8 2 -18 -20 -18 -16 -13
-3 -7 3 -17 -19 -17 -15 -12
-5 -8 1 -18 -20 -18 -16 -12
-6 -9 -2 -19 -20 -19 -16 -12
-8 -11 -4 -21 -21 -20 -17 -13
-10 -12 -5 -22 -22 -21 -18 -13
-11 -13 -7 -23 -23 -22 -19 -14
-11 -12 -6 -22 -23 -21 -18 -14
-10 -11 -5 -21 -22 -21 -18 -13
-9 -10 -4 -20 -21 -20 -17 -12
-9 -9 -3 -19 -21 -19 -16 -12
-8 -8 -2 -18 -20 -18 -15 -11
-7 -7 -2 -18 -19 -18 -15 -11
-5 -6 -2 -18 -18 -17 -15 -11
-4 -4 0 -18 -17 -16 -15 -11
-2 -3 0 -18 -16 -16 -15 -11
-2 -2 3 -15 -15 -17 -17 -12
-7 -4 9 -9 -15 -22 -24 -18
-12 -6 16 -3 -15 -28 -32 -25
-17 -8 22 4 -15 -34 -39 -31
-22 -9 28 11 -15 -40 -47 -37
-24 -10 34 21 -10 -40 -48 -40
-17 -7 38 39 4 -28 -36 -32
-10 -3 42 58 18 -16 -25 -24
-4 1 46 75 31 -4 -14 -16
4 4 50 94 46 9 -3 -8
18 12 45 105 62 34 22 13
43 28 21 102 84 82 72 52
68 45 -3 99 106 132 121 92
94 61 -27 96 128 181 171 131
119 76 -51 93 149 229 221 171
139 96 -72 85 173 279 271 211
148 120 -92 70 198 332 322 254
157 146 -111 55 224 386 373 296
167 171 -131 39 250 438 426 338
176 195 -150 25 275 491 477 380
176 205 -161 14 285 506 490 394
158 187 -154 9 262 447 432 354
141 169 -147 4 239 389 375 314
123 149 -139 -2 216 330 316 274
106 131 -132 -7 193 272 258 235
90 113 -120 -11 170 222 207 197
74 98 -103 -11 143 184 172 164
59 84 -85 -12 117 146 136 132
44 68 -67 -13 91 109 100 99
28 53 -49 -13 65 71 64 65
17 42 -34 -14 46 45 38 42
14 35 -28 -14 39 37 33 35
11 29 -22 -14 32 31 27 29
7 24 -16 -13 25 24 21 23
4 18 -10 -13 19 17 15 17
1 13 -6 -12 14 11 10 12
-2 10 -4 -11 12 7 6 9
-4 7 -2 -9 9 4 2 5
-6 4 1 -8 7 0 -3 1
-8 1 3 -6 5 -5 -7 -3
-10 -2 5 -5 3 -8 -10 -6
-10 -3 5 -6 0 -11 -12 -7
-10 -4 5 -7 -3 -13 -14 -9
-11 -6 6 -8 -6 -16 -16 -10
-11 -7 6 -9 -8 -18 -17 -12
-12 -8 7 -10 -10 -20 -19 -13
-12 -8 8 -10 -10 -20 -20 -14
-12 -8 9 -10 -11 -21 -20 -14
-12 -7 10 -9 -12 -22 -21 -15
-12 -7 11 -9 -12 -22 -22 -16
-13 -6 12 -8 -13 -23 -23 -17
-13 -6 12 -8 -13 -23 -23 -17
-12 -6 12 -8 -13 -23 -23 -17
-12 -6 13 -7 -14 -24 -24 -18
-11 -6 13 -7 -14 -24 -24 -18
-10 -7 14 -6 -15 -25 -25 -19
-11 -8 14 -6 -15 -25 -26 -20
-13 -10 14 -7 -16 -26 -27 -21
-14 -11 14 -7 -16 -26 -28 -22
-16 -13 14 -8 -17 -27 -29 -23
-17 -14 15 -9 -18 -28 -30 -24
-17 -14 15 -9 -18 -28 -30 -24
-17 -14 15 -9 -18 -28 -30 -24
-16 -13 15 -9 -18 -28 -30 -24
-16 -13 15 -9 -18 -28 -30 -24
-15 -12 15 -8 -19 -29 -30 -23
-16 -13 15 -8 -19 -29 -30 -23
-17 -14 15 -8 -19 -29 -30 -23
-18 -15 16 -8 -19 -29 -30 -24
-19 -16 16 -8 -19 -29 -30 -24
-20 -17 17 -8 -19 -30 -30 -25
-19 -17 17 -8 -19 -30 -30 -25
-18 -16 17 -8 -19 -30 -30 -25
-17 -16 17 -8 -20 -30 -30 -25
-16 -15 17 -8 -20 -30 -30 -25
-15 -14 18 -8 -21 -30 -31 -26
-15 -14 18 -8 -21 -30 -31 -26
-15 -14 18 -8 -21 -30 -31 -26
-16 -14 18 -8 -21 -30 -32 -26
-16 -14 18 -8 -21 -30 -32 -26
-17 -14 19 -7 -20 -30 -33 -27
-17 -14 19 -7 -20 -30 -33 -27
-17 -14 19 -7 -20 -31 -33 -27
-17 -15 19 -7 -20 -31 -33 -28
-17 -15 19 -7 -20 -32 -33 -28
-18 -16 19 -7 -20 -33 -34 -29
-18 -16 19 -7 -20 -33 -34 -29
-18 -16 19 -7 -20 -33 -34 -29
-18 -16 19 -7 -20 -33 -35 -29
-18 -16 19 -7 -20 -33 -35 -29
-18 -17 18 -6 -21 -34 -36 -29
-18 -17 18 -6 -21 -34 -36 -29
-18 -17 18 -6 -21 -34 -37 -30
-19 -18 18 -6 -22 -35 -37 -30
-19 -18 18 -6 -22 -35 -38 -31
-20 -19 18 -7 -23 -36 -39 -32
-20 -18 18 -7 -23 -36 -39 -32
-19 -17 18 -6 -23 -36 -39 -32
-19 -16 18 -6 -23 -35 -39 -32
-18 -14 18 -5 -23 -35 -39 -32
-17 -13 19 -4 -23 -34 -39 -31
-17 -14 19 -4 -23 -34 -39 -31
-17 -15 19 -4 -22 -34 -39 -31
-17 -16 19 -3 -22 -34 -39 -31
-17 -17 19 -3 -21 -34 -39 -31
-18 -18 19 -2 -20 -35 -39 -31
-18 -18 19 -2 -20 -35 -39 -31
-18 -18 19 -2 -20 -35 -39 -31
-19 -18 19 -2 -20 -35 -39 -31
-19 -18 19 -2 -20 -35 -39 -31
-20 -18 20 -2 -21 -34 -39 -32
-20 -18 20 -2 -21 -34 -39 -32
-20 -18 20 -2 -21 -34 -39 -32
-20 -19 20 0 -21 -33 -38 -32
-20 -19 20 0 -21 -33 -38 -32
-21 -20 21 1 -21 -32 -37 -31
-21 -20 21 1 -20 -32 -37 -31
-21 -19 21 1 -20 -32 -37 -31
-20 -19 21 2 -19 -32 -37 -30
-20 -18 21 2 -18 -32 -37 -30
-19 -17 20 3 -17 -31 -36 -29
-19 -17 20 3 -17 -30 -35 -29
-19 -17 20 4 -17 -30 -35 -28
-19 -17 19 4 -17 -29 -34 -28
-19 -17 19 5 -17 -28 -33 -27
-19 -18 18 6 -18 -27 -32 -26
-18 -17 18 7 -17 -26 -32 -26
-17 -16 18 7 -16 -26 -31 -26
-16 -15 18 8 -15 -25 -31 -25
-14 -13 18 9 -14 -24 -30 -25
-13 -12 18 10 -13 -23 -29 -24
-13 -12 18 11 -12 -23 -29 -24
-13 -12 18 12 -11 -23 -29 -24
-13 -12 18 13 -10 -22 -28 -23
-13 -12 18 14 -8 -22 -28 -23
-13 -13 17 15 -7 -21 -27 -22
-12 -12 17 16 -6 -19 -25 -20
-12 -11 17 16 -6 -18 -23 -19
-11 -10 17 17 -5 -16 -22 -17
-10 -9 17 18 -4 -15 -20 -16
-9 -8 17 19 -3 -13 -18 -14
-9 -8 17 20 0 -11 -16 -13
-8 -8 17 21 2 -9 -15 -11
-8 -7 17 22 3 -7 -13 -10
-7 -7 17 24 5 -5 -12 -9
-6 -6 16 25 7 -3 -10 -7
-5 -5 15 25 8 -2 -9 -6
-4 -3 15 25 9 0 -8 -5
-3 -2 14 26 10 1 -7 -4
0 0 13 26 11 3 -5 -3
1 2 12 27 12 4 -4 -2
1 2 12 28 14 6 -2 1
1 2 12 29 16 8 0 2
2 3 11 30 17 10 2 4
2 3 11 31 19 12 3 5
3 4 10 32 21 14 5 7
3 4 10 33 22 15 6 8
4 4 10 34 24 17 8 9
5 5 10 35 25 18 10 10
6 5 10 36 26 19 11 11
7 6 9 37 28 21 13 12
7 6 8 37 28 22 14 13
8 7 7 37 29 23 16 14
8 8 6 37 30 24 17 15
9 9 5 37 31 26 18 16
10 10 4 38 32 27 20 17
10 10 4 38 33 28 21 18
10 11 4 38 34 29 22 20
11 11 4 39 35 30 23 21
11 12 4 39 36 31 25 22
12 13 3 40 37 32 26 24
12 13 3 40 37 32 26 24
12 13 3 40 38 33 27 25
12 14 2 39 39 34 28 25
12 14 2 39 40 35 29 26
12 15 1 38 42 36 30 27
13 15 1 37 42 36 30 27
14 15 1 36 42 36 30 27
15 15 1 35 42 36 30 28
16 15 1 34 42 36 30 28
17 16 1 33 40 35 29 29
17 16 1 32 39 35 29 29
16 16 1 31 38 34 28 29
15 16 0 30 37 33 28 29
14 16 0 28 36 32 27 29
13 15 -2 27 35 31 26 28
13 15 -2 25 33 30 25 27
13 15 -2 23 31 28 23 25
12 15 -2 22 30 27 22 24
12 15 -2 20 28 26 21 23
11 14 -3 18 26 24 19 21
11 14 -3 18 26 23 19 21
11 14 -3 17 25 22 18 21
10 13 -2 16 25 21 18 21
10 13 -2 15 24 19 17 21
9 12 0 14 23 18 16 20
9 12 0 13 22 18 16 19
9 12 0 12 20 18 15 18
9 12 0 11 18 17 15 17
9 12 0 9 17 17 14 16
10 11 0 8 15 16 13 15
10 11 0 7 14 14 12 14
9 11 1 6 12 12 11 12
8 10 1 5 11 10 10 11
7 10 2 3 10 8 8 10
6 9 3 2 8 6 7 8
5 8 3 2 8 6 6 8
4 7 3 2 7 5 5 7
3 6 3 1 7 5 4 7
1 4 3 1 6 4 3 6
0 3 4 0 5 3 2 5
0 3 4 0 5 3 2 5
0 4 4 0 5 3 2 5
1 5 4 0 5 3 2 5
1 6 4 0 5 3 2 5
2 7 4 0 6 3 2 6
2 6 4 0 6 3 2 6
1 5 4 0 5 3 1 6
0 4 4 0 5 2 1 5
-2 3 4 0 4 2 0 5
-3 2 4 0 3 1 -2 4
-3 3 4 0 3 1 -2 4
-3 4 4 0 3 1 -2 4
-2 5 4 0 3 1 -2 4
-2 6 4 0 3 1 -2 4
0 7 4 0 3 1 0 4
0 7 4 0 3 1 0 4
-2 6 4 0 3 1 -2 4
-3 5 4 0 3 0 -2 3
-4 4 4 0 3 0 -3 3
-5 3 3 0 2 -2 -4 2
-5 3 3 0 2 -2 -4 2
-4 3 4 0 2 -2 -4 2
-4 3 5 1 3 -2 -4 3
-3 3 6 1 3 -2 -4 3
-2 4 7 2 4 0 -3 4
-2 4 7 2 4 0 -3 4
-3 4 7 2 4 0 -3 3
-3 3 7 2 4 -2 -3 3
-4 3 7 2 4 -2 -3 2
-5 2 7 3 4 -3 -4 1
-5 2 7 3 4 -3 -4 1
-5 2 7 3 3 -3 -4 1
-6 1 7 3 3 -3 -5 1
-6 1 7 3 2 -3 -5 1
-7 0 6 2 1 -3 -6 1
-5 2 7 2 1 -3 -6 1
-4 3 8 3 2 -2 -5 1
-2 5 9 4 3 -2 -4 2
1 7 11 5 4 0 -3 2
3 9 12 6 5 1 -2 3
3 8 12 6 5 1 -2 3
2 7 12 6 5 0 -3 2
1 6 11 5 4 0 -3 2
0 4 11 5 4 -2 -4 1
-2 3 10 4 3 -3 -5 0
-2 3 10 4 3 -3 -5 0
-3 3 10 3 3 -3 -6 0
-4 3 9 3 3 -3 -6 -2
-5 3 9 2 3 -3 -7 -2
-6 2 8 1 2 -4 -8 -3
-6 2 8 1 2 -4 -8 -3
-5 3 8 1 2 -4 -7 -2
-5 3 8 2 2 -3 -6 0
-4 4 8 2 2 -3 -5 1
-3 5 8 3 3 -2 -4 2
-3 5 8 3 3 -2 -4 2
-4 4 8 3 3 -2 -4 2
-5 3 8 3 3 -2 -4 2
-6 2 8 3 3 -2 -4 2
-7 1 8 2 2 -3 -4 2
-7 2 8 2 2 -3 -4 2
-7 4 8 2 2 -2 -3 3
-7 5 9 2 2 -2 -3 3
-7 6 9 2 2 0 -2 4
-6 8 10 3 3 1 0 5
-6 8 10 3 3 1 0 5
-5 7 10 3 3 1 0 5
-4 7 10 3 3 1 0 5
-3 6 10 3 3 1 0 5
-2 5 10 4 4 1 0 4
-2 5 10 4 4 1 0 4
-3 5 9 3 4 1 0 4
-3 5 9 3 3 1 0 4
-4 5 8 2 3 1 0 4
-5 4 7 1 2 0 -2 3
-5 4 7 1 2 0 -2 3
-5 4 7 1 2 0 -2 3
-4 5 7 1 2 0 -2 3
-4 5 7 1 2 0 -2 3
-3 6 7 1 2 1 0 3
-3 6 7 1 2 1 0 3
-2 6 7 1 2 1 0 3
0 6 7 1 2 1 0 3
1 6 7 1 2 1 0 3
2 6 7 0 3 1 0 3
2 6 7 0 3 1 0 3
1 6 7 0 2 1 0 3
0 5 7 0 2 0 0 3
-2 5 7 0 1 0 0 3
-3 4 8 -2 0 -2 -2 2
-3 4 8 -2 0 -2 -2 2
-2 5 8 -2 0 -2 -2 2
-2 6 8 -2 -2 -2 -2 2
0 7 8 -2 -2 -2 -2 2
1 8 7 -2 -3 -3 0 3
1 6 7 -2 -3 -3 0 3
0 5 7 -3 -4 -4 -2 2
0 3 6 -4 -4 -4 -2 1
-2 1 6 -5 -5 -5 -3 0
-3 -2 5 -6 -6 -6 -4 -2
-3 0 5 -6 -6 -6 -4 -2
-3 1 5 -6 -6 -5 -4 -2
-3 2 6 -6 -5 -5 -4 -2
-3 3 6 -6 -5 -4 -4 -2
-4 4 7 -6 -4 -3 -4 -2
-4 4 7 -6 -4 -3 -4 -2
-4 3 7 -6 -5 -4 -4 -2
-4 3 7 -7 -6 -4 -4 0
-4 2 7 -7 -7 -5 -4 0
-4 1 7 -8 -8 -6 -4 1
-4 1 7 -8 -8 -6 -4 1
-4 1 6 -8 -8 -6 -4 0
-4 2 6 -8 -8 -6 -5 0
-4 2 5 -8 -8 -6 -5 -2
-4 3 4 -8 -8 -7 -6 -3
-4 3 4 -8 -8 -7 -6 -3
-4 3 4 -8 -8 -7 -6 -3
-3 3 4 -8 -8 -7 -6 -3
-3 3 4 -8 -8 -7 -6 -3
-2 4 4 -9 -9 -8 -6 -4
-2 4 4 -9 -9 -8 -6 -4
-3 3 4 -9 -9 -8 -6 -4
-3 3 4 -9 -9 -8 -6 -3
-4 2 4 -9 -9 -8 -6 -3
-5 1 3 -9 -9 -7 -5 -2
-5 1 3 -9 -9 -7 -5 -2
-5 1 3 -9 -9 -7 -5 -3
-5 1 3 -9 -9 -7 -5 -3
-5 1 3 -9 -9 -7 -5 -4
-5 2 4 -9 -9 -8 -5 -5
-4 2 4 -9 -9 -8 -5 -5
-3 3 4 -9 -9 -8 -5 -5
-2 3 4 -9 -9 -8 -5 -4
0 4 4 -9 -9 -8 -5 -4
1 5 3 -9 -10 -8 -4 -3
1 5 3 -9 -10 -8 -4 -3
0 4 3 -9 -10 -8 -4 -3
-2 3 2 -10 -10 -9 -4 -3
-3 2 2 -10 -10 -9 -4 -3
-4 1 1 -11 -11 -10 -5 -4
-4 1 1 -11 -11 -10 -5 -4
-4 1 2 -11 -11 -10 -5 -4
-3 0 2 -10 -11 -9 -4 -4
-3 0 3 -10 -11 -9 -4 -4
-2 -2 4 -9 -10 -8 -3 -4
-2 -2 4 -9 -10 -8 -3 -4
-2 0 4 -9 -10 -8 -3 -4
-2 1 3 -9 -11 -8 -3 -4
-2 2 3 -9 -11 -8 -3 -4
-2 3 2 -10 -12 -9 -4 -5
-2 3 2 -10 -12 -9 -4 -5
-2 2 2 -10 -12 -9 -4 -5
-3 2 2 -10 -12 -9 -3 -5
-3 1 2 -10 -12 -9 -3 -5
-4 0 3 -10 -11 -8 -2 -4
-4 0 3 -10 -11 -8 -2 -4
-4 0 3 -10 -11 -8 -2 -4
-4 1 2 -10 -11 -8 -2 -4
-4 1 2 -10 -11 -8 -2 -4
-3 2 1 -9 -12 -9 -3 -5
-3 2 1 -9 -12 -9 -3 -5
-3 2 1 -9 -12 -9 -3 -5
-3 2 2 -9 -12 -9 -3 -5
-3 2 2 -9 -12 -9 -3 -5
-3 3 3 -10 -11 -9 -2 -4
-3 3 3 -10 -11 -9 -2 -4
-4 2 3 -10 -12 -9 -3 -4
-4 1 3 -11 -12 -9 -4 -5
-5 0 3 -11 -13 -9 -5 -5
-6 -2 2 -12 -14 -10 -6 -6
-6 -2 2 -12 -14 -10 -5 -6
-6 -2 2 -12 -14 -10 -4 -6
-6 0 2 -12 -14 -10 -3 -6
-6 0 2 -12 -14 -10 -2 -6
-5 1 3 -11 -14 -9 0 -5
-5 1 3 -11 -14 -9 0 -5
-4 2 3 -11 -14 -9 0 -5
-3 2 3 -10 -13 -9 0 -4
-2 3 3 -10 -13 -9 0 -4
0 4 3 -9 -12 -8 0 -3
0 4 3 -9 -12 -8 0 -3
0 4 3 -10 -12 -8 0 -3
-2 3 3 -10 -12 -8 0 -3
-2 3 3 -11 -12 -8 0 -3
-3 2 3 -12 -12 -9 -2 -4
-3 2 3 -12 -12 -9 -2 -4
-3 1 3 -12 -12 -9 -2 -5
-4 1 2 -12 -13 -10 -2 -5
-4 0 2 -12 -13 -10 -2 -6
-5 -2 1 -12 -14 -11 -3 -7
-5 -2 1 -12 -14 -11 -3 -7
-5 -2 1 -11 -14 -10 -3 -6
-5 -2 2 -11 -14 -10 -3 -6
-5 -2 2 -10 -14 -9 -3 -5
-5 0 3 -9 -13 -8 -2 -4
-5 0 3 -9 -13 -8 -2 -4
-4 1 3 -9 -13 -8 -2 -4
-3 2 3 -9 -13 -8 -2 -4
-2 3 3 -9 -13 -8 -2 -4
0 4 4 -10 -13 -8 0 -3
0 4 4 -10 -13 -8 0 -3
-2 4 4 -10 -13 -8 0 -3
-2 3 4 -10 -13 -8 0 -4
-3 3 4 -10 -13 -8 0 -4
-4 2 3 -10 -13 -9 -2 -5
-4 3 3 -10 -13 -9 -2 -5
-4 5 3 -9 -13 -9 -2 -5
-4 7 3 -8 -12 -8 -2 -5
-4 9 3 -7 -12 -8 -2 -5
-3 11 4 -6 -11 -7 0 -4
-2 13 4 -6 -10 -6 1 -4
1 15 5 -5 -9 -5 2 -3
2 17 6 -5 -8 -3 3 -3
4 19 7 -4 -7 -2 4 -2
6 21 8 -3 -5 1 6 0
6 21 8 -3 -5 1 6 1
6 20 7 -3 -5 1 7 2
6 19 6 -2 -5 2 8 3
6 18 5 -2 -5 2 9 4
5 17 4 0 -4 3 10 6
6 17 3 0 -3 4 10 6
7 18 2 0 -2 5 11 7
9 19 0 1 0 6 11 7
10 20 -2 1 1 7 12 8
12 21 -4 2 3 8 13 9
12 21 -4 2 3 8 13 9
11 20 -5 1 2 7 13 9
10 19 -5 0 1 7 13 8
9 18 -6 -2 0 6 13 8
8 17 -7 -3 -2 5 13 7
8 16 -7 -3 -2 5 12 7
8 15 -6 -3 -3 4 11 7
7 14 -5 -3 -3 3 10 6
7 13 -4 -3 -4 2 9 6
6 12 -3 -3 -5 1 7 5
5 10 -3 -4 -6 0 6 4
3 8 -2 -5 -8 -2 5 2
2 5 -2 -6 -9 -4 3 0
0 3 0 -7 -11 -5 2 -3
-3 0 1 -9 -13 -7 0 -5
-3 0 1 -9 -13 -7 0 -5
-3 0 1 -9 -13 -7 0 -5
-3 0 2 -8 -13 -7 0 -5
-3 0 2 -8 -13 -7 0 -5
-3 1 3 -7 -12 -6 0 -6
-3 1 3 -8 -13 -7 -2 -6
-3 1 3 -9 -14 -9 -3 -7
-3 0 3 -10 -16 -10 -4 -7
-3 0 3 -11 -17 -12 -5 -8
-4 -2 4 -12 -19 -14 -7 -9
-4 -2 4 -12 -19 -14 -7 -9
-4 -2 4 -12 -19 -14 -7 -9
-5 -3 3 -13 -19 -14 -7 -10
-5 -3 3 -13 -19 -14 -7 -10
-6 -4 2 -14 -19 -14 -7 -11
-6 -4 2 -14 -19 -14 -7 -11
-6 -4 2 -14 -19 -14 -7 -11
-6 -4 2 -14 -19 -14 -7 -11
-6 -4 2 -14 -19 -14 -7 -11
-6 -4 2 -14 -19 -14 -7 -11
-5 -3 3 -13 -20 -13 -7 -10
-5 -3 3 -13 -20 -14 -7 -11
-5 -3 3 -13 -20 -14 -7 -11
-5 -3 3 -13 -20 -15 -7 -12
-5 -3 3 -13 -20 -15 -7 -12
-6 -4 2 -14 -20 -16 -8 -13
-6 -5 2 -14 -21 -16 -8 -13
-7 -5 1 -14 -21 -16 -8 -13
-7 -6 1 -14 -22 -16 -8 -13
-7 -6 1 -14 -22 -16 -8 -13
-8 -7 0 -15 -23 -17 -9 -13
-8 -6 0 -15 -23 -17 -9 -13
-7 -6 0 -14 -22 -16 -8 -13
-7 -5 0 -14 -22 -16 -8 -13
-7 -5 0 -14 -22 -16 -8 -13
-6 -4 0 -13 -21 -15 -7 -13
-6 -4 0 -13 -21 -15 -7 -13
-7 -4 0 -13 -21 -15 -7 -13
-7 -4 0 -13 -21 -15 -7 -13
-7 -4 0 -13 -21 -15 -7 -13
-8 -5 0 -14 -22 -15 -6 -13
-8 -5 0 -14 -22 -15 -6 -13
-8 -5 0 -14 -22 -15 -6 -13
-8 -5 0 -14 -22 -15 -6 -13
-8 -5 0 -14 -22 -15 -6 -13
-8 -6 1 -13 -21 -15 -7 -12
-8 -6 0 -13 -21 -15 -7 -12
-8 -6 0 -14 -22 -15 -7 -13
-8 -6 -2 -14 -22 -15 -7 -13
-8 -6 -2 -14 -22 -15 -7 -13
-9 -5 -3 -15 -23 -16 -8 -14
-9 -4 -2 -15 -23 -16 -8 -14
-8 -4 -2 -15 -23 -16 -8 -14
-8 -3 0 -15 -23 -16 -8 -14
-8 -3 0 -15 -23 -16 -8 -14
-7 -2 1 -14 -23 -15 -8 -13
-6 0 1 -14 -23 -15 -8 -13
-6 0 1 -14 -23 -14 -7 -13
-5 1 1 -14 -23 -14 -7 -13
-5 1 1 -14 -23 -14 -7 -13
-4 2 0 -13 -22 -13 -6 -12
-5 1 0 -13 -22 -13 -6 -12
-6 1 0 -13 -21 -13 -6 -13
-7 0 0 -13 -21 -13 -6 -13
-7 0 0 -13 -21 -13 -6 -13
-8 0 1 -11 -20 -13 -7 -14
-8 2 3 -9 -20 -14 -8 -15
-8 3 5 -8 -20 -15 -9 -15
-8 5 7 -6 -20 -16 -10 -16
-8 6 9 -5 -20 -16 -11 -16
-8 4 17 7 -17 -21 -18 -23
-10 1 24 17 -14 -26 -25 -29
-12 -3 31 28 -11 -31 -32 -35
-14 -6 39 38 -8 -36 -39 -43
-15 -9 47 50 -6 -41 -47 -49
-6 -2 46 63 12 -19 -24 -31
5 8 43 76 30 8 2 -11
16 16 40 90 49 33 27 9
26 25 37 104 67 59 52 29
37 34 35 117 86 85 77 50
64 58 8 113 114 148 140 98
91 81 -22 107 145 214 204 148
117 105 -51 101 175 278 269 198
145 130 -80 95 205 344 334 248
172 153 -109 89 235 409 398 299
168 164 -120 71 245 427 413 314
160 175 -131 53 255 442 426 328
153 186 -142 34 264 456 438 342
146 196 -152 16 273 472 451 355
139 206 -162 -2 282 487 464 369
122 187 -151 -4 258 427 401 323
105 165 -137 -5 229 360 335 273
88 143 -122 -6 200 294 267 223
70 120 -108 -7 173 227 199 173
53 99 -94 -7 144 161 132 122
43 86 -79 -8 118 132 108 100
34 73 -65 -9 93 104 88 80
25 61 -51 -10 67 77 67 61
17 49 -36 -11 40 51 48 40
8 35 -22 -11 15 23 27 21
6 32 -18 -10 13 20 23 17
5 28 -14 -7 13 19 21 14
3 25 -10 -4 14 17 18 11
2 22 -7 0 14 16 16 8
1 19 -3 3 14 15 14 6
-2 16 -2 4 11 10 10 2
-4 13 0 3 7 5 5 -2
-5 10 1 2 3 0 1 -6
-7 8 2 1 -3 -6 -4 -10
-8 5 3 1 -7 -11 -8 -13
-9 3 5 0 -9 -13 -10 -14
-10 2 6 -2 -10 -14 -11 -15
-10 1 7 -2 -11 -16 -12 -16
-11 0 8 -3 -12 -17 -13 -17
-11 -2 9 -3 -13 -18 -14 -18
-12 -3 10 -4 -14 -19 -16 -20
-12 -4 10 -4 -15 -20 -17 -21
-13 -5 10 -4 -16 -21 -19 -23
-13 -6 10 -4 -17 -22 -20 -24
-13 -6 10 -4 -18 -23 -21 -25
-14 -7 10 -3 -19 -24 -22 -25
-13 -6 10 -3 -19 -24 -22 -24
-12 -6 11 -3 -19 -24 -22 -23
-11 -5 11 -3 -19 -24 -22 -22
-11 -5 11 -3 -19 -24 -22 -21
-10 -5 12 -3 -20 -25 -22 -21
-11 -6 12 -3 -21 -26 -23 -23
-12 -8 12 -3 -21 -27 -24 -24
-13 -9 12 -3 -22 -28 -25 -26
-14 -10 12 -3 -22 -29 -26 -27
-15 -11 12 -3 -23 -30 -27 -28
-15 -11 12 -3 -23 -30 -27 -28
-16 -11 12 -3 -23 -30 -27 -27
-16 -11 12 -3 -23 -30 -27 -27
-16 -11 12 -3 -23 -30 -27 -27
-17 -11 11 -3 -23 -29 -26 -26
-17 -11 11 -3 -24 -30 -26 -26
-18 -12 10 -3 -24 -31 -27 -26
-18 -12 10 -3 -25 -32 -27 -26
-18 -12 10 -3 -25 -32 -27 -26
-18 -13 9 -2 -26 -33 -28 -27
-17 -12 10 -2 -25 -32 -28 -27
-16 -11 10 -2 -25 -31 -28 -27
-15 -10 11 -2 -24 -30 -28 -27
-14 -10 11 -2 -24 -30 -28 -27
-13 -9 12 -2 -23 -29 -27 -27
-14 -10 12 -2 -24 -30 -28 -28
-15 -10 12 -2 -24 -31 -29 -29
-16 -11 12 -2 -25 -32 -30 -30
-17 -11 12 -2 -25 -33 -31 -31
-18 -12 12 -2 -26 -34 -32 -32
-18 -12 12 -2 -26 -34 -32 -32
-17 -12 13 -2 -26 -34 -32 -32
-17 -12 13 -2 -26 -34 -32 -32
-17 -12 13 -2 -26 -34 -32 -32
-16 -12 14 -2 -27 -34 -31 -31
-16 -13 13 -2 -27 -35 -32 -32
-17 -13 13 -2 -28 -35 -33 -33
-17 -14 12 -2 -28 -36 -34 -34
-17 -14 12 -2 -28 -36 -34 -34
-18 -15 11 -2 -29 -37 -35 -35
-18 -15 11 -2 -29 -37 -35 -35
-18 -15 12 -2 -28 -37 -35 -35
-18 -15 12 -2 -28 -37 -35 -35
-18 -15 12 -2 -28 -37 -35 -35
-17 -14 13 -2 -27 -36 -35 -34
-17 -15 13 -2 -27 -36 -35 -34
-17 -16 13 0 -28 -36 -36 -35
-17 -17 13 0 -28 -36 -36 -35
-17 -17 13 0 -28 -36 -36 -35
-18 -18 12 1 -29 -37 -37 -36
-18 -18 12 1 -29 -37 -37 -36
-19 -18 12 1 -29 -37 -36 -36
-19 -18 12 1 -29 -37 -36 -36
-19 -18 12 1 -29 -37 -36 -36
-20 -18 12 1 -28 -36 -35 -35
-20 -18 12 2 -27 -36 -35 -35
-20 -18 12 3 -27 -36 -36 -35
-20 -18 12 4 -26 -36 -36 -35
-20 -18 12 5 -26 -36 -36 -35
-19 -18 12 6 -25 -36 -37 -36
-19 -18 12 5 -25 -36 -37 -36
-20 -19 11 5 -26 -36 -37 -36
-20 -19 11 4 -26 -36 -37 -36
-20 -19 11 4 -26 -36 -37 -36
-21 -20 10 3 -27 -36 -37 -37
-20 -19 10 4 -27 -36 -37 -37
-20 -18 10 5 -26 -35 -36 -37
-19 -17 10 6 -26 -35 -36 -37
-19 -17 10 6 -26 -35 -36 -37
-18 -16 11 7 -25 -33 -35 -36
-18 -15 11 8 -24 -32 -34 -35
-17 -15 12 8 -23 -31 -33 -34
-17 -14 12 9 -22 -30 -32 -33
-17 -14 12 9 -21 -29 -31 -32
-16 -13 13 10 -20 -28 -30 -31
-16 -13 13 11 -20 -28 -30 -31
-16 -13 13 12 -19 -28 -30 -31
-16 -13 13 13 -19 -28 -30 -31
-16 -13 13 14 -19 -28 -30 -31
-15 -14 12 15 -18 -28 -29 -31
-15 -13 11 15 -18 -26 -28 -30
-14 -13 10 15 -17 -24 -27 -29
-14 -12 9 15 -17 -23 -25 -28
-14 -12 9 15 -17 -21 -24 -27
-13 -11 8 16 -15 -19 -23 -26
-12 -11 8 17 -14 -18 -22 -25
-12 -10 8 18 -12 -17 -21 -25
-11 -10 8 19 -10 -15 -20 -24
-11 -10 8 20 -9 -14 -20 -24
-8 -7 7 21 -7 -12 -17 -21
-6 -5 7 22 -5 -9 -14 -19
-4 -3 7 23 -3 -7 -12 -16
0 1 7 24 0 -5 -9 -14
2 3 7 25 2 -3 -6 -11
3 3 7 26 3 -2 -5 -10
2 2 7 27 4 0 -4 -9
1 1 6 27 5 1 -3 -8
0 0 6 28 6 2 -2 -7
-2 -2 6 28 7 3 0 -7
-3 -2 5 29 9 5 2 -5
-3 0 4 29 10 7 4 -4
-2 1 3 29 12 9 6 -2
-2 3 2 29 14 11 8 1
-2 4 1 29 15 13 10 2
1 5 0 30 16 14 11 4
2 6 0 32 18 15 13 5
4 6 -2 34 19 16 14 6
6 7 -2 35 20 17 15 8
7 7 -2 37 21 18 16 9
8 8 -3 38 23 20 17 10
8 8 -4 37 24 21 19 12
8 9 -5 37 25 23 20 13
8 9 -6 36 27 25 21 14
8 9 -7 36 28 26 22 15
8 10 -8 35 29 27 23 16
9 11 -8 36 30 28 24 17
10 12 -8 36 30 29 24 17
11 13 -8 37 31 30 25 18
12 14 -8 37 31 30 25 18
13 15 -7 38 32 31 26 19
13 14 -7 37 32 31 27 20
12 14 -7 36 33 32 28 20
12 13 -7 35 33 32 29 21
12 13 -7 35 33 32 29 21
11 12 -8 34 34 33 30 22
11 12 -9 33 34 33 30 22
11 12 -9 33 33 33 30 22
11 12 -10 32 33 33 30 22
11 12 -10 32 33 33 30 22
10 12 -11 31 32 32 29 22
10 13 -11 30 31 31 29 22
11 13 -11 29 30 30 28 21
11 14 -11 28 29 29 28 21
11 14 -11 27 28 29 28 21
12 14 -10 25 26 27 26 19
11 12 -10 24 24 26 24 18
10 10 -10 22 22 24 22 17
9 8 -10 20 21 22 21 15
9 6 -10 19 19 21 19 14
8 5 -10 17 17 19 18 13
7 5 -10 15 16 18 16 13
6 6 -10 13 15 16 15 12
5 6 -10 11 13 14 14 12
5 6 -10 9 12 13 13 12
4 7 -9 8 10 11 11 10
3 6 -9 7 9 10 10 9
3 6 -9 7 7 8 8 7
2 5 -9 6 5 6 6 5
2 5 -9 6 4 5 5 4
1 4 -8 5 3 4 4 3
1 4 -8 4 2 4 3 2
1 4 -8 3 2 3 2 2
1 4 -8 2 1 3 1 1
1 4 -8 2 1 3 1 1
0 4 -7 1 0 2 0 0
0 4 -7 1 0 1 0 0
0 4 -7 1 -2 1 -2 -2
0 4 -7 1 -2 0 -2 -2
0 4 -7 1 -2 0 -2 -2
-2 3 -6 -2 -3 -3 -4 -3
-4 1 -6 -3 -4 -4 -5 -4
-5 0 -7 -4 -5 -5 -7 -5
-6 -2 -7 -6 -6 -7 -9 -6
-7 -3 -7 -7 -7 -8 -10 -6
-8 -4 -8 -7 -8 -9 -11 -7
-7 -3 -7 -6 -8 -8 -10 -6
-6 -2 -7 -5 -7 -7 -9 -6
-5 0 -6 -3 -7 -6 -8 -5
-4 0 -6 -2 -7 -6 -8 -5
-3 1 -5 0 -6 -5 -7 -4
-4 0 -5 -2 -6 -5 -7 -4
-5 -2 -6 -3 -7 -5 -8 -5
-6 -3 -6 -4 -7 -5 -8 -5
-6 -4 -6 -5 -7 -5 -8 -5
-7 -5 -7 -6 -8 -6 -9 -6
-6 -4 -7 -5 -8 -6 -9 -6
-5 -3 -7 -5 -7 -7 -10 -6
-4 -2 -7 -4 -7 -7 -10 -6
-4 -2 -7 -4 -7 -7 -10 -6
-3 0 -6 -3 -6 -8 -11 -7
-4 0 -6 -3 -6 -8 -11 -7
-5 -2 -6 -4 -7 -8 -12 -8
-6 -2 -6 -4 -7 -8 -12 -8
-6 -2 -6 -4 -7 -8 -12 -8
-7 -3 -6 -5 -8 -9 -13 -9
-7 -3 -6 -4 -8 -9 -13 -9
-7 -3 -6 -3 -8 -10 -14 -10
-7 -3 -6 -2 -8 -10 -14 -10
-7 -3 -6 -2 -8 -10 -14 -10
-7 -4 -6 0 -8 -11 -15 -11
-7 -4 -6 0 -8 -11 -15 -11
-7 -3 -6 0 -8 -10 -14 -10
-7 -3 -6 0 -8 -10 -14 -10
-7 -3 -6 0 -8 -10 -14 -10
-6 -2 -6 0 -7 -9 -13 -9
-6 -2 -6 0 -7 -9 -13 -9
-6 -3 -6 0 -7 -10 -14 -9
-6 -3 -6 0 -7 -10 -14 -9
-6 -3 -6 0 -7 -10 -14 -9
-7 -4 -5 1 -8 -11 -15 -10
-6 -3 -4 1 -8 -10 -15 -10
-6 -3 -4 1 -8 -10 -14 -9
-5 -2 -3 1 -8 -9 -14 -9
-5 -2 -3 1 -8 -9 -14 -9
-5 0 -2 0 -7 -8 -13 -8
-6 -3 -4 -2 -8 -10 -14 -9
-8 -4 -5 -2 -9 -11 -15 -9
-9 -5 -6 -3 -9 -12 -15 -10
-11 -6 -7 -3 -10 -13 -16 -10
-11 -6 -8 -4 -11 -14 -17 -11
-10 -5 -8 -4 -10 -13 -16 -11
-8 -3 -7 -4 -9 -12 -15 -10
-7 -2 -7 -4 -9 -11 -15 -10
-5 1 -7 -4 -8 -10 -14 -10
-4 2 -6 -3 -7 -9 -13 -9
-4 1 -6 -3 -7 -9 -13 -9
-5 1 -5 -3 -7 -9 -13 -9
-5 0 -5 -3 -7 -9 -13 -9
-5 0 -5 -3 -7 -9 -13 -9
-6 -2 -4 -2 -8 -10 -12 -9
-6 -2 -4 -3 -8 -10 -12 -9
-6 -2 -5 -3 -8 -10 -11 -9
-6 -2 -5 -4 -8 -10 -11 -9
-6 -2 -5 -4 -8 -10 -11 -9
-7 -2 -6 -5 -7 -9 -10 -8
-7 -4 -6 -5 -8 -9 -10 -9
-8 -5 -7 -5 -8 -10 -11 -9
-8 -6 -7 -5 -9 -10 -11 -10
-8 -7 -7 -5 -9 -10 -11 -10
-9 -8 -8 -5 -10 -11 -12 -11
-9 -7 -8 -5 -9 -11 -11 -11
-8 -6 -7 -4 -9 -11 -10 -10
-8 -5 -7 -4 -8 -11 -10 -10
-8 -4 -7 -4 -8 -11 -9 -10
-7 -3 -6 -3 -7 -10 -8 -9
-7 -3 -6 -3 -7 -10 -9 -9
-7 -3 -6 -4 -8 -10 -9 -9
-7 -3 -6 -4 -8 -10 -10 -9
-7 -3 -6 -4 -8 -10 -10 -9
-7 -3 -7 -5 -9 -10 -11 -9
-7 -3 -7 -5 -9 -10 -10 -9
-6 -3 -8 -6 -9 -10 -9 -8
-6 -3 -8 -6 -9 -10 -8 -8
-6 -3 -8 -6 -9 -10 -7 -8
-5 -2 -9 -7 -9 -9 -6 -7
-5 -3 -9 -7 -10 -10 -7 -8
-5 -3 -9 -7 -11 -11 -7 -8
-5 -4 -9 -7 -11 -11 -8 -9
-5 -4 -9 -7 -12 -12 -8 -9
-6 -5 -9 -8 -13 -13 -9 -10
-6 -5 -9 -8 -13 -13 -9 -10
-6 -5 -9 -9 -12 -13 -8 -9
-6 -5 -9 -9 -12 -13 -8 -9
-6 -5 -9 -9 -12 -13 -8 -9
-5 -4 -10 -10 -11 -12 -7 -8
-5 -5 -10 -10 -12 -13 -8 -9
-5 -6 -10 -11 -13 -13 -9 -10
-5 -6 -10 -11 -13 -14 -10 -10
-5 -7 -10 -11 -14 -14 -11 -11
-6 -8 -11 -12 -15 -15 -12 -12
-6 -8 -11 -12 -15 -15 -11 -12
-7 -8 -11 -13 -15 -15 -11 -11
-7 -8 -11 -13 -15 -15 -10 -11
-7 -8 -11 -13 -15 -15 -10 -11
-8 -9 -12 -14 -15 -15 -9 -10
-7 -9 -12 -14 -15 -15 -10 -10
-7 -9 -12 -14 -15 -16 -10 -11
-6 -9 -12 -14 -15 -16 -11 -11
-6 -9 -12 -14 -15 -16 -11 -11
-5 -9 -12 -14 -16 -17 -12 -12
-7 -10 -12 -15 -16 -17 -12 -12
-8 -10 -13 -16 -17 -18 -12 -12
-9 -11 -13 -16 -17 -18 -12 -12
-10 -11 -13 -17 -17 -18 -12 -12
-11 -12 -14 -18 -18 -19 -13 -13
-10 -12 -14 -17 -18 -19 -13 -13
-9 -11 -14 -17 -18 -19 -14 -13
-8 -11 -14 -16 -18 -19 -14 -13
-7 -11 -14 -16 -18 -19 -14 -13
-6 -10 -14 -15 -19 -18 -15 -14
-7 -11 -14 -16 -19 -19 -15 -14
-8 -11 -14 -17 -19 -19 -15 -14
-9 -12 -14 -18 -19 -20 -15 -14
-10 -12 -14 -19 -19 -20 -15 -14
-11 -13 -14 -20 -20 -21 -15 -13
-10 -12 -13 -19 -20 -21 -15 -13
-9 -11 -11 -18 -20 -20 -14 -13
-8 -11 -10 -18 -20 -20 -14 -13
-7 -10 -8 -17 -20 -20 -14 -13
-6 -9 -7 -16 -19 -19 -13 -13
-6 -9 -7 -16 -19 -19 -13 -13
-6 -9 -7 -17 -19 -19 -13 -13
-6 -9 -7 -17 -19 -19 -13 -13
-6 -9 -7 -17 -19 -19 -13 -13
-6 -10 -6 -18 -20 -18 -14 -13
-6 -10 -6 -18 -20 -18 -14 -13
-6 -10 -6 -18 -20 -18 -14 -13
-6 -10 -6 -18 -20 -18 -14 -13
-6 -10 -6 -18 -20 -18 -14 -13
-6 -10 -6 -17 -19 -19 -13 -13
-6 -10 -6 -18 -19 -19 -13 -13
-7 -11 -6 -18 -19 -20 -14 -13
-7 -11 -6 -19 -19 -20 -14 -13
-7 -11 -6 -19 -19 -20 -14 -13
-8 -12 -5 -20 -20 -21 -15 -13
-8 -12 -4 -20 -20 -21 -15 -13
-8 -12 -4 -20 -21 -21 -15 -13
-8 -12 -3 -20 -21 -21 -15 -13
-8 -12 -3 -20 -21 -21 -15 -13
-7 -11 -2 -20 -22 -22 -16 -13
-7 -11 -2 -20 -22 -22 -16 -13
-7 -12 -3 -20 -22 -22 -16 -13
-7 -12 -3 -20 -22 -22 -16 -13
-7 -12 -3 -20 -22 -22 -16 -13
-8 -13 -4 -21 -22 -21 -15 -14
-8 -13 -4 -21 -22 -21 -15 -14
-8 -13 -3 -21 -22 -22 -15 -14
-8 -13 -2 -21 -22 -22 -15 -14
-8 -13 -2 -21 -22 -22 -15 -14
-9 -13 0 -21 -21 -23 -16 -14
-9 -13 0 -21 -21 -23 -16 -14
-8 -13 1 -21 -21 -23 -16 -14
-8 -13 1 -21 -21 -23 -16 -14
-8 -13 1 -21 -21 -23 -16 -14
-7 -12 2 -21 -21 -22 -15 -13
-7 -12 2 -21 -21 -22 -15 -13
-7 -12 2 -21 -21 -22 -15 -13
-7 -12 2 -21 -21 -22 -15 -13
-7 -12 2 -21 -21 -22 -15 -13
-8 -13 2 -20 -21 -22 -16 -14
-8 -13 2 -20 -21 -22 -16 -14
-8 -13 2 -21 -21 -22 -16 -14
-8 -13 2 -21 -21 -22 -16 -14
-8 -13 2 -21 -21 -22 -16 -14
-8 -14 3 -22 -21 -22 -16 -14
-8 -14 3 -22 -21 -22 -16 -14
-8 -14 3 -22 -21 -22 -16 -14
-8 -14 3 -22 -21 -22 -16 -14
-8 -14 3 -22 -21 -22 -16 -14
-7 -14 4 -21 -21 -23 -16 -14
-7 -14 4 -21 -21 -23 -16 -14
-7 -13 4 -21 -21 -22 -16 -14
-7 -13 4 -21 -21 -22 -16 -14
-7 -13 4 -21 -21 -22 -16 -14
-6 -12 3 -21 -21 -21 -16 -14
-6 -12 3 -21 -21 -21 -16 -14
-5 -11 3 -20 -20 -21 -15 -14
-5 -10 3 -20 -20 -21 -15 -14
-5 -10 3 -20 -20 -21 -15 -14
-4 -9 4 -19 -19 -20 -14 -13
-4 -10 4 -19 -19 -20 -14 -13
-5 -11 4 -20 -20 -20 -14 -13
-6 -11 4 -20 -20 -20 -14 -13
-6 -12 4 -20 -20 -20 -14 -13
-7 -13 4 -21 -21 -20 -15 -13
-7 -13 4 -21 -21 -20 -15 -13
-7 -13 4 -21 -21 -20 -15 -14
-7 -13 4 -21 -21 -20 -15 -14
-7 -13 4 -21 -21 -20 -15 -14
-7 -12 3 -20 -21 -21 -16 -15
-7 -10 3 -20 -20 -20 -15 -14
-6 -9 4 -19 -19 -19 -14 -13
-5 -7 5 -18 -18 -19 -14 -13
-5 -6 5 -18 -17 -18 -13 -12
-4 -4 6 -17 -16 -17 -12 -11
-3 -2 7 -16 -15 -16 -11 -10
-2 1 8 -15 -13 -14 -10 -8
-2 3 8 -14 -12 -13 -10 -7
0 6 9 -13 -11 -12 -9 -6
1 7 10 -12 -10 -11 -8 -5
1 7 9 -12 -10 -11 -8 -5
1 7 8 -12 -10 -10 -7 -4
1 7 8 -12 -10 -10 -6 -4
1 7 7 -12 -10 -10 -6 -4
0 6 6 -12 -10 -9 -5 -3
2 7 5 -11 -9 -7 -4 -2
4 8 4 -9 -8 -6 -3 1
5 8 4 -7 -8 -4 -2 2
7 9 3 -5 -7 -3 0 3
8 10 2 -4 -6 -2 1 4
8 9 0 -6 -6 -2 1 4
7 8 -2 -7 -6 -3 1 3
6 8 -4 -9 -6 -3 1 3
6 7 -5 -10 -6 -3 1 3
5 6 -6 -11 -6 -4 1 2
6 6 -6 -11 -6 -4 1 2
7 7 -5 -11 -6 -4 1 2
8 7 -5 -11 -6 -4 1 2
9 7 -5 -11 -6 -4 1 2
10 7 -4 -10 -7 -4 1 1
9 6 -4 -10 -8 -5 -2 0
8 4 -3 -11 -10 -7 -3 -2
7 2 -2 -12 -11 -8 -5 -2
6 0 -2 -12 -12 -9 -6 -3
4 -2 0 -13 -13 -10 -7 -4
3 -4 0 -13 -13 -10 -7 -4
1 -5 1 -14 -13 -11 -8 -5
-2 -7 1 -14 -13 -12 -9 -5
-4 -8 1 -14 -13 -12 -9 -5
-5 -9 2 -15 -14 -13 -10 -6
-5 -9 2 -16 -15 -13 -10 -7
-5 -9 2 -17 -16 -14 -11 -8
-5 -9 2 -17 -17 -15 -12 -9
-5 -9 2 -18 -18 -15 -12 -10
-4 -10 2 -19 -19 -16 -13 -11
-4 -10 2 -19 -19 -17 -14 -11
-5 -11 1 -20 -20 -18 -15 -12
-6 -12 1 -20 -21 -18 -15 -12
-6 -12 1 -20 -21 -19 -16 -12
-7 -13 0 -21 -22 -20 -17 -13
-7 -13 0 -21 -22 -20 -17 -13
-6 -13 0 -21 -22 -20 -17 -13
-6 -13 0 -21 -22 -20 -17 -13
-6 -13 0 -21 -22 -20 -17 -13
-5 -14 0 -21 -23 -21 -18 -13
-5 -14 0 -21 -23 -21 -18 -13
-5 -13 1 -20 -23 -21 -18 -13
-5 -13 2 -20 -23 -21 -18 -13
-5 -13 2 -20 -23 -21 -18 -13
-5 -12 3 -19 -22 -20 -17 -13
-6 -12 3 -19 -22 -20 -17 -13
-7 -13 2 -20 -22 -20 -17 -13
-8 -14 1 -20 -22 -20 -17 -13
-9 -14 1 -20 -22 -20 -17 -13
-10 -15 0 -21 -23 -20 -18 -13
-10 -15 0 -21 -23 -20 -18 -13
-9 -14 1 -20 -23 -20 -18 -13
-8 -13 1 -20 -23 -20 -18 -13
-8 -13 1 -20 -23 -20 -18 -13
-7 -12 2 -19 -22 -21 -17 -14
-7 -10 2 -19 -22 -21 -17 -14
-6 -9 2 -19 -22 -20 -16 -13
-5 -8 2 -19 -22 -20 -15 -13
-5 -6 2 -19 -22 -20 -15 -13
-4 -5 2 -19 -21 -19 -14 -12
-4 -6 2 -19 -21 -19 -14 -12
-5 -7 2 -19 -21 -19 -15 -12
-5 -8 2 -19 -21 -19 -15 -12
-5 -9 2 -19 -21 -19 -15 -12
-6 -10 2 -19 -21 -19 -16 -12
-6 -10 2 -19 -21 -19 -16 -12
-7 -11 1 -20 -22 -19 -17 -13
-8 -11 1 -20 -22 -19 -18 -13
-8 -11 1 -20 -22 -19 -18 -13
-9 -12 0 -21 -23 -20 -19 -14
-7 -10 0 -21 -23 -20 -18 -14
-6 -9 0 -20 -22 -19 -17 -13
-5 -8 0 -20 -21 -19 -17 -12
-3 -6 0 -20 -21 -19 -16 -12
-2 -5 1 -19 -20 -18 -15 -11
-2 -5 1 -19 -20 -18 -15 -11
-2 -5 1 -19 -20 -18 -15 -11
-2 -5 1 -19 -20 -18 -15 -11
-2 -5 1 -19 -20 -18 -15 -11
-3 -5 1 -18 -19 -17 -14 -11
-3 -5 1 -18 -19 -17 -14 -11
-4 -5 2 -18 -19 -17 -14 -11
-4 -5 2 -18 -19 -17 -14 -11
-4 -5 2 -18 -19 -17 -14 -11
-5 -6 3 -17 -20 -17 -15 -11
-5 -6 3 -17 -20 -17 -15 -11
-5 -5 3 -17 -20 -17 -14 -11
-5 -4 3 -17 -20 -17 -14 -11
-5 -4 3 -17 -20 -17 -14 -11
-5 -3 5 -14 -19 -20 -17 -13
-9 -5 11 -9 -19 -26 -24 -20
-12 -6 17 -3 -18 -32 -32 -26
-16 -7 23 3 -18 -38 -39 -33
-19 -9 30 9 -18 -45 -48 -39
-18 -9 35 21 -10 -43 -47 -40
-13 -7 40 40 4 -31 -37 -33
-7 -4 45 59 17 -20 -28 -26
-2 -2 50 78 30 -9 -18 -19
5 1 54 97 44 3 -9 -12
20 12 46 105 63 34 23 13
44 29 23 103 86 85 72 52
68 48 2 101 108 134 122 92
92 65 -21 99 132 184 173 131
116 82 -43 97 154 233 223 171
133 105 -64 88 181 287 275 212
142 130 -86 73 210 346 330 256
152 155 -107 59 238 404 386 300
161 181 -128 44 267 463 440 344
172 206 -149 29 296 521 495 387
169 210 -157 19 299 520 493 390
152 191 -151 13 277 464 438 353
136 174 -145 6 256 408 383 316
118 155 -140 0 234 353 326 279
102 137 -134 -7 213 297 271 243
87 119 -121 -11 187 248 224 206
71 104 -104 -12 158 205 184 172
57 89 -86 -13 130 163 145 137
42 72 -68 -14 102 120 105 101
26 57 -50 -15 73 77 65 66
18 46 -37 -15 55 53 43 46
15 39 -30 -12 47 45 36 39
12 33 -23 -9 38 36 30 32
9 27 -16 -7 30 28 24 26
6 20 -9 -4 21 20 18 20
3 16 -5 -2 16 14 13 14
1 13 -4 -3 13 9 9 10
-3 9 -2 -4 10 4 4 6
-6 6 0 -4 7 0 -2 2
-8 3 1 -5 4 -6 -6 -3
-10 1 2 -6 2 -9 -9 -6
-10 1 3 -6 0 -11 -11 -7
-9 0 4 -6 -3 -13 -13 -9
-8 0 5 -6 -4 -14 -14 -10
-8 0 6 -6 -6 -16 -16 -11
-7 -2 7 -7 -7 -17 -17 -12
-7 -3 8 -7 -9 -19 -19 -14
-8 -4 9 -7 -11 -21 -20 -15
-9 -5 9 -7 -13 -22 -21 -16
-9 -6 10 -7 -15 -24 -23 -18
-10 -7 11 -7 -16 -25 -24 -19
-10 -8 11 -7 -16 -25 -24 -19
-11 -9 12 -7 -16 -25 -25 -20
-11 -9 12 -7 -16 -25 -25 -20
-11 -10 12 -7 -16 -25 -25 -20
-12 -11 13 -6 -17 -26 -26 -21
-12 -11 13 -6 -17 -27 -26 -21
-12 -11 13 -6 -18 -27 -26 -21
-12 -11 13 -6 -19 -28 -26 -21
-12 -11 13 -6 -19 -29 -26 -21
-13 -10 13 -7 -20 -30 -26 -21
-13 -10 13 -7 -20 -30 -26 -21
-12 -10 14 -7 -20 -30 -26 -22
-11 -10 15 -6 -19 -30 -27 -23
-11 -10 15 -6 -19 -30 -27 -23
-10 -10 16 -5 -18 -31 -28 -24
-11 -11 16 -5 -18 -31 -29 -24
-12 -11 16 -5 -19 -32 -29 -24
-14 -12 16 -5 -20 -33 -30 -24
-15 -13 16 -5 -20 -33 -31 -24
-16 -14 15 -6 -21 -34 -32 -24
-16 -14 15 -6 -21 -34 -32 -24
-16 -14 15 -6 -21 -34 -32 -24
-16 -15 15 -6 -21 -34 -32 -25
-16 -15 15 -6 -21 -34 -32 -25
-17 -16 15 -6 -22 -34 -32 -26
-16 -16 15 -6 -22 -34 -32 -26
-16 -16 15 -6 -22 -34 -32 -26
-15 -15 16 -6 -22 -34 -32 -26
-14 -15 16 -6 -22 -34 -32 -26
-13 -14 17 -5 -21 -34 -33 -26
-13 -14 17 -5 -21 -34 -33 -26
-12 -14 17 -5 -21 -34 -33 -27
-11 -13 17 -5 -21 -34 -34 -28
-11 -13 17 -5 -21 -34 -34 -28
-10 -12 17 -4 -22 -35 -35 -29
-12 -14 17 -4 -22 -35 -35 -29
-14 -15 17 -4 -22 -36 -35 -29
-16 -16 17 -4 -22 -37 -35 -29
-18 -18 17 -4 -22 -37 -35 -29
-19 -19 18 -4 -22 -38 -36 -30
-19 -18 18 -4 -22 -38 -36 -30
-19 -18 18 -4 -22 -37 -36 -30
-18 -17 17 -4 -22 -36 -36 -30
-18 -16 17 -4 -22 -36 -36 -30
-17 -15 16 -4 -21 -35 -37 -29
-17 -15 16 -4 -21 -36 -37 -30
-17 -15 16 -4 -22 -36 -37 -30
-17 -16 16 -4 -23 -37 -38 -31
-17 -16 16 -4 -23 -38 -38 -32
-18 -17 16 -3 -24 -39 -39 -33
-18 -17 16 -3 -24 -39 -39 -33
-18 -17 16 -3 -23 -39 -39 -33
-18 -16 16 -2 -22 -39 -39 -33
-18 -16 16 -2 -22 -39 -39 -33
-17 -15 17 0 -21 -38 -39 -32
-17 -15 17 0 -21 -38 -39 -32
-17 -15 17 0 -21 -38 -39 -32
-17 -15 17 0 -21 -38 -39 -32
-17 -15 17 0 -21 -38 -39 -32
-17 -15 17 1 -21 -37 -39 -32
-17 -15 17 1 -21 -37 -39 -32
-17 -15 17 2 -21 -36 -39 -32
-17 -15 17 3 -21 -35 -39 -32
-17 -15 17 3 -21 -35 -39 -32
-17 -16 18 4 -20 -34 -38 -31
-17 -16 18 4 -20 -34 -38 -31
-16 -16 18 4 -20 -34 -38 -31
-15 -15 18 5 -20 -34 -38 -31
-15 -15 18 5 -20 -34 -38 -31
-14 -14 18 6 -20 -34 -37 -30
-14 -13 18 7 -19 -33 -36 -30
-13 -12 18 7 -18 -32 -36 -29
-12 -11 19 8 -16 -30 -35 -28
-12 -10 19 9 -15 -29 -34 -28
-11 -9 20 10 -14 -28 -33 -27
-11 -9 20 10 -14 -28 -33 -27
-11 -9 20 11 -14 -28 -33 -27
-12 -9 20 12 -13 -28 -32 -26
-12 -9 20 12 -13 -28 -32 -26
-13 -10 19 13 -12 -27 -31 -25
-14 -11 19 13 -12 -26 -31 -25
-14 -11 19 13 -11 -25 -30 -24
-15 -12 18 14 -10 -24 -29 -23
-16 -13 18 14 -10 -23 -29 -23
-17 -14 17 15 -9 -22 -28 -22
-15 -13 17 17 -8 -21 -27 -21
-14 -13 17 18 -7 -21 -26 -20
-12 -12 16 19 -6 -20 -25 -19
-10 -11 16 21 -5 -19 -24 -18
-9 -10 15 22 -4 -18 -23 -17
-8 -9 15 23 -2 -16 -21 -15
-8 -8 15 23 0 -14 -19 -14
-7 -6 15 24 2 -12 -17 -12
-6 -5 15 25 4 -10 -15 -10
-5 -4 15 26 5 -8 -13 -9
-5 -3 15 26 6 -6 -11 -8
-5 -3 15 27 8 -4 -10 -6
-5 -2 14 28 9 -2 -8 -5
-5 0 14 28 11 0 -6 -3
-4 1 13 29 12 2 -5 -2
-3 2 12 30 14 4 -3 1
-2 3 12 30 15 6 -2 2
1 4 11 31 17 8 1 4
2 5 10 32 19 9 3 6
3 6 9 33 20 11 4 7
4 6 9 34 21 12 5 8
4 6 9 35 22 13 7 9
5 6 8 36 24 15 8 11
6 6 8 37 25 16 10 12
7 7 7 38 26 17 11 13
7 8 7 38 27 19 12 14
7 9 6 38 29 20 14 15
8 10 5 38 30 22 15 17
8 11 5 38 32 24 17 18
9 12 4 39 33 25 18 19
10 13 4 40 34 26 19 20
11 14 4 42 36 27 20 21
13 16 4 43 37 28 21 23
14 17 4 44 39 29 22 24
15 18 3 45 40 30 23 25
15 18 3 45 40 31 24 26
15 19 3 45 40 32 25 27
16 20 2 45 42 34 27 28
16 20 2 45 42 35 28 29
17 21 1 45 43 36 29 30
16 20 1 43 42 35 29 30
15 19 0 40 42 35 29 30
14 17 -2 38 40 34 28 29
13 16 -2 37 39 33 28 29
12 15 -3 35 38 32 27 28
12 15 -3 34 38 32 27 28
12 15 -3 34 37 32 27 28
12 15 -3 33 36 32 27 28
12 15 -3 32 36 32 27 28
13 15 -4 31 35 31 26 28
13 15 -4 30 34 30 26 28
13 15 -4 29 32 30 25 28
13 14 -4 27 31 29 24 27
13 14 -4 26 29 28 24 27
12 13 -3 25 28 27 23 26
11 12 -3 23 27 25 22 25
11 12 -3 22 25 24 21 25
10 11 -3 20 24 22 20 24
9 10 -3 18 22 20 19 23
8 9 -2 17 21 19 18 22
8 9 -2 16 20 17 17 21
8 9 -2 16 18 16 15 19
8 9 -2 15 17 14 14 18
8 9 -2 14 15 12 12 16
7 8 -2 13 14 11 11 15
6 8 -2 12 13 10 10 15
6 8 0 12 13 10 9 14
5 8 1 11 12 9 8 13
4 8 1 10 11 8 7 13
3 8 2 9 10 7 6 12
3 8 2 9 9 6 6 12
3 8 2 8 8 5 5 11
3 7 2 7 7 3 4 10
3 7 2 7 6 2 4 10
2 6 2 6 5 1 3 9
2 6 2 6 5 1 3 9
2 6 2 6 5 1 3 9
3 7 2 6 5 1 2 9
3 7 2 6 5 1 2 9
4 8 1 5 4 0 1 8
3 7 1 5 4 0 1 8
2 6 2 5 4 0 1 8
0 5 3 5 4 0 1 8
-2 4 3 5 4 0 1 8
-3 3 4 4 4 -2 0 7
-3 3 4 4 4 -2 0 6
-3 3 4 4 4 -2 0 6
-2 3 4 4 4 -2 0 5
-2 3 4 4 4 -2 0 4
0 3 4 5 4 -2 -2 3
1 3 4 5 4 -2 -2 3
3 3 4 5 4 -2 -2 3
4 4 5 5 4 -2 -2 3
6 4 5 5 4 -2 -2 3
7 5 6 5 4 0 0 2
4 5 6 5 4 -2 -2 0
1 5 6 5 4 -2 -2 -2
-2 4 6 6 4 -3 -3 -4
-5 4 6 6 4 -4 -4 -5
-7 3 5 7 3 -5 -5 -7
-6 3 5 7 3 -5 -5 -7
-6 3 5 7 3 -5 -5 -7
-5 3 5 7 3 -5 -5 -7
-4 3 5 7 3 -5 -5 -7
-3 3 4 8 4 -4 -6 -7
-3 3 5 8 4 -4 -6 -7
-3 3 5 8 4 -4 -5 -7
-3 3 6 8 4 -4 -4 -7
-3 3 7 8 4 -4 -4 -7
-2 4 8 8 4 -4 -3 -7
-2 4 8 8 4 -4 -3 -7
-3 4 8 8 4 -4 -4 -7
-4 3 8 8 4 -4 -5 -8
-4 3 8 8 4 -4 -5 -8
-5 2 7 8 3 -5 -6 -9
-5 2 7 8 3 -5 -6 -9
-4 3 7 8 3 -5 -6 -9
-3 4 8 8 3 -5 -6 -9
-3 4 8 8 3 -5 -6 -9
-2 5 9 9 4 -4 -5 -9
-2 5 9 9 4 -4 -5 -9
-2 5 9 9 4 -4 -5 -9
-2 5 9 9 4 -5 -5 -9
-2 5 9 9 4 -5 -5 -9
-3 5 10 10 3 -6 -6 -8
-3 5 10 10 3 -6 -6 -8
-3 5 10 10 3 -6 -6 -8
-3 5 10 10 3 -5 -6 -9
-3 5 10 10 3 -5 -6 -9
-3 4 9 9 4 -4 -5 -10
-3 4 9 9 4 -4 -5 -10
-3 4 9 9 4 -4 -5 -10
-3 4 9 9 3 -4 -5 -10
-3 4 9 9 3 -4 -5 -10
-3 4 9 8 2 -4 -5 -10
-3 4 9 8 2 -4 -5 -10
-3 4 9 8 3 -3 -4 -10
-2 4 9 9 3 -3 -4 -10
-2 4 9 9 4 -2 -3 -10
0 4 9 10 5 0 -2 -9
0 4 9 10 5 0 -2 -9
0 4 9 10 5 0 -2 -9
0 4 9 10 5 0 -2 -8
0 4 9 10 5 0 -2 -8
-2 4 8 9 4 1 -3 -7
-2 4 8 9 4 1 -3 -7
-3 3 8 9 4 0 -3 -7
-3 3 7 8 3 0 -3 -8
-4 2 7 8 3 -2 -3 -8
-5 1 6 7 2 -3 -4 -9
-5 1 6 7 2 -3 -4 -9
-5 1 6 7 2 -3 -4 -9
-5 1 6 7 2 -3 -4 -9
-5 1 6 7 2 -3 -4 -9
-6 0 5 6 2 -3 -3 -8
-5 1 5 6 2 -3 -3 -8
-4 2 5 6 2 -3 -3 -8
-3 3 5 6 2 -3 -3 -8
0 4 5 6 2 -3 -3 -8
1 5 5 7 2 -3 -4 -7
1 5 5 7 2 -3 -4 -7
1 4 5 7 2 -3 -3 -7
2 4 6 7 2 -3 -3 -7
2 3 6 7 2 -3 -2 -7
3 2 7 6 1 -4 0 -6
2 2 7 6 1 -4 -2 -6
2 2 7 5 1 -4 -3 -7
1 2 6 5 0 -5 -4 -7
0 2 6 4 0 -5 -5 -8
-2 1 5 3 -2 -6 -6 -9
-2 1 5 3 -2 -6 -6 -9
-2 1 5 3 -2 -6 -6 -9
0 2 5 3 -3 -6 -6 -9
0 2 5 3 -3 -6 -6 -9
1 3 6 3 -4 -6 -5 -8
0 2 5 3 -4 -6 -6 -8
-2 1 5 2 -4 -6 -6 -9
-3 0 4 2 -5 -6 -7 -9
-5 -2 3 1 -5 -6 -8 -10
-6 -3 2 0 -6 -7 -9 -11
-5 -2 3 0 -6 -7 -9 -11
-3 0 3 0 -6 -7 -9 -11
-2 1 4 0 -6 -7 -9 -11
1 3 5 0 -6 -7 -9 -11
2 4 6 1 -7 -8 -10 -11
1 4 6 1 -7 -8 -10 -11
1 4 6 1 -7 -8 -10 -11
0 3 5 0 -7 -8 -10 -11
-2 3 5 0 -7 -8 -10 -11
-3 2 4 -2 -8 -8 -10 -11
-3 2 4 -2 -8 -8 -10 -11
-3 2 4 -2 -8 -8 -10 -11
-2 1 4 -2 -9 -8 -10 -11
-2 1 4 -2 -9 -8 -10 -11
0 0 3 -2 -10 -9 -10 -12
0 0 3 -2 -10 -9 -10 -12
-2 0 3 -2 -10 -9 -10 -12
-2 0 3 -2 -10 -9 -10 -12
-3 0 3 -2 -10 -9 -10 -12
-4 -2 4 -3 -9 -10 -11 -12
-4 -2 4 -3 -9 -10 -11 -12
-4 -2 4 -3 -9 -10 -11 -12
-4 -2 4 -3 -10 -10 -12 -12
-4 -2 4 -3 -10 -10 -12 -12
-4 -2 3 -4 -11 -11 -13 -13
-4 -2 3 -4 -11 -11 -13 -13
-3 -2 3 -4 -11 -11 -13 -13
-3 0 3 -4 -11 -11 -13 -13
-2 0 3 -4 -11 -11 -13 -13
0 1 3 -3 -12 -11 -12 -13
0 1 3 -3 -12 -11 -12 -13
0 1 3 -3 -12 -11 -12 -13
0 1 3 -4 -12 -11 -13 -13
0 1 3 -4 -12 -11 -13 -13
-2 1 3 -5 -12 -12 -14 -13
-2 1 3 -5 -12 -12 -14 -13
-2 1 3 -5 -12 -12 -14 -13
-2 1 4 -5 -12 -12 -13 -13
-2 1 4 -5 -12 -12 -13 -13
-3 0 5 -5 -13 -11 -12 -12
-2 0 5 -5 -13 -11 -12 -12
0 1 5 -5 -13 -11 -12 -12
1 1 5 -4 -13 -11 -12 -12
2 2 5 -4 -13 -11 -12 -12
3 3 5 -3 -12 -11 -13 -13
1 2 5 -3 -12 -11 -13 -13
0 0 5 -4 -12 -11 -13 -13
-3 -2 4 -4 -13 -12 -13 -13
-4 -3 4 -5 -13 -12 -13 -13
-6 -5 3 -6 -14 -13 -14 -14
-6 -5 3 -6 -14 -13 -14 -14
-6 -5 3 -6 -14 -13 -14 -14
-5 -5 3 -6 -14 -13 -14 -14
-5 -5 3 -6 -14 -13 -14 -14
-4 -4 4 -5 -15 -12 -14 -14
-4 -4 4 -5 -15 -12 -14 -14
-4 -4 4 -5 -15 -12 -14 -14
-3 -3 4 -5 -15 -12 -14 -14
-3 -3 4 -5 -15 -12 -14 -14
-2 -2 4 -5 -14 -12 -15 -14
-2 -2 4 -5 -14 -12 -15 -14
-2 -2 4 -5 -14 -12 -15 -14
-3 -3 4 -5 -14 -12 -15 -14
