I II V1 V2 V3 V4 V5 V6
-10 -16 -3 -10 -11 -7 -4 -10
-10 -16 -3 -10 -11 -7 -4 -10
-10 -15 -3 -11 -12 -7 -4 -10
-10 -15 -3 -12 -12 -8 -5 -10
-10 -14 -3 -13 -13 -8 -5 -10
-10 -14 -3 -14 -13 -8 -5 -10
-9 -13 -3 -15 -14 -9 -6 -10
-9 -13 -3 -15 -13 -9 -5 -10
-9 -13 -3 -14 -13 -9 -5 -10
-9 -13 -3 -14 -12 -9 -4 -10
-9 -13 -3 -14 -12 -9 -4 -10
-10 -12 -2 -13 -11 -10 -3 -9
-10 -12 -2 -13 -11 -10 -4 -9
-10 -12 -3 -13 -11 -10 -5 -9
-10 -12 -3 -13 -11 -10 -6 -9
-10 -12 -3 -13 -11 -10 -6 -9
-11 -13 1 -10 -10 -11 -7 -9
-13 -13 5 -6 -9 -11 -8 -10
-15 -13 9 -3 -7 -11 -9 -11
-17 -13 13 2 -6 -11 -10 -12
-18 -13 17 5 -5 -11 -11 -13
-21 -14 25 15 1 -9 -14 -16
-24 -15 33 25 5 -7 -16 -19
-27 -16 42 34 10 -5 -19 -22
-30 -17 50 45 14 -3 -21 -25
-33 -17 58 54 18 0 -23 -28
-25 -13 58 67 36 17 -9 -18
-16 -7 56 80 55 34 9 -6
-7 0 54 94 73 52 25 7
3 6 52 107 91 69 42 18
12 12 51 120 109 87 58 30
35 25 26 121 141 119 96 58
58 39 2 122 173 152 134 85
81 53 -23 123 204 186 172 112
104 66 -48 125 236 219 209 140
128 79 -72 125 269 253 246 168
129 65 -81 97 235 216 221 149
129 48 -91 67 199 177 191 129
130 31 -100 37 163 138 161 109
130 14 -108 8 128 99 132 89
130 -3 -117 -22 92 60 102 68
116 -10 -107 -41 48 24 70 49
102 -17 -95 -62 4 -11 37 28
87 -24 -82 -82 -40 -46 5 9
72 -30 -70 -102 -85 -80 -28 -11
57 -37 -58 -122 -129 -115 -60 -31
43 -35 -38 -108 -120 -110 -63 -36
27 -32 -19 -92 -109 -103 -64 -40
13 -29 1 -76 -98 -95 -66 -45
-3 -26 21 -60 -87 -87 -67 -49
-17 -23 40 -44 -75 -79 -68 -53
-24 -22 53 -39 -72 -76 -69 -55
-31 -22 66 -36 -69 -73 -70 -57
-38 -22 78 -33 -66 -71 -71 -58
-46 -22 92 -30 -63 -68 -72 -60
-53 -22 104 -27 -61 -66 -73 -61
-55 -20 110 -26 -56 -61 -71 -60
-56 -19 116 -26 -52 -55 -67 -58
-57 -17 122 -26 -47 -50 -63 -55
-58 -16 128 -26 -41 -45 -59 -53
-59 -15 134 -26 -37 -39 -55 -51
-60 -15 135 -26 -37 -39 -55 -51
-60 -17 136 -27 -39 -41 -56 -52
-60 -18 136 -27 -41 -43 -57 -53
-60 -20 137 -28 -44 -45 -58 -54
-60 -21 137 -28 -45 -46 -59 -55
-58 -21 131 -29 -46 -46 -58 -54
-56 -20 123 -30 -46 -45 -56 -51
-54 -18 115 -30 -45 -44 -54 -49
-52 -17 108 -31 -45 -43 -52 -46
-50 -16 100 -31 -45 -41 -50 -44
-46 -15 88 -32 -41 -39 -47 -41
-41 -15 75 -32 -38 -37 -45 -39
-37 -15 63 -31 -36 -35 -41 -37
-33 -15 51 -31 -33 -33 -39 -35
-29 -15 38 -31 -31 -32 -37 -34
-26 -14 33 -27 -27 -29 -34 -32
-24 -14 28 -24 -24 -26 -31 -30
-22 -15 23 -21 -21 -23 -28 -28
-20 -15 19 -17 -17 -20 -25 -26
-18 -15 14 -14 -14 -17 -22 -25
-16 -16 12 -12 -13 -16 -20 -23
-15 -16 10 -11 -12 -15 -18 -21
-14 -16 8 -10 -11 -14 -17 -19
-13 -16 6 -9 -10 -13 -15 -17
-12 -16 5 -8 -9 -12 -14 -16
-11 -16 4 -7 -8 -11 -13 -16
-11 -16 4 -7 -8 -11 -14 -17
-11 -16 4 -7 -8 -12 -15 -18
-11 -16 4 -7 -8 -12 -16 -19
-11 -16 4 -7 -8 -12 -16 -20
-12 -16 3 -8 -8 -13 -17 -21
-12 -16 3 -7 -7 -13 -17 -21
-12 -16 2 -6 -6 -13 -17 -20
-12 -16 2 -5 -5 -13 -17 -20
-12 -16 2 -5 -5 -13 -17 -20
-11 -16 1 -4 -4 -12 -16 -19
-11 -16 1 -4 -4 -11 -16 -18
-10 -17 1 -4 -4 -11 -16 -18
-10 -17 1 -4 -4 -10 -16 -17
-10 -17 1 -4 -4 -10 -16 -17
-9 -18 1 -3 -3 -9 -15 -16
-9 -17 1 -3 -3 -9 -15 -16
-9 -17 0 -3 -3 -9 -15 -17
-9 -16 0 -3 -3 -9 -15 -17
-9 -16 0 -3 -3 -9 -15 -17
-9 -15 -2 -4 -4 -11 -15 -18
-9 -15 -2 -4 -4 -12 -16 -18
-9 -15 -2 -5 -5 -13 -17 -19
-9 -15 -2 -5 -5 -14 -18 -19
-9 -15 -2 -5 -5 -15 -18 -19
-9 -14 -3 -6 -6 -16 -19 -20
-9 -14 -3 -5 -5 -16 -19 -20
-9 -14 -3 -5 -4 -16 -18 -20
-9 -14 -3 -4 -3 -16 -18 -20
-9 -14 -3 -4 -3 -16 -18 -20
-8 -14 -4 -3 -2 -15 -17 -20
-8 -15 -4 -3 -2 -15 -16 -19
-8 -15 -4 -3 -2 -14 -16 -18
-8 -16 -4 -3 -2 -14 -15 -17
-8 -16 -4 -3 -2 -14 -15 -16
-9 -17 -4 -2 0 -13 -14 -15
-8 -17 -4 -2 1 -13 -14 -15
-8 -17 -5 -2 1 -12 -14 -15
-7 -17 -5 -2 2 -12 -14 -15
-7 -17 -5 -2 2 -12 -14 -15
-6 -17 -6 -3 3 -11 -14 -16
-6 -16 -7 -3 3 -11 -14 -16
-6 -15 -7 -3 2 -11 -14 -16
-6 -14 -8 -3 2 -11 -14 -16
-6 -14 -8 -3 2 -11 -14 -16
-6 -13 -10 -2 1 -12 -15 -16
-6 -12 -11 -3 0 -12 -16 -16
-6 -12 -12 -3 0 -12 -16 -16
-6 -11 -13 -4 -2 -12 -17 -16
-6 -11 -14 -4 -2 -12 -17 -16
-6 -10 -15 -5 -3 -13 -18 -17
-6 -10 -15 -6 -3 -13 -18 -16
-5 -10 -16 -7 -3 -13 -18 -16
-5 -10 -16 -8 -3 -13 -18 -15
-5 -10 -16 -8 -3 -13 -18 -15
-4 -11 -17 -9 -2 -13 -17 -14
-3 -11 -18 -10 -3 -13 -16 -13
-2 -12 -19 -11 -3 -13 -16 -12
0 -12 -20 -12 -4 -13 -15 -11
1 -12 -21 -13 -4 -13 -15 -11
2 -12 -23 -15 -6 -14 -14 -10
2 -10 -25 -16 -7 -15 -15 -10
2 -8 -26 -18 -8 -16 -15 -10
2 -6 -28 -19 -9 -17 -16 -10
2 -4 -29 -20 -10 -17 -16 -10
2 -3 -30 -22 -11 -18 -17 -8
3 -3 -31 -23 -12 -18 -17 -7
4 -3 -32 -24 -13 -18 -16 -5
5 -3 -33 -25 -14 -18 -16 -4
6 -3 -34 -26 -14 -18 -16 -3
7 -2 -35 -28 -16 -18 -15 -2
7 0 -36 -29 -17 -18 -15 -2
8 0 -37 -30 -18 -18 -14 -2
8 1 -38 -31 -19 -18 -14 -2
8 1 -38 -32 -20 -18 -14 -2
9 2 -39 -34 -21 -19 -13 0
10 3 -40 -35 -21 -19 -12 1
10 4 -41 -36 -22 -19 -11 1
11 5 -43 -37 -22 -19 -10 2
11 6 -44 -38 -22 -19 -10 2
12 7 -45 -39 -23 -19 -9 3
12 8 -45 -40 -23 -19 -9 3
13 8 -46 -41 -23 -19 -9 3
13 9 -46 -43 -23 -19 -9 3
13 9 -46 -43 -23 -19 -9 3
14 10 -47 -44 -23 -17 -8 5
15 10 -47 -43 -21 -16 -6 6
15 10 -47 -43 -19 -14 -4 8
16 10 -47 -41 -18 -12 -2 10
16 10 -47 -41 -16 -11 1 11
17 10 -46 -38 -14 -9 2 12
17 11 -46 -36 -11 -8 3 12
17 12 -45 -33 -9 -6 3 13
17 13 -45 -30 -7 -5 4 13
17 14 -45 -28 -5 -4 4 13
17 15 -43 -25 -3 -2 6 14
17 14 -41 -23 1 1 7 15
17 14 -40 -20 3 3 8 15
17 13 -38 -17 5 5 10 16
17 13 -37 -15 7 7 11 16
18 12 -34 -12 10 9 12 17
17 12 -32 -10 12 11 13 17
16 11 -29 -7 14 13 14 17
15 11 -26 -4 17 14 15 17
14 11 -24 -2 19 16 16 17
13 10 -22 0 20 17 17 17
13 10 -21 1 21 17 16 16
12 10 -20 2 21 17 16 15
12 10 -19 3 22 17 15 14
12 10 -18 4 22 17 15 13
11 10 -16 5 23 16 14 12
10 10 -15 6 24 16 14 11
10 10 -14 7 24 16 13 10
9 10 -13 8 25 16 13 9
9 10 -12 8 25 16 13 8
8 11 -10 9 26 17 12 7
7 10 -9 9 26 17 12 7
6 10 -8 9 26 17 12 7
5 9 -7 9 26 17 12 7
5 9 -6 9 26 17 12 7
4 8 -5 9 25 17 12 8
4 8 -5 9 25 17 11 8
4 7 -5 9 24 17 11 7
4 7 -5 9 24 17 10 7
4 7 -5 9 24 17 10 7
3 6 -5 9 23 16 9 6
3 5 -5 9 23 15 7 4
3 5 -4 9 22 15 6 3
3 4 -4 9 22 14 5 2
3 4 -4 9 22 14 4 1
2 3 -3 8 21 13 3 0
2 3 -3 7 21 12 3 0
1 4 -3 7 21 12 3 0
1 4 -3 6 21 11 3 0
1 4 -3 6 21 11 3 0
0 5 -3 5 22 10 2 1
0 4 -3 6 22 10 3 1
0 4 -3 6 23 11 4 2
0 3 -3 7 23 11 5 2
0 3 -3 7 23 11 5 2
0 2 -3 8 24 12 6 3
0 2 -3 8 24 11 6 3
0 2 -2 8 24 11 5 2
0 2 -2 8 24 10 5 2
0 2 -2 8 24 10 5 2
0 3 0 8 24 9 4 1
0 3 0 8 24 9 4 1
0 4 -2 8 23 9 4 0
0 4 -2 8 23 9 4 0
0 4 -2 8 23 9 4 0
0 5 -3 8 22 9 3 -2
0 5 -3 8 22 9 3 -2
0 5 -3 8 22 10 4 -2
0 5 -3 8 22 10 4 -2
0 5 -3 8 22 10 4 -2
0 5 -2 9 23 11 5 0
0 5 -2 10 23 11 5 0
1 5 -2 10 24 12 5 0
1 5 -2 11 24 12 5 0
1 5 -2 11 24 12 5 0
2 6 0 12 25 13 6 0
2 6 0 12 25 13 6 0
2 6 0 12 25 13 6 0
2 6 0 12 25 13 6 0
2 6 0 12 25 13 6 0
1 7 -2 12 25 12 7 1
1 8 -2 13 25 12 7 0
1 9 0 13 26 13 6 0
1 10 0 14 26 13 6 -2
1 11 0 14 26 13 6 -2
1 12 1 15 27 14 5 -3
1 12 1 15 27 15 6 -2
1 12 1 15 28 16 7 0
1 12 1 15 28 17 8 1
1 12 1 15 28 17 9 2
2 11 1 16 29 18 10 3
2 11 1 16 29 18 9 2
2 11 1 16 29 17 8 1
2 11 1 16 29 17 7 0
2 11 1 16 29 17 6 -2
1 10 2 15 29 16 5 -3
2 11 2 14 29 16 5 -2
2 11 2 13 28 16 5 -2
3 12 2 12 28 16 5 0
3 12 2 12 28 16 5 0
4 13 1 11 27 16 6 1
4 13 1 11 27 16 6 1
4 13 0 11 26 16 7 1
4 13 0 11 26 16 7 1
4 13 0 11 26 16 7 1
3 12 -2 10 25 16 8 1
3 12 -2 10 25 16 9 2
3 12 -2 10 25 17 9 3
3 12 -2 10 25 17 10 4
3 12 -2 10 25 17 10 4
3 13 -2 11 25 18 11 5
3 13 -2 10 25 17 10 4
3 13 -3 10 24 16 9 3
3 13 -3 9 24 15 8 2
3 13 -3 9 24 15 8 2
3 13 -4 8 23 14 7 1
3 12 -4 8 22 14 7 0
3 11 -3 8 22 13 6 -2
3 10 -3 8 21 13 6 -3
3 10 -3 8 21 13 6 -4
2 9 -2 7 20 12 5 -5
2 9 -2 7 19 12 5 -4
2 9 -3 7 18 12 5 -4
2 9 -3 7 17 12 5 -3
2 9 -3 7 16 12 5 -3
1 10 -4 6 15 11 4 -2
1 10 -4 5 14 11 4 -2
1 11 -4 4 13 11 3 -3
1 11 -4 3 12 11 3 -3
1 11 -4 3 12 11 3 -3
2 12 -4 2 11 10 2 -4
2 12 -3 2 11 10 2 -4
2 11 -3 2 11 10 2 -5
2 11 -2 2 11 10 2 -5
2 11 -2 2 11 10 2 -5
2 10 0 2 10 10 3 -6
2 10 0 1 9 9 2 -6
2 10 0 1 8 8 1 -6
2 10 0 0 7 7 0 -6
2 10 0 0 6 6 -2 -6
1 10 -2 -2 5 5 -3 -5
1 10 -2 -2 5 5 -2 -5
1 10 -2 -2 4 6 0 -5
1 10 -2 -2 4 6 0 -5
1 10 -2 -2 4 6 1 -5
1 9 -3 0 3 7 2 -4
1 8 -2 0 3 7 2 -4
1 8 -2 0 3 7 2 -4
1 7 0 0 3 7 2 -4
1 7 0 0 3 7 2 -4
1 6 1 1 3 8 2 -3
1 6 1 1 3 8 2 -3
1 6 0 1 2 8 2 -3
1 6 0 1 2 8 2 -3
1 6 0 1 2 8 2 -3
0 7 -2 0 1 7 1 -3
0 8 0 1 2 8 1 -3
0 8 1 2 3 8 1 -3
0 9 2 2 3 9 1 -3
0 9 3 3 4 9 1 -3
1 10 4 4 5 10 1 -4
1 11 4 4 5 10 2 -3
2 12 4 5 6 11 3 -2
2 13 4 5 6 11 4 -2
2 14 4 5 6 11 5 0
3 15 4 6 7 12 6 1
3 16 4 6 7 12 6 2
2 17 5 6 7 12 6 2
2 17 5 6 7 12 6 3
2 18 5 6 7 12 6 3
1 19 6 7 7 12 7 4
1 19 6 8 8 13 8 4
1 19 6 9 8 14 9 5
1 19 6 10 9 15 9 5
1 19 6 11 9 16 10 5
2 20 7 12 10 17 11 7
3 22 7 12 10 18 13 8
3 24 7 12 11 19 14 10
4 27 7 12 11 19 15 11
4 29 7 12 11 20 16 13
5 30 5 12 12 21 17 14
6 30 4 12 12 21 17 14
7 31 3 11 12 20 16 14
7 31 1 11 12 20 16 14
8 31 0 11 12 20 16 14
9 31 -2 10 12 19 15 14
9 30 -2 10 12 19 15 14
9 29 -2 10 12 19 15 14
9 27 -2 10 12 19 15 14
9 26 -2 10 12 19 15 14
9 23 -2 10 13 18 15 13
9 20 -2 10 11 17 14 12
8 17 0 9 10 15 12 12
8 14 0 9 8 14 11 11
8 10 0 9 7 12 9 11
7 8 1 7 5 10 8 10
5 7 0 6 4 8 6 8
4 5 0 4 2 6 5 7
3 4 -2 3 1 4 3 5
2 2 -2 1 -2 2 2 4
1 1 -3 0 -3 1 1 3
-2 1 -2 0 -3 1 1 3
-3 2 0 -2 -3 1 1 3
-4 2 0 -2 -3 1 1 3
-5 2 1 -2 -3 1 1 3
-6 2 2 -3 -4 1 0 2
-6 1 2 -2 -4 1 0 2
-6 -2 2 -2 -3 1 0 2
-6 -3 2 0 -3 1 0 2
-6 -5 2 0 -3 1 0 2
-7 -6 3 1 -2 1 0 1
-7 -6 3 0 -3 0 -2 0
-8 -7 3 0 -4 -2 -3 -2
-8 -7 3 -2 -4 -3 -4 -3
-8 -7 3 -2 -5 -4 -5 -4
-9 -8 2 -3 -6 -5 -6 -5
-9 -8 2 -3 -6 -6 -6 -5
-9 -8 2 -3 -7 -6 -6 -5
-9 -8 2 -3 -7 -7 -6 -5
-9 -8 2 -3 -7 -7 -6 -5
-9 -9 2 -3 -8 -8 -6 -4
-9 -9 2 -3 -8 -8 -6 -4
-9 -10 3 -3 -8 -8 -6 -4
-9 -10 3 -3 -8 -8 -6 -4
-9 -10 3 -3 -8 -8 -6 -4
-10 -11 4 -4 -9 -8 -7 -4
-10 -11 4 -4 -9 -8 -7 -4
-11 -11 4 -4 -9 -8 -7 -5
-11 -11 4 -4 -9 -8 -7 -5
-11 -11 4 -4 -9 -8 -7 -5
-12 -12 4 -4 -8 -7 -8 -6
-12 -12 4 -4 -8 -7 -8 -6
-12 -13 4 -4 -8 -8 -8 -6
-12 -13 4 -4 -8 -8 -8 -6
-12 -13 4 -4 -8 -8 -8 -6
-12 -14 4 -3 -7 -9 -7 -6
-12 -13 5 -3 -7 -9 -7 -7
-11 -12 5 -3 -7 -10 -7 -7
-11 -12 6 -3 -7 -10 -7 -8
-11 -11 6 -3 -7 -10 -7 -8
-10 -10 7 -2 -6 -11 -8 -9
-10 -11 7 -2 -6 -11 -7 -8
-11 -12 7 0 -6 -11 -6 -7
-11 -12 7 0 -6 -11 -5 -6
-11 -13 7 0 -6 -11 -4 -5
-12 -14 9 2 -6 -10 -4 -5
-13 -14 12 4 -6 -11 -5 -7
-14 -14 15 6 -6 -13 -7 -9
-14 -14 18 8 -6 -14 -8 -11
-15 -14 21 10 -6 -15 -10 -13
-18 -14 27 16 -5 -16 -12 -15
-22 -14 34 24 -2 -15 -13 -18
-26 -14 43 33 2 -13 -15 -20
-29 -14 51 42 5 -12 -16 -23
-33 -14 59 51 8 -11 -18 -26
-31 -11 62 63 20 0 -11 -22
-25 -7 63 77 36 14 2 -13
-18 -2 65 92 53 28 14 -4
-11 3 66 106 69 43 26 6
-5 7 67 121 86 58 38 14
13 17 54 131 114 87 68 35
35 29 31 138 150 122 107 64
57 43 10 145 186 158 146 92
79 56 -13 152 222 195 185 120
102 68 -35 159 258 231 223 148
111 69 -51 145 263 235 232 155
114 63 -64 118 248 220 224 150
117 57 -76 91 234 204 216 144
120 50 -89 63 220 189 207 139
123 44 -101 36 205 175 198 133
117 30 -101 6 156 131 165 112
104 14 -91 -28 89 71 118 82
92 -2 -81 -61 20 13 71 53
78 -18 -72 -94 -49 -47 24 23
65 -34 -63 -127 -117 -106 -23 -7
51 -39 -47 -129 -136 -124 -41 -21
35 -38 -26 -112 -126 -118 -44 -26
20 -36 -7 -96 -115 -112 -47 -32
5 -34 14 -79 -105 -106 -49 -37
-11 -32 33 -63 -95 -101 -52 -44
-22 -31 50 -55 -89 -97 -54 -47
-30 -30 63 -52 -85 -94 -56 -50
-38 -29 77 -49 -80 -91 -58 -53
-47 -28 91 -45 -76 -88 -61 -56
-55 -27 105 -41 -72 -86 -63 -58
-58 -26 113 -39 -68 -81 -62 -59
-59 -25 119 -37 -64 -76 -59 -57
-61 -24 126 -36 -59 -71 -55 -55
-62 -24 132 -34 -55 -67 -51 -53
-63 -23 138 -33 -51 -62 -48 -51
-64 -22 141 -32 -49 -60 -46 -50
-64 -22 141 -31 -49 -60 -45 -50
-64 -21 142 -30 -49 -59 -44 -49
-64 -21 143 -30 -49 -58 -44 -48
-64 -21 143 -29 -49 -58 -43 -48
-62 -20 140 -28 -48 -57 -40 -46
-60 -19 132 -26 -46 -55 -38 -44
-58 -18 123 -25 -45 -54 -36 -41
-56 -17 115 -23 -43 -52 -34 -39
-53 -16 107 -22 -41 -51 -31 -36
-50 -15 97 -21 -39 -49 -29 -34
-46 -15 86 -20 -37 -46 -26 -31
-40 -16 73 -19 -34 -44 -23 -29
-36 -17 61 -19 -32 -40 -20 -26
-32 -17 50 -18 -29 -37 -17 -23
-29 -18 42 -16 -27 -35 -14 -22
-27 -18 36 -12 -24 -33 -13 -21
-24 -18 31 -9 -21 -31 -11 -19
-22 -18 26 -6 -18 -29 -9 -18
-19 -18 21 -3 -16 -27 -7 -17
-18 -17 19 0 -14 -26 -6 -16
-17 -17 18 1 -14 -25 -6 -16
-16 -17 16 3 -13 -24 -5 -15
-15 -17 15 4 -12 -24 -4 -15
-14 -17 14 5 -12 -23 -4 -15
-13 -16 13 6 -11 -22 -3 -14
-13 -16 12 6 -11 -22 -3 -14
-13 -16 11 6 -10 -22 -2 -14
-13 -16 10 6 -10 -22 0 -14
-13 -16 9 6 -10 -22 0 -14
-13 -15 8 7 -9 -21 1 -13
-13 -15 8 7 -9 -21 1 -12
-12 -16 8 7 -8 -20 2 -11
-11 -16 8 7 -7 -20 3 -11
-11 -16 8 7 -7 -20 3 -10
-10 -17 9 7 -6 -19 4 -9
-10 -17 9 7 -6 -19 4 -9
-10 -16 8 7 -6 -19 3 -10
-10 -16 8 7 -6 -19 2 -10
-10 -16 8 7 -6 -19 2 -10
-10 -15 7 8 -7 -20 1 -11
-10 -15 7 8 -7 -19 2 -10
-10 -15 7 9 -7 -18 3 -9
-10 -15 7 9 -7 -18 4 -9
-10 -15 7 9 -7 -17 5 -8
-9 -15 8 10 -7 -16 6 -7
-9 -15 8 10 -7 -17 6 -7
-9 -15 7 10 -6 -18 6 -7
-9 -15 7 10 -6 -18 6 -7
-9 -15 7 10 -6 -19 6 -7
-9 -16 6 9 -5 -20 5 -7
-9 -16 6 9 -5 -20 5 -7
-8 -16 6 9 -5 -20 5 -8
-8 -16 6 9 -5 -20 5 -8
-8 -16 6 9 -5 -20 5 -8
-7 -15 5 9 -6 -19 6 -9
-7 -15 5 9 -6 -19 6 -9
-8 -15 4 10 -6 -20 6 -9
-8 -15 3 10 -6 -20 6 -9
-8 -15 3 10 -6 -20 6 -9
-9 -14 2 11 -6 -21 6 -10
-9 -14 2 11 -6 -21 6 -10
-9 -14 3 10 -6 -21 6 -10
-9 -14 3 10 -6 -21 6 -10
-9 -14 3 10 -6 -21 6 -10
-8 -13 4 9 -5 -22 5 -10
-8 -13 4 9 -5 -22 5 -10
-8 -12 3 9 -5 -22 5 -10
-8 -12 2 9 -5 -22 5 -10
-8 -12 2 9 -5 -22 5 -10
-7 -11 1 9 -6 -22 4 -9
-7 -11 1 9 -6 -22 4 -9
-6 -11 1 9 -6 -22 4 -8
-6 -11 1 9 -6 -22 4 -7
-6 -11 1 9 -6 -22 4 -7
-5 -11 1 9 -5 -22 5 -6
-5 -11 0 9 -6 -22 5 -6
-4 -10 -2 8 -7 -22 6 -6
-4 -10 -3 7 -7 -22 6 -6
-4 -10 -4 7 -8 -22 6 -6
-3 -9 -5 6 -9 -23 7 -5
-3 -8 -6 5 -9 -23 7 -5
-3 -7 -7 3 -10 -24 7 -4
-3 -7 -7 2 -11 -24 7 -4
-3 -6 -8 1 -11 -24 7 -4
-2 -5 -9 0 -12 -25 6 -3
-2 -5 -10 -2 -12 -25 6 -2
0 -4 -12 -3 -13 -25 7 0
1 -3 -13 -4 -14 -25 7 1
1 -3 -14 -5 -14 -25 7 2
2 -2 -15 -6 -15 -24 8 3
2 0 -16 -8 -16 -24 8 3
3 1 -17 -10 -17 -25 7 4
3 1 -18 -11 -17 -26 7 4
3 2 -19 -13 -18 -26 7 4
4 3 -20 -14 -19 -27 6 5
5 3 -21 -16 -20 -27 7 6
6 3 -23 -17 -21 -27 9 7
7 3 -24 -18 -22 -27 10 7
8 3 -25 -20 -23 -27 11 8
9 4 -26 -21 -24 -27 12 9
9 5 -27 -22 -25 -27 12 10
10 6 -28 -23 -26 -27 12 11
10 6 -28 -24 -26 -27 12 12
10 7 -29 -25 -27 -27 12 13
11 8 -30 -26 -28 -27 13 14
11 10 -31 -26 -28 -27 13 14
12 11 -32 -27 -28 -27 13 14
12 12 -32 -28 -28 -27 13 14
12 14 -33 -28 -28 -27 13 14
13 15 -34 -29 -29 -28 14 15
13 15 -34 -28 -27 -26 16 16
14 15 -34 -27 -25 -24 18 17
15 15 -34 -27 -24 -22 20 18
15 15 -34 -26 -22 -20 22 19
16 16 -34 -24 -20 -19 23 20
16 16 -32 -22 -18 -17 24 21
16 17 -31 -20 -16 -16 26 22
16 17 -30 -18 -14 -15 27 23
16 17 -28 -16 -12 -13 28 24
17 18 -27 -15 -10 -12 29 25
17 18 -26 -13 -8 -10 30 25
17 18 -25 -11 -6 -8 31 25
17 18 -25 -9 -4 -6 32 25
17 18 -24 -7 -2 -4 33 25
17 18 -23 -5 1 -3 34 26
17 18 -22 -3 3 -2 34 25
16 18 -20 1 5 0 33 23
15 18 -19 3 7 0 33 22
15 18 -18 5 9 1 33 21
14 17 -17 7 10 2 32 20
14 17 -15 8 11 3 32 20
13 17 -13 10 13 4 32 20
12 17 -11 11 14 5 32 20
12 17 -9 12 15 6 32 20
11 17 -8 13 16 7 32 21
10 16 -6 14 16 7 32 20
9 15 -4 15 16 7 32 19
8 15 -3 16 16 7 32 19
7 14 0 17 16 7 32 18
6 13 1 18 17 8 31 17
6 13 1 18 17 8 30 16
6 13 2 18 17 7 28 15
6 13 3 18 17 7 27 15
6 13 3 18 17 7 26 14
5 13 4 19 17 6 25 13
5 13 4 19 17 6 24 13
4 12 5 19 17 5 23 12
3 12 5 19 17 5 23 11
3 12 5 19 17 5 22 11
2 11 6 19 16 4 21 10
2 11 6 19 15 4 21 10
2 10 7 18 14 3 21 10
2 10 8 17 14 3 21 10
2 10 8 17 13 3 21 10
1 9 9 16 12 2 20 9
1 9 9 16 12 2 20 9
1 9 9 16 11 1 19 8
1 9 9 16 10 0 19 7
1 9 9 16 10 0 19 7
0 9 8 16 9 -2 18 6
0 9 8 16 9 -2 18 6
0 9 8 15 9 -2 18 7
0 9 8 15 9 -2 18 7
0 9 8 15 9 -2 18 7
0 8 9 14 9 0 19 8
0 8 9 14 9 0 19 8
0 8 9 14 9 0 19 8
0 8 9 15 9 0 18 7
0 8 9 15 9 0 18 7
-2 7 8 16 10 0 17 6
-2 7 8 16 10 0 17 6
-2 7 8 16 10 0 17 6
-2 7 8 16 10 0 16 6
-2 7 8 16 10 0 16 6
0 6 9 17 10 1 15 6
0 6 9 17 10 1 15 6
0 6 9 17 10 1 15 6
-2 6 8 18 10 1 15 6
-2 6 8 18 10 1 15 6
-3 7 7 19 10 1 15 5
-3 7 7 19 10 1 15 5
-3 7 7 19 10 2 15 5
-2 8 7 19 10 3 15 6
-2 8 7 19 10 3 15 6
0 9 7 19 10 4 16 7
0 9 7 19 10 4 16 7
0 9 7 19 11 4 17 7
0 9 8 20 12 5 18 7
0 9 8 20 12 5 18 7
-2 9 9 21 13 6 19 7
-2 9 9 21 13 6 19 7
-2 9 9 21 13 6 19 7
-2 8 9 21 13 6 19 8
-2 8 9 21 13 6 19 8
-2 7 10 22 13 7 19 9
-2 8 10 22 13 7 19 9
-2 8 10 21 13 7 19 9
-2 9 9 20 13 7 19 9
-2 10 9 20 13 7 19 9
-2 11 8 19 13 8 19 9
-2 11 8 19 13 8 19 9
-2 11 8 19 13 8 19 9
-2 11 9 19 13 8 20 9
-2 11 9 19 13 8 20 9
-2 12 10 20 13 9 21 8
-2 12 10 20 13 9 21 8
-2 12 10 20 13 9 21 8
-2 12 9 20 12 9 21 8
-2 12 9 20 12 9 21 8
-2 11 8 19 11 9 22 9
-2 11 8 19 11 9 22 9
-2 11 8 19 11 9 22 9
-2 11 8 19 11 9 22 9
-2 11 8 19 11 9 22 9
-2 10 8 19 10 10 22 9
-2 10 8 19 10 9 21 9
-2 10 8 19 10 9 21 8
-2 11 7 18 9 8 20 7
-2 11 7 18 9 7 19 7
-2 12 6 17 8 6 18 6
-2 12 6 17 8 6 18 6
-2 11 6 17 8 6 18 6
-2 10 6 16 8 6 18 6
-2 10 6 16 8 6 18 6
-2 9 6 15 7 7 19 6
-2 9 6 15 7 7 19 6
-2 8 6 15 6 7 19 6
-2 7 6 15 5 7 20 6
-2 7 6 15 5 7 20 6
-2 6 6 15 4 7 21 6
-2 6 6 15 4 6 21 6
-2 6 6 14 4 6 20 6
-2 7 5 13 3 5 19 6
-2 7 5 13 3 4 19 6
0 8 4 12 2 3 18 6
0 8 4 12 2 3 18 6
0 8 4 12 2 3 18 6
-2 8 4 11 1 3 17 5
-2 8 4 11 1 3 17 5
-3 8 3 10 0 3 16 4
-3 8 3 10 0 3 16 4
-3 8 3 9 0 3 16 4
-3 7 3 8 0 3 17 5
-3 7 3 8 0 3 17 5
-3 6 2 7 0 4 18 6
-3 6 2 7 0 4 18 6
-3 6 2 7 0 4 18 6
-3 5 2 7 -2 4 18 5
-3 5 2 7 -2 4 18 5
-4 4 3 7 -3 3 17 4
-4 4 3 7 -3 3 17 4
-4 4 3 7 -3 3 17 4
-4 4 2 6 -3 3 17 4
-4 4 2 6 -3 3 17 4
-3 4 1 5 -3 3 17 3
-3 4 1 5 -3 3 17 3
-3 4 1 5 -3 3 17 3
-3 4 1 5 -3 3 16 3
-3 4 1 5 -3 3 16 3
-4 4 0 5 -4 4 15 3
-4 4 0 5 -4 4 15 3
-4 4 0 5 -4 4 15 3
-4 4 0 5 -5 3 14 3
-4 4 0 5 -5 3 14 3
-4 3 0 5 -6 2 13 2
-4 3 0 5 -6 2 13 2
-4 3 0 5 -6 2 13 2
-4 3 0 5 -6 2 13 2
-4 3 0 5 -6 2 13 2
-5 3 1 4 -6 3 13 1
-5 4 1 4 -6 3 13 1
-5 5 1 4 -6 3 13 2
-4 7 2 3 -6 4 13 3
-4 8 2 3 -6 4 13 3
-3 9 3 2 -6 5 13 4
-3 9 3 3 -5 6 14 4
-3 9 3 4 -4 7 14 4
-3 10 4 6 -2 9 15 5
-3 10 4 7 0 10 16 5
-3 11 5 8 1 11 17 6
-3 12 5 8 1 11 17 6
-3 13 5 7 1 12 17 7
-3 14 4 6 1 13 17 8
-3 15 4 6 1 13 17 8
-2 16 3 5 1 14 18 9
-2 16 3 6 2 14 18 9
-2 16 4 6 3 14 18 9
-2 16 5 7 4 14 18 9
-2 16 5 8 5 14 18 9
0 16 6 9 6 15 18 9
1 18 6 9 7 17 19 10
2 20 6 10 7 18 20 12
3 22 6 11 8 20 21 13
4 24 6 11 9 22 22 15
5 26 5 12 10 23 23 16
6 26 3 12 10 23 23 16
6 26 1 12 10 23 23 16
7 26 -2 11 10 23 23 17
8 26 -4 11 10 23 23 17
9 26 -6 10 10 23 23 18
9 23 -6 9 9 22 23 17
9 21 -6 8 8 21 22 17
9 19 -6 7 6 20 21 16
9 17 -6 6 5 19 21 15
9 15 -7 5 4 18 20 14
9 12 -7 5 3 17 18 13
9 10 -7 5 2 15 16 11
8 7 -7 4 1 14 14 10
8 5 -7 4 0 12 12 8
7 3 -6 3 -2 11 10 7
6 2 -6 1 -3 10 9 7
5 0 -7 -2 -4 9 8 6
4 -2 -8 -4 -6 8 7 5
3 -4 -8 -5 -7 7 6 5
2 -5 -9 -7 -8 6 5 4
1 -5 -8 -7 -8 6 5 4
0 -5 -8 -7 -8 6 5 3
-3 -4 -7 -7 -8 7 5 2
-4 -4 -6 -7 -8 7 5 2
-5 -3 -5 -6 -8 8 5 1
-5 -4 -5 -6 -8 7 4 0
-5 -5 -5 -6 -8 7 4 0
-6 -7 -5 -6 -8 6 3 -2
-6 -8 -5 -6 -8 5 2 -3
-7 -9 -4 -7 -9 4 1 -4
-7 -9 -4 -7 -10 4 1 -4
-7 -10 -4 -7 -11 4 0 -4
-8 -11 -4 -8 -12 3 -2 -5
-8 -11 -4 -8 -13 3 -2 -5
-9 -12 -4 -9 -14 2 -3 -6
-9 -12 -4 -9 -14 2 -4 -6
-9 -12 -4 -9 -14 2 -4 -6
-9 -12 -4 -9 -14 2 -5 -6
-9 -12 -4 -9 -14 2 -6 -6
-9 -12 -4 -10 -13 1 -7 -7
-9 -12 -4 -10 -13 1 -7 -7
-9 -12 -4 -10 -13 1 -8 -7
-9 -12 -4 -10 -13 1 -9 -7
-9 -12 -4 -10 -13 1 -9 -7
-10 -12 -4 -10 -14 0 -10 -8
-10 -12 -4 -10 -14 0 -10 -8
-10 -13 -4 -10 -14 0 -10 -8
-10 -14 -4 -10 -14 0 -10 -8
-10 -14 -4 -10 -14 0 -10 -8
-10 -15 -4 -9 -14 -2 -9 -8
-10 -15 -4 -9 -14 -2 -9 -8
-10 -15 -4 -9 -14 -2 -9 -8
-10 -15 -4 -9 -14 -2 -9 -8
-10 -15 -4 -9 -14 -2 -9 -8
-11 -14 -4 -9 -14 -2 -10 -8
-11 -14 -4 -9 -14 -2 -10 -8
-11 -14 -4 -9 -14 -2 -10 -8
-11 -14 -4 -9 -14 -2 -11 -8
-11 -14 -4 -9 -14 -2 -11 -8
-10 -14 -3 -9 -14 -2 -12 -9
-10 -14 -3 -9 -14 -2 -12 -9
-10 -14 -3 -9 -14 -2 -12 -9
-10 -14 -3 -9 -14 -2 -13 -9
-10 -14 -3 -9 -14 -2 -13 -9
-11 -13 -2 -8 -13 -2 -14 -10
-13 -13 3 -5 -13 -2 -15 -13
-15 -14 6 -3 -12 -2 -17 -15
-17 -15 10 1 -11 -2 -18 -18
-19 -15 14 3 -11 -2 -20 -20
-22 -16 19 7 -10 -3 -21 -22
-25 -16 27 14 -8 -2 -22 -24
-28 -16 35 21 -5 0 -24 -26
-32 -16 44 28 -3 2 -25 -28
-35 -16 52 35 0 3 -27 -29
-36 -14 58 46 7 8 -24 -28
-28 -9 58 61 24 22 -12 -19
-19 -4 58 76 42 37 1 -10
-11 1 58 93 59 52 13 -2
-3 6 58 108 76 66 25 8
12 14 50 123 101 87 46 23
36 28 28 139 140 120 80 49
62 43 6 153 179 154 115 74
87 57 -16 168 219 188 150 100
112 71 -38 183 258 222 186 126
130 79 -57 184 278 239 206 141
133 73 -69 152 260 221 193 133
135 67 -81 121 240 201 181 125
137 60 -94 91 221 182 169 116
140 54 -106 60 201 162 156 108
138 44 -111 28 168 133 134 93
122 25 -100 -6 104 81 90 64
108 8 -89 -40 39 30 47 35
93 -11 -78 -74 -24 -21 4 6
77 -29 -67 -108 -89 -71 -40 -23
62 -41 -53 -128 -131 -106 -70 -45
46 -40 -31 -112 -120 -100 -72 -48
28 -38 -10 -97 -111 -94 -73 -51
12 -37 12 -81 -101 -88 -75 -54
-5 -35 33 -67 -92 -81 -76 -57
-19 -34 52 -56 -83 -76 -78 -60
-28 -32 65 -54 -80 -73 -79 -62
-37 -31 77 -52 -77 -70 -79 -63
-47 -29 90 -50 -74 -66 -80 -65
-55 -28 102 -48 -71 -63 -81 -66
-62 -26 112 -46 -67 -59 -82 -68
-63 -24 118 -44 -63 -55 -79 -66
-65 -22 125 -41 -58 -51 -76 -64
-66 -21 131 -39 -54 -47 -74 -62
-68 -19 136 -37 -50 -43 -71 -60
-69 -17 141 -35 -46 -39 -69 -58
-69 -19 139 -35 -46 -39 -69 -58
-69 -20 137 -34 -47 -39 -69 -58
-68 -22 136 -34 -47 -39 -68 -58
-68 -23 134 -33 -48 -39 -68 -58
-67 -25 130 -32 -49 -38 -66 -58
-64 -23 119 -31 -46 -36 -63 -55
-61 -21 110 -31 -44 -33 -59 -52
-58 -20 100 -30 -40 -31 -55 -49
-55 -18 91 -29 -37 -29 -51 -46
-51 -16 80 -28 -35 -27 -48 -43
-47 -17 69 -28 -32 -25 -46 -40
-41 -17 58 -27 -30 -23 -44 -39
-37 -18 47 -27 -27 -22 -43 -37
-33 -19 34 -26 -24 -20 -40 -36
-29 -20 25 -25 -22 -18 -38 -34
-27 -20 22 -22 -19 -16 -36 -33
-24 -20 19 -19 -17 -15 -34 -31
-22 -20 15 -16 -14 -13 -32 -30
-20 -20 12 -13 -11 -12 -30 -28
-18 -20 9 -10 -9 -10 -28 -27
-17 -20 8 -9 -9 -10 -28 -27
-17 -20 7 -9 -8 -9 -28 -27
-16 -20 6 -8 -8 -9 -28 -27
-15 -20 5 -7 -7 -8 -28 -27
-14 -20 4 -6 -6 -7 -27 -26
-14 -20 4 -6 -6 -7 -27 -26
-14 -20 3 -6 -6 -7 -27 -26
-14 -20 3 -6 -6 -7 -27 -26
-14 -20 2 -6 -6 -7 -27 -26
-14 -20 1 -6 -5 -7 -26 -26
-14 -20 1 -6 -5 -7 -26 -26
-13 -20 1 -6 -5 -7 -26 -26
-13 -20 1 -6 -5 -6 -26 -26
-12 -20 1 -6 -5 -6 -26 -26
-11 -20 0 -5 -6 -5 -25 -26
-11 -20 0 -5 -6 -5 -25 -26
-11 -20 0 -4 -5 -5 -25 -26
-11 -20 -2 -4 -5 -5 -24 -26
-11 -20 -2 -3 -4 -5 -24 -26
-11 -20 -3 -2 -3 -4 -23 -26
-11 -20 -3 -2 -3 -4 -23 -26
-11 -20 -3 -2 -3 -4 -23 -26
-11 -20 -3 -2 -3 -4 -23 -26
-11 -20 -3 -2 -3 -4 -23 -26
-10 -19 -3 -3 -3 -5 -24 -27
-10 -19 -3 -3 -3 -5 -24 -27
-10 -19 -3 -3 -3 -5 -24 -27
-10 -19 -3 -3 -4 -5 -24 -27
-10 -19 -3 -3 -4 -5 -24 -27
-10 -19 -3 -3 -5 -5 -25 -27
-10 -19 -3 -3 -5 -5 -25 -27
-10 -19 -3 -3 -5 -5 -25 -27
-9 -19 -3 -3 -5 -5 -24 -27
-9 -19 -3 -3 -5 -5 -24 -27
-8 -19 -4 -3 -4 -6 -23 -27
-8 -19 -4 -3 -4 -6 -23 -27
-8 -19 -4 -3 -4 -6 -23 -27
-8 -19 -4 -3 -4 -6 -23 -27
-8 -19 -4 -3 -4 -6 -23 -27
-9 -18 -5 -4 -4 -7 -22 -27
-9 -18 -5 -4 -4 -7 -22 -27
-9 -18 -5 -4 -5 -7 -22 -27
-8 -17 -6 -4 -5 -7 -22 -27
-8 -17 -6 -4 -6 -7 -22 -27
-7 -16 -7 -5 -7 -7 -23 -27
-7 -16 -7 -5 -7 -7 -22 -27
-7 -16 -7 -5 -7 -7 -22 -27
-7 -15 -7 -6 -7 -7 -21 -26
-7 -15 -7 -6 -7 -7 -20 -26
-7 -14 -8 -7 -7 -7 -19 -25
-6 -14 -8 -7 -7 -7 -19 -25
-6 -14 -8 -7 -7 -7 -19 -25
-5 -13 -8 -7 -7 -6 -19 -24
-4 -13 -8 -7 -7 -6 -19 -24
-3 -12 -9 -8 -6 -5 -18 -23
-3 -12 -10 -8 -6 -5 -18 -22
-3 -12 -11 -9 -6 -5 -17 -21
-3 -12 -12 -9 -6 -5 -17 -20
-3 -12 -13 -10 -6 -5 -16 -18
-4 -11 -14 -11 -7 -6 -15 -17
-4 -10 -15 -12 -7 -6 -15 -17
-3 -9 -16 -13 -8 -6 -15 -17
-2 -8 -17 -14 -9 -6 -15 -17
0 -7 -19 -15 -10 -6 -15 -17
1 -6 -20 -16 -11 -6 -16 -17
1 -6 -21 -18 -11 -6 -16 -17
1 -6 -22 -20 -11 -6 -15 -16
2 -6 -23 -22 -12 -6 -15 -15
2 -6 -24 -24 -12 -6 -14 -14
3 -5 -25 -26 -13 -7 -13 -13
4 -4 -26 -28 -14 -7 -13 -13
5 -3 -27 -30 -15 -7 -13 -12
6 -2 -28 -31 -16 -7 -13 -12
7 0 -30 -33 -18 -7 -13 -11
8 1 -31 -35 -19 -7 -12 -10
8 2 -31 -36 -19 -7 -12 -9
8 3 -32 -38 -20 -7 -11 -8
9 4 -33 -39 -20 -7 -11 -7
9 5 -34 -40 -21 -7 -10 -6
10 6 -35 -43 -22 -6 -9 -5
10 6 -36 -44 -22 -6 -9 -5
11 7 -37 -45 -23 -6 -8 -4
12 7 -38 -46 -23 -6 -7 -4
13 8 -39 -47 -24 -6 -6 -3
14 9 -40 -48 -25 -5 -5 -2
14 9 -40 -48 -25 -5 -5 -2
15 9 -40 -48 -25 -4 -4 0
15 10 -40 -49 -24 -4 -4 1
16 10 -40 -49 -24 -3 -3 2
17 11 -41 -50 -23 -2 -2 3
18 12 -41 -50 -22 0 0 3
19 13 -41 -50 -20 1 1 3
20 14 -41 -49 -19 2 2 4
21 15 -41 -49 -18 3 3 4
22 16 -43 -48 -16 4 4 5
22 16 -43 -46 -14 5 5 5
22 16 -41 -43 -12 6 7 6
22 16 -40 -40 -9 7 9 6
22 16 -39 -37 -7 9 10 7
22 16 -38 -35 -5 10 12 8
22 16 -37 -33 -3 11 13 8
22 16 -35 -30 1 12 14 8
22 16 -34 -28 3 13 15 8
22 16 -33 -25 6 15 16 8
21 15 -31 -23 8 16 17 8
21 15 -29 -20 10 17 17 8
21 15 -27 -18 12 18 17 8
21 15 -25 -15 14 19 17 8
21 15 -23 -13 16 20 17 8
21 15 -21 -10 18 21 17 7
21 15 -19 -8 19 22 17 7
20 14 -18 -6 20 23 17 7
19 14 -16 -4 21 24 17 6
18 13 -14 -2 23 25 17 6
17 12 -12 1 24 26 18 5
16 12 -11 2 24 26 18 5
15 12 -9 3 24 26 18 5
14 11 -8 4 24 26 17 4
13 11 -7 5 24 26 17 4
12 10 -5 6 25 25 16 3
12 10 -5 6 25 25 16 3
12 10 -4 6 25 24 15 2
11 9 -3 5 25 24 15 1
11 9 -2 5 25 23 14 0
10 8 0 4 25 22 13 -2
10 8 0 4 25 22 13 -2
9 8 0 4 25 21 13 -3
9 8 0 3 24 21 12 -3
8 8 0 3 24 20 12 -4
7 7 1 2 23 19 11 -5
7 7 1 2 23 19 11 -5
7 7 1 2 23 19 10 -5
7 7 1 2 22 19 9 -6
7 7 1 2 22 19 8 -6
7 7 2 1 21 18 7 -7
7 7 2 1 21 18 7 -7
7 7 2 1 21 18 7 -7
7 6 2 1 20 18 7 -7
7 6 2 1 20 18 7 -7
6 5 1 1 19 19 7 -6
6 5 1 1 19 19 7 -6
6 5 1 0 18 18 7 -6
6 5 1 0 18 18 6 -7
6 5 1 -2 17 17 6 -7
7 6 1 -3 16 16 5 -8
7 6 1 -3 16 16 5 -8
7 6 2 -3 16 16 5 -8
7 6 2 -3 16 16 5 -8
7 6 3 -3 16 16 5 -8
6 5 4 -2 16 16 6 -9
6 5 4 -2 16 16 6 -9
6 5 4 -2 15 16 6 -9
5 5 4 0 15 16 6 -8
5 5 4 0 14 16 6 -8
4 4 5 1 13 16 7 -7
4 4 5 1 13 16 7 -7
4 4 5 1 13 16 7 -7
4 5 5 1 13 15 7 -7
4 5 5 1 13 15 7 -7
4 6 4 2 12 14 6 -8
4 6 4 2 12 14 6 -8
4 6 4 2 12 14 6 -8
4 7 4 2 12 14 6 -8
4 7 4 2 12 14 6 -8
5 8 3 2 11 14 5 -8
5 8 3 2 11 14 5 -8
5 8 3 2 11 14 5 -8
5 8 3 2 11 14 5 -8
5 8 3 2 11 14 5 -8
4 8 3 3 11 14 6 -7
4 8 3 3 11 14 6 -7
4 8 4 3 11 14 6 -7
4 8 4 3 11 15 7 -6
4 8 5 3 11 15 7 -6
4 9 6 3 11 16 8 -5
4 9 6 3 11 16 8 -5
4 9 6 3 11 16 8 -5
4 9 6 3 11 17 7 -5
4 9 6 3 11 17 7 -5
5 9 6 4 12 18 6 -4
5 9 6 4 12 18 6 -4
5 9 6 4 12 18 6 -4
5 9 6 4 12 18 7 -4
5 9 6 4 12 18 7 -4
5 9 5 4 11 18 8 -4
5 9 5 4 11 18 8 -4
5 9 5 4 11 18 8 -4
4 9 5 4 11 18 9 -3
4 9 5 4 11 18 9 -3
3 10 4 3 11 17 10 -2
3 10 4 3 11 17 10 -2
3 10 4 3 11 17 9 -2
3 10 3 3 11 17 9 -2
3 10 3 3 11 17 8 -2
4 10 2 3 10 17 7 -3
4 10 2 3 10 17 7 -3
4 10 2 3 10 17 7 -3
4 10 2 2 10 17 7 -3
4 10 2 2 10 17 7 -3
5 9 1 1 9 16 7 -4
5 9 1 1 9 16 7 -4
5 9 1 1 9 16 7 -4
5 9 1 0 8 16 6 -5
5 9 1 0 8 16 6 -5
4 8 0 -2 7 17 5 -6
4 8 0 -2 7 17 5 -6
4 8 0 -3 6 17 5 -6
4 7 0 -3 6 17 5 -6
4 7 0 -4 5 17 5 -6
3 6 -2 -5 4 17 5 -7
3 6 -2 -5 4 17 5 -7
3 6 -2 -5 5 17 5 -7
3 6 0 -5 5 17 5 -6
3 6 0 -5 6 17 5 -6
4 6 1 -5 7 16 6 -5
4 6 1 -5 7 16 6 -5
4 6 0 -5 7 16 6 -5
4 5 0 -5 6 15 6 -5
4 5 -2 -5 6 15 6 -5
4 4 -3 -5 5 14 6 -6
4 4 -3 -5 5 14 6 -6
4 4 -3 -5 5 14 6 -6
4 4 -3 -5 4 14 5 -6
4 4 -3 -5 4 14 5 -6
4 4 -4 -6 3 13 4 -5
4 4 -4 -6 3 13 4 -5
4 4 -4 -6 3 12 4 -5
4 4 -4 -6 3 11 4 -6
4 4 -4 -6 3 10 4 -6
3 4 -5 -6 2 9 4 -7
3 4 -5 -6 2 9 4 -7
3 4 -5 -6 2 9 4 -7
3 4 -5 -6 1 9 4 -7
3 4 -5 -6 1 9 4 -7
3 4 -4 -5 0 8 4 -6
3 4 -4 -5 0 8 4 -6
3 4 -4 -5 0 8 4 -6
3 4 -4 -5 0 8 4 -6
3 4 -4 -5 0 8 4 -6
3 3 -3 -5 0 8 4 -7
3 3 -3 -5 0 8 4 -7
3 3 -3 -5 0 8 4 -7
3 3 -4 -5 -2 7 4 -7
3 3 -4 -5 -2 7 4 -7
3 3 -5 -6 -3 6 4 -7
3 3 -5 -6 -3 6 4 -7
3 3 -5 -6 -3 6 4 -7
3 3 -5 -6 -3 6 4 -7
3 3 -5 -6 -3 6 4 -7
3 4 -4 -7 -3 5 3 -6
3 5 -3 -7 -3 6 3 -5
3 6 -2 -6 -3 7 4 -4
3 7 1 -6 -2 8 4 -3
3 8 2 -5 -2 9 5 -2
2 10 4 -4 0 11 6 0
2 10 4 -4 0 11 6 0
3 11 4 -3 1 11 7 0
3 11 5 -3 2 11 7 1
4 12 5 -2 3 11 8 1
5 13 6 0 4 10 9 2
5 13 6 0 4 10 9 2
6 13 6 0 4 10 9 2
6 13 6 0 4 10 9 2
7 13 6 0 4 10 9 2
8 14 6 1 5 11 9 3
8 14 6 1 6 11 10 3
8 14 6 2 7 12 11 4
8 15 7 3 8 12 12 4
8 15 7 4 9 13 13 5
8 16 8 5 11 14 14 6
8 18 8 5 11 15 15 7
9 20 7 5 12 16 16 8
10 22 7 5 13 17 17 9
11 24 6 5 14 18 18 10
12 26 5 6 15 19 19 12
13 26 4 6 15 19 19 12
14 26 2 6 15 18 19 12
15 26 0 6 15 18 19 12
16 26 -3 6 15 17 19 12
17 25 -5 5 14 16 18 11
17 23 -5 4 13 15 17 10
17 21 -6 3 12 13 16 9
17 19 -7 2 10 12 14 7
17 17 -8 1 9 10 13 6
16 14 -9 0 7 8 11 4
16 13 -9 -2 6 7 10 3
16 11 -9 -3 5 6 9 2
15 10 -9 -4 4 4 8 1
15 8 -9 -5 3 3 7 0
14 6 -10 -6 2 1 6 -2
13 6 -10 -7 2 1 6 -2
12 5 -10 -8 1 0 5 -2
11 4 -10 -9 0 -2 4 -3
10 3 -10 -10 -2 -3 3 -3
8 2 -9 -12 -3 -4 2 -4
7 2 -9 -12 -3 -4 2 -4
6 2 -9 -12 -3 -4 2 -4
5 2 -8 -12 -3 -4 2 -4
4 2 -8 -12 -3 -4 2 -4
2 2 -7 -11 -3 -5 2 -3
2 1 -7 -11 -3 -5 2 -3
2 0 -7 -11 -3 -6 1 -4
1 -2 -7 -11 -3 -6 1 -5
1 -3 -7 -11 -3 -7 0 -6
0 -5 -7 -11 -4 -8 -2 -7
0 -5 -7 -11 -5 -8 -2 -7
0 -5 -7 -12 -6 -8 -3 -7
0 -6 -7 -12 -7 -9 -3 -8
0 -6 -7 -13 -8 -9 -4 -8
0 -7 -8 -14 -9 -10 -5 -9
0 -7 -8 -14 -9 -10 -5 -9
0 -7 -8 -14 -9 -10 -5 -9
0 -7 -8 -14 -9 -10 -5 -10
0 -7 -8 -14 -9 -10 -5 -10
-2 -8 -8 -13 -8 -9 -4 -11
-2 -8 -8 -13 -8 -9 -4 -11
-2 -8 -8 -13 -8 -9 -4 -11
-2 -8 -8 -13 -8 -9 -4 -10
-2 -8 -8 -13 -8 -9 -4 -10
-3 -9 -9 -12 -9 -10 -4 -9
-3 -9 -9 -12 -9 -10 -4 -9
-3 -9 -9 -12 -9 -10 -4 -9
-4 -9 -9 -12 -10 -10 -5 -9
-4 -9 -9 -12 -10 -10 -5 -9
-5 -9 -8 -12 -11 -11 -6 -10
-5 -9 -8 -12 -11 -11 -6 -10
-5 -9 -8 -12 -11 -11 -6 -10
-5 -9 -8 -12 -11 -11 -6 -10
-5 -9 -8 -12 -11 -11 -6 -10
-6 -9 -8 -12 -11 -11 -6 -10
-6 -9 -8 -12 -11 -11 -6 -10
-6 -9 -8 -11 -11 -10 -6 -10
-6 -9 -8 -11 -11 -10 -6 -10
-6 -9 -8 -10 -11 -9 -6 -10
-7 -8 -8 -9 -10 -8 -5 -10
-7 -8 -8 -9 -10 -8 -5 -10
-7 -8 -8 -9 -10 -8 -4 -10
-7 -9 -8 -9 -9 -8 -4 -10
-7 -9 -8 -9 -9 -8 -3 -10
-8 -10 -8 -9 -8 -7 -2 -9
-9 -10 -4 -6 -8 -7 -3 -9
-11 -11 1 -2 -8 -7 -5 -10
-13 -11 6 3 -8 -7 -6 -11
-15 -12 10 7 -8 -7 -8 -12
-17 -13 15 11 -7 -7 -10 -13
-20 -13 22 18 -4 -6 -10 -13
-24 -13 30 25 1 -4 -10 -14
-28 -13 37 32 4 -2 -10 -15
-32 -13 46 39 8 1 -10 -16
-36 -13 54 48 12 3 -11 -17
-24 -7 51 63 31 19 5 -6
-12 0 48 78 51 35 20 6
1 6 45 94 70 52 35 17
13 12 42 109 90 68 51 28
25 18 38 125 109 86 66 39
51 31 16 133 140 113 97 63
76 46 -7 141 171 141 128 87
102 60 -30 150 202 169 159 110
128 74 -53 158 233 196 190 134
153 89 -76 168 265 224 222 157
152 72 -85 131 219 181 189 136
151 56 -93 94 173 138 155 113
149 39 -101 57 127 94 121 91
148 24 -108 20 81 51 88 68
147 8 -116 -17 35 8 55 47
130 -2 -105 -36 2 -17 30 29
113 -11 -92 -56 -31 -41 6 12
97 -19 -78 -75 -64 -66 -19 -6
80 -28 -65 -95 -97 -91 -44 -23
64 -36 -53 -113 -130 -115 -68 -39
47 -36 -31 -98 -120 -109 -68 -41
30 -34 -10 -81 -109 -101 -67 -43
13 -32 11 -65 -98 -93 -65 -44
-4 -30 32 -49 -87 -85 -64 -45
-20 -28 53 -32 -75 -76 -63 -46
-28 -27 65 -30 -72 -72 -62 -47
-36 -26 77 -28 -69 -69 -62 -48
-45 -25 90 -26 -66 -65 -61 -48
-53 -24 102 -24 -63 -62 -61 -49
-60 -24 113 -22 -60 -59 -61 -49
-62 -22 119 -18 -56 -54 -57 -48
-63 -20 126 -14 -52 -50 -54 -46
-65 -18 132 -11 -48 -46 -51 -44
-66 -16 138 -7 -44 -41 -48 -41
-67 -15 144 -4 -39 -37 -45 -39
-68 -15 144 -5 -40 -37 -44 -38
-68 -17 142 -8 -43 -38 -45 -38
-67 -19 141 -11 -46 -39 -45 -38
-67 -21 139 -14 -48 -40 -46 -38
-67 -22 138 -17 -50 -41 -46 -38
-63 -22 128 -18 -50 -41 -45 -37
-60 -20 117 -19 -48 -39 -41 -34
-57 -18 107 -19 -47 -37 -39 -31
-54 -16 97 -20 -45 -35 -36 -28
-51 -15 87 -20 -44 -34 -34 -26
-47 -15 75 -21 -43 -33 -32 -24
-43 -16 64 -20 -41 -32 -30 -22
-38 -17 53 -20 -40 -32 -29 -21
-34 -18 42 -19 -39 -31 -27 -19
-30 -19 30 -19 -39 -31 -26 -18
-28 -20 26 -16 -36 -29 -24 -16
-26 -20 22 -14 -33 -27 -22 -15
-24 -20 19 -12 -30 -25 -20 -13
-22 -20 15 -10 -27 -23 -18 -12
-20 -20 12 -8 -24 -21 -17 -11
-19 -19 10 -7 -23 -20 -16 -10
-18 -19 8 -7 -22 -19 -16 -10
-17 -19 7 -6 -22 -19 -16 -10
-16 -19 5 -6 -21 -18 -16 -10
-16 -19 4 -6 -21 -18 -16 -10
-15 -18 3 -5 -20 -17 -15 -11
-15 -18 2 -5 -20 -18 -15 -11
-14 -18 2 -5 -20 -18 -15 -11
-14 -18 1 -5 -20 -19 -15 -11
-14 -18 1 -5 -20 -19 -15 -11
-13 -18 0 -6 -20 -20 -15 -10
-13 -18 0 -5 -20 -20 -15 -10
-12 -18 -2 -5 -20 -20 -15 -10
-12 -18 -2 -4 -20 -20 -15 -10
-12 -18 -2 -4 -20 -20 -15 -10
-11 -17 -3 -3 -19 -20 -14 -9
-11 -17 -3 -3 -19 -19 -13 -8
-11 -17 -3 -3 -18 -19 -12 -8
-11 -17 -3 -3 -18 -18 -11 -7
-11 -17 -3 -3 -18 -18 -11 -7
-11 -17 -4 -2 -17 -17 -10 -6
-11 -17 -4 -2 -17 -17 -11 -6
-11 -17 -4 -2 -17 -17 -11 -6
-11 -17 -4 -2 -17 -17 -12 -6
-11 -17 -4 -2 -17 -17 -12 -6
-11 -17 -4 -2 -18 -17 -13 -6
-11 -17 -4 -2 -18 -17 -13 -6
-11 -17 -4 -3 -18 -18 -13 -7
-11 -17 -4 -3 -18 -18 -13 -7
-11 -17 -4 -3 -18 -18 -13 -7
-11 -17 -4 -4 -18 -19 -14 -8
-11 -17 -4 -4 -18 -20 -15 -8
-11 -17 -4 -4 -19 -20 -15 -8
-11 -17 -4 -4 -19 -21 -16 -8
-11 -17 -4 -4 -19 -21 -16 -8
-11 -18 -5 -4 -20 -22 -17 -8
-11 -18 -5 -4 -20 -22 -17 -7
-11 -18 -5 -4 -20 -21 -17 -7
-11 -18 -5 -4 -20 -21 -17 -6
-11 -18 -5 -4 -20 -21 -17 -6
-12 -19 -6 -4 -20 -20 -16 -5
-11 -19 -6 -4 -20 -19 -15 -5
-11 -19 -7 -3 -20 -19 -15 -5
-10 -19 -7 -3 -20 -18 -14 -5
-10 -19 -7 -3 -20 -18 -14 -5
-9 -18 -8 -2 -19 -17 -13 -5
-9 -18 -8 -2 -19 -18 -13 -5
-9 -17 -9 -3 -19 -19 -13 -5
-9 -17 -9 -3 -19 -20 -13 -5
-9 -17 -9 -3 -19 -20 -13 -5
-10 -16 -10 -4 -18 -21 -13 -4
-10 -16 -10 -4 -18 -21 -13 -3
-10 -16 -10 -4 -19 -21 -12 -3
-10 -16 -10 -4 -19 -21 -12 -2
-10 -16 -10 -4 -19 -21 -12 -2
-9 -16 -11 -5 -20 -20 -11 0
-9 -15 -12 -6 -21 -20 -11 1
-9 -15 -13 -7 -21 -20 -10 1
-9 -14 -14 -8 -22 -20 -10 2
-9 -14 -15 -9 -22 -20 -10 2
-8 -13 -17 -10 -23 -20 -9 3
-7 -12 -18 -11 -23 -20 -9 3
-7 -11 -19 -12 -24 -20 -10 3
-6 -10 -20 -13 -24 -20 -10 3
-6 -9 -21 -14 -24 -20 -10 3
-5 -8 -22 -15 -25 -21 -10 5
-4 -8 -23 -16 -26 -21 -9 7
-3 -8 -24 -17 -27 -21 -8 8
-2 -8 -25 -18 -28 -21 -7 10
-2 -8 -25 -19 -28 -21 -6 11
0 -9 -27 -21 -30 -22 -5 12
1 -8 -29 -23 -31 -23 -5 13
1 -7 -30 -25 -33 -23 -4 13
2 -6 -32 -27 -34 -24 -4 14
2 -5 -33 -29 -35 -24 -4 14
3 -3 -34 -31 -36 -25 -3 15
4 -2 -35 -33 -37 -25 -3 16
4 1 -35 -34 -38 -26 -3 16
5 2 -36 -36 -39 -26 -3 17
5 3 -36 -37 -40 -26 -3 17
6 4 -37 -38 -41 -27 -4 18
7 5 -38 -38 -41 -27 -4 19
8 5 -39 -39 -41 -27 -3 20
9 6 -40 -39 -41 -27 -3 21
10 6 -40 -39 -41 -27 -3 21
11 7 -44 -40 -41 -26 0 22
12 7 -46 -40 -41 -25 1 23
13 8 -48 -40 -41 -24 3 24
14 8 -51 -40 -41 -23 4 25
14 8 -53 -40 -41 -22 5 25
15 9 -54 -41 -40 -21 6 26
16 10 -55 -40 -38 -20 7 26
16 10 -55 -39 -37 -20 8 26
17 11 -56 -38 -35 -19 9 26
17 11 -56 -37 -34 -19 9 26
18 12 -57 -35 -31 -17 10 26
18 13 -56 -32 -29 -15 11 26
18 13 -56 -30 -27 -13 12 26
18 14 -55 -28 -24 -11 13 26
18 14 -55 -26 -22 -9 13 26
18 15 -53 -23 -19 -7 14 26
18 14 -52 -20 -17 -5 14 26
18 13 -50 -17 -15 -3 15 26
18 12 -49 -15 -12 -2 15 26
18 12 -48 -12 -10 1 15 26
19 11 -46 -9 -8 2 16 27
18 11 -45 -7 -6 3 16 27
17 11 -43 -5 -5 4 17 27
16 11 -41 -2 -3 5 17 27
16 11 -40 1 -2 6 17 27
15 10 -38 3 1 7 18 27
15 10 -36 5 2 8 18 26
14 10 -35 7 4 9 18 26
14 10 -33 9 5 10 18 25
14 10 -32 11 6 11 18 25
13 10 -30 12 7 12 18 24
12 9 -29 13 8 12 18 24
11 8 -27 14 8 12 18 24
10 7 -26 15 9 12 18 24
9 6 -25 15 9 12 18 24
8 5 -24 16 10 12 17 23
7 5 -23 17 10 11 16 22
6 5 -22 17 10 11 15 21
5 5 -21 18 10 10 14 20
5 5 -20 18 10 10 14 20
4 5 -19 19 10 9 13 19
4 4 -18 19 10 8 12 18
3 4 -18 20 10 8 12 18
3 3 -17 20 10 7 11 17
3 3 -17 20 10 7 11 17
2 2 -16 21 9 6 10 16
2 1 -16 21 9 6 10 16
2 1 -15 21 9 6 10 16
2 0 -15 21 9 6 10 16
2 0 -15 21 9 6 10 16
2 -2 -14 20 8 6 9 15
1 -2 -15 20 8 6 9 14
1 -2 -15 20 8 5 8 14
0 -2 -16 20 8 5 8 13
0 -2 -16 20 8 5 8 13
-2 0 -17 19 7 4 7 12
-2 0 -17 19 7 4 8 12
-2 0 -17 18 7 3 8 12
-2 0 -17 18 7 3 9 12
-2 0 -17 18 7 3 9 12
0 0 -16 17 7 2 10 13
0 0 -16 17 7 2 10 13
0 0 -16 17 7 2 10 13
0 0 -16 17 7 2 10 13
0 0 -16 17 7 2 10 13
-2 0 -15 17 7 1 9 13
-2 0 -15 17 7 1 9 13
-2 0 -15 17 7 1 9 12
-2 0 -15 17 7 1 9 12
-2 0 -15 17 7 1 9 12
-3 1 -14 17 6 1 8 11
-3 1 -14 18 6 1 8 11
-3 1 -14 18 6 1 8 11
-3 1 -14 19 6 1 8 11
-3 1 -14 19 6 1 8 11
-3 2 -13 20 7 1 7 11
-3 2 -13 20 8 1 7 11
-3 2 -14 20 8 2 8 12
-3 2 -14 20 9 2 8 12
-3 2 -14 20 9 2 8 12
-2 1 -15 20 10 3 9 13
-2 2 -15 20 10 3 9 13
-2 2 -15 21 10 4 10 13
-2 3 -15 21 10 4 10 13
-2 3 -15 21 10 4 10 13
-3 4 -16 22 10 5 11 12
-3 4 -17 22 10 5 11 12
-3 3 -17 21 11 5 12 12
-3 3 -18 21 11 5 12 12
-3 3 -18 21 11 5 12 12
-3 2 -19 20 12 5 13 13
-3 2 -20 19 12 5 13 13
-3 2 -20 18 12 5 12 13
-3 2 -21 17 12 5 12 13
-3 2 -21 17 12 5 12 13
-3 3 -22 16 12 6 11 13
-3 3 -22 16 12 6 11 13
-3 3 -22 15 12 6 11 13
-3 3 -22 15 12 6 11 13
-3 3 -22 15 12 6 11 13
-3 4 -21 14 13 6 10 12
-3 4 -21 14 13 6 10 12
-3 4 -21 14 13 5 10 12
-3 4 -21 14 13 5 10 12
-3 4 -21 14 13 5 10 12
-2 3 -21 15 13 4 10 13
-2 3 -22 15 13 4 10 14
-2 4 -22 15 13 4 10 14
-2 4 -23 15 13 4 10 15
-2 4 -23 15 13 4 10 15
-2 5 -24 15 13 4 10 16
-2 5 -24 14 12 4 10 16
-2 5 -24 14 11 5 9 16
-2 5 -24 13 10 5 9 16
-2 5 -24 13 10 5 9 16
-2 6 -23 12 9 6 8 15
-2 6 -22 12 9 7 8 15
-2 6 -22 12 9 7 8 14
-2 6 -21 12 9 8 8 14
-2 6 -21 12 9 8 8 14
-3 5 -20 12 10 9 9 13
-3 4 -20 12 9 8 8 13
-3 4 -19 12 8 8 8 12
-3 3 -19 12 7 7 7 12
-3 3 -19 12 7 7 7 12
-3 2 -18 12 5 6 6 11
-3 2 -18 12 4 6 6 11
-3 2 -18 12 2 6 6 10
-3 2 -18 12 0 6 6 10
-3 2 -18 12 -2 6 6 10
-3 2 -18 12 -3 6 6 9
-3 2 -18 12 -3 6 6 9
-3 2 -18 11 -3 6 6 9
-3 2 -18 11 -3 6 6 9
-3 2 -18 11 -3 6 6 9
-2 2 -18 10 -4 7 6 9
-2 2 -18 10 -4 7 6 9
-2 2 -18 10 -4 6 6 9
-2 2 -18 10 -4 6 6 9
-2 2 -18 10 -4 6 6 9
-3 2 -17 10 -4 5 6 10
-3 2 -17 9 -5 5 6 10
-3 2 -16 8 -5 4 6 9
-3 2 -16 7 -6 4 6 9
-3 2 -16 7 -6 4 6 9
-3 2 -15 6 -7 3 5 8
-3 2 -15 6 -7 3 5 8
-3 2 -14 6 -7 3 4 7
-3 2 -14 6 -7 3 4 7
-3 2 -14 6 -7 3 4 7
-3 1 -13 7 -8 3 3 6
-3 1 -12 7 -8 4 5 6
-3 1 -12 8 -7 5 6 7
-3 1 -11 8 -7 6 7 7
-3 1 -11 8 -7 6 8 7
-3 2 -10 9 -6 7 9 8
-3 2 -10 9 -7 6 7 7
-3 3 -10 9 -7 5 6 7
-3 3 -10 9 -8 4 5 6
-3 3 -10 9 -8 4 4 6
-3 4 -10 8 -9 3 3 5
-3 5 -10 8 -9 3 3 5
-3 6 -9 9 -9 3 4 5
-3 7 -9 9 -9 3 4 5
-3 8 -9 9 -9 3 4 5
-3 9 -8 10 -7 4 5 6
-3 10 -7 11 -6 4 5 6
-2 11 -6 11 -5 5 5 7
-2 12 -5 12 -3 5 5 7
-2 12 -5 12 -2 5 5 7
0 13 -4 13 0 6 6 8
0 13 -4 13 0 7 7 8
1 14 -4 13 0 8 7 9
1 14 -4 13 0 9 8 9
1 14 -4 13 0 10 8 9
2 15 -4 13 1 11 9 10
2 15 -2 15 2 12 10 11
3 15 0 16 3 12 11 12
3 15 1 17 4 13 12 13
3 15 2 18 4 13 13 13
4 16 3 19 5 14 14 14
5 19 3 19 6 15 15 15
5 22 2 19 7 16 16 16
6 24 2 19 8 17 17 17
6 27 2 19 8 18 18 17
7 28 0 20 9 19 19 18
8 28 -2 20 9 20 19 19
9 28 -3 19 9 20 19 19
9 28 -5 19 9 21 19 20
10 28 -6 19 9 21 19 20
11 27 -7 18 10 22 20 21
11 25 -8 16 9 21 19 19
11 22 -9 15 8 20 18 18
11 20 -9 14 8 20 17 17
11 18 -10 13 7 19 16 16
11 16 -11 11 5 17 14 14
11 14 -11 9 4 16 13 13
10 11 -11 8 3 14 11 11
10 9 -11 6 1 13 10 10
10 7 -11 4 0 11 8 8
9 5 -10 2 -3 10 7 7
8 4 -10 1 -4 8 6 6
7 2 -10 0 -5 7 5 6
7 1 -10 -3 -7 6 4 5
6 -2 -10 -4 -8 5 3 5
4 -3 -9 -5 -9 4 2 4
3 -3 -8 -5 -9 4 2 4
2 -3 -7 -5 -8 5 3 4
0 -3 -6 -5 -8 5 3 4
-2 -3 -5 -5 -8 5 3 4
-3 -3 -4 -4 -7 6 4 5
-4 -3 -4 -4 -7 5 3 4
-5 -4 -4 -4 -8 5 2 3
-5 -4 -4 -4 -8 4 1 3
-6 -4 -4 -4 -8 4 0 2
-7 -5 -4 -4 -9 3 -2 1
-7 -6 -4 -6 -10 2 -3 0
-7 -7 -4 -7 -10 1 -4 -2
-7 -7 -4 -8 -11 0 -4 -2
-7 -8 -4 -9 -11 -2 -5 -3
-8 -9 -4 -10 -12 -3 -6 -4
-8 -9 -4 -10 -12 -4 -6 -4
-8 -9 -4 -11 -12 -4 -6 -4
-8 -9 -4 -11 -12 -5 -6 -4
-8 -9 -4 -11 -12 -5 -6 -4
-8 -10 -5 -12 -13 -6 -7 -4
-8 -10 -5 -12 -13 -6 -7 -4
-8 -10 -5 -12 -13 -6 -7 -5
-8 -10 -5 -12 -13 -6 -7 -5
-8 -10 -5 -12 -13 -6 -7 -5
-7 -9 -6 -11 -14 -6 -8 -6
-7 -9 -5 -11 -14 -6 -8 -7
-8 -10 -4 -11 -14 -6 -8 -7
-8 -10 -4 -11 -14 -6 -8 -8
-8 -10 -3 -11 -14 -6 -8 -8
-9 -11 -2 -12 -13 -7 -7 -9
-9 -11 -2 -12 -13 -7 -7 -9
-9 -12 -2 -12 -13 -7 -7 -10
-9 -12 -2 -12 -13 -7 -7 -10
-9 -12 -2 -12 -13 -7 -7 -10
-9 -13 0 -11 -12 -7 -8 -11
-9 -13 0 -11 -12 -7 -8 -11
-9 -13 0 -11 -12 -6 -8 -10
-9 -13 0 -11 -12 -6 -8 -10
-9 -13 0 -11 -12 -6 -8 -10
-10 -12 -2 -10 -11 -5 -7 -9
-10 -12 -2 -10 -11 -5 -7 -9
-10 -12 -2 -10 -11 -5 -6 -8
-10 -12 -2 -10 -11 -5 -6 -8
-10 -12 -2 -10 -11 -5 -6 -8
-10 -13 2 -7 -10 -5 -5 -7
-12 -13 6 -4 -9 -5 -6 -8
-13 -14 10 0 -8 -5 -6 -9
-14 -14 14 3 -8 -5 -7 -10
-15 -14 18 7 -7 -5 -7 -11
-18 -15 25 14 -4 -5 -9 -13
-22 -15 33 22 1 -3 -10 -16
-25 -16 42 31 5 -2 -12 -19
-29 -16 50 40 9 1 -13 -21
-32 -16 58 50 13 3 -15 -24
-29 -14 61 62 26 13 -8 -19
-20 -8 60 76 44 27 6 -10
-12 -2 59 91 60 43 19 0
-4 4 59 104 77 57 32 9
6 10 58 118 94 71 46 18
25 20 42 125 120 98 75 39
50 32 18 128 152 130 112 67
73 45 -6 131 184 161 149 95
98 57 -29 134 215 193 186 122
122 70 -53 137 246 226 223 150
132 69 -67 118 235 213 226 153
133 62 -78 90 202 178 211 145
135 54 -89 61 170 143 196 136
136 47 -99 32 137 108 182 127
138 38 -109 4 104 73 167 117
129 26 -106 -21 63 38 132 95
113 11 -95 -44 17 2 87 66
98 -4 -83 -65 -28 -34 43 36
82 -18 -72 -88 -73 -70 -3 8
66 -33 -61 -109 -118 -106 -47 -21
51 -37 -44 -106 -127 -113 -62 -33
35 -34 -23 -89 -114 -106 -62 -36
19 -32 -3 -71 -103 -98 -61 -39
4 -29 19 -54 -92 -91 -61 -43
-12 -26 39 -36 -79 -82 -61 -46
-22 -25 55 -28 -73 -77 -60 -49
-30 -25 68 -25 -69 -73 -61 -52
-37 -25 81 -21 -66 -70 -61 -54
-45 -25 95 -18 -62 -66 -62 -56
-52 -25 108 -15 -59 -63 -62 -59
-56 -23 116 -13 -55 -58 -61 -59
-57 -22 122 -13 -51 -54 -57 -56
-59 -20 128 -12 -46 -49 -53 -54
-61 -19 134 -11 -41 -45 -50 -51
-63 -17 140 -11 -37 -39 -46 -48
-64 -16 142 -10 -36 -37 -44 -47
-64 -16 142 -11 -39 -38 -44 -47
-63 -17 143 -13 -41 -39 -44 -47
-62 -18 144 -14 -45 -39 -44 -47
-62 -18 144 -15 -48 -40 -44 -47
-60 -19 141 -16 -49 -41 -44 -46
-59 -19 134 -17 -48 -41 -41 -44
-57 -18 126 -18 -47 -40 -40 -43
-55 -18 118 -18 -47 -40 -38 -40
-53 -18 111 -19 -46 -40 -37 -39
-50 -17 101 -20 -44 -38 -35 -37
-46 -17 89 -20 -43 -36 -32 -34
-41 -18 77 -20 -40 -34 -29 -31
-37 -18 65 -20 -39 -32 -26 -28
-33 -18 54 -20 -37 -30 -23 -25
-30 -19 46 -18 -35 -28 -20 -23
-28 -19 40 -15 -32 -27 -18 -21
-25 -20 34 -12 -30 -25 -16 -19
-23 -21 29 -9 -27 -23 -14 -17
-20 -21 23 -6 -24 -21 -12 -15
-19 -22 20 -4 -23 -20 -11 -14
-17 -21 18 -3 -23 -20 -11 -14
-16 -20 16 -2 -23 -19 -11 -14
-14 -20 14 0 -23 -19 -11 -14
-13 -19 12 1 -23 -19 -11 -14
-12 -18 11 2 -22 -18 -10 -14
-12 -18 11 2 -22 -18 -10 -14
-12 -18 10 3 -21 -17 -9 -14
-12 -18 10 4 -21 -17 -9 -14
-12 -18 10 4 -21 -17 -9 -14
-13 -18 9 5 -20 -16 -8 -15
-12 -19 9 6 -19 -15 -7 -13
-11 -20 8 7 -17 -14 -6 -12
-11 -20 7 7 -16 -13 -6 -10
-10 -21 7 8 -15 -12 -5 -9
-9 -22 6 9 -14 -11 -4 -8
-9 -22 5 9 -14 -11 -4 -8
-10 -21 4 9 -14 -12 -5 -9
-10 -20 4 9 -14 -12 -5 -10
-10 -20 3 9 -14 -12 -5 -10
-11 -19 2 9 -15 -13 -6 -11
-11 -19 2 9 -15 -13 -6 -11
-10 -19 1 9 -15 -13 -7 -12
-9 -19 1 9 -15 -13 -7 -13
-9 -19 1 9 -15 -13 -7 -13
-8 -18 0 9 -16 -12 -8 -14
-8 -18 0 9 -16 -12 -8 -14
-8 -18 0 9 -15 -12 -7 -13
-8 -18 0 9 -15 -12 -7 -13
-8 -18 0 9 -15 -12 -7 -13
-8 -18 -2 10 -14 -12 -6 -12
-8 -18 -2 10 -14 -13 -6 -13
-8 -18 -2 9 -14 -14 -7 -14
-8 -18 -2 9 -14 -15 -8 -14
-8 -18 -2 9 -14 -16 -8 -15
-7 -18 -2 8 -15 -17 -9 -16
-7 -18 -2 8 -14 -16 -7 -14
-7 -18 -2 9 -13 -14 -6 -12
-7 -18 -2 10 -12 -13 -4 -11
-7 -18 -2 10 -11 -12 -3 -9
-8 -18 -3 11 -10 -11 -2 -8
-8 -18 -3 11 -10 -11 -3 -8
-8 -18 -3 11 -11 -12 -4 -8
-8 -18 -3 11 -11 -12 -5 -8
-8 -18 -3 11 -11 -12 -6 -8
-7 -19 -2 11 -12 -13 -7 -9
-7 -19 -2 11 -12 -13 -7 -9
-7 -18 -2 11 -12 -14 -7 -9
-7 -18 -2 11 -12 -15 -7 -9
-7 -18 -2 11 -12 -15 -7 -9
-6 -17 -3 12 -12 -16 -8 -9
-6 -16 -3 12 -12 -16 -8 -9
-5 -15 -4 11 -12 -15 -8 -9
-5 -15 -5 11 -12 -15 -8 -9
-5 -14 -5 11 -12 -15 -8 -9
-4 -13 -6 10 -12 -14 -9 -8
-4 -13 -6 9 -12 -14 -8 -7
-3 -13 -7 8 -12 -14 -6 -6
-2 -13 -8 8 -12 -14 -5 -5
-2 -13 -8 7 -12 -14 -4 -4
0 -13 -9 6 -12 -13 -3 -3
0 -13 -11 4 -14 -14 -3 -3
1 -12 -12 3 -15 -15 -4 -2
2 -12 -14 1 -17 -15 -4 -2
2 -12 -15 0 -18 -16 -4 -2
3 -11 -16 -2 -19 -17 -5 0
3 -11 -18 -3 -19 -17 -5 1
3 -10 -19 -4 -20 -17 -5 3
3 -9 -21 -5 -21 -17 -5 4
3 -9 -22 -6 -21 -17 -5 5
3 -8 -23 -7 -22 -17 -4 6
4 -7 -24 -9 -22 -17 -4 6
6 -6 -25 -10 -23 -18 -3 6
8 -6 -25 -12 -24 -18 -2 6
10 -5 -26 -13 -24 -18 -2 6
11 -4 -27 -14 -25 -19 0 7
11 -4 -28 -15 -26 -19 0 7
11 -3 -29 -16 -28 -20 0 8
11 -2 -29 -17 -29 -21 0 8
11 -2 -30 -18 -30 -21 0 8
11 0 -31 -19 -31 -22 -2 9
12 1 -31 -20 -31 -22 -2 9
13 2 -32 -21 -32 -22 -2 9
13 2 -32 -21 -32 -22 -2 9
14 3 -32 -22 -32 -22 -2 9
15 4 -33 -23 -33 -22 -2 10
16 4 -33 -23 -33 -21 1 12
17 5 -34 -24 -33 -20 3 13
17 6 -35 -24 -33 -19 4 15
18 6 -35 -24 -33 -18 6 16
19 7 -36 -25 -32 -17 7 17
19 7 -36 -24 -30 -16 7 17
20 7 -36 -23 -29 -15 8 17
20 7 -36 -23 -27 -15 9 17
20 7 -36 -22 -26 -14 9 17
21 8 -37 -20 -24 -12 10 18
21 9 -37 -18 -21 -10 12 19
21 10 -37 -16 -19 -7 13 20
21 10 -37 -14 -16 -5 14 21
21 11 -37 -11 -14 -3 16 22
22 12 -36 -9 -11 0 17 23
22 12 -35 -7 -9 1 17 24
22 12 -34 -5 -7 3 18 25
22 12 -33 -3 -5 4 18 25
22 12 -32 0 -3 5 18 26
23 11 -30 2 0 6 19 27
22 11 -28 5 2 8 20 27
20 10 -25 8 5 10 21 27
19 10 -23 10 7 11 21 27
18 10 -21 13 9 13 22 27
17 9 -19 15 11 14 23 27
17 9 -17 17 12 14 23 26
16 9 -15 19 13 14 22 25
15 9 -14 20 14 14 21 25
15 9 -12 22 15 14 21 24
14 8 -11 23 16 15 20 23
14 8 -10 24 16 15 20 23
13 7 -8 25 17 15 20 23
12 7 -7 26 18 15 20 23
12 7 -6 27 18 15 20 23
11 6 -5 28 19 15 21 22
11 5 -3 28 19 15 21 22
10 4 0 29 19 16 20 21
10 4 1 30 19 16 20 21
10 3 3 30 19 16 20 21
9 2 4 31 19 17 19 20
9 2 5 31 19 16 18 20
8 1 6 31 18 15 17 19
8 0 6 31 18 14 16 18
8 0 7 31 18 13 15 18
7 -2 8 31 17 12 14 17
7 0 8 30 16 12 13 16
7 1 8 29 15 11 12 15
7 1 8 28 15 11 12 15
7 2 8 27 14 11 11 14
7 3 8 26 13 10 10 13
7 3 8 26 13 10 10 13
6 2 9 26 12 11 10 13
6 1 9 26 12 11 10 13
6 1 9 26 12 11 10 13
5 0 10 27 11 12 11 13
5 -2 10 27 11 12 11 12
5 -3 11 27 11 12 11 11
5 -3 11 27 11 12 11 11
5 -4 11 27 11 12 11 10
4 -5 12 27 10 13 12 9
4 -4 12 27 10 13 11 9
3 -3 11 27 10 12 10 8
3 -3 11 27 10 12 10 8
3 -2 11 27 10 12 9 8
2 0 10 27 9 11 8 7
2 0 11 27 10 11 9 7
2 -2 12 28 11 10 11 8
2 -3 12 29 11 9 12 9
2 -3 13 29 12 9 13 9
2 -4 14 30 13 8 14 10
2 -4 14 30 13 8 13 10
2 -4 13 30 13 7 12 10
2 -4 12 30 13 6 12 10
2 -4 12 30 13 6 11 10
3 -3 11 31 12 5 10 11
3 -2 12 31 12 5 10 10
3 0 13 31 12 4 10 9
3 0 13 31 12 3 10 9
3 1 14 31 12 3 10 8
3 2 15 31 11 2 9 7
3 2 15 31 11 3 10 7
3 2 14 31 12 4 11 7
3 2 14 31 12 4 11 7
3 2 14 31 12 5 12 7
2 1 13 32 13 6 13 7
2 1 13 32 13 6 13 7
2 1 13 32 14 6 14 7
2 1 13 32 15 6 14 7
2 1 13 32 15 6 14 7
3 2 14 33 16 7 15 8
3 2 14 34 16 7 15 8
2 1 14 35 16 8 16 9
2 0 14 36 16 9 16 10
2 0 14 37 16 9 16 10
1 -2 15 38 16 10 17 11
1 0 14 38 16 10 17 11
2 1 12 37 15 9 16 10
3 1 11 36 14 9 15 10
3 2 10 36 14 9 15 10
4 3 9 35 13 8 14 9
3 3 9 35 13 8 14 9
3 2 9 35 13 8 14 9
2 1 10 35 14 9 14 9
1 1 10 35 14 9 14 9
0 0 11 35 15 10 15 10
0 0 11 35 15 10 15 10
0 0 11 35 15 10 14 10
0 0 11 35 15 9 13 10
0 0 11 35 15 9 13 10
1 0 10 34 16 8 12 9
1 0 10 34 16 8 12 9
1 1 10 33 16 8 12 9
1 2 9 32 15 8 12 9
1 2 9 32 15 8 12 9
0 3 8 31 14 8 12 9
0 2 8 31 14 8 12 10
0 2 9 31 14 8 12 10
0 1 10 31 15 8 12 11
0 0 10 31 15 8 12 12
1 -2 11 31 16 8 13 13
1 0 11 30 15 8 13 11
1 1 10 29 14 7 12 10
1 2 9 27 13 6 11 9
1 3 9 26 12 6 11 7
0 4 8 25 11 5 10 6
0 4 8 25 11 5 10 6
0 3 8 25 12 5 10 6
0 2 8 25 13 6 10 6
0 2 8 25 13 6 10 6
0 1 8 24 14 7 10 6
0 0 8 24 14 7 10 6
0 0 8 24 14 6 9 6
-2 -2 8 23 13 5 8 6
-2 -3 8 23 13 5 8 6
-3 -4 7 22 12 4 7 5
-3 -3 7 21 11 3 6 5
-3 -3 7 21 10 3 6 4
-3 -2 6 20 9 2 5 3
-3 0 6 19 8 1 4 3
-3 1 5 18 7 0 3 2
-3 1 5 18 7 0 3 2
-3 1 5 18 7 0 3 3
-3 0 5 18 7 0 3 4
-3 0 5 18 7 0 3 4
-4 -2 4 17 8 1 3 5
-4 -2 4 17 8 1 3 5
-4 -2 4 17 8 1 4 5
-4 -2 5 16 8 2 5 6
-4 -2 5 16 8 2 5 6
-4 -2 6 15 8 3 6 7
-4 -2 6 15 8 3 5 6
-4 -3 6 15 8 3 4 6
-4 -4 6 15 8 2 3 5
-4 -4 6 15 8 2 2 4
-4 -5 7 16 8 1 1 3
-4 -4 7 16 8 1 1 3
-4 -4 7 15 8 2 1 3
-4 -3 6 14 8 3 1 3
-4 -2 6 14 8 3 1 3
-4 0 5 13 9 4 1 3
-4 1 5 14 9 5 3 3
-4 2 6 14 9 6 4 4
-4 3 7 15 10 7 5 5
-4 4 7 16 10 8 7 5
-4 5 8 17 11 9 8 6
-4 5 8 17 11 9 8 8
-4 5 9 17 12 9 8 9
-4 5 10 17 13 9 9 11
-4 5 10 17 13 9 9 13
-3 6 11 18 14 10 10 14
-3 8 11 18 14 10 10 13
-3 9 11 18 14 10 10 13
-3 10 11 19 14 10 10 12
-3 12 11 19 14 10 10 11
-2 13 10 20 13 11 9 10
-2 13 10 20 13 11 9 11
-2 14 10 20 13 12 9 12
-2 15 11 21 13 13 9 13
-2 15 11 21 13 13 9 14
-2 16 12 22 13 14 10 15
-2 19 11 22 13 16 12 18
0 21 10 23 13 17 14 20
1 23 8 24 14 18 16 22
1 25 7 24 14 20 18 24
2 27 6 25 15 21 20 26
3 27 3 25 15 21 20 25
3 26 1 24 15 21 20 24
4 25 -2 23 15 22 19 23
5 25 -4 23 15 22 19 22
6 24 -6 22 16 23 18 21
6 23 -7 21 15 22 17 20
6 21 -8 20 13 21 17 19
6 20 -9 18 12 20 16 18
6 18 -10 17 10 19 15 17
6 16 -11 16 9 18 14 16
6 13 -11 16 8 16 12 15
6 10 -11 15 6 14 11 13
5 7 -11 14 5 12 9 12
5 4 -11 14 3 10 7 10
4 2 -10 13 2 8 6 9
3 1 -10 12 2 8 6 9
1 0 -10 11 2 7 6 9
0 -3 -9 9 1 6 6 9
-3 -4 -9 8 1 6 6 9
-4 -5 -8 7 0 5 5 10
-4 -5 -8 7 0 5 5 9
-5 -4 -7 7 0 5 4 8
-6 -3 -6 7 0 5 3 7
-6 -3 -6 7 0 5 3 6
-7 -2 -5 8 -2 4 2 5
-7 -3 -5 8 -2 4 2 5
-8 -5 -5 8 -2 3 2 4
-9 -6 -5 8 -3 2 1 3
-9 -8 -5 8 -3 2 1 3
-10 -9 -6 7 -4 1 0 2
-10 -9 -5 6 -4 1 0 2
-10 -9 -5 6 -4 1 0 2
-10 -10 -4 5 -4 1 0 3
-10 -10 -3 4 -4 1 0 3
-9 -11 -2 3 -3 1 -2 4
-9 -11 -2 2 -3 0 -3 2
-9 -11 -2 1 -4 0 -5 0
-10 -11 -2 0 -5 -2 -6 -3
-10 -11 -2 -2 -5 -3 -8 -5
-11 -12 -2 -3 -6 -4 -9 -7
-11 -12 -2 -3 -6 -4 -9 -7
-11 -12 -2 -3 -6 -4 -9 -7
-11 -12 -2 -3 -6 -4 -9 -7
-11 -12 -2 -3 -6 -4 -9 -7
-11 -12 -3 -4 -5 -5 -9 -7
-11 -12 -3 -4 -5 -5 -8 -7
-11 -12 -3 -4 -5 -5 -8 -7
-12 -12 -2 -4 -5 -4 -7 -7
-12 -12 -2 -4 -5 -4 -6 -7
-13 -12 0 -4 -5 -3 -5 -6
-13 -12 0 -4 -6 -3 -6 -6
-13 -12 0 -4 -7 -3 -6 -6
-13 -12 0 -5 -8 -4 -7 -7
-13 -12 0 -5 -9 -4 -8 -7
-14 -12 -2 -6 -10 -5 -9 -8
-14 -12 -2 -6 -10 -5 -9 -8
-14 -12 -2 -6 -10 -5 -9 -8
-14 -12 -2 -6 -10 -6 -9 -9
-14 -12 -2 -6 -10 -6 -9 -9
-13 -12 -2 -5 -10 -7 -9 -10
-13 -12 0 -5 -10 -7 -9 -10
-13 -12 0 -5 -10 -7 -9 -10
-13 -11 1 -5 -10 -6 -9 -10
-13 -11 2 -5 -10 -6 -9 -10
-14 -10 5 -2 -10 -5 -8 -10
-17 -11 11 4 -8 -5 -10 -11
-20 -12 17 9 -6 -5 -11 -13
-22 -13 23 15 -4 -5 -13 -14
-25 -14 29 20 -2 -5 -14 -16
-27 -15 35 27 2 -4 -16 -17
-28 -14 42 36 8 0 -16 -19
-30 -13 49 47 13 2 -16 -21
-31 -12 55 56 18 4 -17 -23
-33 -11 61 66 23 6 -17 -24
-29 -7 64 76 36 17 -9 -20
-15 2 58 91 63 43 17 0
1 11 51 104 90 68 43 19
16 19 45 118 115 94 68 37
30 28 38 132 142 120 95 57
47 37 25 140 170 148 123 77
64 49 0 134 197 179 158 102
81 59 -25 129 225 211 192 127
99 69 -50 123 254 241 227 151
117 80 -74 118 281 273 262 175
127 79 -92 102 278 272 267 180
120 56 -94 65 219 210 218 147
114 32 -97 28 159 147 168 113
108 9 -100 -8 99 86 118 80
101 -15 -103 -45 39 23 69 48
92 -30 -100 -71 -8 -23 30 22
77 -30 -86 -80 -33 -43 11 10
64 -30 -71 -91 -59 -62 -9 -3
50 -30 -56 -100 -85 -81 -28 -15
35 -30 -41 -109 -110 -100 -47 -27
21 -29 -25 -112 -124 -112 -60 -36
8 -27 -7 -99 -115 -106 -63 -43
-5 -25 12 -87 -106 -100 -66 -48
-18 -23 30 -73 -97 -95 -69 -53
-30 -21 49 -61 -87 -89 -72 -58
-40 -19 64 -52 -80 -83 -74 -62
-45 -19 73 -51 -77 -80 -74 -63
-49 -19 82 -50 -74 -77 -74 -65
-54 -18 92 -48 -72 -74 -73 -66
-58 -18 101 -47 -69 -71 -73 -68
-61 -17 109 -46 -66 -67 -71 -69
-61 -15 113 -44 -61 -63 -68 -66
-61 -13 118 -41 -57 -58 -65 -64
-62 -11 122 -39 -52 -54 -61 -61
-62 -9 128 -37 -48 -49 -58 -59
-63 -7 131 -35 -44 -46 -55 -57
-63 -9 129 -36 -47 -48 -56 -58
-63 -10 127 -37 -49 -51 -57 -58
-62 -12 125 -39 -52 -53 -59 -59
-62 -13 122 -40 -54 -55 -60 -60
-60 -15 117 -41 -55 -56 -60 -60
-57 -14 108 -40 -52 -53 -57 -57
-54 -13 99 -39 -49 -50 -53 -54
-51 -11 89 -38 -46 -47 -49 -50
-48 -10 79 -37 -43 -44 -46 -47
-45 -9 69 -36 -39 -41 -43 -44
-41 -10 59 -34 -37 -39 -40 -43
-37 -10 49 -31 -35 -37 -38 -41
-34 -11 38 -29 -33 -36 -36 -40
-30 -12 27 -27 -31 -34 -34 -39
-27 -13 19 -25 -29 -32 -32 -38
-25 -13 16 -22 -26 -29 -29 -36
-23 -13 13 -19 -23 -27 -26 -34
-22 -13 10 -17 -21 -25 -24 -32
-20 -13 7 -14 -18 -22 -21 -30
-18 -12 4 -12 -16 -20 -19 -28
-17 -12 3 -12 -16 -20 -20 -30
-17 -12 2 -12 -16 -20 -21 -31
-16 -12 1 -12 -16 -20 -22 -33
-15 -12 -2 -12 -16 -20 -23 -34
-14 -13 -3 -11 -15 -21 -24 -36
-14 -12 -4 -11 -14 -21 -24 -36
-14 -12 -4 -11 -14 -20 -24 -36
-13 -11 -5 -11 -13 -20 -23 -36
-13 -10 -6 -11 -12 -19 -23 -36
-12 -9 -7 -10 -11 -18 -22 -35
-12 -9 -7 -10 -11 -18 -22 -35
-11 -10 -7 -9 -10 -18 -22 -36
-11 -10 -6 -9 -10 -18 -22 -36
-10 -11 -6 -8 -9 -18 -22 -37
-9 -12 -5 -7 -8 -17 -22 -38
-10 -12 -5 -7 -8 -17 -22 -38
-10 -12 -5 -7 -8 -17 -22 -38
-11 -12 -6 -7 -8 -17 -22 -38
-12 -12 -6 -7 -8 -17 -22 -38
-13 -13 -7 -7 -8 -16 -22 -39
-13 -13 -7 -7 -8 -16 -22 -39
-12 -13 -7 -7 -8 -16 -22 -39
-12 -13 -7 -7 -8 -16 -22 -39
-11 -13 -7 -7 -8 -16 -22 -39
-10 -12 -7 -6 -7 -17 -22 -39
-10 -12 -7 -6 -7 -17 -22 -39
-10 -12 -7 -6 -7 -17 -22 -39
-10 -13 -7 -6 -7 -18 -22 -40
-10 -13 -7 -6 -7 -18 -22 -40
-10 -14 -8 -6 -8 -19 -23 -41
-10 -14 -8 -6 -8 -19 -23 -41
-10 -14 -8 -6 -8 -19 -23 -41
-10 -13 -8 -6 -8 -19 -24 -41
-10 -13 -8 -6 -8 -19 -24 -41
-10 -12 -9 -7 -9 -20 -25 -43
-10 -12 -9 -7 -9 -20 -25 -41
-10 -12 -9 -6 -8 -20 -25 -41
-9 -12 -9 -6 -8 -20 -25 -40
-9 -12 -9 -5 -7 -20 -25 -39
-8 -12 -10 -4 -6 -20 -25 -38
-8 -12 -10 -4 -6 -20 -25 -38
-8 -12 -10 -4 -6 -21 -25 -38
-8 -12 -11 -4 -6 -21 -25 -38
-8 -12 -11 -4 -6 -22 -25 -38
-9 -13 -12 -4 -7 -23 -26 -38
-9 -13 -12 -4 -7 -23 -26 -38
-9 -13 -12 -4 -7 -23 -26 -38
-8 -12 -13 -4 -7 -23 -26 -38
-8 -12 -13 -4 -7 -23 -26 -38
-7 -11 -14 -5 -7 -23 -27 -39
-7 -11 -15 -6 -7 -23 -27 -39
-7 -11 -15 -6 -8 -23 -27 -39
-7 -10 -16 -7 -8 -23 -27 -39
-7 -10 -17 -8 -9 -23 -27 -39
-7 -9 -18 -9 -10 -23 -26 -39
-6 -9 -19 -9 -10 -23 -26 -39
-6 -9 -19 -9 -10 -23 -25 -38
-5 -8 -20 -10 -11 -23 -25 -38
-4 -8 -21 -10 -11 -23 -24 -37
-3 -7 -22 -11 -12 -23 -23 -36
-3 -7 -23 -12 -12 -23 -23 -36
-2 -7 -23 -13 -12 -24 -23 -35
-2 -7 -24 -14 -12 -24 -23 -35
0 -7 -25 -15 -12 -25 -23 -34
1 -6 -26 -16 -13 -26 -24 -33
1 -5 -28 -18 -14 -26 -24 -33
1 -5 -30 -19 -15 -26 -24 -33
1 -4 -31 -21 -16 -26 -23 -33
1 -3 -33 -22 -17 -26 -23 -33
2 -2 -35 -24 -18 -26 -22 -34
3 -2 -35 -26 -19 -27 -21 -33
3 0 -36 -27 -21 -27 -21 -32
4 0 -36 -29 -22 -28 -20 -31
5 1 -37 -30 -23 -29 -19 -29
6 2 -38 -32 -25 -30 -18 -28
6 3 -40 -34 -26 -30 -16 -28
6 4 -41 -35 -26 -30 -14 -28
6 5 -44 -37 -27 -31 -12 -28
6 6 -45 -38 -28 -31 -10 -28
7 7 -47 -40 -29 -32 -8 -27
8 7 -47 -40 -29 -31 -6 -25
8 7 -47 -40 -29 -31 -4 -23
9 7 -47 -41 -29 -30 0 -22
10 7 -47 -41 -29 -29 2 -20
11 8 -48 -43 -29 -28 4 -18
11 8 -48 -43 -29 -28 4 -18
11 8 -48 -44 -29 -28 4 -18
12 9 -48 -44 -29 -28 4 -18
12 9 -48 -45 -29 -28 4 -18
13 10 -47 -46 -29 -28 4 -17
13 10 -47 -45 -27 -26 4 -17
14 10 -47 -43 -25 -24 5 -17
14 11 -47 -41 -23 -23 5 -17
15 11 -47 -40 -21 -21 6 -17
16 12 -48 -38 -19 -19 7 -18
16 12 -48 -37 -17 -18 9 -17
16 13 -48 -35 -15 -16 11 -15
16 13 -48 -33 -14 -15 12 -14
16 14 -48 -32 -12 -14 14 -13
16 15 -47 -30 -10 -12 16 -11
16 15 -46 -28 -7 -10 16 -11
16 15 -45 -26 -4 -8 16 -12
15 16 -44 -23 0 -7 16 -12
15 16 -43 -21 3 -5 16 -13
14 17 -41 -19 6 -3 16 -14
14 17 -39 -18 7 -3 16 -14
14 16 -37 -16 9 -2 17 -13
13 16 -34 -14 11 -2 17 -13
13 15 -32 -13 12 0 18 -12
12 14 -30 -11 14 1 19 -11
12 14 -29 -9 15 1 19 -11
11 14 -28 -7 16 1 19 -12
11 13 -27 -6 17 1 18 -13
10 13 -25 -4 18 1 18 -14
9 12 -24 -2 19 2 17 -15
9 12 -23 -2 19 2 17 -15
8 12 -22 -2 19 2 17 -15
7 12 -21 -2 19 2 17 -16
6 12 -19 -2 19 2 17 -16
5 12 -18 0 18 2 17 -17
5 11 -18 0 18 2 17 -17
5 9 -18 0 18 2 16 -17
4 8 -17 0 18 1 15 -17
4 7 -17 0 18 1 14 -17
3 5 -16 1 19 0 13 -18
3 5 -16 1 19 0 13 -18
3 5 -16 1 19 0 13 -18
2 5 -15 1 19 0 13 -18
2 5 -15 1 19 0 13 -18
1 5 -14 0 19 0 12 -19
1 5 -14 -2 19 -2 11 -20
1 5 -14 -3 18 -3 9 -22
1 4 -14 -4 17 -4 7 -24
1 4 -14 -5 16 -6 6 -25
0 3 -14 -6 15 -7 4 -27
0 3 -14 -6 15 -7 4 -27
0 3 -14 -7 15 -7 4 -27
0 3 -14 -7 15 -7 4 -26
0 3 -14 -8 15 -7 4 -26
-2 4 -15 -9 16 -7 5 -25
-2 4 -15 -9 16 -7 5 -25
-2 3 -15 -9 16 -6 6 -25
-2 2 -14 -9 17 -6 7 -25
-2 1 -14 -9 17 -5 8 -25
-2 0 -13 -9 18 -4 9 -25
-2 0 -13 -9 18 -4 9 -25
-2 1 -13 -9 18 -5 8 -26
-2 1 -14 -9 17 -5 7 -26
-2 2 -14 -9 17 -6 6 -27
-2 3 -15 -9 16 -7 5 -28
-2 3 -15 -9 16 -7 5 -28
-2 3 -15 -9 16 -6 5 -27
-2 3 -14 -9 17 -6 6 -26
-2 3 -14 -9 17 -5 6 -25
-2 3 -13 -8 18 -4 7 -24
-2 3 -13 -8 18 -4 7 -24
-2 3 -13 -8 18 -4 7 -24
-2 3 -13 -8 18 -5 6 -24
-2 3 -13 -8 18 -5 6 -24
-2 4 -12 -8 18 -6 5 -25
-2 4 -12 -8 18 -6 5 -24
-2 4 -12 -8 18 -6 5 -23
-2 4 -12 -7 18 -5 6 -22
-2 4 -12 -7 18 -5 6 -20
-2 4 -13 -6 19 -4 7 -19
-2 4 -13 -6 19 -4 7 -19
-2 5 -13 -6 19 -3 7 -19
-2 6 -13 -5 20 -2 7 -20
-2 7 -13 -5 20 0 7 -20
-2 8 -14 -4 21 1 7 -21
-2 8 -14 -4 21 1 7 -21
-2 8 -14 -4 21 1 7 -20
-2 7 -14 -4 21 1 8 -20
-2 7 -14 -4 21 1 8 -19
-2 6 -14 -3 22 0 9 -18
-2 6 -14 -3 22 0 9 -18
-2 7 -14 -3 23 0 9 -18
-2 7 -13 -3 23 0 9 -19
-2 8 -13 -3 24 0 9 -19
-2 9 -12 -3 25 1 8 -20
-2 9 -12 -3 25 1 8 -20
-2 9 -12 -2 25 1 8 -19
-2 8 -12 -2 25 2 9 -18
-2 8 -12 0 25 2 9 -17
0 7 -12 1 25 3 10 -16
0 7 -12 1 25 3 10 -16
0 7 -12 1 25 3 10 -16
-2 8 -12 1 25 3 9 -16
-2 8 -12 1 25 3 9 -16
-3 9 -11 2 26 2 8 -16
-3 9 -11 2 26 2 8 -16
-3 9 -11 2 26 2 8 -16
-3 9 -11 1 26 2 8 -16
-3 9 -11 1 26 2 8 -16
-2 9 -10 0 26 1 8 -16
-2 9 -10 0 22 1 8 -16
-2 9 -10 0 18 0 7 -16
-2 9 -10 -2 14 0 7 -16
-2 9 -10 -2 10 -2 6 -16
-3 8 -11 -3 6 -3 5 -16
-3 8 -11 -3 6 -3 5 -16
-3 8 -11 -3 6 -3 6 -16
-2 8 -11 -3 6 -3 6 -16
-2 8 -11 -3 6 -3 7 -16
0 9 -12 -4 5 -2 8 -15
0 9 -12 -4 5 -2 8 -15
0 8 -12 -5 5 -2 8 -15
-2 8 -12 -5 5 -3 8 -15
-2 7 -12 -6 5 -3 8 -15
-3 6 -11 -7 4 -4 7 -16
-3 6 -11 -7 4 -4 7 -16
-3 6 -11 -7 3 -4 6 -15
-3 6 -11 -7 2 -5 6 -15
-3 6 -11 -7 1 -5 5 -14
-3 6 -11 -8 0 -6 4 -13
-3 6 -11 -8 0 -6 4 -13
-3 6 -11 -8 0 -6 4 -13
-3 6 -11 -8 0 -6 3 -13
-3 6 -11 -8 0 -6 3 -13
-3 5 -12 -9 -2 -7 2 -13
-3 5 -12 -9 -2 -7 2 -13
-3 5 -12 -9 -2 -7 1 -13
-3 5 -12 -9 -2 -7 1 -14
-3 5 -12 -9 -2 -7 0 -14
-3 6 -13 -8 -2 -8 -2 -15
-3 6 -13 -8 -2 -8 -2 -15
-3 6 -13 -8 -2 -8 -2 -15
-4 6 -12 -8 -2 -8 -2 -15
-4 6 -12 -8 -2 -8 -2 -15
-5 5 -11 -9 -3 -8 -3 -15
-5 5 -11 -9 -3 -8 -3 -15
-5 4 -11 -9 -3 -7 -2 -14
-4 4 -11 -9 -3 -6 0 -13
-4 3 -11 -9 -3 -5 1 -12
-3 2 -11 -10 -3 -4 2 -11
-3 2 -11 -10 -3 -5 2 -11
-3 3 -11 -10 -3 -6 1 -11
-3 3 -11 -10 -3 -7 1 -11
-3 4 -11 -10 -3 -8 0 -11
-4 5 -10 -9 -3 -9 -2 -11
-4 6 -10 -9 -3 -9 -2 -11
-3 7 -10 -9 -3 -8 0 -10
-3 9 -10 -8 -3 -7 1 -9
-2 10 -10 -8 -3 -6 2 -8
0 12 -9 -7 -3 -5 3 -7
0 13 -9 -7 -2 -5 3 -7
0 14 -9 -6 0 -4 3 -6
0 15 -9 -5 1 -4 3 -6
0 16 -9 -4 2 -3 3 -5
-2 18 -10 -3 4 -2 4 -4
-2 18 -10 -3 4 -2 5 -3
0 18 -10 -3 5 0 6 -2
1 19 -10 -3 5 1 7 0
2 19 -10 -3 6 2 8 1
3 20 -10 -2 7 3 9 2
3 20 -10 0 7 3 9 2
3 21 -9 1 7 3 9 2
3 21 -8 2 8 4 8 2
3 22 -7 3 8 4 8 2
2 23 -6 5 9 5 7 2
2 25 -6 5 9 6 8 4
3 27 -7 5 10 7 9 7
4 29 -7 5 11 9 11 9
5 32 -8 5 12 10 12 11
6 34 -9 6 13 12 14 14
6 34 -10 6 13 12 14 14
7 33 -11 6 13 12 15 14
7 32 -13 6 13 13 15 14
8 31 -14 6 13 13 16 14
9 30 -16 5 12 14 17 14
9 29 -16 5 11 13 16 13
9 28 -16 4 10 11 14 12
9 27 -16 3 8 10 13 11
9 26 -16 2 7 8 11 10
8 24 -17 1 5 6 9 9
8 21 -17 1 5 6 9 9
8 18 -16 0 5 5 9 9
8 15 -16 0 4 5 8 9
8 12 -15 -2 4 4 8 9
7 9 -14 -3 3 3 7 8
7 8 -14 -4 2 2 6 7
6 7 -14 -5 0 1 5 6
5 6 -14 -6 -2 -2 4 5
4 5 -14 -7 -4 -3 3 4
3 3 -15 -8 -6 -5 1 3
2 3 -14 -8 -6 -5 1 3
1 3 -12 -8 -6 -5 1 3
0 3 -11 -8 -6 -5 0 2
-2 3 -9 -8 -6 -5 0 2
-4 4 -7 -7 -7 -5 -2 1
-4 3 -7 -7 -7 -5 -2 1
-4 2 -7 -7 -7 -5 -2 0
-4 1 -7 -7 -8 -6 -3 -2
-4 0 -7 -7 -8 -6 -3 -3
-5 -3 -6 -7 -9 -7 -4 -4
-5 -3 -6 -7 -9 -7 -4 -4
-5 -4 -6 -8 -9 -7 -4 -4
-5 -4 -6 -8 -9 -8 -5 -3
-5 -5 -6 -9 -9 -8 -5 -3
-6 -6 -7 -10 -10 -9 -6 -2
-6 -6 -7 -10 -10 -9 -6 -2
-6 -6 -6 -9 -10 -9 -6 -2
-6 -7 -6 -9 -10 -9 -6 -2
-6 -7 -5 -8 -10 -9 -6 -2
-7 -8 -4 -7 -9 -9 -5 0
-7 -8 -4 -7 -9 -9 -5 0
-7 -8 -4 -7 -10 -9 -6 -2
-7 -7 -4 -7 -10 -10 -6 -2
-7 -7 -4 -7 -11 -10 -7 -3
-8 -6 -3 -8 -12 -11 -8 -4
-8 -6 -3 -8 -12 -11 -8 -4
-8 -7 -3 -7 -11 -10 -8 -4
-8 -7 -2 -7 -10 -10 -8 -4
-8 -8 -2 -6 -9 -9 -8 -4
-8 -9 0 -5 -8 -8 -8 -4
-8 -9 0 -5 -8 -8 -8 -4
-8 -9 0 -5 -8 -9 -8 -4
-8 -9 0 -6 -8 -9 -9 -4
-8 -9 0 -6 -8 -10 -9 -4
-7 -8 -2 -7 -7 -11 -10 -5
-7 -8 0 -7 -7 -11 -10 -5
-7 -8 1 -6 -7 -11 -10 -5
-7 -9 2 -6 -6 -10 -10 -5
-7 -9 3 -5 -6 -10 -10 -5
-8 -10 4 -4 -5 -9 -9 -5
-8 -10 4 -4 -5 -9 -8 -5
-8 -10 4 -4 -4 -8 -7 -4
-8 -10 4 -4 -4 -7 -6 -3
-8 -10 4 -4 -3 -6 -5 -2
-8 -11 5 -5 -2 -5 -4 0
-9 -11 10 0 -2 -6 -6 -3
-11 -11 15 4 -2 -7 -9 -6
-13 -12 20 8 -2 -9 -11 -8
-15 -12 25 13 -2 -10 -14 -11
-17 -13 30 17 0 -12 -17 -14
-19 -13 37 26 4 -10 -17 -15
-22 -13 45 34 8 -8 -18 -16
-25 -13 52 44 12 -6 -18 -17
-28 -13 59 52 17 -4 -19 -18
-31 -12 66 61 22 1 -19 -19
-19 -4 63 78 47 22 2 -3
-8 5 59 95 71 45 23 13
5 14 56 111 96 66 44 28
16 22 52 128 121 89 65 45
28 30 47 144 146 111 87 61
49 42 24 146 181 146 123 87
68 53 2 148 215 181 159 113
88 65 -22 150 248 216 196 140
107 76 -45 152 283 250 233 165
127 88 -67 154 314 281 267 190
123 65 -73 118 265 231 229 164
120 43 -78 82 216 181 192 139
117 21 -85 46 165 131 154 113
114 -2 -91 10 116 80 117 88
111 -23 -97 -25 67 31 79 62
98 -26 -85 -45 28 2 54 46
84 -30 -72 -64 -11 -28 27 30
70 -33 -59 -83 -49 -58 2 14
56 -37 -47 -102 -88 -88 -25 -3
43 -41 -34 -121 -126 -116 -51 -18
28 -39 -15 -109 -117 -112 -55 -23
14 -37 6 -96 -109 -108 -59 -29
-2 -34 25 -83 -101 -103 -63 -34
-16 -32 45 -70 -93 -99 -67 -40
-30 -29 64 -58 -85 -94 -72 -47
-35 -29 74 -56 -82 -91 -72 -48
-41 -28 85 -54 -79 -88 -72 -50
-48 -28 95 -51 -76 -85 -72 -52
-54 -27 105 -49 -73 -81 -72 -54
-60 -26 115 -46 -70 -78 -73 -56
-60 -25 120 -43 -66 -73 -69 -54
-60 -24 126 -39 -61 -68 -65 -51
-61 -22 132 -36 -56 -63 -61 -49
-61 -21 137 -33 -51 -58 -57 -46
-62 -19 143 -29 -46 -53 -53 -43
-62 -20 140 -29 -46 -53 -53 -43
-62 -21 137 -29 -47 -53 -52 -43
-62 -22 134 -29 -48 -54 -52 -43
-62 -23 131 -29 -49 -54 -51 -43
-61 -25 128 -30 -50 -55 -50 -41
-58 -23 117 -29 -47 -52 -48 -38
-54 -21 107 -28 -44 -49 -45 -35
-51 -19 97 -27 -40 -46 -41 -32
-47 -17 87 -26 -37 -43 -38 -29
-43 -15 76 -24 -33 -39 -35 -26
-39 -16 67 -22 -31 -37 -33 -24
-36 -17 58 -19 -29 -35 -31 -22
-32 -18 49 -17 -26 -33 -28 -20
-29 -19 39 -14 -24 -31 -26 -18
-25 -20 29 -11 -21 -29 -23 -15
-24 -20 27 -9 -19 -26 -21 -14
-22 -20 25 -6 -16 -23 -18 -12
-20 -20 23 -3 -13 -20 -15 -11
-18 -20 21 1 -10 -17 -12 -9
-16 -21 18 4 -7 -14 -9 -7
-16 -21 17 4 -7 -14 -9 -7
-15 -21 16 5 -7 -14 -9 -7
-15 -21 14 6 -7 -14 -8 -6
-14 -21 13 7 -7 -14 -8 -6
-13 -21 11 8 -6 -13 -7 -5
-13 -21 11 8 -6 -13 -7 -5
-13 -21 10 8 -6 -13 -7 -5
-12 -20 9 8 -5 -12 -7 -5
-12 -20 8 8 -5 -12 -7 -5
-11 -19 7 8 -4 -11 -6 -5
-11 -19 7 8 -4 -11 -6 -5
-11 -19 7 8 -4 -11 -6 -5
-11 -20 7 8 -4 -12 -7 -5
-11 -20 7 8 -4 -12 -7 -5
-11 -20 7 8 -4 -12 -7 -5
-11 -21 8 8 -5 -13 -8 -6
-11 -21 8 8 -4 -12 -7 -6
-11 -21 8 8 -3 -11 -6 -6
-11 -21 8 8 -2 -10 -5 -6
-11 -21 8 8 -2 -9 -5 -6
-10 -21 8 9 0 -8 -4 -6
-10 -21 8 10 0 -8 -4 -5
-10 -22 8 10 0 -8 -3 -5
-10 -22 8 11 0 -8 -3 -4
-10 -22 8 11 0 -8 -3 -4
-11 -23 8 12 0 -8 -2 -3
-11 -23 8 12 0 -8 -2 -3
-11 -23 8 13 0 -8 -2 -3
-11 -23 8 13 0 -8 -2 -3
-11 -23 8 13 0 -8 -2 -3
-12 -22 7 14 -2 -8 -2 -4
-12 -22 7 14 -2 -8 -2 -4
-11 -22 7 14 0 -8 -2 -4
-11 -22 7 14 0 -8 -2 -4
-11 -22 7 14 0 -8 -2 -4
-10 -23 7 15 1 -7 -2 -4
-10 -23 7 15 1 -8 -2 -4
-10 -22 6 15 0 -8 -2 -4
-10 -22 6 15 0 -9 -2 -4
-10 -22 6 15 0 -9 -2 -4
-10 -21 5 16 -2 -10 -3 -4
-10 -21 5 16 -2 -10 -3 -4
-10 -21 5 16 0 -10 -4 -4
-10 -21 5 16 0 -10 -4 -4
-10 -21 5 16 0 -10 -4 -4
-9 -20 5 16 1 -10 -5 -4
-9 -20 5 16 1 -10 -4 -3
-9 -20 4 16 1 -9 -4 -3
-9 -20 4 16 1 -9 -3 -2
-9 -20 4 16 1 -9 -3 -2
-10 -19 3 16 1 -8 -2 0
-10 -18 2 16 1 -8 -2 0
-9 -18 2 16 1 -7 -2 0
-9 -17 1 16 1 -7 -2 0
-9 -17 1 16 1 -7 -2 0
-8 -16 0 15 1 -6 -2 1
-8 -16 -2 14 1 -6 -2 2
-8 -16 -3 14 1 -6 -2 2
-8 -16 -4 13 1 -6 -2 3
-8 -16 -4 13 1 -6 -2 3
-7 -15 -5 12 0 -7 0 4
-6 -14 -5 11 0 -7 1 5
-6 -14 -6 10 -2 -7 2 6
-5 -13 -6 9 -2 -7 3 7
-5 -13 -6 9 -2 -7 3 8
-4 -12 -8 7 -3 -7 4 9
-4 -12 -10 6 -4 -7 4 10
-3 -11 -11 4 -5 -8 5 11
-3 -11 -13 3 -6 -8 5 12
-3 -11 -14 2 -7 -8 5 13
-2 -10 -15 0 -8 -9 6 14
-2 -9 -16 -3 -9 -9 6 14
0 -8 -17 -5 -9 -9 6 15
0 -7 -18 -7 -10 -9 6 15
0 -7 -19 -8 -10 -9 6 15
1 -6 -20 -9 -11 -9 8 16
2 -5 -21 -10 -11 -8 9 17
3 -4 -22 -10 -12 -7 10 18
4 -3 -23 -11 -12 -6 11 19
4 -3 -24 -11 -12 -6 12 20
5 0 -25 -12 -14 -5 13 21
5 1 -26 -13 -15 -5 13 21
5 2 -26 -14 -16 -5 13 21
5 3 -27 -15 -17 -5 13 21
5 4 -27 -15 -18 -5 13 21
6 5 -28 -16 -19 -6 14 23
7 5 -28 -16 -18 -5 15 25
7 5 -28 -16 -17 -4 16 26
8 5 -28 -16 -16 -3 17 28
8 5 -28 -16 -16 -2 17 29
9 5 -29 -17 -14 1 18 30
9 5 -29 -16 -13 2 19 30
10 6 -29 -15 -11 3 20 30
10 6 -29 -14 -10 4 21 30
10 6 -29 -13 -9 5 22 30
11 7 -27 -10 -6 7 24 31
11 7 -25 -7 -4 9 26 32
11 7 -24 -5 0 11 28 33
11 7 -22 -2 2 13 30 34
11 7 -21 1 4 15 31 34
11 8 -20 4 7 17 32 35
11 8 -19 6 9 18 33 35
11 7 -18 8 11 20 34 36
11 7 -17 10 13 21 35 36
11 7 -16 12 15 22 35 36
11 6 -15 15 17 24 36 37
10 6 -15 17 19 25 35 36
10 6 -14 19 20 27 35 35
9 6 -14 21 22 28 34 34
9 6 -14 23 23 29 34 34
8 6 -12 24 24 30 33 33
7 6 -10 25 25 30 33 33
6 6 -8 26 26 31 33 33
5 6 -6 27 27 31 33 33
5 6 -4 28 28 31 33 33
4 5 -2 29 29 32 33 33
3 5 1 30 29 32 33 33
3 4 2 30 29 32 33 32
2 4 4 31 29 32 33 32
2 4 5 31 29 32 33 32
1 3 6 32 30 31 31 30
1 2 7 32 30 30 30 28
0 2 8 32 30 30 28 27
0 1 9 32 30 29 27 25
0 1 9 32 30 29 26 24
-2 0 10 31 29 28 25 23
-2 -2 11 31 28 27 25 23
-3 -3 12 30 28 26 25 23
-3 -4 13 30 27 25 25 23
-3 -4 13 30 27 25 25 23
-4 -5 14 29 26 24 24 22
-4 -5 14 29 26 24 24 22
-4 -5 14 28 26 24 23 22
-4 -5 14 28 26 24 23 22
-4 -5 14 28 26 24 23 22
-5 -6 15 27 25 24 22 21
-5 -6 15 26 24 24 22 21
-5 -6 14 25 24 23 22 20
-5 -6 14 24 23 23 22 20
-5 -6 14 24 23 23 22 20
-6 -5 13 23 22 22 21 19
-6 -5 13 23 21 22 20 18
-6 -5 13 23 21 21 19 18
-6 -5 13 23 20 21 18 17
-6 -5 13 23 20 21 18 17
-7 -5 12 22 19 20 17 16
-7 -5 12 22 19 20 17 16
-7 -5 12 22 19 20 17 16
-7 -5 12 22 19 20 17 16
-7 -5 12 22 19 20 17 16
-8 -4 13 23 19 20 17 15
-8 -4 13 23 19 20 17 15
-7 -4 13 24 19 20 17 15
-7 -4 13 24 19 20 17 15
-7 -4 13 24 19 20 17 15
-6 -5 13 25 20 21 17 15
-6 -5 13 25 20 21 17 15
-6 -5 13 25 20 21 17 15
-6 -5 13 25 20 21 17 15
-6 -5 13 25 20 21 17 15
-7 -4 13 24 21 21 16 14
-7 -4 13 24 21 22 16 14
-7 -4 14 24 21 22 17 15
-7 -4 14 24 21 23 17 15
-7 -4 14 24 21 23 17 15
-8 -3 15 24 22 24 18 16
-8 -2 14 24 22 24 18 16
-8 -2 14 24 22 24 18 16
-8 0 13 24 22 24 18 16
-8 0 13 24 22 24 18 16
-7 1 12 23 21 23 18 15
-7 1 12 23 21 23 18 15
-7 1 12 23 21 23 18 15
-7 1 12 23 21 23 18 15
-7 1 12 23 21 23 18 15
-7 2 12 24 21 23 18 15
-7 2 12 24 21 23 18 15
-7 2 11 24 21 23 18 15
-7 2 11 24 21 23 18 15
-7 2 11 24 21 23 18 15
-7 2 10 23 22 22 18 15
-7 2 10 22 22 22 17 15
-7 3 9 22 21 21 17 14
-7 3 9 21 21 21 16 14
-7 3 9 21 21 21 16 14
-6 4 8 20 20 20 15 13
-6 4 8 20 20 21 16 14
-6 4 8 21 20 21 17 15
-6 4 8 21 20 22 18 16
-6 4 8 21 20 22 19 17
-5 3 9 22 20 23 20 18
-5 3 9 22 20 23 19 17
-5 3 8 21 19 22 19 16
-5 3 8 21 19 22 18 15
-5 3 8 21 19 22 18 15
-5 3 7 20 18 21 17 14
-5 3 7 19 18 21 17 14
-5 3 7 19 18 20 16 14
-5 3 7 18 18 20 16 14
-5 3 7 18 18 20 16 14
-5 3 8 17 19 19 15 14
-5 3 8 17 19 19 15 14
-5 3 8 17 18 19 15 15
-5 3 8 17 18 19 15 15
-5 3 8 17 18 19 15 15
-5 2 8 17 17 19 16 16
-5 2 8 17 17 19 16 15
-5 1 8 17 16 18 16 15
-5 1 8 17 16 18 16 14
-5 1 8 17 16 18 16 14
-5 0 9 16 15 17 15 13
-5 0 9 16 15 17 15 13
-5 0 9 16 15 17 15 13
-5 0 9 16 15 17 15 13
-5 0 9 16 15 17 15 13
-5 0 8 15 14 17 16 14
-5 0 8 15 13 16 15 14
-5 0 8 14 13 15 14 14
-5 0 8 14 12 14 13 14
-5 0 8 14 12 14 13 14
-6 0 7 13 11 13 12 13
-6 0 7 12 11 13 12 13
-6 0 7 12 11 12 12 13
-6 0 7 11 11 12 12 13
-6 0 7 11 11 12 12 13
-5 1 6 10 10 11 12 14
-5 1 6 9 10 11 12 14
-5 1 5 9 10 11 12 15
-5 1 5 8 10 11 12 15
-5 1 5 8 10 11 12 15
-5 1 4 7 10 11 12 16
-5 1 4 7 10 11 12 16
-5 1 4 6 10 11 12 16
-5 1 4 6 10 11 12 16
-5 1 4 6 10 11 12 16
-4 1 5 5 9 12 13 15
-4 1 5 5 9 12 12 15
-4 0 5 5 8 12 12 14
-4 0 5 5 8 12 11 14
-4 0 5 5 8 12 11 14
-5 -2 5 4 7 12 10 13
-5 -2 5 4 7 12 10 12
-5 -2 5 4 7 12 10 11
-5 -2 5 4 7 12 10 10
-5 -2 5 4 7 12 10 10
-5 -2 5 5 6 12 10 9
-5 0 5 5 6 12 10 9
-5 1 5 5 6 12 10 9
-5 2 5 5 6 12 10 9
-5 3 5 5 6 12 10 9
-5 5 5 4 6 11 10 9
-5 6 6 5 7 12 12 10
-4 7 6 5 8 13 13 11
-4 9 7 6 9 14 14 12
-4 10 7 6 9 15 15 12
-3 11 8 7 10 16 16 13
-3 12 8 7 10 16 16 13
-2 13 8 7 11 16 15 13
-2 14 8 7 11 16 15 13
-2 15 8 7 11 16 15 13
0 16 7 7 12 17 14 14
0 15 8 8 12 17 15 14
0 15 9 9 12 17 16 14
0 14 10 10 12 17 17 14
0 14 10 10 12 17 17 14
1 15 11 11 13 18 18 14
1 17 11 12 14 19 19 15
2 20 11 12 15 21 20 16
2 22 11 13 16 23 21 17
2 25 11 13 17 24 21 18
3 26 11 14 18 25 22 19
4 26 9 13 18 25 22 20
5 27 6 12 18 25 23 20
6 27 4 11 18 25 23 21
6 27 2 11 18 25 23 21
7 28 1 10 18 25 24 22
7 26 1 10 17 25 24 22
7 25 0 9 17 24 23 21
7 24 0 9 16 24 23 21
7 23 0 9 16 24 23 21
8 21 -2 8 14 22 21 19
8 18 -2 6 13 20 19 17
8 16 -2 5 12 18 17 15
8 13 -2 4 10 16 16 13
8 11 -2 3 9 14 14 11
7 9 -3 1 7 12 12 10
7 7 -4 0 5 11 11 8
6 5 -5 -3 3 10 9 7
6 4 -6 -5 2 8 7 6
6 2 -7 -6 0 7 6 5
4 1 -8 -7 -2 6 5 4
3 1 -8 -7 -2 6 5 4
1 1 -7 -6 -2 7 5 4
-2 1 -7 -6 -2 7 5 4
-3 1 -7 -6 -2 7 5 4
-4 1 -6 -5 0 8 5 5
-4 1 -6 -5 0 7 4 4
-5 0 -6 -5 -2 6 3 3
-5 0 -6 -5 -2 5 2 2
-5 0 -6 -5 -2 5 1 1
-6 -2 -5 -5 -4 4 0 0
-6 -3 -5 -7 -5 3 -2 -2
-6 -4 -5 -8 -6 2 -3 -3
-6 -5 -5 -9 -8 1 -4 -4
-6 -5 -5 -10 -9 0 -5 -4
-7 -6 -5 -11 -10 -2 -6 -5
-7 -6 -5 -11 -10 -2 -6 -5
-7 -6 -5 -11 -10 -2 -6 -6
-7 -6 -5 -11 -10 -2 -6 -6
-7 -6 -5 -11 -10 -2 -6 -6
-7 -6 -5 -11 -10 -2 -7 -7
-7 -7 -5 -11 -10 -2 -7 -6
-8 -7 -5 -11 -10 -2 -6 -5
-8 -8 -5 -11 -10 -2 -6 -4
-8 -8 -5 -11 -10 -2 -6 -4
-9 -9 -4 -10 -10 -2 -5 -3
-9 -9 -4 -10 -10 -3 -6 -3
-9 -8 -4 -10 -11 -4 -7 -4
-9 -8 -4 -10 -11 -5 -8 -4
-9 -8 -4 -10 -11 -5 -9 -4
-10 -7 -5 -11 -12 -6 -10 -5
-10 -7 -5 -11 -12 -6 -10 -6
-10 -8 -5 -12 -12 -6 -10 -6
-10 -8 -5 -12 -12 -6 -10 -7
-10 -8 -5 -12 -12 -6 -10 -7
-9 -9 -5 -13 -12 -7 -11 -8
-9 -9 -5 -13 -12 -6 -11 -8
-9 -9 -5 -13 -12 -6 -11 -8
-9 -9 -5 -13 -12 -5 -11 -8
-9 -9 -5 -13 -12 -5 -11 -8
-10 -9 -5 -13 -11 -4 -11 -7
-10 -9 -5 -13 -11 -4 -11 -7
-10 -9 -4 -13 -11 -4 -12 -7
-10 -9 -4 -13 -11 -4 -12 -7
-10 -9 -4 -13 -11 -4 -12 -7
-10 -8 -2 -13 -10 -5 -13 -7
-11 -8 1 -11 -10 -5 -14 -8
-11 -8 3 -10 -10 -6 -15 -8
-12 -8 5 -9 -10 -6 -15 -9
-12 -8 7 -8 -10 -6 -16 -9
-15 -9 13 -3 -8 -7 -18 -11
-19 -9 21 4 -7 -7 -21 -13
-23 -9 28 10 -5 -7 -24 -16
-27 -9 36 17 -4 -7 -26 -18
-30 -9 44 23 -2 -7 -29 -20
-31 -7 50 33 7 -3 -26 -19
-29 -6 54 46 16 6 -21 -15
-27 -5 59 57 26 13 -15 -11
-25 -3 63 69 35 21 -10 -7
-23 -2 67 80 46 28 -4 -4
-6 9 56 97 74 54 21 16
18 22 37 113 110 86 53 39
40 34 19 131 147 117 86 63
64 48 1 147 183 149 117 88
87 61 -18 164 219 181 149 111
100 65 -35 162 230 190 161 121
110 65 -52 151 232 191 168 126
119 65 -69 140 234 192 173 130
129 65 -86 129 237 192 179 135
139 65 -103 118 239 193 184 139
134 52 -105 79 190 152 152 118
122 32 -100 31 119 92 104 88
111 12 -94 -17 50 32 56 56
100 -8 -89 -65 -21 -27 8 24
89 -28 -83 -113 -91 -87 -40 -8
74 -34 -68 -120 -109 -103 -58 -20
58 -33 -49 -110 -106 -102 -63 -25
43 -32 -28 -99 -103 -101 -68 -31
27 -32 -9 -89 -100 -99 -72 -36
12 -31 11 -77 -97 -98 -77 -41
-2 -29 27 -72 -94 -95 -80 -45
-13 -26 43 -69 -90 -92 -82 -48
-24 -24 58 -66 -86 -88 -83 -50
-36 -22 73 -63 -81 -85 -86 -52
-48 -19 89 -59 -78 -80 -88 -55
-53 -18 98 -55 -74 -77 -88 -56
-56 -18 105 -51 -70 -72 -85 -55
-59 -17 111 -47 -66 -68 -81 -54
-62 -17 118 -41 -62 -64 -79 -54
-65 -17 126 -37 -58 -60 -76 -53
-66 -16 129 -35 -56 -58 -75 -52
-66 -16 130 -34 -55 -57 -74 -50
-66 -15 132 -33 -54 -56 -74 -49
-66 -15 133 -32 -53 -55 -73 -48
-66 -15 135 -31 -52 -54 -73 -47
-64 -14 131 -30 -51 -52 -71 -45
-62 -13 123 -30 -49 -51 -69 -43
-60 -13 116 -30 -48 -49 -67 -40
-58 -12 109 -30 -46 -48 -65 -38
-56 -12 102 -30 -45 -46 -63 -36
-52 -11 91 -29 -43 -44 -61 -34
-48 -11 77 -29 -40 -43 -58 -32
-44 -11 64 -28 -39 -40 -55 -30
-38 -11 51 -28 -37 -39 -53 -28
-34 -11 37 -28 -35 -37 -50 -26
-30 -10 30 -25 -32 -35 -48 -24
-27 -11 24 -22 -29 -33 -46 -22
-24 -11 19 -18 -25 -31 -44 -21
-21 -12 14 -15 -22 -28 -41 -19
-18 -12 8 -12 -19 -26 -39 -17
-17 -13 5 -10 -17 -25 -38 -16
-15 -13 4 -9 -16 -25 -38 -15
-14 -13 2 -9 -16 -24 -38 -14
-13 -13 1 -8 -15 -24 -38 -14
-12 -13 -2 -8 -15 -24 -38 -13
-11 -12 -3 -7 -14 -23 -37 -12
-11 -12 -3 -6 -13 -23 -37 -12
-11 -12 -3 -6 -13 -23 -37 -13
-11 -12 -3 -5 -12 -23 -37 -13
-11 -12 -3 -5 -12 -23 -37 -13
-12 -11 -4 -4 -11 -23 -36 -14
-11 -11 -4 -4 -11 -23 -36 -13
-10 -11 -3 -3 -10 -23 -35 -13
-10 -11 -3 -3 -10 -23 -35 -12
-9 -11 -3 -3 -10 -23 -35 -12
-8 -11 -2 -2 -9 -22 -34 -11
-8 -11 -2 -2 -9 -22 -34 -11
-8 -11 -2 -2 -9 -22 -34 -11
-8 -11 -2 -2 -9 -22 -34 -11
-8 -11 -2 -2 -9 -22 -34 -11
-9 -12 -3 0 -9 -22 -35 -12
-9 -12 -4 -2 -9 -22 -35 -12
-9 -12 -4 -2 -9 -22 -35 -12
-9 -12 -5 -3 -9 -22 -35 -12
-9 -12 -5 -3 -9 -22 -35 -12
-9 -12 -6 -4 -10 -21 -35 -12
-9 -12 -6 -3 -10 -21 -35 -12
-9 -12 -6 -3 -10 -22 -35 -12
-9 -12 -6 -2 -10 -22 -35 -12
-9 -12 -6 -2 -10 -22 -35 -12
-8 -12 -6 0 -10 -23 -34 -13
-8 -12 -6 0 -10 -23 -34 -13
-7 -11 -7 0 -10 -23 -35 -13
-7 -11 -7 0 -10 -23 -36 -13
-7 -11 -7 0 -10 -23 -36 -13
-6 -10 -8 0 -10 -24 -37 -13
-6 -10 -8 0 -10 -24 -37 -13
-6 -10 -8 0 -10 -24 -37 -13
-6 -10 -8 0 -10 -24 -37 -13
-6 -10 -8 0 -10 -24 -37 -13
-7 -11 -9 1 -10 -24 -38 -13
-7 -11 -9 1 -10 -24 -38 -13
-7 -11 -9 1 -10 -24 -38 -13
-7 -11 -9 1 -10 -24 -38 -13
-7 -11 -9 1 -10 -24 -38 -13
-6 -11 -8 0 -9 -24 -37 -13
-6 -11 -9 0 -9 -24 -37 -13
-5 -11 -10 0 -9 -24 -37 -13
-5 -11 -11 0 -9 -24 -37 -13
-5 -11 -12 0 -9 -24 -37 -13
-4 -10 -13 -2 -10 -24 -37 -13
-4 -10 -13 -2 -10 -24 -37 -13
-4 -10 -13 -2 -10 -24 -36 -12
-4 -10 -13 -2 -10 -24 -36 -11
-4 -10 -13 -2 -10 -24 -36 -11
-3 -9 -13 -3 -11 -24 -35 -10
-3 -9 -14 -3 -11 -24 -35 -10
-3 -9 -15 -3 -12 -24 -35 -10
-3 -9 -16 -3 -13 -24 -35 -10
-3 -9 -17 -3 -13 -24 -35 -10
-2 -8 -18 -4 -14 -25 -35 -9
0 -6 -19 -5 -14 -25 -35 -9
1 -5 -21 -7 -15 -26 -35 -8
1 -3 -22 -8 -16 -27 -35 -7
2 -2 -23 -9 -16 -27 -35 -7
3 0 -24 -10 -17 -28 -35 -6
3 0 -26 -11 -18 -28 -35 -6
4 1 -27 -13 -19 -29 -34 -5
5 2 -29 -14 -19 -29 -33 -4
5 2 -30 -15 -20 -29 -33 -4
6 3 -31 -17 -21 -30 -32 -3
7 4 -33 -18 -22 -30 -32 -3
8 5 -34 -20 -23 -31 -31 -2
8 5 -36 -22 -23 -31 -31 0
9 6 -37 -24 -24 -31 -31 0
10 7 -38 -25 -25 -32 -30 1
10 8 -39 -25 -25 -32 -30 1
11 9 -41 -26 -26 -32 -29 2
12 9 -43 -27 -27 -32 -29 2
12 10 -44 -27 -27 -32 -29 2
13 11 -45 -29 -28 -32 -28 3
13 12 -45 -30 -28 -32 -28 4
13 13 -46 -32 -29 -32 -28 5
13 13 -47 -33 -29 -32 -28 5
13 14 -47 -35 -29 -32 -28 6
14 15 -48 -36 -30 -31 -28 7
15 15 -48 -36 -30 -31 -27 8
16 15 -49 -36 -30 -30 -26 9
16 15 -50 -36 -30 -29 -25 9
17 15 -50 -36 -30 -29 -24 10
18 15 -51 -37 -30 -28 -23 11
18 16 -51 -37 -29 -27 -22 12
19 17 -51 -37 -28 -25 -21 13
20 17 -51 -37 -27 -24 -20 13
20 18 -51 -37 -26 -23 -19 14
21 19 -51 -35 -24 -21 -18 15
21 19 -51 -33 -22 -19 -16 16
22 19 -50 -31 -19 -17 -15 17
22 19 -50 -29 -17 -15 -13 17
22 19 -50 -26 -14 -13 -12 18
23 20 -49 -24 -12 -12 -11 19
23 20 -48 -22 -11 -11 -10 19
23 20 -46 -20 -9 -10 -9 19
23 20 -45 -18 -7 -9 -9 19
23 20 -44 -15 -5 -8 -8 19
24 20 -43 -13 -3 -7 -7 20
24 20 -40 -10 0 -6 -7 20
24 20 -38 -7 3 -4 -7 20
24 20 -37 -4 5 -3 -7 20
24 20 -35 -2 8 -2 -7 20
23 19 -33 2 10 0 -6 19
23 19 -31 3 11 1 -6 19
22 19 -29 5 13 2 -6 19
21 19 -27 7 15 2 -6 19
21 19 -25 9 17 3 -6 19
20 19 -24 10 18 4 -7 18
20 19 -22 11 18 4 -8 17
19 18 -20 12 19 5 -9 16
18 17 -19 13 20 5 -9 16
18 17 -17 14 20 5 -10 15
17 16 -16 15 21 6 -11 14
16 16 -15 15 21 6 -11 14
15 16 -14 15 21 6 -11 13
15 16 -14 15 21 6 -11 13
14 16 -13 15 21 6 -11 13
13 15 -12 16 20 5 -12 12
12 15 -12 16 19 5 -12 11
11 14 -12 15 18 4 -13 10
11 14 -12 14 18 3 -14 10
10 14 -12 14 17 3 -14 9
9 13 -11 13 16 2 -15 8
9 13 -11 12 16 2 -15 8
9 12 -11 11 16 2 -16 8
9 12 -11 11 16 2 -17 8
9 12 -11 10 16 2 -17 8
9 11 -10 9 15 1 -18 7
9 11 -10 9 15 1 -18 7
8 10 -10 8 14 1 -19 6
7 10 -10 7 14 1 -19 5
7 10 -10 7 14 1 -19 5
6 9 -10 6 13 0 -20 4
6 9 -10 6 13 0 -20 4
6 9 -10 5 12 0 -20 4
6 9 -10 5 12 0 -20 4
6 9 -10 5 12 0 -20 4
7 9 -10 4 11 0 -20 4
7 9 -10 4 11 0 -20 4
6 9 -10 5 11 0 -20 3
6 9 -10 5 11 0 -20 3
6 9 -10 5 11 0 -20 3
5 8 -11 6 12 1 -20 2
5 8 -11 6 12 1 -20 2
5 8 -11 6 12 1 -20 2
5 8 -11 6 12 1 -20 2
5 8 -11 6 12 1 -20 2
6 9 -10 5 13 0 -19 2
6 9 -10 5 13 0 -19 2
6 9 -10 5 13 0 -19 2
6 9 -10 5 13 0 -19 2
6 9 -10 5 13 0 -19 2
5 8 -10 5 12 0 -19 2
5 8 -10 5 12 0 -19 2
5 8 -10 5 12 1 -18 2
5 8 -10 5 12 1 -18 2
5 8 -10 5 12 1 -18 2
4 9 -10 6 12 2 -17 1
4 9 -10 6 12 2 -17 1
4 9 -10 7 11 2 -17 1
4 9 -10 7 11 2 -17 1
4 9 -10 7 11 2 -17 1
3 9 -9 8 10 1 -16 1
3 9 -9 8 10 1 -16 2
3 9 -9 8 11 1 -15 3
3 9 -9 8 11 1 -14 3
3 9 -9 8 11 1 -14 4
3 9 -8 7 12 2 -13 5
3 9 -8 7 12 2 -13 5
3 9 -8 8 12 2 -13 5
3 9 -8 8 12 2 -13 5
3 9 -8 8 12 2 -13 5
3 9 -8 9 12 3 -12 4
3 9 -8 9 12 3 -12 4
3 9 -8 9 12 3 -11 4
3 9 -8 9 12 3 -10 4
3 9 -8 9 12 3 -10 4
3 9 -8 10 12 3 -9 5
3 9 -8 10 12 3 -9 5
3 9 -9 9 12 3 -9 5
3 9 -9 9 12 3 -9 5
3 9 -9 9 12 3 -9 5
4 10 -10 8 12 3 -10 4
4 10 -10 8 12 3 -10 4
4 10 -10 7 11 3 -10 4
4 10 -10 7 11 3 -10 4
4 10 -10 7 11 3 -10 4
4 9 -9 6 10 3 -10 3
4 9 -9 6 10 3 -10 3
4 9 -10 6 10 3 -10 3
4 9 -10 6 10 3 -10 3
4 9 -10 6 10 3 -10 3
3 10 -11 6 10 4 -9 3
3 10 -11 6 10 4 -9 3
3 10 -11 5 9 4 -9 2
3 10 -11 5 9 4 -9 1
3 10 -11 5 9 4 -9 1
4 11 -10 4 8 4 -9 0
4 11 -10 3 8 4 -9 0
4 11 -10 2 8 4 -9 0
4 11 -10 2 8 4 -9 0
4 11 -10 1 8 4 -9 0
4 10 -11 0 7 5 -10 0
4 10 -11 0 7 5 -10 0
4 10 -10 0 6 5 -10 1
4 10 -10 0 6 5 -10 1
4 10 -10 0 6 5 -10 1
4 9 -9 -2 5 6 -9 2
4 9 -9 -2 5 6 -9 2
4 8 -8 -2 4 6 -9 2
4 7 -8 -2 3 6 -9 2
4 7 -8 -2 3 6 -9 2
4 6 -7 0 2 7 -9 2
4 6 -7 0 2 7 -9 2
4 6 -7 -2 2 7 -9 2
4 6 -7 -3 2 7 -9 2
4 6 -7 -3 2 7 -9 2
3 5 -8 -4 1 6 -10 2
3 5 -8 -4 1 6 -10 2
3 5 -8 -5 0 6 -10 2
3 5 -8 -6 0 6 -10 2
3 5 -8 -6 0 6 -10 2
4 6 -8 -7 -2 5 -11 2
4 6 -8 -7 -2 5 -11 2
4 6 -8 -7 -2 5 -11 2
4 6 -8 -7 -2 5 -11 2
4 6 -8 -7 -2 5 -11 2
3 5 -8 -6 -2 6 -10 2
3 5 -8 -6 -2 6 -10 2
3 5 -8 -6 -2 6 -10 2
3 5 -7 -6 -3 6 -10 2
3 5 -7 -6 -3 6 -10 2
3 4 -6 -7 -4 6 -9 2
3 4 -6 -7 -4 6 -9 2
3 4 -6 -7 -4 6 -9 2
3 4 -6 -7 -3 6 -9 2
3 4 -6 -7 -3 6 -9 2
3 4 -6 -7 -2 5 -8 2
3 4 -6 -7 -2 5 -8 2
3 4 -6 -7 -2 5 -8 2
3 5 -6 -7 -2 5 -8 2
3 5 -6 -7 -2 5 -8 2
4 6 -5 -8 -3 5 -7 1
4 7 -4 -8 -2 6 -6 2
4 8 -4 -8 0 7 -5 3
4 9 -3 -8 1 8 -4 4
4 10 -2 -8 2 9 -3 5
3 11 0 -7 3 10 -2 6
3 12 0 -6 3 10 -2 6
3 13 0 -5 3 11 -2 7
4 14 0 -3 3 12 -2 8
4 15 0 -2 3 12 -2 8
5 16 -2 0 4 13 0 9
5 16 -2 2 4 14 0 9
5 16 -2 3 5 14 1 9
5 16 -2 4 6 15 2 9
5 16 -2 6 6 16 2 9
6 17 0 7 7 17 3 10
6 18 0 8 7 17 3 10
7 18 1 9 7 17 3 10
8 19 2 10 7 18 4 10
8 20 2 11 7 18 4 10
9 21 3 12 8 19 5 11
10 23 2 12 9 20 7 13
11 25 1 12 9 21 8 14
12 27 -2 12 10 23 10 16
13 29 -3 12 11 24 12 18
14 31 -4 12 12 25 13 19
14 31 -4 12 12 25 13 19
15 30 -5 12 12 25 13 19
16 29 -6 12 12 25 13 19
16 29 -6 12 12 25 13 19
17 27 -7 13 11 26 13 19
17 25 -7 12 10 25 12 19
17 23 -7 11 10 24 11 18
16 20 -8 10 9 23 10 17
16 18 -8 9 8 22 9 17
15 16 -9 8 7 21 8 16
15 14 -9 7 5 19 6 14
15 12 -9 6 4 18 5 13
15 10 -9 4 3 16 4 12
15 8 -9 3 1 14 2 10
14 6 -9 2 0 13 1 9
13 6 -9 1 -2 11 1 8
12 5 -9 0 -2 10 1 7
11 4 -10 -3 -3 8 0 6
10 4 -10 -4 -4 6 0 5
9 3 -11 -5 -5 5 -2 4
7 3 -10 -5 -5 5 -2 4
6 3 -10 -5 -5 5 -2 4
4 3 -9 -5 -4 5 -2 4
2 3 -8 -5 -4 5 -2 4
1 3 -7 -4 -3 6 -2 5
1 2 -7 -4 -3 5 -2 4
1 1 -7 -4 -4 5 -3 3
1 -2 -7 -4 -5 4 -4 2
1 -3 -7 -4 -5 3 -4 1
0 -4 -6 -4 -6 2 -5 0
0 -4 -6 -4 -6 2 -5 0
0 -4 -6 -5 -7 2 -5 0
0 -4 -6 -6 -8 1 -6 0
0 -4 -6 -6 -8 1 -6 0
-2 -5 -6 -7 -9 0 -7 0
-2 -5 -6 -7 -9 0 -7 0
-2 -5 -5 -7 -9 0 -6 0
-2 -5 -4 -7 -9 0 -5 0
-2 -5 -4 -7 -9 0 -5 0
-3 -6 -3 -7 -10 0 -4 -2
-3 -6 -3 -7 -10 0 -4 -2
-3 -6 -3 -7 -10 0 -4 -2
-3 -6 -3 -8 -11 -2 -5 -2
-3 -6 -3 -8 -11 -2 -5 -2
-4 -7 -4 -9 -12 -3 -6 -3
-4 -7 -4 -9 -12 -3 -6 -3
-5 -7 -4 -9 -12 -3 -6 -3
-6 -7 -3 -9 -12 -3 -6 -3
-6 -7 -3 -9 -12 -3 -6 -3
-7 -8 -2 -8 -11 -4 -6 -4
-7 -8 -2 -8 -11 -4 -6 -4
-7 -8 -2 -8 -11 -4 -6 -4
-7 -9 -3 -8 -11 -4 -6 -4
-7 -9 -3 -8 -11 -4 -6 -4
-8 -10 -4 -7 -11 -3 -5 -3
-8 -10 -4 -7 -11 -3 -5 -3
-8 -10 -4 -7 -11 -3 -5 -3
-7 -10 -4 -7 -11 -3 -5 -3
-7 -10 -4 -7 -11 -3 -5 -3
-6 -9 -3 -7 -10 -3 -4 -3
-6 -9 -3 -7 -10 -3 -4 -3
-6 -9 -3 -7 -10 -3 -4 -3
-7 -9 -3 -7 -10 -3 -4 -3
-7 -9 -3 -7 -10 -3 -4 -3
-9 -10 -3 -6 -10 -3 -5 -3
-11 -10 2 -4 -10 -3 -6 -4
-13 -10 6 -2 -10 -3 -7 -5
-16 -11 9 1 -10 -3 -8 -6
-18 -11 13 3 -10 -3 -9 -7
-21 -12 19 8 -8 -3 -10 -8
-25 -12 27 16 -5 1 -11 -10
-29 -12 35 24 -2 3 -11 -11
-32 -12 44 32 2 5 -12 -13
-36 -12 52 40 6 7 -13 -15
-35 -12 57 52 15 14 -9 -13
-25 -8 56 66 33 29 6 -3
-14 -4 54 81 51 45 20 8
-4 0 53 97 69 59 34 17
7 4 51 112 88 74 48 27
24 13 42 126 111 95 69 43
50 28 18 136 144 122 101 66
76 44 -5 146 176 150 133 90
102 59 -27 157 209 179 163 113
128 74 -50 168 241 206 195 138
144 78 -67 161 244 209 203 145
144 64 -77 127 203 171 175 126
144 50 -88 92 163 132 145 105
144 36 -98 57 122 94 116 86
144 22 -108 22 81 55 88 66
139 9 -110 -8 42 21 59 47
122 -2 -98 -31 4 -7 32 29
106 -12 -86 -55 -34 -34 6 11
90 -22 -73 -77 -71 -62 -21 -8
73 -32 -61 -101 -109 -90 -48 -26
57 -39 -45 -109 -129 -105 -64 -37
39 -36 -24 -93 -117 -97 -64 -39
23 -34 -3 -76 -106 -89 -63 -40
6 -32 19 -60 -95 -81 -62 -43
-11 -30 40 -43 -82 -73 -62 -45
-25 -28 58 -32 -74 -67 -61 -46
-33 -27 70 -30 -72 -64 -61 -47
-43 -26 81 -29 -69 -60 -61 -48
-51 -24 94 -27 -67 -56 -61 -49
-59 -23 105 -25 -64 -53 -61 -50
-65 -22 115 -24 -61 -49 -60 -51
-67 -20 121 -22 -57 -45 -57 -49
-68 -18 127 -20 -53 -39 -54 -47
-70 -16 133 -18 -50 -35 -51 -45
-72 -15 139 -16 -46 -31 -48 -43
-73 -13 143 -14 -43 -28 -46 -40
-73 -16 142 -15 -45 -29 -46 -40
-73 -18 141 -15 -47 -29 -46 -40
-73 -20 139 -16 -49 -30 -46 -40
-73 -22 138 -17 -50 -31 -46 -40
-72 -24 134 -18 -52 -32 -46 -40
-69 -22 125 -18 -51 -30 -43 -37
-66 -21 114 -18 -49 -28 -39 -34
-63 -19 105 -18 -48 -26 -36 -31
-60 -18 95 -18 -46 -24 -33 -28
-57 -16 85 -19 -45 -22 -31 -26
-52 -16 73 -19 -43 -21 -28 -24
-48 -16 62 -19 -40 -19 -26 -22
-44 -17 51 -20 -38 -18 -23 -20
-38 -17 39 -20 -37 -16 -21 -19
-35 -18 30 -21 -35 -15 -19 -17
-32 -18 26 -18 -33 -14 -17 -16
-30 -18 22 -16 -31 -12 -16 -15
-28 -18 18 -13 -29 -11 -14 -14
-26 -18 14 -11 -28 -9 -13 -13
-24 -19 11 -9 -26 -8 -11 -12
-23 -19 10 -9 -26 -7 -11 -12
-23 -19 9 -8 -26 -7 -11 -12
-22 -19 7 -7 -26 -6 -11 -11
-21 -19 6 -7 -26 -5 -11 -11
-20 -18 5 -6 -25 -4 -11 -10
-20 -18 4 -6 -25 -4 -11 -10
-20 -18 4 -6 -25 -4 -11 -11
-20 -18 3 -6 -25 -5 -11 -12
-20 -18 2 -6 -25 -5 -11 -12
-19 -19 1 -7 -25 -6 -11 -13
-19 -19 1 -7 -25 -6 -11 -13
-19 -19 1 -7 -25 -5 -11 -12
-19 -19 0 -6 -24 -4 -10 -11
-19 -19 0 -6 -24 -4 -10 -11
-18 -19 -2 -5 -23 -3 -9 -10
-18 -19 -2 -5 -23 -3 -9 -10
-18 -19 -2 -5 -23 -3 -9 -10
-18 -19 -3 -5 -23 -3 -9 -10
-18 -19 -3 -5 -23 -3 -9 -10
-19 -19 -4 -5 -23 -4 -8 -9
-19 -19 -4 -5 -23 -4 -8 -9
-19 -19 -4 -5 -23 -4 -8 -9
-19 -19 -5 -5 -23 -4 -8 -9
-19 -19 -5 -5 -23 -4 -8 -9
-19 -18 -6 -5 -23 -3 -8 -9
-19 -18 -6 -5 -23 -3 -8 -9
-19 -18 -6 -5 -23 -3 -8 -9
-19 -18 -6 -5 -23 -3 -7 -9
-19 -18 -6 -5 -23 -3 -7 -9
-18 -19 -7 -4 -22 -2 -6 -8
-18 -19 -7 -4 -22 -2 -7 -8
-18 -19 -7 -4 -22 -2 -7 -8
-17 -19 -8 -4 -23 -2 -8 -8
-17 -19 -8 -4 -23 -2 -9 -8
-16 -19 -9 -5 -24 -3 -10 -9
-16 -19 -9 -5 -24 -3 -10 -9
-16 -19 -9 -5 -24 -3 -10 -9
-16 -19 -9 -5 -24 -4 -10 -9
-16 -19 -9 -5 -24 -4 -10 -9
-17 -19 -9 -6 -24 -5 -9 -8
-17 -19 -9 -6 -24 -5 -9 -7
-17 -19 -9 -6 -24 -5 -9 -7
-17 -19 -9 -6 -24 -5 -9 -6
-17 -19 -9 -6 -24 -5 -9 -5
-17 -18 -9 -6 -24 -4 -8 -4
-17 -18 -9 -6 -24 -4 -8 -4
-17 -18 -9 -7 -24 -3 -8 -4
-17 -18 -10 -7 -25 -3 -8 -3
-17 -18 -10 -8 -25 -2 -8 -3
-16 -17 -11 -9 -26 0 -8 -2
-16 -16 -12 -9 -27 0 -9 -2
-15 -16 -13 -9 -27 0 -9 -2
-15 -15 -14 -10 -28 -2 -10 -3
-14 -14 -15 -10 -29 -2 -11 -3
-13 -13 -16 -11 -30 -3 -12 -4
-13 -13 -18 -12 -31 -3 -12 -4
-13 -13 -19 -14 -32 -3 -12 -3
-13 -13 -21 -15 -33 -3 -12 -3
-13 -13 -22 -17 -34 -3 -12 -2
-12 -12 -24 -18 -35 -4 -11 0
-12 -12 -24 -19 -35 -4 -11 0
-12 -11 -25 -20 -35 -4 -11 1
-11 -11 -25 -21 -35 -4 -11 1
-11 -10 -26 -22 -35 -4 -11 2
-10 -9 -27 -23 -35 -3 -10 3
-9 -9 -28 -25 -36 -3 -10 4
-9 -8 -29 -26 -37 -3 -10 4
-8 -8 -30 -28 -38 -4 -10 5
-7 -7 -31 -29 -40 -4 -10 6
-6 -6 -32 -31 -41 -5 -9 7
-6 -5 -33 -33 -43 -5 -9 7
-6 -4 -34 -34 -43 -5 -9 8
-6 -3 -35 -36 -44 -5 -8 8
-6 -2 -36 -37 -45 -5 -8 9
-5 0 -37 -39 -46 -4 -7 10
-5 1 -38 -40 -47 -4 -7 10
-5 1 -39 -43 -48 -4 -6 11
-4 2 -40 -44 -49 -4 -6 11
-4 3 -43 -46 -50 -4 -5 12
-3 4 -44 -47 -51 -5 -4 13
-2 5 -45 -48 -51 -5 -4 13
1 5 -45 -49 -51 -5 -3 14
2 6 -46 -50 -51 -4 -3 14
4 7 -47 -51 -51 -4 -2 15
5 8 -48 -52 -51 -3 0 16
6 8 -48 -52 -51 -3 1 17
7 8 -48 -52 -51 -2 1 18
8 9 -48 -52 -51 -2 2 19
9 9 -48 -52 -51 0 3 20
10 10 -49 -53 -51 1 4 21
11 10 -49 -52 -50 2 5 21
11 10 -49 -52 -48 3 6 21
12 11 -49 -51 -47 4 7 21
13 11 -49 -50 -45 5 8 21
14 12 -49 -49 -44 6 9 22
14 12 -49 -46 -40 8 11 23
14 13 -48 -43 -38 10 13 24
15 13 -48 -39 -35 12 14 25
15 14 -47 -36 -32 14 16 27
16 15 -46 -34 -30 16 18 28
16 15 -44 -30 -27 18 18 28
16 14 -41 -27 -25 19 18 28
16 14 -40 -24 -22 21 19 28
16 13 -38 -21 -19 22 19 28
16 12 -36 -18 -17 24 20 27
16 12 -34 -16 -15 24 20 27
16 12 -33 -14 -13 25 20 26
15 12 -31 -12 -12 25 19 26
15 12 -30 -10 -10 26 19 25
14 12 -28 -8 -8 27 18 24
14 11 -26 -6 -6 28 18 24
14 11 -24 -3 -4 30 19 24
13 10 -22 0 -3 31 19 24
13 9 -20 2 0 32 20 24
12 8 -18 4 2 34 21 25
11 8 -17 5 2 34 21 25
10 8 -15 6 2 34 20 24
9 7 -14 7 3 34 20 24
8 7 -13 8 3 34 19 23
7 6 -11 9 4 33 18 22
6 6 -10 9 4 33 17 21
5 6 -8 10 4 33 16 20
4 5 -7 10 5 33 15 19
3 5 -6 11 5 33 14 18
2 4 -4 12 6 34 13 17
2 4 -4 12 6 34 13 17
2 4 -3 12 6 34 13 16
2 3 -3 12 6 33 12 16
2 3 -2 12 6 33 12 15
1 2 0 12 6 32 11 14
1 2 0 12 6 32 11 14
1 2 0 12 6 32 11 14
1 2 0 12 5 31 11 13
1 2 0 12 5 31 11 13
0 2 1 11 4 30 10 12
0 2 1 11 4 30 10 12
0 2 1 10 4 30 10 12
-2 2 1 10 3 29 9 11
-2 2 1 9 3 29 9 11
-3 2 1 8 2 28 8 10
-3 2 1 8 2 28 8 10
-3 2 1 8 2 28 7 10
-3 1 2 8 3 28 7 10
-3 1 2 8 3 28 6 10
-2 0 3 8 4 27 5 10
-2 0 3 8 4 27 5 10
-3 0 3 8 4 27 5 10
-3 0 3 8 3 27 4 9
-4 0 3 8 3 27 4 9
-5 0 2 8 2 26 3 8
-5 0 2 8 2 26 3 8
-5 0 2 8 2 26 4 8
-5 0 3 8 2 27 4 8
-5 0 3 8 2 27 5 8
-4 0 4 8 2 28 6 7
-4 0 4 8 2 28 6 7
-4 0 4 8 2 27 6 7
-4 0 4 8 2 26 5 7
-4 0 4 8 2 25 5 7
-3 0 4 8 3 24 4 7
-3 0 4 8 3 24 4 7
-3 0 4 8 3 24 3 7
-3 1 5 9 3 24 3 7
-3 1 5 9 3 24 2 7
-4 2 6 10 4 25 1 8
-4 2 6 10 4 25 1 8
-4 2 6 10 4 25 1 8
-4 2 6 10 4 25 2 8
-4 2 6 10 4 25 2 8
-3 1 5 10 5 24 3 8
-3 1 5 10 5 24 3 8
-3 1 5 11 5 24 3 8
-3 1 5 11 5 24 3 8
-3 1 5 12 5 24 3 8
-3 2 4 13 5 23 3 7
-3 2 4 13 5 23 3 7
-3 2 4 13 5 24 4 7
-3 1 4 13 6 25 4 7
-3 1 4 13 6 26 5 7
-4 0 4 13 7 27 6 7
-4 0 4 13 7 27 6 7
-4 1 4 13 6 26 5 7
-4 2 3 12 6 25 4 7
-4 3 3 12 5 24 3 7
-3 4 2 11 4 23 2 6
-3 4 2 11 4 23 2 6
-3 3 2 11 4 23 2 6
-3 3 2 10 4 23 2 6
-3 2 2 10 4 23 2 6
-4 1 3 9 5 22 2 7
-4 1 3 9 5 23 2 7
-4 1 3 9 5 24 2 6
-4 1 2 9 5 25 2 6
-4 1 2 9 5 27 2 5
-4 1 1 8 4 28 2 4
-4 1 1 8 4 28 2 4
-4 1 1 8 4 28 2 4
-4 1 0 7 4 29 1 4
-4 1 0 7 4 29 1 4
-3 1 -2 6 3 30 0 4
-3 1 -2 6 3 30 0 4
-3 1 -2 5 3 30 0 4
-3 1 -2 5 3 29 0 4
-3 1 -2 4 3 29 0 4
-3 1 -3 3 2 28 -2 5
-3 1 -3 3 2 28 -2 5
-3 1 -3 3 2 28 -2 4
-3 0 -4 2 2 27 -2 4
-3 0 -4 2 2 27 -2 3
-3 -2 -5 1 1 26 -3 2
-3 -2 -5 1 1 26 -3 2
-3 -2 -5 0 1 26 -2 2
-3 -3 -4 0 1 26 -2 2
-3 -3 -4 -2 1 26 0 2
-3 -4 -3 -3 1 26 1 3
-3 -4 -3 -3 1 26 1 3
-3 -4 -3 -3 1 26 0 3
-3 -4 -3 -3 1 25 0 3
-3 -4 -3 -3 1 25 -2 3
-2 -4 -3 -3 0 24 -3 2
-2 -4 -3 -3 0 24 -3 2
-2 -4 -3 -3 0 24 -3 1
-2 -3 -4 -3 0 24 -3 1
-2 -3 -4 -3 0 24 -3 0
-2 -2 -5 -2 -2 23 -3 -2
-2 -2 -5 -2 -2 23 -3 -2
-2 -2 -5 -3 -2 23 -3 0
-2 -2 -5 -4 -2 23 -3 0
-2 -2 -5 -5 -2 23 -3 1
-2 -3 -5 -6 -2 22 -3 2
-2 -3 -5 -6 -2 22 -3 1
-2 -3 -5 -6 -2 21 -4 -2
-2 -2 -6 -5 -2 20 -4 -3
-2 -2 -6 -5 -2 19 -5 -4
-2 0 -7 -4 -3 18 -6 -6
-2 0 -7 -4 -3 18 -6 -6
-2 0 -6 -4 -3 18 -6 -6
-2 0 -5 -4 -4 17 -6 -5
-2 0 -4 -4 -4 17 -6 -5
-3 -2 -3 -4 -5 16 -6 -4
-3 -2 -3 -4 -5 16 -6 -3
-2 -2 -3 -4 -4 16 -5 -2
0 -2 -3 -3 -4 17 -4 0
1 -2 -3 -3 -3 17 -3 1
2 -3 -2 -2 -2 18 -2 2
2 -2 -2 -2 0 19 -2 2
2 1 0 0 1 20 0 2
2 3 0 1 2 21 0 3
2 4 1 2 3 22 1 3
1 6 2 3 4 24 2 4
1 6 2 3 4 24 2 4
1 7 2 3 4 24 2 4
2 8 2 3 4 24 1 4
2 9 2 3 4 24 1 4
3 10 1 3 3 23 0 3
3 10 1 3 3 23 0 3
3 10 1 4 3 23 1 3
4 10 1 4 4 23 1 3
4 10 1 5 4 23 2 3
5 11 0 6 5 24 3 4
5 12 0 7 6 25 3 5
5 13 0 8 7 26 4 6
6 14 1 9 8 27 5 7
6 15 1 10 9 28 6 8
7 17 2 11 10 30 7 10
8 18 1 11 10 30 8 11
10 20 0 11 10 30 9 13
11 21 -2 11 11 31 10 15
12 22 -3 11 11 31 11 16
14 24 -5 12 12 32 13 18
14 23 -6 12 12 32 13 17
14 22 -7 11 11 31 12 16
14 21 -8 11 11 30 12 15
14 20 -9 10 10 29 11 14
15 19 -11 9 9 28 10 13
15 17 -11 8 9 27 10 12
15 15 -11 7 8 25 9 10
15 13 -11 6 7 23 8 8
15 11 -11 5 6 22 7 7
14 9 -11 4 5 20 6 5
14 7 -11 3 4 19 5 5
14 5 -11 2 3 18 4 4
14 3 -11 0 2 16 2 3
14 1 -11 -2 1 15 1 2
13 -2 -12 -4 0 13 -2 1
11 -2 -12 -4 0 12 -2 1
10 -2 -11 -4 0 11 -2 1
8 -3 -10 -5 -2 10 -2 1
6 -3 -9 -5 -2 9 -2 1
4 -4 -8 -6 -3 8 -3 0
4 -4 -8 -6 -3 7 -3 0
3 -4 -8 -6 -3 6 -3 0
3 -4 -8 -5 -3 5 -4 0
2 -4 -8 -5 -3 4 -4 0
1 -3 -7 -4 -3 2 -5 -2
1 -4 -7 -4 -3 1 -6 -3
1 -5 -7 -5 -4 0 -7 -4
0 -6 -7 -5 -5 -3 -8 -5
0 -7 -7 -6 -6 -4 -9 -6
-2 -8 -6 -7 -7 -6 -11 -8
-2 -8 -6 -7 -7 -6 -11 -8
-2 -8 -6 -7 -7 -6 -11 -9
-2 -8 -6 -7 -7 -6 -12 -9
-2 -8 -6 -7 -7 -6 -12 -10
-2 -8 -7 -8 -7 -7 -13 -11
-2 -8 -7 -8 -7 -7 -13 -11
-2 -8 -7 -8 -7 -7 -12 -10
-2 -8 -7 -8 -7 -8 -11 -9
-2 -8 -7 -8 -7 -8 -10 -8
-2 -9 -6 -9 -6 -9 -9 -7
-2 -9 -6 -9 -6 -9 -9 -7
-2 -9 -6 -9 -6 -9 -9 -7
-2 -9 -6 -10 -6 -9 -9 -8
-2 -9 -6 -10 -6 -9 -9 -8
-3 -10 -5 -11 -6 -10 -10 -9
-3 -10 -5 -11 -6 -10 -10 -9
-3 -10 -5 -11 -6 -10 -10 -9
-4 -11 -5 -12 -6 -9 -10 -9
-4 -11 -5 -12 -6 -9 -10 -9
-5 -12 -5 -13 -7 -8 -11 -10
-5 -12 -5 -13 -7 -8 -11 -10
-5 -12 -5 -13 -7 -9 -12 -10
-5 -11 -5 -13 -7 -9 -12 -10
-5 -11 -5 -13 -7 -10 -13 -10
-5 -10 -5 -14 -7 -11 -14 -9
-5 -10 -5 -14 -6 -11 -14 -9
-5 -10 -4 -14 -5 -10 -14 -9
-5 -11 -4 -14 -4 -10 -13 -9
-5 -11 -3 -14 -3 -9 -13 -9
-5 -12 -2 -13 -2 -8 -12 -9
-5 -12 -2 -13 -2 -8 -12 -9
-6 -12 0 -13 -2 -8 -12 -9
-6 -12 0 -12 -2 -8 -12 -9
-7 -12 1 -12 -2 -8 -12 -9
-8 -13 2 -11 -2 -9 -11 -10
-11 -13 9 -4 0 -10 -14 -12
-14 -13 15 3 1 -11 -16 -15
-17 -12 22 10 3 -12 -19 -17
-21 -12 29 17 4 -13 -22 -19
-24 -11 35 23 6 -14 -25 -22
-24 -11 42 33 14 -9 -24 -22
-24 -11 48 44 21 -4 -23 -21
-25 -11 53 53 28 3 -21 -21
-25 -11 59 63 36 8 -20 -20
-25 -12 64 73 46 15 -16 -18
-6 0 52 86 72 40 12 4
13 10 39 98 99 66 40 25
32 21 27 110 126 92 68 47
51 31 15 122 153 117 96 67
70 42 3 134 179 142 123 89
88 49 -18 127 194 158 146 105
105 57 -39 118 211 175 169 122
123 64 -60 111 227 191 190 139
141 71 -80 104 242 209 213 155
157 77 -100 95 254 220 230 170
147 56 -100 57 191 160 180 136
137 34 -101 19 130 101 130 102
127 13 -101 -19 68 43 79 68
117 -8 -102 -57 6 -17 29 34
106 -28 -102 -92 -52 -72 -18 3
91 -28 -85 -93 -63 -79 -28 -5
75 -28 -67 -94 -73 -86 -38 -12
59 -28 -50 -95 -83 -93 -49 -20
44 -28 -31 -96 -95 -99 -58 -27
28 -27 -14 -96 -105 -106 -68 -34
15 -25 4 -81 -95 -98 -69 -37
2 -23 21 -68 -83 -91 -70 -40
-11 -21 38 -54 -73 -82 -71 -44
-24 -19 56 -39 -63 -75 -72 -47
-36 -17 72 -25 -53 -67 -73 -50
-40 -17 81 -25 -51 -64 -72 -51
-45 -17 90 -24 -49 -60 -71 -52
-49 -17 99 -23 -46 -57 -70 -53
-53 -17 107 -22 -44 -54 -69 -54
-57 -18 116 -21 -40 -50 -67 -55
-57 -18 121 -20 -36 -47 -63 -52
-58 -17 127 -19 -33 -43 -60 -48
-59 -16 132 -17 -29 -38 -56 -44
-60 -15 137 -16 -25 -35 -52 -40
-61 -14 142 -14 -21 -31 -48 -36
-61 -15 138 -17 -23 -32 -48 -36
-60 -16 135 -21 -25 -34 -49 -36
-59 -17 131 -25 -27 -35 -49 -37
-58 -18 127 -28 -29 -37 -50 -37
-57 -20 122 -32 -32 -39 -51 -38
-54 -19 111 -34 -32 -39 -50 -36
-51 -17 100 -36 -31 -38 -48 -34
-48 -16 89 -38 -30 -37 -47 -32
-45 -14 77 -40 -29 -36 -45 -30
-40 -12 66 -43 -28 -35 -43 -27
-36 -12 57 -40 -26 -33 -39 -25
-32 -13 47 -38 -23 -30 -36 -23
-28 -14 37 -36 -21 -28 -33 -20
-24 -15 27 -34 -18 -25 -30 -18
-20 -16 18 -31 -15 -22 -27 -15
-19 -16 16 -29 -13 -20 -25 -13
-17 -16 13 -26 -10 -18 -23 -11
-15 -16 11 -24 -8 -16 -21 -9
-13 -16 8 -21 -5 -14 -19 -7
-11 -17 5 -18 -2 -12 -16 -5
-11 -17 4 -18 -2 -12 -16 -6
-11 -17 3 -18 -2 -12 -17 -7
-11 -17 2 -18 -2 -12 -18 -8
-11 -17 1 -18 -2 -12 -19 -9
-10 -16 -2 -17 -3 -13 -20 -10
-10 -16 -2 -17 -3 -13 -20 -10
-10 -16 -2 -17 -3 -13 -20 -10
-10 -16 -3 -17 -3 -13 -20 -9
-10 -16 -3 -17 -3 -13 -20 -9
-9 -16 -4 -16 -2 -12 -19 -8
-9 -16 -4 -16 -2 -12 -18 -8
-9 -16 -4 -15 -2 -11 -17 -7
-9 -16 -4 -15 0 -10 -16 -6
-9 -16 -4 -14 0 -9 -15 -5
-8 -17 -3 -13 1 -8 -13 -4
-8 -17 -3 -13 1 -8 -13 -4
-8 -17 -4 -13 1 -8 -13 -4
-8 -17 -4 -13 1 -8 -12 -4
-8 -17 -5 -13 1 -8 -12 -4
-8 -16 -6 -14 0 -8 -11 -3
-8 -16 -6 -14 0 -8 -11 -3
-8 -16 -6 -14 0 -8 -11 -4
-7 -16 -6 -13 1 -9 -11 -5
-7 -16 -6 -13 1 -9 -11 -6
-6 -16 -7 -12 2 -10 -12 -7
-6 -16 -7 -12 2 -10 -12 -7
-6 -16 -7 -12 2 -11 -13 -7
-7 -16 -7 -12 1 -12 -13 -7
-7 -16 -7 -12 1 -13 -14 -7
-8 -15 -7 -13 0 -14 -15 -6
-8 -15 -7 -13 0 -14 -15 -6
-7 -16 -7 -13 0 -14 -15 -6
-7 -16 -7 -12 0 -13 -15 -6
-6 -17 -7 -12 0 -13 -15 -6
-5 -18 -7 -11 1 -12 -14 -5
-5 -18 -7 -11 1 -12 -14 -5
-5 -17 -7 -11 1 -13 -14 -4
-5 -17 -8 -11 1 -13 -14 -3
-5 -16 -8 -11 1 -14 -14 -2
-4 -15 -9 -11 0 -15 -13 0
-4 -15 -9 -11 0 -15 -13 0
-4 -15 -9 -10 0 -15 -13 0
-4 -15 -9 -10 0 -15 -13 0
-4 -15 -9 -9 0 -15 -13 0
-4 -16 -10 -8 1 -14 -14 1
-4 -16 -10 -8 1 -14 -14 1
-4 -16 -11 -8 1 -14 -14 1
-4 -15 -11 -9 1 -14 -14 1
-4 -15 -12 -9 1 -14 -14 1
-3 -14 -13 -10 1 -13 -14 1
-3 -14 -13 -10 1 -13 -14 2
-3 -14 -13 -10 1 -13 -13 3
-2 -14 -13 -11 0 -12 -12 4
-2 -14 -13 -11 0 -12 -11 5
0 -13 -14 -12 -2 -11 -10 6
0 -13 -15 -13 -3 -11 -10 6
1 -12 -15 -14 -4 -12 -10 6
1 -12 -16 -16 -6 -12 -10 6
2 -11 -17 -17 -7 -13 -10 6
2 -11 -18 -18 -8 -13 -10 6
3 -10 -20 -20 -10 -14 -11 7
3 -10 -21 -21 -11 -15 -11 7
4 -10 -23 -23 -12 -16 -12 7
4 -10 -24 -24 -13 -17 -12 7
4 -10 -25 -25 -14 -17 -12 7
5 -9 -27 -27 -16 -18 -13 8
5 -8 -28 -29 -17 -18 -13 8
5 -7 -29 -31 -19 -19 -13 8
5 -6 -30 -33 -20 -19 -13 8
5 -5 -31 -34 -21 -19 -13 8
6 -4 -32 -35 -22 -20 -12 9
7 -4 -32 -35 -23 -20 -11 11
8 -4 -33 -36 -24 -20 -10 12
9 -4 -33 -36 -25 -20 -9 14
10 -4 -33 -36 -25 -20 -9 15
11 -4 -35 -38 -27 -21 -8 16
11 -3 -36 -40 -28 -21 -7 17
12 -2 -38 -43 -30 -21 -6 18
12 0 -39 -45 -31 -21 -5 19
12 1 -40 -46 -32 -21 -5 19
13 2 -41 -47 -33 -21 -4 20
14 2 -43 -47 -33 -21 -4 21
15 3 -43 -48 -33 -21 -3 21
16 3 -44 -48 -33 -21 -3 22
17 3 -44 -48 -33 -21 -3 22
18 4 -45 -49 -31 -20 0 24
18 5 -45 -48 -30 -18 2 26
18 6 -45 -47 -28 -17 4 28
18 7 -45 -46 -27 -15 6 30
18 7 -45 -45 -26 -14 8 31
19 8 -46 -43 -24 -12 10 32
19 8 -46 -40 -22 -10 11 33
20 9 -46 -39 -21 -9 12 33
20 9 -46 -37 -19 -7 13 34
20 9 -46 -36 -18 -6 14 34
21 10 -44 -33 -15 -4 16 35
21 10 -41 -31 -13 -2 17 36
22 10 -40 -28 -11 0 18 36
22 10 -38 -26 -9 2 19 37
22 10 -37 -24 -7 3 20 37
23 11 -36 -21 -5 5 21 38
23 11 -35 -18 -3 6 21 38
23 11 -34 -15 0 8 21 38
23 11 -33 -12 2 9 21 38
23 11 -33 -9 4 10 21 38
22 12 -31 -6 6 12 22 38
21 12 -29 -4 8 14 23 38
21 12 -28 -2 10 15 23 38
20 12 -26 1 12 17 24 38
20 12 -25 3 13 18 24 38
18 12 -23 5 14 19 25 37
17 11 -21 7 15 19 24 37
16 10 -20 8 15 19 23 36
15 9 -18 10 16 19 22 36
14 9 -17 11 16 19 22 36
13 8 -15 12 17 20 21 35
12 8 -13 13 17 20 21 35
12 8 -12 13 18 20 21 35
11 8 -10 14 18 20 21 35
11 8 -9 14 18 20 21 35
10 7 -8 15 19 21 22 34
10 6 -7 15 19 21 21 33
10 6 -7 15 19 20 20 31
10 5 -6 15 19 20 19 30
10 5 -6 15 19 20 18 29
9 4 -5 16 18 19 17 28
9 4 -5 16 17 18 16 27
8 4 -5 15 17 17 15 27
8 4 -5 15 16 16 14 26
8 4 -5 15 16 16 13 26
7 4 -6 14 15 15 12 25
7 4 -6 14 15 15 12 24
7 4 -6 14 14 15 11 23
7 4 -6 14 14 15 11 22
7 4 -6 14 14 15 11 22
6 5 -6 14 13 15 10 21
6 5 -5 14 13 15 10 21
5 5 -5 14 13 15 10 22
5 5 -4 14 13 15 10 22
5 5 -4 14 13 15 10 22
4 5 -3 13 13 14 11 23
4 5 -3 13 13 15 11 22
4 4 -3 13 13 15 11 22
4 4 -3 13 13 16 11 21
4 4 -3 13 13 16 11 21
3 3 -3 14 13 17 11 20
3 3 -3 14 13 16 10 19
3 3 -3 14 12 16 9 18
3 3 -3 14 12 15 8 17
3 3 -3 14 12 15 8 16
3 4 -3 14 11 14 7 16
3 4 -2 15 12 14 8 18
3 4 -2 15 12 15 9 19
3 4 0 16 13 15 10 21
3 4 0 16 13 15 11 22
2 3 1 17 14 16 12 23
2 3 1 17 14 16 12 23
2 4 1 17 14 17 12 23
2 4 1 17 14 17 12 23
2 4 1 17 14 17 12 23
3 5 0 17 14 18 13 24
3 5 0 18 15 18 13 24
3 5 0 19 15 19 13 24
3 5 0 20 16 19 13 24
3 5 0 21 16 19 13 24
2 5 1 22 17 20 13 24
2 5 1 22 16 20 13 23
2 5 1 21 15 20 13 23
2 5 1 21 14 20 13 22
2 5 1 21 14 20 13 22
1 5 1 20 13 20 12 21
1 5 1 20 13 20 12 21
1 5 1 20 13 19 11 20
1 5 1 20 13 19 11 20
1 5 1 20 13 19 11 20
1 6 0 21 13 18 10 19
1 6 0 21 13 18 10 19
1 7 0 21 14 19 11 20
1 7 0 21 14 19 11 20
1 7 0 21 14 19 11 20
2 8 -2 20 15 20 12 21
2 8 -2 20 15 20 12 21
2 8 -2 19 15 19 12 21
2 8 -2 19 15 19 12 21
2 8 -2 19 15 19 12 21
3 7 -3 18 14 18 12 22
2 7 -3 17 14 18 12 21
2 7 -3 16 13 18 12 20
1 7 -3 15 13 18 12 19
1 7 -3 15 13 18 12 19
0 6 -4 14 12 17 12 18
0 6 -4 14 12 18 13 18
0 6 -4 14 12 18 14 19
0 6 -4 14 12 19 15 19
0 6 -4 14 12 19 15 19
0 6 -3 13 12 20 16 20
0 6 -4 12 11 20 16 20
0 6 -5 12 11 19 16 20
0 6 -6 11 10 19 16 20
0 6 -7 11 10 19 16 20
1 5 -8 10 9 17 14 18
1 6 -8 10 8 15 11 16
1 7 -8 10 7 14 9 14
1 8 -8 10 6 12 7 12
1 8 -8 10 5 11 5 10
0 9 -7 9 4 11 6 10
0 8 -7 9 5 13 8 12
0 7 -7 9 5 14 10 14
0 6 -7 9 6 16 13 15
0 6 -7 9 6 17 15 17
0 5 -7 10 7 18 16 18
0 5 -7 10 6 17 15 17
1 5 -7 9 5 16 14 16
1 5 -7 9 4 15 13 15
1 5 -7 9 3 14 13 14
2 4 -6 8 2 13 12 13
2 4 -7 7 2 13 12 13
1 4 -7 7 2 13 12 13
1 4 -8 6 2 13 12 13
1 4 -8 6 2 13 12 13
0 4 -9 5 2 14 13 14
0 4 -9 5 2 13 13 14
0 4 -9 5 2 13 13 15
0 4 -9 5 2 12 13 15
0 4 -9 5 2 12 13 15
0 3 -9 5 2 11 12 16
0 3 -9 4 1 11 12 15
0 3 -9 3 0 11 11 15
0 3 -9 2 -2 11 11 14
0 3 -9 1 -2 11 11 14
0 3 -8 0 -3 10 10 13
0 3 -9 0 -3 9 10 13
0 3 -9 0 -4 9 10 12
0 3 -10 0 -4 8 10 12
0 3 -10 0 -4 8 10 12
1 3 -11 -2 -5 7 10 11
1 3 -10 -2 -5 7 10 11
0 3 -9 -2 -4 7 9 10
0 3 -8 -2 -4 7 9 10
0 3 -8 -2 -4 7 9 10
-2 3 -7 0 -3 8 8 10
-2 4 -6 1 -3 8 9 11
-2 5 -5 2 -2 9 10 12
-2 6 -4 3 -2 9 11 14
-2 6 -3 4 -2 9 12 15
0 8 -2 5 0 10 13 16
0 9 -2 5 0 10 13 16
1 10 -2 6 0 10 13 16
1 12 -2 6 0 10 13 16
1 13 -2 6 0 10 13 16
2 14 -3 7 2 10 13 15
2 13 -2 8 3 11 14 16
2 13 -2 9 4 12 14 16
2 12 0 10 5 13 15 17
2 12 0 10 6 14 15 17
3 12 1 11 7 15 16 18
3 13 2 11 7 16 17 19
3 14 2 11 7 16 18 20
3 15 3 11 7 17 19 21
3 16 3 11 7 17 19 22
3 18 4 12 7 19 21 23
4 20 3 13 8 20 22 24
5 22 2 14 9 21 23 25
6 24 1 16 10 22 24 26
6 26 0 17 11 23 25 26
7 27 -2 17 12 23 25 26
7 27 -4 16 11 22 24 24
8 27 -5 15 10 21 23 22
8 27 -6 13 9 19 21 20
8 27 -7 12 9 18 20 18
9 26 -8 11 8 17 19 17
9 23 -9 10 8 17 19 17
9 21 -10 9 7 17 19 18
9 18 -11 8 7 17 19 18
9 16 -11 8 7 17 19 18
9 14 -12 6 5 15 19 18
9 12 -11 5 4 12 16 17
8 10 -10 3 2 10 14 15
8 8 -9 1 0 8 11 13
8 6 -9 0 -2 6 9 12
7 4 -8 -2 -3 5 8 11
6 2 -8 -2 -3 4 7 10
5 0 -8 -2 -4 3 7 10
4 -2 -8 -2 -4 2 6 9
4 -4 -8 -2 -4 1 6 9
3 -5 -7 -2 -5 0 5 8
2 -4 -6 -2 -5 0 5 8
1 -3 -6 -2 -6 1 5 8
0 -2 -5 -2 -6 1 5 8
0 -2 -5 -2 -6 1 5 8
-2 -2 -4 -3 -7 2 5 8
-3 -3 -4 -3 -8 0 5 8
-4 -5 -4 -4 -8 -2 5 7
-5 -7 -4 -4 -9 -3 5 7
-5 -8 -4 -4 -9 -4 5 7
-6 -9 -4 -5 -10 -5 3 5
-6 -9 -4 -5 -10 -5 1 4
-6 -9 -4 -6 -11 -6 -2 2
-6 -9 -4 -6 -11 -6 -3 0
-6 -9 -4 -6 -11 -6 -5 -2
-7 -10 -4 -7 -12 -7 -6 -3
-7 -10 -4 -7 -12 -8 -7 -4
-7 -10 -4 -8 -12 -8 -8 -4
-7 -10 -4 -8 -12 -9 -9 -5
-7 -10 -4 -8 -12 -9 -9 -5
-8 -11 -4 -9 -12 -10 -10 -6
-8 -11 -4 -9 -12 -10 -9 -6
-8 -11 -4 -9 -11 -10 -8 -5
-8 -11 -4 -9 -11 -10 -7 -5
-8 -11 -4 -9 -11 -10 -7 -5
-8 -12 -4 -8 -10 -9 -6 -4
-8 -12 -4 -8 -10 -9 -7 -5
-8 -12 -5 -8 -10 -9 -7 -5
-8 -12 -5 -8 -10 -9 -8 -6
-8 -12 -5 -8 -10 -9 -8 -6
-8 -11 -6 -9 -11 -9 -9 -7
-8 -11 -6 -9 -11 -10 -10 -7
-9 -12 -5 -9 -12 -10 -10 -6
-9 -12 -5 -9 -12 -11 -11 -6
-9 -12 -5 -9 -12 -11 -11 -6
-10 -13 -4 -10 -13 -12 -12 -5
-10 -13 -4 -10 -13 -12 -12 -6
-10 -13 -4 -10 -13 -12 -12 -6
-10 -13 -4 -10 -13 -12 -12 -7
-10 -13 -4 -10 -13 -12 -12 -7
-9 -13 -4 -10 -13 -12 -11 -8
-9 -13 -4 -10 -12 -12 -10 -7
-9 -13 -4 -10 -11 -11 -10 -7
-9 -13 -4 -10 -10 -11 -9 -6
-9 -13 -4 -10 -10 -11 -9 -6
-10 -12 1 -8 -9 -10 -10 -8
-13 -12 7 -3 -7 -11 -13 -12
-15 -13 13 3 -6 -12 -16 -16
-18 -13 19 8 -5 -13 -20 -20
-20 -13 25 12 -4 -14 -23 -24
-22 -14 32 21 2 -13 -24 -26
-24 -14 39 31 7 -10 -24 -27
-25 -13 47 40 12 -7 -25 -29
-27 -13 55 51 18 -3 -25 -31
-29 -13 62 60 23 1 -25 -32
-20 -6 60 73 44 19 -9 -20
-7 2 55 88 69 43 16 -3
7 10 50 101 94 66 39 16
20 18 45 115 118 90 63 33
33 26 39 129 144 113 87 51
52 36 19 131 172 143 119 75
71 48 -6 127 200 174 154 100
91 59 -30 122 229 204 189 126
109 71 -55 118 258 235 224 151
129 82 -79 114 286 266 259 177
131 69 -89 87 252 230 232 159
126 46 -93 52 196 172 187 127
120 23 -97 16 140 114 141 95
115 1 -101 -19 85 56 95 63
110 -22 -105 -54 29 -3 49 31
97 -28 -97 -71 -7 -32 22 14
82 -28 -82 -82 -34 -53 1 2
67 -28 -67 -94 -63 -74 -21 -12
53 -28 -53 -106 -92 -95 -43 -24
37 -28 -38 -117 -120 -116 -64 -36
24 -27 -20 -110 -120 -116 -70 -43
11 -26 -2 -97 -110 -109 -72 -47
-3 -24 18 -83 -99 -102 -73 -51
-16 -22 36 -69 -89 -95 -74 -55
-29 -21 56 -56 -78 -88 -75 -59
-36 -20 68 -51 -74 -85 -76 -61
-41 -20 78 -50 -71 -82 -76 -64
-46 -19 88 -48 -68 -80 -77 -66
-51 -19 98 -47 -66 -78 -77 -68
-55 -19 108 -45 -63 -76 -77 -71
-57 -17 114 -43 -59 -72 -76 -71
-57 -15 119 -39 -55 -67 -72 -68
-58 -14 125 -37 -50 -62 -69 -66
-58 -12 129 -35 -46 -58 -65 -64
-58 -10 134 -32 -41 -53 -61 -61
-59 -10 135 -32 -40 -52 -60 -60
-59 -12 133 -34 -43 -53 -60 -60
-59 -13 132 -36 -45 -54 -61 -60
-59 -15 130 -38 -47 -56 -61 -60
-59 -17 128 -40 -49 -57 -61 -60
-58 -17 120 -41 -49 -57 -61 -59
-55 -14 110 -41 -47 -55 -58 -58
-52 -12 101 -41 -44 -53 -55 -57
-49 -10 92 -41 -41 -51 -53 -55
-45 -7 82 -41 -39 -49 -50 -54
-41 -7 72 -39 -36 -47 -48 -52
-37 -8 61 -36 -34 -45 -46 -49
-33 -10 51 -34 -31 -41 -44 -47
-29 -11 40 -32 -28 -39 -41 -45
-26 -13 29 -29 -25 -37 -39 -41
-23 -14 24 -26 -23 -35 -37 -39
-21 -14 21 -24 -20 -34 -35 -38
-18 -14 18 -21 -17 -33 -32 -37
-16 -14 15 -18 -15 -31 -30 -35
-14 -14 11 -15 -12 -30 -28 -34
-13 -13 10 -14 -11 -29 -27 -33
-13 -13 8 -13 -11 -28 -26 -33
-12 -13 7 -12 -11 -27 -25 -33
-12 -13 6 -12 -11 -26 -25 -33
-12 -13 5 -11 -11 -25 -24 -33
-11 -12 4 -10 -10 -24 -23 -34
-11 -12 4 -10 -9 -23 -23 -34
-10 -12 4 -10 -8 -22 -23 -35
-10 -12 4 -10 -7 -22 -23 -35
-10 -12 4 -10 -6 -21 -23 -35
-9 -11 3 -9 -5 -20 -24 -36
-9 -11 2 -9 -5 -20 -24 -36
-9 -11 2 -8 -5 -20 -24 -36
-9 -11 1 -8 -5 -20 -24 -36
-9 -11 1 -8 -5 -20 -24 -36
-8 -11 0 -7 -4 -21 -25 -35
-8 -11 -2 -7 -4 -21 -25 -35
-8 -10 -3 -7 -5 -21 -25 -35
-8 -10 -4 -7 -5 -21 -25 -35
-8 -10 -5 -7 -5 -21 -25 -35
-7 -9 -6 -8 -6 -21 -25 -36
-7 -9 -7 -7 -6 -21 -25 -36
-7 -9 -8 -7 -5 -21 -24 -37
-7 -9 -8 -6 -5 -21 -24 -37
-7 -9 -9 -6 -5 -21 -24 -37
-6 -10 -10 -5 -4 -22 -23 -38
-6 -11 -9 -5 -4 -22 -22 -38
-6 -11 -9 -5 -4 -21 -22 -37
-6 -12 -8 -5 -4 -21 -21 -37
-6 -12 -8 -5 -4 -21 -21 -37
-5 -13 -7 -4 -3 -20 -20 -36
-5 -13 -8 -4 -3 -21 -20 -36
-5 -13 -8 -4 -3 -21 -20 -36
-5 -13 -9 -4 -3 -22 -20 -36
-5 -13 -9 -4 -3 -22 -20 -36
-5 -12 -10 -4 -2 -23 -21 -36
-5 -12 -11 -4 -2 -24 -23 -38
-4 -12 -11 -5 -3 -24 -24 -39
-4 -12 -12 -5 -3 -25 -25 -41
-4 -12 -12 -5 -3 -25 -26 -43
-3 -11 -13 -6 -4 -26 -27 -44
-3 -10 -14 -6 -4 -26 -26 -43
-3 -10 -15 -5 -3 -25 -25 -43
-3 -9 -15 -5 -3 -25 -25 -41
-3 -9 -16 -5 -3 -25 -24 -41
-2 -8 -17 -4 -2 -24 -23 -40
-2 -8 -17 -4 -2 -24 -23 -40
-2 -9 -17 -4 -2 -24 -23 -40
-2 -9 -17 -4 -2 -24 -23 -40
-2 -9 -17 -4 -2 -24 -23 -40
0 -10 -18 -5 0 -23 -22 -41
1 -9 -19 -6 0 -23 -22 -41
1 -8 -19 -7 0 -23 -22 -41
2 -8 -20 -8 0 -23 -22 -41
2 -7 -20 -9 0 -23 -22 -41
3 -6 -21 -11 0 -24 -22 -43
3 -6 -22 -12 -2 -24 -22 -43
3 -5 -23 -14 -3 -24 -22 -41
3 -5 -23 -15 -3 -24 -22 -41
3 -5 -24 -17 -4 -24 -22 -41
4 -4 -26 -18 -5 -25 -21 -40
5 -4 -27 -20 -5 -25 -21 -40
5 -3 -29 -21 -5 -26 -21 -40
6 -3 -30 -22 -5 -26 -21 -40
6 -3 -32 -23 -5 -26 -21 -40
7 -2 -34 -24 -7 -27 -21 -40
8 0 -35 -26 -9 -27 -21 -39
8 1 -37 -27 -10 -28 -21 -38
9 2 -38 -29 -12 -28 -21 -38
9 3 -40 -30 -14 -28 -21 -37
10 4 -41 -31 -15 -29 -20 -36
11 4 -44 -32 -16 -30 -20 -36
11 5 -45 -33 -17 -31 -20 -36
12 5 -46 -34 -17 -31 -20 -36
12 5 -47 -35 -18 -32 -20 -36
13 6 -48 -36 -19 -33 -20 -35
14 7 -50 -38 -21 -33 -20 -34
15 8 -51 -39 -22 -34 -19 -33
15 9 -53 -40 -23 -34 -19 -32
16 10 -54 -41 -24 -34 -19 -31
17 11 -55 -43 -25 -35 -18 -30
17 11 -55 -43 -25 -35 -17 -29
18 12 -55 -44 -26 -35 -15 -28
19 13 -55 -45 -26 -35 -14 -28
19 13 -55 -45 -26 -35 -13 -27
20 14 -56 -46 -27 -34 -12 -26
20 14 -57 -46 -27 -34 -12 -25
21 14 -58 -46 -27 -34 -12 -24
22 14 -58 -46 -27 -34 -12 -24
22 14 -59 -46 -27 -34 -12 -23
23 15 -60 -45 -26 -32 -10 -22
23 16 -60 -45 -25 -31 -9 -21
24 17 -61 -44 -23 -29 -7 -20
24 18 -62 -43 -22 -28 -5 -20
24 19 -62 -43 -20 -26 -3 -19
25 20 -63 -40 -18 -24 0 -18
25 20 -62 -37 -16 -22 1 -17
25 20 -61 -35 -14 -19 3 -15
25 20 -60 -32 -11 -17 5 -14
25 20 -59 -29 -9 -14 7 -13
26 21 -58 -27 -7 -12 8 -12
26 21 -56 -24 -5 -11 8 -12
25 21 -55 -21 -2 -9 9 -12
25 21 -53 -18 1 -8 10 -12
25 21 -52 -15 4 -6 10 -12
24 21 -50 -13 6 -5 11 -13
24 21 -48 -12 7 -4 11 -13
23 21 -46 -10 9 -2 11 -13
23 21 -43 -8 11 0 11 -13
23 21 -40 -6 13 1 11 -13
22 21 -39 -5 14 2 12 -12
22 20 -37 -4 15 3 12 -13
21 19 -36 -2 16 4 12 -14
21 18 -34 0 16 4 12 -14
21 17 -33 1 17 5 12 -15
20 16 -31 2 18 6 12 -16
19 16 -30 2 18 6 11 -16
18 16 -28 3 18 6 10 -17
18 16 -26 3 18 6 10 -17
17 16 -24 3 18 6 9 -17
16 17 -23 4 19 6 8 -18
16 17 -23 4 18 5 7 -19
15 17 -22 4 17 3 5 -21
15 17 -22 4 17 2 4 -22
15 17 -22 4 16 1 3 -23
14 16 -21 3 15 0 2 -24
14 16 -21 3 15 0 2 -24
13 15 -20 3 15 0 1 -24
12 15 -20 3 15 0 0 -24
12 15 -20 3 15 0 0 -24
11 14 -19 3 15 0 -2 -25
11 14 -19 3 15 0 -2 -25
10 13 -18 3 15 1 -2 -25
10 12 -18 3 15 1 -2 -25
10 12 -18 3 15 1 -2 -25
9 11 -17 3 14 2 0 -25
9 11 -17 3 14 2 0 -25
9 11 -17 3 13 1 0 -25
9 11 -17 3 13 1 0 -25
9 11 -17 3 13 1 0 -25
10 11 -18 2 12 0 -2 -25
10 11 -18 2 13 0 -2 -24
10 10 -17 2 14 1 0 -23
10 9 -17 2 15 2 0 -23
10 9 -17 2 16 2 0 -22
10 8 -16 3 17 3 1 -21
10 8 -16 3 17 3 1 -21
9 8 -16 3 17 3 2 -21
9 8 -16 3 17 3 2 -21
9 8 -16 3 17 3 2 -21
8 9 -15 3 18 3 3 -21
8 9 -15 3 18 2 3 -21
9 9 -15 3 18 1 2 -22
9 9 -15 3 18 0 2 -22
9 9 -15 3 18 -2 2 -22
10 9 -15 4 17 -3 1 -23
10 9 -15 4 17 0 2 -22
10 10 -15 5 17 1 3 -21
10 10 -15 5 17 3 4 -21
10 10 -15 5 17 4 5 -20
9 11 -14 6 18 5 6 -19
9 11 -14 6 18 5 6 -19
9 12 -13 6 18 5 6 -19
9 12 -13 6 18 5 6 -19
9 12 -13 6 18 5 6 -19
10 13 -12 7 18 4 5 -18
10 13 -12 7 18 4 5 -18
10 13 -12 7 17 3 4 -19
10 13 -12 7 17 2 3 -19
10 13 -12 7 17 2 3 -19
10 14 -13 7 16 1 2 -20
10 14 -13 7 16 1 2 -20
9 14 -13 7 15 1 2 -19
8 14 -13 7 14 1 2 -19
8 14 -13 7 14 1 2 -19
7 15 -12 8 13 2 1 -18
7 15 -12 8 13 2 2 -17
7 15 -13 8 14 2 3 -15
7 15 -13 8 15 2 4 -14
7 15 -13 8 15 2 5 -13
8 15 -14 7 16 3 6 -12
8 15 -14 7 16 3 6 -12
8 15 -14 6 15 3 6 -13
8 15 -14 6 15 3 6 -14
8 15 -14 6 15 3 6 -14
8 15 -15 5 14 2 5 -15
8 15 -15 5 14 2 5 -15
8 14 -14 5 14 3 5 -14
8 14 -13 5 14 3 5 -13
8 14 -13 5 14 3 5 -13
9 13 -12 5 15 4 4 -12
9 13 -12 5 15 4 4 -12
9 13 -13 5 14 4 5 -12
9 13 -13 5 14 4 5 -12
9 13 -13 5 14 4 5 -12
9 14 -14 4 13 3 6 -11
9 14 -14 4 13 3 6 -11
9 14 -14 3 12 2 5 -12
9 14 -14 2 12 1 4 -13
9 14 -14 2 12 1 4 -13
9 15 -15 1 11 0 3 -14
9 14 -15 1 11 0 3 -14
9 13 -15 1 11 0 4 -13
9 13 -15 1 11 0 5 -12
9 12 -15 1 11 0 5 -12
8 11 -15 1 12 1 6 -11
8 11 -15 1 12 1 6 -11
8 11 -15 1 11 1 5 -11
8 11 -15 1 11 1 4 -11
8 11 -15 1 11 1 4 -11
7 10 -15 0 10 0 3 -12
7 10 -15 0 10 0 3 -12
7 10 -15 0 10 0 3 -11
7 10 -15 0 10 0 3 -11
7 10 -15 0 10 0 3 -11
7 9 -14 -2 9 -2 4 -10
7 9 -14 -2 9 -2 4 -10
7 9 -13 -3 9 -2 4 -10
7 9 -13 -3 9 -2 4 -10
7 9 -13 -3 9 -2 4 -10
7 10 -12 -4 9 -3 4 -10
7 10 -12 -4 9 -3 4 -11
7 10 -12 -5 8 -3 3 -12
7 10 -12 -6 7 -3 3 -13
7 10 -12 -6 7 -3 3 -14
6 10 -12 -7 6 -4 2 -15
6 10 -12 -7 6 -3 2 -14
6 10 -13 -6 6 -2 3 -13
6 10 -13 -6 6 -2 4 -12
6 10 -13 -6 6 0 4 -11
7 10 -14 -5 6 1 5 -10
7 10 -14 -5 6 1 4 -10
7 10 -14 -6 5 0 3 -11
7 10 -14 -7 5 -2 3 -12
7 10 -14 -7 5 -2 2 -12
7 9 -15 -8 4 -3 1 -13
7 10 -15 -8 4 -3 1 -13
7 11 -14 -7 5 -2 2 -12
7 11 -14 -7 6 0 2 -12
7 12 -14 -7 6 0 2 -12
6 13 -13 -6 7 1 3 -11
6 13 -13 -5 7 1 3 -10
6 14 -12 -4 8 2 4 -9
6 15 -11 -4 8 3 5 -9
6 15 -11 -3 8 3 5 -8
7 16 -10 -2 9 4 6 -7
7 17 -10 -2 9 5 6 -6
7 19 -9 0 10 6 7 -4
7 20 -8 0 11 6 8 -3
7 21 -8 0 11 7 8 -2
6 22 -7 1 12 8 9 0
6 22 -6 1 12 8 9 0
7 22 -5 1 12 9 9 0
8 22 -4 1 12 9 9 0
8 22 -3 1 12 9 9 0
9 23 -2 2 13 10 10 0
9 24 1 4 14 12 12 2
9 26 3 5 15 14 14 3
9 27 4 6 16 15 16 4
9 28 6 8 17 17 18 6
9 29 7 9 18 18 19 7
10 30 7 9 18 18 19 8
11 31 6 9 19 19 19 9
12 32 5 9 19 19 19 9
13 33 5 9 19 19 19 10
14 34 4 9 20 20 20 11
14 33 2 9 20 20 20 11
14 31 0 8 20 20 20 11
14 30 -3 8 20 20 20 11
14 29 -5 8 20 20 20 11
15 27 -6 7 19 20 20 12
15 25 -6 7 18 19 19 11
14 22 -5 6 17 17 18 10
13 19 -5 6 16 16 18 10
13 17 -5 6 15 15 17 9
12 15 -4 5 13 14 15 8
11 13 -4 3 11 12 13 6
10 11 -5 1 9 10 11 4
10 9 -5 -2 7 9 9 3
9 7 -5 -4 5 7 7 1
8 6 -6 -5 4 6 6 0
7 6 -5 -5 4 6 6 0
5 5 -4 -5 3 6 6 0
4 4 -3 -5 3 6 6 0
3 4 -2 -5 3 6 6 0
2 3 0 -4 2 5 7 1
1 2 0 -4 2 5 7 1
0 2 1 -4 2 5 6 1
-3 1 2 -4 2 5 5 0
-4 0 2 -4 2 5 5 0
-5 -2 3 -4 1 4 4 -2
-5 -2 3 -5 -2 3 3 -3
-5 -3 3 -5 -3 2 2 -4
-5 -4 2 -6 -4 1 0 -5
-5 -4 2 -7 -6 0 -2 -6
-5 -5 1 -8 -7 -2 -3 -7
-5 -6 1 -8 -7 -2 -3 -7
-6 -6 1 -8 -7 -2 -3 -7
-7 -7 1 -9 -7 -2 -3 -7
-7 -8 1 -9 -7 -2 -3 -7
-8 -9 0 -10 -7 -3 -3 -8
-8 -9 0 -10 -7 -3 -3 -8
-8 -10 0 -10 -7 -3 -3 -8
-8 -11 0 -9 -7 -3 -3 -7
-8 -11 0 -9 -7 -3 -3 -7
-9 -12 0 -8 -6 -3 -2 -6
-9 -12 0 -8 -7 -3 -2 -6
-9 -12 0 -9 -7 -3 -2 -6
-9 -12 0 -10 -8 -3 -3 -7
-9 -12 0 -10 -9 -3 -3 -7
-10 -13 0 -11 -10 -4 -4 -8
-10 -13 1 -11 -10 -4 -4 -8
-10 -13 1 -10 -10 -4 -4 -7
-10 -14 2 -9 -9 -4 -4 -6
-10 -14 3 -9 -9 -4 -4 -6
-10 -15 4 -8 -8 -3 -3 -5
-10 -15 4 -8 -8 -3 -3 -5
-10 -15 4 -8 -8 -3 -3 -6
-10 -15 4 -8 -8 -3 -3 -7
-10 -15 4 -8 -8 -3 -3 -7
-11 -15 5 -8 -8 -4 -4 -8
-11 -15 5 -8 -8 -4 -4 -8
-11 -15 6 -8 -8 -4 -4 -8
-12 -15 7 -8 -8 -4 -4 -8
-12 -15 7 -8 -8 -4 -4 -8
-13 -16 8 -8 -8 -4 -4 -7
-13 -16 8 -7 -8 -4 -4 -7
-13 -16 9 -7 -8 -4 -4 -8
-13 -16 10 -6 -8 -4 -5 -9
-13 -16 10 -5 -8 -4 -5 -9
-15 -16 14 -2 -8 -5 -6 -10
-18 -16 21 6 -6 -4 -8 -11
-22 -16 29 12 -4 -4 -9 -12
-25 -17 36 19 -2 -3 -11 -14
-29 -17 45 25 1 -2 -13 -15
-31 -18 51 33 5 1 -14 -16
-31 -16 57 42 10 4 -12 -16
-31 -15 62 51 15 8 -11 -15
-31 -14 68 60 20 11 -9 -14
-31 -12 73 69 25 15 -7 -14
-23 -7 72 81 43 30 8 -4
-5 5 59 97 76 59 36 18
14 16 46 112 109 89 66 40
32 27 32 129 142 118 95 62
51 38 20 144 176 148 125 84
67 47 4 151 202 172 150 102
81 53 -16 145 220 189 171 117
96 58 -35 139 238 206 191 132
110 64 -55 133 257 224 212 147
126 69 -74 127 275 241 232 161
131 63 -86 103 256 224 223 156
121 40 -86 60 187 161 173 123
112 17 -86 16 119 99 123 91
104 -6 -86 -27 52 36 74 58
95 -29 -86 -71 -17 -26 24 24
84 -43 -78 -97 -60 -65 -8 3
68 -43 -60 -102 -74 -74 -20 -5
54 -41 -43 -106 -88 -83 -31 -13
38 -40 -25 -110 -102 -93 -43 -20
24 -40 -7 -114 -115 -102 -54 -27
10 -38 11 -113 -120 -106 -61 -33
-4 -36 28 -101 -112 -100 -64 -37
-17 -33 45 -90 -104 -95 -66 -41
-30 -31 62 -78 -95 -89 -68 -46
-43 -28 79 -67 -87 -83 -70 -50
-52 -26 93 -60 -80 -78 -72 -53
-56 -25 100 -59 -77 -75 -70 -53
-59 -24 107 -59 -74 -71 -69 -53
-63 -23 114 -58 -71 -68 -67 -53
-66 -22 121 -57 -67 -64 -65 -53
-69 -21 128 -55 -64 -61 -63 -52
-69 -21 132 -51 -61 -58 -61 -50
-69 -21 135 -47 -58 -56 -58 -48
-69 -21 139 -43 -55 -53 -56 -46
-69 -21 142 -38 -52 -50 -53 -44
-70 -20 143 -35 -50 -48 -51 -41
-69 -20 138 -35 -50 -47 -50 -41
-67 -20 133 -35 -50 -46 -50 -40
-66 -19 128 -35 -50 -45 -49 -39
-64 -19 121 -35 -50 -44 -48 -39
-62 -18 113 -35 -48 -43 -46 -37
-58 -17 101 -35 -46 -40 -43 -34
-54 -17 89 -34 -44 -38 -39 -31
-50 -16 76 -33 -40 -36 -36 -28
-46 -15 64 -33 -38 -35 -33 -24
-41 -14 55 -31 -35 -32 -30 -22
-38 -15 48 -27 -32 -30 -28 -20
-35 -16 40 -24 -29 -27 -26 -19
-32 -17 33 -20 -26 -25 -23 -17
-29 -18 26 -17 -22 -22 -21 -15
-27 -19 21 -14 -20 -20 -19 -14
-25 -19 18 -12 -18 -19 -18 -13
-24 -18 16 -10 -16 -17 -16 -11
-22 -17 14 -8 -14 -16 -15 -10
-20 -17 12 -7 -12 -14 -13 -8
-19 -16 10 -5 -10 -13 -12 -7
-19 -16 10 -5 -10 -13 -12 -7
-19 -16 9 -4 -9 -12 -12 -7
-18 -16 8 -3 -8 -11 -11 -7
-18 -16 8 -3 -8 -11 -11 -7
-17 -17 7 -2 -7 -10 -10 -6
-17 -17 6 -2 -7 -10 -10 -6
-17 -17 6 -2 -7 -10 -10 -6
-17 -16 5 -2 -7 -10 -10 -5
-17 -16 4 -2 -7 -10 -10 -5
-17 -15 3 0 -8 -11 -9 -4
-16 -15 3 0 -8 -11 -9 -4
-16 -15 3 1 -8 -11 -9 -4
-15 -15 3 2 -8 -11 -9 -4
-14 -15 3 2 -8 -11 -9 -4
-13 -15 2 3 -8 -10 -8 -5
-13 -15 2 3 -8 -10 -8 -5
-13 -15 2 3 -8 -10 -8 -5
-13 -14 3 3 -8 -10 -7 -5
-13 -14 3 3 -8 -10 -7 -5
-12 -13 4 2 -7 -9 -6 -4
-12 -13 4 2 -7 -9 -6 -4
-12 -13 4 3 -7 -9 -6 -4
-12 -13 4 4 -7 -9 -6 -4
-12 -13 4 4 -7 -9 -6 -4
-13 -13 3 5 -6 -8 -7 -5
-13 -13 3 5 -6 -8 -7 -5
-13 -13 3 5 -6 -8 -7 -5
-12 -12 2 5 -6 -8 -7 -4
-12 -12 2 5 -6 -8 -7 -4
-11 -11 1 5 -6 -9 -7 -3
-11 -11 1 5 -6 -9 -7 -3
-11 -11 1 5 -6 -10 -7 -3
-11 -11 1 5 -6 -11 -7 -3
-11 -11 1 5 -6 -11 -7 -3
-12 -12 1 4 -6 -12 -8 -4
-12 -12 1 4 -6 -12 -7 -4
-12 -12 0 4 -6 -12 -7 -4
-11 -12 -2 4 -6 -12 -6 -4
-11 -12 -2 4 -6 -12 -5 -4
-10 -12 -3 5 -5 -12 -4 -3
-10 -12 -3 5 -5 -12 -4 -3
-10 -12 -3 5 -5 -12 -4 -3
-10 -12 -3 5 -6 -12 -4 -3
-10 -12 -3 5 -6 -12 -4 -3
-10 -12 -4 6 -7 -11 -5 -2
-10 -12 -4 6 -7 -11 -5 -2
-10 -11 -4 6 -7 -11 -5 -2
-10 -10 -4 6 -7 -11 -4 0
-10 -10 -4 6 -7 -11 -4 0
-9 -9 -5 5 -7 -10 -3 1
-9 -9 -6 5 -7 -10 -3 1
-9 -9 -6 5 -7 -10 -2 1
-8 -8 -7 5 -7 -10 0 2
-8 -8 -8 5 -7 -10 0 2
-7 -7 -9 4 -6 -9 1 3
-7 -7 -9 3 -6 -9 1 3
-7 -7 -10 3 -6 -9 2 4
-7 -7 -11 2 -6 -9 3 5
-7 -7 -11 1 -6 -9 3 5
-6 -7 -12 0 -7 -9 4 6
-6 -6 -14 -2 -8 -9 4 6
-5 -5 -15 -3 -9 -9 4 6
-4 -4 -17 -4 -11 -9 4 6
-4 -3 -18 -5 -12 -9 4 6
-3 -2 -20 -6 -13 -10 5 7
-2 0 -21 -8 -14 -10 5 8
0 1 -23 -10 -15 -10 5 9
2 3 -24 -12 -17 -11 5 11
3 4 -26 -14 -18 -11 5 12
4 5 -27 -16 -19 -12 4 13
4 5 -27 -17 -19 -12 4 13
4 5 -28 -18 -19 -12 5 14
4 6 -29 -19 -20 -12 6 15
4 6 -29 -20 -20 -12 6 15
5 7 -30 -21 -21 -12 7 16
6 8 -31 -23 -21 -12 7 17
6 9 -32 -25 -21 -12 7 17
7 11 -34 -27 -22 -12 8 18
8 12 -35 -29 -22 -12 8 19
9 13 -36 -31 -23 -13 9 20
9 13 -37 -31 -23 -13 10 20
10 14 -37 -31 -23 -12 10 21
11 15 -38 -32 -24 -11 11 22
11 15 -39 -32 -24 -11 12 22
12 16 -40 -33 -25 -10 13 23
13 16 -40 -33 -25 -9 14 24
13 16 -40 -33 -25 -9 15 24
14 17 -40 -33 -25 -8 16 25
15 17 -40 -33 -25 -7 17 26
16 18 -41 -32 -24 -6 18 27
16 18 -41 -30 -22 -5 19 27
16 19 -41 -29 -20 -3 19 28
16 20 -41 -27 -18 -2 20 29
16 20 -41 -26 -17 1 21 29
17 21 -43 -24 -15 2 22 30
17 21 -41 -21 -12 4 23 31
17 21 -39 -19 -9 6 25 32
17 21 -38 -16 -7 8 26 33
17 21 -36 -14 -4 10 28 34
18 20 -35 -12 -2 12 29 35
18 20 -33 -9 2 14 30 35
18 20 -31 -6 5 16 31 35
17 19 -30 -3 7 17 32 35
17 19 -28 1 10 19 33 35
16 18 -26 4 12 21 34 35
16 18 -25 6 13 22 34 35
15 18 -24 8 14 22 34 35
15 18 -23 9 15 23 34 34
14 18 -21 11 17 24 34 34
13 17 -20 13 18 25 33 33
13 17 -18 14 18 25 33 32
12 17 -16 15 18 25 32 31
12 16 -14 16 19 25 32 30
11 16 -12 17 19 25 31 28
10 15 -10 18 20 26 30 27
9 15 -10 18 20 26 29 27
9 14 -10 18 20 26 28 27
8 14 -9 18 20 25 27 27
7 13 -9 18 20 25 25 27
6 12 -8 19 19 24 24 26
5 11 -7 19 19 24 23 26
4 11 -7 19 19 24 23 25
3 10 -6 19 19 24 22 25
2 9 -5 19 19 24 21 24
1 8 -4 19 18 23 20 23
1 8 -3 19 18 23 20 23
1 7 -3 19 17 23 20 23
1 7 -2 18 17 23 20 23
1 6 0 18 16 23 20 23
1 5 1 17 15 22 20 22
1 5 1 17 15 22 20 21
1 5 1 17 15 22 19 20
1 5 1 17 14 22 19 19
1 5 1 17 14 22 18 18
0 4 0 17 13 21 17 17
0 4 0 17 13 21 17 17
0 4 1 16 12 21 17 17
0 4 1 16 12 20 16 17
0 4 2 15 11 20 16 17
-2 3 3 14 10 19 15 16
-2 3 3 14 10 19 15 16
-2 3 4 14 10 19 15 16
-3 3 4 14 10 19 14 16
-3 3 5 14 10 19 14 16
-4 2 6 14 10 20 13 15
-4 2 6 14 10 20 13 15
-4 2 6 14 10 20 13 15
-4 2 6 14 10 20 13 16
-4 2 6 14 10 20 13 16
-4 1 5 14 11 20 13 17
-4 1 5 14 11 20 13 17
-4 1 5 14 11 20 12 16
-4 1 5 14 10 20 12 16
-4 1 5 14 10 20 11 15
-5 2 4 14 9 19 10 14
-5 2 4 14 9 19 10 14
-5 2 4 14 9 19 10 14
-5 2 4 14 9 20 10 14
-5 2 4 14 9 20 10 14
-6 3 5 14 9 21 11 14
-6 3 5 14 9 21 11 14
-6 2 5 14 9 21 11 14
-6 2 5 15 10 21 11 15
-6 1 5 15 10 21 11 15
-7 0 6 16 11 22 11 16
-7 0 6 16 11 22 11 16
-7 0 6 15 11 22 10 16
-7 1 6 15 10 22 10 16
-7 1 6 14 10 22 9 16
-6 2 5 13 9 21 8 16
-6 2 5 13 9 21 8 16
-6 2 5 13 9 21 8 16
-6 2 4 13 9 21 8 16
-6 2 4 13 9 21 8 16
-6 2 3 13 9 22 8 17
-6 2 3 13 9 22 8 17
-6 2 3 13 9 22 8 17
-6 2 3 13 9 23 8 17
-6 2 3 13 9 23 8 17
-6 1 3 13 10 24 9 18
-6 1 3 13 10 24 9 18
-6 1 3 13 10 24 9 18
-6 1 3 13 10 24 9 18
-6 1 3 13 10 24 9 18
-6 0 4 13 10 23 8 18
-6 0 4 13 10 23 8 18
-6 0 4 13 10 23 8 18
-6 0 4 12 10 23 7 18
-6 0 4 12 10 23 7 18
-5 1 3 11 9 24 6 18
-5 1 3 11 9 24 6 18
-5 1 3 11 9 24 6 18
-5 1 3 10 9 23 6 18
-5 1 3 10 9 23 6 18
-5 1 2 9 8 22 5 19
-5 1 2 9 8 22 5 19
-5 1 2 8 8 22 5 19
-5 1 2 8 8 22 5 19
-5 1 2 7 8 22 5 19
-5 0 2 6 8 22 4 19
-5 0 2 6 8 22 4 19
-5 0 2 6 8 22 4 19
-5 0 2 6 8 22 4 19
-5 0 2 6 8 22 4 19
-6 0 1 6 7 22 4 18
-6 0 1 6 7 22 4 18
-6 0 1 5 6 21 3 17
-6 0 1 5 6 20 3 16
-6 0 1 4 5 19 2 15
-6 -2 1 3 4 18 1 14
-6 -2 1 3 4 18 1 14
-6 -2 1 3 4 18 1 14
-6 -2 1 2 3 17 1 14
-6 -2 1 2 3 17 1 14
-6 0 0 1 2 16 0 13
-6 0 0 1 2 16 0 13
-6 0 0 1 2 15 0 13
-6 1 0 0 2 15 0 13
-6 1 0 0 2 14 0 13
-7 2 0 -2 2 13 0 12
-7 2 0 -2 2 13 0 12
-7 2 0 -2 2 13 0 12
-7 1 0 -2 2 13 0 12
-7 1 0 -2 2 13 0 12
-7 0 -2 -3 2 12 -2 11
-7 0 -2 -3 2 12 -2 11
-7 0 -2 -3 1 12 -2 10
-7 0 -2 -4 0 11 -2 10
-7 0 -2 -4 -2 11 -2 9
-8 -2 0 -5 -3 10 -3 8
-8 -2 0 -5 -3 10 -3 8
-8 0 0 -5 -3 10 -3 8
-8 1 0 -5 -3 10 -3 8
-8 2 0 -5 -3 10 -3 8
-7 3 0 -4 -2 9 -3 8
-7 3 0 -4 -2 9 -3 8
-7 4 1 -3 0 10 -2 9
-7 5 2 -3 0 11 0 9
-7 6 3 -2 1 12 1 10
-6 7 4 0 2 13 2 11
-6 7 4 0 2 13 2 11
-6 8 4 1 3 13 2 11
-6 9 4 2 3 14 3 11
-6 10 4 3 4 14 3 11
-5 11 5 4 5 15 4 12
-5 11 5 4 5 15 4 12
-5 11 5 4 5 15 4 12
-4 12 5 4 6 15 4 13
-4 12 5 4 6 15 4 13
-3 13 6 3 7 15 5 14
-3 13 6 3 7 15 5 14
-3 13 7 4 8 16 5 14
-3 13 8 5 9 17 6 15
-3 13 9 6 10 18 6 15
-3 14 10 7 11 19 7 16
-2 17 10 7 12 20 9 18
1 20 10 7 13 22 11 19
3 22 9 8 14 23 13 21
4 25 9 8 15 24 15 23
6 28 8 9 16 26 17 25
6 28 8 9 16 26 17 25
6 28 7 9 17 26 17 25
7 28 6 9 17 26 18 25
7 28 5 9 18 26 18 25
8 27 4 10 19 27 19 26
8 26 3 9 18 26 19 26
8 25 2 8 17 24 19 25
8 24 1 7 16 23 18 25
8 22 0 6 14 22 18 24
9 21 -2 5 13 20 17 23
9 18 -2 4 12 18 14 21
8 16 -2 3 10 17 12 19
8 13 -3 2 8 15 9 17
7 11 -3 0 7 13 7 15
6 8 -4 -2 5 11 4 13
6 7 -4 -3 4 10 4 13
5 6 -4 -4 3 9 4 12
4 5 -4 -5 2 8 4 12
3 3 -4 -7 1 6 4 11
2 2 -5 -8 0 5 5 10
1 2 -5 -8 0 5 5 10
0 2 -4 -8 0 5 5 10
-2 2 -3 -8 -2 5 5 10
-4 2 -2 -8 -2 5 5 10
-5 1 0 -8 -3 6 5 9
-5 0 0 -8 -3 6 4 8
-6 -2 0 -8 -4 5 3 7
-6 -3 0 -8 -5 5 2 6
-7 -4 0 -8 -6 4 0 5
-8 -5 0 -9 -7 3 -2 4
-8 -5 0 -9 -7 2 -2 4
-8 -6 0 -10 -7 1 -2 4
-8 -6 -2 -10 -8 0 -3 4
-8 -7 -2 -11 -8 -2 -3 4
-9 -8 -3 -12 -9 -3 -4 3
-9 -8 -3 -12 -9 -3 -4 3
-9 -8 -3 -12 -9 -3 -4 2
-9 -9 -3 -12 -9 -4 -4 2
-9 -9 -3 -12 -9 -4 -4 1
-9 -10 -2 -12 -10 -5 -5 0
-9 -10 -2 -12 -10 -5 -5 0
-9 -10 -2 -12 -10 -5 -5 0
-9 -11 -2 -11 -10 -6 -5 -2
-9 -11 -2 -11 -10 -6 -5 -2
-10 -12 -3 -10 -11 -7 -6 -3
-10 -12 -3 -10 -11 -7 -6 -3
-10 -12 -3 -10 -11 -7 -6 -3
-10 -12 -3 -10 -11 -7 -6 -3
-10 -12 -3 -10 -11 -7 -6 -3
-10 -12 -2 -11 -11 -7 -7 -3
-10 -12 -2 -11 -11 -7 -7 -3
-10 -12 -2 -11 -11 -7 -7 -4
-11 -12 -2 -11 -11 -7 -7 -4
-11 -12 -2 -11 -11 -7 -7 -5
-12 -13 0 -12 -12 -6 -8 -6
-12 -13 0 -12 -12 -6 -8 -6
-12 -13 0 -12 -12 -6 -8 -6
-12 -13 1 -12 -12 -7 -9 -6
-12 -13 1 -12 -12 -7 -9 -6
-11 -14 2 -12 -11 -8 -10 -5
-11 -14 2 -12 -11 -8 -10 -5
-11 -14 2 -12 -11 -8 -10 -5
-11 -14 2 -12 -11 -8 -9 -5
-11 -14 2 -12 -11 -8 -9 -5
-11 -14 2 -11 -11 -7 -8 -4
-11 -14 2 -11 -11 -7 -8 -4
-11 -14 2 -11 -11 -7 -8 -4
-12 -14 3 -11 -11 -8 -9 -5
-12 -14 3 -11 -11 -8 -9 -5
-13 -14 5 -11 -11 -9 -10 -6
-16 -14 12 -5 -10 -9 -12 -7
-20 -14 19 2 -8 -9 -14 -9
-23 -14 27 8 -6 -9 -16 -11
-27 -14 34 14 -5 -9 -19 -12
-30 -14 42 20 -3 -10 -21 -14
-30 -14 48 29 4 -5 -20 -14
-30 -14 53 37 10 0 -18 -13
-30 -13 59 47 16 5 -16 -13
-30 -13 65 56 22 10 -15 -12
-29 -11 69 66 32 17 -10 -9
-9 1 56 84 62 43 17 12
12 12 44 101 92 68 44 31
32 22 31 118 122 94 69 52
52 33 18 136 152 119 96 72
72 44 5 151 181 143 121 91
89 51 -15 148 197 157 139 105
105 58 -33 146 215 172 157 119
121 65 -53 143 232 186 176 133
138 72 -71 140 248 200 193 147
151 77 -89 132 256 206 203 155
142 56 -89 86 189 148 156 123
132 33 -89 39 122 91 109 91
121 12 -90 -6 56 32 62 59
112 -10 -90 -52 -11 -25 15 26
102 -29 -89 -92 -70 -76 -28 -3
87 -31 -70 -93 -79 -83 -37 -11
71 -32 -51 -95 -89 -90 -47 -18
56 -34 -32 -97 -98 -97 -56 -26
40 -36 -14 -98 -107 -103 -65 -33
26 -38 6 -99 -114 -109 -74 -40
12 -35 23 -86 -105 -101 -74 -43
-3 -33 42 -72 -95 -94 -75 -45
-17 -30 60 -60 -86 -87 -75 -47
-31 -27 78 -47 -75 -79 -76 -49
-45 -24 95 -34 -66 -72 -77 -51
-49 -24 103 -34 -64 -68 -76 -51
-53 -24 110 -33 -61 -64 -74 -51
-57 -24 117 -33 -58 -61 -73 -51
-61 -24 125 -32 -56 -57 -71 -51
-65 -23 132 -31 -53 -53 -69 -50
-65 -23 135 -29 -51 -51 -67 -49
-66 -22 139 -26 -48 -48 -64 -48
-67 -22 142 -24 -46 -45 -61 -46
-68 -21 145 -22 -44 -43 -59 -45
-69 -20 149 -19 -40 -39 -56 -43
-67 -20 143 -20 -40 -39 -56 -41
-66 -20 138 -21 -41 -39 -55 -40
-64 -19 132 -23 -41 -38 -55 -39
-62 -19 126 -24 -43 -38 -54 -38
-60 -18 119 -26 -44 -37 -53 -36
-56 -18 107 -26 -41 -34 -50 -34
-52 -18 95 -26 -39 -32 -46 -32
-47 -17 82 -26 -37 -29 -43 -30
-43 -17 69 -26 -34 -26 -39 -28
-38 -16 58 -25 -32 -23 -35 -26
-35 -16 51 -23 -30 -21 -34 -25
-32 -16 44 -20 -27 -19 -33 -24
-29 -17 36 -17 -25 -17 -31 -23
-25 -17 29 -15 -23 -15 -30 -22
-22 -18 22 -12 -20 -13 -28 -20
-21 -18 21 -11 -19 -12 -28 -19
-20 -18 19 -10 -18 -11 -27 -18
-18 -18 17 -9 -17 -10 -26 -17
-17 -18 15 -8 -16 -9 -25 -16
-15 -18 13 -7 -14 -7 -24 -15
-15 -18 13 -7 -14 -7 -24 -15
-15 -18 12 -6 -13 -7 -24 -15
-14 -18 11 -6 -13 -7 -24 -15
-14 -18 10 -5 -12 -7 -24 -15
-13 -19 9 -4 -11 -7 -24 -16
-13 -19 9 -4 -11 -7 -24 -16
-13 -19 9 -3 -11 -7 -24 -16
