I II V1 V2 V3 V4 V5 V6
23 20 3 65 61 148 91 67
23 20 3 65 61 149 91 67
23 20 3 66 61 149 91 67
23 20 3 66 61 149 92 67
23 20 3 66 61 150 92 67
23 20 3 66 61 150 92 68
23 20 3 66 62 150 92 68
23 20 3 66 62 151 92 68
23 20 3 66 62 151 92 68
23 20 3 66 62 151 93 68
23 20 3 67 62 151 93 68
23 20 3 67 62 152 93 68
23 20 3 67 62 152 93 68
24 20 3 67 62 152 93 69
24 20 3 67 63 153 93 69
24 20 3 67 63 153 94 69
24 21 3 67 63 153 94 69
24 21 3 68 63 153 94 69
24 21 3 68 63 154 94 69
24 21 3 68 63 154 94 69
24 21 4 68 63 154 95 70
24 21 4 68 63 155 95 70
24 21 4 68 63 155 95 70
24 21 4 68 64 155 95 70
24 21 4 68 64 156 95 70
24 21 4 69 64 156 96 70
24 21 4 69 64 156 96 70
24 21 4 69 64 157 96 70
24 21 4 69 64 157 96 71
24 21 4 69 64 157 96 71
24 21 4 69 64 157 96 71
24 21 4 69 65 158 97 71
24 21 4 70 65 158 97 71
24 21 4 70 65 158 97 71
24 21 4 70 65 159 97 71
25 21 4 70 65 159 97 72
25 21 4 70 65 159 98 72
25 21 4 70 65 160 98 72
25 21 4 70 66 160 98 72
25 21 4 71 66 160 98 72
25 21 4 71 66 161 98 72
25 22 4 71 66 161 99 72
25 22 4 71 66 161 99 73
25 22 4 71 66 161 99 73
25 22 4 71 66 162 99 73
25 22 4 71 66 162 99 73
25 22 4 71 67 162 100 73
25 22 4 72 67 163 100 73
25 22 4 72 67 163 100 73
25 22 4 72 67 163 100 74
25 22 4 72 67 164 100 74
25 22 4 72 67 164 101 74
25 22 4 72 67 164 101 74
25 22 4 72 67 165 101 74
25 22 4 73 68 165 101 74
26 22 4 73 68 165 101 74
26 22 4 73 68 166 101 75
26 22 4 73 68 166 102 75
26 22 4 73 68 166 102 75
26 22 4 73 68 167 102 75
26 22 4 73 68 167 102 75
26 22 4 74 69 167 102 75
26 22 4 74 69 168 103 75
26 22 4 74 69 168 103 76
26 23 4 74 69 168 103 76
26 23 4 74 69 169 103 76
26 23 4 74 69 169 103 76
26 23 4 74 69 169 104 76
26 23 4 75 69 170 104 76
26 23 4 75 70 170 104 77
26 23 4 75 70 170 104 77
26 23 4 75 70 171 105 77
26 23 4 75 70 171 105 77
26 23 4 75 70 171 105 77
26 23 4 76 70 172 105 77
27 23 4 76 70 172 105 77
27 23 4 76 71 172 106 78
27 23 4 76 71 173 106 78
27 23 4 76 71 173 106 78
27 23 4 76 71 173 106 78
27 23 4 76 71 174 106 78
27 23 4 77 71 174 107 78
27 23 4 77 71 174 107 78
27 23 4 77 72 175 107 79
27 23 4 77 72 175 107 79
27 23 4 77 72 175 107 79
27 24 4 77 72 176 108 79
27 24 4 77 72 176 108 79
27 24 4 78 72 176 108 79
27 24 4 78 72 177 108 80
27 24 4 78 73 177 108 80
27 24 4 78 73 177 109 80
27 24 4 78 73 178 109 80
27 24 4 78 73 178 109 80
28 24 4 79 73 178 109 80
28 24 4 79 73 179 110 81
28 24 4 79 73 179 110 81
28 24 4 79 74 179 110 81
28 24 4 79 74 180 110 81
28 24 4 79 74 180 110 81
28 24 4 79 74 181 111 81
28 24 4 80 74 181 111 81
28 24 4 80 74 181 111 82
28 24 4 80 74 182 111 82
28 24 4 80 75 182 111 82
28 24 4 80 75 182 112 82
28 24 4 80 75 183 112 82
28 24 4 81 75 183 112 82
28 25 4 81 75 183 112 83
28 25 4 81 75 184 113 83
28 25 4 81 75 184 113 83
28 25 4 81 76 184 113 83
29 25 4 81 76 185 113 83
29 25 4 81 76 185 113 83
29 25 4 82 76 186 114 84
29 25 4 82 76 186 114 84
29 25 4 82 76 186 114 84
29 25 4 82 76 187 114 84
29 25 4 82 77 187 115 84
29 25 4 82 77 187 115 84
29 25 4 83 77 188 115 85
29 25 4 83 77 188 115 85
29 25 4 83 77 188 115 85
29 25 4 83 77 189 116 85
29 25 4 83 78 189 116 85
29 25 4 83 78 190 116 85
29 25 4 84 78 190 116 86
29 25 4 84 78 190 117 86
29 26 4 84 78 191 117 86
29 26 4 84 78 191 117 86
30 26 4 84 78 191 117 86
30 26 4 84 79 192 118 86
30 26 4 85 79 192 118 87
30 26 4 85 79 193 118 87
30 26 4 85 79 193 118 87
30 26 4 85 79 193 118 87
30 26 4 85 79 194 119 87
30 26 4 85 79 194 119 87
30 26 4 86 80 194 119 88
30 26 4 86 80 195 119 88
30 26 4 86 80 195 120 88
30 26 4 86 80 196 120 88
30 26 4 86 80 196 120 88
30 26 4 86 80 196 120 88
30 26 4 87 81 197 121 89
30 26 4 87 81 197 121 89
30 26 4 87 81 198 121 89
31 26 4 87 81 198 121 89
31 27 5 87 81 198 121 89
31 27 5 87 81 199 122 89
31 27 5 88 82 199 122 90
31 27 5 88 82 199 122 90
31 27 5 88 82 200 122 90
31 27 5 88 82 200 123 90
31 27 5 88 82 201 123 90
31 27 5 88 82 201 123 91
31 27 5 89 83 201 123 91
31 27 5 89 83 202 124 91
31 27 5 89 83 202 124 91
31 27 5 89 83 203 124 91
31 27 5 89 83 203 124 91
31 27 5 90 83 203 125 92
31 27 5 90 83 204 125 92
32 27 5 90 84 204 125 92
32 27 5 90 84 205 125 92
32 27 5 90 84 205 126 92
32 27 5 90 84 205 126 92
32 28 5 91 84 206 126 93
32 28 5 91 84 206 126 93
32 28 5 91 85 207 127 93
32 28 5 91 85 207 127 93
32 28 5 91 85 207 127 93
32 28 5 91 85 208 127 94
32 28 5 92 85 208 128 94
32 28 5 92 85 209 128 94
32 28 5 92 86 209 128 94
32 28 5 92 86 209 128 94
32 28 5 92 86 210 129 95
32 28 5 93 86 210 129 95
33 28 5 93 86 211 129 95
33 28 5 93 86 211 129 95
33 28 5 93 87 212 130 95
33 28 5 93 87 212 130 95
33 28 5 93 87 212 130 96
33 28 5 94 87 213 130 96
33 29 5 94 87 213 131 96
33 29 5 94 87 214 131 96
33 29 5 94 88 214 131 96
33 29 5 94 88 214 131 97
33 29 5 95 88 215 132 97
33 29 5 95 88 215 132 97
33 29 5 95 88 216 132 97
33 29 5 95 89 216 132 97
33 29 5 95 89 217 133 98
33 29 5 95 89 217 133 98
34 29 5 96 89 217 133 98
34 29 5 96 89 218 133 98
34 29 5 96 89 218 134 98
34 29 5 96 90 219 134 98
34 29 5 96 90 219 134 99
34 29 5 97 90 220 134 99
34 29 5 97 90 220 135 99
34 29 5 97 90 220 135 99
34 30 5 97 90 221 135 99
34 30 5 97 91 221 136 100
34 30 5 98 91 222 136 100
34 30 5 98 91 222 136 100
34 30 5 98 91 223 136 100
34 30 5 98 91 223 137 100
34 30 5 98 92 223 137 101
35 30 5 98 92 224 137 101
35 30 5 99 92 224 137 101
35 30 5 99 92 225 138 101
35 30 5 99 92 225 138 101
35 30 5 99 92 226 138 102
35 30 5 99 93 226 138 102
35 30 5 100 93 226 139 102
35 30 5 100 93 227 139 102
35 30 5 100 93 227 139 102
35 30 5 100 93 228 140 103
35 31 5 100 94 228 140 103
35 31 5 101 94 229 140 103
35 31 5 101 94 229 140 103
35 31 5 101 94 230 141 103
36 31 5 101 94 230 141 104
36 31 5 101 94 231 141 104
36 31 5 102 95 231 142 104
36 31 5 102 95 231 142 104
36 31 5 102 95 232 142 104
36 31 5 102 95 232 142 105
36 31 5 102 95 233 143 105
36 31 5 103 96 233 143 105
36 31 5 103 96 234 143 105
36 31 5 103 96 234 143 105
36 31 5 103 96 235 144 106
36 31 5 103 96 235 144 106
36 32 5 104 96 236 144 106
36 32 5 104 97 236 145 106
37 32 5 104 97 236 145 106
37 32 5 104 97 237 145 107
37 32 5 104 97 237 145 107
37 32 5 105 97 238 146 107
37 32 5 105 98 238 146 107
37 32 5 105 98 239 146 108
37 32 5 105 98 239 147 108
37 32 5 105 98 240 147 108
37 32 5 106 98 240 147 108
37 32 5 106 99 241 147 108
37 32 5 106 99 241 148 109
37 32 5 106 99 242 148 109
37 32 6 107 99 242 148 109
37 32 6 107 99 243 149 109
38 33 6 107 100 243 149 109
38 33 6 107 100 243 149 110
38 33 6 107 100 244 149 110
38 33 6 108 100 244 150 110
38 33 6 108 100 245 150 110
38 33 6 108 101 245 150 111
38 33 6 108 101 246 151 111
38 33 6 108 101 246 151 111
38 33 6 109 101 247 151 111
38 33 6 109 101 247 152 111
38 33 6 109 102 248 152 112
38 33 6 109 102 248 152 112
38 33 6 109 102 249 152 112
38 33 6 110 102 249 153 112
39 33 6 110 102 250 153 112
39 33 6 110 103 250 153 113
39 34 6 110 103 251 154 113
39 34 6 111 103 251 154 113
39 34 6 111 103 252 154 113
39 34 6 111 103 252 155 114
39 34 6 111 104 253 155 114
39 34 6 111 104 253 155 114
39 34 6 112 104 254 155 114
39 34 6 112 104 254 156 114
39 34 6 112 104 255 156 115
39 34 6 112 105 255 156 115
39 34 6 113 105 256 157 115
40 34 6 113 105 256 157 115
40 34 6 113 105 257 157 116
40 34 6 113 105 257 158 116
40 34 6 113 106 258 158 116
40 35 6 114 106 258 158 116
40 35 6 114 106 259 158 116
40 35 6 114 106 259 159 117
40 35 6 114 106 260 159 117
40 35 6 115 107 260 159 117
40 35 6 115 107 261 160 117
40 35 6 115 107 261 160 118
40 35 6 115 107 262 160 118
40 35 6 115 107 262 161 118
41 35 6 116 108 263 161 118
41 35 6 116 108 263 161 119
41 35 6 116 108 264 162 119
41 35 6 116 108 264 162 119
41 35 6 117 108 265 162 119
41 36 6 117 109 265 163 119
41 36 6 117 109 266 163 120
41 36 6 117 109 266 163 120
-78 -113 49 -135 -106 -236 -161 -122
-75 -92 51 -131 -164 -257 -171 -121
-80 -107 50 -134 -171 -370 -258 -133
-59 -73 65 -114 -128 -276 -173 -102
-57 -41 70 -104 -116 -266 -180 -76
-81 -104 61 -115 -127 -259 -179 -119
-84 -125 57 -122 -75 -240 -169 -124
-76 -110 65 -121 -60 -127 -82 -110
-97 -151 54 -133 -109 -221 -165 -141
-98 -179 48 -140 -127 -230 -159 -165
-76 -111 50 -129 -124 -243 -163 -125
-70 -90 49 -133 -184 -264 -176 -125
-74 -103 45 -132 -193 -372 -258 -136
-53 -65 60 -117 -142 -280 -178 -105
-56 -41 62 -105 -126 -272 -185 -82
-78 -99 54 -116 -130 -263 -183 -126
-83 -119 55 -122 -74 -244 -174 -128
-79 -110 61 -117 -57 -133 -87 -114
-95 -143 43 -130 -101 -230 -171 -147
-97 -171 38 -144 -114 -236 -164 -170
-75 -103 42 -138 -113 -250 -171 -129
-71 -91 47 -133 -164 -269 -181 -125
-75 -107 42 -134 -172 -376 -262 -140
-51 -66 54 -118 -129 -283 -181 -109
-53 -38 59 -112 -116 -274 -187 -86
-77 -103 52 -118 -116 -263 -182 -128
-82 -119 51 -117 -51 -241 -169 -128
-76 -106 56 -117 -45 -133 -89 -115
-95 -139 40 -135 -92 -229 -170 -148
-96 -165 34 -146 -105 -239 -163 -168
-72 -101 39 -137 -105 -253 -170 -131
-67 -79 39 -129 -157 -272 -180 -128
-71 -91 35 -138 -167 -379 -260 -141
-51 -60 47 -123 -119 -286 -180 -111
-51 -38 52 -111 -104 -276 -186 -89
-72 -99 49 -118 -100 -266 -182 -130
-76 -111 45 -126 -51 -250 -176 -132
-72 -98 47 -125 -40 -149 -100 -123
-93 -135 30 -139 -83 -242 -177 -152
-90 -157 23 -146 -93 -248 -168 -171
-70 -99 27 -142 -94 -259 -174 -130
-64 -84 30 -138 -146 -278 -182 -128
-68 -92 26 -141 -153 -380 -260 -137
-50 -61 43 -124 -107 -287 -179 -104
-50 -39 47 -115 -94 -281 -186 -86
-71 -99 42 -120 -97 -274 -184 -126
-76 -114 36 -124 -44 -256 -176 -130
-69 -100 36 -125 -31 -154 -98 -120
-91 -127 24 -145 -77 -248 -179 -152
-89 -151 18 -155 -88 -258 -174 -175
-68 -94 26 -154 -83 -268 -178 -136
-65 -84 27 -149 -127 -287 -188 -135
-69 -92 22 -148 -132 -388 -263 -143
-48 -59 34 -134 -87 -296 -185 -113
-52 -35 39 -131 -81 -293 -194 -95
-73 -95 34 -135 -77 -280 -187 -131
-75 -112 25 -138 -26 -264 -179 -133
-68 -98 27 -136 -13 -164 -104 -125
-86 -127 13 -153 -55 -258 -180 -156
-88 -152 9 -162 -64 -265 -177 -173
-67 -91 12 -156 -63 -278 -184 -140
-61 -79 13 -151 -111 -294 -192 -140
-66 -94 12 -154 -118 -394 -265 -148
-47 -60 25 -135 -77 -302 -189 -117
-50 -37 31 -126 -65 -298 -198 -100
-70 -92 30 -134 -63 -288 -194 -138
-71 -103 22 -140 -13 -273 -185 -138
-69 -91 23 -138 -5 -174 -110 -127
-89 -127 12 -161 -52 -264 -185 -155
-87 -144 6 -174 -65 -274 -182 -178
-66 -89 10 -169 -69 -285 -188 -143
-59 -74 10 -161 -120 -302 -196 -140
-63 -87 6 -162 -131 -402 -269 -149
-43 -57 21 -146 -88 -311 -193 -119
-46 -34 24 -139 -80 -306 -199 -101
-66 -86 18 -146 -86 -298 -198 -139
-66 -100 16 -149 -38 -280 -187 -138
-62 -86 18 -149 -28 -179 -112 -128
-83 -117 4 -164 -74 -270 -188 -156
-79 -136 1 -173 -84 -279 -183 -175
-62 -82 5 -167 -85 -290 -187 -142
-60 -72 6 -165 -131 -305 -196 -140
-64 -84 -2 -164 -145 -404 -268 -150
-45 -56 9 -151 -107 -315 -196 -124
-50 -36 12 -146 -102 -311 -204 -108
-69 -93 9 -154 -99 -301 -198 -142
-70 -104 8 -156 -52 -286 -190 -142
-64 -89 15 -154 -46 -188 -119 -133
-82 -121 1 -170 -85 -278 -190 -159
-80 -136 -5 -176 -97 -284 -184 -176
-60 -86 -6 -175 -103 -297 -192 -142
-60 -74 2 -170 -148 -312 -199 -143
-65 -86 2 -171 -158 -410 -271 -151
-48 -57 9 -157 -124 -324 -200 -126
-49 -39 10 -153 -117 -318 -206 -110
-66 -88 6 -158 -118 -311 -202 -145
-68 -99 2 -157 -73 -297 -196 -146
-62 -82 2 -164 -62 -199 -125 -138
-77 -113 -9 -174 -102 -288 -196 -163
-75 -125 -12 -180 -116 -297 -192 -178
-58 -74 -10 -180 -118 -305 -195 -142
-60 -65 -7 -174 -159 -320 -202 -143
-64 -76 -10 -175 -171 -420 -275 -155
-45 -51 1 -158 -133 -330 -202 -127
-50 -40 5 -152 -126 -324 -208 -110
-66 -90 2 -160 -126 -316 -204 -144
-67 -98 -2 -173 -85 -305 -199 -146
-62 -86 0 -172 -78 -211 -133 -139
-77 -115 -11 -185 -115 -300 -203 -166
-77 -127 -15 -187 -120 -304 -196 -179
-58 -74 -14 -181 -120 -314 -201 -148
-54 -65 -10 -176 -160 -326 -206 -145
-56 -80 -13 -175 -170 -421 -274 -153
-40 -50 -2 -160 -136 -336 -205 -127
-45 -37 -2 -156 -130 -331 -212 -112
-62 -86 -6 -167 -122 -321 -207 -144
-64 -90 -10 -173 -84 -311 -201 -147
-62 -84 -9 -170 -75 -216 -133 -139
-78 -114 -21 -185 -111 -303 -201 -164
-74 -127 -19 -191 -121 -311 -197 -180
-59 -79 -16 -185 -123 -321 -201 -149
-54 -67 -13 -178 -158 -333 -206 -146
-56 -78 -16 -179 -167 -429 -274 -155
-41 -42 -6 -167 -132 -343 -207 -130
-44 -24 -4 -163 -119 -334 -210 -114
-62 -70 -7 -165 -110 -327 -206 -143
-66 -76 -8 -165 -67 -314 -197 -145
-61 -67 -8 -161 -62 -223 -136 -138
-75 -96 -17 -180 -94 -310 -204 -165
-71 -110 -15 -184 -98 -314 -197 -176
-54 -64 -8 -180 -93 -322 -200 -145
-47 -54 -5 -173 -130 -333 -204 -143
-49 -61 -5 -168 -139 -425 -267 -148
-36 -36 5 -157 -103 -342 -203 -125
-41 -22 6 -149 -89 -333 -207 -111
-56 -62 0 -155 -85 -326 -202 -138
-60 -67 -4 -164 -52 -316 -197 -139
-58 -58 -2 -157 -44 -226 -135 -134
-75 -89 -10 -179 -75 -311 -198 -158
-69 -100 -13 -182 -81 -317 -194 -171
-51 -50 -16 -179 -88 -330 -201 -144
-47 -40 -24 -182 -124 -343 -209 -145
-46 -52 -28 -175 -130 -432 -270 -149
-31 -19 -19 -166 -95 -351 -206 -124
-35 -5 -16 -164 -89 -343 -208 -110
-50 -42 -21 -172 -85 -332 -201 -137
-51 -48 -22 -172 -46 -320 -194 -132
-49 -40 -18 -171 -40 -232 -133 -126
-63 -69 -34 -190 -77 -315 -198 -151
-60 -80 -42 -190 -87 -326 -197 -167
-44 -39 -39 -198 -93 -340 -205 -142
-41 -33 -38 -200 -135 -355 -213 -145
-44 -44 -42 -195 -143 -444 -273 -151
-29 -19 -31 -178 -107 -360 -208 -126
-34 -5 -33 -176 -97 -354 -212 -115
-46 -47 -36 -180 -101 -347 -209 -143
-44 -56 -39 -184 -66 -335 -200 -139
-42 -47 -43 -185 -63 -248 -142 -135
-55 -75 -52 -198 -95 -331 -202 -157
-51 -85 -52 -204 -103 -338 -199 -169
-38 -47 -51 -201 -101 -348 -205 -144
-35 -49 -44 -197 -140 -359 -210 -145
-38 -60 -47 -197 -157 -450 -273 -154
-27 -36 -32 -174 -124 -368 -213 -131
-35 -29 -27 -175 -121 -363 -219 -122
-48 -66 -39 -181 -117 -360 -216 -153
-48 -70 -47 -184 -88 -353 -214 -153
-51 -63 -45 -188 -90 -272 -158 -150
-67 -95 -52 -197 -123 -354 -219 -176
-63 -101 -49 -197 -128 -358 -213 -184
-50 -65 -44 -196 -127 -364 -215 -156
-50 -63 -41 -190 -158 -376 -219 -157
-54 -72 -44 -195 -171 -463 -279 -164
-39 -49 -37 -184 -144 -387 -222 -145
-43 -44 -36 -181 -142 -384 -230 -137
-59 -82 -39 -186 -148 -383 -229 -165
-60 -87 -41 -193 -121 -375 -226 -166
-57 -77 -41 -193 -115 -286 -167 -160
-72 -108 -46 -208 -141 -361 -222 -181
-66 -114 -49 -211 -144 -367 -218 -189
-51 -67 -50 -203 -148 -375 -224 -165
-50 -59 -49 -196 -189 -390 -231 -167
-51 -75 -47 -194 -194 -474 -287 -170
-39 -52 -40 -185 -168 -399 -232 -150
-46 -42 -42 -184 -167 -394 -236 -143
-58 -77 -42 -188 -161 -384 -231 -167
-61 -83 -42 -189 -129 -373 -225 -168
-60 -74 -36 -184 -117 -286 -168 -163
-72 -101 -43 -190 -136 -358 -222 -184
-69 -110 -40 -190 -142 -365 -219 -192
-56 -70 -30 -180 -144 -374 -225 -170
-56 -71 -23 -178 -174 -384 -230 -169
-63 -81 -16 -169 -179 -469 -288 -176
-51 -56 0 -156 -151 -392 -234 -158
-60 -50 5 -151 -141 -384 -236 -149
-69 -87 8 -144 -128 -369 -227 -170
-65 -84 10 -137 -80 -349 -218 -165
-57 -75 9 -132 -60 -253 -153 -154
-61 -92 -14 -134 -67 -307 -186 -160
-42 -83 -35 -131 -45 -288 -163 -150
-17 -38 -55 -115 -20 -267 -143 -110
-1 -13 -80 -107 -25 -246 -122 -89
13 1 -109 -93 8 -290 -142 -68
50 52 -124 -51 87 -164 -47 -15
72 87 -141 -2 162 -94 -3 28
86 90 -173 25 224 -30 47 37
107 111 -191 51 310 32 93 70
123 145 -207 70 358 153 178 99
123 155 -242 54 354 102 147 102
135 187 -266 36 361 110 169 114
137 251 -289 -24 323 85 163 146
117 274 -317 -152 193 10 128 138
85 250 -351 -297 39 -187 1 92
60 214 -355 -398 -92 -254 -50 36
22 156 -345 -454 -222 -379 -157 -36
-13 89 -351 -514 -331 -466 -223 -109
-39 56 -346 -541 -363 -507 -259 -139
-51 47 -345 -530 -364 -434 -223 -151
-71 14 -345 -511 -365 -496 -274 -177
-71 1 -320 -489 -345 -491 -270 -188
-68 25 -290 -455 -325 -491 -278 -171
-72 21 -264 -422 -343 -494 -285 -180
-77 11 -236 -385 -332 -568 -338 -190
-67 29 -190 -338 -278 -479 -278 -167
-70 31 -162 -311 -253 -456 -276 -160
-75 -3 -138 -290 -228 -432 -262 -179
-73 -16 -112 -270 -181 -408 -249 -175
-69 -24 -97 -245 -161 -316 -191 -168
-85 -57 -98 -251 -182 -386 -240 -191
-78 -67 -89 -239 -176 -387 -235 -195
-62 -45 -75 -217 -168 -388 -235 -171
-61 -49 -62 -207 -192 -392 -239 -170
-62 -62 -52 -198 -195 -471 -287 -177
-47 -43 -37 -177 -167 -391 -233 -156
-56 -46 -34 -177 -160 -382 -234 -149
-65 -78 -34 -180 -155 -374 -229 -172
-62 -82 -36 -180 -122 -364 -226 -171
-63 -78 -32 -171 -117 -283 -174 -168
-76 -106 -39 -180 -143 -355 -225 -188
-70 -108 -33 -178 -142 -360 -220 -190
-61 -78 -27 -172 -146 -365 -224 -168
-59 -71 -28 -160 -172 -375 -229 -168
-59 -77 -29 -164 -175 -453 -277 -172
-49 -55 -17 -150 -143 -374 -221 -147
-57 -54 -19 -149 -147 -367 -225 -144
-64 -85 -21 -161 -145 -363 -222 -166
-58 -85 -21 -158 -115 -352 -216 -164
-60 -83 -20 -150 -112 -270 -168 -160
-74 -109 -24 -157 -131 -340 -214 -177
-65 -105 -23 -158 -132 -347 -210 -179
-56 -76 -21 -155 -132 -351 -213 -157
-53 -71 -19 -154 -163 -361 -217 -158
-55 -76 -16 -156 -172 -439 -267 -164
-45 -56 -9 -141 -143 -363 -216 -143
-51 -57 -11 -142 -137 -354 -219 -139
-64 -90 -10 -144 -143 -349 -214 -162
-64 -94 -7 -148 -114 -340 -209 -161
-60 -87 -5 -143 -108 -261 -161 -158
-74 -105 -16 -157 -135 -334 -212 -181
-64 -103 -17 -153 -137 -337 -209 -184
-55 -70 -14 -150 -135 -342 -213 -163
-57 -71 -12 -145 -160 -346 -214 -165
-55 -77 -14 -149 -165 -425 -262 -167
-46 -56 -5 -141 -147 -354 -213 -148
-53 -56 -5 -139 -146 -352 -220 -147
-63 -83 -5 -138 -141 -344 -212 -168
-64 -89 -6 -142 -114 -335 -210 -166
-63 -85 -2 -141 -104 -257 -163 -162
-73 -106 -12 -153 -128 -325 -208 -184
-65 -104 -9 -147 -130 -327 -202 -182
-54 -72 -1 -143 -129 -330 -204 -160
-55 -72 -1 -139 -160 -336 -207 -161
-53 -74 -2 -139 -161 -412 -252 -162
-38 -47 6 -126 -142 -343 -206 -142
-45 -51 12 -127 -145 -337 -212 -141
-57 -81 8 -132 -140 -329 -206 -157
-58 -86 1 -132 -114 -321 -204 -155
-60 -80 1 -132 -102 -246 -159 -153
-71 -102 -6 -143 -132 -315 -204 -174
-65 -101 -7 -138 -136 -319 -201 -173
-53 -72 -4 -129 -137 -323 -203 -154
-54 -69 2 -124 -160 -329 -206 -155
-55 -76 1 -128 -166 -403 -250 -157
-42 -52 10 -113 -139 -331 -203 -136
-50 -49 5 -115 -143 -327 -209 -138
-58 -80 8 -120 -138 -320 -202 -153
-57 -85 9 -115 -112 -313 -198 -150
-58 -86 8 -117 -108 -242 -153 -151
-68 -106 -1 -127 -128 -309 -195 -170
-60 -102 2 -127 -128 -314 -193 -170
-56 -77 5 -124 -134 -315 -196 -151
-54 -73 7 -119 -157 -322 -199 -153
-53 -75 5 -111 -161 -397 -243 -156
-44 -53 16 -103 -137 -326 -197 -135
-48 -54 13 -103 -138 -321 -202 -138
-57 -83 14 -104 -133 -315 -197 -153
-59 -83 15 -108 -103 -305 -192 -150
-61 -76 16 -107 -102 -234 -152 -152
-70 -100 7 -119 -128 -299 -193 -170
-61 -95 11 -118 -123 -301 -188 -168
-52 -70 13 -115 -124 -306 -193 -154
-52 -71 17 -106 -146 -312 -194 -154
-50 -70 18 -109 -150 -384 -237 -157
-39 -48 25 -97 -133 -319 -197 -141
-47 -55 26 -94 -133 -313 -197 -138
-58 -83 27 -93 -127 -307 -193 -150
-58 -83 26 -94 -105 -301 -192 -149
-57 -81 25 -92 -101 -232 -152 -150
-65 -102 16 -102 -120 -296 -192 -165
-58 -93 18 -98 -117 -300 -190 -163
-50 -65 20 -94 -118 -305 -195 -149
-51 -69 26 -92 -142 -311 -196 -150
-51 -75 29 -88 -140 -377 -233 -149
-42 -57 39 -68 -115 -309 -190 -129
-51 -62 36 -67 -118 -305 -193 -130
-56 -83 38 -75 -112 -300 -190 -146
-58 -79 39 -80 -87 -293 -190 -146
-57 -80 39 -79 -88 -225 -149 -144
-66 -100 31 -91 -109 -290 -192 -163
-58 -94 32 -88 -112 -298 -191 -163
-51 -71 33 -81 -116 -303 -195 -147
-53 -72 35 -77 -140 -311 -197 -151
-53 -75 32 -80 -147 -380 -236 -152
-39 -56 41 -66 -124 -314 -196 -133
-49 -62 38 -64 -126 -312 -203 -135
-59 -82 36 -69 -129 -307 -199 -151
-56 -83 35 -72 -109 -297 -194 -147
-59 -85 35 -70 -109 -228 -155 -145
-67 -103 27 -84 -131 -290 -194 -163
-56 -93 31 -81 -129 -296 -192 -163
-50 -71 32 -80 -129 -299 -196 -148
-49 -71 30 -83 -154 -308 -200 -152
-48 -74 26 -80 -157 -376 -241 -154
-37 -57 39 -67 -141 -312 -199 -134
-46 -60 30 -73 -146 -308 -203 -137
-57 -82 22 -76 -145 -306 -201 -155
-57 -85 22 -76 -120 -298 -197 -150
-59 -80 22 -80 -116 -231 -160 -151
-65 -97 12 -86 -138 -292 -196 -168
-55 -86 16 -86 -134 -296 -194 -164
-48 -69 14 -88 -137 -304 -199 -150
-48 -64 17 -87 -165 -310 -202 -153
-46 -64 17 -88 -166 -373 -234 -151
-36 -46 19 -71 -144 -308 -195 -132
-43 -55 13 -82 -147 -301 -196 -133
-50 -74 7 -87 -147 -293 -190 -148
-50 -70 4 -88 -123 -289 -186 -144
-49 -70 1 -89 -121 -222 -151 -144
-58 -87 -7 -99 -138 -282 -186 -158
-47 -73 -2 -103 -129 -283 -181 -154
-42 -48 -4 -103 -135 -286 -184 -137
-41 -48 -6 -103 -155 -285 -182 -136
-40 -49 -12 -103 -157 -343 -212 -134
-31 -30 -6 -95 -136 -280 -171 -113
-39 -35 -12 -101 -136 -273 -171 -114
-43 -61 -13 -99 -132 -265 -163 -125
-42 -62 -12 -104 -109 -258 -159 -124
-42 -55 -16 -108 -109 -195 -124 -122
-50 -73 -28 -117 -123 -250 -157 -135
-41 -64 -28 -121 -117 -250 -150 -127
-33 -41 -27 -113 -113 -248 -149 -109
-34 -40 -27 -110 -133 -252 -150 -112
-34 -39 -26 -113 -135 -313 -183 -113
-20 -16 -25 -104 -112 -255 -148 -96
-29 -24 -30 -106 -114 -247 -147 -97
-34 -41 -34 -108 -112 -241 -144 -110
-35 -48 -30 -109 -82 -230 -136 -105
-37 -52 -32 -113 -80 -163 -100 -104
-44 -66 -41 -116 -101 -219 -132 -118
-35 -47 -42 -116 -94 -224 -132 -114
-30 -31 -40 -115 -97 -227 -135 -102
-31 -27 -36 -116 -120 -229 -135 -103
-28 -34 -37 -115 -114 -288 -165 -102
-18 -17 -32 -107 -95 -230 -131 -85
-27 -26 -37 -105 -100 -227 -133 -89
-32 -44 -40 -112 -96 -221 -129 -101
-32 -44 -37 -112 -75 -213 -122 -97
-32 -45 -38 -114 -76 -153 -88 -97
-40 -61 -43 -123 -93 -208 -124 -110
-32 -48 -39 -118 -88 -210 -119 -103
-27 -33 -36 -120 -88 -215 -123 -91
-27 -34 -34 -116 -110 -219 -124 -93
-26 -34 -37 -112 -110 -277 -155 -89
-19 -15 -33 -105 -93 -220 -121 -76
-25 -24 -38 -110 -97 -216 -123 -81
-33 -43 -36 -112 -91 -210 -119 -91
-32 -41 -38 -117 -71 -205 -117 -90
-32 -39 -38 -115 -71 -146 -85 -91
-39 -53 -45 -126 -93 -203 -120 -106
-27 -43 -39 -124 -89 -208 -119 -102
-23 -25 -40 -120 -89 -209 -122 -89
-26 -27 -41 -112 -109 -210 -121 -90
-23 -26 -40 -106 -105 -265 -149 -88
-18 -10 -31 -104 -92 -207 -116 -74
-29 -26 -36 -105 -91 -201 -117 -79
-35 -43 -35 -104 -88 -196 -114 -89
-33 -41 -34 -108 -68 -192 -111 -86
-33 -42 -34 -107 -67 -131 -78 -87
-39 -57 -41 -114 -83 -184 -109 -101
-28 -47 -39 -111 -82 -188 -107 -94
-23 -27 -38 -111 -80 -190 -110 -81
-26 -26 -37 -108 -95 -195 -113 -86
-26 -27 -34 -108 -104 -255 -144 -85
-20 -17 -23 -96 -91 -200 -113 -69
-29 -27 -31 -98 -93 -195 -114 -77
-31 -42 -31 -99 -86 -188 -109 -87
-32 -38 -32 -100 -69 -184 -108 -82
-32 -37 -33 -102 -67 -129 -79 -88
-37 -56 -34 -110 -78 -177 -106 -97
-30 -45 -30 -101 -76 -181 -103 -91
-26 -25 -30 -103 -80 -183 -105 -80
-22 -25 -33 -102 -97 -186 -107 -83
-21 -26 -32 -98 -94 -238 -134 -80
-14 -15 -25 -87 -78 -185 -102 -62
-24 -28 -28 -92 -82 -178 -102 -66
-30 -43 -31 -95 -79 -176 -100 -77
-27 -41 -29 -93 -57 -170 -96 -72
-30 -43 -29 -93 -56 -113 -66 -72
-35 -54 -33 -102 -69 -161 -94 -83
-25 -40 -29 -96 -64 -164 -90 -74
-21 -25 -29 -94 -69 -168 -94 -65
-20 -26 -28 -84 -85 -171 -97 -69
-17 -26 -28 -84 -80 -225 -125 -67
-13 -14 -19 -76 -63 -171 -93 -52
-24 -26 -20 -79 -68 -167 -94 -61
-29 -41 -23 -76 -69 -164 -92 -71
-25 -35 -24 -77 -50 -158 -89 -70
-26 -38 -23 -77 -49 -104 -60 -71
-35 -52 -33 -93 -62 -154 -88 -86
-26 -40 -28 -88 -52 -154 -86 -76
-22 -26 -24 -79 -56 -153 -89 -64
-21 -28 -22 -75 -72 -157 -90 -68
-20 -24 -25 -73 -68 -206 -114 -64
-13 -11 -20 -65 -55 -159 -86 -53
-23 -20 -25 -70 -60 -157 -83 -60
-25 -28 -27 -72 -58 -154 -84 -72
-22 -31 -25 -76 -39 -151 -86 -70
-25 -31 -24 -77 -38 -99 -60 -72
-35 -51 -27 -78 -48 -144 -84 -82
-27 -39 -19 -71 -39 -146 -81 -74
-21 -23 -24 -72 -47 -148 -84 -65
-22 -28 -24 -75 -65 -152 -85 -66
-19 -19 -21 -73 -65 -200 -109 -63
-12 -10 -11 -58 -45 -149 -79 -47
-20 -26 -16 -67 -53 -147 -81 -56
-22 -35 -16 -67 -50 -143 -76 -62
-24 -33 -19 -61 -31 -138 -72 -56
-22 -35 -23 -62 -27 -89 -49 -62
-28 -46 -29 -69 -40 -135 -77 -73
-21 -36 -24 -65 -39 -139 -73 -64
-17 -22 -24 -69 -41 -140 -75 -55
-20 -25 -22 -66 -52 -141 -75 -57
-18 -24 -19 -64 -55 -187 -97 -52
-11 -11 -9 -53 -39 -140 -70 -38
-20 -27 -19 -55 -44 -137 -71 -47
-21 -38 -21 -56 -41 -135 -70 -55
-17 -32 -21 -55 -27 -130 -68 -51
-20 -32 -24 -63 -24 -84 -44 -57
-27 -45 -26 -71 -37 -125 -67 -67
-20 -33 -25 -62 -34 -126 -65 -57
-18 -19 -27 -64 -37 -133 -70 -52
-17 -24 -25 -64 -52 -134 -69 -52
-16 -19 -27 -65 -57 -181 -95 -52
-11 -7 -20 -57 -42 -136 -70 -40
-18 -23 -23 -60 -43 -130 -69 -48
-21 -33 -26 -62 -43 -128 -68 -57
-19 -29 -25 -58 -24 -124 -67 -54
-24 -37 -21 -56 -22 -75 -40 -50
-27 -43 -28 -69 -39 -119 -64 -64
-15 -28 -26 -64 -36 -122 -61 -55
-14 -16 -26 -67 -39 -124 -66 -47
-16 -18 -27 -66 -55 -124 -67 -50
-14 -14 -27 -64 -55 -171 -90 -46
-11 -9 -21 -53 -40 -127 -66 -36
-18 -25 -25 -53 -43 -121 -66 -44
-18 -31 -27 -57 -40 -119 -63 -52
-16 -26 -26 -57 -23 -114 -59 -47
-20 -27 -25 -56 -19 -68 -36 -51
-28 -45 -28 -61 -33 -107 -59 -60
-18 -21 -27 -56 -32 -113 -60 -53
-10 -8 -30 -58 -35 -113 -62 -45
-11 -16 -31 -55 -51 -117 -62 -48
-11 -15 -26 -48 -51 -157 -82 -42
-8 -8 -19 -43 -36 -113 -55 -31
-18 -24 -22 -49 -40 -108 -55 -40
-19 -32 -23 -51 -38 -108 -56 -48
-18 -26 -22 -53 -22 -104 -55 -44
-18 -28 -19 -53 -23 -59 -32 -47
-21 -38 -28 -56 -38 -100 -55 -56
-13 -22 -23 -53 -35 -104 -54 -47
-9 -6 -25 -59 -40 -108 -59 -42
-11 -11 -21 -61 -54 -110 -60 -45
-8 -12 -18 -55 -50 -148 -79 -39
-6 -4 -17 -40 -37 -105 -54 -28
-17 -20 -21 -43 -40 -100 -54 -37
-20 -27 -23 -47 -33 -96 -50 -44
-17 -23 -22 -40 -18 -91 -48 -39
-21 -29 -26 -46 -23 -50 -28 -45
-24 -36 -32 -58 -36 -88 -50 -55
-14 -22 -27 -52 -32 -90 -48 -44
-12 -8 -26 -51 -33 -91 -51 -38
-7 -7 -23 -48 -45 -95 -53 -40
-3 -6 -24 -46 -52 -137 -74 -38
0 3 -18 -38 -40 -97 -51 -29
-13 -17 -20 -40 -42 -91 -52 -35
-15 -21 -25 -44 -43 -90 -51 -45
-12 -19 -19 -43 -30 -86 -46 -41
-20 -26 -20 -44 -31 -44 -26 -44
-24 -36 -28 -56 -37 -81 -46 -53
-11 -13 -26 -49 -32 -85 -46 -43
-10 -3 -27 -51 -38 -86 -46 -37
-10 -6 -26 -49 -50 -86 -47 -37
-6 -5 -22 -41 -44 -124 -65 -31
2 2 -17 -28 -30 -85 -42 -21
-7 -10 -21 -38 -32 -82 -41 -33
-10 -17 -17 -37 -29 -79 -41 -37
-8 -18 -18 -40 -11 -71 -36 -32
-13 -24 -22 -43 -11 -31 -16 -36
-19 -31 -27 -50 -27 -68 -37 -44
-8 -15 -24 -44 -21 -72 -36 -35
-7 -4 -20 -44 -21 -75 -41 -31
-7 -9 -19 -37 -34 -74 -40 -32
-2 -2 -18 -34 -31 -112 -58 -25
1 7 -10 -30 -17 -77 -39 -18
-9 -13 -11 -37 -23 -72 -39 -27
-11 -15 -20 -36 -23 -70 -37 -30
-10 -8 -19 -32 -8 -66 -35 -29
-12 -18 -19 -33 -3 -22 -12 -32
-15 -28 -28 -38 -13 -59 -34 -42
-5 -13 -25 -28 -12 -64 -32 -32
-4 -2 -22 -32 -15 -65 -35 -28
-7 -3 -21 -33 -22 -68 -37 -30
-6 1 -19 -33 -21 -104 -55 -26
-1 3 -9 -23 -11 -65 -33 -15
-10 -14 -14 -28 -17 -61 -35 -25
-8 -17 -17 -30 -13 -57 -30 -28
-7 -13 -15 -29 -1 -51 -27 -23
-11 -15 -15 -26 2 -12 -7 -28
-15 -21 -16 -28 -6 -43 -22 -34
-4 -3 -5 -23 0 -47 -22 -21
-1 9 -8 -21 3 -47 -23 -17
-2 9 -7 -19 -12 -47 -24 -16
0 11 -3 -17 -12 -82 -40 -11
5 19 3 -6 0 -45 -21 -4
-5 5 4 -12 -2 -40 -21 -15
-3 2 0 -12 -1 -37 -17 -19
0 7 5 -13 14 -35 -16 -14
-4 0 3 -18 8 0 0 -20
-5 -6 -2 -20 1 -32 -16 -26
4 21 3 -15 10 -37 -15 -13
1 24 2 -16 6 -36 -17 -7
1 17 1 -16 -6 -34 -14 -8
6 25 4 -16 -5 -70 -33 -5
6 30 7 -9 2 -36 -13 3
2 21 -3 -15 0 -31 -14 -8
2 14 -5 -15 5 -28 -9 -9
5 16 -8 -9 20 -23 -7 -3
1 9 -11 -13 16 15 12 -7
0 3 -16 -23 4 -15 -4 -13
12 30 -9 -17 11 -18 -2 1
12 40 -6 -14 9 -19 -5 7
10 35 -9 -6 -5 -19 -4 5
14 41 -10 -8 -2 -53 -21 11
16 47 -9 -8 2 -24 -6 14
6 28 -16 -17 -10 -23 -10 0
7 15 -18 -14 -7 -21 -8 -4
8 19 -16 -17 7 -17 -5 1
7 16 -18 -19 4 18 13 -6
6 7 -26 -24 0 -12 -3 -11
18 26 -20 -20 8 -13 -1 1
20 33 -18 -15 7 -14 -2 7
18 27 -20 -13 -5 -16 -4 4
24 36 -20 -14 -4 -49 -20 9
26 40 -17 -1 2 -17 -1 17
13 20 -22 0 -3 -11 -1 6
17 11 -22 -8 3 -9 2 1
21 10 -21 -11 14 -8 0 2
13 4 -22 -17 10 24 15 -6
7 -8 -20 -13 1 -6 0 -12
15 6 -14 -8 2 -13 0 -4
16 10 -12 -9 4 -15 -7 -1
11 5 -10 -7 -8 -16 -9 -4
12 15 -10 -4 -9 -49 -25 0
13 21 -8 2 0 -18 -9 8
0 -1 -12 -6 -3 -14 -7 -3
1 -9 -12 -4 -3 -11 -4 -6
5 -7 -9 -1 11 -9 -5 -4
1 -19 -9 -12 8 23 11 -12
1 -23 -16 -17 0 -7 -5 -19
8 -4 -8 -9 6 -10 -4 -7
6 5 -8 -11 1 -15 -11 -6
6 3 -11 -9 -8 -17 -12 -10
11 4 -10 -7 -8 -50 -27 -5
12 7 -2 1 6 -18 -11 2
3 -9 -4 -1 0 -11 -9 -8
2 -7 -10 -4 -2 -11 -7 -13
4 -4 -8 -2 12 -8 -7 -9
-2 -18 -7 -4 17 28 11 -14
-7 -24 -6 -3 11 3 -3 -19
6 0 -4 4 12 -2 -5 -9
6 2 -1 9 11 -2 -8 -6
3 -6 3 8 3 -1 -8 -9
6 2 9 12 6 -32 -21 -3
6 3 17 21 17 -2 -6 3
-2 -16 17 17 12 2 -7 -11
-4 -19 20 17 12 1 -7 -14
-5 -16 30 19 23 -2 -10 -13
-13 -21 31 21 22 30 5 -19
-15 -30 32 17 23 5 -8 -26
-3 -8 46 34 34 6 -7 -15
0 2 48 42 40 12 -6 -10
2 5 44 50 46 21 1 -9
16 16 35 64 72 16 8 14
29 28 16 77 106 72 46 37
35 19 -15 78 126 106 70 44
51 33 -40 89 160 139 99 63
68 62 -71 104 207 178 132 92
86 84 -98 129 257 256 187 117
111 115 -117 166 319 293 224 151
149 168 -143 208 385 345 270 197
172 206 -165 238 435 396 308 231
190 230 -185 262 466 433 339 253
206 269 -206 270 492 432 352 284
210 304 -223 252 509 475 385 309
190 311 -251 176 473 467 386 308
173 336 -291 42 385 405 357 299
147 329 -321 -99 252 296 290 262
104 260 -327 -214 86 182 198 179
73 192 -324 -281 -63 18 74 91
57 173 -325 -330 -164 -85 3 52
31 155 -330 -364 -241 -145 -46 22
15 134 -318 -358 -263 -161 -65 2
12 133 -306 -327 -236 -177 -77 5
5 122 -273 -286 -201 -136 -60 8
-14 92 -244 -256 -187 -124 -64 -14
-18 79 -216 -227 -166 -116 -63 -23
-18 83 -180 -191 -131 -100 -60 -23
-23 71 -145 -160 -108 -55 -38 -27
-23 68 -117 -135 -98 -70 -48 -33
-11 78 -84 -100 -70 -61 -41 -19
-10 68 -70 -82 -56 -52 -39 -16
-11 53 -56 -64 -52 -47 -36 -18
-9 50 -41 -49 -50 -70 -47 -12
-8 36 -28 -33 -38 -38 -28 -8
-15 0 -19 -29 -39 -30 -29 -22
-13 -7 -8 -21 -26 -25 -25 -24
-12 -6 -5 -15 -13 -20 -23 -23
-13 -10 -7 -17 -18 8 -11 -34
-13 -22 -5 -13 -21 -17 -23 -38
-2 1 0 -2 -13 -20 -23 -24
-5 4 2 3 -15 -20 -27 -22
-7 -3 7 5 -26 -25 -28 -25
2 5 15 8 -19 -52 -42 -18
1 2 19 17 -7 -24 -27 -12
-14 -20 14 14 -15 -18 -26 -25
-14 -23 17 20 -11 -13 -20 -24
-11 -17 18 17 0 -11 -19 -21
-15 -23 15 13 -7 15 -6 -28
-18 -28 15 10 -14 -11 -17 -30
-2 -6 19 19 -10 -16 -19 -17
1 1 17 18 -16 -20 -25 -17
-2 -5 18 16 -26 -22 -26 -21
1 2 25 22 -20 -46 -38 -15
0 0 31 29 -10 -16 -22 -7
-11 -22 25 21 -19 -13 -22 -22
-8 -21 26 19 -17 -12 -20 -23
-7 -17 24 18 -9 -9 -19 -21
-14 -20 16 11 -15 14 -8 -33
-12 -20 14 7 -21 -11 -20 -37
-4 -3 22 20 -12 -14 -20 -23
-7 -4 26 19 -21 -16 -23 -23
-10 -11 28 21 -30 -17 -22 -25
-4 -3 28 24 -30 -43 -37 -21
-2 -1 36 33 -19 -16 -21 -14
-15 -23 34 23 -24 -11 -21 -27
-14 -23 31 20 -21 -13 -21 -30
-8 -20 32 31 -14 -9 -19 -26
-15 -31 26 26 -20 18 -6 -32
-15 -26 23 19 -24 -8 -18 -36
-2 -5 28 27 -19 -13 -20 -22
-6 -2 27 21 -24 -19 -26 -27
-8 -4 28 26 -39 -23 -29 -31
-4 -2 34 35 -34 -46 -39 -22
-5 -4 36 42 -24 -17 -23 -17
-14 -23 36 29 -28 -13 -22 -30
-14 -23 35 28 -25 -11 -20 -29
-11 -17 30 27 -16 -9 -19 -27
-14 -27 27 24 -24 16 -6 -32
-14 -28 26 25 -30 -10 -19 -36
-4 -4 32 34 -22 -17 -20 -23
-10 -7 34 36 -26 -17 -22 -22
-11 -14 36 32 -41 -18 -22 -25
-4 -2 37 36 -38 -42 -34 -17
-4 -1 39 41 -32 -18 -21 -14
-13 -24 36 35 -36 -12 -18 -24
-11 -22 34 40 -37 -14 -18 -25
-9 -17 33 34 -28 -15 -20 -24
-14 -28 35 29 -31 11 -6 -29
-16 -30 37 29 -36 -13 -18 -32
-5 -6 44 37 -31 -19 -19 -19
-7 -2 43 36 -35 -20 -23 -19
-10 -7 39 37 -45 -24 -27 -25
-3 0 43 48 -38 -47 -40 -19
-2 -3 45 48 -33 -23 -27 -16
-15 -24 42 36 -37 -17 -27 -29
-15 -23 42 39 -37 -18 -25 -31
-14 -17 46 38 -28 -16 -24 -28
-16 -26 42 32 -31 5 -14 -37
-12 -24 43 33 -34 -17 -25 -39
-1 1 49 42 -28 -22 -25 -26
-3 0 47 43 -31 -22 -27 -26
-8 -8 48 43 -41 -24 -29 -31
-4 -2 50 47 -37 -47 -40 -25
-5 -5 55 56 -31 -23 -27 -22
-17 -26 51 46 -33 -20 -28 -38
-15 -27 53 44 -36 -19 -26 -39
-14 -24 57 50 -24 -13 -23 -34
-20 -32 59 43 -25 11 -12 -42
-16 -31 57 42 -28 -11 -23 -43
-6 -10 61 52 -27 -19 -27 -30
-10 -9 60 51 -35 -22 -32 -31
-11 -12 65 55 -46 -24 -33 -35
-4 -3 68 65 -41 -47 -44 -26
-7 -3 70 65 -34 -26 -34 -24
-18 -27 67 58 -41 -20 -33 -38
-18 -26 67 63 -39 -23 -33 -39
-16 -21 68 59 -32 -22 -32 -35
-21 -31 65 53 -36 0 -22 -44
-22 -25 62 52 -39 -21 -31 -45
-8 -6 69 59 -30 -26 -34 -32
-10 -8 71 61 -35 -27 -37 -31
-14 -13 71 65 -46 -27 -38 -34
-9 -5 76 75 -44 -49 -48 -24
-8 -10 78 81 -43 -30 -40 -25
-17 -33 73 69 -52 -27 -40 -38
-17 -32 75 72 -47 -29 -40 -39
-18 -22 73 69 -41 -30 -41 -38
-23 -34 71 67 -50 -9 -30 -48
-21 -33 70 59 -57 -32 -41 -51
-11 -11 69 68 -52 -40 -45 -39
-12 -11 72 63 -55 -42 -50 -40
-17 -21 75 66 -62 -42 -48 -41
-8 -9 74 75 -61 -63 -58 -32
-12 -10 72 74 -59 -44 -49 -32
-24 -30 64 60 -66 -41 -50 -46
-22 -27 65 57 -66 -43 -51 -48
-23 -28 66 62 -58 -41 -50 -44
-25 -39 60 53 -64 -23 -42 -56
-20 -35 56 54 -68 -43 -52 -58
-11 -14 57 58 -62 -49 -51 -45
-13 -20 57 56 -65 -47 -52 -45
-15 -25 53 59 -75 -49 -55 -50
-11 -11 54 60 -71 -70 -64 -41
-13 -11 58 62 -68 -51 -54 -38
-24 -37 53 53 -76 -47 -53 -48
-22 -32 51 53 -75 -47 -48 -50
-16 -23 51 50 -67 -46 -49 -47
-23 -33 45 39 -70 -25 -40 -58
-21 -29 38 36 -73 -45 -49 -58
-12 -8 39 46 -64 -48 -50 -42
-15 -9 35 42 -65 -50 -53 -43
-13 -15 34 37 -78 -51 -51 -46
-4 -1 35 42 -77 -69 -59 -36
-4 4 32 42 -74 -48 -48 -35
-13 -20 24 37 -76 -41 -43 -44
-13 -16 23 39 -69 -39 -39 -40
-9 -7 20 30 -64 -35 -38 -35
-14 -16 13 20 -70 -15 -27 -44
-13 -15 11 16 -67 -30 -34 -42
-1 8 11 25 -59 -32 -34 -27
-4 7 9 22 -60 -29 -32 -26
-4 1 5 19 -66 -28 -30 -29
2 14 9 21 -58 -46 -37 -17
0 15 8 23 -57 -29 -30 -19
-9 -6 0 13 -64 -22 -26 -30
-6 -5 -3 15 -57 -20 -21 -26
-4 1 -5 21 -49 -16 -19 -21
-10 -11 -12 7 -46 6 -7 -27
-6 -10 -15 1 -53 -11 -15 -27
8 15 -12 8 -50 -15 -15 -13
4 13 -18 7 -52 -12 -17 -13
-1 4 -21 10 -55 -11 -14 -15
6 19 -19 13 -47 -28 -23 -5
2 12 -21 15 -44 -10 -13 -3
-7 -8 -27 6 -56 -7 -13 -19
-6 -4 -24 4 -52 -5 -9 -16
-2 -1 -28 1 -37 -2 -7 -10
-5 -10 -31 -6 -42 16 2 -19
-1 0 -32 -11 -48 -3 -8 -20
7 24 -25 -3 -41 -7 -9 -6
5 21 -26 -1 -42 -5 -9 -5
2 13 -27 7 -51 -6 -9 -8
7 21 -21 11 -45 -24 -16 1
5 20 -17 8 -43 -8 -8 0
-8 -4 -27 -2 -52 -5 -11 -15
-3 -3 -31 -4 -48 -5 -8 -13
1 5 -33 -7 -42 -6 -9 -9
-7 -5 -35 -11 -48 14 1 -19
-4 -2 -34 -7 -46 1 -4 -13
9 18 -28 2 -41 -4 -5 2
7 18 -24 -2 -45 -5 -9 -1
3 11 -26 -5 -54 -7 -12 -6
7 24 -27 -1 -52 -29 -23 0
6 17 -27 5 -50 -11 -15 0
-5 -8 -32 -6 -55 -6 -13 -13
-3 -5 -28 -8 -52 -4 -9 -12
0 5 -27 -6 -42 -4 -7 -9
-9 -5 -31 -13 -45 14 0 -18
-5 -4 -31 -17 -51 -1 -8 -18
5 18 -24 -11 -46 -5 -9 -3
0 15 -22 -8 -48 -5 -10 -2
-1 8 -23 -1 -51 -5 -9 -5
5 18 -15 4 -46 -22 -19 3
2 12 -12 3 -46 -5 -9 1
-7 -6 -23 -4 -55 -3 -8 -10
-6 -4 -24 -1 -50 -2 -9 -9
-3 4 -23 -1 -39 1 -6 -7
-8 -10 -27 -11 -43 19 2 -17
-7 -7 -24 -11 -46 1 -7 -16
5 18 -18 -6 -38 -5 -9 -4
2 17 -22 -5 -44 -5 -12 -5
-2 9 -23 -4 -51 -6 -12 -7
6 19 -18 3 -39 -22 -18 4
3 16 -19 2 -41 -8 -13 2
-10 -5 -24 -5 -44 -4 -10 -10
-7 -3 -21 -2 -42 -3 -7 -7
-5 3 -19 1 -30 0 -7 -2
-7 -5 -27 -7 -36 14 -1 -16
-6 -5 -22 -11 -39 -3 -8 -15
1 14 -17 -4 -37 -7 -9 -2
2 17 -23 -5 -40 -10 -14 -6
-2 11 -23 -6 -48 -11 -14 -9
6 22 -15 0 -38 -23 -20 4
3 17 -13 1 -37 -8 -13 2
-7 -5 -17 -8 -44 -5 -11 -13
-3 -3 -14 0 -39 -4 -11 -11
0 0 -12 2 -34 -1 -10 -7
-8 -14 -19 -3 -41 16 -1 -17
-7 -7 -19 -7 -43 0 -7 -15
1 16 -15 -3 -36 -6 -11 -4
2 10 -17 -5 -40 -6 -14 -7
-1 3 -16 -4 -43 -7 -14 -10
3 14 -10 1 -35 -23 -17 -1
-1 10 -11 5 -35 -7 -10 -2
-9 -9 -17 -3 -44 -3 -12 -14
-5 -4 -16 -3 -39 -4 -10 -12
-2 0 -12 -1 -25 -2 -9 -7
-12 -17 -16 -6 -31 16 0 -17
-7 -8 -15 -4 -28 0 -7 -16
3 12 -12 6 -25 -3 -9 -2
1 7 -14 3 -29 -4 -13 -6
0 2 -15 0 -37 -6 -14 -11
3 15 -6 3 -32 -20 -22 -1
-2 9 -7 7 -27 -2 -14 -3
-10 -13 -10 12 -30 2 -12 -16
-10 -10 -10 7 -22 1 -9 -12
-6 -4 -11 3 -19 2 -9 -9
-12 -17 -15 1 -25 17 -1 -19
-7 -10 -15 1 -27 0 -8 -16
3 13 -8 5 -21 -4 -12 -2
1 11 -8 1 -23 -3 -13 -4
0 4 -9 6 -29 -4 -13 -8
6 16 -3 10 -24 -17 -20 3
1 10 -8 11 -22 -1 -12 0
-7 -12 -11 3 -28 3 -10 -12
-4 -8 -13 3 -24 1 -8 -9
-5 0 -13 -1 -13 2 -9 -5
-11 -14 -13 -4 -21 17 0 -14
-8 -6 -17 -9 -25 0 -9 -13
3 14 -14 -5 -18 -3 -11 0
2 13 -14 -1 -21 -1 -13 -1
-2 2 -11 2 -24 -1 -11 -3
4 14 -4 7 -17 -15 -18 7
1 7 -7 6 -16 -2 -12 4
-7 -12 -14 -3 -25 0 -11 -11
-3 -7 -6 -2 -14 -1 -10 -8
-5 -3 -9 -1 -5 2 -9 -4
-12 -18 -21 -6 -17 18 1 -15
-5 -7 -21 -5 -17 3 -7 -12
5 11 -15 2 -11 -2 -10 2
5 9 -15 2 -14 -4 -14 -3
2 5 -12 0 -24 -7 -14 -7
7 19 -8 5 -20 -22 -21 4
1 16 -7 6 -21 -8 -15 2
-10 -11 -14 -3 -26 -3 -11 -10
-6 -5 -13 -1 -23 -2 -8 -8
-4 3 -11 -1 -16 -2 -9 -4
-12 -16 -18 -11 -21 11 -2 -16
-6 -10 -21 -15 -25 -4 -9 -14
5 16 -17 -9 -18 -9 -12 -2
0 12 -16 -11 -21 -10 -15 -4
-3 5 -15 -10 -29 -12 -15 -7
3 17 -11 5 -21 -26 -22 4
0 11 -9 10 -18 -10 -15 1
-7 -9 -16 -9 -24 -7 -14 -11
-5 -7 -14 -8 -20 -7 -12 -7
-2 -3 -11 -2 -15 -4 -12 -3
-11 -18 -18 -8 -19 9 -5 -15
-6 -10 -21 -14 -19 -5 -11 -12
4 14 -16 -10 -15 -11 -13 0
0 10 -17 -10 -18 -12 -16 -3
1 3 -16 -3 -24 -12 -13 -4
5 20 -11 4 -18 -25 -19 7
0 8 -9 3 -16 -11 -14 3
-8 -11 -14 -12 -22 -7 -12 -10
-6 -8 -13 -5 -16 -7 -10 -5
-2 1 -11 -3 -14 -9 -13 -5
-7 -14 -17 -15 -22 4 -6 -18
-2 -9 -20 -17 -25 -11 -13 -15
6 14 -14 -8 -16 -15 -15 -1
0 11 -14 -7 -20 -15 -17 -4
-2 3 -16 -13 -26 -16 -16 -8
4 18 -9 -9 -20 -25 -20 5
1 10 -6 -8 -14 -11 -13 3
-6 -12 -16 -13 -21 -5 -10 -9
-3 -4 -17 -12 -15 -8 -10 -6
-3 2 -16 -9 -13 -10 -13 -5
-10 -17 -17 -18 -21 4 -5 -16
-2 -7 -17 -20 -24 -10 -13 -13
5 14 -11 -11 -18 -13 -14 0
3 7 -14 -15 -19 -12 -16 -2
0 -2 -15 -14 -27 -15 -17 -6
3 13 -9 -9 -19 -28 -23 5
-3 11 -8 -12 -19 -13 -17 0
-9 -11 -13 -20 -23 -9 -14 -13
-4 -6 -12 -16 -18 -6 -8 -8
-3 1 -14 -10 -15 -7 -10 -4
-12 -19 -15 -18 -20 7 -2 -13
-3 -6 -18 -23 -19 -8 -11 -10
5 12 -12 -12 -14 -10 -11 4
1 7 -5 -10 -18 -9 -13 0
-1 2 -7 -13 -19 -8 -12 -2
5 19 -11 -13 -20 -24 -21 6
-1 11 -11 -12 -16 -11 -16 2
-12 -10 -16 -14 -21 -7 -14 -9
-8 -6 -14 -13 -17 -8 -13 -6
-1 1 -13 -15 -12 -10 -14 -3
-8 -6 -21 -24 -24 0 -12 -16
-3 2 -20 -18 -26 -11 -16 -13
6 17 -12 -8 -19 -12 -14 1
4 8 -9 -16 -22 -10 -15 0
3 1 -6 -16 -26 -9 -12 -2
10 21 -7 -13 -20 -22 -20 7
-1 4 -6 -9 -15 -7 -12 5
-8 -11 -10 -18 -20 -2 -10 -9
-4 -10 -14 -17 -16 -1 -8 -5
-2 -9 -8 -18 -11 -2 -9 -2
-11 -23 -11 -23 -22 9 -2 -13
-7 -9 -17 -22 -21 -4 -9 -11
2 14 -10 -10 -16 -7 -11 4
-2 11 -11 -12 -19 -8 -14 -1
-3 3 -13 -10 -21 -9 -14 -3
5 13 -9 -7 -17 -20 -17 9
-1 2 -10 -12 -21 -10 -13 2
-8 -16 -12 -24 -26 -7 -14 -11
-3 -10 -12 -19 -25 -7 -11 -6
-4 -7 -10 -17 -18 -5 -10 -3
-10 -24 -8 -22 -23 9 -3 -15
-2 -13 -12 -24 -21 -2 -7 -9
6 9 -9 -16 -15 -6 -10 3
2 7 -10 -17 -18 -5 -11 -1
0 1 -10 -20 -26 -5 -8 -1
9 17 -4 -13 -20 -17 -16 10
3 5 -2 -12 -18 -6 -12 7
-7 -13 -9 -22 -25 -4 -10 -5
-3 1 -10 -21 -22 -6 -12 -5
-3 0 -9 -14 -14 -4 -11 -1
-11 -17 -13 -21 -22 10 -3 -11
-5 -5 -10 -22 -22 -1 -8 -6
3 13 -1 -12 -17 -5 -9 7
3 12 -5 -9 -21 -3 -10 4
3 9 -5 -12 -25 -2 -8 2
7 27 4 -6 -18 -12 -13 15
0 14 9 -4 -17 2 -5 12
-5 -5 2 -12 -20 7 -3 1
-2 4 2 -12 -12 6 -2 4
2 9 2 -11 -9 9 -1 7
-6 -5 -1 -17 -13 22 6 -4
2 8 2 -15 -11 12 3 2
10 28 8 -9 -8 6 0 13
1 17 8 -13 -14 3 -4 8
1 16 8 -14 -20 1 -6 3
9 32 14 -3 -12 -9 -10 16
3 21 18 -1 -10 5 -4 12
-5 3 14 -6 -5 11 -1 2
0 14 12 -10 -8 8 -1 6
4 19 11 -12 -10 9 3 9
-4 -1 1 -21 -14 22 10 -3
2 11 -7 -21 -14 12 4 4
11 32 -4 -12 -7 9 4 17
6 28 -9 -15 -9 9 3 15
5 27 -13 -19 -11 10 4 12
14 44 -8 -5 -2 1 2 25
9 37 -7 -10 -7 13 8 20
5 22 -14 -20 -11 17 10 11
9 33 -18 -18 -12 13 6 13
11 29 -14 -16 -6 14 5 17
5 11 -19 -24 -12 24 11 4
11 21 -19 -26 -13 10 6 9
17 41 -21 -23 -11 4 -1 19
14 37 -23 -26 -13 5 -2 17
11 28 -21 -26 -15 8 1 15
20 43 -18 -18 -4 -1 -1 28
14 33 -21 -19 -7 10 5 22
8 9 -21 -27 -14 13 6 12
14 19 -21 -26 -11 11 7 17
16 22 -22 -25 -9 11 6 19
11 3 -25 -24 -11 22 11 5
20 13 -24 -25 -9 12 8 13
26 30 -19 -21 -5 7 4 24
20 23 -18 -22 -10 7 1 20
13 13 -15 -15 -12 7 1 16
19 21 -10 -12 -10 -5 -7 23
9 5 -6 -13 -12 5 -4 16
-4 -16 -9 -19 -13 9 -2 3
-2 -11 -10 -19 -11 8 -1 6
1 -4 -8 -22 -10 7 -4 7
-7 -21 -14 -30 -15 15 -1 -7
1 -10 -11 -27 -13 6 -3 1
8 7 -1 -20 -7 1 -7 13
5 -1 -3 -20 -11 -1 -11 6
0 -9 -7 -21 -14 0 -9 5
4 1 -3 -22 -17 -12 -15 14
-3 -11 -2 -21 -19 -3 -13 6
-10 -28 -5 -29 -21 2 -10 -5
-5 -16 -8 -26 -18 0 -11 -2
-4 -13 -5 -25 -10 1 -10 0
-14 -26 -11 -37 -22 8 -9 -15
-5 -12 -8 -31 -18 0 -11 -7
5 6 -1 -22 -11 -2 -13 7
1 -3 -2 -22 -13 -1 -14 0
1 -6 -1 -23 -18 -1 -14 -2
8 10 9 -16 -6 -7 -16 13
-1 -6 8 -15 -5 5 -10 7
-7 -25 5 -19 -10 9 -8 -3
-6 -21 8 -15 -3 9 -7 2
-8 -19 12 -13 0 8 -8 2
-14 -33 13 -17 -7 15 -8 -15
-9 -20 16 -15 -9 4 -13 -8
-3 2 27 -7 -3 -3 -18 1
-9 -4 37 -6 -3 -4 -22 -3
-15 -15 49 1 -2 2 -15 -2
-8 1 58 16 10 -1 -17 10
-11 -9 65 24 21 15 -13 4
-11 -27 62 29 29 30 -2 -3
3 -10 50 32 47 45 12 12
14 3 27 41 71 70 33 30
19 0 0 49 94 108 58 31
42 25 -23 61 124 128 81 58
63 63 -44 71 157 156 104 91
80 83 -72 91 196 199 139 113
102 102 -86 133 257 258 187 148
138 153 -103 176 331 312 230 195
159 173 -131 201 378 373 276 220
167 181 -152 227 427 422 316 238
187 224 -173 236 462 452 346 268
195 259 -198 230 481 473 368 295
185 272 -225 180 465 484 380 294
182 316 -254 81 410 439 367 308
163 344 -290 -53 294 347 312 295
125 294 -310 -179 131 217 221 227
85 217 -304 -263 -19 72 110 141
61 179 -295 -317 -136 -48 16 88
29 144 -307 -374 -235 -114 -35 43
2 102 -309 -390 -274 -145 -62 8
1 102 -297 -361 -257 -141 -65 4
-2 101 -280 -326 -222 -125 -61 6
-20 72 -254 -301 -205 -106 -60 -14
-16 80 -223 -262 -188 -111 -67 -13
-11 94 -186 -222 -161 -105 -70 -5
-21 80 -146 -190 -144 -90 -67 -13
-23 77 -115 -167 -124 -78 -62 -16
-16 82 -83 -129 -95 -72 -59 -1
-21 55 -63 -104 -81 -49 -49 -8
-26 30 -52 -98 -77 -38 -41 -19
-23 31 -34 -81 -65 -35 -39 -16
-20 21 -27 -67 -53 -27 -35 -13
-26 -9 -21 -63 -51 -14 -30 -27
-17 -4 -11 -51 -44 -23 -32 -18
-8 8 3 -34 -32 -23 -35 -7
-13 -6 9 -31 -31 -17 -33 -12
-12 -14 11 -30 -33 -17 -33 -14
-1 3 17 -19 -22 -27 -37 -2
-11 -14 18 -16 -22 -18 -35 -11
-22 -36 16 -23 -28 -14 -31 -23
-15 -29 17 -19 -25 -15 -30 -18
-15 -24 20 -17 -20 -15 -30 -18
-22 -41 15 -23 -23 -5 -25 -31
-15 -27 20 -13 -21 -15 -27 -20
-9 -9 27 -2 -14 -15 -28 -8
-12 -17 26 -6 -15 -12 -26 -10
-12 -20 24 -8 -20 -14 -28 -13
-3 -5 31 0 -13 -24 -32 0
-13 -22 34 -6 -16 -15 -28 -10
-22 -40 29 -12 -26 -13 -28 -23
-18 -32 33 -6 -18 -12 -27 -16
-16 -31 40 -3 -12 -11 -27 -15
-25 -46 31 -14 -16 -1 -23 -29
-15 -25 32 -8 -12 -12 -22 -20
-8 -11 36 5 -6 -14 -27 -9
-9 -24 36 4 -7 -12 -26 -14
-8 -26 35 1 -12 -13 -26 -16
-3 -8 42 8 -5 -22 -30 -2
-12 -25 43 3 -9 -14 -29 -13
-21 -42 35 -2 -19 -12 -28 -27
-17 -35 36 -3 -14 -13 -27 -22
-17 -29 37 1 -5 -12 -26 -20
-26 -51 32 -6 -14 -3 -22 -32
-13 -29 33 -5 -13 -11 -25 -24
-6 -8 37 5 -6 -16 -29 -14
-11 -20 38 11 -8 -12 -27 -18
-11 -26 41 10 -8 -11 -25 -16
-4 -9 49 18 -1 -21 -28 -3
-13 -25 43 12 -6 -14 -27 -15
-20 -45 39 4 -8 -10 -24 -25
-19 -38 42 9 -6 -11 -24 -20
-17 -34 43 8 -3 -10 -25 -19
-26 -49 37 0 -10 -3 -23 -34
-18 -34 39 4 -4 -11 -25 -23
-6 -15 42 11 -3 -17 -30 -14
-10 -22 45 10 -7 -16 -30 -17
-12 -28 45 11 -6 -14 -27 -18
-5 -3 49 22 3 -24 -30 -4
-15 -24 48 21 -4 -15 -26 -14
-20 -39 45 9 -10 -14 -24 -26
-16 -34 47 12 -5 -17 -26 -21
-20 -33 50 11 0 -15 -26 -21
-27 -49 43 4 -2 -5 -22 -34
-15 -35 45 12 1 -14 -23 -23
-8 -14 47 16 10 -18 -28 -14
-12 -22 47 12 8 -16 -27 -19
-12 -29 49 11 1 -17 -26 -19
-3 -10 57 28 11 -28 -29 -5
-14 -30 55 26 14 -19 -27 -14
-21 -49 52 15 9 -15 -20 -24
-18 -39 56 19 10 -18 -23 -18
-16 -34 58 25 11 -18 -24 -17
-25 -52 51 17 6 -10 -21 -32
-14 -35 51 15 14 -19 -20 -22
-8 -19 54 20 20 -23 -26 -13
-10 -26 54 19 13 -23 -30 -20
-12 -29 56 22 8 -25 -31 -23
-6 -14 70 29 15 -33 -34 -10
-16 -27 71 27 12 -25 -32 -22
-19 -40 59 20 2 -24 -33 -36
-15 -34 61 25 10 -23 -31 -28
-15 -34 63 29 15 -21 -30 -26
-24 -53 57 18 8 -13 -28 -40
-14 -31 61 22 15 -21 -31 -31
-9 -17 66 24 19 -25 -35 -21
-16 -29 70 25 17 -21 -32 -24
-18 -34 69 32 14 -20 -30 -24
-8 -17 72 42 26 -28 -32 -13
-17 -33 76 40 15 -20 -30 -24
-18 -47 68 29 0 -19 -31 -36
-15 -39 71 38 0 -20 -32 -30
-15 -36 75 39 3 -19 -31 -28
-24 -55 71 36 -3 -11 -28 -42
-18 -38 77 38 2 -20 -30 -29
-12 -24 77 43 7 -23 -33 -19
-18 -36 75 41 1 -23 -34 -23
-19 -40 77 38 -3 -24 -34 -25
-9 -23 87 51 5 -33 -37 -13
-21 -43 84 49 -1 -25 -35 -24
-28 -61 77 44 -6 -23 -33 -35
-22 -46 78 42 -4 -28 -37 -32
-22 -36 82 43 -1 -31 -39 -33
-29 -58 78 43 -9 -22 -35 -45
-19 -39 75 44 -9 -35 -41 -36
-10 -27 80 52 -3 -40 -44 -25
-15 -32 80 49 -3 -39 -45 -29
-18 -40 80 52 -11 -41 -46 -32
-9 -24 88 58 -7 -50 -49 -20
-20 -42 83 49 -10 -43 -48 -31
-29 -61 77 43 -17 -41 -46 -42
-24 -51 79 41 -16 -47 -49 -39
-25 -47 79 42 -17 -51 -53 -41
-29 -61 74 31 -22 -45 -52 -55
-19 -43 74 43 -16 -53 -52 -42
-11 -22 72 45 -13 -59 -58 -36
-14 -32 70 47 -17 -54 -54 -39
-17 -40 67 42 -25 -55 -53 -42
-10 -22 74 45 -19 -65 -59 -30
-20 -33 70 37 -27 -61 -60 -44
-28 -55 68 31 -34 -59 -57 -53
-24 -46 66 36 -25 -61 -55 -46
-25 -41 64 33 -22 -63 -57 -45
-32 -61 58 23 -34 -58 -55 -62
-20 -39 59 26 -31 -67 -57 -48
-14 -26 61 28 -25 -71 -58 -40
-18 -37 59 27 -28 -69 -58 -44
-15 -38 58 34 -32 -68 -55 -44
-8 -18 60 40 -25 -76 -58 -30
-16 -39 54 27 -31 -67 -54 -42
-23 -54 47 18 -36 -63 -48 -48
-20 -42 46 17 -32 -64 -45 -40
-18 -35 44 15 -25 -63 -44 -38
-28 -52 36 8 -30 -53 -39 -51
-15 -30 36 15 -24 -58 -39 -36
-7 -9 36 12 -21 -60 -39 -26
-15 -19 35 8 -24 -56 -38 -31
-13 -21 35 8 -24 -51 -36 -29
-2 0 34 12 -18 -58 -39 -14
-11 -21 35 7 -19 -47 -35 -25
-14 -33 24 0 -19 -42 -30 -31
-9 -24 26 5 -12 -40 -26 -23
-9 -16 22 2 -8 -40 -28 -22
-17 -35 13 -6 -11 -30 -21 -33
-8 -16 12 -5 -5 -35 -20 -19
0 3 13 -1 0 -36 -21 -8
-4 -7 10 3 -1 -30 -18 -10
-6 -9 11 0 -1 -28 -14 -12
1 11 18 2 10 -32 -15 5
-6 -9 11 -2 8 -23 -13 -9
-8 -24 7 -10 2 -20 -9 -17
-1 -11 3 -8 8 -20 -7 -9
-1 -9 1 -9 15 -18 -6 -8
-9 -25 -2 -17 10 -11 -4 -21
1 -4 0 -16 13 -19 -4 -9
5 11 4 -9 17 -21 -6 0
2 4 1 -11 13 -20 -9 -6
0 -3 0 -12 12 -19 -6 -6
2 15 4 -6 22 -26 -8 9
-6 -5 2 -8 15 -19 -6 -3
-10 -23 -1 -15 11 -13 0 -10
-2 -5 -2 -17 13 -15 -1 -4
-2 -5 -2 -14 18 -14 -2 -3
-12 -25 -7 -20 13 -5 4 -15
-1 -4 -5 -13 16 -13 2 -2
5 8 -2 -12 21 -17 -6 2
1 1 -5 -21 12 -19 -9 -6
0 -4 0 -20 9 -17 -7 -5
4 12 10 -11 19 -22 -9 10
-6 -10 3 -15 16 -14 -7 -3
-10 -26 -5 -21 12 -11 -2 -10
-4 -14 -4 -17 11 -11 -2 -4
-4 -10 -2 -15 20 -10 -2 -2
-11 -28 -6 -25 13 -4 0 -17
1 -1 -5 -19 16 -12 -1 -4
5 14 2 -16 19 -13 -2 7
0 1 2 -16 14 -10 -1 3
0 2 -3 -17 10 -11 -2 1
6 17 1 -11 16 -18 -6 14
-4 -8 1 -16 12 -11 -3 1
-9 -16 -3 -20 11 -9 0 -7
-6 -7 -6 -17 12 -12 -2 -4
-5 -6 -3 -14 18 -8 -2 -2
-13 -22 -9 -23 11 -3 0 -16
-3 -3 -5 -19 13 -9 -2 -2
6 12 0 -13 20 -12 -5 6
0 2 0 -12 19 -10 -5 1
-1 3 -5 -13 14 -12 -7 -2
6 20 2 -5 20 -16 -9 11
-7 -6 -1 -9 12 -8 -6 -1
-13 -18 -4 -12 11 -3 -2 -8
-8 -1 -7 -11 16 -9 -2 -4
-11 -5 -6 -16 17 -10 -6 -5
-16 -25 -8 -25 5 -4 -3 -19
-2 -3 -6 -24 8 -11 -4 -5
3 11 -2 -14 13 -12 -6 3
1 1 -2 -13 8 -10 -6 -1
0 -2 -2 -12 2 -10 -5 -1
7 15 5 -7 8 -14 -7 13
-4 -9 2 -11 1 -7 -6 -2
-10 -23 -4 -16 1 -4 -3 -10
-5 -7 -3 -16 6 -7 -4 -4
-7 -8 -3 -13 3 -7 -4 -3
-16 -28 -7 -18 -2 0 0 -15
-1 -2 -5 -17 0 -9 -2 -3
3 8 1 -14 8 -13 -7 3
-2 -4 4 -8 3 -11 -5 0
-3 -3 3 -4 -1 -14 -5 -1
6 11 10 1 6 -20 -7 11
-5 -11 4 -4 3 -12 -6 -3
-8 -23 -1 -13 -1 -9 -1 -9
-4 -12 1 -8 1 -10 -2 -5
-4 -9 5 -10 2 -10 0 -4
-16 -29 -1 -17 0 -3 1 -17
-3 -4 -2 -6 7 -10 -1 -5
2 12 -1 -4 10 -14 -6 1
-2 -2 -1 -2 5 -12 -5 -5
0 -5 2 -1 7 -12 -3 -3
7 14 4 7 12 -19 -7 9
-6 -6 1 -1 8 -11 -4 -5
-7 -14 -2 -10 -3 -10 -2 -13
-4 -6 -3 -2 2 -13 -3 -5
-3 -2 -3 -3 7 -13 -4 -6
-13 -22 -8 -16 -4 -7 0 -19
-3 -5 -2 -9 1 -12 0 -2
2 7 5 2 8 -11 -2 6
-1 -4 4 -2 6 -10 -2 -2
-4 -7 0 -5 2 -10 -1 -3
3 16 4 3 6 -16 -4 10
-6 -10 -1 -3 0 -9 0 -4
-7 -17 -4 -12 -6 -10 2 -11
-4 -6 -3 -10 -3 -12 -1 -5
-3 -6 -4 -9 -1 -13 0 -5
-10 -27 -8 -14 -4 -5 5 -16
-3 -7 -6 -6 3 -12 2 -1
2 7 -4 -3 7 -14 -2 4
-2 0 -6 -5 2 -13 -3 -3
-4 -6 -7 -5 0 -12 -2 -3
4 12 -2 0 4 -16 -3 12
-6 -9 -5 -2 2 -6 1 -1
-6 -20 -6 0 -2 -5 5 -8
1 -8 -6 -4 -5 -9 1 -3
-3 -9 -4 -9 -4 -8 0 -4
-11 -28 -8 -15 -7 -1 3 -16
2 -3 -5 -9 1 -6 2 0
4 10 -3 -4 -1 -11 0 7
-1 2 -7 -6 -7 -10 1 -1
-1 0 -6 -8 -7 -11 -1 -1
10 13 -5 -4 -2 -16 -3 11
-3 -6 -9 -9 -8 -7 0 -3
-6 -16 -14 -14 -9 -6 0 -10
0 -11 -10 -11 -5 -7 3 -1
-1 -10 -11 -10 -7 -9 3 -2
-10 -23 -13 -15 -12 -4 2 -16
5 4 -10 -9 -8 -12 1 -1
9 19 -12 -11 -9 -17 -6 2
4 6 -15 -11 -8 -16 -7 -4
2 -3 -9 -9 -6 -12 -2 1
5 10 -4 2 0 -17 0 14
-8 -11 -8 -8 -9 -9 1 -2
-9 -22 -7 -12 -14 -7 1 -9
-4 -13 -6 -13 -12 -11 1 -3
-2 -7 -11 -11 -8 -11 0 -5
-9 -22 -20 -16 -14 -8 0 -19
3 1 -18 -11 -9 -15 1 -2
6 12 -13 -3 -7 -16 -1 5
2 -1 -15 -11 -12 -17 -5 -3
0 -3 -11 -12 -9 -15 -3 -3
5 13 -1 -4 0 -20 -4 12
-6 -10 -11 -14 -12 -14 -5 -3
-7 -19 -14 -13 -16 -10 3 -11
-3 -7 -10 -6 -13 -13 1 -6
-4 -6 -12 -9 -12 -12 -1 -6
-9 -21 -22 -22 -16 -5 3 -18
4 -1 -16 -11 -8 -9 4 0
8 11 -11 -8 -4 -9 1 6
2 2 -14 -8 -8 -8 1 2
1 -3 -17 -10 -10 -8 4 1
8 11 -10 -2 -1 -11 5 16
-4 -12 -13 -7 -8 -6 3 2
-9 -24 -15 -9 -10 -3 8 -4
-5 -13 -11 -8 -4 -4 7 2
-5 -12 -15 -16 -4 -4 5 1
-10 -26 -18 -21 -9 2 9 -11
3 0 -17 -14 -4 -6 7 3
6 14 -16 -12 -5 -9 1 6
5 4 -16 -12 -8 -7 2 2
2 -1 -17 -14 -8 -7 2 1
7 18 -13 -5 -3 -13 -1 12
-2 -6 -17 -12 -8 -6 0 -2
-6 -17 -18 -13 -9 -3 5 -7
-3 -6 -16 -11 -5 -6 3 -2
-2 -8 -19 -13 -3 -7 2 -3
-10 -20 -24 -20 -9 -3 7 -17
4 4 -19 -11 -4 -9 7 1
7 15 -19 -10 -4 -14 -3 3
0 -3 -19 -11 -3 -10 1 -1
1 -4 -17 -11 -8 -10 2 0
7 13 -12 -1 -2 -15 -4 11
-2 -6 -16 -12 -5 -9 -5 -5
-4 -7 -19 -20 -11 -9 -3 -10
1 -3 -16 -16 -8 -9 -3 -2
0 -4 -13 -13 -5 -6 -5 -1
-9 -23 -22 -19 -10 -1 -1 -15
3 2 -18 -17 -6 -6 -2 2
7 17 -19 -15 -4 -8 -5 4
1 0 -22 -13 -6 -5 -5 -2
3 -4 -18 -10 -7 -3 -2 2
7 12 -13 -4 1 -6 -5 18
-6 -10 -14 -5 -1 -1 -5 -2
-7 -17 -15 -7 -2 2 -2 -5
-1 -6 -17 -10 -4 -2 -4 1
-2 -4 -22 -13 -3 -1 -3 -1
-9 -19 -27 -15 -7 5 1 -11
5 4 -21 -9 -3 -1 -2 4
9 11 -16 -8 0 -2 -4 9
1 0 -18 -12 -3 2 -3 2
3 0 -20 -10 -6 0 -2 2
11 17 -14 0 0 -3 -3 15
-2 -10 -19 -4 -3 4 -1 0
-1 -17 -23 1 -6 3 0 -5
2 -8 -18 -1 -3 0 0 2
-1 -9 -14 -7 -1 1 -1 1
-9 -24 -19 -15 -8 6 3 -9
2 3 -16 -14 1 0 2 7
6 11 -12 -9 3 -3 0 11
3 1 -15 -12 -2 -1 1 5
2 -1 -19 -13 -3 -3 0 5
9 14 -15 -3 6 -7 0 17
-3 -9 -17 -11 1 -1 0 1
-7 -21 -21 -15 -6 1 4 -4
0 -9 -20 -10 -2 0 4 3
0 -8 -20 -7 1 -1 2 1
-8 -25 -21 -14 -6 5 6 -10
7 3 -21 -11 -1 -3 5 7
10 13 -21 -10 2 -8 0 9
5 0 -18 -11 2 -6 -2 3
5 -2 -17 -8 1 -6 0 4
11 14 -14 1 6 -11 -1 16
-2 -12 -13 -4 0 -2 4 1
-4 -20 -13 -4 -1 1 11 -2
0 -9 -16 -2 3 0 10 3
-2 -9 -13 -8 8 3 9 4
-9 -19 -16 -12 4 11 13 -6
7 12 -10 -3 10 7 16 15
9 22 -8 4 20 6 11 17
6 10 -9 3 16 10 11 12
11 13 -5 3 13 11 13 13
17 35 0 9 18 6 9 24
3 8 -6 2 11 12 9 7
-1 -1 -8 0 10 13 11 1
0 5 -4 1 12 12 13 9
1 7 -3 -1 13 13 12 6
-5 -6 -8 -6 12 17 14 -6
10 23 -2 4 17 12 18 13
13 36 2 6 19 11 14 18
8 24 -3 1 17 13 17 13
8 21 -3 8 17 16 17 16
17 41 -2 11 23 10 13 28
4 16 -12 -1 12 13 12 9
0 3 -14 -4 10 19 20 10
6 16 -16 -1 16 18 22 17
8 20 -17 -4 19 18 21 16
5 10 -22 -9 13 23 23 5
17 44 -19 -6 16 15 21 21
19 47 -15 1 23 15 21 27
14 35 -17 -4 19 16 21 23
11 31 -19 -6 18 16 21 23
18 45 -13 -3 23 11 19 34
5 14 -18 -11 15 17 20 20
5 16 -27 -17 6 16 19 10
13 29 -30 -13 10 15 20 17
11 17 -26 -13 17 21 25 21
7 2 -34 -18 9 27 29 9
19 33 -30 -9 17 19 29 26
18 31 -26 -8 24 19 23 31
15 22 -31 -9 19 21 25 23
17 22 -28 -6 17 23 28 25
26 34 -22 6 22 21 25 38
17 4 -28 -3 16 25 24 19
14 -4 -29 -4 13 26 26 15
17 8 -28 1 18 24 26 20
15 8 -26 -6 16 23 23 17
5 -14 -29 -17 8 25 23 2
18 6 -26 -7 20 18 21 19
16 11 -23 -3 19 15 16 20
6 0 -25 -5 11 17 15 13
6 2 -24 -5 10 17 16 13
15 14 -22 -1 16 12 13 23
3 -15 -26 -8 8 18 14 6
0 -22 -28 -9 10 19 19 4
6 -11 -26 -5 15 16 18 9
6 -10 -25 0 11 16 15 7
-4 -27 -26 -13 -1 17 16 -6
9 -2 -24 -12 5 9 13 11
10 4 -19 -6 8 8 9 13
1 -10 -23 -1 8 10 9 6
-2 -9 -23 0 9 13 12 8
3 7 -19 1 11 9 9 19
-8 -21 -25 -10 3 15 8 -1
-7 -26 -24 -9 3 17 14 -3
-3 -13 -23 -1 5 15 13 4
-2 -16 -24 0 8 16 16 4
-3 -29 -25 -10 1 18 16 -8
9 -6 -15 0 7 12 16 10
12 0 -13 2 9 11 15 12
5 -13 -9 8 10 13 13 7
3 -12 -8 9 9 13 15 7
7 3 -1 19 14 10 13 17
-11 -28 -1 12 10 19 14 1
-14 -35 2 7 4 16 14 -4
-8 -25 9 14 9 13 11 0
-12 -25 13 22 11 15 11 -2
-17 -37 17 20 14 24 15 -11
-2 -5 29 37 30 22 16 5
4 5 35 51 43 30 19 11
7 -4 33 62 57 49 34 17
18 3 20 78 81 70 53 35
35 28 4 86 110 91 71 60
38 11 -22 86 128 125 94 62
49 19 -51 87 156 160 125 80
74 58 -79 104 195 195 157 112
95 87 -100 137 249 248 197 142
117 104 -119 171 308 312 248 165
159 163 -139 211 372 365 293 219
181 199 -161 236 419 405 323 247
192 218 -187 251 453 441 352 264
205 252 -209 245 472 463 377 291
210 297 -222 230 485 470 391 319
187 296 -253 148 439 456 389 310
163 308 -290 15 335 388 354 293
138 293 -320 -112 193 270 277 252
98 226 -318 -216 43 125 166 168
59 151 -318 -284 -96 4 70 84
45 147 -323 -336 -195 -84 9 60
24 134 -322 -360 -247 -133 -31 34
8 111 -316 -339 -245 -133 -41 17
4 101 -301 -310 -217 -115 -37 18
2 109 -272 -270 -187 -111 -39 22
-19 71 -246 -245 -179 -101 -43 -4
-21 60 -216 -219 -159 -91 -43 -11
-20 67 -180 -186 -134 -81 -37 -8
-25 59 -141 -149 -112 -63 -30 -7
-32 42 -115 -131 -97 -46 -24 -17
-16 62 -91 -98 -68 -40 -19 3
-15 58 -72 -80 -51 -30 -16 6
-16 37 -59 -71 -49 -24 -10 1
-13 28 -51 -57 -40 -18 -6 2
-5 29 -37 -32 -28 -14 -8 14
-20 -9 -34 -29 -30 -5 -6 -8
-18 -21 -29 -25 -26 -3 -2 -11
-12 -19 -18 -11 -15 1 0 -1
-13 -24 -13 -7 -10 1 0 -3
-14 -40 -15 -10 -17 5 2 -16
0 -7 -7 -1 -13 -5 -1 1
-2 -2 -3 2 -10 -6 -5 2
-5 -14 -3 4 -11 -4 -5 -2
-6 -19 1 7 -6 -1 -1 0
-1 -1 10 16 0 -4 -2 10
-15 -33 5 11 -8 4 -2 -7
-14 -42 3 10 -8 5 2 -9
-7 -27 5 17 -5 3 3 -2
-8 -28 9 14 -5 3 3 -3
-14 -43 3 7 -11 5 3 -15
0 -11 6 12 0 -3 1 3
-2 -12 10 16 -3 -2 -1 6
-6 -25 13 18 -5 1 -1 0
-5 -24 18 19 -3 2 2 2
-3 -12 26 29 8 -2 5 13
-17 -44 16 23 -2 5 3 -9
-17 -45 11 14 -2 4 4 -11
-10 -33 15 25 0 5 7 -3
-10 -34 15 19 -1 5 6 -4
-16 -48 10 10 -6 7 5 -18
-4 -11 16 18 0 0 2 2
-5 -9 20 24 -1 -4 -2 1
-10 -28 20 33 -2 0 1 -4
-8 -27 20 32 1 2 4 -2
-2 -11 25 34 8 -3 -1 6
-16 -42 20 21 -3 3 1 -14
-14 -48 19 20 -3 7 6 -13
-7 -38 20 26 4 7 7 -5
-11 -36 20 27 7 8 8 -5
-17 -45 16 17 -4 9 6 -18
-3 -20 24 29 4 4 7 3
1 -16 27 32 6 2 4 4
-6 -24 25 30 2 4 3 -3
-6 -22 24 32 2 4 3 -2
0 -10 31 41 6 1 1 10
-15 -44 21 30 -4 5 2 -11
-12 -47 22 29 -4 6 4 -13
-8 -38 26 37 7 7 6 -5
-11 -35 23 32 6 6 5 -8
-14 -41 18 29 -3 8 9 -19
-1 -18 29 38 6 4 7 4
-2 -16 31 37 6 3 3 5
-5 -27 30 40 4 5 3 -2
-4 -25 32 38 5 3 2 0
0 -13 37 46 9 -1 0 10
-13 -45 35 35 -1 3 -1 -12
-15 -49 29 35 -5 3 3 -14
-9 -34 29 35 -1 2 6 -5
-12 -38 27 35 -1 2 6 -8
-17 -50 22 26 -3 4 5 -20
-2 -22 29 41 6 -2 5 1
-3 -20 32 47 4 -5 0 1
-7 -29 34 48 6 -3 0 -5
-6 -25 39 47 6 -4 1 -3
-3 -12 46 52 8 -7 0 7
-18 -47 47 43 -1 -1 1 -13
-16 -53 40 39 -2 -1 3 -15
-9 -39 37 42 5 -3 3 -8
-12 -38 38 40 4 -3 2 -11
-18 -51 32 31 -6 -3 1 -24
-3 -21 39 45 9 -8 1 -4
-3 -17 41 48 14 -7 -1 -3
-8 -30 45 44 9 -5 -1 -10
-6 -25 48 48 6 -5 -1 -7
-2 -15 50 53 9 -9 -3 2
-17 -49 46 45 1 -2 -2 -18
-16 -48 47 46 4 0 1 -19
-11 -37 50 49 7 -2 0 -13
-11 -40 46 44 2 -3 3 -17
-16 -53 43 38 -5 0 1 -27
-5 -25 51 54 8 -3 -1 -5
-9 -21 53 54 5 -4 -4 -5
-13 -34 54 54 0 -4 -5 -12
-8 -28 57 58 2 -3 -6 -9
-3 -18 61 67 8 -6 -7 2
-20 -50 59 58 1 0 -7 -18
-19 -51 60 56 2 1 -4 -18
-13 -39 59 65 1 -2 -2 -10
-13 -41 57 73 -3 -5 -7 -16
-15 -51 55 62 -9 -3 -9 -27
-4 -23 67 62 -1 -10 -10 -8
-5 -22 64 60 3 -9 -13 -7
-12 -30 59 60 -1 -8 -11 -15
-12 -34 61 64 0 -7 -13 -12
-6 -20 67 71 7 -11 -15 -3
-20 -53 61 60 -1 -7 -16 -23
-18 -56 61 63 -6 -7 -14 -24
-13 -39 62 63 -7 -11 -16 -18
-19 -48 62 64 -7 -13 -18 -21
-24 -60 58 54 -17 -12 -19 -32
-10 -26 61 62 -12 -22 -23 -15
-11 -30 62 63 -8 -25 -27 -16
-15 -38 63 62 -13 -26 -28 -24
-14 -36 63 60 -14 -28 -28 -21
-12 -25 63 70 -12 -30 -29 -12
-26 -57 58 58 -23 -24 -25 -32
-23 -58 56 50 -25 -23 -24 -32
-17 -42 56 53 -22 -24 -26 -25
-20 -49 54 50 -23 -25 -25 -29
-25 -57 51 41 -32 -26 -27 -40
-7 -23 54 52 -22 -33 -32 -20
-9 -26 57 55 -19 -33 -31 -17
-16 -38 53 51 -26 -30 -33 -26
-12 -34 50 53 -25 -32 -34 -23
-7 -26 55 61 -19 -33 -35 -14
-21 -57 48 48 -27 -27 -33 -34
-21 -57 42 42 -31 -28 -28 -34
-16 -42 43 40 -34 -31 -31 -25
-16 -47 43 44 -33 -29 -31 -26
-21 -56 34 34 -38 -28 -26 -37
-5 -20 37 41 -32 -34 -30 -16
-5 -14 35 40 -32 -35 -33 -16
-10 -30 33 33 -34 -31 -31 -22
-8 -24 34 33 -30 -31 -26 -18
-5 -15 38 39 -24 -30 -28 -8
-19 -45 30 32 -32 -22 -26 -28
-13 -42 26 25 -26 -19 -21 -26
-9 -31 23 24 -22 -19 -18 -16
-12 -32 18 21 -26 -17 -17 -19
-10 -40 12 15 -31 -15 -16 -28
2 -9 17 21 -17 -18 -13 -4
2 -6 17 27 -12 -15 -13 0
-4 -17 14 25 -11 -9 -11 -4
-1 -15 14 23 -8 -7 -8 1
5 -2 15 27 -4 -7 -8 11
-10 -28 4 10 -13 0 -8 -10
-7 -20 -1 4 -13 1 -5 -11
1 -15 1 9 -7 2 -2 -2
-2 -23 -3 5 -8 5 -1 -5
-7 -28 -5 -3 -10 7 2 -13
8 3 2 9 4 5 6 11
8 2 -1 10 3 8 6 14
3 -6 -4 8 1 11 5 9
6 -3 -3 9 5 12 10 14
9 8 3 12 8 13 11 24
-4 -21 -1 6 0 19 11 5
-1 -21 -4 7 5 19 12 5
5 -9 -2 10 8 18 12 12
-1 -14 -6 7 4 18 11 6
-5 -26 -11 1 -2 23 13 -1
10 5 -7 9 5 17 12 20
6 7 -5 8 3 16 11 19
3 -4 -6 11 -1 18 10 12
6 -2 -2 13 3 20 12 18
11 11 -5 10 4 16 7 23
-1 -20 -11 0 -4 22 9 4
0 -19 -12 0 -1 23 12 8
6 -4 -12 -1 3 19 11 12
1 -10 -7 -3 1 21 9 9
-5 -20 -11 -9 -7 22 12 -1
12 9 -8 1 3 18 12 21
9 11 -4 7 5 18 11 22
1 -3 -7 0 -1 20 10 15
3 -1 -6 -2 1 20 10 17
7 8 0 7 8 17 10 25
-7 -14 -7 -7 -5 21 9 4
-3 -15 -9 1 -2 24 14 8
2 -8 -9 7 6 24 15 16
0 -14 -12 -3 3 23 12 11
-5 -26 -14 -9 -8 25 15 3
9 10 -7 -2 -1 18 15 22
9 11 0 -1 1 17 8 21
3 -3 -5 -2 -2 18 7 13
3 3 -4 2 -5 18 10 17
4 20 0 12 -1 16 10 26
-10 -17 -7 0 -11 21 8 6
-4 -14 -9 -2 -9 20 14 5
3 -3 -6 3 1 20 14 13
-2 -8 -7 -1 -5 19 9 7
-3 -17 -12 -6 -11 22 10 -1
11 13 -4 3 -4 16 9 21
8 12 -2 3 -7 14 5 18
2 -2 2 6 -9 15 5 12
3 5 0 6 -6 14 5 15
8 14 4 5 -2 15 4 21
-7 -23 -4 -1 -10 22 8 2
-4 -26 -3 0 -4 26 13 7
2 -12 -1 1 -5 25 15 14
-3 -15 -5 -5 -9 24 13 8
-5 -23 -9 -10 -11 25 14 0
11 9 -1 1 -1 20 12 22
6 7 2 3 -2 19 9 21
0 -1 -3 3 -7 20 10 13
1 2 1 8 -2 20 9 18
3 8 3 15 1 19 12 26
-11 -22 -1 5 -10 25 10 6
-11 -21 3 5 -8 25 11 5
-4 -8 2 9 -9 21 8 9
-5 -14 3 5 -8 22 7 3
-6 -24 -6 -3 -15 21 6 -5
13 9 -1 3 -7 15 6 16
10 11 2 8 -9 15 4 14
1 -3 4 9 -10 19 8 9
4 2 3 11 -6 20 7 14
5 9 5 10 -6 18 4 20
-8 -20 1 6 -16 23 5 -2
-5 -17 0 6 -14 23 8 0
-1 -9 -1 5 -11 22 9 6
-4 -16 -1 2 -11 25 10 2
-7 -26 -4 -3 -13 27 11 -6
7 5 5 8 3 22 12 16
8 9 4 10 -5 19 7 13
2 2 3 8 -12 17 4 5
3 4 10 11 -7 19 8 12
4 10 13 20 2 20 6 21
-11 -24 7 12 -6 25 9 2
-6 -22 6 10 -9 26 14 4
0 -8 2 5 -7 22 11 8
-4 -12 -3 4 -14 19 6 0
-6 -19 0 -2 -16 22 10 -5
8 16 3 5 -7 16 6 14
7 14 1 9 -6 16 5 14
0 -1 3 17 -10 18 5 8
0 6 4 20 -5 17 6 14
7 16 6 18 -3 14 3 19
-8 -20 3 10 -13 20 5 0
-6 -22 2 8 -11 22 8 1
-1 -9 6 9 -9 20 7 7
-5 -14 0 3 -11 19 5 0
-6 -17 -6 0 -16 22 8 -5
11 14 0 10 -10 16 8 17
6 12 1 10 -12 15 3 14
0 1 5 7 -14 17 6 9
4 3 6 7 -10 19 8 15
6 14 7 13 -5 16 4 21
-6 -15 1 3 -10 21 4 0
-4 -17 4 0 -12 21 8 2
0 -8 8 11 -12 22 10 10
-5 -15 5 6 -12 20 7 3
-9 -21 1 0 -16 21 8 -5
5 13 4 12 -8 17 7 17
3 10 0 11 -11 16 3 14
-1 -2 2 -2 -18 15 1 6
4 5 5 2 -16 15 2 11
6 14 2 8 -10 12 -1 15
-6 -18 -3 2 -16 18 2 -3
-4 -16 1 0 -19 19 6 1
1 -5 3 4 -16 17 5 7
-3 -10 -2 0 -18 18 4 1
-6 -18 -3 -5 -20 19 7 -4
7 12 6 3 -12 14 6 18
4 11 3 3 -12 15 4 16
1 1 -4 -1 -17 13 0 7
6 6 0 2 -12 16 4 14
6 10 5 8 -3 16 7 22
-7 -22 -2 -2 -15 21 7 1
-3 -14 -2 -5 -14 20 8 4
0 -3 -1 2 -12 18 10 9
-3 -9 -2 -2 -19 18 5 2
-3 -11 -5 -10 -21 18 5 -4
11 15 -1 1 -14 12 4 18
9 9 1 -2 -13 14 2 17
2 -2 1 -6 -15 15 3 11
3 5 4 -1 -13 14 4 15
4 12 12 6 -13 15 2 22
-13 -20 3 -4 -21 21 3 1
-7 -15 -5 -5 -19 18 4 2
-2 -3 -4 -6 -19 17 4 9
-8 -13 -7 -9 -21 19 3 4
-6 -19 -10 -13 -23 21 9 -2
11 14 -4 2 -11 17 8 20
6 14 -4 1 -15 14 -1 15
-1 4 -5 -4 -18 15 0 8
4 11 -1 -5 -14 13 -2 11
7 13 3 4 -11 14 0 17
-6 -16 -5 -7 -22 19 2 -4
-6 -18 0 -12 -18 19 2 -2
0 -5 -1 -10 -20 15 0 4
-6 -10 -9 -15 -24 12 -3 -3
-8 -22 -9 -10 -25 16 2 -7
10 13 1 7 -14 11 3 16
7 11 3 -3 -16 11 0 12
0 0 0 -6 -17 12 -2 6
6 8 4 -2 -14 11 -1 12
4 15 3 -1 -12 11 -3 17
-8 -13 -6 -8 -23 14 -2 -3
-4 -15 -6 -5 -21 16 2 0
-1 -8 -2 -1 -14 16 3 7
-7 -14 -3 -8 -20 16 3 1
-6 -17 -3 -14 -25 16 5 -4
12 24 3 -11 -19 7 0 15
7 19 0 -13 -20 7 -2 13
1 4 -2 -15 -22 8 2 6
7 10 -1 -8 -17 10 4 13
8 14 2 2 -8 12 0 20
-6 -15 -6 -8 -17 17 0 -2
-5 -11 -7 -10 -17 16 3 0
-2 -1 -5 -6 -17 14 0 6
-6 -10 -4 -8 -19 14 0 0
-8 -15 -7 -17 -20 15 2 -4
4 16 -3 0 -13 8 -2 15
4 13 -3 0 -18 7 -5 11
1 5 -5 -11 -18 8 -6 5
5 12 -3 3 -14 8 -2 12
8 15 1 8 -11 9 1 20
-6 -20 -1 -7 -19 15 2 0
-3 -15 -4 -8 -13 16 2 1
2 -6 -4 -8 -16 14 0 6
-5 -14 -7 -14 -24 13 -1 -3
-7 -19 -8 -16 -24 16 2 -5
7 13 0 -9 -14 10 1 16
6 11 -3 -9 -18 8 -2 11
2 1 -4 -5 -20 10 -2 5
3 5 3 -3 -14 12 1 15
4 12 6 0 -7 11 0 19
-7 -19 -3 -13 -23 16 -1 -2
-5 -17 -3 -16 -24 15 2 2
-1 -4 -3 -16 -21 12 3 8
-6 -10 -8 -15 -22 13 -1 -1
-6 -14 -9 -16 -24 16 2 -4
7 18 -2 -6 -16 9 0 18
1 12 -2 -5 -17 9 -3 13
-3 2 -4 -6 -18 12 -1 7
2 12 -2 0 -15 12 -1 13
5 17 -1 6 -13 10 -3 18
-8 -14 -7 -8 -21 15 -1 -2
-7 -8 -7 -9 -21 14 -1 0
0 1 -4 -8 -17 13 -1 8
-2 -7 -5 -9 -20 14 -1 1
-5 -12 -9 -15 -24 14 -1 -4
10 20 -3 -6 -15 7 -3 17
6 14 -3 -6 -16 7 -7 11
1 5 -5 -13 -22 6 -8 2
6 14 -1 -12 -22 5 -7 10
6 18 0 -6 -20 3 -11 16
-9 -19 -4 -13 -25 9 -7 -4
-4 -14 -5 -14 -28 8 -4 -3
-3 5 -4 -16 -25 7 -5 4
-6 4 -3 -20 -30 7 -6 -5
-6 -2 -1 -19 -22 11 -1 -5
9 30 5 -8 -11 8 -1 17
4 27 8 -5 -12 11 -1 17
-1 18 5 -7 -18 12 -2 9
5 27 8 -4 -12 13 1 18
6 33 15 -1 -6 15 3 22
-7 4 5 -12 -16 18 2 1
-2 2 7 -8 -14 20 7 6
2 11 9 -5 -9 21 7 14
-4 4 6 -10 -18 21 4 5
-2 5 5 -9 -21 19 5 2
12 37 12 -1 -12 14 3 22
8 33 15 -2 -13 14 1 20
4 24 17 -6 -16 15 2 15
8 36 17 -1 -13 13 2 21
9 39 18 2 -9 15 3 26
-3 5 8 -6 -13 20 3 4
-1 14 4 -11 -14 18 5 8
3 20 2 -9 -13 18 6 16
-4 16 -6 -14 -13 19 6 8
1 21 -9 -19 -17 20 9 8
16 56 3 -8 -10 15 7 30
13 54 0 -12 -10 14 4 26
11 49 -2 -11 -12 16 5 22
14 56 2 -4 -4 17 10 32
12 56 3 2 -5 16 8 34
0 22 -9 -8 -17 19 5 11
2 24 -12 -18 -20 15 5 12
6 31 -11 -18 -14 14 4 19
3 21 -17 -22 -20 15 4 10
4 17 -22 -25 -21 16 7 8
18 46 -14 -15 -14 11 6 29
15 41 -13 -12 -13 13 6 27
15 31 -14 -16 -14 14 8 22
23 42 -10 -11 -11 14 8 30
23 44 -10 -6 -7 14 7 32
9 10 -16 -16 -12 20 8 14
10 14 -20 -18 -13 19 9 16
14 20 -19 -19 -13 15 7 19
11 13 -22 -23 -17 15 5 10
8 7 -20 -26 -23 17 6 8
20 33 -13 -16 -16 9 3 23
14 26 -12 -17 -17 6 -2 16
5 11 -11 -17 -22 6 -5 11
8 23 -6 -13 -15 7 -4 20
9 26 -5 -15 -14 4 -7 20
-4 -7 -7 -26 -27 7 -5 0
-3 -2 -8 -22 -25 4 -6 3
-2 8 -7 -21 -23 0 -11 7
-8 -3 -15 -26 -31 -1 -14 -5
-10 -3 -19 -31 -36 -1 -13 -7
2 24 -11 -20 -27 -6 -15 12
-1 13 -5 -19 -26 -5 -17 8
-6 -1 -5 -17 -31 -4 -15 2
0 12 -4 -9 -26 -4 -15 10
0 14 -1 -11 -22 -3 -13 14
-12 -21 -7 -22 -28 2 -10 -6
-5 -15 -4 -20 -26 1 -9 -1
1 -2 -4 -19 -21 -1 -12 4
-6 -15 -8 -22 -30 -1 -13 -6
-6 -16 -10 -21 -33 -1 -12 -9
5 17 -3 -13 -20 -8 -16 9
1 11 -1 -14 -20 -7 -16 6
-3 0 2 -12 -22 -4 -8 2
0 8 8 -7 -20 -5 -12 8
-4 7 15 0 -17 -5 -16 8
-17 -23 15 -5 -26 -2 -16 -13
-14 -17 17 -2 -26 -5 -14 -10
-11 -8 23 -5 -22 -6 -16 -3
-20 -21 27 -4 -25 -5 -17 -13
-20 -22 31 3 -21 -2 -14 -14
-7 13 46 20 -6 -4 -15 6
-13 5 51 25 0 2 -13 2
-12 -5 58 42 14 16 -3 4
0 11 61 51 33 26 6 19
6 19 52 65 52 44 20 33
7 1 26 65 65 71 40 26
27 19 3 67 93 96 64 46
45 43 -17 78 123 125 90 71
60 59 -41 88 154 162 119 88
84 85 -71 110 204 207 158 113
121 144 -79 165 275 261 204 170
146 176 -104 199 326 317 245 199
163 192 -130 218 370 364 285 223
185 232 -144 241 412 398 313 256
196 266 -169 245 434 421 336 281
187 266 -198 215 431 440 356 279
185 299 -220 153 407 427 359 293
169 329 -251 43 331 374 335 295
139 308 -287 -90 197 274 270 248
101 249 -296 -203 40 133 168 172
77 214 -284 -267 -91 -6 61 114
47 178 -291 -327 -195 -96 -9 61
19 145 -296 -367 -262 -148 -49 27
11 132 -289 -357 -270 -162 -63 20
3 126 -274 -329 -249 -150 -65 19
-23 86 -261 -308 -235 -134 -63 -7
-25 83 -234 -275 -214 -127 -65 -10
-24 87 -197 -242 -194 -121 -66 -10
-34 69 -169 -213 -176 -108 -65 -23
-32 68 -137 -181 -152 -96 -59 -26
-20 96 -94 -140 -116 -85 -54 -2
-22 81 -69 -113 -102 -70 -49 -4
-22 60 -55 -93 -91 -58 -43 -8
-15 60 -38 -75 -79 -55 -39 1
-17 54 -30 -63 -72 -50 -39 1
-29 5 -25 -61 -72 -40 -34 -19
-25 -1 -10 -51 -63 -36 -29 -14
-18 6 -4 -38 -53 -35 -29 -9
-26 -12 -3 -36 -55 -33 -30 -21
-23 -21 2 -32 -52 -31 -26 -20
-6 11 16 -14 -38 -36 -27 2
-9 3 25 -14 -36 -35 -27 -4
-14 -7 18 -15 -42 -32 -25 -9
-10 6 25 -6 -37 -34 -29 -1
-14 5 26 0 -34 -33 -31 -2
-27 -32 23 -11 -40 -24 -27 -22
-22 -19 22 -11 -39 -27 -27 -19
-16 -11 25 -5 -33 -26 -26 -12
-20 -28 24 -9 -37 -22 -25 -22
-19 -28 21 -13 -41 -23 -24 -23
-4 6 27 2 -33 -28 -26 -1
-6 0 28 6 -32 -27 -28 -5
-12 -11 30 5 -30 -24 -26 -11
-8 1 39 6 -23 -24 -24 1
-10 0 38 11 -25 -22 -27 0
-25 -31 32 2 -34 -16 -25 -22
-18 -26 35 4 -25 -15 -22 -14
-13 -16 35 7 -22 -17 -23 -10
-18 -27 31 0 -29 -13 -24 -21
-15 -24 28 -3 -30 -16 -22 -23
-5 5 36 6 -22 -21 -25 -4
-9 -1 38 5 -23 -20 -27 -8
-16 -14 36 5 -23 -18 -26 -15
-11 -6 50 17 -15 -19 -23 -4
-13 -6 53 20 -15 -17 -23 -5
-26 -37 41 5 -25 -13 -24 -27
-20 -27 40 9 -23 -12 -17 -21
-16 -16 41 11 -19 -12 -19 -15
-22 -28 36 3 -21 -11 -23 -28
-17 -28 35 4 -24 -13 -21 -27
-6 4 41 9 -20 -19 -23 -6
-8 -6 45 13 -19 -17 -22 -9
-12 -17 44 9 -22 -16 -23 -15
-6 -5 51 17 -19 -19 -24 -6
-11 -9 54 26 -12 -15 -24 -6
-26 -41 46 17 -21 -9 -17 -26
-19 -30 46 20 -22 -10 -17 -22
-14 -19 50 16 -18 -11 -19 -15
-21 -36 43 6 -22 -8 -20 -26
-17 -34 42 6 -24 -9 -18 -23
-2 7 47 20 -16 -17 -22 -5
-8 -2 46 19 -15 -16 -26 -9
-11 -14 47 17 -17 -14 -25 -14
-7 -2 54 25 -12 -16 -23 -3
-10 -2 54 30 -12 -16 -27 -7
-25 -36 50 15 -21 -9 -22 -28
-20 -30 52 21 -18 -10 -21 -21
-13 -15 52 25 -16 -13 -22 -17
-22 -32 48 17 -15 -9 -21 -24
-22 -29 51 17 -19 -9 -19 -23
-7 2 56 25 -10 -15 -21 -3
-9 -7 55 23 -11 -14 -24 -8
-13 -11 55 22 -19 -16 -26 -14
-7 3 61 33 -12 -19 -24 -4
-11 -6 61 35 -10 -17 -24 -5
-23 -36 53 19 -20 -12 -25 -28
-19 -31 55 20 -15 -13 -20 -23
-16 -25 61 22 -18 -13 -20 -19
-22 -40 57 18 -23 -11 -22 -30
-18 -32 53 16 -25 -13 -20 -28
-2 4 63 28 -15 -19 -22 -9
-5 -5 69 29 -15 -17 -25 -13
-13 -12 64 28 -20 -17 -27 -19
-6 -2 67 39 -17 -20 -26 -10
-10 -9 71 41 -15 -20 -28 -11
-26 -42 63 29 -23 -13 -25 -31
-21 -30 66 29 -20 -15 -23 -27
-19 -25 68 38 -17 -15 -23 -22
-26 -41 66 31 -22 -12 -23 -32
-20 -31 62 25 -24 -13 -21 -31
-5 0 68 34 -17 -20 -25 -12
-8 -5 69 35 -19 -22 -28 -19
-14 -14 72 40 -21 -22 -29 -21
-14 -5 84 48 -13 -23 -26 -9
-17 -12 85 48 -11 -21 -28 -11
-30 -42 78 39 -20 -17 -25 -33
-26 -33 76 43 -18 -18 -25 -26
-23 -25 82 47 -13 -21 -25 -23
-27 -43 74 44 -21 -22 -31 -37
-21 -38 74 35 -25 -23 -29 -34
-9 -11 84 51 -17 -28 -30 -13
-13 -18 83 50 -20 -30 -34 -20
-13 -26 80 48 -24 -29 -34 -23
-9 -12 86 51 -21 -33 -35 -11
-14 -18 92 52 -18 -32 -37 -13
-23 -47 86 45 -30 -28 -35 -35
-19 -41 86 49 -27 -29 -33 -28
-18 -31 85 52 -24 -33 -34 -24
-29 -47 80 45 -29 -33 -37 -35
-25 -42 81 42 -31 -36 -36 -35
-9 -10 89 48 -30 -43 -39 -15
-16 -19 85 45 -32 -43 -43 -24
-19 -28 80 41 -38 -44 -45 -32
-11 -15 84 47 -32 -48 -45 -19
-17 -22 85 47 -34 -49 -49 -24
-30 -51 82 40 -43 -45 -47 -44
-25 -43 81 40 -40 -48 -45 -39
-20 -36 81 39 -39 -51 -46 -35
-28 -51 76 31 -47 -49 -48 -45
-28 -47 68 28 -53 -51 -47 -44
-14 -11 75 39 -47 -57 -49 -25
-17 -21 73 41 -48 -57 -51 -32
-22 -34 71 35 -53 -56 -52 -36
-17 -20 75 42 -49 -57 -49 -25
-20 -24 72 42 -49 -57 -52 -29
-32 -53 66 30 -53 -52 -49 -47
-25 -40 69 27 -54 -54 -48 -42
-21 -33 66 26 -56 -57 -51 -39
-27 -49 58 18 -62 -55 -51 -50
-20 -36 59 12 -64 -58 -52 -48
-7 -4 61 22 -54 -64 -55 -29
-11 -15 56 25 -56 -61 -55 -34
-17 -27 54 23 -57 -59 -52 -37
-11 -8 54 26 -54 -63 -52 -29
-12 -13 56 22 -52 -59 -52 -29
-26 -42 47 10 -59 -52 -47 -46
-19 -34 46 11 -55 -50 -42 -36
-15 -22 44 15 -51 -50 -41 -30
-22 -31 40 10 -53 -46 -40 -41
-15 -26 38 7 -49 -44 -33 -35
-2 10 40 13 -39 -48 -36 -14
-5 2 35 9 -39 -44 -34 -16
-8 -9 34 13 -39 -39 -28 -18
-3 1 34 16 -30 -39 -28 -7
-7 0 31 14 -31 -35 -28 -9
-21 -25 22 4 -36 -29 -24 -27
-16 -17 23 8 -28 -27 -20 -20
-11 -5 25 5 -27 -27 -19 -14
-18 -21 19 1 -32 -21 -16 -24
-11 -14 16 -4 -31 -20 -11 -17
2 17 24 9 -21 -23 -12 3
-1 9 25 4 -22 -22 -14 -2
-4 3 18 -2 -24 -19 -13 -8
4 14 20 3 -21 -20 -11 3
1 8 18 6 -20 -17 -12 0
-11 -18 11 -3 -26 -11 -9 -18
-7 -7 10 -7 -26 -14 -7 -12
-6 -2 12 -2 -22 -13 -5 -4
-12 -16 9 -7 -21 -9 0 -14
-9 -11 9 -10 -24 -9 1 -10
8 24 21 2 -14 -14 -1 10
4 17 19 1 -15 -14 -1 5
0 5 14 -7 -16 -13 -5 -1
9 22 19 -1 -14 -15 -3 14
3 13 23 0 -13 -12 -3 13
-8 -19 14 -5 -19 -8 0 -8
-1 -7 9 -7 -18 -12 0 -4
0 5 8 -9 -14 -14 -1 -1
-8 -12 5 -16 -21 -10 0 -12
-5 -6 6 -19 -20 -9 4 -6
8 28 9 -11 -15 -16 0 11
3 19 11 -9 -18 -15 -2 8
-3 5 13 -11 -20 -14 -1 4
7 20 16 -9 -16 -17 -1 15
3 13 16 -4 -11 -14 -3 11
-10 -18 11 -9 -15 -9 0 -8
-5 -10 13 -4 -14 -8 4 0
-5 -1 13 -5 -17 -10 3 5
-12 -14 8 -18 -23 -9 1 -10
-6 -7 10 -20 -22 -10 5 -4
6 19 14 -10 -16 -15 1 14
1 13 11 -13 -21 -14 -2 6
-2 9 9 -10 -22 -13 -3 1
4 18 15 -4 -13 -14 -1 14
0 13 17 1 -14 -11 -4 10
-14 -12 14 -7 -20 -7 -2 -9
-7 -2 12 -15 -19 -10 -1 -4
-2 4 11 -14 -21 -10 -2 0
-11 -17 11 -21 -24 -6 -1 -12
-6 -4 7 -22 -25 -8 1 -9
4 21 16 2 -15 -11 0 11
-2 8 18 -5 -12 -9 -1 6
-3 1 16 -11 -14 -9 -1 1
6 17 19 -3 -13 -12 1 14
-1 10 15 -1 -13 -9 1 10
-11 -13 9 -10 -20 -5 3 -7
-7 -7 10 -10 -19 -6 2 0
-4 -1 12 -7 -20 -8 1 3
-12 -14 10 -12 -23 -6 1 -10
-7 -6 10 -11 -18 -7 3 -4
3 22 20 -4 -10 -11 1 14
-3 13 21 -5 -14 -14 -3 6
-7 6 17 -7 -14 -12 -2 1
2 21 23 6 -11 -13 0 14
-4 13 22 5 -12 -13 -1 9
-16 -18 23 -7 -18 -5 5 -6
-8 -9 22 -2 -16 -8 3 -1
-2 0 19 -8 -13 -10 1 2
-8 -9 15 -19 -17 -8 -1 -13
-1 3 11 -18 -19 -9 0 -10
7 28 17 -5 -12 -12 -1 8
2 12 18 -1 -9 -8 -1 5
-1 1 17 -4 -13 -8 -2 -1
5 17 21 3 -8 -8 0 12
-2 10 20 8 -6 -8 -2 7
-16 -19 17 -5 -13 -3 -1 -12
-10 -10 21 -6 -14 -4 2 -6
-7 2 18 -4 -12 -5 1 -2
-13 -12 13 -11 -17 -3 0 -16
-6 -1 20 -8 -15 -2 3 -9
5 22 23 -1 -6 -7 1 8
2 12 20 0 -6 -6 -2 2
-3 4 19 -1 -11 -6 -1 -2
4 16 25 7 -4 -7 0 10
-2 7 25 6 -4 -6 -2 6
-16 -24 19 -4 -14 -1 1 -11
-10 -14 20 0 -9 -2 2 -6
-5 -2 20 1 -10 -4 -1 -2
-14 -15 14 -13 -18 -4 -3 -16
-5 -2 12 -12 -18 -6 0 -9
8 21 22 0 -8 -8 0 13
1 12 19 -4 -12 -9 -4 4
-2 7 18 -6 -13 -7 -3 -2
7 19 23 4 -5 -5 1 13
-1 7 24 5 -5 -3 -1 8
-14 -21 18 -4 -13 3 2 -9
-7 -10 15 -6 -11 1 2 -6
-5 -1 17 -2 -9 1 1 -1
-13 -19 16 -8 -14 5 4 -12
-5 -9 14 -4 -13 3 7 -5
7 17 19 1 -4 -1 5 13
0 8 17 -3 -9 -1 2 6
-1 0 16 -5 -12 0 2 1
8 20 22 3 -8 -3 1 12
-1 9 23 3 -7 -2 0 8
-12 -19 17 -2 -14 4 3 -7
-6 -11 15 -5 -14 2 5 -2
-2 -1 11 -5 -12 -1 2 0
-9 -18 11 -9 -12 4 4 -11
-3 -2 6 -13 -15 -1 4 -8
7 22 12 -3 -9 -6 3 9
2 10 12 -2 -11 -4 -2 2
-3 3 10 -6 -9 -4 -2 -2
5 18 17 4 -3 -5 0 13
-1 13 13 0 -11 -6 -5 4
-13 -17 11 -11 -17 0 0 -11
-9 -11 14 -13 -15 0 3 -3
-6 -1 11 -15 -14 -2 0 -2
-15 -19 8 -17 -15 3 3 -12
-9 -10 8 -16 -12 2 5 -6
3 13 17 -11 -6 -3 2 10
4 7 15 -11 -6 0 1 5
0 -1 11 -13 -11 1 0 0
5 12 14 -3 -3 -1 2 11
-1 8 14 -5 -6 -2 -2 5
-11 -18 10 -17 -16 -1 0 -12
-5 -3 6 -16 -12 -6 0 -7
-2 7 12 -14 -10 -6 1 -2
-10 -19 10 -15 -14 -1 3 -11
-3 -8 7 -16 -13 -3 6 -4
8 16 12 -10 -5 -8 3 12
4 7 13 -12 -8 -6 2 5
1 1 11 -16 -9 -4 4 2
8 17 15 -11 -7 -7 2 11
1 5 17 -10 -4 -4 1 7
-10 -21 12 -16 -10 1 7 -7
-4 -10 13 -14 -7 -2 6 -3
1 -1 13 -13 -7 -2 4 0
-8 -16 3 -17 -12 1 5 -11
-1 -6 3 -15 -12 -1 5 -6
8 20 11 -11 -4 -8 1 9
-1 6 9 -13 -4 -6 -1 3
-4 -1 10 -13 -5 -4 -1 -1
2 18 14 -7 -3 -5 0 11
-6 2 16 -9 -3 -2 0 5
-11 -23 11 -19 -8 1 3 -11
-7 -8 12 -19 -8 -2 4 -6
-3 -3 7 -11 -9 -1 6 -1
-7 -21 4 -20 -13 3 6 -13
-2 -8 4 -18 -11 1 7 -6
9 25 7 -12 -5 -5 1 7
1 9 8 -17 -5 -3 0 3
-3 2 11 -20 -7 -2 1 -2
6 16 19 -11 -4 -4 0 9
-3 1 17 -10 -5 -3 -2 2
-15 -20 10 -23 -12 0 0 -14
-7 -11 13 -24 -6 2 4 -2
-4 -4 6 -22 -5 1 3 -3
-11 -20 1 -26 -8 6 6 -14
-4 -4 1 -26 -10 3 6 -9
5 18 5 -17 1 -2 3 8
4 15 7 -20 -6 -1 0 0
1 3 12 -17 -5 2 3 -2
6 20 14 -11 0 -1 3 10
1 4 16 -14 0 2 2 3
-12 -24 14 -17 -4 6 5 -11
-6 -12 9 -19 -2 3 7 -5
-3 -2 7 -19 -2 0 4 -3
-13 -21 8 -27 -2 4 6 -14
-3 -10 8 -22 2 3 9 -5
8 17 10 -12 5 -3 5 10
1 5 9 -17 2 -2 3 5
0 2 10 -15 -2 -1 4 2
8 25 11 -12 7 -5 1 10
3 8 12 -13 6 -2 1 3
-10 -24 9 -14 -5 2 5 -10
-5 -8 9 -20 -4 0 5 -6
-1 -1 12 -14 0 0 5 -2
-11 -22 8 -20 -4 4 6 -14
-4 -10 7 -25 -4 3 9 -7
7 17 11 -17 2 -3 5 7
1 7 13 -24 -1 -3 2 0
2 1 13 -22 0 0 3 -5
11 14 14 -9 8 0 4 10
-4 0 13 -8 8 4 5 4
-16 -21 9 -19 4 9 9 -10
-12 -11 8 -17 3 7 9 -5
-9 -7 9 -13 6 9 11 1
-16 -22 3 -23 1 10 11 -13
-10 -13 5 -21 1 8 13 -6
5 11 13 -16 8 2 8 9
0 3 15 -20 5 1 5 0
-1 -2 14 -22 2 3 6 -4
8 15 16 -14 11 2 6 10
-1 2 14 -16 11 4 5 4
-11 -23 9 -23 3 8 9 -11
-3 -12 14 -20 4 7 9 -3
-4 -3 11 -22 3 4 7 -2
-13 -21 5 -27 -1 7 7 -15
-5 -10 6 -26 2 4 8 -8
4 9 15 -17 6 2 7 6
0 2 14 -18 4 5 6 0
-2 -2 11 -22 5 6 8 -3
6 20 16 -13 12 5 8 10
-3 1 16 -8 10 10 8 4
-12 -25 10 -14 4 13 11 -10
-4 -14 13 -22 5 10 11 -3
-2 -3 15 -24 5 6 8 -2
-12 -19 8 -30 3 10 9 -15
-2 -10 8 -32 8 7 12 -6
4 12 12 -25 9 3 9 6
-4 4 12 -16 12 6 8 1
-7 -2 13 -18 13 9 11 -1
5 15 17 -18 15 4 9 10
0 7 18 -16 13 8 7 1
-8 -16 16 -15 10 13 11 -12
-4 -1 19 -14 15 13 15 -2
-2 9 21 -14 17 12 15 2
-9 -11 18 -23 12 15 16 -13
0 5 21 -22 14 13 18 -3
9 29 27 -14 18 9 15 10
3 18 27 -13 16 10 14 3
1 13 24 -16 14 11 14 0
6 30 29 -10 22 10 15 14
-1 12 29 -9 25 15 15 6
-6 -8 26 -15 20 22 21 -6
-3 3 26 -15 22 18 22 1
-1 10 28 -11 22 17 21 3
-8 -3 23 -18 15 18 21 -10
0 13 21 -21 19 16 23 -1
10 39 22 -9 24 12 19 13
4 27 17 -15 22 12 18 7
3 18 15 -16 20 14 21 6
13 41 19 -9 26 14 22 20
6 31 17 -17 23 18 22 12
-4 11 13 -25 21 24 27 1
2 22 12 -24 27 25 30 9
4 29 10 -24 32 27 28 13
-3 14 3 -28 26 29 28 0
4 25 3 -28 24 23 26 7
12 47 5 -23 22 13 19 16
10 37 2 -25 15 12 14 10
9 29 0 -26 15 12 15 5
18 45 7 -18 18 10 16 17
12 28 7 -19 18 15 16 11
4 6 0 -31 14 20 20 -3
10 14 5 -28 17 19 22 5
12 17 0 -26 15 18 23 9
6 -2 -6 -32 9 22 25 -4
17 12 -2 -31 12 22 28 7
25 37 -3 -26 17 17 24 19
22 27 -5 -28 15 15 21 11
19 16 -2 -24 11 16 21 8
22 27 7 -19 17 13 23 21
10 10 6 -23 14 15 20 10
-2 -20 2 -28 5 15 19 -7
3 -16 12 -27 7 12 17 -3
3 -7 9 -24 8 9 16 -2
-8 -20 2 -38 2 9 13 -18
0 -10 8 -32 8 9 17 -7
7 8 10 -23 13 7 15 7
1 -4 9 -27 13 8 14 0
1 -8 9 -30 10 6 13 -5
6 7 12 -14 13 2 11 8
-2 -6 10 -26 7 3 8 -4
-10 -28 7 -36 0 4 10 -17
-8 -18 8 -34 4 2 11 -9
-3 -12 9 -31 8 3 9 -7
-13 -32 6 -38 0 4 10 -21
-6 -16 12 -36 1 0 9 -13
5 5 13 -26 4 -5 6 -2
1 -7 10 -29 2 -3 4 -9
-1 -11 11 -26 2 -2 6 -12
6 2 17 -23 9 -3 7 2
-3 -12 15 -26 10 0 5 -8
-9 -31 15 -28 5 5 9 -20
-2 -21 16 -22 7 6 12 -12
-4 -15 17 -20 9 6 11 -12
-13 -35 15 -24 11 9 12 -26
-8 -21 22 -21 11 5 12 -16
-2 -4 31 -12 15 2 10 -4
-9 -15 34 -6 13 5 8 -12
-11 -22 37 -5 11 3 6 -18
-3 -9 50 3 21 1 5 -6
-14 -21 56 8 21 8 7 -14
-23 -40 60 5 24 17 13 -24
-14 -26 67 20 42 23 19 -14
-10 -19 71 34 53 31 22 -8
-9 -28 60 38 59 48 34 -13
12 -2 47 48 85 65 51 10
30 27 32 68 117 87 68 36
43 30 6 74 139 114 90 47
59 46 -18 80 163 143 117 64
85 83 -34 110 209 182 152 107
101 97 -53 142 261 237 192 129
118 109 -72 179 318 301 241 152
151 151 -101 207 368 347 283 191
173 181 -120 228 412 385 316 220
177 196 -152 223 430 412 340 228
199 247 -174 221 448 430 362 261
205 294 -184 204 456 437 377 291
185 314 -213 116 404 409 367 287
162 315 -247 -12 300 337 326 267
134 295 -268 -134 169 214 240 226
85 209 -268 -227 14 75 129 133
47 135 -272 -306 -119 -35 44 54
27 124 -283 -361 -199 -109 -7 27
9 111 -284 -376 -238 -143 -38 6
-8 77 -282 -361 -235 -139 -46 -17
-7 92 -266 -331 -205 -128 -41 -8
-6 104 -238 -292 -185 -126 -49 -3
-17 83 -209 -262 -172 -120 -55 -19
-23 72 -182 -231 -146 -109 -57 -24
-18 84 -140 -191 -122 -99 -52 -13
-28 63 -104 -156 -105 -83 -49 -24
-36 38 -77 -136 -90 -64 -38 -35
-27 40 -57 -114 -71 -54 -30 -25
-24 35 -41 -93 -60 -45 -25 -23
-30 9 -36 -83 -58 -38 -24 -37
-19 15 -29 -75 -47 -34 -18 -23
-10 27 -14 -57 -36 -35 -20 -12
-11 5 -6 -45 -32 -31 -20 -20
-13 -9 1 -40 -26 -26 -18 -23
-7 2 15 -26 -12 -24 -16 -9
-19 -23 17 -25 -13 -21 -18 -21
-24 -44 20 -29 -21 -16 -14 -34
-20 -33 23 -25 -19 -17 -13 -25
-19 -28 18 -23 -20 -19 -14 -26
-26 -49 13 -25 -25 -16 -15 -42
-17 -34 20 -20 -15 -17 -11 -29
-10 -12 30 -7 -7 -18 -14 -17
-15 -18 32 -6 -9 -16 -15 -22
-19 -27 31 -8 -11 -14 -14 -24
-11 -3 36 -4 -8 -18 -13 -11
-17 -26 34 -4 -11 -14 -14 -20
-22 -49 24 -8 -15 -10 -11 -32
-13 -34 27 -8 -14 -13 -11 -25
-13 -32 29 -4 -13 -14 -13 -23
-26 -55 25 -10 -17 -11 -12 -38
-14 -35 30 0 -16 -14 -12 -28
-7 -18 33 5 -8 -16 -14 -17
-14 -28 38 7 -1 -10 -10 -22
-14 -33 34 9 -6 -9 -10 -25
-8 -14 36 15 -2 -8 -9 -10
-17 -27 31 5 -5 -8 -12 -22
-22 -49 29 -2 -11 -8 -11 -35
-17 -39 31 0 -11 -12 -11 -29
-16 -38 33 5 -9 -13 -13 -28
-27 -57 28 -2 -19 -12 -14 -43
-17 -39 36 2 -13 -12 -10 -30
-9 -21 39 12 0 -12 -12 -19
-17 -34 36 15 -4 -9 -13 -27
-16 -38 35 11 -7 -8 -11 -29
-7 -22 45 23 -1 -8 -8 -13
-14 -39 40 17 -7 -6 -11 -26
-20 -50 36 8 -14 -7 -9 -39
-16 -40 38 12 -7 -8 -7 -31
-15 -36 37 14 -4 -11 -8 -30
-26 -55 33 3 -17 -12 -13 -48
-17 -39 41 14 -10 -15 -11 -36
-10 -18 41 22 -5 -18 -15 -25
-16 -31 38 24 -8 -16 -15 -31
-16 -38 36 27 -7 -15 -12 -32
-9 -21 43 32 1 -15 -7 -13
-20 -37 43 29 -5 -15 -10 -25
-24 -57 43 21 -9 -11 -6 -35
-19 -45 43 19 -8 -15 -4 -27
-18 -39 40 16 -7 -17 -6 -26
-24 -56 35 15 -11 -15 -7 -41
-10 -35 38 20 -5 -20 -7 -29
-6 -18 47 29 1 -23 -11 -19
-14 -34 44 30 0 -19 -12 -24
-17 -39 45 28 -1 -19 -12 -28
-8 -21 49 40 8 -18 -8 -11
-16 -38 40 32 -1 -16 -10 -23
-21 -57 37 23 -7 -15 -6 -34
-16 -38 38 26 -4 -19 -6 -27
-17 -33 38 27 0 -21 -8 -26
-24 -52 32 21 -8 -20 -10 -42
-9 -31 37 27 -10 -23 -9 -30
-8 -18 43 40 0 -26 -14 -20
-13 -29 46 33 -5 -26 -15 -30
-15 -32 46 34 -9 -26 -16 -33
-4 -18 53 41 -1 -25 -14 -18
-13 -38 50 38 -5 -22 -14 -31
-21 -56 46 31 -7 -18 -10 -42
-18 -47 50 35 -4 -20 -10 -34
-18 -42 48 42 -9 -21 -9 -32
-27 -58 41 31 -18 -22 -13 -49
-17 -35 49 39 -13 -25 -11 -36
-11 -21 52 43 -5 -25 -14 -26
-18 -34 52 45 -8 -24 -17 -36
-18 -37 52 44 -9 -22 -18 -38
-8 -18 55 50 -3 -23 -15 -23
-14 -35 55 47 -7 -25 -19 -38
-21 -55 51 43 -14 -22 -16 -48
-19 -44 53 43 -12 -26 -17 -42
-20 -39 55 44 -11 -26 -17 -39
-28 -56 49 34 -15 -24 -18 -55
-16 -34 50 44 -10 -26 -15 -42
-12 -17 58 56 -4 -27 -16 -30
-17 -28 55 55 -8 -25 -20 -38
-15 -37 57 58 -7 -23 -18 -38
-8 -19 64 64 -2 -28 -17 -23
-20 -42 63 59 -7 -26 -18 -35
-25 -56 63 51 -13 -26 -19 -48
-23 -47 63 53 -11 -28 -19 -42
-22 -42 61 55 -11 -33 -23 -42
-29 -58 57 48 -14 -32 -24 -57
-21 -37 59 60 -10 -33 -22 -42
-11 -18 62 67 -7 -36 -26 -34
-15 -33 63 67 -12 -36 -28 -40
-21 -40 63 65 -12 -35 -28 -41
-13 -20 70 73 -4 -36 -28 -29
-24 -41 66 66 -13 -34 -29 -40
-27 -57 56 57 -23 -37 -31 -53
-23 -45 58 58 -25 -43 -30 -47
-26 -40 58 53 -29 -51 -36 -48
-36 -62 59 47 -34 -50 -40 -62
-24 -41 61 52 -30 -54 -40 -50
-18 -28 61 59 -25 -55 -41 -39
-20 -37 58 65 -28 -51 -38 -44
-24 -40 55 57 -26 -49 -36 -47
-17 -22 60 66 -22 -47 -36 -34
-25 -40 55 63 -28 -46 -40 -49
-30 -61 49 53 -36 -44 -38 -59
-23 -50 48 54 -36 -49 -40 -54
-26 -43 47 53 -40 -53 -44 -55
-36 -61 39 46 -50 -51 -46 -69
-24 -40 42 45 -44 -55 -45 -55
-20 -25 44 52 -40 -57 -48 -47
-24 -35 39 50 -39 -55 -48 -55
-21 -39 39 41 -39 -54 -49 -57
-14 -24 46 48 -36 -54 -46 -41
-21 -42 42 47 -40 -50 -47 -54
-28 -53 32 39 -43 -49 -43 -61
-24 -39 33 37 -41 -50 -42 -53
-18 -30 28 37 -43 -50 -42 -51
-24 -49 19 29 -48 -48 -43 -64
-16 -29 22 37 -41 -50 -40 -50
-12 -8 25 41 -38 -52 -44 -41
-19 -22 22 37 -38 -48 -43 -46
-19 -24 20 34 -35 -46 -40 -47
-10 1 21 39 -32 -48 -39 -34
-18 -23 15 37 -33 -40 -36 -44
-21 -36 11 34 -31 -32 -26 -45
-13 -22 7 38 -25 -32 -24 -37
-12 -13 3 39 -22 -32 -23 -36
-19 -32 -3 26 -28 -29 -21 -48
-8 -8 -3 30 -20 -31 -19 -32
-2 9 -2 35 -10 -31 -21 -24
-6 -4 -6 31 -13 -25 -18 -28
-6 -7 -9 32 -14 -22 -15 -28
3 13 -4 33 -9 -23 -13 -12
-9 -12 -8 30 -8 -16 -9 -21
-12 -27 -15 25 -7 -11 -5 -29
-4 -13 -11 28 -5 -11 -3 -22
-5 -8 -13 28 -7 -11 -2 -22
-12 -24 -21 21 -11 -7 1 -33
3 3 -21 30 -5 -10 1 -20
5 14 -15 42 5 -6 2 -8
-2 5 -17 32 6 -1 4 -15
-3 1 -20 30 6 -3 3 -17
8 14 -13 42 14 -4 3 -2
-5 -6 -16 36 5 -2 3 -14
-10 -21 -18 25 -3 1 5 -22
-3 -5 -22 28 -1 -3 6 -17
-3 -6 -20 26 5 -4 7 -15
-11 -25 -23 22 -1 -2 6 -27
0 -1 -19 28 5 -1 10 -10
3 13 -15 33 8 -4 6 -2
-3 2 -15 35 4 -2 5 -9
-3 0 -16 33 7 -3 5 -10
5 16 -13 40 9 -8 4 1
-4 -1 -17 39 3 -7 1 -14
-11 -15 -21 29 -1 -4 5 -23
-6 -8 -20 24 0 -4 6 -15
-3 -1 -20 23 -1 -6 7 -13
-12 -15 -26 15 -7 -5 6 -27
0 8 -17 27 3 -6 7 -11
5 18 -14 32 9 -8 4 -2
-1 9 -16 29 1 -8 2 -11
-2 8 -16 30 4 -5 5 -10
4 23 -10 43 10 -4 10 5
-6 2 -16 31 2 -3 6 -9
-7 -13 -21 29 -1 -2 7 -18
-3 -4 -19 27 4 -4 8 -11
-4 4 -21 32 2 -6 7 -11
-14 -13 -24 19 -4 -6 5 -24
-3 2 -17 22 2 -10 6 -10
3 18 -13 29 5 -12 2 -3
-4 10 -14 29 -2 -11 1 -9
-6 5 -12 28 1 -9 3 -8
4 21 -10 34 7 -8 6 6
-7 -1 -12 32 -1 -7 4 -12
-10 -16 -15 36 -3 -5 4 -19
-4 -5 -13 37 3 -7 4 -13
-5 -1 -10 33 3 -8 2 -13
-14 -21 -3 26 -4 -4 5 -26
-3 5 -6 29 1 -8 4 -14
-1 20 -9 30 6 -13 0 -8
-7 4 -12 28 9 -9 4 -13
-6 0 -9 28 8 -7 5 -13
5 20 -3 37 13 -8 5 0
-7 -3 -8 35 6 -5 4 -13
-10 -18 -12 31 0 -3 7 -19
-2 -7 -11 36 1 -6 11 -11
-2 -1 -10 32 -1 -8 7 -12
-12 -15 -13 27 -7 -6 6 -25
0 12 -9 31 -2 -10 6 -11
5 18 -6 40 8 -10 5 -2
1 5 -8 40 7 -11 2 -9
-1 1 -6 40 8 -12 4 -10
5 18 2 48 14 -11 6 4
-6 -3 -3 40 6 -7 5 -10
-10 -13 -8 33 3 -7 7 -19
-7 -5 -5 41 6 -7 10 -12
-7 -3 -4 45 5 -7 5 -11
-14 -19 -9 32 -2 -6 4 -26
0 4 -6 37 2 -10 4 -11
6 15 -3 45 7 -13 0 -5
0 5 -4 39 1 -13 -1 -12
2 3 -4 43 3 -12 -1 -12
10 18 -3 52 8 -16 -3 -1
-5 -6 -8 44 2 -13 -4 -17
-9 -11 -11 39 -3 -11 -2 -25
-5 -1 -9 40 1 -12 1 -17
-4 2 -7 42 1 -11 1 -15
-11 -20 -13 36 3 -7 2 -26
3 3 -10 41 10 -10 3 -11
6 16 -6 47 8 -9 2 -3
-1 4 -6 46 8 -8 1 -11
-3 6 -6 49 4 -9 2 -11
3 16 4 62 14 -8 5 8
-11 -9 -4 51 5 -7 2 -10
-13 -18 -11 47 0 -9 4 -18
-8 -2 -12 46 2 -13 2 -13
-9 2 -10 47 2 -12 1 -14
-12 -12 -17 41 0 -12 -1 -28
0 8 -13 43 4 -15 -1 -13
8 15 -7 46 5 -15 -2 -6
2 6 -7 50 8 -11 -1 -11
1 3 -11 48 5 -12 0 -10
9 17 -1 56 11 -12 6 6
-4 -7 -13 51 9 -9 4 -11
-6 -15 -15 51 6 -9 6 -17
0 -1 -13 55 5 -10 7 -10
-3 -4 -14 52 3 -10 6 -11
-11 -20 -20 38 -4 -9 3 -24
1 5 -13 43 0 -13 3 -9
5 15 -6 49 4 -14 1 -3
2 7 -11 49 -1 -13 -2 -10
3 9 -16 56 2 -13 -1 -10
8 22 -11 62 12 -10 4 7
-4 -1 -17 52 3 -6 3 -11
-11 -15 -18 49 3 -5 6 -16
-5 -4 -13 51 2 -6 9 -9
-3 -3 -15 50 0 -6 5 -9
-10 -20 -23 42 -7 -8 2 -24
2 3 -17 51 -3 -13 1 -9
3 15 -14 54 3 -15 -5 -5
0 3 -15 53 7 -11 -4 -11
2 5 -18 52 3 -10 -3 -11
7 22 -11 61 7 -12 -3 2
-6 -5 -16 56 -3 -10 -4 -13
-9 -15 -19 46 -7 -11 -2 -19
-2 -1 -23 46 -12 -14 -3 -12
-3 1 -20 47 -5 -10 0 -9
-13 -21 -26 43 -6 -6 3 -20
1 2 -25 54 -1 -10 3 -7
4 12 -20 61 9 -9 3 1
-1 3 -22 58 3 -7 1 -6
1 -2 -18 58 6 -5 3 -5
6 13 -14 67 7 -7 3 9
-8 -13 -15 62 1 -6 2 -6
-9 -22 -18 54 -4 -7 4 -12
-1 -9 -15 54 -5 -10 3 -7
-2 -7 -20 54 -9 -11 0 -8
-7 -21 -27 46 -12 -10 1 -21
1 3 -22 52 -2 -14 1 -6
5 15 -20 56 4 -15 -4 -1
0 7 -21 51 -6 -14 -3 -8
0 8 -20 50 -8 -13 -2 -8
8 23 -11 65 -1 -12 1 6
-6 -5 -23 56 -3 -9 3 -10
-9 -14 -23 51 -10 -6 2 -15
-2 -4 -22 53 -7 -7 3 -6
-1 -6 -24 56 -7 -9 -1 -7
-8 -21 -28 50 -15 -8 0 -20
5 7 -26 50 -6 -14 -3 -7
6 12 -23 57 -2 -13 -6 -2
1 3 -22 56 -6 -10 -5 -8
0 3 -24 54 -5 -10 -4 -7
7 15 -19 64 -3 -12 -3 6
-4 -7 -23 59 -12 -11 -7 -11
-8 -17 -30 51 -12 -10 -6 -15
-1 -5 -26 55 -8 -13 -6 -9
-3 1 -28 53 -12 -13 -6 -9
-8 -16 -32 45 -14 -7 -5 -22
6 4 -31 52 -7 -10 0 -4
7 13 -31 63 -7 -12 -3 -1
2 2 -32 64 -6 -7 -1 -5
0 -2 -31 63 -5 -6 1 -4
6 14 -26 65 0 -11 -2 7
-5 -10 -32 56 -1 -7 -2 -10
-6 -19 -32 53 -8 -6 1 -13
1 -8 -26 60 -11 -10 -1 -7
-2 -4 -26 58 -12 -11 -3 -8
-10 -16 -35 50 -15 -8 -2 -19
4 4 -27 55 -6 -9 2 1
7 13 -23 59 -2 -11 -1 6
-1 3 -28 58 -4 -9 -3 -1
1 4 -28 60 -5 -11 -4 -2
9 18 -27 64 -3 -16 -9 6
-4 -5 -31 58 -17 -15 -10 -13
-7 -9 -33 53 -16 -11 -5 -15
0 -2 -33 52 -14 -13 -4 -9
-1 -2 -35 48 -16 -14 0 -8
-8 -19 -40 44 -18 -11 -2 -18
4 7 -36 57 -12 -14 -4 -2
9 14 -30 66 -8 -16 -6 2
3 -1 -26 64 -6 -12 -4 -1
2 -4 -25 65 -9 -8 -1 0
7 14 -25 67 -8 -12 -3 8
-6 -10 -28 55 -16 -11 -5 -8
-7 -21 -30 52 -18 -8 -2 -12
-1 -6 -30 54 -18 -10 -2 -6
-7 -6 -34 58 -18 -11 -3 -6
-12 -21 -38 44 -24 -12 -5 -20
3 5 -32 52 -15 -17 -7 -5
5 13 -30 57 -10 -15 -9 0
0 5 -31 52 -11 -12 -7 -5
0 -1 -26 53 -13 -9 -4 -2
9 13 -22 60 -9 -12 -6 8
-6 -16 -23 53 -15 -11 -9 -8
-11 -24 -27 47 -18 -11 -5 -11
-1 -11 -31 49 -14 -11 -4 -4
-3 -12 -33 51 -14 -10 -4 -3
-12 -27 -34 40 -19 -5 -1 -13
2 3 -31 43 -11 -10 -2 3
4 7 -27 48 -13 -11 -7 5
1 -1 -29 45 -15 -11 -7 -1
4 0 -30 39 -13 -11 -6 0
11 14 -27 43 -12 -14 -8 10
-1 -10 -31 39 -18 -10 -8 -6
-3 -13 -34 38 -17 -9 -5 -9
1 -3 -33 34 -15 -9 -5 -2
1 -6 -37 34 -18 -8 -5 -1
-7 -21 -41 24 -20 -7 -4 -13
7 2 -32 35 -12 -9 -2 5
6 7 -26 39 -6 -8 -2 10
0 -1 -31 34 -11 -5 -3 3
2 5 -28 30 -14 -5 -3 4
8 20 -20 36 -10 -7 -5 14
-4 -4 -27 25 -17 -5 -6 -3
-5 -10 -24 30 -17 -2 -3 -4
-1 1 -18 35 -12 -4 -3 5
1 4 -15 39 -7 -2 -3 4
-7 -9 -24 31 -8 0 -2 -6
8 22 -22 33 -11 -2 -1 13
11 35 -22 35 -8 -4 -5 13
4 19 -26 35 -6 -2 -7 5
5 14 -25 28 -6 0 -5 5
12 28 -16 37 -2 2 -3 18
-4 2 -18 29 -8 9 -1 4
-3 2 -23 23 -11 9 1 1
3 13 -22 27 -10 7 1 8
1 12 -21 26 -11 5 -1 7
-4 0 -23 19 -15 3 -2 -5
12 24 -22 27 -9 2 0 13
15 32 -23 25 -5 4 1 18
11 22 -32 19 -12 2 -2 11
10 17 -30 17 -11 1 0 13
15 36 -27 34 -6 2 1 27
3 16 -34 26 -9 8 4 12
2 15 -31 20 -7 11 7 10
8 27 -29 20 -2 13 9 20
7 27 -37 22 -6 12 8 21
3 13 -45 8 -15 10 4 6
19 40 -39 13 -12 4 5 22
20 41 -40 12 -3 2 7 23
14 30 -43 8 -8 7 4 18
13 30 -45 10 -6 8 2 20
19 42 -40 22 -4 5 0 29
9 16 -50 10 -9 6 -1 11
10 8 -50 3 -8 9 5 11
15 21 -49 8 -3 11 8 22
15 20 -49 6 -9 8 5 21
12 4 -55 -6 -16 5 3 7
26 27 -48 8 -13 2 3 25
26 29 -47 14 -9 -1 -2 27
21 17 -43 12 -13 -2 -6 16
19 17 -41 4 -13 -1 -5 15
22 24 -41 10 -11 -1 -6 25
8 -7 -42 10 -14 4 -6 10
5 -12 -44 6 -17 2 -6 3
5 -4 -44 -1 -18 -4 -10 8
5 -2 -46 -2 -17 -5 -9 8
-2 -16 -51 -7 -22 -4 -8 -1
11 8 -44 7 -19 -8 -8 15
11 11 -40 13 -17 -9 -12 17
5 -2 -40 8 -18 -9 -14 9
4 -3 -42 6 -15 -8 -14 9
8 5 -37 8 -12 -9 -16 19
-7 -27 -46 3 -16 -4 -16 0
-8 -33 -46 0 -14 -1 -10 -1
-3 -23 -43 -1 -14 -6 -13 4
-4 -22 -41 -5 -24 -9 -17 -1
-6 -31 -50 -8 -33 -10 -17 -13
7 -5 -45 -5 -25 -15 -18 7
6 4 -43 -5 -19 -18 -23 8
-1 -9 -37 -8 -23 -15 -22 3
2 -11 -37 -5 -16 -12 -17 7
10 6 -36 -1 -12 -12 -16 18
-7 -20 -39 -11 -17 -7 -15 1
-7 -25 -40 -14 -20 -9 -15 -3
2 -14 -38 -14 -18 -13 -16 2
-3 -15 -36 -15 -13 -11 -18 -2
-7 -26 -38 -22 -14 -8 -18 -15
4 -6 -26 -11 -4 -9 -16 5
3 0 -20 -7 -1 -8 -16 9
-2 -10 -14 -8 -2 -8 -18 2
-3 -14 -5 -5 3 -8 -16 2
1 -4 6 6 16 -4 -13 14
-12 -30 9 8 18 4 -10 -1
-10 -30 12 12 26 9 -6 -2
-4 -11 14 23 42 16 0 8
-1 -13 11 27 59 31 12 16
5 -13 -4 23 66 48 25 14
30 24 -12 43 97 66 44 47
42 36 -32 55 128 93 64 66
52 43 -59 52 151 122 87 76
71 66 -78 65 189 161 124 105
97 105 -89 103 244 209 163 144
114 111 -113 135 298 273 209 164
141 134 -140 159 348 327 256 196
165 172 -164 174 389 362 287 228
177 195 -186 185 420 391 314 249
181 216 -217 177 434 416 340 258
198 272 -227 162 459 431 360 298
191 302 -249 100 428 415 357 310
163 305 -278 -22 331 354 325 290
136 288 -299 -151 197 242 250 247
101 246 -304 -252 45 95 142 179
54 164 -308 -327 -98 -31 40 85
28 131 -313 -388 -206 -123 -27 36
8 113 -308 -410 -256 -172 -68 12
-4 89 -304 -399 -258 -181 -81 -5
-15 71 -299 -377 -240 -164 -77 -18
-10 96 -278 -349 -209 -161 -79 -7
-18 86 -256 -322 -186 -158 -86 -14
-24 61 -236 -294 -179 -145 -85 -24
-25 57 -215 -264 -157 -133 -78 -24
-19 71 -184 -232 -135 -124 -76 -14
-36 38 -158 -211 -125 -108 -71 -32
-32 32 -128 -181 -106 -91 -58 -28
-24 42 -104 -160 -76 -80 -49 -15
-24 30 -89 -144 -71 -72 -44 -13
-25 11 -81 -137 -65 -65 -42 -24
-10 33 -65 -120 -54 -69 -40 -5
-10 23 -50 -107 -46 -65 -41 -4
-12 0 -38 -101 -38 -56 -37 -11
-11 -8 -26 -88 -28 -47 -30 -8
-7 1 -17 -69 -16 -41 -25 6
-20 -29 -22 -77 -23 -37 -28 -15
-21 -35 -24 -78 -22 -39 -27 -20
-15 -27 -18 -71 -15 -36 -22 -10
-17 -25 -13 -75 -17 -41 -26 -14
-23 -31 -16 -82 -24 -45 -33 -29
-2 -5 -7 -71 -15 -50 -32 -10
-4 -8 -7 -62 -13 -48 -34 -9
-8 -24 -6 -60 -8 -44 -32 -14
-9 -24 -3 -59 -5 -43 -29 -12
-7 -14 5 -53 -1 -43 -27 1
-19 -42 0 -60 -10 -36 -26 -17
-16 -46 -1 -62 -6 -34 -23 -18
-11 -31 -1 -64 -7 -39 -25 -16
-12 -28 0 -63 -7 -42 -28 -18
-18 -45 0 -63 -10 -39 -25 -27
-3 -14 13 -50 2 -41 -24 -4
-6 -17 18 -46 14 -38 -20 2
-10 -29 16 -51 17 -33 -20 -4
-3 -18 16 -50 9 -30 -19 -2
0 -5 22 -37 14 -31 -21 10
-16 -44 12 -43 9 -25 -17 -7
-14 -41 7 -61 1 -33 -20 -12
-11 -29 10 -60 -6 -41 -26 -10
-15 -32 11 -56 -5 -44 -29 -15
-22 -43 9 -62 -6 -40 -27 -27
-7 -10 15 -53 5 -44 -29 -11
-7 -10 24 -48 8 -43 -32 -11
-9 -29 23 -45 8 -41 -31 -19
-5 -29 23 -45 12 -36 -27 -16
1 -16 26 -39 19 -33 -20 -4
-15 -47 19 -50 14 -30 -21 -25
-14 -48 20 -53 9 -29 -20 -27
-8 -34 24 -54 12 -30 -20 -21
-11 -37 23 -51 11 -30 -21 -25
-14 -43 14 -55 10 -27 -16 -35
1 -11 19 -44 15 -34 -21 -17
-2 -9 23 -46 14 -40 -30 -15
-8 -21 23 -46 11 -41 -29 -21
-8 -22 24 -45 17 -39 -27 -17
-1 -11 33 -36 23 -39 -21 -5
-14 -40 28 -42 11 -34 -24 -25
-16 -47 28 -44 16 -29 -19 -24
-12 -37 32 -39 19 -31 -19 -17
-15 -42 31 -44 17 -37 -24 -24
-19 -50 28 -51 8 -37 -25 -36
-6 -21 36 -40 15 -39 -23 -15
-6 -22 39 -34 18 -37 -25 -14
-11 -28 32 -40 11 -39 -27 -23
-9 -25 33 -39 17 -38 -24 -18
-2 -10 40 -33 18 -39 -24 -8
-14 -36 37 -34 11 -36 -24 -27
-15 -45 33 -37 15 -37 -20 -28
-11 -34 36 -36 15 -40 -22 -23
-10 -35 36 -34 8 -41 -25 -27
-16 -49 36 -40 10 -39 -24 -38
-3 -19 45 -33 18 -40 -23 -18
-4 -13 46 -31 15 -44 -30 -21
-8 -27 42 -33 18 -43 -31 -29
-7 -25 42 -28 18 -42 -26 -26
-2 -18 49 -19 23 -43 -27 -15
-13 -43 44 -27 13 -39 -28 -33
-15 -46 48 -30 6 -40 -28 -34
-13 -33 50 -28 10 -42 -28 -27
-15 -37 50 -26 11 -41 -27 -28
-19 -52 50 -32 10 -38 -25 -37
-6 -24 61 -19 20 -37 -21 -16
-8 -21 67 -19 30 -35 -23 -17
-10 -31 60 -22 23 -34 -24 -26
-8 -29 57 -12 19 -32 -23 -24
-4 -20 64 3 26 -33 -22 -13
-18 -51 60 -15 14 -34 -24 -38
-15 -52 58 -19 10 -37 -26 -39
-11 -40 57 -17 13 -39 -26 -32
-13 -42 57 -13 14 -38 -28 -37
-17 -53 59 -20 12 -34 -26 -46
-4 -26 68 -8 21 -38 -26 -26
-5 -27 72 2 21 -36 -26 -23
-10 -35 68 -1 18 -39 -29 -31
-9 -35 68 -5 24 -42 -31 -32
-4 -25 72 3 22 -42 -32 -22
-21 -53 69 -5 13 -39 -32 -42
-19 -55 73 -11 11 -39 -33 -45
-16 -42 74 -1 13 -39 -31 -39
-19 -46 74 -6 7 -41 -36 -42
-19 -54 69 -14 4 -41 -34 -51
-4 -21 76 -5 14 -46 -37 -30
-8 -23 76 4 16 -46 -42 -29
-12 -37 77 5 15 -44 -41 -33
-8 -34 80 2 11 -47 -39 -30
-6 -23 82 7 12 -53 -43 -21
-23 -53 75 5 3 -50 -44 -42
-23 -50 72 -5 -2 -52 -43 -48
-18 -40 76 -2 0 -52 -41 -40
-21 -50 78 -2 2 -52 -44 -43
-27 -59 73 -12 -3 -52 -45 -52
-9 -27 81 -1 1 -58 -47 -32
-9 -28 78 -3 -1 -64 -55 -36
-14 -41 78 -10 -7 -64 -56 -41
-10 -37 79 -8 -3 -65 -55 -39
-7 -29 82 -2 -2 -67 -56 -30
-21 -60 75 -12 -6 -63 -56 -49
-21 -61 71 -16 -6 -65 -53 -50
-16 -50 70 -15 -16 -67 -54 -45
-17 -51 66 -15 -16 -66 -55 -49
-20 -62 63 -25 -21 -65 -54 -59
-8 -34 69 -14 -13 -68 -55 -39
-11 -28 68 -13 -9 -72 -58 -39
-16 -39 64 -20 -11 -75 -60 -47
-10 -33 61 -20 -12 -72 -56 -42
-6 -14 63 -19 -10 -75 -60 -33
-22 -50 60 -28 -19 -70 -56 -51
-21 -50 60 -31 -20 -70 -49 -52
-19 -35 53 -30 -18 -72 -55 -47
-23 -43 51 -29 -14 -70 -54 -47
-24 -49 43 -35 -22 -66 -49 -54
-10 -19 48 -26 -13 -67 -45 -32
-6 -16 46 -25 1 -64 -48 -32
-11 -29 50 -17 0 -58 -42 -33
-7 -23 45 -23 2 -55 -40 -28
2 -11 47 -18 4 -57 -39 -18
-13 -38 42 -31 -7 -54 -40 -39
-10 -37 34 -37 -4 -51 -35 -35
-4 -23 35 -38 9 -48 -31 -24
-8 -22 34 -42 6 -50 -33 -31
-11 -34 32 -40 0 -46 -28 -36
5 -7 33 -31 13 -45 -25 -13
1 -8 36 -30 17 -40 -25 -12
-3 -15 34 -33 15 -34 -21 -15
0 -4 31 -35 18 -31 -18 -8
6 5 36 -31 24 -30 -15 5
-8 -24 29 -39 13 -28 -17 -15
-6 -26 25 -42 20 -29 -13 -14
2 -13 26 -44 25 -27 -10 -6
0 -17 22 -42 19 -24 -10 -10
-6 -27 23 -50 20 -20 -8 -20
9 6 30 -40 27 -24 -8 0
3 3 31 -40 33 -21 -9 2
-2 -8 35 -40 35 -15 -5 -1
2 -6 28 -39 35 -11 -1 6
4 0 29 -35 37 -13 -1 14
-10 -30 23 -43 32 -8 0 -5
-4 -26 22 -42 36 -8 6 -6
5 -14 23 -43 36 -9 4 1
2 -13 19 -47 32 -10 2 -3
-4 -20 19 -55 25 -10 3 -11
9 11 26 -42 36 -15 3 12
5 8 31 -42 34 -17 -2 9
0 -2 30 -49 28 -17 -4 2
5 3 29 -47 32 -16 -2 5
4 13 29 -43 39 -14 -2 13
-10 -21 23 -52 31 -7 1 -5
-4 -22 24 -55 33 -7 2 -5
0 -11 23 -51 35 -13 0 -1
-3 -16 23 -52 30 -15 -3 -6
-7 -28 21 -57 28 -13 -1 -12
5 2 30 -47 37 -15 0 8
4 5 34 -46 37 -16 -3 7
-2 0 31 -48 33 -14 -4 0
3 -1 34 -40 33 -13 1 8
10 10 39 -37 41 -14 -3 15
-6 -25 31 -48 35 -9 -3 -6
-5 -22 32 -47 31 -10 0 -4
-1 -12 36 -51 31 -12 0 3
-4 -15 33 -53 33 -10 0 -2
-5 -20 30 -53 33 -8 2 -8
8 9 33 -41 41 -12 2 13
4 11 29 -38 41 -14 -2 11
-2 4 29 -38 43 -11 -1 6
1 8 31 -37 39 -13 -2 8
6 12 33 -34 37 -15 -2 14
-8 -19 28 -42 30 -12 -4 -5
-7 -20 31 -45 35 -9 1 -1
-1 -10 35 -39 38 -11 3 5
-6 -17 32 -44 36 -12 1 -1
-9 -26 30 -43 32 -13 1 -10
5 3 40 -26 42 -15 1 12
5 3 42 -30 41 -16 -3 10
2 -3 40 -33 41 -13 -2 4
6 3 37 -35 43 -11 -1 7
8 7 39 -29 45 -9 -1 16
-4 -23 35 -34 38 -4 1 -2
-6 -23 36 -36 39 -4 7 -1
-3 -8 36 -30 44 -8 5 4
-6 -11 33 -37 34 -14 -2 -3
-7 -21 30 -44 27 -14 -1 -12
9 8 39 -33 39 -15 0 10
5 12 42 -35 37 -13 -2 8
0 -2 40 -34 44 -8 0 2
5 4 44 -28 53 -4 3 8
7 9 45 -19 49 -7 0 14
-7 -19 38 -29 45 -4 0 -6
-4 -19 41 -28 39 -3 7 -2
-1 -11 43 -26 42 -6 7 4
-8 -15 40 -30 39 -6 5 -2
-12 -21 32 -36 34 -5 4 -9
7 5 41 -24 52 -11 1 9
6 4 42 -23 46 -7 2 10
1 -7 38 -21 41 -4 3 3
7 0 47 -16 46 -2 2 10
8 8 51 -13 52 -1 3 18
-9 -23 41 -15 42 2 3 -2
-4 -19 43 -19 38 -1 4 -1
2 -7 42 -22 38 -3 5 5
-3 -12 39 -27 33 -6 1 -1
-6 -19 37 -33 33 -7 -1 -9
5 11 45 -23 37 -14 -1 10
4 11 43 -20 39 -13 -5 8
1 -6 42 -21 47 -5 0 4
1 -5 44 -14 50 -1 3 11
4 2 45 -11 53 1 5 19
-9 -28 40 -21 42 6 4 -2
-5 -24 41 -22 39 4 5 0
2 -7 42 -21 42 2 4 6
-6 -14 39 -26 47 3 4 1
-5 -20 34 -32 42 3 6 -5
9 10 43 -22 45 -3 3 12
3 9 42 -20 44 -2 2 12
-4 0 41 -16 44 1 5 7
-3 1 44 -11 50 3 5 15
-1 7 45 -12 51 2 2 20
-14 -21 38 -19 44 7 4 2
-9 -19 36 -24 44 6 5 2
-1 -4 37 -24 49 2 3 8
-5 -14 37 -21 38 3 4 2
-7 -20 33 -25 31 1 5 -6
9 13 38 -20 43 -3 1 14
8 7 36 -22 43 -5 -3 11
6 -4 35 -26 40 -5 -4 4
7 3 38 -18 42 -3 -2 12
6 6 39 -19 44 -2 -2 18
-7 -23 33 -28 39 4 1 -1
-4 -22 34 -30 38 5 4 0
1 -11 39 -28 42 4 2 3
-2 -17 38 -25 42 7 4 -2
-4 -21 28 -32 35 7 4 -8
10 11 36 -24 42 0 0 10
7 12 37 -22 42 -1 -3 7
1 2 33 -22 35 1 -3 0
6 10 35 -20 39 2 1 7
4 12 40 -20 47 5 3 14
-10 -22 32 -31 37 10 2 -5
-5 -18 33 -32 39 7 1 -4
-1 -3 35 -31 33 -1 -6 -2
-7 -12 29 -30 32 0 -6 -8
-6 -22 27 -30 31 4 -2 -13
10 12 33 -25 39 0 -4 6
7 10 36 -23 40 2 -5 7
1 -2 33 -23 36 5 -2 3
5 5 34 -19 38 5 1 12
5 14 35 -14 42 3 -1 18
-9 -17 29 -28 30 5 -1 -4
-5 -14 31 -32 26 5 1 0
-1 -9 31 -29 26 2 0 6
-7 -16 28 -32 26 0 -3 -2
-7 -23 27 -36 16 2 -2 -8
7 11 33 -22 27 -1 -2 10
5 5 37 -18 33 6 3 12
2 -3 33 -22 24 8 1 8
5 3 34 -23 28 7 1 15
7 7 37 -19 29 5 0 19
-6 -22 32 -27 16 6 -1 0
-6 -16 31 -27 16 4 0 2
-3 -6 30 -25 17 0 -3 5
-11 -16 33 -26 18 -1 -5 -2
-13 -18 29 -30 16 3 -3 -7
4 18 32 -25 23 -1 -3 12
3 10 31 -24 27 0 -6 10
3 -1 31 -28 22 1 -8 2
7 8 36 -24 25 2 -8 7
7 11 38 -13 32 3 -6 13
-5 -17 33 -18 17 9 -1 -4
-1 -13 35 -23 15 10 2 0
4 -6 33 -22 21 7 1 6
-1 -15 28 -23 10 6 -1 -1
-4 -23 25 -21 9 7 0 -6
10 11 30 -19 16 4 -1 13
5 8 30 -17 22 7 1 12
0 -4 28 -17 18 10 0 7
4 5 34 -14 24 8 -1 13
3 4 40 -14 25 7 -3 17
-8 -25 32 -20 15 10 -3 -3
-2 -19 28 -21 16 9 -2 -2
1 -6 27 -24 19 7 -4 2
-1 -11 18 -30 7 6 -6 -7
-2 -19 13 -34 6 5 -5 -12
11 10 17 -23 23 0 -6 8
4 6 18 -19 23 3 -7 6
-1 -3 16 -18 18 5 -7 0
2 3 20 -16 18 6 -4 6
4 8 22 -8 18 8 0 13
-8 -23 14 -18 9 12 0 -8
-4 -16 13 -22 12 10 -1 -4
1 -6 14 -23 11 8 1 2
-3 -16 11 -24 4 8 -1 -6
-3 -16 6 -32 0 6 -4 -10
9 18 12 -21 7 2 -5 10
5 16 10 -19 10 1 -10 3
-2 1 13 -10 4 2 -10 -3
2 5 14 -15 12 0 -10 6
6 7 15 -15 14 2 -8 14
-8 -26 8 -26 7 8 -2 -4
-6 -26 10 -20 8 11 4 -1
2 -10 12 -18 7 7 -2 2
-4 -16 10 -24 6 10 -2 -5
-6 -20 4 -25 11 12 2 -7
10 13 9 -15 18 7 2 13
5 5 15 -14 14 7 -1 10
3 1 11 -17 13 5 -2 2
7 8 12 -8 14 6 -1 10
8 8 12 -3 16 5 -2 13
-3 -20 5 -16 5 10 0 -7
-4 -16 11 -18 9 10 3 -1
-1 -6 11 -15 11 8 2 5
-3 -13 4 -19 11 10 3 -3
-4 -17 2 -22 6 10 4 -5
10 16 12 -12 18 6 2 14
7 14 17 -3 19 9 3 13
4 9 16 -8 12 12 5 7
10 19 20 -4 21 14 7 15
7 20 22 2 33 15 4 19
-5 -7 18 -6 25 18 6 0
2 2 15 -8 13 14 5 1
3 8 17 -5 11 9 0 3
-2 -2 22 -9 13 8 2 -6
-2 -6 19 -13 7 9 4 -9
11 23 26 -3 17 9 3 13
7 24 31 -2 13 9 1 11
4 15 23 0 12 11 1 5
11 23 24 8 19 13 4 13
12 31 25 12 22 15 6 21
0 3 16 -2 13 18 8 0
4 11 10 -5 9 15 8 1
6 21 6 -9 9 12 6 5
0 10 2 -15 10 17 9 -1
5 14 -2 -19 9 20 11 -2
20 49 4 -9 17 15 9 17
16 47 1 -2 21 18 13 19
13 37 -1 -4 14 20 21 17
17 43 2 -2 15 20 17 26
18 45 7 2 13 18 12 26
3 15 -1 -10 0 18 15 5
6 16 -5 -10 -5 15 16 8
9 23 -6 -10 0 13 12 13
4 14 -8 -14 -4 16 12 5
6 13 -9 -16 -3 17 17 2
19 39 -2 -9 9 15 17 24
14 33 -5 -8 2 16 12 20
14 23 -8 -6 4 20 13 15
22 30 -10 -6 8 16 12 19
26 33 -9 0 5 17 14 21
15 5 -13 -8 0 23 15 4
15 6 -13 -6 -3 20 13 5
17 18 -9 -1 -1 19 10 8
12 1 -11 -3 -7 19 9 1
10 -2 -10 -9 -11 19 9 -5
20 22 -3 3 -2 14 5 13
13 15 -5 -2 -6 12 1 9
7 3 -4 -5 -10 11 0 1
11 11 2 -1 -9 13 3 8
9 14 3 4 -5 13 1 11
-2 -14 -1 -7 -12 17 2 -8
1 -13 4 -7 -10 16 4 -5
2 -5 3 -5 -16 11 1 -1
-2 -14 -2 -15 -27 12 -2 -11
-3 -17 -6 -16 -23 14 1 -12
8 9 -1 -3 -20 8 -3 5
2 4 1 -2 -20 9 -6 2
-4 -8 2 -8 -21 11 -5 -4
4 0 3 -4 -21 11 -5 1
4 2 5 -1 -22 13 -3 5
-8 -27 0 -8 -22 18 -1 -13
-5 -20 2 -6 -19 17 0 -9
-1 -10 6 -4 -23 14 -1 -4
-4 -21 4 0 -28 17 -3 -13
-2 -23 2 5 -23 19 1 -14
10 8 9 10 -15 13 1 6
6 6 12 4 -15 12 -5 -1
2 -8 12 4 -20 15 -5 -5
4 1 16 6 -18 13 -5 1
2 2 24 10 -12 14 -5 3
-14 -31 22 6 -15 21 -2 -14
-13 -24 25 8 -17 21 -1 -13
-8 -15 29 14 -11 17 -5 -13
-17 -29 34 21 -7 20 -6 -23
-11 -23 40 19 -8 23 -3 -22
-2 2 53 35 9 24 1 1
-4 -4 60 52 24 32 3 0
-3 -12 59 60 34 47 11 2
8 5 51 66 57 66 28 22
16 22 34 77 81 89 46 36
20 6 8 76 97 120 70 34
37 21 -21 78 128 148 95 57
58 54 -48 90 160 179 122 84
74 69 -70 114 204 225 159 104
102 102 -89 152 262 280 206 138
145 165 -106 196 330 338 255 197
163 188 -135 222 379 387 294 225
174 205 -156 238 420 427 327 245
191 246 -174 247 451 457 355 278
200 280 -196 234 462 475 374 301
186 281 -225 172 438 471 379 292
169 304 -250 58 355 420 358 293
143 310 -283 -77 220 315 293 264
101 261 -308 -197 61 177 192 183
66 195 -301 -280 -83 35 82 96
51 175 -292 -320 -190 -70 4 62
21 144 -293 -356 -263 -130 -44 26
4 110 -291 -352 -285 -148 -66 0
5 112 -277 -317 -254 -136 -63 8
-3 102 -262 -288 -233 -123 -64 4
-23 61 -247 -276 -227 -117 -71 -28
-24 61 -225 -255 -209 -112 -72 -31
-26 60 -195 -219 -181 -102 -70 -29
-32 46 -169 -193 -164 -89 -67 -39
-30 45 -138 -162 -146 -75 -60 -40
-17 74 -99 -125 -114 -62 -52 -17
-20 64 -77 -102 -100 -47 -44 -17
-23 49 -63 -89 -84 -37 -39 -22
-18 47 -45 -68 -68 -29 -34 -10
-18 34 -32 -50 -60 -23 -32 -7
-23 -6 -29 -49 -65 -18 -31 -32
-12 -10 -21 -38 -64 -14 -28 -28
-11 -10 -12 -30 -55 -12 -26 -22
-17 -26 -8 -32 -54 -7 -24 -32
-13 -20 -8 -34 -55 -8 -26 -36
-2 3 4 -12 -43 -8 -25 -13
-7 -8 7 -7 -36 -6 -26 -17
-10 -19 12 -6 -36 -5 -25 -22
-5 -9 18 3 -32 -5 -24 -14
-5 -11 21 8 -27 -2 -22 -10
-18 -44 18 -4 -35 4 -20 -32
-15 -37 20 -1 -33 5 -18 -27
-10 -27 20 2 -24 8 -16 -20
-16 -38 18 -1 -32 9 -15 -29
-14 -35 19 1 -37 9 -16 -31
-2 -6 23 14 -25 6 -15 -8
-7 -12 23 10 -29 5 -18 -13
-10 -21 24 11 -36 2 -20 -20
-4 -11 26 15 -27 2 -20 -9
-6 -13 28 14 -24 4 -19 -8
-19 -45 23 7 -27 11 -16 -25
-16 -39 24 13 -27 12 -12 -20
-10 -31 25 19 -24 13 -8 -14
-16 -42 27 12 -26 13 -11 -24
-16 -36 24 7 -31 9 -15 -27
-1 -3 28 17 -28 2 -19 -10
-5 -13 29 13 -26 2 -22 -15
-9 -26 28 15 -24 2 -20 -22
-2 -10 32 26 -15 5 -19 -13
-5 -13 35 27 -16 8 -18 -13
-19 -46 29 18 -27 11 -18 -35
-13 -39 31 16 -22 10 -15 -30
-11 -28 27 13 -21 10 -17 -26
-16 -41 26 9 -27 11 -15 -34
-12 -40 27 8 -25 10 -14 -34
0 -10 34 17 -18 4 -16 -16
-5 -14 34 14 -23 4 -18 -22
-9 -22 35 14 -22 6 -16 -27
-6 -9 38 25 -17 8 -15 -16
-9 -17 38 33 -12 11 -14 -15
-22 -48 30 20 -14 15 -14 -36
-18 -39 32 18 -24 13 -13 -31
-16 -33 38 23 -20 13 -13 -23
-20 -43 32 16 -29 10 -12 -34
-14 -36 33 17 -30 9 -14 -34
1 -9 38 28 -18 4 -17 -12
-3 -18 38 23 -19 6 -18 -15
-5 -26 39 26 -22 8 -16 -17
-3 -11 42 32 -16 7 -15 -9
-6 -14 46 42 -13 9 -15 -9
-22 -46 41 31 -23 11 -16 -28
-18 -43 41 25 -22 9 -14 -25
-12 -30 40 27 -15 8 -15 -19
-16 -44 34 22 -24 11 -16 -28
-11 -39 35 23 -26 10 -11 -26
1 -5 43 35 -22 3 -17 -8
-2 -12 42 31 -22 4 -18 -12
-5 -21 43 30 -25 4 -17 -17
0 -11 49 37 -16 2 -18 -9
-4 -17 53 37 -20 4 -19 -10
-16 -44 47 28 -21 9 -18 -31
-12 -42 45 31 -14 9 -16 -28
-10 -33 48 33 -15 10 -16 -22
-17 -44 41 26 -16 10 -16 -31
-16 -44 43 24 -24 7 -16 -32
-1 -15 50 37 -15 3 -18 -15
-7 -18 54 37 -17 3 -20 -19
-11 -27 52 35 -23 3 -18 -25
-4 -16 58 44 -12 5 -19 -17
-7 -20 57 45 -10 3 -22 -19
-21 -51 52 38 -21 8 -18 -37
-18 -44 52 38 -18 8 -18 -31
-15 -36 54 37 -19 7 -19 -27
-20 -44 50 32 -20 7 -20 -37
-18 -37 48 35 -23 4 -20 -38
-4 -10 55 52 -16 0 -23 -19
-7 -13 56 49 -17 -1 -25 -26
-13 -26 61 46 -16 -2 -25 -30
-5 -17 67 53 -12 -2 -23 -18
-6 -19 65 59 -13 -4 -26 -21
-20 -51 64 54 -18 1 -24 -40
-14 -41 64 51 -16 1 -22 -33
-14 -35 65 59 -9 1 -21 -27
-23 -51 61 57 -16 -1 -23 -38
-21 -47 60 53 -16 -3 -22 -38
-10 -15 68 60 -13 -12 -28 -23
-12 -22 68 58 -17 -15 -32 -29
-11 -27 70 57 -20 -17 -33 -34
-4 -18 75 62 -19 -18 -33 -24
-7 -24 75 70 -13 -18 -33 -23
-21 -53 71 60 -17 -16 -32 -42
-17 -41 70 57 -25 -19 -34 -38
-14 -37 72 61 -23 -19 -33 -31
-21 -54 73 56 -31 -18 -33 -40
-16 -47 70 50 -33 -22 -33 -40
-5 -19 74 60 -30 -29 -36 -24
-10 -27 74 60 -26 -28 -40 -32
-11 -36 78 61 -33 -28 -38 -35
-8 -28 78 65 -31 -27 -36 -26
-13 -33 77 66 -30 -26 -40 -28
-24 -60 75 55 -41 -23 -38 -46
-19 -51 73 56 -40 -28 -39 -42
-16 -42 77 56 -40 -29 -40 -37
-22 -56 71 43 -49 -32 -43 -50
-18 -47 64 39 -53 -36 -45 -49
-5 -19 69 49 -47 -43 -48 -32
-12 -28 67 47 -52 -45 -53 -40
-16 -39 68 46 -56 -46 -54 -45
-10 -25 71 51 -52 -46 -55 -37
-13 -32 69 46 -50 -43 -55 -39
-26 -60 65 37 -60 -37 -51 -56
-23 -46 65 36 -58 -40 -51 -51
-17 -37 61 36 -52 -41 -51 -46
-22 -51 56 30 -59 -39 -48 -55
-18 -43 50 30 -68 -43 -49 -54
-3 -15 58 43 -59 -47 -50 -34
-6 -18 57 35 -62 -44 -50 -38
-10 -29 53 30 -63 -42 -47 -38
-5 -17 58 34 -55 -41 -43 -27
-6 -19 54 29 -50 -38 -44 -28
-19 -47 42 17 -59 -32 -40 -47
-16 -37 41 24 -54 -29 -35 -39
-10 -27 40 24 -55 -27 -30 -33
-13 -37 34 20 -54 -21 -28 -40
-10 -33 31 16 -53 -19 -27 -36
1 -3 35 22 -49 -24 -29 -17
-3 -9 38 22 -47 -19 -28 -19
-5 -15 35 20 -47 -18 -26 -22
2 0 35 20 -40 -17 -26 -12
-1 -1 32 17 -44 -15 -26 -13
-15 -30 27 5 -49 -10 -23 -30
-8 -23 24 10 -36 -8 -19 -22
-5 -15 24 13 -36 -5 -16 -15
-12 -27 18 2 -39 -1 -14 -25
-6 -19 13 0 -41 -1 -11 -21
6 6 17 7 -35 -3 -11 -2
2 -1 20 4 -31 0 -11 -6
1 -8 21 8 -35 3 -9 -8
8 4 20 17 -26 3 -8 3
5 1 24 12 -23 6 -7 2
-9 -26 17 -2 -32 10 -4 -16
-5 -17 12 -1 -23 11 -2 -10
-1 -7 12 3 -24 10 -4 -7
-9 -21 8 -7 -32 12 -2 -16
-4 -16 5 -7 -34 11 -1 -13
10 11 11 1 -23 8 -2 4
4 0 10 -2 -19 10 -1 -1
2 -6 17 0 -24 12 1 -4
10 12 18 3 -22 7 -4 5
6 6 11 -1 -20 7 -4 1
-7 -21 9 -5 -31 12 0 -13
-4 -13 14 -3 -31 12 1 -7
-2 -7 12 -5 -27 9 -1 -4
-9 -20 6 -12 -31 11 -1 -15
-7 -16 5 -13 -30 10 0 -12
7 12 12 -3 -22 6 -2 5
4 2 12 -5 -25 5 -4 0
1 -3 11 -9 -29 7 -2 -4
8 11 17 4 -25 8 0 10
3 2 21 2 -24 12 1 8
-8 -22 14 -12 -30 16 2 -10
-2 -9 17 -9 -30 12 2 -4
2 -3 12 -3 -28 9 0 0
-6 -19 5 -15 -33 7 -2 -11
-4 -12 4 -15 -34 4 -2 -10
9 14 10 -7 -27 0 -5 7
4 5 11 -8 -31 1 -7 2
0 -3 10 -13 -36 2 -9 -4
6 12 12 -11 -29 1 -10 5
0 3 14 -8 -26 5 -8 3
-10 -25 10 -16 -31 11 -4 -12
-3 -15 12 -13 -28 11 -2 -4
-1 -4 14 -9 -29 6 -5 -1
-9 -18 8 -16 -35 7 -5 -13
-3 -12 8 -19 -32 7 -3 -8
5 9 17 -9 -25 5 -4 9
1 0 15 -7 -25 7 -4 3
0 -7 15 -1 -27 9 -2 0
4 7 22 5 -20 8 -3 9
-4 0 25 0 -14 10 -2 6
-13 -22 12 -13 -23 11 -3 -13
-5 -9 11 -7 -27 7 -3 -8
-3 -4 17 5 -23 6 -3 -3
-11 -21 12 -7 -30 9 0 -13
-7 -9 11 -13 -25 8 0 -10
6 20 17 -3 -15 3 -5 6
-1 9 16 -2 -21 3 -7 0
-7 0 16 -4 -24 3 -7 -3
0 10 21 2 -19 0 -5 6
-6 -1 27 10 -17 6 -3 5
-15 -26 21 -3 -22 10 -3 -11
-7 -15 18 0 -17 11 0 -5
-1 -3 17 -1 -10 10 1 -2
-6 -18 12 -5 -21 11 -1 -13
0 -11 10 -12 -22 8 0 -11
13 18 15 0 -14 3 -7 4
9 7 16 0 -17 5 -7 0
4 -4 17 1 -17 6 -6 -5
11 11 22 7 -9 4 -5 8
2 1 22 8 -12 7 -5 4
-10 -26 20 -1 -13 13 -2 -14
-5 -14 20 -3 -10 9 -3 -10
-2 -9 18 -1 -10 8 -2 -7
-7 -23 16 -8 -17 12 0 -18
-3 -13 12 -6 -15 10 -2 -15
11 14 17 1 -7 6 -3 3
6 6 14 2 0 9 -3 0
-1 -3 12 7 -5 8 -2 -4
5 11 20 11 -1 7 -2 7
-1 2 21 8 -5 9 -3 2
-12 -21 13 1 -10 13 -1 -16
-4 -14 17 -1 -8 13 3 -7
0 -9 16 -3 -8 11 1 -4
-7 -23 10 -10 -13 11 0 -16
0 -9 5 -10 -14 8 0 -13
10 13 11 6 -9 5 -1 6
5 2 14 10 -5 9 0 1
1 -4 12 6 -6 9 -1 -2
4 14 14 8 -6 5 -2 9
-1 7 15 10 -5 5 -4 5
-8 -16 8 -2 -14 5 -4 -13
-4 -10 10 -1 -12 4 -2 -7
-3 -7 13 1 -6 6 -2 -2
-14 -24 8 -7 -15 7 -2 -14
-4 -14 9 -3 -13 6 1 -9
7 13 15 4 -7 2 -1 8
3 4 13 -1 -8 2 -2 2
1 -5 15 3 -6 5 1 1
8 6 16 11 2 5 1 11
4 2 13 10 -4 6 0 7
-4 -21 9 -3 -10 11 4 -7
-1 -14 12 -2 -8 10 4 2
1 -5 6 -1 -8 6 2 4
-7 -20 0 -8 -10 4 3 -11
-1 -13 -1 -7 -9 3 1 -7
7 14 6 -1 3 0 -1 10
0 7 6 -1 -4 1 -3 3
-2 -5 7 -1 -4 3 -2 -2
5 7 11 5 -1 1 0 11
-1 -3 10 -1 -5 3 -2 7
-9 -22 1 -4 -10 6 0 -12
-4 -15 0 -4 -4 4 1 -6
-2 -7 -2 -5 -4 3 -2 -4
-9 -20 -8 -12 -14 6 -2 -16
-4 -16 -5 -11 -15 1 -2 -11
7 13 5 -1 -11 -4 -6 3
3 6 2 -5 -14 -5 -8 -2
-3 -7 0 -8 -13 -3 -5 -5
4 7 6 1 -5 -3 -4 6
-4 4 6 -1 -7 -1 -5 1
-12 -22 2 -6 -9 4 1 -12
-6 -12 2 -5 -7 5 5 -3
-4 -7 1 -2 -8 3 3 1
-10 -23 -4 -10 -16 3 1 -11
-1 -12 -3 -18 -19 -1 2 -6
10 11 3 -5 -13 -5 -2 9
6 2 3 -5 -9 -5 -4 2
2 -5 -1 -6 -11 -5 -5 -3
9 11 4 -4 -8 -7 -6 6
4 0 5 -5 -8 -1 -2 3
-8 -25 -3 -12 -14 3 0 -12
-3 -13 0 -10 -13 2 2 -4
1 -5 -3 -12 -7 2 0 -2
-7 -19 -9 -16 -14 2 -1 -14
-1 -12 -9 -14 -18 1 3 -7
10 17 -3 -8 -12 -4 -1 8
5 6 -4 -11 -14 -5 -3 2
-2 -4 -3 -11 -15 -3 0 1
2 9 1 -6 -7 -4 1 11
0 1 1 -5 -5 -1 4 6
-8 -24 -4 -11 -11 4 4 -10
-6 -17 -4 -7 -10 2 3 -3
-5 -6 -4 -7 -9 2 2 -1
-12 -20 -10 -11 -13 3 2 -13
-4 -6 -10 -12 -17 -1 0 -9
7 21 -1 -4 -12 -6 -2 7
2 7 -2 -7 -14 -5 -4 1
1 -2 -1 -8 -9 -5 -3 -2
9 10 4 -3 -7 -5 -3 11
2 -3 0 -9 -9 -3 -5 5
-10 -27 -4 -15 -13 3 0 -10
-7 -17 -7 -14 -13 -1 2 -6
-5 -10 -8 -12 -8 -1 1 -4
-11 -24 -10 -18 -11 1 0 -15
-6 -8 -8 -19 -18 -3 0 -12
6 13 -4 -11 -7 -3 0 7
2 -1 2 -11 -7 2 2 4
0 -8 1 -9 -9 2 4 1
8 9 4 -2 -3 0 6 12
2 -1 0 -3 -6 2 6 7
-10 -22 -7 -16 -10 4 4 -9
-4 -12 -7 -14 -9 0 2 -5
-4 -5 -8 -14 -12 -3 -1 -3
-9 -19 -14 -16 -15 -1 -1 -16
-2 -12 -11 -15 -14 0 3 -6
9 12 -8 -11 -8 -4 1 11
3 3 -2 -9 -4 1 2 7
-3 -3 -5 -7 -5 3 3 2
6 14 -4 -5 1 2 4 12
0 2 0 -4 -3 5 3 7
-11 -23 -4 -7 -8 8 5 -8
-4 -14 -5 -8 -6 5 7 -2
2 -8 -9 -6 -9 1 3 -1
-7 -22 -15 -15 -16 4 1 -13
1 -12 -13 -12 -8 2 3 -6
8 11 -6 -8 -4 -3 0 7
1 6 -9 -10 -11 -3 -2 0
0 0 -6 -7 -13 -4 -1 -2
7 11 -2 2 -5 -5 2 11
2 1 -4 -5 -7 -2 3 5
-8 -23 -3 -18 -11 3 5 -7
-1 -13 -3 -16 -9 2 6 -2
-1 -4 -4 -15 -7 2 5 0
-13 -26 -10 -14 -12 5 6 -12
-6 -16 -12 -15 -11 4 6 -7
4 8 -3 -10 0 1 4 8
-2 -2 -6 -10 0 1 2 1
-5 -5 -9 -13 -7 -1 2 -2
4 13 -4 -4 -5 -5 0 8
-2 1 -3 -1 -1 0 1 3
-10 -16 -4 -10 1 6 6 -8
-4 -1 -5 -7 -2 3 6 -3
-2 3 -2 4 1 5 9 3
-8 -9 -7 -5 1 8 11 -6
-1 8 -6 -8 3 3 10 0
10 31 1 -2 9 0 8 15
4 18 1 -5 3 2 8 8
0 9 8 2 2 6 12 7
12 27 13 10 8 3 13 17
5 17 11 6 7 3 10 7
-6 -6 10 4 6 11 17 -1
-4 6 13 2 7 9 17 5
-2 10 17 -2 8 8 17 7
-6 -4 8 -12 0 8 15 -5
2 14 4 -12 -2 5 14 1
10 41 5 0 11 4 13 16
5 27 5 1 11 8 14 13
4 19 1 0 5 8 14 10
14 38 2 -1 11 4 13 20
9 26 -4 -3 9 4 12 12
-3 0 -12 -8 3 10 15 -1
1 10 -11 -2 7 11 20 9
4 22 -13 -4 8 11 20 15
-1 13 -19 -12 2 10 19 1
8 31 -15 -10 4 9 21 11
16 48 -8 -5 11 8 24 27
12 38 -14 -8 11 9 21 21
7 31 -15 -7 5 7 18 15
12 42 -13 -1 8 3 19 25
5 28 -15 -5 4 3 14 18
-7 9 -17 -15 0 6 17 4
1 15 -16 -13 1 4 20 10
6 24 -15 -20 1 3 17 12
-3 6 -20 -27 -4 6 19 1
10 23 -20 -23 -1 4 19 10
23 41 -20 -11 8 2 19 25
16 32 -26 -16 8 2 18 18
19 27 -27 -16 5 4 20 17
26 36 -19 -4 14 6 21 31
15 15 -19 -4 8 7 21 21
7 -7 -25 -14 2 8 21 7
9 5 -20 -14 4 7 23 12
10 10 -15 -12 11 3 20 12
2 -15 -22 -19 4 2 17 -4
6 -4 -23 -17 -2 -2 14 2
13 23 -13 -6 3 -6 9 13
4 8 -9 -7 1 -2 10 8
2 -2 -14 -3 1 -2 10 5
11 14 -9 2 7 -5 11 18
4 0 -12 -5 4 -5 8 8
-8 -23 -17 -10 -4 -1 9 -5
-3 -16 -18 -12 -5 -5 7 -1
-3 -13 -18 -11 -1 -6 6 2
-9 -30 -23 -21 -8 -7 5 -12
-3 -18 -21 -20 -7 -11 5 -5
2 5 -14 -13 -3 -16 2 5
0 -5 -13 -15 -8 -14 1 0
-3 -11 -15 -15 -6 -13 1 -3
4 7 -11 -4 3 -13 2 11
-2 -7 -13 -8 0 -12 2 3
-13 -28 -17 -11 1 -6 8 -7
-7 -16 -14 -5 2 -6 8 -1
-8 -11 -12 -4 1 -7 7 1
-14 -26 -16 -13 -4 -5 7 -13
-5 -13 -12 -7 0 -6 9 -4
0 1 -3 6 8 -9 6 7
-6 -9 -1 3 6 -8 3 -1
-9 -16 4 9 6 -8 3 -4
-1 -3 17 16 10 -8 3 7
-11 -14 24 15 10 -8 1 -1
-21 -35 21 4 0 -8 -1 -17
-15 -27 27 19 12 -5 1 -9
-12 -16 36 26 20 -3 1 -6
-20 -28 41 21 20 2 2 -19
-9 -18 41 37 33 13 12 -5
3 7 40 52 55 26 23 18
5 6 21 57 76 51 42 26
18 15 1 64 104 77 64 39
41 48 -25 75 137 102 86 68
52 49 -57 84 171 139 118 85
64 53 -92 94 206 184 155 100
90 95 -106 126 259 236 197 138
118 132 -119 168 334 302 251 180
137 148 -155 199 382 359 294 204
166 194 -173 232 434 400 332 240
189 242 -186 252 475 430 357 277
196 266 -215 243 487 453 380 294
192 293 -232 207 486 462 392 307
188 337 -251 129 444 434 383 324
155 334 -293 -11 337 359 343 301
120 291 -331 -150 179 240 262 235
86 238 -329 -243 20 91 149 158
56 177 -321 -295 -107 -29 55 89
23 128 -327 -357 -217 -112 -7 35
11 125 -326 -375 -267 -161 -43 17
10 131 -313 -350 -259 -167 -55 17
-1 112 -297 -321 -228 -150 -53 9
-13 96 -269 -290 -205 -139 -54 1
-11 108 -237 -253 -179 -134 -58 3
-24 80 -204 -221 -159 -119 -57 -9
-33 54 -171 -194 -143 -102 -49 -23
-27 68 -139 -156 -118 -91 -45 -18
-29 67 -108 -123 -93 -78 -40 -14
-34 37 -89 -102 -77 -63 -32 -25
-25 48 -75 -84 -66 -58 -28 -15
-19 60 -56 -64 -53 -55 -29 -3
-18 30 -40 -51 -39 -44 -25 -6
-15 13 -36 -41 -37 -39 -23 -12
-6 17 -22 -23 -28 -36 -21 0
-14 -7 -11 -13 -22 -30 -19 -8
-22 -32 -8 -15 -26 -26 -15 -23
-14 -23 -4 -10 -24 -30 -15 -17
-14 -23 3 -4 -17 -27 -17 -13
-24 -42 0 -10 -24 -24 -16 -26
-13 -23 3 -10 -23 -25 -14 -15
-6 -1 7 -2 -15 -30 -18 -4
-11 -15 9 7 -12 -24 -17 -10
-9 -22 12 8 -15 -24 -14 -13
-5 -7 21 15 -8 -25 -14 1
-13 -24 21 16 -7 -20 -15 -8
-20 -42 15 10 -11 -13 -10 -19
-15 -30 16 13 -8 -14 -8 -11
-12 -24 17 18 -10 -14 -9 -8
-24 -42 12 10 -12 -14 -10 -22
-15 -28 14 12 -10 -20 -11 -14
-7 -6 21 17 -12 -25 -16 -2
-11 -17 22 16 -13 -22 -17 -12
-12 -20 21 15 -5 -22 -17 -15
-6 -6 28 24 1 -18 -14 1
-15 -28 28 21 -4 -14 -14 -10
-21 -47 24 11 -8 -10 -10 -22
-17 -31 22 12 -8 -16 -13 -18
-14 -24 20 18 -10 -16 -14 -16
-20 -45 14 15 -13 -14 -12 -29
-12 -25 15 10 -14 -19 -13 -22
-6 -5 23 18 -10 -25 -18 -11
-12 -22 28 17 -8 -18 -15 -17
-13 -31 30 17 -7 -16 -10 -19
-3 -14 36 27 4 -14 -11 -3
-15 -32 35 28 3 -11 -11 -13
-23 -51 31 26 -3 -7 -7 -23
-14 -39 32 26 4 -10 -7 -15
-13 -33 33 25 3 -12 -10 -14
-22 -50 31 16 -7 -11 -11 -29
-15 -33 32 22 -8 -15 -10 -17
-9 -11 35 27 -2 -20 -15 -7
-12 -25 35 33 -2 -17 -15 -14
-14 -29 33 32 -3 -18 -14 -18
-7 -9 39 37 4 -18 -12 -2
-16 -28 39 35 10 -12 -13 -11
-20 -45 34 27 -4 -8 -9 -23
-11 -32 35 28 0 -11 -8 -14
-9 -30 37 32 2 -11 -8 -9
-18 -48 30 24 -9 -11 -9 -24
-10 -24 30 27 -11 -18 -11 -17
-5 -11 36 33 -3 -19 -15 -5
-11 -23 43 34 -1 -14 -13 -11
-14 -28 45 35 0 -11 -11 -12
-8 -11 47 44 5 -15 -10 1
-15 -31 42 40 4 -12 -9 -10
-20 -44 36 29 -3 -12 -10 -23
-14 -32 40 33 -2 -15 -10 -15
-13 -27 43 35 -2 -14 -10 -11
-20 -43 38 26 -6 -14 -12 -27
-9 -30 44 32 -4 -17 -10 -16
-5 -13 47 41 0 -22 -16 -6
-13 -22 45 39 -1 -19 -17 -15
-15 -25 45 39 -2 -18 -15 -17
-10 -11 53 46 5 -19 -15 -4
-18 -31 50 45 7 -14 -15 -16
-22 -52 51 40 8 -7 -9 -25
-16 -37 50 44 11 -9 -9 -17
-15 -29 50 44 3 -12 -11 -17
-23 -49 49 38 -4 -12 -12 -31
-13 -34 53 44 4 -15 -12 -21
-4 -12 57 48 5 -17 -15 -11
-9 -22 59 50 2 -14 -16 -19
-11 -26 57 47 6 -15 -17 -23
-5 -11 61 61 13 -16 -15 -8
-17 -32 60 56 9 -15 -17 -22
-26 -52 60 49 1 -13 -15 -33
-18 -39 64 51 0 -17 -15 -25
-14 -31 63 51 1 -19 -17 -25
-21 -45 59 43 -2 -17 -17 -38
-14 -30 64 52 2 -18 -16 -25
-8 -15 71 61 8 -21 -19 -14
-12 -26 71 62 11 -17 -19 -20
-15 -33 72 67 10 -18 -19 -23
-6 -15 77 73 12 -21 -20 -9
-17 -34 71 72 8 -20 -22 -21
-22 -50 69 61 1 -19 -20 -32
-17 -37 72 65 3 -23 -21 -25
-17 -34 73 70 2 -24 -23 -23
-26 -55 71 65 -2 -21 -21 -36
-15 -35 79 71 0 -23 -20 -22
-8 -13 80 73 1 -32 -28 -17
-13 -29 77 74 1 -30 -27 -22
-17 -35 81 73 1 -30 -27 -24
-10 -19 85 88 8 -33 -28 -11
-19 -37 83 85 1 -29 -28 -22
-27 -60 79 76 -6 -27 -26 -34
-21 -48 82 80 -6 -32 -27 -28
-21 -39 80 79 -5 -35 -31 -28
-30 -60 75 71 -15 -36 -33 -42
-19 -39 75 72 -15 -42 -33 -33
-13 -19 76 80 -15 -49 -41 -27
-17 -33 77 80 -16 -47 -41 -33
-17 -39 77 76 -13 -44 -38 -33
-13 -24 80 83 -6 -44 -37 -19
-20 -38 73 78 -11 -42 -38 -33
-26 -51 69 68 -15 -39 -35 -41
-26 -43 73 73 -14 -41 -34 -31
-24 -37 76 71 -17 -45 -36 -30
-29 -58 65 60 -25 -46 -39 -48
-20 -37 64 63 -30 -54 -41 -38
-13 -22 70 72 -24 -57 -43 -28
-18 -33 68 66 -27 -57 -45 -36
-16 -35 64 63 -30 -57 -47 -39
-8 -19 69 72 -21 -58 -47 -25
-17 -36 65 67 -25 -54 -47 -38
-22 -55 60 58 -29 -49 -41 -45
-16 -42 61 58 -30 -52 -41 -35
-15 -38 56 56 -30 -52 -41 -35
-22 -54 47 44 -40 -51 -41 -50
-12 -33 47 49 -36 -56 -42 -37
-8 -15 51 55 -29 -58 -43 -27
-15 -23 48 48 -31 -53 -42 -33
-15 -24 42 43 -35 -53 -42 -36
-7 -5 43 50 -23 -52 -39 -22
-17 -29 41 50 -23 -44 -34 -29
-21 -44 35 35 -30 -39 -31 -36
-13 -29 35 34 -29 -40 -28 -27
-11 -25 31 38 -25 -39 -28 -25
-17 -37 22 28 -28 -35 -26 -38
-8 -15 22 29 -24 -34 -23 -22
-5 0 25 35 -18 -35 -23 -11
-7 -9 23 33 -15 -30 -22 -17
-10 -13 20 34 -15 -27 -19 -17
-6 2 21 40 -10 -26 -17 -1
-12 -13 17 33 -14 -22 -15 -12
-13 -25 8 21 -22 -21 -13 -23
-5 -14 7 26 -17 -19 -11 -13
-4 -11 7 24 -11 -19 -10 -10
-12 -26 -1 11 -16 -15 -9 -23
0 -1 2 14 -16 -18 -8 -8
6 15 7 21 -8 -18 -10 1
-1 6 7 20 -8 -14 -9 -6
-3 -3 8 24 -4 -9 -3 -3
6 10 9 30 3 -10 -3 10
-2 -9 3 18 -2 -6 0 -1
-7 -20 -3 11 -12 -3 6 -9
-2 -10 -2 20 -9 -3 5 0
0 -5 2 19 -6 -4 5 3
-8 -22 -4 9 -13 -3 4 -12
1 1 -4 10 -9 -8 3 0
7 20 0 16 -6 -11 -1 8
2 5 0 16 -7 -8 -1 2
1 3 -3 15 -7 -7 -1 -1
7 19 0 18 -1 -9 -2 10
-4 0 -2 15 -6 -5 -2 -3
-8 -18 -3 11 -8 -1 5 -8
-4 -11 -2 17 -5 -3 5 0
-4 -7 -2 11 -7 -5 4 0
-12 -24 -6 0 -17 -2 5 -12
0 -4 -2 4 -12 -6 6 1
6 16 0 12 -7 -7 2 11
2 4 -2 10 -7 -8 0 3
0 -1 0 15 -10 -7 1 1
7 17 2 21 -6 -9 1 15
-7 -6 -2 13 -8 -5 1 3
-11 -21 -3 7 -11 0 6 -5
-4 -6 1 4 -10 -4 5 1
-6 -1 -3 5 -9 -7 3 0
-11 -19 -8 -2 -17 -5 4 -13
1 -3 -5 9 -10 -8 5 1
3 13 -1 14 -5 -11 2 9
-1 2 -1 17 -4 -6 3 4
-1 0 -2 15 -9 -7 1 0
5 16 5 18 -3 -6 2 14
-4 -3 3 12 -6 -2 3 3
-10 -15 -1 6 -9 1 7 -5
-5 -5 1 7 -7 -2 9 2
-5 -1 -1 7 -8 -5 6 2
-13 -17 -8 0 -16 -4 3 -14
-1 2 -3 6 -11 -8 3 -1
2 16 1 10 -7 -14 -2 7
-1 7 0 7 -7 -11 -2 1
-2 2 1 6 -7 -9 0 -2
6 16 8 11 -3 -10 3 11
1 3 6 8 -6 -5 0 -1
-6 -16 2 12 -6 2 7 -2
-2 -8 0 13 -2 -1 7 2
-3 -2 -1 14 -4 -5 7 3
-11 -18 -8 1 -12 -5 4 -14
4 1 -3 5 -7 -10 5 -1
8 17 2 13 0 -14 0 7
-2 2 1 12 -4 -11 0 0
-3 -4 3 17 -2 -8 2 0
3 15 5 22 5 -11 2 13
-7 -6 4 15 -2 -7 1 0
-8 -18 3 10 1 -3 6 -6
-4 -9 5 11 2 -6 6 1
-3 -2 8 10 5 -7 4 -1
-13 -17 1 0 -3 -6 2 -16
-2 5 1 6 -3 -11 1 -5
4 16 5 14 1 -13 -1 3
-3 1 6 14 -1 -10 2 -2
-3 -4 5 16 -2 -8 3 -5
5 14 14 23 11 -9 2 9
-6 -8 14 16 5 -5 3 -3
-9 -17 6 12 -2 -3 6 -11
-1 -4 5 14 -1 -8 3 -6
-4 -5 6 12 6 -6 4 -3
-10 -21 2 6 -1 -3 6 -15
1 5 4 13 4 -7 5 -1
7 18 7 19 6 -11 1 5
-2 8 6 18 0 -10 0 -2
-3 4 4 14 0 -9 -2 -4
5 20 9 17 8 -9 0 10
-4 -6 7 16 4 -5 0 -3
-9 -16 4 14 3 0 4 -9
-3 -5 5 18 6 -3 5 -1
-4 -2 3 13 2 -5 3 -2
-11 -20 -1 9 -4 -3 2 -16
1 2 5 18 0 -7 3 -1
4 15 8 17 4 -10 -1 6
-2 5 10 14 6 -6 0 0
-2 0 9 19 5 -4 1 -1
3 17 11 24 13 -7 1 11
-6 -5 8 14 9 -2 2 -2
-11 -18 4 8 4 1 6 -9
-6 -6 5 11 6 -2 6 -3
-4 -3 7 15 10 -4 5 -2
-11 -22 3 9 -1 -1 7 -13
1 4 7 13 3 -4 7 1
5 19 5 16 7 -7 4 7
-1 5 6 9 6 -5 3 0
1 0 6 7 3 -4 6 0
7 19 10 12 6 -8 4 10
-6 -7 7 9 7 -2 4 -2
-7 -17 3 4 4 0 7 -7
-4 -6 3 8 4 -2 7 -2
-4 -7 5 7 8 -3 8 0
-11 -23 -4 0 2 -2 8 -14
1 1 -2 5 1 -6 6 0
6 14 2 15 6 -9 2 7
0 1 1 10 5 -8 1 -1
0 -1 2 10 4 -5 3 -1
7 17 6 21 17 -6 5 13
-8 -9 4 12 11 -1 5 0
-10 -19 -2 5 5 0 8 -6
-5 -4 -1 2 3 -5 5 -2
-4 -2 1 2 2 -5 5 -1
-11 -20 -1 -6 -5 -3 5 -15
-1 2 1 -2 -1 -8 4 -1
6 20 1 3 4 -11 -1 4
0 8 -1 3 5 -8 0 -1
-2 3 0 3 0 -8 1 -1
5 17 7 14 8 -7 3 14
-6 -6 6 5 4 -2 3 -1
-8 -17 6 -1 2 1 8 -6
0 -6 0 2 3 0 8 1
-2 -3 -3 0 1 -3 5 -2
-8 -13 -8 -10 -7 -2 4 -16
4 9 -6 -2 -4 -7 3 -2
5 13 2 8 1 -6 1 5
0 2 0 4 1 -4 2 -2
-1 0 0 4 -1 -3 1 -4
6 17 5 12 8 -5 0 9
-4 -5 5 7 4 -1 1 -4
-7 -14 1 -5 -2 0 5 -9
-4 -1 3 1 0 0 3 -3
-4 3 -4 -2 0 -2 1 -4
-9 -16 -10 -13 -7 0 0 -18
3 7 -6 -3 -2 -2 2 -2
3 18 -2 0 -2 -3 0 5
-1 2 -3 -5 -4 0 2 -3
-1 0 -2 -2 0 3 2 -2
4 18 4 9 6 2 4 11
-5 1 0 3 0 3 2 -4
-5 -13 -2 1 -3 5 5 -7
-1 -3 -1 0 1 2 4 -1
-2 1 -2 -2 2 2 7 -1
-10 -17 -7 -9 -5 3 6 -13
4 3 -5 -5 -6 -1 4 0
7 13 3 -1 -1 -4 0 6
0 5 3 -7 -3 -1 -1 -1
0 3 2 -4 -2 2 2 -2
8 16 9 4 3 1 3 11
-4 -7 7 -1 -1 4 5 -4
-6 -14 0 -6 -3 6 6 -9
-1 -2 -3 -4 -4 3 4 -2
-1 3 -5 -4 -4 3 2 -4
-5 -10 -9 -10 -8 4 2 -15
4 12 -2 -5 -6 -1 2 -1
6 18 0 3 -3 -4 3 6
2 12 -1 -7 -8 -5 -3 -4
1 9 -1 -2 -9 -3 -1 -3
7 19 2 2 -1 -2 0 11
-7 -9 -2 -4 -2 3 2 -2
-11 -19 -5 -9 -6 6 4 -9
-2 -6 -3 -5 -3 4 5 0
-2 0 -3 -7 -5 3 3 -2
-7 -15 -6 -14 -10 6 6 -14
6 8 -5 -8 -6 3 6 2
6 17 -3 -5 -3 0 0 6
0 7 -2 -6 -1 3 1 -1
-2 5 -2 -4 -2 4 2 0
7 25 1 2 3 0 0 9
-3 -1 -6 -2 -4 3 2 -6
-8 -17 -7 -6 -5 8 5 -9
-5 -2 -8 -6 -3 4 3 -3
-5 -2 -7 -5 -3 3 2 -4
-9 -11 -10 -14 -9 4 1 -16
7 17 -5 -10 -6 -1 0 -2
6 21 1 -4 2 -1 -1 4
1 12 -5 -9 0 0 -2 -5
4 10 -5 -5 -2 1 0 -2
7 19 1 2 7 4 3 12
-2 -4 -4 -4 2 7 2 -5
-6 -17 -3 -6 -2 10 5 -10
-2 -3 -2 -6 -1 6 3 -4
-4 -1 -3 -7 0 7 2 -4
-12 -15 -6 -16 -5 7 2 -16
1 16 -5 -5 -2 3 1 0
3 21 -1 -4 4 0 -2 4
0 7 0 -13 -4 -1 -4 -4
0 8 -2 -13 -3 1 -3 -2
5 26 1 -4 2 0 -3 9
-7 -2 -4 -4 -1 5 -2 -6
-5 -7 -10 -10 -3 6 0 -10
-2 -1 -5 -10 -1 7 3 0
-2 4 0 -5 -1 8 4 -1
-8 -12 -4 -9 0 11 6 -12
4 13 -3 -3 2 8 6 5
7 25 4 2 5 8 5 10
4 20 3 0 6 11 5 3
4 19 8 7 8 12 7 5
12 39 19 12 16 12 9 18
-1 16 11 2 13 15 8 3
-2 12 4 -5 12 17 11 -2
0 21 3 -3 15 17 12 7
0 19 1 -1 15 16 11 4
-7 3 -1 4 13 18 11 -7
7 33 4 5 11 11 9 6
9 38 8 5 14 10 6 10
3 30 7 0 15 12 6 5
3 25 9 1 14 14 8 6
11 39 14 10 18 15 10 19
-1 19 6 0 12 17 9 3
-3 8 0 -5 10 19 13 1
6 24 -3 -5 12 18 13 8
7 29 -4 -7 11 17 11 6
-2 11 -8 -16 5 18 11 -5
11 42 -6 -11 8 13 12 12
12 49 -4 -5 12 13 9 17
10 41 -8 -8 10 15 10 11
11 45 -6 -6 11 18 13 15
17 58 -2 1 16 17 14 27
5 32 -11 -2 14 22 16 13
3 22 -16 -13 8 20 14 8
9 32 -16 -12 6 16 12 13
9 32 -15 -12 7 16 12 13
5 16 -23 -24 -1 16 11 1
18 43 -17 -16 2 12 12 18
18 53 -18 -11 3 9 10 20
10 39 -19 -13 2 10 10 13
14 37 -19 -16 5 12 10 14
23 47 -17 -10 9 12 9 24
13 21 -22 -15 5 16 11 8
12 15 -21 -19 8 20 15 7
16 23 -18 -17 7 17 14 12
17 21 -19 -16 3 16 11 10
11 8 -27 -23 -4 15 9 -4
21 34 -18 -19 0 11 9 12
20 35 -14 -11 4 9 6 15
9 17 -16 -13 5 11 5 7
8 21 -17 -15 3 8 3 3
12 32 -9 -5 10 9 3 15
-3 -1 -11 -13 1 12 4 -1
-3 -5 -15 -17 -3 11 3 -6
0 3 -15 -13 -1 8 7 2
-3 1 -14 -17 -1 8 4 0
-10 -15 -17 -24 -6 10 4 -10
5 14 -15 -21 -7 2 -1 2
8 21 -12 -16 -5 0 -5 5
2 6 -11 -17 -4 3 -5 -1
3 5 -12 -20 -6 1 -6 -3
9 20 -9 -13 -1 0 -6 9
-3 -9 -14 -13 -1 7 -4 -6
-6 -16 -18 -14 -2 7 -1 -11
0 -4 -16 -18 -1 6 -1 -4
-2 -5 -15 -14 0 6 -3 -5
-8 -17 -15 -18 -8 10 -1 -15
5 9 -12 -14 -2 5 -1 2
5 18 -10 -4 1 3 -5 4
3 4 -10 1 2 6 -5 -1
1 4 -7 -6 3 6 -4 -1
4 15 1 2 10 5 -6 9
-10 -12 2 -1 8 10 -5 -7
-15 -16 5 -3 0 9 -5 -15
-9 -5 8 4 1 7 -6 -9
-11 0 11 -3 1 2 -11 -14
-21 -21 20 -5 -1 3 -11 -26
-8 0 27 7 6 2 -9 -8
-6 8 37 15 19 5 -11 -4
-12 0 46 29 30 15 -6 -7
-6 -1 49 46 43 28 4 0
10 20 44 59 61 43 17 21
10 8 22 50 77 68 35 18
19 10 -1 56 99 95 58 32
35 32 -28 69 131 121 82 57
52 50 -52 81 159 152 109 78
68 60 -83 85 194 193 143 93
100 114 -95 127 257 242 186 142
127 156 -113 166 323 304 232 181
143 177 -139 195 380 361 278 209
166 209 -159 231 432 407 316 239
189 256 -176 247 465 436 343 274
186 264 -206 228 480 463 366 280
186 288 -225 197 480 473 384 295
177 332 -252 110 427 440 374 307
154 342 -294 -27 310 360 331 288
117 300 -329 -163 154 236 246 223
89 254 -322 -245 3 84 134 154
62 197 -318 -297 -122 -35 37 85
32 159 -323 -361 -226 -114 -24 37
13 142 -323 -380 -268 -155 -59 11
10 139 -302 -350 -254 -155 -67 13
-8 107 -295 -325 -233 -136 -63 -6
-16 90 -266 -292 -210 -123 -59 -11
-17 96 -230 -253 -184 -117 -61 -10
-22 92 -201 -220 -157 -108 -62 -17
-28 71 -168 -193 -141 -90 -54 -27
-13 99 -131 -152 -112 -80 -49 -10
-15 97 -102 -121 -88 -70 -48 -9
-18 71 -76 -106 -75 -57 -42 -16
-18 58 -61 -89 -66 -47 -37 -13
-15 62 -49 -64 -49 -41 -38 -1
-24 23 -44 -61 -46 -32 -35 -20
-20 5 -34 -53 -40 -23 -28 -22
-11 9 -21 -40 -31 -20 -26 -16
-14 2 -15 -27 -26 -18 -26 -15
-21 -19 -13 -29 -25 -14 -23 -26
-7 7 -3 -17 -19 -18 -23 -10
-7 9 2 -11 -17 -19 -26 -9
-11 -4 4 -4 -12 -15 -25 -15
-9 -6 11 -1 -12 -15 -24 -13
-4 6 14 3 -11 -19 -27 -5
-16 -22 6 -2 -15 -12 -26 -23
-17 -27 5 -2 -14 -11 -22 -24
-10 -14 11 -4 -14 -14 -22 -18
-13 -16 15 3 -9 -11 -19 -17
-20 -33 13 -6 -17 -7 -13 -25
-5 -4 15 7 -8 -12 -19 -7
-3 6 15 9 -11 -15 -23 -5
-10 -2 15 5 -10 -14 -25 -14
-6 -1 16 3 -10 -16 -25 -15
-3 7 23 13 -4 -17 -26 -3
-17 -28 21 9 -4 -8 -23 -21
-13 -33 20 5 -7 -7 -21 -23
-10 -22 25 12 -7 -8 -21 -16
-10 -20 23 18 -5 -6 -20 -17
-13 -33 17 7 -13 -5 -19 -27
-2 -9 27 13 -8 -11 -21 -10
0 3 26 11 -4 -14 -25 -10
-7 -9 23 10 -4 -10 -23 -16
-10 -11 26 14 -7 -11 -23 -15
-7 2 38 19 -3 -15 -26 -8
-23 -30 34 17 -5 -10 -21 -28
-18 -34 29 18 -3 -7 -18 -29
-10 -19 29 16 -6 -11 -24 -24
-13 -25 26 14 -2 -9 -24 -24
-17 -39 24 3 -6 -5 -20 -32
-6 -8 29 13 -3 -9 -20 -15
-6 -5 32 17 3 -8 -21 -11
-8 -14 31 19 3 -5 -19 -15
-8 -15 31 19 -2 -7 -19 -15
-4 1 36 24 4 -11 -23 -7
-18 -30 32 18 -2 -5 -18 -23
-18 -36 31 14 -4 -4 -15 -24
-12 -24 35 20 0 -6 -17 -17
-11 -25 34 21 0 -7 -20 -20
-16 -38 30 13 -10 -7 -19 -32
-3 -5 34 23 -5 -13 -20 -12
-4 -2 34 26 3 -16 -24 -13
-8 -10 34 24 -1 -15 -25 -20
-9 -12 37 24 -5 -14 -22 -17
