I II V1 V2 V3 V4 V5 V6
-11 -5 10 -10 -2 5 2 3
-11 -5 10 -10 -2 5 2 3
-11 -4 10 -10 -2 5 1 3
-10 -4 11 -9 0 5 1 2
-10 -3 11 -9 0 5 0 2
-10 -3 11 -9 0 5 0 2
-9 -2 12 -8 1 4 -2 1
-9 -3 12 -8 1 4 -2 1
-9 -4 11 -8 0 4 -2 2
-9 -5 11 -8 0 4 -2 2
-9 -5 11 -8 0 4 -2 2
-10 -6 10 -9 -2 3 0 3
-10 -6 10 -9 -2 3 -2 2
-9 -5 9 -9 -2 3 -2 1
-9 -5 9 -9 -2 3 -3 0
-9 -5 9 -9 -2 3 -3 0
-8 -4 8 -10 -3 2 -4 -2
-9 -5 8 -11 -3 2 -4 -2
-10 -6 7 -11 -4 2 -4 -2
-11 -7 7 -12 -4 2 -4 -2
-12 -7 7 -12 -4 2 -4 -2
-13 -8 6 -13 -5 1 -5 -3
-12 -7 6 -12 -5 1 -4 -2
-11 -6 6 -11 -4 2 -3 0
-10 -5 6 -10 -4 2 -2 1
-10 -4 6 -10 -4 2 -2 1
-9 -3 7 -9 -3 3 0 2
-9 -3 7 -9 -3 3 0 2
-9 -3 7 -9 -3 3 0 2
-9 -3 7 -9 -3 3 0 2
-9 -3 7 -9 -3 3 0 2
-10 -4 8 -10 -4 3 -2 2
-10 -4 8 -10 -4 3 -2 2
-9 -3 9 -10 -4 3 -2 2
-9 -3 9 -10 -4 3 -2 2
-9 -3 9 -10 -4 3 -2 2
-8 -2 10 -9 -3 3 -2 1
-9 -3 9 -10 -4 2 -2 1
-9 -4 8 -10 -4 2 -3 0
-10 -5 7 -11 -5 1 -3 0
-10 -6 6 -11 -5 1 -3 0
-11 -7 5 -12 -6 0 -4 -2
-11 -7 5 -12 -6 0 -4 -2
-11 -7 5 -12 -6 0 -5 -2
-11 -7 5 -12 -6 0 -5 -2
-11 -7 5 -12 -6 0 -5 -2
-11 -8 5 -11 -7 -2 -6 -2
-11 -7 5 -11 -7 0 -5 -2
-11 -7 5 -11 -7 0 -4 -2
-11 -6 5 -11 -7 1 -3 -2
-11 -6 5 -11 -7 1 -2 -2
-11 -5 5 -10 -7 2 0 0
-10 -6 5 -10 -7 1 -2 0
-10 -6 5 -11 -8 1 -2 0
-9 -7 5 -11 -8 0 -3 0
-9 -7 5 -11 -8 0 -3 0
-9 -8 4 -12 -9 -2 -4 0
-10 -7 4 -12 -9 -2 -4 0
-11 -7 4 -12 -9 -2 -3 0
-12 -6 4 -12 -9 -2 -3 0
-13 -6 4 -12 -9 -2 -3 0
-14 -5 5 -11 -8 0 -2 0
-13 -5 5 -11 -8 0 -2 0
-12 -5 4 -11 -8 0 -3 0
-11 -5 4 -11 -8 0 -3 0
-11 -5 4 -11 -8 0 -3 0
-10 -6 3 -11 -8 0 -4 -2
-10 -5 3 -11 -8 0 -4 0
-11 -5 4 -11 -7 0 -4 0
-11 -4 4 -11 -7 0 -4 1
-11 -4 4 -11 -7 0 -4 1
-12 -3 5 -10 -6 1 -3 2
-12 -4 5 -10 -7 0 -4 2
-12 -5 5 -10 -7 0 -4 2
-12 -6 5 -10 -8 -2 -5 2
-12 -6 5 -10 -8 -2 -5 2
-11 -7 5 -10 -9 -3 -6 1
-11 -7 5 -10 -9 -3 -6 1
-10 -6 5 -10 -9 -3 -6 1
-10 -6 5 -10 -9 -3 -6 1
-10 -6 5 -10 -9 -3 -6 1
-9 -5 6 -11 -8 -2 -5 0
-9 -5 6 -11 -8 -2 -5 0
-8 -5 5 -11 -8 -3 -5 0
-8 -5 5 -11 -8 -3 -5 0
-8 -5 5 -11 -8 -3 -5 0
-8 -5 4 -11 -8 -4 -5 1
-9 -6 4 -11 -8 -4 -5 1
-11 -7 3 -11 -8 -4 -5 1
-12 -8 3 -11 -8 -4 -5 1
-13 -8 3 -11 -8 -4 -5 1
-14 -9 2 -12 -9 -5 -6 0
-14 -9 2 -12 -9 -5 -6 0
-14 -9 2 -12 -9 -5 -6 0
-14 -9 2 -12 -9 -5 -6 0
-14 -9 2 -12 -9 -5 -6 0
-14 -9 2 -11 -9 -6 -7 0
-14 -9 2 -11 -8 -6 -7 0
-14 -8 2 -11 -8 -6 -6 0
-14 -8 2 -11 -7 -6 -6 0
-14 -8 2 -11 -7 -6 -6 0
-13 -6 2 -10 -6 -6 -5 1
-12 -5 2 -10 -6 -6 -5 1
-10 -3 3 -10 -6 -6 -5 0
-9 -2 3 -10 -6 -6 -5 0
-8 0 3 -10 -6 -6 -5 0
-8 0 4 -9 -7 -5 -5 -2
-9 -2 4 -9 -7 -5 -5 0
-11 -3 4 -8 -7 -5 -5 0
-12 -4 4 -8 -7 -5 -5 1
-13 -5 4 -8 -7 -5 -5 1
-14 -6 5 -7 -6 -5 -4 2
-14 -6 5 -8 -6 -5 -5 2
-13 -7 4 -8 -7 -6 -6 2
-13 -7 4 -9 -7 -6 -7 2
-13 -7 4 -9 -7 -6 -8 2
-12 -8 3 -10 -8 -7 -9 2
-12 -8 3 -10 -8 -7 -9 2
-12 -7 3 -10 -8 -7 -8 2
-12 -7 3 -10 -8 -7 -8 2
-12 -7 3 -10 -8 -7 -8 2
-11 -6 2 -10 -8 -6 -7 1
-11 -6 3 -9 -7 -6 -7 2
-11 -5 4 -8 -7 -6 -6 3
-11 -5 5 -7 -6 -6 -6 4
-11 -5 5 -7 -6 -6 -6 4
-12 -5 6 -6 -5 -5 -5 5
-13 -6 5 -6 -6 -5 -6 5
-15 -7 5 -7 -6 -6 -6 4
-16 -8 4 -7 -7 -6 -7 4
-17 -9 4 -7 -7 -6 -7 4
-17 -10 3 -8 -8 -7 -8 3
-15 -9 3 -8 -8 -7 -8 3
-14 -8 3 -8 -7 -6 -7 3
-12 -7 3 -8 -7 -6 -7 3
-11 -7 3 -8 -7 -6 -7 3
-10 -5 5 -7 -5 -5 -5 4
-10 -3 7 -6 -3 -4 -3 5
-10 0 9 -5 -2 -3 -2 7
-10 1 10 -4 1 -2 1 8
-10 3 12 -3 2 0 2 9
-11 4 12 -2 3 1 2 9
-11 3 11 -2 2 0 1 8
-11 2 9 -3 1 -2 0 6
-11 1 8 -3 0 -3 -2 5
-11 0 7 -3 -2 -4 -3 4
-11 0 6 -3 -2 -4 -3 4
-10 1 7 -2 0 -3 -2 6
-9 2 8 1 1 -2 1 7
-8 3 9 2 2 0 2 9
-7 4 9 3 3 1 3 10
-6 5 10 4 4 2 4 11
-6 6 11 5 5 2 4 11
-6 7 11 6 5 3 5 11
-6 8 12 7 6 3 5 11
-6 8 12 7 6 3 5 11
-6 9 13 9 7 4 6 11
-5 8 12 10 8 5 6 11
-4 7 12 11 9 6 6 12
-3 6 11 12 10 7 6 12
-2 5 11 13 10 7 6 12
0 4 9 14 11 8 7 13
-2 4 8 13 10 7 7 13
-3 3 7 12 9 7 7 13
-4 3 6 11 8 6 7 13
-4 3 5 10 8 6 7 13
-5 2 4 8 6 4 6 12
-5 2 3 5 5 3 5 11
-5 1 2 3 4 2 4 11
-5 1 1 1 3 1 3 10
-5 1 0 -2 2 0 3 10
-4 -2 -2 -3 1 -3 2 9
-5 -4 -2 -4 0 -4 1 8
-6 -6 -2 -4 -2 -6 0 7
-7 -7 -2 -5 -3 -8 -2 6
-7 -9 -2 -5 -4 -9 -2 6
-9 -10 -2 -6 -5 -10 -3 5
-10 -10 0 -6 -6 -10 -4 5
-12 -10 0 -6 -6 -10 -5 5
-13 -10 1 -6 -7 -10 -6 5
-14 -10 1 -6 -7 -10 -6 5
-15 -9 2 -6 -8 -10 -7 4
-16 -9 2 -6 -8 -11 -7 3
-17 -10 2 -6 -8 -11 -7 2
-18 -10 2 -6 -8 -12 -7 1
-18 -10 2 -6 -8 -12 -7 1
-18 -11 2 -6 -8 -13 -7 0
-16 -10 2 -6 -8 -12 -7 0
-14 -9 2 -5 -8 -12 -7 0
-13 -8 2 -5 -8 -11 -7 0
-11 -7 2 -5 -8 -11 -7 0
-11 -6 3 -4 -8 -10 -7 1
-12 -7 3 -5 -9 -11 -8 1
-13 -7 3 -5 -9 -12 -9 1
-15 -8 3 -6 -10 -13 -10 1
-16 -8 3 -6 -10 -14 -10 1
-17 -9 3 -7 -11 -15 -11 1
-17 -9 3 -7 -11 -15 -11 1
-17 -9 3 -7 -11 -14 -10 1
-17 -9 3 -7 -11 -14 -10 1
-17 -9 3 -7 -11 -14 -10 1
-17 -9 4 -6 -10 -13 -9 1
-18 -10 4 -6 -10 -13 -9 1
-19 -10 4 -5 -10 -13 -9 1
-20 -11 4 -5 -10 -13 -9 1
-21 -11 4 -5 -10 -13 -9 1
-22 -12 6 -3 -10 -14 -9 -2
-22 -12 9 -2 -10 -15 -12 -3
-21 -12 11 0 -9 -16 -14 -4
-21 -12 14 2 -9 -17 -16 -5
-21 -12 17 3 -9 -18 -18 -6
-19 -14 18 9 -4 -17 -19 -7
-16 -15 19 16 3 -13 -18 -8
-14 -17 20 22 8 -9 -17 -9
-12 -19 21 29 14 -6 -16 -10
-10 -20 22 35 20 -2 -15 -10
2 -12 12 37 30 17 3 2
15 1 -3 36 42 37 23 17
28 13 -16 36 53 59 43 32
40 25 -30 35 64 79 63 49
54 37 -45 35 76 101 84 64
70 63 -59 42 100 136 116 92
88 92 -73 51 126 174 152 121
105 119 -87 60 152 212 188 151
122 148 -101 70 178 251 224 181
139 177 -115 79 204 288 260 211
139 182 -127 55 179 272 262 217
134 182 -136 21 141 241 255 218
129 181 -146 -13 103 212 247 219
123 181 -156 -47 65 182 241 220
117 181 -166 -79 27 152 234 220
102 159 -166 -103 -5 113 199 199
84 134 -163 -122 -36 73 159 173
65 108 -161 -143 -68 32 119 146
47 82 -158 -163 -99 -8 78 119
28 57 -155 -184 -131 -49 38 93
18 47 -141 -176 -130 -57 24 77
11 40 -124 -159 -119 -57 15 65
4 34 -107 -143 -110 -58 7 53
-5 28 -91 -127 -100 -58 -2 39
-12 22 -74 -111 -90 -58 -11 27
-15 18 -62 -97 -80 -55 -13 21
-16 14 -52 -83 -71 -50 -14 17
-17 11 -41 -71 -61 -45 -14 13
-19 8 -31 -58 -52 -39 -15 9
-20 4 -21 -45 -41 -34 -15 4
-21 2 -16 -36 -35 -31 -15 3
-21 1 -12 -30 -30 -27 -14 3
-20 0 -8 -23 -25 -23 -12 3
-20 -3 -4 -16 -20 -20 -10 3
-20 -4 2 -10 -15 -16 -9 3
-19 -5 3 -8 -13 -15 -8 2
-19 -6 4 -7 -13 -16 -9 1
-19 -7 4 -7 -13 -16 -10 0
-19 -8 5 -6 -13 -17 -11 -2
-19 -8 5 -6 -13 -17 -11 -3
-18 -9 6 -5 -12 -18 -12 -4
-18 -9 7 -4 -11 -16 -12 -4
-19 -9 7 -3 -10 -15 -12 -5
-19 -9 8 -2 -9 -14 -12 -5
-19 -9 8 0 -9 -13 -12 -5
-20 -9 9 1 -8 -12 -12 -6
-18 -9 10 1 -8 -13 -12 -6
-17 -9 10 2 -8 -13 -12 -6
-16 -9 11 2 -8 -14 -12 -6
-15 -9 11 2 -8 -14 -12 -6
-14 -9 12 3 -7 -15 -12 -6
-14 -9 12 4 -6 -15 -12 -6
-15 -10 13 4 -6 -15 -12 -6
-15 -10 13 5 -5 -15 -12 -6
-15 -10 13 5 -5 -15 -12 -6
-17 -11 14 6 -4 -15 -11 -6
-18 -12 14 6 -4 -16 -12 -7
-19 -13 13 6 -4 -17 -12 -7
-21 -14 13 6 -4 -18 -13 -8
-22 -14 13 6 -4 -18 -13 -8
-23 -15 12 5 -5 -19 -14 -9
-21 -14 12 5 -5 -19 -14 -9
-20 -13 12 5 -5 -18 -13 -9
-19 -12 12 5 -5 -18 -13 -9
-18 -12 12 5 -5 -18 -13 -9
-17 -11 13 6 -4 -17 -12 -10
-18 -13 13 6 -4 -17 -12 -9
-18 -14 13 6 -4 -17 -12 -9
-19 -15 13 6 -4 -17 -12 -8
-19 -16 13 6 -4 -17 -12 -8
-20 -17 13 7 -4 -16 -11 -7
-19 -17 13 7 -4 -16 -11 -8
-18 -17 13 7 -4 -16 -12 -8
-17 -17 13 7 -4 -16 -12 -9
-17 -17 13 7 -4 -16 -12 -9
-16 -17 13 8 -5 -16 -13 -10
-16 -17 13 8 -5 -16 -13 -10
-16 -17 13 8 -5 -16 -13 -10
-16 -17 13 8 -5 -16 -13 -10
-16 -17 13 8 -5 -16 -13 -10
-15 -16 12 7 -6 -17 -14 -10
-15 -16 12 8 -5 -17 -14 -11
-15 -17 12 9 -5 -17 -14 -11
-15 -17 12 10 -4 -17 -14 -12
-15 -17 12 11 -4 -17 -14 -12
-14 -18 11 12 -3 -17 -15 -13
-15 -18 11 12 -3 -17 -15 -14
-15 -18 11 12 -3 -17 -16 -14
-16 -18 11 12 -3 -17 -16 -15
-16 -18 11 12 -3 -17 -16 -15
-17 -19 12 11 -4 -17 -17 -16
-15 -20 11 11 -4 -17 -17 -16
-14 -21 11 12 -4 -17 -17 -17
-13 -22 10 12 -4 -17 -17 -17
-12 -22 10 12 -4 -17 -17 -17
-11 -23 9 14 -3 -17 -18 -18
-11 -23 10 15 0 -16 -17 -18
-11 -23 10 16 1 -15 -16 -17
-11 -23 11 18 2 -14 -16 -17
-11 -23 11 19 3 -13 -15 -17
-10 -24 12 20 4 -12 -14 -16
-10 -24 12 20 4 -12 -14 -17
-9 -24 12 21 5 -12 -15 -18
-9 -24 12 21 5 -12 -15 -18
-9 -24 12 21 5 -12 -15 -19
-8 -25 12 23 6 -11 -16 -20
-7 -25 12 26 8 -10 -16 -20
-6 -25 12 28 9 -10 -15 -19
-6 -25 12 30 10 -9 -15 -19
-5 -25 12 33 11 -9 -15 -19
-4 -26 11 35 13 -7 -14 -18
-4 -27 11 37 16 -5 -13 -18
-4 -28 12 39 19 -4 -12 -17
-4 -28 12 42 21 -2 -12 -17
-4 -29 12 44 24 1 -11 -17
-2 -30 13 46 26 3 -9 -16
0 -28 13 49 28 5 -8 -15
2 -27 13 51 31 7 -6 -14
3 -26 13 53 33 9 -5 -14
5 -25 13 56 35 11 -3 -13
7 -23 12 58 37 13 0 -12
9 -22 13 61 40 15 2 -11
11 -20 13 64 44 18 3 -10
13 -19 14 66 46 20 5 -9
15 -17 14 69 49 22 7 -8
16 -16 15 71 51 24 9 -6
17 -14 15 72 52 26 10 -5
17 -13 15 74 54 28 12 -4
18 -12 15 75 55 31 13 -2
18 -11 15 77 57 33 15 0
19 -10 16 79 59 35 17 1
19 -10 16 80 61 37 19 3
20 -10 16 81 63 39 20 4
20 -10 16 84 65 42 22 5
20 -10 16 85 67 44 24 6
21 -7 16 86 68 46 26 8
23 -5 16 87 70 47 28 11
24 -2 17 87 71 49 30 14
25 2 17 88 72 50 33 16
26 5 17 88 73 52 35 19
27 6 18 89 74 53 36 20
27 8 18 88 74 53 36 20
26 9 18 87 74 53 37 21
26 10 18 87 74 53 37 21
26 11 18 86 74 53 37 21
24 12 19 82 71 53 38 22
21 13 19 78 68 50 37 22
18 13 18 75 64 48 37 23
16 14 18 71 61 46 36 23
13 14 18 68 57 43 36 23
12 15 17 64 54 40 34 24
11 15 17 60 51 37 32 23
10 14 16 57 47 34 30 23
9 14 16 53 44 31 27 22
8 14 16 50 40 28 25 22
6 13 15 47 37 26 24 21
4 13 15 44 34 24 22 20
3 13 15 40 32 22 21 20
1 13 15 37 30 19 19 19
-2 13 15 34 27 17 18 19
-3 12 16 33 25 16 17 18
-4 11 16 31 22 14 16 17
-4 10 15 30 20 13 15 16
-5 9 15 28 18 11 14 15
-5 8 15 27 15 10 13 14
-6 7 14 25 14 8 11 13
-7 5 13 22 12 6 10 11
-8 4 12 20 11 5 8 10
-8 2 12 18 9 3 7 9
-9 1 11 15 8 1 5 8
-10 0 10 14 7 0 4 7
-10 1 10 13 7 -2 4 6
-9 1 10 13 6 -2 3 6
-9 2 10 12 6 -3 3 5
-9 2 10 12 6 -3 3 5
-8 3 11 11 5 -4 2 4
-9 2 11 11 5 -4 2 4
-10 2 10 11 4 -5 2 4
-10 1 10 11 4 -5 2 4
-11 1 10 11 4 -5 2 4
-12 0 9 10 3 -6 1 3
-12 -2 9 9 2 -7 1 2
-12 -3 8 8 1 -7 0 2
-12 -4 8 7 1 -8 0 1
-12 -5 8 6 0 -8 0 1
-12 -6 7 5 -2 -9 -2 0
-12 -5 7 5 0 -9 -2 1
-12 -4 7 5 0 -9 -2 2
-12 -4 7 5 1 -9 -2 2
-12 -3 7 5 1 -9 -2 3
-12 -2 7 6 2 -8 0 4
-10 -2 7 6 2 -8 0 4
-9 -2 7 6 2 -7 0 4
-8 -2 7 6 2 -7 0 4
-7 -2 7 6 2 -7 0 4
-6 -2 7 7 1 -6 1 5
-8 -2 7 7 1 -6 1 5
-9 -3 7 7 0 -6 1 5
-11 -3 7 7 0 -6 1 5
-12 -3 7 7 0 -6 1 5
-13 -4 7 6 -2 -7 2 4
-13 -4 7 6 -2 -7 2 4
-12 -4 7 6 -2 -8 1 3
-11 -4 7 6 -2 -8 1 3
-11 -4 7 6 -2 -8 1 3
-10 -3 7 6 0 -9 0 2
-10 -3 7 6 0 -9 0 2
-10 -3 8 6 -2 -9 0 3
-10 -3 8 6 -2 -9 0 3
-10 -3 8 6 -2 -9 0 3
-11 -3 9 6 -3 -9 0 4
-11 -4 9 6 -3 -9 0 4
-11 -5 9 7 -2 -9 -2 3
-11 -6 9 7 -2 -9 -3 2
-11 -7 9 7 -2 -9 -3 2
-10 -8 8 8 0 -9 -4 1
-11 -8 8 8 0 -9 -4 1
-12 -8 7 8 0 -9 -4 1
-12 -8 7 8 0 -9 -4 1
-13 -8 7 8 0 -9 -4 1
-14 -7 6 9 -2 -9 -3 1
-14 -6 7 9 -2 -9 -3 1
-13 -4 8 10 0 -9 -2 2
-13 -3 9 10 0 -9 0 2
-13 -2 10 10 0 -9 0 2
-12 0 11 11 1 -9 1 3
-12 0 11 11 1 -9 1 3
-11 0 10 11 1 -9 1 3
-10 0 10 11 1 -9 1 3
-10 0 10 11 1 -9 1 3
-9 -2 9 11 0 -9 0 3
-10 -3 9 11 0 -9 0 3
-11 -4 9 11 1 -9 -2 3
-11 -4 9 11 1 -9 -2 3
-12 -5 9 11 1 -9 -2 3
-13 -6 9 11 2 -10 -3 3
-13 -6 9 11 2 -10 -3 3
-12 -5 9 11 2 -10 -3 3
-12 -4 9 11 2 -10 -3 3
-12 -4 9 11 2 -10 -3 3
-11 -3 10 12 2 -10 -2 3
-11 -3 10 12 2 -10 -2 3
-10 -3 10 12 2 -10 -2 3
-9 -3 10 12 2 -10 -2 3
-9 -3 10 12 2 -10 -2 3
-8 -2 9 12 2 -10 -3 2
-8 -2 9 12 2 -10 -3 2
-9 -2 9 12 2 -10 -3 2
-9 -2 9 12 2 -10 -3 2
-9 -2 9 12 2 -10 -3 2
-10 0 10 11 2 -10 -2 2
-10 0 10 11 2 -10 -2 2
-10 -2 10 11 2 -9 -2 2
-10 -3 10 11 2 -9 -2 2
-10 -3 10 11 2 -9 -2 2
-11 -4 10 11 2 -8 0 3
-11 -4 10 11 2 -8 0 3
-11 -4 9 11 2 -9 0 4
-11 -4 9 11 2 -9 0 4
-11 -4 9 11 2 -9 0 4
-12 -4 8 10 2 -10 0 5
-12 -4 8 10 2 -10 0 5
-13 -5 8 10 2 -10 0 4
-13 -5 8 10 2 -10 0 3
-13 -5 8 10 2 -10 0 3
-14 -6 8 9 1 -10 -2 2
-13 -6 8 9 1 -10 -2 2
-11 -6 7 8 1 -11 -2 2
-10 -6 7 7 1 -11 -2 2
-9 -6 7 7 1 -11 -2 2
-8 -5 6 6 0 -12 -2 2
-8 -5 6 6 0 -12 -2 2
-9 -4 7 6 0 -11 0 3
-10 -3 8 6 0 -10 1 4
-10 -3 8 6 0 -10 1 4
-11 -2 9 7 0 -9 2 5
-10 -2 9 7 0 -10 1 4
-9 -3 8 6 -2 -11 0 3
-9 -4 7 5 -2 -12 0 3
-8 -4 7 5 -2 -13 -2 2
-7 -5 6 4 -3 -14 -3 1
-7 -5 6 4 -3 -14 -3 1
-8 -5 6 4 -3 -14 -3 1
-8 -5 6 4 -3 -14 -3 1
-8 -5 6 4 -3 -14 -3 1
-9 -4 6 5 -3 -13 -2 2
-9 -4 6 5 -3 -13 -2 2
-10 -4 6 5 -3 -13 -2 2
-10 -4 6 5 -3 -13 -2 2
-10 -4 6 5 -3 -13 -2 2
-11 -3 5 5 -3 -13 0 3
-11 -3 5 5 -3 -13 0 3
-10 -2 5 5 -3 -13 0 3
-9 -2 5 5 -3 -13 0 3
-9 -2 5 5 -3 -13 0 3
-8 0 5 4 -4 -12 -2 2
-8 0 5 4 -4 -12 -3 2
-9 -2 5 4 -5 -12 -4 2
-10 -2 5 4 -5 -12 -4 2
-10 -2 5 4 -5 -12 -5 2
-11 -3 6 3 -6 -13 -6 3
-11 -3 6 3 -6 -13 -7 3
-12 -4 5 3 -6 -13 -8 2
-12 -5 5 3 -6 -13 -8 2
-12 -5 5 3 -6 -13 -9 2
-13 -6 4 2 -7 -14 -10 1
-13 -6 4 2 -7 -14 -10 1
-12 -6 4 2 -7 -14 -9 2
-11 -6 4 2 -7 -14 -9 2
-11 -6 4 2 -7 -14 -9 2
-10 -6 3 2 -7 -14 -8 3
-10 -6 3 2 -7 -14 -8 3
-11 -6 3 1 -7 -14 -8 2
-12 -6 3 1 -7 -14 -8 2
-12 -6 3 1 -7 -14 -8 2
-13 -6 3 0 -7 -13 -9 1
-11 -5 3 0 -7 -13 -9 1
-9 -4 4 1 -7 -12 -8 2
-8 -3 5 2 -7 -12 -7 3
-6 -2 5 2 -7 -12 -7 3
-5 0 6 3 -6 -11 -6 4
-6 0 6 3 -6 -11 -6 4
-7 -2 6 2 -7 -11 -7 3
-8 -3 6 2 -7 -11 -8 3
-9 -3 6 2 -7 -11 -8 3
-10 -4 5 1 -8 -12 -9 2
-10 -5 4 1 -8 -13 -9 2
-11 -6 3 1 -8 -14 -9 2
-12 -6 3 1 -8 -14 -9 2
-12 -7 2 1 -8 -15 -9 2
-13 -8 1 0 -9 -16 -8 2
-11 -7 2 0 -9 -16 -8 2
-10 -5 3 1 -8 -15 -7 2
-9 -4 4 1 -7 -14 -7 2
-7 -3 5 1 -7 -14 -7 2
-6 -2 6 2 -6 -13 -6 2
-6 -2 6 2 -6 -13 -6 2
-6 -2 6 2 -6 -12 -6 3
-6 -2 6 2 -6 -11 -6 3
-6 -2 6 2 -6 -11 -6 3
-7 0 5 1 -7 -10 -5 4
-7 -2 5 1 -7 -10 -5 4
-8 -3 4 1 -7 -11 -5 3
-9 -3 4 1 -7 -11 -5 3
-9 -4 4 1 -7 -11 -5 3
-10 -5 3 1 -8 -12 -6 2
-10 -5 2 0 -8 -12 -7 1
-10 -6 1 -2 -9 -13 -8 0
-10 -6 1 -2 -10 -14 -8 0
-10 -6 0 -3 -10 -14 -9 -2
-11 -7 -2 -4 -11 -15 -10 -3
-10 -5 1 -3 -10 -14 -9 -2
-9 -3 2 -2 -9 -13 -8 0
-9 0 3 0 -8 -12 -7 0
-8 2 5 1 -7 -11 -6 1
-7 3 6 2 -6 -10 -5 2
-7 2 5 2 -6 -11 -5 2
-8 1 4 1 -7 -12 -6 2
-8 1 4 1 -8 -12 -6 2
-8 0 3 1 -8 -13 -6 2
-9 -2 2 0 -9 -14 -7 1
-10 -3 2 0 -9 -14 -7 1
-12 -4 2 0 -9 -14 -7 0
-13 -5 2 0 -9 -14 -7 0
-14 -6 2 0 -9 -14 -7 0
-15 -7 3 0 -9 -13 -6 -2
-13 -7 3 0 -9 -13 -6 -2
-11 -6 2 -2 -10 -14 -7 -3
-9 -6 1 -3 -10 -14 -7 -3
-7 -6 1 -3 -10 -14 -7 -3
-6 -5 0 -4 -11 -15 -8 -4
-6 -5 0 -4 -11 -15 -8 -4
-6 -4 1 -3 -10 -14 -7 -3
-6 -4 2 -3 -9 -13 -6 -2
-6 -4 2 -3 -9 -13 -6 -2
-5 -3 3 -2 -8 -12 -5 0
-7 -4 3 -2 -8 -12 -5 0
-9 -5 3 -2 -8 -12 -5 0
-11 -6 3 -2 -8 -12 -5 0
-13 -7 3 -2 -8 -12 -5 0
-14 -8 3 -3 -8 -13 -6 0
-13 -7 3 -3 -8 -13 -6 0
-11 -5 4 -3 -8 -12 -5 0
-10 -4 5 -3 -8 -12 -4 0
-9 -3 5 -3 -8 -12 -4 0
-8 -2 6 -2 -8 -11 -3 1
-9 -2 6 -2 -8 -11 -3 1
-10 -2 5 -2 -8 -11 -3 2
-10 -2 5 -2 -8 -11 -3 2
-11 -2 5 -2 -8 -11 -3 2
-12 0 4 -3 -7 -10 -3 3
-11 0 4 -3 -7 -10 -3 3
-10 0 4 -2 -7 -10 -3 3
-9 0 4 -2 -7 -10 -3 3
-8 0 4 -2 -7 -10 -3 3
-7 0 5 0 -6 -9 -2 3
-5 2 6 1 -4 -8 0 4
-3 5 7 3 -3 -7 1 5
-2 7 8 4 -2 -6 2 5
1 9 9 5 1 -5 3 6
2 11 10 6 2 -4 4 7
2 11 10 7 2 -3 4 7
3 11 10 8 2 -2 5 7
3 11 10 8 2 0 5 7
3 11 10 9 2 1 5 7
4 12 10 10 3 2 6 8
4 12 10 11 5 2 6 8
4 11 9 12 6 2 6 8
4 10 9 12 7 2 6 8
4 10 9 13 9 2 6 8
4 9 8 14 10 2 5 9
4 7 6 12 8 2 5 9
4 6 4 10 6 2 5 9
4 5 2 8 4 2 5 9
4 3 0 6 2 2 5 9
5 2 -2 3 0 2 4 9
4 1 -2 1 -3 0 2 8
4 1 -3 -2 -5 -3 0 7
3 0 -4 -4 -8 -6 -4 6
2 -2 -4 -6 -10 -8 -6 5
1 -3 -5 -8 -12 -10 -8 4
1 -3 -5 -8 -12 -10 -8 4
1 -3 -5 -8 -12 -10 -8 3
1 -3 -5 -8 -12 -10 -8 2
1 -3 -5 -8 -12 -10 -8 2
1 -4 -5 -8 -11 -9 -8 1
0 -4 -5 -8 -11 -9 -8 1
0 -5 -5 -8 -11 -9 -8 1
-2 -6 -4 -9 -11 -10 -9 1
-3 -6 -4 -9 -11 -10 -9 1
-4 -7 -3 -10 -12 -11 -10 0
-5 -7 -3 -10 -12 -11 -10 0
-5 -7 -3 -10 -12 -11 -10 0
-6 -7 -2 -10 -12 -12 -10 -2
-7 -7 -2 -10 -12 -12 -10 -2
-8 -8 0 -10 -13 -13 -11 -3
-9 -8 0 -10 -13 -13 -11 -3
-9 -8 0 -10 -13 -13 -11 -3
-10 -8 0 -11 -13 -13 -11 -3
-11 -8 0 -11 -13 -13 -11 -3
-12 -9 0 -12 -14 -13 -11 -4
-12 -9 0 -12 -14 -13 -11 -4
-12 -9 0 -12 -14 -13 -11 -4
-12 -9 0 -12 -14 -13 -11 -4
-12 -9 0 -12 -14 -13 -11 -4
-11 -8 -2 -11 -14 -13 -12 -4
-11 -9 -2 -12 -14 -13 -12 -5
-11 -10 -2 -12 -15 -13 -13 -5
-12 -11 -3 -13 -16 -14 -14 -6
-12 -12 -3 -14 -16 -14 -14 -7
-13 -13 -4 -15 -17 -15 -15 -8
-13 -11 -3 -14 -16 -14 -14 -7
-12 -10 -3 -13 -15 -13 -13 -6
-11 -9 -2 -11 -14 -12 -12 -5
-11 -7 0 -10 -13 -11 -11 -4
-10 -6 1 -9 -12 -10 -10 -3
-11 -7 2 -9 -12 -12 -12 -5
-12 -8 3 -9 -12 -13 -14 -7
-13 -9 4 -9 -13 -15 -16 -9
-14 -10 5 -9 -13 -17 -18 -11
-15 -12 7 -6 -13 -18 -19 -12
-15 -15 10 1 -9 -16 -19 -14
-16 -18 13 7 -5 -14 -19 -15
-17 -21 17 13 0 -12 -20 -17
-17 -24 20 18 3 -10 -20 -19
-12 -22 17 22 10 -3 -15 -16
4 -12 6 22 19 14 0 -5
19 0 -7 22 29 29 15 7
34 10 -19 23 38 45 29 18
50 20 -30 23 48 60 45 29
67 36 -45 25 63 84 66 47
86 62 -62 27 84 115 98 73
104 87 -79 30 104 147 129 100
122 111 -96 32 125 180 159 127
141 136 -113 35 145 212 191 153
152 153 -128 33 152 228 210 172
151 159 -139 22 141 223 213 181
150 167 -149 12 129 218 216 190
149 174 -159 1 117 213 220 199
148 181 -171 -11 105 206 223 209
139 175 -177 -33 77 182 209 203
120 150 -177 -71 30 133 172 179
102 127 -177 -108 -18 82 135 154
82 102 -177 -146 -65 33 98 130
64 78 -177 -184 -113 -16 61 105
49 61 -169 -198 -136 -45 36 86
37 54 -150 -182 -127 -47 27 74
26 46 -133 -165 -117 -49 18 62
15 38 -114 -149 -107 -51 9 51
5 31 -96 -133 -98 -52 0 38
-3 26 -81 -117 -88 -52 -7 29
-4 23 -69 -104 -78 -48 -9 24
-5 21 -58 -91 -69 -43 -10 19
-7 19 -46 -77 -60 -38 -11 14
-8 17 -34 -64 -51 -33 -13 9
-9 14 -26 -54 -43 -29 -14 6
-9 10 -21 -47 -38 -27 -14 4
-9 6 -16 -39 -33 -25 -14 2
-10 2 -12 -32 -28 -22 -14 0
-10 -2 -7 -25 -23 -20 -14 -2
-11 -5 -4 -21 -20 -18 -15 -4
-12 -6 -3 -20 -20 -18 -15 -4
-12 -7 -3 -19 -19 -18 -15 -5
-13 -9 -2 -17 -18 -18 -15 -6
-14 -10 0 -16 -18 -18 -15 -6
-15 -11 1 -15 -17 -18 -14 -7
-15 -11 2 -14 -16 -18 -14 -7
-15 -10 3 -13 -15 -18 -14 -7
-14 -9 4 -12 -14 -17 -14 -7
-14 -9 5 -11 -13 -17 -14 -7
-13 -8 6 -10 -12 -16 -15 -8
-13 -8 6 -10 -12 -16 -15 -8
-13 -8 6 -10 -12 -16 -15 -8
-13 -9 6 -10 -12 -16 -15 -8
-13 -9 6 -10 -12 -16 -15 -8
-14 -10 7 -9 -12 -16 -15 -9
-15 -11 7 -9 -12 -16 -15 -9
-16 -11 7 -9 -12 -17 -16 -10
-17 -12 7 -8 -12 -18 -17 -11
-18 -13 7 -8 -12 -18 -17 -11
-19 -14 8 -7 -12 -19 -18 -12
-19 -14 8 -7 -12 -18 -17 -12
-18 -14 8 -7 -12 -17 -17 -12
-17 -14 8 -7 -11 -16 -16 -11
-17 -14 8 -7 -11 -15 -15 -11
-16 -13 9 -6 -10 -14 -14 -10
-16 -14 9 -6 -10 -14 -14 -11
-16 -15 9 -6 -10 -15 -15 -11
-16 -16 9 -6 -11 -16 -16 -12
-16 -17 9 -6 -11 -16 -16 -13
-16 -18 8 -7 -12 -17 -17 -14
-14 -15 8 -7 -11 -17 -16 -14
-13 -13 8 -7 -10 -17 -16 -13
-11 -11 9 -6 -9 -16 -15 -12
-9 -9 9 -6 -8 -16 -14 -12
-8 -7 10 -5 -7 -15 -13 -11
-9 -9 10 -5 -7 -15 -14 -12
-10 -10 10 -5 -7 -15 -15 -13
-11 -12 10 -5 -8 -15 -17 -14
-12 -14 10 -5 -8 -15 -18 -15
-13 -15 10 -4 -9 -15 -19 -16
-13 -16 10 -4 -9 -15 -19 -16
-13 -17 10 -4 -9 -15 -19 -16
-13 -19 10 -4 -10 -15 -19 -15
-13 -20 10 -4 -10 -15 -19 -15
-14 -21 9 -5 -11 -16 -19 -14
-13 -22 9 -5 -11 -16 -19 -14
-13 -22 9 -5 -11 -16 -19 -15
-12 -23 9 -4 -11 -16 -19 -16
-11 -24 9 -4 -11 -16 -19 -16
-10 -25 9 -3 -10 -15 -20 -17
-10 -24 9 -3 -10 -15 -20 -17
-10 -23 9 -3 -10 -15 -20 -17
-9 -22 9 -3 -10 -15 -20 -17
-9 -21 9 -3 -10 -15 -20 -17
-8 -20 10 -3 -10 -15 -19 -17
-9 -23 10 -3 -10 -15 -19 -18
-9 -25 9 -3 -10 -15 -20 -19
-10 -28 8 -3 -10 -16 -21 -20
-11 -30 8 -3 -10 -16 -21 -21
-12 -32 7 -3 -10 -17 -22 -22
-12 -32 7 -3 -10 -17 -22 -22
-11 -32 7 -3 -10 -17 -22 -22
-10 -32 7 -3 -10 -17 -22 -22
-10 -32 7 -3 -10 -17 -22 -22
-9 -31 8 -2 -10 -17 -22 -22
-8 -30 8 1 -9 -16 -22 -22
-6 -28 8 3 -7 -15 -22 -22
-5 -27 9 5 -6 -14 -21 -22
-3 -25 9 6 -4 -13 -21 -22
-2 -24 10 8 -3 -12 -20 -21
-3 -25 10 9 -2 -11 -20 -21
-3 -27 10 10 -2 -11 -20 -21
-4 -28 10 12 0 -10 -20 -22
-5 -30 10 13 1 -9 -20 -22
-5 -31 9 14 2 -8 -21 -23
-3 -31 9 17 5 -7 -20 -23
1 -31 9 19 7 -6 -20 -23
4 -30 9 21 9 -4 -19 -23
7 -30 9 23 11 -3 -18 -23
9 -29 8 25 13 -2 -17 -23
11 -28 9 28 15 1 -15 -22
13 -27 9 30 18 3 -14 -21
15 -25 10 33 20 5 -12 -19
16 -24 11 35 22 6 -11 -18
18 -23 12 37 24 8 -9 -17
17 -23 12 39 26 9 -8 -17
16 -23 12 43 28 10 -8 -17
15 -23 12 45 30 12 -7 -16
14 -23 12 47 32 13 -6 -16
13 -24 13 49 34 14 -5 -15
15 -24 13 50 35 16 -4 -15
17 -24 13 51 36 17 -3 -14
19 -23 13 53 38 19 0 -13
20 -23 13 54 39 20 1 -13
22 -22 13 55 40 22 2 -12
24 -19 13 57 44 25 5 -10
26 -16 14 60 47 28 7 -8
28 -13 15 62 49 31 10 -6
29 -10 15 64 52 34 12 -4
31 -8 16 66 54 36 14 -2
31 -6 16 67 56 38 17 1
31 -3 16 68 57 42 19 3
30 0 17 69 59 44 22 5
30 2 17 70 60 46 24 7
29 4 18 71 62 48 26 9
29 4 17 71 62 48 26 9
29 4 17 70 62 48 26 10
28 5 16 69 61 48 26 11
28 5 15 69 61 48 26 11
27 6 14 68 60 48 27 12
26 8 14 65 58 47 27 13
25 11 14 63 57 46 27 14
23 13 15 60 55 45 28 16
22 15 15 58 54 44 28 17
21 17 16 56 51 43 29 18
20 17 16 53 48 40 27 17
18 16 16 50 45 38 25 17
17 16 16 47 43 36 24 16
15 15 16 44 39 34 22 15
14 14 17 40 36 32 20 14
13 14 17 37 33 29 19 14
13 14 17 34 30 27 18 14
12 14 16 31 27 25 17 13
11 14 16 28 24 22 15 13
10 13 15 25 22 20 14 12
7 11 15 22 20 17 13 12
5 9 14 20 17 15 11 11
3 8 14 18 15 13 10 11
0 6 13 15 13 10 8 10
-3 4 12 13 11 8 7 9
-3 4 12 11 10 8 6 9
-3 4 12 10 9 7 6 8
-3 4 12 8 8 7 5 8
-3 4 12 7 7 6 4 7
-3 3 12 5 6 5 3 6
-3 2 11 4 5 4 2 5
-3 2 11 3 5 2 0 5
-3 1 10 2 4 1 -2 4
-3 0 9 1 3 -2 -4 3
-3 -2 8 0 2 -3 -5 2
-3 -2 8 -2 1 -4 -5 2
-3 -3 7 -3 0 -4 -6 1
-3 -3 7 -4 -2 -5 -6 1
-3 -4 6 -5 -4 -6 -7 0
-3 -5 5 -6 -5 -7 -8 -2
-4 -5 5 -6 -5 -7 -8 -2
-4 -6 5 -6 -5 -7 -8 -2
-5 -6 5 -6 -5 -7 -8 -3
-6 -7 5 -6 -5 -7 -8 -3
-7 -8 5 -6 -5 -8 -8 -4
-7 -8 5 -6 -5 -8 -8 -4
-6 -7 5 -6 -5 -8 -8 -4
-6 -7 5 -7 -5 -7 -8 -3
-5 -6 5 -7 -5 -7 -8 -3
-4 -5 6 -8 -6 -6 -9 -2
-4 -5 6 -8 -6 -6 -9 -2
-4 -5 6 -8 -6 -5 -9 -2
-4 -4 7 -7 -5 -5 -8 -2
-4 -4 7 -7 -5 -4 -8 -2
-5 -3 8 -6 -4 -3 -7 -2
-5 -3 7 -7 -5 -4 -7 -2
-5 -4 7 -7 -6 -5 -8 -3
-5 -4 6 -8 -7 -6 -8 -3
-5 -5 5 -9 -8 -7 -9 -4
-5 -6 4 -10 -9 -8 -10 -5
-7 -7 4 -10 -9 -8 -10 -5
-8 -7 4 -10 -9 -8 -10 -5
-10 -8 4 -10 -9 -8 -10 -5
-11 -9 4 -10 -9 -8 -10 -5
-13 -10 5 -10 -8 -9 -10 -6
-12 -9 5 -10 -8 -8 -10 -6
-10 -8 6 -9 -7 -8 -10 -5
-9 -7 6 -9 -7 -7 -9 -5
-7 -6 7 -8 -6 -6 -9 -4
-6 -5 8 -7 -5 -5 -8 -3
-5 -4 8 -7 -5 -5 -8 -3
-4 -3 8 -7 -5 -5 -8 -3
-3 -2 8 -6 -4 -5 -8 -3
-2 0 8 -6 -4 -5 -8 -3
0 1 9 -5 -3 -4 -8 -4
0 0 9 -5 -3 -4 -8 -4
0 0 9 -5 -3 -4 -8 -4
-2 -2 9 -6 -4 -5 -8 -5
-2 -3 9 -6 -4 -5 -8 -5
-3 -4 8 -7 -5 -6 -9 -6
-4 -4 8 -7 -5 -6 -9 -6
-5 -4 8 -7 -5 -6 -9 -5
-6 -5 8 -6 -5 -6 -8 -5
-7 -5 8 -6 -5 -6 -8 -4
-8 -6 8 -5 -4 -6 -7 -3
-8 -5 8 -5 -4 -6 -7 -3
-8 -4 8 -5 -4 -6 -7 -3
-7 -3 9 -4 -4 -6 -7 -3
-7 0 9 -4 -4 -6 -7 -3
-6 1 10 -3 -3 -5 -7 -3
-6 1 10 -3 -3 -5 -7 -3
-6 1 10 -3 -3 -5 -7 -3
-6 0 11 -3 -2 -5 -7 -3
-6 0 11 -3 -2 -5 -7 -3
-5 -2 12 -3 0 -4 -6 -4
-5 -2 12 -3 0 -4 -6 -4
-6 -3 11 -3 -2 -5 -6 -4
-6 -3 11 -4 -2 -5 -7 -4
-7 -4 10 -4 -3 -6 -7 -4
-8 -5 9 -5 -4 -7 -8 -4
-8 -5 9 -5 -4 -7 -8 -4
-8 -5 9 -5 -4 -7 -8 -4
-8 -5 10 -4 -4 -7 -7 -4
-8 -5 10 -4 -4 -7 -7 -4
-7 -5 11 -3 -3 -6 -6 -4
-7 -5 11 -3 -3 -6 -6 -4
-8 -5 11 -3 -4 -6 -6 -4
-8 -5 10 -3 -4 -6 -6 -4
-9 -5 10 -3 -5 -6 -6 -4
-10 -5 9 -3 -6 -7 -7 -5
-10 -5 9 -3 -6 -7 -7 -5
-9 -5 9 -3 -6 -7 -7 -5
-9 -5 9 -3 -6 -7 -8 -6
-8 -5 9 -3 -6 -7 -8 -6
-7 -6 8 -4 -5 -8 -9 -7
-7 -6 8 -4 -5 -8 -9 -7
-7 -6 8 -4 -5 -8 -9 -7
-7 -6 8 -4 -5 -8 -9 -7
-7 -6 8 -4 -5 -8 -9 -7
-8 -6 9 -4 -5 -9 -8 -6
-8 -6 9 -4 -5 -9 -8 -6
-8 -6 9 -4 -5 -9 -8 -6
-8 -6 9 -5 -5 -9 -8 -6
-8 -6 9 -5 -5 -9 -8 -6
-7 -6 8 -6 -5 -10 -9 -7
-7 -5 8 -6 -5 -10 -9 -7
-6 -3 9 -6 -5 -10 -8 -7
-5 0 10 -6 -5 -9 -7 -7
-4 1 11 -6 -5 -9 -6 -7
-3 3 12 -7 -5 -8 -5 -6
-3 2 12 -7 -5 -8 -5 -6
-3 1 11 -7 -5 -9 -6 -6
-2 0 11 -7 -5 -9 -6 -6
-2 -2 10 -7 -5 -10 -7 -6
0 -3 9 -6 -4 -11 -8 -5
-2 -3 9 -6 -4 -11 -8 -5
-4 -4 9 -6 -4 -11 -8 -5
-6 -4 9 -6 -4 -11 -8 -5
-7 -5 9 -6 -4 -11 -8 -5
-9 -6 9 -7 -4 -10 -7 -4
-6 -5 9 -7 -4 -10 -7 -4
-4 -3 9 -7 -4 -10 -7 -5
0 0 8 -8 -4 -10 -7 -5
2 1 8 -8 -4 -10 -7 -6
5 3 7 -9 -5 -11 -8 -7
4 2 7 -9 -5 -11 -8 -7
2 0 7 -9 -5 -11 -8 -7
1 -3 7 -9 -5 -11 -8 -7
0 -4 7 -9 -5 -11 -8 -7
-3 -6 6 -9 -6 -11 -9 -8
-4 -6 6 -9 -6 -11 -9 -8
-6 -6 6 -9 -6 -11 -9 -7
-7 -6 6 -9 -6 -11 -8 -7
-8 -6 6 -9 -6 -11 -8 -6
-10 -6 6 -8 -6 -11 -7 -5
-10 -6 6 -8 -6 -11 -7 -5
-10 -6 6 -8 -6 -11 -7 -5
-10 -6 6 -9 -7 -11 -7 -5
-10 -6 6 -9 -7 -11 -7 -5
-9 -7 5 -10 -8 -11 -7 -5
-8 -7 5 -10 -8 -11 -7 -5
-7 -6 5 -10 -8 -11 -7 -5
-6 -6 5 -10 -8 -12 -7 -6
-5 -5 5 -10 -8 -12 -7 -6
-4 -4 6 -9 -9 -13 -8 -7
-4 -4 6 -9 -9 -13 -8 -7
-4 -3 6 -9 -9 -13 -8 -7
-4 -3 6 -9 -8 -12 -8 -7
-4 -2 6 -9 -8 -12 -8 -7
-4 0 6 -10 -7 -11 -8 -7
-4 0 6 -10 -7 -11 -8 -7
-4 0 6 -10 -7 -11 -8 -7
-5 -2 6 -10 -7 -11 -8 -7
-5 -2 6 -10 -7 -11 -8 -7
-6 -3 5 -9 -7 -12 -8 -7
-6 -3 5 -9 -7 -12 -8 -7
-6 -3 5 -10 -8 -12 -9 -7
-5 -3 4 -10 -9 -13 -9 -8
-5 -3 4 -11 -10 -13 -10 -8
-4 -2 3 -12 -11 -14 -11 -9
-4 -2 3 -12 -11 -14 -11 -9
-4 -2 3 -12 -11 -14 -11 -9
-4 0 3 -12 -11 -14 -11 -9
-4 0 3 -12 -11 -14 -11 -9
-4 1 4 -11 -10 -13 -10 -9
-4 1 4 -11 -10 -13 -10 -9
-4 1 4 -11 -10 -13 -10 -9
-4 0 4 -11 -10 -13 -10 -9
-4 0 4 -11 -10 -13 -10 -9
-5 -2 5 -10 -11 -14 -9 -9
-5 -2 5 -10 -11 -14 -9 -9
-5 -2 5 -10 -10 -13 -9 -9
-5 -2 5 -9 -10 -13 -9 -9
-5 -2 5 -9 -9 -12 -9 -9
-5 0 5 -8 -8 -11 -9 -8
-5 0 5 -8 -8 -11 -9 -8
-5 0 5 -8 -8 -11 -9 -8
-5 -2 4 -9 -9 -12 -9 -9
-5 -2 4 -9 -9 -12 -9 -9
-5 -3 3 -10 -10 -13 -10 -10
-6 -3 3 -10 -10 -13 -10 -10
-7 -4 3 -10 -11 -13 -11 -10
-8 -5 3 -10 -11 -13 -11 -10
-9 -6 3 -10 -12 -13 -12 -10
-10 -7 2 -10 -13 -14 -13 -10
-9 -6 2 -10 -13 -14 -13 -10
-8 -4 3 -9 -12 -13 -12 -9
-7 -2 4 -9 -12 -13 -11 -8
-5 0 5 -8 -11 -12 -10 -7
-4 2 6 -7 -10 -11 -9 -6
-4 2 6 -7 -10 -11 -9 -6
-4 2 6 -8 -10 -11 -9 -7
-4 1 5 -9 -11 -12 -9 -8
-4 1 5 -10 -11 -12 -9 -9
-4 0 4 -11 -12 -13 -10 -10
-4 0 4 -11 -12 -13 -10 -10
-4 0 4 -11 -12 -13 -10 -10
-3 1 4 -10 -12 -13 -10 -10
-3 1 4 -10 -12 -13 -10 -10
-2 2 5 -9 -11 -12 -9 -9
-3 2 5 -9 -11 -12 -9 -9
-4 1 5 -9 -11 -12 -9 -9
-5 1 4 -9 -11 -12 -9 -9
-6 0 4 -9 -11 -12 -9 -9
-7 -2 3 -10 -11 -12 -10 -8
-7 -2 3 -10 -11 -12 -10 -8
-7 -2 3 -10 -12 -12 -10 -8
-6 -2 3 -10 -12 -12 -10 -8
-6 -2 3 -10 -13 -12 -10 -8
-5 -3 3 -11 -14 -13 -11 -9
-5 -3 3 -11 -14 -13 -11 -9
-5 -2 3 -11 -13 -12 -11 -9
-4 0 4 -11 -12 -12 -11 -9
-4 1 4 -11 -11 -11 -11 -9
-3 2 5 -10 -10 -10 -10 -10
-3 2 5 -10 -10 -10 -10 -10
-3 1 4 -10 -11 -11 -10 -10
-3 1 4 -10 -11 -11 -10 -10
-3 0 3 -10 -12 -12 -10 -10
-4 -2 2 -11 -13 -13 -10 -10
-4 -2 2 -11 -13 -13 -10 -10
-4 -2 2 -11 -13 -13 -10 -10
-5 -3 2 -11 -13 -13 -10 -10
-5 -3 2 -11 -13 -13 -10 -10
-6 -4 2 -11 -13 -13 -11 -11
-6 -4 2 -11 -13 -12 -11 -11
-6 -3 2 -10 -12 -11 -10 -10
-6 -3 3 -10 -12 -10 -10 -10
-6 -2 3 -9 -11 -9 -9 -9
-5 0 4 -8 -10 -8 -8 -8
-5 0 4 -8 -10 -8 -8 -8
-5 0 4 -8 -10 -8 -8 -8
-5 0 5 -8 -10 -8 -8 -8
-5 0 5 -8 -10 -8 -8 -8
-6 -2 6 -7 -9 -8 -7 -9
-5 0 6 -7 -9 -8 -7 -8
-4 1 7 -6 -9 -7 -6 -7
-2 2 8 -6 -9 -6 -5 -6
0 3 9 -5 -9 -5 -4 -5
2 5 10 -4 -8 -4 -3 -4
3 7 10 -3 -7 -3 -3 -4
4 10 10 -2 -6 -2 -2 -4
5 12 11 0 -5 0 -2 -3
6 14 11 1 -4 1 0 -3
8 17 12 3 -3 2 1 -2
8 16 12 3 -3 2 1 -2
8 15 12 4 -2 2 1 -2
9 14 12 5 -2 3 1 -2
9 13 12 6 0 3 1 -2
10 11 11 7 1 4 1 0
10 11 10 7 1 4 1 0
10 11 9 7 1 4 1 0
11 10 7 7 2 4 1 0
11 10 6 7 2 4 1 0
12 9 4 8 3 5 1 1
12 9 3 6 1 4 1 1
12 9 2 3 -2 3 0 1
12 8 1 1 -4 1 0 1
12 8 0 -2 -7 0 -2 1
11 7 -2 -5 -9 -3 -3 0
11 6 -2 -6 -10 -4 -5 -2
11 5 -3 -7 -11 -5 -6 -3
10 4 -4 -9 -13 -7 -8 -5
10 3 -5 -10 -14 -8 -10 -6
9 1 -6 -12 -16 -10 -12 -8
8 0 -6 -12 -16 -10 -12 -8
7 -3 -6 -13 -17 -11 -12 -8
5 -4 -6 -13 -17 -11 -13 -9
4 -6 -6 -14 -18 -12 -13 -9
2 -8 -7 -15 -19 -13 -14 -10
2 -7 -6 -15 -19 -13 -14 -10
3 -5 -5 -14 -19 -12 -14 -10
3 -3 -4 -13 -18 -11 -13 -10
4 0 -3 -12 -18 -10 -13 -10
5 2 0 -11 -17 -9 -12 -9
2 0 0 -11 -17 -9 -12 -9
0 -3 -2 -11 -18 -10 -12 -9
-4 -5 -3 -11 -18 -11 -13 -10
-7 -7 -4 -11 -19 -12 -13 -10
-10 -9 -5 -12 -20 -13 -14 -11
-10 -9 -4 -12 -20 -13 -14 -11
-9 -8 -3 -12 -20 -13 -14 -11
-8 -7 -2 -12 -20 -13 -14 -11
-7 -6 0 -12 -20 -13 -14 -11
-6 -5 1 -13 -20 -13 -15 -11
-5 -5 1 -13 -20 -13 -15 -11
-4 -4 0 -13 -20 -13 -15 -11
-3 -4 0 -13 -20 -13 -15 -11
-2 -3 -2 -13 -20 -13 -15 -11
1 -2 -3 -13 -19 -13 -15 -12
1 -2 -3 -13 -19 -13 -15 -12
0 -2 -3 -13 -19 -13 -15 -12
-2 -2 -3 -13 -19 -13 -15 -12
-3 -2 -3 -13 -19 -13 -15 -12
-4 -2 -3 -13 -20 -13 -15 -11
-4 -2 -3 -13 -20 -13 -15 -11
-5 -3 -2 -13 -20 -13 -15 -11
-5 -4 -2 -13 -20 -14 -15 -11
-6 -5 0 -13 -20 -14 -15 -11
-7 -6 1 -12 -20 -15 -14 -10
-7 -7 4 -9 -19 -15 -16 -12
-8 -8 7 -6 -18 -16 -19 -15
-9 -9 10 -3 -17 -16 -22 -18
-10 -10 14 2 -16 -17 -24 -20
-11 -12 17 5 -14 -18 -27 -23
-7 -12 16 10 -8 -12 -24 -22
-3 -12 15 16 -2 -6 -20 -20
2 -11 14 21 6 2 -17 -18
7 -11 13 27 12 8 -14 -16
12 -9 10 32 18 15 -9 -13
31 8 -8 28 29 36 14 6
51 24 -26 24 40 58 35 23
69 40 -44 20 51 78 58 42
89 57 -61 15 62 100 80 60
108 73 -78 11 73 122 103 78
123 99 -91 23 95 152 132 105
139 125 -103 34 115 182 161 132
154 149 -115 47 137 212 191 158
170 175 -128 58 157 241 221 185
183 198 -140 66 175 268 247 211
167 185 -150 22 127 226 224 199
150 173 -159 -22 78 184 201 189
133 160 -169 -66 30 143 178 178
116 148 -179 -110 -19 101 155 167
100 135 -188 -152 -64 61 132 155
87 119 -177 -158 -78 37 107 134
73 103 -165 -164 -93 14 82 113
60 88 -154 -171 -107 -9 59 92
47 71 -143 -177 -121 -32 34 70
34 56 -132 -182 -135 -55 11 50
26 50 -116 -164 -123 -53 6 38
18 43 -101 -146 -111 -51 0 27
11 36 -87 -128 -100 -49 -6 16
3 30 -71 -109 -89 -47 -11 6
-6 23 -57 -92 -77 -44 -17 -6
-6 21 -49 -80 -70 -40 -17 -10
-6 18 -40 -70 -62 -37 -17 -14
-6 15 -32 -60 -55 -33 -18 -18
-6 12 -24 -49 -47 -30 -18 -23
-7 9 -16 -38 -39 -26 -19 -27
-7 7 -13 -33 -36 -25 -19 -29
-7 5 -10 -28 -33 -23 -19 -31
-7 2 -7 -23 -29 -21 -19 -33
-7 0 -4 -18 -26 -19 -19 -35
-8 -4 1 -13 -22 -17 -18 -37
-8 -4 1 -13 -22 -17 -18 -38
-8 -4 1 -13 -22 -17 -18 -40
-7 -4 1 -12 -22 -18 -18 -43
-7 -4 1 -12 -22 -18 -18 -45
-6 -5 2 -11 -22 -19 -18 -47
-6 -5 3 -11 -22 -19 -18 -48
-6 -5 4 -10 -21 -18 -18 -49
-6 -5 5 -9 -21 -18 -18 -50
-6 -5 6 -8 -20 -17 -18 -51
-6 -4 7 -7 -19 -16 -17 -52
-6 -4 7 -7 -19 -16 -17 -53
-7 -5 7 -7 -19 -16 -18 -54
-8 -6 8 -6 -18 -16 -18 -55
-9 -7 8 -6 -18 -16 -19 -56
-10 -8 9 -5 -17 -17 -20 -58
-10 -8 9 -5 -17 -17 -20 -59
-9 -8 9 -5 -17 -17 -20 -60
-8 -8 9 -5 -17 -17 -20 -61
-7 -8 9 -5 -17 -17 -20 -62
-6 -8 10 -4 -17 -16 -19 -64
-6 -9 10 -4 -17 -16 -19 -65
-7 -10 9 -5 -17 -16 -19 -66
-7 -11 9 -5 -18 -17 -20 -68
-8 -12 8 -6 -18 -17 -20 -69
-9 -14 7 -7 -19 -18 -21 -71
-9 -14 7 -7 -19 -18 -21 -71
-9 -14 7 -6 -19 -18 -21 -71
-10 -14 7 -6 -18 -18 -21 -72
-10 -14 7 -5 -18 -18 -21 -72
-11 -13 8 -4 -17 -17 -20 -73
-11 -13 8 -4 -17 -17 -20 -73
-11 -13 8 -4 -17 -17 -20 -72
-11 -12 8 -4 -17 -17 -20 -72
-11 -12 8 -4 -17 -17 -20 -71
-11 -11 9 -3 -17 -16 -20 -70
-11 -11 9 -3 -17 -16 -20 -70
-10 -11 9 -2 -17 -16 -20 -70
-10 -11 10 0 -17 -16 -20 -70
-9 -11 10 1 -17 -16 -20 -70
-8 -12 11 2 -16 -17 -20 -71
-8 -12 11 2 -16 -17 -20 -71
-8 -12 10 2 -16 -17 -20 -71
-7 -13 9 2 -16 -17 -21 -71
-7 -13 8 2 -16 -17 -21 -71
-6 -14 7 2 -15 -18 -22 -70
-6 -14 7 2 -15 -18 -22 -70
-6 -15 7 2 -15 -18 -22 -71
-7 -15 7 2 -15 -18 -23 -71
-7 -16 7 2 -15 -18 -23 -72
-8 -17 7 1 -15 -18 -24 -73
-8 -17 7 1 -15 -18 -24 -73
-8 -18 7 1 -15 -18 -24 -73
-7 -18 7 1 -16 -18 -24 -74
-7 -19 7 1 -16 -18 -24 -74
-6 -20 7 0 -17 -19 -25 -75
-5 -20 7 1 -16 -18 -25 -75
-4 -20 7 2 -15 -17 -24 -74
-3 -20 7 4 -14 -16 -23 -74
-2 -20 7 5 -13 -15 -22 -73
0 -19 8 7 -12 -14 -21 -72
0 -19 8 7 -12 -14 -21 -72
0 -19 8 7 -12 -14 -22 -72
0 -20 8 8 -12 -15 -22 -72
0 -20 8 8 -12 -15 -23 -72
0 -20 8 8 -12 -15 -23 -72
1 -21 8 9 -11 -16 -24 -73
1 -21 8 9 -10 -16 -24 -73
1 -22 8 10 -10 -15 -24 -73
1 -22 8 10 -9 -15 -24 -73
1 -22 8 10 -9 -15 -24 -73
2 -23 8 12 -8 -14 -23 -73
3 -23 8 13 -7 -14 -23 -73
4 -23 7 15 -7 -13 -23 -74
5 -23 7 16 -6 -13 -23 -74
6 -23 7 17 -6 -13 -23 -74
8 -24 6 20 -3 -10 -23 -74
10 -24 6 22 1 -8 -21 -73
12 -23 6 25 4 -6 -19 -72
14 -23 6 27 7 -4 -17 -71
15 -23 6 29 9 -2 -16 -70
16 -22 6 32 12 1 -14 -69
16 -21 7 34 14 3 -13 -68
16 -20 8 37 16 5 -11 -67
16 -19 9 39 18 7 -10 -66
16 -18 10 42 20 9 -9 -65
18 -17 11 44 22 11 -8 -64
19 -17 11 45 24 13 -7 -63
20 -17 11 47 25 14 -6 -63
21 -17 11 48 27 16 -5 -62
22 -17 11 49 28 17 -4 -62
23 -17 11 51 31 19 -2 -60
24 -15 11 53 33 21 0 -58
25 -14 11 55 35 23 2 -57
26 -12 11 57 37 25 3 -55
27 -11 11 58 39 26 4 -54
28 -10 12 60 42 29 7 -51
28 -10 12 61 44 31 9 -49
28 -9 12 63 46 34 12 -47
28 -9 12 64 48 36 14 -45
28 -9 12 65 50 38 16 -43
29 -5 12 66 52 40 19 -39
30 -2 12 67 53 43 21 -37
31 2 12 68 54 45 23 -34
32 5 12 69 55 47 25 -32
32 8 12 69 56 48 27 -30
33 10 13 70 57 49 28 -28
33 12 13 69 57 49 28 -27
33 14 14 68 57 49 28 -25
33 16 14 67 57 49 28 -24
33 18 14 67 57 49 28 -23
31 19 15 64 54 48 29 -22
29 19 15 61 51 46 28 -22
27 19 15 58 49 43 28 -22
25 19 15 55 46 40 27 -22
23 19 15 52 44 38 27 -22
21 18 15 48 39 35 25 -22
19 16 14 45 36 32 23 -23
17 14 14 40 33 29 21 -24
15 12 13 37 30 26 19 -25
13 11 13 34 27 24 18 -26
12 10 12 31 24 21 16 -27
11 10 12 28 22 19 15 -27
10 11 12 25 19 16 14 -28
9 11 12 22 17 14 13 -28
9 11 12 20 15 12 12 -28
7 11 13 18 13 10 10 -29
6 9 12 16 11 8 8 -30
4 8 11 14 9 7 6 -31
3 6 10 12 7 5 4 -32
2 5 10 10 6 4 2 -33
1 4 9 8 4 2 1 -34
2 4 9 6 2 0 1 -34
2 4 9 5 1 -2 0 -34
3 4 9 3 -2 -4 0 -34
3 4 9 2 -3 -5 0 -34
4 5 8 1 -4 -6 -2 -34
4 5 8 1 -4 -6 -3 -35
3 4 7 1 -4 -6 -3 -35
3 4 7 1 -4 -6 -4 -36
3 4 7 1 -4 -6 -4 -36
2 3 6 0 -5 -7 -5 -37
2 3 6 0 -6 -8 -5 -37
2 2 6 -2 -7 -8 -6 -37
2 2 6 -2 -8 -9 -6 -37
2 2 6 -2 -8 -9 -6 -37
1 1 7 -3 -9 -10 -7 -36
0 0 7 -4 -9 -10 -7 -36
-2 0 7 -4 -9 -10 -7 -36
-3 -2 7 -5 -9 -10 -7 -36
-3 -2 7 -5 -9 -10 -7 -36
-4 -3 7 -6 -10 -11 -8 -36
-4 -3 6 -6 -10 -11 -8 -36
-5 -3 6 -7 -10 -11 -8 -36
-5 -3 5 -7 -10 -11 -8 -36
-5 -3 5 -7 -10 -11 -8 -36
-5 -2 4 -8 -11 -11 -8 -37
-4 1 4 -7 -11 -10 -7 -36
-2 2 5 -7 -10 -10 -7 -35
0 4 5 -6 -10 -9 -6 -34
1 5 5 -6 -10 -9 -6 -34
2 6 6 -5 -9 -8 -5 -33
2 5 6 -5 -9 -9 -6 -33
2 4 6 -6 -10 -10 -7 -33
2 3 6 -6 -10 -11 -8 -33
2 3 6 -6 -10 -11 -8 -33
1 2 6 -7 -11 -12 -9 -33
1 2 7 -6 -11 -12 -9 -33
0 2 7 -6 -10 -11 -9 -33
0 2 8 -5 -10 -11 -9 -33
0 2 8 -5 -10 -11 -9 -33
-2 2 9 -4 -9 -10 -8 -33
-3 2 9 -4 -9 -11 -8 -33
-4 2 8 -4 -9 -11 -9 -33
-5 2 8 -4 -9 -12 -9 -33
-6 2 8 -4 -9 -12 -9 -33
-7 3 7 -5 -10 -13 -10 -32
-6 3 7 -5 -10 -13 -10 -32
-5 3 7 -5 -10 -13 -10 -32
-4 3 7 -5 -10 -13 -10 -32
-3 3 7 -5 -10 -13 -10 -32
-2 2 8 -5 -10 -12 -9 -31
-2 2 8 -5 -10 -12 -9 -31
-2 2 8 -5 -10 -12 -9 -31
-2 2 8 -5 -10 -12 -9 -31
-2 2 8 -5 -10 -12 -9 -31
-3 1 9 -4 -10 -11 -8 -30
-3 2 9 -3 -10 -10 -8 -30
-3 3 9 -3 -9 -10 -7 -29
-3 4 9 -2 -9 -9 -7 -29
-3 4 9 -2 -9 -9 -7 -29
-3 5 8 0 -8 -8 -6 -28
-2 5 9 0 -8 -8 -6 -28
0 5 9 0 -7 -8 -6 -28
1 5 10 0 -7 -8 -6 -28
1 5 10 0 -7 -8 -6 -28
1 5 11 -2 -6 -9 -7 -28
0 4 11 0 -6 -9 -7 -28
-3 3 11 0 -6 -9 -7 -28
-4 2 11 1 -6 -9 -7 -28
-5 1 11 1 -6 -9 -7 -28
-6 0 11 2 -7 -10 -7 -28
-6 0 10 1 -7 -10 -7 -27
-6 0 10 0 -7 -10 -6 -27
-6 0 9 -2 -7 -10 -6 -26
-6 0 9 -3 -7 -10 -6 -26
-6 0 8 -4 -7 -11 -5 -25
-6 0 8 -3 -7 -11 -5 -25
-5 0 8 -3 -7 -11 -6 -26
-5 0 8 -2 -7 -11 -6 -26
-5 0 8 -2 -7 -11 -6 -26
-4 1 8 0 -8 -11 -7 -27
-4 2 9 0 -8 -11 -7 -26
-3 3 9 0 -8 -10 -6 -26
-3 4 10 0 -8 -10 -6 -25
-3 5 10 0 -8 -10 -6 -25
-2 6 11 -2 -7 -9 -5 -24
-2 6 11 -2 -7 -9 -5 -24
-2 6 10 -2 -7 -9 -5 -24
-2 6 10 -2 -7 -9 -5 -24
-2 6 10 -2 -7 -9 -5 -24
-3 5 9 0 -7 -9 -6 -24
-2 4 9 0 -7 -9 -6 -24
0 4 9 0 -7 -9 -6 -24
1 3 9 0 -7 -9 -6 -24
2 3 9 0 -7 -9 -6 -24
3 2 9 -2 -7 -10 -6 -23
3 2 8 -2 -7 -11 -6 -23
2 3 8 -2 -8 -11 -6 -23
2 3 7 -2 -8 -12 -6 -23
2 3 7 -2 -8 -12 -6 -23
1 4 6 -3 -9 -13 -7 -22
0 4 6 -3 -9 -13 -7 -22
-2 4 6 -3 -9 -13 -7 -22
-3 4 6 -3 -9 -13 -7 -22
-3 4 6 -3 -9 -13 -7 -22
-4 5 7 -4 -8 -12 -6 -21
-4 4 7 -4 -8 -12 -6 -21
-4 4 7 -4 -8 -12 -7 -21
-4 3 7 -4 -8 -12 -7 -21
-4 3 7 -4 -8 -12 -7 -21
-3 2 7 -4 -9 -12 -8 -21
-3 2 7 -4 -10 -12 -8 -21
-3 2 7 -4 -10 -13 -8 -20
-3 2 7 -4 -11 -13 -8 -20
-3 2 7 -4 -11 -13 -8 -20
-2 2 7 -5 -12 -14 -8 -19
-3 2 7 -5 -12 -14 -8 -19
-4 1 7 -5 -12 -13 -8 -19
-5 1 7 -5 -12 -13 -8 -19
-5 1 7 -5 -12 -13 -8 -19
-6 0 7 -6 -11 -12 -7 -19
-6 0 7 -6 -11 -13 -7 -18
-5 0 7 -6 -11 -13 -7 -18
-5 0 7 -6 -11 -14 -7 -17
-5 0 7 -6 -11 -14 -7 -17
-4 -2 8 -6 -10 -15 -6 -16
-3 0 8 -6 -10 -15 -7 -16
-2 1 8 -7 -11 -15 -7 -17
0 2 8 -7 -11 -15 -8 -17
0 2 8 -7 -11 -15 -8 -17
1 3 8 -8 -12 -15 -9 -18
1 3 8 -8 -12 -15 -9 -18
1 3 7 -7 -12 -15 -8 -18
1 3 7 -7 -12 -15 -8 -18
1 3 7 -7 -12 -15 -8 -18
0 2 6 -6 -11 -14 -7 -17
-2 2 6 -6 -11 -14 -7 -17
-3 1 6 -6 -11 -14 -7 -17
-4 1 6 -6 -11 -14 -7 -17
-4 1 6 -6 -11 -14 -7 -17
-5 0 6 -6 -12 -14 -7 -16
-4 0 6 -6 -12 -14 -7 -15
-4 1 6 -5 -12 -14 -7 -15
-3 1 6 -5 -12 -14 -7 -14
-3 1 6 -5 -12 -14 -7 -14
-2 2 7 -4 -11 -13 -6 -13
-2 2 7 -4 -11 -13 -6 -13
0 2 7 -4 -11 -13 -7 -14
0 2 7 -4 -11 -13 -7 -14
0 2 7 -4 -11 -13 -7 -14
1 3 6 -5 -11 -14 -8 -15
0 2 6 -5 -11 -15 -8 -14
-2 2 6 -6 -11 -15 -8 -13
-3 1 6 -6 -11 -16 -8 -12
-4 1 6 -6 -11 -16 -8 -12
-4 0 5 -7 -12 -17 -8 -11
0 1 5 -7 -12 -17 -8 -11
2 2 6 -7 -13 -17 -8 -11
5 3 6 -7 -13 -17 -8 -11
7 3 6 -7 -13 -17 -8 -11
7 4 7 -7 -14 -16 -7 -12
5 4 7 -7 -14 -16 -8 -12
3 3 7 -7 -14 -16 -8 -12
1 3 7 -7 -14 -16 -9 -12
-2 3 7 -7 -14 -16 -9 -12
-3 2 7 -7 -14 -15 -10 -12
-3 2 7 -7 -14 -15 -10 -12
-3 2 6 -7 -14 -15 -10 -12
-3 2 6 -7 -14 -15 -10 -12
-3 2 6 -7 -14 -15 -10 -12
-3 3 5 -7 -13 -15 -10 -13
-3 3 5 -6 -13 -15 -9 -12
-3 4 5 -5 -12 -15 -8 -11
-3 4 5 -4 -12 -15 -7 -10
-3 4 5 -4 -12 -15 -7 -9
-4 5 6 -3 -11 -15 -6 -8
-4 4 6 -3 -11 -15 -6 -8
-4 4 6 -4 -11 -15 -6 -8
-4 3 6 -4 -11 -15 -6 -8
-4 3 6 -4 -11 -15 -6 -8
-4 2 5 -5 -12 -15 -7 -9
-4 3 5 -5 -12 -15 -6 -9
-4 3 5 -5 -12 -15 -6 -8
-4 4 5 -5 -12 -15 -5 -8
-4 4 5 -5 -12 -15 -5 -8
-5 5 6 -4 -11 -14 -4 -7
-4 4 6 -5 -11 -14 -5 -8
-3 4 6 -5 -11 -15 -6 -8
-2 3 6 -6 -11 -15 -7 -9
0 3 6 -6 -11 -15 -8 -9
1 2 5 -7 -12 -16 -9 -10
1 2 5 -7 -12 -16 -9 -10
0 2 5 -7 -12 -16 -9 -10
0 2 5 -7 -12 -16 -9 -10
0 2 5 -7 -12 -16 -9 -10
-2 2 5 -7 -12 -16 -8 -10
0 3 5 -7 -12 -16 -7 -10
0 3 5 -7 -12 -16 -6 -9
1 4 5 -7 -12 -16 -5 -9
1 4 5 -7 -12 -16 -5 -9
2 5 5 -7 -11 -17 -4 -8
1 5 5 -7 -11 -17 -4 -7
0 5 6 -6 -11 -17 -4 -7
-2 5 6 -6 -11 -17 -4 -6
-3 5 6 -6 -11 -17 -4 -6
-4 5 7 -5 -10 -16 -5 -5
-4 6 7 -5 -10 -16 -6 -5
-4 6 7 -6 -11 -16 -6 -6
-4 7 7 -6 -11 -16 -7 -6
-4 7 7 -6 -11 -16 -7 -6
-3 9 7 -6 -11 -16 -7 -7
-2 11 8 -5 -10 -14 -6 -5
0 13 9 -4 -9 -13 -5 -4
2 15 10 -2 -7 -12 -3 -3
3 17 11 0 -6 -11 -2 -2
4 18 12 1 -5 -10 0 0
4 17 12 2 -4 -9 1 2
4 16 12 3 -3 -8 2 3
4 15 12 4 -2 -7 3 4
4 15 12 4 0 -7 4 5
5 14 11 5 1 -6 5 6
5 14 11 5 1 -6 5 6
5 15 12 6 1 -6 5 6
5 15 12 6 1 -6 5 6
5 15 12 6 1 -6 5 6
6 15 12 7 2 -6 5 6
6 14 11 7 3 -6 5 6
6 13 9 8 3 -5 5 6
6 11 7 8 4 -5 5 6
6 10 6 8 4 -5 5 6
7 9 5 8 4 -5 6 6
9 10 4 6 3 -6 5 6
12 11 3 3 2 -7 4 5
14 12 2 1 0 -9 3 5
16 12 2 -2 -2 -10 2 5
17 12 1 -3 -4 -11 1 4
16 11 1 -4 -6 -12 0 3
15 10 0 -5 -8 -13 -2 2
14 8 0 -6 -10 -14 -3 1
13 7 0 -7 -12 -15 -3 1
11 6 -2 -8 -13 -16 -4 0
9 6 0 -8 -13 -16 -4 0
8 5 1 -8 -13 -16 -4 1
6 5 2 -8 -13 -16 -4 1
4 5 2 -8 -13 -16 -4 1
3 4 3 -7 -13 -17 -4 2
3 3 3 -7 -14 -18 -5 1
3 2 3 -8 -15 -19 -6 0
3 2 3 -8 -15 -19 -6 0
3 1 3 -8 -16 -20 -7 -2
2 0 2 -9 -17 -21 -8 -3
2 0 2 -9 -17 -21 -8 -3
2 0 2 -9 -17 -21 -8 -4
2 0 2 -9 -17 -21 -8 -4
2 0 2 -9 -17 -21 -8 -4
2 1 2 -10 -16 -20 -9 -5
1 0 2 -10 -16 -20 -9 -5
0 -2 2 -10 -16 -20 -10 -5
-2 -2 2 -10 -16 -20 -10 -5
-3 -3 2 -10 -16 -20 -10 -5
-4 -4 2 -11 -17 -20 -11 -4
-5 -4 2 -11 -17 -21 -11 -4
-6 -4 2 -11 -17 -21 -11 -4
-6 -4 2 -11 -17 -22 -11 -4
-7 -4 2 -11 -17 -22 -11 -4
-8 -4 3 -11 -17 -23 -10 -5
-7 -4 3 -10 -16 -22 -9 -4
-6 -4 3 -10 -15 -21 -8 -4
-6 -4 3 -9 -15 -20 -8 -3
-5 -4 3 -9 -14 -19 -7 -3
-4 -3 4 -8 -13 -18 -6 -2
-4 -2 4 -8 -13 -19 -7 -3
-4 0 4 -8 -14 -20 -8 -4
-4 0 4 -8 -14 -20 -8 -4
-4 1 4 -8 -14 -21 -9 -5
-5 2 7 -6 -14 -22 -11 -7
-6 0 11 -2 -13 -23 -13 -9
-7 -2 14 2 -11 -23 -15 -11
-7 -3 18 6 -10 -24 -17 -14
-8 -4 22 10 -8 -24 -19 -16
-6 -5 22 15 -3 -20 -18 -16
-2 -7 19 20 5 -13 -14 -14
3 -8 17 26 12 -6 -10 -12
8 -9 15 31 19 2 -6 -10
12 -10 12 37 26 9 -3 -8
26 3 0 39 37 29 18 8
44 22 -17 37 51 55 45 29
62 42 -32 36 64 81 71 50
79 61 -49 35 78 108 97 71
98 80 -65 34 92 134 123 93
110 104 -77 39 112 165 153 118
122 130 -90 48 136 198 185 146
134 155 -101 57 158 232 217 174
145 181 -112 65 182 266 248 201
156 206 -123 74 205 299 280 230
150 205 -134 44 174 273 270 230
136 191 -143 -4 117 223 241 217
120 178 -151 -52 62 172 213 204
105 163 -160 -100 6 121 184 192
91 149 -170 -148 -50 70 155 179
75 131 -166 -166 -77 37 127 159
61 110 -157 -172 -93 11 99 136
47 90 -148 -178 -108 -15 70 112
31 69 -139 -184 -122 -41 43 90
17 49 -130 -190 -138 -67 15 66
10 40 -117 -180 -135 -73 3 53
7 38 -103 -160 -123 -70 -3 44
3 36 -89 -142 -112 -67 -8 33
0 34 -74 -122 -100 -64 -13 24
-4 32 -61 -104 -89 -61 -18 14
-6 28 -51 -90 -78 -57 -20 10
-8 24 -43 -78 -69 -51 -19 7
-9 19 -34 -66 -59 -46 -19 5
-11 14 -26 -55 -50 -40 -18 3
-12 10 -18 -43 -39 -34 -18 0
-12 8 -13 -35 -34 -31 -17 -2
-9 8 -9 -30 -30 -28 -15 -2
-7 8 -6 -25 -26 -25 -14 -2
-5 8 -2 -20 -22 -23 -13 -2
-2 8 2 -15 -18 -20 -12 -2
0 8 4 -13 -16 -19 -11 -2
-2 6 4 -13 -16 -20 -13 -4
-3 5 4 -13 -17 -21 -14 -5
-4 4 4 -13 -17 -21 -15 -6
-5 3 4 -13 -17 -22 -16 -7
-6 2 4 -12 -18 -23 -17 -8
-5 2 5 -11 -16 -21 -15 -7
-4 2 6 -9 -15 -20 -14 -6
-4 2 7 -8 -14 -18 -13 -6
-3 2 8 -6 -13 -17 -12 -5
-2 2 9 -5 -12 -16 -11 -4
-3 1 9 -5 -12 -16 -12 -5
-4 1 9 -5 -12 -17 -12 -6
-4 0 9 -5 -12 -17 -13 -7
-5 0 9 -5 -12 -17 -13 -8
-6 -2 10 -5 -13 -18 -14 -9
-6 -2 10 -4 -13 -18 -14 -9
-7 -3 10 -4 -13 -17 -14 -10
-7 -3 10 -3 -13 -17 -14 -10
-7 -3 10 -3 -13 -17 -14 -10
-8 -4 10 -2 -13 -16 -14 -11
-8 -4 10 -2 -13 -16 -14 -11
-8 -5 10 -3 -13 -16 -14 -11
-8 -5 10 -3 -13 -16 -14 -11
-8 -5 10 -3 -13 -16 -14 -11
-7 -6 9 -4 -13 -17 -15 -11
-7 -6 9 -4 -13 -17 -15 -11
-6 -6 10 -4 -13 -17 -15 -11
-6 -6 10 -4 -13 -17 -15 -11
-6 -6 10 -4 -13 -17 -15 -11
-5 -5 11 -3 -12 -16 -14 -10
-5 -5 11 -3 -12 -16 -15 -10
-5 -6 10 -4 -13 -17 -16 -11
-5 -7 10 -4 -13 -18 -16 -12
-5 -7 10 -4 -13 -18 -17 -12
-6 -8 9 -5 -14 -19 -18 -13
-6 -8 9 -4 -14 -18 -17 -12
-6 -8 8 -3 -13 -17 -16 -11
-6 -8 8 -2 -12 -17 -16 -11
-6 -8 8 0 -12 -16 -15 -10
-7 -7 7 1 -11 -15 -14 -9
-7 -7 7 1 -11 -15 -14 -10
-6 -8 7 1 -11 -16 -15 -11
-6 -8 7 1 -11 -17 -15 -12
-6 -8 7 1 -11 -17 -15 -13
-5 -9 7 0 -12 -18 -16 -14
-5 -10 7 0 -12 -18 -16 -14
-6 -12 7 0 -12 -19 -17 -15
-6 -13 7 0 -12 -19 -18 -15
-6 -14 7 0 -12 -19 -18 -15
-7 -15 7 0 -12 -20 -19 -16
-6 -14 7 1 -12 -20 -19 -16
-4 -13 8 2 -11 -19 -18 -16
-3 -13 8 2 -10 -19 -17 -16
-2 -12 8 3 -10 -19 -17 -16
0 -12 9 4 -9 -18 -16 -15
-2 -13 9 4 -9 -18 -16 -15
-4 -15 8 4 -9 -18 -17 -16
-5 -17 7 4 -9 -18 -17 -17
-6 -19 7 4 -9 -18 -17 -17
-6 -20 6 5 -8 -17 -18 -18
-5 -19 6 6 -8 -17 -18 -18
-3 -17 6 7 -7 -17 -18 -18
0 -16 6 8 -6 -17 -18 -18
2 -15 6 9 -6 -17 -18 -18
3 -14 7 11 -5 -16 -19 -19
4 -14 7 12 -4 -14 -19 -19
6 -15 7 14 -3 -13 -18 -19
7 -15 7 15 -2 -11 -17 -19
8 -15 7 17 0 -10 -17 -19
9 -17 7 18 1 -9 -16 -18
9 -18 7 20 2 -9 -16 -19
9 -20 6 21 3 -9 -17 -20
9 -22 6 23 4 -9 -17 -20
9 -24 6 24 5 -9 -17 -21
9 -25 5 26 7 -7 -17 -22
9 -23 5 28 10 -4 -15 -20
10 -22 6 31 13 0 -13 -19
11 -20 6 33 16 3 -11 -17
11 -19 6 36 18 5 -9 -16
12 -18 7 38 21 8 -8 -15
13 -18 7 40 24 10 -7 -15
15 -17 7 44 26 12 -5 -14
16 -16 7 46 29 14 -4 -13
17 -16 7 49 32 17 -3 -13
19 -15 7 51 34 18 -2 -12
21 -14 7 52 35 20 1 -12
23 -13 7 54 37 22 2 -12
25 -13 7 56 39 23 4 -12
28 -12 7 58 42 25 5 -12
29 -11 8 59 44 27 7 -10
29 -11 8 61 46 29 8 -8
28 -10 8 63 48 31 10 -6
28 -9 8 64 50 33 12 -4
28 -9 8 66 52 35 14 -2
27 -7 8 67 53 37 16 0
27 -5 8 68 55 39 17 2
27 -2 8 70 56 42 19 4
27 1 8 71 58 44 21 5
27 4 8 72 59 47 23 7
28 6 8 73 60 49 25 8
30 9 8 73 61 50 27 10
32 11 9 74 63 52 29 12
33 14 9 74 64 54 31 13
35 16 9 74 65 56 34 15
36 19 10 75 66 57 35 16
36 21 10 74 65 57 35 17
35 23 11 72 64 56 35 19
35 25 12 71 63 55 35 20
35 27 12 70 62 55 35 21
33 28 13 67 60 53 36 22
32 28 13 64 56 51 36 22
30 27 12 61 53 48 35 22
28 27 12 57 50 46 34 22
26 27 12 54 47 43 34 22
24 26 11 50 43 40 32 21
22 24 11 47 39 36 29 21
19 23 11 43 36 33 27 20
17 21 11 39 32 30 24 19
14 20 11 35 29 27 22 19
13 19 10 32 26 24 19 17
12 18 10 30 24 22 18 16
10 17 9 28 21 20 16 14
9 17 8 26 19 18 14 12
8 16 8 23 16 15 12 10
7 15 7 22 15 14 11 9
7 15 7 21 13 12 10 9
8 15 7 20 11 11 9 9
8 15 7 19 10 9 8 9
8 15 7 18 8 8 7 9
8 15 8 16 7 6 6 8
5 13 8 14 5 5 4 8
2 11 7 12 4 3 2 7
-2 9 7 10 2 1 1 6
-5 7 7 8 1 -2 -2 6
-7 6 6 7 0 -3 -3 5
-7 5 6 6 0 -3 -3 4
-6 4 5 5 -2 -3 -3 3
-6 4 5 5 -3 -3 -3 2
-6 3 5 4 -3 -3 -3 1
-5 2 4 3 -4 -4 -4 0
-4 4 4 3 -4 -4 -4 0
-2 5 5 2 -5 -4 -4 1
0 7 5 2 -5 -4 -4 1
1 8 5 2 -5 -4 -4 1
2 9 6 1 -6 -5 -3 2
2 9 6 1 -6 -5 -3 2
2 8 5 1 -6 -6 -4 2
2 8 5 1 -6 -7 -5 2
2 8 5 1 -6 -7 -5 2
1 7 4 0 -7 -8 -6 1
1 7 4 0 -7 -8 -6 1
0 7 4 0 -7 -8 -5 1
0 7 4 0 -7 -8 -5 1
0 7 4 0 -7 -8 -5 1
-2 7 5 0 -7 -7 -4 2
-2 7 5 0 -7 -7 -4 2
-2 6 4 0 -8 -8 -5 1
-2 6 3 0 -8 -8 -5 1
-2 6 3 0 -8 -8 -5 1
-2 5 2 -2 -9 -9 -6 0
-4 3 2 -2 -9 -9 -6 0
-5 1 2 -3 -10 -10 -7 -2
-6 0 2 -4 -10 -11 -8 -3
-8 -3 2 -4 -10 -11 -8 -3
-8 -3 2 -5 -11 -12 -9 -4
-6 0 2 -4 -10 -11 -8 -3
-4 2 3 -3 -9 -10 -7 -2
-2 4 4 -2 -8 -9 -7 0
1 6 4 0 -7 -8 -6 1
2 7 5 1 -6 -7 -5 2
1 7 5 1 -6 -7 -5 2
0 7 5 1 -7 -8 -6 1
0 7 5 1 -7 -9 -7 0
-2 7 5 1 -7 -9 -7 0
-3 7 6 1 -8 -10 -8 -2
-4 6 6 1 -8 -10 -8 -2
-5 5 6 1 -7 -9 -7 0
-5 4 6 1 -6 -8 -6 0
-6 3 6 1 -6 -8 -6 0
-7 2 7 1 -5 -7 -5 1
-6 2 7 1 -5 -7 -5 1
-5 2 7 2 -5 -7 -5 1
-5 2 7 2 -5 -7 -5 1
-4 2 7 2 -5 -7 -5 1
-3 3 7 3 -6 -8 -6 1
-3 3 7 3 -6 -8 -6 1
-3 3 7 3 -6 -8 -6 1
-3 3 7 3 -6 -8 -6 1
-3 3 7 3 -6 -8 -6 1
-2 4 7 2 -6 -9 -7 1
-2 3 7 2 -6 -9 -7 1
-2 1 7 2 -6 -9 -7 1
-2 0 7 2 -6 -9 -7 1
-2 -2 7 2 -6 -9 -7 1
-3 -3 6 2 -5 -10 -6 0
-3 0 6 2 -5 -9 -6 0
-4 2 6 3 -4 -8 -6 1
-4 4 6 4 -4 -8 -6 1
-4 6 6 4 -4 -7 -6 1
-5 7 7 5 -3 -6 -7 2
-5 7 7 5 -3 -6 -7 2
-4 6 7 5 -3 -7 -6 2
-4 5 7 5 -3 -7 -6 2
-4 5 7 5 -3 -7 -6 2
-3 4 8 5 -4 -8 -5 3
-3 4 8 5 -4 -8 -5 3
-3 4 8 5 -3 -8 -4 3
-3 4 8 5 -2 -8 -4 3
-3 4 8 5 -2 -8 -4 3
-3 5 9 5 0 -7 -3 3
-4 3 8 4 -2 -7 -4 2
-5 1 7 3 -3 -7 -5 1
-6 0 7 3 -4 -7 -5 1
-7 -3 6 2 -5 -7 -6 0
-8 -4 5 1 -6 -8 -7 -2
-7 -2 5 2 -5 -8 -7 -2
-5 1 6 3 -4 -8 -6 0
-4 2 6 3 -4 -8 -6 0
-3 4 6 4 -3 -8 -6 0
-2 5 7 5 -2 -7 -5 1
-2 5 7 5 -2 -7 -5 1
-2 5 7 4 -3 -8 -6 1
-2 5 7 3 -3 -8 -6 1
-2 5 7 3 -3 -8 -6 1
-2 6 8 2 -4 -9 -7 0
-4 5 8 2 -4 -9 -7 0
-6 3 8 2 -4 -9 -7 1
-8 2 8 2 -4 -9 -7 1
-10 1 8 2 -4 -9 -7 1
-11 0 7 1 -4 -9 -6 2
-10 0 7 1 -4 -9 -6 2
-9 -2 7 0 -4 -9 -6 2
-8 -2 7 0 -4 -9 -6 2
-7 -2 7 0 -4 -9 -6 2
-6 -3 6 -2 -4 -10 -6 3
-6 -2 6 -2 -4 -10 -6 3
-5 0 6 0 -3 -10 -6 3
-4 0 6 0 -3 -10 -6 3
-4 1 6 0 -3 -10 -6 3
-3 2 7 1 -2 -9 -6 3
-3 2 7 1 -2 -9 -6 3
-3 2 7 1 -3 -9 -6 3
-3 2 6 1 -4 -10 -6 3
-3 2 6 1 -4 -10 -6 3
-2 3 5 0 -5 -11 -7 3
-2 3 5 0 -5 -11 -7 3
-3 2 5 0 -5 -11 -7 3
-4 1 5 0 -6 -10 -7 3
-4 1 5 0 -6 -10 -7 3
-5 0 6 0 -7 -9 -7 2
-5 0 6 -2 -7 -9 -7 2
-5 0 6 -2 -7 -10 -7 2
-4 0 6 -3 -7 -11 -8 1
-4 0 6 -4 -7 -11 -8 1
-3 0 6 -5 -8 -12 -9 0
-5 0 6 -5 -8 -12 -9 0
-6 0 6 -4 -7 -11 -9 1
-8 0 6 -3 -6 -10 -8 2
-10 0 6 -3 -6 -10 -8 2
-11 0 6 -2 -5 -9 -7 3
-11 0 6 -2 -5 -9 -7 3
-11 0 5 -2 -5 -9 -7 3
-11 -2 4 -3 -6 -9 -7 3
-11 -2 4 -3 -6 -9 -7 3
-11 -3 3 -4 -7 -10 -8 2
-10 -3 3 -4 -7 -10 -8 2
-10 -2 3 -4 -7 -10 -8 2
-9 0 4 -4 -7 -10 -8 2
-8 0 4 -4 -7 -10 -8 2
-7 1 5 -5 -6 -10 -7 1
-7 1 5 -5 -6 -10 -7 1
-6 2 5 -5 -6 -10 -7 1
-5 3 6 -4 -5 -9 -7 1
-5 3 6 -4 -5 -9 -7 1
-4 4 7 -3 -4 -8 -6 2
-4 3 7 -3 -4 -8 -6 2
-5 3 7 -3 -4 -8 -7 1
-6 2 6 -3 -5 -8 -8 0
-6 1 6 -3 -5 -8 -8 0
-7 0 5 -4 -6 -9 -9 -2
-7 0 5 -4 -6 -9 -9 0
-7 0 5 -4 -6 -9 -9 0
-7 0 5 -4 -6 -9 -9 1
-7 0 5 -4 -6 -9 -9 2
-7 -2 4 -5 -6 -10 -8 3
-7 -2 4 -5 -6 -9 -8 3
-7 -2 4 -5 -6 -8 -8 3
-7 -2 4 -5 -6 -7 -7 3
-7 -2 4 -5 -6 -6 -7 3
-7 -2 5 -5 -6 -5 -6 2
-7 -2 5 -5 -6 -6 -6 2
-7 -2 5 -5 -7 -7 -7 2
-7 -2 5 -5 -8 -9 -8 2
-7 -2 5 -5 -8 -10 -8 2
-7 0 4 -6 -9 -11 -9 2
-7 0 4 -6 -9 -11 -9 2
-7 0 4 -6 -9 -11 -9 2
-7 -2 4 -6 -9 -11 -9 1
-7 -2 4 -6 -9 -11 -9 1
-8 -3 4 -6 -8 -10 -8 0
-9 -3 4 -6 -8 -10 -8 0
-9 -3 4 -6 -8 -10 -8 0
-10 -4 4 -7 -8 -10 -8 0
-11 -4 4 -7 -8 -10 -8 0
-12 -5 3 -8 -9 -11 -8 1
-11 -4 3 -8 -9 -10 -8 1
-11 -3 4 -7 -8 -10 -7 2
-10 0 5 -6 -7 -9 -6 3
-9 1 5 -6 -7 -8 -6 3
-8 2 6 -5 -6 -7 -5 4
-8 2 6 -5 -6 -7 -5 4
-8 2 6 -5 -6 -7 -5 4
-8 1 6 -5 -6 -7 -6 4
-8 1 6 -5 -6 -7 -6 4
-8 0 5 -5 -6 -7 -7 3
-9 -2 5 -5 -6 -7 -7 3
-10 -3 5 -5 -6 -7 -7 3
-11 -5 4 -6 -7 -7 -7 2
-12 -6 4 -6 -7 -7 -7 2
-13 -7 3 -7 -8 -8 -8 1
-12 -5 4 -6 -8 -8 -8 1
-11 -3 5 -6 -7 -8 -8 1
-9 0 6 -5 -6 -7 -8 2
-8 1 7 -4 -6 -7 -8 2
-7 3 8 -3 -5 -6 -7 3
-7 3 8 -3 -5 -6 -7 3
-7 2 7 -4 -5 -6 -7 3
-8 1 6 -5 -5 -6 -7 3
-8 1 6 -5 -5 -6 -7 3
-9 0 5 -6 -6 -7 -8 2
-9 0 5 -6 -6 -7 -8 2
-9 0 5 -6 -6 -7 -8 2
-9 0 5 -6 -6 -7 -8 2
-9 0 5 -6 -6 -7 -8 2
-10 0 5 -5 -6 -7 -7 3
-9 1 6 -4 -5 -6 -6 3
-9 2 6 -3 -4 -5 -5 4
-8 4 7 -2 -3 -3 -4 5
-7 5 8 0 -2 -2 -3 5
-6 6 9 1 0 0 -2 6
-6 7 9 2 1 1 -2 6
-6 8 9 2 2 2 -2 7
-5 10 10 3 4 3 0 8
-5 11 10 4 5 4 0 8
-4 12 11 5 6 5 1 9
-4 12 11 6 7 5 1 9
-3 12 11 8 8 5 1 9
-2 12 11 9 9 6 2 9
-2 12 11 11 10 6 2 9
0 11 11 12 11 7 3 10
0 11 11 12 11 8 4 11
1 10 11 12 11 9 5 12
2 9 10 12 11 11 6 13
2 9 10 12 11 12 7 14
3 8 8 10 11 13 8 15
3 7 6 8 9 10 6 13
3 6 3 5 6 8 4 12
2 5 1 2 4 5 2 10
2 4 -3 -2 1 3 0 8
1 3 -5 -4 -2 1 -3 7
0 2 -5 -5 -3 1 -3 7
0 0 -5 -5 -3 0 -3 7
-2 -2 -5 -6 -4 -2 -4 7
-3 -4 -5 -7 -5 -2 -4 7
-4 -5 -4 -8 -6 -3 -5 6
-4 -5 -4 -8 -6 -3 -5 6
-4 -5 -4 -8 -6 -3 -5 5
-4 -5 -4 -8 -6 -3 -6 4
-4 -5 -4 -8 -6 -3 -6 4
-4 -5 -3 -9 -7 -4 -7 3
-6 -6 -3 -9 -7 -4 -7 3
-9 -7 -2 -9 -7 -5 -8 3
-12 -8 0 -9 -7 -6 -9 2
-15 -9 0 -9 -7 -6 -9 2
-17 -10 1 -8 -8 -7 -10 1
-16 -10 1 -8 -8 -7 -10 1
-16 -10 1 -9 -8 -7 -10 1
-15 -9 1 -10 -9 -7 -10 1
-14 -9 1 -10 -9 -7 -10 1
-13 -8 0 -11 -10 -8 -11 0
-13 -9 0 -11 -10 -8 -11 0
-14 -9 0 -11 -11 -8 -11 0
-15 -10 0 -11 -12 -9 -12 0
-15 -11 0 -11 -12 -9 -12 0
-16 -12 -2 -12 -13 -10 -13 -2
-16 -12 -2 -12 -13 -10 -13 -2
-16 -11 -2 -12 -13 -9 -13 -2
-16 -10 -2 -12 -12 -8 -13 -2
-16 -10 -2 -12 -12 -8 -13 -2
-15 -9 -2 -11 -11 -7 -12 0
-15 -9 -2 -11 -11 -7 -12 0
-16 -9 -2 -11 -11 -7 -12 0
-17 -9 0 -11 -12 -8 -11 0
-17 -9 0 -11 -12 -8 -11 0
-18 -10 1 -11 -13 -9 -10 -2
-17 -10 2 -11 -13 -9 -10 -2
-16 -10 2 -10 -13 -9 -10 -2
-15 -10 3 -9 -13 -9 -11 -2
-14 -10 4 -9 -13 -9 -11 -2
-13 -10 6 -7 -12 -9 -12 -2
-14 -11 9 -4 -9 -9 -15 -3
-15 -11 13 0 -7 -10 -17 -5
-16 -12 17 3 -5 -11 -19 -6
-17 -13 20 6 -3 -11 -21 -8
-17 -14 22 10 2 -9 -22 -9
-13 -14 19 16 10 0 -17 -8
-9 -14 15 22 17 8 -13 -6
-4 -13 12 28 24 16 -8 -5
1 -13 9 34 32 24 -3 -3
11 -5 0 38 42 39 10 6
32 17 -19 35 56 66 37 28
54 37 -37 32 70 92 65 51
74 59 -55 30 85 118 93 73
96 79 -73 27 99 145 120 96
112 101 -90 27 113 172 149 119
119 121 -102 33 131 197 178 145
127 143 -113 40 147 224 206 171
134 164 -126 47 164 250 235 196
141 185 -138 53 181 276 264 222
142 194 -148 42 174 276 272 233
128 178 -156 -5 118 226 239 218
113 161 -164 -52 64 175 207 201
99 146 -173 -99 10 125 175 186
85 130 -181 -146 -46 74 142 170
70 113 -183 -177 -85 34 113 152
57 97 -170 -178 -94 15 90 133
45 79 -156 -179 -103 -6 66 112
31 63 -143 -180 -112 -25 44 92
19 47 -130 -181 -121 -45 20 71
9 34 -116 -176 -123 -57 4 55
3 30 -102 -156 -111 -54 0 47
-3 26 -88 -137 -99 -51 -5 38
-9 22 -73 -117 -87 -48 -9 30
-14 18 -60 -98 -74 -45 -13 23
-18 14 -48 -81 -64 -40 -16 16
-18 11 -40 -71 -57 -37 -16 13
-18 7 -32 -62 -50 -33 -16 10
-18 3 -25 -52 -41 -29 -16 7
-18 0 -17 -41 -34 -26 -16 4
-19 -4 -11 -33 -28 -23 -16 2
-19 -4 -8 -28 -25 -21 -15 2
-19 -4 -5 -24 -22 -18 -14 2
-19 -4 0 -19 -18 -16 -12 1
-19 -4 3 -15 -15 -14 -11 1
-19 -5 6 -11 -12 -12 -10 0
-18 -5 6 -11 -12 -12 -10 -2
-18 -6 6 -11 -12 -13 -11 -2
-17 -6 6 -10 -12 -13 -11 -3
-16 -7 6 -10 -12 -14 -12 -4
-15 -8 6 -9 -11 -15 -13 -5
-15 -8 6 -9 -11 -15 -13 -5
-16 -9 7 -9 -11 -14 -13 -5
-16 -9 7 -8 -11 -14 -13 -5
-17 -10 8 -8 -11 -13 -13 -5
-18 -11 9 -7 -10 -12 -13 -5
-18 -11 9 -7 -10 -12 -13 -6
-18 -11 9 -7 -10 -12 -13 -6
-18 -11 9 -7 -10 -12 -14 -7
-18 -11 9 -7 -10 -12 -14 -8
-19 -12 10 -6 -10 -12 -15 -9
-20 -13 10 -6 -10 -12 -15 -9
-21 -15 10 -6 -11 -12 -15 -9
-22 -16 10 -6 -11 -12 -15 -9
-23 -18 10 -6 -12 -12 -15 -9
-24 -19 10 -6 -13 -13 -16 -9
-22 -18 10 -6 -12 -13 -16 -9
-20 -16 10 -5 -11 -13 -16 -9
-18 -15 11 -5 -10 -13 -16 -9
-16 -13 11 -4 -9 -13 -16 -9
-14 -12 12 -3 -8 -13 -16 -8
-14 -12 12 -3 -8 -13 -16 -8
-14 -12 12 -3 -8 -13 -16 -8
-14 -12 12 -3 -8 -13 -16 -8
-14 -12 12 -3 -8 -13 -16 -8
-15 -12 13 -3 -7 -13 -15 -7
-17 -14 12 -3 -7 -14 -16 -7
-18 -16 11 -4 -8 -14 -16 -8
-20 -18 10 -4 -8 -15 -17 -8
-21 -20 8 -5 -9 -16 -18 -9
-23 -22 7 -6 -10 -17 -19 -10
-21 -21 7 -6 -10 -17 -19 -10
-20 -21 7 -6 -9 -17 -19 -10
-18 -20 8 -5 -9 -17 -19 -11
-17 -19 8 -5 -8 -17 -19 -11
-15 -18 9 -4 -7 -16 -19 -12
-15 -18 9 -4 -7 -16 -19 -12
-15 -18 9 -4 -7 -16 -19 -12
-15 -18 10 -4 -7 -16 -19 -12
-15 -18 10 -4 -7 -16 -19 -12
-15 -18 11 -3 -6 -16 -19 -13
-15 -19 11 -3 -6 -16 -19 -13
-15 -19 11 -3 -6 -16 -19 -13
-15 -20 10 -3 -6 -16 -19 -13
-15 -21 10 -3 -6 -16 -19 -13
-16 -22 9 -2 -6 -16 -19 -13
-16 -22 9 -2 -6 -16 -19 -13
-16 -22 9 -2 -6 -17 -19 -14
-16 -23 9 -2 -6 -17 -20 -14
-16 -23 9 -2 -6 -18 -20 -15
-16 -24 8 0 -7 -19 -21 -16
-15 -24 8 1 -6 -19 -21 -16
-15 -24 8 1 -5 -19 -21 -16
-14 -24 9 2 -4 -19 -21 -16
-13 -24 9 3 -3 -19 -21 -16
-12 -25 10 4 -2 -18 -21 -17
-12 -25 10 5 -2 -18 -21 -17
-12 -25 10 6 0 -18 -21 -17
-12 -26 11 7 0 -17 -21 -17
-12 -26 11 8 1 -17 -21 -17
-11 -27 12 9 2 -16 -22 -18
-9 -27 12 9 2 -16 -22 -18
-8 -27 12 10 2 -16 -22 -18
-6 -27 11 10 2 -15 -22 -18
-5 -27 11 11 2 -15 -22 -18
-3 -27 10 12 3 -14 -21 -18
-3 -27 10 13 5 -13 -21 -18
-3 -27 10 14 6 -13 -20 -18
-3 -27 10 15 8 -12 -20 -18
-3 -27 10 17 9 -11 -19 -18
-4 -27 11 18 11 -10 -18 -18
-2 -27 11 21 13 -8 -17 -18
1 -28 11 23 15 -7 -16 -18
2 -28 11 26 17 -5 -15 -18
4 -29 11 29 19 -4 -14 -18
6 -30 11 31 21 -2 -13 -18
6 -29 11 34 24 2 -12 -17
6 -28 11 36 26 4 -11 -16
7 -27 12 39 28 6 -10 -15
7 -26 12 43 31 9 -8 -13
8 -25 13 45 33 11 -7 -12
11 -23 13 47 36 13 -5 -12
13 -21 13 49 39 15 -3 -11
16 -19 14 50 43 17 0 -11
19 -17 14 52 45 19 2 -10
21 -15 15 54 48 21 4 -9
21 -15 15 55 49 23 5 -8
20 -15 15 56 51 25 6 -7
20 -15 16 57 52 27 7 -6
19 -15 16 59 53 29 8 -5
18 -16 17 60 55 31 9 -4
19 -12 17 62 58 34 13 1
21 -9 17 64 60 37 17 4
22 -6 17 66 62 40 20 7
23 -3 17 68 65 43 24 10
25 1 18 70 67 46 27 13
25 2 18 70 68 46 27 14
25 3 18 70 68 47 28 15
25 4 18 70 69 47 28 16
25 6 18 70 70 48 29 18
25 7 18 70 71 49 30 19
24 7 18 68 70 49 30 19
22 8 18 66 68 49 31 19
20 8 17 63 66 49 31 20
19 9 17 61 65 49 32 20
17 10 16 59 63 48 33 21
17 11 16 56 60 45 33 21
16 12 17 53 58 42 32 22
15 13 17 50 55 38 32 22
14 15 18 48 52 36 31 23
13 16 19 45 50 33 30 24
11 16 19 40 46 30 28 24
9 15 19 37 42 28 26 24
8 14 18 33 38 25 24 23
6 13 18 30 34 22 22 23
4 12 17 27 31 20 20 22
2 11 17 24 28 17 18 20
0 9 16 21 25 14 16 18
-4 8 16 18 22 11 13 16
-6 7 15 15 19 9 11 14
-8 5 14 12 16 6 9 12
-8 5 14 11 15 5 9 12
-7 5 14 9 14 4 8 12
-7 4 14 7 13 3 8 12
-6 4 14 6 11 2 7 12
-5 3 13 4 10 1 6 11
-5 3 13 3 9 0 5 11
-6 2 13 2 8 -2 4 10
-7 2 13 1 7 -3 3 10
-8 1 13 0 6 -5 2 9
-9 0 12 -2 5 -6 1 8
-9 -2 12 -3 4 -7 0 8
-9 -3 11 -5 2 -9 -2 7
-10 -4 11 -7 0 -10 -3 6
-10 -6 10 -8 -2 -11 -4 5
-11 -7 9 -10 -4 -13 -5 4
-10 -6 9 -10 -4 -13 -5 4
-9 -5 9 -10 -4 -13 -4 4
-8 -4 9 -10 -3 -13 -4 4
-7 -2 9 -10 -3 -13 -3 4
-6 0 10 -9 -2 -12 -2 4
-6 0 10 -9 -2 -12 -2 4
-7 -2 9 -10 -2 -13 -3 4
-7 -3 9 -10 -3 -13 -3 4
-8 -4 8 -11 -3 -14 -4 4
-9 -5 7 -12 -4 -15 -5 3
-10 -5 7 -12 -4 -15 -5 3
-11 -5 7 -13 -4 -15 -6 2
-12 -5 6 -13 -5 -15 -6 2
-14 -5 6 -14 -5 -15 -7 1
-15 -6 5 -15 -6 -16 -8 0
-14 -6 5 -15 -6 -16 -8 0
-13 -6 5 -14 -5 -15 -7 1
-12 -5 6 -13 -5 -14 -6 1
-11 -5 6 -12 -4 -13 -5 2
-10 -4 7 -11 -3 -12 -4 3
-10 -4 7 -11 -3 -12 -4 3
-10 -3 7 -11 -3 -12 -4 3
-10 -2 8 -11 -3 -12 -4 3
-10 0 8 -11 -3 -12 -4 3
-9 1 9 -11 -3 -13 -4 4
-9 1 9 -11 -3 -13 -4 4
-9 0 9 -11 -3 -13 -4 4
-9 0 8 -12 -4 -14 -5 3
-9 -2 8 -12 -4 -14 -5 3
-8 -3 7 -13 -5 -15 -6 2
-8 -3 7 -13 -5 -15 -6 2
-9 -4 7 -13 -5 -15 -7 2
-10 -4 7 -13 -5 -15 -7 1
-11 -5 7 -13 -5 -15 -8 1
-12 -6 6 -13 -5 -16 -9 0
-12 -6 6 -13 -5 -16 -9 0
-12 -6 6 -12 -5 -16 -9 0
-12 -6 6 -11 -5 -16 -9 0
-12 -6 6 -10 -5 -16 -9 0
-12 -6 6 -9 -4 -15 -8 1
-12 -6 6 -9 -4 -15 -8 1
-12 -6 7 -9 -4 -15 -8 1
-12 -6 7 -9 -4 -15 -8 2
-12 -6 8 -9 -4 -15 -8 2
-12 -5 9 -10 -4 -15 -8 3
-12 -5 9 -10 -4 -15 -8 3
-11 -4 9 -10 -4 -15 -8 3
-10 -4 9 -10 -4 -15 -8 3
-9 -3 9 -10 -4 -15 -8 3
-8 -2 9 -10 -3 -14 -7 2
-9 -3 9 -10 -3 -14 -7 2
-10 -4 9 -10 -3 -14 -7 2
-11 -5 9 -10 -4 -15 -8 1
-12 -7 9 -10 -4 -15 -8 1
-13 -8 8 -11 -5 -16 -9 0
-13 -8 8 -11 -5 -16 -9 0
-13 -8 8 -11 -5 -15 -9 0
-13 -8 8 -10 -4 -14 -9 1
-13 -8 8 -10 -4 -13 -9 1
-14 -8 9 -9 -3 -12 -9 2
-13 -7 9 -9 -3 -12 -9 2
-11 -5 9 -9 -3 -12 -9 2
-10 -4 10 -8 -2 -12 -9 3
-9 -3 10 -8 -2 -12 -9 3
-7 0 11 -7 0 -12 -8 4
-8 0 11 -7 0 -12 -8 4
-9 -2 11 -7 0 -12 -8 4
-10 -2 11 -7 0 -12 -8 4
-12 -3 11 -7 0 -12 -8 4
-13 -4 10 -6 0 -11 -7 3
-13 -4 10 -6 0 -11 -7 3
-13 -4 10 -6 0 -11 -7 3
-13 -4 10 -7 -2 -11 -8 3
-13 -4 10 -7 -2 -11 -8 3
-12 -5 9 -8 -3 -11 -9 2
-12 -5 9 -8 -3 -11 -9 2
-11 -4 9 -8 -3 -11 -9 2
-11 -4 10 -8 -3 -11 -9 2
-10 -3 10 -8 -3 -11 -9 2
-9 -2 11 -7 -3 -12 -8 2
-9 -2 10 -7 -4 -12 -9 2
-9 -2 9 -7 -5 -13 -10 2
-8 -2 8 -8 -6 -14 -11 1
-8 -2 7 -8 -7 -15 -12 1
-7 -3 6 -9 -8 -16 -13 0
-7 -3 6 -9 -8 -16 -13 0
-8 -4 6 -9 -7 -16 -12 0
-9 -4 6 -9 -7 -15 -11 1
-10 -5 6 -9 -6 -15 -10 1
-11 -6 6 -10 -5 -14 -9 2
-11 -6 6 -10 -5 -14 -9 2
-11 -6 6 -10 -5 -14 -9 2
-11 -5 7 -10 -5 -14 -9 2
-11 -5 7 -10 -5 -14 -9 2
-12 -4 8 -10 -5 -14 -9 1
-12 -4 8 -10 -5 -14 -9 1
-12 -5 7 -11 -6 -15 -10 0
-11 -5 7 -11 -7 -15 -10 0
-11 -6 6 -12 -8 -16 -11 -2
-10 -7 5 -13 -9 -17 -12 -3
-10 -7 5 -13 -9 -17 -12 -3
-11 -7 5 -13 -9 -17 -12 -3
-11 -7 5 -13 -9 -17 -12 -3
-12 -7 5 -13 -9 -17 -12 -3
-13 -7 6 -12 -9 -16 -11 -2
-12 -7 6 -12 -9 -16 -11 -2
-11 -7 6 -12 -9 -16 -11 -2
-10 -6 6 -12 -9 -16 -10 -2
-9 -6 6 -12 -9 -16 -10 -2
-7 -5 7 -12 -8 -15 -9 -2
-7 -5 7 -12 -8 -15 -9 -2
-8 -5 7 -12 -8 -15 -9 -2
-8 -5 7 -12 -8 -15 -10 0
-9 -5 7 -12 -8 -15 -10 0
-10 -6 6 -11 -9 -15 -11 1
-10 -6 6 -11 -9 -15 -11 1
-10 -6 6 -11 -9 -15 -11 1
-10 -6 6 -11 -8 -15 -11 1
-10 -6 6 -11 -8 -15 -11 1
-10 -5 7 -12 -7 -15 -10 1
-10 -5 7 -12 -7 -15 -10 1
-10 -6 7 -12 -7 -15 -10 1
-11 -6 7 -12 -8 -15 -11 1
-11 -7 7 -12 -8 -15 -11 1
-12 -8 6 -12 -9 -16 -12 0
-12 -8 6 -12 -9 -16 -12 0
-12 -7 6 -12 -9 -16 -12 0
-12 -7 6 -12 -9 -16 -12 0
-12 -6 6 -12 -9 -16 -12 0
-12 -5 5 -13 -9 -15 -11 -2
-12 -5 5 -13 -9 -15 -11 -2
-11 -5 5 -13 -9 -15 -11 -2
-10 -4 6 -12 -9 -14 -11 0
-9 -4 6 -12 -9 -14 -11 0
-8 -3 7 -11 -8 -13 -10 1
-8 -3 7 -11 -8 -13 -10 1
-9 -3 7 -11 -8 -13 -10 1
-9 -4 7 -11 -9 -13 -10 1
-10 -4 7 -11 -9 -13 -10 1
-11 -5 6 -12 -10 -14 -10 0
-11 -6 6 -12 -10 -14 -10 0
-11 -7 5 -12 -10 -14 -10 0
-11 -8 5 -12 -10 -14 -11 -2
-11 -9 4 -12 -10 -14 -11 -2
-12 -10 3 -13 -11 -14 -12 -3
-12 -10 3 -13 -11 -14 -12 -3
-11 -9 4 -13 -10 -14 -11 -2
-11 -8 4 -12 -9 -13 -11 0
-10 -7 5 -12 -8 -13 -10 1
-9 -6 6 -11 -7 -12 -9 2
-9 -6 6 -11 -7 -12 -9 2
-9 -6 6 -11 -7 -12 -9 2
-9 -6 6 -11 -7 -12 -9 1
-9 -6 6 -11 -7 -12 -9 1
-9 -5 6 -10 -8 -12 -9 0
-10 -5 6 -10 -8 -12 -9 0
-11 -6 5 -10 -9 -12 -9 0
-12 -6 4 -11 -9 -12 -9 0
-13 -7 3 -11 -10 -12 -9 0
-14 -8 2 -12 -11 -13 -10 -2
-14 -8 2 -12 -11 -13 -10 -2
-14 -8 2 -12 -11 -13 -10 -2
-13 -8 2 -13 -11 -13 -11 -2
-13 -8 2 -13 -11 -13 -11 -2
-12 -9 3 -14 -11 -14 -12 -2
-12 -9 3 -14 -11 -14 -12 -2
-12 -8 3 -13 -10 -13 -12 -2
-11 -8 3 -13 -10 -13 -11 -2
-11 -7 3 -12 -9 -12 -11 -2
-10 -6 4 -11 -8 -11 -10 0
-10 -6 4 -11 -8 -11 -10 0
-10 -6 4 -11 -8 -11 -10 0
-10 -7 4 -11 -8 -11 -10 0
-10 -7 4 -11 -8 -11 -10 0
-11 -8 4 -11 -9 -12 -10 0
-10 -7 4 -11 -9 -12 -10 0
-9 -6 4 -11 -9 -12 -10 0
-8 -5 4 -10 -9 -12 -9 0
-7 -4 4 -10 -9 -12 -9 0
-5 -2 3 -9 -9 -11 -8 0
-5 -2 3 -9 -9 -11 -8 0
-6 -3 4 -9 -9 -11 -8 0
-7 -3 5 -9 -9 -11 -8 1
-8 -4 6 -9 -9 -11 -8 1
-9 -5 7 -9 -8 -11 -8 2
-9 -5 7 -9 -8 -11 -8 2
-9 -5 6 -9 -8 -11 -8 2
-9 -6 6 -10 -8 -11 -8 1
-9 -6 5 -10 -8 -11 -8 1
-10 -7 4 -11 -8 -11 -9 0
-10 -7 4 -11 -8 -11 -9 0
-10 -7 4 -11 -8 -11 -9 0
-10 -7 4 -11 -8 -11 -9 0
-10 -7 4 -11 -8 -11 -9 0
-9 -7 5 -11 -9 -11 -10 -2
-9 -7 5 -11 -9 -11 -10 -2
-9 -7 5 -11 -9 -11 -10 -2
-9 -8 5 -11 -10 -12 -10 -2
-9 -8 5 -11 -10 -12 -10 -2
-9 -9 5 -12 -11 -13 -11 -3
-9 -9 5 -12 -11 -13 -11 -3
-10 -9 5 -12 -11 -13 -11 -3
-10 -9 5 -12 -11 -13 -11 -3
-11 -9 5 -12 -11 -13 -11 -3
-12 -9 4 -11 -10 -12 -10 -2
-12 -9 4 -11 -10 -12 -10 -2
-12 -9 4 -11 -10 -12 -10 -2
-12 -9 4 -11 -10 -12 -10 -2
-12 -9 4 -11 -10 -12 -10 -2
-13 -9 3 -10 -9 -12 -10 -2
-12 -8 3 -10 -9 -12 -10 -2
-10 -6 4 -10 -8 -11 -9 0
-9 -5 4 -9 -8 -11 -9 0
-7 -3 5 -9 -7 -10 -8 1
-5 0 6 -8 -6 -9 -7 2
-5 0 6 -8 -6 -9 -7 2
-5 0 6 -8 -6 -9 -7 2
-5 0 6 -8 -6 -9 -7 2
-5 0 6 -8 -6 -9 -7 2
-5 -2 7 -7 -5 -9 -8 2
-5 -2 7 -7 -5 -9 -8 2
-5 -2 7 -6 -4 -8 -7 2
-6 0 8 -5 -3 -8 -7 3
-6 0 8 -4 -2 -7 -6 3
-7 1 9 -3 0 -6 -5 4
-6 2 9 -3 0 -5 -4 4
-5 3 9 -2 1 -4 -3 5
-4 4 9 0 1 -3 -2 6
-3 5 9 1 2 -2 0 7
0 6 10 2 3 0 1 8
0 6 10 3 4 0 1 8
1 6 11 4 5 1 2 8
2 7 12 6 6 2 2 9
3 7 13 7 7 3 3 9
4 8 14 9 9 4 4 10
4 8 13 9 9 5 4 10
5 8 12 9 9 6 5 11
5 8 11 10 9 7 5 11
6 8 10 10 9 8 6 12
7 8 8 11 10 9 7 13
6 6 6 8 7 7 5 12
5 3 4 5 4 4 3 10
3 1 2 2 1 2 1 9
2 -3 0 -2 -3 -2 -2 7
0 -6 -3 -5 -6 -5 -5 5
0 -6 -3 -5 -7 -5 -6 5
0 -6 -3 -6 -8 -6 -7 5
0 -7 -4 -7 -9 -7 -8 4
0 -7 -4 -8 -10 -8 -9 4
1 -8 -5 -9 -11 -9 -10 3
1 -8 -5 -9 -11 -9 -10 3
1 -8 -5 -9 -11 -9 -10 3
0 -8 -4 -9 -11 -9 -10 3
0 -8 -4 -9 -11 -9 -10 3
-2 -9 -3 -10 -11 -10 -11 3
-2 -9 -3 -10 -11 -10 -11 2
-3 -9 -3 -10 -11 -10 -11 1
-4 -10 -3 -10 -12 -10 -11 0
-5 -10 -3 -10 -12 -10 -11 -2
-6 -11 -3 -11 -13 -10 -11 -3
-7 -11 -3 -11 -13 -10 -11 -3
-8 -11 -3 -11 -14 -11 -11 -3
-9 -12 -3 -12 -14 -12 -12 -4
-10 -12 -3 -12 -15 -13 -12 -4
-12 -13 -3 -13 -16 -14 -13 -5
-12 -13 -3 -13 -16 -14 -13 -5
-11 -13 -3 -13 -16 -14 -13 -5
-11 -12 -2 -13 -16 -13 -13 -5
-10 -12 -2 -13 -16 -13 -13 -5
-9 -11 0 -12 -15 -12 -13 -5
-9 -11 0 -12 -15 -12 -13 -5
-10 -11 0 -12 -15 -12 -13 -5
-11 -10 0 -11 -15 -12 -13 -5
-12 -10 0 -11 -15 -12 -13 -5
-13 -9 0 -10 -15 -12 -13 -4
-13 -9 0 -10 -15 -12 -13 -4
-13 -9 0 -10 -15 -12 -13 -4
-12 -10 0 -10 -15 -12 -13 -4
-12 -10 0 -10 -15 -12 -13 -4
-12 -10 0 -10 -15 -12 -13 -4
-11 -11 -2 -11 -15 -13 -13 -5
-12 -11 -2 -11 -15 -13 -13 -5
-12 -11 0 -11 -14 -13 -13 -5
-13 -11 0 -11 -14 -13 -13 -5
-13 -11 0 -11 -14 -13 -13 -5
-14 -12 4 -7 -12 -13 -15 -7
-15 -15 8 -3 -11 -14 -17 -10
-16 -18 11 1 -9 -15 -20 -13
-17 -21 15 5 -8 -16 -22 -16
-17 -23 18 8 -7 -17 -24 -18
-12 -23 16 13 1 -11 -20 -17
-6 -21 13 18 7 -4 -14 -14
2 -19 10 22 14 5 -8 -11
8 -17 7 27 20 12 -2 -8
14 -16 4 31 26 19 4 -6
35 5 -16 31 39 43 27 15
56 24 -34 29 52 67 52 36
76 45 -53 27 64 91 75 57
98 65 -72 25 76 114 99 77
118 85 -91 23 89 138 122 98
129 106 -103 28 104 164 149 122
138 127 -115 34 119 191 176 146
147 147 -128 42 135 219 202 171
156 169 -139 48 149 245 229 194
165 189 -151 54 164 272 256 219
152 176 -160 12 118 227 229 206
137 161 -169 -33 69 180 201 193
121 146 -178 -77 20 133 173 180
107 131 -187 -122 -29 86 144 165
92 116 -195 -166 -78 38 115 152
77 101 -183 -169 -88 19 95 134
64 87 -169 -170 -96 1 73 115
50 72 -154 -171 -104 -18 53 97
35 57 -140 -172 -111 -36 31 78
22 43 -126 -173 -119 -55 11 60
15 37 -111 -156 -110 -54 6 52
9 32 -96 -137 -98 -51 2 44
3 27 -81 -118 -87 -48 -3 35
-4 22 -66 -100 -75 -45 -7 27
-10 17 -52 -80 -64 -41 -11 19
-11 13 -44 -70 -57 -37 -12 16
-12 9 -36 -60 -50 -33 -12 13
-13 6 -29 -50 -43 -30 -12 10
-14 2 -21 -39 -35 -26 -12 7
-14 -2 -14 -29 -28 -23 -12 4
-15 -3 -11 -25 -25 -21 -13 3
-14 -3 -8 -21 -22 -19 -12 3
-14 -3 -5 -18 -20 -18 -12 2
-13 -3 -2 -14 -17 -16 -11 2
-13 -3 2 -11 -15 -15 -11 2
-12 -4 3 -10 -14 -14 -11 0
-13 -5 3 -10 -14 -15 -12 -2
-14 -7 3 -9 -14 -16 -13 -4
-15 -8 3 -9 -14 -17 -14 -5
-16 -9 3 -9 -14 -18 -15 -6
-17 -10 4 -8 -14 -19 -16 -7
-16 -10 5 -7 -14 -18 -16 -7
-15 -10 5 -6 -13 -18 -15 -7
-14 -10 6 -5 -13 -17 -15 -7
-14 -10 6 -5 -13 -17 -15 -7
-14 -10 7 -4 -12 -16 -14 -8
-15 -11 7 -4 -12 -16 -14 -8
-16 -12 8 -4 -12 -17 -15 -8
-17 -13 8 -4 -12 -17 -15 -8
-18 -13 8 -4 -12 -17 -15 -8
-19 -14 9 -5 -11 -18 -16 -8
-18 -13 9 -4 -11 -18 -16 -8
-17 -13 9 -3 -11 -18 -15 -8
-16 -12 9 -2 -11 -18 -15 -8
-15 -12 9 -2 -11 -18 -15 -8
-14 -11 10 0 -11 -17 -14 -7
-15 -12 10 0 -11 -17 -14 -8
-16 -13 10 0 -11 -17 -15 -8
-17 -14 10 0 -11 -17 -15 -9
-18 -15 10 0 -11 -17 -15 -9
-19 -16 9 0 -11 -18 -16 -10
-19 -16 9 0 -11 -18 -16 -10
-18 -17 9 0 -11 -18 -17 -11
-18 -17 9 0 -11 -18 -17 -11
-18 -17 9 0 -11 -18 -17 -11
-17 -18 9 -2 -11 -18 -18 -12
-17 -18 9 -2 -11 -18 -18 -12
-16 -17 9 -2 -11 -19 -18 -12
-16 -17 9 -2 -11 -19 -18 -12
-16 -17 9 -2 -11 -19 -18 -12
-15 -16 9 -2 -12 -20 -17 -12
-15 -16 9 -2 -12 -20 -17 -12
-15 -16 10 -2 -11 -20 -18 -12
-15 -16 10 -2 -11 -20 -18 -12
-15 -16 10 -2 -11 -20 -18 -12
-16 -16 11 0 -10 -19 -19 -13
-15 -16 11 1 -9 -18 -18 -13
-15 -16 11 2 -8 -18 -18 -13
-14 -16 11 3 -7 -17 -17 -13
-14 -16 11 3 -7 -17 -17 -13
-13 -15 10 4 -6 -16 -16 -12
-13 -16 10 4 -6 -16 -16 -12
-12 -16 10 4 -6 -16 -16 -12
-12 -17 10 4 -6 -16 -16 -12
-12 -17 10 4 -6 -16 -16 -12
-11 -19 10 4 -7 -16 -16 -13
-12 -20 10 4 -7 -16 -16 -14
-13 -22 10 4 -7 -16 -17 -15
-14 -23 10 4 -7 -16 -17 -16
-15 -24 10 4 -7 -16 -17 -16
-16 -25 9 5 -6 -17 -18 -17
-15 -25 9 6 -5 -17 -18 -16
-14 -25 9 7 -5 -17 -17 -16
-13 -25 9 8 -4 -17 -17 -15
-12 -25 9 8 -4 -17 -17 -15
-11 -25 10 9 -3 -16 -17 -14
-11 -26 10 9 -3 -16 -18 -15
-11 -28 9 9 -3 -16 -20 -16
-11 -29 9 9 -3 -16 -21 -17
-11 -30 9 9 -3 -16 -22 -17
-12 -31 8 11 0 -16 -23 -18
-11 -31 8 13 1 -15 -22 -18
-10 -31 8 15 3 -13 -21 -18
-9 -31 8 17 4 -12 -20 -18
-9 -31 8 19 5 -11 -20 -18
-8 -32 9 21 7 -10 -19 -18
-7 -32 9 23 8 -10 -19 -18
-6 -32 10 24 9 -10 -19 -18
-5 -32 10 26 10 -10 -19 -18
-5 -32 10 27 11 -10 -19 -18
-3 -31 11 29 12 -10 -18 -19
1 -30 11 31 13 -8 -18 -19
3 -30 11 33 14 -6 -17 -19
5 -29 11 35 15 -4 -17 -19
7 -29 11 36 15 -2 -17 -19
8 -28 12 39 18 1 -15 -18
9 -27 12 42 21 4 -12 -16
9 -26 13 44 24 6 -10 -15
10 -25 13 47 27 8 -8 -13
10 -25 13 49 30 10 -6 -12
12 -24 14 52 33 12 -4 -11
14 -24 14 54 35 15 -2 -10
15 -24 14 56 37 17 0 -9
17 -24 14 59 40 19 2 -8
18 -24 14 61 43 21 3 -7
20 -23 15 63 45 22 5 -6
21 -20 15 64 46 23 6 -5
22 -18 15 66 48 24 8 -5
23 -16 15 67 49 25 9 -4
24 -14 15 68 50 26 10 -4
25 -12 16 70 52 29 12 -2
25 -11 16 72 55 31 14 2
25 -9 16 73 57 34 16 4
25 -8 16 75 59 37 18 6
25 -7 16 76 61 39 20 8
25 -4 15 77 62 42 22 10
25 -2 15 77 63 43 24 12
25 1 16 78 63 45 26 13
25 4 16 78 64 46 27 15
25 6 16 78 64 47 29 16
26 8 17 78 65 48 30 17
26 9 17 77 65 48 31 18
26 11 17 75 65 48 32 19
26 12 17 73 65 48 33 20
26 13 17 72 65 48 33 21
26 14 18 70 62 46 34 22
24 15 18 67 60 44 33 23
22 16 18 65 58 42 32 23
20 17 18 63 55 40 31 24
18 17 18 61 53 38 30 24
16 17 18 57 50 35 28 25
14 16 18 53 46 32 26 24
12 14 17 49 43 28 24 23
11 13 17 45 38 25 22 22
9 12 17 40 35 22 20 21
7 11 16 38 32 20 18 20
6 11 16 37 30 18 17 20
4 11 16 35 28 16 16 19
3 11 16 34 25 14 15 19
2 11 16 33 23 12 14 19
1 9 16 30 21 10 13 17
1 8 15 27 19 8 12 16
0 7 15 23 17 6 11 15
0 5 14 20 15 5 10 13
0 4 14 17 13 3 9 12
-2 3 13 16 12 2 8 11
-3 3 12 15 11 1 7 10
-4 3 12 15 11 1 6 10
-5 3 11 14 10 0 5 9
-5 3 11 14 10 0 5 9
-6 2 10 13 9 -2 4 8
-6 1 11 13 8 -2 4 8
-6 1 11 13 8 -3 3 7
-6 0 12 13 7 -3 3 7
-6 0 12 13 7 -3 3 7
-6 -2 13 12 5 -5 2 6
-6 -3 12 11 4 -6 1 5
-7 -4 11 10 3 -7 0 5
-7 -5 10 9 2 -8 -2 4
-7 -6 10 8 1 -9 -3 4
-8 -7 9 7 0 -10 -4 3
-8 -6 9 7 0 -10 -4 3
-7 -6 9 7 0 -10 -4 3
-7 -5 9 7 0 -10 -4 3
-7 -5 9 7 0 -10 -4 3
-6 -4 9 8 0 -10 -4 4
-6 -4 9 8 0 -10 -4 4
-7 -4 9 7 0 -10 -4 4
-7 -4 9 7 0 -10 -4 4
-7 -4 9 7 0 -10 -4 4
-8 -3 9 6 1 -10 -3 4
-8 -3 9 6 1 -9 -3 4
-7 -3 9 7 2 -9 -3 4
-7 -3 9 7 2 -8 -3 4
-7 -3 9 7 2 -8 -3 4
-6 -3 9 8 3 -7 -2 5
-7 -3 9 8 3 -7 -2 5
-7 -3 9 8 2 -8 -2 5
-8 -3 9 8 2 -8 -2 5
-8 -3 9 8 2 -8 -2 5
-9 -4 9 7 1 -9 -2 5
-9 -4 9 7 1 -9 -3 5
-9 -5 9 6 0 -9 -3 4
-9 -5 9 6 0 -9 -4 4
-9 -5 9 6 0 -9 -4 4
-9 -6 9 5 -2 -10 -5 3
-9 -6 9 5 -2 -10 -5 3
-9 -6 9 5 -2 -11 -6 3
-9 -6 9 5 -2 -11 -6 3
-9 -6 9 5 -2 -11 -6 3
-8 -7 10 5 -3 -12 -7 2
-7 -6 11 5 -2 -11 -6 2
-6 -5 11 6 -2 -10 -6 3
-5 -4 12 6 0 -9 -5 3
-5 -3 12 6 0 -9 -5 3
-4 -2 13 7 1 -8 -4 4
-6 -3 13 7 1 -8 -4 4
-7 -3 12 6 1 -8 -4 4
-8 -4 12 6 1 -8 -4 4
-9 -4 12 6 1 -8 -4 4
-10 -5 11 5 0 -9 -5 3
-10 -5 11 5 0 -9 -5 3
-9 -5 11 5 0 -9 -5 3
-9 -5 11 5 0 -9 -5 3
-9 -5 11 5 0 -9 -5 3
-8 -5 11 5 -2 -10 -6 2
-9 -5 11 5 -2 -10 -6 2
-9 -5 12 6 0 -9 -6 3
-10 -5 12 6 0 -9 -6 3
-10 -5 12 6 0 -9 -6 3
-10 -4 13 7 1 -8 -5 4
-8 -2 14 7 2 -7 -4 4
-5 1 15 7 2 -6 -4 5
-3 2 16 7 3 -5 -3 5
0 4 16 7 3 -5 -3 5
0 5 17 8 4 -4 -2 6
-2 4 16 8 3 -5 -3 6
-4 3 16 8 3 -6 -3 5
-6 2 15 8 2 -7 -4 5
-7 1 15 8 2 -7 -4 5
-8 0 14 7 1 -8 -5 4
-8 0 14 7 1 -8 -5 4
-7 0 14 7 1 -8 -5 4
-7 0 14 7 1 -8 -5 4
-7 0 14 7 1 -8 -5 4
-6 0 13 6 1 -7 -4 3
-6 0 13 6 2 -7 -4 4
-6 0 14 7 3 -7 -5 4
-6 0 14 7 4 -7 -5 5
-6 0 14 7 4 -7 -5 5
-6 1 15 8 5 -7 -6 6
-7 1 15 7 4 -7 -5 6
-7 0 15 7 4 -6 -4 5
-8 0 15 6 3 -6 -3 5
-8 0 15 6 3 -6 -3 5
-9 -2 14 5 2 -5 -2 4
-8 -2 14 5 2 -6 -3 4
-7 -2 13 4 2 -7 -4 3
-6 -2 13 4 2 -8 -5 3
-6 -2 13 4 2 -8 -6 3
-5 0 12 3 1 -9 -7 2
-6 -2 12 3 1 -9 -7 2
-6 -2 12 3 1 -9 -7 2
-7 -3 12 3 1 -9 -7 2
-7 -3 12 3 1 -9 -7 2
-8 -4 13 4 1 -8 -6 3
-8 -4 13 4 1 -8 -6 3
-8 -4 12 4 1 -8 -6 3
-8 -4 12 4 1 -8 -6 3
-8 -4 12 4 1 -8 -6 3
-8 -5 11 3 0 -9 -6 2
-8 -4 11 3 0 -9 -6 2
-7 -4 11 3 1 -8 -5 2
-7 -3 11 3 1 -8 -5 2
-7 -3 11 3 1 -8 -5 2
-6 -2 12 4 2 -7 -4 3
-6 -2 12 4 2 -7 -4 3
-7 -2 12 3 1 -7 -4 3
-7 -2 12 3 1 -7 -4 3
-7 -2 12 3 1 -7 -4 3
-8 -2 12 2 0 -8 -5 2
-8 -3 12 2 0 -8 -5 2
-9 -3 12 2 0 -8 -5 1
-9 -4 12 2 0 -8 -5 1
-9 -4 12 2 0 -8 -5 1
-10 -5 11 2 0 -8 -5 0
-10 -5 11 2 0 -9 -6 0
-9 -5 11 1 -2 -9 -6 0
-9 -5 11 1 -2 -10 -7 0
-9 -5 11 1 -2 -10 -7 0
-8 -4 11 0 -3 -11 -8 1
-8 -4 11 0 -3 -10 -7 1
-8 -3 11 0 -3 -10 -6 1
-8 -3 11 0 -3 -9 -5 1
-8 -3 11 0 -3 -9 -5 1
-7 -2 12 1 -2 -8 -4 0
-6 -2 12 1 -2 -8 -4 0
-5 -2 11 0 -2 -8 -5 0
-5 -2 11 0 -2 -8 -5 0
-4 -2 11 0 -2 -8 -5 0
-3 -2 10 -2 -3 -9 -6 0
-4 -2 10 -2 -3 -9 -6 1
-4 0 10 -2 -2 -9 -5 1
-5 0 10 -2 -2 -9 -5 2
-5 0 10 -2 -2 -9 -5 2
-6 1 11 0 0 -8 -4 3
-6 0 10 -2 0 -8 -5 2
-7 -2 9 -2 -2 -9 -6 1
-7 -3 9 -3 -2 -9 -7 1
-7 -4 8 -3 -2 -9 -8 0
-8 -5 7 -4 -3 -10 -9 -2
-7 -4 8 -4 -3 -10 -9 -2
-7 -3 9 -4 -3 -10 -9 0
-6 -2 10 -4 -3 -10 -9 0
-6 0 11 -4 -3 -10 -9 0
-5 1 12 -3 -2 -9 -8 1
-4 1 11 -3 -2 -9 -8 1
-4 0 10 -3 -2 -9 -7 1
-3 0 9 -3 -2 -9 -7 1
-3 0 8 -3 -2 -9 -7 1
-2 -2 7 -3 -2 -10 -6 0
-3 -2 7 -3 -2 -10 -6 0
-4 -2 8 -3 -2 -9 -6 0
-5 -2 8 -3 -2 -9 -6 0
-6 -2 8 -3 -2 -9 -6 0
-7 0 9 -2 -2 -8 -6 1
-7 0 9 -2 -2 -8 -6 1
-6 0 9 -2 -2 -8 -6 1
-6 0 9 -2 -2 -8 -6 1
-6 0 9 -2 -2 -8 -6 1
-5 0 10 -3 -2 -8 -6 2
-6 0 10 -3 -2 -8 -6 2
-6 0 10 -3 -2 -8 -6 1
-7 0 10 -3 -2 -8 -6 1
-7 0 10 -3 -2 -8 -6 1
-8 0 10 -2 -2 -8 -6 0
-8 0 10 -3 -2 -8 -6 0
-7 0 10 -3 -3 -8 -6 0
-7 0 10 -4 -3 -8 -6 0
-7 0 10 -4 -3 -8 -6 0
-6 -2 9 -5 -4 -8 -6 1
-6 -2 9 -5 -4 -8 -6 1
-6 -2 9 -4 -4 -8 -6 1
-6 -2 9 -4 -4 -8 -6 1
-6 -2 9 -4 -4 -8 -6 1
-6 -2 9 -3 -4 -8 -5 1
-6 -2 9 -3 -4 -8 -5 1
-6 -2 8 -3 -4 -8 -6 1
-6 -2 8 -3 -4 -8 -6 1
-6 -2 8 -3 -4 -8 -6 1
-5 -3 7 -4 -5 -9 -7 0
-7 -4 7 -4 -5 -9 -7 0
-8 -4 8 -4 -5 -9 -7 -2
-9 -5 8 -4 -5 -9 -7 -2
-10 -5 8 -4 -5 -9 -7 -2
-10 -6 9 -5 -5 -8 -6 -3
-8 -4 9 -5 -5 -8 -6 -3
-6 -3 9 -5 -5 -8 -6 -2
-3 0 9 -5 -5 -8 -6 -2
0 1 9 -5 -5 -8 -6 -2
1 2 8 -4 -4 -9 -5 0
0 2 8 -4 -4 -9 -5 0
-2 1 8 -4 -4 -9 -5 0
-3 1 8 -4 -4 -9 -5 0
-4 1 8 -4 -4 -9 -5 0
-5 0 8 -5 -4 -10 -6 0
-5 0 8 -5 -4 -10 -6 0
-5 0 8 -5 -4 -9 -6 0
-5 0 8 -5 -4 -9 -6 0
-5 0 8 -5 -4 -9 -6 0
-4 0 8 -5 -3 -8 -6 0
-4 0 8 -5 -3 -8 -6 0
-4 0 8 -5 -3 -8 -6 0
-4 0 8 -5 -3 -8 -6 0
-4 0 8 -5 -3 -8 -6 0
-3 0 8 -4 -2 -8 -6 1
-4 -2 8 -4 -2 -9 -6 1
-5 -3 7 -5 -3 -9 -7 0
-6 -4 7 -5 -3 -10 -7 0
-7 -5 7 -5 -3 -10 -7 0
-8 -6 6 -6 -4 -11 -8 -2
-6 -4 6 -6 -4 -10 -8 0
-5 -3 7 -5 -3 -9 -7 0
-4 -2 7 -5 -3 -9 -7 1
-3 0 7 -5 -3 -8 -7 1
-2 1 8 -4 -2 -7 -6 2
-2 2 9 -4 -2 -7 -6 2
-2 2 9 -3 -2 -7 -6 2
-2 3 10 -3 -2 -7 -6 2
-2 3 10 -3 -2 -7 -6 2
-2 4 11 -2 0 -8 -5 2
-2 4 11 -2 0 -7 -4 2
-2 4 11 -2 0 -6 -4 3
-2 4 11 -2 0 -5 -3 3
-2 4 11 -2 0 -4 -3 3
-3 4 12 0 0 -3 -2 4
-3 5 12 1 1 -2 -2 4
-2 6 13 2 2 0 0 5
-2 6 13 3 3 0 0 5
-2 7 13 4 4 1 0 5
1 8 14 5 5 2 1 6
3 9 14 6 5 2 1 6
6 11 13 7 6 3 2 7
8 12 13 8 7 4 3 7
11 13 13 9 7 4 3 7
12 14 12 10 8 5 4 8
12 14 12 11 9 6 4 8
12 13 11 12 11 8 5 8
12 13 11 13 12 9 5 8
12 13 11 14 13 10 5 8
11 12 10 14 13 11 6 9
11 12 9 12 12 10 6 9
12 12 8 10 10 9 6 9
12 12 7 7 8 8 6 9
12 12 6 5 6 7 6 9
12 11 5 3 4 5 4 8
11 9 3 1 2 3 2 7
9 6 2 -3 0 1 0 5
8 4 0 -5 -4 -3 -3 4
6 1 -2 -8 -6 -5 -5 3
5 0 -3 -9 -7 -6 -6 2
5 0 -3 -9 -7 -6 -6 2
5 -2 -2 -9 -7 -6 -6 2
5 -2 0 -9 -7 -6 -6 2
5 -2 0 -9 -7 -6 -6 2
3 -3 1 -8 -7 -7 -7 1
0 -5 1 -9 -7 -7 -8 0
-3 -6 1 -10 -8 -8 -9 -2
-6 -8 1 -10 -9 -9 -9 -3
-9 -9 1 -11 -9 -9 -10 -4
-9 -9 1 -12 -10 -10 -11 -5
-7 -7 1 -11 -10 -10 -11 -5
-5 -5 2 -10 -10 -10 -11 -5
-2 -3 3 -10 -10 -10 -11 -5
1 0 3 -9 -10 -10 -11 -5
2 0 4 -8 -9 -9 -10 -4
0 -3 4 -9 -9 -9 -10 -4
-2 -5 3 -10 -9 -9 -10 -5
-4 -7 3 -10 -9 -9 -10 -5
-5 -9 3 -11 -9 -9 -10 -5
-6 -10 2 -12 -9 -10 -11 -6
-5 -8 2 -12 -9 -10 -11 -6
-4 -7 2 -11 -9 -10 -11 -6
-3 -5 2 -11 -9 -10 -11 -6
-2 -4 2 -11 -9 -10 -11 -6
0 -3 3 -10 -10 -9 -11 -6
-2 -3 3 -10 -10 -9 -11 -6
-3 -3 4 -9 -9 -8 -10 -6
-3 -3 5 -9 -8 -7 -10 -6
-4 -3 5 -9 -8 -7 -10 -6
-5 -4 6 -8 -7 -6 -9 -5
-5 -4 6 -8 -7 -6 -9 -5
-6 -5 6 -8 -7 -6 -9 -5
-7 -6 6 -8 -7 -6 -9 -5
-7 -6 6 -8 -7 -6 -9 -5
-8 -7 6 -8 -8 -7 -10 -5
-8 -8 10 -6 -8 -8 -13 -6
-8 -9 13 -3 -9 -9 -16 -8
-8 -9 16 0 -9 -10 -19 -10
-8 -10 19 3 -9 -11 -21 -12
-7 -12 21 7 -6 -9 -21 -13
-4 -13 21 14 2 -4 -18 -13
0 -15 21 20 10 3 -15 -12
3 -17 21 26 17 8 -11 -11
5 -19 21 32 25 13 -8 -11
17 -10 11 35 34 29 8 2
34 8 -7 35 47 52 30 20
52 24 -23 34 58 74 53 38
69 42 -39 33 69 98 75 56
87 59 -56 33 80 120 98 74
102 81 -70 36 99 149 127 99
115 107 -82 45 122 182 158 127
129 134 -96 53 145 215 191 154
142 159 -108 61 168 247 223 183
155 185 -121 68 191 280 256 211
154 193 -132 47 172 269 257 220
142 188 -141 4 125 228 234 215
129 183 -150 -38 76 187 213 211
116 178 -159 -81 29 146 191 206
103 173 -169 -124 -19 105 170 201
90 156 -169 -147 -50 71 143 184
74 133 -160 -156 -68 43 114 157
60 108 -152 -165 -87 13 86 131
46 85 -144 -175 -106 -16 56 105
30 60 -136 -184 -124 -46 27 78
21 47 -123 -178 -127 -57 12 61
14 42 -109 -161 -116 -55 6 51
8 35 -95 -144 -106 -53 -2 39
1 30 -80 -127 -96 -51 -8 28
-6 25 -66 -109 -86 -49 -14 18
-9 20 -56 -96 -76 -46 -17 11
-9 17 -47 -83 -67 -41 -17 6
-8 13 -38 -72 -59 -38 -17 2
-7 10 -30 -61 -51 -34 -17 -3
-7 6 -22 -49 -43 -30 -17 -8
-6 4 -16 -40 -36 -26 -18 -10
-6 2 -12 -34 -31 -23 -16 -10
-6 0 -8 -28 -26 -20 -14 -10
-6 -2 -4 -22 -21 -16 -13 -10
-6 -4 1 -16 -16 -13 -11 -10
-7 -5 3 -13 -14 -11 -10 -9
-8 -5 3 -12 -14 -11 -10 -10
-10 -6 4 -11 -13 -11 -11 -11
-11 -6 4 -10 -12 -11 -12 -11
-12 -6 4 -9 -12 -11 -12 -12
-13 -7 5 -8 -11 -11 -13 -13
-12 -7 5 -8 -11 -11 -13 -14
-11 -7 6 -8 -11 -11 -14 -16
-11 -7 7 -8 -11 -11 -14 -17
-10 -7 7 -8 -11 -11 -14 -18
-9 -8 8 -8 -10 -12 -15 -19
-9 -8 8 -8 -10 -12 -15 -19
-9 -8 8 -7 -10 -12 -15 -18
-9 -8 8 -6 -10 -12 -15 -18
-9 -8 8 -6 -10 -12 -15 -18
-9 -9 9 -5 -10 -11 -14 -17
-9 -9 9 -5 -10 -11 -14 -17
-8 -9 9 -4 -10 -10 -13 -17
-7 -9 9 -4 -10 -9 -13 -17
-7 -9 9 -4 -10 -9 -13 -17
-6 -10 9 -3 -9 -8 -12 -16
-7 -10 9 -3 -9 -8 -12 -16
-8 -10 10 -3 -9 -9 -13 -17
-8 -10 10 -3 -9 -10 -13 -17
-9 -10 10 -3 -9 -10 -13 -17
-10 -10 11 -2 -10 -11 -14 -18
-10 -10 11 -2 -10 -11 -14 -18
-10 -10 10 -3 -10 -11 -15 -18
-10 -10 10 -3 -10 -11 -15 -18
-10 -10 10 -3 -10 -11 -15 -18
-10 -11 9 -4 -11 -12 -16 -19
-10 -12 9 -4 -11 -12 -16 -19
-9 -13 8 -5 -11 -12 -16 -19
-8 -14 8 -5 -11 -12 -16 -19
-8 -15 8 -5 -11 -12 -16 -19
-7 -16 7 -6 -12 -13 -17 -20
-7 -16 7 -5 -12 -13 -17 -20
-8 -15 7 -4 -11 -12 -17 -19
-9 -14 7 -3 -10 -12 -17 -19
-9 -14 7 -2 -10 -12 -17 -19
-10 -13 8 0 -9 -11 -16 -18
-10 -14 8 0 -9 -11 -16 -18
-10 -15 8 -2 -9 -11 -17 -19
-10 -16 8 -2 -9 -11 -17 -19
-10 -17 8 -2 -9 -11 -17 -19
-11 -18 8 -3 -10 -12 -18 -20
-11 -18 8 -3 -9 -12 -18 -20
-10 -19 8 -2 -8 -12 -18 -21
-9 -20 8 -2 -8 -12 -18 -21
-9 -20 8 -2 -7 -12 -18 -21
-8 -21 7 0 -6 -11 -18 -22
-7 -21 7 0 -6 -11 -18 -22
-6 -20 7 0 -6 -12 -19 -23
-6 -19 7 0 -6 -12 -19 -24
-5 -19 7 0 -6 -12 -19 -24
-4 -18 7 1 -7 -13 -20 -25
-4 -19 7 2 -7 -13 -20 -25
-5 -21 6 3 -6 -12 -20 -26
-6 -22 5 3 -6 -12 -20 -26
-6 -23 5 4 -6 -12 -20 -26
-7 -24 4 5 -5 -11 -20 -27
-7 -24 4 5 -5 -11 -20 -27
-6 -25 5 5 -5 -11 -20 -27
-5 -25 5 5 -5 -11 -20 -27
-5 -25 5 5 -5 -11 -20 -27
-4 -26 6 7 -4 -10 -19 -27
-2 -26 6 9 -2 -8 -19 -27
0 -26 7 12 1 -7 -18 -27
1 -26 7 15 2 -6 -17 -27
3 -26 7 17 4 -4 -17 -27
4 -27 8 19 5 -3 -16 -26
4 -27 8 19 5 -3 -16 -26
4 -27 7 20 5 -3 -16 -26
4 -27 7 20 5 -3 -16 -26
4 -27 7 20 5 -3 -16 -26
4 -27 6 22 7 -3 -16 -26
7 -26 6 24 9 0 -16 -26
10 -25 6 27 12 2 -16 -26
12 -25 6 30 14 4 -16 -26
15 -24 6 32 16 6 -16 -26
17 -23 7 34 19 8 -15 -27
16 -23 7 36 21 10 -13 -26
14 -24 6 38 23 12 -11 -25
13 -25 6 40 25 14 -9 -24
12 -25 6 43 27 16 -7 -23
12 -26 5 45 29 18 -6 -22
15 -24 5 47 31 20 -4 -20
18 -22 6 49 34 23 -2 -19
20 -21 7 51 37 26 1 -18
23 -19 7 53 39 28 3 -16
25 -18 8 55 42 30 4 -15
25 -18 8 57 44 32 6 -14
25 -17 8 59 46 34 8 -13
25 -16 8 60 48 36 9 -13
25 -16 8 62 50 38 11 -12
26 -14 7 63 51 40 13 -11
26 -12 7 65 53 43 15 -9
27 -10 7 66 55 45 17 -7
28 -8 7 67 57 47 19 -6
28 -6 7 69 59 49 21 -4
29 -4 8 70 60 52 23 -2
29 -2 8 70 60 54 25 1
29 1 8 71 61 56 27 4
29 2 8 71 62 58 29 7
29 4 8 71 62 60 31 9
29 5 9 72 63 61 33 11
29 7 10 71 63 61 34 12
28 8 10 71 63 62 35 13
27 10 11 70 63 63 36 15
27 12 12 69 63 63 37 16
26 13 13 67 62 63 38 17
26 14 13 65 60 61 37 17
25 15 12 62 58 59 36 17
24 17 11 59 56 56 35 17
24 18 11 57 54 54 34 17
22 19 10 54 51 51 32 17
19 17 10 50 47 47 30 16
17 16 10 46 43 44 28 15
14 15 9 42 38 39 25 13
11 13 9 37 34 35 23 12
9 12 8 34 31 32 21 11
8 12 8 31 28 29 19 9
7 12 8 29 25 27 17 8
6 11 8 26 22 24 15 7
5 11 8 23 19 21 13 5
4 10 7 21 17 19 12 4
3 9 7 19 15 18 12 4
2 9 7 18 14 17 11 4
1 8 7 17 13 15 10 4
0 7 7 15 11 14 10 4
-2 6 6 14 10 12 8 3
-2 5 6 12 8 10 6 1
-2 5 6 10 6 8 4 0
-2 4 5 8 4 6 2 -2
-2 3 5 6 2 4 0 -4
-3 2 4 5 0 2 -3 -5
-4 0 4 4 0 2 -3 -5
-5 -2 3 3 -2 1 -3 -6
-6 -3 2 2 -3 0 -4 -7
-7 -5 2 1 -3 0 -4 -7
-8 -6 1 0 -4 -2 -5 -8
-7 -5 2 0 -4 -2 -5 -8
-7 -4 3 0 -4 -2 -4 -7
-6 -2 4 0 -4 0 -3 -6
-5 0 5 0 -4 0 -3 -6
-4 1 6 0 -3 1 -2 -5
-4 1 6 0 -3 1 -2 -5
-4 0 5 0 -3 1 -2 -5
-5 -2 4 0 -3 1 -2 -5
-5 -2 4 0 -3 1 -2 -5
-6 -3 3 -2 -4 1 -3 -5
-6 -3 3 -2 -4 0 -3 -5
-6 -3 2 -2 -5 -2 -4 -5
-6 -3 1 -3 -6 -4 -5 -6
-6 -3 1 -3 -6 -5 -5 -6
-6 -4 0 -4 -7 -6 -6 -7
-6 -4 0 -4 -7 -6 -6 -7
-6 -4 0 -4 -7 -6 -6 -7
-6 -4 0 -4 -7 -6 -6 -7
-6 -4 0 -4 -7 -6 -6 -7
-5 -5 0 -4 -6 -6 -7 -6
-5 -5 0 -4 -6 -6 -7 -6
-5 -6 0 -5 -6 -6 -7 -6
-5 -7 0 -6 -7 -6 -7 -6
-5 -7 0 -6 -7 -6 -7 -6
-6 -8 1 -7 -8 -5 -6 -7
-6 -7 1 -7 -8 -5 -6 -7
-7 -6 1 -6 -8 -5 -6 -7
-8 -4 1 -5 -7 -4 -6 -6
-8 -3 1 -5 -7 -4 -6 -6
-9 -2 1 -4 -6 -3 -5 -5
-9 -3 1 -4 -6 -3 -5 -5
-9 -3 1 -4 -6 -3 -5 -6
-10 -4 2 -4 -6 -4 -6 -7
-10 -5 2 -4 -6 -4 -6 -7
-11 -6 3 -4 -7 -5 -7 -8
-11 -6 3 -4 -7 -5 -7 -8
-10 -6 3 -4 -7 -5 -7 -8
-9 -6 3 -4 -7 -5 -7 -8
-9 -6 3 -4 -7 -5 -7 -8
-8 -5 4 -3 -7 -4 -7 -8
-8 -5 4 -3 -7 -4 -7 -8
-8 -5 4 -3 -7 -5 -7 -8
-8 -5 3 -3 -7 -6 -7 -8
-8 -5 3 -3 -7 -6 -7 -8
-9 -5 2 -3 -7 -7 -6 -7
-10 -5 2 -3 -7 -7 -6 -7
-10 -6 2 -3 -7 -7 -6 -7
-11 -7 2 -3 -8 -6 -7 -7
-12 -7 2 -3 -8 -6 -7 -7
-13 -8 2 -3 -9 -5 -8 -8
-12 -7 2 -3 -9 -5 -8 -8
-11 -6 2 -3 -9 -5 -8 -8
-9 -4 3 -3 -8 -5 -7 -8
-8 -3 3 -3 -8 -5 -7 -8
-7 -2 4 -3 -7 -4 -6 -8
-7 -2 4 -3 -7 -4 -6 -8
-8 -3 4 -3 -8 -4 -6 -8
-9 -4 3 -3 -9 -4 -6 -8
-9 -4 3 -3 -9 -4 -6 -8
-10 -5 2 -2 -10 -4 -7 -8
-10 -5 2 -2 -9 -4 -7 -8
-10 -5 2 -2 -8 -4 -7 -8
-9 -5 3 -2 -7 -4 -6 -7
-9 -5 3 -2 -6 -4 -6 -7
-8 -5 4 0 -5 -3 -5 -6
-8 -5 4 0 -5 -3 -5 -6
-8 -5 4 0 -5 -3 -5 -6
-8 -5 4 0 -5 -3 -5 -6
-8 -5 4 0 -5 -3 -5 -6
-7 -5 3 0 -6 -3 -4 -7
-7 -5 3 0 -6 -3 -4 -7
-7 -4 3 0 -6 -3 -5 -7
-7 -3 3 0 -6 -4 -6 -7
-7 -3 3 0 -6 -4 -6 -7
-6 -2 4 -2 -5 -5 -7 -7
-8 -2 4 -2 -5 -4 -6 -6
-10 -2 4 -2 -5 -3 -5 -6
-12 -2 4 0 -4 -2 -4 -5
-14 -2 4 0 -4 0 -3 -4
-16 -3 4 1 -3 1 -2 -3
-15 -3 4 1 -3 1 -2 -3
-13 -3 4 1 -3 0 -2 -3
-12 -4 3 0 -3 -2 -2 -3
-10 -4 3 0 -3 -2 -2 -3
-9 -5 2 -2 -4 -3 -3 -4
-9 -5 1 -3 -5 -4 -4 -5
-10 -6 1 -4 -7 -6 -5 -6
-11 -7 0 -5 -8 -7 -7 -8
-11 -7 -2 -6 -10 -9 -8 -9
-12 -8 -3 -7 -11 -10 -9 -10
-12 -8 -3 -7 -11 -10 -9 -10
-11 -8 -3 -7 -11 -10 -9 -10
-10 -8 -3 -7 -11 -9 -9 -10
-10 -8 -3 -7 -11 -9 -9 -10
-9 -7 -2 -8 -11 -8 -8 -10
-10 -7 0 -7 -10 -7 -8 -10
-11 -6 1 -7 -10 -6 -7 -9
-12 -5 2 -6 -9 -4 -6 -8
-13 -5 3 -5 -8 -3 -6 -8
-14 -4 4 -4 -7 -2 -5 -7
-13 -4 4 -4 -7 -2 -5 -7
-12 -4 4 -4 -7 -3 -5 -7
-11 -5 3 -5 -8 -4 -5 -7
-10 -5 3 -5 -8 -4 -5 -7
-9 -6 2 -6 -9 -5 -5 -6
-9 -7 2 -6 -10 -5 -5 -6
-9 -7 2 -7 -11 -5 -5 -7
-10 -8 1 -8 -12 -6 -5 -8
-10 -9 1 -8 -13 -6 -5 -8
-11 -10 0 -9 -14 -7 -6 -9
-11 -10 0 -9 -14 -7 -6 -9
-11 -9 0 -9 -13 -7 -6 -9
-11 -8 0 -9 -12 -7 -6 -8
-11 -8 0 -9 -12 -7 -6 -8
-10 -7 0 -9 -11 -7 -6 -7
-10 -7 0 -9 -11 -7 -6 -7
-10 -6 0 -9 -11 -7 -6 -7
-10 -5 1 -9 -11 -7 -6 -7
-10 -5 1 -9 -11 -7 -6 -7
-9 -4 2 -8 -11 -7 -6 -8
-9 -4 2 -8 -11 -7 -6 -8
-9 -4 2 -8 -11 -7 -6 -8
-9 -5 1 -8 -11 -7 -6 -8
-9 -5 1 -8 -11 -7 -6 -8
-8 -6 0 -9 -11 -7 -7 -8
-9 -6 0 -9 -11 -7 -7 -8
-10 -6 0 -9 -11 -7 -7 -8
-11 -7 0 -9 -11 -8 -7 -8
-12 -7 0 -9 -11 -8 -7 -8
-13 -8 0 -9 -11 -9 -8 -9
-13 -8 0 -9 -11 -9 -8 -9
-13 -8 0 -9 -11 -9 -8 -9
-12 -7 0 -9 -11 -9 -8 -9
-12 -7 0 -9 -11 -9 -8 -9
-11 -6 0 -10 -12 -10 -7 -8
-11 -6 0 -10 -12 -10 -7 -8
-11 -6 0 -10 -12 -10 -7 -8
-11 -6 0 -10 -12 -10 -8 -8
-11 -6 0 -10 -12 -10 -8 -8
-11 -6 -2 -11 -12 -10 -9 -9
-11 -6 0 -11 -12 -9 -9 -8
-10 -5 0 -10 -11 -9 -8 -8
-9 -4 1 -9 -10 -8 -7 -7
-9 -4 2 -9 -10 -7 -7 -6
-8 -3 3 -8 -9 -6 -6 -5
-9 -4 3 -8 -9 -6 -6 -5
-9 -4 3 -8 -9 -6 -6 -5
-10 -5 2 -8 -10 -6 -6 -5
-11 -6 2 -8 -10 -6 -6 -5
-12 -7 1 -8 -11 -6 -7 -6
-9 -7 1 -8 -11 -6 -7 -6
-7 -6 1 -8 -11 -6 -7 -6
-4 -5 1 -8 -11 -6 -7 -6
-2 -5 1 -8 -11 -6 -7 -6
1 -4 1 -9 -11 -7 -7 -5
1 -4 1 -9 -11 -7 -7 -5
0 -4 1 -9 -11 -7 -7 -5
-2 -3 1 -9 -11 -8 -7 -6
-2 -3 1 -9 -11 -8 -7 -6
-3 -2 1 -10 -12 -9 -7 -7
-5 -3 1 -10 -12 -9 -7 -7
-7 -4 1 -10 -12 -9 -7 -7
-9 -6 1 -10 -12 -9 -7 -7
-10 -7 1 -10 -12 -9 -7 -7
-12 -8 1 -9 -13 -9 -8 -6
-12 -8 1 -9 -13 -9 -8 -6
-12 -8 1 -9 -13 -9 -8 -6
-13 -8 1 -9 -13 -9 -8 -6
-13 -8 1 -9 -13 -9 -8 -6
-14 -9 0 -10 -12 -10 -8 -7
-12 -8 0 -10 -12 -10 -8 -7
-11 -8 0 -10 -12 -10 -8 -7
-9 -7 0 -10 -12 -10 -9 -7
-8 -6 0 -10 -12 -10 -9 -7
-6 -5 1 -10 -12 -11 -10 -8
-6 -4 1 -10 -12 -11 -10 -8
-7 -4 1 -10 -12 -11 -9 -8
-7 -3 1 -9 -12 -10 -9 -8
-8 -2 1 -9 -12 -10 -8 -8
-9 0 1 -8 -11 -9 -7 -8
-9 -2 1 -8 -11 -9 -7 -8
-9 -2 1 -8 -11 -9 -7 -8
-9 -3 2 -8 -11 -9 -7 -8
-9 -4 2 -8 -11 -9 -7 -8
-9 -5 3 -9 -10 -9 -8 -8
-9 -5 3 -9 -10 -9 -8 -8
-9 -5 3 -9 -10 -9 -8 -8
-9 -5 3 -8 -10 -9 -7 -7
-9 -5 3 -8 -10 -9 -7 -7
-9 -6 2 -7 -9 -8 -6 -6
-9 -5 2 -7 -9 -8 -6 -6
-9 -5 2 -7 -9 -8 -6 -6
-8 -4 2 -7 -9 -8 -6 -6
-8 -3 2 -7 -9 -8 -6 -6
-7 -2 3 -7 -9 -8 -6 -5
-7 0 3 -7 -9 -8 -6 -5
-7 0 4 -7 -9 -8 -6 -5
-7 1 4 -6 -8 -7 -6 -5
-7 2 5 -6 -8 -7 -6 -5
-6 3 6 -5 -7 -6 -5 -5
-6 4 7 -4 -6 -5 -4 -4
-6 4 7 -3 -5 -4 -4 -3
-5 5 8 -2 -4 -3 -3 -2
-5 6 9 0 -2 -2 -2 0
-4 7 10 1 0 0 0 1
-4 7 10 2 0 0 0 1
-4 7 10 3 0 0 1 1
-4 7 10 4 1 0 1 1
-4 7 10 5 1 0 2 1
-3 7 10 6 2 1 3 1
0 7 10 7 3 2 4 1
2 7 10 8 3 2 4 1
3 7 9 9 4 3 5 2
5 7 9 10 5 4 6 2
7 8 8 11 6 5 7 3
7 7 6 8 4 4 6 3
6 5 5 6 2 3 5 3
6 4 3 3 0 2 4 3
5 2 2 0 -3 1 2 3
4 1 0 -3 -5 0 1 3
3 0 -2 -5 -7 -3 0 2
3 -2 -2 -6 -9 -4 -2 1
2 -3 -3 -8 -10 -6 -3 0
1 -5 -4 -9 -12 -7 -4 -2
0 -6 -5 -11 -14 -9 -5 -3
0 -7 -5 -11 -14 -9 -5 -3
-2 -7 -5 -11 -14 -9 -5 -3
-2 -8 -5 -11 -14 -9 -6 -3
-3 -9 -5 -11 -14 -9 -6 -3
-4 -10 -4 -11 -14 -10 -7 -4
-5 -10 -4 -11 -14 -10 -7 -4
-6 -9 -4 -11 -14 -10 -8 -5
-7 -9 -3 -12 -14 -11 -8 -5
-8 -8 -3 -12 -14 -11 -9 -6
-9 -7 -2 -13 -15 -12 -10 -7
-10 -8 -2 -13 -15 -13 -10 -7
-10 -8 -2 -13 -15 -13 -10 -8
-11 -9 -2 -13 -15 -14 -11 -8
-12 -10 -2 -13 -15 -15 -11 -9
-13 -11 0 -14 -15 -16 -12 -10
-13 -11 0 -14 -15 -16 -12 -10
-13 -11 0 -14 -15 -16 -12 -10
-12 -11 0 -14 -15 -16 -12 -10
-12 -11 0 -14 -15 -16 -12 -10
-11 -12 -2 -14 -15 -16 -12 -10
-11 -12 0 -14 -15 -16 -12 -10
-11 -11 0 -14 -15 -16 -12 -10
-11 -11 1 -14 -15 -16 -12 -10
-11 -10 2 -14 -15 -16 -12 -10
-10 -9 3 -14 -15 -16 -12 -10
-11 -9 3 -14 -15 -16 -12 -10
-11 -10 3 -14 -15 -16 -12 -10
-12 -10 2 -14 -15 -16 -12 -9
-13 -11 2 -14 -15 -16 -12 -9
-14 -12 1 -13 -15 -15 -11 -8
-14 -12 2 -13 -15 -15 -11 -8
-14 -12 2 -13 -15 -15 -11 -8
-14 -12 3 -12 -15 -15 -11 -9
-14 -12 4 -12 -15 -15 -11 -9
-14 -11 5 -11 -14 -15 -12 -10
-16 -14 8 -9 -13 -17 -15 -13
-17 -17 10 -7 -13 -19 -17 -15
-19 -20 13 -4 -12 -21 -20 -17
-20 -22 16 -2 -11 -23 -23 -20
-22 -25 18 2 -9 -24 -25 -22
-19 -25 18 9 -3 -18 -21 -21
-16 -26 19 15 4 -13 -18 -20
-13 -26 19 21 9 -7 -15 -19
-10 -27 20 28 15 -2 -12 -17
-3 -24 17 33 22 9 -4 -12
15 -8 2 33 34 31 18 6
32 9 -15 33 47 54 39 23
50 26 -30 32 58 76 61 40
67 43 -47 32 70 99 82 58
84 62 -62 33 86 126 107 78
96 88 -75 42 110 161 142 107
108 112 -89 51 135 198 177 136
121 138 -102 59 159 234 211 165
134 163 -116 68 184 271 245 194
142 183 -129 66 193 289 268 217
132 179 -138 26 148 252 250 215
121 175 -148 -13 104 214 231 213
110 172 -158 -53 59 176 213 211
100 168 -168 -92 14 138 194 209
89 159 -175 -126 -25 100 173 200
74 135 -171 -140 -50 66 140 173
61 111 -165 -154 -73 32 108 145
47 87 -160 -169 -97 -3 75 117
32 62 -155 -183 -121 -36 43 90
20 44 -147 -190 -138 -63 17 66
15 39 -130 -173 -128 -62 10 54
10 35 -112 -155 -116 -60 3 42
5 32 -95 -138 -106 -59 -5 29
0 28 -77 -120 -95 -58 -12 17
-5 24 -62 -104 -85 -56 -18 7
-8 18 -53 -92 -76 -52 -18 2
-11 13 -44 -79 -67 -48 -18 -5
-14 7 -34 -67 -59 -44 -19 -10
-16 1 -25 -55 -50 -39 -19 -15
-19 -5 -17 -44 -41 -36 -20 -20
-19 -5 -13 -37 -37 -33 -19 -21
-18 -6 -9 -32 -32 -29 -17 -22
-18 -6 -6 -26 -27 -26 -16 -23
-17 -7 -2 -20 -22 -23 -15 -24
-16 -8 2 -15 -18 -20 -13 -25
-16 -8 2 -15 -18 -20 -13 -27
-16 -9 2 -15 -18 -20 -14 -29
-16 -9 3 -14 -18 -20 -14 -30
-16 -10 3 -14 -18 -20 -15 -32
-16 -11 4 -13 -17 -21 -16 -34
-16 -11 6 -11 -16 -20 -16 -34
-16 -11 8 -9 -14 -19 -16 -34
-16 -11 9 -6 -12 -18 -16 -33
-16 -11 11 -4 -11 -17 -16 -33
-15 -11 13 -2 -9 -16 -15 -32
-15 -12 13 -2 -9 -17 -15 -33
-16 -13 12 -3 -10 -18 -16 -34
-17 -14 12 -3 -10 -19 -16 -35
-18 -15 11 -4 -11 -20 -17 -36
-19 -16 10 -5 -12 -21 -18 -37
-19 -16 10 -5 -12 -21 -18 -37
-18 -16 10 -5 -12 -21 -18 -37
-17 -16 10 -5 -12 -22 -18 -38
-16 -16 10 -5 -12 -22 -18 -38
-15 -17 11 -6 -12 -23 -19 -39
-15 -17 11 -5 -12 -23 -19 -39
-15 -16 11 -4 -11 -22 -18 -38
-14 -16 12 -3 -11 -21 -18 -38
-14 -15 12 -2 -10 -20 -17 -37
-13 -14 13 0 -9 -19 -16 -36
-14 -14 13 0 -9 -19 -16 -36
-16 -15 13 0 -9 -19 -16 -36
-18 -15 13 0 -9 -20 -16 -36
-19 -16 13 0 -9 -20 -16 -36
-21 -17 13 1 -9 -21 -17 -37
-21 -18 13 1 -9 -21 -17 -37
-21 -19 13 1 -9 -22 -17 -37
-20 -20 12 0 -10 -22 -18 -38
-20 -22 12 0 -10 -23 -18 -38
-19 -23 11 -2 -11 -24 -19 -39
-18 -22 11 0 -11 -23 -19 -39
-17 -21 11 1 -11 -21 -19 -38
-16 -20 12 2 -10 -20 -19 -37
-14 -18 12 4 -10 -19 -19 -36
-13 -17 13 5 -9 -17 -18 -35
-13 -18 13 5 -9 -17 -18 -35
-13 -20 13 4 -9 -18 -18 -35
-13 -21 12 4 -9 -19 -18 -36
-13 -22 12 3 -9 -20 -18 -36
-12 -24 11 2 -9 -21 -19 -37
-13 -24 11 2 -9 -21 -19 -37
-14 -24 11 2 -9 -21 -19 -37
-15 -25 11 3 -9 -21 -19 -38
-16 -25 11 3 -9 -21 -19 -38
-17 -26 10 4 -8 -21 -19 -39
-15 -26 10 4 -8 -21 -19 -39
-14 -26 10 4 -8 -21 -20 -40
-12 -26 10 4 -7 -21 -20 -41
-10 -26 10 4 -7 -21 -21 -43
-8 -26 11 4 -6 -21 -22 -44
-9 -26 11 4 -6 -21 -22 -44
-11 -27 11 5 -6 -21 -22 -44
-12 -28 10 5 -5 -21 -22 -44
-13 -29 10 6 -5 -21 -22 -44
-15 -30 9 7 -4 -20 -22 -45
-14 -30 9 7 -4 -20 -22 -45
-13 -30 9 8 -3 -20 -22 -45
-12 -30 10 9 -3 -20 -22 -45
-11 -30 10 10 -2 -20 -22 -45
-10 -30 11 11 0 -20 -23 -45
-9 -30 11 12 1 -20 -23 -45
-7 -30 11 14 2 -19 -23 -45
-5 -31 10 16 3 -19 -23 -45
-4 -31 10 17 5 -18 -23 -45
-2 -32 9 19 6 -17 -22 -45
-4 -33 9 21 7 -16 -22 -45
-5 -34 10 22 9 -15 -21 -45
-7 -35 10 24 11 -14 -20 -44
-9 -36 11 26 12 -13 -19 -44
-11 -37 12 28 14 -12 -18 -43
-8 -36 12 30 16 -12 -18 -43
-4 -34 12 32 17 -11 -18 -43
0 -32 12 34 19 -10 -17 -43
4 -31 12 36 21 -9 -17 -43
7 -29 11 38 23 -8 -16 -43
7 -29 11 40 25 -6 -14 -43
7 -29 12 44 27 -3 -13 -41
7 -29 13 46 29 0 -11 -41
7 -29 14 48 32 2 -9 -40
7 -30 15 51 34 5 -7 -39
8 -29 15 53 36 8 -5 -37
9 -27 16 56 39 10 -4 -36
10 -26 16 58 42 13 -2 -34
11 -25 17 60 44 15 1 -32
13 -23 18 63 47 18 3 -30
14 -23 18 64 49 20 4 -29
16 -23 18 66 50 21 6 -27
17 -22 17 67 52 23 7 -26
18 -22 17 68 54 25 8 -25
20 -21 16 70 56 27 10 -23
20 -19 16 72 58 29 12 -22
21 -18 17 73 60 32 14 -20
21 -16 17 75 62 34 16 -18
22 -14 18 77 65 36 18 -17
23 -12 19 79 67 39 20 -15
23 -9 19 79 68 40 22 -13
24 -6 19 79 69 43 24 -11
24 -3 19 80 70 45 26 -9
25 1 19 80 71 46 28 -7
26 4 18 81 73 48 30 -5
25 4 18 80 73 48 30 -4
24 4 18 79 72 48 30 -3
23 4 18 78 71 48 31 -2
22 4 18 77 70 48 31 0
20 4 18 75 69 47 32 1
18 4 18 72 67 45 32 1
16 5 18 69 64 43 31 1
14 5 18 66 62 40 30 1
11 6 18 63 60 37 29 1
9 7 19 60 57 35 28 1
9 7 19 57 54 32 27 1
9 7 19 54 51 30 26 1
8 6 19 51 48 27 25 0
8 6 19 48 45 24 24 0
7 5 18 45 42 21 22 -2
6 4 17 42 38 18 20 -3
4 3 16 37 34 15 17 -4
2 2 15 34 31 11 15 -5
1 1 14 30 27 8 13 -6
-2 0 13 27 24 5 10 -7
-2 0 13 26 23 4 10 -7
-2 0 13 24 22 3 9 -8
-3 0 14 22 20 2 8 -9
-3 0 14 21 19 1 7 -10
-4 0 15 19 17 -2 6 -11
-4 0 15 17 16 -3 5 -11
-5 -2 15 16 15 -4 4 -12
-6 -2 15 14 13 -5 3 -12
-7 -3 15 12 12 -6 2 -13
-8 -4 14 10 10 -8 0 -14
-9 -5 13 10 9 -8 0 -14
-10 -6 12 9 8 -9 -2 -15
-11 -8 11 8 7 -9 -2 -15
-12 -9 10 7 6 -10 -3 -16
-13 -11 9 6 4 -11 -4 -17
-13 -11 9 6 4 -11 -4 -17
-13 -11 9 6 4 -11 -4 -17
-13 -11 9 6 3 -12 -4 -17
-13 -11 9 6 3 -12 -4 -17
-13 -10 9 5 2 -13 -5 -16
-13 -10 9 5 2 -13 -5 -16
-13 -10 9 5 2 -13 -5 -16
-13 -11 9 5 2 -13 -6 -16
-13 -11 9 5 2 -13 -6 -16
-14 -12 9 4 1 -12 -7 -17
-14 -12 9 4 1 -12 -7 -17
-13 -12 8 3 1 -13 -7 -17
-13 -12 8 3 1 -13 -7 -17
-12 -12 7 2 1 -14 -7 -17
-11 -12 6 1 0 -15 -8 -18
-11 -12 6 1 0 -15 -8 -18
-11 -12 6 1 0 -15 -7 -18
-11 -12 6 1 1 -14 -7 -17
-11 -12 6 1 1 -14 -6 -17
-11 -11 6 1 2 -13 -5 -16
-11 -11 6 1 2 -13 -5 -16
-12 -11 6 1 1 -13 -6 -16
-13 -11 6 1 1 -13 -6 -16
-14 -11 6 1 0 -13 -7 -16
-15 -12 7 1 -2 -14 -8 -17
-14 -12 7 1 -2 -14 -8 -17
-13 -12 7 1 -2 -14 -8 -17
-12 -12 7 1 -2 -14 -8 -17
-11 -12 7 1 -2 -14 -8 -17
-9 -11 8 2 0 -14 -9 -16
-9 -11 8 2 0 -14 -9 -16
-10 -11 8 2 0 -14 -9 -16
-11 -10 8 2 0 -15 -9 -16
-12 -10 8 2 0 -15 -9 -16
-13 -9 9 2 0 -16 -8 -16
-13 -9 9 2 0 -16 -8 -16
-13 -9 9 2 0 -16 -8 -16
-13 -9 9 2 0 -15 -8 -16
-13 -9 9 2 0 -15 -8 -16
-12 -10 9 3 0 -14 -8 -15
-12 -10 9 3 0 -14 -8 -15
-12 -10 9 3 0 -14 -8 -15
-11 -9 9 4 1 -14 -8 -14
-11 -9 9 4 1 -14 -8 -14
-10 -8 10 5 2 -14 -8 -13
-10 -8 10 5 2 -14 -8 -13
-11 -8 10 5 2 -14 -8 -13
-11 -9 9 4 2 -14 -9 -14
-12 -9 9 4 2 -14 -9 -14
-13 -10 8 3 1 -15 -10 -15
-13 -10 8 3 1 -15 -10 -15
-13 -10 8 3 1 -15 -10 -15
-12 -10 8 3 1 -15 -10 -15
-12 -10 8 3 1 -15 -10 -15
-11 -10 9 3 0 -15 -9 -16
-11 -10 9 3 0 -15 -9 -16
-12 -10 9 4 1 -15 -9 -16
-12 -11 9 4 1 -14 -9 -15
-13 -11 9 5 2 -14 -9 -15
-14 -12 8 6 3 -13 -10 -14
-14 -12 8 6 3 -13 -10 -14
-14 -12 8 6 3 -14 -10 -14
-14 -12 8 5 3 -14 -10 -15
-14 -12 8 5 3 -15 -10 -15
-14 -13 7 4 2 -16 -9 -16
-13 -12 7 4 2 -16 -8 -16
-12 -11 8 4 2 -16 -7 -16
-11 -10 8 5 3 -15 -6 -15
-10 -9 9 5 3 -15 -5 -15
-9 -7 10 6 4 -14 -4 -14
-9 -7 10 6 4 -14 -4 -14
-10 -7 10 6 4 -14 -5 -14
-10 -8 10 6 4 -14 -5 -13
-11 -8 10 6 4 -14 -6 -13
-12 -9 11 6 3 -14 -7 -12
-12 -9 11 6 3 -14 -7 -12
-12 -10 11 5 2 -14 -7 -12
-13 -10 10 5 2 -14 -8 -13
-13 -11 10 4 1 -14 -8 -13
-14 -12 9 3 0 -15 -9 -14
-14 -12 9 3 0 -15 -9 -14
-14 -12 9 3 0 -15 -9 -14
-14 -11 9 3 1 -15 -9 -14
-14 -11 9 3 1 -15 -9 -14
-13 -10 9 3 2 -14 -8 -13
-13 -10 9 3 2 -14 -8 -13
-12 -9 10 4 2 -14 -8 -13
-11 -9 11 4 2 -13 -7 -12
-10 -8 12 5 2 -13 -7 -12
-9 -7 13 6 3 -12 -6 -11
-9 -7 12 5 3 -12 -6 -11
-9 -7 11 4 2 -13 -7 -11
-8 -7 10 3 2 -13 -7 -12
-8 -7 9 2 1 -14 -8 -12
-7 -7 8 0 0 -15 -9 -13
-8 -7 8 0 0 -15 -9 -13
-9 -8 8 0 -2 -15 -9 -13
-10 -9 8 0 -2 -15 -9 -13
-11 -10 8 0 -3 -15 -9 -13
-12 -11 7 0 -4 -15 -9 -14
-12 -11 7 0 -4 -15 -9 -14
-12 -11 7 0 -4 -15 -9 -14
-12 -10 7 0 -4 -15 -9 -13
-12 -10 7 0 -4 -15 -9 -13
-13 -9 8 0 -4 -15 -8 -12
-13 -9 8 0 -4 -15 -8 -12
-13 -9 8 0 -4 -15 -8 -12
-13 -9 8 0 -4 -15 -8 -12
-13 -9 8 0 -4 -15 -8 -12
-14 -10 7 0 -4 -15 -9 -11
-14 -10 7 0 -4 -15 -9 -11
-13 -10 7 0 -4 -15 -9 -11
-12 -10 7 0 -4 -15 -9 -11
-11 -10 7 0 -4 -15 -9 -11
-10 -10 7 -2 -5 -15 -8 -11
-10 -10 7 -2 -5 -15 -8 -11
-10 -11 7 -2 -6 -15 -8 -11
-10 -11 7 -3 -6 -16 -9 -11
-10 -12 7 -3 -7 -16 -9 -11
-11 -13 6 -4 -8 -17 -10 -12
-10 -12 6 -4 -8 -17 -10 -12
-9 -11 6 -4 -7 -16 -10 -11
-8 -9 7 -3 -7 -16 -9 -11
-7 -8 7 -3 -6 -15 -9 -10
-5 -6 8 -2 -5 -14 -8 -9
-5 -6 8 -2 -5 -14 -8 -9
-6 -7 8 -2 -5 -14 -8 -9
-7 -7 7 -2 -5 -14 -8 -9
-8 -8 7 -2 -5 -14 -8 -9
-9 -9 6 -2 -6 -14 -8 -9
-11 -10 6 -2 -6 -14 -8 -9
-13 -11 6 -3 -7 -14 -9 -10
-15 -12 5 -4 -8 -15 -9 -10
-17 -13 5 -5 -9 -15 -10 -11
-20 -14 4 -6 -10 -16 -11 -12
-19 -13 5 -5 -9 -16 -11 -12
-17 -11 6 -4 -8 -15 -10 -11
-15 -9 7 -3 -7 -14 -9 -10
-13 -7 8 -2 -6 -13 -8 -9
-11 -5 9 1 -4 -12 -7 -8
-11 -6 9 0 -4 -12 -7 -8
-11 -7 8 -2 -5 -13 -8 -9
-11 -8 7 -3 -6 -14 -8 -9
-11 -9 6 -4 -7 -15 -9 -10
-11 -10 5 -5 -8 -16 -10 -11
-10 -9 5 -5 -7 -15 -9 -11
-10 -8 6 -4 -7 -14 -9 -10
-9 -6 7 -3 -6 -13 -8 -9
-8 -5 8 -2 -5 -12 -7 -8
-7 -4 8 -2 -4 -11 -6 -8
-6 -3 9 0 -3 -10 -5 -7
-6 -4 8 -2 -4 -11 -6 -7
-6 -5 7 -3 -5 -12 -7 -8
-6 -6 6 -4 -6 -13 -8 -8
-6 -7 6 -4 -6 -13 -8 -8
-7 -8 5 -5 -7 -14 -9 -9
-7 -8 6 -4 -7 -14 -9 -9
-8 -8 7 -3 -6 -14 -9 -8
-8 -8 8 -2 -6 -14 -9 -8
-8 -8 8 -2 -6 -14 -9 -8
-9 -7 9 0 -5 -13 -8 -7
-8 -7 8 0 -5 -13 -8 -7
-7 -7 8 -2 -5 -13 -8 -7
-6 -7 7 -2 -5 -13 -8 -7
-5 -7 7 -2 -5 -13 -8 -7
-5 -6 6 -3 -6 -13 -9 -8
-6 -6 6 -3 -6 -13 -9 -8
-7 -6 6 -3 -6 -13 -8 -8
-8 -6 6 -3 -6 -13 -8 -8
-9 -6 6 -3 -6 -13 -8 -8
-10 -7 6 -4 -6 -12 -7 -8
-10 -8 6 -4 -6 -12 -7 -8
-10 -8 6 -4 -6 -12 -8 -8
-10 -9 6 -4 -6 -12 -8 -8
-10 -9 6 -4 -6 -12 -8 -8
-9 -10 5 -5 -6 -13 -9 -8
-9 -9 5 -5 -6 -13 -9 -7
-9 -9 5 -4 -6 -13 -9 -7
-9 -8 5 -4 -6 -13 -9 -6
-9 -8 5 -4 -6 -13 -9 -6
-8 -7 6 -3 -6 -12 -8 -5
-7 -6 6 -3 -6 -12 -8 -5
-6 -5 7 -3 -6 -12 -8 -5
-5 -4 7 -3 -6 -12 -8 -5
-4 -4 7 -3 -6 -12 -8 -5
-4 -4 8 -3 -5 -11 -7 -5
-6 -5 7 -4 -6 -12 -7 -5
-8 -6 7 -4 -7 -12 -7 -6
-10 -7 6 -5 -8 -13 -7 -6
-11 -8 6 -5 -8 -13 -7 -6
-12 -9 5 -6 -9 -14 -8 -7
-12 -8 5 -6 -9 -14 -8 -7
-11 -7 4 -5 -8 -13 -8 -7
-11 -6 4 -5 -8 -13 -8 -7
-11 -6 4 -5 -8 -13 -8 -7
-9 -5 3 -4 -7 -12 -8 -7
-8 -4 4 -4 -7 -12 -8 -7
-7 -4 5 -4 -7 -12 -8 -7
-6 -3 6 -4 -7 -12 -8 -7
-5 -3 6 -4 -7 -12 -8 -7
-4 -2 7 -4 -8 -11 -7 -6
-4 -2 7 -4 -8 -10 -7 -6
-5 -3 7 -4 -8 -10 -7 -6
-5 -3 7 -4 -8 -9 -7 -6
-5 -3 7 -4 -8 -9 -7 -6
-6 -4 6 -4 -7 -8 -7 -6
-6 -4 6 -4 -7 -8 -7 -6
-6 -5 6 -4 -7 -8 -7 -6
-6 -5 6 -4 -7 -8 -7 -6
-6 -5 6 -4 -7 -8 -7 -6
-6 -6 6 -4 -8 -9 -7 -5
-6 -5 6 -3 -8 -9 -7 -4
-5 -4 6 -2 -8 -9 -6 -3
-5 -3 6 0 -8 -9 -6 -2
-5 -2 6 0 -8 -9 -6 -2
-4 1 7 1 -7 -8 -5 0
-3 2 8 1 -6 -7 -5 0
-2 3 8 1 -5 -7 -4 0
0 4 9 1 -4 -6 -4 0
0 5 9 1 -4 -6 -4 0
1 6 10 3 -2 -4 -2 0
0 7 11 4 0 -3 0 2
-2 8 12 6 2 0 1 3
-3 9 13 7 3 1 2 5
-3 9 13 8 4 2 3 6
-4 9 14 9 5 3 4 7
-3 8 13 9 5 3 4 7
-2 7 13 9 5 3 3 6
0 6 12 9 5 3 3 6
1 5 12 9 5 3 3 6
3 4 11 10 6 4 2 5
4 4 10 10 6 4 3 6
5 4 9 10 6 5 4 7
6 4 8 10 6 5 5 8
7 4 7 10 6 5 5 8
8 5 5 8 5 4 5 8
8 4 3 5 2 2 3 7
8 4 2 2 0 0 1 5
8 3 0 0 -4 -3 -2 4
8 3 -2 -4 -6 -5 -3 3
8 2 -3 -5 -7 -6 -4 2
8 1 -3 -5 -8 -7 -4 2
7 0 -3 -6 -9 -7 -5 1
7 -2 -3 -6 -10 -8 -5 1
7 -2 -3 -6 -10 -8 -5 1
5 -3 -4 -7 -11 -9 -6 0
3 -4 -4 -7 -11 -9 -6 0
1 -5 -3 -8 -11 -10 -7 -2
-2 -6 -3 -8 -11 -10 -7 -2
-3 -7 -3 -8 -11 -10 -7 -2
-4 -8 -2 -9 -12 -11 -8 -3
-5 -8 -2 -9 -12 -11 -8 -3
-5 -8 0 -9 -12 -11 -9 -3
-6 -8 0 -9 -12 -11 -9 -3
-6 -8 0 -9 -12 -11 -9 -3
-7 -8 1 -10 -12 -11 -10 -3
-7 -8 1 -10 -12 -11 -10 -4
-7 -8 1 -10 -12 -12 -10 -4
-7 -8 1 -10 -12 -12 -10 -5
-7 -8 1 -10 -12 -12 -10 -5
-8 -9 0 -11 -13 -13 -11 -6
-8 -9 0 -11 -13 -13 -11 -6
-9 -9 0 -12 -14 -13 -12 -6
-9 -9 0 -12 -14 -13 -12 -6
-9 -9 0 -12 -14 -13 -12 -6
-10 -10 0 -13 -15 -14 -13 -5
-10 -10 0 -13 -15 -14 -13 -5
-11 -10 1 -12 -14 -13 -13 -5
-11 -10 1 -12 -14 -13 -13 -5
-11 -10 1 -12 -14 -13 -13 -5
-12 -11 2 -11 -13 -12 -12 -4
-12 -11 2 -11 -13 -12 -12 -4
-12 -10 2 -11 -13 -12 -12 -4
-12 -10 2 -11 -13 -12 -12 -4
-12 -10 2 -11 -13 -12 -12 -4
-11 -9 2 -12 -13 -12 -13 -4
-12 -9 3 -12 -13 -12 -13 -5
-13 -10 5 -11 -13 -12 -13 -6
-14 -10 6 -11 -13 -12 -13 -7
-15 -10 7 -11 -13 -12 -13 -8
-16 -12 10 -6 -11 -13 -15 -10
-17 -14 14 0 -8 -13 -17 -13
-18 -16 17 5 -5 -14 -19 -15
-19 -18 20 10 -3 -14 -22 -17
-20 -19 23 15 1 -14 -24 -19
-11 -17 18 18 9 -5 -19 -16
1 -13 11 21 17 9 -12 -11
13 -9 3 24 25 21 -5 -7
25 -5 -5 26 33 33 3 -2
36 0 -13 29 43 46 10 4
56 22 -30 30 57 72 38 28
76 47 -50 30 73 101 70 55
97 72 -69 29 90 130 102 81
117 97 -88 29 106 157 134 108
138 122 -107 29 122 186 165 135
143 137 -120 25 125 196 181 153
147 150 -132 21 123 203 195 170
150 163 -143 17 123 212 210 186
153 177 -155 13 122 219 223 202
156 190 -166 9 122 227 237 219
142 175 -171 -29 78 185 210 202
125 153 -174 -72 29 136 175 182
106 133 -177 -114 -21 87 140 160
89 111 -180 -157 -70 37 105 140
71 91 -183 -199 -119 -12 70 118
59 79 -171 -195 -123 -25 54 103
48 68 -154 -182 -119 -32 39 88
35 58 -138 -169 -116 -39 25 73
24 48 -121 -156 -112 -47 12 58
13 37 -105 -143 -108 -55 -3 43
7 32 -91 -129 -99 -53 -7 35
2 28 -77 -113 -88 -49 -9 29
-4 24 -64 -99 -77 -45 -12 23
-9 20 -50 -83 -67 -40 -15 17
-14 16 -36 -68 -57 -36 -17 10
-15 12 -30 -59 -50 -33 -18 8
-15 9 -24 -51 -44 -30 -18 5
-15 5 -19 -41 -37 -27 -17 3
-15 2 -14 -33 -31 -24 -17 1
-15 -3 -8 -25 -25 -21 -17 -2
-14 -4 -6 -22 -23 -20 -16 -3
-14 -4 -4 -20 -22 -19 -16 -3
-13 -4 -2 -18 -20 -18 -15 -3
-13 -4 0 -16 -18 -17 -15 -3
-13 -4 2 -14 -17 -17 -15 -3
-12 -5 3 -13 -16 -16 -14 -4
-13 -6 4 -12 -15 -16 -14 -4
-14 -6 5 -11 -15 -16 -15 -4
-15 -7 6 -10 -14 -16 -15 -4
-15 -7 7 -9 -14 -16 -15 -4
-16 -8 8 -8 -13 -17 -16 -5
-15 -8 8 -8 -13 -17 -16 -5
-14 -8 9 -8 -13 -16 -16 -6
-13 -8 9 -8 -13 -16 -16 -6
-12 -8 9 -8 -13 -16 -16 -6
-11 -8 10 -8 -12 -15 -17 -7
-12 -8 10 -7 -12 -15 -17 -8
-13 -9 10 -7 -12 -15 -18 -8
-14 -9 10 -6 -12 -15 -18 -9
-14 -9 10 -6 -12 -15 -18 -9
-15 -10 10 -5 -13 -16 -19 -10
-15 -10 10 -5 -13 -16 -19 -10
-15 -10 10 -6 -13 -16 -18 -10
-15 -10 10 -6 -13 -16 -18 -10
-15 -10 10 -6 -13 -16 -18 -10
-14 -9 11 -7 -13 -17 -17 -9
-14 -10 11 -7 -13 -17 -18 -10
-14 -11 11 -7 -13 -17 -19 -10
-14 -12 11 -7 -13 -17 -20 -11
-14 -12 11 -7 -13 -17 -21 -11
-14 -13 11 -6 -13 -18 -22 -12
-14 -14 11 -6 -13 -18 -22 -12
-14 -15 10 -6 -13 -18 -22 -13
-14 -16 10 -6 -13 -18 -22 -13
-14 -16 10 -6 -13 -18 -22 -13
-14 -17 9 -7 -14 -18 -22 -14
-14 -17 9 -6 -14 -18 -23 -14
-14 -17 9 -6 -14 -18 -23 -15
-14 -17 9 -5 -14 -18 -24 -15
-14 -17 9 -5 -14 -18 -24 -15
-14 -17 9 -4 -13 -19 -25 -16
-14 -17 9 -4 -13 -19 -25 -15
-14 -17 10 -4 -13 -18 -25 -15
-14 -17 10 -4 -13 -18 -25 -14
-14 -17 10 -4 -13 -18 -25 -14
-15 -17 11 -5 -14 -17 -24 -13
-15 -18 11 -4 -14 -17 -24 -13
-14 -18 11 -3 -13 -17 -24 -13
-14 -19 11 -2 -13 -17 -24 -13
-14 -19 11 -2 -13 -17 -24 -13
-13 -20 11 0 -12 -17 -25 -14
-13 -20 11 0 -12 -17 -25 -14
-13 -20 11 0 -12 -17 -25 -14
-13 -20 11 0 -12 -17 -25 -14
-13 -20 11 0 -12 -17 -25 -14
-14 -20 10 0 -12 -16 -26 -15
-13 -20 10 0 -12 -16 -26 -15
-12 -21 10 1 -12 -16 -27 -16
-11 -21 10 1 -12 -16 -27 -16
-11 -21 10 1 -12 -16 -27 -16
-10 -22 9 2 -11 -16 -28 -17
-9 -22 9 3 -11 -15 -27 -17
-8 -22 9 3 -10 -15 -27 -17
-7 -22 9 4 -10 -14 -26 -17
-7 -22 9 4 -10 -14 -26 -17
-6 -21 10 5 -9 -13 -25 -16
-6 -22 10 7 -8 -13 -25 -17
-7 -23 10 8 -7 -13 -26 -18
-7 -24 10 9 -6 -13 -26 -19
-7 -25 10 10 -6 -13 -26 -19
-8 -26 11 11 -5 -12 -27 -20
-8 -27 10 12 -4 -12 -27 -20
-7 -28 10 13 -3 -12 -27 -20
-7 -29 9 14 -2 -12 -27 -20
-7 -29 9 14 -2 -12 -27 -20
-5 -30 8 16 1 -11 -26 -21
-3 -28 9 19 3 -10 -25 -21
1 -27 9 21 5 -9 -24 -20
3 -26 10 24 7 -8 -23 -20
5 -25 10 26 9 -7 -22 -20
7 -24 11 28 11 -5 -21 -19
8 -24 11 29 12 -3 -20 -19
9 -25 11 31 13 1 -20 -19
11 -25 11 33 15 3 -19 -19
12 -25 11 34 16 5 -19 -19
14 -25 11 36 19 7 -17 -18
15 -24 11 39 21 9 -16 -17
16 -22 12 42 24 11 -15 -17
18 -20 12 45 26 13 -13 -16
19 -19 12 47 29 15 -12 -16
20 -18 13 49 31 17 -10 -14
20 -17 13 51 33 19 -8 -13
20 -17 14 53 35 21 -6 -11
20 -16 14 55 37 22 -4 -9
20 -16 14 57 39 24 -2 -8
20 -14 15 59 42 26 1 -7
21 -13 15 61 44 28 2 -6
22 -12 15 63 46 30 4 -5
24 -10 15 64 47 32 6 -4
25 -9 15 66 49 34 7 -4
26 -7 15 68 51 36 9 -2
27 -4 16 69 52 39 12 1
27 -2 17 70 54 42 14 4
28 2 18 72 56 45 17 6
28 4 18 73 57 47 19 8
29 5 19 74 58 48 20 10
29 6 18 74 58 49 21 11
28 7 18 73 59 49 22 12
28 8 17 73 59 50 23 14
28 9 17 73 59 50 24 15
27 10 16 71 60 51 25 16
27 12 16 69 58 51 25 17
26 13 16 68 57 50 25 18
26 14 16 66 56 50 25 19
26 15 16 64 55 50 25 19
25 16 17 61 53 48 26 20
24 17 17 59 51 46 25 20
23 18 17 56 48 43 25 20
22 19 17 53 46 40 24 20
21 19 17 50 44 38 24 20
19 19 17 47 40 35 22 19
17 16 17 43 37 32 19 18
16 14 17 38 33 29 17 17
14 11 17 34 30 26 14 16
12 9 17 30 26 23 12 15
10 8 16 28 24 22 11 14
8 8 15 26 22 21 10 13
5 8 15 24 20 20 9 13
3 8 14 22 18 19 8 12
1 8 14 20 16 19 8 12
0 8 13 18 14 17 7 11
1 8 13 15 12 15 5 10
1 8 13 13 10 13 4 9
2 8 13 10 8 11 3 8
2 8 13 8 6 9 2 8
3 8 12 7 5 8 1 7
1 6 11 6 4 6 0 6
0 5 11 5 3 5 -2 5
-2 4 10 5 3 4 -2 5
-3 3 10 4 2 3 -3 4
-4 2 9 3 1 2 -4 3
-4 2 9 2 0 2 -5 3
-4 2 9 2 0 1 -5 3
-4 2 9 1 -2 1 -6 3
-4 2 9 1 -2 1 -6 3
-5 2 9 0 -3 0 -7 2
-5 1 9 -2 -4 -2 -7 2
-5 0 9 -2 -4 -2 -7 2
-5 0 9 -3 -5 -3 -7 2
-5 -2 9 -3 -5 -3 -7 2
-6 -3 8 -4 -6 -4 -8 1
-6 -3 8 -4 -6 -4 -8 1
-6 -2 7 -5 -6 -4 -8 1
-6 -2 7 -5 -6 -4 -8 1
-6 -2 7 -5 -6 -4 -8 1
-6 0 6 -6 -6 -3 -8 1
-7 -3 6 -6 -6 -3 -9 0
-8 -4 6 -6 -7 -3 -9 0
-8 -5 6 -6 -7 -3 -10 -2
-9 -6 6 -6 -7 -3 -10 -2
-10 -6 5 -7 -8 -4 -11 -3
-10 -5 6 -7 -8 -4 -10 -2
-9 -4 6 -6 -8 -3 -9 0
-9 -2 7 -6 -8 -3 -9 0
-9 0 7 -6 -8 -3 -8 1
-8 1 8 -5 -7 -2 -7 2
-7 1 8 -5 -7 -2 -7 2
-7 1 8 -5 -6 -2 -8 2
-6 1 8 -5 -6 -2 -8 2
-6 1 8 -5 -6 -2 -8 2
-5 0 9 -5 -5 -2 -9 1
-5 1 9 -5 -5 -2 -9 1
-6 1 9 -5 -5 -2 -9 1
-6 2 9 -5 -5 -2 -9 1
-6 2 9 -5 -5 -2 -9 1
-7 3 8 -4 -5 -3 -8 0
-7 2 7 -4 -5 -3 -8 0
-7 2 7 -4 -5 -3 -8 0
-7 1 6 -4 -5 -3 -8 0
-7 1 6 -4 -5 -3 -8 0
-7 0 5 -4 -6 -2 -9 0
-7 1 6 -4 -6 -2 -9 0
-6 1 6 -4 -5 -2 -8 0
-6 2 7 -4 -5 -2 -8 0
-6 2 7 -4 -5 -2 -8 0
-5 3 8 -3 -4 -2 -7 0
-6 3 8 -3 -4 -2 -7 0
-6 3 8 -3 -4 -2 -7 0
-7 3 8 -3 -4 -2 -7 0
-7 3 8 -3 -4 -2 -7 0
-8 2 8 -3 -4 -2 -8 0
-8 1 8 -3 -4 -2 -8 0
-8 0 8 -3 -5 -3 -8 0
-8 -2 8 -3 -5 -3 -8 0
-8 -3 8 -3 -5 -3 -8 0
-8 -4 7 -4 -6 -4 -9 -2
-8 -3 7 -4 -6 -4 -9 -2
-8 -3 8 -3 -5 -4 -9 -2
-8 -2 8 -3 -5 -4 -9 -2
-8 -2 8 -3 -5 -4 -9 -2
-9 0 9 -2 -4 -3 -8 -2
-9 0 9 -2 -4 -3 -8 -2
-9 0 9 -2 -5 -3 -8 -2
-9 0 9 -2 -5 -3 -8 -2
-9 0 9 -2 -5 -3 -8 -2
-8 1 8 -3 -6 -3 -9 -3
-8 1 8 -3 -6 -3 -9 -3
-9 1 8 -3 -6 -3 -9 -3
-9 1 8 -3 -6 -3 -9 -3
-9 1 8 -3 -6 -3 -9 -3
-10 2 8 -2 -5 -2 -8 -2
-9 2 8 -2 -5 -2 -8 -2
-8 2 7 -2 -5 -2 -8 -2
-8 2 7 -2 -5 -2 -8 -2
-7 2 7 -2 -5 -2 -8 -2
-6 2 6 -2 -5 -2 -9 0
-6 2 6 -2 -6 -3 -9 -2
-6 2 6 -2 -6 -3 -9 -2
-6 2 6 -2 -7 -4 -9 -3
-6 2 6 -2 -7 -4 -9 -3
-7 3 7 0 -8 -5 -8 -4
-6 3 7 0 -8 -4 -8 -3
-6 4 8 0 -7 -4 -8 -2
-5 4 8 0 -7 -3 -8 -2
-5 4 8 0 -7 -3 -8 0
-4 5 9 0 -6 -2 -7 1
-5 5 9 0 -6 -2 -7 0
-5 5 8 -2 -6 -3 -8 -2
-6 5 8 -2 -6 -3 -8 -2
-6 5 8 -2 -6 -3 -8 -3
-7 4 7 -3 -7 -4 -9 -4
-7 4 6 -4 -7 -4 -9 -4
-7 3 6 -5 -7 -4 -9 -4
-7 3 5 -5 -7 -4 -9 -4
-7 3 5 -6 -7 -4 -9 -4
-7 2 4 -7 -7 -4 -9 -3
-7 2 4 -6 -7 -4 -9 -3
-7 2 4 -5 -7 -4 -9 -3
-7 2 4 -5 -7 -4 -9 -3
-7 2 4 -4 -7 -4 -9 -3
-6 2 5 -3 -7 -5 -9 -2
-7 2 5 -4 -7 -5 -9 -2
-7 1 4 -5 -8 -5 -9 -2
-8 1 4 -6 -8 -5 -9 -2
-8 1 4 -7 -8 -5 -9 -2
-9 0 3 -8 -9 -6 -9 -3
-9 0 3 -8 -9 -6 -9 -3
-9 0 3 -8 -9 -6 -9 -3
-9 0 3 -8 -9 -6 -9 -3
-9 0 3 -8 -9 -6 -9 -3
-10 0 4 -8 -10 -5 -10 -3
-9 0 4 -8 -10 -5 -10 -3
-7 1 4 -8 -10 -5 -10 -3
-6 2 4 -8 -10 -5 -10 -3
-5 2 4 -8 -10 -5 -10 -3
-4 3 4 -7 -9 -4 -9 -2
-5 2 4 -7 -9 -4 -9 -2
-7 1 4 -7 -9 -4 -8 -2
-8 0 4 -7 -9 -4 -8 -2
-9 -2 4 -7 -9 -4 -8 -2
-10 -3 3 -6 -8 -3 -7 -2
-10 -3 3 -6 -8 -3 -7 -2
-10 -3 3 -6 -8 -4 -7 -2
-10 -3 3 -6 -8 -5 -7 -2
-10 -3 3 -6 -8 -5 -7 -2
-9 -3 3 -7 -9 -6 -8 -3
-8 -2 3 -7 -9 -6 -8 -3
-6 1 3 -7 -9 -6 -8 -3
-5 2 3 -7 -9 -6 -8 -3
-4 4 3 -7 -9 -6 -8 -3
-4 5 3 -8 -10 -6 -9 -3
-5 4 3 -8 -10 -6 -9 -3
-7 3 2 -9 -11 -7 -9 -3
-8 2 1 -9 -11 -7 -9 -3
-10 1 1 -9 -11 -7 -9 -3
-11 0 0 -10 -12 -8 -10 -4
-11 0 0 -10 -12 -8 -10 -4
-10 0 0 -9 -11 -8 -10 -4
-10 0 0 -9 -11 -8 -10 -4
-10 0 0 -9 -11 -8 -10 -4
-9 -2 1 -8 -10 -7 -9 -4
-9 -2 1 -8 -10 -7 -9 -4
-8 -2 0 -9 -11 -7 -9 -4
-7 -2 -2 -9 -12 -7 -9 -4
-7 -2 -2 -9 -12 -7 -9 -4
-6 -3 -3 -10 -13 -6 -9 -4
-6 -3 -3 -10 -13 -6 -9 -4
-6 -3 -2 -9 -12 -6 -9 -4
-6 -3 -2 -9 -12 -6 -9 -4
-6 -3 -2 -9 -12 -6 -9 -4
-5 -2 0 -8 -11 -6 -9 -4
-5 -2 0 -8 -11 -6 -9 -4
-5 0 0 -8 -11 -6 -9 -4
-5 0 0 -8 -11 -6 -9 -4
-5 0 0 -8 -11 -6 -9 -4
-6 1 -2 -8 -11 -5 -8 -4
-6 1 -2 -8 -11 -5 -8 -4
-6 0 0 -8 -10 -5 -8 -4
-6 -2 0 -8 -10 -5 -8 -4
-6 -2 0 -8 -10 -5 -8 -4
-7 -3 1 -8 -9 -5 -8 -5
-8 -3 1 -8 -9 -5 -8 -5
-9 -3 1 -8 -10 -6 -8 -5
-10 -3 1 -8 -11 -6 -8 -5
-11 -3 1 -8 -11 -6 -8 -5
-12 -3 0 -8 -12 -7 -8 -4
-11 -3 0 -8 -12 -7 -8 -4
-10 -2 0 -9 -12 -7 -9 -5
-10 -2 0 -9 -12 -7 -9 -5
-9 -2 0 -9 -12 -7 -9 -5
-8 0 -2 -10 -11 -8 -10 -6
-8 1 -2 -10 -11 -8 -10 -5
-8 2 -2 -9 -11 -7 -9 -4
-8 3 -2 -9 -11 -7 -9 -4
-8 4 -2 -9 -11 -7 -9 -3
-7 5 0 -8 -11 -6 -8 -2
-7 4 0 -8 -11 -6 -9 -2
-8 2 -2 -8 -11 -7 -10 -3
-8 1 -2 -8 -11 -7 -10 -4
-8 0 -2 -8 -11 -7 -11 -4
-9 -2 -3 -9 -12 -8 -12 -5
-9 -2 -3 -9 -12 -8 -12 -5
-9 -3 -4 -10 -13 -8 -12 -5
-9 -4 -4 -10 -13 -8 -12 -5
-9 -4 -4 -10 -13 -8 -12 -5
-8 -5 -5 -11 -14 -9 -12 -5
-8 -5 -5 -11 -14 -9 -12 -5
-8 -4 -4 -10 -13 -8 -11 -5
-8 -3 -3 -10 -12 -7 -10 -5
-8 -3 -3 -10 -12 -7 -10 -5
-8 -2 -2 -9 -11 -6 -9 -4
-8 -2 -2 -9 -11 -6 -9 -4
-7 -2 -3 -9 -12 -6 -9 -4
-6 -2 -3 -9 -12 -6 -9 -4
-6 -2 -3 -9 -12 -6 -9 -4
-5 -3 -4 -8 -13 -7 -10 -4
-5 -3 -4 -8 -13 -7 -10 -4
-5 -2 -4 -8 -13 -7 -10 -4
-5 0 -4 -8 -13 -7 -10 -4
-5 0 -4 -8 -13 -7 -10 -4
-6 1 -3 -8 -12 -7 -10 -5
-7 1 -3 -8 -12 -7 -10 -5
-8 0 -3 -8 -12 -7 -10 -5
-8 -2 -3 -8 -12 -7 -10 -5
-9 -2 -3 -8 -12 -7 -10 -5
-10 -3 -4 -8 -13 -7 -9 -4
-10 -3 -4 -8 -13 -7 -9 -4
-10 -4 -4 -8 -13 -7 -9 -4
-10 -4 -4 -8 -13 -7 -9 -4
-10 -4 -4 -8 -13 -7 -9 -4
-10 -5 -4 -9 -14 -8 -8 -5
-9 -5 -4 -9 -14 -8 -8 -5
-8 -4 -4 -9 -13 -8 -8 -5
-8 -3 -4 -9 -13 -8 -8 -5
-7 -3 -4 -9 -13 -8 -8 -5
-6 -2 -3 -9 -12 -7 -7 -4
-7 -2 -3 -9 -12 -7 -7 -4
-8 -3 -3 -9 -12 -7 -8 -4
-8 -4 -3 -9 -12 -7 -9 -4
-9 -4 -3 -9 -12 -7 -9 -4
-10 -4 -3 -9 -13 -8 -10 -5
-9 -2 -3 -8 -12 -8 -10 -5
-8 1 -2 -7 -11 -7 -9 -4
-8 3 -2 -7 -10 -7 -9 -4
-7 5 -2 -6 -9 -7 -9 -4
-6 6 0 -5 -8 -6 -8 -3
-6 6 1 -4 -8 -5 -7 -3
-5 6 2 -3 -7 -4 -6 -2
-5 6 2 -2 -7 -4 -5 -2
-5 6 3 0 -7 -3 -4 -2
-4 6 4 1 -6 -2 -3 0
-3 6 4 1 -6 -2 -3 0
-2 7 3 1 -5 0 -2 0
-2 7 3 1 -4 1 -2 0
0 7 3 1 -4 1 -2 0
1 8 2 0 -3 2 0 1
1 8 2 1 -2 3 0 1
1 8 2 2 1 4 0 2
1 8 2 2 2 4 0 2
1 8 2 3 3 5 0 2
2 9 3 4 4 6 1 3
4 10 3 5 4 7 2 3
6 11 2 6 5 8 3 4
8 11 2 7 6 9 4 5
10 12 2 8 6 10 5 5
11 13 0 8 6 11 6 6
11 12 -3 6 4 10 5 6
11 10 -5 4 2 8 4 5
11 9 -7 2 0 7 4 4
11 8 -9 -2 -4 6 3 4
11 7 -10 -3 -5 5 2 3
10 5 -10 -5 -6 3 1 2
9 4 -11 -6 -8 1 -2 0
8 3 -11 -7 -9 -2 -3 -2
7 1 -11 -9 -10 -4 -4 -3
5 0 -12 -10 -11 -5 -5 -4
3 -2 -12 -10 -11 -5 -5 -4
1 -4 -12 -10 -12 -6 -6 -5
-2 -5 -12 -10 -13 -7 -6 -5
-4 -6 -12 -10 -13 -7 -6 -5
-5 -7 -11 -11 -14 -8 -7 -6
-5 -7 -11 -11 -14 -8 -7 -6
-6 -8 -10 -12 -15 -9 -8 -7
-6 -8 -10 -12 -16 -9 -9 -8
-6 -8 -10 -12 -16 -9 -9 -8
-7 -9 -9 -13 -17 -10 -10 -9
-7 -9 -9 -13 -17 -10 -10 -9
-7 -10 -10 -13 -17 -10 -10 -9
-7 -10 -10 -13 -17 -10 -10 -9
-7 -10 -10 -13 -17 -10 -10 -9
-6 -11 -11 -12 -18 -10 -10 -9
-6 -10 -10 -12 -18 -10 -10 -9
-6 -9 -9 -12 -18 -10 -10 -9
-6 -9 -9 -12 -18 -10 -10 -9
-6 -8 -8 -12 -18 -10 -10 -9
-5 -7 -7 -12 -17 -10 -10 -8
-5 -7 -7 -12 -17 -10 -10 -8
-6 -7 -7 -12 -17 -10 -10 -8
-6 -7 -7 -12 -17 -10 -10 -8
-6 -7 -7 -12 -17 -10 -10 -8
-7 -8 -8 -11 -16 -11 -10 -9
-8 -8 -8 -11 -16 -11 -10 -9
-10 -8 -7 -11 -15 -10 -9 -8
-11 -8 -7 -11 -15 -10 -9 -7
-12 -8 -7 -11 -15 -10 -9 -7
-13 -8 -6 -11 -14 -9 -8 -6
-12 -8 -6 -11 -14 -9 -8 -6
-11 -8 -6 -11 -14 -9 -8 -7
-10 -8 -6 -11 -14 -9 -8 -7
-9 -8 -6 -11 -14 -9 -8 -7
-8 -8 -6 -10 -15 -10 -10 -9
-9 -10 -3 -8 -15 -11 -12 -11
-10 -13 1 -6 -14 -13 -14 -14
-11 -16 3 -4 -13 -14 -16 -16
-12 -18 6 -2 -13 -15 -18 -18
-12 -20 8 3 -9 -14 -18 -20
-10 -18 8 9 -3 -8 -15 -18
-7 -16 8 16 4 -2 -12 -17
-5 -15 8 22 10 4 -10 -16
-3 -13 8 28 16 10 -7 -14
10 -5 -2 32 24 22 6 -5
29 11 -19 30 34 43 26 13
50 25 -37 29 45 63 47 30
70 40 -55 28 55 82 67 47
91 55 -72 26 65 103 88 64
108 75 -88 29 80 128 113 86
122 100 -100 39 102 157 143 112
137 125 -112 49 123 188 173 139
151 149 -124 58 145 218 201 164
165 174 -137 68 167 247 231 191
168 183 -148 53 156 244 237 202
155 173 -158 10 111 207 217 198
143 162 -169 -32 67 171 196 194
130 152 -179 -75 22 134 176 189
117 142 -189 -118 -23 97 155 185
103 129 -190 -144 -54 65 133 171
87 111 -180 -152 -70 39 107 147
71 94 -169 -160 -87 14 82 125
55 75 -157 -169 -104 -12 57 101
38 58 -147 -177 -120 -37 31 77
27 47 -134 -174 -124 -50 16 61
20 40 -118 -155 -113 -48 11 51
13 35 -103 -137 -102 -46 6 40
6 30 -87 -118 -90 -43 1 30
-2 24 -71 -100 -78 -40 -5 20
-7 19 -60 -86 -69 -37 -8 12
-9 14 -52 -75 -62 -35 -10 6
-11 9 -44 -65 -56 -32 -11 1
-13 4 -35 -55 -49 -29 -12 -5
-15 -2 -28 -45 -41 -27 -14 -11
-17 -5 -21 -36 -36 -24 -15 -14
-15 -5 -17 -31 -32 -21 -13 -15
-13 -5 -12 -26 -28 -18 -12 -15
-11 -4 -7 -20 -24 -15 -11 -16
-9 -4 -3 -15 -20 -12 -9 -17
-7 -3 1 -12 -18 -10 -8 -18
-9 -4 1 -12 -18 -11 -9 -20
-10 -5 1 -12 -18 -12 -9 -22
-11 -7 1 -11 -18 -14 -10 -24
-13 -8 1 -11 -18 -15 -11 -26
-14 -9 0 -10 -18 -16 -12 -28
-14 -10 1 -9 -17 -15 -12 -28
-14 -10 2 -8 -17 -14 -12 -28
-14 -11 4 -6 -16 -13 -12 -27
-14 -12 5 -5 -15 -12 -12 -27
-13 -13 6 -4 -14 -11 -11 -26
-11 -12 6 -4 -14 -12 -12 -26
-10 -11 6 -4 -14 -12 -13 -26
-9 -10 6 -4 -14 -13 -14 -26
-7 -9 6 -4 -14 -14 -15 -26
-6 -8 6 -4 -14 -15 -16 -27
-8 -10 6 -4 -14 -15 -16 -27
-9 -11 6 -4 -14 -15 -16 -28
-10 -13 6 -4 -14 -15 -16 -29
-12 -15 6 -4 -14 -15 -16 -29
-13 -16 5 -5 -14 -14 -15 -30
-13 -16 5 -5 -14 -14 -15 -30
-14 -16 5 -5 -14 -14 -15 -30
-15 -16 4 -5 -14 -15 -15 -30
-15 -16 4 -5 -14 -15 -15 -30
-16 -17 3 -4 -14 -16 -16 -29
-15 -17 4 -4 -14 -16 -16 -29
-15 -17 4 -4 -14 -16 -16 -29
-14 -16 5 -3 -14 -15 -16 -29
-13 -16 6 -3 -14 -15 -16 -29
-12 -15 7 -2 -13 -14 -15 -28
-12 -15 7 -2 -13 -14 -15 -28
-12 -15 7 -2 -13 -15 -15 -29
-12 -15 7 -3 -13 -16 -16 -30
-12 -15 7 -3 -13 -16 -16 -30
-11 -16 6 -4 -14 -17 -17 -31
-11 -16 6 -3 -13 -16 -17 -31
-11 -16 6 -3 -13 -16 -17 -31
-11 -16 6 -2 -12 -15 -16 -30
-11 -16 6 0 -11 -14 -16 -30
-10 -16 7 1 -10 -13 -15 -29
-10 -16 7 1 -10 -13 -15 -29
-10 -17 7 1 -10 -14 -15 -29
-11 -18 6 1 -10 -15 -15 -29
-11 -18 6 1 -10 -15 -15 -29
-12 -19 5 0 -10 -16 -16 -30
-12 -19 5 0 -10 -16 -16 -31
-12 -20 5 0 -10 -16 -17 -31
-12 -21 5 0 -11 -16 -18 -32
-12 -21 5 0 -11 -16 -18 -33
-11 -22 6 0 -12 -15 -19 -34
-11 -22 6 1 -12 -15 -19 -34
-10 -22 6 1 -12 -15 -19 -34
-9 -23 6 2 -11 -15 -18 -33
-9 -23 6 3 -11 -15 -18 -33
-8 -24 6 4 -10 -15 -17 -32
-8 -25 6 4 -10 -15 -17 -32
-8 -25 6 4 -10 -15 -18 -33
-8 -26 6 4 -10 -16 -19 -34
-8 -27 6 4 -10 -16 -19 -34
-7 -28 5 4 -10 -17 -20 -35
-6 -28 5 6 -10 -16 -20 -35
-5 -28 5 7 -9 -16 -20 -35
-4 -28 5 8 -8 -15 -20 -35
-3 -28 5 10 -8 -14 -20 -35
-2 -27 4 11 -7 -13 -20 -35
-2 -28 4 12 -6 -13 -20 -35
-2 -28 4 12 -6 -12 -19 -35
-3 -29 4 13 -5 -11 -18 -35
-3 -30 4 14 -4 -11 -18 -35
-4 -31 5 15 -3 -10 -17 -36
-3 -31 5 16 -2 -10 -17 -36
-2 -31 5 18 -2 -10 -17 -36
0 -31 6 19 0 -9 -17 -36
1 -31 6 21 1 -9 -17 -36
2 -31 7 22 2 -8 -18 -36
5 -31 7 24 5 -6 -17 -35
7 -31 7 26 7 -4 -16 -35
9 -30 7 28 9 -2 -14 -34
11 -30 7 30 11 1 -13 -33
13 -29 7 33 13 3 -12 -32
13 -28 7 35 16 5 -11 -32
13 -28 7 38 18 7 -10 -31
13 -27 7 40 20 9 -8 -30
13 -26 7 44 22 10 -7 -30
14 -25 8 46 24 12 -6 -29
15 -25 8 48 26 14 -5 -29
15 -25 9 50 28 16 -3 -28
16 -25 10 52 30 18 -2 -27
17 -25 10 54 32 19 1 -27
18 -25 11 56 34 21 2 -26
21 -24 12 59 36 24 4 -24
23 -23 12 61 38 26 6 -22
25 -22 13 63 40 28 8 -20
27 -21 14 65 43 30 9 -19
29 -20 15 67 45 32 11 -17
29 -18 15 68 47 35 14 -16
29 -16 14 68 49 37 16 -15
29 -14 13 69 51 39 18 -13
29 -13 13 70 53 42 20 -12
28 -10 12 71 55 44 22 -11
29 -7 12 72 56 46 24 -8
29 -4 12 73 57 47 25 -6
30 0 13 74 58 49 27 -4
31 3 13 75 59 51 29 -2
32 5 14 76 60 52 30 1
32 6 14 76 60 52 31 2
31 7 14 75 60 52 32 4
30 8 15 74 60 53 34 5
30 9 15 74 60 53 35 7
29 10 16 72 60 54 36 8
26 10 15 69 58 52 35 8
24 10 15 66 55 50 34 8
22 10 14 63 52 48 33 9
20 10 13 60 49 47 32 9
18 10 12 58 47 45 31 10
17 10 13 56 44 43 30 10
16 10 13 54 42 40 29 10
15 11 14 52 39 38 28 9
14 11 15 50 37 36 27 9
13 12 16 47 34 33 26 8
11 10 15 43 31 30 23 6
9 8 14 38 27 27 21 5
7 6 13 35 24 24 18 3
6 4 12 31 21 20 16 1
4 2 11 28 18 18 14 0
4 3 11 27 17 17 14 0
5 4 11 26 16 16 13 0
6 5 11 24 14 14 12 0
6 6 11 23 13 13 12 0
7 7 12 22 12 12 11 -2
5 5 12 20 10 11 10 -2
3 3 12 18 9 9 10 -3
1 1 12 16 7 8 9 -4
0 0 12 14 6 6 8 -4
-3 -3 11 12 4 5 7 -5
-3 -4 10 11 3 4 6 -6
-3 -5 9 10 2 4 6 -6
-3 -7 8 8 1 3 5 -7
-3 -8 7 7 0 2 4 -8
-3 -9 6 6 -2 1 3 -9
-3 -8 6 6 -2 1 2 -9
-3 -8 6 5 -2 0 2 -9
-3 -7 6 4 -2 -2 1 -9
-3 -6 6 4 -2 -2 0 -9
-3 -5 7 3 -3 -3 -2 -10
-3 -5 7 3 -3 -3 -2 -10
-3 -4 7 3 -3 -3 -2 -10
-3 -3 7 3 -3 -3 -2 -10
-3 -3 7 3 -3 -3 -2 -10
-3 -2 7 4 -2 -2 0 -10
-3 -2 7 4 -2 -2 0 -10
-3 -2 7 4 -2 -2 0 -10
-4 -2 7 4 -2 0 0 -10
-4 -2 7 4 -2 0 0 -10
-5 -3 8 5 -2 1 1 -9
-5 -4 7 4 -3 0 0 -9
-5 -5 7 4 -3 -2 0 -9
-5 -6 6 3 -4 -3 -2 -9
-5 -7 5 2 -5 -4 -3 -9
-6 -8 4 1 -6 -5 -4 -10
-6 -8 4 1 -6 -5 -4 -10
-6 -8 4 1 -6 -5 -4 -10
-6 -8 4 1 -6 -5 -4 -10
-6 -8 4 1 -6 -5 -4 -10
-7 -8 5 0 -6 -6 -3 -11
-7 -8 5 0 -6 -5 -3 -11
-7 -7 6 0 -6 -5 -3 -10
-6 -6 7 1 -6 -4 -2 -9
-6 -6 7 1 -6 -3 -2 -9
-5 -5 8 2 -5 -2 0 -8
-5 -5 8 2 -5 -2 0 -8
-5 -5 8 2 -5 -2 0 -8
-5 -5 7 2 -5 -2 -2 -9
-5 -5 7 2 -5 -2 -2 -9
-5 -6 6 1 -5 -3 -3 -10
-5 -6 6 1 -5 -3 -3 -10
-5 -6 6 1 -5 -3 -3 -10
-5 -7 6 1 -5 -3 -4 -10
-5 -7 6 1 -5 -3 -4 -10
-6 -8 7 2 -6 -3 -5 -10
-6 -8 7 2 -6 -3 -5 -10
-6 -8 8 2 -6 -3 -5 -10
-6 -7 9 2 -5 -3 -4 -10
-6 -7 9 2 -5 -3 -4 -10
-5 -6 10 3 -4 -2 -3 -9
-4 -6 10 3 -4 -2 -3 -9
-4 -5 10 3 -4 -2 -3 -9
-3 -5 10 3 -4 0 -3 -9
-2 -4 10 3 -4 0 -3 -9
0 -3 11 4 -3 1 -3 -10
-2 -4 11 4 -3 1 -3 -10
-3 -5 11 4 -3 1 -3 -10
-4 -6 10 4 -3 0 -3 -10
-5 -7 10 4 -3 0 -3 -10
-6 -8 9 3 -4 -2 -2 -9
-6 -8 9 3 -4 0 -2 -9
-6 -7 9 4 -3 0 -2 -9
-7 -7 10 4 -3 1 -2 -9
-7 -6 10 5 -2 2 -2 -9
-8 -5 11 6 0 3 0 -8
-8 -5 11 6 0 3 0 -8
-7 -5 11 6 0 3 0 -8
-7 -5 10 6 -2 2 0 -8
-6 -5 10 6 -2 2 0 -8
-5 -4 9 5 -3 1 0 -8
-5 -4 9 5 -3 1 0 -8
-5 -4 9 5 -3 1 0 -8
-6 -5 8 5 -4 1 0 -8
-6 -5 8 5 -4 1 0 -8
-7 -6 7 4 -5 0 -2 -9
-6 -6 7 4 -5 0 -2 -9
-5 -6 7 4 -5 0 -2 -9
-4 -6 8 4 -5 0 -2 -9
-2 -6 8 4 -5 0 -2 -9
0 -5 9 4 -5 -2 -3 -9
-3 -6 9 3 -5 -2 -3 -9
-5 -6 9 2 -5 -2 -3 -9
-7 -7 9 1 -5 -2 -4 -9
-9 -8 9 0 -5 -2 -4 -9
-11 -9 8 -2 -6 0 -5 -10
-10 -9 8 -2 -6 0 -5 -10
-9 -8 8 -2 -6 -2 -5 -10
-8 -8 8 -2 -6 -2 -5 -10
-6 -7 8 -2 -6 -3 -5 -10
-5 -6 7 -3 -7 -4 -5 -11
-5 -4 7 -3 -6 -3 -5 -10
-4 -3 8 -2 -5 -3 -4 -10
-4 0 8 -2 -4 -2 -4 -9
-3 1 9 0 -3 0 -3 -8
-2 3 10 1 -2 1 -2 -7
-2 3 9 1 -3 0 -2 -7
0 2 8 0 -3 0 -3 -7
0 2 7 0 -4 -2 -3 -8
1 1 6 -2 -5 -3 -4 -8
2 0 5 -3 -6 -4 -5 -9
0 -2 5 -3 -6 -4 -5 -9
-2 -4 5 -3 -6 -4 -5 -9
-4 -5 5 -3 -6 -4 -5 -9
-5 -7 5 -3 -6 -4 -5 -9
-7 -8 5 -3 -7 -4 -5 -8
-6 -7 5 -3 -7 -4 -5 -8
-5 -6 5 -3 -7 -4 -5 -8
-4 -5 5 -3 -8 -4 -5 -9
-3 -4 5 -3 -8 -4 -5 -9
-2 -3 6 -3 -9 -4 -6 -10
-2 -3 6 -3 -9 -4 -6 -10
-2 -3 6 -3 -9 -4 -6 -10
-2 -4 5 -4 -9 -4 -6 -10
-2 -4 5 -4 -9 -4 -6 -10
-3 -5 4 -5 -10 -4 -7 -9
-3 -5 4 -5 -9 -4 -7 -9
-4 -5 4 -5 -9 -3 -7 -8
-4 -5 5 -5 -8 -3 -6 -8
-5 -5 5 -5 -7 -2 -6 -7
-6 -4 6 -6 -6 0 -5 -6
-6 -4 6 -6 -6 0 -5 -7
-7 -4 5 -6 -7 0 -5 -7
-7 -4 5 -6 -7 -2 -5 -8
-8 -4 4 -6 -8 -2 -5 -9
-9 -4 3 -6 -9 -3 -6 -10
-8 -4 3 -6 -9 -3 -6 -10
-8 -4 3 -6 -9 -3 -6 -10
-7 -4 3 -6 -9 -3 -6 -9
-6 -4 3 -6 -9 -3 -6 -9
-5 -5 4 -5 -9 -3 -5 -8
-5 -5 4 -5 -9 -3 -5 -8
-5 -4 4 -5 -9 -3 -5 -8
-4 -4 4 -5 -9 -3 -5 -9
-4 -3 4 -5 -9 -3 -5 -9
-3 -2 5 -5 -9 -3 -4 -10
-4 -2 5 -5 -9 -3 -4 -10
-5 -2 5 -5 -9 -3 -4 -10
-6 -2 4 -5 -9 -3 -4 -9
-7 -2 4 -5 -9 -3 -4 -9
-8 0 3 -6 -9 -2 -5 -8
-7 0 3 -6 -9 -2 -5 -8
-7 0 3 -6 -9 -2 -5 -8
-6 0 3 -6 -9 -2 -5 -8
-5 0 3 -6 -9 -2 -5 -8
-4 0 3 -7 -10 -2 -5 -9
-4 0 3 -7 -10 -2 -5 -9
-5 0 3 -7 -10 -2 -5 -8
-5 -2 2 -7 -10 -3 -5 -8
-6 -2 2 -7 -10 -3 -5 -7
-7 -3 1 -6 -9 -4 -6 -6
-7 -3 1 -6 -9 -4 -6 -6
-7 -3 1 -6 -9 -4 -6 -6
-7 -3 1 -6 -9 -4 -6 -7
-7 -3 1 -6 -9 -4 -6 -7
-6 -3 2 -7 -9 -3 -7 -8
-6 -3 2 -7 -9 -3 -7 -8
-6 -2 2 -7 -9 -3 -7 -8
-6 -2 2 -7 -9 -3 -6 -8
-6 0 2 -7 -9 -3 -6 -8
-6 1 3 -7 -10 -2 -5 -7
-7 1 3 -7 -10 -2 -5 -7
-9 0 3 -7 -10 -2 -5 -7
-10 0 3 -7 -10 -3 -6 -7
-11 -2 3 -7 -10 -3 -6 -7
-13 -3 3 -7 -11 -4 -7 -8
-10 -3 3 -7 -11 -4 -7 -8
-7 -2 3 -7 -11 -4 -7 -8
-4 0 2 -7 -11 -4 -7 -8
-2 1 2 -7 -11 -4 -7 -8
2 2 1 -8 -11 -4 -6 -8
2 2 1 -8 -11 -4 -6 -8
1 2 1 -8 -11 -4 -6 -7
0 2 1 -8 -11 -4 -6 -7
-2 2 1 -8 -11 -4 -6 -6
-3 2 2 -7 -10 -3 -5 -5
-4 1 2 -7 -10 -3 -5 -5
-6 -2 2 -8 -10 -4 -6 -5
-8 -4 2 -9 -11 -4 -6 -5
-9 -5 2 -10 -11 -5 -7 -5
-11 -7 2 -11 -12 -6 -8 -5
-10 -5 2 -11 -11 -5 -7 -5
-8 -3 2 -11 -10 -4 -6 -5
-7 -2 2 -10 -9 -3 -5 -5
-6 1 2 -10 -7 0 -4 -5
-4 3 3 -9 -6 1 -3 -4
-4 2 3 -9 -7 0 -4 -4
-4 1 2 -9 -8 -2 -5 -5
-4 0 1 -9 -9 -3 -6 -5
-4 -2 0 -9 -10 -4 -8 -6
-4 -3 -2 -10 -11 -5 -9 -7
-4 -3 -2 -10 -11 -5 -9 -7
-4 -3 0 -10 -11 -5 -9 -7
-4 -3 0 -10 -11 -5 -9 -7
-4 -3 1 -10 -11 -5 -9 -7
-5 -3 2 -9 -11 -4 -8 -6
-5 -3 2 -9 -11 -4 -8 -6
-6 -3 2 -9 -11 -4 -8 -5
-6 -2 2 -9 -11 -4 -8 -5
-7 -2 2 -9 -11 -4 -8 -4
-8 0 3 -8 -10 -3 -7 -3
-8 0 3 -8 -10 -3 -7 -3
-7 0 3 -8 -10 -3 -7 -4
-7 -2 3 -8 -10 -3 -7 -4
-6 -2 3 -8 -10 -3 -7 -5
-5 -3 2 -9 -11 -4 -8 -6
-5 -3 2 -9 -11 -4 -8 -6
-5 -2 3 -9 -11 -4 -8 -6
-5 0 3 -8 -10 -4 -8 -5
-5 1 4 -8 -10 -4 -8 -5
-4 2 5 -7 -9 -4 -8 -4
-4 2 5 -7 -9 -4 -8 -4
-5 2 5 -7 -9 -4 -7 -3
-5 2 5 -6 -9 -3 -6 -2
-6 2 5 -6 -9 -3 -5 0
-7 1 4 -5 -8 -2 -4 1
-6 3 5 -4 -6 0 -4 1
-4 5 6 -2 -5 1 -3 2
-3 8 7 1 -3 2 -2 2
-2 10 8 2 0 3 0 3
1 12 9 4 2 4 1 4
1 12 9 4 2 4 1 4
1 12 9 4 2 5 1 4
1 12 9 4 2 5 1 5
1 12 9 4 2 6 1 5
2 12 10 5 3 7 2 6
3 12 10 6 4 8 3 7
4 11 10 8 5 10 4 8
5 11 9 10 6 11 5 9
6 10 9 11 7 12 7 10
7 9 8 13 8 14 8 11
7 9 7 11 8 14 8 11
7 9 6 10 8 13 7 11
7 8 5 8 8 13 6 11
7 8 3 6 8 12 5 11
8 7 2 4 7 11 4 10
8 6 1 1 3 8 2 8
7 4 -2 -3 0 5 0 6
6 2 -3 -5 -4 1 -3 4
5 1 -4 -8 -8 -3 -5 1
4 -2 -6 -11 -11 -6 -7 -2
4 -2 -5 -11 -11 -6 -7 -2
4 -2 -4 -10 -11 -5 -6 0
4 -2 -3 -10 -10 -5 -6 0
4 -2 -2 -9 -10 -4 -5 1
3 -3 0 -8 -9 -3 -4 2
2 -4 0 -8 -9 -3 -4 2
0 -5 -2 -8 -9 -4 -5 2
-3 -6 -2 -8 -10 -4 -6 1
-4 -8 -3 -8 -10 -5 -7 1
-6 -9 -4 -9 -11 -6 -8 0
-6 -9 -4 -9 -11 -6 -8 0
-6 -9 -3 -9 -11 -7 -9 -2
-6 -9 -3 -10 -11 -8 -9 -2
-6 -9 -2 -10 -11 -9 -10 -3
-5 -9 0 -11 -12 -10 -11 -4
-5 -9 0 -11 -12 -10 -11 -4
-6 -9 0 -11 -12 -10 -11 -4
-7 -9 0 -11 -13 -11 -12 -4
-8 -9 0 -11 -13 -11 -12 -4
-9 -9 -2 -12 -14 -12 -13 -5
-9 -9 -2 -12 -14 -12 -13 -5
-9 -9 -2 -12 -14 -12 -13 -5
-9 -9 -2 -12 -14 -12 -13 -5
-9 -9 -2 -12 -14 -12 -13 -5
-9 -8 0 -12 -14 -12 -12 -4
-9 -8 0 -12 -14 -12 -12 -4
-9 -7 1 -12 -14 -12 -11 -4
-9 -7 1 -12 -14 -12 -11 -4
-9 -6 2 -12 -14 -12 -10 -4
-8 -5 3 -11 -13 -11 -9 -3
-8 -6 3 -11 -13 -11 -9 -3
-9 -7 2 -11 -13 -12 -10 -4
-10 -8 2 -12 -13 -12 -10 -4
-11 -9 1 -12 -13 -13 -11 -5
-12 -11 0 -13 -14 -14 -12 -6
-12 -11 1 -11 -14 -14 -13 -7
-12 -11 3 -9 -13 -15 -15 -9
-12 -11 4 -7 -13 -16 -16 -10
-12 -11 5 -5 -12 -17 -17 -11
-11 -12 7 -3 -11 -18 -19 -13
-11 -13 9 4 -6 -15 -19 -13
-10 -15 11 10 1 -12 -19 -14
-10 -16 13 16 6 -9 -18 -15
-9 -17 15 22 11 -6 -18 -16
-6 -18 16 28 17 0 -15 -15
9 -6 5 28 28 20 5 0
22 6 -7 29 39 40 23 14
36 17 -18 29 52 61 42 29
51 29 -29 30 63 80 61 44
66 43 -41 31 76 104 81 60
81 68 -57 37 99 140 117 90
97 95 -72 43 122 177 152 118
112 120 -88 49 145 214 187 148
128 147 -103 55 169 251 223 177
142 170 -117 57 185 281 254 202
136 174 -128 27 154 267 251 206
130 177 -138 -3 122 253 247 211
123 181 -148 -32 92 238 244 215
118 184 -158 -62 60 224 241 219
110 185 -168 -91 28 205 233 220
95 159 -165 -114 -9 152 191 192
79 134 -164 -138 -46 100 150 164
63 108 -162 -161 -82 47 108 137
48 81 -160 -185 -118 -7 66 109
33 59 -157 -204 -150 -53 28 84
25 52 -141 -189 -140 -53 19 70
17 45 -124 -173 -130 -54 10 58
10 37 -109 -156 -119 -54 1 45
2 30 -93 -140 -109 -55 -9 32
-6 23 -77 -124 -99 -56 -18 20
-7 19 -67 -110 -90 -51 -18 15
-8 16 -57 -97 -79 -46 -19 10
-10 12 -47 -83 -70 -40 -19 6
-11 9 -35 -69 -60 -35 -20 1
-13 5 -26 -57 -51 -30 -21 -5
-12 4 -21 -49 -45 -26 -20 -5
-11 3 -17 -40 -37 -22 -19 -6
-10 1 -12 -33 -31 -18 -17 -6
-9 0 -8 -25 -25 -14 -16 -7
-8 -3 -3 -18 -19 -10 -14 -8
-8 -4 -3 -18 -19 -10 -14 -8
-8 -5 -3 -17 -19 -10 -14 -8
-9 -6 -3 -16 -18 -10 -14 -8
-9 -7 -3 -15 -18 -10 -14 -8
-10 -8 -2 -14 -17 -11 -14 -7
-10 -8 0 -13 -16 -10 -14 -7
-11 -8 1 -12 -15 -9 -14 -7
-12 -8 2 -10 -14 -8 -14 -8
-13 -8 3 -9 -13 -7 -14 -8
-14 -9 5 -7 -12 -6 -15 -9
-14 -9 5 -7 -12 -6 -15 -9
-14 -9 6 -7 -12 -7 -15 -9
-14 -9 6 -7 -13 -8 -15 -10
-14 -9 7 -7 -13 -9 -15 -10
-14 -10 8 -7 -14 -10 -15 -11
-14 -10 8 -7 -14 -10 -15 -11
-13 -10 8 -7 -14 -10 -16 -11
-13 -10 8 -7 -14 -10 -16 -11
-12 -10 8 -7 -14 -10 -17 -11
-11 -9 8 -6 -14 -9 -18 -12
-11 -9 8 -6 -14 -9 -18 -12
-11 -9 8 -6 -14 -9 -18 -12
-11 -9 8 -6 -14 -8 -17 -12
-11 -9 8 -6 -14 -8 -17 -12
-11 -9 7 -6 -14 -7 -16 -12
-11 -9 7 -6 -14 -7 -16 -12
-11 -10 6 -6 -14 -7 -17 -12
-11 -10 6 -6 -14 -8 -17 -13
-11 -11 5 -6 -14 -8 -18 -13
