I II V1 V2 V3 V4 V5 V6
-4 -18 9 -7 1 -1 -4 -5
-4 -18 8 -8 0 0 -4 -5
-10 -21 7 -8 0 -3 -4 4
-12 -17 7 -8 1 -2 -3 8
-14 -20 7 -8 1 0 -4 4
-15 -25 7 -9 0 -2 -5 5
-15 -29 8 -8 -1 -4 -4 -1
-14 -30 7 -9 -1 -3 -6 -2
-10 -29 7 -9 -2 -4 -6 -3
-4 -23 5 -9 -2 -2 -6 -1
-2 -17 4 -10 -3 -4 -7 -3
-6 -17 4 -9 0 -3 -5 -3
-1 -21 7 -8 1 -3 -3 -1
-5 -22 7 -8 0 -2 -4 -2
-7 -23 8 -8 1 1 -3 -1
-5 -16 8 -7 2 -1 -2 1
3 -13 8 -7 1 -3 -4 -1
2 -14 10 -5 2 -1 -5 3
-7 -26 12 -5 -1 -5 -7 3
-16 -39 14 -4 -3 -9 -12 -6
-14 -39 20 3 1 -4 -12 -12
-10 -37 25 11 9 -2 -10 -11
-8 -30 34 23 18 5 -5 -8
2 -21 39 32 27 12 -1 -4
4 -13 44 43 37 20 7 5
5 -1 51 55 52 33 16 10
-1 5 62 72 72 56 33 23
-2 6 64 82 86 67 41 29
7 12 67 93 103 81 54 41
15 23 72 107 125 101 69 56
13 34 74 118 145 124 89 65
13 49 66 118 160 142 105 78
18 66 41 103 171 158 122 93
30 89 6 84 179 174 140 111
36 108 -34 58 178 186 152 130
34 116 -77 22 159 174 148 129
29 108 -120 -27 116 135 129 119
22 103 -151 -71 72 100 105 110
12 102 -172 -111 27 57 79 91
-1 89 -194 -155 -20 14 49 70
-1 70 -219 -194 -64 -24 20 47
5 41 -244 -226 -103 -58 -6 28
10 18 -259 -245 -123 -77 -21 21
15 0 -266 -251 -136 -87 -31 8
18 -15 -267 -253 -142 -93 -39 0
11 -25 -255 -240 -139 -92 -42 -2
7 -28 -228 -216 -126 -88 -41 -5
10 -22 -199 -192 -116 -82 -41 -6
4 -24 -166 -164 -103 -73 -37 -6
5 -30 -139 -141 -90 -66 -35 -6
5 -30 -116 -122 -78 -57 -32 -5
8 -28 -101 -110 -73 -51 -32 -12
3 -29 -82 -94 -61 -46 -28 -10
1 -28 -66 -80 -52 -38 -25 -12
-7 -32 -53 -68 -46 -38 -24 -6
-10 -34 -44 -59 -44 -38 -26 -11
-4 -28 -33 -48 -35 -32 -22 -10
2 -23 -22 -38 -26 -24 -15 -6
-10 -29 -18 -34 -22 -20 -14 -6
-1 -24 -15 -30 -18 -19 -13 -1
7 -24 -13 -29 -17 -17 -15 -2
-5 -36 -13 -30 -20 -19 -18 -10
-8 -32 -11 -27 -20 -21 -19 -14
-2 -28 -5 -22 -15 -15 -15 -12
0 -28 -1 -18 -14 -15 -12 -5
-1 -25 3 -16 -13 -14 -11 -9
-7 -30 3 -14 -10 -12 -10 -12
-12 -37 -1 -18 -13 -13 -14 -16
-13 -37 -1 -17 -13 -12 -14 -13
-5 -26 1 -14 -10 -8 -11 -11
-1 -18 5 -10 -7 -9 -9 -5
-3 -13 6 -10 -8 -9 -9 -8
-11 -23 8 -9 -7 -9 -8 -7
-3 -29 5 -13 -13 -11 -13 -5
-6 -33 6 -12 -12 -10 -11 3
-5 -30 6 -11 -12 -11 -11 -7
-6 -29 7 -9 -9 -9 -11 -9
-6 -29 5 -10 -10 -11 -12 -8
-5 -28 2 -13 -12 -13 -13 -14
3 -23 3 -12 -10 -13 -12 -17
4 -22 4 -10 -8 -11 -9 -11
-4 -26 6 -11 -10 -10 -10 -13
-5 -28 7 -10 -10 -11 -11 -8
-5 -28 7 -11 -11 -12 -13 -11
-5 -25 11 -7 -7 -8 -10 -9
-8 -22 14 -5 -7 -8 -9 -8
-9 -25 12 -5 -7 -9 -10 -11
-2 -25 10 -7 -9 -11 -11 -12
-1 -27 8 -7 -10 -10 -10 -10
-3 -26 8 -8 -9 -9 -9 -6
-6 -25 11 -6 -6 -6 -6 -7
-10 -24 11 -6 -7 -4 -6 -5
-5 -25 12 -6 -8 -7 -6 -2
-1 -24 11 -9 -10 -8 -10 -9
-5 -22 14 -5 -7 0 -8 -4
-3 -19 15 -4 -8 -5 -9 -5
-4 -20 14 -4 -8 -7 -9 -6
-3 -18 15 -3 -8 -6 -9 0
-1 -22 12 -5 -9 -8 -10 -8
1 -24 10 -7 -9 -9 -11 -12
4 -23 9 -8 -9 -8 -9 -11
1 -19 13 -5 -7 -5 -5 -7
-8 -22 15 -4 -9 -6 -5 -3
-2 -21 14 -4 -10 -10 -7 -7
1 -22 15 -3 -10 -9 -6 -8
-3 -25 14 -4 -11 -8 -7 -9
-12 -34 14 -4 -10 -10 -8 -4
-7 -30 14 -2 -9 -8 -7 -8
0 -22 14 -3 -9 -7 -7 -3
2 -24 12 -4 -9 -5 -8 -7
-1 -24 11 -5 -9 -8 -8 -15
-3 -24 10 -6 -11 -9 -10 -5
-6 -27 13 -3 -9 -8 -8 -5
-4 -21 12 -4 -12 -10 -11 -14
-3 -18 12 -4 -12 -10 -11 -14
-6 -24 12 -4 -12 -12 -12 -16
-6 -25 13 -3 -10 -9 -11 -13
-3 -24 12 -3 -10 -6 -11 -15
-6 -24 13 -2 -9 -6 -8 -16
-4 -24 16 -1 -8 -3 -8 -15
1 -22 14 -3 -9 1 -8 -16
2 -20 13 -5 -13 -9 -9 -13
-2 -27 13 -4 -12 -10 -9 -11
-1 -28 12 -4 -13 -11 -9 -13
-5 -29 15 -2 -11 -10 -7 -8
-3 -26 14 -2 -14 -11 -10 -12
6 -22 13 -4 -14 -11 -13 -15
6 -23 11 -6 -15 -11 -13 -11
-1 -27 11 -5 -12 -10 -10 -10
2 -26 10 -4 -12 -7 -10 -14
4 -25 13 -3 -11 -7 -9 -11
-4 -27 13 -3 -12 -8 -8 -8
-10 -34 11 -7 -16 -11 -14 -15
-9 -32 12 -5 -16 -12 -13 -16
1 -25 11 -5 -16 -13 -14 -11
-2 -23 11 -4 -16 -13 -13 -10
0 -27 8 -7 -19 -15 -15 -14
2 -32 5 -9 -21 -14 -16 -20
3 -31 4 -10 -22 -16 -15 -18
2 -29 3 -11 -23 -17 -16 -15
2 -28 3 -11 -22 -15 -14 -14
8 -26 -1 -15 -26 -23 -17 -15
6 -29 -1 -16 -29 -23 -20 -19
7 -33 -1 -16 -29 -23 -21 -19
1 -37 -3 -18 -31 -27 -22 -25
2 -33 -3 -18 -29 -25 -21 -22
0 -34 -4 -18 -28 -24 -20 -21
2 -34 -6 -19 -29 -24 -19 -18
2 -34 -9 -22 -31 -23 -18 -13
1 -35 -12 -23 -31 -23 -18 -11
2 -33 -12 -25 -32 -24 -17 -14
-1 -33 -14 -29 -35 -29 -18 -15
6 -30 -16 -30 -37 -27 -20 -17
10 -30 -15 -32 -36 -28 -20 -23
5 -33 -16 -33 -38 -30 -20 -17
0 -31 -17 -33 -38 -31 -20 -17
-3 -30 -16 -33 -37 -30 -19 -11
3 -27 -18 -34 -38 -29 -16 -8
4 -26 -21 -37 -41 -29 -17 -13
6 -29 -24 -40 -42 -31 -19 -16
6 -28 -25 -41 -41 -26 -19 -12
7 -27 -25 -43 -40 -24 -17 -9
8 -25 -27 -46 -44 -29 -19 -11
6 -22 -25 -44 -40 -29 -17 -9
17 -14 -24 -41 -39 -26 -14 -9
6 -20 -24 -42 -40 -26 -14 -9
3 -19 -22 -41 -38 -24 -13 -5
3 -23 -25 -43 -40 -26 -15 -5
0 -26 -28 -45 -41 -27 -16 -11
5 -17 -26 -42 -38 -26 -15 -4
5 -16 -28 -45 -40 -25 -17 -3
7 -16 -30 -45 -41 -28 -18 -5
6 -13 -28 -43 -39 -25 -15 -6
2 -15 -21 -37 -32 -19 -9 3
3 -14 -18 -35 -30 -18 -7 6
6 -15 -18 -36 -30 -20 -9 0
3 -14 -12 -30 -26 -14 -5 -1
-1 -12 -10 -26 -21 -7 -2 10
1 -16 -11 -26 -21 -6 -3 2
2 -11 -8 -23 -18 -8 -1 1
-1 -9 -4 -19 -15 -6 1 2
0 -8 -3 -18 -15 -5 1 0
3 -6 -1 -16 -13 -6 -1 -1
5 -5 4 -13 -12 -5 -1 -1
0 -7 9 -8 -9 -2 0 0
-1 -8 12 -5 -6 1 1 6
7 -8 11 -5 -7 1 -2 10
-1 -13 12 -4 -6 0 -1 6
3 -8 14 -2 -3 3 2 7
2 -8 16 -1 -3 4 1 0
5 -8 14 -2 -4 4 0 2
1 -9 16 0 -2 4 3 2
-1 -8 18 3 0 5 4 7
4 -6 18 2 -2 5 2 5
0 -5 18 0 -3 1 1 1
3 -1 19 3 -2 2 1 2
6 -5 20 5 1 5 2 8
-5 -9 21 6 2 7 3 7
0 -5 20 5 1 5 2 13
8 -2 22 7 2 10 2 12
5 -1 23 8 5 8 7 9
-3 -9 19 2 -1 2 2 6
-8 -16 18 2 -4 -2 -3 4
-3 -15 18 2 -4 -3 -3 -4
2 -15 19 3 -5 -3 -5 -6
0 -10 22 6 -2 1 -2 -3
-4 -7 24 8 1 2 -1 -4
-4 -10 21 5 -2 1 -2 -2
-4 -14 17 2 -5 -2 -4 -1
-5 -16 14 0 -6 -6 -5 1
-1 -12 16 2 -4 -4 -2 -3
2 -5 17 2 -4 -1 0 -3
0 -8 18 3 -3 -2 -1 -6
-4 -13 17 2 -4 -2 -2 -1
-7 -15 19 3 -4 -1 -2 -4
-6 -15 21 4 -4 -2 -3 -4
-4 -12 22 6 -3 -2 -2 -3
-5 -11 23 7 -1 2 -1 -1
-5 -13 21 5 -3 -1 -2 0
-1 -10 21 5 -1 -1 -2 0
-5 -12 22 7 1 0 -1 -3
-5 -9 21 7 -1 -1 -1 0
-1 -3 23 7 0 -2 0 -1
-6 -7 27 11 3 1 2 6
-7 -13 28 11 1 0 -2 2
-2 -14 26 9 0 -1 -3 0
0 -12 24 8 0 -3 -5 -4
2 -10 24 9 2 0 -3 -4
3 -9 25 9 1 4 -2 -8
0 -10 26 9 2 3 0 -7
-1 -4 27 11 4 3 2 4
-1 -6 27 12 5 6 4 1
4 -3 29 15 9 8 7 2
5 0 30 16 8 6 6 0
0 0 33 18 7 6 6 2
-3 1 34 18 8 7 6 -2
-9 -3 34 20 11 11 6 -5
-8 -3 34 22 13 10 6 -5
-1 -2 34 23 12 8 6 -1
0 -1 33 21 11 8 6 2
2 2 30 20 11 7 4 4
1 3 32 21 12 9 5 3
4 1 32 21 11 11 6 -4
1 4 35 23 13 14 8 -2
-3 7 35 23 13 10 8 1
-4 3 35 22 14 12 9 1
4 7 35 24 17 14 11 3
-4 -4 31 21 14 13 8 5
-3 -5 31 22 13 17 8 2
-3 0 32 22 16 15 10 -2
2 1 31 21 14 18 10 -2
4 4 31 21 13 20 8 0
4 6 35 24 16 19 12 5
-1 7 35 24 16 14 11 4
0 8 32 21 13 11 7 2
1 7 34 23 16 13 8 3
-1 6 37 25 18 16 9 0
-2 4 35 23 16 12 6 3
3 4 34 23 15 11 7 4
2 7 37 26 19 15 11 1
-5 8 36 26 20 17 13 9
-6 1 33 23 17 14 11 7
-3 4 35 24 17 14 13 3
3 8 35 24 17 15 16 7
4 7 36 25 18 16 16 11
0 6 38 26 20 18 18 11
-3 6 36 25 18 14 14 6
-1 3 34 23 16 12 11 4
2 4 33 22 15 11 10 0
2 7 31 20 14 11 8 -6
-1 9 32 23 16 14 10 -4
-1 11 31 21 16 16 10 -3
-7 12 34 23 16 14 13 4
-9 6 35 24 17 13 13 2
0 5 30 21 14 11 11 -1
-4 5 32 24 16 15 15 5
-3 7 31 25 16 17 15 8
3 5 28 22 14 13 14 7
0 5 29 23 15 16 13 4
-6 4 28 22 15 17 13 5
0 6 27 20 15 12 12 2
0 6 27 21 15 14 13 2
-2 4 25 19 12 11 10 8
8 6 21 14 8 9 6 0
5 2 22 16 10 12 7 -9
2 4 27 21 13 14 11 0
1 3 28 22 14 14 12 4
9 4 24 19 10 7 6 -10
7 3 23 18 9 6 6 -12
-3 2 25 18 11 9 8 -5
-2 4 24 17 11 8 9 -4
1 6 23 17 11 8 9 -2
0 6 23 17 10 8 8 0
0 5 22 16 8 7 8 -4
1 4 23 16 9 8 9 -3
-4 2 24 18 11 10 10 -3
-2 0 23 17 11 8 10 -1
-2 2 22 16 10 8 7 -7
-3 2 22 16 9 9 6 -11
0 2 23 19 11 7 7 -7
0 3 23 19 11 8 8 -5
-3 0 24 18 10 8 9 -3
0 4 25 18 10 10 11 0
-3 4 26 18 10 11 11 -1
-3 -1 21 14 7 8 8 -4
-2 -3 20 15 7 6 8 -1
-2 -5 20 16 9 6 7 -1
1 2 23 18 11 8 8 4
1 7 21 16 8 5 7 0
1 5 18 13 5 3 4 -5
2 2 18 13 6 5 5 -6
-2 1 17 12 5 7 6 -9
1 4 20 16 7 12 8 -5
1 -1 22 16 8 12 7 0
-1 -4 21 16 6 7 7 -6
-3 0 24 19 8 11 11 -4
4 -2 19 14 5 8 6 -5
5 -1 19 14 4 5 3 -8
-5 -2 19 14 4 8 4 -6
-6 -2 19 13 6 8 4 -4
-8 -1 20 15 8 11 7 -4
-6 -1 19 14 6 9 6 -9
4 4 18 13 4 10 6 -3
4 7 19 14 4 6 5 -8
2 4 18 13 3 5 4 -7
-2 2 21 16 5 7 6 -4
-7 -1 22 17 7 8 9 -7
-1 2 21 18 8 11 9 0
-1 1 20 16 6 11 8 0
-5 1 17 13 3 5 6 -8
3 3 19 13 3 5 5 -3
3 2 23 15 4 6 7 -2
-2 -5 21 14 2 6 7 -4
-9 -9 22 16 5 8 6 -6
-3 -5 22 15 4 6 6 -3
5 -2 20 13 0 4 2 -9
3 0 21 14 3 6 4 -13
1 2 23 17 5 6 6 -9
4 0 20 15 4 6 6 -10
10 5 20 16 4 7 7 -5
4 4 19 15 5 9 6 -8
3 -2 16 12 0 4 3 -17
3 -2 18 11 -1 3 3 -12
-8 -2 19 14 -1 5 3 -14
-8 -3 19 16 -1 6 4 -15
-2 2 19 14 -2 2 3 -14
3 2 19 15 -1 2 5 -10
-1 -2 23 20 4 7 8 -2
-5 -2 24 20 6 9 9 -3
4 -1 18 14 0 3 3 -16
-1 -1 16 14 -1 3 2 -8
-3 2 18 14 -2 4 3 -8
-1 6 19 15 0 4 3 -14
-10 2 24 21 5 9 8 -11
-3 3 25 22 4 9 9 -11
3 5 25 21 1 6 6 -16
-1 6 26 22 4 7 7 -13
-7 4 28 24 6 12 11 -6
-7 6 28 25 9 15 13 -9
-4 8 28 25 8 13 14 -9
2 11 29 25 7 11 13 -7
2 13 31 26 8 14 14 -7
5 15 31 25 6 11 12 -7
13 19 31 27 7 10 12 -8
3 14 31 27 7 11 12 -8
-1 10 28 24 4 11 10 -9
0 7 28 25 4 13 11 -7
-4 11 33 30 9 18 13 2
5 19 35 31 11 15 14 -7
4 22 35 31 12 16 14 -1
1 21 36 32 14 19 15 -4
-5 22 38 33 14 23 17 -3
-3 23 37 32 12 22 17 -1
-1 25 38 35 15 18 20 3
0 26 36 35 14 19 21 1
2 26 33 32 12 18 19 -4
10 30 33 34 14 18 19 0
9 30 35 36 17 20 21 2
7 30 34 35 16 19 21 -4
6 36 35 36 18 21 22 -2
6 36 35 36 19 22 22 2
12 39 34 35 16 21 22 2
8 46 35 34 14 18 22 3
8 43 33 31 12 17 21 -4
8 38 31 31 13 23 22 2
7 38 30 30 11 19 21 6
10 39 30 31 10 16 20 -1
8 34 26 28 7 13 17 3
2 31 26 27 6 11 16 -2
4 27 25 27 7 12 17 -11
4 17 23 24 4 10 14 -9
4 14 21 21 1 7 11 -10
0 13 26 25 3 9 14 -11
-2 10 28 26 4 9 11 -10
1 7 27 25 2 7 11 -12
-1 7 29 28 4 9 13 -7
-5 4 28 28 5 9 10 -12
2 6 26 25 -1 5 8 -16
-1 2 24 24 -2 5 7 -17
1 1 21 21 -4 2 5 -16
3 4 20 21 -3 1 5 -19
-1 2 20 20 -6 -2 2 -22
1 -3 18 17 -9 -5 0 -17
1 -1 18 17 -9 -4 -1 -15
-1 0 19 19 -7 -1 2 -20
-3 2 22 20 -7 2 4 -23
-6 -5 21 19 -8 -2 1 -25
-8 -5 20 18 -10 -1 0 -25
-2 -3 17 17 -11 -5 -3 -25
-7 -6 15 16 -11 -5 -1 -25
-2 -5 16 17 -9 -3 1 -21
3 -1 18 17 -10 -2 2 -20
-2 -3 18 16 -9 -2 4 -25
-2 -2 19 18 -9 -2 3 -23
-2 -3 21 21 -9 -1 6 -12
-2 -4 20 18 -12 -4 3 -19
-2 -4 18 17 -11 -4 1 -19
1 -5 18 18 -11 -4 1 -22
3 -7 15 15 -13 -7 0 -25
2 -8 17 17 -14 -7 0 -26
-3 -9 17 17 -14 -4 -1 -29
-1 -9 19 17 -16 -7 -4 -28
1 -11 24 21 -14 -7 -4 -18
-1 -17 31 29 -10 -5 -5 -23
3 -14 38 38 -3 0 -4 -32
-1 -13 45 50 4 5 -1 -28
1 -7 50 61 14 10 4 -26
7 1 53 69 23 20 10 -25
6 10 57 78 39 35 21 -14
5 19 62 89 57 52 34 0
5 28 68 101 76 71 49 10
11 40 75 116 95 92 65 24
12 55 82 132 119 113 84 37
15 59 78 136 137 130 99 48
24 73 67 131 151 147 114 63
31 92 41 115 159 161 128 77
33 114 5 94 167 179 147 95
32 125 -38 64 163 184 154 106
31 122 -81 25 139 170 147 102
29 118 -120 -19 101 137 131 90
28 117 -152 -63 58 103 107 79
13 114 -174 -105 9 58 78 66
-1 107 -192 -144 -40 9 48 56
2 87 -214 -180 -83 -32 19 34
5 55 -235 -208 -119 -57 -6 7
14 34 -252 -225 -142 -79 -23 -12
20 14 -259 -233 -155 -93 -34 -21
18 -5 -260 -236 -163 -100 -41 -27
23 -15 -249 -221 -159 -97 -40 -29
22 -16 -226 -199 -147 -93 -39 -31
13 -16 -194 -171 -131 -82 -34 -27
9 -17 -161 -144 -120 -74 -31 -28
7 -18 -132 -121 -108 -66 -29 -30
9 -13 -113 -103 -98 -57 -29 -28
4 -17 -93 -86 -89 -56 -28 -34
4 -17 -78 -72 -81 -51 -26 -37
1 -16 -61 -58 -72 -45 -24 -28
-5 -18 -50 -47 -66 -43 -23 -31
6 -15 -41 -40 -62 -42 -24 -38
6 -14 -33 -32 -55 -34 -21 -33
3 -13 -22 -21 -44 -26 -13 -28
7 -9 -16 -14 -37 -21 -9 -29
3 -12 -10 -8 -32 -17 -7 -25
4 -9 -8 -7 -34 -19 -10 -26
9 -8 -3 -4 -34 -19 -11 -30
5 -14 0 -1 -34 -20 -10 -27
5 -11 2 0 -33 -19 -11 -26
3 -9 4 3 -30 -16 -7 -24
3 -8 7 7 -26 -10 -5 -28
-2 -14 3 6 -25 -10 -8 -31
-7 -17 5 6 -25 -8 -6 -26
-4 -15 8 8 -24 -13 -4 -17
-11 -18 8 9 -23 -13 -4 -14
-3 -13 7 6 -24 -14 -6 -27
12 -5 5 5 -27 -15 -8 -28
2 -11 11 10 -24 -11 -4 -23
0 -11 15 13 -21 -7 -3 -19
-4 -14 13 12 -21 -8 -3 -17
-6 -14 11 13 -23 -11 -5 -25
-10 -14 15 16 -20 -10 -4 -23
-4 -11 12 13 -21 -10 -5 -25
2 -12 8 9 -25 -15 -8 -25
11 -11 6 7 -26 -16 -10 -31
9 -9 9 8 -24 -14 -8 -33
7 -9 10 9 -25 -14 -7 -33
12 -5 13 12 -23 -13 -6 -27
1 -8 15 15 -20 -10 -4 -22
-5 -13 17 14 -20 -10 -5 -21
-4 -11 16 15 -21 -10 -5 -30
-4 -12 16 17 -18 -9 -4 -28
-6 -14 15 15 -18 -8 -4 -19
-1 -14 12 11 -21 -11 -7 -29
-1 -13 12 11 -20 -10 -6 -31
2 -12 12 10 -20 -11 -5 -32
0 -9 15 13 -20 -7 -5 -28
2 -9 17 14 -20 -6 -6 -26
-1 -14 18 15 -20 -8 -6 -26
1 -11 20 16 -19 -7 -5 -26
0 -10 18 15 -20 -6 -5 -25
0 -11 15 13 -19 -11 -7 -30
2 -11 14 12 -19 -10 -5 -30
-1 -9 14 14 -17 -7 -2 -28
-2 -11 11 12 -18 -9 -4 -28
3 -7 14 13 -17 -6 -2 -23
8 -5 14 12 -20 -6 -3 -25
6 -12 12 8 -26 -16 -10 -25
2 -10 18 14 -20 -11 -6 -21
-6 -13 21 17 -18 -7 -4 -19
-4 -9 20 19 -18 -7 -4 -22
4 -4 19 18 -17 -10 -5 -30
6 -6 18 17 -17 -10 -4 -29
4 -4 17 16 -18 -10 -4 -28
5 -5 14 13 -20 -13 -7 -24
2 -8 13 10 -22 -15 -9 -27
-2 -13 15 12 -22 -13 -8 -28
-5 -16 15 12 -23 -15 -10 -33
-5 -16 14 12 -23 -15 -12 -29
-1 -11 16 15 -21 -12 -9 -27
-1 -10 16 16 -23 -11 -8 -33
4 -8 16 15 -21 -12 -9 -29
0 -12 16 16 -17 -6 -6 -26
-5 -14 16 16 -17 -7 -4 -28
-6 -10 17 17 -17 -9 -4 -29
-6 -13 18 16 -17 -9 -4 -25
2 -8 14 14 -20 -10 -5 -28
5 -11 12 12 -25 -15 -10 -36
-6 -21 12 12 -25 -12 -12 -37
-4 -19 12 12 -25 -13 -13 -27
0 -17 14 14 -23 -15 -12 -27
-6 -15 14 16 -19 -12 -9 -29
-5 -13 12 14 -18 -10 -9 -33
-2 -12 11 12 -22 -13 -11 -35
2 -13 10 13 -24 -17 -11 -34
4 -14 12 11 -24 -16 -10 -29
3 -17 11 11 -25 -16 -11 -29
7 -16 13 13 -25 -18 -10 -32
3 -19 14 14 -24 -14 -10 -32
2 -16 12 12 -25 -13 -11 -27
8 -12 7 9 -26 -16 -15 -37
0 -15 8 11 -26 -15 -15 -37
2 -18 7 8 -27 -18 -15 -36
1 -24 4 4 -31 -20 -18 -31
1 -22 4 6 -31 -24 -16 -34
6 -21 3 3 -34 -23 -17 -38
5 -23 3 2 -35 -24 -18 -34
3 -20 5 5 -34 -23 -15 -24
2 -20 5 6 -32 -22 -15 -31
5 -20 1 3 -33 -25 -16 -34
6 -22 1 5 -33 -23 -14 -35
4 -23 1 4 -33 -22 -15 -30
-3 -29 -5 -2 -37 -26 -19 -34
1 -26 -6 -3 -37 -26 -17 -30
7 -24 -8 -4 -37 -28 -17 -32
5 -22 -8 -6 -38 -28 -18 -33
6 -17 -7 -8 -39 -28 -18 -37
2 -19 -11 -10 -42 -29 -20 -38
-2 -24 -10 -10 -40 -25 -18 -31
3 -21 -13 -13 -44 -33 -19 -35
3 -23 -17 -14 -47 -36 -20 -36
5 -23 -19 -17 -48 -37 -22 -36
6 -19 -17 -17 -43 -31 -17 -25
0 -24 -23 -23 -47 -31 -18 -30
6 -19 -24 -24 -46 -32 -18 -32
5 -14 -23 -25 -47 -30 -18 -34
2 -16 -21 -23 -46 -27 -17 -28
5 -16 -21 -22 -48 -35 -17 -30
3 -14 -22 -24 -48 -35 -18 -31
9 -10 -25 -27 -50 -35 -20 -36
4 -14 -22 -25 -47 -32 -17 -29
5 -18 -24 -27 -48 -31 -18 -26
9 -18 -26 -28 -46 -30 -16 -21
3 -16 -26 -26 -43 -23 -11 -21
4 -6 -26 -25 -41 -24 -9 -22
11 -5 -26 -26 -42 -25 -10 -27
12 -6 -24 -25 -43 -23 -11 -28
8 -5 -20 -21 -40 -24 -9 -22
6 -4 -16 -18 -36 -22 -8 -17
13 0 -15 -15 -32 -19 -6 -15
12 1 -13 -11 -27 -16 -4 -19
4 -5 -12 -10 -29 -16 -5 -18
1 -6 -10 -10 -29 -17 -6 -18
3 -4 -11 -11 -29 -16 -6 -19
6 -1 -11 -10 -28 -14 -6 -16
4 2 -6 -5 -23 -12 -2 -17
-3 1 -4 -3 -20 -10 -2 -17
-1 2 -2 0 -19 -9 -2 -15
3 4 2 3 -17 -7 -1 -10
1 0 6 7 -16 -3 1 -10
-2 2 11 10 -12 -5 2 -15
5 2 12 11 -11 -5 2 -11
13 1 10 9 -13 -5 -2 -17
2 -4 12 11 -10 -2 2 -14
-3 -2 11 11 -10 -1 2 -9
6 1 11 12 -9 0 2 -14
4 1 14 14 -7 1 3 -14
0 -1 16 15 -8 1 3 -8
-2 1 19 16 -7 4 3 -9
-6 2 20 18 -6 1 4 -13
-3 2 18 16 -7 -2 1 -10
-1 2 18 18 -5 -2 3 -11
1 4 16 15 -7 -3 1 -10
1 6 15 14 -7 -3 1 -4
-1 3 16 15 -6 1 2 -6
-4 -1 18 16 -7 -1 3 -9
-3 0 20 18 -4 0 2 -12
-4 -1 18 17 -7 2 -1 -18
-10 -5 16 15 -9 -1 -3 -21
-7 -4 17 15 -9 -7 -3 -18
-5 -4 16 15 -9 -6 -3 -14
8 4 13 12 -9 -6 -3 -20
-1 0 14 11 -9 -7 -3 -18
-8 -5 15 14 -6 -3 2 -16
-4 4 15 13 -6 -2 0 -9
2 3 15 12 -8 -2 -2 -10
4 3 16 13 -7 -2 -2 -14
-4 -2 16 12 -10 -7 -4 -18
-12 -7 17 13 -11 -7 -6 -19
-2 1 17 13 -11 -6 -6 -19
0 -3 15 12 -11 -8 -6 -16
-5 -8 13 12 -11 -8 -7 -16
-4 -8 13 11 -12 -9 -8 -16
-7 -6 14 12 -10 -6 -5 -12
-5 -9 15 13 -9 -8 -4 -14
-6 -5 17 13 -9 -7 -4 -19
-7 -4 16 12 -9 -6 -6 -20
-8 -3 17 14 -8 -6 -5 -14
-13 -1 21 18 -5 -4 -2 -16
-4 -4 19 14 -10 -8 -5 -21
2 -5 15 11 -12 -9 -6 -19
-1 1 18 15 -7 -2 -2 -20
7 2 16 14 -8 -5 -2 -22
5 3 17 16 -7 -4 -2 -16
-4 -7 16 14 -9 -6 -6 -18
-1 -6 20 16 -7 -7 -5 -16
-2 0 23 18 -5 -4 -3 -15
-6 0 19 16 -6 -7 -5 -12
1 3 21 17 -5 -1 -3 -14
1 3 22 18 -4 -1 -2 -18
-1 4 22 19 -2 -2 -1 -16
-8 0 25 23 1 6 2 -9
-12 0 26 23 4 6 5 -5
-5 6 23 23 3 4 3 -10
-3 3 22 21 1 0 1 -14
3 6 24 23 1 1 2 -11
1 5 26 24 2 4 2 -8
-5 1 25 25 3 1 3 -7
-3 4 27 24 3 1 3 -10
-3 4 28 25 4 3 2 -3
-4 5 27 24 6 4 2 -5
-8 7 26 25 8 9 3 -10
-4 10 27 26 8 9 5 -6
-10 10 27 28 8 8 7 -3
-12 7 27 26 9 8 8 0
-2 10 25 25 8 8 7 -1
1 12 26 25 8 7 5 -3
-7 4 25 25 6 5 2 -7
-8 5 27 25 5 3 2 -8
0 8 25 25 5 4 1 -7
-2 5 26 27 8 6 4 -5
-1 5 25 26 8 9 5 -6
-10 7 26 27 10 10 8 -4
-5 7 24 26 9 9 6 -8
5 11 23 25 8 7 5 -9
-3 10 27 27 10 9 7 -4
-4 13 25 25 10 8 5 -5
-2 14 27 28 12 11 8 -1
-9 6 26 25 9 9 6 -4
-9 8 25 24 8 7 7 -6
-5 11 27 26 11 10 9 -4
-1 8 24 26 11 9 8 -6
-6 6 25 25 10 10 8 -4
0 12 25 25 10 12 8 -1
5 15 23 23 10 9 7 -3
2 15 24 24 11 13 8 7
-4 10 23 22 8 8 6 3
-8 6 22 21 7 6 4 -1
-7 10 27 25 9 7 7 -2
3 10 25 23 9 10 6 0
0 7 24 24 9 8 5 1
-6 4 24 23 9 7 6 7
-6 8 21 19 6 5 3 2
2 12 20 19 7 8 3 4
4 8 19 18 6 8 3 0
-6 8 20 17 6 6 2 -2
-7 7 22 19 7 6 3 0
-2 5 19 18 8 6 4 1
-2 9 22 21 8 6 5 4
-3 8 21 20 7 5 4 -1
-3 4 20 19 7 4 1 1
1 7 22 20 8 7 3 -1
0 3 19 15 5 8 1 -3
-3 -3 14 12 3 5 -1 -5
1 4 16 14 6 5 2 -5
-3 7 18 16 7 9 4 1
-10 6 20 16 6 5 4 3
-12 5 20 15 6 4 2 -7
-12 3 21 15 4 3 1 -6
-14 -1 22 16 6 4 2 0
-9 -1 20 17 7 4 4 -2
0 4 15 13 5 3 1 -8
-2 8 16 13 5 3 1 -9
3 9 15 11 4 2 0 -6
-1 9 17 13 6 4 3 -3
-5 2 16 11 5 4 0 -5
-7 1 15 11 3 2 -1 -3
-10 3 15 11 4 1 0 -4
-7 6 16 11 4 1 1 -6
-6 6 18 13 6 4 3 -6
-8 5 18 12 5 3 1 -2
-10 6 16 10 2 4 -2 -5
-6 5 14 10 3 3 -3 -6
3 5 14 9 2 1 -4 -9
-1 2 15 11 4 4 -1 -6
-3 0 11 5 -1 -4 -5 -5
1 0 11 5 -1 -4 -6 -3
-1 1 13 8 2 5 -3 6
-4 0 15 9 2 4 -2 1
-8 0 16 9 1 -1 -2 -4
-15 4 20 14 7 3 3 3
-12 4 17 12 6 3 3 1
-8 2 13 9 5 1 1 -6
-6 1 14 10 5 2 0 2
0 1 12 7 2 -1 -3 -2
-4 0 12 7 1 -2 -4 -9
-4 1 13 7 2 -3 -3 -7
-4 -2 10 5 -1 -2 -5 -11
-3 -4 12 5 1 -4 -5 -7
-7 -2 13 7 2 -2 -4 2
-14 -2 15 9 5 0 -2 0
-19 -1 16 9 5 1 -2 1
-8 0 11 5 4 0 -3 -7
-2 5 9 5 3 -1 -4 -1
-7 2 9 4 2 -1 -3 -4
-9 1 8 2 -1 -2 -5 1
-7 -4 12 7 4 0 -1 7
-7 -7 11 6 3 -1 -2 3
-3 -5 11 4 1 -3 -4 3
-3 1 13 5 3 -1 -4 0
-5 0 14 7 5 1 -2 -2
-4 1 13 6 5 4 -2 -5
-2 -1 11 5 5 3 -4 -1
0 1 9 2 3 0 -6 -3
0 1 10 3 2 -3 -6 -1
-7 -2 11 3 1 -4 -6 5
-6 -3 10 4 1 -5 -6 -6
-4 -1 11 3 0 -4 -6 -3
-4 -3 12 5 2 -3 -5 -2
-6 1 15 6 5 1 -3 2
-9 -3 14 6 5 2 -3 2
-4 -4 12 5 4 -1 -5 7
-6 -9 9 2 2 -4 -7 -2
-11 -5 12 3 4 0 -5 -4
-3 -1 9 3 3 -1 -7 0
1 -1 10 2 2 -3 -6 -3
-7 -3 12 4 4 0 -5 -1
-6 -1 11 4 3 -1 -6 -5
-4 -1 14 5 4 1 -5 -4
-13 -3 15 7 6 0 -2 -3
-12 -1 17 9 9 1 -2 4
-8 2 15 7 8 -1 -3 11
-12 5 17 8 10 0 -2 11
-7 9 17 10 12 2 0 6
-4 7 16 8 11 2 -1 5
-2 7 15 8 10 2 0 5
-7 6 18 9 12 4 1 3
0 7 17 9 11 3 -1 6
-4 7 18 10 12 5 -1 2
-7 6 20 11 12 4 -1 -2
-9 2 19 10 12 3 0 -3
-4 8 21 12 15 5 1 -1
-10 12 19 10 15 4 0 2
-8 10 19 11 16 5 1 7
-1 12 16 7 12 2 -2 0
1 18 19 10 14 7 0 5
-2 18 22 13 18 9 4 6
-11 14 23 13 17 13 2 7
-7 15 23 13 16 7 1 9
-4 19 24 14 17 5 2 6
-4 21 20 12 16 5 2 2
-1 20 19 12 16 5 2 3
1 23 21 14 19 7 5 5
0 26 21 14 21 12 8 11
-2 24 23 17 25 13 11 15
0 26 22 17 24 13 10 16
5 30 22 17 25 15 11 17
0 36 25 19 27 16 13 19
-2 37 25 19 28 19 12 19
-1 36 24 16 27 18 12 16
2 34 20 13 23 12 9 14
-1 27 16 9 19 8 6 15
-1 26 16 8 18 8 5 17
-2 26 14 9 19 8 7 16
-1 24 14 8 19 8 8 18
-2 20 13 7 18 7 6 19
-7 13 12 5 17 5 3 12
-12 12 12 6 17 4 2 17
-4 15 10 3 12 0 -2 12
3 12 10 3 12 -1 -3 10
-4 11 13 6 16 2 0 8
-11 7 13 6 15 1 -1 2
-12 -5 12 4 14 0 -5 3
-14 -9 8 2 11 -2 -7 6
-14 -9 8 2 12 0 -7 7
-12 -7 10 1 12 2 -7 2
-8 -8 8 0 10 -1 -7 -1
-9 -7 7 -2 9 -3 -9 0
-14 -10 6 -3 6 -8 -12 3
-18 -15 5 -4 5 -6 -12 1
-11 -11 5 -5 7 -3 -11 2
-3 -5 5 -5 8 0 -9 1
-6 -5 3 -7 7 -5 -11 -1
-12 -12 1 -8 5 -9 -13 -3
-15 -17 -1 -8 4 -9 -13 -6
-11 -16 -2 -9 2 -12 -14 -3
-14 -17 -1 -9 2 -11 -15 1
-17 -17 1 -8 3 -11 -13 4
-4 -13 0 -9 2 -13 -14 -1
-6 -13 -1 -9 2 -12 -16 0
-8 -15 -1 -10 1 -14 -17 -3
-10 -16 1 -8 4 -11 -14 0
-18 -18 2 -7 7 -9 -11 2
-14 -14 2 -6 8 -7 -10 1
-13 -13 0 -8 7 -8 -11 -2
-11 -13 -2 -9 4 -7 -13 -5
-16 -14 -2 -9 5 -7 -12 2
-12 -11 0 -9 2 -12 -16 1
-8 -18 3 -7 0 -15 -19 -4
-9 -23 10 0 3 -12 -19 -10
-9 -23 19 10 9 -8 -16 -10
-13 -30 23 16 14 -7 -16 -9
-7 -24 26 25 23 -1 -12 -5
-15 -16 34 39 36 11 -3 2
-14 -5 41 49 49 24 4 4
-17 3 44 59 63 33 14 14
-19 8 48 69 78 48 24 20
-7 17 53 81 93 63 36 30
0 29 62 98 116 87 53 44
6 42 64 108 137 108 70 53
3 54 61 113 158 129 89 71
6 65 42 104 172 147 105 85
13 84 10 86 182 164 123 104
22 108 -30 63 190 179 139 128
26 120 -77 30 180 177 141 134
30 122 -120 -11 151 159 130 119
24 117 -158 -56 109 126 112 112
12 107 -186 -98 64 84 89 100
-2 101 -207 -139 17 40 61 84
-5 92 -229 -181 -32 -5 30 61
-5 68 -248 -214 -75 -43 2 39
2 37 -266 -239 -107 -70 -21 20
6 16 -274 -248 -122 -82 -32 14
13 0 -278 -256 -135 -92 -41 6
9 -9 -278 -254 -140 -96 -48 4
7 -12 -258 -234 -132 -93 -47 -2
11 -19 -231 -210 -121 -89 -48 -3
9 -22 -201 -184 -111 -84 -48 1
2 -26 -171 -159 -100 -80 -46 -8
3 -29 -147 -140 -90 -73 -45 -15
0 -26 -121 -120 -75 -61 -40 -6
0 -26 -101 -103 -65 -56 -36 -9
-6 -28 -87 -90 -57 -52 -34 -5
-11 -31 -74 -79 -52 -49 -35 -10
-13 -33 -63 -67 -46 -46 -32 -7
-17 -33 -53 -58 -41 -42 -31 -2
-12 -22 -46 -51 -33 -37 -29 -7
-3 -18 -37 -43 -26 -29 -26 -10
1 -19 -31 -36 -20 -27 -23 -8
6 -18 -26 -31 -18 -21 -23 -7
5 -19 -24 -30 -18 -23 -24 -10
-6 -25 -18 -24 -16 -25 -22 -11
-7 -20 -15 -21 -14 -25 -22 -5
-7 -22 -13 -20 -12 -23 -23 -8
-13 -20 -9 -16 -10 -22 -20 -8
-18 -23 -7 -15 -8 -20 -18 -5
-21 -28 -7 -15 -8 -17 -19 -6
-19 -29 -7 -15 -8 -17 -17 -8
-12 -29 -9 -16 -10 -21 -18 -9
-8 -25 -8 -15 -9 -20 -18 -9
-11 -22 -6 -13 -7 -15 -17 -3
-16 -25 -6 -13 -6 -18 -17 -7
-7 -21 -6 -13 -7 -20 -19 -9
-6 -19 -3 -11 -5 -18 -18 -10
-8 -21 -3 -9 -5 -15 -17 -13
-14 -25 -3 -9 -4 -17 -17 -13
-16 -25 -3 -8 -3 -16 -17 -9
-12 -24 -2 -7 -2 -16 -16 -6
-12 -23 0 -6 -1 -15 -13 -5
-15 -23 0 -6 -1 -11 -13 5
-9 -17 1 -5 0 -11 -12 2
-5 -17 0 -8 -2 -15 -14 -7
-4 -18 -1 -8 -4 -12 -16 -7
-7 -19 2 -6 -3 -12 -16 2
-5 -21 1 -6 -3 -17 -16 6
-4 -18 1 -5 -3 -17 -16 -6
-5 -19 0 -5 -3 -16 -16 -10
-11 -23 -2 -6 -3 -18 -18 -12
-8 -19 -2 -6 -3 -18 -17 -7
-11 -19 -3 -8 -4 -17 -17 -11
-9 -20 -1 -7 -3 -14 -17 -8
-6 -13 1 -7 -2 -15 -15 -7
-10 -15 3 -6 -2 -16 -14 -6
-2 -16 2 -7 -3 -16 -16 -10
-9 -23 1 -6 -3 -14 -15 -6
-17 -25 3 -5 -3 -13 -14 -5
-13 -21 4 -3 -2 -15 -13 -8
-7 -24 2 -5 -3 -15 -15 -4
-5 -22 -1 -7 -4 -16 -15 -6
-6 -20 1 -6 -3 -14 -14 -12
0 -13 -1 -7 -5 -16 -15 -12
1 -14 0 -6 -4 -17 -15 -7
-4 -16 3 -4 -3 -16 -14 -6
-1 -13 4 -4 -2 -11 -14 -7
-8 -15 3 -4 -3 -10 -16 -8
-19 -17 6 -1 0 -14 -14 -6
-21 -19 6 0 1 -13 -13 -2
-15 -17 5 -1 0 -13 -13 -6
-6 -21 1 -4 -2 -16 -14 -10
2 -20 0 -6 -4 -17 -16 -7
-7 -19 4 -2 -1 -14 -12 -10
-12 -23 4 -3 -3 -16 -13 -8
-11 -22 5 -2 -2 -15 -14 -2
-11 -22 5 -2 -3 -15 -15 -1
-9 -24 4 -3 -4 -14 -16 -5
-3 -13 7 -1 -2 -13 -14 -4
-2 -12 7 1 1 -10 -13 -3
0 -14 5 0 0 -11 -13 -6
-3 -16 1 -4 -4 -16 -16 -11
-9 -20 1 -3 -3 -14 -15 1
-11 -24 2 -2 -2 -15 -15 6
-5 -23 -1 -5 -6 -20 -18 -9
-14 -25 3 -2 -5 -18 -16 -9
-5 -17 6 1 -2 -13 -15 -4
-5 -20 5 1 -4 -14 -17 -5
-8 -21 4 -1 -4 -18 -17 -9
-6 -18 3 -1 -4 -18 -18 -6
-6 -22 1 -3 -6 -19 -19 -9
-5 -24 -1 -4 -6 -14 -18 -10
-2 -24 -2 -5 -7 -19 -19 -11
-4 -25 -1 -4 -6 -19 -19 -13
-8 -27 0 -3 -5 -18 -18 -7
-10 -27 0 -3 -8 -20 -19 -11
-10 -27 2 -1 -9 -21 -19 -7
-7 -25 1 -2 -10 -23 -20 -11
-5 -24 -3 -5 -11 -24 -22 -18
-3 -23 -3 -4 -9 -20 -20 -14
-5 -22 -3 -4 -9 -19 -19 -5
-10 -30 -5 -6 -11 -23 -20 -9
-7 -33 -6 -8 -13 -20 -22 -13
-7 -32 -5 -8 -13 -23 -21 -8
1 -30 -8 -11 -16 -27 -23 -10
-1 -31 -8 -11 -17 -25 -24 -14
-8 -33 -9 -11 -18 -27 -24 -12
-15 -34 -8 -10 -18 -28 -23 -11
-16 -34 -8 -10 -17 -28 -23 -14
-4 -31 -11 -13 -18 -29 -26 -18
3 -30 -14 -15 -20 -30 -26 -13
4 -30 -19 -19 -22 -30 -26 -11
-1 -34 -21 -21 -23 -27 -27 -12
-6 -36 -21 -22 -24 -28 -25 -11
-12 -38 -23 -23 -25 -32 -25 -14
-11 -38 -25 -25 -27 -34 -27 -12
-9 -38 -25 -26 -28 -37 -28 -11
-7 -36 -25 -25 -27 -32 -26 -11
-5 -35 -28 -28 -29 -31 -28 -18
-9 -36 -30 -31 -30 -37 -28 -13
-10 -36 -29 -31 -29 -35 -27 -11
-7 -34 -32 -34 -32 -37 -28 -16
-2 -31 -33 -36 -32 -38 -28 -13
-2 -31 -32 -36 -31 -36 -26 -17
-3 -32 -34 -38 -32 -34 -26 -17
4 -32 -38 -43 -36 -40 -29 -16
-4 -34 -38 -43 -36 -37 -30 -14
-8 -32 -38 -40 -35 -38 -27 -7
-4 -29 -39 -40 -34 -39 -26 -3
0 -25 -39 -42 -34 -40 -26 -6
-1 -21 -36 -38 -31 -35 -22 -10
-3 -19 -36 -38 -29 -33 -19 -11
-9 -21 -36 -39 -28 -32 -18 -5
-14 -22 -34 -37 -26 -28 -15 -3
-8 -18 -32 -34 -25 -27 -13 3
-6 -16 -31 -34 -24 -27 -13 1
-2 -15 -29 -33 -23 -25 -13 -6
-6 -17 -27 -30 -21 -22 -12 -2
-6 -14 -24 -28 -16 -21 -9 1
-5 -12 -22 -24 -14 -14 -8 -3
-6 -21 -24 -25 -15 -15 -10 -5
-8 -18 -22 -23 -13 -18 -9 -1
-12 -18 -18 -21 -11 -18 -9 3
-5 -13 -15 -18 -9 -16 -7 2
1 -11 -13 -15 -7 -14 -6 4
-8 -15 -9 -12 -4 -12 -5 4
-14 -15 -5 -8 -1 -10 -4 4
-10 -9 -3 -6 -1 -11 -5 4
-8 -10 -2 -6 -1 -12 -7 -2
-9 -11 -2 -6 0 -10 -7 -2
-17 -11 1 -1 5 -7 -3 -1
-14 -9 -1 -3 2 -6 -4 1
-2 -7 0 -4 2 -6 -5 2
-8 -7 1 -2 3 -8 -5 0
-9 -9 -2 -5 -1 -13 -9 -7
-11 -9 2 -2 1 -11 -7 1
-13 -10 5 1 5 -8 -6 4
-12 -8 6 2 5 -7 -5 -3
-16 -9 7 3 7 -4 -4 1
-14 -9 3 0 5 -5 -6 -2
-9 -11 2 0 5 -8 -7 -5
-7 -15 -1 -2 2 -9 -8 -5
-10 -15 1 0 5 -7 -5 -4
-10 -12 4 0 5 -6 -4 -4
-14 -13 3 1 5 -7 -5 -5
-13 -13 4 2 5 -7 -5 0
-11 -12 4 2 5 -8 -7 -7
-11 -14 5 2 4 -9 -7 -4
-8 -13 5 2 4 -6 -7 -4
-8 -14 4 0 3 -5 -8 -2
-10 -15 4 1 3 -5 -8 -2
-6 -11 4 1 3 -4 -7 -1
-10 -8 5 2 6 -2 -3 0
-14 -9 7 3 7 -3 -2 3
-15 -10 6 3 6 -4 -3 -4
-20 -13 5 3 4 -2 -5 -7
-17 -16 4 0 1 -2 -8 -11
-17 -22 6 -1 -1 -8 -10 -10
-17 -17 11 2 3 -9 -6 0
-13 -15 11 0 2 -10 -8 -4
-7 -13 9 -1 0 -12 -9 -7
-12 -11 12 2 2 -10 -8 -4
-12 -13 13 2 3 -9 -8 -8
-11 -15 11 -1 0 -11 -10 -11
-18 -17 15 2 2 -9 -8 -3
-19 -13 15 2 2 -9 -8 0
-17 -12 15 2 2 -10 -8 -5
-13 -11 16 3 1 -10 -10 -9
-10 -11 15 3 1 -11 -11 -7
-7 -10 15 3 1 -13 -10 -7
-8 -10 18 6 4 -7 -7 -6
-16 -12 16 5 4 -8 -7 -9
-14 -7 18 7 7 -4 -3 -1
-15 -10 18 6 6 -6 -4 1
-7 -9 17 5 3 -8 -6 -5
-10 -9 20 8 6 -3 -3 3
-12 -13 20 9 7 -3 -3 4
-8 -10 19 9 5 -6 -5 2
-15 -13 21 11 8 -5 -4 -1
-16 -9 22 11 10 -4 -3 -2
-10 -2 23 13 11 -2 -1 -1
-12 -8 19 11 9 -4 -4 0
-12 -5 22 12 12 1 -1 -3
-17 -6 23 12 12 2 -1 -6
-17 -7 24 14 12 1 -1 -1
-8 -2 26 16 13 3 1 7
-8 -4 28 17 15 5 2 3
-8 -1 25 15 14 4 0 -5
-9 0 25 17 16 3 2 6
-12 -3 24 17 16 3 2 4
-14 -2 25 18 17 6 3 3
-13 -4 25 17 16 6 3 0
-12 -3 26 18 17 5 4 1
-9 2 29 19 18 6 6 -2
-8 6 30 22 20 9 8 3
-8 8 32 23 21 10 9 6
-10 2 29 21 20 6 7 -1
-9 -2 24 16 14 3 1 -3
-13 -3 25 18 17 5 3 1
-13 -3 24 19 18 5 4 8
-8 -2 23 17 16 4 2 -4
-10 2 26 20 17 9 6 2
-10 4 26 20 19 7 7 7
-11 4 24 19 19 8 7 4
-13 4 26 19 20 8 8 1
-12 1 25 19 17 7 7 0
-6 3 25 18 17 7 6 -4
-8 4 29 21 19 10 10 0
-13 6 31 25 24 13 12 3
-8 7 29 23 21 11 11 4
-4 2 23 17 16 5 5 1
-8 3 25 18 17 7 7 4
-11 4 23 17 17 5 7 -1
-19 -2 25 18 18 7 8 -3
-20 1 28 22 21 9 9 1
-17 2 28 21 20 12 11 4
-13 3 24 19 18 9 7 4
-6 5 25 18 17 7 7 4
-6 4 25 18 17 9 7 4
-4 4 23 17 17 7 7 -3
-5 7 22 17 17 6 7 1
-12 5 23 18 18 11 10 2
-5 4 21 16 18 7 9 1
-1 7 21 15 17 6 8 -1
-5 7 23 19 18 11 10 9
-10 -1 20 14 15 6 7 1
-13 -2 21 16 18 10 8 4
-11 7 23 18 19 13 10 6
-14 7 24 19 19 11 10 -1
-14 5 22 15 16 7 7 -2
-12 8 23 17 18 11 9 2
-10 7 21 15 15 8 6 1
-10 3 23 18 18 8 10 5
-6 5 23 16 17 7 10 1
-1 1 17 11 11 4 4 -2
5 2 18 12 11 13 6 -3
2 5 18 14 12 7 7 -4
-5 2 17 12 10 4 5 -2
-9 -3 17 12 11 5 6 -7
-9 -3 18 12 12 6 8 -6
-13 -1 20 15 15 12 9 -1
-11 4 21 15 15 7 9 3
-11 5 19 13 13 6 9 3
-14 4 21 14 14 7 9 0
-15 2 21 15 15 7 9 6
-22 0 22 15 14 8 10 6
-18 -3 17 11 10 3 5 -4
-9 -3 16 9 8 0 2 -3
-11 -1 17 12 10 2 4 2
-11 2 18 13 10 3 5 -4
-14 3 17 11 10 3 5 11
-10 2 17 13 12 6 7 10
-3 3 15 11 11 4 5 1
-2 6 16 10 10 3 5 4
-9 5 17 11 10 6 6 4
-19 -3 19 13 12 7 9 6
-13 -3 19 12 11 8 9 0
-9 -1 16 10 10 6 8 -1
-10 -2 15 10 10 6 8 -2
-2 6 17 13 10 8 10 -2
-6 2 16 11 10 4 9 2
-5 -1 14 10 9 3 7 3
1 3 15 9 8 3 5 1
-4 1 14 9 7 4 4 -1
-7 8 17 12 10 5 6 1
-9 9 19 12 12 7 7 12
-20 1 21 14 13 9 9 11
-11 0 15 10 9 5 5 5
-6 2 14 9 7 1 4 0
-14 3 14 10 7 2 5 -2
-19 0 16 12 10 6 8 -1
-15 -3 13 10 9 4 7 0
-14 -5 12 10 8 3 7 2
-16 -6 11 8 6 1 5 5
-12 -3 11 8 6 0 4 3
-11 3 14 10 8 3 7 3
-14 5 16 12 8 8 9 7
-1 5 13 9 6 6 5 -1
4 2 11 7 5 3 3 -5
-4 0 11 8 4 3 5 -3
-7 -1 12 9 8 4 7 4
-10 -1 12 9 7 4 6 2
-12 -2 11 9 6 3 6 -1
-12 1 12 10 7 5 7 4
-13 1 11 9 7 4 6 3
-17 3 13 10 6 4 7 -2
-16 5 13 11 7 3 8 0
-13 6 14 11 8 5 8 7
-10 2 14 12 9 6 9 4
-10 6 17 14 12 8 13 1
-9 6 18 16 13 10 14 5
-14 1 15 13 11 8 12 5
-10 0 10 9 8 3 8 7
-8 -1 9 7 5 4 5 1
-12 0 12 10 7 7 9 5
-9 2 12 9 7 3 8 10
-2 4 12 9 6 5 7 -2
2 5 13 10 6 5 7 -2
-10 1 14 12 8 4 8 0
-17 3 15 13 10 8 10 5
-10 15 17 12 10 11 11 8
-16 11 20 16 13 16 13 9
-11 5 17 15 12 10 11 5
-8 4 14 12 9 5 7 1
-16 7 20 17 12 11 12 8
-12 11 21 19 14 14 14 6
-6 11 17 15 10 9 11 10
-5 9 17 14 9 6 9 1
-4 13 20 16 12 8 12 5
-2 16 22 18 14 10 14 6
-1 18 23 20 16 13 16 7
-9 14 22 18 15 12 15 7
-12 8 17 15 13 9 13 4
-6 13 17 14 12 8 12 1
-2 18 21 18 13 10 14 3
-4 22 25 22 17 13 17 11
-8 23 25 23 19 18 20 14
-15 29 24 24 19 17 21 13
-18 32 26 26 21 18 22 20
-14 28 23 23 20 17 20 11
-6 33 26 24 23 20 25 15
-8 28 25 25 23 21 25 19
-8 28 23 23 22 19 24 17
-5 38 24 25 24 22 28 25
0 39 27 27 26 25 30 22
-6 40 28 30 29 28 31 26
-2 43 26 28 26 25 30 25
-2 42 25 28 24 26 29 23
-1 45 25 27 24 23 29 26
-3 42 24 24 22 23 27 22
-8 40 21 21 20 22 27 16
-3 39 20 21 21 24 27 27
-1 39 16 19 20 25 25 21
-8 33 16 19 19 23 26 23
-10 29 18 22 19 23 26 25
-4 30 15 18 16 18 21 13
1 28 13 16 14 13 20 19
-5 24 14 16 12 12 19 15
-6 14 12 15 10 12 16 11
-9 11 13 17 12 14 18 11
-10 12 14 16 12 12 18 13
-4 11 13 15 10 10 15 4
2 13 13 14 10 9 15 5
-4 11 13 15 11 10 16 2
-11 10 12 14 9 8 13 2
-12 7 11 11 8 10 13 3
-10 6 10 12 7 8 12 4
-1 7 9 12 6 9 12 3
-4 6 6 9 3 8 10 5
-8 4 4 7 2 4 8 7
-11 1 4 5 1 5 8 0
-13 3 5 8 3 10 9 5
-21 -3 4 6 2 6 9 4
-22 -2 5 8 4 6 12 7
-9 4 6 8 5 7 12 7
-4 7 6 8 5 7 12 3
-9 3 4 6 2 6 9 4
-9 -1 2 5 0 2 8 -1
-15 -3 5 7 2 3 9 -1
-16 -1 6 7 3 5 10 -1
-14 0 6 9 6 7 11 3
-11 1 5 8 4 8 10 -1
-8 1 1 5 0 3 8 1
1 4 1 5 1 3 8 0
-3 7 5 9 5 7 11 5
-12 0 6 8 4 7 10 1
-15 -3 7 9 4 8 10 0
-12 -6 9 9 2 3 6 5
-11 -7 14 14 3 5 4 0
-7 -9 21 21 8 9 4 -4
-12 -8 26 29 13 6 5 -3
-8 -4 31 38 20 14 8 7
-1 8 35 47 29 21 13 2
-6 13 40 58 40 27 20 8
-10 15 46 69 54 40 30 15
-12 17 49 79 68 58 40 17
-7 26 56 93 87 74 55 29
3 41 62 107 107 94 69 41
11 53 68 121 130 115 88 58
17 65 68 129 150 136 105 72
25 80 53 124 165 155 120 85
35 103 25 112 178 175 140 106
34 123 -13 92 186 190 158 118
31 131 -61 60 181 190 164 127
34 134 -102 24 160 179 158 130
33 134 -143 -19 123 149 142 116
22 127 -170 -60 81 114 121 105
13 122 -190 -101 35 74 95 93
5 114 -214 -147 -16 26 62 72
6 92 -235 -183 -60 -13 34 55
9 57 -259 -218 -102 -48 3 33
8 34 -272 -234 -123 -69 -10 22
16 21 -273 -237 -133 -77 -17 15
18 9 -273 -238 -140 -82 -24 4
21 0 -259 -226 -137 -82 -28 2
18 -4 -233 -201 -125 -76 -27 0
9 -8 -202 -175 -113 -70 -26 -3
7 -7 -171 -151 -102 -66 -24 -8
5 -8 -144 -127 -90 -60 -22 -4
4 -9 -120 -107 -78 -51 -20 1
0 -8 -98 -89 -66 -41 -15 -1
-3 -6 -86 -78 -61 -39 -16 -3
-4 -7 -71 -65 -53 -36 -14 -5
-1 -9 -58 -53 -45 -30 -11 -7
3 -10 -50 -45 -41 -28 -12 -9
0 -8 -40 -35 -34 -23 -9 -8
-9 -8 -32 -27 -28 -19 -6 -6
0 -4 -26 -21 -23 -16 -4 -9
7 -1 -21 -17 -20 -13 -5 -12
6 -5 -20 -15 -20 -14 -6 -9
0 -7 -17 -14 -19 -10 -6 -11
-7 -8 -11 -8 -14 -6 -1 -7
-9 -9 -7 -5 -12 -6 -2 -9
-8 -6 -2 -1 -9 -6 1 -6
1 -2 -6 -2 -12 -9 -2 -2
-7 -9 -5 -2 -11 -9 -1 5
3 -7 -8 -4 -13 -11 -4 -9
6 -9 -11 -6 -14 -12 -5 -15
-5 -12 -7 -2 -10 -8 -3 -12
-6 -11 -5 -2 -8 -8 -2 -8
-7 -11 -4 -2 -9 -7 -2 -7
2 -9 -3 0 -11 -9 -3 -12
4 -8 -1 1 -11 -7 -3 -8
7 -8 -1 0 -12 -9 -4 -6
9 -7 1 2 -10 -5 -3 -5
4 -8 3 6 -6 -3 0 -2
3 -6 1 3 -6 -7 -1 -1
-1 -7 2 4 -5 -5 2 0
-13 -9 4 6 -3 -2 4 3
-13 -7 4 8 -2 -2 3 5
-3 -1 1 4 -7 -4 -1 0
3 2 2 3 -9 -6 -2 1
6 -1 5 5 -8 -6 -2 -2
7 -1 5 6 -7 -3 -1 -6
9 2 5 7 -6 -2 0 -7
1 -1 2 2 -8 -6 -3 -7
2 -3 2 2 -6 -5 -1 -4
3 -5 4 3 -6 -5 -1 -5
-1 -5 4 3 -8 -4 -2 -6
-1 -5 4 4 -7 -6 -2 -3
0 -4 6 4 -7 -5 -2 -6
0 -6 5 4 -9 -6 -3 -10
0 -3 7 5 -8 -3 -2 -5
2 -7 4 3 -11 -7 -4 -5
-3 -6 7 5 -9 -6 -1 -5
0 -3 8 7 -7 -6 0 -5
3 -1 7 7 -5 -4 -1 -6
0 -4 7 7 -5 -1 1 0
-2 -5 8 7 -4 -1 1 -4
0 -2 6 5 -6 -4 -1 -7
8 0 6 4 -7 -6 0 -4
8 0 6 3 -10 -8 -2 -5
4 -3 6 4 -10 -7 -5 -10
4 -3 9 7 -8 -6 -2 -3
3 -2 12 8 -6 -4 0 4
3 -3 11 8 -6 -4 0 1
10 1 9 7 -6 -5 -2 -2
13 2 6 5 -8 -3 -2 -5
10 -2 9 6 -9 -4 -2 -3
9 -1 7 5 -9 -8 -4 -4
5 -5 7 5 -9 -5 -6 -7
16 3 11 9 -6 -3 -2 -5
5 -3 11 7 -7 -5 -4 -6
-1 -12 8 4 -12 -10 -8 -9
0 -10 9 6 -11 -10 -7 -8
-5 -9 13 9 -8 -7 -3 -12
2 -6 8 6 -10 -9 -5 -13
4 -8 8 6 -10 -9 -4 -10
5 -5 7 5 -11 -9 -5 -9
10 -3 11 7 -8 -7 -5 -9
6 -9 11 6 -11 -8 -5 -4
0 -14 13 8 -10 -6 -5 -5
2 -10 10 6 -12 -7 -8 -10
5 -8 11 5 -13 -7 -8 -8
7 -5 13 7 -11 -5 -6 -8
3 -9 12 7 -10 -6 -6 -11
5 -11 9 5 -12 -9 -8 -12
10 -8 8 4 -12 -8 -8 -13
4 -12 5 2 -14 -9 -10 -9
8 -12 6 4 -13 -8 -10 -14
13 -6 8 4 -13 -9 -8 -12
11 -10 6 3 -16 -13 -10 -15
9 -10 10 6 -13 -11 -8 -10
4 -11 11 7 -12 -7 -7 -8
6 -11 8 4 -15 -9 -10 -11
13 -16 4 0 -19 -14 -14 -13
14 -17 1 -2 -20 -17 -13 -13
17 -12 2 -1 -18 -16 -11 -11
12 -12 1 -2 -19 -17 -12 -9
5 -18 -2 -4 -22 -20 -15 -17
4 -22 -2 -5 -23 -20 -15 -15
8 -23 -2 -6 -25 -21 -16 -15
7 -20 -1 -5 -25 -21 -15 -14
11 -17 -2 -6 -25 -18 -15 -12
11 -18 -3 -7 -26 -20 -16 -18
12 -15 -7 -9 -26 -21 -17 -20
22 -10 -8 -11 -27 -20 -17 -16
24 -11 -11 -14 -29 -21 -19 -16
19 -13 -11 -14 -29 -25 -18 -15
12 -14 -14 -17 -30 -26 -19 -13
16 -16 -18 -20 -34 -27 -19 -14
17 -19 -21 -24 -37 -30 -21 -21
16 -19 -23 -25 -39 -31 -22 -19
15 -15 -19 -22 -35 -25 -18 -13
4 -14 -15 -19 -31 -25 -13 -3
4 -17 -18 -19 -31 -26 -13 -10
5 -16 -19 -21 -31 -24 -13 -12
12 -14 -24 -26 -35 -25 -15 -12
8 -17 -25 -28 -37 -24 -14 -10
15 -16 -25 -29 -37 -26 -15 -3
19 -13 -29 -33 -41 -30 -17 -2
21 -10 -28 -33 -42 -28 -16 -3
17 -13 -28 -34 -41 -26 -16 -10
7 -12 -27 -34 -40 -28 -15 -11
15 -7 -30 -36 -42 -30 -16 -13
20 -8 -31 -36 -39 -29 -13 -7
23 -8 -32 -37 -37 -27 -14 -1
20 -7 -32 -36 -36 -25 -12 -4
19 -7 -32 -36 -36 -25 -11 -4
21 -5 -30 -35 -34 -24 -11 -8
17 -4 -27 -32 -33 -21 -9 -9
16 4 -24 -28 -29 -19 -5 -2
14 3 -24 -28 -31 -18 -7 1
14 -3 -23 -27 -29 -16 -7 0
24 2 -20 -23 -26 -15 -4 1
21 4 -15 -21 -22 -13 -2 1
12 -5 -18 -23 -23 -15 -5 6
8 -5 -16 -21 -20 -10 -4 5
9 -1 -10 -16 -16 -8 0 3
13 5 -7 -13 -13 -1 2 2
10 6 -4 -10 -12 -1 2 3
8 2 -2 -8 -12 -3 -1 7
12 6 -1 -7 -11 -4 -2 5
12 6 2 -4 -8 -4 -1 1
8 3 4 -1 -7 -3 0 -2
10 5 4 0 -5 -3 0 -2
15 9 4 -1 -5 -4 0 0
7 3 3 -4 -7 -5 -3 3
9 2 7 0 -3 -3 0 1
2 8 13 5 1 1 3 6
6 8 14 6 0 1 4 8
17 11 13 6 -1 1 2 3
9 4 12 5 -2 -2 0 -3
3 -1 11 5 -2 -1 -1 0
4 0 11 5 -2 1 -1 -2
8 6 11 5 -1 0 -1 -4
9 4 10 4 -1 -2 -1 3
-1 -3 11 6 1 0 0 0
-4 -3 10 5 0 -1 -1 1
-1 0 9 4 -1 0 -2 10
4 1 11 5 -1 0 -1 5
3 3 15 8 1 1 1 0
12 8 13 5 -2 -1 -3 -3
13 3 12 4 -3 -2 -3 1
4 -3 11 4 -3 -4 -3 -4
2 -2 9 5 -2 -2 -3 -6
-3 -5 10 6 -1 -2 -1 -3
1 -3 9 5 -2 -3 -2 -3
3 -3 7 2 -4 -6 -4 -6
11 -1 6 1 -5 -7 -6 -9
13 -3 4 1 -6 -5 -7 -10
6 -2 8 3 -4 -4 -5 1
6 1 12 4 -2 0 -4 7
9 1 11 5 -3 -3 -5 -4
7 0 11 5 -4 -6 -6 -8
7 -1 13 6 -2 -5 -4 2
3 -1 10 4 -3 -8 -6 7
3 -5 9 2 -5 -9 -7 -4
2 -7 9 3 -4 -8 -6 -5
2 -5 13 6 -1 -5 -4 -2
5 -1 14 6 -1 -1 -4 -1
5 -1 13 5 -3 -1 -6 -3
8 -3 12 5 -3 -6 -6 -3
-1 -3 17 9 1 -3 -3 2
4 0 14 6 -3 -6 -5 -5
9 0 13 6 -3 -6 -6 -4
-1 -8 16 8 -1 -3 -4 -8
0 -2 14 7 -1 -4 -4 -5
4 4 16 8 0 -4 -2 -1
6 0 17 10 1 -1 -3 -7
1 -4 16 9 -1 -2 -5 -2
0 -3 16 8 -1 -2 -4 -3
-1 -4 17 9 0 -3 -4 0
3 0 18 11 1 -2 -3 0
3 1 17 10 0 2 -4 -6
1 1 21 13 4 9 -2 -5
6 8 24 15 8 6 2 0
3 2 22 13 6 2 1 -5
6 4 20 13 7 2 0 -5
5 5 22 15 8 5 0 -3
1 7 23 16 7 5 1 -1
-3 4 25 17 7 3 1 -3
2 4 22 14 5 0 -2 -5
3 3 22 15 5 2 -1 4
1 3 23 16 6 4 -1 0
5 3 23 17 7 3 0 -5
4 4 22 16 8 2 0 4
4 4 24 18 9 4 1 2
5 7 24 19 11 6 4 -3
3 7 26 19 13 7 4 4
2 6 26 19 13 8 5 4
10 11 25 19 11 6 4 6
10 11 26 19 12 7 5 8
2 6 28 21 13 8 6 4
0 9 28 22 14 8 7 7
1 8 27 22 15 8 8 4
6 8 24 20 13 6 6 0
10 11 24 19 13 6 6 3
7 10 21 15 10 5 4 1
5 7 21 15 10 7 4 1
5 10 26 20 15 10 9 4
7 13 25 19 15 12 9 3
10 14 26 20 15 12 8 3
5 17 26 20 13 8 7 12
1 15 24 19 12 10 7 7
6 9 25 20 14 11 7 7
2 7 25 20 14 8 7 10
9 12 24 20 14 9 9 9
7 8 22 18 14 8 6 8
4 5 22 18 14 7 6 9
5 7 23 18 14 8 7 11
3 3 21 16 12 7 5 7
6 4 20 15 11 8 4 2
6 6 22 16 12 9 5 4
2 4 21 16 12 8 6 6
5 8 20 16 13 7 6 2
3 7 20 14 11 9 6 2
6 7 20 16 11 10 7 3
9 7 17 14 10 6 4 3
6 7 19 15 12 6 6 6
1 8 22 17 13 9 8 4
4 7 22 16 12 7 6 11
7 7 19 13 9 5 3 5
6 12 19 14 9 5 3 5
1 13 21 16 12 9 5 13
6 9 22 16 14 9 6 8
13 12 21 15 13 8 5 3
5 6 20 15 13 8 6 8
1 4 18 13 11 6 3 4
-2 0 16 10 9 5 1 -4
6 7 18 12 10 10 3 -2
6 7 17 11 8 8 3 0
5 3 17 11 10 5 4 5
8 2 16 10 6 3 1 7
12 5 17 12 7 7 3 9
9 6 18 13 10 9 4 5
5 5 16 10 9 6 4 3
5 3 18 10 9 8 5 13
-1 5 16 10 9 6 4 18
4 8 13 7 6 3 1 7
6 8 13 6 5 3 1 -1
4 4 13 8 5 2 1 10
6 5 12 6 4 3 -1 8
3 2 15 10 5 5 1 8
6 5 15 9 4 0 1 1
7 7 16 10 7 3 2 4
9 7 11 5 2 4 -2 -3
7 8 11 5 4 5 -3 -2
3 3 12 6 6 7 0 4
7 4 12 6 6 7 0 5
14 9 13 7 6 3 0 3
12 3 12 6 4 1 -1 0
6 0 9 3 1 -1 -4 -10
6 4 9 4 0 -2 -5 2
6 0 11 5 2 1 -3 6
6 5 12 8 5 1 -1 2
3 5 12 6 4 1 -2 3
-5 1 13 7 5 1 -2 -1
-2 4 15 9 7 3 3 1
4 4 14 8 7 2 2 0
5 2 12 5 3 0 -1 -1
6 2 11 6 5 3 -1 -6
6 3 11 7 4 1 0 -5
-1 2 15 10 6 8 2 4
1 1 14 9 5 5 1 -1
14 2 9 4 2 -1 -3 -7
15 1 8 3 1 -2 -3 -3
9 -2 10 4 3 1 -1 0
4 1 11 6 5 1 0 1
8 1 10 5 4 0 -1 -1
12 4 10 4 2 0 -1 3
2 1 11 6 3 0 0 -2
-1 -1 10 3 2 3 -2 -4
1 -1 10 5 2 2 -1 0
3 -1 9 4 1 1 -3 -8
4 0 6 2 0 -1 -4 -2
7 4 3 -1 -3 -4 -8 -5
4 1 9 3 2 0 -3 -6
1 5 10 5 5 1 0 0
6 8 11 6 5 1 0 4
2 5 11 5 4 0 0 -3
2 -1 8 3 1 -4 -3 -5
1 -5 8 4 1 -3 -2 -2
9 -3 6 1 -1 -3 -5 -4
13 2 8 2 1 -3 -4 -5
9 2 10 4 4 0 -2 4
3 -1 9 3 4 1 -3 -3
2 -5 5 0 -1 -1 -6 -5
9 2 5 0 -1 -3 -5 -4
9 1 4 -1 -3 -4 -5 -1
8 -4 5 -1 -3 -4 -6 -3
6 1 8 2 0 1 -3 -2
8 6 8 2 2 -1 -3 -1
7 4 9 4 2 0 -3 -4
12 5 9 3 2 -1 -3 -5
16 10 11 6 5 1 -1 -2
9 6 12 6 6 1 -1 0
4 3 9 5 4 -1 -2 -5
4 6 9 3 3 -1 -3 -3
-1 8 12 6 6 2 0 -1
-1 11 15 7 8 7 2 -1
7 15 15 8 9 5 2 2
9 13 16 9 8 3 1 8
9 12 19 11 9 7 2 1
17 14 16 9 6 2 -1 0
18 20 18 11 8 3 1 -1
8 17 19 11 10 8 2 -1
3 16 17 10 8 4 1 -2
7 14 16 10 8 2 0 -2
8 17 16 8 8 1 0 3
6 21 17 9 9 4 2 2
14 23 17 9 9 3 2 0
13 28 20 12 11 7 5 7
9 28 21 12 12 7 6 5
5 26 23 15 15 10 8 8
1 23 23 16 16 12 10 12
3 25 20 13 16 12 8 10
10 31 18 15 16 11 9 9
8 34 20 18 21 16 14 11
13 33 17 15 19 15 12 10
14 35 15 12 17 14 11 12
17 35 14 12 16 13 10 8
21 36 17 13 16 15 11 16
16 35 18 14 15 15 12 12
16 38 17 12 15 14 11 11
13 40 16 12 15 13 11 15
12 35 14 10 15 11 10 16
18 33 14 10 14 10 10 18
16 26 13 8 12 8 8 12
12 22 11 5 9 7 6 3
15 23 10 5 9 5 5 2
11 17 7 1 4 3 1 1
10 15 7 1 4 3 0 -3
16 16 8 2 4 -1 -1 -3
17 14 10 4 4 -1 -3 -5
18 12 11 4 5 0 -4 4
11 4 8 1 2 -1 -5 -1
4 1 7 1 3 -3 -5 -1
12 6 7 2 4 -2 -4 -1
17 6 5 0 2 -2 -6 -6
12 8 4 -2 0 -1 -7 -7
3 1 7 -1 0 -3 -4 -4
5 0 5 -2 -2 -6 -6 -8
10 -2 1 -6 -5 -9 -9 -2
6 -4 1 -5 -5 -10 -10 -2
4 -8 -2 -8 -7 -11 -11 -13
11 -3 -1 -8 -6 -9 -10 -9
13 -4 -1 -8 -6 -7 -11 -16
13 0 0 -7 -3 -8 -9 -14
19 2 -1 -8 -5 -7 -10 -9
13 -2 0 -8 -5 -10 -10 -5
11 -3 1 -6 -4 -9 -9 2
3 -8 0 -7 -6 -10 -10 -7
2 -9 0 -6 -5 -9 -11 -12
7 -7 1 -6 -4 -9 -11 -4
6 -7 -2 -7 -7 -11 -12 -3
3 -6 -1 -5 -3 -8 -9 -5
6 -7 0 -4 -3 -7 -8 -8
12 -3 0 -4 -1 -7 -7 -3
12 -1 1 -4 -2 -3 -7 -9
11 -4 -2 -8 -6 -7 -12 -13
17 -5 0 -7 -8 -12 -13 -13
10 -8 7 -2 -4 -11 -12 -16
10 -12 12 3 -4 -11 -15 -17
8 -17 18 11 1 -8 -14 -18
8 -18 21 18 2 -7 -15 -22
6 -12 27 29 14 1 -9 -14
5 -2 35 42 27 12 0 -10
12 7 38 49 37 21 5 -6
17 18 44 62 53 36 16 3
10 21 51 74 70 53 28 15
11 27 55 88 90 67 42 28
13 42 68 108 116 92 64 47
20 57 69 118 136 114 80 51
30 69 65 123 155 134 96 65
39 86 47 116 170 153 113 82
51 106 7 95 176 169 129 95
56 124 -36 72 181 181 144 112
53 129 -80 40 168 175 148 123
50 131 -122 -2 138 153 137 122
41 124 -156 -45 98 120 118 107
31 118 -181 -86 55 82 93 89
25 114 -201 -128 7 39 66 72
21 101 -225 -172 -44 -5 33 55
22 73 -248 -207 -86 -44 5 35
27 49 -265 -231 -114 -69 -15 17
26 27 -272 -242 -129 -80 -25 6
30 9 -277 -249 -140 -91 -36 2
31 -2 -270 -243 -142 -95 -40 -4
26 -10 -251 -224 -134 -90 -41 -10
24 -12 -220 -198 -122 -81 -40 -12
24 -8 -187 -170 -109 -75 -35 -13
19 -9 -157 -145 -97 -69 -32 -8
15 -11 -133 -124 -85 -62 -31 -5
18 -14 -114 -110 -78 -59 -33 -9
19 -12 -98 -96 -72 -55 -33 -16
20 -15 -84 -83 -64 -52 -32 -14
13 -18 -71 -73 -58 -46 -31 -20
11 -14 -59 -59 -48 -38 -26 -18
14 -16 -48 -50 -43 -37 -25 -15
11 -14 -42 -45 -37 -34 -25 -12
10 -12 -36 -39 -32 -29 -25 -14
16 -10 -28 -32 -28 -25 -21 -15
16 -10 -21 -26 -24 -23 -18 -13
11 -13 -14 -20 -20 -19 -15 -11
4 -16 -11 -16 -18 -18 -15 -15
8 -13 -8 -17 -17 -19 -15 -13
12 -8 -5 -14 -16 -17 -14 -7
14 -8 -5 -12 -16 -16 -15 -7
18 -8 -4 -12 -15 -15 -15 -13
14 -12 -5 -13 -14 -15 -15 -15
2 -16 -7 -13 -14 -17 -16 -17
5 -11 -6 -12 -14 -17 -15 -14
5 -15 -4 -9 -12 -14 -14 -13
6 -13 -5 -11 -14 -15 -16 -18
7 -12 -3 -11 -14 -16 -17 -18
9 -14 -1 -10 -14 -17 -16 -18
16 -13 -1 -9 -14 -17 -17 -19
17 -12 0 -8 -14 -19 -18 -21
14 -11 0 -7 -13 -19 -18 -18
12 -11 2 -6 -11 -16 -16 -8
4 -15 3 -5 -9 -14 -15 -5
2 -13 3 -4 -9 -12 -13 -10
6 -14 1 -7 -12 -15 -15 -5
6 -12 1 -8 -12 -13 -15 -14
6 -11 1 -7 -12 -14 -15 -15
5 -11 2 -6 -11 -15 -14 -14
9 -8 6 -3 -8 -11 -12 -11
13 -6 6 -2 -8 -10 -12 -10
2 -14 5 -3 -9 -12 -12 -11
5 -14 5 -2 -8 -11 -11 -13
8 -11 5 -3 -9 -12 -12 -14
9 -12 5 -4 -9 -11 -12 -13
12 -9 4 -5 -10 -10 -12 -17
10 -13 3 -6 -11 -10 -14 -14
9 -12 3 -6 -12 -15 -15 -7
8 -11 6 -4 -10 -13 -14 -9
4 -9 7 -4 -11 -13 -15 -13
8 -4 9 -1 -8 -12 -12 -13
8 -7 7 -1 -7 -11 -12 -9
0 -11 7 -1 -7 -10 -11 -8
4 -9 8 0 -7 -9 -10 -9
4 -10 8 -1 -7 -10 -10 -9
5 -10 5 -3 -9 -11 -12 -8
7 -11 8 -1 -8 -8 -10 -2
8 -14 7 -3 -10 -10 -13 -13
6 -15 7 -3 -11 -11 -13 -16
10 -12 7 -2 -11 -13 -13 -12
14 -8 7 -2 -11 -13 -15 -9
5 -12 6 -2 -11 -11 -14 -11
6 -16 6 -2 -9 -12 -13 -11
9 -12 5 -2 -10 -11 -14 -8
7 -11 7 0 -7 -11 -11 -3
7 -9 6 -1 -7 -11 -11 -7
11 -10 5 -2 -9 -12 -12 -13
13 -9 3 -4 -13 -14 -15 -12
15 -8 4 -3 -13 -13 -15 -13
8 -7 9 3 -7 -10 -11 -10
7 -9 8 2 -8 -12 -12 -13
10 -10 4 -2 -13 -16 -16 -17
1 -15 6 -1 -10 -13 -15 -14
-2 -16 7 2 -7 -9 -12 -16
-1 -8 8 3 -6 -8 -10 -15
2 -8 6 0 -8 -11 -11 -19
-1 -18 6 0 -9 -12 -12 -19
-1 -18 7 1 -10 -14 -13 -16
5 -14 8 2 -10 -11 -12 -11
11 -9 5 -1 -13 -14 -15 -16
5 -14 8 2 -10 -14 -13 -14
7 -13 6 2 -10 -16 -14 -12
16 -13 2 -2 -13 -16 -17 -17
13 -13 1 -3 -15 -14 -18 -19
12 -11 3 -1 -12 -16 -16 -15
17 -14 1 -4 -14 -19 -18 -16
13 -16 0 -5 -16 -18 -19 -12
4 -15 2 -3 -16 -17 -17 -18
2 -13 4 -2 -14 -15 -15 -12
0 -17 3 -3 -15 -17 -17 -15
9 -8 4 -2 -15 -18 -17 -15
9 -15 4 -1 -14 -17 -16 -17
6 -21 0 -4 -17 -20 -18 -18
8 -22 -1 -5 -17 -17 -18 -8
8 -24 -3 -7 -17 -20 -17 -12
11 -23 -7 -12 -23 -24 -21 -19
13 -21 -7 -12 -23 -24 -22 -21
11 -23 -10 -13 -26 -27 -24 -23
17 -21 -10 -14 -26 -28 -25 -21
12 -22 -7 -12 -24 -25 -23 -20
6 -25 -10 -13 -25 -25 -23 -21
6 -27 -11 -13 -25 -26 -24 -21
9 -25 -14 -15 -26 -27 -23 -23
4 -23 -14 -16 -26 -27 -22 -17
8 -22 -14 -17 -26 -27 -21 -15
4 -26 -16 -19 -28 -24 -21 -17
8 -24 -18 -21 -29 -25 -21 -18
8 -21 -18 -22 -31 -26 -21 -14
8 -19 -22 -25 -32 -29 -21 -12
13 -18 -22 -25 -32 -29 -22 -14
11 -18 -27 -30 -37 -34 -26 -17
14 -21 -29 -33 -38 -36 -27 -23
15 -16 -28 -32 -36 -32 -23 -18
14 -22 -27 -31 -35 -28 -21 -11
17 -22 -30 -34 -38 -29 -21 -19
16 -19 -31 -37 -41 -29 -22 -18
15 -15 -31 -36 -39 -27 -20 -12
14 -12 -31 -36 -39 -28 -19 -7
13 -14 -33 -40 -42 -33 -21 -14
13 -9 -33 -40 -42 -33 -22 -14
10 -13 -34 -40 -41 -32 -20 -10
7 -13 -33 -38 -38 -28 -19 -10
11 -10 -30 -35 -33 -22 -14 -6
3 -15 -30 -35 -33 -24 -13 -6
6 -14 -33 -38 -34 -26 -14 -4
9 -8 -33 -38 -35 -24 -14 -4
6 -9 -33 -37 -33 -24 -13 -6
8 -10 -29 -34 -31 -18 -11 -4
16 -8 -31 -35 -32 -20 -12 -6
13 -3 -29 -32 -30 -18 -12 -6
8 -3 -28 -29 -27 -15 -10 -7
11 -1 -24 -26 -24 -15 -8 -6
11 2 -19 -22 -20 -12 -4 1
10 2 -16 -18 -16 -9 -3 7
16 1 -16 -19 -17 -10 -4 -2
13 -2 -14 -17 -16 -9 -4 1
3 -7 -13 -15 -15 -9 -4 -2
3 -7 -10 -13 -15 -9 -5 3
9 -1 -7 -10 -11 -7 -3 -1
6 -4 -6 -8 -11 -6 -4 -2
6 -2 -1 -3 -7 -3 -1 4
4 -1 2 -1 -5 -1 0 2
3 -2 3 -1 -3 -1 1 0
10 3 4 1 -1 1 2 -2
8 4 8 3 2 2 4 1
3 3 8 3 1 2 2 -1
1 3 9 4 2 3 1 1
-7 -7 10 5 1 2 0 4
0 -5 10 4 -1 0 -1 10
2 -1 8 4 -2 -1 -3 7
-4 -5 8 5 -1 -1 -3 0
9 -2 7 4 -2 -3 -4 -4
11 -1 8 4 -1 0 -4 2
5 -4 8 4 -1 0 -2 8
3 -4 9 5 0 5 -2 5
5 -2 8 4 -1 0 -2 -2
7 -2 8 3 -1 -2 -2 2
12 2 10 5 0 2 -1 3
6 -1 9 3 -1 0 -5 3
2 -4 9 4 -1 -2 -5 4
6 -3 9 3 -3 -3 -6 -1
9 -2 10 5 -2 -1 -4 -6
10 -5 7 2 -3 -2 -6 -10
12 -9 0 -4 -9 -7 -12 -16
9 -5 1 -2 -8 -8 -11 -14
8 -1 3 -1 -6 -7 -8 -8
0 -4 6 2 -3 -4 -5 -7
-2 -7 10 5 0 1 -2 -3
0 -9 11 4 -1 -1 -3 -3
-2 -11 9 3 -4 -3 -6 -7
6 -12 8 2 -7 -6 -9 -7
8 -10 7 3 -7 -8 -9 -5
6 -5 7 3 -5 -3 -8 0
3 -5 7 3 -4 -2 -8 -1
-2 -8 8 4 -4 0 -6 1
2 -3 7 2 -4 -5 -7 -7
-1 -4 7 2 -6 -4 -8 -10
-7 -5 8 2 -7 -6 -10 -11
3 -5 12 5 -3 -4 -6 -6
0 -6 12 5 -3 -3 -7 3
-2 -8 14 7 -1 3 -6 1
-3 -3 13 7 -3 -1 -7 1
-3 -4 13 7 -2 -2 -5 4
0 -2 13 8 -1 0 -6 0
-4 -4 15 10 2 1 -3 8
-11 -7 13 8 -1 -1 -5 4
-2 -3 12 6 -3 -2 -8 -9
0 -3 13 8 -2 -1 -5 -7
2 1 17 11 2 2 -3 6
4 3 18 12 3 2 -2 0
2 0 14 10 -1 -1 -7 0
-4 -1 17 13 3 1 -4 2
1 -1 17 12 4 3 -3 0
2 -5 15 11 1 1 -4 0
-1 -7 17 12 3 3 -2 -1
0 -4 18 12 2 2 -3 2
-2 -1 20 15 5 9 -1 5
0 2 20 15 6 6 0 3
-1 0 20 15 4 4 -2 5
4 0 19 15 3 4 -3 7
6 0 18 15 4 4 -3 -1
0 0 21 18 7 10 0 -2
2 1 21 18 9 14 2 3
4 1 18 17 6 8 1 9
1 4 17 16 6 6 0 6
3 4 17 15 5 6 -1 4
10 3 16 14 5 6 0 2
7 4 20 18 9 8 3 4
7 7 21 18 7 9 1 0
4 6 22 18 8 13 2 5
2 2 22 19 10 12 3 5
4 5 22 19 9 10 4 2
3 7 25 21 13 14 8 8
1 7 26 22 14 15 8 16
4 9 25 21 13 14 8 11
3 8 25 20 12 14 7 5
1 9 24 19 12 14 7 7
1 7 26 22 14 15 9 10
-2 5 25 21 13 15 8 11
-2 0 24 20 11 16 6 14
-4 3 25 22 13 17 7 12
-5 3 26 23 13 16 8 15
-6 3 25 22 13 15 8 16
0 10 23 20 11 14 7 18
3 13 24 19 11 14 7 11
3 9 23 19 12 14 8 10
5 7 22 16 10 13 6 9
9 5 19 14 7 13 4 2
10 7 20 14 7 13 5 2
7 9 21 17 10 12 8 9
6 7 23 18 11 13 9 10
0 8 23 20 13 18 11 18
-4 5 21 19 13 18 11 11
-3 3 19 17 11 16 8 8
-2 5 20 17 10 15 7 13
-1 3 20 17 9 13 8 18
4 11 21 17 11 14 9 11
9 10 20 16 9 13 8 11
5 8 23 16 9 12 8 19
-2 5 24 18 11 16 9 14
-1 1 20 14 7 12 6 7
5 3 18 13 6 10 5 11
5 6 14 10 4 7 3 12
5 4 12 9 2 9 2 9
4 4 14 10 3 9 3 10
3 3 15 11 6 9 6 8
0 1 15 10 5 10 4 8
2 5 18 12 5 10 5 9
1 4 20 13 6 10 6 13
3 4 19 13 6 11 5 14
6 6 17 10 4 8 3 7
1 4 17 10 5 9 4 10
2 5 19 13 9 13 7 13
1 2 16 11 6 10 5 14
-2 1 16 11 6 10 6 17
2 1 14 9 4 9 4 7
1 2 13 8 3 9 5 5
-4 5 17 12 6 16 7 8
-8 1 16 10 5 13 6 9
0 6 16 9 3 9 4 9
2 8 18 12 5 12 6 11
3 3 17 10 5 13 5 18
5 1 15 9 4 12 4 12
2 0 13 8 2 9 2 11
1 -4 13 7 3 7 3 13
6 -2 14 8 4 11 5 9
7 -1 13 7 2 8 3 5
9 1 10 4 -2 3 0 3
4 0 11 7 0 5 2 4
-3 -3 15 10 3 8 5 12
-3 -1 16 11 5 11 6 19
5 3 15 8 4 10 4 17
7 3 13 8 2 8 4 17
3 2 13 8 3 8 4 14
-3 -1 12 5 2 7 4 10
-5 0 13 6 2 10 5 4
-1 0 12 7 0 8 4 3
-2 -3 13 5 0 6 3 4
-4 -3 14 6 0 7 4 7
-2 -2 14 7 1 8 4 9
0 0 13 7 1 7 4 6
0 2 13 6 1 6 3 5
0 2 11 5 -1 6 2 6
9 3 12 7 1 7 4 8
10 4 12 6 2 12 5 13
8 1 13 6 2 14 5 10
6 -2 13 8 2 10 5 9
3 -2 13 7 1 9 4 6
1 -5 12 5 -2 7 2 6
-3 -7 11 5 -2 5 2 13
1 -3 12 7 0 7 2 15
2 1 12 4 -1 5 1 4
4 -1 12 4 -1 7 2 3
-2 -5 11 3 -1 9 2 9
-1 0 9 3 0 8 3 5
-2 2 12 7 4 15 7 8
8 1 11 7 0 11 5 10
6 -1 11 6 0 12 4 18
-3 -5 11 5 -1 11 3 20
-2 -6 9 4 -2 4 2 13
0 0 8 3 -4 6 1 9
1 -1 8 3 -3 5 0 5
3 -3 7 3 -4 3 0 5
7 -3 6 1 -4 1 -1 2
7 -3 8 3 -3 5 0 2
2 -1 11 4 0 7 2 13
3 0 11 5 -1 5 4 17
2 -3 9 3 -2 4 1 16
-7 -6 13 6 1 7 5 13
-6 -2 13 7 2 11 6 13
-1 5 12 7 1 9 5 15
3 5 13 8 2 9 5 11
2 6 12 7 2 8 5 22
6 5 9 4 0 5 3 15
3 -2 12 6 2 7 5 11
-5 2 17 12 7 12 10 20
-6 3 19 15 8 15 12 20
-5 1 17 11 5 14 8 16
-9 2 21 14 6 16 10 17
-4 8 23 18 9 18 13 25
1 7 21 17 8 15 13 27
4 9 19 15 6 14 9 18
3 9 18 14 5 12 9 19
3 15 18 14 7 14 10 17
10 16 19 14 8 14 10 15
9 16 20 15 9 14 11 19
1 17 23 19 11 15 13 20
6 18 25 19 11 16 14 25
10 20 24 18 10 15 13 24
5 24 27 22 15 21 17 25
-2 24 28 23 16 23 19 28
-3 21 25 21 14 24 16 26
6 22 22 19 14 21 16 29
1 22 19 19 13 22 17 21
-5 24 21 21 15 27 19 29
2 29 24 24 19 26 23 34
7 29 21 21 15 25 22 27
10 31 19 20 14 22 19 28
9 36 19 20 15 23 20 31
6 31 19 18 13 22 20 32
6 31 22 21 16 26 23 36
12 36 21 20 17 27 23 27
3 28 18 17 14 29 20 24
0 26 16 14 12 22 17 24
3 25 14 14 11 20 18 32
7 24 15 14 11 20 18 33
9 21 13 13 8 18 15 25
13 16 9 8 2 10 9 26
1 11 9 8 3 10 8 25
-12 7 12 11 4 15 9 21
-7 7 14 11 6 18 10 21
0 5 15 13 8 16 11 23
-1 3 14 12 6 15 10 22
-1 3 14 13 8 15 12 22
3 4 11 10 5 16 11 23
-2 -2 12 9 5 14 10 26
-1 -6 11 8 2 14 9 24
0 -4 9 7 1 13 6 17
-1 -7 7 5 -2 11 4 13
-1 -10 5 2 -5 3 1 10
5 -8 3 1 -6 3 1 8
-1 -8 4 1 -5 2 0 6
-8 -7 3 1 -5 3 0 8
-3 -7 3 1 -5 4 1 14
-2 -7 3 1 -5 5 1 17
-8 -13 4 2 -4 9 3 16
-5 -13 1 -1 -6 4 0 15
-4 -10 1 -1 -8 3 -1 16
1 -8 4 1 -6 3 1 14
4 -5 5 3 -4 4 3 14
-5 -11 7 6 -1 10 5 15
-9 -13 5 4 -3 7 3 11
0 -8 2 2 -6 5 2 11
-4 -12 5 4 -3 8 4 16
-1 -12 5 5 -1 9 6 13
3 -9 3 2 -4 7 3 15
-1 -11 2 2 -6 3 3 17
0 -13 5 4 -4 4 3 12
-3 -17 6 4 -6 2 1 6
-4 -22 7 4 -9 0 -6 7
1 -24 14 11 -8 -1 -6 6
-2 -28 21 18 -2 0 -5 4
-4 -26 26 29 5 6 -2 1
-5 -21 32 39 16 13 2 11
-7 -13 38 50 28 23 9 14
1 2 47 62 43 36 19 18
5 13 51 73 57 48 28 26
2 17 57 86 74 67 42 36
7 23 63 100 93 86 56 47
13 37 69 114 115 106 73 65
18 48 71 124 136 127 91 81
24 60 64 128 155 148 108 90
30 74 40 117 166 167 125 107
37 102 7 100 177 185 145 134
37 121 -31 79 182 203 162 140
39 131 -73 48 171 193 164 150
33 123 -119 -1 133 162 149 139
29 114 -153 -46 90 126 126 121
25 115 -175 -84 47 88 102 111
11 115 -196 -125 -1 46 72 95
6 94 -218 -164 -44 5 44 76
5 59 -241 -200 -87 -33 14 57
9 32 -260 -223 -115 -57 -6 36
15 19 -268 -234 -129 -69 -16 28
22 3 -270 -239 -140 -76 -25 21
26 -8 -263 -231 -143 -81 -30 14
22 -13 -241 -209 -132 -72 -30 15
16 -13 -211 -185 -121 -67 -29 9
17 -11 -179 -159 -109 -57 -26 6
14 -13 -149 -135 -96 -55 -24 3
9 -17 -124 -113 -82 -47 -21 8
6 -19 -104 -96 -72 -38 -20 5
2 -26 -92 -86 -68 -39 -23 0
9 -26 -80 -77 -65 -42 -25 -3
10 -21 -66 -64 -55 -34 -22 -2
3 -20 -54 -52 -48 -26 -19 -1
2 -22 -44 -43 -42 -25 -16 -3
-2 -20 -35 -34 -34 -21 -12 -5
-5 -21 -28 -26 -28 -15 -9 0
-2 -19 -22 -22 -23 -12 -8 1
0 -17 -20 -20 -22 -11 -8 5
6 -16 -18 -17 -22 -11 -9 9
3 -18 -14 -15 -22 -11 -9 0
4 -20 -10 -12 -20 -10 -8 0
0 -18 -6 -7 -16 -8 -5 8
-8 -14 -1 -2 -12 -3 -1 18
-7 -16 -2 -2 -12 -4 -2 7
-5 -20 -5 -5 -14 -8 -5 2
-1 -22 -3 -3 -14 -6 -5 3
-2 -24 -4 -4 -14 -7 -7 -2
-5 -25 -6 -6 -15 -8 -8 1
-5 -19 -2 -3 -12 -5 -4 -1
-4 -17 1 -1 -10 -1 -2 -1
-6 -15 1 0 -10 -3 -1 0
-9 -19 0 -2 -12 -3 -4 4
-2 -15 0 -1 -12 -2 -4 8
-2 -16 2 3 -9 1 -2 0
-5 -19 0 2 -9 -3 -2 -1
-4 -16 0 3 -10 -4 -3 7
1 -19 -2 -2 -12 -6 -5 3
-3 -20 0 0 -11 -3 -4 1
-1 -16 2 0 -11 0 -4 0
0 -17 1 -1 -12 -4 -5 -1
3 -14 1 -1 -13 -5 -5 -3
0 -14 4 1 -12 -5 -4 -2
0 -14 3 1 -10 -4 -3 0
-3 -11 6 5 -7 0 -1 4
-9 -11 6 6 -6 1 0 3
-8 -16 6 4 -8 -2 -2 -2
-1 -15 1 1 -11 -6 -6 -3
0 -18 0 0 -11 -6 -7 -3
1 -18 1 0 -11 -4 -6 5
0 -18 2 0 -13 -5 -6 -2
-3 -18 4 2 -12 -3 -5 0
-8 -16 9 5 -8 0 -1 3
-4 -14 7 5 -9 -1 -3 -3
-1 -15 5 5 -10 -3 -4 -5
6 -12 3 2 -11 -5 -6 -2
1 -17 4 2 -9 -3 -6 2
2 -15 2 2 -8 -2 -6 6
6 -14 2 1 -9 -4 -5 1
10 -10 -2 -5 -15 -9 -10 -8
8 -12 0 -3 -14 -9 -9 -7
2 -10 3 0 -12 -8 -7 -1
-5 -12 8 2 -11 -7 -5 -2
-5 -16 9 6 -9 -5 -4 -1
3 -17 5 3 -11 -8 -6 -4
1 -14 7 6 -8 -4 -4 -1
-8 -14 10 9 -4 1 0 6
-4 -16 8 7 -6 1 -1 3
-2 -15 6 5 -7 4 -2 6
-4 -14 5 4 -8 -1 -3 4
-9 -17 6 5 -8 -2 -3 -1
-5 -16 6 5 -11 -5 -4 -5
1 -16 4 3 -13 -8 -6 -9
-2 -17 7 7 -10 -5 -2 -3
-3 -15 7 9 -8 -3 -4 -3
4 -14 5 6 -10 -5 -6 -3
6 -14 4 4 -10 -3 -6 2
4 -15 4 3 -11 -4 -6 -1
-5 -15 7 6 -8 -3 -5 1
-8 -14 5 5 -10 -5 -6 -3
-6 -19 5 5 -11 -4 -6 -5
-3 -14 5 4 -11 -6 -7 -9
2 -18 3 2 -13 -10 -9 -6
1 -23 1 1 -15 -11 -10 -4
-4 -21 4 5 -11 -7 -7 -6
-1 -16 3 5 -11 -8 -7 -10
2 -15 3 5 -10 -8 -7 -8
8 -14 1 2 -12 -8 -9 -3
4 -16 2 3 -12 -8 -8 -6
-1 -19 3 4 -12 -4 -8 -4
-2 -21 4 4 -11 -5 -7 0
7 -16 5 5 -12 -7 -7 0
4 -16 5 6 -12 -7 -7 0
0 -26 -2 0 -18 -14 -14 -3
6 -25 -5 -5 -21 -19 -18 -6
11 -22 -4 -2 -19 -17 -15 -13
6 -26 -6 -4 -20 -17 -16 -15
-1 -30 -7 -5 -20 -16 -15 -6
3 -27 -6 -4 -19 -15 -14 0
0 -25 -5 -3 -18 -13 -12 -8
-4 -26 -5 -4 -19 -14 -12 -4
-1 -23 -5 -4 -21 -16 -12 2
-8 -22 -8 -6 -22 -18 -14 -4
-5 -23 -10 -7 -24 -19 -15 -11
-1 -29 -14 -11 -27 -22 -17 -11
5 -22 -14 -11 -27 -21 -16 -9
9 -21 -15 -11 -26 -19 -15 -13
1 -27 -20 -15 -30 -23 -18 -17
3 -24 -22 -18 -30 -24 -18 -16
8 -22 -22 -20 -31 -23 -17 -7
3 -24 -21 -19 -30 -22 -16 -6
3 -24 -22 -19 -30 -21 -16 -11
-2 -27 -25 -22 -32 -22 -17 -13
-4 -25 -24 -22 -32 -24 -15 -8
1 -19 -24 -20 -31 -20 -13 -10
8 -16 -26 -22 -31 -20 -12 -7
14 -15 -29 -27 -34 -24 -14 -8
8 -24 -34 -33 -39 -27 -18 -4
3 -23 -33 -31 -36 -26 -15 -10
3 -17 -35 -33 -38 -26 -16 -12
5 -17 -38 -36 -41 -27 -19 -15
5 -21 -38 -36 -40 -26 -18 -11
1 -20 -36 -35 -39 -28 -16 -7
-2 -17 -34 -33 -37 -25 -13 -5
2 -12 -34 -32 -35 -21 -11 -2
0 -13 -35 -34 -34 -21 -10 1
3 -17 -36 -34 -34 -22 -10 1
4 -17 -37 -35 -34 -19 -9 4
6 -16 -37 -35 -32 -17 -8 1
4 -14 -35 -32 -31 -18 -9 4
6 -7 -32 -30 -29 -16 -8 5
13 -1 -30 -29 -28 -15 -8 4
12 1 -30 -29 -28 -17 -7 2
8 -3 -29 -27 -27 -14 -6 0
11 -2 -27 -23 -23 -13 -5 -5
9 -6 -25 -21 -20 -7 -2 1
-1 -1 -21 -16 -16 -3 2 7
2 3 -17 -12 -12 -2 4 11
3 -2 -15 -9 -10 -1 5 6
1 -1 -15 -9 -12 -3 1 1
-2 0 -14 -8 -13 -4 0 6
-1 -1 -9 -3 -7 0 3 10
-2 2 -5 0 -6 3 4 3
-4 -2 -5 -1 -6 3 2 0
-1 0 -2 3 -3 4 3 -1
0 -1 0 4 -2 3 5 0
2 -3 -2 1 -4 0 1 2
3 0 1 5 -2 5 3 7
0 -5 0 3 -3 2 1 4
-3 -7 2 5 -2 2 2 0
4 -2 3 6 -2 3 2 0
7 2 4 7 -1 2 2 0
0 4 8 11 3 5 5 0
-5 -3 8 11 2 5 4 3
-4 -3 4 6 -2 0 -1 0
-6 -2 8 11 3 4 2 9
-8 0 7 10 3 5 3 8
-5 2 8 12 3 6 3 -2
-4 2 8 11 4 7 4 0
1 0 6 9 2 5 2 3
-4 -1 5 8 0 2 0 0
11 -1 5 8 0 0 0 -3
-1 -7 3 6 -3 -2 -2 -4
-5 -9 4 7 -3 -1 -2 -6
-6 -5 5 8 0 1 -2 -4
-1 -1 6 8 1 1 0 1
4 1 6 9 0 2 0 0
-2 -3 5 8 -2 -1 -2 2
1 -7 3 5 -4 -3 -4 -2
-1 -5 6 8 -1 1 0 -2
-2 -5 7 9 -1 1 0 4
-2 -6 6 8 -2 -1 -1 -1
-2 -6 4 5 -4 -2 -4 -5
-1 -4 3 5 -4 -3 -6 -2
-10 -8 8 9 -1 3 -2 0
-12 -9 8 9 0 1 -3 4
-5 -7 4 6 -3 -3 -5 -1
-4 -4 6 9 -1 0 -3 -6
-6 -6 7 9 -1 2 -2 -1
-3 -2 8 9 0 0 -2 -1
-5 -3 11 11 1 1 -1 0
-9 -9 10 10 -1 -1 -3 -2
-6 -4 11 12 1 1 -2 -2
0 -1 9 10 -1 -1 -4 -5
3 0 8 10 -3 -2 -5 -9
-3 -4 8 11 0 0 -3 -3
-5 -8 6 9 -2 -4 -5 -2
-9 -8 5 8 -4 -5 -6 -9
-8 -7 6 8 -4 -4 -6 -10
-5 -6 10 11 -1 -1 -4 -8
-4 -6 11 12 0 -1 -4 -5
-6 -3 11 11 0 -2 -4 0
-8 1 12 12 1 -1 -4 -1
-2 -1 13 13 1 0 -4 -1
3 0 13 14 2 1 -4 5
-1 0 14 15 3 4 -2 -3
-7 -5 14 17 4 10 0 -2
-5 -1 14 17 4 7 1 3
0 5 15 19 7 6 3 6
-5 3 16 19 8 7 5 1
-7 4 19 21 9 8 5 1
-2 7 21 25 11 12 8 7
-3 7 20 24 11 11 7 14
-6 7 23 26 14 13 9 14
-3 4 19 23 11 12 6 4
-11 0 17 22 10 12 5 -2
-1 2 15 20 8 9 1 -1
-5 3 17 23 12 10 5 7
-14 1 20 26 16 12 8 13
-3 5 16 22 11 11 3 2
-5 6 14 19 8 8 1 -7
-1 7 16 20 9 6 2 -4
6 11 17 21 11 7 4 -2
-4 9 21 25 14 12 7 4
-4 10 20 24 14 13 5 1
-9 3 19 23 14 14 5 -3
-6 4 20 25 16 16 8 7
-8 1 17 24 16 13 8 9
-8 0 15 22 14 12 7 1
-5 5 17 23 15 16 9 5
-10 5 17 22 13 13 8 13
-8 7 14 19 11 10 5 3
-7 6 16 22 12 11 6 -1
-12 5 17 23 13 14 7 -1
-8 8 18 23 15 12 7 4
-5 9 19 25 17 16 9 4
-2 9 17 23 15 13 8 2
2 13 16 23 15 13 8 5
1 13 17 22 15 12 9 4
3 11 13 18 9 10 4 -5
3 9 13 19 9 10 3 1
2 8 14 20 11 10 4 -2
4 10 14 21 12 10 4 -1
0 12 15 22 13 11 5 7
-6 8 16 22 14 12 6 3
-6 6 14 19 12 11 5 0
-4 9 13 19 13 10 5 0
-2 10 13 19 12 13 5 -2
-1 8 12 18 12 13 5 -3
-6 5 13 20 13 12 8 -2
-6 7 15 20 14 14 9 6
-5 7 14 19 12 13 7 5
-1 7 11 17 10 9 5 1
5 8 11 17 10 8 5 -5
-2 5 12 18 11 8 5 2
-6 5 12 18 11 7 5 0
0 4 9 16 9 6 4 -2
0 3 7 15 8 6 3 -5
1 6 10 15 10 7 4 -8
5 9 10 17 10 9 6 -1
-1 7 10 15 10 9 6 2
-1 7 11 15 9 8 5 -1
-8 1 10 15 8 7 3 -1
-10 0 9 16 8 7 3 -3
-9 5 10 15 8 7 3 -6
-4 7 6 13 6 3 1 -10
1 5 5 11 4 1 0 -6
5 8 6 12 4 2 0 -6
4 6 7 12 6 6 1 -6
2 4 6 12 5 6 1 -3
0 4 7 11 4 4 0 -7
-6 6 10 14 8 8 4 -6
-8 5 9 15 9 12 4 -4
-7 5 11 16 9 9 6 -5
-4 1 5 10 5 5 1 -12
1 -6 1 7 1 1 -4 -14
7 -4 -1 6 0 -2 -4 -13
12 5 2 8 2 0 -2 -13
1 4 4 10 5 2 0 -8
-5 3 6 11 5 3 2 -4
-2 2 8 12 6 5 2 -2
-5 3 9 13 7 5 3 -5
1 8 10 15 8 7 3 -4
1 7 8 13 5 6 0 -6
-4 4 6 9 2 1 -3 -13
-6 4 8 12 5 4 1 -7
-2 2 1 8 2 1 -3 -10
-1 3 2 9 2 4 -2 -8
-1 2 3 8 2 3 -2 -8
-2 0 1 7 1 2 -2 -10
-2 2 2 6 0 -2 -4 -13
1 0 4 8 1 -2 -3 -14
2 0 4 8 0 -2 -3 -17
2 1 4 9 1 0 -2 -13
-1 1 6 10 4 1 0 -7
0 6 6 11 4 4 1 -9
1 6 6 11 4 5 0 -11
1 7 5 10 3 2 0 -8
2 9 4 7 2 0 -3 -5
5 4 3 7 1 0 -4 -14
-1 1 2 7 1 1 -4 -16
-3 -1 2 6 -1 0 -4 -16
-2 3 2 6 -1 -4 -6 -16
11 7 4 10 1 -3 -3 -11
6 7 5 9 1 -4 -4 -12
-13 -2 4 7 1 0 -3 -6
-11 -3 3 6 1 1 -3 -3
-5 1 5 9 2 -1 -1 -8
-2 5 5 7 3 0 -1 -5
4 6 3 6 1 -1 -2 -11
6 5 1 3 -3 -4 -5 -15
4 -2 -1 1 -5 -7 -9 -15
-9 -4 3 5 -1 -3 -6 -12
-14 0 6 9 2 1 -2 -10
-8 4 9 10 5 3 0 -5
-7 4 6 10 4 3 -1 -12
2 3 4 7 3 0 -3 -8
8 6 6 9 3 0 -2 -5
-1 2 7 9 4 -1 -1 -5
-6 -2 4 7 2 1 -3 -3
-5 -1 4 6 0 1 -3 -7
-3 -1 5 8 1 4 -3 -9
0 3 5 8 1 0 -4 -7
1 7 6 10 2 1 -2 -6
-1 0 5 8 0 -3 -4 -6
4 6 7 8 2 1 -2 -4
-3 5 7 9 3 3 -4 -7
-7 8 9 10 5 1 -2 -6
-12 8 11 11 7 2 0 -2
-5 12 8 10 4 1 -1 1
-5 12 10 12 5 2 -1 2
-6 9 8 9 3 -1 -3 -2
-2 8 9 11 3 2 -2 -4
1 9 11 13 6 4 0 -1
3 8 10 12 6 1 -2 -6
1 8 13 15 8 4 1 -7
-2 9 14 15 9 4 1 -5
-5 12 16 17 12 7 4 3
0 16 17 18 13 8 5 6
-3 15 15 17 11 7 3 2
-5 14 14 16 9 6 2 -1
2 26 14 15 10 5 1 1
1 24 15 18 13 8 4 2
2 21 15 17 13 9 4 2
0 24 16 19 14 11 6 3
-1 26 17 19 16 11 8 9
5 28 15 19 14 10 8 12
9 29 14 18 15 13 8 21
5 27 14 16 14 12 9 17
1 27 15 19 16 14 10 12
-2 33 20 25 21 21 16 19
5 41 20 24 22 22 17 20
4 43 18 21 18 18 13 18
-2 37 19 22 20 17 14 17
-1 38 17 21 19 18 14 16
1 34 13 16 15 13 11 12
1 34 10 16 14 15 10 16
-3 29 10 13 14 13 9 15
0 23 6 10 9 8 5 6
8 22 2 8 7 5 1 6
9 18 3 7 6 3 -1 2
7 17 5 8 6 2 0 -3
-2 17 10 13 9 6 4 8
-12 17 10 13 9 6 4 7
-11 12 8 10 8 4 0 8
-9 7 8 9 8 4 1 13
-11 7 8 11 9 5 2 7
-1 8 7 11 7 4 0 3
-2 5 6 8 5 3 -2 4
-8 5 5 10 5 2 -2 10
-4 6 3 5 1 -2 -5 1
0 5 1 3 -1 -4 -8 -6
2 4 3 6 2 -2 -6 -2
4 0 -1 1 -3 -5 -10 1
-10 -12 -2 0 -4 -7 -11 1
-1 -11 -5 -2 -5 -8 -11 -4
-3 -8 -4 -1 -4 -7 -10 -4
-13 -7 0 3 -1 -4 -6 -2
-14 -6 1 2 0 1 -7 0
-11 -9 -3 0 -2 -4 -9 -2
3 -5 -3 -1 -4 -7 -10 1
4 -2 -5 -2 -6 -10 -12 -2
-1 -7 -3 0 -5 -6 -11 4
-3 -6 -2 1 -3 -5 -9 2
-4 -4 0 2 -2 -5 -10 -1
-2 -2 -1 3 -2 -3 -9 -3
0 0 0 4 0 0 -8 1
-11 -11 -2 2 -2 -5 -9 2
-10 -9 -1 2 -2 -5 -8 -2
-9 -10 -3 1 -2 -4 -9 -3
-9 -11 -3 0 -3 -4 -10 -5
-8 -12 -3 0 -4 -4 -11 -4
-6 -11 -2 0 -5 -5 -13 1
-9 -13 2 3 -5 -7 -14 3
-10 -14 7 8 -4 -10 -17 -7
-4 -17 10 13 -2 -10 -18 -14
2 -16 17 23 4 -5 -14 -13
7 -9 24 35 15 8 -8 -7
0 -3 31 47 27 14 -1 -2
-5 5 37 56 40 25 8 7
-9 9 41 66 52 37 15 12
-6 16 48 80 72 54 28 25
2 26 56 96 91 74 43 40
7 34 61 109 109 89 56 49
14 44 63 120 130 110 74 57
20 58 60 124 148 131 90 74
24 74 42 119 162 155 108 90
33 102 11 102 175 170 129 112
45 121 -31 80 179 181 144 126
45 129 -74 48 169 179 148 133
34 128 -114 11 143 163 142 134
34 124 -151 -34 104 130 122 118
29 120 -175 -74 60 90 98 107
21 119 -197 -117 13 46 69 88
15 107 -219 -159 -35 3 38 71
4 77 -239 -193 -74 -29 12 56
7 49 -261 -221 -106 -57 -11 35
17 37 -271 -234 -124 -75 -24 21
16 11 -273 -239 -135 -83 -32 10
25 -2 -271 -238 -141 -90 -40 3
25 -2 -253 -218 -133 -87 -42 3
19 -3 -224 -195 -123 -81 -42 2
19 -11 -192 -168 -111 -74 -39 1
26 -12 -166 -147 -101 -68 -39 -3
13 -20 -140 -124 -88 -61 -35 -2
2 -13 -116 -104 -75 -51 -31 0
-4 -10 -98 -88 -66 -47 -28 3
1 -18 -87 -80 -62 -47 -29 -2
4 -20 -76 -70 -58 -45 -31 -10
0 -21 -63 -58 -50 -40 -29 -13
-1 -23 -51 -47 -42 -34 -26 -13
0 -18 -43 -39 -34 -30 -23 -8
-4 -14 -34 -30 -27 -21 -20 -1
-4 -16 -29 -24 -23 -20 -18 -1
3 -13 -25 -22 -22 -20 -17 -7
2 -11 -21 -18 -19 -16 -16 -3
3 -3 -16 -14 -17 -15 -15 9
-2 -10 -13 -11 -16 -12 -14 11
-5 -18 -13 -11 -17 -14 -16 -1
-7 -17 -11 -9 -16 -13 -17 -8
-12 -16 -11 -8 -15 -13 -17 -6
-6 -15 -10 -6 -12 -13 -15 -4
-3 -14 -9 -6 -10 -13 -16 3
-6 -8 -9 -6 -11 -12 -17 -1
-2 -9 -6 -3 -8 -9 -14 -2
1 -10 -8 -5 -11 -11 -16 0
2 -11 -7 -6 -12 -14 -17 -3
3 -14 -7 -6 -14 -17 -18 -1
-1 -14 -6 -4 -14 -16 -17 -3
1 -15 0 0 -9 -12 -12 5
2 -14 0 1 -8 -8 -11 5
4 -11 -2 0 -9 -11 -13 0
4 -12 -3 -1 -8 -11 -13 2
-4 -16 -4 -2 -8 -11 -13 -1
-1 -13 -4 -2 -7 -10 -13 0
1 -10 -4 -3 -9 -8 -14 0
0 -13 -1 -1 -8 -8 -12 2
-2 -11 1 1 -7 -8 -11 5
0 -11 1 1 -7 -9 -12 0
0 -13 -1 0 -9 -9 -14 -3
5 -12 -2 0 -10 -10 -14 -1
5 -14 -3 0 -10 -12 -15 0
1 -15 -1 2 -6 -6 -12 5
5 -15 -3 -1 -8 -7 -14 0
8 -15 -6 -4 -10 -12 -16 5
7 -9 -3 -3 -8 -11 -14 7
3 -8 -1 -1 -8 -7 -14 5
0 -10 0 0 -9 -6 -14 8
1 -7 1 1 -9 -11 -13 12
-2 -5 2 2 -9 -11 -12 11
-2 -6 5 6 -5 -7 -9 13
-2 -10 3 4 -6 -8 -10 4
-3 -13 1 2 -7 -10 -12 0
-9 -16 -1 1 -7 -9 -12 1
-7 -18 -2 -1 -7 -6 -13 5
0 -14 0 0 -6 -4 -12 8
8 -8 4 4 -4 -6 -8 13
10 -8 1 2 -7 -10 -11 14
1 -7 1 2 -8 -10 -12 12
-4 -6 3 3 -7 -10 -12 8
-7 -13 4 6 -6 -5 -10 13
-2 -13 3 6 -5 -4 -10 10
-2 -16 2 3 -6 -5 -11 13
-5 -15 1 3 -5 -8 -10 6
-2 -14 2 4 -3 -4 -8 8
-4 -15 2 3 -4 -7 -8 10
1 -10 4 4 -4 -7 -8 12
4 -9 4 4 -6 -9 -9 11
4 -10 5 5 -6 -9 -10 10
3 -10 6 4 -6 -8 -9 12
3 -10 3 4 -7 -8 -10 8
4 -12 4 5 -4 -9 -9 7
3 -14 4 5 -5 -8 -9 8
-5 -14 3 4 -5 -8 -8 7
0 -10 3 4 -5 -8 -9 5
0 -13 1 2 -6 -10 -11 10
0 -13 1 3 -7 -9 -10 4
2 -13 3 5 -7 -10 -10 -1
7 -12 2 2 -9 -13 -13 1
13 -11 1 2 -11 -14 -14 -2
4 -13 3 5 -10 -13 -14 -2
1 -17 3 5 -8 -11 -13 2
3 -12 2 5 -8 -8 -14 2
0 -15 -2 2 -11 -13 -15 3
-4 -19 2 5 -8 -12 -12 -1
0 -13 0 1 -10 -14 -14 1
7 -15 -4 -2 -15 -17 -17 2
6 -15 -2 1 -12 -15 -14 7
4 -16 -1 1 -12 -15 -15 5
1 -21 -4 -2 -16 -18 -18 -6
4 -19 -2 2 -13 -16 -16 -5
6 -17 -3 2 -12 -16 -16 -5
-4 -20 0 3 -10 -12 -14 1
-1 -20 -2 2 -12 -14 -14 1
10 -21 -5 -3 -16 -18 -17 2
12 -23 -8 -8 -18 -21 -19 1
10 -23 -9 -9 -20 -22 -20 -3
8 -23 -11 -10 -23 -23 -21 -3
8 -22 -12 -10 -23 -25 -23 -9
5 -20 -11 -9 -23 -19 -21 -4
9 -18 -11 -8 -22 -20 -19 -4
10 -17 -12 -9 -21 -21 -18 -1
7 -25 -17 -14 -25 -26 -22 -1
12 -24 -21 -18 -27 -27 -21 -7
3 -22 -18 -14 -23 -20 -16 7
8 -21 -19 -18 -25 -21 -18 7
10 -19 -20 -18 -26 -19 -18 4
4 -23 -23 -21 -28 -23 -19 2
3 -22 -25 -22 -29 -28 -21 -7
7 -16 -24 -22 -29 -26 -19 2
8 -18 -27 -24 -31 -26 -21 0
6 -18 -30 -26 -31 -26 -20 -4
7 -16 -31 -28 -31 -29 -21 -2
9 -16 -33 -31 -34 -30 -20 -1
7 -16 -32 -30 -33 -28 -19 1
0 -19 -35 -35 -36 -28 -21 10
8 -14 -39 -39 -40 -29 -23 -2
17 -13 -39 -38 -39 -30 -21 2
17 -12 -38 -38 -39 -32 -22 -5
12 -13 -37 -37 -39 -31 -20 -3
4 -17 -35 -35 -35 -28 -16 0
5 -12 -35 -34 -32 -24 -14 8
5 -10 -37 -34 -33 -24 -15 7
2 -10 -37 -35 -33 -25 -14 2
9 -6 -38 -34 -31 -26 -13 8
14 -5 -36 -32 -29 -23 -11 7
15 -5 -35 -33 -30 -24 -11 9
18 1 -36 -33 -30 -24 -10 2
16 4 -34 -31 -27 -21 -9 7
7 -4 -30 -28 -23 -17 -8 12
5 -2 -26 -22 -20 -13 -5 10
8 2 -23 -19 -16 -12 -2 11
5 -1 -21 -18 -15 -11 -3 13
11 4 -20 -16 -13 -8 -2 22
11 2 -19 -14 -11 -8 -2 14
9 2 -15 -11 -8 -4 1 16
3 1 -12 -9 -7 -5 1 14
-4 3 -8 -5 -5 -1 3 8
1 3 -5 -2 -3 -2 2 10
6 4 -6 -2 -3 -6 1 13
7 3 -4 -1 -3 -4 0 12
8 2 -2 0 -2 -4 -1 7
8 0 -4 1 -2 -3 -3 3
5 1 -4 1 -2 -7 -4 9
-2 0 -1 3 -1 -3 -4 18
0 -1 0 4 0 -3 -4 10
1 1 2 5 0 -4 -3 4
-1 3 2 4 0 -4 -3 0
0 3 4 5 1 -2 -3 7
0 2 8 9 5 0 0 12
3 1 8 10 5 3 0 11
13 10 10 13 9 4 3 7
3 8 7 10 7 1 1 7
-12 -3 6 10 5 0 1 8
2 -3 2 6 1 -5 -4 3
6 0 0 4 -1 -6 -7 2
0 -2 3 6 0 -4 -5 2
0 -1 5 8 2 -1 -2 4
-7 -2 8 11 4 -2 0 11
-4 -2 8 10 3 -3 -1 4
-5 -6 8 10 4 -3 0 4
-4 -4 7 9 4 -1 0 4
-5 -1 6 8 3 -1 -2 7
1 1 3 5 0 -5 -4 -1
7 -1 2 5 1 -5 -4 1
2 -2 3 6 1 -4 -3 5
3 -4 3 5 -1 -5 -5 3
5 -5 3 4 -1 -5 -5 1
2 -7 3 4 -1 -8 -7 0
0 -2 4 5 -2 -7 -6 4
-7 3 8 9 2 -4 -3 7
-8 -3 7 8 2 -4 -4 9
-2 -5 4 6 0 -6 -7 9
-3 -5 5 7 1 -6 -6 4
-2 -5 4 6 0 -6 -6 9
1 -2 4 6 0 -7 -8 6
7 -1 3 4 -3 -11 -9 -6
2 -4 3 4 -4 -11 -9 -7
-2 -3 6 6 -3 -9 -7 -4
-3 -3 8 8 -1 -4 -5 -2
-1 -5 7 8 -2 -8 -6 -2
-4 -3 9 11 3 -4 -2 1
-4 -2 7 10 1 -4 -5 -3
-3 -2 9 11 3 0 -2 7
3 3 9 10 2 -4 -3 5
0 4 9 9 2 -6 -4 2
1 1 10 11 2 -6 -4 7
-2 -1 8 9 -1 -7 -5 2
-6 -6 12 12 3 -4 -3 6
-1 -4 12 11 3 -7 -4 0
-4 -2 12 12 2 -6 -3 1
-5 -3 13 15 5 -4 -1 2
0 -1 13 16 6 -3 -1 6
1 0 13 14 5 -3 -2 8
4 5 15 17 8 2 1 10
-3 5 19 19 11 4 5 16
-14 -1 19 20 11 3 5 13
-9 5 21 20 12 4 6 12
-9 3 20 20 11 3 6 14
-1 6 19 21 12 3 5 16
2 6 18 19 10 2 4 11
8 2 13 15 7 -2 -1 5
6 3 15 17 9 -1 0 4
5 1 16 17 9 -1 -2 8
2 3 18 20 11 5 2 14
-3 6 19 20 13 5 3 15
0 9 17 19 11 2 1 11
-1 15 19 21 13 8 4 12
-2 10 20 21 14 10 3 10
-2 8 20 22 15 6 5 13
-2 9 21 23 15 8 7 16
-9 8 17 20 13 5 4 16
-5 9 20 22 15 8 7 20
-7 8 22 24 16 9 10 18
-9 9 19 21 15 7 7 11
3 10 18 20 15 7 7 15
7 10 18 19 12 6 6 16
8 10 17 17 11 5 5 12
5 13 21 21 16 8 8 13
4 10 21 21 15 7 6 11
15 14 18 18 12 5 4 11
8 13 16 17 11 2 3 17
0 9 17 19 13 5 5 17
-3 10 19 22 16 8 9 18
-6 12 16 18 13 5 6 17
-8 7 15 17 14 7 6 18
1 5 15 16 12 5 6 11
5 7 15 14 10 2 6 6
-2 8 17 16 12 4 6 12
-4 9 22 21 17 9 11 22
-4 12 20 20 15 10 10 23
-1 13 19 19 15 7 9 24
-3 9 17 18 14 6 7 13
-2 9 16 17 13 6 8 11
-7 8 18 19 16 8 9 13
-5 7 17 19 15 8 8 17
-1 8 18 19 15 14 8 26
-2 11 18 17 14 10 9 18
-1 8 15 16 13 4 6 15
0 9 15 15 12 4 6 8
5 13 17 17 15 5 8 11
7 11 15 16 14 6 8 13
8 9 16 16 14 6 7 13
6 7 14 14 12 8 6 11
4 4 12 13 12 10 5 12
3 5 12 13 11 7 6 10
-1 4 11 12 9 5 4 3
-2 2 11 11 8 1 4 13
-4 3 13 12 9 3 4 17
-8 4 14 13 10 5 6 12
1 7 15 15 13 4 6 10
-5 7 15 15 13 5 6 14
-2 6 14 14 11 1 5 8
7 9 11 10 8 0 2 9
8 7 11 10 8 1 4 6
1 6 13 12 10 4 7 11
0 2 12 11 8 2 5 4
5 4 10 8 6 2 2 5
4 8 11 9 7 -1 3 7
0 5 12 11 9 2 4 8
-1 6 14 13 10 3 6 15
-4 6 15 13 12 3 7 14
-1 11 17 16 14 8 10 15
-7 2 12 10 10 1 6 9
-4 1 9 8 6 -2 4 3
-1 -2 9 8 7 -2 4 6
-4 -4 12 10 8 2 6 8
-5 -3 13 11 9 2 5 2
-4 0 11 8 6 -3 3 4
-2 4 8 5 3 -7 0 2
-3 1 8 6 3 -5 0 1
1 5 11 9 7 1 4 1
-5 3 11 9 8 0 5 3
-2 8 11 8 8 0 5 3
0 5 10 9 6 -1 5 4
2 5 6 5 3 -4 1 5
5 7 9 6 4 -4 3 4
-1 4 11 7 5 -3 3 7
2 3 11 8 5 -2 4 4
1 4 11 9 7 -1 5 7
2 2 10 8 5 -3 3 15
-2 -1 11 10 6 -2 3 13
-5 1 10 9 6 -2 4 10
-2 2 8 7 5 -3 2 3
4 4 8 7 4 -1 3 -2
2 3 8 7 5 -3 2 -3
-1 3 9 8 5 -3 4 -1
-6 -1 12 10 7 -2 4 2
-10 -3 10 10 5 -2 4 -1
-6 -1 11 7 6 -3 3 1
-2 -1 8 6 3 -5 0 -1
-5 -3 8 5 3 -5 0 -6
-6 -5 8 6 3 -1 2 -6
-7 -3 11 8 6 -1 4 0
-6 -2 10 9 6 -1 5 6
-10 -4 9 8 5 -1 4 14
-4 -2 8 6 3 -1 2 6
5 5 6 5 1 -7 1 3
4 6 9 7 2 -3 3 2
3 -1 9 5 1 -5 1 -6
2 -1 7 5 0 -7 0 -1
-1 0 11 8 4 -3 3 7
0 3 12 10 4 -2 4 2
-1 7 12 10 6 3 5 5
-2 3 8 7 3 0 3 7
5 4 6 3 1 -6 0 1
-4 7 9 7 3 -3 5 5
-7 11 12 10 6 -1 6 5
-9 5 15 12 7 1 7 10
-11 1 17 14 10 6 10 11
-1 4 14 12 7 2 8 5
1 4 13 9 5 -1 6 -6
0 2 14 11 6 0 7 2
5 4 12 9 5 -2 4 4
6 5 13 11 6 0 7 5
2 7 13 10 6 0 7 3
3 10 15 11 8 3 7 1
-3 10 16 12 10 5 9 6
-10 6 17 14 9 3 8 1
-12 5 19 15 10 2 8 -3
-4 8 18 13 8 2 9 0
5 13 18 13 9 3 8 -3
7 17 20 15 12 7 11 -1
7 15 17 12 10 3 9 3
-1 14 19 15 10 5 11 4
-15 14 22 17 13 8 14 4
-11 17 24 19 14 8 16 2
-7 20 26 20 16 11 16 2
-7 23 23 19 14 11 15 6
-2 24 22 18 13 11 14 9
0 24 23 18 14 9 13 16
2 27 23 18 15 7 13 10
3 31 25 21 18 11 16 3
0 27 23 20 18 11 16 2
3 28 22 21 19 12 19 6
7 39 25 22 22 16 22 9
8 41 25 22 21 15 23 9
14 39 25 22 21 15 21 6
7 37 23 22 20 15 21 7
0 36 23 22 20 17 22 11
-2 37 21 19 18 14 20 10
4 34 18 15 16 10 17 10
9 34 17 15 14 8 16 7
9 33 19 16 16 15 17 8
5 29 18 15 15 19 17 9
-2 21 16 13 12 12 14 1
5 21 15 11 9 3 11 7
8 21 15 11 9 3 11 4
0 11 13 9 7 0 8 -8
-2 6 12 8 6 -2 6 -7
-4 5 14 12 8 0 8 -4
-8 4 15 12 9 1 8 -2
-10 1 13 10 8 1 7 -7
-6 -3 13 9 8 1 7 -11
-3 1 12 5 4 -2 4 -9
4 4 10 5 3 1 2 -3
-3 -1 13 7 5 1 4 -8
-12 -2 13 7 5 -2 6 -10
-4 -1 8 3 1 -6 2 -14
2 2 8 1 0 -7 1 -15
-1 0 6 0 -2 -9 -1 -19
-9 -6 7 0 -2 -7 -2 -15
-2 -7 6 0 -3 -7 -2 -18
5 -9 3 -4 -5 -10 -5 -19
2 -7 4 -2 -4 -10 -5 -17
-3 -9 3 -3 -4 -12 -5 -14
-5 -10 5 -1 -3 -10 -3 -14
4 -5 5 -2 -3 -8 -2 -18
-3 -8 7 0 -2 -5 -1 -9
-7 -9 7 0 -2 -8 -1 -12
-9 -9 8 2 0 -6 0 -11
-6 -8 7 1 -1 -3 -1 -9
-5 -9 6 1 -1 -8 -2 -11
-12 -10 5 0 -1 -8 -1 -12
-11 -10 7 1 0 -5 0 -15
-2 -7 8 1 1 -7 -1 -13
3 -3 9 3 0 -5 -1 -18
1 -6 10 2 -2 -6 -2 -14
-7 -11 16 7 1 -6 -2 -15
-12 -17 20 11 2 -8 -4 -17
-11 -17 24 18 3 -9 -6 -19
-4 -12 30 27 10 -4 -3 -19
6 -5 35 37 20 5 0 -15
3 -1 39 47 29 13 6 -11
-8 4 46 59 43 24 15 4
-5 12 52 70 59 36 26 5
0 22 57 84 76 53 38 13
12 33 64 98 96 72 53 19
10 35 69 110 116 91 68 35
6 43 70 120 135 115 85 46
20 66 66 126 156 136 104 63
30 85 45 116 168 152 120 86
38 105 13 101 179 170 141 101
42 123 -29 76 182 184 154 114
39 131 -73 43 167 175 154 121
38 127 -112 2 138 154 145 110
28 120 -148 -43 94 116 122 97
19 110 -176 -87 46 70 93 82
12 107 -195 -128 1 31 66 69
6 97 -214 -164 -41 -6 40 50
11 68 -238 -200 -82 -46 10 27
20 40 -257 -226 -112 -72 -10 12
21 22 -265 -234 -124 -82 -19 4
18 10 -266 -238 -133 -89 -26 -4
20 -1 -258 -232 -134 -92 -31 -12
15 -10 -236 -212 -127 -89 -33 -14
11 -12 -210 -189 -117 -84 -33 -19
10 -14 -177 -163 -104 -72 -30 -8
12 -13 -152 -141 -94 -69 -29 -6
10 -15 -128 -121 -84 -65 -28 -14
10 -15 -108 -104 -74 -59 -27 -19
11 -12 -90 -90 -65 -51 -25 -25
3 -17 -73 -75 -56 -47 -23 -17
-3 -17 -60 -63 -48 -41 -20 -9
4 -12 -47 -50 -41 -35 -18 -12
-4 -14 -37 -41 -35 -31 -17 -15
-13 -22 -31 -36 -31 -26 -15 -21
-12 -17 -23 -27 -23 -23 -11 -18
-10 -20 -21 -24 -22 -23 -11 -17
-5 -22 -17 -21 -20 -21 -11 -17
0 -17 -13 -18 -18 -19 -11 -13
-2 -19 -9 -14 -17 -19 -9 -14
4 -18 -6 -13 -15 -20 -10 -15
-3 -20 -4 -10 -14 -19 -10 -15
-2 -19 -3 -9 -14 -16 -11 -16
3 -14 -2 -7 -11 -15 -9 -10
1 -14 -3 -7 -11 -16 -9 -14
2 -14 -2 -6 -9 -15 -7 -16
-2 -14 -3 -7 -10 -15 -9 -20
-5 -16 -2 -6 -9 -14 -9 -21
-4 -13 2 -2 -5 -9 -5 -17
-6 -9 6 -1 -5 -7 -3 -11
-3 -14 4 -2 -6 -12 -6 -6
-4 -17 3 -3 -8 -15 -7 -14
-5 -19 4 -2 -8 -15 -7 -23
5 -17 2 -3 -9 -16 -9 -24
1 -20 -1 -6 -11 -19 -12 -23
1 -17 0 -6 -10 -17 -10 -19
1 -14 2 -4 -7 -13 -8 -19
4 -11 4 -1 -6 -12 -6 -14
-3 -13 4 -1 -7 -12 -7 -12
-7 -16 5 -1 -6 -11 -7 -12
-5 -14 4 -2 -7 -12 -8 -12
-6 -13 7 1 -6 -11 -6 -14
-3 -17 6 0 -6 -12 -7 -15
3 -15 4 -3 -10 -16 -10 -21
4 -12 5 -1 -7 -14 -8 -20
3 -13 4 -2 -8 -13 -8 -17
5 -14 4 -3 -7 -11 -9 -17
-1 -13 7 1 -4 -10 -6 -16
-5 -14 8 2 -5 -10 -6 -13
-3 -12 10 1 -5 -8 -5 -10
-2 -15 6 -1 -7 -10 -10 -18
2 -12 7 1 -7 -11 -10 -21
0 -15 8 2 -5 -9 -9 -15
-4 -15 8 2 -6 -12 -9 -10
-5 -16 6 1 -6 -12 -9 -14
-4 -15 7 1 -6 -9 -8 -16
-3 -15 7 1 -4 -10 -6 -9
2 -11 8 1 -5 -8 -5 -10
3 -11 9 2 -4 -7 -4 -4
-3 -12 11 3 -4 -7 -4 -8
-4 -13 9 2 -6 -8 -6 -10
-1 -15 7 0 -8 -13 -8 -17
-1 -17 7 -1 -8 -13 -9 -18
-2 -15 10 2 -5 -11 -6 -9
2 -15 6 0 -7 -11 -9 -12
-2 -15 6 0 -8 -11 -9 -10
2 -10 6 0 -7 -13 -9 -11
0 -13 7 0 -6 -12 -8 -13
-2 -16 7 0 -7 -12 -9 -14
-3 -13 9 1 -6 -12 -7 -11
-3 -14 9 1 -5 -11 -7 -11
0 -13 9 1 -6 -12 -10 -12
0 -9 8 1 -7 -12 -12 -16
4 -8 9 1 -6 -8 -10 -17
2 -11 10 3 -5 -8 -9 -18
-5 -16 5 1 -7 -15 -10 -15
-3 -17 5 1 -7 -13 -9 -10
2 -13 8 3 -6 -11 -6 -15
-1 -12 8 3 -6 -9 -7 -17
-2 -14 7 0 -8 -14 -9 -14
3 -16 6 -2 -11 -16 -12 -18
5 -13 6 -1 -11 -15 -12 -21
2 -14 4 -2 -11 -14 -14 -19
2 -13 6 -1 -9 -14 -11 -11
4 -12 6 1 -6 -14 -9 -13
-4 -16 6 1 -7 -10 -9 -16
-1 -19 4 0 -8 -13 -10 -15
1 -15 6 1 -8 -14 -8 -17
-2 -16 2 -3 -13 -18 -13 -24
-1 -23 1 -5 -15 -19 -15 -25
-7 -25 5 -1 -11 -14 -12 -13
-8 -21 7 1 -9 -13 -11 -16
0 -15 3 -2 -12 -18 -14 -16
-4 -19 2 -3 -13 -18 -15 -18
-4 -21 1 -3 -13 -18 -14 -18
-1 -22 0 -4 -13 -19 -14 -20
6 -20 -3 -6 -16 -22 -17 -18
13 -18 -3 -9 -18 -24 -19 -16
6 -23 -4 -8 -18 -23 -18 -23
-3 -25 -3 -9 -19 -20 -17 -24
-4 -25 -3 -8 -18 -18 -16 -21
1 -27 -7 -11 -22 -25 -20 -25
8 -23 -9 -13 -22 -26 -20 -25
1 -22 -9 -15 -22 -26 -18 -24
-1 -25 -13 -16 -23 -27 -19 -20
5 -21 -14 -17 -23 -26 -18 -16
11 -16 -17 -20 -25 -28 -18 -18
8 -18 -19 -22 -26 -28 -18 -18
7 -18 -18 -22 -26 -28 -17 -17
1 -19 -22 -27 -31 -31 -21 -18
-7 -23 -22 -26 -30 -30 -19 -13
-4 -21 -20 -23 -26 -27 -15 -9
7 -19 -23 -26 -29 -29 -18 -19
12 -15 -23 -27 -27 -28 -16 -18
6 -20 -26 -30 -30 -30 -18 -20
3 -25 -29 -33 -33 -32 -19 -19
3 -22 -31 -36 -34 -33 -20 -18
5 -21 -31 -36 -35 -31 -18 -12
10 -17 -32 -37 -36 -32 -18 -14
9 -18 -32 -40 -37 -30 -18 -17
9 -19 -34 -40 -38 -31 -19 -15
7 -16 -32 -39 -37 -31 -17 -12
1 -19 -31 -36 -33 -26 -14 -11
0 -19 -34 -38 -33 -26 -14 -13
-1 -12 -32 -35 -30 -23 -11 -8
-1 -16 -35 -39 -33 -27 -13 -7
10 -15 -37 -42 -34 -28 -14 -9
16 -11 -37 -42 -33 -26 -12 -6
9 -7 -32 -35 -26 -19 -6 4
-3 -9 -26 -31 -23 -13 -2 9
-4 -10 -27 -31 -23 -14 -4 3
2 -11 -28 -31 -24 -15 -5 -5
4 -5 -26 -29 -22 -15 -5 0
7 -7 -26 -29 -21 -17 -6 4
11 -6 -24 -25 -18 -13 -4 0
0 -8 -20 -23 -16 -12 -3 0
-2 -8 -17 -21 -12 -7 0 2
8 -2 -14 -18 -10 -5 1 -1
9 1 -10 -15 -9 -6 1 2
8 3 -7 -12 -6 -4 2 1
-2 -3 -2 -9 -3 -2 3 4
0 -8 -4 -10 -6 -5 0 -2
1 -3 -1 -7 -3 -1 1 0
1 -2 0 -5 -1 -2 2 0
1 -5 1 -3 0 -1 1 1
-4 -1 1 -3 0 -2 1 -3
-6 -4 4 -1 2 -1 2 -6
6 0 3 -3 1 0 0 -8
5 1 5 -1 2 6 0 -6
8 6 8 0 2 2 1 -1
1 5 8 2 3 0 0 0
-6 0 11 5 5 3 1 5
-3 -3 11 4 5 3 0 2
-2 -1 10 4 5 5 0 -4
-7 -5 10 5 6 6 1 -7
-7 -4 9 6 7 3 2 -6
-3 -3 7 3 4 2 -1 -7
2 -4 5 0 1 -2 -3 -10
3 -6 4 0 -1 -4 -5 -7
-2 -7 8 3 2 1 -1 -3
-4 -4 10 4 4 1 0 -2
-3 -2 10 5 3 0 -1 2
-6 -8 11 7 6 1 0 -4
1 -7 11 5 5 0 -1 2
-5 -5 11 5 5 2 1 9
-8 -4 10 4 5 3 1 6
4 -1 6 0 2 -1 -3 -5
0 -6 5 -1 1 -3 -3 -7
-7 -7 6 2 1 -2 -2 -9
-3 -6 7 1 2 -2 -2 -2
-4 -6 9 2 2 0 -2 -1
0 -3 7 2 0 -1 -4 -10
1 -1 7 3 1 -4 -5 -10
1 -5 8 4 3 -2 -3 -7
-3 -7 9 4 3 -1 -3 -2
-5 -9 8 3 2 -1 -3 0
4 -7 6 1 1 -5 -5 -5
5 -5 5 0 -1 -6 -6 -3
2 -7 3 -3 -5 -9 -9 -2
5 -8 1 -4 -7 -11 -11 -11
-6 -8 8 3 0 -5 -5 -9
-11 -6 11 6 3 -2 -3 -6
-8 -2 12 5 4 -1 -3 -1
-2 -4 10 4 1 -3 -5 -6
-8 -4 12 7 4 -2 -3 -7
-7 -3 12 7 4 0 -2 -5
-7 -8 12 7 5 2 -2 -4
-5 -3 11 6 3 -1 -3 -7
-5 -1 9 3 1 -4 -6 -2
-11 -7 14 8 5 4 -1 14
-10 -4 17 12 9 5 2 8
-5 -6 14 10 5 1 -2 -5
-1 -5 9 5 2 -4 -6 -8
-4 -1 13 9 4 2 -3 -2
-2 -1 13 10 6 2 -2 -7
-1 2 16 12 9 5 2 3
-1 -2 14 10 7 2 0 -1
-1 -1 16 12 9 6 1 -1
-10 -5 17 13 10 7 1 0
-10 -1 16 12 8 4 -1 1
-8 -2 15 11 8 2 -2 2
-2 -2 17 13 8 3 -1 -2
-2 0 15 13 8 2 -1 -2
-6 2 18 15 11 6 2 1
-12 0 20 18 16 10 6 11
-10 1 18 16 14 9 4 4
-8 4 18 16 14 9 5 6
-6 8 22 18 16 12 8 12
6 9 16 14 12 7 3 5
5 7 16 15 11 7 2 2
0 5 18 16 14 9 4 6
7 8 17 15 13 7 2 5
0 3 18 16 13 9 3 2
-13 3 21 20 18 12 8 8
-12 8 20 20 18 12 8 12
-4 8 17 17 16 10 5 6
-4 7 18 18 17 11 7 2
-5 4 19 18 18 13 7 10
-2 6 19 16 16 11 6 8
6 7 17 15 15 12 6 2
6 10 20 18 18 14 9 4
6 11 20 19 18 16 9 5
-2 6 19 17 15 10 8 14
-3 1 16 15 15 9 5 9
-2 2 16 14 16 9 6 5
-3 5 15 15 17 10 7 3
-3 6 13 13 16 12 6 4
-6 10 13 14 16 15 7 9
-11 12 18 19 20 18 12 17
-1 10 17 17 20 14 11 13
1 9 19 17 21 14 11 9
-9 2 17 15 19 12 8 4
-6 5 17 17 20 13 10 6
-4 7 17 15 19 12 8 5
-5 3 15 15 18 13 6 3
-1 4 14 14 18 14 7 5
2 4 11 11 14 7 4 1
3 7 11 10 14 8 4 2
1 9 14 12 16 10 7 3
0 11 12 11 15 10 6 -1
2 10 12 11 15 10 5 0
2 2 14 12 16 10 6 5
3 -1 12 12 15 9 7 11
4 3 12 11 15 11 6 4
3 2 13 12 16 12 6 8
-3 3 14 14 18 12 9 15
-4 4 14 15 20 13 11 15
-8 1 14 14 19 13 10 15
-8 3 10 11 15 10 8 14
-5 6 9 9 14 8 6 11
-1 4 11 9 14 8 6 4
0 3 10 8 13 8 5 7
-1 -1 9 9 14 7 6 2
-1 1 7 7 12 8 4 0
-3 4 12 10 16 10 7 11
-4 4 12 11 16 10 8 11
9 11 11 9 15 9 7 10
0 8 11 8 14 9 6 12
-10 4 8 6 11 6 3 6
-6 5 8 6 12 6 4 4
-1 -1 10 7 12 6 3 6
-8 -4 10 7 13 7 4 3
-7 -1 10 7 13 7 4 2
-3 1 8 7 13 8 3 4
-1 3 11 8 15 12 5 9
-2 3 9 8 14 9 6 13
-2 5 7 5 11 8 5 5
-1 5 6 3 12 8 4 4
3 5 9 5 12 8 5 11
1 5 9 5 12 9 5 11
-3 1 10 7 13 9 6 9
-3 0 8 5 12 9 4 3
-5 -1 6 2 8 4 1 4
-5 0 6 3 11 6 3 4
-2 3 7 5 13 9 4 9
-1 0 7 5 12 10 5 9
-1 1 3 2 9 8 3 8
3 4 3 1 10 6 2 6
0 5 7 5 13 9 6 9
-5 2 9 4 12 10 6 7
0 2 8 3 11 12 4 7
1 3 6 2 10 6 2 9
0 4 6 2 8 5 2 0
2 7 5 1 9 14 1 2
-3 4 5 3 11 12 3 6
-4 2 6 4 12 9 6 3
-1 2 5 2 11 7 5 6
-2 0 5 3 12 8 5 8
1 1 6 3 12 9 6 6
1 1 7 3 12 9 5 12
0 4 6 2 10 6 4 13
-5 1 7 3 12 8 4 9
-3 -4 4 0 8 4 1 9
1 0 4 1 9 4 2 8
-3 0 4 1 8 6 1 1
-9 -2 3 0 7 7 0 2
-8 1 5 1 10 7 3 3
-5 0 3 -1 8 6 1 2
-5 -3 4 0 8 10 2 2
-6 -2 8 2 11 10 5 10
-4 -1 6 2 11 7 4 12
-4 0 6 3 11 8 4 11
-1 5 5 2 9 7 4 6
-2 0 4 1 10 7 3 5
-5 -2 4 0 10 7 3 5
-8 -5 3 0 9 7 2 3
-2 -5 0 -2 6 4 0 3
2 1 2 -1 8 6 0 1
-5 1 2 -1 9 10 3 4
2 3 2 -2 8 8 3 8
4 2 1 -4 6 3 0 2
2 -3 1 -3 7 5 0 -2
7 1 4 0 9 9 3 4
5 2 4 0 10 7 4 8
0 9 2 -2 8 7 3 2
-4 10 6 2 14 11 7 7
4 10 7 3 14 12 8 8
2 7 8 4 16 15 9 6
-6 2 8 3 14 13 7 4
-4 2 5 1 12 7 5 2
-4 5 9 3 14 10 6 10
1 7 9 2 14 10 5 14
-4 9 12 6 16 13 9 14
-7 11 15 9 20 17 12 15
3 13 12 6 17 14 8 9
8 11 10 4 15 13 6 16
-4 11 13 6 17 16 9 16
-3 10 13 6 18 17 9 16
9 22 13 7 19 17 11 16
-4 16 15 10 20 19 13 16
-10 10 15 9 19 18 12 18
-4 14 14 7 18 16 10 14
-10 19 18 13 22 23 16 22
-4 23 17 13 23 23 15 18
5 25 16 11 23 20 14 23
1 25 14 10 23 20 14 29
0 23 11 7 20 19 13 16
4 23 11 6 19 18 12 18
8 28 10 6 19 18 11 20
9 30 13 10 22 22 16 23
0 32 16 13 26 28 20 25
6 40 17 15 29 34 21 28
4 39 16 14 28 33 22 29
3 42 16 15 28 27 23 31
15 43 16 13 27 27 22 31
10 38 13 10 25 25 20 27
11 34 10 6 23 23 18 22
13 38 8 5 20 22 15 27
4 34 7 2 19 22 15 20
-2 29 12 7 23 27 20 24
0 23 11 5 21 26 17 24
-8 18 8 6 19 23 15 23
1 16 6 2 16 17 11 24
1 12 4 1 13 14 8 22
0 9 4 -1 12 13 6 13
0 11 4 -1 12 12 5 11
0 8 4 0 12 14 7 11
-3 11 8 2 15 16 9 20
-2 10 9 3 17 18 10 18
-4 10 6 1 14 18 7 13
-3 6 5 0 13 16 6 11
-10 -4 2 -3 12 14 4 8
-3 -1 0 -5 8 9 2 4
-2 1 0 -7 7 13 1 7
1 -2 -3 -9 6 13 0 4
5 1 -3 -9 6 9 0 12
2 -6 -3 -10 6 12 1 8
1 -5 -3 -10 5 8 2 9
-4 -6 -3 -10 4 6 0 16
-8 -10 -6 -12 3 4 -1 10
5 -6 -5 -12 3 3 -2 7
7 -6 -5 -12 3 8 -3 4
-10 -12 -5 -11 3 7 -2 7
-11 -10 -1 -6 7 8 1 5
-11 -10 -1 -7 7 7 1 8
-10 -11 -2 -7 5 7 1 12
-2 -4 -1 -5 7 11 3 10
-12 -9 0 -6 8 12 4 12
-8 -8 1 -7 7 12 4 7
-6 -12 -1 -7 6 10 2 8
-1 -11 -3 -10 5 5 0 7
-4 -9 -2 -9 6 6 -1 2
-8 -9 2 -5 9 12 2 6
-6 -11 3 -5 7 13 0 0
-1 -13 8 -3 7 5 -1 2
-6 -18 11 2 7 5 -4 2
-6 -22 15 7 9 7 -6 -3
-9 -21 21 17 16 11 -3 -2
-8 -11 27 27 25 17 2 4
-1 -1 36 41 38 28 11 13
1 3 41 49 50 37 17 12
6 10 45 59 64 49 24 23
2 18 53 76 84 68 40 32
4 25 59 90 103 89 55 43
10 40 65 106 125 112 74 60
11 54 68 117 147 132 92 75
19 63 62 120 163 151 108 83
29 78 39 110 175 167 125 98
33 95 4 92 185 185 144 121
36 115 -38 70 189 197 158 139
36 125 -81 38 178 196 161 142
37 125 -124 -5 144 168 148 133
35 126 -156 -47 103 136 128 118
33 122 -181 -90 58 93 101 105
24 115 -201 -132 11 52 74 90
10 101 -220 -169 -31 12 45 72
9 69 -245 -206 -74 -25 16 49
20 42 -265 -232 -105 -53 -5 33
21 24 -269 -240 -117 -64 -14 24
16 6 -271 -246 -129 -73 -23 17
15 -4 -261 -236 -130 -76 -26 15
19 -10 -239 -215 -121 -73 -29 9
20 -12 -211 -191 -110 -67 -29 4
19 -9 -180 -167 -99 -61 -28 2
13 -14 -153 -145 -87 -53 -25 4
9 -16 -128 -123 -75 -46 -24 5
3 -14 -104 -105 -63 -38 -20 4
-1 -17 -90 -92 -57 -36 -20 -3
1 -18 -77 -81 -52 -31 -21 -6
1 -19 -65 -72 -47 -31 -23 -4
-2 -17 -54 -60 -42 -29 -21 1
-8 -17 -40 -47 -30 -21 -16 1
-8 -14 -31 -37 -22 -14 -12 -7
-5 -13 -26 -31 -18 -9 -10 -5
-8 -17 -22 -28 -15 -10 -8 3
1 -17 -22 -28 -16 -10 -10 2
3 -15 -18 -25 -13 -8 -9 -3
0 -16 -12 -20 -11 -6 -7 1
2 -18 -10 -18 -12 -7 -8 -3
2 -17 -9 -17 -12 -8 -10 -6
-2 -16 -7 -14 -11 -7 -9 -3
-2 -15 -4 -12 -8 -4 -7 -3
-2 -14 -3 -11 -8 -3 -7 0
-3 -16 -5 -13 -8 -3 -8 3
-12 -17 -6 -12 -7 -2 -6 -3
-8 -16 -7 -13 -7 -2 -7 -5
-5 -16 -3 -11 -4 -1 -6 -3
2 -11 -1 -9 -5 -2 -5 0
5 -8 2 -9 -5 -3 -6 0
0 -12 1 -10 -7 -2 -9 -1
-5 -13 1 -9 -9 -3 -9 0
-5 -11 0 -8 -7 -4 -8 2
2 -14 1 -6 -5 -2 -8 -2
2 -15 -2 -11 -8 -3 -12 -11
7 -12 -3 -11 -10 -1 -10 -10
3 -13 2 -7 -5 -1 -6 -4
-12 -25 0 -8 -8 -2 -8 -4
-7 -18 1 -7 -7 -2 -7 1
-10 -15 2 -8 -8 1 -8 -1
-14 -17 6 -4 -5 3 -7 -6
-5 -13 6 -3 -5 1 -6 -8
-2 -13 6 -2 -4 1 -5 -6
-7 -15 5 -4 -4 2 -8 -8
-3 -11 2 -9 -8 -1 -11 -8
-4 -10 0 -8 -9 -2 -9 -7
-5 -8 3 -6 -5 0 -5 0
-7 -13 6 -5 -4 2 -4 7
-7 -11 8 -2 -4 5 -2 0
-2 -9 10 -3 -4 2 -3 4
-4 -12 7 -5 -7 -2 -7 0
-2 -8 6 -6 -9 1 -8 -2
-1 -7 8 -2 -5 5 -6 -1
2 -9 7 -4 -6 -1 -8 4
4 -9 6 -2 -3 3 -5 1
-3 -11 6 -1 -3 2 -3 -1
-9 -16 4 -4 -5 0 -5 -4
-12 -15 4 -6 -7 -1 -6 -5
-11 -15 3 -6 -7 -2 -5 -5
-2 -13 5 -5 -7 -3 -7 -4
-2 -10 10 0 -4 0 -6 5
-3 -12 11 1 -5 -1 -6 8
2 -10 9 -2 -9 -6 -10 -4
0 -16 4 -6 -10 -9 -13 -9
-5 -15 7 -2 -6 0 -8 4
-13 -16 7 -2 -5 1 -5 3
-8 -17 3 -6 -8 -5 -10 2
-8 -14 5 -5 -8 -3 -8 1
-9 -12 8 -1 -7 -2 -6 -4
-6 -13 7 -1 -7 1 -6 -4
-7 -11 10 2 -5 0 -5 7
-5 -13 9 0 -9 -6 -9 1
-6 -13 8 0 -9 -8 -9 -5
-2 -13 8 0 -7 -5 -7 -5
-3 -13 7 -1 -8 -6 -9 -3
1 -7 5 -2 -9 -3 -9 -7
4 -9 6 -2 -7 1 -8 -5
-3 -15 5 -5 -9 -3 -10 -11
-4 -15 4 -6 -12 -7 -11 -11
-1 -11 6 -2 -9 -6 -9 -11
-6 -10 9 0 -9 -5 -8 -8
-6 -15 8 0 -12 -7 -9 0
-14 -19 8 0 -11 -8 -9 0
-12 -15 11 2 -8 -4 -6 1
4 -10 7 0 -10 -8 -9 -6
8 -9 6 -1 -11 -5 -7 -8
3 -11 9 0 -9 -3 -6 -3
-5 -15 5 -4 -13 -9 -11 -5
-6 -19 4 -6 -17 -13 -13 -12
-6 -18 8 -2 -13 -10 -11 -5
-5 -15 7 -2 -16 -11 -14 -14
-5 -17 6 -3 -17 -12 -14 -13
-9 -18 7 -2 -17 -14 -14 -7
-6 -18 4 -3 -17 -14 -14 -5
-5 -23 2 -6 -19 -15 -15 -9
-5 -20 -2 -9 -20 -16 -15 -14
2 -17 -4 -11 -22 -18 -18 -13
10 -15 -3 -11 -23 -18 -18 -9
-3 -20 1 -8 -21 -15 -14 -7
-1 -21 -2 -9 -22 -13 -16 -14
1 -22 -3 -10 -23 -17 -18 -15
2 -23 -5 -11 -25 -20 -18 -14
7 -20 -7 -12 -26 -19 -18 -16
-3 -24 -9 -14 -27 -18 -18 -15
-7 -27 -12 -17 -30 -21 -20 -14
-4 -25 -13 -16 -27 -19 -16 -8
-5 -24 -15 -18 -27 -19 -17 -10
2 -17 -16 -21 -30 -20 -18 -17
4 -20 -17 -24 -33 -22 -19 -18
7 -24 -18 -24 -34 -26 -20 -11
12 -19 -19 -26 -36 -28 -22 -13
7 -19 -20 -27 -37 -28 -20 -17
3 -20 -20 -27 -35 -24 -17 -13
1 -15 -19 -25 -32 -21 -15 -13
-5 -17 -22 -26 -32 -21 -14 -11
0 -18 -27 -31 -37 -22 -15 -7
7 -13 -29 -35 -38 -23 -18 -8
4 -11 -30 -36 -40 -26 -20 -8
2 -10 -26 -34 -38 -26 -16 -2
2 -10 -25 -31 -35 -22 -12 -6
4 -5 -25 -31 -35 -23 -13 -6
-3 -9 -25 -33 -37 -22 -13 -6
-6 -13 -27 -34 -37 -23 -13 -10
-3 -15 -30 -35 -37 -23 -13 -8
7 -12 -31 -36 -36 -22 -12 -3
9 -13 -32 -37 -36 -20 -10 1
8 -9 -31 -35 -33 -17 -9 6
7 -7 -30 -34 -34 -16 -8 -2
6 -8 -28 -33 -33 -16 -8 -5
4 -9 -25 -29 -31 -16 -7 -3
-1 -9 -25 -28 -29 -15 -8 -3
3 -3 -22 -27 -28 -12 -7 -2
4 -2 -18 -23 -24 -9 -4 -2
7 -2 -18 -22 -21 -8 -3 -3
4 2 -15 -18 -16 -2 0 1
0 0 -15 -18 -15 -1 0 1
-1 2 -13 -16 -14 -2 1 2
4 4 -9 -13 -14 -2 1 7
7 2 -7 -12 -15 -4 1 1
2 3 -1 -6 -12 -1 3 4
-5 1 4 -3 -9 2 3 4
-4 0 5 -2 -9 2 2 10
-4 4 8 2 -7 1 4 9
-9 1 7 2 -6 1 2 -1
-7 3 9 4 -2 5 3 1
3 9 9 3 -3 5 3 0
-4 1 10 4 -2 4 2 3
-2 1 11 4 -3 3 2 6
-3 0 12 4 -4 2 1 4
-6 2 14 7 -1 4 3 3
1 5 15 8 -2 5 2 3
-3 2 15 8 -3 2 1 0
-1 2 15 8 -3 4 0 4
5 0 14 8 -3 2 -1 7
10 3 14 8 -3 3 -3 1
0 -3 15 7 -2 7 -1 -4
-10 -9 12 5 -4 2 -3 -3
-9 -3 14 8 -2 5 -1 3
-6 1 15 8 -2 3 0 4
-9 1 17 10 0 5 3 2
-9 1 19 12 2 6 4 2
-7 0 20 14 2 6 6 1
1 2 16 10 -2 2 1 0
-6 -3 16 10 -2 3 1 -2
-11 -7 15 8 -5 2 -3 -7
-10 -4 13 5 -6 3 -4 -8
-5 -1 14 5 -4 1 -4 -6
2 3 10 3 -8 -3 -7 -6
-6 -2 13 5 -8 -1 -5 2
-7 -1 15 7 -6 1 -2 -1
-5 -3 15 7 -5 3 -2 -4
-4 -3 15 10 -6 3 -3 -2
-2 -2 16 9 -6 -1 -3 -5
-3 -4 14 9 -5 -2 -4 -6
-6 -4 12 6 -7 -3 -5 -3
-4 -3 13 7 -6 -3 -4 -7
-4 -5 14 8 -6 -2 -4 -3
-6 -6 14 7 -7 -1 -4 0
-10 -8 18 9 -6 -1 -2 5
-9 -6 19 11 -6 -1 -3 7
-6 -5 18 9 -6 -2 -5 3
-4 -2 18 10 -7 -2 -5 -3
2 1 16 7 -8 -2 -9 -11
-6 -3 18 10 -5 -1 -5 -3
-13 -7 17 11 -5 -1 -4 1
-9 -6 20 14 -2 3 -1 0
-6 -3 21 15 0 7 1 -1
-8 -2 24 16 1 4 3 4
-13 -4 23 15 -1 3 1 0
-7 -2 23 14 -3 1 0 7
-6 0 24 13 -3 0 -1 11
-6 -1 25 17 -2 0 0 3
-2 3 25 16 -2 0 0 4
-4 1 23 15 -2 1 -2 -1
-4 2 23 15 0 4 -1 0
-4 -2 23 15 -1 1 -3 0
-8 -3 22 14 -1 0 -5 -2
-1 4 24 16 0 2 -3 -3
-6 -1 26 17 -1 1 -3 -6
-9 -6 25 16 -2 -2 -5 0
-5 -1 27 17 0 1 -2 -1
-4 3 31 21 4 5 2 11
-7 3 30 22 4 6 3 9
-12 0 29 23 7 10 4 9
-16 -1 29 23 5 10 4 9
-9 3 28 22 5 12 5 1
-2 11 28 21 5 8 4 -3
-5 7 28 21 5 8 5 -2
-4 7 29 21 4 9 6 1
-3 7 29 22 6 11 6 6
-2 7 28 23 6 9 4 4
3 6 28 20 4 5 0 1
-1 5 30 22 6 6 2 -2
-3 7 31 24 9 9 4 5
-6 9 32 25 10 13 6 13
-11 6 32 25 11 16 8 29
-10 9 33 28 13 16 11 34
-7 8 30 24 10 13 9 27
-7 6 29 24 9 13 9 29
-2 8 31 25 12 16 12 26
-1 10 30 22 10 14 9 20
-3 13 31 24 10 12 10 20
-2 12 29 23 11 11 7 21
-2 10 29 25 12 15 8 18
1 13 30 25 11 14 9 15
1 15 33 26 13 15 12 26
4 12 30 25 12 15 10 26
-9 4 29 23 11 12 9 27
-6 11 29 23 10 13 11 20
-5 10 30 25 12 17 12 16
-7 13 26 21 9 12 8 20
-3 8 24 20 6 6 6 19
-6 6 28 23 10 9 10 17
-10 7 30 24 13 11 12 17
-8 8 33 26 14 12 14 23
-8 12 31 24 13 12 12 16
-5 12 29 23 10 10 8 13
6 16 30 23 11 12 9 13
0 9 27 20 8 11 5 9
-2 7 26 19 7 7 4 8
-2 8 24 18 6 5 3 8
1 6 22 17 5 4 2 10
6 4 22 16 5 4 3 11
3 6 26 21 11 10 9 20
-1 8 29 24 12 12 11 19
-11 4 28 21 11 11 10 23
-8 3 26 19 9 9 7 21
-6 10 26 20 12 12 9 19
-7 10 25 19 8 11 6 23
-3 7 25 16 5 8 4 11
-2 8 26 18 6 8 4 12
-3 9 27 20 8 12 8 21
-4 5 25 17 6 9 6 16
-3 2 23 17 7 6 4 11
-2 1 22 16 6 5 4 12
-5 3 23 16 6 7 8 12
-2 8 25 17 8 11 9 11
-3 5 22 15 6 8 6 7
-4 4 23 14 6 6 6 8
-3 8 24 16 9 9 8 17
-5 9 24 17 7 6 5 12
-8 9 25 18 6 6 6 12
-7 7 25 18 6 7 7 14
-5 4 24 18 7 8 7 8
-6 6 24 19 8 7 7 17
-6 6 24 18 8 8 8 15
-8 7 22 15 5 7 6 13
-4 6 21 15 4 5 5 14
3 7 18 11 2 2 3 7
4 8 21 14 6 8 6 7
0 5 22 15 6 7 5 10
-5 7 21 14 4 3 3 8
-5 9 23 16 5 5 4 1
-5 5 23 18 8 8 5 2
-4 5 19 13 3 3 1 4
-4 5 13 7 -1 -2 -2 4
3 3 15 7 -1 -3 0 6
-5 1 19 11 2 2 5 10
-7 3 22 13 4 6 5 10
-5 3 23 14 6 7 4 5
-4 5 23 13 5 5 2 4
-8 4 22 11 3 3 1 6
-3 4 19 10 1 -1 1 9
-9 6 23 14 6 4 5 7
-16 5 24 16 8 7 8 7
-6 2 20 12 4 3 5 4
-5 -2 20 11 3 2 6 7
-4 1 20 13 4 4 7 8
0 2 20 11 1 4 4 1
0 1 21 12 3 4 4 4
-1 1 23 14 5 5 5 5
-4 2 22 13 5 1 4 0
-2 4 22 15 5 2 3 0
-1 4 22 15 6 3 2 10
1 9 20 14 5 2 2 8
-5 9 21 16 6 3 3 1
-11 3 23 17 6 6 4 2
-10 -1 23 16 5 3 4 0
-9 -2 21 14 3 2 3 1
-4 -3 19 12 2 0 1 11
-4 -3 16 10 0 -1 1 2
1 1 16 11 0 -2 2 -2
-5 0 19 14 2 0 5 4
-9 -1 22 17 5 2 7 3
-3 0 20 14 5 3 6 -1
-6 1 19 12 5 3 5 3
3 6 17 13 5 3 3 -1
0 3 17 14 5 4 3 0
-4 -4 16 10 0 -2 0 -6
-2 0 18 11 0 -2 0 -7
-3 1 18 12 1 -2 -1 -5
-4 1 19 15 3 1 1 -1
-4 3 22 16 4 2 5 2
-4 2 22 15 4 3 4 -1
1 9 22 17 6 3 6 -2
2 11 23 17 8 4 8 1
-6 11 26 19 11 7 11 5
-17 11 29 20 12 9 11 8
-17 14 30 23 14 10 13 5
-5 18 30 24 12 9 12 6
-12 10 28 21 8 4 9 3
-16 6 28 22 8 4 8 4
-3 13 27 20 8 4 7 0
2 13 30 22 10 8 7 6
3 11 29 22 10 9 7 1
2 9 28 21 10 11 7 10
-8 11 31 25 14 11 10 10
-3 17 35 28 17 11 13 7
-3 21 36 29 17 13 15 11
-12 16 35 28 16 12 14 16
-9 19 31 27 13 11 12 14
-6 22 31 28 17 12 14 10
-4 29 31 29 19 13 15 12
-4 30 34 32 20 15 18 13
-2 27 32 29 18 13 15 12
0 29 30 28 19 17 16 9
-1 32 32 30 22 21 21 11
1 34 32 31 23 20 22 13
3 39 33 32 24 20 23 15
1 37 34 32 24 19 23 23
-4 36 33 33 23 22 23 18
-4 34 30 31 20 18 20 15
-2 34 28 29 19 17 19 11
1 35 26 28 19 15 18 14
2 33 23 27 19 14 18 9
10 30 19 23 16 13 17 4
12 26 17 21 15 11 15 10
-3 14 17 21 14 13 15 6
-9 15 19 21 13 12 15 4
-9 17 22 22 13 10 14 5
-9 14 19 21 12 10 11 2
-4 12 18 23 11 6 9 -3
-2 11 20 24 11 5 8 -3
-3 10 23 25 12 5 9 -1
-9 6 21 24 12 7 9 5
-10 1 19 22 11 9 9 2
-12 -3 18 21 11 10 8 -3
-9 -6 15 17 7 9 5 1
-11 -5 14 18 7 2 4 1
-3 -1 12 15 4 -3 1 -4
1 -2 11 13 1 -6 -1 -8
1 -7 8 9 -2 -8 -4 -11
-3 -8 9 11 -1 -6 -1 -13
-8 -6 11 13 2 -4 0 -3
-13 -9 12 15 4 -2 2 -6
-7 -11 12 14 4 -2 2 -7
-6 -10 9 11 2 -4 1 -11
-9 -7 7 10 0 -4 -1 -11
-10 -7 5 9 0 -4 -3 -7
-15 -9 7 9 0 -6 -2 -3
-17 -8 9 12 1 -3 0 -4
-10 -8 9 12 3 -6 0 -5
-10 -7 9 13 3 -5 1 -6
-9 -5 10 13 3 -5 2 -11
-7 -5 8 12 2 -7 1 -7
-6 -8 9 12 4 -6 3 -3
-3 -7 9 13 5 -3 4 -5
-8 -12 6 10 3 -4 0 -4
-7 -10 6 11 3 -6 0 -12
-1 -9 7 10 1 -7 -2 -14
1 -8 10 13 1 -8 -2 -5
-3 -19 11 13 -2 -12 -9 -8
-8 -23 19 21 2 -9 -7 -19
-8 -16 29 33 12 -3 -3 -14
-10 -17 33 42 21 5 0 -12
-8 -11 38 53 32 11 7 -9
-3 -2 44 62 43 20 14 -6
7 13 48 71 53 29 20 0
1 18 52 82 71 46 32 10
1 23 57 95 89 63 45 23
4 34 67 112 112 85 63 37
6 47 73 126 135 109 83 51
12 53 70 131 153 127 97 60
25 66 55 124 165 144 110 73
31 82 30 110 179 165 129 94
23 104 -4 91 190 182 149 115
24 121 -43 65 191 192 161 125
25 126 -85 27 168 176 156 124
28 124 -125 -17 129 149 141 115
25 118 -154 -61 84 108 115 101
15 112 -179 -102 35 61 84 78
5 104 -199 -142 -11 17 54 65
-1 86 -217 -174 -52 -22 27 45
7 55 -240 -206 -92 -55 -1 18
10 27 -256 -225 -116 -78 -18 5
13 7 -262 -233 -128 -91 -28 -1
19 -7 -266 -238 -139 -99 -38 -9
16 -10 -252 -225 -135 -97 -38 -18
16 -11 -228 -202 -124 -89 -38 -20
18 -11 -196 -174 -109 -81 -32 -18
8 -20 -168 -149 -100 -74 -31 -21
4 -22 -143 -128 -87 -69 -29 -23
6 -20 -121 -108 -75 -62 -28 -21
-7 -22 -99 -90 -65 -55 -24 -18
0 -18 -87 -79 -62 -56 -26 -24
3 -18 -74 -68 -54 -50 -25 -24
-6 -23 -59 -55 -43 -42 -20 -15
-2 -21 -47 -45 -38 -39 -18 -20
3 -18 -38 -35 -30 -35 -18 -16
2 -16 -31 -28 -22 -28 -16 -20
-4 -18 -23 -19 -15 -21 -11 -14
-4 -16 -17 -15 -14 -22 -11 -11
-2 -14 -13 -11 -13 -21 -10 -14
-1 -10 -8 -6 -9 -17 -7 -15
-4 -14 -7 -4 -9 -16 -7 -10
-9 -15 -7 -5 -9 -17 -9 -12
-4 -14 -4 -2 -7 -15 -8 -21
-2 -12 -3 -1 -7 -14 -8 -20
-3 -22 -1 0 -6 -12 -8 -15
5 -19 -2 -1 -6 -16 -9 -17
10 -15 -5 -4 -8 -16 -11 -23
13 -11 1 2 -2 -9 -5 -17
0 -15 4 5 0 -7 -3 -12
-8 -17 3 3 -3 -8 -5 -15
-5 -14 4 4 -4 -6 -4 -16
-11 -18 4 5 -4 -5 -6 -15
-3 -15 4 5 -3 -10 -6 -17
-1 -13 4 4 -4 -14 -8 -14
-10 -15 8 9 1 -11 -4 -11
-2 -14 4 5 -3 -14 -8 -13
1 -14 3 3 -4 -13 -7 -23
-4 -13 6 6 -1 -9 -5 -11
0 -13 5 5 -2 -14 -8 -13
-1 -13 3 2 -4 -15 -10 -18
-1 -16 6 4 -4 -15 -8 -17
-6 -19 6 5 -4 -15 -9 -18
-7 -19 5 4 -3 -14 -8 -14
0 -9 10 9 3 -7 -2 -10
0 -8 9 9 3 -10 -4 -8
-1 -12 6 6 1 -12 -7 -10
-3 -14 6 5 2 -10 -4 -11
-2 -11 9 9 6 -6 -1 -15
-4 -8 11 11 7 -5 0 -13
-1 -11 10 9 5 -7 -1 -3
1 -15 7 5 0 -11 -3 -9
-3 -11 10 9 1 -11 -4 -15
-8 -15 10 8 1 -13 -6 -21
-7 -16 10 8 2 -12 -6 -15
-6 -14 10 9 4 -10 -6 -4
-7 -16 8 8 3 -11 -7 -20
-5 -12 10 8 3 -10 -4 -13
-8 -13 8 7 1 -10 -4 -12
1 -12 5 5 -1 -12 -6 -18
3 -10 6 4 -1 -9 -6 -13
1 -15 5 3 -5 -13 -9 -15
-6 -15 11 10 0 -11 -6 -13
-4 -16 11 10 1 -11 -6 -9
0 -12 11 9 1 -8 -5 -14
1 -12 11 11 3 -5 -4 -9
1 -13 11 11 3 -6 -3 -13
1 -13 11 11 3 -7 -2 -8
2 -6 13 12 3 -7 -1 -9
11 -3 10 9 1 -8 -3 -10
-4 -14 7 6 -1 -9 -5 -19
-3 -17 4 4 -4 -13 -9 -17
-1 -11 8 8 -2 -12 -7 -20
-1 -11 12 10 1 -11 -7 -17
0 -15 11 9 0 -8 -8 -15
-6 -22 9 9 1 -10 -7 -21
-1 -16 9 9 3 -9 -6 -18
9 -10 11 11 4 -8 -4 -17
10 -6 7 8 -1 -10 -6 -21
-3 -15 6 6 0 -14 -8 -21
-12 -22 5 4 -2 -14 -8 -18
-5 -21 7 7 -1 -12 -6 -13
1 -14 8 10 -1 -11 -7 -17
5 -10 7 8 -4 -15 -9 -7
8 -11 9 8 -4 -17 -9 -13
4 -14 9 8 -2 -16 -11 -18
2 -15 8 8 0 -13 -10 -20
-1 -16 8 10 2 -11 -7 -15
-4 -17 6 9 -1 -11 -8 -11
-8 -17 5 8 -2 -14 -10 -8
-7 -17 8 10 -1 -12 -7 -9
-5 -20 7 10 -3 -15 -8 -15
-2 -20 9 11 -1 -15 -8 -18
-3 -22 6 8 -4 -15 -11 -18
-1 -21 5 6 -6 -14 -10 -20
2 -21 4 7 -3 -12 -10 -12
1 -21 2 4 -5 -8 -12 -15
1 -18 3 6 -4 -12 -8 -6
4 -21 1 4 -8 -19 -11 -14
7 -24 -2 1 -12 -24 -15 -25
-4 -25 -1 1 -12 -23 -13 -19
-7 -27 -2 2 -12 -23 -12 -18
3 -26 -4 -1 -14 -25 -16 -19
0 -23 -3 0 -13 -19 -16 -16
-5 -26 -4 0 -15 -22 -16 -26
-3 -30 -8 -2 -17 -27 -18 -25
6 -20 -14 -9 -21 -30 -22 -23
5 -19 -15 -10 -22 -30 -21 -30
0 -22 -14 -8 -21 -29 -20 -26
-1 -22 -14 -8 -18 -27 -17 -17
3 -19 -16 -12 -20 -28 -16 -20
9 -17 -19 -13 -22 -29 -18 -29
8 -24 -17 -13 -22 -29 -17 -27
1 -25 -17 -14 -22 -30 -17 -18
3 -27 -23 -20 -27 -34 -23 -25
4 -28 -25 -22 -28 -32 -25 -27
7 -23 -24 -21 -27 -28 -22 -26
8 -17 -24 -22 -28 -32 -18 -31
4 -19 -24 -22 -26 -30 -15 -23
0 -24 -27 -25 -24 -27 -13 -15
-9 -27 -26 -26 -24 -24 -11 -14
-3 -22 -27 -27 -25 -28 -11 -13
3 -20 -28 -27 -26 -31 -14 -17
5 -17 -28 -27 -26 -27 -12 -16
8 -21 -32 -32 -31 -32 -16 -21
1 -27 -34 -33 -31 -36 -17 -19
8 -18 -33 -32 -27 -32 -13 -10
3 -13 -31 -31 -24 -29 -12 -12
3 -13 -33 -32 -24 -29 -14 -16
4 -13 -29 -28 -18 -21 -9 -12
3 -13 -27 -27 -16 -18 -7 -5
3 -9 -26 -26 -15 -20 -8 -4
-3 -8 -21 -21 -10 -17 -4 -1
3 -9 -22 -23 -12 -18 -3 -9
0 -9 -20 -18 -9 -14 0 -6
-2 -7 -18 -16 -6 -11 2 -6
5 -8 -20 -17 -7 -14 -1 -5
8 -4 -18 -17 -7 -14 -2 -4
3 0 -15 -14 -6 -12 -1 -4
-5 -5 -12 -10 -2 -6 0 -9
-7 -1 -8 -7 1 -6 2 -10
-3 1 -7 -5 3 -6 1 -7
2 3 -2 -2 5 -4 4 0
3 2 -1 -2 4 -5 4 -2
-3 0 2 2 6 -4 6 -2
-2 4 7 6 11 1 8 0
-7 0 5 5 12 2 7 -3
-3 -1 4 3 11 2 5 0
4 0 5 3 8 -1 3 -9
3 -1 5 3 6 -4 0 -8
-1 -3 5 3 6 -4 0 -9
-2 -7 8 6 8 -4 1 -10
3 -4 8 6 7 -5 0 -4
5 -2 11 8 9 -3 2 -2
1 0 11 8 8 0 2 -7
0 1 11 9 10 -1 3 1
4 1 13 10 12 2 5 3
8 3 13 10 12 2 5 -4
4 4 12 10 12 5 5 -4
-1 0 10 8 12 1 2 -1
0 -6 9 5 9 -2 0 1
0 -6 9 7 9 -3 0 -1
2 2 10 8 10 -1 -1 -10
2 2 13 9 10 3 -1 -9
-1 0 16 12 11 5 4 -2
-11 -10 15 13 12 1 3 -3
-11 -7 15 13 14 3 6 2
-6 -2 14 13 15 5 7 0
-7 -7 10 11 10 3 3 -7
-5 -3 9 7 7 -4 -2 -5
-1 2 5 5 5 -3 -4 -10
0 3 7 8 8 1 0 -9
-3 1 8 9 8 -3 -1 -10
-9 -4 10 10 7 -1 0 -9
-1 -5 11 10 5 -4 0 -11
-1 -7 11 11 7 -5 -2 -5
-10 -13 9 8 7 -6 -5 -1
-2 -8 9 8 7 -3 -5 -6
-2 -5 11 9 9 -3 -4 -11
2 -1 10 9 9 -2 -2 -9
5 0 11 9 9 -1 0 -5
5 2 11 10 8 -4 -1 -9
2 -3 12 10 7 -4 -1 -11
-3 -8 12 11 7 -4 -1 -14
-9 -11 13 12 8 -3 -2 -9
-7 -8 14 14 10 0 -1 -1
2 0 12 12 8 -2 -3 -14
-2 -3 13 11 9 -3 -2 -13
-2 0 14 12 9 -3 -2 -10
1 -1 12 10 8 -3 -5 -13
0 -4 16 12 12 -1 0 -6
1 -1 18 13 13 2 1 -8
-2 -3 15 12 10 -2 -1 -8
1 0 15 12 10 0 0 -4
-5 3 20 17 12 0 2 -2
-6 -1 21 18 13 0 0 -1
2 1 17 14 10 -4 -3 -2
1 2 15 12 9 -4 -3 -11
7 2 15 13 11 -1 -1 -8
-3 -1 18 16 15 4 3 2
-1 2 21 17 15 5 3 2
-1 6 24 19 16 5 4 5
-2 11 22 20 18 5 4 -2
8 9 20 18 16 2 1 -4
9 6 20 18 14 1 -1 -7
5 4 20 20 15 2 -1 -11
8 4 22 21 18 3 3 -4
0 -2 20 19 16 3 2 -3
-4 2 19 19 16 3 2 -5
-10 3 22 22 22 8 4 -3
-5 7 23 23 23 9 6 -1
1 12 23 23 21 7 5 5
-1 13 23 23 21 6 6 -1
-3 11 23 23 22 7 6 0
4 12 25 25 23 9 9 3
1 10 24 24 24 10 8 0
1 9 23 24 25 12 8 0
-3 6 23 25 26 12 8 0
-4 6 23 25 25 8 7 -1
2 8 21 23 24 6 5 -4
-1 9 23 24 27 8 8 2
-5 9 26 25 28 10 10 4
1 12 27 24 26 10 8 0
3 12 25 23 25 12 6 4
8 16 23 22 25 10 8 2
9 17 24 24 27 13 8 -2
4 15 25 25 28 9 7 -1
0 12 25 25 27 8 7 0
-1 8 22 22 24 6 7 1
-2 6 21 21 24 9 9 -1
-2 9 24 24 27 13 12 3
-2 13 26 27 31 15 15 3
1 15 25 25 29 13 13 3
-1 9 21 21 22 7 6 -1
-2 6 21 20 23 9 5 -2
6 9 20 18 23 7 5 -1
11 10 19 18 23 5 5 -4
8 10 19 18 22 6 5 0
5 11 20 19 24 11 8 4
3 7 18 17 22 8 5 -2
7 7 16 15 19 7 2 -5
-1 7 18 16 21 7 4 -7
-7 7 17 15 21 6 4 -5
-5 8 17 17 23 6 4 -2
-7 9 20 19 23 6 6 1
-3 10 23 19 22 7 5 5
7 12 23 19 23 8 7 13
4 9 20 18 24 8 7 6
4 9 19 16 21 7 7 3
6 9 19 16 22 5 6 3
10 14 20 17 22 8 7 -1
9 12 20 17 23 11 6 1
-1 6 18 14 19 5 3 1
4 8 14 11 15 0 1 0
-1 11 15 13 17 2 3 -1
-7 8 18 14 19 4 5 -1
-5 9 19 15 19 4 7 9
-3 9 19 16 18 5 7 8
-1 11 18 15 17 4 6 4
1 8 15 12 15 3 5 7
8 10 16 13 16 5 7 11
5 8 16 13 14 5 5 4
-2 6 15 10 12 0 3 6
2 9 17 12 15 5 6 6
1 9 17 11 14 4 6 1
-7 6 17 13 16 10 5 2
-4 6 16 12 17 8 5 6
6 9 16 11 14 3 4 2
9 8 16 11 13 1 1 -4
8 7 15 12 15 2 1 -1
2 7 19 13 16 6 4 6
2 9 18 12 13 4 3 4
7 14 18 13 14 4 3 3
4 6 18 12 13 2 2 -2
1 2 18 12 12 2 1 2
7 6 16 10 10 0 0 0
1 6 16 11 12 2 2 -3
2 3 13 7 10 1 0 3
6 8 12 8 11 0 0 2
6 11 14 9 13 4 2 3
7 10 16 10 11 4 2 1
11 9 15 8 8 -1 -1 -7
12 11 15 9 11 3 1 -6
7 10 14 8 10 2 1 -6
5 4 12 6 7 -2 0 -5
-2 3 14 8 8 1 1 -1
-3 3 15 9 11 2 2 -4
-1 3 13 7 8 -1 0 -4
2 8 15 9 8 1 1 -8
8 11 12 7 10 5 0 -7
0 8 15 9 12 4 2 -4
2 12 18 11 13 8 4 -1
7 8 17 9 10 5 2 -3
3 6 17 9 10 1 2 -2
2 11 19 10 10 2 3 -3
1 9 16 8 8 1 0 -7
7 9 14 7 8 -2 -1 -7
13 10 12 6 7 -3 -2 -6
14 7 12 5 5 -1 -2 -3
8 10 15 8 8 2 1 -5
6 11 17 9 8 0 3 -4
6 8 17 8 7 0 3 -4
7 9 19 8 10 1 4 -1
11 5 14 5 8 1 0 -2
5 2 13 5 6 -2 -2 -2
4 4 13 5 5 -5 -4 -4
2 10 15 8 8 -3 0 -3
3 12 16 8 8 -1 1 -6
4 10 14 7 7 -1 1 -2
7 9 13 6 7 -1 1 -4
10 11 12 5 7 -1 0 -2
5 7 12 4 6 -2 0 -7
9 6 15 5 6 -2 0 -9
4 8 19 11 11 2 4 -8
3 7 17 8 9 0 1 -4
2 12 19 10 11 2 2 2
0 15 21 13 15 5 5 5
7 16 18 11 11 1 2 1
2 20 18 10 8 -2 1 3
-3 15 19 11 10 0 2 -1
10 20 20 10 11 1 2 -3
5 22 22 11 11 2 3 2
6 21 23 14 13 5 5 5
7 18 23 15 14 5 4 2
7 20 26 17 16 7 6 3
5 20 26 16 15 6 6 -6
8 22 27 17 17 7 7 -5
11 25 28 18 17 7 7 -4
11 28 27 17 19 9 9 4
3 27 29 19 20 9 10 7
-2 24 31 19 21 8 10 4
4 25 30 19 20 7 10 6
13 28 27 15 13 3 5 3
12 32 30 19 19 8 11 9
3 32 33 23 23 12 15 17
5 34 31 21 21 11 14 17
8 37 30 22 24 13 16 13
10 37 27 19 23 13 15 5
15 40 26 18 22 12 15 3
21 49 29 21 25 19 17 10
25 50 27 19 24 16 14 6
20 48 29 20 27 16 15 9
15 47 30 21 27 16 15 7
23 54 31 21 27 20 18 5
17 55 31 22 28 18 21 15
4 41 27 19 25 16 20 18
4 36 22 15 23 13 16 9
8 40 22 13 19 11 13 5
7 34 21 12 19 9 12 2
11 35 20 12 19 12 11 3
8 29 19 9 13 5 6 0
11 29 19 8 11 0 5 0
10 22 20 8 12 0 5 6
10 16 17 7 10 0 2 -1
8 14 18 8 10 -1 2 -6
8 19 18 8 9 -2 1 -10
4 17 16 6 7 -5 -2 -14
9 15 17 7 9 -3 -1 -8
13 11 14 4 6 -2 -5 -9
8 11 17 7 9 2 -2 -7
3 9 18 7 11 -1 -1 -8
1 6 14 2 7 -5 -3 -10
4 6 12 -1 4 -7 -5 -8
7 3 13 0 4 -6 -5 -10
6 2 11 0 6 -4 -5 -16
1 3 12 0 4 -5 -7 -17
-5 3 14 2 5 -4 -6 -13
2 3 10 -1 3 -6 -8 -12
4 4 10 -2 3 -6 -8 -9
3 4 12 0 3 -7 -5 -7
8 4 12 0 2 -8 -5 -8
2 2 15 1 5 -4 -3 -6
-5 0 17 3 8 -2 -2 -7
1 4 16 3 7 0 -3 -10
14 8 14 1 5 -5 -5 -10
14 6 11 -2 3 -9 -7 -15
14 4 10 -2 3 -7 -7 -13
9 -2 5 -7 0 -10 -10 -14
13 -1 4 -7 0 -6 -10 -10
10 3 10 -1 4 -6 -6 -5
3 1 11 0 3 -6 -5 -13
5 1 12 0 1 -9 -7 -16
6 -2 19 5 4 -7 -8 -6
4 -6 25 12 6 -6 -10 -11
12 -6 31 20 11 -5 -8 -13
6 -8 37 30 16 1 -6 -14
-3 -4 44 42 30 10 1 -13
3 3 47 51 40 17 7 -7
2 14 52 59 52 28 15 -2
4 22 54 67 66 43 23 -1
14 30 55 75 80 56 31 12
11 39 61 90 100 76 47 25
18 55 71 108 126 100 68 34
26 71 72 117 148 121 88 51
31 85 64 117 167 143 107 68
33 95 35 99 176 162 122 81
33 113 -3 76 185 180 140 98
35 132 -43 54 194 193 156 120
40 138 -88 19 179 185 152 120
38 133 -128 -22 145 159 137 107
36 128 -162 -66 102 122 113 95
30 122 -188 -109 55 78 85 80
23 122 -205 -147 6 31 56 57
17 100 -228 -189 -46 -17 23 35
19 68 -247 -219 -87 -53 -4 23
22 40 -258 -237 -115 -76 -20 15
22 20 -265 -246 -130 -86 -30 3
27 7 -269 -252 -139 -87 -36 -2
34 0 -263 -246 -141 -95 -40 -8
34 -5 -243 -226 -133 -96 -43 -17
31 -3 -210 -196 -117 -86 -39 -19
22 -9 -179 -170 -105 -79 -37 -20
17 -17 -154 -148 -98 -77 -40 -23
20 -15 -128 -126 -87 -68 -38 -25
17 -15 -106 -108 -75 -60 -36 -24
12 -14 -88 -91 -64 -55 -31 -23
5 -13 -71 -78 -55 -49 -27 -24
7 -9 -61 -68 -52 -48 -29 -24
2 -14 -51 -57 -45 -43 -26 -24
3 -13 -40 -46 -36 -36 -21 -20
9 -6 -34 -40 -30 -33 -20 -19
11 0 -27 -32 -24 -28 -18 -16
13 2 -20 -26 -19 -24 -15 -17
8 -4 -14 -23 -19 -23 -15 -18
3 -8 -10 -19 -15 -20 -14 -19
0 -8 -6 -13 -12 -18 -12 -17
1 -8 -2 -10 -10 -15 -10 -19
9 -8 -3 -10 -11 -16 -13 -17
13 -9 -2 -10 -11 -16 -13 -22
19 -4 -2 -10 -11 -17 -14 -21
11 -4 0 -7 -7 -16 -12 -21
6 -2 3 -5 -6 -14 -9 -15
5 -5 1 -7 -7 -15 -11 -17
6 -5 2 -7 -7 -15 -12 -15
7 -2 3 -5 -5 -14 -10 -5
4 -3 4 -6 -5 -14 -10 -4
7 -5 3 -5 -7 -16 -11 -10
8 -4 6 -3 -5 -14 -9 -14
5 -6 7 -2 -5 -13 -9 -18
8 -4 9 1 0 -10 -6 -15
9 -5 6 -1 -2 -8 -8 -18
6 -3 6 -1 -1 -7 -7 -12
8 -4 6 -3 -4 -13 -9 -14
10 -5 5 -5 -7 -15 -12 -14
9 -4 5 -4 -5 -12 -11 -10
13 -3 8 -1 -1 -9 -7 -13
13 -6 7 -2 -4 -10 -10 -15
16 -4 7 -1 -5 -15 -11 -8
15 -4 7 -2 -5 -13 -11 -14
11 -8 8 -1 -6 -14 -12 -15
2 -12 8 0 -5 -15 -12 -16
-3 -10 9 1 -2 -13 -10 -15
4 -4 10 2 0 -11 -7 -11
5 -3 13 4 2 -6 -5 -11
11 2 12 4 1 -5 -5 -10
16 2 13 3 -1 -5 -6 -6
9 -3 13 3 -2 -9 -7 -8
-4 -7 15 5 0 -8 -5 -7
0 -2 14 4 -1 -9 -6 -10
2 -6 11 0 -4 -13 -10 -12
0 -11 7 -1 -5 -14 -12 -16
2 -7 9 0 -4 -12 -11 -16
11 -3 10 2 -2 -12 -10 -15
11 0 10 2 -3 -10 -9 -9
7 0 12 2 -2 -7 -8 -8
-3 -5 14 4 -1 -7 -5 -12
0 0 16 6 0 -8 -4 -9
8 -3 15 3 -3 -11 -8 -16
8 -8 12 2 -5 -13 -10 -18
14 -9 9 -1 -7 -13 -13 -16
20 -5 8 -1 -6 -14 -13 -16
10 -6 10 1 -4 -11 -10 -16
5 -7 9 2 -3 -9 -9 -19
7 -1 10 1 -2 -10 -8 -15
2 -4 11 1 -3 -10 -7 -5
5 -6 11 0 -6 -11 -9 -13
9 -5 11 1 -4 -12 -9 -9
6 -2 14 4 -1 -9 -8 -3
7 -5 16 5 -1 -9 -8 -10
9 -8 16 5 -2 -11 -8 -7
3 -12 14 5 -2 -11 -9 -8
4 -12 11 3 -3 -11 -10 -7
10 -11 9 1 -6 -14 -12 -14
8 -12 10 1 -6 -15 -12 -15
4 -10 11 3 -5 -9 -10 -13
8 -10 12 3 -4 -9 -9 -10
11 -8 13 3 -4 -12 -10 -10
7 -3 15 5 -3 -10 -9 -16
6 -5 17 8 -1 -8 -7 -9
6 -5 16 7 -1 -9 -8 -8
10 -6 10 3 -5 -12 -12 -17
10 -10 8 2 -6 -15 -12 -15
9 -11 8 3 -6 -15 -13 -12
10 -8 10 4 -5 -14 -12 -8
1 -14 9 2 -8 -16 -14 -15
10 -13 8 1 -11 -18 -15 -19
12 -13 9 1 -10 -18 -16 -9
8 -13 11 4 -6 -12 -13 -6
1 -17 12 6 -5 -12 -12 -11
7 -16 9 3 -10 -16 -15 -17
10 -12 8 4 -8 -18 -14 -10
9 -13 10 4 -6 -15 -12 -10
8 -14 7 2 -8 -17 -13 -10
9 -15 7 3 -9 -17 -14 -8
5 -19 5 1 -12 -17 -16 -9
1 -23 3 -2 -16 -19 -18 -6
7 -19 3 -2 -15 -23 -19 -9
12 -19 0 -3 -17 -23 -21 -9
10 -17 1 -3 -17 -23 -19 -10
14 -17 0 -3 -17 -23 -18 -15
14 -18 -3 -4 -17 -24 -19 -17
18 -19 -6 -7 -18 -23 -19 -14
21 -19 -8 -8 -18 -23 -17 -14
19 -18 -9 -10 -19 -24 -18 -10
13 -18 -7 -8 -19 -23 -17 -7
10 -20 -7 -9 -19 -20 -16 -10
12 -16 -8 -9 -18 -18 -15 -7
7 -19 -10 -13 -19 -22 -16 -12
8 -22 -15 -17 -23 -26 -19 -13
13 -19 -16 -17 -25 -23 -17 -7
21 -13 -20 -23 -28 -24 -21 -11
17 -15 -20 -22 -25 -22 -18 -14
19 -18 -22 -25 -27 -26 -19 -12
19 -15 -23 -26 -29 -28 -19 -11
14 -12 -21 -25 -29 -24 -17 -9
11 -14 -26 -30 -32 -26 -20 -13
11 -13 -23 -27 -30 -25 -17 -6
11 -13 -24 -29 -31 -26 -18 -4
10 -12 -24 -29 -30 -24 -15 -1
12 -11 -25 -29 -29 -26 -14 2
19 -5 -24 -28 -27 -24 -12 -3
10 -6 -27 -31 -28 -24 -13 -3
13 -6 -27 -30 -27 -23 -11 -6
12 -7 -28 -31 -27 -23 -12 -8
16 -5 -30 -32 -27 -22 -12 -7
31 2 -27 -30 -24 -18 -9 3
24 0 -23 -27 -21 -15 -7 1
9 -6 -21 -26 -20 -13 -7 3
11 -3 -18 -22 -17 -10 -4 8
8 -6 -20 -22 -17 -13 -5 5
9 1 -19 -19 -13 -8 -2 6
7 3 -16 -16 -9 -6 0 2
7 5 -13 -13 -7 -5 1 6
5 7 -9 -10 -5 -3 2 12
8 6 -7 -9 -4 1 2 17
14 8 -7 -9 -3 -2 0 9
18 9 -2 -6 -1 -1 1 10
14 7 2 -3 0 2 3 9
10 8 3 0 1 1 2 8
-1 1 5 2 4 3 3 6
3 4 4 3 6 4 4 6
9 4 4 2 5 3 3 13
11 4 3 1 5 8 2 10
12 4 2 1 4 5 -1 6
12 10 5 2 4 5 0 10
7 8 8 3 4 6 0 8
5 1 9 3 5 5 -1 10
2 2 11 5 8 7 2 17
-1 6 15 10 12 12 7 14
-1 3 12 8 9 8 4 15
3 1 9 5 6 5 1 13
5 1 7 4 6 3 0 7
5 2 8 3 7 4 0 3
4 3 7 3 6 8 1 3
4 2 7 3 4 8 -1 6
5 1 9 3 4 4 -1 5
2 3 9 3 5 1 -1 5
9 7 8 2 4 0 -3 8
8 3 9 4 6 3 -1 4
6 7 10 6 8 4 0 1
10 8 8 3 4 3 -4 2
11 11 8 3 5 4 -2 5
11 5 8 2 5 2 -1 4
7 -5 3 -4 0 -3 -6 -1
8 -2 0 -5 -3 -5 -8 0
7 1 7 1 3 0 -2 8
-2 2 7 2 3 0 -2 11
2 4 8 3 3 1 -1 1
3 3 9 4 4 2 -1 8
7 3 8 4 4 3 0 9
8 6 9 5 6 7 0 14
5 2 7 2 4 3 -1 10
0 -3 6 1 1 -1 -4 8
-3 -5 6 0 1 -2 -4 3
-2 0 7 2 2 0 -2 7
3 9 10 5 5 4 1 10
4 4 11 7 6 9 1 5
6 1 5 2 1 3 -5 2
5 1 4 0 -1 -1 -6 0
7 -2 6 2 0 3 -5 0
3 -3 8 2 0 -2 -5 -1
4 3 9 2 2 0 -4 9
4 -4 7 2 1 -1 -3 7
10 0 8 4 2 0 -2 5
5 -1 9 5 3 0 -1 8
-2 -6 10 5 3 0 0 5
-5 -1 13 8 5 2 1 6
-6 3 11 6 3 1 -2 4
-8 -1 13 10 5 3 0 7
0 -1 12 9 4 3 -2 3
2 1 11 8 4 2 -2 0
6 4 13 11 9 7 1 8
9 8 16 12 10 9 3 11
8 7 14 10 7 4 0 14
4 7 16 11 9 8 2 19
5 9 16 11 9 10 2 10
2 7 14 10 7 7 -1 4
-3 4 18 13 9 11 2 11
-5 3 19 16 10 10 2 9
-2 5 16 15 9 6 -1 9
5 6 14 13 8 6 -1 5
6 7 15 13 10 8 1 10
6 8 17 15 13 10 4 12
4 6 19 15 13 11 5 16
9 7 17 15 12 10 4 24
13 8 17 15 12 9 4 12
8 7 18 15 11 8 3 13
4 14 17 15 11 8 3 17
5 13 17 17 14 11 4 18
5 8 19 19 15 13 4 17
4 9 18 20 16 14 5 16
1 6 18 19 15 13 6 15
0 8 18 18 16 13 6 17
4 15 17 17 16 14 8 15
4 15 19 19 18 16 10 18
8 16 19 20 17 15 9 21
3 9 18 19 15 15 7 16
2 6 17 18 13 14 7 14
0 7 18 19 16 16 9 13
-1 7 17 18 15 14 8 17
2 12 19 21 21 22 12 28
-2 13 17 19 20 21 11 32
-3 12 16 18 18 20 10 22
-2 14 17 19 20 21 12 21
-3 15 19 22 22 22 15 23
1 17 20 21 19 20 14 28
1 14 19 20 17 16 12 22
0 9 17 19 16 15 11 21
5 9 16 18 16 16 10 24
1 9 18 19 17 15 10 19
4 8 15 18 17 18 11 17
11 11 12 16 15 17 9 12
13 12 11 14 14 14 8 18
13 19 15 18 18 18 13 22
10 18 15 19 18 18 13 19
4 11 13 16 13 14 7 11
7 14 14 17 15 14 8 14
10 21 18 20 18 20 12 17
6 14 16 17 14 16 8 14
1 11 14 16 15 16 7 18
-7 4 12 14 15 19 7 22
-3 7 13 14 13 16 8 17
4 12 12 14 13 14 7 23
-5 6 12 15 15 15 10 21
0 7 14 16 15 15 11 15
3 10 15 16 14 14 9 22
3 8 13 14 13 14 8 11
2 6 12 16 13 15 8 12
6 8 12 15 12 15 6 17
8 11 12 15 13 16 6 13
10 10 13 15 15 14 8 18
7 12 11 13 11 12 4 10
1 7 13 14 14 14 8 11
2 5 11 13 13 12 7 12
0 5 11 14 13 13 8 22
3 10 11 14 12 13 8 18
7 13 10 11 11 10 6 25
9 11 9 11 10 10 5 21
3 2 9 10 9 12 4 15
1 5 10 11 9 9 4 15
1 9 12 13 12 11 7 10
-5 8 15 16 15 14 8 17
-5 9 15 16 16 16 10 19
6 10 12 13 13 13 8 16
2 5 10 12 13 13 8 25
-1 5 11 13 11 13 8 16
2 2 9 9 9 10 6 14
2 4 9 11 9 11 7 19
1 7 12 14 13 15 8 27
-1 8 12 14 13 14 8 18
4 12 10 14 13 15 9 19
1 5 8 11 10 12 6 16
6 5 8 10 10 12 6 21
11 8 8 10 10 11 7 17
13 8 7 9 8 10 5 12
2 1 7 8 7 8 2 17
1 1 7 9 8 9 5 23
6 3 7 9 6 8 4 20
6 1 7 9 7 9 4 9
-3 6 10 12 11 14 7 14
-6 5 10 14 13 17 9 21
-9 4 7 11 11 13 6 12
-2 1 7 10 10 13 6 9
1 1 5 9 8 11 5 16
4 3 5 9 8 11 5 12
5 3 7 9 8 13 5 16
-6 5 11 14 13 16 9 18
-10 3 11 15 12 14 9 17
6 2 4 9 6 11 3 10
12 7 6 10 7 12 4 17
-2 3 7 12 9 14 5 30
-10 -1 6 10 7 12 5 30
-7 0 7 11 8 12 5 27
-1 3 6 10 7 10 3 24
2 6 5 9 5 10 3 25
5 3 2 6 3 11 0 24
3 0 2 6 3 7 0 25
2 4 4 9 6 10 3 21
8 9 7 13 11 18 7 29
4 7 6 12 9 17 6 33
4 4 5 11 7 14 5 28
3 2 6 12 8 14 6 21
3 3 5 10 7 11 6 29
9 10 5 10 8 11 6 33
-1 4 5 10 7 13 5 22
2 3 5 10 6 11 5 15
8 6 4 10 7 11 6 16
0 6 4 11 8 12 5 28
-4 5 6 13 10 16 7 29
-1 8 7 13 9 13 7 22
4 9 5 11 6 10 4 15
8 10 5 11 6 9 3 16
11 11 4 10 6 10 2 19
10 9 1 7 3 10 1 17
-3 7 7 12 8 14 6 18
-7 7 9 14 9 15 8 18
0 9 9 14 9 13 8 20
0 10 9 16 10 15 8 19
2 13 11 19 13 19 9 17
4 18 13 21 15 18 11 22
6 16 10 16 11 14 7 21
5 12 8 14 9 13 7 24
5 14 9 16 12 16 9 28
-1 12 12 19 15 19 12 27
-1 12 13 19 15 20 12 26
0 14 13 20 14 19 11 26
0 14 11 19 13 18 9 20
-1 15 15 22 16 20 14 21
3 18 13 20 13 17 10 25
5 19 13 20 13 17 11 32
-1 22 17 23 17 23 15 32
1 23 18 26 20 25 18 31
-2 24 19 28 23 30 21 40
-2 29 18 28 23 29 21 37
2 33 16 26 21 26 19 32
1 30 16 27 21 27 20 31
-2 31 15 26 20 26 19 30
5 36 17 28 21 30 21 32
8 40 19 31 26 33 25 38
9 43 17 29 25 30 22 43
8 45 17 28 25 30 23 40
12 47 17 28 26 31 24 38
15 43 15 27 24 31 25 43
9 40 15 25 23 31 24 38
7 47 13 24 22 28 24 36
8 47 11 23 20 27 22 39
11 36 9 22 18 26 21 38
16 33 5 18 13 22 17 28
10 29 6 20 14 26 17 31
2 23 5 19 14 25 16 37
-1 21 5 18 14 22 16 38
6 23 5 19 15 21 16 27
4 16 5 18 14 21 14 24
1 12 5 17 11 19 11 20
1 10 7 17 10 18 11 21
-1 10 9 19 13 20 13 34
-2 10 7 18 11 18 11 28
-2 8 5 16 8 15 9 20
1 11 5 16 8 16 9 18
-2 9 6 17 10 18 10 20
-6 5 5 15 9 15 9 30
-1 1 -1 11 4 10 4 20
-1 -4 -1 9 4 13 4 19
0 -1 -2 7 3 10 3 21
1 4 -5 4 -2 6 0 18
1 2 -4 6 0 9 2 17
-2 -1 -2 9 2 13 4 17
-2 -3 -1 9 1 9 3 21
-5 -5 -3 8 -1 7 1 19
-4 -1 -2 9 1 10 2 23
1 0 -5 6 -1 9 1 19
3 3 -5 7 0 8 2 22
-2 -1 -3 8 1 10 2 21
-6 -5 -4 7 0 10 1 20
2 3 -4 6 0 10 1 23
1 5 -2 9 1 10 2 22
2 0 -2 8 1 11 2 17
4 2 -2 9 2 13 4 21
3 2 -4 8 0 11 1 14
2 4 -1 11 2 13 3 13
-2 0 -1 10 1 8 1 16
-2 -2 0 9 -1 7 0 12
3 -5 3 10 -2 5 -3 10
-1 -12 7 13 -3 3 -6 4
-4 -17 13 22 2 4 -5 11
1 -13 20 32 10 9 -2 17
1 -7 26 44 20 17 3 12
3 3 30 53 29 24 8 17
4 16 37 64 43 36 17 22
-3 19 41 75 57 50 27 29
0 29 47 88 76 69 40 41
2 34 53 102 98 88 55 55
7 46 60 115 119 109 72 69
12 58 63 126 140 130 89 76
21 71 53 125 156 147 104 89
30 92 30 116 169 165 121 105
35 111 -3 99 181 185 140 124
38 130 -48 74 187 201 155 139
40 136 -90 46 179 200 160 149
42 135 -131 5 150 181 149 142
30 125 -166 -39 109 143 128 131
22 118 -195 -84 61 102 101 115
14 117 -215 -126 13 58 74 99
6 108 -232 -163 -32 19 49 88
7 79 -254 -199 -75 -22 20 66
11 47 -271 -225 -110 -51 -4 42
16 30 -275 -232 -124 -64 -14 34
26 12 -281 -243 -139 -78 -27 22
25 -2 -276 -236 -140 -82 -31 19
24 -3 -249 -211 -129 -75 -28 24
16 -7 -220 -186 -117 -65 -29 28
15 -8 -191 -162 -108 -63 -29 21
13 -11 -164 -139 -97 -56 -28 14
13 -14 -137 -117 -83 -47 -26 11
6 -13 -112 -98 -71 -42 -23 9
7 -13 -98 -87 -68 -42 -26 7
4 -17 -82 -73 -61 -39 -26 -2
1 -16 -68 -60 -53 -30 -24 1
2 -14 -57 -49 -45 -24 -22 -1
1 -15 -48 -40 -39 -25 -19 1
5 -12 -41 -32 -32 -19 -17 8
10 -10 -36 -27 -28 -15 -14 10
11 -4 -30 -22 -25 -14 -14 5
12 -5 -25 -19 -22 -9 -12 14
4 -6 -19 -14 -18 -9 -9 12
-4 -4 -13 -9 -17 -6 -7 8
-5 -3 -8 -4 -14 -4 -4 18
2 -4 -5 1 -11 -4 -4 15
1 -5 -6 -1 -13 -7 -7 18
-5 -8 -7 0 -12 -6 -8 17
-10 -7 -4 2 -9 -2 -5 16
-6 -9 -7 1 -9 0 -5 14
-1 -4 -8 0 -8 -4 -5 12
8 -1 -6 0 -8 -3 -5 14
11 -3 -7 -3 -11 -6 -7 7
4 -6 -6 -1 -12 -6 -8 12
1 -8 -2 1 -10 -5 -5 15
-1 -6 0 4 -9 -5 -5 12
-7 -8 0 3 -9 -6 -6 18
-3 -11 0 5 -9 -2 -5 15
2 -10 -3 0 -10 -4 -8 11
1 -10 -5 1 -8 -1 -8 8
2 -11 -4 2 -8 1 -6 6
5 -5 -1 3 -7 -1 -4 17
4 -5 3 4 -5 -1 -3 17
3 -3 2 4 -8 -3 -5 19
5 -1 3 4 -7 -3 -5 20
6 0 7 7 -4 1 -3 12
7 -3 4 6 -6 -3 -5 10
-2 -4 3 7 -7 -4 -6 19
-5 -8 2 6 -7 -5 -7 14
3 -4 3 7 -6 -2 -4 16
-1 -6 2 7 -5 2 -3 18
-1 -9 0 3 -8 0 -6 12
-3 -9 2 4 -6 1 -5 18
1 -7 5 6 -6 -1 -3 16
8 -5 5 5 -8 -4 -7 9
-1 -10 8 6 -8 -5 -7 14
1 -8 6 5 -10 -7 -8 15
4 -6 7 8 -8 2 -7 12
-4 -6 8 10 -4 5 -3 21
-7 -7 8 11 -2 2 0 16
1 -7 6 9 -3 -1 -2 11
7 -6 3 5 -7 -3 -5 16
2 -7 4 5 -6 -3 -5 10
-2 -9 6 6 -7 -2 -4 9
-2 -10 7 6 -8 -3 -5 11
4 -4 8 7 -7 -4 -5 10
4 -6 6 6 -7 -6 -6 11
0 -8 7 8 -7 -3 -4 11
7 -8 7 7 -6 0 -7 6
16 -5 5 7 -7 -3 -7 8
5 -7 6 8 -7 -2 -6 9
0 -4 6 8 -6 -3 -6 9
3 -7 5 5 -7 -4 -7 15
-3 -11 7 7 -7 -1 -4 15
-5 -9 8 7 -8 -3 -4 9
-3 -5 11 11 -4 -2 -3 9
1 -4 14 14 -2 1 -1 11
12 -7 10 12 -6 -3 -4 15
14 -8 9 10 -5 -4 -5 14
-2 -11 8 10 -4 -3 -4 6
-3 -7 7 9 -5 -2 -3 14
-1 -8 7 8 -6 -2 -5 14
-2 -8 6 7 -6 -3 -7 1
1 -7 8 9 -8 -2 -6 4
-1 -12 8 9 -10 -4 -6 3
-4 -15 9 10 -8 -5 -7 3
-5 -15 7 9 -9 -3 -7 1
-3 -15 8 12 -8 -1 -6 0
3 -13 6 10 -6 0 -6 2
9 -11 4 8 -7 -4 -7 5
2 -11 5 8 -7 -1 -6 6
5 -9 4 6 -9 -6 -8 1
7 -12 4 6 -9 -5 -8 -4
2 -17 3 5 -13 -9 -11 -3
-1 -15 4 6 -14 -11 -10 -4
3 -14 5 7 -12 -9 -11 -3
-3 -17 4 7 -13 -7 -12 0
0 -18 3 7 -14 -10 -12 -2
9 -14 2 6 -13 -12 -12 -5
9 -17 0 4 -13 -13 -13 -2
8 -17 0 5 -12 -11 -10 9
11 -20 -3 3 -13 -12 -12 4
14 -15 -3 1 -15 -13 -12 -4
13 -12 -2 1 -17 -13 -12 3
2 -20 -3 1 -20 -15 -14 7
-1 -18 -4 1 -19 -15 -15 0
4 -21 -6 -1 -21 -17 -15 -1
5 -24 -9 -3 -24 -20 -16 -5
9 -20 -10 -6 -22 -19 -15 -2
11 -19 -11 -6 -21 -17 -15 -2
12 -17 -14 -7 -22 -18 -14 -5
9 -21 -17 -10 -25 -18 -17 -8
11 -14 -17 -13 -27 -17 -17 -3
15 -10 -18 -12 -27 -19 -16 -1
7 -12 -17 -12 -27 -19 -14 2
-1 -13 -17 -12 -26 -18 -14 4
10 -14 -19 -13 -26 -20 -14 7
6 -17 -21 -13 -26 -20 -14 6
-2 -16 -20 -14 -23 -14 -11 10
6 -14 -24 -18 -25 -16 -12 6
8 -16 -29 -22 -28 -21 -13 1
5 -17 -29 -23 -30 -21 -13 1
9 -13 -29 -26 -32 -21 -13 3
16 -9 -30 -26 -34 -22 -14 3
19 -8 -32 -29 -36 -25 -16 -1
22 -8 -33 -31 -36 -25 -17 1
9 -8 -27 -24 -29 -18 -9 16
-4 -11 -28 -24 -28 -18 -9 12
5 -7 -35 -31 -33 -22 -14 5
11 -7 -37 -33 -34 -20 -13 7
14 -6 -39 -35 -34 -22 -12 4
10 -8 -38 -32 -33 -20 -11 8
6 -5 -32 -28 -28 -14 -6 13
5 -2 -28 -23 -24 -10 -2 12
15 3 -26 -22 -24 -9 -2 11
22 4 -28 -24 -25 -14 -5 11
16 2 -25 -20 -22 -9 -4 16
13 2 -23 -17 -18 -4 -2 24
14 9 -21 -14 -15 0 0 31
8 8 -21 -14 -13 -1 2 22
4 2 -18 -12 -11 0 3 20
9 0 -18 -11 -10 -1 2 16
9 2 -15 -8 -8 0 3 17
7 3 -11 -5 -7 2 5 21
7 8 -7 -2 -6 2 5 16
7 10 -2 1 -2 5 7 22
9 9 -1 2 -1 4 7 27
13 9 0 5 1 5 8 25
11 10 2 5 3 9 8 18
3 5 1 7 5 10 6 18
2 7 0 5 2 6 4 19
-1 0 0 5 2 8 3 23
1 6 -1 3 0 5 1 13
6 10 2 6 1 4 3 12
1 5 6 9 4 8 5 21
7 2 3 6 2 5 1 17
2 3 5 8 4 4 2 16
-5 0 7 11 6 6 4 18
-1 3 7 10 6 7 3 15
6 7 6 10 6 9 4 17
5 7 5 9 5 6 4 17
-4 4 7 12 7 9 7 25
-5 3 6 11 6 7 5 20
-6 -1 8 10 5 7 5 21
-1 -1 7 10 5 5 3 19
5 1 4 6 2 3 -1 12
2 1 4 7 3 5 0 13
7 4 4 8 2 7 0 11
10 6 5 10 6 7 2 13
3 3 4 7 4 5 1 13
5 3 2 7 4 4 1 13
5 0 -1 3 0 1 -3 3
8 2 0 2 0 4 -2 8
7 1 5 7 3 5 2 9
4 2 6 8 4 4 3 7
3 1 5 7 3 2 0 10
5 0 3 5 1 -1 -2 8
0 -1 4 7 2 1 -1 14
-5 -3 5 8 5 3 0 17
-3 1 5 8 5 7 1 17
2 7 6 9 7 7 5 12
3 4 6 8 5 6 3 15
2 4 5 8 5 5 2 16
3 3 4 6 1 1 -1 5
0 -2 4 5 0 0 -3 0
5 1 4 4 -2 0 -5 5
1 0 6 8 1 0 -2 6
3 3 8 9 2 1 0 3
2 1 5 6 1 -1 -3 0
2 0 1 1 -4 -1 -8 -6
6 6 1 1 -3 -3 -7 -3
-1 0 3 4 0 -1 -5 0
1 -1 5 6 2 2 -4 -4
9 6 8 7 1 1 -3 -1
2 3 11 9 4 1 -1 2
-4 2 12 11 5 3 0 10
-4 4 12 12 5 2 1 8
-4 2 10 11 4 2 0 4
-4 1 11 11 8 6 0 3
-2 2 12 14 9 6 2 1
2 4 11 12 6 4 2 0
4 8 12 13 9 6 4 4
-7 2 12 13 9 6 3 3
-5 3 13 15 8 7 4 5
0 6 16 17 10 9 4 5
4 2 13 14 7 5 0 3
7 4 13 13 8 3 2 6
8 7 17 17 11 7 6 10
8 5 16 16 12 9 5 5
6 4 14 16 12 10 4 9
2 4 13 15 11 7 5 7
6 7 13 15 10 8 4 0
-1 8 15 17 12 10 6 4
0 9 17 18 13 10 7 1
5 9 18 17 12 8 6 5
0 10 20 19 13 9 6 13
4 9 15 17 11 7 4 16
3 14 18 19 14 11 7 19
5 17 22 24 21 19 13 29
-1 12 19 23 20 18 13 31
-1 9 16 19 15 12 9 31
-1 11 16 19 15 14 9 17
1 10 13 16 14 13 7 20
3 7 13 15 12 11 7 19
6 12 13 14 12 8 6 17
-3 12 18 19 16 12 10 18
-5 11 21 22 19 14 13 17
-1 10 20 22 17 13 10 10
6 12 16 19 16 12 9 11
11 21 16 19 18 13 10 15
7 14 16 19 18 15 12 16
-3 6 13 16 16 13 9 9
4 10 11 14 15 10 6 9
9 17 12 14 13 9 6 8
4 12 14 16 13 11 7 3
6 13 15 15 13 10 7 3
1 15 14 14 13 8 7 5
3 12 13 14 13 8 6 9
4 12 14 15 14 11 8 11
3 6 12 13 13 10 7 3
0 7 14 15 16 12 11 8
-2 11 19 18 19 15 13 12
0 11 14 14 15 11 8 1
5 12 15 15 14 10 8 3
7 14 16 17 15 15 10 7
4 15 17 17 15 16 10 4
1 14 17 17 16 12 10 3
1 8 15 16 13 9 8 11
10 9 11 12 11 7 6 3
9 10 11 11 13 9 8 2
8 10 11 11 13 12 9 4
7 15 14 15 16 12 12 9
4 12 15 15 17 16 11 3
-1 6 15 14 14 11 9 -1
-1 9 14 14 13 13 8 0
3 7 13 13 12 11 6 2
5 7 12 11 12 8 6 0
3 8 11 10 10 6 5 -6
2 4 8 10 10 6 4 -13
7 7 8 9 11 8 5 -9
11 10 9 10 12 7 7 -2
6 9 11 11 13 8 9 -3
1 6 11 10 12 10 8 1
-1 4 10 10 10 7 7 1
3 10 12 11 11 7 8 -1
1 14 15 13 13 11 9 2
1 10 12 11 10 7 6 4
6 10 11 10 10 7 6 -3
-2 6 9 9 10 7 6 -1
-5 3 7 7 9 8 6 -3
4 11 8 8 10 11 7 -7
-2 10 9 9 11 15 7 -8
6 11 8 6 9 8 5 -10
7 7 8 5 8 5 4 -2
1 8 7 4 7 7 3 -4
7 9 8 6 8 8 4 -5
12 5 6 4 4 1 1 -9
13 8 8 6 7 4 3 -10
4 6 7 7 8 5 4 -9
2 0 3 3 4 3 1 -9
8 5 3 2 5 4 1 -9
-1 4 5 3 8 7 4 -6
-1 5 8 5 10 10 6 -1
6 6 7 4 8 6 5 1
7 6 7 5 7 6 4 -6
11 14 12 9 10 11 7 -5
7 11 7 5 8 7 5 -12
3 8 2 1 3 0 0 -11
3 9 4 3 7 1 3 -3
-4 10 6 5 9 5 6 -7
4 11 3 2 7 5 3 -10
13 12 3 2 5 5 2 -8
14 8 0 -1 2 3 -1 -17
7 6 2 0 3 5 1 -16
-2 2 3 0 4 0 0 -12
-5 2 7 5 7 6 4 -9
3 10 8 4 8 8 4 -16
0 6 5 3 5 3 2 -13
1 7 5 4 7 3 4 -15
3 8 5 3 7 4 4 -15
0 6 2 1 5 4 4 -13
1 7 5 2 7 4 5 -15
4 6 4 1 6 2 3 -17
3 8 4 1 5 2 2 -15
0 5 4 0 5 3 2 -10
-2 5 6 3 6 3 2 -13
-1 6 5 3 6 4 2 -21
2 4 4 2 6 3 1 -19
5 4 2 0 4 -1 0 -18
11 10 -1 -3 2 -3 -2 -12
14 11 -2 -2 4 -1 0 -17
14 12 2 2 7 2 3 -16
11 14 2 -1 5 1 2 -18
1 3 3 -1 4 3 2 -16
-3 4 1 -1 4 1 1 -17
-4 3 4 0 4 -1 2 -19
-5 2 5 1 6 0 2 -17
-1 3 5 3 6 0 1 -14
0 2 3 1 5 -1 0 -16
5 10 1 -1 3 -3 -2 -22
11 13 0 -1 4 -1 -1 -21
12 14 3 1 7 1 2 -19
17 16 1 0 4 0 1 -17
9 15 6 3 8 3 4 -17
3 13 9 7 11 5 6 -15
1 10 8 5 9 4 5 -13
-2 8 8 5 8 7 2 -1
-2 11 7 4 9 4 3 -5
-3 12 8 5 9 4 4 -15
-4 14 9 5 10 4 4 -20
0 15 7 4 11 5 5 -19
10 17 7 4 11 4 5 -15
6 17 9 7 12 9 8 -4
9 19 8 6 11 5 7 -9
10 20 7 5 10 3 5 -11
3 22 12 8 14 6 8 -5
4 23 15 11 16 8 9 -2
15 26 12 8 13 5 7 -5
13 25 10 7 12 7 7 -8
2 22 11 8 14 9 8 -7
0 24 13 11 17 12 10 -7
3 27 13 11 18 10 12 -1
2 29 13 12 19 11 13 -3
5 30 13 11 19 13 14 -3
10 34 13 12 19 13 13 6
14 35 11 11 17 15 13 2
12 38 14 15 21 17 17 1
16 47 14 16 25 19 19 3
6 40 14 16 25 18 20 4
8 44 15 17 27 20 23 5
16 46 12 13 25 17 20 4
7 42 11 11 24 16 19 12
7 44 10 10 23 17 18 11
11 40 4 5 18 11 14 5
17 41 4 4 16 9 12 -1
16 36 5 5 16 11 12 -4
10 29 3 3 13 9 10 -8
3 25 2 3 14 9 10 -10
8 21 3 3 14 6 9 -10
7 18 1 1 12 4 8 -9
0 14 2 1 12 4 6 -11
0 13 2 1 11 2 5 -5
6 11 0 -1 8 -1 2 -10
10 10 0 0 8 -2 0 -13
4 10 2 0 9 2 2 -7
4 12 2 0 8 2 2 -11
3 7 1 -1 7 -1 1 -6
3 6 0 -1 7 -2 1 -16
14 6 -2 -4 5 -4 -2 -19
4 -1 -7 -8 0 -8 -6 -20
-5 -2 -3 -5 3 -5 -3 -20
-4 1 -2 -4 4 -4 -1 -15
-8 -2 -3 -7 1 -6 -2 -10
-6 0 -2 -5 3 -5 1 -12
4 3 -5 -8 1 -3 -4 -17
1 -2 -7 -10 -1 -7 -6 -23
5 0 -7 -10 -1 -8 -6 -26
0 -5 -9 -10 -2 -10 -7 -27
0 -8 -9 -11 -2 -11 -8 -30
0 -7 -7 -9 -1 -7 -6 -30
-5 -4 -8 -10 0 -9 -6 -26
-3 -1 -10 -11 -1 -10 -7 -23
-2 -5 -10 -11 -2 -10 -7 -28
-3 -2 -11 -11 -3 -12 -8 -24
0 -2 -8 -11 -3 -11 -8 -17
-2 -2 -7 -9 -1 -10 -8 -26
-1 -2 -6 -7 0 -8 -6 -20
4 -1 -8 -8 1 -8 -6 -21
6 -2 -7 -8 0 -7 -7 -27
6 0 -5 -7 1 -8 -6 -21
3 -4 0 -5 0 -9 -7 -24
0 -11 5 0 2 -9 -9 -23
-3 -16 11 8 6 -7 -8 -22
-3 -13 17 16 11 -3 -5 -26
1 -7 22 25 18 4 -3 -29
5 -3 25 35 27 10 1 -26
1 3 30 44 36 16 7 -18
3 13 35 55 50 29 16 -8
8 24 40 68 70 46 29 -5
12 31 45 82 91 65 43 7
16 39 51 94 109 84 58 22
23 51 55 106 129 105 73 38
26 69 55 115 151 128 95 54
27 81 39 111 167 150 112 64
31 98 6 95 177 166 130 82
46 118 -38 71 182 176 145 97
47 127 -82 41 174 179 149 101
40 129 -123 4 150 167 143 100
35 128 -157 -39 111 137 127 97
35 129 -185 -81 70 93 104 85
33 137 -208 -125 20 49 76 64
24 122 -226 -163 -26 8 49 49
8 81 -250 -203 -71 -32 20 28
14 52 -268 -232 -105 -61 -4 11
16 29 -277 -244 -122 -75 -18 1
20 14 -283 -252 -136 -85 -28 -8
25 3 -277 -248 -138 -88 -32 -11
23 -7 -260 -231 -134 -93 -38 -18
20 -9 -230 -206 -121 -87 -37 -12
19 -8 -199 -179 -108 -78 -34 -15
22 -7 -168 -152 -95 -69 -30 -23
14 -8 -139 -128 -80 -57 -26 -13
12 -9 -119 -112 -71 -55 -26 -22
11 -9 -103 -100 -67 -51 -27 -28
9 -11 -87 -87 -59 -48 -28 -26
9 -14 -75 -76 -54 -48 -29 -23
10 -10 -63 -63 -45 -40 -25 -29
1 -13 -53 -53 -38 -36 -23 -34
-4 -16 -46 -45 -32 -32 -20 -32
-3 -11 -37 -37 -24 -24 -15 -20
0 -10 -33 -34 -22 -23 -14 -18
3 -10 -29 -29 -18 -20 -12 -27
4 -8 -24 -25 -16 -18 -10 -26
1 -7 -19 -22 -15 -17 -10 -25
0 -6 -15 -19 -14 -17 -10 -21
1 -8 -14 -18 -15 -20 -12 -25
10 -8 -12 -15 -13 -17 -11 -28
6 -9 -9 -13 -11 -14 -11 -23
-1 -14 -12 -14 -10 -14 -11 -25
3 -10 -15 -16 -10 -15 -12 -33
9 -9 -14 -14 -9 -15 -11 -26
6 -10 -14 -15 -11 -13 -12 -24
7 -11 -15 -16 -12 -16 -12 -28
4 -8 -10 -12 -11 -17 -10 -21
1 -9 -7 -10 -10 -15 -10 -21
1 -6 -5 -10 -9 -12 -10 -23
1 -4 -6 -9 -8 -15 -11 -23
-3 -11 -3 -7 -7 -15 -11 -23
-3 -12 -3 -5 -4 -13 -9 -20
2 -11 -6 -8 -5 -13 -9 -15
13 -8 -8 -10 -6 -13 -10 -15
10 -7 -6 -9 -5 -12 -8 -20
5 -7 -5 -8 -4 -8 -6 -21
2 -6 -4 -8 -6 -10 -7 -13
11 -3 -5 -8 -8 -14 -10 -24
11 -8 -4 -9 -10 -16 -12 -23
12 -10 -6 -10 -10 -18 -14 -24
7 -13 -5 -8 -9 -15 -13 -25
3 -11 -4 -6 -5 -12 -11 -24
0 -5 -1 -2 -1 -8 -5 -13
1 0 -5 -5 -5 -11 -8 -10
-2 -3 -2 -5 -2 -9 -6 -12
-1 -6 -4 -6 -3 -10 -6 -15
6 -5 -4 -6 -7 -12 -7 -23
4 -6 -2 -5 -7 -12 -8 -20
2 -9 0 -5 -8 -13 -10 -12
0 -7 2 -1 -5 -9 -7 -13
3 -3 1 -2 -6 -11 -9 -19
4 -7 -1 -3 -6 -10 -9 -25
2 -10 0 -3 -4 -11 -8 -24
6 -8 -4 -5 -7 -12 -10 -21
9 -2 -4 -7 -8 -13 -11 -24
4 -4 -3 -6 -7 -10 -10 -25
3 -9 -3 -7 -9 -9 -10 -26
-2 -10 2 -3 -6 -11 -9 -16
-8 -11 5 0 -4 -10 -7 -14
-2 -9 1 -2 -7 -14 -10 -16
8 -3 -1 -4 -9 -15 -11 -19
3 -7 2 -1 -4 -11 -8 -17
-1 -11 0 -4 -5 -11 -7 -20
-1 -8 1 -3 -3 -7 -6 -22
0 -5 0 -3 -4 -7 -6 -17
9 -5 -1 -5 -5 -10 -7 -15
9 -5 2 -4 -7 -11 -7 -19
8 -5 4 -2 -6 -9 -7 -23
9 -5 3 -4 -8 -11 -8 -20
4 -9 3 -4 -9 -12 -9 -17
2 -10 3 -1 -6 -13 -7 -19
3 -6 1 -2 -5 -9 -9 -20
1 -10 0 -3 -5 -10 -8 -23
3 -9 1 -2 -6 -12 -9 -22
12 -6 -1 -4 -8 -14 -10 -23
13 -5 -1 -4 -8 -13 -10 -23
10 -2 1 -4 -9 -14 -10 -21
8 -7 3 -2 -9 -14 -10 -18
12 -4 4 0 -7 -12 -9 -16
14 -4 4 0 -9 -10 -10 -15
4 -8 4 -1 -9 -11 -10 -18
2 -10 3 0 -7 -13 -11 -20
