I II V1 V2 V3 V4 V5 V6
-8 -3 5 1 -23 -27 -15 -14
-8 -4 6 0 -22 -30 -15 -11
-6 -3 6 -2 -22 -30 -15 -10
-7 -5 7 -3 -21 -27 -15 -7
-8 -6 7 -2 -21 -26 -14 -8
-5 -3 6 -3 -20 -25 -12 -6
-5 -1 5 -3 -21 -24 -13 -4
-7 -2 6 -3 -22 -26 -12 -6
-7 -3 5 -3 -22 -27 -13 -8
-8 -3 5 -3 -23 -28 -14 -9
-6 -5 5 -3 -23 -28 -14 -4
-6 -5 6 -4 -22 -28 -14 -9
-6 -5 6 -5 -20 -27 -14 -16
-5 -4 7 -5 -19 -26 -15 -6
-7 -5 6 -6 -19 -26 -15 -3
-6 -3 5 -7 -20 -26 -14 1
-5 0 5 -7 -19 -23 -13 -4
-6 -2 5 -7 -20 -23 -14 -2
-6 -3 5 -6 -19 -24 -14 -6
-8 -3 5 -7 -21 -24 -15 0
-9 -5 7 -6 -20 -26 -16 1
-8 -5 6 -7 -19 -24 -17 -3
-9 -7 5 -9 -20 -25 -18 -6
-9 -7 5 -10 -20 -25 -18 -3
-8 -6 5 -10 -19 -23 -17 2
-8 -7 4 -12 -19 -22 -17 -3
-7 -4 4 -11 -20 -20 -16 -8
-6 -3 4 -11 -20 -19 -16 -5
-6 -4 4 -11 -21 -21 -17 -3
-6 -4 4 -11 -21 -20 -17 1
-11 -7 4 -10 -21 -21 -18 7
-11 -8 5 -11 -21 -21 -19 3
-11 -9 4 -11 -20 -20 -19 2
-11 -9 4 -13 -20 -20 -18 -6
-11 -7 4 -13 -19 -20 -18 -3
-10 -7 3 -13 -18 -17 -17 -2
-10 -6 2 -14 -21 -18 -18 -4
-7 -5 3 -13 -20 -18 -18 0
-8 -5 3 -13 -20 -18 -19 9
-9 -6 4 -12 -20 -18 -18 8
-7 -5 5 -11 -19 -18 -19 1
-7 -8 5 -12 -19 -18 -20 -8
-8 -8 5 -13 -19 -18 -20 -4
-11 -10 4 -14 -18 -19 -20 -2
-11 -8 3 -15 -19 -21 -21 -1
-7 -6 3 -15 -19 -19 -19 6
-8 -5 2 -16 -21 -19 -19 -2
-9 -5 2 -14 -20 -20 -19 -2
-9 -4 2 -14 -21 -20 -21 1
-11 -7 3 -14 -22 -21 -20 2
-9 -7 3 -13 -22 -23 -22 11
-9 -8 4 -13 -20 -21 -21 -1
-10 -8 4 -14 -21 -22 -21 -1
-10 -9 4 -15 -22 -23 -22 0
-12 -9 4 -16 -22 -24 -22 3
-11 -8 3 -17 -23 -23 -21 6
-11 -7 2 -16 -24 -23 -21 6
-11 -9 1 -15 -26 -25 -22 -4
-10 -6 2 -15 -27 -25 -22 -6
-10 -6 3 -14 -26 -24 -20 0
-8 -6 3 -13 -26 -25 -21 6
-8 -6 5 -12 -24 -23 -20 17
-9 -7 3 -15 -25 -24 -22 2
-9 -8 2 -16 -25 -24 -22 2
-9 -8 1 -16 -25 -25 -22 5
-11 -9 1 -17 -25 -23 -21 6
-10 -8 1 -16 -26 -22 -20 6
-10 -10 0 -16 -26 -24 -22 -1
-11 -9 2 -15 -26 -24 -22 4
-10 -7 3 -14 -25 -22 -20 8
-9 -8 3 -14 -25 -23 -22 6
-9 -8 6 -12 -22 -20 -20 5
-8 -7 4 -13 -21 -20 -20 8
-8 -7 4 -14 -20 -19 -19 2
-6 -2 5 -13 -17 -18 -18 7
-5 3 8 -10 -14 -14 -15 14
-4 8 11 -7 -13 -11 -13 14
-4 10 15 -2 -9 -8 -11 17
-6 10 14 -3 -11 -10 -11 23
-5 9 15 -1 -10 -9 -11 13
-4 9 16 0 -9 -10 -13 13
-4 10 18 1 -8 -8 -12 15
-3 12 20 0 -5 -7 -12 15
-4 13 20 0 -5 -6 -11 20
-5 16 20 -1 -5 -5 -12 18
-4 18 19 -2 -4 -3 -10 15
-4 17 15 -5 -5 -4 -10 16
-3 17 10 -9 -8 -6 -11 18
-4 17 6 -9 -10 -6 -11 25
-3 14 2 -10 -11 -8 -11 20
1 15 1 -10 -9 -8 -12 16
0 14 -1 -12 -10 -8 -12 12
0 15 -2 -12 -9 -7 -11 14
3 17 -2 -11 -7 -6 -9 19
2 20 -2 -10 -5 -4 -8 27
3 21 -1 -11 -5 -1 -6 31
2 22 -1 -10 -4 0 -6 34
0 24 1 -10 -5 -1 -5 45
-1 25 2 -9 -5 0 -5 29
-2 23 3 -9 -7 -2 -5 26
-1 22 3 -9 -6 -3 -7 28
-3 19 2 -9 -6 -2 -7 21
-3 14 0 -11 -8 -4 -8 17
-2 13 -2 -13 -9 -6 -9 13
0 12 -3 -13 -9 -5 -9 15
1 13 -3 -13 -9 -3 -7 17
2 14 -1 -12 -7 -2 -6 23
-1 10 -3 -14 -10 -5 -9 22
-4 5 -2 -14 -12 -6 -10 20
-5 3 -2 -15 -14 -6 -11 22
-7 0 -4 -18 -16 -11 -16 31
-8 -4 -4 -21 -19 -13 -19 25
-12 -8 -3 -23 -21 -15 -20 25
-14 -11 -4 -24 -23 -18 -22 14
-14 -9 -2 -22 -19 -15 -21 6
-15 -9 -1 -22 -20 -14 -20 1
-13 -9 -2 -22 -20 -14 -21 8
-13 -11 -3 -23 -23 -16 -23 8
-14 -14 -3 -24 -26 -19 -26 7
-12 -15 -3 -25 -27 -20 -26 0
-12 -15 -2 -25 -25 -20 -28 -5
-13 -16 -2 -25 -26 -19 -28 -5
-15 -17 -1 -26 -24 -18 -28 -5
-16 -18 -3 -27 -25 -20 -28 -9
-16 -17 -3 -27 -25 -19 -28 -7
-15 -17 -3 -27 -25 -17 -27 -1
-18 -18 -4 -28 -26 -18 -27 -6
-17 -17 -5 -27 -27 -19 -28 -5
-17 -19 -3 -26 -27 -18 -28 11
-18 -18 -2 -25 -26 -18 -25 9
-16 -16 -1 -24 -24 -16 -26 -2
-16 -16 0 -24 -24 -17 -27 -5
-15 -16 0 -25 -23 -17 -26 -3
-16 -16 -1 -25 -23 -17 -26 13
-18 -18 -1 -25 -23 -17 -27 7
-17 -17 -1 -24 -23 -15 -25 1
-18 -19 -2 -24 -24 -16 -25 -5
-18 -19 -1 -24 -26 -18 -25 1
-17 -19 -1 -23 -25 -16 -25 7
-18 -18 0 -22 -25 -17 -24 5
-14 -15 0 -22 -23 -17 -25 16
-13 -15 0 -22 -23 -16 -24 12
-15 -16 0 -23 -23 -16 -24 3
-14 -15 1 -23 -21 -16 -24 0
-15 -16 2 -21 -19 -14 -23 1
-15 -17 2 -19 -20 -14 -24 0
-16 -17 8 -8 -14 -13 -24 0
-18 -19 17 7 -7 -14 -28 -3
-19 -18 28 22 0 -13 -29 0
-21 -16 38 37 8 -11 -30 -8
-22 -13 48 57 21 -6 -27 -11
-15 -5 56 85 39 5 -21 -9
-6 1 67 125 68 26 -6 2
5 16 76 163 103 57 20 24
16 36 82 187 137 92 49 33
24 52 91 203 162 123 77 60
34 67 101 208 186 154 104 80
45 91 102 193 209 196 143 96
55 123 97 155 233 246 190 127
70 149 78 96 245 293 237 165
77 171 51 4 238 333 279 199
84 194 24 -83 229 372 321 219
91 215 -7 -159 221 407 357 250
89 239 -39 -228 208 438 390 280
86 255 -68 -284 193 461 411 296
77 258 -93 -328 172 470 416 301
60 248 -123 -367 144 458 400 294
42 210 -142 -392 97 405 345 259
20 162 -151 -401 33 302 257 207
5 112 -147 -390 -25 179 157 153
-14 73 -134 -373 -76 72 68 97
-34 50 -123 -365 -131 -10 9 67
-45 36 -122 -352 -178 -63 -26 44
-51 21 -120 -327 -202 -91 -45 26
-45 12 -115 -293 -194 -91 -47 12
-37 5 -107 -250 -167 -79 -45 6
-33 -7 -92 -207 -140 -70 -46 -1
-28 -15 -79 -170 -121 -66 -44 -1
-26 -19 -65 -138 -104 -59 -43 -2
-24 -20 -53 -111 -91 -56 -41 3
-20 -19 -41 -86 -76 -49 -37 -10
-21 -19 -29 -66 -64 -42 -33 -9
-19 -17 -20 -49 -54 -38 -31 -2
-16 -16 -10 -37 -44 -34 -29 -5
-15 -17 -7 -30 -39 -32 -28 -5
-13 -17 -4 -24 -34 -29 -27 -7
-13 -19 -1 -18 -31 -27 -27 -4
-14 -19 -2 -15 -31 -28 -26 -5
-11 -18 -1 -12 -30 -26 -26 -7
-10 -17 -1 -10 -31 -28 -28 -1
-11 -20 3 -5 -29 -28 -27 -6
-11 -21 4 -3 -30 -28 -28 -13
-13 -23 6 -1 -26 -28 -29 -12
-11 -21 6 -1 -23 -29 -30 -12
-11 -22 8 -1 -18 -26 -27 -6
-12 -23 6 -3 -19 -25 -27 -13
-11 -23 6 0 -14 -23 -26 -15
-11 -22 5 1 -14 -19 -24 -21
-11 -21 4 1 -14 -14 -24 -13
-10 -20 5 4 -13 -12 -24 -17
-10 -21 5 6 -12 -13 -24 -20
-10 -21 7 8 -11 -11 -24 -24
-11 -24 7 8 -8 -11 -26 -19
-11 -25 7 9 -6 -10 -26 -12
-10 -24 8 9 -2 -7 -23 -15
-9 -24 6 6 -3 -5 -24 -19
-10 -25 6 8 0 -3 -23 -18
-9 -23 6 10 2 0 -22 -16
-10 -23 7 11 2 3 -21 -11
-8 -21 9 14 3 5 -21 -6
-8 -23 10 17 4 5 -22 -7
-8 -23 12 17 3 5 -22 -13
-5 -21 15 19 6 6 -21 -13
-5 -22 15 18 8 7 -22 -8
-7 -23 15 17 10 7 -21 -4
-6 -23 15 17 11 8 -20 -4
-7 -24 12 17 11 6 -21 0
-7 -22 12 19 10 6 -19 -4
-7 -20 12 20 9 7 -19 -4
-6 -20 12 23 9 3 -19 -1
-4 -19 13 27 10 0 -19 -4
-4 -19 15 28 10 -2 -20 -5
-5 -20 15 28 11 -4 -20 -1
-3 -19 17 30 13 -5 -19 -1
-4 -20 18 30 15 -7 -19 -2
-3 -19 18 29 14 -8 -18 -9
-4 -20 16 30 14 -10 -17 -9
-5 -20 14 31 10 -13 -17 -8
-5 -19 14 33 9 -12 -16 -8
-5 -19 14 35 7 -13 -17 -5
-5 -20 14 37 6 -16 -19 -11
-5 -19 16 39 7 -16 -18 -12
-5 -20 17 40 8 -15 -18 -14
-4 -19 19 42 12 -13 -17 -16
-3 -19 18 42 12 -11 -16 -17
-1 -19 18 42 14 -10 -14 -13
-1 -19 16 44 16 -9 -15 -7
-2 -20 14 44 14 -9 -15 -13
-1 -18 14 46 15 -7 -13 -18
-1 -17 15 50 17 -5 -12 -11
-3 -19 15 54 17 -6 -14 -9
-2 -19 17 56 18 -4 -13 -8
-1 -20 18 58 21 -2 -12 -12
1 -19 18 59 24 -1 -13 -17
3 -18 18 61 27 3 -11 -11
3 -18 18 61 30 6 -9 -7
4 -16 17 65 33 8 -7 -8
6 -13 17 67 35 12 -6 1
5 -13 17 72 37 14 -3 -1
7 -13 17 76 39 16 -4 -10
7 -15 17 79 41 16 -4 -9
7 -15 18 81 42 17 -4 -7
9 -14 20 84 46 19 -2 -3
10 -14 19 87 50 21 -1 4
12 -12 20 90 57 25 3 5
14 -10 19 92 61 30 6 4
13 -11 17 94 64 31 7 4
15 -7 18 98 68 36 10 4
16 -7 17 102 71 39 13 6
16 -8 17 105 72 40 13 1
18 -6 17 110 76 43 15 2
18 -7 16 111 78 43 17 8
19 -5 16 113 81 45 19 6
21 -4 17 114 85 48 21 6
20 -5 14 115 89 52 23 11
23 -2 14 116 91 55 27 15
24 0 12 117 94 58 30 14
27 3 10 117 95 61 32 15
29 6 9 118 97 66 36 11
29 6 7 119 97 67 37 9
30 8 7 121 97 68 39 10
30 8 7 120 97 70 40 10
29 8 7 121 98 71 42 16
31 9 7 120 100 72 43 30
31 9 4 117 99 74 44 23
32 11 3 114 99 75 46 11
32 12 0 114 98 75 47 17
31 11 -1 113 96 76 48 17
34 14 -2 112 95 77 50 18
35 16 -2 112 94 78 51 19
34 16 -3 111 91 76 50 14
35 19 -1 111 91 76 51 14
36 18 -1 109 91 76 52 15
35 17 -1 106 90 74 52 13
33 16 -1 103 89 75 52 17
34 18 -2 99 87 73 54 16
33 19 -4 98 86 72 54 12
32 19 -5 95 84 72 54 12
31 20 -5 93 81 70 54 20
30 20 -4 91 79 67 53 17
28 18 -3 89 76 65 52 12
29 20 -1 87 73 64 51 12
28 21 0 83 71 62 50 6
27 19 0 78 68 58 47 -3
26 21 0 73 65 56 45 -3
25 20 1 66 62 53 43 1
22 18 1 63 59 50 41 1
20 18 0 59 55 46 39 -12
17 15 -1 55 50 44 36 -14
15 13 2 52 44 39 34 -16
14 14 3 49 42 36 30 -11
12 11 4 46 38 34 28 -12
12 11 5 41 36 31 25 -10
10 9 6 38 35 30 22 -13
8 7 7 34 32 27 19 -25
8 8 7 29 31 26 18 -23
5 6 7 26 28 23 16 -18
4 6 7 23 24 21 12 -25
2 5 8 21 21 20 10 -29
0 4 7 19 16 15 7 -25
-1 3 9 18 14 13 5 -31
-2 1 10 17 12 12 3 -29
-3 1 11 14 11 9 1 -21
-2 0 11 12 11 9 -1 -18
-4 -2 11 8 10 8 -3 -19
-5 -3 11 7 10 8 -3 -24
-4 -3 11 6 10 8 -3 -24
-5 -4 11 3 7 6 -5 -23
-7 -3 11 4 6 6 -4 -21
-8 -3 11 3 4 4 -5 -21
-10 -5 11 3 1 2 -8 -17
-9 -5 13 4 2 3 -8 -1
-10 -6 12 2 2 1 -9 2
-8 -6 13 2 4 2 -10 -3
-9 -8 13 0 4 2 -11 -3
-9 -8 12 -2 4 2 -10 -1
-8 -5 11 -3 3 1 -11 -2
-8 -5 11 -4 3 2 -11 1
-10 -5 12 -2 2 3 -10 -3
-10 -6 12 -2 1 2 -10 -7
-11 -8 10 -3 -2 -2 -13 -12
-11 -8 12 -2 -1 -1 -13 -12
-12 -8 14 -1 0 -1 -12 -12
-13 -10 13 -2 0 -3 -14 -21
-12 -9 13 -4 0 -3 -14 -28
-11 -9 12 -4 2 -3 -12 -32
-11 -10 12 -5 2 -3 -13 -31
-10 -7 13 -3 3 -1 -11 -25
-10 -6 12 -4 1 -1 -12 -19
-9 -6 12 -3 2 -2 -12 -21
-10 -8 12 -3 1 -2 -14 -35
-11 -10 12 -1 1 0 -13 -33
-10 -8 12 -1 4 1 -13 -33
-11 -10 12 -2 3 1 -15 -30
-13 -12 12 -3 3 3 -15 -26
-12 -10 12 -3 5 5 -13 -29
-14 -12 13 -3 6 6 -13 -37
-11 -8 13 -3 5 7 -12 -33
-11 -8 13 -2 5 9 -11 -36
-11 -8 13 -1 5 7 -12 -27
-10 -6 14 0 7 10 -11 -19
-10 -6 15 2 7 10 -10 -24
-10 -6 15 2 9 9 -11 -19
-10 -8 15 1 9 9 -11 -22
-13 -9 13 -1 8 9 -12 -27
-12 -8 13 -1 10 11 -10 -22
-11 -7 13 -2 10 10 -10 -20
-10 -7 13 -1 10 10 -9 -26
-9 -4 12 0 9 11 -9 -24
-11 -4 12 2 8 9 -10 -23
-9 -3 11 2 5 8 -10 -18
-8 -3 13 5 6 9 -9 -24
-9 -5 13 5 5 7 -11 -24
-8 -6 13 4 6 6 -11 -20
-10 -9 12 2 3 4 -12 -33
-11 -9 14 2 4 4 -12 -27
-10 -6 13 1 2 4 -12 -25
-10 -6 12 2 0 3 -11 -30
-11 -6 13 3 0 4 -10 -26
-11 -6 14 5 1 4 -11 -31
-11 -6 13 6 0 4 -11 -28
-8 -5 13 7 2 6 -10 -21
-7 -5 14 6 4 6 -10 -26
-7 -5 14 4 4 4 -11 -34
-8 -5 14 3 5 6 -10 -32
-10 -7 14 3 6 6 -10 -29
-9 -5 13 3 7 5 -10 -26
-9 -6 12 2 6 5 -10 -24
-11 -7 10 2 4 4 -11 -17
-10 -5 11 4 5 3 -11 -18
-10 -5 11 5 5 3 -10 -23
-9 -5 11 5 5 4 -10 -17
-7 -4 12 6 5 4 -10 -18
-9 -7 12 4 5 1 -12 -28
-8 -7 12 2 5 2 -10 -21
-6 -4 12 2 6 3 -10 -16
-6 -5 12 2 6 3 -10 -24
-6 -6 11 1 5 2 -10 -26
-8 -7 10 1 2 3 -10 -24
-9 -6 10 3 0 0 -11 -14
-8 -5 11 3 0 0 -11 -13
-8 -7 11 3 -2 1 -11 -19
-7 -6 11 4 -1 1 -11 -20
-6 -7 10 2 0 -1 -12 -15
-7 -7 13 1 0 1 -10 -12
-5 -4 12 0 -1 1 -10 -8
-7 -4 12 0 0 1 -10 -12
-7 -4 12 -1 -1 0 -11 -16
-7 -4 11 0 -2 0 -10 -21
-9 -6 10 -1 -4 -3 -12 -18
-9 -6 11 0 -4 -3 -12 -16
-8 -6 11 0 -4 -1 -12 -15
-10 -8 11 -1 -5 -3 -13 -13
-9 -8 11 -2 -3 -5 -13 -10
-8 -7 10 -4 -3 -5 -13 -9
-8 -8 9 -5 -3 -5 -13 -13
-7 -5 10 -4 -1 -2 -12 -11
-6 -6 9 -6 -3 -3 -13 -5
-4 -4 9 -5 -3 -2 -12 -3
-6 -5 8 -4 -4 -3 -14 -6
-8 -8 7 -5 -5 -5 -15 -7
-7 -9 7 -6 -6 -4 -15 -10
-8 -10 8 -6 -4 -4 -16 -9
-10 -10 9 -6 -5 -5 -16 -2
-9 -9 8 -8 -4 -4 -15 -1
-8 -8 7 -10 -5 -5 -16 -10
-7 -7 9 -8 -1 0 -14 -3
-7 -7 7 -9 -2 0 -15 0
-7 -7 6 -9 -4 0 -15 -1
-6 -6 7 -7 -4 0 -14 1
-7 -7 8 -6 -3 1 -15 0
-8 -8 8 -8 -4 1 -15 -4
-8 -8 7 -8 -3 1 -15 -1
-11 -11 8 -9 -4 -1 -17 -7
-8 -10 8 -10 -3 1 -16 -5
-7 -10 7 -11 -3 1 -16 0
-9 -9 7 -11 -3 1 -17 -3
-6 -7 6 -13 -5 2 -17 -8
-7 -9 5 -13 -4 1 -16 -8
-6 -8 6 -12 -4 2 -17 -4
-6 -7 7 -10 -3 2 -17 0
-7 -10 7 -11 -4 3 -17 -2
-7 -9 7 -12 -3 3 -18 -2
-7 -11 6 -12 -4 2 -19 -6
-8 -11 5 -14 -5 0 -19 -10
-7 -9 5 -14 -4 2 -18 -5
-8 -9 6 -13 -4 1 -18 -9
-9 -11 5 -14 -6 -1 -18 -11
-8 -9 5 -15 -6 -1 -18 -8
-7 -9 5 -16 -7 -3 -19 -11
-6 -9 7 -12 -6 -2 -18 -8
-7 -10 6 -12 -6 -1 -18 -3
-6 -10 6 -13 -7 -3 -19 -11
-7 -10 7 -12 -6 -4 -19 -14
-9 -12 7 -14 -7 -4 -20 -13
-9 -11 8 -14 -7 -4 -19 -11
-9 -11 7 -13 -7 -5 -19 -8
-11 -13 5 -14 -10 -7 -20 -6
-11 -13 5 -14 -10 -7 -19 -11
-10 -12 5 -14 -11 -7 -20 -9
-8 -11 4 -13 -12 -9 -20 -12
-6 -12 7 -12 -11 -7 -19 -11
-8 -14 6 -14 -12 -9 -21 -10
-8 -12 7 -13 -11 -10 -21 -10
-7 -11 7 -13 -10 -8 -19 -8
-8 -13 7 -14 -11 -8 -20 -2
-7 -11 7 -14 -11 -9 -19 2
-7 -12 5 -14 -13 -10 -20 -1
-7 -12 5 -14 -12 -10 -19 -6
-7 -10 7 -11 -12 -9 -19 -4
-8 -10 7 -11 -12 -10 -20 0
-5 -7 7 -11 -11 -9 -20 6
-5 -6 8 -11 -9 -8 -19 -2
-5 -7 8 -11 -9 -10 -20 -8
-3 -3 11 -8 -5 -5 -16 -9
-4 1 15 -6 -1 -2 -13 -1
-4 5 18 -2 2 1 -11 10
-2 7 18 -2 3 1 -11 4
-5 7 17 -2 2 1 -10 4
-4 7 18 0 2 1 -10 4
-3 8 18 1 3 2 -10 6
-5 5 19 1 2 0 -11 11
-5 5 20 2 4 1 -12 8
-6 7 22 2 5 3 -12 3
-6 11 20 2 6 4 -10 7
-1 13 17 -3 6 4 -9 5
-2 11 12 -5 4 3 -11 6
-1 14 9 -6 3 3 -9 9
-2 11 6 -9 1 2 -9 9
-1 9 2 -11 -1 0 -11 12
2 10 1 -9 -1 1 -11 4
2 11 -1 -10 0 1 -10 -1
2 13 0 -9 1 2 -9 12
3 15 2 -7 3 5 -7 10
4 16 1 -8 4 5 -6 8
6 20 2 -8 5 7 -5 7
4 21 3 -7 6 8 -4 14
2 20 3 -9 4 7 -5 6
2 22 3 -9 3 6 -4 4
1 20 3 -8 4 7 -5 11
3 18 1 -8 3 7 -5 4
5 17 1 -8 2 5 -6 11
5 11 -2 -11 0 2 -8 1
6 10 -2 -11 0 2 -8 -1
6 9 -1 -12 -1 1 -7 0
5 8 -1 -14 -2 0 -7 -3
4 7 -2 -14 -2 1 -8 0
2 4 -3 -15 -4 0 -8 9
0 1 -2 -16 -5 -1 -11 11
0 -1 -3 -17 -8 -4 -13 -2
-3 -6 -3 -18 -10 -6 -16 -2
-5 -6 -1 -19 -12 -8 -17 -8
-9 -11 -1 -19 -12 -10 -20 -20
-11 -13 0 -18 -13 -11 -21 -18
-11 -14 1 -19 -13 -12 -22 -18
-11 -16 0 -20 -14 -13 -23 -17
-11 -17 -1 -22 -16 -15 -24 -12
-11 -16 -2 -24 -18 -17 -25 -22
-12 -18 -1 -24 -19 -18 -26 -30
-10 -16 -1 -24 -20 -19 -26 -23
-11 -17 -1 -25 -20 -19 -27 -19
-11 -18 -1 -24 -19 -18 -27 -33
-12 -20 -1 -25 -19 -19 -28 -32
-13 -22 -1 -25 -20 -20 -29 -31
-11 -20 -2 -27 -21 -21 -29 -28
-11 -20 -2 -27 -20 -21 -29 -30
-12 -22 -2 -26 -20 -20 -28 -26
-13 -20 -2 -27 -21 -22 -29 -29
-13 -21 -1 -25 -19 -19 -27 -32
-11 -19 -2 -24 -21 -20 -27 -26
-11 -19 -1 -23 -20 -19 -27 -29
-11 -20 -1 -24 -21 -21 -28 -31
-12 -19 0 -23 -19 -20 -27 -26
-10 -18 0 -23 -18 -19 -26 -32
-11 -19 0 -23 -18 -19 -26 -33
-10 -18 -1 -24 -18 -20 -26 -25
-11 -19 -3 -24 -19 -20 -26 -24
-11 -18 -3 -24 -22 -22 -26 -28
-11 -16 -4 -24 -22 -22 -27 -27
-12 -17 -3 -22 -23 -22 -26 -23
-9 -16 -3 -21 -22 -20 -26 -24
-9 -16 -2 -22 -22 -20 -26 -25
-12 -18 -1 -20 -20 -19 -25 -22
-10 -17 1 -19 -19 -19 -25 -21
-8 -17 3 -18 -17 -18 -25 -24
-9 -18 6 -12 -14 -19 -26 -29
-12 -20 15 2 -7 -17 -29 -26
-14 -21 24 17 -1 -18 -32 -33
-15 -18 33 30 6 -17 -33 -39
-18 -16 43 47 16 -12 -31 -33
-16 -13 50 68 27 -6 -27 -43
-8 -6 60 104 51 11 -15 -38
2 3 69 142 85 37 6 -25
16 22 75 172 120 71 34 -8
30 42 83 194 150 104 64 15
37 55 93 208 174 134 91 36
50 75 96 206 200 171 124 57
59 103 94 187 229 221 174 90
72 133 81 146 247 269 220 119
85 159 63 83 254 315 267 153
93 186 37 -10 245 355 310 183
95 203 12 -92 232 388 347 216
96 227 -19 -172 218 418 381 242
92 245 -48 -238 205 445 407 262
88 251 -73 -288 182 456 414 272
72 248 -95 -330 157 455 407 264
55 220 -117 -363 118 416 364 237
35 178 -130 -383 56 328 285 203
16 127 -134 -380 -8 208 184 143
-2 82 -126 -366 -60 93 87 84
-22 59 -111 -358 -114 3 18 45
-39 44 -103 -349 -165 -57 -23 21
-47 31 -104 -330 -196 -91 -45 -3
-47 18 -101 -302 -199 -101 -51 -13
-41 8 -96 -262 -176 -90 -49 -17
-33 -1 -87 -220 -150 -80 -48 -28
-29 -14 -75 -181 -126 -73 -47 -34
-24 -20 -65 -152 -112 -69 -46 -33
-19 -21 -53 -123 -98 -65 -44 -34
-16 -22 -42 -97 -85 -59 -39 -37
-14 -20 -30 -75 -72 -52 -34 -32
-14 -18 -23 -57 -63 -47 -33 -33
-14 -19 -13 -41 -51 -44 -30 -31
-12 -19 -7 -31 -44 -42 -30 -36
-13 -21 -4 -27 -40 -40 -30 -35
-12 -23 -2 -22 -37 -40 -30 -32
-9 -21 -1 -19 -36 -40 -30 -29
-11 -22 -1 -16 -34 -38 -28 -33
-9 -18 0 -13 -35 -38 -30 -33
-6 -18 1 -8 -34 -37 -29 -29
-7 -20 1 -5 -35 -40 -31 -34
-7 -22 5 -2 -33 -39 -30 -35
-9 -24 7 0 -28 -39 -30 -27
-7 -25 7 0 -26 -39 -30 -41
-7 -25 8 -1 -22 -36 -29 -41
-10 -27 9 -1 -20 -35 -29 -39
-7 -26 7 -1 -19 -33 -28 -38
-7 -24 6 -1 -19 -29 -25 -37
-7 -22 6 1 -19 -27 -25 -47
-5 -22 5 4 -18 -26 -25 -36
-5 -21 6 7 -18 -25 -24 -32
-5 -21 7 9 -17 -23 -24 -36
-3 -21 8 9 -13 -24 -27 -38
-4 -24 8 10 -12 -23 -27 -36
-3 -25 9 10 -8 -20 -25 -39
-4 -25 8 8 -8 -19 -26 -37
-4 -24 7 8 -6 -18 -25 -37
-3 -20 7 9 -6 -13 -23 -31
-4 -20 7 10 -5 -12 -22 -35
-3 -17 9 14 -4 -11 -22 -31
-3 -19 11 16 -4 -8 -20 -28
-4 -20 13 18 -4 -8 -21 -23
-3 -21 15 19 -1 -8 -22 -28
-3 -22 16 19 1 -8 -22 -32
-1 -22 15 17 3 -6 -21 -25
0 -21 13 16 2 -6 -21 -19
0 -23 12 17 4 -7 -20 -28
0 -21 11 19 3 -7 -18 -27
-2 -22 12 20 3 -8 -18 -23
-4 -24 11 22 2 -13 -21 -21
-2 -22 12 27 2 -16 -21 -17
0 -21 13 29 2 -18 -22 -25
1 -22 13 29 4 -22 -23 -30
1 -21 15 30 6 -23 -23 -30
0 -22 16 29 8 -23 -21 -31
3 -20 16 29 9 -23 -20 -27
0 -23 14 29 9 -25 -19 -24
0 -21 12 30 6 -26 -18 -24
3 -17 13 33 7 -24 -16 -15
3 -18 13 35 5 -27 -18 -18
2 -20 14 38 4 -28 -17 -26
3 -20 16 41 4 -28 -18 -28
1 -22 16 41 6 -31 -20 -31
3 -21 17 42 9 -30 -19 -22
5 -21 16 41 11 -27 -17 -23
5 -20 16 41 11 -26 -16 -26
7 -19 14 43 14 -24 -14 -28
7 -16 13 44 14 -20 -13 -22
7 -16 12 46 14 -19 -12 -26
8 -16 12 51 16 -18 -12 -25
7 -19 12 54 15 -19 -13 -21
10 -17 13 57 16 -20 -14 -19
9 -18 15 59 19 -19 -12 -23
9 -18 16 61 22 -16 -12 -24
11 -17 16 61 24 -13 -10 -24
11 -19 14 61 26 -11 -9 -19
13 -17 13 63 28 -9 -8 -25
15 -14 13 65 29 -4 -6 -23
14 -15 12 68 29 -3 -5 -18
16 -12 13 73 32 -2 -4 -9
16 -13 14 77 32 -1 -4 -17
15 -14 13 79 34 0 -3 -21
16 -14 14 82 37 0 -3 -23
16 -13 14 84 40 2 -2 -20
17 -13 14 85 43 5 0 -23
20 -10 13 86 47 8 4 -23
21 -10 11 88 51 11 7 -13
24 -7 10 91 53 16 10 -4
25 -6 10 95 55 18 13 -6
24 -7 8 98 56 18 14 -7
25 -7 9 102 58 21 16 -3
25 -7 7 104 60 22 17 -8
29 -4 7 107 64 23 19 -3
32 -3 7 107 67 27 23 -2
31 -4 5 107 70 29 25 -10
32 -2 2 106 72 32 28 -9
34 0 1 108 76 37 33 -9
36 3 -1 107 75 41 36 -3
38 6 -3 108 76 43 40 -1
38 5 -3 111 79 46 43 8
40 7 -4 112 78 46 43 -1
41 9 -4 111 78 47 43 1
40 7 -4 110 78 46 43 6
42 10 -4 109 80 48 46 4
43 11 -6 106 81 49 47 8
42 11 -7 103 79 49 48 5
42 13 -8 103 80 51 52 6
41 14 -10 102 78 52 53 9
43 17 -11 101 77 53 56 8
43 16 -12 101 76 53 55 9
43 17 -11 101 74 53 56 6
44 19 -10 100 73 52 56 12
42 18 -9 99 72 50 54 6
42 17 -10 96 71 49 54 10
43 17 -11 92 70 48 53 8
40 16 -13 88 68 46 52 4
41 18 -12 87 68 46 54 9
42 20 -13 84 65 46 55 5
38 18 -15 82 61 44 53 10
40 20 -15 81 58 42 52 7
39 19 -13 80 55 40 52 2
37 19 -11 78 53 38 50 1
35 20 -9 73 51 35 47 -1
33 18 -8 70 48 32 45 -4
32 19 -7 65 46 30 43 -5
30 18 -8 59 43 27 40 -15
26 16 -7 55 39 23 39 -10
26 17 -7 51 36 22 37 -12
23 17 -7 49 31 20 34 -18
20 15 -5 47 26 16 32 -21
20 14 -3 44 23 13 29 -20
17 13 -2 41 20 10 25 -16
17 13 1 38 19 7 22 -15
15 10 3 34 17 5 19 -20
13 8 4 29 14 2 16 -20
14 10 4 25 13 1 13 -21
12 8 5 24 12 1 14 -22
10 7 3 20 10 -1 12 -24
9 6 3 18 7 -2 10 -22
5 3 4 18 3 -4 8 -14
7 3 5 16 -1 -8 5 -16
5 3 6 16 -1 -9 2 -19
4 2 8 14 -3 -12 -1 -17
5 2 9 12 -2 -12 -2 -7
3 0 9 8 -4 -13 -4 -13
3 0 8 7 -6 -13 -6 -19
3 0 8 6 -5 -12 -6 -10
2 -1 7 4 -7 -13 -6 -4
0 -1 7 3 -9 -15 -7 -12
-2 -3 6 3 -12 -16 -9 -21
-2 -5 8 3 -13 -18 -10 -18
-1 -4 8 3 -14 -19 -11 -12
-4 -6 8 3 -13 -20 -11 -21
-4 -7 8 1 -13 -21 -12 -22
-4 -7 8 -1 -12 -21 -13 -16
-3 -7 7 -2 -12 -20 -13 -17
-3 -6 8 -2 -11 -19 -11 -16
-3 -5 7 -2 -10 -17 -11 -21
-5 -6 7 -4 -14 -19 -13 -23
-5 -7 6 -3 -15 -20 -13 -17
-5 -8 7 -2 -15 -21 -13 -7
-4 -8 8 -2 -16 -22 -15 -12
-6 -10 10 -2 -14 -23 -16 -18
-6 -10 10 -2 -14 -24 -17 -24
-4 -8 8 -5 -13 -24 -18 -22
-4 -8 6 -6 -12 -24 -18 -20
-5 -9 6 -6 -10 -22 -16 -24
-4 -6 7 -5 -9 -19 -13 -11
-5 -5 8 -5 -9 -18 -13 -8
-4 -4 8 -3 -9 -17 -13 -21
-2 -2 10 -1 -8 -14 -12 -19
-3 -5 10 -1 -8 -13 -14 -15
-3 -6 11 -1 -8 -12 -15 -14
-5 -9 11 -1 -7 -11 -14 -17
-6 -11 11 -2 -7 -11 -14 -17
-5 -10 11 -2 -5 -10 -13 -15
-5 -9 11 -2 -4 -9 -11 -19
-5 -7 11 -1 -4 -7 -10 -17
-5 -6 10 -1 -5 -7 -11 -10
-5 -7 9 0 -6 -9 -12 -15
-4 -6 11 2 -5 -8 -11 -12
-3 -5 10 2 -5 -9 -13 -8
-4 -6 11 3 -5 -9 -13 -11
-4 -7 12 2 -4 -8 -14 -17
-7 -9 10 0 -4 -9 -14 -11
-5 -5 10 0 -4 -9 -13 -8
-4 -6 10 -1 -4 -9 -11 -10
-4 -6 8 -1 -7 -9 -11 -10
-5 -5 7 -1 -8 -9 -10 -12
-5 -5 7 2 -9 -10 -10 -9
-5 -5 8 4 -10 -10 -10 -11
-4 -5 9 5 -11 -11 -10 -8
-5 -9 10 5 -11 -13 -13 -15
-6 -8 11 5 -11 -14 -12 -18
-5 -8 10 4 -12 -15 -13 -16
-5 -7 9 3 -13 -17 -13 -13
-4 -7 8 3 -13 -16 -13 -17
-6 -6 8 3 -14 -15 -12 -14
-6 -6 7 4 -16 -16 -12 -16
-5 -5 9 6 -15 -15 -11 -10
-7 -5 8 6 -16 -17 -12 -15
-5 -4 9 7 -14 -17 -12 -12
-4 -4 10 7 -11 -16 -12 -8
-4 -5 11 6 -9 -15 -12 -17
-3 -4 11 5 -7 -13 -12 -7
-3 -3 9 3 -6 -14 -11 -10
-3 -3 8 2 -7 -15 -12 -19
-3 -3 8 2 -7 -14 -10 -15
-4 -4 6 2 -8 -15 -11 -19
-2 -3 6 3 -10 -17 -12 -16
-2 -4 7 4 -11 -17 -12 -13
-3 -4 7 5 -10 -17 -11 -20
-3 -5 7 5 -9 -17 -13 -16
-2 -4 8 4 -9 -18 -12 -16
-1 -2 7 4 -8 -17 -11 -17
1 -1 6 2 -8 -16 -10 -17
-1 -2 7 2 -8 -15 -10 -17
0 0 6 2 -10 -14 -9 -16
-2 -2 5 3 -11 -14 -9 -12
-4 -3 6 3 -13 -15 -8 -15
-4 -2 7 4 -14 -15 -9 -1
-5 -3 7 4 -15 -16 -11 -13
-5 -5 7 2 -15 -18 -12 -12
-4 -5 7 1 -14 -17 -11 -13
-4 -6 6 0 -13 -16 -11 -16
-2 -3 6 -1 -13 -16 -10 -12
-4 -3 6 -2 -12 -15 -9 -6
-4 -2 5 -3 -13 -15 -9 -5
-3 -1 4 -2 -13 -14 -9 -4
-4 -4 5 -2 -15 -15 -9 -6
-5 -4 4 -2 -14 -15 -10 -4
-4 -4 4 -1 -14 -14 -10 -10
-6 -7 5 -2 -14 -16 -12 -13
-5 -7 5 -4 -13 -16 -12 -3
-5 -6 5 -4 -12 -15 -12 -10
-4 -5 3 -5 -12 -14 -12 -6
-2 -4 4 -6 -9 -11 -10 -4
-5 -5 4 -5 -9 -9 -10 -8
-2 -2 2 -4 -10 -9 -9 -5
0 -2 3 -4 -11 -9 -9 -2
-2 -4 4 -5 -12 -11 -10 -3
-3 -4 4 -3 -12 -10 -10 -2
-5 -8 4 -5 -11 -11 -12 -13
-6 -9 4 -6 -13 -12 -12 -13
-4 -8 4 -7 -12 -10 -13 -7
-6 -8 2 -9 -15 -11 -13 -6
-4 -5 3 -9 -13 -10 -12 4
-4 -3 2 -9 -14 -5 -11 -6
-4 -3 1 -9 -15 -7 -11 -3
-3 -2 2 -8 -16 -9 -12 -5
-2 -3 0 -8 -17 -11 -13 -12
-2 -5 0 -10 -18 -12 -14 -5
-3 -8 0 -10 -17 -15 -14 -7
-5 -10 -2 -11 -19 -16 -15 -8
-5 -8 -1 -11 -18 -15 -12 -13
-4 -8 -2 -14 -17 -15 -13 -15
-6 -11 -1 -12 -18 -15 -13 -14
-7 -10 -3 -13 -21 -15 -12 -12
-8 -10 -4 -15 -21 -17 -13 -18
-7 -9 -1 -12 -21 -16 -15 -13
-4 -6 -1 -10 -20 -15 -14 -7
-5 -9 -1 -10 -20 -16 -14 -14
-3 -9 -1 -11 -21 -18 -15 -14
-6 -10 0 -12 -20 -18 -16 -11
-7 -11 -2 -15 -22 -21 -17 -10
-6 -9 -1 -15 -20 -20 -17 -9
-7 -8 -2 -15 -21 -21 -17 -20
-8 -9 -2 -15 -22 -19 -16 -16
-7 -8 -2 -14 -22 -20 -15 -18
-7 -9 -2 -13 -22 -19 -16 -15
-4 -6 -1 -12 -21 -18 -15 -12
-4 -7 0 -11 -20 -18 -14 -10
-4 -8 -1 -12 -21 -21 -16 -18
-3 -9 0 -12 -19 -19 -17 -12
-2 -7 0 -13 -19 -19 -16 -9
-2 -6 -1 -14 -18 -19 -16 -15
-3 -4 -1 -13 -17 -18 -15 -17
-3 -4 -1 -13 -18 -17 -14 -14
-2 2 2 -8 -17 -16 -11 -5
-2 5 6 -4 -14 -13 -10 -5
-2 7 10 -1 -11 -12 -9 -3
0 9 11 0 -11 -10 -7 1
-1 7 10 0 -10 -12 -8 3
0 8 12 1 -9 -10 -8 -2
2 11 12 0 -8 -8 -7 -5
2 12 12 -1 -6 -7 -6 -8
3 14 13 0 -6 -7 -5 -2
0 14 12 -1 -6 -5 -4 4
-2 13 9 -3 -9 -6 -3 8
0 14 5 -5 -10 -7 -4 4
0 13 -1 -8 -12 -8 -5 0
0 12 -4 -11 -15 -10 -6 6
2 13 -6 -10 -13 -11 -6 8
6 13 -8 -11 -11 -9 -7 9
9 16 -9 -12 -9 -8 -5 9
9 18 -11 -12 -8 -6 -2 9
8 20 -10 -10 -5 -4 -1 8
8 21 -9 -10 -3 -2 0 10
5 23 -9 -9 -5 -4 0 8
5 26 -7 -6 -6 -3 0 7
3 24 -7 -7 -6 -3 -1 15
1 22 -7 -9 -8 -6 -1 15
2 21 -4 -7 -7 -6 0 10
5 22 -6 -9 -7 -6 -2 10
9 21 -8 -9 -5 -5 0 9
10 20 -8 -11 -6 -5 0 8
8 18 -11 -12 -7 -5 0 8
6 16 -12 -13 -9 -6 -1 8
7 14 -13 -13 -10 -6 -1 3
3 11 -10 -11 -10 -5 -2 8
2 8 -11 -11 -10 -7 -3 12
0 4 -11 -13 -12 -10 -6 0
0 2 -12 -15 -15 -13 -9 -8
-1 -2 -13 -19 -18 -16 -13 -6
-5 -5 -12 -21 -19 -18 -15 -2
-4 -5 -13 -22 -19 -18 -15 0
-5 -7 -13 -21 -20 -17 -15 -9
-8 -9 -11 -21 -20 -18 -16 -11
-5 -9 -12 -21 -20 -18 -17 -6
-5 -10 -14 -23 -23 -20 -19 -9
-7 -14 -14 -21 -25 -24 -21 -14
-8 -17 -13 -22 -27 -26 -21 -21
-9 -17 -14 -23 -29 -29 -25 -21
-8 -14 -13 -24 -29 -28 -25 -23
-8 -15 -14 -25 -28 -28 -25 -23
-10 -17 -14 -26 -29 -29 -26 -19
-10 -18 -14 -25 -28 -28 -25 -19
-11 -16 -15 -26 -29 -29 -26 -23
-9 -14 -15 -26 -28 -28 -25 -26
-8 -13 -15 -24 -30 -28 -24 -20
-10 -16 -14 -23 -30 -28 -24 -25
-9 -17 -12 -22 -30 -29 -23 -24
-10 -17 -13 -22 -30 -30 -24 -17
-8 -16 -15 -24 -32 -32 -25 -22
-8 -16 -14 -23 -30 -31 -23 -23
-8 -16 -15 -24 -31 -32 -23 -19
-9 -16 -15 -23 -31 -32 -22 -22
-9 -14 -15 -24 -32 -32 -22 -21
-9 -15 -17 -23 -32 -32 -22 -16
-6 -12 -16 -22 -32 -32 -22 -21
-6 -13 -16 -20 -31 -31 -21 -27
-8 -12 -17 -20 -32 -33 -22 -20
-6 -11 -14 -18 -31 -32 -20 -15
-6 -11 -13 -20 -31 -31 -20 -16
-7 -13 -14 -20 -31 -32 -20 -19
-7 -12 -14 -21 -30 -31 -19 -23
-9 -14 -15 -21 -32 -33 -21 -26
-7 -15 -14 -19 -31 -33 -20 -23
-7 -14 -13 -15 -29 -32 -22 -28
-6 -13 -8 -7 -25 -31 -22 -29
-7 -14 1 9 -16 -29 -25 -35
-10 -16 11 23 -8 -30 -29 -38
-12 -14 21 37 1 -28 -30 -37
-8 -9 28 53 11 -23 -28 -40
-5 -7 36 77 27 -13 -22 -41
6 1 46 116 58 9 -6 -32
16 18 52 155 93 41 21 -17
26 35 56 182 124 74 50 3
33 49 64 202 151 106 77 19
38 61 76 216 174 138 104 38
47 83 79 206 198 180 145 76
62 117 70 167 219 232 195 107
74 144 58 116 236 284 245 140
83 170 41 51 244 338 296 175
91 196 16 -37 238 387 344 211
94 216 -8 -109 227 427 383 240
93 240 -38 -178 210 459 417 264
86 254 -65 -233 193 485 440 283
77 257 -81 -275 166 493 442 286
61 245 -92 -311 131 482 421 273
37 209 -102 -342 80 422 359 236
16 169 -113 -365 9 314 265 184
3 119 -119 -363 -51 185 157 125
-13 79 -108 -348 -98 71 61 71
-28 60 -94 -341 -147 -17 -1 43
-44 49 -84 -334 -192 -73 -34 16
-49 39 -86 -315 -212 -101 -50 1
-44 32 -93 -287 -204 -98 -48 -6
-40 19 -92 -252 -180 -87 -46 -14
-34 8 -85 -212 -153 -77 -44 -21
-28 -3 -75 -175 -128 -68 -43 -25
-24 -11 -66 -144 -111 -62 -42 -32
-19 -15 -59 -120 -97 -61 -41 -30
-17 -16 -47 -95 -82 -54 -37 -32
-12 -12 -38 -76 -68 -45 -32 -30
-10 -10 -31 -61 -58 -40 -29 -28
-10 -12 -25 -47 -52 -38 -28 -27
-8 -11 -20 -38 -45 -34 -24 -29
-7 -11 -17 -31 -41 -31 -24 -27
-7 -15 -15 -24 -37 -31 -23 -25
-7 -15 -13 -19 -36 -31 -23 -25
-7 -17 -13 -16 -36 -31 -23 -30
-5 -15 -13 -14 -36 -34 -26 -24
-5 -15 -11 -9 -34 -33 -26 -30
-6 -18 -9 -8 -32 -34 -25 -31
-5 -18 -8 -7 -30 -35 -27 -31
-5 -18 -7 -4 -27 -37 -28 -28
-3 -18 -5 -3 -24 -33 -25 -26
-2 -15 -6 -3 -21 -30 -25 -33
-3 -18 -6 -3 -18 -29 -24 -33
-3 -17 -7 -3 -19 -28 -24 -26
-3 -18 -6 -2 -18 -24 -23 -21
-3 -18 -7 -1 -18 -24 -24 -30
-3 -18 -6 2 -15 -21 -23 -26
-4 -19 -6 2 -15 -20 -23 -33
-2 -19 -5 3 -12 -18 -22 -34
-1 -19 -6 4 -8 -17 -23 -29
-2 -21 -6 4 -7 -14 -21 -36
0 -18 -5 5 -3 -10 -20 -34
0 -20 -4 5 -1 -7 -20 -33
-1 -19 -5 5 0 -6 -19 -31
1 -17 -3 6 1 -2 -17 -25
1 -16 -1 9 4 0 -17 -23
0 -17 0 10 4 2 -17 -22
1 -16 1 11 5 4 -16 -13
-1 -19 1 11 5 4 -19 -20
1 -18 2 13 8 5 -19 -27
2 -19 3 13 9 7 -16 -25
1 -18 1 12 9 7 -16 -26
3 -16 2 13 12 9 -16 -25
3 -16 2 13 10 8 -16 -18
3 -16 3 15 11 10 -14 -18
6 -14 2 16 12 8 -15 -20
4 -15 2 19 13 7 -15 -18
3 -14 3 20 14 5 -14 -14
2 -16 3 20 13 2 -16 -22
1 -18 2 21 14 -2 -17 -14
2 -17 4 22 15 -1 -14 -11
2 -17 3 22 15 -3 -15 -18
2 -16 3 21 14 -6 -15 -29
2 -16 2 24 15 -7 -14 -24
2 -16 2 25 13 -7 -12 -22
3 -15 3 27 15 -6 -13 -28
4 -15 3 29 15 -8 -13 -29
3 -16 4 31 16 -8 -13 -28
4 -16 4 32 18 -7 -12 -27
4 -17 2 32 18 -10 -14 -29
5 -15 3 32 18 -9 -13 -28
5 -15 2 33 21 -7 -12 -32
3 -18 1 34 22 -7 -12 -29
4 -17 2 36 23 -6 -11 -25
5 -16 1 38 24 -5 -10 -25
6 -15 1 41 27 -2 -10 -23
8 -13 2 44 29 1 -9 -24
8 -14 4 46 31 3 -10 -18
11 -12 4 48 34 4 -9 -18
12 -12 5 51 39 7 -9 -17
11 -14 4 51 39 8 -7 -22
11 -14 5 53 41 11 -6 -22
11 -14 5 54 42 13 -4 -26
10 -15 4 56 42 14 -3 -28
12 -13 4 61 45 16 -1 -20
12 -13 5 64 47 18 -1 -16
15 -10 5 67 49 22 1 -16
16 -11 5 70 52 24 3 -18
17 -12 3 72 54 26 3 -17
20 -10 4 75 58 29 4 -19
21 -9 4 76 61 32 7 -15
21 -10 3 77 63 37 9 -13
22 -8 1 79 66 39 12 -13
22 -8 0 81 68 40 14 -15
23 -7 -1 84 71 44 18 -4
26 -4 -1 85 73 46 17 0
26 -6 -2 89 76 48 20 -9
27 -6 -2 93 80 52 24 -8
30 -4 -4 93 83 55 24 -4
32 -2 -4 95 88 59 27 2
34 0 -6 96 90 62 31 4
34 -1 -6 97 93 67 35 -3
36 2 -8 97 96 68 37 -1
36 3 -9 98 97 70 40 1
37 3 -11 98 98 73 43 8
40 7 -10 100 100 74 44 5
38 7 -11 102 101 77 46 1
37 6 -12 101 101 77 47 1
40 8 -12 101 103 79 49 5
40 8 -13 101 104 79 49 10
43 11 -14 100 105 82 53 12
44 11 -15 97 104 82 54 4
43 11 -15 96 104 82 55 5
44 14 -15 96 104 83 56 14
45 14 -16 95 104 86 58 14
47 15 -17 94 102 84 57 12
45 14 -18 94 101 83 58 18
42 13 -19 92 98 81 57 20
42 15 -18 91 98 81 57 14
42 16 -17 89 97 80 56 11
42 16 -18 86 95 79 57 11
43 17 -17 85 96 82 59 14
42 16 -19 82 93 80 57 15
41 18 -17 80 91 79 58 21
41 19 -17 79 89 80 59 20
41 19 -16 76 86 77 55 20
42 21 -16 74 83 74 54 20
39 19 -14 73 80 72 53 21
37 18 -14 69 76 68 49 21
34 18 -12 65 74 65 47 19
32 16 -12 61 70 62 46 9
31 15 -11 56 66 59 44 7
30 16 -10 53 63 57 41 8
26 15 -9 49 59 54 40 8
26 16 -8 47 55 53 38 21
25 16 -7 44 51 50 35 22
22 15 -5 41 49 46 31 16
18 11 -4 37 45 43 28 7
16 8 -4 33 40 38 23 1
16 8 -3 30 37 35 19 -1
15 8 -2 26 35 33 19 4
11 5 -2 22 31 30 16 4
10 6 -1 19 28 27 14 5
8 6 1 16 25 24 11 -4
8 6 0 13 21 23 10 -4
8 6 1 13 20 22 8 4
6 4 2 12 17 19 5 6
5 3 2 8 15 17 2 7
6 2 3 7 14 16 0 9
3 0 4 5 13 14 -2 7
2 0 5 3 11 13 -2 14
1 -2 4 0 10 12 -3 4
-1 -3 3 -2 6 11 -5 6
-1 -1 5 -2 6 11 -3 8
-2 -1 4 -3 4 11 -4 2
-1 -1 6 -2 6 11 -5 6
-1 -2 5 -3 5 9 -7 15
-2 -2 5 -4 3 8 -8 19
0 -1 5 -4 3 8 -10 14
-1 -3 6 -6 3 7 -11 15
-2 -3 7 -7 3 6 -10 15
-3 -4 6 -8 3 6 -12 14
-4 -5 4 -10 2 4 -14 15
-4 -4 5 -10 2 4 -12 20
-3 -4 4 -10 1 3 -13 17
-5 -6 4 -10 1 3 -12 23
-4 -5 5 -8 2 2 -12 16
-4 -4 6 -9 2 1 -14 17
-4 -5 6 -9 3 0 -15 11
-3 -4 7 -9 4 1 -14 9
-3 -5 7 -9 5 1 -13 10
-4 -5 7 -11 5 1 -13 14
-5 -5 7 -10 5 0 -14 13
-6 -5 8 -10 5 1 -12 17
-5 -4 7 -10 6 2 -12 17
-6 -6 8 -10 5 2 -13 18
-7 -8 8 -8 5 2 -13 14
-5 -6 9 -7 6 6 -13 8
-7 -7 9 -6 6 7 -13 14
-5 -6 11 -6 6 8 -12 15
-4 -6 10 -6 7 9 -12 14
-5 -7 10 -7 7 10 -12 15
-3 -4 10 -6 7 10 -10 20
-4 -3 11 -6 8 11 -10 25
-5 -4 10 -5 8 10 -11 24
-6 -4 10 -5 8 11 -12 28
-6 -5 10 -4 7 10 -12 27
-6 -5 11 -3 8 12 -11 29
-5 -5 11 -4 7 12 -13 38
-6 -6 10 -4 7 8 -13 36
-5 -5 11 -4 7 8 -13 41
-6 -7 10 -5 7 7 -13 36
-6 -5 11 -3 7 8 -12 24
-3 -3 11 -4 7 8 -10 26
-3 -3 9 -3 6 7 -10 33
-4 -4 10 -1 6 7 -9 41
-6 -6 9 0 4 6 -10 37
-7 -6 9 -2 2 3 -12 31
-5 -4 10 2 2 4 -9 25
-6 -5 10 1 3 4 -10 27
-7 -6 8 0 0 1 -11 25
-5 -6 10 1 0 2 -10 27
-5 -5 9 1 -1 2 -11 21
-5 -3 9 1 -1 2 -10 26
-5 -3 10 2 -2 3 -8 29
-5 -3 10 3 -2 2 -9 22
-4 -2 9 4 -2 1 -9 22
-5 -3 9 4 -4 0 -10 14
-4 -3 9 3 -4 -1 -10 12
-4 -3 9 3 -1 -3 -11 23
-6 -4 8 2 -3 -4 -11 27
-6 -3 8 1 -2 -5 -10 22
-6 -2 9 3 0 -3 -10 29
-6 -1 8 2 1 -4 -9 22
-4 -1 9 3 2 -3 -8 19
-5 -3 9 4 1 -4 -9 20
-4 -3 9 4 0 -6 -11 22
-2 -1 9 3 0 -5 -9 15
-2 -2 9 3 -1 -6 -10 15
-2 -1 8 3 0 -6 -10 20
-4 -2 7 2 -2 -8 -10 21
-6 -2 8 1 -3 -8 -10 23
-5 -2 8 1 -4 -9 -10 16
-6 -2 8 1 -4 -9 -10 9
-5 -1 7 2 -6 -8 -9 12
-5 -1 8 1 -6 -8 -10 14
-4 -1 8 2 -7 -9 -10 17
0 1 8 1 -7 -8 -10 22
-1 0 7 1 -8 -10 -11 25
-1 -1 6 0 -8 -10 -11 25
-1 -2 5 -2 -9 -11 -12 28
-4 -3 5 -3 -9 -11 -11 16
-3 -2 6 -2 -8 -11 -9 13
-2 -2 5 -4 -9 -11 -10 17
-5 -4 4 -3 -11 -12 -11 23
-3 -3 5 -3 -10 -12 -12 13
-3 -4 4 -3 -10 -12 -12 10
-2 -3 6 -3 -9 -11 -10 14
-1 -1 8 -1 -7 -9 -9 24
-1 -2 7 -3 -8 -10 -9 15
-2 -3 7 -4 -8 -9 -9 25
-4 -5 6 -7 -9 -10 -9 25
-5 -6 6 -6 -9 -11 -9 16
-2 -3 6 -7 -8 -10 -9 14
-5 -5 5 -7 -10 -10 -10 14
-6 -7 5 -7 -11 -11 -11 17
-5 -5 6 -5 -10 -11 -11 14
-6 -6 5 -8 -11 -11 -12 11
-5 -5 5 -7 -9 -10 -12 19
-2 -4 5 -7 -9 -9 -11 20
-3 -5 6 -8 -9 -9 -10 21
-2 -4 6 -10 -9 -7 -11 22
-2 -5 5 -9 -9 -8 -11 14
-2 -5 5 -11 -10 -9 -13 23
-4 -6 5 -9 -10 -7 -11 26
-4 -7 5 -10 -12 -8 -12 15
-4 -7 6 -8 -12 -9 -11 11
-4 -7 5 -8 -13 -9 -13 15
-4 -7 5 -8 -11 -8 -13 16
-2 -5 6 -8 -11 -8 -13 18
-5 -6 5 -9 -11 -6 -12 24
-5 -6 5 -10 -11 -6 -13 17
-3 -4 4 -11 -11 -10 -14 16
-5 -5 5 -11 -12 -9 -13 13
-4 -5 4 -10 -12 -9 -12 11
-5 -7 5 -11 -14 -10 -14 14
-7 -8 5 -10 -14 -11 -13 12
-5 -7 6 -10 -13 -12 -13 18
-6 -9 5 -10 -14 -12 -14 22
-7 -11 6 -10 -16 -14 -15 16
-8 -10 5 -10 -14 -14 -15 12
-6 -10 5 -12 -15 -15 -15 18
-4 -7 5 -11 -14 -14 -15 11
-5 -7 6 -12 -14 -14 -14 11
-6 -8 4 -12 -16 -16 -16 8
-6 -8 4 -12 -17 -16 -16 12
-7 -9 4 -12 -18 -18 -16 11
-6 -8 4 -13 -19 -19 -16 2
-5 -8 4 -13 -19 -20 -17 6
-7 -10 4 -13 -20 -22 -18 6
-6 -9 4 -13 -19 -22 -17 7
-6 -10 4 -14 -19 -23 -17 10
-5 -9 3 -13 -20 -22 -17 8
-4 -7 5 -13 -19 -21 -17 12
-5 -7 7 -11 -18 -20 -15 9
-4 -6 7 -11 -20 -20 -15 6
-3 -6 7 -10 -19 -19 -14 12
-3 -6 7 -9 -19 -19 -13 11
-2 -5 6 -9 -19 -19 -14 11
-3 -5 6 -10 -19 -20 -15 8
-2 -1 9 -7 -16 -18 -12 11
-1 6 13 -4 -13 -14 -9 11
-1 8 16 -1 -10 -13 -8 13
0 11 18 1 -8 -11 -7 22
1 12 18 1 -8 -11 -6 21
1 12 19 2 -8 -11 -7 15
2 13 21 5 -7 -9 -6 20
1 13 21 4 -8 -10 -7 20
1 14 22 4 -7 -10 -7 15
-1 14 22 4 -6 -10 -7 20
-1 14 19 1 -9 -11 -7 23
2 17 15 -3 -10 -11 -7 22
2 16 11 -5 -10 -12 -7 18
-1 13 6 -8 -12 -13 -7 22
1 13 3 -9 -15 -14 -7 14
2 13 0 -9 -14 -13 -7 13
4 15 -3 -11 -15 -14 -7 15
9 19 -1 -10 -12 -12 -4 25
8 21 0 -10 -11 -11 -3 24
8 21 1 -8 -10 -10 -3 33
7 21 0 -9 -11 -11 -2 23
4 21 1 -9 -11 -10 0 18
3 24 3 -8 -9 -10 1 22
1 23 3 -10 -12 -12 -1 27
-1 20 2 -11 -13 -13 -1 25
3 22 2 -10 -13 -13 -1 19
4 20 2 -9 -13 -12 0 20
6 18 1 -8 -13 -12 0 21
6 17 0 -10 -14 -13 -1 22
7 14 -1 -9 -15 -14 -2 18
7 14 0 -10 -15 -14 -2 14
5 11 -1 -11 -15 -16 -4 11
5 7 -1 -12 -16 -16 -5 16
4 3 -2 -13 -19 -18 -7 25
-1 -1 -4 -16 -23 -22 -8 20
-1 -2 -4 -18 -26 -24 -10 9
-3 -3 -4 -19 -28 -27 -13 7
-5 -4 -2 -19 -28 -27 -14 6
-5 -5 -1 -20 -28 -27 -16 4
-7 -9 0 -18 -28 -28 -16 1
-6 -9 1 -17 -26 -27 -16 0
-6 -10 1 -19 -26 -27 -17 -3
-7 -12 -1 -20 -28 -29 -18 0
-7 -13 -1 -22 -31 -31 -20 -8
-10 -15 -3 -24 -33 -32 -22 -9
-10 -16 -4 -25 -35 -36 -23 -16
-9 -16 -3 -23 -36 -35 -23 -15
-10 -18 -2 -24 -36 -37 -23 -18
-12 -18 -2 -24 -36 -37 -23 -16
-10 -18 -2 -24 -36 -37 -24 -12
-11 -18 -4 -25 -37 -38 -24 -13
-9 -18 -3 -25 -36 -36 -24 -12
-10 -18 -2 -24 -34 -35 -24 -9
-10 -18 -2 -23 -35 -36 -24 -11
-10 -16 -4 -24 -36 -36 -24 -1
-11 -18 -5 -24 -38 -38 -25 -8
-12 -17 -4 -23 -39 -38 -25 -15
-12 -16 -4 -23 -38 -38 -25 -16
-14 -18 -2 -21 -38 -39 -23 -17
-12 -19 -3 -22 -40 -40 -25 -21
-13 -18 -3 -22 -38 -40 -24 -17
-11 -16 -2 -22 -38 -39 -23 -12
-9 -16 -2 -21 -37 -38 -23 -12
-9 -16 -3 -21 -38 -38 -22 -7
-10 -14 -2 -22 -39 -38 -21 -12
-8 -14 -2 -22 -39 -38 -21 -12
-10 -15 -2 -20 -39 -38 -21 -10
-10 -15 -1 -21 -38 -38 -21 -14
-11 -17 -1 -20 -39 -39 -21 -14
-11 -18 -1 -19 -39 -41 -23 -14
-11 -17 2 -15 -35 -39 -22 -11
-12 -18 8 -7 -30 -38 -23 -14
-10 -18 16 9 -22 -38 -25 -16
-12 -17 26 23 -15 -36 -27 -21
-14 -13 37 38 -8 -34 -28 -10
-12 -9 46 57 4 -29 -25 -7
-11 -6 54 86 21 -19 -19 -13
-3 -1 67 129 50 0 -6 -15
8 15 76 168 86 30 18 -2
18 32 82 193 119 63 47 18
28 50 93 208 147 95 76 38
36 65 103 210 169 127 104 57
47 88 104 188 190 167 141 80
60 123 98 145 214 220 190 114
73 149 76 79 224 269 239 145
82 170 49 -13 216 313 282 175
89 194 23 -93 212 357 324 207
96 214 -8 -160 204 393 362 232
96 237 -40 -227 193 424 395 260
91 251 -72 -284 175 447 416 280
80 254 -97 -328 153 456 422 283
65 246 -125 -370 125 449 409 277
48 210 -146 -396 81 399 356 243
29 166 -156 -406 18 301 272 190
12 117 -152 -396 -40 178 172 136
-6 75 -143 -382 -95 62 77 82
-23 56 -130 -370 -148 -26 15 58
-34 42 -125 -354 -195 -81 -20 35
-41 27 -124 -330 -223 -115 -43 13
-38 18 -120 -295 -216 -118 -49 7
-31 8 -111 -252 -189 -105 -46 -1
-26 -6 -96 -209 -160 -97 -46 -16
-23 -17 -82 -173 -140 -91 -45 -20
-21 -22 -71 -143 -124 -86 -44 -26
-18 -21 -56 -112 -107 -78 -39 -24
-16 -20 -43 -87 -94 -72 -35 -18
-14 -17 -32 -67 -81 -65 -32 -17
-11 -13 -21 -49 -70 -58 -29 -19
-11 -15 -12 -34 -60 -56 -27 -17
-8 -14 -8 -27 -55 -54 -27 -22
-6 -16 -4 -21 -49 -51 -26 -23
-6 -19 -2 -17 -47 -51 -25 -19
-6 -19 -2 -14 -46 -50 -24 -23
-8 -19 -3 -12 -46 -50 -25 -16
-10 -20 -2 -6 -45 -49 -24 -23
-7 -19 -1 -2 -45 -50 -25 -24
-8 -19 0 -1 -45 -51 -27 -26
-8 -21 2 1 -42 -52 -28 -26
-8 -22 6 4 -36 -51 -28 -17
-8 -24 5 2 -35 -51 -29 -22
-7 -22 5 1 -30 -48 -27 -31
-6 -22 4 2 -27 -46 -26 -34
-7 -22 4 2 -26 -44 -25 -32
-5 -21 2 2 -27 -41 -23 -31
-8 -21 1 4 -26 -38 -23 -30
-6 -21 1 7 -26 -37 -24 -30
-6 -20 2 9 -24 -36 -24 -37
-8 -23 4 9 -23 -35 -24 -41
-7 -22 5 11 -19 -35 -24 -38
-6 -23 5 11 -17 -32 -23 -32
-5 -22 5 10 -13 -29 -23 -33
-2 -19 4 11 -9 -25 -21 -28
-2 -21 5 12 -9 -22 -20 -24
-1 -19 6 13 -9 -19 -18 -31
-1 -16 8 16 -7 -16 -18 -25
0 -18 8 18 -9 -16 -19 -26
-1 -18 11 20 -8 -16 -19 -25
-2 -19 12 20 -9 -17 -20 -19
-4 -21 14 21 -6 -19 -21 -18
-2 -22 13 20 -4 -18 -21 -25
-3 -21 13 20 -3 -18 -20 -24
1 -19 12 20 -3 -18 -19 -21
-1 -21 12 21 -1 -18 -17 -21
-4 -20 11 21 -3 -19 -17 -21
-2 -17 12 25 -1 -18 -15 -14
2 -16 12 28 -2 -21 -16 -15
1 -14 13 30 -2 -23 -17 -23
1 -17 15 32 -1 -26 -17 -21
-3 -20 13 32 -2 -32 -20 -29
-2 -21 15 32 -1 -33 -19 -25
1 -19 14 32 0 -34 -18 -16
-1 -19 13 32 -1 -36 -17 -20
-1 -17 12 33 -2 -38 -16 -27
-1 -17 12 34 -4 -37 -15 -24
-1 -16 12 37 -5 -36 -15 -33
2 -14 12 40 -5 -37 -14 -24
1 -16 14 43 -4 -37 -15 -28
2 -17 15 44 -4 -37 -15 -27
-1 -19 15 46 -2 -38 -16 -28
1 -20 15 45 -3 -39 -17 -29
2 -18 15 46 0 -37 -14 -34
1 -17 14 46 2 -36 -13 -36
1 -17 13 48 3 -36 -13 -33
1 -17 13 51 4 -31 -11 -29
1 -16 12 54 6 -29 -11 -28
5 -15 14 57 7 -27 -10 -30
4 -15 16 61 9 -24 -9 -31
4 -15 16 63 10 -24 -10 -36
7 -14 16 65 14 -24 -11 -41
7 -15 18 67 19 -19 -8 -33
8 -15 16 67 20 -18 -8 -28
8 -14 16 68 22 -15 -6 -31
7 -14 15 70 23 -15 -5 -35
8 -12 14 73 24 -10 -3 -33
8 -13 15 78 28 -8 -1 -32
11 -11 14 81 28 -7 -2 -32
12 -9 17 87 33 -2 0 -25
12 -10 17 90 36 -1 0 -26
13 -9 19 94 41 1 2 -28
16 -9 19 96 46 3 3 -26
15 -9 18 97 49 6 5 -18
18 -8 18 99 53 9 8 -14
17 -7 17 101 56 12 11 -11
18 -6 14 103 57 16 13 -16
20 -3 13 108 61 18 15 -16
21 -3 14 112 64 22 17 -21
22 -2 15 116 68 23 19 -20
24 -1 15 121 72 25 21 -16
24 -1 15 123 76 28 22 -17
28 1 15 124 81 31 25 -14
28 2 14 124 85 36 29 -8
29 3 11 124 86 38 31 -4
30 5 9 124 89 41 35 -12
30 5 7 124 87 44 37 -12
32 8 6 125 88 46 40 -9
33 10 4 127 90 48 42 -5
32 9 4 128 88 49 42 0
32 10 4 129 89 51 45 1
33 12 4 128 92 52 45 -1
36 12 4 126 94 53 47 -1
37 14 3 124 95 56 49 3
36 15 0 120 93 55 50 4
36 16 -1 118 92 57 51 13
38 18 -3 118 90 61 54 11
39 21 -2 119 90 60 56 3
39 22 -3 119 87 59 56 7
37 19 -5 117 84 57 54 10
37 19 -5 116 82 56 55 10
37 21 -3 114 83 56 54 9
36 19 -4 111 82 54 54 7
37 21 -3 108 83 55 55 9
36 22 -4 104 82 54 56 9
35 23 -5 100 79 53 56 0
36 25 -6 98 76 53 57 10
34 27 -6 95 72 51 55 5
34 27 -7 93 68 49 53 4
32 26 -5 90 65 47 52 0
29 22 -5 85 60 42 48 -7
27 23 -2 81 58 39 46 -5
25 21 -2 75 54 35 44 -10
21 18 -2 70 50 32 41 -15
22 18 -2 65 48 29 40 -21
21 18 -1 60 44 26 37 -17
20 20 -1 57 40 25 36 -19
19 21 1 54 36 23 35 -20
17 20 1 52 31 19 31 -27
17 19 2 47 27 15 28 -27
13 16 3 44 23 10 24 -29
9 13 4 40 21 6 20 -31
11 13 5 35 17 4 17 -28
9 11 6 32 15 3 16 -31
6 11 4 27 12 0 14 -29
5 10 5 23 8 -2 11 -35
2 11 5 21 6 -3 10 -37
3 11 7 21 3 -4 9 -32
2 8 6 19 0 -7 5 -32
1 5 7 16 -3 -9 3 -31
2 6 9 15 -3 -10 1 -29
1 4 10 14 -3 -11 -1 -30
-1 3 9 12 -5 -13 -2 -32
-1 2 10 8 -7 -13 -4 -27
-5 0 9 6 -8 -15 -6 -17
-5 1 9 4 -8 -15 -6 -20
-6 0 8 4 -10 -15 -6 -18
-6 0 8 4 -12 -16 -6 -21
-6 1 8 5 -12 -17 -8 -19
-7 -1 9 3 -13 -17 -9 -19
-7 -2 10 3 -13 -17 -10 -17
-6 -1 11 3 -11 -18 -10 -18
-7 -4 10 2 -12 -20 -12 -27
-7 -3 10 0 -11 -18 -11 -23
-9 -4 10 -1 -12 -19 -11 -23
-9 -4 9 -2 -13 -21 -11 -22
-9 -3 8 -2 -14 -20 -11 -16
-11 -4 8 -2 -15 -20 -11 -13
-11 -3 9 -1 -18 -22 -13 -23
-10 -2 9 0 -16 -23 -13 -28
-10 -3 10 0 -16 -24 -13 -26
-9 -2 12 1 -13 -23 -12 -18
-7 -4 11 0 -13 -22 -13 -21
-8 -4 10 -3 -13 -23 -14 -20
-9 -4 11 -2 -12 -23 -13 -19
-13 -6 10 -3 -12 -24 -13 -22
-11 -5 9 -2 -13 -23 -12 -19
-11 -3 10 -3 -13 -23 -13 -21
-14 -6 10 -2 -14 -24 -13 -19
-12 -5 11 -1 -14 -23 -13 -22
-9 -3 11 0 -12 -22 -13 -21
-10 -3 13 0 -10 -21 -13 -20
-10 -3 14 1 -9 -18 -13 -25
-11 -5 13 0 -8 -15 -12 -23
-10 -4 12 -1 -8 -16 -12 -23
-9 -2 12 0 -6 -13 -10 -18
-9 -3 10 -1 -9 -13 -11 -22
-8 -1 11 0 -9 -13 -11 -23
-10 -2 12 2 -8 -13 -10 -17
-10 -3 13 3 -8 -13 -10 -23
-9 -2 13 3 -7 -13 -12 -12
-11 -2 14 3 -5 -12 -12 -10
-9 -2 13 3 -4 -12 -12 -19
-9 -3 13 2 -4 -11 -11 -7
-9 -3 12 1 -4 -12 -11 -14
-7 -1 12 1 -4 -11 -10 -3
-6 0 11 1 -6 -11 -10 -3
-8 -2 11 3 -6 -11 -9 -5
-8 -2 11 4 -8 -14 -10 -9
-11 -4 10 3 -11 -16 -12 -11
-11 -3 11 5 -10 -15 -11 -13
-9 -2 12 5 -10 -16 -11 -5
-12 -3 11 4 -10 -18 -12 -10
-11 -3 11 4 -10 -17 -10 -14
-10 -2 12 4 -10 -18 -11 -11
-8 -2 11 4 -11 -18 -11 -12
-8 -4 11 5 -12 -17 -10 -15
-9 -4 11 5 -12 -17 -9 -14
-8 -1 12 6 -12 -18 -10 -9
-9 -1 12 7 -13 -17 -9 -14
-9 -1 13 7 -13 -18 -10 -12
-8 -1 14 7 -12 -19 -11 -6
-10 -3 14 7 -10 -19 -11 -18
-11 -5 13 5 -9 -18 -10 -17
-9 -3 12 4 -9 -19 -11 -15
-9 -1 11 4 -10 -18 -11 -13
-9 0 10 4 -9 -17 -9 -19
-8 1 12 5 -7 -16 -8 -16
-8 2 10 5 -9 -18 -11 -11
-8 3 11 6 -9 -17 -10 -11
-7 1 10 6 -8 -18 -10 -17
-8 -1 10 5 -9 -20 -12 -19
-8 -2 10 5 -9 -21 -13 -14
-10 -5 9 2 -11 -22 -13 -16
-9 -4 9 2 -10 -22 -12 -21
-9 -2 8 2 -11 -21 -11 -19
-9 0 7 1 -12 -21 -11 -13
-8 0 9 3 -11 -18 -10 -5
-10 0 9 4 -12 -19 -11 -12
-9 0 8 3 -15 -20 -11 -15
-7 0 10 4 -13 -19 -11 -15
-8 -2 10 3 -14 -20 -11 -9
-7 -1 9 2 -15 -21 -12 -11
-9 -4 8 0 -16 -21 -12 1
-11 -5 8 0 -16 -22 -12 -5
-11 -3 8 -1 -15 -22 -11 -8
-10 -4 7 -2 -17 -21 -12 -8
-10 -4 6 -2 -18 -22 -12 -13
-9 -2 7 0 -18 -22 -13 -16
-11 -3 7 -1 -19 -23 -12 -16
-12 -4 8 0 -19 -22 -12 -9
-13 -4 9 -1 -17 -23 -13 -11
-11 -3 8 -4 -17 -24 -14 -7
-9 -3 7 -5 -17 -24 -14 -4
-11 -6 7 -5 -16 -24 -14 -14
-10 -4 7 -5 -17 -23 -13 -5
-11 -4 5 -6 -17 -22 -14 -7
-14 -7 4 -7 -18 -24 -15 -9
-12 -5 6 -4 -18 -24 -15 -11
-11 -5 7 -4 -18 -23 -14 -7
-10 -5 6 -5 -17 -23 -15 -2
-8 -4 7 -5 -16 -22 -15 -10
-10 -5 7 -7 -16 -23 -16 -13
-9 -4 7 -8 -16 -21 -15 -5
-9 -5 7 -8 -14 -19 -15 -10
-10 -5 6 -9 -16 -20 -15 -2
-8 -5 5 -8 -16 -18 -14 1
-8 -6 5 -8 -16 -18 -16 4
-10 -5 5 -8 -17 -19 -16 0
-10 -5 6 -8 -17 -18 -15 1
-9 -6 5 -9 -17 -19 -17 -4
-8 -4 6 -9 -15 -18 -17 -3
-8 -3 6 -10 -15 -18 -18 -4
-9 -4 6 -10 -14 -15 -15 -9
-8 -3 6 -11 -13 -15 -16 0
-8 -3 5 -12 -14 -14 -17 -4
-8 -5 4 -13 -15 -13 -16 -9
-8 -7 4 -12 -15 -14 -17 -7
-9 -6 3 -12 -16 -16 -18 -8
-9 -4 5 -10 -15 -14 -16 -7
-9 -5 5 -10 -14 -14 -16 -10
-11 -7 5 -12 -15 -16 -19 -12
-11 -8 6 -13 -14 -15 -18 -5
-11 -8 7 -13 -13 -14 -17 -7
-9 -6 6 -13 -13 -15 -18 -12
-8 -5 7 -13 -13 -13 -18 3
-9 -5 5 -14 -13 -13 -17 4
-7 -4 6 -12 -14 -14 -17 8
-9 -5 7 -11 -15 -14 -17 0
-9 -4 7 -12 -15 -15 -18 -9
-8 -3 7 -11 -14 -16 -17 -8
-9 -5 8 -12 -15 -17 -19 -7
-10 -9 5 -14 -17 -20 -20 -10
-8 -7 6 -15 -16 -19 -20 -7
-10 -10 6 -15 -15 -20 -20 -11
-10 -7 5 -15 -17 -20 -19 -13
-10 -7 5 -14 -16 -18 -18 -7
-10 -7 5 -14 -17 -19 -18 -4
-9 -5 6 -12 -17 -19 -18 -6
-8 -4 5 -12 -18 -19 -19 -11
-7 -4 6 -10 -16 -19 -19 -7
-6 -4 7 -12 -16 -21 -20 -3
-8 -6 7 -12 -17 -21 -19 0
-7 -5 6 -15 -18 -21 -20 -4
-7 -5 6 -14 -16 -21 -19 -9
-6 -3 5 -15 -17 -21 -18 0
-4 1 7 -12 -14 -17 -15 2
-5 5 11 -7 -12 -15 -14 4
-3 10 16 -3 -9 -11 -12 3
-2 14 19 0 -7 -8 -10 7
-1 14 19 1 -5 -9 -10 10
0 14 19 0 -5 -10 -11 8
-1 13 19 0 -5 -9 -11 5
-4 13 20 0 -3 -10 -10 1
-6 13 22 1 -2 -8 -10 11
-7 15 22 2 0 -7 -8 7
-6 16 21 -1 -3 -9 -10 11
-5 16 19 0 -3 -7 -9 11
-6 16 14 -3 -5 -8 -11 8
-1 20 10 -6 -7 -9 -10 9
1 19 7 -7 -5 -9 -11 15
1 18 4 -9 -5 -9 -12 9
4 19 3 -11 -5 -8 -10 9
4 17 -1 -13 -6 -9 -11 1
4 18 -1 -12 -3 -7 -9 6
4 19 0 -11 -2 -5 -7 10
2 20 -2 -11 -3 -4 -6 7
3 22 -1 -10 -3 -4 -6 9
2 25 0 -9 -3 -4 -6 26
0 27 3 -8 -3 -2 -5 28
1 27 4 -8 -2 -2 -5 16
1 25 4 -8 -1 -2 -6 10
3 24 2 -9 -1 -3 -5 13
5 23 2 -9 1 -2 -5 15
4 19 0 -12 0 -1 -6 12
6 16 -2 -12 -3 -3 -7 4
5 14 -3 -14 -5 -4 -6 4
3 12 -4 -14 -6 -6 -8 11
1 10 -3 -13 -6 -5 -9 9
2 8 -3 -13 -8 -7 -9 13
2 7 -4 -15 -11 -9 -12 16
0 3 -5 -17 -10 -11 -14 6
-3 1 -4 -20 -13 -12 -16 9
-3 1 -3 -21 -13 -13 -17 1
-5 -2 -3 -22 -14 -14 -19 -4
-8 -4 -3 -24 -17 -17 -22 -8
-9 -6 -2 -23 -17 -15 -22 0
-10 -8 -3 -22 -17 -17 -24 -7
-10 -9 -2 -22 -18 -17 -24 -3
-10 -11 -3 -23 -21 -20 -25 -9
-12 -13 -3 -25 -23 -22 -27 -17
-12 -14 -3 -24 -22 -22 -28 -14
-12 -14 -3 -27 -22 -22 -29 -9
-12 -14 -4 -27 -22 -22 -29 -13
-9 -13 -3 -26 -20 -21 -28 -14
-11 -13 -5 -27 -22 -21 -28 -13
-11 -13 -4 -28 -22 -20 -28 -18
-11 -14 -5 -27 -22 -21 -28 -9
-13 -15 -5 -27 -24 -22 -29 -12
-13 -14 -5 -27 -25 -23 -29 -11
-13 -16 -5 -26 -25 -22 -29 -12
-15 -17 -5 -25 -24 -23 -30 -8
-14 -14 -3 -25 -23 -22 -29 -10
-15 -14 -4 -27 -23 -22 -28 -19
-14 -13 -4 -26 -22 -22 -28 -12
-13 -12 -4 -25 -21 -20 -27 -10
-12 -11 -5 -26 -23 -22 -27 -12
-10 -10 -4 -25 -23 -22 -27 -15
-10 -10 -4 -24 -23 -21 -27 -15
-13 -11 -4 -24 -25 -20 -27 -14
-12 -11 -4 -24 -24 -21 -27 -14
-14 -11 -4 -23 -24 -23 -28 -10
-15 -11 -4 -23 -23 -22 -27 -7
-15 -11 -5 -23 -23 -22 -27 -1
-11 -10 -5 -23 -21 -21 -26 -10
-9 -8 -3 -22 -20 -20 -24 -15
-10 -10 -4 -22 -21 -21 -26 -9
-14 -13 -2 -19 -20 -21 -27 -12
-12 -12 4 -10 -15 -20 -28 -21
-15 -13 13 5 -9 -19 -31 -14
-16 -11 23 20 0 -18 -33 -18
-20 -9 35 35 8 -17 -33 -18
-21 -6 42 51 17 -12 -31 -19
-16 -4 51 78 35 -1 -24 -18
-8 0 61 117 62 18 -11 -22
4 18 68 154 96 46 13 -10
16 40 75 182 131 84 46 13
26 54 84 202 158 114 73 35
38 69 96 211 182 146 100 52
49 92 98 202 210 189 138 74
60 125 94 171 238 238 185 106
76 150 77 117 254 286 231 140
83 171 52 29 250 326 273 168
92 195 25 -61 242 366 315 199
99 217 -5 -139 232 399 352 225
95 239 -39 -213 218 428 384 257
90 253 -69 -273 201 450 405 271
80 255 -95 -317 179 457 408 275
65 247 -123 -357 153 447 392 266
49 213 -142 -384 109 396 339 235
29 167 -151 -395 45 294 253 182
12 115 -148 -385 -14 173 152 129
-6 77 -137 -372 -65 68 66 79
-26 56 -125 -365 -121 -11 7 47
-36 42 -124 -352 -170 -63 -27 22
-45 28 -124 -329 -197 -93 -47 0
-42 18 -119 -293 -191 -94 -50 -7
-34 10 -110 -250 -165 -83 -47 -14
-30 -3 -96 -207 -139 -77 -49 -10
-24 -11 -83 -171 -118 -70 -48 -21
-21 -16 -69 -140 -103 -66 -47 -33
-17 -17 -55 -111 -88 -60 -44 -31
-13 -13 -42 -87 -72 -53 -38 -21
-12 -12 -31 -66 -60 -44 -35 -16
-13 -11 -22 -49 -49 -39 -31 -18
-12 -10 -14 -36 -40 -36 -30 -21
-13 -13 -11 -29 -36 -35 -29 -28
-12 -15 -7 -22 -33 -33 -28 -31
-12 -16 -5 -17 -30 -33 -27 -24
-12 -17 -4 -13 -29 -32 -27 -25
-10 -15 -5 -12 -29 -32 -27 -30
-9 -16 -4 -8 -28 -32 -28 -32
-9 -16 -2 -6 -27 -33 -29 -21
-9 -16 0 -4 -25 -31 -28 -19
-8 -17 1 -4 -24 -33 -30 -24
-7 -18 1 -2 -21 -32 -31 -29
-8 -20 2 -1 -17 -31 -31 -28
-9 -20 2 -1 -15 -29 -29 -26
-9 -20 3 0 -12 -25 -28 -31
-8 -20 1 0 -12 -23 -29 -37
-7 -18 0 1 -12 -22 -27 -37
-7 -17 1 4 -9 -18 -26 -36
-8 -19 0 6 -8 -17 -26 -42
-7 -18 1 6 -8 -15 -26 -37
-7 -18 1 6 -7 -14 -26 -40
-7 -19 2 7 -5 -13 -27 -43
-3 -17 3 8 -2 -10 -24 -36
-3 -17 2 9 1 -7 -24 -30
-3 -18 3 10 3 -6 -24 -31
-4 -18 2 11 4 -3 -24 -23
-7 -18 2 11 4 -2 -24 -23
-6 -17 4 13 4 -1 -24 -24
-5 -17 5 15 6 1 -23 -23
-4 -16 8 16 7 2 -23 -25
-1 -15 10 18 9 3 -22 -29
-4 -18 11 18 9 2 -23 -26
-5 -18 11 17 10 3 -23 -16
-4 -17 13 19 13 6 -19 -16
-2 -15 11 20 13 4 -20 -12
-2 -12 10 21 13 3 -20 -21
-2 -14 10 22 13 3 -19 -16
0 -16 9 23 12 0 -20 -25
0 -16 8 24 12 -3 -22 -20
-4 -19 8 25 11 -7 -23 -19
-5 -19 10 27 11 -9 -22 -26
-2 -17 11 29 13 -11 -22 -30
-1 -16 10 28 12 -14 -22 -31
0 -14 11 28 14 -14 -20 -27
1 -14 10 31 14 -15 -20 -26
-1 -14 10 32 14 -15 -19 -25
-2 -14 9 33 12 -16 -18 -26
-2 -16 8 33 9 -19 -20 -28
0 -13 9 37 10 -18 -17 -27
0 -13 11 38 9 -18 -17 -24
0 -15 10 39 8 -22 -19 -31
0 -16 12 41 9 -21 -19 -37
0 -16 11 41 10 -20 -18 -32
1 -16 12 42 11 -21 -17 -33
3 -15 13 45 13 -19 -15 -33
2 -14 12 47 14 -17 -15 -29
4 -12 12 49 15 -15 -14 -30
7 -11 12 52 17 -13 -12 -25
5 -12 13 56 19 -11 -12 -28
6 -12 13 57 19 -11 -12 -23
6 -13 13 59 20 -11 -13 -15
5 -14 12 61 22 -11 -14 -31
9 -13 13 62 25 -8 -12 -29
9 -13 12 63 26 -6 -11 -23
11 -11 11 66 29 -4 -9 -23
10 -12 11 69 32 -1 -7 -23
11 -10 10 70 33 0 -6 -17
13 -8 12 76 36 3 -4 -19
14 -7 12 79 39 6 -3 -21
14 -6 12 82 41 9 -2 -20
14 -7 13 84 44 10 -2 -23
13 -11 13 88 47 11 -1 -22
14 -10 14 90 50 14 2 -14
17 -8 12 91 53 15 2 -9
17 -10 11 94 57 17 4 -15
19 -7 11 96 60 20 6 -6
20 -4 11 100 64 25 11 -8
23 -2 10 104 67 27 13 -8
27 -2 11 108 71 31 16 -2
25 -1 9 109 72 34 17 -1
27 1 9 111 75 35 18 -10
26 -1 9 113 79 37 20 -5
28 1 8 115 80 40 24 -4
30 4 5 113 83 43 25 1
30 3 2 114 83 44 28 0
32 4 1 115 85 46 31 -5
35 9 1 116 87 49 35 6
36 9 -1 116 88 50 35 15
38 11 -2 117 89 52 38 15
37 10 -2 118 90 58 41 8
39 12 -3 116 89 57 41 10
43 14 -3 116 91 58 44 13
42 13 -4 114 90 60 47 10
39 13 -6 111 88 60 48 19
41 15 -8 111 89 61 49 17
39 16 -10 109 86 60 49 12
39 18 -10 108 84 60 51 16
40 19 -10 108 83 59 52 24
42 18 -11 108 82 58 53 18
44 20 -10 106 81 60 52 14
41 21 -10 105 79 59 52 13
43 21 -10 103 79 57 52 15
46 23 -10 100 78 57 53 13
43 23 -11 96 75 55 52 28
43 23 -13 94 73 53 52 16
40 22 -13 92 71 51 54 6
39 23 -13 89 67 49 54 5
39 24 -12 89 65 48 53 9
35 22 -12 86 62 44 52 12
33 21 -11 83 58 42 50 6
34 23 -9 79 55 40 49 2
32 22 -9 75 52 36 46 -3
32 22 -8 71 50 34 45 -3
32 23 -8 64 46 31 42 -5
29 22 -7 62 44 29 41 -6
28 22 -7 57 41 27 39 -8
24 20 -6 53 35 25 37 -14
23 20 -4 50 32 19 32 -18
21 19 -3 48 29 14 29 -18
17 16 -2 45 25 12 28 -18
16 14 0 41 21 9 24 -20
15 13 1 37 19 6 20 -21
13 13 2 34 18 4 20 -23
12 13 4 30 17 4 18 -22
10 11 4 27 14 1 15 -22
10 10 3 25 11 -1 13 -21
11 12 4 22 8 -2 12 -19
7 10 5 20 7 -4 9 -18
6 8 6 20 5 -5 7 -18
4 5 7 18 3 -7 5 -20
2 2 6 14 0 -11 1 -22
1 2 9 14 1 -11 0 -17
0 1 7 11 0 -12 -1 -18
2 2 9 8 -1 -13 -2 -19
0 1 9 8 -1 -14 -3 -17
0 2 7 6 -3 -15 -4 -18
2 5 7 4 -5 -15 -4 -16
2 3 7 4 -5 -16 -6 -8
0 0 8 4 -6 -16 -8 -11
-1 0 8 3 -8 -17 -10 -21
-2 -2 8 2 -10 -19 -11 -14
-2 -3 8 1 -10 -20 -12 -5
-3 -4 9 1 -8 -19 -11 -13
-4 -4 7 -1 -9 -20 -13 -12
-5 -5 8 -1 -8 -21 -12 -11
-5 -5 8 -1 -8 -20 -12 -18
-4 -2 8 -2 -10 -20 -11 -18
-3 -2 8 -1 -9 -19 -11 -16
-4 -3 8 -1 -9 -20 -11 -17
-3 -3 9 -1 -10 -20 -12 -15
-4 -3 9 -3 -12 -22 -13 -15
-4 -4 9 -2 -12 -23 -14 -18
-5 -5 10 -3 -10 -22 -13 -16
-6 -5 8 -5 -11 -23 -15 -17
-4 -4 7 -5 -11 -24 -14 -23
-3 -4 7 -4 -10 -22 -13 -22
-3 -2 7 -5 -11 -21 -13 -23
-4 -4 7 -4 -10 -20 -13 -24
-6 -5 8 -4 -8 -19 -13 -21
-6 -4 10 -1 -7 -18 -12 -22
-4 -3 11 0 -6 -16 -11 -23
-2 -4 11 0 -5 -15 -11 -18
-2 -3 9 -3 -7 -14 -13 -22
-3 -4 8 -3 -7 -12 -12 -14
-6 -6 9 -2 -7 -12 -12 -18
-4 -4 9 -2 -7 -12 -11 -14
-3 -3 9 -2 -7 -9 -11 -15
-2 -2 9 -1 -6 -9 -11 -14
-2 -1 11 2 -4 -5 -10 -19
-4 -3 11 2 -5 -7 -11 -20
-3 -3 12 2 -4 -8 -10 -12
-1 -2 12 3 -3 -7 -9 -9
-2 -2 11 1 -2 -7 -10 -15
-3 -3 12 1 -1 -7 -9 -11
-4 -3 11 1 -1 -8 -8 -10
-5 -3 11 1 -3 -8 -8 -10
-3 -1 9 2 -4 -9 -8 -7
-4 -3 9 2 -6 -11 -9 -11
-5 -4 8 4 -6 -13 -10 -16
-4 -3 9 4 -7 -13 -9 -17
-4 -4 9 4 -9 -15 -11 -15
-3 -4 11 5 -7 -14 -10 -13
-3 -2 10 4 -8 -14 -11 -8
-2 -2 10 3 -8 -14 -10 -15
-2 -1 11 3 -8 -13 -10 -10
-5 -3 9 3 -9 -15 -12 -14
-4 -1 9 3 -10 -15 -12 -13
-3 -2 11 5 -9 -14 -10 -11
-4 -2 12 5 -10 -14 -9 -13
-4 -2 12 6 -9 -13 -8 -12
-4 -2 11 6 -9 -14 -9 -18
-5 -4 13 6 -8 -13 -8 -15
-3 -2 11 4 -7 -13 -9 -15
-4 -3 10 6 -6 -10 -7 -18
-3 -1 12 6 -4 -10 -7 -13
0 0 13 6 -2 -7 -6 -3
-3 0 12 6 -3 -6 -7 -9
-4 -1 13 7 -3 -9 -7 -2
-4 -1 11 7 -3 -11 -8 -5
-4 -3 11 8 -5 -12 -8 -15
-4 -1 12 7 -4 -13 -8 -16
-5 -1 13 8 -5 -13 -7 -11
-2 1 12 6 -4 -13 -8 -5
-3 0 12 5 -4 -12 -8 -7
-5 -1 13 5 -4 -12 -7 -12
-2 0 11 4 -6 -12 -8 -12
-1 0 10 4 -7 -11 -8 -9
-2 -2 11 4 -8 -13 -8 -6
-2 1 12 5 -8 -13 -6 9
-5 0 11 4 -11 -14 -8 -4
-4 0 12 5 -11 -14 -8 -14
-3 0 13 6 -10 -14 -9 0
-5 1 11 3 -11 -13 -9 -5
-4 0 10 2 -12 -13 -7 -5
-5 -1 11 2 -11 -12 -7 -16
-4 -1 9 2 -12 -13 -7 -17
-1 3 10 1 -12 -11 -7 -9
-3 1 10 2 -12 -13 -8 -9
-3 0 10 2 -11 -14 -9 -13
-5 -2 11 1 -12 -15 -10 -10
-7 -2 12 1 -12 -16 -11 -14
-6 -2 12 0 -12 -16 -11 -11
-7 -3 11 -1 -12 -15 -11 -8
-7 -3 11 -2 -12 -14 -12 -9
-5 -1 13 -1 -10 -12 -9 -8
-6 -2 10 -3 -12 -13 -11 -10
-6 -2 11 -2 -12 -12 -10 -17
-7 -2 11 -1 -10 -11 -9 -5
-7 -3 11 -1 -10 -11 -10 -11
-4 0 12 -2 -10 -10 -9 -8
-4 -1 10 -2 -10 -10 -10 -4
-3 -2 11 -4 -11 -9 -11 -9
-4 -2 10 -5 -10 -8 -10 -9
-6 -4 10 -6 -11 -9 -10 -4
-5 -4 11 -5 -10 -8 -10 -11
-5 -4 11 -7 -10 -7 -10 -10
-5 -3 10 -6 -10 -5 -10 -10
-3 -3 11 -4 -9 -4 -9 -8
-3 -4 10 -6 -11 -6 -11 -9
-4 -4 11 -8 -12 -7 -11 -10
-2 -3 10 -7 -11 -7 -12 -9
-3 -4 11 -7 -11 -5 -12 -12
-3 -4 11 -7 -10 -5 -12 -13
-6 -6 11 -7 -10 -4 -11 -8
-6 -5 9 -7 -11 -6 -12 -12
-5 -4 10 -7 -11 -4 -11 -11
-5 -4 9 -8 -12 -5 -11 -13
-6 -4 8 -8 -13 -6 -12 -18
-6 -3 10 -7 -13 -6 -11 -17
-6 -4 10 -8 -13 -7 -12 -16
-5 -3 11 -7 -13 -6 -13 -12
-5 -4 12 -7 -11 -6 -13 -10
-5 -5 11 -9 -13 -6 -13 -11
-5 -5 12 -10 -13 -5 -12 -12
-7 -7 11 -10 -12 -6 -12 -14
-7 -6 11 -11 -12 -5 -12 -16
-8 -8 12 -10 -12 -5 -12 -22
-9 -9 11 -9 -13 -7 -12 -12
-7 -8 12 -8 -14 -8 -13 -10
-6 -6 12 -9 -15 -9 -13 -22
-6 -6 12 -9 -14 -8 -13 -23
-3 -5 12 -9 -13 -8 -13 -26
-4 -5 11 -10 -12 -7 -13 -21
-6 -8 12 -11 -13 -8 -13 -20
-6 -7 12 -10 -12 -7 -12 -16
-7 -6 12 -10 -12 -7 -11 -17
-4 -5 12 -11 -12 -7 -11 -17
-5 -6 12 -11 -14 -8 -12 -16
-6 -5 11 -9 -13 -9 -12 -12
-5 -4 14 -8 -13 -7 -11 -13
-5 -5 13 -8 -13 -8 -13 -17
-3 -2 14 -8 -13 -7 -13 -10
-4 -2 14 -8 -11 -6 -12 -12
-4 -3 14 -10 -11 -6 -12 -16
-2 2 17 -6 -7 -2 -10 -10
-1 7 19 -4 -5 1 -7 -14
-1 11 22 -1 -3 3 -6 -9
1 11 25 2 -2 4 -5 -7
-1 9 25 3 -2 2 -6 -6
-1 10 26 3 -1 4 -5 -3
-2 11 27 5 0 6 -5 -3
-5 8 29 5 0 5 -5 -9
-4 9 29 5 0 4 -5 -9
-2 12 29 5 1 5 -4 -5
-2 14 30 7 4 8 -2 -10
-3 16 28 3 3 9 -3 -5
-3 15 25 0 1 8 -4 3
0 16 18 -3 -1 6 -5 8
2 16 15 -5 -2 6 -4 3
3 15 13 -6 -3 7 -3 4
6 16 9 -5 -2 8 -3 4
5 15 9 -5 -1 8 -1 -3
4 17 9 -5 0 9 0 2
4 20 10 -4 2 11 3 3
4 21 10 -5 3 11 2 3
5 23 10 -4 4 13 4 10
5 26 12 -3 5 14 5 8
3 24 12 -3 5 14 5 9
3 23 14 -3 5 14 4 16
5 24 13 -4 5 15 5 13
7 23 13 -3 5 15 5 13
9 22 11 -4 4 15 3 6
8 18 11 -6 2 12 2 -2
8 17 10 -7 0 11 2 0
7 15 8 -9 -1 10 1 3
6 14 7 -9 -2 9 1 -2
7 13 7 -9 -2 10 1 5
5 9 7 -8 -2 10 0 3
3 6 9 -7 -2 10 -1 1
3 4 8 -11 -5 7 -4 -7
0 0 8 -12 -8 3 -7 -8
-1 -2 9 -13 -10 2 -9 -12
-5 -4 10 -15 -12 0 -11 -13
-7 -7 9 -17 -14 -2 -13 -21
-6 -7 11 -16 -13 -3 -14 -19
-9 -10 11 -15 -13 -3 -14 -12
-9 -11 10 -17 -16 -5 -15 -21
-7 -11 9 -17 -17 -6 -16 -22
-8 -13 9 -18 -20 -8 -19 -24
-7 -14 10 -20 -19 -9 -19 -23
-8 -15 9 -20 -19 -10 -21 -27
-7 -16 9 -20 -19 -10 -21 -35
-7 -15 10 -20 -20 -8 -19 -36
-9 -16 10 -21 -20 -9 -20 -37
-9 -17 9 -20 -20 -11 -21 -30
-10 -17 10 -20 -20 -9 -20 -32
-10 -18 9 -21 -21 -10 -20 -32
-10 -17 9 -20 -20 -10 -18 -32
-9 -16 10 -20 -20 -11 -19 -32
-8 -15 10 -20 -21 -12 -19 -31
-7 -15 10 -18 -19 -12 -20 -29
-9 -16 10 -19 -19 -12 -21 -35
-8 -16 11 -19 -19 -11 -19 -31
-7 -15 12 -19 -18 -10 -18 -27
-8 -16 11 -18 -19 -10 -18 -26
-8 -15 12 -18 -20 -10 -17 -21
-8 -15 11 -18 -21 -10 -16 -21
-8 -16 11 -17 -21 -11 -16 -28
-9 -15 11 -15 -20 -11 -16 -22
-8 -13 11 -16 -22 -13 -15 -31
-6 -11 10 -15 -22 -12 -15 -27
-8 -13 12 -15 -20 -12 -16 -28
-8 -13 11 -16 -21 -14 -16 -31
-6 -13 12 -16 -21 -13 -15 -31
-5 -13 12 -14 -19 -13 -16 -25
-6 -15 13 -13 -19 -13 -16 -21
-8 -16 15 -8 -16 -12 -17 -25
-11 -20 22 4 -11 -13 -21 -34
-11 -18 33 22 -1 -11 -22 -42
-13 -16 43 34 7 -10 -24 -36
-14 -15 51 49 14 -8 -24 -32
-10 -13 58 67 25 -2 -21 -34
-5 -10 66 98 47 12 -11 -34
6 2 74 140 82 41 12 -21
20 24 79 172 117 77 44 -1
29 42 84 194 145 109 71 15
38 56 96 214 170 139 99 35
47 72 102 219 195 176 131 54
58 101 96 197 218 222 176 83
71 133 86 155 239 273 227 120
81 155 71 102 252 323 274 150
87 180 47 18 250 370 323 188
95 204 23 -64 239 412 367 225
96 226 -4 -139 223 446 403 249
95 249 -34 -205 209 476 431 272
87 255 -52 -252 191 492 440 285
73 248 -65 -290 161 490 432 276
56 223 -77 -322 121 455 390 252
32 184 -89 -352 54 365 307 201
13 136 -99 -362 -16 238 201 144
-2 90 -94 -348 -69 116 98 90
-23 61 -81 -339 -118 16 24 49
-41 49 -68 -335 -168 -48 -18 29
-51 39 -64 -320 -198 -84 -41 9
-49 30 -71 -296 -204 -93 -47 -5
-43 22 -71 -263 -183 -83 -45 -11
-37 9 -66 -224 -157 -71 -42 -21
-31 -3 -57 -183 -132 -63 -40 -19
-24 -11 -47 -149 -111 -55 -37 -17
-21 -16 -41 -126 -99 -54 -36 -25
-18 -18 -31 -102 -87 -51 -34 -25
-16 -18 -21 -79 -73 -44 -29 -14
-14 -16 -13 -62 -64 -39 -26 -16
-11 -14 -7 -47 -54 -37 -25 -27
-10 -15 -2 -36 -48 -35 -24 -28
-10 -17 2 -28 -44 -33 -23 -29
-8 -17 5 -22 -39 -31 -22 -24
-6 -19 6 -16 -36 -31 -22 -22
-4 -16 7 -12 -35 -29 -20 -22
-4 -16 8 -9 -34 -30 -19 -18
-4 -15 8 -6 -35 -31 -20 -22
-5 -15 8 -3 -33 -32 -20 -24
-7 -20 8 -2 -33 -34 -21 -17
-7 -22 10 0 -30 -35 -23 -13
-6 -22 12 2 -26 -33 -22 -25
-6 -23 12 2 -25 -33 -23 -28
-5 -23 13 1 -22 -31 -21 -22
-4 -21 12 1 -21 -30 -23 -20
-3 -20 11 2 -21 -27 -20 -21
-2 -19 10 3 -20 -25 -20 -24
-3 -19 10 5 -20 -26 -20 -29
-2 -18 10 7 -19 -23 -20 -25
-1 -16 11 9 -16 -20 -17 -30
-2 -19 11 10 -15 -22 -19 -31
-2 -20 11 9 -13 -22 -21 -31
-4 -23 11 9 -10 -19 -20 -27
-3 -21 11 8 -8 -17 -19 -23
0 -18 11 9 -6 -14 -17 -26
1 -18 11 10 -6 -11 -17 -25
2 -15 12 12 -4 -9 -16 -19
0 -15 14 14 -4 -8 -16 -10
-1 -18 14 16 -6 -9 -18 -9
0 -17 17 18 -3 -6 -14 -21
0 -18 18 18 -1 -6 -16 -23
0 -20 19 19 0 -6 -16 -14
0 -18 18 19 2 -4 -15 -12
0 -20 17 18 3 -4 -15 -10
0 -20 16 18 2 -6 -15 -20
-1 -19 16 18 2 -4 -14 -16
-2 -20 15 20 2 -6 -13 -12
0 -19 16 22 1 -8 -14 -3
-1 -19 16 25 0 -11 -14 0
-1 -20 18 28 2 -12 -13 0
2 -19 18 29 3 -15 -13 -9
2 -20 18 30 4 -17 -14 -9
2 -18 17 30 5 -17 -12 -8
-1 -18 16 29 5 -18 -11 -5
1 -16 15 30 3 -20 -11 1
4 -15 14 30 2 -22 -10 -5
2 -19 13 32 0 -23 -10 -5
2 -20 15 35 -1 -26 -12 -7
3 -18 13 37 0 -27 -12 -4
2 -19 13 39 1 -27 -12 -8
3 -18 15 42 4 -27 -11 -9
5 -18 15 41 6 -27 -12 -5
4 -19 14 42 9 -24 -10 -2
7 -16 14 41 12 -22 -9 -1
8 -15 13 43 13 -21 -8 -8
9 -14 10 43 11 -21 -8 1
9 -16 10 46 13 -19 -6 -2
7 -18 10 49 12 -21 -7 -10
8 -16 10 51 14 -22 -8 -12
10 -16 12 54 16 -19 -7 0
11 -15 13 56 19 -19 -9 4
12 -15 15 59 22 -15 -8 -2
11 -17 14 60 24 -13 -5 -5
13 -15 12 59 25 -11 -4 -5
17 -11 12 63 26 -8 -2 -5
16 -12 10 63 27 -6 2 -4
16 -11 10 66 27 -5 3 -6
16 -13 10 70 29 -4 5 -9
16 -12 9 72 28 -5 5 -11
17 -12 10 75 31 0 8 -4
17 -12 8 77 34 -2 6 -7
16 -15 7 79 35 0 7 -1
18 -13 8 82 39 4 10 5
20 -12 8 83 41 7 12 1
23 -8 9 88 46 11 16 -1
24 -6 7 89 49 14 19 -2
26 -6 4 90 50 15 21 3
30 -6 4 94 52 17 23 4
29 -6 1 96 52 19 24 3
31 -5 1 99 55 22 27 9
32 -5 0 101 60 22 28 8
30 -6 0 102 62 25 32 8
29 -5 -2 103 66 28 35 14
30 -5 -3 103 69 32 37 12
35 0 -6 104 71 34 39 5
38 3 -7 105 74 39 44 12
38 4 -9 105 75 40 46 10
40 5 -9 108 77 43 49 17
41 7 -9 109 78 45 52 22
43 7 -11 109 77 47 54 27
45 8 -10 108 79 46 54 23
43 6 -10 108 79 47 55 16
40 6 -14 105 78 46 56 27
41 8 -13 103 78 48 58 32
45 12 -15 101 78 48 58 27
47 15 -15 101 77 50 60 24
45 15 -16 100 77 49 60 27
44 13 -17 101 74 48 60 34
46 16 -17 101 73 48 60 38
46 15 -17 101 73 49 62 30
44 15 -18 98 72 45 59 27
44 16 -17 97 70 46 61 26
44 17 -18 94 68 44 60 32
44 18 -18 90 66 43 60 31
42 18 -17 90 66 43 61 24
39 18 -18 86 61 41 61 22
39 20 -18 83 57 37 58 28
39 18 -16 82 55 36 58 30
38 18 -16 81 52 34 56 24
36 17 -14 79 50 34 54 27
34 15 -12 77 48 29 52 24
34 15 -10 73 47 28 52 28
30 15 -10 69 44 25 49 23
28 15 -10 63 39 22 46 19
27 15 -10 59 34 18 43 18
25 13 -11 55 29 13 40 18
23 13 -10 52 26 9 37 15
22 13 -9 49 21 7 34 13
19 11 -7 47 18 4 31 5
17 10 -5 45 17 2 29 11
16 10 -3 40 13 -2 25 12
14 8 -3 38 12 -3 23 5
14 9 -2 34 8 -5 20 6
14 8 0 32 7 -5 18 10
12 8 -2 27 4 -8 14 8
10 7 -1 25 -1 -12 12 12
6 5 -1 22 -3 -15 10 8
5 4 0 21 -6 -16 8 1
4 2 0 20 -7 -18 6 2
3 2 1 18 -9 -20 5 2
3 2 3 16 -11 -22 2 10
3 -1 2 13 -12 -22 0 15
2 -1 2 11 -13 -23 0 5
3 -1 2 8 -13 -22 -1 6
2 -2 1 7 -14 -25 -3 9
2 -2 0 6 -16 -24 -3 8
0 -2 1 5 -17 -25 -4 6
-1 -4 1 5 -19 -26 -5 11
-1 -4 1 5 -20 -28 -5 11
-3 -5 0 3 -21 -29 -7 9
-3 -7 0 1 -22 -32 -10 6
-4 -8 1 3 -21 -30 -8 12
-5 -7 0 2 -21 -30 -9 6
-2 -5 1 2 -19 -28 -8 13
-1 -2 1 1 -18 -29 -9 11
-2 -2 0 0 -21 -30 -10 13
-2 -3 0 -1 -22 -30 -10 21
-4 -5 0 -1 -23 -32 -11 17
-4 -4 1 0 -22 -32 -11 12
-6 -6 1 0 -22 -33 -11 14
-8 -8 0 -1 -22 -35 -13 17
-8 -9 1 0 -20 -33 -12 10
-7 -7 2 0 -17 -31 -10 8
-6 -6 3 -1 -17 -30 -10 10
-4 -4 2 -2 -15 -30 -11 10
-4 -5 1 -3 -16 -28 -10 17
-6 -5 1 -2 -15 -27 -10 15
-4 -4 1 -2 -15 -24 -10 16
-3 -3 1 -1 -16 -23 -10 14
-4 -3 2 1 -17 -21 -9 11
-6 -5 2 2 -16 -22 -10 8
-7 -7 2 2 -18 -21 -10 16
-6 -6 2 2 -17 -20 -11 17
-7 -6 1 0 -17 -21 -11 11
-4 -3 1 2 -15 -20 -9 14
-4 -3 2 1 -15 -19 -10 25
-5 -4 2 2 -15 -19 -10 23
-4 -2 3 4 -15 -18 -9 26
-4 -3 3 5 -14 -19 -9 25
-6 -4 4 5 -16 -19 -9 28
-5 -4 2 5 -16 -20 -10 31
-6 -7 0 4 -18 -21 -10 32
-5 -5 0 3 -17 -21 -9 28
-6 -4 1 4 -16 -20 -9 24
-7 -5 0 4 -16 -21 -9 30
-4 -2 0 4 -18 -20 -8 27
-4 -1 0 5 -17 -20 -7 25
-4 -2 -2 6 -20 -21 -8 25
-3 -2 1 9 -18 -21 -7 23
-3 -3 0 8 -20 -23 -9 24
-3 -4 0 9 -20 -24 -10 19
-6 -5 1 8 -20 -23 -10 19
-7 -4 1 8 -20 -23 -9 16
-5 -1 1 8 -20 -23 -9 16
-7 -2 -1 8 -19 -22 -9 20
-7 -3 -1 7 -22 -23 -8 19
-5 -1 -2 8 -22 -22 -8 19
-5 -2 -2 8 -22 -23 -8 18
-3 -1 -1 9 -20 -23 -7 19
-3 -2 -1 10 -18 -21 -7 21
-5 -4 -1 10 -17 -22 -8 20
-3 -3 0 11 -14 -20 -7 23
-3 -2 -1 10 -12 -19 -6 24
-3 -2 -1 9 -14 -20 -5 31
-3 -1 -2 7 -13 -20 -6 25
-4 -2 -3 8 -15 -20 -7 21
-3 0 -2 8 -14 -21 -7 20
-3 -1 -2 9 -14 -21 -7 19
-2 0 -2 10 -15 -22 -6 23
-1 0 -3 10 -15 -21 -7 24
-2 -1 -3 10 -14 -22 -7 21
-2 0 -2 10 -16 -19 -7 22
-2 2 -3 9 -14 -17 -7 30
-3 1 -3 7 -15 -19 -7 21
-2 1 -4 7 -15 -19 -6 27
-3 1 -4 8 -16 -18 -5 28
-3 1 -5 6 -17 -18 -5 22
-2 0 -6 6 -17 -17 -5 22
-4 -1 -6 6 -17 -18 -5 27
-5 -2 -6 6 -19 -19 -5 21
-3 -1 -5 6 -17 -17 -6 17
-3 -2 -5 6 -16 -16 -5 24
-1 0 -6 4 -16 -15 -6 26
0 1 -6 4 -13 -13 -4 25
-3 0 -7 3 -13 -13 -5 18
-3 0 -7 3 -13 -12 -5 23
-2 1 -8 1 -14 -13 -6 24
0 1 -7 2 -14 -12 -5 24
-1 0 -8 2 -15 -13 -6 23
-3 -2 -8 2 -15 -12 -6 23
-5 -3 -8 1 -14 -14 -7 21
-3 -3 -8 1 -13 -12 -7 20
-1 0 -8 0 -12 -10 -7 15
-2 0 -6 0 -10 -8 -5 19
-4 -2 -7 -2 -10 -9 -6 18
-3 -1 -9 -2 -13 -9 -6 20
0 2 -9 -2 -12 -7 -6 27
-2 -1 -9 -3 -13 -8 -7 30
-4 -4 -8 -2 -14 -8 -7 27
-6 -5 -8 -2 -16 -8 -7 21
-7 -6 -7 -3 -15 -11 -8 14
-4 -4 -6 -2 -13 -9 -8 13
-4 -4 -6 -3 -15 -8 -8 15
-1 -1 -5 -3 -15 -8 -8 18
-1 -3 -6 -4 -15 -9 -8 23
-2 -3 -6 -4 -15 -7 -7 29
0 0 -7 -5 -16 -8 -7 17
0 -2 -6 -4 -15 -8 -8 22
-3 -2 -6 -3 -17 -8 -9 26
-3 -2 -5 -4 -17 -9 -10 27
-5 -5 -5 -5 -18 -14 -10 21
-4 -5 -4 -5 -18 -14 -10 16
-5 -5 -6 -5 -18 -13 -9 21
-5 -6 -5 -5 -18 -13 -9 24
-4 -4 -6 -6 -19 -15 -10 22
-4 -5 -6 -8 -19 -14 -9 26
-5 -5 -5 -7 -19 -15 -8 29
-4 -4 -3 -6 -18 -14 -8 23
-5 -5 -3 -5 -19 -15 -9 19
-4 -4 -1 -5 -19 -16 -9 19
-6 -5 -3 -5 -20 -18 -11 16
-5 -7 -3 -6 -21 -20 -12 8
-3 -5 -3 -7 -19 -19 -10 5
-3 -6 -4 -9 -21 -20 -12 3
-5 -8 -4 -10 -22 -22 -13 6
-5 -6 -4 -9 -21 -21 -11 7
-5 -7 -5 -9 -22 -21 -11 9
-3 -4 -3 -8 -22 -21 -11 4
-4 -4 -2 -5 -20 -20 -10 5
-5 -5 -2 -6 -20 -21 -11 4
-3 -5 -1 -6 -19 -22 -12 5
-2 -5 -3 -7 -19 -23 -14 1
-2 -5 -3 -6 -19 -22 -13 4
-2 -4 -3 -7 -19 -20 -12 6
-3 -2 -2 -6 -17 -19 -11 8
-2 4 0 -2 -16 -16 -8 5
0 10 6 1 -13 -14 -4 7
1 13 8 3 -12 -13 -4 9
1 15 10 6 -10 -11 -2 9
0 13 11 7 -9 -10 -2 11
2 14 11 8 -8 -11 -3 15
2 14 13 8 -6 -9 -3 14
1 13 12 6 -7 -10 -4 16
1 14 12 5 -7 -10 -1 10
-2 15 12 5 -6 -9 0 12
0 17 7 3 -10 -10 -1 9
1 17 4 0 -11 -10 -1 22
0 15 -2 -3 -12 -13 -2 20
-1 13 -5 -5 -13 -15 -4 12
3 15 -6 -4 -12 -13 -2 12
4 15 -8 -5 -11 -12 -1 11
8 18 -11 -5 -10 -11 -2 13
8 20 -10 -4 -7 -8 1 12
8 21 -10 -5 -8 -8 2 14
7 23 -9 -3 -5 -6 4 17
7 25 -9 -2 -7 -6 4 14
7 28 -9 -3 -7 -7 5 18
5 28 -7 -3 -6 -6 5 18
3 26 -7 -3 -8 -8 4 18
5 26 -7 -3 -7 -9 5 26
6 24 -8 -3 -7 -10 3 22
8 22 -9 -2 -6 -10 2 25
10 21 -8 -3 -7 -9 3 24
9 18 -10 -6 -9 -10 1 15
9 16 -10 -6 -10 -10 2 15
10 17 -11 -6 -11 -10 2 18
7 13 -11 -7 -12 -12 1 13
6 10 -11 -6 -13 -13 0 15
4 5 -11 -6 -14 -16 -3 14
2 4 -12 -8 -18 -20 -4 9
1 1 -12 -12 -20 -23 -7 2
-2 -3 -10 -13 -23 -24 -10 1
-2 -3 -10 -13 -23 -25 -10 8
-3 -5 -9 -14 -23 -26 -11 5
-6 -8 -8 -13 -23 -26 -12 1
-5 -8 -8 -14 -24 -27 -13 -4
-5 -10 -9 -15 -25 -27 -14 -7
-5 -11 -12 -16 -28 -29 -15 -8
-6 -13 -11 -16 -30 -33 -17 -9
-7 -15 -12 -18 -32 -36 -19 -13
-7 -15 -12 -19 -33 -37 -19 -12
-7 -16 -11 -18 -32 -36 -19 -7
-8 -17 -13 -20 -33 -36 -20 -9
-7 -16 -12 -20 -32 -36 -19 -8
-7 -15 -13 -20 -33 -35 -19 -8
-7 -15 -13 -20 -33 -36 -17 -14
-7 -15 -13 -19 -33 -35 -18 -14
-8 -16 -14 -19 -34 -33 -18 -9
-8 -16 -12 -17 -33 -34 -19 -1
-9 -17 -12 -17 -34 -36 -19 -8
-10 -19 -12 -17 -35 -38 -19 -12
-9 -17 -11 -17 -33 -37 -18 -9
-10 -17 -13 -17 -33 -39 -19 -18
-9 -17 -13 -18 -34 -40 -18 -12
-8 -16 -14 -18 -35 -41 -20 -14
-9 -17 -14 -17 -36 -40 -18 -9
-6 -15 -14 -16 -36 -41 -18 -5
-5 -14 -15 -16 -37 -41 -18 -13
-7 -15 -15 -16 -37 -42 -19 -11
-5 -13 -13 -14 -36 -40 -16 -12
-6 -14 -13 -13 -36 -40 -17 -9
-6 -15 -13 -15 -36 -41 -17 -15
-7 -15 -12 -15 -35 -41 -17 -14
-8 -16 -13 -15 -35 -41 -16 -16
-7 -16 -12 -13 -34 -41 -15 -15
-7 -16 -10 -9 -32 -39 -15 -15
-6 -16 -7 -3 -29 -40 -18 -16
-6 -16 3 12 -22 -38 -20 -18
-9 -17 13 29 -13 -38 -23 -30
-12 -15 23 43 -5 -37 -24 -31
-11 -11 33 60 6 -33 -22 -29
-8 -9 42 85 22 -22 -17 -22
0 -3 53 126 50 -4 -4 -18
10 12 61 169 85 26 20 2
20 31 66 196 119 58 49 14
31 48 75 213 146 92 78 29
38 60 87 221 169 121 104 43
48 80 89 208 191 160 140 65
60 114 84 164 212 213 189 104
71 141 69 106 227 264 239 135
83 167 47 33 229 314 286 182
91 193 21 -53 226 362 332 215
96 213 -4 -121 219 403 373 234
95 235 -38 -187 205 437 408 260
89 252 -70 -245 190 465 433 279
81 256 -91 -288 167 478 441 285
67 250 -107 -327 139 474 428 278
49 217 -127 -359 92 425 377 247
28 176 -140 -379 25 326 291 204
11 125 -142 -376 -38 198 188 144
-3 84 -133 -360 -88 79 89 89
-20 64 -118 -352 -142 -16 21 52
-36 48 -109 -344 -190 -78 -17 24
-42 37 -112 -322 -219 -113 -39 8
-38 29 -113 -293 -216 -116 -42 14
-33 17 -110 -254 -192 -105 -40 -4
-27 7 -102 -213 -166 -95 -39 -13
-24 -6 -89 -173 -142 -87 -39 -21
-21 -15 -77 -140 -125 -82 -38 -13
-18 -18 -66 -113 -110 -79 -36 -23
-15 -18 -54 -88 -94 -73 -32 -26
-11 -12 -42 -67 -82 -66 -28 -24
-8 -11 -32 -49 -70 -59 -25 -24
-8 -11 -24 -35 -60 -56 -23 -27
-5 -10 -19 -25 -54 -53 -21 -26
-3 -13 -16 -20 -51 -52 -20 -24
-3 -16 -14 -13 -48 -53 -22 -26
-3 -16 -12 -8 -46 -53 -21 -27
-4 -16 -13 -7 -48 -55 -22 -31
-3 -15 -11 -2 -46 -55 -21 -34
-3 -16 -11 2 -43 -55 -22 -37
-5 -17 -9 4 -44 -57 -23 -31
-5 -19 -6 6 -41 -56 -23 -25
-4 -19 -6 7 -37 -56 -23 -32
-2 -20 -4 8 -33 -54 -22 -36
-1 -19 -3 7 -29 -49 -20 -34
-1 -20 -4 6 -28 -47 -21 -36
0 -19 -5 9 -27 -45 -19 -34
-2 -20 -4 9 -27 -43 -19 -34
-3 -19 -5 12 -26 -43 -19 -33
-1 -19 -4 14 -24 -40 -18 -34
-2 -19 -4 14 -23 -40 -20 -35
-4 -21 -2 17 -20 -38 -20 -35
-2 -22 -3 17 -17 -38 -20 -39
-3 -23 -1 18 -13 -34 -18 -38
-1 -19 0 17 -9 -30 -16 -24
-1 -19 0 18 -6 -27 -16 -28
0 -20 -1 19 -5 -25 -16 -27
2 -16 2 20 -5 -21 -14 -28
4 -14 2 23 -2 -20 -14 -14
3 -15 3 25 -3 -20 -15 -22
2 -18 5 26 -2 -19 -14 -24
1 -19 5 27 -3 -19 -16 -33
2 -17 7 27 -2 -20 -17 -35
2 -18 8 27 0 -19 -16 -30
2 -17 7 25 1 -18 -14 -29
4 -15 8 27 3 -17 -13 -24
5 -14 5 27 2 -20 -13 -24
5 -14 6 28 0 -20 -13 -23
4 -14 7 31 2 -20 -11 -19
3 -14 6 33 2 -23 -13 -17
4 -13 6 34 0 -26 -12 -19
4 -15 7 36 0 -30 -14 -19
3 -19 7 37 0 -34 -14 -9
5 -15 9 37 0 -34 -14 -9
4 -15 8 36 0 -35 -13 -22
4 -16 8 36 0 -38 -13 -31
4 -16 7 39 0 -37 -11 -20
5 -15 7 39 -1 -37 -11 -23
7 -14 7 43 0 -36 -9 -24
6 -14 7 46 -1 -38 -11 -26
7 -14 7 46 -1 -38 -11 -21
8 -14 8 46 -1 -38 -11 -22
6 -17 8 49 1 -39 -11 -23
7 -16 9 49 3 -39 -10 -23
8 -16 8 50 4 -35 -9 -27
6 -17 8 50 6 -35 -9 -28
8 -16 8 52 8 -33 -7 -26
8 -12 8 52 10 -31 -5 -21
9 -11 8 56 11 -30 -5 -27
12 -10 8 60 14 -27 -5 -29
11 -11 8 62 15 -26 -5 -21
13 -11 10 63 16 -25 -6 -23
15 -11 11 66 20 -24 -4 -20
15 -11 11 67 22 -22 -4 -22
15 -11 11 68 25 -18 -1 -21
16 -12 10 70 27 -16 -1 -20
15 -13 10 73 29 -15 1 -17
16 -11 10 74 30 -12 2 -17
16 -11 10 81 32 -10 3 -22
18 -7 11 85 35 -7 5 -22
20 -7 12 88 38 -5 6 -23
19 -9 12 90 41 -1 8 -15
23 -8 11 93 44 0 8 -20
24 -8 11 94 48 3 9 -24
25 -7 11 96 52 7 13 -18
25 -7 11 99 57 10 15 -14
25 -6 8 101 58 11 16 -22
28 -3 9 104 60 15 18 -16
28 -3 9 109 63 18 21 -6
27 -5 7 111 66 19 22 -14
30 -2 7 114 70 21 24 -12
32 -3 7 117 74 26 27 -11
33 -3 8 120 79 30 30 -8
36 1 6 120 82 33 32 -10
37 2 6 120 88 38 36 -7
40 4 5 121 90 40 39 -2
40 6 2 122 91 42 42 -5
40 6 1 123 92 45 44 1
41 8 0 126 93 48 46 6
40 7 -2 127 94 49 48 2
40 8 -2 127 95 50 49 -5
41 9 -3 126 95 52 51 0
42 9 -3 127 96 52 52 4
46 14 -3 127 99 57 54 7
47 15 -3 123 99 59 56 6
46 14 -5 121 98 58 58 7
48 16 -7 121 98 59 59 5
47 18 -7 120 97 61 61 18
47 19 -7 121 94 62 61 18
48 19 -10 119 93 60 61 14
46 17 -10 118 91 59 61 13
47 18 -10 116 90 58 61 13
46 17 -9 115 90 57 61 11
46 18 -10 111 90 58 61 7
46 20 -9 110 89 58 63 12
45 20 -10 106 87 57 62 12
45 21 -10 104 84 55 62 9
46 24 -12 101 81 54 62 11
43 23 -10 99 78 53 62 9
43 24 -11 96 74 50 59 3
40 23 -9 94 72 46 59 4
38 21 -8 90 68 42 57 1
39 21 -6 87 67 40 54 0
37 21 -7 80 62 36 51 -3
35 21 -5 76 58 34 50 -3
34 21 -5 71 55 31 47 -4
30 19 -4 67 50 27 45 -7
30 21 -3 63 46 25 44 -13
28 19 -3 59 42 22 41 -10
25 18 -3 56 37 17 36 -16
24 19 -1 53 33 14 33 -23
21 15 0 49 29 10 30 -24
19 12 1 44 26 5 27 -23
19 12 1 40 23 2 24 -19
16 11 3 36 19 1 21 -24
15 10 2 32 15 -2 18 -27
12 9 2 30 13 -5 17 -26
12 11 3 26 8 -7 15 -24
12 10 4 25 7 -8 13 -12
10 7 3 24 5 -10 10 -17
10 7 4 22 1 -12 7 -24
10 8 6 20 0 -12 7 -20
8 3 5 17 -1 -15 4 -18
8 2 5 14 -3 -17 2 -18
6 1 5 11 -5 -17 1 -19
4 1 5 10 -6 -18 -1 -18
5 3 5 9 -7 -18 -1 -5
5 4 4 8 -9 -20 0 -16
5 4 6 9 -8 -20 -1 -17
5 2 5 9 -9 -20 -2 -14
4 1 5 7 -11 -22 -5 -16
4 1 6 6 -11 -22 -6 -19
4 0 6 7 -10 -22 -6 -14
3 -1 7 6 -10 -22 -6 -12
4 -1 7 3 -11 -22 -7 -15
1 -4 6 2 -12 -23 -9 -13
1 -3 5 2 -12 -24 -9 -9
1 -2 6 2 -11 -22 -6 -1
0 -2 4 1 -14 -24 -8 -6
1 -2 4 3 -13 -25 -8 -11
1 -3 5 3 -13 -24 -9 -9
1 -2 6 4 -12 -24 -9 -8
2 -2 8 5 -9 -22 -8 -2
1 -4 8 3 -9 -23 -9 -4
2 -3 8 1 -9 -22 -8 -7
0 -4 7 0 -8 -23 -9 -14
0 -5 6 -1 -10 -24 -9 -7
2 -2 6 1 -9 -23 -8 -4
0 -4 6 1 -9 -22 -8 -8
-5 -6 6 2 -10 -23 -9 -15
-2 -5 8 3 -9 -20 -8 -14
-1 -5 9 5 -7 -18 -8 -13
1 -3 9 3 -8 -18 -9 -18
-1 -4 9 3 -6 -17 -9 -19
-2 -5 9 2 -6 -15 -8 -18
-1 -3 10 4 -5 -12 -6 -10
1 0 10 3 -5 -12 -7 -5
0 0 10 5 -5 -10 -5 -2
-1 -2 11 7 -5 -10 -7 1
-5 -4 11 6 -5 -11 -7 -4
-3 -2 9 6 -6 -12 -8 -2
-2 -2 9 7 -4 -11 -7 -5
-1 -2 10 7 -3 -11 -8 -4
1 -2 11 8 -1 -10 -6 3
0 -4 11 6 -2 -10 -6 0
0 -3 12 7 -2 -9 -5 2
1 -1 11 7 -1 -8 -5 7
0 -2 10 7 -3 -8 -4 3
0 -1 10 9 -3 -10 -4 2
-1 -2 10 10 -4 -11 -5 7
0 -2 8 8 -6 -14 -7 2
1 -1 10 11 -5 -14 -5 -2
-2 -3 9 10 -7 -16 -6 1
-1 -3 9 9 -8 -18 -7 -3
0 -1 9 9 -9 -16 -6 0
-1 -3 9 9 -9 -16 -6 -6
-1 -3 10 10 -9 -16 -6 -2
1 0 10 12 -10 -15 -6 6
0 1 10 12 -10 -16 -5 -2
0 0 10 13 -10 -15 -5 2
-2 -2 10 12 -11 -17 -7 5
0 -1 10 12 -11 -18 -6 1
-1 -3 11 12 -9 -17 -6 0
-3 -5 10 12 -9 -17 -7 2
-1 -3 10 10 -9 -18 -6 1
-2 -4 11 12 -8 -16 -6 -1
-1 -2 11 11 -6 -17 -6 -4
-1 1 11 12 -5 -14 -4 -1
-2 -1 10 11 -6 -16 -5 -1
-2 -2 11 12 -6 -16 -6 -7
0 0 11 13 -5 -16 -5 -4
-1 0 11 13 -5 -16 -5 2
0 0 11 13 -6 -17 -5 4
0 -2 10 11 -7 -17 -7 -3
1 -3 8 8 -8 -19 -7 -2
0 -1 10 9 -7 -17 -5 2
-1 0 10 9 -9 -17 -5 2
1 1 11 10 -8 -15 -5 4
1 1 11 9 -9 -16 -5 3
-1 1 10 11 -10 -16 -5 0
1 2 11 10 -11 -16 -4 -1
2 1 11 10 -10 -16 -3 -1
2 1 11 8 -10 -15 -4 -3
2 0 11 8 -9 -15 -4 0
-1 -2 10 6 -10 -17 -4 2
0 -1 11 5 -11 -17 -5 1
0 -1 10 4 -12 -17 -5 0
-3 -3 9 5 -12 -16 -5 -2
-2 -1 10 4 -13 -17 -5 5
-1 0 9 6 -13 -17 -5 11
0 0 10 5 -13 -16 -5 8
1 0 11 6 -11 -15 -5 5
0 0 12 5 -11 -15 -4 1
1 0 12 3 -10 -14 -5 4
1 -1 11 2 -10 -15 -5 1
-1 -3 11 2 -11 -16 -5 0
0 0 11 1 -12 -14 -5 2
-2 -2 10 1 -12 -15 -5 2
-4 -3 10 0 -12 -15 -6 14
-3 -3 11 2 -11 -14 -6 11
-1 -2 9 0 -13 -15 -7 2
1 -2 10 1 -12 -14 -7 0
1 -2 10 -1 -11 -13 -7 8
1 -2 10 -2 -11 -14 -7 8
1 -1 10 -2 -10 -12 -6 4
1 -1 10 -1 -9 -10 -6 5
1 -1 10 -2 -10 -10 -6 0
0 -3 9 -2 -10 -10 -7 5
-3 -4 7 -3 -12 -11 -8 5
-2 -4 9 -1 -11 -9 -7 7
-2 -3 7 -3 -12 -11 -9 9
-1 -4 8 -2 -11 -10 -9 8
0 -3 9 -3 -10 -9 -8 5
-3 -7 9 -4 -10 -11 -9 -2
-2 -6 8 -5 -9 -9 -9 -2
0 -3 8 -3 -7 -7 -9 3
0 -3 8 -4 -8 -6 -8 11
0 -2 7 -4 -9 -7 -8 15
-1 -2 7 -3 -10 -6 -8 6
-2 -3 7 -4 -11 -8 -10 11
-1 -3 8 -4 -11 -8 -9 2
-3 -4 7 -3 -9 -9 -10 -3
-3 -5 7 -5 -11 -11 -11 6
-1 -5 8 -5 -10 -9 -10 9
-1 -5 7 -6 -10 -10 -10 1
-1 -4 7 -6 -9 -9 -9 11
-1 -5 8 -7 -9 -10 -10 14
-2 -5 7 -6 -10 -10 -10 5
-2 -4 7 -6 -11 -10 -10 4
-4 -7 6 -6 -12 -13 -12 -1
-3 -5 6 -6 -13 -14 -11 -4
-3 -4 7 -5 -11 -14 -12 -3
-4 -5 7 -7 -13 -15 -12 2
-4 -6 7 -7 -13 -14 -11 2
-3 -6 7 -7 -12 -15 -12 7
-3 -6 6 -7 -13 -14 -11 9
-2 -4 6 -8 -13 -14 -11 2
-4 -6 6 -7 -13 -13 -11 5
-4 -5 7 -6 -13 -13 -9 9
-1 -4 8 -6 -14 -13 -10 12
-2 -6 6 -7 -15 -14 -11 5
-1 -7 6 -7 -15 -13 -12 6
-3 -8 6 -7 -15 -15 -12 8
-4 -7 6 -8 -15 -15 -12 7
-2 -4 6 -8 -14 -14 -10 11
-4 -7 6 -8 -14 -13 -12 12
-2 -6 6 -9 -15 -13 -12 5
-2 -5 6 -8 -14 -12 -11 15
-3 -4 6 -8 -15 -12 -11 15
-1 -1 7 -5 -13 -10 -11 11
0 -1 7 -5 -13 -10 -10 13
0 -2 6 -6 -13 -9 -10 12
0 -2 8 -6 -11 -10 -11 10
-1 -4 7 -5 -10 -9 -11 13
2 0 8 -6 -10 -8 -9 12
2 4 10 -3 -7 -6 -7 11
1 8 13 0 -5 -4 -5 13
0 10 15 3 -2 -2 -4 14
0 13 17 4 -1 0 -3 15
2 14 18 7 1 0 -2 13
3 14 20 6 2 2 -1 21
2 14 20 7 3 3 -1 31
3 15 21 9 5 4 -1 26
0 12 21 8 5 4 -1 19
-2 13 22 6 3 3 -1 17
0 17 21 5 4 4 0 15
1 16 17 4 2 4 0 13
0 15 13 0 1 2 -1 20
2 16 9 -2 0 2 -1 19
2 14 4 -3 -1 0 -3 20
5 14 3 -4 -1 2 -2 19
6 16 1 -5 0 2 -1 22
7 17 1 -4 0 3 -1 21
10 19 1 -4 2 5 0 23
10 21 0 -5 4 7 1 27
8 22 0 -3 5 9 3 28
8 23 -1 -4 4 8 3 26
5 23 1 -4 3 8 3 18
3 24 3 -3 3 7 4 17
3 25 3 -3 2 7 2 23
6 26 4 -3 3 8 4 24
9 25 4 -2 3 10 4 21
10 22 2 -4 3 9 3 25
12 19 0 -5 2 9 2 24
13 17 0 -6 3 9 3 20
11 14 0 -7 2 9 2 21
11 14 0 -7 1 9 2 22
9 10 -1 -8 0 7 1 24
6 6 -2 -9 -4 4 -1 15
6 4 -3 -9 -4 2 -3 17
3 0 -4 -11 -6 1 -5 19
0 -2 -3 -15 -8 0 -6 9
-2 -4 -3 -16 -10 -2 -8 15
-4 -7 -2 -18 -10 -4 -10 21
-5 -8 -1 -17 -10 -3 -12 15
-4 -8 0 -16 -9 -2 -12 7
-5 -8 0 -17 -8 -3 -12 5
-5 -10 0 -17 -11 -3 -13 3
-8 -14 -2 -20 -15 -7 -16 -1
-9 -16 -2 -19 -16 -7 -17 -2
-8 -16 -1 -20 -16 -5 -17 -2
-10 -16 -1 -21 -17 -9 -18 1
-10 -15 -2 -22 -17 -9 -18 0
-8 -15 -2 -22 -15 -9 -18 7
-9 -15 -2 -23 -15 -7 -18 7
-8 -16 -3 -21 -14 -5 -18 6
-10 -17 -3 -22 -15 -7 -18 9
-7 -15 -3 -22 -16 -6 -18 9
-7 -12 -2 -22 -15 -5 -18 2
-8 -14 -2 -20 -16 -5 -18 3
-7 -14 -1 -21 -15 -6 -17 5
-9 -15 0 -20 -15 -6 -18 0
-10 -15 -2 -21 -15 -7 -19 -4
-8 -16 0 -19 -14 -5 -18 1
-10 -17 -1 -20 -14 -6 -17 -1
-7 -14 -1 -19 -13 -4 -17 3
-8 -13 -1 -20 -13 -3 -16 7
-8 -14 -2 -19 -15 -4 -16 5
-9 -13 0 -19 -14 -4 -15 10
-9 -13 0 -18 -14 -3 -15 10
-7 -11 1 -17 -14 -3 -14 10
-6 -12 0 -17 -14 -2 -15 14
-9 -14 -1 -17 -14 -5 -17 8
-9 -15 1 -17 -13 -4 -16 11
-11 -15 2 -16 -11 -3 -15 12
-13 -16 2 -14 -11 -4 -16 3
-11 -16 5 -9 -9 -4 -18 0
-10 -15 14 4 -3 -3 -19 2
-10 -14 24 21 5 -2 -21 7
-11 -11 35 36 13 0 -23 1
-14 -11 44 52 23 4 -22 5
-11 -6 54 76 36 11 -17 8
-5 -3 64 113 61 25 -8 11
4 7 74 154 92 51 12 15
17 28 81 184 129 86 42 32
27 46 88 203 159 118 70 51
35 61 101 214 184 149 99 75
46 80 105 205 205 186 131 99
57 111 103 174 231 235 176 127
73 142 89 122 252 285 225 163
85 167 63 37 249 329 269 198
92 190 35 -57 237 368 310 232
99 211 8 -130 233 406 348 249
100 233 -25 -201 222 442 385 277
97 253 -58 -265 206 470 414 300
89 260 -86 -315 187 482 423 309
75 259 -117 -357 163 481 417 307
59 233 -142 -390 128 451 383 296
41 188 -154 -403 74 373 312 254
23 139 -155 -399 11 255 214 200
8 94 -145 -379 -39 139 118 141
-13 65 -132 -369 -94 39 42 100
-28 48 -126 -355 -146 -27 -2 70
-35 34 -125 -336 -185 -67 -28 49
-36 22 -121 -306 -193 -81 -39 40
-31 13 -112 -264 -170 -72 -39 36
-26 2 -99 -219 -142 -63 -39 28
-21 -10 -85 -182 -121 -59 -40 15
-18 -16 -71 -148 -103 -53 -38 16
-15 -18 -57 -117 -87 -48 -37 17
-13 -16 -43 -89 -73 -40 -31 10
-9 -12 -32 -69 -59 -33 -26 11
-9 -10 -21 -51 -49 -29 -24 14
-6 -9 -12 -34 -37 -23 -21 8
-5 -10 -6 -25 -31 -20 -20 7
-5 -13 -4 -20 -27 -19 -20 3
-4 -16 -3 -14 -24 -19 -20 -1
-6 -17 -1 -12 -23 -18 -20 3
-5 -15 -2 -9 -23 -19 -19 6
-5 -15 -2 -6 -23 -19 -19 6
-6 -17 1 0 -22 -18 -19 8
-5 -17 3 0 -22 -19 -21 3
-5 -18 6 3 -19 -18 -21 6
-4 -20 7 5 -15 -20 -22 5
-3 -19 9 4 -11 -17 -21 11
-4 -21 8 3 -10 -15 -22 2
-3 -21 9 4 -7 -13 -20 -7
-1 -17 6 3 -6 -12 -20 -4
-3 -18 6 4 -6 -8 -18 -7
-1 -15 6 7 -4 -6 -17 -7
-2 -16 7 11 -4 -4 -17 -2
-2 -18 7 12 -3 -3 -18 -5
0 -18 8 13 -2 -3 -18 -5
0 -19 8 13 0 -2 -19 -7
2 -18 10 14 5 2 -18 -8
3 -19 9 13 7 4 -18 3
0 -19 9 14 8 5 -17 2
2 -18 9 15 11 9 -15 3
1 -17 10 17 12 13 -13 0
2 -15 9 18 12 13 -14 0
2 -14 12 21 12 14 -13 20
1 -16 13 23 11 14 -15 22
1 -17 15 24 13 13 -15 14
1 -17 16 25 15 13 -16 9
-1 -19 17 23 16 13 -16 1
2 -17 15 22 16 13 -17 -2
2 -16 16 23 18 13 -15 1
3 -14 14 23 18 13 -14 4
4 -13 15 25 19 14 -12 2
4 -13 13 27 18 11 -13 6
4 -13 16 30 18 10 -13 14
2 -15 17 32 19 8 -13 7
2 -17 17 34 17 3 -15 1
2 -16 18 36 19 1 -15 3
1 -18 20 36 20 0 -15 8
1 -17 18 35 20 -2 -14 1
3 -16 19 37 20 -2 -11 -2
3 -15 17 37 19 -4 -11 -7
5 -14 17 39 18 -3 -10 -6
5 -14 16 41 17 -4 -10 -3
4 -14 18 46 18 -4 -9 3
6 -12 19 48 17 -4 -9 7
7 -12 20 49 18 -4 -10 6
7 -14 21 50 18 -5 -10 -2
7 -13 21 50 20 -4 -10 -5
5 -13 19 50 20 -4 -10 0
7 -12 19 51 22 -3 -9 0
8 -11 17 52 22 -2 -8 2
7 -12 18 55 23 2 -6 0
9 -10 18 59 25 4 -5 1
8 -11 19 61 25 4 -6 8
9 -10 20 64 28 6 -5 5
11 -9 22 67 30 8 -5 0
11 -11 22 68 32 8 -6 0
12 -11 22 69 35 11 -5 4
11 -12 21 70 37 12 -4 9
11 -11 20 71 40 12 -3 6
13 -9 20 74 42 16 -1 0
13 -10 18 77 43 18 -1 -1
13 -10 18 80 44 18 0 2
14 -8 20 85 47 21 1 4
15 -8 20 88 49 23 2 5
18 -6 22 92 53 25 4 6
19 -7 23 95 57 27 4 8
19 -7 22 96 62 29 4 12
21 -5 22 97 65 32 7 9
20 -5 21 100 68 34 9 10
21 -2 21 104 72 38 13 22
23 -1 19 107 74 41 15 25
23 -3 18 112 77 42 16 17
24 -2 19 116 80 45 18 16
26 1 20 120 84 48 21 23
29 3 21 124 89 52 24 31
30 2 23 125 95 55 26 31
28 1 21 125 97 58 27 24
31 4 19 125 99 60 30 22
34 8 17 126 103 63 33 27
34 10 16 126 105 68 37 22
36 12 13 127 105 71 39 28
38 13 12 128 105 71 41 28
38 14 12 130 105 73 43 32
39 14 12 131 106 76 46 39
38 14 11 132 106 76 48 41
40 16 12 131 108 77 48 35
40 15 10 128 108 79 49 30
40 17 7 124 107 80 50 36
44 19 6 123 107 81 52 39
45 21 5 122 106 83 54 43
44 21 3 121 105 85 56 41
44 22 2 120 104 83 57 38
42 20 2 121 101 83 56 45
43 21 2 120 99 82 57 40
42 22 3 119 98 83 57 43
42 21 2 116 98 79 56 33
43 22 2 113 97 80 57 30
41 24 0 108 96 79 57 33
42 25 0 105 94 77 57 33
43 29 1 104 94 79 59 32
42 28 -1 102 91 77 59 41
40 28 0 100 87 75 59 37
38 27 0 100 85 72 57 32
36 26 0 95 80 69 55 30
38 26 0 92 77 65 52 34
36 25 2 87 75 61 50 25
33 24 3 83 72 60 49 19
33 26 3 76 69 57 47 12
31 25 3 72 66 54 45 17
32 25 4 69 64 53 43 28
30 24 3 65 60 52 43 15
26 23 4 61 54 48 39 13
27 23 6 59 51 46 37 14
25 22 7 55 48 44 34 10
23 21 8 51 44 39 31 9
21 20 10 48 42 35 28 6
17 16 10 43 38 33 25 6
17 17 9 37 35 30 23 -1
16 17 10 35 34 28 22 0
16 17 11 31 30 26 18 -2
14 17 11 28 27 26 17 1
11 16 12 27 24 24 15 0
10 13 13 26 22 21 12 -4
10 13 14 24 21 20 10 5
9 9 13 21 18 17 7 8
8 8 15 21 18 16 5 7
7 7 15 18 15 14 3 6
6 7 15 14 15 12 2 10
6 7 14 14 15 11 1 5
3 5 13 10 13 10 -1 -1
2 5 12 10 10 10 1 0
2 4 13 11 9 10 0 8
1 3 14 12 8 9 -1 8
3 5 14 10 7 8 -3 7
4 5 15 10 7 7 -4 14
1 3 16 10 7 7 -5 13
2 3 15 7 6 5 -5 11
0 1 14 6 7 4 -5 8
0 0 14 5 6 3 -6 6
0 1 14 4 7 5 -7 15
-3 0 11 3 4 3 -7 7
-3 1 13 3 2 3 -7 4
-1 1 14 5 3 3 -7 5
-1 2 15 6 3 3 -6 14
0 1 16 7 5 3 -6 10
-2 -2 16 5 4 1 -9 0
-1 -2 16 4 4 1 -8 2
1 0 16 2 6 2 -8 3
1 0 16 2 7 1 -8 10
1 2 14 1 5 1 -8 16
-1 1 13 1 5 1 -7 2
1 2 13 2 4 0 -8 -2
-1 2 15 5 5 2 -7 7
-2 0 15 5 4 3 -7 1
0 1 15 5 6 4 -8 7
2 0 16 6 7 5 -9 2
1 1 15 4 7 6 -8 -4
2 3 16 4 9 8 -7 0
2 3 15 5 10 10 -7 11
2 1 15 4 10 10 -7 9
1 2 15 5 9 11 -5 4
-1 0 13 5 8 10 -7 15
-2 0 16 8 9 11 -6 16
0 0 16 7 8 11 -7 15
-2 -1 17 7 8 9 -8 16
-1 1 17 8 9 9 -7 16
-2 0 19 9 12 11 -6 13
0 1 17 6 13 10 -6 15
1 2 17 7 14 11 -5 14
1 2 16 6 12 11 -6 10
-1 2 15 7 11 11 -4 15
-1 0 14 7 9 9 -6 13
-2 1 15 9 7 7 -6 16
-1 2 16 10 7 7 -5 14
-2 1 16 10 7 5 -5 19
-3 1 17 12 7 5 -6 19
-2 2 18 11 7 5 -5 15
-2 1 16 8 7 4 -6 17
0 2 17 9 7 4 -4 9
1 3 17 11 6 6 -4 12
-1 2 16 10 6 7 -3 17
0 3 15 12 6 7 -4 24
1 4 17 14 6 7 -3 13
3 5 16 12 4 6 -4 11
1 5 18 13 8 7 -3 11
0 2 16 12 6 5 -6 10
1 3 17 11 7 5 -5 11
1 4 16 9 9 5 -5 20
0 4 16 10 11 6 -4 21
2 5 16 11 11 7 -2 17
2 6 15 10 10 7 -2 13
2 5 15 12 11 8 -2 17
3 6 15 13 10 8 -3 10
3 4 16 12 9 7 -4 11
3 4 16 13 11 8 -3 14
1 3 15 12 10 5 -5 10
1 3 16 11 9 4 -5 19
2 3 15 9 8 4 -5 18
0 4 14 9 8 4 -5 14
0 4 13 8 5 2 -6 6
0 6 12 8 5 3 -4 6
-1 4 13 9 3 2 -4 9
0 5 14 9 2 3 -4 9
1 5 14 10 1 4 -4 7
1 4 14 11 0 2 -6 7
0 3 15 11 1 1 -6 17
-2 2 15 9 0 0 -6 13
-2 3 15 9 1 1 -5 8
0 3 14 7 0 0 -5 15
-1 2 14 7 -1 1 -5 14
0 4 13 6 -2 0 -5 12
-1 2 12 7 -3 -1 -6 13
0 3 13 8 -2 0 -5 10
2 5 14 9 0 2 -4 14
2 4 13 8 -2 0 -6 24
1 3 14 7 -1 -1 -6 20
1 3 14 6 0 -1 -7 9
1 2 12 4 0 -1 -7 9
2 3 11 3 0 -1 -7 17
0 2 10 2 -1 -1 -7 15
-1 0 10 2 -2 -2 -7 11
-1 0 10 2 -1 -1 -7 12
-1 0 11 3 -2 -1 -8 11
1 3 13 4 0 1 -6 14
3 4 13 4 0 1 -6 17
4 4 12 3 0 0 -7 14
6 7 14 3 2 2 -5 11
5 4 13 1 2 2 -6 17
1 0 12 0 1 1 -7 19
0 0 11 -1 1 2 -7 18
0 1 11 0 0 2 -6 16
1 3 10 0 -1 3 -6 13
1 2 10 0 -1 3 -6 19
-1 1 10 1 -2 3 -6 20
-1 0 10 -1 -3 1 -8 18
-1 -1 11 -1 -1 2 -8 15
0 -1 10 -1 -2 2 -8 9
2 1 10 -4 -1 4 -8 13
2 -1 9 -5 -1 3 -9 9
2 -2 9 -5 -2 5 -8 8
2 -1 8 -5 -2 5 -8 8
2 -1 7 -5 -2 4 -10 13
2 -1 8 -4 -2 5 -9 10
3 -2 8 -4 -4 4 -10 10
1 -4 8 -4 -4 2 -12 4
2 -4 9 -4 -3 3 -12 2
1 -4 10 -5 -3 2 -11 5
3 -1 9 -7 -2 2 -12 3
3 -3 8 -7 -3 2 -12 3
1 -4 7 -8 -3 2 -11 4
2 -2 8 -7 -3 3 -10 10
3 -1 7 -7 -3 2 -11 8
2 -2 7 -6 -5 1 -12 7
1 -3 8 -5 -4 0 -12 10
-1 -5 7 -5 -6 -3 -14 5
0 -6 7 -6 -7 -4 -15 2
0 -6 7 -7 -7 -4 -14 -1
1 -4 7 -7 -6 -4 -13 -2
2 -3 8 -7 -6 -4 -13 -2
2 -3 7 -8 -7 -5 -15 7
2 -4 7 -7 -7 -4 -12 11
4 -2 6 -7 -8 -5 -13 5
2 -2 6 -7 -9 -6 -13 5
3 -3 6 -7 -9 -6 -14 3
2 -3 6 -7 -10 -7 -13 3
1 -2 6 -7 -11 -8 -15 10
3 -2 8 -6 -9 -6 -14 4
1 -4 7 -8 -10 -8 -14 -1
0 -4 6 -9 -11 -9 -15 3
3 -2 7 -8 -9 -9 -13 3
2 -1 7 -6 -7 -6 -12 5
3 1 8 -5 -6 -5 -11 4
2 0 8 -5 -8 -5 -13 4
1 -1 8 -4 -8 -5 -13 8
3 -1 8 -4 -7 -7 -12 8
3 -1 7 -5 -7 -7 -14 4
3 1 12 -3 -4 -4 -11 7
5 7 15 1 0 -2 -8 10
5 12 17 3 3 -1 -7 9
5 14 20 6 4 3 -5 15
4 15 21 7 5 4 -3 17
6 16 19 8 5 4 -4 25
7 17 20 10 6 5 -4 26
6 16 21 10 6 6 -5 16
7 17 23 10 7 7 -5 13
8 20 25 11 8 8 -3 16
7 20 25 10 10 9 -3 26
8 23 22 9 10 8 -2 24
6 21 17 4 7 6 -3 20
7 19 12 -1 4 4 -5 21
9 19 9 0 5 7 -2 21
10 19 5 -2 2 4 -2 19
14 21 3 -1 2 5 -2 18
16 23 2 -1 4 6 -2 21
16 25 3 0 5 7 0 29
17 29 4 1 7 9 2 25
16 29 5 1 8 11 2 23
16 29 5 -1 8 10 1 29
15 31 6 -1 8 10 3 28
11 30 5 -3 6 9 2 24
10 30 7 0 6 9 3 22
10 30 7 0 7 10 3 21
11 28 4 0 4 7 2 21
14 27 3 0 4 7 2 23
15 24 4 0 4 6 2 21
15 21 2 -2 2 4 -1 17
16 23 3 -3 2 4 -1 26
15 20 1 -5 1 3 -2 25
14 17 1 -5 1 3 -2 20
10 14 0 -7 -2 0 -4 23
8 10 -1 -7 -3 -1 -5 12
8 9 -3 -10 -6 -4 -7 13
4 6 -1 -10 -9 -5 -8 12
3 2 -2 -12 -12 -9 -11 16
1 0 0 -12 -12 -10 -13 13
0 -2 1 -12 -12 -11 -14 8
0 -2 3 -10 -10 -10 -13 2
-1 -3 3 -13 -11 -10 -15 4
-2 -4 2 -12 -11 -11 -15 7
-1 -5 1 -14 -12 -12 -16 6
-1 -6 -1 -16 -15 -14 -19 6
-1 -8 -1 -17 -16 -16 -19 0
-3 -10 -2 -17 -17 -16 -20 -5
-6 -12 -1 -15 -17 -16 -20 -1
-4 -10 -1 -14 -17 -15 -19 -7
-2 -8 -1 -16 -18 -17 -21 -8
-2 -7 -1 -16 -19 -18 -20 -7
0 -7 0 -17 -18 -17 -20 -5
-2 -8 -3 -17 -18 -18 -20 -10
-1 -6 -2 -19 -19 -19 -21 -6
-1 -6 -1 -17 -18 -17 -19 -5
-2 -8 -2 -17 -20 -18 -20 -5
-3 -9 -1 -15 -20 -19 -20 -3
-3 -10 -2 -16 -21 -20 -21 -2
-5 -10 -1 -15 -21 -20 -20 7
-4 -8 0 -15 -20 -21 -20 6
-4 -9 -1 -15 -20 -22 -20 2
-5 -9 0 -15 -21 -22 -19 0
-5 -8 -2 -15 -20 -22 -19 -1
-3 -7 -1 -15 -20 -22 -19 7
-2 -4 -1 -13 -19 -20 -16 8
-1 -3 -2 -14 -20 -22 -16 8
-3 -4 -2 -12 -20 -22 -17 14
-3 -5 -2 -12 -21 -21 -17 11
-6 -5 -2 -12 -22 -22 -17 13
-4 -4 -1 -12 -21 -23 -17 12
-4 -6 -1 -11 -20 -23 -18 -1
-7 -9 1 -9 -20 -24 -19 -7
-7 -8 6 -1 -14 -23 -19 -6
-7 -9 15 14 -7 -23 -22 3
-9 -7 25 29 1 -21 -23 -8
-10 -4 36 45 10 -18 -23 -7
-10 -3 43 61 18 -14 -22 -6
-6 1 53 86 33 -4 -14 -6
3 8 63 125 60 16 0 -5
13 21 71 162 93 43 24 13
25 42 78 189 128 79 53 35
35 58 86 206 155 108 79 54
43 72 96 216 179 138 106 66
55 97 99 211 208 183 146 93
68 130 95 182 234 234 195 128
84 157 79 135 251 281 243 162
95 180 57 57 251 324 286 195
101 203 31 -34 240 360 326 223
107 225 4 -112 230 394 363 251
104 247 -28 -188 217 423 395 281
102 262 -58 -251 201 445 413 302
92 265 -82 -298 179 451 418 310
72 255 -108 -339 152 443 403 291
54 220 -129 -370 105 390 349 259
34 176 -140 -383 41 290 264 216
15 123 -140 -374 -20 167 161 152
-4 83 -129 -359 -72 61 72 98
-22 63 -114 -352 -124 -18 15 63
-34 50 -111 -340 -172 -68 -19 42
-39 37 -110 -316 -196 -96 -37 27
-37 25 -107 -284 -191 -98 -40 22
-31 15 -99 -241 -165 -87 -37 16
-27 1 -87 -199 -139 -80 -38 8
-22 -8 -75 -163 -120 -75 -38 4
-17 -11 -64 -132 -105 -69 -36 8
-15 -13 -53 -106 -92 -67 -34 4
-13 -11 -41 -80 -80 -61 -30 -5
-10 -7 -30 -60 -67 -56 -27 -4
-10 -6 -19 -41 -56 -50 -23 6
-7 -5 -11 -28 -46 -47 -22 5
-5 -7 -6 -20 -40 -45 -20 5
-4 -8 -4 -17 -36 -44 -21 -2
-2 -9 -3 -11 -32 -41 -19 -3
-1 -9 -1 -8 -30 -39 -18 -2
-3 -10 -2 -5 -30 -38 -17 7
-3 -9 -2 -2 -31 -40 -18 1
-2 -10 -2 2 -32 -42 -20 -4
-1 -9 1 5 -31 -42 -19 -7
-3 -12 2 6 -30 -43 -22 -6
-7 -16 4 7 -27 -44 -23 0
-3 -15 6 8 -23 -40 -22 4
0 -12 4 5 -20 -39 -21 -5
0 -12 4 7 -17 -37 -21 -5
-1 -12 5 10 -14 -33 -18 -7
-1 -10 3 8 -15 -31 -17 -4
0 -9 2 9 -16 -30 -17 -5
0 -10 4 15 -16 -29 -17 -9
-1 -10 3 15 -17 -29 -17 -7
0 -10 5 17 -13 -26 -17 -10
-1 -13 5 18 -12 -27 -19 -18
-2 -15 5 18 -10 -26 -18 -20
0 -14 4 15 -7 -24 -18 -16
0 -13 5 17 -4 -21 -17 -12
2 -12 5 18 -2 -18 -15 0
2 -11 6 19 -1 -15 -14 3
2 -12 6 21 -2 -13 -13 2
0 -11 9 25 -3 -12 -13 -1
-1 -12 10 26 -3 -12 -13 -3
0 -10 12 27 -2 -13 -13 0
1 -12 12 28 -2 -13 -15 1
-1 -14 12 27 -1 -12 -15 -3
0 -13 12 25 1 -11 -13 -5
0 -13 11 26 3 -10 -12 -3
0 -13 10 26 3 -10 -11 5
2 -10 10 27 3 -9 -9 6
1 -10 10 30 3 -10 -9 1
2 -10 12 35 3 -12 -9 4
4 -9 13 36 4 -12 -8 3
3 -10 14 37 5 -15 -9 5
4 -12 15 39 7 -19 -11 1
3 -13 16 39 7 -21 -10 -3
3 -14 14 37 6 -25 -11 -1
4 -12 14 38 8 -25 -11 2
3 -11 13 39 7 -26 -9 -1
6 -8 12 40 6 -25 -7 2
6 -7 12 43 7 -26 -6 5
5 -7 13 46 5 -27 -6 2
7 -5 14 48 4 -28 -6 0
7 -6 14 50 5 -30 -8 4
7 -9 15 51 6 -30 -9 1
7 -10 15 51 8 -29 -8 0
6 -11 14 50 9 -30 -9 9
7 -10 13 51 10 -29 -8 -4
7 -8 13 54 12 -26 -5 2
6 -8 12 54 12 -25 -4 0
7 -7 12 57 13 -25 -5 -2
9 -7 13 62 15 -23 -4 -1
9 -7 13 64 17 -22 -3 -2
11 -7 14 66 19 -21 -4 4
11 -7 15 69 22 -20 -4 2
12 -7 16 71 25 -15 0 -6
11 -9 14 70 27 -15 0 0
11 -9 13 71 30 -14 1 10
13 -6 12 73 30 -11 3 10
14 -6 10 75 32 -8 6 16
14 -6 10 81 31 -9 5 3
15 -5 11 85 33 -6 6 7
17 -4 12 88 35 -5 6 11
18 -2 13 91 38 -2 8 6
19 -2 14 95 43 1 9 13
19 -2 13 97 46 4 12 14
21 -1 14 97 51 7 14 3
22 -1 12 98 55 9 15 7
21 0 11 100 56 12 19 16
24 2 9 104 59 17 24 16
25 3 8 107 60 18 24 20
27 4 8 111 62 20 27 17
27 6 9 115 65 23 29 15
30 6 9 118 69 26 31 16
32 7 9 120 73 28 31 13
32 6 7 119 74 30 33 12
34 8 6 118 78 34 37 14
36 10 5 118 81 39 40 14
36 13 1 118 83 41 43 23
38 15 -2 119 83 45 49 25
39 15 -3 121 82 47 50 24
40 16 -4 123 82 47 51 23
41 19 -3 124 83 49 54 25
40 17 -5 122 82 48 53 25
40 16 -6 120 82 46 53 29
43 18 -8 118 82 48 54 28
42 18 -8 116 83 50 56 27
44 21 -10 114 83 51 57 25
45 24 -11 113 83 53 60 25
44 25 -13 113 81 54 63 27
45 27 -13 112 79 52 63 27
44 26 -15 111 75 51 63 30
44 27 -14 111 74 51 64 30
45 29 -14 110 74 51 62 26
43 25 -13 107 73 47 60 25
41 23 -14 104 72 48 60 21
40 22 -14 100 71 47 61 18
41 27 -14 99 71 48 62 18
43 31 -14 97 70 48 64 22
41 30 -15 94 66 47 64 29
40 30 -15 92 63 44 63 27
41 33 -14 92 62 43 63 26
39 31 -13 89 59 40 62 29
38 31 -12 86 57 38 60 22
36 28 -10 82 54 34 57 19
33 27 -9 78 51 31 55 16
33 27 -8 73 49 30 53 18
31 26 -7 69 46 27 51 18
30 28 -7 64 43 24 50 10
28 27 -8 60 39 22 48 17
25 26 -5 58 36 20 46 13
25 28 -4 57 33 18 42 9
22 26 -2 54 31 17 39 6
19 22 -1 51 28 12 36 3
18 21 2 48 27 10 33 2
14 19 3 44 25 8 30 5
14 17 1 38 22 5 27 4
12 14 2 35 19 3 25 6
7 12 2 30 16 0 23 -4
5 13 2 29 13 0 22 1
5 14 2 27 10 -1 19 11
5 14 4 27 8 -4 16 7
5 14 4 25 6 -5 15 7
5 11 5 23 4 -7 13 3
5 11 6 21 4 -10 11 2
1 8 7 19 3 -9 9 5
2 7 7 15 3 -10 6 -5
3 7 6 13 2 -12 6 2
-1 6 5 10 0 -13 6 -5
-4 5 5 11 -3 -12 6 4
-3 6 6 11 -3 -13 5 8
-1 7 6 12 -5 -14 3 -1
0 8 7 11 -5 -14 2 5
-1 4 9 11 -5 -15 2 9
-5 1 9 10 -5 -17 -1 8
-2 3 10 9 -4 -15 -1 5
-2 3 9 7 -4 -15 -1 7
-3 2 7 7 -5 -17 -2 3
-2 4 7 5 -6 -18 -2 1
-5 2 6 4 -6 -18 -2 0
-6 2 5 4 -7 -19 -3 0
-6 1 7 6 -7 -19 -3 -2
-5 3 7 6 -8 -19 -3 -1
-2 4 7 6 -7 -19 -3 3
-5 3 9 7 -5 -20 -4 -1
-5 1 8 5 -5 -20 -6 -1
-1 2 8 4 -3 -18 -4 -6
-2 2 7 4 -2 -18 -3 -10
-1 4 7 4 -2 -16 -2 -9
-4 3 5 3 -4 -15 -2 -3
-5 1 5 4 -4 -16 -2 6
-3 2 6 5 -5 -16 -4 -2
-5 2 7 5 -5 -14 -5 -13
-6 -1 7 6 -5 -13 -5 -13
-7 -2 9 8 -3 -12 -4 -11
-5 -1 9 6 -4 -10 -4 -10
-5 1 10 6 -2 -8 -2 -7
-5 1 8 5 -1 -7 -2 -2
-5 2 9 6 0 -5 0 1
-4 3 8 6 -1 -4 0 4
-5 2 7 6 -1 -7 -1 -1
-5 3 9 9 -2 -7 -2 -3
-6 3 9 9 -2 -7 -2 -1
-7 0 9 9 -2 -9 -3 1
-6 0 10 10 -1 -10 -4 -1
-8 -1 11 9 0 -9 -3 0
-5 0 10 7 1 -8 -2 1
-3 2 10 8 1 -8 -1 12
-4 3 9 7 0 -8 -1 10
-4 3 7 8 -1 -8 -1 9
-2 4 7 9 -1 -9 -1 0
-3 3 8 12 -1 -8 -2 10
-4 4 9 13 -2 -8 -1 8
-4 2 9 13 -2 -9 -2 0
-4 1 10 13 -4 -12 -3 6
-2 1 9 12 -3 -11 -3 2
-3 1 10 11 -2 -10 -1 5
-3 2 10 12 -2 -10 -2 0
-3 3 9 12 -2 -8 0 -1
-3 4 8 12 -2 -7 1 4
-1 6 8 13 -3 -7 1 6
-2 6 9 15 -2 -5 1 6
-3 4 10 14 -2 -5 1 5
-2 2 9 14 -2 -5 0 8
-4 0 9 14 -2 -8 -2 1
-3 2 9 13 -1 -8 -2 -4
-2 1 9 11 1 -8 0 -1
-4 -1 9 12 1 -8 0 2
-3 2 7 11 1 -8 0 5
-3 5 6 10 1 -8 0 1
-3 6 7 12 2 -7 1 1
-1 6 8 14 2 -7 2 3
-1 5 8 14 1 -8 1 1
0 4 7 14 1 -8 1 9
-3 1 8 14 1 -10 0 5
-4 0 7 12 0 -12 0 0
-2 2 8 11 1 -10 1 -2
-1 3 7 10 0 -11 1 -5
-4 2 7 10 -1 -10 1 3
-3 4 7 10 -1 -9 2 0
-3 4 7 11 -3 -9 2 1
-2 5 8 12 -3 -9 1 -3
-1 6 7 11 -4 -10 0 0
-1 4 8 12 -4 -10 0 -4
0 6 10 12 -3 -9 0 -1
0 3 9 9 -3 -9 0 8
-2 1 8 7 -4 -11 -1 9
-3 2 7 7 -5 -11 -2 4
-5 1 6 5 -7 -11 -1 6
-3 2 5 5 -7 -8 0 7
-4 1 6 7 -5 -7 1 1
-3 1 7 8 -5 -7 1 -3
-1 4 7 8 -4 -5 1 3
-1 3 6 7 -5 -6 -1 11
-2 2 7 7 -4 -6 -1 -1
-2 2 9 6 -2 -5 1 4
-2 0 7 5 -2 -5 0 4
-1 2 6 3 -2 -4 2 2
-2 2 6 3 -2 -3 2 5
-3 1 5 2 -4 -2 3 2
-2 2 4 3 -4 -2 1 6
-3 1 5 3 -5 -3 1 8
-4 0 4 2 -7 -4 -1 18
-4 0 4 2 -7 -5 -3 13
-5 -1 4 2 -6 -5 -3 7
-3 0 6 2 -4 -3 -2 13
-3 0 5 0 -3 -2 -2 9
-2 0 4 -1 -3 -3 -2 4
-2 2 5 -1 -3 0 -1 15
-6 -1 4 -2 -5 -1 -1 12
-5 -1 3 -2 -6 -2 -2 6
-4 -2 4 -1 -7 -2 -1 0
-6 -2 4 0 -7 -2 -1 3
-5 -2 4 0 -8 -3 -2 4
-4 -3 4 0 -6 -2 -2 9
-4 -3 5 -1 -5 -1 -1 10
-3 -2 5 0 -2 2 1 -1
-4 -2 3 -2 -3 -1 -1 3
-4 -2 2 -2 -4 0 -1 2
-3 -1 2 -3 -6 0 -2 6
-2 -1 0 -3 -6 -1 -3 7
-1 -2 1 -2 -7 -1 -3 4
-4 -3 1 -3 -9 -2 -4 -3
-5 -3 2 -2 -8 -3 -4 5
-3 -2 2 -1 -6 -2 -4 3
-3 -2 3 -3 -6 -3 -4 -3
-1 -1 3 -3 -6 -3 -5 -3
-3 -1 2 -4 -5 -1 -4 1
-2 0 2 -4 -5 -2 -4 7
0 3 2 -4 -4 -3 -3 -2
0 3 1 -3 -4 -3 -3 -1
-1 1 1 -2 -5 -3 -3 -3
-1 0 2 -2 -6 -3 -3 -7
-1 0 0 -2 -7 -5 -3 -6
0 1 1 0 -4 -4 -3 -5
0 2 4 0 -2 -2 -1 -4
-3 6 7 1 0 0 0 5
-3 10 11 5 4 2 4 8
-2 11 12 6 5 3 4 5
0 16 13 6 4 4 5 6
3 20 13 9 6 6 6 8
3 19 14 12 6 6 6 7
1 17 14 11 5 5 5 11
-2 14 15 11 5 5 5 11
-1 15 17 11 5 5 3 5
1 18 19 11 8 6 4 10
0 17 15 7 5 4 3 5
0 14 11 3 4 2 2 8
0 17 6 0 3 4 3 10
2 19 1 -2 2 5 5 5
4 20 0 -1 2 7 6 8
5 21 -2 -1 3 8 6 10
6 22 -2 0 4 9 7 19
10 27 -3 1 6 10 10 17
10 27 -1 4 9 13 11 14
10 29 -1 2 10 12 11 19
10 29 -1 2 11 13 11 12
7 29 -2 0 10 12 11 15
5 30 -1 -1 9 12 12 19
5 31 0 -1 9 13 12 19
5 30 0 0 9 13 12 18
6 29 1 2 10 14 13 20
7 24 -1 3 9 15 12 23
10 25 -3 1 8 13 11 17
13 24 -3 0 9 14 12 18
11 22 -4 -2 9 13 12 15
9 20 -5 -3 9 13 11 15
6 15 -3 -4 10 12 11 13
3 10 -3 -4 9 12 10 11
3 8 -4 -7 5 9 7 8
1 4 -6 -7 2 6 3 6
-2 1 -6 -9 -1 2 0 4
-3 0 -4 -9 -2 1 -1 8
-5 -4 -4 -10 -3 0 -4 2
-6 -4 -3 -9 -1 0 -4 3
-5 -6 -1 -8 0 2 -3 9
-5 -7 -2 -10 -1 1 -4 4
-5 -9 -3 -11 -1 1 -4 5
-7 -12 -5 -14 -5 -2 -8 -1
-6 -11 -7 -16 -8 -5 -9 3
-9 -13 -7 -16 -8 -5 -10 2
-10 -15 -7 -16 -9 -6 -12 -7
-10 -13 -5 -14 -8 -5 -11 -11
-9 -13 -4 -12 -7 -4 -10 -13
-10 -13 -3 -13 -6 -4 -11 -9
-8 -13 -3 -14 -6 -5 -11 -8
-8 -14 -4 -15 -6 -4 -10 -7
-7 -13 -5 -14 -6 -5 -10 -3
-5 -11 -6 -16 -6 -6 -11 -7
-7 -11 -7 -16 -9 -6 -10 -10
-7 -12 -7 -15 -8 -5 -9 -4
-7 -13 -7 -13 -8 -6 -10 -9
-8 -14 -6 -13 -8 -8 -10 -10
-9 -14 -6 -12 -8 -8 -10 -8
-7 -14 -6 -13 -9 -10 -13 -11
-5 -11 -4 -12 -8 -9 -12 -13
-6 -13 -4 -12 -7 -8 -9 -11
-8 -15 -5 -12 -7 -9 -10 -9
-4 -12 -6 -12 -7 -9 -9 -11
-4 -9 -7 -13 -8 -9 -7 -15
-6 -10 -7 -13 -10 -11 -8 -12
-7 -10 -7 -12 -9 -11 -7 -10
-9 -12 -8 -13 -11 -12 -9 -13
-8 -10 -7 -11 -11 -13 -8 -13
-6 -12 -6 -11 -10 -12 -8 -15
-9 -13 -6 -9 -10 -13 -8 -19
-10 -14 -4 -8 -8 -13 -8 -18
-9 -16 2 2 -2 -11 -9 -12
-6 -15 9 14 5 -11 -12 -24
-9 -13 18 29 13 -9 -13 -26
-13 -15 26 42 19 -8 -16 -31
-12 -13 33 59 28 -6 -15 -24
-8 -12 40 81 41 2 -10 -17
-1 -5 50 118 67 20 4 -16
11 12 58 158 103 51 27 -1
20 30 62 186 136 84 57 12
28 44 69 206 163 115 84 29
35 57 82 224 190 147 112 45
45 78 85 218 214 188 150 73
58 112 78 186 235 239 199 111
71 143 66 137 250 293 251 143
80 168 49 80 261 346 301 177
89 197 26 -7 257 397 352 214
94 218 3 -82 245 436 392 242
91 236 -24 -153 226 466 423 269
88 254 -54 -213 212 494 447 290
76 256 -71 -256 188 506 452 300
63 246 -79 -293 155 497 438 289
43 215 -90 -323 108 448 382 247
21 177 -103 -352 38 346 291 197
7 129 -110 -353 -27 220 184 140
-12 86 -100 -337 -75 102 85 88
-30 64 -84 -328 -124 8 18 57
-45 55 -73 -322 -169 -52 -20 28
-51 45 -73 -304 -194 -84 -38 8
-46 36 -80 -278 -188 -87 -37 13
-42 22 -81 -247 -167 -76 -34 10
-38 9 -75 -209 -141 -65 -32 -3
-30 -1 -67 -170 -115 -55 -30 -13
-25 -10 -60 -141 -97 -50 -30 -18
-22 -16 -54 -115 -85 -49 -30 -20
-18 -16 -44 -89 -71 -43 -26 -19
-15 -14 -34 -67 -59 -36 -22 -21
-12 -11 -25 -50 -45 -30 -18 -18
-11 -11 -19 -37 -37 -28 -17 -16
-8 -12 -14 -27 -31 -26 -17 -13
-8 -13 -10 -20 -24 -23 -13 -6
-8 -16 -9 -14 -22 -23 -14 -11
-7 -15 -7 -8 -19 -22 -12 -10
-5 -14 -7 -6 -19 -21 -11 -6
-8 -15 -8 -4 -21 -25 -13 -14
-7 -15 -5 2 -20 -25 -13 -16
-7 -14 -3 5 -19 -25 -13 -14
-6 -14 -1 7 -17 -25 -14 -14
-4 -15 1 9 -12 -25 -14 -11
-4 -17 1 10 -9 -24 -14 -12
-3 -17 1 8 -6 -24 -13 -12
-1 -17 1 9 -2 -21 -11 -10
-3 -18 1 9 -2 -19 -10 -14
-2 -16 -2 8 -3 -16 -10 -14
-3 -16 -2 9 -4 -15 -9 -20
-2 -15 -2 13 -3 -14 -10 -21
-2 -14 0 16 -2 -11 -9 -15
-2 -17 0 17 0 -11 -11 -11
-2 -17 2 18 4 -10 -11 -11
-2 -19 3 18 8 -7 -10 -7
-3 -20 2 16 9 -6 -10 -1
0 -18 2 18 14 -2 -8 -6
-1 -18 2 17 14 0 -7 -9
0 -16 2 17 13 3 -5 1
1 -14 3 19 12 4 -5 -7
-2 -15 3 23 11 5 -6 -12
-1 -13 5 25 11 5 -5 -7
0 -15 6 26 12 7 -6 -4
-3 -17 8 27 13 5 -8 -11
-2 -18 10 27 15 7 -8 -9
0 -16 10 25 17 9 -6 -6
1 -14 9 26 20 10 -5 -5
1 -14 10 27 22 12 -3 4
1 -12 7 27 19 14 -3 3
2 -11 7 28 18 11 -3 0
-1 -13 8 32 18 9 -3 -1
0 -15 7 32 16 5 -4 2
0 -14 10 36 20 5 -2 4
-2 -17 12 38 21 0 -4 4
-2 -18 11 37 21 -1 -5 -5
-1 -16 11 36 23 -2 -3 0
-1 -16 10 36 24 -3 -3 4
3 -14 9 37 23 -3 0 -2
4 -12 7 37 22 -2 2 3
3 -11 7 39 21 -4 2 4
3 -8 7 43 21 -4 1 4
4 -9 7 44 21 -4 1 6
4 -10 7 45 22 -6 0 9
4 -12 9 48 25 -7 -1 6
3 -14 8 47 26 -6 -1 0
5 -15 8 47 29 -5 -1 0
5 -14 6 47 32 -4 -1 -6
5 -13 7 49 35 -1 1 -2
7 -10 5 50 36 4 4 -1
7 -11 5 54 37 5 5 0
8 -11 6 57 37 6 5 7
11 -9 8 60 40 9 6 11
11 -9 8 62 41 8 5 3
11 -12 10 65 44 9 4 2
10 -13 8 65 46 11 4 2
10 -13 8 65 49 13 5 -6
12 -11 8 68 53 17 8 -4
11 -10 7 69 52 20 10 7
11 -9 5 70 53 23 12 7
14 -8 4 72 53 24 12 4
13 -8 6 79 55 27 15 7
17 -5 6 81 57 28 16 3
18 -4 6 84 60 31 17 1
18 -7 7 86 62 32 16 2
19 -7 6 87 65 34 18 0
18 -8 4 87 68 37 19 -2
20 -6 4 90 73 41 22 3
20 -5 3 92 76 45 26 4
21 -5 0 92 76 49 29 0
23 -3 0 96 78 51 32 10
24 -3 0 100 81 53 35 8
26 -2 -1 103 84 57 37 8
29 2 0 108 90 62 40 9
29 0 -1 110 92 64 41 7
31 1 -2 109 96 67 44 9
34 4 -4 109 101 71 46 19
37 6 -5 108 104 74 48 14
39 8 -6 109 106 77 53 12
38 9 -8 108 105 80 56 15
38 10 -10 110 106 80 59 13
39 10 -10 113 106 82 60 14
37 11 -10 114 108 85 62 21
42 15 -11 114 110 86 63 21
43 14 -11 114 111 87 63 17
42 12 -12 112 112 87 63 22
43 13 -12 110 113 89 65 27
43 16 -13 108 115 92 68 21
43 17 -13 108 113 92 71 21
43 20 -15 106 112 94 72 22
41 18 -17 105 108 91 70 25
43 21 -18 107 106 90 70 29
42 22 -17 108 105 90 71 24
40 20 -17 106 104 88 71 27
42 20 -16 105 103 87 69 31
42 21 -15 104 104 88 71 27
41 22 -16 99 104 86 72 25
42 24 -16 97 103 88 72 23
39 23 -16 94 101 87 72 24
40 25 -16 91 98 87 73 25
38 24 -16 89 94 85 70 23
36 21 -15 89 89 82 68 25
36 22 -14 86 87 80 67 26
33 23 -12 84 85 78 64 18
31 21 -10 81 83 74 60 20
31 20 -7 78 82 74 60 19
27 19 -7 71 78 71 56 11
27 20 -5 68 76 70 55 10
25 21 -5 63 72 68 52 12
24 21 -5 59 67 65 51 14
24 22 -4 57 64 63 48 15
21 21 -1 56 60 61 46 12
20 21 -1 52 55 56 42 10
18 20 1 50 53 52 38 1
14 16 2 46 50 47 33 4
13 15 3 42 47 44 30 8
11 14 3 36 44 42 28 8
10 14 4 33 43 41 27 6
10 14 5 30 40 40 25 -5
7 13 5 26 36 39 24 5
5 12 5 26 34 37 22 14
6 11 6 26 31 34 20 1
3 9 8 25 29 32 18 -5
3 9 8 24 27 30 15 -4
0 7 8 21 25 27 11 -2
0 6 9 20 24 25 10 -3
1 6 8 15 23 25 8 -3
-1 5 7 13 21 24 7 -3
-2 5 8 12 20 23 6 -7
-2 7 7 10 17 22 5 -13
-3 5 6 9 16 21 4 -8
-2 6 7 10 15 21 4 -3
-4 5 8 10 15 21 3 -5
-3 3 9 11 15 20 1 -7
-2 2 10 10 16 20 2 -6
-5 0 10 8 15 18 0 -12
-4 1 10 6 17 19 2 -6
-6 1 10 5 18 20 3 -4
-6 -1 9 4 17 19 3 -13
-7 1 9 4 17 20 4 -8
-7 3 7 3 16 19 3 -3
-6 4 8 5 16 19 2 -7
-4 5 10 7 18 19 2 -4
-4 4 10 7 18 18 0 2
-7 1 12 7 20 18 0 -6
-7 2 12 6 21 17 -1 -9
-5 1 11 4 22 18 -2 -8
-4 2 11 3 24 20 -1 -12
-5 2 12 4 25 22 2 -9
-5 3 10 3 24 24 1 -3
-5 3 10 4 23 26 2 -7
-6 2 11 7 22 27 2 0
-6 3 13 10 22 28 3 -4
-6 2 13 10 21 28 1 -7
-7 0 14 10 22 27 1 -9
-5 3 15 10 23 29 1 -9
-4 4 14 9 24 29 1 -3
-8 2 14 7 25 30 1 -7
-6 4 12 6 24 29 1 -9
-7 3 13 6 23 30 2 -2
-6 4 12 8 22 29 2 -1
-7 3 14 10 22 29 3 -3
-10 2 13 10 20 27 1 -3
-8 3 13 10 19 26 0 -4
-8 1 15 12 21 26 1 -2
-7 2 15 11 22 25 1 10
-6 4 14 10 24 27 2 6
-7 3 13 9 23 26 2 -2
-6 4 12 9 22 25 2 4
-7 4 12 10 21 25 4 2
-7 4 11 11 18 23 3 -1
-7 6 12 12 18 24 4 7
-8 5 12 14 15 23 4 6
-10 2 12 13 13 21 2 -8
-10 1 14 15 15 21 3 -6
-10 2 14 14 15 21 2 -3
-8 4 15 15 16 22 3 0
-7 4 15 14 18 23 4 5
-7 5 13 14 16 21 3 8
-6 7 13 14 15 22 6 0
-6 7 12 15 15 21 6 4
-6 7 12 15 15 20 5 9
-5 8 13 18 14 19 5 6
-7 7 12 17 13 17 4 5
-8 5 13 18 15 16 3 0
-7 5 14 17 16 16 3 -4
-6 6 14 17 17 15 3 -1
-4 7 15 15 20 17 4 6
-6 7 14 16 19 16 4 -1
-6 9 14 15 18 17 6 5
-5 10 14 17 18 16 7 3
-6 8 14 16 16 16 6 -5
-6 8 14 16 14 14 5 -1
-7 7 14 16 14 13 5 5
-8 5 15 17 15 11 3 4
-5 7 16 17 15 12 3 4
-7 4 14 15 14 12 3 -3
-8 2 13 13 14 11 3 -4
-6 4 12 12 13 12 4 -3
-8 5 12 13 13 14 6 -5
-6 7 11 12 12 13 6 2
-5 8 12 13 11 15 7 3
-5 8 12 13 10 12 7 0
-5 8 13 14 10 13 7 11
-5 6 11 13 10 10 4 9
-5 6 12 11 10 12 3 11
-5 5 12 11 13 13 5 4
-8 2 11 10 12 12 3 -1
-10 4 10 9 12 12 4 11
-9 6 10 8 12 15 5 8
-7 7 10 10 12 13 5 6
-4 8 11 11 11 13 4 10
-6 7 10 11 10 13 4 0
-6 5 11 11 11 13 3 7
-4 5 11 11 12 13 3 11
-6 3 12 9 12 14 2 -1
-6 2 11 7 12 14 3 3
-6 3 11 7 13 14 2 2
-7 4 10 5 12 13 3 -2
-6 6 10 5 11 15 5 0
-6 6 9 5 9 13 4 -1
-5 6 10 6 8 14 3 11
-6 6 11 7 8 16 3 11
-7 4 11 7 8 14 2 11
-4 5 11 7 8 13 1 7
-3 6 12 6 10 15 1 9
-2 6 11 4 10 13 1 7
-3 5 10 3 9 13 1 7
-6 3 9 1 7 12 0 7
-5 4 8 0 5 12 0 6
-5 4 7 2 5 12 1 9
-7 3 7 2 4 11 0 10
-7 4 9 3 3 11 1 8
-8 3 9 3 4 11 0 6
-9 2 10 4 5 9 0 5
-6 3 11 4 6 11 1 13
-7 2 9 2 5 10 1 11
-8 1 9 1 7 9 1 9
-9 1 8 0 4 8 0 15
-9 1 6 -1 2 7 0 10
-8 3 6 1 2 6 1 17
-8 2 7 2 1 6 0 15
-9 1 6 2 -2 4 -2 9
-8 2 8 3 0 3 -1 12
-10 2 9 3 0 1 -2 11
-8 2 11 3 1 3 -2 14
-8 2 10 2 1 2 -1 13
-9 1 9 1 2 1 -2 14
-7 4 9 0 1 2 -1 19
-7 4 9 0 1 3 0 22
-8 4 8 0 -1 0 -1 13
-8 4 8 2 -2 -2 -2 11
-9 3 8 2 -4 -2 -1 17
-8 3 9 3 -4 -3 -3 18
-8 3 10 4 -2 -4 -3 13
-7 3 10 3 -2 -3 -3 16
-5 4 11 2 -1 -2 -1 17
-7 4 10 2 -1 -2 -2 11
-6 7 9 0 -1 -2 -1 21
-5 11 11 2 1 1 2 24
-4 14 12 5 1 0 3 17
-3 19 15 10 4 2 4 26
-3 21 20 14 6 5 7 19
-4 23 20 14 5 3 7 20
-2 23 22 16 8 5 6 23
-3 22 22 15 8 6 6 32
-4 22 22 15 9 6 8 34
-2 22 22 14 10 6 7 27
-4 22 22 14 10 6 8 26
-2 27 22 15 9 7 8 32
-3 27 22 15 10 8 10 29
-6 26 17 12 7 5 7 26
-2 28 13 9 6 4 7 29
0 27 9 8 3 3 7 35
0 26 7 6 4 2 7 31
1 25 4 5 5 4 8 20
0 23 1 3 3 3 7 29
1 25 0 2 4 2 8 35
5 30 -1 2 5 4 10 32
5 35 1 4 8 7 13 38
7 38 1 6 9 8 14 34
4 39 2 7 9 8 15 32
3 40 4 7 7 9 14 33
3 40 6 8 9 9 15 38
2 40 5 7 7 7 13 36
3 37 5 7 9 8 14 30
2 33 2 5 8 7 13 35
3 32 1 4 7 4 13 34
5 32 0 4 7 5 15 30
5 31 -2 2 4 4 15 27
5 30 -3 2 3 3 14 24
3 28 -1 3 2 3 14 34
1 24 0 3 1 2 13 46
1 20 0 3 0 0 11 29
0 16 -1 0 -1 -2 8 25
-1 12 -2 -4 -5 -7 5 19
-5 9 -2 -4 -8 -9 4 17
-9 5 -3 -7 -11 -13 0 17
-10 5 -2 -7 -11 -13 -1 20
-11 4 -2 -8 -12 -14 -1 17
-14 1 -3 -7 -13 -15 -2 12
-14 2 -1 -5 -13 -15 -2 17
-12 1 -2 -5 -15 -17 -4 8
-12 0 -3 -7 -17 -19 -6 8
-11 -1 -2 -8 -17 -21 -8 5
-12 -4 -2 -9 -17 -21 -7 11
-10 -2 -2 -10 -17 -21 -7 6
-11 -2 -4 -11 -18 -23 -9 -2
-14 -4 -3 -12 -18 -23 -9 6
-13 -3 -3 -11 -20 -22 -7 13
-14 -4 -5 -11 -21 -23 -9 4
-14 -3 -4 -11 -22 -24 -9 4
-12 -2 -3 -10 -22 -24 -9 2
-14 -4 -3 -9 -22 -26 -11 10
-12 -3 -2 -9 -20 -24 -10 10
-12 -3 -2 -8 -19 -24 -9 2
-13 -3 -2 -9 -20 -23 -9 10
-9 0 -4 -10 -19 -24 -10 11
-11 -1 -3 -9 -18 -23 -8 9
-11 -1 -4 -9 -20 -24 -8 9
-12 -1 -4 -9 -21 -24 -8 14
-14 -3 -5 -7 -21 -25 -8 13
-13 -2 -5 -7 -23 -25 -7 9
-14 -2 -2 -4 -21 -26 -5 6
-11 -1 -3 -5 -21 -26 -8 13
-10 0 -4 -5 -20 -26 -6 13
-10 -1 -3 -6 -21 -25 -6 16
-11 0 -4 -6 -21 -26 -5 15
-9 1 -3 -6 -19 -25 -4 13
-8 1 -4 -4 -21 -26 -5 14
-8 0 -1 -1 -19 -26 -6 15
-12 -3 3 7 -15 -27 -9 6
-13 -5 13 24 -8 -26 -11 2
-14 -4 24 39 0 -25 -13 5
-18 -3 33 52 7 -25 -16 0
-17 0 43 70 18 -21 -12 12
-13 4 52 98 37 -10 -5 9
-6 10 64 141 66 9 8 7
7 28 72 181 101 40 33 27
18 49 79 207 136 75 64 45
28 64 86 221 159 104 90 55
35 77 98 227 183 138 118 73
45 97 99 205 202 174 153 94
56 132 94 158 223 226 201 129
68 158 76 97 236 276 249 163
77 180 51 11 233 322 293 195
85 205 24 -73 227 366 337 227
90 225 -4 -138 221 406 376 265
91 249 -39 -203 208 439 413 289
87 269 -69 -260 194 468 437 304
74 270 -92 -304 170 478 442 311
62 265 -117 -343 143 474 430 305
49 234 -138 -372 100 428 382 272
28 188 -149 -386 38 332 299 226
11 137 -146 -376 -21 207 199 166
-5 92 -136 -362 -73 88 100 113
-25 69 -122 -353 -129 -8 34 76
-39 57 -118 -340 -178 -68 -3 51
-45 42 -120 -317 -208 -104 -27 33
-41 34 -117 -284 -204 -106 -29 31
-35 24 -110 -242 -178 -95 -27 22
-31 11 -99 -197 -149 -86 -28 9
-25 1 -82 -157 -125 -78 -28 2
-21 -5 -69 -127 -109 -72 -27 -2
-19 -9 -56 -97 -94 -69 -25 0
-16 -8 -42 -75 -79 -62 -21 5
-15 -6 -33 -56 -68 -55 -18 -3
-13 -1 -23 -39 -57 -50 -14 1
-13 -1 -15 -25 -48 -47 -12 4
-15 -5 -10 -16 -42 -45 -10 5
-14 -7 -6 -7 -39 -43 -9 2
-12 -8 -6 -2 -35 -43 -10 -1
-11 -8 -4 3 -34 -43 -10 -5
-10 -6 -3 6 -31 -39 -7 -2
-10 -6 -3 10 -31 -40 -9 -3
-10 -6 -1 13 -30 -40 -8 -3
-11 -9 0 14 -28 -41 -9 -2
-12 -9 2 15 -26 -40 -8 -2
-10 -9 3 17 -22 -40 -9 -2
-10 -10 3 17 -20 -38 -9 -9
-11 -11 3 16 -18 -37 -8 -7
-10 -8 4 19 -15 -34 -7 -8
-9 -10 3 18 -14 -32 -8 -6
-9 -8 4 20 -13 -27 -6 -5
-9 -9 4 22 -11 -26 -6 -5
-9 -10 4 25 -10 -25 -7 -12
-7 -8 6 26 -7 -22 -5 -10
-6 -7 7 27 -4 -20 -6 -2
-5 -9 6 27 -3 -22 -8 -3
-6 -8 7 28 0 -18 -7 1
-7 -10 5 26 2 -17 -7 6
-7 -9 6 29 4 -15 -6 3
-8 -9 6 29 4 -13 -6 0
-6 -7 8 31 6 -8 -3 3
-4 -5 9 34 8 -7 -4 6
-4 -6 10 36 9 -5 -3 16
-4 -6 12 36 9 -5 -3 23
-4 -6 13 38 10 -4 -3 16
-5 -8 13 38 12 -4 -3 7
-5 -9 14 38 13 -3 -3 10
-5 -10 14 38 14 -5 -3 13
-4 -8 12 38 12 -7 -3 11
-4 -7 14 39 14 -7 -2 12
-5 -7 12 39 12 -8 -2 9
-5 -6 12 41 12 -11 -3 7
-3 -6 14 45 12 -12 -2 13
-4 -6 15 45 13 -13 -2 11
-2 -4 15 47 13 -16 -1 7
-1 -6 16 48 15 -18 -2 6
-1 -6 16 48 14 -19 -1 2
-1 -4 15 48 14 -22 -1 1
-4 -8 14 49 13 -25 -1 1
-2 -8 15 51 12 -26 -1 4
-2 -6 14 52 11 -25 1 3
-3 -8 13 52 9 -27 -1 1
-3 -7 14 56 10 -27 0 -2
-2 -6 15 56 10 -26 0 0
-1 -5 16 58 11 -25 0 5
1 -5 18 61 15 -25 0 5
0 -7 18 62 16 -23 2 3
1 -6 16 62 16 -23 2 4
3 -4 16 64 20 -21 4 11
2 -5 16 64 20 -19 3 1
2 -4 15 67 23 -16 5 5
1 -4 15 70 22 -17 3 0
2 -4 16 73 23 -16 4 3
3 -3 17 74 26 -14 5 2
2 -5 17 77 28 -12 6 -3
4 -5 19 81 32 -10 6 7
6 -4 19 82 34 -7 7 3
6 -3 17 82 35 -6 7 -1
7 -1 18 86 38 -2 9 -1
8 -1 19 89 42 1 11 -3
8 -1 18 91 44 3 12 2
9 0 18 95 44 4 11 13
9 -1 20 99 47 6 13 11
11 -1 21 101 50 8 15 9
12 0 21 104 54 11 16 5
12 -2 21 107 57 11 16 -1
13 -1 20 108 60 14 18 -1
14 1 20 110 64 18 20 9
15 2 20 115 70 21 24 11
18 4 21 117 73 25 26 13
18 5 20 120 77 29 29 13
19 6 19 125 79 29 30 11
20 5 19 127 84 33 32 12
20 4 18 130 86 34 35 24
24 6 19 132 90 38 36 23
25 7 18 135 94 41 38 18
23 7 16 135 96 44 40 13
26 10 14 136 99 46 43 17
29 11 12 137 101 48 47 20
32 14 13 138 104 52 50 26
33 16 11 139 106 57 53 25
33 16 9 140 105 57 53 30
37 20 10 141 108 60 56 31
37 20 9 142 108 63 59 29
37 21 8 142 109 64 60 32
37 21 7 141 110 63 60 34
34 17 5 138 110 64 61 38
34 20 3 136 109 66 62 29
37 24 2 136 110 69 65 35
40 27 2 135 109 70 67 42
40 29 1 135 108 72 68 35
39 28 0 134 106 70 68 34
40 29 0 134 104 70 69 43
42 31 0 133 104 71 69 48
40 30 -1 131 103 70 69 42
41 30 -1 129 103 69 68 41
39 30 -2 125 100 67 68 36
38 28 -3 122 98 66 68 34
38 29 -3 120 96 65 68 35
36 30 -3 116 94 63 67 36
34 31 -3 114 91 63 69 34
35 31 -3 112 88 60 67 40
33 31 -2 110 84 58 66 32
34 32 -1 105 81 57 65 39
33 31 -1 101 79 54 64 42
31 30 1 98 76 50 61 30
30 30 1 92 72 48 61 25
28 28 0 88 68 43 58 21
27 28 1 84 66 41 56 20
27 28 1 79 62 38 53 21
23 27 1 75 56 36 52 11
22 28 2 72 52 32 49 6
21 27 4 69 49 28 45 8
20 26 5 64 45 25 42 5
19 26 7 60 42 23 41 6
17 24 7 56 37 18 36 9
16 24 7 51 35 16 34 9
15 24 8 47 32 15 32 5
13 21 7 44 30 12 29 6
12 21 8 40 27 10 27 5
9 20 6 37 22 9 25 -3
7 17 7 35 19 4 22 0
7 17 8 35 17 3 20 1
7 16 9 32 14 2 18 -2
8 16 9 29 13 1 16 -2
7 14 10 28 11 -1 14 3
6 13 10 25 11 -2 13 7
7 15 10 22 9 -3 11 5
6 13 10 22 9 -3 10 3
5 12 10 19 7 -5 8 6
3 13 10 19 6 -4 10 4
1 9 10 19 4 -6 7 5
2 10 11 19 2 -7 6 13
3 11 11 18 2 -8 4 8
1 9 11 17 1 -10 4 5
1 8 12 17 1 -12 2 10
-1 6 12 15 1 -11 2 7
-2 7 11 13 0 -12 2 16
-1 7 11 14 1 -11 2 11
-1 6 10 13 0 -11 1 8
0 9 10 12 0 -10 3 6
0 8 10 13 0 -12 2 11
-1 7 11 14 -1 -14 1 6
0 8 11 13 -1 -14 0 3
-2 7 10 11 -1 -13 0 10
-3 6 13 12 0 -14 -1 8
-2 8 13 11 1 -14 0 7
-1 7 12 10 1 -14 0 7
1 8 11 10 2 -15 0 11
-2 6 11 11 2 -14 0 6
-2 6 11 11 2 -12 1 8
2 9 12 13 3 -12 1 12
0 8 13 13 4 -12 1 10
-2 7 14 13 4 -10 1 7
-1 8 13 13 5 -8 2 15
-3 5 13 14 4 -10 0 10
-3 6 13 13 5 -8 1 4
-2 7 12 11 5 -7 0 9
-1 7 12 14 6 -5 3 5
1 8 13 14 7 -3 3 10
-1 8 13 14 6 0 3 10
0 8 13 15 6 -2 3 8
1 10 15 17 8 -1 4 19
1 9 16 17 10 0 4 14
1 9 15 17 10 0 4 9
0 7 16 17 10 -1 3 11
-2 7 14 15 9 -2 2 11
-2 7 14 14 10 0 4 13
-3 6 13 15 10 -1 4 14
-1 6 11 15 7 -3 2 14
-1 9 11 15 7 -2 4 20
-3 8 12 17 7 -3 4 21
-1 9 13 18 6 -4 3 17
-1 8 14 19 6 -3 4 10
0 9 12 18 6 -4 4 9
1 8 13 19 6 -5 4 9
-1 6 13 17 4 -7 3 6
0 7 13 18 4 -7 4 12
-1 7 12 18 3 -7 3 12
-4 5 13 19 2 -8 2 6
-3 7 13 18 1 -7 3 5
-2 7 12 20 1 -6 4 6
0 8 14 21 1 -7 3 8
0 10 15 21 3 -5 4 10
-2 8 15 20 3 -5 4 8
-1 9 15 21 6 -6 4 11
2 10 15 20 6 -5 4 20
0 9 14 19 6 -5 5 19
-1 9 13 20 7 -4 5 11
-1 8 12 19 6 -5 4 14
-1 9 12 18 5 -5 5 21
1 9 12 20 5 -7 4 11
-1 8 12 21 5 -8 2 5
0 10 12 20 5 -7 2 3
1 10 12 20 5 -7 3 15
2 9 12 19 5 -9 3 11
4 11 13 19 6 -8 3 6
3 11 11 18 5 -7 4 7
2 10 12 18 5 -8 4 9
2 10 12 19 4 -7 4 21
-1 9 11 18 1 -9 3 10
0 8 11 19 0 -9 4 6
1 10 12 20 -1 -9 4 13
0 9 11 18 -2 -9 3 9
1 9 12 17 -2 -10 3 8
1 9 12 17 -2 -10 2 7
2 10 13 16 -1 -10 2 9
3 10 13 16 -1 -9 3 13
2 8 13 15 0 -9 4 13
2 9 11 15 -1 -9 3 14
0 8 11 15 -2 -9 3 11
-1 7 10 15 -3 -7 3 4
0 8 11 15 -2 -9 3 10
0 7 11 15 -4 -10 2 15
-1 6 11 13 -4 -12 2 13
-1 5 11 13 -2 -10 3 9
-2 5 11 11 -3 -11 1 -1
1 6 11 11 -1 -9 2 8
1 6 10 12 1 -9 3 14
1 6 10 11 0 -9 2 13
1 8 11 10 0 -8 3 8
-1 6 10 11 0 -7 2 9
0 7 11 11 0 -7 2 9
3 8 11 9 -2 -8 1 10
1 5 10 8 -3 -9 -1 5
1 5 10 8 -2 -9 -1 7
1 6 11 8 -1 -8 -1 11
1 6 10 6 -2 -7 1 9
2 6 11 7 1 -5 0 7
1 5 10 7 1 -4 0 9
1 7 10 6 0 -4 0 10
2 7 10 8 1 -2 1 10
1 6 11 8 2 -2 -1 11
2 7 11 7 0 -1 0 13
1 6 10 6 0 -2 0 20
1 4 10 6 0 -3 -1 8
1 6 12 6 1 -1 0 7
-1 4 10 4 1 -1 -1 8
-1 2 10 3 0 -2 -1 3
0 3 9 4 0 -2 -2 8
-1 3 9 3 -1 -1 -2 11
2 5 9 5 1 1 0 11
2 5 11 6 2 2 -1 7
1 5 9 5 0 1 -2 13
0 4 10 4 1 0 -1 24
-3 0 9 2 0 -1 -3 13
-2 1 9 2 -1 -2 -2 7
-2 1 8 2 0 -1 -2 3
-3 0 8 1 0 -3 -3 -2
-1 1 9 2 0 -3 -3 0
-2 2 10 2 0 -2 -2 1
-1 1 9 3 0 -2 -3 9
0 3 10 3 0 -2 -3 13
0 2 9 3 -1 -3 -4 5
0 1 11 3 0 -2 -2 14
2 2 10 3 1 -3 -3 11
1 2 10 2 0 -4 -2 6
2 2 11 1 0 -4 -3 4
1 0 10 1 -1 -6 -3 5
0 0 9 1 -2 -7 -4 2
0 2 9 1 -3 -6 -3 3
0 2 8 3 -3 -6 -4 5
2 4 10 5 -2 -5 -3 10
3 3 12 5 -2 -4 -4 11
1 2 12 4 -2 -5 -4 11
3 3 12 5 0 -4 -3 13
3 4 12 4 0 -3 -3 7
3 5 13 4 0 -2 -2 8
4 10 15 7 2 1 0 16
2 12 18 11 5 1 1 17
3 16 23 15 9 5 5 15
6 18 23 16 9 6 6 14
5 18 23 16 8 5 5 20
6 19 24 18 9 6 5 17
6 18 23 16 9 7 4 18
6 19 26 18 11 7 5 21
7 20 27 18 12 8 6 20
5 21 27 17 12 9 5 15
5 23 27 17 13 11 7 24
5 22 22 13 11 8 6 25
5 21 17 9 10 8 5 17
8 23 13 9 10 9 6 13
8 22 9 6 9 8 5 14
8 20 7 5 8 8 5 17
11 21 6 5 9 9 6 18
13 23 6 5 10 9 7 12
15 27 5 6 12 12 10 23
15 30 6 7 14 14 11 23
14 29 6 7 15 15 11 21
14 30 7 7 15 16 12 22
12 32 7 6 15 15 12 19
11 32 8 6 14 15 12 21
10 31 10 6 14 14 11 22
11 28 8 6 12 15 10 23
13 27 7 6 13 15 10 22
13 25 7 5 13 13 9 21
15 23 6 4 12 13 10 23
17 22 5 4 11 14 10 23
15 21 4 2 12 13 10 23
14 20 5 4 12 14 9 14
13 19 5 2 12 14 8 15
12 13 4 2 9 12 5 11
11 9 2 -1 5 8 2 11
7 6 2 -2 3 7 1 22
3 2 3 -6 0 3 -2 13
2 2 4 -6 0 2 -4 7
0 -1 4 -7 -1 1 -6 5
-3 -3 6 -5 -2 1 -6 0
-2 -5 6 -6 -1 1 -7 1
-4 -6 6 -6 -2 0 -8 -2
-2 -6 6 -6 0 2 -7 2
-1 -7 5 -7 -3 -1 -10 0
-2 -9 4 -9 -5 -2 -11 2
-2 -9 5 -9 -5 -2 -11 2
-4 -11 3 -11 -8 -2 -13 -13
-4 -10 4 -9 -6 -3 -13 -12
-3 -9 4 -11 -6 -4 -12 -9
-4 -11 2 -11 -8 -5 -13 -9
-3 -11 3 -11 -6 -3 -12 -3
-3 -10 4 -11 -6 -3 -12 -4
-2 -10 3 -11 -7 -2 -12 0
-1 -8 4 -9 -6 -1 -12 -2
-2 -8 3 -10 -7 -2 -12 -5
-2 -8 4 -9 -7 -2 -12 -5
-1 -8 5 -10 -6 0 -11 -6
-1 -9 4 -9 -7 -2 -13 -10
0 -7 4 -9 -6 -1 -11 0
-3 -8 5 -8 -4 0 -10 3
-4 -10 4 -9 -5 -2 -10 -6
-2 -9 5 -8 -5 -1 -10 -3
-3 -9 4 -8 -6 1 -9 12
1 -6 5 -6 -5 2 -9 0
1 -7 5 -6 -6 1 -9 -1
-1 -7 6 -6 -6 1 -9 7
0 -6 6 -6 -5 1 -9 -4
-2 -8 7 -6 -5 1 -10 -5
-3 -9 7 -6 -5 1 -9 -2
-1 -7 8 -4 -3 1 -9 -4
-4 -11 7 -3 -3 -1 -10 -1
-5 -11 12 4 0 0 -11 -8
-5 -11 20 18 7 2 -12 -5
-7 -11 30 34 14 1 -15 -7
-8 -7 41 48 22 2 -17 -15
-8 -4 49 65 30 7 -15 -8
-4 0 57 89 45 15 -10 -5
3 5 69 127 72 33 2 -1
13 17 79 168 105 61 25 2
25 35 86 196 141 96 53 24
35 53 94 216 170 128 83 44
44 69 104 225 193 158 108 58
57 91 110 219 220 197 143 79
67 121 108 188 248 245 188 121
81 148 91 138 266 295 235 156
92 172 67 55 264 338 279 178
99 194 39 -38 256 378 319 209
106 217 11 -113 249 414 357 240
109 240 -23 -188 236 445 392 267
103 259 -53 -252 221 473 416 284
96 264 -81 -298 201 485 423 298
80 260 -110 -341 178 478 415 297
64 233 -134 -372 139 440 373 262
46 188 -147 -385 80 350 295 211
26 136 -146 -380 17 230 197 159
10 91 -136 -364 -37 117 104 106
-11 66 -121 -353 -92 28 37 68
-25 51 -118 -341 -143 -30 -1 42
-30 37 -116 -319 -177 -65 -25 32
-31 25 -111 -287 -178 -73 -32 12
-26 17 -103 -244 -153 -62 -30 9
-20 6 -88 -199 -125 -52 -29 3
-16 -5 -75 -163 -104 -48 -31 -7
-12 -10 -64 -130 -87 -44 -30 -8
-9 -12 -50 -101 -72 -39 -28 -12
-6 -9 -37 -76 -59 -33 -23 -13
-6 -8 -25 -54 -46 -26 -18 -10
-6 -8 -15 -37 -35 -20 -16 -8
-5 -9 -6 -22 -26 -16 -14 -15
-2 -6 -1 -14 -21 -15 -13 -15
-1 -10 3 -7 -15 -12 -11 -11
1 -10 5 -2 -11 -11 -10 -7
2 -9 5 0 -11 -10 -11 -10
2 -9 4 3 -11 -10 -11 -6
1 -9 5 6 -11 -10 -12 -7
0 -10 6 9 -11 -11 -12 -7
0 -11 8 12 -10 -11 -12 -6
1 -13 9 13 -9 -12 -15 -18
-1 -15 10 14 -6 -13 -16 -22
0 -14 13 14 -3 -12 -14 -16
1 -14 11 13 1 -10 -15 -14
2 -13 12 15 5 -6 -12 -15
4 -11 11 15 7 -4 -11 -13
3 -11 10 15 7 -2 -11 -18
4 -10 10 18 8 1 -10 -18
6 -8 10 20 8 1 -10 -19
5 -10 10 21 8 4 -9 -16
7 -12 10 21 9 5 -11 -14
6 -13 11 23 12 7 -11 -18
6 -13 12 23 14 7 -10 -13
7 -12 11 24 17 10 -8 -12
7 -12 11 25 19 13 -7 -19
9 -10 12 26 21 16 -6 -11
6 -10 12 26 21 18 -6 -14
3 -13 12 29 22 20 -6 -12
6 -10 16 32 23 21 -5 -4
7 -8 18 34 24 23 -4 -7
7 -10 19 35 23 23 -5 -8
7 -12 19 35 25 22 -6 -6
6 -13 20 34 25 21 -7 -9
7 -13 19 34 28 22 -5 -13
8 -12 18 34 29 22 -4 -8
6 -12 18 35 30 21 -4 -10
7 -9 17 36 28 20 -4 -6
8 -7 16 39 29 19 -3 -4
9 -7 18 41 29 18 -4 -12
10 -7 20 44 30 17 -4 -12
10 -8 20 44 30 14 -4 -6
11 -8 21 46 32 13 -4 -2
10 -9 21 44 30 9 -6 -10
9 -11 19 44 30 8 -4 -4
10 -9 19 44 31 7 -3 -3
9 -10 19 46 30 6 -3 -3
9 -9 19 48 29 5 -2 -6
11 -7 18 51 29 4 -2 -6
11 -7 20 53 27 3 -2 -5
13 -7 21 56 27 4 -1 -5
13 -7 22 57 27 4 0 -6
13 -8 23 58 28 3 -1 -5
15 -7 23 59 30 4 0 -10
15 -8 23 61 32 6 1 -14
15 -7 22 60 33 7 1 -8
15 -6 21 62 35 9 3 -4
14 -6 20 63 33 9 3 -4
15 -5 19 66 34 10 3 -6
16 -5 20 70 35 11 3 -17
16 -5 21 73 38 14 5 -10
18 -3 22 75 40 15 4 1
18 -6 22 77 42 15 3 -1
19 -4 22 77 45 17 4 -9
22 -3 22 80 50 22 6 -13
20 -4 22 82 52 24 7 -10
20 -4 22 84 55 27 9 -7
21 -2 21 86 55 28 10 -4
21 -2 20 90 56 29 11 -12
21 -1 22 96 59 31 12 -5
21 -3 22 99 61 33 13 -7
21 -1 24 102 64 34 14 -5
22 -2 25 106 69 37 15 -2
23 -2 24 106 72 38 16 0
27 -1 24 110 78 44 20 3
29 1 23 111 82 46 21 2
29 2 22 114 86 50 24 0
30 4 22 118 88 53 27 6
31 4 21 120 90 54 29 5
33 5 21 125 94 56 32 14
33 7 21 128 98 59 34 14
33 6 21 129 100 61 34 14
36 8 21 131 103 63 36 15
39 10 20 132 107 67 40 20
41 12 18 133 109 70 42 18
43 15 17 134 113 74 46 20
43 14 14 134 114 76 47 30
44 17 14 135 116 79 51 28
47 20 13 137 117 84 54 30
46 21 12 138 117 86 56 26
48 23 11 138 117 86 56 23
48 23 11 137 117 87 57 24
48 21 10 137 117 87 58 26
49 22 9 134 117 89 59 26
47 23 7 132 119 91 62 28
48 26 5 131 118 92 63 31
49 27 5 129 119 95 65 31
50 28 3 128 115 94 66 27
52 30 2 128 114 95 68 33
52 31 1 126 111 94 67 34
52 30 2 126 110 94 68 30
52 32 2 126 109 92 67 31
50 30 2 122 107 89 66 25
51 31 2 119 106 89 68 24
51 31 1 117 106 89 69 27
50 31 -1 114 104 88 68 26
48 32 -1 111 102 88 69 35
47 33 -1 109 99 87 70 31
48 36 -1 106 98 84 70 27
49 38 0 104 95 83 68 24
47 35 1 101 91 80 66 22
46 35 1 97 86 76 63 25
42 31 2 93 84 72 61 19
40 28 2 88 80 68 58 15
39 29 3 83 79 67 58 15
37 29 3 80 74 63 55 11
35 28 3 75 71 60 54 -2
34 30 4 71 68 59 52 -2
32 30 4 67 63 55 48 -2
33 32 6 66 60 53 47 0
31 30 9 64 57 52 45 -1
28 27 10 59 53 48 41 0
28 26 12 56 53 45 38 -1
25 24 13 52 51 45 36 -2
22 24 13 47 49 42 33 -9
21 23 12 45 45 39 31 -12
18 19 14 42 42 38 30 -14
18 20 12 39 39 36 27 -12
17 19 13 36 36 33 24 -12
16 18 14 36 33 31 23 -7
16 19 17 35 32 31 21 -10
14 16 15 32 29 28 18 -7
13 14 17 30 29 25 15 -8
12 13 18 29 29 25 15 -2
10 11 17 26 28 25 13 -7
13 12 16 24 27 24 13 -11
11 11 16 21 25 23 12 -4
11 11 14 20 22 21 9 -9
11 12 15 20 23 20 9 -11
9 9 15 20 20 19 9 -6
8 8 16 20 19 18 7 -4
8 10 16 20 18 17 6 -6
7 7 19 20 19 17 5 -3
8 8 19 19 20 17 5 0
7 7 19 19 22 17 6 -5
7 6 17 17 21 16 5 -6
7 6 17 16 21 16 6 -6
6 6 14 15 18 14 4 -7
5 6 15 17 20 16 4 -4
5 5 16 17 18 15 5 -7
3 3 16 16 17 13 3 -12
5 4 15 15 17 12 2 -9
6 4 17 16 19 12 2 -4
7 5 17 15 20 12 3 -10
8 8 17 15 22 14 3 -11
4 5 16 13 20 13 2 -12
2 4 17 13 21 14 3 -13
4 7 16 15 22 17 5 -10
5 7 15 15 22 16 4 -3
7 8 16 16 21 17 5 -2
7 7 17 17 22 17 4 -7
5 5 16 16 22 16 3 -11
6 7 18 17 22 19 4 -11
7 7 19 17 24 22 6 -6
8 9 19 17 26 24 6 -1
6 7 19 17 25 25 7 0
6 5 18 17 26 25 7 2
7 7 18 18 27 27 8 2
8 9 17 20 28 28 8 2
6 8 18 21 27 28 8 2
5 6 19 21 28 28 7 2
3 5 18 20 26 25 6 -5
4 5 18 20 26 24 7 -1
4 4 19 20 29 26 7 7
2 3 18 19 28 25 6 6
4 4 17 19 27 25 7 3
4 6 16 20 27 25 7 2
5 8 15 20 26 25 8 11
7 10 15 20 26 25 8 9
5 8 15 21 25 24 8 1
5 8 16 22 24 22 7 3
4 7 17 23 23 21 7 5
3 6 16 22 21 18 6 5
4 6 17 23 22 19 6 1
3 6 16 21 21 18 5 4
2 6 16 21 22 18 6 0
4 6 16 22 22 19 7 -1
4 7 16 22 22 21 7 1
6 10 16 23 22 20 7 0
6 9 16 23 21 21 8 6
4 8 16 23 20 20 8 10
6 10 18 24 22 21 9 4
6 9 18 24 23 20 8 4
6 8 19 23 24 21 9 1
5 7 18 22 25 20 8 4
5 7 15 22 24 19 8 -1
4 7 16 23 25 20 9 -3
4 6 15 22 26 20 8 -4
5 9 15 24 26 19 8 -6
7 10 16 24 25 19 9 0
5 10 14 23 24 18 6 1
5 11 15 23 23 17 6 -1
6 12 16 24 24 16 7 0
6 10 15 22 23 16 6 4
6 11 14 21 23 15 6 6
5 10 13 20 21 14 6 -1
4 9 14 20 20 15 7 1
6 10 13 20 19 16 8 1
4 10 13 21 19 15 9 6
4 9 12 20 15 12 9 1
4 8 13 20 15 12 8 0
6 9 12 20 15 11 7 -4
8 9 14 21 16 13 9 -6
6 7 14 20 16 14 9 -5
6 8 13 19 16 13 7 -1
5 7 12 17 15 12 8 5
3 6 12 17 15 11 9 1
4 9 11 17 14 12 9 0
4 9 11 17 14 12 9 -1
4 7 11 17 12 10 9 0
5 9 12 18 13 10 9 3
5 9 11 18 12 9 9 -4
5 8 12 18 12 7 8 2
6 10 12 18 12 8 8 6
4 9 11 16 13 9 7 -5
5 10 11 15 12 8 7 0
7 10 12 16 14 10 8 0
6 9 9 14 12 10 7 -6
6 10 10 16 13 10 7 -1
4 8 11 16 11 8 7 9
3 6 10 15 10 7 6 5
5 9 11 15 11 8 6 0
3 7 11 15 11 8 5 -2
4 8 12 14 12 10 6 0
3 8 11 14 13 10 6 7
2 8 10 12 12 9 6 1
5 9 11 13 14 13 7 -1
6 11 9 12 13 13 7 3
7 12 8 12 11 11 5 2
6 11 9 13 11 12 6 2
4 9 8 12 9 10 4 2
3 9 9 12 11 10 4 6
3 7 8 10 9 9 2 -2
2 5 6 7 8 7 2 -7
3 7 6 8 9 8 3 2
3 6 7 8 11 11 5 2
3 6 8 9 11 12 6 -4
5 8 7 9 12 14 6 1
4 7 7 9 11 15 6 1
4 9 7 10 11 15 6 -3
3 7 8 10 11 14 5 -4
2 6 7 10 9 12 4 -5
2 6 8 10 10 13 3 -1
2 6 9 9 11 12 4 4
1 5 9 8 12 13 5 1
2 4 8 8 11 13 5 -4
2 4 8 8 12 13 5 4
4 8 9 9 12 13 5 1
3 7 10 7 10 14 5 -5
2 6 10 9 10 12 4 -6
3 7 11 10 10 12 4 0
3 8 10 9 9 11 3 -2
3 7 10 8 9 9 1 -3
3 7 10 8 10 8 1 -5
2 5 8 5 8 6 0 -3
2 5 8 6 9 6 1 2
2 5 9 7 9 7 3 10
3 7 8 7 9 7 3 7
5 8 9 7 8 9 5 8
4 8 10 9 8 9 5 10
4 9 10 11 8 8 4 8
6 10 11 11 9 9 3 3
5 10 11 11 9 8 3 -2
5 9 11 11 11 8 4 2
5 9 10 9 11 8 4 5
5 10 10 9 10 8 5 10
5 15 13 12 13 11 7 17
5 19 16 16 16 14 9 10
6 21 20 19 17 15 11 10
7 24 21 21 19 16 12 11
7 24 22 22 19 17 12 14
10 27 23 23 21 18 14 18
9 26 24 24 23 20 14 19
6 25 24 24 23 17 12 14
4 25 26 23 24 18 12 17
4 26 24 23 24 18 13 18
7 31 25 22 24 19 14 17
8 31 22 21 25 21 15 21
7 28 16 16 20 19 13 21
7 28 13 14 19 18 13 21
9 30 10 14 19 20 13 16
11 29 7 13 19 18 12 15
13 29 7 13 21 20 13 20
13 29 5 12 23 20 13 20
15 33 5 14 25 22 16 26
17 38 6 15 27 25 19 29
15 38 6 16 27 26 20 27
15 39 6 16 28 26 21 26
13 40 7 15 27 26 21 27
12 40 6 14 24 24 20 25
11 40 9 16 25 26 20 29
12 39 8 16 24 25 20 30
15 38 8 16 26 26 20 27
15 35 6 15 26 25 19 20
15 33 5 13 24 24 18 19
19 33 2 11 24 24 18 23
17 32 2 10 23 25 19 27
15 30 2 10 22 25 19 25
13 26 1 9 21 24 17 22
11 22 1 9 18 20 13 15
9 19 1 8 16 17 12 12
8 17 0 6 14 16 10 14
4 14 1 4 12 14 8 16
3 11 1 1 11 11 6 7
2 8 1 0 11 10 3 2
2 7 3 1 11 11 4 8
2 8 5 2 12 12 3 5
0 5 3 3 10 10 2 0
0 4 2 2 8 8 1 0
-1 2 2 0 6 6 -1 -3
-2 2 2 0 4 4 -1 1
0 1 1 -1 3 3 -2 -7
-2 0 1 -2 4 3 -4 -11
-3 -1 1 -2 4 2 -4 -7
-2 -2 2 -3 5 3 -4 -8
-2 -1 2 -4 5 4 -2 -5
-1 2 1 -4 6 6 -3 -6
-2 2 2 -3 6 7 -1 2
-2 1 1 -3 5 6 -2 -4
1 3 1 -1 5 6 -3 -1
-1 1 3 0 6 8 -2 -3
-1 0 2 -2 5 5 -3 -5
-1 0 2 -1 7 6 -4 -7
-3 -1 1 -1 6 5 -4 -9
-2 1 1 -2 6 5 -3 -10
-2 1 1 -2 7 6 -2 -4
-2 1 0 -1 7 7 -3 -3
-1 4 2 0 7 8 -1 0
-1 4 2 0 7 8 0 -5
1 6 1 1 5 6 -1 -6
3 6 2 3 7 8 0 -5
0 4 1 1 5 5 0 4
-1 3 2 1 6 6 0 6
-3 1 1 1 5 5 0 -3
-4 0 1 0 5 4 1 0
-1 1 1 2 6 5 1 2
-1 0 2 3 7 6 -1 -4
-3 0 4 6 7 6 -1 5
-4 0 8 15 11 6 -3 3
-6 -2 18 32 20 7 -6 -9
-5 2 29 46 29 9 -7 -19
-6 4 38 60 36 11 -8 -13
-7 8 46 75 47 16 -6 -13
-3 10 53 101 64 27 2 -10
4 14 63 139 91 48 17 -3
17 32 70 175 126 79 45 12
30 53 74 201 158 113 74 32
39 66 84 224 184 143 102 45
49 81 93 236 210 175 129 63
61 106 96 231 237 218 170 87
76 139 89 200 261 267 218 123
88 166 76 157 281 318 266 159
98 189 54 82 282 362 311 190
106 215 27 -9 272 400 352 224
112 236 0 -91 258 433 389 255
108 258 -31 -166 245 465 422 284
103 272 -57 -224 230 486 439 300
92 270 -75 -267 206 490 441 301
74 259 -93 -305 176 476 420 282
55 223 -110 -336 123 414 357 244
32 176 -121 -352 52 302 263 190
18 127 -120 -344 -7 179 157 132
-1 91 -109 -332 -57 75 72 85
-22 75 -96 -328 -111 -1 18 54
-34 63 -90 -317 -152 -46 -12 36
-38 49 -93 -295 -169 -66 -26 15
-34 39 -93 -263 -161 -65 -26 9
-27 30 -88 -224 -138 -54 -24 7
-23 16 -79 -182 -113 -47 -25 -3
-18 7 -67 -145 -91 -40 -23 -1
-16 1 -57 -116 -78 -36 -22 -10
-14 -2 -47 -90 -67 -34 -21 -15
-10 -1 -35 -67 -53 -28 -16 -12
-8 2 -25 -46 -40 -20 -11 -7
-4 5 -16 -29 -28 -14 -9 -7
-1 6 -8 -15 -17 -8 -6 -11
0 3 -5 -8 -13 -6 -5 -7
1 1 -2 -1 -7 -3 -3 -12
-1 -2 0 4 -5 -4 -4 -11
-1 -1 0 7 -5 -3 -3 -8
2 1 0 10 -5 -4 -3 -1
0 0 2 14 -5 -5 -4 -4
0 -2 2 17 -4 -7 -6 -7
1 -1 4 19 -3 -7 -6 -1
0 -3 7 20 1 -7 -7 -5
2 -3 9 24 6 -7 -6 -10
4 -4 8 22 7 -7 -7 -14
5 -4 7 21 9 -5 -5 -12
5 -2 8 23 12 -2 -3 -10
5 0 8 25 14 0 -1 -11
5 -1 6 24 11 2 -1 -16
4 0 5 25 11 3 -2 -12
2 -3 6 27 11 4 -3 -19
4 -2 7 28 11 4 -2 -19
6 -2 7 29 14 5 -4 -18
7 -1 8 32 18 8 -3 -12
9 0 9 32 22 11 -1 -4
6 -3 8 30 22 13 0 -15
6 -3 8 32 25 15 -1 -19
10 1 8 33 26 19 1 -15
11 2 8 33 25 22 2 -12
11 2 10 35 26 23 2 -14
9 1 11 37 27 22 1 -8
7 -1 13 39 27 22 2 -6
8 -2 15 40 29 23 2 -9
7 -3 14 40 31 22 1 -5
9 -3 15 40 31 22 1 3
8 -3 15 39 32 23 2 -4
7 -2 14 40 33 23 2 -13
9 1 14 41 33 24 4 -12
9 1 14 42 32 23 4 -6
10 1 15 44 33 23 4 -5
10 3 14 46 34 20 3 -6
9 0 15 47 33 17 4 -6
8 0 16 49 34 14 3 -9
9 -1 16 50 36 12 2 -2
9 -2 15 50 35 9 2 0
10 -3 13 48 35 8 3 -8
9 -2 12 49 35 7 3 -13
11 1 12 51 35 8 5 -8
15 5 13 53 34 7 7 0
15 5 12 54 33 5 6 0
14 4 14 59 33 5 6 -6
14 5 15 60 33 5 7 -2
13 2 16 62 36 5 7 -7
15 2 15 62 38 4 6 -7
15 2 14 62 38 5 6 1
14 0 14 62 39 5 7 1
15 1 12 64 41 5 7 -5
16 3 12 65 39 6 9 -3
18 6 13 68 41 9 10 0
18 4 12 69 42 9 9 1
17 5 12 73 44 10 8 -3
20 8 14 75 46 12 9 -3
20 6 14 78 49 14 9 0
19 4 15 80 51 15 9 -5
19 5 16 81 54 18 11 -2
18 2 14 81 55 19 12 2
20 4 13 84 58 22 14 -2
21 5 13 86 58 24 16 -3
22 5 11 87 57 24 18 3
23 5 11 90 58 26 19 3
24 8 12 95 60 28 20 -1
26 9 13 97 62 30 22 0
27 8 15 101 67 33 23 16
27 7 15 103 70 34 23 5
28 9 13 104 73 37 25 -1
29 6 13 107 76 40 29 3
29 7 12 110 79 42 31 5
31 11 11 112 80 45 33 4
31 12 7 112 80 45 34 -1
34 12 7 116 82 47 36 4
36 15 8 121 86 51 38 8
36 15 7 122 89 53 41 8
39 16 6 124 94 56 43 11
40 16 6 125 98 59 45 12
40 17 5 126 100 63 48 6
44 20 3 125 102 67 51 9
46 21 1 126 106 70 55 17
48 24 0 127 106 73 61 19
49 25 -3 127 107 75 63 22
48 25 -4 127 106 77 63 21
49 26 -4 131 109 80 66 22
49 26 -4 130 109 80 68 24
49 26 -5 130 109 80 68 25
52 28 -5 129 111 81 69 18
53 31 -7 127 111 82 71 19
54 33 -8 125 111 83 73 19
55 34 -9 124 111 84 75 26
53 34 -10 123 109 85 77 31
54 35 -12 122 106 85 77 31
54 35 -12 121 104 84 77 36
53 34 -11 122 104 83 77 29
51 35 -10 121 103 82 77 28
50 34 -11 119 103 81 76 30
51 33 -10 117 102 78 76 31
52 35 -11 115 101 79 76 23
