I II V1 V2 V3 V4 V5 V6
-6 -5 7 7 0 6 -9 5
-6 -5 7 7 0 6 -9 5
-6 -5 7 7 0 7 -9 5
-7 -6 7 8 0 8 -9 4
-7 -6 7 8 0 9 -9 4
-7 -6 7 8 0 9 -9 4
-8 -7 7 9 1 10 -9 3
-8 -7 7 9 2 10 -9 3
-7 -6 8 9 2 10 -9 3
-7 -6 8 9 3 10 -9 3
-7 -6 8 9 3 10 -9 3
-6 -5 9 9 4 9 -10 4
-6 -5 9 10 4 9 -10 4
-7 -6 9 10 5 10 -10 4
-7 -6 9 11 5 10 -10 4
-7 -6 9 11 5 10 -10 4
-8 -7 8 12 6 11 -10 4
-8 -6 8 12 6 11 -10 4
-8 -5 9 12 6 11 -10 4
-8 -4 9 12 6 11 -10 4
-8 -3 9 12 6 11 -10 4
-7 -2 10 12 5 11 -9 5
-7 -3 10 13 6 11 -9 5
-8 -3 10 13 7 10 -9 5
-8 -4 10 14 8 10 -9 5
-8 -4 10 14 8 10 -9 5
-9 -5 10 15 9 9 -8 4
-9 -5 10 15 9 9 -7 5
-8 -4 10 15 9 10 -6 6
-8 -4 10 15 9 10 -5 7
-8 -4 10 15 9 10 -5 7
-7 -3 11 16 9 11 -4 8
-7 -3 11 16 9 11 -4 8
-7 -4 11 16 9 11 -4 8
-7 -4 11 16 9 11 -4 8
-7 -4 11 16 9 11 -4 8
-8 -5 12 16 10 12 -5 7
-7 -4 12 16 10 12 -5 7
-6 -3 12 16 10 12 -5 7
-5 -2 12 16 10 12 -5 7
-5 0 12 16 10 12 -5 7
-4 1 11 17 11 11 -4 7
-5 1 11 16 11 11 -4 7
-5 1 11 16 11 11 -4 7
-6 1 11 15 11 11 -4 7
-6 1 11 15 11 11 -4 7
-7 0 10 14 11 11 -5 8
-7 0 10 14 11 11 -5 8
-6 0 10 14 10 11 -5 7
-6 0 10 14 10 11 -5 7
-6 0 10 14 10 11 -5 7
-5 -2 9 14 9 11 -4 6
-5 0 9 14 9 11 -4 6
-5 0 9 13 9 11 -4 6
-5 1 9 13 9 11 -4 6
-5 1 9 13 9 11 -4 6
-4 2 8 12 8 11 -4 7
-4 1 8 12 8 11 -4 7
-4 1 7 11 7 11 -4 7
-4 0 7 11 7 11 -4 7
-4 0 7 11 7 11 -4 7
-5 -2 6 10 6 10 -4 8
-5 -2 6 10 6 10 -4 8
-5 -2 6 10 5 10 -4 8
-5 -2 6 10 5 10 -4 8
-5 -2 6 10 5 10 -4 8
-5 0 6 9 4 9 -3 8
-5 0 6 9 3 9 -3 8
-5 0 5 8 2 8 -4 8
-5 0 5 8 1 8 -4 8
-5 0 5 8 1 8 -4 8
-4 -2 4 7 0 7 -5 7
-4 -2 4 7 0 7 -5 7
-4 -2 4 7 1 7 -4 7
-4 -2 4 7 1 7 -4 7
-4 -2 4 7 1 7 -4 7
-3 -2 4 8 2 7 -3 8
-3 -2 4 7 1 7 -3 8
-4 -2 3 6 0 6 -3 7
-4 -2 3 5 -2 6 -3 7
-4 -2 3 5 -2 6 -3 7
-5 -2 2 4 -3 5 -4 6
-5 -2 2 4 -3 5 -4 6
-4 -2 2 4 -3 5 -4 5
-4 -2 2 4 -3 5 -4 5
-4 -2 2 4 -3 5 -4 5
-3 0 3 3 -3 5 -5 4
-3 0 3 3 -3 5 -5 4
-3 0 3 3 -3 5 -5 4
-3 0 3 3 -3 5 -5 4
-3 0 3 3 -3 5 -5 4
-3 -2 2 2 -4 4 -5 5
-3 -2 2 2 -4 4 -5 5
-3 -2 2 2 -4 4 -5 5
-3 -2 2 2 -4 4 -5 5
-3 -2 2 2 -4 4 -5 5
-4 -2 2 2 -4 4 -5 5
-4 -2 2 2 -4 4 -5 5
-4 -3 2 2 -5 4 -5 5
-4 -3 2 2 -5 4 -5 5
-4 -3 2 2 -5 4 -5 5
-4 -4 2 1 -6 3 -6 6
-4 -4 2 1 -6 3 -6 5
-4 -4 2 1 -6 3 -6 5
-4 -4 2 1 -6 3 -6 4
-4 -4 2 1 -6 3 -6 4
-3 -4 1 1 -6 2 -7 3
-3 -3 2 1 -6 2 -6 4
-2 -2 2 1 -6 3 -6 4
-2 0 3 1 -6 3 -5 5
-2 0 3 1 -6 3 -5 5
0 1 4 2 -5 4 -4 6
0 1 4 2 -5 4 -4 6
0 1 4 2 -4 4 -4 6
0 1 4 2 -4 4 -4 6
0 1 4 2 -4 4 -4 6
1 0 6 3 -2 5 -4 5
1 1 7 4 0 5 -3 5
1 2 8 4 2 6 -3 5
1 3 9 5 3 6 -2 5
1 4 10 5 4 6 -2 5
1 5 11 6 5 7 0 6
1 6 12 7 6 8 1 7
2 7 13 8 6 9 2 8
2 8 14 9 7 10 3 9
2 9 15 10 7 11 3 10
3 11 16 11 8 12 4 11
4 12 16 11 8 12 4 11
4 13 15 11 8 12 5 11
5 14 15 11 8 12 5 11
5 15 15 11 8 12 5 11
6 16 13 11 7 11 6 11
5 15 11 10 7 11 6 11
5 15 9 9 7 11 6 11
4 14 7 8 7 11 6 11
4 14 5 8 7 11 6 11
3 13 4 7 6 11 5 11
4 14 3 7 6 11 5 11
5 15 2 6 5 11 6 12
6 16 1 6 5 11 6 12
6 16 1 6 5 11 6 12
7 18 0 5 4 11 7 13
8 19 0 6 5 12 8 14
9 21 1 7 6 13 9 14
10 22 1 8 7 14 10 15
10 23 1 8 7 15 10 15
11 22 2 9 7 15 10 16
11 20 1 8 6 14 9 15
11 18 0 7 5 13 8 14
11 15 -2 6 4 12 7 13
11 13 -3 5 3 11 6 13
10 11 -4 3 1 9 5 12
10 10 -5 1 0 8 5 11
9 8 -6 0 -2 7 4 10
9 7 -7 -3 -3 6 4 9
9 6 -7 -4 -4 5 4 9
8 5 -8 -5 -5 4 3 8
7 5 -7 -5 -5 4 3 8
7 5 -7 -4 -5 4 3 8
6 5 -6 -4 -5 4 3 8
6 5 -6 -4 -5 4 3 8
4 3 -5 -3 -4 4 2 8
3 2 -5 -4 -4 3 1 7
1 0 -5 -4 -5 2 0 6
-2 -2 -5 -5 -5 1 -2 5
-3 -3 -5 -5 -5 1 -3 4
-4 -4 -5 -6 -6 0 -4 3
-4 -5 -5 -6 -6 0 -4 2
-4 -5 -5 -6 -7 -2 -4 1
-4 -6 -5 -6 -7 -2 -4 0
-4 -6 -5 -6 -7 -2 -4 0
-5 -7 -6 -6 -8 -3 -5 -2
-5 -7 -6 -7 -8 -4 -6 -2
-5 -7 -6 -7 -9 -4 -6 -3
-5 -7 -6 -8 -9 -5 -7 -3
-5 -7 -6 -8 -9 -5 -7 -3
-6 -8 -6 -9 -10 -6 -8 -4
-6 -8 -6 -9 -10 -6 -8 -4
-6 -8 -6 -10 -10 -7 -9 -5
-6 -8 -6 -10 -10 -7 -9 -5
-6 -8 -6 -10 -10 -7 -9 -5
-6 -9 -6 -11 -11 -8 -10 -6
-6 -10 -6 -11 -11 -8 -10 -6
-7 -10 -6 -11 -11 -8 -10 -7
-7 -11 -6 -11 -11 -8 -10 -7
-7 -11 -6 -11 -11 -8 -10 -7
-8 -12 -7 -11 -10 -9 -11 -8
-7 -11 -7 -10 -10 -9 -10 -7
-7 -11 -7 -10 -10 -9 -10 -6
-6 -10 -7 -9 -10 -9 -9 -5
-6 -10 -7 -9 -10 -9 -9 -4
-5 -9 -6 -8 -10 -8 -8 -3
-5 -9 -6 -8 -10 -8 -8 -3
-5 -10 -6 -8 -9 -8 -8 -4
-5 -10 -6 -8 -9 -8 -8 -4
-5 -10 -6 -8 -9 -8 -8 -4
-5 -11 -4 -7 -8 -7 -7 -5
-6 -10 -3 -6 -7 -7 -7 -5
-6 -10 -2 -5 -6 -7 -7 -6
-7 -9 0 -4 -5 -7 -7 -6
-7 -9 1 -3 -4 -7 -7 -6
-9 -8 10 11 7 -5 -7 -7
-10 -7 20 25 18 1 -6 -8
-11 -7 30 40 29 6 -5 -9
-12 -6 42 56 40 10 -4 -10
-13 -6 52 70 53 15 -3 -11
-6 7 54 85 69 33 15 0
5 20 55 98 88 56 36 14
15 34 56 111 105 77 57 28
26 49 57 126 123 100 77 42
36 62 57 139 142 121 98 56
52 94 31 116 144 156 139 92
69 129 0 86 142 195 183 131
87 163 -32 55 140 233 228 171
104 198 -65 24 139 271 272 210
121 234 -97 -7 137 309 317 250
112 221 -110 -48 96 271 287 237
98 197 -118 -92 46 217 241 214
82 174 -128 -135 -4 162 195 189
68 150 -136 -178 -53 108 149 165
53 127 -145 -221 -102 54 102 142
42 101 -152 -236 -131 14 65 113
31 76 -159 -245 -154 -23 29 84
21 52 -166 -254 -178 -60 -6 54
11 26 -173 -263 -201 -96 -41 24
1 2 -180 -272 -225 -133 -76 -6
-2 -7 -169 -248 -210 -130 -81 -14
-3 -12 -152 -216 -184 -117 -78 -18
-3 -16 -135 -183 -157 -104 -76 -21
-4 -21 -118 -151 -132 -91 -73 -24
-4 -26 -102 -118 -106 -78 -70 -28
-7 -27 -87 -101 -91 -70 -64 -29
-9 -27 -71 -86 -78 -63 -58 -29
-12 -28 -57 -70 -66 -56 -51 -29
-14 -28 -43 -56 -53 -50 -44 -29
-17 -28 -27 -40 -40 -43 -37 -29
-18 -28 -21 -32 -33 -37 -33 -27
-17 -27 -16 -26 -27 -34 -30 -25
-17 -25 -11 -19 -21 -30 -27 -23
-16 -23 -6 -12 -15 -26 -24 -22
-16 -22 0 -6 -10 -22 -21 -20
-15 -21 2 -3 -7 -21 -20 -19
-13 -21 3 0 -6 -20 -19 -18
-12 -21 5 3 -4 -19 -19 -18
-11 -21 7 5 -2 -18 -18 -17
-10 -21 8 7 0 -18 -18 -17
-9 -20 9 8 1 -17 -17 -16
-9 -20 9 8 2 -17 -17 -16
-9 -19 9 8 3 -17 -16 -16
-9 -19 9 8 4 -17 -16 -16
-9 -19 9 8 4 -17 -16 -16
-9 -18 10 9 5 -16 -15 -16
-9 -18 10 9 5 -15 -15 -16
-9 -19 11 10 5 -15 -15 -16
-9 -19 11 10 5 -14 -15 -16
-9 -19 11 10 5 -14 -15 -16
-9 -20 12 11 6 -13 -15 -16
-9 -20 12 12 6 -13 -15 -16
-9 -20 12 12 6 -13 -15 -16
-9 -20 12 13 6 -13 -15 -16
-9 -20 12 13 6 -13 -15 -16
-8 -19 13 14 6 -13 -15 -17
-8 -19 13 14 6 -13 -15 -17
-9 -20 14 14 6 -13 -15 -17
-9 -20 14 14 6 -13 -15 -17
-9 -20 14 14 6 -13 -15 -17
-10 -21 15 15 6 -13 -16 -18
-10 -21 15 15 6 -13 -16 -18
-10 -22 15 15 6 -13 -16 -18
-10 -22 15 15 6 -13 -16 -18
-10 -22 15 15 6 -13 -16 -18
-11 -23 15 14 6 -13 -15 -19
-11 -23 16 14 6 -13 -15 -20
-11 -23 16 14 6 -13 -16 -20
-11 -23 17 14 6 -13 -16 -21
-11 -23 17 14 6 -13 -16 -21
-10 -22 18 15 7 -14 -17 -22
-10 -22 18 15 7 -14 -17 -22
-10 -22 18 15 8 -14 -17 -22
-10 -22 18 15 8 -14 -17 -22
-10 -22 18 15 8 -14 -17 -22
-11 -23 17 15 9 -15 -16 -22
-11 -22 17 15 9 -15 -16 -22
-11 -21 17 16 10 -14 -16 -22
-11 -20 17 16 10 -14 -16 -22
-11 -19 17 16 10 -14 -16 -22
-10 -18 18 17 11 -13 -16 -23
-9 -18 18 18 11 -13 -16 -22
-9 -18 18 18 12 -13 -15 -22
-8 -18 18 19 12 -13 -15 -21
-8 -18 18 19 12 -13 -15 -21
-7 -19 18 20 13 -12 -14 -20
-7 -19 18 20 13 -12 -14 -21
-8 -20 18 21 13 -13 -15 -22
-8 -20 18 21 13 -13 -15 -23
-8 -20 18 21 13 -13 -15 -23
-9 -21 19 22 12 -14 -16 -24
-8 -21 20 22 12 -14 -16 -24
-8 -20 21 22 13 -13 -16 -24
-7 -20 22 22 13 -13 -16 -24
-7 -20 23 22 13 -13 -16 -24
-6 -19 24 22 14 -12 -15 -24
-7 -21 24 23 14 -12 -15 -24
-7 -22 24 24 15 -12 -15 -24
-8 -23 24 25 15 -12 -15 -24
-8 -24 24 25 15 -12 -15 -24
-9 -25 25 26 16 -13 -16 -25
-8 -24 25 27 16 -13 -16 -25
-8 -23 25 27 17 -13 -16 -25
-7 -22 25 28 17 -13 -16 -25
-7 -22 25 28 17 -13 -16 -25
-6 -21 25 29 18 -12 -16 -25
-6 -21 25 29 18 -12 -15 -25
-5 -21 25 29 18 -11 -15 -24
-5 -21 25 29 18 -11 -14 -24
-5 -21 25 29 18 -11 -14 -24
-4 -20 24 30 19 -10 -13 -23
-4 -20 23 30 19 -10 -13 -23
-4 -21 22 30 19 -11 -13 -23
-4 -21 21 30 19 -11 -13 -23
-4 -21 20 30 19 -11 -13 -23
-3 -22 19 31 18 -12 -13 -22
-2 -21 19 31 19 -12 -13 -22
1 -20 18 32 19 -11 -12 -21
2 -19 18 32 20 -11 -12 -21
4 -18 18 32 20 -11 -12 -21
5 -17 17 33 21 -10 -11 -20
5 -17 16 33 21 -9 -10 -19
5 -17 15 33 21 -8 -9 -18
5 -17 15 33 21 -8 -8 -18
5 -17 14 33 21 -7 -7 -17
5 -17 12 32 19 -6 -6 -16
5 -17 11 31 18 -7 -6 -16
6 -17 10 30 16 -7 -7 -15
6 -17 8 29 15 -8 -7 -15
6 -17 7 28 13 -8 -7 -15
7 -16 6 27 12 -9 -8 -14
8 -15 4 27 12 -8 -7 -12
8 -14 3 27 12 -8 -6 -11
9 -14 2 27 12 -7 -5 -10
9 -13 1 27 12 -7 -4 -9
10 -12 0 26 12 -6 -3 -8
11 -12 -2 25 11 -6 -2 -7
12 -11 -3 24 10 -6 0 -6
12 -11 -3 23 10 -6 0 -6
13 -11 -4 22 9 -6 1 -5
14 -10 -5 21 8 -6 2 -4
15 -9 -4 20 8 -6 3 -3
15 -9 -3 19 7 -6 3 -2
16 -8 -3 19 7 -6 4 -2
16 -8 -2 18 7 -6 4 0
17 -7 0 17 6 -5 5 1
17 -7 0 17 6 -5 5 1
17 -6 0 17 5 -5 5 2
17 -6 0 17 5 -5 5 2
17 -6 0 17 5 -5 5 2
17 -4 1 16 4 -4 6 3
18 -3 1 16 4 -4 7 4
19 0 1 15 4 -3 8 5
20 1 1 15 4 -3 8 5
21 3 1 15 4 -3 9 6
22 4 0 14 4 -2 10 7
21 4 1 14 4 -2 10 7
20 4 1 14 4 -2 10 7
20 4 2 14 4 -2 10 7
19 4 2 14 4 -2 10 7
18 3 3 15 5 0 10 7
17 3 4 15 5 0 10 7
16 3 5 15 6 1 10 7
16 3 6 15 6 1 10 7
15 3 7 15 6 1 10 7
14 4 8 15 7 2 9 8
12 3 9 15 7 2 9 6
11 2 10 15 7 2 9 5
9 2 10 15 7 2 9 4
8 1 11 15 7 2 9 3
7 0 12 15 8 2 8 2
7 0 13 15 9 2 8 2
7 1 14 15 9 3 8 2
7 1 15 15 10 3 8 2
7 1 16 15 10 3 8 2
6 2 17 14 11 4 8 3
4 0 17 14 10 3 6 2
3 -2 17 13 9 2 5 1
1 -3 17 13 9 2 3 1
0 -4 17 13 8 1 2 0
-2 -5 18 12 7 0 1 -2
-2 -5 18 11 7 0 1 -3
-3 -5 18 11 7 -2 1 -3
-3 -5 18 10 7 -2 1 -4
-3 -5 18 10 7 -2 1 -4
-4 -6 18 9 7 -3 0 -5
-5 -6 18 9 7 -3 0 -5
-5 -7 18 9 6 -4 -2 -6
-6 -7 18 9 6 -4 -2 -6
-6 -7 18 9 6 -4 -2 -6
-7 -8 18 9 5 -5 -3 -7
-7 -8 19 9 5 -5 -3 -7
-7 -8 19 9 6 -5 -4 -7
-7 -8 20 9 6 -5 -4 -7
-7 -8 20 9 6 -5 -4 -7
-6 -7 21 9 7 -5 -5 -6
-6 -7 21 9 7 -5 -5 -6
-6 -8 21 9 6 -6 -6 -7
-6 -8 21 9 6 -6 -6 -7
-6 -8 21 9 6 -6 -6 -7
-7 -9 20 9 5 -7 -7 -8
-7 -9 20 9 5 -7 -7 -8
-7 -8 20 9 5 -7 -7 -8
-7 -8 20 9 5 -7 -7 -8
-7 -8 20 9 5 -7 -7 -8
-8 -7 19 8 6 -8 -8 -9
-8 -7 19 9 6 -7 -8 -9
-8 -8 20 10 7 -6 -7 -9
-8 -8 20 11 7 -6 -7 -9
-8 -8 20 12 7 -5 -7 -9
-7 -9 21 13 8 -4 -6 -10
-7 -9 21 13 8 -4 -6 -10
-7 -9 21 13 9 -4 -6 -9
-7 -9 21 13 9 -4 -6 -8
-7 -9 21 13 9 -4 -6 -8
-8 -10 21 13 10 -5 -5 -7
-8 -10 21 13 10 -5 -5 -7
-8 -10 21 13 10 -5 -5 -7
-8 -10 21 13 10 -5 -5 -7
-8 -10 21 13 10 -5 -5 -7
-9 -9 20 14 11 -5 -5 -7
-9 -9 20 14 11 -5 -5 -7
-9 -8 20 14 11 -5 -5 -7
-9 -7 20 14 11 -5 -5 -7
-9 -7 20 14 11 -5 -5 -7
-8 -6 21 15 12 -4 -4 -6
-8 -6 21 15 12 -4 -4 -6
-8 -5 21 15 13 -3 -4 -6
-8 -5 21 15 14 -2 -4 -6
-8 -5 21 15 14 -2 -4 -6
-7 -4 22 16 15 0 -3 -7
-7 -4 22 16 15 0 -3 -7
-7 -4 22 16 15 1 -2 -6
-7 -4 22 16 15 1 0 -5
-7 -4 22 16 15 1 0 -5
-8 -3 22 17 15 2 1 -4
-8 -3 22 17 15 2 1 -4
-8 -2 22 17 15 2 1 -4
-8 -2 22 17 15 2 1 -4
-8 -2 22 17 15 2 1 -4
-7 0 22 16 16 3 0 -4
-7 -2 21 16 16 3 0 -4
-7 -3 20 15 15 3 0 -3
-7 -3 20 15 15 3 0 -3
-7 -4 19 15 15 3 0 -3
-8 -5 18 14 14 2 -2 -2
-8 -4 18 14 14 2 -2 -2
-7 -3 18 13 13 2 0 -2
-7 -2 18 13 13 2 0 -2
-7 0 18 13 13 2 0 -2
-6 1 17 12 12 1 1 -3
-6 1 17 12 12 1 1 -3
-6 0 17 12 12 2 1 -2
-6 0 17 12 12 2 1 -2
-6 0 17 12 12 2 1 -2
-6 -2 16 12 12 3 2 0
-6 -2 16 11 11 2 2 0
-7 -3 15 10 9 1 1 0
-8 -4 14 10 8 1 0 0
-8 -4 14 9 7 0 0 0
-9 -5 13 8 6 -2 -2 -2
-9 -4 13 8 6 -2 -2 -2
-8 -3 13 8 6 -2 0 -2
-7 -3 13 8 6 -2 0 -2
-7 -2 13 8 6 -2 0 -2
-6 0 13 9 7 0 1 -2
-6 0 13 9 7 0 1 -2
-6 -2 12 8 6 -2 0 -2
-6 -3 12 8 6 -2 0 -2
-6 -3 12 8 6 -2 0 -2
-6 -4 11 7 5 -3 -2 0
-6 -4 11 6 5 -3 -2 0
-6 -4 10 5 4 -3 -2 0
-6 -4 9 4 4 -3 -2 0
-6 -4 9 3 4 -3 -2 0
-7 -4 8 2 3 -3 -2 0
-7 -4 8 2 3 -3 -2 0
-7 -4 7 2 2 -4 -2 -2
-7 -4 7 2 2 -5 -2 -2
-7 -4 7 2 2 -5 -2 -2
-6 -3 6 2 1 -6 -3 -3
-6 -3 6 2 1 -6 -3 -3
-7 -4 6 2 1 -6 -3 -2
-7 -4 6 2 1 -6 -3 -2
-7 -4 6 2 1 -6 -3 -2
-8 -5 7 1 1 -6 -3 0
-7 -5 7 1 1 -6 -3 0
-6 -4 7 1 1 -6 -4 -2
-6 -4 7 1 1 -6 -4 -2
-5 -4 7 1 1 -6 -4 -2
-4 -3 6 0 0 -5 -5 -3
-4 -3 6 0 0 -5 -5 -3
-4 -4 6 0 0 -5 -4 -2
-4 -4 6 0 0 -5 -4 0
-4 -4 6 0 0 -5 -4 0
-5 -5 5 0 1 -5 -3 1
-5 -4 5 0 1 -5 -3 1
-5 -3 5 0 0 -5 -4 0
-5 -3 5 0 0 -5 -5 -2
-5 -2 5 0 0 -5 -5 -2
-5 0 4 -2 -2 -6 -6 -3
-5 0 4 -2 -2 -6 -6 -3
-5 0 4 0 0 -5 -5 -3
-5 0 4 0 1 -5 -4 -3
-5 0 4 0 1 -5 -4 -3
-5 -2 3 1 2 -4 -3 -2
-5 -2 4 1 2 -4 -3 -2
-5 0 5 2 3 -3 -2 0
-5 1 5 3 3 -2 0 0
-5 1 6 3 3 -2 0 0
-4 3 7 4 4 0 1 1
-4 4 8 4 4 0 1 1
-3 6 9 5 5 1 1 2
-3 8 10 6 6 2 1 2
-3 10 11 6 6 2 1 2
-2 11 12 7 7 3 1 3
-2 11 12 7 8 3 2 3
0 12 13 8 9 4 4 4
0 13 13 8 9 5 5 4
0 13 13 8 10 5 6 4
1 14 13 9 11 6 7 5
1 14 11 7 9 6 7 5
1 14 9 5 7 5 6 5
1 14 7 4 6 4 5 5
1 14 4 2 4 4 5 5
0 13 3 1 3 3 4 5
0 13 2 1 3 3 4 5
0 13 0 1 3 4 4 5
0 13 -2 1 3 4 4 5
0 13 -3 1 3 4 4 5
0 14 -4 0 3 5 5 6
1 15 -4 1 4 6 6 7
2 17 -4 2 5 7 7 9
2 18 -4 2 5 7 8 10
3 19 -4 3 6 8 9 11
4 20 -3 4 7 9 10 12
5 18 -3 3 6 8 9 12
6 17 -4 1 5 7 8 11
6 16 -5 0 4 7 8 10
7 14 -5 -2 3 6 7 10
8 13 -6 -3 2 5 6 9
8 11 -7 -4 1 4 5 8
8 10 -9 -6 -2 2 3 6
8 9 -10 -7 -3 1 2 5
8 7 -11 -8 -4 0 1 4
8 6 -12 -9 -5 -2 0 3
7 6 -12 -9 -5 -2 0 3
6 6 -12 -8 -5 -2 0 3
6 6 -12 -8 -5 -2 0 3
5 6 -12 -8 -5 -2 0 3
4 6 -11 -7 -6 0 0 3
2 4 -11 -8 -6 -3 -2 2
1 3 -11 -9 -7 -4 -3 0
0 2 -11 -10 -8 -5 -3 -2
-3 0 -11 -11 -8 -7 -4 -3
-4 -2 -11 -12 -9 -8 -5 -4
-4 -2 -11 -12 -9 -8 -5 -4
-5 -3 -11 -12 -10 -8 -6 -5
-5 -4 -11 -12 -11 -8 -7 -6
-5 -4 -11 -12 -11 -8 -7 -6
-6 -5 -11 -13 -12 -9 -8 -7
-6 -6 -11 -13 -12 -9 -8 -7
-7 -7 -12 -14 -13 -10 -9 -7
-8 -8 -12 -15 -13 -11 -10 -7
-8 -9 -12 -15 -13 -11 -10 -7
-9 -10 -13 -16 -14 -12 -11 -8
-9 -10 -13 -16 -14 -12 -11 -8
-8 -9 -13 -16 -14 -12 -11 -8
-8 -9 -13 -16 -14 -12 -11 -8
-8 -9 -13 -16 -14 -12 -11 -8
-7 -8 -13 -16 -15 -12 -11 -8
-7 -8 -13 -16 -15 -12 -11 -8
-8 -8 -14 -16 -15 -13 -12 -8
-8 -8 -15 -16 -15 -13 -12 -8
-8 -8 -15 -16 -15 -13 -12 -8
-9 -9 -16 -17 -16 -14 -13 -9
-9 -9 -16 -17 -16 -14 -13 -9
-9 -10 -15 -17 -16 -13 -13 -9
-9 -10 -15 -17 -16 -13 -13 -9
-9 -10 -15 -17 -16 -13 -13 -9
-9 -11 -14 -16 -15 -12 -12 -10
-8 -10 -14 -16 -15 -12 -12 -10
-7 -9 -14 -15 -15 -11 -11 -9
-6 -9 -14 -15 -15 -10 -11 -8
-5 -8 -14 -15 -15 -10 -11 -8
-4 -7 -13 -14 -14 -9 -10 -7
-5 -7 -13 -14 -14 -9 -10 -8
-6 -7 -13 -14 -14 -9 -10 -9
-6 -7 -13 -14 -14 -9 -10 -9
-7 -7 -13 -14 -14 -9 -10 -10
-8 -8 -8 -7 -9 -9 -10 -11
-9 -8 2 5 2 -7 -10 -13
-11 -9 11 17 11 -5 -10 -14
-12 -9 19 29 20 -3 -10 -15
-13 -9 28 42 29 0 -10 -17
-11 -5 35 57 44 10 -2 -13
-4 8 42 75 64 30 15 -3
4 19 47 93 84 50 31 8
10 30 52 111 103 69 48 18
17 42 58 130 122 89 64 29
29 64 48 128 134 119 95 53
46 96 20 105 137 161 140 90
62 128 -8 82 140 202 185 126
78 160 -35 60 142 243 229 162
95 192 -63 36 145 285 274 199
101 207 -86 1 125 287 288 217
95 203 -102 -48 79 251 272 214
90 199 -118 -97 34 213 256 210
85 196 -135 -146 -12 176 239 206
78 192 -151 -194 -57 138 222 203
67 173 -162 -227 -97 92 183 181
52 136 -171 -243 -132 37 121 140
35 100 -178 -260 -166 -17 60 99
19 63 -185 -276 -201 -72 -2 58
3 27 -193 -293 -237 -127 -63 16
-6 7 -190 -285 -242 -148 -92 -7
-6 1 -176 -253 -216 -134 -87 -13
-5 -6 -160 -221 -189 -119 -81 -19
-5 -12 -146 -189 -163 -106 -77 -25
-5 -18 -132 -156 -137 -92 -72 -31
-4 -21 -116 -132 -117 -81 -67 -34
-6 -21 -100 -115 -103 -73 -62 -34
-7 -21 -85 -99 -89 -66 -57 -33
-9 -20 -68 -81 -74 -58 -51 -32
-11 -20 -52 -65 -60 -50 -46 -32
-12 -19 -40 -53 -50 -44 -41 -31
-12 -19 -33 -45 -41 -38 -37 -29
-12 -19 -27 -36 -34 -33 -34 -28
-12 -19 -20 -28 -27 -28 -30 -26
-12 -19 -13 -20 -19 -23 -26 -24
-13 -20 -9 -14 -15 -20 -24 -23
-12 -19 -7 -12 -13 -19 -23 -23
-12 -19 -5 -9 -11 -18 -23 -23
-11 -18 -3 -6 -9 -16 -22 -23
-10 -17 0 -4 -7 -15 -21 -23
-9 -16 1 -2 -6 -14 -20 -23
-9 -16 1 -2 -5 -14 -20 -23
-9 -16 1 -2 -5 -14 -20 -23
-10 -17 1 0 -4 -13 -20 -23
-10 -17 1 0 -3 -13 -20 -23
-11 -18 2 1 -2 -12 -19 -22
-11 -18 2 2 -2 -12 -19 -22
-11 -18 2 2 -2 -12 -19 -22
-10 -18 3 3 0 -12 -19 -22
-10 -18 3 4 0 -12 -19 -22
-9 -17 4 5 1 -12 -19 -21
-9 -17 4 5 1 -12 -19 -21
-9 -17 4 5 1 -12 -19 -21
-9 -16 5 6 1 -11 -19 -22
-9 -16 5 6 1 -11 -19 -22
-9 -15 6 7 2 -10 -18 -23
-9 -15 6 7 2 -10 -18 -23
-9 -15 6 7 2 -10 -18 -23
-9 -15 6 7 2 -10 -18 -23
-9 -15 6 7 2 -10 -18 -23
-8 -15 7 7 2 -11 -18 -23
-8 -15 7 7 2 -11 -18 -23
-8 -15 7 7 3 -11 -18 -23
-8 -15 8 8 4 -10 -18 -23
-8 -15 8 8 4 -10 -18 -23
-9 -16 9 9 5 -9 -17 -22
-9 -16 9 9 5 -9 -17 -22
-9 -16 9 9 5 -9 -17 -23
-9 -17 9 9 5 -10 -17 -24
-9 -17 9 9 5 -10 -17 -24
-9 -18 10 8 4 -11 -18 -25
-9 -18 10 8 4 -11 -18 -25
-9 -18 10 8 4 -11 -18 -25
-10 -18 10 8 5 -11 -18 -25
-10 -18 10 8 5 -11 -18 -25
-11 -19 11 9 6 -11 -18 -25
-10 -19 11 9 6 -11 -18 -25
-10 -18 11 10 7 -10 -18 -25
-9 -17 11 11 8 -9 -17 -24
-8 -17 11 11 8 -9 -17 -24
-7 -16 12 12 9 -8 -16 -23
-7 -16 12 12 9 -8 -16 -23
-7 -16 12 12 9 -8 -16 -23
-7 -16 12 12 9 -8 -16 -24
-7 -16 12 12 9 -8 -16 -24
-8 -17 11 13 10 -9 -17 -25
-8 -17 11 13 10 -9 -17 -25
-8 -17 11 13 10 -9 -17 -25
-8 -17 11 14 10 -8 -17 -25
-8 -17 11 14 10 -8 -17 -25
-7 -18 11 15 11 -7 -16 -25
-7 -18 11 15 11 -7 -16 -25
-7 -18 12 16 11 -7 -16 -25
-7 -18 13 17 12 -7 -16 -25
-7 -18 13 17 12 -7 -16 -25
-6 -18 14 18 13 -6 -17 -24
-6 -18 14 18 13 -6 -17 -24
-6 -18 14 18 13 -6 -17 -24
-6 -18 14 19 14 -6 -16 -24
-6 -18 14 19 14 -6 -16 -24
-5 -19 13 20 15 -7 -15 -24
-5 -19 13 20 15 -7 -15 -24
-5 -19 13 20 15 -7 -15 -24
-5 -19 13 20 15 -7 -15 -24
-5 -19 13 20 15 -7 -15 -24
-6 -19 14 21 16 -6 -16 -24
-5 -19 14 22 16 -6 -16 -24
-4 -19 14 23 16 -6 -16 -24
-3 -19 14 24 17 -6 -16 -24
-2 -19 14 25 17 -6 -16 -24
0 -19 13 26 18 -5 -16 -24
0 -19 13 26 18 -5 -16 -24
0 -19 12 26 18 -5 -16 -24
-2 -19 11 26 18 -5 -15 -24
-2 -19 11 26 18 -5 -15 -24
-3 -19 10 26 18 -4 -14 -23
-3 -19 10 26 18 -4 -14 -22
-2 -19 10 27 18 -4 -14 -21
0 -19 10 28 18 -3 -13 -20
0 -19 10 28 18 -3 -13 -19
1 -20 9 29 19 -2 -12 -18
2 -19 8 29 19 -2 -12 -18
3 -19 7 29 19 -2 -12 -18
4 -18 6 29 19 0 -11 -18
5 -17 5 29 19 0 -11 -18
6 -16 4 28 19 1 -10 -17
7 -16 3 28 19 1 -9 -16
7 -16 2 27 18 1 -9 -16
8 -15 0 26 17 1 -8 -15
9 -15 -2 26 17 1 -7 -14
10 -14 -3 25 16 1 -6 -13
11 -13 -4 24 16 1 -6 -13
11 -12 -5 24 16 1 -6 -12
12 -11 -6 23 15 1 -5 -11
13 -10 -7 22 15 1 -5 -11
14 -9 -8 21 14 2 -4 -10
14 -9 -9 20 13 2 -4 -10
14 -9 -9 20 11 2 -4 -9
15 -8 -10 19 10 1 -3 -8
15 -8 -11 18 8 1 -3 -8
16 -7 -12 17 7 0 -2 -7
16 -7 -13 16 6 0 -2 -7
16 -6 -14 16 6 0 0 -6
16 -5 -15 15 5 1 1 -5
16 -5 -16 14 4 1 1 -5
17 -4 -17 13 3 2 2 -4
18 -3 -17 13 3 2 3 -3
18 -3 -17 12 3 2 3 -2
19 -2 -17 11 2 2 4 0
20 0 -17 11 2 2 5 1
21 1 -18 10 1 3 6 2
21 1 -18 10 1 3 6 2
21 1 -18 10 1 3 6 2
20 1 -18 9 1 3 6 2
20 1 -18 9 1 3 6 2
19 0 -17 8 0 3 5 2
19 0 -17 8 0 3 6 2
19 1 -17 8 1 4 6 2
19 2 -17 9 2 5 7 2
19 2 -17 9 2 5 8 2
19 3 -16 10 3 6 9 3
18 3 -15 10 3 6 9 3
18 4 -14 10 3 7 9 3
17 5 -12 10 4 8 9 4
16 5 -11 10 4 8 9 4
15 6 -10 9 5 9 9 5
15 6 -9 9 5 9 9 5
14 6 -8 9 5 9 9 5
13 6 -7 9 5 9 8 4
13 6 -6 9 5 9 8 4
12 6 -5 10 6 8 7 3
11 6 -4 10 6 8 7 3
10 5 -4 10 6 8 7 3
9 4 -3 10 7 8 6 2
8 4 -2 10 7 8 6 2
7 3 0 10 8 8 5 1
6 3 0 10 8 8 5 1
5 2 0 10 8 8 4 0
4 1 1 9 8 7 3 -2
3 1 1 9 8 7 3 -2
2 0 2 8 7 6 2 -3
1 -2 2 7 7 5 1 -4
0 -3 2 6 7 5 0 -5
-3 -4 2 5 6 4 -2 -7
-4 -5 2 4 6 3 -3 -8
-5 -6 3 3 5 2 -4 -9
-5 -6 3 3 5 2 -4 -9
-5 -6 3 3 5 2 -5 -9
-5 -7 4 3 5 1 -6 -9
-5 -7 4 3 5 1 -6 -9
-6 -8 5 3 4 0 -7 -10
-6 -7 5 3 4 0 -7 -10
-5 -7 5 3 4 0 -7 -10
-4 -6 5 4 4 0 -7 -10
-4 -5 5 4 4 0 -7 -10
-3 -4 6 5 5 0 -6 -10
-3 -4 6 5 5 0 -6 -10
-4 -5 6 5 5 -2 -7 -11
-5 -6 6 4 4 -3 -8 -12
-5 -6 6 4 4 -3 -8 -12
-6 -7 6 3 3 -4 -9 -13
-6 -7 6 3 3 -4 -9 -13
-6 -7 6 3 3 -3 -9 -13
-6 -7 6 4 4 -2 -9 -13
-6 -7 6 4 4 -2 -9 -13
-5 -6 6 5 5 0 -8 -13
-5 -6 6 6 5 0 -8 -13
-5 -6 7 6 5 0 -8 -13
-5 -6 8 7 5 0 -8 -13
-5 -6 8 8 5 0 -8 -13
-5 -5 9 9 6 -2 -8 -12
-5 -5 9 9 7 -2 -8 -12
-6 -6 9 9 7 -2 -8 -12
-7 -7 9 9 8 -2 -8 -12
-7 -7 9 9 9 -2 -8 -12
-8 -8 9 10 10 0 -7 -11
-8 -8 9 10 10 0 -7 -11
-8 -8 9 10 10 0 -7 -11
-8 -8 9 11 11 0 -7 -11
-8 -8 9 11 11 0 -7 -11
-7 -7 8 12 12 1 -6 -11
-7 -7 8 12 12 1 -6 -11
-7 -7 8 12 12 1 -6 -12
-7 -7 9 12 12 1 -6 -13
-7 -7 9 12 12 1 -6 -13
-8 -7 10 12 12 2 -6 -14
-8 -6 10 12 13 2 -5 -13
-7 -5 10 12 13 3 -4 -12
-6 -3 10 13 14 4 -3 -11
-6 -2 10 13 15 4 -2 -10
-5 0 11 14 16 5 0 -9
-5 0 11 14 16 5 0 -9
-5 0 11 14 16 5 0 -9
-5 -2 11 15 16 5 0 -9
-5 -2 11 15 16 5 0 -9
-6 -3 11 16 16 5 0 -8
-6 -3 11 16 16 5 0 -8
-6 -3 11 16 16 5 0 -9
-6 -3 11 16 16 5 0 -9
-6 -3 11 16 16 5 0 -10
-6 -2 12 15 15 4 -2 -11
-6 -2 12 15 15 4 -2 -11
-6 -2 11 15 15 4 -2 -11
-6 -2 11 14 15 4 -2 -11
-6 -2 10 14 15 4 -2 -11
-6 -3 9 13 14 4 -2 -11
-6 -3 9 13 14 4 -2 -11
-6 -3 9 13 14 4 -2 -11
-6 -2 8 13 14 4 -2 -10
-6 -2 8 13 14 4 -2 -10
-6 0 7 12 13 5 0 -9
-6 0 7 12 13 5 0 -9
-5 0 7 12 13 5 0 -9
-5 1 7 12 13 5 1 -9
-4 1 7 12 13 5 1 -9
-3 2 7 11 12 5 2 -8
-3 2 7 11 12 5 2 -8
-3 2 7 10 12 5 2 -8
-3 1 7 10 11 5 1 -8
-3 1 7 9 11 5 1 -8
-4 0 6 8 10 4 0 -9
-4 0 6 8 10 4 0 -9
-4 0 6 8 10 4 0 -9
-5 0 5 8 9 4 0 -9
-5 0 5 8 9 4 0 -9
-6 -2 4 8 8 3 -2 -9
-6 -2 4 8 8 3 -2 -9
-6 -2 4 8 8 3 -2 -9
-6 -2 4 8 8 3 -2 -9
-6 -2 4 8 8 3 -2 -9
-6 -2 3 7 7 2 -2 -9
-6 -2 3 7 6 2 -2 -9
-6 -2 3 6 6 2 -2 -9
-7 -2 3 6 5 1 -2 -9
-7 -2 3 5 4 1 -2 -9
-8 -3 2 4 3 0 -3 -10
-8 -3 2 4 3 0 -3 -10
-8 -3 2 4 3 0 -3 -10
-7 -2 1 4 3 0 -3 -10
-7 -2 1 4 3 0 -3 -10
-6 0 0 3 3 -2 -3 -9
-6 0 0 3 3 -2 -3 -9
-6 0 0 3 3 -2 -3 -9
-6 0 0 3 3 -2 -3 -8
-6 0 0 3 3 -2 -3 -8
-7 -2 1 2 3 -2 -2 -7
-7 -2 1 2 3 -2 -2 -7
-7 -2 1 2 3 -2 -3 -7
-7 -2 1 2 3 -2 -3 -8
-7 -2 1 2 3 -2 -4 -8
-6 -2 0 2 2 -3 -5 -9
-6 -2 0 2 2 -3 -5 -9
-6 -2 0 2 2 -3 -5 -9
-6 -2 0 1 1 -3 -5 -9
-6 -2 0 1 1 -3 -5 -9
-7 0 -2 0 0 -4 -6 -9
-7 0 -2 0 0 -4 -6 -9
-7 0 -2 0 0 -4 -6 -9
-7 0 -2 0 0 -4 -5 -9
-7 0 -2 0 0 -4 -5 -9
-7 -2 -3 0 0 -4 -4 -8
-7 -2 -3 0 0 -4 -4 -8
-7 0 -3 0 0 -4 -4 -8
-6 0 -3 0 0 -4 -4 -7
-6 1 -3 0 0 -4 -4 -7
-5 2 -2 1 0 -3 -5 -6
-5 2 -2 1 0 -3 -5 -6
-5 2 -2 1 0 -3 -5 -6
-5 2 -2 2 0 -3 -4 -6
-5 2 -2 2 0 -3 -4 -6
-5 2 0 3 0 -3 -3 -6
-5 3 1 3 0 -3 -3 -6
-4 5 2 3 1 -2 -3 -6
-4 6 3 4 1 -2 -3 -5
-3 7 5 4 2 0 -3 -5
-2 9 6 5 3 1 -2 -4
-2 10 7 6 4 2 -2 -4
-2 11 7 6 4 2 -2 -3
-2 12 8 7 5 3 0 -3
-2 13 9 8 6 4 0 -2
-3 14 10 9 7 5 1 0
-3 14 10 9 7 5 1 0
-3 14 10 9 7 5 2 0
-3 15 10 9 7 5 2 0
-3 15 10 9 7 5 3 0
-4 16 10 9 8 6 4 0
-4 16 9 9 8 6 4 0
-3 16 7 9 7 6 4 0
-3 16 6 8 7 5 4 0
-2 16 5 8 6 5 4 0
0 16 3 7 5 4 4 1
0 17 2 7 5 4 4 2
0 17 1 6 5 5 4 3
0 18 0 6 5 5 5 4
0 19 -2 5 5 6 5 6
1 20 -3 4 5 7 6 7
1 21 -3 5 5 7 7 7
2 22 -2 5 6 7 7 7
2 23 -2 6 6 8 8 8
3 24 0 7 7 8 9 8
4 25 1 8 8 9 10 9
4 24 0 8 7 9 10 9
3 22 -2 7 6 9 9 9
3 20 -3 6 5 8 9 9
2 19 -5 5 4 8 8 9
1 17 -6 4 3 7 7 8
1 15 -7 3 2 5 6 7
2 12 -8 1 0 3 4 5
2 10 -9 -2 -2 2 3 4
3 7 -10 -3 -3 0 2 3
4 5 -11 -5 -5 -3 0 1
4 5 -11 -5 -5 -3 0 1
3 6 -11 -5 -5 -3 0 1
2 6 -11 -5 -5 -3 0 1
1 7 -11 -5 -5 -3 0 1
0 8 -11 -6 -6 -4 -2 0
-2 7 -11 -6 -6 -4 -2 0
-4 6 -11 -6 -6 -5 -3 0
-6 5 -10 -6 -7 -5 -3 -2
-7 4 -10 -6 -7 -6 -4 -2
-9 3 -9 -7 -8 -7 -5 -3
-9 2 -9 -7 -8 -7 -5 -3
-9 1 -9 -7 -8 -7 -5 -3
-9 0 -8 -7 -8 -7 -5 -3
-9 -2 -8 -7 -8 -7 -5 -3
-10 -3 -7 -8 -8 -8 -6 -2
-10 -4 -7 -8 -9 -9 -6 -3
-10 -5 -8 -9 -10 -10 -7 -4
-11 -6 -9 -9 -11 -11 -8 -5
-11 -7 -10 -10 -13 -12 -9 -7
-12 -8 -11 -11 -14 -13 -10 -8
-12 -8 -11 -11 -14 -13 -10 -8
-12 -7 -11 -11 -14 -13 -10 -8
-12 -7 -10 -11 -13 -12 -10 -8
-12 -6 -10 -11 -13 -12 -10 -8
-11 -5 -9 -10 -12 -11 -9 -7
-11 -5 -9 -10 -12 -11 -9 -7
-11 -5 -9 -10 -12 -11 -9 -7
-11 -5 -10 -11 -13 -12 -9 -7
-11 -5 -10 -11 -13 -12 -9 -7
-11 -5 -11 -12 -14 -13 -10 -8
-11 -5 -11 -12 -14 -13 -10 -8
-11 -5 -11 -12 -14 -13 -10 -8
-12 -5 -11 -12 -14 -13 -10 -8
-12 -5 -11 -12 -14 -13 -10 -8
-13 -6 -11 -12 -13 -13 -11 -9
-13 -6 -11 -12 -13 -13 -11 -9
-13 -6 -11 -12 -13 -13 -11 -9
-13 -6 -11 -12 -13 -13 -11 -9
-13 -6 -11 -12 -13 -13 -11 -9
-13 -7 -11 -13 -14 -13 -10 -9
-13 -7 -11 -13 -14 -13 -10 -9
-13 -7 -11 -12 -13 -13 -10 -9
-13 -7 -11 -12 -13 -12 -10 -8
-13 -7 -11 -11 -12 -12 -10 -8
-12 -6 -9 -8 -10 -11 -9 -7
-13 -6 2 4 0 -8 -9 -8
-15 -5 11 16 8 -6 -9 -9
-16 -4 21 28 17 -3 -9 -10
-17 -3 30 39 26 0 -9 -12
-18 0 38 53 36 6 -6 -12
-11 10 44 71 56 23 10 -3
-4 20 49 89 74 40 25 7
4 30 54 107 93 58 40 16
11 40 59 125 112 76 56 25
20 55 60 137 128 98 76 40
37 87 33 117 133 138 120 76
55 117 8 98 137 178 164 113
72 149 -19 78 141 219 209 150
90 181 -45 59 145 259 254 187
104 207 -69 34 142 288 287 218
99 205 -85 -13 101 268 274 217
94 204 -101 -59 60 247 261 216
90 202 -117 -106 20 227 248 215
85 200 -134 -152 -21 207 235 214
77 192 -148 -194 -62 178 213 205
60 155 -156 -215 -100 110 151 163
43 118 -164 -235 -139 44 89 121
25 81 -173 -256 -177 -24 27 79
8 45 -181 -275 -216 -92 -35 37
-8 13 -186 -287 -243 -145 -87 2
-8 7 -173 -257 -219 -133 -83 -5
-8 0 -159 -226 -194 -120 -81 -11
-9 -7 -146 -195 -170 -108 -78 -17
-9 -14 -133 -164 -144 -96 -76 -23
-10 -20 -119 -136 -121 -85 -72 -28
-12 -20 -102 -119 -107 -77 -66 -28
-14 -20 -86 -102 -94 -70 -60 -28
-16 -21 -69 -85 -79 -63 -54 -28
-18 -21 -53 -67 -66 -55 -48 -28
-20 -22 -37 -52 -53 -49 -41 -28
-20 -20 -31 -44 -46 -43 -37 -26
-19 -18 -24 -35 -37 -37 -33 -23
-18 -16 -18 -27 -30 -32 -29 -21
-17 -14 -11 -19 -23 -27 -25 -18
-16 -12 -5 -12 -16 -22 -21 -16
-16 -12 -3 -10 -15 -22 -21 -16
-16 -12 -2 -7 -13 -21 -20 -16
-15 -12 1 -5 -11 -20 -19 -16
-15 -12 3 -2 -10 -19 -18 -16
-14 -13 5 1 -8 -18 -17 -15
-14 -13 5 1 -8 -18 -17 -15
-14 -13 5 2 -7 -17 -17 -15
-14 -13 5 2 -6 -17 -17 -15
-14 -13 5 3 -5 -16 -17 -15
-14 -13 6 4 -4 -15 -16 -16
-14 -13 6 4 -4 -15 -16 -16
-14 -13 6 4 -4 -15 -16 -16
-14 -13 7 5 -4 -15 -16 -15
-14 -13 7 5 -4 -15 -16 -15
-13 -13 8 6 -4 -15 -16 -14
-13 -13 8 6 -4 -15 -16 -14
-13 -13 8 6 -3 -15 -16 -14
-13 -14 9 7 -3 -14 -16 -15
-13 -14 9 7 -2 -14 -16 -15
-14 -15 10 8 0 -13 -16 -16
-14 -15 10 8 0 -13 -16 -16
-14 -15 11 8 0 -13 -16 -16
-14 -15 12 8 0 -13 -16 -16
-14 -15 13 8 0 -13 -16 -16
-14 -16 14 8 0 -13 -15 -15
-14 -16 14 8 0 -13 -15 -15
-13 -15 14 8 0 -13 -15 -15
-13 -15 15 9 1 -12 -15 -15
-12 -14 15 9 1 -12 -15 -15
-11 -13 16 10 2 -11 -15 -15
-11 -13 16 10 2 -11 -15 -15
-11 -13 16 10 2 -12 -15 -15
-11 -13 16 10 1 -13 -16 -15
-11 -13 16 10 1 -14 -16 -15
-12 -12 15 9 0 -15 -17 -16
-12 -12 15 9 0 -15 -17 -16
-12 -12 15 9 1 -14 -17 -16
-12 -13 16 10 2 -14 -16 -16
-12 -13 16 10 3 -13 -16 -16
-12 -14 17 11 4 -12 -15 -15
-12 -14 17 11 4 -12 -15 -15
-12 -14 17 11 4 -12 -15 -15
-11 -14 17 11 4 -12 -15 -15
-11 -14 17 11 4 -12 -15 -15
-10 -14 18 11 3 -13 -16 -16
-10 -14 18 11 3 -13 -16 -16
-10 -14 18 11 4 -13 -16 -16
-10 -15 18 12 4 -13 -16 -16
-10 -15 18 12 5 -13 -16 -16
-11 -16 18 13 6 -13 -16 -16
-11 -16 18 13 6 -13 -16 -16
-11 -16 18 13 6 -13 -16 -16
-11 -16 18 14 6 -12 -16 -16
-11 -16 18 14 6 -12 -16 -16
-10 -15 18 15 7 -11 -16 -15
-10 -15 18 15 7 -11 -16 -15
-10 -15 18 15 8 -11 -16 -15
-10 -15 19 15 8 -11 -16 -15
-10 -15 19 15 9 -11 -16 -15
-9 -14 20 16 10 -11 -15 -16
-9 -14 20 16 10 -11 -15 -16
-9 -15 20 17 10 -11 -15 -16
-9 -16 20 18 10 -11 -15 -16
-9 -17 20 19 10 -11 -15 -16
-9 -18 19 20 10 -11 -14 -17
-9 -18 19 20 10 -11 -14 -17
-9 -18 19 20 10 -11 -14 -17
-9 -18 19 20 10 -11 -14 -17
-9 -18 19 20 10 -11 -14 -17
-8 -17 19 20 11 -10 -15 -18
-8 -17 19 20 11 -10 -15 -18
-8 -17 19 20 11 -10 -15 -18
-8 -16 18 20 11 -10 -14 -18
-8 -16 18 20 11 -10 -14 -18
-7 -15 17 21 11 -10 -13 -17
-7 -15 17 21 12 -10 -13 -17
-6 -15 17 22 13 -9 -13 -17
-6 -15 17 23 14 -9 -13 -16
-5 -15 17 24 15 -8 -13 -16
-4 -16 16 25 16 -7 -13 -15
-4 -16 16 25 16 -7 -13 -15
-3 -16 15 25 15 -7 -13 -15
-3 -16 15 26 15 -7 -13 -15
-2 -16 14 26 14 -7 -13 -15
0 -15 13 27 13 -7 -13 -14
1 -15 13 27 13 -7 -13 -14
2 -14 13 26 13 -7 -12 -14
3 -14 12 26 13 -6 -11 -13
4 -13 12 25 13 -6 -10 -13
5 -12 11 24 14 -5 -9 -12
5 -12 10 24 14 -5 -9 -11
6 -12 9 24 13 -5 -8 -10
6 -11 8 23 12 -5 -8 -9
7 -11 7 23 11 -5 -7 -8
8 -10 6 22 10 -5 -6 -7
8 -10 5 21 10 -5 -6 -7
8 -10 3 20 9 -5 -5 -6
8 -10 1 19 8 -5 -5 -5
8 -10 -2 18 7 -5 -4 -4
9 -10 -4 16 6 -5 -3 -3
9 -10 -4 16 5 -5 -3 -3
10 -9 -4 15 4 -5 -3 -2
10 -8 -5 15 3 -5 -2 -2
11 -7 -5 14 2 -5 -2 0
12 -6 -6 13 1 -5 0 1
12 -6 -7 12 1 -5 0 1
12 -6 -8 11 1 -5 0 2
13 -6 -9 10 0 -5 0 2
13 -6 -10 9 0 -5 0 3
14 -5 -11 7 -2 -4 0 4
14 -5 -11 7 -2 -4 0 4
14 -4 -11 7 -3 -4 1 5
15 -4 -11 7 -3 -4 2 5
15 -3 -11 7 -4 -4 3 6
16 -2 -12 6 -5 -4 4 7
16 0 -12 6 -5 -4 4 7
17 1 -12 6 -5 -3 5 7
18 2 -12 5 -5 -3 5 8
19 3 -12 5 -5 -2 6 8
20 5 -13 4 -5 0 7 9
20 5 -13 4 -5 0 7 9
20 5 -12 4 -5 0 7 9
20 6 -11 4 -4 0 8 10
20 6 -10 4 -4 0 8 10
20 7 -9 4 -3 1 9 11
19 7 -9 4 -3 1 9 11
18 7 -8 4 -2 1 9 11
17 7 -8 4 -2 2 9 11
16 7 -7 4 0 2 9 11
15 7 -6 5 1 3 9 10
14 7 -5 5 1 3 9 10
13 6 -4 5 1 3 9 10
12 6 -3 5 1 3 9 10
11 5 -2 5 1 3 9 10
10 4 0 4 2 4 8 9
9 4 0 4 2 4 8 9
8 4 1 4 3 4 8 8
7 4 2 4 4 4 7 8
6 4 3 4 5 4 7 7
5 3 4 4 6 5 6 6
5 3 5 4 6 5 6 5
4 3 6 4 6 5 5 4
4 3 7 4 6 5 5 3
3 3 8 4 6 5 4 2
2 3 9 4 5 4 3 1
2 3 9 4 5 4 3 1
2 3 9 4 5 3 2 1
1 2 9 4 5 3 2 1
1 2 9 4 5 2 1 1
0 1 10 3 5 1 0 0
-2 1 10 3 5 1 0 0
-3 0 10 2 4 0 0 -2
-5 -2 10 1 3 -2 0 -2
-6 -3 10 0 2 -3 0 -3
-8 -4 9 -2 1 -4 -2 -4
-7 -4 9 -2 1 -4 -2 -4
-6 -4 10 -2 2 -3 -2 -4
-5 -4 10 0 3 -3 -2 -4
-4 -4 11 0 4 -2 -2 -4
-3 -4 12 1 5 0 -2 -4
-3 -4 12 1 5 0 -2 -4
-3 -4 12 1 5 0 -2 -4
-4 -4 12 1 4 0 -2 -4
-4 -4 12 1 4 0 -2 -4
-5 -5 12 2 3 -2 -3 -5
-5 -6 12 2 3 -2 -3 -5
-6 -7 12 2 3 -3 -4 -5
-7 -8 12 2 3 -3 -5 -6
-8 -9 12 2 3 -4 -6 -6
-9 -10 12 1 3 -5 -7 -7
-9 -10 12 2 4 -5 -7 -7
-9 -10 12 3 5 -4 -7 -7
-8 -9 13 4 6 -4 -7 -6
-8 -9 13 5 7 -3 -7 -6
-7 -8 14 6 8 -2 -6 -5
-7 -8 14 6 8 -2 -6 -5
-7 -8 14 6 8 -2 -6 -5
-7 -8 14 6 9 -2 -5 -5
-7 -8 14 6 9 -2 -5 -5
-6 -7 14 7 10 0 -4 -5
-6 -7 14 7 10 0 -4 -5
-6 -7 14 7 10 1 -4 -5
-6 -7 14 8 10 1 -3 -5
-6 -7 14 8 10 2 -3 -5
-6 -6 15 9 11 3 -2 -4
-6 -6 15 9 11 3 -2 -4
-6 -6 15 9 11 3 -2 -4
-7 -6 15 9 12 3 -2 -4
-7 -6 15 9 12 3 -2 -4
-8 -7 14 10 13 2 -2 -5
-8 -7 14 10 13 2 -2 -5
-7 -7 15 10 13 3 -2 -4
-7 -6 15 11 14 3 0 -4
-6 -6 16 11 14 4 0 -3
-5 -5 17 12 15 5 1 -2
-5 -5 17 12 15 5 1 -2
-5 -5 17 12 16 5 1 -2
-5 -5 16 13 16 6 1 -2
-5 -5 16 13 17 6 1 -2
-5 -4 15 14 18 7 2 -2
-5 -4 15 14 18 7 2 -2
-6 -5 15 13 17 7 2 -2
-7 -6 14 13 16 7 2 -2
-8 -7 14 12 15 7 2 -2
-9 -8 13 11 14 7 2 -3
-9 -8 13 11 14 7 2 -3
-9 -8 13 11 14 7 2 -3
-9 -8 13 11 14 7 3 -3
-9 -8 13 11 14 7 3 -3
-8 -7 14 11 15 8 4 -2
-7 -6 14 11 15 8 4 -2
-6 -5 14 11 15 8 4 -2
-5 -3 14 10 14 8 4 -2
-5 -2 14 10 14 8 4 -2
-4 0 14 10 14 8 4 -2
-3 1 13 9 13 7 3 0
-3 1 13 9 13 7 3 0
-4 0 13 9 13 7 3 0
-4 0 13 9 13 7 3 0
-4 0 13 9 13 7 3 0
-5 -2 12 8 13 8 3 -2
-5 -2 12 8 13 8 3 -2
-5 -2 12 7 12 8 3 -2
-5 -2 12 7 12 8 3 -2
-5 -2 12 7 12 8 3 -2
-5 -3 11 6 11 7 3 0
-5 -3 11 6 11 7 3 0
-5 -3 11 5 11 7 3 0
-5 -3 11 5 11 7 3 0
-5 -3 11 5 11 7 3 0
-6 -3 10 4 10 6 3 -2
-6 -3 10 3 9 6 3 -2
-6 -4 9 3 8 5 3 -2
-6 -4 9 2 7 5 3 -2
-6 -4 9 2 7 5 3 -2
-5 -5 8 1 6 4 2 -2
-5 -5 8 1 6 4 2 -2
-5 -5 8 1 6 4 2 -2
-5 -5 8 1 6 4 2 -2
-5 -5 8 1 6 4 2 -2
-6 -4 7 1 7 4 2 0
-6 -4 7 1 6 4 2 0
-6 -4 6 0 6 4 1 0
-6 -4 6 0 5 4 1 0
-6 -4 6 0 5 4 1 0
-5 -3 5 -2 4 3 0 -2
-5 -4 5 -2 4 3 0 -2
-6 -4 5 -2 4 3 0 -2
-6 -5 5 -2 4 3 0 -2
-6 -5 5 -2 4 3 0 -2
-7 -6 5 -3 4 2 -2 -3
-7 -6 5 -3 4 2 -2 -3
-7 -5 5 -2 4 3 0 -2
-7 -5 5 -2 4 3 0 -2
-7 -5 5 -2 4 3 0 -2
-6 -4 5 0 4 4 1 0
-6 -4 5 -2 4 4 1 0
-6 -4 5 -2 4 4 1 -2
-6 -4 5 -3 4 4 1 -2
-6 -4 5 -3 4 4 1 -2
-6 -5 5 -4 4 3 1 -3
-6 -5 5 -4 4 3 1 -3
-6 -5 5 -4 4 3 1 -2
-6 -5 5 -4 4 3 1 -2
-6 -5 5 -4 4 3 1 -2
-6 -4 4 -4 4 3 1 0
-6 -5 4 -4 4 3 1 0
-6 -6 4 -4 4 3 0 0
-6 -7 4 -4 4 3 0 0
-6 -8 4 -4 4 3 0 0
-7 -9 4 -4 3 3 -2 -2
-7 -8 5 -4 3 3 0 -2
-6 -8 6 -3 4 4 0 -2
-6 -7 7 -3 4 4 1 -2
-6 -7 8 -3 4 4 1 -2
-5 -6 9 -2 5 5 2 0
-5 -5 9 -2 5 5 2 0
-5 -4 9 -2 5 5 2 0
-5 -3 9 -2 5 5 2 0
-5 -2 9 -2 5 5 2 0
-4 0 9 0 6 5 2 1
-4 1 10 1 7 6 3 1
-4 2 11 1 7 7 3 2
-4 3 12 2 8 8 4 2
-4 4 13 2 8 8 4 2
-3 5 14 3 9 9 5 3
-3 6 15 4 10 10 6 4
-2 7 16 4 11 11 6 4
-2 8 17 5 12 12 7 5
-2 9 17 5 12 12 7 5
0 10 18 6 13 13 8 6
0 10 18 6 13 13 8 6
-2 9 17 6 13 13 8 6
-2 9 17 6 13 13 8 6
-2 9 17 6 13 13 8 6
-3 8 14 4 12 12 9 7
-3 8 12 3 12 12 9 7
-3 8 9 2 11 11 8 7
-3 8 7 1 11 11 8 7
-3 8 5 0 11 11 8 7
0 8 4 -2 10 11 8 6
1 10 4 -2 10 12 9 7
2 12 4 0 11 13 10 8
3 14 4 0 11 14 11 9
4 16 4 0 11 15 12 10
5 17 5 1 12 16 13 11
4 16 5 1 12 16 13 11
3 16 4 1 12 16 12 10
2 15 4 1 12 16 12 10
2 15 4 1 12 16 12 10
2 14 3 1 10 15 11 9
3 13 2 0 9 14 10 9
5 13 1 -2 8 13 10 9
6 12 0 -3 7 12 9 9
7 12 0 -4 6 11 9 9
8 10 -2 -5 5 9 8 8
7 8 -3 -6 4 8 7 7
6 6 -4 -7 3 7 6 7
5 4 -5 -8 2 6 5 6
4 3 -5 -9 1 5 4 6
3 2 -6 -10 0 4 3 5
2 2 -5 -10 0 4 3 5
2 2 -5 -10 0 4 3 5
1 2 -4 -10 0 4 3 5
1 2 -4 -10 0 4 3 5
-2 0 -3 -9 1 4 3 3
-4 -3 -3 -10 0 3 2 2
-6 -5 -3 -11 0 2 1 0
-8 -7 -3 -12 -2 1 0 -2
-9 -9 -3 -12 -2 0 0 -3
-10 -10 -3 -13 -3 -2 -3 -4
-11 -11 -3 -13 -4 -3 -4 -5
-11 -11 -4 -14 -5 -3 -5 -5
-12 -12 -4 -14 -6 -4 -6 -6
-12 -12 -4 -14 -6 -4 -7 -6
-13 -13 -5 -15 -7 -5 -8 -7
-13 -13 -5 -15 -7 -5 -8 -7
-13 -13 -5 -16 -7 -5 -8 -7
-13 -13 -5 -16 -7 -5 -8 -7
-13 -13 -5 -16 -7 -5 -8 -7
-12 -12 -5 -17 -7 -5 -7 -7
-12 -12 -5 -17 -7 -5 -7 -7
-12 -13 -5 -17 -7 -6 -7 -7
-12 -13 -5 -17 -7 -6 -7 -7
-12 -13 -5 -17 -7 -6 -7 -7
-13 -14 -6 -16 -8 -7 -8 -8
-12 -13 -6 -16 -8 -7 -8 -8
-11 -13 -5 -16 -8 -7 -8 -8
-10 -12 -5 -16 -8 -7 -8 -8
-10 -12 -5 -16 -8 -7 -8 -8
-9 -11 -4 -16 -7 -7 -9 -7
-10 -12 -4 -16 -7 -7 -9 -7
-11 -13 -4 -16 -7 -7 -9 -7
-12 -14 -4 -16 -7 -7 -9 -7
-12 -14 -4 -16 -7 -7 -9 -7
-13 -15 -4 -15 -8 -6 -8 -7
-12 -15 -4 -15 -7 -5 -8 -7
-11 -15 -4 -15 -7 -4 -7 -7
-10 -15 -4 -15 -6 -3 -7 -7
-10 -15 -4 -15 -6 -3 -7 -7
-9 -15 -3 -14 -5 -2 -6 -7
-10 -15 -2 -12 -4 -3 -7 -7
-11 -14 1 -10 -3 -3 -7 -7
-12 -14 2 -9 -2 -4 -8 -7
-13 -14 3 -7 -2 -4 -8 -7
-14 -13 13 9 11 0 -8 -7
-15 -12 24 25 23 5 -6 -8
-15 -11 35 42 36 10 -5 -9
-16 -10 46 58 49 15 -3 -10
-16 -9 57 73 62 20 -2 -10
-8 6 58 87 79 42 19 3
4 21 57 99 97 65 42 19
15 36 55 111 114 90 65 35
26 52 54 123 132 113 88 52
37 67 53 136 149 137 111 67
53 100 24 109 149 173 151 104
69 137 -8 74 145 209 194 144
86 174 -40 40 142 245 237 184
102 210 -72 7 138 282 280 224
118 246 -104 -27 134 319 323 263
107 227 -113 -67 89 271 284 244
89 198 -119 -109 36 210 231 215
71 170 -126 -150 -15 148 178 186
54 141 -131 -192 -66 87 125 156
36 111 -137 -233 -118 25 72 127
26 88 -143 -244 -141 -9 38 99
18 64 -150 -249 -158 -37 10 72
9 42 -156 -256 -176 -67 -20 45
1 18 -163 -262 -194 -96 -50 17
-8 -5 -171 -268 -212 -124 -79 -11
-10 -11 -158 -242 -194 -119 -80 -17
-10 -13 -142 -211 -171 -107 -74 -19
-10 -16 -126 -179 -146 -95 -69 -21
-10 -19 -110 -147 -122 -81 -63 -24
-10 -21 -94 -115 -98 -69 -57 -26
-12 -22 -79 -99 -85 -63 -53 -27
-14 -23 -65 -85 -72 -57 -49 -26
-16 -24 -52 -71 -61 -51 -45 -26
-19 -25 -37 -57 -50 -45 -40 -25
-21 -25 -24 -44 -37 -38 -36 -25
-21 -25 -18 -35 -31 -34 -33 -23
-19 -24 -13 -29 -26 -31 -31 -22
-17 -22 -9 -23 -21 -27 -29 -21
-16 -20 -5 -17 -16 -24 -26 -19
-14 -19 1 -10 -11 -20 -24 -18
-13 -18 3 -8 -9 -19 -23 -17
-14 -18 4 -6 -8 -18 -23 -17
-14 -19 5 -4 -6 -18 -22 -17
-15 -19 6 -3 -4 -17 -22 -17
-15 -19 7 0 -3 -17 -22 -17
-16 -20 8 1 -2 -16 -21 -16
-15 -20 8 1 -2 -16 -20 -16
-15 -19 8 1 0 -15 -20 -15
-14 -19 8 1 0 -15 -19 -15
-14 -19 8 1 0 -15 -19 -15
-13 -18 9 2 1 -14 -18 -14
-14 -19 9 3 1 -14 -18 -14
-14 -19 10 3 1 -14 -19 -14
-15 -20 10 4 1 -14 -19 -14
-15 -20 10 4 1 -14 -19 -14
-16 -21 11 5 2 -14 -20 -15
-15 -20 11 5 2 -14 -20 -15
-15 -20 11 5 2 -14 -20 -15
-14 -19 11 5 2 -14 -20 -15
-14 -19 11 5 2 -14 -20 -15
-13 -18 12 6 2 -13 -20 -14
-12 -18 13 7 2 -13 -20 -14
-12 -17 13 7 2 -13 -20 -14
-11 -17 14 8 2 -13 -20 -14
-11 -17 14 8 2 -13 -20 -14
-10 -16 15 9 2 -14 -19 -14
-10 -16 15 9 2 -14 -19 -14
-10 -16 15 9 2 -14 -19 -15
-10 -16 15 9 2 -14 -19 -15
-10 -16 15 9 2 -14 -19 -15
-9 -17 15 8 3 -14 -19 -16
-10 -18 15 8 3 -14 -19 -16
-10 -18 16 8 3 -15 -20 -16
-11 -19 16 8 3 -15 -20 -16
-11 -19 16 8 3 -15 -20 -16
-12 -20 17 9 2 -16 -21 -17
-12 -19 17 9 2 -16 -21 -17
-12 -19 17 9 3 -16 -21 -16
-12 -18 17 9 3 -16 -21 -16
-12 -18 17 9 3 -16 -21 -16
-11 -17 16 9 4 -16 -21 -15
-11 -17 16 9 4 -16 -21 -15
-12 -17 16 9 4 -16 -21 -16
-12 -17 16 9 4 -16 -21 -16
-12 -17 16 9 4 -16 -21 -16
-13 -18 16 10 3 -17 -22 -17
-12 -18 16 11 4 -16 -21 -17
-11 -18 17 12 5 -16 -21 -16
-10 -18 17 13 6 -15 -20 -16
-9 -18 17 13 7 -15 -20 -16
-8 -17 18 14 8 -14 -19 -15
-8 -17 18 14 8 -14 -19 -15
-8 -17 18 15 8 -14 -19 -15
-8 -17 18 15 8 -14 -19 -15
-8 -17 18 15 8 -14 -19 -15
-9 -18 19 16 9 -14 -19 -15
-9 -18 19 16 9 -14 -19 -15
-9 -18 19 16 9 -14 -20 -15
-9 -18 19 16 9 -14 -20 -15
-9 -18 19 16 9 -14 -20 -15
-9 -19 19 15 10 -15 -21 -16
-9 -19 19 16 10 -15 -21 -16
-9 -19 19 17 10 -15 -21 -16
-9 -19 19 18 10 -15 -21 -16
-9 -19 19 18 10 -15 -21 -16
-8 -20 19 19 11 -15 -21 -17
-7 -19 19 19 11 -15 -21 -17
-6 -19 19 19 11 -15 -21 -16
-5 -18 19 19 11 -15 -21 -16
-5 -18 19 19 11 -15 -21 -16
-4 -17 18 20 11 -14 -20 -15
-4 -17 18 21 11 -14 -20 -15
-4 -17 18 21 12 -14 -20 -15
-4 -17 18 22 12 -14 -20 -15
-4 -17 18 22 12 -14 -20 -15
-4 -17 18 23 13 -13 -20 -16
-4 -17 17 23 13 -13 -19 -16
-4 -17 16 23 13 -13 -19 -15
-4 -17 15 23 13 -13 -18 -15
-4 -17 15 23 13 -13 -18 -15
-4 -18 14 22 13 -13 -17 -14
-4 -18 13 22 13 -13 -17 -14
-3 -18 12 22 13 -13 -17 -14
-3 -18 11 22 13 -13 -17 -14
-3 -18 11 22 13 -13 -17 -14
0 -18 10 23 13 -13 -18 -13
1 -17 9 23 13 -12 -16 -12
2 -16 9 23 13 -12 -15 -11
4 -15 8 23 13 -11 -14 -10
5 -14 8 23 13 -11 -13 -9
6 -13 7 22 12 -10 -12 -8
6 -13 6 22 12 -10 -12 -7
7 -13 5 22 12 -10 -12 -7
7 -13 4 22 12 -10 -12 -6
7 -13 4 22 12 -10 -12 -6
8 -14 2 20 11 -11 -12 -5
8 -14 1 18 10 -11 -11 -5
9 -13 -2 17 9 -11 -11 -5
9 -13 -4 15 8 -11 -10 -5
9 -13 -5 13 7 -11 -10 -5
10 -12 -6 12 6 -12 -9 -4
12 -11 -6 12 5 -11 -8 -2
13 -10 -6 12 4 -11 -7 0
14 -9 -6 12 3 -10 -6 1
15 -8 -6 12 2 -10 -6 2
16 -7 -7 12 1 -9 -5 3
17 -6 -8 11 1 -9 -4 5
17 -5 -9 11 0 -9 -3 6
18 -4 -10 10 0 -9 -2 7
18 -3 -10 10 0 -9 -2 8
19 -2 -11 9 -2 -8 0 9
19 -2 -12 7 -3 -8 0 8
19 -2 -12 6 -4 -9 -2 8
19 -2 -13 5 -5 -9 -2 7
19 -2 -13 4 -5 -9 -2 7
19 0 -14 3 -6 -10 -3 6
19 1 -14 3 -6 -9 -3 8
19 1 -14 3 -6 -9 -3 9
19 2 -14 3 -6 -8 -3 10
19 2 -14 3 -6 -8 -3 11
19 3 -14 3 -5 -7 -2 12
19 3 -12 4 -4 -7 0 12
19 3 -11 4 -4 -6 1 13
19 3 -10 5 -3 -6 2 13
19 3 -9 5 -3 -6 3 13
18 4 -8 6 -2 -5 4 14
17 5 -7 6 -2 -5 4 13
16 5 -7 6 -2 -5 4 13
15 6 -6 6 -2 -5 4 12
14 6 -6 6 -2 -5 4 12
13 7 -5 5 0 -5 3 11
12 6 -4 5 1 -5 3 10
11 6 -3 5 1 -4 2 10
11 5 -2 5 2 -4 2 9
10 5 0 5 2 -4 2 9
9 4 1 6 3 -3 1 8
8 4 2 6 3 -3 0 7
8 4 2 5 3 -3 0 7
7 4 3 5 3 -3 -2 6
7 4 3 5 3 -3 -2 6
6 5 4 4 2 -4 -3 5
4 3 5 4 2 -4 -3 3
3 2 5 4 2 -4 -4 2
2 1 6 4 2 -4 -4 1
1 0 6 4 2 -4 -4 0
0 -2 7 3 3 -5 -5 -2
-2 -3 7 2 3 -5 -6 -2
-3 -3 7 2 3 -6 -6 0
-3 -4 7 1 3 -6 -7 0
-4 -4 7 1 3 -6 -7 0
-5 -5 7 0 3 -7 -8 1
-5 -5 7 0 3 -7 -8 0
-5 -5 7 1 2 -8 -8 -2
-5 -5 7 1 2 -8 -8 -2
-5 -5 7 1 2 -8 -8 -3
-4 -4 8 2 1 -9 -9 -4
-4 -5 8 2 1 -9 -9 -4
-5 -6 8 2 1 -10 -10 -4
-5 -6 8 2 1 -10 -10 -4
-5 -7 8 2 1 -10 -10 -4
-6 -8 9 1 1 -11 -11 -5
-6 -8 9 2 1 -11 -11 -5
-6 -8 9 2 1 -11 -11 -5
-6 -8 9 3 1 -11 -11 -5
-6 -8 9 3 1 -11 -11 -5
-6 -7 10 4 2 -10 -10 -4
-6 -7 10 4 2 -10 -10 -4
-6 -7 10 4 2 -10 -11 -5
-6 -7 10 4 2 -10 -11 -5
-6 -7 10 4 2 -10 -11 -5
-6 -8 9 3 3 -11 -12 -6
-6 -8 9 4 4 -11 -12 -6
-6 -8 10 4 4 -11 -12 -6
-6 -8 10 5 5 -11 -12 -6
-6 -8 10 5 5 -11 -12 -6
-6 -7 11 6 6 -10 -12 -7
-6 -7 11 6 6 -10 -12 -6
-6 -7 10 6 6 -10 -12 -6
-6 -7 10 6 6 -10 -12 -5
-6 -7 10 6 6 -10 -12 -5
-6 -7 9 7 5 -9 -11 -4
-6 -7 9 8 6 -9 -11 -4
-6 -7 9 8 6 -9 -10 -4
-6 -7 9 9 7 -9 -10 -4
-6 -7 9 9 7 -9 -10 -4
-7 -7 10 10 8 -8 -9 -4
-8 -7 10 10 8 -8 -9 -4
-8 -8 10 10 8 -8 -9 -4
-9 -8 10 10 8 -8 -9 -4
-9 -8 10 10 8 -8 -9 -4
-10 -9 9 10 9 -7 -9 -4
-10 -8 9 10 9 -6 -8 -4
-10 -7 10 10 9 -6 -8 -3
-10 -6 10 10 9 -5 -7 -3
-10 -5 10 10 9 -5 -7 -3
-9 -4 11 10 10 -4 -6 -2
-8 -4 11 11 11 -3 -5 0
-7 -3 11 11 11 -3 -5 0
-6 -3 11 12 12 -2 -4 1
-5 -3 11 12 12 -2 -4 1
-4 -2 12 13 13 0 -3 2
-4 -2 12 13 13 0 -3 2
-4 -2 11 13 12 0 -3 2
-4 -2 11 13 12 0 -3 2
-4 -2 11 13 12 0 -3 2
-5 -3 10 13 11 -2 -4 1
-5 -3 10 13 11 -2 -4 1
-5 -3 10 12 11 -2 -4 1
-5 -3 10 12 11 -2 -4 1
-5 -3 10 12 11 -2 -4 1
-4 -2 9 11 11 -3 -4 1
-4 -2 9 11 11 -3 -4 1
-4 -2 8 10 10 -3 -4 1
-4 -2 8 10 10 -3 -4 1
-4 -2 8 10 10 -3 -4 1
-5 -3 7 9 9 -3 -3 1
-5 -3 7 9 9 -3 -3 1
-5 -3 7 8 8 -3 -3 1
-5 -3 7 8 8 -3 -3 1
-5 -3 7 8 8 -3 -3 1
-4 -3 6 7 7 -3 -4 2
-5 -3 6 7 7 -3 -4 2
-6 -4 6 6 6 -4 -4 1
-6 -4 6 6 6 -4 -4 1
-7 -4 6 6 6 -4 -4 1
-8 -5 5 5 5 -5 -4 0
-8 -5 5 5 5 -5 -4 0
-8 -5 4 4 4 -5 -4 0
-8 -5 4 4 4 -5 -4 0
-8 -5 4 4 4 -5 -4 0
-8 -6 3 3 3 -5 -5 -2
-8 -6 3 3 3 -5 -5 -2
-7 -5 3 3 3 -6 -6 -2
-7 -5 3 3 3 -6 -6 -2
-7 -5 3 3 3 -6 -6 -2
-6 -4 2 2 2 -7 -7 0
-5 -3 2 2 2 -7 -7 0
-3 -2 3 2 2 -6 -6 0
-2 0 3 2 2 -5 -5 0
0 1 3 2 2 -5 -5 0
1 2 4 3 2 -4 -4 1
0 1 4 3 2 -5 -4 1
-2 -2 3 2 1 -6 -4 1
-2 -3 3 2 1 -6 -4 1
-3 -4 3 2 1 -7 -4 1
-4 -5 2 1 0 -8 -4 0
-4 -5 2 1 0 -8 -4 0
-4 -5 2 0 0 -8 -5 0
-4 -5 2 0 0 -8 -5 0
-4 -5 2 0 0 -8 -5 0
-5 -4 1 -2 -2 -8 -6 -2
-5 -4 1 -2 -2 -8 -6 -2
-5 -5 1 -2 -2 -7 -6 0
-5 -5 1 -2 -2 -7 -6 0
-5 -5 1 -2 -2 -7 -6 0
-6 -6 1 -2 -2 -6 -6 1
-6 -6 1 -2 -2 -6 -6 1
-6 -6 1 -3 -3 -7 -7 1
-6 -6 1 -3 -3 -7 -7 1
-6 -6 1 -3 -3 -7 -7 1
-5 -6 0 -4 -4 -8 -8 0
-5 -6 0 -4 -4 -8 -8 0
-6 -7 0 -4 -4 -8 -8 -2
-6 -7 0 -4 -4 -8 -8 -2
-6 -7 0 -4 -4 -8 -8 -2
-7 -8 0 -4 -4 -9 -7 -3
-7 -8 0 -4 -4 -8 -7 -2
-6 -7 1 -3 -3 -7 -6 0
-5 -6 2 -3 -3 -7 -5 1
-5 -6 2 -3 -3 -6 -5 2
-4 -5 3 -2 -2 -5 -4 3
-4 -5 3 -2 -2 -5 -4 3
-3 -4 3 -2 -2 -5 -4 3
-3 -3 3 -2 -2 -5 -4 3
-3 -3 3 -2 -2 -5 -4 3
-2 -2 3 0 0 -6 -4 2
-2 0 5 0 0 -5 -4 2
-2 2 6 1 1 -4 -3 2
-2 3 8 2 1 -3 -2 2
-2 4 9 2 1 -2 -2 2
-3 5 10 3 2 0 0 2
-2 7 11 5 4 0 1 4
0 8 12 6 5 1 2 6
0 10 13 8 7 2 3 7
1 11 14 9 8 2 4 9
2 12 15 10 9 3 5 10
2 12 13 9 9 3 5 9
2 12 12 8 8 3 4 8
2 12 10 8 7 3 4 8
2 12 9 7 7 3 4 7
2 12 7 6 6 4 3 6
2 12 5 5 5 4 3 6
2 11 3 3 4 3 3 7
2 10 1 2 3 3 3 8
2 10 -2 1 2 3 3 8
1 9 -3 0 1 2 3 9
2 11 -3 1 2 3 4 10
3 12 -3 2 3 4 5 11
4 14 -3 2 4 4 6 12
5 15 -3 3 5 5 7 13
6 16 -3 4 6 6 8 14
6 16 -3 4 6 6 8 14
5 16 -3 4 6 6 7 13
5 16 -3 4 6 6 7 13
5 16 -3 4 6 6 7 13
4 14 -4 3 5 5 6 12
5 12 -5 2 3 3 4 11
6 10 -7 0 2 2 3 10
6 8 -9 -2 0 0 1 10
7 5 -11 -3 -2 -2 0 9
8 4 -12 -4 -3 -3 -2 8
7 3 -12 -5 -3 -3 -2 8
5 2 -11 -6 -4 -3 0 8
4 2 -10 -6 -5 -3 0 8
3 1 -10 -7 -5 -3 0 8
2 0 -9 -8 -6 -4 1 7
2 0 -9 -8 -6 -4 1 7
2 0 -9 -8 -6 -4 1 7
2 0 -9 -8 -6 -4 1 7
2 0 -9 -8 -6 -4 1 7
1 0 -9 -9 -5 -4 0 6
-2 -3 -9 -9 -6 -5 -3 4
-4 -5 -8 -9 -7 -7 -4 2
-5 -7 -8 -9 -8 -8 -6 1
-7 -9 -8 -9 -9 -9 -7 -2
-8 -10 -7 -9 -10 -10 -8 -3
-8 -10 -8 -10 -11 -11 -9 -3
-8 -11 -9 -12 -12 -12 -10 -4
-8 -11 -9 -13 -13 -12 -10 -5
-8 -11 -10 -14 -14 -13 -11 -5
-9 -12 -11 -15 -15 -14 -12 -6
-9 -12 -11 -15 -15 -14 -12 -6
-9 -12 -11 -15 -15 -14 -12 -6
-9 -12 -11 -15 -15 -14 -12 -6
-9 -12 -11 -15 -15 -14 -12 -6
-8 -12 -11 -15 -15 -14 -12 -5
-8 -12 -11 -15 -15 -14 -12 -5
-8 -12 -11 -15 -14 -14 -12 -6
-8 -12 -11 -15 -14 -14 -12 -6
-8 -12 -11 -15 -14 -14 -12 -6
-7 -12 -10 -15 -13 -14 -12 -7
-7 -13 -10 -15 -13 -14 -12 -7
-8 -14 -9 -14 -13 -13 -11 -7
-9 -14 -9 -14 -13 -12 -11 -7
-9 -15 -9 -14 -13 -12 -11 -7
-10 -16 -8 -13 -13 -11 -10 -6
-10 -16 -8 -13 -13 -11 -10 -6
-10 -16 -9 -13 -13 -12 -10 -6
-10 -16 -9 -13 -13 -12 -10 -6
-10 -16 -9 -13 -13 -12 -10 -6
-9 -15 -10 -13 -14 -13 -11 -6
-9 -14 -10 -13 -14 -13 -11 -6
-8 -13 -10 -12 -13 -12 -10 -6
-8 -13 -10 -12 -13 -11 -10 -6
-8 -12 -10 -12 -13 -11 -10 -6
-7 -11 -8 -10 -11 -10 -9 -5
-9 -11 -5 -7 -9 -10 -10 -6
-11 -12 0 -4 -7 -10 -11 -7
-12 -12 3 -2 -5 -10 -11 -7
-14 -12 6 2 -2 -10 -12 -8
-14 -12 14 15 9 -5 -11 -9
-12 -8 25 35 26 5 -7 -8
-10 -5 37 57 44 14 -3 -7
-8 0 49 77 61 23 2 -6
-5 3 60 98 78 32 7 -5
3 15 61 110 95 55 26 9
16 35 52 113 111 86 59 32
28 55 43 117 127 117 92 56
42 74 32 121 143 149 125 79
54 95 23 126 158 181 157 103
65 121 1 102 154 205 188 133
75 153 -31 56 132 225 218 167
86 185 -63 9 109 243 246 200
97 216 -94 -37 87 263 276 234
107 247 -126 -85 64 282 306 268
101 241 -142 -127 25 252 282 261
80 201 -146 -165 -28 177 216 218
60 161 -150 -203 -82 103 148 174
39 121 -153 -242 -136 28 80 131
19 80 -157 -280 -190 -46 13 87
8 54 -159 -288 -211 -86 -25 57
5 37 -161 -270 -203 -95 -38 38
2 21 -162 -251 -195 -105 -51 21
-2 6 -163 -232 -188 -114 -63 3
-5 -11 -165 -213 -180 -124 -76 -15
-7 -19 -157 -192 -166 -123 -79 -24
-8 -21 -139 -169 -148 -110 -73 -25
-9 -23 -120 -146 -129 -97 -67 -26
-9 -24 -102 -123 -110 -83 -61 -27
-10 -26 -83 -101 -92 -70 -55 -28
-11 -27 -68 -83 -77 -61 -50 -29
-12 -27 -57 -70 -66 -54 -46 -28
-14 -26 -46 -58 -56 -48 -40 -27
-15 -26 -33 -46 -45 -40 -36 -27
-16 -26 -22 -32 -33 -34 -32 -26
-17 -25 -15 -24 -26 -29 -28 -24
-17 -24 -11 -20 -22 -26 -26 -22
-16 -23 -8 -15 -18 -23 -24 -20
-16 -22 -5 -11 -14 -21 -22 -18
-16 -21 0 -7 -9 -18 -20 -16
-15 -20 2 -4 -7 -16 -18 -15
-14 -20 4 -2 -5 -15 -18 -15
-13 -20 5 1 -3 -14 -18 -15
-13 -20 6 3 -2 -14 -18 -15
-12 -20 8 5 1 -13 -18 -15
-11 -19 9 6 2 -12 -17 -15
-11 -20 9 6 2 -12 -17 -15
-11 -21 9 6 2 -12 -17 -15
-11 -21 9 6 2 -12 -17 -15
-11 -22 9 6 2 -12 -17 -15
-12 -23 9 6 3 -11 -16 -16
-12 -23 9 7 3 -11 -16 -16
-12 -23 10 8 4 -10 -15 -16
-12 -23 11 8 4 -10 -15 -16
-12 -23 11 9 4 -10 -15 -16
-13 -24 12 10 5 -9 -14 -15
-13 -23 12 10 5 -9 -14 -15
-12 -22 13 10 5 -9 -14 -15
-11 -21 13 10 5 -9 -14 -15
-11 -20 13 10 5 -9 -14 -15
-10 -19 14 10 6 -8 -13 -16
-10 -19 15 11 6 -8 -13 -16
-10 -19 16 13 7 -7 -12 -15
-10 -19 17 14 8 -7 -12 -15
-10 -19 18 15 8 -7 -12 -15
-11 -19 19 16 9 -6 -11 -14
-11 -19 18 15 9 -6 -12 -14
-11 -20 17 14 9 -7 -13 -15
-11 -21 17 14 9 -7 -13 -15
-11 -21 16 13 9 -7 -14 -15
-11 -22 15 12 8 -8 -15 -16
-11 -22 16 12 8 -8 -15 -16
-11 -21 17 13 8 -8 -15 -16
-11 -21 17 13 8 -8 -15 -16
-11 -21 18 13 8 -8 -15 -16
-10 -20 19 14 9 -7 -14 -16
-10 -20 19 14 9 -7 -14 -16
-10 -20 19 14 9 -7 -14 -16
-10 -19 19 14 9 -7 -14 -16
-10 -19 19 14 9 -7 -14 -16
-9 -18 18 14 10 -6 -14 -16
-9 -18 18 14 10 -6 -14 -16
-9 -19 18 15 10 -6 -14 -17
-9 -20 18 16 11 -7 -15 -18
-9 -20 18 16 11 -7 -15 -18
-10 -21 19 17 12 -8 -16 -19
-10 -21 19 17 12 -8 -16 -19
-10 -21 19 17 12 -8 -15 -19
-10 -21 18 17 12 -7 -14 -18
-10 -21 18 17 12 -7 -14 -18
-10 -20 17 17 12 -6 -13 -17
-10 -20 17 18 13 -6 -13 -17
-10 -20 18 19 14 -6 -13 -17
-10 -20 19 20 15 -6 -13 -16
-10 -20 19 21 16 -6 -13 -16
-9 -19 20 22 17 -5 -12 -15
-9 -19 20 22 17 -5 -12 -15
-9 -19 20 22 17 -4 -12 -15
-8 -20 20 22 17 -3 -12 -15
-8 -20 20 22 17 -3 -12 -15
-7 -21 19 22 18 -2 -12 -15
-7 -21 19 23 18 -2 -12 -15
-7 -21 19 24 18 -2 -12 -15
-7 -21 20 25 19 -3 -12 -16
-7 -21 20 26 19 -3 -12 -16
-6 -21 21 27 20 -4 -12 -17
-6 -21 21 27 20 -4 -12 -17
-6 -21 21 27 20 -4 -12 -17
-6 -21 20 27 20 -4 -12 -17
-6 -21 20 27 20 -4 -12 -17
-7 -21 19 26 20 -3 -11 -17
-7 -21 19 27 20 -3 -11 -17
-7 -21 19 28 21 -3 -11 -17
-6 -21 19 29 22 -2 -10 -16
-6 -21 19 30 22 -2 -10 -16
-5 -21 20 31 23 0 -9 -15
-4 -21 19 31 23 0 -9 -15
-4 -21 18 31 23 0 -9 -15
-3 -20 17 31 23 1 -9 -14
-2 -20 16 31 23 1 -9 -14
0 -19 15 31 24 2 -8 -13
0 -19 15 31 24 2 -8 -13
0 -19 15 31 24 2 -7 -13
0 -19 15 31 23 2 -6 -13
0 -19 15 31 23 2 -6 -13
1 -19 14 32 22 2 -5 -12
2 -19 12 32 22 2 -5 -12
3 -18 11 32 22 2 -5 -11
4 -17 10 31 22 3 -5 -10
5 -17 8 31 22 3 -5 -10
6 -16 7 30 21 4 -5 -9
6 -16 7 30 21 4 -4 -8
6 -16 6 30 20 4 -4 -8
6 -16 5 29 19 4 -3 -7
6 -16 5 29 19 4 -2 -6
7 -17 4 28 18 5 0 -5
8 -15 2 27 18 5 1 -4
9 -14 1 26 17 5 2 -3
11 -12 -2 25 16 6 3 0
12 -10 -4 24 16 6 4 1
13 -9 -5 23 15 7 5 2
13 -9 -5 23 14 7 5 2
13 -9 -5 23 13 7 5 3
14 -9 -5 23 12 7 5 4
14 -9 -5 23 11 7 5 4
15 -9 -5 22 10 7 6 5
15 -9 -6 21 10 7 6 5
15 -9 -6 20 9 7 6 5
15 -9 -7 18 8 7 6 5
15 -9 -8 17 8 7 6 5
14 -8 -9 16 7 7 7 6
14 -8 -9 16 7 7 7 6
15 -7 -9 16 7 7 8 6
16 -6 -9 16 8 7 9 7
16 -6 -9 16 8 7 9 7
17 -5 -10 16 9 8 10 8
17 -4 -10 15 9 8 10 9
17 -3 -10 15 8 9 11 10
17 0 -10 14 7 10 12 11
17 1 -10 13 7 10 12 12
18 2 -11 12 6 11 13 13
18 2 -10 12 6 11 13 13
18 2 -9 12 6 11 13 13
18 3 -7 13 7 11 13 13
18 3 -6 13 7 11 13 13
17 4 -5 14 8 11 14 13
16 3 -5 14 8 11 14 13
15 3 -4 14 8 11 14 12
14 2 -3 13 8 11 13 11
13 1 -3 13 8 11 13 11
12 0 -2 12 8 11 12 10
11 0 0 12 9 11 12 10
10 0 0 12 9 11 12 10
9 1 1 12 10 12 12 9
8 1 2 12 11 12 12 9
7 2 3 13 12 13 11 8
6 2 3 13 12 13 10 8
6 2 4 12 12 13 10 7
5 2 5 11 12 13 9 6
4 2 5 11 12 13 8 6
3 1 6 10 11 12 7 5
2 0 6 10 11 11 6 4
0 -2 7 10 11 11 6 4
-2 -4 8 10 10 10 5 3
-4 -5 8 10 10 9 4 2
-5 -6 9 9 9 8 3 1
-5 -6 9 9 9 8 3 1
-5 -6 9 9 9 8 3 0
-5 -5 9 8 8 7 2 -2
-5 -5 9 8 8 7 2 -2
-4 -4 10 7 7 6 1 -3
-4 -4 10 7 7 6 1 -3
-5 -5 10 7 7 6 1 -3
-6 -6 10 7 7 5 0 -3
-6 -6 10 7 7 5 0 -3
-7 -7 11 7 7 4 -2 -4
-7 -7 11 7 7 4 -2 -4
-7 -7 11 7 7 4 -2 -4
-7 -7 11 7 7 4 -2 -4
-7 -7 11 7 7 4 -2 -4
-6 -6 12 6 6 4 0 -4
-6 -6 12 6 6 4 -2 -4
-6 -6 12 6 6 3 -2 -4
-7 -7 12 6 6 2 -3 -5
-7 -7 12 6 6 2 -4 -5
-8 -8 12 7 7 1 -5 -6
-8 -8 12 7 7 1 -5 -6
-8 -8 12 7 7 1 -5 -6
-8 -9 12 7 7 1 -5 -6
-8 -9 12 7 7 1 -5 -6
-9 -10 11 8 6 0 -6 -5
-9 -10 11 8 6 0 -6 -5
-9 -10 11 9 7 0 -6 -5
-9 -10 12 10 8 1 -5 -5
-9 -10 12 10 8 1 -5 -5
-8 -9 13 11 9 2 -4 -6
-8 -9 13 11 9 2 -4 -6
-8 -9 13 11 9 2 -4 -6
-8 -9 13 11 9 2 -4 -5
-8 -9 13 11 9 2 -4 -5
-8 -8 13 11 10 3 -3 -4
-8 -8 13 11 10 3 -3 -4
-8 -8 13 11 11 3 -3 -4
-8 -8 14 12 12 3 -3 -4
-8 -8 14 12 12 3 -3 -4
-8 -7 15 13 13 4 -2 -3
-8 -7 15 13 13 4 -2 -3
-8 -7 15 14 13 4 0 -2
-7 -7 15 15 14 5 1 0
-7 -7 15 15 14 5 1 0
-6 -7 15 16 15 6 2 1
-6 -7 15 16 15 6 2 1
-6 -7 15 16 15 6 2 1
-6 -7 15 17 15 7 2 1
-6 -7 15 17 15 7 2 1
-7 -6 15 18 16 8 1 0
-7 -6 15 18 16 8 1 0
-7 -6 15 17 16 8 1 0
-8 -6 15 16 15 8 1 0
-8 -6 15 16 15 8 1 0
-9 -5 15 15 14 8 1 -2
-9 -5 15 15 14 8 1 -2
-9 -5 15 15 14 8 1 -2
-8 -5 15 15 14 8 1 -2
-8 -5 15 15 14 8 1 -2
-7 -4 14 15 14 9 2 0
-7 -4 14 15 14 9 2 0
-7 -4 14 15 14 9 2 0
-7 -3 14 14 14 9 2 0
-7 -3 14 14 14 9 2 0
-6 -2 13 13 14 8 3 1
-6 -2 13 13 13 8 2 1
-6 -2 13 13 13 8 2 1
-7 -3 12 13 12 7 1 0
-7 -3 12 13 11 7 0 0
-8 -4 11 12 10 6 -2 -2
-8 -3 11 11 10 6 -2 -2
-7 -3 11 11 10 6 0 0
-6 -2 11 10 10 6 1 1
-6 0 11 9 10 6 1 1
-5 1 10 8 9 7 2 2
-5 1 10 8 9 7 2 2
-5 1 10 8 9 7 2 2
-5 0 10 9 9 7 2 2
-5 0 10 9 9 7 2 2
-6 -2 10 10 8 7 2 2
-6 -2 10 9 8 7 2 2
-6 -2 10 9 7 6 2 2
-6 -3 10 8 6 5 1 2
-6 -3 10 7 6 5 1 2
-6 -4 9 6 5 4 0 1
-6 -4 9 6 5 4 0 1
-6 -4 9 6 5 4 0 1
-7 -4 9 6 4 4 0 0
-7 -4 9 6 4 4 0 0
-8 -4 8 5 3 3 -2 -2
-8 -4 8 5 3 3 -2 -2
-8 -4 8 4 3 3 -2 0
-7 -3 7 3 3 3 -2 1
-7 -3 7 3 3 3 -2 1
-6 -2 6 2 2 3 -2 2
-7 -3 6 2 2 3 -2 2
-7 -3 6 2 1 2 -2 2
-8 -4 6 2 1 2 -3 1
-9 -5 6 2 0 1 -3 1
-10 -6 5 1 -2 0 -4 0
-9 -6 5 1 -2 0 -4 0
-8 -5 5 1 -2 0 -4 0
-7 -5 5 1 -2 0 -4 0
-5 -4 5 1 -2 0 -4 0
-4 -3 5 1 0 1 -5 0
-4 -3 5 1 0 1 -5 0
-4 -3 5 1 0 1 -5 0
-4 -3 5 1 0 1 -5 0
-4 -3 5 1 0 1 -5 0
-4 -3 6 2 0 1 -4 1
-4 -3 6 1 0 1 -4 1
-4 -3 6 1 0 1 -4 1
-5 -3 5 0 -2 0 -4 1
-5 -3 5 -2 -2 0 -4 1
-6 -4 4 -3 -3 -2 -4 1
-6 -4 4 -3 -3 -2 -4 1
-6 -4 4 -3 -3 -2 -4 1
-6 -4 4 -2 -3 -2 -4 1
-6 -4 4 -2 -3 -2 -4 1
-5 -4 5 0 -4 -2 -5 1
-5 -4 5 0 -4 -2 -5 1
-5 -4 5 0 -4 -2 -5 1
-5 -4 6 0 -3 -2 -5 1
-5 -4 6 0 -3 -2 -5 1
-4 -3 7 0 -2 -2 -4 2
-4 -2 7 0 -2 -2 -4 2
-4 -2 8 1 -2 0 -4 2
-3 0 8 1 0 0 -3 2
-3 1 9 2 0 1 -3 2
-2 2 10 3 1 2 -2 3
-2 3 11 3 1 2 -2 4
-2 5 12 3 2 2 -2 4
-3 6 13 3 2 3 0 5
-3 8 14 3 3 3 0 6
-4 9 15 4 4 4 1 7
-3 10 15 5 5 5 2 7
-3 11 15 6 6 5 2 7
-2 12 15 7 7 6 3 8
0 14 15 9 8 7 4 8
1 15 15 10 9 8 5 9
1 15 12 8 8 8 5 9
1 15 10 6 6 7 5 9
1 14 8 5 5 7 4 9
1 14 5 3 3 6 4 9
0 13 3 1 2 5 3 8
1 14 3 1 2 5 3 8
1 14 2 1 2 5 3 9
2 15 2 0 2 5 3 9
3 16 1 0 2 5 3 10
4 17 0 -2 2 4 3 11
4 18 0 0 2 5 4 11
4 19 0 1 2 6 5 11
4 20 0 2 3 7 6 12
4 21 0 3 3 8 7 12
5 22 1 4 4 9 8 13
5 21 1 3 3 9 7 13
5 20 0 2 3 9 6 13
5 19 0 1 2 8 5 13
5 17 -2 -2 1 8 4 13
4 16 -3 -3 0 7 3 12
4 13 -5 -4 -2 5 2 11
4 11 -6 -5 -4 4 1 11
4 9 -8 -6 -5 2 0 10
4 6 -9 -8 -6 1 -2 9
5 4 -11 -9 -8 -2 -3 8
4 4 -11 -9 -8 -2 -3 8
3 4 -11 -9 -8 -2 -3 8
2 4 -10 -9 -8 -2 -3 7
1 4 -10 -9 -8 -2 -3 7
0 4 -9 -9 -9 -2 -4 6
-2 3 -9 -9 -9 -2 -4 6
-4 2 -9 -9 -10 -3 -4 5
-5 1 -9 -10 -10 -3 -5 5
-6 -2 -9 -10 -11 -4 -5 4
-8 -3 -8 -11 -12 -5 -6 3
-8 -3 -8 -11 -12 -6 -6 2
-8 -4 -8 -11 -12 -6 -7 1
-8 -4 -7 -11 -13 -7 -7 0
-8 -5 -7 -11 -13 -8 -8 -2
-9 -6 -6 -12 -14 -9 -9 -3
-9 -7 -6 -12 -14 -9 -10 -3
-9 -7 -7 -13 -14 -9 -10 -3
-9 -8 -7 -13 -15 -10 -11 -3
-9 -9 -8 -14 -15 -10 -12 -3
-10 -10 -9 -15 -16 -11 -13 -4
-10 -10 -9 -15 -16 -11 -13 -4
-10 -10 -9 -15 -16 -11 -13 -4
-10 -10 -8 -15 -16 -11 -12 -4
-10 -10 -8 -15 -16 -11 -12 -4
-9 -9 -7 -14 -15 -10 -11 -3
-9 -9 -7 -14 -15 -10 -11 -3
-9 -9 -8 -14 -15 -10 -11 -3
-10 -9 -8 -14 -16 -11 -12 -4
-10 -9 -9 -14 -16 -11 -12 -4
-11 -10 -10 -15 -17 -12 -13 -5
-11 -10 -10 -15 -17 -12 -13 -5
-11 -10 -10 -15 -17 -12 -13 -5
-11 -10 -10 -15 -17 -12 -13 -5
-11 -10 -10 -15 -17 -12 -13 -5
-10 -11 -9 -14 -16 -12 -13 -5
-10 -11 -9 -14 -16 -12 -13 -5
-10 -11 -9 -14 -16 -12 -13 -5
-10 -11 -9 -14 -16 -12 -13 -5
-10 -11 -9 -14 -16 -12 -13 -5
-11 -10 -9 -14 -17 -12 -12 -6
-11 -10 -9 -14 -17 -12 -12 -6
-11 -10 -9 -14 -16 -12 -12 -6
-11 -9 -8 -14 -16 -11 -12 -5
-11 -9 -8 -14 -15 -11 -12 -5
-10 -8 -6 -11 -13 -10 -11 -4
-11 -8 3 0 -5 -9 -11 -5
-13 -8 11 10 3 -7 -11 -6
-15 -8 19 20 10 -5 -11 -7
-16 -8 27 30 18 -4 -11 -9
-17 -7 34 43 28 2 -9 -9
-12 3 40 61 47 18 5 0
-6 12 48 79 64 34 18 7
0 21 54 98 82 51 30 14
5 30 61 116 101 67 44 22
14 45 61 128 116 90 63 36
31 75 37 113 125 129 106 71
50 105 15 98 132 169 149 106
67 135 -9 84 139 209 192 141
86 164 -32 69 147 248 235 176
100 188 -55 47 145 276 268 203
97 190 -72 0 107 263 261 207
94 192 -91 -48 69 248 254 212
91 194 -109 -94 30 234 246 216
88 196 -128 -141 -8 220 239 220
80 190 -143 -183 -47 192 219 215
62 154 -152 -208 -91 119 155 173
44 117 -160 -234 -135 47 91 130
25 80 -170 -259 -178 -26 27 87
7 44 -178 -284 -222 -99 -37 45
-9 14 -183 -299 -252 -154 -88 10
-9 6 -172 -268 -228 -141 -87 2
-9 -2 -159 -237 -203 -129 -85 -6
-10 -10 -148 -207 -180 -115 -82 -14
-10 -18 -136 -177 -155 -102 -81 -22
-11 -24 -123 -149 -133 -91 -78 -28
-11 -24 -106 -131 -117 -81 -71 -27
-11 -24 -89 -112 -102 -72 -64 -26
-12 -23 -71 -94 -87 -64 -57 -25
-12 -23 -55 -75 -71 -55 -50 -24
-13 -22 -39 -59 -58 -48 -44 -23
-13 -21 -32 -50 -50 -43 -39 -22
-14 -20 -25 -40 -43 -37 -36 -21
-14 -19 -19 -32 -34 -33 -32 -20
-15 -17 -12 -23 -26 -28 -28 -18
-16 -16 -6 -16 -20 -24 -25 -17
-16 -16 -4 -13 -18 -23 -24 -16
-15 -16 -2 -11 -16 -21 -22 -15
-15 -16 2 -8 -13 -19 -21 -14
-14 -16 4 -6 -11 -18 -20 -13
-13 -17 6 -3 -9 -16 -18 -12
-13 -17 6 -3 -9 -16 -18 -12
-13 -17 6 -2 -8 -16 -18 -12
-14 -17 7 0 -8 -15 -18 -13
-14 -17 7 1 -7 -15 -18 -13
-15 -18 8 2 -6 -14 -17 -14
-14 -18 8 2 -6 -14 -17 -14
-13 -17 8 3 -5 -14 -17 -14
-12 -16 9 3 -5 -14 -17 -13
-10 -15 9 4 -4 -14 -17 -13
-9 -14 10 5 -3 -13 -16 -12
-10 -14 10 5 -3 -13 -16 -12
-11 -15 10 5 -3 -13 -16 -13
-12 -16 10 5 -3 -13 -16 -14
-13 -17 10 5 -3 -13 -16 -15
-14 -18 10 5 -4 -13 -17 -16
-14 -18 10 5 -4 -13 -17 -16
-14 -18 11 5 -4 -13 -17 -15
-14 -18 11 6 -4 -13 -17 -15
-14 -18 12 6 -4 -13 -17 -14
-13 -18 13 7 -3 -13 -17 -13
-13 -18 13 7 -3 -13 -17 -13
-12 -17 13 8 -3 -13 -17 -13
-12 -16 14 8 -2 -12 -17 -13
-11 -15 14 9 -2 -12 -17 -13
-10 -14 15 10 0 -11 -16 -14
-10 -14 15 10 0 -11 -16 -14
-10 -14 15 10 0 -11 -16 -14
-10 -14 15 9 0 -11 -16 -14
-10 -14 15 9 0 -11 -16 -14
-11 -14 14 8 1 -11 -15 -14
-11 -14 14 8 1 -11 -15 -14
-11 -14 14 8 1 -11 -15 -14
-11 -14 15 8 1 -12 -16 -14
-11 -14 15 8 1 -12 -16 -14
-12 -15 16 9 1 -13 -17 -15
-12 -15 16 9 1 -13 -17 -15
-12 -15 16 9 1 -13 -17 -15
-11 -14 16 9 1 -13 -17 -15
-11 -14 16 9 1 -13 -17 -15
-10 -13 15 8 2 -13 -17 -14
-10 -13 15 8 2 -13 -17 -14
-10 -13 15 9 3 -12 -16 -14
-10 -14 15 10 4 -12 -16 -14
-10 -14 15 11 5 -11 -15 -14
-11 -15 16 12 6 -10 -14 -15
-11 -15 16 12 6 -10 -14 -15
-11 -15 16 13 6 -10 -14 -15
-11 -15 16 13 6 -11 -15 -15
-11 -15 16 14 6 -11 -15 -15
-10 -15 17 15 5 -12 -16 -16
-10 -15 17 15 5 -12 -16 -16
-10 -15 17 15 5 -12 -16 -16
-10 -15 18 16 6 -12 -16 -16
-10 -15 18 16 6 -12 -16 -16
-9 -15 19 17 7 -11 -15 -16
-9 -15 19 17 7 -11 -15 -16
-9 -15 19 17 7 -11 -15 -16
-9 -16 18 18 8 -11 -15 -16
-9 -16 18 18 8 -11 -15 -16
-10 -17 17 19 9 -10 -15 -16
-10 -17 17 19 9 -10 -15 -16
-9 -16 18 19 9 -10 -15 -16
-8 -16 18 20 9 -10 -15 -16
-7 -15 19 20 9 -10 -15 -16
-6 -14 20 21 10 -10 -14 -16
-6 -14 20 21 10 -10 -14 -16
-6 -14 20 22 10 -10 -14 -16
-5 -14 19 22 11 -10 -14 -15
-5 -14 19 23 11 -10 -14 -15
-4 -13 18 24 12 -9 -13 -14
-4 -13 18 24 12 -9 -13 -14
-4 -13 18 24 12 -9 -13 -14
-4 -14 18 24 12 -9 -13 -14
-4 -14 18 24 12 -9 -13 -14
-4 -15 18 25 12 -9 -12 -15
-4 -15 18 25 12 -9 -12 -15
-4 -15 17 25 12 -9 -12 -14
-3 -15 16 25 13 -9 -12 -14
-3 -15 15 25 13 -9 -12 -13
-2 -14 14 24 14 -8 -11 -12
-2 -14 13 24 14 -8 -11 -12
-2 -14 12 24 13 -8 -11 -12
0 -14 11 24 13 -8 -10 -12
0 -14 10 24 12 -8 -10 -12
1 -15 9 24 11 -7 -9 -12
3 -13 9 24 11 -7 -8 -12
5 -11 8 24 11 -6 -7 -11
7 -9 7 24 11 -6 -6 -11
9 -7 6 24 11 -5 -5 -10
11 -5 5 23 10 -4 -4 -9
11 -5 5 22 9 -4 -4 -9
11 -5 4 21 8 -4 -4 -8
11 -5 4 20 7 -4 -3 -7
11 -5 3 19 6 -4 -3 -6
11 -5 2 17 4 -4 -2 -5
11 -5 1 17 4 -4 -2 -4
12 -5 0 16 4 -4 0 -3
12 -4 -3 16 3 -4 0 -2
13 -4 -4 15 3 -4 1 0
14 -3 -6 14 2 -4 2 1
14 -3 -7 13 2 -4 2 1
14 -2 -8 12 1 -4 2 1
14 -2 -9 11 1 -4 2 2
14 0 -10 10 0 -4 2 2
15 1 -11 9 -2 -3 3 3
15 1 -11 9 -3 -3 3 3
16 2 -11 8 -4 -3 3 4
17 2 -11 7 -5 -3 4 5
18 3 -11 6 -6 -3 4 6
19 4 -11 5 -7 -4 5 7
19 4 -11 5 -7 -4 5 7
19 4 -11 5 -7 -4 5 7
18 4 -11 5 -7 -4 6 7
18 4 -11 5 -7 -4 6 7
17 3 -12 4 -7 -3 7 7
17 4 -12 4 -7 -3 7 7
17 5 -12 4 -7 -3 8 7
18 6 -12 4 -7 -2 8 7
18 7 -12 4 -7 -2 9 7
19 8 -11 4 -7 0 10 8
19 8 -10 4 -7 0 10 8
18 8 -9 4 -6 0 10 8
18 9 -8 4 -5 0 10 8
17 9 -7 4 -4 0 10 8
16 10 -6 5 -3 0 9 7
15 10 -5 5 -3 0 9 7
14 10 -4 5 -3 0 9 7
13 10 -3 5 -3 0 9 7
12 10 -2 5 -3 0 9 7
11 10 0 4 -2 1 8 8
10 10 1 4 -2 1 8 8
9 9 2 4 0 2 8 8
8 9 3 5 1 2 8 8
7 8 4 5 2 3 8 8
5 7 5 6 3 4 7 9
5 7 5 6 3 4 7 9
5 6 6 6 3 3 6 8
4 5 7 5 3 3 6 8
4 4 8 5 3 2 5 7
3 3 9 4 2 1 4 6
2 3 9 4 2 1 4 6
1 3 9 4 2 1 3 5
0 2 10 4 2 1 2 5
-2 2 10 4 2 1 1 4
-4 1 11 5 2 0 0 3
-4 1 11 5 2 0 0 3
-5 0 11 4 2 -2 -2 2
-5 -2 11 4 2 -2 -3 1
-6 -3 11 3 2 -3 -4 0
-7 -4 10 2 1 -4 -5 -2
-7 -4 10 2 1 -4 -5 -2
-7 -4 11 2 1 -4 -5 -2
-7 -4 11 2 2 -4 -4 -2
-7 -4 12 2 2 -4 -4 -2
-6 -3 13 3 3 -4 -3 -3
-6 -3 13 3 3 -4 -3 -3
-6 -4 13 3 3 -4 -4 -3
-7 -4 12 3 2 -5 -4 -4
-7 -5 12 3 2 -5 -5 -4
-8 -6 11 2 1 -6 -6 -5
-8 -6 11 2 1 -6 -6 -5
-9 -6 11 2 1 -6 -6 -5
-9 -7 11 2 1 -7 -6 -6
-10 -7 11 2 1 -7 -6 -6
-11 -8 10 3 2 -8 -7 -7
-10 -7 10 4 2 -8 -7 -7
-9 -6 11 5 2 -7 -7 -6
-8 -5 11 6 3 -7 -6 -5
-7 -4 12 7 3 -6 -6 -4
-6 -3 13 8 4 -5 -5 -3
-6 -3 13 8 5 -5 -5 -3
-6 -3 13 8 6 -4 -5 -3
-6 -4 14 9 7 -4 -4 -3
-6 -4 14 9 8 -3 -4 -3
-7 -5 15 10 9 -2 -3 -3
-7 -5 15 10 9 -2 -3 -3
-7 -5 15 11 9 -2 -3 -3
-8 -6 14 11 9 -2 -3 -3
-8 -6 14 12 9 -2 -3 -3
-9 -7 13 13 8 -2 -2 -4
-9 -7 13 13 9 -2 -2 -4
-9 -7 13 13 10 0 -2 -4
-9 -6 14 13 11 0 -2 -4
-9 -6 14 13 12 1 -2 -4
-8 -5 15 14 13 2 -2 -4
-8 -5 15 14 13 2 -2 -4
-8 -5 15 14 13 2 -2 -4
-8 -5 15 14 13 2 -2 -4
-8 -5 15 14 13 2 -2 -4
-9 -6 14 13 12 1 -2 -5
-9 -6 14 13 12 1 -2 -5
-9 -6 14 13 12 1 0 -4
-9 -6 14 14 12 2 0 -4
-9 -6 14 14 12 2 1 -3
-9 -5 15 15 13 3 2 -2
-9 -5 15 15 13 3 2 -2
-8 -4 15 15 13 3 2 -2
-8 -4 16 15 14 4 2 0
-7 -3 16 15 14 4 2 0
-6 -2 17 15 15 5 3 1
-6 -2 17 15 15 5 3 1
-6 0 16 15 15 5 3 1
-6 0 15 15 15 5 3 1
-6 1 14 15 15 5 3 1
-6 2 13 14 15 6 4 0
-6 1 13 14 15 6 4 0
-7 0 13 14 15 6 4 0
-7 -2 13 13 14 5 4 0
-8 -3 13 13 14 5 4 0
-9 -4 13 12 13 4 3 0
-8 -3 13 12 13 4 3 0
-7 -2 13 12 13 4 4 0
-5 0 13 12 13 5 4 1
-4 1 13 12 13 5 5 1
-2 3 14 12 14 6 6 2
-3 2 14 12 14 6 6 2
-4 1 13 12 13 5 5 1
-6 0 12 11 12 5 4 0
-7 -2 11 11 11 4 3 -2
-9 -4 10 10 10 3 2 -3
-9 -4 10 10 10 3 2 -3
-9 -4 10 10 10 3 2 -3
-9 -4 10 9 10 3 2 -3
-9 -4 10 9 10 3 2 -3
-8 -3 11 8 9 3 1 -2
-8 -3 11 8 9 3 1 -2
-7 -2 11 8 9 3 1 -2
-7 -2 10 7 9 3 1 0
-6 0 10 7 9 3 1 0
-5 1 9 6 8 2 2 1
-5 1 9 6 8 2 2 1
-6 0 9 6 8 2 2 1
-6 0 9 6 8 2 2 0
-7 -2 9 6 8 2 2 0
-8 -3 8 6 7 2 3 -2
-8 -3 8 6 7 2 3 -2
-8 -3 8 5 7 2 3 -2
-8 -3 7 5 6 2 3 -2
-8 -3 7 4 6 2 3 -2
-7 -3 6 3 5 2 2 -2
-7 -3 6 3 5 2 2 -2
-7 -3 6 3 5 2 2 -2
-7 -4 7 3 5 2 2 -2
-7 -4 7 3 5 2 2 -2
-8 -5 8 3 5 1 2 0
-8 -5 8 3 5 1 2 0
-8 -5 7 3 5 1 2 0
-8 -4 7 3 4 0 2 0
-8 -4 6 3 4 0 2 0
-8 -3 5 2 3 -2 1 -2
-8 -3 5 2 3 -2 1 -2
-8 -3 5 2 3 -2 1 -2
-7 -3 5 2 3 0 1 -2
-7 -3 5 2 3 0 1 -2
-6 -4 6 1 4 1 1 -2
-6 -4 6 1 4 1 1 -2
-6 -3 6 1 4 1 1 -2
-6 -3 6 0 4 0 1 -2
-6 -2 6 0 4 0 1 -2
-6 -2 6 0 4 0 1 -2
-6 0 6 -2 3 -2 0 -3
-6 -2 5 -2 3 -2 0 -3
-7 -2 5 -2 2 -3 0 -4
-7 -3 4 -2 2 -3 0 -4
-7 -3 4 -2 2 -3 0 -4
-8 -4 3 -3 1 -4 -2 -5
-8 -4 3 -3 1 -4 -2 -5
-8 -4 3 -3 1 -3 -2 -5
-8 -4 3 -3 1 -3 -2 -5
-8 -4 3 -3 1 -3 -2 -5
-8 -4 4 -2 1 -2 -2 -5
-8 -3 5 -2 1 -2 -2 -5
-8 -3 5 0 2 0 -2 -4
-8 -2 6 0 2 0 -2 -4
-8 -2 6 0 2 0 -2 -4
-7 0 7 1 3 1 0 -3
-7 0 7 1 3 1 1 -3
-6 0 7 1 3 1 1 -3
-6 0 7 1 3 1 2 -3
-6 0 7 1 3 1 2 -3
-5 1 7 2 5 2 3 -4
-4 3 9 3 6 3 4 -3
-4 5 11 4 7 4 5 -2
-3 7 13 5 8 5 6 0
-3 8 14 6 9 6 7 1
-2 9 15 7 10 7 8 2
-2 10 16 8 11 7 8 2
-2 11 16 9 12 8 9 3
-2 12 17 10 13 8 9 3
-2 12 17 10 13 8 9 3
0 13 18 11 14 9 10 4
0 14 17 11 14 9 10 4
1 15 16 11 14 9 10 4
1 16 15 11 14 9 10 4
1 16 14 11 14 9 10 4
2 17 12 9 14 9 10 5
2 16 10 8 13 8 10 5
2 16 8 7 12 8 9 5
2 15 6 6 11 7 9 5
2 15 5 5 10 7 9 5
2 14 4 4 9 6 8 4
2 14 4 4 9 7 9 4
2 15 4 4 9 8 9 5
2 15 4 4 9 9 10 5
2 15 4 4 9 10 10 5
2 16 3 4 9 11 11 6
2 16 3 4 9 11 11 7
3 16 3 5 9 11 12 7
3 16 3 5 9 11 12 8
3 16 3 5 9 11 12 8
4 15 3 5 9 10 13 8
4 13 1 3 8 8 12 6
4 10 0 1 6 7 11 5
4 8 -3 -2 5 5 10 3
4 6 -4 -3 4 4 9 2
4 5 -5 -4 3 3 8 1
3 4 -5 -5 2 2 7 1
2 4 -6 -6 1 2 6 1
1 3 -6 -7 0 1 5 1
1 3 -6 -7 -2 1 5 1
0 2 -7 -8 -3 0 4 1
0 2 -7 -8 -3 0 4 1
0 2 -6 -7 -2 0 4 1
0 2 -6 -7 -2 0 4 1
0 2 -6 -7 -2 0 4 1
-2 2 -5 -6 0 0 5 1
-4 1 -5 -6 -2 0 4 0
-5 0 -5 -7 -3 -2 3 -3
-7 -2 -5 -7 -4 -2 2 -4
-8 -2 -5 -7 -4 -2 1 -5
-9 -4 -4 -8 -5 -3 0 -6
-9 -5 -4 -9 -5 -4 -2 -7
-9 -6 -4 -9 -5 -5 -3 -7
-9 -7 -4 -10 -5 -6 -4 -8
-9 -8 -4 -10 -5 -7 -4 -8
-10 -9 -4 -11 -7 -8 -5 -9
-10 -9 -5 -11 -8 -8 -5 -9
-10 -9 -5 -12 -9 -8 -5 -9
-10 -9 -6 -12 -10 -8 -5 -9
-10 -9 -6 -12 -11 -8 -5 -9
-9 -10 -7 -13 -12 -9 -5 -8
-10 -11 -7 -13 -12 -9 -5 -8
-10 -12 -6 -13 -12 -9 -5 -9
-11 -13 -6 -13 -12 -9 -5 -9
-11 -14 -6 -13 -12 -9 -5 -9
-12 -15 -5 -12 -12 -10 -5 -10
-12 -15 -6 -13 -12 -10 -6 -10
-12 -15 -6 -14 -13 -10 -6 -11
-12 -15 -7 -15 -13 -10 -7 -11
-12 -15 -7 -15 -13 -10 -7 -11
-12 -14 -8 -16 -14 -11 -8 -12
-12 -14 -8 -16 -14 -11 -8 -12
-12 -14 -8 -16 -14 -11 -8 -12
-12 -14 -8 -16 -14 -11 -8 -12
-12 -14 -8 -16 -14 -11 -8 -12
-11 -13 -8 -15 -15 -12 -8 -13
-10 -12 -8 -14 -15 -11 -8 -12
-9 -11 -8 -14 -15 -10 -7 -12
-8 -10 -8 -13 -15 -9 -7 -11
-8 -10 -8 -13 -15 -8 -7 -11
-8 -9 -5 -10 -13 -7 -6 -10
-9 -9 -3 -8 -11 -7 -6 -11
-11 -9 0 -6 -9 -7 -6 -11
-12 -9 3 -3 -7 -7 -6 -12
-13 -9 5 0 -5 -7 -6 -12
-14 -8 16 18 10 0 -5 -13
-13 -6 27 37 26 8 0 -12
-13 -4 39 57 42 15 3 -11
-12 -2 51 76 57 22 6 -10
-12 1 62 96 72 30 9 -10
3 20 57 103 89 57 36 11
18 39 48 109 105 86 65 32
33 60 39 114 120 114 95 54
48 80 31 120 137 144 125 75
63 101 22 127 153 173 154 98
75 132 -8 91 141 197 191 133
88 164 -39 49 126 221 229 170
100 197 -72 8 109 244 266 206
112 230 -104 -34 94 269 304 243
125 262 -136 -76 77 293 342 280
108 232 -143 -115 28 233 285 247
87 195 -146 -154 -24 163 218 206
65 157 -149 -194 -77 94 150 165
44 119 -153 -233 -130 24 82 125
22 81 -156 -273 -182 -47 15 84
15 60 -159 -266 -192 -66 -8 60
10 40 -161 -254 -197 -80 -26 39
6 21 -164 -240 -201 -96 -45 18
1 2 -168 -227 -206 -110 -63 -3
-5 -17 -170 -215 -212 -124 -81 -23
-6 -20 -155 -192 -191 -116 -78 -26
-7 -21 -137 -169 -166 -104 -71 -27
-7 -22 -118 -144 -142 -92 -64 -27
-8 -23 -100 -120 -116 -79 -58 -28
-8 -24 -81 -97 -92 -67 -51 -28
-10 -25 -69 -82 -79 -60 -47 -29
-11 -24 -57 -70 -69 -54 -43 -28
-12 -24 -45 -58 -58 -48 -38 -27
-13 -23 -33 -45 -48 -40 -34 -26
-14 -23 -21 -32 -37 -34 -30 -25
-15 -22 -17 -27 -32 -31 -28 -23
-14 -21 -13 -23 -28 -29 -26 -22
-13 -20 -10 -19 -23 -26 -24 -21
-12 -19 -7 -15 -19 -23 -22 -20
-11 -19 -4 -11 -15 -21 -20 -19
-10 -18 0 -9 -14 -20 -19 -18
-10 -18 2 -7 -13 -19 -19 -18
-10 -18 5 -5 -13 -19 -19 -18
-10 -18 8 -4 -12 -18 -19 -18
-10 -18 10 -2 -12 -18 -19 -18
-11 -19 12 0 -11 -17 -19 -18
-11 -19 14 0 -11 -17 -19 -18
-11 -19 15 0 -10 -17 -19 -18
-11 -19 17 0 -10 -17 -19 -18
-11 -19 18 0 -10 -17 -19 -18
-10 -20 19 0 -9 -18 -18 -17
-10 -20 20 1 -9 -18 -18 -17
-10 -20 20 1 -9 -18 -18 -18
-10 -20 21 2 -9 -18 -18 -18
-10 -20 21 2 -9 -18 -18 -18
-11 -20 22 3 -9 -17 -18 -19
-10 -19 22 3 -9 -17 -18 -19
-10 -18 22 3 -9 -17 -18 -19
-9 -17 22 3 -9 -17 -18 -19
-9 -17 22 3 -9 -17 -18 -19
-8 -16 23 3 -8 -17 -18 -18
-8 -16 24 3 -8 -17 -18 -18
-8 -17 24 3 -8 -18 -18 -19
-8 -17 25 3 -8 -18 -18 -19
-8 -17 25 3 -8 -18 -18 -19
-9 -18 26 4 -8 -19 -19 -20
-9 -18 26 4 -8 -18 -19 -19
-8 -17 26 4 -7 -18 -19 -19
-8 -17 26 4 -7 -17 -19 -18
-8 -17 26 4 -7 -17 -19 -18
-7 -16 27 5 -6 -16 -18 -17
-7 -16 27 5 -6 -16 -18 -17
-7 -17 27 6 -6 -17 -18 -17
-7 -17 27 6 -6 -17 -18 -17
-7 -17 27 6 -6 -17 -18 -17
-7 -18 28 7 -6 -18 -19 -17
-7 -17 28 7 -6 -18 -19 -17
-7 -17 28 7 -6 -18 -19 -17
-7 -16 28 7 -6 -18 -19 -17
-7 -16 28 7 -6 -18 -19 -17
-7 -15 28 6 -5 -18 -19 -18
-7 -16 28 7 -5 -18 -19 -18
-7 -16 28 7 -5 -19 -20 -18
-7 -17 28 8 -5 -19 -20 -18
-7 -17 28 8 -5 -19 -20 -18
-6 -18 29 9 -4 -20 -21 -19
-6 -18 29 9 -4 -19 -20 -19
-5 -18 29 9 -3 -19 -20 -19
-5 -18 29 9 -3 -18 -19 -19
-5 -18 29 9 -3 -18 -19 -19
-4 -17 28 9 -2 -17 -18 -18
-4 -17 28 10 -2 -17 -18 -18
-4 -17 28 11 -2 -17 -18 -18
-4 -17 28 12 -2 -17 -18 -18
-4 -17 28 12 -2 -17 -18 -18
-4 -17 28 13 -2 -18 -19 -18
-4 -18 28 13 -2 -18 -19 -18
-5 -18 28 13 0 -18 -19 -19
-5 -19 28 13 0 -18 -19 -19
-5 -19 28 13 0 -18 -19 -19
-6 -20 28 12 1 -17 -19 -20
-5 -20 28 13 1 -18 -19 -20
-5 -20 28 14 1 -18 -19 -20
-4 -20 28 15 1 -19 -19 -20
-4 -20 28 15 1 -19 -19 -20
-3 -20 29 16 0 -20 -20 -19
-3 -20 29 16 0 -20 -20 -19
-3 -20 28 16 0 -20 -20 -19
-3 -20 28 16 0 -20 -20 -19
-3 -20 28 16 0 -20 -20 -19
-4 -19 27 15 1 -19 -19 -20
-2 -19 27 17 2 -19 -19 -19
0 -18 28 18 3 -18 -18 -19
1 -18 28 19 4 -18 -18 -18
2 -18 28 20 4 -18 -18 -18
3 -17 29 21 5 -17 -17 -17
4 -17 28 21 5 -17 -17 -17
5 -16 28 21 5 -16 -17 -16
6 -16 27 21 5 -16 -17 -16
6 -16 27 21 5 -16 -17 -16
7 -15 26 20 6 -15 -16 -15
7 -15 25 20 6 -15 -16 -15
7 -16 25 20 6 -15 -16 -15
7 -16 24 20 6 -15 -16 -15
7 -16 24 20 6 -15 -16 -15
8 -17 22 21 5 -16 -16 -14
9 -16 21 20 4 -16 -15 -13
10 -16 20 20 4 -16 -15 -13
11 -15 18 19 3 -16 -14 -12
12 -15 17 19 3 -16 -14 -12
13 -14 16 18 2 -15 -13 -11
14 -13 15 18 2 -15 -13 -10
14 -13 14 17 1 -15 -12 -10
15 -12 13 17 1 -15 -12 -9
15 -12 13 17 1 -15 -12 -9
16 -11 11 15 0 -15 -11 -8
16 -10 10 14 -2 -15 -11 -7
17 -10 8 12 -3 -15 -11 -6
17 -9 6 10 -4 -15 -11 -5
17 -9 5 9 -5 -15 -11 -5
18 -8 4 8 -6 -16 -10 -4
19 -8 4 7 -7 -16 -9 -3
19 -8 3 7 -8 -16 -9 -2
20 -8 3 6 -9 -16 -8 0
20 -8 3 6 -10 -16 -8 0
21 -7 2 5 -11 -16 -7 1
23 -6 1 4 -11 -16 -7 2
24 -4 1 3 -11 -15 -6 3
25 -2 0 2 -11 -15 -6 4
26 0 0 2 -11 -15 -6 4
27 1 -2 1 -12 -14 -5 5
27 1 -2 1 -13 -14 -4 5
27 1 -2 0 -13 -14 -4 5
27 1 -2 0 -14 -14 -3 5
27 1 -2 0 -14 -14 -3 5
27 1 -3 -2 -15 -15 -2 6
27 1 -3 -2 -15 -14 -2 7
27 1 -3 -2 -15 -14 0 8
27 1 -3 -2 -15 -13 0 9
27 1 -3 -2 -15 -13 0 9
26 2 -4 -2 -14 -12 1 10
25 2 -2 0 -13 -12 1 10
25 3 0 0 -13 -12 1 10
24 3 1 1 -12 -12 1 10
24 3 2 1 -12 -12 1 10
23 4 3 2 -11 -12 0 10
23 4 3 1 -11 -12 0 10
22 4 3 1 -11 -12 0 10
22 4 3 0 -11 -12 0 10
22 4 3 0 -11 -12 0 10
21 4 4 -2 -10 -11 1 9
19 4 5 0 -9 -10 1 8
18 4 7 1 -8 -9 1 7
17 4 9 2 -7 -8 1 6
16 4 10 2 -6 -8 1 6
15 3 11 3 -5 -7 0 5
14 3 11 2 -5 -8 -2 4
13 2 11 2 -5 -8 -2 4
12 2 11 1 -5 -9 -3 3
12 2 11 1 -5 -9 -3 3
11 1 11 0 -6 -10 -4 2
10 1 12 0 -6 -10 -4 1
9 1 13 0 -6 -10 -4 1
8 1 14 0 -6 -10 -4 0
8 1 15 0 -6 -10 -4 0
7 0 16 0 -5 -11 -5 -2
6 -2 15 -2 -6 -12 -6 -3
6 -2 14 -3 -6 -12 -7 -4
5 -3 13 -4 -7 -13 -8 -5
5 -3 13 -5 -7 -13 -9 -5
4 -4 12 -6 -8 -14 -10 -6
4 -4 14 -5 -8 -14 -10 -6
4 -4 15 -5 -8 -14 -9 -6
4 -4 16 -4 -8 -14 -9 -6
4 -4 17 -4 -8 -14 -9 -6
4 -4 18 -3 -7 -13 -8 -6
4 -5 17 -3 -7 -13 -8 -6
3 -5 17 -3 -7 -13 -8 -6
3 -6 16 -3 -7 -13 -8 -6
3 -6 16 -3 -7 -13 -8 -6
2 -7 15 -4 -6 -14 -9 -6
2 -7 15 -4 -6 -14 -9 -6
2 -8 16 -4 -6 -14 -9 -7
2 -8 16 -4 -6 -14 -9 -7
2 -8 16 -4 -6 -14 -9 -7
1 -9 17 -3 -6 -14 -9 -8
1 -9 17 -3 -6 -14 -9 -8
1 -9 17 -2 -6 -14 -10 -8
1 -9 17 -2 -6 -14 -10 -8
1 -9 17 -2 -6 -14 -10 -8
1 -8 16 0 -5 -13 -11 -9
1 -8 16 0 -5 -13 -11 -9
1 -8 17 1 -4 -13 -11 -9
1 -8 17 1 -4 -13 -11 -9
1 -8 17 1 -4 -13 -11 -9
0 -8 18 2 -3 -13 -11 -8
0 -8 18 3 -2 -13 -11 -8
0 -8 18 3 0 -12 -10 -8
0 -8 18 4 0 -12 -10 -8
0 -8 18 4 1 -12 -10 -8
1 -8 18 5 2 -11 -9 -8
1 -8 18 5 2 -11 -9 -8
0 -8 19 5 2 -11 -9 -8
0 -8 19 5 2 -11 -9 -8
0 -8 19 5 2 -11 -9 -8
-2 -7 20 6 2 -11 -9 -8
-2 -6 20 6 3 -10 -9 -8
-2 -6 20 7 4 -10 -8 -7
-2 -5 20 7 4 -9 -8 -7
-2 -5 20 7 5 -9 -8 -7
0 -4 19 8 6 -8 -7 -6
0 -4 19 8 6 -8 -7 -6
-2 -5 19 8 6 -8 -7 -6
-2 -5 19 8 6 -8 -7 -6
-2 -5 19 8 6 -8 -7 -6
-3 -6 18 9 5 -8 -7 -6
-3 -6 18 9 5 -8 -7 -6
-3 -6 18 9 5 -8 -7 -6
-3 -6 18 9 5 -8 -7 -6
-3 -6 18 9 5 -8 -7 -6
-3 -6 17 8 5 -8 -7 -6
-2 -5 17 8 6 -8 -7 -6
0 -4 18 8 6 -7 -6 -6
0 -3 18 8 7 -7 -6 -6
1 -2 18 8 7 -7 -6 -6
2 0 19 9 8 -6 -5 -5
2 0 18 9 8 -6 -5 -5
2 0 17 8 8 -6 -5 -5
2 0 17 8 8 -6 -5 -5
2 0 16 8 8 -6 -5 -5
2 1 15 7 7 -6 -5 -5
2 1 15 7 6 -6 -5 -5
1 0 15 6 6 -6 -5 -5
1 0 15 6 5 -6 -5 -5
1 0 15 6 5 -6 -5 -5
0 -2 15 5 4 -7 -6 -4
0 -2 15 5 4 -7 -6 -4
0 -3 15 5 4 -6 -6 -4
0 -3 15 5 4 -6 -6 -4
0 -3 15 5 4 -6 -6 -4
-2 -4 14 4 3 -5 -5 -4
-2 -4 14 4 2 -6 -6 -5
-2 -4 14 3 1 -7 -6 -5
-2 -4 14 3 1 -8 -7 -6
-2 -4 14 3 0 -9 -7 -6
-2 -4 14 2 -2 -10 -8 -7
0 -3 13 2 -2 -9 -8 -7
1 -2 13 2 -2 -8 -7 -6
2 0 12 2 -2 -8 -7 -6
3 1 12 2 -2 -7 -7 -6
4 2 11 1 0 -6 -6 -5
4 2 11 1 0 -6 -6 -5
4 1 11 1 -2 -6 -6 -5
4 1 11 1 -2 -6 -6 -5
4 1 11 1 -2 -6 -6 -5
3 0 12 0 -3 -6 -6 -4
2 -2 11 -2 -3 -7 -6 -4
1 -3 11 -3 -4 -7 -6 -4
1 -4 10 -3 -4 -8 -6 -4
0 -5 10 -4 -4 -8 -6 -4
-2 -6 9 -5 -5 -9 -7 -5
-2 -6 9 -5 -5 -9 -7 -5
-2 -6 9 -5 -6 -9 -8 -5
-2 -6 9 -5 -6 -9 -8 -5
-2 -6 9 -5 -6 -9 -8 -5
-2 -5 8 -4 -7 -10 -9 -5
-2 -5 8 -4 -7 -10 -8 -5
0 -4 8 -4 -6 -10 -8 -5
0 -4 8 -4 -6 -10 -7 -5
0 -4 8 -4 -6 -10 -7 -5
1 -3 8 -4 -5 -9 -6 -5
1 -4 8 -4 -5 -9 -7 -5
0 -5 8 -5 -6 -9 -7 -6
0 -5 8 -5 -6 -9 -8 -6
0 -6 8 -5 -6 -9 -8 -6
-2 -7 7 -6 -7 -10 -9 -7
0 -6 7 -6 -7 -10 -9 -7
0 -5 7 -6 -7 -10 -9 -7
1 -5 7 -6 -7 -10 -9 -7
1 -4 7 -6 -7 -10 -9 -7
2 -3 6 -7 -7 -10 -8 -7
2 -3 6 -7 -8 -10 -8 -7
2 -3 6 -7 -8 -10 -8 -7
2 -3 6 -7 -9 -10 -8 -7
2 -3 6 -7 -9 -10 -8 -7
1 -4 7 -7 -10 -11 -9 -8
1 -4 7 -7 -9 -11 -9 -7
1 -4 7 -7 -9 -11 -9 -7
1 -4 7 -7 -8 -11 -9 -6
1 -4 7 -7 -8 -11 -9 -6
1 -4 6 -6 -7 -10 -8 -5
2 -4 6 -6 -7 -10 -8 -5
3 -3 6 -5 -7 -9 -8 -5
3 -2 6 -5 -7 -9 -8 -5
4 -2 6 -5 -7 -9 -8 -5
5 0 7 -4 -6 -8 -7 -5
4 0 8 -4 -6 -8 -7 -5
3 0 9 -4 -5 -7 -7 -4
3 0 10 -4 -4 -6 -7 -4
2 0 11 -4 -4 -6 -7 -4
1 2 12 -3 -3 -5 -6 -3
2 5 13 0 -2 -4 -5 -3
3 7 14 1 0 -3 -4 -2
4 10 15 3 0 -2 -3 -2
5 13 16 4 1 0 -2 -2
6 14 17 5 2 1 0 0
6 14 17 5 2 1 0 0
6 15 17 5 2 1 0 0
6 15 17 5 2 1 0 0
6 15 17 5 2 1 0 0
6 16 15 6 3 2 0 1
6 16 13 5 3 2 0 1
6 15 10 4 2 2 0 2
6 15 8 4 2 2 0 3
6 15 5 3 2 2 0 3
6 14 4 2 1 2 1 4
6 16 4 2 1 2 1 4
7 17 3 2 0 3 2 5
7 19 2 2 0 4 3 5
7 20 2 2 0 4 3 5
8 21 1 1 -2 5 4 6
8 21 1 1 -2 5 4 6
8 21 1 1 0 5 4 6
8 21 1 1 1 5 4 6
8 21 1 1 1 5 4 6
7 20 2 2 2 6 5 6
7 17 0 0 0 5 5 6
8 14 -2 -2 -2 4 4 5
8 11 -4 -4 -4 3 3 5
8 9 -5 -5 -5 2 3 5
9 7 -6 -6 -6 1 2 4
9 6 -6 -7 -7 0 1 3
8 5 -6 -8 -8 -3 -2 2
8 5 -6 -8 -8 -4 -3 1
8 4 -6 -9 -9 -5 -4 0
7 3 -5 -10 -10 -6 -5 -2
6 3 -5 -10 -10 -6 -5 -2
5 3 -5 -10 -10 -6 -5 -2
4 3 -5 -10 -10 -6 -5 -2
3 3 -5 -10 -10 -6 -5 -2
2 2 -5 -9 -10 -6 -5 0
0 1 -5 -9 -11 -6 -6 -2
-2 -2 -6 -9 -12 -7 -7 -4
-4 -4 -7 -9 -12 -7 -7 -5
-5 -6 -7 -9 -13 -7 -8 -6
-6 -7 -8 -10 -14 -8 -9 -7
-6 -7 -8 -10 -14 -8 -9 -7
-6 -8 -7 -11 -14 -9 -9 -8
-6 -8 -7 -12 -14 -10 -9 -8
-6 -8 -7 -12 -14 -10 -9 -8
-7 -9 -6 -13 -15 -11 -10 -9
-7 -9 -6 -13 -16 -11 -11 -9
-8 -10 -7 -14 -17 -12 -12 -9
-8 -10 -8 -14 -17 -13 -13 -9
-8 -10 -8 -14 -18 -13 -14 -9
-9 -11 -9 -15 -19 -14 -15 -10
-9 -11 -9 -15 -19 -14 -15 -10
-9 -10 -9 -15 -18 -14 -14 -10
-9 -10 -9 -15 -18 -14 -14 -10
-9 -10 -9 -15 -18 -14 -14 -10
-8 -9 -9 -14 -17 -13 -13 -11
-8 -9 -9 -14 -17 -13 -13 -11
-8 -10 -9 -14 -17 -13 -13 -11
-8 -11 -9 -14 -17 -13 -13 -11
-8 -11 -9 -14 -17 -13 -13 -11
-8 -12 -9 -14 -18 -12 -14 -12
-8 -12 -9 -14 -18 -12 -14 -12
-8 -12 -9 -14 -18 -12 -14 -12
-8 -12 -9 -14 -18 -12 -14 -12
-8 -12 -9 -14 -18 -12 -14 -12
-8 -12 -10 -14 -17 -12 -13 -11
-8 -12 -10 -14 -17 -12 -13 -11
-8 -12 -10 -14 -17 -12 -13 -11
-8 -12 -10 -14 -17 -12 -13 -11
-8 -12 -10 -14 -17 -12 -13 -11
-8 -12 -11 -14 -18 -12 -13 -10
-8 -12 -9 -12 -17 -12 -13 -10
-9 -12 -8 -10 -16 -11 -12 -10
-10 -12 -6 -9 -15 -11 -12 -10
-10 -12 -5 -7 -14 -11 -12 -10
-11 -11 3 4 -6 -7 -11 -10
-11 -10 14 21 8 -2 -10 -12
-12 -8 26 38 20 4 -8 -14
-12 -7 37 55 33 9 -7 -15
-12 -6 49 72 46 14 -6 -17
-7 5 54 86 62 31 9 -9
4 20 53 98 80 56 32 9
14 36 52 110 99 81 56 25
25 52 51 121 117 106 79 42
35 68 50 134 136 131 103 59
49 95 29 118 141 163 138 89
63 130 -4 82 135 200 182 129
77 164 -37 47 130 237 225 169
92 199 -70 10 123 274 268 209
106 234 -104 -26 117 311 312 247
103 233 -121 -66 84 292 300 248
87 205 -128 -109 30 228 245 218
70 177 -134 -152 -23 164 191 188
54 149 -141 -195 -76 101 137 158
37 120 -147 -238 -130 38 82 129
26 96 -153 -258 -162 -6 43 100
19 72 -159 -262 -178 -36 13 73
11 50 -165 -265 -194 -66 -17 47
3 26 -172 -268 -210 -96 -47 20
-5 4 -178 -271 -226 -126 -76 -7
-9 -8 -173 -256 -220 -132 -87 -20
-9 -12 -156 -223 -194 -118 -80 -23
-9 -15 -141 -191 -170 -105 -74 -26
-9 -18 -126 -159 -145 -91 -68 -28
-9 -21 -109 -128 -120 -77 -62 -31
-9 -23 -95 -105 -103 -68 -57 -33
-10 -23 -80 -91 -90 -61 -52 -31
-11 -23 -66 -75 -77 -54 -48 -29
-12 -23 -52 -60 -65 -47 -43 -28
-13 -23 -37 -46 -53 -39 -37 -26
-14 -22 -28 -35 -44 -35 -34 -25
-14 -21 -25 -30 -38 -31 -32 -24
-14 -20 -21 -24 -33 -28 -30 -23
-14 -20 -17 -19 -27 -24 -28 -23
-14 -19 -13 -13 -22 -21 -25 -22
-15 -18 -10 -9 -18 -19 -24 -21
-15 -18 -8 -7 -16 -17 -23 -21
-14 -18 -6 -4 -14 -16 -21 -21
-13 -18 -4 -2 -12 -15 -20 -21
-13 -18 0 1 -9 -13 -19 -21
-12 -17 1 3 -8 -12 -18 -20
-12 -17 1 3 -8 -12 -18 -20
-12 -17 0 3 -8 -13 -18 -19
-12 -17 -2 3 -8 -13 -18 -18
-12 -17 -2 3 -8 -13 -18 -18
-13 -17 -3 2 -8 -14 -19 -17
-13 -17 -3 4 -8 -13 -19 -17
-12 -16 -2 5 -7 -12 -18 -17
-11 -16 -2 6 -6 -12 -17 -17
-11 -16 -2 8 -6 -11 -17 -17
-10 -15 0 9 -5 -10 -16 -17
-10 -15 0 9 -5 -10 -16 -17
-10 -15 0 9 -5 -10 -16 -18
-10 -15 0 9 -5 -10 -16 -18
-10 -15 0 9 -5 -10 -16 -18
-11 -15 1 8 -4 -10 -17 -19
-11 -15 1 8 -4 -10 -17 -19
-11 -16 2 9 -3 -10 -16 -19
-11 -17 2 9 -3 -10 -16 -19
-11 -17 2 9 -3 -10 -16 -19
-12 -18 3 10 -2 -9 -15 -18
-12 -17 3 10 -2 -9 -15 -18
-12 -16 2 10 -2 -9 -15 -18
-12 -16 2 10 -2 -9 -15 -18
-12 -15 2 10 -2 -9 -15 -18
-12 -14 1 9 -2 -9 -15 -19
-12 -14 2 10 -2 -9 -15 -19
-12 -15 3 11 0 -8 -15 -18
-12 -15 4 11 0 -8 -15 -18
-12 -15 5 12 0 -8 -15 -18
-12 -16 6 13 1 -7 -14 -17
-12 -16 7 13 1 -7 -14 -17
-11 -16 8 12 1 -7 -14 -17
-10 -16 8 12 1 -7 -14 -17
-10 -16 9 12 1 -7 -14 -17
-9 -15 10 11 2 -8 -15 -17
-9 -15 11 12 2 -8 -15 -17
-10 -16 13 13 2 -8 -15 -17
-10 -16 14 13 2 -8 -15 -17
-10 -16 15 14 2 -8 -15 -17
-11 -17 16 15 3 -8 -15 -18
-11 -17 16 15 3 -8 -15 -18
-11 -17 16 15 4 -8 -15 -18
-11 -17 16 15 5 -8 -15 -18
-11 -17 16 15 5 -8 -15 -18
-10 -17 16 14 6 -7 -14 -19
-10 -17 16 14 6 -7 -14 -19
-10 -18 16 15 6 -7 -14 -19
-10 -18 16 15 6 -7 -14 -19
-10 -18 16 15 6 -7 -14 -19
-11 -19 17 16 7 -7 -14 -18
-11 -19 17 16 7 -7 -14 -18
-10 -19 17 17 8 -6 -14 -18
-9 -19 17 18 9 -6 -14 -18
-9 -19 17 18 9 -6 -14 -18
-8 -18 18 19 10 -5 -13 -19
-8 -18 18 19 10 -5 -13 -19
-8 -17 18 20 10 -5 -13 -19
-8 -17 18 21 10 -5 -13 -19
-8 -17 18 21 10 -5 -13 -19
-7 -16 18 22 10 -6 -14 -20
-7 -16 18 22 11 -6 -14 -19
-6 -15 18 22 12 -5 -13 -18
-6 -15 18 22 13 -5 -12 -18
-6 -15 18 22 14 -5 -12 -17
-5 -14 18 23 15 -4 -11 -16
-5 -15 18 24 15 -4 -11 -16
-5 -16 18 25 15 -4 -12 -17
-5 -17 18 25 15 -4 -12 -18
-5 -18 18 26 15 -4 -12 -18
-5 -19 18 27 16 -4 -13 -19
-5 -18 18 27 16 -4 -13 -19
-4 -18 18 27 16 -4 -12 -19
-3 -17 17 27 16 -3 -11 -18
-3 -16 17 27 16 -3 -11 -18
-2 -15 16 28 17 -2 -10 -17
-2 -15 16 28 17 -2 -10 -16
-2 -15 16 28 17 -2 -9 -15
0 -15 16 29 17 0 -8 -14
0 -15 16 29 17 0 -8 -13
1 -16 15 30 18 1 -7 -12
2 -15 13 30 18 1 -7 -12
3 -14 12 30 18 1 -6 -12
5 -13 10 29 18 1 -5 -12
6 -12 8 29 18 1 -5 -12
7 -11 7 28 17 2 -4 -11
7 -11 6 28 17 2 -4 -11
7 -11 6 28 17 2 -4 -10
7 -11 5 27 16 2 -4 -9
7 -11 4 27 16 2 -4 -9
7 -11 3 26 15 3 -3 -8
7 -11 1 24 14 3 -3 -7
7 -11 0 23 13 3 -3 -7
8 -11 -2 22 12 3 -3 -6
8 -11 -4 20 11 3 -3 -5
9 -11 -5 19 10 2 -2 -4
11 -9 -5 19 10 2 0 -3
13 -7 -5 19 10 2 1 -2
15 -5 -5 19 10 3 3 1
17 -3 -5 19 10 3 4 2
19 -2 -6 20 10 4 5 3
19 -2 -7 19 10 4 5 3
19 -2 -8 18 10 4 5 3
19 -2 -10 16 10 4 6 3
19 -2 -11 15 10 4 6 3
18 -3 -12 14 9 5 7 4
18 -3 -12 14 8 5 7 4
18 -3 -12 14 8 5 7 4
18 -3 -13 13 7 5 7 4
18 -3 -13 13 6 5 7 4
17 -2 -14 12 5 5 7 4
18 0 -14 12 5 6 9 6
18 1 -14 12 5 7 10 7
19 3 -14 12 6 8 11 8
20 4 -14 12 6 9 13 10
21 5 -13 11 7 10 14 11
20 4 -12 11 7 10 14 11
19 4 -12 11 7 10 14 11
18 3 -11 12 7 10 14 11
17 2 -10 12 7 10 14 11
16 1 -9 13 8 9 14 10
16 1 -9 13 9 9 14 10
16 1 -8 13 9 10 14 10
15 2 -7 13 10 11 14 10
15 2 -7 13 11 11 14 10
14 3 -6 12 12 12 13 11
12 3 -6 12 12 12 13 11
11 3 -6 12 12 12 12 10
10 2 -6 11 12 12 11 9
8 2 -6 11 12 12 11 9
7 1 -5 10 12 11 10 8
6 1 -5 10 12 11 10 7
5 1 -4 9 12 11 9 6
3 0 -3 8 12 10 8 4
2 0 -3 8 12 10 8 3
1 -2 -2 7 11 9 7 2
1 -2 -2 7 11 9 7 2
1 -2 0 8 11 9 7 2
1 -2 1 9 12 9 7 2
1 -2 1 9 12 9 7 2
2 0 2 10 13 10 6 1
1 -2 2 9 13 9 5 0
1 -2 2 8 12 8 4 -2
0 -3 2 6 11 7 3 -3
-2 -4 2 5 11 6 2 -4
-3 -5 3 4 10 5 1 -5
-3 -5 3 4 10 5 1 -5
-3 -5 3 4 10 5 1 -5
-3 -5 4 4 9 4 1 -5
-3 -5 4 4 9 4 1 -5
-3 -5 5 4 8 3 0 -6
-3 -5 5 4 8 3 0 -6
-3 -5 5 4 8 3 0 -6
-4 -5 5 4 8 3 0 -6
-4 -5 5 4 8 3 0 -6
-5 -6 5 4 9 3 -2 -5
-5 -6 5 4 9 3 -2 -5
-5 -7 5 4 9 3 -2 -6
-6 -8 5 4 9 3 -2 -7
-6 -8 5 4 9 3 -2 -7
-7 -9 7 4 8 2 -3 -8
-7 -9 10 4 8 2 -3 -8
-7 -9 13 4 8 2 -3 -8
-7 -8 16 4 9 2 -4 -8
-7 -8 20 4 9 2 -4 -8
-7 -7 22 5 10 2 -5 -9
-7 -7 21 5 10 2 -5 -9
-8 -7 20 5 10 2 -5 -9
-9 -8 19 5 10 1 -6 -9
-9 -8 18 5 10 1 -6 -9
-10 -9 17 4 9 0 -7 -9
-10 -9 17 5 10 1 -7 -9
-10 -8 17 6 11 1 -7 -9
-9 -7 17 7 12 2 -6 -8
-9 -7 17 8 13 3 -6 -8
-8 -6 17 9 14 4 -5 -7
-8 -6 18 10 14 4 -4 -7
-8 -6 18 10 15 4 -4 -6
-7 -6 19 11 16 4 -3 -5
-7 -6 20 12 16 4 -2 -5
-6 -6 21 13 17 5 0 -4
-6 -6 21 13 17 5 0 -4
-6 -5 20 13 17 5 0 -4
-6 -4 19 13 17 6 0 -4
-6 -4 19 13 17 6 0 -4
-5 -3 18 13 18 7 0 -5
-5 -3 18 13 18 7 0 -5
-5 -3 18 13 18 7 0 -5
-5 -3 18 13 18 7 0 -5
-5 -3 18 13 18 7 0 -5
-5 -3 17 14 18 6 0 -6
-5 -3 17 14 18 6 0 -6
-5 -3 17 14 18 6 0 -6
-5 -2 17 13 19 7 0 -5
-5 -2 17 13 19 7 0 -5
-5 0 16 12 20 8 1 -4
-5 0 16 13 20 8 1 -4
-5 0 16 13 20 8 1 -4
-5 0 16 14 21 8 1 -3
-5 0 16 15 21 8 1 -3
-5 -2 17 16 22 9 2 -2
-5 -2 17 15 22 9 2 -2
-5 -2 17 15 21 9 2 -2
-6 -3 17 14 20 9 2 -2
-6 -3 17 13 20 9 2 -2
-7 -4 16 12 19 9 3 -3
-7 -4 16 12 19 9 3 -3
-7 -5 16 12 19 9 3 -3
-7 -6 16 12 19 9 3 -3
-7 -6 16 12 19 9 3 -3
-8 -7 17 11 18 8 3 -2
-7 -6 17 11 18 8 3 -2
-7 -6 17 11 18 8 3 -2
-6 -5 18 11 18 8 4 0
-5 -4 18 11 18 8 4 0
-4 -3 19 11 18 9 5 1
-4 -3 19 11 18 9 5 1
-4 -3 19 10 17 9 5 1
-4 -3 19 9 16 8 4 1
-4 -3 19 9 16 8 4 1
-5 -2 18 8 15 7 3 0
-5 -2 18 8 15 7 3 0
-5 -2 17 7 15 7 3 0
-5 -2 16 6 15 7 3 0
-5 -2 16 6 15 7 3 0
-5 -3 15 5 14 6 2 0
-5 -3 15 5 14 6 2 0
-5 -3 15 5 14 6 2 0
-4 -3 15 5 13 6 2 0
-4 -3 15 5 13 6 2 0
-3 -3 15 5 12 5 3 0
-4 -4 15 5 11 5 2 0
-4 -4 14 4 11 5 2 0
-5 -5 13 3 10 4 1 0
-6 -6 13 3 9 4 0 0
-7 -7 12 2 8 3 -2 -2
-6 -7 12 2 8 3 -2 -2
-6 -6 12 2 8 3 -2 -2
-5 -5 12 2 8 3 0 -2
-4 -5 12 2 8 3 0 -2
-3 -4 11 3 8 3 1 0
-3 -4 11 3 8 3 1 0
-4 -4 11 2 8 3 1 0
-5 -5 10 1 8 3 0 0
-5 -5 10 1 8 3 0 0
-6 -6 9 0 7 2 -2 -2
-6 -6 9 0 7 2 -2 -2
-6 -6 9 0 7 2 -2 -2
-6 -7 9 0 6 2 -2 -2
-6 -7 9 0 6 2 -2 -2
-7 -8 9 0 5 1 -3 -2
-7 -8 9 0 5 1 -3 -2
-7 -8 9 0 5 1 -3 -2
-6 -8 8 -2 5 1 -3 -2
-6 -8 8 -2 5 1 -3 -2
-5 -7 7 -3 4 1 -2 0
-5 -7 7 -3 4 1 -2 0
-5 -7 8 -3 4 1 -2 1
-5 -7 9 -2 5 1 -2 2
-5 -7 9 -2 5 1 -2 2
-5 -6 10 0 6 1 0 3
-5 -6 10 0 6 1 0 2
-5 -5 10 0 6 1 0 2
-5 -4 9 0 6 1 -2 1
-5 -4 9 0 6 1 -2 0
-5 -3 8 -2 5 0 -3 -2
-5 -3 9 0 5 0 -3 -2
-5 -3 10 0 5 1 -2 0
-4 -3 11 1 6 2 0 1
-4 -3 12 2 6 2 0 1
-3 -2 13 3 7 3 1 2
-2 1 13 4 8 4 2 3
-2 4 14 4 9 5 2 4
0 6 15 5 10 6 3 5
1 8 15 6 11 7 4 6
2 10 16 7 12 8 5 7
1 10 16 7 12 8 5 7
1 10 16 7 12 8 5 7
0 10 16 8 12 8 5 7
-2 10 16 8 12 8 5 7
-3 10 17 9 13 8 6 8
-3 10 15 8 13 8 6 8
-2 11 13 7 12 8 6 8
-2 11 12 6 12 8 6 8
0 12 10 4 11 8 6 8
1 13 8 3 10 8 7 9
1 13 7 3 10 8 7 9
1 13 7 3 10 8 7 10
1 13 6 3 10 8 7 10
1 13 5 3 10 8 7 11
2 13 4 3 9 9 8 12
2 13 4 3 9 9 9 12
2 14 4 3 9 10 9 13
2 14 3 4 10 10 10 13
2 15 3 4 10 11 11 14
2 16 2 5 11 12 12 15
3 15 2 5 10 12 12 15
3 15 2 4 10 11 11 15
4 14 1 4 9 11 11 14
5 13 1 3 8 10 10 14
6 12 0 2 7 9 9 13
6 9 -2 0 5 8 7 12
6 7 -4 -3 3 7 6 11
6 5 -5 -4 1 6 4 10
6 2 -7 -6 -2 4 3 9
5 0 -8 -8 -4 3 1 8
4 0 -8 -8 -4 3 1 8
4 0 -7 -8 -4 3 1 8
3 0 -7 -7 -4 2 1 8
2 0 -6 -7 -4 2 1 8
1 -2 -5 -6 -3 1 2 8
0 -3 -5 -7 -4 0 1 7
-2 -4 -5 -7 -4 -2 1 6
-3 -5 -5 -8 -5 -3 0 5
-4 -7 -5 -9 -6 -4 -2 4
-5 -8 -6 -10 -7 -5 -3 3
-6 -8 -6 -10 -7 -6 -4 3
-6 -9 -6 -10 -7 -6 -4 2
-7 -9 -6 -10 -8 -7 -5 2
-8 -10 -6 -10 -8 -8 -6 1
-9 -11 -6 -10 -9 -9 -7 0
-9 -12 -7 -11 -10 -10 -8 0
-9 -12 -7 -12 -10 -10 -8 -2
-10 -13 -8 -13 -11 -11 -9 -2
-10 -14 -9 -14 -12 -12 -10 -3
-11 -15 -10 -15 -13 -13 -11 -4
-11 -15 -10 -15 -13 -13 -11 -4
-11 -15 -10 -15 -13 -13 -11 -4
-11 -15 -9 -15 -13 -13 -11 -4
-11 -15 -9 -15 -13 -13 -11 -4
-10 -15 -8 -14 -13 -14 -12 -4
-10 -15 -8 -14 -13 -14 -12 -4
-10 -15 -8 -14 -13 -14 -12 -4
-10 -15 -8 -14 -13 -14 -12 -4
-10 -15 -8 -14 -13 -14 -12 -4
-11 -15 -9 -15 -14 -13 -11 -3
-11 -15 -9 -14 -14 -13 -11 -3
-11 -15 -9 -14 -14 -13 -11 -3
-10 -14 -9 -13 -13 -13 -10 -3
-10 -14 -9 -12 -13 -13 -10 -3
-9 -13 -8 -11 -12 -12 -9 -3
-9 -13 -8 -11 -12 -12 -9 -3
-9 -14 -8 -11 -12 -12 -9 -3
-9 -14 -8 -12 -12 -12 -9 -3
-9 -15 -8 -12 -12 -12 -9 -3
-10 -16 -9 -13 -13 -11 -9 -3
-10 -16 -9 -13 -13 -11 -9 -3
-10 -16 -8 -13 -13 -11 -9 -3
-10 -16 -8 -12 -12 -11 -9 -3
-10 -16 -7 -12 -12 -11 -9 -3
-9 -16 -4 -8 -9 -11 -9 -2
-11 -16 5 4 0 -8 -9 -4
-14 -15 13 15 8 -6 -9 -5
-16 -15 21 26 16 -4 -9 -7
-18 -14 29 37 24 0 -9 -8
-19 -11 36 50 35 6 -5 -8
-12 0 43 69 54 23 10 2
-5 10 49 88 73 42 24 11
3 20 54 106 92 59 38 21
10 30 60 125 111 76 53 30
19 47 59 135 127 100 75 47
35 77 33 115 132 141 120 82
53 108 8 97 136 182 164 118
69 140 -18 77 141 223 209 154
86 171 -44 59 146 263 254 190
98 194 -67 32 140 289 283 217
95 193 -83 -16 98 270 272 217
91 192 -101 -64 56 251 261 217
87 191 -118 -112 14 232 248 218
82 189 -135 -160 -28 213 237 218
75 179 -150 -201 -70 180 212 209
58 142 -159 -222 -110 109 148 165
40 106 -169 -243 -150 38 84 123
22 69 -178 -265 -190 -33 20 81
5 32 -188 -285 -230 -104 -45 38
-9 4 -192 -295 -255 -154 -92 6
-9 -3 -179 -263 -229 -142 -88 -2
-9 -9 -164 -232 -204 -129 -83 -8
-8 -16 -151 -201 -179 -115 -78 -15
-8 -22 -137 -170 -153 -103 -74 -22
-7 -27 -122 -142 -131 -91 -69 -27
-8 -26 -106 -124 -115 -82 -64 -27
-9 -26 -90 -106 -101 -74 -59 -27
-10 -25 -73 -89 -87 -66 -54 -27
-11 -24 -58 -71 -71 -58 -48 -27
-12 -23 -44 -55 -59 -50 -44 -27
-13 -22 -36 -47 -51 -46 -39 -24
-14 -21 -29 -38 -43 -40 -35 -22
-15 -20 -22 -29 -35 -35 -31 -19
-16 -19 -15 -21 -27 -30 -27 -16
-17 -18 -9 -14 -21 -26 -24 -14
-16 -18 -7 -11 -19 -25 -23 -14
-15 -18 -5 -8 -17 -23 -22 -13
-14 -18 -4 -5 -15 -21 -21 -13
-13 -18 -2 -3 -13 -20 -19 -12
-12 -17 1 1 -11 -18 -18 -11
-12 -17 1 1 -11 -18 -18 -11
-12 -17 2 2 -10 -18 -18 -11
-12 -17 2 3 -10 -17 -18 -11
-12 -17 3 4 -9 -17 -18 -11
-13 -18 4 5 -8 -16 -18 -11
-13 -18 4 5 -8 -16 -18 -11
-13 -18 5 5 -8 -16 -18 -11
-12 -18 6 5 -8 -16 -18 -12
-12 -18 7 5 -8 -16 -18 -12
-11 -17 8 6 -7 -16 -17 -13
-11 -17 9 6 -7 -16 -17 -13
-11 -17 11 6 -7 -16 -17 -13
-11 -17 13 7 -6 -15 -17 -13
-11 -17 14 7 -6 -15 -17 -13
-10 -16 16 8 -5 -14 -17 -12
-10 -16 16 8 -5 -14 -17 -12
-10 -17 16 9 -5 -14 -17 -12
-11 -18 16 9 -5 -14 -17 -11
-11 -19 16 10 -5 -14 -17 -11
-12 -20 17 11 -5 -14 -17 -10
-12 -20 17 11 -5 -14 -17 -10
-12 -19 17 11 -5 -14 -17 -10
-12 -19 17 11 -5 -14 -17 -11
-12 -18 17 11 -5 -14 -17 -11
-12 -17 18 10 -4 -14 -16 -12
-12 -17 18 10 -4 -14 -16 -12
-11 -17 19 11 -4 -14 -16 -12
-11 -16 19 11 -4 -14 -16 -12
-10 -16 20 12 -4 -14 -16 -12
-9 -15 21 13 -3 -13 -15 -12
-9 -15 21 13 -3 -13 -15 -12
-9 -15 21 13 -3 -13 -15 -12
-10 -15 21 13 -3 -13 -16 -12
-10 -15 21 13 -3 -13 -16 -12
-11 -15 21 12 -3 -14 -17 -13
-11 -15 21 12 -3 -14 -17 -13
-10 -15 21 12 -3 -14 -17 -13
-10 -15 21 13 -3 -14 -17 -13
-9 -15 21 13 -3 -14 -17 -13
-8 -15 21 14 -3 -14 -16 -13
-8 -15 21 14 -3 -14 -16 -13
-8 -15 21 14 -2 -14 -16 -13
-8 -16 21 15 0 -13 -15 -13
-8 -16 21 15 1 -13 -15 -13
-9 -17 22 16 2 -12 -14 -13
-9 -17 22 16 2 -12 -14 -13
-9 -17 22 16 2 -12 -14 -13
-9 -17 22 16 2 -13 -15 -13
-9 -17 22 16 2 -13 -15 -13
-10 -18 21 16 2 -14 -16 -13
-10 -18 21 17 2 -14 -16 -13
-10 -18 21 18 3 -14 -16 -13
-9 -18 22 19 3 -13 -16 -13
-9 -18 22 20 4 -13 -16 -13
-8 -17 23 21 5 -12 -15 -13
-8 -17 23 21 5 -12 -15 -13
-8 -16 23 21 5 -12 -15 -13
-7 -16 23 21 5 -12 -15 -13
-7 -15 23 21 5 -12 -15 -13
-6 -14 22 22 5 -12 -14 -12
-6 -14 22 22 5 -12 -14 -12
-6 -14 22 23 6 -12 -14 -12
-6 -15 23 23 6 -11 -14 -12
-6 -15 23 24 7 -11 -14 -12
-6 -16 24 25 8 -10 -13 -12
-6 -16 24 25 8 -10 -13 -12
-6 -16 23 25 8 -10 -13 -12
-6 -16 23 26 8 -10 -13 -12
-6 -16 22 26 8 -10 -13 -12
-5 -15 21 27 8 -10 -13 -12
-5 -15 21 27 8 -10 -13 -12
-4 -15 21 27 9 -10 -13 -12
-4 -15 21 28 9 -10 -12 -12
-3 -15 21 28 10 -10 -12 -12
-2 -14 21 29 11 -9 -11 -12
-2 -14 21 29 11 -9 -11 -12
0 -14 20 29 11 -9 -11 -12
1 -14 20 29 11 -9 -11 -11
2 -14 19 29 11 -9 -11 -11
3 -13 18 30 12 -8 -10 -10
3 -13 17 30 12 -8 -10 -10
3 -13 16 30 12 -8 -10 -10
3 -13 15 30 11 -8 -10 -10
3 -13 13 30 11 -8 -10 -10
4 -14 12 29 10 -8 -10 -9
5 -13 11 29 10 -8 -9 -8
6 -12 10 29 9 -7 -8 -6
7 -11 9 29 9 -7 -7 -4
9 -9 8 29 8 -6 -5 -3
10 -8 7 28 7 -5 -4 0
10 -8 7 28 7 -5 -4 0
11 -8 6 27 6 -5 -3 0
11 -7 5 26 6 -5 -2 0
12 -7 4 25 5 -5 0 0
13 -6 3 24 4 -5 1 1
13 -6 2 23 4 -5 1 2
14 -5 1 22 3 -5 2 3
15 -4 0 21 3 -5 2 4
16 -3 -2 20 2 -5 3 5
17 -2 -4 19 1 -4 4 6
17 -2 -4 19 1 -4 4 6
17 -2 -4 18 0 -4 4 6
17 -2 -4 18 -2 -4 4 7
17 -2 -4 17 -3 -4 4 7
17 -3 -5 16 -4 -5 5 8
17 -2 -5 16 -4 -5 5 8
18 0 -6 15 -5 -5 5 9
19 1 -7 14 -5 -5 6 10
20 2 -8 13 -6 -5 6 11
21 4 -9 12 -7 -4 7 12
21 4 -9 12 -7 -4 7 12
21 5 -9 12 -7 -3 8 12
21 6 -9 11 -7 -3 9 12
21 7 -9 11 -7 -2 10 12
21 8 -10 10 -7 0 11 12
21 8 -10 10 -7 0 11 12
21 8 -10 10 -7 0 11 12
21 8 -10 10 -7 0 11 13
21 8 -10 10 -7 0 11 13
20 9 -10 10 -7 -2 10 14
19 9 -9 10 -7 -2 10 14
18 9 -7 10 -7 -2 10 14
17 9 -6 10 -7 0 10 13
16 9 -5 10 -7 0 10 13
15 9 -3 10 -6 1 10 12
14 9 -3 10 -6 1 10 12
13 9 -2 10 -6 1 9 12
11 9 0 9 -5 1 9 11
10 9 1 9 -5 1 8 11
8 8 2 8 -4 0 7 10
8 8 3 8 -4 0 7 10
8 8 4 8 -3 1 7 10
8 8 5 9 -2 1 7 9
8 8 6 9 0 2 7 9
8 7 8 10 1 3 8 8
7 7 8 10 1 3 8 8
6 6 8 10 1 3 7 7
5 6 9 10 1 2 6 7
4 5 9 10 1 2 5 6
3 4 10 9 1 1 4 5
3 4 10 9 1 1 4 4
2 3 10 8 0 0 3 3
1 3 10 8 0 0 3 2
0 2 10 7 -2 -2 2 1
-2 1 10 6 -3 -3 1 0
-2 1 10 6 -3 -3 1 0
-2 1 10 6 -3 -4 0 -2
-2 1 10 5 -3 -4 0 -2
-2 1 10 5 -3 -5 -2 -3
-2 2 11 4 -3 -6 -3 -4
-2 2 11 4 -3 -6 -3 -4
-2 1 12 4 -3 -6 -3 -4
-3 1 12 4 -2 -5 -3 -3
-3 0 13 4 -2 -5 -3 -3
-4 -2 14 5 0 -4 -3 -2
-4 -2 14 5 0 -4 -3 -2
-4 -2 14 5 0 -4 -3 -2
-4 -2 13 5 0 -5 -3 -3
-4 -2 13 5 0 -5 -3 -3
-5 -3 12 4 1 -6 -4 -4
-5 -3 12 4 1 -6 -4 -4
-5 -3 12 4 1 -6 -4 -4
-5 -4 12 4 1 -6 -5 -5
-5 -4 12 4 1 -6 -5 -5
-6 -5 12 5 2 -7 -6 -6
-6 -5 12 5 2 -7 -6 -6
-6 -4 12 6 2 -7 -6 -6
-5 -4 12 7 2 -7 -6 -6
-5 -3 12 8 2 -7 -6 -6
-4 -2 13 9 3 -7 -6 -7
-4 -2 13 9 3 -7 -6 -7
-4 -2 13 9 4 -6 -6 -7
-4 -2 13 9 4 -5 -5 -7
-4 -2 13 9 5 -4 -5 -7
-5 0 13 10 6 -3 -4 -7
-5 0 13 10 6 -3 -4 -7
-5 -2 13 10 6 -3 -4 -7
-5 -2 13 11 6 -3 -4 -6
-5 -3 13 11 6 -3 -4 -6
-6 -4 14 12 5 -4 -4 -5
-6 -4 14 12 6 -4 -4 -5
-6 -4 14 12 7 -3 -4 -5
-6 -4 14 13 8 -2 -3 -5
-6 -4 14 13 9 0 -3 -5
-7 -3 14 14 10 1 -2 -4
-7 -3 14 14 10 1 -2 -4
-7 -2 14 14 10 1 -2 -4
-6 -2 14 15 10 1 -2 -4
-6 0 14 15 10 1 -2 -4
-5 1 15 16 11 2 0 -3
-5 1 15 16 11 2 0 -3
-5 1 15 16 11 2 0 -3
-4 2 15 16 11 2 0 -3
-4 2 15 16 11 2 0 -3
-3 3 15 16 12 3 1 -3
-3 3 15 16 12 3 1 -3
-3 3 15 16 12 3 1 -3
-3 3 15 16 12 3 1 -3
-3 3 15 16 12 3 1 -3
-4 2 15 15 12 3 1 -3
-4 2 15 15 12 3 1 -3
-4 2 15 15 12 3 1 -3
-4 2 15 15 12 3 1 -3
-4 2 15 15 12 3 1 -3
-4 2 14 16 12 3 1 -3
-4 2 14 16 12 3 1 -3
-4 2 14 16 12 3 2 -3
-4 3 14 16 12 4 2 -2
-4 3 14 16 12 4 3 -2
-4 4 13 15 12 5 4 0
-4 4 13 15 12 5 4 0
-4 4 13 14 12 5 4 0
-4 4 13 14 12 5 4 0
-4 4 13 13 12 5 4 0
-4 3 13 12 11 4 3 1
-4 3 13 12 11 4 3 1
-4 2 13 12 10 4 3 1
-4 2 12 11 9 3 3 1
-4 1 12 11 8 3 3 1
-5 0 11 10 7 2 3 1
-5 0 11 10 7 2 3 1
-5 1 10 10 7 2 3 1
-5 2 10 9 7 2 3 1
-5 3 9 9 7 2 3 1
-4 4 8 8 6 1 2 0
-4 4 8 8 6 1 2 0
-3 4 8 8 6 1 2 0
-3 4 8 7 6 1 2 -2
-2 4 8 7 6 1 2 -2
0 5 7 6 5 0 1 -3
0 5 7 6 5 0 1 -3
-2 4 7 6 5 0 1 -3
-2 4 7 5 4 0 1 -3
-3 3 7 5 4 0 1 -3
-4 2 6 4 3 0 1 -3
-4 2 6 4 3 0 1 -3
-4 2 6 4 3 0 1 -3
-4 2 5 4 2 0 0 -3
-4 2 5 4 2 0 0 -3
-4 2 4 3 1 -2 -2 -4
-4 2 4 3 1 -2 -2 -4
-4 2 4 3 1 -2 -2 -4
-4 2 4 3 1 0 0 -3
-4 2 4 3 1 0 0 -3
-3 2 5 3 2 1 1 -2
-3 2 5 3 2 1 1 -2
-3 2 5 3 2 1 1 -2
-4 2 5 3 2 1 1 -2
-4 2 5 3 2 1 1 -2
-5 1 4 2 1 1 1 -3
-5 1 4 2 1 1 1 -3
-5 1 4 2 1 1 1 -3
-4 1 4 2 1 0 1 -3
-4 1 4 2 1 0 1 -3
-3 1 4 2 1 -2 0 -4
-3 1 4 2 1 -2 0 -4
-3 1 4 2 1 -2 0 -4
-3 1 4 2 1 -2 0 -4
-3 1 4 2 1 -2 0 -4
-3 1 3 1 0 -2 -2 -4
-3 1 3 1 0 -2 -2 -4
-3 0 3 1 0 -2 -2 -4
-3 0 3 0 0 -2 -2 -4
-3 -2 3 0 0 -2 -2 -4
-4 -3 3 -2 -2 -3 -3 -5
-4 -3 3 -2 -2 -3 -3 -5
-4 -3 3 -2 -2 -3 -3 -5
-4 -3 3 -2 -2 -2 -2 -5
-4 -3 3 -2 -2 -2 -2 -5
-5 -4 3 -3 -3 0 0 -5
-5 -4 3 -3 -3 0 0 -5
-5 -4 3 -2 -3 0 0 -5
-4 -3 4 -2 -2 0 0 -4
-4 -3 4 0 -2 0 0 -4
-3 -2 5 1 0 1 1 -3
-3 -2 5 1 0 1 1 -3
-3 0 5 2 1 1 1 -3
-2 0 6 2 1 1 1 -3
-2 1 6 3 2 1 1 -3
0 2 7 4 3 2 1 -2
0 3 8 4 4 3 2 -2
0 4 9 5 5 4 3 -2
1 5 11 6 6 5 4 -2
1 6 12 7 7 6 5 -2
2 7 14 8 9 7 7 0
2 8 14 8 9 7 7 0
2 9 15 9 10 8 7 1
2 11 15 9 10 8 8 2
2 12 16 10 11 9 8 3
3 14 17 11 12 10 9 4
3 14 17 11 12 10 9 4
3 15 16 11 12 11 9 5
4 16 16 11 12 11 10 6
4 17 15 11 12 12 10 7
5 18 14 10 13 13 11 8
5 18 12 9 12 13 11 8
5 17 10 8 11 12 11 8
5 16 8 7 10 12 10 8
5 15 6 6 9 11 10 8
4 14 3 4 8 10 9 7
4 14 3 4 8 10 9 7
4 15 3 5 8 11 10 7
4 16 3 5 9 11 11 7
4 17 3 6 9 12 12 7
4 17 3 6 9 12 12 7
4 18 4 7 10 13 13 7
5 18 4 7 10 13 13 8
6 18 3 6 9 13 13 8
7 18 3 6 9 13 13 9
8 18 3 6 9 13 13 9
9 17 1 4 7 11 11 9
9 14 -2 2 5 9 10 8
9 12 -3 1 3 8 8 7
9 9 -5 -2 1 6 7 6
9 7 -6 -3 0 5 6 5
8 6 -7 -4 -2 4 5 4
7 6 -7 -4 -2 4 5 4
6 5 -6 -5 -2 4 5 4
5 5 -6 -5 -2 4 5 4
5 5 -6 -5 -2 4 5 4
4 4 -5 -6 -2 4 4 3
3 3 -5 -6 -2 4 3 2
2 2 -5 -6 -2 4 3 2
1 1 -5 -6 -2 4 2 1
1 1 -5 -6 -2 4 2 1
-2 0 -4 -7 -3 3 1 0
-3 -2 -4 -7 -3 2 1 -2
-5 -3 -4 -7 -3 2 0 -2
-6 -4 -4 -7 -3 1 0 -3
-7 -5 -4 -7 -3 1 0 -3
-8 -7 -4 -6 -4 0 -2 -4
-8 -8 -4 -7 -5 -2 -3 -4
-8 -10 -4 -8 -6 -3 -4 -4
-8 -11 -4 -9 -7 -4 -5 -4
-8 -12 -4 -10 -7 -4 -5 -4
-8 -13 -4 -11 -8 -5 -6 -5
-8 -13 -4 -11 -8 -5 -6 -5
-8 -13 -4 -11 -8 -5 -6 -5
-8 -13 -4 -11 -8 -5 -6 -5
-8 -13 -4 -11 -8 -5 -6 -5
-8 -13 -5 -11 -9 -6 -6 -6
-8 -13 -5 -11 -9 -6 -6 -6
-8 -13 -5 -11 -9 -6 -6 -6
-8 -13 -5 -11 -9 -6 -6 -6
-8 -13 -5 -11 -9 -6 -6 -6
-9 -13 -5 -12 -9 -5 -6 -7
-9 -13 -5 -12 -9 -5 -6 -7
-8 -12 -5 -11 -9 -6 -7 -7
-8 -12 -5 -11 -9 -6 -7 -7
-8 -12 -5 -11 -9 -6 -7 -7
-7 -11 -5 -10 -10 -7 -8 -8
-7 -11 -5 -10 -10 -6 -8 -8
-7 -11 -5 -10 -10 -6 -8 -7
-7 -11 -5 -10 -10 -5 -8 -7
-7 -11 -5 -10 -10 -5 -8 -7
-8 -12 -5 -10 -9 -4 -7 -6
-8 -13 -5 -10 -9 -4 -7 -6
-9 -13 -5 -10 -9 -4 -7 -6
-9 -14 -5 -10 -9 -4 -7 -6
-9 -14 -5 -10 -9 -4 -7 -6
-10 -15 2 -3 -6 -4 -8 -7
-11 -15 8 6 0 -3 -8 -8
-12 -14 15 14 4 0 -8 -10
-13 -14 22 21 8 1 -8 -11
-14 -14 28 29 12 2 -8 -12
-11 -6 37 49 31 15 1 -8
-6 3 47 68 51 29 12 -2
0 12 56 88 71 44 22 5
4 20 65 107 91 57 33 10
9 28 74 127 110 71 44 16
25 53 56 120 121 106 81 46
43 79 35 111 131 143 120 77
59 105 14 103 141 180 159 109
76 132 -7 94 150 217 199 140
94 157 -27 85 160 254 238 172
96 169 -51 40 132 254 245 186
98 180 -74 -7 100 248 250 200
100 191 -98 -53 68 244 255 214
102 201 -121 -100 36 240 260 228
103 213 -145 -147 4 236 264 242
85 179 -149 -183 -47 167 203 202
64 141 -152 -218 -99 92 137 158
44 104 -155 -253 -151 18 70 114
22 66 -158 -287 -203 -56 4 70
2 28 -160 -322 -256 -131 -63 26
0 16 -157 -296 -238 -128 -69 14
-2 6 -151 -263 -215 -119 -70 4
-3 -5 -146 -230 -192 -110 -72 -7
-4 -15 -141 -197 -169 -102 -73 -17
-5 -25 -136 -164 -145 -93 -74 -27
-6 -26 -118 -144 -129 -85 -70 -28
-7 -26 -101 -123 -112 -75 -64 -28
-8 -26 -83 -104 -96 -66 -57 -29
-9 -26 -65 -85 -79 -58 -51 -29
-10 -26 -48 -65 -63 -49 -45 -29
-11 -26 -38 -55 -53 -44 -40 -28
-12 -25 -30 -45 -45 -37 -36 -25
-13 -24 -22 -35 -35 -32 -32 -22
-14 -23 -13 -26 -26 -26 -29 -20
-15 -22 -5 -16 -17 -21 -25 -17
-16 -21 -2 -13 -15 -19 -24 -16
-16 -21 1 -10 -13 -18 -23 -16
-15 -21 4 -7 -11 -17 -22 -15
-15 -21 7 -4 -9 -16 -21 -15
-15 -21 9 0 -7 -15 -20 -15
-14 -22 10 1 -6 -14 -19 -14
-14 -22 10 1 -6 -14 -19 -14
-14 -22 11 1 -6 -14 -19 -14
-14 -22 11 1 -6 -14 -19 -14
-14 -22 11 1 -6 -14 -19 -14
-14 -23 12 3 -4 -14 -19 -15
-13 -22 13 4 -3 -13 -19 -15
-12 -21 13 6 -2 -13 -19 -15
-11 -20 14 7 0 -12 -19 -15
-10 -20 14 8 1 -12 -19 -15
-9 -19 15 9 2 -11 -18 -14
-9 -19 15 9 2 -11 -18 -14
-9 -18 16 9 2 -10 -18 -14
-9 -18 16 9 2 -10 -18 -14
-9 -18 16 9 2 -10 -18 -14
-9 -17 17 10 2 -9 -17 -14
-9 -17 17 10 2 -9 -17 -14
-9 -18 17 10 2 -9 -17 -14
-9 -18 17 10 2 -9 -17 -14
-9 -18 17 10 2 -9 -17 -14
-9 -19 16 9 1 -9 -18 -15
-9 -19 16 9 1 -9 -18 -15
-10 -20 17 10 1 -10 -18 -15
-10 -20 17 10 1 -10 -18 -15
-10 -20 17 10 1 -10 -18 -15
-11 -21 18 11 2 -11 -19 -16
-11 -21 18 11 2 -11 -19 -16
-11 -20 19 11 3 -11 -19 -15
-11 -20 19 11 3 -11 -19 -15
-11 -20 19 11 3 -11 -19 -15
-10 -19 20 11 4 -10 -18 -14
-10 -19 20 11 4 -10 -18 -14
-10 -20 20 11 4 -10 -19 -14
-10 -20 20 11 4 -10 -19 -14
-10 -20 20 11 4 -10 -19 -14
-9 -21 21 12 4 -11 -20 -15
-9 -21 21 12 4 -11 -20 -15
-8 -20 21 13 4 -11 -19 -14
-8 -20 21 13 4 -11 -19 -14
-8 -20 21 13 4 -11 -19 -14
-7 -19 22 14 5 -10 -18 -13
-7 -19 22 15 5 -10 -18 -13
-8 -19 22 15 6 -10 -18 -13
-8 -19 22 16 6 -10 -18 -13
-8 -19 22 16 6 -10 -18 -13
-9 -19 22 17 7 -10 -19 -14
-9 -19 22 17 7 -10 -19 -14
-9 -19 21 17 7 -10 -19 -14
-9 -19 21 17 7 -10 -19 -14
-9 -19 21 17 7 -10 -19 -14
-8 -20 20 17 7 -10 -19 -14
-8 -20 20 18 7 -10 -19 -14
-8 -20 21 18 8 -10 -19 -14
-8 -20 21 19 8 -10 -19 -14
-8 -20 21 19 8 -10 -19 -14
-7 -19 22 20 9 -9 -19 -15
-7 -19 22 20 9 -9 -19 -15
-7 -19 22 20 9 -9 -19 -15
-7 -19 22 20 9 -9 -19 -15
-7 -19 22 20 9 -9 -19 -15
-7 -19 22 20 9 -10 -20 -15
-7 -19 22 21 10 -10 -20 -15
-7 -19 22 22 10 -9 -20 -14
-7 -19 22 23 11 -9 -20 -14
-7 -19 22 24 11 -9 -20 -14
-6 -19 23 25 12 -8 -19 -13
-6 -19 22 25 12 -8 -19 -13
-6 -19 22 25 12 -8 -19 -14
-6 -19 21 25 12 -8 -19 -14
-6 -19 21 25 12 -8 -19 -14
-5 -19 20 24 11 -9 -19 -15
-4 -19 20 25 11 -9 -19 -15
-4 -18 20 26 11 -9 -18 -15
-3 -18 20 27 11 -9 -18 -15
-3 -18 20 27 11 -9 -18 -15
-2 -17 21 28 12 -10 -17 -15
0 -17 21 28 12 -10 -17 -15
0 -16 20 28 12 -9 -17 -14
1 -16 20 28 12 -9 -17 -14
1 -16 20 28 12 -9 -17 -14
2 -15 18 28 12 -8 -17 -13
2 -15 17 28 12 -8 -16 -12
3 -15 16 28 12 -8 -15 -11
3 -15 14 28 12 -8 -14 -10
3 -15 13 28 12 -8 -14 -9
5 -15 12 28 12 -7 -13 -8
6 -14 11 27 12 -7 -12 -7
7 -14 11 27 11 -6 -11 -7
8 -13 10 26 11 -6 -10 -6
9 -13 10 26 11 -6 -10 -6
10 -12 8 25 9 -5 -9 -5
10 -12 7 24 8 -5 -9 -5
10 -12 6 23 7 -5 -9 -4
10 -12 5 22 6 -5 -9 -4
10 -12 4 22 5 -5 -9 -4
11 -12 2 21 4 -6 -9 -2
12 -11 1 20 4 -6 -8 0
13 -10 0 19 3 -6 -7 2
14 -9 -2 18 3 -6 -6 4
14 -8 -3 18 3 -6 -5 5
15 -7 -4 17 2 -5 -4 6
16 -6 -4 16 1 -5 -4 7
17 -5 -5 15 0 -5 -4 7
18 -4 -5 14 -2 -5 -4 8
19 -4 -5 14 -2 -5 -4 8
20 -3 -6 12 -3 -4 -3 9
19 -3 -7 11 -5 -5 -3 9
19 -3 -8 10 -6 -6 -3 8
18 -3 -9 8 -7 -7 -3 8
18 -3 -10 7 -8 -7 -3 8
17 -3 -11 6 -9 -8 -4 7
17 -2 -11 6 -9 -8 -4 8
18 -2 -11 6 -9 -8 -3 9
18 0 -11 6 -9 -8 -3 10
18 0 -11 6 -9 -8 -3 10
19 1 -12 7 -10 -7 -2 11
20 3 -12 7 -10 -6 0 11
21 4 -11 7 -10 -5 0 12
22 5 -11 7 -10 -4 1 12
22 6 -11 7 -10 -4 1 12
23 7 -10 6 -9 -3 2 13
21 7 -9 6 -9 -3 2 13
20 7 -8 6 -9 -3 2 13
19 7 -7 6 -9 -3 2 13
18 7 -6 6 -9 -3 2 13
17 6 -5 7 -8 -2 3 13
17 6 -5 7 -8 -2 3 13
16 6 -4 7 -8 0 3 13
16 6 -4 7 -8 0 3 13
16 6 -4 7 -8 0 3 13
15 7 -3 6 -7 1 2 12
14 7 -2 6 -6 1 2 11
13 7 0 7 -5 1 2 11
12 7 1 7 -4 1 2 10
12 7 1 7 -3 1 2 10
11 6 2 8 -2 2 2 9
10 6 3 8 -2 2 1 8
10 5 4 7 -2 1 0 8
9 5 5 7 -2 1 -2 7
9 5 5 7 -2 1 -3 7
7 4 6 6 -3 0 -4 6
6 3 6 6 -3 -2 -4 5
5 2 7 5 -3 -2 -4 4
3 1 7 5 -3 -3 -4 3
2 0 7 5 -3 -3 -4 3
1 -2 8 4 -3 -4 -5 2
0 -3 8 3 -4 -5 -6 2
-2 -3 8 2 -4 -6 -7 1
-3 -4 8 1 -5 -7 -8 1
-3 -4 8 1 -5 -7 -9 1
-4 -5 7 0 -6 -8 -10 0
-4 -5 7 0 -6 -8 -10 -2
-4 -6 7 0 -6 -9 -11 -2
-4 -6 7 0 -6 -9 -11 -3
-4 -6 7 0 -6 -9 -11 -3
-5 -7 7 1 -7 -10 -12 -4
-5 -7 7 1 -7 -10 -12 -4
-5 -7 8 1 -7 -10 -12 -4
-5 -7 8 1 -7 -10 -12 -4
-5 -7 8 1 -7 -10 -12 -4
-6 -7 9 0 -7 -10 -12 -4
-5 -6 9 1 -6 -10 -12 -4
-4 -5 10 1 -6 -10 -12 -4
-3 -4 10 2 -5 -10 -12 -4
-3 -4 10 2 -5 -10 -12 -4
-2 -3 11 3 -4 -9 -12 -4
-2 -3 11 3 -4 -9 -12 -4
-2 -3 11 4 -4 -9 -12 -4
-2 -3 11 4 -4 -9 -12 -4
-2 -3 11 4 -4 -9 -12 -4
-2 -4 10 5 -5 -9 -11 -3
-2 -4 10 6 -5 -9 -11 -3
-3 -4 10 6 -4 -9 -11 -4
-3 -4 10 7 -4 -9 -11 -4
-3 -4 10 7 -4 -9 -11 -4
-4 -4 9 8 -3 -8 -11 -5
-4 -4 9 8 -3 -8 -11 -5
-4 -4 9 8 -2 -8 -11 -5
-4 -4 9 8 -2 -8 -11 -5
-4 -4 9 8 -2 -8 -11 -5
-4 -4 10 8 0 -8 -11 -5
-5 -4 10 9 0 -7 -11 -5
-5 -4 10 9 1 -7 -11 -5
-6 -4 10 10 1 -6 -11 -5
-6 -4 10 10 1 -6 -11 -5
-6 -4 11 11 2 -5 -10 -5
-5 -3 11 12 3 -4 -10 -5
-4 -3 12 12 3 -4 -9 -4
-2 -2 12 13 4 -3 -9 -4
0 -2 12 13 4 -3 -9 -4
0 0 13 14 5 -2 -8 -3
-2 0 13 14 5 -2 -8 -3
-3 0 12 13 5 -2 -8 -3
-5 0 12 13 5 -2 -8 -3
-6 0 12 13 5 -2 -8 -3
-7 -2 11 12 5 -3 -8 -3
-7 -2 11 12 5 -3 -8 -3
-7 -2 11 11 4 -3 -8 -3
-7 -2 11 11 4 -3 -8 -3
-7 -2 11 11 4 -3 -8 -3
-7 -3 10 10 3 -3 -8 -3
-7 -3 10 10 3 -3 -8 -3
-7 -3 10 10 4 -2 -8 -3
-7 -3 10 10 4 -2 -8 -3
-7 -3 10 10 4 -2 -8 -3
-6 -2 10 11 5 0 -7 -2
-5 -2 10 11 5 0 -7 -2
-4 0 10 11 5 0 -6 -2
-4 0 10 11 5 0 -6 -2
-3 0 10 11 5 0 -6 -2
-2 1 10 10 5 0 -5 -2
-2 2 10 10 5 0 -5 -2
-2 2 9 10 4 0 -5 0
-2 3 9 10 4 0 -5 0
-2 3 9 10 4 0 -5 0
0 4 8 9 3 0 -5 1
0 4 7 9 2 0 -5 1
0 4 7 8 2 0 -5 0
0 4 6 8 1 0 -5 0
0 4 6 8 1 0 -5 0
0 3 5 7 0 1 -5 -2
0 2 5 7 0 0 -5 -2
-2 2 5 6 0 0 -6 -2
-2 1 5 6 0 -2 -6 -2
-2 1 5 6 0 -2 -6 -2
-3 0 6 5 0 -3 -7 -2
-3 0 5 4 -2 -3 -7 -2
-3 1 5 4 -2 -3 -6 -2
-3 1 4 3 -3 -3 -6 -2
-3 1 4 3 -3 -3 -6 -2
-3 2 3 2 -4 -3 -5 0
-3 1 3 2 -4 -3 -5 0
-4 1 2 2 -4 -3 -5 -2
-4 0 2 2 -4 -3 -5 -2
-4 0 2 2 -4 -3 -5 -2
-5 -2 1 2 -5 -4 -6 -3
-4 0 1 2 -5 -4 -6 -3
-3 1 1 1 -5 -4 -6 -3
-2 1 1 1 -5 -4 -6 -3
0 2 1 1 -5 -4 -6 -3
1 3 0 0 -6 -5 -7 -2
0 2 0 0 -6 -5 -7 -2
0 2 0 0 -6 -5 -7 -2
-2 1 0 0 -6 -5 -7 -2
-2 1 0 0 -6 -5 -7 -2
-3 0 -2 0 -7 -6 -7 -3
-3 0 -2 -2 -7 -6 -7 -3
-3 0 -3 -2 -8 -6 -7 -3
-3 0 -3 -3 -8 -6 -7 -3
-3 0 -3 -3 -8 -6 -7 -3
-4 -2 -4 -4 -9 -7 -8 -3
-4 -2 -4 -4 -9 -7 -8 -3
-3 0 -4 -4 -9 -7 -8 -3
-3 0 -4 -4 -9 -7 -8 -3
-3 0 -4 -4 -9 -7 -8 -3
-2 1 -3 -4 -8 -6 -7 -3
-2 0 -3 -4 -8 -6 -7 -3
-3 0 -3 -4 -8 -6 -7 -3
-3 -2 -3 -4 -8 -6 -7 -3
-3 -2 -3 -4 -8 -6 -7 -3
-4 -3 -3 -4 -8 -6 -7 -4
-3 -2 -3 -4 -8 -6 -7 -4
-3 -2 -4 -4 -8 -6 -7 -4
-2 0 -4 -4 -8 -6 -7 -4
-2 0 -4 -4 -8 -6 -7 -4
0 1 -5 -4 -9 -6 -7 -4
0 1 -5 -4 -9 -6 -7 -4
0 1 -5 -4 -10 -6 -7 -4
0 1 -5 -4 -10 -6 -7 -4
0 1 -5 -4 -10 -6 -7 -4
-2 1 -5 -5 -11 -6 -7 -5
-2 1 -4 -5 -11 -6 -7 -5
-2 1 -4 -5 -11 -6 -7 -5
-2 1 -3 -5 -11 -6 -7 -5
-2 1 -3 -5 -11 -6 -7 -5
-3 0 -2 -5 -10 -6 -7 -4
-3 0 -2 -5 -9 -5 -6 -4
-2 0 0 -4 -9 -5 -6 -3
-2 0 0 -4 -8 -4 -5 -3
-2 0 0 -4 -8 -4 -5 -3
0 2 2 -2 -7 -3 -4 -2
0 4 4 0 -5 -2 -3 -2
1 5 5 2 -4 0 -3 -2
1 7 7 3 -3 0 -2 -2
1 9 9 5 -2 1 -2 -2
2 10 10 6 0 2 0 0
2 12 10 6 0 3 1 1
2 13 10 6 0 4 1 1
2 14 10 6 0 4 2 2
2 15 10 6 0 5 2 2
3 16 11 7 1 6 3 3
3 17 10 7 1 6 4 4
3 17 9 7 1 6 4 5
3 18 8 7 1 6 5 5
3 18 7 7 1 6 5 6
4 19 5 7 2 7 6 7
5 19 3 6 2 7 6 7
6 20 2 5 1 7 6 7
6 20 0 5 1 7 6 7
7 20 -3 4 1 7 6 7
8 21 -4 3 0 6 6 7
8 22 -4 3 0 7 7 7
8 23 -4 3 0 8 8 7
8 23 -4 3 0 8 8 7
8 24 -4 3 0 9 9 7
7 25 -5 4 1 10 10 8
7 23 -6 3 0 10 9 8
7 22 -7 2 0 9 8 8
7 21 -7 2 -2 9 7 8
7 20 -8 1 -2 9 6 8
7 18 -9 0 -3 8 5 7
8 16 -10 -2 -5 6 5 6
8 15 -10 -3 -6 5 4 5
9 13 -11 -3 -7 4 4 5
9 11 -11 -4 -8 3 4 4
10 10 -12 -5 -9 2 3 3
9 10 -12 -5 -9 2 3 3
7 9 -13 -6 -10 1 2 2
6 8 -13 -7 -11 1 2 2
5 8 -13 -7 -11 1 2 2
4 7 -14 -8 -12 0 1 1
3 7 -14 -8 -12 0 1 0
2 6 -13 -8 -12 -2 0 -2
2 5 -12 -8 -12 -2 -2 -2
1 5 -12 -8 -12 -2 -2 -3
0 4 -11 -9 -13 -3 -3 -4
-2 3 -11 -9 -14 -4 -4 -4
-3 2 -11 -10 -15 -5 -5 -5
-3 1 -11 -11 -15 -5 -5 -6
-4 0 -11 -11 -16 -6 -6 -6
-5 -3 -10 -12 -17 -7 -7 -7
-5 -4 -10 -12 -17 -7 -7 -7
-6 -6 -10 -13 -18 -7 -8 -8
-7 -7 -10 -13 -18 -7 -8 -9
-7 -9 -10 -13 -18 -7 -8 -9
-8 -10 -11 -14 -19 -8 -9 -10
-8 -10 -11 -14 -19 -8 -9 -10
-8 -10 -11 -14 -18 -8 -9 -10
-8 -10 -11 -14 -18 -8 -9 -10
-8 -10 -11 -14 -18 -8 -9 -10
-9 -9 -11 -15 -17 -9 -9 -10
-9 -9 -11 -15 -17 -9 -9 -10
-8 -9 -11 -14 -17 -9 -9 -10
-8 -9 -11 -14 -17 -9 -9 -10
-8 -9 -11 -14 -17 -9 -9 -10
-7 -9 -11 -13 -18 -8 -8 -10
-7 -9 -11 -13 -18 -8 -8 -10
-7 -9 -11 -13 -19 -9 -9 -10
-7 -9 -11 -13 -19 -9 -9 -10
-7 -9 -11 -13 -19 -9 -9 -10
-8 -10 -12 -14 -20 -10 -10 -11
-8 -10 -12 -14 -20 -10 -10 -11
-8 -9 -12 -14 -19 -9 -9 -11
-8 -9 -12 -14 -19 -9 -8 -11
-8 -9 -12 -14 -19 -9 -8 -11
-8 -8 -13 -14 -18 -8 -7 -12
-8 -8 -13 -14 -18 -8 -7 -11
-8 -8 -12 -13 -17 -7 -6 -10
-8 -8 -12 -13 -17 -7 -6 -10
-8 -8 -12 -13 -17 -7 -6 -9
-8 -9 -5 -4 -10 -4 -5 -8
-9 -8 6 11 1 0 -5 -10
-11 -7 17 24 12 3 -4 -11
-12 -7 27 38 22 6 -4 -13
-13 -6 38 52 33 9 -4 -14
-10 3 44 67 49 22 8 -9
-2 14 47 84 67 43 24 3
7 26 50 99 86 62 42 13
15 38 53 115 104 81 59 24
23 50 55 132 122 101 75 34
37 74 39 122 130 133 110 62
54 106 11 98 131 173 154 100
71 138 -18 73 133 212 199 138
89 170 -48 48 134 251 243 176
105 201 -76 23 135 290 288 214
109 211 -96 -14 109 281 295 226
102 204 -109 -59 66 242 275 220
96 198 -123 -104 22 202 256 215
90 192 -137 -149 -21 162 237 209
84 186 -150 -194 -65 122 218 203
71 161 -160 -221 -102 76 174 176
54 126 -166 -237 -135 26 115 135
37 90 -174 -253 -168 -23 57 94
21 54 -181 -269 -199 -73 -3 52
5 18 -188 -284 -232 -122 -61 11
-3 1 -182 -272 -231 -136 -83 -9
-4 -6 -168 -240 -205 -122 -80 -14
-5 -11 -152 -208 -180 -109 -78 -20
-5 -17 -137 -176 -155 -96 -75 -25
-6 -22 -121 -144 -130 -83 -73 -30
-8 -25 -106 -121 -112 -73 -67 -33
-10 -25 -90 -105 -98 -66 -60 -33
-12 -25 -73 -89 -85 -59 -53 -32
-14 -25 -58 -72 -71 -52 -46 -31
-17 -25 -41 -56 -58 -44 -38 -31
-18 -26 -31 -45 -48 -38 -34 -29
-18 -26 -25 -36 -40 -33 -30 -27
-17 -25 -19 -29 -33 -29 -27 -25
-17 -24 -13 -21 -26 -25 -24 -23
-17 -24 -7 -14 -19 -20 -21 -21
-16 -23 -3 -9 -15 -18 -19 -20
-15 -22 -2 -6 -13 -16 -18 -20
-13 -21 1 -4 -11 -15 -17 -20
-12 -20 3 0 -9 -13 -16 -20
-11 -19 5 2 -6 -12 -15 -20
-10 -18 6 4 -5 -11 -14 -19
-10 -18 6 4 -5 -11 -14 -19
-10 -18 6 4 -5 -10 -13 -18
-10 -18 6 4 -5 -9 -13 -18
-10 -18 6 4 -5 -9 -13 -18
-10 -17 7 5 -4 -8 -12 -17
-10 -17 7 5 -4 -8 -12 -17
-10 -17 8 6 -3 -8 -12 -17
-10 -17 9 7 -3 -8 -12 -17
-10 -17 9 7 -3 -8 -12 -17
-9 -18 10 8 -2 -9 -12 -16
-9 -18 10 8 -2 -9 -12 -16
-10 -19 10 8 -2 -9 -12 -17
-11 -19 10 8 -2 -9 -12 -17
-11 -19 10 8 -2 -9 -12 -17
-12 -20 9 8 0 -8 -13 -18
-12 -20 10 8 0 -8 -13 -18
-12 -20 11 9 0 -9 -13 -19
-12 -20 11 9 0 -9 -13 -19
-12 -20 12 9 0 -9 -13 -19
-12 -20 13 10 0 -10 -13 -20
-12 -20 13 10 1 -9 -13 -20
-11 -20 13 11 2 -8 -12 -19
-11 -20 13 11 2 -8 -11 -18
-11 -20 13 11 3 -7 -11 -18
-10 -20 13 12 4 -6 -10 -17
-10 -20 13 12 4 -6 -10 -17
-10 -19 13 13 4 -7 -11 -17
-10 -19 13 13 4 -8 -12 -17
-10 -19 13 13 4 -8 -12 -17
-10 -18 14 14 3 -9 -13 -18
-10 -18 14 14 3 -9 -13 -18
-10 -18 15 14 4 -8 -13 -18
-10 -18 16 14 5 -7 -13 -18
-10 -18 16 14 5 -7 -13 -18
-9 -17 17 15 6 -6 -12 -18
-9 -17 17 15 6 -6 -12 -18
-9 -18 17 15 6 -6 -12 -18
-9 -19 17 15 6 -6 -12 -18
-9 -19 17 15 6 -6 -12 -18
-10 -20 17 15 5 -7 -12 -18
-10 -20 17 15 5 -7 -12 -18
-10 -20 17 15 6 -7 -12 -18
-10 -20 17 15 6 -7 -12 -18
-10 -20 17 15 6 -7 -12 -18
-11 -20 16 16 7 -8 -13 -18
-11 -20 16 17 8 -8 -13 -18
-11 -20 17 18 9 -8 -12 -18
-11 -20 17 18 9 -8 -12 -18
-11 -20 17 19 10 -8 -12 -18
-10 -20 18 20 11 -7 -11 -18
-9 -20 18 20 11 -7 -11 -18
-8 -20 19 21 12 -7 -11 -18
-8 -20 19 22 12 -7 -11 -18
-7 -20 19 22 12 -7 -11 -18
-6 -19 20 23 13 -6 -10 -17
-6 -19 20 23 13 -6 -10 -17
-6 -19 20 23 14 -6 -10 -18
-6 -19 20 23 14 -6 -10 -19
-6 -19 20 23 14 -6 -10 -19
-6 -19 20 24 15 -5 -10 -20
-6 -19 20 24 15 -5 -10 -20
-7 -20 20 24 16 -5 -10 -20
-8 -21 20 24 16 -5 -10 -20
-8 -21 20 24 16 -5 -10 -20
-9 -22 19 25 17 -5 -11 -19
-8 -22 19 26 17 -5 -11 -19
-7 -22 19 27 18 -6 -11 -19
-7 -22 19 27 18 -6 -11 -19
-6 -22 19 28 18 -6 -11 -19
-5 -21 18 29 19 -7 -11 -20
-4 -20 18 30 19 -6 -11 -19
-3 -18 18 31 20 -4 -10 -18
-2 -17 18 31 21 -3 -9 -17
0 -16 18 32 21 -2 -9 -16
1 -15 18 33 22 0 -8 -15
1 -16 17 33 22 0 -8 -15
1 -17 16 33 22 0 -7 -15
1 -18 16 33 22 0 -7 -15
1 -19 15 33 22 0 -7 -15
1 -20 14 33 21 0 -6 -15
1 -20 14 33 21 0 -6 -14
2 -19 13 33 22 1 -5 -13
2 -18 13 33 22 2 -4 -12
2 -18 13 33 22 2 -4 -11
3 -17 12 33 23 3 -3 -10
3 -17 11 33 23 3 -3 -10
4 -17 10 32 22 3 -3 -10
5 -17 9 32 21 3 -3 -10
5 -17 8 32 21 3 -3 -10
6 -16 7 31 20 3 -2 -11
7 -14 6 30 20 3 0 -10
8 -13 5 29 20 4 1 -9
9 -12 4 29 20 4 2 -8
10 -10 3 28 20 4 3 -7
11 -9 2 27 19 5 4 -6
11 -9 1 27 18 5 4 -5
12 -8 0 26 16 5 4 -4
13 -8 0 25 15 5 4 -3
13 -8 -2 25 14 5 4 -2
14 -7 -3 24 13 4 5 0
14 -7 -4 23 13 4 6 1
15 -6 -5 22 12 4 7 2
15 -6 -6 21 12 4 7 2
15 -6 -7 20 12 4 8 3
16 -5 -8 19 11 5 9 4
16 -5 -8 19 11 5 9 4
16 -4 -8 18 10 5 10 5
16 -3 -8 17 10 5 10 5
16 -3 -8 17 10 5 10 5
17 -2 -9 16 9 6 11 6
17 -2 -9 16 9 6 11 6
17 -2 -9 15 9 6 12 7
17 -2 -9 15 9 6 12 8
17 -2 -9 15 9 6 12 8
17 0 -9 14 8 6 13 9
17 0 -9 14 8 6 13 9
17 0 -8 14 8 6 13 9
17 1 -7 14 9 6 13 9
17 1 -7 14 9 6 13 9
17 2 -6 15 10 7 13 10
17 2 -6 15 10 7 13 10
17 3 -6 15 10 7 13 9
16 4 -5 14 10 7 13 8
16 4 -5 14 10 7 13 8
15 5 -4 13 10 8 14 7
15 5 -2 13 11 8 14 7
15 5 0 13 11 8 14 7
14 6 2 14 12 9 13 7
14 6 4 14 13 9 13 7
13 7 5 15 14 10 12 8
11 6 5 14 14 10 12 8
9 5 5 14 14 10 12 8
7 3 5 13 14 9 11 7
5 2 5 12 14 9 11 7
3 1 5 11 14 8 10 6
3 1 6 11 14 8 10 5
3 1 7 11 14 8 10 4
3 1 9 10 14 8 9 3
3 1 10 10 14 8 9 2
2 0 11 9 13 7 8 1
0 -2 11 9 13 6 7 0
-2 -2 11 8 12 6 6 0
-3 -3 11 7 11 5 4 -2
-5 -4 11 7 11 4 3 -3
-6 -5 10 6 10 3 2 -4
-6 -5 10 6 10 3 2 -4
-6 -5 10 6 10 3 2 -5
-7 -6 11 6 10 3 1 -6
-7 -6 11 6 10 3 1 -6
-8 -7 12 5 9 2 0 -7
-8 -7 12 5 9 2 0 -7
-8 -7 12 5 9 2 0 -7
-7 -7 12 5 9 1 0 -6
-7 -7 12 5 9 1 0 -6
-6 -7 12 5 9 0 -2 -5
-6 -7 12 5 9 0 -2 -5
-6 -7 13 6 9 0 -2 -5
-6 -7 14 7 10 0 -2 -5
-6 -7 14 7 10 0 -2 -5
-7 -8 15 8 11 0 0 -4
-7 -8 15 8 11 0 0 -4
-7 -8 15 8 11 0 0 -4
-7 -8 15 8 11 0 -2 -5
-7 -8 15 8 11 0 -2 -5
-7 -7 14 7 12 0 -3 -6
-7 -7 14 7 12 0 -3 -6
-7 -8 14 8 12 0 -3 -6
-7 -9 15 9 12 0 -3 -7
-7 -9 15 9 12 0 -3 -7
-8 -10 16 10 11 -2 -3 -8
-8 -10 16 10 11 -2 -3 -8
-8 -10 16 10 11 -2 -3 -8
-8 -10 16 10 11 0 -3 -8
-8 -10 16 10 11 0 -3 -8
-9 -9 15 10 12 1 -3 -8
-9 -9 15 10 12 1 -3 -8
-9 -9 15 11 13 1 -3 -8
-9 -9 16 12 14 1 -3 -8
-9 -9 16 12 14 1 -3 -8
-9 -9 17 13 15 1 -3 -7
-9 -9 17 13 15 1 -3 -7
-9 -8 17 13 15 1 -2 -7
-9 -7 17 13 15 1 0 -6
-9 -7 17 13 15 1 0 -6
-9 -6 16 14 15 2 1 -5
-9 -6 16 14 15 2 1 -5
-9 -6 16 14 15 2 1 -5
-9 -6 16 14 16 2 0 -5
-9 -6 16 14 16 2 0 -5
-9 -7 17 14 17 2 -2 -6
-8 -6 17 14 17 2 -2 -6
-7 -5 18 15 17 3 0 -6
-5 -4 19 16 18 4 1 -5
-4 -3 19 16 18 4 1 -5
-3 -2 20 17 19 5 2 -4
-3 -2 20 17 19 5 2 -4
-3 -2 20 17 19 5 2 -4
-4 -2 20 17 19 6 3 -3
-4 -2 20 17 19 6 3 -3
-5 -2 19 17 20 7 4 -2
-5 -2 18 17 20 7 4 -2
-5 -2 18 16 20 7 4 -2
-6 -2 17 15 19 7 4 -2
-6 -2 16 15 19 7 4 -2
-7 -3 15 14 18 7 3 -3
-7 -3 15 14 18 7 3 -3
-7 -3 15 14 18 7 3 -3
-7 -3 15 14 18 7 3 -3
-7 -3 15 14 18 7 3 -3
-7 -4 15 13 17 6 4 -2
-7 -4 15 13 17 6 4 -2
-7 -4 15 12 17 6 4 -2
-8 -4 14 11 16 6 4 -3
-8 -4 14 11 16 6 4 -3
-9 -4 13 10 15 5 3 -4
-8 -3 13 10 15 5 3 -4
-8 -3 13 10 15 5 3 -4
-7 -2 13 10 14 5 3 -4
-6 0 13 10 14 5 3 -4
-5 1 13 10 13 5 3 -5
-5 1 13 9 13 5 3 -4
-5 1 13 9 13 5 3 -4
-5 1 12 8 12 5 3 -3
-5 1 12 7 12 5 3 -2
-6 1 11 6 11 5 3 0
-6 1 11 6 11 5 3 0
-6 1 11 6 11 5 3 0
-6 0 11 6 10 5 3 0
-6 0 11 6 10 5 3 0
-7 -2 10 5 9 4 2 -2
-7 -2 10 5 9 4 2 -2
-7 -2 10 5 9 4 2 -2
-7 -2 9 4 9 4 2 -2
-7 -2 9 4 9 4 2 -2
-6 -3 8 3 9 3 1 -2
-6 -3 8 3 9 3 1 -2
-6 -3 8 3 8 2 1 -2
-6 -3 8 3 7 1 1 -3
-6 -3 8 3 7 1 1 -3
-6 -2 7 2 6 0 0 -4
-6 -2 7 2 6 0 0 -4
-6 -2 7 2 6 0 0 -4
-7 -3 6 1 6 0 0 -4
-7 -3 6 1 6 0 0 -4
-8 -4 5 0 5 0 0 -3
-8 -4 5 0 5 0 0 -3
-8 -4 5 0 5 0 0 -3
-8 -4 5 0 5 -2 0 -3
-8 -4 5 0 5 -2 0 -3
-7 -3 4 0 4 -3 0 -4
-7 -3 4 0 4 -3 0 -4
-7 -2 4 0 4 -3 0 -4
-6 0 4 -2 4 -2 0 -4
-6 0 4 -2 4 -2 0 -4
-5 1 4 -3 5 0 0 -4
-5 1 4 -3 5 0 0 -4
-5 1 4 -3 5 0 0 -4
-5 1 4 -3 4 0 0 -3
-5 1 4 -3 4 0 0 -3
-6 0 4 -3 3 -2 -2 -2
-6 0 4 -3 3 -2 -2 -2
-6 -2 4 -3 3 -2 -2 -2
-6 -3 4 -3 3 -2 -2 -2
-6 -3 4 -3 3 -2 -2 -2
-7 -4 3 -4 2 -3 -2 -2
-7 -4 3 -4 2 -3 -2 -2
-7 -3 3 -4 2 -3 -2 -2
-7 -2 3 -4 1 -3 -2 -3
-7 -2 3 -4 1 -3 -2 -3
-7 0 3 -4 0 -4 -3 -4
-6 0 3 -4 0 -4 -3 -4
-6 0 3 -4 0 -4 -3 -4
-5 0 4 -4 1 -4 -3 -4
-4 0 4 -4 1 -4 -3 -4
-3 -2 5 -4 2 -3 -3 -3
-3 1 7 -2 3 0 -2 -2
-3 3 8 0 4 1 -2 0
-3 5 10 2 6 3 0 1
-3 7 11 3 7 4 1 2
-3 9 13 5 8 6 2 3
-3 10 13 5 8 6 3 4
-3 12 13 5 9 6 4 4
-3 13 13 6 10 6 5 5
-3 15 13 6 10 6 6 6
-2 16 14 7 11 7 7 7
-2 16 14 7 11 7 7 7
-2 16 13 7 10 7 7 7
-2 16 12 6 9 7 7 7
-2 16 12 6 9 7 7 7
-3 16 11 5 8 7 7 7
-2 17 9 4 8 7 7 7
-2 18 6 3 7 7 7 7
0 20 4 2 6 7 7 7
1 21 2 1 6 7 7 7
2 22 0 0 5 7 7 7
2 22 0 1 5 8 8 8
2 23 0 1 6 9 8 9
3 24 0 2 7 10 9 10
3 24 0 3 7 11 10 11
4 25 1 4 8 12 11 12
4 24 0 4 8 11 11 12
4 23 -2 3 7 11 10 11
4 21 -3 2 6 10 9 10
4 20 -4 2 6 9 9 10
4 19 -5 1 5 8 8 9
4 16 -6 -2 3 6 6 8
4 14 -7 -4 0 4 5 7
4 11 -8 -6 -3 2 3 6
4 9 -9 -8 -5 0 2 5
3 7 -10 -10 -7 -3 0 4
2 7 -10 -10 -7 -3 0 4
2 7 -10 -10 -7 -3 0 4
1 7 -10 -10 -7 -3 0 4
0 7 -10 -10 -7 -3 0 4
-2 6 -9 -11 -6 -2 0 4
-3 5 -9 -11 -6 -2 0 4
-4 4 -9 -11 -6 -2 -2 4
-5 3 -9 -11 -7 -3 -3 3
-6 2 -9 -11 -7 -3 -3 3
-7 1 -8 -11 -8 -4 -4 2
-7 1 -8 -12 -9 -5 -5 1
-8 0 -8 -12 -10 -6 -6 -2
-9 -2 -8 -13 -12 -8 -8 -3
-9 -2 -8 -14 -13 -9 -9 -5
-10 -3 -9 -15 -14 -10 -10 -6
-10 -3 -9 -15 -14 -10 -10 -6
-10 -4 -9 -15 -14 -10 -10 -6
-10 -4 -9 -15 -14 -10 -10 -6
-10 -5 -9 -15 -14 -10 -10 -6
-11 -6 -10 -16 -15 -11 -11 -6
-11 -6 -10 -16 -15 -11 -11 -6
-11 -6 -10 -16 -15 -11 -11 -6
-10 -7 -10 -17 -15 -11 -11 -6
-10 -7 -10 -17 -15 -11 -11 -6
-9 -8 -10 -18 -16 -12 -11 -7
-9 -8 -10 -18 -16 -12 -11 -7
-9 -8 -10 -18 -16 -12 -11 -7
-9 -8 -11 -18 -17 -12 -11 -7
-9 -8 -11 -18 -17 -12 -11 -7
-10 -9 -12 -18 -18 -13 -12 -7
-10 -9 -12 -18 -18 -13 -12 -7
-10 -9 -12 -18 -18 -13 -12 -7
-10 -9 -12 -18 -18 -13 -12 -7
-10 -9 -12 -18 -18 -13 -12 -7
-10 -8 -12 -19 -18 -13 -11 -6
-10 -8 -12 -19 -18 -13 -11 -6
-10 -8 -12 -19 -18 -13 -11 -6
-10 -9 -12 -19 -18 -13 -11 -6
-10 -9 -12 -19 -18 -13 -11 -6
-11 -10 -12 -18 -18 -13 -11 -7
-11 -10 -12 -18 -18 -13 -11 -7
-11 -10 -12 -18 -18 -13 -11 -7
-11 -10 -12 -18 -18 -13 -11 -7
-11 -10 -12 -18 -18 -13 -11 -7
-12 -11 -10 -16 -16 -13 -12 -8
-12 -8 1 -4 -6 -9 -11 -9
-12 -6 11 10 5 -6 -11 -9
-13 -4 20 22 14 -3 -10 -10
-13 0 30 34 24 1 -9 -11
-13 4 38 49 36 9 -4 -10
-7 13 44 65 55 26 11 0
-2 22 49 82 73 44 25 9
5 31 53 100 92 61 39 18
11 40 58 117 110 78 55 26
19 56 55 123 125 103 78 44
36 87 27 103 128 144 122 79
53 116 1 82 131 185 167 115
69 146 -27 62 135 226 212 152
86 177 -54 42 138 267 256 188
97 198 -78 13 129 289 284 214
94 196 -96 -35 86 269 270 213
90 194 -113 -83 44 247 257 212
86 192 -130 -132 1 227 243 211
81 190 -147 -180 -43 205 230 210
74 178 -162 -220 -83 171 202 197
58 142 -170 -237 -122 101 139 155
40 106 -178 -256 -160 31 76 114
24 70 -186 -274 -198 -38 14 73
8 34 -193 -293 -236 -108 -49 31
-5 8 -195 -298 -257 -155 -93 1
-6 2 -181 -266 -231 -142 -89 -7
-6 -6 -166 -235 -204 -128 -83 -14
-7 -12 -153 -204 -179 -114 -78 -20
-8 -18 -139 -173 -153 -101 -74 -27
-9 -23 -123 -146 -130 -89 -69 -32
-11 -23 -106 -128 -115 -80 -64 -31
-13 -23 -90 -109 -101 -72 -59 -30
-15 -23 -72 -92 -87 -64 -53 -29
-17 -23 -55 -73 -72 -56 -48 -28
-19 -23 -41 -58 -59 -49 -43 -27
-18 -22 -34 -50 -52 -44 -39 -25
-18 -20 -27 -41 -44 -38 -35 -23
-17 -19 -20 -33 -35 -32 -31 -21
-16 -18 -13 -24 -27 -27 -27 -19
-15 -16 -8 -18 -21 -23 -24 -17
-14 -16 -6 -15 -19 -22 -23 -17
-14 -15 -4 -12 -17 -21 -22 -17
-13 -15 -2 -9 -16 -20 -21 -17
-12 -14 1 -7 -14 -19 -20 -17
-11 -13 3 -4 -12 -18 -19 -17
-11 -13 3 -4 -11 -18 -19 -17
-12 -13 3 -4 -10 -18 -19 -17
-12 -14 3 -4 -9 -18 -19 -17
-13 -14 3 -4 -8 -18 -19 -17
-14 -15 4 -3 -7 -17 -18 -17
-14 -15 4 -2 -7 -17 -18 -17
-13 -15 4 -2 -7 -17 -18 -17
-13 -15 4 0 -7 -17 -18 -16
-12 -15 4 1 -7 -17 -18 -16
-11 -16 5 2 -8 -16 -18 -15
-11 -16 5 2 -8 -16 -18 -15
-11 -16 5 2 -7 -16 -18 -15
-11 -16 5 2 -7 -15 -18 -16
-11 -16 5 2 -6 -15 -18 -16
-12 -15 6 2 -5 -14 -18 -17
-12 -15 6 2 -5 -14 -18 -17
-12 -16 7 2 -5 -14 -18 -17
-12 -16 7 2 -6 -14 -18 -17
-12 -17 8 2 -6 -14 -18 -17
-13 -18 9 3 -7 -14 -17 -16
-13 -18 9 3 -7 -14 -17 -16
-13 -18 9 3 -6 -14 -17 -16
-13 -17 9 4 -6 -14 -17 -16
-13 -17 9 4 -5 -14 -17 -16
-12 -16 10 5 -4 -13 -16 -16
-12 -16 10 5 -4 -13 -16 -16
-12 -16 11 5 -4 -13 -16 -16
-12 -16 11 5 -4 -13 -16 -16
-12 -16 12 5 -4 -13 -16 -16
-12 -17 13 6 -5 -14 -17 -17
-12 -17 13 6 -5 -14 -17 -17
-12 -17 13 6 -4 -13 -17 -17
-12 -16 13 7 -3 -13 -16 -16
-12 -16 13 7 -2 -12 -16 -16
-11 -15 14 8 0 -11 -15 -15
-11 -15 14 8 0 -11 -15 -15
-11 -15 14 8 0 -11 -15 -15
-11 -16 14 9 0 -11 -15 -15
-11 -16 14 9 0 -11 -15 -15
-10 -17 14 10 -2 -12 -15 -14
-10 -17 14 10 -2 -12 -15 -14
-10 -17 14 10 0 -12 -15 -14
-10 -17 14 10 0 -12 -15 -14
-10 -17 14 10 1 -12 -15 -14
-11 -18 14 10 2 -12 -16 -15
-11 -18 14 10 2 -12 -16 -15
-11 -18 14 11 2 -12 -16 -15
-11 -18 15 11 2 -12 -16 -15
-11 -18 15 12 2 -12 -16 -15
-10 -19 16 13 3 -11 -16 -15
-10 -19 16 13 3 -11 -16 -15
-10 -19 16 13 3 -11 -16 -15
-10 -19 15 13 3 -11 -16 -16
-10 -19 15 13 3 -11 -16 -16
-10 -20 14 13 4 -11 -16 -17
-10 -20 14 13 4 -11 -16 -17
-10 -20 15 14 4 -11 -16 -17
-10 -20 15 15 5 -11 -16 -17
-10 -20 16 16 5 -11 -16 -17
-10 -21 17 17 6 -12 -16 -18
-10 -21 17 17 6 -11 -16 -18
-10 -21 17 17 6 -10 -15 -18
-10 -21 17 18 6 -9 -14 -18
-10 -21 17 18 6 -8 -13 -18
-10 -21 17 19 7 -7 -12 -17
-10 -21 17 19 7 -7 -12 -17
-9 -21 17 19 8 -8 -12 -16
-8 -20 17 20 8 -8 -12 -16
-7 -20 17 20 9 -9 -12 -15
-6 -19 16 21 10 -10 -13 -14
-5 -19 16 22 10 -9 -13 -14
-4 -18 16 23 11 -8 -13 -14
-3 -17 16 24 11 -7 -12 -13
0 -16 16 25 12 -6 -12 -13
1 -15 16 26 13 -5 -11 -12
1 -15 16 26 13 -5 -11 -12
1 -15 15 26 13 -5 -11 -12
1 -15 15 26 13 -5 -11 -12
1 -15 14 26 13 -5 -11 -12
2 -14 13 26 12 -5 -10 -11
2 -14 12 26 12 -5 -10 -11
2 -14 10 25 12 -5 -9 -11
2 -14 8 25 11 -5 -9 -11
2 -14 7 24 11 -5 -8 -11
1 -15 5 23 10 -5 -7 -11
2 -15 5 23 10 -5 -7 -10
3 -14 5 23 9 -5 -6 -9
4 -13 4 23 9 -4 -5 -8
6 -12 4 23 8 -4 -4 -7
7 -11 3 22 7 -3 -3 -6
7 -11 2 22 7 -3 -3 -6
8 -11 0 21 7 -3 -2 -5
8 -10 -2 21 7 -3 -2 -4
9 -10 -3 20 7 -3 0 -3
10 -9 -5 19 6 -2 1 -2
10 -9 -5 19 5 -2 1 -2
10 -9 -6 18 3 -2 1 -2
10 -8 -7 17 1 -2 1 -2
10 -8 -8 16 0 -2 1 -2
11 -7 -9 15 -3 -2 2 0
11 -6 -9 15 -3 -2 2 1
12 -5 -10 14 -3 -2 3 2
13 -4 -10 13 -3 -2 4 3
14 -3 -11 12 -3 -2 5 4
15 -2 -12 11 -3 -2 6 5
15 -2 -12 11 -4 -2 6 5
15 -2 -13 10 -5 -2 6 6
16 0 -13 10 -6 -2 6 6
16 0 -14 9 -7 -2 6 7
17 1 -15 8 -8 -2 6 8
17 1 -15 8 -8 -2 6 8
17 2 -15 7 -8 -2 6 8
17 3 -16 6 -8 -2 7 8
17 4 -16 5 -8 -2 7 8
16 5 -17 4 -8 0 8 8
16 5 -16 4 -8 0 8 8
16 5 -15 4 -8 0 8 9
17 6 -14 4 -8 0 8 10
17 6 -13 4 -8 0 8 11
18 7 -12 4 -7 1 9 12
18 7 -12 4 -7 1 9 12
17 7 -11 4 -7 1 9 12
16 7 -11 4 -6 1 9 11
15 7 -10 4 -6 1 9 11
14 7 -9 5 -5 2 10 10
14 7 -9 5 -5 2 10 10
14 7 -9 5 -5 2 10 10
13 7 -8 4 -4 2 10 9
13 7 -8 4 -4 2 10 9
12 7 -7 3 -3 3 10 8
11 7 -6 3 -3 3 10 8
10 7 -5 3 -3 3 9 8
9 7 -4 3 -3 3 9 7
8 7 -3 3 -3 3 8 7
6 7 -2 4 -2 3 7 6
5 7 -2 4 -2 3 7 5
4 7 0 3 -2 3 6 4
3 6 0 3 -2 2 5 3
2 6 1 2 -2 2 4 2
0 5 2 1 -3 1 3 1
0 5 2 1 -3 1 3 1
0 4 2 1 -3 1 2 0
-2 4 2 0 -3 0 2 -2
-2 3 2 0 -3 0 1 -3
-3 2 2 -2 -4 -2 0 -4
-3 2 2 -2 -4 -2 0 -4
-3 2 2 -2 -4 -2 0 -4
-4 2 3 -2 -4 -2 -2 -4
-4 2 3 -2 -4 -2 -2 -4
-5 1 4 -3 -5 -3 -3 -5
-5 1 4 -3 -5 -3 -3 -5
-5 1 4 -3 -5 -3 -3 -5
-5 1 4 -3 -5 -3 -3 -6
-5 1 4 -3 -5 -3 -3 -6
-5 0 4 -4 -5 -4 -4 -7
-5 0 4 -4 -5 -4 -4 -7
-6 -2 4 -4 -5 -4 -4 -7
-6 -2 4 -3 -5 -4 -4 -7
-7 -3 4 -3 -5 -4 -4 -7
-8 -4 5 -2 -4 -5 -4 -6
-7 -4 5 -2 -4 -5 -4 -6
-6 -3 5 -2 -4 -5 -4 -6
-5 -3 5 -2 -4 -5 -4 -7
-4 -2 5 -2 -4 -5 -4 -7
-3 0 5 -2 -3 -5 -5 -8
-3 0 5 0 -3 -5 -5 -8
-4 -2 5 1 -3 -5 -5 -8
-5 -2 6 2 -2 -5 -5 -7
-6 -3 6 3 -2 -5 -5 -7
-7 -4 7 4 0 -5 -4 -6
-7 -4 7 4 0 -5 -4 -6
-7 -4 7 4 0 -5 -4 -6
-8 -5 6 4 0 -5 -4 -6
-8 -5 6 4 0 -5 -4 -6
-9 -6 5 4 1 -5 -5 -7
-9 -6 5 4 1 -5 -5 -7
-9 -6 6 5 2 -5 -5 -7
-9 -6 7 6 2 -4 -4 -6
-9 -6 8 7 3 -4 -4 -6
-8 -5 9 8 4 -3 -3 -5
-8 -5 9 8 4 -3 -3 -5
-8 -5 8 8 4 -3 -3 -5
-7 -5 8 8 4 -3 -3 -5
-7 -5 7 8 4 -3 -3 -5
-6 -4 6 8 5 -2 -3 -6
-6 -4 6 8 5 -2 -3 -6
-6 -4 6 8 5 -2 -3 -6
-6 -3 6 8 5 -2 -3 -6
-6 -3 6 8 5 -2 -3 -6
-7 -2 7 8 6 0 -2 -5
-7 -2 7 8 6 0 -2 -5
-7 0 7 8 6 0 -2 -5
-6 0 7 8 6 0 -2 -5
-6 1 7 8 6 0 -2 -5
-5 2 6 9 7 1 0 -5
-5 2 6 9 7 1 0 -5
-5 2 6 9 7 1 0 -5
-5 2 6 10 8 2 1 -5
-5 2 6 10 8 2 1 -5
-6 3 7 11 9 3 2 -4
-6 3 7 11 9 3 2 -4
-6 2 7 10 9 3 2 -4
-6 2 6 10 8 3 2 -4
-6 1 6 9 8 3 2 -4
-7 0 5 8 7 3 2 -3
-7 0 5 8 7 3 2 -3
-7 1 5 8 7 3 2 -3
-6 1 5 8 7 3 2 -3
-6 2 5 8 7 3 2 -3
-5 3 5 7 7 3 3 -2
-5 3 5 7 7 3 3 -2
-5 3 5 7 6 3 3 -2
-5 2 4 7 6 3 3 -2
-5 2 4 7 5 3 3 -2
-6 1 3 7 4 3 2 -3
-6 1 3 7 4 3 2 -3
-6 1 3 7 4 3 2 -3
-6 2 3 6 4 3 1 -3
-6 2 3 6 4 3 1 -3
-6 3 2 5 4 2 0 -2
-6 3 2 5 4 2 0 -2
-5 3 2 5 4 2 1 0
-5 3 2 5 4 2 1 0
-4 3 2 5 4 2 2 1
-3 4 2 5 3 2 3 2
-3 3 2 5 3 2 3 2
-3 2 2 5 3 2 3 2
-3 1 2 4 2 2 3 2
-3 0 2 4 2 2 3 2
-3 -2 1 3 1 2 3 2
-3 -2 1 3 1 2 3 2
-3 0 1 3 1 2 3 2
-3 0 1 2 0 2 2 1
-3 1 1 2 0 2 2 1
-2 2 0 1 -2 1 1 0
-2 2 0 1 -2 1 1 0
-3 1 0 1 -2 1 1 0
-3 1 -2 0 -3 0 1 0
-4 0 -2 0 -3 0 1 0
-5 -2 -3 -2 -4 -2 1 1
-5 -2 -3 -2 -4 -2 1 1
-5 -2 -3 -2 -4 -2 1 1
-5 -2 -3 -3 -4 -2 1 0
-5 -2 -3 -3 -4 -2 1 0
-5 0 -4 -4 -4 -2 0 -2
-5 0 -4 -4 -4 -2 0 -2
-5 0 -4 -4 -4 -2 0 -2
-5 -2 -4 -4 -5 -2 0 -2
-5 -2 -4 -4 -5 -2 0 -2
-6 -3 -5 -5 -6 -3 -2 -2
-6 -3 -5 -5 -6 -3 -2 -2
-6 -3 -5 -5 -6 -3 -2 -2
-6 -3 -5 -5 -6 -3 -2 -2
-6 -3 -5 -5 -6 -3 -2 -2
-6 -2 -5 -5 -5 -3 -2 -3
-6 -2 -5 -5 -5 -3 -2 -3
-6 -2 -5 -5 -5 -3 -2 -3
-6 -3 -5 -5 -5 -3 -2 -3
-6 -3 -5 -5 -5 -3 -2 -3
-7 -4 -5 -5 -5 -2 -2 -2
-6 -4 -5 -5 -5 -2 -2 -2
-5 -3 -5 -5 -5 -2 -2 -2
-4 -2 -5 -5 -5 -2 -2 -2
-3 0 -5 -5 -5 -2 -2 -2
-2 1 -4 -5 -4 -3 0 0
-2 1 -4 -5 -4 -3 0 0
-2 1 -4 -5 -5 -3 0 0
-3 0 -5 -5 -5 -3 -2 -2
-3 0 -5 -5 -6 -3 -2 -2
-4 -2 -6 -6 -7 -4 -3 -3
-4 -2 -6 -6 -7 -4 -3 -3
-4 -2 -6 -6 -7 -4 -3 -3
-4 -2 -5 -6 -6 -4 -2 -3
-4 -2 -5 -6 -6 -4 -2 -3
-5 0 -4 -5 -5 -3 0 -2
-5 0 -4 -5 -5 -3 0 -2
-4 0 -4 -4 -5 -3 0 -2
-4 0 -3 -3 -4 -3 0 0
-3 0 -3 -2 -4 -3 0 0
-2 1 -2 0 -3 -2 1 1
-2 2 0 0 -3 0 1 1
-2 4 1 0 -2 1 2 2
-2 5 2 1 0 2 2 2
-2 7 3 1 1 3 3 3
-2 9 4 2 2 4 4 4
-2 10 4 3 2 4 4 4
0 12 5 4 3 4 5 4
1 13 6 5 4 5 5 5
2 15 7 6 5 5 6 5
3 17 8 7 6 6 7 6
3 17 8 7 6 6 7 6
3 18 8 6 6 6 7 6
3 18 7 6 6 7 8 6
3 19 7 5 6 7 8 6
4 20 6 4 5 8 9 6
4 20 4 4 5 8 9 6
4 20 2 3 4 8 9 6
4 20 -2 2 4 8 9 7
4 20 -4 1 3 8 9 7
4 19 -7 0 2 7 9 8
4 20 -7 0 2 7 9 8
5 21 -7 0 2 8 10 9
5 22 -7 1 3 8 11 10
6 23 -7 1 3 9 12 11
7 25 -6 2 4 10 13 12
7 24 -6 2 4 10 13 12
7 23 -7 2 4 10 13 12
7 22 -7 1 4 10 12 11
7 21 -8 1 4 10 12 11
6 19 -9 0 3 9 11 10
6 17 -10 -2 2 8 10 10
6 14 -11 -4 0 6 9 9
6 12 -12 -5 -2 5 7 8
6 9 -13 -7 -4 3 6 7
5 6 -15 -9 -6 1 4 6
5 6 -15 -9 -6 1 4 6
4 6 -15 -9 -6 1 4 6
4 6 -15 -9 -7 0 3 5
3 6 -15 -9 -7 0 3 5
2 5 -14 -10 -8 -2 2 4
2 5 -14 -10 -8 -2 2 4
2 5 -14 -10 -8 -2 2 4
2 5 -14 -10 -8 -2 2 3
2 5 -14 -10 -8 -2 2 3
1 5 -13 -9 -7 0 3 2
1 4 -12 -9 -8 -2 2 1
0 2 -11 -9 -9 -3 1 0
-2 1 -10 -10 -10 -4 0 -2
-3 -2 -9 -10 -11 -5 -2 -3
-4 -4 -7 -11 -12 -7 -4 -4
-5 -4 -7 -12 -12 -7 -4 -4
-6 -5 -7 -13 -12 -7 -4 -4
-7 -6 -7 -14 -13 -8 -5 -5
-8 -7 -7 -15 -13 -8 -5 -5
-9 -8 -8 -16 -14 -9 -6 -6
-9 -8 -8 -16 -14 -9 -6 -6
-9 -8 -8 -16 -14 -9 -6 -6
-8 -8 -7 -15 -14 -9 -6 -5
-8 -8 -7 -15 -14 -9 -6 -5
-7 -8 -6 -14 -14 -10 -6 -4
