I II V1 V2 V3 V4 V5 V6
-20 -21 4 -8 -18 -29 -16 -11
-20 -21 5 -6 -17 -29 -14 -11
-20 -21 3 -7 -17 -29 -15 -11
-19 -21 4 -6 -15 -28 -15 -10
-20 -21 4 -4 -15 -28 -15 -8
-20 -22 4 -4 -17 -29 -14 -8
-17 -18 5 -4 -13 -25 -12 -7
-19 -19 5 -3 -13 -25 -13 -7
-19 -19 5 -5 -14 -25 -14 -8
-19 -19 4 -5 -14 -25 -14 -9
-22 -21 5 -5 -14 -26 -15 -10
-21 -20 6 -2 -14 -26 -15 -10
-19 -18 5 -1 -12 -25 -14 -9
-22 -21 5 -1 -12 -23 -14 -8
-20 -22 5 0 -12 -23 -13 -9
-18 -21 5 0 -12 -24 -12 -9
-17 -18 5 0 -11 -22 -12 -8
-16 -17 7 2 -9 -21 -11 -7
-16 -17 7 2 -8 -22 -11 -7
-16 -16 8 4 -8 -21 -11 -7
-18 -17 7 4 -9 -20 -12 -8
-18 -19 8 7 -9 -21 -12 -7
-17 -17 7 7 -7 -20 -10 -7
-16 -18 7 8 -6 -18 -10 -6
-18 -20 8 11 -6 -17 -10 -6
-15 -17 9 12 -5 -16 -8 -5
-15 -16 9 14 -1 -14 -7 -3
-11 -16 10 16 -1 -13 -6 -1
-12 -16 9 18 1 -13 -6 -2
-8 -12 11 20 4 -11 -4 -2
3 -1 15 25 10 -5 0 3
7 2 14 27 10 -5 1 3
4 0 13 29 11 -2 2 4
4 1 12 32 15 0 4 5
4 -1 11 33 16 0 3 4
5 0 11 36 19 2 7 6
6 1 9 39 21 5 8 7
8 2 9 41 23 7 9 7
7 5 10 42 27 10 12 11
8 6 10 43 30 13 13 12
9 6 8 44 30 14 14 11
10 7 8 47 33 16 16 12
11 8 6 45 32 17 17 13
11 9 6 46 34 19 18 15
9 6 4 47 35 19 18 15
9 7 3 47 35 19 19 15
12 9 1 45 35 21 20 16
15 11 3 47 36 22 22 18
19 17 5 46 37 24 24 21
20 19 5 45 38 24 25 20
18 17 4 45 39 25 25 21
18 18 3 45 38 24 24 20
19 19 3 45 38 26 26 21
20 18 2 43 36 24 25 21
18 16 1 42 36 23 24 20
17 14 0 40 34 23 23 19
17 14 1 40 34 22 23 20
16 13 1 38 32 21 23 19
12 11 2 36 30 20 22 19
14 11 2 34 30 20 21 19
15 11 1 33 29 19 20 19
14 10 1 30 26 16 19 17
13 11 3 30 24 17 19 17
13 9 1 27 21 13 16 15
12 10 0 25 18 12 14 15
10 11 2 24 20 12 16 15
8 9 2 21 18 11 15 14
8 8 2 19 15 8 12 11
3 6 3 19 13 5 10 10
2 4 3 17 11 5 9 10
2 5 3 15 11 4 10 10
2 5 3 13 8 2 8 8
2 7 4 14 7 2 8 9
-2 4 4 12 6 0 6 7
-5 3 3 9 4 -2 6 6
-3 5 4 9 5 -1 6 7
-3 5 5 8 5 -2 5 7
-2 3 3 5 2 -5 3 4
-5 4 4 3 0 -5 4 4
-8 1 4 3 -1 -5 3 4
-8 1 3 2 0 -6 2 4
-9 2 3 0 -2 -7 2 4
-10 0 3 -1 -3 -7 1 2
-11 -1 3 -1 -3 -8 2 2
-9 -1 1 -1 -5 -9 0 2
-9 -1 2 -3 -5 -9 0 2
-9 -1 1 -4 -4 -9 0 3
-11 -3 0 -5 -6 -11 -1 1
-11 -1 0 -6 -7 -11 0 0
-11 -4 0 -7 -7 -11 -2 1
-13 -5 0 -7 -7 -11 -2 1
-14 -4 0 -7 -7 -11 -1 0
-14 -5 0 -6 -7 -10 0 1
-14 -8 -1 -6 -8 -11 -2 0
-13 -5 -2 -6 -8 -10 -2 0
-14 -5 0 -6 -7 -9 -2 0
-11 -4 -2 -8 -7 -9 -2 0
-13 -5 -1 -8 -8 -10 -3 0
-15 -6 0 -8 -8 -10 -3 -1
-13 -5 1 -7 -9 -11 -3 -1
-14 -6 0 -8 -9 -11 -3 -1
-15 -7 0 -6 -9 -12 -4 -2
-15 -6 0 -7 -10 -11 -3 -1
-17 -8 -1 -7 -10 -12 -5 -2
-17 -8 0 -6 -10 -12 -5 -2
-17 -8 2 -6 -10 -12 -4 -3
-16 -7 0 -7 -10 -12 -5 -5
-14 -7 3 -5 -9 -12 -5 -3
-16 -7 2 -6 -11 -13 -7 -5
-15 -7 4 -6 -10 -13 -6 -4
-14 -7 5 -4 -10 -12 -6 -3
-16 -9 4 -5 -10 -13 -8 -5
-16 -8 6 -5 -9 -12 -7 -4
-17 -8 5 -4 -9 -14 -8 -5
-17 -10 5 -4 -10 -13 -9 -6
-16 -8 7 -3 -11 -12 -7 -5
-16 -8 8 -3 -9 -11 -7 -6
-19 -11 8 -2 -10 -12 -8 -6
-17 -10 9 -3 -10 -11 -7 -7
-16 -10 9 -2 -9 -12 -8 -7
-16 -8 10 0 -8 -10 -7 -5
-16 -8 10 1 -7 -11 -8 -6
-14 -6 10 0 -7 -10 -7 -6
-11 -2 14 4 -4 -6 -5 -3
-9 -1 13 4 -4 -7 -4 -3
-8 0 14 4 -4 -6 -4 -3
-7 1 14 4 -3 -6 -4 -3
-7 0 15 4 -2 -6 -4 -3
-4 4 16 3 -1 -4 -3 -2
0 8 18 7 0 -3 -1 -1
3 12 19 8 1 -2 -1 0
8 15 21 10 3 -1 1 2
9 17 22 10 4 1 2 2
10 19 22 11 5 1 3 2
13 21 22 12 5 2 3 3
14 21 22 12 6 3 4 3
16 23 22 13 8 3 4 4
17 23 23 14 8 4 4 5
15 22 24 13 7 4 5 6
14 22 23 13 6 5 5 5
15 23 23 14 7 4 6 5
18 24 21 13 7 3 4 5
16 23 21 11 6 3 3 3
15 20 21 11 5 3 3 3
16 23 21 11 6 3 3 4
14 22 21 12 6 4 4 4
12 19 21 11 6 3 4 4
12 17 20 10 5 2 2 4
8 16 20 8 4 1 2 3
8 17 19 8 3 1 2 2
8 16 18 8 2 2 2 2
7 15 18 7 2 0 1 1
6 14 20 9 4 3 2 2
5 14 18 9 3 1 2 1
7 14 16 8 1 0 0 0
7 15 17 7 1 0 1 2
5 12 17 5 3 1 1 2
6 13 16 6 2 -1 1 3
5 13 15 4 0 -2 1 2
7 14 16 5 0 0 0 2
7 14 17 6 1 0 1 4
2 12 18 7 3 1 1 5
1 13 20 9 5 3 4 7
5 15 20 9 3 3 3 6
5 16 19 9 3 2 3 8
7 18 21 10 4 3 4 9
7 17 21 9 5 3 3 8
5 18 22 10 6 4 5 10
7 22 23 11 6 5 6 11
6 22 24 11 7 5 6 11
5 22 24 11 6 6 6 11
5 21 25 11 6 5 5 10
4 20 24 10 5 4 5 9
6 22 23 10 3 3 3 9
5 22 23 11 5 4 4 10
4 22 23 10 4 4 5 10
7 24 22 8 4 4 7 11
8 25 21 8 5 6 7 13
9 27 20 9 6 7 8 14
9 29 19 9 5 8 8 14
10 28 18 9 5 8 9 15
12 31 17 8 5 8 10 16
11 31 17 9 6 8 10 16
10 28 16 9 6 7 9 15
9 28 16 8 5 8 8 14
7 25 16 7 4 7 7 13
8 24 16 7 3 6 7 13
9 24 16 7 4 6 6 14
9 22 15 5 2 6 5 12
11 22 15 5 2 6 5 12
12 21 13 4 1 5 6 13
12 20 11 3 1 4 4 11
14 18 12 4 2 5 4 11
12 16 11 6 2 5 4 12
13 16 9 4 0 3 2 10
10 13 10 3 -2 3 1 8
5 8 9 1 -2 2 0 7
3 7 9 1 -3 1 -1 6
2 7 9 1 -3 1 -2 5
1 6 11 0 -4 0 -2 6
0 5 10 0 -6 -2 -3 4
-2 2 9 -2 -7 -4 -5 2
-4 1 10 -2 -8 -5 -5 2
-2 1 8 -3 -7 -5 -7 1
-1 0 8 -4 -9 -7 -9 0
0 -1 8 -4 -10 -7 -8 -1
-2 -3 8 -5 -9 -7 -7 1
-4 -4 7 -4 -10 -7 -8 1
-2 -4 7 -5 -10 -7 -9 0
-1 -5 8 -6 -13 -9 -9 -1
0 -3 7 -5 -11 -7 -9 -1
-2 -3 6 -6 -11 -8 -10 -1
-4 -5 6 -5 -11 -9 -10 -1
-4 -5 6 -5 -10 -9 -10 -1
-3 -4 7 -4 -12 -8 -9 -1
-3 -4 7 -5 -11 -8 -9 0
-3 -5 7 -4 -10 -8 -9 0
-6 -6 6 -5 -11 -9 -11 -1
-5 -5 6 -6 -11 -8 -10 -2
-4 -5 7 -6 -11 -9 -10 -2
-4 -8 6 -7 -11 -9 -11 -2
-4 -7 5 -6 -11 -9 -11 -3
-4 -7 5 -5 -11 -10 -11 -3
-4 -7 6 -5 -11 -9 -12 -2
-6 -8 9 -2 -12 -10 -12 -2
-10 -10 15 -1 -12 -12 -14 -5
-12 -9 25 2 -14 -15 -17 -7
-18 -6 38 8 -15 -17 -19 -9
-22 -4 51 16 -13 -19 -20 -10
-22 -1 62 25 -7 -16 -17 -8
-22 0 69 37 -1 -9 -13 -6
-16 -1 78 54 11 0 -8 -5
-5 2 85 76 32 19 5 4
7 17 83 94 57 45 27 18
24 35 63 93 77 72 50 36
40 51 27 78 97 99 74 53
56 66 -7 67 117 129 96 71
70 84 -45 52 135 155 118 87
79 100 -91 27 148 181 139 104
88 111 -138 -5 150 194 154 117
94 128 -163 -15 167 218 173 132
95 143 -184 -22 187 240 189 143
93 132 -190 -22 194 241 180 133
84 96 -191 -24 180 213 145 102
76 59 -188 -34 147 163 100 68
66 20 -181 -49 100 104 52 34
48 -16 -170 -69 51 46 7 3
28 -38 -160 -91 5 -2 -26 -22
9 -45 -150 -123 -51 -47 -50 -33
-4 -47 -141 -155 -100 -84 -65 -39
-8 -48 -131 -159 -117 -95 -70 -41
-10 -48 -118 -146 -111 -90 -67 -40
-12 -44 -104 -127 -100 -82 -61 -36
-13 -38 -83 -107 -86 -73 -54 -30
-16 -33 -66 -90 -74 -62 -46 -26
-14 -27 -51 -72 -61 -51 -39 -22
-11 -20 -34 -54 -46 -40 -31 -15
-8 -16 -22 -42 -37 -34 -28 -14
-6 -11 -13 -30 -30 -28 -24 -11
-6 -12 -7 -23 -27 -26 -23 -10
-7 -12 -5 -19 -24 -25 -21 -10
-5 -13 -6 -18 -24 -27 -24 -11
-8 -16 -5 -17 -23 -26 -23 -12
-7 -14 -2 -17 -21 -25 -22 -11
-6 -14 -1 -16 -19 -23 -22 -10
-8 -16 -1 -17 -20 -24 -23 -11
-9 -15 1 -16 -20 -24 -22 -10
-7 -14 2 -17 -20 -24 -22 -11
-6 -14 3 -15 -19 -23 -20 -10
-6 -12 3 -12 -19 -23 -21 -10
-6 -13 3 -12 -20 -22 -20 -9
-6 -12 2 -12 -18 -23 -21 -10
-7 -12 3 -10 -18 -23 -21 -9
-8 -12 1 -11 -19 -23 -21 -9
-6 -11 3 -13 -18 -22 -19 -9
-6 -13 3 -13 -18 -23 -20 -10
-9 -15 3 -13 -20 -23 -21 -10
-8 -13 3 -13 -19 -22 -21 -10
-8 -14 4 -11 -18 -22 -20 -11
-8 -13 4 -10 -20 -24 -22 -11
-6 -11 4 -10 -21 -24 -21 -11
-8 -13 4 -10 -19 -24 -21 -11
-7 -12 5 -7 -18 -23 -20 -9
-8 -11 4 -8 -19 -23 -21 -10
-7 -13 4 -10 -19 -23 -21 -10
-7 -13 4 -11 -19 -24 -21 -11
-8 -15 5 -10 -19 -25 -20 -11
-6 -13 5 -11 -19 -25 -19 -11
-5 -14 5 -10 -19 -25 -19 -10
-9 -16 5 -8 -20 -26 -19 -10
-8 -15 4 -8 -20 -25 -19 -10
-8 -14 4 -8 -20 -26 -19 -10
-6 -14 4 -7 -19 -26 -20 -10
-6 -12 3 -8 -19 -27 -20 -10
-7 -13 4 -9 -19 -26 -18 -10
-6 -13 5 -9 -17 -26 -18 -9
-9 -14 5 -8 -19 -26 -19 -9
-7 -14 5 -10 -19 -27 -20 -10
-6 -14 7 -8 -18 -25 -18 -9
-9 -15 5 -8 -18 -26 -20 -11
-9 -15 4 -7 -19 -26 -19 -12
-8 -13 5 -6 -17 -25 -18 -12
-9 -15 4 -5 -17 -25 -19 -11
-8 -13 3 -5 -16 -25 -19 -12
-8 -13 4 -6 -15 -24 -17 -11
-7 -12 7 -6 -15 -23 -17 -10
-4 -10 7 -4 -13 -22 -16 -10
-4 -10 7 -5 -14 -22 -17 -11
-6 -13 7 -4 -13 -22 -16 -11
-7 -13 6 -3 -14 -23 -17 -11
-7 -14 6 -2 -14 -22 -17 -11
-5 -12 6 -2 -13 -22 -16 -12
-5 -12 6 -1 -13 -22 -15 -11
-6 -11 5 0 -12 -21 -16 -11
-4 -9 6 -1 -11 -20 -13 -10
-4 -10 7 0 -10 -19 -13 -10
-4 -10 8 1 -9 -18 -12 -10
-2 -9 9 3 -9 -18 -13 -10
-3 -11 8 4 -9 -18 -13 -10
-3 -10 9 5 -10 -19 -14 -11
-3 -10 8 6 -8 -18 -12 -12
-2 -10 7 6 -7 -18 -12 -12
-2 -9 8 9 -6 -17 -10 -10
-5 -10 9 9 -6 -16 -10 -10
-3 -10 7 9 -5 -14 -9 -9
-1 -8 9 11 -4 -13 -9 -8
-1 -8 10 13 -3 -11 -7 -7
2 -6 10 15 1 -9 -6 -7
3 -6 10 18 3 -8 -4 -6
3 -6 9 20 3 -8 -4 -6
3 -5 10 24 6 -5 -2 -4
4 -6 8 25 6 -4 -3 -4
5 -5 7 26 8 -2 -1 -3
6 -3 8 28 11 1 3 -1
5 -3 7 28 14 3 4 -1
7 -1 8 31 17 6 6 1
9 0 8 33 19 9 8 3
10 2 7 34 21 11 8 3
12 3 7 37 24 13 11 5
14 4 7 38 25 14 12 6
15 6 5 39 27 17 14 7
17 8 5 40 29 19 15 9
16 9 4 40 28 18 16 9
17 10 3 38 30 19 17 10
16 9 3 37 31 21 17 10
14 8 2 36 31 21 17 10
16 9 2 36 31 22 19 12
17 10 2 35 31 22 19 12
19 11 1 34 31 22 20 12
18 11 1 34 30 21 19 13
16 10 -1 34 30 21 19 12
17 11 -1 33 29 22 19 12
16 10 -2 31 28 20 20 12
17 11 -2 30 27 20 20 13
16 11 -1 28 27 21 19 13
15 8 -1 26 24 18 17 12
16 9 0 25 25 19 17 13
15 9 0 23 23 19 15 12
13 7 -1 21 20 17 13 10
13 7 -1 20 19 15 14 9
12 7 0 20 17 14 13 9
10 7 -1 18 15 13 12 8
11 8 1 17 15 12 12 9
10 8 0 14 13 10 10 7
10 7 0 11 12 9 9 6
9 6 1 9 10 7 9 6
8 5 3 9 10 8 9 5
8 6 3 7 8 6 6 4
5 3 3 6 6 5 6 3
2 2 5 7 5 3 5 3
4 3 5 5 5 2 4 3
3 3 5 4 5 2 4 3
3 4 5 4 4 1 4 3
-1 1 6 2 2 0 3 2
-1 2 5 0 1 0 3 2
2 4 5 -1 0 -1 1 1
1 3 5 -1 0 -1 2 1
0 3 5 -3 -1 -3 0 0
-2 1 5 -4 -2 -4 1 0
-2 0 5 -5 -5 -6 -1 -1
-1 1 4 -6 -6 -6 -1 -1
-3 1 4 -6 -6 -6 -2 -1
-4 0 3 -8 -7 -7 -3 -2
-5 0 4 -9 -7 -6 -2 -2
-4 0 1 -11 -7 -8 -3 -3
-4 0 2 -12 -8 -8 -3 -4
-4 1 3 -12 -7 -8 -2 -2
-5 0 3 -12 -8 -8 -3 -2
-4 0 2 -13 -9 -9 -3 -3
-4 -2 2 -13 -10 -10 -4 -3
-5 -2 1 -13 -10 -11 -5 -4
-5 -1 2 -13 -8 -9 -4 -3
-5 -2 1 -14 -10 -11 -4 -4
-4 -1 1 -14 -11 -11 -5 -3
-3 0 1 -15 -10 -10 -4 -4
-5 -1 1 -15 -10 -11 -5 -4
-5 0 3 -13 -9 -9 -3 -2
-4 -1 3 -12 -10 -10 -4 -4
-5 -3 2 -14 -11 -11 -5 -5
-5 -3 2 -13 -12 -13 -6 -5
-7 -4 2 -13 -11 -12 -6 -6
-6 -4 1 -14 -13 -13 -8 -8
-7 -5 3 -14 -12 -13 -7 -7
-8 -6 4 -13 -12 -13 -7 -7
-7 -4 4 -14 -12 -13 -6 -7
-7 -4 5 -13 -13 -13 -7 -8
-8 -5 5 -13 -11 -13 -7 -10
-6 -3 7 -11 -9 -12 -7 -9
-7 -5 7 -12 -10 -12 -8 -10
-9 -6 7 -11 -12 -13 -8 -10
-7 -3 7 -11 -12 -13 -8 -10
-8 -4 7 -10 -11 -13 -8 -10
-7 -2 8 -11 -12 -14 -8 -10
-8 -4 9 -10 -11 -14 -9 -9
-9 -5 9 -10 -10 -13 -9 -10
-8 -5 10 -10 -10 -14 -9 -11
-10 -5 11 -8 -9 -12 -7 -10
-9 -3 13 -6 -7 -9 -7 -9
-9 -4 13 -7 -8 -10 -8 -10
-9 -5 13 -5 -9 -11 -7 -10
-6 -1 13 -5 -7 -10 -7 -10
-6 -1 13 -4 -7 -11 -7 -10
-6 -1 12 -3 -7 -10 -7 -10
-6 -1 13 -4 -7 -10 -6 -10
-9 -2 14 -4 -5 -8 -5 -9
-7 -2 14 -3 -5 -9 -6 -9
-8 -3 15 -3 -5 -7 -6 -8
-8 -4 15 -3 -4 -7 -6 -9
-7 -2 15 -2 -3 -6 -4 -9
-8 -2 15 -2 -4 -7 -6 -9
-8 -1 15 -2 -3 -7 -5 -9
-7 1 15 0 -2 -6 -4 -8
-8 -1 14 -1 -3 -6 -3 -8
-8 1 14 -2 -3 -6 -5 -8
-8 0 14 -1 -2 -5 -3 -8
-9 -1 15 -1 -3 -5 -3 -8
-8 0 16 0 0 -3 -1 -6
-6 1 17 0 -1 -3 -3 -8
-6 1 15 -1 -2 -4 -2 -8
-6 1 16 1 -3 -4 -2 -7
-6 0 15 0 -2 -4 -1 -7
-5 2 15 1 -1 -3 -1 -7
-5 2 14 0 -2 -3 -1 -6
-5 1 13 0 -2 -4 -2 -6
-4 4 14 0 0 -1 0 -4
-4 3 13 -2 -2 -3 -2 -5
-5 1 13 -2 -2 -3 -1 -5
-5 2 13 -1 -1 -3 -1 -4
-5 1 11 -3 -3 -4 -3 -6
-6 0 14 -1 -3 -4 -2 -4
-6 1 13 -2 -3 -4 -2 -3
-7 1 13 -2 -2 -4 -3 -3
-7 2 13 -1 -2 -4 -1 -1
-8 0 12 -2 -3 -3 -2 -3
-5 2 11 -4 -3 -4 -3 -3
-1 4 11 -2 -4 -4 -3 -3
-1 2 12 -3 -4 -4 -2 -2
-2 3 12 -3 -4 -6 -4 -3
-5 1 11 -4 -5 -6 -4 -4
-4 0 10 -5 -6 -7 -4 -4
-5 1 11 -4 -6 -7 -4 -3
-6 0 11 -3 -6 -7 -4 -3
-6 0 11 -3 -5 -5 -3 -2
-4 2 12 -3 -5 -5 -3 -2
-5 3 13 -2 -3 -4 -1 0
-4 7 15 -1 -4 -3 0 0
-5 8 16 0 -2 -2 1 1
-4 9 16 0 -1 -3 1 1
-4 9 15 0 -1 -3 1 2
-4 8 17 1 -2 -4 0 0
-3 10 17 3 -1 -2 2 1
-4 10 18 3 -1 -2 4 3
-5 10 18 2 -1 -2 2 2
-4 12 20 4 -1 -1 4 2
-4 12 21 4 0 0 4 3
-3 12 21 4 0 0 3 2
-4 13 21 4 1 1 4 3
-4 12 20 3 -1 -2 3 2
-2 14 19 3 0 -1 5 3
-1 18 18 2 -2 -2 4 3
-2 16 15 3 -1 -1 4 3
1 19 15 3 -1 0 5 5
2 20 13 3 0 2 6 6
2 21 14 3 1 2 8 7
4 23 14 2 3 4 10 8
5 21 14 2 2 3 8 7
5 21 15 2 2 3 7 7
2 20 15 2 2 2 6 6
0 18 14 3 1 2 6 6
1 18 15 4 1 2 7 6
2 17 14 4 1 2 7 6
4 15 12 3 -1 1 5 5
4 14 10 2 -1 2 5 5
2 11 10 2 0 1 6 4
4 11 10 2 1 2 5 4
5 11 10 2 1 1 5 3
4 9 10 2 0 0 4 2
3 7 10 2 -1 0 4 2
1 5 9 1 -2 -1 3 0
-2 5 9 -1 -5 -3 1 -1
-1 6 8 -1 -5 -4 0 -1
-3 3 8 -2 -6 -6 -1 -3
-6 -1 8 -2 -8 -7 -3 -4
-8 -3 7 -4 -10 -8 -4 -6
-8 -5 6 -6 -10 -9 -5 -9
-7 -4 9 -4 -9 -8 -5 -7
-9 -6 7 -5 -10 -9 -7 -8
-10 -9 8 -6 -11 -9 -5 -8
-9 -7 6 -6 -13 -11 -6 -9
-9 -8 7 -7 -12 -12 -7 -9
-6 -6 6 -6 -12 -11 -7 -9
-7 -6 5 -6 -13 -13 -8 -10
-7 -7 4 -6 -12 -11 -7 -10
-6 -5 5 -6 -14 -12 -7 -10
-8 -6 5 -5 -11 -10 -6 -9
-8 -7 5 -6 -13 -10 -6 -10
-6 -6 6 -7 -13 -10 -7 -11
-9 -8 7 -5 -14 -10 -7 -11
-9 -7 5 -6 -14 -11 -8 -12
-7 -7 6 -4 -13 -11 -6 -11
-8 -7 5 -5 -13 -11 -7 -12
-6 -6 5 -4 -13 -11 -7 -13
-7 -9 5 -5 -14 -10 -7 -13
-7 -9 6 -5 -13 -10 -6 -13
-5 -6 6 -6 -10 -8 -5 -12
-7 -8 6 -6 -12 -8 -6 -13
-6 -8 8 -4 -12 -8 -7 -14
-10 -10 12 -3 -14 -11 -11 -17
-15 -12 19 -1 -18 -15 -14 -20
-21 -9 31 6 -18 -18 -17 -22
-26 -8 44 12 -17 -19 -18 -22
-28 -5 55 23 -13 -17 -15 -21
-26 -1 66 36 -5 -9 -9 -17
-21 -2 74 50 5 0 -4 -16
-9 -1 80 70 21 13 4 -12
3 10 82 89 46 38 22 2
15 26 70 95 68 65 45 19
30 41 38 82 87 92 69 37
49 55 3 70 104 118 90 53
63 73 -33 57 122 144 112 69
72 88 -75 37 138 171 135 86
79 100 -121 5 142 188 151 100
89 116 -154 -12 153 207 167 113
93 134 -174 -16 176 235 188 129
91 136 -186 -21 188 246 190 130
85 105 -187 -20 182 226 161 102
75 67 -188 -30 153 182 118 70
64 29 -183 -43 111 125 72 36
50 -6 -173 -63 60 64 25 5
33 -33 -162 -82 15 14 -12 -21
13 -43 -154 -110 -36 -31 -38 -39
-6 -49 -144 -145 -90 -72 -56 -46
-13 -52 -136 -157 -115 -89 -62 -49
-15 -50 -125 -148 -116 -87 -62 -48
-17 -47 -110 -130 -106 -78 -56 -44
-16 -42 -90 -110 -92 -69 -49 -39
-17 -35 -72 -92 -81 -60 -44 -36
-16 -29 -57 -76 -67 -50 -37 -31
-14 -22 -41 -58 -54 -40 -28 -25
-12 -17 -28 -43 -43 -32 -23 -22
-9 -15 -18 -31 -35 -26 -19 -20
-10 -14 -12 -23 -30 -23 -17 -18
-11 -16 -7 -18 -29 -22 -18 -18
-7 -13 -4 -14 -25 -19 -16 -17
-8 -13 -4 -13 -24 -20 -16 -17
-10 -16 -3 -13 -25 -19 -16 -18
-11 -16 -1 -13 -24 -19 -15 -18
-10 -16 0 -13 -24 -18 -15 -19
-9 -15 1 -12 -24 -18 -15 -18
-9 -14 3 -10 -22 -17 -14 -18
-9 -15 2 -11 -22 -18 -15 -19
-9 -15 2 -9 -22 -18 -15 -19
-9 -16 1 -8 -22 -18 -15 -18
-10 -16 1 -8 -21 -18 -15 -18
-9 -14 1 -7 -20 -17 -14 -16
-9 -13 3 -5 -18 -16 -12 -15
-8 -13 2 -7 -18 -16 -12 -16
-6 -12 3 -8 -19 -15 -12 -16
-8 -13 3 -7 -20 -16 -13 -16
-6 -12 4 -6 -19 -16 -13 -16
-6 -13 5 -6 -20 -16 -13 -17
-8 -13 4 -6 -21 -18 -14 -18
-7 -12 4 -4 -20 -17 -13 -16
-7 -12 3 -5 -19 -17 -14 -17
-7 -12 3 -5 -21 -17 -14 -18
-7 -12 4 -4 -18 -16 -13 -16
-10 -13 4 -6 -17 -16 -13 -16
-9 -12 4 -6 -17 -16 -13 -17
-8 -12 5 -5 -18 -17 -14 -17
-7 -12 5 -5 -19 -16 -13 -15
-6 -11 5 -5 -20 -17 -14 -16
-8 -13 4 -4 -20 -18 -15 -16
-7 -13 3 -3 -20 -18 -14 -15
-6 -12 3 -3 -19 -18 -14 -16
-6 -13 3 -2 -19 -18 -15 -16
-6 -12 3 -3 -19 -18 -14 -16
-8 -14 3 -4 -18 -17 -14 -16
-8 -13 3 -4 -18 -17 -14 -17
-8 -12 6 -3 -17 -16 -13 -16
-8 -14 6 -2 -17 -16 -14 -16
-9 -14 5 -2 -19 -17 -15 -18
-8 -13 5 -2 -19 -17 -15 -18
-8 -14 5 0 -17 -16 -14 -16
-7 -13 4 1 -16 -16 -14 -15
-7 -13 4 1 -16 -15 -13 -14
-7 -12 5 1 -15 -14 -12 -11
-8 -12 6 1 -15 -13 -12 -10
-11 -15 7 0 -15 -13 -13 -11
-8 -13 7 0 -14 -14 -13 -11
-7 -12 7 1 -13 -13 -11 -10
-8 -14 7 2 -14 -13 -12 -12
-7 -13 6 3 -14 -13 -13 -12
-6 -13 6 4 -14 -12 -12 -11
-6 -13 6 6 -12 -11 -11 -11
-6 -11 6 6 -12 -10 -11 -10
-7 -12 7 6 -11 -9 -10 -9
-7 -13 8 6 -11 -9 -10 -9
-6 -11 9 6 -9 -8 -8 -8
-5 -11 9 7 -10 -9 -9 -8
-3 -10 9 8 -7 -8 -9 -8
-5 -13 9 9 -8 -9 -10 -9
-5 -13 8 10 -9 -9 -10 -8
-3 -12 6 13 -9 -9 -10 -8
-4 -13 6 14 -8 -7 -8 -7
-3 -10 6 15 -7 -7 -8 -7
0 -8 7 17 -4 -5 -6 -5
0 -9 8 17 -4 -5 -4 -5
-1 -8 10 18 -2 -3 -3 -4
0 -7 10 20 -2 -3 -3 -3
2 -6 10 21 0 -2 -2 -3
2 -6 9 23 2 -1 -1 -3
0 -7 9 27 3 0 -2 -2
3 -5 10 31 7 3 0 -1
6 -4 8 31 8 4 1 -1
5 -5 8 33 9 5 3 0
5 -4 9 36 14 10 6 2
8 -2 9 36 16 11 7 3
9 -1 10 37 18 13 9 4
12 2 10 41 21 16 11 7
11 0 10 42 22 17 12 7
14 3 9 45 25 20 13 8
14 3 8 46 27 21 13 10
14 3 6 47 29 23 16 11
17 6 4 47 30 24 16 11
16 6 4 47 31 26 19 13
15 6 4 46 32 27 20 13
15 6 4 46 33 28 21 13
16 6 4 45 34 28 21 13
17 8 6 45 35 29 22 15
17 9 5 44 34 29 22 14
17 9 4 44 33 29 22 14
20 11 4 45 34 29 23 16
20 10 1 44 33 28 21 15
19 11 -1 42 32 27 21 14
19 11 -1 41 31 26 22 14
17 9 0 39 31 25 21 14
16 9 1 38 31 26 22 14
16 8 2 36 30 25 22 15
16 9 3 36 29 25 23 16
17 11 3 35 28 25 23 16
15 9 3 33 26 23 21 15
16 8 3 32 24 21 19 12
15 8 2 32 23 20 18 13
13 6 2 29 22 19 17 12
12 6 3 27 20 16 15 10
10 5 3 25 18 15 14 9
10 6 4 23 18 16 15 9
9 7 6 22 17 15 15 10
7 4 7 20 13 13 13 8
5 1 7 19 13 12 11 7
5 2 8 18 12 11 11 7
4 1 6 16 8 9 8 4
5 2 7 17 8 9 8 5
5 2 7 15 7 8 7 5
3 1 8 14 7 6 7 4
2 1 8 13 6 5 7 5
-1 -1 8 10 5 5 6 3
-3 -2 9 9 4 5 6 2
-4 -1 10 8 3 5 5 2
-5 -4 10 7 1 4 3 2
-3 -3 10 6 0 2 2 1
-1 -2 9 6 0 1 3 0
-2 -2 9 5 -1 0 3 0
-4 -3 9 3 0 0 3 -1
-5 -4 8 1 -2 -2 1 -3
-5 -3 8 1 -2 -1 2 -1
-4 -1 9 1 -2 0 2 -2
-6 -2 9 -2 -3 -1 2 -2
-7 -2 9 -2 -4 -2 1 -3
-8 -3 7 -3 -5 -3 0 -3
-9 -4 7 -4 -6 -4 0 -4
-6 -3 6 -3 -6 -5 -1 -5
-6 -4 5 -4 -7 -5 -2 -6
-6 -3 5 -3 -6 -3 0 -5
-6 -3 7 -4 -6 -4 -2 -4
-6 -4 5 -5 -7 -5 -3 -5
-4 -2 6 -5 -6 -4 -2 -5
-6 -3 8 -5 -6 -4 -1 -5
-6 -5 9 -5 -6 -5 -2 -4
-6 -4 7 -6 -7 -6 -3 -5
-6 -6 7 -6 -8 -7 -3 -5
-6 -6 7 -6 -9 -8 -4 -5
-7 -8 6 -7 -10 -8 -5 -5
-11 -9 6 -5 -9 -8 -5 -5
-12 -9 9 -4 -9 -8 -3 -5
-10 -7 8 -4 -9 -8 -3 -5
-9 -6 9 -4 -7 -8 -3 -6
-7 -4 10 -4 -6 -8 -3 -5
-9 -6 11 -4 -8 -9 -4 -6
-7 -6 11 -3 -8 -9 -6 -6
-9 -7 12 -3 -9 -10 -6 -6
-11 -8 13 -2 -9 -10 -6 -5
-10 -7 13 -1 -9 -11 -6 -6
-10 -7 12 -1 -9 -11 -6 -6
-12 -9 13 0 -9 -10 -6 -4
-11 -8 15 1 -7 -7 -4 -4
-11 -8 16 1 -6 -6 -4 -4
-9 -6 16 0 -5 -7 -4 -3
-10 -7 17 2 -5 -6 -4 -3
-10 -8 17 3 -5 -7 -4 -4
-9 -6 19 5 -4 -6 -3 -2
-9 -5 20 6 -3 -5 -3 -1
-9 -5 21 7 -2 -5 -3 -2
-10 -6 19 5 -5 -7 -4 -4
-12 -8 18 6 -5 -6 -3 -4
-11 -6 19 6 -3 -5 -3 -3
-10 -4 20 7 -2 -3 -2 -2
-10 -3 20 7 -2 -3 -1 -4
-9 -2 22 8 2 -2 1 -2
-9 -3 21 6 0 -4 -1 -3
-8 -1 21 7 0 -3 -1 -3
-6 0 22 9 0 -3 -1 -3
-8 -1 21 9 -1 -3 -1 -3
-8 1 20 8 0 -3 0 -2
-9 -1 19 8 0 -2 1 -2
-10 -2 19 9 1 -1 1 -2
-9 -1 22 8 2 0 2 -1
-9 -1 21 7 1 -1 2 -3
-9 -1 20 7 1 -1 2 -3
-8 -1 21 7 4 -1 2 -2
-9 -1 20 7 1 0 1 -2
-8 0 20 9 2 0 3 -1
-7 1 20 8 2 0 3 0
-9 0 20 9 2 1 3 0
-10 1 19 9 3 1 3 -1
-10 0 18 7 2 0 3 -1
-8 1 19 7 2 1 3 -1
-9 1 19 8 4 3 4 -1
-11 -1 18 7 3 1 1 -2
-9 -1 19 7 2 1 3 -1
-8 0 19 8 2 2 4 0
-6 1 17 8 3 1 3 0
-5 0 17 7 2 1 3 1
-6 0 17 7 2 1 3 0
-7 1 17 7 1 2 4 1
-6 2 16 6 1 0 3 0
-7 2 17 6 2 1 5 2
-6 5 18 7 3 2 6 1
-6 6 19 7 4 2 6 2
-8 4 20 7 3 1 5 0
-7 5 22 9 4 2 6 1
-6 6 21 9 4 1 5 0
-6 7 24 10 4 2 7 2
-6 8 22 10 4 3 7 2
-7 8 23 11 6 5 8 2
-6 9 23 10 6 5 8 3
-6 10 25 9 6 4 9 3
-8 10 25 9 6 4 8 2
-4 11 26 9 6 4 9 3
-7 10 26 10 5 5 9 3
-6 11 27 11 7 5 11 3
-3 12 25 10 5 4 10 3
-6 10 24 9 4 3 9 3
-7 12 22 9 4 3 11 4
-6 15 21 10 4 5 12 6
-3 17 21 10 7 6 12 6
-1 19 23 10 10 8 14 9
2 21 21 10 10 9 15 8
1 22 20 10 9 8 16 8
1 21 20 10 8 8 16 8
-1 18 20 10 7 7 14 7
-2 18 19 10 7 6 13 7
-3 15 18 9 5 4 12 5
-2 16 16 7 4 4 12 5
-2 16 17 8 5 5 13 5
-2 14 15 8 5 5 12 4
-1 12 15 6 4 6 11 3
-1 11 15 5 6 5 10 3
2 9 15 7 7 5 9 3
3 10 15 6 6 4 10 3
3 9 16 7 7 6 10 4
1 7 14 7 4 5 9 3
-4 3 15 7 3 3 9 1
-7 0 12 2 0 1 6 -2
-6 1 12 1 0 1 5 -3
-8 0 12 1 -1 0 4 -4
-9 -1 13 0 -1 -1 2 -5
-9 -2 13 -1 -2 -3 1 -6
-11 -6 13 -1 -4 -4 0 -8
-9 -7 13 -1 -5 -5 -1 -9
-8 -5 15 -1 -3 -5 0 -7
-10 -7 11 -3 -5 -8 -2 -9
-11 -7 12 -2 -6 -7 0 -8
-11 -8 10 -4 -7 -9 -2 -10
-11 -8 10 -4 -6 -8 -2 -10
-11 -8 10 -4 -6 -8 -1 -10
-14 -10 10 -4 -6 -8 -2 -12
-14 -10 10 -5 -5 -8 -3 -12
-11 -10 12 -3 -5 -5 -2 -12
-11 -11 11 -4 -7 -7 -3 -13
-12 -9 12 -3 -6 -6 -2 -12
-11 -9 11 -1 -5 -6 -1 -11
-11 -11 11 -3 -7 -7 -1 -12
-11 -11 10 -3 -6 -7 -1 -13
-13 -12 11 -3 -4 -6 -1 -13
-12 -11 11 -2 -4 -6 -1 -12
-11 -10 12 -3 -4 -5 -1 -11
-14 -11 10 -4 -5 -6 -2 -13
-14 -13 11 -4 -5 -6 -2 -13
-13 -12 10 -4 -6 -7 -3 -14
-12 -11 13 -2 -5 -6 -2 -14
-13 -11 15 0 -6 -8 -5 -16
-18 -14 24 2 -9 -13 -10 -18
-23 -11 35 7 -10 -16 -12 -22
-27 -9 49 15 -9 -16 -13 -22
-28 -7 61 24 -5 -15 -12 -21
-27 -4 69 33 1 -11 -8 -20
-26 -6 77 46 11 -3 -3 -17
-18 -9 81 61 25 10 3 -14
-2 1 84 83 47 32 21 -3
11 14 78 100 72 60 43 13
28 32 53 94 94 89 67 32
42 46 18 81 113 117 91 48
57 62 -13 73 135 146 115 66
68 81 -51 54 152 173 137 84
76 94 -95 21 158 191 154 98
85 107 -134 -4 163 208 168 109
91 127 -157 -8 187 237 193 128
87 130 -168 -12 202 251 198 129
80 105 -168 -12 198 236 174 107
72 72 -170 -21 171 194 134 76
60 34 -168 -37 127 135 86 42
45 1 -161 -57 78 76 40 12
28 -28 -149 -76 32 24 1 -16
8 -41 -139 -103 -19 -22 -27 -34
-9 -42 -134 -142 -78 -66 -45 -43
-17 -45 -129 -156 -104 -84 -52 -44
-18 -46 -119 -147 -103 -83 -52 -43
-19 -46 -107 -134 -98 -79 -50 -43
-20 -43 -92 -116 -88 -71 -45 -40
-19 -37 -75 -98 -78 -63 -38 -34
-22 -35 -61 -84 -67 -55 -34 -32
-20 -28 -46 -68 -56 -46 -28 -28
-16 -22 -31 -51 -42 -36 -21 -23
-15 -19 -18 -36 -31 -28 -15 -19
-10 -13 -8 -25 -24 -22 -11 -17
-8 -12 -3 -17 -19 -19 -10 -17
-10 -15 -1 -15 -17 -18 -10 -17
-11 -15 2 -14 -16 -17 -10 -16
-10 -15 4 -12 -16 -17 -10 -16
-10 -16 4 -11 -15 -16 -10 -17
-10 -16 5 -12 -15 -16 -10 -17
-14 -18 6 -10 -16 -17 -10 -16
-11 -17 8 -9 -14 -15 -9 -15
-8 -15 9 -8 -13 -14 -8 -14
-9 -14 8 -8 -13 -14 -10 -14
-7 -13 9 -6 -13 -15 -8 -13
-7 -11 9 -7 -12 -16 -8 -13
-8 -12 9 -5 -12 -15 -7 -13
-8 -11 9 -5 -11 -14 -7 -13
-8 -12 9 -8 -11 -15 -6 -14
-6 -12 9 -7 -11 -14 -6 -13
-6 -12 9 -6 -12 -15 -7 -14
-7 -13 10 -6 -11 -14 -5 -12
-6 -12 9 -7 -11 -14 -6 -13
-7 -13 9 -5 -11 -14 -6 -13
-8 -16 9 -4 -12 -15 -7 -15
-8 -14 8 -6 -12 -16 -8 -15
-9 -13 8 -5 -10 -15 -8 -14
-7 -12 9 -4 -11 -15 -8 -15
-8 -12 11 -4 -10 -13 -7 -14
-9 -13 9 -5 -11 -13 -7 -13
-9 -12 10 -4 -11 -14 -7 -14
-8 -14 8 -6 -11 -15 -9 -15
-9 -14 10 -5 -10 -14 -8 -13
-8 -14 9 -4 -12 -15 -9 -14
-8 -15 10 -3 -12 -16 -8 -14
-8 -15 10 -4 -10 -15 -7 -14
-8 -15 9 -4 -10 -15 -8 -14
-8 -15 9 -2 -10 -15 -8 -14
-7 -11 10 -3 -9 -15 -7 -14
-8 -12 9 -3 -8 -14 -6 -12
-7 -11 10 -2 -9 -14 -7 -13
-4 -10 9 -4 -11 -15 -8 -14
-6 -11 8 -4 -11 -15 -8 -14
-6 -10 9 -1 -9 -14 -7 -13
-7 -12 9 -1 -10 -15 -9 -14
-6 -14 8 -1 -10 -14 -8 -14
-6 -12 9 -1 -9 -14 -8 -14
-5 -12 7 -1 -9 -14 -10 -15
-3 -9 10 0 -7 -12 -7 -13
-5 -10 9 -1 -6 -11 -5 -12
-5 -10 9 0 -6 -11 -7 -12
-3 -8 10 0 -5 -12 -7 -12
-3 -9 11 1 -4 -10 -6 -11
-4 -10 9 2 -4 -11 -6 -12
-5 -11 9 3 -5 -12 -8 -12
-6 -12 8 2 -4 -11 -8 -13
-7 -11 9 4 -3 -10 -7 -12
-5 -9 8 3 -5 -11 -7 -12
-5 -11 8 3 -4 -10 -7 -11
-4 -9 8 3 -2 -8 -5 -10
-3 -8 9 5 -2 -8 -6 -11
-2 -8 9 5 0 -7 -5 -9
-2 -8 10 6 0 -7 -4 -9
-2 -8 9 9 0 -7 -5 -10
0 -8 9 10 0 -7 -5 -10
-1 -11 9 12 2 -5 -3 -9
-1 -9 9 13 2 -6 -4 -9
0 -8 8 14 2 -5 -3 -9
-1 -9 10 15 4 -3 0 -7
-3 -10 9 16 6 -1 1 -6
-1 -9 10 20 8 1 3 -4
1 -7 10 21 10 2 4 -2
5 -4 9 22 10 2 3 -3
5 -4 8 23 11 2 3 -4
6 -4 8 25 12 4 3 -4
9 -1 8 27 15 6 6 -2
10 1 8 29 17 8 6 -1
11 1 8 32 22 13 8 1
12 2 7 34 25 16 12 2
11 1 7 36 29 20 14 4
12 2 7 38 30 21 15 4
13 3 6 39 33 23 16 6
15 4 7 43 36 25 19 8
19 8 7 44 37 27 21 9
18 6 5 45 37 26 20 8
19 6 4 43 39 28 21 9
20 9 4 46 41 30 23 12
20 8 2 46 39 29 22 11
23 11 2 45 40 31 25 12
21 11 2 44 41 32 26 15
21 11 2 45 40 31 24 13
24 13 3 44 41 32 26 14
21 10 3 44 42 33 27 14
21 10 2 44 41 33 27 15
23 12 2 44 41 32 26 14
22 11 3 43 42 33 27 15
22 14 2 42 39 32 26 15
22 15 1 41 39 31 26 15
21 13 2 39 38 31 26 16
22 12 1 38 38 31 26 16
22 11 2 36 35 29 23 14
22 12 3 36 35 29 24 15
20 11 4 34 34 28 23 15
18 9 3 32 31 25 21 14
17 7 4 31 30 24 20 13
16 7 3 29 29 22 19 12
16 9 4 28 27 22 19 12
15 10 5 26 26 21 19 13
14 9 5 24 23 18 17 10
15 9 6 23 23 18 18 10
14 9 8 23 22 18 17 9
12 7 8 21 22 16 16 9
13 9 9 19 19 15 15 9
11 7 8 18 16 12 13 7
10 6 9 18 15 11 11 5
9 8 9 16 13 11 11 6
7 5 10 15 12 9 9 4
7 6 9 13 11 9 8 3
7 6 10 13 10 9 8 3
6 7 11 12 9 9 9 3
6 7 12 11 9 8 10 2
4 5 11 9 8 7 9 1
3 4 11 7 7 6 9 1
3 4 11 7 6 5 7 1
2 1 10 7 3 3 5 -1
1 3 9 7 4 3 5 -1
0 1 10 6 3 2 5 0
0 1 8 3 1 1 4 -2
0 3 7 1 0 0 3 -3
0 3 6 0 0 0 3 -3
1 4 8 1 1 1 3 -2
0 4 8 1 2 1 3 -2
-1 1 7 -1 -1 -1 2 -4
1 2 7 -1 -2 -2 0 -3
1 1 7 -2 -3 -3 0 -5
0 0 5 -4 -3 -4 -1 -5
-2 0 7 -3 -3 -2 1 -5
-5 -2 4 -5 -6 -5 -1 -6
-5 -2 4 -6 -6 -5 -2 -5
-4 -1 5 -5 -4 -4 -1 -4
-3 -1 5 -5 -4 -4 -1 -5
-1 -1 6 -4 -3 -4 -1 -5
-3 -2 7 -5 -4 -4 -2 -5
-3 -1 5 -6 -7 -7 -6 -7
-1 -1 7 -4 -8 -7 -4 -7
-2 -1 6 -4 -8 -7 -4 -7
-3 -2 7 -3 -7 -6 -3 -6
-4 -3 5 -5 -8 -9 -5 -8
-5 -5 6 -6 -8 -8 -4 -8
-5 -3 7 -4 -6 -6 -2 -6
-6 -4 7 -4 -7 -7 -3 -6
-4 -3 8 -4 -7 -7 -4 -6
-4 -3 10 -4 -7 -7 -4 -7
-5 -3 10 -2 -7 -7 -5 -6
-4 -2 10 -2 -8 -8 -6 -6
-4 0 9 -2 -8 -8 -6 -6
-4 -1 11 -1 -8 -7 -5 -6
-4 1 10 -1 -7 -8 -6 -6
-5 0 11 -1 -6 -7 -6 -7
-5 -1 10 0 -5 -6 -5 -7
-2 1 11 1 -5 -6 -5 -7
-4 0 11 2 -3 -4 -3 -6
-5 -1 13 3 -2 -3 -2 -6
-4 1 13 4 -2 -3 -4 -5
-4 1 13 6 -3 -3 -3 -6
-2 2 14 4 -1 -2 -2 -5
-3 3 15 4 0 -1 -1 -4
-3 3 13 5 -1 -2 -2 -5
-4 2 14 5 0 0 1 -4
-4 2 13 4 1 0 0 -4
-1 6 13 5 0 0 0 -4
-3 6 14 6 2 1 1 -3
-4 4 13 5 1 1 0 -4
-4 5 14 6 2 2 1 -2
-3 4 15 7 3 2 1 -2
-1 5 14 6 2 2 2 -3
-2 6 15 7 3 3 3 -3
-3 4 14 7 3 3 2 -2
0 7 15 7 3 4 3 -2
0 8 15 6 4 5 5 -1
0 8 15 6 3 4 3 -2
-1 7 15 6 3 3 3 -3
-3 7 16 6 4 4 4 -2
-2 7 14 6 3 4 2 -2
-1 7 15 7 3 4 2 -1
-1 7 15 6 2 4 2 -1
-1 8 16 7 4 5 4 1
-1 9 13 4 1 3 1 -2
-1 8 14 4 2 4 2 -1
0 9 14 4 2 5 2 0
1 9 14 5 2 4 3 -1
0 8 13 3 0 2 1 -3
-1 8 13 3 0 2 1 -3
-2 7 13 4 0 2 1 -2
-1 10 15 6 1 3 2 -2
2 12 14 5 1 3 2 -2
1 10 13 4 -1 3 2 -2
-1 10 15 4 2 4 4 0
-2 9 16 5 4 6 5 0
-1 10 15 5 1 6 4 2
2 13 17 6 2 6 5 2
-2 13 18 5 3 5 5 3
-2 16 17 5 1 5 5 2
-2 15 17 5 1 5 5 3
-1 14 17 5 1 3 5 1
-1 15 17 5 0 3 4 1
-3 14 18 5 0 3 4 2
-5 14 18 5 0 3 5 2
-1 14 19 5 0 4 6 2
-1 14 17 3 -1 4 5 2
-1 16 17 5 1 4 6 3
-1 17 17 4 1 4 8 5
2 20 15 3 1 5 9 8
5 24 15 4 1 5 9 8
6 26 14 3 2 5 9 8
7 27 13 4 1 6 12 9
6 26 13 4 2 6 11 8
6 25 13 4 1 5 9 8
4 25 12 3 0 4 9 6
3 24 12 3 0 4 8 6
5 26 13 3 -1 4 9 6
5 24 13 2 0 4 7 6
5 21 11 1 -1 3 7 3
7 21 12 2 0 4 7 5
7 18 12 1 -2 3 8 5
9 16 10 2 -2 3 7 5
11 21 8 2 -4 2 6 3
9 17 8 1 -3 3 6 3
7 15 9 1 -2 3 6 5
6 13 9 -1 -2 2 6 4
2 11 9 -3 -5 0 3 2
1 8 6 -6 -9 -2 1 0
1 8 7 -4 -8 -2 2 -1
-2 5 9 -4 -8 -3 0 -2
-3 6 9 -4 -9 -4 -1 -3
-4 3 8 -6 -10 -5 -3 -4
-5 1 7 -7 -11 -7 -4 -6
-4 2 7 -8 -12 -8 -5 -7
-5 0 7 -9 -13 -9 -5 -8
-4 0 4 -11 -16 -10 -7 -8
-5 -1 6 -9 -15 -10 -7 -8
-3 -2 4 -11 -15 -11 -8 -9
-4 -1 6 -10 -15 -10 -6 -8
-5 -1 6 -9 -15 -10 -8 -9
-3 -1 5 -10 -16 -12 -9 -9
-3 0 6 -9 -15 -10 -7 -7
-6 -2 5 -9 -15 -10 -8 -8
-3 0 4 -11 -16 -12 -9 -10
-1 2 5 -11 -16 -11 -8 -9
-3 1 7 -9 -14 -9 -6 -8
-1 3 5 -11 -15 -10 -8 -9
-2 0 7 -10 -14 -8 -7 -8
-3 0 6 -9 -16 -9 -7 -8
-2 1 5 -9 -16 -10 -8 -10
-3 -1 4 -10 -17 -10 -9 -11
-1 2 6 -8 -15 -9 -7 -9
-2 2 6 -9 -16 -9 -7 -9
-3 0 6 -9 -16 -10 -8 -10
-2 -1 9 -7 -16 -11 -9 -12
-6 -3 15 -3 -18 -13 -11 -14
-10 -3 27 0 -20 -18 -16 -18
-15 0 40 7 -21 -22 -18 -20
-18 0 51 14 -20 -24 -21 -23
-19 1 61 24 -15 -21 -18 -21
-17 4 68 34 -9 -16 -15 -20
-13 0 73 46 3 -5 -8 -17
-2 4 76 67 22 14 4 -11
12 14 77 90 48 40 25 3
28 31 57 93 73 70 50 20
43 48 23 77 94 102 78 42
59 65 -16 60 112 131 101 59
70 85 -50 45 133 163 128 78
78 98 -91 17 143 186 147 94
84 108 -130 -11 145 203 163 107
90 124 -161 -24 163 229 184 123
90 142 -177 -31 181 253 202 137
85 135 -179 -32 189 255 194 128
79 105 -180 -35 177 227 163 101
71 71 -182 -45 142 176 118 69
58 38 -175 -65 95 114 70 37
40 3 -163 -82 45 55 25 5
22 -21 -149 -97 -1 6 -10 -21
4 -28 -140 -137 -67 -47 -37 -34
-7 -28 -139 -164 -113 -82 -51 -41
-12 -32 -132 -159 -118 -86 -54 -42
-13 -33 -121 -144 -111 -83 -52 -42
-13 -34 -108 -130 -105 -79 -51 -44
-14 -31 -92 -113 -95 -71 -46 -40
-13 -25 -78 -98 -85 -63 -42 -36
-12 -19 -63 -83 -74 -54 -36 -32
-10 -15 -47 -68 -62 -45 -31 -29
-9 -11 -33 -52 -50 -37 -26 -26
-7 -8 -22 -39 -40 -29 -22 -25
-6 -6 -10 -25 -33 -24 -17 -21
-4 -5 -5 -19 -28 -21 -15 -21
-4 -6 -5 -17 -29 -21 -16 -21
-6 -8 -3 -15 -27 -21 -16 -22
-6 -9 -3 -15 -27 -20 -17 -24
-4 -8 -1 -14 -25 -19 -15 -23
-5 -8 0 -15 -24 -19 -16 -25
-6 -8 1 -14 -24 -18 -16 -24
-3 -6 1 -13 -25 -19 -15 -24
-4 -6 2 -12 -23 -18 -14 -23
-4 -5 4 -11 -23 -18 -15 -24
-7 -8 4 -9 -22 -17 -14 -23
-6 -8 5 -8 -22 -15 -13 -22
-5 -7 3 -9 -22 -16 -14 -23
-5 -7 3 -9 -22 -17 -15 -24
-4 -7 3 -8 -19 -14 -13 -23
-5 -8 4 -9 -21 -15 -13 -23
-7 -10 4 -8 -19 -14 -13 -23
-4 -8 4 -8 -20 -14 -12 -23
-4 -9 5 -6 -20 -13 -11 -22
-4 -9 6 -6 -21 -15 -13 -23
-4 -9 4 -5 -20 -14 -12 -22
-5 -10 3 -5 -21 -14 -12 -23
-4 -7 5 -5 -19 -14 -11 -21
-3 -4 4 -5 -19 -14 -12 -22
-3 -5 4 -7 -18 -13 -12 -22
-1 -4 4 -7 -19 -13 -13 -23
-3 -6 4 -7 -20 -13 -13 -23
-4 -7 5 -7 -19 -12 -12 -23
-4 -7 6 -5 -19 -12 -12 -23
-3 -8 5 -6 -21 -16 -14 -25
-2 -7 4 -4 -19 -14 -12 -24
-2 -7 4 -4 -18 -14 -12 -23
-4 -7 4 -3 -18 -15 -12 -23
-3 -4 4 -4 -19 -14 -12 -23
-4 -4 3 -4 -17 -13 -10 -22
-4 -5 4 -5 -19 -14 -12 -24
-2 -4 3 -5 -19 -13 -13 -24
-2 -5 2 -5 -19 -14 -13 -24
-1 -6 3 -5 -19 -13 -12 -24
-2 -8 4 -3 -18 -13 -13 -25
-4 -9 3 -2 -17 -12 -13 -23
-2 -8 2 -2 -17 -12 -12 -23
-3 -8 4 -1 -16 -12 -12 -22
-3 -6 4 -1 -14 -11 -11 -22
-3 -5 4 1 -12 -8 -9 -21
-4 -6 3 -2 -14 -10 -11 -24
-2 -5 3 -1 -14 -9 -10 -23
-1 -5 3 -1 -13 -9 -10 -23
-2 -6 3 1 -12 -8 -9 -22
-1 -6 5 3 -12 -9 -9 -22
-1 -8 3 3 -12 -9 -9 -23
-2 -7 2 3 -12 -10 -10 -24
-3 -7 2 3 -11 -9 -9 -23
-2 -6 3 3 -10 -8 -9 -23
-1 -4 2 4 -8 -6 -8 -21
0 -4 3 4 -8 -6 -8 -21
-1 -6 3 5 -8 -6 -8 -22
1 -4 3 6 -7 -5 -7 -21
1 -5 3 8 -7 -5 -7 -21
0 -6 5 10 -6 -4 -6 -20
2 -5 3 12 -6 -3 -5 -20
1 -5 2 12 -6 -4 -6 -20
2 -4 2 14 -3 -2 -4 -19
1 -4 2 13 -3 -2 -4 -20
1 -4 1 15 -2 0 -3 -18
5 0 4 18 0 2 -1 -16
5 -1 5 20 2 3 1 -15
6 -1 3 19 2 3 -1 -15
9 -2 5 24 6 7 2 -13
8 -2 4 26 6 6 2 -14
10 -1 2 29 8 8 4 -12
9 0 2 31 11 10 4 -11
11 0 1 32 12 11 5 -11
13 4 2 35 15 14 7 -10
13 5 2 37 20 18 11 -7
14 6 3 40 22 20 12 -7
16 8 3 41 27 22 14 -5
16 7 2 44 27 24 15 -5
18 9 2 47 30 27 17 -3
19 9 2 49 31 28 19 -1
21 11 1 49 32 29 19 -1
21 11 0 48 34 30 19 -1
18 9 -1 48 33 30 19 0
19 10 0 49 35 31 21 2
21 12 0 48 36 33 22 2
20 11 1 47 36 33 23 3
19 10 -1 47 36 33 22 3
21 10 0 47 37 34 24 3
20 12 0 47 36 33 24 3
21 12 0 47 35 32 24 3
21 12 -2 45 34 32 24 3
22 14 -1 44 33 32 24 4
23 15 -2 43 32 31 23 4
21 14 -2 41 31 29 21 2
21 15 -2 39 31 30 22 3
19 14 -2 38 29 29 21 2
18 13 -1 35 27 27 20 2
19 12 0 34 27 26 19 2
16 11 1 34 26 26 19 2
19 13 2 33 22 23 17 1
19 11 0 31 21 22 17 0
17 11 1 30 19 21 17 0
16 11 1 27 17 19 15 -1
15 11 1 23 15 17 13 -2
12 9 2 23 14 16 13 -2
11 9 2 20 12 13 12 -3
9 6 3 19 9 12 10 -5
10 7 4 17 9 11 9 -6
9 7 6 17 8 11 10 -4
6 4 5 16 5 8 7 -6
8 5 4 14 4 7 6 -6
6 6 5 13 3 6 6 -6
4 6 5 12 3 5 6 -7
6 9 4 8 0 4 4 -7
4 8 5 7 1 4 5 -7
3 8 4 6 -1 3 4 -6
2 5 6 5 -2 2 3 -7
-1 3 6 4 -3 0 3 -7
-1 5 5 3 -3 1 2 -7
-2 2 4 3 -5 -2 0 -8
-3 1 4 2 -6 -2 0 -9
-2 2 5 2 -7 -3 0 -8
-3 2 5 1 -7 -3 0 -8
-1 4 5 -1 -7 -4 -1 -8
-2 5 4 -3 -8 -5 -1 -9
-3 4 3 -4 -9 -5 0 -9
0 6 3 -6 -9 -6 -1 -10
0 4 3 -6 -10 -7 -2 -10
-3 2 3 -5 -11 -7 -2 -9
-2 2 2 -6 -13 -9 -4 -9
-4 1 1 -8 -14 -11 -6 -11
-5 2 1 -6 -13 -10 -5 -10
-4 1 1 -7 -14 -11 -5 -11
-3 1 0 -9 -14 -11 -5 -11
-2 4 0 -8 -12 -10 -4 -10
-5 1 1 -8 -13 -10 -5 -10
-5 -1 1 -11 -15 -12 -6 -11
-4 -1 3 -10 -13 -13 -5 -9
-5 0 3 -8 -14 -13 -5 -11
-5 0 3 -9 -16 -15 -7 -11
-4 -1 3 -9 -15 -15 -7 -12
-6 -2 2 -8 -16 -15 -7 -12
-6 -3 2 -8 -17 -16 -8 -13
-6 -3 2 -9 -17 -17 -9 -13
-6 -3 2 -9 -16 -16 -8 -12
-7 -3 3 -9 -15 -15 -8 -11
-7 -4 4 -10 -15 -16 -8 -12
-5 -2 6 -8 -13 -14 -7 -10
-6 -1 5 -6 -12 -13 -6 -9
-5 -2 5 -5 -14 -15 -7 -10
-5 -1 4 -5 -15 -15 -8 -11
-8 -2 6 -4 -13 -13 -7 -10
-6 -1 6 -3 -12 -13 -7 -10
-7 -1 6 -3 -12 -14 -8 -10
-10 -3 6 -5 -12 -12 -8 -11
-9 -3 8 -4 -11 -12 -8 -9
-5 -2 9 -2 -9 -11 -7 -9
-5 -1 9 -1 -8 -10 -7 -9
-4 1 9 -1 -7 -9 -5 -9
-6 0 9 0 -9 -10 -6 -10
-5 2 10 1 -7 -9 -6 -9
-4 4 9 3 -6 -8 -4 -7
-5 3 9 2 -6 -8 -5 -8
-6 3 9 3 -5 -7 -4 -6
-7 3 10 4 -3 -5 -4 -6
-5 4 10 3 -3 -5 -4 -7
-5 4 11 3 -3 -5 -3 -7
-6 2 12 5 -1 -3 -3 -5
-4 3 12 5 -1 -4 -2 -5
-7 2 12 5 -2 -5 -3 -6
-6 3 12 5 0 -4 -2 -4
-4 5 12 7 1 -3 -1 -4
-5 5 10 4 -1 -4 -3 -6
-5 5 9 3 -2 -5 -3 -6
-4 5 11 4 0 -3 -1 -4
-5 5 11 3 0 -3 -2 -4
-4 6 12 3 2 -2 -1 -2
-3 5 13 4 2 -2 0 -1
-4 4 10 3 0 -4 -2 -3
-4 4 10 4 -1 -4 -2 -3
-4 5 9 5 0 -3 -1 -2
-3 6 9 4 0 -3 -1 -2
-2 7 10 5 -1 -3 -2 -1
-5 6 10 4 -1 -5 -2 -1
-5 6 9 2 0 -4 -2 -2
-5 6 7 0 -1 -5 -3 -3
-5 5 8 -1 -2 -6 -4 -4
-4 5 9 0 -1 -5 -3 -3
-4 4 8 -1 -3 -5 -3 -2
-4 3 8 0 -2 -6 -4 -2
-4 4 8 1 -1 -6 -4 -2
-4 4 8 0 -2 -7 -4 -3
-4 5 9 0 -1 -6 -3 -3
-4 6 8 0 -1 -4 -2 -1
-5 7 9 0 1 -3 -1 0
-2 10 11 0 1 -2 -1 1
-2 11 11 0 1 -3 -2 0
-2 12 12 1 2 -4 -2 1
-2 12 12 2 1 -4 -2 1
-4 9 12 2 1 -5 -3 1
-4 10 12 3 0 -4 -2 0
-5 11 12 4 2 -4 -1 2
-4 14 14 5 3 -3 0 2
-3 15 14 4 3 -2 0 4
-4 14 16 3 3 0 2 4
-3 14 17 3 4 -1 2 4
0 17 17 2 3 -2 0 3
-2 15 16 2 3 -2 -1 3
-2 16 16 3 3 -2 0 4
-2 16 13 2 2 -4 -2 4
-2 17 12 2 1 -4 -1 4
-1 19 12 2 3 -2 1 6
0 21 10 1 3 -2 2 7
1 21 10 0 4 -1 3 7
2 22 8 1 5 0 5 9
3 25 10 3 8 3 6 12
6 26 10 2 7 2 4 12
3 24 10 1 6 1 3 11
1 22 9 2 5 0 2 10
1 21 9 1 5 -1 1 9
2 19 8 -1 3 -3 -1 6
2 19 7 0 3 -1 0 8
3 17 6 0 3 -1 -1 8
2 14 5 -2 3 -2 -1 7
3 14 4 -1 3 -2 -1 7
5 13 3 -2 3 -2 -1 8
7 14 4 -1 4 -2 -2 8
8 14 6 0 6 -1 0 10
6 11 4 -1 5 -2 0 9
3 10 4 0 3 -3 -2 8
2 9 4 -1 2 -5 -4 6
1 7 2 -3 0 -7 -6 6
1 7 1 -4 -1 -8 -7 4
-3 3 1 -6 -4 -10 -9 3
-5 1 2 -6 -4 -11 -9 2
-6 -1 1 -6 -3 -10 -10 1
-7 -2 2 -8 -4 -12 -12 0
-6 -2 2 -8 -5 -13 -12 0
-6 -4 1 -8 -5 -13 -14 0
-6 -6 0 -10 -7 -16 -15 -1
-5 -5 0 -9 -6 -15 -14 0
-6 -4 0 -9 -7 -15 -15 1
-6 -4 -1 -10 -7 -16 -15 0
-6 -6 -1 -10 -7 -16 -15 0
-8 -8 -1 -10 -7 -16 -15 0
-9 -7 -1 -12 -6 -15 -16 0
-9 -7 0 -12 -6 -15 -15 1
-11 -9 0 -11 -7 -15 -16 0
-8 -8 1 -11 -5 -14 -15 0
-7 -8 -1 -11 -8 -17 -17 -1
-5 -7 -2 -10 -7 -17 -17 -1
-4 -6 -1 -8 -6 -15 -16 -1
-7 -8 -2 -8 -6 -16 -17 -2
-7 -6 -2 -7 -5 -15 -16 0
-7 -9 -2 -8 -4 -16 -16 -1
-8 -10 -1 -10 -5 -15 -15 0
-8 -9 -2 -10 -5 -15 -16 0
-9 -11 0 -9 -4 -15 -16 0
-10 -11 4 -7 -5 -16 -17 -3
-12 -11 11 -5 -10 -21 -22 -6
-18 -10 22 2 -10 -25 -24 -7
-21 -5 37 7 -8 -27 -25 -7
-22 -2 50 18 -5 -26 -25 -7
-22 2 59 28 0 -22 -22 -5
-17 5 68 41 11 -13 -15 -1
-10 3 77 59 26 2 -7 2
0 9 81 82 48 23 8 11
13 23 72 97 73 51 31 26
27 39 44 87 93 79 56 46
43 56 5 72 111 107 81 65
58 72 -33 59 132 137 105 82
70 90 -74 40 150 166 128 100
79 104 -121 9 155 185 146 115
85 115 -160 -16 160 200 160 126
93 135 -183 -22 182 228 180 141
94 148 -197 -28 199 247 194 150
88 127 -197 -27 202 241 176 133
82 92 -198 -30 183 206 140 103
69 53 -195 -40 146 153 94 70
54 13 -186 -58 97 91 45 36
41 -18 -173 -75 49 35 3 7
20 -35 -164 -99 -2 -13 -29 -14
0 -42 -157 -140 -67 -64 -52 -25
-7 -43 -149 -162 -105 -93 -63 -29
-10 -44 -139 -156 -109 -96 -65 -30
-11 -41 -125 -140 -100 -90 -62 -29
-12 -38 -109 -123 -91 -83 -59 -27
-15 -37 -91 -105 -81 -75 -52 -23
-17 -31 -74 -90 -67 -65 -46 -18
-16 -26 -58 -73 -55 -56 -40 -15
-13 -20 -42 -56 -42 -45 -33 -9
-11 -16 -30 -41 -31 -39 -29 -6
-10 -14 -21 -30 -24 -33 -26 -6
-8 -12 -14 -23 -24 -32 -25 -6
-9 -13 -11 -21 -21 -29 -24 -5
-8 -11 -10 -20 -20 -29 -24 -5
-8 -12 -8 -16 -18 -28 -24 -5
-7 -12 -5 -15 -17 -27 -23 -5
-6 -11 -4 -15 -16 -26 -24 -5
-6 -11 -4 -15 -16 -27 -23 -6
-7 -13 -3 -15 -17 -27 -23 -5
-6 -12 -3 -14 -16 -25 -22 -4
-7 -14 -2 -12 -15 -25 -22 -4
-9 -13 -3 -12 -16 -27 -21 -5
-9 -13 -3 -10 -14 -24 -21 -4
-8 -13 -3 -10 -14 -24 -21 -4
-7 -11 -1 -9 -12 -23 -20 -2
-7 -10 -1 -11 -14 -24 -19 -3
-8 -10 0 -10 -13 -22 -19 -3
-6 -9 0 -10 -15 -24 -20 -4
-6 -9 1 -11 -15 -23 -20 -4
-6 -8 0 -11 -15 -23 -20 -4
-5 -9 0 -9 -15 -23 -21 -3
-8 -13 0 -8 -16 -24 -20 -3
-9 -12 -2 -8 -14 -22 -20 -3
-9 -12 -2 -8 -14 -23 -20 -3
-9 -13 -1 -7 -12 -24 -20 -3
-8 -12 -1 -9 -13 -24 -19 -3
-7 -13 0 -10 -12 -22 -20 -3
-6 -12 2 -9 -13 -22 -19 -2
-5 -10 2 -8 -14 -22 -20 -2
-5 -10 1 -9 -14 -22 -20 -4
-5 -11 1 -7 -13 -21 -20 -2
-7 -13 0 -8 -15 -24 -21 -3
-7 -13 -1 -8 -14 -23 -21 -4
-3 -11 0 -8 -14 -24 -22 -5
-9 -12 1 -7 -13 -23 -20 -3
-10 -13 1 -8 -13 -22 -20 -3
-9 -12 2 -7 -12 -20 -19 -3
-9 -13 1 -8 -14 -22 -20 -4
-7 -12 2 -7 -13 -21 -19 -2
-8 -12 1 -7 -13 -22 -20 -4
-6 -12 2 -5 -11 -21 -20 -3
-5 -10 1 -5 -13 -22 -20 -4
-5 -10 1 -4 -12 -20 -20 -3
-5 -10 1 -5 -11 -21 -21 -4
-6 -10 1 -5 -10 -20 -20 -3
-9 -12 1 -5 -9 -19 -19 -3
-6 -12 3 -4 -7 -18 -19 -4
-5 -11 3 -4 -8 -19 -20 -4
-5 -10 3 -4 -7 -18 -19 -2
-2 -10 4 -3 -7 -17 -17 -1
-3 -11 3 -2 -7 -18 -18 -1
-5 -11 3 0 -6 -18 -17 0
-3 -9 2 1 -5 -16 -17 1
-3 -10 2 0 -6 -17 -17 0
-4 -10 3 2 -6 -15 -16 1
-4 -9 2 1 -5 -15 -17 1
-6 -11 4 2 -4 -14 -17 1
-4 -9 5 4 -4 -14 -15 1
-4 -9 5 5 -4 -13 -15 2
-3 -10 6 6 -2 -13 -15 1
-3 -10 6 7 -2 -13 -14 1
-4 -11 5 9 -3 -14 -14 1
-1 -8 5 10 -1 -11 -13 2
0 -8 6 11 2 -11 -11 3
-3 -9 5 13 3 -9 -11 3
-2 -8 6 14 4 -8 -10 4
-2 -9 6 14 5 -8 -10 3
0 -9 7 15 5 -8 -9 3
1 -7 8 18 7 -5 -7 5
1 -7 7 20 7 -4 -7 4
2 -8 7 23 9 -4 -7 5
2 -7 7 26 12 -3 -5 6
3 -6 6 28 15 0 -4 7
6 -4 8 31 18 3 0 9
6 -2 8 34 21 6 1 9
7 -1 8 34 24 9 3 11
10 0 9 37 27 13 4 12
11 0 8 40 29 14 6 14
11 2 8 43 33 18 9 15
11 2 8 45 33 20 10 16
12 1 6 46 35 20 9 17
13 3 6 48 36 20 11 17
13 4 5 48 38 23 13 19
17 8 4 48 40 25 15 21
17 9 5 49 42 26 16 23
16 10 4 48 42 27 17 23
17 11 5 48 43 29 18 23
17 10 4 46 42 27 17 24
18 10 2 45 42 27 17 24
20 12 2 46 42 29 19 25
18 9 1 46 42 27 18 26
16 8 0 45 40 25 17 25
18 9 -2 43 40 26 18 25
16 9 -1 42 41 25 17 25
16 9 -2 41 39 26 18 26
16 10 -2 39 38 24 18 25
16 11 -2 37 38 25 17 25
18 13 0 36 36 24 17 26
17 12 0 35 34 24 17 24
18 12 -1 32 32 21 15 24
15 9 -1 30 30 19 13 23
9 6 -2 29 29 17 12 23
11 7 -3 27 27 17 12 22
10 5 -3 25 24 15 10 21
7 4 -1 24 24 15 11 22
8 6 0 22 21 13 9 20
7 5 -1 18 19 12 8 19
7 5 2 17 19 10 7 19
6 4 3 18 19 10 7 19
5 5 3 16 16 7 5 17
5 4 3 15 15 6 4 17
3 3 3 12 12 4 2 16
2 3 2 12 12 5 3 17
2 5 1 10 11 3 2 16
0 2 1 9 9 2 0 15
0 3 0 7 7 0 -1 13
0 2 1 6 7 1 0 14
1 3 2 5 5 0 -1 13
0 4 3 4 5 -1 -2 14
-2 2 4 4 5 -2 -2 14
-1 2 3 4 4 -3 -2 13
0 3 2 2 3 -5 -3 13
-2 2 1 -1 2 -5 -4 13
-2 3 1 -1 2 -5 -2 13
-2 2 -1 -3 0 -7 -4 11
-4 1 -2 -5 0 -7 -5 11
-4 2 1 -5 1 -6 -3 13
-5 1 0 -5 0 -6 -3 13
-8 -3 0 -6 -3 -8 -5 11
-8 -3 0 -6 -2 -8 -5 12
-7 -3 -1 -7 -3 -9 -5 10
-3 -1 -1 -6 -2 -9 -4 12
-4 -1 -1 -6 -2 -8 -4 12
-7 -2 -2 -8 -4 -10 -6 11
-8 -3 -2 -8 -2 -8 -5 11
-9 -4 -2 -10 -3 -10 -6 11
-6 -3 -3 -10 -5 -10 -6 11
-5 -3 -3 -10 -6 -10 -6 10
-7 -6 -4 -10 -7 -12 -7 10
-7 -5 -4 -11 -9 -12 -7 9
-7 -5 -3 -10 -9 -12 -8 9
-7 -5 -3 -10 -8 -12 -8 9
-6 -4 -2 -8 -6 -10 -7 10
-8 -6 -3 -9 -6 -12 -8 8
-6 -6 -4 -10 -7 -13 -9 8
-3 -3 -3 -10 -8 -12 -8 8
-7 -4 -1 -10 -8 -11 -8 8
-7 -5 -2 -10 -8 -11 -9 7
-9 -6 -1 -9 -10 -12 -10 7
-8 -6 0 -8 -9 -12 -9 6
-7 -6 1 -7 -9 -11 -9 8
-8 -6 0 -8 -10 -13 -10 6
-8 -5 2 -6 -8 -11 -8 7
-9 -5 2 -5 -9 -11 -9 6
-9 -6 2 -5 -7 -11 -9 6
-7 -3 3 -5 -6 -11 -9 6
-7 -3 5 -5 -5 -10 -9 6
-7 -4 6 -4 -6 -10 -9 6
-7 -4 5 -4 -6 -9 -9 6
-9 -5 5 -4 -8 -10 -10 5
-8 -5 6 -2 -6 -8 -8 7
-8 -4 7 -2 -6 -9 -10 5
-8 -4 5 -2 -6 -9 -10 4
-9 -3 7 -1 -4 -9 -9 4
-12 -7 8 1 -2 -7 -7 6
-10 -4 8 0 -3 -7 -8 6
-5 0 10 1 0 -5 -6 7
-7 -2 10 1 -2 -6 -7 5
-8 -2 11 2 0 -4 -6 6
-7 -3 10 2 -1 -5 -6 6
-7 -2 10 3 1 -5 -6 5
-7 -2 11 3 2 -5 -7 5
-10 -3 10 3 1 -4 -6 6
-10 -3 9 3 1 -4 -6 6
-9 -1 11 3 3 -3 -5 7
-8 -2 11 3 4 -3 -5 6
-7 0 11 4 3 -2 -4 7
-6 0 11 2 3 -3 -5 7
-8 0 12 3 3 -3 -5 6
-6 2 11 4 4 0 -4 7
-7 1 10 4 3 -2 -5 6
-8 0 11 5 3 -2 -4 7
-8 0 9 4 1 -2 -4 8
-9 -2 8 2 0 -2 -4 6
-8 0 9 2 0 -3 -4 6
-7 0 8 2 3 -2 -3 8
-7 2 8 2 3 -2 -3 7
-6 3 8 1 1 -2 -3 7
-5 2 9 1 0 -3 -4 6
-5 1 9 4 2 -2 -3 8
-6 2 9 3 2 -2 -4 6
-5 1 7 2 -1 -3 -4 6
-5 2 6 1 -2 -4 -5 5
-7 1 5 0 -2 -3 -4 5
-8 1 6 0 -2 -4 -4 5
-5 2 5 -1 -2 -3 -4 5
-7 2 6 0 -1 -2 -3 6
-7 2 7 1 0 -2 -3 6
-4 4 9 3 0 -1 -3 7
-6 5 9 4 3 0 -1 7
-4 7 9 3 1 0 -2 7
-3 8 10 5 1 1 -1 7
-4 7 10 5 0 1 -1 7
-5 8 9 3 2 0 -1 6
-4 8 10 3 1 0 -1 6
-4 10 11 5 1 2 0 8
-6 11 14 4 3 2 1 9
-8 7 14 6 3 3 1 8
-7 9 15 6 3 2 1 8
-7 9 15 7 3 3 2 9
-6 11 16 7 3 4 3 9
-4 12 14 7 2 4 2 9
-5 11 13 4 2 3 1 8
-3 15 11 4 2 3 2 9
-3 17 12 4 1 5 4 11
-2 17 9 2 0 4 3 10
0 18 8 1 1 4 4 11
2 20 8 3 2 6 6 13
1 21 8 3 3 7 7 14
4 23 6 4 4 8 7 15
5 20 6 3 3 7 7 14
5 21 7 5 4 7 6 13
2 20 6 2 2 6 4 12
0 19 5 1 1 5 4 12
2 18 6 2 3 5 4 10
2 17 6 2 3 6 5 11
2 16 5 0 1 5 4 10
3 15 3 -1 0 4 4 10
4 12 2 -1 -1 3 3 9
6 12 1 0 0 3 2 9
5 11 1 0 0 3 3 10
3 7 0 0 -2 3 2 9
3 7 0 -1 -3 2 1 9
1 5 0 -1 -3 1 0 7
0 6 0 -3 -5 0 -1 6
-1 6 1 -2 -4 0 0 7
-3 5 1 -5 -5 -1 -2 5
-5 2 1 -6 -7 -3 -4 3
-8 -3 0 -7 -10 -4 -5 -1
-9 -5 -1 -8 -10 -6 -7 -3
-7 -5 -2 -8 -11 -7 -8 -5
-7 -6 -2 -8 -12 -6 -8 -6
-10 -7 -3 -10 -13 -7 -9 -6
-7 -6 -4 -9 -13 -7 -8 -8
-7 -7 -3 -10 -13 -8 -9 -8
-6 -6 -4 -10 -14 -7 -10 -9
-7 -5 -5 -12 -14 -9 -9 -8
-8 -7 -5 -12 -15 -9 -9 -9
-7 -6 -2 -9 -13 -7 -8 -8
-6 -6 -5 -11 -14 -8 -9 -9
-7 -7 -4 -11 -13 -8 -9 -9
-7 -7 -5 -11 -15 -9 -9 -9
-8 -8 -5 -12 -16 -8 -9 -10
-7 -7 -6 -11 -16 -8 -9 -12
-10 -8 -4 -10 -15 -8 -8 -12
-8 -7 -5 -10 -15 -7 -8 -13
-6 -5 -4 -11 -14 -7 -8 -11
-7 -6 -4 -10 -14 -6 -8 -12
-7 -7 -4 -9 -15 -7 -8 -13
-5 -6 -4 -9 -14 -7 -8 -12
-7 -6 -4 -9 -14 -7 -8 -13
-5 -5 -2 -7 -13 -7 -8 -13
-8 -7 0 -7 -16 -10 -11 -16
-13 -8 8 -5 -17 -12 -13 -18
-18 -6 21 1 -17 -16 -15 -19
-25 -5 34 8 -17 -18 -17 -20
-28 -3 47 16 -15 -17 -16 -21
-23 1 57 29 -7 -11 -11 -17
-21 1 67 42 4 -2 -7 -16
-12 2 79 64 21 13 2 -11
0 12 81 87 45 35 18 -1
13 27 70 95 66 61 41 16
28 44 38 81 84 88 65 34
42 60 1 67 104 117 90 52
56 76 -36 56 124 146 112 69
67 93 -79 37 141 175 136 87
78 106 -129 3 147 193 155 103
85 119 -166 -19 154 211 169 115
92 138 -189 -24 175 237 190 130
95 149 -203 -27 191 255 200 138
89 124 -205 -24 192 245 180 118
77 87 -203 -29 169 205 139 83
68 46 -199 -38 131 151 92 48
57 8 -189 -54 85 92 45 15
40 -23 -178 -73 38 37 3 -14
22 -39 -167 -99 -11 -8 -25 -33
4 -44 -157 -139 -73 -57 -48 -44
-6 -48 -147 -160 -113 -85 -61 -49
-12 -49 -137 -155 -118 -89 -63 -50
-14 -47 -122 -139 -108 -81 -58 -46
-11 -39 -104 -118 -95 -71 -51 -42
-12 -34 -85 -99 -82 -63 -45 -37
-13 -27 -68 -82 -69 -52 -37 -33
-12 -21 -51 -64 -53 -40 -29 -28
-9 -16 -38 -49 -43 -32 -24 -25
-8 -13 -24 -36 -34 -23 -19 -22
-7 -11 -17 -27 -26 -19 -16 -20
-8 -14 -13 -21 -25 -19 -17 -20
-6 -13 -11 -19 -25 -20 -17 -21
-6 -13 -10 -18 -23 -19 -16 -21
-7 -13 -9 -18 -23 -19 -17 -22
-7 -13 -7 -16 -21 -18 -16 -21
-8 -13 -5 -15 -19 -16 -14 -19
-8 -13 -4 -16 -19 -16 -14 -19
-5 -12 -2 -13 -18 -16 -14 -19
-6 -12 -2 -13 -18 -15 -13 -18
-7 -13 -2 -12 -18 -16 -13 -18
-8 -14 -2 -11 -19 -16 -14 -18
-8 -15 -3 -11 -18 -15 -13 -17
-6 -12 -3 -11 -16 -14 -13 -15
-7 -13 -3 -10 -16 -14 -13 -15
-9 -13 -1 -10 -17 -14 -13 -15
-7 -12 -1 -9 -16 -13 -12 -13
-7 -12 0 -10 -16 -14 -13 -15
-4 -11 0 -9 -16 -15 -13 -15
-3 -9 1 -10 -15 -15 -12 -14
-2 -10 0 -8 -16 -15 -12 -14
-3 -8 1 -6 -16 -15 -13 -14
-4 -10 0 -6 -16 -16 -13 -14
-5 -10 -2 -9 -17 -16 -14 -15
-5 -10 -3 -8 -17 -17 -14 -15
-6 -12 -1 -7 -16 -16 -14 -14
-5 -11 0 -8 -15 -15 -13 -14
-6 -11 1 -8 -15 -15 -13 -14
-5 -12 2 -7 -15 -16 -13 -14
-3 -11 3 -8 -15 -16 -13 -13
-6 -12 3 -6 -14 -15 -13 -13
-5 -12 2 -7 -16 -17 -14 -15
-2 -10 2 -5 -15 -16 -14 -14
-4 -10 1 -6 -16 -15 -13 -14
-4 -11 1 -6 -16 -16 -13 -14
-4 -11 1 -7 -18 -17 -14 -15
-4 -11 2 -6 -15 -16 -13 -15
-4 -10 3 -6 -14 -15 -12 -16
-7 -14 5 -3 -13 -14 -12 -15
-6 -12 5 -4 -13 -14 -12 -16
-5 -11 5 -2 -12 -12 -11 -15
-5 -13 5 -1 -11 -13 -12 -16
-3 -11 5 -1 -11 -12 -11 -15
-4 -10 4 -1 -10 -12 -11 -15
-3 -11 3 -1 -11 -13 -11 -15
-3 -10 4 -2 -11 -12 -11 -15
-6 -11 4 -2 -10 -11 -11 -14
-5 -10 4 -3 -11 -12 -12 -16
-4 -10 5 -1 -11 -12 -12 -16
-4 -11 4 -3 -11 -12 -12 -17
-4 -11 5 0 -9 -10 -12 -16
-4 -12 5 1 -8 -11 -12 -17
-2 -11 5 2 -8 -9 -12 -16
-2 -9 5 2 -7 -7 -10 -14
-3 -10 5 4 -6 -8 -11 -14
-1 -8 5 4 -7 -8 -12 -15
1 -6 6 5 -4 -6 -9 -13
0 -6 8 5 -4 -6 -9 -13
-1 -7 9 7 -4 -6 -9 -12
-2 -9 8 6 -3 -5 -9 -13
-2 -10 8 8 -3 -5 -8 -12
0 -9 9 9 -4 -6 -9 -13
-1 -9 9 12 -2 -5 -8 -12
0 -8 9 13 0 -3 -6 -9
1 -7 10 14 2 -3 -6 -9
2 -6 10 15 2 -2 -6 -8
2 -5 10 16 4 0 -3 -6
2 -4 12 18 6 1 -2 -6
3 -3 13 20 7 2 -2 -5
4 -3 13 21 7 4 -1 -4
4 -6 12 24 9 5 0 -3
5 -5 12 28 11 6 0 -2
5 -1 12 30 13 9 2 -1
5 -1 11 33 16 11 4 1
8 0 12 35 19 13 6 3
9 0 11 34 21 14 7 3
10 2 11 38 24 18 9 5
11 4 12 40 27 21 11 7
12 5 11 42 29 21 12 7
12 6 9 42 31 22 13 8
12 5 9 45 33 25 15 10
13 6 9 46 34 26 16 12
15 9 7 47 35 27 17 12
13 9 7 48 37 29 19 13
12 10 7 47 40 30 19 14
13 11 6 45 40 31 22 15
14 12 5 46 40 33 23 17
15 13 6 48 42 34 24 19
17 13 7 48 42 34 24 20
17 13 4 44 40 33 23 20
20 14 4 45 41 33 23 20
19 13 5 45 40 33 24 22
19 14 3 44 39 32 24 21
21 15 2 42 40 33 24 22
21 14 3 42 39 33 24 22
22 15 3 41 37 33 24 22
22 14 3 40 39 34 25 22
22 13 5 39 39 34 25 24
23 15 6 39 37 32 25 23
22 13 4 35 34 30 24 22
19 14 3 33 32 28 22 21
19 15 3 32 30 27 21 21
19 14 2 31 28 25 20 19
18 13 3 29 27 25 20 19
16 10 4 28 26 23 18 18
15 10 4 24 22 21 17 16
15 11 5 23 23 21 17 15
13 9 6 20 21 19 16 15
12 8 6 19 19 18 14 14
12 8 7 18 18 18 14 14
11 8 7 16 16 17 12 13
12 9 8 17 16 16 12 13
12 10 7 15 14 14 11 11
11 9 7 13 14 14 11 12
9 7 8 12 11 12 9 11
5 6 8 10 10 11 8 10
7 8 9 9 10 11 9 10
8 7 9 8 9 10 8 10
7 6 8 6 7 8 7 9
6 6 9 6 7 8 7 11
6 7 8 5 6 7 5 9
6 6 8 4 4 5 4 8
7 9 6 2 3 4 4 8
5 7 7 1 3 4 5 9
4 7 7 1 2 3 4 9
6 10 6 -2 1 3 4 8
3 7 6 -2 2 3 4 8
4 8 7 -2 3 3 4 9
2 7 6 -3 2 3 3 8
3 5 6 -5 1 2 4 8
5 5 5 -5 0 1 3 6
6 5 5 -4 -2 0 2 5
5 7 6 -2 0 2 4 8
5 6 4 -4 -1 1 3 7
5 5 4 -4 -1 -1 2 6
7 7 5 -4 0 1 3 7
5 7 5 -4 1 2 4 8
3 6 6 -6 0 0 2 7
4 6 5 -6 -2 -1 1 6
3 3 6 -6 -1 0 1 6
4 4 6 -5 0 0 1 6
5 3 6 -5 -2 -1 1 7
2 1 7 -3 -1 -1 1 7
2 2 6 -5 -2 -1 1 6
3 2 7 -4 -3 -2 0 6
6 3 8 -3 -2 -2 0 6
6 6 8 -3 -2 -1 1 6
6 4 8 -4 -3 -3 -1 5
5 4 10 -3 -2 -2 0 6
3 4 9 -4 -2 -4 -1 5
2 3 11 -2 -3 -3 -1 6
2 3 12 -2 -2 -3 -2 7
2 2 11 -2 -4 -3 -3 4
1 2 12 -2 -3 -2 -2 5
2 2 12 -1 -3 -3 -3 4
0 1 13 -2 -2 -2 -3 5
3 4 14 -1 -2 -2 -1 5
1 2 15 -1 -2 -1 -2 5
0 1 14 1 -2 -2 -2 4
1 2 16 2 -1 0 0 6
4 4 16 2 -2 -1 -1 5
4 3 17 2 0 -1 -2 5
4 5 17 4 -1 -1 -2 4
2 3 17 2 -2 -1 -2 4
2 4 18 4 -1 0 -2 5
2 4 18 3 0 0 -2 5
3 6 19 4 2 0 0 5
3 6 19 3 2 1 0 6
1 5 20 4 2 1 0 6
2 8 19 4 2 1 -1 5
2 7 21 6 3 2 1 7
2 6 20 5 2 2 0 7
4 8 21 8 3 2 1 6
4 8 20 5 2 2 0 6
1 7 19 6 3 2 0 6
1 7 20 6 3 2 0 6
0 7 19 6 3 2 1 6
0 6 22 6 4 3 1 6
1 7 21 6 4 3 1 5
0 6 21 5 5 3 1 6
2 8 21 6 4 3 1 6
2 7 20 7 3 1 0 6
0 8 19 5 3 1 0 6
0 8 18 5 3 1 0 5
1 7 17 5 2 0 -1 4
1 7 17 6 2 1 0 5
-1 6 17 7 3 1 -1 5
-4 3 18 6 3 2 1 7
-2 5 18 7 3 2 2 7
-1 5 17 6 2 2 1 7
-1 5 17 7 2 3 0 7
2 7 17 8 2 2 1 7
0 7 15 6 1 1 0 6
-1 7 17 6 2 2 1 7
-2 7 16 5 1 1 0 7
-1 7 15 4 0 0 -1 6
-1 7 16 5 2 1 0 7
-3 6 16 6 0 0 0 6
-4 4 14 4 0 -1 -1 5
-2 4 14 4 1 -1 -1 6
-2 3 14 3 -1 -1 -2 5
-1 3 14 4 -3 -2 -3 4
-3 2 13 3 -3 -2 -3 4
-3 2 12 4 -2 -2 -2 5
-2 4 13 2 -2 -3 -2 4
-3 3 13 2 -3 -2 -2 5
-4 3 12 1 -4 -4 -4 4
-2 3 12 1 -4 -4 -3 4
-4 1 12 0 -5 -4 -4 4
-4 1 14 1 -4 -3 -3 5
-2 3 13 1 -4 -4 -4 5
-6 1 14 3 -4 -4 -4 4
-4 3 15 3 -2 -2 -2 6
-4 5 16 4 -1 -1 -1 7
-3 7 16 4 -2 -2 -1 6
-1 9 17 5 -1 0 0 8
-4 8 18 5 0 1 1 8
-4 10 20 7 2 2 3 9
-4 9 20 7 1 1 1 7
-6 10 20 7 2 1 1 7
-1 13 21 7 3 2 3 8
-2 11 21 9 2 2 2 8
-3 11 20 9 0 1 1 7
-2 12 21 8 1 3 2 8
-3 12 22 8 2 3 2 9
-2 13 20 7 0 2 2 8
-2 14 20 6 1 3 2 10
0 15 19 4 1 3 3 11
2 19 18 6 3 4 4 12
3 21 18 8 4 6 6 14
4 21 16 5 4 6 6 14
4 24 16 6 5 7 7 16
3 22 15 6 4 7 6 15
4 21 15 7 4 6 6 14
4 21 16 6 4 6 5 14
3 22 15 7 3 5 5 13
3 22 15 5 3 6 5 14
3 19 15 5 2 5 4 13
5 19 15 5 2 4 3 12
8 20 14 4 2 4 3 12
8 16 13 3 2 4 2 12
10 16 13 4 1 2 3 10
8 13 11 3 0 3 2 10
8 12 9 3 -1 2 2 10
9 13 11 4 1 3 2 11
6 9 11 3 0 2 2 9
1 6 11 4 1 2 2 9
1 7 10 2 -3 -1 -1 7
0 6 10 1 -4 -2 -1 6
0 6 11 0 -3 -2 -2 6
-1 5 12 1 -4 -3 -4 6
-3 2 10 -1 -7 -6 -6 2
-3 0 11 -2 -7 -6 -6 2
-4 -2 9 -3 -9 -5 -7 1
-5 -4 10 -3 -9 -6 -8 1
-4 -4 9 -4 -10 -7 -9 0
-5 -3 8 -5 -11 -7 -8 0
-3 -3 9 -4 -11 -7 -8 0
-4 -4 10 -3 -10 -7 -8 0
-4 -3 9 -4 -10 -7 -9 0
-3 -2 10 -4 -10 -6 -9 2
-2 -4 9 -4 -12 -7 -10 1
-1 -3 8 -4 -11 -7 -10 1
0 -2 10 -3 -9 -6 -8 3
-1 -2 9 -4 -10 -6 -9 2
0 -2 9 -2 -10 -6 -8 1
-2 -2 7 -4 -10 -7 -9 1
-2 -3 9 -3 -9 -6 -8 2
-2 -3 9 -3 -9 -6 -8 2
-1 -3 9 -3 -10 -6 -8 3
0 0 11 -3 -8 -4 -7 4
1 -1 10 -1 -9 -6 -8 4
-1 -3 8 -3 -9 -6 -8 5
-1 -4 10 -1 -9 -5 -8 7
-1 -3 11 -1 -8 -6 -9 5
-3 -4 16 1 -10 -9 -11 5
-8 -5 24 2 -13 -12 -15 2
-17 -5 38 8 -13 -14 -17 1
-18 -1 53 17 -11 -15 -17 1
-16 5 65 29 -4 -11 -14 4
-16 7 74 42 4 -5 -10 6
-11 7 84 58 14 5 -4 9
-2 6 92 80 34 22 7 15
13 20 88 97 57 45 25 27
27 38 69 97 75 71 48 46
40 54 37 81 94 99 74 67
58 71 0 71 114 127 97 84
70 86 -37 54 131 154 118 101
80 102 -82 30 145 180 141 120
93 116 -128 -2 148 195 157 134
97 129 -161 -18 158 214 172 144
100 147 -182 -22 179 240 192 160
103 147 -193 -26 190 248 193 161
94 114 -195 -23 183 227 163 132
85 78 -191 -30 155 184 121 101
76 37 -185 -42 114 126 73 66
60 2 -175 -61 65 68 27 34
46 -21 -163 -81 22 20 -8 9
27 -32 -150 -107 -30 -25 -33 -5
10 -36 -139 -142 -87 -67 -52 -14
3 -38 -130 -152 -110 -83 -58 -14
-3 -40 -116 -142 -107 -83 -58 -15
-2 -35 -101 -122 -97 -74 -52 -11
-4 -29 -82 -102 -85 -65 -47 -7
-6 -24 -64 -84 -73 -55 -39 -1
-4 -16 -47 -66 -57 -43 -30 5
0 -9 -31 -49 -45 -32 -24 9
4 -3 -17 -35 -33 -23 -18 13
6 0 -6 -22 -25 -17 -14 15
5 -1 0 -15 -21 -14 -13 16
7 -1 1 -12 -21 -14 -14 14
6 -2 4 -9 -20 -14 -13 16
5 -3 4 -9 -19 -15 -13 15
6 -3 6 -7 -18 -15 -12 18
5 -4 6 -8 -16 -13 -11 18
5 -4 8 -8 -16 -13 -11 20
6 -2 9 -6 -15 -12 -10 20
4 -3 11 -6 -15 -12 -11 21
6 -2 13 -4 -14 -11 -10 23
6 -2 13 -3 -15 -13 -10 22
6 -3 11 -3 -16 -14 -11 20
7 -3 10 -3 -16 -13 -11 20
6 -4 9 -3 -16 -14 -11 20
6 -1 10 -2 -16 -13 -10 20
7 -1 11 -2 -13 -11 -9 20
5 -2 12 -2 -13 -11 -9 21
6 -1 13 -1 -14 -11 -9 20
5 -2 14 -1 -13 -11 -9 19
6 -3 15 1 -12 -10 -9 19
8 -2 16 2 -14 -11 -9 19
6 -3 15 1 -15 -11 -10 17
7 -2 14 1 -15 -11 -10 17
10 1 13 2 -13 -11 -8 18
8 0 12 1 -14 -13 -9 16
7 -1 12 0 -13 -11 -8 16
4 -2 13 0 -13 -11 -8 17
6 -1 14 0 -13 -11 -9 16
8 -1 16 1 -13 -11 -9 16
7 -3 15 2 -12 -11 -9 15
9 0 16 3 -12 -12 -9 16
10 -1 15 3 -14 -12 -8 14
9 -2 14 3 -14 -12 -8 14
9 -1 14 4 -13 -11 -8 14
8 -2 14 4 -14 -12 -9 13
7 -1 14 3 -12 -10 -7 14
8 0 15 3 -12 -10 -8 13
8 0 15 3 -13 -11 -8 12
8 0 17 3 -12 -10 -8 12
7 -1 17 6 -10 -9 -7 13
6 -3 17 6 -12 -11 -8 13
8 -3 15 5 -13 -11 -9 12
8 -2 15 6 -12 -10 -8 13
8 -1 15 8 -10 -8 -7 15
10 1 16 8 -11 -9 -7 15
7 -1 15 7 -10 -8 -7 15
7 0 16 7 -8 -7 -6 18
8 0 17 7 -9 -8 -7 16
7 0 18 8 -7 -7 -6 16
8 1 18 8 -7 -6 -5 17
7 -1 18 9 -9 -8 -7 15
8 -1 17 9 -9 -8 -6 14
8 -1 17 11 -7 -6 -5 16
7 -2 15 12 -7 -6 -6 16
10 2 16 12 -7 -6 -5 15
10 2 16 10 -5 -4 -4 17
10 2 17 11 -5 -5 -4 18
11 3 18 12 -3 -4 -3 17
11 2 20 13 -3 -3 -3 18
11 2 19 14 -2 -3 -2 18
11 1 20 16 -4 -4 -3 18
9 -1 18 16 -5 -4 -4 15
9 1 19 18 -2 -2 -3 17
10 1 18 20 -1 -2 -2 17
11 2 19 21 -1 -1 -1 19
12 4 19 22 2 2 0 20
13 3 20 23 3 2 1 21
15 4 22 25 5 4 2 22
14 6 22 26 5 4 2 21
13 5 22 29 8 7 3 23
15 5 22 32 9 6 3 24
16 5 21 33 10 7 4 23
15 5 20 35 12 8 5 22
16 6 21 39 16 12 9 25
16 7 20 40 17 13 10 26
16 6 20 42 22 17 12 26
18 9 21 44 25 20 14 29
21 10 22 47 28 23 16 30
24 12 22 49 30 24 17 30
24 14 21 51 32 26 19 31
24 13 21 54 34 29 20 32
26 14 20 54 35 29 21 32
25 14 16 54 35 29 21 31
26 16 15 54 39 31 22 32
27 17 16 55 42 33 25 34
27 17 15 55 42 35 26 34
26 18 15 55 42 36 27 35
27 17 16 55 43 37 28 35
29 19 15 53 41 36 27 34
31 21 14 53 42 38 28 35
30 19 13 53 41 36 28 36
31 21 13 53 41 38 28 37
30 23 12 52 42 38 29 37
29 21 9 50 41 37 28 35
28 21 8 48 38 35 27 33
27 21 9 46 39 36 27 34
25 20 8 45 39 36 27 35
26 19 10 44 38 36 28 35
28 20 10 43 36 35 27 34
29 22 11 43 35 35 27 34
29 22 10 42 32 33 25 33
29 21 10 40 32 32 25 33
28 21 9 39 30 30 24 31
25 20 8 37 27 29 23 31
24 20 9 35 27 27 22 31
23 19 10 31 25 26 22 30
21 17 10 30 24 25 22 28
22 19 12 29 23 24 21 28
21 17 12 27 21 22 20 27
17 13 11 26 18 20 17 23
16 13 12 25 16 19 16 23
15 14 12 25 16 18 16 23
16 15 12 23 15 17 15 22
15 16 11 22 15 16 15 21
14 13 11 20 12 14 13 20
14 14 12 18 13 14 13 20
13 12 12 16 12 13 12 19
11 11 13 14 11 13 12 18
11 11 13 13 9 12 12 19
10 10 14 11 7 11 10 19
8 8 12 11 6 9 9 17
7 9 12 10 6 9 9 17
7 8 9 8 3 7 7 16
7 8 9 8 4 7 8 16
8 9 9 6 3 6 9 17
6 9 8 4 3 6 7 15
7 10 10 5 5 8 9 17
7 10 10 4 4 7 9 16
7 9 9 3 2 6 7 15
7 8 9 3 1 6 7 14
4 4 9 3 0 4 6 14
4 5 7 2 -1 4 5 15
5 6 7 1 -1 3 5 17
5 8 7 2 0 4 6 19
6 8 7 2 1 3 7 20
5 8 5 -1 -1 2 6 18
5 8 5 -1 0 3 6 20
6 8 6 0 0 4 5 20
5 6 7 0 0 3 6 20
5 6 7 1 -1 3 5 20
4 4 6 1 -2 2 4 20
4 4 7 1 -2 2 4 20
4 6 6 1 -2 1 4 20
3 3 6 0 -2 0 3 19
1 2 5 0 -2 -1 3 18
2 4 6 0 -3 -1 2 17
1 3 7 1 -2 1 4 18
3 4 8 2 -1 1 3 18
3 3 8 0 -2 0 1 18
2 2 10 1 -2 0 1 18
2 2 10 3 -2 -1 0 19
0 1 10 3 -4 -1 -1 17
2 2 9 3 -4 -2 -2 17
1 2 10 3 -3 -2 -2 16
-2 0 10 3 -3 -1 -2 15
-2 0 10 3 -2 0 -3 15
-2 2 10 2 -3 -1 -2 15
-1 2 13 5 -1 1 -1 16
0 3 13 5 0 0 -1 15
-1 2 15 6 0 1 -1 15
0 2 14 6 -2 0 -2 16
1 4 15 8 1 2 -1 17
1 5 15 7 0 0 -1 14
-1 4 15 8 0 1 -1 14
-1 2 14 7 0 1 -1 14
-2 2 14 6 1 2 -1 12
0 4 16 6 2 2 -1 13
-1 4 16 6 1 3 -2 12
0 6 17 7 3 3 0 14
-1 6 18 9 4 4 0 13
-2 4 17 8 2 3 -1 11
0 6 16 9 2 3 -2 11
1 7 16 9 3 3 -1 10
0 7 14 9 2 3 -1 11
0 7 15 8 3 4 0 12
-2 6 15 7 3 4 0 11
-1 6 16 8 4 5 0 11
0 8 16 8 4 6 1 12
-1 8 15 6 3 5 0 11
0 8 17 9 5 6 2 11
1 8 16 8 4 5 1 10
0 8 15 9 4 6 2 11
1 10 15 9 4 6 4 12
0 10 14 9 4 5 2 10
0 10 12 8 4 6 2 10
-1 9 13 9 5 6 3 11
-2 8 14 7 6 6 3 10
-2 8 14 8 6 6 4 11
-2 7 13 7 5 6 3 10
-1 7 14 8 5 6 3 10
0 8 12 7 4 4 3 8
-1 8 11 7 5 5 2 8
0 9 11 7 4 5 3 8
1 9 12 7 4 5 3 9
1 9 10 6 4 4 2 7
2 10 11 6 6 4 4 8
4 11 11 6 6 6 4 10
3 12 11 5 4 5 3 8
2 11 9 5 3 3 2 6
0 8 10 4 3 3 3 7
0 8 10 3 1 3 3 7
0 8 8 4 1 3 2 6
1 8 9 4 2 3 3 6
1 9 9 3 3 3 3 5
0 8 7 3 3 3 3 5
-1 9 8 3 2 2 2 4
2 11 9 2 3 3 3 4
2 12 10 3 5 5 4 5
3 14 11 4 6 5 5 5
1 13 12 4 4 5 5 5
1 14 13 6 4 5 6 6
4 16 13 6 4 4 5 6
2 16 13 7 4 5 7 6
-1 16 13 8 6 6 7 6
0 17 13 7 7 6 7 6
0 17 14 6 7 7 7 7
0 18 16 7 8 7 8 6
2 20 15 7 7 7 7 5
2 19 17 9 8 8 10 6
2 19 17 9 7 8 10 6
0 19 15 7 5 7 8 4
2 20 13 6 5 6 7 5
3 22 12 5 6 5 9 5
-1 21 10 4 4 6 9 5
1 24 8 4 4 6 10 5
4 27 9 4 6 8 12 6
5 29 8 5 8 10 13 8
7 32 9 6 9 12 14 8
9 30 8 5 10 11 15 8
8 28 10 6 9 11 14 7
9 29 9 7 9 10 14 8
6 27 7 6 7 9 12 6
6 27 8 5 7 9 12 5
5 25 6 5 6 8 11 4
5 23 4 4 6 7 10 3
7 24 3 4 5 5 10 2
9 23 3 2 7 6 11 2
11 23 3 2 6 6 11 3
11 22 3 3 7 6 11 3
11 20 3 2 5 5 10 1
12 19 2 2 4 5 9 0
10 17 0 3 5 5 9 1
6 15 1 2 3 3 8 -1
3 13 -1 0 1 1 6 -4
0 11 -2 -2 0 0 5 -5
-2 10 0 -2 0 0 4 -5
-2 8 0 -3 1 -2 5 -6
-3 6 0 -3 -2 -3 2 -9
-4 4 1 -4 -1 -3 2 -10
-5 2 -1 -5 -3 -4 0 -11
-4 3 -1 -6 -5 -5 -1 -12
-3 4 -4 -6 -5 -6 -1 -13
-4 4 -4 -6 -5 -6 -1 -12
-5 3 -4 -6 -6 -7 -1 -13
-6 1 -6 -8 -7 -8 -2 -14
-6 1 -6 -8 -7 -7 -2 -16
-6 1 -4 -8 -7 -7 -1 -16
-6 0 -4 -7 -5 -7 -1 -14
-3 1 -4 -8 -5 -7 -1 -14
-3 1 -4 -7 -6 -7 -1 -16
-6 -1 -4 -9 -8 -8 -3 -17
-5 0 -5 -7 -7 -7 -2 -16
-4 2 -3 -7 -6 -6 -1 -15
-3 1 -5 -7 -6 -8 -2 -17
-4 2 -4 -7 -5 -7 -1 -15
-4 2 -4 -6 -4 -6 -1 -15
-4 1 -3 -8 -5 -6 -1 -15
-5 0 -4 -8 -6 -7 -2 -16
-6 -1 -4 -9 -6 -7 -2 -16
-6 -1 -4 -8 -6 -7 -2 -16
-6 -2 -3 -8 -7 -8 -4 -18
-7 -2 1 -4 -6 -9 -4 -18
-11 -1 9 -2 -7 -13 -7 -20
-16 0 20 3 -10 -16 -10 -23
-20 3 34 10 -9 -17 -11 -23
-21 8 45 19 -5 -15 -10 -22
-21 10 55 30 2 -10 -6 -20
-16 11 64 44 12 -2 -1 -18
-9 8 72 63 28 12 8 -15
3 15 75 85 51 35 24 -4
18 33 65 94 73 59 46 12
30 46 36 84 90 86 69 30
46 62 2 72 110 115 94 49
62 79 -34 60 129 141 116 65
72 96 -74 41 146 168 137 81
83 111 -120 11 152 187 157 96
90 123 -158 -12 158 203 170 107
95 141 -179 -18 180 231 191 123
95 150 -192 -24 194 245 198 127
87 122 -195 -22 192 231 174 106
78 87 -195 -28 168 191 135 74
69 49 -192 -41 126 135 87 38
51 8 -184 -60 78 75 40 5
36 -21 -174 -79 33 24 1 -22
19 -34 -164 -103 -14 -20 -28 -41
0 -38 -153 -140 -71 -64 -47 -49
-8 -40 -145 -158 -105 -86 -54 -52
-13 -42 -134 -153 -110 -90 -56 -53
-13 -38 -120 -136 -99 -81 -51 -51
-11 -32 -102 -116 -86 -72 -45 -46
-14 -29 -85 -98 -75 -64 -39 -42
-14 -23 -68 -81 -62 -54 -33 -37
-14 -18 -52 -63 -48 -42 -24 -31
-13 -13 -38 -48 -36 -33 -18 -27
-10 -8 -26 -35 -28 -26 -14 -25
-9 -8 -18 -25 -21 -21 -10 -22
-5 -5 -15 -21 -20 -21 -11 -24
-5 -5 -13 -19 -20 -20 -11 -25
-5 -6 -12 -17 -18 -19 -11 -25
-4 -5 -9 -16 -16 -18 -10 -24
-5 -6 -10 -16 -17 -18 -10 -25
-6 -6 -7 -15 -15 -18 -11 -24
-5 -6 -7 -14 -15 -18 -11 -24
-7 -8 -7 -14 -15 -18 -11 -24
-8 -7 -5 -13 -16 -18 -10 -24
-6 -7 -4 -11 -15 -18 -10 -24
-7 -8 -5 -10 -14 -18 -10 -25
-8 -8 -5 -10 -14 -17 -9 -24
-8 -7 -5 -10 -13 -17 -9 -24
-6 -6 -5 -9 -14 -16 -8 -24
-4 -5 -4 -9 -12 -15 -7 -23
-5 -5 -4 -9 -12 -15 -7 -23
-5 -5 -2 -9 -12 -15 -7 -22
-7 -7 -2 -9 -14 -15 -7 -22
-8 -8 -2 -8 -13 -15 -8 -23
-5 -7 -2 -7 -12 -16 -8 -23
-6 -8 -1 -7 -13 -16 -8 -23
-6 -8 -1 -7 -12 -16 -8 -23
-6 -8 -1 -8 -13 -16 -8 -23
-6 -8 -2 -8 -12 -16 -7 -23
-4 -5 -2 -8 -12 -16 -7 -24
-4 -5 -2 -8 -14 -16 -7 -24
-5 -6 -2 -9 -15 -18 -8 -25
-4 -5 0 -7 -13 -18 -6 -24
-5 -5 0 -7 -12 -17 -7 -23
-5 -6 -1 -7 -15 -18 -9 -25
-5 -7 -1 -6 -15 -18 -9 -25
-6 -8 -1 -5 -12 -18 -8 -24
-6 -6 -1 -5 -13 -18 -7 -23
-4 -8 -1 -5 -13 -18 -8 -24
-3 -6 -1 -5 -12 -18 -8 -23
-4 -5 0 -5 -12 -17 -7 -23
-5 -7 0 -6 -12 -17 -8 -24
-3 -6 1 -5 -13 -18 -9 -24
-4 -4 1 -4 -11 -17 -8 -24
-5 -6 0 -4 -12 -17 -8 -24
-4 -7 0 -3 -13 -17 -9 -24
-5 -7 0 -2 -10 -17 -9 -24
-5 -8 -1 -3 -10 -16 -10 -24
-6 -6 -1 -4 -10 -16 -8 -24
-6 -7 0 -4 -10 -15 -8 -23
-6 -6 0 -4 -10 -15 -8 -23
-5 -6 0 -4 -10 -15 -8 -24
-7 -8 1 -2 -10 -15 -8 -24
-5 -7 2 0 -9 -14 -7 -23
-5 -7 1 0 -9 -14 -7 -23
-6 -7 1 0 -9 -15 -8 -24
-4 -6 1 1 -8 -13 -6 -23
-5 -7 1 2 -7 -12 -5 -22
-4 -6 1 2 -5 -12 -7 -22
-4 -5 2 2 -5 -11 -6 -21
-6 -7 0 2 -4 -12 -6 -22
-3 -6 2 3 -5 -11 -6 -21
-4 -5 4 5 -4 -10 -4 -19
-3 -5 3 6 -5 -11 -4 -20
-2 -4 5 9 -3 -9 -3 -18
-2 -6 4 8 -4 -10 -4 -19
-1 -5 4 11 -2 -9 -3 -19
1 -2 4 12 0 -7 -2 -18
0 -3 5 12 -1 -6 -1 -18
1 -2 5 14 0 -6 0 -18
1 -2 5 14 1 -5 -1 -17
0 -3 7 17 3 -4 0 -16
0 -2 6 17 4 -3 1 -16
1 -2 7 19 5 -2 2 -16
4 0 7 22 6 -2 3 -16
5 -1 7 23 8 0 4 -16
5 0 7 27 10 3 5 -14
7 3 7 30 15 6 8 -13
9 4 7 31 17 8 9 -12
9 4 6 33 18 9 11 -12
9 4 6 34 22 12 13 -10
10 3 6 37 23 13 12 -10
12 6 7 40 26 17 15 -7
12 7 6 41 28 18 16 -6
12 5 5 43 29 21 17 -5
14 7 5 44 30 22 19 -5
16 8 3 45 32 23 21 -3
16 11 3 46 36 26 24 -1
19 13 3 46 37 27 25 0
18 14 2 46 37 28 25 0
18 15 1 45 38 28 26 2
18 13 -1 44 37 27 25 0
18 13 -1 43 39 29 26 1
20 15 0 44 38 29 26 2
20 13 -1 44 38 30 25 2
18 13 -1 42 36 28 25 1
19 14 -1 43 37 30 27 2
18 14 -3 41 36 28 26 1
20 15 -3 39 37 28 27 2
20 16 -2 37 36 28 27 3
19 14 -3 36 35 27 27 2
19 15 -3 34 33 27 26 1
19 15 -3 32 32 26 25 0
18 14 -3 32 30 25 25 0
17 13 -2 31 29 25 23 0
14 11 -2 30 26 22 22 -2
14 11 -3 27 23 21 21 -3
13 11 -2 27 23 21 20 -2
15 13 -2 24 21 20 19 -3
14 14 -1 23 20 18 18 -4
13 13 -2 21 19 17 18 -4
13 13 -1 19 17 15 17 -5
12 12 2 19 16 14 16 -5
11 10 2 18 15 13 15 -6
11 11 3 17 15 13 15 -6
9 8 3 15 11 10 13 -8
6 6 2 13 11 9 11 -9
7 8 3 14 9 9 11 -11
6 7 3 13 8 8 11 -11
4 6 4 11 8 8 11 -11
6 8 3 9 6 7 9 -13
5 8 4 9 5 6 9 -12
6 9 5 8 4 4 8 -12
4 9 6 8 4 5 8 -11
3 7 5 6 3 3 8 -12
3 6 5 4 2 1 6 -12
1 5 4 3 1 1 6 -12
2 6 3 2 0 0 4 -11
2 5 3 1 0 1 5 -11
0 4 3 -1 -1 -1 5 -11
0 5 2 -2 -2 0 5 -10
-1 3 3 -2 -2 0 5 -10
0 4 4 -2 -2 -1 5 -9
1 6 4 -3 -3 -2 4 -9
-1 4 3 -3 -3 -2 4 -10
1 5 1 -3 -4 -3 3 -11
1 6 3 -3 -3 -3 3 -10
2 6 2 -4 -4 -3 4 -9
2 7 1 -5 -6 -3 2 -10
0 5 2 -5 -4 -3 2 -10
-1 5 2 -6 -4 -2 2 -10
0 5 2 -6 -5 -3 2 -10
-2 4 3 -6 -6 -4 2 -10
0 6 3 -6 -7 -4 1 -10
0 4 3 -6 -6 -5 0 -10
0 2 2 -4 -6 -6 0 -10
1 3 2 -7 -7 -7 -1 -11
-1 3 4 -5 -6 -6 0 -9
-1 3 3 -5 -6 -6 0 -11
-1 3 4 -5 -7 -6 -1 -10
-3 1 4 -6 -7 -6 -1 -11
-2 1 6 -5 -7 -6 -1 -10
-1 2 5 -6 -8 -8 -3 -12
-4 0 6 -4 -8 -6 -2 -11
-4 1 7 -5 -8 -6 -3 -12
-3 0 7 -4 -7 -6 -3 -12
-4 -1 7 -4 -7 -5 -3 -12
-4 1 7 -3 -7 -6 -3 -13
-2 1 8 -3 -5 -5 -2 -12
-1 3 8 -3 -6 -5 -2 -11
-3 1 9 -2 -7 -5 -3 -12
-3 0 10 -2 -7 -5 -4 -12
-3 1 10 -1 -6 -4 -4 -12
-4 0 11 0 -5 -4 -4 -11
-5 -1 11 0 -5 -5 -4 -12
-5 0 12 1 -5 -4 -3 -11
-6 0 11 1 -5 -5 -4 -11
-4 0 12 2 -4 -3 -3 -8
-3 1 12 2 -3 -3 -1 -7
-4 1 12 1 -2 -4 -2 -8
-2 3 14 3 -1 -1 0 -6
-1 4 14 3 -2 -1 -1 -6
-1 5 15 3 -2 -1 -2 -6
-1 4 14 3 -3 -2 -3 -8
-5 2 13 4 -4 -1 -2 -7
-4 4 15 5 -2 -1 -2 -5
-2 5 13 5 -2 -1 -2 -5
-1 6 13 5 -1 0 -1 -5
-1 7 15 6 1 1 1 -4
-3 4 14 5 2 -1 0 -5
-2 5 13 5 2 0 1 -5
-1 6 15 6 1 1 1 -5
-1 6 14 6 1 1 0 -5
0 6 15 7 0 1 0 -4
-1 5 14 9 1 0 1 -3
-1 6 13 7 1 0 0 -3
0 7 13 8 2 1 1 -3
-3 5 11 7 1 1 1 -3
-4 3 11 8 1 2 1 -3
-3 5 12 7 2 2 2 -4
-2 5 12 7 1 2 2 -3
-2 6 14 8 2 3 3 -2
-1 6 12 7 1 0 1 -3
-1 5 11 7 1 1 0 -3
-1 5 11 6 1 1 0 -2
-3 4 10 7 0 0 -1 -4
0 5 9 6 0 -1 -1 -4
0 5 9 7 2 1 0 -4
-1 3 10 6 0 1 0 -3
-1 3 9 5 0 0 0 -3
-2 3 10 6 1 2 1 -2
-1 3 9 5 -1 1 0 -3
0 4 11 6 -1 0 1 -2
0 4 10 6 -1 0 0 -3
0 5 9 4 -2 -2 -2 -4
0 4 10 5 -2 -1 -1 -3
-1 4 9 5 -2 -1 -2 -3
1 5 8 4 -1 0 -1 -3
0 5 8 3 -3 -1 -2 -4
-1 4 9 3 -2 -1 -1 -2
1 7 10 5 0 1 0 -3
-1 6 12 6 1 2 2 -2
0 8 13 7 1 2 2 -1
0 12 14 8 2 2 3 1
0 10 15 9 2 3 4 1
4 13 15 10 2 3 4 1
3 14 15 10 1 3 3 2
2 14 17 11 2 4 4 2
2 16 17 10 1 4 4 2
1 15 17 12 3 5 5 3
0 15 19 10 4 5 4 3
0 14 18 10 4 4 4 2
0 14 19 9 4 5 4 2
1 16 18 10 2 5 5 2
1 14 19 9 1 4 5 2
2 16 16 9 0 3 4 2
5 19 16 8 1 5 6 4
4 20 15 8 2 5 7 6
6 23 14 7 2 6 7 6
7 23 12 8 4 7 8 7
7 22 12 9 6 10 10 9
9 25 13 10 5 10 11 10
8 22 12 9 4 10 10 9
7 21 12 9 4 8 8 8
7 20 13 9 3 8 8 7
5 19 12 9 1 6 8 7
8 20 12 9 2 6 6 7
10 19 13 9 3 7 7 7
8 17 11 8 4 7 6 6
10 17 10 7 3 6 5 6
11 17 9 7 3 6 5 6
12 15 9 6 1 5 3 4
12 14 8 7 -1 4 4 5
10 11 6 5 -2 3 3 3
9 10 7 5 0 4 3 3
5 7 6 6 -2 2 2 2
6 8 8 6 -1 1 2 3
7 8 7 3 -3 -1 0 0
1 3 7 2 -4 -2 -1 -1
-1 2 8 2 -4 -2 -3 -2
1 1 7 1 -4 -2 -4 -3
-3 -3 7 0 -7 -4 -6 -4
-2 -2 7 0 -8 -5 -6 -4
-1 -3 7 1 -7 -5 -6 -4
-2 -3 5 -1 -9 -7 -8 -6
-2 -4 3 -2 -11 -8 -8 -6
-3 -6 3 -3 -11 -9 -9 -7
-4 -6 4 -1 -11 -9 -9 -7
-2 -6 3 -3 -12 -13 -10 -7
-3 -6 4 -4 -12 -18 -10 -7
-2 -4 5 -4 -10 -19 -9 -6
-3 -5 5 -5 -11 -20 -9 -7
-2 -5 4 -4 -12 -22 -10 -6
-2 -5 5 -3 -11 -21 -8 -5
-4 -7 3 -4 -12 -23 -10 -6
-2 -6 4 -3 -11 -23 -9 -6
-2 -7 3 -4 -11 -23 -10 -6
-6 -8 3 -3 -11 -23 -10 -6
-2 -7 3 -4 -11 -23 -10 -6
-2 -7 3 -3 -10 -23 -10 -6
-2 -7 2 -4 -10 -22 -10 -6
-2 -7 4 -3 -10 -23 -9 -5
-4 -7 3 -3 -10 -22 -9 -5
-4 -6 5 -1 -10 -22 -9 -5
-3 -6 7 -3 -12 -25 -11 -7
-8 -10 13 0 -14 -29 -14 -10
-12 -8 24 4 -14 -32 -18 -13
-17 -6 37 11 -14 -35 -19 -14
-20 -4 50 20 -11 -34 -19 -13
-19 1 60 31 -5 -28 -14 -10
-18 2 69 43 4 -21 -10 -8
-9 2 77 62 18 -10 -4 -6
4 8 81 83 39 10 10 3
17 22 76 96 62 36 32 19
32 38 51 90 81 63 57 38
48 53 17 76 100 91 80 57
64 69 -17 66 119 118 101 73
73 86 -54 49 136 145 123 89
81 98 -101 20 145 165 143 104
90 111 -142 -8 148 180 156 116
97 128 -168 -15 168 205 175 131
95 139 -183 -19 185 226 190 142
92 121 -188 -20 186 219 175 127
84 86 -188 -24 167 186 138 96
76 50 -186 -36 131 134 92 62
62 12 -177 -52 84 75 45 30
44 -21 -167 -72 36 19 3 0
28 -39 -156 -95 -9 -25 -29 -22
7 -45 -148 -131 -66 -70 -52 -34
-5 -48 -140 -153 -103 -98 -62 -37
-10 -49 -130 -153 -114 -104 -65 -38
-13 -48 -116 -139 -107 -99 -61 -36
-11 -43 -101 -119 -94 -89 -55 -31
-12 -38 -82 -102 -82 -81 -49 -27
-14 -32 -65 -84 -70 -71 -41 -22
-11 -24 -50 -66 -56 -60 -33 -17
-8 -18 -36 -51 -45 -50 -26 -12
-7 -14 -23 -37 -35 -43 -23 -9
-5 -11 -14 -26 -27 -38 -20 -8
-3 -11 -10 -20 -24 -36 -19 -8
-5 -12 -7 -16 -23 -35 -18 -8
-4 -12 -7 -15 -22 -34 -18 -9
-5 -15 -6 -15 -23 -35 -21 -11
-3 -14 -5 -15 -21 -34 -19 -10
-4 -13 -3 -14 -18 -31 -19 -8
-5 -13 -1 -12 -18 -31 -17 -8
-6 -13 1 -11 -17 -29 -16 -7
-5 -14 2 -12 -18 -29 -16 -7
-4 -13 2 -10 -18 -29 -16 -7
-1 -11 3 -8 -17 -29 -16 -7
-3 -12 2 -8 -18 -28 -16 -6
-3 -11 0 -9 -19 -29 -16 -7
-5 -12 -1 -8 -18 -29 -16 -7
-5 -12 1 -8 -17 -28 -16 -7
-4 -12 2 -7 -15 -26 -14 -5
-4 -12 3 -8 -16 -27 -15 -6
-4 -13 2 -7 -16 -28 -14 -6
-2 -12 4 -8 -16 -28 -14 -6
-4 -12 4 -7 -16 -28 -15 -6
-3 -11 4 -6 -15 -29 -15 -6
-4 -12 3 -6 -15 -29 -16 -7
-3 -11 2 -7 -17 -30 -17 -8
-3 -11 0 -7 -18 -29 -16 -7
-4 -12 2 -7 -18 -29 -16 -8
-3 -11 2 -6 -17 -28 -15 -7
-2 -11 3 -6 -16 -28 -14 -7
-5 -13 3 -6 -16 -29 -15 -7
-4 -14 3 -8 -16 -29 -16 -7
-2 -13 3 -6 -15 -28 -14 -7
-3 -11 4 -5 -15 -29 -15 -7
-3 -11 3 -5 -15 -28 -15 -7
-4 -13 3 -4 -15 -28 -14 -7
-3 -12 4 -3 -14 -27 -13 -6
-2 -11 3 -4 -14 -27 -15 -6
-3 -12 4 -4 -13 -26 -14 -6
-2 -12 4 -4 -12 -27 -15 -7
-2 -12 4 -4 -13 -26 -15 -6
-5 -14 4 -5 -14 -26 -15 -7
-4 -13 3 -5 -14 -26 -15 -7
-3 -13 3 -4 -13 -26 -15 -7
-2 -11 4 -3 -12 -26 -15 -7
-2 -11 4 -2 -11 -25 -14 -7
-2 -12 4 -1 -10 -24 -14 -6
0 -9 4 -2 -10 -24 -14 -6
0 -8 4 -1 -9 -23 -13 -6
0 -10 4 -1 -8 -22 -13 -6
-2 -10 5 0 -7 -21 -12 -5
-2 -10 6 -2 -7 -22 -13 -6
1 -9 7 0 -7 -21 -13 -6
1 -10 5 0 -8 -22 -13 -7
-2 -12 4 0 -8 -22 -14 -8
-3 -12 5 1 -7 -20 -13 -7
-2 -12 5 3 -6 -20 -12 -6
-1 -10 6 3 -5 -19 -11 -6
-1 -10 6 4 -4 -17 -10 -5
0 -10 6 4 -4 -17 -9 -4
1 -10 6 5 -2 -17 -9 -5
0 -9 7 4 -3 -18 -10 -6
0 -11 7 6 -2 -17 -9 -5
2 -9 8 8 -2 -16 -8 -5
-1 -11 7 9 -1 -15 -8 -5
-1 -10 7 10 0 -15 -9 -5
0 -9 6 11 0 -14 -8 -4
1 -9 7 11 0 -13 -8 -4
3 -7 9 14 3 -10 -5 -3
4 -7 8 15 4 -10 -5 -4
5 -7 8 15 5 -9 -4 -3
7 -3 8 16 6 -9 -4 -4
7 -4 7 19 7 -9 -4 -4
7 -4 8 22 9 -8 -3 -3
8 -2 8 24 10 -6 -1 -2
7 -4 7 26 12 -5 -1 -1
9 -2 8 30 15 -1 2 1
11 -2 8 31 17 1 4 2
13 1 10 33 21 5 6 4
15 3 10 35 25 8 8 6
14 2 8 37 27 10 10 7
15 3 7 38 28 11 11 7
17 5 8 41 31 14 13 9
18 5 8 43 32 16 14 9
19 7 6 44 34 18 16 11
19 7 5 44 34 19 17 13
18 6 4 43 34 18 17 12
20 9 4 44 37 20 20 13
19 9 3 44 38 22 20 14
19 10 3 43 38 22 21 14
20 10 2 43 39 23 21 14
20 10 1 42 38 24 21 14
23 12 2 43 39 25 22 16
23 13 1 42 37 24 21 15
22 12 0 41 37 24 21 15
22 13 -1 40 37 25 21 16
20 11 -2 40 35 23 21 16
21 11 0 39 37 24 22 16
20 10 -1 35 35 23 22 16
20 9 -1 34 34 22 21 16
21 9 0 32 31 22 20 15
20 9 -1 31 30 21 19 15
18 9 -1 30 28 20 18 14
19 11 -1 30 28 19 18 14
19 10 0 29 26 18 17 14
16 9 -1 26 25 15 14 13
16 10 1 26 25 15 14 13
15 9 1 22 22 13 13 12
16 10 3 21 22 13 13 12
14 8 2 18 19 11 11 10
11 6 3 17 17 9 9 9
11 7 3 15 16 8 9 9
10 6 3 14 13 7 8 7
9 7 4 14 13 6 7 7
8 6 5 13 11 5 6 6
8 3 5 13 10 3 5 6
8 6 6 10 9 3 4 6
7 5 6 8 8 2 2 5
6 4 7 6 8 2 3 5
6 4 6 5 6 0 2 4
4 1 7 5 6 0 2 4
3 2 7 3 6 0 2 5
2 1 6 1 4 -2 0 3
1 0 5 1 2 -4 -1 2
0 0 4 0 1 -4 -1 2
0 0 3 -3 0 -6 -2 1
-1 2 5 -3 0 -6 -2 2
0 2 5 -3 0 -5 -1 2
-3 0 4 -6 -1 -6 -2 1
-2 1 6 -5 0 -5 -2 1
-2 -1 5 -7 -2 -7 -3 -2
-1 -1 3 -7 -2 -7 -3 -1
-1 0 4 -5 -1 -6 -3 0
-3 -3 2 -7 -3 -8 -5 -2
-4 -4 2 -9 -5 -8 -5 -1
-3 -4 2 -8 -4 -8 -5 0
-5 -5 3 -9 -5 -7 -5 0
-4 -4 2 -10 -5 -8 -5 -1
-4 -4 2 -10 -4 -7 -4 1
-3 -4 3 -11 -5 -8 -4 0
-2 -3 4 -10 -5 -8 -5 -1
-4 -3 3 -10 -4 -8 -6 0
-4 -4 2 -11 -6 -9 -7 -1
-4 -5 1 -11 -7 -10 -8 -2
-5 -7 1 -11 -8 -11 -9 -2
-3 -6 0 -13 -9 -12 -9 -2
-5 -6 2 -10 -8 -12 -8 -2
-4 -5 2 -11 -9 -13 -9 -2
-4 -5 3 -12 -7 -12 -9 -1
-5 -7 4 -12 -8 -11 -8 -2
-4 -7 4 -9 -7 -12 -9 -3
-3 -6 5 -11 -6 -10 -9 -2
-6 -8 5 -10 -8 -11 -10 -3
-6 -8 6 -8 -7 -11 -10 -3
-7 -9 6 -8 -7 -11 -10 -3
-7 -8 6 -8 -6 -10 -9 -2
-5 -6 6 -8 -8 -10 -10 -2
-6 -6 8 -6 -5 -8 -9 -1
-7 -6 8 -6 -5 -8 -8 0
-6 -6 10 -6 -4 -7 -8 0
-5 -6 9 -7 -5 -9 -9 -2
-4 -5 9 -7 -5 -8 -9 -2
-5 -6 9 -5 -5 -8 -9 -1
-7 -6 11 -4 -5 -7 -8 -1
-8 -6 10 -4 -5 -7 -9 -1
-9 -7 9 -3 -4 -6 -8 0
-8 -8 11 -2 -4 -6 -9 0
-7 -7 11 -3 -4 -6 -9 -1
-7 -6 12 -4 -3 -5 -8 0
-6 -5 13 -4 -2 -4 -7 0
-6 -7 12 -3 -2 -4 -8 -1
-5 -5 12 -3 -1 -4 -7 0
-5 -3 12 0 0 -3 -6 0
-6 -5 12 -1 -1 -3 -7 -1
-5 -3 12 0 0 -2 -6 1
-4 -1 11 -1 1 -1 -6 0
-5 -3 11 0 -1 -1 -6 2
-5 -2 12 -1 0 0 -5 2
-6 -3 11 -3 0 -1 -6 2
-5 -2 11 -3 0 0 -4 3
-3 -1 12 -1 1 1 -4 3
-5 -3 11 -2 2 0 -4 2
-5 -2 12 0 2 1 -3 3
-4 -2 11 -1 1 0 -4 3
-5 -2 12 0 3 2 -3 5
-4 -1 11 -1 4 2 -2 5
-4 -1 11 -2 2 2 -3 4
-4 -1 11 -2 1 1 -4 4
-4 -1 10 -3 2 2 -3 4
-6 -3 9 -5 0 2 -4 4
-6 -3 10 -5 0 1 -4 3
-5 -3 9 -4 2 2 -3 3
-6 -4 9 -4 1 3 -3 4
-5 -3 9 -4 1 2 -4 4
-4 -2 8 -5 1 2 -4 3
-4 -2 7 -6 0 1 -5 2
-4 -1 9 -5 1 3 -4 4
-4 -2 8 -6 -1 2 -5 3
-4 -2 7 -7 -1 3 -5 3
-5 -4 7 -7 -1 2 -5 3
-5 -4 7 -7 -3 2 -5 3
-3 -3 8 -7 -1 2 -4 2
-5 -5 8 -8 -1 3 -4 2
-5 -4 7 -7 -2 2 -6 1
-5 -2 10 -5 0 4 -3 4
-6 -2 10 -6 1 3 -4 3
-4 1 11 -5 1 4 -3 5
-3 3 10 -5 -1 4 -3 5
-4 3 11 -5 2 5 -2 6
0 5 12 -6 1 5 -1 6
-1 7 12 -5 0 6 -1 7
-2 6 13 -4 2 6 -1 7
-3 4 13 -4 2 7 0 7
-4 4 14 -3 1 6 -1 6
-3 6 15 0 2 6 0 8
-2 7 15 1 3 8 1 8
-1 8 15 1 2 7 0 7
0 10 16 2 2 8 1 9
-3 7 13 -1 2 7 0 9
-2 8 13 -1 0 7 0 9
-1 12 14 0 1 8 2 11
0 13 11 -1 2 8 2 11
2 16 10 -1 1 9 2 11
3 16 10 1 1 10 4 12
3 17 10 2 3 12 5 15
4 19 8 1 4 13 6 15
3 17 8 0 3 12 5 13
3 15 8 0 2 11 5 13
1 14 8 0 2 11 3 13
0 13 8 -1 2 12 3 12
3 13 9 0 3 13 4 11
4 12 8 2 3 13 4 11
5 11 6 0 1 11 3 10
6 10 5 -1 0 11 2 10
5 8 3 -1 1 10 2 10
5 7 2 -1 0 9 1 7
5 5 3 -1 -1 10 1 7
5 4 1 -2 -1 9 1 6
5 4 1 -3 -1 9 -1 6
2 2 4 -2 0 9 -1 5
-1 0 4 -3 -3 8 -3 5
-1 0 4 -5 -3 8 -2 5
-3 -2 3 -6 -5 7 -4 3
-2 -2 3 -5 -6 6 -5 2
-1 -2 1 -7 -8 4 -7 0
-2 -4 1 -7 -10 2 -9 -1
-4 -5 2 -9 -10 2 -9 -2
-6 -7 1 -8 -10 3 -9 -1
-6 -8 1 -9 -11 1 -11 -2
-5 -9 1 -11 -11 1 -11 -3
-5 -9 1 -10 -11 1 -11 -4
-3 -8 2 -9 -10 3 -10 -3
-4 -9 0 -10 -11 2 -10 -4
-5 -10 0 -9 -11 2 -11 -4
-3 -9 2 -8 -12 3 -10 -2
-3 -10 1 -9 -13 1 -11 -3
-6 -10 0 -9 -13 1 -11 -3
-6 -11 0 -10 -13 2 -10 -3
-7 -13 0 -11 -13 2 -12 -4
-4 -10 1 -11 -12 2 -12 -4
-3 -9 1 -11 -12 3 -10 -2
-6 -13 0 -11 -12 2 -11 -3
-6 -12 0 -10 -11 2 -10 -3
-5 -11 0 -10 -11 2 -11 -3
-4 -10 -1 -10 -12 1 -12 -4
-3 -10 -1 -10 -11 1 -11 -3
-3 -9 0 -9 -12 2 -11 -3
-4 -11 0 -9 -12 0 -11 -4
-7 -13 3 -9 -12 -2 -14 -6
-10 -15 10 -6 -13 -5 -17 -9
-15 -14 21 -1 -16 -9 -20 -11
-21 -13 34 6 -15 -12 -22 -13
-23 -12 46 14 -14 -12 -22 -13
-21 -8 54 24 -8 -8 -19 -11
-21 -8 61 35 0 -2 -14 -9
-10 -6 68 50 13 10 -7 -6
2 -2 70 70 34 29 6 2
14 10 68 89 57 55 27 16
31 27 48 89 79 84 51 34
46 40 15 75 99 112 76 52
61 57 -16 66 118 141 98 69
70 74 -48 50 137 170 121 85
78 86 -92 22 144 188 139 101
86 98 -132 -5 149 204 155 115
92 116 -161 -15 166 229 173 129
92 130 -175 -20 185 251 187 139
89 116 -177 -19 189 246 174 125
78 81 -179 -26 172 214 140 95
70 49 -179 -38 134 161 96 63
58 15 -172 -58 86 100 48 31
40 -19 -162 -76 39 45 5 1
21 -39 -149 -95 -5 0 -26 -21
-1 -47 -144 -134 -67 -48 -50 -33
-13 -49 -142 -159 -107 -76 -62 -37
-13 -48 -133 -156 -114 -80 -63 -38
-15 -49 -123 -143 -108 -76 -60 -38
-15 -48 -110 -127 -98 -70 -57 -34
-14 -41 -92 -109 -87 -61 -50 -30
-15 -36 -76 -93 -76 -52 -43 -27
-14 -30 -60 -77 -64 -43 -37 -22
-10 -24 -46 -61 -52 -34 -32 -18
-9 -20 -33 -47 -42 -26 -27 -15
-9 -17 -21 -34 -35 -21 -24 -12
-9 -18 -13 -25 -29 -19 -21 -11
-5 -16 -10 -20 -26 -16 -19 -11
-6 -16 -10 -18 -26 -16 -20 -10
-8 -20 -8 -16 -23 -14 -19 -9
-7 -18 -6 -16 -21 -13 -18 -9
-6 -18 -4 -15 -20 -11 -15 -8
-6 -18 -1 -13 -19 -10 -15 -8
-6 -17 -1 -13 -20 -11 -15 -8
-5 -17 0 -13 -20 -12 -15 -9
-4 -16 -1 -12 -22 -12 -16 -10
-3 -15 0 -11 -23 -13 -16 -10
-5 -15 -1 -11 -22 -12 -16 -11
-3 -14 0 -9 -21 -12 -16 -11
-4 -15 -1 -9 -20 -11 -16 -10
-4 -15 -1 -9 -20 -12 -16 -11
-3 -14 0 -10 -18 -10 -14 -9
-4 -15 2 -9 -18 -11 -15 -9
-2 -13 2 -9 -18 -10 -14 -8
-1 -12 2 -9 -19 -10 -14 -8
-1 -13 2 -8 -19 -10 -15 -8
0 -11 2 -7 -19 -12 -14 -8
0 -11 1 -7 -20 -12 -15 -9
-2 -13 2 -5 -18 -11 -14 -9
-2 -13 2 -5 -17 -11 -14 -8
-3 -14 1 -7 -18 -12 -15 -9
-1 -12 2 -6 -17 -9 -13 -8
-5 -15 2 -7 -17 -11 -15 -9
-4 -15 2 -8 -18 -13 -15 -10
-2 -13 4 -7 -18 -12 -14 -9
-2 -14 3 -7 -19 -12 -14 -10
-1 -13 3 -6 -20 -14 -15 -9
0 -12 3 -4 -19 -12 -14 -8
-1 -13 1 -5 -19 -13 -16 -10
-2 -13 2 -3 -16 -12 -14 -9
-4 -15 2 -5 -18 -14 -14 -10
-5 -16 2 -6 -16 -13 -14 -10
-3 -15 4 -5 -15 -13 -13 -10
-4 -15 4 -5 -16 -12 -14 -10
-3 -15 4 -7 -18 -12 -14 -11
-1 -15 4 -4 -17 -12 -14 -10
-1 -15 3 -3 -17 -14 -15 -10
-1 -14 3 -2 -16 -11 -13 -10
-1 -14 3 -2 -16 -11 -14 -10
-3 -15 3 -1 -14 -10 -13 -9
-1 -12 2 -2 -14 -10 -13 -9
-2 -12 3 -2 -12 -8 -13 -8
-1 -13 4 -2 -11 -9 -12 -9
-2 -13 4 -1 -12 -9 -12 -8
-3 -15 4 -2 -11 -10 -13 -9
-1 -16 3 -1 -11 -9 -13 -9
-1 -15 3 1 -12 -10 -13 -9
0 -13 3 3 -10 -8 -12 -8
2 -11 1 1 -10 -9 -12 -9
0 -12 1 3 -9 -8 -11 -8
1 -10 0 2 -9 -10 -12 -9
2 -9 2 3 -5 -7 -10 -7
0 -11 3 4 -5 -8 -10 -7
1 -10 3 5 -6 -7 -10 -8
0 -12 5 6 -5 -7 -9 -8
-2 -14 5 7 -6 -7 -9 -8
2 -12 4 9 -7 -10 -9 -8
1 -12 2 10 -6 -8 -9 -7
1 -13 3 11 -4 -7 -8 -7
3 -12 1 11 -4 -7 -8 -7
3 -11 1 12 -2 -6 -6 -8
5 -9 3 14 1 -3 -4 -5
5 -9 4 16 3 -2 -3 -5
4 -9 5 17 3 -2 -3 -4
5 -9 5 18 2 -2 -3 -5
5 -12 3 20 3 -2 -3 -5
7 -10 4 24 5 0 -1 -4
7 -9 3 27 9 3 1 -2
7 -9 2 28 10 5 2 -2
9 -8 1 30 12 6 4 0
11 -6 0 30 14 8 4 1
12 -4 0 31 18 11 6 3
13 -3 3 35 23 14 10 5
14 -2 1 36 24 15 10 5
17 1 1 38 25 17 11 6
19 1 0 40 27 19 13 8
19 1 0 42 28 18 14 7
21 4 0 44 32 23 16 9
20 3 -2 45 32 23 17 9
20 2 -3 45 33 25 18 9
20 3 -5 44 34 26 19 10
21 4 -3 45 38 30 22 14
23 6 -3 44 37 28 22 14
23 7 -4 44 37 28 23 15
23 6 -4 42 36 28 23 14
25 8 -4 43 36 29 23 15
25 9 -5 44 36 28 22 15
25 10 -6 43 36 28 23 14
24 9 -8 40 33 25 22 13
21 7 -9 39 33 25 22 13
21 7 -9 38 32 25 22 13
22 8 -7 38 33 26 23 14
22 8 -6 36 32 25 22 14
20 6 -5 36 31 25 23 14
20 6 -5 34 31 23 21 12
21 7 -4 32 28 21 19 11
21 8 -3 32 26 19 19 11
19 6 -4 31 25 18 17 10
19 6 -3 29 23 16 16 9
16 4 -3 27 22 15 15 9
15 3 -2 25 20 14 15 9
14 3 0 24 19 12 14 9
12 2 1 21 18 11 13 7
11 1 2 19 16 9 12 7
13 2 3 18 15 9 12 6
11 2 3 18 13 8 10 5
10 1 4 17 11 6 9 4
10 3 3 14 9 4 7 2
9 1 3 13 9 1 6 1
9 4 3 13 9 2 6 2
8 4 4 12 10 2 6 3
7 3 4 9 8 1 5 2
5 2 6 7 7 0 4 1
2 0 7 6 7 1 4 1
2 0 8 6 6 0 4 0
2 0 8 6 6 0 3 -1
2 1 8 6 4 -2 3 -1
2 1 7 5 4 -1 4 -1
2 0 5 3 2 -2 2 -2
1 1 5 2 3 -2 1 -2
2 2 6 1 3 -3 1 -2
-1 0 5 -1 1 -3 1 -2
0 -1 6 -1 1 -2 0 -3
-1 -1 5 -3 0 -1 -1 -3
-1 -3 6 -3 0 0 -1 -3
-1 -3 7 -2 0 0 -1 -3
-4 -5 6 -3 -2 -2 -3 -4
-5 -4 4 -3 -3 -2 -3 -4
-3 -3 4 -3 -2 -1 -3 -4
-2 -3 2 -5 -4 -3 -4 -6
-2 -2 2 -5 -3 -2 -3 -5
-2 -2 2 -6 -2 -2 -3 -5
-2 -3 3 -8 -4 -3 -5 -6
-3 -4 4 -8 -5 -4 -5 -6
-5 -6 4 -8 -5 -4 -6 -7
-4 -7 4 -7 -5 -4 -6 -7
-4 -6 4 -7 -6 -6 -7 -7
-5 -6 4 -6 -5 -6 -7 -7
-3 -6 4 -6 -6 -6 -7 -7
-4 -7 4 -5 -6 -4 -6 -6
-4 -5 4 -6 -5 -6 -6 -7
-3 -4 5 -6 -4 -5 -6 -5
-5 -6 6 -6 -4 -5 -6 -5
-4 -4 6 -6 -5 -5 -6 -6
-2 -3 8 -6 -5 -5 -6 -6
-4 -5 8 -5 -4 -5 -7 -5
-4 -6 7 -4 -5 -7 -6 -7
-6 -5 7 -2 -4 -6 -5 -6
-5 -5 5 -3 -6 -7 -7 -8
-5 -3 6 -1 -4 -6 -6 -8
-5 -3 6 -1 -3 -6 -6 -8
-4 -2 9 0 -2 -4 -4 -4
-4 -2 11 0 -2 -5 -4 -4
-4 -2 11 0 0 -4 -3 -4
-2 0 11 -1 -2 -5 -4 -6
-2 -1 12 1 -2 -4 -4 -6
-1 -2 10 1 -3 -5 -5 -6
-2 -2 9 3 -2 -4 -4 -5
-5 -4 8 3 -2 -4 -5 -5
-6 -4 9 4 -1 -3 -4 -5
-5 -3 9 4 0 -2 -3 -4
-5 -2 11 5 3 -1 -2 -3
-2 -1 12 5 3 -1 -2 -4
-2 -1 12 5 4 0 -1 -3
-3 -2 12 5 4 1 -1 -3
-1 0 14 7 5 1 0 -1
-2 0 12 7 4 0 -1 -1
-2 1 12 8 6 2 1 0
-2 2 10 7 5 0 0 -1
-4 1 11 8 5 1 0 -1
-2 2 10 7 6 2 1 0
-3 1 11 7 7 3 2 1
-2 1 12 8 6 2 2 2
-3 1 13 7 7 3 3 2
-3 1 12 6 7 3 2 2
-1 3 13 9 8 4 3 3
0 3 12 8 6 3 2 2
-1 5 11 8 6 3 3 2
0 6 11 8 6 3 4 3
-1 6 11 8 6 2 3 2
-1 5 9 6 5 1 3 2
-2 5 10 7 6 3 4 3
-2 4 10 6 5 1 3 3
-2 4 11 6 6 2 3 2
-1 5 11 5 7 2 3 3
0 7 12 7 7 2 3 3
1 8 13 8 7 2 4 4
-2 7 12 8 8 2 4 5
1 10 13 9 8 3 5 5
4 14 14 10 9 5 6 7
1 13 13 10 9 4 5 7
1 13 13 10 10 4 6 7
1 13 15 9 10 3 6 7
0 13 15 9 9 3 6 7
1 16 17 10 9 4 7 7
2 16 18 10 9 4 6 7
0 14 17 10 9 3 5 5
1 15 17 11 9 3 5 6
1 15 16 10 7 1 5 5
3 16 18 10 9 2 6 7
3 17 16 10 9 2 6 8
2 18 14 8 8 2 6 10
3 18 14 8 8 2 7 11
2 18 13 7 7 2 7 11
5 23 14 7 8 2 8 12
5 23 13 7 8 2 9 12
6 25 12 8 8 3 10 13
8 27 12 10 10 5 12 15
8 26 11 9 9 4 11 15
8 26 10 9 10 5 11 14
8 28 12 9 9 6 12 15
6 26 11 6 8 4 10 14
8 25 11 6 8 2 9 13
9 24 11 6 8 2 9 13
6 22 8 5 6 0 7 10
8 22 9 6 8 1 8 13
9 20 7 5 5 -1 6 11
9 18 5 5 4 -1 5 11
8 18 6 6 5 -1 6 12
10 17 5 6 6 -1 8 12
10 18 5 5 6 -1 8 11
7 16 6 5 7 0 7 13
6 14 7 3 4 -2 5 11
7 14 6 2 3 -4 4 10
4 13 6 2 2 -5 4 9
2 10 8 2 2 -6 3 8
1 8 7 2 0 -8 1 6
-2 4 5 0 -2 -10 -1 4
-3 3 5 1 -3 -10 -2 3
-4 1 4 0 -3 -11 -3 3
-5 0 3 -2 -4 -12 -4 1
-3 1 2 -4 -3 -12 -4 1
-3 0 4 -3 -3 -13 -3 2
-2 1 5 -2 -2 -13 -4 2
-1 2 4 -3 -5 -14 -4 1
-4 -1 2 -4 -5 -15 -5 0
-2 0 3 -3 -5 -15 -6 -1
-1 0 2 -3 -5 -15 -6 -2
-3 -1 2 -3 -6 -16 -6 -2
-1 2 2 -4 -6 -16 -6 -1
-1 0 1 -3 -5 -16 -6 -2
-3 -1 2 -4 -5 -16 -6 -1
-2 0 3 -4 -5 -15 -6 -1
-2 -1 3 -3 -4 -14 -5 -1
-1 1 3 -2 -4 -14 -4 0
-1 1 3 -3 -4 -15 -5 0
-2 0 2 -3 -6 -16 -6 -2
-2 2 2 -2 -5 -14 -4 -2
-2 1 2 -3 -5 -15 -5 -1
-1 1 2 -3 -5 -15 -5 -1
-1 0 3 -2 -6 -16 -6 -3
-5 -3 6 -2 -8 -18 -9 -5
-8 -3 17 0 -8 -20 -11 -6
-13 0 29 5 -10 -24 -15 -9
-16 1 41 12 -11 -27 -18 -11
-18 4 52 20 -8 -26 -16 -10
-18 5 61 32 -1 -21 -13 -9
-12 7 66 44 9 -12 -7 -7
-3 6 74 62 24 2 1 -2
9 13 74 83 47 25 18 8
23 27 67 97 71 52 41 24
37 42 39 88 92 81 65 43
53 57 5 76 114 112 90 61
68 76 -28 66 134 139 114 77
76 92 -68 44 150 166 136 92
83 104 -113 13 154 184 154 107
91 117 -149 -8 163 202 170 120
98 138 -171 -11 186 231 191 137
95 145 -180 -14 203 247 197 140
91 119 -181 -15 199 231 171 115
82 85 -183 -23 172 190 133 85
70 48 -181 -38 130 133 86 53
53 10 -172 -57 82 74 40 21
37 -19 -159 -73 35 22 1 -6
18 -33 -149 -101 -16 -25 -27 -24
-2 -35 -146 -145 -80 -74 -49 -33
-8 -35 -140 -158 -107 -92 -56 -35
-10 -37 -129 -149 -107 -92 -56 -36
-10 -35 -118 -133 -99 -86 -53 -36
-8 -30 -100 -114 -89 -77 -47 -31
-10 -27 -84 -99 -79 -70 -42 -28
-11 -23 -68 -84 -68 -61 -36 -23
-9 -15 -53 -66 -54 -50 -30 -19
-6 -11 -37 -50 -43 -42 -24 -16
-4 -6 -25 -36 -33 -35 -19 -14
-4 -6 -15 -25 -26 -30 -16 -11
-3 -5 -10 -19 -24 -29 -15 -12
-1 -5 -8 -16 -20 -25 -14 -11
-3 -6 -7 -15 -21 -26 -15 -10
-1 -5 -5 -13 -18 -26 -14 -10
-1 -5 -3 -11 -15 -23 -13 -10
-1 -4 -2 -12 -16 -23 -12 -10
0 -2 -1 -11 -15 -22 -13 -10
2 -3 2 -11 -16 -23 -12 -9
0 -3 2 -10 -14 -22 -12 -10
-3 -6 3 -7 -14 -22 -12 -9
-3 -7 2 -7 -16 -23 -14 -10
0 -6 2 -6 -16 -23 -13 -10
0 -5 1 -6 -15 -22 -13 -11
-2 -7 1 -7 -14 -22 -12 -10
-2 -6 2 -8 -12 -21 -11 -10
-2 -4 3 -6 -10 -19 -9 -9
-1 -4 3 -7 -11 -19 -11 -9
1 -2 4 -7 -11 -18 -9 -8
0 -4 4 -6 -11 -18 -10 -9
-1 -5 5 -4 -12 -19 -10 -9
-2 -6 4 -5 -14 -21 -12 -10
-1 -6 3 -5 -15 -21 -12 -10
0 -4 3 -3 -13 -21 -11 -9
-2 -6 2 -4 -13 -21 -12 -9
-2 -6 3 -6 -13 -20 -11 -8
1 -4 4 -4 -9 -18 -9 -8
-1 -5 6 -4 -10 -17 -10 -7
1 -5 6 -5 -12 -18 -10 -6
2 -5 7 -4 -12 -18 -10 -6
0 -7 7 -2 -12 -20 -11 -7
1 -6 7 -2 -14 -21 -12 -6
2 -4 6 -2 -14 -21 -11 -7
0 -5 5 -1 -13 -21 -11 -6
0 -4 5 -1 -11 -21 -10 -5
-2 -6 4 -3 -12 -20 -10 -5
-2 -6 4 -3 -10 -19 -9 -6
-2 -7 7 -2 -9 -17 -10 -5
0 -5 7 -3 -10 -18 -11 -5
1 -4 9 -1 -10 -16 -10 -5
0 -5 7 -1 -11 -19 -12 -7
1 -6 6 0 -11 -20 -12 -7
3 -5 7 2 -10 -18 -10 -6
1 -5 6 2 -10 -17 -11 -5
1 -4 6 3 -8 -17 -10 -5
0 -5 6 2 -8 -17 -11 -5
-1 -5 7 2 -6 -14 -9 -4
2 -4 7 0 -6 -14 -10 -5
2 -6 7 1 -6 -15 -9 -6
2 -5 7 1 -7 -14 -9 -5
2 -5 8 3 -5 -14 -9 -5
1 -5 8 4 -7 -15 -11 -5
3 -5 7 6 -6 -14 -9 -4
3 -3 7 7 -5 -13 -10 -6
1 -5 6 5 -4 -14 -9 -5
1 -7 7 7 -3 -12 -8 -4
0 -8 7 8 -2 -10 -7 -4
3 -5 8 8 -2 -10 -8 -4
3 -5 9 10 -1 -10 -8 -3
2 -7 9 8 -2 -10 -9 -4
3 -5 9 11 -2 -10 -8 -4
4 -5 9 12 -1 -10 -7 -3
2 -4 8 14 -1 -9 -6 -2
4 -3 8 16 0 -8 -5 0
4 -3 6 16 0 -9 -7 -1
5 -2 8 19 3 -5 -5 1
7 0 9 19 5 -3 -3 1
7 -1 9 20 6 -3 -4 1
8 -2 10 24 8 -2 -2 2
9 -1 10 24 8 -1 -2 2
8 -3 10 27 10 0 0 2
10 -1 11 30 12 2 1 6
11 0 10 32 14 4 2 10
14 2 9 35 17 6 3 14
13 2 9 39 20 9 6 16
14 4 10 40 21 10 7 18
16 7 10 43 26 14 11 20
17 8 9 45 29 16 10 21
18 9 10 48 32 18 13 23
19 9 9 49 32 20 15 23
20 7 8 51 34 20 16 24
21 9 8 51 34 22 18 24
21 9 6 53 37 24 19 25
20 8 4 53 37 24 20 25
21 10 4 53 39 26 21 26
21 11 5 53 42 28 23 26
23 13 5 53 43 30 24 28
25 15 5 53 44 31 25 27
24 13 5 52 43 30 25 28
24 13 4 50 41 29 25 27
24 14 4 52 41 29 24 28
24 13 2 50 39 27 24 26
25 14 1 49 41 29 25 28
24 14 1 47 39 28 25 27
23 11 -1 45 38 27 24 25
22 11 -1 44 38 27 24 25
22 12 0 42 38 28 24 26
24 14 2 42 37 27 24 26
23 13 3 41 36 26 24 26
22 13 3 38 32 24 22 24
23 15 3 38 32 23 22 23
22 14 3 37 29 21 21 22
20 13 2 36 28 20 20 21
18 11 2 33 27 18 17 19
15 7 0 29 24 16 15 18
15 8 1 28 24 16 16 19
13 8 3 27 24 17 16 19
12 8 5 26 22 14 15 19
14 8 5 23 21 14 13 17
12 7 6 22 19 12 12 16
14 9 7 22 17 11 12 16
13 10 7 22 15 9 11 15
10 7 6 20 12 7 9 14
10 8 6 18 11 6 8 12
7 6 6 17 11 5 7 12
6 5 6 14 10 4 5 12
6 6 7 13 11 6 6 12
4 3 8 11 9 4 5 12
3 3 9 11 9 4 4 12
2 2 9 9 8 2 4 11
0 2 8 8 5 1 2 9
3 4 8 9 5 -1 2 9
1 3 7 7 3 -1 2 8
0 2 5 5 2 -2 0 7
1 5 6 5 3 -2 1 8
-1 1 6 4 3 -2 1 8
-1 2 6 1 1 -2 0 7
-1 1 7 1 1 -3 1 7
-3 -1 6 0 0 -4 -3 5
-2 -1 7 -1 1 -3 -1 6
-1 -1 6 -1 0 -5 -1 5
-1 -2 5 0 -1 -5 -2 5
-1 0 5 0 0 -4 -1 6
-2 -1 4 0 -1 -5 -1 5
-3 0 3 -2 -1 -6 -2 4
-2 0 2 -3 -1 -7 -3 3
-3 -2 3 -4 -1 -6 -3 3
-3 -2 4 -3 -3 -7 -3 3
-4 -3 3 -4 -3 -8 -4 1
-4 -3 4 -6 -4 -9 -4 1
-3 -2 4 -5 -4 -9 -5 0
-3 -3 3 -4 -6 -11 -7 -1
-3 -3 4 -3 -5 -9 -6 0
-3 -3 3 -3 -5 -10 -6 0
-3 -3 2 -5 -5 -10 -6 0
-2 -1 3 -4 -4 -10 -6 0
-2 -3 4 -5 -3 -9 -6 0
-4 -5 5 -4 -3 -9 -6 -1
-4 -4 5 -5 -4 -10 -6 -3
-5 -5 7 -3 -3 -10 -6 -2
-4 -4 7 -1 -3 -9 -6 -2
-3 -3 7 -1 -5 -10 -6 -2
-8 -7 6 -2 -6 -10 -7 -2
-7 -7 7 -1 -5 -10 -8 -2
-6 -6 8 0 -3 -8 -6 -1
-6 -4 8 1 -3 -8 -6 -2
-5 -3 9 1 -1 -6 -6 -1
-5 -4 10 2 -1 -6 -5 0
-5 -4 12 4 0 -4 -5 0
-5 -5 11 3 -1 -6 -5 -1
-6 -5 12 3 0 -5 -5 -1
-5 -3 10 4 -1 -6 -6 -3
-7 -4 11 5 2 -4 -5 -2
-6 -2 10 4 0 -5 -5 -2
-6 -1 11 5 2 -3 -4 -1
-7 -2 11 6 2 -3 -5 -1
-5 0 13 6 5 -1 -4 0
-5 0 14 7 5 -1 -3 1
-5 0 14 7 5 -1 -4 -1
-3 0 15 9 6 0 -2 0
-4 0 15 9 7 1 -2 0
-4 0 13 9 6 0 -3 -1
-4 1 13 10 6 1 -2 0
-6 0 12 9 5 0 -1 1
-6 0 12 10 7 2 -1 2
-5 2 13 10 8 3 0 2
-5 2 15 10 11 4 1 3
-2 2 15 9 10 4 0 3
-2 1 15 10 10 5 0 3
-1 2 15 9 9 4 0 4
0 4 15 9 10 4 0 3
-2 3 15 10 10 4 0 3
-3 3 12 11 10 5 0 3
-5 2 11 10 10 4 1 3
-5 1 11 10 9 4 0 3
-3 3 11 10 10 5 3 4
-4 1 13 10 11 5 2 4
-4 -1 11 9 9 4 1 3
-5 -1 12 10 10 5 1 3
-5 -1 13 9 10 5 2 4
-3 1 12 10 10 4 1 3
-3 1 11 9 8 5 1 2
-4 0 10 9 9 4 1 2
-4 0 10 7 9 4 1 3
-6 -1 9 7 7 3 1 3
-5 -1 8 7 8 3 1 3
-4 -1 9 5 8 3 1 3
-6 -2 9 5 8 4 1 2
-5 -2 10 7 8 4 1 3
-4 0 11 6 9 4 2 4
-4 1 12 8 9 3 2 4
-4 3 11 9 8 3 2 4
-4 3 11 9 10 5 3 4
-3 4 12 9 11 5 3 5
-2 6 12 11 11 6 3 4
-3 5 13 9 12 7 5 6
-2 6 14 8 13 8 4 6
-4 5 14 9 12 7 5 6
-4 6 15 10 14 9 6 6
-3 8 17 11 14 9 7 8
-3 7 17 11 13 8 7 7
-1 9 17 12 12 8 6 6
-2 10 18 13 13 9 6 6
-2 9 18 13 15 9 6 7
-2 12 18 13 14 9 6 8
-2 11 18 12 14 9 8 9
-4 11 16 9 13 9 6 9
-3 11 15 9 13 9 8 10
-3 11 15 9 14 10 9 10
-1 14 13 10 14 11 9 10
1 15 12 8 14 12 10 12
2 16 10 9 15 12 10 12
4 18 10 9 15 13 12 13
4 17 10 10 15 13 12 14
3 16 9 9 15 13 11 12
2 16 10 10 15 15 11 13
-1 14 11 7 15 14 9 11
0 14 10 8 15 13 10 11
0 12 11 9 15 13 10 12
0 10 9 8 13 10 9 11
4 12 9 7 14 10 8 11
4 9 5 7 12 8 8 10
3 7 5 7 13 9 7 10
2 5 5 8 12 10 8 10
1 3 4 7 13 10 8 10
5 5 3 7 13 10 7 9
4 4 5 7 13 10 6 9
-1 2 6 5 12 8 5 8
-1 1 6 4 11 7 4 8
-4 -2 6 5 11 7 4 7
-5 -3 5 3 8 6 1 5
-7 -6 5 4 7 5 0 4
-10 -9 5 3 4 3 -1 1
-10 -10 5 3 6 4 -1 1
-9 -10 3 1 5 3 -2 1
-8 -10 3 1 5 3 -1 1
-7 -9 3 0 5 3 -1 0
-7 -11 3 -1 5 2 -2 1
-7 -12 3 -1 4 2 -4 0
-6 -10 3 -1 4 2 -4 0
-8 -12 3 0 5 2 -3 -1
-9 -13 2 -1 3 1 -5 -2
-10 -14 2 0 3 1 -5 -1
-9 -14 2 1 4 1 -4 0
-10 -12 1 0 3 1 -4 -1
-11 -13 0 0 2 1 -5 -2
-11 -14 -1 -2 2 0 -5 -2
-8 -12 1 -1 4 1 -4 -2
-9 -11 2 0 4 2 -4 -2
-8 -12 2 1 5 2 -4 -1
-8 -12 1 0 4 1 -4 -1
-9 -12 0 1 3 1 -5 -2
-9 -13 0 0 3 0 -5 -3
-11 -15 0 1 4 0 -5 -2
-11 -14 0 0 3 0 -6 -3
-12 -15 3 2 3 0 -7 -3
-17 -17 9 3 1 -3 -9 -5
-20 -16 20 7 -1 -7 -12 -8
-25 -15 34 13 -2 -10 -15 -10
-26 -11 46 22 0 -10 -14 -9
-24 -5 58 34 8 -5 -11 -5
-24 -4 68 47 15 2 -5 -4
-15 -3 75 64 29 13 1 -2
-5 2 81 88 49 33 14 6
7 14 76 103 73 58 35 22
21 30 54 97 93 85 60 39
35 46 19 82 112 114 85 58
51 62 -17 71 131 142 106 74
64 79 -55 54 149 169 129 91
73 95 -101 26 158 192 149 107
83 108 -145 -1 161 207 164 120
89 126 -172 -10 180 230 182 134
92 143 -192 -16 200 254 199 147
89 132 -197 -15 207 256 192 138
80 95 -197 -17 193 225 157 106
71 57 -195 -27 159 176 113 73
60 17 -188 -40 114 117 64 38
40 -19 -176 -61 65 59 19 7
26 -38 -164 -79 20 13 -14 -15
8 -47 -154 -115 -38 -34 -39 -30
-7 -51 -146 -144 -88 -72 -54 -35
-12 -51 -135 -146 -103 -81 -57 -35
-15 -51 -124 -134 -99 -79 -56 -36
-14 -47 -109 -117 -88 -71 -52 -33
-14 -41 -90 -98 -74 -61 -45 -27
-17 -35 -74 -82 -62 -51 -39 -22
-16 -28 -56 -63 -47 -39 -30 -17
-15 -23 -41 -48 -36 -30 -24 -14
-13 -20 -29 -35 -28 -25 -21 -11
-11 -16 -18 -23 -19 -18 -17 -9
-11 -17 -13 -16 -16 -16 -17 -8
-11 -18 -10 -12 -16 -16 -17 -8
-10 -17 -9 -10 -14 -15 -16 -8
-11 -19 -8 -8 -14 -14 -16 -8
-8 -16 -6 -7 -13 -13 -15 -8
-9 -17 -5 -7 -11 -11 -14 -7
-10 -16 -3 -6 -10 -11 -13 -6
-8 -16 0 -5 -8 -9 -13 -5
-9 -16 0 -7 -10 -10 -13 -6
-9 -17 1 -4 -10 -9 -13 -6
-8 -16 1 -2 -11 -10 -14 -6
-10 -18 0 -1 -12 -11 -14 -7
-10 -16 0 0 -11 -10 -12 -6
-11 -16 0 0 -10 -11 -12 -6
-10 -16 -1 -2 -10 -12 -12 -7
-6 -14 0 -2 -9 -9 -10 -5
-7 -13 2 -1 -8 -8 -9 -4
-8 -15 4 -1 -7 -8 -10 -3
-6 -13 4 -2 -9 -9 -11 -5
-6 -15 2 0 -9 -9 -12 -6
-6 -14 2 2 -9 -10 -12 -5
-7 -16 1 1 -11 -11 -13 -6
-8 -17 -1 1 -13 -12 -12 -8
-7 -15 0 2 -11 -10 -11 -7
-6 -14 1 2 -11 -10 -12 -7
-8 -15 1 1 -10 -8 -10 -7
-6 -13 2 0 -9 -9 -11 -7
-7 -15 3 -1 -10 -9 -12 -6
-5 -14 4 0 -10 -11 -12 -7
-5 -15 4 3 -10 -9 -12 -6
-7 -15 2 3 -12 -13 -13 -7
-7 -15 2 3 -12 -13 -14 -8
-8 -16 1 3 -12 -13 -13 -9
-9 -16 1 3 -12 -12 -13 -8
-8 -14 1 1 -11 -13 -13 -8
-9 -16 0 0 -10 -11 -12 -8
-8 -15 3 1 -9 -10 -11 -7
-8 -15 4 1 -8 -9 -11 -7
-6 -14 4 2 -9 -10 -11 -6
-5 -14 5 3 -9 -9 -11 -7
-6 -14 5 4 -10 -10 -12 -7
-6 -14 4 6 -8 -10 -12 -6
-5 -11 3 6 -9 -10 -12 -6
-6 -13 2 6 -8 -10 -12 -6
-6 -12 3 5 -8 -10 -11 -5
-7 -14 2 4 -8 -9 -11 -6
-7 -14 3 4 -8 -9 -11 -6
-4 -13 5 5 -6 -7 -10 -6
-5 -13 6 4 -7 -8 -10 -5
-4 -12 6 7 -6 -6 -10 -5
-5 -13 6 9 -7 -7 -12 -4
-6 -15 4 8 -7 -8 -13 -4
-4 -12 4 9 -6 -8 -11 -4
-3 -12 3 11 -6 -7 -12 -4
-4 -12 3 9 -5 -6 -11 -4
-5 -12 4 9 -3 -5 -9 -2
-8 -14 4 9 -4 -6 -9 -3
-4 -13 6 10 -3 -4 -9 -2
-1 -11 7 10 -4 -6 -10 -2
-4 -13 7 15 -3 -4 -9 -1
-4 -12 7 17 -3 -6 -10 -2
-3 -12 6 17 -3 -6 -9 -1
-2 -10 5 18 -4 -6 -9 -1
-2 -10 6 21 -2 -3 -8 -1
-3 -10 6 22 0 -3 -8 0
-3 -10 8 23 2 -1 -5 0
-4 -10 8 23 3 1 -4 1
-2 -10 9 24 4 2 -5 2
0 -8 10 26 4 2 -4 2
2 -9 9 29 6 4 -3 2
2 -9 9 31 5 3 -4 2
3 -8 8 33 8 5 -2 3
3 -7 7 36 10 8 0 4
6 -4 8 40 13 9 2 6
6 -4 8 40 16 12 3 7
8 -3 8 42 20 15 6 7
10 1 9 44 23 18 8 9
11 1 11 46 26 21 9 10
12 2 10 48 27 22 10 11
13 3 10 50 29 25 12 13
12 1 9 51 28 24 12 13
14 3 7 53 30 25 14 13
14 4 7 54 34 29 16 15
17 7 6 56 35 30 18 19
18 9 5 55 36 33 20 19
18 9 5 55 37 35 22 20
19 10 5 54 38 35 21 20
20 11 5 54 39 36 22 21
21 11 5 53 38 35 23 22
19 11 5 53 39 37 24 22
17 10 3 53 36 34 22 21
18 9 1 51 34 33 23 20
21 12 0 50 35 34 23 21
21 11 -2 48 34 33 22 21
18 11 -2 47 33 33 22 20
17 11 -2 45 34 33 24 21
17 11 0 45 34 34 23 22
20 12 0 44 31 32 23 22
18 11 0 41 30 32 22 20
17 10 2 40 28 31 22 21
17 10 1 40 26 29 21 21
15 7 -2 37 23 26 19 18
15 8 0 36 23 27 18 18
15 7 1 35 21 27 18 18
12 6 -1 32 19 24 17 16
12 7 2 30 20 24 17 16
11 6 2 29 18 22 15 15
9 6 3 28 17 22 15 15
11 7 4 26 15 21 14 14
8 5 6 25 14 19 13 15
8 5 4 24 11 17 10 13
9 5 3 22 8 14 9 10
7 3 4 22 8 15 9 10
6 3 4 20 7 13 8 10
4 3 3 19 4 12 7 10
5 3 4 15 4 12 7 8
4 3 6 15 5 12 7 9
2 2 6 13 4 11 6 7
4 5 6 11 3 10 5 6
3 4 7 11 3 8 5 7
2 3 5 9 0 5 2 5
2 3 4 9 -1 4 3 5
1 4 4 8 -1 5 2 5
2 4 4 7 0 5 2 5
0 4 4 6 0 5 2 5
-2 1 3 3 -1 4 2 4
-1 1 4 4 1 4 1 5
0 1 3 3 0 3 1 5
-4 -1 2 1 0 2 0 3
-3 -2 3 1 -1 3 0 4
-2 0 2 1 -2 1 0 4
0 0 1 0 -4 0 -1 3
0 1 1 1 -2 1 -1 2
-2 -2 -1 -1 -3 -1 -2 1
0 0 -1 -1 -3 -1 -1 1
-1 -2 0 -1 -1 0 0 1
-3 -3 0 -3 -1 -1 -3 1
-3 -2 1 -2 -1 -1 -2 2
-2 -3 0 -3 -2 -1 -3 0
-2 -4 0 -2 -3 -2 -4 0
-3 -4 0 -2 -4 -3 -5 0
-3 -5 0 -1 -4 -3 -4 0
-4 -3 -1 -2 -3 -3 -5 -1
-4 -3 -1 -1 -4 -3 -5 -1
-4 -4 0 -1 -3 -2 -4 0
-1 -1 1 0 -2 -2 -3 0
-2 -2 1 -1 -2 -3 -4 0
-3 -3 2 -1 -1 -3 -4 1
-4 -2 3 -1 -2 -2 -4 -1
-4 -4 4 0 -3 -3 -5 -1
-2 -4 2 0 -5 -6 -8 -3
-3 -5 3 1 -4 -5 -6 -3
-3 -4 3 1 -4 -6 -7 -3
-2 -3 4 2 -3 -5 -6 -2
-4 -3 3 2 -4 -5 -6 -3
-3 -2 6 3 -2 -2 -4 -2
-2 -2 7 3 -1 -3 -4 -1
-3 -3 8 4 -1 -4 -4 -2
-3 -3 7 3 0 -3 -5 -3
-4 -4 9 3 -1 -3 -5 -3
-5 -5 9 6 -1 -3 -5 -2
-5 -4 9 6 -1 -2 -4 -2
-7 -5 9 5 -1 -2 -5 -3
-6 -5 9 5 0 -2 -5 -3
-3 -4 9 6 1 0 -4 -2
-4 -2 11 6 2 1 -3 -2
-3 -1 11 6 2 0 -4 -3
-3 -1 11 6 2 -1 -3 -2
-2 -1 12 6 3 0 -4 -2
-2 0 12 7 3 0 -4 -2
-4 -2 11 7 1 -2 -6 -3
-4 -2 11 7 3 0 -4 -1
-4 -1 11 6 2 -1 -5 -2
-6 -1 11 7 4 0 -4 -1
-5 0 11 7 4 1 -4 -1
-6 -2 12 6 5 2 -2 -1
-6 -2 12 7 4 2 -2 -1
-4 1 14 9 6 4 -1 1
-3 0 14 9 6 3 -2 0
-2 1 14 9 6 3 -1 1
-1 3 14 9 6 3 -2 2
-2 3 12 9 5 2 -2 1
-1 2 11 8 4 0 -3 0
-3 3 11 8 6 1 -2 1
-2 3 11 7 5 1 -2 1
-1 3 12 9 7 3 0 1
-1 2 12 7 6 2 -1 1
1 4 13 7 6 3 0 1
0 5 12 7 5 3 0 1
-2 3 12 7 5 2 -1 1
-1 4 11 8 4 1 -1 2
0 5 10 7 4 1 -1 0
0 4 10 7 4 1 -2 1
0 5 10 6 4 1 -1 1
-1 2 8 4 3 1 -2 0
0 4 9 5 4 2 0 1
-1 3 9 5 3 2 -1 0
-3 1 9 4 3 1 -2 -1
-1 2 8 4 2 -1 -3 -1
-1 1 10 5 3 0 -1 1
0 2 8 4 1 -1 -3 0
1 3 8 4 1 -1 -2 0
1 3 8 4 1 -2 -2 1
2 3 8 4 2 -2 -1 1
1 3 7 3 1 -1 -1 1
2 4 9 3 2 1 0 2
3 6 11 4 4 1 0 2
1 6 12 3 3 0 0 1
0 7 12 4 4 1 -1 2
3 11 13 6 4 1 0 1
4 10 13 6 2 1 0 2
4 12 13 6 3 2 1 3
2 12 13 6 4 2 1 3
2 14 13 7 5 2 2 3
3 16 15 9 5 3 3 3
4 16 16 8 6 5 5 4
6 17 18 8 6 5 4 5
4 16 17 8 5 4 3 4
2 15 18 7 5 4 2 5
4 16 18 7 5 3 3 5
3 15 17 7 3 3 3 6
7 17 15 6 2 3 3 6
8 19 14 6 3 4 4 7
8 20 13 6 4 5 5 8
9 23 11 5 4 5 6 9
11 25 12 6 7 8 8 11
12 25 13 6 6 9 9 11
14 27 11 5 7 9 10 11
12 26 11 6 7 9 10 11
10 24 12 6 6 9 9 10
9 23 11 6 4 6 8 9
9 21 10 5 4 4 6 10
10 20 10 4 2 4 6 9
12 22 9 4 3 5 7 9
11 19 8 4 2 5 7 9
14 21 7 2 3 4 6 9
15 19 7 3 3 6 7 9
15 18 7 3 2 5 6 9
15 16 8 4 2 5 6 9
14 15 6 3 1 4 5 9
15 14 6 2 0 3 5 9
12 12 6 2 0 3 4 9
7 9 5 1 -2 1 3 8
7 8 5 -1 -4 0 2 7
5 6 4 -2 -5 -2 1 4
4 6 6 -2 -4 -2 0 3
5 5 7 -2 -3 -3 0 2
3 4 7 -3 -5 -4 -2 0
3 2 6 -5 -9 -6 -5 -2
5 3 6 -6 -9 -7 -5 -2
5 3 5 -7 -11 -8 -6 -3
5 3 4 -6 -10 -8 -6 -1
3 0 2 -8 -12 -9 -7 -3
3 -1 3 -9 -10 -8 -6 -4
5 2 3 -8 -12 -8 -6 -3
4 0 4 -7 -11 -7 -6 -3
5 2 5 -7 -10 -6 -5 -3
5 2 4 -7 -10 -7 -5 -3
5 1 4 -8 -11 -7 -6 -3
7 2 4 -8 -12 -7 -6 -3
7 2 4 -7 -12 -7 -6 -3
7 2 3 -7 -12 -8 -6 -3
7 2 2 -8 -13 -8 -7 -3
4 0 2 -7 -12 -8 -6 -3
4 1 3 -6 -11 -7 -6 -3
5 1 3 -8 -10 -7 -7 -3
3 -2 4 -8 -11 -7 -5 -4
2 -1 4 -8 -11 -6 -5 -4
3 -2 5 -7 -12 -7 -6 -4
4 -2 4 -8 -13 -7 -6 -5
4 -1 6 -6 -13 -9 -7 -5
0 -3 11 -4 -14 -11 -11 -9
-3 -2 20 -1 -16 -16 -15 -10
-9 0 32 4 -17 -19 -17 -13
-14 1 46 14 -15 -19 -17 -14
-14 6 57 24 -8 -13 -13 -12
-11 8 66 35 -1 -7 -9 -10
-6 6 76 52 12 4 -2 -7
6 9 82 75 32 21 9 -1
20 23 80 92 55 46 29 14
35 40 61 90 74 71 53 32
48 56 27 77 93 99 77 52
64 71 -8 65 112 126 100 68
76 90 -45 52 131 155 124 86
86 105 -91 26 142 178 144 102
94 117 -135 -6 145 193 160 116
101 133 -165 -18 162 216 178 129
103 150 -184 -25 181 239 194 140
102 142 -191 -24 191 242 190 134
92 106 -192 -24 178 217 156 104
83 68 -189 -33 145 169 113 72
74 30 -182 -47 101 111 64 38
56 -5 -173 -68 53 52 19 6
38 -27 -163 -87 9 7 -15 -18
20 -35 -151 -118 -43 -37 -38 -33
5 -38 -143 -150 -94 -75 -53 -39
0 -39 -133 -156 -111 -87 -59 -40
-5 -40 -120 -146 -109 -86 -57 -40
-4 -36 -105 -127 -98 -78 -52 -36
-5 -30 -87 -108 -86 -69 -45 -31
-8 -27 -70 -91 -75 -59 -40 -27
-7 -21 -53 -73 -60 -48 -32 -22
-2 -13 -38 -54 -46 -38 -24 -17
-2 -10 -25 -41 -38 -30 -20 -15
2 -5 -16 -31 -31 -24 -16 -14
1 -4 -9 -24 -25 -21 -14 -11
2 -4 -7 -20 -23 -19 -13 -12
2 -6 -5 -17 -22 -18 -13 -12
0 -9 -4 -15 -22 -19 -14 -13
1 -7 -2 -15 -21 -19 -15 -13
0 -8 -1 -15 -19 -19 -14 -12
-1 -9 1 -13 -20 -18 -14 -12
1 -7 1 -12 -19 -18 -13 -12
0 -7 2 -11 -18 -17 -12 -11
2 -7 3 -11 -18 -17 -12 -11
3 -4 3 -9 -17 -16 -11 -11
3 -5 2 -10 -18 -17 -11 -12
3 -6 3 -10 -18 -16 -12 -11
4 -4 4 -8 -16 -15 -11 -10
3 -3 2 -7 -16 -15 -10 -10
5 -3 4 -7 -17 -15 -10 -9
4 -5 5 -6 -16 -14 -10 -7
3 -5 5 -6 -16 -15 -10 -8
3 -3 4 -7 -16 -15 -10 -9
4 -5 6 -5 -16 -15 -10 -8
3 -4 6 -5 -15 -14 -9 -7
3 -4 5 -5 -16 -15 -9 -8
2 -5 4 -6 -18 -15 -11 -9
2 -4 6 -4 -16 -15 -10 -8
2 -3 6 -4 -15 -14 -10 -8
2 -5 6 -5 -15 -15 -10 -9
3 -5 6 -3 -14 -14 -11 -9
2 -5 6 -4 -15 -15 -11 -9
3 -3 6 -4 -17 -15 -10 -10
4 -5 7 -3 -15 -15 -10 -10
2 -5 5 -4 -17 -15 -12 -12
3 -5 5 -5 -17 -16 -11 -13
3 -5 5 -4 -16 -15 -11 -12
3 -5 7 -2 -15 -15 -10 -11
4 -2 6 -2 -14 -15 -11 -11
1 -5 8 -4 -14 -15 -11 -11
2 -5 7 -4 -15 -15 -12 -10
2 -6 8 -2 -14 -15 -11 -8
3 -4 8 -1 -13 -13 -9 -7
5 -4 8 -1 -12 -13 -9 -6
3 -4 7 -1 -12 -12 -10 -5
2 -6 6 -3 -13 -13 -10 -7
4 -5 6 -2 -12 -12 -11 -6
3 -6 7 -1 -13 -12 -12 -6
4 -4 7 -1 -12 -11 -11 -5
4 -4 8 -1 -11 -11 -10 -5
3 -3 9 1 -9 -11 -11 -5
4 -2 10 3 -7 -9 -9 -3
5 -2 8 2 -9 -11 -10 -5
3 -4 11 3 -8 -10 -9 -4
4 -3 8 3 -8 -10 -9 -4
3 -5 8 4 -9 -10 -8 -5
6 -3 8 2 -8 -9 -9 -5
4 -4 9 4 -7 -9 -8 -4
3 -3 9 5 -6 -8 -8 -5
4 -3 11 6 -5 -7 -7 -3
6 -2 11 7 -5 -6 -8 -3
7 -2 12 8 -6 -5 -7 -3
7 -1 11 9 -5 -5 -7 -4
6 -3 12 9 -5 -6 -7 -4
7 -1 12 11 -4 -5 -6 -3
7 -2 12 12 -4 -6 -6 -4
5 -4 10 12 -2 -5 -5 -4
6 -3 11 14 -1 -5 -6 -3
7 -2 11 16 0 -3 -5 -3
7 -2 13 17 0 -3 -4 -2
7 -2 13 20 2 0 -4 0
7 -2 14 20 3 -1 -3 1
10 0 14 23 5 1 -1 3
11 0 15 24 6 2 0 5
12 0 14 26 8 3 0 6
11 1 14 29 9 5 1 5
11 0 13 31 11 7 2 6
12 2 13 32 13 9 3 8
14 5 13 35 16 12 6 10
15 5 14 37 18 14 7 12
17 6 14 41 22 16 11 14
17 6 15 44 25 19 13 16
19 8 13 45 27 21 14 16
21 11 14 47 30 23 16 18
22 10 13 47 31 25 18 19
23 11 12 48 33 27 19 19
24 13 12 50 35 30 22 22
24 14 11 51 36 30 21 24
26 16 9 51 37 30 21 23
26 16 8 51 37 32 22 24
26 15 7 52 39 34 24 25
27 17 9 52 40 35 26 26
27 17 8 51 40 36 27 27
29 20 8 50 40 35 27 27
31 21 6 50 40 35 27 27
30 19 5 50 38 35 28 26
31 20 4 49 39 35 29 27
30 20 5 47 37 34 28 27
30 21 4 46 38 34 28 27
28 20 5 46 37 35 28 29
26 17 4 42 35 33 28 27
26 18 4 42 34 33 27 28
27 18 3 42 35 32 26 27
24 15 3 40 33 31 25 26
24 15 3 39 33 30 25 25
25 16 3 37 29 28 23 24
26 17 2 35 28 27 22 23
26 18 4 34 28 27 22 24
23 16 5 33 26 26 22 24
23 17 5 30 24 24 20 21
22 15 5 28 22 23 19 21
20 14 6 26 20 21 18 21
20 13 7 27 19 21 19 22
18 13 6 24 17 18 16 20
17 11 6 23 16 18 15 18
16 11 6 21 14 16 14 17
15 11 7 20 14 15 14 17
16 12 8 20 14 15 13 17
14 12 8 20 14 15 14 18
15 12 9 18 11 14 13 17
16 13 9 16 10 12 11 17
13 12 10 14 9 10 10 16
12 10 10 13 9 9 10 14
11 11 11 12 7 9 9 14
9 10 9 11 6 8 9 14
9 10 10 10 6 7 9 14
9 9 9 9 5 7 9 15
7 8 9 8 5 6 9 15
8 10 10 9 4 6 10 16
9 10 9 6 3 4 8 14
8 11 9 5 3 3 6 15
9 11 9 4 2 3 6 14
7 9 8 3 1 4 6 14
7 10 7 3 0 4 6 14
6 9 7 3 0 3 5 14
7 7 6 0 -1 2 5 11
8 9 5 1 -2 3 5 13
4 7 4 0 -2 2 4 12
4 6 4 0 -1 2 5 12
6 7 5 0 -1 2 5 12
3 6 5 0 -2 2 5 13
7 9 4 -1 -3 1 4 12
8 9 5 0 -2 2 5 13
6 8 4 0 -3 1 4 12
5 7 5 0 -2 1 4 12
4 5 5 0 -3 1 3 11
5 6 4 -1 -3 -2 1 12
5 6 4 0 -4 -1 2 12
4 3 3 0 -4 -2 1 11
4 3 4 -1 -4 -2 1 9
2 4 5 0 -4 -1 2 11
3 5 6 0 -4 -2 1 10
4 6 7 1 -3 -1 2 10
4 5 7 2 -3 -1 2 11
4 6 7 1 -3 -2 1 10
5 7 9 3 -2 -2 2 10
4 5 10 2 -2 -1 2 10
4 6 8 2 -4 -2 0 9
2 5 9 2 -4 -2 0 9
2 4 9 4 -3 -1 0 9
3 4 10 4 -3 -2 -1 9
2 4 11 6 -3 -1 -1 9
4 6 11 7 -3 0 0 8
3 5 11 6 -3 0 0 9
2 5 11 6 -3 -2 -1 9
3 7 13 6 -2 -1 -1 9
4 7 12 6 -2 0 -1 9
4 7 12 6 -1 0 -1 9
3 7 13 8 0 1 0 10
1 6 13 8 -2 0 -1 8
1 5 15 10 1 2 1 11
1 6 13 9 1 2 1 10
1 4 13 9 0 2 1 9
2 6 13 9 1 2 1 9
3 7 13 10 1 3 1 10
2 7 14 10 2 3 0 9
2 9 15 11 3 4 1 10
2 8 15 10 2 4 1 10
3 9 16 11 4 5 3 11
0 7 14 10 3 5 2 11
1 7 15 10 3 5 1 10
3 9 15 11 4 7 3 11
1 8 14 11 5 8 4 10
1 8 13 11 4 6 3 10
2 8 13 11 4 6 3 10
2 10 13 10 4 6 3 10
3 11 13 10 4 6 5 11
4 11 13 10 5 6 4 11
4 11 12 10 6 7 4 10
5 12 13 10 6 7 5 12
6 11 13 10 5 7 5 12
5 12 13 10 5 8 5 12
4 12 13 10 5 7 4 11
2 10 12 9 6 7 4 11
4 11 11 9 5 8 5 11
5 11 9 8 3 6 4 9
4 10 10 9 4 8 4 9
5 12 10 9 4 7 4 10
4 11 10 10 4 9 5 12
6 11 10 8 4 7 4 11
7 12 10 7 3 7 3 11
5 10 11 7 4 7 4 9
5 12 10 7 4 7 5 9
4 10 10 6 3 5 4 9
2 9 9 5 2 5 4 9
4 10 9 5 3 5 5 9
3 8 8 5 2 4 2 8
3 8 7 4 0 4 2 8
4 8 8 6 2 5 4 9
3 8 8 4 2 5 3 8
4 9 7 3 1 4 3 8
2 7 8 4 0 4 3 6
2 6 7 3 -1 4 2 7
2 6 6 1 -1 3 1 6
0 5 6 1 -2 2 1 6
0 6 8 2 -2 3 3 6
1 6 6 3 0 3 2 6
1 8 8 4 1 5 3 8
2 9 9 6 0 6 4 8
2 9 10 5 1 6 5 9
3 13 11 6 3 7 5 10
4 14 13 9 3 8 7 10
4 14 12 7 2 7 5 8
5 15 14 8 4 8 5 9
5 17 14 7 4 9 6 10
4 16 15 9 4 9 7 10
5 18 15 10 5 10 7 10
3 18 15 10 4 9 6 9
2 15 15 10 4 9 7 8
2 17 16 10 4 10 7 9
1 18 15 8 3 9 6 8
4 20 14 9 4 9 7 8
4 20 14 9 4 10 8 10
2 20 14 9 5 10 9 11
6 25 13 8 6 11 11 12
8 27 11 9 6 13 11 12
9 27 11 9 8 13 12 13
10 30 11 10 9 15 13 15
10 30 9 10 9 15 14 15
9 28 10 11 8 15 12 14
9 26 9 11 7 14 12 13
6 24 8 10 6 13 11 10
5 24 9 10 6 13 11 10
9 24 9 11 6 11 9 9
8 22 8 10 5 12 10 10
10 24 8 10 4 12 10 10
10 22 4 8 3 11 8 8
13 21 5 9 4 12 9 8
11 19 4 9 4 12 9 8
10 17 4 8 4 11 9 7
11 16 3 7 3 11 8 8
10 14 1 6 2 9 6 6
6 13 2 7 0 8 6 5
6 13 1 6 1 7 5 4
4 11 1 4 -2 6 5 3
3 12 2 5 -2 6 4 2
1 10 2 4 -3 5 2 1
-1 7 2 3 -4 4 1 0
-1 6 1 2 -5 3 -1 -1
-1 5 2 2 -5 3 0 -2
-1 5 1 1 -6 2 -2 -4
-1 4 0 0 -7 1 -3 -3
-2 3 -1 0 -7 1 -2 -4
0 3 -2 -1 -8 1 -3 -4
-1 2 -1 1 -7 2 -1 -4
-1 4 -2 0 -8 1 -3 -4
1 5 -1 0 -8 1 -2 -4
2 5 -1 0 -8 1 -2 -5
2 5 -1 0 -8 1 -2 -4
3 6 -1 1 -7 2 -2 -5
1 6 -2 1 -8 2 -2 -5
2 6 -2 0 -8 1 -3 -6
-1 4 -2 1 -8 1 -3 -6
1 5 -2 1 -7 1 -2 -6
2 6 -2 1 -7 1 -2 -6
2 5 -1 2 -6 2 -1 -5
1 4 -3 1 -8 1 -3 -6
1 4 -2 1 -7 2 -1 -5
0 3 -2 -1 -7 1 -1 -5
4 5 -1 1 -6 1 -3 -7
3 5 -1 2 -7 2 -3 -6
-1 4 3 4 -6 1 -3 -7
-4 4 11 6 -9 -3 -7 -10
-11 3 22 10 -11 -6 -10 -13
-15 5 34 17 -10 -9 -11 -13
-15 8 48 28 -5 -6 -9 -12
-16 10 57 37 1 -2 -6 -10
-12 10 66 51 11 7 0 -8
-5 10 74 71 26 20 6 -6
9 18 76 92 49 43 23 6
22 35 68 102 70 68 45 22
37 50 40 89 88 93 69 41
52 66 6 76 106 119 92 58
68 83 -29 65 123 145 113 74
78 98 -67 46 140 172 135 89
89 112 -113 16 148 192 153 106
95 124 -152 -9 151 207 168 117
100 141 -177 -14 172 232 188 132
102 152 -191 -21 189 251 199 141
96 129 -195 -18 190 241 180 123
88 93 -194 -24 167 203 140 90
80 54 -192 -36 130 151 94 55
63 16 -183 -53 82 91 46 22
47 -15 -171 -71 37 38 6 -6
28 -31 -162 -94 -8 -5 -23 -26
9 -36 -151 -130 -64 -49 -43 -35
-2 -38 -142 -148 -99 -75 -53 -38
-8 -42 -133 -146 -108 -80 -56 -41
-9 -39 -119 -131 -99 -73 -51 -38
-8 -33 -102 -111 -87 -64 -45 -34
-11 -32 -84 -94 -74 -55 -39 -29
-9 -24 -65 -76 -60 -43 -31 -23
-8 -16 -50 -58 -48 -33 -24 -18
-4 -11 -36 -42 -36 -24 -17 -14
-2 -6 -24 -29 -27 -16 -12 -12
1 -4 -17 -20 -22 -13 -11 -12
0 -5 -12 -15 -19 -12 -10 -11
-1 -8 -10 -11 -17 -10 -9 -10
-1 -7 -9 -10 -17 -11 -12 -11
1 -6 -7 -8 -16 -10 -11 -11
-2 -8 -5 -8 -15 -9 -9 -10
-4 -9 -5 -8 -14 -7 -9 -11
-2 -7 -2 -7 -12 -7 -9 -10
-2 -8 -2 -6 -12 -7 -8 -11
1 -6 -1 -6 -13 -7 -8 -10
2 -6 -2 -4 -12 -8 -9 -10
2 -7 -1 -4 -12 -8 -9 -10
1 -6 -1 -2 -14 -6 -8 -9
0 -4 -1 -4 -13 -7 -8 -9
1 -6 -3 -5 -13 -7 -8 -10
0 -6 -1 -4 -12 -6 -7 -8
-1 -6 -1 -4 -11 -6 -7 -9
1 -5 1 -4 -10 -6 -8 -9
1 -6 1 -3 -11 -6 -7 -8
1 -5 1 -3 -12 -6 -7 -8
3 -4 0 -3 -13 -7 -8 -9
1 -5 0 -3 -12 -7 -8 -9
2 -5 -1 -2 -12 -7 -7 -9
3 -3 0 -2 -12 -7 -7 -8
1 -4 0 -3 -12 -7 -7 -8
0 -5 1 -4 -10 -5 -7 -7
0 -6 0 -4 -11 -8 -7 -9
2 -5 1 -3 -11 -8 -8 -10
5 -3 3 -2 -10 -7 -7 -9
2 -5 2 -2 -13 -8 -9 -10
3 -4 0 -3 -13 -8 -8 -10
4 -4 1 -1 -12 -7 -7 -9
4 -5 1 0 -11 -9 -7 -10
4 -3 1 0 -10 -7 -8 -10
5 -2 0 -1 -9 -9 -8 -10
3 -3 1 0 -10 -6 -6 -9
3 -3 2 0 -9 -5 -6 -9
1 -3 3 -2 -8 -6 -7 -10
4 -2 3 -1 -8 -5 -6 -8
7 -2 2 -1 -9 -6 -8 -11
4 -5 2 0 -9 -7 -9 -11
3 -4 3 1 -8 -6 -9 -11
4 -3 1 2 -9 -5 -8 -10
4 -3 2 1 -9 -5 -7 -9
6 0 2 3 -5 -3 -5 -8
4 0 4 3 -4 -3 -4 -9
3 -1 4 4 -5 -2 -4 -9
4 0 4 3 -5 -3 -6 -10
5 0 4 4 -3 -2 -5 -10
7 1 6 4 -4 -1 -6 -9
5 0 4 4 -5 -3 -6 -8
5 -1 4 5 -5 -3 -6 -11
7 0 3 7 -4 -2 -5 -11
6 1 3 7 -3 -2 -5 -10
8 2 4 8 -2 0 -4 -10
6 1 5 8 0 1 -3 -9
5 1 4 8 0 1 -3 -9
7 4 7 10 1 3 -2 -9
8 3 6 11 1 2 -2 -10
8 2 6 10 0 2 -3 -10
8 2 5 12 0 2 -3 -9
6 0 5 12 0 1 -4 -11
7 1 7 15 2 3 -1 -9
8 2 6 14 2 1 -3 -9
7 0 6 15 3 2 -2 -10
8 2 6 17 4 4 0 -9
9 2 6 19 5 5 1 -8
10 4 8 20 7 6 2 -7
12 5 9 22 9 9 3 -6
12 5 8 24 9 8 3 -6
12 4 8 27 11 9 3 -6
11 3 9 28 12 10 5 -5
11 3 9 30 13 12 6 -4
13 7 7 31 15 13 6 -2
14 7 6 32 17 15 7 -2
14 7 7 36 20 17 11 1
16 10 7 39 24 20 12 2
16 10 7 39 27 21 12 2
19 10 8 42 30 26 17 5
20 13 7 45 32 28 17 6
23 13 6 47 34 29 19 8
24 15 6 49 35 29 20 9
23 14 5 51 37 32 22 9
23 16 3 50 37 32 22 10
24 17 3 51 40 36 24 12
23 16 3 50 41 37 25 12
25 19 4 50 43 39 27 14
26 20 2 50 43 39 27 15
27 20 3 52 44 41 30 15
28 20 2 51 43 40 29 16
28 21 1 50 43 41 28 16
30 22 0 49 43 41 29 17
30 23 0 50 44 42 30 19
29 22 -2 47 42 39 30 18
28 22 -2 47 42 40 30 17
26 21 -1 46 42 41 31 18
25 21 -1 44 42 41 31 18
28 23 -2 41 40 39 28 17
25 20 -2 41 39 38 28 17
23 19 -2 40 39 36 27 17
24 21 -3 38 37 35 26 16
24 18 -3 38 36 34 25 15
24 19 -2 37 34 35 26 16
24 21 -3 34 32 33 24 16
23 20 -2 32 31 31 23 15
22 19 0 32 32 32 24 16
18 17 -1 30 29 29 22 14
18 18 0 27 27 28 21 12
18 17 1 27 27 28 21 12
16 16 1 24 24 26 19 12
16 17 2 25 23 23 18 11
15 17 2 24 21 22 17 10
14 16 2 22 20 21 16 10
14 15 2 20 20 20 15 8
11 14 2 19 19 18 15 7
12 16 4 17 18 19 14 8
13 17 4 17 17 18 15 9
11 15 4 15 15 16 13 7
10 13 6 16 16 17 15 7
8 14 4 13 13 15 11 5
7 13 4 11 12 13 10 4
7 13 4 11 12 13 10 4
6 11 4 10 11 12 10 5
7 13 3 10 10 11 10 4
5 13 4 9 10 12 10 5
4 12 4 7 10 11 10 4
6 13 3 5 9 11 9 4
8 11 3 4 7 10 8 3
8 13 3 5 8 9 9 3
5 13 3 5 7 8 9 4
4 9 1 2 5 7 7 2
5 10 2 3 5 8 7 2
3 11 1 3 4 8 7 2
1 9 -1 1 3 6 5 1
3 10 -1 1 4 6 5 1
4 10 -1 0 5 5 5 1
5 10 0 0 4 7 6 2
6 10 1 -1 4 6 6 1
2 7 2 1 5 7 6 1
4 7 1 0 2 4 5 1
3 7 -1 0 2 4 5 0
3 7 -1 0 2 3 3 -1
3 8 0 0 3 4 4 0
2 7 -1 0 1 3 4 0
1 6 -1 0 2 3 3 -2
1 6 1 0 2 1 3 -2
2 6 1 0 2 2 4 -1
3 8 3 0 3 3 4 0
3 8 4 1 3 3 3 -1
4 7 4 2 2 2 3 0
5 9 3 3 2 2 3 -1
2 7 4 3 2 1 2 -1
0 6 3 4 3 1 2 -2
2 7 4 4 3 1 2 -2
-1 5 3 2 2 1 1 -3
0 5 5 4 2 2 3 -1
0 6 6 4 4 3 2 -1
1 6 7 4 3 1 2 -2
3 8 9 6 5 3 2 -2
2 8 9 6 4 2 2 -2
2 7 8 7 5 2 1 -1
3 8 8 7 3 2 1 -1
1 7 8 8 4 2 2 -1
1 7 8 8 4 2 3 -2
0 7 7 8 4 1 1 -3
-1 5 9 9 6 3 2 -2
-1 7 12 9 7 5 3 0
-2 5 11 8 7 4 4 0
-3 4 10 8 7 2 2 -2
0 6 12 9 6 4 3 -2
0 6 11 10 5 3 3 -3
1 7 10 10 5 3 3 -3
0 7 10 10 6 4 3 -2
0 8 9 9 6 5 3 -2
0 9 9 11 8 5 3 -2
-3 5 10 11 9 5 4 -1
-1 7 11 11 10 6 5 -1
-2 7 11 10 9 6 5 -1
-4 5 11 8 8 6 4 -2
-3 5 12 10 8 6 5 0
0 8 10 10 8 5 4 0
-1 8 11 12 9 7 5 0
0 8 9 12 9 6 6 1
-1 7 9 11 9 6 7 1
-1 8 9 9 9 7 7 1
0 9 9 11 9 7 8 2
-1 8 9 9 9 6 7 1
0 10 8 9 8 6 5 0
-2 9 8 9 8 7 5 0
-1 7 9 10 9 7 5 0
0 8 8 9 9 7 5 0
1 10 6 11 10 6 6 0
2 11 6 10 9 6 6 0
1 9 6 10 7 6 5 -1
0 8 6 9 7 6 6 1
1 10 7 9 9 7 6 1
0 9 6 7 8 5 6 0
-2 8 7 7 8 5 6 0
0 9 6 7 7 4 6 -1
-2 7 5 7 5 4 5 0
0 9 6 7 6 5 6 0
-2 7 5 8 5 5 6 0
-2 5 4 5 5 3 5 0
-3 6 5 5 6 3 4 0
-2 6 4 5 5 4 4 -1
0 7 4 5 3 2 4 -1
-1 8 4 3 4 3 4 -1
-2 6 4 3 3 1 3 -1
1 9 5 3 4 1 4 -1
-1 7 5 4 3 2 4 1
-3 6 5 4 2 2 5 0
0 8 4 5 3 1 4 -1
-2 7 4 5 3 2 3 0
-2 8 4 5 3 2 4 1
-1 10 6 6 6 4 6 2
-3 11 7 6 5 3 6 2
-1 13 8 9 7 5 8 4
0 15 9 9 6 5 8 4
0 15 9 10 7 5 8 3
2 18 11 11 8 6 9 5
2 18 11 11 9 7 9 6
1 18 11 10 7 6 8 5
0 19 12 12 8 7 9 5
-2 17 12 11 9 8 9 5
-2 17 12 12 9 7 9 5
0 19 12 12 9 8 9 6
1 20 14 11 9 8 10 6
1 22 13 9 8 8 10 5
0 22 11 8 7 8 10 6
1 24 11 8 9 9 11 7
3 27 10 9 9 9 12 9
4 26 9 10 10 10 12 10
5 27 7 10 10 11 13 10
5 29 6 8 11 12 14 11
6 28 6 10 11 13 14 11
7 29 8 12 13 14 15 11
5 26 7 9 12 12 14 10
4 26 7 8 11 11 14 10
3 24 9 10 12 12 13 10
3 22 7 9 10 11 11 9
5 22 8 8 12 11 12 9
4 21 6 8 10 9 11 8
6 19 5 7 9 9 11 7
8 19 4 7 8 9 10 7
5 16 3 6 8 9 11 7
7 17 3 6 7 9 10 8
6 16 2 5 9 9 11 8
4 13 2 5 7 8 9 6
4 12 3 5 7 6 7 4
0 9 3 5 6 6 7 5
-2 8 3 5 5 6 7 4
-1 10 2 4 4 3 6 3
-3 5 2 3 2 2 5 2
-5 4 2 1 2 0 3 0
-5 4 2 1 1 -1 3 0
-7 2 1 0 0 0 2 -2
-6 2 0 -2 0 -2 1 -2
-7 0 0 -2 -1 -3 0 -3
-7 -3 0 -3 -3 -4 -2 -4
-8 -2 1 -4 -2 -4 -1 -4
-8 -3 1 -3 -2 -3 -1 -4
-5 0 0 -2 -3 -3 -1 -4
-7 -1 0 -2 -3 -4 -1 -4
-8 -3 -1 -2 -3 -5 -2 -5
-5 1 -2 -2 -2 -4 -1 -5
-6 0 -2 -3 -3 -4 -2 -5
-7 -1 -2 -3 -2 -3 -1 -4
-6 -1 -1 -4 -3 -4 -1 -4
-8 -2 -1 -3 -2 -4 -3 -4
-5 -1 -2 -4 -4 -4 -3 -5
-7 -2 -2 -3 -3 -3 -2 -5
-8 -4 -3 -4 -3 -4 -3 -5
-8 -3 -2 -2 -2 -3 -2 -4
-7 -3 -3 -3 -4 -3 -2 -6
-7 -4 -2 -3 -2 -2 -1 -4
-6 -2 -2 -3 -2 -3 -2 -4
-7 -2 -2 -3 -1 -3 -2 -4
-7 -3 2 -1 -1 -5 -4 -6
-12 -5 9 2 -4 -8 -7 -9
-18 -5 21 7 -6 -11 -10 -11
-21 -2 34 14 -5 -11 -10 -10
-23 0 46 23 -2 -11 -10 -11
-24 4 55 34 5 -6 -6 -9
-20 6 65 48 15 3 0 -6
-12 4 72 66 28 13 6 -3
1 11 76 87 49 35 20 6
13 25 70 99 72 60 41 21
28 42 45 90 90 85 64 38
46 59 12 79 110 113 90 59
61 74 -21 66 127 138 111 73
70 89 -56 50 143 163 131 89
78 103 -101 20 151 183 150 105
86 113 -143 -7 152 197 163 116
94 133 -169 -14 174 222 183 131
94 146 -186 -20 191 243 197 142
89 128 -191 -21 191 235 182 125
81 94 -190 -25 174 202 145 95
71 56 -188 -37 137 152 100 63
57 17 -180 -54 89 93 53 30
44 -13 -170 -74 42 37 11 -1
24 -33 -159 -94 -2 -6 -21 -21
4 -39 -151 -129 -59 -52 -43 -33
-5 -40 -143 -150 -95 -79 -54 -37
-11 -43 -134 -149 -103 -85 -54 -38
-13 -40 -122 -136 -97 -80 -51 -38
-14 -37 -104 -117 -84 -70 -45 -33
-14 -32 -87 -100 -73 -61 -40 -29
-15 -25 -69 -83 -60 -51 -32 -23
-13 -19 -54 -65 -47 -40 -24 -18
-9 -12 -37 -48 -31 -30 -16 -13
-6 -8 -26 -35 -24 -25 -13 -10
-6 -6 -17 -23 -19 -20 -9 -8
-6 -7 -13 -15 -16 -18 -9 -7
-8 -9 -12 -14 -15 -17 -10 -9
-5 -7 -9 -11 -13 -15 -8 -9
-6 -8 -8 -10 -13 -15 -10 -9
-6 -8 -7 -11 -12 -15 -10 -9
-5 -8 -4 -10 -10 -14 -8 -8
-5 -7 -3 -10 -10 -14 -8 -7
-4 -7 -1 -9 -9 -13 -9 -8
-1 -5 0 -8 -9 -12 -6 -6
-3 -6 -2 -7 -10 -13 -8 -7
-3 -6 -2 -5 -9 -13 -7 -7
-2 -4 -1 -3 -8 -12 -7 -7
-3 -4 -3 -5 -8 -12 -6 -7
-5 -7 -1 -4 -8 -12 -6 -6
-6 -7 -2 -6 -8 -12 -6 -6
-3 -5 -1 -6 -7 -11 -5 -6
-5 -5 0 -5 -7 -11 -5 -5
-5 -5 1 -4 -7 -11 -6 -6
0 -4 2 -2 -5 -10 -5 -4
-2 -6 2 -1 -7 -11 -6 -6
-3 -6 0 -1 -8 -12 -7 -6
-1 -4 1 0 -7 -11 -6 -6
-3 -4 0 -1 -8 -11 -5 -5
-3 -6 -1 -2 -8 -13 -7 -7
-3 -4 1 -2 -6 -12 -6 -6
-4 -6 2 -3 -5 -11 -6 -6
-4 -6 2 -3 -6 -11 -5 -5
-4 -6 4 -2 -6 -10 -5 -4
-4 -7 3 -2 -7 -11 -5 -3
-2 -8 4 0 -6 -12 -5 -4
-2 -7 2 -1 -8 -14 -7 -5
-2 -6 2 0 -7 -13 -7 -5
-2 -5 2 1 -6 -12 -8 -3
-3 -5 2 0 -5 -12 -7 -5
-3 -5 3 -1 -4 -11 -7 -5
-4 -6 3 -1 -4 -10 -7 -6
-3 -5 3 -2 -6 -12 -8 -5
-1 -5 5 -2 -5 -11 -8 -5
-1 -6 4 -1 -6 -10 -7 -5
-3 -7 3 1 -5 -11 -7 -5
-2 -6 3 2 -5 -11 -6 -5
-2 -6 2 3 -4 -10 -8 -6
-1 -5 1 3 -4 -10 -8 -6
0 -4 2 3 -2 -9 -6 -5
0 -3 2 3 -1 -9 -5 -4
2 -1 4 3 0 -7 -6 -4
1 -2 4 2 -1 -8 -6 -5
0 -3 4 3 -1 -7 -7 -5
2 -2 5 4 -1 -7 -6 -4
-1 -4 6 6 -1 -7 -6 -4
0 -4 5 8 -1 -7 -5 -3
0 -4 5 8 1 -6 -4 -3
1 -3 5 8 0 -6 -3 -2
1 -2 3 8 0 -5 -4 -4
0 -2 4 8 2 -4 -3 -2
1 -1 5 8 3 -3 -3 -2
3 0 6 10 4 -2 -1 0
2 0 5 9 2 -2 -2 -1
4 -1 7 11 3 -4 -2 0
3 -1 6 13 4 -4 -3 -1
4 -1 7 15 4 -3 -2 1
3 -2 7 17 5 -2 -2 0
1 -3 6 15 4 -3 -1 -1
2 -3 4 16 6 -2 -2 0
4 0 6 19 9 1 1 1
4 0 7 17 10 1 1 1
5 1 7 19 11 2 3 4
7 1 8 20 12 3 2 3
8 2 9 23 11 4 4 3
8 1 8 25 11 3 3 3
7 -1 8 27 13 3 4 4
9 1 8 31 15 6 5 5
10 2 7 32 16 6 6 6
11 3 7 33 20 9 6 7
12 5 9 36 23 13 10 9
13 7 9 38 26 16 12 10
15 8 10 41 29 19 15 13
18 9 10 42 32 21 17 13
20 9 9 45 32 22 17 14
22 11 7 48 33 22 17 14
22 12 7 49 37 25 20 16
21 12 5 51 39 26 20 17
23 15 4 51 40 29 22 18
24 15 2 50 39 28 22 18
23 14 4 51 42 31 26 19
24 17 3 50 44 34 28 21
24 17 4 52 44 33 27 22
25 16 4 52 46 35 28 23
26 17 3 50 44 34 28 21
27 17 2 50 44 33 27 21
29 18 2 51 45 34 29 25
29 18 1 50 45 35 29 26
27 19 -1 49 43 34 29 25
26 19 -2 47 43 33 28 25
25 16 -2 46 43 34 29 25
25 17 -1 42 44 35 29 25
25 17 -1 43 43 34 29 25
23 14 0 41 42 34 28 24
24 15 -1 40 40 32 28 23
26 16 -2 39 37 31 26 23
24 17 -1 40 35 29 26 24
25 18 -2 37 34 28 24 21
23 17 -2 36 32 26 23 21
23 17 -1 35 31 26 22 22
20 15 1 33 31 26 23 21
19 15 1 30 30 26 21 20
20 16 2 29 28 24 21 19
18 14 2 27 27 22 19 19
16 12 1 26 24 21 18 17
17 13 1 25 23 19 17 17
15 11 2 25 21 18 18 17
15 13 2 22 20 18 16 15
14 12 3 22 20 17 15 16
13 11 2 20 19 16 14 15
13 14 4 19 17 15 14 15
12 12 5 17 17 15 13 14
10 11 6 16 15 13 13 13
10 11 5 13 14 12 10 11
6 8 7 14 14 12 11 12
6 8 6 13 12 11 10 12
5 7 6 13 10 9 10 12
6 8 6 13 11 8 10 11
6 8 6 13 10 8 10 11
3 6 4 10 9 6 8 9
3 7 5 8 9 7 8 10
6 10 6 7 10 8 8 10
4 8 6 7 9 7 8 10
2 6 7 5 10 8 9 11
2 6 7 4 8 6 8 10
2 4 4 3 5 3 5 9
2 4 4 5 4 3 6 9
1 2 2 3 3 3 4 7
0 2 2 3 3 2 5 8
2 4 1 2 3 3 5 7
0 4 2 1 3 4 6 8
1 6 3 1 5 3 5 7
1 5 3 0 3 1 3 6
0 2 3 0 3 2 4 7
0 2 4 0 3 2 4 7
-1 0 2 0 1 0 3 6
-2 0 2 1 1 -1 3 6
-2 0 1 1 1 -2 2 6
-4 0 1 1 -1 -3 2 5
-2 0 1 1 1 -2 2 5
-1 0 3 1 3 0 3 7
-1 1 3 -2 2 -1 1 5
-1 1 5 0 2 -1 2 5
-2 -1 6 1 1 -1 2 5
0 1 6 1 1 -3 1 4
2 2 6 3 0 -4 1 3
-1 0 6 4 -1 -4 1 4
-2 0 6 3 0 -4 1 4
-4 -2 6 4 1 -3 1 4
-5 -3 5 3 0 -4 0 3
-2 0 7 4 1 -3 1 4
-2 -1 8 4 3 -2 2 5
-2 0 9 5 3 -2 1 5
-1 1 9 4 0 -3 1 5
-2 1 10 5 2 -1 2 4
0 2 10 7 2 -1 1 5
0 1 10 9 2 -1 2 5
-2 1 9 7 1 -1 2 4
-2 1 10 9 2 -1 1 4
-4 1 10 10 2 -1 1 5
-3 1 11 10 4 0 2 5
-3 2 12 7 3 1 2 5
-5 -2 12 9 3 1 2 5
-4 -1 13 8 3 0 2 5
-3 0 15 11 5 2 4 6
-3 2 14 11 4 1 4 6
-1 3 14 12 5 1 4 6
-2 3 12 12 5 1 4 6
-1 5 11 12 6 2 3 5
-3 2 12 13 7 3 5 7
-2 2 12 12 7 4 5 6
-2 4 13 11 9 5 6 7
-4 2 12 12 8 4 5 6
-3 2 13 12 9 4 6 7
-3 2 14 13 10 5 7 7
-4 1 13 13 10 5 6 8
-2 3 12 14 10 4 7 8
-2 3 11 13 10 5 6 8
-3 3 10 12 10 4 5 7
-2 5 11 13 9 4 5 8
-3 5 11 14 10 5 7 9
-3 6 10 11 11 6 6 8
-4 5 12 13 10 7 8 9
-4 3 11 11 9 5 7 8
-1 3 11 12 9 6 8 8
-2 2 10 10 7 4 6 7
-3 3 10 10 7 4 7 8
-1 4 10 12 8 4 9 9
-1 3 9 12 8 5 8 8
0 3 9 12 8 4 7 7
-1 5 9 11 10 6 8 8
-2 3 9 10 9 5 7 7
0 5 9 11 8 5 7 7
-2 3 8 10 5 3 6 6
-2 3 8 9 5 3 6 6
-1 4 8 10 6 2 6 6
-2 4 8 9 5 3 6 7
-2 3 7 9 5 3 6 6
-1 4 8 8 6 3 7 5
-2 5 8 10 7 2 7 6
-1 8 10 11 8 5 9 8
-1 8 12 12 9 6 10 8
-1 7 12 12 9 6 9 8
-1 8 12 12 9 6 9 8
-4 6 13 13 9 7 10 9
-2 8 13 13 8 6 10 8
-1 11 13 15 9 6 10 9
-2 10 13 15 8 5 10 10
-3 10 14 15 9 7 11 10
-2 10 16 16 10 8 12 10
-2 11 16 15 10 8 11 11
1 13 17 16 9 9 12 11
0 13 16 14 11 9 12 11
1 16 16 15 11 7 13 12
2 18 17 15 11 10 15 14
2 18 15 15 10 9 15 14
3 21 12 14 9 9 15 14
4 23 11 13 8 9 16 15
4 22 11 14 12 12 17 16
6 24 11 15 12 12 19 17
7 25 11 16 15 14 20 18
10 27 12 16 14 13 19 17
7 24 12 16 13 13 18 16
3 22 12 15 12 11 16 14
4 21 11 13 11 11 17 15
5 19 11 14 10 9 16 14
6 19 8 13 10 9 14 13
6 17 7 12 9 8 15 13
6 15 4 10 7 7 14 12
7 16 4 12 9 8 14 13
6 16 5 11 10 9 13 13
3 13 5 11 11 9 14 13
5 12 6 13 12 10 14 13
6 9 7 12 9 8 13 11
2 8 6 11 9 6 12 10
1 6 5 9 7 3 11 8
-2 5 3 7 4 1 8 7
-2 4 5 8 4 2 9 8
-4 1 5 8 3 2 8 5
-6 -1 4 6 2 -1 5 2
-5 -1 5 6 3 -1 5 2
-5 -3 4 3 0 -3 4 2
-7 -5 3 3 -1 -3 4 1
-6 -6 3 3 0 -3 4 2
-6 -5 2 3 -1 -4 3 0
-5 -5 3 4 -2 -5 3 0
-6 -6 2 4 -2 -4 4 0
-6 -7 0 3 -2 -5 3 0
-4 -6 1 4 -1 -5 3 -1
-5 -6 1 3 -3 -6 2 -1
-8 -6 0 2 -1 -5 2 -1
-7 -7 1 3 -2 -5 3 -1
-8 -8 2 4 -1 -5 2 -1
-6 -6 3 4 -2 -4 4 0
-6 -6 2 4 -2 -3 4 -1
-6 -7 3 5 -4 -4 4 -1
-3 -4 2 6 -3 -3 4 0
-5 -7 0 4 -4 -4 4 -1
-7 -8 0 5 -3 -4 3 -2
-7 -6 0 5 -3 -4 3 -1
-6 -7 0 3 -2 -4 2 -1
-5 -6 0 2 -2 -5 1 -3
-9 -9 2 5 0 -3 1 -3
-10 -11 5 6 -1 -5 0 -4
-12 -12 11 8 -3 -8 -3 -7
-18 -15 22 13 -8 -13 -8 -10
-24 -13 33 19 -8 -16 -9 -11
-25 -11 45 27 -5 -17 -9 -12
-27 -9 55 37 0 -13 -6 -10
-25 -4 61 47 7 -6 -1 -8
-15 -4 66 60 19 4 5 -6
-5 -2 70 81 41 25 19 2
11 10 67 98 63 49 37 14
25 23 48 100 84 76 59 31
41 38 18 87 105 106 85 51
55 54 -14 78 125 134 108 68
64 70 -47 63 143 160 129 83
71 84 -88 37 152 183 150 98
78 96 -130 8 156 199 164 112
86 114 -160 -4 174 225 185 126
91 133 -175 -9 194 248 201 138
84 119 -177 -11 199 246 189 128
77 87 -177 -14 183 215 156 100
69 54 -178 -25 147 164 113 68
53 16 -172 -45 99 103 65 36
36 -17 -163 -65 52 46 22 6
16 -39 -150 -83 7 0 -11 -18
-4 -47 -145 -122 -54 -49 -36 -32
-15 -45 -143 -146 -95 -77 -46 -34
-19 -48 -135 -145 -104 -83 -47 -35
-18 -47 -125 -133 -98 -78 -46 -35
-20 -46 -110 -117 -88 -70 -41 -31
-19 -43 -95 -100 -80 -64 -37 -28
-18 -35 -79 -85 -69 -56 -31 -26
-18 -31 -64 -71 -59 -48 -27 -21
-19 -28 -48 -53 -46 -39 -20 -17
-14 -22 -34 -36 -34 -30 -15 -14
-13 -20 -23 -23 -26 -23 -11 -10
-12 -17 -16 -14 -21 -21 -9 -9
-12 -18 -12 -8 -17 -17 -7 -10
-11 -19 -11 -7 -17 -17 -8 -12
-12 -18 -8 -5 -15 -15 -6 -10
-10 -16 -7 -5 -13 -16 -7 -11
-8 -15 -6 -5 -14 -14 -5 -11
-6 -15 -2 -3 -12 -13 -4 -9
-8 -16 -2 -1 -11 -13 -4 -10
-7 -16 -3 -2 -13 -14 -5 -11
-9 -18 -2 -2 -12 -13 -4 -10
-11 -19 -1 1 -10 -13 -4 -9
-10 -15 -1 3 -11 -12 -4 -10
-10 -16 -2 2 -11 -12 -4 -10
-10 -16 -1 2 -9 -11 -3 -9
-9 -14 0 3 -7 -11 -3 -10
-8 -15 0 1 -7 -10 -3 -11
-6 -15 1 3 -7 -9 -1 -10
-8 -16 2 4 -6 -9 -1 -8
-8 -15 0 3 -10 -11 -4 -11
-5 -14 1 5 -8 -9 -2 -9
-7 -14 1 5 -8 -9 -3 -9
-7 -14 0 5 -8 -9 -3 -11
-5 -13 0 3 -8 -10 -4 -11
-7 -16 0 2 -9 -10 -3 -10
-7 -13 1 4 -8 -9 -3 -10
-6 -13 1 5 -6 -7 -2 -10
-6 -13 1 5 -7 -8 -3 -10
-6 -13 3 6 -6 -7 -1 -9
-6 -14 2 5 -7 -9 -4 -12
-4 -14 2 5 -7 -8 -3 -10
-4 -13 2 6 -9 -9 -4 -11
-5 -13 1 6 -7 -9 -3 -11
-4 -12 1 6 -7 -9 -4 -11
-6 -13 0 5 -7 -9 -4 -11
-6 -13 2 6 -7 -9 -4 -12
-5 -13 2 4 -6 -7 -3 -11
-7 -14 3 4 -6 -8 -3 -10
-7 -15 3 6 -6 -7 -3 -11
-5 -13 3 7 -5 -6 -2 -11
-6 -14 2 7 -4 -6 -2 -12
-3 -12 2 9 -5 -6 -3 -12
-3 -11 2 8 -5 -6 -3 -11
-5 -12 2 8 -5 -7 -3 -12
-6 -13 1 8 -4 -6 -3 -11
-7 -13 1 7 -5 -7 -4 -12
-5 -12 2 8 -1 -4 -2 -11
-4 -12 3 9 -1 -4 -1 -9
-5 -13 3 8 -1 -4 -2 -10
-4 -13 3 8 -1 -4 -2 -12
-4 -13 2 10 0 -3 -1 -11
-5 -13 4 13 0 -2 -1 -9
-4 -11 4 14 2 -1 0 -9
-3 -12 1 13 2 -2 -1 -10
-2 -11 1 13 2 -1 0 -9
-1 -9 2 13 2 -1 1 -9
-2 -9 1 11 3 1 1 -10
-1 -8 3 14 4 1 2 -8
-3 -11 3 14 4 1 1 -9
-2 -11 3 15 3 0 1 -9
-1 -10 3 16 5 0 2 -9
-1 -10 3 18 5 -1 2 -9
1 -8 3 19 6 2 4 -8
0 -7 2 20 6 1 3 -8
-1 -8 2 22 7 2 5 -6
3 -6 3 24 7 3 6 -6
3 -6 3 24 9 6 7 -5
3 -7 3 25 11 5 6 -5
4 -7 3 26 12 6 8 -4
3 -8 2 27 12 5 7 -6
3 -6 4 30 14 8 10 -4
4 -7 3 33 15 8 9 -3
5 -7 1 32 15 8 9 -5
5 -5 1 34 18 12 11 -4
7 -4 1 37 21 15 13 -2
9 -3 1 39 23 17 14 -1
12 1 2 42 26 21 18 3
14 2 1 43 28 22 18 3
15 2 1 46 32 25 20 5
15 1 0 47 33 25 19 3
15 3 -1 49 34 28 21 5
17 4 0 52 36 30 25 7
16 4 0 55 39 32 27 8
17 3 -2 54 39 33 28 8
19 7 -2 55 43 36 30 11
18 7 -2 56 45 37 31 11
21 9 -3 54 45 38 32 11
22 10 -2 56 46 39 33 14
21 10 -3 56 46 41 34 15
23 12 -3 55 46 40 33 14
23 12 -4 54 48 41 33 14
22 11 -5 54 46 40 32 13
22 12 -5 54 47 41 34 14
22 11 -6 52 45 40 33 15
21 12 -6 51 46 40 34 15
20 12 -5 50 44 41 35 16
22 13 -5 48 45 41 35 15
25 15 -5 47 44 40 33 16
22 12 -5 47 42 40 34 15
23 13 -6 46 40 37 31 14
23 14 -5 47 41 37 32 14
20 11 -5 46 37 35 29 14
22 11 -5 42 35 34 29 11
20 10 -6 39 32 31 27 10
17 8 -5 38 32 32 28 11
16 9 -3 37 31 30 27 12
14 10 -4 34 30 29 24 9
13 9 -3 33 27 28 25 8
14 9 -1 33 28 28 25 9
14 8 -1 31 25 25 22 8
14 8 -1 29 23 25 22 8
10 6 0 30 21 23 20 8
9 6 -1 28 20 22 20 7
8 7 0 26 19 21 20 6
8 5 0 24 18 19 19 6
7 5 1 23 18 18 17 4
6 5 3 21 19 19 17 5
6 4 2 20 15 17 16 4
6 4 3 20 14 17 16 3
5 4 3 18 14 14 14 2
6 4 3 18 13 15 14 2
4 5 3 16 10 12 12 1
4 5 2 15 10 12 12 0
5 6 2 16 11 12 13 1
4 5 3 16 11 13 14 3
3 6 3 13 10 12 12 1
5 6 4 12 11 13 14 2
0 2 3 11 9 11 12 0
-2 1 3 10 8 11 12 0
0 2 3 10 7 9 10 0
0 1 2 10 7 9 10 0
1 3 2 10 6 8 8 -1
0 3 1 7 5 7 8 -2
-1 2 1 7 4 7 8 -2
0 2 3 8 6 9 9 0
1 2 2 7 4 7 8 -2
0 3 1 5 4 7 8 -2
-1 2 2 6 4 6 8 -2
-2 -2 2 5 4 6 7 -2
0 0 1 4 1 4 5 -4
0 0 1 4 1 4 5 -4
-3 -3 2 5 0 3 6 -3
-2 -2 1 4 1 3 5 -3
-3 -1 2 6 2 3 5 -2
-2 -1 2 6 2 6 6 -2
1 0 3 4 0 4 4 -3
0 -1 3 2 2 5 5 -4
0 -1 4 5 2 4 5 -4
-3 -3 5 6 1 4 5 -3
-3 -3 5 6 2 3 4 -3
-2 -1 5 7 3 3 5 -3
-4 -3 4 8 1 2 3 -4
-3 -3 4 7 2 2 3 -4
-3 -1 4 8 1 2 3 -5
-3 -1 4 7 1 3 4 -4
-1 1 5 8 3 3 4 -3
-1 3 7 8 4 3 4 -2
-2 0 7 8 3 3 4 -3
1 1 7 8 4 4 5 -3
1 2 7 9 3 2 4 -4
0 2 8 13 6 5 5 -3
-1 2 8 14 5 5 5 -3
-4 0 8 13 5 5 5 -1
-1 2 7 13 4 5 5 -2
-1 2 7 13 7 6 6 -1
0 2 9 15 8 8 7 -1
2 4 10 14 9 9 6 0
1 5 9 14 8 8 6 -1
0 5 11 15 11 9 8 0
2 6 12 16 10 9 7 1
1 5 10 16 11 10 7 1
2 6 10 17 12 10 9 1
2 5 10 16 11 10 8 2
2 5 9 18 11 10 8 1
1 5 9 17 12 11 9 1
0 6 9 16 12 10 8 0
0 6 9 15 13 11 9 2
2 8 11 16 14 12 10 2
0 7 12 17 15 13 11 3
4 10 11 17 14 13 10 3
4 9 11 18 15 13 10 3
3 8 10 18 13 13 10 3
3 8 10 18 14 13 10 4
2 8 9 16 14 11 9 3
2 9 9 15 15 12 11 4
1 8 8 14 12 11 10 3
1 7 9 15 12 12 10 3
3 9 9 14 12 11 9 2
3 9 9 14 13 12 9 2
3 8 10 14 13 11 8 2
4 9 9 14 12 11 8 2
2 7 8 15 11 10 8 2
4 9 8 14 12 12 8 4
6 10 8 14 11 11 7 3
4 9 7 13 12 11 8 2
4 9 8 13 12 11 8 3
3 8 9 12 13 11 9 3
3 8 8 11 12 11 9 2
5 9 10 12 13 12 9 2
4 11 12 14 12 11 9 2
6 13 12 15 13 12 10 5
6 14 12 16 12 12 11 5
6 15 12 15 13 12 9 4
6 17 13 16 14 12 11 6
6 17 13 15 14 13 12 7
6 18 13 15 13 12 11 6
4 17 14 16 16 14 11 6
3 16 15 15 15 13 12 6
6 17 16 15 16 14 12 7
6 18 17 15 13 12 11 7
5 16 16 14 12 11 10 6
5 18 18 16 13 11 11 7
6 20 18 16 15 13 11 7
7 21 17 16 14 12 11 6
8 23 16 16 15 13 12 8
8 23 15 14 13 13 11 8
9 26 14 14 14 14 14 10
10 27 14 14 16 15 16 11
11 27 14 16 18 16 17 13
13 30 13 15 15 16 17 13
13 31 12 15 18 18 19 14
14 30 12 15 18 17 17 12
12 29 13 14 17 16 17 13
12 28 11 13 14 14 15 11
12 28 11 13 16 15 15 11
11 27 12 13 16 15 15 11
12 25 12 13 15 14 15 11
14 26 12 13 15 15 16 11
14 24 10 12 15 14 14 10
