I II V1 V2 V3 V4 V5 V6
-10 -8 12 6 -7 -7 -8 -9
-10 -8 12 6 -7 -7 -8 -9
-10 -8 12 6 -7 -7 -8 -9
-9 -7 12 6 -8 -7 -8 -9
-9 -7 12 6 -8 -7 -8 -9
-9 -7 12 6 -8 -7 -8 -9
-8 -6 12 5 -9 -8 -7 -9
-8 -5 13 5 -9 -8 -8 -9
-8 -4 13 6 -9 -9 -8 -8
-8 -3 14 6 -9 -9 -9 -8
-8 -2 14 6 -9 -9 -9 -8
-8 0 15 7 -10 -10 -10 -7
-7 1 15 7 -9 -10 -10 -8
-6 1 16 7 -9 -9 -10 -8
-5 2 16 7 -8 -9 -10 -9
-4 2 16 7 -8 -9 -10 -9
-3 4 17 7 -6 -7 -8 -8
-2 6 18 8 -4 -5 -6 -6
-2 7 19 9 -3 -3 -4 -4
0 9 20 10 0 0 -2 -2
0 10 20 11 1 1 0 1
2 12 20 12 2 2 1 2
4 14 19 12 2 2 2 3
5 16 17 13 2 3 3 3
7 18 16 13 2 3 4 4
8 19 15 13 2 3 4 4
9 20 14 14 3 4 5 5
9 19 14 15 4 5 5 5
8 19 14 16 5 6 6 6
8 18 14 17 6 7 6 6
8 18 14 17 7 7 6 6
7 16 13 17 8 7 7 7
7 15 12 16 7 6 6 7
7 14 11 15 6 5 6 7
7 13 10 14 5 4 5 7
7 12 9 13 4 3 5 7
6 10 8 12 2 2 3 5
5 8 8 11 0 1 1 3
5 6 8 10 -2 0 0 1
4 4 8 9 -4 -2 -3 -2
4 2 8 8 -5 -3 -4 -4
2 0 8 7 -6 -4 -5 -5
0 -3 8 6 -6 -5 -6 -5
-2 -5 8 5 -7 -6 -6 -6
-4 -7 8 4 -7 -7 -7 -6
-5 -9 8 3 -7 -7 -7 -6
-6 -10 7 2 -8 -8 -8 -7
-6 -10 7 1 -9 -9 -9 -7
-6 -10 7 1 -10 -10 -10 -8
-6 -10 7 0 -11 -11 -11 -8
-6 -10 7 0 -11 -11 -11 -8
-7 -11 7 -2 -12 -12 -12 -9
-8 -11 7 -2 -12 -12 -12 -9
-8 -11 7 -3 -12 -12 -12 -10
-9 -11 7 -3 -12 -12 -12 -10
-9 -11 7 -3 -12 -12 -12 -10
-10 -10 7 -4 -13 -12 -13 -11
-11 -11 7 -4 -13 -12 -13 -11
-12 -11 7 -4 -13 -12 -13 -11
-13 -12 7 -4 -13 -12 -13 -11
-13 -12 7 -4 -13 -12 -13 -11
-14 -13 6 -4 -14 -13 -13 -10
-13 -13 6 -4 -14 -13 -13 -10
-12 -12 6 -4 -13 -12 -13 -11
-11 -12 6 -4 -13 -12 -13 -11
-11 -12 6 -4 -13 -12 -13 -11
-10 -11 5 -3 -12 -11 -14 -12
-10 -11 5 -3 -12 -11 -14 -12
-10 -12 5 -3 -12 -11 -13 -12
-10 -12 5 -3 -12 -11 -13 -12
-10 -12 5 -3 -12 -11 -13 -12
-11 -13 6 -2 -11 -11 -12 -12
-11 -13 6 0 -11 -11 -11 -11
-10 -13 6 1 -10 -10 -11 -10
-10 -13 6 2 -10 -10 -10 -9
-10 -13 6 3 -10 -10 -10 -9
-8 -13 6 3 -9 -9 -9 -8
-6 -14 8 1 -9 -10 -10 -9
-4 -15 10 0 -9 -11 -11 -9
-2 -16 12 -3 -9 -12 -12 -10
0 -17 13 -4 -9 -12 -12 -10
2 -10 9 -39 -17 -14 -11 -7
3 1 3 -77 -24 -16 -9 0
4 10 -4 -114 -32 -18 -6 5
5 19 -10 -152 -39 -20 -4 10
6 29 -16 -190 -48 -21 -2 15
4 48 -30 -219 -48 -13 11 30
0 67 -45 -246 -47 -4 24 47
-5 87 -59 -275 -45 7 37 63
-9 105 -73 -303 -44 17 51 79
-13 125 -88 -331 -43 27 64 95
-9 128 -114 -318 -15 55 82 108
-3 130 -141 -301 15 84 102 120
4 132 -169 -283 45 113 122 134
10 134 -195 -266 74 142 142 146
16 136 -222 -248 104 171 161 159
15 112 -217 -222 103 162 140 136
12 85 -207 -194 99 149 114 110
9 58 -198 -168 94 136 89 84
6 30 -188 -140 89 122 63 57
3 4 -179 -113 85 110 37 30
-3 -4 -152 -98 65 88 27 21
-7 -8 -123 -85 45 64 18 15
-12 -13 -95 -70 24 42 9 8
-17 -18 -67 -57 4 18 1 2
-21 -22 -38 -44 -17 -6 -9 -6
-19 -23 -29 -34 -18 -8 -10 -7
-15 -22 -22 -27 -16 -9 -11 -8
-11 -22 -16 -19 -14 -10 -12 -8
-8 -21 -9 -11 -12 -11 -13 -9
-4 -21 -2 -3 -10 -11 -14 -9
-4 -20 0 -2 -9 -12 -15 -10
-6 -20 1 0 -9 -12 -16 -11
-8 -21 2 0 -9 -12 -16 -12
-10 -21 3 1 -9 -12 -17 -13
-12 -21 3 1 -9 -12 -17 -13
-13 -22 4 2 -10 -13 -18 -14
-12 -22 4 3 -10 -14 -18 -14
-11 -22 4 4 -11 -15 -18 -14
-10 -22 4 5 -11 -16 -18 -14
-9 -22 4 5 -11 -16 -18 -14
-8 -23 5 6 -12 -17 -17 -13
-8 -24 6 6 -12 -17 -17 -13
-8 -24 6 7 -12 -17 -17 -13
-8 -25 7 7 -12 -17 -17 -13
-8 -25 7 7 -12 -17 -17 -13
-9 -26 8 8 -12 -17 -16 -12
-8 -26 8 8 -13 -18 -17 -13
-7 -25 8 8 -14 -18 -18 -14
-6 -25 8 8 -15 -19 -19 -15
-5 -25 8 8 -15 -19 -19 -16
-4 -24 7 7 -16 -20 -20 -17
-5 -25 8 8 -15 -20 -20 -17
-6 -26 9 8 -14 -19 -20 -17
-7 -27 10 9 -13 -19 -20 -17
-7 -27 10 9 -13 -19 -20 -17
-8 -28 11 10 -12 -18 -19 -17
-7 -28 11 10 -12 -18 -19 -16
-7 -28 10 10 -13 -18 -19 -15
-6 -28 10 10 -13 -18 -19 -14
-6 -28 10 10 -13 -18 -19 -13
-5 -28 9 10 -14 -17 -18 -12
-5 -28 9 10 -14 -17 -18 -12
-5 -28 9 11 -14 -17 -18 -12
-5 -28 9 11 -14 -17 -18 -12
-5 -28 9 11 -14 -17 -18 -12
-5 -27 9 12 -13 -18 -17 -11
-5 -27 9 12 -13 -17 -17 -11
-5 -27 9 13 -12 -17 -17 -11
-5 -27 9 13 -12 -16 -17 -11
-5 -27 9 13 -12 -16 -17 -11
-6 -26 9 14 -11 -15 -17 -12
-6 -26 9 14 -11 -15 -17 -12
-5 -26 9 15 -11 -15 -17 -12
-5 -26 9 15 -11 -15 -17 -12
-5 -26 9 15 -11 -15 -17 -12
-4 -26 9 16 -11 -15 -18 -12
-3 -26 8 16 -11 -15 -18 -12
-2 -26 8 16 -10 -15 -17 -12
0 -26 7 16 -10 -15 -17 -12
1 -26 7 16 -10 -15 -17 -12
2 -25 6 17 -9 -14 -16 -12
3 -24 6 18 -9 -14 -16 -12
4 -23 6 19 -9 -14 -16 -12
5 -22 6 20 -9 -14 -16 -12
5 -21 6 20 -9 -14 -16 -12
6 -20 6 21 -9 -13 -17 -11
5 -21 6 22 -8 -13 -17 -11
5 -22 7 23 -6 -12 -17 -10
4 -23 7 24 -5 -12 -17 -10
4 -23 7 25 -4 -12 -17 -10
4 -24 8 26 -3 -11 -16 -9
5 -24 8 26 -3 -10 -15 -9
6 -24 7 26 -3 -9 -15 -9
7 -24 7 26 -3 -8 -14 -9
8 -24 7 26 -3 -8 -14 -9
9 -23 6 27 -2 -7 -12 -8
9 -23 6 29 0 -6 -11 -7
8 -23 5 31 1 -6 -9 -6
8 -23 5 32 2 -5 -8 -5
8 -23 5 34 3 -5 -7 -4
7 -22 4 35 4 -4 -6 -3
8 -22 4 35 5 -3 -5 -3
9 -22 3 35 6 -3 -4 -2
10 -22 3 35 7 -2 -3 -2
10 -22 3 35 7 -2 -2 -2
12 -22 2 36 9 1 0 1
13 -21 1 37 10 2 1 2
14 -20 0 38 11 3 2 4
15 -19 -2 39 12 5 3 6
16 -19 -2 40 13 6 4 7
19 -18 -4 42 14 7 5 8
21 -18 -5 43 15 8 5 8
24 -18 -7 43 16 9 6 7
26 -18 -9 44 17 10 6 7
29 -18 -10 44 17 10 6 7
30 -16 -11 45 19 12 8 8
29 -15 -11 46 20 15 10 11
28 -13 -12 47 22 17 12 13
27 -11 -12 48 24 19 13 16
27 -10 -12 49 25 21 15 19
27 -9 -14 50 27 23 17 21
29 -9 -15 50 28 24 18 22
31 -9 -16 50 29 26 19 23
32 -9 -18 50 31 28 20 24
34 -9 -19 50 32 29 21 25
36 -6 -20 50 33 30 23 26
37 -4 -21 50 34 31 24 26
38 -2 -21 50 35 32 25 27
39 2 -22 50 36 33 26 27
40 4 -22 50 36 33 27 27
42 6 -23 49 37 34 28 29
40 7 -23 49 38 35 29 30
39 8 -23 49 38 35 30 32
38 10 -23 49 39 36 31 34
38 11 -23 49 39 36 32 35
37 12 -24 48 40 37 33 36
38 12 -24 47 40 37 34 36
38 12 -25 46 39 38 34 37
39 12 -25 45 39 38 35 37
39 12 -25 44 39 38 35 37
40 11 -26 43 38 39 36 38
40 12 -25 43 38 39 37 38
39 12 -24 42 38 39 37 38
39 13 -23 42 38 39 38 38
39 13 -23 42 38 39 38 38
38 14 -21 40 39 39 39 38
36 15 -19 39 38 38 37 36
35 15 -17 38 37 37 36 35
34 16 -15 37 36 36 35 34
33 16 -13 36 35 36 34 33
31 17 -11 35 34 34 32 31
30 17 -10 34 32 32 30 30
29 17 -8 33 31 30 28 29
27 17 -6 32 30 29 26 27
26 17 -5 31 29 27 24 26
23 17 -3 30 28 25 22 24
20 16 0 28 26 24 21 22
18 16 2 27 25 22 19 20
15 15 3 26 24 20 17 19
12 15 5 25 23 19 16 17
10 13 6 24 22 18 15 16
8 11 8 22 21 17 13 15
6 9 9 21 20 16 12 14
4 8 10 20 19 15 11 13
2 6 11 19 18 15 10 13
1 5 12 17 16 13 9 11
1 5 12 15 15 11 7 10
1 4 12 13 13 9 6 9
1 4 12 12 11 8 5 7
1 4 12 10 10 6 4 6
0 3 12 9 9 5 3 5
0 2 12 8 8 4 2 4
0 2 13 8 8 4 1 3
0 1 13 7 7 3 0 2
0 1 13 7 7 3 0 2
-2 0 14 6 6 2 -2 1
-3 0 14 5 5 1 -3 0
-3 0 14 4 5 0 -3 -2
-4 0 14 3 4 -2 -4 -3
-4 0 14 3 4 -2 -4 -3
-5 -2 13 2 3 -3 -5 -4
-5 -3 13 2 3 -3 -6 -5
-5 -3 12 2 2 -4 -6 -6
-5 -4 12 2 2 -4 -7 -7
-5 -4 12 2 2 -4 -7 -7
-6 -5 11 1 1 -5 -8 -8
-6 -5 11 1 1 -5 -8 -7
-6 -5 11 2 2 -4 -7 -7
-6 -5 11 2 2 -4 -7 -6
-6 -5 11 2 2 -4 -7 -6
-7 -4 11 3 3 -3 -6 -5
-7 -4 12 4 3 -3 -6 -4
-7 -4 13 4 3 -3 -5 -4
-7 -4 14 5 3 -3 -5 -3
-7 -4 14 5 3 -3 -5 -3
-6 -4 15 6 4 -2 -4 -2
-6 -4 15 7 4 -2 -4 -2
-7 -4 15 7 4 -2 -4 -3
-7 -4 15 8 4 -2 -4 -3
-7 -4 15 8 4 -2 -4 -3
-8 -3 15 9 5 -3 -5 -4
-7 -2 15 9 5 -3 -5 -4
-6 -2 15 9 5 -3 -6 -4
-5 0 15 9 5 -3 -6 -4
-5 0 15 9 5 -3 -6 -4
-4 1 14 8 6 -4 -7 -5
-5 1 14 8 6 -4 -6 -5
-5 0 14 8 6 -4 -6 -5
-6 0 14 8 6 -4 -5 -5
-6 0 14 8 6 -4 -5 -5
-7 -2 14 9 7 -3 -4 -5
-7 -3 14 10 7 -2 -4 -5
-6 -3 14 11 7 0 -4 -4
-6 -4 14 12 7 1 -4 -4
-6 -4 14 12 7 1 -4 -4
-5 -5 15 13 8 2 -3 -3
-5 -5 15 12 8 1 -3 -4
-4 -5 15 12 8 1 -4 -4
-4 -5 15 11 8 0 -4 -5
-4 -5 15 11 8 0 -4 -5
-3 -5 14 10 7 -2 -5 -6
-4 -5 15 10 7 0 -4 -5
-5 -4 15 10 7 0 -4 -5
-6 -4 16 10 7 1 -3 -4
-6 -4 16 10 7 1 -3 -4
-7 -3 17 11 8 2 -2 -3
-6 -3 17 11 7 1 -2 -3
-6 -3 16 10 6 1 -3 -3
-5 -3 16 10 5 0 -3 -3
-5 -3 16 10 4 0 -3 -3
-4 -2 15 9 3 -2 -4 -4
-6 -2 15 9 3 -2 -4 -4
-7 -2 15 8 3 -2 -4 -4
-8 -2 15 8 3 -2 -4 -4
-9 -2 15 8 3 -2 -4 -4
-10 -2 16 7 4 -3 -4 -5
-9 -2 16 7 3 -3 -4 -5
-8 -2 15 7 3 -3 -5 -6
-7 -2 15 7 2 -3 -5 -6
-6 -2 15 7 2 -3 -5 -6
-5 -3 14 6 1 -4 -6 -7
-5 -3 14 6 1 -4 -6 -7
-6 -3 13 5 1 -4 -7 -8
-6 -3 13 5 1 -4 -7 -8
-6 -3 13 5 1 -4 -7 -8
-7 -4 12 4 0 -4 -8 -9
-7 -5 12 4 -2 -5 -8 -9
-7 -5 13 4 -2 -5 -9 -9
-7 -6 13 4 -3 -6 -9 -9
-7 -6 13 4 -3 -6 -9 -9
-6 -7 14 3 -4 -7 -10 -8
-6 -7 14 3 -4 -7 -10 -8
-7 -7 14 3 -4 -7 -10 -8
-7 -7 14 3 -4 -7 -10 -8
-7 -7 14 3 -4 -7 -10 -8
-8 -7 14 4 -5 -6 -9 -9
-9 -7 14 4 -5 -6 -9 -9
-9 -7 14 3 -5 -7 -9 -9
-10 -7 14 3 -5 -7 -9 -9
-10 -7 14 3 -5 -7 -9 -9
-11 -7 13 2 -6 -8 -10 -10
-11 -6 13 2 -6 -9 -10 -10
-10 -5 13 2 -7 -9 -11 -10
-10 -5 13 2 -7 -10 -11 -10
-10 -4 13 2 -7 -10 -11 -10
-9 -3 12 1 -8 -11 -12 -10
-9 -3 12 1 -8 -11 -12 -10
-9 -4 12 0 -8 -11 -12 -11
-9 -4 12 0 -8 -11 -12 -11
-9 -4 12 0 -8 -11 -12 -11
-10 -5 12 -2 -8 -10 -12 -12
-10 -5 12 -2 -8 -9 -12 -12
-10 -5 12 0 -8 -9 -12 -12
-10 -5 12 0 -8 -8 -12 -12
-10 -5 12 0 -8 -8 -12 -12
-10 -6 13 1 -8 -7 -11 -12
-10 -6 13 1 -8 -7 -11 -12
-10 -5 13 1 -8 -8 -11 -12
-10 -5 13 1 -8 -8 -11 -12
-10 -5 13 1 -8 -8 -11 -12
-9 -4 14 1 -8 -9 -11 -11
-9 -3 15 1 -8 -9 -11 -10
-9 -2 16 1 -7 -8 -10 -10
-9 0 16 1 -7 -8 -10 -9
-9 1 17 1 -7 -8 -10 -9
-9 2 18 2 -6 -7 -9 -8
-8 3 18 2 -6 -7 -9 -8
-7 4 19 2 -6 -7 -9 -8
-7 4 19 2 -6 -7 -9 -8
-6 5 19 2 -6 -7 -9 -8
-5 7 20 3 -6 -6 -8 -8
-5 8 20 4 -5 -6 -7 -7
-5 10 20 5 -4 -5 -7 -6
-5 11 20 6 -3 -5 -6 -5
-5 13 20 7 -2 -5 -6 -4
-4 15 20 8 0 -4 -5 -3
0 17 19 8 1 -3 -4 -3
3 19 18 9 2 -2 -3 -3
6 22 17 9 2 0 -2 -3
9 24 16 9 3 1 0 -3
10 25 15 10 4 2 1 -2
10 24 15 11 4 2 1 -2
10 23 15 12 5 2 2 -2
10 23 15 12 5 2 2 -2
10 22 15 13 5 2 2 -2
9 21 14 14 6 3 3 -2
7 19 14 13 4 2 3 -2
6 18 14 12 3 2 2 -2
4 16 14 11 2 1 2 -2
2 15 14 10 1 1 2 -2
1 13 13 9 0 0 0 -3
1 12 13 7 -2 -3 -2 -5
0 10 12 6 -3 -4 -4 -6
0 9 12 4 -4 -5 -5 -8
0 7 12 3 -5 -6 -7 -9
-2 5 11 2 -6 -7 -8 -10
-4 3 11 1 -7 -8 -9 -10
-5 1 11 0 -8 -9 -10 -10
-6 -3 11 0 -8 -9 -10 -10
-7 -5 11 -2 -9 -10 -11 -10
-8 -6 10 -3 -10 -11 -12 -10
-9 -6 10 -4 -11 -12 -12 -12
-10 -6 10 -5 -12 -12 -13 -13
-10 -6 10 -5 -12 -13 -13 -14
-11 -6 10 -6 -13 -13 -13 -15
-12 -6 9 -7 -14 -14 -14 -16
-12 -7 9 -7 -14 -14 -14 -16
-12 -8 9 -6 -14 -14 -14 -16
-12 -8 9 -6 -14 -14 -14 -16
-12 -9 9 -6 -14 -14 -14 -16
-13 -10 10 -5 -14 -13 -15 -16
-13 -10 10 -5 -14 -13 -15 -16
-14 -9 10 -5 -14 -14 -15 -16
-14 -9 10 -5 -14 -14 -15 -16
-14 -9 10 -5 -14 -14 -15 -16
-15 -8 10 -6 -14 -15 -15 -16
-14 -8 10 -6 -14 -15 -15 -16
-12 -8 9 -7 -14 -16 -16 -17
-11 -8 9 -7 -14 -16 -16 -17
-10 -8 9 -7 -14 -16 -16 -17
-9 -8 8 -8 -15 -17 -17 -18
-11 -8 8 -7 -14 -16 -16 -17
-12 -8 9 -6 -13 -14 -14 -15
-14 -8 10 -5 -12 -13 -13 -14
-15 -8 10 -4 -11 -12 -12 -13
-16 -7 11 -3 -10 -11 -11 -12
-15 -7 11 -3 -10 -11 -11 -12
-14 -7 10 -3 -10 -12 -12 -13
-13 -7 9 -3 -10 -12 -12 -14
-12 -7 9 -3 -10 -12 -12 -14
-11 -8 9 -2 -11 -13 -13 -15
-10 -9 10 -2 -11 -13 -13 -16
-8 -10 12 -2 -11 -13 -14 -18
-7 -11 14 -2 -11 -13 -14 -19
-6 -12 16 -2 -11 -13 -14 -20
-4 -9 16 -21 -14 -15 -15 -19
0 -2 14 -51 -20 -16 -14 -15
3 7 12 -81 -26 -18 -13 -10
6 14 9 -112 -32 -20 -12 -6
9 21 7 -142 -38 -22 -11 -2
9 36 -2 -171 -40 -18 -2 11
4 57 -14 -199 -38 -9 13 27
0 76 -26 -228 -36 1 26 43
-6 97 -38 -256 -34 10 39 59
-10 117 -50 -284 -32 19 54 75
-9 126 -72 -285 -14 40 71 90
-3 129 -100 -272 14 69 91 103
3 131 -129 -258 42 97 111 115
9 134 -156 -243 70 126 131 129
14 137 -185 -229 98 154 151 142
15 122 -192 -207 108 159 145 133
12 97 -186 -183 108 150 123 110
9 72 -180 -158 107 141 102 87
5 47 -174 -133 107 132 80 64
2 21 -169 -108 107 123 59 42
-4 9 -150 -93 91 104 44 27
-8 3 -124 -82 65 78 31 17
-13 -4 -99 -73 40 53 18 8
-18 -10 -73 -63 15 27 6 -3
-23 -16 -49 -53 -10 3 -7 -12
-24 -19 -34 -44 -19 -8 -12 -16
-21 -18 -26 -34 -17 -9 -12 -16
-19 -17 -18 -25 -15 -10 -12 -16
-16 -17 -10 -17 -13 -10 -12 -16
-13 -16 -2 -8 -10 -11 -12 -16
-12 -15 2 -4 -9 -12 -13 -16
-12 -15 3 -4 -10 -13 -14 -17
-12 -15 4 -3 -11 -14 -15 -19
-12 -15 5 -3 -12 -15 -16 -20
-12 -15 6 -3 -13 -16 -17 -21
-12 -15 7 -2 -14 -17 -18 -22
-12 -15 7 -2 -14 -17 -18 -22
-13 -16 7 0 -15 -18 -19 -22
-14 -17 7 0 -16 -19 -19 -22
-14 -17 7 0 -16 -19 -19 -22
-15 -18 8 1 -17 -20 -20 -22
-15 -18 8 2 -17 -20 -20 -22
-15 -19 9 3 -17 -20 -19 -22
-15 -20 10 4 -17 -20 -19 -22
-15 -20 10 5 -17 -20 -19 -22
-14 -21 11 6 -16 -21 -18 -21
-12 -21 11 6 -16 -21 -18 -21
-11 -21 11 5 -17 -22 -19 -21
-9 -21 11 5 -17 -22 -19 -21
-8 -21 11 5 -17 -22 -19 -21
-7 -20 10 4 -18 -23 -20 -22
-7 -20 10 4 -18 -23 -20 -22
-8 -20 10 5 -18 -22 -20 -22
-9 -20 10 5 -18 -22 -20 -22
-9 -20 10 5 -18 -22 -20 -22
-10 -21 10 6 -17 -21 -20 -23
-9 -21 10 6 -17 -21 -20 -23
-8 -20 9 6 -18 -22 -21 -24
-7 -20 8 6 -19 -23 -21 -25
-6 -20 8 6 -19 -23 -21 -25
-5 -19 7 5 -20 -24 -22 -26
-6 -19 7 5 -20 -24 -22 -26
-7 -20 8 6 -20 -23 -21 -26
-8 -21 9 7 -20 -22 -21 -26
-9 -21 9 7 -20 -22 -21 -26
-10 -22 10 8 -19 -21 -20 -25
-10 -22 10 8 -19 -21 -20 -25
-10 -22 9 9 -19 -21 -20 -24
-10 -22 9 9 -19 -21 -20 -24
-10 -22 9 9 -19 -21 -20 -24
-9 -22 8 10 -18 -20 -20 -23
-9 -22 8 10 -18 -20 -20 -22
-8 -21 8 11 -17 -20 -20 -21
-8 -21 8 12 -17 -20 -20 -20
-8 -21 8 12 -17 -20 -20 -19
-7 -20 9 13 -16 -20 -21 -18
-7 -20 9 13 -16 -20 -21 -18
-6 -19 8 13 -16 -20 -20 -19
-5 -19 7 13 -16 -20 -20 -20
-5 -19 7 13 -16 -20 -20 -20
-4 -18 6 13 -15 -20 -19 -21
-4 -18 6 14 -15 -20 -19 -21
-4 -18 6 15 -14 -19 -18 -20
-4 -18 6 16 -13 -18 -18 -19
-4 -18 6 17 -13 -18 -18 -19
-4 -17 7 18 -12 -17 -17 -18
-4 -17 7 18 -12 -17 -17 -18
-3 -18 7 19 -12 -17 -17 -18
-3 -19 7 19 -12 -17 -17 -18
-3 -19 7 19 -12 -17 -17 -18
-2 -20 7 20 -13 -17 -16 -17
0 -19 7 21 -12 -17 -16 -17
1 -18 7 22 -11 -16 -15 -16
1 -17 7 23 -11 -15 -14 -16
2 -16 7 24 -10 -15 -14 -16
3 -15 6 25 -9 -14 -13 -15
3 -15 6 25 -8 -14 -12 -14
4 -15 5 26 -7 -13 -11 -13
4 -15 5 27 -7 -12 -11 -13
4 -15 5 27 -6 -12 -10 -12
5 -15 4 28 -5 -11 -9 -11
6 -15 3 28 -5 -11 -9 -11
7 -14 1 28 -5 -10 -8 -11
7 -14 0 28 -5 -10 -8 -11
8 -14 -2 28 -5 -10 -8 -11
10 -13 -3 28 -4 -9 -6 -11
11 -13 -3 30 -3 -7 -5 -9
13 -13 -4 31 0 -5 -3 -7
15 -13 -4 32 1 -4 0 -6
17 -13 -4 34 2 -2 2 -4
18 -12 -5 35 3 0 3 -3
18 -12 -6 35 4 1 4 -2
18 -12 -7 36 5 2 5 0
18 -12 -8 36 5 3 5 0
18 -12 -9 36 6 4 6 1
19 -12 -10 37 7 5 7 2
21 -11 -12 37 8 7 8 3
23 -9 -14 38 9 8 10 5
25 -7 -15 38 10 9 11 6
27 -5 -17 38 11 11 12 7
28 -4 -18 39 12 12 13 8
28 -3 -19 39 14 14 15 10
29 -2 -20 40 15 16 17 12
30 -2 -21 40 16 17 18 14
30 0 -22 40 18 19 20 16
31 2 -23 42 19 20 21 17
32 4 -23 42 20 21 23 19
33 6 -24 40 21 23 25 21
34 8 -24 40 22 24 26 22
35 10 -24 40 23 25 28 24
36 11 -25 39 24 26 29 25
36 11 -25 39 24 26 29 25
37 11 -26 39 24 27 30 25
38 11 -26 39 24 27 30 25
38 11 -26 39 24 27 30 25
39 12 -27 38 24 28 31 26
39 13 -27 38 24 28 32 28
38 15 -27 37 24 29 33 30
38 16 -27 36 24 30 34 31
38 17 -27 36 24 30 35 33
37 18 -28 35 25 31 36 34
37 18 -28 34 25 31 36 34
38 18 -28 33 24 30 35 33
38 18 -28 33 23 29 34 32
38 18 -28 32 23 29 34 32
39 18 -27 31 22 28 33 31
37 18 -25 31 22 28 33 31
36 18 -24 30 22 27 33 30
35 18 -23 29 22 27 33 29
33 18 -21 29 22 27 33 29
31 18 -19 28 22 26 32 28
28 18 -17 28 22 26 31 27
25 17 -14 27 21 25 30 26
23 16 -12 27 21 24 30 25
20 16 -10 27 21 24 29 24
18 15 -8 26 20 23 27 23
17 15 -6 26 19 21 25 21
16 15 -4 25 17 19 23 19
15 15 -2 24 16 17 21 17
14 15 1 24 15 15 19 15
12 14 3 23 14 14 18 14
9 13 5 22 13 13 17 13
6 12 7 21 12 12 16 12
4 11 9 20 12 11 16 11
1 10 11 19 11 10 15 10
-2 9 12 18 10 9 14 9
-3 8 12 16 8 7 12 7
-4 7 12 14 6 5 10 5
-4 7 12 13 5 3 8 4
-5 6 12 11 3 1 6 2
-6 5 12 10 2 0 5 1
-6 5 12 10 2 0 4 0
-6 4 12 9 1 -2 3 -2
-6 4 12 9 1 -3 3 -3
-6 4 12 9 1 -3 2 -4
-6 3 12 8 0 -4 1 -5
-7 3 12 8 0 -4 1 -5
-9 2 12 7 0 -4 0 -5
-10 2 12 7 0 -4 0 -5
-11 2 12 7 0 -4 0 -5
-12 1 13 6 0 -5 -2 -4
-12 1 13 6 0 -5 -2 -5
-12 0 13 6 0 -5 -2 -6
-12 -2 13 6 0 -5 -2 -7
-12 -2 13 6 0 -5 -2 -8
-11 -3 13 6 -2 -6 -3 -9
-10 -3 13 6 -2 -6 -4 -9
-9 -4 12 6 -3 -6 -5 -10
-8 -4 12 6 -3 -6 -5 -10
-7 -4 12 6 -3 -6 -6 -10
-6 -5 11 5 -4 -7 -7 -11
-7 -5 11 5 -4 -7 -7 -10
-7 -5 12 6 -3 -7 -7 -10
-8 -4 13 7 -2 -6 -6 -9
-9 -4 13 7 -2 -6 -6 -8
-10 -3 14 8 0 -5 -5 -7
-10 -3 14 8 0 -5 -5 -7
-10 -3 14 8 0 -5 -5 -7
-10 -3 13 8 1 -5 -5 -7
-10 -3 13 8 1 -5 -5 -7
-10 -3 12 9 2 -4 -4 -6
-10 -3 12 9 2 -4 -4 -6
-10 -2 12 9 2 -4 -4 -6
-10 0 12 9 3 -4 -4 -6
-10 0 12 9 3 -4 -4 -6
-9 1 12 10 4 -4 -3 -7
-9 -2 12 10 4 -4 -3 -6
-9 -3 12 10 4 -4 -3 -6
-9 -4 13 10 4 -4 -3 -5
-9 -6 13 10 4 -4 -3 -4
-10 -7 14 11 4 -3 -2 -3
-10 -6 14 11 4 -3 -2 -4
-9 -6 13 11 4 -3 -2 -4
-8 -5 12 12 4 -3 -3 -5
-8 -4 12 12 4 -3 -3 -6
-7 -3 11 13 3 -4 -4 -7
-8 -3 11 13 3 -4 -4 -7
-8 -3 12 13 3 -4 -4 -7
-9 -2 13 13 3 -4 -3 -6
-10 -2 13 13 3 -4 -3 -6
-11 0 14 12 4 -3 -2 -5
-10 0 14 12 4 -3 -2 -5
-10 0 14 12 4 -3 -2 -5
-9 -2 14 12 4 -3 -2 -5
-8 -2 14 12 4 -3 -2 -5
-7 -3 13 12 3 -4 -3 -5
-8 -3 13 12 3 -4 -3 -5
-8 -3 13 12 3 -4 -2 -4
-9 -2 14 12 3 -4 0 -3
-10 -2 14 12 3 -4 0 -3
-11 0 15 11 2 -4 1 -2
-10 0 15 11 2 -4 0 -3
-10 0 15 11 1 -5 -2 -3
-9 -2 14 10 0 -6 -3 -4
-8 -2 14 10 0 -6 -4 -5
-7 -3 13 9 -2 -7 -5 -6
-7 -3 13 9 -2 -7 -5 -6
-8 -3 13 9 -3 -7 -5 -6
-9 -3 13 8 -4 -7 -5 -6
-9 -3 13 8 -4 -7 -5 -6
-10 -4 14 7 -5 -8 -6 -7
-10 -4 14 7 -5 -8 -6 -7
-10 -4 14 7 -5 -8 -6 -7
-10 -5 14 7 -5 -8 -6 -7
-10 -5 14 7 -5 -8 -6 -7
-11 -6 13 6 -4 -7 -5 -7
-11 -6 13 6 -4 -7 -5 -7
-11 -6 13 6 -4 -7 -5 -7
-12 -6 13 6 -4 -8 -6 -7
-12 -6 13 6 -4 -8 -6 -7
-13 -5 12 5 -5 -9 -7 -7
-13 -5 12 5 -6 -9 -7 -7
-13 -5 12 5 -6 -10 -7 -7
-13 -6 12 4 -7 -11 -8 -7
-13 -6 12 4 -8 -11 -8 -7
-13 -7 11 3 -9 -12 -9 -8
-12 -7 11 3 -9 -12 -9 -8
-11 -7 11 3 -9 -12 -9 -8
-10 -7 10 2 -10 -13 -10 -9
-9 -7 10 2 -10 -13 -10 -9
-8 -6 9 1 -11 -14 -11 -10
-10 -7 9 1 -11 -14 -11 -10
-11 -8 9 1 -11 -14 -11 -9
-13 -9 10 1 -11 -13 -10 -8
-15 -10 10 1 -11 -13 -10 -8
-16 -11 11 2 -10 -12 -9 -7
-16 -11 11 2 -10 -12 -9 -7
-16 -11 11 1 -10 -12 -9 -8
-15 -11 10 0 -11 -13 -10 -9
-15 -11 10 0 -11 -13 -10 -9
-14 -10 9 -2 -12 -14 -11 -10
-14 -10 9 -2 -12 -14 -11 -10
-14 -10 9 -2 -12 -14 -11 -10
-13 -9 9 -2 -12 -14 -12 -10
-13 -9 9 -2 -12 -14 -12 -10
-12 -8 10 0 -11 -15 -13 -11
-13 -8 10 0 -11 -15 -13 -11
-14 -8 10 0 -11 -15 -13 -11
-16 -9 10 0 -11 -15 -12 -11
-17 -9 10 0 -11 -15 -12 -11
-18 -10 10 -2 -12 -14 -11 -10
-17 -10 10 -2 -12 -14 -11 -10
-15 -10 10 -2 -12 -14 -11 -9
-14 -9 10 0 -12 -14 -10 -8
-12 -9 10 0 -12 -14 -10 -8
-11 -8 11 1 -12 -13 -9 -7
-11 -7 11 1 -12 -13 -9 -7
-11 -7 11 1 -12 -13 -9 -7
-11 -6 11 1 -11 -13 -9 -7
-11 -5 11 1 -11 -13 -9 -7
-11 -4 12 0 -10 -13 -9 -7
-11 -3 14 0 -10 -13 -9 -7
-11 -3 15 0 -9 -13 -9 -7
-12 -2 17 1 -8 -12 -9 -7
-12 0 19 1 -8 -12 -9 -7
-13 1 20 2 -7 -11 -8 -7
-10 2 20 2 -7 -11 -8 -7
-8 4 20 3 -7 -11 -8 -7
-5 5 20 4 -7 -11 -8 -6
-3 7 20 4 -7 -11 -8 -6
0 8 19 5 -6 -10 -7 -5
0 11 19 6 -4 -8 -5 -3
0 13 18 8 -2 -6 -3 0
0 15 17 9 1 -4 0 2
0 17 17 11 3 -2 2 3
1 19 16 12 5 1 4 5
1 19 16 12 5 1 4 5
1 19 16 12 5 1 4 5
2 19 15 13 6 1 4 5
2 19 15 13 6 1 4 5
3 18 14 14 7 2 5 5
2 17 14 13 7 1 5 5
2 16 13 13 6 1 5 5
1 14 12 12 5 0 5 5
0 13 12 11 5 -2 5 5
-2 12 11 10 4 -3 4 6
-2 9 11 9 2 -4 3 5
-3 7 10 9 1 -4 2 4
-4 5 9 8 -2 -5 1 2
-4 3 9 7 -4 -6 0 1
-5 1 8 6 -5 -7 -2 0
-5 0 8 4 -6 -9 -4 -2
-5 -3 8 3 -6 -11 -6 -4
-6 -4 8 1 -7 -13 -8 -5
-6 -6 8 -2 -8 -14 -10 -7
-7 -7 7 -3 -9 -16 -12 -8
-9 -7 7 -3 -9 -16 -12 -8
-10 -7 7 -3 -9 -16 -12 -8
-12 -7 7 -3 -9 -16 -11 -8
-14 -7 7 -3 -9 -16 -11 -8
-15 -7 8 -3 -10 -15 -10 -7
-15 -7 8 -3 -10 -15 -10 -8
-14 -7 8 -3 -11 -15 -11 -9
-13 -7 8 -3 -12 -16 -12 -10
-13 -7 8 -3 -12 -16 -12 -11
-12 -8 8 -4 -13 -17 -13 -12
-12 -8 8 -4 -13 -17 -13 -12
-12 -9 8 -4 -13 -17 -13 -12
-12 -10 7 -5 -13 -17 -14 -12
-12 -10 7 -5 -13 -17 -14 -12
-13 -11 6 -6 -13 -16 -15 -11
-13 -11 6 -6 -13 -16 -15 -11
-13 -11 6 -6 -13 -16 -15 -11
-13 -12 6 -6 -13 -16 -15 -11
-13 -12 6 -6 -13 -16 -15 -11
-12 -13 6 -6 -13 -17 -15 -12
-12 -13 6 -6 -13 -17 -15 -12
-12 -13 6 -6 -13 -17 -15 -12
-13 -13 6 -6 -13 -17 -15 -11
-13 -13 6 -6 -13 -17 -15 -11
-14 -12 6 -5 -12 -16 -14 -10
-14 -12 6 -5 -12 -16 -14 -10
-14 -12 6 -5 -12 -16 -13 -10
-15 -11 6 -5 -11 -15 -12 -9
-15 -11 6 -5 -11 -15 -12 -9
-16 -10 5 -4 -10 -14 -11 -8
-15 -11 5 -2 -10 -14 -11 -8
-14 -12 6 1 -10 -14 -11 -8
-12 -13 7 3 -9 -14 -12 -9
-11 -14 7 4 -9 -14 -12 -9
-10 -15 8 2 -9 -15 -13 -10
-8 -14 9 -12 -12 -17 -14 -10
-6 -12 10 -26 -15 -19 -16 -11
-4 -11 11 -39 -18 -21 -17 -12
-3 -9 12 -53 -21 -23 -19 -12
0 -3 12 -74 -24 -24 -17 -9
0 14 7 -110 -29 -22 -9 3
0 29 2 -146 -33 -19 0 15
0 46 -4 -182 -38 -16 9 26
0 61 -9 -218 -44 -13 17 38
0 76 -21 -241 -39 -3 30 53
0 90 -44 -243 -19 21 51 71
1 103 -67 -244 2 45 72 90
2 116 -90 -246 22 68 93 109
2 130 -113 -247 43 92 113 128
3 135 -134 -242 64 111 128 139
5 120 -151 -220 85 125 131 136
7 107 -169 -197 105 137 134 133
9 93 -185 -175 126 150 137 129
10 78 -202 -152 146 162 140 126
10 63 -204 -133 150 160 132 114
1 46 -177 -118 120 129 102 88
-8 27 -150 -105 91 96 72 61
-16 9 -122 -91 62 63 42 34
-24 -10 -95 -76 32 30 12 8
-30 -22 -72 -64 11 8 -9 -10
-28 -21 -59 -54 7 4 -9 -10
-25 -21 -46 -44 3 0 -9 -10
-23 -20 -31 -32 -3 -5 -9 -9
-21 -19 -18 -22 -7 -9 -9 -9
-19 -18 -9 -15 -10 -12 -9 -8
-18 -18 -7 -12 -10 -12 -9 -9
-17 -18 -6 -9 -10 -12 -10 -9
-15 -18 -4 -7 -10 -13 -11 -10
-14 -18 -3 -4 -10 -13 -11 -11
-13 -19 0 -2 -9 -14 -12 -12
-13 -19 1 -2 -9 -15 -13 -12
-13 -19 2 -2 -9 -15 -14 -12
-14 -19 3 -2 -10 -16 -15 -13
-14 -19 5 -2 -10 -17 -16 -13
-15 -20 6 -2 -11 -18 -17 -14
-15 -20 6 -2 -11 -18 -17 -15
-15 -21 6 -2 -11 -19 -17 -16
-16 -21 6 -2 -12 -19 -18 -17
-16 -22 6 -2 -12 -20 -18 -19
-17 -23 5 0 -13 -21 -19 -20
-16 -23 5 0 -13 -21 -19 -20
-14 -23 6 0 -13 -22 -20 -20
-13 -23 6 0 -13 -22 -20 -20
-11 -23 7 0 -13 -23 -21 -20
-10 -23 8 1 -14 -24 -22 -21
-10 -23 8 1 -14 -24 -22 -21
-10 -23 8 2 -14 -23 -21 -21
-11 -23 8 2 -14 -23 -21 -20
-11 -23 8 3 -14 -22 -20 -20
-12 -22 7 4 -14 -21 -19 -19
-12 -22 7 4 -14 -21 -19 -19
-12 -22 7 4 -14 -21 -19 -19
-12 -22 8 4 -14 -21 -19 -19
-12 -22 8 4 -14 -21 -19 -19
-12 -23 9 4 -15 -21 -18 -20
-12 -23 8 4 -15 -21 -18 -20
-11 -22 7 5 -15 -21 -18 -19
-11 -22 6 5 -15 -21 -18 -19
-10 -21 5 6 -15 -21 -18 -18
-9 -20 4 7 -15 -21 -19 -17
-9 -20 4 7 -15 -21 -19 -17
-10 -20 4 7 -15 -21 -19 -18
-10 -20 5 7 -15 -21 -19 -18
-11 -20 5 7 -15 -21 -19 -19
-12 -21 6 7 -14 -22 -20 -20
-10 -21 6 7 -14 -21 -19 -19
-8 -20 6 7 -14 -21 -18 -18
-7 -20 6 7 -14 -20 -17 -17
-5 -19 6 7 -14 -19 -16 -15
-3 -18 5 7 -13 -18 -15 -14
-4 -18 5 7 -13 -18 -16 -14
-6 -18 5 7 -13 -18 -16 -14
-7 -19 5 8 -13 -19 -17 -15
-9 -19 5 8 -13 -19 -18 -15
-10 -20 5 9 -14 -20 -19 -16
-9 -20 5 10 -13 -19 -18 -16
-9 -19 5 11 -12 -18 -18 -16
-8 -19 5 12 -11 -17 -17 -15
-7 -18 5 14 -10 -16 -16 -15
-6 -17 6 15 -9 -15 -15 -14
-6 -17 6 15 -9 -15 -15 -14
-6 -17 6 15 -9 -15 -15 -14
-6 -17 6 16 -9 -15 -14 -14
-6 -17 6 16 -9 -15 -14 -14
-7 -18 6 17 -8 -14 -13 -13
-6 -18 5 17 -8 -14 -13 -13
-5 -18 4 17 -8 -14 -13 -13
-4 -18 3 18 -8 -15 -13 -13
-2 -18 2 18 -8 -15 -13 -13
0 -17 1 19 -8 -16 -13 -14
0 -17 1 20 -7 -15 -12 -13
0 -17 1 20 -6 -14 -10 -13
0 -17 2 21 -5 -13 -9 -12
0 -17 2 22 -4 -12 -8 -11
0 -16 3 23 -3 -11 -6 -10
0 -16 3 24 -2 -10 -5 -9
0 -16 2 24 -2 -9 -4 -8
1 -16 2 25 0 -8 -3 -7
1 -16 1 26 1 -7 -2 -6
2 -15 0 27 2 -6 0 -5
5 -15 -3 27 2 -6 0 -5
7 -15 -5 27 2 -6 0 -5
9 -15 -6 27 1 -6 0 -5
12 -15 -8 27 1 -6 0 -5
14 -15 -10 26 0 -6 0 -6
14 -14 -10 28 2 -3 2 -4
14 -12 -10 30 5 0 5 -2
15 -11 -10 31 7 2 7 1
15 -10 -10 33 9 5 9 3
16 -8 -11 35 11 7 11 5
18 -7 -13 35 11 7 11 5
19 -6 -14 35 11 8 12 6
21 -5 -16 35 12 8 12 6
22 -4 -17 35 12 9 13 7
24 -3 -19 35 13 10 14 8
24 -3 -19 35 15 11 16 11
25 -3 -20 35 16 12 18 13
25 -3 -20 35 18 13 21 15
26 -3 -21 35 19 15 23 18
27 -2 -22 36 21 16 25 20
29 1 -24 35 21 17 25 20
31 2 -25 35 21 17 26 20
34 4 -27 34 21 18 26 20
36 5 -28 33 21 19 27 20
38 7 -30 32 22 20 28 21
38 8 -30 32 22 20 29 22
38 9 -30 32 22 21 30 23
38 10 -30 31 22 21 31 24
38 11 -30 31 22 22 32 25
38 12 -31 30 23 23 33 26
38 13 -31 30 24 24 34 27
38 14 -31 30 25 26 34 28
37 15 -30 30 26 27 35 29
37 17 -30 30 28 28 36 30
36 18 -29 31 29 30 37 31
36 18 -29 30 28 30 37 31
36 18 -29 30 27 30 37 32
37 18 -30 29 26 31 38 32
37 18 -30 28 25 31 38 33
38 18 -31 27 24 32 39 34
38 18 -31 27 24 31 39 34
38 18 -30 26 24 30 39 33
38 19 -30 25 24 29 38 33
38 19 -29 24 24 28 38 32
37 20 -28 23 24 27 37 31
34 20 -25 23 24 27 37 31
30 20 -22 23 24 27 37 31
27 20 -19 23 24 26 36 31
24 20 -17 23 24 26 36 31
21 19 -14 24 25 25 35 31
20 19 -12 24 25 25 34 30
18 19 -10 24 24 24 33 28
17 18 -9 23 24 23 32 27
16 18 -7 23 23 22 31 26
14 17 -5 22 22 21 30 24
13 17 -3 21 21 20 28 22
12 17 0 20 19 18 25 20
11 16 1 19 18 17 23 17
10 16 3 18 17 16 20 15
9 15 5 17 15 14 18 13
6 14 6 17 15 14 18 12
3 13 8 17 15 14 17 11
0 12 10 16 15 14 16 10
-3 10 11 16 15 14 15 8
-6 9 13 15 15 13 14 7
-6 8 13 14 14 12 13 7
-6 6 13 13 13 10 12 6
-6 4 13 12 12 8 11 5
-6 3 13 11 10 7 9 4
-5 1 12 10 9 5 8 3
-5 1 12 10 9 5 8 3
-6 1 12 10 9 4 7 2
-6 1 12 10 9 4 6 2
-7 1 12 10 9 3 5 1
-8 0 13 9 8 2 4 0
-8 0 13 9 8 2 4 0
-8 0 13 8 8 2 3 -2
-8 0 13 8 7 2 3 -3
-8 0 13 7 7 2 2 -4
-9 -2 13 6 6 2 1 -5
-9 -2 13 6 6 2 1 -6
-9 -2 13 6 6 1 1 -7
-9 -2 13 6 6 1 0 -8
-9 -2 13 6 6 0 0 -9
-10 -3 12 6 5 -2 -2 -10
-10 -3 12 6 5 -2 -2 -10
-10 -3 12 6 5 0 -2 -9
-10 -2 12 7 6 0 -2 -8
-10 -2 12 7 6 1 -2 -7
-9 0 11 8 7 2 -2 -6
-9 0 11 8 7 2 -2 -6
-10 0 11 8 7 2 -2 -6
-10 0 12 8 7 2 -2 -6
-11 0 12 8 7 2 -2 -6
-12 0 13 9 8 2 0 -6
-12 0 13 9 8 2 0 -6
-11 0 13 9 8 3 0 -6
-11 -2 13 10 9 3 1 -6
-10 -2 13 10 9 4 1 -6
-9 -3 14 11 10 5 2 -5
-9 -3 14 11 10 5 2 -5
-9 -3 14 11 10 5 2 -5
-9 -4 14 11 10 4 2 -5
-9 -4 14 11 10 4 2 -5
-9 -5 14 12 10 3 1 -6
-9 -5 14 13 10 3 1 -6
-9 -4 14 14 10 3 1 -6
-10 -3 14 15 11 3 1 -6
-10 -2 14 16 11 3 1 -6
-11 0 14 17 12 4 2 -6
-11 0 14 17 12 4 2 -6
-11 0 14 16 12 4 2 -6
-10 0 14 16 11 4 2 -6
-10 0 14 15 11 4 2 -6
-9 1 15 14 10 4 3 -5
-9 1 15 14 10 4 3 -5
-8 0 15 14 10 4 3 -5
-7 -2 15 14 10 4 3 -5
-6 -3 15 14 10 4 3 -5
-5 -4 14 14 9 3 2 -5
-5 -4 14 14 9 3 2 -5
-6 -4 14 13 9 3 2 -5
-6 -3 14 13 9 2 3 -5
-7 -3 14 12 9 2 3 -5
-8 -2 15 11 8 1 4 -4
-8 -2 15 11 8 1 4 -4
-8 -2 15 11 8 1 3 -4
-9 -2 15 12 8 1 3 -5
-9 -2 15 12 8 1 2 -5
-10 -3 14 13 8 2 1 -6
-10 -3 14 13 8 2 1 -6
-10 -3 14 12 7 1 1 -6
-9 -2 14 11 7 1 1 -7
-9 -2 14 10 6 0 1 -7
-8 0 14 9 5 -2 0 -8
-8 0 14 9 5 -2 0 -8
-8 -2 14 9 5 -2 0 -8
-8 -3 14 9 5 -2 -2 -9
-8 -4 14 9 5 -2 -2 -9
-9 -5 14 8 4 -2 -3 -10
-9 -5 14 8 4 -2 -3 -10
-9 -5 14 8 4 -2 -3 -10
-9 -6 14 7 3 -2 -3 -9
-9 -6 14 7 3 -2 -3 -9
-10 -7 13 6 2 -2 -3 -8
-10 -7 13 6 2 -2 -3 -8
-10 -7 13 6 2 -2 -3 -8
-10 -6 14 7 2 -2 -2 -8
-10 -6 14 7 2 -2 -2 -8
-9 -5 15 8 1 -2 0 -8
-9 -5 15 8 1 -3 0 -8
-9 -6 15 7 0 -4 -2 -8
-9 -7 14 6 -2 -5 -3 -9
-9 -8 14 5 -3 -6 -4 -9
-9 -9 13 4 -4 -7 -5 -10
-9 -9 13 4 -4 -7 -5 -10
-9 -9 13 4 -4 -7 -5 -10
-8 -9 13 4 -4 -7 -5 -10
-8 -9 13 4 -4 -7 -5 -10
-7 -8 13 4 -4 -7 -6 -10
-8 -8 13 4 -4 -7 -6 -10
-9 -8 13 4 -4 -7 -6 -10
-10 -9 13 3 -5 -8 -6 -11
-11 -9 13 3 -5 -8 -6 -11
-13 -10 12 2 -6 -9 -5 -12
-13 -10 12 2 -6 -9 -5 -12
-13 -10 12 2 -6 -9 -6 -12
-13 -10 12 2 -6 -9 -6 -12
-13 -10 12 2 -6 -9 -7 -12
-12 -9 11 1 -7 -9 -8 -11
-12 -9 11 1 -7 -9 -8 -11
-12 -9 11 1 -7 -9 -8 -11
-12 -10 11 1 -7 -9 -8 -11
-12 -10 11 1 -7 -9 -8 -11
-11 -11 12 1 -7 -8 -7 -11
-11 -11 12 1 -7 -8 -7 -11
-11 -11 12 1 -7 -8 -7 -11
-11 -11 12 1 -7 -8 -7 -12
-11 -11 12 1 -7 -8 -7 -12
-12 -11 11 0 -7 -9 -8 -13
-12 -11 11 0 -7 -9 -8 -13
-12 -11 11 0 -7 -9 -8 -13
-12 -10 11 0 -8 -9 -8 -12
-12 -10 11 0 -8 -9 -8 -12
-12 -9 11 -2 -9 -10 -8 -11
-12 -9 11 -2 -9 -10 -8 -11
-12 -9 11 -2 -9 -10 -8 -11
-11 -9 11 -2 -9 -11 -8 -12
-11 -9 11 -2 -9 -11 -8 -12
-10 -10 12 -3 -9 -12 -9 -13
-10 -10 12 -3 -9 -12 -9 -13
-11 -10 13 -2 -8 -11 -8 -13
-12 -10 14 -2 -8 -10 -8 -12
-13 -10 15 0 -7 -9 -7 -12
-14 -10 16 1 -6 -8 -6 -11
-13 -10 16 1 -6 -8 -6 -11
-12 -9 16 1 -6 -8 -6 -11
-10 -8 16 1 -6 -8 -6 -11
-9 -7 16 1 -6 -8 -6 -11
-7 -6 16 1 -6 -8 -6 -12
-7 -4 17 1 -6 -8 -6 -12
-8 -3 18 2 -6 -8 -5 -11
-8 0 19 3 -5 -7 -4 -10
-9 2 20 4 -5 -7 -3 -9
-10 4 21 5 -4 -6 -2 -8
-8 6 21 5 -3 -6 -2 -8
-7 7 21 5 -2 -5 -2 -7
-5 9 21 5 0 -4 0 -6
-3 11 21 5 1 -3 0 -5
0 13 20 6 2 -2 1 -4
1 14 20 7 3 -2 1 -4
2 15 19 8 4 0 2 -4
4 17 18 9 5 0 3 -4
5 18 17 10 6 1 4 -4
7 20 16 11 7 2 5 -3
7 20 16 11 7 2 5 -3
8 20 16 11 7 2 5 -3
8 20 15 11 7 2 4 -3
9 20 15 11 7 2 4 -3
10 20 14 12 7 2 3 -2
9 19 14 12 7 2 3 -2
8 17 14 11 6 2 3 -2
7 16 14 10 5 1 3 -3
6 14 14 9 4 1 3 -3
4 12 13 8 3 0 2 -4
4 10 13 7 2 0 2 -4
3 7 13 6 1 -2 1 -5
3 4 12 5 -2 -3 1 -5
2 2 12 4 -3 -4 0 -6
1 -2 11 3 -5 -5 -2 -7
0 -3 11 2 -5 -6 -3 -8
-2 -4 10 1 -6 -7 -4 -9
-3 -6 10 0 -7 -9 -6 -10
-4 -7 9 -2 -8 -10 -7 -11
-6 -9 8 -3 -9 -12 -9 -12
-7 -9 8 -3 -9 -12 -9 -12
-8 -9 8 -3 -10 -12 -9 -12
-9 -10 9 -4 -10 -12 -9 -12
-10 -10 9 -4 -11 -12 -9 -12
-11 -11 10 -5 -12 -13 -10 -13
-11 -11 10 -5 -12 -13 -10 -13
-12 -11 10 -5 -12 -13 -10 -13
-12 -11 10 -5 -12 -14 -11 -13
-13 -11 10 -5 -12 -14 -11 -13
-14 -12 10 -6 -13 -15 -12 -14
-14 -12 10 -6 -13 -15 -12 -14
-13 -12 9 -6 -13 -15 -12 -14
-13 -12 9 -6 -13 -16 -13 -14
-12 -12 8 -6 -13 -16 -13 -14
-11 -13 7 -7 -14 -17 -14 -14
-11 -13 7 -7 -14 -17 -14 -14
-11 -13 7 -7 -13 -16 -14 -14
-12 -14 8 -6 -13 -16 -13 -14
-12 -14 8 -6 -12 -15 -13 -14
-13 -15 9 -5 -11 -14 -12 -15
-13 -15 9 -5 -11 -14 -12 -15
-12 -15 9 -5 -11 -14 -12 -15
-12 -15 9 -5 -11 -14 -12 -15
-11 -15 9 -5 -11 -14 -12 -15
-10 -15 8 -4 -12 -14 -11 -15
-10 -15 8 -4 -12 -14 -11 -15
-11 -14 8 -4 -12 -14 -11 -15
-11 -14 8 -4 -12 -14 -11 -14
-12 -13 8 -4 -12 -14 -11 -14
-13 -12 7 -3 -12 -13 -11 -13
-12 -13 8 -3 -12 -13 -11 -13
-10 -14 9 -2 -12 -13 -11 -13
-9 -15 10 0 -12 -13 -11 -13
-7 -16 11 1 -12 -13 -11 -13
-5 -18 13 1 -11 -14 -11 -14
-2 -14 13 -20 -15 -15 -11 -13
3 -9 13 -39 -19 -17 -11 -11
7 -4 12 -60 -23 -18 -10 -9
10 1 12 -80 -27 -20 -10 -7
14 7 11 -101 -31 -22 -9 -5
11 25 7 -132 -31 -16 3 11
8 44 2 -161 -31 -10 14 26
4 62 -4 -192 -31 -4 25 42
1 80 -8 -223 -31 4 36 57
-4 99 -14 -252 -31 11 49 71
1 106 -41 -245 -8 36 69 88
6 112 -69 -238 16 61 90 104
10 119 -96 -232 39 87 110 119
14 127 -123 -226 63 112 131 136
19 133 -150 -218 86 137 151 151
17 111 -153 -195 93 137 143 135
14 90 -157 -173 101 137 135 119
12 68 -161 -150 108 137 127 104
9 47 -165 -128 115 137 117 88
6 25 -169 -105 122 135 108 72
1 15 -145 -95 96 107 86 55
-6 6 -120 -86 69 79 62 38
-11 -5 -97 -75 43 52 38 22
-16 -14 -72 -66 16 24 15 5
-22 -24 -49 -56 -10 -4 -8 -12
-21 -24 -38 -46 -10 -5 -8 -12
-19 -23 -28 -35 -10 -7 -8 -12
-17 -23 -18 -25 -9 -8 -8 -11
-15 -22 -8 -15 -9 -10 -8 -11
-13 -21 3 -5 -8 -12 -9 -10
-13 -21 3 -5 -9 -13 -10 -11
-13 -21 4 -4 -10 -14 -11 -12
-12 -22 5 -4 -11 -16 -13 -13
-12 -22 6 -3 -12 -17 -14 -14
-11 -23 7 -2 -14 -19 -16 -16
-11 -23 7 -2 -14 -19 -16 -16
-11 -23 7 -2 -15 -20 -17 -16
-11 -23 8 0 -15 -20 -17 -16
-11 -23 8 0 -16 -21 -18 -16
-10 -24 9 1 -17 -22 -19 -15
-10 -24 9 1 -17 -22 -19 -15
-9 -24 9 2 -17 -22 -19 -15
-9 -23 9 2 -17 -22 -19 -16
-8 -23 9 3 -17 -22 -19 -16
-7 -22 9 4 -18 -22 -19 -17
-8 -22 9 4 -18 -22 -19 -17
-9 -22 9 4 -18 -22 -19 -17
-10 -22 10 5 -17 -22 -19 -17
-11 -22 10 5 -17 -22 -19 -17
-12 -23 11 6 -16 -22 -19 -16
-12 -23 11 6 -16 -22 -19 -16
-11 -24 11 6 -17 -22 -19 -16
-10 -24 11 6 -17 -22 -19 -16
-9 -25 11 6 -18 -22 -19 -16
-8 -26 12 6 -19 -21 -19 -15
-8 -26 12 6 -19 -21 -19 -15
-8 -26 12 6 -19 -21 -19 -15
-8 -26 12 7 -19 -21 -20 -16
-8 -26 12 7 -19 -21 -20 -16
-9 -25 13 8 -19 -22 -21 -17
-9 -25 13 8 -19 -22 -21 -17
-9 -25 13 8 -19 -22 -21 -17
-9 -25 12 8 -19 -22 -22 -17
-9 -25 12 8 -19 -22 -22 -17
-9 -26 11 8 -19 -22 -23 -17
-9 -26 11 8 -19 -22 -23 -17
-9 -26 11 8 -19 -22 -23 -16
-9 -25 11 9 -19 -22 -22 -15
-9 -25 11 9 -19 -22 -22 -14
-8 -24 11 10 -19 -22 -21 -13
-8 -24 11 10 -19 -22 -21 -13
-8 -24 11 11 -19 -22 -21 -13
-7 -24 11 11 -19 -22 -21 -12
-7 -24 11 12 -19 -22 -21 -12
-6 -24 11 13 -20 -22 -21 -11
-6 -24 11 13 -20 -22 -21 -11
-5 -24 11 13 -20 -22 -21 -11
-4 -24 11 13 -20 -21 -21 -11
-3 -24 11 13 -20 -21 -21 -11
-3 -24 11 13 -20 -21 -21 -11
-2 -24 10 13 -19 -20 -20 -12
-2 -24 10 14 -18 -20 -20 -13
-2 -23 10 15 -18 -19 -20 -13
-2 -23 10 16 -17 -19 -20 -14
-2 -23 10 16 -17 -19 -20 -14
-3 -22 10 17 -16 -18 -21 -14
-2 -22 10 17 -16 -17 -20 -13
-2 -21 10 18 -15 -17 -20 -12
0 -21 10 18 -15 -16 -19 -11
0 -21 10 18 -15 -16 -19 -10
1 -20 10 19 -14 -15 -18 -9
1 -20 10 20 -13 -14 -17 -9
2 -21 10 21 -12 -14 -17 -8
2 -21 10 22 -11 -13 -16 -8
2 -21 10 22 -11 -13 -16 -8
3 -22 10 23 -10 -12 -15 -7
3 -22 9 24 -10 -12 -15 -6
4 -22 9 25 -10 -12 -14 -6
4 -22 8 26 -10 -12 -14 -5
4 -22 8 26 -10 -12 -14 -5
5 -21 7 27 -9 -11 -12 -4
6 -21 7 27 -9 -10 -11 -3
7 -20 6 27 -8 -10 -10 -3
8 -20 6 27 -8 -9 -9 -2
8 -20 6 27 -8 -9 -8 -2
9 -19 5 29 -6 -7 -7 1
9 -18 4 30 -5 -6 -6 2
9 -18 4 31 -4 -4 -5 4
9 -17 3 32 -3 -3 -4 5
9 -17 3 33 -2 -2 -4 6
12 -16 1 34 0 0 -3 7
14 -15 0 35 0 1 -3 7
17 -14 -3 35 1 2 -2 7
19 -13 -4 36 1 3 -2 7
21 -13 -5 36 1 3 -2 7
22 -12 -6 37 3 5 1 9
22 -12 -7 37 4 7 2 11
23 -11 -7 38 6 8 4 13
23 -11 -8 38 7 10 5 15
23 -11 -8 38 8 11 6 17
25 -10 -10 39 9 13 8 19
27 -9 -12 39 10 15 10 20
28 -8 -13 39 11 16 11 21
30 -7 -15 39 12 18 13 22
31 -6 -16 39 13 19 14 23
32 -4 -17 40 14 20 15 24
33 -2 -18 39 15 21 16 25
34 1 -19 38 16 22 17 26
35 3 -20 37 17 23 18 27
36 5 -20 37 17 24 19 28
37 7 -21 36 18 25 20 29
37 8 -21 36 18 26 21 30
37 9 -22 37 19 27 22 31
37 10 -22 37 19 28 23 32
37 11 -22 37 19 28 24 33
38 12 -23 37 20 29 25 34
38 13 -23 36 20 29 26 35
38 14 -23 35 21 29 26 35
38 15 -23 34 21 29 27 36
38 15 -23 33 21 29 27 36
39 16 -24 32 22 30 29 38
38 16 -24 32 22 31 30 39
37 16 -24 31 22 32 31 42
36 16 -24 31 22 33 32 43
36 16 -24 31 22 33 33 44
35 16 -24 30 22 34 34 45
34 16 -22 30 22 34 34 45
33 16 -20 30 22 34 33 44
32 16 -18 30 22 34 33 44
31 16 -17 30 22 34 33 44
30 17 -15 30 21 32 30 40
29 17 -14 29 20 30 28 37
28 17 -12 27 19 28 26 34
27 17 -11 26 18 26 24 31
26 17 -10 25 17 24 22 28
24 17 -7 24 16 23 21 27
23 17 -4 24 16 22 20 26
21 16 -2 24 16 22 19 26
20 16 2 24 16 21 18 25
19 16 4 24 16 21 17 25
16 15 6 23 16 20 15 23
12 14 7 22 15 19 13 21
9 13 8 21 14 18 11 20
6 12 9 20 13 17 9 18
3 12 10 20 13 16 8 17
2 10 11 18 11 13 6 14
2 9 12 17 9 11 4 12
1 7 13 16 7 8 2 10
1 6 14 15 5 6 0 8
1 5 14 14 4 4 -3 6
0 4 15 13 3 3 -4 5
0 4 15 13 3 3 -4 5
-2 4 15 12 3 3 -4 5
-2 4 15 12 3 3 -4 5
-2 4 15 12 3 3 -4 5
-3 5 15 10 2 2 -3 4
-4 4 15 9 1 1 -3 4
-5 3 15 7 1 1 -3 3
-6 2 15 6 0 0 -3 3
-6 1 15 5 0 0 -3 3
-7 0 16 4 -2 -2 -2 2
-7 0 16 4 -2 -3 -2 2
-7 -2 15 5 -3 -3 -3 2
-7 -2 15 5 -3 -4 -3 2
-7 -2 15 5 -3 -4 -3 2
-7 -3 14 6 -4 -5 -4 2
-8 -3 15 6 -4 -5 -4 2
-9 -3 15 6 -4 -5 -4 1
-10 -3 16 6 -4 -5 -4 1
-11 -3 16 6 -4 -5 -4 1
-12 -4 17 7 -3 -6 -3 0
-11 -4 17 7 -3 -6 -4 -2
-11 -4 16 6 -3 -6 -4 -2
-10 -4 16 6 -3 -6 -5 -3
-10 -4 16 6 -3 -6 -5 -3
-9 -4 15 5 -4 -7 -6 -4
-9 -3 15 5 -4 -7 -7 -4
-9 -2 15 6 -3 -6 -7 -5
-9 0 15 6 -3 -6 -8 -5
-9 1 15 6 -3 -6 -8 -5
-9 2 15 7 -2 -5 -9 -6
-9 1 15 7 -2 -5 -9 -6
-9 0 15 8 -2 -5 -9 -6
-9 -2 15 8 -2 -5 -9 -6
-9 -2 15 8 -2 -5 -9 -6
-8 -3 16 9 -2 -6 -8 -7
-8 -3 16 9 0 -6 -8 -6
-8 -3 16 9 1 -6 -8 -5
-8 -3 16 9 2 -6 -8 -4
-8 -3 16 9 3 -6 -8 -3
-8 -4 16 10 4 -5 -8 -2
-8 -4 16 10 4 -5 -7 -2
-8 -3 16 11 4 -4 -6 -2
-8 -3 16 11 4 -4 -5 -2
-8 -3 16 11 4 -4 -5 -2
-8 -2 17 12 4 -3 -4 -3
-7 -2 17 12 4 -3 -4 -3
-7 -2 17 12 3 -3 -3 -3
-6 -2 17 12 3 -3 -3 -3
-6 -2 17 12 3 -3 -3 -3
-5 -3 17 13 2 -3 -2 -2
-5 -3 17 13 2 -3 -2 -2
-5 -3 17 13 2 -3 -2 -2
-5 -3 17 13 2 -3 -2 -2
-5 -3 17 13 2 -3 -2 -2
-6 -3 17 12 2 -2 -3 -3
-6 -3 17 12 2 -2 -3 -3
-7 -3 17 12 2 -2 -3 -3
-7 -3 17 12 2 -2 -3 -3
-7 -3 17 12 2 -2 -3 -3
-8 -3 16 12 2 -3 -3 -3
-8 -3 16 12 1 -4 -4 -3
-8 -3 16 11 1 -5 -5 -3
-8 -3 16 11 0 -6 -6 -3
-8 -3 16 11 0 -7 -6 -3
-7 -2 16 10 -2 -8 -7 -4
-7 -2 16 10 -2 -7 -7 -4
-7 -2 16 9 -2 -7 -7 -4
-7 -2 16 9 -2 -6 -7 -4
-7 -2 16 9 -2 -6 -7 -4
-7 -2 17 8 0 -5 -6 -5
-7 -2 16 8 -2 -6 -7 -5
-7 -2 16 7 -2 -7 -7 -5
-7 -2 15 7 -3 -8 -8 -5
-7 -2 15 7 -3 -8 -8 -5
-8 0 14 6 -4 -9 -9 -6
-8 -2 14 6 -4 -9 -9 -6
-8 -2 15 6 -4 -9 -8 -6
-8 -3 15 6 -4 -9 -8 -6
-8 -3 15 6 -4 -9 -8 -6
-9 -4 16 7 -4 -8 -7 -6
-9 -4 16 6 -4 -8 -7 -6
-8 -4 16 6 -4 -8 -7 -6
-8 -4 16 5 -4 -8 -7 -6
-8 -4 16 5 -4 -8 -7 -6
-7 -5 15 4 -4 -9 -8 -6
-7 -4 15 4 -5 -9 -8 -7
-8 -4 14 4 -6 -9 -8 -7
-8 -3 14 4 -7 -9 -8 -8
-8 -3 14 4 -7 -9 -8 -8
-9 -2 13 5 -8 -10 -10 -9
-8 -3 12 4 -8 -11 -11 -9
-8 -4 12 3 -9 -12 -12 -10
-7 -5 11 2 -9 -13 -13 -10
-7 -5 11 2 -9 -13 -14 -10
-6 -6 10 1 -10 -14 -15 -11
-6 -6 10 1 -10 -14 -15 -11
-7 -6 10 1 -10 -13 -15 -11
-7 -6 10 1 -10 -13 -15 -11
-7 -6 10 1 -10 -13 -15 -11
-8 -5 11 2 -10 -12 -14 -11
-8 -5 11 2 -10 -12 -14 -11
-8 -5 12 2 -10 -12 -14 -11
-8 -5 12 2 -10 -12 -14 -11
-8 -5 12 2 -10 -12 -14 -11
-9 -4 13 3 -9 -11 -13 -10
-9 -5 13 3 -9 -11 -13 -10
-10 -5 13 3 -9 -11 -13 -10
-10 -6 13 3 -9 -11 -13 -10
-10 -6 13 3 -9 -11 -13 -10
-10 -6 13 2 -10 -12 -13 -11
-9 -4 13 2 -10 -12 -13 -10
-8 -2 13 2 -9 -12 -13 -10
-7 1 13 2 -9 -12 -13 -9
-6 3 13 2 -9 -12 -13 -9
-5 4 14 3 -8 -12 -13 -8
-6 4 15 3 -7 -11 -12 -8
-6 4 16 4 -7 -10 -11 -8
-7 4 17 4 -6 -9 -10 -8
-7 4 18 4 -6 -8 -9 -8
-7 6 19 5 -5 -7 -8 -7
-5 8 19 5 -5 -7 -8 -7
-3 10 19 5 -5 -7 -8 -6
-2 12 19 5 -5 -7 -8 -6
1 14 19 5 -5 -7 -8 -6
2 16 18 7 -3 -5 -6 -4
3 18 18 8 0 -3 -4 -3
4 20 17 9 2 0 -2 0
5 22 17 11 3 2 1 2
5 24 17 12 5 4 3 3
6 25 16 13 6 5 4 4
6 25 16 13 6 5 4 4
7 24 16 14 7 5 5 4
7 24 16 14 7 5 5 4
7 24 16 14 7 5 5 4
8 22 15 15 8 4 5 4
7 21 14 14 7 3 3 3
7 20 14 13 6 2 0 2
6 18 13 12 5 0 -3 1
6 17 13 12 5 -2 -5 1
4 15 12 11 4 -3 -6 0
3 13 11 9 3 -4 -7 -2
2 11 11 8 2 -5 -7 -3
0 10 10 7 1 -6 -8 -4
-2 8 10 6 0 -7 -8 -4
-3 7 9 5 -3 -8 -9 -6
-3 6 9 4 -4 -9 -10 -7
-3 5 8 3 -5 -10 -11 -8
-3 4 8 2 -7 -11 -12 -10
-3 3 8 1 -8 -11 -12 -11
-3 1 7 0 -9 -12 -13 -12
-5 0 7 0 -9 -12 -13 -12
-7 -2 7 0 -9 -12 -12 -11
-8 -4 7 0 -9 -12 -12 -11
-10 -5 7 0 -9 -12 -12 -11
-11 -6 8 -2 -10 -12 -11 -10
-11 -6 8 -2 -10 -12 -11 -10
-12 -7 8 -2 -10 -12 -11 -10
-12 -7 8 -2 -10 -12 -11 -10
-12 -7 8 -2 -10 -12 -11 -10
-13 -8 8 -2 -9 -11 -12 -11
-13 -8 8 -3 -9 -11 -12 -11
-13 -9 8 -3 -9 -12 -13 -12
-13 -9 8 -4 -9 -12 -13 -12
-13 -9 8 -4 -9 -12 -13 -12
-13 -10 8 -5 -10 -13 -14 -13
-12 -10 8 -5 -11 -14 -14 -13
-11 -9 7 -5 -12 -14 -15 -14
-10 -9 7 -5 -13 -15 -15 -14
-9 -9 7 -5 -13 -15 -15 -14
-8 -8 6 -5 -14 -16 -16 -15
-9 -7 6 -4 -13 -15 -16 -15
-9 -7 6 -4 -12 -14 -16 -15
-10 -6 6 -3 -11 -13 -16 -15
-10 -6 6 -3 -10 -13 -16 -15
-11 -5 5 -2 -9 -12 -16 -14
-11 -5 5 -2 -9 -12 -16 -14
-12 -6 6 -2 -9 -12 -16 -14
-12 -6 6 -2 -9 -12 -16 -14
-12 -6 6 -2 -9 -12 -16 -14
-11 -8 7 1 -9 -13 -15 -14
-8 -9 7 3 -9 -13 -15 -15
-5 -10 7 6 -9 -13 -15 -16
-2 -12 7 9 -9 -13 -15 -17
2 -13 7 12 -9 -13 -15 -17
3 -11 8 -6 -11 -13 -15 -17
4 -7 7 -29 -15 -15 -15 -15
5 -2 6 -53 -19 -17 -15 -13
6 3 5 -77 -23 -19 -15 -11
6 8 5 -101 -28 -21 -15 -9
5 22 -3 -138 -34 -22 -8 3
3 39 -11 -177 -40 -22 2 16
0 57 -20 -217 -48 -21 10 29
-3 74 -28 -257 -54 -21 19 43
-6 92 -37 -297 -61 -21 28 56
-6 104 -58 -302 -46 3 47 72
-4 114 -82 -297 -21 32 68 90
0 126 -107 -291 3 62 90 107
2 136 -133 -286 26 92 111 125
4 147 -157 -281 50 121 134 142
5 136 -168 -260 64 131 136 138
3 115 -174 -234 74 134 130 125
2 96 -180 -208 86 137 125 111
1 75 -185 -183 96 141 119 98
0 56 -191 -157 107 144 114 85
-6 42 -174 -139 91 123 94 67
-11 28 -147 -122 65 94 70 49
-16 15 -120 -106 39 65 46 30
-22 2 -94 -90 15 35 21 12
-27 -12 -68 -73 -11 6 -4 -7
-26 -16 -53 -60 -17 -3 -10 -12
-22 -16 -41 -48 -16 -5 -10 -12
-18 -16 -30 -35 -14 -6 -11 -12
-14 -16 -19 -23 -12 -8 -11 -12
-10 -16 -8 -11 -11 -10 -11 -12
-9 -16 -5 -7 -10 -11 -12 -13
-10 -16 -4 -5 -11 -12 -13 -13
-10 -16 -3 -4 -11 -13 -14 -14
-11 -16 -2 -2 -12 -14 -15 -14
-11 -16 0 1 -12 -15 -15 -14
-12 -16 2 2 -13 -16 -16 -15
-12 -17 3 3 -13 -16 -16 -15
-13 -18 4 4 -13 -16 -16 -15
-13 -18 6 5 -13 -16 -16 -15
-13 -19 7 6 -13 -16 -16 -15
-14 -20 8 7 -13 -15 -17 -15
-14 -20 8 8 -13 -15 -17 -15
-13 -21 9 8 -13 -15 -17 -15
-13 -21 9 9 -13 -15 -17 -15
-13 -21 9 9 -13 -15 -17 -15
-12 -22 10 10 -12 -16 -17 -16
-11 -22 10 10 -13 -17 -18 -18
-11 -22 10 10 -14 -18 -20 -19
-10 -22 10 10 -15 -20 -21 -20
-10 -22 10 10 -16 -21 -23 -21
-9 -22 9 9 -17 -22 -24 -22
-9 -22 8 9 -17 -21 -24 -22
-8 -23 8 9 -17 -21 -23 -22
-8 -23 7 9 -17 -20 -23 -22
-8 -23 7 9 -17 -20 -23 -22
-7 -24 6 9 -17 -19 -22 -21
-8 -24 7 10 -17 -19 -22 -21
-8 -24 7 11 -16 -19 -22 -21
-9 -24 8 11 -16 -19 -22 -21
-9 -24 8 12 -16 -19 -22 -21
-10 -23 9 13 -15 -19 -21 -20
-10 -23 9 13 -15 -19 -20 -19
-9 -23 9 14 -15 -19 -20 -18
-9 -23 9 14 -15 -19 -19 -18
-9 -23 9 14 -15 -19 -19 -17
-8 -22 10 15 -14 -18 -18 -16
-8 -22 10 15 -14 -18 -18 -16
-8 -23 10 15 -14 -18 -18 -17
-8 -23 10 15 -14 -18 -18 -17
-8 -23 10 15 -14 -18 -18 -17
-8 -24 10 15 -13 -17 -18 -18
-7 -24 10 15 -13 -17 -18 -18
-7 -24 10 15 -13 -17 -19 -18
-6 -24 10 15 -13 -17 -19 -18
-6 -24 10 15 -13 -17 -19 -18
-5 -23 9 16 -12 -17 -20 -17
-5 -23 10 17 -12 -16 -20 -17
-5 -23 10 18 -12 -16 -19 -18
-5 -23 11 19 -12 -15 -19 -18
-5 -23 11 20 -12 -15 -19 -18
-6 -23 12 21 -12 -14 -18 -19
-5 -22 12 23 -10 -14 -17 -17
-4 -21 11 24 -9 -14 -17 -16
-3 -21 11 25 -8 -14 -16 -15
-2 -20 11 26 -7 -14 -16 -14
0 -19 10 27 -6 -13 -15 -13
1 -19 10 27 -6 -13 -15 -13
2 -19 10 27 -6 -12 -15 -13
2 -19 10 27 -6 -12 -15 -13
3 -19 10 27 -6 -12 -15 -13
4 -20 9 27 -7 -11 -15 -14
4 -21 9 28 -5 -10 -13 -13
4 -21 9 29 -4 -9 -12 -12
4 -22 9 30 -3 -9 -11 -11
4 -22 9 31 -2 -8 -10 -10
3 -23 10 32 0 -7 -9 -9
3 -23 9 32 0 -7 -9 -9
3 -23 8 32 0 -8 -9 -10
3 -23 8 32 0 -8 -9 -10
3 -23 7 32 0 -8 -9 -10
5 -22 6 34 0 -9 -9 -11
8 -22 5 35 2 -8 -8 -11
10 -22 5 37 3 -7 -8 -10
12 -22 4 38 4 -6 -7 -10
15 -22 4 40 5 -5 -7 -10
16 -21 3 42 7 -3 -5 -8
15 -20 3 43 8 0 -4 -7
14 -19 3 44 10 1 -2 -5
14 -18 3 44 11 3 0 -4
13 -17 3 45 13 5 2 -2
12 -16 3 47 14 7 3 0
14 -16 2 48 16 8 5 1
15 -16 1 50 17 10 6 1
16 -16 1 51 19 11 7 2
17 -16 0 53 20 13 8 2
19 -17 -3 54 21 14 9 4
22 -15 -4 54 22 15 11 6
24 -14 -6 54 23 15 12 8
27 -12 -7 54 23 16 13 10
30 -11 -9 54 24 16 14 12
31 -10 -10 54 26 18 16 13
31 -10 -11 55 28 20 17 14
31 -10 -11 56 29 22 19 15
31 -10 -12 57 31 25 20 15
31 -10 -12 58 33 27 22 16
31 -9 -13 59 34 28 24 18
31 -7 -14 59 36 29 25 19
31 -6 -14 59 37 30 27 21
31 -4 -15 59 38 30 28 22
31 -2 -15 59 39 31 30 24
32 1 -16 59 40 32 31 25
33 2 -16 59 42 34 32 27
34 4 -16 58 42 35 33 28
35 5 -16 58 43 36 33 30
36 7 -16 58 43 37 34 31
37 8 -17 57 44 38 35 32
38 8 -18 56 44 38 36 32
38 8 -19 55 44 38 37 32
39 8 -19 54 44 38 37 32
39 8 -20 53 44 38 38 32
40 9 -21 52 44 38 39 31
40 10 -21 52 44 38 39 31
39 11 -21 51 43 38 39 32
39 12 -21 50 42 38 39 32
39 13 -21 50 42 38 39 32
37 15 -20 49 40 37 40 33
35 16 -18 49 40 37 40 33
33 18 -17 48 40 36 39 33
31 19 -15 48 40 36 38 33
29 21 -14 48 40 36 38 33
28 22 -12 46 38 35 37 32
27 20 -10 45 37 34 37 31
25 19 -8 43 35 32 36 30
24 17 -5 42 34 31 35 30
23 16 -3 39 32 30 35 29
21 15 0 37 30 28 33 27
20 15 1 36 29 26 31 25
18 16 3 34 27 24 29 23
17 16 4 33 26 22 27 20
15 16 6 31 24 20 25 18
12 17 7 30 23 19 23 16
9 16 9 29 21 17 22 14
6 15 10 28 20 16 20 12
3 14 12 28 18 14 19 10
0 13 13 27 17 13 17 8
-3 12 14 25 15 11 15 7
-3 11 14 23 14 10 13 7
-4 9 14 21 12 8 11 6
-5 8 14 19 11 6 9 6
-5 7 14 17 9 4 7 6
-6 6 15 16 8 3 6 5
-6 6 15 14 7 2 6 4
-6 6 14 13 6 1 5 2
-6 6 13 11 6 1 4 1
-6 6 13 10 5 0 4 0
-6 5 12 9 4 -2 3 -2
-6 3 12 8 3 -3 3 -2
-7 2 12 7 2 -4 3 -3
-7 0 12 7 2 -4 3 -3
-7 -2 12 6 1 -5 3 -3
-8 -3 13 5 0 -6 2 -4
-8 -3 13 5 0 -6 1 -4
-8 -2 13 5 -2 -7 0 -5
-8 0 13 5 -2 -7 -2 -5
-8 0 13 5 -2 -7 -3 -5
-8 1 12 5 -3 -8 -4 -6
-8 1 12 4 -3 -8 -4 -6
-7 0 11 3 -3 -9 -4 -7
-7 -2 11 3 -3 -10 -4 -8
-7 -2 11 2 -3 -10 -4 -8
-6 -3 10 2 -4 -11 -5 -9
-6 -2 10 3 -3 -10 -5 -9
-7 0 11 5 -2 -9 -5 -9
-7 0 12 6 0 -8 -5 -9
-7 1 12 8 1 -7 -5 -9
-8 2 13 9 2 -6 -4 -10
-8 1 13 8 2 -6 -4 -10
-8 0 13 7 2 -6 -5 -10
-8 0 13 7 2 -6 -6 -10
-8 -2 13 6 2 -6 -6 -10
-7 -3 12 5 2 -7 -7 -10
-7 -3 12 6 2 -7 -6 -10
-7 -3 12 8 2 -7 -5 -9
-7 -3 12 9 2 -7 -5 -9
-7 -3 12 10 2 -7 -4 -9
-8 -2 13 11 3 -6 -3 -8
-8 -2 13 11 3 -6 -3 -8
-9 -2 13 12 4 -5 -2 -8
-9 -2 13 13 5 -4 -2 -8
-9 -2 13 13 5 -4 -2 -8
-10 -3 14 14 6 -3 0 -8
-10 -3 14 14 6 -3 0 -8
-10 -3 14 14 6 -2 0 -7
-10 -3 14 14 6 -2 0 -6
-10 -3 14 14 6 -2 0 -6
-9 -3 15 15 7 0 1 -5
-9 -3 15 15 6 -2 0 -6
-8 -3 14 14 5 -3 -2 -8
-8 -3 14 13 5 -4 -2 -9
-8 -3 14 13 4 -5 -3 -10
-7 -4 13 12 3 -6 -4 -11
-7 -4 13 12 3 -6 -4 -11
-6 -3 13 12 3 -6 -3 -11
-5 -2 13 12 3 -6 -3 -11
-5 -2 13 12 3 -6 -3 -11
-4 0 13 13 4 -5 -2 -12
-5 0 13 13 4 -5 -2 -11
-6 0 13 13 4 -5 -2 -10
-6 0 13 13 4 -5 -2 -10
-7 0 13 13 4 -5 -2 -9
-8 -2 13 12 4 -6 -2 -8
-7 -2 13 12 4 -6 -2 -8
-6 -3 13 12 4 -6 -2 -8
-6 -3 13 12 4 -6 -2 -8
-5 -3 13 12 4 -6 -2 -8
-4 -4 13 12 4 -6 -2 -9
-5 -4 13 12 4 -6 -2 -9
-6 -4 13 12 4 -6 -2 -10
-7 -4 13 12 4 -6 -2 -10
-8 -4 13 12 4 -6 -2 -10
-9 -4 13 11 3 -5 -3 -11
-9 -3 13 11 2 -6 -3 -11
-8 -2 12 10 1 -8 -4 -11
-8 -2 11 9 0 -9 -5 -11
-8 0 11 9 -2 -10 -5 -11
-7 1 10 8 -3 -11 -6 -11
-7 0 10 8 -3 -11 -6 -11
-7 -2 10 7 -4 -12 -7 -12
-7 -3 10 7 -5 -12 -7 -12
-7 -4 10 7 -5 -12 -7 -12
-7 -5 9 6 -6 -13 -8 -13
-8 -5 9 6 -6 -13 -8 -13
-9 -5 9 6 -5 -12 -7 -13
-9 -5 9 6 -4 -11 -7 -13
-10 -5 9 6 -4 -11 -7 -13
-11 -4 10 7 -3 -10 -6 -12
-11 -4 10 7 -3 -10 -6 -12
-11 -4 10 6 -4 -11 -7 -12
-11 -4 10 5 -5 -12 -7 -12
-11 -4 10 5 -5 -12 -7 -12
-10 -5 9 4 -6 -13 -8 -13
-10 -5 9 4 -6 -13 -8 -13
-10 -5 9 3 -7 -14 -9 -13
-10 -5 9 3 -7 -14 -9 -13
-10 -5 9 3 -7 -14 -9 -13
-9 -5 9 2 -8 -15 -10 -13
-9 -4 9 2 -8 -15 -10 -13
-8 -3 8 2 -8 -15 -11 -13
-8 -3 8 2 -8 -15 -11 -13
-8 -2 8 2 -8 -15 -11 -13
-7 0 7 1 -9 -15 -12 -14
-7 0 7 1 -9 -15 -12 -14
-7 0 8 2 -9 -14 -12 -14
-7 0 8 2 -9 -14 -12 -14
-7 0 8 2 -9 -14 -12 -14
-8 0 9 3 -8 -13 -11 -13
-8 0 9 3 -8 -13 -11 -13
-8 0 10 4 -7 -12 -11 -12
-8 0 11 5 -6 -12 -11 -12
-8 0 11 5 -6 -12 -11 -12
-8 2 12 6 -5 -11 -11 -11
-8 4 12 6 -5 -11 -11 -11
-8 6 13 6 -5 -10 -10 -10
-8 8 13 6 -5 -10 -10 -10
-8 10 13 6 -5 -10 -10 -10
-8 11 14 6 -5 -9 -9 -9
-6 13 14 7 -4 -8 -8 -8
-4 15 14 8 -3 -7 -7 -7
-2 17 14 9 -2 -6 -6 -6
1 19 14 10 0 -5 -5 -5
2 20 15 11 1 -4 -4 -4
2 22 15 12 2 -3 -2 -3
3 24 14 13 4 0 1 0
4 25 14 13 5 1 2 1
4 27 14 14 6 2 4 2
5 28 13 15 7 3 5 3
6 28 13 15 7 3 5 3
7 27 12 15 7 3 5 3
8 26 11 15 7 3 5 3
9 26 11 15 7 3 5 3
10 25 10 15 7 2 4 3
10 23 9 13 5 0 2 2
9 21 8 12 3 -3 1 1
8 20 8 11 1 -4 0 1
8 18 7 9 -2 -6 -3 0
6 16 6 8 -3 -7 -4 -2
4 14 6 8 -3 -7 -4 -3
2 12 6 7 -3 -8 -5 -4
0 10 6 7 -3 -9 -6 -4
-3 8 6 7 -3 -9 -6 -5
-4 6 6 6 -4 -10 -7 -6
-5 4 6 5 -6 -12 -9 -8
-6 2 5 3 -8 -13 -11 -9
-6 0 5 2 -10 -14 -12 -10
-7 -3 5 1 -12 -16 -14 -12
-8 -4 4 0 -13 -17 -15 -13
-8 -4 4 0 -13 -17 -15 -13
-9 -4 5 -2 -13 -17 -15 -13
-9 -4 5 -3 -13 -17 -15 -13
-9 -4 5 -3 -13 -17 -15 -13
-10 -5 6 -4 -13 -16 -16 -13
-10 -5 6 -4 -13 -16 -16 -13
-11 -5 6 -4 -13 -16 -15 -13
-12 -5 6 -4 -13 -16 -15 -13
-12 -5 6 -4 -13 -16 -15 -13
-13 -6 5 -4 -13 -16 -14 -13
-12 -6 5 -4 -13 -16 -15 -13
-11 -7 5 -5 -14 -17 -16 -14
-11 -8 5 -6 -15 -18 -16 -14
-10 -8 5 -6 -15 -18 -17 -14
-9 -9 4 -7 -16 -19 -18 -15
-10 -8 4 -6 -16 -19 -18 -14
-11 -7 4 -5 -15 -18 -17 -13
-11 -6 4 -5 -15 -17 -16 -12
-12 -5 4 -4 -15 -17 -16 -11
-13 -4 5 -3 -14 -16 -15 -10
-13 -4 5 -3 -14 -16 -15 -11
-12 -4 4 -4 -14 -17 -16 -12
-12 -4 4 -4 -14 -17 -16 -12
-12 -4 4 -4 -14 -17 -16 -13
-11 -3 3 -5 -14 -18 -17 -14
-11 -4 3 -3 -14 -18 -17 -14
-10 -5 3 0 -13 -17 -17 -13
-10 -5 3 2 -13 -17 -17 -13
-10 -6 3 4 -13 -17 -17 -13
-9 -7 4 3 -12 -16 -16 -12
-7 -7 6 -3 -13 -16 -16 -12
-6 -8 8 -8 -14 -17 -16 -13
-5 -9 9 -13 -14 -17 -16 -13
-3 -9 11 -18 -15 -17 -16 -13
-2 -4 9 -41 -20 -19 -15 -11
0 9 1 -85 -29 -21 -13 -5
1 21 -7 -128 -38 -23 -11 2
2 33 -15 -171 -48 -26 -8 8
3 46 -23 -213 -57 -28 -6 14
3 62 -35 -245 -60 -24 4 26
-2 80 -54 -266 -56 -10 19 44
-5 99 -71 -287 -52 4 34 60
-9 118 -90 -308 -48 18 50 77
-13 137 -108 -329 -44 32 65 95
-13 146 -129 -330 -26 53 81 108
-7 144 -152 -309 5 80 99 117
-2 142 -176 -287 35 108 116 126
4 140 -199 -266 65 136 134 135
10 138 -223 -244 96 163 152 144
10 122 -225 -221 104 163 147 136
4 95 -202 -195 87 134 115 106
-4 66 -180 -170 68 104 84 76
-10 38 -158 -144 51 74 53 48
-17 11 -136 -118 32 45 21 18
-21 -5 -114 -99 19 25 3 2
-21 -7 -96 -85 9 17 -2 -2
-20 -8 -76 -71 0 9 -6 -4
-19 -10 -57 -57 -11 0 -10 -7
-19 -12 -37 -44 -20 -9 -14 -10
-18 -13 -25 -33 -25 -14 -17 -12
-16 -13 -20 -27 -23 -14 -17 -12
-15 -13 -15 -21 -21 -14 -17 -12
-14 -12 -10 -15 -18 -14 -17 -12
-12 -12 -5 -9 -16 -14 -17 -12
-11 -11 -2 -5 -14 -14 -18 -11
-11 -12 -2 -5 -15 -16 -20 -13
-11 -12 -2 -5 -16 -17 -21 -15
-10 -13 -2 -5 -18 -18 -22 -17
-10 -14 -2 -5 -19 -20 -24 -19
-9 -15 0 -4 -20 -21 -25 -20
-9 -15 1 -3 -20 -21 -25 -19
-10 -16 2 -2 -20 -21 -24 -18
-11 -17 4 1 -20 -21 -23 -17
-11 -17 5 2 -20 -21 -23 -16
-12 -18 6 3 -19 -22 -22 -15
-12 -18 6 3 -19 -22 -22 -15
-12 -18 6 3 -19 -22 -22 -15
-12 -18 6 3 -19 -22 -22 -15
-12 -18 6 3 -19 -22 -22 -15
-11 -19 7 4 -20 -23 -23 -16
-10 -19 7 4 -20 -23 -23 -16
-10 -19 7 4 -20 -23 -23 -16
-9 -20 7 5 -20 -23 -23 -17
-8 -20 7 5 -20 -23 -23 -17
-7 -21 7 6 -20 -22 -24 -18
-7 -21 7 6 -20 -22 -24 -18
-7 -20 7 6 -20 -22 -24 -18
-7 -19 7 6 -20 -22 -24 -18
-7 -19 7 6 -20 -22 -24 -18
-8 -18 8 6 -20 -23 -23 -17
-7 -18 8 6 -20 -23 -23 -17
-7 -18 8 6 -20 -23 -23 -17
-6 -18 8 6 -21 -23 -24 -18
-5 -18 8 6 -21 -23 -24 -18
-4 -19 7 5 -22 -24 -25 -19
-6 -19 7 6 -21 -24 -25 -19
-7 -19 8 7 -21 -24 -25 -19
-8 -19 9 8 -20 -23 -25 -19
-10 -19 9 9 -19 -23 -25 -19
-11 -20 10 10 -18 -22 -24 -19
-9 -20 9 10 -18 -22 -24 -19
-7 -20 9 10 -18 -22 -24 -19
-5 -20 8 10 -19 -22 -24 -18
-3 -20 7 10 -19 -22 -24 -18
0 -19 6 10 -20 -22 -25 -17
0 -19 6 11 -19 -21 -25 -17
-2 -19 6 11 -18 -21 -24 -17
-3 -19 6 12 -17 -20 -23 -16
-3 -19 6 13 -16 -19 -23 -16
-4 -19 7 14 -15 -18 -22 -15
-4 -19 7 15 -15 -18 -21 -14
-4 -19 7 15 -15 -18 -21 -14
-4 -19 8 16 -15 -18 -20 -13
-4 -19 8 17 -15 -18 -19 -12
-4 -20 9 18 -14 -17 -18 -11
-3 -20 9 18 -14 -17 -18 -11
-2 -20 9 18 -14 -17 -18 -11
0 -20 8 18 -14 -17 -18 -12
1 -20 8 18 -14 -17 -18 -12
2 -20 7 19 -13 -16 -19 -13
2 -20 7 20 -13 -15 -18 -12
2 -20 7 21 -13 -15 -17 -11
3 -19 7 22 -13 -14 -16 -10
3 -19 7 23 -13 -13 -15 -9
4 -18 7 24 -12 -12 -14 -8
4 -18 7 24 -11 -12 -14 -8
4 -18 7 24 -10 -12 -14 -8
3 -17 7 25 -9 -11 -13 -9
3 -17 7 25 -8 -11 -13 -9
2 -16 6 26 -7 -10 -12 -10
3 -16 6 27 -7 -10 -12 -9
3 -16 6 28 -7 -9 -11 -8
4 -16 5 29 -6 -8 -10 -6
5 -16 5 30 -6 -8 -10 -5
6 -15 4 31 -5 -7 -9 -4
7 -15 4 31 -4 -6 -9 -4
8 -15 3 32 -2 -4 -9 -4
10 -15 2 33 0 -3 -8 -4
11 -15 2 33 2 0 -8 -4
12 -14 1 34 3 1 -7 -4
13 -14 0 35 3 2 -6 -3
15 -14 -2 36 3 2 -6 -3
16 -14 -4 37 4 3 -5 -2
18 -14 -5 38 4 4 -4 0
19 -13 -6 39 5 5 -3 1
19 -12 -6 40 7 7 0 2
19 -11 -6 42 9 8 2 3
19 -10 -7 43 11 10 4 4
19 -9 -7 44 12 12 5 5
21 -8 -8 45 14 13 7 6
23 -7 -10 45 14 14 8 8
26 -7 -12 45 15 14 9 9
29 -6 -14 45 16 15 11 11
32 -5 -15 45 16 16 12 13
34 -4 -17 46 17 17 13 14
34 -2 -17 46 18 18 13 16
34 0 -17 46 19 19 14 17
34 2 -18 46 21 20 15 19
34 4 -18 46 22 21 15 21
34 5 -19 45 23 22 16 22
34 5 -19 45 24 23 19 23
34 6 -19 45 24 24 21 24
33 7 -20 45 25 25 23 26
33 7 -20 45 26 26 25 27
32 8 -21 45 27 27 27 28
33 9 -21 44 27 28 28 29
34 11 -22 44 28 28 29 30
35 12 -23 43 29 29 30 32
36 14 -23 42 29 30 31 33
37 15 -24 40 30 31 32 34
37 15 -24 40 30 31 33 35
37 15 -24 39 30 31 33 35
37 16 -24 38 30 31 34 36
37 16 -24 38 30 31 35 37
37 17 -25 37 31 32 36 38
37 17 -24 37 31 32 36 38
37 18 -23 37 31 32 36 38
37 19 -21 37 30 32 36 37
37 19 -20 37 30 32 36 37
36 20 -19 38 29 33 35 36
35 20 -18 36 28 32 34 34
34 20 -16 35 27 31 33 33
33 20 -15 33 26 29 31 31
32 20 -13 31 25 28 30 29
31 19 -11 30 24 27 29 28
28 19 -9 30 24 26 28 28
26 19 -6 30 24 26 28 28
24 19 -3 30 24 25 27 27
22 19 1 30 24 24 26 27
20 20 3 30 23 23 25 26
17 18 4 28 22 20 22 23
15 17 5 26 20 18 20 21
12 15 6 24 19 16 17 18
10 14 7 22 17 14 15 16
8 12 8 20 16 12 13 14
7 12 9 19 14 10 12 13
6 12 10 17 12 9 10 11
5 11 11 16 10 7 9 10
4 11 12 14 8 6 7 8
3 10 13 13 6 4 6 7
2 9 13 13 6 4 6 7
0 9 13 12 6 3 6 6
-2 8 14 11 5 2 5 5
-4 7 14 11 5 2 5 5
-5 6 15 10 4 1 4 4
-5 5 15 8 2 0 3 4
-5 5 14 6 1 -2 1 3
-5 4 13 4 -2 -4 0 2
-5 3 13 2 -3 -5 -3 2
-6 2 12 0 -5 -6 -4 1
-6 2 12 0 -5 -6 -4 1
-6 1 12 0 -5 -6 -4 0
-7 0 12 1 -5 -6 -4 -2
-7 0 12 1 -5 -6 -4 -2
-8 -2 12 2 -5 -7 -5 -3
-8 -2 12 2 -5 -7 -5 -3
-9 -2 12 2 -5 -7 -5 -3
-10 -2 12 2 -5 -7 -5 -2
-10 -2 12 2 -5 -7 -5 -2
-11 -2 12 1 -5 -7 -4 0
-11 -2 12 1 -5 -7 -4 -2
-10 -2 12 1 -5 -8 -5 -3
-9 -2 12 1 -5 -9 -6 -5
-9 -2 12 1 -5 -9 -6 -6
-8 0 11 1 -6 -10 -7 -7
-8 0 12 1 -5 -9 -7 -6
-8 0 12 1 -5 -8 -7 -6
-8 0 13 2 -4 -7 -7 -5
-8 0 14 2 -3 -6 -7 -4
-8 -2 15 3 -2 -5 -6 -3
-8 -2 15 3 -2 -5 -6 -4
-7 -2 15 4 -2 -5 -6 -4
-6 0 15 5 -2 -5 -6 -5
-6 0 15 5 -2 -5 -6 -6
-5 1 15 6 0 -4 -5 -7
-5 1 15 6 0 -4 -5 -7
-6 0 15 6 1 -4 -5 -6
-7 -2 15 7 2 -4 -4 -5
-7 -2 15 7 2 -4 -4 -5
-8 -3 15 8 3 -3 -3 -4
-8 -3 15 8 3 -3 -3 -4
-8 -3 15 8 3 -3 -3 -4
-9 -2 15 9 3 -3 -3 -3
-9 -2 15 9 3 -3 -3 -3
-10 0 15 10 4 -3 -3 -2
-9 0 15 10 3 -3 -3 -3
-7 0 15 10 2 -3 -3 -4
-6 0 15 10 1 -4 -3 -5
-4 0 15 10 0 -4 -3 -6
-3 -2 14 9 -2 -5 -4 -7
-3 0 14 9 -2 -5 -4 -7
-4 0 14 9 -2 -5 -4 -6
-4 1 14 9 0 -5 -4 -6
-5 2 14 9 0 -5 -4 -5
-6 3 14 10 1 -5 -5 -4
-6 2 14 10 1 -5 -5 -4
-6 1 14 10 1 -5 -5 -4
-6 0 14 9 1 -5 -5 -4
-6 -2 14 9 1 -5 -5 -4
-7 -3 15 8 0 -6 -6 -5
-7 -3 15 8 0 -6 -6 -5
-6 -3 15 8 0 -6 -6 -5
-6 -3 15 8 0 -6 -5 -5
-5 -3 15 8 0 -6 -5 -5
-4 -4 14 7 -2 -5 -4 -5
-5 -4 14 7 -2 -5 -4 -5
-6 -4 14 7 -2 -5 -4 -5
-7 -4 15 7 -2 -5 -4 -4
-9 -4 15 7 -2 -5 -4 -4
-10 -4 16 7 0 -5 -3 -3
-10 -4 15 7 -2 -5 -3 -4
-10 -4 15 6 -3 -6 -3 -5
-10 -4 14 6 -4 -6 -3 -6
-10 -4 13 5 -5 -7 -3 -8
-10 -5 12 4 -6 -8 -3 -9
-10 -5 12 4 -6 -8 -3 -9
-9 -4 12 3 -6 -8 -3 -9
-9 -4 12 3 -6 -8 -4 -9
-8 -3 12 2 -6 -8 -4 -9
-7 -2 12 1 -6 -8 -5 -8
-7 -3 12 1 -6 -8 -5 -8
-7 -3 12 1 -6 -8 -5 -8
-8 -4 12 1 -6 -8 -5 -8
-8 -5 12 1 -6 -8 -5 -8
-9 -6 12 1 -7 -8 -6 -8
-9 -5 12 1 -7 -8 -6 -8
-9 -5 12 1 -7 -8 -6 -8
-10 -4 12 1 -7 -8 -6 -8
-10 -3 12 1 -7 -8 -6 -8
-11 -2 12 2 -8 -9 -7 -9
-11 -2 12 1 -9 -9 -8 -10
-10 -3 12 1 -9 -9 -9 -11
-10 -3 12 0 -10 -10 -10 -12
-9 -4 12 -2 -11 -10 -11 -13
-8 -5 12 -3 -12 -11 -12 -14
-9 -5 12 -3 -12 -11 -12 -13
-9 -5 12 -3 -12 -11 -12 -12
-10 -5 12 -3 -11 -11 -11 -11
-11 -5 12 -3 -11 -11 -11 -10
-12 -6 12 -2 -10 -10 -10 -9
-12 -6 12 -2 -10 -10 -10 -10
-12 -6 12 -2 -10 -11 -10 -11
-12 -6 12 -2 -10 -11 -10 -12
-12 -6 12 -2 -10 -12 -10 -13
-12 -7 12 -2 -11 -13 -11 -14
-12 -7 12 -2 -11 -13 -11 -14
-12 -7 12 -2 -11 -13 -12 -14
-12 -7 12 -3 -12 -14 -12 -13
-12 -7 12 -3 -12 -14 -13 -13
-11 -6 11 -4 -13 -15 -14 -12
-10 -6 11 -4 -13 -15 -14 -12
-10 -6 11 -4 -13 -15 -14 -12
-9 -6 11 -4 -13 -14 -14 -13
-8 -6 11 -4 -13 -14 -14 -13
-7 -7 12 -3 -14 -13 -13 -14
-8 -6 12 -2 -13 -12 -11 -12
-8 -4 13 0 -11 -10 -10 -11
-9 -3 13 1 -10 -9 -8 -9
-10 -2 14 2 -9 -8 -7 -8
-11 1 15 3 -7 -6 -5 -6
-10 1 15 3 -7 -6 -6 -7
-10 1 16 3 -7 -7 -6 -7
-9 1 16 2 -7 -7 -7 -8
-8 1 17 2 -7 -8 -8 -9
-7 1 18 1 -8 -9 -9 -10
-7 2 19 2 -7 -8 -8 -10
-8 2 20 3 -6 -7 -7 -9
-8 3 21 4 -5 -6 -6 -9
-9 4 22 5 -4 -5 -5 -8
-10 5 23 6 -3 -4 -4 -7
-8 8 22 7 -2 -3 -3 -5
-7 10 20 7 0 -2 -2 -4
-5 12 19 8 1 0 0 -2
-4 15 18 9 2 1 1 0
-2 17 16 10 3 2 2 2
0 19 16 10 3 2 2 2
2 20 16 10 3 2 3 2
3 22 16 11 4 3 3 2
4 23 16 11 4 3 4 2
6 25 17 12 5 4 5 2
6 23 16 12 5 4 4 2
6 21 15 11 4 4 4 2
6 19 14 11 4 3 3 1
6 17 13 10 3 3 2 1
5 15 12 9 2 2 1 0
4 13 12 9 1 1 0 0
2 11 12 8 0 0 -2 0
1 8 12 8 -2 -2 -3 -2
0 6 12 7 -3 -4 -4 -2
-3 4 12 6 -4 -5 -5 -3
-3 3 12 5 -5 -6 -6 -5
-4 2 11 3 -7 -7 -7 -7
-5 1 11 2 -8 -8 -8 -9
-6 -2 10 1 -9 -9 -9 -11
-7 -3 9 -2 -11 -10 -10 -13
-8 -4 9 -2 -11 -10 -10 -13
-9 -5 9 -2 -11 -10 -11 -13
-10 -6 9 -3 -11 -11 -11 -13
-11 -8 9 -3 -11 -11 -12 -13
-12 -9 9 -4 -12 -12 -13 -14
-12 -9 9 -4 -12 -12 -13 -14
-12 -9 9 -4 -12 -12 -13 -14
-12 -9 9 -4 -13 -12 -13 -14
-12 -9 9 -4 -13 -12 -13 -14
-12 -9 10 -5 -14 -13 -14 -14
-12 -9 10 -5 -14 -13 -14 -14
-12 -9 10 -5 -14 -13 -14 -14
-12 -9 10 -5 -14 -13 -14 -14
-12 -9 10 -5 -14 -13 -14 -14
-13 -10 9 -5 -13 -14 -15 -14
-13 -10 9 -5 -13 -14 -15 -14
-14 -10 9 -5 -13 -14 -15 -15
-15 -10 9 -5 -13 -14 -15 -15
-16 -10 9 -5 -13 -14 -15 -16
-17 -10 8 -6 -13 -13 -14 -17
-17 -10 8 -6 -13 -13 -14 -17
-16 -10 8 -6 -13 -13 -14 -16
-16 -9 8 -6 -13 -13 -13 -16
-15 -9 8 -6 -13 -13 -13 -15
-14 -8 8 -6 -12 -14 -12 -14
-14 -8 8 -6 -12 -14 -12 -14
-15 -8 8 -6 -12 -14 -12 -14
-16 -8 8 -6 -12 -14 -13 -14
-17 -8 8 -6 -12 -14 -13 -14
-18 -9 7 -5 -11 -13 -14 -13
-16 -9 7 -3 -11 -13 -14 -13
-13 -10 8 0 -10 -13 -14 -14
-11 -11 9 3 -10 -13 -14 -14
-8 -12 10 5 -9 -13 -14 -15
-6 -13 11 4 -8 -13 -15 -16
-5 -10 11 -16 -13 -15 -15 -16
-3 -7 11 -35 -17 -17 -15 -16
-2 -5 11 -54 -22 -19 -16 -16
0 -2 11 -73 -26 -21 -16 -16
2 5 11 -96 -30 -23 -16 -15
2 22 3 -134 -34 -20 -7 0
1 39 -6 -171 -38 -17 2 14
0 58 -14 -208 -43 -15 11 27
-2 75 -22 -245 -47 -12 20 42
-3 92 -34 -276 -47 -4 31 56
-3 102 -60 -272 -24 22 53 74
-3 112 -87 -268 -2 48 74 92
-3 122 -113 -264 22 73 96 110
-3 133 -139 -261 45 99 117 128
-2 139 -161 -253 65 121 135 142
2 121 -170 -228 80 128 132 134
4 105 -178 -203 96 135 130 126
7 88 -186 -179 111 142 127 118
9 70 -194 -154 127 148 125 110
11 54 -196 -132 134 149 116 99
2 38 -169 -118 105 117 91 76
-8 24 -142 -105 76 87 64 53
-17 10 -114 -91 47 56 37 30
-25 -5 -87 -77 18 25 11 8
-33 -17 -62 -64 -6 0 -11 -12
-29 -17 -50 -53 -6 -3 -11 -12
-26 -17 -38 -41 -6 -5 -11 -12
-22 -17 -26 -30 -6 -8 -11 -12
-18 -17 -14 -19 -6 -10 -11 -12
-15 -17 -4 -10 -7 -12 -10 -13
-15 -17 -3 -9 -7 -12 -10 -13
-15 -17 0 -7 -8 -12 -11 -14
-14 -17 1 -6 -8 -13 -12 -15
-14 -17 2 -5 -9 -13 -13 -16
-13 -16 4 -3 -10 -14 -14 -17
-13 -16 4 -3 -10 -15 -15 -17
-13 -17 5 -3 -11 -17 -16 -18
-13 -18 6 -3 -12 -18 -17 -18
-13 -19 7 -3 -13 -19 -18 -19
-12 -20 8 -2 -14 -21 -19 -20
-12 -20 8 0 -14 -21 -19 -20
-13 -20 8 1 -14 -21 -19 -20
-13 -21 8 2 -14 -20 -18 -19
-14 -21 8 4 -14 -20 -18 -19
-15 -22 9 5 -13 -19 -17 -18
-15 -22 9 5 -13 -19 -18 -18
-14 -22 9 5 -14 -20 -19 -19
-13 -22 9 4 -14 -21 -20 -20
-12 -22 9 4 -15 -22 -21 -21
-11 -22 10 3 -16 -23 -22 -22
-11 -22 10 3 -16 -23 -22 -22
-11 -22 10 3 -16 -23 -22 -21
-11 -23 10 4 -16 -22 -21 -21
-11 -23 10 4 -16 -22 -21 -20
-10 -24 10 5 -15 -21 -20 -19
-10 -24 10 5 -15 -21 -20 -19
-10 -24 10 5 -15 -21 -20 -19
-10 -23 10 6 -15 -21 -19 -19
-10 -23 10 6 -15 -21 -19 -19
-9 -22 9 7 -14 -20 -18 -18
-9 -22 9 7 -14 -20 -18 -18
-9 -22 9 8 -14 -20 -18 -18
-9 -23 10 8 -14 -20 -18 -18
-9 -23 10 9 -14 -20 -18 -18
-10 -24 11 10 -13 -19 -17 -17
-10 -24 11 10 -13 -19 -17 -18
-9 -24 11 10 -13 -19 -17 -19
-9 -23 11 10 -13 -19 -18 -20
-8 -23 11 10 -13 -19 -18 -21
-7 -22 10 9 -14 -20 -19 -22
-7 -22 10 9 -13 -20 -19 -21
-7 -22 10 9 -12 -20 -18 -20
-7 -22 10 10 -11 -20 -18 -19
-7 -22 10 10 -10 -20 -17 -18
-8 -22 9 11 -9 -19 -16 -16
-8 -22 9 11 -9 -19 -16 -16
-8 -22 9 11 -9 -19 -16 -16
-8 -22 9 12 -9 -19 -17 -17
-8 -22 9 12 -9 -19 -17 -17
-8 -21 9 13 -10 -19 -18 -18
-7 -21 9 13 -10 -19 -18 -18
-5 -21 8 13 -10 -19 -18 -18
-3 -21 8 14 -10 -19 -18 -18
-2 -21 7 14 -10 -19 -18 -18
1 -20 6 15 -10 -19 -18 -17
0 -20 6 16 -9 -19 -17 -17
-2 -20 7 17 -8 -18 -16 -17
-3 -20 7 18 -7 -17 -15 -16
-4 -20 8 19 -6 -16 -14 -16
-5 -20 9 20 -5 -15 -12 -15
-3 -20 9 20 -5 -15 -12 -15
-2 -20 9 21 -5 -15 -12 -15
1 -20 9 22 -5 -15 -12 -15
3 -20 9 23 -5 -15 -12 -15
5 -20 8 24 -6 -16 -12 -14
5 -20 8 24 -6 -16 -11 -14
5 -19 8 25 -5 -16 -10 -13
5 -19 8 26 -5 -15 -9 -12
5 -18 8 27 -4 -15 -8 -11
6 -17 9 28 -3 -14 -7 -10
6 -17 8 29 -3 -13 -6 -10
6 -17 7 30 -2 -12 -4 -10
6 -17 6 31 0 -11 -2 -9
6 -17 5 32 1 -10 0 -9
5 -17 4 33 2 -8 2 -8
7 -17 3 33 2 -7 2 -7
9 -17 2 33 3 -6 2 -6
11 -17 1 33 4 -5 2 -4
13 -17 0 33 5 -4 2 -3
15 -17 -2 34 6 -2 3 0
16 -16 -2 35 7 -2 4 1
17 -15 -3 36 8 0 5 2
18 -14 -4 37 9 0 7 3
19 -13 -5 38 10 1 8 4
20 -12 -6 39 11 2 10 5
20 -12 -6 39 12 3 11 6
21 -12 -7 39 13 5 12 7
22 -12 -8 40 14 6 13 8
23 -12 -9 40 15 8 14 9
24 -12 -10 42 16 10 15 11
26 -10 -11 42 17 11 16 12
28 -8 -13 42 18 12 17 13
30 -6 -14 42 19 13 19 14
32 -4 -16 42 20 14 20 15
34 -2 -18 40 21 16 22 17
34 0 -18 40 22 17 23 18
34 2 -18 40 23 18 24 19
33 3 -19 40 24 20 25 21
33 5 -19 40 25 21 26 22
32 7 -20 40 27 23 28 24
32 7 -20 40 27 23 28 24
33 7 -21 40 27 24 29 25
33 7 -21 39 27 24 29 26
34 7 -22 39 27 25 30 27
35 8 -23 38 27 26 31 28
35 9 -23 38 27 26 32 28
35 10 -23 37 27 27 33 29
35 12 -23 37 28 27 34 30
35 13 -23 36 28 28 35 31
36 15 -24 35 29 29 36 32
36 15 -24 35 29 29 36 32
36 15 -24 35 29 30 37 33
36 15 -24 35 28 30 37 34
36 15 -24 35 28 31 38 35
37 14 -23 35 27 32 39 36
37 14 -22 35 27 32 39 36
36 15 -21 34 27 32 38 35
35 16 -19 34 27 32 38 34
34 17 -18 33 27 32 37 33
33 18 -16 32 26 31 36 32
32 18 -14 32 26 30 36 32
31 18 -12 31 26 29 36 31
29 18 -10 31 26 28 36 31
28 18 -8 30 26 27 36 30
26 17 -6 29 26 26 35 29
24 17 -5 28 26 24 33 27
22 17 -3 27 25 22 31 24
20 16 0 26 24 20 29 22
18 16 2 25 23 18 27 20
15 15 4 24 22 16 24 17
14 14 5 24 21 15 23 15
13 13 6 23 19 14 21 13
11 12 8 22 18 13 19 11
10 11 9 21 16 12 17 9
8 10 11 20 14 11 15 6
6 10 12 19 14 12 14 6
4 9 13 18 14 13 13 6
2 9 15 17 14 14 12 5
0 8 16 16 14 15 11 5
-4 7 18 15 13 16 10 4
-4 6 18 14 12 15 9 4
-4 5 17 13 10 14 8 3
-4 3 17 12 9 12 6 3
-4 2 16 11 7 11 5 2
-3 0 15 9 5 9 3 1
-3 0 15 9 5 9 3 1
-4 0 15 8 5 8 2 0
-5 1 15 7 4 7 1 0
-6 1 15 6 4 6 0 -2
-7 2 16 5 3 5 -2 -3
-7 2 16 5 3 5 -2 -3
-8 1 17 6 3 5 0 -3
-9 1 17 7 4 6 0 -3
-10 0 18 8 4 6 1 -3
-11 -2 19 9 5 7 2 -2
-11 -2 19 9 5 7 2 -2
-11 -2 19 9 5 7 2 -2
-11 -2 19 9 5 6 2 -3
-11 -2 19 9 5 6 2 -3
-11 -2 19 8 4 5 1 -4
-11 -2 19 8 4 5 1 -4
-10 -2 19 9 4 4 1 -5
-10 0 19 10 4 4 0 -5
-9 0 19 11 4 3 0 -6
-8 1 18 12 5 2 -2 -7
-8 1 18 12 5 2 -2 -7
-8 1 18 12 5 2 -2 -7
-8 1 18 11 5 2 -2 -7
-8 1 18 11 5 2 -2 -7
-9 2 18 10 5 2 -3 -6
-9 2 18 10 5 2 -3 -6
-9 2 18 11 6 3 -2 -6
-9 1 18 12 7 4 0 -6
-9 1 18 13 8 5 1 -6
-10 0 19 14 9 6 2 -6
-10 0 19 14 9 6 2 -6
-10 0 19 14 9 6 2 -5
-10 0 19 14 9 6 1 -5
-10 0 19 14 9 6 1 -4
-10 0 18 15 8 5 0 -3
-9 0 18 15 8 5 0 -3
-8 0 18 15 8 4 0 -4
-7 0 18 14 8 4 0 -4
-6 0 18 14 8 3 0 -5
-5 -2 17 13 7 2 0 -6
-5 -2 17 13 7 2 0 -6
-5 0 17 13 7 2 0 -5
-6 1 18 14 8 3 1 -4
-6 2 18 14 8 3 1 -3
-7 3 19 15 9 4 2 -2
-7 2 19 15 9 4 2 -2
-7 1 19 15 8 3 2 -3
-8 0 19 14 8 3 2 -3
-8 -2 19 14 7 2 2 -4
-9 -3 19 13 6 1 1 -5
-9 -3 19 13 6 1 1 -5
-9 -3 19 13 6 1 1 -5
-10 -3 19 13 6 1 1 -5
-10 -3 19 13 6 1 1 -5
-11 -3 20 13 6 1 2 -4
-11 -3 20 13 6 1 2 -4
-10 -3 20 13 5 1 2 -4
-9 -3 19 12 5 0 2 -4
-8 -3 19 12 4 0 2 -4
-7 -4 18 11 3 -2 1 -5
-7 -4 18 11 3 -2 1 -5
-7 -3 18 11 3 -2 0 -6
-7 -3 18 10 2 -3 -2 -6
-7 -2 18 10 2 -3 -3 -7
-8 0 18 9 1 -4 -4 -8
-8 0 18 9 1 -4 -4 -8
-8 0 17 9 0 -4 -4 -7
-8 -2 17 9 0 -4 -4 -7
-8 -2 16 9 -2 -4 -4 -6
-9 -3 15 8 -3 -4 -4 -5
-9 -3 15 8 -3 -4 -4 -5
-9 -3 15 8 -3 -4 -4 -5
-9 -3 16 8 -3 -4 -4 -5
-9 -3 16 8 -3 -4 -4 -5
-8 -3 17 7 -4 -5 -5 -4
-8 -3 17 7 -4 -5 -5 -4
-9 -3 17 7 -3 -4 -4 -4
-9 -3 18 8 -2 -4 -3 -4
-10 -3 18 8 0 -3 -2 -4
-11 -3 19 9 1 -2 0 -5
-11 -3 19 9 1 -2 0 -5
-11 -4 18 8 0 -3 -2 -5
-11 -4 18 7 0 -4 -3 -5
-11 -5 17 6 -2 -5 -4 -5
-12 -6 16 5 -3 -6 -5 -6
-12 -6 16 5 -3 -6 -5 -6
-12 -6 16 5 -3 -6 -5 -7
-12 -6 16 5 -3 -6 -6 -7
-12 -6 16 5 -3 -6 -6 -8
-11 -7 16 4 -4 -7 -7 -9
-11 -7 16 4 -4 -7 -7 -9
-12 -7 16 4 -4 -7 -7 -9
-12 -7 16 4 -4 -7 -7 -8
-13 -7 16 4 -4 -7 -7 -8
-13 -7 16 4 -4 -7 -7 -8
-14 -6 17 4 -5 -8 -6 -7
-13 -6 16 4 -5 -8 -6 -7
-13 -6 16 4 -6 -8 -7 -8
-12 -6 15 4 -6 -8 -7 -8
-12 -6 15 4 -6 -8 -7 -8
-11 -5 14 3 -7 -8 -8 -9
-11 -5 14 3 -7 -8 -8 -9
-11 -4 14 2 -7 -9 -8 -9
-11 -4 14 2 -7 -9 -8 -9
-11 -4 14 2 -7 -9 -8 -9
-10 -3 15 1 -8 -10 -9 -9
-9 -3 15 2 -8 -10 -9 -9
-9 -3 16 2 -7 -10 -9 -8
-8 -3 16 3 -7 -10 -9 -8
-8 -3 16 3 -7 -10 -9 -8
-7 -2 17 4 -6 -9 -8 -7
-8 -2 17 4 -6 -9 -8 -7
-8 -2 17 3 -6 -9 -8 -7
-9 -2 17 3 -6 -9 -8 -7
-9 -2 17 3 -6 -9 -8 -7
-10 0 18 2 -6 -9 -8 -8
-11 1 19 3 -5 -8 -7 -7
-11 2 20 4 -4 -7 -6 -7
-12 3 21 5 -3 -6 -5 -6
-12 4 22 6 -2 -5 -5 -6
-12 6 23 7 0 -4 -4 -5
-10 8 23 7 0 -4 -4 -5
-9 9 23 7 0 -4 -5 -5
-7 11 23 7 0 -4 -5 -5
-6 12 23 7 0 -4 -5 -5
-5 14 23 8 1 -4 -5 -3
-4 16 23 9 3 -2 -3 0
-3 18 22 11 4 0 -2 2
-2 20 22 12 6 2 1 4
0 21 22 13 7 3 2 6
2 22 21 14 8 4 3 7
4 23 21 15 9 5 4 7
6 24 21 15 9 5 4 7
8 25 21 16 10 6 5 7
10 25 21 16 10 6 5 7
10 26 20 17 10 6 6 8
9 25 19 16 9 5 5 7
7 24 18 16 8 4 4 7
6 23 17 15 7 3 3 6
5 22 17 15 6 2 3 6
4 19 16 13 4 1 2 5
3 17 15 12 3 0 1 4
3 15 15 11 2 0 0 3
2 13 14 10 1 -2 -2 2
2 11 14 9 0 -2 -3 1
0 9 13 8 -2 -3 -4 0
-2 8 13 8 -3 -4 -5 0
-3 6 13 7 -3 -5 -5 -2
-4 5 13 7 -4 -6 -6 -2
-5 4 13 7 -4 -6 -6 -2
-7 2 14 5 -5 -8 -8 -4
-9 0 13 3 -6 -10 -10 -6
-11 -3 13 2 -7 -11 -12 -8
-13 -5 12 0 -8 -13 -14 -10
-14 -7 12 -2 -9 -14 -15 -11
-15 -8 11 -3 -10 -15 -16 -12
-15 -8 11 -3 -11 -15 -16 -12
-15 -8 11 -3 -11 -15 -16 -12
-15 -8 11 -3 -12 -15 -16 -12
-15 -8 11 -3 -12 -15 -16 -12
-14 -7 10 -3 -13 -16 -16 -12
-14 -7 10 -3 -13 -16 -16 -12
-14 -6 10 -3 -13 -16 -16 -11
-14 -6 10 -3 -13 -16 -16 -11
-14 -6 10 -3 -13 -16 -16 -11
-14 -6 10 -4 -14 -16 -16 -10
-14 -7 10 -4 -14 -16 -16 -10
-14 -8 10 -3 -13 -16 -16 -10
-14 -9 10 -3 -13 -16 -16 -10
-14 -10 10 -3 -13 -16 -16 -10
-13 -11 10 -2 -12 -15 -16 -9
-13 -10 10 -2 -12 -15 -16 -10
-13 -9 10 -3 -12 -15 -16 -10
-13 -8 10 -3 -12 -15 -16 -11
-13 -8 10 -3 -12 -15 -16 -11
-14 -7 10 -4 -11 -15 -15 -12
-13 -7 9 -4 -11 -15 -15 -12
-13 -7 8 -4 -11 -15 -15 -12
-12 -7 7 -4 -11 -15 -15 -12
-12 -7 7 -4 -11 -15 -15 -12
-11 -6 6 -2 -12 -16 -15 -12
-11 -7 6 1 -11 -16 -15 -12
-11 -8 6 3 -10 -16 -15 -12
-11 -9 6 5 -9 -16 -15 -12
-11 -10 6 7 -9 -16 -15 -12
-8 -10 7 -5 -11 -17 -17 -12
-5 -9 8 -19 -15 -19 -18 -12
-2 -7 9 -33 -19 -22 -19 -13
3 -6 10 -48 -22 -24 -20 -13
6 -5 10 -61 -26 -26 -21 -13
7 12 8 -95 -29 -24 -14 -3
6 28 4 -130 -31 -20 -5 11
6 45 0 -164 -33 -16 5 24
5 62 -4 -199 -35 -12 14 37
5 78 -8 -234 -37 -8 23 51
4 92 -29 -238 -22 14 42 68
4 105 -53 -240 -4 36 61 85
4 118 -76 -242 16 59 80 102
4 132 -100 -244 34 81 101 118
4 145 -123 -246 53 105 120 136
7 133 -138 -227 72 116 123 134
10 116 -151 -203 92 128 125 130
13 100 -164 -181 111 138 126 126
15 84 -178 -157 132 149 127 120
18 67 -191 -135 151 160 128 116
11 51 -172 -120 127 133 103 93
3 34 -147 -108 97 101 74 67
-7 19 -123 -95 67 69 47 42
-16 3 -99 -82 36 37 18 16
-25 -14 -75 -70 7 6 -11 -10
-25 -16 -61 -59 2 1 -14 -13
-23 -16 -48 -48 -3 -4 -14 -13
-21 -16 -34 -36 -6 -7 -15 -12
-19 -16 -22 -25 -9 -10 -15 -12
-17 -16 -9 -14 -12 -13 -15 -12
-16 -15 -6 -11 -13 -14 -16 -11
-16 -15 -5 -9 -13 -15 -17 -12
-15 -15 -3 -7 -13 -15 -17 -13
-15 -15 -2 -5 -13 -16 -18 -14
-15 -15 0 -4 -13 -16 -18 -14
-14 -16 2 -3 -12 -17 -19 -15
-14 -17 3 -3 -13 -18 -20 -15
-15 -17 4 -3 -13 -18 -20 -15
-15 -18 5 -3 -14 -19 -21 -15
-15 -18 6 -3 -14 -19 -21 -15
-15 -19 7 0 -15 -20 -22 -16
-13 -19 7 2 -15 -20 -22 -16
-12 -18 8 3 -15 -20 -22 -16
-10 -18 8 5 -15 -20 -22 -16
-9 -18 8 6 -15 -20 -22 -16
-9 -18 9 6 -14 -20 -22 -17
-11 -20 9 5 -15 -21 -23 -18
-12 -21 8 4 -16 -23 -24 -19
-14 -23 8 3 -17 -24 -25 -20
-15 -24 8 2 -18 -25 -26 -21
-14 -24 7 1 -19 -26 -27 -22
-12 -23 7 2 -19 -26 -26 -22
-10 -22 7 2 -19 -25 -25 -21
-7 -21 7 3 -19 -25 -24 -21
-5 -20 7 3 -19 -25 -24 -21
-6 -19 7 4 -19 -24 -23 -20
-8 -19 8 5 -18 -23 -22 -19
-10 -19 8 6 -17 -23 -22 -18
-13 -19 9 7 -16 -22 -21 -17
-15 -19 9 8 -15 -22 -21 -16
-14 -20 10 9 -14 -21 -20 -15
-12 -19 10 9 -14 -21 -20 -15
-9 -18 9 10 -14 -21 -20 -15
-6 -17 9 10 -14 -21 -20 -15
-4 -17 9 10 -14 -21 -20 -15
-3 -16 8 11 -15 -20 -19 -15
-4 -17 8 11 -15 -20 -19 -15
-5 -17 8 10 -15 -20 -20 -15
-6 -18 8 10 -15 -20 -20 -15
-6 -18 8 10 -15 -20 -20 -15
-7 -19 7 9 -14 -21 -21 -16
-6 -19 7 10 -14 -20 -20 -16
-5 -19 7 11 -13 -19 -19 -16
-4 -19 7 12 -13 -18 -18 -16
-4 -19 7 12 -13 -18 -17 -16
-4 -21 8 13 -12 -17 -16 -15
-6 -22 8 13 -12 -17 -17 -15
-8 -24 8 13 -12 -18 -18 -15
-9 -25 8 13 -12 -18 -19 -15
-11 -26 8 13 -12 -18 -20 -15
-11 -26 8 12 -12 -19 -21 -16
-8 -24 7 12 -12 -19 -20 -16
-6 -22 7 13 -12 -19 -20 -16
-4 -21 6 13 -12 -19 -19 -16
-2 -19 6 13 -12 -19 -19 -16
0 -18 5 14 -12 -19 -18 -15
-2 -19 5 14 -12 -19 -18 -15
-3 -20 5 14 -12 -18 -18 -15
-4 -21 5 14 -12 -18 -18 -15
-4 -21 5 14 -12 -18 -18 -15
-4 -21 5 16 -11 -17 -17 -15
-3 -20 5 18 -10 -16 -16 -14
-2 -19 5 20 -10 -15 -15 -14
1 -17 5 21 -9 -14 -14 -13
2 -16 5 23 -9 -14 -13 -13
3 -15 5 24 -8 -13 -12 -12
3 -16 5 24 -8 -13 -12 -12
2 -17 4 24 -7 -13 -13 -12
2 -18 4 24 -7 -13 -13 -12
2 -19 4 24 -7 -13 -13 -12
1 -20 3 24 -5 -13 -13 -11
2 -19 3 25 -4 -11 -10 -9
2 -18 3 27 -3 -9 -8 -7
3 -17 3 29 -2 -8 -6 -6
3 -17 3 30 0 -6 -4 -4
6 -16 1 31 1 -5 -3 -3
9 -15 0 31 1 -5 -3 -3
11 -14 -2 30 0 -5 -2 -3
14 -13 -4 30 0 -5 -2 -3
17 -13 -5 30 0 -5 -2 -3
18 -12 -6 29 -2 -4 0 -2
18 -12 -7 30 0 -3 1 0
18 -12 -7 31 1 0 2 1
18 -12 -8 32 2 2 3 2
18 -12 -8 33 2 3 4 2
18 -11 -9 34 4 4 5 4
21 -10 -10 34 5 5 6 5
23 -9 -11 34 6 6 7 6
26 -8 -12 34 8 7 8 8
28 -8 -13 34 9 8 9 9
29 -7 -14 35 10 9 10 10
29 -7 -15 35 10 10 12 11
28 -6 -16 35 10 11 13 12
28 -6 -17 35 10 12 14 13
28 -6 -18 35 10 12 15 14
28 -4 -19 36 11 13 16 15
29 -3 -20 35 12 14 17 17
31 -2 -21 34 12 15 18 18
33 1 -22 33 13 16 19 19
34 2 -22 32 13 17 19 20
35 4 -23 31 14 19 21 22
37 5 -24 31 16 20 22 24
38 6 -24 31 17 21 23 26
39 8 -25 31 18 23 25 27
40 9 -25 31 19 24 26 29
42 10 -26 32 20 25 27 30
40 10 -26 31 20 26 28 30
40 11 -25 30 20 26 29 31
39 11 -25 29 20 27 30 31
39 11 -25 29 20 27 31 31
38 12 -24 28 21 28 32 32
38 12 -25 28 21 28 32 33
38 12 -25 28 20 29 33 33
38 12 -26 28 20 29 33 34
38 12 -26 28 20 29 33 34
37 13 -26 28 19 30 34 35
37 14 -25 28 19 29 34 35
37 16 -24 27 19 29 33 35
37 18 -22 27 19 28 33 35
37 19 -21 27 19 28 33 35
35 19 -19 26 19 27 31 33
33 18 -18 25 18 25 30 31
30 16 -17 25 17 24 28 29
28 14 -15 24 16 23 26 28
26 13 -14 24 15 22 25 26
25 13 -11 23 14 21 24 25
24 14 -8 23 14 21 23 24
23 16 -6 23 14 20 22 23
22 18 -3 23 14 20 21 22
22 19 1 23 14 20 21 21
18 18 3 23 14 18 19 19
15 15 4 22 13 17 17 17
11 12 5 21 12 15 15 15
7 8 7 20 11 13 13 14
3 5 8 19 10 12 11 12
2 4 9 18 9 11 10 10
3 5 10 17 8 10 9 9
3 6 11 16 8 10 8 8
4 7 12 15 7 9 7 6
4 7 13 15 7 9 7 5
5 7 14 14 6 8 6 4
3 6 14 13 5 6 4 3
2 5 14 13 4 5 3 2
1 3 14 12 3 4 2 1
0 2 14 12 3 3 1 1
-3 1 15 11 2 2 0 0
-4 1 16 11 2 1 0 -2
-5 1 17 11 2 1 -2 -2
-7 1 18 11 2 0 -2 -3
-8 1 18 11 2 0 -2 -3
-9 0 19 10 2 -2 -3 -4
-9 0 19 10 2 -2 -3 -4
-9 0 18 9 1 -2 -3 -4
-9 0 18 9 1 -2 -3 -4
-9 0 18 9 1 -2 -3 -4
-9 -2 17 8 0 -3 -4 -5
-8 -2 17 8 0 -3 -4 -5
-8 -3 17 8 0 -4 -4 -6
-7 -3 17 8 0 -4 -4 -6
-7 -3 17 8 0 -4 -4 -6
-7 -4 17 9 -2 -5 -5 -7
-9 -5 17 9 -2 -5 -5 -7
-11 -6 17 9 -2 -5 -4 -6
-13 -7 17 9 -2 -5 -4 -6
-15 -8 17 9 -2 -5 -4 -6
-15 -8 17 9 0 -4 -3 -5
-13 -7 17 9 0 -4 -3 -5
-12 -6 17 10 0 -4 -3 -5
-10 -4 17 10 0 -4 -3 -5
-8 -3 17 10 0 -4 -3 -5
-8 -2 16 11 0 -3 -4 -4
-10 -4 16 11 0 -3 -4 -4
-11 -5 16 11 1 -3 -4 -5
-13 -6 16 11 1 -3 -4 -5
-15 -7 16 11 1 -3 -4 -5
-15 -7 15 10 2 -4 -5 -6
-13 -5 15 10 2 -3 -5 -6
-11 -4 15 11 2 -3 -5 -6
-9 -2 15 11 2 -2 -5 -6
-7 1 15 11 2 -2 -5 -6
-6 1 16 12 3 0 -4 -5
-7 0 16 12 3 0 -4 -5
-8 -2 16 12 3 0 -4 -6
-9 -4 16 12 3 0 -4 -6
-9 -5 16 12 3 0 -4 -6
-10 -6 16 11 4 -2 -4 -7
-10 -5 16 12 4 0 -4 -5
-10 -5 17 12 4 0 -3 -4
-10 -4 17 13 4 1 -3 -3
-10 -4 17 13 4 1 -3 -2
-11 -4 18 14 5 2 -2 0
-12 -5 17 13 4 0 -3 -3
-13 -6 16 12 3 -2 -4 -4
-15 -8 16 12 2 -3 -4 -5
-16 -9 15 11 1 -4 -5 -6
-16 -9 14 10 0 -5 -6 -7
-14 -7 14 10 0 -5 -6 -7
-11 -5 15 10 0 -5 -6 -6
-9 -3 15 10 0 -5 -6 -6
-7 0 15 10 0 -5 -6 -6
-6 1 16 9 0 -4 -5 -5
-7 -2 15 9 0 -4 -5 -6
-8 -3 15 9 0 -5 -5 -6
-9 -4 14 9 0 -5 -5 -7
-10 -5 14 9 0 -5 -5 -7
-11 -6 13 8 -2 -6 -6 -8
-11 -6 13 7 -3 -6 -6 -8
-11 -6 14 7 -3 -7 -7 -8
-11 -6 14 6 -4 -7 -7 -8
-11 -6 14 6 -4 -7 -7 -8
-11 -5 15 5 -5 -8 -8 -8
-11 -5 14 5 -5 -8 -8 -7
-11 -6 13 5 -5 -8 -8 -7
-11 -6 13 5 -5 -8 -8 -6
-11 -6 12 5 -5 -8 -8 -6
-12 -7 11 4 -6 -9 -7 -6
-11 -6 11 4 -6 -9 -7 -7
-11 -5 11 4 -6 -9 -7 -8
-10 -5 11 4 -6 -9 -7 -10
-10 -4 11 4 -6 -9 -7 -11
-9 -3 12 3 -7 -9 -8 -12
-10 -3 12 3 -7 -9 -8 -12
-10 -3 11 3 -7 -9 -8 -12
-11 -3 11 3 -7 -9 -8 -12
-11 -3 11 3 -7 -9 -8 -12
-12 -4 10 4 -6 -10 -9 -12
-12 -5 10 2 -6 -10 -9 -12
-13 -6 10 1 -7 -11 -10 -12
-13 -7 10 0 -7 -11 -10 -12
-13 -8 10 -2 -7 -11 -10 -12
-14 -9 10 -3 -8 -12 -11 -12
-13 -9 10 -2 -8 -12 -11 -13
-13 -9 10 -2 -8 -12 -11 -13
-12 -9 10 0 -8 -12 -11 -14
-12 -9 10 0 -8 -12 -11 -14
-11 -8 10 1 -8 -11 -12 -15
-12 -8 10 1 -8 -11 -12 -14
-12 -8 11 1 -8 -11 -12 -13
-13 -8 11 1 -8 -11 -12 -13
-13 -8 11 1 -8 -11 -12 -12
-14 -9 12 0 -8 -11 -11 -11
-15 -9 12 0 -8 -11 -11 -11
-16 -10 12 0 -8 -12 -11 -11
-16 -10 12 0 -8 -12 -11 -11
-17 -10 12 0 -8 -12 -11 -11
-18 -11 11 0 -9 -13 -10 -11
-16 -10 10 0 -9 -13 -10 -11
-15 -9 10 -2 -9 -13 -11 -12
-14 -9 9 -2 -9 -13 -11 -12
-13 -8 9 -2 -9 -13 -11 -12
-12 -7 8 -3 -10 -13 -12 -13
-14 -7 9 -3 -10 -13 -12 -13
-15 -7 10 -2 -10 -13 -13 -12
-17 -7 10 -2 -10 -13 -13 -12
-18 -7 11 -2 -10 -13 -13 -12
-19 -8 12 0 -10 -14 -14 -11
-17 -6 13 0 -9 -13 -12 -11
-16 -5 14 1 -9 -12 -11 -11
-14 -4 14 1 -8 -12 -10 -11
-13 -3 15 1 -8 -11 -9 -11
-12 -2 16 2 -7 -10 -8 -11
-12 -2 17 2 -6 -9 -8 -11
-12 -2 17 3 -6 -9 -7 -10
-12 -2 18 3 -5 -8 -7 -10
-12 -2 18 3 -5 -8 -7 -10
-11 0 19 4 -4 -7 -6 -9
-10 3 20 6 -2 -5 -5 -7
-9 6 20 7 0 -4 -4 -6
-9 9 21 9 1 -3 -3 -5
-8 12 21 10 2 -2 -2 -4
-6 14 22 11 3 0 1 -3
-4 16 20 11 4 2 2 -2
-3 18 19 12 5 3 4 0
0 20 18 12 6 4 5 1
2 22 17 12 7 5 7 2
3 23 16 13 8 6 8 3
4 23 15 14 8 6 8 3
5 22 15 14 8 6 8 3
5 22 14 15 8 6 8 3
6 22 14 15 8 6 8 3
6 20 13 16 9 6 8 3
3 17 13 15 8 5 7 3
1 15 13 15 7 5 7 3
-2 12 13 14 7 4 6 3
-5 9 13 14 6 4 6 3
-6 8 12 12 5 3 5 3
-6 7 11 10 3 1 4 1
-6 6 11 8 2 0 3 0
-6 6 10 6 0 -2 2 -3
-6 5 10 4 -2 -3 1 -4
-5 3 9 3 -3 -4 0 -5
-6 0 9 3 -4 -5 -3 -6
-7 -3 9 3 -5 -6 -4 -7
-7 -6 9 3 -5 -7 -6 -8
-8 -9 9 3 -6 -8 -7 -9
-9 -10 9 2 -7 -9 -8 -10
-9 -10 9 2 -7 -9 -8 -11
-10 -10 9 1 -7 -10 -9 -12
-11 -10 9 0 -7 -10 -9 -12
-11 -10 9 0 -7 -10 -9 -13
-12 -9 9 -2 -8 -11 -10 -14
-13 -9 9 -2 -8 -11 -10 -13
-15 -9 9 -2 -9 -11 -10 -12
-16 -9 9 -2 -9 -11 -10 -12
-17 -9 9 -2 -9 -11 -10 -11
-18 -9 10 -3 -10 -11 -9 -10
-18 -9 10 -3 -10 -11 -9 -11
-17 -10 9 -3 -10 -12 -10 -12
-16 -10 8 -3 -10 -13 -11 -12
-16 -10 8 -3 -10 -13 -11 -13
-15 -11 7 -4 -11 -14 -12 -14
-15 -11 7 -4 -11 -14 -12 -14
-15 -11 7 -4 -11 -14 -12 -14
-15 -11 7 -4 -11 -14 -12 -14
-15 -11 7 -4 -11 -14 -12 -14
-15 -10 8 -4 -10 -13 -12 -15
-17 -10 8 -4 -10 -13 -12 -14
-19 -11 9 -3 -9 -12 -11 -13
-22 -12 9 -3 -9 -11 -10 -12
-24 -12 9 -3 -9 -11 -10 -11
-24 -13 10 -2 -8 -10 -9 -10
-23 -13 10 -2 -8 -10 -9 -10
-21 -12 10 -2 -8 -10 -9 -9
-20 -11 10 -2 -8 -10 -9 -9
-18 -11 10 -2 -8 -10 -9 -9
-16 -10 9 0 -9 -10 -8 -8
-15 -11 9 1 -9 -10 -9 -10
-13 -13 10 3 -9 -10 -10 -11
-11 -14 11 4 -9 -10 -10 -13
-9 -15 11 6 -9 -10 -11 -14
-6 -13 12 -8 -11 -12 -12 -14
-3 -6 11 -30 -16 -13 -12 -12
1 1 10 -53 -20 -15 -12 -9
5 7 10 -75 -24 -17 -12 -7
8 13 9 -98 -29 -19 -12 -4
8 27 5 -127 -31 -16 -4 7
5 46 0 -157 -31 -9 9 22
1 64 -6 -188 -31 -2 21 37
-4 82 -11 -219 -31 6 32 54
-7 101 -16 -249 -31 13 45 69
-7 111 -33 -258 -18 31 62 85
-4 117 -60 -249 5 58 82 100
0 122 -86 -242 27 84 103 115
3 129 -111 -235 51 109 123 132
6 134 -137 -227 73 135 144 147
7 122 -149 -210 86 144 146 142
5 100 -152 -187 91 141 135 125
2 77 -155 -163 97 138 125 106
0 54 -158 -141 102 135 113 88
-4 31 -161 -117 107 132 103 69
-7 17 -149 -102 96 114 85 54
-12 9 -127 -92 71 89 63 38
-17 0 -103 -80 47 63 40 24
-22 -9 -79 -70 22 37 19 9
-27 -17 -56 -59 -2 12 -3 -6
-28 -21 -41 -49 -12 1 -12 -12
-25 -21 -31 -39 -12 0 -12 -11
-22 -21 -22 -29 -11 -3 -12 -10
-19 -21 -13 -19 -11 -5 -12 -10
-17 -21 -3 -9 -11 -7 -12 -9
-15 -20 2 -5 -10 -8 -13 -8
-16 -20 3 -4 -10 -9 -13 -8
-17 -20 5 -2 -10 -10 -13 -9
-17 -20 6 0 -10 -10 -13 -9
-18 -20 7 1 -10 -11 -13 -9
-19 -19 8 2 -11 -12 -13 -10
-18 -19 8 2 -12 -13 -15 -11
-17 -19 8 2 -13 -14 -17 -13
-17 -19 8 2 -14 -14 -18 -14
-16 -19 8 2 -15 -15 -20 -15
-15 -20 9 1 -16 -16 -21 -16
-15 -20 9 2 -16 -16 -21 -16
-15 -21 10 3 -16 -16 -21 -16
-15 -21 10 4 -16 -16 -21 -16
-15 -21 10 5 -16 -16 -21 -16
-14 -22 11 6 -16 -16 -21 -15
-14 -22 11 6 -16 -16 -21 -15
-14 -21 11 6 -16 -16 -21 -15
-14 -20 11 6 -16 -16 -21 -15
-14 -20 11 6 -16 -16 -21 -15
-14 -19 12 5 -17 -17 -21 -14
-14 -19 12 5 -17 -17 -22 -14
-14 -20 12 6 -17 -18 -23 -15
-14 -21 12 7 -17 -18 -23 -15
-14 -21 12 7 -17 -18 -24 -15
-13 -22 12 8 -18 -19 -25 -16
-13 -22 12 8 -18 -19 -25 -16
-13 -23 12 8 -18 -19 -25 -16
-13 -23 12 8 -18 -19 -25 -16
-13 -23 12 8 -18 -19 -25 -16
-14 -24 12 8 -19 -19 -25 -17
-14 -24 12 9 -19 -19 -24 -17
-14 -24 12 10 -18 -18 -23 -16
-14 -24 12 10 -18 -18 -22 -16
-14 -24 12 11 -18 -18 -21 -16
-15 -24 12 12 -17 -17 -20 -15
-14 -23 12 12 -17 -17 -20 -15
-13 -22 11 11 -17 -17 -21 -16
-13 -21 11 11 -17 -17 -22 -16
-12 -20 11 11 -17 -17 -22 -16
-11 -19 10 10 -18 -17 -23 -17
-11 -20 10 11 -18 -17 -23 -16
-10 -21 10 13 -17 -16 -23 -15
-9 -21 10 14 -17 -16 -23 -15
-9 -22 10 15 -17 -16 -23 -14
-8 -23 10 16 -16 -15 -22 -13
-7 -23 10 16 -16 -15 -22 -13
-6 -22 10 16 -15 -15 -22 -13
-5 -22 10 16 -15 -15 -22 -13
-4 -22 10 16 -15 -15 -22 -13
-3 -21 11 15 -14 -14 -21 -14
-4 -21 11 15 -14 -14 -21 -14
-5 -21 11 16 -14 -13 -21 -14
-6 -21 11 17 -14 -13 -21 -14
-7 -21 11 17 -14 -13 -21 -14
-8 -22 11 18 -13 -12 -20 -14
-6 -22 11 18 -13 -12 -20 -13
-5 -22 10 18 -13 -12 -19 -12
-4 -22 10 18 -13 -12 -19 -12
-2 -22 10 18 -13 -12 -19 -11
0 -22 9 19 -12 -12 -18 -10
0 -22 9 21 -12 -11 -16 -10
1 -21 9 22 -11 -10 -15 -9
2 -21 9 23 -10 -9 -14 -8
2 -21 9 25 -10 -8 -12 -8
4 -20 9 26 -9 -7 -11 -7
5 -20 8 26 -9 -7 -11 -8
7 -20 7 26 -8 -7 -11 -10
9 -20 6 26 -8 -7 -11 -11
11 -20 5 26 -8 -7 -11 -12
12 -20 4 28 -7 -7 -10 -12
10 -20 4 29 -5 -6 -8 -10
8 -19 4 31 -4 -4 -6 -7
7 -18 4 33 -3 -2 -4 -5
5 -18 4 35 0 1 -2 -3
4 -17 5 36 1 2 0 0
5 -18 4 36 1 2 0 0
6 -19 2 36 1 2 -2 0
6 -20 1 36 1 2 -2 0
7 -21 0 36 1 2 -2 0
9 -22 -2 36 2 2 -3 1
11 -20 -4 37 3 3 -2 2
13 -19 -5 38 4 5 0 3
15 -18 -6 38 4 6 1 3
18 -16 -8 39 5 7 2 4
20 -15 -9 40 6 9 4 6
22 -13 -10 40 8 11 6 8
24 -12 -11 40 10 13 8 10
26 -11 -12 40 11 15 10 12
28 -9 -13 40 13 17 12 14
30 -8 -14 40 14 19 13 15
30 -8 -14 42 15 21 14 17
30 -8 -15 43 17 23 15 18
30 -8 -16 44 18 24 16 19
30 -8 -16 45 19 26 17 21
31 -7 -17 46 20 27 18 22
31 -5 -18 46 20 28 20 23
31 -3 -20 45 21 29 22 24
31 0 -21 45 21 29 23 25
31 2 -22 45 21 30 25 26
31 3 -23 44 22 31 26 27
33 4 -23 44 23 32 28 29
34 5 -24 44 24 34 30 30
35 6 -24 44 24 35 31 31
37 7 -24 44 25 36 33 33
38 8 -25 43 26 37 34 34
38 9 -25 43 26 37 34 34
37 10 -25 42 27 38 35 35
36 11 -25 40 27 39 35 36
36 12 -25 40 27 39 35 36
35 13 -25 39 28 40 36 37
36 13 -25 38 27 40 36 36
37 13 -26 37 26 39 36 35
37 13 -26 37 26 39 36 35
38 13 -26 36 25 39 36 34
38 13 -26 35 24 38 36 33
35 13 -24 35 24 38 36 33
31 14 -22 35 24 37 35 33
28 15 -20 35 24 36 34 33
25 15 -18 35 24 36 34 33
23 16 -16 34 24 35 33 32
23 16 -14 33 23 34 32 32
23 15 -12 32 22 32 31 31
23 14 -11 32 22 31 30 30
23 14 -9 31 21 30 29 30
21 13 -7 30 20 29 28 28
19 13 -5 28 19 27 27 26
16 12 -3 27 18 26 25 24
14 11 0 26 17 25 24 22
12 11 2 24 16 23 23 20
10 10 4 23 15 22 22 19
9 10 6 23 15 22 20 17
7 11 7 22 14 21 19 16
6 12 8 21 13 20 18 15
5 12 10 21 13 20 16 13
4 12 11 19 11 18 14 11
3 10 11 17 9 15 12 9
2 8 11 14 6 12 9 6
1 6 11 12 4 9 6 4
0 4 11 10 2 6 4 2
-2 2 10 8 0 4 2 0
-2 2 10 8 0 4 2 0
-2 2 10 8 0 4 2 0
-2 2 10 8 0 4 2 0
-2 2 10 8 0 4 2 0
-3 1 11 8 1 4 1 -2
-4 1 11 7 1 3 1 -2
-5 1 11 7 0 3 0 -2
-6 1 11 6 -2 2 -2 -2
-7 1 11 5 -2 1 -2 -2
-8 1 12 4 -3 0 -3 -3
-9 -2 12 4 -3 0 -3 -3
-9 -3 12 4 -3 0 -3 -3
-10 -4 12 4 -3 0 -2 -3
-11 -6 12 4 -3 0 -2 -3
-12 -7 12 5 -3 1 0 -2
-12 -6 12 5 -3 0 0 -2
-12 -5 12 5 -3 -2 -2 -3
-12 -3 12 5 -3 -3 -3 -4
-12 -2 12 5 -3 -4 -3 -4
-11 0 11 4 -4 -5 -4 -5
-11 0 11 4 -4 -4 -4 -5
-11 0 12 5 -4 -4 -4 -5
-11 0 13 6 -3 -3 -4 -5
-11 0 13 6 -3 -2 -4 -5
-11 1 14 7 -2 0 -3 -4
-11 0 14 7 -2 0 -3 -4
-11 -2 14 7 0 0 -3 -4
-10 -4 14 8 1 1 -2 -4
-10 -5 14 8 1 1 -2 -4
-9 -6 15 9 2 2 0 -3
-9 -6 15 9 2 2 0 -3
-8 -6 15 9 2 2 0 -2
-7 -6 15 10 2 2 0 0
-7 -6 15 10 2 2 0 0
-6 -6 14 11 3 2 0 1
-6 -6 14 11 3 2 0 0
-6 -6 13 11 3 2 -2 0
-6 -5 12 11 3 1 -3 -2
-6 -5 12 11 3 1 -3 -3
-6 -4 11 10 2 0 -4 -4
-5 -4 11 11 2 0 -4 -5
-5 -3 11 11 2 0 -5 -5
-4 -2 11 12 2 0 -6 -6
-3 -2 11 13 2 0 -6 -7
-2 0 12 14 2 -2 -7 -8
-2 0 12 14 2 -2 -7 -8
-2 0 12 14 2 -2 -7 -7
0 0 13 14 2 -2 -7 -6
0 0 13 14 2 -2 -7 -6
1 -2 14 13 3 -2 -6 -5
1 -2 14 13 3 -2 -6 -5
1 -3 14 13 3 -2 -6 -5
1 -4 14 13 3 -2 -5 -5
1 -4 14 13 3 -2 -5 -5
0 -5 14 13 2 -3 -4 -6
-2 -5 14 13 2 -3 -4 -6
-3 -5 14 13 2 -3 -4 -6
-5 -5 14 13 2 -3 -4 -6
-6 -5 14 13 2 -3 -4 -6
-7 -4 14 12 2 -2 -4 -5
-7 -4 14 12 2 -2 -4 -5
-7 -4 14 12 2 -2 -4 -5
-6 -4 14 12 2 -2 -3 -4
-6 -4 14 12 2 -2 -3 -4
-5 -4 14 11 2 -3 -2 -3
-6 -4 14 11 2 -3 -2 -3
-7 -4 14 11 2 -3 -2 -3
-8 -4 14 11 1 -3 -2 -3
-9 -4 14 11 1 -3 -2 -3
-10 -4 14 10 0 -4 -2 -2
-9 -4 14 10 0 -4 -2 -2
-8 -4 13 10 0 -4 -2 -2
-7 -4 12 10 -2 -4 -2 -2
-6 -4 12 10 -2 -4 -2 -2
-5 -4 11 9 -3 -5 -3 -3
-5 -4 11 9 -3 -5 -3 -3
-5 -4 11 8 -3 -6 -3 -3
-5 -4 11 7 -3 -7 -4 -4
-5 -4 11 7 -3 -7 -4 -4
-6 -4 12 6 -2 -8 -5 -5
-6 -4 12 6 -2 -8 -5 -5
-6 -4 12 6 -2 -8 -5 -5
-6 -4 12 6 -2 -8 -5 -6
-6 -4 12 6 -2 -8 -5 -6
-7 -4 11 6 -3 -8 -5 -7
-7 -4 11 6 -3 -8 -5 -7
-7 -4 11 6 -4 -8 -5 -6
-6 -4 11 6 -5 -9 -4 -5
-6 -4 11 6 -5 -9 -4 -5
-5 -5 12 5 -6 -10 -3 -4
-5 -5 12 5 -6 -10 -4 -5
-5 -5 12 5 -6 -10 -4 -6
-5 -5 12 5 -6 -10 -5 -8
-5 -5 12 5 -6 -10 -6 -9
-5 -4 11 5 -7 -11 -7 -10
-5 -4 12 5 -7 -11 -7 -10
-5 -3 12 5 -7 -11 -7 -9
-5 -2 13 5 -6 -10 -7 -8
-5 -2 14 5 -6 -10 -7 -8
-5 0 15 6 -5 -9 -7 -7
-5 1 15 6 -5 -9 -7 -7
-5 1 15 6 -5 -9 -7 -7
-5 2 15 6 -5 -9 -7 -7
-5 3 15 6 -5 -9 -7 -7
-6 4 15 6 -5 -9 -6 -6
-5 6 15 6 -5 -9 -6 -6
-4 8 15 6 -4 -9 -6 -6
-3 10 16 7 -3 -8 -7 -6
-2 12 16 7 -3 -8 -7 -6
0 15 17 8 -2 -7 -8 -7
2 17 17 9 1 -5 -5 -4
4 20 17 11 3 -3 -3 -2
6 23 17 12 5 0 1 1
7 26 17 14 6 1 3 3
9 28 16 15 8 3 5 5
9 27 16 15 8 3 5 5
9 26 16 16 8 2 5 5
9 24 15 17 8 1 5 5
9 23 15 17 8 1 5 5
8 22 14 18 8 0 5 6
9 22 13 17 8 0 5 6
10 22 11 15 7 -2 5 5
11 22 10 14 6 -3 5 4
12 22 8 12 6 -3 5 4
13 21 7 11 5 -4 4 3
12 18 7 11 4 -4 4 3
10 15 7 10 4 -4 3 3
9 12 7 9 3 -4 2 2
7 9 7 9 2 -4 2 2
6 7 6 8 1 -5 1 1
5 5 6 7 -2 -7 -2 -2
3 3 6 6 -4 -9 -4 -4
2 1 6 5 -6 -11 -6 -6
0 -2 6 4 -7 -13 -8 -8
-2 -4 5 3 -9 -15 -10 -10
-5 -4 5 3 -9 -15 -11 -10
-7 -4 6 2 -9 -15 -11 -10
-9 -5 7 1 -9 -15 -12 -10
-11 -5 7 1 -9 -15 -13 -10
-13 -6 8 0 -10 -16 -14 -10
-13 -7 8 0 -10 -16 -14 -11
-12 -8 8 -2 -10 -16 -14 -12
-11 -9 8 -3 -11 -17 -15 -13
-11 -10 8 -3 -11 -17 -15 -14
-10 -11 7 -4 -12 -18 -16 -15
-10 -10 7 -4 -12 -18 -16 -15
-10 -9 7 -4 -12 -18 -16 -15
-11 -8 7 -4 -12 -18 -16 -14
-11 -7 7 -4 -12 -18 -16 -14
-12 -6 8 -4 -12 -19 -16 -13
-12 -6 7 -4 -12 -19 -16 -13
-11 -6 7 -4 -12 -18 -15 -12
-10 -7 6 -4 -12 -17 -14 -11
-10 -7 5 -4 -12 -17 -14 -11
-9 -8 4 -4 -11 -16 -13 -10
-9 -8 4 -4 -11 -16 -13 -10
-8 -8 4 -4 -11 -16 -13 -11
-7 -8 4 -4 -11 -17 -14 -12
-7 -8 4 -4 -11 -17 -14 -12
-6 -8 5 -5 -11 -18 -15 -13
-7 -8 5 -5 -11 -18 -15 -13
-8 -7 5 -5 -11 -18 -15 -13
-9 -6 5 -5 -11 -19 -15 -14
-10 -6 5 -5 -11 -19 -15 -14
-11 -5 5 -3 -12 -20 -16 -15
-8 -5 5 0 -11 -20 -16 -15
-5 -6 5 3 -10 -20 -16 -15
-3 -7 6 6 -8 -20 -16 -16
1 -7 6 9 -7 -20 -16 -16
3 -7 7 3 -7 -20 -16 -17
5 -3 6 -23 -12 -21 -16 -16
7 2 5 -48 -17 -22 -16 -15
9 6 4 -72 -22 -24 -16 -14
11 10 3 -97 -26 -25 -16 -13
12 19 -2 -128 -32 -26 -12 -7
6 36 -11 -169 -38 -23 -3 8
1 55 -20 -210 -46 -21 7 22
-5 72 -29 -251 -52 -18 16 36
-10 90 -39 -291 -58 -16 25 51
-13 105 -54 -317 -56 -5 38 66
-9 116 -78 -311 -32 22 59 81
-4 127 -103 -305 -10 49 80 97
1 138 -127 -300 14 75 102 112
6 149 -151 -294 36 103 122 128
9 149 -169 -280 55 120 135 135
7 128 -173 -254 64 122 129 126
6 107 -177 -227 73 123 122 115
4 86 -181 -200 82 126 116 106
3 64 -185 -174 93 127 110 97
-2 46 -180 -150 91 119 99 84
-7 32 -154 -134 66 90 75 63
-13 19 -129 -116 42 61 52 43
-19 7 -104 -100 17 31 29 22
-25 -7 -78 -83 -8 3 6 2
-28 -16 -58 -68 -24 -17 -10 -12
-24 -16 -47 -57 -21 -19 -11 -12
-21 -16 -35 -45 -19 -20 -12 -13
-17 -15 -24 -32 -16 -22 -14 -14
-13 -15 -14 -20 -14 -23 -15 -14
-10 -14 -6 -12 -12 -25 -16 -15
-10 -14 -4 -10 -12 -25 -16 -16
-10 -14 -3 -7 -12 -25 -16 -17
-10 -14 0 -5 -12 -25 -16 -18
-10 -14 1 -3 -12 -25 -16 -19
-10 -13 3 0 -12 -25 -15 -20
-10 -14 4 0 -12 -25 -15 -20
-10 -14 5 0 -12 -25 -16 -20
-9 -15 7 1 -12 -25 -17 -20
-9 -16 8 1 -12 -25 -17 -20
-8 -17 9 2 -13 -26 -18 -21
-8 -18 9 2 -13 -26 -19 -21
-8 -19 9 2 -14 -26 -19 -22
-8 -20 8 3 -14 -27 -20 -22
-8 -22 8 3 -15 -27 -21 -23
-9 -23 7 4 -16 -28 -22 -24
-8 -23 7 4 -16 -28 -22 -24
-6 -23 7 4 -16 -28 -22 -24
-5 -22 7 4 -16 -28 -22 -24
-3 -22 7 4 -16 -28 -22 -24
-2 -21 7 4 -17 -29 -22 -25
-4 -21 7 5 -17 -28 -22 -25
-5 -21 8 6 -16 -26 -22 -25
-7 -22 8 7 -16 -25 -22 -24
-8 -22 9 8 -15 -23 -22 -24
-10 -23 10 9 -14 -22 -21 -23
-10 -23 10 9 -14 -22 -21 -23
-10 -23 9 9 -14 -22 -21 -23
-9 -22 9 9 -14 -21 -21 -23
-9 -22 8 9 -14 -21 -21 -23
-8 -21 7 8 -15 -20 -22 -24
-6 -21 7 8 -15 -20 -22 -24
-5 -21 7 8 -15 -20 -22 -24
-3 -21 7 9 -16 -21 -23 -25
-2 -21 7 9 -16 -21 -23 -25
1 -21 6 10 -17 -22 -24 -26
-2 -21 6 10 -16 -22 -23 -25
-4 -22 7 11 -14 -22 -21 -23
-6 -22 7 11 -13 -21 -20 -22
-8 -23 8 12 -11 -21 -18 -20
-10 -24 9 13 -10 -20 -17 -19
-8 -23 9 14 -10 -19 -17 -19
-7 -23 9 14 -10 -19 -17 -19
-5 -22 9 15 -10 -18 -17 -19
-4 -21 9 16 -10 -17 -17 -19
-2 -20 8 17 -9 -16 -18 -19
-2 -20 8 17 -9 -16 -18 -19
-2 -20 8 17 -9 -16 -19 -20
-2 -20 8 17 -9 -17 -19 -20
-2 -20 8 17 -9 -17 -20 -21
-3 -21 8 16 -10 -18 -21 -22
-2 -21 8 17 -10 -18 -21 -22
-2 -21 8 19 -9 -18 -20 -22
0 -21 8 20 -9 -18 -20 -22
1 -21 8 22 -8 -18 -19 -22
2 -22 7 23 -7 -19 -18 -21
2 -21 7 23 -7 -19 -18 -21
2 -21 7 23 -7 -18 -17 -21
2 -20 7 23 -7 -18 -17 -21
2 -19 7 23 -7 -17 -16 -21
1 -18 7 24 -6 -16 -15 -20
1 -19 7 25 -5 -15 -14 -19
2 -21 7 26 -4 -15 -12 -19
2 -22 7 27 -3 -14 -11 -18
3 -24 7 29 -2 -13 -9 -17
4 -25 8 30 0 -12 -8 -16
5 -24 8 31 0 -12 -8 -16
6 -23 8 32 1 -11 -8 -16
7 -22 7 33 1 -11 -7 -16
8 -20 7 34 2 -10 -7 -16
9 -19 6 35 3 -9 -6 -15
9 -19 6 36 4 -8 -5 -14
9 -19 5 38 5 -7 -5 -14
10 -19 5 39 6 -6 -4 -13
10 -19 4 40 7 -5 -3 -12
11 -18 3 43 8 -4 -2 -11
12 -18 3 43 9 -3 -2 -11
13 -18 2 44 10 -2 0 -11
14 -18 2 44 11 0 0 -10
16 -18 1 45 12 1 1 -10
17 -17 0 46 13 2 2 -9
17 -18 -2 48 14 3 3 -8
17 -20 -3 49 16 5 4 -6
16 -21 -4 51 17 6 5 -5
16 -22 -5 52 18 7 6 -4
16 -24 -6 54 20 9 7 -2
19 -21 -6 54 22 11 8 0
23 -19 -6 54 23 13 10 1
27 -16 -7 54 25 14 11 2
31 -13 -7 54 26 16 12 4
34 -11 -8 55 28 18 14 5
33 -10 -9 56 29 19 16 6
33 -10 -10 57 30 20 17 7
32 -9 -11 58 31 21 19 8
31 -8 -12 60 33 23 20 9
30 -7 -13 61 34 24 22 10
31 -6 -13 61 34 25 23 12
32 -6 -14 60 35 25 25 13
33 -5 -14 60 35 26 26 15
34 -4 -15 59 36 27 27 16
35 -3 -16 58 37 28 29 18
35 0 -16 58 38 30 31 19
36 2 -16 58 39 32 32 21
36 4 -17 58 40 33 34 22
37 6 -17 58 43 35 35 23
38 8 -18 59 44 37 37 25
38 8 -18 57 44 37 37 25
38 8 -18 55 44 37 37 25
37 8 -18 54 44 37 37 25
37 8 -18 52 44 37 37 25
36 9 -19 50 43 37 37 25
36 9 -18 50 43 37 37 25
36 9 -18 50 43 37 37 25
36 9 -17 51 43 37 38 25
36 9 -16 51 43 37 38 25
35 10 -15 52 42 36 39 26
33 11 -14 51 40 35 39 26
31 12 -13 49 39 34 38 26
30 13 -12 47 38 33 37 25
28 14 -11 46 36 32 36 25
26 15 -10 44 35 31 35 24
24 15 -9 43 34 31 34 23
22 16 -7 42 32 30 33 22
21 17 -5 40 31 29 32 21
19 18 -4 39 30 28 31 20
17 19 -2 38 28 27 30 19
16 19 1 37 27 25 28 16
15 19 3 35 25 23 26 14
14 18 5 33 24 20 23 11
12 18 7 32 23 18 21 8
11 17 9 30 21 16 19 6
9 16 9 28 19 14 17 4
7 14 10 26 17 12 15 2
4 13 10 24 14 10 12 0
2 12 11 22 12 8 10 -3
0 10 12 20 10 6 8 -5
-2 10 12 19 10 5 8 -5
-3 10 13 17 9 4 7 -5
-4 10 14 15 8 3 6 -5
-5 10 15 14 7 2 5 -5
-6 9 16 12 6 1 4 -6
-6 8 16 12 6 1 4 -7
-6 6 16 11 5 1 3 -8
-7 4 16 10 4 0 3 -9
-7 3 16 9 3 0 2 -11
-8 1 15 8 2 -2 1 -12
-8 1 15 7 1 -3 1 -12
-9 0 15 6 0 -4 0 -12
-10 0 15 5 -2 -5 -2 -11
-11 -2 15 3 -3 -6 -3 -11
-12 -3 14 2 -4 -7 -4 -10
-12 -3 14 2 -4 -7 -4 -10
-12 -3 14 2 -4 -7 -4 -10
-12 -2 13 2 -4 -8 -4 -10
-12 -2 13 2 -4 -8 -4 -10
-11 0 12 3 -5 -9 -5 -10
-11 0 12 3 -5 -9 -5 -10
-11 0 12 3 -5 -9 -5 -11
-12 0 12 3 -6 -9 -6 -11
-12 0 12 3 -6 -9 -6 -12
-13 -2 12 3 -7 -9 -7 -13
-13 -2 12 3 -7 -9 -7 -13
-12 -2 13 4 -6 -9 -7 -13
-12 0 13 4 -5 -9 -7 -13
-11 0 14 5 -4 -9 -7 -13
-10 1 15 6 -3 -9 -8 -13
-10 1 15 6 -3 -9 -8 -13
-10 1 15 6 -3 -8 -8 -13
-10 1 15 6 -3 -7 -8 -13
-10 1 15 6 -3 -6 -8 -13
-10 1 14 6 -2 -5 -8 -13
-10 1 14 6 -2 -5 -8 -13
-10 1 14 7 -2 -5 -8 -13
-10 0 14 7 -2 -5 -8 -12
-10 0 14 8 -2 -5 -8 -12
-10 -2 14 9 -2 -6 -7 -11
-10 -2 14 9 -2 -6 -7 -11
-10 -2 14 9 -2 -6 -7 -11
-10 -2 15 10 0 -5 -7 -11
-10 -2 15 10 0 -5 -7 -11
-11 0 16 11 1 -4 -7 -12
-11 0 16 11 1 -4 -7 -12
-11 -2 16 12 2 -4 -6 -12
-11 -3 17 12 2 -3 -5 -11
-11 -4 17 13 3 -3 -4 -11
-11 -5 18 14 4 -2 -3 -10
-11 -5 18 14 4 -2 -3 -10
-11 -4 18 14 4 -2 -3 -10
-11 -4 18 14 4 0 -3 -10
-11 -3 18 14 4 0 -3 -10
-10 -2 17 14 5 1 -3 -10
-10 -2 17 14 5 1 -3 -10
-10 -2 17 14 5 1 -3 -11
-9 -2 17 14 4 0 -3 -11
-9 -2 17 14 4 0 -3 -12
-8 -2 16 14 3 -2 -4 -13
-8 -2 16 14 3 -2 -4 -13
-8 -2 16 14 3 -2 -4 -13
-8 -2 16 13 2 -2 -4 -13
-8 -2 16 13 2 -2 -4 -13
-9 -3 16 12 1 -2 -5 -13
-10 -3 16 12 1 -2 -5 -12
-11 -3 16 12 1 -2 -5 -11
-12 -3 16 12 1 -2 -4 -10
-13 -3 16 12 1 -2 -4 -9
-14 -4 16 13 1 0 -3 -8
-13 -4 16 13 1 0 -3 -8
-11 -4 15 12 0 -2 -4 -9
-10 -5 15 11 -2 -3 -4 -9
-9 -5 14 10 -3 -4 -5 -10
-7 -6 13 9 -4 -5 -6 -11
-7 -6 13 9 -4 -5 -6 -11
-7 -5 13 9 -4 -5 -6 -11
-8 -4 14 9 -4 -5 -6 -11
-8 -3 14 9 -4 -5 -6 -11
-9 -2 15 10 -5 -4 -6 -12
-9 -2 15 10 -5 -4 -6 -12
-9 -3 15 9 -5 -4 -7 -12
-10 -3 15 8 -5 -4 -7 -12
-10 -4 15 7 -5 -4 -8 -12
-11 -5 15 6 -6 -5 -9 -11
-12 -5 15 6 -6 -5 -9 -11
-13 -6 14 6 -6 -5 -9 -11
-14 -7 14 6 -7 -5 -9 -11
-15 -8 13 6 -7 -5 -9 -11
-16 -9 12 6 -8 -6 -8 -12
-14 -8 12 6 -8 -6 -8 -12
-12 -7 13 6 -8 -6 -8 -12
-10 -6 13 6 -8 -6 -8 -12
-8 -5 14 6 -8 -6 -8 -12
-6 -3 15 6 -8 -6 -9 -12
-6 0 16 7 -8 -6 -8 -12
-6 1 18 8 -7 -5 -7 -11
-7 3 19 9 -6 -4 -6 -10
-7 5 20 10 -5 -3 -5 -9
-8 7 22 11 -4 -2 -3 -8
-8 7 22 11 -4 -2 -3 -8
-7 8 22 11 -4 -2 -3 -8
-7 8 21 10 -4 -2 -4 -8
-6 9 21 10 -4 -2 -4 -8
-5 10 20 9 -5 -3 -5 -9
-5 12 20 10 -4 -2 -4 -7
-5 15 20 11 -3 0 -2 -6
-5 17 20 12 -2 1 1 -4
-5 19 20 13 0 2 2 -2
-5 22 20 15 2 4 4 1
-3 22 20 15 2 4 4 1
0 22 19 15 3 5 4 1
2 23 19 15 3 5 4 2
5 23 18 15 4 6 4 2
7 24 17 16 5 7 5 3
7 23 17 16 5 7 5 3
6 21 17 16 5 7 5 3
5 19 16 17 5 7 5 3
4 18 16 17 5 7 5 3
3 16 15 18 6 7 5 3
3 14 15 17 5 7 4 2
2 12 15 16 3 6 3 1
1 10 14 15 1 5 2 0
0 8 14 14 0 4 1 -2
-2 6 13 13 -3 3 0 -3
-3 4 13 13 -3 2 -2 -3
-4 2 13 12 -3 1 -3 -4
-5 0 13 11 -4 0 -4 -5
-6 -3 13 10 -4 -2 -5 -6
-7 -5 13 9 -5 -4 -6 -7
-8 -6 13 7 -6 -5 -7 -8
-9 -7 12 5 -8 -6 -9 -9
-11 -8 12 3 -10 -8 -11 -11
-12 -9 11 1 -11 -9 -12 -12
-14 -11 10 -2 -13 -11 -14 -14
-14 -11 10 -2 -13 -11 -14 -14
-14 -11 10 -2 -13 -11 -14 -14
-14 -11 9 -2 -13 -11 -14 -15
-14 -11 9 -2 -13 -11 -14 -15
-14 -10 8 -2 -14 -11 -15 -16
-14 -10 8 -2 -14 -11 -15 -16
-14 -10 8 -2 -14 -11 -15 -16
-14 -10 9 -2 -14 -11 -14 -16
-14 -10 9 -2 -14 -11 -14 -16
-14 -10 10 -2 -13 -10 -13 -16
-14 -10 10 -2 -13 -10 -13 -16
-14 -10 10 -2 -14 -11 -13 -16
-15 -10 9 -2 -14 -11 -14 -15
-15 -10 9 -2 -15 -12 -14 -15
-16 -11 8 -3 -16 -13 -15 -14
-16 -11 8 -3 -16 -13 -15 -14
-16 -11 8 -3 -15 -13 -15 -13
-16 -11 9 -3 -14 -12 -14 -13
-16 -11 9 -3 -13 -12 -14 -12
-16 -12 10 -2 -12 -11 -13 -11
-16 -12 10 -2 -12 -11 -13 -11
-16 -12 10 -2 -12 -11 -13 -11
-16 -12 10 -2 -12 -11 -13 -11
-16 -12 10 -2 -12 -11 -13 -11
-15 -13 9 -2 -12 -10 -13 -11
-14 -13 9 1 -12 -10 -13 -12
-12 -13 9 4 -12 -10 -13 -14
-10 -14 9 6 -11 -10 -14 -15
-8 -14 9 8 -11 -10 -14 -17
-6 -15 9 9 -10 -10 -15 -19
-5 -12 9 -11 -13 -11 -15 -17
-4 -9 9 -31 -17 -13 -15 -15
-3 -6 9 -52 -21 -14 -15 -13
-2 -2 9 -72 -24 -16 -15 -11
1 3 9 -95 -28 -18 -14 -8
0 21 -2 -139 -36 -18 -6 5
-3 39 -12 -183 -46 -18 2 18
-5 58 -23 -227 -54 -18 10 30
-7 75 -33 -271 -62 -18 18 44
-9 94 -46 -311 -68 -15 26 57
-9 106 -71 -311 -45 13 48 74
-9 118 -96 -310 -21 42 69 92
-9 132 -121 -310 4 69 91 110
-9 144 -147 -309 27 98 112 128
-8 155 -171 -306 51 123 133 144
-6 136 -179 -276 66 132 131 137
-3 117 -187 -246 82 140 129 130
0 99 -195 -216 98 148 127 122
2 79 -203 -186 113 155 125 115
5 61 -210 -157 127 161 120 107
-2 46 -181 -140 98 128 94 82
-8 29 -151 -122 68 95 66 59
-15 13 -122 -104 39 62 39 34
-21 -3 -94 -87 11 28 13 11
-27 -18 -65 -69 -17 -3 -13 -12
-26 -18 -53 -57 -16 -4 -13 -12
-25 -18 -39 -45 -14 -5 -13 -12
-24 -18 -27 -31 -13 -6 -13 -12
-23 -18 -14 -19 -11 -7 -13 -12
-22 -19 -2 -7 -9 -8 -13 -11
-21 -20 -2 -6 -9 -8 -13 -11
-19 -21 0 -4 -9 -9 -13 -12
-18 -22 1 -3 -9 -9 -13 -13
-16 -23 2 0 -9 -10 -13 -14
-14 -24 3 2 -9 -11 -14 -15
-14 -24 4 2 -10 -11 -15 -15
-14 -24 5 2 -11 -12 -16 -15
-14 -24 6 2 -12 -13 -17 -16
-14 -24 7 2 -13 -14 -18 -16
-15 -23 8 3 -14 -15 -19 -17
-15 -23 8 3 -14 -15 -19 -17
-14 -23 8 4 -14 -15 -19 -18
-14 -23 8 5 -14 -15 -20 -18
-13 -23 8 6 -14 -15 -20 -19
-12 -23 9 7 -14 -16 -21 -20
-11 -23 9 7 -14 -16 -21 -20
-10 -23 9 7 -14 -16 -21 -20
-9 -24 9 7 -14 -16 -22 -19
-8 -24 9 7 -14 -16 -22 -19
-7 -25 10 6 -15 -17 -23 -18
-8 -25 10 6 -15 -17 -23 -18
-9 -25 10 7 -15 -17 -23 -18
-10 -25 10 8 -15 -17 -22 -18
-11 -25 10 9 -15 -17 -22 -18
-12 -26 10 10 -15 -17 -21 -18
-12 -26 10 10 -15 -17 -21 -18
-11 -26 10 10 -15 -17 -21 -18
-11 -26 11 9 -14 -17 -21 -18
-10 -26 11 9 -14 -17 -21 -18
-9 -26 12 8 -13 -16 -21 -17
-9 -26 12 8 -13 -16 -21 -17
-10 -26 12 9 -13 -16 -21 -17
-10 -27 12 10 -13 -16 -21 -17
-11 -27 12 11 -13 -16 -21 -17
-12 -28 11 12 -13 -15 -21 -18
-12 -27 11 12 -13 -15 -21 -17
-11 -26 11 12 -13 -15 -21 -16
-11 -25 11 12 -12 -15 -20 -15
-10 -24 11 12 -12 -15 -20 -14
-9 -22 11 13 -11 -15 -19 -13
-9 -23 11 13 -11 -15 -19 -13
-8 -24 11 14 -11 -14 -19 -13
-8 -25 11 15 -10 -14 -19 -14
-7 -26 11 16 -10 -13 -19 -14
-6 -27 10 17 -9 -12 -20 -15
-6 -27 10 17 -9 -12 -20 -15
-6 -26 10 17 -9 -12 -20 -15
-7 -26 10 18 -9 -13 -21 -15
-7 -25 10 18 -9 -13 -21 -15
-8 -24 10 19 -10 -14 -22 -16
-7 -24 10 19 -10 -14 -22 -16
-6 -24 10 20 -9 -14 -22 -16
-4 -24 10 20 -8 -13 -22 -16
-3 -24 10 21 -7 -13 -22 -16
0 -23 10 22 -6 -12 -21 -15
0 -23 10 22 -6 -12 -21 -15
0 -24 10 22 -6 -12 -20 -15
0 -24 10 22 -6 -12 -19 -14
0 -25 10 22 -6 -12 -18 -14
1 -26 9 22 -5 -11 -17 -13
2 -26 9 23 -5 -11 -16 -13
3 -25 9 25 -4 -10 -15 -13
4 -25 8 26 -4 -9 -14 -13
5 -24 8 28 -3 -8 -13 -13
7 -23 7 30 -2 -7 -12 -12
7 -23 7 30 -2 -7 -12 -11
7 -22 7 31 0 -6 -11 -10
7 -22 7 32 1 -5 -10 -9
7 -21 7 33 2 -4 -9 -8
6 -20 7 34 3 -3 -8 -6
6 -20 7 34 3 -3 -8 -6
6 -21 6 35 3 -3 -8 -6
6 -22 5 36 4 -3 -8 -6
6 -23 4 37 4 -3 -8 -6
6 -24 3 38 5 -2 -7 -5
6 -23 3 39 6 0 -6 -4
7 -21 3 40 8 2 -5 -3
8 -19 3 43 9 3 -3 0
9 -17 3 44 11 5 -2 1
10 -15 2 46 13 7 1 3
11 -15 1 46 13 7 1 3
13 -15 -2 46 14 7 1 3
15 -15 -4 46 14 8 1 3
17 -15 -6 46 15 8 1 3
19 -14 -8 47 16 9 2 4
21 -14 -8 48 17 11 3 5
23 -14 -8 49 19 13 5 7
25 -14 -9 50 20 15 7 9
27 -14 -9 51 22 17 9 11
29 -13 -10 52 24 20 11 13
29 -13 -11 52 24 20 12 14
29 -12 -12 52 24 21 13 15
29 -11 -13 52 25 22 14 16
29 -10 -14 52 25 23 15 17
30 -9 -16 52 26 24 17 18
30 -7 -16 52 27 25 18 19
31 -5 -16 52 28 26 20 21
32 -2 -17 51 29 28 22 23
33 1 -17 51 30 29 24 25
33 3 -17 51 31 30 25 26
34 4 -18 50 32 32 26 27
34 5 -19 50 33 33 27 27
34 6 -19 49 33 34 28 28
34 7 -20 49 34 35 29 28
34 7 -20 49 34 36 30 28
34 8 -21 48 35 37 31 29
36 8 -22 47 35 37 31 30
37 8 -22 46 35 37 32 31
39 8 -23 45 35 37 32 32
40 8 -23 45 35 37 32 32
40 9 -24 44 34 38 33 33
38 10 -24 44 34 38 33 33
36 10 -23 44 34 38 34 34
34 11 -23 44 34 38 34 34
32 11 -23 44 34 38 34 34
31 12 -21 44 35 38 35 35
30 12 -19 43 34 37 34 35
30 12 -18 42 34 37 34 34
29 12 -16 40 33 36 33 34
29 12 -15 39 33 36 33 34
28 13 -13 38 32 34 31 32
28 14 -11 37 31 33 30 30
27 15 -9 37 30 31 28 29
27 16 -7 36 29 30 27 27
27 16 -5 36 29 29 26 26
23 17 -3 34 27 27 24 24
20 17 0 32 26 26 22 23
16 16 2 31 25 24 21 21
13 16 4 29 24 23 19 20
10 16 5 28 23 22 18 19
9 14 7 26 21 20 16 17
8 13 8 25 20 19 15 15
7 12 9 24 19 18 14 13
6 11 10 23 18 17 13 11
5 10 11 22 17 16 12 10
4 9 12 20 15 14 10 8
4 8 12 18 13 12 9 7
3 7 12 16 11 10 7 5
3 6 12 14 9 8 6 4
3 5 12 12 8 7 5 3
1 4 12 11 7 6 4 2
0 3 12 11 7 5 4 2
-2 3 12 11 7 5 4 2
-3 2 12 11 7 4 4 2
-4 2 12 11 7 4 4 2
-5 1 13 10 5 2 2 2
-5 0 12 8 3 1 0 1
-5 0 12 6 1 0 -3 0
-5 -2 11 4 -2 -2 -5 -2
-5 -2 11 3 -3 -3 -6 -3
-5 -3 10 2 -4 -4 -7 -4
-6 -3 10 3 -3 -4 -7 -4
-6 -3 11 4 -3 -4 -7 -4
-7 -3 11 5 -2 -4 -7 -4
-7 -3 11 5 -2 -4 -7 -4
-8 -3 12 6 0 -4 -6 -4
-8 -3 12 6 0 -4 -7 -4
-8 -3 12 6 -2 -4 -7 -5
-8 -3 12 6 -2 -4 -8 -5
-8 -3 12 6 -2 -4 -8 -5
-7 -3 11 5 -3 -4 -8 -6
-7 -3 12 6 -2 -4 -7 -5
-6 -3 12 7 -2 -3 -6 -4
-6 -3 13 8 0 -3 -5 -3
-6 -3 13 9 0 -3 -4 -3
-5 -3 14 10 1 -2 -3 -2
-5 -3 14 10 1 -2 -3 -2
-5 -4 14 10 2 0 -3 -2
-5 -4 14 10 2 0 -3 -2
-5 -4 14 10 2 0 -3 -2
-6 -5 14 9 3 1 -3 0
-6 -4 14 10 3 1 -4 -2
-6 -4 14 10 3 1 -4 -2
-6 -3 14 11 3 1 -5 -3
-6 -3 14 11 3 1 -5 -3
-6 -2 13 12 3 0 -6 -4
-7 -2 13 12 4 0 -6 -4
-7 -3 13 12 5 0 -6 -4
-8 -3 13 12 6 0 -6 -4
-8 -3 13 12 6 0 -6 -4
-9 -4 14 12 7 1 -5 -3
-9 -4 14 12 7 1 -5 -3
-8 -4 14 13 7 1 -4 -3
-8 -4 14 13 7 1 -4 -3
-8 -4 14 13 7 1 -4 -3
-6 -3 13 14 6 1 -3 -2
-5 -2 13 13 6 1 -3 -3
-4 0 13 13 5 0 -4 -4
-3 1 13 12 5 0 -4 -5
-2 1 13 12 5 0 -4 -5
-2 1 12 11 4 -2 -5 -6
-4 0 13 12 4 0 -4 -5
-5 -2 13 13 4 0 -4 -5
-7 -3 14 14 4 1 -3 -4
-8 -4 14 14 4 1 -3 -4
-8 -5 15 15 5 2 -2 -3
-7 -5 15 14 5 1 -3 -3
-5 -5 14 13 4 1 -3 -3
-4 -5 14 12 4 0 -4 -3
-3 -5 14 12 4 0 -4 -3
-2 -4 13 11 3 -2 -5 -4
-2 -4 13 10 2 -2 -5 -4
-2 -4 13 10 2 -3 -5 -4
-2 -4 13 9 1 -3 -5 -4
-2 -4 13 9 1 -3 -5 -4
-3 -3 12 8 0 -4 -5 -5
-3 -3 12 8 0 -5 -6 -6
-3 -3 12 7 0 -6 -7 -7
-3 -3 12 7 0 -7 -8 -8
-3 -3 12 7 0 -7 -8 -8
-4 -4 11 6 -2 -8 -9 -9
-4 -4 11 6 -2 -8 -9 -8
-5 -4 11 6 -2 -7 -8 -7
-5 -4 11 6 -2 -7 -8 -6
-5 -4 11 6 -2 -7 -8 -6
-6 -4 10 6 -3 -6 -7 -5
-6 -5 10 5 -4 -7 -8 -6
-6 -6 10 5 -4 -8 -8 -7
-6 -7 10 4 -5 -9 -9 -8
-6 -7 10 4 -5 -9 -9 -8
-6 -8 11 3 -6 -10 -10 -9
-7 -8 11 4 -6 -10 -10 -8
-7 -8 11 4 -6 -10 -10 -8
-8 -8 11 5 -6 -10 -10 -7
-8 -8 11 5 -6 -10 -10 -7
-9 -8 10 6 -5 -9 -10 -6
-8 -7 10 5 -5 -9 -10 -7
-7 -7 10 5 -5 -9 -10 -7
-6 -6 10 4 -5 -9 -10 -8
-5 -6 10 4 -5 -9 -10 -8
-4 -5 11 3 -4 -10 -11 -9
-4 -4 11 4 -4 -9 -10 -9
-4 -4 11 5 -3 -9 -9 -8
-4 -3 11 6 -3 -8 -8 -8
-4 -3 11 7 -3 -8 -8 -8
-3 -2 13 8 -2 -7 -7 -7
-4 -2 14 8 -2 -8 -7 -7
-5 0 15 8 -3 -8 -8 -7
-6 0 16 8 -3 -9 -8 -7
-6 0 17 8 -3 -9 -8 -7
-6 3 18 7 -4 -10 -9 -7
-4 5 18 7 -4 -10 -8 -7
-2 7 18 8 -4 -10 -7 -7
1 10 18 8 -4 -10 -6 -7
3 12 18 8 -4 -10 -6 -7
5 14 18 9 -3 -9 -5 -7
6 15 17 9 0 -8 -4 -6
7 16 16 9 1 -6 -4 -5
8 17 15 9 3 -5 -3 -4
9 18 14 9 4 -4 -3 -3
10 19 13 11 6 -2 0 0
11 19 13 13 7 0 2 1
12 20 14 14 8 2 3 2
13 20 14 16 9 3 5 3
13 20 14 17 10 4 6 4
14 21 15 17 10 5 7 5
13 20 14 16 9 4 6 5
12 20 13 14 7 3 5 4
11 19 12 13 6 2 4 4
11 19 11 12 5 2 4 4
10 16 10 11 3 0 2 2
9 13 9 10 2 -2 1 1
8 9 8 9 1 -4 -2 -2
7 6 7 8 0 -5 -4 -4
7 3 7 7 -2 -6 -5 -5
5 1 6 5 -3 -8 -7 -6
3 0 6 4 -4 -9 -9 -7
1 -2 7 3 -5 -11 -11 -8
-2 -3 7 2 -6 -12 -12 -9
-4 -4 7 1 -6 -13 -14 -10
-5 -6 8 0 -8 -14 -15 -11
-5 -7 8 -2 -9 -15 -15 -12
-5 -9 8 -3 -11 -16 -16 -13
-5 -10 8 -4 -12 -17 -16 -14
-5 -11 8 -4 -13 -17 -16 -15
-6 -11 7 -5 -14 -18 -16 -15
-6 -10 7 -4 -13 -17 -15 -14
-7 -9 8 -3 -12 -16 -14 -13
-7 -7 8 -2 -11 -15 -12 -12
-7 -6 8 -2 -10 -15 -11 -11
-8 -5 9 0 -10 -14 -10 -10
-8 -6 8 -2 -11 -15 -11 -11
-8 -7 7 -3 -12 -16 -12 -12
-8 -8 6 -4 -13 -17 -13 -13
-8 -8 5 -5 -14 -18 -14 -14
-8 -9 4 -6 -15 -19 -15 -15
-8 -9 5 -6 -15 -19 -15 -15
-9 -9 5 -6 -14 -18 -16 -16
-9 -9 6 -6 -14 -18 -16 -16
-9 -9 6 -6 -14 -18 -16 -16
-9 -10 7 -5 -13 -17 -17 -17
-8 -10 7 -5 -13 -17 -17 -16
-7 -10 7 -5 -13 -17 -17 -15
-6 -10 7 -5 -13 -17 -17 -14
-5 -10 7 -5 -13 -17 -17 -14
-5 -9 6 -5 -12 -17 -16 -13
-6 -9 6 -5 -12 -17 -16 -13
-7 -9 6 -5 -12 -17 -16 -13
-8 -9 6 -5 -12 -17 -16 -13
-9 -9 6 -5 -12 -17 -16 -13
-8 -10 7 -4 -12 -17 -17 -14
-5 -10 7 0 -12 -17 -17 -14
0 -11 7 2 -11 -17 -17 -15
3 -11 7 5 -11 -17 -17 -15
6 -11 7 8 -11 -17 -17 -15
7 -9 6 -11 -13 -18 -18 -15
7 -4 7 -34 -17 -19 -17 -12
7 1 7 -58 -21 -20 -16 -10
7 5 8 -81 -25 -22 -15 -8
7 10 8 -105 -29 -23 -15 -6
7 26 1 -139 -32 -21 -6 7
6 45 -10 -175 -36 -17 4 20
4 64 -20 -212 -39 -13 14 34
2 82 -31 -247 -44 -9 24 49
1 101 -41 -283 -47 -5 34 62
2 111 -65 -284 -26 19 54 78
6 119 -93 -276 1 48 74 95
10 128 -120 -268 27 75 96 111
13 136 -147 -260 54 104 117 128
17 144 -175 -252 80 133 139 145
17 128 -180 -228 92 138 137 135
16 105 -182 -202 100 137 128 118
14 82 -183 -176 107 136 119 102
12 61 -184 -149 115 135 110 86
11 38 -185 -122 123 134 102 69
6 25 -164 -109 103 110 81 54
1 15 -139 -98 74 81 58 37
-6 5 -112 -87 46 53 35 21
-11 -6 -86 -75 17 24 12 5
-16 -17 -59 -65 -11 -5 -11 -12
-16 -19 -46 -53 -16 -11 -16 -15
-13 -18 -35 -41 -14 -12 -15 -15
-11 -18 -24 -30 -12 -12 -14 -14
-8 -17 -14 -19 -10 -13 -13 -14
-5 -17 -3 -8 -8 -13 -13 -14
-5 -16 0 -5 -7 -14 -12 -13
-7 -17 0 -5 -8 -15 -13 -13
-9 -17 1 -4 -9 -15 -14 -14
-10 -18 1 -4 -10 -16 -15 -14
-12 -18 1 -4 -11 -16 -15 -14
-13 -19 2 -3 -12 -17 -16 -15
-12 -19 3 -3 -13 -18 -17 -16
-11 -19 4 -2 -13 -19 -18 -16
-10 -19 5 -2 -14 -20 -19 -17
-10 -19 6 -2 -14 -21 -19 -17
-9 -20 7 0 -15 -22 -20 -18
-9 -20 7 1 -15 -22 -20 -18
-9 -20 8 1 -15 -22 -21 -18
-9 -20 8 2 -15 -22 -21 -18
-9 -20 8 2 -15 -22 -21 -18
-10 -21 9 3 -15 -23 -22 -18
-9 -21 9 3 -16 -24 -23 -19
-8 -21 9 3 -17 -25 -23 -20
-7 -21 9 3 -18 -26 -24 -21
-7 -21 9 3 -18 -26 -24 -22
-6 -22 8 3 -19 -27 -25 -23
-6 -22 8 4 -19 -27 -25 -23
-5 -22 8 4 -19 -27 -24 -23
-5 -22 8 5 -19 -27 -24 -23
-5 -22 8 5 -19 -27 -24 -23
-4 -21 8 6 -19 -27 -23 -22
-3 -21 8 6 -19 -27 -23 -22
-3 -21 8 6 -19 -26 -22 -22
-2 -21 8 6 -19 -26 -22 -22
-2 -21 8 6 -19 -26 -22 -22
0 -22 8 5 -18 -25 -21 -21
0 -22 8 6 -18 -25 -21 -21
-2 -21 8 7 -18 -24 -21 -21
-2 -21 8 8 -18 -24 -21 -21
-2 -21 8 9 -18 -24 -21 -21
-3 -20 9 10 -17 -23 -21 -20
-3 -20 9 10 -17 -23 -21 -20
-3 -21 8 10 -17 -23 -21 -19
-3 -21 8 10 -17 -23 -21 -19
-3 -21 8 10 -17 -23 -21 -19
-3 -22 7 10 -17 -23 -20 -18
-4 -22 7 10 -17 -23 -20 -18
-4 -22 7 11 -16 -22 -20 -17
-5 -22 7 11 -16 -22 -20 -17
-5 -22 7 11 -16 -22 -20 -17
-5 -21 8 12 -15 -21 -21 -16
-4 -21 8 13 -14 -21 -21 -16
-2 -21 8 13 -14 -20 -21 -16
1 -21 8 14 -13 -20 -21 -16
2 -21 8 14 -13 -20 -21 -16
3 -22 8 15 -12 -19 -22 -16
3 -22 8 16 -12 -19 -22 -16
3 -21 8 17 -12 -19 -22 -15
3 -21 8 18 -12 -19 -22 -15
3 -21 8 18 -12 -19 -22 -15
3 -20 7 19 -13 -19 -21 -14
3 -22 7 19 -13 -19 -21 -14
2 -23 7 19 -12 -19 -20 -14
2 -24 7 19 -12 -19 -20 -14
2 -25 7 19 -12 -19 -20 -14
1 -25 7 19 -11 -18 -19 -15
2 -23 7 20 -10 -17 -18 -14
3 -22 7 22 -10 -17 -17 -14
4 -20 7 24 -9 -16 -16 -13
4 -18 7 25 -9 -16 -15 -13
5 -17 6 26 -8 -15 -14 -12
6 -17 6 27 -8 -14 -13 -12
6 -17 6 27 -7 -14 -13 -11
7 -17 6 28 -7 -13 -12 -11
7 -17 6 28 -7 -13 -12 -11
8 -16 5 29 -6 -12 -11 -10
9 -16 4 30 -5 -12 -10 -10
10 -16 3 31 -4 -11 -9 -10
11 -16 3 31 -4 -11 -8 -10
12 -16 2 32 -3 -11 -7 -10
13 -16 1 33 -2 -9 -5 -8
14 -16 1 34 1 -7 -4 -6
15 -15 0 35 2 -6 -3 -5
16 -15 0 36 3 -4 0 -3
17 -15 0 37 4 -2 1 0
18 -14 -3 38 5 0 2 1
19 -14 -4 38 5 0 2 1
20 -14 -5 38 5 0 2 1
20 -14 -7 38 5 0 2 1
21 -14 -8 38 5 0 2 1
22 -15 -9 37 7 2 4 3
24 -14 -10 38 8 4 5 5
25 -14 -11 38 9 5 7 8
26 -13 -12 39 11 7 8 10
27 -13 -13 39 12 9 10 12
29 -11 -14 40 13 11 11 13
31 -9 -15 40 14 12 12 14
32 -7 -16 40 15 14 13 15
34 -5 -16 40 15 15 14 16
36 -3 -17 40 16 17 15 17
37 -2 -18 40 17 18 17 18
36 0 -19 40 18 19 18 19
35 1 -20 40 19 20 19 20
34 1 -20 40 20 21 21 21
33 2 -21 40 21 22 22 22
32 4 -22 39 22 23 23 23
33 5 -22 39 22 24 24 24
34 6 -22 39 22 25 25 25
35 8 -22 39 22 25 25 25
36 9 -22 39 22 26 26 26
37 10 -23 39 23 27 27 27
38 10 -24 37 23 27 27 28
39 10 -24 36 23 27 27 28
40 10 -25 35 23 27 27 29
42 10 -25 34 23 27 27 29
43 11 -26 33 23 27 27 30
43 12 -26 33 23 27 28 30
43 12 -25 33 23 27 28 30
43 13 -25 33 23 27 29 30
43 13 -25 33 23 27 29 30
39 14 -23 32 22 27 30 31
36 14 -21 32 22 27 30 30
33 14 -20 32 22 27 30 30
30 14 -18 32 22 27 30 29
27 14 -16 32 22 27 30 29
26 14 -14 31 22 27 29 28
24 14 -12 31 22 26 28 27
23 14 -10 30 21 25 27 26
22 14 -7 30 21 25 27 26
21 14 -5 30 21 24 26 25
19 13 -3 29 20 22 24 23
17 13 0 28 18 21 22 21
15 13 2 27 17 19 21 20
13 13 5 27 15 18 19 18
11 13 7 26 14 16 17 16
9 11 8 24 13 14 15 14
8 10 9 23 11 13 13 12
6 8 10 21 10 11 12 10
5 7 11 20 9 10 10 7
3 5 12 18 8 8 8 5
1 4 13 17 7 7 7 4
-2 3 13 16 6 6 6 4
-4 2 13 15 6 5 5 3
-7 2 13 14 5 5 5 3
-9 1 13 13 5 4 4 3
-10 0 14 12 4 3 2 2
-9 0 14 10 3 1 1 1
-9 0 14 9 2 0 -2 0
-8 0 14 8 2 -2 -3 -2
-8 0 14 7 1 -3 -5 -3
-7 0 15 6 0 -4 -6 -4
-6 0 15 6 0 -5 -7 -6
-6 0 14 6 -2 -6 -8 -7
-5 0 14 6 -2 -6 -8 -8
-5 0 14 6 -2 -7 -9 -9
-4 0 13 5 -3 -8 -10 -10
-6 0 14 5 -2 -7 -9 -9
-7 0 14 6 -2 -6 -8 -8
-9 0 15 6 0 -6 -8 -8
-10 0 15 6 0 -5 -7 -7
-11 -2 16 7 1 -4 -6 -6
-10 -2 16 7 1 -5 -7 -7
-9 -3 15 7 0 -5 -7 -8
-9 -3 15 7 0 -6 -8 -8
-8 -3 15 7 0 -6 -8 -9
-7 -4 14 6 -2 -7 -9 -10
-8 -4 14 6 -2 -6 -8 -9
-9 -3 15 7 -2 -5 -8 -8
-10 -3 15 7 -2 -5 -7 -8
-11 -3 15 7 -2 -4 -7 -7
-12 -2 16 8 0 -3 -6 -6
-11 -3 16 8 0 -4 -6 -7
-11 -3 16 9 1 -5 -7 -7
-10 -4 16 9 1 -5 -7 -8
-10 -4 16 9 1 -6 -7 -8
-9 -5 15 10 2 -7 -8 -9
-10 -5 15 11 2 -6 -8 -8
-10 -4 15 11 3 -5 -8 -8
-11 -4 15 12 3 -5 -8 -7
-11 -4 15 12 3 -4 -8 -7
-12 -3 16 13 4 -3 -7 -6
-12 -3 16 13 4 -3 -7 -7
-11 -3 16 13 4 -3 -7 -7
-11 -3 16 13 4 -3 -7 -8
-11 -3 16 13 4 -3 -7 -8
-10 -4 17 12 4 -4 -8 -9
-10 -4 17 12 4 -4 -8 -8
-9 -4 17 13 4 -4 -8 -7
-8 -4 17 13 4 -4 -8 -7
-8 -4 17 13 4 -4 -8 -6
-7 -3 18 14 4 -3 -7 -5
-7 -3 18 14 4 -3 -7 -5
-7 -4 18 14 4 -3 -7 -6
-7 -4 18 14 4 -3 -7 -6
-7 -4 18 14 4 -3 -7 -6
-8 -5 17 14 4 -2 -6 -7
-8 -5 17 14 4 -3 -6 -7
-7 -4 16 13 3 -4 -7 -7
-6 -3 16 12 3 -4 -7 -7
-6 -3 16 12 3 -5 -7 -7
-5 -2 15 11 2 -6 -8 -8
-6 -2 15 11 2 -6 -8 -8
-7 -3 15 11 2 -5 -8 -7
-8 -3 15 11 2 -5 -8 -7
-9 -3 15 11 2 -5 -8 -7
-10 -4 16 12 2 -4 -8 -6
-10 -4 16 12 2 -4 -8 -6
-10 -4 16 11 1 -5 -8 -7
-10 -4 16 10 0 -5 -8 -7
-10 -4 16 10 0 -5 -8 -7
-11 -5 15 9 -2 -6 -8 -8
-11 -5 15 9 -2 -6 -8 -8
-11 -5 15 8 -2 -7 -8 -8
-11 -5 15 8 -2 -7 -8 -8
-11 -5 15 8 -2 -7 -8 -8
-10 -5 14 7 -3 -8 -9 -8
-10 -5 14 7 -3 -8 -9 -8
-9 -6 14 6 -4 -8 -10 -8
-9 -6 14 6 -4 -8 -11 -8
-9 -6 14 6 -4 -8 -11 -8
-8 -7 13 5 -5 -8 -12 -9
-10 -7 13 5 -5 -8 -12 -9
-11 -6 14 5 -5 -8 -11 -8
-13 -6 14 5 -5 -8 -10 -7
-14 -6 14 5 -5 -8 -10 -7
-15 -5 15 6 -5 -7 -9 -6
-14 -5 14 6 -6 -8 -9 -7
-12 -4 13 5 -7 -9 -10 -8
-11 -4 13 4 -7 -9 -11 -8
-10 -4 12 4 -8 -10 -11 -9
-9 -3 11 3 -9 -11 -12 -10
-10 -4 11 3 -9 -11 -12 -10
-11 -5 11 3 -9 -12 -13 -10
-11 -6 11 3 -9 -12 -13 -10
-12 -7 11 3 -9 -12 -13 -10
-13 -8 12 2 -10 -13 -14 -11
-13 -8 12 2 -10 -13 -14 -11
-13 -7 12 2 -10 -13 -14 -11
-13 -7 12 2 -10 -13 -14 -11
-13 -7 12 2 -10 -13 -14 -11
-13 -6 13 3 -9 -13 -13 -12
-13 -6 13 3 -9 -13 -13 -12
-13 -6 13 3 -9 -13 -13 -13
-13 -6 13 3 -9 -13 -13 -14
-13 -6 13 3 -9 -13 -13 -14
-13 -6 12 2 -9 -12 -13 -15
-13 -6 12 2 -9 -12 -13 -14
-12 -5 13 2 -9 -12 -13 -13
-12 -4 13 2 -9 -12 -13 -12
-12 -4 13 2 -9 -12 -13 -11
-11 -3 14 1 -10 -13 -13 -10
-11 -3 15 1 -10 -12 -12 -10
-11 -3 16 2 -9 -11 -11 -10
-11 -3 16 3 -8 -11 -11 -10
-11 -3 17 3 -8 -10 -10 -10
-11 -2 18 4 -7 -9 -9 -10
-11 1 19 4 -7 -9 -9 -10
-12 2 20 4 -7 -9 -9 -9
-12 4 20 4 -7 -9 -9 -8
-12 5 21 4 -7 -9 -9 -8
-12 7 22 5 -6 -8 -9 -7
-10 9 22 6 -6 -7 -8 -6
-7 11 22 7 -5 -6 -7 -5
-5 13 22 7 -4 -6 -6 -4
-2 15 22 8 -4 -5 -5 -3
0 17 22 9 -3 -4 -4 -2
2 19 21 11 0 -2 -3 0
3 21 20 12 1 1 0 2
5 23 20 14 3 2 1 3
6 25 19 15 4 4 2 4
7 26 18 16 5 5 3 5
6 24 18 16 5 5 3 5
5 22 17 16 5 5 3 4
4 21 17 16 5 5 3 4
3 19 17 16 5 5 3 4
2 18 16 16 6 5 3 3
2 16 15 15 5 4 2 3
2 15 13 13 4 2 1 2
2 13 12 12 3 1 1 2
2 12 11 11 2 0 0 2
1 10 10 10 1 -2 -2 1
0 8 10 8 -2 -4 -4 -2
-2 6 10 7 -4 -6 -6 -4
-3 4 10 5 -5 -7 -7 -5
-4 1 10 4 -7 -9 -9 -7
-5 0 10 3 -8 -10 -10 -8
-7 -3 10 2 -9 -10 -10 -9
-9 -4 9 1 -10 -11 -11 -10
-10 -6 9 1 -11 -12 -12 -11
-12 -7 9 0 -12 -12 -12 -12
-13 -8 8 -2 -13 -13 -13 -13
-14 -8 8 -2 -13 -13 -13 -13
-15 -9 8 -2 -14 -14 -14 -13
-15 -9 8 -2 -14 -14 -14 -13
-16 -9 8 -2 -14 -14 -14 -13
-17 -10 8 -3 -15 -15 -15 -14
-16 -10 8 -3 -15 -15 -15 -14
-15 -10 8 -4 -15 -15 -15 -14
-15 -10 8 -4 -15 -15 -15 -14
-14 -10 8 -4 -15 -15 -15 -14
-13 -9 8 -5 -14 -15 -15 -14
-13 -9 8 -5 -14 -15 -15 -14
-14 -10 8 -5 -14 -15 -15 -14
-14 -11 8 -5 -14 -15 -15 -14
-14 -11 8 -5 -14 -15 -15 -14
-15 -12 7 -6 -14 -16 -15 -13
-15 -11 7 -6 -14 -16 -15 -13
-15 -10 7 -5 -14 -16 -15 -13
-15 -10 7 -5 -14 -16 -15 -13
-15 -9 7 -5 -14 -16 -15 -13
-14 -8 7 -4 -13 -15 -14 -13
-15 -9 7 -4 -13 -15 -14 -13
-16 -10 7 -4 -14 -15 -15 -13
-16 -11 7 -4 -14 -15 -15 -13
-17 -12 7 -4 -14 -15 -15 -13
-18 -13 6 -5 -15 -16 -16 -13
-17 -13 6 -4 -14 -16 -16 -13
-16 -12 6 -3 -13 -15 -15 -13
-16 -12 6 -3 -13 -15 -15 -13
-15 -12 6 -2 -12 -15 -15 -13
-13 -11 7 0 -11 -14 -14 -13
-11 -12 8 0 -11 -15 -15 -14
-9 -13 10 0 -12 -16 -17 -16
-7 -13 11 0 -12 -16 -18 -17
-5 -14 12 0 -12 -17 -19 -18
-3 -11 12 -15 -15 -18 -20 -18
1 -4 9 -41 -20 -19 -18 -15
3 4 7 -69 -24 -20 -16 -11
6 12 4 -96 -29 -21 -15 -8
8 19 2 -123 -33 -22 -13 -5
8 32 -5 -149 -35 -18 -4 7
5 51 -14 -175 -31 -7 11 25
1 69 -23 -200 -27 4 26 44
-4 88 -32 -225 -24 15 40 62
-8 106 -40 -251 -20 26 56 80
-7 116 -61 -257 -4 46 72 96
0 119 -89 -243 24 71 92 108
6 123 -117 -230 52 98 110 121
12 127 -145 -217 78 125 129 134
18 130 -174 -203 106 151 147 146
18 118 -185 -186 119 158 145 140
10 93 -180 -164 117 148 122 115
3 68 -176 -143 115 139 101 92
-5 43 -171 -121 114 129 78 68
-12 17 -166 -99 112 118 57 44
-17 3 -151 -85 98 101 39 28
-19 -3 -127 -76 73 76 28 19
-21 -8 -102 -68 48 52 16 11
-23 -13 -77 -60 23 27 5 2
-25 -18 -54 -51 -3 3 -8 -7
-25 -21 -37 -43 -15 -10 -14 -12
-23 -20 -30 -34 -13 -11 -14 -12
-21 -18 -22 -26 -12 -12 -14 -12
-19 -17 -15 -18 -11 -12 -14 -12
-17 -16 -7 -9 -9 -13 -14 -12
-15 -15 -3 -5 -8 -14 -14 -11
-15 -15 -3 -5 -9 -15 -14 -12
-14 -16 -2 -4 -10 -17 -15 -14
-14 -16 0 -4 -10 -18 -15 -15
-14 -16 0 -4 -11 -19 -15 -16
-13 -17 1 -3 -12 -20 -16 -17
-13 -19 1 -3 -13 -20 -17 -17
-14 -20 2 -2 -14 -20 -18 -17
-15 -21 2 -2 -14 -20 -18 -17
-15 -23 2 -2 -15 -20 -19 -17
-16 -24 3 0 -16 -21 -20 -18
-16 -24 3 0 -16 -21 -20 -18
-16 -24 4 1 -16 -21 -21 -18
-16 -24 4 2 -16 -21 -21 -18
-16 -24 4 2 -16 -21 -21 -18
-15 -23 5 3 -15 -21 -22 -19
-15 -23 5 3 -15 -21 -22 -19
-15 -23 5 3 -16 -22 -22 -19
-15 -23 5 3 -16 -22 -22 -19
-15 -23 5 3 -16 -22 -22 -19
-16 -24 6 3 -17 -23 -22 -18
-16 -24 6 3 -17 -23 -22 -18
-15 -24 6 4 -16 -22 -21 -17
-14 -24 6 4 -16 -22 -20 -17
-14 -24 6 4 -16 -22 -20 -17
-13 -23 6 5 -15 -21 -19 -16
-12 -23 6 5 -15 -21 -19 -16
-11 -22 6 5 -15 -21 -19 -17
-10 -21 6 5 -15 -21 -19 -17
-9 -21 6 5 -15 -21 -19 -17
-8 -20 5 5 -15 -22 -20 -18
-8 -20 5 5 -15 -22 -20 -18
-8 -20 5 5 -15 -22 -20 -17
-8 -20 5 5 -15 -22 -20 -17
-8 -20 5 5 -15 -22 -20 -17
-9 -20 5 6 -14 -23 -21 -16
-9 -20 5 6 -14 -22 -21 -16
-9 -20 5 6 -14 -22 -21 -16
-9 -20 4 6 -14 -21 -21 -16
-9 -20 4 6 -14 -20 -21 -16
-10 -21 3 7 -15 -19 -20 -16
-10 -21 3 7 -15 -19 -20 -16
-10 -21 3 7 -15 -20 -20 -16
-10 -21 3 7 -15 -21 -20 -15
-10 -21 3 7 -15 -21 -20 -15
-9 -21 2 8 -14 -22 -20 -14
-8 -21 2 8 -14 -22 -20 -14
-7 -21 2 9 -14 -22 -20 -14
-5 -21 2 10 -14 -21 -20 -14
-4 -21 2 10 -14 -21 -20 -14
-3 -20 1 11 -13 -20 -21 -15
-3 -20 1 11 -13 -20 -21 -15
-3 -20 1 11 -12 -20 -21 -15
-2 -19 1 11 -11 -20 -21 -15
-2 -19 1 11 -11 -20 -21 -15
0 -18 0 12 -10 -19 -21 -15
0 -18 0 13 -10 -19 -20 -14
-2 -18 0 13 -10 -18 -19 -14
-3 -18 0 14 -10 -17 -18 -13
-3 -18 0 15 -10 -17 -17 -12
-4 -19 0 16 -10 -16 -16 -11
-3 -18 0 17 -9 -15 -15 -10
-3 -18 0 18 -8 -15 -14 -10
-2 -17 0 19 -6 -14 -12 -9
0 -16 0 20 -5 -13 -11 -8
1 -15 0 21 -4 -12 -10 -7
2 -15 -2 21 -4 -12 -10 -7
3 -15 -3 21 -4 -12 -10 -7
4 -15 -4 21 -4 -12 -10 -7
5 -15 -5 21 -4 -12 -10 -7
6 -14 -6 22 -5 -12 -9 -7
8 -14 -6 22 -4 -11 -8 -7
9 -14 -7 23 -3 -10 -8 -6
11 -14 -8 24 -2 -8 -7 -5
13 -14 -8 24 0 -7 -6 -5
14 -14 -9 25 1 -6 -5 -4
14 -14 -9 26 2 -5 -3 -3
13 -13 -10 26 2 -4 -2 -2
12 -12 -11 27 3 -3 1 1
12 -12 -11 28 4 -2 3 2
12 -11 -12 29 5 0 4 3
15 -11 -14 29 5 1 4 4
18 -10 -15 29 5 2 4 5
22 -9 -17 29 5 3 5 6
25 -9 -19 29 5 4 5 7
27 -8 -20 30 5 5 6 8
27 -7 -22 30 5 5 7 9
28 -6 -23 30 6 5 8 10
29 -4 -24 29 7 5 9 11
29 -3 -26 29 7 5 10 12
30 -2 -27 28 8 6 11 13
30 1 -27 28 8 8 12 15
31 2 -27 28 9 10 13 17
32 4 -28 28 10 12 15 19
32 6 -28 28 10 14 16 21
33 7 -29 29 11 15 17 22
34 8 -29 29 12 17 18 23
35 8 -30 29 13 18 18 24
37 9 -31 29 14 19 19 25
38 10 -31 29 15 21 20 26
39 11 -32 28 16 22 21 27
38 11 -33 28 16 22 22 27
38 11 -33 27 16 22 23 28
37 12 -34 26 16 22 24 29
36 12 -35 26 16 22 25 29
35 13 -36 25 17 23 26 30
37 14 -37 24 17 23 26 30
39 15 -37 23 17 23 26 31
42 16 -38 22 17 23 26 32
44 17 -39 21 17 23 26 32
46 18 -40 20 16 22 27 33
44 18 -38 20 16 23 28 33
43 18 -37 20 16 23 29 33
40 18 -36 20 17 24 31 33
38 18 -34 20 17 25 32 33
37 19 -33 19 18 26 33 34
37 19 -31 19 18 25 32 34
36 19 -30 19 17 25 31 33
35 19 -28 18 16 24 29 32
35 19 -26 18 16 23 28 32
34 19 -25 17 15 22 27 31
32 19 -22 17 15 21 26 29
31 18 -20 17 15 20 25 28
29 17 -18 17 15 19 23 27
27 17 -16 17 15 18 22 25
26 16 -14 18 15 17 21 24
25 16 -12 18 14 16 19 22
23 17 -11 17 13 14 17 20
22 18 -9 16 12 13 15 18
20 18 -7 16 11 11 14 16
18 19 -6 15 10 10 12 14
15 18 -3 15 10 10 10 12
11 16 0 15 10 9 9 11
8 15 2 14 10 8 7 9
4 13 4 14 10 8 5 7
2 12 6 13 10 7 4 6
2 12 6 13 10 7 3 6
2 11 6 12 10 6 3 6
2 10 6 11 9 5 2 5
2 10 6 11 9 5 1 5
2 9 7 10 8 4 0 4
2 8 7 9 7 3 -2 3
1 7 7 9 6 2 -2 3
0 6 7 8 4 0 -3 2
0 5 7 7 3 -2 -4 1
-2 4 6 6 2 -3 -5 0
-3 4 6 6 2 -3 -5 0
-4 3 6 6 2 -3 -5 0
-5 2 6 6 2 -3 -4 -2
-6 2 6 6 2 -3 -4 -2
-7 1 7 5 1 -4 -3 -3
-7 1 7 5 2 -4 -3 -3
-7 1 7 5 2 -4 -3 -3
-6 1 7 5 3 -3 -3 -3
-6 1 7 5 4 -3 -3 -3
-5 1 7 6 5 -2 -3 -3
-5 1 7 6 5 -2 -3 -3
-5 1 7 6 5 -2 -3 -3
-5 0 7 6 4 -2 -3 -3
-5 0 7 6 4 -2 -3 -3
-6 -2 7 7 3 -3 -4 -3
-6 -2 7 7 3 -3 -4 -3
-6 0 8 7 3 -3 -4 -3
-6 1 9 7 3 -3 -5 -4
-6 1 9 7 3 -3 -5 -4
-5 2 10 7 4 -4 -6 -5
-5 2 10 8 4 -4 -6 -5
-4 2 10 9 5 -4 -6 -5
-3 1 10 10 6 -3 -6 -5
-3 1 10 11 6 -3 -6 -5
-2 0 10 12 7 -2 -6 -5
-3 0 10 12 7 -2 -6 -5
-3 0 10 12 7 0 -6 -5
-4 0 10 12 8 1 -6 -4
-5 0 10 12 8 1 -6 -4
-6 1 10 13 9 2 -5 -3
-4 1 10 13 9 2 -5 -3
-2 1 10 13 9 2 -5 -3
1 2 10 12 8 1 -5 -3
3 2 10 12 8 1 -5 -3
5 3 9 11 7 0 -5 -4
2 3 9 11 7 0 -5 -4
0 2 9 11 7 0 -5 -4
-3 1 10 11 7 0 -5 -4
-5 1 10 11 7 0 -5 -4
-7 0 11 11 7 -2 -4 -5
-5 1 11 11 7 -2 -4 -5
-4 2 10 11 7 -2 -4 -5
-2 4 9 11 7 -2 -5 -5
1 5 9 11 7 -2 -5 -5
2 6 8 10 6 -2 -6 -6
1 6 8 10 6 -2 -6 -6
0 5 8 10 6 -2 -5 -6
-3 4 9 10 6 -2 -4 -6
-4 4 9 10 6 -2 -4 -6
-5 3 10 11 7 0 -3 -5
-4 3 10 10 6 0 -3 -5
-2 2 10 10 5 -2 -4 -5
0 1 9 9 4 -3 -5 -5
2 1 9 8 3 -3 -5 -5
3 0 8 7 2 -4 -6 -5
0 0 8 7 2 -4 -6 -5
-3 0 9 7 2 -4 -6 -5
-5 0 10 7 2 -4 -6 -6
-7 0 10 7 2 -4 -6 -6
-9 0 11 8 3 -3 -6 -7
-8 0 11 8 3 -3 -6 -7
-6 0 11 7 2 -3 -6 -7
-5 1 11 6 1 -4 -6 -7
-3 1 11 6 1 -4 -6 -7
-2 2 10 5 0 -5 -7 -7
-3 1 10 5 0 -5 -7 -7
-3 -2 10 4 0 -5 -7 -7
-4 -3 10 3 0 -6 -7 -7
-5 -5 10 3 0 -6 -7 -7
-6 -6 9 2 -2 -7 -8 -8
-6 -6 9 2 -2 -7 -8 -8
-6 -5 9 2 -2 -6 -7 -8
-5 -4 9 2 -2 -5 -6 -7
-5 -4 9 2 -2 -5 -6 -7
-4 -3 9 3 0 -4 -5 -6
-4 -3 9 3 -2 -5 -6 -7
-4 -3 9 3 -3 -6 -6 -7
-4 -3 8 2 -4 -7 -7 -8
-4 -3 8 2 -5 -8 -8 -9
-4 -4 7 1 -6 -9 -9 -10
-5 -4 7 1 -6 -9 -9 -10
-5 -4 7 1 -6 -9 -9 -10
-6 -4 8 0 -6 -9 -10 -10
-7 -4 8 0 -6 -9 -10 -10
-8 -5 9 -2 -7 -10 -11 -10
-7 -5 9 -2 -7 -10 -11 -11
-7 -5 9 -2 -7 -10 -11 -12
-6 -5 9 -2 -7 -11 -12 -13
-5 -5 9 -2 -7 -11 -12 -14
-4 -6 9 -3 -8 -12 -13 -15
-4 -6 9 -3 -8 -12 -13 -15
-4 -6 9 -3 -8 -12 -13 -14
-5 -6 9 -3 -8 -11 -13 -13
-5 -6 9 -3 -8 -11 -13 -13
-6 -5 10 -2 -8 -10 -12 -12
-6 -5 10 -2 -8 -10 -12 -12
-6 -4 10 -2 -8 -10 -12 -12
-6 -3 10 -3 -8 -10 -12 -12
-6 -3 10 -3 -8 -10 -12 -12
-5 -2 11 -4 -9 -10 -12 -13
-5 -2 11 -4 -9 -10 -12 -13
-5 -2 11 -4 -9 -10 -12 -13
-6 -2 11 -3 -9 -10 -12 -13
-6 -2 11 -3 -9 -10 -12 -13
-7 -2 12 -2 -8 -11 -11 -13
-6 -2 12 -2 -8 -11 -11 -13
-5 -2 12 -2 -8 -11 -11 -13
-4 -2 12 -2 -8 -11 -11 -13
-2 -2 12 -2 -8 -11 -11 -13
0 -2 12 -3 -8 -12 -12 -14
-2 0 13 -2 -7 -11 -11 -12
-3 1 14 -2 -7 -10 -10 -10
-4 2 15 0 -6 -9 -9 -9
-6 4 17 1 -5 -8 -8 -7
-7 5 18 2 -4 -7 -7 -5
-5 7 18 3 -4 -6 -6 -5
-3 10 18 3 -3 -5 -5 -5
0 12 18 4 -3 -4 -4 -4
2 14 18 5 -2 -3 -3 -4
4 16 18 6 0 -2 -2 -3
5 18 18 7 2 0 0 -2
6 21 18 8 3 2 1 -2
7 23 18 9 5 3 2 0
9 25 18 10 6 5 4 1
10 27 17 11 8 6 5 2
11 26 17 11 8 6 5 2
11 25 16 11 7 6 5 2
12 24 16 11 7 5 4 2
13 23 15 11 6 5 4 2
14 22 14 10 5 4 3 1
13 21 13 9 4 3 2 0
13 19 12 8 4 3 2 -2
12 18 11 7 3 2 1 -3
11 16 9 6 2 1 0 -4
10 15 8 5 1 0 -2 -5
10 14 8 4 0 -2 -3 -6
9 13 8 3 0 -2 -3 -8
9 12 8 2 -2 -3 -4 -9
8 11 8 1 -3 -4 -5 -11
7 10 8 0 -4 -5 -6 -12
5 7 8 -2 -5 -6 -6 -12
4 5 8 -3 -5 -6 -7 -13
2 3 8 -4 -6 -7 -7 -13
1 0 8 -5 -7 -8 -8 -14
-2 -3 9 -6 -8 -9 -9 -15
-2 -3 9 -6 -8 -9 -10 -15
-3 -4 9 -6 -9 -10 -10 -15
-3 -4 9 -6 -9 -10 -11 -15
-4 -5 9 -6 -10 -11 -12 -15
-5 -6 8 -7 -11 -12 -13 -16
-6 -6 8 -7 -11 -12 -13 -16
-7 -6 8 -7 -11 -12 -13 -16
-8 -7 8 -7 -11 -13 -13 -16
-10 -7 8 -7 -11 -13 -13 -16
-11 -8 9 -7 -12 -14 -13 -16
-11 -8 9 -7 -12 -14 -13 -16
-11 -8 9 -7 -12 -14 -13 -16
-11 -8 9 -7 -12 -14 -13 -16
-11 -8 9 -7 -12 -14 -13 -16
-10 -8 8 -8 -13 -13 -12 -17
-9 -8 8 -8 -13 -13 -12 -17
-8 -8 8 -8 -13 -13 -12 -17
-7 -8 7 -9 -13 -14 -13 -17
-6 -8 7 -9 -13 -14 -13 -17
-5 -8 6 -10 -14 -15 -14 -17
-5 -8 6 -10 -14 -15 -14 -17
-5 -8 6 -10 -14 -15 -14 -17
-5 -8 6 -9 -14 -15 -13 -18
-5 -8 6 -9 -14 -15 -13 -18
-5 -9 5 -8 -15 -15 -12 -19
-5 -9 6 -8 -14 -14 -11 -18
-6 -9 6 -7 -12 -12 -10 -17
-6 -9 7 -7 -11 -11 -9 -16
-7 -9 8 -6 -10 -10 -8 -15
-8 -8 9 -5 -8 -8 -7 -14
-5 -9 9 -3 -8 -9 -8 -15
-2 -10 9 0 -8 -9 -8 -16
2 -11 9 1 -8 -10 -9 -17
5 -13 9 3 -8 -11 -10 -18
8 -13 8 0 -10 -12 -11 -19
8 -9 8 -21 -14 -14 -11 -18
9 -5 8 -41 -18 -16 -12 -18
9 0 8 -62 -23 -18 -12 -17
10 4 8 -83 -27 -20 -13 -16
11 11 6 -108 -32 -22 -12 -12
10 28 -2 -144 -36 -18 -3 1
10 47 -9 -181 -40 -15 6 13
9 64 -16 -217 -46 -11 15 25
8 82 -22 -253 -50 -8 24 37
7 98 -33 -279 -49 2 36 52
9 107 -57 -274 -25 28 59 71
10 116 -80 -269 -2 56 82 91
12 126 -104 -264 22 82 105 109
13 135 -128 -259 46 109 128 129
15 138 -147 -249 66 130 144 141
15 118 -155 -226 77 133 139 132
14 100 -163 -202 89 136 134 122
14 80 -171 -179 100 139 129 113
13 61 -179 -155 110 142 122 103
11 44 -179 -134 113 138 112 91
4 31 -153 -120 87 108 88 68
-4 19 -129 -107 60 79 62 46
-11 7 -103 -94 33 50 37 23
-17 -6 -77 -79 7 20 12 1
-23 -16 -56 -67 -14 -3 -8 -17
-20 -16 -46 -56 -14 -5 -8 -17
-17 -16 -34 -45 -14 -7 -8 -17
-14 -16 -24 -33 -14 -8 -8 -16
-11 -16 -13 -22 -14 -10 -8 -16
-8 -16 -5 -13 -14 -12 -9 -15
-8 -16 -4 -12 -14 -13 -9 -15
-7 -16 -3 -10 -15 -14 -9 -16
-6 -16 -2 -8 -15 -15 -10 -17
-5 -16 1 -7 -16 -17 -10 -18
-4 -17 2 -5 -17 -18 -11 -19
-5 -17 2 -5 -17 -18 -11 -19
-6 -17 3 -5 -17 -18 -12 -20
-7 -17 4 -5 -17 -18 -13 -20
-8 -17 5 -5 -17 -18 -14 -21
-9 -16 6 -4 -17 -19 -15 -22
-9 -17 6 -4 -17 -19 -15 -22
-8 -19 6 -3 -17 -20 -15 -23
-7 -20 6 -2 -18 -21 -16 -23
-6 -21 6 0 -18 -22 -16 -24
-5 -23 7 1 -19 -23 -17 -25
-5 -22 7 1 -19 -23 -17 -25
-5 -21 7 1 -20 -23 -17 -25
-5 -20 7 1 -21 -24 -18 -25
-5 -18 7 1 -22 -24 -18 -25
-5 -17 8 0 -23 -25 -19 -26
-5 -17 8 0 -23 -25 -19 -26
-4 -18 8 0 -23 -25 -19 -26
-4 -19 8 1 -23 -24 -18 -25
-3 -20 8 1 -23 -24 -18 -25
-2 -21 7 2 -23 -23 -17 -24
-3 -21 7 2 -23 -23 -17 -24
-4 -21 7 3 -23 -23 -17 -24
-5 -21 8 4 -23 -23 -16 -25
-7 -21 8 5 -23 -23 -16 -25
-8 -20 9 6 -22 -23 -15 -26
-7 -20 9 6 -22 -23 -15 -26
-6 -20 9 6 -22 -24 -15 -26
-5 -20 8 6 -22 -24 -16 -26
-4 -20 8 6 -22 -25 -16 -26
-3 -21 7 5 -23 -26 -17 -25
-3 -21 7 5 -23 -26 -17 -25
-3 -21 7 5 -22 -25 -17 -25
-3 -21 7 6 -21 -25 -17 -24
-3 -21 7 6 -20 -24 -17 -24
-3 -22 8 7 -19 -23 -16 -23
-3 -22 8 7 -19 -23 -16 -23
-3 -22 8 7 -19 -23 -16 -23
-3 -22 7 8 -19 -23 -16 -23
-3 -22 7 8 -19 -23 -16 -23
-2 -22 6 9 -19 -23 -17 -22
0 -21 6 9 -19 -23 -17 -22
1 -20 6 9 -19 -23 -17 -22
2 -19 6 10 -19 -22 -17 -22
4 -18 6 10 -19 -22 -17 -22
5 -17 5 11 -18 -21 -17 -21
5 -17 5 12 -18 -21 -17 -21
5 -18 5 13 -17 -21 -17 -21
5 -19 5 14 -16 -21 -17 -21
5 -20 5 16 -15 -21 -17 -21
4 -21 5 17 -14 -21 -16 -22
4 -21 5 17 -14 -21 -16 -22
4 -20 5 17 -14 -21 -16 -22
4 -20 5 17 -14 -20 -15 -21
4 -19 5 17 -14 -20 -15 -21
4 -18 6 18 -14 -19 -14 -20
4 -18 6 18 -14 -19 -13 -20
4 -18 6 19 -13 -18 -11 -19
4 -18 6 20 -12 -17 -9 -19
4 -18 6 21 -11 -16 -8 -18
5 -19 5 22 -10 -15 -6 -17
5 -19 5 23 -10 -15 -6 -16
5 -19 5 24 -10 -15 -6 -15
6 -19 5 25 -9 -14 -5 -14
6 -19 5 27 -9 -14 -5 -13
7 -20 5 28 -8 -13 -4 -12
9 -20 4 28 -8 -13 -4 -12
11 -20 3 28 -7 -12 -3 -12
14 -20 2 29 -6 -11 -3 -11
16 -20 0 29 -5 -10 -2 -11
18 -21 -2 30 -4 -9 0 -10
18 -21 -2 31 -4 -9 0 -10
17 -21 -2 32 -3 -8 0 -10
16 -20 -2 33 -2 -8 1 -10
15 -20 -2 34 0 -7 1 -10
14 -19 -3 35 1 -6 2 -9
15 -18 -4 36 2 -5 3 -8
17 -17 -6 37 3 -4 5 -7
18 -16 -7 38 4 -3 7 -6
19 -14 -8 39 5 0 8 -4
21 -13 -10 40 6 1 10 -3
22 -13 -11 40 7 2 11 0
24 -13 -12 40 9 4 12 2
26 -13 -13 42 10 5 13 4
27 -13 -14 42 11 6 15 7
29 -12 -15 43 13 8 16 9
31 -11 -16 43 14 9 16 9
34 -9 -17 43 15 11 17 10
36 -7 -18 44 16 12 18 11
39 -6 -19 44 17 13 19 12
42 -4 -20 45 18 15 20 13
42 -3 -20 45 19 16 21 14
42 0 -20 45 20 17 23 16
40 2 -21 45 21 18 24 17
40 3 -21 45 22 19 25 18
39 5 -22 45 23 20 27 20
38 5 -22 45 23 21 29 21
37 5 -22 45 24 22 30 22
36 5 -23 44 25 23 32 23
35 5 -23 44 26 24 34 24
34 6 -24 43 27 26 36 25
35 7 -25 42 27 26 36 26
36 9 -26 40 26 26 36 27
37 10 -27 39 26 26 36 28
38 11 -28 38 25 26 36 29
39 13 -29 37 24 26 37 30
39 13 -29 37 24 26 37 30
38 13 -28 37 24 26 37 30
38 14 -27 36 25 26 38 30
37 14 -26 36 25 26 38 30
36 15 -25 35 26 27 39 29
36 15 -24 35 25 27 39 29
36 15 -22 34 24 26 38 28
36 16 -21 33 23 25 38 28
36 16 -20 32 22 24 37 27
35 17 -18 31 21 23 36 26
32 17 -16 31 21 23 36 26
29 17 -13 31 21 23 36 25
