I II V1 V2 V3 V4 V5 V6
-11 -5 3 -5 11 4 -2 -9
-10 -5 3 -5 11 4 -2 -9
-9 -5 3 -5 11 4 -2 -9
-8 -4 2 -5 11 5 -2 -9
-7 -4 2 -5 11 5 -2 -9
-6 -4 2 -5 11 5 -2 -9
-5 -3 0 -6 9 5 0 -9
-4 -4 -2 -7 8 4 -2 -10
-3 -5 -3 -7 6 3 -3 -12
-2 -6 -4 -8 5 2 -4 -13
0 -6 -5 -8 4 1 -5 -14
2 -4 -6 -9 3 0 -6 -15
4 1 -6 -9 3 0 -6 -15
6 5 -5 -9 4 0 -6 -15
8 9 -5 -9 4 0 -6 -15
9 12 -5 -9 4 0 -6 -15
9 11 -4 -8 5 2 -5 -13
7 8 -4 -7 6 3 -3 -11
5 5 -3 -6 7 5 0 -8
3 2 -3 -5 8 6 2 -6
1 0 -3 -5 9 7 4 -4
-2 -2 -2 -4 10 8 5 -3
-3 -2 -3 -5 9 7 5 -4
-4 -2 -3 -5 8 7 4 -4
-5 -2 -4 -6 7 6 4 -5
-6 -2 -4 -6 7 6 4 -5
-7 -3 -5 -7 6 5 3 -6
-6 -3 -6 -8 5 4 2 -6
-5 -3 -6 -8 4 3 1 -7
-4 -3 -7 -9 3 2 0 -7
-4 -3 -7 -9 2 2 -2 -7
-2 -2 -8 -10 1 1 -3 -8
0 0 -8 -11 1 1 -3 -8
2 1 -8 -11 1 1 -4 -9
3 2 -8 -12 1 1 -4 -9
4 2 -8 -12 1 1 -4 -9
4 2 -9 -13 2 2 -5 -10
3 1 -9 -13 1 1 -5 -10
2 0 -9 -13 1 0 -5 -10
1 -2 -9 -13 0 -2 -5 -10
0 -3 -9 -13 0 -2 -5 -10
-2 -4 -9 -14 -2 -3 -6 -9
-2 -4 -9 -15 -3 -3 -6 -9
-3 -5 -10 -16 -3 -3 -6 -9
-3 -5 -10 -17 -4 -3 -6 -9
-3 -5 -10 -17 -4 -3 -6 -9
-4 -6 -11 -18 -5 -3 -7 -10
-4 -6 -11 -18 -5 -3 -7 -10
-5 -6 -11 -18 -5 -3 -7 -10
-5 -6 -11 -18 -5 -3 -7 -10
-5 -6 -11 -18 -5 -3 -7 -10
-6 -7 -11 -17 -6 -3 -7 -10
-6 -6 -10 -16 -5 -2 -5 -8
-7 -6 -9 -15 -4 0 -4 -7
-7 -5 -8 -14 -3 1 -2 -5
-7 -5 -7 -13 -2 2 0 -4
-8 -4 -6 -12 -2 2 0 -4
-8 -4 -7 -13 -3 1 -2 -5
-8 -4 -8 -14 -4 0 -4 -7
-8 -4 -9 -15 -5 -2 -5 -8
-8 -4 -10 -15 -6 -3 -6 -9
-7 -4 -11 -16 -7 -4 -7 -10
-6 -3 -10 -16 -6 -3 -6 -9
-5 -2 -10 -16 -6 -2 -6 -9
-4 0 -9 -16 -5 0 -5 -8
-3 1 -9 -16 -5 1 -5 -8
-2 2 -7 -14 -3 2 -4 -7
-2 3 -5 -12 -2 3 -3 -7
-2 3 -4 -11 1 4 -2 -6
-2 4 -2 -9 2 5 0 -6
-2 4 0 -8 3 6 1 -6
-3 5 1 -7 4 7 3 -4
-3 6 2 -6 5 8 4 -2
-2 7 2 -6 6 9 6 0
-2 8 3 -5 7 10 7 2
-2 8 3 -5 8 11 8 3
0 7 3 -4 8 11 8 4
0 5 1 -5 6 9 7 3
0 2 -2 -6 4 8 5 2
0 0 -4 -7 2 6 4 1
0 -3 -5 -7 0 5 3 1
4 -3 -7 -8 -2 4 2 0
7 0 -8 -9 -2 4 2 0
10 2 -9 -10 -2 4 3 0
14 4 -10 -11 -2 4 3 0
17 6 -11 -12 -2 4 3 0
17 7 -13 -15 -4 3 2 -3
16 7 -15 -17 -7 1 -2 -4
14 6 -17 -20 -9 -2 -4 -5
13 6 -19 -22 -12 -4 -7 -6
12 6 -20 -24 -14 -6 -9 -7
11 5 -21 -25 -15 -7 -10 -8
12 4 -21 -25 -15 -7 -9 -7
13 4 -21 -25 -15 -7 -8 -7
14 3 -21 -25 -15 -7 -7 -6
14 3 -21 -25 -15 -7 -6 -6
15 2 -20 -24 -14 -6 -5 -5
14 3 -20 -24 -14 -6 -5 -5
14 4 -20 -24 -14 -6 -5 -5
13 5 -20 -24 -14 -6 -5 -5
13 5 -20 -24 -14 -6 -5 -5
10 5 -20 -23 -15 -5 -4 -5
8 4 -19 -22 -15 -5 -4 -5
5 3 -18 -22 -15 -4 -3 -5
2 2 -17 -21 -15 -4 -3 -5
0 1 -17 -21 -15 -4 -3 -5
-2 -5 -16 -20 -15 -4 -3 -6
-3 -9 -16 -21 -16 -6 -5 -8
-4 -13 -17 -22 -18 -8 -7 -9
-5 -18 -17 -23 -19 -10 -9 -11
-5 -22 -17 -24 -20 -11 -10 -12
-6 -22 -18 -25 -21 -12 -11 -13
-6 -20 -18 -25 -21 -12 -11 -13
-6 -18 -18 -25 -21 -12 -11 -13
-6 -16 -18 -25 -21 -12 -11 -13
-6 -15 -18 -25 -21 -12 -11 -13
-8 -14 -18 -26 -22 -12 -11 -13
-9 -14 -17 -25 -21 -11 -11 -13
-11 -13 -16 -24 -21 -11 -10 -13
-12 -13 -15 -23 -20 -10 -10 -13
-13 -13 -15 -22 -20 -10 -10 -13
-12 -11 -14 -21 -19 -9 -9 -12
-10 -10 -14 -21 -19 -9 -9 -12
-8 -8 -14 -21 -18 -9 -10 -13
-5 -7 -14 -21 -18 -9 -10 -13
-3 -6 -14 -21 -18 -9 -10 -13
-2 -6 -15 -20 -17 -9 -10 -13
0 -8 -15 -20 -17 -8 -9 -12
0 -10 -14 -20 -16 -8 -8 -11
1 -12 -14 -20 -16 -7 -7 -10
1 -14 -14 -20 -16 -7 -6 -9
2 -11 -12 -18 -14 -6 -5 -8
1 -6 -10 -16 -11 -5 -5 -8
0 -2 -9 -13 -9 -4 -5 -8
-2 4 -7 -10 -7 -3 -5 -8
-2 9 -6 -8 -5 -3 -5 -8
2 13 -3 1 6 11 9 3
8 18 2 9 17 26 22 14
13 22 5 17 28 40 36 24
18 27 8 25 38 55 50 35
24 31 11 34 50 70 64 46
43 40 -7 21 61 96 94 70
62 51 -28 5 71 123 126 95
81 61 -51 -12 82 150 157 120
102 71 -72 -28 94 178 189 146
121 80 -94 -46 104 204 221 172
143 96 -131 -71 101 215 239 189
164 112 -170 -99 96 222 257 205
185 129 -208 -127 90 230 274 223
206 145 -247 -154 84 237 292 239
228 161 -286 -182 77 245 308 257
226 145 -301 -203 40 199 269 232
220 122 -312 -224 -2 146 221 202
214 101 -323 -243 -43 92 173 172
207 79 -333 -264 -85 38 125 141
201 57 -345 -284 -126 -16 76 110
172 53 -313 -268 -133 -35 52 89
138 51 -275 -246 -134 -50 31 69
104 49 -236 -224 -136 -64 10 49
70 48 -197 -201 -137 -78 -12 29
36 46 -158 -179 -138 -94 -33 9
27 39 -134 -155 -122 -86 -34 4
23 32 -111 -132 -104 -73 -30 2
18 26 -89 -107 -86 -62 -27 0
14 19 -66 -83 -66 -50 -23 -4
9 12 -43 -60 -48 -37 -20 -6
7 9 -35 -51 -41 -34 -19 -8
6 5 -29 -45 -38 -33 -19 -10
4 2 -23 -38 -34 -31 -20 -12
3 -3 -18 -32 -31 -30 -20 -14
2 -6 -12 -26 -27 -29 -20 -16
1 -7 -10 -25 -26 -28 -22 -17
1 -6 -9 -25 -26 -28 -23 -18
1 -5 -7 -24 -26 -29 -25 -19
1 -4 -5 -24 -26 -29 -26 -20
1 -3 -4 -24 -26 -29 -27 -21
-2 -4 -2 -20 -24 -30 -28 -22
-3 -6 2 -17 -22 -29 -28 -22
-5 -8 4 -13 -20 -29 -28 -22
-7 -11 6 -10 -17 -28 -28 -22
-8 -13 8 -6 -15 -28 -28 -22
-9 -14 9 -5 -14 -27 -27 -23
-8 -13 10 -6 -14 -27 -26 -22
-7 -12 10 -6 -14 -26 -25 -21
-6 -11 11 -7 -14 -26 -24 -20
-5 -10 11 -7 -14 -26 -23 -20
-4 -8 12 -8 -15 -25 -22 -19
-5 -7 12 -8 -15 -25 -22 -19
-6 -6 12 -7 -14 -25 -22 -20
-7 -4 12 -7 -14 -25 -22 -20
-8 -3 12 -7 -14 -25 -22 -20
-9 -4 12 -5 -13 -26 -23 -20
-10 -6 14 -4 -13 -25 -22 -19
-11 -9 16 -2 -12 -24 -21 -18
-12 -11 17 1 -12 -23 -20 -17
-13 -14 19 2 -12 -22 -19 -16
-15 -15 20 3 -11 -21 -18 -15
-16 -16 20 3 -11 -22 -19 -16
-17 -16 20 3 -11 -22 -19 -16
-19 -17 20 3 -11 -23 -20 -17
-20 -17 20 3 -11 -23 -20 -17
-18 -17 19 2 -12 -24 -21 -18
-15 -16 19 3 -11 -24 -21 -18
-11 -15 19 4 -10 -24 -21 -18
-8 -13 19 5 -9 -24 -21 -18
-4 -12 19 6 -8 -24 -21 -18
-3 -10 18 7 -7 -25 -21 -18
-2 -7 19 8 -6 -25 -21 -18
-2 -5 20 9 -6 -25 -21 -17
0 -3 21 10 -5 -25 -21 -17
0 0 22 11 -5 -25 -21 -17
0 1 23 12 -4 -25 -21 -16
-3 2 23 12 -4 -25 -21 -16
-5 2 23 11 -4 -25 -22 -16
-6 3 23 11 -4 -25 -22 -16
-8 3 23 11 -4 -25 -22 -16
-9 4 22 11 -4 -25 -23 -17
-8 5 24 13 -3 -24 -22 -16
-7 5 25 15 -2 -24 -22 -16
-6 6 26 16 1 -23 -21 -15
-5 6 27 18 2 -23 -21 -15
-4 6 28 19 3 -22 -20 -14
-4 4 28 19 3 -22 -20 -14
-4 2 29 20 2 -22 -20 -14
-4 1 29 20 2 -22 -20 -14
-4 -2 29 20 2 -22 -20 -14
-5 -3 30 22 1 -23 -20 -13
-6 -3 30 23 2 -22 -20 -12
-7 -3 30 24 3 -21 -19 -11
-8 -3 30 26 4 -20 -19 -10
-8 -3 30 27 5 -20 -19 -9
-9 -3 31 28 6 -19 -18 -8
-9 -3 32 28 5 -20 -20 -9
-10 -3 33 28 4 -20 -21 -9
-10 -3 34 28 3 -21 -22 -10
-10 -3 35 28 3 -21 -23 -10
-9 -3 37 31 4 -21 -23 -11
-6 -4 40 34 7 -19 -22 -9
-3 -4 43 37 9 -17 -20 -8
1 -5 46 42 12 -16 -18 -7
4 -5 48 45 15 -14 -17 -6
4 -5 49 46 16 -13 -16 -5
3 -3 50 47 17 -13 -16 -4
2 0 51 48 18 -12 -16 -4
0 1 52 49 19 -12 -16 -3
-2 3 53 49 19 -12 -16 -3
-3 4 55 52 20 -11 -15 -2
-3 3 57 55 21 -11 -15 -3
-3 2 59 58 22 -11 -16 -3
-3 1 60 61 23 -11 -16 -4
-3 1 62 64 24 -11 -16 -4
-2 0 65 67 27 -9 -17 -5
-2 0 68 70 30 -7 -16 -4
0 0 71 72 32 -5 -15 -3
0 0 74 75 35 -4 -14 -2
0 0 77 78 38 -2 -14 -2
0 3 79 80 40 0 -13 0
-3 5 80 84 44 2 -12 1
-6 8 82 86 46 3 -11 2
-8 10 85 89 49 4 -10 3
-10 13 86 91 51 5 -10 4
-11 14 89 94 54 8 -8 6
-11 14 91 98 56 10 -6 9
-11 13 94 101 59 13 -4 11
-11 13 96 104 61 15 -2 14
-11 13 99 108 64 18 1 16
-11 12 100 110 65 19 2 17
-11 10 102 111 66 19 2 17
-10 9 103 113 67 20 2 17
-10 8 104 115 68 20 2 17
-10 7 105 116 68 20 2 17
-9 8 106 117 69 21 3 17
-9 12 106 117 70 22 3 17
-9 16 105 116 71 22 4 18
-9 19 105 116 72 23 4 18
-9 23 105 116 73 23 4 18
-9 26 104 115 74 24 5 19
-7 29 103 115 74 25 5 19
-6 32 102 115 75 25 5 19
-4 36 101 115 75 26 5 19
-2 39 100 115 75 26 5 19
3 39 99 114 76 27 6 19
7 38 98 113 76 28 7 20
12 37 97 113 76 29 8 21
16 35 96 112 76 30 9 22
20 34 95 112 76 31 10 22
19 34 93 110 77 32 11 23
14 36 91 108 77 32 12 25
10 38 90 107 77 32 13 26
5 40 88 105 77 32 14 27
1 43 86 103 77 32 15 28
1 43 84 100 75 32 17 29
4 40 80 96 74 32 19 31
7 39 78 93 73 32 20 32
10 37 75 90 71 32 22 33
13 35 73 86 70 32 24 34
13 34 68 80 66 31 25 34
11 34 62 74 61 28 23 32
8 33 55 67 57 24 22 31
6 33 49 61 52 21 21 29
4 33 43 55 48 17 20 27
3 32 39 51 45 16 19 26
4 30 37 48 43 16 19 27
4 29 35 45 40 15 19 28
5 28 33 40 38 15 19 29
5 27 31 37 36 15 19 29
6 24 29 35 34 14 20 30
5 20 28 33 33 12 19 30
4 17 26 30 32 11 19 30
3 13 24 28 30 10 18 30
3 9 23 26 29 9 18 30
2 8 21 22 26 7 16 29
2 9 18 18 23 4 15 28
3 9 15 15 20 2 13 27
3 10 13 11 17 0 12 26
3 10 10 7 13 -4 10 25
5 10 8 4 11 -6 8 23
6 9 7 2 9 -8 6 21
7 7 5 1 8 -10 4 19
9 6 4 -2 6 -12 2 17
10 4 2 -4 4 -14 0 15
11 3 1 -6 2 -15 -2 14
9 2 -2 -8 0 -16 -3 13
8 1 -3 -11 -2 -17 -4 12
7 1 -4 -13 -4 -18 -5 12
6 0 -5 -15 -6 -19 -6 11
5 -2 -6 -16 -7 -20 -7 10
5 0 -6 -16 -8 -21 -8 10
5 0 -6 -16 -9 -22 -9 10
5 1 -6 -16 -9 -22 -9 10
5 1 -6 -16 -10 -23 -10 10
5 2 -7 -17 -11 -24 -11 9
6 3 -7 -17 -11 -24 -11 9
7 4 -7 -17 -11 -24 -11 9
7 4 -7 -17 -11 -24 -11 9
8 5 -7 -17 -11 -24 -11 9
8 5 -6 -18 -10 -25 -11 8
7 3 -6 -18 -10 -25 -11 8
6 1 -5 -18 -9 -24 -11 8
4 -2 -5 -18 -9 -24 -11 8
3 -4 -5 -18 -9 -24 -11 8
2 -4 -4 -17 -8 -23 -12 7
1 -3 -4 -17 -10 -23 -12 6
0 0 -3 -17 -11 -23 -13 4
0 1 -3 -17 -12 -23 -13 3
-2 3 -3 -17 -13 -23 -13 1
-3 2 -2 -17 -14 -23 -14 0
-3 -3 -2 -17 -13 -24 -15 1
-3 -7 -2 -17 -12 -25 -15 1
-3 -11 -2 -17 -12 -25 -16 2
-3 -14 -2 -17 -11 -26 -16 2
-4 -15 -2 -17 -10 -27 -17 3
-5 -13 0 -16 -10 -26 -16 4
-6 -12 0 -15 -10 -25 -15 4
-6 -10 1 -15 -10 -25 -15 5
-7 -8 1 -14 -10 -24 -14 5
-8 -6 2 -13 -9 -23 -13 6
-7 -5 2 -13 -9 -23 -13 5
-6 -3 2 -13 -9 -23 -13 5
-6 -2 2 -13 -9 -23 -13 4
-5 1 2 -13 -9 -23 -13 4
-4 2 2 -13 -8 -23 -14 3
-3 0 2 -13 -8 -23 -14 2
-2 -2 2 -13 -8 -23 -14 2
-2 -4 2 -13 -8 -23 -14 1
0 -5 2 -13 -8 -23 -14 1
0 -6 2 -13 -9 -23 -15 0
-2 -6 2 -13 -9 -23 -16 -2
-4 -6 2 -12 -9 -24 -17 -2
-5 -6 2 -12 -9 -24 -17 -3
-7 -6 2 -12 -9 -24 -18 -3
-7 -4 3 -11 -8 -25 -19 -4
-6 0 3 -11 -8 -25 -18 -4
-4 3 3 -11 -7 -25 -17 -4
-3 5 3 -11 -7 -25 -17 -4
0 8 3 -11 -7 -25 -16 -4
0 8 3 -11 -6 -24 -15 -4
-3 6 3 -10 -5 -23 -15 -4
-4 5 3 -10 -5 -22 -14 -3
-6 3 3 -9 -4 -21 -14 -3
-8 1 3 -9 -4 -20 -14 -3
-6 -2 2 -8 -3 -19 -13 -2
-2 -4 1 -9 -4 -19 -13 -3
3 -6 1 -10 -5 -19 -14 -4
8 -8 0 -11 -5 -19 -14 -4
12 -10 0 -12 -6 -19 -14 -5
14 -11 -2 -13 -7 -20 -15 -6
14 -9 0 -11 -6 -19 -14 -5
14 -8 1 -10 -5 -19 -14 -5
14 -6 1 -8 -4 -18 -13 -4
14 -5 2 -7 -3 -18 -13 -4
12 -4 3 -6 -2 -17 -12 -3
8 -3 4 -6 -2 -16 -11 -2
4 -2 4 -6 0 -16 -10 0
0 -2 5 -6 0 -15 -10 0
-5 0 5 -6 0 -15 -9 1
-7 1 6 -5 1 -14 -8 2
-6 2 5 -6 1 -13 -6 2
-5 3 4 -6 1 -13 -5 3
-5 4 4 -7 1 -12 -4 3
-4 5 3 -7 1 -12 -3 3
-3 6 2 -8 0 -11 -2 4
-3 4 1 -9 -2 -12 -3 2
-3 3 0 -10 -3 -12 -4 1
-3 2 0 -10 -3 -13 -5 0
-3 1 -2 -11 -4 -13 -6 -2
-2 0 -3 -12 -5 -14 -7 -3
-2 1 -3 -12 -5 -14 -7 -3
-2 2 -3 -12 -5 -14 -7 -3
-2 2 -3 -12 -5 -14 -7 -3
-2 3 -3 -12 -5 -14 -7 -3
-3 3 -2 -11 -6 -13 -6 -2
-3 1 -2 -11 -6 -13 -6 -2
-3 0 -2 -12 -6 -12 -6 -2
-3 -3 -2 -12 -6 -12 -6 -2
-3 -5 -2 -12 -6 -12 -6 -2
-2 -6 -4 -13 -6 -11 -5 -3
0 -5 -5 -15 -8 -12 -6 -4
1 -4 -7 -16 -9 -13 -7 -5
1 -4 -9 -18 -11 -13 -7 -5
2 -3 -11 -19 -12 -14 -8 -6
3 -2 -12 -20 -13 -15 -9 -7
3 1 -13 -21 -13 -16 -10 -8
2 2 -14 -22 -14 -17 -11 -10
1 4 -14 -22 -15 -17 -12 -11
1 5 -15 -23 -15 -18 -13 -12
0 6 -16 -24 -16 -19 -14 -13
1 5 -15 -23 -15 -18 -14 -13
2 3 -14 -22 -14 -17 -13 -12
2 2 -14 -22 -13 -16 -13 -11
3 1 -13 -21 -12 -15 -13 -11
4 -2 -12 -20 -11 -14 -12 -10
4 -3 -12 -20 -12 -14 -12 -10
3 -5 -12 -21 -13 -15 -12 -11
2 -6 -12 -21 -13 -15 -12 -12
2 -8 -12 -21 -14 -15 -12 -12
2 -9 -14 -23 -16 -17 -14 -14
5 -9 -16 -25 -18 -19 -17 -17
7 -9 -19 -27 -21 -22 -19 -20
10 -9 -21 -30 -23 -24 -22 -23
13 -9 -24 -32 -26 -27 -25 -26
12 -7 -25 -33 -27 -28 -26 -27
9 -4 -24 -32 -26 -26 -24 -25
5 0 -23 -31 -25 -25 -23 -24
1 4 -22 -30 -24 -23 -21 -22
-3 7 -21 -29 -23 -22 -20 -21
-5 6 -19 -27 -21 -20 -18 -19
-5 -2 -17 -25 -19 -18 -16 -16
-6 -8 -15 -22 -17 -16 -14 -14
-6 -14 -13 -20 -14 -14 -12 -11
-6 -20 -11 -17 -12 -12 -10 -8
-7 -21 -10 -16 -11 -11 -9 -7
-7 -17 -10 -16 -11 -11 -9 -8
-7 -13 -10 -17 -12 -11 -10 -9
-7 -9 -10 -17 -12 -11 -11 -9
-7 -5 -10 -17 -12 -11 -11 -10
-7 -3 -11 -18 -13 -12 -12 -11
-5 -2 -12 -19 -14 -13 -12 -11
-4 0 -13 -20 -15 -14 -13 -12
-2 1 -13 -20 -16 -14 -13 -13
0 2 -14 -21 -17 -15 -13 -13
1 2 -15 -22 -18 -16 -14 -14
1 0 -15 -22 -18 -15 -13 -14
1 -3 -15 -22 -17 -14 -12 -14
1 -5 -15 -22 -17 -14 -12 -14
1 -7 -15 -22 -17 -13 -11 -14
2 -8 -16 -23 -16 -12 -10 -14
2 -7 -16 -23 -16 -12 -11 -14
3 -6 -16 -23 -16 -12 -12 -14
4 -5 -16 -23 -16 -12 -12 -14
4 -4 -16 -23 -16 -12 -13 -14
5 -3 -16 -23 -17 -13 -14 -14
4 -3 -16 -23 -17 -13 -14 -14
3 -4 -16 -22 -18 -13 -14 -15
2 -5 -16 -22 -18 -13 -14 -16
1 -5 -16 -22 -18 -13 -14 -16
0 -6 -15 -21 -19 -13 -14 -17
0 -6 -14 -21 -19 -13 -14 -17
0 -5 -13 -21 -19 -13 -14 -17
0 -4 -12 -21 -19 -13 -14 -17
0 -4 -11 -21 -19 -13 -14 -17
-2 -2 -10 -20 -18 -13 -15 -16
-2 2 -8 -18 -16 -12 -13 -15
0 5 -6 -17 -14 -10 -11 -13
0 8 -5 -15 -13 -8 -10 -12
0 11 -3 -14 -11 -6 -8 -11
1 13 -2 -13 -10 -5 -7 -10
2 11 -2 -12 -9 -4 -6 -9
3 9 -2 -11 -7 -3 -5 -8
3 8 -2 -11 -6 -2 -5 -7
4 6 -2 -10 -5 0 -4 -6
6 4 -4 -10 -5 0 -4 -6
8 2 -8 -13 -8 -4 -6 -8
10 -2 -11 -16 -11 -6 -8 -10
12 -4 -15 -19 -14 -9 -10 -12
14 -7 -19 -22 -16 -11 -13 -14
14 -7 -21 -24 -18 -12 -13 -15
12 -5 -20 -23 -16 -11 -12 -13
10 -3 -19 -21 -15 -9 -10 -11
8 0 -18 -20 -13 -7 -8 -10
6 3 -17 -19 -12 -5 -6 -8
5 4 -17 -19 -12 -4 -5 -7
6 3 -19 -21 -15 -6 -6 -8
7 2 -21 -24 -17 -8 -8 -9
7 1 -23 -26 -20 -9 -9 -9
8 0 -25 -29 -22 -11 -10 -10
9 0 -26 -30 -24 -12 -11 -11
10 2 -27 -31 -24 -13 -12 -12
11 4 -28 -32 -25 -14 -14 -13
11 6 -28 -32 -25 -15 -15 -14
12 9 -29 -33 -25 -16 -16 -15
11 9 -29 -33 -25 -17 -17 -16
8 6 -27 -31 -23 -15 -15 -15
4 3 -24 -29 -21 -13 -14 -13
1 0 -22 -27 -19 -12 -12 -12
-4 -3 -19 -25 -17 -10 -11 -11
-6 -5 -18 -24 -16 -9 -10 -10
-4 -6 -19 -26 -18 -11 -12 -12
-2 -7 -20 -28 -20 -13 -14 -14
0 -7 -21 -29 -21 -14 -15 -15
2 -8 -22 -31 -23 -16 -17 -17
3 -9 -22 -31 -24 -17 -18 -18
2 -8 -20 -30 -24 -16 -17 -17
1 -7 -18 -28 -23 -15 -16 -15
1 -7 -16 -26 -22 -14 -16 -14
0 -6 -14 -24 -22 -13 -15 -13
-2 -6 -13 -23 -21 -12 -14 -12
-3 -9 -14 -23 -21 -12 -15 -13
-4 -12 -16 -24 -21 -12 -16 -15
-5 -15 -17 -25 -21 -12 -16 -16
-6 -17 -18 -25 -21 -12 -17 -17
-6 -17 -19 -26 -21 -13 -18 -18
-4 -12 -18 -26 -21 -13 -17 -17
0 -7 -17 -25 -20 -12 -16 -16
2 -2 -16 -24 -20 -11 -16 -16
4 4 -15 -24 -20 -11 -15 -15
5 5 -14 -23 -19 -10 -14 -14
2 2 -14 -23 -19 -11 -14 -14
-2 -3 -15 -24 -20 -12 -15 -14
-4 -7 -16 -25 -21 -12 -16 -14
-7 -11 -16 -25 -21 -13 -16 -14
-8 -13 -17 -26 -21 -14 -17 -15
-7 -12 -16 -24 -20 -12 -15 -14
-5 -11 -14 -23 -18 -10 -14 -13
-3 -10 -13 -22 -16 -9 -13 -13
0 -9 -12 -20 -14 -7 -11 -12
1 -7 -10 -15 -9 -2 -7 -9
1 -3 -7 -8 0 8 0 -4
0 1 -3 1 9 17 7 1
0 5 1 9 17 25 13 6
0 8 4 16 25 34 20 10
6 17 3 19 35 51 38 25
21 30 -5 16 47 75 66 47
35 44 -11 13 58 99 94 69
50 57 -18 10 69 122 121 92
64 71 -25 7 80 146 149 114
86 86 -46 -8 89 173 181 141
111 102 -77 -30 97 202 218 171
138 117 -109 -53 104 232 254 200
163 134 -141 -75 111 261 289 230
190 150 -174 -99 118 290 326 260
204 153 -205 -127 104 283 328 268
211 144 -238 -158 68 245 301 258
216 136 -272 -191 33 207 273 248
222 128 -305 -224 -2 169 245 238
227 118 -338 -256 -36 131 219 228
216 110 -341 -270 -63 93 183 203
189 102 -316 -268 -81 56 140 168
161 94 -291 -266 -100 18 98 132
135 85 -268 -264 -119 -20 55 96
108 76 -243 -262 -138 -58 12 60
85 65 -217 -243 -143 -75 -11 39
64 52 -186 -212 -135 -75 -17 30
44 37 -156 -180 -128 -74 -23 22
23 23 -127 -147 -119 -73 -29 13
3 10 -97 -115 -111 -73 -35 4
-7 2 -76 -94 -100 -67 -37 -2
-5 0 -65 -80 -85 -57 -35 -4
-3 -4 -54 -67 -69 -46 -33 -7
0 -6 -41 -54 -55 -35 -31 -10
2 -8 -30 -40 -39 -24 -29 -12
2 -11 -23 -33 -32 -19 -27 -14
-2 -13 -19 -30 -30 -19 -27 -16
-5 -15 -15 -27 -28 -20 -27 -17
-8 -17 -12 -25 -27 -20 -27 -18
-11 -19 -8 -22 -25 -20 -27 -20
-13 -20 -6 -19 -24 -21 -26 -21
-13 -18 -5 -17 -23 -21 -27 -21
-12 -16 -3 -15 -22 -21 -28 -22
-12 -15 -2 -13 -22 -21 -28 -23
-12 -13 0 -11 -21 -21 -29 -23
-11 -13 1 -10 -20 -22 -30 -24
-13 -16 2 -10 -19 -22 -30 -24
-14 -19 3 -10 -18 -21 -30 -25
-15 -22 3 -10 -18 -21 -30 -26
-17 -25 4 -10 -17 -21 -30 -26
-17 -26 5 -9 -16 -20 -29 -27
-15 -24 4 -9 -17 -20 -29 -27
-12 -21 3 -9 -18 -21 -29 -27
-9 -18 3 -9 -18 -22 -29 -27
-7 -16 2 -9 -19 -22 -29 -27
-5 -14 1 -9 -20 -23 -30 -27
-7 -16 1 -9 -20 -23 -31 -28
-9 -18 1 -9 -21 -23 -33 -30
-11 -19 1 -9 -21 -23 -34 -31
-13 -21 1 -9 -21 -23 -35 -32
-14 -22 1 -10 -22 -24 -36 -33
-14 -24 2 -8 -22 -23 -35 -32
-14 -26 3 -6 -21 -22 -33 -30
-14 -27 4 -5 -20 -21 -32 -29
-14 -29 5 -3 -20 -20 -31 -28
-14 -30 6 -2 -19 -19 -30 -27
-12 -29 6 -2 -19 -20 -30 -28
-10 -28 6 -2 -18 -21 -31 -29
-8 -27 6 -2 -18 -21 -32 -30
-6 -26 6 -2 -18 -22 -32 -31
-5 -25 6 0 -17 -23 -33 -32
-7 -24 6 0 -17 -23 -32 -31
-9 -23 7 0 -16 -22 -31 -29
-10 -22 7 0 -16 -21 -30 -28
-12 -21 7 0 -16 -21 -29 -27
-13 -21 8 1 -15 -20 -28 -26
-13 -23 8 3 -14 -20 -28 -26
-12 -26 9 5 -13 -20 -29 -27
-11 -28 10 6 -12 -20 -29 -28
-11 -30 10 8 -11 -20 -29 -28
-10 -31 11 9 -10 -19 -30 -29
-12 -28 11 9 -10 -19 -30 -29
-13 -25 12 9 -10 -19 -30 -28
-15 -22 13 9 -11 -19 -30 -27
-17 -19 13 9 -11 -19 -30 -27
-18 -17 14 9 -12 -20 -29 -26
-18 -17 16 11 -11 -18 -29 -26
-18 -18 17 12 -10 -17 -28 -26
-17 -19 19 14 -9 -15 -27 -25
-17 -19 21 16 -8 -13 -27 -25
-16 -20 22 17 -7 -12 -26 -24
-15 -19 22 17 -7 -12 -26 -24
-14 -18 22 17 -7 -12 -26 -24
-12 -17 22 17 -7 -13 -26 -24
-11 -16 22 17 -7 -13 -26 -24
-10 -15 21 18 -7 -14 -27 -25
-10 -15 22 20 -6 -13 -27 -24
-11 -15 23 21 -5 -13 -27 -24
-12 -15 25 23 -4 -12 -26 -23
-12 -15 26 25 -3 -11 -26 -22
-14 -17 27 26 -2 -10 -25 -21
-16 -19 28 27 0 -10 -25 -22
-18 -22 29 28 1 -10 -26 -23
-20 -25 31 29 2 -9 -27 -25
-22 -27 32 30 3 -9 -27 -26
-24 -29 33 32 4 -8 -28 -27
-23 -27 34 34 5 -8 -27 -27
-23 -26 34 36 5 -8 -26 -27
-22 -25 35 38 6 -7 -25 -27
-21 -23 36 40 7 -7 -24 -27
-20 -22 37 43 8 -6 -23 -26
-18 -22 39 45 9 -6 -23 -26
-16 -22 40 47 10 -6 -23 -26
-14 -21 42 49 12 -5 -23 -26
-12 -21 44 51 13 -5 -23 -26
-10 -20 45 52 14 -4 -24 -27
-8 -21 47 54 15 -3 -24 -27
-5 -22 49 56 16 -3 -24 -27
-2 -23 51 58 17 -2 -24 -27
1 -24 53 60 18 0 -24 -27
3 -24 55 63 20 1 -23 -28
2 -22 56 65 24 2 -22 -28
1 -20 57 68 28 3 -22 -28
-2 -18 59 71 32 5 -21 -27
-3 -16 60 73 36 6 -20 -27
-4 -13 62 76 39 8 -19 -26
-4 -11 65 79 42 10 -17 -24
-4 -9 69 84 43 13 -15 -23
-4 -7 72 87 44 15 -13 -21
-4 -5 76 91 46 18 -11 -19
-5 -3 78 93 47 20 -10 -18
-9 -4 78 93 47 20 -10 -18
-13 -4 78 94 47 20 -10 -18
-18 -5 77 95 47 20 -10 -19
-22 -6 77 95 47 20 -10 -19
-24 -7 76 96 47 20 -11 -20
-21 -7 77 98 49 21 -10 -20
-17 -7 78 99 50 22 -10 -19
-14 -7 79 101 52 23 -9 -18
-10 -7 80 103 54 24 -8 -18
-8 -6 81 104 55 25 -7 -17
-8 -4 81 105 56 26 -6 -17
-9 0 82 106 57 27 -6 -17
-10 2 84 108 58 28 -5 -16
-10 5 84 109 59 29 -4 -16
-11 7 85 110 60 30 -3 -15
-11 7 85 110 61 31 0 -13
-11 7 85 110 62 32 2 -11
-12 7 85 111 63 34 4 -9
-12 7 85 111 64 35 5 -7
-13 8 85 112 65 36 7 -5
-13 8 85 112 65 37 8 -4
-13 8 84 111 65 38 9 -4
-13 7 82 110 65 39 10 -3
-13 7 82 110 65 40 11 -2
-13 6 80 108 66 42 12 0
-13 6 77 105 64 42 12 0
-13 6 74 101 62 40 12 0
-13 5 71 98 60 39 11 0
-13 5 68 94 59 39 11 0
-12 5 64 90 56 38 10 0
-13 8 60 86 53 37 10 0
-14 11 55 80 51 36 10 0
-16 14 51 75 48 35 11 1
-17 17 46 70 45 34 11 1
-17 19 42 66 43 33 12 2
-12 18 38 61 40 32 12 2
-8 17 35 57 38 31 12 2
-3 15 32 53 36 30 11 1
2 14 28 49 35 29 11 1
5 12 26 45 32 28 10 0
5 9 24 42 30 27 10 0
4 6 22 38 27 26 10 0
3 3 20 35 24 25 10 1
3 0 18 32 21 24 10 1
2 -3 15 29 18 22 9 2
2 -2 13 25 14 17 6 1
2 0 10 21 9 12 3 0
2 1 8 17 5 8 0 -3
2 2 5 13 1 3 -4 -4
2 3 3 10 -3 0 -6 -5
4 1 2 9 -3 1 -6 -5
5 -2 2 8 -3 1 -6 -5
7 -4 1 7 -3 2 -5 -5
9 -5 0 6 -3 3 -5 -5
9 -7 -2 5 -4 4 -4 -6
4 -8 0 5 -4 4 -4 -6
-2 -9 1 5 -4 4 -3 -5
-6 -11 2 5 -4 4 -2 -4
-11 -12 3 5 -4 4 -2 -4
-14 -13 4 5 -4 4 0 -3
-13 -12 1 2 -6 3 -3 -4
-13 -12 -2 -2 -9 1 -5 -6
-12 -11 -4 -5 -11 0 -7 -7
-11 -10 -6 -8 -14 -3 -9 -9
-11 -9 -8 -10 -16 -4 -11 -10
-13 -9 -8 -11 -17 -7 -12 -12
-16 -9 -9 -11 -18 -9 -14 -14
-19 -9 -10 -12 -20 -12 -15 -16
-22 -9 -10 -13 -21 -14 -17 -17
-23 -9 -11 -14 -22 -16 -18 -19
-19 -8 -8 -12 -20 -15 -16 -17
-15 -7 -6 -10 -19 -14 -15 -16
-12 -6 -4 -8 -17 -13 -13 -14
-8 -5 -2 -7 -15 -12 -11 -12
-6 -5 1 -5 -14 -11 -10 -11
-10 -8 0 -6 -15 -11 -11 -12
-13 -12 -2 -7 -15 -11 -13 -12
-17 -15 -4 -9 -16 -11 -14 -13
-20 -18 -5 -10 -17 -11 -16 -14
-23 -21 -6 -11 -18 -10 -17 -15
-20 -20 -5 -10 -18 -11 -17 -15
-18 -18 -5 -10 -18 -12 -17 -15
-16 -17 -4 -9 -18 -14 -17 -15
-14 -15 -3 -8 -18 -15 -17 -15
-12 -14 -2 -7 -19 -16 -18 -16
-11 -14 0 -7 -18 -16 -18 -16
-10 -14 0 -6 -18 -16 -18 -15
-9 -15 1 -5 -17 -16 -17 -14
-8 -15 2 -5 -16 -16 -17 -14
-7 -16 3 -4 -15 -15 -16 -13
-10 -17 2 -5 -16 -15 -16 -15
-12 -17 2 -5 -16 -16 -17 -16
-14 -18 1 -6 -17 -17 -18 -18
-16 -19 0 -7 -18 -17 -18 -20
-18 -19 -2 -8 -19 -18 -19 -21
-18 -17 -2 -8 -19 -18 -19 -20
-18 -14 -2 -8 -19 -18 -20 -19
-17 -11 -2 -8 -19 -18 -21 -18
-17 -8 -2 -8 -19 -18 -21 -17
-16 -6 -2 -7 -18 -18 -22 -16
-15 -9 -2 -6 -17 -17 -21 -16
-14 -12 -2 -6 -17 -16 -21 -16
-13 -14 0 -5 -16 -15 -20 -16
-12 -17 0 -4 -15 -14 -19 -16
-11 -19 1 -3 -14 -13 -18 -16
-11 -19 1 -3 -13 -13 -17 -15
-11 -19 1 -2 -13 -12 -16 -15
-11 -19 1 0 -12 -11 -15 -14
-11 -19 1 0 -11 -11 -14 -13
-12 -17 2 1 -10 -10 -13 -12
-10 -12 3 1 -10 -10 -13 -11
-9 -6 3 1 -10 -9 -12 -11
-7 1 4 2 -9 -8 -11 -10
-6 7 5 2 -9 -8 -11 -9
-4 11 6 3 -8 -7 -10 -8
-4 8 7 4 -7 -6 -9 -8
-4 6 8 5 -5 -4 -7 -8
-5 3 10 7 -4 -3 -6 -7
-5 1 11 8 -2 0 -4 -7
-6 -2 12 9 0 1 -3 -6
-7 -4 11 8 -2 1 -3 -6
-8 -6 9 7 -3 0 -4 -6
-9 -8 8 5 -4 -2 -5 -6
-10 -10 6 4 -5 -2 -5 -6
-11 -12 5 3 -6 -3 -6 -6
-11 -10 5 3 -6 -2 -6 -6
-11 -8 5 3 -6 -2 -6 -6
-11 -6 5 3 -6 0 -6 -6
-11 -4 5 3 -6 1 -6 -6
-11 -2 4 3 -5 2 -6 -7
-12 -5 4 3 -5 1 -6 -7
-12 -7 4 3 -5 0 -6 -7
-13 -10 3 3 -5 -2 -6 -7
-14 -12 3 3 -5 -3 -6 -7
-15 -14 2 2 -6 -4 -7 -8
-15 -14 2 2 -6 -3 -7 -8
-15 -14 1 2 -5 -3 -6 -7
-15 -14 0 1 -4 -2 -5 -6
-15 -14 0 1 -4 0 -5 -6
-14 -14 -2 0 -3 1 -4 -5
-12 -13 0 0 -3 1 -4 -4
-9 -11 0 1 -3 1 -3 -3
-7 -10 1 2 -3 2 -2 -2
-5 -8 2 2 -3 2 -2 0
-3 -7 3 3 -2 3 0 1
-5 -8 1 1 -5 0 -4 -2
-8 -8 0 -3 -7 -4 -7 -4
-10 -9 -3 -5 -10 -6 -10 -6
-12 -10 -4 -7 -12 -9 -13 -8
-14 -11 -6 -9 -14 -11 -15 -10
-13 -12 -4 -7 -12 -9 -13 -9
-13 -13 -2 -4 -10 -6 -11 -8
-12 -14 1 -2 -8 -4 -9 -6
-11 -15 2 1 -7 -2 -7 -5
-10 -16 4 3 -5 1 -5 -4
-8 -16 2 1 -6 -2 -7 -6
-6 -16 0 -2 -8 -4 -8 -7
-5 -15 -3 -3 -9 -5 -10 -9
-3 -15 -5 -5 -11 -7 -11 -10
0 -14 -7 -7 -12 -9 -13 -12
-3 -14 -6 -7 -12 -9 -12 -10
-5 -14 -6 -7 -12 -9 -11 -9
-6 -14 -5 -7 -12 -9 -10 -7
-8 -14 -4 -7 -12 -9 -9 -6
-10 -15 -3 -6 -13 -9 -8 -4
-11 -13 -2 -5 -12 -8 -7 -4
-12 -12 -2 -5 -11 -6 -7 -3
-13 -10 0 -4 -10 -5 -6 -3
-15 -9 1 -3 -9 -3 -5 -2
-16 -7 2 -2 -8 -2 -4 0
-14 -8 0 -3 -9 -4 -5 -2
-13 -10 -2 -5 -10 -5 -6 -3
-11 -11 -4 -6 -11 -7 -7 -4
-10 -13 -5 -8 -13 -8 -9 -6
-8 -14 -7 -9 -14 -10 -10 -7
-8 -13 -7 -9 -14 -10 -10 -7
-9 -13 -6 -9 -14 -10 -10 -7
-9 -12 -6 -8 -14 -10 -10 -7
-10 -11 -5 -8 -14 -10 -10 -7
-11 -10 -4 -7 -13 -9 -9 -6
-12 -11 -4 -7 -13 -9 -8 -5
-12 -11 -4 -7 -13 -9 -8 -5
-13 -12 -4 -7 -13 -9 -7 -4
-14 -13 -4 -7 -13 -9 -6 -3
-15 -14 -3 -7 -12 -9 -5 -2
-13 -13 -3 -7 -12 -9 -5 -2
-12 -12 -3 -7 -12 -9 -5 -2
-10 -11 -3 -7 -11 -8 -5 -3
-9 -9 -3 -7 -11 -8 -5 -3
-7 -8 -4 -8 -10 -7 -6 -4
-8 -8 -5 -8 -11 -8 -7 -4
-9 -8 -6 -8 -12 -10 -8 -5
-10 -9 -7 -9 -13 -11 -9 -5
-12 -9 -8 -9 -14 -13 -10 -6
-13 -10 -9 -10 -15 -14 -11 -7
-14 -10 -8 -10 -15 -14 -11 -7
-14 -10 -8 -10 -15 -13 -11 -7
-15 -11 -7 -10 -15 -13 -10 -7
-16 -11 -6 -10 -15 -12 -10 -7
-17 -12 -5 -9 -15 -11 -9 -8
-17 -14 -6 -9 -15 -11 -9 -8
-16 -16 -6 -10 -15 -11 -9 -8
-16 -17 -7 -10 -15 -12 -10 -8
-15 -19 -8 -11 -15 -12 -10 -8
-14 -21 -9 -12 -15 -13 -11 -8
-13 -21 -8 -11 -15 -12 -10 -8
-11 -20 -7 -10 -15 -11 -10 -8
-10 -20 -6 -9 -15 -10 -9 -7
-8 -19 -4 -7 -15 -9 -8 -7
-7 -17 -3 -6 -15 -8 -7 -6
-5 -14 -3 -6 -15 -9 -7 -6
-4 -10 -3 -6 -14 -9 -8 -6
-2 -6 -4 -6 -14 -10 -8 -6
0 -2 -4 -6 -13 -11 -9 -6
2 2 -5 -6 -12 -12 -10 -6
0 2 0 -3 -9 -9 -6 -3
-4 2 3 2 -7 -7 -3 2
-6 3 7 5 -4 -4 2 5
-8 3 10 9 0 0 5 9
-10 4 13 12 2 2 8 12
-10 5 13 12 3 3 8 12
-9 6 13 12 4 4 8 12
-9 7 13 12 5 5 9 13
-8 9 13 12 7 6 9 13
-7 10 13 13 8 7 10 14
-7 8 9 10 6 5 7 11
-7 6 6 8 3 2 5 9
-8 4 2 5 1 0 3 6
-8 2 -2 2 -2 -3 0 3
-9 0 -5 0 -4 -5 -3 1
-7 1 -5 1 -3 -4 -2 3
-6 2 -5 2 -2 -3 1 4
-4 3 -4 3 0 -2 2 6
-3 4 -4 4 2 0 3 7
0 5 -3 4 2 1 5 9
-2 3 -7 1 -2 -3 3 7
-3 2 -10 -4 -6 -6 1 5
-4 0 -13 -8 -10 -9 -2 3
-5 -2 -16 -12 -14 -11 -4 1
-6 -4 -19 -15 -17 -14 -6 -2
-6 -4 -19 -15 -17 -15 -6 -2
-6 -4 -19 -15 -17 -15 -7 -2
-6 -3 -19 -15 -17 -16 -7 -2
-6 -3 -19 -15 -17 -17 -8 -2
-6 -2 -20 -16 -18 -18 -9 -3
-8 -6 -18 -14 -15 -15 -6 -3
-10 -10 -16 -13 -13 -12 -4 -3
-12 -14 -14 -11 -10 -9 -2 -2
-14 -18 -12 -10 -7 -7 2 -2
-16 -21 -10 -8 -5 -4 4 0
-15 -20 -10 -8 -5 -4 4 1
-14 -20 -9 -8 -5 -5 4 3
-13 -19 -9 -9 -5 -5 4 4
-11 -18 -8 -9 -5 -6 4 5
-10 -17 -7 -10 -4 -7 4 7
-10 -17 -8 -12 -7 -9 0 3
-10 -17 -10 -13 -9 -11 -4 0
-10 -18 -11 -15 -12 -13 -8 -4
-10 -18 -12 -16 -15 -15 -11 -7
-11 -19 -14 -18 -17 -17 -14 -10
-9 -17 -14 -18 -17 -17 -14 -10
-7 -15 -14 -18 -17 -17 -15 -10
-6 -13 -14 -19 -17 -18 -15 -10
-4 -11 -14 -19 -17 -18 -16 -10
-2 -9 -13 -20 -17 -19 -17 -10
-4 -10 -12 -19 -15 -17 -14 -8
-6 -12 -10 -17 -13 -15 -12 -6
-9 -13 -9 -16 -12 -14 -9 -3
-11 -14 -8 -15 -10 -12 -6 0
-13 -16 -6 -13 -8 -10 -4 2
-14 -16 -7 -14 -10 -12 -6 0
-15 -15 -8 -15 -12 -14 -8 -3
-16 -14 -9 -16 -13 -16 -10 -5
-18 -13 -11 -18 -15 -18 -12 -7
-19 -12 -12 -19 -17 -20 -14 -9
-19 -13 -11 -19 -16 -18 -12 -8
-19 -15 -10 -18 -14 -16 -10 -6
-20 -16 -9 -17 -12 -13 -9 -5
-20 -17 -7 -16 -11 -11 -7 -4
-21 -18 -6 -14 -8 -9 -5 -2
-19 -13 -3 -8 -4 -5 -5 -2
-17 -7 2 -2 2 0 -5 -2
-16 -2 5 5 6 3 -5 0
-14 4 8 11 11 7 -5 0
-10 10 11 16 18 15 2 5
0 15 10 19 31 37 27 25
10 21 8 21 46 60 53 45
19 27 6 24 60 82 78 65
29 32 5 26 74 105 104 85
42 42 -3 26 88 131 133 107
61 63 -27 10 100 163 173 138
79 85 -52 -8 111 197 212 169
99 106 -76 -24 123 231 251 199
118 127 -101 -40 135 264 290 230
137 144 -128 -60 142 290 322 257
155 145 -162 -90 125 287 329 268
174 147 -197 -119 107 283 337 279
191 148 -232 -150 90 280 344 290
210 149 -267 -180 72 277 351 302
220 148 -295 -205 51 262 345 303
197 133 -294 -216 17 205 288 264
176 118 -293 -226 -17 149 233 225
154 103 -291 -236 -51 92 177 186
132 88 -290 -246 -85 35 120 146
110 73 -282 -249 -111 -12 71 111
89 63 -247 -226 -109 -25 50 90
67 53 -213 -201 -107 -37 28 68
47 43 -178 -178 -105 -50 8 48
25 32 -142 -153 -103 -63 -14 26
8 22 -112 -131 -99 -72 -31 8
7 16 -98 -114 -88 -66 -31 4
6 10 -83 -97 -76 -59 -30 -2
5 4 -69 -80 -65 -52 -30 -7
3 -4 -55 -63 -54 -46 -29 -12
2 -9 -41 -49 -44 -39 -28 -16
-2 -11 -33 -40 -38 -34 -26 -16
-4 -13 -25 -33 -32 -30 -24 -16
-7 -16 -18 -25 -27 -26 -22 -16
-9 -18 -10 -18 -21 -22 -20 -16
-12 -20 -3 -11 -16 -18 -18 -15
-13 -20 -2 -9 -15 -18 -18 -15
-14 -21 1 -8 -14 -18 -19 -15
-15 -21 2 -6 -13 -18 -19 -14
-16 -22 3 -4 -12 -18 -20 -14
-17 -23 5 -2 -11 -18 -21 -13
-19 -23 5 -2 -11 -19 -22 -14
-21 -24 5 -2 -11 -20 -23 -16
-23 -25 5 -2 -11 -21 -24 -18
-25 -26 5 -2 -11 -23 -25 -19
-27 -27 6 -2 -11 -24 -26 -21
-27 -28 6 -2 -11 -24 -26 -21
-27 -29 6 -2 -11 -24 -26 -21
-27 -30 6 0 -12 -24 -25 -20
-27 -31 6 0 -12 -24 -25 -20
-26 -32 7 1 -13 -24 -24 -19
-25 -31 7 1 -13 -24 -24 -19
-24 -29 6 1 -13 -23 -24 -19
-23 -27 6 1 -13 -23 -24 -20
-22 -26 5 1 -13 -22 -24 -20
-21 -24 4 0 -12 -21 -24 -21
-21 -24 8 0 -12 -21 -24 -21
-21 -24 11 1 -12 -20 -23 -20
-21 -24 15 1 -13 -20 -23 -19
-21 -24 19 2 -13 -19 -22 -18
-21 -23 22 3 -14 -18 -21 -17
-21 -23 23 3 -13 -18 -21 -17
-21 -23 25 3 -12 -18 -21 -17
-20 -24 26 4 -11 -18 -22 -18
-20 -24 27 4 -10 -18 -22 -18
-19 -25 29 5 -9 -19 -23 -19
-19 -24 29 5 -9 -19 -23 -19
-19 -22 29 5 -9 -19 -23 -19
-19 -20 29 5 -9 -19 -23 -20
-19 -19 29 5 -9 -19 -23 -20
-18 -17 30 6 -10 -20 -24 -21
-16 -17 30 6 -9 -20 -24 -21
-14 -17 31 7 -8 -20 -24 -21
-12 -17 31 7 -7 -19 -24 -22
-10 -17 32 8 -6 -19 -24 -22
-8 -18 33 9 -5 -18 -24 -23
-8 -18 33 9 -5 -18 -24 -23
-8 -17 34 9 -5 -18 -24 -23
-9 -16 34 10 -5 -18 -24 -23
-9 -15 35 10 -5 -18 -24 -23
-10 -14 36 11 -6 -18 -23 -22
-11 -16 36 12 -6 -18 -23 -22
-13 -19 37 13 -6 -18 -23 -22
-14 -21 37 14 -5 -17 -23 -23
-15 -23 38 15 -5 -17 -23 -23
-17 -26 39 17 -4 -16 -24 -24
-15 -25 39 17 -4 -17 -25 -25
-14 -23 40 17 -4 -18 -26 -26
-12 -22 40 18 -5 -19 -27 -27
-10 -21 42 18 -5 -20 -28 -28
-8 -19 43 19 -6 -22 -30 -30
-12 -20 45 20 -3 -19 -27 -27
-16 -21 47 22 1 -15 -24 -24
-19 -22 49 24 5 -12 -21 -20
-23 -23 52 25 8 -8 -18 -17
-27 -25 54 27 11 -5 -15 -14
-25 -25 54 27 11 -6 -16 -15
-23 -24 54 28 10 -7 -17 -16
-21 -24 54 28 10 -8 -18 -17
-18 -23 54 29 9 -9 -19 -18
-16 -22 54 30 8 -10 -20 -20
-13 -20 54 31 8 -10 -20 -22
-10 -18 54 33 9 -10 -21 -24
-8 -16 55 35 9 -10 -21 -26
-5 -13 55 36 10 -10 -22 -28
-2 -11 56 38 11 -11 -23 -30
-4 -13 57 39 12 -11 -23 -29
-7 -15 59 42 13 -11 -23 -27
-10 -17 61 44 14 -10 -23 -26
-12 -20 62 45 15 -10 -23 -25
-15 -22 64 47 16 -9 -22 -23
-15 -20 65 50 17 -8 -22 -23
-15 -17 66 52 18 -7 -22 -24
-16 -15 67 55 20 -6 -22 -25
-16 -13 68 58 21 -5 -22 -26
-17 -10 70 61 23 -4 -22 -27
-17 -12 73 64 26 -2 -20 -25
-17 -15 76 67 30 2 -18 -23
-18 -18 79 70 33 4 -16 -21
-18 -20 82 73 37 6 -14 -19
-19 -23 86 76 40 9 -12 -17
-17 -22 88 79 43 9 -12 -17
-16 -20 91 84 46 9 -12 -17
-14 -18 93 87 48 8 -11 -17
-12 -17 95 91 50 8 -11 -17
-10 -15 98 94 53 7 -10 -16
-10 -14 99 95 54 10 -9 -16
-9 -13 100 96 55 12 -8 -15
-9 -12 101 98 56 15 -7 -15
-8 -11 102 99 57 18 -6 -14
-7 -10 103 101 58 21 -4 -13
-7 -9 103 102 59 21 -4 -13
-7 -7 103 103 61 22 -4 -13
-8 -6 103 104 62 22 -4 -13
-8 -4 103 105 64 23 -4 -13
-9 -2 103 106 66 24 -5 -14
-9 1 104 108 67 26 -4 -13
-9 4 105 109 68 27 -3 -12
-9 7 106 111 69 29 0 -11
-9 9 107 113 70 31 1 -10
-10 12 109 115 72 33 3 -8
-10 11 109 115 73 34 3 -8
-11 10 108 115 74 35 4 -8
-11 9 107 115 75 36 5 -7
-12 8 106 115 76 37 6 -7
-13 7 105 114 77 38 7 -6
-10 7 103 112 76 38 7 -6
-7 7 102 111 75 37 7 -6
-4 7 100 109 74 37 7 -6
0 7 98 107 73 36 7 -6
3 8 96 105 71 35 7 -6
3 10 96 105 71 36 7 -6
2 13 95 104 71 37 8 -5
1 15 94 104 72 39 8 -4
0 17 93 103 72 40 9 -3
-2 20 92 102 73 43 10 -2
0 20 87 96 70 42 10 -2
1 21 81 90 67 39 10 -2
3 21 77 84 64 37 10 -2
4 22 72 78 60 35 10 -2
6 23 67 72 57 33 11 0
6 20 66 70 57 33 12 1
5 16 64 68 56 33 13 3
5 13 63 66 55 33 14 4
4 10 61 63 54 33 15 6
3 6 59 61 53 33 17 8
2 6 55 55 49 30 16 7
0 6 51 49 44 28 14 5
-2 6 46 44 39 25 13 4
-4 6 42 37 34 22 11 2
-6 6 37 31 30 19 9 0
-6 4 37 29 29 19 10 0
-5 2 36 27 28 19 11 1
-5 0 35 25 27 19 12 2
-4 -4 34 22 26 19 13 3
-3 -6 33 20 24 20 14 4
-3 -6 32 19 23 18 13 4
-4 -5 30 18 22 16 12 4
-5 -5 29 17 21 14 11 3
-6 -4 27 16 20 12 10 3
-7 -3 25 14 18 9 8 2
-5 -6 24 13 17 9 7 1
-2 -8 23 11 15 9 6 0
1 -11 22 9 13 8 5 -2
3 -14 21 7 11 8 4 -3
6 -17 19 5 9 7 2 -4
6 -16 19 4 8 7 2 -4
5 -15 19 3 7 6 1 -5
5 -13 18 2 5 5 1 -5
4 -12 18 1 4 4 0 -6
3 -10 17 -2 2 3 -2 -7
0 -11 16 -3 1 2 -3 -8
-3 -12 15 -4 -2 0 -4 -9
-6 -13 14 -6 -3 -3 -6 -11
-9 -14 13 -7 -5 -5 -7 -12
-12 -16 12 -9 -7 -7 -9 -14
-12 -18 12 -9 -7 -7 -9 -14
-11 -20 13 -8 -7 -7 -9 -13
-11 -22 13 -8 -7 -7 -9 -12
-10 -24 14 -7 -7 -7 -9 -11
-9 -26 15 -6 -6 -7 -8 -10
-9 -22 14 -7 -7 -9 -10 -12
-8 -17 13 -9 -9 -11 -12 -14
-7 -13 11 -10 -11 -13 -15 -17
-6 -9 10 -12 -13 -15 -17 -19
-5 -4 8 -14 -15 -17 -20 -22
-7 -10 10 -13 -14 -15 -18 -20
-9 -16 12 -11 -12 -13 -16 -18
-11 -22 14 -9 -11 -11 -14 -16
-13 -28 16 -7 -9 -9 -12 -14
-15 -34 18 -5 -7 -7 -10 -12
-14 -33 18 -5 -7 -7 -10 -12
-12 -31 18 -5 -7 -7 -10 -12
-11 -29 18 -5 -6 -7 -10 -12
-9 -27 18 -5 -6 -7 -10 -12
-7 -25 17 -4 -5 -7 -10 -11
-7 -25 17 -4 -5 -7 -10 -11
-7 -24 17 -4 -5 -7 -11 -11
-7 -23 17 -4 -6 -7 -12 -11
-7 -22 17 -4 -6 -7 -13 -11
-7 -21 18 -3 -7 -8 -14 -11
-8 -22 18 -3 -7 -8 -14 -11
-9 -24 18 -3 -7 -8 -13 -11
-11 -26 18 -3 -7 -8 -13 -11
-12 -28 18 -3 -7 -8 -12 -11
-14 -30 17 -2 -8 -9 -11 -12
-13 -30 17 -2 -8 -9 -11 -12
-11 -29 17 -2 -8 -9 -12 -12
-10 -29 17 -2 -7 -9 -12 -12
-8 -28 17 -2 -7 -9 -13 -12
-6 -27 17 0 -6 -9 -14 -13
-5 -27 17 0 -6 -9 -14 -13
-4 -27 17 0 -5 -8 -14 -13
-3 -27 16 0 -4 -7 -13 -13
-2 -27 16 0 -3 -6 -13 -13
0 -27 15 1 -2 -5 -12 -12
-3 -27 16 2 -2 -4 -11 -11
-5 -27 17 3 0 -3 -9 -10
-8 -27 18 4 1 -2 -8 -8
-10 -27 19 5 2 0 -6 -7
-13 -26 21 7 3 1 -4 -5
-12 -25 20 7 3 1 -4 -5
-10 -24 19 6 3 1 -4 -6
-9 -23 17 6 3 0 -5 -7
-7 -22 16 5 3 0 -5 -8
-5 -21 14 4 2 -2 -6 -9
-5 -21 14 4 2 -2 -6 -9
-6 -21 14 4 2 -2 -6 -9
-7 -21 14 4 2 0 -6 -9
-8 -21 14 4 2 0 -6 -9
-9 -20 14 3 3 1 -5 -8
-7 -20 14 3 3 1 -5 -8
-5 -20 14 3 3 1 -5 -8
-3 -20 13 3 3 2 -5 -8
0 -20 13 3 3 2 -5 -8
2 -19 12 2 4 3 -4 -9
-2 -19 12 2 4 3 -4 -9
-5 -18 11 2 4 3 -4 -9
-8 -18 11 2 4 3 -4 -9
-11 -17 10 2 4 3 -4 -9
-14 -16 9 2 3 4 -4 -8
-13 -17 10 3 4 4 -4 -8
-11 -19 11 4 5 4 -3 -8
-9 -20 12 6 6 5 -2 -8
-7 -22 13 7 7 5 0 -8
-5 -24 15 9 8 6 1 -7
-5 -24 14 8 7 6 1 -7
-5 -24 13 6 6 6 1 -7
-4 -24 12 4 5 6 1 -7
-4 -24 11 2 4 6 1 -7
-3 -24 9 0 2 6 1 -6
-3 -24 9 0 2 6 1 -6
-3 -23 9 0 3 6 1 -6
-4 -22 8 0 4 6 1 -6
-4 -21 8 0 5 6 1 -6
-5 -20 7 0 6 6 1 -5
-3 -21 6 -2 5 4 0 -6
0 -22 5 -3 3 2 -2 -7
2 -23 4 -4 2 0 -4 -9
4 -24 3 -5 0 -3 -5 -10
6 -26 1 -6 -3 -5 -7 -12
5 -26 3 -5 0 -3 -5 -10
3 -26 5 -3 2 1 -3 -7
2 -25 7 0 4 3 0 -4
0 -25 9 2 6 6 2 0
-3 -24 11 4 9 9 4 3
-3 -24 10 3 8 8 3 3
-3 -24 9 2 6 7 2 2
-4 -23 7 1 5 5 1 1
-4 -23 6 1 3 4 1 0
-4 -23 5 0 2 3 0 0
-5 -22 4 -2 1 2 -2 -2
-5 -21 4 -3 1 2 -2 -2
-6 -20 4 -3 1 2 -3 -2
-6 -19 4 -4 1 2 -3 -2
-6 -19 4 -4 1 2 -3 -2
-6 -19 2 -5 -2 1 -4 -3
-5 -20 1 -6 -3 0 -5 -3
-3 -21 0 -7 -4 -3 -6 -3
-2 -22 -2 -8 -5 -4 -7 -3
0 -23 -3 -8 -6 -5 -8 -3
0 -23 -4 -9 -7 -5 -9 -4
-3 -22 -3 -8 -6 -4 -9 -4
-4 -20 -2 -8 -5 -3 -8 -4
-6 -19 0 -7 -4 -2 -8 -4
-7 -18 1 -7 -4 0 -8 -4
-7 -18 2 -6 -4 0 -7 -3
-6 -20 1 -7 -5 -2 -7 -3
-5 -21 0 -7 -6 -3 -7 -3
-4 -23 -2 -8 -7 -4 -7 -3
-3 -24 -2 -8 -8 -5 -7 -3
-4 -26 -3 -9 -9 -6 -7 -3
-7 -28 -3 -9 -8 -5 -7 -3
-9 -29 -3 -9 -8 -5 -7 -3
-12 -31 -3 -9 -7 -4 -7 -3
-14 -32 -3 -9 -7 -4 -7 -3
-13 -33 -4 -8 -6 -3 -8 -4
-10 -33 -4 -8 -7 -3 -8 -4
-7 -33 -5 -9 -8 -4 -8 -4
-4 -33 -5 -9 -9 -4 -8 -4
-2 -33 -5 -9 -9 -4 -8 -4
0 -31 -6 -10 -10 -5 -7 -4
0 -29 -6 -10 -9 -5 -7 -4
0 -28 -6 -10 -9 -5 -7 -4
0 -26 -6 -10 -8 -5 -7 -4
0 -25 -6 -10 -8 -5 -7 -4
-2 -24 -6 -10 -7 -4 -6 -3
-4 -23 -6 -10 -7 -4 -6 -3
-6 -22 -6 -10 -7 -3 -6 -4
-8 -21 -6 -10 -7 -3 -6 -4
-10 -20 -6 -10 -7 -3 -6 -4
-10 -21 -7 -9 -8 -2 -7 -5
-9 -23 -7 -9 -8 -3 -7 -5
-7 -26 -7 -9 -7 -4 -8 -5
-6 -28 -7 -9 -7 -5 -8 -5
-5 -30 -7 -9 -7 -5 -8 -5
-4 -29 -7 -9 -6 -5 -8 -3
-4 -26 -6 -8 -6 -3 -6 -2
-3 -23 -5 -7 -5 0 -4 1
-3 -20 -4 -6 -5 2 -2 2
-3 -18 -3 -5 -5 4 1 3
-2 -17 0 -3 -3 5 2 4
-3 -17 1 -2 0 6 3 5
-4 -16 2 0 2 7 3 5
-5 -16 3 1 4 8 4 6
-5 -16 4 2 5 8 4 6
-5 -13 5 3 6 9 5 7
-3 -10 5 3 6 9 5 7
-2 -7 6 3 6 9 5 7
1 -4 6 3 6 9 5 7
2 -2 6 3 6 9 5 7
2 -5 6 4 7 9 4 6
1 -9 5 3 7 9 4 5
0 -14 3 2 6 9 3 4
-2 -19 2 1 6 9 3 3
-3 -23 1 1 6 9 3 3
-2 -22 0 0 5 8 2 3
1 -20 -2 0 6 9 3 4
4 -17 -3 1 6 10 4 5
6 -15 -4 1 7 11 5 6
8 -13 -4 1 7 11 6 7
9 -14 -7 -2 6 10 6 8
9 -17 -10 -5 4 7 5 7
9 -20 -13 -8 2 4 3 6
9 -23 -16 -12 0 1 2 5
9 -25 -18 -15 -3 -2 1 5
7 -26 -19 -16 -6 -3 0 4
6 -26 -20 -17 -8 -4 -2 3
4 -26 -20 -18 -10 -4 -3 3
3 -26 -21 -19 -12 -5 -4 2
2 -26 -21 -19 -14 -5 -5 2
3 -27 -20 -19 -14 -5 -5 1
5 -27 -18 -17 -13 -3 -4 2
7 -27 -15 -15 -12 -2 -3 3
9 -27 -13 -13 -11 1 -2 4
11 -27 -11 -11 -10 2 0 4
10 -24 -10 -10 -9 3 1 5
8 -21 -10 -10 -8 2 1 5
5 -19 -10 -10 -8 2 0 4
3 -16 -10 -10 -7 1 0 4
1 -14 -10 -10 -7 1 0 4
0 -13 -10 -11 -8 -2 -3 2
0 -14 -11 -13 -10 -3 -5 0
1 -14 -12 -15 -12 -5 -7 -2
1 -15 -13 -17 -14 -6 -9 -4
1 -15 -14 -18 -16 -7 -10 -5
0 -17 -15 -19 -17 -8 -11 -6
-3 -19 -15 -19 -17 -8 -11 -6
-6 -20 -15 -18 -17 -8 -11 -6
-8 -22 -15 -18 -17 -8 -11 -6
-10 -23 -15 -18 -17 -8 -11 -6
-11 -24 -14 -17 -16 -8 -10 -5
-11 -23 -14 -17 -16 -8 -10 -5
-11 -22 -13 -17 -15 -8 -11 -5
-11 -21 -13 -17 -15 -8 -11 -5
-11 -20 -13 -17 -15 -8 -11 -5
-12 -17 -12 -17 -14 -8 -12 -6
-12 -14 -12 -17 -15 -9 -12 -6
-11 -11 -12 -18 -16 -9 -12 -7
-11 -8 -12 -18 -17 -10 -12 -7
-11 -5 -12 -18 -17 -10 -12 -7
-9 -9 -13 -19 -18 -11 -13 -8
-7 -15 -13 -19 -18 -11 -13 -8
-5 -21 -13 -19 -17 -11 -14 -8
-3 -27 -13 -19 -17 -11 -14 -8
0 -33 -13 -19 -17 -11 -14 -8
-2 -29 -12 -15 -13 -7 -13 -8
-4 -24 -9 -11 -8 -4 -10 -6
-6 -18 -6 -6 -4 1 -7 -4
-9 -13 -3 -2 2 5 -5 -2
-11 -7 1 4 6 8 -2 1
-4 3 3 10 18 25 16 15
7 12 4 16 32 44 35 30
17 21 6 22 46 63 55 45
27 30 7 28 59 81 74 60
37 40 8 34 72 101 94 75
58 56 -13 21 85 132 129 103
79 73 -37 4 97 164 165 133
101 90 -62 -14 109 197 202 161
123 106 -87 -30 121 230 240 191
145 123 -111 -48 134 263 277 220
163 131 -147 -75 128 267 292 235
180 137 -185 -105 117 267 303 248
197 143 -223 -134 107 267 314 262
215 149 -261 -163 97 267 325 275
232 155 -298 -192 87 267 337 288
220 140 -305 -207 49 217 293 259
202 121 -308 -221 9 160 239 223
185 103 -311 -235 -31 104 186 187
168 85 -313 -248 -72 48 134 151
150 66 -316 -262 -112 -9 80 115
126 60 -284 -244 -118 -26 56 93
100 56 -247 -222 -120 -39 33 72
73 53 -211 -200 -121 -52 12 51
48 49 -173 -178 -123 -64 -11 29
21 45 -136 -155 -124 -76 -32 9
16 37 -113 -134 -110 -70 -32 5
12 29 -94 -112 -93 -60 -28 4
9 21 -74 -90 -75 -50 -23 2
6 13 -54 -68 -58 -39 -19 1
3 5 -34 -47 -40 -29 -15 0
1 0 -28 -40 -35 -27 -15 -4
-2 -6 -24 -35 -33 -26 -17 -8
-4 -11 -19 -31 -30 -26 -19 -11
-6 -17 -15 -26 -27 -25 -21 -15
-8 -22 -11 -22 -25 -25 -23 -18
-10 -23 -10 -20 -24 -24 -24 -19
-11 -22 -9 -18 -24 -25 -24 -19
-13 -22 -8 -16 -24 -26 -25 -20
-14 -21 -7 -15 -24 -27 -25 -20
-15 -21 -7 -13 -24 -27 -25 -20
-17 -21 -4 -11 -22 -28 -26 -21
-19 -23 0 -10 -21 -27 -25 -20
-21 -25 3 -9 -19 -26 -25 -20
-22 -26 5 -8 -18 -25 -24 -19
-24 -28 8 -7 -17 -24 -24 -19
-23 -29 9 -6 -16 -23 -23 -18
-21 -28 9 -6 -16 -24 -23 -18
-18 -28 8 -7 -15 -25 -22 -17
-15 -27 8 -7 -15 -26 -22 -17
-13 -27 8 -7 -15 -27 -22 -17
-13 -27 7 -7 -14 -27 -21 -16
-14 -28 8 -6 -14 -26 -21 -17
-16 -30 9 -4 -14 -24 -22 -18
-18 -31 10 -2 -14 -23 -22 -19
-19 -32 10 0 -14 -22 -22 -19
-19 -30 11 1 -14 -21 -23 -19
-18 -25 11 1 -15 -21 -22 -18
-17 -20 11 1 -16 -21 -22 -17
-16 -16 11 1 -17 -21 -21 -16
-15 -11 11 1 -18 -21 -21 -15
-14 -13 12 0 -18 -22 -20 -14
-14 -18 13 1 -17 -22 -20 -14
-14 -22 14 2 -15 -21 -20 -14
-14 -26 15 3 -13 -21 -20 -14
-14 -31 16 4 -12 -21 -20 -14
-16 -31 17 5 -11 -20 -19 -13
-17 -29 17 5 -11 -20 -19 -13
-19 -27 17 6 -11 -20 -19 -13
-21 -26 17 6 -11 -20 -19 -13
-22 -24 17 6 -11 -20 -19 -13
-21 -23 17 8 -10 -20 -20 -13
-19 -24 18 9 -9 -20 -20 -14
-17 -24 18 11 -8 -19 -21 -14
-14 -25 19 13 -7 -19 -21 -15
-12 -25 19 14 -6 -19 -21 -15
-11 -25 20 15 -5 -18 -22 -16
-12 -23 21 16 -5 -18 -21 -15
-13 -21 22 16 -5 -18 -20 -14
-14 -20 23 17 -5 -18 -19 -13
-15 -18 24 17 -5 -18 -18 -12
-16 -17 25 18 -6 -18 -17 -11
-15 -17 25 18 -6 -18 -18 -11
-14 -17 24 18 -6 -18 -18 -12
-13 -17 24 18 -6 -18 -19 -12
-13 -17 24 18 -6 -18 -19 -12
-14 -19 23 19 -6 -18 -20 -13
-17 -21 24 20 -6 -18 -20 -13
-19 -23 25 21 -5 -17 -19 -12
-22 -26 26 22 -5 -17 -19 -12
-25 -28 27 23 -5 -17 -19 -12
-25 -28 28 24 -4 -16 -18 -11
-22 -27 28 24 -4 -16 -18 -12
-20 -26 28 25 -4 -17 -19 -13
-17 -24 28 25 -4 -17 -19 -14
-15 -23 28 25 -4 -17 -19 -15
-14 -22 29 26 -3 -18 -20 -16
-15 -21 30 27 -2 -18 -20 -16
-16 -20 31 28 -2 -17 -20 -16
-17 -19 32 29 0 -17 -20 -16
-17 -18 33 30 0 -17 -20 -16
-18 -19 34 32 1 -16 -20 -16
-18 -22 36 33 2 -16 -20 -14
-18 -25 37 35 3 -15 -20 -13
-18 -28 38 37 4 -15 -20 -12
-18 -31 39 38 5 -15 -20 -11
-17 -30 40 40 6 -14 -19 -10
-16 -26 43 43 7 -14 -19 -11
-15 -23 44 45 8 -14 -19 -12
-14 -20 45 46 9 -14 -19 -13
-14 -16 46 48 10 -14 -19 -13
-13 -15 48 51 12 -13 -18 -14
-12 -16 51 55 15 -12 -18 -15
-11 -17 53 58 17 -12 -18 -15
-10 -18 56 61 20 -11 -18 -16
-9 -18 58 65 22 -11 -18 -16
-8 -19 60 68 24 -9 -18 -17
-9 -17 63 71 25 -8 -17 -16
-9 -16 65 73 27 -6 -16 -15
-10 -15 68 76 29 -4 -14 -14
-10 -14 70 79 30 -3 -13 -13
-11 -13 72 82 33 0 -12 -12
-10 -13 75 86 36 2 -12 -11
-9 -13 77 89 38 4 -11 -10
-8 -13 80 93 42 5 -11 -9
-8 -13 82 96 45 7 -11 -9
-8 -13 85 98 46 8 -10 -8
-9 -12 86 100 47 8 -9 -7
-10 -11 87 102 48 9 -8 -6
-12 -10 89 103 49 9 -7 -5
-13 -9 90 105 50 9 -6 -4
-14 -6 91 107 53 11 -5 -3
-14 -2 93 109 55 13 -5 0
-14 2 94 112 58 15 -4 1
-14 5 95 114 60 17 -4 2
-14 9 96 116 63 19 -4 3
-12 10 97 117 64 20 -3 4
-9 10 96 117 63 20 -3 4
-7 10 96 117 63 19 -3 3
-4 10 95 117 62 19 -3 3
-2 10 95 117 62 19 -3 3
0 9 94 117 62 19 0 3
-2 9 94 117 63 20 1 4
-3 9 94 117 65 21 2 5
-4 9 94 117 67 23 4 7
-5 9 94 117 68 24 5 8
-6 10 94 117 69 25 6 9
-4 11 94 117 69 26 8 10
-3 11 94 116 69 26 9 11
-2 12 94 116 69 27 10 12
0 12 94 116 69 27 11 13
1 14 92 114 69 28 12 14
0 15 91 113 68 28 13 14
-2 17 89 112 68 29 13 14
-3 19 87 110 67 29 14 14
-3 20 86 109 67 29 14 14
-4 21 84 106 66 30 15 15
-4 21 81 102 65 30 16 16
-4 21 78 99 64 30 17 17
-4 21 76 96 63 30 18 19
-4 21 74 92 62 30 19 20
-5 20 69 87 59 29 19 21
-5 19 64 80 55 27 18 20
-5 18 59 74 52 25 17 19
-5 17 53 68 48 23 15 18
-5 16 48 62 44 21 14 17
-6 15 44 57 40 19 13 16
-5 17 39 52 36 17 13 16
-4 18 36 47 33 15 13 16
-3 19 33 42 30 13 13 16
-3 20 29 37 26 11 13 16
-2 19 27 33 25 10 12 15
-3 15 26 31 23 9 11 14
-4 11 25 28 22 9 10 14
-5 7 23 25 21 8 9 13
-6 3 22 22 20 8 9 13
-4 4 21 20 18 7 8 12
2 6 20 18 16 6 8 12
6 9 19 17 15 5 7 12
11 12 18 15 13 4 7 12
15 15 17 13 11 4 7 12
14 14 16 11 9 3 6 11
10 11 15 9 6 1 5 11
5 7 14 6 4 0 4 10
1 4 13 4 1 -2 3 10
-4 0 12 2 -2 -3 3 10
-6 -2 11 1 -3 -4 2 9
-6 -3 10 1 -3 -6 2 9
-7 -4 9 0 -3 -7 1 8
-7 -5 8 0 -3 -8 1 8
-7 -5 8 0 -3 -9 1 8
-8 -6 6 -3 -5 -11 -2 6
-7 -6 4 -5 -6 -13 -4 4
-6 -6 3 -7 -8 -14 -5 2
-6 -6 1 -9 -9 -16 -7 0
-5 -6 -2 -11 -11 -18 -9 -3
-3 -6 -3 -12 -12 -19 -10 -4
-2 -6 -2 -12 -12 -19 -10 -4
0 -6 0 -11 -13 -19 -10 -4
2 -6 1 -11 -13 -19 -10 -4
3 -6 2 -11 -13 -19 -10 -4
2 -7 3 -10 -14 -20 -11 -4
-2 -6 3 -10 -14 -20 -11 -5
-5 -6 2 -9 -14 -20 -12 -5
-8 -5 2 -9 -14 -20 -12 -6
-12 -5 2 -9 -14 -20 -12 -6
-13 -4 1 -8 -14 -21 -13 -7
-11 -4 1 -10 -15 -21 -13 -7
-10 -4 1 -11 -15 -21 -13 -7
-9 -4 1 -12 -16 -21 -13 -7
-8 -4 1 -13 -16 -21 -13 -7
-7 -4 1 -14 -17 -22 -14 -7
-7 -2 1 -14 -17 -22 -14 -7
-7 0 1 -14 -17 -23 -15 -7
-7 1 1 -14 -17 -23 -15 -7
-7 2 1 -14 -17 -23 -15 -7
-8 1 2 -14 -17 -24 -16 -8
-9 -3 3 -13 -16 -24 -16 -8
-10 -6 3 -12 -16 -24 -15 -8
-10 -9 4 -11 -15 -24 -15 -8
-11 -13 4 -10 -15 -24 -15 -8
-12 -13 5 -9 -14 -23 -14 -7
-11 -11 6 -8 -13 -22 -14 -6
-10 -9 7 -7 -12 -21 -13 -6
-10 -7 8 -7 -11 -21 -13 -5
-9 -5 9 -6 -10 -20 -13 -5
-8 -2 10 -5 -9 -19 -12 -4
-8 1 9 -6 -10 -20 -13 -5
-7 4 8 -7 -11 -20 -14 -6
-7 7 8 -7 -11 -21 -14 -7
-7 10 7 -8 -12 -21 -15 -8
-6 9 7 -8 -12 -21 -15 -8
-6 6 8 -6 -10 -19 -14 -7
-6 2 9 -5 -8 -18 -13 -5
-6 -2 11 -3 -6 -16 -11 -4
-6 -6 12 0 -4 -14 -10 -2
-5 -7 13 1 -3 -13 -9 0
-5 -7 12 1 -3 -14 -9 -2
-5 -7 11 1 -4 -14 -9 -2
-5 -7 10 1 -4 -15 -9 -3
-5 -7 9 1 -4 -15 -9 -3
-6 -6 8 0 -5 -16 -10 -4
-8 -8 7 -2 -5 -16 -11 -5
-9 -9 6 -2 -6 -17 -11 -5
-11 -11 5 -3 -6 -17 -12 -6
-12 -12 4 -3 -6 -17 -12 -6
-11 -12 3 -4 -7 -18 -13 -7
-7 -10 3 -4 -7 -17 -12 -6
-4 -8 3 -4 -7 -16 -12 -6
1 -6 3 -4 -7 -16 -11 -5
4 -4 3 -4 -7 -15 -11 -5
4 -2 4 -3 -6 -14 -9 -3
0 1 4 -3 -5 -12 -7 -2
-5 3 4 -2 -4 -11 -6 1
-9 5 4 -2 -4 -10 -4 2
-13 7 4 -2 -3 -9 -2 4
-14 8 3 0 -2 -8 -2 4
-12 8 3 0 -3 -10 -4 2
-10 7 2 -2 -4 -11 -5 1
-7 7 2 -2 -4 -13 -7 -2
-5 7 2 -2 -5 -14 -9 -4
-5 6 1 -3 -6 -14 -9 -4
-7 5 2 -3 -4 -12 -7 -2
-9 4 3 -3 -3 -10 -5 1
-12 3 3 -3 0 -8 -2 4
-14 2 4 -3 1 -6 1 6
-15 1 5 -2 2 -5 2 7
-13 1 4 -2 0 -6 1 5
-12 1 4 -2 -2 -7 0 4
-10 1 3 -2 -4 -8 -2 3
-9 1 3 -2 -5 -9 -3 2
-8 1 1 -4 -6 -10 -4 1
-8 1 -2 -5 -7 -11 -5 0
-7 1 -3 -7 -8 -11 -6 -2
-7 1 -5 -8 -8 -12 -7 -3
-7 1 -7 -10 -9 -12 -8 -4
-6 1 -8 -11 -10 -13 -9 -5
-6 4 -6 -10 -9 -12 -7 -3
-7 6 -5 -9 -9 -11 -6 -2
-7 8 -4 -8 -8 -11 -5 0
-7 11 -3 -7 -8 -10 -4 1
-8 12 -2 -6 -7 -10 -4 2
-7 13 -3 -7 -8 -12 -7 0
-6 14 -4 -7 -9 -14 -9 -2
-5 15 -4 -8 -10 -16 -11 -4
-4 16 -5 -8 -11 -18 -14 -5
-3 15 -6 -9 -12 -19 -15 -6
0 12 -6 -9 -12 -17 -13 -6
1 8 -6 -9 -12 -16 -12 -5
2 5 -6 -9 -12 -15 -11 -5
3 2 -6 -9 -12 -14 -10 -5
3 0 -5 -9 -11 -13 -9 -4
1 -2 -5 -9 -11 -13 -9 -5
-2 -2 -5 -10 -11 -13 -10 -6
-5 -3 -5 -10 -11 -13 -10 -6
-7 -3 -5 -10 -11 -13 -10 -7
-7 -4 -7 -12 -12 -15 -12 -8
-4 -4 -9 -14 -14 -17 -13 -10
0 -4 -11 -16 -16 -19 -15 -11
3 -4 -13 -19 -19 -21 -16 -13
6 -4 -15 -21 -21 -23 -18 -14
4 -3 -15 -21 -21 -23 -18 -14
0 -2 -14 -20 -19 -21 -16 -12
-6 1 -12 -18 -17 -19 -14 -9
-11 2 -11 -17 -15 -17 -12 -7
-16 3 -9 -15 -13 -15 -10 -4
-16 4 -8 -14 -12 -14 -9 -3
-13 4 -8 -14 -12 -14 -9 -3
-10 5 -8 -14 -13 -14 -9 -4
-7 6 -8 -14 -14 -14 -9 -5
-4 6 -8 -14 -14 -14 -9 -5
-2 7 -9 -15 -15 -14 -10 -6
-2 7 -10 -16 -15 -16 -11 -8
-3 7 -11 -18 -16 -17 -13 -9
-4 7 -12 -19 -17 -19 -14 -11
-4 7 -13 -20 -17 -20 -15 -12
-6 7 -14 -21 -18 -21 -16 -13
-8 6 -14 -21 -18 -21 -16 -13
-11 4 -14 -21 -18 -20 -15 -12
-13 3 -14 -21 -18 -20 -15 -12
-16 2 -14 -21 -18 -20 -15 -12
-17 1 -13 -20 -19 -19 -14 -11
-16 0 -13 -20 -19 -19 -14 -11
-15 -3 -13 -19 -18 -18 -14 -11
-15 -4 -13 -19 -18 -17 -14 -11
-14 -5 -13 -19 -18 -17 -14 -11
-13 -6 -13 -18 -17 -16 -14 -12
-12 -5 -13 -18 -18 -16 -14 -12
-10 -4 -13 -19 -19 -16 -14 -13
-9 -3 -13 -19 -19 -16 -14 -13
-8 -2 -13 -19 -20 -16 -14 -13
-7 0 -14 -20 -21 -17 -15 -14
-7 2 -14 -20 -21 -17 -15 -13
-6 3 -14 -21 -21 -18 -16 -12
-6 5 -14 -21 -21 -19 -16 -12
-6 6 -14 -21 -21 -19 -16 -11
-3 7 -14 -22 -20 -20 -17 -10
1 7 -14 -22 -20 -20 -17 -10
4 8 -14 -22 -20 -19 -16 -10
8 8 -14 -22 -20 -19 -16 -10
11 8 -14 -22 -20 -19 -16 -10
11 9 -13 -20 -19 -17 -14 -9
7 10 -10 -17 -16 -14 -11 -7
3 12 -7 -14 -13 -11 -9 -4
-2 13 -4 -11 -10 -8 -6 -2
-6 14 0 -9 -7 -5 -3 2
-7 16 2 -7 -5 -3 -2 3
-6 17 2 -7 -6 -5 -3 1
-4 19 1 -7 -7 -6 -5 0
-2 20 0 -7 -8 -8 -6 -3
1 22 0 -7 -9 -9 -7 -4
2 23 -2 -8 -10 -10 -8 -5
1 25 -3 -8 -10 -9 -7 -4
0 26 -4 -8 -9 -7 -6 -3
0 28 -5 -8 -9 -6 -6 -2
-2 29 -6 -8 -9 -5 -5 0
-3 28 -7 -9 -8 -4 -4 1
-3 25 -7 -10 -8 -4 -4 1
-3 22 -8 -11 -9 -4 -4 1
-3 18 -9 -12 -9 -4 -4 1
-3 15 -9 -13 -9 -4 -4 1
-3 13 -11 -14 -11 -4 -3 0
-2 13 -13 -15 -13 -4 -5 0
0 13 -16 -16 -15 -5 -6 0
1 13 -18 -16 -17 -6 -8 0
2 13 -21 -17 -19 -6 -9 0
3 12 -22 -19 -20 -7 -10 -2
1 12 -22 -21 -21 -9 -10 -2
0 11 -22 -23 -22 -11 -10 -2
-3 10 -22 -25 -22 -12 -10 -2
-4 10 -22 -28 -23 -14 -10 -2
-4 9 -23 -29 -24 -15 -9 -3
-2 9 -23 -29 -24 -15 -9 -4
1 10 -23 -28 -23 -15 -10 -6
3 11 -23 -28 -23 -15 -11 -7
6 11 -23 -28 -23 -15 -11 -8
7 12 -23 -27 -22 -14 -12 -9
7 12 -22 -27 -22 -14 -11 -9
7 13 -21 -26 -21 -14 -10 -8
7 14 -21 -25 -20 -14 -10 -7
7 14 -20 -25 -20 -14 -9 -7
5 13 -19 -24 -19 -13 -8 -6
3 8 -19 -24 -19 -13 -9 -7
1 4 -18 -24 -20 -14 -10 -8
-2 -2 -18 -24 -21 -15 -11 -9
-5 -7 -18 -24 -21 -15 -12 -10
-6 -9 -17 -25 -22 -16 -13 -11
-6 -9 -17 -25 -22 -16 -13 -11
-6 -9 -17 -25 -23 -15 -13 -12
-6 -9 -17 -25 -23 -15 -13 -12
-6 -9 -17 -25 -23 -15 -13 -12
-7 -8 -16 -24 -24 -14 -13 -13
-7 -8 -16 -24 -24 -14 -13 -13
-7 -9 -16 -24 -24 -13 -13 -13
-7 -10 -16 -24 -24 -12 -13 -13
-7 -10 -16 -24 -24 -12 -13 -13
-7 -11 -15 -23 -24 -11 -14 -14
-7 -11 -13 -22 -24 -11 -14 -14
-6 -11 -11 -20 -23 -12 -14 -14
-5 -11 -9 -18 -23 -12 -14 -14
-5 -11 -7 -16 -23 -12 -14 -14
-4 -11 -6 -15 -22 -13 -14 -13
-4 -10 -7 -16 -22 -12 -14 -13
-5 -9 -8 -17 -21 -11 -13 -12
-5 -9 -9 -18 -21 -11 -12 -12
-5 -8 -10 -19 -21 -10 -12 -12
-7 -7 -11 -20 -20 -9 -11 -11
-9 -7 -11 -20 -20 -9 -11 -11
-11 -7 -10 -19 -20 -9 -11 -10
-13 -7 -9 -19 -20 -9 -11 -10
-15 -7 -9 -19 -20 -9 -11 -10
-14 -6 -6 -13 -13 0 -4 -5
-9 0 1 -2 0 13 8 4
-4 4 6 9 12 25 19 12
2 9 11 19 24 38 31 20
6 14 16 29 36 52 43 28
18 25 10 28 49 72 64 46
34 42 -8 16 59 98 94 69
52 58 -24 5 70 125 123 94
68 74 -41 -8 80 150 153 117
85 91 -58 -19 92 176 183 141
106 104 -83 -37 98 199 214 167
131 115 -115 -59 101 221 245 194
155 127 -147 -80 104 241 277 221
180 138 -179 -102 107 263 309 248
204 149 -211 -123 110 283 341 275
216 150 -239 -150 89 265 330 273
216 142 -266 -181 46 214 285 245
217 135 -294 -212 3 162 240 218
217 127 -320 -242 -39 112 195 191
217 118 -347 -273 -82 61 150 163
200 107 -340 -278 -106 25 113 138
170 92 -305 -260 -113 2 84 113
138 77 -270 -241 -120 -22 54 89
106 63 -234 -223 -129 -46 24 64
74 49 -199 -204 -136 -69 -6 39
54 37 -170 -183 -132 -76 -19 25
42 29 -144 -158 -115 -68 -20 19
30 21 -119 -134 -99 -61 -21 13
18 13 -94 -109 -82 -53 -22 6
7 5 -69 -85 -67 -45 -23 0
1 1 -54 -69 -58 -40 -24 -6
1 0 -47 -61 -55 -39 -26 -10
1 -3 -39 -54 -53 -38 -28 -14
1 -4 -32 -46 -50 -38 -30 -18
1 -5 -26 -37 -48 -37 -32 -23
-2 -7 -20 -31 -44 -35 -32 -25
-5 -10 -16 -28 -38 -31 -29 -23
-8 -13 -11 -24 -33 -27 -27 -21
-10 -16 -7 -20 -28 -24 -24 -19
-13 -19 -3 -16 -23 -20 -22 -17
-15 -21 1 -14 -20 -18 -20 -16
-15 -21 2 -13 -20 -19 -20 -16
-15 -21 3 -12 -19 -20 -21 -16
-15 -21 3 -12 -18 -20 -22 -16
-15 -21 4 -11 -18 -21 -22 -16
-14 -22 5 -10 -17 -22 -23 -17
-16 -22 5 -10 -17 -23 -24 -19
-18 -23 6 -9 -17 -24 -26 -21
-19 -24 7 -8 -17 -24 -27 -23
-21 -24 7 -8 -17 -25 -28 -25
-22 -24 8 -7 -17 -26 -29 -26
-21 -22 8 -7 -17 -26 -29 -26
-20 -20 8 -6 -17 -26 -29 -25
-19 -18 8 -6 -17 -26 -29 -25
-18 -16 8 -6 -17 -26 -29 -25
-17 -14 9 -5 -17 -25 -29 -24
-16 -15 9 -5 -17 -24 -29 -24
-15 -16 9 -5 -17 -23 -28 -25
-14 -16 9 -5 -17 -22 -28 -26
-13 -17 9 -5 -17 -21 -28 -26
-12 -17 10 -4 -18 -20 -27 -27
-13 -15 10 -4 -18 -20 -27 -27
-15 -13 11 -3 -18 -21 -28 -26
-16 -11 11 -2 -18 -22 -28 -26
-17 -9 11 -2 -18 -22 -28 -26
-18 -8 12 0 -19 -23 -29 -25
-17 -12 13 1 -18 -22 -27 -25
-16 -15 14 2 -17 -20 -25 -25
-15 -18 14 3 -16 -19 -24 -25
-14 -22 15 4 -15 -18 -22 -25
-12 -24 16 5 -14 -17 -21 -24
-9 -23 16 5 -14 -18 -23 -24
-6 -22 15 4 -15 -19 -24 -25
-4 -21 14 3 -16 -20 -25 -26
0 -20 14 3 -16 -21 -27 -26
1 -19 13 2 -17 -22 -28 -27
-3 -19 14 4 -15 -21 -28 -27
-6 -18 16 5 -13 -20 -27 -27
-8 -17 17 6 -12 -19 -26 -27
-11 -17 18 8 -10 -18 -26 -27
-13 -16 19 9 -9 -17 -25 -26
-13 -18 19 9 -9 -17 -25 -26
-12 -20 19 9 -10 -18 -26 -27
-11 -21 19 9 -10 -18 -27 -27
-11 -23 19 9 -10 -18 -27 -27
-10 -23 19 11 -11 -19 -28 -28
-11 -21 21 14 -9 -18 -26 -27
-12 -19 24 17 -7 -17 -25 -26
-13 -17 26 19 -6 -17 -24 -25
-14 -15 28 22 -4 -16 -22 -24
-15 -13 30 24 -3 -15 -21 -23
-15 -14 29 23 -3 -15 -23 -23
-14 -15 27 22 -4 -16 -24 -24
-14 -15 26 22 -5 -16 -25 -25
-14 -16 25 21 -5 -16 -27 -25
-13 -17 24 20 -6 -17 -28 -26
-13 -19 25 21 -6 -17 -28 -26
-12 -21 26 22 -6 -17 -28 -26
-11 -23 27 24 -5 -16 -28 -27
-11 -25 28 25 -5 -16 -28 -27
-10 -26 29 27 -3 -15 -28 -28
-11 -24 31 29 0 -13 -26 -26
-12 -22 33 31 2 -11 -25 -24
-14 -20 35 33 5 -9 -23 -22
-15 -18 37 35 7 -7 -21 -20
-16 -17 39 37 9 -5 -20 -18
-16 -16 39 37 9 -6 -20 -19
-16 -16 39 38 9 -6 -20 -19
-17 -15 40 39 9 -7 -21 -20
-17 -14 40 39 9 -8 -21 -21
-18 -13 42 42 9 -9 -22 -22
-17 -13 44 46 9 -9 -22 -22
-16 -13 45 49 9 -8 -22 -22
-14 -14 46 52 9 -7 -22 -22
-13 -14 48 56 9 -7 -22 -22
-12 -15 50 58 12 -5 -23 -23
-12 -15 52 60 16 -3 -21 -22
-12 -15 55 62 20 0 -19 -21
-11 -15 58 64 24 2 -17 -19
-11 -15 60 66 28 4 -15 -18
-10 -14 62 69 31 6 -14 -17
-10 -12 64 71 32 6 -14 -17
-10 -11 65 73 33 6 -14 -17
-10 -9 67 76 35 7 -15 -17
-10 -7 69 78 36 7 -15 -17
-10 -6 70 80 37 8 -16 -18
-9 -4 72 82 38 10 -15 -18
-8 -3 73 84 39 11 -15 -18
-7 0 75 85 40 12 -14 -17
-6 2 77 87 42 14 -13 -17
-5 2 78 89 43 15 -12 -16
-6 -2 79 92 45 15 -12 -16
-7 -4 80 95 47 16 -12 -16
-9 -7 82 99 49 17 -12 -16
-10 -10 84 102 51 17 -12 -16
-11 -11 85 104 54 18 -11 -15
-9 -7 87 106 56 20 -9 -13
-8 -3 89 108 58 22 -8 -12
-7 2 91 110 60 24 -7 -11
-5 5 93 112 62 26 -5 -9
-4 8 94 114 64 28 -4 -8
-4 8 93 114 64 28 -4 -8
-4 7 92 113 64 28 -4 -8
-4 6 91 112 64 28 -3 -8
-4 6 90 112 64 28 -3 -8
-4 5 89 111 64 29 -2 -7
-6 7 89 111 65 30 1 -5
-8 8 89 111 65 31 2 -3
-10 9 89 111 66 32 4 0
-12 11 89 111 67 33 6 2
-13 12 89 110 68 34 7 4
-11 13 86 107 66 33 6 3
-10 14 82 104 64 32 5 2
-9 16 78 101 62 30 4 1
-7 17 75 98 60 29 3 0
-6 18 73 95 58 28 2 -2
-7 17 71 93 58 29 4 2
-8 16 69 91 58 29 5 4
-9 15 67 88 57 30 7 6
-10 14 65 86 57 31 9 8
-10 13 62 82 56 32 10 10
-7 14 59 78 54 31 10 10
-4 14 57 75 52 30 10 10
0 15 54 71 50 28 10 9
3 16 51 68 49 27 10 9
4 17 48 64 46 26 9 8
1 16 45 59 44 25 9 8
-4 16 42 55 40 25 9 8
-7 15 37 51 38 24 9 9
-11 14 34 47 35 23 9 9
-12 13 31 42 32 21 9 10
-8 11 27 36 28 18 7 8
-4 10 23 31 25 15 5 6
1 9 19 26 21 12 3 4
4 7 15 21 18 9 1 3
7 6 12 18 15 7 -2 1
8 6 11 16 14 7 -2 3
8 6 11 15 13 6 -2 4
9 6 10 13 11 5 -2 5
10 6 9 11 10 5 -2 7
11 5 8 10 9 4 0 8
10 3 6 8 7 2 -2 6
9 1 5 6 6 0 -3 5
7 -3 4 4 4 -3 -4 3
6 -5 2 3 2 -4 -5 1
5 -7 1 0 1 -6 -6 0
5 -7 0 -3 -2 -7 -7 -2
5 -7 -2 -5 -3 -7 -9 -3
6 -7 -4 -8 -5 -8 -10 -4
6 -7 -5 -10 -7 -9 -12 -5
6 -7 -6 -12 -8 -10 -13 -6
4 -7 -6 -11 -8 -10 -13 -5
1 -7 -6 -11 -8 -10 -13 -4
-2 -7 -6 -10 -7 -10 -13 -3
-5 -7 -6 -9 -7 -10 -13 -2
-7 -6 -5 -8 -6 -9 -12 0
-6 -6 -5 -9 -7 -11 -12 -3
-5 -7 -5 -10 -8 -12 -12 -4
-4 -8 -5 -11 -10 -14 -12 -6
-3 -8 -5 -12 -11 -16 -12 -8
-2 -9 -6 -13 -12 -17 -13 -9
-4 -9 -6 -13 -12 -17 -13 -9
-5 -10 -6 -13 -12 -17 -13 -9
-7 -11 -6 -13 -12 -17 -14 -9
-9 -11 -6 -13 -12 -17 -14 -9
-10 -12 -6 -14 -13 -16 -15 -9
-8 -12 -6 -14 -13 -16 -15 -9
-7 -11 -6 -14 -13 -16 -15 -9
-5 -10 -6 -14 -13 -16 -15 -9
-3 -10 -6 -14 -13 -16 -15 -9
-2 -9 -5 -14 -13 -17 -16 -8
-3 -9 -5 -14 -13 -17 -16 -8
-3 -9 -4 -13 -13 -17 -16 -8
-4 -8 -3 -12 -13 -18 -17 -9
-5 -8 -3 -12 -13 -18 -17 -9
-6 -7 -2 -11 -14 -19 -18 -10
-5 -7 -2 -11 -14 -19 -18 -10
-5 -7 -2 -11 -14 -19 -19 -10
-4 -7 -2 -11 -14 -19 -20 -11
-3 -7 -2 -11 -14 -19 -20 -11
-3 -8 -2 -12 -13 -19 -21 -12
-5 -9 -2 -12 -13 -19 -21 -12
-8 -10 -3 -12 -13 -20 -21 -12
-10 -11 -4 -12 -13 -21 -21 -12
-13 -12 -4 -12 -13 -21 -21 -12
-15 -13 -5 -12 -14 -22 -21 -13
-14 -13 -4 -11 -14 -22 -21 -13
-13 -13 -4 -10 -14 -21 -21 -13
-12 -13 -3 -9 -13 -20 -21 -13
-11 -13 -2 -8 -13 -20 -21 -13
-10 -12 0 -7 -12 -19 -21 -12
-10 -12 0 -7 -12 -19 -21 -12
-11 -12 0 -7 -12 -19 -21 -12
-12 -12 0 -7 -12 -19 -21 -12
-12 -12 0 -7 -12 -19 -21 -12
-13 -13 -2 -7 -12 -18 -21 -13
-11 -13 -2 -6 -12 -18 -21 -13
-9 -13 0 -5 -12 -18 -21 -13
-7 -13 1 -4 -11 -19 -21 -13
-5 -13 1 -3 -11 -19 -21 -13
-3 -14 2 -2 -10 -20 -20 -13
-3 -13 2 -2 -9 -18 -19 -12
-3 -11 3 0 -8 -16 -17 -11
-3 -10 4 1 -6 -14 -16 -10
-3 -8 4 1 -5 -13 -14 -9
-3 -7 5 2 -4 -11 -13 -8
-3 -7 5 2 -3 -9 -11 -6
-4 -6 5 2 0 -8 -10 -4
-5 -5 6 3 1 -6 -8 -2
-5 -5 6 3 3 -5 -7 0
-6 -4 7 4 4 -3 -5 2
-3 -2 7 3 3 -3 -5 2
0 1 7 3 2 -3 -5 2
3 3 6 2 1 -4 -5 1
5 5 6 1 0 -4 -5 1
6 7 5 0 -2 -5 -4 0
4 5 5 1 0 -5 -4 0
1 3 5 1 0 -5 -4 1
-3 1 4 2 1 -5 -4 2
-6 -2 4 3 2 -5 -4 2
-8 -4 3 4 3 -6 -3 3
-6 -3 3 3 2 -7 -4 2
-4 -3 2 2 1 -8 -5 1
-2 -2 1 1 -2 -9 -6 -2
1 0 1 0 -3 -10 -7 -3
3 1 0 -2 -4 -11 -8 -4
0 -2 0 -2 -3 -9 -6 -2
-3 -3 1 0 0 -8 -5 1
-6 -5 2 1 1 -6 -3 3
-8 -6 2 1 3 -5 -2 4
-9 -8 3 2 4 -3 0 6
-6 -7 2 1 2 -5 -3 3
-2 -5 1 0 1 -7 -6 1
3 -4 0 -3 -2 -9 -9 -3
6 -2 -2 -4 -3 -11 -12 -5
9 0 -3 -5 -5 -13 -14 -7
6 0 -3 -5 -5 -13 -13 -7
4 0 -3 -5 -5 -13 -13 -7
1 0 -3 -5 -5 -13 -12 -7
-2 0 -3 -5 -5 -13 -11 -7
-4 0 -3 -5 -5 -12 -10 -6
-4 -4 -3 -5 -6 -12 -10 -5
-4 -7 -3 -6 -6 -12 -10 -5
-5 -10 -4 -7 -7 -12 -10 -4
-5 -13 -4 -7 -8 -12 -10 -3
-6 -16 -5 -8 -9 -13 -9 -2
-6 -16 -5 -8 -9 -13 -9 -2
-6 -16 -5 -8 -9 -13 -8 -2
-6 -15 -5 -8 -9 -12 -7 -2
-6 -15 -5 -8 -9 -12 -7 -2
-6 -14 -4 -8 -8 -11 -6 -2
-4 -13 -4 -9 -9 -12 -7 -2
-2 -12 -5 -9 -9 -14 -9 -3
1 -11 -6 -10 -10 -15 -10 -4
2 -10 -6 -11 -11 -17 -12 -4
4 -9 -7 -12 -12 -18 -13 -5
3 -9 -6 -11 -11 -16 -12 -4
2 -9 -4 -10 -9 -14 -10 -3
0 -9 -3 -9 -8 -12 -9 -2
-2 -9 0 -8 -6 -11 -7 0
-3 -9 1 -7 -5 -9 -6 1
-3 -10 0 -8 -6 -10 -7 0
-3 -11 -2 -9 -7 -12 -8 -2
-3 -12 -3 -10 -8 -13 -9 -3
-3 -14 -5 -11 -9 -15 -11 -4
-3 -15 -6 -12 -10 -16 -12 -5
-3 -14 -6 -13 -10 -16 -12 -5
-3 -14 -7 -13 -10 -16 -12 -5
-3 -13 -7 -14 -10 -16 -12 -6
-3 -12 -8 -15 -10 -16 -12 -6
-4 -11 -9 -16 -10 -17 -12 -7
0 -8 -7 -14 -9 -16 -11 -6
3 -5 -5 -12 -9 -16 -11 -5
5 -2 -4 -10 -8 -15 -10 -4
8 2 -2 -8 -7 -14 -9 -2
10 5 1 -6 -6 -13 -8 0
8 3 0 -7 -6 -13 -8 0
6 1 0 -8 -6 -13 -8 0
4 -2 -2 -9 -7 -12 -7 0
2 -4 -3 -10 -7 -12 -7 0
0 -6 -4 -11 -8 -11 -6 1
-3 -7 -5 -12 -10 -13 -7 0
-6 -9 -5 -12 -12 -14 -9 -3
-8 -10 -6 -13 -13 -16 -10 -4
-10 -12 -7 -14 -15 -17 -12 -6
-12 -13 -8 -15 -17 -19 -13 -7
-11 -11 -8 -15 -16 -18 -13 -7
-10 -8 -8 -15 -14 -18 -12 -6
-9 -6 -7 -14 -13 -17 -12 -6
-7 -4 -7 -14 -11 -16 -11 -5
-6 -2 -6 -13 -10 -15 -10 -4
-6 -3 -6 -12 -9 -15 -10 -4
-6 -5 -6 -11 -9 -15 -10 -4
-7 -6 -7 -10 -8 -16 -9 -3
-7 -8 -7 -9 -7 -16 -9 -3
-8 -9 -8 -8 -6 -17 -8 -2
-5 -7 -6 -7 -5 -15 -7 0
-3 -4 -3 -6 -3 -13 -6 1
0 -2 0 -5 -2 -12 -5 2
3 1 2 -3 1 -10 -3 3
5 3 4 -2 2 -8 -2 4
5 4 4 -3 2 -8 -2 4
5 5 4 -3 2 -8 -2 4
5 6 3 -4 1 -8 -2 4
5 7 3 -5 1 -8 -2 4
6 8 2 -6 0 -9 -3 4
6 8 1 -6 0 -9 -3 4
7 8 0 -7 0 -9 -3 3
7 9 -2 -7 0 -9 -3 3
8 9 -4 -8 0 -9 -3 2
9 10 -5 -9 -2 -9 -3 1
7 9 -4 -8 -2 -9 -2 2
5 7 -4 -7 0 -8 -2 3
4 6 -3 -6 0 -8 0 4
2 4 -2 -5 1 -7 1 5
0 3 0 -4 2 -6 2 6
1 2 -3 -6 2 -6 2 6
1 1 -5 -8 2 -6 2 6
2 0 -7 -9 1 -6 2 5
3 -3 -9 -11 1 -6 2 5
4 -4 -11 -13 0 -5 3 4
5 0 -12 -14 -5 -8 1 4
6 2 -12 -15 -8 -11 -2 4
7 4 -13 -16 -12 -14 -4 3
9 7 -14 -18 -15 -17 -6 3
10 9 -15 -19 -18 -20 -8 2
10 6 -15 -19 -18 -20 -8 1
10 3 -15 -19 -17 -19 -8 1
10 0 -15 -19 -17 -19 -7 0
10 -3 -15 -19 -16 -18 -7 -2
9 -6 -15 -19 -14 -16 -6 -3
7 -5 -11 -16 -11 -13 -4 -2
5 -5 -8 -14 -7 -9 -2 1
4 -4 -5 -11 -3 -6 0 2
2 -3 -2 -8 2 -2 2 3
0 -2 2 -6 4 1 4 5
0 -3 -3 -10 0 -4 0 2
-2 -5 -7 -14 -5 -8 -4 0
-2 -6 -10 -17 -10 -13 -7 -4
-3 -7 -14 -21 -14 -17 -10 -7
-4 -9 -17 -24 -18 -21 -13 -9
-5 -9 -16 -23 -18 -21 -13 -9
-6 -9 -15 -22 -18 -20 -13 -9
-7 -10 -14 -21 -18 -20 -13 -10
-9 -10 -13 -20 -18 -19 -13 -10
-10 -10 -12 -19 -18 -18 -13 -11
-8 -5 -12 -19 -18 -18 -13 -11
-6 0 -12 -19 -18 -18 -13 -11
-4 5 -12 -19 -18 -18 -14 -11
-2 10 -12 -19 -18 -18 -14 -11
1 13 -12 -18 -18 -19 -15 -11
1 7 -12 -18 -18 -19 -15 -11
1 2 -12 -18 -17 -18 -14 -10
2 -5 -11 -17 -17 -18 -14 -10
2 -10 -11 -17 -16 -17 -13 -9
3 -15 -10 -16 -15 -16 -12 -8
3 -15 -10 -16 -15 -16 -12 -9
4 -15 -10 -16 -15 -16 -13 -9
4 -15 -11 -17 -16 -17 -13 -10
5 -15 -11 -17 -16 -17 -14 -11
5 -16 -12 -18 -17 -18 -15 -12
1 -16 -9 -15 -15 -15 -14 -11
-4 -16 -7 -12 -13 -12 -12 -10
-8 -16 -4 -9 -12 -9 -11 -9
-12 -16 0 -7 -10 -6 -10 -8
-15 -14 2 -2 -5 1 -5 -5
-12 -6 6 7 8 14 8 5
-10 4 9 16 21 27 20 15
-7 13 13 25 33 40 33 24
-4 22 16 34 47 54 46 33
3 32 16 39 59 70 63 48
24 50 1 28 70 98 96 72
45 66 -16 17 81 127 128 98
65 82 -31 6 93 154 159 123
86 99 -47 -6 104 182 192 149
106 115 -65 -19 114 210 225 176
128 128 -94 -39 118 238 263 206
148 141 -121 -60 123 266 300 238
169 154 -150 -80 129 295 337 269
189 168 -178 -101 134 322 375 300
205 175 -206 -124 129 334 393 318
206 161 -234 -154 89 281 350 293
209 147 -262 -185 49 230 306 266
211 133 -290 -216 9 179 262 240
212 119 -318 -246 -31 128 218 214
206 106 -332 -267 -64 80 176 187
172 95 -299 -251 -75 50 137 156
137 85 -266 -235 -87 18 99 126
102 73 -232 -219 -97 -14 61 95
67 63 -199 -202 -108 -46 22 64
38 53 -168 -185 -116 -69 -9 38
33 44 -144 -162 -110 -64 -13 30
28 35 -121 -139 -105 -58 -18 21
23 27 -98 -116 -99 -53 -22 12
18 19 -74 -93 -93 -48 -27 3
13 11 -55 -72 -86 -43 -31 -5
10 6 -46 -63 -73 -38 -30 -7
6 0 -36 -53 -62 -35 -29 -9
3 -7 -28 -44 -50 -32 -28 -11
0 -12 -19 -33 -38 -28 -26 -13
-4 -17 -12 -25 -28 -25 -25 -15
-5 -16 -9 -23 -26 -25 -25 -16
-7 -15 -7 -21 -24 -24 -25 -17
-8 -14 -4 -18 -22 -24 -25 -18
-9 -13 -2 -16 -20 -23 -25 -20
-11 -12 2 -14 -18 -22 -25 -21
-11 -12 2 -13 -18 -22 -25 -21
-10 -13 2 -12 -17 -22 -25 -21
-10 -13 3 -11 -17 -22 -26 -22
-9 -14 3 -9 -16 -22 -26 -22
-8 -15 4 -8 -15 -23 -27 -23
-8 -15 5 -8 -15 -23 -27 -24
-8 -15 6 -8 -15 -23 -28 -26
-8 -16 7 -7 -15 -24 -28 -27
-8 -16 9 -7 -15 -24 -29 -28
-9 -17 10 -6 -15 -25 -30 -30
-9 -17 10 -5 -15 -25 -30 -30
-8 -18 10 -4 -15 -24 -29 -30
-7 -19 9 -3 -15 -24 -29 -30
-6 -20 9 -2 -15 -23 -28 -30
-5 -21 8 0 -15 -22 -27 -31
-7 -21 9 0 -15 -21 -27 -31
-8 -21 10 0 -15 -19 -27 -30
-10 -20 11 0 -14 -18 -27 -30
-12 -20 12 0 -14 -17 -27 -29
-14 -19 13 0 -13 -15 -27 -28
-13 -19 13 0 -13 -15 -27 -28
-12 -18 13 0 -14 -15 -27 -29
-11 -17 13 1 -14 -15 -26 -29
-10 -16 13 1 -15 -15 -26 -30
-9 -15 13 2 -16 -16 -25 -31
-8 -16 15 4 -14 -16 -25 -30
-7 -18 17 6 -13 -15 -24 -28
-6 -20 19 8 -11 -15 -23 -27
-4 -21 21 10 -9 -14 -22 -26
-3 -23 23 12 -7 -13 -21 -24
-6 -23 23 12 -7 -13 -21 -24
-9 -22 22 11 -7 -13 -21 -25
-12 -22 21 11 -7 -13 -22 -26
-15 -21 20 10 -7 -13 -22 -27
-18 -20 19 9 -7 -14 -23 -28
-18 -20 19 9 -7 -14 -23 -28
-18 -19 19 10 -7 -14 -23 -28
-18 -19 20 11 -6 -13 -22 -28
-18 -18 20 12 -6 -13 -22 -28
-17 -17 21 13 -5 -12 -21 -27
-14 -14 21 13 -5 -12 -21 -27
-11 -11 21 13 -5 -12 -21 -28
-9 -9 20 13 -5 -12 -22 -29
-6 -6 20 13 -5 -12 -22 -30
-3 -3 19 13 -4 -12 -23 -31
-4 -9 21 14 -4 -12 -23 -31
-6 -14 22 15 -4 -11 -22 -31
-7 -19 24 16 -3 -10 -22 -31
-8 -24 26 18 -3 -9 -21 -31
-10 -29 28 19 -2 -8 -20 -30
-10 -26 28 19 -2 -8 -20 -30
-10 -23 28 19 -2 -8 -20 -30
-10 -21 27 20 -2 -9 -21 -31
-10 -18 27 20 -2 -9 -21 -31
-9 -15 26 21 0 -10 -22 -32
-9 -16 27 22 1 -10 -22 -31
-10 -17 29 24 2 -9 -21 -30
-11 -18 31 26 3 -8 -20 -29
-12 -20 32 27 5 -7 -19 -28
-13 -21 34 29 6 -6 -18 -27
-11 -20 34 29 6 -6 -18 -28
-9 -19 34 30 6 -6 -19 -30
-7 -18 34 31 6 -7 -19 -31
-4 -17 34 32 6 -7 -20 -32
-2 -16 34 33 6 -8 -21 -34
-4 -17 36 35 9 -6 -20 -33
-5 -18 38 38 11 -4 -18 -31
-7 -19 40 40 14 -2 -17 -30
-9 -20 44 43 16 2 -16 -29
-11 -22 46 46 19 4 -14 -27
-10 -20 46 47 19 4 -14 -27
-8 -19 47 48 19 4 -15 -28
-7 -17 47 49 19 4 -15 -28
-6 -15 48 50 19 4 -16 -29
-4 -13 49 52 20 4 -17 -30
-4 -11 51 56 22 5 -17 -30
-3 -10 53 60 24 6 -16 -29
-2 -8 55 63 26 7 -15 -28
0 -6 58 67 29 8 -14 -27
1 -4 60 71 31 10 -13 -26
-4 -5 61 72 32 11 -13 -26
-9 -7 62 73 34 12 -13 -26
-13 -8 63 74 36 13 -12 -26
-17 -9 64 75 37 14 -12 -26
-21 -11 66 76 39 15 -11 -26
-20 -9 70 81 44 18 -9 -24
-18 -6 74 86 48 21 -8 -22
-17 -4 78 91 52 24 -6 -20
-16 -2 82 96 56 27 -4 -18
-14 2 87 100 60 30 -2 -16
-14 2 87 101 60 30 -2 -16
-14 2 87 102 60 30 -2 -16
-13 2 87 103 60 29 -2 -17
-13 2 87 104 60 29 -2 -17
-12 1 88 105 61 28 -3 -18
-12 1 88 106 63 29 0 -18
-11 2 89 107 64 31 3 -17
-11 3 90 108 66 33 5 -16
-10 4 91 109 68 34 7 -15
-9 5 92 110 70 36 10 -14
-9 6 92 110 70 36 10 -14
-10 8 92 110 70 37 10 -13
-10 10 92 110 70 37 9 -12
-11 11 92 110 70 38 9 -11
-12 13 91 110 71 39 8 -10
-11 14 91 110 72 40 9 -10
-9 15 91 111 73 42 10 -9
-7 16 91 111 74 44 11 -8
-6 17 91 112 75 45 12 -7
-4 18 90 113 76 47 13 -6
-2 15 87 111 76 47 13 -6
2 12 85 108 76 47 13 -6
5 9 81 105 75 47 14 -6
7 6 78 103 75 47 14 -6
10 3 75 100 74 47 15 -6
9 8 73 97 73 47 15 -5
8 12 71 95 71 47 15 -4
7 17 69 92 70 47 16 -3
6 21 67 89 68 47 16 -2
5 26 65 86 66 46 17 0
3 24 64 84 66 46 18 2
1 22 63 82 65 46 19 4
-2 20 62 80 65 47 21 6
-4 18 61 78 64 47 22 8
-6 16 59 76 63 48 24 10
-4 17 52 67 57 44 22 7
0 18 46 59 50 39 19 5
2 20 39 51 44 35 16 2
4 21 32 43 37 31 14 -2
7 23 26 34 31 27 11 -5
7 17 25 32 30 26 11 -5
6 12 23 29 28 25 11 -5
5 6 22 27 27 24 10 -5
4 0 20 25 25 23 10 -5
3 -6 18 22 23 22 9 -6
4 -4 17 20 22 21 9 -6
5 0 16 18 21 20 8 -6
7 3 15 16 19 19 8 -7
8 5 14 13 18 18 7 -7
10 8 12 11 16 17 6 -8
6 7 10 8 13 15 6 -8
2 6 8 6 11 12 5 -8
-4 5 6 3 8 10 4 -9
-8 4 4 0 5 8 3 -9
-12 2 2 -4 2 5 2 -10
-12 1 1 -6 1 4 2 -10
-12 0 0 -8 -2 3 1 -10
-11 -2 -3 -10 -4 2 0 -11
-11 -3 -4 -13 -6 1 -2 -11
-10 -4 -6 -15 -8 -2 -3 -12
-11 -4 -6 -15 -8 -2 -3 -12
-12 -5 -5 -15 -8 -3 -4 -12
-13 -6 -4 -15 -9 -3 -4 -12
-14 -7 -3 -15 -9 -4 -5 -12
-15 -8 -2 -14 -10 -5 -6 -12
-14 -8 -3 -14 -10 -6 -6 -12
-13 -8 -4 -15 -11 -7 -7 -13
-12 -7 -5 -16 -11 -8 -7 -13
-11 -7 -6 -17 -12 -9 -8 -14
-9 -6 -8 -18 -13 -10 -9 -15
-8 -7 -8 -18 -13 -10 -9 -15
-7 -9 -7 -18 -13 -10 -9 -15
-6 -11 -6 -18 -13 -10 -9 -15
-5 -13 -5 -18 -13 -10 -9 -15
-4 -15 -4 -17 -14 -11 -10 -15
-5 -14 -4 -17 -14 -11 -11 -15
-7 -13 -4 -17 -14 -11 -13 -16
-8 -12 -4 -17 -14 -12 -14 -16
-10 -11 -4 -17 -14 -12 -16 -17
-12 -10 -5 -17 -15 -13 -18 -18
-11 -11 -3 -16 -15 -13 -18 -18
-10 -12 0 -14 -14 -12 -17 -17
-9 -13 2 -13 -13 -12 -16 -16
-8 -14 4 -11 -12 -11 -15 -15
-6 -16 6 -9 -11 -10 -14 -14
-6 -15 5 -10 -12 -11 -15 -16
-7 -14 4 -11 -13 -13 -16 -18
-8 -12 3 -12 -15 -14 -17 -20
-9 -11 2 -13 -16 -16 -18 -22
-10 -9 0 -15 -18 -18 -20 -24
-10 -10 0 -15 -18 -18 -20 -24
-9 -12 0 -15 -18 -18 -20 -24
-8 -13 0 -15 -18 -18 -20 -24
-7 -15 0 -15 -18 -18 -20 -24
-6 -17 -2 -15 -17 -19 -20 -24
-6 -15 0 -14 -16 -19 -18 -23
-7 -13 1 -13 -15 -18 -16 -21
-8 -10 2 -12 -14 -17 -14 -19
-9 -8 3 -11 -13 -16 -12 -17
-10 -5 5 -9 -11 -15 -10 -15
-10 -5 5 -9 -11 -14 -10 -15
-10 -5 5 -9 -10 -12 -10 -15
-11 -6 5 -8 -9 -11 -10 -15
-11 -6 5 -8 -8 -9 -10 -15
-12 -7 6 -7 -7 -7 -10 -14
-12 -7 6 -7 -7 -7 -10 -14
-12 -7 6 -7 -7 -7 -10 -15
-11 -7 5 -7 -7 -8 -11 -15
-11 -7 5 -7 -7 -8 -11 -16
-10 -8 4 -8 -8 -9 -12 -17
-10 -8 4 -8 -8 -9 -12 -17
-9 -8 4 -8 -8 -9 -11 -17
-8 -8 4 -8 -8 -9 -11 -17
-7 -8 4 -8 -8 -9 -10 -17
-6 -8 3 -9 -8 -8 -9 -16
-6 -8 4 -7 -6 -6 -7 -14
-6 -8 6 -5 -3 -3 -5 -12
-7 -9 8 -2 0 0 -2 -10
-7 -9 10 1 3 3 1 -8
-8 -10 12 4 6 6 4 -6
-7 -9 10 2 5 4 2 -7
-6 -7 8 0 3 2 0 -9
-5 -5 5 -3 1 0 -3 -11
-4 -3 3 -5 -2 -3 -5 -13
-3 0 0 -7 -4 -6 -8 -15
-4 -2 1 -6 -3 -4 -6 -13
-5 -3 3 -5 0 -2 -4 -11
-6 -4 4 -4 2 1 -2 -9
-7 -5 6 -3 4 3 1 -7
-8 -6 8 -2 6 5 4 -5
-8 -8 8 -2 5 4 3 -5
-8 -10 7 -2 4 3 2 -6
-8 -12 6 -3 3 1 1 -7
-8 -14 5 -3 2 0 0 -8
-9 -17 4 -4 0 -3 -3 -9
-9 -15 3 -5 0 -3 -3 -9
-9 -13 2 -6 -2 -3 -4 -10
-8 -11 1 -8 -3 -4 -4 -10
-8 -9 0 -9 -4 -4 -5 -11
-7 -7 -2 -11 -5 -5 -6 -12
-6 -6 -2 -11 -4 -5 -6 -12
-5 -4 -2 -10 -3 -5 -5 -12
-3 -3 0 -10 -2 -4 -4 -11
-2 0 0 -9 0 -4 -3 -11
1 2 1 -8 1 -3 -2 -10
0 2 1 -8 0 -3 -3 -10
-3 1 0 -9 -2 -4 -4 -10
-5 1 -2 -10 -3 -5 -5 -11
-7 0 -3 -11 -4 -6 -6 -11
-9 -2 -4 -12 -6 -7 -7 -12
-9 -2 -4 -12 -6 -7 -7 -12
-9 -3 -4 -12 -6 -7 -7 -12
-9 -4 -4 -12 -6 -7 -7 -12
-9 -5 -4 -12 -6 -7 -7 -12
-8 -6 -3 -12 -7 -6 -7 -11
-9 -8 -3 -12 -7 -6 -7 -11
-10 -11 -3 -12 -7 -6 -7 -11
-11 -14 -3 -13 -8 -6 -7 -11
-12 -17 -3 -13 -8 -6 -7 -11
-14 -20 -4 -14 -9 -7 -8 -11
-13 -18 -4 -14 -9 -7 -8 -11
-11 -16 -4 -14 -8 -7 -7 -10
-10 -14 -4 -14 -8 -7 -7 -10
-8 -12 -4 -14 -7 -7 -6 -9
-6 -10 -3 -14 -6 -7 -5 -8
-5 -9 -3 -14 -7 -7 -5 -9
-4 -8 -4 -15 -8 -8 -6 -10
-2 -7 -5 -16 -10 -9 -6 -11
0 -6 -6 -17 -11 -10 -7 -12
2 -5 -7 -18 -13 -11 -8 -13
-3 -7 -7 -18 -13 -11 -8 -13
-7 -9 -7 -18 -13 -11 -8 -13
-12 -11 -7 -18 -13 -11 -8 -13
-16 -13 -7 -18 -13 -11 -8 -13
-21 -15 -6 -17 -13 -11 -9 -12
-18 -13 -6 -17 -13 -11 -9 -12
-15 -11 -6 -17 -13 -11 -9 -12
-11 -9 -6 -16 -13 -11 -10 -13
-8 -7 -6 -16 -13 -11 -10 -13
-4 -4 -5 -15 -12 -11 -11 -14
-4 -6 -5 -15 -12 -11 -11 -14
-3 -9 -5 -16 -13 -11 -11 -14
-3 -12 -6 -16 -13 -12 -11 -14
-2 -15 -6 -17 -14 -12 -11 -14
-2 -17 -6 -17 -14 -12 -11 -14
-2 -17 -7 -18 -15 -13 -11 -13
-3 -15 -7 -18 -15 -13 -10 -13
-5 -13 -6 -17 -15 -13 -10 -13
-6 -11 -6 -17 -15 -13 -9 -13
-7 -9 -6 -17 -15 -13 -9 -13
-9 -8 -5 -16 -14 -12 -8 -14
-11 -8 -5 -16 -14 -12 -8 -13
-12 -8 -5 -17 -14 -11 -7 -12
-14 -8 -5 -17 -14 -11 -7 -11
-15 -8 -5 -17 -14 -11 -7 -10
-16 -9 -6 -18 -13 -10 -6 -9
-15 -9 -6 -18 -13 -10 -6 -9
-14 -9 -6 -18 -14 -10 -6 -9
-13 -9 -6 -18 -14 -10 -6 -9
-13 -9 -6 -18 -14 -10 -6 -9
-11 -9 -6 -16 -14 -11 -7 -9
-9 -7 -5 -15 -12 -10 -7 -9
-7 -5 -4 -13 -11 -9 -6 -8
-5 -3 -3 -12 -9 -8 -6 -8
-4 0 -2 -11 -8 -7 -6 -8
-4 2 1 -9 -6 -6 -5 -7
-5 3 2 -8 -5 -5 -4 -6
-7 4 3 -7 -4 -4 -3 -5
-8 5 4 -6 -3 -3 -2 -4
-9 6 5 -5 -2 -2 0 -4
-10 7 4 -5 0 0 1 -3
-10 8 1 -6 -2 -2 1 -3
-10 9 -3 -8 -3 -2 0 -3
-10 10 -6 -9 -4 -3 0 -3
-10 10 -9 -10 -4 -3 0 -3
-7 9 -10 -11 -5 -4 -2 -4
-5 7 -10 -12 -6 -5 -3 -4
-2 4 -10 -13 -7 -6 -3 -4
1 2 -10 -14 -8 -7 -4 -4
3 0 -10 -14 -8 -7 -4 -4
3 -2 -9 -15 -9 -8 -5 -4
1 -2 -9 -14 -8 -7 -4 -3
0 -2 -9 -13 -8 -6 -3 -2
-3 -2 -9 -12 -7 -5 -2 0
-4 -2 -9 -12 -7 -4 0 1
-3 -3 -12 -15 -9 -5 -2 1
0 -4 -15 -19 -12 -8 -4 0
2 -5 -19 -23 -16 -10 -6 -2
4 -6 -22 -27 -19 -13 -8 -3
6 -7 -25 -31 -22 -15 -10 -4
5 -8 -25 -31 -23 -16 -11 -5
2 -9 -23 -29 -22 -16 -10 -5
-2 -9 -22 -28 -21 -15 -10 -5
-5 -10 -20 -26 -20 -15 -9 -5
-7 -10 -19 -25 -20 -15 -9 -5
-6 -9 -18 -24 -19 -14 -8 -5
-4 -6 -17 -23 -18 -13 -8 -4
-2 -3 -17 -22 -17 -12 -7 -4
1 1 -16 -21 -16 -11 -7 -3
3 4 -16 -21 -15 -10 -7 -3
2 3 -15 -21 -15 -10 -7 -2
0 0 -15 -22 -17 -12 -9 -3
-4 -3 -16 -24 -19 -14 -11 -4
-6 -6 -16 -25 -21 -16 -13 -5
-8 -8 -16 -26 -22 -17 -14 -5
-9 -9 -17 -27 -23 -18 -15 -6
-10 -9 -17 -26 -23 -18 -15 -7
-11 -9 -16 -25 -22 -18 -16 -8
-12 -9 -16 -24 -22 -18 -16 -9
-13 -9 -16 -24 -22 -18 -16 -10
-14 -11 -15 -23 -21 -19 -17 -11
-14 -13 -15 -23 -21 -18 -16 -11
-14 -16 -15 -23 -21 -17 -16 -11
-14 -18 -15 -23 -21 -16 -15 -11
-14 -20 -15 -23 -21 -16 -15 -11
-16 -21 -14 -22 -21 -15 -14 -11
-18 -21 -14 -22 -21 -15 -14 -11
-20 -20 -14 -21 -21 -16 -14 -11
-22 -20 -14 -21 -21 -16 -14 -11
-24 -20 -14 -21 -21 -16 -14 -11
-24 -19 -13 -20 -20 -16 -15 -10
-23 -18 -12 -19 -19 -15 -14 -9
-22 -18 -12 -18 -18 -14 -13 -9
-21 -17 -11 -17 -17 -13 -12 -8
-20 -17 -11 -16 -17 -12 -12 -8
-19 -16 -10 -16 -16 -11 -11 -7
-19 -16 -11 -17 -16 -11 -11 -7
-19 -16 -12 -18 -16 -12 -11 -8
-19 -16 -13 -19 -16 -12 -11 -8
-19 -16 -13 -20 -16 -12 -11 -8
-17 -10 -9 -12 -7 -4 -5 -4
-14 -3 -3 -3 3 8 5 3
-12 5 3 8 13 18 14 10
-9 12 9 18 23 28 22 16
-7 19 15 28 33 39 31 22
10 32 4 24 45 65 59 45
26 47 -10 19 57 92 89 68
44 61 -23 13 69 119 118 92
61 75 -36 8 81 146 148 115
77 89 -50 2 94 173 178 139
97 102 -77 -19 102 204 217 171
117 114 -105 -39 111 236 257 203
137 127 -133 -61 120 269 297 236
157 139 -161 -82 129 301 337 269
177 151 -189 -104 138 332 376 302
185 149 -221 -135 106 299 352 295
192 145 -253 -165 69 257 321 283
199 141 -284 -197 33 216 292 271
206 138 -316 -228 -4 175 261 260
214 134 -348 -260 -39 134 230 247
183 117 -325 -259 -59 95 187 212
148 99 -296 -254 -76 56 143 174
114 81 -267 -248 -95 17 99 136
79 63 -237 -243 -112 -22 55 97
45 46 -208 -238 -130 -61 11 59
33 39 -182 -211 -120 -63 1 45
26 34 -155 -180 -108 -60 -6 34
18 28 -129 -150 -96 -57 -13 23
10 23 -102 -120 -83 -54 -20 12
2 18 -75 -90 -71 -51 -27 1
-3 10 -64 -77 -63 -47 -28 -5
-6 1 -55 -67 -57 -44 -28 -8
-10 -9 -46 -56 -50 -39 -28 -12
-14 -18 -36 -46 -43 -35 -28 -16
-17 -27 -26 -35 -35 -32 -28 -19
-18 -28 -23 -31 -32 -31 -28 -20
-18 -28 -20 -29 -30 -30 -28 -21
-17 -29 -17 -26 -28 -29 -28 -22
-17 -29 -14 -23 -25 -28 -28 -23
-17 -29 -11 -21 -23 -28 -28 -23
-18 -29 -8 -18 -21 -27 -29 -24
-22 -28 -6 -15 -18 -26 -28 -23
-25 -26 -4 -12 -16 -26 -28 -22
-28 -25 0 -10 -14 -25 -27 -21
-31 -24 2 -7 -12 -25 -27 -21
-30 -23 3 -6 -12 -24 -27 -21
-27 -23 2 -7 -13 -25 -28 -23
-24 -22 1 -8 -15 -26 -30 -25
-22 -22 0 -9 -16 -27 -31 -27
-19 -22 0 -10 -17 -28 -32 -28
-19 -21 -2 -10 -18 -29 -32 -29
-20 -21 0 -9 -17 -28 -31 -28
-22 -22 1 -7 -16 -27 -30 -27
-23 -22 2 -6 -15 -26 -29 -26
-24 -22 3 -5 -15 -26 -28 -25
-25 -23 4 -4 -14 -25 -27 -24
-25 -24 4 -3 -14 -25 -27 -24
-25 -25 4 -2 -14 -25 -28 -24
-25 -26 4 0 -14 -25 -28 -24
-25 -27 4 1 -14 -25 -28 -24
-26 -28 3 2 -13 -25 -29 -25
-26 -27 3 1 -13 -24 -29 -25
-25 -27 3 1 -13 -24 -28 -25
-25 -26 3 0 -13 -23 -28 -25
-25 -26 3 0 -13 -23 -28 -25
-24 -25 4 0 -14 -22 -27 -24
-25 -25 4 1 -13 -22 -26 -23
-26 -26 4 2 -12 -21 -26 -23
-27 -26 4 3 -11 -21 -25 -22
-27 -26 4 4 -10 -21 -25 -22
-26 -25 5 5 -9 -20 -24 -21
-22 -21 5 5 -9 -20 -24 -21
-19 -18 5 5 -9 -20 -25 -22
-15 -14 5 5 -9 -20 -25 -22
-12 -11 5 5 -9 -20 -25 -22
-13 -12 5 5 -9 -21 -26 -23
-15 -14 5 5 -9 -21 -26 -23
-17 -17 5 6 -9 -21 -26 -24
-20 -20 5 6 -9 -21 -26 -24
-22 -22 5 6 -9 -21 -26 -24
-23 -23 4 8 -9 -22 -26 -25
-22 -23 5 9 -9 -22 -26 -25
-22 -23 5 11 -9 -22 -26 -26
-21 -23 6 12 -9 -22 -26 -26
-21 -23 6 13 -9 -22 -26 -26
-20 -24 7 14 -8 -22 -27 -27
-21 -24 7 14 -8 -22 -27 -27
-22 -25 7 14 -8 -21 -27 -27
-23 -25 7 14 -8 -21 -27 -27
-24 -25 7 14 -8 -21 -27 -27
-25 -25 6 14 -7 -20 -27 -26
-24 -23 7 15 -6 -20 -27 -26
-24 -21 8 17 -5 -20 -27 -26
-23 -20 9 19 -4 -20 -27 -26
-23 -18 9 20 -3 -20 -27 -26
-23 -18 11 22 0 -20 -26 -25
-24 -21 12 23 1 -19 -26 -25
-26 -23 13 24 2 -19 -26 -25
-28 -25 15 25 3 -18 -26 -25
-29 -27 16 26 4 -18 -26 -25
-28 -27 18 28 5 -17 -25 -25
-26 -26 19 30 6 -16 -24 -24
-24 -24 21 32 7 -15 -23 -23
-21 -22 23 34 8 -14 -22 -22
-19 -21 24 36 9 -14 -22 -22
-18 -20 25 38 11 -12 -21 -21
-18 -21 26 39 12 -11 -20 -21
-19 -22 27 40 14 -10 -20 -20
-19 -23 28 43 16 -9 -19 -20
-19 -23 29 44 17 -8 -19 -20
-21 -23 31 47 18 -7 -18 -19
-23 -22 33 49 19 -7 -18 -20
-25 -20 35 51 20 -7 -18 -20
-26 -18 36 54 21 -7 -18 -21
-28 -17 38 56 22 -7 -18 -21
-28 -16 39 57 23 -6 -18 -22
-26 -16 39 58 23 -6 -19 -23
-24 -15 40 59 24 -6 -19 -24
-22 -15 40 60 24 -6 -20 -25
-20 -15 40 60 24 -6 -20 -26
-19 -14 44 64 27 -6 -21 -26
-19 -15 48 68 30 -5 -20 -25
-19 -15 51 72 33 -4 -19 -24
-19 -16 55 76 36 -3 -18 -22
-19 -16 58 80 39 -2 -17 -21
-19 -17 59 82 42 1 -16 -20
-18 -16 61 85 44 3 -15 -20
-17 -15 62 87 46 5 -15 -21
-16 -14 63 89 47 6 -14 -21
-16 -14 64 91 49 8 -14 -21
-15 -13 67 94 52 11 -11 -20
-15 -12 70 98 56 14 -9 -18
-15 -11 74 102 59 17 -6 -15
-15 -10 77 105 62 20 -4 -13
-15 -9 80 109 66 23 0 -10
-15 -7 81 110 67 24 1 -9
-16 -5 82 111 68 25 1 -9
-17 -3 82 111 69 25 1 -9
-19 0 84 112 70 26 1 -9
-20 2 84 112 70 26 1 -9
-20 5 85 113 71 27 1 -9
-17 8 84 113 71 27 1 -9
-15 11 82 114 71 27 0 -9
-12 14 81 114 71 27 0 -9
-10 17 81 114 71 27 0 -9
-9 17 80 115 71 27 0 -9
-10 14 80 115 72 29 2 -7
-11 12 81 115 73 31 4 -4
-12 9 81 115 75 32 6 -2
-13 7 81 115 76 34 8 1
-14 6 80 113 77 35 9 2
-12 7 77 112 75 35 9 2
-11 8 74 110 74 35 9 2
-10 9 71 108 73 35 9 2
-9 9 68 107 72 35 9 2
-9 10 66 104 71 34 11 3
-10 11 65 102 70 34 12 4
-11 12 63 99 70 35 13 5
-13 13 61 97 69 35 15 7
-14 13 60 94 69 35 16 8
-13 14 56 89 66 36 17 9
-10 14 52 84 63 34 17 8
-8 14 48 78 60 33 16 8
-5 14 44 73 57 32 16 7
-2 14 38 68 54 31 16 7
-4 13 35 63 52 30 15 6
-8 12 33 58 50 28 15 6
-12 11 30 53 47 27 15 6
-16 9 28 48 45 26 15 6
-20 8 25 43 43 25 15 6
-21 7 22 40 39 23 15 7
-20 5 20 38 36 22 14 7
-20 4 17 35 34 21 14 7
-19 3 15 33 31 19 13 7
-19 2 12 31 28 18 13 7
-15 2 8 26 24 15 10 4
-10 3 4 20 19 11 7 1
-6 5 0 15 15 7 4 -3
0 7 -5 9 10 3 0 -7
5 8 -10 4 5 -2 -4 -10
4 8 -11 2 4 -3 -5 -10
2 7 -10 2 4 -2 -3 -8
-2 6 -9 2 4 0 -2 -5
-5 4 -8 2 4 1 0 -3
-8 3 -8 2 4 1 1 0
-9 2 -7 2 5 2 2 1
-9 4 -7 1 4 1 1 -2
-9 5 -8 0 3 0 0 -3
-9 6 -8 -3 2 -2 -2 -4
-9 7 -8 -4 2 -2 -2 -5
-10 5 -9 -5 0 -4 -3 -6
-9 1 -11 -7 -3 -6 -5 -7
-9 -4 -12 -8 -4 -7 -6 -8
-8 -8 -13 -9 -6 -9 -7 -9
-8 -12 -14 -10 -8 -11 -8 -9
-7 -13 -15 -11 -9 -12 -9 -10
-9 -13 -15 -11 -10 -13 -9 -10
-10 -13 -14 -11 -10 -14 -9 -11
-11 -13 -14 -11 -11 -15 -9 -11
-12 -13 -14 -11 -11 -15 -9 -11
-12 -13 -13 -12 -12 -16 -10 -12
-11 -15 -13 -12 -12 -16 -10 -12
-10 -16 -13 -12 -12 -15 -10 -12
-8 -18 -13 -12 -12 -15 -10 -12
-7 -20 -13 -12 -12 -15 -10 -12
-8 -21 -12 -12 -11 -14 -10 -11
-11 -20 -12 -12 -11 -15 -11 -12
-14 -20 -12 -13 -11 -15 -11 -12
-17 -19 -12 -13 -11 -16 -12 -13
-20 -19 -12 -13 -11 -16 -12 -13
-19 -17 -12 -14 -12 -17 -13 -14
-17 -16 -12 -14 -12 -17 -13 -13
-14 -14 -11 -13 -12 -16 -12 -12
-11 -12 -11 -13 -12 -16 -12 -11
-8 -11 -11 -13 -12 -16 -12 -11
-7 -11 -10 -12 -13 -15 -11 -10
-9 -13 -10 -12 -13 -15 -12 -11
-10 -16 -9 -12 -13 -15 -12 -11
-11 -18 -9 -12 -13 -15 -13 -12
-12 -20 -9 -12 -13 -15 -13 -12
-13 -21 -8 -11 -13 -16 -14 -13
-13 -20 -8 -11 -14 -17 -15 -14
-13 -19 -9 -12 -15 -18 -16 -15
-13 -18 -9 -12 -16 -19 -17 -16
-13 -17 -9 -12 -17 -20 -17 -17
-13 -14 -10 -13 -18 -21 -18 -18
-10 -11 -9 -13 -18 -21 -18 -18
-7 -8 -8 -13 -18 -21 -18 -18
-5 -5 -8 -13 -18 -21 -18 -18
-2 0 -7 -13 -18 -21 -18 -18
-2 0 -6 -12 -17 -20 -18 -18
-5 -3 -6 -10 -16 -18 -16 -15
-7 -4 -5 -8 -15 -16 -13 -13
-9 -6 -5 -6 -15 -14 -11 -11
-12 -8 -5 -4 -14 -12 -9 -8
-13 -9 -4 -3 -13 -11 -8 -7
-14 -9 -4 -3 -12 -11 -8 -8
-14 -10 -3 -3 -11 -11 -9 -8
-15 -10 -3 -3 -10 -11 -9 -9
-15 -10 -3 -3 -9 -11 -9 -9
-15 -11 -2 -4 -8 -11 -10 -10
-13 -10 -2 -4 -8 -12 -11 -11
-11 -9 -2 -4 -8 -12 -11 -12
-9 -8 -2 -4 -8 -13 -12 -12
-7 -7 -2 -4 -8 -13 -12 -13
-6 -6 -2 -4 -9 -14 -13 -14
-8 -6 -2 -4 -8 -13 -12 -13
-9 -6 -2 -4 -8 -12 -11 -12
-10 -6 -2 -4 -7 -11 -10 -12
-11 -6 -2 -4 -7 -10 -9 -11
-12 -6 0 -3 -6 -8 -7 -9
-11 -6 1 -2 -4 -6 -6 -8
-10 -6 1 0 -3 -5 -4 -7
-9 -6 2 1 -2 -3 -3 -5
-8 -6 2 2 0 0 0 -4
-7 -7 3 3 1 1 1 -3
-7 -8 2 2 0 0 0 -4
-7 -8 1 1 0 -2 -2 -5
-7 -9 1 1 -2 -2 -2 -5
-7 -9 0 0 -2 -3 -3 -6
-7 -10 -2 -2 -3 -4 -4 -7
-8 -9 -2 -2 -3 -4 -3 -6
-9 -9 -2 -2 -3 -3 -2 -6
-11 -8 -2 -2 -3 -3 -2 -5
-12 -8 -2 -2 -3 -3 0 -5
-12 -7 -2 -3 -3 -3 0 -5
-11 -7 -5 -6 -5 -5 -3 -7
-10 -6 -8 -9 -7 -6 -4 -9
-8 -6 -10 -11 -9 -8 -6 -11
-7 -6 -13 -14 -11 -10 -8 -13
-6 -5 -14 -15 -12 -11 -9 -14
-6 -5 -14 -15 -12 -11 -9 -12
-6 -6 -13 -15 -11 -11 -8 -11
-6 -6 -13 -15 -11 -11 -8 -9
-6 -6 -13 -15 -11 -11 -8 -8
-5 -7 -11 -14 -10 -12 -7 -7
-6 -6 -10 -12 -9 -10 -7 -7
-6 -6 -8 -11 -9 -9 -6 -8
-7 -5 -7 -10 -8 -7 -6 -8
-7 -5 -5 -9 -8 -6 -6 -8
-7 -4 -4 -8 -7 -5 -5 -9
-5 -5 -5 -9 -8 -5 -5 -9
-4 -6 -5 -9 -8 -6 -5 -9
-2 -6 -6 -10 -9 -6 -5 -9
1 -7 -6 -10 -9 -6 -5 -9
2 -8 -7 -11 -10 -7 -5 -8
0 -7 -7 -11 -10 -7 -5 -8
-2 -7 -8 -12 -10 -7 -5 -9
-3 -6 -8 -12 -10 -7 -5 -9
-4 -6 -8 -12 -10 -7 -5 -9
-5 -5 -9 -13 -11 -7 -5 -10
-7 -4 -8 -12 -11 -7 -5 -9
-8 -3 -8 -12 -11 -6 -5 -8
-9 -3 -7 -11 -11 -6 -5 -7
-10 -2 -7 -11 -11 -6 -5 -6
-11 -2 -6 -10 -10 -5 -6 -5
-11 -4 -7 -11 -11 -6 -7 -6
-11 -5 -8 -12 -12 -7 -8 -7
-11 -7 -8 -13 -12 -7 -8 -7
-11 -9 -9 -14 -13 -8 -9 -8
-10 -10 -10 -15 -14 -9 -10 -9
-10 -9 -10 -15 -13 -9 -9 -9
-10 -8 -10 -15 -13 -8 -8 -8
-10 -8 -10 -15 -12 -8 -8 -8
-10 -7 -10 -15 -12 -8 -7 -8
-10 -7 -10 -14 -11 -7 -6 -7
-10 -8 -10 -14 -12 -7 -6 -7
-9 -10 -10 -15 -12 -7 -7 -8
-9 -11 -10 -15 -13 -7 -7 -8
-9 -13 -10 -15 -13 -7 -7 -8
-7 -13 -10 -16 -14 -8 -8 -9
-5 -11 -12 -18 -16 -10 -9 -9
-4 -10 -13 -19 -17 -11 -10 -10
-2 -8 -14 -20 -19 -12 -11 -10
1 -6 -15 -21 -20 -13 -12 -10
0 -5 -15 -21 -20 -13 -12 -10
-4 -5 -13 -19 -17 -10 -9 -8
-7 -5 -11 -17 -15 -7 -6 -7
-10 -5 -9 -15 -13 -4 -3 -5
-13 -5 -7 -13 -10 0 1 -3
-13 -6 -6 -12 -10 0 2 -2
-10 -4 -8 -14 -11 -2 0 -3
-6 -3 -9 -15 -13 -4 -2 -4
-3 0 -10 -16 -14 -5 -4 -4
1 1 -11 -17 -16 -7 -5 -5
1 2 -12 -18 -17 -8 -6 -6
-3 1 -12 -19 -17 -9 -7 -7
-7 1 -13 -19 -17 -9 -8 -8
-10 0 -13 -20 -17 -10 -8 -9
-13 0 -13 -20 -17 -10 -9 -10
-15 -2 -14 -21 -17 -11 -10 -11
-14 -3 -14 -21 -17 -11 -10 -11
-13 -4 -15 -21 -18 -11 -11 -11
-12 -5 -15 -21 -18 -11 -11 -11
-11 -6 -15 -21 -18 -11 -11 -11
-9 -7 -16 -21 -19 -12 -12 -12
-7 -6 -15 -20 -19 -12 -12 -12
-5 -5 -14 -19 -18 -11 -11 -12
-2 -5 -13 -19 -17 -10 -11 -12
1 -4 -12 -18 -17 -10 -11 -12
2 -3 -10 -17 -15 -8 -9 -10
1 -4 -9 -15 -14 -7 -8 -9
0 -6 -7 -14 -12 -5 -6 -7
-2 -7 -5 -12 -11 -4 -4 -5
-3 -8 -3 -11 -9 -2 -2 -3
-3 -5 -2 -10 -8 0 0 -2
0 2 -2 -10 -8 0 0 -2
2 8 0 -9 -7 0 0 -2
4 15 1 -9 -6 0 0 -2
6 21 1 -9 -6 0 0 -2
7 24 2 -8 -5 1 0 -3
6 24 2 -8 -4 1 0 -3
5 24 1 -7 -3 2 1 -2
5 24 0 -7 -3 2 1 0
4 24 0 -7 -2 2 1 0
3 23 -2 -6 0 3 2 1
4 19 -3 -7 -2 3 2 1
6 14 -5 -9 -3 2 2 1
7 10 -6 -10 -4 2 2 1
8 6 -7 -11 -5 2 2 1
9 4 -8 -12 -6 1 3 0
8 6 -10 -14 -7 1 3 0
6 7 -11 -15 -8 0 3 1
5 9 -13 -17 -9 0 3 1
4 10 -14 -18 -10 0 3 1
3 10 -15 -19 -12 -2 2 2
3 7 -16 -21 -13 -3 2 2
2 5 -17 -22 -15 -5 2 2
1 2 -17 -24 -16 -6 2 2
1 -2 -18 -25 -18 -7 2 2
0 -3 -19 -26 -19 -8 1 2
2 -2 -19 -26 -19 -9 0 0
3 0 -20 -27 -20 -10 -3 -2
5 1 -20 -27 -21 -11 -4 -4
6 2 -20 -27 -21 -12 -5 -5
7 3 -20 -27 -22 -12 -6 -6
7 3 -18 -25 -21 -9 -6 -5
6 2 -16 -22 -19 -7 -5 -4
6 1 -14 -20 -18 -4 -4 -3
6 1 -12 -17 -17 0 -4 -2
5 0 -11 -16 -16 0 -3 0
5 2 -11 -17 -16 -2 -3 -2
5 3 -11 -18 -17 -4 -4 -4
5 5 -11 -19 -18 -6 -4 -5
5 6 -11 -20 -18 -8 -4 -6
5 6 -11 -21 -19 -9 -5 -7
3 3 -11 -22 -19 -10 -6 -8
1 1 -11 -23 -20 -11 -8 -9
0 -3 -11 -23 -21 -11 -9 -9
-3 -6 -11 -24 -21 -12 -10 -10
-4 -7 -12 -25 -22 -13 -11 -11
-4 -7 -14 -25 -23 -14 -12 -12
-4 -7 -15 -26 -24 -15 -14 -13
-4 -7 -17 -27 -25 -15 -15 -14
-4 -7 -18 -27 -26 -16 -16 -15
-5 -7 -18 -28 -27 -17 -17 -16
-5 -4 -17 -27 -26 -16 -15 -15
-4 0 -15 -26 -25 -15 -13 -14
-3 3 -13 -26 -24 -15 -12 -13
-3 5 -11 -25 -23 -14 -10 -12
-2 7 -10 -24 -22 -13 -9 -11
-2 5 -9 -23 -22 -13 -8 -10
-2 4 -8 -21 -21 -12 -7 -9
-2 2 -7 -20 -21 -12 -6 -8
-2 1 -6 -19 -21 -12 -5 -7
-3 0 -5 -18 -20 -11 -4 -6
-5 0 -6 -19 -20 -11 -5 -7
-7 0 -7 -20 -20 -11 -6 -8
-9 0 -7 -21 -20 -11 -7 -9
-12 0 -8 -22 -20 -11 -8 -10
-11 0 -6 -18 -15 -6 -5 -8
-7 2 1 -9 -6 4 4 -2
-4 5 7 1 4 13 11 5
1 7 13 11 14 22 19 10
5 10 19 20 23 31 26 16
15 20 18 22 33 49 45 30
29 37 10 18 44 71 70 51
44 55 3 15 55 95 96 71
59 71 -6 11 66 117 121 92
73 89 -13 7 76 140 147 112
92 105 -36 -8 87 168 180 139
114 120 -69 -29 96 198 217 170
136 136 -102 -51 106 229 254 199
157 151 -135 -73 115 260 290 230
180 167 -168 -95 126 290 328 260
195 168 -201 -122 109 282 329 268
205 157 -236 -155 74 245 304 259
216 147 -270 -187 39 207 278 250
227 137 -305 -220 5 171 253 240
237 127 -340 -252 -30 134 227 231
223 114 -339 -265 -56 96 192 207
189 100 -312 -261 -74 59 150 173
155 86 -285 -258 -92 21 108 138
121 72 -259 -254 -110 -17 66 103
88 58 -231 -251 -129 -54 24 69
67 49 -204 -232 -133 -70 2 48
55 44 -177 -203 -126 -70 -6 35
43 38 -149 -175 -118 -70 -14 24
30 33 -121 -146 -111 -70 -21 12
18 28 -94 -117 -104 -70 -28 0
12 22 -75 -98 -93 -66 -32 -7
11 16 -63 -85 -79 -58 -30 -8
9 11 -51 -71 -67 -50 -28 -10
8 5 -38 -57 -54 -43 -27 -12
7 -2 -26 -44 -40 -34 -25 -14
4 -5 -18 -35 -33 -29 -23 -15
0 -6 -13 -31 -30 -27 -22 -15
-5 -7 -8 -26 -27 -25 -20 -14
-9 -7 -3 -22 -24 -23 -18 -13
-13 -8 2 -17 -21 -20 -16 -13
-15 -9 5 -15 -19 -19 -15 -12
-16 -9 5 -14 -19 -21 -16 -12
-17 -9 6 -13 -19 -23 -17 -13
-17 -9 6 -13 -19 -24 -18 -14
-18 -9 6 -12 -19 -26 -19 -14
-19 -8 7 -11 -19 -27 -20 -15
-17 -8 8 -11 -19 -27 -20 -15
-16 -8 10 -11 -19 -27 -21 -16
-15 -8 11 -11 -19 -27 -21 -16
-13 -8 12 -11 -19 -27 -21 -16
-12 -7 13 -10 -18 -27 -22 -17
-13 -7 13 -10 -18 -27 -22 -17
-14 -6 14 -9 -19 -27 -23 -18
-14 -6 14 -8 -19 -27 -23 -19
-15 -6 14 -8 -19 -27 -23 -19
-15 -5 15 -7 -20 -28 -24 -20
-14 -4 15 -6 -19 -27 -24 -20
-12 -3 16 -5 -18 -25 -23 -20
-10 -3 16 -5 -18 -24 -23 -20
-8 -2 16 -4 -17 -23 -23 -20
-8 -3 17 -3 -16 -22 -22 -19
-11 -7 17 -3 -16 -22 -23 -19
-13 -11 17 -3 -17 -23 -24 -19
-16 -15 17 -3 -18 -24 -24 -19
-18 -20 17 -3 -18 -24 -25 -19
-20 -21 17 -3 -19 -25 -26 -19
-19 -19 18 0 -17 -24 -25 -19
-17 -17 20 2 -16 -23 -24 -18
-16 -15 21 4 -15 -23 -23 -18
-15 -13 22 6 -13 -22 -22 -18
-14 -12 23 7 -12 -21 -21 -17
-14 -12 23 7 -13 -22 -21 -17
-13 -11 22 6 -14 -23 -22 -18
-13 -11 22 6 -14 -24 -23 -19
-13 -11 22 6 -15 -25 -23 -19
-12 -10 21 5 -16 -26 -23 -20
-12 -10 22 6 -14 -25 -21 -19
-11 -9 23 7 -12 -24 -19 -18
-11 -9 24 7 -11 -24 -17 -18
-11 -9 25 8 -9 -23 -15 -17
-10 -8 26 9 -8 -22 -13 -16
-12 -10 26 10 -8 -22 -15 -16
-14 -11 27 12 -8 -22 -16 -16
-15 -12 28 13 -8 -22 -17 -16
-17 -14 28 14 -8 -22 -19 -16
-18 -15 29 15 -7 -21 -20 -16
-18 -14 30 16 -6 -21 -20 -16
-17 -13 31 17 -5 -20 -19 -16
-16 -13 31 17 -5 -19 -19 -16
-16 -12 32 18 -4 -19 -19 -16
-15 -11 33 19 -3 -18 -18 -15
-15 -9 35 21 -3 -18 -18 -15
-16 -8 37 22 -3 -18 -18 -15
-17 -7 39 23 -3 -18 -18 -15
-17 -5 42 25 -3 -18 -18 -15
-18 -4 43 26 -3 -17 -18 -14
-18 -5 42 26 -2 -17 -18 -14
-17 -6 40 25 0 -17 -18 -14
-17 -7 40 24 1 -17 -18 -14
-17 -8 39 24 2 -17 -18 -14
-15 -9 38 24 3 -16 -17 -14
-13 -7 39 26 3 -16 -17 -14
-11 -5 42 28 3 -17 -18 -15
-9 -4 43 30 3 -18 -19 -16
-7 -2 44 32 3 -18 -19 -16
-6 0 45 35 5 -18 -19 -17
-8 -2 47 38 8 -16 -17 -15
-11 -4 49 42 12 -13 -15 -14
-13 -5 50 44 15 -10 -13 -13
-15 -6 52 47 18 -8 -11 -11
-17 -7 53 49 20 -6 -10 -10
-16 -7 54 49 20 -7 -11 -11
-15 -6 56 50 19 -8 -12 -12
-14 -5 57 51 18 -8 -13 -13
-13 -5 58 51 18 -9 -14 -14
-12 -4 60 53 18 -10 -15 -15
-12 -4 62 56 20 -9 -15 -15
-11 -5 64 59 22 -8 -15 -15
-10 -5 66 61 24 -7 -15 -15
-10 -5 68 64 26 -6 -15 -15
-9 -6 70 67 28 -5 -14 -15
-9 -5 72 70 30 -5 -13 -15
-10 -3 73 73 32 -4 -12 -14
-11 -2 74 76 34 -4 -12 -13
-11 0 76 79 36 -4 -11 -13
-13 1 78 81 38 -2 -10 -12
-16 0 80 82 40 1 -10 -12
-18 0 84 84 43 3 -9 -12
-21 -2 87 85 45 5 -8 -11
-24 -3 89 86 47 7 -8 -11
-25 -4 91 87 49 9 -7 -10
-23 -4 91 89 49 9 -7 -10
-21 -4 92 90 50 9 -7 -10
-19 -3 93 92 51 9 -7 -9
-17 -3 93 94 51 9 -7 -9
-14 0 94 96 53 10 -6 -8
-12 2 95 98 55 12 -4 -7
-10 4 96 100 57 13 -3 -7
-8 6 98 103 59 14 -2 -6
-6 8 99 105 61 16 1 -5
-4 10 100 107 63 17 2 -4
-6 12 100 108 63 18 2 -3
-7 14 101 108 64 19 3 -2
-8 16 102 109 65 20 4 0
-10 18 102 110 65 21 4 1
-11 19 103 111 66 22 5 2
-10 18 102 111 67 24 7 2
-10 18 102 111 68 25 8 2
-9 17 101 111 70 26 10 2
-8 16 100 111 71 28 12 2
-7 15 99 110 72 29 13 1
-9 15 97 109 71 29 13 3
-11 16 96 108 71 29 13 5
-13 17 95 106 70 28 13 7
-15 17 93 105 69 28 13 9
-17 18 91 103 68 27 14 11
-15 20 87 99 66 26 14 11
-14 22 84 95 64 25 14 11
-12 24 80 91 62 24 14 11
-10 26 76 87 60 23 14 11
-9 28 74 85 59 22 13 10
-9 26 72 82 59 22 14 12
-9 25 71 81 59 23 15 13
-9 23 70 79 59 24 17 14
-9 21 68 77 59 24 18 16
-8 19 65 73 57 25 19 17
-7 17 60 67 53 23 19 17
-7 14 55 61 49 21 18 17
-6 11 49 54 45 19 17 16
-5 9 44 48 40 17 17 16
-4 8 39 43 36 16 16 15
-4 10 37 39 34 15 16 15
-4 13 35 37 32 15 15 15
-3 16 32 34 29 14 14 15
-3 18 30 31 27 13 14 15
-2 19 27 28 25 11 13 15
-2 15 25 25 23 9 12 14
-3 12 23 22 21 7 12 13
-4 8 21 19 19 4 11 12
-4 4 19 16 17 2 10 11
-5 2 17 14 16 0 9 10
-5 2 15 12 14 -3 8 10
-5 3 13 11 12 -4 7 9
-4 4 11 9 10 -5 6 8
-4 4 9 7 8 -7 5 8
-3 5 7 6 7 -8 4 7
-3 4 7 4 7 -8 4 7
-4 4 7 3 6 -8 4 7
-5 3 6 1 5 -8 4 7
-5 2 6 -2 5 -8 4 7
-6 1 5 -3 4 -8 5 8
-6 0 4 -5 1 -10 3 7
-6 -2 3 -6 -2 -12 1 6
-6 -3 2 -7 -4 -14 -2 4
-6 -4 1 -9 -6 -16 -4 3
-7 -5 0 -10 -8 -18 -6 2
-9 -5 0 -10 -8 -18 -6 2
-10 -5 0 -10 -8 -18 -6 2
-11 -5 0 -10 -8 -18 -6 2
-13 -5 0 -10 -8 -18 -6 2
-14 -4 1 -10 -7 -18 -5 1
-16 -4 1 -10 -7 -18 -5 1
-17 -5 1 -10 -7 -18 -5 1
-18 -6 2 -10 -7 -18 -5 1
-20 -6 2 -10 -7 -18 -5 1
-21 -7 3 -9 -8 -19 -6 0
-19 -7 4 -9 -8 -19 -6 0
-17 -7 4 -9 -8 -19 -6 -2
-15 -7 5 -9 -8 -19 -7 -3
-14 -7 6 -9 -8 -19 -7 -3
-12 -8 7 -9 -7 -19 -8 -4
-12 -8 5 -11 -9 -21 -9 -5
-12 -8 3 -13 -11 -23 -10 -5
-11 -8 1 -15 -13 -25 -12 -6
-11 -8 -2 -16 -15 -26 -13 -7
-11 -9 -3 -18 -16 -27 -14 -8
-14 -9 0 -15 -14 -25 -13 -7
-17 -9 2 -13 -12 -23 -11 -6
-20 -9 5 -11 -9 -20 -10 -5
-24 -9 7 -9 -7 -18 -8 -4
-26 -8 9 -7 -5 -16 -7 -3
-25 -8 8 -8 -7 -19 -9 -4
-24 -8 7 -9 -8 -21 -10 -5
-23 -8 5 -11 -10 -23 -12 -7
-22 -8 4 -12 -12 -25 -14 -8
-21 -8 3 -13 -13 -27 -15 -9
-20 -9 4 -12 -12 -26 -14 -9
-19 -9 4 -11 -10 -24 -13 -8
-18 -10 5 -9 -9 -23 -12 -7
-17 -11 6 -8 -7 -21 -11 -7
-16 -12 7 -7 -6 -20 -10 -6
-16 -9 7 -7 -6 -20 -10 -6
-16 -7 7 -7 -6 -20 -10 -6
-15 -5 7 -6 -6 -20 -10 -6
-15 -3 7 -6 -6 -20 -10 -6
-14 0 8 -5 -5 -20 -10 -5
-16 0 9 -4 -4 -18 -9 -4
-18 0 10 -3 -3 -17 -7 -3
-20 -2 11 -2 -2 -15 -6 -2
-21 -2 12 0 0 -13 -4 0
-21 -3 13 1 1 -12 -3 1
-15 -2 12 1 1 -13 -4 1
-9 1 11 0 0 -13 -4 0
-2 2 10 -2 -2 -14 -5 -2
5 4 9 -2 -2 -15 -6 -2
7 4 8 -3 -3 -16 -7 -3
-2 2 8 -3 -3 -15 -6 -2
-9 -2 8 -3 -3 -14 -5 -2
-16 -5 8 -3 -2 -12 -3 0
-23 -8 8 -3 -2 -11 -2 1
-27 -9 7 -2 0 -10 0 2
-24 -6 7 0 0 -10 0 2
-21 -3 7 1 0 -10 0 2
-18 1 7 3 0 -10 0 2
-14 4 7 4 0 -10 0 2
-12 6 7 5 1 -11 -2 3
-12 4 7 5 1 -11 -2 3
-12 2 7 5 1 -11 -2 3
-11 0 7 4 2 -11 -2 2
-11 -2 7 4 2 -11 -2 2
-10 -4 8 3 3 -11 0 1
-11 -5 8 3 3 -11 0 2
-12 -6 8 3 3 -11 1 2
-13 -7 8 3 3 -10 2 3
-14 -8 8 3 3 -10 2 4
-15 -9 7 2 3 -9 3 5
-15 -7 7 2 3 -9 3 5
-15 -5 7 2 3 -9 2 5
-15 -3 6 1 3 -9 1 4
-15 -2 6 1 3 -9 1 4
-15 0 5 0 4 -10 0 3
-14 -3 5 -2 3 -10 0 3
-13 -6 4 -2 3 -11 0 3
-12 -9 3 -3 2 -12 0 2
-11 -12 3 -4 1 -12 0 2
-10 -13 2 -5 0 -13 -2 1
-12 -10 2 -5 0 -13 -2 1
-14 -7 2 -5 0 -13 -2 1
-16 -4 2 -5 0 -13 -2 2
-18 0 2 -5 0 -13 -2 2
-20 2 2 -5 1 -12 -3 3
-20 3 2 -5 1 -12 -3 3
-19 4 1 -5 1 -12 -3 2
-18 6 0 -6 0 -13 -3 1
-18 7 0 -6 0 -13 -3 1
-17 8 -2 -7 -2 -14 -4 0
-19 5 -2 -7 -2 -13 -4 1
-21 2 -2 -7 -2 -13 -3 1
-23 0 0 -6 -2 -12 -2 2
-24 -4 0 -6 -2 -11 -2 3
-25 -6 1 -5 -2 -10 0 4
-20 -5 0 -6 -3 -11 0 4
-16 -5 -2 -6 -3 -12 0 3
-11 -4 -3 -7 -4 -14 0 2
-6 -3 -4 -8 -5 -15 0 2
-4 -2 -5 -9 -6 -16 -2 1
-7 -3 -5 -9 -6 -16 -2 1
-10 -5 -5 -8 -6 -16 -2 1
-13 -6 -5 -7 -6 -15 -2 0
-16 -8 -5 -7 -6 -15 -2 0
-19 -9 -5 -6 -5 -14 -3 -2
-18 -9 -5 -8 -6 -14 -3 -2
-17 -9 -5 -9 -6 -14 -2 -2
-15 -9 -6 -11 -7 -15 0 -2
-14 -9 -6 -12 -8 -15 0 -2
-13 -8 -7 -14 -9 -16 1 -2
-13 -7 -7 -14 -9 -16 0 -2
-14 -6 -7 -14 -9 -16 -3 -2
-15 -5 -7 -14 -9 -16 -4 -2
-15 -4 -7 -14 -9 -16 -6 -2
-16 -3 -8 -14 -8 -16 -7 -3
-16 -3 -8 -13 -8 -16 -7 -3
-16 -3 -8 -12 -8 -16 -7 -3
-16 -4 -7 -11 -8 -15 -6 -2
-16 -4 -7 -10 -8 -15 -6 -2
-15 -5 -6 -9 -7 -14 -5 0
-15 -5 -6 -9 -7 -14 -5 0
-15 -5 -6 -10 -8 -14 -5 0
-15 -6 -6 -11 -9 -14 -6 -2
-15 -6 -6 -11 -9 -14 -6 -2
-14 -7 -7 -12 -10 -15 -7 -3
-14 -7 -7 -12 -11 -15 -7 -3
-15 -7 -7 -12 -12 -16 -7 -3
-16 -7 -8 -13 -13 -17 -8 -4
-16 -7 -8 -13 -14 -17 -8 -4
-17 -7 -9 -14 -15 -18 -9 -5
-15 -5 -7 -14 -14 -16 -7 -4
-12 -4 -6 -13 -13 -15 -6 -2
-10 -2 -4 -12 -11 -13 -4 0
-8 0 -3 -12 -10 -12 -3 2
-6 1 0 -11 -9 -10 0 3
-9 -3 -4 -13 -11 -13 -4 0
-12 -6 -6 -14 -12 -15 -7 -3
-14 -9 -9 -16 -14 -18 -9 -6
-17 -12 -11 -17 -15 -20 -12 -8
-19 -13 -13 -19 -17 -22 -14 -10
-19 -7 -12 -17 -16 -20 -12 -9
-19 -2 -10 -16 -15 -18 -11 -8
-19 4 -9 -14 -14 -16 -9 -7
-19 10 -7 -13 -12 -14 -8 -5
-19 14 -6 -11 -11 -12 -6 -4
-19 11 -3 -8 -8 -10 -4 -2
-19 9 1 -6 -6 -8 0 1
-19 7 3 -4 -4 -7 2 3
-19 4 6 0 0 -5 4 5
-18 2 8 2 2 -3 6 7
-17 5 8 2 3 -2 6 7
-17 8 8 2 4 -2 6 7
-16 11 8 2 5 0 6 6
-15 14 8 2 6 1 6 6
-14 16 8 2 7 2 6 5
-13 16 6 1 6 1 6 5
-11 15 4 1 4 1 6 5
-10 15 2 0 3 0 5 4
-8 14 0 -2 1 -2 5 4
-7 13 -3 -3 0 -3 4 3
-7 12 -3 -3 0 -3 4 3
-8 10 -3 -3 0 -2 4 3
-8 9 -3 -3 1 -2 5 3
-9 7 -3 -3 1 0 5 3
-10 6 -4 -4 2 1 6 4
-10 5 -6 -6 0 -2 5 3
-10 4 -9 -8 -3 -3 3 1
-10 3 -11 -10 -4 -5 2 0
-10 2 -13 -12 -6 -6 0 -3
-11 1 -15 -14 -8 -8 -2 -4
-10 0 -17 -16 -10 -9 -3 -5
-9 -2 -19 -18 -12 -11 -4 -5
-8 -3 -20 -20 -14 -12 -5 -6
-7 -5 -22 -22 -16 -14 -7 -7
-6 -6 -24 -24 -18 -15 -8 -8
-7 -4 -23 -23 -18 -15 -8 -8
-7 -2 -23 -22 -18 -15 -7 -7
-8 1 -22 -21 -17 -14 -7 -7
-9 3 -21 -20 -17 -14 -6 -6
-10 5 -20 -19 -16 -13 -5 -5
-10 4 -19 -18 -15 -12 -4 -5
-10 2 -19 -17 -14 -12 -4 -5
-10 1 -18 -16 -13 -11 -3 -5
-10 -2 -17 -15 -12 -10 -2 -5
-9 -3 -16 -14 -11 -9 0 -5
-10 -3 -16 -15 -12 -9 0 -5
-11 -3 -16 -15 -13 -9 -2 -5
-12 -2 -16 -16 -14 -9 -2 -5
-13 -2 -16 -17 -15 -9 -3 -5
-14 0 -16 -18 -16 -10 -4 -6
-14 -3 -17 -18 -18 -12 -7 -9
-14 -4 -18 -18 -20 -14 -9 -11
-14 -6 -19 -19 -21 -15 -11 -14
-14 -7 -20 -19 -23 -17 -14 -17
-14 -9 -21 -20 -25 -19 -16 -19
-21 -10 -18 -18 -23 -16 -13 -16
-28 -11 -16 -16 -21 -14 -11 -13
-35 -12 -14 -15 -19 -12 -9 -10
-43 -13 -11 -13 -17 -9 -6 -7
-47 -14 -9 -11 -15 -7 -4 -5
-40 -11 -10 -12 -15 -9 -4 -7
-35 -9 -11 -12 -15 -10 -5 -9
-29 -7 -12 -13 -15 -12 -5 -10
-24 -4 -13 -14 -15 -13 -6 -12
-19 -2 -14 -15 -16 -15 -7 -14
-19 -3 -14 -15 -16 -14 -7 -13
-20 -4 -14 -15 -16 -14 -7 -12
-20 -5 -13 -15 -16 -13 -7 -11
-21 -6 -13 -15 -16 -12 -7 -10
-22 -7 -12 -14 -16 -11 -7 -9
-21 -6 -12 -14 -14 -9 -6 -8
-20 -6 -12 -14 -13 -7 -5 -7
-19 -5 -13 -14 -11 -6 -4 -6
-18 -4 -13 -14 -10 -4 -2 -5
-16 -2 -13 -11 -6 1 2 -3
-11 4 -7 1 5 12 12 5
-6 10 0 11 16 23 22 12
0 15 5 22 26 34 32 19
5 21 11 32 36 46 43 26
13 29 13 38 48 61 59 38
29 45 -3 28 60 90 92 65
46 60 -18 18 73 117 123 91
62 75 -33 8 86 146 156 116
78 91 -49 -3 98 174 188 143
97 106 -68 -17 108 199 220 169
120 118 -102 -40 108 218 250 192
145 131 -137 -64 108 236 278 217
169 143 -171 -89 108 255 308 240
193 155 -204 -112 108 272 337 265
212 161 -236 -139 98 273 348 277
211 146 -263 -170 55 223 303 250
209 131 -289 -201 13 172 257 222
207 115 -316 -233 -30 120 212 194
206 100 -343 -265 -73 69 165 167
196 87 -355 -284 -106 26 125 141
162 79 -319 -265 -113 5 97 118
129 72 -283 -245 -119 -18 68 95
95 65 -248 -226 -126 -39 39 72
61 58 -213 -206 -133 -62 11 50
33 50 -180 -186 -135 -77 -11 31
23 40 -155 -161 -119 -70 -14 23
13 32 -131 -137 -104 -63 -16 15
2 23 -106 -113 -89 -56 -19 7
-9 14 -82 -89 -73 -50 -22 -2
-17 7 -61 -68 -60 -44 -24 -8
-17 3 -53 -59 -54 -39 -24 -9
-17 -2 -45 -49 -48 -36 -23 -10
-18 -6 -35 -38 -43 -32 -23 -11
-18 -10 -27 -29 -36 -29 -22 -13
-19 -13 -20 -21 -31 -26 -21 -14
-20 -15 -16 -18 -29 -25 -21 -15
-22 -17 -12 -15 -27 -24 -21 -16
-23 -18 -9 -12 -25 -23 -21 -17
-24 -20 -5 -9 -23 -21 -21 -18
-26 -22 -2 -6 -21 -20 -21 -19
-26 -20 -2 -6 -21 -21 -21 -19
-25 -17 -2 -6 -21 -23 -22 -20
-25 -15 -2 -6 -21 -24 -23 -21
-24 -12 -2 -6 -21 -25 -24 -22
-23 -10 -2 -5 -21 -27 -25 -23
-25 -11 0 -4 -21 -27 -25 -23
-27 -13 2 -2 -20 -26 -25 -23
-29 -15 3 0 -19 -25 -25 -24
-31 -16 4 1 -18 -24 -25 -24
-33 -18 6 3 -17 -23 -25 -25
-32 -18 6 3 -18 -24 -26 -26
-30 -18 5 2 -20 -25 -27 -27
-29 -18 4 2 -21 -26 -28 -28
-28 -18 3 1 -22 -28 -30 -29
-26 -18 2 0 -24 -29 -31 -30
-26 -18 3 1 -24 -28 -31 -29
-25 -18 4 3 -23 -27 -30 -28
-24 -18 5 5 -23 -26 -29 -27
-23 -18 7 6 -22 -24 -28 -25
-22 -17 8 8 -21 -23 -27 -24
-23 -17 8 8 -21 -23 -27 -25
-24 -17 8 8 -22 -23 -28 -26
-25 -16 8 8 -22 -24 -28 -27
-26 -16 8 8 -23 -24 -29 -28
-27 -15 7 9 -24 -25 -30 -29
-27 -14 10 11 -21 -22 -27 -25
-27 -13 12 13 -18 -20 -24 -22
-26 -12 15 16 -15 -17 -21 -19
-26 -11 17 18 -13 -15 -18 -15
-25 -10 20 20 -10 -12 -15 -12
-25 -11 19 20 -10 -13 -16 -13
-24 -12 18 19 -11 -14 -18 -15
-24 -13 17 18 -12 -15 -20 -17
-23 -15 15 17 -13 -17 -21 -18
-22 -16 14 16 -14 -18 -23 -20
-22 -14 14 16 -14 -18 -23 -20
-23 -12 14 16 -14 -18 -24 -21
-24 -9 15 16 -14 -19 -24 -22
-25 -7 15 16 -14 -19 -25 -23
-26 -5 16 15 -15 -20 -26 -24
-25 -8 16 17 -14 -19 -25 -23
-24 -11 16 20 -12 -17 -23 -21
-23 -14 16 22 -11 -15 -22 -19
-22 -17 16 25 -10 -14 -21 -18
-21 -20 16 27 -8 -12 -19 -16
-23 -20 16 27 -9 -13 -20 -17
-24 -19 16 26 -10 -14 -22 -19
-26 -19 16 25 -11 -15 -24 -21
-28 -18 16 24 -12 -16 -25 -22
-30 -17 17 23 -13 -17 -27 -24
-30 -17 17 24 -13 -17 -27 -24
-29 -17 17 25 -13 -18 -28 -24
-28 -18 18 26 -14 -18 -28 -24
-27 -18 18 27 -14 -19 -29 -24
-26 -19 19 28 -15 -20 -30 -25
-24 -18 20 29 -14 -20 -30 -25
-21 -17 21 31 -13 -19 -30 -25
-19 -16 22 32 -12 -18 -29 -25
-16 -15 23 33 -11 -17 -29 -25
-14 -14 24 35 -10 -16 -28 -26
-15 -14 25 36 -9 -16 -28 -26
-17 -14 26 37 -8 -16 -28 -25
-18 -14 27 38 -7 -15 -28 -25
-19 -14 29 40 -6 -15 -28 -24
-21 -14 30 42 -5 -14 -27 -23
-21 -15 30 43 -5 -14 -27 -23
-22 -16 31 45 -5 -14 -27 -24
-23 -17 31 46 -4 -14 -27 -25
-24 -18 32 47 -4 -14 -27 -26
-25 -19 33 49 -3 -14 -28 -27
-23 -13 36 53 1 -12 -27 -25
-21 -8 39 56 4 -9 -25 -23
-18 -2 43 60 8 -7 -23 -21
-16 4 46 64 11 -4 -22 -19
-14 9 49 67 14 -2 -20 -17
-14 6 49 67 14 -2 -20 -17
-14 3 50 68 15 -2 -20 -17
-15 1 51 69 15 -2 -19 -17
-15 -3 52 70 16 -2 -19 -17
-16 -6 53 71 17 0 -18 -18
-16 -6 55 74 19 1 -18 -18
-16 -7 58 77 21 2 -18 -17
-16 -8 60 81 23 3 -18 -17
-16 -9 63 85 25 4 -18 -16
-17 -10 65 88 27 5 -17 -15
-19 -10 67 90 29 6 -17 -15
-21 -9 69 92 30 7 -16 -15
-23 -8 71 94 32 8 -15 -15
-25 -7 73 96 34 10 -14 -15
-27 -6 75 98 36 11 -13 -14
-26 -6 75 101 36 11 -13 -14
-24 -5 76 104 37 12 -13 -14
-23 -5 76 108 38 12 -13 -14
-22 -4 77 111 39 13 -13 -14
-20 -3 78 114 40 14 -12 -13
-20 2 81 115 44 17 -10 -11
-19 6 84 117 47 20 -8 -9
-18 10 87 119 51 23 -6 -7
-17 13 89 120 54 26 -3 -4
-16 17 92 122 57 29 0 -2
-16 15 90 121 56 28 -2 -3
-17 13 88 119 55 27 -4 -4
-17 11 86 118 54 26 -5 -5
-18 9 84 117 53 25 -6 -6
-19 7 81 115 51 23 -8 -7
-18 7 81 115 51 23 -7 -7
-17 7 81 114 51 24 -6 -6
-16 6 81 114 51 24 -5 -5
-15 6 81 113 51 25 -4 -4
-14 5 80 112 52 26 -2 -3
-14 8 80 112 53 27 1 0
-14 11 79 111 54 29 3 2
-13 13 78 110 55 31 5 4
-13 16 77 109 56 32 7 6
-12 19 76 108 58 34 9 8
-12 19 72 103 56 33 9 8
-11 19 68 99 55 32 8 7
-11 19 65 95 53 31 7 6
-10 19 61 90 51 30 6 5
-9 19 57 86 49 28 5 4
-9 18 54 82 48 27 5 4
-9 17 51 78 46 26 5 4
-8 16 48 75 44 25 5 4
-8 15 45 71 43 24 5 4
-7 13 42 68 40 22 5 4
-6 15 38 63 38 22 5 4
-5 16 35 59 37 21 5 4
-3 18 32 54 35 20 5 4
-2 20 29 49 33 19 5 4
1 22 26 45 31 18 4 5
1 20 24 42 29 17 4 5
1 18 22 37 27 16 3 5
1 16 20 34 25 14 3 5
1 13 18 30 22 13 2 5
0 11 16 27 20 11 1 4
-2 9 12 23 16 8 1 3
-4 7 8 19 12 5 1 2
-6 5 5 15 9 2 0 1
-7 2 1 11 5 -2 0 0
-9 0 -4 7 1 -5 -2 -3
-8 1 -2 8 1 -5 -3 0
-6 3 1 9 1 -5 -4 2
-4 5 3 11 0 -6 -6 4
-3 6 5 12 0 -6 -7 7
0 8 7 14 -2 -7 -9 9
-4 6 5 11 -2 -7 -9 7
-6 4 2 9 -3 -8 -10 4
-9 2 0 6 -3 -8 -10 2
-12 0 -3 3 -4 -9 -11 0
-15 -3 -6 0 -5 -10 -12 -4
-15 -5 -7 -2 -6 -11 -12 -4
-15 -6 -8 -3 -7 -12 -13 -5
-15 -8 -9 -4 -8 -13 -14 -5
-15 -10 -10 -5 -9 -14 -15 -6
-16 -12 -11 -7 -10 -16 -16 -7
-16 -11 -11 -7 -10 -16 -16 -7
-16 -10 -10 -7 -10 -16 -16 -7
-16 -9 -10 -6 -10 -16 -16 -8
-16 -8 -9 -6 -10 -16 -16 -8
-15 -7 -8 -5 -9 -17 -15 -9
-15 -7 -8 -5 -10 -17 -16 -9
-16 -7 -8 -6 -11 -17 -17 -9
-16 -8 -8 -7 -12 -18 -19 -10
-17 -8 -8 -8 -13 -18 -20 -10
-18 -9 -9 -9 -14 -19 -22 -11
-17 -9 -9 -9 -14 -19 -22 -11
-15 -9 -9 -9 -14 -19 -22 -12
-14 -9 -8 -9 -14 -20 -22 -12
-12 -9 -8 -9 -14 -20 -22 -13
-10 -8 -7 -9 -14 -21 -21 -14
-10 -8 -7 -9 -14 -21 -21 -14
-9 -9 -7 -9 -14 -21 -21 -14
-8 -10 -7 -9 -15 -22 -22 -15
-7 -11 -7 -9 -15 -22 -22 -15
-6 -12 -7 -9 -16 -23 -23 -16
-9 -12 -7 -9 -16 -23 -23 -16
-13 -12 -6 -9 -16 -23 -23 -15
-17 -11 -6 -8 -16 -23 -23 -14
-20 -11 -5 -8 -16 -23 -23 -13
-24 -10 -4 -7 -15 -23 -23 -12
-21 -9 -4 -6 -14 -22 -22 -12
-18 -8 -3 -5 -13 -21 -21 -12
-15 -7 -2 -4 -12 -20 -20 -11
-11 -6 0 -3 -11 -19 -19 -11
-8 -4 1 0 -9 -17 -18 -10
-8 -4 1 0 -9 -17 -18 -10
-8 -5 0 0 -9 -17 -18 -11
-9 -5 0 -2 -9 -17 -19 -12
-9 -6 -2 -2 -9 -17 -19 -13
-10 -7 -3 -3 -9 -18 -20 -14
-10 -8 -3 -3 -9 -18 -20 -14
-10 -10 -3 -3 -10 -18 -20 -14
-11 -11 -3 -3 -11 -19 -20 -14
-11 -13 -3 -3 -12 -19 -20 -14
-12 -15 -4 -4 -13 -20 -19 -13
-9 -12 -4 -4 -12 -19 -19 -13
-6 -8 -4 -4 -11 -18 -18 -13
-3 -5 -3 -3 -9 -17 -18 -13
1 -2 -3 -3 -8 -16 -17 -13
4 3 -2 -2 -6 -15 -16 -12
-4 1 0 0 -5 -13 -14 -10
-11 -2 1 2 -3 -11 -12 -8
-17 -4 3 4 -2 -9 -9 -6
-24 -6 4 6 1 -7 -7 -4
-31 -9 6 8 3 -4 -4 -2
-26 -7 6 7 3 -4 -4 -3
-20 -5 5 6 3 -5 -5 -4
-15 -3 5 5 3 -5 -6 -5
-10 0 4 4 3 -6 -7 -6
-4 2 3 2 2 -7 -8 -8
-5 2 2 2 1 -7 -8 -9
-6 1 1 1 0 -8 -9 -10
-7 1 0 0 -2 -9 -9 -12
-8 0 -2 -2 -3 -10 -10 -13
-9 -2 -4 -3 -4 -11 -11 -15
-9 -4 -3 -2 -3 -10 -10 -13
-9 -6 -2 0 -2 -9 -9 -11
-10 -9 0 2 0 -7 -7 -8
-10 -11 1 3 1 -6 -6 -6
-11 -14 3 5 3 -4 -4 -3
-11 -11 1 4 2 -4 -4 -3
-10 -8 -2 2 0 -5 -5 -4
-10 -5 -4 1 -3 -6 -5 -4
-9 -2 -6 -2 -5 -7 -6 -5
-8 2 -9 -4 -7 -8 -7 -6
-8 0 -8 -4 -7 -8 -7 -6
-8 -3 -7 -3 -6 -8 -7 -6
-8 -6 -6 -3 -6 -9 -8 -7
-8 -8 -5 -2 -5 -9 -8 -7
-7 -11 -3 0 -4 -10 -9 -8
-7 -10 -3 0 -4 -10 -9 -8
-7 -9 -3 -2 -4 -10 -8 -7
-7 -8 -4 -2 -5 -10 -7 -7
-7 -7 -4 -3 -5 -10 -6 -6
-6 -5 -5 -4 -6 -9 -5 -5
-6 -5 -5 -4 -6 -9 -5 -5
-6 -4 -5 -5 -6 -9 -6 -5
-6 -3 -4 -5 -6 -9 -6 -6
-6 -2 -4 -6 -6 -9 -7 -6
-5 0 -3 -7 -6 -8 -8 -7
-5 0 -4 -7 -6 -9 -8 -8
-5 0 -5 -8 -7 -10 -9 -9
-5 0 -7 -8 -8 -11 -10 -10
-5 0 -8 -9 -9 -12 -11 -11
-5 0 -10 -10 -10 -13 -12 -12
-6 0 -9 -10 -10 -13 -11 -11
-8 1 -8 -9 -9 -12 -10 -9
-9 1 -7 -9 -9 -11 -9 -7
-11 2 -6 -8 -8 -10 -8 -5
-13 3 -5 -7 -7 -9 -6 -3
-12 0 -5 -7 -7 -9 -6 -3
-10 -5 -5 -8 -8 -10 -7 -4
-9 -8 -6 -9 -8 -11 -7 -4
-7 -12 -6 -10 -9 -12 -8 -5
-5 -16 -7 -11 -10 -13 -9 -6
-5 -15 -7 -11 -10 -13 -9 -6
-6 -14 -7 -11 -9 -12 -9 -6
-6 -12 -7 -11 -9 -12 -8 -5
-7 -11 -7 -11 -8 -11 -8 -5
-8 -9 -6 -10 -7 -10 -7 -4
-8 -9 -7 -11 -8 -11 -8 -5
-7 -8 -8 -12 -9 -13 -10 -7
-6 -7 -10 -13 -11 -15 -11 -9
-5 -6 -11 -14 -12 -17 -13 -11
-4 -5 -13 -16 -14 -19 -15 -13
-5 -5 -12 -16 -14 -18 -14 -11
-6 -6 -11 -15 -13 -17 -13 -9
-7 -7 -10 -14 -12 -15 -11 -7
-8 -8 -9 -13 -11 -14 -10 -5
-10 -9 -7 -12 -10 -12 -8 -3
-10 -9 -7 -12 -10 -12 -8 -3
-11 -10 -7 -13 -10 -12 -8 -4
-12 -10 -8 -13 -11 -12 -8 -4
-13 -11 -8 -14 -11 -12 -8 -5
-14 -12 -9 -15 -12 -13 -9 -6
-13 -11 -9 -15 -12 -13 -9 -6
-11 -10 -10 -15 -12 -14 -10 -6
-10 -9 -10 -16 -13 -14 -11 -7
-8 -8 -11 -16 -13 -15 -12 -7
-6 -7 -12 -17 -14 -16 -13 -8
-6 -5 -11 -16 -14 -16 -13 -8
-5 -2 -10 -15 -14 -16 -13 -8
-5 2 -9 -14 -13 -15 -12 -7
-4 5 -8 -13 -13 -15 -12 -7
-3 8 -7 -12 -12 -14 -11 -6
-3 7 -7 -12 -12 -14 -11 -6
-3 6 -7 -12 -12 -14 -12 -7
-3 5 -7 -12 -12 -14 -13 -8
-3 4 -7 -12 -12 -14 -14 -9
-3 2 -7 -13 -11 -15 -15 -10
-3 0 -7 -13 -11 -14 -14 -9
-2 -3 -7 -13 -11 -13 -13 -8
0 -5 -6 -13 -10 -12 -12 -7
1 -7 -6 -13 -10 -11 -11 -6
2 -9 -5 -12 -9 -10 -10 -5
1 -4 -5 -12 -8 -8 -9 -3
-2 2 -4 -11 -7 -6 -8 0
-3 7 -3 -10 -6 -3 -7 3
-5 12 -2 -9 -5 0 -6 5
-7 17 0 -8 -3 3 -4 8
-6 17 -2 -9 -4 0 -5 5
-4 17 -4 -10 -5 -3 -6 3
-2 17 -5 -12 -6 -6 -8 0
1 17 -7 -13 -7 -9 -9 -4
2 17 -8 -14 -8 -12 -10 -7
3 15 -9 -15 -9 -13 -11 -8
3 12 -9 -14 -8 -12 -10 -7
4 10 -9 -14 -8 -11 -9 -6
4 7 -9 -13 -7 -10 -8 -5
4 5 -9 -13 -7 -9 -8 -5
4 4 -9 -12 -6 -7 -6 -3
2 4 -10 -12 -6 -6 -5 -2
0 3 -10 -12 -6 -5 -3 0
-3 3 -11 -12 -6 -4 -2 1
-4 3 -11 -12 -6 -3 0 2
-4 1 -13 -14 -8 -4 -2 2
-3 0 -14 -17 -11 -7 -4 0
0 -3 -16 -20 -13 -10 -7 -3
1 -4 -17 -23 -16 -13 -9 -5
2 -5 -18 -25 -18 -16 -11 -6
3 -5 -19 -26 -19 -17 -12 -7
3 -3 -19 -25 -18 -16 -11 -6
2 0 -19 -24 -17 -15 -10 -6
2 2 -19 -23 -16 -14 -9 -5
2 3 -19 -23 -15 -13 -9 -5
1 3 -17 -21 -14 -12 -8 -4
0 1 -16 -20 -13 -11 -7 -4
0 0 -14 -19 -12 -10 -6 -3
-2 -3 -13 -18 -11 -9 -5 -3
-2 -4 -12 -17 -10 -8 -4 -3
-3 -5 -11 -16 -10 -8 -4 -2
-2 -5 -11 -17 -12 -10 -6 -3
-2 -5 -11 -17 -13 -11 -8 -4
0 -5 -11 -18 -15 -13 -10 -5
0 -5 -11 -18 -16 -14 -11 -5
0 -4 -11 -19 -17 -15 -12 -6
-2 -4 -11 -20 -17 -15 -12 -7
-3 -4 -12 -21 -17 -15 -12 -7
-4 -4 -12 -22 -17 -15 -12 -8
-5 -4 -12 -22 -17 -15 -12 -8
-6 -7 -13 -23 -18 -15 -13 -9
-6 -10 -12 -22 -18 -15 -13 -9
-7 -13 -11 -22 -18 -15 -13 -9
-7 -16 -10 -21 -18 -15 -13 -9
-7 -18 -10 -21 -18 -15 -13 -9
-7 -17 -9 -20 -18 -16 -13 -9
-6 -14 -9 -21 -18 -16 -14 -10
-5 -11 -10 -21 -19 -16 -15 -11
-4 -8 -10 -22 -19 -16 -16 -12
-3 -5 -10 -22 -19 -16 -17 -12
-3 -6 -11 -23 -20 -16 -18 -13
-5 -9 -11 -23 -20 -16 -17 -13
-7 -11 -11 -23 -19 -15 -16 -12
-9 -14 -11 -23 -19 -15 -15 -12
-10 -16 -11 -23 -19 -15 -14 -12
-11 -16 -11 -23 -18 -14 -13 -11
-11 -15 -11 -23 -18 -14 -13 -12
-11 -13 -12 -23 -18 -14 -14 -12
-11 -12 -12 -23 -18 -14 -14 -13
-11 -11 -12 -23 -18 -14 -14 -13
-11 -7 -9 -17 -13 -10 -11 -11
-10 -4 -5 -11 -7 -4 -7 -8
-10 1 0 -5 0 3 -2 -5
-9 4 5 3 7 8 4 -2
-9 7 9 9 13 14 8 2
1 15 10 11 26 34 29 18
10 23 11 13 38 56 52 35
19 31 11 15 52 77 74 53
28 39 12 17 65 99 97 70
37 48 12 18 78 119 118 88
59 66 -13 4 91 152 156 117
80 86 -39 -13 102 185 195 147
102 105 -67 -29 114 218 234 178
125 125 -94 -46 127 251 272 209
146 144 -121 -63 139 283 311 239
163 149 -156 -92 123 282 320 251
180 152 -192 -122 105 279 326 262
196 155 -228 -152 88 275 332 272
213 158 -264 -183 69 271 340 282
229 161 -299 -214 52 268 346 294
212 147 -301 -225 18 214 295 259
191 131 -300 -235 -16 157 238 220
170 114 -298 -245 -51 100 182 180
148 98 -297 -256 -85 44 125 141
128 81 -296 -266 -118 -14 68 102
102 73 -261 -243 -116 -26 49 82
76 66 -223 -218 -111 -35 31 63
51 59 -186 -192 -106 -45 14 45
24 52 -148 -165 -100 -54 -4 26
-2 45 -111 -140 -95 -63 -21 8
-4 33 -96 -123 -87 -60 -24 1
-5 22 -82 -107 -77 -55 -25 -5
-6 11 -69 -92 -68 -50 -27 -11
-7 0 -56 -75 -60 -45 -28 -16
-8 -12 -41 -60 -51 -39 -29 -22
-9 -13 -35 -53 -46 -36 -29 -23
-10 -13 -29 -47 -40 -32 -27 -23
-11 -14 -22 -39 -35 -29 -25 -23
-12 -14 -16 -33 -31 -26 -23 -23
-12 -14 -10 -27 -26 -23 -21 -23
-12 -17 -9 -26 -25 -23 -21 -23
-11 -19 -8 -25 -25 -24 -23 -25
-10 -21 -7 -24 -24 -25 -25 -27
-9 -23 -6 -23 -24 -26 -27 -29
-8 -25 -5 -22 -24 -27 -28 -30
-9 -26 -4 -21 -23 -28 -29 -31
-11 -26 -3 -21 -23 -28 -30 -32
-14 -26 -3 -20 -22 -28 -30 -33
-17 -26 -2 -20 -22 -28 -31 -34
-19 -26 -2 -20 -22 -28 -31 -34
-21 -26 1 -18 -21 -28 -31 -34
-23 -26 3 -16 -20 -27 -30 -33
-25 -25 5 -14 -19 -26 -28 -31
-27 -25 7 -12 -18 -25 -27 -30
-29 -25 8 -11 -17 -24 -26 -29
-29 -24 9 -10 -16 -23 -25 -28
-26 -24 8 -10 -16 -23 -25 -29
-24 -25 8 -11 -17 -23 -26 -30
-22 -25 7 -11 -17 -23 -26 -31
-20 -25 7 -11 -17 -23 -26 -31
-19 -25 6 -12 -18 -23 -27 -32
-20 -23 6 -12 -18 -23 -27 -31
-21 -21 6 -12 -18 -22 -26 -31
-22 -19 6 -12 -18 -22 -26 -30
-23 -18 6 -12 -18 -22 -26 -30
-24 -18 7 -10 -18 -21 -25 -29
-25 -21 7 -9 -17 -21 -25 -29
-25 -23 8 -7 -16 -21 -24 -28
-26 -25 8 -6 -15 -21 -24 -28
-26 -27 8 -5 -14 -21 -24 -28
-27 -27 9 -4 -13 -19 -23 -27
-26 -25 9 -3 -12 -18 -22 -27
-25 -23 10 -3 -12 -17 -21 -27
-24 -21 10 -2 -11 -16 -20 -27
-24 -20 10 -2 -11 -15 -20 -27
-23 -19 11 0 -10 -14 -19 -26
-23 -19 12 0 -10 -15 -20 -27
-23 -20 12 1 -9 -15 -20 -27
-23 -20 13 1 -9 -16 -21 -28
-23 -20 13 1 -9 -16 -21 -28
-22 -21 14 2 -8 -17 -22 -29
-22 -21 13 2 -9 -17 -22 -29
-22 -20 12 2 -9 -17 -23 -30
-22 -20 11 2 -10 -17 -23 -30
-22 -20 11 2 -10 -17 -23 -30
-22 -19 10 1 -11 -18 -24 -31
-21 -19 10 2 -11 -18 -24 -31
-20 -19 11 3 -11 -18 -24 -32
-19 -19 11 4 -11 -18 -24 -32
-18 -19 11 4 -11 -18 -24 -32
-17 -21 12 5 -10 -18 -26 -33
-18 -22 12 5 -11 -19 -27 -34
-18 -24 12 5 -12 -20 -28 -35
-19 -25 12 5 -13 -21 -29 -36
-19 -26 12 5 -13 -22 -30 -37
-20 -28 14 8 -12 -22 -30 -38
-19 -30 16 10 -10 -20 -29 -37
-18 -32 18 12 -8 -18 -27 -36
-17 -34 20 15 -5 -16 -26 -35
-17 -36 22 17 -3 -14 -25 -34
-19 -35 23 18 -2 -13 -24 -33
-22 -32 24 19 -2 -13 -24 -32
-26 -29 25 20 -2 -13 -23 -32
-29 -27 26 21 -2 -13 -23 -31
-33 -24 26 21 -2 -13 -23 -31
-33 -23 27 22 -2 -13 -22 -30
-31 -23 28 23 -2 -13 -22 -30
-29 -23 28 24 0 -13 -22 -31
-27 -23 29 25 0 -13 -22 -31
-25 -23 29 26 0 -13 -22 -31
-24 -24 31 29 3 -12 -22 -32
-24 -23 33 32 5 -10 -21 -31
-24 -22 35 35 8 -8 -20 -30
-24 -21 36 38 11 -6 -19 -29
-24 -21 38 42 13 -4 -18 -28
-22 -20 40 44 15 -3 -17 -27
-19 -19 43 46 17 -3 -17 -27
-16 -18 45 48 19 -2 -16 -26
-13 -17 46 50 20 -2 -16 -26
-10 -17 48 52 22 -2 -16 -26
-10 -16 50 55 24 0 -15 -25
-11 -17 53 57 25 1 -15 -25
-12 -18 55 60 27 2 -15 -26
-14 -19 57 63 29 3 -15 -26
-15 -19 59 65 30 4 -15 -26
-17 -20 61 68 33 6 -14 -27
-18 -21 63 71 35 8 -13 -26
-20 -22 65 74 37 10 -12 -25
-22 -23 67 77 40 12 -11 -24
-23 -24 69 80 43 14 -10 -23
-22 -22 71 82 45 15 -9 -22
-20 -18 72 84 46 15 -9 -22
-17 -15 73 86 47 15 -9 -22
-15 -11 74 88 49 15 -9 -22
-12 -7 75 89 50 15 -9 -22
-12 -5 77 92 53 18 -8 -22
-15 -4 78 94 55 21 -5 -20
-17 -2 80 96 58 24 -3 -18
-19 1 82 99 60 27 1 -16
-21 2 84 101 63 30 4 -14
-21 3 85 102 64 31 5 -13
-19 2 85 103 64 31 5 -13
-17 1 85 104 64 31 5 -12
-16 0 85 105 64 31 5 -12
-14 0 85 105 64 31 5 -12
-13 -2 84 106 64 31 5 -11
-14 -2 82 106 64 31 5 -11
-15 0 82 105 64 31 4 -11
-16 0 81 105 64 31 4 -11
-16 0 81 105 64 31 4 -11
-16 3 79 104 64 32 3 -11
-14 7 78 102 64 33 4 -11
-12 11 77 101 65 33 4 -11
-11 14 75 100 65 34 5 -11
-9 18 74 99 65 34 5 -11
-8 18 72 97 66 35 7 -10
-9 15 70 96 66 36 9 -8
-10 13 68 95 66 37 11 -6
-11 11 67 93 66 38 12 -5
-12 9 65 92 66 39 14 -3
-11 8 62 88 64 39 15 -2
-9 9 58 82 61 36 14 -2
-6 10 55 78 57 34 14 -2
-4 11 52 73 54 32 13 -2
0 12 48 68 51 30 13 -2
0 14 45 64 49 29 12 0
-2 16 42 60 48 29 12 0
-3 18 39 56 46 29 12 0
-5 19 36 52 44 29 12 0
-6 21 33 48 43 29 12 0
-6 20 31 44 39 29 13 1
-4 16 29 40 37 28 14 2
0 13 27 36 34 28 14 2
2 10 26 32 32 27 15 3
4 6 24 28 29 27 15 3
5 5 21 25 27 24 16 4
4 5 18 22 24 21 14 3
3 5 15 20 22 19 13 3
2 5 12 17 19 16 12 2
1 5 9 14 17 13 11 2
-3 4 6 11 14 11 9 0
-6 3 4 7 10 9 8 -2
-8 1 1 4 7 6 7 -3
-11 -2 -2 1 4 4 5 -5
-14 -3 -5 -4 0 2 4 -6
-15 -4 -6 -5 -2 1 3 -7
-14 -4 -4 -5 -2 2 3 -6
-13 -4 -3 -4 0 3 4 -5
-12 -4 -2 -4 0 4 4 -4
-11 -4 0 -4 0 4 4 -3
-10 -4 0 -5 -3 2 3 -4
-10 -3 -4 -8 -6 -3 0 -7
-11 -2 -6 -11 -10 -7 -4 -10
-11 0 -9 -15 -14 -11 -8 -13
-11 1 -11 -18 -18 -16 -11 -16
-11 0 -12 -19 -18 -16 -12 -17
-9 -4 -11 -18 -17 -15 -11 -17
-7 -6 -10 -17 -16 -14 -11 -16
-5 -9 -9 -16 -14 -12 -10 -16
-3 -12 -8 -16 -13 -11 -10 -16
-2 -13 -7 -15 -12 -10 -9 -15
-3 -13 -7 -15 -12 -11 -10 -16
-4 -12 -7 -16 -13 -12 -10 -16
-5 -12 -7 -16 -13 -13 -11 -17
-5 -12 -7 -16 -13 -13 -11 -17
-8 -12 -8 -17 -14 -14 -12 -18
-11 -13 -9 -18 -16 -15 -13 -18
-13 -15 -9 -18 -17 -16 -14 -19
-16 -17 -10 -19 -18 -17 -15 -19
-19 -18 -10 -19 -19 -18 -15 -19
-19 -18 -11 -20 -20 -19 -16 -20
-18 -16 -10 -19 -20 -19 -16 -19
-17 -14 -9 -19 -19 -19 -15 -19
-15 -13 -8 -18 -19 -19 -15 -18
-14 -11 -7 -18 -19 -19 -15 -18
-12 -10 -6 -17 -18 -18 -14 -17
-10 -12 -6 -17 -18 -18 -15 -17
-8 -13 -6 -17 -18 -18 -15 -17
-7 -14 -6 -17 -18 -18 -16 -17
-5 -15 -6 -17 -18 -18 -16 -17
-5 -16 -5 -17 -18 -19 -17 -18
-7 -16 -4 -17 -18 -19 -17 -17
-10 -15 -4 -16 -18 -18 -16 -16
-12 -15 -3 -16 -18 -18 -16 -15
-14 -15 -3 -16 -18 -18 -16 -15
-14 -14 -2 -15 -17 -17 -15 -14
-12 -14 -2 -15 -17 -17 -15 -14
-11 -13 -2 -15 -17 -17 -15 -14
-9 -13 -2 -15 -17 -17 -15 -14
-7 -13 -2 -15 -17 -17 -15 -14
-6 -12 -2 -15 -17 -17 -16 -14
-6 -12 -2 -15 -17 -17 -16 -13
-7 -11 0 -14 -17 -17 -16 -12
-7 -11 0 -14 -17 -17 -16 -11
-7 -11 0 -14 -17 -17 -16 -11
-8 -9 1 -12 -17 -16 -15 -10
-7 -7 2 -11 -16 -15 -14 -10
-7 -4 2 -10 -15 -14 -13 -10
-6 -2 3 -8 -13 -13 -12 -10
-6 1 3 -7 -12 -13 -12 -10
-6 0 4 -6 -11 -12 -11 -11
-7 -4 3 -7 -11 -11 -11 -10
-8 -7 2 -7 -11 -11 -11 -10
-10 -11 1 -8 -11 -10 -11 -9
-11 -14 1 -8 -11 -10 -11 -9
-12 -14 0 -9 -10 -9 -10 -8
-12 -13 0 -7 -8 -9 -10 -8
-11 -11 1 -6 -7 -9 -10 -8
-11 -9 1 -5 -6 -9 -10 -8
-11 -8 1 -4 -5 -9 -10 -8
-10 -7 2 -3 -4 -8 -9 -9
-9 -7 1 -4 -5 -8 -8 -8
-8 -7 1 -5 -5 -7 -8 -8
-8 -7 0 -5 -6 -7 -7 -7
-7 -7 0 -6 -6 -7 -7 -7
-6 -6 -2 -7 -7 -6 -6 -6
-6 -6 -2 -7 -7 -5 -5 -6
-6 -7 0 -6 -6 -5 -5 -5
-6 -7 0 -6 -6 -4 -4 -5
-6 -7 0 -6 -6 -4 -4 -5
-7 -8 1 -5 -5 -3 -3 -4
-8 -8 1 -5 -5 -3 -3 -4
-9 -8 0 -6 -5 -4 -2 -4
-9 -8 0 -6 -5 -4 -2 -4
-10 -8 0 -6 -5 -4 -2 -4
-10 -9 -2 -7 -5 -5 0 -5
-8 -8 -2 -7 -5 -5 -2 -5
-6 -8 -3 -7 -5 -5 -3 -5
-4 -7 -3 -7 -5 -5 -3 -5
-2 -7 -3 -7 -5 -5 -4 -5
0 -6 -4 -8 -5 -5 -5 -5
0 -5 -5 -9 -6 -6 -5 -5
-2 -5 -5 -10 -7 -7 -5 -6
-2 -4 -6 -10 -8 -7 -5 -6
-2 -4 -6 -11 -9 -8 -5 -6
-3 -3 -7 -12 -10 -9 -6 -7
-5 -4 -7 -12 -10 -9 -6 -7
-6 -5 -6 -12 -9 -8 -5 -7
-7 -5 -6 -12 -9 -8 -5 -7
-8 -6 -6 -12 -9 -8 -5 -7
-8 -7 -5 -12 -8 -7 -4 -6
-7 -7 -5 -12 -8 -7 -4 -5
-6 -7 -4 -12 -8 -6 -3 -4
-4 -7 -4 -12 -8 -6 -3 -3
-3 -7 -4 -12 -8 -6 -3 -2
0 -6 -3 -11 -8 -5 -2 0
1 -4 -4 -12 -9 -7 -3 -2
2 -2 -5 -13 -9 -8 -4 -3
4 1 -5 -14 -10 -9 -4 -4
5 3 -6 -15 -10 -10 -5 -5
4 3 -7 -16 -11 -11 -6 -6
1 1 -7 -16 -11 -11 -6 -6
-3 -2 -7 -16 -12 -11 -6 -6
-6 -5 -7 -16 -12 -11 -6 -6
-10 -7 -7 -16 -12 -11 -6 -6
-10 -8 -8 -17 -13 -11 -6 -6
-9 -8 -9 -18 -14 -11 -7 -7
-8 -7 -9 -18 -14 -12 -8 -8
-6 -7 -10 -19 -15 -12 -8 -8
-5 -7 -10 -19 -15 -12 -9 -9
-3 -7 -11 -20 -16 -13 -10 -10
0 -9 -11 -21 -16 -14 -10 -11
1 -11 -12 -21 -17 -14 -11 -11
3 -13 -12 -22 -17 -15 -11 -12
5 -15 -12 -22 -17 -15 -11 -12
2 -16 -13 -23 -17 -15 -11 -12
-5 -16 -11 -21 -16 -14 -9 -9
-11 -16 -10 -20 -14 -12 -8 -7
-17 -16 -8 -18 -13 -11 -6 -5
-23 -16 -7 -17 -11 -9 -4 -2
-22 -14 -6 -16 -10 -8 -3 0
-18 -11 -7 -17 -11 -8 -4 -2
-14 -9 -8 -17 -11 -9 -5 -3
-9 -7 -8 -18 -12 -9 -5 -3
-5 -4 -9 -18 -12 -9 -6 -4
-3 -4 -10 -19 -13 -10 -7 -5
-5 -5 -10 -19 -13 -11 -8 -6
-6 -7 -10 -19 -14 -12 -8 -7
-7 -8 -10 -19 -14 -12 -9 -7
-8 -10 -10 -19 -14 -13 -9 -8
-8 -11 -10 -19 -15 -14 -10 -9
-6 -10 -10 -19 -16 -14 -10 -9
-4 -9 -10 -20 -16 -14 -10 -9
-2 -9 -10 -20 -17 -14 -10 -9
1 -8 -10 -20 -17 -14 -10 -9
1 -7 -11 -21 -18 -15 -11 -10
0 -6 -10 -20 -18 -15 -10 -10
-3 -6 -10 -20 -17 -15 -10 -10
-4 -5 -9 -19 -17 -15 -9 -10
-6 -5 -9 -19 -17 -15 -9 -10
-7 -4 -8 -18 -16 -14 -8 -9
-8 -5 -8 -18 -16 -14 -8 -9
-8 -6 -8 -18 -16 -13 -8 -9
-9 -7 -8 -18 -16 -13 -8 -9
-9 -8 -8 -18 -16 -13 -8 -9
-8 -9 -8 -17 -14 -12 -7 -10
-5 -9 -6 -15 -13 -11 -7 -8
-2 -9 -5 -14 -11 -10 -7 -7
2 -9 -3 -13 -10 -9 -7 -5
5 -9 -2 -12 -8 -8 -7 -4
5 -6 0 -11 -7 -7 -6 -3
4 -2 0 -10 -7 -7 -5 -3
2 2 1 -10 -7 -7 -4 -3
1 6 1 -9 -7 -7 -4 -3
-2 9 1 -9 -7 -7 -3 -3
-3 10 2 -8 -7 -7 -2 -2
-2 8 2 -8 -6 -6 -2 0
0 7 2 -8 -6 -5 0 0
0 5 2 -8 -5 -5 0 1
1 3 2 -8 -5 -4 0 1
2 2 1 -8 -4 -3 1 2
2 2 -2 -9 -5 -4 0 1
2 2 -3 -9 -6 -4 0 0
2 2 -4 -10 -6 -5 -2 0
2 2 -5 -10 -7 -5 -2 -2
2 3 -6 -11 -8 -6 -3 -3
2 3 -7 -12 -8 -6 -3 -2
2 3 -8 -12 -8 -6 -2 -2
2 3 -8 -13 -8 -6 -2 0
2 3 -9 -13 -8 -6 -2 0
3 4 -11 -15 -10 -7 -2 1
5 4 -13 -17 -13 -10 -4 -2
7 3 -15 -19 -15 -12 -6 -3
9 3 -18 -21 -18 -15 -8 -5
11 3 -20 -23 -21 -18 -10 -6
12 2 -21 -24 -22 -19 -11 -7
12 0 -21 -25 -22 -19 -11 -7
13 -2 -22 -27 -23 -20 -12 -8
14 -4 -23 -28 -24 -20 -13 -9
14 -5 -23 -29 -24 -20 -13 -9
13 -6 -23 -29 -24 -20 -13 -10
9 -6 -20 -26 -21 -17 -12 -8
5 -5 -17 -23 -18 -14 -10 -7
1 -5 -14 -20 -15 -11 -9 -5
-4 -5 -11 -17 -12 -8 -7 -4
-5 -4 -10 -16 -11 -8 -6 -3
-2 -6 -11 -17 -13 -10 -7 -4
1 -7 -12 -19 -14 -12 -8 -6
4 -9 -12 -20 -16 -14 -9 -7
7 -10 -13 -21 -17 -16 -10 -8
6 -11 -14 -22 -18 -17 -11 -9
3 -12 -14 -21 -18 -17 -11 -9
0 -13 -13 -20 -18 -16 -11 -8
-5 -13 -12 -20 -18 -16 -11 -7
-8 -14 -12 -19 -18 -16 -11 -7
-10 -15 -11 -18 -17 -15 -10 -6
-9 -15 -11 -19 -18 -17 -11 -8
-7 -15 -12 -21 -19 -18 -13 -9
-6 -15 -13 -22 -20 -20 -14 -11
-5 -15 -13 -23 -21 -21 -15 -12
-4 -13 -14 -24 -22 -22 -16 -13
-4 -11 -14 -24 -22 -22 -16 -12
-3 -8 -13 -23 -22 -21 -15 -11
-2 -6 -13 -23 -22 -20 -15 -11
-2 -3 -13 -23 -22 -20 -15 -10
-2 -4 -12 -22 -21 -19 -14 -9
-4 -7 -12 -22 -21 -19 -14 -9
-6 -10 -12 -22 -20 -19 -14 -9
-8 -13 -12 -22 -19 -19 -14 -9
-11 -16 -12 -22 -19 -19 -14 -9
-12 -18 -13 -21 -18 -19 -14 -10
-12 -18 -13 -21 -18 -19 -14 -10
-12 -17 -12 -21 -19 -19 -14 -11
-12 -16 -12 -21 -19 -19 -14 -11
-12 -16 -12 -21 -19 -19 -14 -11
-11 -14 -8 -17 -16 -16 -12 -10
-10 -12 -4 -11 -10 -11 -7 -7
-8 -10 2 -4 -4 -5 -3 -3
-7 -8 7 3 4 1 2 2
-6 -5 12 10 10 6 7 5
2 4 13 13 20 21 21 16
13 16 10 15 32 42 43 32
24 28 8 17 45 62 63 49
35 42 5 18 58 82 84 65
47 54 2 20 70 103 105 81
63 69 -15 11 84 133 138 107
84 87 -41 -6 97 168 179 140
103 103 -67 -22 110 203 220 172
122 120 -93 -39 123 238 260 204
142 138 -119 -56 137 273 301 236
159 146 -152 -81 130 283 318 254
175 149 -189 -112 108 276 320 261
190 151 -227 -143 88 269 323 268
205 154 -264 -175 66 261 325 276
221 156 -301 -205 45 254 328 283
219 149 -314 -222 18 217 297 264
205 133 -310 -229 -14 161 241 227
191 117 -306 -236 -45 105 187 189
177 101 -301 -243 -76 50 132 151
163 86 -297 -252 -108 -6 76 114
139 70 -273 -241 -119 -34 44 87
109 56 -237 -218 -117 -45 24 66
78 40 -201 -194 -115 -56 4 46
49 26 -165 -171 -113 -66 -16 25
18 12 -130 -148 -111 -76 -35 4
6 4 -106 -128 -103 -76 -43 -6
6 1 -90 -108 -90 -67 -39 -8
5 -3 -72 -90 -76 -59 -36 -10
4 -7 -56 -71 -63 -50 -33 -12
4 -10 -39 -53 -50 -40 -30 -15
2 -12 -30 -43 -43 -36 -28 -16
-2 -13 -25 -37 -39 -35 -28 -17
-4 -14 -21 -33 -36 -34 -29 -19
-7 -14 -17 -29 -33 -33 -29 -20
-9 -15 -12 -24 -31 -32 -29 -21
-12 -16 -9 -21 -28 -31 -30 -22
-14 -17 -7 -19 -26 -30 -30 -22
-16 -18 -5 -17 -24 -29 -29 -21
-18 -18 -3 -15 -22 -28 -28 -21
-20 -19 0 -12 -20 -27 -28 -21
-21 -20 1 -11 -19 -26 -27 -20
-21 -19 2 -11 -19 -26 -28 -21
-20 -17 3 -10 -19 -27 -29 -23
-20 -16 3 -9 -19 -27 -30 -24
-20 -15 4 -9 -19 -27 -31 -25
-19 -15 5 -8 -19 -28 -32 -26
-17 -18 7 -7 -19 -28 -32 -26
-15 -20 8 -6 -19 -28 -31 -25
-14 -23 10 -5 -19 -28 -30 -25
-12 -25 11 -4 -19 -28 -30 -25
-11 -27 12 -3 -18 -27 -29 -24
-12 -26 12 -3 -18 -27 -29 -24
-13 -25 12 -2 -18 -26 -29 -24
-13 -25 12 0 -18 -25 -29 -24
-14 -24 12 0 -18 -25 -29 -24
-15 -23 11 1 -17 -24 -28 -24
-15 -23 11 1 -18 -24 -28 -24
-14 -22 11 1 -19 -24 -28 -24
-13 -22 11 1 -20 -24 -28 -24
-13 -22 11 1 -21 -24 -28 -24
-12 -21 11 0 -22 -25 -29 -24
-12 -22 11 1 -21 -24 -29 -24
-12 -23 11 2 -19 -23 -28 -24
-12 -23 11 3 -18 -23 -27 -24
-12 -24 11 4 -17 -22 -27 -24
-11 -24 12 5 -16 -21 -26 -24
-11 -23 12 5 -16 -21 -26 -24
-11 -21 13 6 -16 -22 -26 -23
-11 -19 14 6 -16 -23 -26 -23
-11 -17 14 6 -16 -23 -26 -23
-12 -17 15 7 -15 -24 -27 -22
-12 -18 15 7 -15 -24 -27 -23
-13 -20 15 7 -15 -24 -28 -24
-13 -22 15 7 -15 -24 -29 -25
-13 -24 15 7 -15 -24 -29 -26
-14 -25 15 8 -14 -25 -30 -27
-12 -23 16 10 -13 -24 -29 -27
-11 -21 17 11 -12 -22 -28 -26
-10 -20 18 12 -11 -21 -28 -26
-8 -18 19 14 -10 -20 -27 -26
-7 -17 20 15 -9 -19 -26 -25
-7 -19 20 15 -10 -20 -27 -25
-6 -20 20 15 -11 -21 -28 -26
-6 -21 20 15 -11 -21 -29 -26
-6 -23 20 15 -12 -22 -30 -26
-6 -24 19 15 -13 -23 -31 -27
-8 -24 20 15 -13 -23 -31 -27
-10 -24 21 15 -13 -23 -31 -26
-12 -24 21 15 -13 -23 -31 -25
-15 -24 22 15 -13 -23 -31 -25
-16 -23 23 16 -12 -22 -30 -24
-16 -23 24 18 -11 -22 -30 -24
-15 -23 25 20 -10 -21 -30 -24
-15 -23 25 22 -9 -21 -30 -24
-15 -23 26 24 -8 -21 -30 -24
-14 -22 27 25 -7 -20 -30 -25
-14 -21 29 26 -6 -19 -29 -25
-14 -19 30 27 -4 -18 -28 -24
-14 -18 31 27 -3 -18 -28 -23
-14 -17 33 28 -2 -17 -27 -23
-15 -16 34 29 0 -16 -26 -22
-14 -16 35 31 1 -15 -26 -22
-13 -16 37 33 3 -14 -26 -22
-13 -16 38 35 4 -14 -26 -22
-12 -16 39 37 5 -13 -26 -22
-11 -17 40 39 6 -12 -25 -22
-12 -18 43 42 7 -12 -25 -22
-14 -19 45 44 9 -12 -25 -22
-15 -20 46 46 10 -12 -25 -22
-16 -21 48 48 11 -12 -25 -22
-17 -22 49 51 13 -12 -25 -23
-17 -21 50 53 15 -10 -24 -23
-16 -19 51 55 17 -8 -23 -23
-15 -18 52 57 19 -7 -23 -23
-15 -17 53 59 21 -5 -22 -23
-14 -15 55 62 22 -4 -21 -22
-13 -11 58 65 24 -4 -21 -22
-12 -8 62 69 26 -3 -20 -21
-12 -4 65 72 27 -3 -19 -21
-11 0 68 75 29 -3 -19 -21
-10 1 71 78 31 0 -18 -20
-11 -2 73 80 34 2 -17 -20
-12 -4 75 84 37 5 -15 -20
-13 -6 77 86 40 7 -14 -20
-14 -8 79 88 44 9 -13 -20
-15 -9 80 91 46 11 -12 -20
-13 -8 82 93 48 12 -12 -19
-11 -7 85 96 49 13 -11 -17
-9 -6 87 98 50 13 -10 -16
-7 -5 89 100 52 14 -10 -15
-6 -4 90 102 53 15 -9 -14
-6 -4 91 104 55 17 -9 -14
-7 -3 92 106 57 18 -8 -14
-7 -3 92 108 59 19 -8 -14
-7 -3 93 110 61 21 -8 -14
-8 0 94 111 62 22 -7 -15
-8 2 94 111 62 23 -5 -14
-7 5 94 112 63 24 -4 -13
-7 8 94 112 63 25 -3 -13
-7 10 94 112 63 26 0 -12
-6 12 94 113 64 27 1 -11
-8 10 94 113 64 27 1 -10
-10 8 93 112 65 28 2 -8
-11 6 92 111 65 29 2 -7
-13 4 92 111 65 29 2 -6
-14 4 91 110 66 30 3 -5
-14 6 89 110 65 30 3 -4
-13 8 88 110 64 30 4 -3
-13 10 87 110 64 30 5 -3
-13 12 85 110 63 30 5 -2
-12 14 82 108 62 30 6 0
-11 14 80 104 62 30 6 0
-10 14 78 100 61 30 6 0
-10 14 76 96 60 30 6 0
-9 14 74 92 60 30 6 0
-8 13 71 89 59 31 6 0
-7 13 69 87 57 30 6 0
-7 13 66 85 56 30 6 1
-6 13 63 81 55 29 7 2
-5 13 61 79 53 28 7 2
-4 13 57 75 51 27 8 3
-4 14 52 69 47 25 8 3
-4 15 48 64 44 23 8 3
-4 17 43 58 40 21 8 3
-4 18 37 52 36 19 8 3
-3 18 33 48 34 18 7 4
0 15 31 45 32 18 7 3
2 12 29 42 30 17 6 3
4 9 26 38 28 16 5 2
6 6 24 35 26 16 5 1
7 4 22 32 25 15 4 0
5 4 20 29 24 14 4 0
2 5 19 26 23 14 4 0
-2 6 17 23 21 13 4 0
-4 6 15 20 20 12 4 0
-5 7 13 17 17 11 2 1
-2 7 9 15 13 9 0 -2
2 6 6 12 9 7 -3 -4
5 5 3 9 5 5 -5 -6
8 5 -2 7 1 3 -7 -8
9 4 -4 5 -3 2 -9 -9
7 4 -2 5 -2 2 -7 -7
5 4 0 5 -2 2 -5 -5
2 4 1 4 0 2 -3 -3
0 4 3 4 1 2 0 0
-3 4 3 2 1 2 1 1
-4 4 1 0 -2 0 -2 -2
-5 4 -2 -3 -5 -3 -4 -4
-6 3 -4 -6 -8 -5 -6 -6
-7 3 -6 -8 -10 -7 -8 -8
-8 2 -8 -10 -12 -9 -10 -9
-9 1 -8 -10 -12 -9 -10 -9
-9 0 -8 -10 -12 -10 -11 -10
-10 -3 -9 -10 -12 -11 -12 -11
-11 -4 -9 -10 -12 -11 -12 -11
-12 -5 -10 -11 -13 -12 -13 -12
-12 -6 -10 -12 -14 -13 -13 -12
-12 -7 -11 -13 -15 -13 -14 -12
-13 -9 -12 -15 -17 -14 -15 -13
-13 -10 -12 -16 -18 -15 -15 -13
-14 -10 -13 -17 -19 -16 -16 -14
-12 -7 -12 -16 -19 -16 -16 -14
-10 -5 -12 -16 -19 -16 -17 -14
-8 -2 -11 -15 -19 -16 -18 -15
-6 2 -10 -14 -19 -16 -18 -15
-5 3 -9 -13 -20 -17 -19 -16
-5 1 -9 -13 -19 -17 -19 -16
-5 -2 -9 -13 -19 -17 -18 -16
-5 -4 -9 -12 -18 -16 -17 -16
-5 -6 -9 -12 -17 -16 -17 -16
-6 -8 -8 -11 -16 -15 -16 -16
-6 -10 -8 -11 -16 -15 -17 -16
-6 -11 -8 -12 -17 -16 -18 -17
-5 -13 -9 -13 -18 -17 -19 -18
-5 -15 -9 -13 -18 -17 -20 -18
-4 -16 -10 -14 -19 -18 -21 -19
-7 -15 -10 -14 -19 -18 -21 -19
-9 -14 -10 -14 -19 -18 -21 -19
-11 -13 -10 -13 -19 -18 -21 -19
-13 -12 -10 -13 -19 -18 -21 -19
-15 -11 -9 -12 -18 -17 -20 -20
-15 -11 -8 -11 -18 -17 -20 -20
-14 -11 -8 -10 -18 -17 -19 -19
-13 -10 -7 -8 -17 -16 -18 -18
-13 -10 -6 -7 -17 -16 -18 -18
-12 -9 -5 -6 -16 -15 -17 -17
-13 -7 -5 -6 -16 -15 -17 -17
-14 -6 -5 -6 -15 -14 -16 -17
-15 -4 -5 -6 -14 -13 -15 -16
-16 -2 -5 -6 -14 -13 -15 -16
-17 -2 -4 -5 -13 -12 -14 -15
-15 -4 -4 -5 -13 -12 -14 -15
-14 -7 -5 -5 -13 -12 -14 -15
-13 -9 -6 -6 -13 -12 -14 -15
-11 -12 -6 -6 -13 -12 -14 -15
-10 -13 -7 -7 -12 -11 -14 -15
-10 -10 -6 -6 -11 -11 -13 -14
-10 -7 -6 -5 -10 -10 -13 -13
-9 -4 -5 -3 -9 -9 -12 -12
-9 0 -4 -2 -8 -9 -11 -11
-8 2 -3 0 -7 -8 -10 -10
-8 0 -4 -2 -7 -8 -10 -11
-8 -3 -4 -2 -7 -8 -10 -11
-7 -5 -5 -3 -7 -8 -10 -12
-7 -6 -6 -4 -7 -8 -10 -13
-6 -8 -7 -5 -8 -8 -10 -14
-7 -7 -7 -5 -7 -7 -9 -13
-7 -6 -7 -5 -6 -6 -8 -11
-8 -4 -6 -4 -5 -4 -6 -10
-9 -3 -6 -4 -4 -3 -5 -8
-10 -2 -5 -3 -3 -2 -4 -7
-10 -2 -5 -3 -3 -2 -4 -7
-9 -2 -5 -3 -3 -2 -4 -7
-8 -2 -6 -3 -3 -2 -4 -7
-8 -2 -6 -3 -3 -2 -4 -7
-6 -2 -7 -4 -3 -2 -5 -8
-4 0 -7 -4 -3 -3 -5 -8
0 0 -8 -4 -4 -3 -5 -8
3 1 -9 -4 -5 -4 -5 -8
6 2 -9 -4 -5 -5 -5 -8
8 3 -10 -5 -6 -6 -6 -9
5 3 -9 -5 -5 -5 -5 -8
3 3 -9 -5 -5 -4 -5 -8
0 2 -8 -4 -4 -2 -4 -7
-3 2 -7 -4 -3 0 -3 -6
-5 1 -6 -3 -2 1 -2 -5
-5 1 -7 -5 -4 0 -3 -6
-5 1 -9 -6 -5 -2 -4 -8
-5 0 -10 -8 -7 -3 -6 -9
-5 0 -12 -10 -9 -4 -7 -11
-4 -2 -13 -11 -10 -5 -8 -12
-5 -2 -13 -11 -10 -5 -8 -11
-5 -3 -13 -11 -9 -5 -8 -10
-6 -4 -12 -11 -8 -5 -7 -9
-7 -4 -12 -11 -8 -5 -7 -8
-8 -5 -11 -10 -7 -5 -6 -7
-8 -7 -11 -10 -7 -5 -6 -7
-8 -8 -11 -10 -7 -5 -5 -7
-7 -10 -11 -10 -7 -5 -4 -7
-7 -12 -11 -10 -7 -5 -4 -7
-6 -13 -11 -11 -8 -4 -3 -6
-6 -11 -11 -11 -8 -4 -3 -6
-6 -10 -11 -11 -8 -4 -4 -6
-6 -8 -11 -11 -8 -5 -5 -7
-6 -6 -11 -11 -8 -5 -5 -7
-5 -5 -12 -12 -7 -6 -6 -8
-6 -6 -12 -12 -8 -6 -6 -8
-6 -7 -12 -13 -9 -6 -6 -8
-7 -8 -13 -14 -10 -6 -6 -8
-8 -9 -13 -14 -11 -6 -6 -8
-9 -10 -14 -15 -12 -7 -6 -9
-9 -9 -14 -15 -12 -7 -6 -9
-8 -8 -14 -15 -12 -8 -7 -9
-7 -6 -14 -15 -12 -9 -8 -9
-7 -5 -14 -15 -12 -9 -8 -9
-6 -4 -15 -15 -12 -10 -9 -10
-6 -3 -15 -15 -12 -10 -9 -10
-6 -3 -15 -15 -12 -10 -8 -9
-6 -2 -15 -15 -12 -10 -7 -8
-6 0 -15 -15 -12 -10 -7 -8
-5 1 -14 -15 -13 -9 -6 -7
-5 1 -14 -15 -13 -9 -6 -7
-4 1 -14 -15 -13 -9 -6 -7
-3 1 -14 -15 -12 -10 -7 -7
-3 1 -14 -15 -12 -10 -7 -7
-2 0 -13 -15 -11 -11 -8 -7
-5 -4 -13 -15 -11 -11 -8 -7
-7 -6 -13 -15 -12 -11 -8 -7
-9 -9 -13 -16 -13 -11 -8 -7
-11 -11 -13 -16 -13 -11 -8 -7
-12 -13 -12 -17 -14 -11 -9 -8
