I II V1 V2 V3 V4 V5 V6
-17 -6 7 -10 -7 -10 -7 -9
-17 -6 7 -10 -7 -10 -7 -9
-17 -6 7 -10 -7 -10 -7 -9
-16 -6 7 -10 -7 -10 -8 -10
-16 -6 7 -10 -7 -10 -8 -10
-16 -6 7 -10 -7 -10 -8 -10
-15 -6 8 -9 -6 -10 -9 -11
-15 -6 8 -9 -6 -10 -9 -10
-16 -7 9 -9 -6 -10 -9 -10
-16 -7 9 -9 -6 -10 -9 -9
-16 -7 9 -9 -6 -10 -9 -9
-17 -8 10 -8 -5 -10 -8 -8
-17 -7 11 -7 -4 -9 -7 -7
-16 -6 12 -6 -4 -8 -6 -7
-16 -5 13 -5 -3 -7 -5 -6
-16 -4 13 -5 -3 -7 -5 -6
-15 -2 14 -4 -2 -6 -4 -5
-15 0 15 -3 0 -5 -3 -4
-15 2 16 -2 1 -4 -2 -3
-15 3 17 0 2 -3 0 -2
-15 4 17 0 2 -3 0 -2
-14 5 18 1 3 -2 1 0
-13 5 18 1 3 -2 1 0
-12 6 18 1 3 -2 1 0
-11 6 18 1 3 -2 1 0
-10 6 18 1 3 -2 1 0
-8 8 19 2 4 0 2 0
-6 9 19 3 5 1 3 1
-4 11 19 3 5 2 3 2
-2 12 19 4 6 3 4 3
0 13 19 4 6 3 4 3
0 14 17 5 7 4 5 4
-3 15 16 5 7 4 6 5
-5 16 15 5 7 5 7 5
-7 17 14 5 7 5 8 6
-9 17 13 5 7 5 8 6
-8 17 11 5 7 6 9 7
-5 15 10 4 6 5 8 6
-2 14 9 3 6 5 7 6
2 12 8 2 5 4 6 5
4 11 7 2 5 4 5 5
5 9 6 1 4 3 4 4
5 8 6 0 3 2 3 3
5 7 5 -2 2 1 2 2
5 6 5 -3 1 0 1 1
5 5 5 -3 1 -2 1 0
0 4 4 -4 0 -3 0 -2
-6 3 5 -4 0 -3 0 -2
-11 2 6 -4 0 -3 0 -2
-16 1 7 -4 0 -3 0 -2
-21 0 8 -4 0 -3 0 -2
-22 -3 9 -6 -2 -4 -2 -3
-21 -4 9 -7 -3 -5 -3 -4
-21 -5 8 -9 -4 -6 -4 -5
-20 -6 8 -10 -5 -7 -5 -6
-20 -7 8 -11 -5 -7 -5 -6
-19 -8 7 -12 -6 -8 -6 -7
-19 -8 6 -12 -7 -9 -7 -7
-19 -9 6 -12 -8 -9 -7 -8
-19 -9 5 -12 -9 -10 -8 -8
-19 -9 5 -12 -10 -10 -8 -8
-19 -10 4 -13 -11 -11 -9 -9
-17 -10 4 -13 -11 -11 -9 -9
-16 -10 4 -13 -11 -12 -9 -9
-14 -10 4 -13 -11 -12 -9 -9
-13 -10 4 -13 -11 -12 -9 -9
-13 -10 4 -13 -11 -13 -9 -9
-14 -10 4 -13 -11 -13 -9 -9
-16 -9 4 -14 -11 -13 -10 -9
-17 -9 4 -14 -11 -13 -10 -9
-18 -9 4 -14 -11 -13 -10 -9
-19 -8 4 -15 -11 -13 -11 -8
-19 -8 4 -15 -11 -13 -11 -8
-19 -8 4 -14 -11 -13 -10 -8
-19 -8 4 -14 -11 -13 -10 -8
-19 -8 4 -14 -11 -13 -10 -8
-19 -9 8 -10 -7 -12 -10 -10
-20 -9 12 -7 -3 -12 -11 -12
-22 -10 17 -3 2 -11 -13 -14
-23 -10 22 2 5 -11 -14 -16
-24 -10 26 5 9 -11 -15 -17
-25 -14 35 14 18 -8 -19 -22
-26 -17 44 23 26 -6 -24 -27
-27 -21 53 31 35 -3 -28 -32
-28 -25 61 40 44 0 -32 -36
-28 -28 70 50 53 2 -36 -41
-13 -17 55 54 57 20 -15 -24
6 -3 36 57 60 40 9 -5
24 12 18 60 63 60 33 15
43 26 0 64 67 79 58 35
61 40 -19 67 70 99 82 55
78 61 -40 67 70 126 117 85
95 82 -63 66 69 153 153 115
112 103 -85 65 68 180 189 146
130 125 -106 64 67 207 225 176
146 146 -129 63 66 234 261 206
139 143 -139 37 40 214 250 203
128 137 -148 11 15 188 233 196
117 130 -157 -16 -12 162 217 189
106 123 -166 -43 -38 137 200 182
95 117 -176 -69 -65 112 184 175
76 98 -173 -90 -86 72 148 146
57 77 -169 -110 -106 32 111 115
36 57 -163 -130 -126 -8 74 85
17 36 -158 -149 -145 -48 37 54
-3 16 -154 -170 -165 -88 1 23
-8 8 -141 -161 -157 -91 -10 12
-12 0 -128 -150 -146 -90 -18 3
-16 -9 -114 -139 -135 -88 -25 -8
-19 -16 -101 -128 -123 -87 -32 -17
-23 -24 -88 -116 -112 -86 -40 -27
-25 -25 -75 -106 -102 -78 -39 -28
-27 -26 -63 -95 -91 -72 -37 -27
-28 -26 -51 -83 -80 -65 -35 -26
-30 -27 -38 -72 -69 -59 -33 -25
-31 -27 -26 -61 -58 -52 -31 -24
-31 -28 -21 -56 -53 -48 -30 -23
-28 -28 -17 -51 -48 -45 -30 -23
-26 -28 -13 -45 -41 -41 -30 -24
-24 -28 -9 -39 -36 -37 -30 -24
-22 -28 -5 -34 -31 -34 -30 -24
-21 -28 -3 -32 -29 -32 -28 -24
-21 -25 0 -29 -26 -30 -26 -23
-22 -23 2 -27 -24 -28 -25 -21
-22 -21 4 -25 -22 -26 -23 -20
-22 -19 5 -23 -20 -25 -22 -19
-23 -18 6 -22 -19 -24 -21 -18
-23 -18 6 -21 -19 -24 -21 -19
-23 -18 7 -21 -18 -24 -22 -20
-23 -18 7 -20 -18 -24 -22 -21
-23 -18 7 -20 -18 -24 -22 -22
-22 -19 8 -19 -17 -24 -23 -23
-21 -19 8 -19 -17 -24 -23 -22
-20 -19 7 -20 -17 -24 -23 -21
-19 -19 7 -20 -17 -24 -23 -20
-18 -19 7 -20 -17 -24 -23 -20
-17 -18 6 -20 -17 -24 -22 -19
-18 -18 7 -19 -16 -23 -22 -19
-18 -18 8 -18 -15 -23 -22 -19
-19 -18 9 -17 -14 -22 -22 -19
-19 -18 9 -16 -13 -22 -22 -19
-20 -18 10 -15 -12 -21 -21 -19
-20 -18 10 -15 -12 -21 -21 -19
-20 -18 10 -15 -12 -20 -20 -18
-20 -18 10 -15 -12 -20 -20 -18
-20 -18 10 -15 -12 -20 -20 -18
-19 -17 10 -16 -11 -19 -19 -17
-19 -17 11 -15 -10 -18 -19 -17
-18 -18 11 -14 -10 -18 -19 -17
-18 -18 12 -13 -9 -17 -19 -17
-18 -18 12 -12 -9 -17 -19 -17
-17 -19 13 -11 -8 -16 -18 -16
-17 -18 13 -11 -8 -16 -18 -17
-17 -18 13 -11 -8 -16 -19 -17
-17 -17 13 -11 -8 -16 -19 -18
-17 -17 13 -11 -8 -16 -19 -18
-16 -16 12 -11 -8 -17 -20 -19
-16 -16 12 -10 -7 -16 -19 -18
-17 -16 12 -9 -6 -15 -18 -17
-17 -16 12 -8 -5 -14 -17 -16
-17 -16 12 -8 -4 -13 -16 -16
-18 -15 13 -7 -3 -12 -15 -15
-17 -15 13 -6 -3 -12 -15 -16
-16 -15 13 -6 -3 -13 -16 -16
-15 -15 13 -5 -3 -13 -16 -17
-14 -15 13 -5 -3 -13 -16 -17
-13 -15 12 -4 -3 -13 -17 -18
-13 -15 13 -3 -2 -12 -16 -17
-13 -15 13 -2 0 -11 -15 -16
-13 -15 14 0 1 -10 -14 -15
-13 -15 14 0 2 -9 -14 -15
-13 -15 15 1 4 -8 -13 -14
-14 -15 15 2 5 -7 -13 -14
-14 -15 15 3 6 -7 -12 -13
-15 -15 15 4 7 -6 -12 -13
-15 -15 15 5 8 -6 -12 -13
-16 -15 16 6 9 -5 -11 -12
-15 -15 16 7 10 -4 -11 -12
-14 -15 16 8 11 -4 -11 -12
-13 -15 16 9 12 -3 -11 -12
-12 -15 16 10 13 -3 -11 -12
-10 -15 16 11 14 -2 -11 -13
-8 -14 16 12 15 0 -10 -13
-6 -13 16 13 16 1 -10 -12
-5 -12 16 14 17 2 -9 -12
-3 -12 16 15 18 2 -9 -12
-2 -11 16 17 20 4 -8 -11
-2 -11 16 19 22 6 -7 -10
-2 -10 16 21 24 8 -6 -10
-2 -10 16 23 26 10 -5 -9
-2 -10 16 25 28 12 -4 -9
1 -9 17 27 30 13 -3 -8
4 -9 17 28 31 14 -2 -8
6 -9 17 29 32 15 -2 -8
8 -9 17 31 34 16 0 -8
10 -9 17 32 35 16 0 -8
11 -9 17 34 37 18 2 -6
11 -8 17 36 39 20 3 -5
11 -7 17 38 42 22 4 -4
11 -6 17 39 43 23 5 -3
11 -5 17 42 45 25 6 -2
12 -4 18 43 46 27 8 1
12 -3 18 44 47 28 9 3
12 -3 18 45 48 29 11 5
12 -2 18 46 49 31 13 6
12 -2 18 46 49 32 14 8
13 0 16 47 50 33 15 9
15 0 15 47 50 33 15 9
17 0 14 47 51 34 15 8
20 0 13 47 51 34 15 8
22 0 12 47 51 34 15 8
23 1 11 48 52 35 15 7
23 2 10 48 51 35 16 8
24 3 10 47 50 34 16 8
24 4 9 47 49 34 17 9
24 4 9 47 49 34 17 9
25 5 8 46 48 33 18 10
25 5 8 45 47 33 18 10
25 5 9 45 47 33 18 10
25 5 9 44 46 33 18 10
25 5 9 44 46 33 18 10
24 6 10 42 44 32 19 11
24 6 9 39 42 31 19 11
24 7 8 37 39 30 19 11
24 7 7 35 38 28 19 11
24 7 6 33 36 27 19 11
24 8 5 32 35 26 18 11
22 8 6 32 35 26 18 11
20 8 6 32 35 26 18 12
18 8 7 32 35 26 18 12
16 8 7 32 35 26 18 12
15 9 8 31 34 26 19 13
15 9 8 29 32 24 18 12
15 9 7 27 30 23 17 11
15 9 7 26 29 22 16 10
15 9 7 24 27 21 15 10
15 10 6 23 26 20 14 9
12 10 7 23 26 20 14 9
10 9 8 22 25 20 14 9
7 9 9 22 25 20 14 9
5 9 10 22 25 20 14 9
4 8 11 20 23 20 14 8
5 8 10 18 21 18 12 7
5 8 9 16 19 15 10 6
6 8 8 15 18 13 9 4
6 8 7 13 16 11 7 3
7 7 6 12 15 10 6 2
6 7 7 12 15 10 6 2
5 7 8 12 14 11 5 2
4 7 9 12 14 11 5 2
3 7 9 12 14 11 5 2
1 6 10 12 13 12 4 1
-2 6 10 11 12 11 4 1
-4 5 10 10 11 11 4 1
-5 5 10 9 10 10 4 1
-7 5 10 9 10 10 4 1
-7 4 9 7 9 9 4 0
-6 3 9 6 7 7 2 -2
-5 3 8 5 6 6 1 -3
-3 2 8 3 5 5 0 -4
-2 2 8 2 4 4 -2 -5
-2 1 7 1 3 3 -3 -6
-5 1 7 1 3 3 -3 -6
-7 0 8 0 3 3 -3 -6
-10 0 8 0 3 3 -3 -6
-12 0 8 0 3 3 -3 -6
-13 -2 9 -2 2 3 -2 -6
-12 -2 9 -2 2 3 -2 -6
-11 0 8 -2 2 3 -3 -6
-10 0 8 -2 2 3 -3 -6
-10 0 8 -2 2 3 -3 -6
-9 1 7 0 3 3 -4 -6
-9 1 7 0 3 2 -4 -6
-9 1 6 -2 2 2 -4 -6
-9 1 6 -2 2 1 -4 -6
-9 1 6 -2 2 1 -4 -6
-8 1 5 -3 1 0 -5 -6
-9 1 6 -2 2 2 -5 -5
-10 1 6 0 3 3 -4 -5
-11 1 7 1 4 4 -4 -4
-12 1 7 2 5 5 -4 -4
-13 1 8 3 6 6 -3 -3
-12 1 8 3 6 5 -3 -3
-11 2 7 3 5 5 -3 -3
-10 2 7 3 5 4 -3 -3
-9 2 7 3 5 4 -3 -3
-8 3 6 2 4 3 -3 -3
-8 3 6 3 5 3 -3 -3
-8 3 7 3 5 4 -3 -3
-8 3 7 4 6 4 -3 -3
-8 3 7 4 6 4 -3 -3
-9 2 8 5 7 5 -3 -3
-10 2 8 5 7 5 -3 -3
-10 2 9 5 7 5 -3 -3
-11 2 9 5 7 5 -3 -3
-11 2 9 5 7 5 -3 -3
-12 3 10 6 7 4 -3 -3
-11 3 10 6 7 4 -3 -3
-10 3 10 6 7 4 -3 -3
-9 3 10 6 7 4 -3 -3
-8 3 10 6 7 4 -3 -3
-7 2 11 6 8 5 -2 -4
-8 2 11 6 8 6 -2 -4
-9 2 12 6 8 6 0 -3
-10 2 12 6 8 7 0 -3
-10 2 12 6 8 7 0 -3
-11 2 13 7 8 8 1 -2
-11 2 13 7 8 8 1 -2
-11 2 13 7 8 8 1 -2
-11 2 13 7 8 8 1 -2
-11 2 13 7 8 8 1 -2
-10 1 12 7 9 7 0 -2
-9 2 11 5 8 6 -2 -3
-8 3 10 4 7 5 -3 -4
-6 4 9 3 6 4 -4 -5
-5 5 8 2 5 3 -5 -6
-4 6 7 1 4 2 -6 -7
-5 5 8 1 4 2 -6 -7
-6 4 8 1 4 2 -5 -6
-6 4 9 1 4 2 -5 -6
-7 3 9 1 4 2 -5 -6
-8 2 10 1 4 2 -4 -5
-8 2 10 1 3 2 -4 -5
-8 2 9 0 3 2 -4 -5
-8 2 9 0 2 2 -4 -5
-8 2 9 0 2 2 -4 -5
-7 3 8 -2 1 1 -5 -6
-7 2 9 -2 1 1 -5 -6
-7 2 9 -2 1 0 -5 -6
-7 1 10 -2 1 0 -5 -6
-7 1 10 -2 1 0 -5 -6
-8 0 11 0 2 -2 -4 -6
-9 0 11 0 2 -2 -5 -7
-10 0 11 -2 1 -2 -5 -7
-10 0 11 -2 1 -2 -6 -8
-11 0 11 -2 1 -2 -6 -8
-12 0 10 -3 0 -3 -7 -9
-12 0 10 -3 0 -3 -7 -9
-12 0 10 -3 0 -3 -7 -9
-12 0 10 -3 0 -3 -7 -9
-12 0 10 -3 0 -3 -7 -9
-13 0 10 -3 -2 -4 -7 -9
-11 0 9 -5 -3 -5 -7 -9
-10 -2 9 -6 -4 -6 -8 -9
-9 -2 8 -7 -5 -7 -8 -9
-8 -2 8 -8 -6 -8 -8 -9
-8 -3 7 -9 -7 -9 -9 -8
-10 -3 8 -9 -7 -9 -9 -8
-11 -3 8 -8 -6 -9 -9 -8
-13 -3 9 -8 -6 -9 -9 -8
-15 -3 9 -8 -6 -9 -9 -8
-15 -4 10 -7 -5 -9 -9 -8
-14 -4 9 -8 -6 -10 -10 -8
-12 -4 9 -9 -7 -10 -11 -9
-11 -4 8 -9 -7 -11 -11 -9
-9 -4 8 -10 -8 -11 -12 -9
-9 -3 7 -11 -9 -12 -13 -10
-10 -4 8 -10 -8 -11 -12 -10
-11 -4 9 -9 -7 -11 -12 -10
-13 -5 9 -9 -7 -10 -11 -10
-14 -5 10 -8 -6 -10 -11 -10
-15 -6 11 -7 -5 -9 -10 -11
-15 -6 10 -8 -6 -9 -10 -11
-14 -6 9 -8 -7 -10 -10 -11
-14 -6 9 -9 -8 -10 -10 -11
-14 -6 8 -9 -9 -10 -10 -11
-13 -5 7 -10 -10 -11 -11 -10
-12 -5 7 -10 -10 -11 -11 -10
-11 -5 7 -10 -10 -11 -11 -10
-10 -5 7 -10 -10 -11 -11 -10
-9 -5 7 -10 -10 -11 -11 -10
-8 -6 6 -11 -10 -12 -12 -11
-9 -7 6 -11 -10 -12 -12 -11
-10 -7 6 -11 -10 -12 -12 -12
-10 -8 6 -11 -10 -12 -12 -12
-11 -8 6 -11 -10 -12 -12 -12
-12 -9 6 -12 -11 -12 -13 -13
-12 -9 6 -11 -11 -12 -13 -12
-12 -9 6 -11 -11 -11 -13 -12
-12 -9 6 -10 -11 -11 -13 -11
-12 -9 6 -10 -11 -11 -13 -11
-13 -9 7 -9 -10 -10 -12 -10
-14 -9 7 -10 -10 -11 -12 -11
-14 -8 7 -10 -10 -12 -12 -11
-15 -8 7 -11 -10 -12 -12 -12
-15 -8 7 -11 -10 -13 -12 -12
-16 -7 7 -12 -10 -14 -13 -13
-16 -7 7 -12 -10 -14 -13 -13
-16 -7 7 -12 -10 -14 -13 -13
-16 -7 7 -12 -10 -14 -13 -13
-16 -7 7 -12 -10 -14 -13 -13
-15 -6 8 -11 -10 -13 -12 -12
-14 -6 8 -11 -10 -13 -12 -11
-14 -5 8 -11 -9 -12 -11 -11
-13 -5 8 -11 -9 -12 -11 -10
-13 -5 8 -11 -9 -12 -11 -10
-12 -4 9 -10 -8 -11 -10 -9
-11 -3 10 -8 -7 -10 -10 -9
-10 -2 11 -7 -6 -10 -9 -8
-10 -2 12 -6 -6 -9 -9 -8
-9 0 13 -5 -5 -9 -9 -8
-8 1 14 -4 -4 -8 -8 -7
-9 2 14 -3 -3 -7 -7 -6
-10 3 15 -3 -2 -6 -6 -6
-11 4 15 -2 -2 -5 -6 -5
-12 5 15 -2 0 -4 -5 -5
-13 6 16 0 1 -3 -4 -4
-12 6 16 0 2 -2 -4 -4
-11 6 17 0 3 -2 -3 -4
-10 6 17 0 3 0 -3 -4
-9 6 17 0 4 0 -3 -4
-7 7 18 1 5 1 -2 -5
-6 9 17 1 4 1 -2 -4
-4 10 16 2 4 0 0 -3
-3 12 15 2 3 0 0 -3
0 13 14 2 3 0 0 -2
1 14 12 3 2 -2 1 0
0 14 11 3 2 -2 1 0
-2 13 9 3 2 0 1 1
-3 12 8 3 2 0 1 1
-4 12 6 3 2 0 1 1
-5 11 5 2 3 1 2 2
-5 10 5 2 3 1 2 2
-5 8 5 1 2 1 1 1
-5 7 5 1 2 1 1 0
-5 6 5 1 2 1 1 0
-6 5 5 0 1 0 0 -2
-7 3 5 0 0 -2 -2 -3
-8 2 5 -2 -2 -3 -3 -4
-8 0 5 -3 -2 -4 -3 -4
-9 -2 5 -3 -3 -5 -4 -5
-10 -3 6 -5 -5 -7 -6 -6
-11 -5 6 -7 -6 -8 -7 -8
-12 -6 5 -9 -8 -10 -9 -9
-12 -8 5 -11 -10 -12 -11 -11
-13 -9 5 -13 -12 -14 -13 -12
-14 -10 4 -14 -13 -15 -14 -13
-14 -10 4 -14 -13 -15 -14 -13
-15 -10 4 -14 -13 -15 -14 -13
-15 -10 4 -14 -13 -15 -14 -13
-15 -10 4 -14 -13 -15 -14 -13
-16 -11 3 -14 -13 -16 -13 -13
-16 -11 3 -14 -13 -16 -13 -13
-16 -11 3 -14 -13 -16 -13 -13
-16 -11 3 -14 -13 -16 -13 -13
-16 -11 3 -14 -13 -16 -13 -13
-16 -12 3 -14 -14 -17 -14 -14
-15 -12 3 -14 -14 -17 -15 -15
-13 -12 2 -15 -15 -18 -16 -16
-11 -12 2 -16 -16 -19 -17 -16
-9 -12 2 -16 -16 -19 -18 -17
-9 -13 1 -17 -17 -20 -19 -18
-12 -13 1 -17 -16 -19 -18 -17
-15 -13 2 -16 -15 -18 -16 -16
-18 -13 3 -15 -14 -17 -15 -15
-20 -13 3 -15 -13 -16 -14 -14
-22 -13 4 -14 -12 -15 -13 -13
-22 -13 5 -14 -12 -15 -13 -13
-22 -13 6 -13 -12 -15 -13 -13
-22 -13 6 -12 -12 -15 -13 -13
-22 -13 7 -12 -12 -15 -13 -13
-23 -15 14 -6 -6 -15 -16 -16
-24 -18 23 3 3 -15 -22 -23
-25 -22 33 11 11 -15 -27 -29
-26 -26 43 19 19 -15 -33 -35
-27 -29 53 27 27 -15 -38 -41
-26 -29 57 34 34 -10 -37 -41
-22 -24 56 40 40 1 -31 -36
-19 -20 54 48 48 10 -25 -31
-15 -16 53 54 54 20 -18 -26
-11 -11 52 61 61 29 -12 -21
6 5 34 67 67 54 17 2
29 27 8 72 73 89 58 34
54 49 -19 78 78 123 100 67
77 71 -46 84 85 157 142 101
102 93 -73 89 90 192 183 134
113 107 -94 81 82 209 207 155
117 116 -110 63 65 215 222 170
120 126 -127 46 47 221 236 183
125 134 -143 28 29 226 251 197
129 143 -159 10 12 232 265 211
120 135 -166 -16 -14 203 246 200
104 113 -166 -46 -45 151 206 172
87 93 -166 -76 -74 99 167 143
70 71 -166 -106 -105 47 126 115
53 50 -166 -137 -136 -6 86 87
37 34 -160 -149 -148 -35 56 64
23 22 -148 -150 -149 -51 33 45
9 9 -136 -151 -150 -66 11 25
-6 -4 -123 -152 -151 -81 -12 6
-20 -17 -111 -153 -152 -98 -34 -14
-26 -22 -100 -146 -145 -101 -44 -22
-26 -24 -89 -133 -132 -94 -44 -24
-26 -25 -77 -118 -117 -88 -43 -26
-26 -27 -67 -104 -103 -80 -43 -27
-26 -28 -56 -91 -90 -74 -43 -29
-26 -29 -47 -79 -78 -68 -41 -30
-25 -30 -38 -71 -70 -63 -40 -30
-24 -31 -30 -62 -61 -58 -38 -30
-23 -31 -22 -54 -53 -53 -37 -30
-22 -32 -14 -45 -44 -48 -36 -30
-21 -32 -9 -39 -38 -44 -35 -31
-21 -30 -7 -37 -36 -41 -33 -29
-21 -28 -5 -34 -34 -39 -31 -28
-21 -26 -3 -32 -32 -37 -30 -26
-21 -24 0 -29 -29 -35 -28 -25
-22 -23 1 -27 -27 -34 -27 -24
-22 -23 2 -25 -25 -33 -27 -24
-22 -22 4 -23 -22 -31 -27 -24
-22 -22 5 -21 -20 -30 -27 -24
-22 -22 6 -19 -17 -29 -27 -24
-21 -21 7 -18 -16 -28 -27 -23
-21 -21 7 -18 -16 -28 -26 -23
-22 -21 8 -18 -16 -27 -25 -22
-22 -21 8 -18 -16 -26 -24 -21
-22 -21 8 -18 -16 -26 -23 -21
-23 -21 9 -17 -16 -25 -22 -20
-22 -21 9 -16 -15 -25 -22 -20
-21 -21 9 -15 -14 -25 -23 -21
-21 -21 9 -15 -14 -25 -24 -21
-20 -21 9 -14 -13 -25 -24 -21
-19 -22 9 -13 -12 -24 -25 -22
-18 -21 9 -13 -12 -24 -24 -22
-17 -20 10 -14 -13 -24 -23 -21
-17 -19 10 -14 -13 -24 -23 -21
-16 -18 10 -14 -13 -24 -22 -21
-15 -17 11 -15 -14 -24 -21 -20
-15 -17 11 -15 -14 -24 -22 -21
-14 -18 10 -14 -13 -24 -23 -22
-13 -19 10 -14 -13 -24 -23 -22
-13 -19 10 -14 -13 -24 -24 -23
-12 -20 9 -13 -12 -25 -25 -24
-14 -20 10 -12 -11 -23 -23 -22
-15 -20 11 -11 -10 -21 -21 -21
-17 -20 12 -10 -9 -20 -20 -19
-18 -20 13 -9 -8 -18 -18 -18
-18 -19 14 -8 -7 -17 -17 -17
-17 -19 14 -8 -7 -17 -18 -17
-15 -18 13 -8 -7 -18 -19 -18
-13 -17 13 -8 -7 -18 -19 -18
-11 -17 13 -8 -7 -18 -20 -18
-10 -16 12 -7 -6 -19 -21 -19
-11 -16 12 -7 -6 -18 -20 -19
-12 -16 12 -7 -6 -17 -19 -18
-13 -16 12 -7 -6 -17 -19 -18
-14 -16 12 -7 -6 -16 -18 -18
-15 -16 13 -6 -5 -15 -17 -17
-15 -16 13 -5 -4 -15 -17 -17
-14 -16 13 -3 -2 -14 -17 -17
-13 -16 13 -2 0 -14 -17 -17
-13 -16 13 0 1 -14 -17 -17
-12 -16 13 1 2 -13 -18 -17
-12 -16 14 1 2 -13 -17 -17
-13 -16 15 2 3 -12 -16 -16
-14 -16 15 2 4 -11 -15 -15
-14 -16 16 2 4 -11 -14 -15
-15 -15 17 3 5 -10 -13 -14
-13 -15 17 5 7 -10 -13 -14
-12 -15 17 7 8 -9 -13 -15
-11 -15 17 8 9 -8 -13 -15
-9 -15 17 10 11 -8 -13 -15
-8 -14 16 11 12 -7 -14 -16
-8 -14 16 12 13 -5 -12 -15
-8 -13 17 13 14 -4 -11 -14
-8 -13 18 13 14 -3 -10 -13
-8 -13 18 14 15 0 -8 -12
-7 -12 19 16 16 1 -7 -11
-5 -12 19 18 18 1 -7 -11
-4 -12 19 20 20 2 -7 -11
-3 -12 19 22 22 3 -7 -11
0 -12 19 24 24 3 -7 -11
1 -12 19 25 25 5 -6 -11
1 -11 19 27 27 7 -4 -9
2 -10 20 28 29 9 -2 -7
2 -10 21 29 30 11 1 -6
2 -9 21 31 32 13 3 -4
4 -8 22 32 33 15 4 -3
6 -8 22 34 35 16 4 -3
8 -8 22 36 37 17 4 -3
10 -8 22 37 39 18 4 -3
12 -8 22 39 42 19 4 -3
14 -8 22 40 43 20 4 -4
15 -7 22 43 44 22 4 -4
16 -6 21 44 46 23 5 -3
17 -5 21 45 47 24 6 -2
18 -4 21 47 48 26 6 -2
19 -3 20 48 49 27 7 0
19 -2 20 48 50 27 9 1
18 0 20 49 51 28 11 3
18 0 20 50 51 29 12 4
18 1 20 50 52 29 14 5
17 2 19 51 53 30 15 6
19 2 18 51 53 31 15 8
20 3 17 51 53 32 16 9
21 4 16 51 53 32 17 10
23 4 15 51 53 33 17 12
24 5 14 52 52 34 18 13
23 5 14 52 52 34 18 13
21 5 14 52 52 34 19 13
20 5 14 52 52 34 20 13
19 5 14 52 52 34 20 13
18 6 15 50 51 34 21 14
20 6 14 48 49 33 21 14
21 7 12 46 47 31 21 14
22 7 11 44 45 30 21 14
24 7 10 42 43 29 21 14
25 8 9 39 40 28 20 13
25 8 9 39 39 27 20 13
24 8 9 38 38 26 20 13
24 8 9 37 38 26 20 13
24 8 9 37 37 25 20 13
22 9 9 36 36 24 19 14
20 9 9 34 34 24 19 14
18 9 10 33 33 23 18 14
16 9 10 32 32 22 18 14
14 9 10 30 30 22 18 14
12 9 11 29 29 21 17 15
14 9 10 27 27 19 16 13
16 9 9 25 26 18 15 12
18 9 9 24 25 17 15 11
20 9 8 22 23 15 14 9
19 10 7 21 22 14 13 8
15 10 8 21 22 14 13 8
11 10 10 21 22 15 13 9
7 10 11 21 22 15 13 9
4 10 12 21 22 15 13 9
1 9 13 20 22 16 12 10
1 9 13 20 21 14 10 8
2 9 13 19 20 13 9 7
3 9 13 18 18 12 7 6
3 9 13 18 17 10 5 4
4 9 13 17 16 9 4 3
4 8 13 15 14 8 3 2
4 7 12 13 13 8 3 2
3 6 11 11 12 7 2 1
3 5 11 9 10 6 1 0
2 4 10 8 9 5 0 -2
0 4 10 8 9 5 0 -2
-2 3 10 8 9 5 0 -2
-3 2 10 8 9 4 0 -2
-5 2 10 8 9 4 0 -2
-6 1 11 7 8 3 0 0
-5 1 10 6 7 2 -2 0
-5 1 10 5 6 2 -2 -2
-4 1 9 3 4 1 -3 -3
-3 1 8 2 3 0 -4 -3
-3 1 7 1 2 -2 -5 -4
-6 1 7 1 3 -2 -5 -4
-9 1 8 2 3 0 -5 -4
-12 1 9 3 4 1 -4 -4
-15 1 9 3 5 1 -4 -4
-17 0 10 4 6 2 -3 -4
-16 0 10 4 5 2 -3 -4
-15 0 10 4 4 2 -3 -4
-13 0 9 3 3 1 -3 -4
-12 0 9 3 2 1 -3 -4
-11 1 8 2 1 0 -4 -3
-11 1 8 2 2 0 -4 -3
-11 1 8 2 2 0 -4 -3
-11 1 8 3 3 1 -3 -2
-11 1 8 3 4 1 -3 -2
-12 0 9 4 5 2 -2 0
-11 0 9 4 5 2 -2 0
-10 1 8 3 5 2 -2 0
-8 2 7 2 4 1 -3 -2
-7 2 7 2 4 1 -3 -2
-6 3 6 1 3 0 -4 -3
-4 3 6 1 3 0 -4 -3
-2 3 6 1 3 0 -4 -3
1 3 6 1 3 0 -4 -3
3 3 6 1 3 0 -4 -3
3 4 6 2 4 0 -5 -4
1 4 6 2 4 0 -5 -3
-2 4 6 2 4 1 -4 -3
-5 4 7 3 4 2 -3 -2
-7 4 7 3 4 2 -3 0
-9 3 8 4 5 3 -2 1
-9 3 8 5 5 3 -2 1
-9 3 8 5 6 3 -2 1
-9 3 8 6 7 4 -2 1
-9 3 8 7 7 4 -2 1
-9 4 9 8 8 5 0 0
-7 4 9 8 8 5 0 0
-6 4 9 8 8 5 0 0
-4 4 9 8 8 5 0 0
-2 4 9 8 8 5 0 0
0 4 9 7 8 5 0 1
0 4 9 7 8 5 0 1
0 4 8 7 8 5 0 0
1 4 7 6 8 4 0 -2
1 4 7 6 8 4 0 -2
2 4 6 5 7 3 -2 -3
-2 4 7 5 7 3 -2 -2
-4 4 7 5 7 4 0 -2
-6 5 8 6 7 5 1 0
-8 5 9 6 7 5 1 1
-10 6 10 7 8 6 2 2
-10 6 10 7 8 6 2 2
-10 6 10 7 8 6 2 2
-9 6 9 7 8 6 2 2
-9 6 9 7 8 6 2 2
-8 5 8 6 8 5 1 1
-8 5 8 6 8 5 1 1
-7 5 7 5 7 4 1 1
-6 5 6 4 6 3 0 0
-6 5 6 4 6 3 0 0
-5 4 5 3 5 2 -2 -2
-5 4 5 3 5 2 -2 -2
-5 4 5 3 5 2 -2 -2
-6 4 6 3 5 2 -2 -2
-6 4 6 3 5 2 -2 -2
-7 3 7 3 5 1 -3 -2
-7 3 7 3 5 1 -3 -2
-6 3 7 3 4 1 -3 -2
-5 4 7 2 3 1 -3 -2
-5 4 7 2 3 1 -3 -2
-4 5 6 1 2 0 -4 -2
-4 5 6 1 2 0 -4 -2
-4 5 6 0 1 -2 -4 -3
-4 4 6 -2 0 -3 -5 -4
-4 4 6 -2 0 -3 -5 -4
-5 3 5 -3 -2 -4 -6 -5
-6 3 5 -3 -2 -4 -6 -5
-8 3 5 -3 -2 -4 -6 -5
-9 2 6 -3 -2 -4 -6 -4
-11 2 6 -3 -2 -4 -6 -4
-12 1 7 -2 0 -3 -5 -3
-10 1 7 -2 0 -4 -6 -4
-9 1 6 -3 -2 -4 -7 -4
-7 1 5 -4 -3 -5 -8 -5
-5 1 5 -4 -3 -6 -9 -6
-4 0 4 -5 -4 -7 -10 -7
-4 0 4 -6 -4 -7 -10 -7
-3 0 4 -6 -5 -7 -10 -7
-2 0 3 -7 -6 -8 -10 -7
-2 0 3 -8 -6 -8 -10 -7
0 0 2 -9 -7 -9 -11 -7
-4 0 2 -9 -7 -9 -11 -7
-6 0 3 -8 -7 -9 -10 -7
-9 -2 4 -7 -6 -9 -9 -7
-11 -2 4 -7 -6 -9 -9 -7
-13 -3 5 -6 -5 -8 -8 -6
-13 -3 5 -6 -5 -8 -8 -6
-12 -3 5 -6 -5 -8 -8 -6
-11 -3 5 -7 -6 -8 -8 -6
-11 -3 5 -7 -6 -8 -8 -6
-10 -2 6 -8 -7 -8 -9 -6
-10 -2 6 -8 -7 -8 -9 -6
-10 -2 6 -8 -7 -8 -9 -6
-10 -2 6 -7 -6 -8 -9 -6
-10 -2 6 -7 -6 -8 -9 -6
-10 -3 5 -6 -5 -7 -9 -6
-10 -3 5 -7 -5 -8 -9 -6
-10 -3 4 -7 -6 -8 -10 -6
-9 -3 3 -8 -7 -9 -11 -7
-9 -3 3 -9 -7 -10 -11 -7
-8 -4 2 -10 -8 -11 -12 -8
-8 -4 2 -10 -8 -11 -12 -8
-9 -4 2 -9 -8 -11 -12 -8
-10 -4 3 -8 -7 -11 -11 -8
-10 -4 3 -8 -7 -11 -11 -8
-11 -4 4 -7 -6 -10 -10 -8
-11 -4 4 -7 -6 -10 -10 -8
-10 -4 4 -8 -6 -10 -10 -8
-9 -4 4 -9 -7 -10 -11 -8
-9 -4 4 -9 -7 -10 -11 -8
-8 -4 3 -10 -8 -11 -12 -8
-8 -4 3 -10 -8 -11 -12 -8
-7 -4 3 -10 -8 -11 -12 -8
-6 -4 3 -10 -8 -10 -12 -9
-6 -4 3 -10 -8 -10 -12 -9
-5 -5 2 -10 -9 -9 -12 -10
-6 -5 2 -10 -9 -9 -12 -10
-6 -5 2 -10 -9 -9 -12 -10
-7 -5 3 -10 -8 -9 -12 -9
-8 -5 3 -10 -8 -9 -12 -9
-9 -4 4 -10 -7 -9 -11 -8
-8 -4 4 -10 -7 -9 -11 -8
-7 -3 4 -10 -7 -9 -11 -8
-5 -2 4 -10 -7 -9 -11 -9
-4 -2 4 -10 -7 -9 -11 -9
-3 0 4 -10 -7 -10 -11 -10
-6 1 6 -8 -6 -9 -10 -9
-8 1 7 -7 -4 -7 -8 -7
-10 2 9 -5 -3 -6 -7 -6
-12 3 10 -4 0 -4 -5 -4
-14 4 12 -2 1 -3 -4 -3
-11 5 12 -2 1 -3 -4 -3
-9 6 12 0 2 -3 -4 -3
-6 8 12 1 3 -2 -4 -3
-4 9 12 1 3 -2 -4 -3
-2 10 12 2 4 0 -5 -3
-2 10 12 2 4 0 -5 -3
-2 10 12 2 4 0 -5 -3
0 11 13 2 4 1 -5 -3
0 11 13 2 4 1 -5 -3
1 12 14 3 5 2 -4 -3
1 13 14 3 6 2 -3 -2
1 14 14 4 6 2 -2 0
1 15 14 5 7 3 1 2
1 16 14 5 8 3 2 3
1 17 13 6 9 4 3 4
1 17 11 6 8 4 3 4
1 17 9 5 8 4 3 4
1 17 7 4 7 4 3 4
1 17 5 4 6 4 3 4
3 16 3 3 5 4 3 5
6 15 2 3 5 3 2 4
9 14 2 2 5 2 1 2
12 13 1 1 4 0 -2 1
15 12 0 1 4 -2 -3 -2
16 11 -2 0 3 -3 -4 -3
13 10 -2 0 3 -3 -4 -3
10 9 0 0 3 -3 -3 -3
7 8 1 0 2 -3 -2 -2
4 7 1 0 2 -3 -2 -2
2 6 2 -2 1 -3 0 0
0 4 2 -3 0 -4 -3 -2
-3 2 2 -5 -3 -4 -5 -2
-5 0 2 -6 -4 -5 -7 -3
-7 -3 2 -8 -6 -6 -8 -4
-9 -5 1 -9 -7 -7 -10 -5
-9 -5 1 -10 -8 -8 -11 -6
-8 -5 0 -10 -9 -9 -11 -8
-7 -6 -2 -11 -10 -10 -12 -9
-7 -6 -2 -12 -11 -11 -13 -11
-6 -7 -3 -13 -12 -12 -14 -12
-8 -7 -3 -13 -11 -12 -14 -12
-10 -7 -2 -13 -11 -12 -14 -12
-12 -8 0 -12 -10 -12 -13 -12
-13 -8 0 -12 -9 -12 -13 -12
-15 -9 1 -11 -8 -12 -12 -11
-14 -9 1 -11 -8 -12 -12 -11
-13 -9 1 -11 -8 -12 -12 -11
-12 -9 1 -12 -9 -12 -12 -11
-10 -9 1 -12 -9 -12 -12 -11
-9 -9 0 -13 -10 -13 -12 -10
-9 -9 0 -13 -10 -13 -12 -10
-9 -9 0 -13 -10 -13 -12 -10
-9 -9 0 -13 -10 -14 -13 -11
-9 -9 0 -13 -10 -14 -13 -11
-9 -10 -2 -14 -11 -15 -14 -12
-10 -10 -2 -14 -11 -15 -14 -12
-11 -10 -2 -14 -11 -14 -13 -12
-12 -10 0 -13 -10 -14 -13 -12
-13 -10 0 -13 -10 -13 -12 -12
-14 -10 2 -11 -8 -12 -12 -12
-14 -12 8 -8 -5 -12 -15 -15
-14 -14 14 -5 -2 -12 -18 -19
-15 -16 20 0 2 -13 -22 -22
-15 -18 26 3 5 -13 -25 -26
-16 -20 31 8 10 -14 -28 -29
-15 -21 36 16 18 -11 -28 -31
-15 -21 42 25 27 -9 -28 -32
-14 -22 47 33 35 -7 -29 -34
-13 -23 52 42 44 -4 -29 -35
-6 -19 50 50 52 7 -21 -30
17 0 30 57 59 34 9 -6
38 19 10 64 66 62 38 18
60 37 -10 71 73 89 68 43
82 56 -30 79 81 116 98 66
101 74 -51 82 85 142 128 91
112 92 -73 74 76 163 157 117
123 109 -96 66 68 185 187 144
136 127 -118 57 59 206 218 170
147 145 -140 49 51 228 247 196
152 155 -159 34 36 233 262 211
139 146 -170 6 8 197 236 193
127 137 -180 -24 -21 160 212 177
114 128 -190 -53 -50 125 186 160
101 118 -200 -81 -78 89 161 144
87 105 -204 -106 -103 53 134 125
69 81 -193 -119 -116 20 100 98
51 58 -183 -133 -130 -14 66 71
32 34 -172 -146 -144 -48 32 45
15 11 -160 -159 -157 -81 -2 18
1 -7 -148 -165 -163 -105 -26 -3
-5 -12 -133 -151 -149 -99 -29 -8
-10 -17 -117 -137 -135 -93 -32 -13
-15 -21 -102 -122 -120 -87 -36 -18
-20 -26 -87 -108 -105 -81 -39 -23
-24 -30 -73 -96 -93 -75 -43 -27
-22 -30 -63 -86 -82 -69 -40 -27
-20 -30 -53 -75 -72 -64 -38 -27
-19 -30 -43 -65 -62 -58 -36 -27
-17 -30 -32 -55 -52 -52 -34 -27
-15 -29 -24 -47 -44 -48 -32 -28
-15 -28 -20 -43 -39 -45 -30 -27
-15 -27 -17 -38 -35 -41 -29 -26
-16 -26 -13 -34 -31 -38 -27 -25
-16 -24 -10 -29 -27 -35 -26 -23
-17 -23 -7 -26 -24 -33 -24 -22
-16 -23 -7 -26 -24 -33 -24 -22
-15 -22 -6 -26 -24 -33 -24 -22
-14 -22 -6 -26 -23 -32 -24 -22
-13 -21 -5 -26 -23 -32 -24 -22
-12 -20 -4 -25 -22 -31 -24 -22
-12 -20 -4 -24 -21 -31 -24 -22
-12 -20 -3 -23 -20 -31 -24 -22
-12 -20 -3 -22 -19 -31 -24 -22
-12 -20 -2 -21 -18 -31 -24 -22
-12 -21 0 -20 -17 -30 -25 -23
-13 -21 0 -20 -17 -30 -24 -23
-15 -21 1 -19 -17 -30 -24 -22
-16 -21 1 -19 -16 -29 -23 -22
-17 -21 2 -18 -16 -29 -22 -21
-19 -20 3 -17 -15 -28 -21 -20
-19 -20 3 -17 -15 -28 -21 -20
-19 -20 3 -17 -15 -28 -21 -20
-19 -19 4 -16 -15 -27 -20 -20
-19 -19 4 -16 -15 -27 -20 -20
-18 -18 5 -15 -14 -26 -19 -19
-16 -18 5 -15 -14 -26 -19 -19
-15 -18 4 -15 -14 -26 -20 -20
-13 -18 4 -15 -14 -26 -20 -20
-12 -18 3 -15 -14 -26 -21 -21
-10 -18 2 -16 -14 -27 -22 -22
-11 -18 2 -15 -13 -27 -22 -22
-11 -18 3 -15 -13 -27 -22 -22
-12 -18 3 -14 -12 -26 -21 -21
-13 -18 4 -13 -11 -26 -21 -21
-14 -19 5 -12 -10 -25 -20 -20
-14 -19 5 -12 -10 -25 -20 -20
-13 -19 5 -12 -10 -25 -20 -20
-13 -18 5 -12 -10 -25 -20 -20
-12 -18 5 -12 -10 -25 -20 -20
-11 -17 4 -12 -9 -24 -19 -19
-11 -17 4 -12 -9 -24 -19 -19
-11 -17 4 -12 -9 -24 -19 -19
-10 -17 4 -11 -8 -24 -19 -19
-10 -17 4 -11 -8 -24 -19 -19
-9 -17 5 -10 -7 -23 -18 -20
-9 -17 5 -9 -7 -23 -18 -20
-9 -17 5 -9 -6 -23 -17 -20
-10 -17 5 -8 -6 -22 -17 -19
-10 -17 5 -7 -5 -22 -16 -19
-11 -16 6 -6 -4 -21 -15 -18
-10 -16 6 -5 -3 -21 -15 -18
-8 -16 6 -5 -3 -20 -15 -18
-7 -16 6 -4 -2 -20 -15 -17
-6 -16 6 -3 0 -19 -15 -17
-4 -15 6 -2 1 -18 -14 -16
-4 -15 6 0 2 -18 -14 -16
-5 -15 6 1 4 -18 -14 -16
-6 -15 6 2 5 -18 -14 -16
-7 -15 6 4 6 -18 -14 -16
-8 -14 6 5 8 -18 -14 -16
-8 -14 7 6 9 -17 -14 -16
-8 -13 8 8 10 -15 -13 -15
-8 -12 9 9 11 -14 -12 -15
-8 -11 11 10 13 -13 -11 -14
-9 -10 12 12 14 -11 -10 -13
-6 -10 12 12 14 -11 -10 -13
-4 -10 11 12 15 -10 -9 -13
0 -9 11 13 16 -10 -9 -13
3 -9 10 13 17 -9 -8 -13
5 -8 9 14 18 -8 -7 -12
5 -8 9 16 19 -7 -7 -12
6 -8 9 18 21 -5 -7 -12
6 -8 9 19 23 -4 -7 -12
7 -8 9 21 24 -3 -7 -12
8 -8 10 23 26 0 -6 -12
9 -7 10 24 26 0 -5 -12
11 -5 10 26 26 1 -4 -11
13 -4 10 28 27 2 -3 -10
14 -3 10 29 27 3 0 -9
16 0 9 31 28 4 1 -8
16 0 9 32 30 5 1 -7
17 0 9 34 33 7 2 -6
17 1 9 35 35 9 2 -5
18 1 9 36 38 10 3 -3
19 2 9 38 40 12 4 -2
21 3 9 38 40 12 4 -2
23 4 9 38 40 12 4 -2
26 5 8 38 40 12 5 -2
28 6 8 38 40 12 5 -2
30 7 7 38 40 13 6 0
30 7 7 40 43 15 7 2
30 8 7 42 44 17 9 3
29 9 6 44 46 19 10 5
29 10 6 46 48 21 11 7
28 11 5 48 50 23 13 9
31 11 5 47 49 23 13 9
33 11 4 46 48 22 13 9
36 12 3 45 47 22 13 9
38 12 2 43 45 21 13 9
42 13 1 42 44 20 13 10
42 13 1 42 44 20 13 10
40 13 1 42 44 20 13 10
40 14 2 42 44 20 12 10
39 14 2 42 44 20 12 10
38 15 3 42 44 20 11 9
36 15 3 42 44 21 13 11
34 14 4 42 45 22 14 14
31 13 5 43 45 23 16 16
29 12 6 43 46 25 18 19
27 11 7 44 47 26 20 21
28 11 7 43 45 26 18 20
30 11 7 42 43 25 16 18
32 12 6 40 39 25 14 16
33 12 6 39 37 24 12 15
35 13 5 38 35 23 10 13
33 13 5 37 35 22 10 13
30 13 5 36 35 21 10 13
28 13 5 35 34 20 10 13
25 13 5 33 34 19 10 13
23 12 6 32 33 18 11 14
23 12 6 32 33 18 11 14
22 12 7 32 33 18 11 13
21 12 8 32 33 18 10 13
20 12 9 32 33 18 10 12
19 11 10 31 33 19 9 11
19 10 10 31 32 19 8 9
18 9 11 30 31 18 6 8
17 8 12 29 30 17 5 6
16 7 13 28 29 16 4 4
15 6 14 27 28 15 2 2
14 6 14 27 28 15 2 2
12 6 14 26 27 15 2 2
10 6 14 26 27 15 2 2
9 6 14 25 26 15 2 2
7 6 14 24 25 14 1 2
7 6 14 23 25 14 1 2
7 5 14 22 24 14 1 2
6 4 14 21 24 14 2 2
6 3 14 20 23 14 2 2
5 2 14 19 22 13 3 2
5 2 14 18 22 13 3 2
4 1 13 17 21 12 3 2
3 1 13 16 20 11 2 1
2 0 12 15 19 10 2 1
1 -2 11 14 18 9 1 0
1 -2 11 14 18 9 1 0
0 -2 11 15 18 9 1 0
0 -2 11 15 18 9 1 1
-2 -2 11 16 18 9 1 1
-3 -2 12 17 18 10 2 2
-3 -2 12 16 18 10 2 2
-3 -3 12 15 18 10 2 1
-3 -3 12 14 17 11 1 1
-3 -4 12 13 17 11 1 0
-3 -5 11 12 16 12 0 -2
-3 -5 11 12 16 12 0 -2
-2 -4 10 12 16 11 0 -2
0 -4 10 12 16 11 -2 -3
1 -3 9 12 16 10 -2 -3
2 -2 8 13 15 9 -3 -4
1 -2 8 13 15 10 -2 -3
-2 -2 9 14 16 12 0 -2
-4 -2 9 15 17 13 1 0
-5 -2 10 16 18 14 2 1
-7 -3 11 17 19 16 4 3
-6 -3 11 17 19 16 4 3
-5 -3 11 17 19 16 4 2
-4 -3 11 17 19 16 4 2
-3 -3 11 17 19 16 4 1
-2 -3 10 16 18 15 3 0
-2 -3 10 16 18 15 3 0
-2 -2 10 16 18 15 3 0
-2 0 10 16 18 15 3 0
-2 1 10 16 18 15 3 0
-3 2 10 17 19 15 3 0
-3 2 10 17 19 15 3 0
-3 2 9 16 19 15 3 0
-2 2 9 16 18 15 3 0
-2 2 8 15 18 15 3 0
0 2 7 14 17 15 2 0
0 2 7 14 17 15 2 0
-2 3 7 14 17 15 2 0
-2 3 7 15 17 15 2 0
-3 4 7 15 17 15 2 0
-4 5 8 16 17 15 3 1
-3 5 8 16 17 15 3 1
-2 5 8 16 17 15 2 1
0 5 8 15 17 14 2 0
1 5 8 15 17 14 1 0
2 5 7 14 16 13 0 -2
2 5 7 14 16 13 0 -2
3 4 7 14 16 13 0 -2
4 3 6 14 16 12 -2 -2
5 2 6 14 16 12 -2 -2
6 1 5 13 15 11 -3 -3
4 1 5 13 15 11 -3 -3
2 1 5 13 15 11 -3 -3
0 1 5 13 14 11 -3 -3
-4 1 5 13 14 11 -3 -3
-6 0 6 13 13 12 -2 -2
-6 0 6 13 13 12 -2 -2
-6 1 6 13 13 12 -2 -2
-6 2 6 13 13 13 -2 0
-6 3 6 13 13 13 -2 0
-5 4 5 13 13 14 0 1
-5 4 5 12 13 14 0 1
-4 4 4 11 12 13 0 1
-3 4 3 10 12 12 0 0
-2 4 2 9 11 11 0 0
0 3 1 8 10 10 0 -2
0 3 1 8 10 10 -2 -2
0 3 1 7 10 9 -3 -3
1 3 1 7 9 9 -4 -3
1 3 1 6 9 8 -5 -4
2 3 1 5 8 7 -6 -5
0 3 1 5 8 7 -6 -5
-3 2 2 5 8 7 -5 -4
-5 2 2 5 8 7 -5 -4
-7 1 3 5 8 7 -4 -3
-9 0 4 5 8 7 -3 -2
-8 0 4 5 8 7 -3 -2
-7 0 3 5 8 7 -4 -2
-6 0 3 5 7 7 -5 -3
-5 0 2 5 7 7 -6 -3
-4 0 1 5 6 6 -7 -4
-4 0 1 4 5 5 -7 -4
-5 0 1 3 4 4 -7 -4
-5 0 0 2 3 3 -8 -4
-6 0 0 1 2 2 -8 -4
-7 1 -2 0 1 1 -9 -5
-7 1 -2 0 1 1 -9 -5
-7 1 -2 0 1 1 -9 -5
-7 1 -2 0 1 1 -9 -6
-7 1 -2 0 1 1 -9 -6
-7 0 0 -2 0 0 -10 -7
-5 0 -2 -3 -2 -2 -11 -8
-2 0 -3 -4 -3 -3 -12 -9
2 0 -4 -6 -5 -4 -13 -10
4 0 -5 -7 -6 -5 -14 -11
7 0 -6 -9 -8 -6 -15 -12
3 0 -6 -9 -7 -6 -15 -12
0 0 -5 -9 -6 -6 -15 -11
-5 0 -4 -8 -5 -6 -14 -11
-9 0 -3 -8 -4 -6 -14 -10
-13 1 -2 -7 -3 -5 -13 -9
-13 1 -2 -7 -3 -5 -13 -9
-13 0 -2 -7 -4 -6 -13 -8
-13 -2 -2 -7 -5 -6 -12 -8
-13 -3 -2 -7 -6 -7 -12 -7
-14 -4 0 -8 -7 -8 -11 -6
-12 -4 0 -8 -7 -8 -11 -7
-10 -4 -2 -8 -7 -8 -12 -8
-8 -4 -2 -8 -7 -8 -12 -9
-6 -4 -3 -8 -7 -8 -13 -10
-3 -3 -4 -9 -8 -8 -14 -11
-5 -3 -4 -9 -8 -8 -14 -11
-7 -3 -3 -9 -8 -8 -14 -10
-9 -3 -3 -9 -8 -8 -14 -9
-11 -3 -2 -9 -8 -8 -14 -8
-14 -3 0 -9 -8 -8 -13 -7
-14 -3 0 -9 -8 -8 -13 -7
-13 -3 0 -9 -8 -9 -13 -7
-12 -3 0 -9 -8 -9 -13 -7
-11 -3 0 -9 -8 -10 -13 -7
-10 -2 -2 -10 -9 -11 -13 -8
-10 -2 -2 -10 -9 -11 -13 -8
-10 -2 -2 -10 -9 -11 -13 -9
-9 -2 -2 -11 -10 -11 -13 -9
-9 -2 -2 -11 -10 -11 -13 -10
-8 -3 -2 -12 -11 -12 -14 -11
-9 -3 -2 -12 -11 -12 -14 -11
-10 -3 -2 -11 -11 -12 -14 -10
-11 -3 0 -11 -10 -11 -14 -10
-12 -3 0 -10 -10 -11 -14 -9
-14 -2 1 -9 -9 -10 -13 -8
-13 -2 1 -9 -9 -10 -13 -8
-12 -2 1 -9 -9 -10 -13 -8
-11 -2 1 -10 -10 -10 -13 -8
-10 -2 1 -10 -10 -10 -13 -8
-9 0 2 -11 -11 -11 -14 -9
-8 1 2 -11 -11 -11 -14 -9
-6 2 2 -10 -10 -11 -14 -9
-5 4 3 -10 -10 -11 -14 -9
-3 5 3 -9 -9 -11 -14 -9
0 7 4 -8 -8 -10 -13 -8
-2 7 5 -8 -7 -9 -12 -8
-3 8 6 -7 -6 -8 -11 -7
-4 8 7 -6 -4 -7 -9 -6
-5 9 8 -5 -3 -6 -8 -5
-7 10 10 -4 0 -4 -6 -4
-7 11 10 -4 0 -4 -6 -4
-6 12 10 -3 0 -4 -6 -4
-5 13 10 -2 1 -4 -6 -3
-4 14 10 0 1 -4 -6 -3
-3 15 11 1 2 -3 -5 -2
-3 15 11 1 2 -3 -5 -2
-2 16 11 1 2 -3 -5 0
-2 16 10 1 2 -3 -4 0
0 17 10 1 2 -3 -4 1
1 18 9 0 1 -3 -3 2
3 18 7 0 1 -3 -3 2
5 18 4 -2 0 -3 -3 2
8 18 2 -2 0 -3 -3 3
10 18 -2 -3 -2 -3 -3 3
13 18 -5 -4 -3 -3 -4 4
10 17 -4 -4 -3 -3 -4 4
6 15 -3 -3 -2 -3 -4 4
2 14 0 -3 0 -3 -4 4
-3 12 1 -2 1 -3 -4 4
-7 10 3 0 2 -3 -3 3
-6 9 3 -3 0 -4 -4 2
-5 8 2 -5 -3 -6 -5 0
-4 6 2 -7 -5 -8 -7 -2
-3 5 1 -9 -7 -10 -8 -4
-2 3 0 -11 -10 -12 -10 -6
-3 2 0 -11 -10 -13 -11 -6
-4 1 0 -12 -11 -14 -12 -7
-6 0 -2 -13 -12 -15 -13 -7
-7 -2 -2 -14 -13 -16 -14 -8
-9 -3 -3 -15 -14 -18 -16 -9
-10 -3 -3 -15 -14 -18 -16 -9
-11 -4 -3 -15 -14 -17 -16 -9
-12 -4 -2 -15 -13 -17 -16 -10
-13 -5 -2 -15 -13 -16 -16 -10
-14 -6 0 -14 -12 -15 -16 -11
-14 -6 0 -14 -12 -16 -16 -11
-14 -7 0 -14 -12 -17 -16 -11
-14 -7 0 -14 -13 -18 -16 -11
-14 -8 0 -14 -13 -19 -16 -11
-15 -9 1 -15 -14 -20 -17 -11
-15 -9 1 -15 -14 -20 -17 -11
-14 -9 1 -15 -14 -20 -17 -11
-14 -9 1 -15 -15 -20 -18 -11
-13 -9 1 -15 -15 -20 -18 -11
-12 -9 0 -16 -16 -21 -19 -12
-12 -9 0 -16 -16 -21 -19 -12
-13 -9 0 -16 -16 -21 -19 -12
-14 -9 1 -15 -15 -20 -19 -12
-15 -9 1 -15 -15 -20 -19 -12
-16 -8 2 -14 -14 -19 -18 -11
-16 -8 2 -14 -14 -19 -18 -11
-15 -8 3 -14 -14 -19 -19 -12
-15 -9 3 -14 -14 -19 -20 -12
-14 -9 4 -14 -14 -19 -21 -13
-13 -10 5 -14 -15 -20 -22 -14
-15 -13 15 -6 -7 -20 -27 -19
-18 -16 25 4 3 -19 -32 -25
-21 -19 35 12 12 -19 -37 -30
-24 -22 46 21 21 -18 -43 -36
-27 -26 57 30 30 -17 -48 -43
-22 -22 55 35 35 -9 -40 -37
-17 -17 53 40 40 1 -32 -31
-11 -13 50 46 46 9 -24 -25
-6 -8 48 51 51 18 -16 -19
1 -3 45 56 56 27 -8 -13
24 19 19 61 61 61 32 20
48 42 -8 66 66 95 73 53
71 64 -33 71 72 130 113 87
95 87 -60 76 77 163 154 119
119 109 -87 82 84 198 195 153
121 116 -103 65 66 201 207 165
125 123 -119 48 48 205 220 178
127 131 -136 29 30 209 232 190
130 138 -151 12 12 213 244 201
132 145 -168 -6 -6 216 257 214
114 126 -169 -35 -35 167 218 186
95 104 -169 -64 -64 115 177 157
75 84 -168 -94 -93 64 137 128
56 62 -168 -122 -121 13 96 99
37 42 -168 -151 -150 -38 56 70
25 29 -155 -150 -149 -52 34 51
13 17 -143 -147 -146 -65 13 32
1 6 -131 -144 -143 -78 -8 14
-12 -7 -118 -141 -140 -92 -29 -5
-23 -18 -106 -139 -138 -105 -50 -23
-23 -20 -94 -128 -127 -101 -51 -25
-22 -21 -82 -117 -116 -95 -50 -26
-20 -22 -71 -106 -105 -89 -49 -27
-19 -23 -60 -96 -95 -82 -48 -28
-18 -24 -49 -86 -85 -76 -48 -29
-18 -25 -40 -76 -75 -70 -46 -30
-20 -26 -32 -67 -66 -64 -44 -30
-21 -27 -24 -58 -57 -58 -43 -29
-23 -28 -16 -49 -48 -52 -40 -29
-24 -29 -8 -39 -39 -47 -39 -29
-25 -29 -7 -36 -36 -45 -37 -27
-24 -27 -7 -34 -34 -43 -36 -26
-23 -25 -7 -31 -31 -40 -34 -25
-22 -23 -7 -29 -29 -38 -33 -24
-21 -22 -7 -27 -27 -37 -32 -23
-20 -21 -8 -25 -25 -36 -31 -22
-19 -21 -9 -24 -24 -35 -31 -23
-18 -21 -10 -23 -22 -34 -32 -23
-17 -21 -11 -22 -21 -33 -32 -24
-17 -21 -12 -21 -20 -33 -32 -24
-16 -20 -13 -20 -19 -32 -33 -25
-16 -19 -13 -20 -19 -32 -33 -25
-15 -19 -13 -20 -19 -31 -32 -24
-15 -18 -13 -20 -19 -31 -32 -24
-15 -18 -13 -20 -19 -31 -32 -24
-15 -17 -14 -19 -18 -30 -31 -23
-16 -18 -14 -18 -17 -30 -30 -22
-17 -19 -14 -17 -16 -29 -30 -22
-18 -20 -14 -16 -15 -29 -29 -21
-19 -20 -14 -15 -14 -29 -29 -21
-20 -21 -13 -14 -13 -28 -28 -20
-19 -21 -13 -14 -13 -27 -27 -20
-19 -20 -13 -14 -13 -27 -27 -19
-18 -20 -13 -14 -13 -26 -26 -19
-18 -20 -13 -14 -13 -26 -26 -19
-17 -19 -14 -14 -13 -25 -25 -18
-16 -19 -14 -14 -13 -25 -25 -18
-15 -19 -15 -13 -12 -25 -26 -19
-14 -19 -15 -13 -12 -25 -26 -19
-13 -19 -15 -13 -12 -25 -26 -19
-12 -18 -16 -12 -11 -25 -27 -20
-12 -18 -16 -12 -11 -24 -26 -19
-13 -18 -16 -12 -11 -23 -25 -19
-13 -18 -16 -12 -11 -22 -24 -18
-13 -18 -16 -12 -11 -22 -24 -18
-15 -17 -17 -10 -10 -21 -23 -17
-17 -17 -16 -8 -8 -20 -23 -16
-19 -17 -15 -6 -6 -19 -23 -16
-21 -17 -14 -4 -4 -18 -23 -15
-22 -17 -13 -2 -2 -17 -23 -15
-21 -17 -13 -2 0 -16 -22 -14
-18 -17 -14 -3 -2 -17 -22 -15
-15 -17 -16 -4 -3 -17 -22 -16
-12 -17 -17 -5 -4 -18 -22 -17
-10 -17 -18 -6 -5 -18 -22 -17
-9 -17 -19 -6 -5 -19 -22 -18
-10 -17 -18 -4 -3 -19 -21 -18
-11 -17 -18 -2 0 -18 -21 -17
-12 -17 -17 1 2 -18 -20 -17
-13 -17 -17 2 3 -18 -20 -17
-14 -18 -16 3 4 -16 -19 -16
-14 -18 -16 3 4 -15 -18 -15
-13 -17 -16 3 5 -13 -18 -15
-13 -17 -16 3 5 -12 -17 -14
-13 -17 -16 3 5 -11 -17 -14
-11 -16 -16 5 7 -10 -16 -13
-10 -16 -16 6 8 -10 -16 -13
-9 -16 -16 8 9 -10 -16 -13
-8 -16 -16 9 10 -10 -16 -13
-7 -16 -16 10 11 -10 -16 -13
-7 -16 -17 12 13 -8 -16 -14
-8 -16 -16 14 15 -6 -15 -13
-10 -16 -15 15 16 -4 -14 -12
-11 -16 -14 17 18 -2 -13 -11
-12 -16 -13 18 19 0 -12 -11
-10 -15 -12 19 20 1 -11 -10
-6 -15 -13 20 21 1 -11 -10
-2 -14 -14 21 22 1 -11 -11
2 -14 -15 22 23 1 -11 -11
6 -14 -16 23 24 1 -11 -11
7 -13 -17 25 26 4 -10 -11
7 -12 -16 27 28 7 -8 -10
7 -12 -15 29 30 9 -7 -8
7 -11 -14 31 32 12 -5 -7
7 -11 -14 33 33 14 -4 -6
8 -10 -13 36 36 16 -2 -5
7 -10 -13 38 38 18 0 -4
6 -10 -12 40 42 19 2 -3
5 -10 -12 43 44 21 3 -2
5 -10 -12 45 46 22 4 -2
5 -9 -11 46 47 23 5 1
7 -8 -12 47 48 24 6 2
9 -7 -12 48 49 25 7 3
11 -6 -13 49 50 26 8 4
13 -5 -13 49 50 27 9 5
16 -4 -14 50 51 28 10 6
18 -4 -15 50 51 28 10 6
20 -4 -16 51 51 29 10 6
22 -4 -17 51 51 29 10 6
24 -4 -18 51 51 29 10 6
25 -3 -19 52 52 30 11 7
25 -3 -19 52 52 31 12 8
25 -3 -20 52 52 32 13 9
25 -3 -20 52 52 33 14 10
25 -3 -20 52 52 33 15 11
25 -2 -21 51 51 34 16 12
25 -2 -21 51 51 34 16 12
25 0 -21 50 51 34 17 13
25 0 -21 50 51 34 17 13
25 0 -21 50 51 34 17 13
24 1 -22 48 49 33 18 14
24 2 -23 47 47 32 18 14
24 2 -24 46 46 31 19 15
24 3 -25 45 44 30 19 15
24 3 -25 44 43 29 19 15
24 4 -26 42 40 28 20 16
24 4 -26 39 39 27 19 15
24 4 -26 37 38 27 18 14
24 4 -26 35 37 26 17 13
24 4 -26 34 36 26 16 13
24 5 -26 32 34 24 15 12
25 5 -26 31 32 23 14 12
25 5 -27 29 31 22 14 11
26 5 -27 28 29 21 13 11
26 5 -27 27 28 20 13 11
25 5 -27 26 27 19 12 10
23 5 -26 26 27 19 12 10
21 5 -25 27 27 19 13 11
18 5 -24 27 27 19 13 11
16 5 -23 27 27 19 13 11
14 5 -22 27 27 19 13 11
12 5 -22 25 25 18 12 10
11 5 -22 23 23 17 11 9
9 5 -22 21 21 16 10 8
8 5 -22 19 19 15 9 7
6 6 -23 18 18 14 8 6
4 5 -23 18 18 13 7 6
3 5 -22 17 18 12 7 5
1 4 -22 17 18 11 6 5
0 4 -22 17 18 11 6 5
-2 3 -21 15 17 10 5 4
-2 3 -21 14 16 10 5 4
-3 3 -21 12 15 9 4 4
-3 3 -21 11 14 9 4 4
-3 3 -21 10 13 9 4 4
-4 2 -21 9 12 8 3 3
-5 1 -21 9 11 7 2 3
-5 1 -21 9 10 7 1 2
-6 0 -21 9 9 6 0 2
-6 0 -21 9 9 6 0 2
-7 -2 -21 7 8 5 -2 1
-7 -2 -21 6 7 4 -2 1
-8 -2 -22 5 6 3 -2 1
-8 -2 -22 4 5 2 -2 1
-8 -2 -22 3 4 2 -2 1
-8 -3 -23 2 3 1 -2 0
-7 -3 -23 2 3 1 -3 -2
-5 -3 -23 2 3 1 -4 -3
-4 -3 -23 2 3 1 -5 -4
-3 -3 -23 2 3 1 -5 -4
-2 -4 -24 2 2 0 -6 -5
-2 -4 -24 1 1 -2 -6 -5
-2 -3 -25 1 1 -2 -6 -5
-2 -3 -25 0 0 -3 -6 -5
-2 -3 -25 0 0 -3 -6 -5
-5 -2 -25 0 0 -3 -6 -5
-9 -2 -24 1 2 -2 -5 -4
-12 -2 -22 3 4 1 -4 -3
-16 -2 -20 5 5 3 -2 0
-20 -2 -19 6 7 4 0 1
-18 -3 -18 7 8 5 1 2
-14 -2 -18 6 7 4 0 1
-11 -2 -19 6 7 4 0 0
-7 0 -19 5 6 3 -2 -2
-3 0 -19 5 6 3 -2 -2
-2 1 -20 4 5 2 -3 -3
-3 1 -20 4 5 2 -4 -3
-4 1 -21 4 5 2 -4 -3
-5 1 -21 4 5 2 -5 -3
-5 1 -21 4 5 2 -5 -3
-6 0 -22 4 5 2 -6 -4
-6 0 -21 4 5 2 -6 -4
-6 1 -21 4 5 2 -5 -3
-6 1 -20 4 5 2 -5 -3
-6 1 -20 4 5 2 -5 -3
-6 2 -19 4 5 3 -4 -2
-7 2 -19 4 5 3 -4 -2
-7 1 -19 4 6 3 -4 -2
-8 1 -19 4 6 3 -4 -2
-8 1 -19 4 6 3 -4 -2
-9 0 -19 5 7 4 -4 -2
-9 0 -19 5 7 4 -4 0
-9 0 -20 5 7 4 -4 0
-9 0 -20 5 7 4 -4 1
-9 0 -20 5 7 4 -4 1
-8 1 -21 6 7 5 -3 2
-8 1 -21 6 7 5 -3 2
-8 1 -20 6 7 5 -3 1
-8 1 -20 6 7 5 -3 1
-8 1 -20 6 7 5 -3 1
-7 1 -19 6 8 6 -2 0
-6 1 -19 6 8 6 -2 0
-5 1 -20 6 7 5 -2 0
-3 1 -20 6 7 5 -2 0
-2 1 -20 6 7 5 -2 0
0 1 -21 5 6 4 -2 0
-3 1 -20 5 6 4 -2 0
-4 0 -19 5 6 4 -2 0
-5 0 -18 5 6 4 -2 0
-6 0 -18 5 6 4 -2 0
-7 -2 -17 5 6 4 -2 0
-6 0 -17 4 6 4 -2 0
-5 0 -17 4 5 4 -2 1
-4 1 -17 3 5 4 -2 1
-3 1 -17 3 5 4 -2 1
-2 2 -18 2 4 4 0 2
-3 1 -18 2 4 4 -2 2
-4 1 -18 2 4 4 -2 1
-5 0 -18 2 4 4 -3 1
-6 0 -18 2 4 4 -3 1
-7 -2 -17 2 3 3 -4 0
-7 -2 -17 2 3 2 -4 0
-8 -2 -16 2 3 2 -4 0
-8 -2 -16 2 3 1 -4 0
-8 -2 -16 2 3 1 -4 0
-8 -2 -15 1 2 0 -5 -2
-7 -2 -15 0 1 -2 -6 -3
-6 -2 -14 -2 0 -3 -7 -4
-4 -2 -14 -3 -2 -4 -8 -5
-3 -2 -14 -3 -2 -5 -8 -6
-2 -3 -13 -4 -3 -6 -9 -7
-2 -3 -12 -5 -3 -6 -9 -6
-2 -3 -11 -5 -4 -6 -9 -6
-2 -3 -10 -6 -4 -6 -9 -5
-2 -3 -9 -6 -4 -6 -9 -5
-2 -3 -8 -7 -5 -7 -9 -4
-4 -4 -7 -7 -5 -7 -9 -4
-5 -4 -6 -7 -5 -7 -9 -4
-6 -5 -5 -7 -5 -7 -9 -4
-7 -5 -4 -7 -5 -7 -9 -4
-8 -6 -3 -6 -4 -6 -8 -5
-9 -6 -2 -6 -4 -6 -8 -5
-10 -6 -2 -6 -4 -6 -7 -4
-11 -6 0 -6 -4 -6 -7 -4
-12 -6 0 -6 -4 -6 -7 -4
-13 -5 1 -5 -5 -6 -6 -3
-12 -5 1 -6 -5 -6 -7 -4
-11 -5 0 -7 -5 -7 -7 -5
-10 -5 0 -8 -5 -7 -8 -6
-10 -5 0 -8 -5 -7 -8 -6
-9 -5 -2 -9 -6 -8 -9 -7
-8 -5 -2 -9 -7 -9 -10 -7
-7 -5 -2 -10 -8 -10 -11 -7
-6 -5 -2 -10 -9 -11 -12 -7
-5 -5 -2 -10 -9 -12 -12 -7
-4 -5 -3 -11 -10 -13 -13 -8
-5 -5 -3 -11 -10 -13 -13 -8
-6 -5 -3 -11 -10 -13 -13 -8
-7 -5 -3 -11 -10 -13 -13 -8
-7 -5 -3 -11 -10 -13 -13 -8
-8 -6 -2 -11 -9 -12 -13 -8
-9 -6 0 -11 -9 -12 -13 -7
-9 -6 0 -10 -9 -11 -12 -7
-10 -6 1 -10 -9 -11 -12 -6
-10 -6 1 -10 -9 -11 -12 -6
-11 -5 2 -9 -9 -10 -11 -5
-10 -5 2 -9 -9 -10 -11 -6
-9 -5 1 -10 -9 -10 -11 -7
-8 -5 1 -10 -9 -10 -11 -8
-7 -5 1 -10 -9 -10 -11 -8
-6 -6 0 -11 -10 -11 -12 -9
-6 -6 0 -11 -10 -11 -12 -9
-5 -5 1 -11 -10 -11 -12 -9
-5 -5 1 -11 -10 -11 -12 -9
-5 -5 1 -11 -10 -11 -12 -9
-4 -4 2 -11 -9 -11 -11 -10
-6 -3 4 -10 -8 -10 -10 -9
-7 -3 5 -9 -7 -9 -10 -9
-8 -2 6 -8 -6 -8 -9 -8
-9 -2 7 -7 -5 -7 -9 -8
-9 0 8 -6 -4 -6 -8 -7
-8 1 9 -6 -4 -6 -8 -6
-6 2 9 -5 -3 -6 -7 -5
-4 3 10 -5 -3 -6 -7 -4
-3 4 10 -5 -3 -6 -7 -4
-2 5 11 -4 -2 -5 -6 -3
0 6 12 -3 0 -5 -6 -3
0 6 12 -2 0 -4 -7 -3
1 7 13 0 1 -4 -7 -3
1 7 13 0 1 -4 -7 -3
2 8 14 1 2 -3 -7 -3
2 8 14 2 3 -2 -6 -2
1 9 14 3 4 0 -4 1
1 9 14 4 5 1 -2 3
1 9 14 4 5 1 0 4
0 10 14 5 6 2 1 5
1 11 13 5 6 2 1 5
2 11 13 5 6 2 1 5
3 12 12 5 6 2 1 5
3 12 12 5 6 2 1 5
4 13 10 4 5 2 1 5
5 13 9 4 5 2 1 5
5 13 8 4 5 2 2 5
6 13 6 4 5 2 2 5
6 13 5 4 5 2 2 5
7 12 4 3 4 3 3 6
6 10 5 3 4 3 3 6
5 9 5 3 4 3 3 6
5 7 6 3 4 3 3 6
4 5 6 3 4 3 3 6
3 4 7 1 3 1 1 4
2 3 7 0 2 0 0 3
1 2 6 -3 0 -2 -2 2
1 1 6 -4 -2 -4 -4 0
0 0 6 -6 -4 -5 -5 -2
-2 -2 5 -7 -5 -7 -6 -3
-3 -3 5 -8 -6 -8 -7 -4
-4 -4 5 -9 -7 -9 -8 -5
-4 -4 5 -9 -7 -11 -9 -5
-5 -5 5 -10 -8 -12 -10 -6
-7 -6 4 -11 -9 -13 -11 -7
-9 -7 4 -11 -9 -13 -11 -7
-11 -8 4 -12 -10 -13 -12 -8
-13 -8 4 -12 -10 -13 -12 -8
-15 -9 4 -12 -10 -13 -12 -8
-16 -10 4 -13 -11 -14 -13 -9
-16 -10 4 -13 -11 -14 -13 -9
-15 -10 4 -13 -11 -14 -13 -9
-15 -10 4 -13 -11 -14 -13 -9
-15 -10 4 -13 -11 -14 -13 -9
-13 -11 4 -12 -11 -15 -13 -10
-10 -11 4 -13 -12 -16 -13 -11
-7 -11 3 -14 -13 -16 -14 -11
-5 -11 3 -15 -14 -17 -14 -12
-2 -11 3 -16 -15 -17 -14 -12
-2 -11 2 -17 -16 -18 -15 -13
-4 -11 2 -16 -15 -17 -15 -13
-6 -11 3 -16 -14 -17 -15 -12
-9 -11 3 -15 -14 -16 -15 -12
-11 -11 3 -15 -13 -16 -15 -12
-12 -11 4 -14 -12 -15 -14 -11
-13 -12 6 -13 -11 -15 -14 -11
-13 -13 7 -12 -10 -15 -14 -12
-14 -13 8 -12 -9 -15 -14 -12
-14 -14 9 -11 -8 -15 -14 -12
-16 -17 17 -4 -2 -15 -18 -16
-19 -20 27 5 8 -14 -22 -21
-22 -23 38 14 16 -13 -27 -26
-24 -26 49 22 24 -13 -32 -31
-27 -29 59 31 32 -12 -36 -36
-23 -26 61 37 39 -4 -31 -33
-16 -20 57 44 45 8 -21 -24
-8 -13 53 50 51 18 -10 -16
1 -7 49 55 57 29 1 -8
8 1 45 61 63 39 11 1
27 18 24 66 67 66 42 25
52 40 -2 70 72 99 80 57
76 64 -28 74 76 132 118 89
101 87 -55 79 80 164 157 120
125 109 -81 84 85 197 195 151
133 119 -102 71 72 207 213 168
135 126 -120 51 52 206 221 177
136 131 -140 30 31 206 229 186
138 136 -158 11 12 205 236 195
139 142 -177 -10 -9 205 244 204
126 130 -183 -36 -35 170 220 188
105 107 -181 -65 -64 119 180 159
85 86 -180 -95 -92 69 140 130
64 63 -179 -123 -120 19 100 101
44 42 -178 -152 -149 -31 60 72
30 26 -168 -158 -155 -55 34 51
20 13 -153 -154 -151 -66 15 33
11 1 -140 -149 -147 -77 -6 16
1 -13 -126 -145 -142 -88 -25 -3
-10 -26 -112 -140 -138 -99 -46 -20
-13 -30 -99 -130 -128 -98 -51 -26
-14 -30 -86 -116 -114 -91 -49 -26
-15 -30 -72 -103 -102 -82 -47 -27
-16 -30 -59 -90 -89 -74 -44 -27
-17 -30 -46 -77 -75 -67 -41 -27
-18 -31 -36 -67 -66 -61 -39 -28
-18 -31 -29 -60 -58 -56 -37 -27
-18 -30 -22 -52 -51 -51 -35 -27
-18 -30 -15 -45 -43 -46 -33 -26
-18 -30 -9 -36 -34 -40 -31 -26
-18 -28 -5 -32 -30 -37 -30 -25
-18 -27 -3 -30 -28 -35 -28 -23
-18 -25 -2 -29 -27 -34 -27 -22
-18 -24 1 -27 -25 -32 -26 -21
-18 -22 3 -25 -23 -30 -25 -20
-18 -21 4 -24 -22 -29 -24 -19
-18 -21 4 -22 -20 -29 -24 -19
-18 -21 5 -21 -19 -28 -24 -20
-18 -21 5 -19 -18 -28 -24 -20
-18 -21 5 -18 -17 -28 -24 -20
-17 -21 6 -17 -16 -27 -25 -21
-17 -21 7 -17 -16 -27 -25 -21
-18 -21 7 -17 -16 -26 -25 -21
-18 -21 8 -17 -16 -26 -25 -21
-18 -21 8 -17 -16 -26 -25 -21
-19 -21 9 -16 -15 -25 -24 -20
-18 -21 9 -16 -15 -25 -24 -20
-17 -21 9 -16 -14 -25 -24 -20
-16 -21 9 -16 -14 -25 -24 -20
-15 -21 9 -16 -14 -25 -24 -20
-14 -20 10 -15 -13 -26 -25 -21
-14 -20 10 -15 -13 -26 -25 -21
-15 -20 10 -14 -13 -26 -24 -21
-15 -20 10 -13 -13 -26 -23 -21
-15 -20 10 -13 -13 -26 -23 -21
-16 -20 11 -12 -12 -25 -22 -20
-16 -20 11 -12 -12 -25 -22 -20
-16 -20 11 -11 -11 -24 -22 -20
-16 -20 11 -11 -10 -23 -22 -20
-16 -20 11 -11 -10 -23 -22 -20
-17 -20 12 -10 -9 -22 -23 -20
-15 -20 12 -10 -9 -22 -23 -20
-14 -20 12 -10 -9 -22 -23 -20
-12 -20 12 -10 -9 -22 -23 -20
-11 -20 12 -10 -9 -22 -23 -20
-10 -19 12 -11 -10 -22 -23 -20
-10 -19 12 -11 -9 -22 -23 -20
-10 -19 12 -10 -8 -22 -23 -20
-10 -19 12 -9 -8 -22 -23 -20
-10 -19 12 -9 -7 -22 -23 -20
-10 -19 12 -8 -6 -21 -23 -20
-10 -19 12 -8 -6 -20 -22 -20
-10 -18 13 -7 -5 -19 -21 -19
-10 -18 14 -6 -4 -19 -21 -18
-10 -18 14 -6 -4 -18 -20 -18
-11 -17 15 -5 -3 -17 -19 -17
-11 -17 15 -3 -2 -16 -19 -17
-11 -17 16 -2 1 -15 -19 -17
-11 -17 16 1 2 -14 -19 -17
-11 -17 16 2 3 -13 -19 -17
-12 -17 17 3 4 -12 -19 -18
-12 -17 17 3 4 -12 -18 -18
-12 -16 17 3 4 -12 -17 -17
-12 -16 17 3 4 -12 -17 -17
-12 -16 17 3 4 -12 -16 -17
-13 -15 17 4 6 -11 -15 -16
-12 -15 17 6 7 -10 -15 -16
-10 -15 17 7 9 -9 -15 -15
-9 -15 17 9 10 -8 -15 -15
-8 -15 17 10 12 -7 -15 -15
-7 -15 17 11 13 -6 -14 -14
-7 -15 17 13 15 -5 -13 -13
-6 -14 18 14 16 -3 -11 -12
-5 -13 19 16 18 -2 -10 -11
-5 -13 19 17 19 0 -9 -10
-4 -12 20 18 20 1 -8 -9
-3 -12 20 19 21 1 -8 -9
-2 -13 20 21 22 2 -7 -10
-2 -13 20 22 23 3 -7 -10
0 -13 20 23 24 3 -7 -10
1 -14 20 25 26 5 -6 -11
2 -13 20 27 28 7 -5 -10
3 -12 21 29 30 9 -3 -8
3 -11 22 31 32 11 -2 -7
4 -10 22 33 35 13 0 -6
6 -9 23 34 36 14 1 -5
8 -9 23 36 38 16 2 -5
10 -8 22 38 40 17 3 -4
12 -8 21 39 42 19 3 -3
15 -8 21 42 44 20 4 -3
16 -7 20 43 45 21 5 -2
17 -7 20 44 46 22 7 0
18 -6 19 45 47 24 8 2
18 -6 19 45 47 25 10 3
19 -6 19 46 48 26 11 4
20 -5 18 47 49 27 12 5
21 -4 18 48 50 28 13 6
22 -2 18 49 51 30 14 7
22 0 18 50 51 31 14 8
23 1 18 51 52 32 15 9
24 2 17 52 53 33 16 10
25 3 16 52 53 33 16 10
27 5 15 51 52 33 17 10
28 6 15 51 52 33 18 10
29 7 14 51 52 33 18 10
30 8 13 50 51 33 19 11
30 8 13 50 51 33 19 11
29 8 12 49 51 33 19 11
29 8 12 48 51 33 19 11
29 8 12 48 51 33 19 11
28 7 11 47 50 33 19 11
28 8 11 46 49 32 19 11
28 9 11 45 47 31 19 12
28 10 11 44 46 31 19 13
28 11 11 43 45 30 19 13
28 12 11 42 44 29 20 14
27 12 11 40 43 28 20 14
26 11 10 39 42 27 20 14
26 11 10 38 40 27 20 14
25 11 10 37 39 26 20 14
24 10 9 36 37 25 19 14
24 10 9 34 36 24 18 14
24 11 9 32 34 22 17 13
24 11 9 31 32 21 17 12
24 11 9 29 30 20 16 12
23 12 10 28 29 19 15 11
20 11 10 28 29 19 15 11
18 10 11 27 29 19 14 10
15 10 12 27 29 19 13 9
13 9 12 27 29 19 13 9
11 8 13 26 29 18 12 8
11 8 13 25 27 17 12 7
10 8 13 23 26 16 11 6
10 8 13 22 24 15 10 6
10 8 13 21 23 14 10 5
8 8 14 20 22 13 9 4
6 7 14 20 22 13 7 4
4 6 15 19 21 12 6 3
2 5 15 19 20 12 4 3
0 4 15 19 20 12 3 3
-2 3 16 18 19 11 2 2
-2 3 16 17 17 10 2 1
-3 3 16 15 15 8 1 0
-3 3 16 14 14 7 1 0
-3 3 16 13 12 6 1 -2
-4 2 15 11 11 5 0 -3
-3 2 15 10 9 3 -2 -5
0 1 14 8 8 2 -3 -6
1 0 13 6 6 0 -4 -8
2 0 13 4 5 -2 -5 -9
2 -2 12 3 4 -3 -6 -10
-2 -2 12 3 4 -3 -6 -9
-4 -2 13 3 5 -2 -5 -8
-7 -2 13 3 5 -2 -5 -8
-9 -2 13 3 5 -2 -5 -7
-11 -3 14 4 6 0 -4 -6
-11 -3 14 4 5 0 -4 -6
-11 -3 13 3 4 -2 -5 -6
-11 -3 13 2 4 -2 -5 -6
-11 -3 13 2 3 -2 -5 -6
-10 -4 12 1 2 -3 -6 -7
-9 -4 12 1 2 -3 -6 -7
-8 -4 11 1 2 -4 -6 -7
-8 -4 11 1 2 -4 -6 -7
-7 -4 11 1 2 -4 -6 -7
-6 -4 10 0 1 -5 -6 -8
-8 -4 10 0 1 -4 -6 -8
-9 -3 11 1 2 -3 -6 -7
-10 -2 12 1 3 -3 -6 -7
-12 -2 12 1 3 -2 -6 -7
-13 0 13 2 4 0 -5 -6
-12 0 13 2 4 0 -5 -6
-11 0 12 1 3 0 -5 -7
-10 0 12 1 3 0 -5 -7
-9 0 12 1 3 0 -5 -7
-8 -2 11 0 2 -2 -5 -8
-10 -2 11 0 3 0 -5 -7
-12 -2 12 1 4 1 -4 -6
-13 -2 13 2 5 1 -3 -6
-15 -2 13 2 6 2 -3 -5
-14 -2 14 3 7 3 -2 -4
-11 -2 13 2 5 2 -3 -4
-7 -2 11 1 4 0 -5 -5
-3 -2 10 1 3 -2 -6 -6
2 -2 9 0 1 -3 -7 -6
3 -2 8 -2 0 -4 -8 -7
-2 -2 10 1 2 -2 -6 -6
-6 -2 11 3 4 0 -5 -5
-9 -2 12 4 6 1 -4 -5
-13 -2 14 6 8 3 -2 -4
-15 -2 15 7 9 4 0 -3
-15 -2 15 7 9 4 0 -3
-15 -2 15 7 8 4 0 -3
-15 -2 15 7 8 4 0 -3
-15 -2 15 7 8 4 0 -3
-14 0 14 6 7 4 0 -3
-12 0 14 6 7 4 0 -4
-10 0 13 5 6 3 -2 -5
-8 0 13 4 6 3 -3 -5
-6 0 13 4 6 3 -3 -6
-5 1 12 3 5 2 -4 -7
-6 1 12 3 5 2 -4 -6
-8 1 12 3 5 3 -3 -5
-9 1 12 3 5 3 -3 -5
-10 1 12 3 5 3 -3 -4
-10 1 13 4 6 4 -2 -3
-8 1 12 4 5 3 -2 -4
-5 1 11 3 4 2 -3 -5
-3 1 11 2 4 2 -4 -5
0 1 10 2 3 1 -4 -6
1 0 9 1 2 0 -5 -7
-3 0 10 1 2 0 -5 -7
-6 0 11 2 3 1 -4 -6
-9 0 11 2 3 1 -4 -5
-12 0 12 2 3 1 -4 -5
-14 0 13 3 4 2 -3 -4
-14 0 13 3 4 2 -3 -4
-13 0 13 3 4 2 -3 -4
-13 0 13 3 4 2 -3 -4
-13 0 13 3 4 2 -3 -4
-12 -2 13 3 4 3 -3 -3
-12 -2 13 3 4 3 -3 -3
-12 -2 13 3 4 3 -3 -3
-12 -2 13 3 4 3 -3 -3
-12 -2 13 3 4 3 -3 -3
-11 -2 14 1 3 2 -3 -4
-8 -2 12 -2 1 0 -5 -6
-4 -2 10 -4 -2 -3 -7 -7
0 -2 9 -6 -4 -5 -8 -8
3 -2 7 -8 -6 -7 -10 -10
3 -3 6 -9 -7 -8 -11 -11
-2 -3 8 -8 -6 -7 -10 -10
-6 -3 9 -7 -4 -6 -9 -8
-10 -3 10 -6 -3 -5 -8 -7
-14 -3 12 -5 -2 -4 -7 -6
-17 -4 13 -4 0 -3 -6 -5
-15 -4 12 -5 -2 -4 -7 -6
-13 -4 11 -6 -4 -5 -8 -7
-11 -4 11 -6 -5 -5 -9 -8
-9 -4 10 -7 -6 -6 -10 -9
-8 -5 9 -8 -7 -7 -11 -10
-8 -5 9 -8 -7 -7 -11 -10
-8 -5 9 -8 -7 -7 -11 -9
-9 -4 9 -8 -7 -7 -11 -8
-9 -4 9 -8 -7 -7 -11 -8
-10 -3 10 -9 -7 -6 -10 -7
-12 -3 10 -9 -7 -6 -10 -7
-13 -4 10 -9 -7 -7 -10 -7
-15 -5 10 -9 -7 -8 -10 -8
-17 -5 10 -9 -7 -8 -10 -8
-17 -6 9 -9 -7 -9 -11 -9
-15 -6 9 -9 -7 -9 -11 -9
-13 -6 9 -9 -8 -9 -11 -9
-10 -6 9 -10 -9 -10 -12 -9
-8 -6 9 -10 -9 -10 -12 -9
-6 -7 8 -11 -10 -11 -13 -10
-7 -7 8 -11 -10 -11 -13 -10
-8 -7 8 -11 -10 -11 -13 -10
-10 -7 8 -11 -10 -11 -13 -10
-11 -7 8 -11 -10 -11 -13 -10
-12 -6 8 -11 -9 -10 -12 -10
-12 -6 8 -11 -9 -10 -12 -10
-12 -6 8 -12 -9 -10 -12 -10
-12 -7 8 -13 -10 -10 -12 -10
-12 -7 8 -13 -10 -10 -12 -10
-13 -8 8 -14 -11 -10 -13 -9
-13 -8 8 -14 -11 -10 -13 -9
-13 -8 8 -14 -11 -10 -13 -9
-14 -8 8 -13 -11 -10 -13 -9
-14 -8 8 -13 -11 -10 -13 -9
-15 -9 8 -12 -10 -10 -13 -9
-14 -9 8 -12 -10 -10 -13 -9
-13 -9 8 -12 -10 -10 -13 -9
-11 -8 8 -12 -10 -10 -13 -9
-10 -8 8 -12 -10 -10 -13 -9
-9 -7 8 -13 -11 -10 -13 -10
-11 -7 8 -13 -11 -10 -13 -10
-13 -7 8 -12 -10 -10 -13 -10
-15 -7 9 -11 -9 -10 -13 -10
-17 -7 9 -11 -9 -10 -13 -10
-17 -7 10 -10 -8 -9 -12 -9
-15 -6 10 -10 -8 -9 -12 -9
-12 -5 10 -10 -8 -9 -12 -9
-9 -3 11 -10 -8 -8 -12 -9
-7 -2 11 -10 -8 -8 -12 -9
-5 0 12 -11 -8 -7 -12 -8
-6 0 12 -10 -8 -7 -12 -8
-6 0 12 -10 -8 -7 -11 -7
-7 0 13 -9 -7 -7 -10 -6
-8 0 13 -8 -7 -7 -10 -6
-9 0 14 -7 -6 -6 -9 -5
-9 1 16 -6 -5 -5 -8 -4
-9 2 17 -5 -4 -4 -8 -4
-9 4 18 -4 -2 -2 -7 -3
-9 5 20 -3 0 0 -6 -2
-9 6 21 -2 1 1 -5 0
-6 7 21 0 1 2 -5 0
-4 8 21 0 2 2 -5 0
-2 10 20 1 3 3 -4 -2
1 11 20 2 3 4 -4 -2
2 12 19 3 4 5 -3 -3
0 12 19 3 4 6 -2 0
-4 12 19 3 4 6 0 2
-6 12 19 3 4 7 2 4
-9 12 19 3 4 8 3 6
-11 13 18 4 5 9 4 8
-9 12 16 3 5 8 4 8
-7 11 14 3 5 8 4 7
-5 10 12 2 4 7 3 6
-4 9 10 1 4 6 3 6
-2 8 8 0 3 5 2 5
-2 7 8 -2 1 4 0 4
-2 6 8 -3 0 3 -2 3
-3 4 8 -5 -2 2 -3 2
-3 3 8 -6 -4 1 -5 1
-4 2 9 -7 -5 0 -6 0
-4 1 9 -7 -5 -2 -6 0
-4 0 9 -8 -5 -2 -6 0
-3 -2 8 -9 -5 -3 -7 -2
-3 -3 8 -9 -5 -4 -7 -2
-2 -4 7 -10 -6 -5 -8 -3
-4 -5 6 -12 -8 -7 -10 -5
-6 -6 6 -13 -10 -8 -11 -6
-8 -8 5 -15 -12 -9 -13 -8
-9 -9 4 -17 -13 -11 -15 -10
-11 -10 3 -18 -15 -12 -16 -11
-13 -10 3 -18 -15 -12 -16 -11
-15 -10 4 -17 -15 -12 -16 -10
-17 -10 5 -16 -14 -11 -16 -9
-19 -10 5 -16 -14 -11 -16 -9
-21 -11 6 -15 -13 -10 -15 -8
-19 -11 6 -15 -14 -10 -15 -8
-17 -11 5 -16 -14 -11 -15 -9
-15 -12 4 -17 -15 -12 -16 -10
-13 -12 4 -17 -16 -12 -16 -10
-11 -13 3 -18 -17 -13 -17 -11
-13 -13 3 -18 -17 -13 -17 -11
-14 -13 3 -18 -17 -13 -16 -11
-16 -13 3 -17 -16 -13 -15 -10
-18 -13 3 -17 -16 -13 -15 -10
-19 -13 4 -16 -15 -12 -14 -9
-19 -13 4 -16 -15 -12 -14 -9
-19 -13 4 -16 -15 -12 -14 -9
-18 -13 4 -16 -15 -12 -14 -9
-18 -13 4 -16 -15 -12 -14 -9
-17 -13 4 -15 -14 -11 -15 -9
-18 -14 6 -15 -13 -11 -15 -9
-19 -14 7 -14 -12 -11 -15 -9
-21 -15 9 -13 -11 -11 -15 -10
-22 -16 11 -13 -10 -11 -15 -10
-23 -18 15 -9 -6 -12 -17 -13
-25 -21 25 0 2 -11 -22 -18
-26 -24 35 8 10 -11 -27 -23
-28 -27 45 16 17 -10 -31 -28
-30 -30 55 24 25 -9 -36 -33
-26 -30 59 31 32 -4 -35 -33
-12 -22 53 36 37 8 -24 -24
2 -15 47 42 43 18 -14 -16
16 -8 39 47 48 29 -3 -7
29 0 33 52 53 40 9 2
46 14 20 56 57 59 30 20
65 36 -6 60 61 90 68 52
85 60 -30 63 64 120 105 82
104 84 -55 67 68 150 143 114
123 107 -80 70 71 181 180 146
136 122 -103 65 66 198 205 169
136 128 -123 44 45 195 211 176
136 133 -143 22 24 192 217 184
136 137 -162 1 3 189 223 192
136 142 -183 -21 -19 186 228 200
129 137 -195 -45 -43 165 218 194
108 113 -193 -71 -70 118 179 165
87 90 -191 -99 -97 70 141 138
65 67 -189 -126 -124 23 102 109
44 44 -187 -152 -151 -24 63 80
27 25 -180 -168 -166 -57 33 56
17 13 -164 -160 -158 -65 15 38
7 1 -150 -153 -151 -73 -3 21
-4 -12 -135 -146 -144 -81 -20 5
-13 -24 -119 -139 -137 -90 -38 -13
-20 -32 -105 -130 -128 -93 -50 -24
-21 -32 -92 -117 -115 -86 -47 -24
-22 -32 -78 -105 -103 -77 -45 -23
-23 -32 -64 -93 -92 -69 -41 -22
-24 -32 -51 -80 -79 -61 -39 -22
-25 -31 -39 -70 -69 -55 -37 -21
-25 -31 -33 -62 -62 -51 -36 -21
-24 -31 -27 -55 -54 -47 -35 -21
-23 -31 -21 -47 -47 -41 -33 -21
-23 -31 -14 -39 -39 -37 -32 -21
-22 -32 -10 -34 -34 -34 -31 -20
-23 -30 -7 -32 -31 -32 -29 -19
-23 -28 -5 -30 -29 -30 -27 -17
-24 -26 -3 -28 -27 -28 -25 -16
-25 -24 0 -26 -25 -26 -24 -14
-26 -22 2 -24 -23 -24 -22 -13
-25 -22 2 -24 -23 -24 -23 -14
-24 -22 2 -24 -23 -24 -24 -15
-22 -22 2 -23 -22 -25 -26 -17
-21 -22 2 -23 -22 -25 -27 -18
-20 -22 2 -22 -21 -26 -28 -19
-19 -22 2 -22 -21 -26 -27 -19
-17 -22 2 -22 -21 -26 -27 -18
-16 -22 2 -22 -21 -26 -26 -17
-14 -22 2 -22 -21 -26 -25 -17
-13 -22 3 -22 -20 -25 -24 -16
-14 -22 3 -20 -18 -25 -24 -16
-15 -22 3 -18 -17 -24 -24 -16
-17 -22 4 -16 -15 -23 -24 -16
-18 -22 4 -15 -14 -23 -24 -16
-19 -22 5 -13 -12 -22 -24 -16
-19 -22 5 -14 -13 -22 -24 -16
-19 -21 5 -14 -13 -22 -24 -16
-18 -20 5 -15 -14 -22 -24 -15
-18 -20 5 -16 -15 -22 -24 -15
-17 -19 4 -17 -16 -21 -23 -14
-17 -19 4 -16 -15 -21 -23 -14
-17 -19 4 -16 -15 -21 -23 -14
-17 -20 4 -15 -14 -21 -23 -15
-17 -20 4 -14 -13 -21 -23 -15
-18 -21 5 -13 -12 -20 -24 -16
-18 -21 5 -13 -12 -20 -23 -16
-18 -21 5 -13 -12 -19 -22 -15
-18 -20 6 -13 -12 -18 -21 -14
-18 -20 6 -13 -12 -18 -20 -14
-18 -19 7 -12 -11 -17 -19 -13
-18 -19 7 -11 -10 -17 -19 -13
-18 -19 7 -10 -9 -16 -19 -13
-18 -19 7 -9 -7 -15 -19 -13
-18 -19 7 -8 -6 -15 -19 -13
-18 -19 8 -7 -5 -14 -18 -12
-15 -19 8 -7 -6 -14 -18 -12
-12 -19 7 -7 -6 -14 -18 -12
-10 -18 6 -8 -7 -15 -18 -12
-7 -18 6 -8 -8 -15 -18 -12
-5 -17 5 -9 -9 -16 -19 -13
-7 -17 6 -7 -7 -15 -19 -13
-9 -17 6 -5 -4 -15 -18 -13
-11 -17 7 -3 -2 -14 -17 -12
-13 -17 8 0 1 -13 -17 -12
-15 -16 9 2 3 -12 -16 -11
-14 -16 9 2 3 -12 -16 -11
-14 -16 9 2 3 -11 -15 -11
-13 -15 9 2 3 -10 -14 -10
-12 -15 9 2 3 -10 -14 -10
-11 -14 8 2 3 -9 -13 -9
-9 -14 8 4 4 -8 -13 -9
-7 -14 8 5 6 -8 -13 -9
-5 -15 8 7 7 -7 -13 -9
-3 -15 8 8 9 -6 -13 -9
0 -16 9 10 10 -5 -12 -9
0 -15 9 10 11 -4 -11 -9
0 -14 9 10 12 -3 -10 -8
0 -13 10 10 13 -2 -9 -8
0 -11 10 10 14 0 -7 -7
-2 -10 11 11 15 1 -6 -6
-2 -10 11 14 17 2 -6 -6
-2 -10 11 16 19 2 -6 -5
-2 -10 11 18 20 3 -5 -5
-2 -10 11 21 22 4 -5 -4
0 -10 10 23 24 5 -4 -3
1 -10 10 24 25 6 -3 -2
3 -9 10 25 25 8 -2 0
4 -9 10 26 26 9 0 1
6 -8 10 27 27 11 1 2
7 -7 10 28 28 12 2 3
8 -7 10 30 30 13 3 4
8 -6 10 32 32 15 4 4
9 -6 9 34 34 16 5 5
10 -5 9 36 36 18 6 6
11 -4 8 38 38 19 7 7
13 -3 7 38 38 20 7 7
14 -2 6 38 38 20 8 8
16 0 5 38 39 21 8 8
17 1 4 38 39 22 9 9
19 2 3 39 40 23 10 10
20 2 2 39 42 23 11 10
21 2 2 39 43 23 11 10
22 3 1 40 44 24 12 11
24 3 0 40 45 24 13 11
25 4 -2 42 46 25 14 12
26 4 -2 42 46 26 15 13
28 5 -2 42 46 26 16 15
29 5 -2 43 46 27 17 16
31 6 -2 43 46 28 19 18
32 7 -2 44 46 29 20 19
32 7 -3 43 45 28 20 19
32 8 -4 42 44 28 20 19
32 8 -5 40 43 27 19 19
32 9 -7 39 40 26 19 19
32 10 -8 38 39 25 18 18
31 10 -8 37 38 25 18 18
29 11 -8 36 36 25 18 18
28 11 -8 35 35 24 18 18
26 12 -8 33 33 24 18 18
25 13 -8 32 32 23 18 19
25 13 -8 31 32 22 18 19
25 12 -8 30 31 21 17 19
26 12 -9 29 31 20 17 19
26 11 -9 28 30 19 16 19
27 10 -10 27 29 18 15 19
27 10 -10 26 29 18 15 19
26 10 -10 26 29 18 15 19
26 10 -10 25 28 17 15 19
25 10 -10 24 28 17 15 19
24 9 -9 23 27 16 15 20
21 9 -9 23 27 16 15 20
19 9 -8 23 27 15 14 20
17 9 -8 23 26 15 14 19
14 9 -7 23 26 14 13 19
12 9 -6 22 25 13 12 18
12 9 -5 21 23 13 12 18
12 9 -5 20 22 13 12 18
12 8 -4 19 20 12 12 17
12 8 -3 17 19 12 12 17
11 7 -2 16 17 11 11 16
10 5 -2 15 17 9 10 15
9 4 -2 15 16 8 9 14
8 2 -2 14 16 6 8 13
6 1 -2 13 15 5 7 11
5 -2 0 12 14 3 6 10
2 -2 0 11 13 3 5 10
0 -2 0 11 12 3 5 10
-4 -2 0 10 11 3 4 9
-7 -2 0 9 9 3 3 9
-9 -2 0 8 8 2 2 8
-10 -2 0 8 8 2 2 7
-12 -2 0 8 7 2 2 7
-13 -2 0 7 7 2 1 6
-14 -2 0 7 6 2 1 5
-16 -3 1 6 5 1 0 4
-13 -3 0 4 3 1 -2 4
-10 -3 -2 2 2 0 -2 3
-7 -3 -3 1 0 0 -3 3
-4 -3 -5 -2 -2 -2 -4 2
0 -4 -6 -4 -4 -3 -5 1
-3 -4 -6 -3 -3 -3 -5 1
-5 -4 -5 -3 -3 -3 -5 1
-7 -4 -5 -2 -2 -3 -5 1
-9 -4 -4 0 0 -3 -5 1
-11 -5 -3 1 1 -2 -4 2
-10 -5 -3 1 1 -2 -4 2
-10 -5 -4 1 1 -2 -4 2
-9 -4 -4 0 0 -2 -4 2
-8 -4 -5 0 0 -2 -4 2
-7 -3 -6 -2 -2 -3 -4 1
-9 -3 -5 1 0 -2 -4 2
-11 -3 -4 2 2 0 -3 2
-13 -3 -3 4 3 1 -3 3
-15 -3 0 5 4 3 -2 4
-17 -3 1 7 6 4 0 5
-16 -3 1 6 6 4 0 5
-14 -3 1 5 6 4 0 5
-12 -3 0 4 5 4 1 5
-11 -3 0 3 5 4 1 5
-9 -3 -2 2 4 3 2 4
-8 -3 -2 2 4 3 1 4
-6 -3 -2 2 4 3 0 3
-4 -3 -2 2 4 2 -2 2
-3 -3 -2 2 4 2 -3 1
0 -3 -3 3 5 1 -4 0
-3 -3 -3 3 5 1 -4 0
-5 -3 -3 3 5 2 -4 0
-8 -3 -3 3 5 3 -4 0
-10 -3 -3 3 5 4 -4 0
-12 -2 -2 4 4 5 -3 1
-12 -2 -2 4 4 5 -3 1
-13 -2 0 5 5 5 -3 1
-13 -2 0 6 6 5 -2 2
-14 -2 1 7 7 5 -2 2
-15 0 2 8 8 6 0 3
-14 0 2 8 8 6 0 3
-12 0 2 8 8 6 0 3
-10 0 2 7 7 6 0 3
-9 0 2 7 7 6 0 3
-7 0 1 6 6 5 0 2
-7 0 1 6 6 5 0 2
-7 0 1 6 6 4 -2 1
-7 0 0 5 6 4 -2 1
-7 0 0 5 6 3 -3 0
-6 0 -2 4 5 2 -4 -2
-6 0 -2 4 5 2 -4 -2
-6 0 -2 4 5 2 -4 -2
-5 0 -2 4 5 2 -4 -2
-5 0 -2 4 5 2 -4 -2
-4 1 0 5 4 3 -4 0
-6 1 0 5 4 3 -4 0
-8 1 0 5 4 3 -4 0
-10 0 0 5 4 3 -4 1
-12 0 0 5 4 3 -4 1
-14 -2 1 5 5 3 -3 2
-13 -2 1 5 5 3 -3 2
-11 -2 1 4 5 3 -3 2
-10 0 1 4 5 3 -3 2
-9 0 1 3 5 3 -3 2
-7 1 0 2 4 2 -2 1
-8 1 0 2 4 2 -2 1
-9 1 0 2 4 2 -2 1
-10 1 0 2 4 2 -2 1
-11 1 0 2 4 2 -2 1
-12 1 1 2 4 1 -3 2
-11 1 1 2 3 1 -3 2
-10 0 0 2 2 0 -4 1
-9 -2 -2 2 1 -2 -4 1
-8 -3 -3 2 -2 -3 -5 0
-7 -4 -4 2 -3 -4 -6 -2
-7 -4 -4 2 -3 -4 -6 -2
-7 -4 -4 1 -3 -4 -7 -3
-7 -4 -4 0 -3 -4 -7 -3
-7 -4 -4 -2 -3 -4 -8 -4
-8 -4 -3 -3 -3 -5 -9 -5
-8 -4 -3 -3 -3 -5 -9 -5
-8 -4 -3 -3 -3 -5 -9 -5
-8 -4 -3 -4 -4 -5 -8 -5
-8 -4 -3 -4 -4 -5 -8 -5
-9 -3 -3 -5 -5 -6 -7 -5
-9 -3 -3 -5 -5 -6 -7 -5
-8 -3 -3 -5 -5 -7 -8 -5
-8 -3 -3 -5 -5 -7 -9 -6
-7 -3 -3 -5 -5 -8 -10 -6
-6 -3 -4 -6 -6 -9 -11 -7
-6 -3 -4 -6 -6 -9 -11 -7
-6 -3 -4 -6 -7 -9 -11 -7
-7 -3 -4 -7 -7 -9 -11 -7
-7 -3 -4 -7 -8 -9 -11 -7
-8 -4 -5 -8 -9 -10 -11 -7
-8 -4 -5 -8 -9 -10 -11 -7
-7 -4 -5 -8 -9 -10 -11 -7
-7 -4 -5 -8 -9 -10 -12 -8
-6 -4 -5 -8 -9 -10 -12 -8
-5 -4 -5 -8 -9 -11 -13 -9
-6 -4 -5 -8 -9 -11 -13 -9
-8 -4 -5 -8 -9 -11 -12 -8
-10 -4 -5 -9 -9 -11 -11 -8
-11 -4 -5 -9 -9 -11 -10 -7
-13 -4 -5 -10 -10 -12 -9 -6
-13 -4 -5 -10 -10 -12 -9 -6
-13 -4 -5 -10 -10 -12 -10 -7
-12 -4 -5 -10 -10 -13 -11 -7
-12 -4 -5 -10 -10 -13 -12 -8
-11 -4 -6 -9 -9 -14 -13 -9
-11 -4 -6 -9 -9 -14 -13 -9
-12 -4 -6 -9 -9 -14 -13 -9
-12 -4 -6 -9 -9 -14 -12 -9
-13 -4 -6 -9 -9 -14 -12 -9
-14 -5 -5 -9 -9 -13 -11 -8
-14 -5 -5 -9 -9 -13 -11 -8
-13 -5 -5 -9 -9 -13 -11 -8
-13 -5 -5 -9 -9 -13 -11 -8
-12 -5 -5 -9 -9 -13 -11 -8
-11 -4 -5 -10 -10 -13 -12 -9
-11 -3 -5 -10 -10 -13 -12 -9
-10 -2 -5 -10 -10 -13 -12 -9
-10 0 -5 -10 -10 -13 -12 -8
-9 2 -5 -10 -10 -13 -12 -8
-8 3 -5 -9 -9 -13 -12 -7
-8 3 -5 -9 -9 -13 -12 -7
-7 3 -5 -8 -8 -13 -12 -7
-7 4 -5 -8 -8 -13 -12 -7
-6 4 -5 -7 -7 -13 -12 -7
-5 5 -5 -6 -6 -13 -11 -8
-5 6 -4 -5 -5 -12 -10 -7
-6 7 -2 -3 -3 -10 -8 -5
-7 8 1 -2 -2 -8 -6 -4
-8 9 2 0 0 -7 -5 -3
-9 11 4 2 2 -5 -3 0
-6 11 4 2 2 -5 -3 0
-3 11 4 2 2 -5 -3 0
1 12 4 2 3 -5 -3 -2
4 12 4 2 3 -5 -3 -2
7 13 4 3 4 -5 -3 -3
8 14 4 3 4 -5 -3 -3
9 15 3 3 4 -5 -3 -3
10 16 2 2 3 -5 -3 -3
11 17 1 2 3 -5 -3 -3
13 19 0 1 2 -5 -3 -3
12 19 -2 1 2 -5 -2 -2
10 19 -3 2 2 -4 0 1
8 19 -4 2 3 -3 1 2
7 19 -5 3 3 -2 2 3
5 18 -6 4 4 0 4 5
4 17 -6 4 3 -2 4 5
3 16 -6 3 2 -3 3 4
2 15 -7 2 1 -4 2 3
1 14 -7 1 0 -5 1 2
-2 12 -8 0 -2 -6 0 1
-2 11 -8 0 -2 -6 -2 0
-2 9 -8 -2 -3 -7 -3 -2
-3 7 -7 -2 -3 -8 -4 -3
-3 6 -7 -3 -4 -9 -5 -4
-4 4 -6 -4 -5 -10 -6 -5
-5 3 -6 -5 -6 -11 -7 -6
-6 2 -6 -7 -7 -12 -8 -7
-8 1 -6 -9 -9 -14 -9 -8
-9 0 -6 -10 -10 -15 -10 -9
-11 -2 -6 -12 -12 -17 -11 -10
-10 -3 -6 -12 -13 -17 -12 -11
-9 -4 -6 -13 -14 -18 -13 -12
-8 -5 -6 -14 -15 -19 -15 -13
-7 -6 -6 -15 -16 -20 -16 -14
-5 -7 -7 -16 -17 -21 -18 -15
-7 -7 -6 -16 -17 -21 -17 -15
-9 -7 -5 -15 -16 -21 -16 -14
-11 -7 -4 -15 -16 -20 -15 -13
-13 -7 -3 -14 -15 -20 -14 -12
-15 -7 0 -13 -14 -19 -13 -11
-15 -7 0 -13 -14 -19 -13 -11
-15 -7 0 -13 -14 -19 -14 -12
-15 -8 0 -14 -14 -20 -14 -12
-15 -8 0 -14 -14 -20 -15 -13
-14 -9 1 -15 -15 -21 -16 -14
-14 -9 1 -15 -15 -21 -16 -14
-13 -9 1 -15 -15 -21 -16 -14
-12 -9 1 -15 -15 -21 -16 -14
-11 -9 1 -15 -15 -21 -16 -14
-10 -8 1 -16 -16 -21 -17 -14
-11 -8 1 -16 -16 -21 -17 -14
-12 -8 1 -16 -16 -21 -17 -14
-13 -8 2 -15 -15 -21 -17 -14
-14 -8 2 -15 -15 -21 -17 -14
-15 -9 3 -14 -14 -20 -16 -14
-15 -12 11 -8 -8 -20 -19 -18
-16 -15 18 -3 -3 -20 -23 -22
-17 -18 26 4 3 -20 -26 -26
-18 -21 33 10 9 -20 -29 -30
-19 -24 40 15 14 -20 -33 -34
-18 -25 44 22 21 -16 -33 -34
-17 -26 48 28 27 -12 -32 -34
-15 -27 51 34 33 -7 -31 -34
-14 -28 54 42 40 -3 -30 -34
-10 -27 56 48 47 4 -26 -32
14 -6 33 52 51 28 5 -7
36 16 10 55 54 54 35 20
60 37 -13 59 58 78 66 46
84 59 -35 63 62 104 97 71
106 79 -58 67 66 128 127 97
116 96 -76 58 57 142 152 119
127 112 -95 50 49 156 178 143
138 128 -113 42 40 171 202 165
148 144 -132 33 32 185 228 188
157 158 -149 23 22 195 250 209
141 142 -155 -6 -7 158 220 187
123 126 -161 -35 -35 122 190 167
107 109 -166 -64 -64 86 160 145
90 93 -173 -93 -93 50 131 125
73 76 -178 -119 -119 14 101 103
55 59 -165 -128 -128 -11 73 79
37 42 -152 -135 -135 -36 46 56
20 24 -140 -142 -143 -61 17 32
2 7 -127 -150 -151 -86 -11 9
-15 -10 -113 -156 -157 -109 -36 -14
-15 -13 -100 -145 -146 -104 -38 -18
-15 -16 -87 -133 -134 -98 -40 -21
-16 -19 -73 -120 -121 -93 -43 -25
-16 -23 -60 -108 -109 -87 -45 -29
-17 -26 -48 -97 -98 -81 -47 -33
-17 -26 -35 -87 -88 -75 -46 -33
-16 -26 -24 -76 -77 -70 -44 -33
-16 -26 -13 -66 -67 -64 -43 -33
-15 -26 -2 -56 -57 -59 -40 -33
-14 -26 10 -46 -48 -53 -38 -33
-15 -25 15 -43 -44 -50 -36 -32
-16 -24 21 -38 -40 -47 -34 -30
-17 -23 26 -35 -36 -44 -32 -28
-18 -22 32 -32 -32 -40 -30 -26
-20 -20 37 -28 -28 -37 -27 -24
-20 -20 40 -27 -27 -37 -27 -24
-20 -20 43 -25 -25 -36 -27 -24
-21 -19 46 -24 -24 -35 -27 -24
-21 -19 49 -22 -22 -34 -27 -24
-22 -18 52 -20 -20 -33 -27 -24
-20 -18 52 -20 -20 -33 -27 -24
-18 -18 52 -20 -20 -33 -27 -24
-16 -18 52 -20 -20 -33 -27 -23
-14 -18 52 -20 -20 -33 -27 -23
-11 -17 51 -20 -21 -32 -27 -22
-12 -17 51 -19 -20 -32 -27 -22
-13 -17 51 -18 -19 -32 -27 -22
-15 -17 51 -17 -18 -31 -27 -23
-16 -17 51 -16 -17 -31 -27 -23
-18 -18 51 -15 -16 -30 -26 -24
-18 -18 52 -15 -16 -30 -26 -24
-18 -18 53 -15 -16 -30 -26 -24
-17 -18 54 -16 -17 -29 -25 -23
-17 -18 55 -16 -17 -29 -25 -23
-16 -19 57 -17 -18 -28 -24 -22
-16 -19 59 -16 -17 -28 -24 -22
-16 -19 62 -15 -16 -28 -24 -22
-15 -19 65 -14 -14 -28 -24 -22
-15 -19 68 -13 -13 -28 -24 -22
-14 -18 71 -12 -11 -27 -23 -22
-14 -18 72 -12 -11 -27 -23 -22
-14 -18 73 -12 -11 -26 -23 -22
-14 -18 75 -12 -11 -26 -23 -21
-14 -18 76 -12 -11 -25 -23 -21
-15 -17 78 -13 -12 -24 -22 -20
-14 -17 79 -13 -12 -24 -22 -20
-13 -17 80 -13 -12 -24 -22 -20
-12 -17 82 -12 -11 -24 -22 -21
-11 -17 84 -12 -11 -24 -22 -21
-9 -16 86 -11 -10 -23 -23 -22
-10 -16 86 -11 -10 -23 -23 -22
-11 -16 87 -11 -10 -22 -22 -21
-12 -15 87 -10 -10 -22 -21 -21
-13 -15 88 -10 -10 -21 -20 -20
-15 -14 89 -9 -9 -20 -19 -19
-14 -14 88 -9 -8 -20 -19 -19
-13 -14 87 -8 -7 -20 -19 -19
-11 -14 86 -7 -6 -20 -19 -19
-10 -14 85 -6 -5 -20 -19 -19
-8 -14 82 -5 -4 -20 -19 -19
-8 -14 82 -5 -4 -19 -19 -19
-9 -14 81 -4 -3 -18 -18 -18
-9 -14 81 -4 -3 -17 -17 -18
-10 -14 80 -3 -2 -16 -16 -17
-11 -13 79 -2 0 -15 -15 -16
-10 -13 78 0 1 -15 -15 -16
-9 -13 77 1 2 -15 -15 -16
-8 -13 75 3 3 -15 -15 -16
-7 -13 74 4 4 -15 -15 -16
-5 -13 72 6 6 -14 -15 -16
-6 -13 71 7 7 -13 -14 -15
-7 -13 69 8 8 -11 -13 -14
-8 -13 68 9 9 -10 -11 -13
-9 -13 66 10 10 -8 -10 -12
-10 -12 64 11 12 -6 -8 -11
-9 -12 63 12 13 -5 -8 -11
-8 -12 61 14 14 -4 -8 -11
-6 -11 60 15 16 -3 -8 -11
-5 -11 58 17 17 -2 -8 -11
-3 -10 56 19 19 0 -8 -11
0 -9 54 19 19 1 -8 -11
2 -8 52 19 19 2 -8 -11
5 -7 50 20 20 3 -7 -11
7 -6 48 20 20 4 -7 -11
10 -5 45 21 21 5 -6 -10
11 -5 44 22 22 6 -6 -10
12 -5 43 24 23 7 -5 -9
13 -4 40 25 25 8 -4 -9
14 -4 39 27 26 9 -3 -8
15 -3 37 29 28 10 -2 -7
16 -3 37 29 28 11 0 -6
17 -3 36 30 29 13 2 -4
19 -2 35 31 30 14 4 -2
20 -2 34 32 31 16 6 1
22 0 33 33 32 18 8 3
22 0 33 33 33 18 8 3
22 0 32 34 34 19 8 4
23 0 31 35 35 20 9 4
23 0 30 36 36 21 9 5
24 1 29 37 37 22 10 6
25 1 28 37 37 22 10 6
26 2 26 37 37 22 11 6
27 2 24 37 37 22 12 6
28 3 22 37 37 22 13 6
29 4 20 36 36 23 14 7
29 4 20 36 36 23 14 7
29 5 20 36 36 23 14 8
29 5 19 36 36 23 14 9
29 6 19 36 36 23 14 10
29 7 18 35 36 22 15 11
29 7 17 34 35 22 15 11
30 7 16 32 33 22 15 11
30 8 14 31 32 22 15 11
31 8 13 29 30 22 15 11
31 8 12 28 29 22 15 11
31 9 11 27 28 21 16 11
29 9 11 27 28 20 16 11
28 9 11 27 28 20 16 12
26 9 11 27 28 19 16 12
25 9 11 27 28 19 16 12
25 9 12 25 26 17 16 13
26 10 11 24 24 16 15 13
27 10 11 23 22 15 14 13
28 11 10 22 20 14 13 13
29 11 10 21 19 13 13 13
27 12 9 20 18 12 12 12
23 12 10 20 19 12 12 12
19 12 11 20 19 12 12 12
15 12 12 20 20 12 12 12
12 12 12 20 20 12 12 12
11 11 13 19 20 11 12 11
10 11 13 18 19 11 12 11
10 11 13 17 17 11 11 11
9 11 13 16 16 11 11 11
9 11 13 15 15 11 11 11
7 10 13 14 14 11 10 10
6 9 13 14 14 11 9 9
5 8 14 14 14 10 8 8
4 7 14 14 14 10 7 7
3 6 14 14 14 10 7 6
2 5 15 13 13 8 6 5
1 5 14 11 11 7 5 4
1 5 14 9 10 6 4 3
0 5 13 7 8 5 3 2
0 5 13 6 7 4 2 2
-2 4 12 5 6 3 0 0
-2 3 11 4 5 2 -2 -2
-2 3 11 3 4 1 -3 -4
-2 2 10 2 3 0 -4 -5
-2 2 10 2 2 -2 -5 -6
-4 1 9 1 1 -3 -6 -7
-7 1 9 1 1 -3 -6 -6
-10 1 10 1 1 -3 -5 -5
-13 1 10 1 1 -3 -5 -4
-15 1 10 1 1 -3 -5 -3
-16 0 11 0 1 -2 -4 -2
-17 0 12 1 1 -2 -4 -2
-17 1 12 1 2 -2 -4 -2
-18 1 13 2 2 -2 -4 -2
-18 1 13 2 2 -2 -4 -2
-19 2 14 3 3 0 -3 -3
-18 2 13 2 2 0 -4 -3
-17 1 12 1 2 -2 -4 -4
-16 1 11 0 1 -2 -5 -4
-16 1 11 0 1 -2 -5 -4
-15 0 10 -2 0 -3 -6 -5
-14 0 10 -2 0 -3 -6 -5
-13 0 10 -2 0 -3 -6 -5
-12 0 10 -2 0 -3 -6 -5
-11 0 10 -2 0 -3 -6 -5
-10 0 10 0 0 -4 -6 -5
-10 0 10 0 0 -4 -6 -5
-10 1 10 0 0 -4 -6 -4
-10 1 10 0 0 -4 -6 -4
-10 1 10 0 0 -4 -6 -4
-9 2 10 0 1 -3 -6 -3
-10 1 10 1 2 -3 -6 -3
-11 1 10 2 2 -3 -5 -3
-12 0 10 3 3 -3 -5 -3
-13 0 10 3 3 -3 -5 -3
-14 -2 11 4 4 -2 -4 -4
-15 0 11 4 4 0 -4 -3
-15 0 11 5 4 0 -3 -3
-16 1 11 5 4 1 -3 -2
-16 1 11 5 4 1 -3 -2
-16 2 12 6 5 2 -2 0
-14 2 12 6 5 2 -3 -2
-12 2 12 6 5 1 -3 -3
-10 2 12 6 5 1 -4 -4
-8 2 12 6 5 1 -4 -4
-7 1 12 5 6 0 -5 -5
-7 1 11 5 6 0 -5 -5
-7 1 11 5 5 0 -5 -5
-7 1 10 5 5 0 -5 -5
-7 1 10 5 5 0 -5 -5
-7 1 9 4 4 -2 -5 -4
-9 1 10 4 5 0 -4 -4
-11 1 11 5 5 1 -4 -3
-13 1 12 5 6 2 -3 -3
-14 1 12 5 6 2 -3 -3
-15 1 13 6 7 3 -2 -2
-14 1 13 6 7 3 -2 -2
-13 2 12 5 6 3 -2 -2
-12 2 12 5 6 3 -2 -2
-12 2 12 5 6 3 -2 -2
-11 3 11 4 5 2 -2 0
-11 2 11 4 5 2 -2 0
-11 2 11 4 5 2 -3 -2
-11 1 11 4 5 2 -3 -2
-11 1 11 4 5 2 -3 -2
-13 0 11 4 5 1 -4 -3
-14 0 11 4 5 1 -4 -2
-16 0 12 4 5 1 -4 0
-17 0 12 4 5 1 -4 1
-18 0 12 4 5 1 -4 1
-18 0 13 4 5 2 -3 2
-17 0 13 4 4 1 -4 1
-15 -2 12 3 4 0 -4 0
-14 -2 12 3 3 -2 -5 -2
-13 -2 12 3 3 -2 -5 -2
-12 -3 11 2 2 -3 -6 -3
-12 -3 11 1 2 -4 -6 -3
-11 -3 11 1 1 -4 -7 -4
-11 -3 11 0 1 -5 -7 -4
-11 -3 11 0 1 -5 -7 -4
-10 -4 10 -2 0 -6 -8 -5
-9 -4 10 -3 -2 -6 -9 -6
-8 -4 9 -4 -2 -7 -10 -6
-7 -4 9 -5 -3 -7 -11 -7
-7 -4 9 -5 -3 -7 -11 -7
-8 -4 8 -6 -4 -8 -12 -8
-12 -4 9 -5 -3 -7 -11 -7
-15 -4 10 -4 -3 -7 -10 -6
-18 -4 11 -3 -2 -6 -9 -5
-21 -4 11 -3 -2 -6 -8 -4
-21 -5 12 -2 0 -5 -7 -3
-20 -5 11 -3 -2 -6 -8 -4
-18 -5 10 -4 -3 -7 -9 -4
-17 -5 9 -5 -4 -8 -10 -5
-16 -5 9 -5 -5 -8 -10 -5
-15 -4 8 -6 -6 -9 -11 -6
-15 -4 8 -6 -6 -9 -11 -6
-15 -4 8 -7 -6 -9 -11 -6
-15 -4 8 -7 -6 -9 -11 -6
-15 -4 8 -7 -6 -9 -11 -6
-16 -5 9 -8 -7 -10 -11 -6
-17 -5 9 -8 -7 -10 -11 -6
-17 -5 10 -7 -7 -10 -11 -6
-18 -5 10 -7 -7 -10 -11 -6
-18 -5 10 -7 -7 -10 -11 -6
-19 -5 11 -6 -6 -10 -10 -5
-18 -4 11 -6 -6 -10 -10 -5
-17 -3 11 -5 -6 -10 -10 -5
-16 -2 11 -5 -6 -10 -10 -5
-16 0 11 -5 -6 -10 -10 -5
-15 1 12 -4 -5 -9 -10 -4
-15 2 13 -4 -4 -9 -10 -4
-14 3 14 -3 -3 -8 -9 -3
-14 4 15 -3 -2 -8 -9 -3
-14 4 16 -3 -2 -8 -9 -3
-12 5 17 -2 0 -7 -8 -2
-11 6 17 0 0 -6 -7 -2
-9 7 17 0 1 -5 -7 -2
-8 8 17 1 1 -4 -6 -2
-7 8 17 1 1 -4 -6 -2
-6 10 19 3 3 -2 -4 1
-7 11 20 5 5 1 -3 2
-8 13 21 7 7 2 0 4
-9 14 22 9 8 4 1 5
-10 15 23 11 10 5 2 6
-11 16 24 12 11 6 3 7
-11 17 23 12 11 6 3 7
-10 18 23 11 11 6 3 8
-10 19 22 11 11 6 3 8
-10 20 22 11 11 6 3 8
-8 20 20 10 10 5 4 9
-7 18 17 9 9 4 3 8
-5 16 15 8 8 4 3 7
-4 15 13 7 7 3 2 6
-3 13 11 7 7 3 2 6
-2 11 10 5 5 2 1 5
-2 10 10 4 4 1 0 5
-2 9 9 3 3 1 0 4
-2 8 9 2 2 0 -2 4
-2 7 9 1 1 0 -2 4
-4 5 8 0 0 -2 -3 3
-7 4 8 0 0 -2 -4 2
-10 3 8 -2 0 -3 -5 2
-12 2 8 -2 0 -3 -6 1
-15 1 8 -2 0 -3 -6 1
-16 -2 9 -4 -3 -5 -7 0
-17 -3 9 -5 -4 -6 -8 -2
-18 -4 9 -6 -5 -7 -9 -3
-19 -5 9 -8 -7 -8 -10 -4
-19 -6 9 -9 -8 -9 -10 -4
-20 -7 8 -10 -9 -10 -11 -5
-20 -7 8 -10 -9 -11 -12 -6
-20 -8 7 -10 -10 -12 -13 -7
-20 -8 7 -10 -10 -13 -14 -8
-20 -8 7 -10 -10 -13 -14 -9
-19 -9 6 -11 -11 -14 -15 -10
-19 -9 6 -11 -11 -14 -15 -10
-19 -9 6 -11 -11 -14 -15 -9
-19 -9 6 -11 -11 -14 -15 -9
-19 -9 6 -11 -11 -14 -15 -9
-19 -9 5 -12 -11 -14 -15 -8
-20 -9 5 -12 -11 -14 -15 -8
-21 -9 6 -12 -12 -14 -15 -8
-22 -9 6 -12 -12 -14 -15 -8
-22 -9 6 -12 -12 -14 -15 -8
-24 -9 7 -12 -13 -15 -16 -9
-26 -9 7 -12 -12 -14 -15 -9
-28 -10 7 -11 -12 -14 -14 -8
-30 -10 7 -11 -11 -13 -13 -8
-32 -10 7 -11 -11 -13 -13 -8
-32 -11 8 -10 -10 -12 -12 -7
-31 -11 9 -10 -10 -12 -13 -8
-29 -11 9 -10 -10 -12 -13 -8
-27 -11 10 -10 -10 -12 -14 -9
-26 -11 10 -10 -10 -12 -14 -9
-26 -13 18 -4 -4 -13 -18 -14
-27 -16 27 3 4 -13 -23 -19
-28 -20 35 10 10 -13 -28 -24
-30 -24 45 16 17 -13 -32 -29
-31 -28 54 22 23 -13 -37 -34
-29 -27 55 28 29 -8 -35 -33
-24 -24 52 33 34 0 -30 -29
-19 -20 50 38 39 6 -26 -26
-15 -17 48 44 45 13 -22 -22
-10 -14 46 50 50 19 -17 -19
12 6 25 55 55 45 14 7
37 29 1 60 60 73 50 37
63 52 -24 65 65 103 86 68
88 75 -49 70 70 132 122 99
113 98 -73 76 76 160 158 130
120 112 -93 65 65 170 177 149
125 123 -111 50 50 175 191 165
129 135 -130 34 34 179 206 183
132 146 -147 18 18 183 221 199
136 156 -165 3 3 188 235 217
121 142 -171 -24 -24 154 211 197
102 120 -174 -54 -53 111 175 170
82 99 -176 -83 -82 68 140 142
63 77 -179 -112 -112 25 105 114
44 55 -181 -142 -141 -18 70 87
29 38 -172 -148 -147 -37 46 65
15 23 -158 -149 -148 -52 23 45
2 8 -145 -150 -149 -66 1 25
-13 -8 -132 -151 -150 -81 -22 6
-26 -23 -118 -151 -150 -96 -44 -15
-29 -26 -105 -141 -140 -94 -48 -19
-28 -27 -93 -127 -127 -87 -47 -20
-28 -27 -80 -112 -112 -79 -45 -21
-27 -28 -67 -97 -98 -73 -43 -22
-27 -28 -55 -82 -83 -66 -41 -23
-26 -29 -46 -72 -73 -60 -39 -24
-26 -29 -37 -63 -64 -54 -38 -23
-27 -30 -29 -54 -54 -49 -36 -23
-27 -30 -20 -45 -45 -43 -34 -22
-27 -30 -12 -34 -34 -37 -33 -22
-28 -30 -9 -31 -31 -34 -31 -20
-28 -28 -7 -29 -29 -32 -29 -19
-28 -25 -5 -26 -26 -29 -27 -17
-28 -23 -3 -24 -24 -27 -26 -15
-28 -21 0 -22 -22 -25 -24 -14
-29 -20 1 -21 -21 -24 -23 -13
-28 -20 2 -20 -20 -24 -24 -14
-27 -21 2 -19 -19 -24 -25 -15
-26 -21 3 -18 -18 -24 -26 -16
-25 -21 3 -18 -17 -24 -26 -17
-24 -22 4 -17 -16 -25 -27 -18
-25 -21 5 -17 -16 -24 -26 -18
-26 -21 5 -16 -16 -23 -25 -17
-27 -20 6 -16 -16 -22 -24 -17
-28 -20 6 -16 -16 -21 -23 -17
-29 -19 7 -15 -15 -20 -22 -16
-28 -19 7 -14 -14 -20 -23 -16
-27 -20 7 -14 -14 -20 -23 -16
-26 -20 7 -13 -13 -20 -24 -16
-25 -20 7 -13 -13 -20 -24 -16
-24 -21 7 -12 -12 -21 -25 -16
-23 -21 7 -12 -13 -21 -25 -16
-23 -20 6 -12 -13 -21 -24 -16
-22 -20 6 -12 -14 -21 -24 -16
-22 -20 6 -12 -14 -21 -24 -16
-21 -19 5 -13 -15 -21 -23 -16
-21 -19 5 -13 -14 -21 -23 -16
-20 -19 5 -13 -13 -21 -23 -16
-20 -19 5 -13 -12 -21 -23 -16
-20 -19 5 -13 -12 -21 -23 -16
-19 -19 5 -14 -11 -20 -23 -17
-21 -18 6 -12 -11 -19 -22 -16
-22 -18 6 -11 -11 -18 -21 -15
-23 -17 7 -10 -11 -17 -19 -14
-24 -17 7 -9 -11 -16 -18 -13
-24 -16 8 -8 -10 -15 -17 -12
-22 -16 8 -8 -9 -15 -18 -13
-21 -16 8 -7 -8 -15 -18 -13
-19 -16 8 -7 -7 -15 -19 -14
-17 -16 8 -7 -7 -15 -19 -14
-16 -16 9 -6 -6 -14 -20 -15
-17 -16 9 -6 -6 -14 -19 -15
-17 -16 8 -6 -6 -14 -18 -14
-18 -16 8 -6 -6 -14 -17 -14
-18 -16 8 -6 -6 -14 -17 -14
-19 -16 7 -6 -5 -13 -16 -13
-17 -16 7 -4 -4 -13 -16 -13
-16 -16 7 -3 -3 -12 -16 -13
-15 -16 7 -2 0 -12 -16 -13
-14 -16 7 0 1 -12 -16 -13
-13 -15 8 1 2 -11 -15 -13
-14 -15 8 2 3 -10 -14 -12
-15 -15 8 2 3 -9 -14 -12
-16 -15 8 3 4 -8 -13 -11
-16 -15 8 3 4 -7 -13 -11
-17 -15 9 5 6 -6 -12 -10
-17 -15 9 6 7 -5 -12 -10
-17 -15 10 8 9 -5 -11 -9
-17 -15 10 10 11 -4 -11 -9
-17 -15 10 11 12 -4 -11 -9
-15 -14 11 12 13 -3 -10 -8
-13 -14 11 13 14 0 -9 -8
-11 -13 11 14 14 1 -8 -7
-9 -13 11 15 15 2 -7 -7
-7 -13 11 15 15 3 -7 -7
-6 -12 11 17 17 4 -6 -6
-6 -12 11 19 19 5 -6 -6
-6 -12 11 20 21 5 -6 -6
-6 -12 11 22 23 6 -6 -6
-6 -12 11 24 25 6 -6 -6
-3 -12 10 25 26 8 -5 -5
1 -11 10 26 27 9 -4 -4
4 -10 10 27 27 10 -3 -4
7 -9 10 27 28 12 -2 -3
10 -8 10 28 28 13 0 -3
11 -7 9 30 30 15 1 -2
11 -7 9 32 32 16 2 0
11 -6 9 33 34 17 3 0
11 -6 9 35 36 19 3 1
11 -6 9 37 38 20 4 1
12 -5 9 38 39 21 5 3
13 -4 8 39 39 22 7 4
13 -3 8 40 40 23 8 5
14 -3 7 40 40 24 9 7
14 -2 7 42 40 25 10 8
15 0 6 44 43 26 12 9
15 0 6 45 45 28 13 11
15 0 6 46 46 29 14 12
15 0 6 48 48 30 16 13
15 0 6 49 50 31 17 14
17 1 6 49 50 32 18 15
20 3 4 47 48 31 18 15
24 4 2 46 46 31 18 15
27 5 0 44 44 30 18 15
31 6 -3 42 42 30 18 15
31 7 -4 40 40 29 17 15
29 7 -4 42 42 29 18 16
27 8 -3 42 43 30 19 17
24 8 -3 43 43 30 19 17
22 8 -3 43 44 30 20 18
23 9 -3 43 44 30 21 19
25 9 -4 39 40 29 20 19
28 10 -5 37 38 27 20 18
31 10 -7 35 36 26 19 18
34 10 -8 32 33 24 19 18
34 11 -9 31 32 23 18 17
31 11 -8 31 32 23 18 17
29 11 -8 31 32 23 18 17
27 11 -7 31 32 23 18 17
24 11 -7 31 32 23 18 17
23 10 -6 32 32 23 18 17
22 10 -6 31 31 23 18 17
22 11 -6 30 30 22 18 17
21 11 -6 30 30 22 18 17
21 11 -6 29 29 22 18 17
19 12 -5 28 28 21 17 17
18 11 -4 27 27 20 16 16
16 10 -3 27 27 20 15 15
15 10 -3 26 26 19 15 14
13 9 -2 26 26 19 14 13
12 8 0 24 25 18 13 12
12 8 0 23 23 17 12 11
13 8 0 21 22 16 11 10
13 8 0 20 20 15 11 10
13 8 0 18 19 14 10 9
11 9 0 17 18 13 9 8
6 7 2 18 19 13 9 8
2 6 3 19 20 13 9 8
-4 5 5 19 20 13 9 8
-9 4 7 20 21 13 9 8
-11 3 8 20 21 14 10 8
-9 3 8 18 18 12 8 7
-8 3 7 16 16 11 7 6
-6 3 7 13 14 10 5 5
-5 3 7 11 11 9 4 4
-5 2 6 10 10 8 3 3
-7 2 6 10 10 7 2 3
-9 2 6 9 9 7 2 2
-12 2 6 9 9 6 1 2
-14 2 6 9 9 6 1 2
-15 1 5 8 8 5 0 1
-15 1 5 8 8 5 1 1
-16 0 6 8 8 5 1 2
-16 0 6 8 8 5 2 2
-16 0 6 8 8 5 2 2
-15 -2 7 7 7 6 2 3
-12 -2 7 6 6 5 0 1
-8 -3 6 5 5 4 -2 0
-5 -3 6 4 4 3 -4 -3
-2 -3 6 3 3 2 -6 -4
0 -4 6 2 2 1 -7 -5
-3 -3 8 2 2 2 -5 -4
-4 -3 9 3 3 2 -4 -3
-6 -2 11 3 3 3 -2 -2
-8 -2 13 3 3 3 0 0
-9 0 14 4 4 4 1 1
-10 0 15 5 5 4 1 1
-11 0 16 6 6 4 1 1
-12 0 16 7 7 4 1 1
-13 0 17 8 8 4 1 1
-13 -2 18 9 9 5 1 0
-10 -2 19 7 7 5 1 0
-8 -2 20 6 6 5 0 -2
-6 -2 21 4 5 5 0 -2
-3 -2 22 3 4 5 0 -2
-3 -3 24 3 3 4 -2 -3
-6 -3 26 4 5 4 -2 -2
-9 -3 28 6 6 4 -2 -2
-12 -3 31 7 8 4 -2 0
-15 -3 33 9 9 4 -2 0
-16 -2 34 10 10 5 0 1
-15 -2 35 10 10 5 0 1
-13 -2 36 9 10 6 1 1
-12 -2 37 9 10 7 1 1
-11 -2 38 9 10 7 1 1
-10 -2 40 8 9 8 2 2
-10 -2 43 8 9 8 2 2
-10 -2 45 9 9 8 2 1
-10 -2 47 9 9 8 2 1
-10 -2 49 9 9 8 2 1
-9 -2 51 10 10 7 1 0
-8 -2 52 10 10 7 1 0
-7 0 54 9 9 7 1 1
-7 0 55 9 9 7 1 1
-6 0 57 9 9 7 1 1
-6 1 58 8 8 6 1 2
-7 1 59 9 8 6 1 2
-9 1 61 10 9 7 2 2
-11 1 62 10 10 8 3 2
-13 1 63 11 10 8 3 2
-14 0 64 12 11 9 4 2
-13 0 63 11 10 9 4 2
-12 0 62 10 9 8 4 2
-12 0 62 9 9 8 4 2
-11 0 61 8 8 8 4 2
-10 1 60 7 7 7 3 1
-9 1 59 7 7 7 2 0
-7 0 57 7 6 6 1 -2
-6 0 56 7 5 5 1 -2
-5 0 55 7 5 5 0 -3
-4 -2 54 7 4 4 -2 -4
-5 -2 54 7 4 4 -2 -4
-6 -2 54 7 5 4 0 -3
-6 -2 54 7 5 4 0 -3
-7 -2 54 7 5 4 0 -3
-8 -3 53 6 6 5 1 -2
-8 -3 52 6 6 5 1 -2
-9 -3 51 5 5 4 1 -2
-9 -3 51 5 5 4 1 -2
-9 -3 50 5 5 4 1 -2
-9 -3 49 4 4 3 0 -2
-8 -3 48 3 3 3 0 -2
-6 -3 46 1 2 2 -2 -3
-4 -3 45 0 1 2 -2 -3
-2 -3 44 -2 0 2 -2 -3
-2 -2 43 -3 -2 1 -3 -4
-4 -2 43 -3 -2 1 -3 -4
-7 -2 43 -2 0 0 -3 -4
-9 -2 43 0 1 0 -3 -4
-12 -2 43 0 1 0 -3 -4
-13 -3 42 1 2 -2 -4 -4
-11 -3 42 0 0 -2 -4 -4
-10 -3 40 -3 -2 -3 -5 -5
-8 -3 39 -4 -4 -3 -5 -5
-7 -3 39 -5 -5 -3 -5 -5
-6 -3 38 -6 -6 -4 -6 -6
-7 -3 38 -6 -6 -4 -6 -6
-9 -4 37 -5 -5 -4 -6 -6
-10 -4 36 -5 -5 -4 -6 -6
-11 -4 36 -5 -5 -4 -6 -6
-12 -5 35 -4 -4 -5 -5 -5
-12 -5 35 -4 -4 -5 -5 -5
-12 -4 34 -4 -4 -5 -6 -6
-12 -4 34 -4 -4 -5 -6 -7
-12 -4 34 -4 -4 -5 -6 -7
-13 -3 33 -4 -3 -6 -7 -8
-13 -3 33 -4 -3 -6 -7 -8
-13 -3 33 -4 -3 -6 -7 -8
-13 -3 33 -4 -3 -6 -7 -8
-13 -3 33 -4 -3 -6 -7 -8
-14 -2 32 -4 -4 -5 -7 -7
-13 1 32 -4 -4 -5 -6 -7
-12 2 32 -4 -3 -4 -5 -7
-11 4 32 -4 -3 -4 -5 -7
-10 5 32 -4 -3 -4 -4 -7
-8 6 31 -3 -2 -3 -3 -6
-5 7 31 -3 0 -3 -3 -6
-3 8 30 -2 1 -3 -3 -6
1 9 30 -2 1 -3 -3 -6
3 10 30 -2 2 -3 -3 -6
5 11 29 0 3 -2 -4 -5
5 11 29 2 3 0 -2 -5
4 12 29 4 4 1 0 -4
4 12 29 5 5 1 2 -3
4 12 29 7 5 2 3 -3
3 13 30 8 6 3 4 -2
2 15 30 8 7 4 4 0
0 16 30 9 8 5 5 1
-2 18 30 9 9 6 6 2
-3 19 30 9 10 7 6 3
-2 20 27 10 11 8 7 4
2 20 23 8 9 7 6 3
5 20 19 7 7 6 5 2
9 20 14 5 6 5 4 2
12 20 10 4 4 4 3 1
13 19 8 3 3 3 2 0
10 16 8 3 3 3 2 0
7 14 8 3 2 2 2 0
4 11 8 3 2 2 2 0
2 9 8 3 2 2 2 0
0 7 9 1 1 1 2 1
0 7 8 0 -2 -2 0 -2
1 6 6 -3 -4 -3 -3 -4
1 6 5 -5 -5 -5 -4 -5
1 6 4 -7 -7 -6 -6 -7
0 4 3 -8 -8 -7 -7 -8
-4 3 3 -8 -8 -7 -7 -8
-8 1 4 -8 -8 -8 -7 -8
-11 -2 4 -8 -8 -8 -7 -8
-15 -4 4 -8 -8 -8 -7 -8
-17 -5 5 -8 -9 -9 -8 -9
-17 -5 4 -8 -10 -10 -9 -10
-16 -6 3 -9 -11 -12 -10 -11
-15 -7 3 -10 -12 -13 -11 -11
-15 -7 2 -10 -13 -14 -12 -12
-14 -8 1 -11 -14 -15 -13 -13
-14 -8 1 -11 -14 -15 -13 -13
-15 -8 1 -12 -14 -15 -13 -13
-15 -8 1 -12 -14 -15 -13 -13
-15 -8 1 -12 -14 -15 -13 -13
-16 -8 1 -13 -13 -14 -13 -13
-16 -8 1 -13 -13 -14 -13 -13
-15 -9 0 -14 -14 -15 -13 -13
-15 -9 -2 -15 -14 -16 -13 -13
-15 -9 -2 -15 -14 -16 -13 -13
-14 -10 -3 -16 -15 -17 -14 -13
-14 -10 -3 -16 -15 -17 -14 -13
-14 -10 -3 -15 -15 -17 -14 -13
-14 -10 -3 -15 -15 -17 -14 -13
-14 -10 -3 -15 -15 -17 -14 -13
-14 -10 -2 -14 -15 -17 -14 -12
-14 -10 -2 -14 -15 -17 -14 -12
-14 -10 -3 -15 -16 -17 -14 -13
-14 -10 -4 -15 -16 -17 -14 -13
-14 -10 -4 -15 -16 -17 -14 -13
-14 -11 -4 -15 -16 -18 -16 -15
-14 -13 0 -13 -14 -18 -18 -18
-14 -14 4 -10 -11 -18 -21 -20
-14 -15 7 -8 -9 -18 -23 -23
-14 -17 10 -6 -7 -18 -25 -25
-14 -19 16 1 0 -19 -28 -28
-16 -21 25 9 7 -17 -31 -32
-19 -23 33 16 15 -15 -34 -35
-21 -25 42 24 22 -14 -36 -39
-23 -27 51 32 30 -12 -39 -43
-17 -22 47 38 36 -2 -30 -35
0 -10 31 44 43 17 -10 -19
16 3 16 49 48 35 11 -2
32 15 1 54 54 54 31 15
49 27 -15 59 59 71 52 32
67 45 -33 62 62 94 79 56
87 67 -55 62 62 118 113 86
107 90 -76 63 63 144 147 115
127 112 -98 64 63 169 181 145
147 135 -119 64 63 193 215 175
152 143 -137 51 50 194 227 187
143 138 -150 24 23 173 219 183
135 134 -164 -3 -4 150 211 178
126 129 -178 -29 -30 129 202 174
116 125 -191 -56 -56 106 194 170
101 110 -195 -79 -79 76 170 151
77 88 -187 -100 -100 38 131 121
55 66 -180 -120 -120 2 91 92
32 44 -172 -140 -140 -36 52 62
10 22 -164 -160 -160 -73 12 32
-4 7 -154 -165 -165 -92 -11 13
-8 -2 -141 -154 -154 -92 -19 3
-13 -10 -129 -143 -143 -93 -28 -8
-17 -18 -115 -132 -132 -93 -36 -18
-21 -26 -102 -120 -121 -93 -46 -28
-24 -30 -90 -109 -110 -91 -49 -33
-23 -30 -78 -98 -99 -82 -47 -32
-22 -30 -67 -88 -89 -75 -45 -31
-22 -30 -55 -76 -77 -67 -43 -31
-21 -30 -44 -66 -67 -60 -40 -30
-20 -29 -35 -57 -58 -55 -39 -29
-19 -29 -30 -51 -52 -51 -37 -28
-18 -28 -25 -45 -46 -47 -35 -27
-17 -27 -21 -38 -39 -43 -34 -26
-16 -27 -16 -32 -33 -38 -32 -25
-15 -26 -13 -29 -30 -36 -31 -24
-15 -24 -11 -27 -28 -34 -30 -24
-16 -23 -10 -26 -27 -33 -29 -23
-17 -22 -9 -25 -26 -32 -29 -22
-17 -20 -7 -23 -24 -30 -28 -22
-18 -19 -6 -22 -23 -29 -27 -21
-17 -19 -6 -22 -23 -29 -27 -21
-16 -20 -6 -21 -22 -29 -28 -22
-16 -20 -6 -21 -22 -29 -28 -23
-15 -20 -6 -21 -22 -29 -28 -23
-14 -21 -5 -20 -21 -29 -29 -24
-16 -21 -4 -20 -20 -28 -29 -24
-17 -21 -3 -19 -19 -27 -28 -23
-18 -21 -3 -19 -19 -27 -27 -23
-20 -21 -2 -19 -18 -26 -27 -23
-21 -20 0 -18 -17 -25 -26 -22
-20 -20 0 -18 -17 -25 -26 -22
-18 -20 0 -18 -17 -26 -27 -23
-17 -20 0 -18 -17 -26 -27 -23
-16 -20 0 -18 -17 -26 -27 -23
-15 -19 0 -17 -17 -27 -28 -24
-15 -19 0 -17 -17 -25 -27 -22
-16 -19 0 -16 -16 -24 -25 -21
-16 -19 0 -16 -16 -23 -24 -20
-16 -19 0 -16 -16 -21 -23 -18
-17 -18 1 -15 -15 -20 -22 -17
-17 -18 1 -15 -14 -20 -22 -18
-17 -18 1 -14 -14 -20 -22 -18
-17 -18 2 -13 -13 -21 -22 -19
-17 -18 2 -13 -12 -21 -22 -20
-18 -18 3 -12 -11 -22 -23 -21
-18 -18 3 -12 -11 -22 -23 -20
-18 -18 3 -12 -11 -21 -23 -20
-18 -17 3 -12 -10 -20 -23 -19
-18 -17 3 -12 -10 -20 -23 -18
-18 -16 3 -12 -9 -19 -23 -17
-17 -16 3 -12 -9 -19 -23 -17
-17 -16 3 -11 -9 -19 -23 -17
-16 -17 3 -10 -9 -19 -23 -18
-15 -17 3 -10 -9 -19 -23 -18
-14 -18 4 -9 -8 -19 -22 -19
-13 -18 4 -9 -8 -18 -22 -19
-12 -17 4 -9 -8 -18 -22 -19
-11 -16 4 -8 -8 -17 -21 -18
-10 -16 4 -8 -8 -16 -21 -18
-9 -15 4 -7 -7 -15 -20 -17
-9 -15 4 -6 -6 -15 -20 -17
-9 -15 4 -5 -5 -15 -20 -18
-9 -15 4 -4 -4 -16 -20 -19
-9 -15 4 -3 -3 -16 -20 -19
-8 -15 3 -2 -2 -17 -21 -20
-9 -15 4 1 0 -16 -19 -20
-10 -15 5 2 0 -15 -18 -19
-11 -15 6 3 1 -13 -17 -18
-12 -15 7 5 2 -12 -15 -18
-13 -14 8 6 3 -11 -14 -17
-12 -14 8 7 5 -10 -14 -17
-12 -14 8 8 6 -9 -14 -16
-11 -14 8 10 8 -7 -14 -15
-10 -14 8 11 10 -6 -14 -15
-9 -13 8 12 11 -5 -13 -14
-7 -13 8 12 11 -5 -13 -14
-5 -13 8 12 11 -5 -13 -14
-3 -13 8 12 11 -4 -12 -13
0 -13 8 12 11 -4 -12 -13
2 -12 8 12 13 -3 -11 -12
4 -12 8 14 15 0 -11 -12
6 -12 8 16 17 1 -11 -12
9 -12 7 18 19 2 -10 -12
11 -12 7 20 21 4 -10 -12
13 -11 6 22 23 5 -9 -13
12 -11 6 24 25 7 -7 -11
12 -10 7 25 26 8 -6 -9
11 -9 8 27 27 10 -4 -7
10 -9 8 29 29 12 -2 -5
9 -8 9 30 31 13 0 -3
9 -8 9 32 33 15 1 -3
9 -8 9 34 35 16 2 -2
9 -8 10 36 37 18 4 0
9 -8 10 38 39 20 5 0
10 -8 11 40 42 21 6 1
12 -6 10 40 42 22 6 1
14 -4 9 40 42 22 6 2
16 -2 7 40 42 23 7 3
18 1 6 40 42 24 7 3
20 2 5 42 42 25 8 4
20 2 5 42 42 25 9 5
20 2 5 42 42 26 10 5
21 2 5 43 43 27 11 6
21 2 5 43 43 27 12 7
22 3 4 44 44 28 13 8
24 4 3 44 44 28 13 8
26 5 3 43 44 28 14 9
28 7 2 42 43 27 15 10
30 8 1 42 43 27 15 10
31 9 0 40 42 26 16 11
32 9 -2 39 39 26 16 11
33 9 -2 38 38 25 16 11
34 8 -3 36 37 24 15 11
35 8 -4 35 35 24 15 11
35 7 -5 34 34 23 14 10
32 8 -5 34 34 23 15 11
28 8 -4 34 34 23 16 11
25 9 -3 34 34 23 17 12
21 10 -3 34 34 23 18 13
19 11 -2 34 34 24 19 14
20 11 -2 33 33 23 18 14
20 11 -2 33 32 23 18 13
21 11 -2 32 30 22 17 12
22 11 -2 31 29 21 16 12
23 10 -3 30 28 20 15 11
23 10 -3 28 26 19 14 11
22 10 -3 26 25 18 13 11
21 10 -3 24 23 17 12 11
21 10 -3 23 21 16 11 11
19 9 -2 21 20 15 10 10
17 9 0 21 20 15 10 10
14 9 0 21 20 15 10 10
12 9 1 21 20 15 10 9
9 9 2 21 20 15 10 9
7 9 3 21 21 16 10 8
6 9 3 20 20 15 10 8
5 9 3 19 20 15 10 8
3 9 3 18 19 14 9 8
2 9 3 17 18 13 9 8
1 8 4 16 17 12 8 7
1 7 4 15 16 12 7 5
1 6 4 14 14 11 7 3
0 5 5 12 13 10 6 1
0 4 5 11 11 10 5 0
-2 3 6 10 10 9 4 -3
-4 3 6 9 10 8 3 -3
-5 3 6 9 9 7 2 -3
-7 3 6 8 8 5 1 -3
-9 3 6 7 8 4 0 -3
-10 2 6 6 7 3 -2 -4
-10 2 6 6 7 3 -2 -4
-10 1 6 6 7 3 -2 -4
-11 0 6 6 6 3 -2 -4
-11 0 6 6 6 3 -2 -4
-12 -2 5 5 5 2 -3 -3
-11 -2 5 4 4 1 -4 -4
-10 -2 4 2 3 1 -5 -4
-8 -2 3 1 2 0 -7 -5
-7 -2 3 -2 1 -2 -8 -6
-6 -2 2 -3 0 -3 -9 -7
-6 -2 2 -3 0 -3 -9 -7
-6 -2 2 -2 0 -3 -8 -7
-6 -3 2 0 1 -3 -7 -8
-6 -3 2 0 1 -3 -7 -8
-6 -4 3 1 2 -2 -6 -9
-7 -4 3 1 2 -2 -6 -8
-7 -4 3 1 2 -2 -5 -6
-8 -3 3 1 2 0 -4 -5
-9 -3 3 1 2 0 -4 -3
-10 -2 4 2 3 1 -3 -2
-10 -2 4 2 3 1 -3 -2
-10 -2 4 2 3 1 -3 -2
-9 0 4 3 3 1 -3 -2
-9 0 4 3 3 1 -3 -2
-8 1 4 4 4 0 -4 -3
-7 1 4 4 4 0 -4 -3
-7 1 4 4 4 0 -4 -3
-6 1 4 4 4 0 -5 -4
-5 1 4 4 4 0 -5 -4
-4 2 4 3 3 -2 -6 -5
-6 2 4 3 4 -2 -6 -5
-7 2 4 4 4 0 -5 -5
-9 1 5 5 5 1 -4 -4
-11 1 5 5 6 1 -4 -4
-12 0 6 6 7 2 -3 -3
-13 0 6 6 7 2 -3 -3
-15 0 6 6 7 2 -2 -3
-16 0 7 6 7 3 0 -2
-18 0 7 6 7 3 0 -2
-19 1 8 7 7 4 1 0
-18 1 8 7 7 4 1 -2
-17 1 8 7 7 4 0 -2
-15 1 8 7 7 4 -2 -3
-14 1 8 7 7 4 -2 -4
-12 0 7 7 7 4 -3 -5
-9 0 6 6 7 3 -4 -5
-5 0 5 4 6 3 -5 -6
-2 0 4 3 5 2 -6 -7
2 0 3 1 5 1 -7 -7
4 1 2 0 4 0 -8 -8
0 1 4 2 5 1 -6 -6
-5 1 6 4 5 2 -4 -4
-8 1 8 6 6 3 -2 -2
-12 1 10 7 7 4 0 0
-15 2 12 9 8 5 2 2
-14 2 11 8 7 4 2 2
-12 2 10 7 7 4 1 1
-11 1 9 5 6 3 0 0
-9 1 8 4 5 2 0 0
-8 0 7 3 4 1 -2 -2
-6 0 7 3 4 0 -3 -3
-5 0 6 2 3 -2 -4 -4
-3 0 5 1 2 -3 -6 -6
-2 0 5 1 2 -4 -7 -7
1 1 4 0 1 -5 -8 -8
-2 1 4 0 1 -5 -8 -8
-5 0 4 0 1 -5 -8 -8
-7 -2 4 -2 0 -5 -7 -8
-9 -2 4 -2 0 -5 -7 -8
-11 -3 5 -3 -2 -5 -6 -8
-11 -3 5 -3 -2 -5 -6 -8
-12 -3 6 -2 -2 -5 -6 -8
-13 -3 7 0 -2 -5 -6 -7
-13 -3 7 0 -2 -5 -6 -7
-14 -3 8 1 0 -4 -6 -6
-13 -3 8 0 -2 -5 -6 -6
-11 -3 7 -2 -2 -6 -6 -6
-10 -3 6 -4 -3 -7 -7 -7
-8 -3 6 -5 -4 -8 -7 -7
-7 -2 5 -6 -5 -9 -8 -8
-7 -2 5 -6 -5 -9 -8 -8
-7 -2 5 -6 -5 -9 -8 -8
-7 -2 5 -6 -5 -9 -8 -9
-7 -2 5 -6 -5 -9 -8 -9
-7 -3 4 -6 -6 -9 -9 -10
-8 -3 4 -6 -6 -9 -9 -10
-9 -3 4 -6 -6 -10 -9 -10
-11 -3 4 -7 -7 -11 -9 -10
-12 -3 4 -7 -7 -11 -9 -10
-13 -4 5 -8 -8 -12 -10 -9
-12 -4 5 -8 -8 -12 -10 -9
-12 -4 5 -8 -8 -12 -11 -9
-11 -4 5 -9 -9 -13 -12 -10
-10 -4 5 -9 -9 -13 -12 -10
-9 -3 5 -10 -10 -14 -13 -11
-10 -3 5 -10 -9 -13 -12 -10
-10 -3 5 -9 -9 -12 -12 -10
-11 -4 5 -8 -8 -11 -11 -9
-12 -4 5 -8 -7 -10 -10 -8
-13 -5 6 -7 -6 -9 -9 -7
-12 -4 7 -6 -6 -9 -8 -7
-12 -3 8 -5 -5 -9 -8 -6
-11 -2 9 -4 -5 -8 -7 -6
-10 1 10 -3 -4 -8 -6 -5
-9 2 11 -2 -3 -7 -5 -4
-8 3 11 -2 -3 -7 -5 -4
-6 5 12 -2 -3 -7 -5 -4
-5 6 12 -2 -3 -7 -5 -4
-3 8 13 -2 -3 -7 -5 -4
-2 9 14 -2 -2 -6 -4 -4
-2 10 14 0 0 -5 -4 -4
-2 12 14 1 1 -4 -3 -3
-3 13 15 2 2 -3 -3 -3
-3 15 15 3 3 -2 -2 -2
-4 16 16 4 4 0 0 0
-4 17 16 4 4 0 1 1
-4 18 16 4 4 1 1 2
-5 19 15 4 4 1 2 3
-5 20 15 4 4 2 3 5
-6 21 14 4 4 3 4 6
-5 20 11 4 3 2 4 6
-3 19 9 3 2 1 3 5
-2 18 7 3 1 0 3 5
1 16 4 2 0 -3 2 4
2 15 2 1 -2 -4 1 3
2 14 2 0 -2 -4 1 2
2 14 2 0 -2 -4 1 1
2 13 3 -2 -3 -4 0 0
2 12 3 -3 -3 -4 0 -2
3 11 4 -4 -4 -5 -2 -3
0 9 4 -4 -4 -5 -2 -3
-3 6 4 -4 -4 -5 -3 -3
-5 4 5 -4 -4 -6 -3 -3
-8 2 5 -4 -4 -6 -4 -3
-10 0 6 -5 -5 -7 -5 -4
-10 -2 5 -7 -7 -9 -6 -5
-10 -2 5 -9 -10 -11 -7 -6
-10 -3 4 -11 -12 -13 -8 -7
-10 -4 3 -13 -14 -15 -10 -9
-9 -5 2 -15 -16 -17 -11 -10
-9 -5 2 -15 -16 -17 -11 -10
-9 -5 2 -15 -16 -17 -12 -11
-9 -6 2 -15 -16 -17 -12 -11
-9 -6 2 -15 -16 -17 -13 -12
-10 -7 1 -15 -15 -18 -14 -13
-12 -7 1 -15 -15 -18 -14 -13
-13 -7 2 -15 -15 -18 -14 -13
-15 -8 2 -15 -15 -18 -14 -13
-16 -8 3 -15 -15 -18 -14 -13
-18 -9 4 -14 -14 -17 -14 -13
-17 -9 4 -14 -14 -17 -14 -13
-16 -9 4 -14 -14 -17 -14 -13
-15 -9 4 -14 -15 -17 -14 -13
-13 -9 4 -14 -15 -17 -14 -13
-12 -10 3 -15 -16 -18 -15 -14
-12 -10 3 -15 -16 -18 -15 -14
-12 -10 3 -15 -16 -18 -15 -14
-12 -10 3 -15 -16 -18 -15 -14
-12 -10 3 -15 -16 -18 -15 -14
-11 -11 2 -15 -15 -18 -15 -13
-13 -11 2 -15 -15 -18 -15 -13
-16 -11 2 -15 -15 -18 -15 -13
-18 -11 3 -14 -14 -18 -15 -12
-20 -11 3 -14 -14 -18 -15 -12
-22 -10 5 -12 -12 -17 -15 -12
-22 -13 12 -7 -8 -17 -19 -16
-22 -16 19 -3 -3 -17 -23 -20
-22 -19 25 3 3 -18 -27 -24
-22 -22 32 8 7 -18 -31 -28
-23 -25 38 13 12 -19 -34 -32
-22 -25 44 20 19 -16 -35 -34
-21 -25 49 27 26 -13 -36 -36
-20 -26 55 34 33 -10 -37 -38
-18 -26 60 42 40 -8 -38 -40
-12 -23 58 48 48 3 -31 -36
9 -5 36 51 53 29 1 -11
29 14 14 55 58 56 31 15
50 32 -9 59 63 84 63 40
70 51 -31 63 68 110 95 65
89 69 -54 65 71 137 126 91
101 85 -72 62 66 159 156 117
114 100 -92 58 60 183 186 143
127 115 -111 54 55 206 217 169
139 131 -131 50 49 230 246 195
146 140 -146 39 37 237 262 210
131 125 -150 11 9 198 232 190
116 110 -154 -18 -20 158 203 171
102 96 -158 -48 -49 119 174 150
87 80 -162 -76 -77 79 145 131
71 66 -165 -101 -102 43 115 109
54 52 -160 -113 -114 12 85 86
37 37 -155 -127 -128 -19 54 62
20 23 -150 -139 -140 -50 23 37
3 9 -145 -151 -152 -80 -7 14
-11 -4 -138 -158 -159 -103 -30 -6
-14 -9 -123 -146 -147 -98 -33 -11
-16 -14 -109 -134 -135 -94 -36 -15
-19 -19 -95 -121 -122 -89 -39 -20
-22 -24 -80 -109 -110 -83 -43 -25
-24 -28 -67 -98 -99 -78 -46 -29
-21 -28 -58 -89 -90 -73 -46 -29
-19 -29 -49 -79 -80 -68 -45 -29
-17 -29 -39 -70 -71 -63 -45 -30
-14 -30 -29 -61 -61 -58 -44 -30
-12 -31 -22 -53 -53 -53 -43 -31
-14 -30 -18 -48 -49 -49 -41 -29
-16 -28 -14 -41 -44 -45 -39 -27
-19 -27 -10 -36 -38 -40 -37 -26
-21 -26 -6 -31 -33 -36 -36 -24
-23 -24 -2 -26 -29 -32 -34 -22
-22 -24 0 -25 -27 -31 -33 -22
-21 -24 1 -23 -25 -30 -31 -22
-20 -23 2 -22 -24 -29 -30 -23
-18 -23 3 -21 -22 -28 -29 -23
-17 -22 4 -19 -20 -27 -27 -24
-17 -22 4 -19 -20 -27 -27 -23
-18 -22 4 -19 -20 -27 -27 -21
-19 -22 5 -19 -19 -26 -26 -20
-20 -22 5 -19 -19 -26 -26 -19
-21 -21 6 -18 -18 -25 -25 -17
-19 -21 6 -18 -18 -25 -25 -17
-17 -21 6 -18 -18 -25 -25 -18
-14 -22 6 -18 -18 -25 -25 -18
-12 -22 6 -18 -18 -25 -25 -19
-10 -23 6 -17 -18 -25 -26 -20
-10 -22 6 -17 -18 -25 -26 -20
-11 -21 6 -17 -17 -24 -26 -20
-11 -20 6 -16 -17 -24 -26 -20
-12 -19 6 -16 -16 -23 -26 -20
-13 -18 7 -15 -15 -22 -25 -21
-13 -18 7 -14 -14 -22 -24 -21
-14 -18 8 -13 -13 -21 -23 -20
-15 -18 9 -12 -12 -21 -22 -20
-16 -18 10 -11 -11 -20 -21 -19
-17 -18 11 -10 -10 -19 -20 -18
-15 -18 11 -10 -10 -19 -20 -18
-13 -18 11 -11 -11 -19 -21 -18
-10 -18 10 -11 -12 -19 -21 -19
-8 -18 10 -12 -13 -19 -22 -19
-6 -17 9 -13 -14 -20 -23 -20
-8 -17 9 -12 -12 -19 -22 -20
-9 -17 10 -10 -11 -17 -21 -19
-11 -17 10 -8 -9 -16 -20 -19
-13 -17 11 -7 -7 -15 -18 -18
-15 -18 12 -5 -5 -13 -17 -17
-15 -18 12 -5 -5 -13 -17 -17
-15 -18 12 -6 -5 -14 -18 -17
-15 -18 11 -6 -5 -14 -18 -17
-15 -18 11 -7 -5 -15 -19 -17
-15 -19 10 -8 -6 -16 -20 -18
-13 -19 10 -7 -6 -16 -20 -18
-12 -18 10 -5 -5 -16 -20 -18
-10 -18 10 -4 -4 -16 -20 -19
-8 -17 10 -3 -3 -16 -20 -19
-6 -16 10 0 -2 -15 -20 -20
-7 -16 10 1 0 -14 -19 -18
-8 -16 10 3 2 -13 -17 -17
-9 -16 10 5 4 -12 -16 -15
-11 -16 10 6 5 -10 -15 -13
-12 -15 11 8 7 -9 -13 -11
-11 -15 11 10 8 -9 -13 -11
-9 -15 11 11 10 -8 -13 -11
-7 -15 11 13 12 -7 -12 -11
-6 -15 11 15 13 -6 -12 -11
-4 -16 11 17 15 -5 -11 -12
-4 -16 11 17 16 -5 -11 -12
-4 -16 11 18 17 -4 -11 -12
-3 -15 12 19 18 -3 -11 -12
-3 -15 12 20 20 -2 -11 -12
-2 -14 13 21 21 0 -10 -12
-2 -14 13 23 23 2 -10 -12
-2 -14 14 25 25 3 -9 -12
-2 -14 14 27 27 5 -8 -11
-2 -14 15 29 29 7 -7 -11
-2 -13 16 31 31 9 -6 -10
1 -13 16 32 32 10 -6 -10
3 -13 16 33 33 11 -5 -9
5 -13 16 34 34 12 -4 -8
7 -13 16 35 35 14 -3 -7
9 -12 15 36 36 15 -2 -6
9 -12 15 38 38 16 0 -6
10 -11 15 39 39 18 1 -5
10 -11 15 42 42 20 2 -5
11 -10 15 44 44 21 3 -4
12 -9 15 46 46 23 4 -3
12 -9 15 46 46 24 4 -2
12 -9 15 47 47 25 5 0
12 -8 15 48 48 26 6 1
12 -8 15 49 49 27 7 2
12 -7 14 50 50 28 8 3
14 -7 14 51 51 29 8 3
16 -6 14 52 52 30 9 4
18 -6 14 53 53 31 10 4
20 -5 14 55 55 32 11 5
22 -4 15 56 56 33 12 6
22 -3 14 56 56 33 13 7
22 -2 13 55 56 34 14 8
22 0 12 55 55 34 15 9
22 2 11 54 55 35 17 11
22 3 10 53 54 36 18 12
22 3 10 53 53 35 18 12
22 3 9 52 52 34 17 12
23 3 9 51 51 33 17 11
23 3 8 50 50 31 16 11
24 3 7 49 49 30 15 10
24 3 7 48 49 30 15 10
23 3 7 47 48 30 15 10
22 3 7 46 47 30 15 10
21 3 7 45 46 30 15 10
20 4 7 43 45 30 16 11
20 4 7 42 44 30 16 11
21 4 6 40 42 29 16 11
21 4 6 39 40 28 16 12
22 4 5 38 39 27 16 12
23 5 4 37 37 26 17 13
23 5 4 36 36 25 17 13
23 5 4 34 34 24 17 13
23 5 4 32 32 23 16 12
23 5 4 31 31 22 16 12
22 6 3 29 29 21 15 11
19 6 3 29 29 21 15 11
17 6 4 29 29 21 14 10
14 6 4 28 29 20 14 10
12 6 5 28 29 20 13 9
9 5 6 27 28 19 12 8
9 5 6 27 27 19 12 8
8 5 7 27 26 19 12 8
7 5 7 26 25 19 12 8
6 5 8 26 24 19 12 8
5 6 9 25 23 18 11 7
6 6 9 24 22 18 10 7
7 6 9 23 21 17 8 6
8 6 8 22 20 16 7 5
9 6 8 21 19 15 6 4
10 5 7 19 18 14 4 3
8 5 7 19 18 14 4 3
5 4 7 18 18 14 4 3
3 4 8 18 17 13 4 3
1 3 8 17 17 13 4 3
-3 2 9 16 16 12 5 2
-2 2 9 15 15 11 4 2
0 1 8 14 13 10 2 1
1 1 7 12 11 8 0 1
2 0 6 11 10 7 -2 0
4 -2 5 9 8 5 -4 -2
1 -2 5 9 8 5 -4 -2
-3 -2 6 9 8 5 -3 -2
-7 -2 7 9 8 6 -3 -2
-10 -2 8 9 8 6 -2 -2
-13 0 9 9 8 7 0 0
-11 0 8 9 8 7 0 0
-9 -2 7 9 8 7 -2 -2
-7 -2 6 8 7 6 -2 -3
-4 -3 5 8 7 6 -3 -4
-2 -4 4 7 6 5 -4 -5
-3 -4 4 7 6 5 -4 -5
-4 -4 4 7 6 5 -4 -5
-6 -3 5 7 6 4 -3 -5
-7 -3 5 7 6 4 -3 -5
-9 -2 6 7 6 3 -2 -4
-10 -2 6 7 6 3 -2 -4
-11 -2 6 8 6 3 -2 -3
-12 -2 7 9 6 4 -2 -2
-13 -2 7 10 6 4 -2 0
-15 -2 8 11 7 5 0 1
-13 -2 8 10 7 5 0 1
-11 -2 7 9 7 5 0 0
-9 -2 7 8 6 5 -2 -2
-6 -2 6 7 6 5 -2 -3
-4 -3 5 6 5 4 -3 -4
-3 -3 5 6 5 4 -3 -4
-2 -3 5 6 5 4 -3 -4
0 -2 5 6 5 4 -4 -5
1 -2 5 6 5 4 -4 -5
2 0 5 7 6 4 -5 -6
-2 0 5 8 7 5 -4 -5
-5 0 6 9 8 6 -3 -4
-8 0 7 10 9 8 0 -3
-11 0 8 11 10 9 1 -2
-14 0 9 13 11 11 3 1
-12 0 9 13 11 11 2 0
-10 0 8 13 11 10 1 -2
-8 0 8 12 11 9 0 -3
-6 0 7 12 11 8 -2 -4
-4 1 6 11 10 7 -3 -5
-4 1 6 11 10 7 -3 -5
-3 1 6 11 10 7 -3 -5
-2 1 6 10 9 6 -3 -5
0 1 6 10 9 6 -3 -5
1 2 5 9 8 5 -3 -5
1 2 5 9 8 5 -3 -4
0 2 6 10 9 6 -2 -3
-2 2 6 10 9 6 0 -2
-3 2 7 11 10 7 1 0
-4 1 8 12 11 8 2 1
-5 1 8 12 11 8 2 1
-7 1 8 12 11 8 2 1
-8 1 8 12 11 8 2 0
-10 1 8 12 11 8 2 0
-12 0 8 11 10 8 1 -2
-11 0 8 11 10 8 1 -2
-10 0 8 11 10 7 1 -2
-9 0 7 10 9 7 0 -2
-8 0 7 10 9 6 0 -2
-7 0 6 9 8 5 -2 -2
-7 0 6 9 8 5 -2 -2
-7 0 6 8 7 5 -2 -2
-7 -2 6 7 6 4 -2 -2
-7 -2 6 6 5 4 -2 -2
-6 -3 5 5 4 3 -3 -3
-6 -3 5 5 4 3 -3 -3
-6 -3 5 5 4 2 -4 -4
-6 -3 5 5 4 2 -4 -4
-6 -3 5 5 4 1 -5 -5
-7 -3 5 4 3 0 -6 -6
-5 -3 5 4 3 0 -6 -6
-3 -3 5 3 2 0 -6 -7
0 -3 4 3 2 -2 -7 -7
2 -3 4 2 1 -2 -7 -8
4 -3 3 1 0 -3 -8 -9
2 -3 3 1 0 -3 -8 -9
0 -3 3 1 0 -3 -8 -8
-4 -4 4 1 0 -3 -7 -7
-6 -4 4 1 0 -3 -7 -6
-9 -5 5 1 0 -2 -6 -5
-9 -5 5 1 0 -2 -6 -5
-9 -5 4 0 -2 -3 -7 -5
-9 -5 4 -2 -3 -4 -8 -6
-9 -5 3 -3 -4 -5 -9 -6
-9 -5 2 -4 -5 -6 -10 -7
-9 -5 2 -4 -5 -6 -10 -7
-9 -5 2 -4 -5 -6 -10 -7
-9 -5 3 -3 -5 -5 -9 -6
-9 -5 3 -3 -5 -5 -9 -6
-9 -5 4 -2 -4 -4 -8 -5
-9 -5 4 -3 -4 -5 -8 -6
-9 -5 4 -4 -4 -6 -9 -7
-8 -5 3 -5 -4 -7 -9 -8
-8 -5 3 -6 -4 -8 -10 -9
-7 -5 2 -7 -5 -9 -11 -10
-7 -5 2 -7 -5 -9 -11 -10
-8 -5 3 -7 -5 -9 -11 -10
-9 -5 3 -7 -5 -9 -11 -10
-10 -5 4 -7 -5 -9 -11 -10
-11 -5 5 -6 -5 -8 -11 -9
-10 -5 5 -6 -5 -8 -11 -9
-9 -5 5 -6 -6 -8 -11 -9
-8 -5 4 -7 -7 -9 -11 -10
-7 -5 4 -7 -8 -9 -11 -10
-6 -4 3 -8 -9 -10 -12 -11
-6 -3 4 -7 -9 -9 -12 -10
-6 -2 5 -6 -8 -8 -11 -9
-5 1 6 -4 -7 -7 -11 -7
-5 2 7 -3 -6 -6 -10 -6
-4 4 9 0 -5 -4 -9 -4
-4 5 9 0 -4 -4 -9 -4
-4 6 9 0 -3 -4 -8 -4
-5 7 9 1 -2 -3 -7 -3
-5 8 9 1 0 -3 -6 -3
-6 9 10 2 1 -2 -5 -2
-5 9 10 2 1 -2 -5 -2
-4 9 10 2 2 0 -5 -2
-3 9 11 3 2 0 -4 -3
-2 9 11 3 3 1 -4 -3
0 10 12 4 4 2 -3 -4
1 12 12 4 4 2 -3 -3
2 14 11 4 4 2 -3 -2
3 17 10 4 4 2 -2 0
4 19 9 4 4 2 -2 1
5 22 8 4 4 3 0 2
5 21 7 4 4 3 0 2
6 19 6 4 4 3 1 2
6 17 5 4 4 2 2 3
7 15 4 4 4 2 3 3
8 13 3 4 3 1 4 4
7 13 3 4 3 1 4 4
6 12 2 4 2 2 3 4
5 11 2 4 1 2 2 4
4 10 1 4 0 3 1 4
2 9 0 3 -2 4 0 5
2 8 0 3 -2 3 0 4
1 7 1 2 -2 2 -2 3
1 6 2 2 -2 1 -2 2
0 5 3 1 -2 0 -3 1
-2 4 4 0 0 -3 -4 0
-2 2 3 -3 -3 -5 -6 -3
-2 0 2 -6 -6 -7 -8 -5
-3 -3 0 -9 -9 -10 -10 -7
-3 -5 -2 -12 -12 -12 -12 -9
-4 -7 -4 -15 -15 -15 -14 -11
-7 -7 -3 -15 -15 -15 -14 -11
-11 -7 -2 -14 -14 -14 -14 -11
-15 -7 0 -14 -13 -14 -13 -11
-19 -7 1 -13 -12 -13 -13 -11
-23 -8 2 -12 -11 -12 -12 -11
-22 -8 2 -12 -11 -12 -12 -11
-21 -9 2 -12 -12 -13 -12 -11
-19 -9 1 -13 -13 -13 -13 -11
-18 -10 1 -13 -14 -14 -13 -11
-16 -11 0 -14 -15 -15 -14 -10
-16 -11 0 -14 -15 -15 -14 -10
-16 -11 0 -14 -15 -15 -15 -10
-15 -11 0 -14 -15 -16 -15 -10
-15 -11 0 -14 -15 -16 -16 -10
-14 -11 -2 -15 -15 -17 -17 -11
-13 -11 -2 -15 -15 -17 -17 -11
-12 -11 -2 -15 -15 -17 -17 -11
-11 -11 -2 -15 -15 -17 -17 -11
-10 -11 -2 -15 -15 -17 -17 -11
-9 -10 -2 -16 -16 -17 -16 -11
-10 -10 -2 -16 -16 -17 -16 -11
-11 -10 -2 -16 -16 -17 -16 -11
-12 -11 -2 -16 -16 -17 -16 -11
-13 -11 -2 -16 -16 -17 -16 -11
-14 -12 0 -15 -16 -17 -17 -12
-14 -14 5 -12 -13 -17 -19 -14
-14 -17 11 -8 -9 -18 -21 -16
-14 -20 17 -4 -5 -18 -24 -19
-14 -23 23 1 0 -19 -26 -21
-14 -25 28 4 3 -19 -28 -23
-14 -26 36 12 11 -18 -31 -26
-15 -26 45 20 19 -15 -33 -29
-16 -27 53 28 27 -12 -35 -31
-17 -27 61 36 35 -9 -37 -34
-18 -27 69 45 44 -7 -39 -36
1 -11 49 53 52 22 -10 -13
21 8 27 61 60 50 21 12
40 26 6 68 67 78 52 36
61 45 -16 76 75 107 84 61
80 62 -37 84 82 135 114 86
95 79 -59 80 79 159 145 111
109 97 -81 76 75 184 176 138
123 114 -103 72 71 209 206 163
138 132 -124 68 67 232 237 189
152 149 -146 64 63 257 268 215
141 137 -154 33 32 221 243 199
128 123 -161 2 2 183 217 182
114 110 -169 -29 -30 145 190 164
102 96 -176 -61 -61 106 163 147
89 82 -183 -92 -92 68 137 130
71 65 -178 -107 -107 33 103 104
53 47 -172 -122 -122 -3 70 78
35 29 -164 -138 -138 -37 36 52
18 12 -158 -152 -152 -72 3 26
1 -6 -152 -168 -168 -108 -31 1
-5 -11 -136 -156 -156 -104 -35 -5
-10 -15 -120 -142 -143 -98 -38 -10
-14 -20 -104 -129 -130 -93 -41 -15
-19 -24 -89 -115 -116 -87 -45 -20
-23 -28 -72 -102 -103 -81 -48 -25
-23 -29 -62 -92 -93 -75 -48 -26
-22 -29 -52 -81 -82 -70 -47 -26
-21 -30 -41 -71 -72 -64 -45 -26
-20 -30 -31 -61 -62 -59 -44 -26
-19 -30 -21 -51 -52 -54 -43 -26
-18 -30 -18 -47 -48 -50 -40 -27
-18 -29 -15 -43 -44 -47 -38 -26
-17 -28 -12 -38 -39 -43 -36 -25
-17 -27 -9 -34 -35 -39 -34 -24
-17 -26 -6 -31 -32 -36 -32 -24
-15 -25 -5 -29 -30 -35 -31 -23
-14 -24 -5 -28 -29 -35 -31 -23
-12 -23 -4 -27 -28 -35 -31 -23
-11 -22 -4 -26 -27 -35 -31 -23
-10 -21 -4 -25 -26 -35 -31 -23
-10 -20 -2 -23 -24 -34 -31 -22
-12 -20 0 -22 -23 -33 -30 -21
-14 -19 2 -21 -21 -31 -29 -19
-16 -19 3 -20 -20 -30 -28 -18
-17 -19 4 -19 -19 -29 -27 -17
-18 -18 5 -18 -18 -28 -26 -16
-18 -18 5 -18 -18 -28 -26 -16
-18 -19 5 -18 -18 -28 -26 -17
-18 -19 5 -18 -18 -28 -26 -17
-18 -19 5 -18 -18 -28 -26 -17
-17 -20 5 -18 -18 -28 -26 -18
-16 -20 5 -18 -18 -28 -26 -18
-16 -20 6 -18 -18 -28 -26 -18
-15 -20 6 -18 -18 -28 -26 -18
-15 -20 6 -18 -18 -28 -26 -18
-14 -19 7 -18 -17 -27 -26 -18
-15 -19 7 -17 -16 -27 -26 -18
-16 -19 7 -16 -16 -26 -26 -18
-17 -19 7 -15 -15 -26 -26 -18
-17 -19 7 -14 -15 -26 -26 -18
-18 -20 8 -13 -14 -25 -27 -19
-18 -19 8 -13 -14 -25 -26 -18
-17 -19 8 -13 -13 -24 -26 -18
-17 -18 8 -13 -13 -24 -25 -17
-17 -18 8 -13 -13 -24 -25 -17
-16 -17 9 -12 -12 -23 -24 -16
-16 -17 9 -12 -11 -23 -24 -16
-16 -17 10 -11 -11 -23 -24 -16
-16 -17 10 -11 -10 -23 -24 -16
-16 -17 10 -11 -10 -23 -24 -16
-16 -16 11 -10 -9 -22 -23 -16
-15 -16 11 -10 -9 -21 -23 -16
-15 -16 11 -9 -9 -20 -23 -16
-14 -16 11 -9 -9 -19 -23 -16
-14 -16 11 -9 -9 -19 -23 -16
-12 -16 10 -8 -8 -18 -22 -16
-10 -16 10 -8 -7 -18 -22 -16
-9 -16 10 -8 -6 -18 -21 -15
-7 -16 10 -8 -5 -18 -21 -15
-6 -16 10 -8 -5 -18 -21 -15
-5 -15 11 -6 -4 -18 -20 -14
-6 -15 11 -5 -3 -17 -19 -14
-7 -15 11 -4 -3 -16 -18 -13
-8 -15 11 -3 -2 -15 -17 -13
-8 -15 11 -2 -2 -14 -17 -13
-9 -14 12 1 1 -13 -16 -12
-9 -14 13 3 3 -12 -16 -12
-10 -13 13 5 5 -12 -15 -12
-10 -13 14 7 7 -11 -15 -12
-10 -13 14 8 8 -11 -15 -12
-9 -12 15 9 9 -10 -14 -11
-5 -12 15 9 9 -10 -14 -11
-2 -12 14 9 10 -10 -15 -11
2 -12 14 9 10 -10 -15 -11
5 -12 14 9 10 -10 -15 -11
4 -12 14 11 13 -7 -14 -11
2 -12 15 14 15 -5 -12 -10
-2 -12 16 17 18 -2 -10 -8
-5 -12 17 20 21 2 -8 -7
-7 -12 18 23 23 4 -6 -6
-8 -11 19 24 25 5 -5 -5
-7 -10 19 25 26 6 -4 -4
-6 -9 19 26 27 7 -3 -4
-5 -8 19 27 28 8 -2 -3
-4 -8 19 28 29 9 -2 -3
-2 -7 20 30 31 11 0 -2
0 -7 20 32 33 12 1 0
2 -7 20 34 34 14 2 1
3 -7 20 36 36 15 3 2
4 -7 20 37 37 16 3 3
8 -7 20 38 38 17 4 4
12 -6 19 38 38 17 4 4
16 -6 18 38 39 18 5 4
19 -5 17 38 39 18 5 4
23 -5 16 38 39 18 5 4
24 -4 15 40 40 19 6 4
24 -3 15 42 42 20 7 5
24 -2 15 43 43 21 7 7
24 0 15 44 44 22 8 8
24 0 15 45 45 23 8 9
24 2 15 46 46 25 10 11
22 3 15 47 47 26 12 12
21 5 15 47 47 28 14 14
19 6 15 48 48 29 16 15
18 7 15 48 48 30 17 16
19 8 14 48 49 31 18 17
21 8 13 47 48 30 17 17
23 8 12 46 47 29 16 16
26 8 11 45 46 28 15 16
28 8 10 44 45 27 15 16
28 8 9 43 44 26 15 15
26 8 9 43 43 26 16 16
24 9 9 42 43 26 17 17
23 9 9 42 42 26 18 18
21 9 9 42 42 26 19 19
20 10 9 39 39 26 20 20
20 10 9 38 38 25 19 20
21 11 8 36 37 24 19 19
21 11 8 35 36 23 18 19
21 11 8 34 35 23 18 19
22 12 7 32 33 22 17 18
23 13 7 31 32 21 17 18
23 13 6 29 30 20 16 17
24 14 6 28 29 19 16 17
24 14 6 27 28 18 16 17
24 15 5 26 27 17 15 16
21 15 5 26 27 17 14 16
19 14 5 25 26 17 14 15
17 14 5 25 26 17 13 15
15 14 5 25 26 17 13 15
14 13 6 24 25 16 12 14
13 13 6 24 24 16 12 14
13 12 7 23 23 16 12 14
12 12 7 23 22 16 12 14
12 12 7 23 21 16 12 14
10 11 8 22 20 15 10 12
9 11 8 21 20 14 9 11
8 11 9 20 19 14 8 10
7 11 9 19 19 13 7 9
6 11 9 19 19 13 6 8
4 11 10 18 18 12 5 7
2 10 10 17 17 11 5 7
0 9 10 16 16 10 5 7
-2 8 10 15 15 9 5 7
-4 7 10 14 14 9 5 7
-5 6 11 12 13 8 4 6
-6 5 11 11 12 7 3 6
-7 5 11 10 11 6 3 5
-8 4 11 9 10 5 2 5
-9 4 11 8 9 4 2 5
-10 3 11 7 8 3 1 4
-10 3 10 6 7 2 0 3
-10 3 10 5 6 2 0 3
-10 3 9 4 5 1 -2 2
-10 3 9 4 5 1 -2 2
-9 3 8 3 4 0 -3 1
-8 3 8 2 3 -2 -4 1
-7 2 8 1 2 -2 -4 1
-6 2 8 0 1 -3 -5 1
-6 2 8 -2 1 -3 -5 1
-5 1 7 -3 0 -4 -6 0
-6 1 7 -2 0 -4 -5 1
-7 2 7 0 1 -3 -5 1
-8 2 7 1 1 -3 -4 2
-9 2 7 1 1 -3 -4 2
-10 3 7 2 2 -2 -3 3
-10 3 7 2 2 -2 -3 3
-11 3 7 2 2 -2 -3 3
-11 3 7 2 2 -2 -3 3
-11 3 7 2 2 -2 -3 3
-12 3 7 2 3 -2 -3 3
-12 3 7 2 3 0 -3 3
-12 4 7 2 3 0 -3 3
-12 4 7 2 3 1 -3 3
-12 4 7 2 3 1 -3 3
-12 5 6 2 3 2 -4 4
-11 5 6 2 3 2 -3 4
-11 5 7 2 3 2 -3 4
-10 5 7 2 3 2 -2 4
-10 5 7 2 3 2 -2 4
-9 5 8 3 4 1 0 4
-8 5 8 3 4 1 0 4
-7 5 7 3 4 1 -2 3
-6 5 7 3 4 1 -2 3
-6 5 7 3 4 1 -2 3
-5 5 6 3 4 0 -3 2
-6 5 7 3 4 0 -3 2
-7 5 7 4 5 1 -2 3
-8 5 8 4 5 1 -2 3
-9 5 8 4 5 1 -2 3
-10 5 9 5 6 2 0 4
-11 5 9 6 7 3 1 4
-11 5 10 6 7 3 1 5
-12 5 10 7 8 4 2 5
-12 5 10 7 8 4 2 5
-12 4 11 8 9 5 3 6
-11 4 10 7 8 4 2 5
-9 4 9 7 8 3 1 4
-7 4 8 6 7 2 0 3
-6 4 8 6 7 2 0 3
-5 4 7 5 6 1 -2 2
-7 4 8 5 6 2 0 3
-8 4 8 5 7 3 0 3
-9 4 9 5 7 4 1 4
-10 4 9 5 7 4 1 4
-11 5 10 6 8 5 2 5
-10 5 10 6 7 4 2 5
-9 5 10 5 7 4 1 4
-8 5 10 5 6 3 1 4
-8 5 10 5 6 3 1 4
-7 4 9 4 5 2 0 3
-8 4 9 4 5 2 0 3
-8 3 9 4 5 2 0 3
-9 3 9 4 5 2 0 3
-9 3 9 4 5 2 0 3
-10 2 9 3 4 1 -2 2
-11 2 9 3 4 1 -2 2
-11 1 9 3 4 1 -2 2
-12 1 9 3 4 1 -2 2
-12 1 9 3 4 1 -2 2
-13 0 10 2 4 1 0 3
-12 0 9 1 3 0 -2 2
-11 1 8 0 3 -2 -2 1
-10 1 7 -2 2 -3 -3 0
-10 1 7 -3 2 -4 -3 0
-10 2 6 -4 1 -5 -4 -2
-11 2 7 -4 1 -5 -4 -2
-12 1 7 -3 1 -5 -4 0
-14 1 8 -3 1 -5 -4 0
-15 1 8 -3 1 -5 -4 0
-15 0 9 -2 1 -5 -5 1
-13 0 8 -3 -2 -5 -5 1
-10 1 7 -4 -3 -5 -5 0
-8 1 6 -5 -4 -5 -5 0
-6 1 5 -6 -5 -5 -5 0
-6 2 4 -7 -6 -6 -6 -2
-8 1 4 -7 -6 -7 -6 -2
-10 0 5 -7 -6 -7 -6 -2
-11 -2 5 -7 -6 -8 -6 -2
-13 -2 5 -7 -6 -8 -6 -2
-14 -3 6 -7 -6 -9 -7 -2
-15 -3 6 -7 -6 -9 -7 -2
-16 -3 6 -7 -6 -9 -7 -2
-17 -3 6 -7 -6 -9 -7 -2
-17 -3 6 -7 -6 -9 -7 -2
-18 -3 7 -6 -5 -8 -8 -2
-17 -3 7 -7 -6 -9 -8 -2
-16 -3 6 -7 -6 -9 -8 -2
-15 -3 6 -8 -7 -10 -8 -2
-15 -3 6 -8 -7 -10 -8 -2
-14 -4 5 -9 -8 -11 -8 -3
-12 -4 5 -9 -8 -11 -9 -3
-11 -4 4 -9 -8 -12 -9 -4
-10 -4 4 -9 -8 -12 -10 -4
-9 -4 4 -9 -8 -12 -10 -4
-9 -4 3 -10 -9 -13 -11 -5
-11 -4 4 -10 -9 -12 -10 -5
-14 -4 5 -9 -8 -12 -9 -4
-16 -4 6 -9 -8 -11 -8 -4
-18 -4 6 -9 -8 -11 -8 -4
-18 -5 7 -8 -7 -10 -7 -3
-16 -4 7 -8 -7 -10 -8 -3
-14 -4 6 -9 -7 -10 -8 -4
-12 -3 6 -9 -7 -10 -9 -4
-10 -3 6 -9 -7 -10 -9 -4
-9 -2 5 -10 -8 -11 -10 -5
-10 -2 6 -9 -7 -11 -10 -5
-10 -2 7 -9 -7 -10 -10 -4
-11 -2 8 -8 -6 -10 -10 -4
-11 -2 8 -8 -6 -10 -10 -4
-12 -2 9 -6 -5 -9 -8 -3
-12 1 10 -5 -3 -7 -7 0
-12 3 11 -4 -2 -6 -5 1
-12 5 12 -2 0 -5 -3 2
-12 7 13 0 1 -4 -2 3
-13 8 14 1 2 -3 0 4
-12 9 15 2 3 -3 0 4
-11 10 15 2 3 -3 0 4
-10 11 16 3 4 -3 0 4
-9 11 16 3 4 -3 0 4
-8 13 17 4 5 -2 1 3
-7 14 17 4 5 0 1 4
-6 15 16 4 5 0 2 4
-6 17 16 4 5 1 2 5
-5 18 16 4 5 1 2 5
-4 19 15 5 5 2 3 6
-5 19 14 6 6 3 4 7
-6 20 14 6 7 3 5 8
-6 20 13 7 7 4 6 9
-7 20 13 7 8 4 7 10
-7 21 11 8 9 5 8 11
-5 20 10 6 8 4 7 10
-2 19 8 5 7 4 7 9
1 18 7 4 6 3 6 9
3 17 5 3 5 3 6 8
3 15 4 2 4 2 5 7
2 14 4 2 4 2 5 7
0 13 4 2 4 1 4 6
-2 11 4 2 4 1 4 6
-4 10 4 2 4 1 4 6
-6 9 5 1 3 0 3 5
-8 8 5 0 2 -2 2 4
-9 7 6 -2 1 -3 1 3
-11 6 6 -4 0 -4 0 3
-13 5 6 -5 -2 -5 -2 2
-15 3 7 -6 -3 -6 -3 1
-16 1 7 -7 -5 -7 -5 -2
-18 -3 6 -8 -6 -8 -6 -3
-19 -5 6 -8 -7 -9 -7 -4
-21 -7 6 -9 -8 -10 -8 -5
-22 -8 5 -10 -9 -11 -9 -6
-20 -8 5 -10 -9 -11 -9 -7
-19 -8 5 -11 -10 -12 -9 -7
-18 -8 5 -11 -10 -12 -9 -8
-17 -8 5 -11 -10 -12 -9 -8
-16 -8 4 -12 -11 -13 -10 -9
-16 -8 4 -12 -11 -13 -10 -9
-16 -8 3 -12 -11 -14 -11 -9
-16 -8 3 -12 -11 -14 -11 -9
-16 -8 3 -12 -11 -14 -11 -9
-17 -9 2 -13 -12 -15 -12 -10
-19 -9 2 -13 -12 -15 -12 -10
-20 -9 3 -13 -12 -14 -12 -10
-21 -9 3 -13 -12 -14 -12 -10
-22 -9 3 -13 -12 -14 -12 -10
-21 -10 4 -12 -12 -13 -11 -9
-19 -10 3 -13 -13 -15 -12 -10
-16 -10 3 -13 -13 -16 -12 -10
-13 -10 2 -14 -14 -17 -13 -11
-10 -10 2 -14 -14 -18 -13 -11
-11 -10 1 -15 -15 -19 -14 -12
-15 -10 3 -13 -13 -17 -13 -12
-19 -10 4 -12 -12 -16 -13 -11
-23 -10 6 -10 -10 -14 -12 -11
-27 -10 7 -9 -9 -13 -12 -11
-29 -13 14 -4 -4 -12 -14 -13
-29 -17 23 3 3 -13 -19 -19
-29 -20 31 9 10 -14 -24 -25
-29 -24 40 15 16 -14 -29 -30
-29 -27 50 22 23 -15 -34 -36
-23 -26 52 28 29 -10 -31 -36
-15 -22 49 34 35 -2 -24 -31
-6 -17 47 40 42 8 -16 -27
3 -12 45 47 48 17 -8 -23
12 -8 42 54 54 26 0 -19
30 10 24 59 59 51 27 5
52 33 1 65 65 80 63 36
74 56 -24 70 70 111 99 68
96 78 -48 75 75 142 136 99
118 102 -71 81 81 173 172 131
127 115 -94 71 71 185 191 151
129 126 -114 53 53 188 204 167
130 136 -135 33 34 191 218 182
132 146 -156 15 16 194 231 198
134 155 -177 -4 -3 197 244 214
123 143 -185 -30 -29 167 223 198
106 119 -187 -60 -59 119 186 169
89 96 -189 -90 -89 72 148 139
71 72 -192 -119 -118 26 110 109
54 49 -194 -148 -147 -21 73 79
38 31 -185 -156 -155 -45 47 57
25 18 -170 -153 -152 -58 25 37
11 4 -153 -149 -149 -71 4 19
-4 -11 -138 -146 -146 -85 -19 1
-17 -24 -121 -143 -143 -97 -40 -19
-22 -29 -107 -133 -132 -97 -47 -25
-24 -29 -93 -119 -118 -90 -45 -25
-25 -29 -78 -106 -105 -81 -44 -26
-26 -29 -64 -93 -92 -74 -41 -26
-27 -29 -50 -79 -78 -66 -39 -26
-27 -30 -40 -69 -68 -60 -37 -27
-25 -30 -33 -61 -61 -56 -36 -27
-24 -30 -27 -54 -53 -51 -34 -26
-22 -30 -20 -46 -46 -47 -33 -26
-20 -30 -14 -37 -37 -41 -31 -26
-20 -29 -10 -33 -33 -38 -29 -25
-21 -27 -7 -31 -30 -36 -27 -23
-23 -26 -5 -29 -28 -34 -26 -22
-24 -24 -3 -26 -26 -31 -24 -20
-26 -23 1 -24 -23 -29 -22 -19
-26 -22 2 -23 -22 -28 -21 -18
-25 -22 2 -23 -22 -28 -22 -19
-23 -22 2 -23 -22 -29 -23 -20
-22 -22 2 -23 -22 -29 -23 -21
-20 -22 2 -23 -22 -29 -24 -22
-19 -21 2 -22 -21 -30 -25 -23
-19 -21 3 -21 -20 -28 -24 -22
-19 -21 4 -20 -19 -27 -23 -21
-19 -21 4 -19 -18 -26 -22 -21
-19 -21 5 -18 -17 -25 -21 -20
-19 -20 6 -17 -16 -24 -20 -19
-20 -20 6 -17 -15 -24 -20 -19
-21 -20 6 -16 -14 -24 -20 -19
-22 -20 6 -16 -14 -24 -20 -19
-23 -20 6 -16 -13 -24 -20 -19
-24 -20 7 -15 -12 -24 -21 -20
-23 -20 7 -15 -12 -24 -21 -20
-22 -20 7 -15 -13 -24 -21 -20
-21 -20 7 -15 -13 -24 -21 -20
-20 -20 7 -15 -13 -24 -21 -20
-19 -20 8 -14 -14 -23 -20 -19
-19 -20 8 -14 -14 -23 -20 -19
-19 -20 8 -14 -14 -23 -21 -20
-19 -20 8 -14 -14 -23 -21 -20
-19 -20 8 -14 -14 -23 -21 -20
-18 -19 8 -13 -13 -24 -22 -21
-17 -19 8 -13 -13 -24 -22 -21
-16 -18 8 -13 -12 -23 -21 -21
-16 -18 8 -13 -12 -23 -21 -21
-15 -18 8 -13 -12 -23 -21 -21
-14 -17 9 -12 -11 -22 -20 -21
-14 -17 9 -12 -11 -22 -20 -21
-15 -17 9 -11 -10 -21 -20 -21
-16 -17 9 -10 -9 -21 -20 -21
-16 -17 9 -10 -9 -21 -20 -21
-17 -18 9 -9 -8 -20 -20 -20
-17 -18 9 -8 -7 -19 -19 -19
-16 -17 10 -7 -6 -18 -17 -18
-16 -16 11 -7 -6 -17 -16 -18
-16 -16 11 -6 -5 -16 -15 -17
-15 -15 12 -5 -4 -15 -14 -16
-15 -15 12 -5 -4 -15 -14 -16
-14 -15 12 -4 -3 -15 -15 -17
-14 -15 12 -4 -3 -15 -16 -18
-14 -15 12 -4 -3 -15 -16 -18
-13 -15 11 -3 -2 -16 -17 -19
-13 -15 11 -2 0 -14 -16 -19
-12 -15 11 0 1 -13 -14 -18
-11 -15 11 1 2 -11 -13 -18
-11 -15 11 2 3 -10 -12 -18
-10 -14 12 4 4 -9 -11 -17
-10 -14 12 5 6 -9 -11 -17
-10 -14 12 7 7 -8 -11 -16
-10 -14 12 8 9 -7 -11 -16
-10 -14 12 10 10 -7 -11 -16
-9 -14 13 11 11 -6 -11 -15
-7 -14 13 11 12 -6 -11 -15
-5 -13 13 11 13 -5 -10 -14
-3 -13 13 11 14 -4 -10 -14
1 -13 13 11 15 -4 -10 -14
2 -12 14 12 17 -2 -9 -13
2 -12 14 15 19 0 -8 -13
1 -11 14 17 21 2 -6 -13
1 -11 14 20 23 4 -5 -13
1 -11 14 23 25 6 -4 -13
0 -10 14 24 26 7 -3 -12
0 -10 14 26 27 8 -2 -10
0 -10 15 27 28 10 1 -9
0 -10 16 29 29 11 2 -7
0 -10 16 30 30 12 3 -6
2 -9 17 31 31 13 4 -5
5 -8 16 32 32 14 4 -5
9 -7 15 34 34 15 4 -4
13 -7 15 35 35 15 4 -4
16 -6 14 36 36 16 4 -4
18 -5 13 37 37 17 4 -3
18 -4 13 37 37 18 6 -3
19 -3 12 38 38 19 7 -2
19 -3 12 38 39 20 9 0
19 -2 12 38 39 21 10 0
20 0 11 39 40 22 11 1
20 0 11 40 42 24 12 3
20 1 11 43 44 25 14 5
20 2 11 44 45 27 15 6
20 2 11 45 46 28 16 8
21 3 12 46 47 29 17 9
24 3 10 44 46 28 17 9
28 4 9 43 44 27 16 9
31 4 7 40 43 27 16 9
35 4 6 39 42 26 16 9
36 5 5 38 40 25 15 8
32 6 5 39 40 25 16 9
29 7 6 40 42 26 17 11
26 7 7 40 43 26 18 12
23 8 7 42 43 26 19 13
21 9 8 42 43 27 20 14
22 9 7 40 40 26 20 14
24 9 6 38 38 25 20 14
25 9 6 36 36 24 20 14
26 9 5 34 34 23 20 14
27 10 4 33 33 22 19 13
27 10 4 33 33 22 19 13
26 10 3 32 32 21 18 12
25 10 3 31 32 21 18 12
25 10 3 31 32 21 18 12
24 10 2 30 31 20 17 11
22 10 3 30 31 20 17 11
20 10 4 29 30 20 17 11
19 10 4 28 29 20 17 11
17 10 5 28 29 20 17 11
16 11 6 27 28 19 17 12
16 11 6 26 27 18 16 11
17 11 6 25 26 17 15 10
17 11 6 24 25 16 14 9
17 11 6 23 24 15 13 8
18 11 5 22 23 14 12 7
16 11 5 22 23 14 12 7
15 11 6 21 22 14 12 7
13 11 6 21 21 14 12 7
12 11 6 21 21 14 12 7
10 10 7 20 20 14 11 6
8 9 7 20 20 14 11 6
5 8 8 19 19 13 10 5
3 8 8 18 18 13 10 4
1 7 8 18 18 13 10 4
-2 6 9 16 16 12 9 3
0 6 9 15 14 10 7 3
1 5 8 13 12 9 6 2
2 4 7 11 10 8 5 2
3 4 7 9 8 6 3 2
4 3 6 8 7 5 2 1
4 3 6 8 7 4 2 0
3 2 5 7 6 3 1 -2
2 1 4 6 6 2 1 -2
2 1 4 6 6 1 1 -3
0 0 3 5 5 0 0 -4
-3 0 4 5 5 0 0 -4
-5 0 5 5 5 1 0 -3
-7 0 6 5 5 1 0 -3
-9 0 7 5 5 1 0 -3
-10 0 8 5 5 2 1 -2
-9 0 7 5 5 2 1 -3
-8 0 6 4 4 1 0 -4
-7 0 6 3 3 1 -2 -4
-6 0 5 3 3 1 -2 -5
-5 0 4 2 2 0 -3 -6
-5 0 4 2 2 0 -3 -6
-6 0 4 2 2 0 -3 -5
-7 0 4 2 2 0 -3 -5
-7 0 4 2 2 0 -3 -5
-8 0 4 3 3 1 -2 -4
-9 0 4 3 4 1 -2 -4
-10 0 4 4 5 2 -2 -4
-11 0 4 5 5 2 -2 -4
-12 0 4 5 6 2 -2 -4
-12 -2 5 6 7 3 0 -3
-9 -2 5 5 6 2 0 -3
-7 -2 4 4 5 1 -2 -4
-4 -2 3 3 4 1 -2 -5
-2 -2 3 2 3 0 -2 -5
1 0 2 1 2 -2 -3 -6
0 0 2 1 2 -2 -3 -6
-2 0 3 2 3 0 -3 -6
-3 0 4 3 4 0 -3 -6
-4 0 4 3 4 0 -3 -6
-5 0 5 4 5 1 -3 -5
-5 0 5 4 5 1 -2 -4
-5 0 6 5 6 2 0 -3
-5 0 6 6 6 3 0 -3
-5 0 6 6 6 3 1 -2
-6 1 7 7 7 4 2 0
-6 1 7 7 7 4 2 0
-5 1 7 7 7 4 2 -2
-5 1 7 7 7 4 2 -2
-5 1 7 7 7 4 2 -2
-4 0 7 7 6 3 1 -3
-4 0 7 7 6 3 1 -3
-5 1 7 7 6 3 1 -2
-6 1 7 7 6 3 1 -2
-6 1 7 7 6 3 1 -2
-7 2 7 7 7 4 1 0
-7 2 7 7 7 4 1 0
-7 2 7 7 7 4 0 -2
-7 2 7 7 7 4 -2 -2
-7 2 7 7 7 4 -2 -2
-6 1 7 6 6 3 -3 -3
-6 1 7 6 6 3 -3 -3
-6 1 7 5 6 3 -3 -3
-6 1 7 5 6 3 -3 -3
-6 1 7 5 6 3 -3 -3
-7 1 7 4 5 3 -2 -2
-7 1 7 4 5 3 -2 -2
-6 0 7 4 4 2 -3 -3
-5 0 7 4 4 1 -3 -4
-5 0 7 4 4 1 -3 -4
-4 -2 6 3 3 0 -4 -5
-4 -2 6 3 3 0 -4 -5
-5 -2 7 3 3 0 -4 -4
-6 -2 7 3 3 0 -4 -4
-6 -2 7 3 3 0 -4 -4
-7 -2 8 3 3 1 -3 -3
-7 -2 8 3 3 1 -3 -3
-7 -3 7 2 2 0 -4 -4
-7 -3 7 1 1 -2 -5 -4
-7 -3 7 1 1 -2 -5 -4
-6 -4 6 0 0 -3 -6 -5
-4 -4 6 -2 -2 -4 -6 -5
-3 -4 5 -3 -3 -5 -7 -5
-2 -4 5 -4 -4 -5 -7 -5
1 -4 5 -5 -5 -6 -7 -5
2 -5 4 -6 -6 -7 -8 -6
2 -5 4 -6 -6 -7 -8 -6
1 -5 4 -6 -6 -7 -9 -7
0 -5 4 -6 -6 -7 -9 -7
0 -5 4 -6 -6 -7 -9 -7
-2 -5 5 -6 -5 -8 -10 -8
-3 -5 5 -6 -5 -8 -10 -8
-3 -5 4 -6 -5 -8 -10 -8
-4 -5 3 -6 -6 -8 -10 -8
-5 -5 3 -6 -6 -8 -10 -8
-6 -6 2 -7 -7 -8 -10 -7
-8 -6 3 -7 -7 -8 -10 -7
-10 -6 3 -7 -7 -8 -10 -7
-12 -5 4 -6 -6 -8 -9 -7
-14 -5 5 -6 -6 -8 -9 -7
-15 -4 6 -5 -5 -7 -8 -6
-13 -4 6 -6 -6 -8 -9 -6
-11 -4 5 -7 -7 -9 -9 -7
-9 -5 4 -8 -9 -10 -10 -8
-7 -5 4 -9 -10 -11 -11 -8
-6 -6 3 -10 -11 -12 -12 -9
-7 -6 3 -10 -11 -12 -12 -9
-7 -6 3 -10 -10 -11 -12 -9
-8 -6 3 -10 -9 -10 -12 -9
-9 -6 3 -10 -9 -10 -12 -9
-10 -5 3 -10 -8 -9 -13 -8
-10 -5 3 -10 -8 -9 -13 -8
-10 -5 3 -10 -8 -9 -13 -8
-9 -6 3 -10 -9 -10 -13 -8
-9 -6 3 -10 -9 -10 -13 -8
-8 -7 3 -11 -10 -11 -12 -9
-8 -7 3 -11 -10 -11 -12 -9
-8 -7 3 -11 -11 -12 -12 -10
-8 -7 3 -11 -12 -13 -13 -11
-8 -7 3 -11 -12 -13 -13 -11
-8 -8 2 -12 -13 -14 -14 -12
-8 -8 2 -12 -13 -14 -14 -12
-9 -8 3 -12 -12 -13 -14 -11
-10 -7 4 -11 -11 -12 -13 -10
-10 -7 4 -11 -11 -12 -13 -10
-11 -6 5 -10 -10 -11 -12 -9
-11 -6 5 -10 -10 -11 -12 -9
-10 -6 5 -10 -10 -11 -12 -9
-9 -5 5 -10 -10 -11 -12 -9
-9 -5 5 -10 -10 -11 -12 -9
-8 -4 6 -10 -10 -11 -13 -8
-6 -3 6 -10 -10 -11 -13 -8
-5 -3 6 -10 -10 -11 -13 -8
-4 -2 6 -10 -10 -10 -13 -8
-2 0 6 -10 -10 -10 -13 -8
0 1 6 -10 -10 -9 -12 -9
-2 3 8 -8 -8 -8 -10 -8
-2 4 9 -7 -6 -7 -9 -7
-3 5 10 -5 -4 -5 -8 -6
-4 7 12 -3 -2 -4 -6 -5
-5 8 13 -2 0 -3 -5 -4
-5 8 13 -2 0 -3 -5 -4
-5 8 13 -2 0 -3 -5 -4
-5 9 13 -2 0 -3 -5 -4
-5 9 13 -2 0 -3 -5 -4
-4 10 14 0 0 -2 -6 -3
-3 12 14 1 1 0 -5 -3
-2 14 14 2 1 1 -5 -2
1 16 14 3 2 2 -4 0
2 18 14 4 3 3 -3 0
4 19 13 5 4 4 -2 1
7 19 11 3 2 3 -2 1
10 19 9 1 1 2 -2 1
14 19 6 -2 -2 1 -3 1
17 19 4 -4 -4 0 -3 1
18 20 2 -5 -5 -2 -4 2
14 18 2 -4 -4 0 -3 2
10 17 3 -3 -3 1 -3 2
6 15 4 0 0 2 -2 2
3 13 4 1 1 3 0 2
0 12 5 2 2 4 1 3
1 10 5 0 0 2 -2 2
2 9 4 -2 -2 1 -3 1
3 8 3 -3 -3 0 -4 -2
4 6 3 -5 -5 -3 -6 -3
4 5 2 -6 -6 -4 -7 -4
1 3 2 -6 -7 -5 -8 -5
-2 2 2 -7 -7 -6 -9 -6
-5 0 3 -8 -8 -7 -11 -7
-8 -3 3 -8 -9 -8 -12 -8
-10 -4 4 -9 -10 -9 -13 -9
-8 -5 3 -11 -12 -10 -14 -10
-7 -6 2 -13 -13 -11 -15 -11
-6 -7 1 -15 -15 -13 -17 -13
-4 -8 0 -16 -17 -14 -18 -14
-4 -9 -2 -18 -18 -15 -19 -15
-7 -9 -2 -17 -17 -15 -18 -14
-10 -9 0 -17 -16 -14 -18 -14
-13 -9 1 -16 -15 -13 -17 -13
-17 -9 1 -15 -14 -13 -16 -12
-19 -9 2 -14 -13 -12 -15 -11
-18 -9 2 -14 -13 -12 -15 -11
-17 -9 2 -14 -13 -12 -15 -11
-16 -10 2 -14 -13 -12 -15 -11
-15 -10 2 -14 -13 -12 -15 -11
-14 -11 2 -15 -14 -12 -16 -12
-14 -11 2 -15 -14 -12 -16 -12
-14 -11 2 -15 -15 -13 -17 -12
-14 -11 2 -16 -16 -14 -18 -13
-14 -11 2 -16 -16 -14 -18 -13
-14 -11 1 -17 -17 -15 -19 -14
-11 -11 1 -17 -17 -15 -19 -14
-9 -11 1 -17 -17 -15 -19 -14
-7 -11 1 -17 -18 -15 -19 -14
-5 -11 1 -17 -18 -15 -19 -14
-4 -11 0 -17 -19 -15 -19 -15
-7 -12 2 -16 -17 -15 -19 -15
-11 -12 3 -15 -16 -14 -20 -15
-14 -13 5 -13 -14 -13 -21 -16
-18 -14 7 -12 -12 -13 -21 -16
-20 -16 11 -9 -9 -12 -23 -19
-20 -19 21 0 -2 -12 -28 -24
-20 -23 30 7 6 -12 -32 -29
-20 -26 40 14 13 -11 -37 -34
-20 -29 50 21 20 -11 -41 -39
-16 -30 54 27 26 -6 -40 -39
-4 -22 48 31 30 5 -29 -30
8 -15 42 36 35 16 -18 -21
19 -8 34 40 39 26 -7 -12
31 0 28 45 44 36 5 -3
47 14 15 49 48 55 26 16
67 38 -11 53 52 84 63 47
89 62 -35 57 56 113 100 78
110 87 -61 60 59 142 137 110
131 110 -86 64 63 171 174 141
144 127 -108 59 58 188 197 162
144 130 -127 37 36 183 200 169
143 134 -145 17 15 178 204 175
142 137 -163 -5 -7 174 207 181
142 140 -183 -26 -28 169 211 187
133 135 -193 -50 -52 148 199 181
110 112 -191 -75 -77 103 161 152
88 91 -188 -102 -103 58 125 123
66 68 -185 -128 -130 12 87 96
44 47 -182 -154 -155 -33 50 67
26 28 -175 -168 -169 -63 20 44
17 16 -160 -159 -160 -70 5 28
8 4 -146 -151 -152 -76 -12 13
0 -9 -131 -143 -144 -83 -27 -4
-10 -21 -116 -135 -136 -90 -44 -19
-16 -29 -102 -124 -126 -93 -53 -29
-17 -29 -89 -112 -113 -85 -51 -28
-17 -29 -75 -100 -101 -76 -48 -28
-18 -29 -61 -89 -89 -69 -45 -27
-19 -29 -48 -76 -76 -61 -41 -26
-20 -28 -36 -66 -66 -55 -39 -25
-19 -28 -31 -59 -59 -51 -38 -25
-18 -28 -25 -52 -53 -47 -37 -25
-17 -28 -20 -45 -46 -43 -35 -25
-16 -28 -14 -37 -39 -38 -34 -25
-15 -27 -10 -32 -34 -35 -33 -25
-15 -26 -8 -31 -32 -33 -31 -23
-15 -24 -6 -29 -30 -31 -30 -21
-15 -23 -4 -28 -28 -29 -28 -19
-15 -21 -2 -26 -27 -28 -26 -18
-15 -20 1 -25 -25 -26 -25 -16
-15 -20 1 -24 -24 -26 -26 -17
-15 -20 1 -23 -23 -26 -26 -17
-15 -20 1 -22 -22 -26 -27 -18
-15 -20 1 -21 -21 -26 -28 -19
-15 -21 2 -20 -20 -27 -29 -20
-15 -21 2 -20 -20 -27 -29 -20
-15 -21 2 -20 -20 -27 -29 -20
-14 -20 2 -20 -20 -26 -28 -20
-14 -20 2 -20 -20 -26 -28 -20
-13 -19 3 -20 -21 -25 -27 -20
-13 -19 3 -19 -20 -25 -27 -20
-13 -19 3 -18 -19 -25 -27 -20
-13 -19 4 -17 -18 -25 -27 -20
-13 -19 4 -16 -17 -25 -27 -20
-14 -18 5 -15 -16 -25 -26 -20
-14 -18 5 -15 -16 -25 -26 -20
-14 -18 5 -15 -16 -25 -25 -20
-14 -17 5 -15 -16 -24 -24 -19
-14 -17 5 -15 -16 -24 -24 -19
-14 -16 6 -16 -17 -23 -23 -18
-14 -16 6 -15 -16 -23 -23 -18
-14 -16 6 -15 -15 -22 -23 -18
-13 -16 6 -14 -14 -21 -23 -19
-13 -16 6 -13 -13 -21 -23 -19
-12 -16 7 -12 -12 -20 -24 -20
-12 -16 7 -12 -12 -20 -24 -20
-11 -16 7 -12 -12 -20 -24 -20
-10 -16 7 -13 -12 -20 -24 -20
-10 -16 7 -13 -12 -20 -24 -20
-9 -15 7 -14 -13 -20 -23 -19
-9 -15 7 -13 -12 -20 -23 -19
-9 -15 7 -12 -12 -20 -23 -19
-8 -15 8 -11 -11 -19 -23 -19
-8 -15 8 -10 -10 -19 -23 -19
-7 -14 9 -9 -9 -18 -22 -18
-8 -14 9 -9 -9 -18 -21 -17
-9 -14 9 -9 -9 -17 -20 -17
-11 -13 9 -8 -9 -16 -19 -16
-12 -13 9 -8 -9 -16 -18 -15
-13 -12 9 -7 -8 -15 -17 -14
-12 -12 9 -6 -7 -15 -17 -14
-11 -12 9 -6 -7 -15 -18 -15
-10 -12 9 -5 -6 -15 -19 -16
-9 -12 9 -4 -5 -15 -19 -16
-8 -12 8 -3 -4 -16 -20 -17
-7 -12 8 -2 -3 -15 -19 -16
-7 -12 9 -2 -3 -14 -18 -15
-6 -12 10 0 -2 -12 -16 -14
-5 -12 10 1 0 -11 -15 -13
-4 -11 11 2 1 -10 -14 -12
0 -11 11 2 1 -10 -14 -12
3 -11 11 2 1 -10 -14 -13
5 -11 10 3 2 -10 -15 -14
8 -11 10 3 2 -10 -15 -14
10 -11 9 4 3 -9 -16 -15
10 -11 9 5 4 -8 -15 -14
10 -11 9 6 5 -6 -14 -14
10 -10 9 7 6 -5 -13 -13
10 -10 9 8 7 -3 -11 -12
9 -9 10 9 8 -2 -10 -11
8 -9 10 12 11 0 -10 -10
7 -8 11 15 14 2 -9 -9
6 -8 11 17 16 3 -9 -8
5 -7 12 20 19 5 -8 -7
4 -6 13 22 21 6 -7 -6
6 -5 13 23 22 7 -6 -5
7 -4 13 23 23 8 -5 -5
9 -3 13 24 24 9 -4 -4
10 -2 13 25 25 11 -2 -3
12 0 13 26 26 12 0 -2
15 0 13 27 26 12 0 -2
18 0 13 27 27 12 0 -2
21 0 12 28 27 13 0 -2
24 0 12 29 28 13 0 -2
27 0 11 30 29 14 0 -2
26 0 11 31 30 15 1 0
26 1 11 31 30 15 3 1
25 1 10 32 31 16 4 2
24 2 10 33 32 17 6 4
23 3 9 34 33 18 7 5
24 3 9 35 34 19 7 6
25 4 9 36 35 19 8 6
26 4 9 37 36 20 8 7
27 5 9 38 37 21 9 8
28 6 9 39 38 22 10 9
30 6 8 38 37 22 10 9
31 7 8 37 36 22 10 9
33 7 7 36 35 22 11 10
34 8 6 35 33 22 11 10
36 9 5 34 32 21 12 11
36 9 5 34 32 21 12 11
36 9 5 34 32 21 12 11
35 9 5 34 32 20 12 11
35 9 5 34 32 20 12 11
34 10 5 33 32 19 11 12
34 10 5 31 30 19 11 12
34 11 5 29 28 18 11 13
33 11 4 27 27 18 11 13
33 12 4 25 25 17 11 14
32 13 3 23 23 16 12 15
31 13 3 23 23 15 12 15
31 13 3 23 23 15 12 15
30 13 2 23 23 14 12 15
29 13 2 23 23 13 12 15
28 13 1 22 23 12 11 14
28 13 1 22 22 12 11 14
28 13 2 21 22 12 11 14
28 14 2 21 21 12 11 14
28 14 3 20 20 12 11 14
27 15 4 19 19 13 11 14
25 15 4 19 19 13 11 14
24 15 4 19 19 13 11 14
22 15 4 19 19 12 11 14
21 15 4 19 19 12 11 14
19 15 4 20 19 11 10 14
18 15 4 20 18 11 10 14
17 15 4 19 18 11 10 14
16 14 4 19 17 11 10 13
15 14 4 18 16 11 10 13
14 13 5 17 15 11 9 12
11 12 5 17 15 11 9 12
8 12 6 17 15 11 9 12
5 11 6 16 15 11 8 11
3 10 7 16 15 11 8 11
0 9 8 15 14 11 7 10
0 9 8 13 12 9 6 10
1 9 7 11 11 7 6 9
1 8 7 10 9 6 5 9
2 8 6 8 8 4 4 8
3 7 5 6 6 2 3 7
4 7 5 6 6 2 2 6
4 7 5 6 5 1 1 5
5 7 4 5 5 1 0 4
6 7 4 5 4 0 -2 2
7 6 3 4 3 -2 -3 1
5 6 4 4 3 -2 -3 1
4 6 5 4 3 0 -3 2
2 6 6 4 3 0 -2 2
1 6 7 4 3 1 -2 3
-2 5 8 4 2 2 0 4
-2 5 8 4 2 2 0 4
-2 5 7 4 2 2 0 4
-2 5 7 4 3 2 0 3
-2 5 6 4 3 2 0 3
-2 6 5 5 4 1 -2 2
-2 6 5 5 4 1 -2 2
-2 6 5 5 4 1 -2 2
-2 6 5 4 3 1 -2 2
-2 6 5 4 3 1 -2 2
0 5 5 3 2 2 -2 1
0 5 5 3 2 2 -2 1
1 5 5 3 2 2 -2 1
1 5 5 4 3 2 -3 1
2 5 5 4 3 2 -3 1
3 5 5 5 4 1 -4 1
2 5 5 5 4 1 -4 1
1 5 5 5 4 1 -3 1
0 5 5 5 4 1 -3 2
-2 5 5 5 4 1 -2 2
-3 5 6 5 4 2 0 3
-3 5 6 5 4 2 0 3
-4 5 7 5 5 2 0 3
-4 5 7 6 5 2 0 3
-5 5 8 6 6 2 0 3
-6 4 9 7 7 3 1 4
-5 4 9 7 7 3 1 4
-4 4 9 7 7 3 1 4
-3 5 9 7 7 3 1 4
-2 5 9 7 7 3 1 4
0 6 9 6 6 4 2 3
-2 6 9 6 6 4 2 3
-3 6 9 6 6 4 2 3
-4 5 9 7 7 4 2 4
-5 5 9 7 7 4 2 4
-6 4 9 8 8 5 2 5
-4 4 9 8 8 5 2 5
-2 4 8 7 7 4 2 4
2 4 8 6 6 4 1 3
4 4 7 5 5 3 1 2
6 4 6 4 4 2 0 1
4 4 6 4 4 2 0 1
2 4 7 5 5 2 0 1
1 4 7 5 5 2 0 1
-2 4 8 6 6 2 0 1
-4 3 9 7 7 3 0 2
-4 3 9 7 7 3 0 2
-4 3 9 7 7 3 0 2
-4 3 9 6 6 3 0 2
-4 3 9 6 6 3 0 2
-5 3 8 5 5 2 1 2
-5 3 8 5 5 2 1 2
-4 3 8 5 5 2 0 1
-4 3 8 4 4 1 0 1
-3 3 8 4 4 1 -2 0
-2 3 7 3 3 0 -3 -2
-2 3 7 3 3 0 -3 -2
-3 2 7 3 3 0 -3 -2
-3 2 7 2 2 0 -3 -2
-4 1 7 2 2 0 -3 -2
-5 0 7 1 1 -2 -4 0
-5 0 7 1 1 -2 -4 0
-5 0 7 1 1 -3 -5 -2
-6 0 6 1 1 -3 -5 -2
-6 0 6 1 1 -4 -6 -3
-7 0 5 0 0 -5 -7 -4
-7 0 5 0 0 -5 -7 -4
-7 0 5 0 0 -5 -6 -4
-6 0 6 -2 -2 -5 -6 -4
-6 0 6 -2 -2 -5 -5 -4
-5 1 7 -3 -3 -4 -4 -4
-5 1 7 -3 -3 -4 -5 -4
-5 0 7 -3 -3 -5 -6 -4
-5 -2 7 -3 -3 -6 -7 -4
-5 -3 7 -3 -3 -7 -8 -4
-5 -4 6 -3 -4 -8 -9 -3
-5 -4 6 -3 -4 -8 -9 -3
-4 -4 6 -4 -5 -8 -9 -4
-4 -3 5 -5 -5 -8 -9 -4
-3 -3 5 -6 -6 -8 -9 -5
-2 -2 4 -7 -7 -9 -9 -6
-2 -2 4 -7 -7 -9 -9 -6
-2 -2 4 -7 -7 -9 -9 -7
-2 -2 4 -7 -7 -10 -9 -7
-2 -2 4 -7 -7 -10 -9 -8
-3 -3 3 -8 -8 -11 -10 -9
-4 -3 3 -8 -8 -11 -10 -9
-5 -3 3 -8 -8 -10 -10 -8
-6 -3 4 -8 -8 -10 -10 -7
-8 -3 4 -8 -8 -9 -10 -6
-9 -3 5 -8 -7 -8 -9 -5
-9 -3 5 -8 -7 -8 -9 -5
-9 -3 5 -8 -7 -8 -9 -6
-9 -4 5 -8 -7 -9 -9 -6
-9 -4 5 -8 -7 -9 -9 -7
-9 -5 4 -7 -8 -10 -10 -8
-8 -5 4 -7 -8 -10 -10 -8
-7 -5 4 -8 -9 -10 -10 -8
-6 -4 4 -8 -10 -10 -10 -9
-5 -4 4 -9 -11 -10 -10 -9
-4 -3 3 -10 -12 -11 -11 -10
-4 -3 3 -10 -12 -11 -11 -10
-5 -4 3 -9 -11 -11 -11 -9
-5 -4 4 -9 -10 -11 -11 -9
-6 -5 4 -8 -9 -11 -11 -8
-7 -6 5 -7 -8 -11 -12 -7
-7 -6 5 -7 -8 -11 -12 -7
-7 -6 5 -7 -8 -11 -12 -7
-7 -6 5 -8 -9 -11 -11 -7
-7 -6 5 -8 -9 -11 -11 -7
-8 -6 5 -9 -10 -11 -10 -8
-8 -6 5 -9 -10 -11 -10 -8
-8 -6 5 -9 -10 -11 -10 -8
-9 -5 5 -9 -9 -11 -10 -8
-9 -5 5 -9 -9 -11 -10 -8
-10 -4 5 -8 -8 -10 -11 -9
-10 -4 5 -8 -8 -10 -11 -9
-10 -4 5 -8 -8 -10 -11 -9
-10 -4 5 -8 -8 -10 -11 -9
-10 -4 5 -8 -8 -10 -11 -9
-10 -4 6 -9 -9 -10 -10 -9
-10 -3 7 -8 -8 -10 -10 -9
-9 -2 8 -7 -7 -9 -9 -8
-9 0 9 -6 -6 -8 -8 -7
-8 1 10 -5 -5 -7 -7 -6
-7 2 11 -4 -4 -6 -6 -5
-6 3 11 -4 -4 -6 -6 -5
-5 5 12 -3 -3 -5 -5 -4
-4 7 12 -3 -3 -5 -5 -4
-3 8 13 -2 -2 -4 -4 -3
0 10 14 0 0 -3 -3 -2
1 10 14 0 0 -3 -3 -2
3 10 14 0 0 -3 -3 -3
5 11 13 0 0 -4 -4 -4
6 11 13 0 0 -4 -4 -5
8 12 12 -2 1 -5 -5 -6
7 14 12 1 2 -3 -3 -4
5 15 13 2 3 0 0 -2
4 17 13 4 4 2 2 1
3 19 14 6 5 4 5 4
1 21 15 8 6 6 7 6
2 21 13 7 6 6 7 6
4 20 11 6 5 6 6 5
6 20 9 5 4 5 6 5
7 19 6 4 3 5 5 4
9 18 4 2 2 4 4 3
8 17 4 2 2 4 4 3
7 15 4 2 2 4 4 3
6 13 4 2 2 4 4 3
5 12 4 2 2 4 4 3
3 10 3 3 3 4 4 3
3 9 3 2 2 3 3 2
3 8 4 1 1 2 1 0
3 6 4 0 0 1 -2 -3
3 5 5 -2 -2 0 -3 -4
3 3 6 -3 -3 -3 -5 -6
1 2 6 -4 -4 -4 -5 -6
-2 1 5 -5 -5 -5 -6 -7
-4 -2 5 -6 -6 -6 -7 -7
-6 -3 4 -7 -7 -7 -8 -8
-8 -5 3 -9 -9 -8 -9 -9
-10 -6 3 -9 -9 -8 -9 -9
-11 -7 3 -9 -9 -8 -9 -9
-13 -8 3 -9 -9 -8 -9 -9
-15 -9 3 -9 -9 -8 -9 -9
-17 -10 4 -9 -9 -9 -10 -10
-16 -10 4 -9 -9 -9 -10 -10
-14 -10 4 -9 -9 -10 -10 -10
-12 -10 4 -10 -9 -11 -10 -10
-11 -10 4 -10 -9 -12 -10 -10
-9 -10 3 -11 -10 -13 -11 -11
-9 -10 3 -11 -10 -13 -11 -11
-10 -10 3 -11 -10 -13 -12 -12
-10 -10 2 -12 -11 -13 -12 -13
-11 -10 2 -12 -11 -13 -13 -14
-12 -11 1 -13 -12 -14 -14 -15
-12 -11 1 -13 -12 -14 -14 -15
-12 -11 1 -13 -12 -14 -14 -15
-12 -11 1 -13 -12 -14 -14 -15
-12 -11 1 -13 -12 -14 -14 -15
-12 -11 2 -13 -12 -14 -15 -14
-12 -11 2 -13 -12 -14 -15 -14
-12 -11 2 -13 -12 -14 -15 -14
-11 -11 2 -12 -12 -14 -15 -14
-11 -11 2 -12 -12 -14 -15 -14
-10 -12 3 -11 -11 -14 -14 -14
-10 -14 8 -7 -7 -14 -16 -16
-11 -16 13 -3 -3 -13 -17 -18
-12 -18 18 1 2 -13 -19 -20
-13 -21 23 5 6 -12 -21 -22
-14 -23 28 9 10 -11 -23 -24
-14 -24 36 17 18 -9 -26 -28
-14 -25 45 25 25 -7 -30 -33
-15 -27 53 32 33 -5 -33 -37
-15 -28 61 40 40 -3 -36 -43
-14 -29 66 48 48 2 -38 -45
6 -14 46 50 50 22 -13 -23
26 2 25 53 53 43 13 -2
47 16 5 56 56 63 38 20
67 31 -16 58 58 84 64 42
87 48 -36 61 61 104 91 63
101 68 -56 61 61 130 123 92
114 89 -76 60 60 155 157 120
129 109 -96 60 59 180 191 149
142 130 -116 59 58 205 224 178
154 148 -135 56 55 227 253 204
141 140 -144 28 27 196 232 195
128 133 -152 1 0 167 212 186
114 126 -160 -27 -28 136 190 177
100 117 -169 -54 -55 106 170 168
87 109 -177 -80 -81 75 147 157
69 88 -170 -97 -98 40 113 126
51 66 -161 -113 -113 6 78 94
33 46 -154 -129 -130 -29 45 62
16 24 -147 -145 -145 -64 10 30
0 5 -139 -159 -159 -96 -22 2
-5 -3 -127 -148 -148 -93 -26 -5
-9 -9 -114 -137 -137 -89 -30 -11
-13 -16 -102 -124 -124 -86 -34 -17
-18 -22 -90 -113 -113 -82 -39 -23
-22 -29 -77 -102 -102 -78 -44 -29
-22 -29 -66 -92 -92 -72 -43 -29
-22 -30 -56 -81 -81 -66 -41 -29
-22 -31 -46 -71 -71 -61 -39 -29
