I II V1 V2 V3 V4 V5 V6
-6 3 10 2 1 -3 -5 -4
-6 3 10 2 1 -3 -5 -4
-6 2 9 1 0 -3 -5 -4
-7 2 8 0 0 -3 -5 -4
-7 1 7 -2 -2 -3 -5 -4
-7 1 7 -3 -2 -3 -5 -4
-8 0 6 -4 -3 -4 -5 -5
-8 0 6 -4 -3 -4 -5 -5
-8 0 6 -4 -3 -4 -5 -6
-8 0 6 -4 -3 -4 -5 -6
-8 0 6 -4 -3 -4 -5 -6
-9 -2 6 -4 -4 -5 -5 -7
-9 -2 6 -4 -4 -5 -5 -6
-8 0 6 -4 -3 -5 -5 -6
-8 0 6 -4 -3 -5 -5 -5
-8 0 6 -4 -3 -5 -5 -5
-7 1 7 -4 -2 -4 -5 -4
-7 1 7 -4 -2 -4 -5 -4
-7 1 7 -4 -2 -4 -4 -3
-7 1 7 -4 -2 -4 -4 -3
-7 1 7 -4 -2 -4 -4 -3
-6 1 6 -5 -2 -4 -3 -2
-6 1 6 -5 -2 -4 -3 -2
-6 1 6 -5 -2 -4 -3 -2
-6 1 6 -5 -2 -4 -3 -2
-6 1 6 -5 -2 -4 -3 -2
-7 0 5 -6 -3 -4 -4 -3
-7 0 5 -6 -3 -5 -4 -3
-7 1 5 -6 -3 -5 -4 -3
-7 1 5 -6 -3 -6 -4 -3
-7 1 5 -6 -3 -6 -4 -3
-8 2 5 -7 -3 -7 -5 -3
-8 1 5 -7 -3 -6 -5 -3
-7 1 5 -7 -3 -5 -4 -3
-7 0 5 -7 -3 -4 -4 -3
-7 0 5 -7 -3 -4 -4 -3
-6 -2 4 -7 -2 -3 -3 -3
-6 -2 4 -7 -2 -3 -3 -3
-6 -2 4 -7 -2 -4 -4 -3
-6 -2 4 -7 -2 -4 -4 -3
-6 -2 4 -7 -2 -4 -4 -3
-7 0 4 -6 -3 -5 -5 -4
-7 0 4 -6 -3 -5 -5 -4
-7 1 4 -6 -3 -6 -5 -4
-7 1 4 -6 -3 -6 -5 -4
-7 1 4 -6 -3 -6 -5 -4
-7 2 4 -7 -3 -7 -6 -4
-7 2 4 -7 -3 -6 -6 -4
-7 1 4 -7 -3 -6 -6 -4
-7 1 4 -7 -3 -5 -6 -4
-7 1 4 -7 -3 -5 -6 -4
-7 0 3 -8 -3 -4 -5 -4
-7 0 3 -8 -3 -4 -5 -4
-8 0 3 -8 -3 -5 -5 -4
-8 0 3 -8 -3 -5 -5 -4
-8 0 3 -8 -3 -5 -5 -4
-9 -2 3 -9 -4 -6 -5 -4
-9 -2 3 -9 -4 -6 -5 -4
-9 0 3 -9 -3 -5 -5 -3
-9 0 3 -9 -3 -5 -5 -3
-9 0 3 -9 -3 -5 -5 -3
-8 1 4 -8 -2 -4 -4 -2
-8 1 3 -8 -3 -5 -5 -3
-9 0 2 -9 -3 -5 -5 -4
-9 0 1 -9 -4 -6 -6 -5
-9 0 1 -9 -4 -6 -6 -5
-10 -2 0 -10 -5 -7 -7 -6
-10 -2 1 -10 -5 -7 -7 -6
-10 -3 1 -10 -5 -6 -7 -6
-10 -3 2 -10 -5 -6 -7 -6
-10 -3 2 -10 -5 -6 -7 -6
-9 -3 3 -11 -5 -5 -8 -7
-8 -2 3 -10 -4 -5 -7 -6
-7 1 3 -9 -3 -5 -6 -6
-6 2 3 -8 -2 -5 -5 -5
-5 3 3 -8 -2 -5 -5 -5
-4 4 4 -7 0 -4 -4 -4
-4 4 4 -7 0 -4 -4 -3
-5 4 3 -8 0 -4 -4 -3
-5 4 3 -8 0 -4 -4 -2
-5 4 3 -8 0 -4 -4 -2
-6 4 2 -9 -2 -5 -5 0
-6 4 3 -8 -2 -5 -5 0
-6 4 3 -8 -2 -5 -5 1
-6 4 4 -7 -2 -5 -5 1
-6 4 4 -7 -2 -5 -5 1
-7 4 5 -6 0 -4 -4 2
-7 4 4 -6 0 -4 -4 2
-6 5 3 -6 0 -5 -4 2
-6 5 2 -6 0 -5 -4 2
-6 5 1 -6 0 -5 -4 2
-5 6 0 -7 -2 -6 -3 1
-4 6 -2 -8 -2 -6 -3 1
-3 5 -2 -8 -2 -6 -3 0
-2 5 -3 -9 -2 -6 -3 0
-2 5 -3 -9 -2 -6 -3 0
0 4 -4 -10 -3 -6 -4 -2
1 4 -3 -10 -3 -6 -4 -2
2 4 -2 -10 -3 -6 -5 -2
3 4 0 -10 -3 -6 -5 -2
3 4 0 -10 -3 -6 -5 -2
4 5 2 -9 -2 -4 -5 1
4 7 3 -7 1 -3 -4 2
4 9 4 -6 2 -2 -2 3
4 11 5 -4 4 0 0 4
4 13 6 -3 5 1 1 5
4 14 7 -2 6 2 2 6
5 13 7 -2 6 3 3 7
6 13 7 -2 7 3 4 7
7 12 7 -2 7 4 5 8
8 12 7 -2 7 4 5 8
9 11 5 -2 7 4 6 9
8 11 3 -3 6 3 5 8
8 11 2 -5 4 2 4 8
7 11 0 -6 3 1 3 7
7 11 -2 -7 2 0 2 7
6 10 -3 -8 1 -2 1 6
6 9 -3 -8 1 -2 0 6
6 8 -3 -8 1 -2 0 5
6 7 -3 -8 1 -2 -2 5
6 7 -3 -8 1 -2 -2 5
4 6 -3 -8 1 -3 -3 4
2 6 -2 -7 1 -3 -3 4
1 5 -2 -7 1 -3 -3 4
-2 5 0 -6 1 -3 -3 4
-3 5 0 -6 1 -3 -3 4
-5 4 1 -5 2 -3 -3 3
-6 3 1 -6 2 -4 -3 2
-8 2 1 -6 1 -4 -4 1
-9 1 1 -7 1 -5 -4 0
-10 1 1 -7 1 -5 -4 0
-11 0 2 -8 0 -6 -5 -2
-11 0 2 -8 0 -6 -6 -2
-12 -2 1 -9 0 -6 -6 0
-12 -2 1 -9 0 -6 -7 0
-12 -2 1 -9 0 -6 -7 0
-13 -3 0 -9 -2 -7 -8 1
-12 -3 1 -8 0 -7 -7 1
-11 -2 1 -7 0 -6 -6 2
-10 -2 2 -6 1 -6 -5 2
-10 -2 2 -5 1 -6 -5 2
-13 1 10 -3 2 -5 -5 3
-17 3 19 1 2 -6 -6 2
-22 4 27 3 2 -7 -8 1
-26 6 36 5 2 -8 -9 0
-31 7 46 7 2 -8 -10 -2
-43 14 87 39 11 -7 -11 -5
-55 22 134 76 23 -4 -12 -8
-68 29 180 113 34 0 -13 -11
-80 37 226 150 46 2 -14 -13
-93 46 272 187 57 5 -14 -16
-70 63 280 247 118 59 30 15
-43 82 283 311 187 121 82 52
-15 102 286 375 256 183 135 89
14 120 289 438 323 244 186 126
42 140 293 502 392 306 238 162
62 140 225 444 390 311 247 172
80 136 145 368 378 306 251 178
100 131 66 293 364 302 254 184
119 127 -13 218 352 297 256 189
138 122 -93 142 339 293 259 195
131 104 -129 59 254 231 215 170
118 84 -159 -24 158 161 163 139
105 63 -190 -108 62 92 111 108
93 43 -221 -192 -33 22 60 77
80 22 -252 -276 -129 -48 8 46
71 16 -252 -282 -144 -64 -9 33
63 12 -246 -276 -147 -72 -20 24
55 8 -241 -269 -150 -79 -30 14
47 4 -236 -263 -152 -88 -41 4
38 0 -231 -256 -155 -95 -53 -6
29 -10 -216 -237 -149 -95 -56 -12
21 -19 -198 -217 -139 -92 -57 -16
13 -28 -181 -196 -130 -89 -58 -21
5 -38 -164 -176 -120 -87 -59 -26
-4 -48 -147 -155 -111 -83 -60 -31
-6 -47 -130 -138 -100 -76 -58 -31
-6 -41 -111 -121 -88 -68 -53 -29
-6 -37 -94 -104 -76 -61 -49 -27
-6 -33 -75 -87 -65 -53 -45 -25
-6 -28 -58 -70 -53 -46 -39 -23
-6 -26 -48 -60 -47 -40 -36 -21
-7 -25 -38 -52 -40 -37 -33 -20
-8 -24 -29 -43 -35 -33 -31 -19
-9 -22 -20 -33 -29 -30 -28 -17
-10 -21 -11 -25 -23 -26 -25 -16
-11 -20 -7 -21 -22 -25 -24 -15
-12 -20 -4 -19 -21 -24 -24 -15
-13 -19 -2 -16 -20 -23 -23 -14
-14 -19 2 -13 -19 -22 -23 -14
-15 -19 5 -11 -18 -22 -23 -14
-16 -18 6 -10 -16 -21 -21 -13
-16 -17 7 -9 -15 -20 -20 -12
-15 -16 7 -8 -14 -19 -19 -11
-15 -15 8 -7 -13 -18 -18 -10
-15 -15 8 -7 -12 -17 -17 -10
-14 -14 10 -5 -11 -16 -16 -9
-14 -14 11 -4 -11 -16 -16 -9
-15 -14 12 -3 -11 -16 -16 -9
-15 -14 13 -2 -11 -16 -16 -9
-15 -14 14 0 -11 -16 -16 -9
-16 -14 15 1 -11 -17 -16 -9
-16 -14 15 1 -11 -17 -16 -9
-16 -13 15 1 -11 -16 -16 -9
-16 -13 15 1 -11 -16 -16 -9
-16 -13 15 1 -11 -16 -16 -9
-15 -12 14 0 -10 -15 -15 -10
-15 -12 15 1 -10 -15 -15 -10
-16 -13 16 2 -9 -15 -15 -10
-16 -13 17 3 -9 -15 -15 -10
-16 -13 18 3 -9 -15 -15 -10
-17 -14 19 4 -8 -14 -16 -9
-17 -13 19 4 -8 -14 -16 -9
-16 -12 19 4 -8 -14 -16 -8
-16 -11 19 4 -8 -14 -16 -8
-16 -10 19 4 -8 -14 -16 -8
-15 -9 19 3 -9 -15 -16 -7
-15 -10 19 3 -8 -14 -16 -7
-15 -10 20 3 -8 -14 -15 -8
-15 -11 20 3 -7 -13 -15 -8
-15 -11 20 3 -7 -13 -15 -8
-15 -12 21 4 -6 -12 -14 -9
-15 -11 21 4 -6 -12 -14 -9
-14 -10 21 4 -6 -12 -14 -9
-14 -9 21 4 -6 -12 -14 -9
-14 -9 21 4 -6 -12 -14 -9
-14 -9 21 3 -5 -12 -13 -8
-15 -10 21 3 -6 -13 -14 -9
-16 -11 20 3 -7 -14 -14 -9
-18 -13 20 3 -8 -15 -15 -10
-19 -14 20 3 -9 -15 -15 -10
-19 -14 19 3 -10 -16 -16 -11
-18 -13 19 3 -9 -15 -15 -10
-16 -11 20 4 -8 -15 -15 -9
-14 -9 20 4 -7 -14 -14 -8
-13 -8 20 4 -6 -14 -14 -7
-12 -7 21 5 -5 -13 -13 -6
-12 -7 21 5 -5 -13 -13 -6
-12 -8 21 5 -6 -12 -13 -7
-12 -8 21 5 -6 -12 -13 -7
-12 -8 21 5 -6 -12 -13 -7
-13 -9 20 4 -7 -11 -13 -8
-13 -9 20 4 -7 -11 -14 -8
-13 -9 20 4 -7 -11 -14 -8
-13 -9 20 4 -7 -11 -15 -8
-13 -9 20 4 -7 -11 -15 -8
-13 -8 19 3 -8 -12 -16 -9
-12 -8 19 3 -8 -12 -16 -9
-11 -7 19 3 -7 -12 -16 -9
-10 -7 19 3 -7 -12 -16 -9
-10 -7 19 3 -7 -12 -16 -9
-9 -6 19 4 -6 -12 -15 -9
-9 -6 19 4 -6 -12 -14 -9
-9 -6 19 4 -6 -12 -14 -8
-9 -6 19 4 -6 -12 -13 -8
-9 -6 19 4 -6 -12 -13 -8
-8 -7 18 4 -7 -11 -12 -7
-8 -7 19 5 -7 -11 -12 -7
-8 -7 19 5 -6 -11 -12 -7
-8 -7 20 6 -6 -11 -12 -7
-8 -7 20 6 -6 -11 -12 -7
-7 -8 21 7 -5 -11 -12 -8
-6 -8 20 7 -5 -10 -11 -7
-6 -8 19 7 -5 -9 -10 -6
-5 -8 18 7 -5 -8 -9 -5
-5 -8 17 7 -5 -8 -9 -5
-3 -7 16 7 -5 -7 -8 -4
-2 -7 16 7 -4 -7 -8 -4
0 -8 15 8 -4 -7 -7 -4
2 -8 15 8 -3 -7 -7 -4
3 -8 15 8 -3 -7 -7 -4
4 -9 13 9 -2 -6 -6 -3
5 -9 11 8 -2 -6 -5 -3
6 -8 9 7 -2 -5 -5 -3
7 -8 7 6 -2 -5 -4 -3
8 -8 5 6 -2 -5 -4 -3
9 -7 3 5 -3 -4 -3 -2
9 -7 1 5 -3 -3 -2 0
10 -7 0 4 -3 -3 0 1
10 -7 -3 4 -3 -2 1 2
10 -7 -5 4 -3 -2 2 3
13 -5 -7 2 -2 1 4 5
16 -4 -9 1 1 3 6 8
19 -2 -10 0 2 6 9 10
22 1 -12 -3 3 8 11 13
25 2 -14 -4 4 10 13 15
26 3 -16 -6 5 11 14 16
26 3 -18 -8 4 11 14 16
26 3 -19 -10 4 11 15 17
26 3 -21 -12 3 11 15 17
26 3 -23 -14 3 11 15 17
25 4 -26 -16 2 12 16 18
25 4 -28 -17 2 12 17 19
25 5 -31 -19 2 13 18 19
25 5 -34 -21 2 13 19 20
25 5 -37 -22 2 13 19 20
26 7 -38 -23 2 14 20 21
27 9 -38 -23 3 15 21 22
28 10 -38 -22 4 16 22 22
30 12 -38 -22 5 17 23 23
31 14 -38 -22 5 18 23 23
32 15 -38 -21 6 19 24 24
31 15 -38 -20 7 19 24 24
30 15 -37 -20 8 19 24 24
29 15 -37 -19 9 19 24 24
28 15 -37 -19 9 19 24 24
26 16 -34 -17 10 20 23 24
25 16 -31 -15 12 20 23 24
23 15 -28 -14 13 21 23 24
21 15 -25 -12 14 21 23 24
20 15 -22 -10 15 21 23 24
18 14 -20 -8 16 22 23 22
16 14 -18 -7 16 22 22 21
14 13 -15 -6 16 21 21 20
12 13 -13 -4 16 21 21 18
10 13 -11 -3 16 21 20 17
9 12 -9 0 17 20 18 16
8 12 -6 1 17 19 17 15
7 12 -4 2 17 18 15 14
6 12 -2 4 17 18 14 13
5 12 2 5 17 17 12 12
4 13 3 6 17 16 11 11
3 13 4 5 16 14 9 10
2 13 4 5 15 13 8 9
2 13 5 4 14 12 7 8
1 13 5 4 13 11 6 7
0 11 6 3 12 10 5 6
-2 10 7 3 12 10 5 6
-2 9 7 3 12 10 5 5
-3 7 8 3 12 10 5 5
-3 6 8 3 12 10 5 5
-4 5 9 3 11 9 4 3
-5 5 9 2 10 8 3 2
-5 5 8 2 9 7 2 1
-6 5 8 1 9 6 1 -2
-6 5 8 1 8 5 0 -3
-7 5 7 0 7 4 -2 -4
-7 4 7 -2 6 4 -2 -4
-7 4 7 -2 5 3 -2 -4
-7 3 7 -3 4 3 -2 -4
-7 3 7 -3 3 3 -2 -4
-8 2 7 -4 2 2 -2 -3
-8 2 7 -5 2 2 -3 -4
-8 1 6 -5 1 1 -4 -4
-8 1 6 -6 1 1 -5 -5
-8 1 6 -6 1 1 -6 -5
-9 0 5 -7 0 0 -7 -6
-8 1 5 -7 0 0 -7 -6
-8 2 6 -6 0 0 -7 -6
-7 2 6 -6 0 0 -7 -6
-7 3 6 -6 0 0 -7 -6
-6 4 7 -5 -2 -2 -6 -6
-6 4 7 -5 -2 -2 -6 -6
-7 3 7 -5 -3 -3 -6 -6
-7 3 7 -5 -3 -3 -6 -6
-7 3 7 -5 -3 -3 -6 -6
-8 2 7 -6 -4 -4 -7 -6
-8 1 8 -5 -4 -4 -7 -6
-8 0 9 -4 -3 -4 -7 -6
-8 0 9 -4 -3 -4 -7 -6
-8 -2 10 -3 -3 -4 -7 -6
-9 -3 11 -2 -2 -5 -6 -6
-9 -2 11 -2 -2 -5 -6 -7
-9 0 11 -2 -2 -4 -6 -7
-9 1 11 -2 -2 -4 -6 -8
-9 2 11 -2 -2 -4 -6 -8
-9 3 10 0 -3 -3 -7 -9
-8 3 11 0 -3 -3 -7 -9
-8 3 12 1 -2 -3 -7 -8
-7 3 12 1 -2 -3 -7 -8
-7 3 13 1 -2 -3 -7 -8
-6 4 14 2 0 -2 -7 -7
-7 3 14 2 0 -2 -7 -7
-7 2 13 2 0 -2 -7 -7
-8 2 13 2 0 -2 -7 -7
-8 1 13 2 0 -2 -7 -7
-9 0 12 3 0 0 -6 -6
-9 0 12 4 1 0 -6 -6
-9 1 12 5 1 0 -6 -6
-9 1 12 6 2 0 -6 -6
-9 1 12 7 2 0 -6 -6
-10 2 13 8 3 1 -5 -5
-9 3 13 8 3 1 -5 -5
-8 4 13 8 4 1 -5 -5
-8 4 13 8 4 1 -5 -5
-7 5 13 8 4 1 -5 -5
-6 6 14 9 5 2 -4 -5
-6 6 14 9 5 2 -4 -5
-7 5 14 9 5 2 -4 -5
-7 5 14 9 5 2 -4 -5
-7 5 14 9 5 2 -4 -5
-8 4 15 9 4 2 -5 -6
-8 3 15 9 4 2 -5 -6
-8 3 14 9 4 2 -5 -6
-8 2 14 9 4 2 -5 -6
-8 2 14 9 4 2 -5 -6
-8 1 13 9 4 3 -5 -5
-7 2 13 9 4 3 -5 -5
-6 3 13 9 4 3 -4 -5
-5 4 13 9 4 3 -4 -5
-4 5 13 9 4 3 -4 -5
-3 6 14 9 3 2 -3 -4
-4 5 14 9 3 2 -3 -4
-4 4 13 9 3 2 -3 -4
-5 3 13 9 3 2 -3 -4
-5 2 13 9 3 2 -3 -4
-6 1 12 8 4 3 -3 -4
-6 1 12 8 4 3 -3 -4
-6 2 12 8 4 3 -3 -4
-6 2 12 8 4 3 -3 -4
-6 2 12 8 4 3 -3 -4
-5 3 13 9 3 3 -4 -5
-5 3 12 8 3 3 -4 -4
-5 3 11 7 3 3 -4 -4
-5 3 11 7 3 3 -4 -3
-5 3 10 6 3 3 -4 -3
-4 4 9 5 2 3 -3 -2
-4 3 9 4 2 2 -3 -2
-5 2 8 3 1 1 -4 -3
-6 2 8 3 0 1 -4 -4
-6 1 8 2 0 0 -4 -4
-7 0 7 1 -2 -2 -5 -5
-7 0 7 1 -2 -2 -5 -5
-6 1 7 1 -2 -2 -6 -6
-6 2 7 1 -2 -2 -6 -7
-6 2 7 1 -2 -2 -6 -7
-5 3 6 2 0 0 -7 -8
-5 3 6 2 0 0 -7 -8
-6 3 7 2 0 0 -7 -7
-6 3 7 2 0 0 -7 -6
-6 3 7 2 0 0 -7 -6
-7 3 8 1 -2 -2 -6 -5
-7 3 8 1 -2 -2 -6 -5
-6 2 7 1 -2 -2 -6 -5
-6 1 7 1 -2 -2 -6 -5
-6 1 7 1 -2 -2 -6 -5
-5 0 6 0 -2 0 -5 -6
-5 1 6 0 -2 0 -5 -6
-4 2 6 0 -2 0 -5 -6
-4 2 6 0 -2 0 -5 -6
-4 3 6 0 -2 0 -5 -6
-3 4 7 1 0 1 -4 -6
-4 3 6 1 0 1 -4 -6
-5 2 5 0 -2 0 -5 -6
-6 2 5 -2 -3 -2 -6 -6
-7 1 4 -2 -3 -2 -6 -6
-8 0 3 -3 -4 -3 -7 -7
-8 0 3 -3 -4 -3 -7 -7
-8 0 4 -3 -4 -3 -7 -7
-8 0 5 -3 -4 -3 -7 -7
-8 0 5 -3 -4 -3 -7 -7
-7 1 6 -3 -4 -3 -8 -7
-7 1 6 -3 -4 -3 -8 -7
-7 0 5 -3 -4 -3 -8 -8
-7 0 4 -3 -4 -3 -8 -9
-7 0 4 -3 -4 -3 -8 -9
-7 -2 3 -4 -4 -4 -9 -10
-7 -2 3 -4 -4 -3 -8 -9
-6 0 4 -4 -3 -2 -7 -8
-6 0 5 -4 -3 -2 -7 -8
-6 0 5 -4 -3 0 -6 -7
-5 1 6 -3 -2 1 -5 -6
-5 1 5 -3 -3 0 -5 -6
-5 1 4 -4 -4 -2 -6 -7
-5 1 4 -4 -4 -2 -6 -8
-5 1 3 -4 -5 -3 -6 -8
-5 2 2 -5 -6 -4 -7 -9
-5 1 2 -5 -6 -4 -7 -9
-6 0 2 -5 -5 -4 -8 -9
-6 0 2 -5 -5 -4 -8 -9
-6 -2 2 -5 -5 -4 -8 -9
-7 -3 2 -5 -4 -4 -9 -9
-7 -3 2 -5 -4 -4 -9 -9
-7 -3 1 -5 -4 -4 -8 -9
-7 -3 0 -5 -4 -4 -8 -9
-7 -3 0 -5 -4 -4 -8 -9
-6 -3 -2 -4 -5 -4 -7 -9
-6 -3 -2 -4 -5 -4 -7 -9
-6 -3 0 -4 -5 -4 -7 -8
-6 -3 0 -4 -5 -4 -7 -8
-6 -3 0 -4 -5 -4 -7 -8
-5 -3 1 -5 -4 -4 -7 -7
-5 -3 1 -5 -4 -4 -7 -7
-4 -3 1 -4 -4 -3 -7 -7
-4 -3 1 -4 -4 -3 -7 -7
-4 -3 1 -4 -4 -3 -7 -7
-3 -2 2 -3 -3 -2 -7 -6
-3 -2 2 -3 -3 -2 -7 -6
-3 0 1 -3 -3 -2 -7 -6
-3 0 1 -3 -3 -2 -7 -6
-3 0 1 -3 -3 -2 -7 -6
-2 1 0 -4 -4 -3 -6 -7
0 1 -2 -5 -4 -3 -6 -7
1 1 -3 -6 -4 -3 -6 -7
2 1 -3 -6 -4 -3 -6 -7
3 1 -4 -7 -4 -3 -6 -7
4 2 -5 -8 -5 -4 -7 -8
4 2 -5 -8 -5 -4 -7 -8
4 2 -5 -8 -5 -5 -7 -8
4 2 -5 -8 -5 -5 -7 -8
4 2 -5 -8 -5 -5 -7 -8
5 3 -4 -8 -6 -6 -7 -8
5 4 -2 -6 -4 -4 -6 -7
6 5 1 -4 -2 -3 -4 -5
7 6 2 -3 0 0 -3 -4
7 7 4 0 2 1 -2 -3
8 8 5 1 3 2 0 -2
8 8 4 1 3 2 0 -2
8 7 3 1 3 2 0 -2
8 7 3 1 3 2 0 -2
8 7 2 1 3 2 0 -2
9 6 1 1 3 3 1 -2
9 6 0 0 3 3 1 -2
10 6 -2 -2 2 2 1 -2
10 6 -2 -2 1 2 1 -2
10 6 -3 -3 1 2 1 -2
11 5 -4 -4 0 1 1 -3
10 4 -5 -5 -2 0 0 -4
9 3 -6 -6 -3 -2 -2 -5
9 2 -6 -6 -3 -2 -3 -5
8 1 -7 -7 -4 -3 -4 -6
6 0 -8 -8 -5 -4 -5 -7
4 0 -8 -8 -5 -4 -5 -7
2 0 -7 -8 -5 -4 -5 -7
0 0 -6 -8 -5 -4 -5 -7
-3 0 -6 -8 -5 -4 -5 -7
-4 -2 -5 -7 -4 -3 -4 -7
-5 -3 -5 -7 -4 -4 -4 -7
-6 -5 -5 -8 -5 -5 -5 -8
-6 -6 -5 -9 -6 -6 -6 -9
-7 -7 -5 -9 -6 -7 -6 -9
-8 -8 -4 -10 -7 -8 -7 -10
-8 -8 -4 -10 -7 -8 -7 -10
-8 -8 -4 -10 -8 -7 -8 -10
-8 -8 -4 -10 -9 -7 -8 -10
-8 -8 -4 -10 -9 -7 -8 -10
-8 -8 -5 -9 -10 -6 -9 -9
-8 -8 -5 -9 -9 -6 -9 -9
-7 -8 -5 -8 -8 -5 -8 -9
-7 -8 -5 -8 -7 -5 -8 -9
-7 -8 -5 -8 -6 -5 -8 -9
-8 -7 0 -7 -5 -4 -7 -8
-11 -5 5 -6 -5 -5 -8 -9
-15 -3 11 -5 -6 -6 -9 -11
-18 0 16 -5 -6 -7 -10 -12
-22 2 22 -4 -6 -8 -11 -13
-31 6 50 15 -3 -9 -13 -15
-45 13 95 46 5 -9 -15 -18
-58 19 140 77 13 -8 -18 -22
-72 26 184 108 21 -8 -20 -25
-86 33 229 140 28 -8 -22 -28
-79 46 256 192 68 24 2 -13
-55 64 269 261 133 79 48 18
-31 81 281 329 197 135 94 50
-8 99 295 398 262 190 140 81
16 117 307 467 326 245 186 113
40 126 270 478 357 276 215 135
65 126 191 443 361 286 230 150
91 125 112 408 365 297 244 164
115 123 34 372 369 306 260 179
141 123 -45 338 373 316 275 193
146 111 -100 254 319 281 254 183
134 90 -138 130 216 207 199 151
120 68 -175 6 112 134 145 119
108 48 -212 -118 9 60 92 88
96 26 -248 -242 -95 -14 37 57
86 13 -265 -296 -144 -53 7 36
77 8 -261 -287 -149 -62 -6 26
68 2 -257 -280 -154 -71 -19 17
60 -4 -254 -273 -159 -81 -31 7
51 -10 -249 -266 -164 -91 -44 -4
43 -17 -238 -253 -163 -95 -51 -12
34 -24 -221 -234 -153 -93 -54 -17
26 -31 -203 -216 -144 -91 -56 -23
18 -39 -186 -197 -135 -89 -59 -28
10 -47 -168 -179 -126 -87 -61 -34
5 -51 -150 -161 -115 -81 -61 -37
3 -49 -133 -144 -104 -74 -58 -37
1 -47 -114 -127 -93 -68 -54 -36
-2 -46 -97 -110 -81 -61 -50 -35
-4 -44 -79 -93 -70 -55 -46 -35
-6 -41 -65 -79 -61 -49 -43 -33
-7 -37 -55 -69 -54 -44 -38 -31
-8 -33 -44 -60 -48 -39 -34 -28
-9 -30 -33 -50 -40 -34 -31 -25
-10 -26 -22 -39 -34 -30 -27 -23
-11 -24 -16 -33 -30 -27 -25 -21
-11 -24 -12 -30 -28 -25 -23 -20
-11 -24 -8 -26 -26 -23 -22 -19
-11 -24 -5 -23 -24 -22 -21 -18
-11 -24 0 -20 -22 -20 -19 -17
-10 -23 2 -18 -21 -19 -18 -16
-11 -23 2 -18 -21 -19 -18 -17
-12 -23 2 -17 -20 -19 -18 -18
-12 -23 2 -16 -20 -19 -18 -19
-13 -23 2 -16 -20 -19 -18 -20
-14 -23 2 -15 -19 -19 -19 -21
-14 -23 4 -14 -19 -19 -19 -20
-14 -23 6 -13 -18 -18 -18 -19
-14 -23 7 -13 -18 -18 -17 -18
-14 -23 9 -12 -18 -18 -17 -17
-14 -23 10 -11 -17 -17 -16 -16
-14 -23 10 -11 -16 -17 -16 -16
-14 -23 10 -10 -15 -16 -15 -15
-14 -23 10 -10 -15 -15 -15 -15
-14 -23 10 -10 -14 -15 -15 -15
-13 -23 9 -9 -13 -14 -14 -14
-13 -23 9 -9 -13 -14 -14 -14
-13 -22 10 -8 -13 -14 -14 -15
-13 -21 10 -8 -13 -14 -14 -15
-13 -21 10 -8 -13 -14 -14 -15
-12 -20 11 -7 -14 -15 -14 -16
-12 -20 11 -7 -14 -15 -14 -16
-12 -19 10 -7 -14 -15 -14 -15
-12 -19 10 -7 -14 -15 -14 -15
-12 -19 10 -7 -14 -15 -14 -15
-13 -18 9 -8 -13 -15 -13 -14
-13 -18 9 -8 -13 -15 -13 -14
-13 -18 10 -9 -14 -15 -14 -14
-13 -18 10 -9 -14 -15 -14 -14
-13 -18 10 -9 -14 -15 -14 -14
-13 -19 11 -10 -15 -16 -15 -15
-13 -18 11 -10 -15 -16 -15 -15
-13 -16 10 -10 -14 -16 -15 -15
-13 -15 10 -10 -13 -16 -15 -15
-13 -14 10 -10 -13 -16 -15 -15
-12 -13 9 -9 -12 -15 -14 -15
-12 -15 9 -9 -12 -15 -14 -15
-12 -16 10 -9 -12 -15 -14 -14
-12 -17 11 -8 -12 -15 -14 -13
-12 -19 11 -8 -12 -15 -14 -13
-12 -20 12 -7 -12 -14 -14 -12
-12 -20 12 -7 -12 -14 -14 -12
-12 -20 11 -8 -13 -14 -14 -12
-12 -19 10 -9 -14 -14 -14 -13
-12 -19 10 -9 -14 -14 -14 -13
-13 -18 9 -10 -15 -15 -14 -14
-13 -19 9 -9 -14 -15 -14 -14
-13 -20 10 -8 -14 -15 -14 -14
-13 -21 11 -7 -13 -14 -13 -14
-13 -22 11 -6 -12 -14 -13 -14
-13 -23 12 -5 -11 -13 -12 -14
-13 -21 12 -5 -11 -13 -12 -14
-13 -19 12 -5 -11 -13 -12 -14
-13 -17 12 -5 -11 -13 -12 -13
-13 -15 12 -5 -11 -13 -12 -13
-12 -14 11 -5 -11 -12 -11 -12
-12 -14 11 -5 -11 -12 -11 -12
-11 -14 11 -5 -11 -12 -11 -12
-10 -15 11 -5 -11 -12 -11 -12
-10 -15 11 -5 -11 -12 -11 -12
-9 -16 12 -5 -10 -11 -11 -12
-9 -16 12 -5 -10 -11 -11 -12
-9 -16 12 -5 -10 -11 -11 -12
-9 -16 11 -5 -10 -11 -11 -11
-9 -16 11 -5 -10 -11 -11 -11
-10 -17 10 -5 -10 -11 -11 -10
-10 -17 10 -5 -10 -11 -11 -10
-10 -17 10 -5 -10 -11 -11 -10
-9 -17 10 -5 -10 -11 -10 -10
-9 -17 10 -5 -10 -11 -10 -10
-8 -17 11 -4 -9 -10 -9 -11
-8 -17 11 -4 -9 -10 -9 -11
-8 -17 10 -4 -9 -10 -9 -10
-8 -17 9 -4 -9 -10 -8 -9
-8 -17 9 -4 -9 -10 -8 -9
-8 -18 8 -3 -8 -9 -7 -8
-6 -18 8 -3 -8 -9 -7 -7
-4 -18 8 -3 -7 -8 -7 -6
-2 -18 8 -2 -6 -7 -6 -5
1 -18 8 -2 -6 -7 -6 -4
2 -18 9 0 -5 -6 -5 -3
2 -18 7 0 -5 -6 -5 -3
2 -18 6 0 -5 -5 -4 -3
2 -17 4 0 -4 -4 -3 -3
2 -17 2 0 -4 -4 -3 -3
2 -16 1 -2 -3 -3 -2 -3
4 -16 -2 -2 -3 -2 0 -2
5 -16 -3 -2 -3 0 1 0
6 -16 -4 -2 -3 2 3 2
8 -16 -6 -2 -3 3 4 3
9 -16 -7 -3 -2 4 5 4
11 -14 -9 -3 0 5 7 6
13 -12 -11 -4 1 6 9 7
15 -10 -13 -5 2 8 11 8
17 -8 -15 -5 3 9 13 10
19 -7 -17 -6 4 10 14 11
21 -7 -19 -8 4 11 15 12
22 -6 -21 -9 4 12 16 13
23 -5 -23 -10 4 13 18 14
25 -5 -25 -12 4 14 19 15
26 -4 -26 -13 5 15 20 16
26 -4 -29 -15 5 15 20 17
26 -3 -31 -16 5 15 20 17
26 -2 -33 -18 5 15 21 18
26 -2 -35 -20 5 15 21 19
27 0 -37 -21 5 15 22 20
27 0 -37 -21 5 16 22 20
27 0 -37 -21 5 17 23 21
27 0 -38 -22 5 19 24 22
27 0 -38 -22 5 20 24 22
26 -2 -39 -23 6 21 25 23
26 -2 -39 -23 8 21 26 23
26 -2 -39 -22 9 21 26 23
26 0 -40 -21 10 22 27 23
26 0 -40 -21 12 22 28 23
25 1 -40 -20 13 23 29 23
25 2 -37 -19 13 23 29 23
24 3 -34 -18 13 23 29 23
23 5 -31 -17 13 24 28 23
23 6 -28 -16 13 24 28 23
21 7 -26 -15 14 25 27 23
19 5 -24 -14 14 24 26 21
16 4 -22 -13 14 23 25 20
14 2 -20 -11 14 22 24 18
11 0 -18 -10 14 21 23 16
9 -2 -15 -9 15 20 22 15
9 -2 -13 -8 15 20 21 14
8 -2 -11 -7 15 20 20 14
7 0 -8 -6 15 19 19 13
7 0 -6 -5 15 19 18 12
6 1 -4 -4 15 18 17 11
5 1 -4 -5 14 17 15 10
3 1 -4 -5 12 15 13 8
2 1 -4 -6 11 14 11 7
0 1 -4 -7 9 12 9 5
-2 0 -4 -8 8 11 7 4
-2 -2 -3 -8 8 11 7 4
-2 -2 0 -7 8 11 7 4
-2 -3 1 -6 8 10 7 4
-2 -4 3 -6 8 10 7 4
-3 -5 4 -5 9 9 6 4
-3 -5 3 -5 8 9 6 3
-3 -5 3 -6 8 8 6 3
-3 -6 2 -7 7 7 5 2
-3 -6 1 -7 6 7 5 1
-4 -7 0 -8 5 6 4 0
-4 -8 0 -8 5 6 4 0
-4 -8 0 -8 4 5 3 0
-4 -9 0 -9 3 4 2 0
-4 -10 0 -9 3 4 2 0
-5 -11 -2 -10 2 3 1 -2
-5 -11 -2 -10 2 3 1 -2
-5 -11 -2 -11 2 3 1 -2
-5 -11 -2 -12 1 3 1 -2
-5 -11 -2 -12 1 3 1 -2
-4 -10 -3 -13 0 2 0 -2
-4 -10 -3 -13 0 2 0 -2
-4 -10 -3 -13 -2 2 0 -2
-5 -10 -3 -14 -3 1 0 -2
-5 -10 -3 -14 -3 1 0 -2
-6 -10 -2 -15 -4 0 -2 -2
-6 -10 -2 -15 -4 0 -2 -2
-6 -11 -2 -15 -4 0 -2 -3
-6 -12 -2 -14 -4 0 -2 -4
-6 -12 -2 -14 -4 0 -2 -4
-7 -13 -3 -13 -3 -2 -3 -5
-8 -13 -3 -13 -3 -2 -3 -5
-8 -13 -2 -13 -3 -2 -3 -5
-9 -13 0 -13 -3 -2 -3 -5
-10 -13 0 -13 -3 -2 -3 -5
-11 -14 1 -12 -4 -2 -3 -4
-10 -14 1 -12 -4 -2 -3 -4
-10 -13 1 -12 -4 -2 -3 -4
-9 -12 1 -11 -4 0 -3 -4
-8 -12 1 -11 -4 0 -3 -4
-7 -11 2 -10 -3 1 -2 -4
-7 -11 2 -10 -3 1 -2 -4
-7 -12 2 -9 -3 1 -3 -4
-8 -13 2 -8 -3 0 -4 -4
-8 -13 2 -8 -3 0 -4 -4
-9 -14 3 -7 -2 -2 -5 -4
-9 -14 3 -6 -2 0 -4 -4
-9 -14 3 -6 0 0 -3 -3
-9 -14 3 -5 1 1 0 -2
-9 -14 3 -4 1 2 1 -2
-10 -13 4 -3 2 3 2 0
-10 -12 4 -3 2 3 2 0
-9 -11 4 -2 2 3 2 0
-8 -10 5 0 2 3 1 -2
-8 -9 5 0 2 3 1 -2
-7 -8 6 1 3 3 0 -3
-7 -8 6 1 3 3 0 -3
-7 -8 6 1 3 3 0 -3
-7 -8 6 2 3 3 0 -3
-7 -8 6 2 3 3 0 -3
-7 -9 5 3 4 3 0 -2
-7 -9 6 3 4 3 0 -2
-7 -9 6 3 4 3 0 -2
-7 -9 7 4 5 4 0 -2
-7 -9 8 4 5 4 0 -2
-6 -9 9 5 6 5 1 0
-6 -9 8 5 6 5 1 0
-6 -9 7 5 6 5 1 0
-6 -9 6 4 6 5 1 0
-6 -9 5 4 6 5 1 0
-7 -10 4 3 5 4 1 1
-7 -10 4 3 5 4 1 1
-7 -10 4 3 5 4 1 1
-7 -10 5 3 5 4 1 0
-7 -10 5 3 5 4 1 0
-8 -10 6 4 4 4 1 -2
-8 -10 6 4 4 4 1 -2
-8 -10 5 4 4 4 1 -2
-8 -10 4 3 4 4 1 0
-8 -10 4 3 4 4 1 0
-9 -11 3 2 4 3 2 1
-9 -11 3 2 4 3 2 1
-9 -11 3 2 4 3 2 1
-9 -10 3 2 4 4 2 1
-9 -10 3 2 4 4 2 1
-8 -9 3 2 4 5 2 1
-8 -9 3 2 4 5 2 1
-8 -9 3 2 4 5 2 1
-8 -9 3 2 4 5 2 1
-8 -9 3 2 4 5 2 1
-7 -10 3 1 4 5 1 0
-7 -10 3 1 4 5 1 0
-7 -10 3 1 4 5 1 0
-7 -10 3 1 4 4 1 1
-7 -10 3 1 4 4 1 1
-7 -10 2 1 3 3 0 2
-7 -11 2 1 3 3 0 2
-7 -11 2 1 3 3 0 2
-7 -12 2 0 3 3 0 1
-7 -13 2 0 3 3 0 1
-8 -14 1 -2 3 4 0 0
-8 -14 1 -2 3 4 0 0
-8 -13 1 -2 3 4 0 0
-8 -12 2 0 3 4 0 1
-8 -12 2 0 3 4 0 1
-8 -11 3 1 3 4 0 2
-9 -11 3 1 3 4 0 2
-9 -12 2 0 3 4 0 2
-10 -12 2 0 3 4 0 2
-11 -13 1 -2 3 4 0 2
-12 -14 0 -3 3 3 -2 1
-11 -13 0 -3 3 3 -2 1
-9 -11 0 -3 3 3 -2 1
-8 -10 1 -3 3 4 0 1
-6 -8 1 -3 3 4 0 1
-5 -7 2 -2 4 5 1 2
-5 -8 2 -2 4 5 1 2
-5 -8 1 -2 4 5 1 2
-6 -9 1 -2 4 4 0 2
-6 -10 0 -2 4 4 0 2
-7 -11 -2 -3 3 3 -2 1
-8 -11 -2 -3 3 3 -2 1
-8 -12 -2 -3 3 3 -2 1
-9 -12 0 -3 3 3 -3 1
-10 -13 0 -3 3 3 -3 1
-11 -14 1 -3 2 2 -4 0
-11 -13 1 -3 2 2 -4 0
-10 -13 1 -3 2 2 -4 0
-10 -12 1 -3 2 2 -4 0
-9 -11 1 -3 2 2 -4 0
-8 -10 0 -3 2 2 -4 -2
-8 -10 0 -3 2 2 -4 -2
-8 -10 0 -3 2 2 -4 -2
-8 -10 0 -3 2 2 -4 -2
-8 -10 0 -3 2 2 -4 -2
-9 -10 1 -3 1 2 -4 -2
-9 -10 1 -3 1 2 -4 -2
-9 -10 1 -3 1 2 -4 -2
-9 -10 1 -3 1 2 -3 -2
-9 -10 1 -3 1 2 -3 -2
-9 -9 0 -4 1 2 -2 0
-9 -9 0 -4 1 2 -2 0
-9 -9 0 -4 1 2 -3 -2
-8 -8 0 -4 1 2 -3 -2
-8 -8 0 -4 1 2 -4 -3
-7 -7 0 -4 0 1 -5 -4
-8 -7 0 -4 0 1 -5 -4
-9 -7 0 -4 0 1 -5 -4
-10 -8 0 -4 0 1 -5 -4
-11 -8 0 -4 0 1 -5 -4
-12 -9 0 -4 -2 0 -6 -4
-11 -9 0 -4 -2 0 -6 -4
-11 -8 0 -4 -2 0 -6 -4
-10 -8 0 -4 -2 0 -6 -3
-9 -7 0 -4 -2 0 -6 -3
-8 -6 1 -4 0 1 -6 -2
-8 -6 1 -4 0 1 -6 -2
-8 -6 1 -4 0 1 -6 -2
-9 -7 1 -4 0 1 -6 -2
-9 -7 1 -4 0 1 -6 -2
-10 -8 2 -4 0 0 -6 -3
-10 -8 2 -4 0 0 -6 -3
-10 -8 2 -4 0 0 -6 -3
-10 -8 1 -4 0 0 -6 -3
-10 -8 1 -4 0 0 -6 -3
-10 -8 0 -5 -2 0 -6 -3
-9 -8 0 -5 -2 0 -6 -3
-9 -8 0 -5 -2 0 -6 -3
-8 -8 0 -4 -2 1 -6 -3
-7 -8 0 -4 -2 1 -6 -3
-6 -7 1 -3 0 2 -5 -2
-6 -7 1 -2 1 2 -5 -2
-6 -7 1 -2 1 2 -5 -2
-6 -7 1 0 2 2 -5 0
-6 -7 1 1 3 2 -5 0
-7 -6 2 2 4 3 -4 1
-7 -5 2 2 4 3 -4 1
-7 -4 2 2 3 3 -4 1
-7 -3 2 2 3 3 -4 1
-7 -2 2 2 2 3 -4 1
-7 0 1 1 1 3 -4 0
-6 0 1 1 1 3 -4 0
-5 0 1 1 1 3 -4 0
-4 0 1 1 1 3 -4 1
-2 0 1 1 1 3 -4 1
0 -2 0 0 2 3 -3 2
0 0 0 0 2 3 -3 2
0 1 0 0 2 3 -3 2
0 2 0 -2 2 3 -3 2
0 3 0 -2 2 3 -3 2
1 4 0 -3 2 3 -3 2
2 5 1 0 3 4 -3 3
3 7 1 2 4 5 -2 3
4 8 2 3 5 6 -2 4
6 9 3 5 6 7 0 5
7 11 4 7 7 8 1 6
7 10 4 7 7 8 1 6
7 10 4 7 7 8 1 7
7 9 4 8 8 8 2 7
7 8 4 8 8 8 2 8
8 7 3 9 9 9 3 9
7 6 2 8 9 9 3 9
7 6 1 8 8 9 3 9
6 5 0 7 8 8 3 8
5 4 -2 6 7 8 3 8
4 3 -3 5 6 7 3 7
4 3 -3 4 6 7 2 7
3 2 -3 4 5 6 1 7
3 2 -4 3 5 6 0 7
2 1 -4 2 4 5 -2 7
1 0 -5 1 3 4 -3 7
0 0 -5 1 3 4 -3 6
-2 0 -4 1 3 4 -3 4
-3 -2 -4 1 3 4 -4 3
-4 -2 -3 1 3 4 -4 2
-5 -3 -2 2 2 3 -5 0
-6 -3 -2 2 2 3 -5 0
-7 -3 -2 2 2 3 -5 0
-8 -3 0 2 2 3 -5 0
-9 -3 0 2 2 3 -5 0
-10 -2 1 2 3 3 -6 1
-10 -3 1 2 3 3 -6 1
-10 -4 1 2 3 3 -6 1
-11 -5 1 1 2 2 -7 0
-11 -6 1 1 2 2 -7 0
-12 -7 0 0 1 1 -8 -2
-12 -7 0 0 1 1 -8 -2
-12 -7 0 0 1 1 -8 -2
-12 -6 0 1 1 1 -7 0
-12 -6 0 1 1 1 -7 0
-12 -5 1 2 2 2 -6 1
-13 -5 3 2 2 2 -6 1
-14 -4 6 2 2 2 -6 1
-15 -3 8 3 2 2 -6 1
-17 -2 11 3 2 2 -6 1
-21 1 20 7 3 2 -6 0
-36 6 56 23 4 -3 -12 -5
-51 11 91 38 5 -7 -18 -10
-66 16 127 55 6 -12 -24 -14
-81 21 161 70 8 -16 -30 -19
-92 28 195 98 19 -12 -29 -19
-78 42 225 164 67 28 3 1
-66 55 255 232 115 67 33 21
-54 68 285 299 163 106 65 40
-40 81 315 365 212 146 96 60
-23 96 324 418 258 185 129 84
12 111 258 421 298 226 170 115
46 126 190 424 337 266 210 148
80 141 123 427 377 307 250 180
114 156 57 430 415 348 290 213
141 162 -8 404 425 363 311 231
132 132 -60 270 320 287 255 196
122 102 -113 137 215 212 198 160
113 71 -165 3 109 136 143 126
104 42 -219 -131 5 60 87 90
96 16 -261 -237 -81 -4 39 60
89 9 -262 -244 -96 -20 23 48
82 1 -263 -252 -110 -35 7 35
75 -7 -264 -258 -126 -52 -11 23
69 -15 -265 -265 -140 -68 -27 11
62 -22 -263 -267 -151 -81 -40 1
53 -27 -243 -246 -144 -81 -44 -5
44 -32 -225 -225 -136 -80 -47 -10
34 -37 -205 -204 -129 -80 -49 -14
25 -43 -187 -184 -120 -79 -52 -19
17 -48 -169 -163 -112 -77 -55 -23
13 -47 -150 -146 -102 -71 -53 -23
10 -46 -131 -129 -91 -65 -52 -24
6 -45 -112 -111 -80 -59 -50 -24
2 -43 -94 -94 -69 -53 -48 -25
-2 -41 -76 -77 -59 -47 -46 -26
-5 -37 -64 -66 -52 -41 -41 -24
-7 -34 -52 -55 -45 -36 -37 -23
-10 -31 -39 -44 -36 -31 -33 -21
-12 -27 -27 -32 -29 -27 -29 -19
-15 -24 -17 -23 -23 -22 -25 -17
-15 -24 -13 -19 -21 -21 -24 -17
-15 -24 -10 -16 -20 -20 -23 -16
-15 -23 -6 -13 -18 -19 -22 -16
-15 -23 -2 -9 -16 -17 -21 -15
-16 -22 2 -6 -14 -16 -20 -14
-16 -22 2 -5 -14 -16 -20 -14
-17 -21 3 -4 -13 -15 -19 -14
-17 -21 4 -3 -13 -15 -19 -14
-18 -20 5 -2 -12 -14 -18 -14
-19 -19 6 0 -11 -13 -17 -13
-19 -19 6 0 -11 -13 -17 -13
-19 -19 7 1 -11 -13 -17 -13
-19 -19 8 1 -10 -13 -17 -13
-19 -19 9 2 -10 -13 -17 -13
-19 -20 10 3 -9 -12 -17 -13
-19 -20 10 3 -9 -12 -17 -13
-19 -20 10 4 -9 -12 -17 -13
-19 -20 11 4 -9 -12 -17 -13
-19 -20 11 5 -9 -12 -17 -13
-18 -20 12 6 -8 -12 -17 -12
-18 -20 12 6 -8 -12 -17 -12
-19 -20 12 6 -8 -12 -17 -12
-20 -20 12 6 -8 -13 -17 -13
-21 -20 12 6 -8 -13 -17 -13
-22 -21 11 5 -9 -14 -18 -14
-22 -20 11 5 -9 -14 -18 -14
-21 -18 11 5 -9 -14 -18 -13
-20 -16 11 5 -9 -14 -17 -13
-19 -15 11 5 -9 -14 -17 -12
-18 -13 12 5 -9 -13 -16 -11
-18 -13 12 5 -9 -13 -16 -11
-18 -13 13 5 -9 -13 -16 -11
-17 -13 14 5 -8 -13 -16 -11
-17 -13 15 5 -8 -13 -16 -11
-16 -14 16 6 -7 -13 -16 -12
-17 -14 16 6 -7 -13 -16 -12
-18 -14 16 6 -7 -13 -17 -12
-19 -14 15 6 -7 -13 -17 -13
-20 -14 15 6 -7 -13 -18 -13
-21 -15 14 7 -8 -13 -19 -14
-20 -15 14 7 -8 -13 -19 -14
-19 -15 14 7 -8 -13 -19 -13
-18 -15 14 7 -7 -12 -18 -13
-17 -15 14 7 -7 -12 -18 -12
-16 -14 15 8 -6 -11 -17 -11
-16 -14 15 8 -6 -11 -17 -11
-16 -13 15 8 -7 -12 -17 -12
-16 -12 14 7 -8 -13 -17 -13
-16 -11 14 7 -9 -14 -17 -14
-16 -10 13 6 -10 -15 -17 -15
-16 -11 14 6 -10 -15 -17 -15
-16 -12 15 7 -9 -15 -17 -14
-16 -13 16 7 -9 -14 -17 -13
-16 -14 17 8 -8 -14 -17 -12
-17 -15 18 9 -7 -13 -16 -11
-17 -15 18 9 -7 -13 -16 -11
-17 -15 18 9 -7 -13 -16 -11
-17 -15 18 9 -7 -12 -15 -12
-17 -15 18 9 -7 -12 -15 -12
-18 -16 17 9 -6 -11 -14 -13
-18 -16 17 9 -6 -11 -14 -13
-17 -16 17 9 -6 -11 -14 -13
-16 -16 17 9 -7 -11 -14 -13
-15 -16 17 9 -7 -11 -14 -13
-14 -15 16 8 -8 -12 -15 -14
-14 -15 16 8 -8 -12 -15 -14
-14 -15 16 8 -8 -12 -15 -14
-14 -14 16 9 -8 -12 -14 -13
-14 -14 16 9 -8 -12 -14 -13
-13 -13 17 10 -7 -11 -13 -12
-13 -13 17 10 -7 -11 -13 -12
-13 -13 17 10 -7 -11 -13 -12
-12 -13 17 10 -7 -11 -14 -12
-12 -13 17 10 -7 -11 -14 -12
-11 -14 17 9 -7 -11 -15 -11
-11 -14 17 9 -7 -11 -15 -11
-11 -13 17 9 -7 -11 -14 -11
-11 -13 17 9 -7 -11 -13 -11
-11 -12 17 9 -7 -11 -12 -11
-12 -11 17 10 -6 -10 -11 -11
-12 -11 17 10 -6 -10 -11 -11
-11 -11 17 10 -6 -10 -11 -11
-10 -12 17 10 -6 -10 -11 -10
-9 -12 17 10 -6 -10 -11 -10
-8 -13 16 9 -6 -10 -10 -9
-8 -13 15 9 -6 -10 -10 -9
-7 -12 14 9 -6 -9 -10 -9
-7 -12 13 9 -5 -9 -9 -8
-6 -11 12 9 -5 -8 -9 -8
-5 -10 11 8 -4 -7 -8 -7
-4 -10 9 8 -4 -7 -7 -6
-3 -9 7 8 -4 -6 -6 -5
-2 -9 5 7 -4 -5 -4 -4
0 -8 3 7 -4 -4 -3 -3
2 -7 1 6 -3 -3 0 -2
4 -6 -2 6 -3 -2 1 0
6 -5 -4 5 -2 0 3 2
8 -3 -6 4 0 1 4 3
10 -2 -8 3 1 2 6 5
12 1 -10 2 2 4 8 7
12 1 -12 0 2 4 8 7
12 1 -14 -3 2 5 9 8
13 1 -16 -5 2 5 9 9
13 1 -18 -7 2 6 10 10
14 0 -20 -9 1 7 11 11
16 1 -21 -10 1 8 12 11
17 2 -22 -11 1 9 13 12
19 3 -24 -12 2 10 15 12
21 4 -25 -13 2 11 16 13
23 5 -27 -14 3 13 18 14
23 7 -28 -15 3 13 18 14
23 9 -30 -16 3 13 18 15
23 11 -31 -17 3 13 18 16
23 13 -33 -18 3 13 18 17
24 15 -35 -20 3 14 19 18
24 15 -35 -19 4 15 19 18
24 15 -34 -18 5 16 19 18
24 15 -33 -17 6 17 20 19
24 15 -32 -16 7 18 20 19
23 15 -31 -14 9 19 21 20
23 15 -29 -13 10 19 21 20
22 16 -27 -12 11 19 21 20
22 16 -25 -11 12 19 22 20
21 17 -22 -10 13 19 22 20
20 18 -20 -9 15 19 23 21
19 18 -18 -7 15 19 23 20
17 18 -16 -5 16 19 22 18
16 18 -14 -3 16 19 21 17
14 18 -11 1 17 19 20 15
12 17 -9 3 18 20 19 13
11 17 -7 4 18 19 18 13
10 16 -4 5 18 18 17 13
8 15 0 7 18 17 15 12
7 14 2 8 18 16 14 12
5 13 5 10 18 15 12 11
4 13 5 10 18 15 12 11
3 13 6 10 18 15 12 10
2 13 6 10 17 14 12 9
1 13 7 10 17 14 12 8
0 12 8 11 16 13 11 7
0 12 8 11 15 12 10 6
-2 11 8 10 14 11 9 5
-2 10 9 10 13 10 7 4
-3 9 9 9 12 9 6 3
-4 8 10 8 11 8 4 1
-4 7 10 8 11 8 4 1
-5 6 9 8 10 7 3 0
-5 5 9 7 10 6 3 0
-6 4 8 7 9 5 2 -2
-7 3 7 6 8 4 1 -3
-7 3 7 6 8 4 1 -3
-7 3 7 6 7 4 1 -3
-7 2 7 6 6 4 1 -3
-7 2 7 6 5 4 1 -3
-8 1 8 5 4 3 0 -3
-8 1 8 5 4 3 0 -3
-8 1 7 4 4 3 0 -3
-8 0 6 3 3 2 0 -3
-8 0 5 2 3 2 0 -3
-9 -2 4 1 2 1 -2 -4
-8 0 4 1 2 1 -2 -4
-7 1 4 1 2 1 -2 -4
-6 2 4 1 2 1 -2 -4
-5 3 4 1 2 1 -2 -4
-3 4 4 1 1 0 -3 -5
-4 3 4 1 1 0 -3 -5
-5 1 4 1 1 0 -3 -5
-6 0 4 1 1 0 -3 -5
-7 -3 4 1 1 0 -3 -5
-9 -5 4 0 1 -2 -3 -5
-9 -5 4 0 1 -2 -3 -5
-8 -4 4 0 1 -2 -3 -5
-8 -3 5 0 1 -2 -3 -5
-7 -2 5 0 1 -2 -3 -5
-6 0 6 1 2 0 -2 -4
-6 0 6 1 2 0 -2 -4
-6 0 6 2 2 0 -2 -4
-6 0 7 3 2 0 -2 -4
-6 0 7 4 2 0 -2 -4
-6 1 8 5 2 0 -2 -3
-6 1 8 5 2 0 -2 -3
-6 1 8 5 2 0 -2 -3
-6 1 8 5 2 0 -3 -3
-6 1 8 5 2 0 -3 -3
-7 0 7 5 1 -2 -4 -4
-7 0 7 5 1 -2 -4 -4
-7 0 8 5 1 -2 -4 -4
-7 0 9 6 2 -2 -4 -4
-7 0 10 6 2 -2 -4 -4
-7 1 11 7 3 -2 -3 -4
-7 1 11 7 3 -2 -3 -4
-7 1 11 7 3 -2 -3 -4
-7 1 11 7 3 -2 -3 -4
-7 1 11 7 3 -2 -3 -4
-8 0 11 8 2 -2 -3 -5
-8 0 11 8 2 -2 -3 -5
-8 0 11 8 2 -2 -3 -6
-8 1 11 8 1 -2 -4 -6
-8 1 11 8 1 -2 -4 -7
-9 2 11 9 0 -3 -5 -8
-9 2 11 9 0 -3 -5 -8
-9 2 11 10 0 -3 -5 -8
-9 3 11 10 0 -4 -6 -7
-9 3 11 11 0 -4 -6 -7
-8 4 12 12 1 -5 -7 -6
-8 4 12 12 1 -5 -7 -6
-8 4 12 12 2 -4 -6 -6
-8 4 12 13 2 -4 -5 -5
-8 4 12 13 3 -3 -4 -5
-9 5 13 14 4 -2 -3 -4
-9 4 13 14 4 -2 -3 -4
-9 3 13 14 4 -2 -3 -4
-8 2 12 14 4 -2 -3 -3
-8 1 12 14 4 -2 -3 -3
-7 0 11 13 3 -3 -2 -2
-7 0 11 13 3 -3 -2 -2
-7 0 10 12 2 -3 -2 -3
-7 1 9 12 2 -2 -2 -3
-7 1 8 11 1 -2 -2 -4
-7 2 7 10 0 0 -2 -5
-7 2 7 10 0 0 -2 -5
-6 2 7 10 0 0 -2 -5
-6 2 8 11 1 -2 -2 -4
-5 2 8 11 1 -2 -2 -4
-4 3 9 12 2 -3 -3 -3
-4 3 9 12 2 -3 -3 -3
-4 3 9 12 2 -3 -3 -3
-5 3 9 11 2 -3 -4 -4
-5 3 9 11 2 -3 -4 -4
-6 3 9 10 1 -4 -5 -5
-6 3 9 10 1 -4 -5 -5
-6 3 9 10 1 -4 -5 -5
-6 3 9 10 1 -3 -5 -4
-6 3 9 10 1 -3 -5 -4
-6 3 9 10 2 -2 -4 -3
-6 3 9 10 2 -2 -4 -3
-6 3 8 9 1 -2 -4 -3
-6 2 8 9 0 -2 -4 -3
-6 2 7 8 -2 -2 -4 -3
-7 1 6 7 -3 -3 -4 -3
-7 1 6 7 -3 -3 -4 -3
-7 1 6 7 -3 -3 -4 -3
-7 1 6 7 -3 -4 -5 -4
-7 1 6 7 -3 -4 -5 -4
-8 2 7 8 -2 -5 -6 -5
-8 2 7 8 -2 -5 -6 -5
-8 2 7 7 -2 -5 -6 -5
-7 2 7 6 -2 -5 -6 -5
-7 2 7 5 -2 -5 -6 -5
-7 2 7 5 -2 -5 -6 -5
-6 3 6 4 -3 -4 -7 -6
-6 3 6 4 -3 -4 -7 -6
-5 3 6 4 -3 -4 -6 -5
-5 3 6 4 -3 -4 -6 -5
-5 3 6 4 -3 -4 -6 -5
-4 4 7 5 -2 -4 -5 -4
-4 4 7 5 -2 -4 -5 -4
-4 4 7 5 -2 -4 -5 -4
-4 4 7 5 -2 -4 -5 -4
-4 4 7 5 -2 -4 -5 -4
-4 5 6 5 -2 -4 -4 -3
-4 4 6 5 -2 -4 -4 -3
-5 3 6 5 -2 -4 -5 -4
-5 2 6 5 -2 -4 -5 -4
-5 1 6 5 -2 -4 -5 -4
-6 0 5 5 -3 -5 -6 -5
-5 0 5 5 -3 -5 -6 -5
-5 1 5 5 -3 -5 -6 -5
-4 1 5 5 -3 -5 -6 -5
-4 1 5 5 -3 -5 -6 -5
-3 2 4 5 -3 -4 -6 -4
-3 2 4 5 -3 -4 -6 -4
-4 2 4 5 -3 -4 -5 -4
-4 2 4 5 -3 -4 -5 -4
-4 2 4 5 -3 -4 -5 -4
-5 3 5 4 -2 -3 -4 -3
-5 3 5 4 -2 -3 -5 -3
-5 3 4 4 -2 -4 -5 -4
-5 3 4 4 -2 -4 -6 -4
-5 3 4 4 -2 -4 -6 -4
-4 2 3 3 -3 -5 -7 -5
-4 2 3 3 -3 -5 -7 -5
-4 2 3 3 -3 -5 -7 -4
-4 2 3 3 -3 -5 -7 -4
-4 2 3 3 -3 -5 -7 -4
-5 2 2 2 -4 -4 -6 -3
-5 3 2 2 -4 -4 -6 -3
-4 3 2 2 -4 -5 -6 -4
-4 4 2 2 -4 -5 -6 -4
-4 4 2 2 -4 -5 -6 -4
-3 5 3 3 -3 -6 -6 -5
-4 4 3 3 -3 -6 -6 -5
-4 3 3 3 -3 -6 -6 -5
-5 2 3 3 -3 -6 -6 -5
-5 2 3 3 -3 -6 -6 -5
-6 1 2 2 -4 -7 -6 -4
-5 1 2 2 -4 -7 -6 -4
-5 1 2 2 -4 -7 -6 -4
-4 1 2 2 -4 -7 -6 -4
-4 1 2 2 -4 -7 -6 -4
-3 2 2 1 -4 -6 -5 -3
-3 2 2 1 -4 -6 -5 -4
-3 2 2 1 -4 -6 -6 -4
-3 2 2 1 -4 -6 -6 -5
-3 2 2 1 -4 -6 -6 -5
-4 3 1 0 -4 -7 -7 -6
-3 4 1 0 -4 -7 -7 -6
-2 5 2 1 -4 -7 -7 -6
0 6 2 1 -4 -7 -7 -6
0 7 2 1 -4 -7 -7 -6
1 8 3 2 -4 -6 -6 -5
1 8 3 2 -3 -5 -5 -4
2 8 3 2 -3 -4 -4 -3
2 8 3 2 -2 -3 -3 -2
2 8 3 2 -2 -3 -3 -2
3 7 3 3 0 -2 -2 0
3 6 2 2 0 -2 -2 0
3 6 1 1 -2 -2 -3 0
3 5 0 0 -2 -2 -3 0
3 5 -2 0 -2 -2 -3 0
4 4 -3 -2 -3 -3 -4 -2
5 4 -3 -2 -3 -3 -4 -2
6 5 -3 -3 -3 -4 -4 -2
7 5 -3 -3 -3 -4 -4 -2
8 5 -3 -3 -3 -4 -4 -2
9 7 -3 -4 -4 -5 -5 -3
9 8 -2 -3 -3 -4 -4 -3
9 10 0 -2 -2 -4 -4 -3
9 11 1 0 0 -3 -3 -3
9 12 2 0 0 -3 -3 -3
10 13 3 1 1 -2 -2 -2
10 13 3 1 1 -2 -2 -2
10 13 3 2 2 -2 -2 -2
10 13 3 2 2 -2 -2 -2
10 13 3 2 2 -2 -2 -2
11 13 4 3 3 0 -2 0
11 13 3 3 3 0 -2 1
11 12 2 3 3 0 0 2
11 12 1 3 3 0 0 3
11 12 0 3 3 0 0 3
12 11 -2 2 2 1 1 4
12 10 -3 1 1 1 1 3
11 10 -4 -2 0 1 1 2
11 9 -5 -3 -2 1 1 1
11 9 -6 -4 -3 1 1 0
10 8 -7 -5 -4 0 0 -2
9 8 -6 -5 -4 -2 0 -2
9 8 -6 -5 -4 -2 0 -2
8 8 -5 -5 -4 -3 0 -2
8 8 -5 -5 -4 -3 0 -2
6 8 -4 -4 -3 -4 -2 -3
4 7 -3 -4 -3 -4 -3 -3
2 6 -2 -4 -3 -4 -3 -4
0 5 0 -4 -3 -4 -4 -4
-2 4 1 -4 -3 -4 -4 -4
-3 3 2 -3 -2 -4 -5 -5
-3 2 1 -3 -3 -5 -5 -5
-4 1 1 -4 -3 -5 -5 -5
-4 0 0 -4 -4 -6 -5 -5
-4 0 0 -4 -4 -6 -5 -5
-5 -2 -2 -5 -5 -7 -6 -6
-5 -2 -2 -5 -5 -7 -6 -6
-5 -2 -2 -5 -5 -7 -6 -6
-5 -2 -2 -5 -5 -7 -6 -6
-5 -2 -2 -5 -5 -7 -6 -6
-6 0 -2 -5 -4 -7 -7 -6
-5 1 0 -4 -3 -6 -7 -6
-5 2 1 -3 -3 -6 -6 -5
-4 3 2 -2 -2 -5 -6 -5
-4 3 2 -2 -2 -5 -6 -5
-14 7 24 8 0 -7 -9 -7
-26 10 48 18 0 -10 -14 -11
-38 14 71 27 0 -13 -18 -16
-52 18 96 37 0 -17 -23 -20
-64 21 119 48 0 -20 -28 -24
-65 32 160 99 27 0 -14 -19
-64 44 204 156 60 22 3 -11
-62 55 247 214 93 46 20 -4
-61 66 290 270 125 69 37 4
-60 77 334 327 157 92 55 12
-26 99 301 361 226 154 108 53
11 121 258 392 299 222 167 99
49 144 215 424 370 289 225 144
86 167 172 455 443 357 283 189
123 189 129 486 516 424 342 235
128 164 66 377 431 364 303 214
128 133 2 248 326 286 250 182
128 101 -63 120 222 210 197 151
128 69 -128 -7 116 133 145 120
128 37 -192 -135 12 56 92 90
119 30 -211 -173 -29 23 65 72
108 26 -224 -198 -61 -4 40 56
97 22 -236 -224 -94 -29 17 40
86 18 -248 -249 -127 -56 -7 24
74 14 -261 -276 -159 -82 -31 8
63 8 -252 -266 -159 -88 -38 1
53 2 -238 -251 -154 -89 -44 -5
43 -5 -225 -235 -149 -91 -49 -11
31 -11 -212 -220 -144 -92 -55 -17
21 -17 -198 -203 -139 -93 -60 -23
17 -22 -181 -187 -130 -90 -60 -25
14 -26 -163 -170 -119 -85 -58 -27
11 -31 -146 -153 -109 -79 -57 -29
9 -35 -129 -136 -100 -73 -55 -31
6 -40 -111 -119 -90 -68 -54 -33
4 -38 -96 -104 -79 -62 -50 -32
2 -35 -81 -91 -70 -56 -46 -30
0 -31 -66 -76 -60 -50 -41 -28
-3 -28 -52 -62 -51 -43 -37 -25
-5 -24 -36 -48 -41 -36 -33 -23
-6 -23 -29 -41 -37 -34 -31 -22
-7 -22 -24 -35 -33 -31 -30 -21
-8 -21 -18 -30 -30 -29 -28 -20
-9 -20 -12 -25 -26 -27 -26 -19
-9 -19 -6 -19 -23 -25 -25 -19
-10 -18 -4 -17 -22 -24 -24 -18
-11 -18 -3 -16 -22 -24 -24 -18
-11 -17 -2 -14 -21 -23 -23 -18
-12 -17 0 -13 -21 -23 -23 -18
-12 -17 1 -12 -21 -23 -23 -18
-13 -16 2 -10 -20 -22 -22 -18
-13 -16 3 -9 -19 -22 -22 -17
-12 -15 4 -8 -18 -22 -21 -16
-12 -15 5 -7 -17 -22 -21 -15
-12 -15 5 -6 -17 -22 -21 -15
-11 -14 6 -5 -16 -21 -20 -14
-11 -13 7 -5 -15 -20 -20 -14
-10 -12 7 -4 -15 -19 -19 -15
-10 -11 8 -4 -14 -18 -19 -15
-10 -10 8 -4 -14 -18 -19 -15
-9 -9 9 -3 -13 -17 -18 -16
-9 -9 10 -3 -13 -17 -18 -16
-8 -9 11 -3 -13 -17 -17 -16
-8 -9 12 -3 -13 -17 -17 -16
-8 -9 12 -3 -13 -17 -17 -16
-7 -10 13 -3 -13 -17 -16 -15
-8 -11 13 -2 -13 -17 -16 -15
-9 -11 13 0 -12 -17 -16 -15
-10 -12 13 1 -12 -17 -16 -15
-11 -12 13 1 -12 -17 -16 -15
-12 -13 13 2 -11 -16 -16 -14
-11 -12 13 2 -11 -16 -16 -14
-11 -11 12 1 -12 -17 -16 -14
-10 -10 12 1 -12 -17 -16 -14
-10 -9 12 1 -12 -17 -16 -14
-9 -8 11 0 -13 -18 -17 -14
-9 -9 11 0 -13 -17 -17 -14
-10 -10 11 0 -13 -17 -17 -14
-10 -11 11 0 -13 -16 -17 -14
-10 -12 11 0 -13 -16 -17 -14
-11 -13 12 -2 -12 -15 -17 -13
-11 -13 12 -2 -12 -15 -17 -13
-11 -13 12 -2 -12 -16 -16 -13
-11 -13 12 -2 -12 -16 -16 -13
-11 -13 12 -2 -12 -16 -16 -13
-12 -11 12 0 -12 -17 -15 -12
-12 -10 13 0 -12 -17 -15 -13
-11 -9 13 0 -12 -17 -16 -14
-11 -8 14 0 -12 -17 -16 -15
-11 -7 14 0 -12 -17 -16 -15
-10 -6 15 0 -11 -17 -17 -16
-10 -7 15 0 -11 -17 -17 -16
-9 -7 15 0 -11 -17 -17 -16
-9 -8 15 0 -11 -17 -17 -16
-9 -8 15 0 -11 -17 -17 -16
-8 -9 14 -2 -11 -17 -17 -15
-9 -9 13 -2 -11 -17 -17 -15
-10 -9 13 -2 -11 -17 -17 -15
-11 -9 12 -2 -11 -17 -17 -15
-11 -9 12 -2 -11 -17 -17 -15
-12 -9 11 0 -12 -18 -18 -14
-10 -9 11 0 -12 -17 -17 -14
-9 -9 11 1 -12 -17 -17 -14
-8 -9 11 1 -12 -16 -16 -14
-7 -9 11 1 -12 -16 -16 -14
-6 -9 12 2 -12 -15 -15 -14
-6 -9 12 3 -12 -15 -15 -14
-7 -9 11 4 -12 -15 -15 -13
-7 -9 11 5 -12 -15 -15 -13
-7 -9 11 5 -12 -15 -15 -13
-8 -10 10 6 -11 -14 -15 -12
-7 -10 10 7 -11 -14 -15 -12
-7 -10 10 7 -10 -14 -14 -12
-6 -10 10 8 -10 -14 -14 -12
-6 -10 10 8 -10 -14 -14 -12
-5 -10 11 9 -9 -13 -13 -12
-5 -10 11 9 -9 -13 -13 -12
-5 -10 10 9 -9 -13 -13 -12
-5 -10 10 9 -9 -13 -13 -12
-5 -10 10 9 -9 -13 -13 -12
-4 -11 9 8 -10 -13 -14 -12
-3 -11 9 9 -9 -12 -12 -11
0 -11 9 9 -9 -11 -11 -11
2 -11 9 10 -8 -10 -10 -10
3 -11 9 10 -8 -10 -9 -10
4 -10 9 11 -7 -9 -8 -9
5 -8 7 11 -7 -9 -8 -8
6 -6 6 11 -6 -9 -7 -8
7 -5 5 11 -6 -9 -7 -7
7 -3 4 11 -6 -9 -7 -7
9 -2 2 11 -5 -8 -6 -6
10 -2 1 10 -5 -7 -5 -5
11 -3 0 9 -4 -6 -4 -4
13 -3 -3 8 -4 -5 -3 -3
14 -3 -4 8 -4 -5 -2 -2
15 -4 -6 7 -3 -3 1 1
17 -2 -8 7 -2 -2 4 3
18 0 -10 7 -2 0 6 5
19 1 -11 7 0 2 9 7
20 2 -13 7 0 3 11 9
22 3 -15 6 1 4 12 10
23 3 -17 4 1 5 12 11
24 3 -19 2 1 5 12 11
26 3 -21 1 1 6 12 12
27 3 -23 -2 1 6 12 12
28 4 -25 -4 1 7 13 13
30 6 -28 -6 1 8 14 13
31 9 -30 -8 1 8 15 13
32 11 -33 -10 1 9 16 13
33 13 -35 -12 1 9 17 13
34 14 -37 -13 1 10 19 15
34 14 -38 -14 1 11 20 17
34 13 -39 -14 1 12 21 19
34 13 -41 -15 1 13 23 21
34 13 -43 -15 1 13 24 23
35 12 -44 -16 2 14 25 24
35 13 -44 -16 3 15 25 23
35 13 -45 -16 4 16 25 23
35 14 -45 -16 5 17 25 22
35 14 -45 -16 6 18 25 22
33 15 -45 -17 7 19 25 21
32 15 -44 -15 7 19 25 21
31 16 -43 -14 8 19 24 20
29 16 -40 -13 8 19 24 20
28 16 -39 -12 8 19 24 20
27 17 -36 -10 9 19 23 19
26 17 -33 -8 11 19 23 19
25 17 -30 -5 12 19 22 19
24 17 -26 -3 13 19 22 19
23 17 -23 0 14 19 22 19
21 16 -20 2 15 20 21 18
20 16 -17 4 15 20 20 17
19 16 -14 6 16 19 20 17
17 16 -10 8 16 19 19 16
16 16 -7 10 16 19 19 16
14 16 -6 11 17 17 18 14
12 16 -4 11 17 16 16 13
11 15 -3 12 16 15 15 12
9 15 -2 12 16 13 14 10
7 15 0 12 16 12 13 9
6 14 1 13 15 11 12 8
5 13 2 13 14 11 12 8
4 12 2 13 13 10 11 7
3 11 3 13 12 10 11 7
3 10 3 13 12 10 11 7
2 9 4 12 11 9 10 5
2 9 4 11 10 7 8 4
2 8 4 11 9 6 7 3
2 8 4 10 8 5 6 1
2 8 4 10 7 4 5 0
1 7 5 9 6 3 4 -2
0 6 5 8 5 2 3 -2
0 5 5 7 4 1 2 -2
-2 5 5 7 4 1 1 -2
-2 4 5 6 3 0 0 -2
-3 3 4 5 2 -2 -2 -3
-3 3 4 5 2 -2 0 -3
-3 3 4 5 2 -2 0 -2
-3 3 4 5 2 -2 1 -2
-3 3 4 5 2 -2 1 -2
-2 3 5 5 2 0 2 0
-3 3 5 4 1 0 1 -2
-3 2 4 3 1 -2 0 -2
-4 2 4 3 0 -2 0 -3
-4 2 4 2 0 -2 -2 -3
-5 1 3 1 -2 -3 -3 -4
-5 1 3 1 -3 -4 -3 -4
-5 0 3 1 -4 -4 -4 -4
-5 0 3 1 -4 -5 -4 -4
-5 0 3 1 -5 -5 -4 -4
-6 -2 2 0 -6 -6 -5 -5
-6 0 3 0 -6 -6 -5 -5
-6 1 3 0 -6 -6 -5 -6
-6 1 4 0 -6 -6 -5 -6
-6 2 4 0 -6 -6 -5 -6
-5 3 5 0 -5 -6 -5 -7
-4 2 6 2 -5 -6 -4 -6
-3 2 7 3 -4 -5 -4 -6
-2 1 7 4 -4 -5 -3 -5
0 1 8 5 -4 -5 -3 -5
0 0 9 6 -3 -4 -2 -4
-2 -2 9 6 -3 -4 -3 -5
-3 -3 8 6 -3 -5 -3 -5
-5 -4 8 6 -3 -5 -4 -6
-6 -5 8 6 -3 -5 -4 -6
-7 -6 7 5 -3 -6 -5 -7
-7 -5 8 6 -3 -6 -5 -7
-7 -4 9 7 -3 -5 -4 -7
-7 -3 9 8 -3 -5 -4 -7
-7 -2 10 9 -3 -5 -4 -7
-6 0 11 10 -2 -4 -3 -6
-6 0 12 10 0 -4 -3 -5
-6 0 12 11 0 -3 -2 -5
-6 0 13 11 1 -3 -2 -4
-6 0 13 11 1 -3 -2 -4
-6 -2 14 12 2 -2 0 -3
-6 -2 14 12 2 -2 0 -3
-6 -2 14 13 2 -2 0 -4
-6 -2 14 13 2 -2 0 -4
-6 -2 14 13 2 -2 0 -4
-7 -3 13 14 1 -3 -2 -5
-6 -2 13 14 2 -2 0 -5
-6 0 13 14 3 0 1 -4
-5 0 13 14 3 0 2 -4
-5 1 13 14 4 1 3 -4
-4 2 14 15 5 2 4 -3
-4 2 14 15 5 1 3 -3
-4 2 14 14 4 0 2 -4
-4 2 14 14 4 0 1 -4
-4 2 14 14 4 -2 0 -4
-5 1 14 13 3 -3 -2 -5
-5 1 14 13 3 -3 -2 -5
-5 0 14 13 3 -3 -2 -5
-5 0 14 13 3 -3 -2 -5
-5 0 14 13 3 -3 -2 -5
-6 -2 13 13 2 -3 -2 -5
-6 -2 13 13 2 -3 0 -5
-5 0 13 13 2 -2 0 -4
-5 0 13 13 2 -2 1 -4
-5 0 13 13 2 -2 1 -4
-4 1 13 14 3 0 2 -3
-4 1 13 13 3 0 2 -3
-4 2 12 12 3 0 2 -3
-4 2 12 11 3 0 2 -3
-4 2 12 10 3 0 2 -3
-4 3 11 9 3 -2 2 -3
-5 2 10 9 2 -2 1 -4
-6 1 10 9 1 -2 0 -5
-6 1 9 9 1 -2 -2 -5
-7 0 9 9 0 -2 -3 -6
-8 -2 8 8 -2 -3 -4 -7
-8 -2 8 8 -2 -3 -4 -7
-7 -2 9 8 0 -3 -3 -6
-7 -2 9 8 0 -3 -3 -6
-7 -2 9 8 0 -3 -3 -6
-6 0 10 7 1 -3 -2 -5
-6 0 10 7 1 -3 -2 -5
-5 1 10 7 1 -3 0 -5
-5 1 10 7 1 -3 0 -5
-5 1 10 7 1 -3 0 -5
-4 2 10 8 1 -3 1 -5
-5 1 9 7 1 -3 1 -5
-5 0 9 6 1 -3 1 -5
-6 0 8 5 1 -3 1 -5
-6 -2 8 4 1 -3 1 -5
-7 -3 7 3 0 -4 0 -5
-7 -3 7 3 0 -4 0 -5
-6 -2 7 3 0 -4 -2 -5
-6 -2 7 3 0 -4 -2 -5
-6 -2 7 3 0 -4 -2 -5
-5 0 7 4 -2 -5 -3 -6
-5 0 7 4 -2 -5 -3 -6
-5 -2 7 3 -2 -5 -3 -5
-5 -2 7 3 -2 -5 -3 -5
-5 -2 7 3 -2 -5 -3 -5
-5 -3 7 2 -3 -6 -2 -4
-5 -3 7 2 -3 -6 -2 -4
-5 -3 6 2 -3 -5 0 -3
-5 -3 5 2 -3 -5 1 -3
-5 -3 5 2 -3 -5 1 -3
-5 -2 4 3 -2 -4 2 -2
-5 -2 4 2 -2 -4 2 -3
-6 -2 3 1 -3 -4 1 -5
-7 -2 3 1 -3 -4 0 -6
-7 -2 3 0 -3 -4 0 -7
-8 -3 2 -2 -4 -5 -2 -8
-8 -3 2 -2 -4 -5 -2 -7
-7 -4 2 -2 -4 -5 -2 -6
-7 -4 2 -2 -4 -5 -2 -6
-7 -4 2 -2 -4 -5 -2 -5
-6 -5 3 -2 -4 -6 -2 -4
-6 -5 3 -2 -4 -6 -2 -4
-6 -4 3 -2 -4 -6 -2 -4
-6 -4 3 -2 -4 -6 -2 -4
-6 -4 3 -2 -4 -6 -2 -4
-5 -3 4 0 -4 -6 0 -4
-5 -3 4 0 -4 -6 0 -4
-4 -2 4 -2 -4 -6 -2 -5
-3 -2 4 -2 -4 -6 -2 -5
-3 -2 4 -2 -4 -6 -2 -5
-2 0 4 -3 -4 -5 -3 -6
-3 0 4 -3 -4 -5 -3 -6
-4 0 4 -3 -4 -6 -3 -6
-4 0 4 -3 -4 -6 -3 -6
-5 0 4 -3 -4 -6 -3 -6
-6 -2 3 -4 -4 -7 -4 -6
-6 -2 3 -4 -4 -7 -4 -6
-6 -3 3 -4 -4 -6 -3 -6
-6 -3 3 -4 -4 -6 -3 -6
-6 -3 3 -4 -4 -6 -3 -6
-5 -4 4 -3 -3 -5 -2 -5
-5 -4 4 -3 -3 -5 -2 -5
-5 -5 3 -4 -4 -6 -3 -5
-5 -5 2 -4 -4 -6 -3 -5
-5 -5 2 -4 -4 -6 -3 -5
-6 -6 1 -5 -5 -7 -4 -6
-6 -5 1 -5 -5 -7 -4 -6
-5 -4 1 -5 -4 -6 -3 -5
-5 -4 1 -5 -4 -5 -2 -4
-5 -3 1 -5 -4 -5 -2 -4
-4 -2 0 -4 -3 -4 0 -3
-4 -2 0 -4 -3 -4 0 -3
-3 0 1 -4 -3 -4 0 -3
-3 0 2 -4 -3 -4 0 -3
-3 0 2 -4 -3 -4 0 -3
-2 1 3 -5 -4 -5 -2 -4
-3 1 2 -5 -4 -6 -2 -4
-4 0 1 -5 -4 -7 -3 -5
-4 -2 1 -5 -4 -7 -4 -5
-5 -2 0 -5 -4 -8 -4 -5
-5 -3 -2 -6 -5 -9 -5 -6
-3 -3 -2 -6 -5 -8 -4 -5
0 -3 -2 -6 -5 -7 -2 -4
2 -3 -2 -6 -5 -6 0 -3
4 -3 -2 -6 -5 -5 1 -2
5 -3 -3 -6 -4 -4 2 0
5 -2 -3 -6 -4 -4 2 0
5 1 -3 -6 -4 -4 1 0
5 2 -3 -6 -4 -4 1 0
5 3 -3 -6 -4 -4 1 0
4 4 -2 -6 -4 -4 0 -2
6 5 0 -5 -4 -3 1 -2
7 7 1 -3 -3 0 3 0
9 8 2 0 -2 1 4 0
10 9 3 2 -2 2 5 0
11 10 4 3 0 3 6 1
11 10 3 3 0 3 6 1
10 9 2 3 1 2 6 2
10 8 2 3 2 2 6 3
10 8 1 3 2 2 6 3
9 7 0 3 3 1 6 4
9 6 -2 2 3 1 6 4
9 5 -3 1 2 1 5 4
9 4 -3 1 2 1 4 4
9 3 -4 0 2 1 4 4
9 2 -5 -2 1 0 3 3
8 2 -5 -2 1 0 3 3
6 2 -5 -3 0 -2 3 2
5 2 -5 -4 -2 -3 3 2
4 2 -5 -4 -2 -3 3 2
2 1 -5 -5 -3 -4 3 1
0 1 -5 -5 -3 -4 2 0
-3 0 -4 -5 -3 -4 1 -2
-5 0 -4 -5 -3 -4 1 -2
-7 0 -4 -5 -3 -4 0 -3
-8 -2 -3 -5 -3 -5 -2 -4
-8 -3 -3 -5 -4 -6 -2 -4
-8 -4 -3 -5 -5 -7 -3 -4
-8 -4 -3 -5 -5 -7 -3 -4
-8 -5 -3 -5 -6 -8 -3 -4
-8 -6 -3 -6 -7 -9 -4 -5
-8 -6 -3 -6 -7 -9 -4 -5
-9 -6 -4 -6 -8 -9 -4 -5
-9 -6 -5 -6 -8 -9 -4 -5
-9 -6 -5 -6 -8 -9 -4 -5
-10 -7 -6 -7 -9 -9 -4 -6
-10 -7 -5 -6 -9 -9 -4 -6
-9 -6 -4 -5 -8 -8 -4 -6
-8 -5 -4 -5 -8 -8 -4 -6
-8 -5 -3 -4 -8 -8 -4 -6
-9 -4 3 -2 -7 -7 -3 -6
-12 -2 10 1 -7 -8 -4 -6
-16 1 17 3 -6 -9 -6 -6
-19 2 24 5 -6 -9 -7 -6
-23 4 31 8 -6 -10 -8 -6
-32 9 62 29 1 -10 -9 -7
-46 16 110 65 11 -9 -10 -11
-59 24 158 102 21 -7 -11 -14
-72 31 205 138 31 -5 -12 -17
-86 38 254 174 40 -3 -13 -20
-77 53 277 229 86 33 15 -3
-52 71 284 298 156 95 65 31
-26 90 292 366 226 156 115 66
1 109 299 436 297 218 165 101
26 128 306 505 367 279 216 135
49 135 262 492 394 306 241 155
69 131 179 419 387 306 247 164
90 128 96 345 379 306 254 175
110 123 14 270 371 306 261 184
131 120 -69 196 364 306 267 193
134 108 -124 112 303 265 241 181
122 90 -157 21 201 192 189 150
111 71 -190 -71 99 119 137 119
100 53 -223 -162 -3 48 85 88
88 33 -256 -254 -105 -25 33 57
78 21 -269 -289 -151 -61 4 37
69 14 -264 -280 -154 -69 -8 28
60 7 -259 -271 -156 -77 -20 18
52 -2 -254 -262 -159 -86 -31 8
43 -9 -248 -253 -161 -94 -43 -2
34 -16 -236 -238 -158 -98 -50 -9
27 -23 -218 -220 -149 -96 -52 -15
20 -30 -200 -201 -140 -94 -54 -20
12 -37 -182 -183 -131 -93 -56 -25
5 -45 -163 -164 -122 -91 -58 -30
1 -48 -146 -147 -111 -86 -57 -33
1 -45 -128 -130 -99 -76 -52 -31
0 -41 -110 -112 -88 -68 -48 -29
-2 -39 -92 -94 -75 -60 -43 -28
-2 -36 -73 -76 -64 -51 -38 -26
-3 -34 -60 -64 -55 -45 -34 -25
-5 -32 -50 -55 -49 -41 -31 -23
-6 -31 -40 -46 -43 -37 -28 -21
-7 -30 -30 -36 -36 -33 -26 -20
-9 -28 -20 -27 -30 -29 -23 -18
-10 -27 -14 -21 -27 -27 -21 -17
-11 -26 -11 -18 -25 -26 -21 -17
-12 -25 -8 -15 -24 -25 -20 -17
-12 -25 -5 -13 -23 -24 -20 -17
-13 -24 -2 -10 -21 -23 -20 -17
-14 -23 1 -8 -20 -22 -19 -16
-14 -22 1 -7 -20 -22 -19 -16
-14 -21 1 -6 -20 -21 -19 -16
-14 -21 1 -5 -20 -21 -19 -16
-14 -20 1 -4 -20 -21 -19 -16
-15 -19 1 -3 -20 -20 -18 -16
-15 -19 3 -3 -19 -20 -18 -16
-15 -19 5 -2 -18 -19 -17 -15
-15 -19 6 -2 -17 -19 -16 -14
-15 -19 8 -2 -16 -19 -16 -14
-14 -19 9 0 -15 -18 -15 -13
-14 -19 9 1 -15 -18 -15 -13
-13 -19 9 2 -14 -17 -14 -12
-13 -19 9 3 -13 -16 -13 -12
-13 -19 9 4 -13 -16 -13 -12
-12 -20 10 5 -12 -15 -12 -11
-13 -20 11 5 -12 -15 -12 -11
-14 -19 12 6 -11 -15 -12 -12
-14 -18 12 6 -11 -15 -12 -12
-15 -18 13 6 -11 -15 -12 -12
-16 -17 14 7 -10 -14 -13 -13
-15 -17 14 7 -10 -14 -13 -13
-14 -16 13 6 -11 -13 -13 -13
-14 -16 13 5 -11 -13 -13 -13
-13 -16 13 5 -11 -13 -13 -13
-12 -15 12 4 -12 -12 -12 -14
-12 -16 12 4 -12 -12 -12 -14
-13 -17 13 5 -12 -12 -12 -14
-14 -17 13 6 -12 -12 -12 -14
-14 -18 13 6 -12 -12 -12 -14
-15 -19 14 7 -12 -13 -11 -13
-14 -18 14 7 -12 -13 -11 -13
-13 -17 14 7 -12 -12 -11 -13
-13 -16 14 7 -12 -12 -11 -13
-12 -15 14 7 -12 -12 -11 -13
-11 -14 14 7 -11 -11 -10 -14
-12 -14 14 7 -11 -11 -10 -14
-13 -15 14 7 -11 -12 -11 -14
-13 -15 14 7 -11 -13 -12 -14
-14 -15 14 7 -11 -13 -12 -14
-15 -16 15 7 -11 -14 -13 -15
-13 -15 15 7 -11 -13 -13 -15
-11 -13 15 7 -11 -12 -12 -15
-9 -12 15 7 -11 -12 -11 -15
-7 -11 15 7 -11 -11 -11 -15
-6 -10 14 7 -10 -10 -10 -14
-7 -11 14 7 -10 -10 -10 -14
-8 -12 15 7 -10 -11 -10 -13
-9 -12 15 7 -10 -11 -10 -13
-10 -13 15 7 -10 -11 -10 -13
-11 -14 16 7 -11 -12 -10 -12
-11 -14 15 7 -11 -12 -10 -12
-11 -14 14 7 -11 -12 -10 -12
-11 -14 14 7 -11 -12 -10 -12
-11 -14 13 7 -11 -12 -10 -12
-10 -13 12 8 -11 -12 -10 -13
-10 -13 12 8 -11 -12 -10 -13
-10 -13 13 8 -11 -12 -10 -13
-9 -13 14 9 -11 -12 -10 -13
-9 -13 14 9 -11 -12 -10 -13
-8 -13 15 10 -10 -11 -10 -13
-8 -13 15 10 -10 -11 -10 -13
-8 -13 15 10 -10 -11 -10 -13
-8 -13 14 10 -10 -11 -10 -13
-8 -13 14 10 -10 -11 -10 -13
-7 -13 13 9 -11 -11 -10 -12
-7 -13 13 10 -11 -11 -10 -12
-7 -13 13 10 -11 -10 -10 -12
-7 -13 14 11 -11 -9 -10 -11
-7 -13 14 12 -11 -9 -10 -11
-6 -14 15 13 -10 -8 -9 -10
-6 -14 15 13 -10 -8 -9 -10
-6 -14 15 13 -10 -8 -9 -10
-6 -14 14 13 -9 -8 -8 -10
-6 -14 14 13 -9 -8 -8 -10
-5 -13 13 12 -8 -7 -7 -9
-4 -13 13 12 -8 -7 -7 -9
-4 -13 12 12 -8 -7 -6 -9
-3 -13 11 12 -7 -7 -5 -9
-2 -13 11 12 -7 -7 -5 -9
0 -13 9 12 -6 -6 -4 -10
2 -11 7 12 -6 -6 -3 -9
3 -10 5 12 -6 -5 -3 -8
5 -9 3 11 -6 -4 -2 -6
7 -7 1 11 -6 -4 0 -5
8 -6 -2 10 -5 -3 1 -4
10 -4 -3 10 -5 -2 3 -4
11 -3 -4 10 -4 0 4 -3
13 0 -6 10 -3 2 5 -2
15 2 -7 10 -3 3 7 -2
16 3 -9 9 -2 4 8 0
16 3 -11 7 -2 4 8 1
17 3 -14 6 -2 4 9 2
18 3 -17 5 -2 4 10 4
18 3 -19 3 -2 4 10 5
19 3 -21 2 -3 4 11 6
21 5 -23 0 -3 5 12 7
22 6 -24 -2 -3 6 13 8
23 8 -26 -3 -3 8 15 10
25 10 -28 -5 -3 9 16 11
26 11 -30 -6 -2 10 17 12
26 11 -32 -8 -2 10 17 12
26 11 -34 -10 -2 10 17 12
26 11 -36 -12 -2 10 17 12
26 11 -38 -14 -2 10 17 12
27 12 -40 -16 -3 11 17 12
27 14 -40 -16 -2 12 18 13
27 15 -40 -16 0 13 19 14
28 16 -41 -16 1 14 21 16
28 18 -41 -16 2 15 22 17
29 19 -43 -17 3 16 23 18
29 19 -43 -17 3 17 24 19
29 20 -43 -16 3 18 25 19
29 21 -43 -15 4 19 26 20
29 21 -43 -15 4 20 27 21
30 22 -40 -14 5 21 28 22
27 22 -38 -13 5 21 26 21
25 22 -36 -13 5 20 25 20
23 22 -33 -12 6 19 24 18
21 22 -31 -11 6 19 22 17
19 23 -28 -10 7 18 21 16
18 23 -26 -9 8 18 21 15
17 23 -23 -8 8 18 20 15
15 23 -21 -6 9 17 19 14
14 23 -18 -5 10 17 19 13
13 22 -16 -4 11 16 18 12
12 22 -14 -3 11 15 17 11
12 22 -12 -2 11 14 16 11
11 22 -10 0 10 13 14 10
10 22 -8 1 10 12 13 9
9 23 -6 2 9 11 12 8
6 21 -6 2 8 11 11 6
4 20 -6 2 7 10 10 5
2 19 -5 2 6 9 9 3
0 17 -5 2 5 9 8 1
-3 16 -4 2 4 8 7 0
-3 16 -4 2 4 7 6 -2
-3 16 -3 2 4 6 5 -2
-3 16 -2 2 3 5 3 -3
-3 16 -2 2 3 4 2 -4
-2 17 0 1 2 3 1 -5
-3 16 0 -2 1 2 1 -5
-3 16 0 -3 1 2 0 -5
-4 15 0 -4 0 1 -2 -5
-5 14 0 -6 -2 0 -2 -5
-6 13 0 -7 -3 -2 -3 -6
-6 13 0 -7 -3 -2 -3 -6
-6 13 0 -7 -3 -2 -3 -6
-6 14 0 -6 -3 -2 -3 -6
-6 14 0 -6 -3 -2 -3 -6
-5 15 1 -5 -4 -3 -3 -6
-5 15 1 -5 -5 -3 -3 -6
-5 14 1 -5 -5 -3 -3 -6
-5 13 1 -6 -6 -4 -3 -6
-5 13 1 -6 -7 -4 -3 -6
-5 12 0 -7 -8 -5 -4 -7
-5 12 0 -7 -8 -5 -4 -7
-5 12 0 -7 -8 -6 -5 -7
-6 12 0 -8 -9 -7 -6 -8
-6 12 0 -8 -9 -7 -6 -8
-7 11 -2 -9 -10 -8 -7 -9
-7 11 -2 -9 -10 -8 -7 -9
-7 11 -2 -9 -10 -8 -7 -9
-7 11 -2 -9 -10 -8 -7 -9
-7 11 -2 -9 -10 -8 -7 -9
-7 11 0 -9 -11 -7 -7 -8
-7 11 0 -8 -11 -7 -7 -8
-7 11 1 -8 -11 -7 -7 -8
-7 11 2 -7 -10 -7 -7 -8
-7 11 2 -6 -10 -7 -7 -8
-8 11 3 -5 -9 -6 -7 -8
-8 11 3 -5 -9 -6 -7 -8
-8 11 3 -5 -9 -6 -7 -9
-8 11 3 -5 -10 -7 -8 -10
-8 11 3 -5 -10 -7 -8 -10
-9 10 2 -6 -11 -8 -9 -11
-9 10 3 -4 -10 -8 -9 -11
-9 11 4 -3 -10 -8 -9 -10
-9 12 5 0 -9 -7 -8 -9
-9 12 6 2 -8 -7 -8 -9
-9 13 7 3 -7 -6 -7 -8
-9 13 7 3 -7 -6 -7 -8
-9 13 7 4 -7 -6 -7 -8
-9 13 7 5 -7 -6 -7 -8
-9 13 7 5 -7 -6 -7 -8
-10 12 6 6 -7 -6 -6 -8
-9 12 7 6 -7 -6 -6 -8
-9 12 7 6 -7 -6 -6 -8
-8 12 8 7 -6 -6 -6 -8
-7 12 9 7 -6 -6 -6 -8
-6 12 10 8 -5 -5 -6 -7
-8 12 10 8 -5 -5 -6 -7
-9 11 9 8 -5 -5 -6 -7
-11 10 8 8 -5 -5 -6 -8
-13 10 8 8 -5 -5 -6 -8
-14 9 7 8 -5 -5 -6 -9
-13 9 7 8 -5 -5 -6 -9
-11 9 8 9 -5 -5 -6 -9
-10 10 9 10 -4 -5 -6 -9
-8 10 9 10 -4 -5 -6 -9
-7 11 10 11 -3 -4 -6 -8
-8 11 10 11 -3 -4 -6 -8
-8 11 10 11 -3 -4 -6 -8
-9 11 10 11 -3 -4 -6 -8
-10 11 10 11 -3 -4 -6 -8
-11 11 9 11 -4 -5 -6 -8
-10 12 9 11 -4 -5 -6 -7
-9 12 9 11 -4 -4 -6 -7
-7 13 9 11 -4 -3 -5 -6
-6 14 9 11 -4 -3 -5 -5
-5 15 9 11 -4 -2 -4 -4
-5 15 9 11 -4 -2 -4 -4
-5 15 9 11 -4 -2 -4 -4
-5 15 9 11 -4 -2 -4 -4
-5 15 9 11 -4 -2 -4 -4
-5 16 9 10 -3 -2 -4 -5
-5 16 9 10 -4 -3 -4 -5
-5 16 8 10 -4 -3 -5 -6
-6 15 7 9 -5 -4 -6 -7
-6 15 7 9 -6 -5 -6 -7
-7 14 6 8 -7 -6 -7 -8
-7 14 6 8 -7 -6 -7 -8
-7 14 6 7 -7 -6 -7 -8
-7 14 5 6 -7 -6 -7 -8
-7 14 5 6 -7 -6 -7 -8
-7 14 4 5 -6 -6 -7 -7
-7 14 4 5 -6 -6 -7 -7
-7 14 4 5 -6 -6 -7 -7
-7 14 4 5 -6 -6 -7 -7
-7 14 4 5 -6 -6 -7 -7
-8 13 4 5 -6 -5 -6 -7
-8 13 4 5 -6 -5 -6 -7
-8 13 4 5 -6 -5 -6 -7
-8 13 4 5 -6 -5 -6 -7
-8 13 4 5 -6 -5 -6 -7
-8 12 4 4 -7 -5 -6 -6
-8 12 4 4 -7 -5 -6 -6
-8 12 4 4 -7 -5 -6 -6
-9 12 4 4 -7 -5 -6 -6
-9 12 4 4 -7 -5 -6 -6
-10 11 5 3 -6 -5 -6 -6
-10 11 5 3 -6 -5 -6 -6
-10 11 5 3 -6 -5 -6 -6
-10 11 4 2 -6 -5 -6 -7
-10 11 4 2 -6 -5 -6 -7
-10 10 3 1 -7 -6 -7 -8
-10 10 3 1 -7 -6 -7 -8
-10 10 3 1 -7 -6 -7 -8
-10 10 4 1 -7 -6 -7 -7
-10 10 4 1 -7 -6 -7 -7
-9 11 5 2 -7 -5 -7 -6
-9 11 5 2 -7 -5 -7 -6
-9 11 5 2 -7 -6 -7 -6
-10 10 4 1 -8 -7 -8 -7
-10 10 4 1 -8 -7 -8 -7
-11 9 3 0 -9 -8 -9 -8
-10 9 3 0 -9 -8 -9 -8
-10 10 4 0 -9 -8 -9 -8
-9 11 5 1 -8 -7 -8 -8
-8 11 5 1 -8 -7 -8 -8
-7 12 6 2 -7 -6 -7 -8
-7 12 6 2 -7 -6 -7 -8
-7 12 6 2 -7 -6 -7 -8
-7 11 5 2 -7 -6 -7 -8
-7 11 5 2 -7 -6 -7 -8
-7 10 4 1 -7 -6 -6 -8
-8 10 4 1 -7 -6 -6 -8
-8 10 4 0 -7 -6 -6 -8
-9 10 4 0 -7 -6 -7 -8
-10 10 4 -2 -7 -6 -7 -8
-11 10 4 -3 -8 -5 -8 -7
-11 10 4 -3 -8 -5 -8 -7
-11 9 4 -3 -8 -5 -8 -7
-12 9 4 -3 -8 -5 -8 -7
-12 8 4 -3 -8 -5 -8 -7
-13 7 3 -3 -9 -6 -7 -7
-12 7 3 -3 -9 -6 -7 -7
-12 8 3 -3 -9 -6 -8 -7
-11 8 3 -3 -9 -7 -8 -7
-10 9 3 -3 -9 -7 -9 -7
-9 10 2 -4 -9 -8 -10 -8
-9 10 2 -4 -9 -8 -10 -8
-10 10 2 -4 -9 -8 -10 -8
-10 9 2 -4 -9 -9 -10 -9
-11 9 2 -4 -9 -9 -10 -9
-12 8 1 -4 -9 -10 -10 -10
-11 8 1 -4 -9 -9 -10 -10
-11 8 2 -4 -9 -8 -9 -9
-10 8 2 -4 -8 -7 -9 -9
-9 8 3 -4 -8 -6 -8 -8
-8 8 4 -3 -7 -5 -7 -7
-8 8 4 -3 -7 -5 -7 -7
-8 8 4 -3 -7 -5 -7 -7
-9 8 4 -3 -7 -6 -8 -7
-9 8 4 -3 -7 -6 -8 -7
-10 7 3 -4 -8 -7 -9 -7
-10 7 3 -4 -8 -7 -9 -7
-10 7 3 -4 -8 -7 -9 -7
-10 7 3 -4 -8 -7 -9 -7
-10 7 3 -4 -8 -7 -9 -7
-11 8 2 -5 -9 -7 -9 -8
-11 8 3 -4 -9 -7 -9 -7
-11 8 3 -4 -9 -6 -9 -7
-10 8 4 -3 -8 -6 -8 -6
-10 8 5 -2 -8 -5 -8 -5
-9 7 6 0 -7 -4 -7 -4
-9 7 6 0 -7 -4 -7 -4
-9 7 6 0 -7 -4 -7 -4
-9 8 5 0 -7 -4 -7 -4
-9 8 5 0 -7 -4 -7 -4
-8 9 4 0 -7 -3 -8 -5
-8 9 4 0 -7 -3 -8 -5
-7 9 3 0 -7 -4 -8 -5
-7 10 3 -2 -7 -4 -8 -5
-6 10 2 -2 -7 -5 -8 -5
-5 11 1 -3 -7 -6 -7 -6
-5 11 1 -3 -7 -6 -7 -6
-5 11 1 -3 -7 -6 -7 -6
-4 11 0 -3 -7 -6 -8 -6
-4 11 0 -3 -7 -6 -8 -6
-3 10 -2 -4 -8 -7 -9 -7
-3 10 0 -4 -7 -7 -8 -7
-3 10 1 -3 -7 -7 -8 -7
-2 11 2 -3 -6 -6 -7 -6
-2 11 4 -2 -5 -6 -6 -6
0 12 5 0 -4 -5 -5 -5
1 13 5 1 -3 -4 -4 -4
2 14 6 3 -3 -2 -4 -4
3 15 6 4 -2 0 -3 -3
4 17 7 5 0 1 -2 -2
5 18 8 7 1 3 0 0
5 18 6 6 1 3 0 0
5 17 5 5 1 3 0 0
4 17 3 4 1 3 0 1
4 16 2 3 1 3 0 1
3 15 0 2 0 2 1 2
3 14 0 1 -2 1 0 1
2 14 0 1 -3 0 -2 1
2 13 -2 0 -4 -2 -3 0
1 12 -2 -2 -6 -3 -4 -2
0 11 -3 -3 -7 -4 -5 -3
-2 11 -2 -3 -6 -4 -5 -3
-2 10 -2 -3 -6 -4 -5 -3
-3 10 0 -3 -5 -3 -4 -3
-4 9 1 -3 -4 -3 -4 -3
-5 8 2 -2 -3 -2 -3 -3
-7 7 2 -2 -3 -2 -3 -3
-9 6 2 -2 -3 -2 -3 -3
-11 5 2 -2 -4 -3 -4 -4
-13 4 2 -2 -4 -3 -4 -4
-15 3 3 -2 -5 -4 -5 -5
-15 2 3 -2 -6 -5 -6 -5
-16 2 2 -2 -7 -5 -7 -6
-16 1 2 -3 -8 -6 -8 -6
-17 0 1 -3 -9 -7 -10 -7
-18 -2 0 -4 -10 -8 -11 -8
-17 -2 0 -4 -9 -7 -10 -7
-16 -2 0 -4 -8 -6 -9 -7
-15 0 1 -3 -7 -5 -8 -6
-14 0 1 -3 -6 -4 -6 -5
-13 1 2 -2 -5 -3 -5 -4
-14 1 2 -2 -5 -3 -6 -4
-15 1 2 -2 -5 -4 -6 -4
-16 2 2 -2 -5 -4 -7 -5
-17 2 2 -2 -5 -5 -8 -5
-20 4 8 2 -4 -6 -10 -6
-30 9 32 10 -4 -9 -14 -10
-40 15 57 18 -5 -12 -18 -13
-52 20 81 26 -6 -15 -22 -17
-62 25 106 34 -7 -18 -26 -20
-70 32 137 56 0 -16 -26 -22
-70 44 183 115 33 7 -10 -14
-70 54 229 176 66 30 8 -7
-70 65 275 235 99 53 24 2
-70 75 321 295 132 76 42 9
-63 90 347 349 175 110 68 25
-27 113 301 387 251 178 127 69
10 136 255 425 325 245 184 113
46 159 209 463 400 313 241 157
82 182 162 500 476 381 300 201
110 193 111 497 509 415 332 229
112 159 42 363 403 341 281 199
114 127 -27 228 299 265 231 170
115 93 -96 94 193 190 181 140
117 59 -164 -41 88 115 130 110
117 32 -220 -151 0 51 86 84
107 24 -230 -178 -33 24 63 69
98 17 -239 -204 -67 -3 39 54
88 10 -249 -231 -100 -30 16 39
77 2 -260 -258 -134 -57 -7 25
67 -6 -265 -276 -158 -78 -26 12
57 -12 -252 -261 -154 -80 -33 5
48 -18 -237 -244 -150 -82 -39 -3
37 -24 -224 -229 -145 -86 -47 -10
27 -30 -210 -213 -141 -88 -53 -17
19 -35 -194 -197 -135 -89 -59 -23
16 -36 -176 -180 -124 -85 -58 -25
12 -37 -157 -162 -115 -79 -57 -27
9 -38 -139 -145 -105 -75 -56 -29
6 -39 -120 -128 -95 -70 -54 -31
3 -40 -103 -110 -85 -65 -52 -33
0 -35 -88 -96 -75 -58 -48 -31
-3 -31 -71 -81 -65 -52 -43 -28
-6 -27 -56 -67 -56 -45 -37 -26
-8 -23 -40 -53 -46 -38 -32 -23
-11 -19 -26 -39 -37 -32 -28 -21
-12 -19 -21 -35 -34 -30 -27 -21
-13 -19 -16 -30 -31 -28 -25 -20
-14 -18 -11 -25 -28 -25 -23 -19
-15 -18 -6 -20 -25 -23 -22 -18
-16 -17 0 -16 -22 -21 -20 -17
-16 -17 1 -15 -21 -21 -20 -17
-16 -17 3 -13 -20 -21 -20 -17
-17 -17 5 -11 -19 -21 -20 -16
-17 -17 6 -10 -18 -21 -20 -16
-18 -17 8 -8 -17 -20 -19 -15
-18 -17 8 -8 -17 -20 -19 -15
-18 -17 9 -7 -17 -20 -19 -15
-18 -16 10 -6 -16 -19 -19 -15
-18 -16 11 -5 -16 -19 -19 -15
-18 -15 12 -4 -15 -18 -19 -15
-18 -15 12 -4 -15 -18 -19 -14
-18 -15 13 -4 -15 -17 -18 -13
-17 -15 13 -3 -14 -17 -17 -12
-17 -15 14 -3 -14 -16 -16 -11
-16 -14 15 -2 -13 -15 -15 -10
-16 -14 15 -2 -13 -15 -15 -11
-16 -14 15 -2 -13 -15 -15 -12
-16 -14 15 -2 -13 -16 -16 -13
-16 -14 15 -2 -13 -16 -16 -15
-17 -13 15 0 -14 -17 -17 -16
-17 -13 15 0 -14 -17 -17 -16
-17 -13 15 0 -14 -17 -17 -15
-17 -13 15 1 -13 -16 -16 -14
-17 -13 15 1 -13 -16 -16 -13
-17 -13 15 2 -12 -15 -15 -12
-17 -13 15 2 -12 -15 -15 -12
-17 -14 16 2 -12 -15 -15 -12
-17 -14 16 2 -12 -15 -15 -12
-17 -15 17 2 -12 -15 -15 -12
-18 -16 18 2 -12 -15 -15 -13
-18 -16 18 2 -12 -15 -15 -13
-18 -15 18 2 -12 -15 -15 -12
-18 -15 18 2 -11 -14 -15 -12
-18 -14 18 2 -11 -14 -15 -11
-17 -13 18 3 -10 -13 -15 -10
-17 -13 18 3 -10 -13 -15 -10
-16 -13 18 3 -10 -13 -14 -10
-16 -13 18 3 -10 -13 -14 -10
-15 -13 18 3 -10 -13 -13 -10
-14 -13 19 3 -9 -13 -12 -10
-14 -13 19 3 -9 -13 -12 -10
-14 -13 19 3 -10 -13 -12 -10
-15 -13 18 3 -10 -13 -13 -11
-15 -13 18 3 -11 -13 -13 -11
-16 -14 17 2 -12 -14 -14 -12
-15 -14 17 2 -12 -14 -14 -12
-14 -14 18 2 -11 -14 -14 -12
-13 -14 19 3 -11 -14 -14 -11
-12 -14 20 3 -10 -14 -14 -11
-11 -14 21 4 -9 -14 -14 -10
-11 -14 21 4 -9 -14 -14 -10
-12 -14 20 4 -9 -14 -14 -10
-13 -14 20 4 -9 -14 -14 -10
-14 -14 19 4 -9 -14 -14 -10
-15 -13 18 5 -10 -14 -13 -9
-15 -13 18 5 -10 -14 -13 -9
-15 -14 19 5 -10 -14 -12 -9
-14 -15 20 5 -10 -13 -12 -9
-14 -16 21 5 -10 -13 -11 -9
-13 -17 22 5 -10 -12 -10 -10
-13 -17 22 5 -10 -12 -10 -10
-12 -17 21 5 -9 -12 -10 -10
-12 -17 21 6 -9 -12 -10 -10
-11 -17 20 6 -8 -12 -10 -10
-10 -16 19 7 -7 -12 -11 -9
-10 -16 19 7 -7 -12 -11 -9
-10 -16 19 7 -7 -12 -11 -9
-10 -16 20 7 -7 -12 -11 -9
-10 -16 20 7 -7 -12 -11 -9
-11 -16 21 7 -8 -12 -12 -9
-11 -16 21 7 -8 -12 -12 -9
-11 -16 21 7 -8 -12 -12 -9
-10 -16 21 7 -7 -11 -12 -9
-10 -16 21 7 -7 -11 -12 -9
-9 -15 21 8 -6 -10 -11 -9
-9 -15 21 8 -6 -10 -10 -9
-8 -15 20 9 -6 -10 -9 -8
-7 -15 20 9 -6 -9 -8 -7
-6 -15 19 10 -6 -9 -7 -6
-5 -15 18 11 -5 -8 -5 -5
-5 -15 18 11 -5 -8 -5 -5
-4 -15 18 11 -5 -7 -5 -5
-3 -15 17 11 -4 -7 -5 -4
-2 -15 17 11 -4 -6 -5 -4
0 -14 16 12 -3 -5 -4 -3
0 -14 15 12 -3 -5 -4 -3
1 -14 13 12 -2 -4 -3 -2
2 -14 11 11 -2 -3 -2 0
3 -14 10 11 0 -2 0 1
4 -15 8 10 1 0 1 2
5 -15 6 10 1 1 3 3
6 -14 5 10 2 2 4 4
8 -13 3 9 3 3 6 6
9 -12 1 9 4 4 8 7
11 -11 -2 8 5 6 10 9
13 -11 -4 7 5 7 11 10
14 -10 -5 6 5 8 12 11
16 -10 -7 4 5 9 13 12
18 -9 -9 3 5 10 14 13
20 -8 -11 1 5 11 16 15
20 -8 -13 -2 5 11 16 15
20 -8 -16 -4 5 11 17 16
20 -7 -19 -6 5 12 18 17
20 -7 -21 -8 5 12 19 18
20 -6 -24 -10 6 13 20 19
21 -3 -25 -10 6 13 20 19
22 1 -26 -11 6 14 20 19
23 4 -27 -12 6 14 20 20
24 7 -28 -13 6 15 20 20
26 10 -29 -14 6 16 21 21
26 11 -30 -14 6 16 22 21
26 13 -31 -14 7 17 23 21
26 14 -32 -14 8 17 24 22
26 16 -33 -14 9 18 25 22
27 18 -34 -15 10 19 26 23
27 18 -33 -15 10 19 26 23
27 19 -32 -14 11 19 25 23
26 19 -30 -13 11 19 25 22
26 20 -29 -12 12 19 24 22
25 21 -27 -11 13 20 23 21
24 21 -25 -11 13 20 23 21
22 21 -23 -10 13 20 23 21
21 21 -21 -9 14 20 23 20
19 21 -19 -8 14 20 23 20
17 22 -17 -7 15 20 22 19
16 22 -15 -5 15 20 21 18
15 22 -12 -4 15 19 20 17
13 22 -10 -2 15 18 19 16
12 22 -8 1 15 17 18 15
10 21 -5 3 14 16 16 13
9 21 -4 3 14 15 16 13
8 21 -3 3 14 14 15 12
6 20 -2 3 14 13 14 11
5 20 0 3 14 12 13 10
3 19 1 4 13 11 12 9
3 19 1 4 12 10 11 8
2 19 2 4 11 9 10 7
1 18 2 4 10 8 8 6
0 18 3 4 9 7 7 5
-2 17 4 3 8 5 5 3
-2 17 4 3 8 5 5 3
-3 16 4 3 7 4 4 2
-4 15 4 2 7 4 4 1
-5 14 4 2 6 3 3 0
-6 13 3 1 5 2 2 -2
-6 13 3 1 5 2 2 -2
-6 13 3 1 5 2 2 -2
-5 12 3 0 4 2 2 -2
-5 12 3 0 4 2 2 -2
-4 11 2 -2 3 2 1 -2
-4 11 2 -2 3 2 1 -2
-5 11 1 -3 2 2 0 -2
-5 11 0 -4 1 1 0 -2
-6 11 -2 -5 0 1 -2 -2
-7 10 -3 -6 -2 0 -3 -2
-7 10 -3 -6 -2 0 -3 -2
-7 10 -3 -6 -2 -2 -3 -2
-7 9 -3 -6 -2 -2 -3 -2
-7 9 -3 -6 -2 -3 -3 -2
-7 8 -2 -6 -3 -4 -3 -3
-7 8 -2 -6 -3 -4 -3 -3
-7 8 0 -6 -3 -4 -3 -3
-6 9 0 -6 -3 -4 -3 -3
-6 9 1 -6 -3 -4 -3 -3
-5 10 2 -5 -2 -4 -3 -3
-5 10 2 -5 -2 -4 -3 -3
-5 9 2 -5 -2 -4 -3 -3
-5 9 2 -5 -2 -4 -3 -3
-5 8 2 -5 -2 -4 -3 -3
-6 7 3 -6 -3 -4 -4 -4
-6 7 3 -6 -3 -4 -4 -4
-6 8 3 -5 -3 -4 -4 -4
-6 8 4 -5 -3 -4 -4 -4
-6 9 4 -4 -3 -4 -4 -4
-5 10 5 -3 -2 -3 -3 -3
-6 10 5 -3 -2 -3 -4 -3
-7 9 5 -3 -2 -3 -5 -4
-8 9 5 -3 -3 -3 -6 -4
-9 8 5 -3 -3 -3 -7 -5
-11 7 5 -4 -4 -4 -8 -6
-11 7 5 -3 -4 -4 -8 -6
-10 7 6 -2 -4 -4 -7 -6
-9 6 6 0 -4 -4 -7 -5
-8 6 7 1 -4 -4 -6 -5
-7 5 8 2 -3 -4 -5 -4
-7 6 8 2 -3 -4 -5 -4
-7 7 9 2 -3 -4 -5 -4
-6 8 9 2 -2 -4 -5 -4
-6 9 10 2 -2 -4 -5 -4
-5 11 11 3 0 -3 -4 -4
-5 11 11 3 0 -3 -4 -4
-5 11 11 3 0 -3 -4 -4
-6 10 11 4 0 -3 -3 -3
-6 10 11 4 0 -3 -3 -3
-7 9 11 5 1 -3 -2 -2
-7 9 11 5 1 -3 -2 -2
-7 9 11 5 1 -3 -2 -2
-7 9 11 5 1 -3 -2 -2
-7 9 11 5 1 -3 -2 -2
-8 9 11 6 2 -2 -3 -2
-8 9 11 6 2 -2 -3 -2
-7 9 11 6 2 -2 -3 -2
-7 9 11 6 2 -2 -3 -2
-6 9 11 6 2 -2 -3 -2
-5 10 11 7 2 -2 -2 -3
-5 10 11 7 2 -2 -2 -3
-5 10 11 7 2 -2 -2 -3
-5 10 11 7 2 -2 -2 -3
-5 10 11 7 2 -2 -2 -3
-6 10 11 7 2 -2 -2 -3
-6 10 11 7 2 -2 -2 -3
-6 10 11 7 2 -2 -2 -3
-6 9 10 6 1 -2 -2 -3
-6 9 10 6 1 -2 -2 -3
-7 8 9 5 0 -2 -3 -3
-7 8 9 5 0 -2 -3 -3
-7 8 9 5 0 -2 -3 -3
-7 8 9 4 0 -2 -3 -4
-7 8 9 4 0 -2 -3 -4
-6 8 9 3 0 -3 -3 -5
-6 8 9 3 0 -3 -3 -5
-6 9 9 3 0 -3 -3 -5
-5 9 9 4 0 -3 -3 -4
-5 10 9 4 0 -3 -3 -4
-4 11 8 5 1 -2 -2 -3
-4 11 8 5 1 -2 -2 -3
-4 10 8 5 1 -2 -2 -3
-5 9 8 4 1 -2 -2 -3
-5 8 8 4 1 -2 -2 -3
-6 7 9 3 1 0 -2 -2
-6 7 9 3 1 0 -2 -2
-6 7 9 3 1 0 -2 -3
-7 7 8 3 1 0 -2 -3
-7 7 8 3 1 0 -2 -4
-8 7 7 2 0 -2 -2 -5
-8 7 7 2 0 -2 -2 -5
-7 7 7 2 0 -2 -2 -4
-7 6 7 1 0 -2 -2 -3
-6 6 7 1 0 -2 -2 -2
-5 5 7 0 -2 0 0 0
-5 5 7 0 -2 0 0 0
-5 6 7 0 -2 0 0 0
-4 7 6 0 -2 -2 -2 0
-4 8 6 0 -2 -2 -2 0
-3 9 5 0 -2 -3 -3 -2
-3 8 5 0 -2 -3 -3 -2
-4 7 5 0 -2 -3 -3 -2
-4 6 5 0 -2 -3 -3 -2
-5 5 5 0 -2 -3 -3 -2
-6 3 6 0 -2 -2 -2 -3
-6 3 6 0 -2 -2 -2 -3
-6 3 6 0 -2 -2 -2 -3
-6 3 6 0 -2 -2 -2 -3
-6 3 6 0 -2 -2 -2 -3
-5 4 5 -2 -3 -3 -2 -3
-5 4 5 -2 -3 -3 -2 -3
-5 5 5 -2 -3 -3 -2 -3
-5 5 5 0 -3 -3 -2 -3
-5 6 5 0 -3 -3 -2 -3
-4 7 6 1 -2 -3 -2 -3
-4 7 6 1 -2 -3 -2 -3
-4 7 6 1 -2 -3 -2 -3
-4 6 6 1 -2 -3 -2 -3
-4 6 6 1 -2 -3 -2 -3
-4 5 5 1 -2 -2 -2 -2
-4 5 5 1 -2 -2 -2 -2
-4 5 5 1 -2 -2 -2 -2
-4 5 5 1 -2 -2 -2 -2
-4 5 5 1 -2 -2 -2 -2
-4 5 5 1 -2 -2 -2 -2
-5 4 4 0 -3 -3 0 -3
-5 3 4 0 -3 -3 0 -3
-5 3 4 0 -3 -2 -2 -3
-5 2 4 0 -3 -2 -2 -3
-5 2 4 0 -3 -2 -2 -3
-5 1 5 -2 -3 0 -3 -4
-4 1 5 0 -3 0 -2 -4
-4 2 6 0 -3 0 -2 -3
-3 2 6 1 -3 0 0 -3
-3 2 6 1 -3 0 0 -3
-2 3 7 2 -2 1 1 -2
-3 3 6 1 -2 1 0 -2
-3 2 5 0 -2 0 0 -2
-4 2 4 -2 -2 0 -2 -2
-4 2 4 -2 -2 0 -2 -2
-5 1 3 -3 -3 -2 -3 -2
-5 1 3 -3 -3 -2 -3 -2
-5 1 4 -3 -3 -2 -3 -2
-5 1 4 -3 -3 -2 -3 -2
-5 1 4 -3 -3 -2 -3 -2
-5 2 5 -2 -2 -2 -2 -2
-5 2 5 -2 -2 -2 -2 -2
-5 2 5 -2 -2 -2 -2 -2
-5 2 5 -2 -2 -2 -2 -2
-5 2 5 -2 -2 -2 -2 -2
-5 1 4 0 -2 0 0 -2
-5 1 4 0 -2 0 0 -2
-5 1 4 0 -2 0 0 -2
-5 1 4 0 -2 0 0 -2
-5 1 4 0 -2 0 0 -2
-4 1 3 -2 -2 -2 1 -2
-4 0 3 -2 -2 -2 1 -2
-5 0 3 -2 -2 -2 1 -2
-5 -2 3 -2 -2 -2 1 -2
-5 -2 3 -2 -2 -2 1 -2
-6 -3 2 -2 -3 -2 0 -2
-6 -3 2 -2 -3 -2 0 -2
-6 -2 2 -2 -3 -2 0 -2
-6 -2 2 -2 -3 -2 0 -2
-6 -2 2 -2 -3 -2 0 -2
-5 0 2 0 -3 0 -2 -2
-4 0 2 0 -3 0 -2 -2
-4 1 2 0 -3 0 -2 -2
-3 1 2 0 -3 0 -2 -2
-3 1 2 0 -3 0 -2 -2
-2 2 2 0 -2 0 0 -2
-2 1 2 0 -2 0 0 0
-2 1 2 0 -2 0 1 0
-2 0 2 0 -2 0 1 1
-2 0 2 0 -2 0 1 1
-3 -2 2 -2 -3 0 2 2
-3 0 2 0 -2 0 2 2
-3 1 3 0 -2 1 2 2
-3 2 3 1 0 1 2 2
-3 2 3 1 0 1 2 2
-3 3 4 2 1 2 3 3
-2 3 4 2 1 2 3 3
0 3 4 2 1 2 4 4
1 3 4 2 1 2 4 4
2 3 4 2 1 2 4 4
3 4 4 3 2 3 5 5
4 4 3 3 2 3 4 4
4 4 2 3 1 2 4 4
5 4 1 3 1 2 3 3
5 4 1 3 1 2 3 3
6 3 0 2 0 1 2 2
7 3 0 2 0 1 2 2
7 4 0 2 0 1 2 2
8 4 0 2 0 1 2 2
8 4 0 2 0 1 2 2
9 5 1 2 0 1 3 3
9 5 2 3 1 2 4 4
9 5 3 4 2 3 5 5
9 5 4 5 3 4 6 6
9 5 5 6 4 5 7 6
10 6 6 7 5 6 8 7
11 6 5 7 5 7 8 8
12 6 5 8 6 7 9 8
13 6 4 8 6 8 9 9
14 6 4 8 6 8 9 9
15 7 3 9 7 9 10 10
15 8 2 8 7 9 10 10
15 8 1 8 7 9 10 10
15 9 0 7 7 9 10 10
15 9 -2 7 7 9 10 10
15 9 -3 6 6 8 10 9
14 7 -4 5 5 7 10 8
14 6 -4 4 4 6 9 8
13 4 -5 3 3 5 9 7
13 3 -5 3 3 5 9 7
10 2 -6 2 2 4 8 6
7 2 -5 3 2 4 8 6
5 2 -4 3 2 4 8 5
2 2 -3 4 2 4 8 5
0 2 -2 4 2 4 8 5
-3 0 0 5 3 5 7 4
-5 -3 0 4 2 5 6 4
-6 -5 0 3 1 4 5 4
-8 -7 0 2 0 4 4 4
-9 -9 0 1 0 4 4 4
-9 -10 0 0 -2 3 3 3
-8 -9 0 0 -2 2 3 3
-7 -8 0 0 -2 2 2 2
-6 -7 0 0 -2 1 2 2
-5 -6 0 0 -2 1 2 2
-4 -5 0 0 -3 0 1 1
-4 -5 1 0 -3 0 1 1
-5 -6 1 0 -2 0 2 1
-5 -6 2 0 -2 0 2 1
-5 -6 2 0 -2 0 2 1
-6 -7 3 1 0 1 3 2
-7 -6 3 1 0 1 3 2
-8 -5 4 2 0 1 3 2
-9 -4 4 2 0 1 3 2
-10 -4 4 2 0 1 3 2
-23 3 36 16 1 -4 -3 -2
-38 8 72 30 2 -8 -8 -6
-53 14 108 46 3 -12 -14 -11
-67 19 143 60 4 -15 -19 -15
-81 25 179 75 5 -19 -24 -19
-73 37 211 135 46 13 1 -4
-61 50 242 198 91 50 29 14
-50 63 273 263 137 86 58 32
-37 76 305 327 182 122 87 51
-26 89 336 391 227 159 116 69
7 105 283 404 271 202 157 101
43 122 219 410 314 246 199 135
77 140 155 418 357 290 242 169
112 156 91 425 401 335 285 202
148 174 27 432 444 379 327 236
145 149 -27 316 357 316 283 210
137 118 -81 184 253 240 228 176
128 88 -135 53 149 165 173 141
119 57 -188 -79 45 90 117 106
110 26 -242 -211 -59 14 62 71
105 16 -249 -233 -86 -11 40 56
99 8 -252 -241 -101 -28 23 44
93 0 -254 -251 -117 -46 6 30
88 -9 -256 -259 -134 -63 -12 18
81 -17 -258 -268 -150 -80 -29 5
71 -23 -243 -253 -147 -82 -34 -2
59 -29 -226 -233 -140 -82 -38 -8
48 -35 -207 -214 -133 -82 -43 -13
36 -41 -190 -194 -127 -82 -47 -18
25 -48 -173 -175 -119 -82 -51 -24
21 -48 -153 -156 -109 -76 -50 -25
17 -46 -135 -139 -99 -69 -48 -25
14 -45 -116 -121 -89 -63 -46 -25
11 -43 -97 -104 -77 -57 -43 -25
8 -41 -78 -87 -67 -50 -40 -25
5 -38 -65 -74 -59 -45 -36 -23
2 -34 -53 -62 -51 -39 -32 -21
-2 -31 -39 -51 -43 -34 -28 -19
-4 -28 -27 -38 -34 -28 -24 -16
-7 -25 -15 -27 -26 -23 -20 -14
-8 -24 -10 -22 -24 -21 -18 -13
-9 -24 -6 -19 -22 -20 -17 -13
-9 -24 -2 -15 -20 -19 -16 -12
-10 -24 3 -12 -19 -18 -15 -12
-10 -24 7 -8 -17 -17 -14 -12
-11 -23 8 -6 -16 -16 -13 -11
-11 -22 8 -5 -16 -15 -13 -11
-11 -21 9 -4 -16 -15 -12 -11
-11 -20 9 -3 -16 -14 -12 -11
-11 -20 9 -2 -16 -14 -12 -11
-10 -19 11 0 -15 -13 -11 -10
-10 -19 12 0 -14 -13 -11 -10
-11 -20 14 1 -13 -13 -11 -10
-11 -20 15 1 -12 -13 -11 -10
-11 -20 16 1 -12 -13 -11 -10
-12 -20 17 2 -11 -13 -11 -11
-12 -19 17 2 -11 -13 -11 -11
-11 -17 17 2 -10 -12 -11 -11
-11 -16 17 2 -10 -12 -11 -11
-11 -15 17 2 -10 -12 -11 -11
-10 -14 17 3 -9 -11 -10 -11
-10 -15 18 3 -9 -11 -10 -11
-10 -15 19 4 -9 -11 -10 -11
-10 -16 20 4 -9 -11 -10 -11
-10 -16 20 4 -9 -11 -10 -11
-11 -17 21 5 -10 -11 -10 -10
-12 -16 20 5 -10 -11 -10 -10
-12 -16 19 5 -10 -11 -10 -10
-13 -15 18 5 -10 -11 -10 -10
-13 -15 17 5 -10 -11 -10 -10
-14 -14 16 4 -11 -11 -10 -10
-14 -15 17 5 -11 -11 -10 -10
-14 -16 18 5 -11 -11 -10 -10
-14 -17 19 6 -11 -11 -10 -10
-14 -18 20 6 -11 -11 -10 -10
-13 -19 21 7 -10 -12 -10 -10
-13 -19 21 7 -10 -12 -10 -10
-12 -18 21 7 -9 -12 -10 -10
-12 -18 21 7 -9 -12 -10 -10
-12 -18 21 7 -9 -12 -10 -10
-11 -17 21 6 -8 -11 -9 -9
-11 -16 21 6 -8 -11 -9 -9
-11 -16 21 6 -8 -11 -8 -10
-11 -15 21 6 -8 -11 -8 -10
-11 -15 21 6 -8 -11 -8 -10
-10 -14 20 6 -9 -10 -7 -11
-10 -14 20 6 -8 -10 -7 -11
-10 -14 21 6 -8 -10 -8 -10
-10 -14 21 6 -7 -10 -8 -10
-10 -14 21 6 -7 -10 -8 -10
-11 -14 22 7 -6 -10 -9 -9
-11 -14 22 7 -7 -10 -9 -9
-10 -15 22 7 -7 -10 -9 -9
-10 -15 22 7 -8 -10 -9 -9
-10 -15 22 7 -8 -10 -9 -9
-9 -16 22 6 -9 -11 -9 -10
-9 -15 22 6 -9 -11 -9 -10
-10 -15 22 6 -9 -10 -9 -10
-10 -14 22 6 -9 -10 -9 -10
-10 -14 22 6 -9 -10 -9 -10
-11 -13 22 7 -8 -9 -9 -9
-11 -13 22 7 -8 -9 -9 -9
-11 -13 22 7 -8 -10 -9 -9
-11 -13 22 7 -8 -10 -9 -9
-11 -13 22 7 -8 -10 -9 -9
-10 -14 22 7 -9 -11 -9 -10
-10 -14 22 7 -9 -11 -9 -10
-10 -14 22 7 -9 -10 -9 -10
-10 -14 22 7 -9 -10 -9 -10
-10 -14 22 7 -9 -10 -9 -10
-10 -15 21 6 -8 -9 -8 -9
-9 -15 21 6 -8 -9 -8 -9
-9 -15 21 6 -8 -9 -8 -9
-8 -15 21 6 -8 -9 -8 -9
-8 -15 21 6 -8 -9 -8 -9
-7 -15 22 5 -7 -9 -7 -10
-7 -15 22 5 -7 -9 -7 -10
-7 -15 21 5 -7 -9 -8 -10
-7 -15 21 5 -7 -9 -8 -10
-7 -15 21 5 -7 -9 -8 -10
-8 -15 20 5 -8 -9 -9 -11
-6 -14 20 5 -7 -8 -8 -10
-5 -13 20 5 -7 -8 -7 -9
-4 -12 20 5 -6 -7 -6 -8
-3 -12 20 5 -6 -7 -6 -8
-2 -11 19 5 -5 -6 -5 -7
0 -11 17 5 -5 -6 -4 -6
1 -11 16 5 -5 -6 -4 -6
2 -11 15 5 -5 -6 -3 -5
2 -11 14 5 -5 -6 -3 -5
3 -11 12 4 -6 -5 -2 -3
5 -12 11 3 -6 -4 0 -2
6 -12 10 3 -5 -3 1 0
7 -13 8 2 -5 -2 2 2
8 -13 7 2 -5 -2 3 3
10 -13 5 1 -4 0 4 4
11 -11 2 0 -4 1 6 4
12 -9 0 -2 -4 2 7 4
14 -8 -4 -3 -4 3 8 4
15 -6 -6 -4 -4 4 9 4
16 -5 -8 -6 -3 5 10 5
16 -4 -9 -8 -3 5 10 7
17 -3 -11 -10 -3 6 11 8
17 -2 -13 -12 -3 6 11 9
17 -2 -14 -14 -3 6 11 10
19 0 -16 -15 -3 7 12 11
20 1 -18 -16 -3 8 13 13
22 2 -20 -17 -3 8 14 14
24 3 -22 -18 -3 9 15 15
25 4 -24 -19 -3 9 16 16
26 5 -26 -21 -3 10 18 17
26 5 -27 -22 -3 11 19 18
26 5 -28 -23 -2 12 20 19
26 5 -30 -25 -2 13 22 20
26 5 -31 -26 -2 14 23 21
25 6 -32 -27 1 15 24 22
26 7 -32 -25 2 15 24 22
26 8 -32 -24 3 16 25 22
27 9 -32 -23 5 16 25 22
27 9 -32 -22 6 16 25 22
28 11 -30 -20 7 18 26 23
28 13 -27 -19 9 19 27 23
29 15 -25 -18 10 20 27 24
29 17 -22 -16 11 22 28 24
29 19 -20 -15 12 23 28 24
28 19 -18 -13 13 24 29 25
26 17 -16 -11 14 24 29 24
23 16 -13 -9 14 24 28 24
20 14 -11 -7 15 24 28 23
17 12 -9 -5 15 24 28 23
16 11 -6 -3 16 24 26 21
15 11 -3 0 16 24 25 20
14 11 1 1 16 23 24 19
13 11 4 3 16 23 22 17
13 11 7 5 16 23 21 16
11 10 8 6 17 22 20 15
9 10 9 6 17 20 19 13
8 9 10 6 17 19 18 12
6 9 11 6 17 18 17 11
4 9 11 6 17 17 16 10
3 8 12 7 16 15 14 9
2 6 12 7 14 14 13 8
1 5 12 7 13 13 12 7
0 4 12 7 12 11 10 6
0 3 12 7 11 10 9 5
-2 2 13 6 10 9 8 4
-3 2 13 6 10 9 7 4
-3 2 13 5 9 8 7 4
-4 2 13 5 9 8 6 4
-4 2 13 5 9 8 6 4
-5 1 14 4 8 7 5 3
-5 1 14 4 8 7 5 3
-5 0 13 3 7 6 5 3
-5 0 13 3 7 6 5 3
-5 0 13 3 7 6 5 3
-4 -2 12 2 6 5 5 2
-4 -3 11 1 6 5 5 1
-4 -3 11 1 5 5 4 1
-4 -4 10 0 5 5 4 0
-4 -4 10 0 5 5 4 0
-5 -5 9 -2 4 4 3 -2
-5 -5 9 -2 4 4 3 -2
-5 -4 9 -2 4 4 2 -2
-5 -4 9 -2 4 4 2 -2
-5 -4 9 -2 4 4 2 -2
-5 -3 10 -3 3 3 1 -3
-5 -3 10 -3 3 3 1 -3
-5 -3 10 -3 3 3 1 -2
-5 -3 10 -3 3 3 1 -2
-5 -3 10 -3 3 3 1 -2
-4 -3 10 -3 2 2 0 0
-4 -4 10 -3 2 2 0 -2
-5 -5 10 -3 1 1 0 -2
-5 -5 10 -3 1 1 0 -3
-5 -6 10 -3 1 1 0 -3
-6 -7 9 -3 0 0 -2 -4
-6 -6 10 -2 1 1 0 -3
-5 -5 11 0 1 2 1 -2
-5 -4 11 1 2 2 1 -2
-5 -3 12 2 2 3 2 0
-4 -2 13 3 3 4 3 1
-4 -4 13 3 3 3 2 0
-5 -5 13 2 2 2 1 -2
-5 -6 13 2 2 2 1 -3
-5 -7 13 2 2 1 0 -4
-6 -8 14 1 1 0 -2 -5
-6 -6 14 1 1 0 -2 -5
-7 -5 13 1 1 0 -2 -5
-7 -4 13 1 1 0 -2 -5
-7 -3 13 1 1 0 -2 -5
-8 -2 12 2 2 1 0 -4
-8 -2 14 3 2 1 0 -4
-7 -2 15 4 2 1 0 -3
-7 -2 16 4 2 1 0 -3
-7 -2 17 5 2 1 0 -3
-6 -2 18 6 3 2 1 -2
-6 -2 18 6 3 2 1 -2
-6 0 18 6 3 2 1 -2
-6 0 18 6 3 2 1 -2
-6 0 18 6 3 2 1 -2
-7 1 17 6 2 1 0 -3
-7 1 17 6 2 0 0 -3
-7 0 17 5 2 0 -2 -4
-7 0 17 5 2 -2 -2 -4
-7 0 17 5 2 -2 -2 -4
-8 -2 16 4 1 -3 -3 -5
-8 -2 16 4 1 -2 -3 -4
-8 -2 16 4 1 -2 -2 -4
-8 -2 16 4 1 0 -2 -3
-8 -2 16 4 1 0 -2 -3
-7 -2 16 5 2 1 0 -2
-6 0 16 5 2 1 0 -2
-6 0 16 5 2 1 1 -3
-5 1 16 5 2 1 1 -3
-5 1 16 5 2 1 1 -3
-4 2 17 5 2 2 2 -4
-4 2 17 5 2 2 1 -4
-5 2 16 5 2 2 0 -4
-5 2 16 5 2 2 0 -4
-5 2 16 5 2 2 -2 -4
-6 2 15 5 3 1 -3 -3
-6 2 15 5 3 1 -3 -3
-6 1 15 4 2 1 -3 -3
-6 1 15 4 2 1 -3 -3
-6 1 15 4 2 1 -3 -3
-7 0 14 3 1 2 -2 -3
-7 0 14 3 1 2 -2 -3
-7 0 14 2 1 2 -2 -3
-7 0 14 2 1 2 -2 -3
-7 0 14 2 1 2 -2 -3
-6 0 13 1 0 1 -2 -4
-6 0 13 1 0 1 -2 -4
-7 0 12 0 0 0 -2 -4
-7 0 12 0 0 0 -2 -4
-7 0 12 0 0 0 -2 -4
-8 0 11 -2 -2 -2 -3 -5
-7 0 11 -2 -2 -2 -3 -5
-6 1 11 -2 0 -2 -3 -5
-6 1 11 -2 0 -2 -3 -5
-5 1 11 -2 0 -2 -3 -5
-4 2 12 0 1 0 -3 -4
-5 2 12 0 1 0 -3 -4
-5 1 12 0 1 0 -3 -4
-6 1 12 0 1 0 -3 -4
-6 1 12 0 1 0 -3 -4
-7 0 11 -2 0 0 -2 -3
-7 0 10 -2 -2 0 -3 -4
-7 0 9 -3 -2 -2 -3 -5
-7 0 8 -3 -3 -2 -4 -5
-7 0 7 -3 -3 -2 -4 -6
-8 0 6 -4 -4 -3 -5 -7
-7 1 7 -4 -4 -3 -5 -7
-6 2 8 -4 -3 -3 -5 -6
-6 2 8 -4 -3 -3 -5 -6
-5 3 9 -4 -3 -3 -5 -6
-4 4 10 -5 -2 -2 -5 -5
-5 3 10 -5 -2 -2 -5 -5
-6 2 9 -5 -2 -2 -5 -5
-6 2 9 -5 -2 -2 -5 -5
-7 1 9 -5 -2 -2 -5 -5
-8 0 8 -4 -2 -2 -4 -4
-8 0 8 -4 -2 -2 -4 -4
-7 1 8 -4 -2 -2 -4 -4
-6 2 8 -4 -2 -2 -4 -4
-6 2 8 -4 -2 -2 -4 -4
-5 3 9 -4 -2 -2 -3 -4
-5 3 9 -4 -2 -2 -3 -4
-6 2 8 -5 -3 -2 -4 -4
-7 1 8 -5 -3 -2 -4 -4
-7 1 8 -5 -3 -2 -4 -4
-8 0 7 -6 -4 -3 -5 -5
-8 1 7 -6 -4 -3 -5 -5
-7 2 8 -5 -4 -2 -5 -5
-7 2 8 -4 -4 -2 -5 -5
-7 3 8 -4 -4 -2 -5 -5
-6 4 9 -3 -3 0 -5 -5
-6 3 9 -3 -3 0 -5 -5
-6 2 8 -3 -3 0 -5 -5
-6 2 7 -3 -3 0 -5 -5
-6 1 7 -3 -3 0 -5 -5
-7 0 6 -4 -3 -2 -5 -4
-7 0 6 -4 -3 -2 -5 -4
-7 0 6 -5 -4 -3 -5 -4
-7 0 6 -5 -4 -4 -5 -4
-7 0 6 -5 -4 -4 -5 -4
-8 1 6 -6 -5 -5 -6 -5
-8 1 6 -6 -5 -5 -6 -5
-8 1 6 -5 -5 -5 -6 -6
-8 1 6 -5 -5 -5 -6 -7
-8 1 6 -5 -5 -5 -6 -7
-7 2 7 -4 -4 -4 -6 -8
-7 2 7 -4 -4 -4 -6 -8
-8 1 6 -4 -4 -4 -6 -8
-8 0 6 -4 -4 -4 -6 -8
-8 0 6 -4 -4 -4 -6 -8
-9 -2 5 -4 -3 -3 -5 -7
-9 -2 5 -4 -3 -3 -5 -7
-8 0 5 -4 -4 -3 -5 -7
-8 0 5 -4 -5 -3 -5 -7
-8 0 5 -4 -5 -3 -5 -7
-7 1 6 -4 -6 -4 -6 -7
-7 1 6 -4 -6 -4 -6 -7
-7 1 6 -4 -6 -4 -7 -8
-7 1 6 -4 -6 -4 -7 -8
-7 1 6 -4 -6 -4 -7 -8
-7 2 6 -5 -5 -3 -8 -9
-7 2 6 -5 -5 -3 -7 -9
-7 2 5 -5 -4 -3 -6 -8
-7 2 5 -5 -4 -3 -6 -7
-7 2 5 -5 -4 -3 -5 -7
-7 1 4 -5 -3 -3 -4 -6
-7 1 4 -5 -3 -3 -4 -6
-7 1 4 -5 -3 -4 -5 -6
-7 1 4 -5 -3 -4 -6 -6
-7 1 4 -5 -3 -4 -6 -6
-8 2 5 -5 -4 -5 -7 -7
-8 2 5 -5 -4 -5 -7 -7
-9 2 4 -5 -5 -5 -8 -8
-9 2 3 -5 -5 -5 -8 -8
-9 2 3 -5 -5 -5 -8 -8
-10 3 2 -6 -6 -6 -9 -9
-10 3 2 -6 -5 -5 -8 -8
-10 3 3 -5 -4 -4 -6 -6
-10 3 4 -5 -4 -4 -5 -5
-10 3 4 -5 -3 -3 -4 -4
-9 2 5 -4 -2 -2 -3 -3
-8 4 5 -4 -2 -2 -3 -3
-6 6 5 -4 -2 -2 -3 -4
-5 7 5 -4 -2 -2 -3 -4
-4 9 5 -4 -2 -2 -3 -4
-3 10 4 -3 -2 -2 -3 -5
-3 10 4 -3 -2 -2 -3 -5
-2 9 3 -4 -3 -3 -4 -5
-2 9 3 -4 -3 -3 -5 -5
-2 9 3 -4 -3 -3 -5 -5
0 8 2 -5 -4 -4 -6 -5
0 8 2 -6 -4 -4 -6 -5
1 7 1 -7 -5 -4 -7 -6
1 7 1 -7 -5 -4 -7 -6
1 7 1 -8 -5 -4 -7 -6
2 6 0 -9 -6 -5 -7 -7
3 8 2 -7 -4 -4 -6 -5
4 9 3 -5 -3 -2 -4 -4
4 11 5 -4 0 0 -2 -2
5 12 6 -2 1 1 1 0
6 13 7 0 2 2 2 1
7 13 7 0 3 2 2 1
8 13 7 1 4 3 3 2
8 13 7 2 4 4 3 2
9 13 7 2 5 4 3 2
10 14 6 3 6 5 4 3
10 14 5 3 5 5 4 2
9 14 4 2 4 4 3 1
9 14 4 2 3 4 2 0
9 14 3 2 2 4 2 -2
8 13 2 1 1 3 1 -3
8 11 1 0 1 3 1 -3
7 9 0 -2 0 2 0 -4
7 8 -2 -3 -2 1 -2 -5
7 6 -3 -4 -2 1 -2 -5
5 5 -4 -5 -3 0 -3 -6
3 5 -3 -5 -3 0 -3 -6
0 4 -2 -5 -3 0 -3 -5
-3 4 -2 -5 -3 0 -3 -5
-5 4 0 -5 -3 0 -3 -5
-7 3 1 -5 -2 -2 -2 -4
-8 3 1 -5 -2 -2 -3 -4
-9 2 1 -5 -2 -3 -4 -5
-10 2 1 -5 -2 -3 -4 -6
-11 2 1 -5 -2 -3 -5 -6
-12 1 2 -6 -3 -4 -6 -7
-11 1 2 -6 -3 -4 -6 -7
-10 1 2 -6 -3 -4 -6 -7
-10 1 2 -6 -3 -4 -6 -7
-9 1 2 -6 -3 -4 -6 -7
-8 1 2 -7 -4 -4 -5 -8
-8 1 2 -7 -4 -4 -5 -8
-8 1 2 -6 -4 -4 -5 -8
-8 1 2 -5 -4 -4 -5 -8
-8 1 2 -5 -4 -4 -5 -8
-7 2 2 -4 -4 -5 -6 -8
-8 2 4 -4 -4 -5 -6 -8
-10 2 6 -3 -3 -5 -6 -8
-11 2 7 -3 -2 -5 -6 -8
-12 2 9 -3 -2 -5 -6 -8
-20 4 27 7 0 -6 -8 -11
-34 9 59 23 2 -10 -14 -16
-49 14 91 38 3 -14 -20 -21
-63 19 123 54 4 -18 -26 -26
-77 24 155 70 6 -23 -32 -30
-78 34 188 112 30 -6 -20 -24
-67 48 223 176 74 30 8 -6
-56 61 257 238 118 66 35 12
-45 74 290 302 161 101 63 29
-32 89 325 364 205 137 91 48
-9 102 308 396 251 179 129 77
24 116 248 402 298 227 175 117
58 131 189 408 346 275 221 157
91 145 130 415 393 322 267 196
125 159 70 422 440 370 313 236
135 151 14 353 403 349 303 233
126 123 -40 223 297 272 246 194
116 96 -95 92 191 194 190 155
106 68 -149 -38 85 116 134 116
97 40 -203 -169 -22 38 76 77
89 25 -231 -232 -79 -7 42 53
81 20 -236 -241 -98 -26 23 40
75 15 -242 -249 -116 -45 5 28
68 10 -248 -259 -135 -63 -14 16
61 6 -255 -268 -152 -81 -31 4
53 -2 -249 -263 -158 -91 -41 -6
44 -9 -233 -246 -151 -91 -46 -11
34 -16 -217 -229 -145 -91 -50 -17
25 -24 -201 -212 -138 -91 -53 -22
16 -31 -185 -194 -132 -91 -57 -28
10 -35 -168 -178 -122 -88 -58 -31
7 -35 -151 -160 -111 -80 -56 -32
5 -36 -134 -143 -101 -74 -54 -33
2 -36 -116 -127 -91 -67 -52 -33
0 -36 -99 -109 -79 -61 -50 -34
-4 -36 -83 -95 -70 -54 -46 -34
-6 -33 -70 -81 -62 -49 -41 -32
-8 -30 -57 -69 -54 -43 -37 -29
-10 -28 -44 -56 -46 -37 -33 -27
-12 -25 -30 -43 -36 -31 -28 -25
-13 -23 -21 -34 -31 -27 -26 -23
-13 -21 -16 -29 -28 -25 -24 -22
-14 -20 -12 -24 -24 -23 -22 -21
-14 -19 -7 -20 -21 -21 -21 -20
-14 -17 -3 -15 -18 -19 -19 -19
-15 -16 1 -12 -16 -17 -18 -18
-15 -16 2 -11 -16 -17 -18 -18
-15 -15 4 -10 -16 -17 -18 -18
-15 -15 5 -9 -16 -17 -18 -18
-15 -15 6 -8 -16 -17 -18 -18
-14 -14 7 -7 -15 -17 -17 -18
-14 -14 8 -7 -15 -17 -17 -18
-15 -14 9 -6 -14 -16 -17 -18
-15 -14 9 -5 -14 -16 -17 -18
-15 -14 10 -5 -14 -16 -17 -18
-16 -13 11 -4 -13 -15 -16 -18
-16 -13 11 -4 -13 -15 -17 -19
-16 -13 11 -4 -13 -16 -18 -20
-16 -13 11 -4 -13 -16 -18 -21
-16 -13 11 -4 -13 -16 -19 -22
-17 -13 11 -3 -13 -17 -20 -23
-16 -13 11 -3 -13 -16 -19 -21
-15 -12 12 -3 -13 -15 -17 -19
-14 -12 12 -3 -13 -15 -16 -17
-13 -12 12 -3 -13 -14 -15 -15
-12 -11 13 -2 -12 -13 -14 -14
-13 -11 13 -2 -12 -13 -14 -14
-14 -12 13 -2 -12 -13 -14 -14
-15 -12 13 -2 -12 -13 -14 -14
-16 -12 13 -2 -12 -13 -14 -14
-17 -13 14 -2 -11 -12 -14 -14
-16 -13 15 -2 -11 -12 -14 -14
-15 -12 16 -2 -11 -12 -14 -14
-15 -12 16 -2 -11 -12 -14 -14
-14 -12 17 -2 -11 -12 -14 -14
-13 -11 18 0 -10 -13 -14 -14
-13 -11 18 0 -10 -13 -14 -14
-14 -10 17 1 -10 -13 -14 -14
-14 -10 16 1 -10 -13 -14 -14
-14 -10 16 1 -10 -13 -14 -14
-15 -9 15 2 -10 -13 -13 -14
-15 -9 15 2 -10 -13 -13 -14
-15 -9 16 2 -10 -13 -12 -14
-15 -9 17 2 -10 -13 -11 -14
-15 -9 17 2 -10 -13 -11 -14
-15 -10 18 1 -9 -12 -10 -13
-15 -10 18 1 -9 -12 -10 -13
-14 -10 18 1 -9 -12 -11 -13
-13 -10 18 1 -9 -12 -12 -14
-13 -10 18 1 -9 -12 -12 -14
-12 -9 17 2 -9 -12 -13 -15
-13 -9 17 2 -9 -12 -13 -15
-13 -10 17 2 -9 -12 -13 -15
-14 -11 17 2 -9 -12 -13 -15
-15 -11 17 2 -9 -12 -13 -15
-16 -12 17 2 -10 -13 -14 -16
-15 -12 17 2 -10 -13 -14 -16
-15 -11 17 2 -10 -13 -14 -16
-14 -10 16 1 -10 -13 -13 -15
-13 -10 16 1 -10 -13 -13 -15
-12 -9 15 0 -11 -12 -12 -14
-12 -9 15 0 -11 -12 -12 -14
-12 -9 15 0 -11 -12 -12 -14
-12 -10 16 0 -11 -13 -13 -14
-12 -10 16 0 -11 -13 -13 -14
-11 -11 17 0 -10 -14 -14 -14
-11 -11 17 0 -10 -14 -14 -14
-11 -11 17 0 -10 -14 -14 -14
-12 -11 17 0 -10 -13 -14 -14
-12 -11 17 0 -10 -13 -14 -14
-13 -12 17 1 -9 -12 -13 -15
-12 -11 17 1 -9 -12 -13 -15
-11 -11 17 1 -9 -12 -13 -15
-10 -10 17 2 -8 -11 -12 -15
-9 -9 17 2 -8 -11 -12 -15
-8 -8 17 3 -7 -10 -11 -14
-8 -8 17 3 -7 -10 -11 -13
-8 -8 16 3 -7 -10 -10 -13
-8 -8 15 3 -7 -10 -9 -12
-8 -8 15 3 -7 -10 -9 -11
-7 -9 14 3 -6 -9 -8 -10
-6 -9 14 3 -6 -8 -7 -10
-6 -10 14 3 -6 -8 -7 -10
-5 -11 14 3 -5 -7 -6 -9
-4 -11 14 3 -5 -6 -5 -9
-3 -12 14 4 -4 -5 -4 -8
-3 -12 12 4 -4 -5 -4 -8
-3 -12 11 4 -4 -5 -4 -8
-3 -12 10 3 -4 -5 -3 -7
-3 -12 8 3 -4 -5 -3 -7
-3 -13 7 2 -5 -5 -2 -6
0 -12 5 2 -5 -5 -2 -5
2 -11 4 1 -5 -4 -2 -4
4 -9 2 0 -5 -3 0 -3
6 -8 0 0 -5 -3 0 -2
8 -7 -2 -2 -4 -2 1 0
9 -7 -4 -3 -4 1 3 2
10 -7 -6 -3 -4 2 5 3
12 -8 -8 -4 -3 3 7 4
13 -8 -10 -5 -3 5 9 6
14 -9 -13 -6 -2 6 11 7
14 -7 -15 -8 -2 6 12 8
15 -6 -17 -10 -2 6 12 8
16 -4 -20 -12 -2 6 13 9
16 -2 -22 -14 -2 6 14 10
17 0 -24 -15 -3 6 15 11
19 1 -27 -17 -3 7 16 12
20 2 -29 -19 -3 8 17 13
22 3 -31 -21 -3 10 19 14
24 4 -33 -23 -3 11 20 15
25 5 -35 -24 -2 12 21 16
25 5 -36 -25 -2 12 21 16
25 4 -37 -26 -2 12 21 16
25 3 -38 -27 -2 13 22 16
25 3 -39 -28 -2 13 22 16
24 2 -40 -29 -2 14 23 17
24 4 -40 -29 0 15 23 18
24 6 -40 -29 1 15 23 18
25 8 -41 -28 2 16 23 19
25 10 -41 -28 3 17 23 20
26 12 -43 -27 4 18 24 21
26 12 -40 -25 5 18 24 21
26 12 -38 -24 6 18 24 21
25 12 -36 -23 7 18 24 20
25 12 -35 -21 8 18 24 20
24 11 -32 -20 9 18 24 19
22 11 -30 -18 10 18 24 19
21 11 -27 -16 11 19 24 19
20 11 -25 -14 13 20 24 19
18 11 -22 -12 14 20 24 19
17 11 -19 -10 15 21 24 19
16 11 -17 -9 15 21 24 18
14 11 -14 -7 15 21 23 17
13 11 -11 -6 15 21 22 15
11 11 -8 -4 15 21 22 14
10 11 -6 -3 16 20 21 13
9 11 -4 -2 16 19 19 12
8 11 -2 1 16 17 17 11
6 10 1 2 15 16 15 9
5 10 3 4 15 14 14 8
4 9 5 5 14 13 12 7
2 8 5 5 14 13 11 7
1 7 6 5 14 12 11 7
-2 5 7 5 13 11 10 7
-4 4 7 5 13 11 9 7
-5 3 8 4 12 10 8 6
-5 3 8 4 11 9 7 4
-5 3 8 4 10 7 6 3
-5 3 7 3 9 6 4 1
-5 3 7 3 8 4 3 -2
-6 4 6 2 7 3 2 -3
-6 3 6 1 6 3 2 -3
-6 3 6 0 6 3 2 -3
-6 2 6 -2 5 2 2 -3
-6 1 6 -3 4 2 2 -3
-7 0 5 -4 3 1 1 -3
-7 0 5 -4 3 1 1 -3
-7 0 5 -4 3 1 1 -4
-7 0 5 -4 3 1 1 -5
-7 0 5 -4 3 1 1 -5
-7 1 6 -5 2 1 0 -6
-6 1 6 -5 2 1 0 -6
-5 1 6 -5 1 0 0 -6
-4 1 6 -5 0 -2 -2 -5
-3 1 6 -5 0 -2 -2 -5
-2 2 7 -5 -2 -3 -3 -4
-3 1 7 -5 -2 -3 -3 -4
-3 1 7 -5 -2 -3 -2 -4
-4 0 7 -5 -2 -3 0 -3
-5 -2 7 -5 -2 -3 0 -3
-6 -3 7 -5 -2 -2 1 -2
-6 -2 7 -5 -2 -2 0 -3
-6 0 7 -5 -2 -2 -2 -3
-6 1 8 -5 -2 -2 -4 -4
-6 2 8 -5 -2 -2 -5 -5
-5 3 9 -6 -2 -3 -6 -6
-4 4 9 -5 -2 -3 -6 -6
-2 5 10 -4 -2 -3 -6 -6
0 6 11 -3 -2 -3 -5 -6
2 7 11 -2 -2 -3 -5 -6
3 8 12 0 0 -3 -4 -6
3 8 12 1 1 -3 -4 -6
3 8 12 2 1 -3 -4 -6
3 8 13 3 2 -2 -4 -5
3 8 13 4 3 -2 -4 -5
4 7 14 5 4 0 -3 -4
5 8 14 6 4 0 -2 -3
6 10 15 6 4 1 -2 -3
7 11 16 7 4 2 0 -2
8 13 16 8 4 2 1 0
9 14 17 9 5 3 2 1
9 13 17 9 5 3 2 1
8 13 17 9 5 3 2 1
7 12 17 9 5 3 2 0
7 11 17 9 5 3 2 0
6 10 18 10 4 3 2 -2
6 10 18 10 4 3 2 -2
6 10 18 11 5 3 2 -2
6 11 18 12 6 4 2 -2
6 11 18 12 6 4 2 -2
5 12 19 13 7 5 3 -2
5 11 19 13 7 5 3 -2
4 11 18 13 7 5 3 -2
3 10 17 13 7 4 2 -2
3 9 17 13 7 4 2 -2
2 8 16 13 6 3 1 -2
2 8 16 13 6 3 1 -2
2 8 16 13 6 3 1 -2
3 8 16 13 6 3 1 -2
3 8 16 13 6 3 1 -2
4 8 17 14 7 4 2 -2
4 8 17 14 7 4 2 -2
4 8 17 14 7 4 2 -2
3 9 16 13 7 4 2 -2
3 9 16 13 7 4 2 -2
2 10 15 12 7 4 2 -3
2 8 15 12 7 4 2 -3
2 6 15 12 7 4 2 -3
1 4 14 11 7 4 2 -3
1 3 14 11 7 4 2 -3
0 1 13 10 6 3 1 -3
0 2 13 10 6 3 1 -3
1 3 13 10 6 3 1 -3
2 5 13 10 6 3 1 -3
2 6 13 10 6 3 1 -3
3 7 14 11 5 3 0 -3
3 7 14 11 5 3 0 -3
2 7 14 11 5 3 0 -3
1 7 13 11 5 3 0 -3
1 7 13 11 5 3 0 -3
0 6 12 10 4 2 1 -3
0 5 12 10 4 2 1 -3
0 4 12 9 4 2 1 -3
-2 3 12 8 3 1 1 -3
-2 2 12 8 3 1 1 -3
-3 1 12 7 2 0 0 -2
-3 1 12 7 2 0 0 -2
-3 2 12 7 2 0 0 -2
-3 3 12 7 2 1 0 -2
-3 3 12 7 2 1 0 -2
-2 4 12 7 3 2 1 -2
-2 3 12 7 3 2 1 -3
-2 2 12 6 3 2 0 -3
-3 0 11 5 2 1 -2 -4
-3 -2 11 5 2 1 -2 -5
-4 -3 10 4 1 0 -3 -6
-4 -3 10 4 1 0 -3 -6
-4 -2 10 4 1 0 -3 -6
-3 0 10 4 1 0 -3 -6
-3 0 10 4 1 0 -3 -6
-2 1 9 3 2 -2 -4 -5
-2 1 9 3 2 -2 -4 -5
-2 1 9 3 2 -2 -4 -5
-3 1 9 3 2 -2 -3 -5
-3 1 9 3 2 -2 -3 -5
-4 0 9 3 1 -2 -2 -5
-4 0 8 3 1 -2 -2 -5
-4 0 7 3 1 -2 -3 -5
-4 0 6 3 0 -3 -3 -5
-4 0 5 3 0 -3 -4 -5
-5 1 4 2 -2 -4 -5 -6
-5 1 4 2 -2 -4 -5 -6
-5 1 4 2 -2 -4 -5 -6
-5 0 4 2 -2 -3 -5 -6
-5 0 4 2 -2 -3 -5 -6
-5 -2 5 1 -2 -2 -4 -5
-5 -2 5 1 -2 -2 -4 -5
-4 -2 5 1 -2 -2 -4 -5
-4 -2 5 1 -2 -2 -4 -5
-3 -2 5 1 -2 -2 -4 -5
-2 -3 5 0 -2 -3 -3 -5
-3 -3 5 0 -2 -3 -3 -5
-4 -3 5 0 -2 -3 -3 -5
-5 -3 4 0 -2 -3 -3 -6
-6 -3 4 0 -2 -3 -3 -6
-7 -2 3 -2 0 -3 -4 -7
-7 -2 3 -2 0 -3 -4 -7
-7 -2 3 -2 -2 -3 -4 -7
-7 -3 3 -2 -2 -4 -5 -7
-7 -3 3 -2 -3 -4 -5 -7
-6 -4 3 -2 -4 -5 -6 -8
-6 -4 3 -2 -4 -5 -6 -8
-6 -3 3 -2 -4 -5 -6 -8
-5 -3 3 -2 -4 -4 -6 -8
-5 -2 3 -2 -4 -4 -6 -8
-4 0 3 0 -3 -3 -5 -7
-4 0 3 0 -3 -3 -5 -7
-4 0 3 0 -3 -3 -5 -6
-4 -2 3 0 -3 -3 -5 -6
-4 -2 3 0 -3 -3 -5 -5
-5 -3 2 0 -2 -2 -4 -4
-5 -3 2 0 -2 -2 -4 -5
-5 -3 2 0 -2 -2 -4 -5
-6 -4 2 -2 -2 -2 -4 -6
-6 -4 2 -2 -2 -2 -4 -7
-7 -5 1 -3 -3 -2 -5 -8
-7 -5 1 -3 -3 -3 -5 -8
-7 -5 1 -3 -3 -3 -5 -8
-7 -4 1 -3 -4 -4 -5 -8
-7 -4 1 -3 -4 -5 -5 -8
-6 -3 0 -4 -5 -6 -6 -9
-6 -4 0 -4 -5 -6 -6 -9
-6 -4 0 -4 -5 -6 -6 -8
-6 -5 0 -4 -5 -5 -6 -8
-6 -6 0 -4 -5 -5 -6 -7
-6 -7 1 -3 -4 -4 -6 -6
-6 -7 1 -3 -4 -4 -6 -6
-6 -7 1 -3 -4 -4 -6 -6
-6 -6 1 -3 -4 -4 -6 -7
-6 -6 1 -3 -4 -4 -6 -7
-6 -5 1 -3 -4 -3 -5 -8
-5 -4 1 -3 -4 -3 -5 -8
-5 -4 1 -3 -4 -3 -5 -8
-4 -3 1 -3 -4 -3 -5 -8
-3 -2 1 -3 -4 -3 -5 -8
-2 0 1 -4 -4 -3 -6 -8
-2 0 1 -4 -4 -3 -6 -8
-2 0 1 -3 -4 -3 -6 -7
-2 0 1 -3 -4 -3 -6 -7
-2 0 1 -2 -4 -3 -6 -6
-3 0 2 0 -3 -3 -5 -5
-3 0 1 0 -3 -3 -5 -5
-3 -2 0 0 -3 -3 -5 -5
-3 -2 -2 -2 -3 -3 -4 -5
-3 -3 -3 -2 -3 -3 -4 -5
-2 -4 -4 -3 -2 -3 -3 -4
-2 -4 -4 -3 -3 -3 -4 -5
-2 -4 -4 -4 -4 -4 -5 -5
0 -4 -5 -4 -5 -4 -6 -6
0 -4 -5 -5 -6 -5 -8 -7
1 -3 -6 -6 -7 -6 -9 -8
1 -3 -5 -6 -7 -6 -8 -8
1 -2 -5 -6 -6 -6 -7 -8
2 -2 -4 -6 -6 -5 -6 -7
2 0 -3 -6 -5 -5 -5 -7
3 1 -2 -5 -4 -4 -4 -6
3 2 0 -4 -3 -2 -3 -5
4 2 0 -2 0 1 -2 -3
4 3 1 0 1 2 0 -2
5 4 2 1 2 4 2 0
6 5 3 3 4 6 3 2
7 5 2 3 4 6 3 2
7 5 2 3 4 6 3 2
8 5 1 3 4 6 3 2
9 5 0 3 4 6 3 2
10 4 -2 3 5 5 3 2
9 3 -3 2 3 3 1 1
8 2 -4 0 1 2 0 0
7 1 -5 -2 0 0 -3 -2
6 0 -7 -3 -3 -2 -4 -4
5 -2 -8 -5 -5 -4 -6 -5
4 -3 -7 -5 -5 -4 -6 -5
4 -3 -7 -5 -4 -3 -6 -5
3 -4 -6 -4 -4 -3 -5 -4
2 -5 -5 -4 -3 -2 -5 -4
1 -6 -4 -3 -2 0 -4 -3
-2 -6 -4 -3 -3 -2 -4 -4
-4 -6 -4 -4 -4 -3 -5 -5
-7 -7 -4 -4 -5 -4 -6 -6
-9 -7 -4 -5 -6 -5 -7 -7
-11 -8 -4 -6 -7 -6 -8 -8
-11 -8 -4 -6 -7 -6 -8 -8
-11 -9 -4 -6 -7 -6 -8 -8
-11 -9 -5 -6 -7 -6 -9 -8
-11 -10 -5 -6 -7 -6 -9 -8
-10 -11 -6 -6 -8 -7 -10 -9
-10 -11 -6 -6 -8 -7 -10 -9
-10 -11 -6 -6 -8 -7 -10 -9
-11 -11 -6 -6 -8 -7 -10 -9
-11 -11 -6 -6 -8 -7 -10 -9
-12 -12 -5 -7 -7 -7 -10 -10
-12 -12 -5 -7 -7 -6 -10 -10
-12 -11 -5 -6 -6 -5 -9 -9
-12 -11 -5 -5 -5 -4 -9 -9
-12 -10 -5 -4 -4 -2 -8 -8
-13 -8 1 -2 -3 0 -7 -7
-22 -3 21 5 -3 -5 -12 -10
-31 3 42 10 -3 -8 -16 -13
-40 8 62 16 -4 -11 -20 -16
-50 13 82 22 -4 -15 -24 -19
-58 18 109 39 0 -14 -26 -21
-60 27 156 97 19 4 -17 -17
-63 36 203 153 39 22 -8 -12
-65 45 250 211 59 40 3 -8
-68 54 297 267 78 59 12 -3
-63 65 326 323 113 88 33 11
-28 88 294 373 195 156 95 56
7 110 260 425 278 225 157 101
42 132 227 476 361 293 219 146
76 154 194 527 444 361 280 190
104 165 152 538 489 400 320 221
108 138 80 404 397 335 276 195
112 109 9 271 306 269 233 170
116 81 -63 137 215 202 189 145
120 53 -135 4 122 137 145 119
122 30 -194 -109 42 78 105 96
112 25 -210 -147 -2 45 77 79
102 21 -225 -184 -45 12 51 63
92 16 -240 -221 -88 -21 23 46
81 12 -257 -258 -131 -54 -5 29
71 7 -267 -284 -165 -80 -27 15
62 0 -255 -270 -161 -83 -34 7
52 -8 -242 -255 -157 -86 -41 0
42 -14 -231 -240 -153 -89 -49 -9
31 -21 -219 -225 -150 -91 -56 -16
23 -28 -205 -210 -145 -94 -62 -23
18 -32 -187 -192 -135 -89 -62 -26
14 -37 -170 -175 -126 -85 -62 -29
9 -43 -152 -158 -115 -80 -61 -31
5 -48 -134 -141 -106 -76 -61 -34
1 -52 -116 -123 -96 -71 -60 -37
-2 -49 -101 -108 -86 -64 -55 -35
-3 -45 -85 -93 -74 -57 -50 -33
-5 -41 -69 -76 -64 -50 -45 -30
-7 -38 -53 -61 -53 -43 -39 -28
-9 -35 -38 -47 -44 -36 -35 -26
-9 -33 -32 -41 -39 -33 -33 -25
-10 -32 -25 -35 -35 -30 -31 -23
-11 -30 -18 -30 -31 -28 -28 -22
-12 -28 -12 -24 -28 -25 -26 -21
-13 -26 -6 -19 -24 -22 -24 -19
-13 -25 -5 -18 -23 -22 -24 -19
-12 -24 -4 -16 -22 -21 -24 -19
-12 -23 -3 -15 -21 -20 -24 -19
-11 -22 0 -14 -20 -19 -24 -19
-10 -21 1 -12 -19 -18 -23 -18
-10 -21 2 -11 -19 -18 -23 -18
-10 -21 3 -9 -18 -18 -22 -18
-10 -21 4 -7 -18 -18 -22 -18
-10 -21 5 -6 -17 -18 -21 -18
-11 -20 6 -4 -16 -18 -20 -18
-11 -20 6 -4 -16 -18 -20 -18
-11 -19 6 -4 -16 -18 -20 -18
-11 -19 7 -4 -16 -18 -20 -18
-11 -18 7 -4 -16 -18 -20 -18
-12 -17 8 -4 -16 -17 -19 -17
-12 -18 8 -4 -16 -17 -19 -17
-13 -20 8 -4 -16 -17 -19 -17
-14 -21 9 -4 -16 -17 -19 -17
-15 -22 9 -4 -16 -17 -19 -17
-16 -24 10 -5 -16 -17 -20 -18
-16 -23 10 -5 -16 -17 -20 -18
-15 -21 10 -4 -16 -17 -20 -18
-15 -20 10 -4 -16 -16 -19 -18
-14 -19 10 -3 -16 -16 -19 -18
-13 -17 11 -2 -15 -15 -18 -18
-13 -17 11 -2 -15 -15 -18 -18
-13 -18 11 -2 -15 -15 -17 -17
-13 -19 11 -2 -15 -15 -17 -16
-13 -20 11 -2 -15 -15 -16 -15
-13 -21 12 0 -14 -14 -15 -14
-13 -21 12 0 -14 -14 -15 -14
-14 -20 12 0 -14 -14 -16 -15
-14 -20 12 0 -14 -15 -17 -15
-15 -19 12 0 -14 -15 -18 -16
-16 -18 12 0 -15 -16 -19 -17
-16 -18 12 0 -15 -16 -19 -17
-16 -18 12 0 -15 -16 -18 -16
-16 -18 12 0 -14 -16 -18 -16
-16 -18 12 0 -14 -16 -17 -15
-15 -17 12 -2 -13 -16 -16 -14
-15 -17 12 -2 -13 -16 -16 -14
-15 -17 12 -2 -13 -16 -16 -14
-15 -17 12 -2 -13 -16 -16 -14
-15 -17 12 -2 -13 -16 -16 -14
-15 -16 13 0 -12 -16 -17 -15
-14 -16 13 0 -12 -16 -17 -15
-13 -15 13 0 -12 -16 -17 -15
-12 -14 13 0 -13 -16 -17 -16
-11 -13 13 0 -13 -16 -17 -16
-10 -12 12 -2 -14 -16 -18 -17
-10 -12 12 -2 -14 -16 -18 -17
-11 -12 13 0 -13 -16 -18 -16
-11 -12 13 1 -13 -15 -18 -16
-12 -12 14 2 -12 -15 -18 -15
-13 -13 15 3 -11 -14 -17 -14
-13 -13 15 3 -11 -14 -17 -14
-12 -12 15 3 -11 -14 -17 -14
-12 -12 14 2 -11 -14 -17 -14
-11 -11 14 2 -11 -14 -17 -14
-10 -10 13 1 -12 -14 -16 -14
-10 -10 13 1 -12 -14 -16 -14
-10 -11 13 1 -12 -14 -16 -14
-10 -12 13 1 -12 -14 -16 -14
-10 -13 13 1 -12 -14 -16 -14
-10 -14 13 2 -11 -13 -15 -14
-10 -14 13 2 -11 -13 -15 -14
-10 -14 13 2 -11 -13 -15 -14
-10 -14 13 2 -11 -12 -14 -13
-10 -14 13 2 -11 -12 -14 -13
-9 -14 12 1 -10 -11 -13 -12
-9 -14 12 1 -10 -11 -13 -12
-9 -14 12 1 -10 -11 -13 -12
-9 -14 12 1 -10 -11 -13 -12
-9 -14 12 1 -10 -11 -13 -12
-8 -14 11 2 -11 -11 -12 -11
-8 -14 11 2 -11 -11 -12 -11
-8 -15 10 2 -11 -11 -12 -11
-9 -15 10 2 -11 -11 -12 -11
-9 -16 9 2 -11 -11 -12 -11
-10 -17 8 1 -11 -11 -12 -12
-8 -17 8 1 -10 -10 -11 -11
-5 -16 8 2 -9 -9 -10 -10
-3 -15 8 3 -7 -8 -8 -8
0 -14 8 4 -6 -7 -7 -7
3 -13 7 5 -4 -5 -5 -5
3 -13 6 4 -4 -5 -5 -5
3 -13 4 3 -4 -5 -5 -5
4 -13 2 2 -5 -5 -5 -4
4 -13 1 1 -5 -5 -5 -4
5 -12 -2 0 -6 -5 -4 -3
6 -12 -3 0 -6 -4 -3 -2
8 -12 -4 0 -5 -2 0 0
9 -11 -5 0 -5 0 1 2
11 -11 -6 0 -4 2 3 3
13 -10 -8 0 -3 4 5 5
13 -10 -11 -2 -3 5 6 6
14 -9 -14 -4 -3 6 7 7
15 -8 -17 -5 -2 7 9 9
16 -7 -20 -7 -2 8 10 10
17 -6 -23 -9 0 9 12 12
19 -4 -25 -10 0 9 12 12
20 -2 -27 -12 0 9 12 12
22 1 -29 -13 0 9 12 12
24 3 -32 -15 0 9 12 12
26 5 -34 -17 -2 9 13 13
26 5 -35 -17 -2 10 14 14
26 5 -36 -18 -2 11 15 15
27 5 -38 -19 0 13 16 17
27 5 -39 -20 0 14 17 18
28 5 -41 -21 1 16 19 20
28 5 -41 -21 1 16 19 20
28 5 -43 -22 1 16 19 20
27 5 -44 -23 1 17 20 21
27 5 -45 -24 1 17 20 21
26 6 -46 -25 2 18 21 22
26 7 -45 -24 2 18 21 22
26 8 -44 -23 3 18 21 22
26 9 -41 -22 4 19 21 22
26 10 -40 -21 5 19 21 22
25 11 -38 -20 6 20 22 23
24 11 -36 -19 7 20 22 23
22 11 -33 -18 8 20 22 22
20 11 -31 -16 9 20 22 22
18 11 -29 -15 10 20 22 21
16 10 -26 -13 12 20 21 20
15 10 -24 -12 12 20 20 19
13 10 -21 -11 12 19 18 18
12 10 -18 -9 12 18 16 16
10 10 -16 -8 12 17 14 15
8 9 -13 -6 11 16 12 13
7 9 -12 -6 11 16 12 13
6 9 -10 -5 11 16 12 12
5 9 -8 -4 11 15 11 12
4 9 -6 -3 11 15 11 11
2 9 -4 -2 12 14 10 10
2 9 -4 -2 12 13 9 9
1 9 -3 -2 11 12 8 8
1 8 -3 -2 10 11 7 7
0 8 -2 -2 9 10 6 6
-2 7 0 -3 8 9 5 5
-3 6 0 -3 7 8 5 5
-4 5 0 -3 6 7 4 4
-5 4 0 -3 5 6 3 4
-6 3 0 -3 4 5 2 3
-8 1 1 -3 3 4 1 2
-8 1 1 -4 3 4 1 2
-8 1 1 -5 3 4 1 2
-8 1 1 -6 2 3 0 1
-8 1 1 -7 2 3 0 1
-7 0 0 -9 1 2 -2 0
-7 0 0 -9 1 2 -2 0
-7 0 0 -9 1 2 -2 0
-7 1 0 -9 0 1 -2 0
-7 1 0 -9 0 1 -2 0
-6 2 -2 -10 -2 0 -3 0
-6 1 -2 -10 -2 0 -3 0
-7 0 -2 -10 -2 0 -3 -2
-7 -3 -2 -11 -2 -2 -4 -2
-8 -4 -2 -11 -2 -2 -4 -3
-9 -6 -3 -12 -3 -3 -5 -4
-9 -6 -3 -12 -3 -3 -5 -4
-9 -6 -3 -12 -4 -3 -5 -4
-10 -5 -3 -12 -4 -3 -5 -4
-10 -5 -3 -12 -5 -3 -5 -4
-11 -4 -2 -12 -6 -4 -6 -4
-11 -4 -2 -12 -6 -4 -6 -4
-10 -4 -2 -12 -6 -4 -6 -4
-10 -4 0 -11 -6 -4 -6 -4
-9 -4 0 -11 -6 -4 -6 -4
-8 -4 1 -10 -5 -3 -5 -3
-8 -4 1 -10 -5 -3 -5 -3
-8 -4 1 -10 -5 -3 -5 -3
-9 -4 1 -10 -5 -3 -6 -4
-9 -4 1 -10 -5 -3 -6 -4
-10 -5 0 -11 -6 -4 -7 -5
-10 -5 0 -10 -6 -4 -7 -5
-10 -5 0 -9 -6 -4 -7 -5
-11 -5 0 -8 -6 -4 -7 -5
-11 -5 0 -7 -6 -4 -7 -5
-12 -4 1 -6 -5 -5 -8 -6
-12 -4 2 -6 -5 -5 -8 -6
-12 -4 3 -5 -4 -5 -7 -5
-12 -4 4 -5 -4 -4 -7 -5
-12 -4 5 -4 -3 -4 -6 -4
-11 -5 6 -3 -2 -3 -5 -3
-11 -5 6 -3 -2 -3 -5 -3
-11 -5 6 -3 -2 -3 -5 -3
-11 -5 6 -3 -2 -3 -5 -3
-11 -5 6 -3 -2 -3 -5 -3
-11 -4 6 -2 -2 -3 -5 -4
-11 -4 6 -2 -2 -3 -5 -4
-10 -3 6 -2 -2 -3 -5 -4
-10 -3 7 0 -2 -2 -5 -4
-9 -2 7 0 -2 -2 -5 -4
-8 0 8 1 -2 0 -4 -4
-8 0 8 1 -2 0 -4 -4
-9 0 8 1 -2 0 -4 -4
-9 -2 8 2 0 0 -4 -4
-10 -2 8 2 0 0 -4 -4
-11 -3 7 3 1 0 -5 -3
-11 -3 7 3 1 0 -5 -3
-11 -3 7 3 1 0 -5 -3
-10 -3 8 3 1 0 -4 -3
-10 -3 8 3 1 0 -4 -3
-9 -3 9 3 1 0 -3 -2
-9 -3 9 3 1 0 -3 -2
-9 -3 9 3 1 0 -3 -2
-9 -3 8 3 1 0 -3 -2
-9 -3 8 3 1 0 -3 -2
-8 -2 7 4 1 1 -4 0
-8 -2 7 4 1 1 -4 0
-8 -2 7 4 1 1 -4 0
-8 -2 7 4 1 1 -3 0
-8 -2 7 4 1 1 -3 0
-8 -3 8 3 1 0 -2 0
-8 -3 8 3 1 0 -2 0
-8 -3 8 3 1 0 -2 0
-8 -3 9 3 1 0 -2 0
-8 -3 9 3 1 0 -2 0
-8 -2 10 2 2 1 -3 0
-8 -2 9 2 2 1 -3 0
-8 -2 8 2 2 1 -3 0
-8 -2 7 2 1 1 -3 0
-8 -2 6 2 1 1 -3 0
-8 0 5 1 0 0 -3 0
-8 0 5 1 0 0 -3 0
-9 -2 5 1 0 0 -4 -2
-9 -2 5 0 0 -2 -4 -2
-10 -3 5 0 0 -2 -5 -3
-11 -4 5 -2 -2 -3 -6 -4
-11 -4 5 -2 -2 -3 -6 -4
-11 -4 5 -2 -2 -3 -6 -4
-10 -4 5 -2 -2 -3 -6 -3
-10 -4 5 -2 -2 -3 -6 -3
-9 -3 6 -2 -2 -2 -6 -2
-9 -3 6 -2 -2 -2 -6 -2
-9 -3 6 -2 -2 -2 -6 -2
-9 -2 6 -2 -2 -2 -6 -2
-9 -2 6 -2 -2 -2 -6 -2
-10 0 6 -2 0 -2 -5 -2
-10 0 6 -2 0 -2 -5 -2
-10 0 6 -2 0 -2 -5 -2
-10 0 6 -2 0 -2 -5 -2
-10 0 6 -2 0 -2 -5 -2
-9 1 5 -3 -2 -2 -5 -2
-9 1 5 -3 -2 -2 -5 -2
-9 0 5 -3 -2 -2 -5 -2
-9 0 5 -4 -2 -2 -5 -2
-9 -2 5 -4 -2 -2 -5 -2
-9 -2 5 -4 -2 -2 -5 -2
-10 -3 5 -5 -3 -2 -6 -2
-10 -3 5 -5 -3 -2 -6 -2
-11 -3 5 -4 -3 -2 -6 -2
-11 -3 5 -4 -3 -2 -6 -2
-11 -3 5 -4 -3 -2 -6 -2
-12 -2 6 -3 -3 -2 -7 -3
-12 -2 6 -3 -3 -2 -7 -3
-12 -2 5 -4 -3 -2 -7 -3
-12 -2 5 -4 -3 -2 -7 -3
-12 -2 5 -4 -3 -2 -7 -3
-11 -3 4 -5 -2 -3 -8 -4
-11 -3 4 -5 -2 -3 -8 -4
-11 -2 5 -5 -2 -3 -8 -3
-11 -2 5 -5 -2 -3 -8 -3
-11 -2 5 -5 -2 -3 -8 -3
-12 0 6 -4 -3 -3 -8 -2
-12 0 6 -4 -3 -3 -8 -2
-12 -2 5 -5 -3 -4 -8 -3
-12 -2 5 -5 -3 -4 -8 -3
-12 -2 5 -5 -3 -4 -8 -3
-12 -3 4 -6 -4 -5 -9 -4
-12 -2 4 -6 -4 -5 -9 -4
-11 -2 5 -6 -4 -5 -9 -3
-11 0 5 -6 -4 -5 -9 -3
-11 0 5 -6 -4 -5 -9 -3
-10 1 6 -5 -3 -4 -8 -2
-11 0 6 -6 -3 -4 -8 -2
-12 0 5 -6 -4 -4 -8 -2
-13 -2 5 -7 -4 -4 -8 -2
-13 -2 5 -7 -4 -4 -8 -2
-14 -3 4 -8 -5 -4 -9 -3
-14 -3 4 -8 -5 -4 -9 -3
-13 -3 4 -7 -5 -4 -9 -3
-13 -3 4 -7 -5 -4 -9 -3
-13 -3 4 -7 -5 -4 -9 -3
-12 -3 5 -6 -4 -4 -9 -4
-12 -3 5 -6 -4 -4 -9 -4
-12 -3 5 -6 -4 -4 -9 -4
-12 -3 5 -6 -4 -4 -9 -4
-12 -3 5 -6 -4 -4 -9 -4
-11 -2 5 -5 -4 -4 -9 -3
-11 -2 5 -6 -4 -4 -9 -3
-12 0 4 -6 -5 -4 -9 -4
-12 0 4 -7 -5 -4 -9 -4
-12 0 4 -7 -5 -4 -9 -4
-13 1 3 -8 -6 -4 -8 -5
-13 1 3 -8 -6 -4 -8 -5
-12 1 3 -8 -6 -4 -9 -5
-12 1 3 -8 -6 -4 -9 -5
-12 1 3 -8 -6 -4 -9 -5
-11 0 3 -8 -6 -5 -10 -4
-11 0 3 -8 -6 -5 -10 -4
-11 -2 3 -7 -5 -5 -10 -4
-11 -2 3 -7 -5 -5 -10 -4
-11 -2 3 -7 -5 -5 -10 -4
-12 -3 4 -6 -4 -6 -9 -3
-12 -3 4 -6 -4 -6 -9 -3
-11 -2 4 -6 -4 -5 -8 -3
-11 -2 4 -6 -4 -5 -8 -3
-11 -2 4 -6 -4 -5 -8 -3
-10 0 5 -6 -3 -4 -7 -2
-10 -2 5 -6 -3 -4 -7 -2
-11 -2 5 -6 -4 -4 -7 -2
-11 -3 5 -6 -4 -4 -7 -2
-11 -3 5 -6 -4 -4 -7 -2
-12 -4 4 -6 -5 -5 -7 -3
-12 -4 4 -6 -5 -5 -7 -3
-12 -3 4 -6 -5 -5 -7 -3
-12 -3 4 -6 -5 -5 -7 -3
-12 -3 4 -6 -5 -5 -7 -3
-12 0 3 -7 -4 -5 -8 -3
-11 2 4 -6 -4 -4 -8 -3
-10 3 4 -6 -4 -4 -7 -2
-9 5 5 -5 -4 -3 -7 -2
-9 6 5 -5 -4 -3 -7 -2
-8 7 6 -4 -3 -2 -6 0
-7 6 6 -4 -3 -2 -6 1
-7 5 6 -4 -2 -2 -5 1
-6 4 6 -4 -2 -2 -5 2
-6 3 6 -4 -2 -2 -5 2
-5 2 6 -4 0 -2 -4 3
-5 3 5 -4 -2 -2 -4 3
-5 3 4 -4 -2 -2 -5 2
-5 4 3 -4 -3 -2 -5 2
-5 4 3 -4 -3 -2 -5 2
-4 5 2 -5 -4 -2 -6 1
-3 5 2 -5 -4 -2 -6 0
0 5 3 -5 -4 -3 -6 -2
1 5 3 -5 -4 -3 -6 -3
2 5 3 -5 -4 -3 -6 -3
3 7 5 -5 -5 -4 -6 -3
3 8 6 -4 -4 -4 -6 -2
4 9 7 -3 -3 -3 -6 0
4 10 8 -2 -2 -3 -6 1
4 11 9 0 0 -3 -6 2
5 12 10 1 1 -2 -5 3
5 11 9 1 2 0 -4 3
4 10 9 1 2 0 -4 4
4 9 8 1 3 1 -3 4
4 8 8 1 3 1 -3 4
3 7 7 2 4 2 -2 5
4 7 7 2 4 2 -2 5
5 8 6 2 4 2 0 5
6 8 6 2 4 2 0 5
6 8 6 2 4 2 0 5
7 9 5 0 3 3 1 6
6 8 4 -2 2 2 0 5
6 7 3 -4 1 1 -2 5
5 6 2 -5 0 0 -3 4
5 5 1 -6 -2 -2 -3 4
3 4 0 -7 -3 -3 -4 3
1 4 1 -6 -3 -3 -4 3
-2 4 2 -6 -2 -2 -4 3
-4 4 3 -5 -2 -2 -4 3
-6 4 4 -5 -2 -2 -4 3
-7 3 5 -4 0 0 -4 2
-8 3 5 -4 0 0 -5 2
-9 3 5 -4 -2 -2 -5 1
-10 3 5 -4 -2 -2 -6 1
-10 3 5 -4 -2 -2 -6 1
-11 2 6 -4 -3 -3 -7 0
-12 1 5 -5 -3 -4 -8 -2
-12 0 5 -5 -3 -4 -9 -2
-13 -2 4 -6 -3 -5 -10 -3
-13 -3 4 -6 -3 -5 -10 -3
-14 -4 3 -7 -4 -6 -11 -4
-14 -3 4 -6 -4 -5 -10 -3
-13 -2 5 -5 -4 -4 -9 -2
-13 0 6 -4 -4 -3 -8 0
-13 0 6 -4 -4 -3 -8 0
-12 1 8 -3 -3 -2 -7 1
-13 1 9 -3 -3 -2 -7 1
-14 1 11 -3 -3 -2 -7 1
-15 1 12 -3 -3 -2 -7 1
-16 1 13 -3 -3 -2 -7 1
-29 5 43 7 0 -6 -12 -4
-45 11 76 18 1 -10 -18 -9
-60 17 109 29 2 -14 -23 -13
-74 23 142 40 3 -18 -28 -18
-90 29 176 52 4 -22 -34 -22
-82 40 209 114 45 9 -11 -8
-70 54 242 182 90 46 19 11
-59 66 275 251 135 82 48 29
-48 79 309 319 180 118 76 48
-36 92 343 388 225 155 105 66
-5 107 292 402 271 199 146 99
29 123 229 410 316 245 189 133
63 140 165 419 362 290 232 165
97 156 103 427 407 336 275 199
131 173 39 435 453 381 318 233
130 149 -16 320 367 320 277 209
121 118 -71 187 262 244 222 175
113 89 -126 54 156 169 167 141
105 59 -180 -78 51 92 112 107
97 28 -235 -212 -55 16 57 73
92 18 -244 -237 -83 -10 34 58
88 11 -247 -246 -101 -28 17 46
82 4 -251 -257 -118 -47 0 32
77 -4 -253 -267 -136 -64 -19 20
72 -11 -256 -276 -153 -82 -36 8
61 -17 -242 -262 -151 -86 -43 2
49 -22 -225 -243 -144 -86 -47 -5
36 -28 -207 -224 -138 -86 -50 -11
24 -34 -191 -205 -131 -86 -54 -16
12 -40 -174 -186 -123 -86 -58 -22
9 -41 -154 -168 -113 -79 -58 -23
6 -40 -136 -149 -102 -72 -56 -23
4 -39 -116 -131 -91 -66 -54 -24
2 -38 -98 -112 -79 -59 -53 -24
0 -38 -78 -94 -68 -52 -51 -24
-4 -34 -65 -81 -60 -47 -47 -23
-7 -30 -52 -69 -52 -40 -41 -21
-10 -27 -39 -57 -44 -35 -36 -18
-12 -23 -27 -46 -35 -30 -32 -15
-15 -19 -14 -33 -28 -24 -27 -13
-16 -17 -9 -29 -25 -23 -26 -12
-17 -16 -6 -26 -24 -22 -25 -12
-17 -15 -2 -23 -22 -21 -24 -12
-18 -14 2 -20 -20 -20 -23 -12
-18 -13 6 -17 -19 -19 -22 -12
-19 -12 7 -15 -18 -18 -21 -11
-19 -13 8 -14 -18 -18 -21 -11
-19 -14 8 -13 -17 -18 -21 -10
-19 -15 9 -12 -17 -18 -21 -10
-19 -15 9 -11 -17 -18 -21 -10
-20 -16 11 -10 -16 -18 -22 -9
-20 -16 12 -9 -15 -17 -21 -9
-21 -16 13 -8 -14 -17 -21 -9
-21 -16 14 -7 -13 -16 -20 -9
-21 -16 15 -7 -13 -16 -20 -9
-22 -16 16 -6 -12 -15 -19 -8
-22 -15 16 -6 -12 -15 -19 -8
-22 -14 16 -6 -12 -15 -19 -8
-22 -13 16 -6 -12 -15 -19 -8
-22 -13 16 -6 -12 -15 -19 -8
-23 -12 16 -5 -11 -14 -19 -8
-23 -12 16 -5 -11 -14 -19 -8
-23 -12 16 -5 -11 -15 -19 -8
-23 -12 16 -5 -11 -15 -19 -8
-23 -12 16 -5 -11 -15 -19 -8
-23 -12 17 -5 -12 -16 -19 -8
-22 -11 18 -4 -11 -15 -18 -8
-21 -11 19 -4 -10 -14 -17 -7
-19 -10 20 -3 -9 -13 -16 -7
-18 -10 20 -3 -9 -13 -16 -7
-17 -9 21 -2 -8 -12 -15 -6
-18 -10 21 -2 -8 -12 -15 -6
-19 -10 21 -2 -9 -12 -15 -6
-20 -11 21 -2 -9 -12 -15 -6
-21 -11 21 -2 -9 -12 -15 -6
-22 -11 21 -2 -10 -13 -16 -7
-21 -10 21 -2 -10 -13 -16 -7
-20 -9 21 -2 -10 -13 -16 -7
-19 -7 21 -2 -10 -13 -16 -7
-19 -6 21 -2 -10 -13 -16 -7
-18 -5 20 -2 -9 -12 -15 -7
-18 -5 20 -2 -9 -12 -15 -7
-18 -6 21 0 -9 -13 -15 -7
-18 -6 21 0 -9 -13 -15 -7
-18 -6 21 0 -9 -13 -15 -7
-19 -7 22 1 -8 -14 -16 -7
-19 -8 22 1 -8 -14 -16 -7
-19 -9 22 0 -8 -14 -15 -7
-19 -10 22 0 -8 -14 -15 -7
-19 -10 22 0 -8 -14 -15 -7
-20 -11 22 -2 -9 -13 -14 -6
-20 -11 22 -2 -9 -13 -14 -6
-19 -11 22 -2 -9 -13 -15 -7
-19 -11 22 -2 -9 -13 -15 -7
-19 -11 22 -2 -9 -13 -15 -7
-18 -10 22 -2 -10 -14 -16 -8
-18 -10 22 -2 -10 -14 -16 -8
-18 -10 22 -2 -10 -14 -16 -8
-18 -10 22 -2 -10 -14 -16 -8
-18 -10 22 -2 -10 -14 -16 -8
-18 -11 21 0 -9 -14 -15 -7
-17 -10 22 0 -9 -14 -15 -7
-16 -9 22 1 -9 -13 -15 -7
-15 -8 23 1 -9 -13 -15 -7
-14 -8 23 1 -9 -13 -15 -7
-13 -7 24 2 -8 -12 -15 -8
-13 -7 23 2 -8 -12 -15 -8
-13 -7 22 2 -9 -12 -15 -8
-13 -7 21 2 -9 -12 -15 -8
-13 -7 20 2 -9 -12 -15 -8
-13 -8 19 1 -10 -13 -15 -8
-13 -8 20 2 -10 -13 -14 -7
-13 -8 20 2 -9 -13 -14 -6
-13 -8 21 3 -9 -13 -13 -5
-13 -8 21 3 -9 -13 -13 -5
-12 -8 22 4 -8 -12 -12 -4
-12 -9 22 4 -8 -12 -12 -4
-12 -9 22 4 -8 -12 -12 -5
-12 -10 22 4 -8 -12 -12 -5
-12 -10 22 4 -8 -12 -12 -5
-12 -11 21 5 -7 -11 -11 -6
-11 -11 21 5 -7 -11 -11 -5
-10 -11 20 4 -7 -11 -11 -5
-9 -11 20 4 -7 -11 -11 -4
-9 -11 20 4 -7 -11 -11 -4
-8 -10 19 3 -8 -12 -12 -3
-7 -10 18 3 -8 -11 -11 -3
-6 -9 18 3 -8 -10 -10 -3
-5 -9 17 3 -8 -9 -9 -3
-4 -9 17 3 -8 -9 -9 -3
-2 -8 15 3 -7 -8 -8 -2
0 -8 14 2 -7 -7 -6 1
2 -8 12 2 -6 -6 -5 2
4 -8 10 1 -6 -5 -4 3
5 -8 9 1 -6 -5 -3 4
6 -8 7 0 -5 -4 -2 5
7 -7 5 -2 -5 -3 1 7
7 -6 2 -3 -5 -3 2 8
8 -4 0 -4 -5 -2 3 9
8 -3 -3 -4 -5 -2 4 10
10 -2 -5 -6 -5 0 5 11
12 0 -7 -7 -4 1 7 12
13 1 -8 -8 -3 2 8 13
15 2 -10 -10 -2 3 9 14
17 2 -12 -11 -2 4 10 15
18 3 -14 -13 0 5 11 16
18 3 -16 -14 0 6 11 17
18 3 -19 -16 0 6 12 18
18 3 -21 -18 0 7 12 19
18 3 -23 -19 0 7 12 19
19 5 -24 -20 -2 8 14 20
21 6 -26 -22 -2 9 15 21
22 7 -27 -23 -2 10 16 22
23 9 -28 -24 -2 11 18 23
24 10 -29 -25 -2 11 19 24
25 11 -30 -26 0 12 20 25
25 12 -30 -25 1 13 20 26
25 12 -30 -25 2 14 21 27
25 13 -30 -24 4 15 21 28
25 13 -30 -24 5 15 21 28
25 14 -29 -23 6 16 22 29
23 14 -27 -21 7 16 22 28
22 14 -26 -20 8 17 22 28
21 14 -24 -19 9 17 22 27
20 14 -22 -18 9 17 22 27
18 15 -20 -17 10 18 23 26
16 14 -18 -15 10 18 23 25
15 13 -16 -14 11 18 22 24
13 12 -14 -13 11 18 22 23
11 11 -12 -12 11 18 22 23
10 10 -10 -10 12 17 21 22
9 10 -7 -8 13 17 20 22
8 11 -4 -5 14 16 19 21
8 11 -2 -3 14 16 18 21
7 11 2 0 15 16 17 21
6 12 4 1 16 15 16 20
5 12 5 2 16 15 15 19
5 12 7 3 16 14 14 18
4 12 8 3 16 14 13 18
4 12 10 4 16 14 12 17
2 12 11 5 15 12 11 16
1 11 11 5 14 11 10 15
0 10 12 5 14 9 9 14
-3 9 12 5 13 8 9 13
-4 8 12 5 13 6 8 12
-5 7 13 5 11 5 7 11
-6 6 13 4 10 4 6 10
-7 6 13 3 9 3 5 9
-7 5 13 3 7 3 4 9
-8 5 13 2 6 2 3 8
-9 4 13 1 5 1 2 7
-9 3 12 0 5 1 2 7
-9 2 12 0 4 1 2 7
-9 2 11 -2 4 1 2 7
-9 1 11 -2 4 1 2 7
-8 0 10 -3 3 0 1 6
-9 -2 10 -4 2 0 0 4
-9 -2 10 -4 1 -2 -2 3
-10 -3 10 -5 1 -2 -2 2
-10 -3 10 -5 0 -2 -3 1
-11 -4 9 -6 -2 -3 -4 0
-10 -4 9 -6 -2 -3 -4 0
-10 -4 9 -5 -2 -3 -4 1
-9 -4 9 -5 -2 -3 -4 1
-9 -4 9 -5 -2 -3 -4 1
-8 -4 8 -4 0 -4 -3 2
-8 -4 8 -4 0 -4 -3 2
-7 -3 8 -4 0 -4 -3 2
-7 -3 8 -4 0 -4 -3 2
-7 -3 8 -4 0 -4 -3 2
-6 -2 9 -4 0 -3 -3 3
-7 -3 9 -4 0 -3 -3 3
-7 -3 9 -4 0 -4 -3 3
-8 -4 9 -4 0 -4 -3 3
-8 -4 9 -4 0 -4 -3 3
-9 -5 8 -5 -2 -5 -4 2
-9 -5 9 -4 -2 -5 -4 2
-8 -4 9 -3 -2 -5 -3 2
-8 -4 10 -3 -2 -5 -3 2
-8 -4 10 -2 -2 -5 -3 2
-7 -3 11 0 -2 -5 -2 1
-7 -3 11 0 -2 -5 -2 1
-6 -3 11 1 0 -5 -2 2
-6 -3 11 1 0 -5 -2 2
-6 -3 11 1 0 -5 -2 2
-5 -4 12 2 1 -4 -3 3
-6 -4 13 2 1 -4 -3 3
-6 -4 13 2 0 -4 -3 2
-7 -4 14 2 0 -4 -3 2
-7 -4 14 2 0 -4 -3 2
-8 -3 15 2 -2 -5 -4 1
-8 -3 15 2 -2 -5 -4 1
-9 -3 15 2 0 -5 -4 0
-9 -3 15 2 0 -5 -4 0
-9 -3 15 2 0 -5 -4 0
-10 -4 16 3 1 -6 -4 -2
-10 -4 16 3 1 -6 -4 -2
-10 -4 16 4 1 -6 -4 -2
-10 -4 16 4 1 -6 -4 -2
-10 -4 16 4 1 -6 -4 -2
-10 -3 15 5 0 -6 -5 -2
-10 -3 15 5 0 -6 -5 -2
-10 -4 15 5 0 -6 -5 -2
-10 -4 15 5 0 -6 -5 -2
-10 -4 15 5 0 -6 -5 -2
-10 -5 15 5 1 -6 -5 -2
-11 -5 15 5 1 -6 -5 -2
-11 -4 15 5 1 -6 -5 -2
-12 -4 15 5 1 -6 -5 -2
-12 -4 15 5 1 -6 -5 -2
-13 -3 15 5 2 -5 -4 0
-13 -3 15 5 2 -5 -4 0
-13 -3 14 4 2 -4 -4 0
-13 -3 14 4 2 -4 -4 0
-13 -3 14 4 2 -4 -4 0
-13 -4 13 3 1 -3 -3 1
-12 -3 14 4 1 -3 -3 1
-11 -3 14 4 2 -3 -3 1
-10 -2 15 5 2 -3 -3 1
-9 -2 15 5 2 -3 -3 1
-8 0 16 6 3 -3 -2 1
-8 0 16 5 3 -3 -2 1
-9 0 15 5 2 -4 -2 0
-9 0 15 4 2 -4 -2 0
-9 0 15 4 2 -4 -2 0
-10 -2 14 3 1 -5 -3 -2
-10 -2 14 3 1 -5 -3 -2
-10 -2 13 3 1 -5 -3 -2
-10 -2 13 3 1 -5 -3 -2
-10 -2 13 3 1 -5 -3 -2
-10 0 12 2 0 -5 -4 -2
-10 0 12 2 0 -5 -4 -2
-9 -2 11 2 0 -5 -4 -2
-9 -2 11 2 0 -5 -4 -2
-9 -2 11 2 0 -5 -4 -2
-8 -3 10 1 -2 -6 -4 0
-7 -3 10 1 -2 -6 -4 0
-6 -4 10 1 -2 -6 -4 -2
-5 -4 10 1 -2 -6 -4 -2
-4 -4 10 1 -2 -6 -4 -2
-3 -5 9 1 -3 -7 -4 -3
-3 -5 9 1 -3 -7 -5 -3
-3 -6 9 1 -4 -8 -6 -3
-3 -6 9 1 -4 -9 -6 -3
-3 -6 9 1 -4 -9 -7 -3
-4 -7 10 0 -5 -10 -8 -4
-5 -7 10 -2 -5 -10 -8 -4
-6 -7 9 -3 -5 -10 -8 -4
-7 -7 8 -3 -5 -10 -8 -4
-8 -7 8 -4 -5 -10 -8 -4
-9 -8 7 -5 -5 -10 -8 -4
-9 -8 7 -5 -5 -10 -8 -4
-8 -8 7 -4 -5 -10 -8 -4
-7 -8 7 -4 -5 -10 -8 -4
-7 -8 7 -4 -5 -10 -8 -4
-6 -8 7 -3 -5 -10 -7 -5
-6 -7 7 -3 -5 -10 -7 -5
-6 -5 7 -3 -5 -9 -7 -5
-6 -4 7 -3 -5 -9 -7 -5
-6 -3 7 -3 -5 -9 -7 -5
-6 -2 8 -3 -4 -8 -6 -4
-6 -3 8 -3 -4 -8 -6 -4
-6 -4 8 -3 -4 -8 -6 -4
-6 -4 8 -3 -4 -8 -6 -4
-6 -5 8 -3 -4 -8 -6 -4
-6 -6 8 -3 -4 -7 -6 -3
-6 -6 8 -3 -4 -7 -6 -3
-5 -6 8 -3 -3 -7 -6 -3
-5 -6 8 -3 -3 -7 -6 -3
-5 -6 8 -3 -3 -7 -6 -3
-4 -5 9 -2 -2 -6 -7 -4
-4 -5 9 -2 -2 -6 -7 -4
-5 -6 8 -3 -3 -7 -7 -4
-5 -6 7 -4 -4 -7 -7 -4
-5 -6 7 -4 -4 -7 -7 -4
-6 -7 6 -5 -5 -8 -7 -3
-6 -6 6 -5 -5 -8 -7 -3
-6 -5 6 -5 -5 -9 -8 -4
-6 -4 6 -5 -5 -9 -8 -4
-6 -3 6 -5 -5 -9 -8 -4
-6 -2 6 -5 -5 -10 -9 -5
-5 -2 6 -5 -5 -10 -9 -5
-4 -3 6 -4 -4 -9 -8 -4
-3 -3 6 -4 -4 -9 -8 -4
-2 -3 6 -4 -4 -9 -8 -4
0 -4 7 -3 -3 -8 -7 -3
-3 -4 7 -3 -3 -8 -7 -4
-4 -5 6 -3 -4 -9 -8 -5
-6 -5 6 -3 -4 -9 -8 -5
-7 -5 6 -3 -4 -9 -8 -6
-8 -6 5 -4 -5 -10 -9 -7
-8 -6 5 -4 -5 -10 -9 -7
-7 -6 4 -5 -5 -10 -10 -8
-6 -6 4 -5 -5 -10 -11 -8
-6 -6 4 -5 -5 -10 -11 -8
-5 -6 3 -6 -6 -10 -12 -9
-5 -5 3 -6 -5 -10 -11 -8
-4 -4 4 -5 -4 -9 -9 -7
-4 -4 5 -5 -4 -8 -8 -6
-4 -3 5 -5 -3 -8 -7 -5
-3 -2 6 -4 -2 -7 -6 -4
-4 -3 6 -4 -2 -7 -6 -4
-5 -4 6 -5 -3 -8 -7 -4
-6 -4 6 -5 -4 -8 -7 -4
-7 -5 6 -5 -4 -8 -7 -4
-8 -6 5 -6 -5 -9 -8 -5
-8 -6 5 -6 -5 -9 -8 -5
-8 -6 4 -6 -4 -8 -8 -6
-8 -6 4 -6 -4 -8 -8 -6
-8 -6 4 -6 -4 -8 -8 -6
-7 -5 3 -7 -3 -7 -7 -7
-7 -5 3 -7 -3 -7 -7 -7
-6 -4 3 -6 -4 -7 -8 -6
-6 -4 3 -6 -4 -7 -8 -6
-6 -4 3 -6 -4 -7 -8 -6
-5 -3 3 -5 -5 -8 -9 -5
-5 -3 3 -5 -5 -8 -9 -5
-6 -4 3 -5 -5 -8 -9 -5
-6 -4 3 -5 -5 -8 -9 -5
-6 -4 3 -5 -5 -8 -9 -5
-7 -5 2 -6 -4 -8 -9 -6
-7 -5 2 -6 -4 -8 -9 -6
-7 -6 2 -6 -4 -8 -9 -6
-7 -6 2 -6 -4 -8 -9 -6
-7 -6 2 -6 -4 -8 -9 -6
-7 -7 2 -5 -3 -7 -9 -6
-8 -7 2 -5 -3 -7 -9 -6
-9 -7 2 -5 -3 -7 -9 -6
-9 -7 2 -5 -3 -7 -9 -6
-10 -7 2 -5 -3 -7 -9 -6
-11 -7 3 -5 -4 -8 -9 -5
-11 -7 3 -5 -4 -8 -9 -5
-12 -7 3 -5 -4 -8 -9 -6
-13 -7 3 -5 -4 -8 -9 -6
-13 -7 3 -5 -4 -8 -9 -6
-13 -7 2 -5 -4 -8 -10 -7
-10 -5 2 -5 -3 -7 -8 -6
-8 -3 3 -4 -2 -6 -7 -5
-5 0 3 -4 0 -6 -5 -4
-3 3 3 -4 1 -5 -4 -3
0 3 4 -3 2 -4 -3 -2
-3 2 2 -4 1 -5 -5 -3
-4 0 1 -5 -2 -7 -7 -5
-6 -3 -2 -6 -3 -8 -8 -6
-7 -5 -3 -7 -4 -9 -10 -7
-7 -5 -4 -8 -5 -9 -11 -7
-5 -3 -2 -7 -3 -7 -9 -6
-3 1 0 -5 0 -5 -8 -4
0 3 2 -4 1 -3 -6 -2
2 5 3 -3 3 0 -5 1
4 8 4 -2 4 1 -3 2
6 10 5 1 6 3 -2 3
9 12 6 3 7 5 1 5
11 14 6 4 9 6 3 6
13 17 7 6 10 8 5 7
15 17 8 7 11 9 6 8
13 15 7 7 11 8 5 7
12 13 5 6 10 7 4 6
11 11 4 5 9 7 4 5
9 9 3 5 9 6 3 4
8 8 2 4 8 5 2 3
8 7 2 3 8 5 2 3
7 6 2 2 7 4 2 4
6 5 2 2 6 3 2 4
6 4 2 1 6 3 2 4
5 3 1 0 5 2 2 5
5 3 1 0 5 2 1 3
5 3 1 0 5 1 0 2
5 3 1 0 5 1 -2 1
5 3 1 0 5 1 -3 -2
3 3 0 -2 4 0 -4 -3
-3 1 0 -2 3 -2 -5 -4
-7 -3 0 -2 1 -3 -6 -5
-12 -5 0 -2 0 -4 -6 -5
-16 -7 0 -2 -2 -5 -7 -6
-19 -9 1 -2 -3 -6 -8 -7
-19 -9 1 -2 -3 -6 -8 -7
-18 -10 1 -3 -3 -6 -8 -7
-17 -11 1 -4 -3 -6 -8 -7
-17 -11 1 -4 -3 -6 -8 -7
-15 -12 0 -5 -3 -5 -8 -7
-13 -10 0 -5 -3 -5 -8 -7
-11 -9 -2 -4 -2 -4 -7 -6
-9 -8 -3 -4 0 -4 -7 -6
-7 -6 -3 -4 0 -4 -7 -6
-7 -5 -4 -3 1 -3 -6 -5
-9 -7 -4 -2 1 -3 -6 -5
-11 -8 -4 0 2 -2 -6 -6
-13 -9 -4 0 3 0 -6 -7
-15 -11 -4 1 3 0 -6 -7
-19 -10 10 6 4 1 -7 -8
-25 -7 32 15 4 -2 -9 -9
-32 -3 56 23 3 -4 -12 -11
-38 2 79 32 3 -6 -14 -12
-46 6 102 42 3 -8 -16 -13
-49 15 137 74 17 2 -11 -11
-51 28 180 128 48 21 3 -4
-52 42 224 182 78 40 16 4
-53 55 267 236 108 60 29 11
-55 68 311 289 139 80 43 18
-36 88 311 335 191 125 79 44
2 112 273 372 262 190 136 85
39 137 235 410 334 256 192 126
77 161 196 448 404 321 250 168
114 185 158 485 476 387 306 209
133 181 104 438 459 381 308 214
134 148 36 313 360 310 261 186
135 115 -31 188 263 239 214 158
135 82 -99 63 165 170 165 131
136 50 -166 -62 67 99 118 103
133 31 -205 -137 4 51 84 81
125 24 -219 -166 -30 23 59 66
116 17 -232 -196 -64 -5 35 51
108 10 -245 -226 -98 -32 11 34
99 3 -258 -257 -132 -60 -13 19
89 -4 -259 -264 -147 -74 -28 8
76 -8 -246 -248 -144 -76 -34 0
64 -12 -233 -233 -140 -79 -41 -8
52 -16 -221 -218 -137 -82 -48 -16
38 -20 -207 -203 -134 -85 -54 -23
29 -25 -192 -187 -128 -85 -58 -28
24 -31 -175 -170 -117 -80 -58 -30
18 -37 -156 -153 -107 -75 -58 -33
12 -43 -139 -136 -98 -70 -58 -35
6 -49 -120 -119 -88 -66 -58 -37
3 -49 -104 -103 -77 -60 -55 -37
5 -40 -88 -87 -67 -52 -49 -33
7 -33 -72 -71 -56 -45 -43 -29
9 -25 -56 -56 -46 -36 -36 -25
11 -18 -40 -40 -35 -29 -30 -21
12 -13 -30 -30 -28 -25 -27 -19
12 -11 -26 -26 -26 -23 -25 -18
13 -9 -22 -21 -23 -21 -23 -17
13 -7 -18 -17 -21 -19 -22 -16
13 -5 -14 -13 -19 -17 -20 -15
14 -4 -11 -9 -17 -16 -19 -14
13 -3 -8 -7 -15 -14 -19 -14
11 0 -5 -4 -13 -12 -18 -14
10 1 -2 -2 -11 -11 -17 -14
9 2 2 1 -9 -9 -17 -14
8 3 4 3 -8 -8 -16 -14
8 2 4 3 -8 -8 -16 -14
7 1 4 3 -7 -8 -15 -13
7 0 4 3 -7 -8 -14 -13
7 -2 4 3 -7 -8 -14 -13
6 -3 3 4 -6 -9 -13 -12
6 -3 3 4 -6 -9 -13 -12
6 -3 4 5 -6 -9 -13 -12
6 -4 5 6 -6 -9 -13 -11
6 -4 5 6 -6 -9 -13 -11
7 -5 6 7 -5 -8 -13 -10
7 -5 6 7 -6 -8 -13 -10
7 -6 6 7 -6 -8 -12 -10
6 -7 6 7 -7 -7 -11 -11
6 -7 6 7 -8 -7 -11 -11
6 -7 7 6 -9 -6 -10 -12
9 -3 9 8 -7 -5 -10 -12
11 1 11 10 -5 -4 -10 -12
14 5 13 12 -3 -2 -10 -12
17 9 15 14 0 0 -10 -12
18 9 16 16 0 0 -11 -13
14 4 14 14 -3 -4 -13 -13
11 0 12 12 -5 -6 -15 -14
7 -6 10 10 -7 -9 -17 -15
3 -11 8 8 -9 -12 -19 -15
2 -13 6 7 -11 -14 -21 -16
6 -9 6 8 -10 -13 -19 -16
9 -6 7 9 -9 -12 -18 -16
12 -2 8 11 -8 -10 -17 -15
16 3 8 12 -7 -9 -15 -15
18 5 9 13 -6 -8 -14 -14
17 3 9 12 -7 -9 -16 -15
17 1 9 11 -8 -10 -17 -15
16 -2 9 10 -9 -12 -19 -16
15 -4 9 9 -10 -13 -21 -17
15 -3 9 8 -11 -14 -22 -18
19 2 10 10 -9 -12 -20 -16
23 6 11 11 -7 -10 -18 -15
27 11 13 12 -5 -8 -16 -13
30 15 14 14 -3 -6 -14 -11
33 18 15 15 -2 -4 -12 -10
31 16 14 15 -2 -4 -12 -10
30 15 14 14 -3 -4 -12 -10
29 13 13 13 -4 -5 -12 -11
27 11 12 13 -4 -5 -12 -11
26 10 11 12 -5 -6 -13 -12
27 10 12 12 -5 -6 -13 -12
28 10 12 12 -5 -6 -13 -12
29 10 13 12 -6 -7 -13 -12
30 10 14 12 -6 -7 -13 -12
31 11 16 11 -7 -8 -14 -12
31 11 18 11 -7 -8 -14 -12
32 11 20 11 -6 -8 -14 -12
33 11 22 11 -5 -7 -14 -12
33 11 24 11 -5 -7 -14 -12
34 12 26 12 -4 -6 -14 -11
32 11 26 12 -4 -6 -14 -12
31 10 25 12 -5 -6 -15 -12
30 8 24 12 -6 -7 -16 -13
28 7 24 12 -6 -7 -16 -14
28 6 23 11 -7 -8 -17 -15
30 7 23 11 -7 -7 -16 -14
32 8 24 12 -6 -6 -15 -13
34 9 25 13 -5 -5 -13 -11
36 10 25 13 -5 -4 -12 -10
38 10 25 14 -4 -3 -11 -9
35 7 23 12 -6 -5 -13 -11
33 4 21 10 -8 -7 -14 -13
31 1 18 8 -10 -9 -16 -15
29 -3 16 6 -12 -11 -18 -17
27 -5 14 5 -14 -12 -19 -18
30 -2 16 7 -12 -10 -17 -16
32 1 17 8 -11 -9 -16 -15
34 3 18 9 -9 -8 -15 -14
36 5 20 11 -7 -6 -13 -12
38 7 21 12 -6 -5 -12 -11
40 7 21 12 -5 -3 -10 -8
42 7 21 12 -5 -2 -8 -6
43 7 20 12 -4 1 -6 -4
45 7 20 12 -3 3 -5 -2
45 7 18 12 -2 4 -3 1
40 4 15 9 -4 2 -5 -2
36 2 12 7 -5 1 -6 -3
32 -2 9 5 -6 -2 -7 -5
29 -5 6 3 -8 -4 -9 -7
27 -7 3 1 -9 -5 -10 -8
30 -5 1 1 -8 -3 -8 -6
32 -3 -2 1 -7 -2 -6 -4
35 0 -5 1 -6 1 -4 -2
38 2 -7 1 -5 3 -2 1
42 4 -9 0 -4 4 1 3
45 6 -11 -3 -4 4 3 4
48 8 -12 -4 -4 5 4 5
51 10 -14 -5 -4 6 5 6
54 12 -16 -7 -4 6 7 7
56 14 -17 -8 -3 7 8 8
56 14 -18 -10 -3 8 9 9
57 14 -19 -11 -3 9 10 10
58 15 -21 -13 -3 11 11 12
58 15 -22 -15 -3 12 12 13
59 16 -23 -16 -2 13 13 14
59 16 -24 -18 -2 13 14 15
59 17 -25 -19 -2 13 14 16
59 18 -26 -21 -3 13 15 17
59 18 -27 -23 -3 13 16 18
59 19 -28 -24 -4 14 17 19
58 18 -28 -24 -3 14 17 19
57 18 -29 -24 -3 15 17 19
55 17 -30 -24 -2 16 18 19
54 16 -30 -24 0 16 18 19
53 16 -31 -24 1 17 19 18
55 19 -30 -21 4 18 20 19
57 22 -30 -19 6 20 20 20
59 25 -29 -17 8 21 21 21
60 28 -28 -15 10 23 22 22
60 29 -26 -13 12 24 23 23
55 25 -24 -13 11 23 21 21
49 21 -21 -12 11 22 19 20
44 18 -19 -11 10 20 17 18
38 14 -16 -11 9 19 16 16
35 12 -13 -9 8 18 14 15
37 15 -9 -5 11 19 15 15
40 18 -4 0 13 20 16 15
44 21 1 3 15 22 17 16
47 25 5 7 17 23 18 16
49 27 8 10 19 24 19 17
49 27 10 10 19 23 17 15
48 27 11 10 19 21 16 14
47 27 13 11 19 20 14 12
47 27 15 11 19 18 12 10
46 28 16 12 19 17 11 9
45 27 16 12 18 16 10 8
44 27 17 12 17 15 8 7
43 26 18 12 16 14 7 5
42 25 18 12 15 13 5 4
39 23 19 11 14 12 4 3
36 20 19 11 13 11 3 2
33 17 19 10 11 10 2 1
30 14 18 9 10 9 0 0
27 10 18 9 8 8 -2 -2
23 6 17 7 6 6 -4 -4
18 0 15 4 2 3 -6 -7
12 -6 13 1 -2 0 -9 -10
7 -12 11 -3 -6 -4 -12 -13
1 -18 9 -6 -9 -8 -15 -16
-4 -22 7 -8 -12 -10 -17 -18
0 -20 7 -7 -11 -8 -16 -18
2 -18 7 -6 -10 -7 -14 -18
4 -16 8 -4 -8 -5 -13 -18
6 -14 8 -3 -7 -3 -11 -18
8 -12 9 -2 -6 -2 -10 -17
11 -9 10 -2 -6 -2 -10 -16
13 -6 12 -2 -6 -2 -10 -14
16 -4 13 0 -6 -2 -9 -13
18 0 15 0 -6 -2 -9 -11
20 2 16 1 -5 -2 -8 -10
20 1 16 1 -5 -2 -8 -10
20 0 16 0 -6 -2 -8 -10
20 -3 15 -2 -7 -3 -9 -11
20 -4 15 -2 -7 -3 -9 -11
19 -5 14 -3 -8 -4 -10 -12
22 -2 15 -3 -8 -4 -9 -11
24 2 15 -2 -7 -3 -8 -10
26 4 16 0 -6 -2 -6 -9
28 7 17 0 -6 -2 -5 -8
29 8 18 1 -5 0 -5 -7
24 3 16 0 -7 -3 -8 -10
19 -3 14 -3 -9 -5 -11 -12
14 -8 12 -4 -11 -7 -14 -15
9 -12 11 -6 -12 -9 -17 -17
5 -16 9 -7 -14 -11 -19 -19
3 -17 9 -7 -14 -11 -19 -19
1 -17 9 -7 -14 -12 -20 -19
-2 -18 9 -7 -15 -13 -21 -20
-4 -19 9 -7 -15 -13 -21 -20
-6 -20 10 -7 -16 -14 -22 -21
-6 -21 10 -7 -16 -14 -22 -21
-6 -22 10 -7 -16 -14 -22 -21
-7 -24 9 -6 -16 -15 -22 -21
-7 -25 9 -6 -16 -15 -22 -21
-9 -28 8 -5 -16 -16 -23 -22
-14 -33 8 -6 -17 -17 -24 -24
-19 -39 8 -6 -19 -18 -25 -25
-24 -45 8 -7 -20 -20 -27 -27
-29 -51 8 -8 -22 -21 -28 -28
-31 -54 8 -9 -23 -22 -29 -30
-25 -48 9 -7 -20 -20 -27 -28
-19 -41 11 -4 -18 -18 -25 -26
-13 -36 12 -2 -15 -16 -23 -24
-7 -30 14 1 -13 -14 -21 -23
-3 -26 15 3 -11 -12 -19 -21
-5 -28 14 2 -12 -13 -20 -22
-7 -29 12 1 -13 -13 -20 -22
-9 -31 11 0 -14 -14 -21 -23
-10 -32 9 -2 -15 -15 -22 -24
-12 -34 8 -3 -16 -16 -23 -25
-15 -37 7 -4 -17 -17 -24 -25
-18 -40 5 -4 -18 -17 -25 -25
-21 -43 4 -5 -19 -18 -26 -26
-24 -46 2 -6 -20 -19 -27 -26
-25 -47 1 -7 -21 -20 -28 -27
-21 -43 3 -6 -19 -19 -26 -26
-17 -39 4 -5 -18 -18 -24 -25
-13 -35 6 -4 -16 -16 -22 -23
-9 -31 7 -3 -15 -15 -21 -22
-6 -28 9 -2 -13 -14 -19 -21
-9 -29 8 -2 -13 -14 -19 -21
-11 -29 7 -2 -13 -13 -19 -21
-14 -30 6 -2 -13 -12 -18 -21
-16 -31 5 -2 -13 -12 -18 -21
-18 -32 4 0 -13 -11 -17 -20
-16 -32 4 -2 -13 -12 -18 -21
-14 -32 4 -2 -14 -13 -20 -22
-12 -32 3 -3 -15 -14 -21 -24
-11 -32 3 -4 -15 -15 -23 -25
-9 -32 2 -5 -16 -16 -24 -26
-7 -29 4 -4 -15 -15 -23 -25
-6 -26 5 -3 -14 -14 -23 -23
-4 -23 7 -2 -13 -13 -22 -22
-3 -20 8 0 -12 -11 -21 -20
0 -18 10 1 -11 -10 -20 -19
-4 -21 9 0 -12 -12 -21 -20
-6 -24 9 -2 -14 -13 -22 -20
-8 -26 8 -3 -15 -15 -23 -21
-11 -29 7 -5 -17 -16 -24 -22
-13 -31 6 -6 -18 -18 -25 -23
-13 -31 6 -6 -18 -18 -25 -23
-13 -32 6 -6 -18 -18 -25 -23
-13 -32 6 -7 -18 -18 -25 -23
-13 -33 6 -7 -18 -18 -25 -23
-12 -32 5 -8 -18 -18 -26 -23
-4 -24 7 -6 -15 -15 -23 -20
4 -17 10 -3 -13 -12 -20 -18
12 -9 12 0 -11 -10 -18 -16
19 -2 14 2 -8 -7 -15 -13
24 4 16 4 -6 -5 -13 -11
20 1 14 3 -7 -6 -14 -11
16 -4 13 1 -8 -7 -14 -12
12 -7 11 0 -9 -8 -15 -12
7 -11 10 -3 -10 -9 -16 -13
4 -14 8 -4 -11 -10 -17 -14
5 -13 9 -3 -11 -9 -16 -14
6 -13 10 -3 -10 -9 -15 -14
7 -12 11 -2 -10 -8 -14 -13
9 -11 12 0 -9 -7 -13 -13
10 -10 13 1 -8 -6 -12 -12
12 -9 12 1 -8 -6 -12 -12
13 -7 11 0 -8 -7 -13 -12
15 -6 10 0 -9 -7 -13 -12
16 -4 9 -2 -9 -8 -14 -12
18 -3 8 -3 -10 -9 -15 -13
19 -3 8 -3 -9 -8 -15 -13
21 -3 7 -3 -9 -7 -14 -13
22 -4 7 -4 -8 -6 -14 -13
24 -4 6 -4 -7 -5 -13 -13
25 -5 5 -5 -6 -4 -12 -14
22 -8 4 -6 -8 -6 -13 -14
19 -10 4 -6 -10 -8 -15 -15
16 -13 3 -7 -11 -9 -16 -15
13 -16 2 -8 -13 -11 -18 -16
11 -18 1 -9 -15 -13 -19 -17
9 -19 1 -9 -15 -13 -19 -17
7 -20 1 -10 -16 -14 -20 -18
5 -21 0 -10 -16 -14 -20 -18
3 -22 0 -11 -17 -15 -21 -19
1 -23 -2 -12 -18 -16 -22 -20
4 -20 0 -11 -17 -16 -21 -18
7 -18 1 -10 -16 -15 -21 -16
10 -16 2 -9 -15 -15 -20 -15
13 -13 4 -8 -14 -14 -19 -13
16 -10 5 -7 -13 -13 -18 -11
21 -5 5 -6 -12 -11 -17 -11
26 1 6 -5 -10 -10 -15 -11
31 6 6 -4 -9 -8 -14 -10
36 11 7 -3 -8 -7 -13 -10
40 15 8 -2 -6 -5 -11 -9
36 12 7 -3 -7 -5 -11 -9
33 9 7 -4 -7 -6 -11 -9
29 6 6 -5 -8 -6 -12 -10
26 3 5 -6 -9 -7 -12 -10
23 0 4 -7 -10 -8 -13 -11
26 4 5 -7 -10 -8 -12 -10
29 7 5 -6 -9 -7 -12 -10
32 10 6 -6 -9 -7 -11 -9
35 13 7 -5 -8 -6 -10 -8
38 16 8 -4 -7 -5 -9 -7
36 15 7 -4 -7 -5 -9 -7
33 13 7 -5 -7 -6 -10 -8
31 12 6 -5 -8 -6 -10 -8
29 11 5 -6 -8 -7 -11 -9
27 8 4 -7 -9 -8 -12 -10
23 5 3 -8 -10 -8 -12 -10
20 1 2 -8 -10 -9 -13 -11
17 -4 1 -9 -11 -9 -13 -11
14 -8 0 -10 -12 -10 -14 -12
11 -11 -2 -11 -13 -11 -15 -13
11 -11 -2 -11 -13 -11 -15 -13
10 -11 -2 -11 -13 -11 -15 -13
10 -11 -2 -11 -13 -11 -15 -13
9 -11 -2 -11 -13 -11 -15 -13
8 -10 -2 -12 -14 -12 -15 -14
10 -7 0 -10 -12 -11 -14 -13
12 -3 1 -9 -11 -9 -13 -11
15 2 2 -7 -9 -8 -12 -10
17 6 3 -6 -8 -7 -10 -9
19 9 4 -4 -6 -5 -9 -7
21 11 5 -3 -5 -4 -8 -7
23 13 6 -2 -4 -3 -8 -7
24 14 7 0 -3 -2 -7 -7
26 16 9 1 0 0 -6 -7
28 18 10 2 1 1 -5 -6
25 16 9 1 0 1 -5 -6
23 15 7 -2 0 0 -5 -6
20 13 6 -3 -2 0 -5 -6
17 12 5 -4 -3 -2 -5 -6
15 10 3 -6 -4 -3 -5 -6
16 10 2 -6 -4 -3 -5 -6
17 10 2 -6 -4 -3 -5 -6
18 10 1 -7 -4 -3 -5 -5
19 10 0 -7 -4 -3 -5 -5
20 9 -2 -8 -5 -3 -5 -4
20 9 -2 -8 -5 -3 -5 -4
20 10 -2 -8 -5 -3 -5 -4
20 11 -2 -8 -5 -3 -4 -4
20 12 -2 -8 -5 -3 -4 -4
20 13 0 -7 -6 -4 -3 -5
18 11 0 -6 -5 -3 -3 -5
15 9 0 -4 -4 -2 -2 -4
13 8 1 -3 -3 0 0 -4
10 6 1 -2 0 1 1 -3
8 4 2 1 1 2 2 -2
5 1 1 0 0 2 2 -3
3 -3 -2 -3 -2 1 1 -4
0 -6 -3 -5 -3 0 0 -5
-4 -9 -4 -6 -4 -2 -2 -6
-5 -11 -6 -8 -5 -3 -3 -7
1 -5 -5 -6 -3 -2 -2 -5
6 1 -3 -4 0 1 1 -3
11 7 -2 -3 1 3 3 -2
16 13 0 0 3 4 4 1
20 18 2 2 5 6 6 3
17 14 1 1 4 5 5 2
13 10 0 -2 2 4 4 1
10 7 -2 -4 1 3 3 0
7 3 -4 -5 0 1 2 -3
4 0 -5 -7 -3 0 1 -4
4 1 -3 -5 -3 0 1 -4
3 3 0 -3 -2 1 1 -4
3 4 2 -2 0 1 1 -4
2 5 4 1 1 2 1 -4
1 7 6 3 2 3 2 -3
1 7 6 2 1 3 2 -3
2 7 5 1 0 2 2 -4
3 8 4 0 -2 1 1 -4
4 8 3 -3 -3 0 1 -5
5 9 2 -4 -4 -2 0 -6
4 10 3 -3 -3 0 1 -4
2 11 5 0 0 1 3 -3
1 12 6 1 1 2 5 0
0 13 7 2 2 3 6 2
-3 14 9 4 4 4 8 4
-3 12 9 4 4 4 8 3
-3 10 8 4 3 4 8 1
-4 8 7 3 3 4 8 -2
-4 6 6 3 2 4 8 -3
-6 4 7 2 1 4 7 -5
-13 4 18 5 1 0 2 -7
-20 5 29 8 0 -5 -4 -10
-27 6 40 11 -2 -9 -9 -12
-34 7 53 14 -3 -13 -14 -15
-41 9 72 27 0 -16 -17 -17
-50 17 127 77 14 -6 -12 -16
-58 25 181 129 29 4 -6 -14
-66 33 234 179 45 14 0 -13
-74 42 288 230 60 23 6 -12
-75 53 327 282 89 46 22 -2
-43 73 303 341 170 116 82 42
-11 95 278 398 251 187 143 85
22 115 254 456 332 259 202 128
54 137 230 514 413 329 263 171
81 149 194 537 465 377 305 202
90 122 117 418 388 321 269 182
99 96 39 299 311 267 233 162
107 69 -37 179 234 212 198 142
115 43 -115 59 158 157 162 122
121 20 -181 -47 87 105 129 103
112 15 -200 -97 34 67 98 86
103 10 -220 -147 -18 28 68 67
94 4 -239 -198 -70 -10 37 50
85 -2 -258 -248 -122 -48 7 32
76 -7 -272 -288 -165 -79 -18 16
71 -10 -260 -279 -161 -81 -24 10
66 -12 -247 -270 -158 -85 -29 3
61 -15 -235 -261 -154 -87 -34 -5
56 -17 -223 -252 -150 -90 -39 -11
50 -21 -210 -239 -146 -92 -45 -17
44 -28 -193 -218 -138 -90 -48 -21
36 -34 -176 -196 -130 -87 -50 -26
29 -41 -158 -174 -122 -85 -53 -30
23 -49 -141 -152 -114 -81 -55 -34
17 -55 -124 -132 -105 -78 -58 -38
17 -51 -108 -116 -94 -71 -52 -36
16 -48 -92 -100 -82 -63 -47 -35
15 -44 -75 -85 -72 -56 -41 -33
14 -39 -59 -69 -61 -49 -36 -31
13 -36 -44 -55 -51 -41 -31 -29
9 -33 -36 -49 -47 -38 -29 -27
6 -30 -30 -43 -43 -35 -26 -24
3 -27 -23 -35 -38 -31 -24 -22
-2 -24 -16 -29 -34 -28 -21 -19
-5 -21 -10 -23 -30 -25 -19 -17
-6 -25 -9 -22 -30 -26 -19 -18
-7 -28 -7 -21 -30 -27 -20 -19
-8 -32 -6 -20 -30 -28 -21 -20
-9 -36 -5 -19 -30 -29 -22 -22
-10 -39 -3 -18 -31 -30 -23 -23
-10 -38 -2 -17 -31 -30 -23 -23
-9 -37 0 -16 -30 -29 -22 -23
-9 -36 1 -15 -30 -29 -21 -22
-8 -35 2 -13 -29 -28 -20 -22
-7 -34 3 -12 -28 -27 -19 -21
-7 -33 4 -12 -28 -27 -19 -21
-7 -31 6 -11 -28 -26 -19 -21
-7 -30 7 -11 -28 -26 -19 -21
-7 -29 8 -10 -28 -25 -19 -21
-6 -27 10 -9 -27 -24 -19 -22
-6 -28 10 -9 -27 -24 -19 -22
-6 -30 10 -9 -27 -24 -19 -22
-5 -32 10 -8 -27 -25 -19 -22
-5 -33 10 -8 -27 -25 -19 -22
-4 -35 9 -7 -27 -26 -20 -22
-3 -36 9 -7 -28 -26 -20 -22
0 -38 9 -7 -29 -27 -20 -22
1 -40 9 -6 -30 -27 -20 -22
2 -41 9 -6 -31 -28 -20 -22
4 -44 9 -5 -32 -29 -20 -21
6 -44 9 -5 -33 -29 -20 -21
8 -43 8 -5 -34 -30 -21 -21
10 -43 7 -5 -35 -31 -21 -22
13 -41 6 -5 -36 -32 -22 -22
15 -40 5 -4 -37 -33 -23 -23
13 -40 5 -4 -37 -33 -23 -23
11 -40 5 -5 -37 -33 -23 -23
9 -41 5 -6 -36 -33 -23 -24
6 -41 5 -7 -36 -33 -23 -24
4 -43 6 -8 -35 -32 -22 -25
3 -43 6 -8 -35 -32 -22 -25
2 -43 6 -8 -35 -32 -22 -25
1 -43 6 -9 -35 -32 -22 -25
0 -43 6 -9 -35 -32 -22 -25
-3 -41 7 -10 -34 -32 -22 -25
-3 -43 7 -10 -34 -32 -22 -25
-3 -44 7 -10 -34 -32 -22 -25
-3 -45 7 -10 -34 -32 -22 -25
-3 -46 7 -10 -34 -32 -22 -25
-3 -47 8 -9 -35 -33 -22 -26
-3 -47 8 -9 -35 -33 -22 -26
-3 -47 8 -9 -35 -33 -22 -26
-3 -47 7 -10 -35 -33 -22 -26
-3 -47 7 -10 -35 -33 -22 -26
-4 -47 6 -11 -34 -33 -23 -27
-4 -47 6 -11 -34 -33 -23 -27
-5 -47 6 -11 -34 -33 -23 -27
-5 -47 6 -11 -34 -33 -22 -26
-6 -47 6 -11 -34 -33 -22 -26
-7 -46 6 -11 -33 -32 -21 -25
-8 -46 6 -11 -33 -32 -21 -25
-10 -47 6 -11 -33 -32 -21 -25
-12 -47 6 -12 -32 -32 -21 -25
-13 -48 6 -12 -32 -32 -21 -25
-15 -49 6 -13 -31 -31 -21 -24
-15 -49 6 -13 -31 -31 -21 -24
-15 -49 6 -13 -31 -31 -21 -24
-16 -50 5 -14 -31 -31 -21 -24
-16 -50 5 -14 -31 -31 -21 -24
-17 -51 4 -15 -32 -30 -21 -24
-17 -51 4 -15 -32 -30 -21 -24
-17 -51 4 -15 -32 -30 -21 -24
-17 -50 4 -14 -31 -30 -21 -24
-17 -50 4 -14 -31 -30 -21 -24
-16 -49 3 -13 -30 -30 -21 -24
-16 -49 3 -13 -30 -30 -21 -24
-17 -50 3 -13 -30 -30 -20 -24
-18 -50 3 -13 -30 -29 -20 -23
-19 -51 3 -13 -30 -29 -19 -23
-20 -52 4 -13 -29 -28 -18 -22
-20 -53 4 -13 -29 -28 -18 -22
-21 -54 3 -13 -29 -28 -18 -22
-22 -55 3 -14 -29 -28 -18 -22
-23 -56 2 -14 -29 -28 -18 -22
-24 -57 1 -15 -29 -28 -18 -21
-22 -55 1 -15 -29 -28 -18 -21
-19 -54 1 -14 -28 -27 -17 -21
-17 -52 1 -14 -28 -27 -17 -20
-15 -50 1 -13 -27 -26 -16 -20
-12 -48 0 -12 -26 -25 -15 -19
-12 -48 -4 -13 -26 -25 -15 -18
-12 -48 -7 -14 -26 -24 -14 -17
-12 -48 -10 -15 -25 -24 -13 -16
-12 -48 -13 -16 -25 -23 -12 -15
-11 -47 -16 -18 -24 -22 -11 -14
-11 -47 -17 -18 -24 -21 -10 -13
-10 -47 -18 -18 -24 -20 -8 -12
-9 -47 -19 -19 -23 -19 -6 -10
-8 -47 -20 -19 -23 -18 -4 -9
-7 -46 -21 -20 -22 -17 -2 -7
-6 -45 -23 -20 -22 -16 -2 -6
-5 -44 -26 -21 -21 -15 0 -5
-4 -43 -28 -21 -21 -14 1 -4
-3 -41 -30 -22 -20 -13 2 -3
-2 -39 -33 -23 -19 -11 3 0
-2 -39 -34 -25 -19 -11 3 0
-2 -38 -36 -27 -19 -10 4 1
0 -37 -38 -29 -19 -9 5 1
0 -36 -40 -31 -19 -8 6 2
1 -35 -43 -33 -19 -7 7 3
1 -35 -45 -35 -19 -7 7 3
1 -35 -48 -37 -19 -7 8 4
1 -36 -50 -39 -19 -6 8 5
1 -36 -52 -41 -19 -6 9 6
0 -37 -55 -44 -19 -5 10 7
0 -36 -55 -44 -19 -4 10 7
0 -35 -55 -44 -18 -3 11 7
1 -34 -56 -44 -17 -2 12 8
1 -33 -56 -44 -16 0 13 8
2 -32 -57 -44 -15 2 14 9
2 -32 -57 -44 -15 2 14 9
1 -32 -57 -43 -14 2 14 10
0 -32 -57 -41 -13 2 14 10
-2 -32 -57 -40 -12 2 14 11
-3 -32 -56 -39 -11 2 15 12
-3 -32 -53 -38 -10 2 15 12
-4 -32 -50 -36 -9 3 15 12
-5 -32 -47 -34 -8 4 15 11
-6 -32 -44 -32 -7 5 15 11
-7 -31 -40 -30 -5 6 15 10
-9 -31 -38 -30 -5 5 14 9
-11 -31 -36 -30 -5 4 13 8
-14 -32 -34 -29 -5 2 11 6
-16 -32 -32 -29 -5 1 10 5
-19 -33 -29 -28 -5 -2 8 3
-20 -33 -27 -26 -5 -2 7 2
-21 -32 -24 -24 -5 -2 6 1
-22 -32 -21 -22 -5 -2 5 -2
-23 -31 -18 -20 -5 -2 4 -3
-24 -30 -15 -17 -6 -3 3 -5
-24 -30 -14 -17 -6 -3 3 -5
-25 -30 -13 -17 -6 -3 3 -5
-25 -31 -12 -17 -6 -3 2 -5
-26 -31 -11 -17 -6 -3 2 -5
-27 -32 -10 -16 -5 -4 1 -5
-28 -32 -10 -16 -5 -4 1 -5
-29 -32 -10 -16 -6 -5 1 -6
-31 -33 -9 -16 -7 -5 0 -6
-32 -33 -9 -16 -8 -6 0 -7
-34 -34 -8 -16 -9 -7 -2 -8
-34 -34 -8 -16 -9 -7 -2 -8
-34 -34 -8 -16 -9 -8 -3 -8
-34 -34 -8 -16 -9 -8 -4 -9
-34 -34 -8 -16 -9 -9 -5 -9
-35 -35 -8 -17 -10 -10 -6 -10
-35 -35 -8 -17 -10 -10 -6 -10
-35 -35 -8 -17 -10 -10 -6 -10
-35 -35 -9 -18 -11 -10 -6 -10
-35 -35 -9 -18 -11 -10 -6 -10
-35 -36 -10 -19 -12 -11 -7 -11
-35 -36 -10 -19 -12 -11 -7 -11
-36 -37 -10 -20 -13 -12 -8 -11
-37 -38 -10 -21 -13 -12 -9 -12
-38 -39 -10 -22 -14 -13 -10 -12
-39 -40 -10 -23 -15 -14 -11 -13
-39 -41 -10 -23 -15 -14 -11 -13
-40 -43 -10 -23 -15 -14 -11 -13
-40 -44 -10 -23 -15 -14 -11 -13
-41 -45 -10 -23 -15 -14 -11 -13
-43 -46 -10 -23 -16 -15 -12 -14
-40 -44 -10 -23 -16 -15 -12 -14
-38 -41 -9 -22 -16 -14 -11 -13
-36 -39 -8 -22 -15 -14 -11 -12
-34 -37 -7 -21 -15 -13 -10 -11
-31 -34 -6 -20 -14 -12 -9 -10
-31 -34 -6 -20 -14 -12 -9 -10
-32 -34 -6 -20 -14 -12 -9 -10
-32 -34 -6 -20 -14 -12 -9 -11
-33 -34 -6 -20 -14 -12 -9 -11
-34 -35 -6 -19 -14 -13 -10 -12
-34 -35 -6 -19 -14 -13 -10 -12
-34 -36 -5 -19 -14 -13 -10 -12
-34 -36 -4 -19 -14 -13 -10 -12
-34 -37 -3 -19 -14 -13 -10 -12
-34 -38 -2 -18 -15 -13 -11 -13
-34 -38 -2 -18 -14 -13 -11 -13
-34 -38 -2 -17 -13 -13 -11 -13
-34 -38 -2 -16 -12 -13 -11 -13
-34 -38 -2 -15 -11 -13 -11 -13
-33 -37 0 -14 -10 -12 -10 -13
-33 -37 0 -14 -10 -12 -10 -13
-33 -37 -2 -14 -10 -12 -10 -13
-33 -36 -3 -14 -11 -11 -10 -12
-33 -36 -4 -14 -11 -11 -10 -12
-34 -35 -5 -14 -12 -10 -10 -11
-34 -35 -4 -14 -12 -10 -10 -11
-34 -35 -3 -13 -12 -10 -10 -11
-34 -35 -2 -13 -11 -10 -10 -11
-34 -35 0 -12 -11 -10 -10 -11
