I II V1 V2 V3 V4 V5 V6
-17 -19 8 -17 3 -3 -10 -13
-17 -19 8 -17 3 -3 -10 -13
-17 -19 8 -17 3 -3 -10 -13
-17 -19 8 -17 3 -3 -10 -13
-17 -19 8 -17 3 -3 -10 -13
-17 -19 8 -17 3 -3 -10 -13
-18 -19 7 -18 4 -4 -9 -13
-18 -18 7 -19 3 -5 -10 -13
-18 -18 7 -19 2 -6 -10 -13
-18 -17 7 -20 1 -7 -11 -13
-18 -17 7 -20 1 -7 -11 -13
-18 -16 6 -21 0 -8 -12 -13
-18 -16 6 -21 0 -8 -12 -13
-18 -16 6 -21 0 -9 -12 -14
-18 -16 6 -21 0 -9 -12 -14
-18 -16 6 -21 0 -9 -12 -14
-18 -17 5 -22 0 -10 -13 -15
-18 -17 5 -22 0 -10 -13 -15
-18 -17 5 -22 0 -10 -13 -15
-18 -17 5 -22 0 -10 -13 -15
-18 -17 5 -22 0 -10 -13 -15
-18 -17 5 -23 -2 -11 -14 -15
-18 -17 5 -23 -2 -11 -14 -15
-18 -17 5 -24 -2 -11 -14 -15
-18 -17 5 -24 -2 -11 -14 -15
-18 -17 5 -24 -2 -11 -14 -15
-17 -17 4 -25 -3 -12 -14 -14
-17 -17 4 -25 -4 -12 -14 -14
-17 -17 4 -25 -4 -12 -14 -15
-17 -17 4 -25 -5 -12 -14 -15
-17 -17 4 -25 -5 -12 -14 -15
-17 -17 3 -26 -6 -13 -15 -16
-17 -17 3 -26 -6 -13 -15 -16
-17 -17 3 -25 -6 -13 -15 -16
-17 -17 3 -25 -6 -13 -15 -16
-17 -17 3 -25 -6 -13 -15 -16
-18 -17 3 -24 -5 -13 -15 -15
-18 -17 3 -24 -5 -13 -15 -15
-18 -17 3 -24 -6 -13 -15 -15
-18 -17 3 -24 -6 -13 -15 -15
-18 -17 3 -24 -6 -13 -15 -15
-17 -18 4 -24 -7 -14 -16 -16
-17 -18 4 -24 -7 -14 -16 -16
-16 -18 4 -24 -7 -14 -16 -16
-16 -18 4 -24 -7 -14 -16 -16
-16 -18 4 -24 -7 -14 -16 -16
-15 -17 4 -25 -7 -13 -15 -15
-16 -17 4 -25 -7 -13 -15 -15
-16 -17 4 -25 -7 -13 -15 -15
-17 -17 4 -25 -7 -13 -15 -15
-17 -17 4 -25 -7 -13 -15 -15
-18 -16 4 -25 -7 -13 -15 -14
-18 -16 4 -25 -7 -13 -15 -14
-18 -16 4 -25 -7 -13 -15 -14
-18 -16 4 -25 -7 -13 -15 -14
-18 -16 4 -25 -7 -13 -15 -14
-18 -17 3 -25 -7 -14 -16 -15
-18 -17 3 -25 -7 -14 -16 -15
-18 -17 3 -24 -7 -14 -16 -15
-18 -17 3 -24 -7 -14 -16 -15
-18 -17 3 -24 -7 -14 -16 -15
-17 -18 3 -23 -6 -14 -16 -15
-17 -18 3 -23 -6 -14 -16 -15
-17 -18 3 -23 -6 -14 -16 -15
-17 -18 3 -23 -6 -14 -16 -15
-17 -18 3 -23 -6 -14 -16 -15
-18 -18 3 -23 -7 -13 -15 -15
-18 -18 3 -23 -7 -13 -15 -15
-18 -18 3 -23 -7 -13 -15 -15
-18 -18 3 -23 -7 -13 -15 -15
-18 -18 3 -23 -7 -13 -15 -15
-18 -17 4 -23 -8 -14 -16 -16
-18 -17 4 -23 -8 -14 -16 -17
-18 -17 4 -24 -8 -14 -16 -17
-18 -17 4 -24 -8 -14 -16 -18
-18 -17 4 -24 -8 -14 -16 -18
-17 -16 3 -25 -8 -14 -16 -19
-17 -16 3 -25 -8 -14 -16 -19
-17 -16 3 -25 -8 -14 -16 -20
-17 -16 3 -25 -8 -14 -16 -20
-17 -16 3 -25 -8 -14 -16 -20
-18 -17 2 -24 -9 -14 -17 -21
-18 -17 2 -24 -9 -14 -17 -21
-18 -17 2 -24 -9 -14 -17 -20
-18 -17 2 -24 -9 -14 -17 -20
-18 -17 2 -24 -9 -14 -17 -20
-18 -16 2 -24 -8 -13 -16 -19
-18 -16 2 -24 -8 -13 -16 -19
-18 -16 2 -24 -8 -13 -16 -19
-18 -16 2 -24 -8 -13 -16 -19
-18 -16 2 -24 -8 -13 -16 -19
-18 -16 1 -23 -9 -14 -17 -20
-18 -16 1 -23 -9 -14 -17 -20
-17 -16 1 -24 -9 -14 -17 -20
-17 -16 1 -24 -9 -14 -17 -20
-17 -16 1 -24 -9 -14 -17 -20
-16 -15 1 -25 -8 -15 -18 -20
-16 -15 1 -25 -8 -15 -18 -20
-16 -15 1 -25 -8 -15 -18 -20
-16 -15 1 -25 -8 -15 -18 -20
-16 -15 1 -25 -8 -15 -18 -20
-16 -15 2 -24 -9 -14 -18 -19
-16 -15 2 -24 -9 -14 -18 -19
-16 -16 2 -24 -9 -14 -18 -19
-16 -16 2 -24 -9 -14 -18 -19
-16 -16 2 -24 -9 -14 -18 -19
-16 -17 3 -24 -8 -13 -17 -20
-16 -17 3 -24 -8 -13 -17 -20
-16 -16 3 -24 -8 -13 -17 -20
-16 -16 3 -24 -8 -13 -17 -20
-16 -16 3 -24 -8 -13 -17 -20
-16 -15 3 -23 -9 -14 -18 -19
-16 -15 3 -23 -9 -14 -18 -18
-16 -15 3 -23 -9 -14 -18 -18
-16 -15 3 -23 -9 -14 -18 -17
-16 -15 3 -23 -9 -14 -18 -17
-17 -16 3 -24 -9 -14 -17 -16
-17 -16 3 -24 -9 -14 -17 -16
-17 -16 3 -23 -9 -14 -17 -17
-17 -16 3 -23 -9 -14 -17 -17
-17 -16 3 -23 -9 -14 -17 -17
-17 -16 3 -22 -10 -14 -17 -17
-17 -15 3 -22 -10 -13 -17 -16
-16 -15 4 -21 -10 -13 -17 -15
-16 -14 4 -21 -10 -12 -17 -14
-16 -14 4 -21 -10 -12 -17 -13
-14 -12 5 -20 -9 -11 -17 -12
-13 -11 6 -19 -8 -10 -16 -11
-11 -9 7 -18 -7 -9 -16 -10
-10 -8 8 -17 -6 -8 -15 -9
-9 -7 8 -16 -6 -8 -15 -9
-8 -5 10 -14 -4 -6 -14 -8
-8 -4 12 -13 -2 -5 -13 -7
-8 -2 14 -12 0 -4 -12 -6
-8 0 16 -11 2 -3 -11 -5
-8 1 17 -10 3 -2 -10 -4
-7 2 18 -9 4 0 -9 -3
-7 2 18 -9 4 0 -9 -3
-6 2 17 -9 4 0 -9 -2
-6 2 17 -9 4 0 -9 -2
-6 2 17 -9 4 0 -9 -2
-4 3 15 -9 4 0 -9 0
-2 4 13 -9 4 1 -8 0
0 5 12 -10 4 1 -8 1
2 6 10 -10 4 2 -7 1
3 6 9 -10 4 2 -7 1
4 7 8 -11 4 3 -6 2
4 6 7 -12 4 2 -7 1
3 5 6 -12 3 1 -7 0
3 4 5 -13 3 0 -8 -2
3 4 5 -13 3 -2 -8 -2
2 2 4 -15 1 -3 -9 -3
1 1 3 -17 0 -4 -10 -4
1 0 2 -19 -3 -4 -11 -4
0 -2 1 -21 -4 -5 -12 -5
0 -3 0 -23 -5 -5 -13 -5
-2 -5 -2 -24 -7 -7 -15 -6
-3 -6 -2 -25 -8 -8 -16 -7
-3 -8 -2 -25 -9 -10 -17 -8
-4 -9 -2 -26 -10 -11 -18 -9
-4 -10 -2 -26 -11 -12 -19 -10
-6 -11 0 -27 -12 -13 -20 -11
-7 -12 0 -27 -12 -13 -20 -11
-8 -13 0 -27 -12 -13 -20 -11
-9 -14 0 -27 -12 -13 -20 -11
-10 -14 0 -27 -12 -13 -20 -11
-11 -15 0 -26 -11 -12 -20 -11
-12 -16 0 -27 -12 -13 -21 -11
-13 -16 -2 -27 -12 -14 -22 -12
-14 -17 -2 -28 -13 -15 -23 -12
-14 -17 -2 -28 -13 -16 -23 -12
-15 -18 -3 -29 -14 -17 -24 -13
-15 -18 -3 -29 -14 -17 -24 -13
-14 -18 -3 -29 -14 -17 -24 -14
-14 -18 -3 -29 -14 -17 -24 -14
-14 -18 -3 -29 -14 -17 -24 -14
-13 -18 -4 -29 -14 -16 -23 -15
-14 -18 -3 -28 -14 -16 -23 -15
-15 -18 -3 -28 -13 -16 -22 -15
-16 -18 -2 -27 -13 -16 -22 -15
-16 -18 -2 -27 -13 -16 -22 -15
-17 -19 0 -26 -12 -15 -21 -14
-17 -19 -2 -26 -12 -15 -21 -15
-17 -19 -2 -26 -13 -15 -22 -15
-17 -19 -3 -26 -13 -15 -22 -16
-17 -19 -3 -26 -13 -15 -22 -16
-16 -18 -4 -25 -14 -16 -23 -17
-16 -18 -3 -24 -13 -16 -23 -17
-16 -19 -2 -23 -12 -16 -23 -18
-16 -19 0 -22 -11 -16 -23 -18
-16 -19 1 -21 -11 -16 -23 -18
-17 -19 5 -14 -7 -13 -22 -19
-18 -18 9 -7 -3 -11 -21 -19
-18 -17 13 1 2 -9 -20 -18
-19 -15 17 8 6 -6 -19 -18
-19 -14 21 15 10 -4 -19 -18
-15 -9 25 24 18 4 -13 -13
-9 -3 29 32 26 12 -6 -8
-3 3 32 40 34 19 2 -3
4 9 36 50 44 27 9 3
11 15 40 58 52 34 16 8
30 35 36 61 65 53 33 23
53 60 29 63 79 72 53 39
74 84 23 65 94 92 71 57
97 108 16 66 108 111 91 74
119 133 10 68 122 131 109 92
133 146 -8 57 130 145 123 103
145 158 -27 43 135 158 136 113
156 171 -46 28 140 172 148 123
169 183 -65 13 145 185 160 134
181 195 -83 -2 150 198 173 144
167 176 -88 -12 134 180 155 130
147 149 -87 -21 112 153 131 109
127 122 -86 -29 91 127 106 88
106 96 -85 -38 69 100 81 67
87 69 -85 -48 48 73 57 47
68 53 -74 -50 32 55 42 34
50 38 -63 -51 19 39 28 23
32 23 -52 -52 6 23 15 13
14 9 -40 -53 -9 7 2 2
-4 -6 -29 -54 -22 -10 -12 -10
-8 -9 -25 -50 -23 -13 -15 -12
-8 -9 -21 -44 -19 -12 -14 -12
-8 -9 -17 -37 -16 -11 -13 -13
-8 -9 -14 -31 -13 -10 -12 -13
-8 -9 -10 -25 -9 -10 -12 -13
-8 -9 -9 -23 -9 -10 -12 -14
-10 -9 -9 -23 -10 -11 -13 -15
-11 -10 -8 -23 -11 -12 -15 -16
-12 -10 -8 -23 -13 -14 -17 -17
-13 -10 -8 -23 -14 -15 -18 -17
-14 -11 -7 -23 -15 -16 -19 -18
-14 -12 -7 -23 -15 -16 -19 -18
-15 -12 -7 -23 -15 -16 -19 -19
-15 -13 -7 -23 -15 -16 -19 -19
-15 -13 -7 -23 -15 -16 -19 -19
-16 -14 -7 -24 -16 -17 -19 -20
-16 -14 -7 -24 -16 -18 -19 -20
-16 -14 -6 -24 -16 -18 -19 -20
-16 -14 -6 -24 -16 -19 -19 -20
-16 -14 -6 -24 -16 -19 -19 -20
-17 -14 -5 -24 -16 -20 -20 -21
-17 -14 -5 -24 -16 -20 -20 -20
-16 -14 -6 -24 -16 -20 -20 -19
-16 -14 -6 -24 -16 -20 -20 -18
-16 -14 -6 -24 -16 -20 -20 -17
-15 -13 -7 -24 -16 -19 -20 -16
-15 -13 -7 -23 -16 -19 -20 -16
-15 -13 -7 -22 -16 -19 -20 -16
-15 -13 -7 -21 -16 -19 -20 -16
-15 -13 -7 -21 -16 -19 -20 -16
-16 -12 -6 -20 -16 -20 -20 -16
-16 -12 -6 -20 -16 -20 -20 -16
-15 -12 -6 -20 -16 -19 -19 -15
-15 -12 -6 -20 -16 -19 -19 -15
-15 -12 -6 -20 -16 -19 -19 -15
-14 -13 -6 -21 -15 -18 -18 -14
-14 -13 -6 -20 -15 -18 -18 -14
-14 -13 -6 -19 -15 -18 -18 -14
-14 -13 -6 -18 -15 -18 -18 -14
-14 -13 -6 -18 -15 -18 -18 -14
-14 -12 -5 -17 -16 -19 -19 -15
-14 -12 -5 -17 -16 -19 -18 -14
-13 -12 -5 -17 -15 -18 -17 -13
-13 -12 -5 -17 -15 -18 -16 -12
-13 -12 -5 -17 -15 -18 -16 -11
-12 -13 -6 -17 -14 -17 -15 -10
-12 -12 -6 -17 -14 -17 -15 -10
-12 -11 -6 -17 -14 -17 -15 -10
-12 -10 -6 -17 -14 -17 -15 -10
-12 -9 -6 -17 -14 -17 -15 -10
-13 -8 -5 -17 -14 -16 -15 -11
-12 -8 -5 -17 -13 -15 -14 -10
-12 -8 -6 -16 -12 -14 -13 -10
-11 -8 -6 -16 -11 -13 -12 -9
-11 -8 -6 -16 -10 -13 -12 -9
-10 -7 -7 -15 -9 -12 -11 -8
-10 -7 -7 -14 -9 -12 -11 -8
-9 -7 -7 -14 -9 -12 -11 -8
-9 -7 -7 -13 -9 -12 -11 -8
-9 -7 -7 -13 -9 -12 -11 -8
-8 -8 -6 -12 -9 -12 -11 -9
-7 -7 -7 -12 -9 -12 -11 -9
-6 -6 -7 -12 -8 -11 -10 -8
-5 -5 -8 -12 -8 -11 -10 -8
-4 -4 -8 -12 -8 -11 -10 -8
-3 -3 -9 -13 -7 -10 -10 -7
-3 -3 -9 -11 -7 -9 -11 -7
-3 -2 -9 -10 -7 -8 -13 -7
-3 -2 -9 -9 -7 -7 -15 -7
-3 -2 -9 -8 -7 -7 -16 -7
-2 0 -8 -7 -5 -6 -17 -6
0 1 -8 -6 -4 -5 -17 -5
1 2 -9 -6 -3 -4 -17 -5
3 3 -9 -5 0 -3 -17 -4
4 3 -9 -5 1 -2 -17 -4
5 4 -10 -3 2 0 -18 -3
6 4 -10 -2 3 1 -18 -3
7 5 -9 0 4 2 -17 -3
8 5 -9 2 5 3 -17 -3
8 5 -9 3 6 4 -17 -3
10 6 -8 4 7 6 -15 -2
11 7 -9 4 9 7 -13 -2
13 8 -9 4 10 8 -10 0
15 9 -10 4 11 10 -8 0
16 10 -10 4 12 11 -6 0
17 12 -11 4 13 12 -5 1
19 14 -11 6 15 14 -4 3
20 15 -11 7 16 15 -3 4
21 17 -11 8 17 16 -2 5
22 19 -11 9 18 17 -2 6
24 20 -11 10 19 18 0 7
26 21 -12 10 20 20 1 8
29 22 -13 11 21 21 2 8
31 23 -14 11 22 22 3 9
33 24 -15 11 23 23 4 9
35 25 -16 12 24 24 5 10
36 26 -16 13 25 25 7 11
37 27 -16 14 26 26 8 12
39 28 -16 15 26 27 9 13
40 29 -16 16 27 28 10 14
42 30 -16 17 28 29 11 15
44 31 -17 17 28 30 12 16
45 32 -17 17 29 31 13 17
46 33 -18 17 29 32 13 18
47 34 -18 17 29 33 14 19
48 35 -19 17 30 34 15 20
49 36 -19 16 30 34 16 20
50 37 -19 16 30 35 17 20
51 37 -19 15 30 35 17 20
52 38 -19 15 30 35 18 20
53 39 -20 14 29 36 19 21
54 39 -21 13 29 36 19 22
54 40 -22 12 29 36 19 24
55 40 -23 11 29 36 19 25
55 40 -24 10 29 36 19 27
56 42 -25 9 28 36 19 28
55 42 -24 9 28 36 18 28
55 40 -23 9 27 35 17 28
54 40 -22 9 27 35 17 28
54 40 -21 9 27 35 16 28
52 39 -20 9 26 33 14 29
49 38 -20 8 25 32 13 28
46 37 -20 7 24 31 12 27
44 36 -20 5 23 29 10 26
40 35 -20 4 22 28 9 25
38 33 -19 3 21 26 7 24
35 31 -17 3 20 25 6 23
32 30 -16 3 19 23 4 22
30 28 -14 3 18 22 3 22
27 26 -12 3 17 20 1 21
25 24 -11 2 16 18 0 20
23 23 -10 0 15 17 -2 18
21 21 -10 -2 14 16 -3 17
18 20 -9 -3 13 14 -4 16
16 18 -9 -4 12 13 -5 15
14 16 -8 -5 10 11 -7 13
12 15 -7 -6 9 10 -8 12
10 14 -6 -7 8 9 -10 11
8 12 -6 -7 6 7 -11 9
6 11 -5 -8 5 6 -13 8
4 10 -4 -9 4 5 -14 7
3 9 -4 -10 4 4 -14 7
1 8 -4 -10 3 4 -15 7
0 7 -4 -11 3 3 -15 7
-3 6 -4 -11 3 3 -15 7
-4 5 -4 -12 2 2 -16 6
-6 4 -4 -13 0 1 -17 5
-7 4 -4 -14 -2 0 -17 4
-8 3 -4 -14 -3 -2 -18 4
-9 3 -4 -15 -4 -3 -18 3
-10 2 -3 -16 -5 -4 -19 2
-10 1 -3 -17 -5 -5 -20 2
-11 1 -3 -17 -5 -5 -20 1
-11 0 -3 -18 -5 -6 -21 1
-11 0 -3 -18 -5 -6 -21 1
-12 -2 -2 -19 -6 -7 -22 0
-12 -2 -2 -19 -6 -7 -22 0
-12 -2 -2 -19 -7 -7 -22 -2
-12 -2 -2 -19 -7 -7 -22 -2
-12 -2 -2 -19 -7 -7 -22 -2
-13 -3 0 -19 -8 -8 -22 -3
-13 -3 0 -19 -8 -8 -22 -3
-13 -3 0 -19 -8 -8 -22 -3
-13 -3 0 -19 -8 -8 -22 -3
-13 -3 0 -19 -8 -8 -22 -3
-12 -4 -2 -19 -8 -7 -21 -2
-12 -4 -2 -19 -8 -7 -21 -2
-12 -4 -2 -19 -8 -7 -21 -2
-12 -4 -2 -19 -8 -7 -21 -2
-12 -4 -2 -19 -8 -7 -21 -2
-13 -5 -3 -20 -9 -8 -22 -3
-13 -5 -3 -20 -9 -8 -22 -3
-13 -4 -3 -20 -9 -9 -21 -3
-13 -4 -3 -20 -9 -9 -21 -3
-13 -4 -3 -20 -9 -9 -21 -3
-13 -3 -2 -19 -9 -10 -20 -3
-13 -3 -2 -19 -9 -10 -20 -3
-13 -3 -2 -20 -9 -11 -20 -3
-13 -3 -2 -20 -9 -11 -20 -3
-13 -3 -2 -20 -9 -11 -20 -3
-13 -3 -2 -21 -10 -12 -20 -3
-13 -3 -2 -21 -10 -12 -20 -3
-12 -3 -3 -21 -10 -12 -20 -3
-12 -3 -3 -21 -10 -12 -20 -3
-12 -3 -3 -21 -10 -12 -20 -3
-11 -2 -4 -21 -10 -11 -21 -2
-12 -2 -4 -21 -10 -11 -21 -3
-13 -3 -3 -20 -10 -12 -21 -4
-13 -3 -3 -20 -10 -12 -21 -4
-14 -3 -3 -20 -10 -12 -21 -5
-15 -4 -2 -19 -10 -13 -20 -6
-15 -4 -2 -19 -10 -13 -20 -6
-15 -5 -3 -20 -10 -13 -20 -6
-15 -5 -3 -20 -10 -13 -20 -6
-15 -5 -3 -20 -10 -13 -20 -6
-14 -6 -4 -21 -10 -13 -20 -7
-14 -6 -4 -21 -10 -13 -20 -7
-14 -5 -4 -21 -10 -13 -20 -8
-14 -5 -4 -21 -10 -13 -20 -8
-14 -5 -4 -21 -10 -13 -20 -8
-14 -4 -3 -20 -11 -14 -20 -9
-14 -4 -3 -20 -11 -14 -20 -9
-15 -4 -3 -21 -11 -14 -20 -9
-15 -4 -3 -22 -11 -14 -20 -9
-15 -4 -3 -22 -11 -14 -20 -9
-16 -5 -3 -23 -12 -15 -20 -9
-16 -5 -3 -23 -12 -15 -20 -10
-16 -6 -3 -23 -13 -16 -20 -11
-16 -6 -3 -23 -13 -16 -20 -11
-16 -6 -3 -23 -13 -16 -20 -12
-15 -7 -3 -22 -14 -17 -21 -13
-15 -7 -3 -22 -14 -17 -21 -13
-15 -7 -3 -22 -14 -17 -21 -13
-15 -7 -3 -22 -14 -17 -21 -13
-15 -7 -3 -22 -14 -17 -21 -13
-14 -7 -3 -22 -14 -16 -21 -12
-14 -7 -3 -22 -14 -16 -21 -12
-15 -8 -3 -21 -14 -17 -21 -13
-16 -8 -3 -21 -14 -17 -21 -13
-16 -8 -3 -21 -14 -17 -21 -13
-17 -9 -4 -20 -15 -18 -20 -14
-17 -9 -4 -20 -15 -18 -20 -14
-17 -9 -4 -20 -15 -18 -20 -13
-17 -9 -4 -20 -15 -18 -20 -13
-17 -9 -4 -20 -15 -18 -20 -13
-16 -8 -5 -21 -16 -19 -21 -12
-16 -8 -5 -21 -16 -19 -21 -12
-16 -8 -5 -21 -16 -19 -21 -11
-16 -8 -5 -21 -16 -19 -21 -11
-16 -8 -5 -21 -16 -19 -21 -11
-15 -9 -4 -21 -16 -20 -21 -10
-15 -9 -4 -21 -16 -20 -21 -10
-16 -9 -4 -22 -16 -20 -21 -10
-16 -9 -4 -22 -16 -20 -21 -10
-16 -9 -4 -22 -16 -20 -21 -10
-17 -10 -5 -23 -17 -21 -22 -9
-17 -10 -5 -23 -17 -21 -22 -9
-17 -10 -5 -23 -17 -21 -22 -9
-17 -10 -5 -23 -17 -21 -22 -9
-17 -10 -5 -23 -17 -21 -22 -9
-17 -11 -4 -23 -16 -21 -22 -10
-17 -11 -4 -23 -16 -21 -22 -10
-17 -11 -4 -23 -16 -21 -22 -10
-17 -11 -4 -23 -16 -21 -22 -10
-17 -11 -4 -23 -16 -21 -22 -10
-17 -11 -5 -23 -16 -21 -21 -9
-17 -11 -5 -23 -16 -21 -21 -9
-17 -11 -5 -23 -17 -21 -21 -9
-17 -11 -5 -23 -17 -21 -21 -9
-17 -11 -5 -23 -17 -21 -21 -9
-16 -11 -5 -24 -18 -22 -21 -9
-16 -11 -5 -24 -18 -22 -21 -9
-16 -11 -5 -24 -18 -21 -21 -9
-16 -11 -5 -24 -18 -21 -21 -9
-16 -11 -5 -24 -18 -21 -21 -9
-16 -12 -5 -24 -17 -20 -21 -9
-16 -12 -5 -24 -17 -20 -21 -9
-16 -12 -5 -24 -17 -20 -20 -9
-16 -12 -5 -24 -17 -20 -20 -9
-16 -12 -5 -24 -17 -20 -20 -9
-17 -11 -5 -24 -17 -20 -19 -10
-17 -11 -5 -24 -17 -20 -19 -10
-16 -11 -5 -24 -17 -20 -19 -10
-16 -11 -5 -24 -17 -20 -19 -10
-16 -11 -5 -24 -17 -20 -19 -10
-15 -12 -6 -25 -18 -21 -20 -11
-15 -12 -6 -25 -18 -21 -20 -11
-16 -13 -5 -25 -18 -21 -20 -11
-17 -14 -5 -25 -18 -21 -20 -11
-17 -14 -5 -25 -18 -21 -20 -11
-18 -15 -4 -25 -18 -20 -20 -11
-18 -15 -4 -25 -18 -20 -20 -11
-18 -15 -4 -25 -18 -20 -20 -11
-18 -15 -4 -25 -18 -20 -20 -11
-18 -15 -4 -25 -18 -20 -20 -11
-18 -14 -3 -25 -17 -20 -19 -10
-18 -14 -3 -24 -17 -20 -19 -10
-18 -13 -3 -23 -17 -20 -19 -10
-18 -12 -3 -23 -17 -20 -19 -10
-18 -12 -3 -22 -17 -20 -19 -10
-17 -11 -4 -21 -18 -21 -19 -11
-17 -11 -4 -21 -18 -21 -19 -11
-17 -11 -4 -20 -18 -21 -19 -11
-17 -11 -4 -20 -18 -21 -19 -11
-17 -11 -4 -20 -18 -21 -19 -11
-18 -11 -4 -19 -17 -20 -18 -12
-18 -11 -4 -19 -17 -20 -18 -12
-18 -11 -4 -19 -17 -20 -18 -12
-18 -11 -4 -19 -17 -20 -18 -12
-18 -11 -4 -19 -17 -20 -18 -12
-18 -11 -3 -18 -18 -21 -19 -11
-18 -11 -3 -18 -18 -21 -19 -11
-18 -11 -3 -19 -18 -21 -19 -11
-18 -11 -3 -19 -18 -21 -19 -11
-18 -11 -3 -19 -18 -21 -19 -11
-17 -11 -3 -20 -18 -20 -19 -11
-17 -11 -3 -20 -18 -20 -19 -11
-17 -11 -3 -20 -18 -20 -18 -11
-17 -11 -3 -20 -18 -20 -18 -11
-17 -11 -3 -20 -18 -20 -18 -11
-18 -12 -4 -20 -18 -21 -17 -12
-18 -12 -4 -20 -18 -21 -17 -12
-18 -13 -3 -19 -18 -21 -17 -12
-18 -14 -3 -19 -18 -21 -17 -12
-18 -14 -3 -19 -18 -21 -17 -12
-18 -15 -2 -18 -18 -20 -16 -12
-18 -15 -2 -18 -18 -20 -16 -12
-18 -15 -2 -17 -18 -20 -16 -12
-18 -15 -2 -17 -18 -20 -16 -12
-18 -15 -2 -17 -18 -20 -16 -12
-17 -14 -3 -16 -17 -21 -16 -12
-17 -14 -3 -16 -17 -21 -16 -12
-17 -14 -2 -16 -17 -21 -16 -13
-17 -14 -2 -16 -17 -21 -16 -14
-17 -14 -2 -16 -17 -21 -16 -14
-17 -14 0 -16 -17 -20 -15 -15
-17 -14 0 -16 -17 -20 -15 -15
-17 -15 0 -17 -16 -20 -15 -15
-17 -15 0 -17 -15 -20 -15 -15
-17 -15 0 -17 -15 -20 -15 -15
-18 -16 -2 -18 -14 -21 -15 -16
-18 -16 -2 -18 -14 -21 -15 -16
-18 -15 -2 -18 -14 -21 -15 -16
-18 -15 -2 -18 -14 -21 -15 -16
-18 -15 -2 -18 -14 -21 -15 -16
-17 -14 0 -18 -14 -20 -15 -16
-17 -14 0 -18 -14 -20 -15 -16
-17 -14 0 -17 -14 -20 -15 -16
-17 -14 0 -17 -14 -20 -15 -16
-17 -14 0 -17 -14 -20 -15 -16
-18 -15 0 -16 -14 -19 -14 -16
-18 -15 0 -16 -14 -19 -14 -16
-18 -15 0 -16 -14 -19 -14 -16
-18 -15 0 -16 -14 -19 -14 -16
-18 -15 0 -16 -14 -19 -14 -16
-18 -14 1 -15 -13 -19 -14 -16
-16 -12 2 -14 -13 -19 -13 -16
-15 -10 3 -12 -12 -18 -12 -16
-14 -9 4 -11 -12 -17 -12 -16
-12 -7 5 -10 -12 -17 -11 -16
-11 -6 6 -9 -11 -16 -10 -15
-11 -4 8 -7 -9 -14 -9 -13
-11 -2 10 -6 -8 -13 -7 -11
-11 1 11 -5 -7 -12 -6 -10
-11 3 13 -3 -5 -10 -5 -8
-10 4 14 -2 -4 -9 -4 -7
-10 4 14 0 -4 -9 -4 -7
-10 4 15 1 -4 -9 -4 -6
-10 4 15 1 -4 -9 -4 -5
-10 4 15 2 -4 -9 -4 -5
-8 5 16 3 -3 -9 -4 -4
-6 5 14 3 -3 -9 -3 -4
-3 6 12 3 -2 -8 -2 -4
0 7 10 3 -2 -7 -2 -4
2 7 8 3 -2 -7 0 -4
4 8 7 2 0 -6 1 -4
4 7 7 2 -2 -6 1 -4
3 6 6 1 -3 -7 0 -3
2 5 6 0 -3 -7 0 -3
2 4 6 0 -4 -7 0 -3
1 3 5 -3 -5 -8 -2 -2
0 2 3 -5 -6 -9 -3 -3
-2 1 1 -7 -8 -10 -4 -4
-3 1 0 -9 -9 -11 -5 -5
-4 0 -3 -11 -10 -12 -6 -6
-5 -3 -4 -12 -11 -13 -7 -7
-5 -5 -4 -12 -12 -14 -7 -8
-6 -7 -3 -12 -13 -16 -8 -9
-6 -9 -3 -12 -14 -17 -9 -9
-6 -11 -3 -12 -15 -18 -9 -10
-7 -12 -2 -12 -16 -19 -10 -11
-9 -12 -2 -12 -16 -19 -10 -12
-11 -13 -2 -13 -16 -19 -11 -13
-12 -14 -2 -13 -16 -19 -12 -13
-14 -14 -2 -13 -16 -19 -12 -14
-15 -15 0 -14 -17 -20 -13 -15
-16 -16 0 -14 -17 -21 -13 -15
-17 -17 0 -15 -18 -22 -14 -16
-17 -17 0 -16 -18 -22 -15 -17
-18 -18 0 -16 -18 -23 -15 -17
-19 -19 -2 -17 -19 -24 -16 -18
-19 -19 -2 -17 -19 -24 -16 -18
-19 -19 -2 -18 -19 -24 -16 -18
-19 -19 -2 -18 -19 -24 -16 -18
-19 -19 -2 -18 -19 -24 -16 -18
-18 -19 -3 -19 -20 -24 -17 -19
-18 -19 -3 -17 -20 -24 -17 -19
-18 -19 -3 -15 -20 -24 -17 -19
-18 -19 -3 -13 -20 -24 -17 -19
-18 -19 -3 -11 -20 -24 -17 -19
-19 -19 -2 -10 -19 -23 -16 -18
-19 -19 -2 -9 -19 -23 -16 -18
-18 -19 -2 -7 -19 -23 -16 -18
-18 -19 -2 -6 -19 -23 -16 -18
-18 -19 -2 -5 -19 -23 -16 -18
-17 -18 -2 -3 -18 -22 -17 -18
-18 -18 -2 0 -18 -22 -17 -18
-19 -18 0 2 -18 -22 -17 -18
-20 -18 0 4 -18 -22 -17 -18
-21 -18 0 6 -18 -22 -17 -18
-22 -19 2 10 -17 -22 -16 -18
-22 -19 5 16 -14 -20 -16 -18
-22 -20 9 22 -10 -18 -15 -19
-22 -20 12 28 -7 -17 -14 -19
-22 -20 15 33 -4 -15 -14 -19
-22 -20 19 43 2 -11 -11 -19
-20 -16 23 55 10 -5 -7 -15
-17 -12 28 66 18 2 -2 -12
-14 -8 33 77 26 8 4 -9
-12 -4 37 90 34 14 8 -5
0 7 40 97 44 25 18 4
19 25 38 101 56 42 33 18
38 44 37 104 68 57 49 31
58 62 36 108 80 72 65 46
77 80 34 112 93 89 80 60
96 101 25 110 105 105 97 75
114 123 9 100 116 123 115 92
133 146 -8 91 128 142 134 108
151 169 -25 81 139 160 152 126
169 190 -41 71 150 179 171 142
173 193 -53 60 149 182 174 145
159 173 -59 47 133 165 157 131
146 153 -65 32 116 149 141 116
133 133 -71 19 100 133 125 102
119 113 -77 5 84 117 109 88
102 91 -77 -5 65 97 90 71
78 68 -67 -10 45 72 68 54
56 45 -57 -15 25 47 47 35
33 21 -47 -21 5 22 25 18
10 -3 -37 -26 -15 -3 4 1
-3 -15 -29 -26 -25 -16 -8 -10
-5 -15 -23 -17 -21 -15 -8 -11
-6 -15 -18 -9 -18 -14 -8 -12
-7 -14 -12 0 -15 -13 -8 -14
-9 -14 -6 8 -11 -12 -8 -15
-10 -13 -3 13 -9 -11 -7 -16
-12 -13 -2 14 -9 -12 -8 -17
-13 -14 -2 15 -9 -13 -9 -17
-14 -15 0 17 -10 -15 -10 -18
-16 -15 1 18 -10 -16 -11 -19
-17 -16 2 19 -11 -17 -12 -20
-17 -16 2 19 -11 -17 -12 -21
-17 -17 2 19 -12 -17 -12 -21
-17 -18 2 20 -13 -17 -13 -22
-17 -18 2 20 -13 -17 -13 -23
-18 -19 1 21 -14 -18 -14 -24
-18 -19 2 21 -14 -18 -14 -24
-18 -19 3 22 -14 -18 -14 -24
-18 -19 4 23 -14 -19 -14 -24
-18 -19 5 23 -14 -19 -14 -24
-19 -19 6 24 -14 -20 -15 -25
-19 -19 6 24 -14 -20 -15 -25
-19 -19 6 24 -14 -20 -15 -25
-19 -19 6 25 -14 -20 -15 -25
-19 -19 6 25 -14 -20 -15 -25
-19 -19 5 26 -13 -20 -15 -25
-19 -19 5 26 -13 -20 -15 -25
-19 -19 5 26 -13 -20 -15 -25
-19 -20 6 26 -13 -20 -15 -25
-19 -20 6 26 -13 -20 -15 -25
-19 -21 7 27 -14 -20 -15 -25
-19 -21 7 27 -14 -20 -15 -24
-18 -21 7 27 -13 -20 -15 -23
-17 -21 6 28 -12 -20 -15 -21
-17 -21 6 28 -12 -20 -15 -20
-16 -21 5 29 -11 -19 -14 -19
-16 -21 5 29 -11 -19 -14 -19
-16 -21 5 29 -11 -19 -14 -19
-17 -20 5 29 -11 -19 -14 -20
-17 -20 5 29 -11 -19 -14 -20
-18 -19 6 30 -12 -20 -15 -21
-18 -19 6 31 -12 -19 -14 -20
-18 -19 6 32 -11 -19 -14 -20
-17 -19 6 33 -10 -18 -13 -19
-17 -19 6 34 -10 -17 -12 -18
-16 -19 6 35 -9 -16 -11 -17
-16 -19 6 35 -9 -16 -11 -17
-16 -19 6 35 -9 -16 -11 -17
-16 -18 6 36 -9 -16 -11 -17
-16 -18 6 36 -9 -16 -11 -17
-15 -17 7 37 -9 -16 -11 -17
-15 -17 7 37 -8 -15 -11 -17
-15 -17 7 37 -7 -15 -10 -17
-15 -17 7 37 -6 -14 -9 -16
-15 -17 7 37 -5 -13 -9 -16
-14 -17 7 38 -4 -12 -8 -15
-14 -17 7 38 -4 -12 -8 -15
-14 -17 7 38 -4 -12 -8 -15
-13 -17 7 38 -4 -12 -8 -15
-13 -17 7 38 -4 -12 -8 -15
-12 -16 6 39 -3 -12 -8 -16
-11 -15 6 40 -3 -12 -8 -16
-11 -14 6 42 -3 -12 -8 -16
-10 -12 6 43 -2 -11 -8 -16
-9 -11 6 44 -2 -11 -8 -16
-8 -10 5 45 0 -10 -7 -15
-7 -10 5 46 1 -9 -7 -15
-7 -9 5 47 1 -9 -6 -14
-6 -8 5 48 2 -8 -5 -13
-5 -8 5 49 3 -7 -5 -13
-4 -7 5 50 4 -6 -4 -12
-3 -7 5 50 5 -5 -3 -11
-2 -7 4 50 5 -5 -3 -11
1 -6 3 51 6 -4 -2 -10
2 -6 3 51 7 -3 0 -9
3 -5 2 52 8 -2 1 -8
3 -5 2 53 9 0 1 -7
3 -5 2 55 9 0 1 -7
3 -4 3 56 10 1 2 -6
3 -4 3 58 11 2 2 -5
4 -3 4 59 12 3 3 -4
6 -2 4 59 13 4 4 -3
8 1 4 59 14 5 5 -2
10 2 4 60 15 7 6 1
11 4 4 60 16 8 7 2
13 5 3 61 17 9 8 3
15 6 3 62 18 10 8 3
17 7 3 63 18 11 8 3
19 9 2 65 19 12 8 4
20 10 2 66 20 13 8 4
22 11 1 67 21 14 9 5
24 12 1 67 22 16 11 7
26 14 0 67 23 18 13 8
28 15 -2 67 25 20 15 10
29 17 -2 67 26 21 17 12
31 18 -3 68 27 23 19 13
31 19 -3 68 27 24 19 14
32 21 -3 68 27 24 20 15
33 22 -4 69 27 25 21 16
33 24 -4 69 27 26 21 17
35 25 -5 70 28 27 22 18
37 26 -5 70 28 27 23 18
40 27 -6 70 29 27 23 19
43 29 -7 70 30 28 24 20
46 30 -7 70 30 28 25 20
48 31 -8 71 31 29 26 21
49 32 -8 71 31 29 26 21
49 32 -8 71 31 30 27 22
50 33 -8 70 31 31 28 23
51 34 -8 70 31 31 28 23
52 35 -9 69 31 32 29 24
53 36 -9 69 31 32 29 24
54 36 -9 69 31 32 29 24
55 37 -9 68 31 33 29 24
56 38 -9 68 31 33 29 24
57 39 -10 67 30 34 29 25
57 39 -10 66 30 34 29 25
57 39 -10 65 30 34 29 25
56 38 -10 63 30 34 29 25
56 38 -10 62 30 34 29 25
55 37 -9 61 31 33 30 26
53 36 -9 60 31 32 29 26
52 36 -8 60 30 32 29 25
50 35 -7 59 29 31 28 24
48 34 -7 58 29 30 27 24
46 33 -6 57 28 29 26 23
44 30 -4 57 28 28 25 22
40 28 -3 57 27 26 24 21
37 26 0 56 26 25 23 19
34 24 2 56 26 23 22 18
32 22 3 55 25 22 21 17
29 21 4 54 24 21 19 15
27 19 4 54 24 20 18 13
24 18 5 53 23 18 16 11
22 16 6 52 22 17 15 10
19 15 7 51 21 16 13 8
17 13 8 51 20 14 12 7
14 12 9 51 19 13 11 6
11 10 11 50 18 11 9 4
8 9 12 50 17 10 8 3
6 7 13 49 16 8 7 2
4 6 13 48 15 8 6 1
3 6 13 47 15 7 5 1
1 5 13 46 14 6 3 0
0 4 13 45 13 6 2 -2
-3 3 14 44 12 5 1 -3
-3 2 14 43 11 4 0 -4
-4 0 14 43 10 2 0 -4
-5 -2 14 42 9 1 -2 -5
-5 -4 14 40 8 -2 -3 -6
-6 -5 15 39 7 -3 -4 -7
-7 -6 15 39 7 -3 -4 -7
-8 -7 15 39 7 -3 -4 -7
-9 -9 16 38 7 -3 -4 -8
-10 -10 16 38 7 -3 -4 -8
-11 -11 17 37 6 -3 -4 -9
-11 -11 17 37 6 -3 -4 -9
-12 -11 17 36 6 -4 -5 -9
-13 -11 17 35 5 -5 -6 -9
-13 -11 17 35 5 -5 -6 -9
-14 -11 17 34 4 -6 -7 -10
-14 -11 17 34 4 -6 -7 -10
-14 -11 17 34 4 -6 -7 -10
-14 -11 17 34 3 -5 -7 -10
-14 -11 17 34 3 -5 -7 -10
-13 -12 18 34 2 -4 -6 -9
-13 -12 18 34 2 -4 -6 -9
-13 -12 18 34 2 -4 -6 -9
-13 -12 18 33 2 -4 -6 -9
-13 -12 18 33 2 -4 -6 -9
-13 -12 17 32 2 -4 -7 -9
-13 -12 17 32 2 -4 -7 -9
-13 -12 17 32 2 -4 -7 -9
-13 -12 17 32 2 -4 -7 -9
-13 -12 17 32 2 -4 -7 -9
-13 -12 18 32 3 -5 -6 -10
-13 -12 18 32 3 -5 -6 -10
-13 -12 18 32 3 -5 -6 -10
-13 -12 18 32 3 -5 -6 -10
-13 -12 18 32 3 -5 -6 -10
-14 -12 18 32 3 -5 -5 -9
-14 -12 18 32 3 -5 -5 -9
-14 -12 18 32 3 -5 -5 -9
-14 -12 18 32 3 -4 -5 -9
-14 -12 18 32 3 -4 -5 -9
-13 -11 19 31 3 -3 -5 -8
-13 -11 19 31 3 -3 -5 -8
-13 -11 19 31 3 -3 -5 -8
-14 -11 19 31 3 -3 -5 -8
-14 -11 19 31 3 -3 -5 -8
-15 -12 19 30 3 -3 -6 -8
-15 -12 19 30 3 -3 -6 -8
-15 -12 19 30 3 -3 -6 -8
-15 -12 19 29 3 -3 -6 -8
-15 -12 19 29 3 -3 -6 -8
-14 -11 19 28 2 -3 -6 -9
-14 -11 19 28 2 -3 -6 -9
-14 -12 19 28 2 -3 -6 -9
-14 -12 19 28 2 -4 -6 -8
-14 -13 19 28 2 -4 -6 -8
-15 -14 19 28 1 -5 -6 -7
-15 -14 19 28 1 -5 -6 -6
-15 -14 19 28 1 -5 -6 -6
-15 -14 19 27 1 -4 -6 -5
-15 -14 19 27 1 -4 -6 -4
-14 -14 20 26 1 -3 -6 -3
-14 -14 20 26 1 -3 -6 -3
-14 -14 20 25 1 -3 -6 -3
-14 -14 20 25 0 -4 -7 -3
-14 -14 20 24 0 -4 -7 -3
-15 -15 20 23 -2 -5 -8 -4
-15 -15 20 23 -2 -5 -8 -4
-15 -15 20 23 -2 -5 -8 -4
-15 -15 20 23 -2 -5 -8 -4
-15 -15 20 23 -2 -5 -8 -4
-14 -16 19 23 -2 -6 -8 -5
-14 -16 19 23 -2 -6 -8 -5
-14 -16 19 23 -2 -6 -8 -5
-15 -16 18 23 -2 -6 -8 -5
-15 -16 18 23 -2 -6 -8 -5
-16 -15 17 22 -3 -7 -8 -6
-16 -15 17 22 -3 -7 -8 -6
-16 -15 17 22 -3 -7 -8 -6
-16 -15 17 21 -4 -7 -8 -6
-16 -15 17 21 -4 -7 -8 -6
-16 -16 18 20 -5 -6 -8 -5
-16 -16 18 20 -5 -6 -8 -5
-16 -16 18 19 -5 -6 -8 -5
-16 -16 18 19 -5 -7 -9 -6
-16 -16 18 18 -5 -7 -9 -6
-16 -17 17 17 -6 -8 -10 -7
-16 -17 17 17 -6 -8 -10 -7
-16 -17 17 17 -6 -8 -10 -7
-16 -18 17 17 -6 -8 -10 -7
-16 -18 17 17 -6 -8 -10 -7
-16 -19 18 16 -7 -8 -10 -7
-16 -19 18 16 -7 -8 -10 -7
-16 -19 18 16 -7 -8 -10 -7
-16 -18 18 16 -7 -8 -10 -7
-16 -18 18 16 -7 -8 -10 -7
-16 -17 18 15 -8 -9 -10 -7
-16 -17 18 15 -8 -9 -10 -7
-16 -17 18 15 -8 -9 -10 -7
-16 -17 18 15 -8 -9 -10 -7
-16 -17 18 15 -8 -9 -10 -7
-15 -17 17 15 -7 -8 -9 -6
-15 -17 17 15 -7 -8 -9 -6
-15 -17 17 15 -7 -8 -9 -6
-15 -18 17 14 -7 -8 -9 -6
-15 -18 17 14 -7 -8 -9 -6
-16 -19 17 13 -8 -9 -10 -7
-16 -19 17 13 -8 -9 -10 -7
-16 -19 17 13 -8 -9 -10 -7
-16 -19 17 13 -8 -9 -10 -7
-16 -19 17 13 -8 -9 -10 -7
-15 -20 17 12 -7 -9 -11 -7
-15 -20 17 12 -7 -9 -11 -7
-15 -20 17 12 -7 -9 -11 -7
-15 -20 18 12 -7 -9 -10 -7
-15 -20 18 12 -7 -9 -10 -7
-15 -20 19 13 -7 -8 -9 -6
-15 -20 19 13 -7 -8 -9 -6
-15 -20 19 13 -7 -8 -9 -6
-15 -20 18 12 -7 -8 -9 -6
-15 -20 18 12 -7 -8 -9 -6
-16 -21 17 11 -6 -8 -9 -7
-16 -21 17 11 -6 -8 -9 -7
-16 -21 17 11 -6 -8 -9 -7
-16 -20 17 11 -6 -8 -9 -7
-16 -20 17 11 -6 -8 -9 -7
-16 -19 17 12 -7 -8 -10 -6
-16 -19 17 12 -7 -8 -10 -6
-16 -19 17 12 -7 -8 -10 -6
-15 -19 17 12 -7 -8 -10 -6
-15 -19 17 12 -7 -8 -10 -6
-14 -19 16 11 -8 -7 -10 -7
-14 -19 16 11 -8 -7 -10 -7
-14 -19 16 11 -8 -7 -10 -7
-15 -19 15 11 -8 -8 -10 -7
-15 -19 15 11 -8 -8 -10 -7
-16 -20 14 11 -9 -9 -11 -7
-16 -20 14 11 -9 -9 -11 -7
-16 -20 14 11 -9 -9 -11 -8
-16 -20 14 11 -9 -9 -11 -8
-16 -20 14 11 -9 -9 -11 -9
-16 -19 14 11 -9 -9 -10 -10
-16 -19 14 11 -9 -9 -10 -10
-16 -19 14 11 -9 -9 -10 -10
-16 -19 14 11 -9 -9 -10 -10
-16 -19 14 11 -9 -9 -10 -10
-15 -19 13 11 -9 -8 -9 -11
-15 -19 13 11 -9 -8 -9 -11
-15 -19 13 10 -9 -8 -9 -11
-15 -19 12 10 -9 -9 -9 -12
-15 -19 12 9 -9 -9 -9 -12
-14 -19 11 8 -9 -10 -10 -13
-14 -19 11 8 -9 -10 -10 -13
-14 -19 11 8 -9 -10 -10 -13
-14 -19 11 8 -9 -10 -10 -13
-14 -19 11 8 -9 -10 -10 -13
-15 -19 12 9 -9 -9 -11 -13
-15 -19 12 9 -9 -9 -11 -13
-15 -19 12 9 -9 -9 -11 -13
-15 -19 11 9 -9 -9 -11 -13
-15 -19 11 9 -9 -9 -11 -13
-14 -18 10 8 -10 -9 -10 -12
-14 -18 10 8 -10 -9 -10 -12
-14 -18 10 8 -10 -9 -10 -12
-14 -18 9 8 -10 -9 -10 -12
-14 -18 9 8 -10 -9 -10 -12
-14 -17 8 9 -11 -10 -11 -13
-14 -17 8 9 -11 -10 -11 -12
-14 -17 8 9 -11 -10 -11 -11
-14 -18 8 9 -10 -10 -11 -10
-14 -18 8 9 -10 -10 -11 -9
-15 -19 9 8 -9 -10 -10 -8
-15 -18 9 8 -9 -10 -10 -8
-15 -17 9 8 -9 -10 -10 -8
-14 -16 9 9 -9 -10 -10 -8
-14 -15 9 9 -9 -10 -10 -8
-13 -14 10 10 -10 -10 -11 -8
-13 -14 10 10 -10 -9 -11 -8
-12 -14 11 11 -10 -8 -10 -7
-11 -14 11 12 -9 -7 -9 -7
-10 -14 12 13 -9 -6 -8 -6
-9 -14 13 14 -8 -5 -7 -5
-8 -12 14 15 -7 -4 -6 -4
-7 -9 16 17 -5 -3 -5 -2
-6 -7 18 18 -3 -2 -4 1
-5 -4 19 19 -2 0 -3 2
-4 -2 21 21 1 1 -2 4
-4 -2 21 21 1 1 -2 4
-4 -2 21 21 1 1 -2 4
-4 0 21 21 2 1 -2 4
-4 0 21 21 2 1 -2 4
-3 1 22 21 3 1 0 4
0 1 21 21 3 1 0 4
2 2 20 21 3 1 1 4
4 3 19 21 3 2 1 5
6 4 18 21 3 2 2 5
8 5 17 20 4 3 3 6
8 4 16 15 4 3 3 6
7 3 15 11 3 3 3 6
7 2 14 6 2 2 2 6
6 1 12 2 1 2 2 6
5 0 11 -3 0 1 1 5
5 0 10 -5 -2 0 1 5
5 0 8 -7 -4 -2 0 4
4 0 7 -10 -6 -3 -2 4
4 0 6 -12 -7 -5 -3 3
3 -2 4 -14 -9 -6 -4 2
3 -4 4 -15 -9 -6 -5 1
3 -6 4 -17 -10 -7 -7 0
2 -8 3 -19 -11 -8 -8 -2
2 -10 3 -20 -12 -9 -9 -3
1 -12 2 -22 -13 -10 -11 -4
-2 -12 2 -22 -13 -10 -11 -4
-4 -13 3 -21 -13 -10 -11 -4
-6 -14 3 -21 -13 -10 -11 -4
-8 -15 4 -20 -13 -10 -11 -4
-10 -16 5 -19 -13 -11 -10 -3
-10 -16 5 -19 -13 -12 -11 -4
-11 -17 4 -20 -14 -13 -12 -5
-12 -18 3 -21 -15 -14 -13 -6
-13 -19 2 -22 -16 -15 -14 -8
-14 -20 1 -23 -17 -16 -15 -9
-14 -20 1 -23 -17 -16 -15 -9
-14 -20 1 -24 -17 -16 -15 -9
-14 -21 1 -24 -17 -16 -15 -9
-14 -21 1 -25 -17 -16 -15 -9
-14 -22 2 -26 -18 -16 -15 -9
-14 -22 2 -26 -18 -16 -15 -9
-14 -22 2 -26 -18 -16 -15 -9
-14 -22 2 -26 -18 -16 -15 -9
-14 -22 2 -26 -18 -16 -15 -9
-13 -22 2 -26 -18 -16 -15 -9
-13 -22 2 -26 -18 -16 -15 -9
-13 -22 2 -26 -18 -16 -15 -9
-14 -22 2 -26 -18 -16 -15 -9
-14 -22 2 -26 -18 -16 -15 -9
-15 -22 2 -25 -18 -16 -14 -8
-15 -22 2 -25 -18 -16 -14 -8
-15 -22 2 -25 -18 -16 -14 -8
-14 -22 2 -24 -18 -16 -15 -8
-14 -22 2 -24 -18 -16 -15 -8
-13 -21 2 -23 -17 -17 -16 -9
-14 -21 5 -19 -15 -16 -16 -9
-15 -21 7 -15 -14 -15 -16 -10
-16 -21 10 -11 -12 -14 -15 -10
-17 -21 12 -7 -10 -13 -15 -11
-18 -22 15 -2 -7 -11 -14 -12
-16 -19 20 9 2 -5 -9 -9
-14 -15 24 20 10 2 -5 -6
-12 -12 29 30 18 9 1 -2
-10 -8 34 40 27 15 6 2
-6 -3 38 50 35 23 12 7
13 15 38 55 48 37 26 19
31 31 37 60 59 52 39 31
49 48 37 65 71 66 54 45
67 65 36 70 82 80 68 57
86 82 33 74 94 95 82 70
105 107 18 67 106 114 101 88
125 131 3 60 118 134 119 105
144 154 -13 53 130 152 138 122
163 179 -28 46 142 172 156 139
180 197 -43 37 150 186 171 153
168 180 -50 23 136 173 157 141
156 162 -58 8 121 159 144 129
145 145 -65 -7 107 145 131 116
133 128 -73 -21 93 132 117 105
119 109 -79 -34 76 116 102 92
96 84 -71 -40 56 91 79 72
72 59 -62 -47 35 64 57 54
50 34 -53 -53 14 38 34 35
26 9 -45 -59 -7 13 11 16
6 -13 -36 -64 -25 -10 -9 0
4 -13 -30 -56 -22 -10 -9 0
1 -14 -24 -48 -19 -10 -9 -2
-3 -15 -18 -39 -17 -9 -9 -2
-5 -16 -12 -31 -14 -9 -9 -3
-8 -17 -6 -24 -11 -8 -8 -4
-8 -17 -5 -24 -11 -8 -8 -4
-9 -17 -4 -23 -11 -8 -9 -4
-10 -18 -3 -23 -11 -9 -10 -5
-11 -18 -2 -22 -11 -9 -11 -5
-12 -19 0 -21 -12 -10 -12 -6
-12 -20 0 -21 -12 -11 -12 -7
-13 -21 0 -21 -13 -13 -13 -8
-13 -22 0 -21 -14 -15 -14 -9
-14 -23 0 -21 -15 -16 -15 -10
-15 -24 1 -22 -16 -18 -16 -11
-15 -24 1 -22 -16 -18 -16 -11
-16 -24 1 -22 -16 -18 -16 -12
-16 -23 1 -22 -16 -18 -16 -12
-17 -23 1 -22 -16 -18 -16 -13
-18 -22 0 -21 -17 -19 -16 -14
-18 -22 0 -21 -17 -19 -16 -14
-18 -22 0 -21 -17 -19 -16 -14
-18 -23 0 -21 -17 -19 -16 -14
-18 -23 0 -21 -17 -19 -16 -14
-18 -24 -2 -20 -17 -19 -17 -13
-18 -24 -2 -20 -17 -19 -17 -13
-18 -24 -2 -20 -17 -19 -17 -13
-18 -24 -2 -20 -17 -19 -17 -13
-18 -24 -2 -20 -17 -19 -17 -13
-18 -25 0 -21 -17 -19 -17 -13
-18 -25 0 -21 -17 -19 -17 -13
-18 -25 0 -21 -17 -19 -17 -13
-18 -25 1 -22 -16 -19 -17 -13
-18 -25 1 -22 -16 -19 -17 -13
-17 -24 2 -23 -15 -19 -16 -12
-17 -24 2 -24 -15 -19 -16 -12
-17 -24 2 -25 -16 -19 -16 -12
-17 -24 2 -26 -17 -19 -16 -12
-17 -24 2 -27 -18 -19 -16 -12
-17 -24 1 -28 -19 -19 -16 -13
-17 -24 1 -29 -19 -19 -16 -13
-17 -23 1 -30 -19 -19 -16 -13
-17 -23 1 -32 -18 -19 -16 -13
-17 -22 1 -33 -18 -19 -16 -13
-16 -21 2 -35 -17 -18 -16 -12
-16 -21 2 -35 -17 -18 -16 -12
-16 -21 2 -36 -17 -18 -16 -12
-16 -21 2 -37 -17 -17 -16 -12
-16 -21 2 -38 -17 -17 -16 -12
-16 -21 1 -39 -18 -16 -15 -13
-16 -21 1 -39 -18 -16 -15 -13
-15 -21 1 -38 -18 -16 -15 -13
-14 -20 1 -38 -18 -16 -14 -12
-13 -20 1 -37 -18 -16 -14 -12
-12 -19 0 -36 -17 -15 -13 -11
-12 -19 0 -36 -17 -15 -13 -11
-12 -19 0 -36 -17 -14 -13 -11
-12 -19 0 -36 -17 -13 -13 -11
-12 -19 0 -36 -17 -12 -13 -11
-11 -18 -2 -36 -16 -11 -13 -11
-11 -18 -2 -36 -16 -11 -13 -11
-11 -18 -2 -36 -16 -11 -13 -11
-10 -17 -2 -36 -15 -10 -12 -11
-10 -17 -2 -36 -15 -10 -12 -11
-9 -16 -3 -35 -14 -9 -11 -10
-9 -16 -3 -35 -14 -9 -11 -10
-8 -16 -3 -34 -14 -9 -11 -9
-7 -15 -3 -34 -13 -9 -11 -8
-6 -15 -3 -33 -13 -9 -11 -7
-5 -14 -4 -32 -12 -8 -10 -6
-5 -14 -4 -32 -12 -8 -10 -6
-5 -13 -4 -31 -12 -7 -9 -5
-5 -12 -4 -31 -11 -6 -8 -5
-5 -11 -4 -30 -11 -5 -7 -4
-6 -10 -5 -29 -10 -4 -6 -3
-5 -9 -5 -29 -10 -4 -6 -3
-3 -7 -6 -29 -10 -3 -5 -2
0 -5 -6 -29 -9 -3 -5 -2
2 -3 -7 -29 -9 -2 -4 0
4 0 -8 -29 -8 0 -3 1
5 0 -8 -28 -8 1 -3 2
6 0 -8 -27 -7 2 -2 3
7 1 -8 -26 -6 4 0 5
8 1 -8 -25 -5 5 1 6
9 2 -9 -23 -4 7 2 8
10 3 -9 -23 -4 8 3 9
11 5 -9 -22 -3 9 4 10
13 7 -10 -22 -3 10 5 11
14 9 -10 -21 -2 11 6 12
16 11 -11 -20 0 12 7 13
17 12 -11 -20 0 13 8 14
19 13 -11 -19 1 14 9 15
21 14 -12 -18 2 16 10 16
23 15 -12 -17 3 17 11 17
25 16 -13 -16 4 19 13 18
26 17 -13 -16 4 20 13 19
28 19 -13 -16 4 21 13 20
30 21 -14 -16 4 22 14 21
32 23 -14 -16 4 23 14 22
34 25 -15 -15 5 25 15 23
35 26 -15 -15 5 26 16 24
37 27 -15 -15 5 27 18 25
38 28 -16 -15 6 28 19 26
40 29 -16 -15 6 29 21 27
43 30 -17 -14 7 30 23 28
44 30 -17 -14 7 30 23 29
45 31 -17 -14 8 31 23 30
46 31 -17 -14 8 31 24 31
47 32 -17 -14 9 32 24 32
49 33 -18 -15 10 33 25 34
49 33 -18 -15 10 33 25 34
49 33 -18 -15 10 33 26 35
49 34 -18 -15 10 34 27 36
49 34 -18 -15 10 34 28 37
50 35 -18 -15 9 35 29 38
50 35 -18 -15 9 35 29 38
50 35 -18 -15 9 35 29 38
50 35 -18 -16 9 35 29 38
50 35 -18 -16 9 35 29 38
49 34 -18 -17 9 34 28 39
48 34 -18 -17 9 33 28 39
46 33 -17 -17 8 32 27 39
45 33 -16 -17 7 31 26 38
43 32 -15 -17 6 30 25 38
40 31 -14 -18 5 29 24 37
38 30 -14 -18 4 28 23 36
35 29 -13 -18 3 27 22 35
33 28 -12 -18 2 25 20 34
30 27 -11 -18 1 24 19 33
27 26 -10 -19 0 22 17 31
25 24 -9 -19 0 21 16 30
23 22 -8 -20 0 19 15 29
20 19 -7 -20 -2 18 13 27
18 17 -6 -21 -2 16 12 26
15 14 -4 -22 -3 14 10 24
13 13 -3 -22 -3 14 9 24
10 11 -2 -22 -4 13 8 23
8 10 0 -22 -5 12 7 23
5 8 1 -22 -6 11 6 22
2 6 2 -23 -7 10 4 21
1 5 2 -23 -7 9 3 20
-2 4 3 -24 -8 7 2 19
-3 3 3 -25 -8 6 1 18
-5 2 4 -26 -9 4 0 17
-7 1 5 -27 -10 2 -3 15
-7 1 5 -27 -10 1 -3 15
-8 0 5 -27 -11 0 -4 15
-9 -2 5 -28 -11 -2 -4 14
-10 -3 5 -28 -12 -3 -5 14
-11 -4 4 -29 -13 -5 -6 13
-12 -5 4 -29 -13 -5 -6 13
-13 -6 4 -29 -14 -5 -6 13
-14 -7 4 -29 -14 -5 -7 12
-15 -8 4 -29 -15 -5 -7 12
-16 -10 5 -30 -16 -5 -8 11
-16 -10 5 -30 -16 -5 -8 11
-16 -10 5 -30 -16 -6 -8 11
-16 -10 5 -30 -16 -6 -9 11
-16 -10 5 -30 -16 -7 -9 11
-16 -11 4 -31 -17 -8 -10 11
-16 -11 4 -31 -17 -8 -10 11
-16 -11 4 -31 -17 -8 -10 11
-16 -11 4 -31 -17 -8 -10 11
-16 -11 4 -31 -17 -8 -10 11
-16 -11 5 -32 -16 -7 -10 12
-16 -11 5 -32 -16 -7 -10 12
-16 -11 5 -32 -16 -7 -10 12
-17 -11 5 -32 -16 -7 -10 12
-17 -11 5 -32 -16 -7 -10 12
-18 -12 6 -31 -15 -7 -9 12
-18 -12 6 -31 -15 -7 -9 12
-17 -12 6 -31 -15 -7 -9 12
-17 -12 5 -31 -15 -7 -9 12
-16 -12 5 -31 -15 -7 -9 12
-15 -12 4 -30 -15 -7 -9 11
-15 -12 4 -30 -15 -7 -9 11
-15 -12 4 -30 -15 -7 -9 11
-15 -11 4 -30 -15 -7 -9 11
-15 -11 4 -30 -15 -7 -9 11
-16 -10 5 -30 -14 -6 -8 12
-16 -10 5 -30 -14 -6 -8 12
-16 -10 5 -30 -14 -6 -8 12
-16 -10 5 -29 -13 -5 -7 12
-16 -10 5 -29 -13 -5 -7 12
-16 -10 5 -29 -13 -5 -7 12
-16 -11 5 -28 -12 -4 -6 13
-16 -11 5 -28 -12 -4 -6 12
-16 -11 5 -29 -12 -5 -7 12
-16 -11 5 -29 -12 -5 -7 11
-16 -11 5 -29 -12 -5 -7 11
-17 -10 5 -30 -13 -6 -8 10
-17 -10 5 -30 -13 -7 -8 10
-16 -10 5 -30 -13 -7 -9 10
-16 -10 5 -30 -13 -8 -9 10
-16 -10 5 -30 -13 -8 -9 10
-15 -9 5 -30 -12 -9 -10 10
-15 -9 5 -30 -12 -9 -10 10
-16 -9 5 -30 -12 -9 -10 10
-16 -9 5 -30 -12 -9 -10 10
-16 -9 5 -30 -12 -9 -10 10
-17 -8 6 -30 -13 -8 -9 9
-17 -9 6 -30 -13 -8 -9 9
-16 -10 6 -30 -13 -8 -9 9
-16 -11 6 -30 -13 -8 -9 9
-16 -11 6 -30 -13 -8 -9 9
-15 -12 5 -31 -13 -8 -10 9
-16 -12 5 -31 -13 -8 -10 9
-16 -12 5 -31 -13 -9 -10 9
-17 -12 5 -31 -13 -9 -10 9
-17 -12 5 -31 -13 -9 -10 9
-18 -12 6 -32 -13 -10 -10 8
-18 -12 6 -32 -13 -10 -10 8
-17 -13 6 -32 -13 -10 -10 8
-17 -13 6 -32 -13 -10 -10 8
-17 -13 6 -32 -13 -10 -10 8
-16 -14 5 -32 -13 -10 -11 8
-16 -13 5 -32 -13 -10 -11 8
-16 -13 5 -32 -13 -11 -11 7
-16 -12 5 -32 -13 -11 -11 7
-16 -12 5 -32 -13 -11 -11 7
-17 -11 4 -33 -13 -12 -12 6
-17 -11 4 -33 -13 -12 -12 6
-17 -11 4 -33 -14 -12 -12 6
-17 -11 4 -33 -14 -12 -12 6
-17 -11 4 -33 -14 -12 -12 6
-18 -12 4 -34 -15 -12 -12 6
-18 -12 4 -34 -15 -12 -12 6
-18 -12 4 -34 -15 -12 -12 6
-18 -12 4 -34 -15 -12 -12 6
-18 -12 4 -34 -15 -12 -12 6
-17 -13 4 -33 -15 -13 -12 5
-17 -13 4 -33 -15 -13 -12 5
-17 -13 4 -33 -15 -13 -12 5
-17 -13 4 -33 -15 -13 -12 5
-17 -13 4 -33 -15 -13 -12 5
-17 -12 5 -32 -14 -13 -13 4
-17 -12 5 -32 -14 -13 -13 4
-16 -12 5 -32 -14 -14 -13 3
-16 -12 5 -32 -14 -14 -13 3
-16 -12 5 -32 -14 -14 -13 3
-15 -12 4 -33 -15 -15 -13 2
-16 -12 4 -33 -15 -15 -13 2
-16 -13 4 -33 -15 -15 -13 2
-17 -13 4 -33 -15 -15 -13 2
-17 -13 4 -33 -15 -15 -13 2
-18 -14 5 -32 -14 -15 -14 3
-18 -14 5 -32 -14 -15 -14 3
-18 -14 5 -32 -14 -15 -14 3
-18 -14 5 -32 -14 -15 -14 3
-18 -14 5 -32 -14 -15 -14 3
-17 -15 5 -32 -14 -15 -14 2
-17 -14 5 -32 -14 -15 -14 2
-17 -14 5 -32 -14 -15 -14 2
-17 -13 5 -32 -14 -15 -14 2
-17 -13 5 -32 -14 -15 -14 2
-17 -12 4 -32 -14 -16 -15 1
-17 -12 4 -32 -14 -16 -15 1
-17 -13 4 -32 -14 -16 -15 2
-17 -13 4 -32 -14 -16 -15 2
-17 -13 4 -32 -14 -16 -15 2
-17 -14 5 -32 -13 -16 -14 3
-17 -15 5 -32 -13 -16 -14 3
-17 -15 5 -32 -13 -16 -14 2
-17 -16 5 -32 -13 -16 -14 2
-17 -16 5 -32 -13 -16 -14 2
-17 -17 5 -31 -12 -16 -14 1
-17 -17 5 -30 -12 -16 -14 1
-17 -17 5 -30 -12 -16 -14 1
-17 -17 5 -29 -12 -16 -14 1
-17 -17 5 -29 -12 -16 -14 1
-18 -17 6 -28 -11 -15 -13 1
-18 -17 6 -28 -11 -15 -13 1
-17 -16 6 -28 -11 -15 -13 1
-17 -16 6 -28 -11 -15 -13 1
-17 -16 6 -28 -11 -15 -13 1
-16 -15 5 -29 -12 -16 -14 0
-16 -16 5 -29 -12 -16 -14 0
-16 -16 6 -28 -12 -15 -14 0
-16 -17 6 -28 -12 -15 -14 0
-16 -17 6 -28 -12 -15 -14 0
-17 -18 7 -27 -11 -14 -13 -2
-17 -18 7 -27 -11 -14 -13 -2
-17 -17 7 -27 -11 -15 -13 0
-17 -17 7 -27 -11 -15 -13 0
-17 -17 7 -27 -11 -15 -13 0
-16 -16 6 -27 -12 -16 -14 1
-16 -16 6 -27 -12 -16 -14 1
-16 -16 5 -26 -11 -16 -13 1
-16 -16 5 -26 -11 -16 -13 1
-16 -16 5 -26 -11 -16 -13 1
-17 -16 4 -25 -10 -15 -12 0
-17 -16 4 -25 -10 -15 -13 0
-17 -16 4 -25 -10 -15 -13 -2
-17 -16 4 -25 -10 -15 -14 -2
-17 -16 4 -25 -10 -15 -14 -2
-17 -15 5 -25 -10 -16 -15 -3
-17 -15 5 -25 -10 -16 -15 -3
-17 -14 5 -26 -10 -16 -14 -3
-17 -14 5 -26 -10 -16 -14 -3
-17 -14 5 -26 -10 -16 -14 -3
-16 -13 4 -27 -11 -16 -13 -4
-16 -13 4 -27 -11 -16 -13 -4
-16 -13 4 -27 -11 -16 -13 -4
-16 -13 4 -27 -11 -16 -13 -4
-16 -13 4 -27 -11 -16 -13 -4
-15 -13 5 -27 -10 -16 -14 -3
-15 -13 6 -26 -9 -16 -14 -3
-15 -12 6 -26 -9 -16 -13 -3
-15 -12 7 -25 -8 -16 -13 -3
-15 -12 7 -25 -8 -16 -13 -3
-15 -11 8 -24 -7 -16 -12 -3
-14 -11 8 -24 -6 -15 -12 -3
-12 -10 9 -23 -6 -14 -12 -3
-11 -10 9 -23 -5 -13 -12 -3
-10 -10 9 -23 -5 -13 -12 -3
-9 -8 11 -21 -3 -12 -11 -2
-9 -6 13 -19 -2 -11 -10 0
-9 -4 14 -18 0 -10 -9 1
-9 -2 16 -16 1 -9 -8 2
-9 0 17 -15 2 -8 -8 3
-8 1 18 -14 3 -7 -7 4
-8 2 18 -13 4 -7 -6 4
-7 2 18 -12 4 -6 -6 4
-7 3 18 -11 5 -6 -5 4
-7 3 18 -11 5 -6 -5 4
-5 4 18 -10 6 -5 -4 5
-3 4 16 -10 6 -5 -4 5
0 5 15 -10 7 -4 -3 5
2 5 13 -10 7 -4 -3 5
4 5 12 -10 7 -4 -3 5
5 6 10 -10 8 -3 -2 6
5 6 9 -11 8 -4 -3 6
4 6 8 -12 7 -5 -3 5
4 6 7 -13 7 -6 -4 5
4 6 6 -13 7 -6 -4 5
3 4 5 -15 5 -7 -5 4
2 3 5 -17 4 -8 -6 3
2 2 4 -19 3 -9 -6 2
1 1 4 -21 2 -10 -7 1
1 0 4 -23 1 -10 -7 1
0 -3 3 -24 -2 -12 -9 -2
-2 -5 2 -25 -3 -13 -10 -3
-2 -7 2 -25 -5 -15 -12 -5
-3 -8 1 -26 -7 -16 -14 -6
-3 -10 1 -26 -8 -17 -15 -7
-5 -11 0 -27 -9 -18 -16 -8
-7 -12 0 -27 -9 -18 -16 -8
-9 -13 0 -26 -8 -18 -16 -8
-11 -14 0 -26 -8 -18 -16 -8
-13 -14 0 -26 -8 -18 -16 -8
-14 -15 1 -25 -7 -18 -15 -9
-15 -16 1 -25 -8 -19 -16 -10
-16 -17 1 -25 -8 -19 -16 -10
-17 -18 1 -25 -9 -20 -17 -11
-17 -19 1 -25 -9 -20 -17 -11
-18 -20 0 -25 -10 -21 -18 -12
-18 -20 0 -24 -10 -21 -18 -12
-18 -20 0 -22 -10 -21 -19 -12
-18 -20 0 -21 -10 -21 -19 -12
-18 -20 0 -20 -10 -21 -19 -12
-18 -19 -2 -19 -11 -21 -20 -13
-18 -19 -2 -19 -11 -21 -20 -13
-18 -19 -2 -19 -11 -21 -20 -13
-18 -19 -2 -19 -11 -21 -20 -13
-18 -19 -2 -19 -11 -21 -20 -13
-18 -20 -3 -19 -11 -22 -20 -13
-18 -20 -3 -19 -11 -22 -20 -13
-18 -20 -3 -19 -11 -21 -19 -13
-18 -20 -3 -19 -11 -21 -19 -13
-18 -20 -3 -19 -11 -21 -19 -13
-18 -20 -2 -18 -10 -20 -18 -12
-18 -20 -2 -17 -10 -20 -18 -12
-18 -21 -2 -17 -10 -20 -18 -12
-18 -21 -2 -16 -10 -20 -18 -12
-18 -21 -2 -16 -10 -20 -18 -12
-18 -22 2 -13 -8 -18 -18 -13
-19 -22 5 -9 -5 -17 -18 -13
-20 -22 7 -6 -3 -16 -18 -13
-21 -22 10 -2 1 -15 -18 -13
-21 -22 13 2 4 -14 -18 -13
-20 -21 17 11 11 -8 -14 -12
-18 -18 22 20 19 0 -9 -9
-16 -14 27 30 27 6 -4 -6
-13 -11 31 39 34 13 2 -3
-11 -8 36 50 43 19 8 1
7 9 36 55 54 33 21 13
26 28 35 59 66 49 35 26
46 48 34 63 77 64 51 39
65 67 32 68 90 79 66 53
85 87 31 72 102 95 80 66
104 109 18 67 113 112 98 82
122 131 3 59 123 130 116 100
140 153 -13 51 135 148 135 116
158 175 -28 43 146 165 153 133
177 197 -44 34 157 184 171 150
170 185 -52 20 145 174 161 142
155 164 -59 5 128 157 145 127
141 143 -65 -10 110 141 129 112
127 122 -72 -25 93 123 112 97
112 102 -78 -40 75 107 96 82
91 79 -74 -48 57 85 75 65
69 57 -65 -53 36 61 55 48
47 34 -57 -59 17 36 33 30
24 12 -48 -64 -3 13 12 13
2 -11 -39 -70 -22 -11 -10 -5
-4 -15 -33 -65 -24 -16 -14 -9
-6 -15 -27 -57 -20 -15 -13 -9
-8 -15 -22 -48 -17 -14 -12 -9
-9 -15 -16 -39 -14 -13 -11 -9
-11 -15 -11 -31 -10 -12 -11 -9
-12 -14 -9 -29 -9 -11 -10 -10
-13 -14 -8 -28 -10 -11 -10 -10
-14 -15 -7 -28 -10 -12 -11 -11
-15 -15 -6 -27 -11 -12 -11 -11
-15 -15 -5 -27 -11 -12 -11 -11
-16 -16 -4 -26 -12 -13 -12 -12
-16 -17 -4 -26 -13 -14 -13 -13
-17 -17 -4 -26 -13 -15 -14 -14
-17 -18 -4 -26 -14 -16 -15 -15
-17 -18 -4 -26 -14 -17 -15 -16
-18 -19 -4 -25 -15 -18 -16 -17
-18 -20 -4 -25 -15 -18 -16 -17
-18 -20 -4 -25 -16 -18 -16 -18
-18 -21 -4 -25 -16 -18 -16 -18
-18 -21 -4 -25 -16 -18 -16 -18
-19 -22 -3 -25 -17 -19 -17 -19
-19 -21 -3 -24 -16 -19 -17 -19
-19 -21 -3 -24 -16 -19 -17 -19
-19 -20 -3 -23 -15 -19 -17 -19
-19 -20 -3 -23 -15 -19 -17 -19
-18 -19 -4 -22 -14 -19 -17 -19
-18 -19 -4 -22 -15 -19 -17 -19
-18 -19 -4 -22 -15 -19 -17 -19
-18 -19 -4 -22 -16 -19 -17 -19
-18 -19 -4 -22 -16 -19 -17 -19
-19 -19 -4 -23 -17 -20 -17 -19
-18 -19 -4 -23 -17 -20 -17 -19
-18 -19 -4 -23 -16 -19 -17 -19
-17 -19 -4 -23 -16 -19 -17 -19
-17 -19 -4 -23 -16 -19 -17 -19
-16 -18 -4 -22 -15 -18 -16 -19
-16 -18 -4 -22 -15 -18 -15 -19
-16 -18 -4 -22 -15 -17 -15 -18
-16 -18 -4 -22 -15 -17 -14 -18
-16 -18 -4 -22 -15 -17 -14 -18
-17 -18 -5 -21 -15 -16 -13 -17
-17 -17 -5 -21 -15 -16 -13 -17
-16 -17 -5 -20 -15 -16 -13 -17
-16 -16 -5 -20 -15 -16 -13 -17
-16 -16 -5 -20 -15 -16 -13 -17
-15 -15 -5 -19 -16 -17 -14 -16
-15 -15 -5 -19 -16 -17 -14 -16
-15 -15 -5 -19 -16 -16 -14 -16
-15 -15 -5 -19 -16 -16 -14 -16
-15 -15 -5 -19 -16 -16 -14 -16
-15 -15 -5 -18 -16 -15 -14 -17
-15 -14 -5 -18 -16 -14 -14 -17
-15 -13 -6 -17 -15 -14 -13 -17
-15 -12 -6 -17 -15 -13 -13 -17
-15 -12 -6 -17 -15 -13 -13 -17
-14 -11 -7 -16 -14 -12 -12 -16
-14 -11 -7 -16 -14 -11 -12 -16
-13 -12 -7 -16 -13 -11 -11 -16
-13 -12 -7 -16 -13 -10 -11 -16
-13 -12 -7 -16 -13 -10 -11 -16
-12 -14 -7 -15 -12 -9 -9 -15
-11 -15 -7 -14 -11 -8 -8 -14
-11 -16 -7 -13 -10 -7 -6 -13
-10 -18 -7 -12 -9 -6 -4 -11
-10 -19 -7 -12 -8 -5 -3 -10
-9 -20 -6 -11 -7 -4 -2 -9
-8 -19 -6 -11 -7 -4 -2 -9
-7 -18 -6 -11 -7 -3 -2 -10
-6 -17 -6 -11 -7 -3 -2 -10
-6 -16 -6 -11 -7 -3 -2 -10
-4 -15 -7 -11 -7 -2 -2 -11
-3 -14 -7 -11 -7 0 -2 -9
-2 -13 -8 -11 -7 0 0 -8
1 -12 -8 -11 -7 1 0 -7
2 -11 -8 -11 -7 1 0 -6
3 -10 -9 -10 -6 2 1 -5
3 -9 -9 -9 -5 3 2 -5
3 -8 -9 -8 -4 4 3 -5
3 -7 -9 -7 -3 5 4 -5
3 -7 -9 -6 -2 5 4 -5
5 -6 -10 -5 0 6 5 -4
7 -5 -10 -5 1 8 6 -3
9 -4 -10 -5 2 9 7 -2
11 -3 -10 -5 3 10 8 0
13 -3 -10 -5 3 11 9 0
15 -2 -10 -4 4 12 11 1
16 0 -11 -2 5 14 12 2
18 1 -11 0 6 15 13 3
20 2 -12 1 7 16 15 4
21 3 -12 2 7 17 16 4
23 5 -13 3 8 19 17 5
25 7 -12 4 9 20 19 7
26 8 -12 5 10 21 20 8
28 10 -11 5 10 23 21 9
30 12 -11 6 11 24 22 10
31 13 -10 7 12 25 23 11
33 14 -10 7 12 27 24 11
34 15 -10 7 13 28 25 12
35 16 -10 7 13 29 26 12
36 17 -10 7 13 30 27 12
38 18 -10 8 14 31 28 14
40 18 -10 8 14 32 29 15
42 19 -10 8 15 33 30 16
44 19 -10 8 15 33 30 18
46 19 -10 8 15 34 31 19
47 20 -11 9 16 35 32 20
48 22 -11 9 16 35 33 20
49 23 -11 9 16 35 33 20
49 24 -11 9 16 35 34 20
50 25 -11 9 16 35 34 20
51 26 -11 10 16 36 35 20
52 26 -11 9 16 36 35 20
53 26 -11 8 16 37 35 20
53 26 -11 8 16 37 35 20
54 26 -11 7 16 37 35 20
55 27 -11 6 15 38 35 21
54 27 -10 6 15 38 35 21
53 27 -9 5 14 38 35 22
53 27 -9 5 14 38 35 22
52 27 -8 5 14 38 35 22
50 28 -7 4 13 37 36 23
48 27 -6 4 12 36 35 22
46 27 -5 4 11 36 34 21
44 26 -5 4 10 35 33 20
42 26 -4 4 9 35 32 19
39 24 -2 3 8 33 31 18
36 21 0 3 7 32 29 17
34 19 1 2 6 30 28 16
32 17 3 2 6 29 27 15
29 14 4 2 5 27 26 14
26 12 5 1 4 26 25 12
24 11 6 0 3 25 24 11
21 9 7 -2 2 24 23 10
18 8 7 -2 1 24 23 8
15 6 8 -3 0 23 22 7
13 5 9 -4 -2 21 20 6
10 4 10 -5 -4 19 18 5
8 3 11 -6 -5 17 16 4
6 2 11 -6 -7 14 14 4
3 1 12 -7 -8 12 12 3
1 -2 13 -8 -9 11 11 2
0 -4 13 -9 -10 10 9 0
-3 -5 13 -10 -11 9 8 -2
-4 -7 13 -10 -12 9 7 -4
-6 -9 13 -11 -13 8 6 -5
-7 -10 13 -11 -14 7 5 -6
-8 -11 13 -8 -14 6 5 -6
-8 -12 14 -5 -15 6 5 -7
-9 -13 14 -3 -15 5 5 -7
-9 -14 14 1 -15 5 5 -7
-10 -15 15 2 -16 4 4 -8
-11 -15 15 2 -17 3 4 -8
-12 -15 15 2 -17 3 3 -8
-13 -15 15 2 -18 2 3 -8
-14 -15 15 2 -18 2 3 -8
-15 -15 15 2 -19 1 2 -9
-15 -15 15 2 -19 1 2 -9
-16 -15 15 2 -20 0 2 -10
-16 -15 15 2 -20 0 2 -10
-16 -15 15 2 -20 0 2 -10
-17 -16 14 2 -21 -2 1 -11
-17 -16 14 2 -21 -2 0 -11
-17 -16 14 2 -21 -2 0 -11
-17 -16 14 2 -21 -2 -2 -11
-17 -16 14 2 -21 -2 -2 -11
-17 -16 14 2 -21 -3 -3 -12
-17 -16 14 2 -21 -3 -3 -12
-17 -17 14 2 -21 -3 -3 -12
-17 -17 14 2 -21 -3 -3 -12
-17 -17 14 2 -21 -3 -3 -12
-17 -18 14 1 -22 -3 -2 -13
-17 -17 14 1 -21 -3 -2 -13
-17 -16 14 2 -21 -3 -2 -13
-17 -16 14 2 -20 -3 -2 -13
-17 -15 14 2 -20 -3 -2 -13
-18 -14 13 3 -19 -2 -2 -14
-18 -15 13 3 -19 -2 -2 -14
-18 -15 13 3 -19 -2 -2 -14
-18 -16 13 3 -19 -2 -2 -14
-18 -16 13 3 -19 -2 -2 -14
-17 -17 14 2 -19 -3 -2 -13
-17 -17 14 2 -19 -3 -2 -13
-17 -17 13 2 -19 -3 -2 -12
-17 -17 13 2 -19 -3 -2 -12
-17 -17 13 2 -19 -3 -2 -12
-16 -16 12 2 -19 -3 0 -11
-16 -16 12 2 -19 -3 0 -11
-17 -16 12 1 -19 -4 -2 -12
-17 -16 12 1 -19 -4 -2 -12
-17 -16 12 1 -19 -4 -2 -12
-18 -16 11 0 -18 -5 -3 -13
-18 -16 11 0 -18 -5 -3 -13
-18 -16 11 1 -17 -5 -3 -13
-18 -16 11 1 -17 -5 -3 -13
-18 -16 11 1 -17 -5 -3 -13
-19 -16 10 2 -16 -5 -4 -13
-19 -16 10 2 -16 -5 -4 -13
-19 -16 10 1 -16 -5 -4 -13
-19 -16 10 0 -16 -5 -4 -13
-19 -16 10 0 -16 -5 -4 -13
-19 -17 11 -2 -17 -6 -4 -13
-19 -17 11 -2 -17 -6 -4 -13
-19 -17 12 -2 -16 -6 -4 -13
-19 -17 12 -2 -15 -6 -4 -13
-19 -17 12 -2 -15 -6 -4 -13
-18 -18 13 0 -14 -5 -4 -14
-18 -18 13 0 -14 -5 -4 -14
-18 -18 12 0 -14 -6 -5 -15
-18 -18 12 0 -14 -6 -5 -15
-18 -18 12 0 -14 -6 -5 -15
-19 -18 11 -2 -13 -7 -6 -16
-19 -18 11 -2 -13 -7 -6 -16
-18 -18 11 0 -13 -7 -6 -15
-18 -18 11 0 -13 -7 -6 -15
-18 -18 11 0 -13 -7 -6 -15
-17 -17 11 1 -12 -7 -5 -14
-17 -17 11 1 -12 -7 -5 -14
-18 -17 11 0 -13 -8 -6 -15
-18 -17 11 0 -13 -8 -7 -16
-18 -17 11 0 -13 -8 -7 -16
-19 -18 10 -2 -14 -9 -8 -17
-19 -18 10 -2 -14 -9 -8 -17
-19 -18 10 -3 -14 -9 -8 -17
-19 -18 10 -4 -14 -9 -8 -17
-19 -18 10 -4 -14 -9 -8 -17
-18 -17 9 -5 -14 -10 -7 -16
-18 -17 9 -5 -14 -10 -7 -16
-18 -17 8 -5 -15 -10 -8 -15
-18 -17 8 -5 -15 -10 -8 -15
-18 -17 8 -5 -15 -10 -8 -15
-19 -17 7 -5 -16 -10 -9 -14
-19 -17 7 -5 -16 -10 -9 -14
-19 -17 7 -6 -16 -11 -9 -14
-19 -17 7 -6 -16 -11 -9 -14
-19 -17 7 -6 -16 -11 -9 -14
-18 -17 7 -7 -17 -12 -9 -15
-18 -17 7 -8 -17 -12 -9 -15
-19 -17 7 -9 -17 -12 -9 -16
-19 -17 7 -9 -17 -12 -9 -16
-19 -17 7 -10 -17 -12 -9 -16
-20 -17 6 -11 -18 -13 -10 -17
-20 -17 6 -11 -18 -13 -10 -16
-20 -17 6 -11 -18 -13 -10 -15
-20 -17 6 -11 -18 -13 -10 -15
-20 -17 6 -11 -18 -13 -10 -14
-20 -18 6 -10 -17 -12 -11 -13
-20 -18 6 -10 -17 -12 -11 -13
-20 -18 6 -11 -18 -13 -12 -13
-20 -18 6 -12 -19 -14 -12 -13
-20 -18 6 -12 -19 -14 -12 -13
-19 -19 6 -13 -20 -15 -13 -13
-19 -19 6 -13 -20 -15 -13 -13
-19 -18 6 -13 -20 -14 -12 -12
-19 -17 6 -13 -20 -14 -12 -12
-19 -17 6 -13 -20 -14 -12 -12
-19 -16 6 -13 -19 -13 -11 -11
-19 -16 6 -13 -19 -13 -11 -11
-19 -17 6 -13 -19 -13 -11 -11
-19 -18 6 -13 -19 -13 -11 -11
-19 -18 6 -13 -19 -13 -11 -11
-19 -19 5 -13 -19 -14 -12 -12
-19 -19 5 -13 -19 -14 -12 -12
-19 -18 5 -14 -18 -14 -12 -12
-19 -18 5 -14 -17 -14 -12 -12
-19 -18 5 -14 -17 -14 -12 -12
-19 -17 6 -15 -16 -14 -12 -11
-19 -17 6 -15 -16 -14 -12 -11
-19 -18 6 -15 -16 -14 -12 -11
-19 -19 6 -15 -16 -14 -12 -11
-19 -19 6 -15 -16 -14 -12 -11
-19 -20 5 -14 -17 -13 -12 -10
-19 -20 5 -14 -17 -14 -12 -10
-19 -20 5 -15 -17 -15 -12 -10
-19 -20 5 -15 -17 -15 -12 -10
-19 -20 5 -15 -17 -16 -12 -10
-19 -20 4 -16 -18 -17 -11 -11
-19 -20 4 -16 -18 -17 -11 -11
-19 -19 4 -16 -18 -17 -12 -11
-19 -19 4 -16 -18 -17 -13 -11
-19 -19 4 -16 -18 -17 -13 -11
-19 -18 5 -15 -18 -18 -14 -12
-19 -18 5 -16 -18 -18 -14 -12
-20 -18 4 -17 -18 -18 -14 -11
-20 -18 4 -17 -18 -18 -14 -11
-20 -18 4 -18 -18 -18 -14 -11
-21 -19 3 -19 -18 -18 -14 -10
-21 -19 3 -19 -18 -18 -14 -10
-21 -19 4 -19 -18 -18 -13 -10
-21 -19 4 -19 -18 -18 -12 -10
-21 -19 4 -19 -18 -18 -12 -10
-20 -18 5 -18 -17 -19 -11 -10
-20 -18 5 -18 -17 -19 -11 -10
-19 -18 5 -18 -16 -19 -12 -10
-19 -18 5 -18 -16 -19 -12 -10
-19 -18 5 -18 -16 -19 -12 -10
-18 -19 5 -18 -15 -19 -13 -10
-18 -19 5 -18 -15 -19 -13 -10
-18 -19 5 -18 -15 -19 -13 -10
-18 -19 5 -18 -15 -19 -13 -10
-18 -19 5 -18 -15 -19 -13 -10
-19 -19 5 -18 -16 -19 -12 -11
-19 -19 5 -18 -16 -19 -12 -11
-19 -19 5 -18 -16 -19 -12 -11
-19 -19 5 -18 -16 -19 -12 -11
-19 -19 5 -18 -16 -19 -12 -11
-19 -18 4 -19 -15 -19 -12 -10
-18 -17 4 -18 -15 -19 -12 -10
-17 -15 5 -17 -14 -18 -11 -10
-17 -14 6 -16 -13 -17 -10 -10
-16 -13 6 -15 -13 -17 -10 -10
-15 -12 7 -14 -12 -16 -9 -10
-14 -11 9 -12 -11 -15 -8 -8
-13 -9 11 -11 -9 -14 -7 -6
-13 -8 12 -9 -8 -13 -6 -5
-12 -7 14 -8 -7 -12 -5 -3
-11 -6 15 -7 -6 -11 -4 -2
-11 -5 16 -6 -5 -11 -4 -2
-11 -4 17 -5 -4 -10 -3 -2
-11 -4 17 -5 -4 -9 -2 -2
-11 -3 18 -4 -3 -9 -2 -2
-10 -2 19 -3 -2 -8 0 0
-8 -2 18 -3 -2 -8 0 0
-7 0 16 -4 0 -8 0 0
-6 1 15 -4 1 -8 0 0
-4 1 14 -4 1 -8 0 0
-3 2 13 -5 2 -8 0 -2
-3 2 13 -5 2 -8 0 -2
-2 3 13 -4 2 -8 1 0
0 3 13 -4 2 -8 1 1
0 3 13 -4 2 -8 1 1
1 4 11 -4 2 -7 2 2
1 3 9 -6 0 -8 1 2
0 2 7 -8 -2 -9 0 1
-2 2 5 -10 -3 -9 -2 0
-2 1 2 -13 -5 -10 -3 0
-3 0 1 -14 -6 -11 -4 -2
-3 -3 1 -15 -8 -13 -5 -3
-4 -5 0 -16 -9 -15 -6 -4
-4 -6 0 -16 -10 -16 -7 -5
-4 -8 0 -17 -12 -18 -8 -6
-5 -9 -2 -18 -13 -19 -9 -7
-5 -11 -2 -18 -13 -19 -10 -8
-6 -12 -2 -18 -13 -19 -11 -9
-7 -13 -2 -18 -13 -19 -11 -9
-7 -15 -2 -18 -13 -19 -12 -10
-9 -16 0 -18 -12 -19 -13 -11
-11 -17 0 -18 -12 -19 -13 -11
-13 -18 0 -19 -13 -19 -13 -11
-15 -19 0 -19 -13 -19 -13 -11
-17 -20 0 -19 -13 -19 -13 -11
-18 -21 1 -20 -14 -20 -13 -12
-18 -21 1 -20 -14 -20 -13 -12
-19 -21 1 -21 -15 -21 -14 -13
-20 -21 1 -21 -16 -22 -14 -13
-20 -21 1 -21 -16 -22 -14 -13
-21 -22 0 -22 -17 -23 -15 -14
-21 -22 0 -22 -17 -23 -15 -14
-20 -22 0 -22 -17 -23 -16 -15
-20 -22 0 -22 -17 -23 -16 -15
-20 -22 0 -22 -17 -23 -16 -15
-19 -22 0 -22 -16 -23 -17 -16
-19 -22 0 -22 -16 -23 -17 -16
-19 -21 -2 -22 -16 -23 -16 -15
-19 -20 -2 -22 -16 -23 -15 -15
-19 -20 -2 -22 -16 -23 -15 -15
-18 -19 -3 -21 -15 -23 -14 -14
-18 -19 -3 -21 -15 -23 -14 -14
-19 -19 -2 -20 -15 -23 -15 -14
-20 -19 -2 -19 -15 -23 -15 -14
-20 -19 -2 -19 -15 -23 -15 -14
-21 -20 0 -17 -15 -22 -16 -15
-21 -20 2 -15 -13 -21 -16 -15
-22 -19 4 -12 -11 -20 -16 -14
-23 -19 5 -10 -9 -19 -16 -14
-23 -19 7 -8 -7 -18 -16 -14
-24 -17 10 0 -3 -15 -14 -13
-24 -15 16 11 5 -10 -10 -11
-23 -13 21 21 13 -5 -6 -9
-22 -11 27 32 20 0 -3 -8
-22 -9 32 43 27 5 2 -6
-15 -2 35 52 36 14 9 0
0 10 36 60 48 26 20 10
13 22 38 68 59 38 31 20
27 34 39 75 70 51 43 29
40 47 40 84 81 63 54 39
58 65 37 88 95 79 70 54
79 91 29 86 109 100 91 72
101 115 20 85 125 121 111 92
122 141 12 84 139 142 132 110
143 165 4 81 153 163 153 130
154 177 -9 71 158 173 162 138
153 173 -24 54 152 170 159 135
151 168 -38 35 146 167 155 132
150 163 -54 17 140 164 152 129
149 159 -68 -2 134 161 149 126
136 141 -74 -15 117 144 133 111
111 110 -68 -24 90 111 103 87
86 78 -62 -34 62 79 73 62
61 48 -57 -44 34 47 45 37
36 17 -51 -53 7 15 15 13
20 0 -45 -56 -9 -3 -2 0
14 -4 -37 -50 -11 -7 -4 -3
7 -7 -30 -44 -14 -11 -7 -5
1 -9 -24 -38 -17 -15 -9 -6
-6 -12 -17 -32 -19 -19 -11 -8
-10 -14 -12 -28 -20 -21 -13 -10
-10 -14 -10 -26 -17 -20 -13 -10
-10 -13 -7 -23 -14 -19 -12 -10
-10 -12 -4 -20 -11 -17 -11 -10
-10 -12 -2 -18 -8 -16 -11 -10
-11 -11 1 -16 -6 -15 -10 -9
-12 -13 1 -15 -6 -15 -10 -9
-13 -14 1 -14 -6 -16 -11 -10
-14 -15 2 -13 -6 -17 -12 -11
-15 -17 2 -12 -6 -17 -12 -11
-16 -18 3 -11 -5 -18 -13 -12
-16 -18 3 -11 -5 -18 -13 -12
-16 -18 3 -11 -5 -19 -13 -13
-17 -18 3 -12 -6 -20 -13 -14
-17 -18 3 -12 -6 -20 -13 -14
-18 -18 4 -13 -7 -21 -14 -15
-18 -18 4 -13 -7 -21 -14 -15
-18 -18 4 -13 -7 -21 -14 -15
-17 -18 4 -12 -6 -21 -15 -15
-17 -18 4 -12 -6 -21 -15 -15
-16 -17 5 -11 -5 -21 -16 -14
-16 -17 5 -11 -5 -21 -16 -14
-16 -17 5 -11 -5 -21 -16 -14
-16 -17 5 -12 -5 -21 -15 -14
-16 -17 5 -12 -5 -21 -15 -14
-16 -17 6 -13 -6 -20 -14 -13
-16 -16 6 -13 -6 -20 -14 -13
-16 -15 5 -13 -6 -20 -14 -13
-15 -14 4 -13 -6 -20 -14 -13
-15 -13 4 -13 -6 -20 -14 -13
-14 -12 3 -12 -5 -21 -14 -14
-14 -12 3 -12 -5 -21 -14 -14
-14 -12 3 -12 -5 -21 -14 -14
-14 -13 4 -12 -5 -21 -14 -14
-14 -13 4 -12 -5 -21 -14 -14
-14 -14 5 -12 -4 -21 -14 -15
-14 -14 5 -11 -4 -21 -14 -15
-14 -14 5 -11 -4 -21 -14 -15
-14 -14 5 -10 -3 -20 -14 -14
-14 -14 5 -9 -3 -20 -14 -14
-14 -14 5 -8 -2 -19 -13 -13
-14 -14 5 -8 -2 -19 -13 -13
-14 -14 4 -8 -2 -19 -13 -13
-13 -13 3 -9 0 -18 -13 -13
-13 -13 3 -9 0 -18 -13 -13
-12 -12 2 -10 1 -17 -12 -13
-11 -12 3 -9 2 -16 -12 -13
-10 -11 3 -8 3 -16 -12 -12
-9 -10 4 -7 4 -15 -11 -11
-8 -10 5 -6 5 -14 -11 -11
-7 -9 6 -5 6 -13 -10 -10
-7 -9 6 -5 6 -13 -10 -10
-7 -9 6 -5 6 -13 -10 -10
-7 -9 6 -5 7 -13 -10 -10
-7 -9 6 -5 7 -13 -10 -10
-8 -10 6 -4 8 -12 -11 -10
-7 -10 6 -3 8 -12 -11 -10
-6 -10 6 -3 9 -12 -10 -9
-5 -10 6 -2 10 -12 -9 -8
-4 -10 6 0 10 -12 -9 -8
-3 -9 5 1 11 -12 -8 -7
-3 -9 5 1 11 -11 -8 -7
-3 -8 5 1 11 -11 -8 -7
-2 -7 5 1 11 -10 -7 -7
-2 -7 5 1 11 -9 -7 -7
0 -6 4 2 12 -8 -6 -7
1 -4 4 2 13 -8 -6 -7
1 -3 3 2 13 -7 -5 -7
2 -2 2 2 14 -6 -4 -6
3 1 2 2 15 -6 -4 -6
4 2 1 3 16 -5 -3 -5
6 2 1 3 17 -4 -2 -4
7 2 1 4 18 -3 0 -3
8 3 1 5 19 -2 1 -2
10 3 1 5 20 0 2 0
11 4 0 6 21 1 3 1
12 4 0 8 22 3 4 1
12 5 0 9 22 4 5 2
13 6 0 10 23 5 7 3
14 6 0 12 24 7 8 3
15 7 -2 13 25 8 9 4
17 9 -2 13 25 9 10 5
19 11 -2 14 26 10 11 5
21 13 -3 15 27 11 12 6
22 14 -3 15 27 12 13 7
24 16 -4 16 28 13 14 8
25 16 -4 18 30 15 16 9
26 16 -4 19 32 17 17 10
28 17 -4 20 34 19 18 11
29 17 -4 22 36 20 20 12
30 19 -3 23 38 22 21 13
33 21 -4 23 38 22 21 14
35 23 -5 23 38 23 22 14
37 26 -6 23 39 24 23 15
39 28 -7 23 39 24 23 16
42 30 -8 23 40 25 24 17
42 31 -8 23 42 26 25 18
42 32 -8 23 43 28 25 19
43 34 -9 24 44 29 26 20
43 35 -9 24 45 31 27 21
44 36 -10 25 46 32 28 22
47 36 -10 25 46 32 30 22
49 37 -10 25 46 33 31 23
51 38 -10 25 46 34 33 24
53 38 -10 25 46 34 35 24
55 39 -10 25 47 35 36 25
55 40 -11 25 47 35 36 25
55 40 -12 25 47 36 37 25
55 42 -13 25 47 37 38 25
55 43 -14 25 47 37 38 25
56 44 -15 24 46 38 39 26
56 44 -15 24 46 38 39 26
56 44 -15 24 46 38 39 26
56 44 -15 24 46 38 39 26
56 44 -15 24 46 38 39 26
57 43 -14 23 45 38 39 27
54 42 -14 23 44 37 38 27
52 40 -14 23 43 36 38 26
50 38 -13 22 42 35 37 25
48 37 -13 22 40 34 36 25
46 36 -12 21 39 33 35 24
45 35 -11 20 37 31 34 23
43 35 -11 19 35 29 33 22
42 34 -10 18 33 27 31 21
39 33 -9 17 32 26 30 20
37 32 -8 16 30 24 29 19
34 30 -7 15 28 22 26 17
31 28 -6 14 27 21 24 16
28 26 -5 13 25 19 21 14
25 24 -4 12 23 17 19 12
23 22 -3 11 22 16 17 11
21 20 -3 10 20 14 16 9
19 18 -3 9 19 12 14 7
17 16 -2 8 17 10 13 5
15 15 -2 7 15 8 11 4
13 13 0 6 14 6 10 2
12 12 1 6 14 5 8 2
10 11 1 6 13 4 7 1
9 10 2 5 12 2 5 0
7 9 3 5 12 1 3 0
6 8 4 4 11 0 2 -2
4 7 4 3 10 0 2 -4
3 6 4 2 8 -2 2 -5
1 5 4 0 7 -3 1 -7
-2 4 4 -2 5 -3 1 -9
-3 3 3 -3 4 -4 0 -10
-3 2 3 -3 4 -5 -2 -10
-4 1 3 -3 4 -5 -2 -10
-5 0 3 -3 4 -6 -3 -10
-5 -2 3 -3 4 -7 -4 -10
-6 -3 3 -3 4 -8 -5 -9
-6 -4 3 -3 4 -8 -5 -9
-7 -4 4 -3 4 -8 -5 -9
-8 -5 5 -3 4 -8 -5 -10
-8 -6 5 -3 4 -8 -5 -10
-9 -7 6 -4 3 -8 -6 -11
-9 -7 6 -4 3 -8 -6 -11
-9 -7 5 -4 3 -8 -6 -11
-9 -7 4 -4 3 -8 -6 -11
-9 -7 4 -4 3 -8 -6 -11
-10 -8 3 -5 2 -9 -6 -11
-10 -8 3 -5 2 -9 -6 -11
-10 -8 3 -5 2 -9 -6 -11
-10 -8 3 -5 2 -9 -6 -11
-10 -8 3 -5 2 -9 -6 -11
-10 -7 4 -6 2 -9 -6 -11
-10 -7 4 -6 2 -9 -6 -11
-10 -7 4 -5 2 -9 -6 -11
-10 -7 4 -4 2 -9 -6 -11
-10 -7 4 -4 2 -9 -6 -11
-10 -8 5 -3 3 -10 -7 -11
-9 -8 5 -3 3 -10 -7 -11
-9 -8 4 -4 3 -10 -7 -11
-8 -8 3 -5 3 -10 -6 -11
-7 -8 3 -5 3 -10 -6 -11
-6 -9 2 -6 2 -9 -5 -12
-7 -9 2 -6 2 -9 -5 -12
-8 -9 2 -5 2 -9 -5 -12
-9 -9 3 -4 3 -9 -5 -12
-10 -9 3 -4 3 -9 -5 -12
-11 -8 4 -3 4 -8 -6 -11
-11 -8 4 -3 4 -8 -6 -11
-11 -9 4 -3 4 -8 -6 -11
-11 -10 4 -3 4 -8 -6 -11
-11 -10 4 -3 4 -8 -6 -11
-11 -11 5 -2 3 -8 -5 -10
-11 -11 5 -2 3 -8 -5 -10
-11 -11 5 -2 3 -8 -5 -11
-12 -11 5 -2 3 -8 -5 -12
-12 -11 5 -2 3 -8 -5 -12
-13 -11 6 -2 3 -8 -5 -13
-13 -10 6 -2 3 -8 -5 -13
-13 -10 6 -2 3 -8 -5 -13
-12 -9 5 -3 3 -8 -5 -12
-12 -8 5 -3 3 -8 -5 -12
-11 -7 4 -4 2 -8 -6 -11
-11 -7 4 -4 2 -8 -6 -11
-11 -7 4 -4 2 -8 -6 -11
-11 -7 4 -4 2 -8 -6 -11
-11 -7 4 -4 2 -8 -6 -11
-10 -8 3 -4 2 -8 -5 -12
-10 -8 3 -4 2 -8 -5 -12
-10 -8 3 -4 1 -8 -5 -12
-10 -8 3 -5 0 -8 -6 -13
-10 -8 3 -5 0 -8 -6 -13
-10 -8 3 -6 -2 -9 -7 -14
-10 -9 3 -6 -2 -9 -7 -14
-10 -9 3 -6 -2 -9 -7 -14
-10 -10 3 -6 -2 -10 -7 -14
-10 -11 3 -6 -2 -10 -7 -14
-11 -12 4 -6 -2 -11 -6 -13
-11 -12 4 -7 -2 -11 -6 -13
-11 -12 4 -7 -2 -11 -6 -13
-10 -12 4 -8 -2 -11 -6 -13
-10 -12 4 -9 -2 -11 -6 -13
-9 -11 3 -10 -2 -11 -6 -14
-9 -11 3 -10 -2 -11 -6 -14
-9 -11 3 -10 -2 -11 -6 -14
-8 -11 3 -11 -2 -12 -6 -14
-8 -11 3 -11 -2 -12 -6 -14
-7 -10 2 -12 -2 -13 -7 -13
-9 -10 2 -12 -2 -13 -7 -13
-10 -11 2 -12 -2 -13 -7 -13
-12 -11 1 -12 -3 -13 -7 -13
-13 -12 1 -12 -3 -13 -7 -13
-15 -13 0 -11 -4 -12 -7 -14
-14 -13 0 -11 -4 -12 -7 -14
-13 -13 0 -12 -4 -13 -7 -14
-12 -13 0 -12 -5 -13 -7 -14
-10 -13 0 -13 -5 -14 -7 -14
-9 -12 0 -14 -6 -15 -8 -15
-9 -12 0 -14 -6 -15 -8 -15
-9 -12 0 -14 -6 -15 -8 -15
-10 -13 0 -15 -7 -15 -8 -16
-10 -13 0 -15 -7 -15 -8 -16
-11 -14 1 -16 -8 -15 -9 -17
-11 -14 1 -16 -8 -15 -9 -17
-11 -14 1 -16 -8 -15 -9 -17
-11 -14 1 -16 -8 -15 -9 -16
-11 -14 1 -16 -8 -15 -9 -16
-11 -15 1 -15 -9 -15 -8 -15
-11 -14 1 -15 -9 -15 -8 -15
-11 -12 1 -16 -9 -15 -8 -15
-11 -11 0 -16 -9 -16 -9 -16
-11 -9 0 -17 -9 -16 -9 -16
-10 -8 -2 -18 -10 -17 -10 -17
-10 -8 -2 -18 -10 -17 -10 -17
-11 -8 -2 -18 -10 -17 -10 -17
-11 -8 -3 -18 -10 -17 -10 -17
-12 -8 -3 -18 -10 -17 -10 -17
-13 -8 -4 -18 -11 -17 -10 -18
-13 -8 -4 -18 -11 -17 -10 -18
-13 -8 -4 -18 -11 -18 -11 -18
-12 -8 -4 -18 -11 -18 -11 -18
-12 -8 -4 -18 -11 -19 -12 -18
-11 -8 -3 -18 -11 -20 -13 -18
-10 -7 -3 -17 -11 -19 -13 -18
-9 -5 -3 -16 -10 -18 -13 -18
-8 -4 -2 -15 -10 -17 -13 -18
-7 -2 -2 -14 -9 -16 -13 -18
-6 0 0 -13 -8 -15 -13 -17
-6 0 1 -13 -7 -14 -12 -17
-6 0 2 -13 -7 -13 -12 -16
-6 1 3 -12 -6 -12 -11 -16
-6 1 5 -12 -5 -11 -10 -15
-6 2 6 -11 -4 -10 -9 -14
-6 3 8 -9 -3 -9 -8 -13
-6 4 9 -6 0 -8 -7 -12
-6 5 11 -4 1 -7 -6 -11
-6 6 12 -2 2 -6 -4 -10
-5 7 14 1 4 -5 -3 -9
-4 7 13 0 3 -5 -3 -9
-3 7 12 0 3 -5 -3 -8
-2 8 11 -2 2 -5 -3 -8
1 8 9 -3 1 -5 -3 -7
2 9 8 -4 0 -6 -2 -6
2 9 8 -3 1 -6 -2 -6
3 9 8 -2 2 -5 -2 -6
3 9 7 0 3 -5 -2 -6
4 9 7 1 5 -4 -2 -6
5 9 6 2 6 -3 0 -5
5 8 4 0 4 -3 0 -5
4 6 3 -3 3 -4 0 -5
4 5 1 -6 1 -4 -2 -5
3 4 0 -8 0 -5 -2 -5
2 2 -3 -10 -3 -6 -3 -4
2 2 -4 -11 -4 -8 -4 -5
2 2 -4 -11 -5 -9 -5 -7
2 2 -5 -12 -6 -11 -6 -8
2 2 -6 -13 -8 -12 -7 -9
1 1 -7 -14 -9 -14 -8 -11
0 -2 -7 -15 -10 -15 -8 -11
0 -4 -7 -16 -11 -15 -9 -11
-2 -7 -7 -17 -12 -16 -9 -11
-3 -9 -7 -19 -13 -17 -10 -11
-4 -11 -8 -20 -14 -18 -11 -12
-6 -12 -8 -20 -14 -18 -12 -13
-8 -12 -8 -20 -14 -18 -13 -14
-10 -13 -8 -20 -14 -19 -14 -15
-12 -14 -8 -20 -14 -19 -15 -16
-14 -15 -7 -19 -14 -20 -16 -17
-14 -16 -7 -19 -14 -20 -16 -17
-14 -17 -7 -19 -15 -20 -16 -17
-14 -18 -7 -19 -15 -21 -16 -17
-14 -19 -7 -19 -16 -21 -16 -17
-15 -20 -6 -20 -17 -22 -16 -17
-15 -20 -6 -20 -17 -22 -16 -17
-15 -20 -6 -20 -17 -22 -16 -17
-15 -20 -6 -21 -17 -22 -16 -17
-15 -20 -6 -21 -17 -22 -16 -17
-15 -19 -7 -22 -18 -23 -15 -17
-15 -19 -7 -22 -18 -23 -15 -17
-16 -19 -7 -22 -18 -23 -15 -17
-16 -19 -7 -22 -18 -23 -16 -17
-17 -19 -7 -22 -18 -23 -16 -17
-18 -19 -6 -23 -17 -22 -17 -18
-18 -19 -6 -23 -17 -22 -17 -17
-18 -19 -6 -23 -17 -22 -16 -16
-19 -19 -6 -23 -16 -21 -15 -15
-19 -19 -6 -23 -16 -21 -14 -14
-20 -20 -5 -22 -15 -20 -13 -13
-20 -20 -5 -22 -15 -20 -13 -14
-20 -20 -5 -22 -15 -20 -13 -15
-20 -20 -5 -21 -15 -20 -14 -16
-20 -20 -5 -21 -15 -20 -14 -18
-19 -21 -3 -19 -16 -21 -15 -19
-20 -21 2 -12 -13 -19 -15 -19
-21 -20 7 -5 -10 -16 -14 -19
-22 -19 11 3 -7 -14 -14 -18
-24 -18 16 10 -4 -11 -13 -18
-24 -16 21 18 2 -7 -10 -16
-18 -9 26 30 14 3 -2 -10
-12 -3 31 43 26 13 8 -3
-5 5 36 55 38 23 16 4
2 11 42 67 50 32 25 11
11 21 45 77 63 45 36 19
32 43 39 78 78 65 55 35
53 64 34 80 94 85 74 52
74 86 29 82 110 105 93 68
96 107 24 84 126 125 111 85
114 127 16 82 139 144 130 100
126 139 -4 65 143 158 143 110
138 151 -23 48 148 173 157 121
149 163 -43 30 153 187 171 133
161 176 -63 13 158 201 185 143
168 181 -78 -4 157 207 190 148
150 153 -81 -17 133 178 161 126
133 127 -85 -29 108 147 132 103
115 100 -88 -41 84 117 103 80
99 72 -90 -55 59 87 74 58
81 49 -91 -65 36 60 49 37
63 35 -80 -67 21 42 35 28
45 22 -70 -69 5 24 22 18
26 9 -60 -71 -12 7 9 8
8 -5 -50 -73 -27 -12 -5 -3
-8 -16 -40 -74 -39 -26 -16 -11
-8 -15 -34 -65 -34 -24 -15 -11
-9 -14 -29 -57 -29 -22 -13 -11
-9 -13 -23 -49 -24 -19 -12 -11
-10 -12 -17 -39 -19 -17 -11 -11
-11 -11 -12 -32 -15 -15 -9 -10
-12 -12 -11 -32 -15 -16 -10 -10
-13 -13 -10 -31 -16 -17 -11 -11
-14 -14 -9 -30 -16 -18 -12 -11
-16 -16 -8 -29 -17 -19 -14 -12
-17 -17 -7 -28 -18 -20 -15 -13
-17 -17 -7 -28 -18 -20 -15 -13
-17 -17 -7 -28 -18 -20 -15 -13
-17 -18 -7 -28 -18 -20 -15 -13
-17 -18 -7 -28 -18 -20 -15 -13
-16 -19 -6 -28 -17 -20 -16 -13
-16 -19 -6 -28 -17 -20 -16 -13
-16 -19 -6 -28 -17 -20 -16 -13
-17 -19 -6 -27 -17 -21 -16 -13
-17 -19 -6 -27 -17 -21 -16 -13
-18 -19 -6 -26 -18 -22 -17 -14
-18 -19 -6 -26 -18 -22 -17 -14
-18 -18 -6 -26 -18 -22 -17 -14
-18 -17 -6 -26 -18 -22 -17 -14
-18 -16 -6 -26 -18 -22 -17 -14
-17 -15 -5 -26 -17 -21 -16 -13
-17 -15 -4 -26 -17 -21 -16 -13
-17 -15 -3 -26 -17 -21 -16 -13
-18 -16 -2 -25 -16 -21 -16 -13
-18 -16 0 -25 -16 -21 -16 -13
-19 -17 1 -24 -15 -21 -15 -12
-19 -17 1 -24 -15 -21 -15 -12
-19 -17 1 -25 -15 -21 -15 -12
-18 -17 1 -25 -15 -20 -15 -11
-18 -17 1 -26 -15 -20 -15 -11
-17 -16 1 -27 -14 -19 -14 -10
-17 -16 1 -27 -14 -19 -14 -10
-17 -16 1 -27 -14 -19 -14 -10
-17 -15 2 -27 -13 -18 -14 -10
-17 -15 2 -27 -13 -18 -14 -10
-18 -14 3 -27 -12 -17 -13 -9
-18 -14 3 -27 -12 -17 -13 -9
-18 -14 3 -27 -12 -16 -12 -9
-18 -13 2 -26 -11 -16 -11 -9
-18 -13 2 -26 -11 -15 -10 -9
-17 -12 1 -25 -10 -14 -9 -9
-17 -12 1 -25 -10 -14 -9 -9
-17 -12 1 -24 -10 -14 -9 -9
-17 -12 1 -24 -10 -14 -9 -9
-17 -12 1 -23 -10 -14 -9 -9
-17 -12 1 -22 -10 -14 -9 -9
-17 -12 1 -22 -10 -14 -9 -9
-17 -11 1 -22 -10 -13 -8 -8
-17 -10 1 -21 -10 -13 -8 -8
-17 -9 1 -21 -10 -12 -7 -7
-16 -8 0 -20 -9 -11 -6 -6
-16 -8 0 -19 -9 -11 -6 -6
-16 -8 1 -18 -9 -11 -5 -6
-16 -8 2 -17 -9 -10 -5 -5
-16 -8 3 -16 -9 -10 -4 -5
-15 -7 4 -15 -8 -9 -3 -4
-15 -7 4 -15 -8 -8 -3 -4
-14 -6 3 -15 -8 -7 -2 -3
-14 -6 3 -15 -7 -6 0 -2
-13 -5 2 -15 -7 -5 1 0
-12 -4 1 -14 -6 -3 2 1
-12 -4 1 -13 -6 -3 2 1
-11 -3 1 -12 -6 -2 3 1
-10 -2 1 -11 -5 -2 3 1
-9 0 1 -10 -5 0 4 1
-8 1 2 -8 -4 1 5 2
-7 1 2 -8 -4 2 5 2
-6 1 2 -8 -3 3 5 3
-5 2 2 -7 -3 4 5 4
-4 2 2 -7 -2 5 5 5
-3 3 2 -6 0 6 4 6
-2 4 2 -5 1 7 5 6
0 6 2 -3 2 8 7 7
1 8 2 -2 3 9 9 8
2 9 2 0 4 10 10 9
3 11 1 2 5 12 12 10
4 12 1 3 6 13 13 10
6 14 1 4 8 14 14 11
7 16 1 5 9 15 15 12
8 17 1 6 10 16 16 13
10 19 0 8 12 17 17 14
11 19 0 9 13 19 18 15
12 20 0 11 14 21 20 16
13 21 0 12 15 23 22 17
14 22 0 13 16 25 23 18
16 23 1 15 17 27 25 20
18 25 0 15 18 28 26 21
20 27 -2 15 19 30 27 22
22 29 -3 15 20 32 29 23
24 31 -4 15 21 33 30 24
26 33 -5 14 22 35 32 25
27 34 -5 14 22 36 33 26
29 35 -5 14 22 37 34 27
31 36 -5 15 23 38 36 28
32 37 -5 15 23 39 37 29
34 39 -6 16 24 42 39 31
35 40 -6 16 25 43 39 32
36 42 -6 16 26 44 40 33
37 43 -6 15 27 45 42 34
38 44 -6 15 28 46 43 35
40 46 -7 14 29 47 44 36
40 46 -7 14 29 47 45 36
40 46 -7 13 29 47 46 36
42 46 -8 12 29 48 47 37
42 46 -8 11 29 48 48 37
43 46 -9 10 28 49 49 38
44 46 -9 9 28 49 49 38
45 46 -9 8 28 49 49 38
46 47 -9 7 28 49 49 38
47 47 -9 6 28 49 49 38
48 48 -10 4 27 49 48 39
46 47 -9 4 27 48 48 39
44 45 -8 4 26 47 47 39
42 44 -7 4 26 46 46 38
39 42 -6 4 25 45 45 38
37 39 -4 5 24 44 44 37
35 39 -4 4 23 42 42 36
32 38 -3 3 22 39 39 35
30 37 -2 1 20 37 37 34
28 36 0 0 19 35 35 33
25 35 1 -3 17 33 33 31
23 33 2 -3 16 31 31 30
20 31 3 -4 15 29 30 28
17 29 4 -4 14 27 28 27
15 26 5 -5 13 25 26 25
12 24 7 -6 11 23 24 23
11 23 7 -7 10 22 23 22
9 21 7 -8 9 20 21 20
7 20 7 -9 8 18 19 18
5 18 7 -10 7 16 17 16
3 16 8 -12 6 14 15 14
2 15 8 -12 5 12 14 13
1 14 8 -13 4 10 12 12
-2 13 8 -14 3 8 10 11
-3 12 8 -15 2 6 8 10
-5 11 9 -16 0 4 6 8
-6 10 9 -17 0 4 6 8
-7 9 8 -18 -2 3 5 7
-8 8 8 -19 -3 3 5 6
-9 7 7 -20 -4 2 4 5
-10 5 6 -22 -5 1 3 4
-11 5 6 -22 -5 0 2 4
-12 4 6 -23 -6 -2 1 3
-13 4 6 -23 -6 -3 0 2
-14 3 6 -24 -7 -4 -2 1
-15 2 6 -25 -8 -6 -4 0
-15 1 6 -25 -8 -6 -4 0
-15 0 6 -25 -8 -6 -4 0
-15 -2 6 -25 -8 -6 -4 0
-15 -3 6 -25 -8 -6 -4 0
-15 -4 7 -26 -8 -6 -4 0
-15 -4 7 -26 -8 -6 -4 0
-15 -4 7 -26 -8 -6 -4 0
-16 -4 7 -26 -8 -6 -4 0
-16 -4 7 -26 -8 -6 -4 0
-17 -4 6 -27 -8 -6 -4 -2
-17 -4 6 -27 -8 -6 -4 -2
-17 -4 6 -27 -8 -6 -4 -2
-17 -4 6 -27 -8 -6 -4 0
-17 -4 6 -27 -8 -6 -4 0
-16 -3 7 -26 -7 -5 -4 1
-16 -3 7 -26 -7 -5 -4 1
-16 -3 7 -26 -7 -5 -4 1
-16 -3 6 -26 -7 -5 -4 0
-16 -3 6 -26 -7 -5 -4 0
-16 -2 5 -26 -6 -6 -5 -2
-16 -2 5 -26 -6 -6 -5 -2
-16 -2 5 -26 -6 -6 -5 -2
-15 -2 5 -26 -6 -5 -5 -2
-15 -2 5 -26 -6 -5 -5 -2
-14 -3 6 -26 -5 -4 -4 0
-14 -3 6 -26 -5 -4 -4 0
-15 -3 6 -26 -5 -4 -4 0
-15 -4 7 -25 -5 -4 -4 0
-16 -4 7 -25 -5 -4 -4 0
-17 -5 8 -24 -4 -5 -4 0
-17 -5 8 -24 -4 -5 -4 0
-17 -5 8 -24 -4 -5 -4 0
-17 -4 8 -24 -4 -5 -4 0
-17 -4 8 -24 -4 -5 -4 0
-17 -3 7 -25 -4 -5 -4 -2
-17 -3 7 -25 -4 -5 -4 -2
-17 -3 7 -25 -4 -5 -4 -2
-17 -3 7 -25 -4 -5 -5 -2
-17 -3 7 -25 -4 -5 -5 -2
-16 -2 7 -25 -4 -5 -6 -2
-16 -2 7 -25 -4 -5 -6 -2
-16 -2 7 -25 -4 -5 -6 -2
-16 -2 7 -25 -4 -5 -6 -2
-16 -2 7 -25 -4 -5 -6 -2
-15 0 7 -26 -4 -5 -5 -2
-15 0 7 -26 -4 -5 -5 -2
-15 0 7 -26 -4 -5 -5 -2
-15 -2 7 -26 -4 -5 -6 -2
-15 -2 7 -26 -4 -5 -6 -2
-16 -3 8 -26 -4 -5 -7 -3
-16 -3 8 -26 -4 -5 -7 -3
-16 -3 8 -26 -4 -5 -7 -3
-16 -3 7 -27 -5 -6 -7 -3
-16 -3 7 -27 -5 -6 -7 -3
-17 -4 6 -28 -6 -7 -8 -4
-17 -4 6 -28 -6 -7 -8 -4
-17 -4 6 -28 -6 -7 -8 -4
-17 -4 6 -28 -6 -7 -8 -4
-17 -4 6 -28 -6 -7 -8 -4
-17 -5 6 -27 -5 -8 -8 -4
-17 -5 6 -27 -5 -8 -8 -4
-17 -5 6 -27 -5 -8 -8 -4
-17 -5 6 -28 -5 -8 -8 -4
-17 -5 6 -28 -5 -8 -8 -4
-17 -5 6 -29 -5 -9 -9 -4
-17 -5 6 -29 -5 -9 -9 -4
-17 -5 6 -29 -6 -9 -9 -4
-17 -5 5 -29 -6 -9 -9 -4
-17 -5 5 -29 -7 -9 -9 -4
-17 -6 4 -30 -8 -10 -9 -4
-17 -6 4 -30 -8 -10 -9 -4
-17 -6 4 -31 -8 -10 -9 -4
-17 -7 4 -31 -8 -10 -9 -4
-17 -7 4 -32 -8 -10 -9 -4
-18 -8 4 -33 -8 -10 -9 -5
-18 -8 4 -33 -8 -10 -9 -5
-18 -8 4 -33 -8 -10 -9 -5
-18 -8 4 -33 -8 -11 -9 -5
-18 -8 4 -33 -8 -11 -9 -5
-17 -8 5 -32 -8 -12 -10 -6
-17 -8 5 -32 -8 -12 -10 -6
-17 -8 5 -32 -8 -12 -10 -6
-17 -8 5 -32 -8 -12 -10 -6
-17 -8 5 -32 -8 -12 -10 -6
-16 -9 5 -33 -9 -13 -10 -6
-16 -9 5 -33 -9 -13 -10 -6
-16 -9 5 -33 -9 -13 -10 -6
-17 -9 5 -33 -9 -13 -10 -6
-17 -9 5 -33 -9 -13 -10 -6
-18 -9 5 -34 -9 -14 -11 -7
-18 -9 5 -34 -9 -14 -11 -7
-18 -9 5 -34 -9 -14 -11 -7
-18 -10 5 -33 -9 -14 -11 -7
-18 -10 5 -33 -9 -14 -11 -7
-17 -11 5 -32 -8 -13 -10 -6
-17 -11 5 -32 -8 -13 -10 -6
-17 -11 5 -32 -8 -13 -10 -6
-17 -11 5 -32 -8 -13 -11 -6
-17 -11 5 -32 -8 -13 -11 -6
-17 -11 5 -33 -9 -14 -12 -7
-16 -10 5 -33 -9 -14 -12 -7
-15 -9 6 -33 -8 -14 -12 -7
-14 -8 6 -32 -8 -13 -11 -7
-13 -7 7 -32 -7 -13 -11 -7
-12 -5 8 -31 -6 -12 -10 -7
-12 -4 9 -30 -5 -11 -9 -6
-12 -2 10 -28 -4 -10 -8 -5
-11 0 11 -27 -3 -9 -7 -3
-11 2 12 -25 -2 -8 -6 -2
-10 4 14 -23 1 -6 -4 1
-10 5 14 -23 2 -6 -4 1
-9 6 15 -22 3 -5 -3 2
-8 8 15 -22 4 -4 -3 2
-7 9 16 -21 5 -3 -2 3
-6 11 17 -20 6 -2 0 4
-6 11 17 -20 6 -2 0 4
-6 10 16 -20 6 -2 0 4
-5 10 16 -19 6 -2 0 3
-5 9 15 -19 6 -2 0 3
-5 9 15 -19 6 -2 0 3
-3 8 13 -18 6 -3 -2 2
0 8 12 -17 6 -2 -2 2
1 9 11 -16 6 -2 -2 3
3 9 10 -15 6 0 -2 3
4 9 9 -14 6 0 -2 3
5 9 7 -13 5 0 0 4
4 8 6 -13 4 -2 -2 3
3 7 4 -14 2 -3 -2 3
2 6 3 -14 1 -4 -3 2
2 5 2 -14 0 -5 -3 2
1 4 1 -16 -2 -6 -4 1
0 3 0 -17 -3 -7 -5 0
0 2 -2 -18 -4 -8 -6 0
-2 1 -3 -19 -5 -9 -7 -2
-2 0 -3 -20 -6 -10 -8 -2
-3 -3 -4 -21 -7 -11 -9 -3
-3 -5 -4 -21 -8 -12 -10 -4
-4 -7 -4 -21 -8 -13 -11 -5
-4 -9 -4 -21 -9 -14 -12 -6
-4 -10 -4 -21 -9 -14 -12 -7
-7 -11 -4 -21 -10 -15 -13 -8
-9 -12 -4 -21 -10 -15 -14 -9
-11 -13 -4 -21 -10 -16 -14 -10
-13 -14 -4 -21 -10 -16 -15 -11
-15 -15 -4 -21 -10 -16 -15 -12
-16 -16 -3 -21 -10 -17 -16 -13
-16 -16 -3 -21 -10 -18 -16 -13
-17 -17 -3 -22 -11 -18 -16 -13
-17 -17 -3 -22 -11 -19 -16 -13
-17 -17 -3 -22 -11 -19 -16 -13
-18 -18 -2 -23 -12 -20 -16 -13
-18 -18 -2 -23 -12 -20 -16 -13
-18 -18 -3 -23 -12 -20 -16 -13
-18 -18 -3 -23 -12 -20 -16 -13
-18 -18 -3 -23 -12 -20 -16 -13
-17 -19 -4 -22 -11 -21 -16 -13
-17 -19 -4 -22 -11 -21 -16 -13
-17 -18 -4 -21 -11 -20 -16 -13
-17 -18 -4 -21 -11 -20 -16 -13
-17 -18 -4 -21 -11 -20 -16 -13
-18 -17 -3 -20 -11 -19 -15 -13
-18 -18 -3 -19 -11 -19 -15 -13
-18 -18 -3 -18 -11 -19 -15 -13
-18 -19 -3 -17 -11 -19 -15 -13
-18 -19 -3 -17 -11 -19 -15 -13
-17 -20 -2 -15 -10 -20 -16 -13
-18 -20 0 -13 -10 -20 -16 -14
-19 -20 2 -12 -10 -21 -17 -15
-20 -20 3 -10 -10 -21 -17 -16
-21 -20 4 -9 -10 -21 -17 -17
-22 -20 9 0 -6 -20 -16 -17
-22 -19 14 9 0 -18 -14 -15
-22 -18 19 17 5 -15 -12 -14
-22 -17 24 25 11 -13 -10 -12
-22 -16 29 33 16 -11 -8 -11
-16 -8 34 43 25 1 2 -5
-7 1 38 51 35 11 10 3
2 9 43 60 45 22 18 9
10 16 48 68 55 32 27 15
18 24 52 77 64 44 35 21
43 49 43 78 79 65 56 39
67 75 30 78 96 88 77 58
92 101 19 78 111 109 98 76
117 127 8 78 128 132 119 95
142 152 -5 78 144 153 140 114
150 158 -23 63 145 161 148 119
157 163 -43 47 146 169 154 126
164 169 -62 30 146 176 160 131
171 174 -81 14 147 183 168 136
178 179 -101 -4 147 190 174 141
157 152 -97 -13 125 162 148 119
134 122 -90 -21 98 131 119 96
110 93 -83 -30 72 100 91 71
87 62 -76 -38 46 68 61 48
63 32 -69 -48 20 36 32 23
49 22 -60 -49 10 24 23 16
35 13 -51 -48 0 13 15 9
21 5 -40 -48 -11 2 6 3
8 -5 -31 -47 -20 -10 -3 -5
-7 -14 -22 -47 -30 -21 -11 -11
-8 -15 -19 -40 -29 -22 -12 -12
-8 -14 -16 -34 -26 -21 -11 -12
-9 -14 -13 -28 -24 -20 -11 -12
-9 -13 -10 -23 -21 -19 -10 -12
-9 -13 -7 -17 -19 -18 -10 -12
-11 -13 -6 -16 -19 -17 -9 -12
-13 -14 -5 -15 -20 -18 -10 -13
-14 -16 -4 -15 -22 -19 -11 -13
-16 -17 -3 -14 -23 -20 -12 -14
-17 -18 -2 -14 -24 -20 -12 -14
-18 -19 0 -13 -25 -21 -13 -15
-18 -20 0 -13 -26 -22 -13 -16
-18 -20 0 -13 -26 -22 -14 -16
-18 -21 0 -13 -27 -23 -14 -17
-18 -21 0 -13 -27 -23 -14 -17
-18 -22 -2 -14 -28 -24 -15 -18
-18 -22 -2 -14 -29 -24 -15 -18
-18 -22 -2 -13 -30 -25 -15 -19
-18 -22 -2 -13 -31 -25 -15 -19
-18 -22 -2 -13 -31 -25 -15 -19
-18 -22 -2 -12 -32 -26 -16 -20
-18 -21 -2 -13 -32 -26 -16 -20
-18 -21 -2 -13 -32 -26 -16 -20
-18 -20 -2 -14 -32 -26 -16 -20
-18 -20 -2 -14 -32 -26 -16 -20
-17 -19 -2 -15 -32 -26 -16 -20
-17 -19 -2 -14 -33 -26 -16 -20
-17 -19 0 -14 -33 -26 -16 -20
-17 -19 0 -13 -34 -26 -16 -20
-17 -19 0 -13 -34 -26 -16 -20
-18 -19 1 -12 -35 -27 -16 -21
-17 -19 0 -12 -35 -27 -16 -21
-17 -18 0 -12 -35 -26 -15 -20
-16 -18 -2 -12 -35 -26 -15 -20
-16 -18 -2 -12 -35 -26 -15 -20
-15 -17 -3 -12 -35 -25 -14 -19
-15 -17 -2 -11 -36 -25 -14 -20
-15 -17 -2 -10 -37 -25 -14 -20
-15 -17 0 -9 -38 -25 -14 -21
-15 -17 0 -9 -39 -25 -14 -21
-16 -18 1 -8 -40 -26 -14 -22
-16 -18 0 -8 -40 -26 -14 -22
-15 -17 0 -8 -40 -25 -14 -21
-15 -17 -2 -8 -40 -25 -14 -21
-15 -17 -2 -8 -40 -25 -14 -21
-14 -16 -3 -8 -41 -24 -13 -20
-14 -15 -3 -7 -43 -24 -13 -20
-14 -14 -3 -7 -44 -24 -12 -20
-14 -13 -3 -6 -45 -24 -12 -20
-14 -13 -3 -6 -45 -24 -12 -20
-13 -12 -2 -5 -46 -23 -11 -20
-12 -12 -2 -5 -46 -22 -11 -20
-11 -11 -2 -5 -46 -22 -10 -19
-10 -11 -2 -5 -46 -21 -10 -19
-9 -11 -2 -5 -46 -21 -10 -19
-8 -10 0 -4 -47 -20 -9 -18
-8 -9 0 -3 -48 -20 -9 -18
-8 -9 0 -2 -49 -20 -9 -18
-8 -8 0 0 -50 -20 -9 -18
-8 -8 0 1 -51 -20 -9 -18
-8 -7 -2 2 -52 -20 -8 -19
-7 -6 -2 2 -52 -19 -7 -18
-6 -6 -2 3 -51 -18 -7 -17
-5 -5 -2 3 -51 -17 -6 -16
-4 -5 -2 3 -51 -17 -6 -16
-3 -4 -3 5 -50 -16 -5 -15
-3 -4 -3 6 -50 -15 -5 -14
-2 -3 -3 7 -50 -14 -4 -14
-2 -3 -3 8 -50 -13 -4 -13
-2 -3 -3 9 -50 -13 -4 -13
1 -2 -3 10 -51 -12 -3 -12
3 0 -4 10 -51 -11 -2 -12
4 1 -4 10 -51 -10 0 -12
6 2 -5 10 -51 -9 1 -12
7 2 -5 10 -51 -9 1 -12
8 3 -6 12 -52 -7 2 -11
9 3 -6 13 -52 -6 3 -10
9 4 -5 15 -52 -5 3 -10
10 4 -5 17 -52 -4 4 -9
10 4 -5 18 -52 -3 4 -9
12 6 -4 19 -51 0 6 -7
13 8 -5 20 -50 2 7 -6
15 10 -5 21 -50 4 9 -5
16 12 -6 22 -49 6 10 -4
17 14 -6 23 -49 8 11 -3
19 16 -7 25 -48 10 13 -2
21 17 -7 26 -48 11 14 0
23 18 -7 28 -48 12 16 1
25 19 -7 29 -48 13 17 2
27 20 -7 30 -48 14 18 2
29 22 -7 31 -49 16 20 4
30 23 -8 31 -49 18 21 5
32 24 -8 31 -50 20 23 7
34 25 -9 31 -50 21 24 8
35 26 -9 31 -50 23 25 9
37 28 -10 32 -51 24 26 10
39 29 -10 33 -52 25 27 11
42 30 -11 33 -53 26 28 12
43 32 -11 34 -54 27 29 13
45 33 -11 34 -54 28 29 13
46 34 -12 35 -55 29 30 14
47 34 -13 35 -55 30 31 15
48 35 -13 35 -55 31 32 16
49 35 -14 35 -55 32 33 17
49 35 -14 35 -55 33 34 17
50 37 -15 35 -55 34 35 18
51 38 -15 35 -55 34 35 18
52 39 -15 35 -55 34 35 18
53 42 -15 35 -55 34 35 18
54 43 -15 35 -55 34 35 18
55 44 -16 34 -54 35 36 19
55 44 -16 33 -51 35 36 19
56 44 -16 32 -47 35 36 19
56 44 -16 31 -44 35 36 19
56 44 -16 30 -40 35 36 19
56 43 -17 29 -32 34 36 20
53 43 -16 29 -24 33 35 19
51 42 -15 28 -16 32 34 19
49 42 -14 28 -7 31 33 18
47 42 -14 28 2 30 33 18
45 39 -13 27 6 28 31 16
43 38 -12 27 9 27 30 15
40 37 -11 26 11 26 29 14
38 35 -10 26 14 24 27 12
36 34 -10 26 17 23 26 11
33 32 -9 25 18 21 24 9
31 31 -8 24 18 20 22 8
28 30 -8 24 18 18 20 7
26 28 -7 23 18 16 19 5
23 27 -7 23 18 15 17 4
20 24 -6 22 19 13 16 3
18 22 -5 21 19 12 15 2
15 19 -4 20 19 11 14 1
13 17 -3 19 19 9 13 0
10 14 -2 18 19 8 12 -2
8 12 0 17 20 7 10 -3
7 11 1 17 21 5 9 -4
5 10 1 17 22 4 8 -5
3 8 2 17 23 3 6 -6
2 7 2 17 23 2 5 -6
1 6 3 16 24 1 4 -7
0 5 3 14 24 0 3 -8
-2 5 2 13 24 0 2 -9
-3 4 2 12 24 -2 1 -10
-3 4 2 11 24 -2 1 -10
-4 3 1 10 23 -3 0 -11
-5 2 1 10 23 -3 0 -11
-6 1 2 10 22 -4 0 -12
-7 0 2 10 22 -4 0 -12
-7 0 2 10 22 -4 0 -12
-8 -2 3 10 21 -5 -2 -13
-8 -2 3 9 21 -5 -2 -13
-8 -2 3 8 21 -5 -2 -13
-8 -2 3 7 21 -5 -2 -13
-8 -2 3 7 21 -5 -2 -13
-7 -3 2 6 22 -6 -3 -14
-8 -3 2 6 22 -6 -3 -14
-9 -4 2 7 22 -6 -4 -14
-10 -4 2 7 22 -6 -4 -14
-10 -4 2 7 22 -6 -4 -14
-11 -5 2 8 23 -7 -5 -15
-10 -4 2 8 23 -7 -5 -15
-10 -4 2 7 24 -7 -5 -15
-9 -3 2 7 24 -7 -5 -15
-9 -3 2 7 24 -7 -5 -15
-8 -2 1 6 25 -6 -4 -16
-8 -2 1 6 25 -6 -4 -16
-8 -2 1 7 25 -6 -4 -16
-8 -2 1 7 25 -6 -4 -16
-8 -2 1 7 25 -6 -4 -16
-9 -3 2 8 25 -5 -4 -15
-9 -3 2 7 25 -4 -4 -14
-9 -3 2 7 26 -4 -3 -14
-9 -3 2 6 26 -3 -3 -13
-9 -3 2 6 26 -3 -3 -13
-9 -3 2 5 27 -2 -2 -12
-9 -3 2 5 27 -2 -2 -12
-9 -3 2 6 27 -3 -2 -12
-9 -3 2 6 27 -3 -2 -12
-9 -3 2 6 27 -3 -2 -12
-9 -3 3 7 27 -4 -3 -13
-9 -3 3 7 27 -4 -3 -13
-9 -3 3 7 27 -4 -3 -13
-9 -3 3 7 27 -4 -3 -13
-9 -3 3 7 27 -4 -3 -13
-9 -4 4 6 27 -3 -3 -14
-9 -4 4 6 27 -3 -3 -14
-9 -4 5 6 26 -3 -3 -14
-9 -4 5 6 26 -3 -3 -14
-9 -4 5 6 26 -3 -3 -14
-9 -3 6 6 25 -3 -4 -14
-9 -3 6 6 25 -3 -4 -14
-9 -3 6 5 25 -3 -4 -14
-9 -3 6 5 25 -3 -4 -14
-9 -3 6 5 25 -3 -4 -14
-9 -4 5 4 24 -4 -3 -13
-10 -4 5 4 24 -4 -3 -13
-11 -4 5 3 24 -4 -4 -13
-12 -4 5 3 24 -4 -4 -13
-12 -4 5 3 24 -4 -4 -13
-13 -4 4 2 23 -4 -5 -14
-13 -4 4 2 23 -4 -5 -14
-13 -4 4 1 23 -5 -6 -14
-13 -4 4 1 23 -5 -6 -14
-13 -4 4 1 23 -5 -6 -14
-13 -5 3 0 24 -6 -7 -14
-13 -6 3 0 24 -6 -7 -14
-13 -7 3 0 23 -7 -7 -14
-13 -8 3 0 23 -7 -7 -14
-13 -8 3 0 23 -7 -7 -14
-14 -9 3 -2 22 -8 -7 -14
-14 -8 3 -3 21 -8 -7 -14
-15 -8 2 -3 21 -9 -7 -14
-15 -7 2 -4 20 -9 -7 -14
-15 -7 2 -4 20 -9 -7 -14
-16 -6 1 -5 19 -10 -8 -14
-16 -7 1 -5 19 -10 -8 -14
-16 -8 1 -5 18 -10 -8 -14
-16 -9 1 -5 18 -10 -8 -14
-16 -9 1 -5 18 -10 -8 -14
-17 -10 1 -5 17 -11 -8 -14
-17 -10 1 -6 15 -11 -8 -14
-17 -10 1 -6 14 -11 -9 -14
-17 -10 1 -7 13 -11 -9 -14
-17 -10 1 -7 12 -11 -9 -14
-17 -11 0 -8 11 -12 -10 -15
-17 -11 0 -8 10 -12 -10 -15
-18 -11 0 -8 10 -13 -10 -15
-18 -11 0 -8 9 -13 -10 -15
-18 -11 0 -8 9 -13 -10 -15
-19 -11 -2 -7 8 -14 -11 -14
-19 -11 -2 -7 7 -14 -11 -14
-19 -11 -3 -7 6 -14 -11 -14
-19 -11 -3 -7 5 -14 -11 -14
-19 -11 -3 -7 4 -14 -11 -14
-19 -12 -4 -8 3 -14 -11 -15
-19 -12 -4 -8 3 -14 -11 -15
-19 -12 -4 -8 2 -14 -12 -15
-19 -12 -4 -8 2 -14 -12 -15
-19 -12 -4 -8 2 -14 -12 -15
-19 -13 -3 -8 1 -15 -13 -15
-19 -13 -3 -8 1 -15 -13 -15
-19 -13 -3 -8 0 -15 -13 -15
-19 -13 -3 -8 0 -15 -13 -15
-19 -13 -3 -8 0 -15 -13 -15
-19 -14 -4 -9 -2 -16 -13 -15
-19 -14 -4 -8 -3 -16 -13 -15
-19 -14 -4 -7 -4 -16 -13 -15
-19 -14 -4 -7 -4 -16 -13 -15
-19 -14 -4 -6 -5 -16 -13 -15
-18 -13 -4 -5 -6 -17 -13 -15
-18 -13 -4 -5 -6 -17 -13 -15
-18 -13 -4 -5 -6 -17 -13 -15
-18 -13 -4 -5 -6 -17 -13 -15
-18 -13 -4 -5 -6 -17 -13 -15
-18 -13 -5 -6 -6 -17 -14 -15
-18 -13 -5 -6 -6 -17 -14 -15
-18 -13 -4 -6 -7 -17 -14 -15
-18 -13 -4 -6 -7 -17 -14 -15
-18 -13 -4 -6 -7 -17 -14 -15
-18 -13 -3 -5 -8 -18 -14 -14
-18 -13 -3 -6 -8 -18 -14 -14
-17 -13 -4 -6 -9 -18 -14 -14
-17 -13 -4 -7 -9 -18 -14 -14
-17 -13 -4 -7 -9 -18 -14 -14
-16 -14 -5 -8 -10 -19 -14 -15
-16 -13 -5 -8 -10 -18 -13 -15
-16 -12 -5 -8 -10 -18 -12 -15
-16 -12 -5 -8 -10 -17 -12 -15
-16 -11 -5 -8 -10 -17 -11 -15
-16 -9 -4 -7 -10 -16 -10 -13
-15 -8 -3 -6 -9 -14 -10 -12
-14 -6 -2 -5 -8 -13 -9 -11
-13 -5 -2 -5 -7 -12 -9 -9
-12 -3 0 -4 -6 -11 -9 -8
-11 -2 2 -2 -5 -10 -8 -7
-11 1 4 0 -3 -9 -6 -6
-10 2 6 2 -2 -8 -5 -5
-10 4 8 3 0 -7 -3 -5
-10 5 10 5 1 -6 -2 -4
-8 6 11 6 2 -5 0 -3
-6 6 10 6 3 -5 0 -3
-5 6 10 6 3 -5 0 -2
-3 6 9 6 4 -5 0 -2
0 6 9 6 4 -5 0 -2
1 7 8 5 5 -5 -2 0
2 8 7 5 5 -5 -2 0
3 9 6 5 5 -5 -2 0
3 9 5 5 5 -5 -2 0
4 10 4 5 5 -5 -2 0
5 11 3 3 4 -4 0 1
4 9 1 2 2 -5 0 1
4 8 0 0 1 -5 -2 0
3 7 -2 -2 0 -6 -2 0
3 6 -3 -4 -2 -6 -2 0
2 4 -4 -5 -3 -7 -3 -2
2 3 -5 -7 -4 -9 -4 -3
1 1 -5 -8 -5 -10 -5 -3
1 0 -6 -9 -5 -11 -6 -4
1 -3 -6 -10 -6 -12 -7 -4
0 -4 -7 -11 -7 -13 -8 -5
-2 -5 -7 -13 -8 -14 -9 -6
-2 -6 -8 -14 -9 -15 -10 -7
-3 -7 -8 -16 -10 -16 -11 -8
-3 -8 -8 -17 -11 -17 -12 -9
-5 -9 -9 -18 -12 -18 -13 -10
-7 -11 -8 -18 -12 -18 -13 -10
-9 -12 -8 -18 -12 -18 -14 -11
-11 -13 -7 -18 -12 -18 -14 -11
-13 -14 -7 -18 -12 -18 -14 -11
-14 -15 -6 -17 -12 -19 -15 -12
-14 -15 -6 -18 -13 -20 -16 -12
-15 -15 -6 -18 -14 -20 -16 -12
-15 -15 -6 -19 -14 -21 -17 -12
-15 -15 -6 -19 -15 -21 -17 -12
-16 -15 -6 -20 -16 -22 -18 -11
-16 -15 -6 -20 -16 -22 -18 -11
-16 -16 -6 -20 -16 -22 -18 -11
-16 -16 -6 -20 -16 -22 -18 -11
-16 -16 -6 -20 -16 -22 -18 -11
-17 -17 -7 -21 -16 -22 -17 -12
-17 -17 -7 -22 -16 -22 -17 -12
-16 -16 -7 -22 -16 -22 -17 -11
-16 -16 -7 -23 -16 -22 -17 -11
-16 -16 -7 -23 -16 -22 -17 -11
-15 -15 -8 -24 -17 -22 -18 -10
-15 -15 -8 -24 -17 -22 -18 -10
-16 -15 -7 -25 -17 -22 -17 -10
-16 -15 -7 -25 -17 -22 -17 -10
-16 -15 -7 -25 -17 -22 -17 -10
-17 -15 -6 -26 -18 -21 -16 -10
-17 -15 -5 -26 -18 -21 -16 -10
-17 -15 -5 -25 -18 -21 -16 -10
-17 -15 -4 -25 -18 -21 -16 -10
-17 -15 -4 -25 -18 -21 -16 -10
-16 -15 0 -21 -17 -19 -17 -10
-17 -15 3 -15 -14 -18 -17 -10
-19 -15 7 -10 -10 -16 -16 -10
-20 -15 10 -4 -7 -14 -16 -10
-21 -15 13 3 -4 -12 -16 -10
-19 -11 17 10 4 -7 -12 -9
-15 -6 22 19 12 1 -7 -5
-10 0 26 27 20 8 0 0
-5 5 31 36 29 14 5 3
1 10 35 46 37 21 11 7
16 24 36 51 49 35 23 18
36 45 34 55 63 53 40 34
57 64 31 59 76 70 58 50
77 84 29 62 90 88 74 65
99 104 26 66 104 106 92 80
117 123 13 59 114 122 108 96
135 143 -8 46 121 138 123 109
153 162 -27 31 130 154 139 123
171 182 -47 17 138 170 155 138
188 201 -67 3 146 186 171 152
184 194 -75 -9 138 179 164 146
167 171 -77 -19 119 158 144 129
148 147 -80 -29 102 138 125 111
131 123 -82 -39 84 117 104 94
113 100 -86 -50 66 97 84 76
93 78 -80 -54 48 75 65 60
71 58 -69 -54 30 54 47 45
50 37 -58 -53 13 31 28 29
28 17 -47 -53 -5 10 10 15
7 -3 -35 -53 -22 -12 -9 0
-2 -11 -28 -46 -26 -19 -16 -7
-4 -10 -23 -36 -21 -17 -15 -7
-5 -9 -17 -26 -16 -15 -14 -7
-7 -9 -12 -17 -11 -12 -13 -7
-8 -8 -6 -7 -6 -10 -12 -7
-9 -7 -4 -3 -4 -9 -11 -6
-10 -8 -3 -3 -5 -11 -11 -8
-11 -10 -2 -4 -6 -12 -12 -9
-12 -11 -2 -4 -6 -14 -13 -11
-13 -12 0 -4 -7 -15 -13 -12
-14 -13 1 -5 -8 -16 -14 -13
-14 -13 1 -6 -8 -16 -15 -13
-15 -14 1 -7 -9 -17 -16 -14
-15 -14 1 -7 -9 -18 -16 -14
-15 -14 1 -8 -9 -18 -17 -14
-16 -15 2 -9 -10 -19 -18 -15
-16 -15 2 -9 -10 -19 -18 -15
-16 -15 2 -10 -10 -19 -18 -15
-16 -15 2 -10 -10 -19 -18 -15
-16 -15 2 -10 -10 -19 -18 -15
-16 -16 3 -10 -9 -19 -18 -16
-16 -16 3 -9 -9 -19 -18 -16
-16 -16 4 -7 -8 -19 -18 -16
-16 -16 4 -6 -8 -19 -18 -16
-16 -16 4 -4 -8 -19 -18 -16
-15 -16 5 -3 -7 -20 -17 -16
-15 -16 5 -2 -7 -20 -17 -16
-15 -16 5 0 -7 -20 -17 -16
-15 -16 5 1 -7 -20 -17 -16
-15 -16 5 2 -7 -20 -17 -16
-15 -16 5 3 -7 -21 -18 -16
-15 -16 5 3 -7 -21 -18 -16
-15 -16 5 3 -7 -21 -17 -16
-15 -16 5 3 -7 -21 -17 -16
-15 -16 5 3 -7 -21 -17 -16
-14 -16 5 4 -6 -20 -16 -15
-14 -16 5 3 -6 -20 -16 -15
-14 -16 5 2 -6 -20 -16 -15
-14 -16 5 2 -6 -20 -16 -15
-14 -16 5 1 -6 -20 -16 -15
-14 -15 6 0 -6 -20 -16 -16
-14 -15 6 0 -6 -20 -16 -16
-13 -14 6 0 -6 -19 -15 -15
-13 -13 6 0 -6 -19 -15 -15
-13 -13 6 0 -6 -19 -15 -15
-12 -12 7 1 -5 -18 -14 -14
-12 -12 7 1 -5 -18 -14 -14
-12 -12 7 0 -5 -17 -14 -14
-12 -12 7 0 -5 -16 -14 -14
-12 -12 7 0 -5 -16 -14 -14
-11 -11 6 -2 -5 -15 -14 -14
-11 -11 6 -2 -5 -15 -14 -14
-10 -11 6 -2 -5 -15 -13 -14
-9 -11 6 -2 -5 -15 -13 -14
-9 -11 6 -2 -5 -15 -13 -14
-8 -11 6 -2 -4 -14 -12 -14
-8 -11 6 -2 -4 -14 -12 -14
-8 -10 6 -2 -4 -13 -11 -13
-8 -9 6 -2 -4 -13 -10 -12
-8 -9 6 -2 -4 -13 -10 -12
-7 -8 6 0 -3 -12 -9 -11
-6 -7 6 0 -3 -12 -9 -10
-5 -6 6 -2 -3 -11 -9 -9
-5 -6 6 -2 -3 -10 -9 -9
-4 -5 6 -2 -3 -10 -9 -8
-3 -4 5 -3 -2 -9 -9 -7
-3 -4 5 -3 -2 -9 -9 -6
-2 -3 4 -2 0 -8 -8 -5
0 -2 4 -2 0 -8 -8 -5
0 -2 4 -2 0 -8 -8 -4
1 0 3 0 1 -7 -7 -3
2 0 3 2 1 -6 -6 -2
4 0 3 3 2 -5 -5 0
5 0 3 5 3 -5 -5 1
6 0 3 6 3 -4 -4 2
7 1 4 8 4 -3 -3 3
8 2 4 11 5 -2 -2 3
9 3 4 14 6 1 0 3
10 4 4 17 6 2 0 3
11 5 4 19 7 3 1 3
12 6 3 21 8 4 2 4
14 8 3 23 9 5 3 5
16 9 3 25 10 6 4 6
17 11 3 26 11 7 5 7
19 12 3 28 12 8 6 8
20 13 2 29 13 9 7 9
22 14 2 30 13 10 7 9
24 16 1 32 14 12 8 10
25 17 0 33 15 13 9 11
27 18 0 34 15 14 9 11
28 19 -2 35 16 15 10 12
30 21 -2 35 17 16 12 14
32 22 -2 36 18 17 13 15
33 23 -2 36 18 18 14 16
35 25 -2 36 19 19 16 18
37 26 -3 37 20 20 17 19
38 27 -3 37 20 21 18 20
40 28 -4 37 21 23 20 21
43 29 -4 37 22 24 21 22
45 30 -4 37 22 25 22 23
46 31 -5 36 23 26 23 24
47 31 -5 35 23 27 23 24
49 32 -6 34 23 28 24 25
50 33 -7 34 23 29 24 26
51 33 -7 33 23 30 24 26
52 34 -8 32 23 31 25 27
54 36 -8 32 23 31 26 27
56 37 -9 32 23 31 27 28
57 38 -9 32 23 31 27 29
59 40 -9 32 23 31 28 29
60 42 -10 32 23 31 29 30
60 42 -10 32 23 31 29 30
59 42 -10 32 23 31 29 30
59 42 -10 32 23 31 29 30
59 42 -10 32 23 31 29 30
58 43 -11 32 22 32 30 30
57 43 -11 31 22 32 30 30
56 42 -10 30 21 32 29 30
56 42 -10 30 21 32 29 30
55 42 -10 29 21 32 29 30
53 40 -9 28 20 31 28 31
51 38 -8 30 20 30 27 29
49 37 -7 32 19 29 26 28
47 36 -7 34 18 28 26 27
45 34 -6 36 18 27 25 25
43 33 -5 37 17 26 24 24
40 31 -4 37 16 24 22 23
37 29 -2 38 14 22 20 22
35 27 0 39 13 20 18 22
33 25 1 39 12 18 16 21
30 24 2 40 11 17 15 20
27 22 3 40 11 15 14 18
24 20 4 40 10 14 12 17
22 19 5 40 9 13 11 16
19 17 6 40 9 11 10 14
16 16 7 42 8 10 9 13
14 14 8 42 7 8 7 12
12 13 9 42 5 7 5 11
10 12 9 42 4 6 4 10
8 10 10 42 3 4 2 9
6 9 11 42 2 3 1 8
4 8 11 44 2 2 1 7
2 6 11 45 1 1 0 5
1 5 11 46 1 0 -2 4
-2 4 11 48 1 -2 -2 3
-3 3 12 51 0 -3 -3 2
-3 3 12 56 -2 -3 -3 2
-4 2 12 60 -3 -4 -4 2
-5 2 12 65 -4 -5 -5 2
-5 2 12 69 -5 -5 -5 2
-6 1 12 72 -6 -6 -6 1
-6 1 12 73 -6 -6 -6 1
-7 1 12 74 -6 -7 -7 1
-8 1 12 74 -6 -8 -7 1
-8 1 12 75 -6 -8 -7 1
-9 0 12 76 -7 -9 -8 0
-9 -2 12 76 -7 -9 -8 0
-9 -3 12 75 -7 -9 -8 0
-9 -3 12 75 -7 -9 -8 0
-9 -4 12 75 -7 -9 -8 0
-10 -5 12 74 -7 -10 -9 0
-10 -5 12 74 -7 -10 -9 0
-10 -5 12 74 -6 -10 -9 -2
-10 -5 12 74 -6 -10 -9 -2
-10 -5 12 74 -6 -10 -9 -2
-10 -5 12 73 -5 -10 -9 -3
-10 -5 12 73 -5 -10 -9 -3
-10 -5 12 73 -5 -10 -9 -3
-10 -5 12 73 -5 -10 -9 -3
-10 -5 12 73 -5 -10 -9 -3
-10 -5 12 72 -5 -9 -9 -3
-10 -5 12 72 -5 -9 -9 -3
-10 -5 12 72 -4 -9 -9 -2
-10 -5 12 72 -4 -9 -9 -2
-10 -5 12 72 -4 -9 -9 -2
-10 -4 13 71 -3 -8 -8 0
-10 -4 13 71 -3 -8 -8 0
-10 -4 13 70 -3 -8 -8 0
-10 -4 13 69 -3 -8 -8 0
-10 -4 13 69 -3 -8 -8 0
-10 -5 12 68 -2 -7 -9 1
-10 -5 12 68 -2 -7 -9 1
-10 -6 12 68 -2 -7 -9 1
-10 -7 13 68 -2 -7 -9 0
-10 -7 13 68 -2 -7 -9 0
-10 -8 14 67 -2 -7 -8 -2
-10 -8 14 65 -2 -7 -8 -2
-10 -8 14 64 -2 -7 -8 -2
-10 -8 14 63 -2 -7 -8 -2
-10 -8 14 61 -2 -7 -8 -2
-9 -8 13 60 -2 -6 -7 0
-9 -8 13 58 -2 -6 -7 0
-9 -8 13 57 -2 -6 -7 0
-9 -8 12 55 -2 -7 -8 0
-9 -8 12 53 -2 -7 -8 0
-10 -8 11 52 -2 -8 -9 0
-10 -8 11 50 -2 -8 -9 -2
-10 -8 11 49 -3 -8 -9 -2
-11 -7 11 48 -4 -9 -10 -3
-11 -7 11 46 -4 -9 -10 -4
-12 -6 10 45 -5 -10 -11 -5
-12 -6 10 44 -5 -10 -11 -5
-12 -6 10 44 -5 -10 -11 -5
-12 -6 10 43 -5 -10 -10 -4
-12 -6 10 42 -5 -10 -10 -4
-12 -7 11 40 -4 -10 -9 -3
-12 -7 11 40 -4 -10 -9 -3
-12 -7 11 40 -4 -10 -9 -3
-12 -7 11 39 -4 -10 -10 -3
-12 -7 11 39 -4 -10 -10 -3
-11 -8 11 38 -4 -11 -11 -4
-11 -8 11 37 -4 -11 -11 -4
-11 -8 11 37 -4 -11 -11 -4
-11 -9 11 36 -5 -12 -11 -4
-11 -9 11 35 -5 -12 -11 -4
-11 -10 11 34 -6 -13 -12 -3
-11 -10 11 34 -6 -13 -12 -3
-11 -10 11 34 -6 -13 -12 -3
-12 -9 11 34 -6 -13 -12 -3
-12 -9 11 34 -6 -13 -12 -3
-13 -8 11 35 -5 -13 -12 -4
-13 -8 11 35 -5 -13 -12 -4
-13 -8 11 34 -5 -13 -12 -4
-13 -8 11 33 -6 -14 -13 -4
-13 -8 11 33 -6 -14 -13 -4
-13 -9 10 32 -7 -15 -14 -5
-13 -9 10 31 -7 -15 -14 -5
-13 -9 10 31 -7 -15 -14 -5
-13 -9 9 30 -7 -15 -14 -6
-13 -9 9 29 -7 -15 -14 -6
-13 -9 8 28 -8 -15 -14 -7
-13 -9 8 28 -8 -15 -14 -7
-13 -9 8 28 -8 -15 -14 -7
-13 -9 8 27 -7 -15 -14 -7
-13 -9 8 27 -7 -15 -14 -7
-14 -10 9 26 -6 -16 -14 -8
-14 -10 9 25 -6 -16 -14 -8
-14 -10 9 24 -6 -16 -14 -8
-14 -10 9 22 -7 -16 -14 -8
-14 -10 9 21 -7 -16 -14 -8
-13 -9 8 20 -8 -16 -14 -7
-13 -9 8 20 -8 -16 -14 -7
-13 -9 8 20 -8 -16 -14 -7
-13 -10 8 19 -8 -16 -14 -8
-13 -10 8 19 -8 -16 -14 -8
-14 -11 8 18 -8 -16 -14 -9
-14 -11 8 17 -8 -16 -14 -9
-14 -11 8 17 -8 -16 -14 -9
-14 -10 8 16 -8 -16 -14 -9
-14 -10 8 15 -8 -16 -14 -9
-14 -9 7 14 -9 -17 -15 -9
-14 -9 7 14 -9 -17 -15 -9
-14 -9 7 14 -9 -17 -15 -9
-14 -9 7 14 -9 -17 -15 -9
-14 -9 7 14 -9 -17 -15 -9
-14 -10 7 13 -8 -18 -15 -9
-14 -10 7 13 -8 -18 -15 -9
-14 -10 7 13 -8 -18 -15 -9
-14 -10 7 12 -8 -18 -15 -9
-14 -10 7 12 -8 -18 -15 -9
-13 -11 8 11 -8 -18 -15 -9
-13 -11 8 11 -8 -18 -15 -9
-13 -11 8 10 -8 -18 -15 -9
-13 -11 8 9 -8 -17 -15 -9
-13 -11 8 9 -8 -17 -15 -9
-14 -11 9 8 -7 -16 -14 -9
-14 -11 9 8 -7 -16 -14 -9
-14 -11 9 7 -7 -16 -14 -9
-14 -12 8 6 -7 -16 -14 -9
-14 -12 8 6 -7 -16 -14 -9
-14 -13 7 5 -8 -17 -14 -9
-14 -13 7 5 -8 -17 -14 -9
-14 -13 7 4 -8 -17 -14 -9
-14 -13 7 3 -8 -17 -14 -10
-14 -13 7 3 -8 -17 -14 -10
-15 -13 7 2 -8 -18 -14 -11
-15 -13 7 2 -8 -18 -14 -11
-15 -13 7 2 -8 -18 -14 -11
-14 -13 7 2 -8 -18 -15 -11
-14 -13 7 2 -8 -18 -15 -11
-13 -12 7 1 -7 -17 -16 -10
-13 -12 7 1 -7 -17 -16 -10
-14 -12 7 1 -7 -17 -16 -10
-15 -12 7 1 -7 -17 -15 -10
-15 -12 7 1 -7 -17 -15 -10
-16 -13 6 0 -7 -17 -14 -10
-16 -13 6 0 -7 -17 -14 -10
-16 -13 6 0 -7 -17 -14 -10
-17 -13 7 0 -7 -17 -14 -10
-17 -13 7 0 -7 -17 -14 -10
-18 -14 8 0 -6 -16 -13 -9
-18 -14 8 0 -6 -16 -13 -9
-17 -14 8 0 -6 -16 -13 -9
-16 -14 8 0 -6 -16 -13 -9
-16 -14 8 0 -6 -16 -13 -9
-15 -13 7 1 -6 -16 -14 -9
-15 -13 7 1 -6 -16 -14 -9
-15 -14 7 1 -6 -16 -14 -9
-16 -15 7 1 -6 -16 -14 -9
-16 -15 7 1 -6 -16 -14 -9
-17 -16 7 2 -6 -16 -13 -9
-17 -16 7 2 -6 -16 -13 -9
-17 -16 7 2 -6 -16 -13 -9
-16 -15 7 3 -6 -16 -13 -9
-16 -15 7 3 -6 -16 -13 -9
-15 -14 8 4 -5 -16 -12 -9
-14 -13 8 4 -5 -16 -12 -9
-13 -12 8 5 -5 -16 -11 -9
-12 -10 8 6 -5 -15 -10 -9
-11 -9 8 6 -5 -15 -10 -9
-10 -8 9 7 -4 -14 -9 -8
-10 -5 11 8 -2 -13 -8 -7
-10 -3 13 9 0 -11 -7 -6
-9 0 15 10 2 -10 -6 -5
-9 2 16 11 4 -8 -5 -4
-8 4 18 12 5 -7 -4 -3
-8 4 18 12 5 -7 -4 -3
-7 4 19 13 5 -7 -4 -2
-6 4 20 14 6 -7 -3 0
-6 4 20 14 6 -7 -3 0
-5 5 21 15 7 -6 -2 1
-3 6 19 15 7 -6 -2 1
0 7 18 14 8 -6 -2 1
2 9 16 13 9 -5 0 1
4 10 14 13 9 -5 0 1
6 11 13 12 10 -4 1 1
6 10 13 11 10 -4 1 1
5 10 12 11 10 -4 1 1
4 9 11 10 9 -5 1 1
4 8 11 9 9 -5 1 1
3 7 10 8 8 -6 0 1
2 6 9 5 7 -6 -2 0
2 4 7 2 6 -7 -2 0
1 3 6 0 4 -8 -3 -2
0 1 4 -4 3 -8 -4 -3
-2 0 3 -6 2 -9 -5 -4
-2 -2 3 -7 1 -11 -6 -6
-3 -4 3 -8 -2 -12 -7 -7
-4 -5 2 -9 -3 -14 -9 -9
-4 -7 2 -10 -5 -15 -10 -10
-5 -8 1 -11 -6 -17 -11 -12
-7 -9 1 -11 -6 -17 -11 -12
-9 -10 1 -11 -6 -17 -11 -12
-11 -12 1 -12 -6 -17 -12 -12
-12 -13 1 -12 -6 -17 -12 -12
-14 -14 2 -13 -7 -18 -13 -12
-15 -15 2 -14 -8 -19 -13 -12
-16 -16 2 -15 -8 -19 -14 -12
-17 -17 1 -17 -9 -20 -15 -13
-18 -18 1 -18 -10 -21 -15 -13
-19 -19 0 -19 -11 -22 -16 -14
-19 -20 0 -19 -11 -22 -16 -14
-19 -20 0 -19 -11 -22 -16 -14
-19 -21 0 -19 -10 -21 -15 -14
-19 -22 0 -19 -10 -21 -15 -14
-20 -23 0 -19 -9 -20 -14 -13
-20 -23 0 -19 -9 -20 -14 -13
-20 -23 0 -19 -9 -20 -14 -13
-20 -23 0 -20 -10 -20 -14 -14
-20 -23 0 -20 -10 -20 -14 -14
-19 -23 -2 -21 -11 -20 -15 -15
-19 -23 -2 -21 -11 -20 -15 -15
-19 -23 -2 -21 -11 -20 -15 -15
-20 -22 -2 -20 -11 -20 -15 -14
-20 -22 -2 -20 -11 -20 -15 -14
-21 -21 0 -19 -10 -19 -14 -13
-21 -21 0 -19 -10 -19 -14 -13
-21 -21 0 -19 -10 -19 -14 -13
-21 -21 0 -19 -10 -19 -13 -13
-21 -21 0 -19 -10 -19 -13 -13
-21 -21 -2 -19 -11 -19 -12 -13
-21 -22 1 -16 -9 -18 -12 -13
-22 -22 3 -13 -7 -17 -12 -13
-23 -23 5 -9 -5 -16 -12 -13
-23 -24 7 -6 -4 -15 -12 -13
-24 -24 10 1 1 -13 -10 -13
-23 -21 15 11 7 -8 -7 -11
-22 -18 20 21 13 -4 -4 -9
-20 -15 25 31 20 2 0 -7
-19 -12 29 42 26 6 3 -6
-14 -6 33 50 34 14 9 0
1 7 34 56 45 26 21 10
14 20 34 62 55 38 32 20
28 33 35 68 65 51 45 30
42 46 36 74 75 63 56 40
59 63 33 78 87 78 70 54
82 89 21 75 100 99 91 72
107 115 8 72 113 119 111 91
131 141 -5 70 127 140 131 110
154 167 -18 67 141 160 151 129
170 183 -31 60 148 174 164 142
167 174 -44 43 139 170 161 139
162 164 -56 25 130 165 158 136
159 155 -68 9 120 161 154 133
155 146 -80 -9 111 157 151 130
144 131 -88 -23 98 145 139 120
116 103 -78 -29 74 114 110 95
89 74 -70 -35 51 82 81 70
61 46 -62 -43 26 52 53 46
33 17 -53 -49 3 21 24 21
13 -3 -45 -52 -14 0 4 4
7 -6 -36 -45 -14 -4 2 2
2 -9 -29 -37 -14 -7 -2 0
-4 -11 -21 -30 -14 -9 -4 -3
-10 -14 -14 -22 -14 -12 -6 -5
-14 -16 -8 -17 -13 -14 -8 -7
-14 -16 -7 -16 -13 -14 -8 -7
-14 -17 -6 -15 -13 -13 -8 -7
-15 -17 -5 -14 -13 -13 -7 -7
-15 -18 -4 -13 -13 -12 -7 -7
-16 -19 -3 -12 -12 -11 -6 -6
-17 -19 -3 -11 -13 -12 -7 -7
-17 -19 -3 -10 -14 -13 -8 -8
-18 -19 -3 -9 -15 -14 -9 -9
-19 -19 -3 -8 -17 -16 -10 -11
-20 -20 -4 -7 -18 -17 -11 -12
-20 -20 -4 -7 -18 -17 -11 -12
-20 -20 -3 -7 -18 -17 -11 -12
-20 -21 -3 -7 -19 -17 -11 -12
-20 -21 -2 -7 -19 -17 -11 -12
-21 -22 0 -6 -20 -18 -10 -12
-21 -22 0 -5 -20 -18 -10 -12
-21 -22 0 -4 -20 -18 -10 -12
-22 -22 0 -3 -20 -18 -10 -12
-22 -22 0 0 -20 -18 -10 -12
-23 -22 1 1 -19 -18 -11 -13
-23 -22 1 1 -20 -18 -11 -13
-22 -22 1 1 -20 -18 -11 -13
-22 -22 0 1 -21 -18 -11 -13
-21 -22 0 1 -22 -18 -11 -13
-20 -22 -2 0 -23 -19 -11 -12
-20 -22 -2 1 -23 -19 -11 -12
-20 -22 -2 2 -23 -19 -11 -12
-20 -22 0 3 -23 -19 -10 -12
-20 -22 0 5 -23 -19 -10 -12
-21 -22 1 6 -22 -18 -9 -12
-21 -22 1 6 -22 -18 -9 -12
-20 -22 1 6 -22 -18 -9 -12
-20 -22 1 6 -22 -18 -9 -12
-19 -22 1 6 -22 -18 -9 -12
-18 -22 0 5 -21 -18 -10 -13
-18 -22 0 5 -20 -17 -9 -12
-18 -22 0 5 -20 -17 -9 -11
-18 -23 0 6 -19 -16 -8 -10
-18 -23 0 6 -18 -15 -7 -9
-19 -24 1 7 -17 -14 -6 -8
-19 -23 1 8 -17 -14 -6 -8
-19 -23 1 9 -17 -14 -6 -8
-19 -22 1 10 -18 -14 -6 -9
-19 -21 1 11 -18 -14 -6 -9
-19 -20 2 12 -19 -14 -6 -10
-19 -20 2 14 -19 -14 -6 -9
-18 -20 2 16 -19 -14 -6 -9
-18 -20 2 18 -19 -14 -5 -8
-17 -20 2 20 -19 -14 -5 -7
-16 -20 1 22 -19 -14 -4 -6
-16 -19 1 22 -19 -14 -4 -6
-15 -18 1 23 -19 -13 -3 -6
-15 -17 1 23 -19 -13 -3 -6
-14 -15 1 24 -19 -12 -2 -6
-13 -14 1 25 -20 -11 0 -5
-13 -14 1 26 -20 -11 0 -5
-13 -14 1 27 -20 -10 0 -5
-13 -14 1 28 -19 -10 1 -5
-13 -14 1 29 -19 -9 1 -5
-12 -14 1 30 -18 -8 2 -4
-11 -14 1 30 -18 -8 2 -4
-10 -13 1 30 -18 -8 3 -4
-9 -13 1 30 -18 -7 3 -4
-8 -12 1 30 -18 -7 4 -4
-7 -11 0 31 -19 -6 5 -4
-6 -10 0 32 -19 -5 5 -3
-5 -10 0 33 -19 -5 5 -3
-4 -9 0 34 -19 -4 6 -2
-3 -8 0 35 -19 -3 6 0
-2 -7 0 36 -19 -2 7 1
0 -7 0 37 -18 -2 7 1
0 -6 0 38 -18 0 8 2
1 -6 -2 39 -17 0 8 2
2 -5 -2 42 -16 1 9 3
3 -4 -3 43 -15 2 10 4
4 -3 -3 43 -15 2 11 4
5 -3 -3 43 -15 2 11 4
6 -2 -4 43 -15 3 12 5
8 0 -4 43 -15 3 13 5
9 1 -5 44 -14 4 14 6
10 3 -5 45 -13 6 15 7
11 4 -5 45 -12 8 16 8
12 6 -5 46 -11 9 17 9
13 7 -5 47 -10 11 19 10
14 9 -6 48 -9 13 20 11
16 10 -6 48 -9 14 21 12
18 12 -7 49 -8 15 22 13
21 13 -7 49 -8 16 23 14
23 14 -8 50 -7 17 24 16
25 16 -9 51 -6 18 25 17
27 17 -9 51 -6 19 26 18
29 18 -9 52 -6 20 27 19
30 19 -9 53 -5 21 28 20
32 21 -9 54 -5 22 30 21
34 22 -10 55 -4 23 31 22
35 23 -10 55 -4 24 32 23
36 24 -11 55 -4 25 33 24
37 25 -11 56 -3 26 34 25
38 26 -12 56 -3 27 35 26
39 27 -13 57 -2 28 36 27
42 28 -13 56 -2 28 36 27
44 30 -14 55 -3 28 36 27
45 31 -14 54 -3 28 36 27
47 32 -15 53 -4 28 36 27
49 34 -16 52 -5 28 37 26
49 34 -16 52 -5 28 37 26
49 33 -16 52 -5 29 38 27
50 33 -16 52 -4 29 39 27
50 32 -16 52 -4 30 40 28
51 31 -17 52 -3 31 42 29
51 31 -17 51 -4 31 42 29
51 32 -17 49 -5 31 42 29
51 32 -18 48 -6 30 42 30
51 33 -18 47 -8 30 42 30
52 34 -19 45 -9 29 40 31
51 34 -18 45 -9 29 40 31
49 33 -16 46 -9 29 40 31
48 33 -15 47 -9 28 40 31
47 32 -14 48 -9 28 40 31
45 31 -12 49 -10 27 42 30
43 30 -12 48 -11 26 40 29
39 29 -12 47 -12 24 38 27
37 28 -12 46 -13 23 36 26
34 27 -12 45 -15 22 35 25
32 26 -12 44 -16 20 33 23
30 24 -10 44 -16 19 32 23
27 22 -9 44 -17 18 31 22
25 19 -7 44 -18 17 30 21
22 17 -5 44 -19 15 29 20
20 15 -3 45 -20 14 28 19
17 14 -3 44 -21 13 26 18
15 13 -3 43 -22 11 25 17
12 12 -2 42 -23 9 23 16
10 10 -2 40 -25 8 21 14
7 9 0 39 -26 6 19 13
6 8 0 38 -27 5 18 13
4 6 0 37 -28 4 17 12
2 5 1 36 -29 3 16 11
1 4 1 35 -30 1 15 10
-2 2 2 34 -31 0 14 9
-3 1 2 34 -31 0 14 9
-5 -2 2 33 -32 -2 14 8
-6 -3 3 32 -33 -2 14 8
-7 -4 3 31 -34 -3 14 7
-9 -6 4 30 -35 -4 13 6
-9 -6 4 30 -35 -4 12 5
-10 -7 5 30 -35 -4 11 4
-10 -7 5 30 -35 -5 10 3
-11 -8 6 30 -35 -5 9 2
-12 -9 7 30 -36 -6 8 1
-12 -9 7 29 -36 -6 8 1
-12 -10 7 27 -37 -6 8 2
-12 -10 7 26 -37 -7 8 3
-12 -11 7 25 -38 -7 8 4
-13 -12 6 23 -39 -8 8 5
-13 -12 6 23 -39 -8 8 5
-14 -12 6 23 -39 -8 8 5
-14 -12 6 23 -39 -8 8 4
-15 -12 6 23 -39 -8 8 4
-16 -12 6 23 -39 -8 8 3
-16 -12 6 23 -39 -8 8 3
-16 -12 6 23 -39 -8 8 2
-16 -12 6 22 -40 -8 8 2
-16 -12 6 22 -40 -8 8 1
-15 -13 6 21 -41 -9 8 0
-15 -13 6 21 -41 -9 8 0
-15 -12 6 21 -41 -9 8 0
-15 -12 7 21 -41 -9 8 0
-15 -11 7 21 -41 -9 8 0
-16 -10 8 22 -41 -8 8 1
-16 -10 8 22 -40 -8 8 1
-16 -10 8 22 -38 -8 8 1
-16 -10 8 21 -37 -8 8 2
-16 -10 8 21 -36 -8 8 2
-15 -9 8 20 -34 -8 7 3
-15 -9 8 20 -31 -8 7 3
-15 -10 8 20 -29 -8 7 3
-15 -11 8 20 -26 -8 8 3
-15 -12 8 20 -24 -8 8 3
-15 -13 8 21 -21 -7 9 3
-15 -13 8 21 -21 -7 9 3
-15 -13 8 20 -21 -8 8 2
-15 -12 7 20 -21 -9 8 1
-15 -12 7 19 -21 -10 7 0
-14 -11 6 18 -21 -11 6 -2
-14 -11 6 18 -20 -11 6 -2
-14 -11 6 18 -19 -11 6 -2
-14 -11 6 18 -18 -11 6 -2
-14 -11 6 18 -17 -11 6 -2
-15 -10 7 18 -15 -11 6 0
-15 -10 7 18 -14 -11 6 0
-15 -10 7 18 -13 -11 6 0
-15 -10 7 17 -12 -11 6 0
-15 -10 7 17 -11 -11 6 0
-15 -10 8 16 -9 -10 7 0
-15 -10 8 16 -9 -10 7 0
-15 -10 8 16 -10 -11 7 0
-15 -11 7 15 -10 -11 6 0
-15 -11 7 15 -11 -12 6 0
-15 -12 6 14 -12 -13 5 -2
-15 -12 6 14 -12 -13 5 -2
-15 -12 6 14 -12 -13 5 -2
-15 -12 6 13 -12 -13 5 -3
-15 -12 6 13 -12 -13 5 -3
-16 -13 6 12 -13 -13 4 -4
-16 -13 6 12 -13 -13 4 -4
-16 -13 6 12 -13 -13 4 -4
-16 -12 6 12 -12 -13 4 -3
-16 -12 6 12 -12 -13 4 -3
-16 -11 7 13 -11 -13 5 -2
-16 -11 7 13 -11 -13 5 -2
-16 -11 7 13 -11 -14 4 -3
-16 -11 7 13 -12 -14 4 -3
-16 -11 7 13 -12 -15 3 -4
-17 -12 6 12 -13 -16 2 -5
-17 -12 6 12 -13 -16 2 -5
-17 -12 6 12 -13 -16 2 -5
-17 -12 6 11 -13 -16 1 -5
-17 -12 6 11 -13 -16 1 -5
-18 -12 7 10 -14 -17 0 -5
-18 -12 7 10 -14 -17 0 -5
-18 -12 7 10 -14 -17 0 -5
-18 -12 7 9 -15 -17 0 -5
-18 -12 7 9 -15 -17 0 -5
-17 -13 6 8 -16 -17 0 -5
-17 -13 6 8 -16 -17 0 -5
-17 -13 6 8 -16 -17 0 -5
-17 -13 6 8 -16 -17 0 -5
-17 -13 6 8 -16 -17 0 -5
-16 -13 5 7 -17 -17 1 -5
-16 -13 5 7 -17 -17 1 -5
-16 -13 5 7 -17 -17 1 -5
-16 -12 5 7 -17 -17 1 -5
-16 -12 5 7 -17 -17 1 -5
-16 -11 5 6 -17 -18 1 -4
-16 -11 5 6 -17 -18 1 -4
-16 -12 5 6 -17 -18 1 -4
-16 -13 5 6 -17 -18 1 -5
-16 -14 5 6 -17 -18 1 -5
-17 -15 6 5 -17 -19 0 -6
-17 -15 6 5 -17 -19 0 -6
-17 -15 6 4 -17 -19 0 -6
-17 -15 5 4 -18 -19 0 -6
-17 -15 5 3 -18 -19 0 -6
-17 -14 4 2 -19 -19 -2 -6
-17 -14 4 2 -19 -19 -2 -6
-17 -13 4 2 -19 -19 -2 -6
-17 -13 4 1 -19 -19 -3 -7
-17 -12 4 1 -19 -19 -3 -7
-17 -11 4 0 -19 -20 -4 -8
-17 -11 4 0 -19 -20 -4 -8
-17 -11 4 0 -19 -20 -4 -8
-17 -11 3 0 -20 -21 -4 -8
-17 -11 3 0 -20 -21 -4 -8
-16 -11 2 -2 -21 -22 -4 -7
-16 -11 2 -2 -21 -22 -4 -7
-16 -11 3 0 -21 -22 -4 -7
-16 -12 3 0 -20 -22 -4 -7
-16 -12 4 1 -20 -22 -4 -7
-17 -13 5 2 -19 -21 -4 -6
-17 -13 5 2 -19 -21 -4 -6
-17 -13 5 2 -19 -21 -4 -6
-17 -13 5 1 -19 -21 -4 -6
-17 -13 5 1 -19 -21 -4 -6
-17 -12 4 0 -19 -20 -3 -5
-17 -12 4 0 -19 -20 -3 -5
-17 -12 4 -2 -19 -20 -3 -6
-17 -12 4 -2 -19 -20 -4 -6
-17 -12 4 -3 -19 -20 -4 -7
-16 -13 3 -4 -18 -20 -5 -8
-16 -13 3 -4 -18 -20 -5 -8
-17 -13 3 -4 -18 -20 -5 -8
-17 -13 3 -5 -18 -20 -6 -8
-18 -13 3 -5 -18 -20 -6 -8
-19 -13 4 -6 -17 -21 -7 -9
-19 -13 4 -6 -17 -21 -7 -9
-18 -13 4 -6 -17 -21 -7 -9
-18 -13 3 -6 -16 -20 -7 -8
-17 -13 3 -6 -16 -20 -7 -8
-16 -12 2 -6 -15 -19 -7 -7
-16 -12 2 -6 -15 -19 -7 -7
-16 -12 3 -6 -14 -18 -7 -7
-16 -12 4 -6 -13 -18 -6 -7
-16 -12 5 -6 -12 -17 -6 -7
-15 -11 6 -5 -11 -16 -5 -8
-15 -9 6 -5 -11 -15 -5 -7
-14 -7 6 -4 -10 -14 -4 -6
-13 -5 7 -4 -9 -13 -3 -4
-12 -3 7 -3 -8 -12 -2 -3
-11 0 8 -2 -7 -10 0 0
-11 1 9 0 -7 -10 0 0
-11 3 11 1 -6 -9 1 0
-10 4 13 2 -5 -9 2 1
-10 6 15 3 -4 -8 3 1
-9 8 17 5 -3 -7 4 2
-8 8 17 5 -3 -7 4 2
-7 8 17 5 -3 -7 4 2
-6 7 16 5 -3 -7 3 1
-5 7 16 5 -3 -7 3 1
-3 6 15 6 -4 -8 2 0
-3 7 14 6 -4 -8 2 0
-2 8 13 5 -3 -8 3 0
0 9 11 5 -2 -7 3 0
1 10 10 4 0 -7 4 0
2 11 8 3 1 -6 5 1
2 10 7 1 0 -6 4 1
1 9 6 -2 -2 -7 3 1
0 8 4 -4 -3 -7 2 1
-2 7 3 -6 -4 -8 1 1
-3 5 1 -9 -5 -9 0 0
-3 5 1 -10 -6 -10 0 0
-3 4 1 -12 -8 -11 -2 -2
-3 3 0 -14 -9 -12 -3 -2
-3 2 0 -16 -11 -13 -4 -3
-4 1 -2 -18 -13 -15 -5 -4
-5 -2 -2 -18 -13 -15 -5 -5
-6 -5 -3 -19 -13 -16 -6 -6
-7 -7 -4 -19 -13 -17 -7 -7
-8 -10 -5 -20 -13 -18 -8 -8
-9 -13 -6 -21 -13 -19 -9 -10
-10 -13 -5 -21 -13 -19 -9 -10
-11 -13 -4 -21 -13 -19 -9 -10
-12 -14 -3 -20 -12 -19 -10 -10
-13 -14 -2 -20 -12 -19 -10 -10
-14 -15 0 -19 -11 -19 -11 -10
-15 -16 0 -20 -12 -20 -12 -11
-16 -17 -2 -21 -13 -21 -13 -12
-17 -18 -2 -22 -14 -22 -14 -13
-18 -19 -3 -23 -15 -23 -15 -14
-19 -20 -4 -25 -16 -24 -16 -15
-19 -20 -4 -25 -16 -24 -16 -15
-19 -19 -4 -24 -15 -24 -16 -15
-19 -18 -4 -24 -14 -24 -16 -15
-19 -17 -4 -23 -13 -24 -16 -15
-18 -16 -3 -22 -12 -23 -15 -15
-18 -16 -3 -22 -12 -23 -15 -15
-18 -17 -4 -22 -12 -23 -15 -15
-19 -17 -4 -22 -13 -23 -16 -15
-19 -18 -5 -22 -13 -23 -16 -15
-20 -19 -6 -23 -14 -24 -17 -16
-20 -19 -6 -23 -14 -24 -17 -16
-20 -19 -6 -23 -14 -23 -16 -16
-20 -18 -6 -22 -14 -23 -16 -15
-20 -18 -6 -22 -14 -22 -15 -15
-19 -17 -5 -21 -13 -21 -14 -14
-19 -17 -5 -20 -13 -21 -14 -14
-20 -17 -4 -19 -13 -21 -14 -15
-20 -17 -4 -18 -13 -21 -15 -15
-21 -17 -3 -17 -13 -21 -15 -16
-22 -18 -2 -15 -13 -22 -16 -17
-23 -18 3 -9 -9 -20 -15 -17
-24 -18 7 -3 -5 -18 -14 -17
-26 -19 11 4 0 -15 -13 -16
-27 -19 15 10 4 -13 -12 -16
-29 -20 19 16 9 -10 -10 -15
-23 -15 23 27 18 -3 -5 -11
-17 -9 28 38 27 6 1 -6
-11 -3 32 50 36 14 7 0
-5 4 37 61 47 21 12 5
2 10 43 72 56 29 18 10
21 29 40 76 70 48 35 25
40 50 37 81 86 66 54 40
59 69 34 87 100 84 71 55
78 90 31 92 114 102 90 70
98 109 28 97 130 120 107 86
113 127 11 85 138 136 122 99
130 144 -6 71 147 152 138 113
146 161 -23 58 155 169 153 127
161 179 -39 46 164 184 169 140
178 196 -57 32 174 200 184 154
161 172 -62 17 150 176 160 135
145 146 -67 1 127 150 136 114
129 121 -72 -15 104 126 112 94
111 96 -77 -30 80 100 88 74
95 71 -83 -47 57 75 64 54
74 54 -74 -50 40 56 48 40
55 36 -65 -53 23 35 32 28
34 19 -56 -56 6 16 16 15
14 1 -47 -59 -11 -4 0 2
-7 -17 -36 -63 -28 -24 -17 -12
-7 -16 -31 -56 -24 -23 -17 -12
-8 -15 -26 -48 -20 -21 -16 -12
-9 -14 -20 -40 -16 -19 -15 -11
-10 -13 -15 -32 -12 -17 -14 -11
-11 -11 -9 -24 -8 -15 -13 -10
-12 -12 -9 -23 -8 -15 -13 -10
-13 -13 -8 -22 -8 -16 -13 -10
-14 -14 -7 -21 -8 -16 -13 -11
-15 -15 -6 -20 -8 -17 -13 -11
-17 -16 -5 -18 -9 -18 -14 -12
-17 -16 -5 -18 -9 -18 -14 -12
-17 -16 -5 -18 -10 -18 -15 -12
-17 -16 -5 -19 -10 -19 -15 -13
-17 -16 -5 -19 -11 -19 -16 -13
-18 -17 -4 -20 -12 -20 -17 -14
-18 -17 -4 -20 -12 -20 -17 -14
-18 -17 -4 -21 -12 -20 -18 -15
-19 -17 -3 -21 -13 -21 -18 -15
-19 -17 -3 -22 -13 -21 -19 -16
-19 -17 -3 -22 -13 -21 -19 -16
-20 -18 -2 -23 -14 -22 -20 -17
-20 -17 -2 -23 -14 -22 -20 -17
-20 -17 -3 -23 -14 -22 -20 -17
-20 -16 -3 -23 -14 -22 -20 -17
-20 -16 -3 -23 -14 -22 -20 -17
-19 -15 -4 -23 -14 -22 -19 -16
-18 -15 -4 -23 -14 -22 -19 -16
-18 -16 -4 -23 -15 -22 -19 -16
-17 -16 -4 -23 -15 -22 -19 -16
-17 -16 -4 -23 -15 -22 -19 -16
-16 -17 -3 -23 -16 -22 -18 -16
-16 -17 -3 -22 -16 -22 -18 -16
-17 -16 -3 -22 -15 -22 -18 -16
-17 -16 -3 -21 -15 -22 -18 -16
-17 -16 -3 -21 -15 -22 -18 -16
-18 -15 -4 -20 -14 -22 -18 -15
-18 -15 -4 -19 -14 -22 -18 -15
-18 -16 -3 -18 -14 -22 -18 -15
-18 -16 -3 -17 -14 -22 -18 -15
-18 -16 -3 -17 -14 -22 -18 -15
-18 -17 -2 -16 -14 -21 -17 -14
-18 -17 -2 -16 -14 -21 -17 -14
-17 -17 -2 -16 -14 -21 -17 -14
-17 -17 -2 -16 -14 -21 -17 -14
-17 -17 -2 -16 -14 -21 -17 -14
-16 -17 -3 -15 -14 -21 -18 -15
-16 -17 -3 -14 -14 -21 -18 -15
-16 -17 -2 -12 -14 -20 -18 -15
-16 -17 -2 -11 -14 -20 -18 -15
-16 -17 -2 -10 -14 -20 -18 -15
-15 -16 0 -9 -15 -19 -17 -14
-14 -15 -2 -9 -14 -18 -17 -14
-13 -13 -3 -8 -13 -18 -16 -14
-12 -12 -4 -8 -12 -17 -16 -14
-12 -11 -4 -8 -11 -17 -16 -14
-11 -10 -5 -6 -8 -16 -15 -15
-11 -10 -5 -5 -6 -16 -15 -14
-11 -10 -4 -4 -3 -16 -15 -14
-11 -10 -4 -3 0 -16 -15 -13
-11 -10 -4 -2 2 -16 -15 -13
-10 -11 -3 0 4 -15 -14 -12
-9 -11 -4 0 5 -14 -14 -12
-8 -11 -4 0 7 -14 -13 -12
-7 -11 -5 0 8 -13 -13 -12
-7 -11 -5 0 9 -13 -13 -12
-6 -11 -6 2 11 -12 -12 -12
-5 -10 -6 3 12 -11 -12 -12
-5 -9 -6 4 14 -10 -11 -12
-4 -8 -6 5 15 -9 -11 -12
-4 -8 -6 6 16 -9 -11 -12
-3 -7 -7 7 18 -8 -10 -11
-3 -7 -7 8 19 -7 -9 -10
-2 -6 -7 9 21 -6 -8 -9
-2 -6 -7 10 22 -5 -7 -8
-2 -6 -7 10 23 -4 -6 -7
0 -5 -7 12 25 -3 -5 -6
1 -4 -7 14 26 -2 -5 -6
2 -3 -6 15 27 0 -4 -6
3 -2 -6 17 28 1 -4 -6
3 -2 -6 18 29 2 -4 -6
5 1 -5 19 30 4 -2 -4
7 2 -5 19 31 5 0 -3
9 4 -6 19 32 7 2 0
11 5 -6 19 33 8 3 1
12 6 -6 19 33 9 4 2
14 8 -7 21 34 11 6 3
15 9 -7 23 35 12 7 4
17 11 -8 24 36 14 9 5
18 12 -8 26 37 15 10 6
19 13 -8 27 38 16 11 7
21 15 -9 28 39 18 12 8
23 16 -9 29 40 19 13 9
25 18 -9 29 42 20 14 10
27 19 -9 30 43 21 15 11
28 20 -9 30 43 22 15 11
30 21 -10 31 44 24 17 12
32 21 -11 32 44 25 18 13
33 22 -11 32 44 26 20 14
35 22 -12 33 44 27 21 15
36 22 -12 33 44 28 22 16
38 24 -13 34 44 29 23 18
39 26 -13 34 45 30 24 19
42 28 -14 34 46 31 25 20
43 30 -14 34 47 32 26 21
44 31 -14 34 47 33 27 22
45 32 -15 34 48 34 28 23
45 32 -15 35 48 35 29 24
46 32 -15 35 48 36 30 24
46 32 -15 36 48 37 31 25
46 32 -15 36 48 37 31 25
47 32 -16 36 48 38 32 26
48 32 -16 35 48 38 32 26
48 32 -17 33 48 38 32 27
49 32 -17 32 48 38 32 27
49 32 -17 31 48 38 32 27
49 33 -18 30 47 38 33 27
48 33 -17 30 46 37 32 25
46 33 -16 29 45 36 32 23
45 33 -15 29 44 35 31 21
44 33 -14 29 43 35 31 20
43 31 -13 28 42 33 30 19
42 30 -12 28 40 32 29 19
40 29 -12 28 39 30 28 18
39 28 -11 28 38 29 27 18
38 27 -11 28 37 28 27 18
35 24 -9 27 35 26 25 16
32 22 -7 27 34 24 23 15
29 20 -6 27 33 22 21 13
26 18 -4 27 32 20 19 12
23 16 -3 27 31 19 17 11
20 14 -2 25 29 17 15 9
18 12 0 24 28 16 13 7
15 10 0 23 26 14 12 6
12 8 1 22 25 13 10 4
10 7 1 21 24 12 9 3
8 6 3 20 23 10 8 2
6 5 4 20 22 9 7 1
4 4 5 20 21 8 6 0
2 3 6 20 20 7 5 -2
0 3 7 20 19 6 5 -3
-2 1 8 20 18 4 3 -5
-2 0 8 19 17 3 1 -6
-3 -3 8 19 16 1 -2 -8
-3 -4 8 18 15 0 -4 -9
-3 -5 8 18 14 -2 -5 -10
-5 -6 7 17 12 -3 -6 -11
-7 -6 7 16 11 -4 -6 -11
-8 -7 7 16 10 -5 -7 -11
-10 -7 7 15 9 -6 -7 -11
-11 -7 7 15 8 -7 -7 -11
-12 -8 8 14 7 -8 -8 -12
-12 -9 8 14 6 -8 -9 -12
-12 -10 8 13 6 -9 -9 -12
-12 -11 8 13 5 -9 -10 -12
-12 -12 8 13 5 -9 -10 -12
-12 -13 8 12 4 -10 -11 -13
-13 -13 9 12 4 -10 -11 -13
-13 -13 9 13 4 -10 -11 -13
-14 -13 10 13 4 -10 -11 -13
-14 -13 10 13 4 -10 -11 -13
-15 -14 11 14 3 -9 -10 -13
-15 -15 11 15 3 -9 -10 -13
-14 -16 11 15 3 -9 -10 -13
-14 -17 11 16 3 -9 -10 -13
-14 -17 11 16 3 -9 -10 -13
-13 -18 11 17 4 -9 -11 -13
-13 -18 11 17 4 -9 -11 -12
-13 -18 11 17 3 -9 -10 -11
-13 -18 11 17 3 -9 -10 -10
-13 -18 11 17 3 -9 -10 -10
-14 -17 10 17 2 -9 -9 -9
-14 -16 10 17 2 -9 -9 -10
-13 -15 10 17 2 -9 -9 -10
-13 -14 10 17 2 -9 -9 -11
-13 -13 10 17 2 -9 -9 -11
-12 -12 9 18 2 -9 -10 -12
-13 -13 9 18 2 -9 -10 -12
-13 -13 10 18 2 -8 -10 -12
-14 -14 10 18 2 -8 -10 -12
-14 -14 10 18 2 -8 -10 -12
-15 -15 11 19 2 -7 -9 -11
-15 -15 11 19 2 -7 -9 -11
-15 -15 11 19 2 -7 -9 -11
-15 -15 11 19 2 -7 -9 -11
-15 -15 11 19 2 -7 -9 -11
-14 -14 12 20 3 -8 -9 -11
-14 -14 12 20 2 -8 -9 -11
-15 -15 12 20 2 -8 -10 -11
-15 -15 12 20 1 -8 -10 -11
-15 -15 12 20 1 -8 -10 -11
-16 -16 11 19 0 -8 -11 -11
-16 -16 11 19 0 -8 -11 -11
-16 -16 10 18 0 -8 -11 -10
-16 -16 10 18 0 -8 -11 -10
-16 -16 10 18 0 -8 -11 -10
-15 -16 9 17 -2 -8 -10 -9
-15 -16 9 18 -2 -8 -10 -9
-15 -16 10 18 -2 -8 -10 -9
-15 -16 10 19 -2 -8 -10 -9
-15 -16 10 19 -2 -8 -10 -9
-15 -15 11 20 -3 -8 -10 -9
-15 -15 11 20 -4 -9 -11 -9
-15 -15 10 19 -4 -9 -11 -10
-15 -15 10 19 -5 -10 -12 -10
-15 -15 10 19 -5 -10 -12 -10
-15 -15 9 18 -6 -11 -13 -11
-15 -15 9 18 -6 -11 -13 -11
-15 -16 9 18 -6 -11 -13 -11
-15 -16 9 18 -6 -11 -13 -11
-15 -16 9 18 -6 -11 -13 -11
-15 -17 8 17 -6 -11 -13 -11
-15 -17 8 17 -7 -11 -13 -11
-16 -17 8 17 -7 -11 -12 -11
-16 -17 8 17 -8 -11 -12 -11
-16 -17 8 17 -8 -11 -12 -11
-17 -17 8 16 -9 -12 -11 -11
-17 -17 8 16 -9 -12 -11 -11
-16 -16 8 16 -9 -12 -11 -11
-16 -16 8 16 -9 -12 -11 -11
-16 -16 8 16 -9 -12 -11 -11
-15 -15 8 17 -9 -13 -12 -11
-15 -15 8 17 -9 -13 -12 -11
-15 -16 8 17 -9 -13 -12 -11
-15 -16 8 17 -9 -13 -12 -11
-15 -16 8 17 -9 -13 -12 -11
-15 -17 7 16 -10 -13 -13 -11
-15 -17 7 16 -10 -13 -13 -11
-16 -17 7 16 -11 -13 -13 -10
-16 -17 7 16 -11 -13 -13 -10
-16 -17 7 16 -11 -13 -13 -10
-17 -17 8 15 -12 -14 -12 -9
-17 -17 8 15 -12 -14 -12 -9
-17 -18 8 16 -12 -14 -13 -9
-17 -18 8 16 -12 -14 -13 -9
-17 -18 8 16 -12 -14 -13 -9
-17 -19 9 17 -11 -13 -14 -10
-17 -19 9 17 -12 -13 -14 -10
-17 -19 9 16 -12 -13 -14 -10
-17 -19 9 16 -13 -13 -14 -10
-17 -19 9 16 -13 -13 -14 -10
-16 -19 8 15 -14 -14 -14 -10
-16 -19 8 15 -14 -14 -14 -10
-16 -19 8 15 -14 -14 -14 -9
-16 -19 8 15 -14 -14 -14 -9
-16 -19 8 15 -14 -14 -14 -9
-15 -20 7 15 -13 -14 -13 -8
-15 -20 7 14 -13 -15 -13 -9
-16 -20 7 13 -13 -15 -13 -10
-16 -20 7 12 -13 -16 -13 -11
-16 -20 7 12 -13 -16 -13 -11
-17 -21 6 11 -13 -17 -14 -12
-17 -20 6 11 -13 -17 -14 -12
-16 -20 6 10 -13 -16 -14 -11
-16 -19 6 10 -13 -16 -14 -11
-16 -19 6 10 -13 -16 -14 -11
-15 -18 5 9 -12 -15 -14 -10
-16 -18 5 9 -12 -15 -14 -10
-16 -18 5 8 -12 -15 -14 -11
-17 -18 5 8 -12 -15 -14 -11
-17 -18 5 8 -12 -15 -14 -11
-18 -18 5 7 -13 -16 -15 -12
-18 -18 5 7 -13 -15 -15 -11
-18 -18 6 7 -13 -15 -14 -11
-18 -18 6 7 -13 -14 -14 -10
-18 -18 6 7 -13 -14 -14 -10
-17 -18 7 6 -12 -13 -13 -9
-17 -18 7 6 -12 -13 -13 -9
-16 -18 7 6 -12 -14 -14 -10
-16 -18 7 6 -12 -14 -14 -10
-16 -18 7 6 -12 -14 -14 -10
-15 -17 6 6 -12 -15 -15 -11
-15 -16 6 6 -11 -13 -13 -10
-15 -16 7 7 -10 -12 -12 -9
-15 -15 7 7 -9 -11 -11 -8
-15 -15 7 7 -8 -10 -10 -8
-14 -13 9 9 -6 -9 -9 -6
-12 -10 11 11 -5 -8 -8 -5
-11 -8 13 13 -4 -7 -7 -4
-10 -5 14 15 -2 -6 -6 -2
-9 -3 16 17 0 -5 -5 0
-8 -2 17 18 1 -4 -4 1
-8 0 18 18 1 -4 -4 1
-8 1 18 18 1 -4 -4 1
-8 2 19 18 1 -4 -4 1
-8 2 19 18 1 -4 -4 1
-7 3 20 17 2 -4 -4 1
-5 3 19 17 2 -4 -4 1
-4 3 18 17 2 -3 -3 1
-3 3 17 17 2 -3 -3 1
-2 3 16 17 2 -3 -3 1
0 3 15 17 3 -2 -2 2
0 3 14 16 3 -2 -2 2
0 3 13 15 3 -2 -2 2
0 3 12 14 3 -2 -2 2
0 3 11 14 3 -2 -2 2
1 2 9 11 3 0 0 2
0 1 8 7 1 -2 0 2
0 0 6 4 0 -3 -2 2
-2 -2 4 1 -3 -4 -2 2
-2 -2 3 -4 -5 -4 -2 2
-3 -4 2 -6 -7 -6 -4 0
-3 -6 1 -9 -8 -7 -6 -2
-4 -8 0 -11 -9 -8 -7 -3
-4 -10 -2 -14 -11 -10 -9 -5
-4 -12 -2 -16 -12 -11 -11 -6
-6 -13 -3 -17 -13 -12 -12 -7
-7 -14 -3 -17 -13 -12 -12 -7
-9 -14 -3 -16 -12 -12 -11 -8
-11 -15 -3 -16 -12 -12 -11 -8
-12 -15 -3 -16 -12 -12 -11 -8
-13 -16 -2 -15 -11 -12 -10 -9
-15 -17 -2 -17 -12 -13 -11 -10
-16 -17 -2 -18 -12 -14 -12 -11
-17 -18 -2 -19 -13 -15 -13 -12
-18 -18 -2 -20 -13 -15 -14 -13
-19 -19 -2 -21 -14 -16 -15 -14
-19 -19 -2 -21 -14 -16 -15 -14
-20 -20 -2 -22 -14 -16 -15 -15
-20 -20 -2 -22 -14 -16 -15 -15
-20 -20 -2 -22 -14 -16 -15 -15
-21 -21 -3 -23 -15 -17 -15 -16
-20 -21 -3 -23 -15 -17 -15 -16
-20 -21 -4 -23 -15 -17 -16 -16
-19 -21 -4 -23 -15 -17 -16 -16
-19 -21 -4 -23 -15 -17 -16 -16
-18 -20 -5 -24 -16 -18 -17 -16
-18 -20 -5 -24 -16 -17 -17 -16
-18 -20 -4 -24 -15 -17 -17 -15
-18 -20 -4 -24 -15 -16 -17 -15
-18 -20 -4 -24 -15 -16 -17 -15
-19 -21 -3 -23 -14 -15 -16 -14
-19 -21 -3 -23 -14 -15 -16 -14
-19 -21 -3 -24 -14 -15 -15 -15
-19 -21 -3 -24 -14 -15 -15 -15
-19 -21 -3 -24 -14 -15 -15 -15
-19 -21 -2 -23 -13 -15 -14 -16
-20 -21 1 -20 -11 -15 -14 -16
-21 -21 2 -17 -10 -14 -14 -17
-22 -21 4 -14 -8 -14 -14 -17
-23 -21 6 -11 -6 -14 -14 -17
-24 -21 10 -4 0 -10 -13 -17
-24 -19 16 7 6 -6 -10 -16
-25 -17 21 16 12 0 -8 -14
-25 -15 26 25 19 4 -6 -13
-25 -13 31 34 25 8 -3 -11
-18 -5 35 44 35 19 7 -4
-6 7 38 53 48 31 18 6
6 17 43 63 60 45 30 16
18 27 46 72 72 58 42 25
29 38 50 81 85 70 53 34
50 60 43 84 100 91 72 51
73 86 30 80 116 113 95 70
97 111 18 78 132 136 116 90
120 137 6 76 148 158 138 109
143 162 -7 73 163 181 160 128
151 169 -23 59 165 187 167 134
152 168 -40 40 161 187 165 133
153 165 -58 21 157 187 164 132
155 164 -75 3 152 187 163 132
156 162 -93 -16 148 187 162 131
140 139 -93 -28 127 162 140 112
114 108 -85 -36 98 129 109 87
90 77 -77 -45 69 95 78 62
64 46 -69 -54 42 61 49 37
38 15 -62 -62 13 28 18 12
26 3 -53 -64 2 14 7 3
17 -2 -45 -61 -3 9 4 1
9 -6 -35 -59 -8 3 0 -3
1 -10 -27 -57 -13 -3 -4 -6
-8 -14 -18 -54 -17 -9 -8 -9
-11 -16 -14 -49 -17 -11 -9 -10
-12 -16 -11 -43 -14 -10 -8 -10
-13 -16 -8 -35 -11 -9 -8 -11
-14 -16 -6 -29 -8 -8 -7 -11
-15 -16 -3 -22 -4 -7 -7 -11
-16 -16 -2 -20 -3 -6 -6 -12
-17 -16 0 -19 -4 -8 -7 -12
-17 -17 0 -19 -4 -9 -8 -13
-18 -17 1 -18 -5 -10 -8 -13
-18 -17 1 -18 -5 -11 -9 -13
-19 -18 2 -17 -6 -12 -10 -14
-19 -18 2 -17 -6 -12 -10 -14
-19 -18 2 -17 -6 -12 -11 -14
-19 -18 2 -17 -6 -12 -11 -14
-19 -18 2 -17 -6 -12 -11 -14
-18 -18 1 -18 -7 -13 -12 -15
-18 -18 1 -18 -7 -13 -12 -15
-19 -18 2 -17 -7 -14 -12 -15
-19 -18 2 -17 -7 -14 -12 -15
-19 -18 2 -17 -7 -14 -12 -15
-20 -19 3 -16 -7 -15 -13 -16
-20 -19 3 -16 -7 -15 -13 -16
-20 -19 3 -15 -6 -15 -12 -16
-20 -19 3 -15 -6 -15 -12 -16
-20 -19 3 -15 -6 -15 -12 -16
-20 -20 2 -14 -5 -14 -11 -15
-20 -19 2 -13 -5 -14 -11 -15
-20 -19 2 -12 -5 -14 -11 -15
-20 -18 2 -12 -5 -14 -11 -15
-20 -18 2 -11 -5 -14 -11 -15
-19 -17 3 -10 -5 -15 -11 -16
-19 -17 3 -10 -4 -15 -11 -16
-18 -16 3 -9 -4 -15 -11 -16
-18 -16 3 -9 -3 -15 -11 -16
-18 -16 3 -9 -3 -15 -11 -16
-17 -15 2 -8 -2 -14 -10 -15
-17 -15 2 -7 -2 -14 -10 -15
-18 -16 3 -6 -2 -14 -10 -15
-18 -16 3 -5 -2 -14 -10 -15
-18 -16 3 -4 -2 -14 -10 -15
-19 -17 4 -3 0 -15 -10 -14
-19 -17 4 -2 1 -14 -9 -14
-18 -17 4 0 2 -13 -8 -14
-18 -17 4 0 2 -13 -8 -14
-18 -17 4 1 3 -12 -7 -14
-17 -17 3 2 4 -11 -6 -13
-17 -16 3 3 4 -11 -6 -13
-16 -16 3 3 4 -11 -6 -13
-16 -15 3 4 4 -11 -6 -13
-16 -15 3 4 4 -11 -6 -13
-15 -14 3 5 5 -11 -6 -13
-15 -14 3 5 6 -10 -5 -13
-15 -13 3 6 6 -9 -4 -12
-15 -13 3 6 7 -9 -4 -12
-15 -13 3 6 7 -8 -3 -12
-14 -12 2 8 8 -7 -2 -11
-13 -12 2 10 9 -7 -2 -11
-13 -12 2 11 10 -6 -2 -11
-12 -12 2 13 11 -6 -2 -11
-12 -12 2 15 12 -6 -2 -11
-11 -12 3 16 13 -5 -3 -10
-10 -10 2 16 13 -5 -3 -9
-9 -9 2 16 13 -4 -2 -9
-8 -8 1 16 13 -4 -2 -8
-7 -7 1 16 13 -4 -2 -8
-6 -6 0 17 14 -3 0 -7
-6 -5 0 18 15 -3 1 -7
-5 -4 0 20 16 -2 2 -7
-5 -4 0 21 17 0 2 -7
-5 -3 0 22 18 0 3 -7
-4 -2 1 23 19 1 4 -6
-4 -2 1 23 20 2 5 -6
-3 0 0 24 21 4 6 -5
-2 1 0 25 22 5 7 -4
-2 1 0 25 23 6 8 -4
0 2 -2 27 24 7 9 -3
2 3 -2 29 25 8 10 -2
3 4 0 31 27 10 11 0
5 4 0 34 28 11 11 0
6 5 0 36 29 12 12 1
7 6 1 37 30 13 13 2
9 8 1 38 31 15 14 3
10 9 0 39 33 16 16 4
12 11 -2 39 34 18 17 5
13 12 -2 40 35 19 18 6
14 13 -3 43 36 21 19 7
16 14 -3 45 38 22 21 8
17 15 -3 47 39 24 22 10
19 15 -3 50 42 25 24 11
20 16 -3 52 43 27 25 12
22 18 -4 53 44 28 26 13
23 20 -4 53 45 29 27 14
25 22 -5 54 46 31 28 15
26 24 -6 54 47 32 29 16
28 26 -6 54 48 33 30 17
29 27 -7 55 49 34 31 18
31 28 -7 56 50 35 32 19
32 29 -7 57 51 36 33 20
34 29 -7 58 51 37 34 21
35 30 -7 59 52 38 35 22
36 31 -8 60 53 39 36 23
37 32 -9 60 53 39 37 23
38 34 -10 60 53 40 38 24
39 35 -11 60 53 42 38 24
40 36 -12 60 53 42 39 24
42 37 -13 59 53 43 40 25
42 38 -13 59 53 43 40 25
43 39 -13 60 54 44 40 25
44 39 -13 60 54 44 40 25
44 40 -13 60 54 44 40 25
45 42 -13 61 55 45 40 26
45 42 -13 60 55 45 40 26
45 42 -14 59 54 44 40 27
45 42 -14 59 53 43 40 27
45 42 -14 58 53 43 40 27
45 43 -15 57 52 42 40 28
44 42 -15 57 52 40 39 27
43 39 -14 57 51 39 38 26
42 38 -13 57 50 38 37 26
40 37 -13 57 50 37 36 25
38 35 -12 57 49 35 34 24
35 33 -11 57 47 33 32 22
32 31 -10 57 46 31 30 20
29 29 -10 57 44 29 28 19
26 27 -9 57 43 27 26 17
23 25 -7 56 42 26 25 16
20 23 -5 56 42 24 24 16
18 21 -3 56 40 23 22 15
15 19 0 56 39 21 21 14
13 16 3 56 39 20 20 14
10 15 4 57 38 19 19 13
8 14 4 56 36 17 17 11
6 12 4 55 34 15 15 10
4 11 4 54 33 14 14 8
2 10 4 53 31 12 12 7
0 9 4 52 30 11 11 6
-3 7 4 52 29 9 10 5
-5 6 5 52 28 7 9 3
-7 4 5 52 28 6 8 2
-10 3 5 52 27 4 7 1
-11 2 6 51 26 3 6 0
-11 2 6 51 25 3 5 0
-12 1 6 50 24 2 4 -2
-12 0 6 49 24 1 3 -2
-12 0 6 49 23 1 2 -2
-13 -2 5 48 22 0 1 -3
-14 -2 5 48 21 0 1 -3
-15 -3 5 48 20 -2 0 -4
-16 -3 5 48 20 -3 0 -4
-17 -3 5 48 19 -3 0 -4
-18 -4 5 49 18 -4 -2 -5
-18 -4 5 49 18 -4 -2 -5
-18 -4 4 48 18 -4 -2 -6
-18 -4 4 47 18 -4 -2 -6
-18 -4 4 47 18 -4 -2 -6
-18 -4 3 46 17 -5 -3 -7
-18 -4 3 47 17 -5 -3 -7
-18 -4 3 48 16 -5 -4 -8
-18 -4 3 49 16 -5 -5 -8
-18 -4 3 50 16 -5 -5 -8
-18 -3 3 51 15 -6 -6 -9
-18 -3 3 51 15 -6 -6 -9
-18 -4 3 51 15 -6 -6 -8
-18 -4 3 51 15 -6 -6 -7
-18 -4 3 51 15 -6 -6 -7
-18 -5 3 50 16 -6 -5 -6
-18 -5 3 51 16 -6 -5 -6
-18 -5 4 52 15 -6 -6 -7
-18 -5 4 52 15 -6 -6 -7
-18 -5 4 53 15 -6 -6 -7
-19 -5 5 54 14 -6 -7 -8
-19 -5 5 54 15 -5 -7 -8
-19 -5 5 54 16 -4 -6 -7
-19 -5 5 54 16 -4 -5 -6
-19 -5 5 54 17 -3 -5 -6
-18 -6 4 54 18 -2 -4 -5
-18 -6 4 55 18 -2 -4 -5
-18 -6 4 56 18 -2 -4 -5
-18 -6 4 57 18 -2 -4 -5
-18 -6 4 58 18 -2 -4 -5
-18 -5 4 59 17 -3 -4 -6
-18 -5 4 59 17 -3 -4 -6
-18 -5 4 59 17 -3 -4 -6
-18 -5 4 59 17 -3 -4 -6
-18 -5 4 59 17 -3 -4 -6
-18 -4 4 58 16 -3 -5 -6
-18 -4 4 59 16 -3 -5 -6
-18 -4 4 60 16 -4 -6 -7
-18 -4 4 60 16 -4 -6 -8
-18 -4 4 61 16 -4 -6 -8
-19 -5 3 62 15 -5 -7 -9
-18 -5 3 62 15 -5 -7 -9
-17 -5 3 62 15 -5 -6 -9
-17 -5 3 62 15 -5 -6 -9
-16 -5 3 62 15 -5 -6 -9
-15 -5 3 62 15 -5 -5 -8
-15 -5 3 62 15 -5 -5 -8
-16 -4 3 62 14 -5 -6 -8
-17 -4 3 62 14 -5 -6 -8
-17 -4 3 62 14 -5 -6 -8
-18 -3 3 62 13 -6 -7 -7
-18 -3 3 62 13 -6 -7 -7
-18 -4 3 62 13 -6 -7 -8
-18 -5 3 62 13 -6 -7 -8
-18 -5 3 62 13 -6 -7 -8
-18 -6 2 62 13 -7 -8 -9
-18 -6 2 62 13 -7 -8 -9
-18 -6 2 62 12 -7 -8 -9
-18 -6 2 62 12 -7 -8 -9
-18 -6 2 62 12 -7 -8 -9
-18 -7 2 63 11 -8 -9 -8
-18 -7 2 63 11 -8 -9 -8
-18 -7 2 62 11 -8 -9 -9
-18 -7 2 61 11 -8 -9 -9
-18 -7 2 61 11 -8 -9 -9
-18 -8 2 56 10 -9 -9 -10
-18 -8 2 48 10 -9 -9 -10
-19 -9 2 39 10 -9 -9 -10
-19 -9 2 31 10 -9 -9 -10
-19 -9 2 23 10 -9 -9 -10
-20 -10 3 16 10 -10 -10 -11
-20 -10 3 10 10 -10 -10 -11
-19 -9 2 4 10 -10 -10 -11
-19 -9 2 -3 10 -10 -10 -11
-19 -9 2 -10 10 -10 -10 -11
-18 -8 1 -13 9 -11 -11 -10
-18 -8 1 -14 9 -11 -11 -10
-19 -8 1 -15 8 -11 -11 -10
-19 -8 1 -16 7 -11 -11 -10
-19 -8 1 -17 7 -11 -11 -10
-20 -8 0 -18 6 -12 -12 -11
-20 -8 0 -19 6 -12 -12 -11
-19 -9 0 -21 7 -12 -12 -11
-18 -9 0 -22 7 -12 -12 -11
-18 -9 0 -23 7 -12 -12 -11
-17 -10 0 -24 8 -11 -12 -10
-17 -10 0 -24 8 -11 -12 -10
-18 -10 0 -23 8 -11 -12 -10
-18 -10 0 -23 8 -11 -12 -10
-18 -10 0 -23 8 -11 -12 -10
-19 -10 0 -22 8 -11 -12 -10
-19 -10 0 -22 8 -11 -12 -10
-18 -9 0 -23 8 -12 -12 -10
-18 -9 0 -24 8 -12 -12 -10
-18 -9 0 -24 8 -12 -12 -10
-17 -8 -2 -25 7 -13 -12 -11
-17 -8 -2 -25 7 -13 -12 -11
-17 -8 -2 -25 6 -13 -13 -11
-17 -8 -2 -25 6 -13 -13 -11
-17 -8 -2 -25 6 -13 -13 -11
-18 -9 0 -24 5 -14 -14 -12
-18 -9 0 -24 5 -14 -14 -12
-18 -9 -2 -24 5 -15 -14 -12
-18 -9 -2 -24 5 -15 -14 -12
-18 -9 -2 -24 5 -15 -14 -12
-18 -10 -3 -25 4 -16 -13 -11
-18 -10 -3 -25 4 -16 -13 -11
-18 -10 -3 -25 4 -16 -14 -11
-18 -10 -3 -25 4 -16 -14 -11
-18 -10 -3 -25 4 -16 -14 -11
-18 -10 -2 -25 4 -17 -15 -12
-18 -10 -2 -25 4 -17 -15 -12
-18 -10 -2 -25 3 -17 -15 -12
-18 -10 -2 -25 3 -17 -15 -12
-18 -10 -2 -25 3 -17 -15 -12
-18 -10 -2 -24 2 -17 -15 -12
-18 -10 -2 -24 2 -17 -15 -12
-18 -10 -2 -23 2 -17 -15 -12
-18 -10 -2 -22 2 -17 -15 -12
-18 -10 -2 -22 2 -17 -15 -12
-17 -11 0 -21 2 -16 -15 -11
-17 -10 0 -21 2 -16 -15 -11
-17 -9 0 -21 2 -16 -15 -10
-16 -7 0 -21 2 -16 -14 -9
-16 -6 0 -21 2 -16 -14 -9
-15 -5 1 -21 2 -15 -13 -8
-14 -5 2 -19 2 -14 -13 -8
-13 -5 2 -18 2 -14 -13 -8
-12 -4 3 -16 3 -13 -13 -8
-11 -4 4 -14 3 -12 -13 -8
-10 -3 5 -13 4 -11 -12 -8
-10 0 7 -11 6 -10 -10 -6
-10 2 9 -10 7 -9 -9 -5
-9 4 11 -9 8 -8 -8 -4
-9 6 13 -7 10 -7 -6 -2
-8 8 15 -6 11 -6 -5 0
-7 8 15 -6 11 -6 -5 0
-6 8 14 -5 11 -6 -5 0
-5 8 13 -4 11 -6 -5 0
-4 8 13 -4 11 -6 -5 0
-3 7 12 -3 10 -7 -5 -2
-2 8 11 -3 10 -6 -5 0
0 8 10 -3 11 -6 -4 0
2 9 9 -3 12 -5 -3 1
3 10 8 -3 12 -4 -3 2
4 11 7 -4 13 -3 -2 3
4 10 7 -5 13 -3 -2 3
3 9 6 -5 12 -3 -2 3
2 7 5 -6 11 -3 -2 3
2 6 5 -7 11 -3 -2 3
1 5 4 -8 10 -4 -3 3
1 4 3 -10 8 -6 -5 3
0 3 2 -12 6 -7 -6 2
-2 2 0 -14 4 -9 -7 1
-2 1 -2 -16 2 -11 -9 1
-3 0 -3 -18 0 -12 -10 0
-3 -3 -3 -18 -2 -13 -11 -3
-3 -5 -3 -19 -3 -13 -11 -4
-4 -7 -3 -20 -5 -14 -12 -6
-4 -9 -3 -20 -6 -15 -13 -8
-5 -10 -4 -21 -7 -16 -14 -9
-7 -10 -4 -21 -7 -16 -14 -9
-9 -11 -4 -21 -7 -16 -14 -9
-11 -12 -4 -21 -7 -16 -14 -9
-13 -12 -4 -21 -7 -16 -14 -9
-14 -13 -4 -20 -7 -16 -15 -10
-14 -15 -4 -20 -8 -17 -15 -10
-15 -16 -4 -20 -9 -17 -15 -10
-16 -17 -3 -20 -10 -18 -16 -10
-16 -19 -3 -20 -11 -19 -16 -10
-17 -20 -2 -21 -12 -20 -17 -10
-17 -20 -2 -21 -12 -20 -17 -10
-17 -20 -2 -21 -12 -20 -17 -10
-17 -20 -2 -22 -12 -20 -17 -10
-17 -20 -2 -22 -12 -20 -17 -10
-17 -19 -3 -23 -13 -19 -17 -10
-17 -19 -3 -23 -13 -19 -17 -10
-17 -19 -3 -23 -13 -19 -17 -10
-17 -19 -3 -23 -14 -19 -17 -10
-17 -19 -3 -23 -14 -19 -17 -10
-17 -19 -3 -23 -15 -19 -17 -11
-17 -19 -3 -24 -15 -19 -17 -11
-17 -19 -3 -24 -16 -19 -17 -11
-17 -18 -4 -25 -17 -19 -17 -11
-17 -18 -4 -26 -17 -19 -17 -11
-16 -17 -5 -27 -18 -18 -17 -11
-16 -17 -5 -27 -18 -18 -17 -11
-16 -17 -5 -26 -18 -18 -17 -11
-17 -17 -4 -25 -18 -18 -17 -11
-17 -17 -4 -25 -18 -18 -17 -11
-18 -17 -2 -22 -17 -18 -16 -12
-19 -17 2 -18 -15 -17 -16 -12
-20 -17 5 -13 -12 -16 -16 -12
-21 -17 9 -9 -10 -14 -16 -12
-22 -17 12 -4 -7 -13 -16 -12
-22 -16 16 4 -2 -9 -13 -12
-18 -11 21 14 7 -2 -8 -8
-14 -7 26 24 15 6 -3 -5
-10 -2 31 34 22 13 3 0
-7 3 36 45 30 20 9 3
5 14 39 52 40 31 19 12
24 32 36 57 54 49 35 26
44 52 34 61 67 65 52 40
63 70 32 65 80 82 68 55
84 90 30 69 94 100 85 69
102 109 21 68 106 117 102 84
120 130 2 56 116 135 118 99
139 150 -17 45 126 151 136 114
157 171 -36 33 136 169 152 130
175 191 -55 22 146 186 170 145
180 194 -68 10 145 189 173 148
164 173 -72 -5 127 170 153 132
149 150 -77 -19 108 150 134 115
133 129 -82 -33 90 132 115 99
117 106 -88 -48 71 112 96 82
99 85 -87 -57 52 92 77 66
77 63 -75 -61 31 68 58 51
55 42 -65 -66 12 45 38 35
33 20 -54 -70 -9 21 19 19
11 0 -44 -74 -29 -2 0 4
-3 -14 -34 -73 -40 -16 -12 -6
-4 -14 -29 -63 -36 -15 -12 -6
-5 -13 -24 -53 -32 -13 -11 -6
-6 -12 -19 -43 -29 -12 -10 -6
-7 -12 -14 -32 -25 -10 -10 -6
-8 -11 -10 -24 -22 -9 -9 -6
-9 -12 -9 -17 -23 -10 -10 -7
-10 -13 -9 -10 -24 -11 -11 -7
-11 -15 -8 -3 -26 -13 -12 -8
-12 -16 -7 5 -27 -14 -13 -9
-13 -17 -6 9 -28 -15 -14 -10
-13 -17 -6 11 -29 -15 -14 -10
-14 -17 -6 12 -29 -15 -14 -10
-15 -18 -5 14 -30 -15 -14 -11
-15 -18 -5 16 -31 -15 -14 -11
-16 -19 -4 17 -32 -16 -15 -12
-16 -19 -4 18 -32 -16 -15 -12
-16 -19 -4 19 -32 -16 -15 -12
-17 -19 -3 20 -33 -17 -16 -13
-17 -19 -3 21 -33 -17 -16 -13
-18 -19 -2 22 -34 -18 -17 -14
-18 -19 -2 22 -34 -18 -17 -14
-18 -19 -2 22 -34 -18 -17 -14
-18 -19 -2 21 -35 -18 -17 -14
-18 -19 -2 21 -35 -18 -17 -14
-17 -19 -3 20 -36 -17 -17 -15
-17 -19 -3 20 -36 -17 -17 -15
-17 -19 -3 19 -36 -17 -17 -15
-17 -19 -2 18 -37 -18 -17 -15
-17 -19 -2 18 -37 -18 -17 -15
-17 -19 0 17 -38 -19 -17 -14
-17 -19 0 17 -38 -19 -17 -14
-17 -19 -2 17 -38 -19 -17 -14
-17 -19 -3 17 -39 -19 -17 -14
-17 -19 -3 17 -39 -19 -17 -14
-16 -19 -4 17 -40 -18 -16 -13
-16 -19 -4 17 -41 -18 -16 -13
-16 -19 -3 17 -41 -18 -16 -13
-15 -19 -2 17 -43 -18 -16 -13
-15 -19 -2 17 -44 -18 -16 -13
-14 -18 0 17 -45 -19 -15 -14
-14 -18 0 17 -45 -18 -15 -14
-14 -18 0 17 -46 -18 -15 -14
-14 -18 0 18 -47 -17 -14 -14
-14 -18 0 18 -47 -16 -14 -14
-15 -18 0 19 -48 -15 -13 -13
-15 -18 0 19 -48 -15 -13 -13
-15 -18 0 19 -49 -15 -13 -13
-14 -18 0 20 -50 -15 -13 -13
-14 -18 0 20 -50 -15 -13 -13
-13 -17 1 21 -51 -15 -13 -13
-13 -17 1 21 -52 -15 -13 -13
-13 -17 0 21 -53 -15 -13 -13
-13 -17 -2 21 -54 -14 -13 -13
-13 -17 -2 21 -55 -14 -13 -13
-13 -17 -3 20 -56 -13 -13 -12
-12 -16 -3 20 -57 -13 -13 -12
-12 -15 -3 20 -58 -13 -12 -12
-11 -14 -2 20 -59 -13 -11 -12
-10 -13 -2 20 -60 -13 -11 -12
-9 -12 0 21 -61 -13 -10 -12
-9 -12 0 21 -61 -12 -10 -12
-9 -12 0 21 -61 -10 -10 -11
-8 -12 0 22 -61 -9 -10 -10
-8 -12 0 22 -61 -7 -10 -10
-7 -12 -2 23 -61 -6 -9 -9
-6 -11 -2 23 -61 -6 -9 -9
-6 -11 -2 23 -61 -6 -9 -9
