I II V1 V2 V3 V4 V5 V6
-5 -7 -7 -16 -14 -14 -3 -4
-4 -6 -2 -13 -9 -9 -7 -5
-5 -7 -6 -17 -13 -16 -11 -11
-14 -17 -1 -16 -14 -13 -3 -2
-24 -14 16 -5 7 4 -7 2
-7 -2 4 -9 -2 -10 -17 -11
-3 -4 -3 -13 -12 -18 -15 -13
-7 -12 -1 -16 -6 -14 -17 -9
-11 -12 0 -17 -9 -19 -26 -18
-10 -22 -22 -31 -30 -40 -27 -27
-25 -37 -16 -31 -29 -30 -22 -18
-27 -24 -2 -22 -24 -21 -20 -15
-9 3 1 -14 -14 -20 -11 -10
-16 -4 2 -7 -10 -15 -3 0
-35 -14 23 5 12 2 -6 5
-24 -6 15 -4 5 -14 -19 -10
-7 -7 0 -17 -7 -27 -23 -17
-11 -17 6 -16 -9 -22 -22 -12
-17 -21 6 -15 -7 -25 -28 -19
-16 -17 -14 -26 -28 -43 -25 -23
-31 -26 -6 -19 -24 -28 -15 -11
-21 -17 6 -10 -10 -20 -13 -7
-11 -8 6 -14 -12 -32 -18 -16
-13 -11 2 -17 -13 -31 -11 -8
-29 -11 13 -5 6 -14 -16 -4
-25 -3 6 -12 -2 -27 -24 -16
-12 -7 3 -12 -12 -30 -21 -14
-30 -22 8 -8 -10 -22 -19 -9
-33 -20 9 -9 0 -26 -27 -17
-6 -13 -12 -24 -23 -44 -25 -24
-15 -25 -3 -16 -21 -32 -19 -14
-7 -16 5 -10 -9 -24 -19 -12
6 -6 -6 -17 -24 -35 -24 -22
7 -11 -10 -23 -27 -35 -19 -16
-11 -23 9 -11 -11 -16 -21 -9
-10 -14 2 -15 -18 -30 -30 -22
-22 -12 2 -13 -14 -29 -23 -16
-38 -18 12 -6 -6 -18 -18 -7
-27 -14 10 -11 -7 -26 -28 -18
1 -7 -12 -26 -30 -46 -28 -25
-6 -16 -7 -20 -21 -35 -21 -14
-15 -16 1 -13 -15 -27 -20 -13
-10 -12 0 -17 -19 -32 -20 -17
-11 -17 0 -15 -22 -27 -10 -7
-30 -19 12 -4 -4 -13 -16 -5
-23 -13 6 -11 -7 -27 -26 -18
-18 -14 0 -16 -15 -34 -23 -18
-27 -18 8 -10 -7 -23 -16 -8
-37 -22 6 -10 -4 -27 -24 -15
-12 -15 -14 -25 -27 -46 -23 -22
-12 -17 -1 -17 -19 -29 -13 -7
-16 -15 7 -13 -13 -21 -13 -5
-7 -6 1 -18 -21 -30 -17 -12
-7 -10 -4 -19 -25 -27 -12 -6
-31 -20 3 -12 -4 -13 -19 -5
-21 -8 1 -13 -8 -23 -23 -13
-15 -4 3 -14 -15 -25 -16 -10
-18 -10 6 -9 -4 -14 -12 -2
-17 -8 2 -10 -8 -20 -21 -13
4 -2 -18 -25 -34 -40 -20 -19
-9 -19 -12 -20 -28 -26 -12 -8
-20 -18 -3 -16 -16 -18 -13 -7
-19 -6 -4 -17 -15 -23 -12 -10
-15 -4 0 -12 -10 -13 0 4
-33 -16 16 -1 1 2 -6 8
-28 -13 8 -10 -2 -14 -17 -8
-19 -11 -2 -15 -10 -21 -14 -9
-21 -16 2 -12 -13 -16 -13 -5
-26 -13 4 -10 -11 -20 -19 -11
-3 -6 -12 -23 -31 -39 -20 -19
-13 -11 -1 -15 -19 -23 -9 -4
-21 -13 4 -11 -13 -16 -11 -3
-20 -23 -6 -23 -30 -33 -21 -18
-22 -27 -7 -26 -27 -29 -14 -10
-38 -31 9 -12 -4 -10 -14 -2
-20 -15 2 -16 -11 -23 -21 -13
3 -2 -1 -16 -15 -26 -15 -10
-13 -7 3 -13 -9 -18 -13 -5
-28 -14 3 -13 -12 -21 -19 -12
-13 -13 -13 -23 -31 -38 -17 -17
-16 -22 -2 -15 -25 -25 -8 -5
-18 -21 2 -13 -16 -21 -12 -7
-3 -11 -13 -22 -23 -34 -18 -17
-2 -24 -18 -26 -26 -34 -15 -12
-15 -28 2 -16 -7 -14 -16 -5
2 -5 -2 -19 -15 -24 -22 -14
3 -4 -8 -21 -22 -29 -19 -14
-31 -21 8 -13 -14 -18 -13 -5
-52 -25 8 -12 -8 -21 -18 -11
-14 -14 -16 -25 -33 -39 -17 -17
-10 -14 -7 -18 -23 -24 -8 -6
-25 -21 -3 -17 -15 -20 -12 -6
-18 -17 -11 -22 -31 -32 -16 -14
-14 -16 -8 -19 -30 -25 -8 -4
-33 -24 8 -7 -12 -10 -14 -3
-28 -22 1 -17 -18 -25 -25 -17
-25 -19 -4 -20 -19 -28 -20 -14
-24 -10 6 -9 -1 -12 -10 0
-22 -3 7 -8 -6 -16 -16 -8
-10 0 -11 -24 -19 -32 -13 -12
-22 -14 -2 -16 -16 -16 -4 2
-27 -11 5 -11 -8 -12 -6 1
-8 2 0 -17 -17 -21 -8 -4
-9 -2 1 -13 -18 -13 2 6
-30 -10 15 -2 2 1 -5 7
-18 -1 10 -9 -7 -13 -16 -8
-12 1 4 -5 -11 -17 -13 -6
-29 -8 13 0 -4 -7 -8 2
-25 -6 17 -5 0 -11 -14 -6
6 8 1 -19 -17 -28 -10 -9
3 2 9 -15 -15 -17 -5 0
-9 0 6 -11 0 -10 -6 2
-11 8 -3 -12 -9 -18 -6 -3
-13 8 -3 -12 -12 -12 2 9
-30 -10 11 -6 4 2 -5 9
-29 -10 -1 -13 -1 -14 -14 -5
-28 -11 -9 -15 -8 -20 -10 -5
-31 -11 3 -6 0 -7 -4 6
-35 -10 1 -10 2 -12 -10 -2
-1 7 -20 -24 -16 -27 -5 -5
12 12 -11 -19 -17 -13 2 6
4 8 -4 -16 -6 -10 -2 7
6 7 -11 -26 -16 -23 -6 -3
1 -1 -13 -24 -22 -19 -1 3
-19 -9 2 -7 3 0 -3 9
-8 2 -4 -10 -3 -11 -9 -1
3 8 -7 -16 -14 -16 -5 -1
-9 -6 0 -10 3 -5 -1 9
-19 -15 -3 -14 -4 -14 -10 -2
-1 -9 -20 -28 -29 -33 -9 -8
-5 -18 -17 -24 -21 -21 -6 -1
-15 -22 -10 -21 -18 -17 -9 -2
-3 -13 -13 -27 -27 -28 -11 -10
0 -11 -10 -27 -32 -21 -5 -1
-14 -14 3 -16 -14 -9 -11 2
-10 -11 -5 -24 -23 -24 -22 -13
-12 -14 -10 -26 -26 -30 -19 -13
-30 -22 2 -20 -16 -18 -15 -4
-33 -15 3 -19 -19 -22 -20 -8
-6 -5 -13 -32 -32 -40 -18 -15
-6 -10 -2 -26 -27 -26 -12 -5
-21 -21 1 -24 -26 -23 -19 -9
-16 -20 -7 -32 -39 -36 -22 -20
-21 -26 -6 -27 -33 -25 -13 -7
-50 -46 7 -21 -21 -16 -23 -10
-31 -37 -3 -29 -27 -33 -34 -25
-16 -25 -6 -30 -34 -38 -30 -23
-16 -26 3 -30 -30 -31 -30 -19
-20 -25 1 -28 -25 -34 -34 -25
-12 -21 -15 -35 -40 -46 -27 -25
-19 -29 -8 -27 -40 -32 -20 -14
-17 -28 -3 -28 -33 -29 -24 -15
-3 -19 -15 -38 -47 -43 -30 -26
-15 -33 -10 -35 -38 -34 -23 -15
-36 -41 6 -26 -24 -22 -31 -16
-29 -35 3 -33 -31 -36 -37 -27
-32 -36 -6 -36 -37 -39 -32 -24
-38 -39 0 -33 -30 -29 -28 -17
-22 -24 1 -30 -24 -31 -31 -22
5 -11 -14 -35 -42 -46 -26 -23
-10 -25 -8 -26 -33 -34 -21 -14
-17 -31 -7 -29 -33 -34 -27 -17
-7 -27 -13 -39 -47 -48 -33 -28
-10 -35 -11 -38 -50 -41 -28 -19
-36 -43 8 -23 -29 -24 -31 -15
-33 -32 1 -22 -33 -34 -34 -22
-23 -25 -2 -26 -36 -36 -28 -19
-24 -28 6 -20 -24 -24 -24 -10
-17 -25 1 -26 -24 -35 -35 -23
-1 -20 -16 -37 -48 -52 -31 -26
-8 -25 -4 -30 -38 -37 -22 -14
-32 -39 0 -30 -36 -36 -29 -18
-29 -37 -11 -33 -46 -45 -30 -23
-25 -35 -5 -29 -40 -36 -21 -13
-36 -35 9 -21 -23 -22 -27 -12
-20 -17 7 -25 -26 -33 -32 -22
-23 -25 0 -29 -37 -38 -31 -22
-38 -34 13 -19 -25 -25 -26 -12
-30 -27 8 -20 -28 -32 -33 -21
-5 -23 -11 -32 -47 -50 -31 -27
-10 -27 -5 -25 -38 -35 -23 -16
-31 -31 -1 -25 -36 -33 -27 -18
-20 -13 -10 -32 -44 -46 -29 -20
-15 -8 -1 -24 -34 -38 -18 -3
-36 -12 24 1 -11 -24 -23 1
-35 -11 25 16 -3 -27 -23 -6
-25 -8 24 33 24 -9 -4 4
-20 -8 42 57 55 35 25 27
2 1 28 59 71 68 48 38
22 -4 -6 43 73 97 87 53
30 -12 -8 53 111 167 141 90
46 3 -18 59 156 236 191 120
66 25 -50 43 175 293 247 150
70 46 -75 30 200 368 316 204
55 58 -97 9 235 440 367 246
75 73 -136 -38 234 467 394 255
69 58 -149 -73 194 452 384 243
56 34 -132 -87 168 423 342 211
70 35 -135 -115 116 344 268 154
58 14 -148 -173 13 222 187 95
15 -21 -133 -205 -49 127 105 50
-8 -43 -108 -206 -94 33 21 -2
-19 -61 -103 -218 -156 -65 -55 -58
-34 -86 -86 -218 -196 -129 -105 -86
-60 -98 -58 -194 -190 -144 -133 -100
-59 -89 -61 -180 -194 -154 -133 -105
-37 -71 -58 -164 -178 -143 -114 -92
-40 -73 -48 -143 -155 -120 -104 -77
-33 -66 -45 -132 -142 -119 -104 -82
-3 -45 -49 -124 -135 -115 -83 -70
-14 -39 -34 -98 -110 -84 -61 -45
-24 -31 -23 -76 -82 -65 -49 -31
-9 -14 -25 -63 -73 -61 -39 -29
-14 -27 -17 -48 -57 -47 -26 -17
-35 -34 10 -26 -30 -30 -30 -13
-34 -30 7 -24 -35 -40 -34 -23
-27 -29 0 -30 -41 -47 -33 -23
-17 -26 8 -25 -33 -37 -32 -16
-19 -24 1 -25 -34 -47 -40 -28
-3 -21 -15 -36 -55 -62 -34 -30
-2 -22 -6 -29 -45 -48 -26 -18
-7 -22 -4 -28 -44 -47 -35 -23
3 -18 -14 -35 -52 -60 -37 -31
1 -21 -7 -27 -45 -49 -29 -20
-26 -26 12 -8 -22 -31 -33 -16
-21 -18 5 -15 -30 -43 -39 -26
-17 -14 -3 -23 -35 -49 -36 -26
-26 -19 8 -13 -24 -36 -31 -17
-30 -22 6 -14 -27 -41 -36 -24
-8 -17 -9 -26 -48 -54 -30 -26
-5 -28 -2 -28 -44 -44 -28 -18
-5 -29 3 -23 -32 -41 -30 -18
5 -21 -3 -30 -41 -51 -31 -25
-8 -25 2 -22 -35 -43 -24 -14
-41 -35 17 -11 -16 -29 -31 -12
-27 -26 7 -18 -26 -44 -37 -24
-8 -16 4 -20 -27 -47 -34 -22
-20 -21 14 -13 -13 -37 -31 -14
-15 -11 9 -19 -15 -44 -38 -23
-2 -9 -10 -33 -43 -60 -35 -25
-18 -28 1 -25 -27 -46 -27 -14
-17 -25 10 -19 -20 -40 -27 -13
-7 -21 0 -25 -37 -50 -30 -21
9 -10 6 -13 -33 -39 -19 -8
-14 -15 25 3 -10 -22 -23 -5
-8 -6 18 -2 -14 -37 -30 -17
-10 -8 13 -7 -22 -41 -26 -15
-14 -8 20 2 -9 -28 -20 -6
-8 -7 14 -4 -14 -39 -31 -17
14 -1 -6 -19 -38 -57 -29 -24
4 -13 4 -15 -29 -44 -24 -15
-8 -19 14 -9 -18 -38 -24 -16
0 -20 1 -18 -31 -51 -28 -25
-3 -24 0 -17 -34 -44 -25 -19
-22 -21 19 0 -8 -23 -26 -12
-2 -8 14 -4 -16 -35 -30 -22
4 -9 7 -7 -22 -39 -27 -21
-7 -15 16 -6 -14 -25 -25 -12
-2 -10 13 -7 -14 -30 -32 -21
11 -1 -1 -13 -31 -38 -19 -18
-1 -6 9 -7 -25 -26 -12 -7
-6 -15 7 -9 -23 -30 -24 -16
14 -12 -7 -19 -38 -48 -31 -29
8 -18 -1 -12 -34 -36 -21 -17
-25 -20 19 6 -7 -18 -22 -9
-17 -8 11 0 -9 -31 -27 -17
-1 -6 3 -6 -21 -35 -25 -17
-11 -12 15 5 -6 -21 -19 -8
-10 -5 17 2 -10 -29 -28 -19
7 -5 -2 -12 -24 -46 -24 -23
10 -7 9 -5 -12 -29 -16 -10
7 -8 12 -1 -13 -25 -20 -13
5 -6 1 -8 -29 -37 -22 -21
-7 -15 5 -2 -24 -27 -15 -11
-34 -32 19 6 -2 -16 -26 -12
-19 -24 8 4 -11 -28 -28 -22
16 0 8 4 -17 -26 -20 -15
12 3 20 12 4 -11 -16 -6
5 -1 15 13 1 -21 -24 -15
20 1 1 2 -23 -33 -17 -18
10 4 13 8 -8 -15 -8 -4
-5 -2 19 14 1 -9 -11 -4
10 -2 8 4 -12 -24 -16 -14
13 -7 9 7 -5 -15 -11 -6
0 -7 24 18 10 -1 -16 -4
12 9 20 17 10 -12 -19 -11
18 8 14 17 2 -16 -15 -10
0 -3 21 28 10 -5 -13 -4
6 8 15 25 6 -13 -18 -11
28 8 3 17 -5 -23 -9 -11
17 -2 11 23 5 -12 -4 -2
13 2 20 29 12 -7 -7 -1
22 8 12 27 1 -16 -5 -6
13 0 15 31 6 -7 1 3
6 2 29 43 23 4 -7 5
18 10 20 37 12 -13 -15 -8
25 10 11 33 7 -18 -12 -9
13 -2 19 39 24 -8 -11 -3
25 10 15 37 18 -17 -15 -11
52 23 6 32 4 -24 -2 -6
44 21 19 48 15 -2 8 8
15 12 31 60 25 6 8 10
17 15 21 53 18 -3 9 6
14 9 22 61 28 8 17 17
9 7 39 75 53 24 12 19
29 21 31 74 44 15 10 10
41 27 31 72 45 11 14 11
23 25 41 81 54 27 20 22
25 34 30 79 51 22 15 13
43 34 13 69 42 11 25 13
32 20 23 80 50 28 34 25
30 18 21 79 51 30 27 22
54 37 14 80 45 24 32 20
50 34 19 87 49 39 42 32
28 28 35 98 72 54 37 33
30 38 32 98 74 51 39 29
32 43 30 101 72 54 48 36
24 41 39 110 92 70 53 46
37 45 36 106 93 62 47 35
63 43 12 90 65 45 49 30
59 37 16 97 76 60 57 42
47 36 19 101 81 64 55 40
40 34 9 97 71 54 55 34
44 36 17 108 79 71 68 50
37 40 34 118 96 87 64 53
42 54 27 107 90 76 61 44
40 47 23 103 88 74 65 45
30 37 32 109 99 89 67 54
48 51 25 113 99 81 61 45
67 63 10 104 87 74 74 49
59 58 17 107 92 91 82 61
53 58 22 110 99 95 81 61
60 63 9 98 83 81 78 52
58 53 12 101 86 88 83 60
43 48 29 114 103 102 75 59
49 54 18 104 96 88 67 48
53 57 15 95 87 83 73 49
35 47 23 97 92 91 71 53
43 50 14 87 87 76 59 39
70 60 6 82 73 69 70 45
56 52 20 90 77 81 76 56
42 45 22 84 84 77 66 49
57 50 12 71 70 62 60 38
54 48 14 74 74 67 64 47
47 54 32 81 82 78 60 49
55 60 23 70 68 61 51 37
55 57 15 58 64 50 48 32
40 48 30 65 75 61 49 40
41 46 23 56 65 46 40 28
53 43 6 40 43 29 41 24
43 46 19 44 46 41 45 34
54 60 23 44 43 40 39 32
56 50 14 33 24 23 35 22
42 34 13 31 24 27 35 26
19 27 30 38 36 34 24 23
24 33 22 32 32 18 18 12
28 35 11 20 19 8 15 9
20 32 20 24 32 17 14 14
25 29 15 16 22 3 6 3
43 25 -1 3 -3 -11 11 1
28 15 5 8 2 0 14 11
15 8 10 9 9 0 6 6
36 21 1 -2 -9 -16 2 -4
32 14 8 1 -4 -5 11 6
5 2 15 5 7 -1 -3 1
15 10 2 -4 -5 -18 -13 -14
18 8 1 -4 -8 -16 -6 -8
-8 -2 11 5 5 -3 -2 1
-16 3 7 -1 1 -13 -8 -9
-4 3 -10 -12 -18 -26 -4 -10
-4 -5 -4 -10 -14 -14 -1 -3
3 0 6 -3 -7 -7 1 0
18 12 3 -9 -11 -19 1 -7
21 7 6 -10 -13 -13 2 -2
16 6 14 0 5 -3 -7 -2
16 7 8 -4 -2 -16 -11 -12
16 4 1 -9 -9 -20 -10 -12
0 -2 12 -3 3 -10 -10 -5
-1 -4 2 -8 -7 -21 -16 -16
16 1 -11 -17 -20 -30 -8 -14
12 -1 1 -11 -14 -16 -2 -4
2 -8 7 -5 -10 -14 -7 -6
13 -6 -8 -17 -20 -31 -14 -18
11 -8 -5 -15 -23 -22 -9 -10
-5 -6 11 -2 0 -9 -14 -11
0 0 11 -1 -5 -15 -13 -14
8 6 10 -3 -9 -17 -8 -10
0 9 22 6 9 -1 -2 1
5 14 12 -1 -4 -14 -11 -12
16 10 -5 -12 -24 -27 -7 -15
3 -1 6 -6 -16 -16 -3 -5
2 -2 7 -9 -13 -16 -9 -10
19 4 -6 -18 -28 -29 -12 -19
13 -2 -1 -11 -19 -17 -6 -7
4 0 15 0 -1 -7 -13 -7
11 8 9 -6 -7 -19 -17 -15
6 3 4 -10 -10 -23 -15 -15
-1 2 16 -3 -6 -14 -16 -10
7 6 8 -10 -13 -26 -23 -21
13 -1 -7 -18 -25 -36 -13 -19
1 -9 1 -12 -19 -23 -10 -11
-3 -7 8 -6 -16 -21 -14 -12
30 14 3 -11 -26 -31 -10 -15
26 6 8 -7 -16 -20 -2 -3
9 2 19 1 5 -10 -11 -5
12 7 11 -4 -8 -24 -16 -16
19 14 13 -1 -10 -23 -10 -12
6 14 23 4 -1 -11 -8 -5
9 17 14 -3 -5 -20 -15 -16
30 23 1 -6 -16 -27 -5 -12
31 19 10 0 -3 -14 0 -3
24 13 9 -2 -9 -18 -8 -9
21 6 -4 -16 -27 -35 -15 -22
12 -7 0 -16 -24 -27 -12 -13
0 -3 17 -1 -4 -13 -13 -9
-13 -3 13 -1 -6 -20 -14 -12
-9 1 14 0 -14 -21 -8 -10
-15 -9 21 0 1 -13 -11 -5
0 -2 7 -9 -9 -27 -21 -19
31 13 -5 -15 -21 -31 -9 -15
12 -5 -1 -13 -22 -22 -11 -11
2 -6 6 -6 -15 -17 -12 -10
4 -2 -3 -11 -26 -29 -11 -15
-4 -11 2 -10 -21 -21 -7 -6
-6 -8 12 -2 -6 -14 -14 -10
7 6 6 -8 -8 -22 -16 -15
0 2 3 -10 -8 -21 -11 -11
-5 7 18 1 9 -5 -6 -1
-3 7 12 -2 -3 -16 -13 -12
8 -1 -3 -11 -20 -25 -7 -13
4 -9 2 -10 -6 -15 -5 -7
-5 -10 6 -10 -11 -16 -12 -12
15 4 -10 -18 -25 -29 -13 -20
-3 -8 -6 -13 -14 -17 -7 -10
-17 -11 9 0 1 -6 -12 -10
-5 0 4 -4 -7 -16 -15 -18
14 9 0 -8 -12 -16 -9 -13
8 0 6 -4 0 -5 -8 -7
13 7 2 -9 -6 -13 -14 -16
16 6 -7 -13 -19 -16 -1 -9
0 -1 2 -6 -7 -3 5 0
-8 -2 5 -5 -9 -4 -3 -5
8 5 -5 -13 -15 -16 -3 -13
2 0 2 -6 -9 -3 5 1
-12 -6 12 -1 2 2 -6 -5
1 0 1 -7 -11 -14 -14 -18
10 0 -7 -13 -14 -19 -13 -16
-4 -7 2 -8 -2 -8 -10 -7
-2 3 0 -2 -8 -14 -12 -14
10 2 -13 -16 -24 -25 -5 -13
14 0 -6 -10 -21 -12 -1 -4
15 5 1 -8 -8 -7 -3 -3
27 16 -11 -15 -18 -21 -4 -11
19 11 -1 -9 -14 -8 3 2
-6 -2 17 2 0 2 -4 1
2 7 2 -6 -6 -16 -13 -11
7 2 -7 -15 -10 -20 -11 -12
-7 -11 3 -9 -6 -10 -11 -6
-13 -10 -3 -12 -8 -21 -16 -15
8 4 -14 -18 -23 -28 -6 -12
4 8 -1 -11 -13 -13 0 -2
2 -3 5 -8 -11 -11 -2 -1
16 1 -9 -16 -27 -26 -5 -9
9 1 -4 -9 -10 -15 1 1
-7 -3 10 -1 0 -6 -8 -3
11 10 6 -8 -7 -17 -11 -10
17 13 -1 -12 -6 -19 -7 -8
-1 3 8 -4 -3 -9 -6 0
2 4 0 -13 -10 -22 -14 -14
24 13 -6 -19 -19 -30 -4 -9
15 5 1 -14 -12 -17 -2 -3
2 -3 -2 -15 -20 -19 -7 -8
5 -4 -18 -27 -35 -33 -10 -17
-3 -8 -11 -21 -21 -22 -3 -4
-6 4 6 -9 -10 -9 -9 -5
4 10 1 -13 -15 -18 -10 -11
2 7 7 -11 -15 -15 -2 -5
-14 4 17 6 9 1 3 6
-7 8 5 -1 0 -11 -5 -6
4 5 -10 -18 -20 -22 0 -7
-9 -8 -3 -11 -10 -10 1 -1
-1 0 0 -5 -12 -8 -1 -2
23 19 -6 -8 -12 -16 3 -4
12 16 5 1 -2 0 13 9
-13 10 17 6 9 6 3 5
-5 15 7 -1 5 -5 -3 -3
11 27 8 0 -3 -6 4 1
3 25 21 15 16 10 8 11
9 33 9 7 11 0 4 2
18 29 -5 -4 -10 -9 10 3
14 22 3 3 -4 3 14 13
9 21 3 -1 0 4 11 9
13 16 -14 -16 -12 -14 6 -2
2 10 -9 -9 -4 1 13 11
-15 7 4 0 6 10 6 8
-17 2 -8 -10 -8 -7 -3 -4
-1 4 -16 -15 -15 -12 -4 -7
-6 2 0 -6 -1 0 1 4
14 18 -6 -8 -5 -6 1 -2
28 19 -17 -15 -19 -11 9 3
3 2 -11 -8 -14 -3 10 8
2 4 -8 -7 -10 0 6 6
18 16 -23 -20 -25 -16 3 -3
12 12 -13 -13 -14 -4 8 8
-3 10 3 -1 4 7 4 9
3 13 -7 -8 -5 -7 0 0
-3 -1 -12 -18 -16 -13 -1 -3
-7 -2 -3 -14 -8 -4 -3 1
10 3 -15 -22 -13 -17 -10 -12
20 -1 -29 -32 -31 -28 -6 -12
20 4 -12 -21 -22 -13 3 2
13 3 -7 -18 -19 -14 -4 -2
12 2 -20 -27 -32 -28 -5 -9
-1 -6 -7 -21 -23 -15 0 2
-14 -5 8 -7 -7 -4 -8 0
-9 -2 -2 -12 -19 -20 -14 -11
-4 3 -2 -17 -18 -18 -7 -6
-7 4 10 -8 -3 -6 -5 2
-4 4 1 -14 -16 -19 -12 -10
8 3 -7 -22 -28 -29 -6 -9
-3 -5 1 -17 -19 -16 -3 -1
-10 -5 0 -18 -20 -18 -9 -6
7 0 -12 -28 -32 -31 -11 -14
6 -5 -4 -21 -25 -20 -7 -4
-9 -8 10 -12 -14 -12 -15 -8
-3 -1 3 -16 -18 -24 -18 -15
-3 -5 -1 -21 -24 -29 -15 -13
-18 -7 13 -11 -5 -14 -13 -6
-9 2 10 -17 -7 -23 -17 -14
3 -3 -12 -30 -34 -37 -14 -16
-12 -18 -6 -29 -32 -26 -11 -10
-16 -16 0 -28 -26 -26 -17 -14
10 1 -8 -30 -29 -34 -14 -18
5 -2 -3 -21 -17 -20 -7 -5
-15 -11 11 -14 -10 -13 -16 -10
-11 -5 1 -19 -19 -24 -19 -16
-7 -1 3 -22 -22 -27 -15 -13
-19 -5 15 -15 -12 -15 -12 -6
-13 -2 2 -23 -24 -29 -21 -19
-3 -4 -15 -31 -39 -39 -15 -18
-7 -13 -9 -26 -27 -30 -13 -12
-1 -7 -1 -22 -15 -25 -14 -12
15 8 -9 -29 -30 -35 -13 -17
1 1 1 -21 -27 -20 -5 -3
-18 -2 13 -11 -11 -11 -13 -5
-17 -6 1 -18 -19 -24 -17 -14
-8 -7 3 -21 -24 -27 -16 -13
-30 -16 14 -12 -10 -14 -14 -6
-28 -8 7 -17 -19 -24 -17 -13
-15 -6 -8 -28 -32 -31 -10 -11
-16 -7 2 -22 -25 -21 -7 -4
0 1 -1 -22 -21 -20 -10 -8
18 9 -11 -28 -34 -31 -11 -14
6 6 -2 -22 -28 -18 -6 -3
-16 1 10 -12 -13 -9 -14 -6
-8 2 0 -17 -18 -23 -20 -15
-1 2 -3 -21 -24 -26 -19 -14
-12 8 8 -16 -7 -13 -15 -3
-13 26 3 -21 -14 -26 -15 -6
1 33 -1 -22 -21 -33 -4 3
-8 20 17 -1 -9 -20 -1 10
-14 15 26 24 12 -9 4 11
8 28 21 39 25 4 21 14
-5 14 30 60 59 51 51 38
-9 7 29 62 93 96 71 49
18 14 6 57 105 132 104 59
28 8 -10 59 129 182 146 80
39 18 -16 68 170 258 197 115
80 55 -44 56 199 316 251 142
102 76 -85 28 210 374 318 187
98 84 -116 -1 220 436 366 225
101 80 -148 -35 214 459 378 227
104 67 -167 -72 172 422 350 196
79 32 -152 -90 143 385 306 165
48 3 -142 -126 95 306 225 110
31 -10 -149 -183 1 182 135 49
19 -21 -147 -213 -65 78 60 5
-9 -47 -122 -215 -105 0 -11 -35
-19 -59 -109 -224 -154 -84 -74 -79
-27 -68 -99 -225 -197 -141 -104 -97
-41 -77 -76 -204 -197 -144 -111 -94
-37 -68 -64 -182 -174 -135 -105 -90
-19 -57 -73 -170 -172 -134 -95 -87
-30 -58 -54 -145 -146 -108 -81 -67
-43 -53 -36 -120 -111 -89 -80 -63
-33 -40 -45 -109 -107 -90 -73 -62
-19 -24 -38 -90 -85 -75 -53 -46
-33 -20 -22 -68 -53 -49 -39 -29
-29 -13 -22 -58 -49 -51 -37 -33
-19 -19 -25 -51 -51 -53 -27 -26
-14 -19 -14 -36 -38 -37 -19 -15
4 -5 -6 -29 -27 -33 -21 -16
19 5 -11 -32 -41 -44 -18 -20
-15 -11 0 -21 -33 -29 -12 -8
-36 -17 11 -13 -16 -21 -20 -12
-23 -14 2 -21 -23 -39 -28 -25
-24 -16 -2 -25 -27 -42 -27 -23
-32 -27 12 -17 -14 -30 -29 -20
-13 -16 0 -25 -24 -44 -35 -32
5 -5 -10 -28 -35 -47 -20 -22
-11 -6 4 -16 -24 -29 -13 -9
-21 -11 2 -18 -22 -31 -18 -14
-7 -2 -4 -28 -28 -43 -20 -21
-13 -10 2 -22 -21 -29 -15 -10
-29 -21 9 -16 -14 -23 -25 -18
-27 -17 -2 -21 -29 -37 -30 -27
-24 -11 -3 -22 -26 -39 -24 -24
-32 -13 13 -12 -10 -24 -24 -16
-19 -13 6 -15 -20 -35 -26 -24
-8 -14 -6 -24 -35 -41 -17 -18
-22 -19 4 -14 -22 -27 -12 -7
-21 -14 2 -13 -18 -26 -17 -11
2 -4 -8 -23 -30 -39 -18 -18
-14 -14 6 -15 -21 -23 -12 -4
-36 -12 18 -5 -3 -13 -17 -6
-23 -2 8 -12 -10 -26 -20 -15
-19 -5 6 -17 -14 -31 -19 -14
-34 -10 21 -6 1 -17 -16 -7
-31 -1 10 -9 -11 -27 -19 -15
-33 -13 -4 -19 -25 -39 -16 -14
-41 -23 1 -14 -18 -30 -14 -8
-33 -18 9 -9 -16 -26 -15 -10
-6 -4 -3 -14 -25 -38 -13 -15
-6 -3 7 -5 -9 -21 -4 -2
-24 -4 19 0 1 -15 -14 -8
-19 -3 6 -9 -1 -30 -21 -19
-12 -3 6 -9 -10 -29 -16 -15
-26 -9 28 0 0 -15 -14 -10
-15 -2 13 -10 -9 -32 -21 -25
0 -5 -5 -17 -22 -40 -13 -22
-16 -14 6 -5 -12 -23 -7 -11
-19 -15 8 -5 -12 -24 -13 -17
-3 -11 -9 -16 -34 -40 -17 -27
-17 -17 1 -8 -20 -25 -9 -15
-26 -13 18 1 -4 -13 -15 -15
-20 -9 8 -5 -9 -27 -18 -23
-21 -10 6 -4 -16 -24 -13 -17
-29 -5 26 12 4 -7 -9 -6
-37 -12 13 1 -7 -25 -19 -21
-19 -13 -5 -12 -24 -38 -14 -21
-18 -17 1 -8 -15 -27 -13 -14
-9 -12 2 -9 -18 -28 -18 -17
-2 -10 -6 -16 -28 -39 -17 -20
-27 -20 6 -9 -18 -25 -12 -9
-40 -20 17 0 -4 -18 -18 -13
-34 -12 10 0 -9 -26 -17 -17
-23 -10 9 2 -14 -27 -14 -16
-36 -17 21 8 2 -13 -16 -12
-15 0 6 0 -10 -23 -19 -21
2 1 1 0 -20 -27 -8 -13
-8 -8 5 4 -11 -18 -9 -10
-12 -12 4 0 -7 -20 -15 -17
-3 -6 1 -6 -15 -28 -11 -17
-19 -11 14 7 -6 -8 -2 -1
-25 -9 17 13 7 -4 -11 -7
-14 -3 5 5 -3 -19 -19 -20
-15 -3 5 7 -11 -21 -15 -18
-23 -6 24 21 8 -3 -9 -6
-12 2 18 17 2 -11 -10 -13
0 2 7 11 -8 -17 -5 -10
-16 -12 10 17 -1 -6 -4 -3
-15 -8 17 25 2 -2 -5 -3
-6 1 4 17 -10 -14 -3 -8
-15 5 16 29 7 4 3 5
-30 -7 26 34 19 9 -3 0
-22 -5 15 22 4 -8 -11 -11
-15 2 14 23 5 -7 -6 -7
-29 -6 21 33 20 4 -7 -3
-10 6 11 30 16 -7 -9 -11
8 3 6 28 5 -9 4 -2
-7 -2 15 36 12 4 8 7
-10 3 21 40 16 6 4 5
2 7 11 34 11 -5 6 0
-6 1 20 47 19 11 13 13
-16 3 31 59 37 18 6 9
-12 9 24 56 32 4 3 1
-5 9 19 55 31 4 6 4
-16 -5 30 61 50 15 7 9
-4 4 21 57 34 2 4 -1
11 9 12 57 24 1 17 7
2 6 19 65 40 16 22 17
0 12 28 74 48 21 22 18
9 14 18 66 33 11 21 12
-6 4 25 76 45 25 26 22
-7 8 32 82 58 31 18 17
7 16 23 79 50 23 19 11
6 13 24 80 54 26 25 17
-14 15 37 93 73 44 30 27
3 32 29 92 62 35 30 22
23 31 23 91 61 35 43 30
20 22 21 94 66 46 43 33
16 19 22 94 65 48 40 30
30 26 13 88 58 39 43 27
13 18 22 97 71 57 51 40
-5 23 30 106 82 66 46 38
15 33 27 104 76 59 46 33
26 38 24 105 77 61 52 39
12 41 36 113 92 76 55 47
17 44 23 106 87 65 53 37
26 40 13 102 75 60 63 44
20 37 20 107 78 74 67 51
16 33 23 107 85 75 63 48
27 35 6 100 71 63 65 41
14 28 18 108 85 81 70 55
-6 34 31 118 98 90 66 54
5 42 22 111 94 82 66 49
10 39 16 108 93 82 69 50
1 38 30 120 101 98 73 60
14 40 19 110 90 82 67 46
26 41 4 95 76 73 71 48
20 38 14 97 79 87 76 57
14 34 17 99 82 88 74 54
11 31 2 85 72 74 72 46
1 23 9 88 78 86 74 55
-12 18 16 88 84 86 60 46
0 25 8 80 80 71 55 37
20 39 18 86 84 79 68 50
8 36 31 92 94 88 67 52
19 41 19 77 77 68 57 39
26 39 7 67 60 60 61 41
13 30 12 67 60 65 58 44
16 25 12 67 53 57 48 36
25 25 0 50 39 41 45 29
0 13 12 55 51 54 50 39
-15 15 26 52 54 53 36 30
-11 22 20 44 42 37 30 21
-8 23 13 41 42 38 36 27
-17 21 24 44 54 48 34 30
-12 18 9 30 39 26 22 13
-3 12 3 23 23 20 31 19
-8 10 16 31 28 29 32 25
-13 9 14 26 26 26 26 21
-3 12 2 17 10 12 25 17
-17 1 10 19 22 21 25 24
-23 3 16 19 29 21 12 13
-14 7 8 13 18 8 8 4
-14 3 4 8 12 4 10 7
-27 -5 14 16 22 12 6 10
-2 10 2 3 3 -7 -2 -4
10 8 -7 -3 -9 -12 7 4
-4 2 6 7 7 2 11 12
-9 7 10 8 7 1 8 8
-5 8 -3 -3 -6 -14 8 2
-18 -6 3 2 3 0 9 11
-30 -10 10 4 9 2 0 4
-26 -5 4 -2 5 -10 -4 -2
-21 -5 2 -5 2 -13 -2 -1
-22 -6 13 8 12 -1 -2 5
3 9 2 -3 -6 -15 -4 -5
10 10 -3 -8 -10 -15 7 5
-10 3 11 0 1 -1 10 14
-11 2 6 -3 2 -7 1 4
6 5 -10 -15 -18 -23 -3 -4
-9 -2 6 0 -2 -3 5 11
-24 -3 11 4 5 -3 -7 1
-17 -7 0 -7 -8 -19 -14 -10
-13 -13 1 -11 -14 -19 -10 -7
-24 -14 9 0 4 -8 -9 -3
-12 -2 -1 -8 -5 -21 -12 -11
-3 -3 -2 -11 -17 -22 -2 -5
-15 -6 9 -4 -5 -7 3 7
-16 -1 7 -3 0 -5 1 5
-9 -2 -5 -12 -13 -18 1 -2
-19 -5 7 -2 3 0 6 10
-24 0 14 2 13 0 -5 2
-12 7 6 -6 -7 -15 -11 -6
-12 2 8 -7 -9 -14 -7 -3
-25 -2 20 -1 0 -3 -8 1
-10 4 -1 -11 -17 -21 -14 -13
-3 4 -2 -12 -18 -19 -1 -2
-16 -6 10 -3 -8 -6 0 5
-16 -8 7 -5 -9 -10 -5 1
-2 -3 -5 -13 -21 -25 -5 -6
-23 -10 9 0 3 -5 2 10
-37 -11 20 4 5 -1 -6 3
-26 -9 9 -5 -9 -17 -13 -7
-23 -12 2 -9 -11 -19 -11 -8
-36 -17 13 0 -1 -7 -11 -3
-16 -2 3 -6 -11 -21 -12 -11
-5 -6 -3 -11 -21 -24 -3 -5
-15 -14 5 -7 -14 -14 -4 -1
-18 -8 4 -7 -11 -16 -8 -5
-11 0 -4 -13 -18 -22 -2 -3
-30 -6 8 -5 -8 -5 3 9
-31 1 14 -2 3 -6 -9 -3
-10 12 11 1 -5 -11 -6 -4
-16 -2 13 3 -1 -12 -3 0
-34 -12 18 3 3 -6 -7 1
-21 -2 5 -6 -7 -22 -13 -11
-12 -2 -1 -10 -17 -24 -5 -4
-12 -2 7 -4 -4 -11 -2 5
-15 -2 8 -5 -5 -14 -6 0
-13 -9 -10 -17 -29 -32 -12 -11
-17 -15 -1 -10 -15 -16 -7 -1
-27 -18 14 -4 0 -14 -14 -5
-12 -1 8 -5 -8 -23 -14 -8
4 6 6 -1 -6 -20 -10 -4
-9 -6 12 3 1 -12 -12 -3
-6 2 8 -4 -4 -23 -13 -10
-6 2 1 -6 -6 -22 -3 -1
-7 -1 7 -4 1 -12 -2 4
-14 3 12 -6 4 -12 -5 1
-8 4 -4 -13 -9 -24 -5 -3
-19 -10 7 -3 1 -5 2 9
-21 -7 12 5 8 -4 -8 1
-12 2 4 -4 -5 -17 -11 -7
-16 0 8 -3 -4 -15 -5 -1
-32 -6 14 3 11 -3 -5 4
-14 -1 -2 -6 -10 -20 -11 -9
3 -1 -7 -8 -18 -20 -2 -2
-4 -4 6 0 -4 -8 2 6
-10 -4 6 -3 2 -8 -2 2
-1 -3 -10 -11 -15 -20 -5 -5
-15 -11 2 -1 -4 -5 -1 6
-30 -9 12 3 2 -2 -7 1
-29 -10 0 -7 -13 -15 -11 -8
-32 -15 -4 -10 -16 -17 -9 -6
-32 -10 10 1 5 -2 -6 2
-7 8 0 -5 -6 -14 -7 -5
4 5 -8 -9 -12 -15 1 1
-4 -1 1 -5 -5 -5 0 6
-1 -1 3 -5 -9 -8 -3 -1
8 2 -8 -15 -21 -20 -4 -4
-13 -9 4 -1 -4 -3 1 8
-25 -6 12 -3 3 -6 -10 -2
-10 3 3 -8 -2 -17 -12 -7
-6 -3 -1 -13 -10 -18 -8 -3
-14 -5 7 -3 4 -6 -10 1
1 5 -3 -7 -9 -20 -11 -9
11 0 -11 -13 -22 -24 -4 -4
0 -8 2 -7 -13 -12 -3 2
-15 -12 -3 -7 -13 -16 -10 -4
-5 -5 -14 -14 -25 -27 -7 -6
-18 -4 4 -4 -9 -5 1 10
-30 -6 12 2 3 -3 -6 3
-16 5 7 -2 1 -13 -6 -1
-13 4 9 -4 -1 -13 -4 3
-27 -6 10 1 9 -7 -10 3
-11 4 -2 -7 -11 -23 -13 -8
3 -2 -8 -15 -18 -24 -4 -1
-3 -11 -5 -16 -18 -19 -7 -1
-4 -11 -5 -15 -19 -17 -9 -2
1 -9 -13 -18 -21 -25 -6 -3
-10 -6 5 -4 -9 -5 3 12
-18 0 10 -1 -3 -5 -9 2
-19 -1 -1 -10 -7 -20 -13 -7
-16 3 0 -8 -6 -17 -10 -3
-25 -3 13 -2 2 -9 -12 -1
-12 -3 -1 -17 -21 -31 -19 -15
-2 -3 -12 -20 -29 -29 -11 -6
-13 -4 1 -13 -17 -17 -7 1
-13 -2 3 -11 -12 -16 -6 1
-2 2 -12 -17 -23 -24 -5 -1
-15 -9 2 -4 -5 -6 1 11
-23 -3 10 2 10 -4 -6 4
-21 0 3 -8 -7 -17 -11 -4
-18 -3 2 -5 -11 -15 -6 2
-21 0 13 4 14 -1 -3 7
-11 3 -2 -9 3 -18 -10 -6
-4 -2 -6 -12 -13 -21 -3 1
-8 -5 3 -7 -8 -10 -1 6
-3 7 10 -5 -1 -10 -3 3
4 9 -2 -12 -13 -19 -1 2
-4 3 11 1 2 0 5 15
-4 12 18 6 5 3 -2 9
2 17 8 1 -4 -10 -6 2
7 18 3 -1 -2 -10 -2 5
4 15 11 4 9 -1 -4 7
9 19 -3 -4 -2 -15 -8 -2
3 11 -7 -5 -13 -13 4 8
-14 1 0 -1 -1 -3 6 13
-17 3 0 -1 -4 -3 4 11
-1 17 -10 -7 -14 -10 10 12
-16 0 -2 -3 0 2 7 17
-15 2 -2 -6 6 -4 -6 4
-8 12 -8 -8 -7 -11 -4 2
3 15 -11 -8 -7 -11 -1 7
-9 9 1 -3 4 -3 -5 8
-4 10 -10 -12 -13 -19 -10 -2
4 1 -19 -14 -13 -19 0 7
11 11 -8 -4 -1 -2 7 16
14 14 -10 -5 4 -5 1 11
24 8 -22 -13 -16 -19 1 6
3 6 -5 -2 -5 2 9 21
0 8 -2 -2 -2 -2 -3 9
9 6 -12 -13 -15 -18 -10 -2
3 -6 -16 -15 -16 -19 -10 -1
-16 -12 -8 -9 -8 -10 -12 1
-8 -5 -14 -18 -23 -25 -16 -7
-6 -14 -20 -25 -32 -26 -10 -2
-14 -19 -18 -23 -22 -20 -13 1
-12 -11 -12 -19 -19 -19 -13 0
15 11 -11 -24 -26 -26 -9 -1
1 2 -2 -16 -20 -12 -7 8
-10 -5 -3 -16 -17 -18 -22 -4
0 -5 -7 -21 -28 -31 -25 -12
-3 -9 -7 -19 -23 -28 -20 -6
-18 -15 5 -9 -6 -17 -19 -1
-3 -6 -5 -18 -22 -33 -24 -12
4 -2 -6 -15 -31 -30 -14 -2
-11 -11 1 -10 -24 -22 -15 0
-18 -15 -4 -13 -25 -25 -20 -6
-5 -10 -14 -23 -35 -35 -19 -9
-12 -20 -6 -21 -24 -26 -24 -5
-16 -12 0 -23 -22 -29 -34 -16
-2 -4 -4 -25 -26 -35 -31 -17
-3 -15 -3 -25 -28 -35 -28 -13
-19 -20 6 -15 -14 -21 -25 -6
-12 -6 -6 -23 -29 -35 -26 -15
-13 -9 -14 -21 -33 -33 -15 -6
-23 -24 -9 -21 -30 -26 -17 -3
-19 -26 -10 -26 -30 -32 -25 -11
3 -14 -19 -30 -37 -39 -22 -11
-18 -20 -2 -16 -23 -19 -16 3
-34 -19 2 -12 -14 -18 -25 -5
-24 -13 -6 -18 -22 -30 -27 -12
-22 -19 -12 -21 -34 -35 -30 -15
-32 -25 -2 -10 -23 -24 -30 -10
-17 -22 -13 -20 -39 -40 -32 -21
-10 -28 -21 -30 -39 -43 -27 -14
-14 -23 -11 -20 -18 -29 -22 -5
-15 -18 -9 -19 -19 -29 -24 -8
-9 -18 -19 -29 -45 -42 -25 -12
-21 -24 -3 -18 -29 -24 -20 -1
-33 -27 -4 -16 -26 -28 -31 -13
-22 -18 -9 -16 -27 -36 -30 -14
-11 -10 -9 -16 -28 -34 -26 -10
-21 -12 2 -9 -20 -22 -28 -7
-6 -5 -9 -18 -34 -39 -31 -18
-11 -21 -14 -23 -36 -39 -24 -11
-23 -36 -10 -24 -35 -34 -28 -12
-12 -26 -10 -20 -29 -36 -29 -12
3 -10 -17 -20 -37 -41 -23 -11
-23 -20 4 -10 -24 -19 -16 4
-28 -18 4 -11 -20 -24 -30 -8
-21 -18 -6 -20 -34 -39 -35 -17
-6 0 0 -17 -28 -32 -25 -6
-18 6 13 -7 -10 -19 -21 5
-10 14 -4 -19 -25 -41 -26 -4
-3 11 -3 -14 -28 -41 -18 5
-9 4 13 9 -12 -27 -15 10
-8 2 23 37 9 -10 -5 15
8 5 18 51 23 7 14 20
-6 -10 28 68 55 55 41 42
8 -10 10 58 73 89 58 42
45 -10 -7 48 79 124 90 50
65 -9 -21 50 106 181 135 73
64 8 -30 59 149 262 191 112
79 38 -65 47 170 319 251 143
97 61 -100 21 190 383 317 193
101 65 -128 -4 201 436 354 220
99 57 -149 -36 183 430 344 204
96 37 -157 -75 132 376 297 162
65 2 -149 -103 91 320 235 125
46 -12 -152 -153 18 215 147 65
29 -29 -154 -200 -63 97 65 14
9 -40 -142 -213 -110 10 3 -18
-16 -53 -109 -206 -135 -48 -53 -47
-25 -65 -102 -215 -183 -126 -108 -89
-37 -86 -90 -214 -207 -161 -125 -98
-43 -83 -71 -190 -185 -151 -122 -87
-42 -76 -67 -172 -170 -139 -113 -81
-22 -73 -80 -167 -173 -141 -105 -80
-36 -73 -51 -139 -143 -113 -94 -62
-52 -59 -41 -115 -121 -102 -90 -60
-36 -43 -48 -103 -112 -97 -77 -55
-25 -36 -47 -89 -92 -82 -62 -40
-34 -29 -28 -61 -56 -57 -52 -28
-28 -21 -31 -49 -58 -62 -46 -32
-14 -17 -24 -38 -54 -52 -31 -16
-13 -20 -12 -27 -38 -39 -28 -11
-10 -21 -10 -25 -39 -43 -35 -18
2 -16 -19 -35 -51 -58 -38 -24
-17 -25 -8 -25 -33 -41 -35 -13
-20 -17 -5 -22 -33 -42 -43 -22
-13 -13 -13 -27 -40 -54 -44 -26
-17 -22 -9 -24 -30 -49 -38 -20
-27 -22 6 -11 -21 -35 -35 -13
-9 -11 -10 -21 -33 -55 -40 -26
-9 -21 -12 -19 -39 -50 -30 -16
-22 -37 -3 -13 -34 -38 -29 -10
-19 -32 -8 -16 -31 -41 -34 -17
-11 -31 -20 -26 -50 -53 -34 -21
-32 -38 -2 -11 -34 -32 -29 -8
-25 -22 5 -10 -26 -35 -36 -15
-10 -7 -2 -16 -30 -45 -37 -22
-11 -8 -3 -16 -32 -43 -32 -17
-26 -23 5 -9 -21 -33 -35 -15
-14 -22 -10 -22 -39 -54 -41 -28
-4 -24 -13 -24 -39 -50 -31 -18
-7 -20 -6 -19 -31 -38 -30 -12
-8 -19 -11 -22 -39 -43 -37 -18
-10 -21 -14 -22 -43 -45 -28 -14
-28 -27 5 -8 -24 -26 -24 -1
-25 -22 6 -11 -22 -32 -36 -13
-12 -14 -3 -17 -28 -43 -40 -19
-12 -17 -2 -12 -27 -42 -35 -15
-15 -16 5 -7 -21 -34 -38 -14
1 -13 -13 -21 -37 -54 -45 -28
4 -18 -14 -19 -43 -51 -34 -18
-9 -28 -6 -12 -33 -39 -30 -14
-20 -26 2 -9 -27 -37 -29 -13
-20 -24 -9 -14 -37 -45 -25 -14
-35 -38 1 -6 -18 -29 -25 -6
-28 -27 4 -9 -17 -35 -37 -19
0 -11 -1 -14 -24 -46 -39 -24
-3 -19 0 -13 -26 -43 -35 -21
-29 -25 8 -2 -16 -32 -38 -18
-19 -22 -13 -12 -29 -51 -42 -31
-14 -25 -13 -8 -28 -46 -29 -17
-16 -16 3 2 -16 -31 -21 -7
-25 -23 -2 -4 -22 -37 -29 -13
-9 -18 -14 -16 -35 -47 -30 -17
-13 -20 1 -6 -21 -28 -25 -3
-19 -22 0 -8 -19 -32 -36 -17
-19 -18 -7 -12 -28 -42 -37 -21
-14 -9 -5 -9 -29 -38 -34 -16
-34 -27 5 -1 -14 -30 -37 -16
-17 -21 -5 -11 -29 -48 -40 -26
-6 -24 -10 -12 -35 -44 -30 -15
-11 -25 -7 -7 -25 -35 -30 -12
-1 -15 -5 -4 -27 -34 -29 -13
11 -9 -15 -7 -39 -43 -27 -13
-7 -20 -2 -2 -21 -27 -27 -5
-7 -15 -2 -5 -18 -32 -39 -18
-2 -14 -6 -10 -26 -41 -38 -23
-6 -17 -4 -6 -20 -37 -33 -18
-9 -18 8 1 -13 -28 -36 -18
13 -5 -7 -6 -26 -43 -37 -27
11 -8 -5 0 -21 -36 -23 -13
-2 -12 3 8 -9 -19 -20 -7
-15 -20 0 5 -16 -23 -25 -12
-7 -21 -6 -3 -29 -32 -24 -17
-12 -23 2 6 -17 -16 -22 -7
-5 -11 2 7 -9 -19 -31 -16
6 -8 -7 1 -17 -30 -33 -24
5 -12 -5 5 -18 -26 -28 -19
-12 -13 9 15 0 -14 -29 -16
3 -7 -4 9 -18 -28 -29 -24
2 -18 -7 10 -20 -25 -19 -14
-8 -24 0 18 -12 -18 -21 -12
2 -17 0 17 -16 -22 -27 -18
15 -14 -9 9 -21 -30 -24 -18
-1 -22 7 21 -4 -12 -21 -5
1 -15 0 17 -9 -18 -32 -17
16 -6 -4 15 -12 -25 -30 -19
20 -6 -2 16 -14 -24 -27 -14
7 -10 4 23 -4 -18 -32 -14
28 -4 -12 19 -18 -35 -33 -25
27 -11 -11 18 -15 -29 -21 -11
7 -17 0 30 -2 -13 -16 -2
-5 -7 7 38 7 -7 -12 2
-3 -8 0 32 -3 -15 -9 1
-24 -29 18 39 8 -1 -10 7
-16 -19 8 40 10 -5 -20 -6
13 0 6 43 12 -11 -16 -6
10 2 6 48 16 -6 -9 1
-8 -7 15 56 27 5 -10 4
10 2 3 45 9 -13 -12 -8
17 -1 0 49 9 -7 -1 3
11 -5 5 61 19 6 0 9
18 3 9 67 20 7 -1 7
41 19 0 64 13 2 4 8
27 14 11 76 34 24 9 20
25 13 13 83 42 25 3 11
26 12 11 79 38 18 4 8
14 10 11 77 38 21 9 12
-2 1 16 84 52 34 10 17
29 12 1 76 44 19 11 8
41 18 4 85 44 30 27 24
35 18 13 97 52 45 32 33
28 15 9 96 56 45 29 29
37 13 -7 86 44 33 27 23
29 13 9 97 59 55 32 35
28 22 14 99 62 55 26 28
32 25 8 94 61 47 27 26
27 27 9 98 68 53 33 31
26 35 22 109 76 65 35 35
46 41 3 96 56 44 31 22
41 27 -1 94 56 50 42 34
28 15 6 98 72 63 46 43
25 16 4 98 71 64 45 39
40 24 -6 91 60 56 48 38
24 18 5 100 76 75 51 48
26 28 6 99 74 72 42 38
39 31 -1 95 67 66 43 36
30 22 4 96 69 69 49 42
29 25 11 102 78 77 46 42
51 35 -3 91 59 57 42 30
43 28 -7 91 56 63 52 42
37 23 3 90 61 71 53 46
37 17 -3 83 57 67 46 38
39 12 -18 71 45 56 46 34
17 0 -3 77 64 73 47 43
20 16 2 79 73 69 40 34
30 31 0 78 62 63 42 35
33 28 1 73 54 61 41 35
26 30 8 74 65 66 35 34
39 36 -5 62 46 47 33 24
37 32 -2 63 48 53 42 37
23 16 5 60 44 54 36 34
36 20 -2 52 38 44 26 25
51 27 -13 45 28 31 27 24
19 13 3 53 41 46 28 33
12 7 1 42 37 35 13 17
13 9 -5 34 28 23 11 13
21 10 -1 34 29 24 14 17
20 15 7 37 35 27 7 15
29 21 -7 24 17 6 3 4
18 9 0 21 12 12 12 16
10 4 7 22 20 18 9 17
18 8 2 18 10 11 4 11
33 11 -7 6 -9 -2 2 7
8 -4 7 12 9 11 1 13
-1 -2 4 8 15 2 -13 0
12 4 -4 6 1 -9 -15 -5
-1 1 -4 6 0 -6 -10 -1
-11 -3 7 9 8 2 -11 1
14 7 -7 -1 -10 -20 -17 -10
15 -1 -9 0 -9 -16 -9 -3
11 -1 -3 2 -3 -6 -9 1
9 1 1 3 -4 -7 -10 0
30 9 -7 -6 -16 -16 -8 0
9 -2 9 0 -1 -1 -9 7
6 1 1 -4 -7 -11 -23 -9
6 -1 -7 -8 -18 -19 -22 -13
2 -2 -4 -5 -14 -12 -17 -6
-4 -2 5 -4 -2 -6 -20 -7
13 -2 -15 -19 -15 -27 -25 -19
20 -11 -15 -20 -25 -21 -16 -8
10 -13 -2 -9 -16 -9 -14 -2
9 -8 -5 -10 -16 -15 -20 -9
8 -11 -15 -16 -27 -24 -17 -10
-5 -17 6 -5 -12 -4 -15 1
-11 -11 1 -8 -11 -12 -26 -11
-8 -8 -2 -9 -18 -21 -26 -15
4 0 0 -8 -15 -18 -23 -10
-14 -7 4 -7 -3 -14 -27 -11
4 -1 -13 -15 -19 -29 -28 -20
11 8 -7 -11 -14 -18 -13 -4
-3 3 4 -4 -11 -8 -14 0
-5 1 -1 -4 -16 -14 -21 -8
7 -2 -13 -11 -24 -21 -19 -9
-10 -15 7 1 -2 2 -13 5
-8 -7 5 -2 -6 -7 -26 -8
4 -3 -3 -12 -18 -21 -29 -15
4 -10 -6 -14 -20 -20 -28 -14
-2 -4 6 -3 -7 -9 -26 -8
12 1 -8 -15 -22 -27 -29 -17
11 -1 -5 -10 -13 -20 -17 -3
-7 -5 2 -1 -11 -11 -15 1
-13 -5 1 -3 -4 -13 -18 -2
4 -7 -8 -11 -21 -23 -18 -6
-2 -9 5 -6 -2 -9 -20 1
3 2 4 -6 0 -14 -27 -7
-4 5 1 -8 -9 -19 -22 -8
-10 -8 -1 -11 -11 -19 -21 -8
-18 -11 8 -7 -9 -13 -26 -9
0 2 -3 -12 -26 -29 -24 -16
21 8 -1 -12 -21 -19 -12 -5
9 -5 -1 -10 -13 -14 -18 -7
-1 -8 -2 -14 -16 -18 -22 -13
7 -7 -8 -18 -28 -24 -17 -10
-12 -13 9 -3 -7 -3 -12 3
-2 -3 5 -4 -6 -11 -23 -8
-6 -2 1 -7 -18 -18 -22 -11
-6 -3 1 -4 -11 -17 -18 -7
9 5 10 3 0 -10 -21 -7
13 11 0 -3 -9 -26 -19 -12
5 -2 -2 -6 -16 -22 -12 -3
6 -5 1 -4 -15 -18 -16 -3
4 -14 -6 -13 -21 -28 -24 -13
17 -11 -12 -20 -29 -33 -21 -13
-6 -12 4 -3 -9 -12 -18 1
-13 -8 6 -5 -8 -15 -24 -8
1 -4 -1 -10 -14 -23 -22 -11
3 -5 1 -9 -13 -21 -21 -8
7 6 13 -2 -2 -12 -20 -4
27 21 -1 -7 -15 -26 -17 -9
16 1 0 -9 -10 -20 -10 0
8 -7 6 -4 -3 -12 -11 3
18 -1 -1 -10 -13 -20 -19 -6
34 0 -15 -18 -25 -30 -18 -8
9 -4 4 -5 -7 -10 -13 3
7 0 0 -10 -11 -20 -26 -10
-9 -2 -1 -9 -10 -22 -18 -7
-4 -6 1 -10 -6 -18 -15 -2
-1 -10 3 -9 -2 -15 -22 -6
14 5 -7 -16 -19 -27 -21 -11
8 8 2 -1 -6 -11 -3 9
-8 1 11 8 2 -3 -2 13
7 4 5 -5 -6 -14 -13 0
17 3 -5 -14 -18 -23 -12 -1
-8 -7 10 -1 -2 -3 -7 11
14 -4 0 -13 -13 -19 -26 -10
22 1 -10 -21 -20 -31 -27 -17
-8 -5 1 -9 -10 -19 -14 -3
-9 -6 7 -4 0 -13 -20 -5
9 6 -11 -14 -15 -29 -19 -13
12 -1 -6 -13 -14 -19 -7 1
14 -2 1 -12 -7 -12 -10 2
10 8 1 -9 -12 -12 -10 0
14 2 -7 -12 -22 -19 -8 -1
-4 -11 6 -9 -10 -7 -12 2
24 1 -6 -16 -10 -22 -28 -18
18 6 -7 -14 -21 -27 -23 -15
-25 1 8 -1 -5 -11 -5 4
-8 1 6 -3 0 -12 -16 -5
14 9 -11 -17 -22 -34 -21 -18
16 7 -5 -14 -21 -25 -8 -5
7 -5 5 -10 -13 -17 -10 -2
9 -12 -2 -17 -15 -25 -17 -11
18 -8 -10 -18 -13 -29 -11 -7
3 -11 7 -8 1 -10 -8 4
12 1 5 -10 -8 -16 -18 -8
20 8 1 -12 -14 -23 -16 -10
7 -1 -1 -13 -15 -23 -14 -8
2 -4 4 -9 -8 -17 -18 -10
23 5 -11 -21 -23 -34 -20 -19
30 2 -14 -22 -28 -32 -16 -13
-11 -4 1 -9 -16 -14 -7 -1
-8 -9 0 -14 -21 -21 -13 -7
4 -5 -9 -23 -31 -29 -10 -8
-18 -14 5 -12 -8 -10 -8 2
-11 -3 7 -7 -5 -14 -14 -8
-4 7 -1 -14 -12 -24 -15 -12
2 3 -1 -15 -16 -21 -13 -9
-1 -3 6 -11 -7 -17 -17 -11
20 7 -7 -18 -21 -33 -17 -18
28 3 -10 -17 -22 -26 -9 -8
17 3 -2 -13 -17 -17 -8 -5
-3 2 3 -10 -13 -15 -6 -4
9 2 -4 -17 -19 -20 -1 -1
5 -1 9 -7 -3 -2 -1 7
13 10 13 -8 5 -9 -12 -6
22 15 6 -15 0 -18 -13 -9
16 13 6 -8 -9 -14 -8 -4
14 15 11 -7 -3 -11 -15 -9
31 13 -5 -16 -20 -30 -19 -20
9 5 4 -9 -16 -15 -3 -3
-1 1 13 0 -5 -2 1 4
-1 9 9 -1 -5 -5 -2 0
3 10 1 -7 -11 -10 1 1
-15 4 23 10 12 14 8 15
-5 19 20 4 10 5 -2 2
14 28 6 -6 4 -4 -3 -3
16 24 11 -3 6 1 3 4
20 23 11 -5 6 0 -10 -5
33 25 -9 -14 -11 -18 -9 -14
20 13 -8 -10 -12 -7 3 1
-14 6 7 0 2 11 12 13
1 14 -1 -5 -4 3 6 6
24 13 -16 -18 -20 -9 2 -1
-15 4 5 -3 1 13 6 11
-7 10 5 -3 0 7 1 2
2 14 1 -6 -2 0 3 2
8 9 -3 -6 -3 0 2 2
1 3 2 -4 3 4 -3 -2
30 20 -13 -14 -14 -13 -5 -10
17 14 -4 -7 -5 -1 7 5
20 11 -3 -7 -5 4 3 3
32 15 -6 -13 -10 -5 -3 -4
27 11 -10 -16 -16 -8 2 -1
10 -1 3 -6 1 10 2 6
4 3 -1 -11 -4 1 -8 -9
2 2 -10 -18 -15 -10 -11 -14
19 -1 -10 -21 -16 -11 -10 -12
29 0 -3 -17 -12 -8 -13 -13
13 8 -6 -20 -19 -17 -8 -14
16 -7 -12 -26 -25 -17 -9 -12
11 -8 -4 -21 -22 -10 -11 -9
-7 1 5 -15 -12 -6 -7 -6
2 2 -4 -21 -20 -15 -6 -9
-11 -11 10 -14 -7 -4 -11 -5
-6 -6 6 -18 -10 -13 -23 -20
-7 -5 5 -18 -15 -19 -20 -21
-8 -11 6 -15 -10 -14 -15 -15
-1 -11 11 -15 -9 -13 -24 -21
21 -1 -3 -26 -27 -29 -25 -29
3 -12 2 -20 -25 -19 -14 -15
-12 -21 6 -17 -17 -11 -15 -11
-9 -15 7 -20 -19 -15 -17 -15
3 -17 0 -32 -33 -24 -19 -19
-15 -23 10 -21 -16 -7 -17 -11
0 -9 6 -23 -16 -16 -28 -24
22 -6 -8 -29 -29 -32 -34 -35
6 -4 0 -23 -22 -22 -24 -23
-36 -11 18 -14 -8 -11 -22 -19
3 -11 -6 -32 -37 -39 -33 -37
11 -11 -5 -27 -34 -27 -20 -22
-7 -15 7 -19 -22 -16 -19 -17
-6 -11 4 -21 -21 -20 -21 -21
2 -9 -2 -26 -30 -24 -17 -19
-19 -23 16 -18 -17 -9 -18 -13
-14 -15 7 -20 -14 -18 -28 -25
-2 -15 -4 -29 -27 -30 -31 -32
12 -11 -1 -32 -29 -28 -28 -29
-9 -6 13 -16 -14 -13 -24 -21
1 -5 -7 -29 -34 -33 -28 -32
-2 -17 -6 -27 -29 -26 -21 -22
-23 -20 6 -17 -20 -14 -18 -14
-23 -25 0 -25 -28 -23 -24 -23
-14 -23 -5 -31 -36 -27 -21 -22
-21 -23 14 -19 -14 -7 -19 -11
-13 -9 11 -17 -14 -14 -26 -22
8 -3 5 -22 -22 -23 -26 -27
2 -12 8 -20 -22 -20 -25 -24
-39 -25 17 -13 -8 -13 -27 -24
-14 -13 -2 -24 -23 -30 -26 -32
-5 -11 -2 -25 -13 -20 -16 -18
1 -13 3 -22 -18 -14 -19 -18
15 -5 2 -22 -17 -18 -23 -23
23 -5 -8 -27 -30 -26 -24 -25
-11 -14 14 -8 -11 -3 -18 -12
-30 -11 15 -7 -5 -12 -24 -18
-13 7 11 -19 -16 -18 -18 -12
-3 21 21 -6 -2 -11 -8 0
-23 13 32 7 12 -7 -13 -3
-2 16 27 19 2 -12 -7 -8
-10 5 41 56 35 25 21 15
2 -1 41 74 59 59 36 21
26 -1 23 72 74 86 56 24
53 4 1 61 89 129 95 42
41 0 10 79 139 209 144 77
47 14 -7 78 162 268 190 97
74 35 -39 66 182 328 244 127
97 53 -63 54 214 396 306 171
125 68 -92 26 232 453 346 199
132 83 -128 -18 214 461 366 201
117 61 -121 -43 187 438 339 181
87 29 -113 -69 141 379 276 138
72 9 -128 -118 66 279 200 87
53 0 -138 -176 -22 164 121 42
10 -26 -117 -198 -67 74 39 3
-8 -47 -99 -206 -103 -16 -33 -48
-20 -59 -86 -209 -147 -86 -84 -81
-36 -73 -73 -208 -180 -136 -121 -104
-48 -75 -52 -186 -175 -145 -134 -110
-31 -63 -60 -184 -184 -152 -123 -108
-4 -57 -56 -167 -162 -131 -104 -89
-11 -53 -47 -144 -136 -109 -93 -77
-31 -50 -33 -128 -127 -100 -83 -71
-35 -42 -30 -111 -114 -88 -65 -55
-35 -39 -11 -89 -80 -62 -59 -42
-21 -27 -15 -82 -67 -63 -60 -50
-5 -18 -21 -67 -61 -60 -49 -44
-9 -21 -14 -48 -47 -47 -39 -32
-15 -21 0 -35 -32 -38 -39 -31
2 -19 -10 -36 -43 -52 -38 -39
-14 -24 -1 -26 -26 -38 -23 -22
-30 -26 13 -18 -15 -26 -21 -18
-45 -23 14 -14 -14 -24 -19 -18
-7 -12 1 -26 -30 -34 -20 -22
-9 -13 19 -16 -13 -19 -24 -16
-21 -7 20 -13 -10 -28 -29 -25
-13 -7 10 -14 -14 -34 -25 -25
-22 -18 10 -13 -16 -31 -25 -21
-41 -18 18 -6 -12 -24 -26 -20
-13 -6 2 -12 -24 -39 -24 -26
-23 -23 4 -10 -16 -29 -15 -15
-31 -20 14 -8 -4 -20 -16 -13
-22 -16 10 -9 -14 -26 -20 -19
-10 -16 0 -18 -24 -34 -20 -20
-4 -15 16 -13 -11 -20 -24 -16
3 -11 16 -20 -15 -33 -36 -32
-23 -12 15 -13 -15 -31 -25 -24
-29 -19 13 -7 -12 -30 -25 -21
-43 -22 20 -2 -1 -25 -28 -21
-21 -12 2 -16 -21 -42 -27 -26
-15 -19 3 -14 -20 -33 -19 -15
-28 -21 12 -8 -13 -25 -21 -13
-17 -15 7 -12 -21 -34 -26 -21
10 -12 -4 -26 -33 -41 -28 -23
12 -15 8 -20 -18 -28 -32 -20
4 -7 13 -16 -12 -32 -36 -27
-26 -3 21 -4 -9 -25 -19 -15
-36 -6 26 -2 -3 -21 -16 -9
-28 -12 21 -6 -5 -26 -29 -21
-1 -9 -5 -21 -26 -49 -35 -34
-3 -14 -5 -21 -20 -42 -27 -23
-22 -10 8 -12 -9 -28 -23 -16
-18 -5 11 -9 -15 -27 -19 -16
-2 -9 6 -9 -20 -28 -15 -13
-9 -22 18 0 -1 -16 -20 -10
-12 -12 12 -4 -5 -28 -32 -26
-16 -13 15 -7 -10 -32 -27 -26
-12 -20 13 -2 -10 -29 -26 -23
-27 -17 22 5 6 -20 -24 -20
-24 -5 12 0 -6 -33 -19 -23
-20 -17 9 -2 -13 -25 -13 -13
-23 -22 13 -6 -10 -20 -18 -14
-24 -27 5 -9 -17 -27 -24 -22
-20 -33 -7 -20 -28 -37 -26 -26
-35 -40 10 -10 -8 -21 -28 -18
-33 -30 8 -12 -11 -28 -33 -27
-16 -5 12 -4 -3 -21 -19 -18
-12 5 21 6 5 -10 -12 -6
-25 -5 20 8 0 -11 -21 -15
-7 -2 2 -4 -18 -31 -22 -24
-14 -13 1 -5 -16 -25 -17 -16
-15 -10 6 -5 -8 -18 -20 -13
-14 -11 4 -4 -5 -19 -21 -15
-14 -17 1 -6 -15 -23 -15 -12
-31 -25 17 2 2 -7 -18 -5
-24 -22 9 1 -3 -16 -28 -19
-11 -20 5 -2 -10 -25 -28 -23
-13 -17 13 5 -1 -16 -22 -14
-19 -11 21 13 10 -10 -24 -13
1 -3 8 2 -3 -24 -21 -18
-13 -11 13 6 -4 -13 -12 -4
-18 -13 14 11 3 -9 -17 -5
-11 -9 10 12 0 -10 -18 -8
-8 -10 7 3 -10 -15 -16 -7
-26 -20 16 15 5 2 -17 -1
-17 -12 12 10 4 -9 -28 -15
-8 -7 9 5 1 -15 -26 -17
-21 -15 13 11 2 -7 -20 -8
-30 -14 17 18 7 -3 -24 -11
-4 0 4 10 -7 -20 -23 -16
1 1 10 19 15 -3 -7 4
-2 0 15 21 18 5 -9 7
-2 -2 10 16 7 -1 -14 -1
1 -5 5 15 -1 -5 -10 0
-10 -12 20 26 18 11 -12 6
-1 -4 15 24 14 0 -20 -6
6 3 9 24 11 -5 -18 -7
-1 5 11 27 16 -3 -15 -4
-10 0 20 35 28 3 -15 -6
-2 0 8 31 10 -8 -11 -11
-5 -10 8 35 11 2 -3 1
-3 -10 15 41 21 9 -2 5
4 -2 15 37 22 4 -4 1
8 0 8 37 24 3 2 7
-15 -11 25 57 44 23 5 15
-2 7 21 54 42 14 -2 6
13 15 17 53 42 11 2 6
3 3 19 56 40 13 2 7
-6 -2 19 55 39 14 -5 1
15 11 2 47 27 -1 -2 -5
21 11 8 58 35 16 14 12
17 16 18 68 49 30 18 19
15 20 15 73 48 31 21 18
14 12 12 70 51 33 29 23
-2 4 32 84 69 55 33 31
1 15 25 85 71 50 25 23
5 17 17 86 64 44 27 21
4 16 23 87 69 52 32 27
-1 7 23 87 75 54 28 25
21 16 2 81 57 39 30 18
31 16 6 88 63 53 41 30
31 22 12 90 81 61 41 33
25 28 8 85 78 60 39 30
23 21 4 82 70 58 44 33
6 13 23 96 87 79 47 43
13 24 19 96 89 75 42 34
19 32 12 90 86 71 47 33
16 29 15 93 86 78 51 39
18 29 21 98 88 84 49 40
37 33 -1 86 71 68 51 32
25 22 4 90 79 81 61 44
16 15 8 91 85 88 59 44
27 25 2 87 76 83 57 40
32 25 -4 82 72 80 62 42
15 16 10 90 88 96 59 47
18 24 6 90 89 89 53 39
26 28 8 89 84 88 61 43
15 25 15 91 93 93 64 48
8 26 19 95 94 95 58 45
23 27 -3 83 70 73 55 35
18 18 0 84 83 83 64 46
20 20 6 81 86 89 61 46
15 16 1 71 75 81 55 39
22 22 0 68 77 79 62 45
8 19 19 75 92 92 59 50
15 24 16 66 76 76 46 34
25 26 7 65 62 67 44 30
15 19 9 65 73 65 42 31
8 17 16 61 70 63 35 27
28 22 1 51 51 45 35 21
20 15 3 46 45 47 38 28
6 8 6 41 43 47 31 24
0 3 3 35 37 39 26 19
5 0 -3 32 28 31 27 19
1 4 16 43 55 47 26 28
6 12 13 36 55 32 15 15
3 10 9 29 29 20 13 11
2 7 12 25 26 19 10 13
-3 3 19 26 34 16 2 6
25 16 2 16 11 -2 4 -1
16 6 4 12 12 6 9 10
-1 1 10 14 18 12 8 12
3 6 8 7 13 5 2 6
-2 -2 1 1 0 -3 3 6
-35 -19 16 10 22 10 1 11
-25 -9 10 5 17 0 -7 -1
-7 1 3 -1 11 -7 -7 -3
0 -2 3 -1 14 -7 -9 -1
-5 -10 4 1 9 -9 -16 -9
14 -5 -10 -13 -11 -26 -15 -15
8 -7 -1 -7 -8 -11 -3 2
-8 -7 6 -4 4 -5 -4 3
-13 -9 6 -9 0 -11 -9 -3
0 -10 -1 -16 -9 -17 -9 -3
-12 -17 6 -11 -2 -5 -14 0
-20 -11 6 -11 -5 -13 -20 -10
-16 -10 1 -11 -4 -19 -18 -12
-18 -19 3 -11 -4 -16 -16 -9
-14 -12 5 -11 -7 -18 -24 -17
-5 -16 -9 -22 -23 -35 -23 -23
-9 -17 -3 -14 -16 -21 -11 -9
-10 -11 12 -6 -6 -10 -10 -5
-9 -13 6 -13 -10 -20 -18 -13
-7 -16 1 -15 -11 -21 -13 -8
-25 -18 19 -4 7 -2 -12 0
-16 -12 12 -13 -5 -15 -24 -15
-11 -15 3 -16 -10 -22 -23 -18
-24 -23 8 -13 0 -18 -19 -14
-19 -15 13 -6 -3 -15 -23 -17
2 -3 -3 -16 -25 -31 -22 -22
-11 -20 1 -12 -17 -20 -15 -12
-19 -23 11 -7 -7 -13 -15 -8
-9 -14 1 -14 -8 -20 -20 -16
-11 -18 -3 -19 -15 -24 -16 -13
-32 -15 19 -1 10 -2 -11 0
-22 -5 19 -2 0 -13 -19 -11
-10 -6 10 -5 -6 -21 -21 -15
-18 -9 13 -5 1 -16 -18 -10
-36 -19 13 -5 -1 -17 -24 -16
-15 -15 -1 -16 -18 -33 -22 -22
-16 -18 5 -14 -14 -23 -15 -13
-12 -15 5 -13 -12 -20 -16 -11
-7 -9 3 -13 -12 -24 -19 -16
-5 -11 4 -13 -10 -24 -13 -10
-28 -23 18 -5 1 -9 -18 -6
-30 -25 7 -14 -3 -26 -32 -23
-28 -28 -1 -15 -13 -31 -29 -25
-23 -21 10 -11 -7 -22 -22 -15
-22 -12 13 -7 1 -21 -25 -18
-8 -9 -6 -14 -21 -37 -24 -23
-10 -14 1 -11 -13 -25 -16 -11
-13 -13 8 -11 -6 -20 -17 -9
-14 -14 3 -15 -9 -27 -20 -14
-15 -22 2 -12 -15 -26 -12 -7
-28 -22 17 -3 -3 -11 -15 -2
-19 -15 8 -12 -7 -23 -25 -16
-18 -15 4 -14 -12 -29 -23 -17
-16 -16 11 -11 -8 -22 -19 -12
-11 -11 13 -10 -8 -22 -23 -15
2 -6 -5 -18 -26 -38 -21 -21
-4 -10 0 -14 -19 -25 -11 -8
-12 -18 6 -10 -10 -20 -13 -7
-12 -15 -2 -16 -16 -26 -16 -12
-9 -15 -8 -21 -24 -28 -14 -10
-33 -28 7 -10 -6 -11 -16 -5
-37 -27 7 -13 -11 -21 -24 -17
-37 -25 6 -14 -11 -26 -21 -17
-34 -16 15 -4 3 -15 -12 -5
-32 -10 18 1 9 -13 -14 -7
-8 -5 -1 -11 -10 -30 -14 -13
1 -3 7 -6 -2 -18 -5 2
-14 -8 8 -6 -1 -14 -9 1
-19 -9 2 -17 -8 -23 -14 -7
-16 -10 -4 -23 -16 -25 -11 -5
-30 -22 12 -12 -3 -10 -13 -1
-18 -13 8 -17 -7 -21 -22 -14
-6 -6 1 -15 -10 -22 -17 -12
-9 -12 3 -11 4 -14 -12 -5
-12 -18 5 -11 -1 -16 -19 -11
2 -11 -10 -20 -12 -30 -17 -15
-14 -20 -1 -16 -5 -19 -9 -4
-26 -24 3 -15 -8 -14 -12 -4
-21 -18 -4 -19 -16 -23 -15 -10
-21 -24 -6 -23 -25 -25 -13 -8
-28 -19 10 -12 -3 -10 -13 -2
-31 -23 6 -18 -10 -22 -22 -14
-22 -27 -5 -21 -19 -28 -18 -14
-15 -18 0 -15 -9 -19 -13 -6
-13 -10 3 -13 -8 -19 -17 -10
6 -8 -12 -21 -28 -36 -19 -17
-4 -18 -4 -19 -15 -24 -10 -5
-15 -20 3 -17 -10 -20 -12 -6
-9 -13 -5 -21 -18 -26 -16 -12
-10 -25 -11 -24 -22 -30 -16 -12
-21 -26 4 -10 -10 -16 -18 -6
-12 -13 2 -16 -17 -27 -26 -15
-15 -20 -9 -27 -27 -38 -28 -21
-12 -15 -5 -24 -17 -34 -26 -16
-7 -12 7 -21 -8 -31 -27 -16
11 -7 -11 -32 -26 -45 -25 -21
-3 -15 -3 -21 -19 -29 -14 -6
-20 -17 0 -16 -14 -22 -15 -6
-17 -14 -8 -22 -22 -30 -20 -14
-6 -8 -8 -24 -20 -28 -14 -7
-23 -12 8 -15 1 -12 -15 -2
-21 -9 6 -18 -7 -22 -20 -13
-22 -22 -4 -25 -23 -32 -22 -18
-32 -30 -1 -24 -17 -29 -21 -16
-39 -33 4 -20 -14 -29 -26 -19
-20 -30 -16 -33 -39 -47 -26 -26
-22 -24 -9 -26 -24 -31 -13 -10
-22 -15 1 -20 -13 -22 -12 -5
-11 -8 -2 -22 -22 -28 -14 -10
-5 -6 -3 -22 -25 -24 -7 -3
-21 -14 9 -13 -5 -10 -11 -1
-25 -18 0 -20 -9 -25 -22 -16
-27 -13 2 -15 -9 -24 -15 -11
-32 -13 10 -8 0 -13 -7 -1
-31 -9 8 -9 -2 -16 -14 -7
-16 -9 -9 -21 -26 -33 -15 -15
-25 -19 -3 -21 -22 -23 -7 -3
-29 -16 2 -19 -17 -18 -9 -3
-23 -12 0 -21 -16 -24 -11 -7
-15 -8 -4 -20 -13 -20 -4 -1
-32 -8 14 -6 8 -1 -3 9
-25 -2 5 -12 -6 -16 -14 -6
-17 -1 -4 -17 -14 -25 -15 -8
-18 -5 3 -15 -1 -17 -12 -2
-14 2 5 -13 3 -16 -14 -5
7 11 -9 -23 -21 -29 -11 -8
-9 1 -7 -19 -14 -18 -5 2
-21 -13 -12 -23 -13 -19 -11 -4
-16 -11 -18 -28 -23 -26 -15 -10
-9 -6 -18 -26 -22 -22 -7 -3
-13 -5 2 -13 -3 -3 -4 7
-13 -4 -2 -17 -7 -13 -12 -4
-5 2 -5 -18 -9 -18 -8 -3
-3 0 -1 -16 -5 -13 -8 1
2 -2 -5 -14 -12 -19 -17 -9
23 2 -22 -29 -29 -36 -17 -16
15 -6 -17 -26 -19 -24 -9 -4
-7 -13 -10 -23 -17 -21 -11 -2
-25 -13 -10 -25 -19 -24 -10 -3
-28 -23 -9 -28 -23 -23 -4 2
-36 -31 4 -18 -14 -12 -11 2
-14 -15 -10 -17 -18 -25 -20 -11
4 0 -13 -25 -14 -28 -14 -8
0 -4 -5 -22 -9 -20 -11 -2
-11 -16 -6 -23 -12 -25 -20 -11
4 -13 -24 -34 -31 -43 -21 -20
-3 -15 -17 -32 -30 -32 -15 -9
-6 -15 -12 -32 -27 -29 -18 -9
-1 -12 -16 -37 -32 -37 -20 -15
-11 -16 -15 -37 -30 -36 -16 -10
-35 -26 5 -26 -16 -23 -21 -8
-22 -21 -1 -28 -30 -35 -30 -20
-16 -22 -10 -32 -36 -41 -27 -20
-29 -25 -5 -31 -29 -37 -24 -13
-37 -31 -4 -31 -27 -38 -30 -19
-22 -29 -17 -38 -46 -52 -28 -24
-25 -30 -11 -36 -40 -42 -24 -14
-24 -18 -4 -33 -37 -37 -27 -15
-14 -16 -9 -39 -43 -46 -29 -20
-8 -26 -12 -41 -44 -45 -25 -16
-33 -37 2 -29 -23 -30 -28 -12
-28 -32 -8 -34 -33 -43 -37 -25
-22 -22 -10 -31 -33 -44 -30 -22
-35 -30 -3 -27 -28 -35 -26 -14
-33 -26 -1 -27 -23 -36 -30 -20
-11 -19 -15 -37 -39 -51 -28 -24
-20 -29 -11 -34 -40 -42 -24 -17
-31 -32 -5 -30 -37 -38 -26 -17
-25 -22 -8 -34 -38 -44 -27 -20
-18 -22 -7 -34 -39 -44 -24 -16
-43 -41 2 -29 -26 -33 -30 -16
-41 -43 -6 -37 -34 -46 -38 -30
-20 -30 -9 -40 -38 -49 -34 -27
-9 -15 0 -31 -33 -40 -30 -19
-14 -24 -4 -33 -32 -45 -39 -29
-11 -23 -21 -47 -50 -62 -40 -36
-20 -30 -13 -39 -46 -50 -29 -23
-20 -32 -5 -37 -40 -43 -29 -20
-19 -31 -13 -45 -46 -52 -36 -29
-14 -31 -12 -43 -44 -48 -29 -20
-27 -32 4 -29 -24 -33 -30 -14
-20 -21 -4 -34 -35 -46 -39 -26
-16 -24 -9 -40 -44 -54 -38 -29
-27 -32 -1 -33 -39 -46 -34 -22
-40 -36 -3 -30 -36 -47 -38 -26
-24 -29 -22 -44 -55 -65 -39 -34
-24 -33 -11 -41 -50 -53 -31 -24
-16 -17 -2 -34 -35 -44 -29 -20
-13 -17 -9 -36 -35 -49 -31 -26
-12 -29 -8 -35 -43 -49 -30 -21
-22 -29 5 -27 -26 -36 -35 -20
-18 -20 0 -30 -31 -47 -41 -28
-13 -7 -6 -33 -30 -51 -35 -24
-32 -9 4 -28 -25 -42 -29 -10
-38 -7 14 -17 -19 -42 -31 -11
-24 2 4 -14 -30 -56 -29 -16
-27 -8 21 16 3 -29 -11 1
-24 -17 36 45 41 4 7 13
-2 -17 22 47 44 25 25 14
23 -10 9 48 61 69 64 39
3 -21 19 65 108 140 106 70
25 -6 1 68 147 192 150 86
43 5 -21 60 169 258 210 122
62 30 -37 57 203 339 276 167
78 61 -70 28 229 399 329 203
105 88 -119 -11 225 443 386 240
87 79 -133 -41 221 469 403 254
74 59 -128 -64 191 440 363 219
68 34 -132 -98 137 368 298 164
43 8 -136 -144 62 271 224 117
0 -16 -118 -181 -6 169 129 67
-11 -30 -114 -211 -74 49 32 3
-11 -48 -105 -219 -120 -44 -38 -46
-27 -68 -81 -213 -162 -108 -94 -81
-40 -77 -71 -208 -195 -161 -140 -112
-28 -79 -80 -205 -214 -185 -141 -119
-45 -90 -71 -185 -193 -164 -125 -101
-54 -87 -61 -162 -166 -143 -112 -91
-38 -75 -63 -151 -162 -139 -105 -87
-26 -59 -52 -138 -138 -123 -87 -71
-34 -48 -31 -108 -109 -93 -77 -54
-23 -25 -33 -99 -100 -94 -73 -55
-20 -16 -28 -81 -81 -80 -56 -41
-36 -24 -15 -58 -53 -57 -38 -25
-34 -21 -8 -45 -34 -54 -40 -29
-13 -14 -20 -48 -57 -67 -37 -33
-18 -22 -5 -33 -45 -48 -25 -18
-25 -21 5 -24 -27 -39 -25 -15
-19 -16 -2 -27 -28 -49 -30 -24
-12 -15 -3 -32 -37 -49 -27 -20
-30 -25 15 -21 -23 -35 -31 -16
-25 -19 9 -27 -28 -49 -38 -29
-25 -22 0 -26 -32 -51 -37 -30
-32 -28 5 -19 -27 -43 -34 -24
-29 -26 6 -19 -23 -47 -41 -31
-13 -23 -11 -30 -43 -63 -38 -35
-18 -25 3 -25 -31 -47 -29 -22
-15 -15 8 -20 -28 -40 -28 -18
-9 -5 2 -21 -35 -46 -28 -21
-18 -15 3 -26 -36 -42 -21 -15
-39 -28 17 -16 -21 -31 -28 -14
-27 -18 3 -25 -26 -47 -38 -29
-15 -15 2 -26 -31 -50 -35 -27
-20 -21 6 -20 -25 -43 -32 -23
-33 -23 6 -22 -19 -48 -41 -29
-17 -18 -9 -32 -32 -60 -36 -30
-21 -27 -2 -27 -33 -48 -29 -19
-13 -19 3 -22 -18 -41 -29 -17
-4 -12 0 -25 -19 -48 -33 -20
-5 -16 2 -24 -30 -44 -25 -14
-18 -10 18 -12 -11 -26 -25 -8
-17 -7 10 -18 -12 -40 -33 -20
-15 -13 4 -19 -18 -49 -34 -24
-21 -23 6 -13 -25 -41 -32 -21
-27 -20 3 -19 -20 -49 -40 -28
-7 -10 -11 -27 -32 -60 -34 -29
-14 -17 -3 -19 -28 -45 -25 -17
-21 -18 6 -16 -21 -38 -24 -15
-9 -10 4 -19 -23 -43 -24 -17
-9 -17 1 -21 -26 -43 -21 -15
-22 -22 18 -11 -14 -30 -27 -15
-13 -17 8 -16 -20 -42 -37 -28
-9 -22 0 -18 -28 -47 -34 -29
-20 -19 10 -6 -16 -32 -26 -16
-28 -14 13 -2 -8 -33 -28 -19
-11 -9 -4 -13 -21 -50 -26 -24
-19 -19 1 -10 -24 -40 -22 -15
-20 -19 7 -8 -19 -36 -27 -17
-14 -12 -2 -16 -26 -45 -31 -25
0 -7 5 -11 -22 -36 -20 -15
-10 -5 24 1 -4 -19 -19 -8
-8 -2 17 -4 -11 -30 -27 -20
-15 -10 4 -9 -19 -39 -30 -24
-22 -20 6 -9 -18 -33 -29 -21
-16 -15 11 -6 -13 -36 -33 -24
-2 -10 4 -11 -26 -48 -27 -26
-5 -12 1 -10 -23 -39 -23 -16
-3 -8 1 -10 -24 -35 -28 -18
4 -7 -7 -14 -29 -47 -32 -27
-6 -13 -5 -12 -28 -36 -20 -16
-27 -10 17 5 -4 -14 -17 -5
-25 -9 12 0 -6 -27 -27 -18
-19 -12 5 -5 -13 -31 -27 -20
-20 -15 11 4 -9 -22 -24 -14
-24 -10 12 6 -3 -23 -27 -19
-9 -5 -2 -6 -19 -36 -22 -19
-17 -16 3 2 -13 -23 -15 -8
-9 -9 6 6 -8 -19 -19 -10
-2 1 2 1 -16 -26 -20 -16
-8 -8 3 -1 -15 -19 -11 -7
-22 -11 17 12 4 -4 -16 -5
-3 0 7 6 0 -17 -25 -16
8 1 3 6 2 -21 -22 -17
2 -5 10 12 0 -11 -19 -10
-6 -2 15 15 6 -14 -23 -13
7 6 8 12 -6 -21 -13 -10
1 1 15 18 2 -7 -6 1
-6 -2 13 20 7 -7 -11 -3
6 6 4 15 4 -17 -14 -9
8 3 3 12 3 -14 -8 -3
-8 -1 21 24 18 -1 -12 -1
-2 7 15 24 23 -9 -15 -8
-3 10 15 28 17 -10 -10 -6
-9 4 22 41 27 1 -6 2
-6 10 19 37 25 -6 -13 -6
20 21 6 30 7 -18 -6 -7
13 8 15 38 19 -4 2 6
-3 0 18 42 25 0 -1 6
-2 5 11 42 22 -6 -3 -1
-5 3 13 42 25 0 6 8
-25 -2 29 54 37 14 4 11
-8 11 23 53 34 7 2 5
10 20 19 56 31 6 7 7
6 8 21 59 37 10 8 10
11 16 20 63 45 8 4 4
18 24 12 59 34 1 13 5
10 22 19 70 44 18 22 20
14 25 23 78 51 27 24 23
23 33 17 75 51 23 27 21
17 30 16 73 54 30 32 26
-6 17 25 79 69 40 26 27
0 26 14 73 56 29 19 15
2 21 12 75 52 30 24 16
-7 13 22 87 72 45 34 28
-4 17 22 92 78 44 31 26
18 27 8 85 63 34 37 26
16 20 11 89 71 49 45 37
22 26 18 94 78 58 48 40
36 43 14 95 86 59 53 40
34 41 18 99 88 71 65 52
11 39 33 108 102 86 60 54
14 46 28 104 92 77 55 44
27 51 19 101 89 73 57 43
20 47 21 109 96 83 62 50
16 48 20 105 96 79 58 45
35 48 3 93 74 67 60 41
26 35 9 99 85 80 68 52
25 37 15 105 96 88 69 55
42 41 9 99 86 81 69 51
44 38 9 94 86 85 73 55
18 33 24 107 109 103 73 61
22 43 21 104 106 96 69 54
21 47 20 105 107 96 76 58
12 45 24 111 111 105 81 65
19 46 19 106 106 95 70 54
38 56 7 99 92 84 77 55
29 47 15 100 99 94 82 65
24 39 14 99 96 93 73 59
29 37 5 86 81 81 70 50
20 42 11 88 88 91 81 62
-8 35 29 100 106 103 77 65
4 39 22 91 95 88 64 51
22 42 17 84 88 78 62 47
28 50 26 87 93 84 64 52
27 58 32 89 93 81 60 49
26 50 16 77 82 65 62 46
8 29 23 70 75 65 57 47
7 28 20 63 69 58 45 37
19 37 16 54 62 48 42 30
17 35 22 55 65 54 52 41
0 30 31 60 77 62 43 40
5 35 27 53 63 49 35 28
1 35 19 48 52 44 35 26
-5 25 26 47 52 47 33 27
0 23 23 42 50 37 22 17
19 30 9 33 33 24 24 14
-5 15 15 38 38 32 27 22
-7 12 22 36 38 32 22 20
16 25 14 26 23 18 18 12
12 29 16 26 22 25 25 21
-16 23 30 38 43 38 21 23
-13 25 25 33 38 27 16 14
-5 27 24 32 38 26 20 16
-15 20 31 34 40 31 20 21
-12 22 29 31 39 23 12 10
-1 28 19 26 17 12 17 8
-1 23 23 27 21 23 20 17
2 24 23 25 22 21 14 14
8 25 17 20 17 8 9 4
7 21 11 18 12 12 14 10
-7 15 25 24 22 22 7 10
-10 11 16 15 18 7 -1 -4
-14 2 10 13 16 1 -1 -5
-7 7 20 16 25 10 2 1
13 28 26 19 24 9 2 -1
31 29 11 9 3 -3 5 -4
16 22 17 16 13 10 11 7
-3 15 23 17 21 13 9 6
0 16 17 9 16 3 5 -1
3 14 15 7 11 5 9 5
-4 14 25 16 21 16 3 5
12 23 14 9 14 2 -6 -6
23 27 13 5 6 -4 -6 -7
6 14 18 13 13 5 -2 -1
-9 8 20 15 14 3 -4 -6
2 19 9 9 4 -7 2 -5
10 20 20 15 11 5 8 7
4 17 24 19 11 7 5 7
17 29 16 14 3 -3 2 1
20 27 19 15 13 5 9 11
5 22 30 24 21 14 2 12
16 25 22 15 13 -1 -9 -4
22 23 16 9 10 -10 -10 -7
11 20 22 15 10 -2 -6 0
5 27 25 21 21 -5 -6 1
20 24 8 8 6 -20 -7 -5
10 12 8 6 1 -17 -9 -2
1 17 19 14 8 -8 -6 3
22 39 20 18 5 -10 -2 4
31 40 22 20 13 0 8 13
8 26 31 24 24 6 -3 10
8 31 24 18 14 -7 -9 1
25 39 23 18 10 -9 -5 2
26 32 28 24 17 -1 -3 6
25 29 24 23 17 -10 -11 -4
36 28 10 10 5 -25 -10 -5
31 24 14 8 6 -14 -4 2
27 30 18 10 4 -10 -6 3
29 37 11 7 -1 -17 -8 -3
34 40 17 15 6 -5 3 10
21 42 34 28 27 11 2 15
12 36 27 19 20 -3 -7 3
18 30 20 15 7 -8 -5 2
18 32 29 21 15 2 -1 8
21 29 22 16 15 -7 -10 -3
41 40 5 4 -1 -20 -8 -4
29 34 10 10 2 -9 -3 5
31 40 15 16 10 -4 -2 6
38 51 9 10 4 -10 -1 3
33 46 19 14 8 0 10 14
22 40 32 26 25 14 6 16
21 35 23 19 13 1 -4 3
26 34 17 17 8 -4 -4 1
25 40 26 24 19 10 2 9
20 42 23 22 17 4 -4 2
26 38 7 13 5 -9 -1 -2
14 22 14 16 11 2 2 5
16 27 19 14 13 6 2 6
34 44 10 10 3 -2 1 1
40 47 20 13 5 9 10 10
25 36 29 21 18 20 3 10
33 45 28 21 22 13 4 4
34 49 24 23 21 13 9 8
28 49 28 24 26 22 11 14
26 54 29 25 36 19 8 9
39 53 16 16 15 6 13 6
38 42 20 18 14 15 14 13
27 37 20 18 19 14 7 7
31 36 12 9 7 1 3 -2
36 39 17 12 8 9 13 8
19 34 28 21 19 19 8 9
19 40 21 18 14 9 5 2
30 45 19 16 12 6 6 2
29 33 19 17 18 8 4 3
30 34 19 14 13 0 -3 -5
38 38 5 9 0 -12 0 -7
28 29 12 14 6 0 6 4
27 37 17 14 13 3 6 5
28 41 10 8 9 -9 2 -2
37 42 16 14 14 2 12 11
30 44 29 21 27 15 10 14
24 41 23 13 17 1 3 3
29 38 18 9 18 -5 4 3
27 41 22 13 19 3 6 8
28 43 22 11 14 -5 -1 0
44 47 15 5 6 -13 6 3
32 38 15 9 2 -5 8 10
23 36 16 8 8 -5 2 5
39 52 14 3 2 -13 0 1
32 52 23 12 9 -1 13 16
11 41 34 20 22 10 9 18
16 38 26 13 11 -2 3 9
23 37 17 6 2 -9 2 7
23 39 28 15 9 1 5 14
28 39 22 11 4 -7 -2 7
40 40 6 2 -12 -20 0 4
35 38 14 8 1 -5 5 13
35 46 21 13 11 -1 6 15
45 47 11 7 -5 -13 1 6
47 48 15 8 4 -5 8 16
30 45 29 18 21 7 4 19
22 47 22 14 11 -5 -1 10
23 50 21 12 6 -6 4 15
26 52 34 19 16 5 9 24
41 59 31 16 16 -1 4 16
52 65 16 8 -1 -12 9 15
47 61 23 17 12 3 16 25
36 58 29 22 21 8 16 29
46 65 20 15 14 -3 14 23
49 67 23 21 14 7 22 33
30 60 31 28 25 15 12 29
28 60 21 18 19 1 3 17
25 52 19 15 14 -2 7 18
15 44 25 16 11 4 6 20
31 54 18 10 10 -3 2 14
44 59 -2 -2 3 -14 6 14
31 46 -1 -1 -2 -7 7 17
27 53 6 5 6 2 9 21
45 56 2 2 6 -4 10 17
46 53 5 4 7 5 17 26
33 57 21 17 18 17 13 27
33 60 18 15 9 6 6 19
33 55 13 11 8 3 7 18
30 48 13 14 13 10 5 19
39 52 9 15 14 5 2 11
53 58 1 8 2 -1 12 16
37 51 10 14 19 14 20 26
13 30 10 9 11 10 10 19
22 33 2 -6 -3 -6 1 7
26 36 9 -2 -3 4 9 18
11 29 16 7 12 13 2 16
14 24 9 1 9 2 -3 7
23 32 5 -1 -2 -2 -1 7
19 33 15 6 8 8 0 13
22 37 12 4 9 -1 -8 2
36 39 -5 -8 -9 -13 -6 -1
28 26 -3 -9 -12 -7 -6 3
15 10 -2 -14 -10 -9 -14 -4
8 9 -9 -24 -21 -21 -20 -15
6 11 1 -15 -15 -6 -8 -1
-6 9 20 0 0 6 -9 4
17 28 14 -2 -8 -3 -12 -4
14 21 11 -7 -12 -8 -14 -6
-4 9 24 0 -2 4 -12 -2
-10 12 20 -1 2 -3 -18 -11
17 20 3 -11 -18 -13 -14 -12
6 10 9 -6 -11 -3 -11 -5
-23 0 16 -6 -6 0 -12 -6
-8 13 10 -11 -14 -7 -12 -11
-2 13 9 -9 -7 3 -6 -4
-11 7 16 -3 -2 8 -15 -7
-11 7 9 -8 -7 -4 -20 -17
-11 7 9 -7 -7 -2 -16 -12
-20 -1 18 -5 -7 7 -14 -6
-10 9 16 -2 -5 3 -19 -10
-2 8 2 -15 -17 -10 -18 -13
-14 -6 6 -12 -14 -6 -19 -10
-15 -9 7 -11 -18 -4 -23 -13
-5 -6 -1 -19 -31 -16 -25 -18
-8 -5 5 -15 -27 -7 -16 -6
-22 -6 21 -6 -9 1 -20 -5
-17 -5 9 -13 -15 -16 -30 -17
-16 -10 4 -18 -24 -24 -32 -19
-15 -3 13 -11 -18 -16 -28 -13
-5 1 12 -8 -18 -25 -33 -19
6 1 -1 -17 -33 -36 -29 -20
0 -5 7 -13 -25 -26 -22 -11
3 -1 11 -9 -18 -22 -24 -11
9 6 2 -17 -33 -37 -29 -18
1 -6 5 -17 -29 -34 -27 -14
-18 -14 11 -8 -19 -26 -33 -15
-14 -4 6 -12 -15 -33 -34 -20
-13 6 6 -6 -14 -32 -27 -14
-26 3 17 0 -10 -19 -22 -7
-23 0 14 -6 -19 -28 -29 -15
-3 2 0 -17 -32 -40 -25 -17
-17 -9 0 -14 -30 -32 -24 -11
-19 -11 2 -17 -25 -31 -29 -15
1 2 -4 -22 -26 -39 -30 -18
9 1 -1 -19 -24 -30 -26 -12
1 7 9 -15 -16 -22 -29 -9
-9 12 -1 -23 -25 -37 -35 -15
-21 9 4 -16 -20 -36 -30 -7
-27 19 30 16 8 -15 -18 9
-20 28 42 47 30 -1 -7 12
8 31 35 61 33 15 16 22
18 27 34 73 62 55 41 38
21 19 22 70 82 98 68 50
42 19 4 63 101 140 105 63
49 13 -2 71 132 208 154 92
54 19 -9 76 181 283 199 120
76 44 -41 65 201 347 255 150
90 70 -74 45 230 419 321 196
98 93 -100 23 255 488 377 240
116 112 -121 -7 246 506 391 243
106 84 -135 -42 198 465 362 212
65 42 -132 -69 153 414 308 174
42 19 -135 -113 84 319 227 118
47 16 -139 -170 -10 194 138 59
27 -3 -130 -197 -64 96 63 19
-6 -34 -105 -194 -98 14 -16 -25
-11 -48 -93 -203 -149 -73 -84 -72
-20 -60 -80 -202 -187 -129 -124 -99
-45 -71 -60 -180 -179 -133 -131 -97
-40 -54 -51 -157 -160 -124 -118 -91
-28 -45 -55 -143 -152 -115 -97 -78
-31 -47 -37 -127 -131 -97 -88 -67
-30 -37 -29 -108 -117 -81 -81 -60
-26 -31 -40 -99 -106 -79 -71 -56
-24 -20 -32 -82 -89 -56 -52 -35
-29 -15 -13 -57 -60 -35 -46 -26
-11 -1 -9 -44 -48 -33 -41 -25
-19 -3 -4 -29 -38 -28 -31 -16
-30 -8 14 -14 -24 -15 -27 -10
-20 -1 7 -15 -26 -24 -35 -21
-14 -8 -4 -23 -38 -38 -32 -23
-24 -25 0 -20 -32 -34 -32 -20
-28 -20 1 -15 -28 -31 -33 -22
-18 -6 2 -15 -29 -35 -29 -22
-24 -14 10 -17 -27 -30 -26 -17
-31 -14 8 -17 -27 -29 -42 -25
-17 -12 2 -19 -34 -36 -43 -31
-11 -17 5 -14 -30 -35 -36 -24
-16 -5 21 2 -6 -16 -25 -10
-29 -12 13 -2 -12 -26 -34 -23
-19 -13 -2 -15 -37 -41 -34 -27
-21 -17 6 -10 -29 -29 -30 -18
-25 -15 9 -6 -21 -25 -28 -18
-19 -11 2 -12 -35 -37 -29 -22
-21 -17 5 -15 -33 -30 -26 -15
-42 -26 12 -11 -20 -25 -36 -20
-41 -22 8 -15 -21 -35 -40 -30
-28 -13 5 -14 -24 -38 -38 -27
-25 -6 19 -1 -11 -21 -30 -15
-14 -5 10 -1 -17 -27 -35 -22
-14 -21 -5 -13 -34 -44 -37 -28
-38 -30 3 -9 -24 -32 -32 -19
-37 -22 7 -10 -23 -27 -33 -19
-15 -1 2 -14 -28 -35 -32 -23
-23 -3 11 -8 -16 -21 -23 -11
-53 -25 16 -8 -15 -18 -36 -18
-42 -19 12 -10 -23 -26 -38 -25
-16 3 13 -1 -20 -21 -28 -16
-18 -1 21 6 -8 -11 -26 -10
-21 -6 13 0 -14 -21 -33 -22
-19 -10 3 -7 -26 -31 -27 -21
-27 -15 11 -4 -19 -21 -24 -15
-24 -13 16 -4 -16 -16 -26 -17
-22 -13 6 -11 -24 -27 -28 -24
-39 -30 9 -8 -22 -19 -26 -19
-45 -31 15 -3 -14 -14 -36 -24
-26 -15 10 -5 -18 -22 -35 -29
-1 4 11 -2 -16 -21 -30 -26
-14 -12 13 0 -8 -14 -32 -23
-23 -12 6 -4 -15 -21 -37 -31
-16 -9 -1 -8 -27 -27 -26 -25
-9 -5 8 -2 -19 -15 -23 -16
-10 -2 13 -1 -11 -10 -24 -15
-5 0 0 -9 -23 -22 -30 -26
-13 -4 8 -5 -18 -14 -24 -17
-21 0 27 9 -2 0 -25 -14
-13 3 19 8 -10 -10 -30 -19
-2 1 11 4 -12 -17 -31 -21
-10 -9 15 6 -3 -11 -31 -18
3 -4 7 -1 -13 -25 -41 -31
8 1 -1 -8 -27 -30 -32 -26
-15 -12 2 -4 -22 -22 -30 -21
-10 -4 9 3 -12 -14 -27 -19
-3 9 5 -2 -17 -19 -25 -21
-12 7 13 4 -13 -9 -19 -11
-20 1 20 8 -5 -5 -29 -17
-8 3 15 10 -3 -8 -28 -18
-9 3 14 11 -8 -11 -25 -16
-16 -4 19 15 5 -5 -26 -13
-1 0 13 9 -1 -15 -33 -21
14 2 0 0 -15 -25 -30 -24
3 -1 9 5 -12 -11 -21 -12
-6 2 11 11 -6 -5 -21 -11
-3 5 2 6 -15 -17 -23 -18
-11 1 12 15 -4 -4 -14 -5
-26 -6 27 30 11 9 -18 -6
-13 1 20 26 2 0 -21 -11
-8 5 16 22 -1 -5 -22 -12
-16 3 23 27 11 4 -19 -6
-10 8 17 24 5 -5 -25 -14
0 3 2 14 -7 -16 -21 -15
-4 -3 12 20 2 -6 -16 -6
-13 0 17 22 8 -1 -16 -6
7 13 7 19 -2 -11 -15 -10
3 7 12 21 3 -4 -12 -5
-16 1 23 31 20 6 -18 -6
-2 10 19 37 12 -1 -20 -10
13 13 20 39 10 0 -14 -4
6 12 29 47 25 14 -9 2
12 15 22 47 18 4 -15 -7
24 15 11 40 5 -4 -9 -5
25 7 15 46 11 5 -8 -1
23 14 23 51 19 11 -6 2
22 23 16 45 15 2 -5 -2
5 9 21 52 24 15 1 9
-19 -4 30 59 35 23 -7 2
-9 5 22 57 24 12 -13 -8
6 7 14 59 21 9 -11 -7
12 8 29 67 41 24 -4 3
37 25 30 76 43 22 -1 2
52 34 18 72 34 18 9 7
30 20 26 74 41 31 12 15
7 17 32 81 53 39 17 17
18 26 23 80 46 35 20 16
12 19 28 85 51 46 27 27
4 21 40 99 67 59 24 28
21 25 28 97 62 49 20 19
30 28 23 96 58 46 24 20
5 15 29 100 69 57 26 26
14 17 20 93 63 50 22 17
40 26 10 86 55 46 30 21
54 48 21 99 64 64 41 36
42 48 27 103 71 71 43 36
41 40 18 95 62 61 41 31
34 33 22 100 70 73 48 42
26 35 28 106 83 80 44 40
43 42 19 99 78 68 40 32
53 40 12 98 72 65 40 30
45 36 28 109 90 80 47 42
36 40 25 113 85 78 49 40
47 43 7 103 70 72 55 41
49 35 13 106 83 83 59 49
44 35 14 106 93 87 57 48
42 37 1 90 77 73 54 39
45 35 11 99 77 89 63 51
46 42 25 110 90 99 60 52
46 41 12 96 86 85 52 41
40 44 15 102 84 86 58 45
33 42 22 106 94 96 60 53
30 40 16 99 84 86 53 41
46 45 5 88 71 78 60 45
40 38 10 86 73 82 59 48
37 40 13 84 77 84 57 47
52 53 4 75 62 71 53 39
39 38 13 79 70 82 60 49
21 28 27 84 81 88 52 45
29 27 16 73 74 72 38 30
41 33 11 64 63 62 34 26
36 30 16 70 58 68 35 33
33 34 12 67 55 57 29 24
38 34 2 50 48 45 33 26
34 30 11 48 52 49 31 30
27 26 12 42 39 46 26 24
29 26 4 33 25 33 23 18
17 13 7 34 27 36 23 23
-4 6 22 36 37 42 15 21
-6 8 15 32 27 31 10 12
12 23 15 32 27 30 14 15
7 22 25 37 38 38 14 22
12 21 9 22 24 18 1 5
18 15 1 12 9 9 7 6
8 9 12 18 16 17 9 13
18 23 16 19 19 20 9 15
33 30 1 9 4 4 1 3
22 16 11 8 7 10 3 10
6 11 18 10 13 13 -6 7
11 9 4 1 -4 -2 -15 -6
8 -2 -1 -3 -7 -8 -18 -10
-2 -4 13 8 9 7 -10 1
15 13 13 7 5 -1 -13 -5
25 16 6 1 -9 -8 -7 -3
14 16 7 5 -1 -1 -6 2
21 21 7 1 -3 -1 -9 -1
23 8 0 -5 -14 -9 -10 -6
12 0 7 -6 -7 -3 -8 -1
-4 1 15 -4 -3 -1 -18 -7
5 7 9 -7 -7 -10 -22 -13
14 8 6 -5 -4 -12 -18 -10
10 4 13 2 4 -2 -17 -5
7 5 8 2 1 -9 -18 -10
10 5 1 -3 -7 -14 -10 -5
8 -4 2 -3 -8 -11 -14 -3
7 0 6 -2 -7 -8 -15 -5
19 3 -6 -11 -19 -24 -20 -13
9 -7 1 -10 -9 -14 -16 -3
-7 -7 13 0 4 -6 -19 -6
-5 -12 3 -9 -16 -20 -27 -18
11 5 5 -4 -12 -19 -19 -12
3 6 14 5 0 -6 -14 -3
1 12 13 -2 -10 -15 -20 -10
7 10 2 -9 -17 -21 -14 -8
-3 1 5 -9 -15 -15 -17 -6
3 11 4 -11 -18 -17 -22 -12
15 13 -5 -15 -24 -29 -24 -17
2 -9 6 -8 -10 -13 -16 -6
-13 -18 13 2 1 -8 -24 -9
-13 -13 7 -8 -9 -21 -30 -19
0 -7 1 -10 -14 -25 -28 -16
3 -4 10 -1 -7 -11 -22 -6
13 0 5 -5 -9 -20 -26 -15
12 6 2 -4 -12 -18 -12 -6
-1 3 11 3 -4 -5 -8 1
4 3 10 -1 -7 -9 -16 -5
16 8 2 -12 -18 -25 -21 -15
11 1 4 -11 -21 -18 -21 -12
-4 -8 12 -3 -8 -12 -27 -15
4 -1 6 -3 -13 -21 -28 -19
2 1 5 -6 -10 -23 -26 -18
-6 1 19 4 -2 -10 -21 -8
0 1 10 -4 -12 -22 -28 -18
4 -5 -3 -11 -23 -28 -23 -17
2 -3 8 1 -14 -13 -14 -4
-6 0 10 3 -9 -10 -15 -4
13 12 4 -4 -15 -20 -16 -10
11 5 10 -1 -9 -13 -14 -5
-2 1 17 7 1 -6 -21 -8
2 11 12 2 -7 -15 -23 -12
-2 5 10 2 -9 -16 -20 -10
-7 -5 13 4 2 -10 -21 -8
13 0 3 -6 -6 -26 -31 -20
26 0 -7 -13 -26 -32 -25 -17
7 -4 3 -3 -17 -17 -17 -8
-6 3 10 4 -11 -10 -15 -6
7 7 -1 -2 -15 -19 -16 -10
1 -1 7 0 -6 -9 -10 -1
-28 -13 14 5 3 -3 -20 -7
-24 -10 7 0 -2 -14 -23 -14
-14 -1 8 4 -3 -13 -18 -8
-10 8 21 14 8 1 -10 1
2 10 12 4 0 -10 -16 -9
22 13 -4 -6 -4 -16 -10 -7
8 0 -2 -6 -6 -12 -13 -5
6 2 3 -3 -6 -8 -14 -6
15 4 -5 -7 -16 -17 -14 -10
-3 -2 5 -1 -4 -4 -7 0
-18 -1 20 7 5 4 -14 -2
-4 9 15 1 -7 -8 -17 -11
1 5 7 0 -7 -10 -16 -8
-7 -1 19 8 1 1 -14 -3
0 2 8 2 -6 -11 -21 -12
10 3 -5 -7 -18 -19 -14 -9
3 -2 2 -3 -11 -10 -11 -2
8 6 4 -5 -2 -10 -14 -6
19 5 -5 -13 -20 -22 -17 -13
8 -11 -3 -12 -22 -17 -18 -10
4 -9 3 -7 -12 -13 -26 -13
10 1 0 -7 -10 -18 -24 -16
6 3 2 -3 -7 -15 -17 -9
-15 -3 13 7 2 -2 -13 -2
1 9 11 1 -2 -10 -16 -8
18 13 4 -7 -12 -16 -11 -5
11 8 9 -5 -8 -9 -10 -2
-1 -5 2 -10 -10 -14 -17 -9
16 2 -9 -19 -23 -25 -19 -14
15 2 1 -11 -17 -13 -13 -3
-14 -5 8 -4 -2 -7 -21 -7
-17 2 4 -4 -1 -16 -20 -11
-8 10 5 3 -4 -12 -11 -3
-10 6 16 12 -1 0 -7 4
-4 13 11 2 -1 -10 -12 -2
8 11 -2 -6 -14 -20 -10 -5
-4 -2 4 -3 -4 -11 -8 1
-12 -9 4 -5 -13 -12 -13 -4
1 2 -10 -14 -29 -27 -18 -12
3 1 -2 -9 -21 -16 -12 -3
-3 -2 4 -6 -8 -11 -21 -8
-7 -5 -4 -13 -16 -22 -24 -15
-1 2 -3 -11 -15 -22 -19 -12
-4 13 9 -1 -5 -8 -13 -2
0 11 2 -4 -10 -16 -16 -8
4 6 -5 -9 -21 -21 -10 -6
3 0 -4 -9 -13 -15 -12 -4
5 -4 -2 -9 -10 -12 -14 -6
3 0 -6 -12 -17 -19 -11 -9
-3 2 3 -5 -11 -8 -6 1
-8 11 9 0 -5 -3 -13 -2
1 15 2 -4 -11 -13 -16 -9
4 12 2 -6 -14 -14 -12 -6
-10 10 12 5 4 0 -6 3
0 16 5 1 -4 -10 -10 -4
16 16 -3 -3 -12 -15 -5 -3
11 12 2 -2 -7 -8 -6 0
0 10 8 0 -1 -6 -8 -2
7 18 8 -3 -13 -14 -6 -4
-8 3 11 1 -8 -3 -3 4
-6 10 18 5 12 1 -10 1
8 18 12 4 -1 -7 -12 -6
13 21 6 1 -9 -10 -9 -3
0 20 14 8 4 4 -4 5
-3 19 8 4 -2 -4 -5 0
6 16 -7 -6 -15 -12 -3 -2
-3 17 2 1 3 0 2 8
-8 12 6 4 7 6 4 11
5 22 -2 0 -3 -2 6 8
-2 15 0 0 -6 4 6 12
-10 7 2 -2 -6 1 -9 2
1 8 -5 -3 -9 -9 -11 -6
7 10 -12 -8 -6 -11 -8 -3
3 8 -5 -5 3 -3 -8 1
3 18 -3 -5 -3 -8 -6 -1
6 17 -6 -3 -14 -8 4 6
2 6 -3 -2 -7 -2 3 8
1 4 -7 -7 -8 -4 -3 3
5 5 -17 -15 -20 -14 -4 -2
-4 3 -3 -6 -8 0 3 9
-9 10 5 3 0 6 0 10
8 17 -4 -1 -9 -5 -7 3
17 13 -8 -2 -13 -11 -8 1
5 3 0 3 -5 -3 -8 5
1 0 -8 -4 -9 -11 -12 -5
6 3 -16 -12 -21 -18 -7 -4
2 0 -15 -18 -28 -16 -11 -4
-11 -2 -8 -18 -23 -13 -10 -2
-5 -2 -17 -27 -35 -25 -13 -8
-6 -2 -4 -21 -28 -15 -9 0
-10 3 2 -15 -16 -11 -18 -6
5 6 -5 -16 -26 -20 -19 -12
0 -1 -2 -16 -26 -23 -18 -11
-17 -9 8 -9 -13 -13 -20 -8
-10 0 0 -13 -18 -21 -22 -15
-10 -6 -7 -18 -32 -27 -16 -11
-16 -19 -6 -20 -31 -25 -19 -12
-17 -20 -7 -19 -27 -26 -22 -15
-2 -9 -8 -22 -35 -32 -20 -17
-2 -10 1 -17 -34 -23 -17 -9
-16 -16 3 -14 -20 -19 -25 -14
-17 -11 2 -15 -25 -26 -26 -19
-18 -11 2 -14 -28 -25 -20 -13
-28 -11 9 -8 -20 -14 -20 -7
-24 -3 4 -12 -29 -25 -24 -16
-11 0 -8 -19 -40 -31 -19 -16
-23 -15 -2 -13 -27 -23 -18 -9
-32 -24 -5 -16 -21 -25 -23 -13
-15 -20 -15 -31 -40 -37 -25 -21
-12 -14 -6 -27 -35 -27 -22 -12
-24 -12 -3 -26 -25 -26 -32 -20
-19 -14 -6 -27 -28 -31 -31 -22
-19 -12 -6 -19 -27 -29 -24 -15
-25 -14 6 -8 -23 -17 -21 -8
-17 -10 4 -12 -25 -26 -25 -16
-7 -7 -7 -20 -33 -31 -18 -11
-11 -13 0 -15 -29 -20 -14 -5
-14 -14 4 -9 -25 -18 -15 -7
-13 -16 -5 -17 -37 -31 -20 -13
-16 -18 -2 -16 -27 -26 -20 -9
-26 -22 4 -13 -30 -25 -29 -17
-33 -19 -4 -22 -38 -36 -33 -22
-34 -18 -5 -22 -28 -34 -27 -18
-37 -22 4 -15 -21 -24 -24 -13
-20 -11 -1 -16 -27 -30 -26 -19
-8 -5 -2 -14 -33 -28 -12 -7
-21 -13 4 -9 -28 -21 -14 -5
-27 -17 4 -11 -26 -22 -19 -9
-8 -7 -4 -23 -39 -33 -20 -17
-11 -9 5 -11 -30 -20 -11 -4
-26 -13 12 -6 -20 -15 -20 -9
-20 -12 1 -10 -32 -30 -26 -19
-20 -16 2 -11 -28 -32 -24 -15
-28 -15 7 -8 -17 -23 -23 -9
-28 -6 -2 -19 -27 -37 -28 -15
-26 -5 -5 -23 -37 -41 -18 -5
-26 5 15 -6 -20 -28 -12 5
-35 6 22 21 -5 -16 -8 8
-9 23 28 50 14 3 13 15
-4 10 37 70 40 39 34 28
-10 -6 33 74 65 73 48 32
14 1 13 61 77 107 80 43
30 0 3 65 95 162 124 66
32 -2 1 72 137 233 174 97
57 21 -30 56 154 289 225 120
77 36 -66 35 170 354 290 161
94 61 -94 15 194 423 348 204
117 79 -127 -15 193 466 380 221
126 79 -147 -51 166 454 373 210
92 38 -135 -72 132 415 325 175
62 16 -130 -102 83 342 250 124
47 0 -139 -159 -1 223 164 67
32 -12 -139 -203 -62 109 80 19
1 -31 -117 -212 -104 25 8 -18
-35 -58 -108 -220 -150 -65 -61 -65
-38 -66 -98 -220 -192 -134 -103 -91
-44 -78 -76 -200 -201 -153 -120 -95
-41 -70 -66 -182 -193 -152 -120 -95
-17 -55 -70 -169 -189 -147 -108 -89
-19 -60 -59 -149 -163 -122 -95 -75
-31 -59 -39 -127 -135 -105 -92 -69
-35 -48 -37 -112 -126 -100 -83 -63
-32 -30 -32 -86 -100 -81 -62 -47
-41 -21 -15 -62 -70 -55 -47 -29
-30 -11 -17 -52 -60 -54 -42 -31
-12 -7 -20 -44 -55 -51 -29 -22
-18 -13 -4 -27 -39 -37 -24 -14
-18 -10 -2 -19 -37 -33 -24 -14
-11 -1 -10 -25 -42 -42 -23 -20
-19 -13 1 -19 -36 -32 -19 -11
-32 -22 7 -19 -28 -33 -33 -20
-11 -11 -2 -26 -33 -43 -37 -29
2 -12 -2 -23 -37 -44 -34 -26
-19 -17 13 -13 -25 -33 -32 -20
-21 -10 6 -12 -29 -38 -31 -24
-14 -16 -3 -20 -44 -45 -28 -25
-17 -22 1 -17 -40 -37 -28 -21
-20 -16 1 -12 -36 -32 -25 -19
-6 -7 -8 -20 -44 -40 -26 -23
-13 -9 2 -13 -27 -26 -20 -13
-28 -14 10 -8 -22 -20 -26 -15
-31 -21 8 -13 -32 -30 -28 -23
-27 -16 13 -5 -24 -26 -22 -16
-37 -23 17 0 -13 -19 -24 -13
-20 -15 4 -7 -25 -35 -33 -27
-2 -4 1 -11 -33 -38 -23 -21
-11 -7 10 -4 -24 -26 -19 -12
-19 -17 8 -2 -22 -27 -23 -16
-10 -19 2 -12 -38 -39 -26 -22
-7 -19 10 -8 -35 -29 -24 -15
-10 -14 10 -7 -25 -28 -30 -18
-1 -6 1 -13 -33 -38 -34 -24
3 0 0 -11 -34 -38 -31 -22
-13 -12 10 -6 -17 -25 -29 -16
-19 -11 6 -4 -28 -33 -30 -22
-15 -18 -1 -8 -33 -36 -23 -20
-10 -17 10 -1 -27 -25 -19 -12
-6 -10 6 0 -26 -26 -21 -15
-2 -16 -9 -11 -36 -40 -25 -24
-8 -17 1 -7 -29 -27 -21 -13
-17 -6 14 3 -13 -18 -21 -10
-19 -5 9 -2 -23 -25 -23 -16
-19 -11 6 -6 -25 -30 -24 -18
-20 -17 9 -2 -15 -26 -30 -20
-6 -15 2 -6 -28 -37 -32 -27
-8 -10 -7 -11 -41 -40 -24 -22
-17 -11 5 1 -24 -27 -16 -12
-6 -4 6 0 -19 -25 -20 -14
6 -1 -1 -6 -31 -37 -21 -19
-11 -11 6 1 -23 -25 -18 -11
-19 -13 6 0 -21 -27 -29 -22
-22 -19 -5 -11 -34 -40 -35 -31
-25 -27 -6 -10 -36 -41 -34 -30
-18 -19 4 -1 -22 -31 -31 -23
5 -7 -2 -7 -33 -42 -34 -30
1 -9 -2 -8 -38 -41 -24 -22
-19 -16 5 1 -25 -29 -17 -12
-28 -21 3 -2 -27 -31 -23 -17
-16 -21 -8 -12 -36 -44 -26 -25
-11 -12 6 -1 -25 -25 -15 -10
-12 -4 18 8 -10 -17 -19 -10
-11 -6 8 4 -19 -25 -22 -19
-11 -11 6 6 -18 -26 -20 -18
-21 -16 15 10 -6 -18 -21 -15
-15 -13 7 4 -23 -31 -26 -24
-6 -16 -5 2 -29 -32 -20 -20
-15 -24 1 5 -23 -23 -19 -15
-23 -23 1 4 -25 -23 -23 -20
-23 -21 -7 3 -34 -30 -21 -21
-27 -23 2 7 -21 -19 -18 -14
-20 -18 16 14 -9 -12 -23 -20
-5 -7 11 10 -12 -19 -23 -23
2 -3 9 14 -12 -19 -20 -20
-7 -4 17 21 -1 -7 -16 -13
-12 -16 4 11 -14 -23 -26 -26
-3 -13 -3 10 -21 -25 -18 -20
-1 -11 4 16 -16 -14 -14 -14
4 -17 2 11 -21 -19 -22 -22
14 -6 -5 6 -28 -26 -20 -23
-4 -11 4 16 -8 -10 -13 -10
-18 -10 13 21 -1 -6 -19 -13
-20 -3 15 29 0 -5 -12 -12
-15 -9 12 32 3 -8 -10 -10
-20 -14 17 33 11 -2 -14 -9
-3 -2 13 30 2 -14 -17 -16
6 -4 2 28 -7 -17 -9 -12
-9 -11 11 38 8 -4 -5 -3
-13 -14 13 39 3 -3 -7 -6
0 -12 1 34 -10 -13 -8 -11
-5 -13 8 41 6 0 -3 -2
-14 -7 16 47 19 7 -9 -3
-7 -1 16 50 19 6 -2 -2
-5 0 16 54 21 8 2 2
-10 -1 25 64 33 17 1 4
3 1 18 59 20 3 -5 -8
17 4 8 58 13 1 1 -4
11 1 15 66 32 15 7 4
-5 1 19 70 30 20 11 8
0 -2 6 60 19 11 11 3
2 -6 14 69 35 22 14 10
0 -1 22 80 47 31 12 10
3 9 23 83 50 31 18 11
4 8 19 81 46 33 21 13
-2 1 22 87 55 42 21 16
13 11 15 85 50 35 21 9
22 16 11 86 48 36 31 17
10 9 19 93 59 46 34 24
12 16 19 97 54 49 36 24
19 23 7 92 46 44 39 22
5 10 16 94 52 56 43 30
-12 2 16 97 64 57 34 23
-7 8 10 94 61 52 36 18
3 15 8 97 58 55 42 24
14 23 19 108 73 68 46 34
23 28 9 100 69 59 44 26
24 26 7 98 64 59 55 32
17 26 16 107 73 75 62 44
21 29 15 105 74 73 58 41
36 29 1 96 62 63 57 33
19 20 7 101 70 78 63 45
9 24 17 109 85 84 60 43
18 34 15 111 84 81 61 41
15 25 10 107 82 80 62 40
8 15 9 104 79 84 57 38
33 25 -4 93 69 70 50 27
41 28 -7 93 69 71 61 35
20 24 7 101 78 88 70 49
17 33 12 103 80 93 72 51
19 32 2 92 64 78 68 42
14 28 11 95 76 91 73 52
2 22 17 96 76 92 62 45
7 26 11 83 66 79 57 35
17 32 9 80 59 74 57 36
18 23 14 80 64 77 53 36
27 31 9 77 55 66 50 29
24 23 4 67 49 59 53 31
9 12 11 67 55 63 46 30
6 6 9 62 49 59 40 25
9 10 -2 52 35 46 39 21
-2 7 7 53 40 53 39 29
-7 6 16 57 54 55 32 24
7 13 14 51 43 45 30 19
11 8 8 40 27 35 23 17
-8 -3 14 40 39 37 18 14
0 9 6 31 28 22 15 5
10 6 -4 22 12 14 16 6
12 3 1 22 15 20 17 11
4 8 3 23 11 20 16 11
0 11 0 22 4 13 18 9
-17 -4 9 28 14 22 19 16
-19 -5 13 25 14 20 7 7
-14 -4 8 17 8 9 3 0
-16 -7 6 15 6 4 1 -1
-27 -13 10 18 9 9 -1 1
-18 -10 0 5 1 -8 -9 -10
3 -8 -5 2 -9 -14 -4 -7
10 -2 1 6 -8 -5 -1 -1
6 -3 -4 0 -13 -9 -6 -6
3 -13 -10 -6 -21 -17 -6 -9
-25 -23 4 2 -10 -4 0 2
-26 -8 16 9 10 2 -3 1
1 10 10 6 4 -3 -1 -2
-4 3 5 2 -5 -8 -3 -4
-17 -8 11 6 -1 -2 -7 -3
-14 -4 4 -1 -10 -13 -10 -12
-11 -8 -1 -5 -8 -16 -4 -7
-14 -12 9 -1 -3 -11 -6 -6
-11 -8 4 -1 -13 -12 -9 -8
-6 -8 -7 -8 -23 -23 -10 -12
-19 -19 2 -6 -15 -14 -10 -6
-18 -17 8 -5 -9 -14 -19 -13
-1 -3 2 -3 -9 -19 -20 -16
-4 1 1 -4 -11 -20 -17 -15
-19 -1 11 3 -4 -10 -15 -9
-11 -1 5 -2 -14 -18 -16 -15
-7 -5 -3 -8 -22 -21 -12 -12
-17 -17 9 -2 -12 -11 -8 -6
-18 -18 1 -5 -20 -15 -15 -12
-4 -14 -13 -14 -31 -28 -19 -18
-5 -10 3 -6 -14 -11 -12 -6
-21 -11 10 -2 -6 -9 -20 -13
-21 -15 5 -6 -13 -19 -21 -18
-8 -7 1 -6 -18 -20 -19 -16
-17 -13 10 2 -7 -9 -20 -12
-2 -8 5 -3 -18 -20 -21 -18
9 -4 -2 -9 -23 -22 -15 -14
-5 -14 6 -4 -12 -14 -15 -9
-10 -14 4 -9 -17 -14 -16 -12
-3 -17 -8 -21 -33 -26 -19 -19
-22 -29 2 -14 -25 -16 -18 -11
-32 -26 7 -6 -15 -14 -23 -15
-10 -8 1 -9 -22 -20 -21 -20
-19 -15 3 -4 -20 -18 -17 -16
-33 -19 11 2 -5 -8 -16 -11
-23 -13 -2 -11 -20 -24 -24 -23
-9 -16 -9 -14 -30 -27 -20 -19
-10 -21 0 -5 -22 -16 -16 -12
-10 -11 1 -5 -15 -15 -16 -13
8 4 -6 -9 -17 -20 -13 -13
-4 -7 9 0 -9 -8 -7 -3
-13 -2 12 3 -3 -7 -14 -9
-9 -2 2 -4 -13 -17 -18 -15
-10 -10 -3 -8 -11 -22 -19 -14
-21 -15 7 -1 -3 -14 -20 -15
-20 -16 0 -5 -15 -27 -25 -23
-10 -18 -8 -9 -26 -30 -18 -18
-13 -23 -2 -5 -15 -21 -17 -14
-17 -18 2 -3 -17 -20 -17 -14
-14 -12 -5 -9 -21 -26 -14 -14
-18 -14 9 3 -8 -8 -5 -2
-18 -3 20 10 1 -2 -10 -4
-8 2 9 1 1 -12 -13 -11
-12 -3 3 -4 -4 -17 -14 -12
-24 -12 13 0 -2 -10 -15 -11
-10 -6 2 -6 -9 -21 -18 -17
-13 -20 -6 -7 -17 -22 -10 -11
-21 -24 -2 -2 -13 -13 -9 -8
-12 -14 2 -1 -15 -12 -11 -10
11 -3 -7 -10 -26 -21 -13 -15
3 -8 3 -3 -10 -6 -8 -5
-9 -7 10 5 -2 -4 -14 -11
-5 0 3 1 -7 -11 -14 -14
-13 -13 -2 -4 -10 -13 -13 -14
-37 -29 7 0 -2 -6 -15 -12
-21 -17 2 -4 -8 -13 -14 -18
-9 -15 -3 -8 -20 -14 -7 -10
-9 -17 -1 -7 -18 -9 -9 -9
7 -6 -1 -8 -17 -10 -12 -11
8 -6 -10 -14 -24 -20 -10 -14
-13 -17 -1 -8 -6 -6 -7 -4
-18 -16 7 -4 -1 -5 -16 -12
-5 -6 0 -9 -13 -17 -19 -19
-9 -3 1 -3 -11 -12 -11 -13
-26 -12 10 4 -4 -4 -13 -10
-8 -15 -6 -9 -14 -19 -20 -21
10 -10 -9 -14 -14 -20 -13 -16
2 -10 -4 -9 -13 -11 -10 -11
-3 -10 -6 -12 -13 -13 -13 -13
-1 -10 -12 -17 -24 -20 -14 -16
-20 -15 1 -5 -11 -5 -6 -3
-32 -12 6 0 -3 -2 -12 -8
-19 -7 -3 -5 -14 -11 -13 -13
-6 1 -1 -2 -9 -7 -7 -7
-18 -3 8 3 1 3 -6 -2
-11 -3 -3 -5 -11 -13 -14 -15
3 -6 -8 -13 -19 -18 -11 -13
-13 -12 -1 -10 -18 -10 -11 -9
-16 -15 -5 -11 -16 -13 -14 -14
0 -14 -16 -20 -31 -23 -16 -19
-20 -22 -5 -13 -17 -10 -11 -10
-20 -16 -4 -14 -12 -11 -19 -18
9 -1 -7 -14 -15 -14 -16 -18
-2 -6 -6 -11 -14 -13 -13 -14
-23 -13 5 -6 -8 -4 -13 -10
-9 -7 -2 -13 -15 -15 -17 -17
-2 -10 -9 -15 -21 -16 -10 -12
-14 -15 1 -7 -10 -7 -8 -7
-23 -20 -2 -10 -13 -11 -13 -12
4 -3 -9 -15 -18 -17 -9 -12
-14 -7 2 -8 -4 -3 -5 -3
-26 -11 8 -7 -2 -3 -12 -8
-15 -10 0 -10 -10 -12 -15 -15
-10 -15 -4 -15 -12 -15 -15 -17
-15 -19 4 -11 -4 -9 -19 -17
-4 -11 -5 -14 -17 -20 -22 -23
-9 -12 -8 -14 -21 -18 -12 -14
-14 -7 1 -10 -13 -8 -9 -7
-9 -3 4 -8 -12 -8 -10 -9
-4 -9 -9 -19 -28 -20 -14 -17
-18 -17 0 -13 -16 -8 -10 -7
-23 -16 -2 -16 -10 -11 -21 -16
-18 -16 -6 -18 -15 -20 -21 -23
-10 -5 -3 -12 -19 -17 -16 -17
-12 -4 4 -10 -9 -12 -19 -16
2 -6 -6 -19 -18 -24 -24 -24
5 -11 -11 -15 -25 -21 -15 -18
-9 -15 -4 -13 -15 -11 -14 -12
-9 -6 -2 -12 -11 -8 -13 -11
5 -3 -11 -21 -21 -20 -16 -17
-7 -11 -6 -15 -11 -8 -12 -8
-27 -15 -3 -11 -9 -7 -19 -13
-37 -15 -5 -12 -13 -12 -15 -13
-16 -3 -5 -11 -12 -10 -11 -9
-12 7 9 0 4 3 -7 -2
-13 8 2 -4 -8 -10 -10 -11
-13 2 -3 -10 -17 -13 -6 -6
-5 5 4 -9 -4 -5 -5 -3
8 4 2 -10 -4 -6 -8 -7
16 11 -8 -12 -16 -13 -7 -9
-1 6 1 -4 -6 2 -2 2
-19 8 9 3 5 7 -4 1
-24 4 3 -4 -1 -2 -7 -4
-16 4 -1 -4 2 -3 -6 -2
-12 8 3 -1 12 6 -4 1
-10 7 -10 -12 0 -10 -11 -12
-5 -1 -17 -15 -6 -11 -3 -5
-6 -3 -13 -9 -1 1 0 1
-11 -6 -12 -10 -5 -2 -4 -3
13 14 -19 -14 -7 -8 -1 -4
11 9 -8 -5 6 6 3 4
-8 4 -2 -4 2 4 -6 -2
-3 10 -7 -12 -9 -3 -7 -7
1 7 -9 -13 -6 -1 -5 -4
-7 4 2 -2 6 10 -2 2
13 17 -10 -12 -5 -2 -4 -5
12 5 -18 -20 -11 -7 -2 -4
1 -1 -12 -15 -1 1 0 0
2 3 -11 -14 0 -1 -3 -2
16 6 -19 -22 -18 -12 -5 -7
2 -7 -11 -18 -10 -2 -6 -4
-10 -11 -8 -19 -7 -6 -16 -13
-6 -10 -10 -25 -8 -14 -16 -18
-3 -8 -16 -24 -12 -13 -14 -14
-12 0 -8 -18 -9 -5 -15 -11
-10 4 -18 -22 -19 -16 -18 -18
-1 -5 -20 -24 -22 -16 -10 -11
-2 -8 -12 -24 -15 -10 -12 -10
-3 -6 -10 -22 -12 -14 -16 -15
-5 -7 -17 -28 -17 -21 -15 -17
-22 -20 -9 -25 -16 -11 -13 -11
-27 -16 -7 -25 -19 -14 -24 -20
-19 -11 -11 -24 -23 -21 -23 -24
-25 -22 -8 -19 -18 -20 -24 -23
-48 -36 -9 -21 -16 -18 -30 -26
-37 -30 -21 -35 -29 -36 -38 -38
-11 -15 -15 -33 -29 -31 -24 -25
-7 -9 -1 -26 -18 -15 -18 -15
-19 -11 -6 -24 -19 -16 -19 -15
-17 -16 -13 -35 -33 -25 -19 -20
-24 -25 -5 -33 -23 -16 -20 -15
-36 -24 -7 -30 -18 -17 -27 -22
-33 -16 -13 -30 -20 -22 -26 -25
-26 -20 -13 -31 -25 -22 -24 -22
-20 -14 -1 -21 -14 -11 -21 -15
-18 -10 -6 -29 -21 -24 -26 -24
-14 -21 -14 -35 -33 -29 -25 -23
-24 -20 -12 -32 -23 -23 -24 -21
-23 -8 -13 -34 -23 -25 -26 -23
-11 -14 -14 -35 -31 -26 -20 -19
-23 -32 -1 -28 -20 -16 -19 -12
-22 -26 -8 -33 -23 -25 -33 -27
-4 -22 -20 -41 -35 -40 -41 -38
-2 -28 -21 -43 -36 -41 -40 -36
-21 -24 -9 -33 -22 -27 -34 -27
-19 -6 -9 -31 -28 -31 -28 -28
-27 -20 -13 -31 -29 -31 -24 -21
-36 -29 -10 -25 -26 -27 -26 -20
-27 -22 -6 -23 -13 -23 -23 -18
-17 -14 -11 -26 -18 -27 -18 -18
-29 -17 -2 -24 -18 -18 -19 -11
-40 -18 -6 -28 -17 -24 -30 -23
-30 -17 -10 -32 -21 -31 -30 -27
-24 -17 -12 -30 -17 -28 -27 -24
-32 -23 -8 -28 -15 -23 -29 -23
-16 -20 -19 -36 -24 -38 -34 -34
-15 -26 -21 -38 -27 -36 -28 -28
-29 -32 -18 -33 -29 -30 -27 -23
-32 -26 -13 -28 -22 -27 -27 -22
-20 -20 -17 -33 -30 -35 -26 -24
-25 -21 -11 -31 -23 -25 -25 -16
-28 -9 -10 -34 -20 -29 -30 -19
-16 8 -14 -35 -19 -34 -25 -15
-12 10 -5 -24 -14 -32 -21 -9
-34 0 13 8 8 -17 -16 -3
-29 3 16 29 21 -11 -6 -4
-23 -10 14 47 37 15 15 6
-31 -35 19 61 62 53 36 16
7 -7 10 60 81 98 72 35
46 8 -10 53 106 149 117 58
52 3 -12 62 136 223 165 89
68 18 -27 58 167 290 214 115
84 38 -59 42 187 352 270 145
102 68 -90 15 209 419 330 188
111 80 -119 -13 219 477 372 216
111 70 -147 -51 196 468 366 201
105 42 -148 -73 158 423 326 168
98 23 -138 -104 103 357 264 128
71 3 -144 -156 28 253 184 79
48 -13 -157 -211 -50 130 97 29
7 -37 -139 -230 -102 39 18 -11
-31 -57 -109 -226 -133 -37 -49 -53
-29 -50 -96 -224 -169 -109 -98 -86
-38 -65 -85 -220 -189 -151 -126 -101
-44 -68 -65 -198 -184 -150 -130 -99
-32 -62 -68 -188 -177 -150 -122 -97
-31 -64 -78 -174 -166 -136 -106 -83
-36 -63 -67 -155 -151 -120 -97 -74
-36 -57 -55 -141 -136 -110 -91 -70
-29 -44 -52 -123 -119 -100 -75 -58
-38 -37 -37 -94 -87 -70 -58 -36
-27 -11 -23 -73 -63 -56 -51 -30
-16 -8 -22 -58 -54 -51 -44 -30
-20 -14 -22 -48 -43 -49 -39 -26
-27 -18 -6 -34 -22 -39 -37 -24
-12 -18 -12 -36 -33 -48 -39 -29
-10 -21 -18 -37 -33 -49 -32 -25
-25 -18 -11 -32 -30 -40 -29 -18
-23 -18 -9 -30 -23 -39 -30 -22
-18 -23 -18 -38 -39 -50 -32 -27
-35 -34 -8 -31 -35 -39 -33 -21
-40 -26 -3 -26 -23 -36 -37 -25
-16 -8 -7 -26 -25 -39 -35 -26
-15 -10 -5 -26 -22 -38 -32 -23
-28 -12 3 -18 -20 -29 -32 -20
-18 -2 -11 -23 -31 -42 -35 -25
-15 -16 -11 -27 -36 -40 -28 -18
-20 -21 -5 -24 -31 -35 -29 -17
0 -5 -5 -26 -34 -37 -33 -23
11 -9 -20 -35 -41 -48 -34 -27
0 -19 -9 -28 -30 -39 -35 -20
-5 -5 -2 -19 -21 -35 -35 -21
-16 -7 -4 -19 -19 -41 -34 -23
-25 -19 -2 -18 -20 -38 -30 -18
-38 -24 5 -17 -12 -32 -33 -18
-19 -10 -7 -25 -30 -44 -36 -24
0 3 -10 -26 -31 -40 -24 -13
-15 -16 -3 -20 -22 -32 -25 -10
-17 -16 -4 -21 -23 -33 -30 -17
0 -5 -12 -27 -26 -40 -29 -20
-9 -10 -1 -23 -14 -31 -30 -14
-18 -25 -1 -22 -22 -35 -39 -23
-9 -19 -10 -31 -31 -45 -43 -31
-7 -17 -8 -26 -27 -41 -36 -24
-13 -9 1 -16 -11 -31 -32 -18
-9 2 -6 -18 -21 -41 -31 -22
-1 2 -8 -19 -26 -39 -23 -14
-7 -5 -6 -16 -18 -32 -24 -14
-14 -14 -7 -17 -19 -33 -30 -22
-11 -15 -12 -21 -30 -37 -25 -21
-18 -14 -2 -14 -14 -21 -20 -11
-22 -10 -2 -15 -11 -25 -28 -19
-16 -13 -8 -18 -16 -33 -31 -26
-12 -15 -5 -16 -16 -32 -29 -23
-25 -25 -1 -11 -13 -26 -33 -20
-9 -19 -9 -19 -21 -39 -36 -30
-1 -19 -8 -19 -22 -35 -27 -21
-1 -10 -3 -15 -13 -25 -25 -15
-2 -6 -4 -14 -16 -25 -27 -18
-2 -14 -8 -19 -23 -31 -25 -18
-20 -22 6 -8 -14 -16 -21 -9
-19 -19 1 -11 -11 -20 -30 -20
-10 -17 -9 -17 -17 -32 -34 -27
-12 -23 -14 -22 -23 -36 -36 -29
-31 -40 -13 -20 -17 -34 -43 -31
-13 -26 -20 -20 -27 -43 -41 -35
4 -8 -13 -15 -27 -35 -25 -20
5 -3 -2 -13 -16 -25 -22 -15
6 0 0 -7 -12 -20 -20 -12
4 -2 -7 -9 -17 -26 -18 -14
-11 -7 5 -2 -8 -13 -15 -6
-8 -1 7 -1 -4 -12 -22 -15
3 0 -2 0 -10 -20 -23 -19
-3 -4 -1 2 -7 -18 -23 -15
-16 -12 4 2 -3 -14 -25 -16
-4 -7 -4 -6 -15 -28 -26 -21
3 -6 -7 -8 -18 -22 -16 -12
-4 -14 -1 -9 -13 -17 -19 -12
-11 -18 -10 -15 -22 -24 -27 -22
8 -7 -18 -16 -25 -29 -26 -23
-7 -18 -4 -4 -7 -13 -21 -15
-3 -10 -1 3 1 -13 -26 -20
8 -1 -4 2 -6 -17 -25 -21
0 -2 -1 4 -5 -15 -21 -16
7 -1 6 11 0 -8 -23 -16
18 2 -4 1 -10 -24 -27 -24
8 -7 -10 0 -16 -22 -20 -17
-13 -12 -2 12 -6 -12 -15 -9
-16 -11 -2 14 -2 -11 -15 -10
-4 -6 -10 8 -4 -20 -14 -13
-5 -5 6 19 8 -3 -8 -3
-3 -3 7 21 14 -4 -15 -9
5 -4 1 17 7 -13 -18 -14
-3 -4 7 24 10 -8 -12 -8
-6 0 17 40 25 6 -5 -1
20 14 7 32 11 -5 -8 -8
19 7 0 25 2 -9 -6 -3
9 6 4 30 15 -1 -5 -1
8 7 5 36 24 3 -3 0
14 7 -4 33 15 -5 -1 -5
1 0 4 37 22 7 0 2
-14 -5 7 37 24 3 -9 -8
-13 -6 4 39 19 1 -6 -9
9 7 8 47 28 8 1 -1
26 20 15 58 45 21 6 5
34 30 7 55 36 12 8 1
27 26 10 60 34 19 17 11
23 18 11 63 43 27 18 13
30 14 3 63 46 27 15 9
35 15 -7 58 41 19 17 8
26 18 4 70 55 35 23 19
28 36 13 77 57 43 24 18
24 34 16 79 57 43 30 21
13 19 13 81 59 46 35 27
16 21 15 86 69 53 33 26
42 28 5 79 61 41 30 17
46 24 6 80 61 50 41 28
31 23 12 82 69 59 44 33
37 30 7 82 70 61 43 32
48 28 -8 74 55 50 42 26
26 14 -4 80 67 60 42 32
15 19 4 85 76 64 42 30
20 31 6 92 74 68 52 35
28 41 11 99 80 74 58 43
23 35 13 101 87 82 55 42
43 44 0 96 75 71 55 35
44 38 0 93 72 75 61 44
35 34 6 94 84 82 60 47
34 41 7 94 86 86 64 48
45 41 -1 92 74 81 68 48
35 32 8 97 87 95 70 56
37 39 7 97 92 92 62 45
36 41 3 90 86 88 64 43
42 44 3 88 86 87 66 47
49 48 6 91 88 92 64 47
51 41 -8 80 73 75 57 35
31 24 -12 76 68 76 61 41
24 32 3 82 81 88 67 50
41 43 4 79 84 86 66 46
57 49 -5 73 68 77 65 44
37 38 8 77 85 90 67 53
34 43 8 75 85 83 57 43
36 41 1 68 68 71 51 35
36 35 1 61 65 68 48 35
20 27 6 65 72 69 44 34
26 30 -3 53 50 52 41 27
38 37 3 52 48 54 47 36
32 36 7 49 52 57 46 37
29 33 0 43 47 48 37 27
42 37 0 34 37 37 35 24
29 29 9 39 40 45 34 28
27 24 4 32 36 35 20 13
41 27 -4 22 25 22 15 6
49 29 -2 15 20 18 14 8
29 23 6 17 28 22 12 8
23 27 1 16 28 16 16 8
25 29 1 15 23 19 25 19
17 21 3 12 19 19 19 17
31 33 1 8 16 14 14 12
36 31 -3 3 15 5 15 10
23 16 11 8 22 15 15 16
26 21 12 7 23 10 5 6
25 23 0 1 13 1 2 2
23 29 1 4 9 2 3 4
14 27 9 10 17 9 1 5
25 28 1 6 8 -5 -2 -2
32 30 -1 0 3 -4 5 5
30 28 4 -2 1 1 4 7
21 23 4 -6 -2 -3 -1 1
34 22 -3 -11 -8 -10 1 -1
29 22 6 -4 5 2 3 6
21 23 14 0 7 5 -1 3
18 21 9 -3 3 -2 -1 -3
22 17 7 -6 -1 -4 -3 -5
27 25 13 1 11 5 -1 0
36 28 3 -5 -3 -6 -5 -5
31 18 -1 -8 -2 -7 0 -1
22 15 6 -5 0 0 1 1
12 8 2 -7 -3 -2 -3 -4
17 11 -2 -11 -14 -7 -2 -3
12 18 15 3 8 11 7 11
9 14 9 0 8 2 -6 -3
14 11 2 -6 -2 -10 -10 -12
24 17 9 -5 -3 -6 -6 -6
18 12 11 -3 9 -3 -9 -4
38 19 -3 -13 -3 -18 -14 -15
40 21 1 -8 -10 -13 -3 -5
27 26 12 -2 -2 -1 3 5
17 17 5 -6 -2 -6 -3 -1
10 9 -5 -13 -8 -17 -6 -8
-6 5 11 -1 7 1 2 6
1 15 15 3 7 1 -2 1
21 17 4 -6 1 -12 -9 -8
28 21 7 -4 6 -9 -5 -2
15 21 12 -2 8 -4 -9 -3
29 26 4 -3 -6 -15 -8 -9
30 21 2 -8 -11 -13 -3 -4
18 10 6 -4 -6 -7 -4 0
10 14 9 -3 3 -6 -3 -1
20 17 8 -6 -2 -9 0 -1
18 19 17 2 11 3 2 7
20 21 13 0 5 -2 -7 0
26 22 6 -5 -6 -12 -10 -8
11 17 7 -1 8 -11 -7 -4
-3 13 14 1 17 -4 -8 -4
28 20 5 -9 -2 -18 -11 -10
38 21 4 -9 -8 -14 -5 -3
26 23 10 -1 9 -5 0 3
22 22 10 3 6 -5 0 1
34 24 3 -4 -2 -13 -2 -3
15 18 16 3 9 0 0 5
14 24 21 6 15 -1 -4 1
20 24 11 1 10 -11 -5 -5
28 27 6 -1 0 -15 -6 -5
22 23 13 1 8 -9 -9 -4
29 16 -1 -11 -5 -22 -14 -14
33 7 -7 -18 -12 -24 -11 -12
26 9 0 -14 -9 -14 -7 -6
13 10 5 -6 -4 -9 -2 -2
22 21 4 -3 0 -8 5 3
8 14 19 10 13 6 7 12
5 18 14 7 9 0 -3 -1
18 23 5 -2 1 -7 -4 -5
4 4 2 -6 -4 -11 -7 -5
0 3 7 -1 7 -5 -7 -4
19 16 2 -5 8 -15 -6 -9
24 16 0 -4 -1 -9 3 2
16 9 2 -7 2 -4 1 3
19 10 1 -8 -1 -8 -4 -2
29 15 -3 -12 -8 -13 -1 -2
15 6 7 -4 0 1 2 5
10 8 6 -3 4 -2 -4 -3
22 17 1 -5 0 -6 -3 -3
14 11 3 -4 1 -4 -2 0
1 15 12 4 17 6 0 4
11 25 5 -2 18 -4 3 2
13 25 6 2 7 3 13 14
7 20 9 1 8 6 10 13
7 15 7 -2 9 3 5 7
14 13 -1 -9 -4 -6 5 4
13 18 8 -3 9 8 7 12
10 20 9 -2 6 3 0 3
12 17 1 -8 1 -6 -3 -3
13 16 1 -8 1 -6 -4 -1
23 22 9 -2 4 1 -3 2
38 30 -1 -11 -4 -13 -6 -7
32 25 0 -11 -6 -8 2 2
11 7 0 -7 0 -4 -1 2
-4 0 -3 -11 -5 -6 -3 -1
1 3 -6 -15 -9 -11 1 0
4 3 7 -2 5 4 4 8
13 7 9 -3 6 -3 -5 -3
8 3 -2 -14 -10 -13 -9 -9
5 6 2 -10 -7 -10 -5 -3
5 16 13 2 13 4 2 6
14 24 6 -4 6 -7 3 2
12 14 6 -7 6 -6 4 6
2 3 10 -8 3 -4 2 5
11 9 4 -10 -1 -7 -1 1
19 12 -5 -16 -13 -14 -1 0
0 3 7 -11 -4 -4 -2 4
-1 0 6 -9 -1 -10 -9 -4
12 5 1 -11 -12 -17 -10 -8
7 2 -2 -15 -12 -14 -10 -7
-9 0 7 -9 -1 -5 -8 -3
1 5 -5 -19 -12 -16 -10 -10
-2 -6 -5 -19 -16 -15 -4 -3
-13 -5 4 -12 -2 -4 0 4
-4 3 0 -13 -7 -7 -4 -1
5 5 -5 -19 -19 -17 -6 -5
-3 -1 4 -12 -7 -4 -3 3
-8 -5 4 -14 -4 -7 -8 -3
1 -1 1 -20 -5 -14 -8 -7
2 -2 -3 -19 0 -13 -8 -6
-4 -2 1 -13 -2 -10 -12 -8
10 5 -9 -19 -14 -20 -13 -15
8 -8 -5 -19 -14 -16 -6 -7
-20 -22 -2 -14 -8 -8 -5 -3
-34 -23 -3 -14 -8 -9 -8 -8
-23 -23 -10 -23 -17 -19 -8 -11
-10 -14 2 -16 -8 -6 -5 -2
0 -5 1 -14 -4 -10 -11 -9
14 4 -5 -18 -12 -19 -11 -12
9 -5 -5 -20 -14 -18 -12 -9
-8 -9 -1 -17 -5 -15 -16 -11
-5 -3 -10 -23 -21 -25 -15 -15
-3 -6 -10 -23 -22 -21 -7 -6
-10 -9 -2 -18 -15 -15 -8 -3
-14 -8 -2 -12 -9 -15 -8 -5
-10 -8 -5 -14 -18 -21 -6 -5
-26 -15 1 -15 -6 -8 -5 2
-14 -2 3 -17 -5 -12 -12 -7
-6 3 -4 -19 -10 -18 -12 -9
-28 -12 -2 -16 -8 -13 -6 -2
-38 -21 4 -10 -2 -8 -9 -3
-15 -8 -8 -20 -15 -22 -12 -12
-4 -1 -3 -17 -15 -14 0 1
0 0 1 -12 -3 -7 0 4
5 4 4 -13 -4 -7 -1 1
12 12 0 -15 -8 -10 3 5
-7 3 9 -11 5 -1 1 7
-6 16 12 -10 5 -6 -5 2
0 17 15 -10 0 -8 -2 2
4 9 14 -7 0 -6 0 5
-2 9 14 -3 8 -2 -2 5
-2 9 0 -11 -3 -13 -6 -3
-8 -2 -3 -16 -10 -14 -4 -1
2 2 0 -15 -7 -8 -2 2
8 5 -3 -14 -4 -7 -1 2
7 5 -7 -14 -5 -8 5 7
-1 -3 0 -12 4 0 1 9
-6 8 4 -11 2 -3 -2 4
5 20 -2 -11 0 -6 1 5
6 18 -3 -8 3 -2 4 9
0 19 1 -4 13 3 3 11
5 20 -11 -15 1 -12 -1 1
5 11 -13 -19 -9 -13 3 5
8 13 -7 -15 -6 -8 4 9
7 12 -5 -13 -4 -7 5 9
15 8 -12 -19 -12 -12 7 11
4 8 1 -7 2 6 15 22
-1 9 4 -2 11 4 11 16
-1 6 -4 -8 4 -4 7 10
1 2 -6 -10 -1 -5 4 10
0 6 0 -6 2 -3 1 7
16 8 -10 -16 -13 -16 -1 -1
11 -10 -18 -21 -16 -18 0 1
12 -12 -16 -21 -12 -16 -3 1
14 -4 -15 -23 -10 -17 -5 0
19 4 -19 -26 -18 -22 -1 2
7 5 -4 -16 -6 -8 2 11
1 9 1 -14 -9 -9 -1 5
2 5 -6 -20 -12 -19 -7 -2
5 5 -5 -19 -4 -17 -5 1
-12 -8 2 -20 -7 -16 -10 -4
9 4 -6 -25 -17 -28 -11 -12
12 -1 -1 -20 -13 -19 -1 -2
-3 -10 1 -20 -14 -15 -4 -2
-3 -5 1 -21 -10 -16 -4 -4
9 6 -4 -20 -13 -20 1 -1
-7 -4 4 -15 -8 -11 -1 4
-12 -9 2 -19 -10 -18 -10 -7
-4 -5 -3 -24 -18 -26 -12 -10
-1 -9 -4 -27 -16 -27 -11 -9
-10 -15 1 -21 -13 -22 -13 -9
-3 -10 -6 -28 -22 -34 -15 -16
-3 -11 -4 -26 -18 -32 -9 -7
-1 -6 1 -21 -13 -23 -8 -3
6 -1 2 -20 -11 -25 -8 -6
11 -2 -7 -25 -22 -33 -9 -8
-5 -14 2 -19 -19 -23 -9 -3
-8 -14 -2 -24 -19 -32 -21 -15
-1 -10 -4 -29 -21 -35 -18 -15
-1 -18 -1 -24 -23 -32 -13 -11
-3 -20 0 -26 -21 -32 -20 -16
6 -18 -13 -34 -34 -43 -23 -23
-4 -21 -8 -26 -34 -38 -15 -14
-15 -17 2 -19 -20 -27 -10 -6
0 -1 6 -15 -17 -24 -7 -3
21 10 2 -17 -21 -27 -1 2
-1 -10 7 -17 -16 -22 -6 1
-16 -15 8 -20 -18 -29 -15 -9
-6 -9 1 -22 -18 -35 -14 -12
-2 -11 -2 -21 -19 -33 -11 -9
-9 -7 7 -13 -15 -23 -12 -6
-5 0 3 -19 -25 -35 -11 -9
-5 -3 2 -19 -18 -31 -5 -1
-13 -6 6 -17 -13 -26 -5 2
-10 -4 7 -15 -13 -23 -5 2
-3 -11 1 -19 -20 -30 -4 -1
-8 -14 8 -18 -10 -20 -6 1
1 -3 10 -17 -4 -22 -9 -4
11 1 2 -20 -17 -28 -13 -10
2 -7 2 -20 -16 -28 -12 -9
-10 -11 5 -15 -11 -25 -16 -9
-6 -9 -4 -22 -24 -37 -17 -14
-10 -9 -2 -24 -23 -33 -10 -4
1 8 4 -17 -15 -25 -3 9
6 16 3 -20 -17 -28 -5 9
14 23 9 -10 -14 -31 0 12
3 11 25 19 18 -10 4 17
3 11 40 55 44 12 16 20
15 14 44 76 64 42 41 30
22 9 37 81 90 79 70 45
18 -2 30 79 117 131 106 65
47 6 8 77 129 178 150 83
56 8 -10 82 167 252 212 124
64 28 -26 79 204 331 273 165
79 52 -56 65 238 397 331 201
105 82 -96 34 253 457 392 244
108 88 -113 9 269 511 426 272
100 79 -122 -22 241 490 398 242
94 62 -121 -50 197 434 344 196
72 32 -131 -94 128 345 272 149
56 13 -127 -141 50 237 186 97
56 9 -133 -183 -32 112 98 42
18 -23 -118 -195 -88 15 23 -2
-21 -54 -98 -196 -128 -63 -45 -45
-27 -62 -83 -202 -173 -131 -98 -82
-9 -54 -72 -191 -191 -159 -112 -90
-11 -55 -53 -169 -170 -141 -102 -79
-12 -55 -52 -156 -158 -136 -101 -81
-5 -52 -57 -146 -148 -131 -93 -75
-17 -47 -46 -129 -127 -116 -78 -61
-38 -46 -27 -104 -96 -95 -66 -48
-22 -29 -30 -88 -93 -93 -55 -41
-18 -20 -27 -77 -72 -76 -39 -25
-20 -22 -20 -63 -58 -61 -30 -17
-7 -11 -13 -47 -50 -53 -23 -15
4 -5 -7 -38 -41 -51 -15 -10
-9 -10 3 -24 -25 -34 -10 -2
-17 -14 6 -18 -21 -36 -16 -10
-13 -12 -2 -20 -29 -43 -19 -14
-13 -12 1 -19 -23 -40 -15 -9
-19 -16 11 -15 -14 -36 -19 -11
2 -5 0 -20 -25 -49 -20 -18
11 -1 3 -15 -26 -41 -11 -7
4 -6 8 -7 -15 -35 -12 -7
-12 -14 5 -15 -20 -40 -18 -12
-5 -6 1 -18 -28 -44 -13 -9
-8 -5 16 -9 -13 -26 -7 1
-11 -6 10 -13 -20 -35 -17 -10
-9 -5 0 -22 -22 -45 -22 -17
-8 -5 6 -19 -17 -43 -18 -13
-13 -3 10 -13 -13 -36 -19 -12
-2 3 2 -19 -27 -47 -19 -18
0 5 6 -19 -29 -42 -13 -10
3 -2 12 -18 -24 -38 -18 -11
0 -4 6 -19 -24 -42 -21 -14
1 -14 10 -18 -23 -46 -16 -9
-10 -23 19 -11 -11 -34 -15 -2
-5 -8 12 -12 -15 -41 -23 -11
-9 -9 0 -22 -21 -51 -26 -14
-17 -21 -1 -21 -30 -51 -25 -14
-4 -8 8 -12 -17 -44 -25 -13
13 6 4 -13 -23 -48 -19 -12
11 3 9 -12 -22 -41 -10 -1
-1 -8 7 -14 -22 -40 -15 -6
6 -9 4 -16 -22 -46 -21 -14
21 -3 1 -16 -25 -48 -15 -10
9 0 14 -4 -8 -29 -9 1
-2 -9 9 -7 -11 -39 -20 -12
1 -13 0 -13 -21 -50 -26 -21
-3 -14 5 -9 -18 -49 -23 -18
-10 -10 11 -3 -12 -38 -19 -12
-5 1 0 -13 -24 -50 -20 -16
2 3 9 -7 -14 -40 -7 -3
4 7 19 0 -4 -28 -1 4
13 8 15 -2 -11 -32 -8 -3
13 2 4 -7 -15 -39 -7 -6
-21 -8 16 2 -4 -23 -6 3
-29 -11 14 1 -11 -28 -15 -8
-5 4 16 0 -7 -32 -12 -9
0 3 19 0 -2 -30 -9 -5
-17 -10 20 1 -3 -29 -14 -9
-5 -5 0 -9 -15 -46 -17 -17
-1 -9 1 -10 -11 -41 -12 -10
-15 -18 8 -7 -12 -35 -10 -7
-19 -18 11 -10 -23 -40 -15 -13
-6 -13 0 -9 -25 -42 -12 -10
-1 -5 7 0 -10 -26 -9 -2
10 6 9 0 -9 -29 -13 -7
6 -2 1 -6 -17 -35 -17 -13
-1 3 7 -1 -8 -27 -8 -2
-14 11 15 4 -2 -18 -8 -1
-6 5 4 -6 -13 -33 -12 -10
5 -1 4 -4 -8 -26 -4 -1
-5 -15 7 1 3 -22 -7 -3
-16 -20 3 -3 -6 -26 -13 -9
-14 -20 0 -5 -14 -29 -11 -8
-7 -13 9 5 -3 -15 -8 -1
12 5 11 4 -3 -15 -11 -4
9 5 6 2 -4 -20 -12 -7
-14 -11 8 2 -4 -20 -11 -6
-7 -4 12 7 5 -14 -12 -6
15 5 4 4 -2 -22 -11 -10
3 0 7 8 -2 -15 -3 1
-6 -4 10 10 4 -11 -5 1
8 -4 7 4 -5 -18 -11 -6
19 2 3 4 1 -20 -6 -3
-1 -3 13 15 12 -6 -3 5
15 8 13 15 5 -13 -9 -3
22 14 11 15 6 -15 -6 -2
5 12 11 20 13 -11 -1 3
-8 5 18 27 22 -5 -1 4
12 10 10 22 4 -17 -3 -3
11 6 9 20 7 -13 1 5
6 7 17 27 17 -8 4 7
5 9 14 30 15 -10 3 5
12 4 3 23 5 -18 2 2
-8 -3 15 34 15 -5 6 10
-5 3 11 33 17 -12 -2 1
1 4 3 30 14 -20 -5 -4
-2 2 8 35 16 -14 2 3
-2 0 16 41 21 -5 4 6
24 14 9 39 16 -12 7 5
21 10 12 42 26 -4 15 14
9 5 16 44 28 0 13 13
23 10 11 43 28 -4 9 7
23 11 6 46 26 -5 15 11
-10 -3 21 59 39 13 19 18
2 5 17 60 43 8 13 10
12 13 11 61 43 7 18 12
3 8 13 66 46 16 27 18
-2 4 18 71 52 22 24 17
14 12 10 67 44 14 27 15
15 16 16 72 56 29 41 29
6 14 22 76 67 35 41 30
16 24 17 76 63 36 39 28
20 25 10 78 58 39 48 33
4 14 18 87 70 52 47 36
9 16 13 77 65 41 35 21
25 22 10 73 63 40 38 22
17 20 11 78 73 48 46 31
7 16 14 82 77 54 47 31
19 22 6 79 67 48 51 30
21 33 13 94 76 66 70 52
19 39 19 101 90 77 73 55
15 33 12 91 87 70 65 46
16 28 2 83 75 62 63 44
17 26 6 88 76 72 60 45
19 22 4 86 78 69 56 39
26 25 9 90 88 74 65 45
19 32 12 92 89 78 72 52
16 36 18 99 95 82 72 51
20 30 6 90 85 73 73 48
16 22 2 85 82 75 75 51
13 20 3 87 86 83 75 53
27 29 3 90 85 82 75 51
35 38 0 87 82 83 82 57
17 31 14 97 98 99 86 66
12 29 15 92 91 89 75 55
14 29 7 81 81 80 73 50
13 26 0 74 80 77 68 48
8 26 6 71 85 76 64 44
19 21 -6 60 66 59 59 35
19 13 -9 58 58 57 58 36
16 17 -2 61 65 61 57 39
17 23 2 62 58 59 59 38
26 28 -4 57 52 53 59 37
17 24 10 58 69 62 57 43
13 21 12 57 65 56 50 34
10 20 2 48 54 43 45 29
2 17 3 43 50 41 43 29
-11 9 7 40 52 40 36 24
1 13 -4 28 31 23 32 15
10 14 -1 26 29 27 37 23
3 14 10 28 35 30 37 26
-4 15 14 31 36 29 37 26
-4 9 1 23 28 18 32 21
-17 1 9 25 37 23 26 20
-15 -3 7 18 30 11 16 8
-6 -5 3 12 18 1 12 3
4 5 3 12 19 4 14 8
0 9 6 12 25 6 10 7
4 6 -7 -1 2 -12 2 -7
14 3 -4 -2 2 -7 8 1
8 4 5 2 5 -1 10 6
-15 -6 7 2 2 -4 8 2
-23 -11 4 4 1 -6 12 5
-32 -17 9 7 12 3 10 8
-25 -9 4 5 7 -6 1 -2
-10 0 1 5 3 -10 2 -3
-20 -6 2 1 3 -8 4 1
-29 -6 5 -1 9 -7 0 -2
-19 -4 -3 -10 -1 -19 -3 -8
-26 -21 -5 -14 -10 -18 -1 -5
-29 -28 -3 -13 -7 -16 -5 -6
-14 -16 -8 -14 -14 -20 -8 -12
-10 -14 -12 -18 -22 -22 -5 -10
-27 -26 -2 -8 -4 -10 -5 -5
-29 -22 -3 -13 -2 -18 -12 -12
-25 -22 -2 -13 -8 -20 -9 -10
-27 -22 -6 -12 -9 -16 -8 -8
-33 -23 1 -7 -9 -15 -12 -11
-16 -11 -9 -14 -19 -26 -12 -16
-28 -20 -4 -14 -12 -22 -8 -9
-39 -30 -2 -13 -10 -19 -10 -9
-30 -24 -5 -17 -14 -24 -13 -14
-24 -30 -11 -20 -16 -29 -14 -15
-38 -32 1 -10 1 -16 -13 -9
-38 -27 0 -12 -10 -22 -19 -17
-35 -28 -8 -17 -18 -30 -20 -19
-33 -30 -6 -14 -14 -27 -19 -16
-33 -32 0 -13 -13 -26 -23 -18
-21 -26 -9 -19 -24 -36 -22 -22
-33 -41 -6 -20 -17 -31 -17 -17
-36 -41 -2 -18 -13 -28 -19 -17
-22 -27 1 -17 -13 -29 -19 -18
-13 -24 -1 -17 -15 -27 -13 -12
-30 -24 9 -5 -5 -11 -7 -2
-39 -24 5 -6 -2 -21 -17 -13
-38 -31 2 -13 -13 -30 -20 -20
-31 -29 0 -14 -15 -28 -19 -16
-26 -22 -1 -11 -9 -27 -23 -19
-23 -29 -16 -22 -18 -44 -28 -30
-44 -39 -10 -18 -20 -32 -18 -19
-48 -35 -2 -11 -13 -24 -15 -13
-42 -34 -3 -11 -14 -26 -17 -17
-28 -25 -5 -12 -21 -26 -13 -13
-37 -31 2 -5 -9 -18 -16 -10
-27 -25 -2 -10 -11 -25 -23 -20
-29 -28 -5 -15 -19 -30 -23 -22
-31 -32 -5 -14 -17 -29 -19 -17
-34 -28 0 -10 -10 -24 -18 -16
-26 -29 -12 -17 -20 -36 -20 -22
-27 -34 -12 -19 -20 -33 -17 -17
-34 -36 -6 -14 -13 -28 -15 -13
-34 -34 -8 -17 -16 -31 -19 -18
-20 -27 -11 -18 -16 -30 -15 -14
-36 -28 0 -7 -4 -15 -10 -5
-39 -21 1 -7 -4 -19 -12 -9
-30 -12 0 -8 -7 -23 -11 -10
-33 -18 4 -6 -5 -19 -10 -7
-35 -22 1 -6 -3 -19 -14 -12
-23 -19 -6 -14 -17 -31 -16 -18
-23 -31 -6 -16 -18 -28 -13 -13
-26 -29 -5 -13 -17 -24 -14 -12
-25 -28 -4 -11 -15 -26 -16 -15
-17 -29 -11 -12 -19 -28 -12 -12
-31 -30 1 -3 -1 -11 -8 -3
-29 -19 5 -1 3 -14 -12 -8
-23 -18 -5 -8 -8 -21 -12 -12
-19 -23 -3 -9 -6 -16 -10 -8
-19 -21 3 -9 -4 -16 -15 -12
-2 -9 -12 -17 -14 -28 -16 -18
-14 -20 -12 -16 -13 -22 -11 -10
-25 -23 -7 -13 -12 -16 -10 -7
-26 -19 -10 -15 -15 -16 -11 -9
-27 -20 -17 -19 -17 -21 -10 -10
-37 -23 -3 -11 -6 -8 -9 -4
-31 -14 0 -8 0 -7 -8 -4
-29 -20 -9 -14 -6 -15 -10 -9
-32 -31 -7 -13 -6 -10 -8 -5
-34 -32 -3 -8 -6 -6 -11 -7
-18 -23 -14 -13 -18 -19 -12 -13
-12 -17 -8 -9 -11 -9 -2 -2
-26 -26 -6 -8 -5 -6 -6 -3
-23 -21 -4 -8 -10 -11 -8 -6
-11 -17 -11 -13 -16 -14 -4 -3
-32 -35 -8 -12 -7 -9 -10 -4
-31 -29 -12 -15 -12 -16 -15 -12
-21 -14 -9 -14 -7 -16 -11 -9
-15 -14 -8 -12 -4 -13 -9 -5
-18 -17 -4 -10 -4 -8 -11 -8
-4 -10 -12 -14 -15 -21 -11 -13
1 -14 -11 -12 -17 -15 -7 -5
-7 -20 -8 -15 -11 -12 -11 -8
-13 -21 -10 -14 -13 -17 -14 -13
-8 -17 -10 -13 -17 -19 -9 -9
-26 -19 1 -3 -5 -5 -6 -1
-29 -13 -4 -6 -8 -12 -11 -9
-19 -10 -10 -11 -13 -18 -11 -11
-27 -21 -12 -17 -18 -19 -13 -11
-38 -28 -6 -18 -10 -18 -19 -15
-27 -23 -18 -24 -24 -29 -20 -20
-24 -19 -8 -16 -13 -18 -8 -6
-10 -15 1 -10 -11 -15 -9 -5
-17 -12 -2 -11 -7 -16 -11 -8
-28 -17 -10 -15 -11 -18 -7 -5
-27 -18 0 -4 -5 -6 -6 0
-14 -15 -4 -13 -10 -16 -14 -10
-15 -14 -5 -16 -6 -19 -11 -9
-24 -18 -1 -15 -9 -16 -9 -6
-31 -23 -3 -13 -10 -16 -14 -9
-16 -17 -14 -20 -21 -27 -15 -15
-15 -18 -11 -17 -16 -20 -9 -6
-11 -18 -9 -17 -19 -19 -13 -6
-7 -15 -12 -20 -23 -22 -18 -13
-8 -15 -13 -19 -23 -24 -15 -11
-31 -23 -1 -10 -9 -12 -13 -5
-32 -20 -3 -12 -11 -17 -17 -10
-19 -13 -13 -18 -22 -25 -20 -16
-14 -16 -13 -21 -24 -24 -20 -14
-28 -20 -7 -18 -18 -17 -19 -11
-27 -22 -17 -25 -28 -27 -18 -15
-25 -27 -15 -24 -22 -21 -13 -8
-24 -22 -8 -15 -19 -14 -12 -6
-5 -7 -8 -12 -14 -16 -11 -6
2 -8 -5 -15 -9 -14 -5 -1
-19 -25 3 -11 -9 -5 -9 0
-21 -21 -2 -11 -13 -12 -16 -8
-27 -26 -6 -15 -17 -18 -18 -11
-22 -25 -8 -16 -16 -16 -15 -7
-17 -22 -5 -17 -13 -15 -19 -11
0 -17 -19 -27 -26 -29 -22 -19
-5 -20 -14 -24 -21 -19 -13 -8
-15 -22 -5 -16 -16 -13 -12 -6
-23 -18 -4 -14 -19 -15 -14 -8
-7 -10 -2 -13 -21 -15 -9 -3
-1 -8 -1 -8 -11 -5 -9 0
-1 -5 -7 -14 -11 -14 -17 -9
-11 -12 -4 -17 -10 -17 -16 -8
-13 -12 -3 -14 -10 -13 -12 -4
-8 -1 -2 -8 -3 -9 -13 -3
12 12 -8 -10 -10 -15 -9 -4
0 -4 -7 -12 -13 -11 -6 1
-6 -3 3 -9 -9 -6 -7 2
-1 7 2 -6 -6 -7 -5 5
-4 4 -1 -7 -11 -10 -4 7
-24 -12 11 -3 3 0 -6 8
-20 -9 3 -9 0 -10 -16 -5
-11 5 2 -8 -11 -11 -11 -2
2 21 6 -1 0 -3 -3 7
5 22 5 -2 3 -2 -6 6
14 20 -7 -9 -7 -11 -5 1
9 11 -7 -10 -10 -6 -1 8
2 13 -5 -6 -4 -2 -1 10
-1 10 -8 -7 -6 -6 -3 8
0 4 -15 -13 -12 -10 -3 6
-10 1 -3 -7 -2 2 -1 12
0 3 -13 -8 -4 -8 -10 0
6 5 -21 -17 -12 -17 -15 -6
9 8 -14 -15 -3 -10 -8 2
10 13 -7 -9 -2 -5 -7 4
34 20 -18 -16 -18 -17 -9 -3
32 15 -12 -12 -13 -7 -2 7
3 11 -1 0 4 6 5 15
1 19 2 6 6 8 9 17
7 19 -4 -3 -3 4 9 17
-10 5 -2 -2 1 10 3 14
-1 9 -9 -7 -5 -1 -5 4
10 9 -17 -16 -14 -10 -9 -1
13 2 -15 -14 -12 -7 -8 2
10 -4 -12 -10 -10 -7 -13 -3
24 -2 -21 -21 -25 -20 -14 -8
37 15 -10 -12 -14 -9 -4 4
23 11 -5 -5 -7 -3 -4 8
9 7 -8 -7 -12 -6 -7 5
8 9 -7 -9 -8 -5 -1 9
-8 -1 3 -6 9 2 -3 12
-4 6 -1 -10 -1 -5 -10 3
-2 6 -1 -11 -13 -10 -11 -1
0 3 3 -10 -9 -7 -9 1
-4 -1 1 -9 -4 -7 -14 -3
7 5 -4 -18 -6 -18 -15 -8
4 2 0 -16 -8 -10 -9 0
-3 -1 4 -13 -9 -6 -10 1
-11 -11 -3 -20 -17 -17 -19 -9
0 -9 -8 -24 -26 -22 -18 -9
5 -2 3 -16 -13 -11 -17 -3
11 6 -5 -20 -19 -20 -25 -13
16 5 -5 -16 -17 -18 -18 -8
19 5 -2 -13 -15 -14 -15 -4
6 0 1 -15 -15 -16 -21 -8
7 2 -8 -25 -26 -28 -23 -14
0 -4 -4 -19 -26 -20 -15 -5
9 -2 -2 -15 -19 -16 -17 -4
19 2 -5 -20 -22 -20 -20 -8
18 0 -7 -21 -26 -24 -19 -7
4 -1 9 -7 -14 -10 -17 1
8 3 4 -13 -17 -17 -23 -9
10 4 -4 -15 -21 -21 -22 -9
8 0 0 -15 -18 -20 -22 -8
-3 -2 6 -14 -9 -16 -24 -8
5 2 -5 -20 -22 -27 -22 -12
12 4 -2 -18 -21 -21 -19 -6
7 -3 -2 -15 -21 -21 -22 -8
7 -4 -3 -16 -24 -25 -26 -11
13 -2 -8 -23 -31 -28 -24 -11
1 -2 2 -14 -16 -15 -22 -5
3 10 4 -10 -10 -15 -21 -6
0 5 3 -13 -19 -20 -23 -8
6 8 4 -12 -20 -18 -20 -6
4 11 6 -8 -15 -14 -21 -4
4 3 -9 -19 -24 -29 -25 -11
11 -2 -6 -18 -19 -22 -20 -5
13 1 -1 -17 -11 -17 -19 -4
18 3 -6 -26 -28 -27 -26 -13
32 13 -11 -25 -30 -25 -21 -9
14 3 -2 -17 -15 -13 -20 -5
6 4 8 -10 -11 -14 -20 -8
-6 10 11 -5 -2 -9 -13 1
-8 10 5 -6 -9 -11 -15 1
-9 12 7 -11 -10 -12 -19 0
-10 13 -5 -17 -17 -24 -17 2
-12 10 3 -8 -9 -17 -10 12
-5 18 17 14 6 -9 -8 13
8 28 28 40 23 5 3 22
27 35 35 61 46 30 25 34
18 19 37 78 75 71 47 47
30 24 19 68 86 100 69 52
50 30 6 65 107 146 107 71
62 28 -5 70 137 206 151 94
78 40 -19 74 172 275 204 125
105 65 -45 62 196 339 266 161
113 86 -75 42 227 413 331 211
124 104 -107 14 259 473 380 245
123 109 -130 -17 246 495 398 252
111 85 -138 -48 196 459 363 219
91 47 -134 -72 156 405 300 173
86 37 -139 -119 92 309 224 119
72 19 -142 -166 12 192 138 68
36 -9 -134 -194 -58 87 55 20
5 -36 -116 -197 -98 2 -17 -24
6 -37 -105 -206 -153 -82 -75 -66
2 -39 -80 -196 -179 -125 -106 -78
-7 -46 -66 -184 -179 -134 -115 -83
-5 -49 -65 -171 -168 -132 -110 -81
-6 -50 -67 -155 -156 -119 -98 -72
-14 -46 -49 -128 -127 -94 -88 -57
-13 -33 -41 -110 -116 -87 -81 -55
-11 -22 -41 -93 -101 -80 -68 -45
-6 -10 -33 -72 -78 -63 -52 -30
6 5 -20 -58 -53 -46 -42 -21
12 9 -25 -49 -53 -47 -34 -19
-1 5 -8 -29 -38 -33 -23 -6
-13 0 3 -18 -26 -24 -21 -4
-4 4 3 -9 -18 -25 -19 -4
7 3 5 -6 -23 -28 -18 -2
-8 -9 11 -5 -19 -21 -22 0
-6 -7 2 -16 -25 -31 -30 -12
2 2 0 -14 -18 -32 -27 -10
4 9 2 -12 -18 -27 -23 -6
3 12 9 -8 -13 -24 -25 -7
15 18 -2 -13 -23 -33 -24 -11
21 16 4 -10 -20 -24 -18 -1
9 8 5 -8 -21 -22 -23 -4
1 4 -2 -12 -26 -28 -29 -12
1 0 1 -11 -26 -27 -22 -6
1 0 12 -1 -12 -12 -19 2
6 9 10 -3 -15 -18 -23 -7
9 14 14 1 -11 -18 -18 -4
9 7 14 4 -5 -14 -13 1
1 1 12 -1 -11 -17 -22 -5
9 6 4 -9 -23 -29 -23 -11
10 9 9 -4 -12 -19 -15 0
3 10 11 -3 -5 -16 -19 0
4 11 8 -7 -9 -21 -23 -5
18 12 2 -12 -19 -25 -20 -4
9 3 13 -2 -5 -13 -21 1
6 4 10 -6 -8 -20 -28 -7
-4 2 6 -3 -12 -21 -24 -5
-10 6 15 1 -9 -13 -17 1
-5 15 22 6 -3 -10 -17 3
11 13 10 -5 -12 -25 -20 -6
17 8 10 -1 -11 -19 -16 1
10 3 10 -3 -13 -18 -21 -1
3 5 8 0 -11 -19 -20 -2
8 11 10 6 -7 -17 -11 6
5 12 23 12 6 -7 -14 8
10 13 17 8 -1 -15 -20 -3
6 8 9 5 -13 -22 -22 -6
7 6 16 3 -13 -20 -22 -6
11 3 7 3 -13 -25 -30 -14
25 11 2 -1 -21 -34 -25 -16
6 5 10 2 -5 -22 -16 -2
-12 -2 10 4 -3 -16 -16 -2
-7 1 8 3 -12 -19 -18 -6
-1 2 5 1 -15 -18 -12 0
-8 1 15 9 2 -8 -14 2
0 7 16 7 4 -14 -18 -5
6 13 15 6 4 -16 -15 -3
-8 4 13 6 4 -14 -14 -2
-19 -3 16 4 1 -16 -20 -5
-6 2 5 -2 -16 -27 -21 -10
4 -5 4 -2 -13 -23 -19 -6
11 7 12 5 2 -15 -15 -1
13 16 12 8 -3 -14 -11 -1
8 15 8 10 -7 -14 -8 2
-7 7 18 16 11 -3 -9 6
-6 3 13 11 -1 -12 -16 -3
1 0 9 9 -7 -15 -18 -5
-8 4 11 11 -1 -13 -15 -2
-17 7 18 17 9 -8 -15 -1
5 13 14 15 13 -14 -11 -2
10 16 18 17 15 -7 -5 6
6 17 21 22 10 0 -5 6
-8 2 15 16 1 -8 -10 -1
-8 -1 8 11 -10 -13 -11 -2
-16 -2 16 14 3 -1 -12 3
4 14 18 16 3 -5 -14 -2
12 9 11 15 2 -9 -15 -6
6 6 13 15 -2 -9 -16 -5
5 11 17 20 11 -3 -13 -3
16 13 9 20 0 -7 -8 -1
10 10 15 26 7 4 -1 8
0 8 18 28 9 7 -3 7
-1 11 14 26 10 0 -7 1
-5 2 10 22 4 -4 -8 2
-17 -4 15 27 9 3 -13 2
-6 1 13 23 6 -4 -17 -4
11 13 12 30 7 -3 -8 2
21 25 19 35 14 6 -1 11
6 18 17 34 20 4 -8 4
11 23 8 30 11 -7 -9 -2
7 10 16 40 21 2 -2 8
18 11 23 45 24 8 0 11
23 16 18 44 20 4 -3 8
10 13 18 46 26 7 3 15
-14 7 29 58 37 19 5 21
2 22 29 57 38 17 3 15
16 25 26 61 39 13 7 16
9 15 22 58 34 13 5 14
4 13 26 61 40 14 1 11
23 32 25 64 38 11 11 14
12 27 34 76 47 27 23 29
-2 17 34 77 50 31 20 28
13 25 29 78 48 28 18 25
31 33 27 88 46 31 25 30
10 24 38 96 65 45 26 35
11 32 35 90 61 41 25 30
20 39 31 90 61 39 28 31
20 29 28 89 63 40 25 31
17 25 31 94 71 45 27 29
23 28 20 91 63 39 31 28
24 31 24 99 74 50 40 39
33 40 32 107 79 59 45 44
30 41 27 106 75 59 44 44
26 43 25 105 78 64 52 49
8 33 33 110 89 74 50 51
17 36 26 106 89 69 46 43
18 35 21 104 87 66 48 45
13 31 22 105 83 69 50 48
26 50 30 113 86 75 53 50
38 49 20 105 82 66 55 46
24 36 18 109 86 75 60 52
18 40 22 111 86 82 65 57
25 52 19 109 85 81 65 56
31 58 18 112 87 85 74 63
17 54 30 126 106 102 77 71
19 51 27 119 99 95 70 62
26 52 25 116 96 91 72 63
34 53 24 114 100 96 76 66
29 45 23 115 101 94 71 62
31 45 16 110 95 86 73 57
19 37 15 110 93 94 75 64
24 48 22 114 100 101 80 69
38 58 19 113 98 99 79 66
37 45 10 103 87 93 77 63
22 39 21 103 98 101 75 65
31 56 25 104 97 100 76 62
34 58 22 99 92 94 73 60
23 46 21 96 88 93 71 60
15 42 20 89 88 89 63 54
29 46 9 76 75 74 60 46
24 40 18 80 80 81 65 56
7 37 23 81 80 83 65 56
10 35 19 75 72 75 58 49
22 35 14 69 66 67 56 47
6 29 25 70 76 72 50 49
10 32 18 63 61 60 42 38
19 36 11 57 54 50 40 35
21 37 15 52 50 49 36 35
23 46 25 58 54 51 37 37
12 44 22 52 49 47 42 39
-1 31 26 52 47 50 43 43
-16 23 22 45 48 45 35 37
-8 26 17 38 43 36 30 31
8 31 15 35 31 33 32 33
-13 12 20 35 37 36 25 30
-16 9 11 24 28 22 15 18
-14 7 6 17 21 14 12 14
-4 13 11 21 25 18 15 19
-6 16 15 24 31 18 12 17
-7 14 5 17 15 4 9 10
-4 12 12 19 16 13 15 19
12 32 24 28 28 24 21 27
-3 24 19 24 18 18 15 22
-7 15 13 18 12 12 13 19
-15 7 21 22 24 18 11 19
-13 18 15 14 15 9 5 9
-5 23 11 10 9 4 5 9
-5 17 14 12 14 9 8 15
-8 13 17 10 13 7 3 10
-2 11 6 2 -3 -4 2 4
-10 7 9 6 1 4 4 9
-6 8 14 10 7 7 4 11
-1 7 11 8 5 3 2 5
1 9 9 6 1 1 3 7
0 10 20 13 18 10 3 13
-2 18 17 10 13 4 1 6
-13 19 19 11 17 6 6 12
-14 17 24 12 10 8 6 12
-18 12 21 12 8 5 0 6
-10 9 4 4 0 -8 -2 -1
-6 5 8 7 2 -2 0 5
-8 -1 8 0 1 -1 -3 2
-3 5 8 0 0 -5 -4 1
-11 12 15 5 0 3 6 10
-29 6 27 15 17 13 5 16
-8 19 20 15 11 5 1 6
4 21 12 6 4 -3 -2 4
-14 4 16 6 4 -2 -1 6
-17 3 15 9 4 -3 -5 2
-2 10 3 -1 -8 -15 -7 -3
0 13 6 1 -1 -7 -3 4
-6 9 16 5 0 -2 -1 7
-16 12 10 2 -4 -6 -4 3
-10 6 15 4 -5 -3 -1 8
-20 -6 23 9 9 6 -2 11
-22 0 15 5 7 -2 -6 3
-15 8 16 6 0 -1 -2 7
-8 13 18 8 5 3 1 10
-10 14 19 7 8 0 -6 3
-2 11 6 -2 2 -14 -10 -6
-15 3 9 0 -5 -9 -6 1
-15 6 19 7 1 -3 -3 6
-12 10 18 6 10 -3 -2 6
-14 6 13 5 4 -3 0 7
-16 7 27 12 13 6 -1 11
-2 17 16 5 7 -4 -10 0
-4 12 12 2 -3 -9 -11 -2
-7 15 20 8 4 -1 -3 7
-17 15 24 12 10 0 -3 5
-16 9 14 6 -3 -10 -4 1
-28 -4 13 5 -3 -7 -3 4
-31 -8 12 4 -2 -6 -7 2
-13 5 12 6 1 -8 -6 2
4 9 11 6 8 -8 -2 6
-7 4 20 11 7 0 -4 7
-21 -1 14 6 3 -8 -10 -1
-24 -5 6 1 -3 -13 -11 -3
-7 15 15 7 0 -6 -6 3
8 29 25 15 13 -1 -2 7
3 22 18 10 4 -8 0 6
-15 11 17 9 5 -2 2 11
-26 5 19 7 1 -4 -2 6
-22 -2 15 4 -5 -9 -6 1
-12 -5 8 2 -6 -11 -7 1
-18 -2 15 10 3 1 -5 8
-12 10 13 7 5 -1 -5 3
-7 13 11 6 8 -3 -1 5
-15 11 14 12 13 2 2 9
-19 17 20 16 23 7 2 10
-1 29 16 10 8 0 5 8
0 24 16 10 10 4 6 13
-15 12 19 11 10 7 4 12
-16 12 15 11 5 3 1 7
-4 14 10 7 -1 2 4 8
-15 7 17 9 5 9 -2 7
-17 6 16 9 2 0 -8 -1
-16 10 15 7 4 -1 -3 2
-21 8 13 5 6 2 1 6
-12 16 19 13 18 7 0 7
-4 21 14 11 8 1 6 7
-13 10 16 13 10 8 8 13
-23 6 18 15 11 9 5 12
-24 6 14 9 7 2 0 6
-9 15 14 7 7 4 7 11
-20 5 19 12 17 9 3 12
-25 1 13 4 10 -1 -3 1
-20 8 16 5 3 0 1 5
-29 4 19 8 5 4 4 10
-29 5 14 4 3 -1 -2 3
-23 10 4 -2 -10 -10 -2 -1
-27 2 13 3 -1 1 6 9
-11 13 21 8 6 7 7 12
4 18 14 3 -4 -2 -1 2
2 8 5 0 -8 -7 -1 2
-12 3 14 2 5 2 -3 6
-12 8 12 -2 0 -5 -5 0
-17 7 13 0 -1 -4 -1 4
-19 8 14 3 -1 -1 2 6
-23 6 12 1 -2 -4 -4 0
-19 -1 1 -9 -15 -15 -7 -6
-21 -2 4 -5 -10 -5 -2 2
-21 -5 8 -4 -8 -4 -4 3
-15 -3 5 -5 -5 -6 -4 -1
-17 -3 6 -4 -1 -6 -2 2
-20 3 15 3 17 3 -2 6
-11 12 13 5 9 0 -4 3
-7 17 13 4 11 -1 1 6
-15 15 17 5 7 3 4 9
-24 9 19 3 3 0 -2 4
-11 7 5 -5 -9 -14 -4 -2
-14 2 9 -1 -9 -8 -1 4
-14 6 12 4 -3 -2 1 6
-9 10 10 -2 -5 -5 -2 3
4 13 8 -4 -5 -4 2 7
-12 7 17 2 13 6 1 9
-14 15 15 3 10 2 0 5
-20 13 13 1 2 -2 1 4
-22 3 10 -3 -7 -5 -5 1
-14 4 10 -6 -8 -7 -10 -4
-6 4 2 -9 -16 -17 -8 -6
-16 7 14 -3 -4 -7 1 5
-22 6 15 2 5 -1 3 7
-19 3 12 -5 -7 -9 -3 -1
-13 -2 5 -12 -16 -13 -5 -3
-25 -8 11 -7 -7 -6 -9 -1
-26 -8 6 -8 -10 -9 -10 -6
-15 3 5 -6 -12 -11 -9 -6
-25 3 10 0 -3 -7 -5 -1
-25 7 17 3 -1 -5 -5 0
-13 15 11 -1 -4 -10 2 1
-24 9 10 -2 2 -6 4 6
-17 4 13 -2 -2 -6 0 3
-16 -2 12 -6 -5 -14 -8 -6
-21 -8 7 -8 -5 -14 -4 -2
-31 -9 17 -2 2 -3 -2 4
-21 1 16 -6 -4 -9 -5 -3
-12 6 7 -7 -8 -11 -5 -4
-15 2 9 -6 -9 -7 -4 0
-25 -2 9 -6 -9 -10 -10 -5
-17 5 5 -11 -15 -18 -7 -7
-25 -1 7 -8 -9 -11 -3 0
-29 -1 11 -8 -9 -10 -4 0
-10 10 7 -7 -14 -13 -6 -2
-2 10 3 -10 -17 -15 -6 -3
-14 6 17 0 0 -1 -3 5
-31 0 19 3 5 0 0 5
-43 -8 10 0 -4 -6 -3 1
-31 3 14 2 -3 -2 1 6
-9 24 21 5 2 2 3 7
1 28 15 2 -6 -7 6 6
-3 25 25 10 6 5 11 16
-20 16 25 9 12 5 7 13
-21 12 19 6 4 -4 2 6
-9 11 11 3 3 -6 3 7
-20 11 20 7 8 5 4 12
-12 28 19 10 7 2 5 10
-8 32 12 8 2 -4 5 9
-18 27 17 8 2 0 7 10
-13 26 22 5 8 0 5 9
-1 28 7 -1 -4 -10 5 4
-10 18 1 -2 -2 -3 8 11
-6 17 2 0 2 0 7 10
0 13 0 -4 -2 -5 4 6
10 14 1 -6 -4 -5 6 8
-13 6 7 -2 0 2 3 10
-11 16 6 -3 1 -1 3 7
-5 24 7 -1 6 0 9 13
-13 19 8 2 4 3 11 14
-20 14 10 4 4 2 8 11
-9 13 -3 -5 -4 -7 9 7
-13 9 1 -3 -3 -1 12 12
-14 15 8 0 3 4 12 14
-13 10 0 -2 -8 -4 5 6
-14 -2 -4 -7 -15 -6 5 5
-22 -3 9 -1 2 4 3 10
-11 5 3 -6 0 -9 -5 -2
-2 4 -3 -12 -10 -16 -6 -6
-9 -4 -4 -15 -12 -16 -10 -6
-20 -10 -4 -15 -12 -18 -13 -10
-5 3 -13 -21 -31 -28 -12 -14
-2 4 -5 -18 -22 -21 -6 -6
-13 2 7 -7 -12 -13 -4 -2
-19 0 11 -6 -13 -14 -4 -2
-21 -4 12 -8 -11 -15 -2 0
-36 -10 20 -2 0 -4 -4 4
-26 -1 17 -7 -7 -12 -9 -4
-26 0 13 -10 -11 -15 -7 -6
-30 -5 14 -13 -13 -15 -8 -6
-34 -11 13 -12 -10 -18 -13 -11
-30 -16 4 -17 -24 -30 -14 -16
-33 -23 2 -13 -24 -26 -15 -13
-31 -19 6 -12 -25 -23 -15 -13
-12 -3 3 -14 -28 -23 -13 -12
-16 -5 5 -14 -29 -22 -11 -9
-32 -11 16 -6 -19 -14 -14 -8
-36 -8 13 -9 -17 -18 -13 -10
-34 -8 7 -14 -20 -22 -13 -11
-31 -11 9 -15 -15 -20 -13 -10
-28 -13 9 -16 -20 -22 -18 -15
-21 -13 -1 -25 -35 -36 -20 -21
-21 -10 4 -21 -28 -26 -13 -11
-36 -13 8 -16 -20 -21 -11 -10
-35 -15 4 -17 -22 -26 -13 -13
-27 -9 5 -17 -19 -24 -9 -8
-34 -15 11 -13 -14 -19 -13 -7
-24 -12 5 -18 -21 -26 -17 -15
-32 -14 5 -18 -22 -30 -17 -16
-26 -9 5 -17 -18 -27 -16 -14
-21 -7 8 -15 -18 -27 -20 -17
-13 -5 1 -17 -27 -37 -18 -19
-20 -17 4 -15 -24 -31 -15 -14
-21 -19 2 -20 -27 -32 -20 -18
-15 -17 2 -23 -33 -39 -23 -24
-12 -12 4 -21 -36 -34 -16 -17
-26 -14 11 -13 -22 -24 -16 -13
-29 -14 9 -20 -21 -31 -21 -20
-19 -5 8 -17 -19 -30 -17 -15
-25 -13 10 -14 -17 -26 -15 -13
-38 -21 7 -15 -21 -30 -21 -20
-30 -20 -1 -24 -26 -37 -20 -22
-19 -7 12 -14 -15 -24 -9 -9
-16 -3 16 -7 -14 -20 -8 -9
-24 -14 8 -14 -20 -30 -15 -17
-25 -14 9 -17 -27 -29 -12 -11
-30 -6 19 -10 -11 -19 -11 -3
-25 4 11 -17 -15 -28 -14 -6
-15 16 9 -14 -18 -33 -13 -5
-12 20 28 8 -1 -23 -7 3
-16 7 41 37 20 -6 1 7
-1 13 38 57 37 12 23 14
-2 7 40 72 60 52 49 31
2 1 23 62 73 88 73 41
24 5 4 52 87 129 105 51
35 7 -6 56 117 187 150 77
43 16 -12 61 160 264 204 112
73 43 -35 48 187 327 257 141
81 57 -70 24 204 386 312 176
107 84 -105 -2 218 448 365 214
113 87 -125 -31 214 469 377 218
109 67 -136 -62 171 425 339 179
105 38 -134 -87 118 367 281 138
68 2 -140 -133 57 275 205 89
36 -18 -143 -188 -28 156 119 36
19 -31 -136 -213 -87 57 44 -4
-11 -45 -106 -207 -114 -11 -17 -35
-25 -52 -89 -210 -157 -86 -75 -74
-38 -66 -78 -210 -188 -142 -113 -98
-44 -68 -65 -194 -187 -152 -119 -98
-38 -65 -60 -173 -175 -145 -114 -95
-18 -57 -69 -162 -165 -140 -103 -90
-6 -48 -55 -144 -145 -120 -90 -76
-3 -40 -40 -120 -121 -104 -79 -65
-10 -35 -37 -101 -106 -95 -67 -59
-20 -28 -25 -82 -93 -74 -49 -40
-35 -22 -11 -63 -60 -53 -41 -30
-29 -19 -14 -50 -51 -53 -39 -33
-17 -14 -4 -37 -41 -48 -30 -27
-13 -12 4 -24 -31 -38 -23 -19
-17 -11 9 -18 -22 -36 -24 -21
-5 -9 1 -23 -32 -46 -25 -26
-17 -22 2 -24 -28 -43 -25 -23
-17 -19 3 -23 -27 -39 -24 -22
-5 -9 0 -24 -35 -43 -25 -24
-9 -17 3 -25 -37 -42 -24 -21
-23 -22 13 -16 -18 -32 -25 -18
-19 -14 8 -16 -22 -37 -27 -25
-14 -17 4 -16 -29 -42 -29 -25
-13 -19 10 -14 -22 -38 -28 -24
-21 -20 10 -16 -26 -38 -30 -26
-7 -6 3 -18 -37 -42 -25 -27
-6 -6 7 -16 -31 -35 -20 -20
-12 -14 3 -17 -29 -33 -23 -21
-11 -10 2 -16 -31 -39 -24 -23
-17 -11 6 -8 -25 -34 -20 -18
-26 -18 15 -2 -10 -27 -23 -17
-15 -10 10 -7 -22 -34 -27 -24
-5 -9 5 -9 -25 -40 -28 -26
-12 -6 10 -8 -21 -34 -25 -21
-11 -5 17 -5 -15 -30 -24 -18
2 -6 8 -11 -26 -37 -20 -18
-7 -17 7 -14 -27 -33 -21 -15
-17 -27 5 -18 -31 -33 -27 -22
-14 -27 0 -22 -35 -41 -29 -27
8 -10 4 -18 -31 -36 -22 -20
5 -5 14 -6 -19 -26 -22 -15
8 -6 8 -15 -26 -36 -30 -26
6 -12 2 -14 -24 -40 -30 -27
-12 -16 8 -8 -13 -31 -24 -21
-10 -6 14 1 -10 -28 -22 -19
0 -7 10 -11 -24 -40 -23 -25
1 -5 11 -12 -23 -33 -20 -20
-3 -1 7 -11 -17 -30 -21 -20
-1 -3 4 -12 -23 -36 -22 -23
3 -8 9 -6 -25 -31 -16 -18
-19 -23 16 1 -9 -21 -20 -14
-9 -14 12 -6 -19 -31 -24 -22
-6 -10 7 -3 -18 -32 -20 -20
-26 -16 12 0 -13 -26 -19 -17
-22 -16 11 1 -17 -29 -24 -21
-2 -14 -1 -5 -31 -41 -25 -28
6 -7 4 -7 -23 -34 -22 -21
-1 -10 6 -6 -22 -32 -22 -22
2 -11 1 -10 -25 -39 -25 -26
14 -7 2 -10 -24 -35 -21 -21
-8 -17 9 -3 -15 -28 -24 -19
-11 -21 4 -10 -20 -37 -30 -29
-11 -17 1 -3 -26 -41 -29 -28
-9 -12 11 0 -18 -31 -23 -20
0 -9 9 -2 -16 -32 -24 -22
17 -8 -2 -11 -28 -41 -25 -26
6 -16 -2 -11 -27 -36 -25 -24
-1 -18 1 -8 -25 -31 -25 -24
1 -8 6 -1 -20 -29 -19 -21
-7 -7 9 1 -18 -23 -14 -15
-14 -11 14 2 -6 -17 -19 -16
-21 -21 6 -2 -15 -26 -24 -27
-13 -18 1 0 -18 -28 -23 -25
0 -8 6 8 -10 -22 -19 -20
-11 -11 4 3 -12 -27 -26 -26
13 -3 -1 -4 -24 -33 -23 -29
11 -3 11 8 -16 -18 -14 -16
6 -4 12 12 -6 -16 -15 -16
14 0 7 6 -11 -21 -17 -20
11 -10 6 2 -19 -24 -20 -23
3 -10 13 13 -1 -13 -20 -19
3 -2 9 16 -4 -17 -21 -22
1 -11 5 14 -8 -23 -20 -24
2 -16 6 15 -6 -19 -20 -21
18 -2 8 17 1 -18 -20 -22
24 -2 0 11 -14 -29 -19 -26
13 -5 4 14 -13 -20 -14 -19
4 -9 8 19 -5 -14 -13 -16
6 -8 4 18 -11 -20 -16 -20
2 -11 6 22 0 -15 -11 -14
-11 -13 17 27 9 -5 -12 -11
-1 -2 14 29 4 -12 -14 -15
7 -3 10 32 3 -16 -14 -18
9 -5 10 32 5 -14 -14 -15
7 -7 10 30 6 -17 -18 -18
19 -8 2 28 -2 -23 -14 -19
22 -6 7 34 4 -15 -5 -11
13 -5 11 38 18 -7 -4 -7
15 1 10 35 13 -11 -4 -11
21 3 11 38 9 -7 -1 -7
18 6 22 53 26 7 2 0
19 7 20 57 28 4 0 -5
17 13 18 60 32 4 2 -5
10 9 19 62 32 9 6 0
9 8 24 67 35 12 8 1
28 17 15 66 30 7 14 1
20 9 15 66 31 13 15 5
5 3 18 67 33 15 13 4
15 10 16 70 45 13 15 3
20 8 10 68 42 17 18 7
13 2 19 80 56 29 18 11
17 7 16 82 49 27 19 8
25 18 16 84 50 28 24 12
26 11 18 87 59 37 27 16
38 20 18 89 59 38 26 13
53 30 10 84 47 31 30 12
46 28 15 91 60 43 36 21
36 26 15 93 63 49 39 24
35 29 16 93 62 50 43 25
29 29 17 97 65 54 49 31
24 26 21 103 78 64 49 33
27 24 14 98 73 57 44 24
33 26 12 97 72 53 43 22
35 30 13 102 77 61 48 30
31 32 14 101 78 63 48 30
42 33 4 95 67 54 49 26
49 31 5 97 76 63 53 33
48 31 6 97 69 68 54 35
46 33 1 92 67 63 54 32
44 32 2 95 67 67 58 37
27 22 13 99 75 77 58 40
31 24 7 97 71 72 56 34
37 32 5 104 71 73 61 38
34 33 11 105 78 81 65 44
33 33 12 97 84 77 59 39
48 32 -2 83 67 65 57 33
57 34 3 81 63 68 58 36
56 31 3 79 63 70 54 35
57 36 2 69 55 62 52 29
48 39 4 71 57 67 59 37
25 25 9 71 64 72 53 35
31 23 -1 60 52 58 41 21
41 22 1 61 48 55 42 21
43 21 8 68 56 62 47 31
40 27 11 65 56 60 44 26
37 28 0 58 44 49 43 23
25 27 6 58 52 53 44 28
31 26 10 59 53 53 41 26
28 26 7 48 43 43 35 21
17 17 6 43 38 41 34 21
11 16 14 48 49 44 29 20
15 15 9 39 36 31 21 12
17 10 6 31 32 22 18 9
13 8 8 32 34 22 17 10
7 7 6 27 28 15 10 3
11 8 -4 22 15 3 10 0
7 0 6 18 16 9 11 4
6 5 7 14 10 8 7 3
14 5 0 8 8 1 5 -1
12 0 -3 3 7 -1 4 -2
13 12 12 12 21 12 6 6
20 18 9 10 20 4 2 0
12 7 5 5 7 -6 -2 -5
10 11 15 9 11 -2 2 0
10 10 15 8 10 -3 0 -4
17 9 -2 0 -1 -14 1 -7
9 -1 0 -1 1 -9 2 -3
3 -5 1 0 -1 -7 -1 -5
11 0 -3 -4 -6 -12 -5 -10
11 -3 -2 -1 -8 -10 -4 -8
-6 -8 5 2 6 -5 -8 -8
10 6 2 -2 -2 -10 -10 -13
13 8 4 2 -2 -10 -4 -8
6 1 5 3 0 -8 -4 -7
-1 -6 1 -3 -10 -15 -13 -15
6 -12 -12 -11 -18 -28 -15 -22
18 -4 -3 -9 -7 -18 -8 -13
18 -4 1 -8 -11 -15 -10 -13
23 3 -6 -11 -13 -20 -12 -16
19 5 1 -5 -7 -13 -6 -8
3 1 8 -1 0 -7 -11 -6
10 -3 0 -8 -9 -18 -17 -17
20 0 0 -7 -14 -19 -15 -15
5 3 15 5 -2 -8 -6 -6
-15 -4 10 0 -3 -13 -14 -12
-6 -7 -2 -9 -4 -24 -12 -16
1 -8 1 -8 -7 -17 -10 -11
5 -5 0 -11 -16 -17 -13 -15
7 -10 -6 -17 -23 -27 -20 -21
6 -9 1 -14 -18 -23 -14 -15
-1 -8 9 -7 -6 -12 -14 -10
2 -8 3 -10 -18 -19 -17 -17
8 -5 2 -7 -20 -21 -17 -16
12 0 11 -2 -9 -11 -11 -9
6 1 10 -1 -7 -11 -13 -12
10 2 0 -10 -11 -21 -12 -16
-7 -14 -1 -8 -12 -17 -13 -14
-15 -11 8 3 -7 -8 -6 -8
-7 -8 2 -4 -7 -14 -9 -13
2 -10 -3 -7 -13 -17 -11 -14
-7 -13 6 -1 -8 -10 -15 -14
-8 -13 3 -7 -11 -18 -18 -19
-5 -9 1 -5 -9 -18 -14 -15
6 3 9 3 2 -7 -8 -7
-5 -3 8 0 -1 -14 -15 -15
-4 -3 0 -8 -14 -23 -14 -16
4 0 4 -3 -9 -14 -9 -9
10 4 7 1 -7 -11 -9 -9
12 5 4 -1 -13 -17 -11 -12
8 -4 2 -4 -12 -17 -11 -10
-12 -6 10 5 3 -11 -13 -8
0 5 6 4 -1 -17 -14 -12
8 8 3 5 -5 -19 -12 -10
3 3 8 4 -2 -13 -9 -5
-1 -2 7 2 -4 -15 -12 -9
4 -1 -3 -2 -15 -23 -10 -11
8 -4 2 1 -8 -14 -6 -5
15 2 6 0 -5 -11 -7 -6
9 -2 2 -6 -10 -20 -12 -14
10 -8 2 -5 -6 -19 -11 -13
0 -10 4 1 6 -11 -14 -12
3 -1 3 0 4 -14 -12 -12
-3 0 5 5 1 -10 -6 -7
-4 -4 5 3 3 -8 -6 -7
6 2 5 -1 -3 -12 -11 -10
10 -4 -4 -8 -10 -21 -11 -13
6 -9 -3 -3 -3 -15 -9 -10
7 -2 3 3 2 -8 -6 -7
7 -1 4 -1 -3 -9 -4 -6
15 -1 5 -3 -10 -8 -4 -6
3 -6 6 2 -3 -4 -11 -7
-4 -7 -1 -5 -8 -11 -13 -14
-5 -5 -2 -3 -4 -9 -8 -10
-3 -3 4 2 1 0 -3 -3
-4 -7 -1 -5 -3 -9 -12 -12
7 -3 -9 -11 -12 -16 -10 -14
10 -2 2 -9 -11 -9 -4 -6
4 -4 1 -8 -5 -8 -8 -8
0 -6 -4 -13 -1 -14 -9 -13
5 -4 -3 -9 -2 -8 -4 -6
9 -2 8 4 8 5 0 0
1 1 4 7 0 0 -4 -5
-9 -6 3 3 -3 -5 -5 -8
5 -1 5 4 4 0 -3 -4
3 -1 -3 -2 -4 -9 -11 -13
18 13 -14 -8 -15 -20 -12 -17
8 1 -7 -5 -9 -12 -8 -9
9 1 4 -1 -2 -4 -4 -5
17 9 1 1 0 -5 -1 -4
6 2 -1 -2 -2 -6 -1 -3
-10 -1 10 4 6 1 -4 -3
-4 6 9 -1 -1 -3 -5 -7
6 5 6 1 -1 -6 -3 -7
3 -4 4 1 -2 -3 -4 -5
7 -1 4 0 -1 -6 -8 -10
14 2 -6 -8 -12 -15 -6 -10
12 3 1 -2 -1 -6 1 -2
6 -1 4 -1 -6 -5 -3 -4
5 2 1 -7 -11 -11 -5 -8
3 -3 -1 -7 -6 -7 -1 -2
-6 -11 5 -2 -1 -3 -7 -5
-2 -6 -1 -7 0 -9 -11 -10
0 -3 0 -5 2 -9 -6 -4
-2 -4 3 -4 0 -5 -5 -2
-1 -4 -1 -7 -1 -13 -14 -12
5 -4 -9 -11 -14 -22 -13 -14
-1 -9 -1 0 -10 -12 -7 -6
2 -6 -1 -3 -10 -10 -8 -7
13 2 -9 -12 -16 -15 -11 -11
11 3 -3 -9 -12 -7 -2 -2
-11 -8 7 -3 -4 1 -5 -1
-6 -6 3 -8 -7 -5 -8 -7
2 -3 -2 -10 -9 -9 -6 -8
-7 -4 4 -2 2 -2 -3 -2
-1 -1 3 -4 1 -4 -7 -5
17 5 -3 -11 -12 -14 -6 -8
11 -3 -3 -10 -13 -9 -5 -4
6 -5 -5 -9 -8 -8 -9 -6
3 -2 -8 -11 -4 -13 -9 -10
1 1 -3 -9 -2 -10 -4 -3
-8 4 9 1 9 3 -2 1
-7 4 4 -1 -3 -5 -7 -6
5 0 0 -8 -8 -10 -7 -8
2 -12 0 -11 -7 -10 -11 -9
1 -7 -2 -11 -8 -13 -16 -13
15 0 -10 -16 -14 -18 -12 -14
-1 -10 -5 -10 -13 -8 -8 -7
-10 -17 -3 -8 -12 -5 -9 -8
9 -1 0 -9 -12 -8 -8 -9
20 3 2 -11 -14 -9 -7 -6
11 4 6 -4 -3 -1 -7 -2
4 5 6 -7 -4 -6 -11 -7
7 1 0 -9 -10 -11 -11 -9
6 -2 0 -7 -7 -7 -9 -4
6 1 -2 -10 -12 -10 -13 -9
14 1 -14 -19 -21 -19 -15 -13
4 -4 -8 -14 -14 -12 -11 -6
-10 -10 -6 -12 -10 -10 -13 -8
-6 -6 -5 -8 -14 -10 -9 -6
2 -1 -3 -9 -15 -8 -6 -2
0 0 1 -7 -8 -4 -9 -3
4 0 -6 -11 -12 -12 -15 -10
-3 0 -2 -7 -9 -9 -9 -5
-13 -9 4 -2 -3 -4 -6 0
-6 -7 4 -2 -7 -7 -9 -4
6 0 -9 -8 -16 -16 -9 -7
2 -2 -5 -10 -10 -10 -7 -2
9 -4 -5 -10 -11 -12 -12 -9
11 -6 -10 -15 -21 -20 -15 -14
9 -5 2 -12 -14 -12 -8 -4
-5 -2 9 -4 0 -2 -8 -1
-2 -6 -2 -11 -10 -13 -16 -13
11 -3 -4 -9 -8 -15 -12 -9
-2 -5 2 -7 -5 -10 -8 -3
-1 3 2 -4 -5 -10 -9 -5
10 4 -5 -8 -16 -17 -8 -6
-1 -3 0 -9 -15 -11 -7 -4
4 5 1 -6 -11 -8 -6 -3
2 2 -5 -5 -8 -13 -8 -7
-2 -2 -2 -7 -10 -10 -6 -3
-1 -1 6 -5 -7 -1 -8 0
19 15 2 -4 -6 -5 -8 -3
19 19 3 2 -3 -5 -5 1
9 16 9 4 4 0 -2 5
8 10 7 4 5 -5 -6 -1
13 6 -6 -10 -9 -19 -11 -8
14 2 -3 -13 -14 -14 -10 -5
14 11 5 -6 -10 -5 -3 0
14 15 7 -4 -9 -4 1 2
21 13 6 -4 -8 -2 2 5
3 14 16 3 12 7 1 7
-5 20 9 6 12 3 1 5
10 25 5 10 6 2 3 7
8 19 10 12 8 6 5 11
3 16 1 3 8 -1 -1 2
19 14 -11 -7 -7 -8 -1 0
22 13 -10 -1 -4 -1 3 6
24 19 -7 1 -2 5 6 8
24 20 -16 -5 -12 -2 2 3
21 15 -15 -8 -13 -1 2 5
5 10 0 2 5 12 5 13
15 19 -2 1 7 6 3 7
24 22 -2 2 4 5 3 8
15 23 -1 5 7 11 6 12
15 30 -3 1 5 7 4 7
18 16 -11 -6 -3 -2 3 4
9 4 -8 -4 2 3 6 8
5 6 -10 -5 -2 2 2 6
13 11 -13 -9 -12 -4 2 4
10 7 -13 -8 -10 -2 3 8
3 7 -7 -5 -2 4 -1 6
17 16 -6 -8 -10 -3 -6 -2
15 8 -11 -12 -8 -6 -7 -4
7 -6 -8 -10 -4 -3 -6 0
24 12 -7 -11 -11 -5 -8 -4
27 16 -12 -16 -15 -11 -6 -4
22 8 -9 -15 -11 -6 -3 0
14 4 -5 -12 -8 -4 -5 -1
-2 -2 -7 -15 -15 -12 -8 -6
-3 -5 -6 -14 -17 -11 -7 -3
-10 -5 2 -8 -10 -4 -10 -3
-9 -4 -1 -8 -11 -11 -13 -9
2 -5 -6 -14 -16 -17 -16 -11
16 -1 -2 -13 -13 -14 -17 -10
14 -2 -3 -17 -20 -19 -22 -15
5 -3 -4 -17 -16 -21 -16 -11
-10 -6 -1 -13 -11 -12 -11 -6
-2 0 2 -7 -10 -8 -9 -4
1 -4 -2 -12 -17 -15 -12 -9
0 -15 -8 -19 -18 -14 -13 -8
-12 -20 -2 -17 -19 -10 -18 -10
-9 -16 -5 -19 -20 -17 -20 -16
-13 -18 -11 -24 -26 -22 -23 -17
-9 -13 -6 -17 -22 -15 -19 -11
7 4 -2 -11 -14 -14 -17 -10
11 -5 -11 -19 -26 -24 -20 -14
15 -7 -1 -12 -21 -14 -14 -6
19 -7 -3 -15 -21 -17 -20 -11
27 -5 -9 -21 -22 -26 -23 -17
19 -7 -5 -18 -24 -18 -19 -11
2 -12 3 -14 -18 -13 -23 -11
5 -5 -1 -17 -22 -20 -24 -15
1 -6 -1 -15 -23 -21 -19 -12
-5 -8 4 -11 -17 -14 -16 -7
-6 -1 1 -7 -18 -16 -18 -10
-1 -2 -8 -16 -30 -25 -18 -13
-10 -16 0 -12 -19 -14 -14 -7
-8 -12 0 -13 -10 -15 -18 -7
6 -4 -6 -16 -11 -20 -18 -11
0 -5 -3 -10 -17 -14 -14 -5
-15 -11 4 -8 -15 -11 -20 -8
-10 -4 1 -8 -15 -16 -19 -10
2 -1 0 -9 -17 -15 -14 -7
1 -4 0 -11 -13 -11 -13 -5
-1 -4 -1 -13 -14 -17 -19 -10
20 -3 -12 -23 -26 -26 -21 -15
23 -7 -12 -23 -29 -22 -21 -13
12 -8 -5 -19 -25 -18 -20 -11
13 -5 -7 -19 -24 -21 -19 -13
9 -3 -3 -16 -16 -15 -14 -5
-5 9 12 -7 -2 -3 -9 5
-8 17 8 -8 0 -7 -7 7
-4 16 5 -5 -3 -13 -7 7
-6 17 18 17 7 -6 -4 12
-8 19 32 43 28 9 6 16
5 12 32 64 40 25 23 22
17 5 34 76 62 58 42 32
28 10 24 78 78 97 70 47
43 9 4 71 94 140 104 60
52 3 -7 74 121 196 145 83
68 16 -14 77 161 269 195 113
96 37 -42 62 188 331 247 140
105 58 -69 47 212 400 308 181
108 74 -95 24 229 466 362 220
133 89 -129 -13 224 489 379 225
150 86 -140 -44 186 456 353 198
126 51 -138 -75 137 396 291 154
95 25 -145 -120 73 306 219 106
66 8 -149 -173 -12 191 138 58
35 -7 -139 -204 -71 91 62 20
3 -25 -108 -206 -100 14 -7 -18
-11 -48 -98 -210 -144 -65 -69 -61
-19 -67 -86 -209 -183 -124 -111 -88
-21 -68 -67 -191 -183 -134 -119 -88
-12 -58 -64 -174 -166 -131 -115 -86
5 -46 -68 -158 -157 -122 -98 -76
-13 -52 -57 -141 -141 -103 -87 -64
-19 -51 -50 -129 -126 -96 -83 -61
-9 -35 -47 -113 -113 -92 -75 -58
-10 -30 -40 -92 -94 -72 -58 -40
-22 -28 -31 -75 -71 -54 -52 -33
-18 -17 -25 -55 -52 -44 -40 -26
-10 -11 -17 -39 -37 -39 -31 -20
-1 -2 -5 -20 -20 -25 -22 -8
14 2 2 -9 -19 -21 -19 -8
22 6 -3 -13 -26 -27 -16 -9
8 -2 -1 -13 -19 -25 -18 -7
-12 -21 -4 -18 -30 -30 -27 -15
-9 -20 -11 -23 -36 -38 -30 -20
2 -12 -4 -16 -27 -32 -24 -13
-7 -2 11 -8 -15 -21 -24 -10
-6 -1 2 -11 -21 -29 -28 -18
-3 -11 1 -10 -28 -29 -26 -16
-9 -16 7 -5 -16 -21 -23 -11
-3 -6 6 -3 -19 -23 -25 -14
15 7 5 -5 -25 -25 -17 -9
10 2 4 -8 -20 -21 -17 -6
11 -2 3 -7 -13 -18 -17 -7
15 -2 -2 -10 -20 -25 -21 -13
10 -9 -2 -13 -27 -28 -23 -14
3 -8 7 -6 -16 -20 -27 -12
12 -4 0 -9 -20 -30 -30 -20
3 -9 -3 -13 -24 -32 -29 -18
-9 -9 10 -2 -14 -20 -21 -7
-11 -10 5 -5 -19 -25 -28 -15
3 -1 -1 -8 -22 -26 -21 -11
2 0 10 0 -16 -15 -15 -2
2 -4 7 0 -15 -15 -17 -5
19 4 2 -7 -11 -21 -21 -10
19 5 4 -4 -15 -21 -22 -9
7 -6 8 -1 -4 -16 -25 -9
6 -6 6 -3 -13 -21 -26 -15
9 -3 3 -2 -20 -25 -26 -14
8 -1 10 2 -9 -18 -21 -9
11 2 7 -1 -8 -19 -22 -11
7 -3 -1 -6 -19 -25 -18 -11
-2 -10 5 0 -14 -17 -16 -6
-9 -12 11 -1 -14 -15 -17 -7
-3 -11 -1 -8 -22 -24 -22 -14
1 -12 -2 -3 -15 -20 -20 -10
-7 -14 8 3 -9 -13 -21 -10
8 -3 5 1 -13 -19 -22 -15
9 -6 3 -2 -14 -26 -25 -16
-8 -12 7 6 -5 -18 -19 -10
-10 -11 9 3 -11 -19 -21 -12
3 -8 -3 -7 -27 -29 -22 -16
2 -5 -2 -4 -20 -23 -19 -10
1 -9 1 -1 -13 -18 -17 -8
5 0 1 -1 -15 -22 -18 -11
3 2 1 0 -16 -18 -16 -7
-23 -21 6 1 -11 -15 -24 -12
-25 -24 5 1 -14 -21 -25 -16
-2 -7 11 8 -8 -18 -17 -9
6 0 10 14 -2 -11 -14 -5
10 3 6 9 -2 -16 -19 -10
14 0 -3 1 -15 -22 -18 -11
0 -8 1 3 -13 -17 -16 -6
1 -8 2 5 -5 -12 -16 -5
10 -2 -2 5 -6 -17 -17 -9
13 -9 -3 5 -6 -15 -17 -8
6 -16 4 6 -2 -9 -24 -11
10 -9 -2 3 -14 -17 -28 -19
7 -6 2 4 -10 -13 -22 -13
-7 -10 11 16 2 -2 -17 -4
1 1 12 18 7 0 -14 -4
12 -1 1 10 -7 -9 -13 -6
-2 -12 2 12 -2 -5 -14 -3
0 -6 6 14 11 0 -12 -2
6 -3 2 15 0 -5 -13 -7
3 -14 0 11 -7 -7 -16 -8
1 -11 11 18 2 1 -18 -4
11 -2 9 19 3 -1 -15 -5
9 -3 7 21 5 0 -12 -5
0 -8 7 23 8 2 -13 -3
-1 -4 5 22 4 -2 -17 -8
12 2 5 25 3 -3 -7 -2
9 2 10 27 12 2 -5 3
1 -5 12 27 9 4 -6 2
7 -2 6 23 7 -4 -8 -3
5 -8 5 28 18 -3 -7 0
9 -6 18 33 19 2 -12 -2
19 7 12 34 8 -2 -12 -5
7 0 5 32 7 -4 -11 -4
1 -4 12 42 15 4 -6 3
4 -2 14 44 25 4 -6 2
15 2 9 39 9 -1 -2 4
13 5 11 43 18 8 2 9
16 10 11 45 26 11 1 9
25 10 6 42 16 4 -2 2
19 4 8 48 20 12 4 10
5 2 19 57 33 20 5 11
12 2 13 54 27 13 2 5
17 1 12 59 28 13 4 8
3 3 22 71 41 26 13 18
10 8 22 73 40 25 13 14
29 11 11 72 35 19 17 15
16 9 20 77 43 30 21 23
13 13 17 77 46 34 21 23
25 19 12 76 45 30 22 20
22 12 10 76 45 34 24 24
22 13 16 83 60 42 21 21
31 23 16 85 60 41 23 20
33 20 15 86 55 38 25 20
31 15 15 91 61 45 28 25
28 13 12 94 69 46 30 24
36 18 5 91 67 45 37 29
27 23 15 99 81 58 45 39
15 18 18 104 79 63 46 40
20 18 7 96 69 57 43 33
25 20 9 96 72 64 49 40
28 29 19 106 82 76 51 43
30 25 10 99 72 67 45 33
41 28 6 98 74 66 46 34
26 29 16 109 91 81 56 48
22 28 14 108 87 80 55 44
38 29 4 102 79 73 58 44
33 26 7 106 87 83 63 51
35 29 5 104 85 86 61 48
38 33 1 98 81 81 60 44
29 28 4 101 91 88 66 51
24 20 16 108 97 99 66 52
29 23 11 105 85 93 62 45
37 35 6 107 88 94 67 51
34 38 13 114 101 104 72 58
26 39 11 109 101 101 69 55
28 39 5 105 87 93 74 57
22 33 10 106 91 101 76 62
19 24 10 102 88 99 72 56
37 37 5 92 85 94 70 52
41 36 4 88 82 97 71 55
31 30 12 90 87 101 66 54
39 37 8 85 83 92 61 46
34 31 5 82 77 84 57 43
20 15 10 77 76 82 51 41
28 18 1 69 71 72 43 32
43 30 -6 60 55 60 46 31
40 33 6 63 58 67 51 40
