I II V1 V2 V3 V4 V5 V6
-10 -3 2 1 0 9 2 0
-10 -3 2 1 0 9 2 0
-10 -3 2 1 0 9 2 0
-9 -3 2 1 0 9 2 0
-9 -3 2 1 0 9 2 0
-9 -3 2 1 0 9 2 0
-8 -4 2 2 0 8 2 -2
-8 -4 2 2 0 8 2 -2
-9 -4 2 2 0 9 1 -2
-9 -4 2 2 0 9 1 -2
-9 -4 2 2 0 9 1 -2
-10 -3 3 2 1 10 0 -2
-10 -3 3 2 1 10 0 -2
-9 -3 3 2 1 11 0 -2
-9 -3 3 2 1 11 0 -2
-9 -3 3 2 1 11 0 -2
-8 -4 2 2 0 12 -2 -3
-8 -4 2 2 0 12 -2 -3
-9 -3 2 2 0 12 -3 -3
-9 -3 2 2 0 12 -3 -3
-9 -3 2 2 0 12 -3 -3
-10 -2 2 1 -2 11 -4 -4
-10 -2 2 1 -2 10 -4 -4
-10 -3 2 1 -2 10 -4 -4
-10 -3 2 1 -2 9 -4 -4
-10 -3 2 1 -2 9 -4 -4
-10 -4 3 1 -3 7 -3 -5
-10 -4 3 1 -3 6 -3 -5
-10 -4 3 1 -3 5 -2 -4
-10 -4 3 1 -3 4 -2 -4
-10 -4 3 1 -3 3 -2 -4
-11 -5 4 0 -3 2 0 -3
-11 -5 4 0 -3 1 0 -3
-11 -6 4 0 -4 1 0 -3
-11 -6 4 0 -4 0 0 -3
-11 -6 4 0 -4 0 0 -3
-11 -7 3 -2 -5 -2 -2 -4
-11 -7 3 -3 -5 -2 -2 -4
-11 -6 3 -3 -5 -3 -2 -4
-11 -6 3 -4 -5 -3 -2 -4
-11 -6 3 -4 -5 -3 -2 -4
-11 -5 2 -5 -5 -4 -2 -5
-11 -5 2 -5 -5 -4 -2 -5
-11 -6 2 -5 -5 -3 -2 -5
-11 -6 2 -5 -5 -3 -2 -5
-11 -6 2 -5 -5 -3 -2 -5
-12 -7 3 -4 -6 -2 -2 -6
-12 -7 3 -4 -6 0 -2 -6
-12 -7 3 -4 -6 1 0 -6
-12 -7 3 -4 -6 2 0 -6
-12 -7 3 -4 -6 2 0 -6
-12 -7 3 -5 -7 3 1 -6
-12 -7 3 -5 -7 3 0 -6
-12 -8 3 -5 -7 3 -2 -6
-12 -8 3 -5 -7 3 -3 -6
-12 -8 3 -5 -7 3 -3 -6
-12 -9 3 -6 -7 4 -4 -6
-12 -9 3 -6 -7 4 -4 -6
-12 -8 3 -6 -7 4 -4 -6
-12 -8 3 -6 -7 4 -4 -6
-12 -8 3 -6 -7 4 -4 -6
-13 -7 3 -7 -8 3 -4 -5
-13 -7 3 -7 -8 2 -5 -6
-13 -8 3 -7 -8 2 -5 -6
-13 -8 3 -7 -8 1 -6 -7
-13 -8 3 -7 -8 1 -6 -7
-13 -9 4 -6 -9 0 -7 -8
-13 -9 4 -6 -9 0 -7 -8
-13 -9 4 -6 -9 0 -7 -7
-13 -9 4 -6 -9 0 -7 -7
-13 -9 4 -6 -9 0 -7 -7
-12 -8 3 -7 -8 0 -6 -6
-12 -8 3 -7 -8 0 -6 -6
-12 -8 3 -7 -8 -2 -7 -7
-12 -8 3 -7 -8 -2 -7 -7
-12 -8 3 -7 -8 -2 -7 -7
-13 -9 2 -7 -9 -3 -8 -8
-13 -9 2 -8 -9 -3 -8 -8
-13 -9 2 -8 -9 -3 -8 -8
-13 -9 2 -9 -9 -3 -8 -8
-13 -9 2 -9 -9 -3 -8 -8
-13 -9 1 -10 -9 -2 -7 -7
-13 -9 1 -10 -9 -2 -7 -7
-13 -9 1 -9 -10 -2 -7 -7
-13 -9 1 -9 -10 -2 -7 -7
-13 -9 1 -9 -10 -2 -7 -7
-13 -9 2 -8 -11 -3 -8 -8
-13 -9 2 -8 -11 -3 -8 -8
-13 -9 2 -8 -10 -3 -8 -8
-13 -9 2 -8 -10 -3 -8 -8
-13 -9 2 -8 -10 -3 -8 -8
-13 -9 2 -9 -9 -3 -8 -8
-13 -9 2 -9 -9 -3 -8 -8
-13 -9 2 -9 -9 -4 -8 -8
-13 -9 2 -9 -9 -4 -8 -8
-13 -9 2 -9 -9 -4 -8 -8
-12 -9 2 -9 -10 -5 -9 -9
-12 -9 2 -9 -10 -5 -9 -9
-13 -8 2 -9 -10 -5 -9 -9
-13 -8 2 -9 -10 -5 -9 -9
-13 -8 2 -9 -10 -5 -9 -9
-14 -7 2 -10 -10 -5 -8 -9
-14 -8 2 -10 -10 -5 -8 -9
-14 -8 2 -10 -10 -6 -8 -9
-14 -9 2 -10 -10 -6 -8 -9
-14 -9 2 -10 -10 -6 -8 -9
-15 -10 2 -9 -10 -7 -8 -9
-15 -10 2 -9 -10 -7 -8 -9
-15 -10 2 -9 -10 -7 -8 -9
-15 -10 2 -9 -10 -7 -8 -9
-15 -10 2 -9 -10 -7 -8 -9
-14 -11 1 -10 -10 -6 -8 -9
-14 -11 1 -10 -10 -6 -8 -9
-14 -11 1 -10 -10 -6 -8 -9
-14 -11 1 -10 -10 -6 -8 -9
-14 -11 1 -10 -10 -6 -8 -9
-14 -10 2 -10 -11 -5 -9 -9
-14 -10 2 -10 -11 -4 -9 -9
-14 -10 2 -10 -10 -4 -9 -9
-14 -10 2 -10 -10 -3 -9 -9
-14 -10 2 -10 -10 -3 -9 -9
-15 -9 3 -9 -9 -2 -10 -10
-14 -9 3 -9 -9 -2 -10 -10
-14 -9 3 -9 -9 -2 -10 -10
-13 -9 3 -9 -9 -2 -10 -10
-13 -9 3 -9 -9 -2 -10 -10
-12 -9 2 -8 -10 -2 -9 -10
-12 -9 2 -8 -10 0 -9 -10
-12 -9 2 -8 -9 1 -9 -10
-12 -9 2 -8 -9 2 -9 -10
-12 -9 2 -8 -9 2 -9 -10
-13 -8 2 -8 -8 3 -8 -10
-13 -8 2 -8 -8 3 -8 -10
-13 -8 2 -8 -8 3 -8 -10
-13 -8 2 -8 -8 3 -8 -10
-13 -8 2 -8 -8 3 -8 -10
-12 -8 2 -8 -8 3 -8 -9
-12 -8 2 -8 -8 3 -8 -9
-12 -8 2 -8 -8 4 -8 -9
-12 -8 2 -8 -8 4 -8 -9
-12 -8 2 -8 -8 4 -8 -9
-11 -8 3 -7 -7 5 -7 -8
-11 -8 3 -7 -7 5 -7 -8
-11 -8 3 -7 -7 4 -7 -8
-11 -8 3 -7 -7 4 -7 -8
-11 -8 3 -7 -7 4 -7 -8
-12 -7 3 -7 -8 3 -8 -9
-12 -7 3 -7 -8 3 -8 -9
-12 -7 3 -7 -8 3 -8 -9
-12 -7 3 -7 -8 3 -8 -9
-12 -7 3 -7 -8 3 -8 -9
-11 -6 2 -7 -7 4 -7 -8
-11 -6 3 -7 -7 4 -7 -8
-11 -6 3 -6 -7 4 -6 -8
-11 -6 4 -6 -7 4 -6 -8
-11 -6 4 -6 -7 4 -6 -8
-11 -7 5 -5 -7 5 -5 -8
-11 -6 5 -5 -7 5 -5 -8
-10 -6 5 -5 -7 5 -5 -8
-10 -5 5 -5 -7 5 -5 -8
-10 -5 5 -5 -7 5 -5 -8
-9 -3 6 -4 -5 6 -6 -8
-8 -2 7 -3 -4 7 -5 -7
-7 1 9 0 -2 8 -4 -6
-6 2 10 2 1 9 -3 -5
-6 3 11 3 2 10 -2 -4
-5 4 12 4 3 11 0 -3
-5 5 12 4 3 11 0 -3
-5 6 13 4 3 12 1 -3
-5 7 13 4 3 12 1 -3
-5 7 13 4 3 12 1 -3
-4 8 14 5 4 13 2 -2
-3 8 14 6 5 13 2 -2
-2 7 13 6 6 14 3 0
0 7 13 7 7 14 3 0
1 7 13 7 7 14 3 0
2 6 11 8 8 15 4 1
2 7 10 8 8 15 4 1
2 8 8 7 8 15 5 2
2 9 7 7 8 15 5 2
2 9 6 7 8 15 5 2
2 10 5 6 8 15 6 3
2 10 4 5 7 15 6 3
2 10 4 5 7 15 6 3
2 10 3 4 6 15 6 3
2 10 3 4 6 15 6 3
4 8 2 3 5 15 6 4
5 6 2 3 5 14 6 3
6 4 2 3 5 13 5 3
7 3 2 3 5 12 5 2
8 1 2 3 5 12 5 2
9 0 1 2 4 11 4 1
9 0 1 1 3 10 3 1
8 0 1 0 2 9 2 0
8 0 1 -2 1 8 1 0
8 0 1 -2 0 8 1 0
6 0 0 -3 -2 7 0 -2
4 0 0 -4 -2 6 0 -2
2 0 0 -4 -3 6 -2 -2
0 0 0 -5 -3 5 -2 -2
-3 0 0 -5 -3 5 -2 -2
-5 -3 1 -6 -4 4 -3 -4
-6 -4 1 -6 -5 3 -4 -5
-7 -5 2 -6 -6 2 -5 -6
-9 -6 2 -6 -7 1 -6 -7
-10 -7 2 -6 -7 1 -6 -8
-11 -8 3 -7 -8 0 -7 -9
-11 -8 3 -7 -8 0 -7 -9
-11 -8 3 -7 -8 -2 -7 -9
-11 -8 3 -7 -8 -2 -7 -9
-11 -8 3 -7 -8 -2 -7 -9
-10 -8 2 -8 -9 -3 -8 -10
-10 -8 2 -8 -9 -3 -8 -10
-10 -8 2 -8 -9 -3 -8 -10
-10 -8 2 -8 -9 -3 -8 -10
-10 -8 2 -8 -9 -3 -8 -10
-10 -9 3 -7 -9 -4 -9 -9
-10 -9 3 -7 -9 -4 -9 -9
-10 -9 3 -7 -9 -4 -9 -9
-10 -9 3 -7 -9 -4 -9 -9
-10 -9 3 -7 -9 -4 -9 -9
-11 -8 3 -8 -9 -4 -8 -9
-11 -8 3 -8 -9 -4 -8 -9
-10 -8 3 -7 -9 -4 -8 -9
-10 -8 3 -7 -9 -4 -8 -9
-10 -8 3 -7 -9 -4 -8 -9
-9 -8 3 -6 -8 -4 -7 -9
-10 -8 4 -5 -8 -4 -7 -10
-11 -8 5 -5 -8 -4 -8 -10
-12 -8 6 -4 -8 -4 -8 -11
-12 -8 6 -4 -8 -4 -8 -11
-13 -8 9 0 -6 -4 -9 -12
-14 -7 11 3 -3 -2 -7 -11
-15 -6 14 7 0 1 -6 -10
-16 -4 16 10 3 2 -5 -9
-17 -3 19 13 5 4 -4 -9
-12 1 21 23 17 12 7 -2
-4 5 22 35 32 22 19 7
6 9 24 48 47 31 31 14
14 12 26 60 61 40 44 22
22 16 27 72 76 51 56 30
42 25 17 75 91 63 78 49
64 36 3 74 106 77 103 69
87 48 -12 73 120 92 128 90
108 59 -26 72 136 105 152 110
131 69 -40 72 151 119 177 131
137 74 -56 49 139 113 178 135
140 78 -71 20 119 101 171 135
142 82 -87 -10 99 89 164 136
145 86 -102 -38 79 77 158 136
147 90 -116 -67 59 65 152 136
125 78 -117 -91 23 39 118 116
94 63 -113 -113 -18 12 78 90
64 47 -108 -136 -58 -17 37 63
33 31 -104 -158 -99 -45 -3 36
4 16 -99 -181 -139 -73 -43 10
-8 7 -94 -180 -147 -82 -56 -3
-14 0 -88 -171 -144 -88 -62 -10
-20 -7 -82 -161 -142 -93 -68 -18
-26 -14 -76 -152 -139 -98 -73 -26
-32 -21 -71 -143 -137 -103 -79 -34
-32 -22 -65 -130 -127 -100 -76 -35
-30 -20 -59 -115 -113 -92 -69 -32
-27 -17 -53 -101 -100 -85 -63 -30
-25 -15 -48 -87 -88 -76 -56 -27
-22 -13 -41 -72 -74 -69 -49 -25
-20 -12 -36 -63 -66 -63 -44 -23
-19 -12 -31 -54 -58 -58 -39 -22
-18 -11 -26 -46 -50 -53 -35 -21
-16 -11 -21 -37 -43 -48 -31 -19
-15 -11 -17 -28 -34 -43 -26 -18
-14 -10 -14 -24 -31 -39 -25 -17
-14 -11 -12 -22 -30 -38 -24 -17
-14 -11 -10 -19 -28 -36 -24 -17
-14 -12 -9 -17 -26 -34 -23 -17
-14 -12 -7 -14 -25 -33 -23 -17
-13 -13 -6 -12 -23 -31 -22 -16
-13 -13 -5 -11 -22 -30 -21 -16
-13 -13 -5 -10 -20 -28 -20 -16
-13 -13 -4 -8 -18 -26 -19 -16
-13 -13 -4 -7 -17 -25 -18 -16
-13 -13 -3 -6 -16 -24 -17 -17
-13 -13 -3 -6 -16 -24 -16 -17
-13 -13 -3 -6 -16 -23 -16 -17
-13 -13 -3 -6 -16 -23 -15 -17
-13 -13 -3 -6 -16 -23 -15 -17
-12 -12 -3 -7 -16 -22 -14 -16
-12 -12 -3 -6 -16 -23 -14 -15
-12 -12 -3 -6 -15 -23 -14 -14
-12 -12 -3 -5 -15 -24 -14 -13
-12 -12 -3 -5 -15 -24 -14 -13
-13 -13 -2 -4 -14 -26 -13 -12
-13 -13 -2 -4 -14 -29 -13 -12
-12 -12 -2 -4 -15 -32 -13 -12
-12 -12 -2 -4 -15 -34 -13 -12
-12 -12 -2 -4 -15 -37 -13 -12
-11 -11 -3 -5 -16 -39 -14 -13
-11 -11 -3 -4 -15 -40 -14 -13
-11 -11 -3 -4 -15 -43 -14 -13
-11 -11 -3 -3 -14 -45 -14 -13
-11 -11 -3 -3 -14 -46 -14 -13
-11 -10 -2 -2 -13 -47 -14 -12
-11 -10 -2 -2 -13 -49 -15 -12
-11 -10 -2 -2 -14 -50 -15 -12
-11 -10 -2 -2 -14 -51 -16 -12
-11 -10 -2 -2 -14 -52 -16 -12
-10 -10 0 0 -15 -53 -17 -12
-10 -10 0 0 -14 -52 -17 -12
-10 -10 0 0 -14 -51 -17 -13
-10 -10 0 0 -13 -50 -17 -13
-10 -10 0 0 -13 -50 -17 -13
-10 -10 -2 1 -12 -48 -16 -14
-9 -10 -2 1 -12 -46 -16 -14
-9 -10 -2 1 -12 -45 -17 -15
-8 -10 -2 1 -12 -43 -17 -15
-8 -10 -2 1 -12 -40 -17 -15
-7 -9 0 1 -12 -38 -18 -16
-7 -9 0 2 -11 -36 -18 -16
-7 -9 0 2 -11 -34 -18 -16
-7 -9 0 3 -10 -32 -18 -16
-7 -9 0 3 -10 -30 -18 -16
-8 -9 0 4 -9 -29 -18 -16
-8 -9 0 4 -9 -28 -18 -16
-8 -9 0 4 -9 -28 -17 -16
-8 -9 0 4 -9 -27 -17 -16
-8 -9 0 4 -9 -27 -17 -16
-7 -9 0 3 -9 -26 -16 -15
-7 -9 0 3 -9 -28 -15 -14
-6 -9 0 4 -9 -29 -14 -13
-6 -9 0 4 -9 -30 -14 -13
-6 -9 0 4 -9 -31 -13 -12
-5 -9 -2 5 -9 -33 -12 -11
-5 -9 -2 5 -9 -35 -12 -11
-5 -9 -2 5 -9 -38 -12 -10
-5 -9 -2 5 -9 -40 -12 -10
-5 -9 -2 5 -9 -43 -12 -10
-5 -9 0 5 -10 -45 -11 -9
-5 -9 0 5 -10 -46 -11 -9
-5 -9 -2 5 -10 -48 -11 -8
-5 -9 -2 5 -10 -49 -11 -8
-5 -9 -2 5 -10 -51 -11 -8
-5 -9 -3 6 -9 -52 -11 -7
-5 -9 -3 6 -9 -52 -11 -7
-5 -9 -3 6 -9 -52 -11 -7
-5 -9 -3 6 -9 -52 -11 -7
-5 -9 -3 6 -9 -52 -11 -7
-4 -8 -2 5 -9 -50 -10 -6
-4 -8 -2 6 -8 -48 -10 -6
-3 -8 -3 7 -8 -46 -10 -6
-3 -8 -3 7 -7 -44 -10 -6
-3 -8 -3 8 -7 -41 -10 -6
-2 -8 -4 9 -6 -39 -9 -5
-2 -8 -4 9 -6 -37 -9 -5
-2 -8 -5 9 -6 -35 -9 -5
-2 -8 -5 9 -6 -32 -9 -5
-2 -8 -5 9 -6 -30 -9 -5
0 -8 -6 9 -7 -28 -9 -6
0 -7 -6 9 -7 -27 -9 -6
0 -6 -6 10 -6 -25 -9 -6
0 -5 -6 10 -6 -24 -9 -6
0 -4 -6 10 -6 -22 -9 -6
1 -3 -7 11 -5 -21 -10 -5
2 -3 -7 11 -5 -21 -10 -5
2 -3 -7 11 -4 -20 -10 -4
3 -3 -7 11 -4 -20 -10 -4
3 -3 -7 11 -4 -20 -10 -4
4 -3 -8 10 -3 -19 -9 -3
5 -2 -9 10 -3 -19 -8 -2
5 -2 -9 10 -2 -19 -7 0
6 0 -10 10 -2 -19 -6 0
6 0 -10 10 -2 -19 -5 1
7 1 -11 11 0 -20 -4 2
8 1 -11 11 0 -21 -3 2
9 2 -12 11 0 -21 -2 3
9 2 -12 11 0 -22 -2 3
10 2 -12 11 0 -22 0 3
11 3 -13 11 0 -23 1 4
12 4 -14 11 0 -24 2 5
13 5 -14 11 1 -24 2 6
14 5 -15 11 1 -25 3 6
15 6 -15 11 1 -25 3 7
16 7 -16 11 2 -26 4 8
18 8 -17 11 2 -26 4 9
19 9 -18 10 2 -26 5 9
20 9 -19 10 2 -26 5 10
21 10 -20 10 2 -26 5 10
22 11 -21 9 1 -26 6 11
23 12 -21 9 1 -26 6 12
23 12 -22 9 1 -26 6 13
24 13 -22 9 1 -26 6 13
24 13 -22 9 1 -26 6 14
25 14 -23 9 2 -25 6 15
26 15 -23 9 2 -25 6 15
27 16 -24 9 3 -24 7 16
27 16 -24 9 3 -24 7 16
28 17 -24 9 3 -24 7 16
29 18 -25 8 4 -23 8 17
29 18 -25 8 4 -23 9 19
30 19 -26 8 4 -23 9 20
30 19 -26 8 4 -23 10 21
30 19 -26 8 4 -23 10 22
31 20 -27 9 4 -22 11 23
31 21 -27 8 4 -22 11 24
31 22 -27 8 4 -23 11 25
31 22 -27 7 4 -23 11 25
31 23 -27 7 4 -23 11 26
32 24 -27 6 3 -24 11 27
32 24 -26 7 4 -24 12 28
32 24 -26 8 5 -24 12 28
32 24 -25 9 6 -24 13 29
32 24 -25 10 7 -24 13 29
32 24 -24 11 8 -24 14 30
31 24 -22 12 9 -24 14 29
30 24 -21 13 10 -24 14 28
30 24 -20 14 10 -24 14 28
29 24 -19 15 11 -24 14 27
27 24 -17 16 12 -24 15 26
26 24 -16 17 13 -23 15 26
24 23 -14 19 14 -22 15 25
22 23 -13 20 14 -21 15 25
20 23 -11 21 15 -20 15 25
18 22 -10 22 16 -19 16 24
17 22 -8 22 16 -19 16 23
15 21 -7 22 16 -19 16 22
14 21 -5 22 16 -19 16 22
12 21 -4 22 16 -19 16 21
11 20 -3 23 16 -18 17 20
10 18 -2 23 16 -17 17 19
8 17 0 23 16 -16 16 17
7 15 0 23 16 -16 16 16
6 14 1 23 16 -15 16 15
5 13 2 24 15 -14 15 14
4 12 2 23 14 -14 15 13
3 11 2 22 13 -14 14 12
3 11 2 22 13 -14 14 11
2 10 2 21 12 -14 14 10
1 9 2 20 11 -13 13 9
0 8 2 20 10 -13 12 8
-2 7 2 19 9 -12 11 7
-2 6 2 19 9 -12 11 6
-3 5 2 19 8 -12 10 5
-4 4 1 18 7 -11 9 4
-4 4 1 17 6 -11 9 4
-4 4 1 16 5 -10 8 4
-4 4 1 15 4 -10 7 4
-4 4 1 14 3 -10 7 4
-3 3 1 13 2 -9 6 4
-3 3 1 13 2 -9 6 4
-3 2 1 13 2 -8 5 4
-3 2 1 13 2 -8 5 4
-3 2 1 13 2 -8 5 4
-3 1 1 13 1 -7 4 3
-3 1 1 13 1 -7 4 3
-4 0 1 12 1 -7 4 3
-4 -2 1 12 1 -7 4 3
-4 -2 1 12 1 -7 4 3
-5 -3 0 11 0 -6 3 2
-5 -3 0 11 0 -6 3 2
-5 -3 0 11 -2 -6 2 2
-5 -3 0 11 -2 -6 1 2
-5 -3 0 11 -2 -6 1 2
-5 -3 0 11 -3 -7 0 1
-5 -3 0 11 -3 -9 0 1
-5 -3 0 11 -4 -10 0 0
-5 -3 0 11 -4 -12 0 0
-5 -3 0 11 -4 -13 0 0
-5 -3 -2 10 -5 -14 -2 -2
-5 -3 -2 10 -5 -15 -2 -2
-5 -3 -2 10 -5 -16 -3 -2
-5 -3 -2 10 -5 -17 -3 -2
-5 -3 -2 10 -5 -18 -3 -2
-6 -3 0 10 -5 -19 -4 -2
-6 -3 0 10 -5 -19 -4 -2
-6 -2 0 10 -5 -20 -4 0
-6 -2 0 10 -5 -20 -4 1
-6 -2 0 10 -5 -20 -4 1
-5 0 0 9 -5 -21 -4 2
-5 0 0 9 -5 -21 -4 2
-5 0 0 10 -5 -20 -4 1
-5 0 0 11 -5 -20 -4 1
-5 0 0 11 -5 -20 -4 1
-4 -2 0 12 -5 -19 -5 0
-4 -2 0 12 -5 -17 -5 0
-4 -2 0 12 -5 -16 -4 -2
-4 -2 0 12 -5 -14 -4 -2
-4 -2 0 12 -5 -13 -4 -2
-5 -2 0 11 -4 -12 -3 -3
-5 -2 0 11 -4 -11 -3 -3
-5 -2 0 11 -4 -9 -2 -4
-5 -2 0 11 -4 -8 -2 -5
-5 -2 0 11 -4 -7 -2 -5
-5 -2 1 11 -4 -6 0 -6
-5 -2 1 11 -4 -6 0 -6
-5 -2 1 11 -4 -5 1 -5
-5 -2 1 11 -4 -5 2 -5
-5 -2 1 11 -4 -5 2 -5
-5 -2 1 11 -3 -4 3 -4
-5 -2 1 11 -3 -4 3 -3
-5 0 1 12 -3 -5 4 -2
-5 1 1 13 -3 -6 4 -2
-5 1 1 13 -3 -6 4 0
-4 2 2 14 -2 -7 5 1
-4 2 2 14 -2 -7 5 1
-4 2 2 13 -2 -8 5 1
-4 2 2 13 -2 -9 5 1
-4 2 2 13 -2 -9 5 1
-3 2 1 12 -2 -10 4 0
-3 2 1 12 -2 -10 4 0
-3 2 1 13 -2 -10 4 1
-3 2 1 13 -2 -10 4 2
-3 2 1 13 -2 -10 4 2
-3 1 2 14 0 -10 4 3
-3 1 2 14 0 -10 4 3
-3 1 2 14 0 -9 4 3
-3 1 2 14 0 -9 4 3
-3 1 2 14 0 -9 4 3
-2 2 2 14 1 -8 3 3
-2 2 2 14 1 -8 3 3
-2 2 2 14 1 -7 2 3
-2 2 2 14 1 -6 2 3
-2 2 2 14 1 -6 2 3
-3 2 1 14 0 -5 1 3
-3 2 1 14 0 -5 1 3
-3 2 1 13 0 -5 0 3
-3 2 1 13 0 -5 0 3
-3 2 1 13 0 -5 0 3
-2 2 0 12 -2 -5 -2 2
-2 2 0 12 -2 -5 -2 2
-3 2 1 12 -2 -5 -2 2
-4 2 1 12 -2 -5 -2 2
-4 2 1 12 -2 -5 -2 2
-5 1 2 13 0 -6 -3 2
-5 1 2 13 0 -6 -3 2
-5 1 2 13 -2 -7 -3 2
-5 1 2 13 -2 -8 -3 2
-5 1 2 13 -2 -8 -3 2
-4 2 1 12 -3 -9 -4 1
-4 2 1 12 -3 -9 -4 1
-4 2 1 11 -3 -10 -4 0
-4 2 1 11 -3 -10 -4 0
-4 2 1 11 -3 -10 -4 0
-4 1 0 10 -4 -11 -4 -2
-4 1 0 10 -4 -11 -4 -2
-4 1 0 10 -4 -11 -3 -2
-4 1 0 10 -4 -11 -3 -2
-4 1 0 10 -4 -11 -3 -2
-4 2 0 9 -5 -12 -2 -2
-4 2 0 9 -5 -12 -2 -2
-4 1 0 9 -5 -12 -2 -2
-4 1 0 9 -5 -12 -2 -2
-4 1 0 9 -5 -12 -2 -2
-4 0 0 9 -5 -12 -2 -2
-4 0 0 9 -5 -12 -2 -2
-4 0 0 9 -5 -11 -2 -2
-4 0 0 9 -5 -11 -2 -2
-4 0 0 9 -5 -11 -2 -2
-4 -2 0 9 -5 -10 -2 -3
-4 -2 0 9 -5 -10 -2 -3
-4 -2 0 9 -5 -9 -2 -3
-4 -2 0 9 -5 -8 -2 -3
-4 -2 0 9 -5 -8 -2 -3
-5 -2 0 9 -6 -7 -2 -4
-5 -2 0 9 -6 -7 -2 -4
-5 0 0 9 -6 -7 -2 -4
-5 0 0 9 -6 -7 -2 -4
-5 0 0 9 -6 -7 -2 -4
-5 1 -2 8 -6 -7 -2 -4
-5 1 -2 8 -6 -7 -2 -4
-5 1 -2 8 -6 -7 -2 -4
-5 1 -2 8 -6 -7 -2 -4
-5 1 -2 8 -6 -7 -2 -4
-4 0 -2 7 -6 -7 -3 -5
-4 0 -2 7 -6 -7 -3 -5
-4 0 -2 7 -6 -7 -3 -4
-4 0 -2 7 -6 -7 -3 -4
-4 0 -2 7 -6 -7 -3 -4
-4 1 0 7 -5 -7 -3 -3
-4 1 0 7 -5 -7 -3 -3
-4 0 0 7 -5 -7 -3 -3
-4 0 0 7 -5 -7 -3 -3
-4 0 0 7 -5 -7 -3 -3
-4 -2 0 7 -5 -7 -4 -3
-4 -2 0 7 -5 -7 -4 -3
-4 -2 0 7 -5 -7 -4 -3
-4 -2 0 7 -5 -7 -4 -3
-4 -2 0 7 -5 -7 -4 -3
-5 -2 1 7 -5 -7 -4 -3
-5 -2 1 7 -5 -7 -4 -3
-5 -2 1 7 -5 -6 -4 -3
-5 -2 1 7 -5 -6 -4 -3
-5 -2 1 7 -5 -6 -4 -3
-4 -2 0 7 -5 -5 -4 -4
-4 -2 0 7 -5 -5 -4 -4
-4 -2 0 7 -5 -4 -4 -4
-4 -2 0 7 -5 -4 -4 -4
-4 -2 0 7 -5 -4 -4 -4
-5 -2 0 6 -4 -3 -4 -4
-5 -2 0 6 -4 -3 -4 -4
-4 -2 0 6 -4 -3 -4 -3
-4 -2 0 6 -4 -3 -4 -3
-4 -2 0 6 -4 -3 -4 -3
-3 0 0 6 -4 -3 -4 -2
-3 0 0 6 -4 -3 -4 -2
-4 0 0 6 -4 -3 -4 0
-4 0 0 6 -4 -3 -4 1
-4 0 0 6 -4 -3 -4 1
-5 0 1 6 -4 -2 -3 2
-5 0 1 6 -4 -2 -3 2
-5 0 1 6 -4 -2 -3 1
-5 0 1 6 -4 -2 -3 1
-5 0 1 6 -4 -2 -3 1
-6 -2 1 7 -4 0 -3 0
-6 -2 1 7 -4 0 -3 0
-6 -2 1 7 -4 0 -3 0
-6 -2 1 7 -4 0 -3 0
-6 -2 1 7 -4 0 -3 0
-5 -2 1 7 -3 0 -2 1
-5 -2 1 7 -3 0 -2 1
-5 -2 1 7 -3 0 -2 1
-5 -2 1 7 -3 0 -2 1
-5 -2 1 7 -3 0 -2 1
-5 0 0 7 -3 -2 -2 0
-5 0 0 7 -3 -2 -2 0
-5 0 0 7 -3 -2 -2 0
-5 0 0 7 -3 -2 -2 0
-5 0 0 7 -3 -2 -2 0
-5 0 0 7 -2 0 -3 1
-5 0 0 7 -2 0 -3 1
-5 0 0 7 -2 0 -3 1
-5 0 0 7 -2 0 -3 1
-5 0 0 7 -2 0 -3 1
-4 0 1 7 -2 0 -2 0
-4 0 1 7 -2 0 -2 0
-4 0 1 7 -2 0 -2 0
-4 0 1 7 -2 0 -2 0
-4 0 1 7 -2 0 -2 0
-3 1 0 6 -2 0 -2 -2
-3 1 0 6 -2 0 -2 -2
-3 1 0 6 -2 0 -2 -2
-3 1 0 6 -2 1 -2 -2
-3 1 0 6 -2 1 -2 -2
-4 0 1 7 0 2 0 -2
-4 0 1 7 0 2 0 -2
-4 0 1 7 0 2 0 -2
-4 0 1 7 0 2 -2 -2
-4 0 1 7 0 2 -2 -2
-4 -2 1 6 0 2 -3 -2
-4 -2 1 6 0 2 -3 -2
-4 -2 1 6 0 2 -3 -2
-4 0 1 6 0 2 -3 -2
-4 0 1 6 0 2 -3 -2
-3 1 1 6 0 2 -2 -3
-3 1 1 6 0 2 -2 -3
-3 1 1 6 0 2 -2 -3
-3 1 1 6 0 3 -2 -3
-3 1 1 6 0 3 -2 -3
-4 1 1 6 0 4 0 -4
-4 1 1 6 0 4 0 -4
-4 1 1 6 0 4 0 -4
-4 1 1 6 1 4 0 -4
-4 1 1 6 1 4 0 -4
-4 0 2 7 2 4 0 -3
-4 0 2 7 2 4 0 -3
-4 0 2 7 2 4 0 -3
-4 0 2 7 2 4 0 -3
-4 0 2 7 2 4 0 -3
-3 0 2 6 2 4 1 -4
-3 0 2 6 2 4 1 -4
-3 0 2 6 2 4 1 -4
-3 0 2 6 2 4 1 -4
-3 0 2 6 2 4 1 -4
-4 0 2 7 2 4 2 -3
-4 0 2 7 2 4 2 -3
-4 0 2 7 2 4 2 -3
-4 0 2 7 2 4 2 -3
-4 0 2 7 2 4 2 -3
-4 0 1 6 2 3 2 -4
-4 0 1 6 2 3 2 -4
-4 0 1 6 2 3 2 -4
-3 0 1 6 3 3 2 -4
-3 0 1 6 3 3 2 -4
-2 0 2 7 4 4 1 -4
-2 0 2 7 4 4 1 -4
0 0 2 7 4 4 1 -4
1 1 2 7 4 5 1 -4
1 1 2 7 4 5 1 -4
2 2 1 7 4 6 1 -4
2 4 2 8 5 7 2 -3
2 6 3 9 6 8 3 -3
2 8 5 11 8 9 5 -2
2 10 6 12 9 10 6 0
2 11 7 13 10 11 7 1
2 11 7 13 10 11 7 1
2 11 8 13 11 12 7 1
2 11 9 14 12 13 8 2
2 11 9 14 12 13 8 2
3 12 10 15 13 14 9 3
4 12 10 16 13 14 9 3
4 12 10 16 14 14 9 3
5 12 9 17 15 14 10 4
6 12 9 18 15 14 10 4
7 11 8 19 16 15 11 5
7 11 7 19 16 15 11 5
8 12 6 18 16 15 11 5
9 13 4 17 16 16 11 6
9 13 3 17 16 16 11 6
10 14 2 16 15 17 11 7
10 14 1 15 15 17 11 7
10 14 1 14 15 17 11 7
10 14 0 13 15 17 11 7
10 14 -2 12 15 17 11 7
9 14 -3 11 15 16 12 6
9 12 -3 11 15 16 12 6
10 11 -3 11 15 16 12 6
11 9 -3 11 14 16 12 6
11 7 -3 11 14 16 12 6
12 6 -4 11 13 15 11 5
12 5 -4 11 12 14 10 5
12 5 -4 10 12 14 10 4
12 4 -5 9 11 13 9 3
12 3 -5 9 10 12 8 3
11 2 -6 8 9 11 7 2
10 2 -6 7 8 11 7 2
8 2 -6 7 8 11 7 1
7 2 -6 6 7 11 6 0
5 2 -6 5 6 11 6 0
4 2 -6 4 5 10 5 -2
2 2 -6 4 5 10 5 -3
0 1 -6 4 5 10 4 -3
-3 0 -5 4 5 10 3 -4
-4 0 -5 4 5 10 3 -5
-6 -2 -4 3 4 10 2 -6
-6 -2 -4 3 4 10 2 -6
-6 -2 -4 3 3 10 2 -6
-6 -3 -4 2 2 9 1 -7
-6 -3 -4 2 2 9 1 -7
-5 -4 -4 1 1 8 0 -8
-5 -4 -4 1 1 8 0 -8
-5 -4 -4 1 1 8 0 -8
-5 -4 -4 1 1 8 0 -8
-5 -4 -4 1 1 8 0 -8
-6 -5 -5 1 0 7 -2 -9
-6 -5 -5 1 0 7 -2 -9
-6 -5 -5 1 0 7 -2 -9
-6 -5 -5 1 0 7 -2 -9
-6 -5 -5 1 0 7 -2 -9
-7 -6 -4 0 0 7 0 -9
-7 -6 -4 1 0 7 0 -9
-7 -6 -4 1 0 7 0 -9
-7 -6 -4 2 1 8 0 -9
-7 -6 -4 3 1 8 0 -9
-7 -6 -3 4 2 9 1 -9
-7 -6 -2 4 2 9 1 -9
-7 -6 -2 5 2 9 0 -9
-8 -6 0 6 3 9 -2 -10
-8 -6 1 6 3 9 -2 -10
-9 -7 2 7 4 8 -3 -11
-10 -7 3 8 4 8 -3 -11
-11 -7 5 9 4 8 -3 -11
-12 -7 6 10 5 8 -3 -11
-13 -7 8 11 5 8 -3 -11
-14 -6 10 15 10 10 2 -10
-11 -2 14 26 21 19 10 -5
-9 3 18 36 32 28 19 1
-6 6 22 47 44 36 28 7
-4 10 26 57 56 46 36 12
7 15 26 66 69 56 50 21
30 23 18 72 87 68 68 35
53 31 9 78 104 79 88 50
75 38 0 85 121 92 106 65
99 47 -9 92 139 103 126 79
117 56 -22 87 148 111 140 93
131 68 -43 62 143 111 146 104
144 81 -64 37 138 111 152 115
157 94 -85 13 132 111 158 127
171 106 -105 -12 127 111 165 139
170 108 -118 -37 107 102 156 138
144 90 -119 -64 64 72 120 113
118 72 -121 -91 21 44 85 90
92 54 -122 -117 -22 14 49 65
66 35 -124 -144 -65 -16 13 42
45 21 -122 -161 -97 -37 -14 22
29 13 -115 -163 -107 -48 -27 11
14 4 -107 -165 -118 -58 -39 0
0 -6 -99 -168 -130 -68 -53 -12
-16 -14 -91 -170 -141 -77 -66 -23
-26 -20 -82 -165 -143 -82 -72 -31
-23 -19 -76 -147 -128 -75 -66 -29
-21 -17 -70 -128 -111 -68 -60 -28
-18 -16 -64 -109 -96 -62 -54 -26
-16 -14 -58 -91 -80 -55 -47 -25
-14 -13 -52 -75 -67 -48 -41 -23
-14 -13 -45 -64 -58 -43 -37 -22
-14 -12 -38 -54 -50 -36 -33 -22
-14 -11 -31 -44 -40 -30 -28 -21
-14 -11 -25 -32 -31 -24 -24 -20
-13 -10 -20 -24 -24 -20 -21 -19
-12 -10 -18 -21 -21 -18 -19 -18
-12 -10 -15 -17 -18 -16 -18 -18
-11 -10 -13 -14 -15 -14 -16 -17
-10 -10 -11 -11 -12 -12 -15 -16
-9 -11 -9 -8 -10 -10 -13 -15
-9 -11 -8 -7 -9 -9 -13 -15
-9 -11 -8 -6 -9 -8 -13 -15
-9 -12 -7 -5 -8 -7 -13 -16
-9 -12 -6 -4 -7 -6 -13 -16
-10 -13 -5 -3 -6 -5 -13 -17
-10 -13 -5 -3 -6 -4 -12 -17
-10 -13 -5 -3 -5 -3 -12 -17
-10 -13 -5 -3 -4 -2 -11 -16
-10 -13 -5 -3 -4 0 -10 -16
-9 -12 -4 -2 -3 1 -9 -15
-9 -12 -4 -2 -3 1 -9 -15
-9 -12 -4 0 -3 1 -9 -15
-9 -12 -3 1 -3 1 -9 -15
-9 -12 -3 1 -3 1 -9 -15
-8 -12 -2 2 -3 1 -8 -15
-8 -12 -2 2 -3 0 -8 -15
-8 -12 -2 2 -3 -2 -8 -15
-9 -12 -2 2 -3 -4 -8 -15
-9 -12 -2 2 -3 -5 -8 -15
-10 -12 -2 1 -2 -6 -8 -14
-10 -12 -2 2 -2 -8 -8 -14
-10 -12 0 2 -2 -9 -8 -14
-10 -12 1 3 -2 -11 -8 -14
-10 -12 1 4 -2 -12 -8 -14
-9 -12 2 5 -2 -14 -9 -13
-9 -12 2 5 -2 -15 -9 -13
-8 -12 2 5 -2 -16 -9 -13
-7 -11 2 4 -2 -18 -9 -12
-7 -11 2 4 -2 -19 -9 -12
-6 -10 1 3 -2 -20 -10 -11
-6 -10 1 3 -2 -20 -10 -11
-6 -10 1 4 -2 -20 -10 -11
-7 -11 1 4 0 -19 -10 -11
-7 -11 1 5 0 -19 -10 -11
-8 -12 2 6 1 -18 -11 -12
-8 -12 2 6 1 -17 -11 -12
-8 -11 2 6 1 -17 -11 -12
-7 -11 2 6 1 -16 -11 -13
-7 -10 2 6 1 -15 -11 -13
-6 -9 1 6 2 -14 -12 -14
-6 -9 1 6 2 -13 -12 -14
-6 -9 1 6 2 -11 -12 -14
-6 -9 2 7 2 -10 -12 -14
-6 -9 2 7 2 -8 -12 -14
-6 -10 3 8 3 -7 -13 -15
-6 -10 3 8 3 -7 -13 -14
-6 -10 3 8 3 -7 -13 -14
-5 -10 3 8 3 -7 -12 -13
-5 -10 3 8 3 -7 -12 -12
-4 -9 2 8 4 -6 -11 -11
-4 -9 2 8 4 -7 -11 -10
-4 -9 2 8 4 -8 -11 -9
-4 -9 3 8 4 -9 -11 -8
-4 -9 3 8 4 -10 -11 -7
-5 -10 4 8 4 -11 -11 -6
-5 -10 4 8 4 -13 -11 -6
-5 -10 4 8 4 -14 -11 -6
-5 -10 4 8 4 -16 -10 -5
-5 -10 4 8 4 -17 -10 -5
-5 -9 3 8 4 -19 -9 -4
-5 -9 3 8 4 -20 -9 -4
-5 -9 3 8 4 -20 -9 -4
-4 -9 3 9 4 -21 -9 -4
-4 -9 3 9 4 -22 -9 -4
-3 -10 4 10 4 -23 -9 -3
-3 -10 4 10 4 -23 -9 -3
-3 -10 4 10 4 -23 -9 -3
-3 -10 3 10 4 -23 -8 -4
-3 -10 3 10 4 -23 -8 -4
-3 -9 2 9 5 -23 -7 -5
-3 -9 2 9 5 -22 -7 -5
-3 -9 2 9 5 -21 -7 -5
-3 -9 2 9 5 -20 -7 -6
-3 -9 2 9 5 -18 -7 -6
-2 -10 3 10 6 -17 -8 -7
-2 -10 3 10 6 -16 -8 -7
-2 -10 3 10 6 -15 -8 -7
0 -10 3 10 6 -14 -8 -7
0 -10 3 10 6 -12 -8 -7
1 -9 2 11 7 -11 -8 -7
1 -9 2 11 7 -11 -8 -7
1 -9 2 11 7 -11 -8 -7
1 -9 2 11 7 -11 -8 -6
1 -9 2 11 7 -11 -8 -6
2 -9 1 10 8 -10 -9 -5
3 -9 1 10 8 -10 -9 -5
3 -8 1 10 8 -10 -9 -4
4 -8 1 10 8 -10 -8 -4
5 -7 1 10 8 -10 -8 -3
6 -6 0 10 9 -9 -7 -2
6 -6 0 10 9 -9 -7 -2
7 -6 0 10 9 -9 -7 -2
7 -6 0 11 9 -9 -7 -2
8 -6 0 11 9 -9 -7 -2
9 -5 -2 12 9 -9 -6 0
9 -4 -2 12 9 -9 -5 0
9 -4 -3 12 9 -9 -4 0
10 -3 -3 11 9 -9 -3 1
10 -2 -4 11 9 -9 -2 1
11 0 -5 10 10 -9 0 2
11 0 -5 10 10 -9 1 2
12 0 -5 10 10 -8 1 2
12 1 -6 10 10 -8 2 2
13 1 -6 10 10 -7 3 2
14 2 -7 10 10 -6 4 2
15 3 -8 10 10 -6 4 2
16 4 -8 10 10 -6 4 2
17 5 -9 9 10 -6 5 2
18 6 -10 9 10 -6 5 2
19 7 -11 8 10 -5 6 3
20 8 -11 8 10 -5 6 4
20 8 -12 7 10 -5 6 5
21 9 -12 7 10 -4 6 6
22 10 -13 6 10 -4 6 7
23 11 -14 5 10 -3 7 8
23 11 -14 5 10 -3 7 9
24 12 -14 5 10 -3 8 10
24 12 -14 5 10 -3 8 11
25 13 -14 5 10 -3 9 12
26 14 -15 4 11 -3 10 13
27 15 -15 4 11 -3 10 13
27 15 -15 4 11 -3 10 14
28 16 -15 4 11 -3 10 14
29 17 -15 4 11 -3 10 15
30 18 -16 3 10 -3 10 16
30 18 -16 3 10 -3 10 17
30 18 -16 3 10 -3 10 17
30 19 -17 3 10 -3 10 18
30 19 -17 3 10 -3 10 19
30 20 -18 2 11 -3 11 20
30 20 -18 2 11 -3 11 20
30 20 -17 3 12 -3 11 20
30 20 -17 3 12 -4 11 20
30 20 -16 4 13 -4 11 20
30 21 -15 5 14 -5 11 19
30 21 -14 6 15 -5 11 19
30 21 -14 6 15 -5 12 19
30 21 -13 7 16 -5 12 19
30 21 -12 8 17 -5 13 19
29 22 -11 9 18 -5 14 19
28 22 -9 11 19 -5 14 19
26 21 -7 13 21 -4 14 19
25 21 -5 14 22 -3 15 19
24 20 -3 16 23 -2 15 19
22 19 0 18 25 0 16 19
20 19 1 18 25 0 16 19
18 18 3 19 26 1 17 19
17 17 4 20 26 1 17 18
15 16 5 21 27 2 18 18
13 15 7 22 28 3 19 17
12 14 7 22 28 3 19 16
11 13 8 22 28 3 18 15
10 12 8 22 28 4 18 14
8 11 9 22 28 4 17 12
7 10 10 23 28 5 16 11
6 10 10 23 27 5 16 11
5 9 11 23 26 5 16 10
4 8 11 22 25 5 15 9
2 7 12 22 24 5 15 8
1 6 13 21 23 4 14 7
1 6 13 21 23 4 14 7
1 5 13 21 22 4 13 6
0 4 13 20 21 4 13 5
0 3 13 20 20 4 12 4
-2 2 13 19 19 4 11 3
-2 2 13 18 19 4 11 3
-2 1 13 17 18 4 10 3
-2 1 13 16 18 3 10 2
-2 0 13 14 17 3 9 2
-3 -2 12 13 16 2 8 1
-3 -2 12 13 16 2 8 1
-3 -3 12 13 15 2 7 0
-3 -3 11 13 15 2 7 0
-3 -4 11 13 14 2 6 -2
-4 -5 10 12 13 1 5 -3
-4 -5 10 11 13 1 5 -3
-4 -5 10 10 12 1 5 -3
-4 -5 10 9 11 0 4 -3
-4 -5 10 8 10 0 4 -3
-4 -6 9 7 9 -2 3 -3
-4 -6 9 7 9 -2 3 -3
-4 -6 9 7 9 -3 2 -3
-4 -6 9 7 8 -3 2 -3
-4 -6 9 7 8 -4 1 -3
-4 -7 9 7 7 -5 0 -4
-4 -7 9 7 7 -5 0 -4
-4 -7 9 7 7 -6 0 -4
-4 -7 9 6 7 -7 0 -4
-4 -7 9 6 7 -8 0 -4
-4 -7 9 5 6 -9 -2 -5
-4 -7 9 5 6 -10 -2 -5
-4 -7 9 5 6 -11 -3 -5
-5 -7 9 5 5 -12 -3 -5
-5 -7 9 5 5 -13 -4 -5
-6 -8 8 6 4 -14 -5 -6
-6 -8 8 6 4 -14 -5 -6
-6 -8 8 6 4 -14 -5 -6
-6 -8 8 5 4 -14 -5 -6
-6 -8 8 5 4 -14 -5 -6
-7 -8 8 4 4 -14 -6 -5
-7 -8 8 4 4 -13 -6 -5
-7 -8 8 4 4 -11 -6 -5
-7 -8 8 5 4 -10 -5 -5
-7 -8 8 5 4 -9 -5 -5
-7 -8 9 6 4 -7 -4 -6
-7 -8 9 6 4 -7 -4 -6
-7 -8 9 6 4 -6 -4 -6
-7 -8 9 5 4 -6 -4 -6
-7 -8 9 5 4 -5 -4 -6
-7 -8 9 4 4 -4 -3 -7
-7 -8 9 4 4 -4 -3 -7
-7 -7 9 4 4 -3 -2 -7
-7 -7 9 4 4 -3 -2 -7
-7 -6 9 4 4 -2 0 -7
-6 -5 9 5 3 0 1 -7
-6 -5 9 5 3 0 1 -7
-5 -5 9 5 3 0 1 -6
-5 -4 9 5 3 -2 2 -6
-4 -4 9 5 3 -2 2 -5
-3 -3 8 4 3 -3 3 -4
-3 -3 8 4 3 -3 3 -4
-3 -3 8 4 3 -4 3 -4
-3 -3 8 5 3 -5 4 -3
-3 -3 8 5 3 -6 4 -3
-3 -2 9 6 4 -7 5 -2
-3 -2 9 6 4 -7 5 -2
-3 -2 9 6 4 -7 5 -2
-4 -2 9 6 4 -7 5 -2
-4 -2 9 6 4 -7 5 -2
-5 -2 10 5 4 -8 4 0
-5 -2 10 5 4 -8 4 0
-5 -2 10 5 4 -8 4 0
-5 -2 10 5 4 -7 4 0
-5 -2 10 5 4 -7 4 0
-4 -3 9 4 4 -6 3 -2
-4 -3 9 4 4 -5 3 -2
-4 -3 9 4 4 -4 3 -2
-4 -3 9 4 4 -3 3 -2
-4 -3 9 4 4 -2 3 -2
-4 -3 9 4 5 0 2 -2
-4 -3 9 4 5 1 2 -2
-4 -3 9 4 5 2 1 -2
-4 -4 9 4 5 3 1 -2
-4 -4 9 4 5 4 0 -2
-5 -5 8 4 4 6 -2 -3
-5 -5 8 4 4 6 -2 -3
-5 -5 8 4 4 6 -2 -3
-5 -5 8 4 4 6 -3 -3
-5 -5 8 4 4 6 -3 -3
-5 -4 8 3 3 5 -4 -4
-5 -4 8 3 3 5 -4 -4
-5 -4 8 3 3 5 -4 -4
-6 -4 8 3 3 5 -4 -4
-6 -4 8 3 3 5 -4 -4
-7 -5 8 2 2 4 -5 -4
-7 -5 8 2 2 3 -5 -4
-7 -5 8 2 2 2 -5 -4
-7 -6 8 2 2 1 -4 -4
-7 -6 8 2 2 0 -4 -4
-7 -7 8 1 1 -2 -3 -4
-7 -7 8 1 1 -2 -3 -4
-7 -7 8 1 1 -2 -3 -4
-7 -7 8 1 1 -3 -3 -4
-7 -7 8 1 1 -3 -3 -4
-8 -7 7 0 0 -4 -3 -5
-8 -7 7 0 0 -4 -3 -5
-8 -7 7 0 0 -5 -3 -5
-8 -7 7 -2 -2 -5 -3 -6
-8 -7 7 -2 -2 -6 -3 -6
-7 -8 6 -3 -3 -7 -3 -7
-7 -8 6 -3 -3 -7 -3 -7
-7 -8 6 -3 -3 -7 -3 -7
-7 -8 6 -3 -3 -7 -3 -7
-7 -8 6 -3 -3 -7 -3 -7
-7 -9 6 -2 -3 -6 -4 -7
-7 -9 6 -2 -3 -6 -4 -7
-7 -9 6 -2 -3 -6 -4 -7
-7 -8 6 -3 -3 -5 -3 -7
-7 -8 6 -3 -3 -5 -3 -7
-8 -7 6 -4 -3 -4 -2 -7
-8 -7 6 -4 -3 -4 -2 -7
-8 -7 6 -4 -3 -4 -2 -7
-8 -8 6 -4 -3 -3 -2 -8
-8 -8 6 -4 -3 -3 -2 -8
-8 -9 5 -4 -4 -2 -3 -9
-8 -9 5 -4 -4 -2 -3 -9
-8 -9 5 -4 -4 0 -3 -9
-8 -9 5 -4 -4 0 -3 -9
-8 -9 5 -4 -4 1 -3 -9
-8 -8 5 -5 -4 2 -4 -9
-8 -8 5 -5 -4 2 -4 -9
-8 -8 5 -5 -4 2 -4 -9
-9 -9 5 -5 -4 2 -4 -9
-9 -9 5 -5 -4 2 -4 -9
-10 -10 5 -5 -5 1 -5 -8
-10 -10 5 -5 -5 1 -5 -8
-10 -10 5 -5 -5 1 -5 -8
-10 -10 5 -6 -5 1 -5 -8
-10 -10 5 -6 -5 1 -5 -8
-10 -9 5 -7 -6 0 -5 -7
-10 -9 5 -7 -6 0 -5 -7
-10 -9 5 -7 -6 -2 -5 -7
-10 -9 4 -7 -6 -2 -5 -7
-10 -9 4 -7 -6 -3 -5 -7
-11 -10 3 -7 -6 -4 -5 -7
-11 -10 3 -7 -6 -4 -5 -7
-11 -10 3 -7 -6 -4 -5 -7
-11 -10 3 -7 -6 -4 -5 -7
-11 -10 3 -7 -6 -4 -5 -7
-11 -9 4 -7 -7 -5 -5 -8
-11 -9 4 -7 -7 -5 -5 -8
-11 -9 4 -7 -7 -5 -5 -8
-11 -10 4 -8 -8 -5 -6 -8
-11 -10 4 -8 -8 -5 -6 -8
-11 -11 3 -9 -9 -6 -7 -9
-11 -11 3 -9 -9 -6 -7 -9
-11 -11 3 -9 -9 -6 -7 -9
-11 -11 3 -9 -9 -5 -7 -9
-11 -11 3 -9 -9 -5 -7 -9
-11 -10 3 -9 -9 -4 -8 -9
-11 -10 3 -9 -9 -4 -8 -9
-11 -10 3 -9 -9 -4 -8 -9
-10 -10 3 -9 -9 -3 -8 -9
-10 -10 3 -9 -9 -3 -8 -9
-9 -11 3 -9 -9 -2 -7 -10
-9 -11 3 -9 -9 -2 -7 -10
-10 -11 3 -9 -9 -2 -7 -10
-10 -11 3 -9 -9 -2 -7 -10
-11 -11 3 -9 -9 -2 -7 -10
-12 -10 3 -10 -10 0 -7 -10
-12 -10 3 -10 -10 0 -7 -10
-12 -10 3 -10 -10 0 -7 -10
-12 -10 3 -9 -10 0 -7 -10
-12 -10 3 -9 -10 0 -7 -10
-11 -11 2 -8 -9 1 -6 -9
-11 -11 2 -8 -9 1 -6 -9
-11 -11 2 -8 -9 1 -6 -9
-11 -11 2 -9 -9 1 -6 -9
-11 -11 2 -9 -9 1 -6 -9
-12 -11 1 -10 -10 0 -6 -10
-12 -11 1 -10 -10 0 -6 -10
-12 -11 1 -10 -10 0 -6 -10
-12 -11 1 -10 -10 0 -6 -10
-12 -11 1 -10 -10 0 -6 -10
-12 -12 2 -9 -11 -2 -7 -10
-12 -12 2 -9 -11 -2 -7 -10
-12 -12 2 -9 -11 -2 -7 -10
-12 -11 2 -9 -11 -2 -7 -10
-12 -11 2 -9 -11 -2 -7 -10
-11 -10 1 -10 -11 -3 -7 -10
-11 -10 1 -10 -11 -3 -7 -10
-11 -10 1 -10 -11 -2 -7 -10
-11 -10 1 -10 -11 0 -6 -10
-11 -10 1 -10 -11 1 -6 -10
-11 -9 0 -9 -11 2 -5 -10
-11 -9 0 -9 -11 2 -5 -10
-11 -9 0 -9 -11 2 -5 -10
-11 -9 0 -9 -11 2 -5 -10
-11 -9 0 -9 -11 2 -5 -10
-12 -10 1 -10 -10 3 -5 -9
-12 -10 1 -10 -10 3 -5 -9
-12 -10 1 -10 -10 3 -5 -9
-12 -10 1 -10 -10 4 -5 -9
-12 -10 1 -10 -10 4 -5 -9
-11 -10 1 -9 -10 5 -5 -8
-11 -10 1 -9 -10 5 -5 -8
-11 -10 1 -9 -10 5 -5 -8
-11 -10 1 -9 -10 5 -5 -8
-11 -10 1 -9 -10 5 -5 -8
-12 -9 1 -9 -9 5 -5 -9
-12 -9 1 -9 -9 5 -5 -9
-12 -9 1 -9 -9 5 -5 -9
-12 -9 1 -8 -9 5 -5 -9
-12 -9 1 -8 -9 5 -5 -9
-11 -9 1 -7 -8 5 -5 -10
-11 -9 1 -7 -8 5 -5 -10
-11 -9 1 -7 -8 5 -5 -10
-11 -9 1 -7 -8 5 -5 -9
-11 -9 1 -7 -8 5 -5 -9
-11 -8 2 -8 -8 5 -5 -8
-11 -8 2 -8 -8 5 -5 -8
-11 -8 2 -8 -8 5 -5 -8
-11 -8 2 -7 -8 5 -5 -8
-11 -8 2 -7 -8 5 -5 -8
-11 -9 3 -6 -8 5 -6 -9
-11 -9 3 -6 -8 5 -6 -9
-11 -9 3 -6 -8 5 -6 -9
-11 -8 2 -6 -8 5 -6 -9
-11 -8 2 -6 -8 5 -6 -9
-10 -7 1 -7 -9 5 -5 -9
-10 -7 1 -7 -9 5 -5 -9
-10 -7 1 -7 -9 5 -5 -9
-10 -7 2 -7 -9 5 -5 -9
-10 -7 2 -7 -9 5 -5 -9
-10 -8 3 -6 -9 4 -5 -9
-10 -8 3 -6 -9 4 -5 -9
-10 -8 3 -6 -8 4 -5 -9
-10 -8 3 -6 -8 4 -5 -8
-10 -8 3 -6 -7 4 -5 -8
-9 -7 2 -6 -6 4 -4 -7
-9 -7 2 -6 -6 4 -4 -7
-9 -7 2 -6 -6 4 -4 -7
-9 -7 2 -6 -6 4 -4 -7
-9 -7 2 -6 -6 4 -4 -7
-10 -6 2 -5 -7 3 -3 -8
-10 -6 2 -5 -7 3 -3 -8
-10 -6 2 -5 -7 3 -3 -8
-10 -5 2 -5 -6 3 -3 -8
-10 -5 2 -5 -6 3 -3 -8
-9 -4 3 -4 -5 3 -3 -8
-9 -4 3 -4 -5 3 -3 -8
-9 -4 3 -4 -5 3 -3 -8
-9 -5 3 -4 -5 3 -3 -8
-9 -5 3 -4 -5 3 -3 -8
-8 -6 4 -4 -6 3 -3 -7
-8 -6 4 -4 -6 3 -3 -7
-7 -6 4 -4 -6 3 -3 -7
-7 -6 3 -4 -6 2 -3 -7
-6 -6 3 -4 -6 2 -3 -7
-5 -6 2 -4 -7 1 -3 -8
-5 -5 3 -3 -6 2 -2 -7
-5 -4 5 0 -4 3 0 -6
-5 -3 7 2 -2 4 1 -4
-5 -2 9 4 1 5 2 -3
-4 1 11 6 3 7 3 0
-4 2 11 6 3 7 3 0
-4 3 11 6 3 7 3 1
-4 4 11 6 3 7 4 1
-4 5 11 6 3 7 4 2
-3 6 12 7 4 8 5 3
-3 6 12 7 4 8 5 3
-3 6 12 8 5 9 5 3
-2 6 12 9 5 9 6 3
-2 6 12 10 6 10 6 3
0 5 13 11 7 11 7 3
0 5 12 11 7 11 7 3
1 5 11 11 7 11 7 3
1 6 10 11 8 11 7 4
2 6 9 11 8 11 7 4
3 7 8 10 9 11 7 5
3 7 7 10 9 11 7 5
3 7 6 9 8 11 7 5
3 7 5 8 8 11 7 5
3 7 4 7 7 11 7 5
3 8 2 6 6 10 8 5
4 7 2 6 6 9 8 5
5 6 1 5 6 8 7 5
7 4 1 5 5 7 6 4
8 3 0 4 5 6 5 4
9 2 0 4 5 5 5 4
10 1 -2 3 3 4 4 3
10 1 -2 2 2 3 3 2
10 0 -2 1 1 2 3 1
10 0 -2 0 0 1 2 0
10 0 -2 0 -2 0 2 0
7 -2 -3 -2 -3 -2 1 -2
5 -2 -2 -2 -3 -2 1 -2
2 -3 -2 -3 -4 -3 0 -2
0 -3 0 -3 -4 -3 0 -2
-3 -3 0 -3 -4 -3 0 -2
-4 -4 1 -4 -5 -4 -2 -3
-5 -5 1 -4 -5 -4 -3 -4
-6 -6 2 -4 -5 -4 -3 -5
-7 -7 2 -4 -5 -4 -4 -6
-8 -8 2 -4 -5 -4 -4 -6
-9 -9 3 -5 -6 -4 -5 -7
-9 -9 3 -5 -6 -4 -6 -8
-10 -9 3 -6 -7 -4 -6 -8
-10 -9 3 -6 -7 -4 -7 -9
-10 -9 3 -6 -7 -4 -7 -9
-11 -10 2 -7 -8 -4 -8 -10
-11 -10 2 -7 -8 -4 -8 -10
-11 -10 2 -7 -8 -4 -8 -10
-11 -10 2 -7 -8 -4 -8 -10
-11 -10 2 -7 -8 -4 -8 -10
-10 -9 2 -7 -9 -3 -8 -9
-10 -9 2 -7 -9 -3 -8 -9
-10 -9 2 -7 -9 -3 -8 -9
-10 -9 2 -7 -9 -3 -8 -9
-10 -9 2 -7 -9 -3 -8 -9
-10 -9 2 -7 -8 -2 -7 -8
-10 -9 2 -7 -8 -2 -7 -8
-10 -8 3 -7 -8 0 -7 -8
-10 -8 3 -7 -8 0 -7 -8
-10 -8 3 -7 -8 0 -7 -8
-10 -7 4 -6 -7 1 -6 -9
-11 -7 5 -6 -7 1 -6 -9
-11 -8 5 -5 -7 1 -6 -10
-12 -8 6 -5 -7 1 -6 -10
-12 -8 6 -5 -7 1 -6 -10
-13 -9 8 -3 -6 2 -7 -11
-14 -9 9 0 -5 3 -6 -11
-14 -9 11 2 -3 5 -6 -11
-15 -9 12 4 -2 6 -5 -11
-15 -9 13 5 0 7 -5 -11
-14 -7 16 14 10 15 4 -7
-11 -3 19 23 20 22 12 -2
-8 1 22 32 30 29 20 4
-5 5 25 40 39 37 27 9
-3 8 28 50 50 45 35 14
20 16 21 57 67 57 55 28
43 23 13 64 86 69 74 44
66 31 5 71 103 81 94 59
89 39 -5 78 120 94 113 73
111 47 -13 86 139 106 134 89
125 59 -31 64 135 107 141 100
136 71 -50 39 129 107 147 112
148 85 -69 15 122 107 153 123
159 97 -88 -10 117 107 160 136
172 109 -107 -33 111 107 167 147
147 95 -108 -58 72 84 135 126
119 79 -107 -82 31 56 100 102
92 63 -107 -106 -10 29 65 78
64 47 -106 -131 -51 3 29 55
36 30 -106 -154 -91 -24 -6 31
21 22 -99 -159 -104 -35 -20 18
6 14 -92 -162 -116 -46 -33 6
-9 6 -85 -165 -128 -56 -47 -7
-23 -3 -77 -169 -139 -66 -60 -19
-38 -11 -70 -172 -151 -76 -73 -31
-37 -12 -65 -157 -140 -73 -71 -32
-34 -12 -61 -141 -127 -68 -66 -31
-32 -13 -57 -124 -113 -63 -62 -31
-29 -13 -52 -108 -99 -59 -58 -30
-27 -13 -48 -91 -86 -54 -54 -30
-25 -13 -41 -80 -76 -48 -49 -28
-23 -12 -34 -69 -67 -41 -43 -26
-21 -10 -28 -59 -57 -35 -37 -24
-19 -9 -22 -49 -48 -29 -32 -22
-17 -8 -16 -37 -38 -23 -27 -20
-16 -7 -13 -33 -34 -20 -25 -19
-15 -8 -11 -29 -31 -17 -23 -19
-14 -8 -9 -25 -28 -14 -22 -18
-13 -9 -7 -21 -24 -11 -20 -18
-13 -9 -5 -17 -21 -8 -19 -18
-12 -10 -4 -15 -19 -6 -18 -17
-12 -10 -3 -14 -18 -4 -17 -17
-12 -11 -3 -12 -16 -3 -16 -18
-12 -11 -2 -11 -15 0 -15 -18
-12 -11 -2 -10 -14 1 -14 -18
-12 -12 0 -9 -13 3 -13 -19
-12 -12 1 -9 -12 5 -12 -19
-12 -12 1 -8 -12 6 -11 -19
-12 -12 2 -8 -11 8 -10 -19
-12 -12 2 -8 -11 9 -9 -19
-13 -11 3 -7 -10 10 -8 -18
-13 -11 3 -7 -10 9 -8 -18
-13 -12 3 -6 -10 8 -8 -18
-13 -12 3 -6 -10 7 -8 -18
-13 -12 3 -6 -10 6 -8 -18
-12 -13 3 -5 -9 4 -9 -17
-12 -12 3 -5 -9 3 -9 -16
-11 -12 3 -5 -9 2 -9 -15
-11 -11 3 -5 -9 1 -9 -14
-11 -11 3 -5 -9 0 -9 -14
-10 -10 4 -5 -9 -3 -9 -13
-10 -10 4 -5 -9 -5 -9 -13
-10 -10 4 -4 -9 -7 -9 -13
-10 -10 4 -4 -9 -9 -9 -13
-10 -10 4 -4 -9 -10 -9 -13
-11 -11 4 -3 -9 -11 -10 -13
-11 -11 4 -3 -9 -12 -10 -13
-10 -11 4 -3 -9 -13 -10 -13
-10 -11 4 -3 -9 -14 -10 -13
-10 -11 4 -3 -9 -14 -10 -13
-9 -11 5 -2 -8 -15 -10 -12
-9 -11 5 0 -8 -15 -10 -13
-9 -12 5 1 -8 -15 -11 -14
-9 -12 5 2 -8 -15 -11 -15
-9 -12 5 2 -8 -15 -11 -15
-9 -13 4 3 -8 -12 -12 -16
-9 -12 4 3 -7 -10 -12 -16
-8 -12 4 3 -7 -8 -12 -16
-8 -11 4 3 -6 -5 -12 -16
-8 -11 4 3 -6 -3 -12 -16
-7 -10 5 3 -5 0 -12 -17
-7 -10 5 4 -5 2 -12 -17
-7 -10 6 4 -4 4 -12 -17
-7 -10 6 5 -4 6 -12 -17
-7 -10 6 5 -4 8 -12 -17
-7 -11 7 6 -3 9 -11 -17
-7 -11 7 6 -3 10 -11 -17
-6 -11 7 6 -2 10 -11 -17
-6 -11 7 6 -2 11 -11 -17
-6 -11 7 6 -2 11 -11 -17
-5 -10 6 6 0 11 -10 -16
-5 -10 6 6 0 10 -10 -15
-5 -10 5 6 0 8 -10 -14
-5 -10 5 6 0 7 -10 -13
-5 -10 5 6 0 6 -10 -13
-5 -11 4 6 -2 5 -9 -12
-5 -11 4 6 0 4 -8 -11
-4 -10 4 6 0 3 -7 -10
-4 -10 4 6 1 2 -6 -9
-4 -10 4 6 1 2 -5 -9
-3 -9 5 6 2 1 -4 -8
-3 -9 5 7 2 0 -4 -8
-3 -9 5 8 2 -2 -4 -8
-3 -9 5 9 2 -3 -4 -8
-3 -9 5 9 2 -3 -4 -8
-3 -9 5 10 2 -4 -5 -9
-3 -9 5 10 2 -3 -5 -9
-3 -9 5 9 2 -2 -4 -9
-3 -9 5 9 2 0 -4 -9
-3 -9 5 9 2 0 -4 -9
-3 -9 4 8 2 2 -3 -8
-3 -9 4 9 2 4 -3 -8
-2 -9 4 9 3 6 -3 -8
-2 -9 4 10 3 7 -3 -8
-2 -9 4 10 3 9 -3 -8
0 -9 3 11 4 11 -4 -8
0 -9 3 11 4 12 -4 -8
0 -9 3 11 5 14 -4 -8
0 -9 3 11 5 16 -4 -8
0 -9 3 11 5 17 -4 -8
1 -8 3 11 6 18 -3 -8
1 -8 3 12 6 19 -3 -8
2 -7 3 12 7 20 -3 -8
2 -7 3 13 7 21 -3 -8
2 -7 3 13 7 22 -3 -8
3 -6 3 14 8 23 -3 -9
3 -5 2 13 8 23 -2 -9
4 -4 1 13 8 23 0 -9
4 -3 0 12 8 23 1 -9
4 -3 0 12 8 23 1 -9
5 -2 -2 11 8 23 2 -10
6 -2 -2 11 8 22 2 -10
7 0 -2 11 8 21 3 -11
8 0 -2 11 8 20 3 -11
9 0 -2 11 8 20 3 -11
10 1 -3 11 9 19 4 -11
11 1 -3 11 9 19 4 -10
12 2 -4 11 10 19 5 -9
13 2 -4 11 10 19 5 -7
13 2 -4 11 10 19 5 -6
14 3 -5 12 11 20 6 -5
15 4 -6 12 11 20 7 -4
15 4 -6 12 11 21 7 -3
16 5 -7 12 11 21 8 -2
16 5 -7 12 11 21 8 0
17 6 -8 11 12 22 9 1
18 7 -8 11 12 22 9 2
18 8 -9 11 12 22 9 2
19 9 -9 11 12 22 9 3
19 9 -9 11 12 22 9 3
21 10 -10 11 13 21 8 4
22 11 -11 11 13 21 8 5
23 11 -12 10 12 21 8 6
24 12 -13 10 12 21 8 7
25 12 -14 10 12 21 8 7
26 14 -15 9 11 20 9 8
27 15 -16 9 11 20 9 9
28 16 -16 8 11 20 9 10
29 17 -17 8 11 20 9 11
30 18 -17 8 11 20 9 11
31 19 -18 7 12 21 9 12
31 19 -18 7 12 21 9 13
31 20 -18 7 13 20 10 14
31 20 -18 7 13 20 10 15
31 20 -18 7 13 20 10 15
32 21 -18 7 14 19 11 16
32 21 -18 7 14 19 11 16
32 22 -19 6 14 18 11 16
32 22 -19 6 14 18 11 16
32 22 -19 6 14 18 11 16
32 23 -20 5 14 17 12 16
32 24 -20 5 14 17 12 16
33 24 -20 6 14 17 12 16
33 25 -20 6 14 17 12 16
33 25 -20 6 14 17 12 16
34 26 -19 7 14 16 13 16
33 26 -17 8 16 17 14 16
33 26 -16 9 17 18 15 17
32 26 -15 10 18 19 16 17
32 26 -14 10 19 19 17 17
31 26 -12 12 20 20 18 18
29 26 -10 13 21 21 18 18
28 26 -8 14 22 22 18 17
27 26 -7 16 23 23 18 17
26 26 -5 17 24 24 18 17
24 25 -3 18 25 26 19 16
22 24 -2 19 26 27 20 16
20 23 1 20 27 28 21 16
19 22 3 21 28 30 22 16
17 21 4 22 28 31 22 16
15 20 5 23 29 32 23 16
14 19 6 23 29 33 23 15
12 18 7 24 29 34 23 14
10 17 8 24 29 35 23 13
9 16 9 24 29 35 23 12
8 15 10 25 29 36 22 11
7 14 11 24 29 37 22 11
6 13 11 24 28 37 21 10
5 12 12 23 28 38 21 10
5 12 12 23 28 38 21 10
4 11 13 22 27 39 20 9
3 10 13 22 26 40 19 8
2 10 13 21 25 40 18 7
1 9 13 21 24 42 17 6
1 9 13 21 23 42 16 5
0 8 13 20 22 43 15 4
0 7 13 19 22 43 15 4
0 7 13 19 21 43 14 4
0 6 13 18 21 43 14 4
0 6 13 18 21 43 14 4
-2 5 12 17 20 43 13 3
-2 5 12 17 19 43 13 2
-2 4 12 16 18 43 12 2
-2 4 12 16 17 43 12 1
-2 4 12 16 17 43 12 1
0 3 13 15 16 43 11 0
0 2 13 15 16 43 11 0
0 2 13 15 15 44 10 0
0 1 13 15 15 44 10 0
0 1 13 15 15 44 10 0
-2 0 12 14 14 45 9 1
-3 0 12 14 13 43 8 1
-3 0 12 14 13 42 8 1
-4 0 12 14 12 40 7 1
-4 0 12 14 12 39 7 1
-5 -2 12 14 11 37 6 0
-5 -2 12 14 11 36 5 0
-5 -2 12 14 11 34 4 0
-5 -2 12 14 11 32 3 0
-5 -2 12 14 11 31 3 0
-4 -2 13 13 11 29 2 0
-4 -2 13 13 11 28 2 0
-4 -2 13 13 11 27 2 0
-4 -2 13 13 11 25 2 0
-4 -2 13 13 11 24 2 0
-4 -3 13 14 11 23 3 -2
-4 -2 13 14 11 23 4 -2
-4 -2 13 13 10 23 5 -2
-4 0 13 13 10 23 6 -2
-4 0 13 13 10 23 6 -2
-4 1 13 12 9 22 7 -2
-4 1 13 12 9 23 7 -2
-4 1 13 13 10 23 7 -3
-4 1 13 13 10 24 7 -3
-4 1 13 13 10 24 7 -3
-5 1 13 14 11 26 6 -4
-5 1 13 14 11 27 6 -4
-5 1 13 14 11 28 6 -4
-5 1 13 14 11 30 6 -4
-5 1 13 14 11 31 6 -4
-4 2 13 14 11 32 7 -5
-4 2 13 14 11 34 8 -5
-4 2 13 15 12 35 8 -4
-4 2 13 15 12 36 9 -4
-4 2 13 15 12 37 9 -4
-4 1 13 16 13 38 10 -3
-4 1 13 16 13 38 10 -2
-4 2 13 15 13 38 10 0
-4 2 13 15 13 38 10 1
-4 2 13 15 13 38 10 1
-3 3 14 14 12 37 10 2
-3 3 14 14 12 36 10 2
-3 3 14 15 12 34 10 2
-3 3 14 15 12 32 10 2
-3 3 14 15 12 31 10 2
-3 3 14 16 12 30 9 2
-3 3 14 16 12 29 9 2
-3 3 14 15 12 28 9 2
-3 3 14 15 12 27 9 2
-3 3 14 15 12 26 9 2
-2 4 13 14 12 25 8 2
0 4 13 14 12 25 8 3
1 4 13 14 13 24 8 3
1 4 13 14 13 24 8 4
2 4 13 14 13 24 8 4
3 5 13 14 14 23 8 5
3 5 13 14 14 24 8 5
3 5 13 14 14 24 8 5
3 5 13 14 14 25 8 5
3 5 13 14 14 25 8 5
2 5 12 13 13 26 8 4
1 5 12 13 13 27 8 4
1 5 12 13 13 27 8 4
0 5 12 13 13 28 8 4
0 5 12 13 13 28 8 4
-2 4 12 14 13 29 7 3
-2 4 12 14 13 29 7 3
-2 4 13 14 13 29 7 3
-2 4 13 14 13 29 7 3
-2 4 13 14 13 29 7 3
0 4 14 13 13 29 7 4
0 4 14 13 13 28 7 4
0 4 14 13 13 28 7 4
0 4 14 13 13 27 7 4
0 4 14 13 13 27 7 4
0 3 13 13 12 26 7 5
0 3 13 13 12 25 7 5
0 3 13 13 12 24 7 5
0 3 13 13 12 24 7 5
0 3 13 13 12 23 7 5
-2 3 13 13 11 22 8 5
-2 3 13 12 11 21 8 5
-3 2 13 12 10 20 8 4
-3 2 13 11 10 20 8 4
-3 2 13 11 10 19 8 4
-4 1 13 10 9 18 9 3
-4 1 13 10 9 18 9 3
-4 1 13 10 9 18 9 3
-4 1 13 10 9 18 9 3
-4 1 13 10 9 18 9 3
-3 2 14 9 10 19 10 4
-3 2 14 9 10 19 10 4
-3 2 14 9 9 19 10 4
-3 2 14 9 9 19 10 4
-3 2 14 9 9 19 10 4
-3 1 13 9 8 19 9 4
-3 1 13 9 8 21 9 4
-3 1 13 8 7 22 9 4
-3 1 13 8 7 24 9 4
-3 1 13 8 7 25 9 4
-3 2 12 7 6 26 8 3
-3 1 12 7 6 26 8 3
-3 1 12 7 6 26 8 3
-3 0 12 7 6 26 8 3
-3 0 12 7 6 26 8 3
-4 -2 13 8 7 26 7 3
-4 -2 13 8 7 26 7 3
-3 0 13 7 7 25 7 3
-3 0 13 7 7 25 7 3
-3 0 13 7 7 25 7 3
-2 1 12 6 6 24 6 3
-2 1 12 6 6 23 6 3
-2 1 12 6 6 22 5 3
-2 1 12 6 6 21 5 3
-2 1 12 6 6 20 5 3
-3 2 13 7 5 19 4 3
-3 2 13 7 5 19 4 3
-3 2 13 7 5 19 4 3
-3 2 13 7 5 19 4 3
-3 2 13 7 5 19 4 3
-4 1 12 6 5 18 4 4
-4 1 12 6 5 17 4 4
-4 0 13 6 5 16 4 4
-4 0 13 6 5 16 4 4
-4 0 13 6 5 15 4 4
-4 -2 14 5 5 14 5 4
-4 -2 14 5 5 14 5 4
-4 -2 13 5 5 14 5 4
-4 -2 13 5 5 14 5 4
-4 -2 13 5 5 14 5 4
-3 0 12 4 4 15 5 4
-3 0 12 4 4 15 5 4
-3 0 12 4 4 15 5 4
-3 0 12 4 4 15 5 4
-3 0 12 4 4 15 5 4
-3 0 12 4 3 14 5 3
-3 0 12 4 3 14 5 3
-4 0 12 4 3 15 5 3
-4 0 12 4 3 15 5 3
-4 0 12 4 3 15 5 3
-5 -2 12 5 4 16 5 3
-5 -2 12 5 4 16 5 3
-4 -2 12 5 3 15 5 3
-4 -2 12 5 3 15 5 3
-4 -2 12 5 3 15 5 3
-3 -2 11 4 2 14 4 2
-3 -2 11 4 2 14 4 2
-3 -2 11 4 2 14 4 2
-3 -2 11 4 2 14 4 2
-3 -2 11 4 2 14 4 2
-3 0 11 4 3 15 5 3
-3 0 11 4 3 15 5 3
-3 0 11 4 3 14 5 3
-3 0 11 4 3 13 5 3
-3 0 11 4 3 13 5 3
-4 -2 12 4 3 12 5 2
-4 -2 12 4 3 12 5 2
-4 0 11 4 3 12 4 2
-4 0 11 4 3 12 4 2
-4 0 11 4 3 12 4 2
-4 1 10 3 2 12 3 2
-4 1 10 3 2 12 3 2
-4 0 10 3 2 11 3 2
-4 0 10 3 2 11 3 2
-4 0 10 3 2 11 3 2
-5 -2 11 2 1 10 3 3
-5 -2 11 2 1 10 3 3
-5 -2 11 2 1 10 3 3
-5 -2 11 2 1 10 3 3
-5 -2 11 2 1 10 3 3
-4 0 11 2 2 10 2 2
-4 0 11 2 2 10 2 2
-4 0 11 2 2 10 2 2
-4 0 11 2 2 10 2 2
-4 0 11 2 2 10 2 2
-3 -2 11 2 1 9 3 2
-3 -2 11 2 1 9 3 2
-3 -2 11 2 1 9 3 2
-3 -2 11 2 1 9 3 2
-3 -2 11 2 1 9 3 2
-4 -2 11 2 2 8 3 3
-4 -2 11 2 2 8 3 3
-4 -2 11 2 2 7 3 2
-4 -2 11 2 2 7 3 2
-4 -2 11 2 2 7 3 2
-4 -2 11 2 1 6 3 1
-4 -2 11 2 1 6 3 1
-4 -2 10 2 1 6 3 1
-4 -2 10 2 1 6 3 1
-4 -2 10 2 1 6 3 1
-3 0 9 1 1 5 2 2
-3 0 9 1 1 5 2 2
-3 0 10 1 1 4 2 2
-3 0 10 1 1 4 2 2
-3 0 10 1 1 4 2 2
-2 0 11 1 1 3 1 2
-2 0 11 1 1 3 1 2
-2 0 11 1 1 3 1 2
-2 0 11 1 1 3 1 2
-2 0 11 1 1 3 1 2
-3 0 10 1 1 2 1 1
-3 0 10 1 1 2 1 1
-3 0 10 1 1 1 1 1
-3 0 10 1 1 1 1 1
-3 0 10 1 1 1 1 1
-4 -2 10 1 0 0 1 0
-4 -2 10 1 0 0 1 0
-4 -2 10 1 0 0 1 0
-4 -2 10 1 0 0 1 0
-4 -2 10 1 0 0 1 0
-4 -2 10 1 1 0 2 1
-4 -2 10 1 1 0 2 1
-3 -2 10 1 1 0 2 1
-3 -2 10 1 1 0 2 1
-3 -2 10 1 1 0 2 1
-2 0 11 1 1 -2 1 2
-2 0 11 1 1 -2 1 2
0 0 11 1 1 -2 1 3
0 0 11 1 1 -2 1 3
0 0 11 1 1 -2 1 3
1 0 11 2 2 0 2 4
1 2 12 3 3 0 2 4
1 3 13 4 4 1 3 5
1 5 14 5 5 1 4 5
1 6 15 6 6 1 4 5
2 7 16 7 7 2 5 6
2 7 17 7 7 2 5 6
2 8 18 8 8 3 6 7
2 9 18 9 8 4 7 8
2 9 19 9 8 4 7 8
3 10 20 10 9 5 8 9
3 10 20 10 9 5 8 9
4 9 20 11 10 5 8 9
5 9 20 11 11 5 8 9
5 9 20 11 11 5 8 9
6 8 19 12 12 5 9 9
7 9 18 12 12 5 9 9
8 10 16 11 12 6 10 10
8 10 15 11 12 7 11 10
9 11 14 11 12 7 11 10
10 12 13 10 12 8 12 11
9 12 12 9 12 8 12 11
8 12 11 8 12 8 11 11
8 12 11 8 12 8 11 11
7 12 10 7 12 8 11 11
7 12 9 6 12 7 10 11
9 11 9 6 12 7 10 11
11 9 9 6 11 7 10 11
13 7 9 6 11 7 10 11
15 5 9 6 11 7 10 11
16 4 8 5 10 6 9 10
15 3 8 4 8 5 8 10
14 2 7 2 7 4 7 9
14 2 7 1 5 4 6 8
13 1 7 0 4 3 5 8
11 0 6 -2 3 2 4 7
10 0 6 -2 3 2 4 7
8 1 6 -3 2 1 4 7
6 2 6 -3 2 1 4 7
4 2 6 -3 2 1 4 7
3 3 5 -4 1 0 4 6
2 2 6 -4 1 0 4 5
0 0 7 -5 1 -2 3 4
-2 -2 7 -5 1 -2 2 3
-3 -3 8 -5 1 -2 2 2
-4 -4 9 -6 0 -3 1 1
-4 -4 9 -6 -2 -3 0 1
-4 -4 8 -7 -3 -4 -2 1
-4 -4 7 -8 -4 -5 -2 1
-4 -4 7 -8 -5 -5 -3 1
-4 -5 6 -9 -6 -6 -4 1
-4 -5 6 -9 -6 -6 -4 1
-5 -5 7 -9 -6 -6 -4 1
-5 -5 7 -9 -6 -6 -4 1
-5 -5 7 -9 -6 -6 -4 1
-6 -6 8 -9 -6 -5 -5 0
-6 -6 8 -9 -6 -5 -5 0
-6 -6 8 -9 -6 -5 -6 0
-6 -6 8 -9 -6 -5 -6 0
-6 -6 8 -9 -6 -5 -6 0
-7 -6 8 -9 -7 -6 -7 0
-7 -6 8 -9 -6 -6 -7 0
-7 -6 9 -9 -5 -6 -6 0
-7 -6 9 -9 -5 -6 -6 0
-7 -6 9 -9 -4 -6 -6 0
-6 -5 10 -9 -3 -5 -5 1
-6 -6 11 -7 -3 -5 -5 1
-7 -7 13 -6 -3 -4 -6 0
-7 -7 14 -5 -3 -4 -6 -2
-7 -8 15 -3 -3 -4 -6 -2
-8 -9 16 -2 -2 -3 -7 -3
-9 -9 17 0 0 -3 -7 -3
-10 -8 19 1 1 -2 -7 -4
-11 -8 20 2 1 0 -7 -4
-12 -8 21 3 2 0 -7 -4
-12 -5 23 9 9 5 0 -2
-8 0 27 19 20 13 9 4
-5 4 30 29 32 21 18 10
0 8 34 40 44 30 27 16
3 13 37 51 55 38 36 22
16 19 34 58 70 50 54 34
37 26 25 64 89 64 75 51
59 34 16 69 106 78 98 68
81 42 6 75 125 92 120 86
103 50 -4 80 142 106 143 103
118 60 -19 70 148 113 157 116
129 72 -37 45 141 113 162 128
138 84 -57 18 134 112 169 139
148 96 -75 -8 127 112 174 150
158 108 -95 -33 120 112 180 161
150 105 -104 -58 94 95 162 152
123 88 -104 -81 51 64 122 126
97 70 -103 -106 7 33 84 99
70 53 -102 -130 -36 3 44 72
44 35 -102 -154 -79 -28 4 46
25 23 -98 -165 -105 -48 -22 26
12 15 -90 -168 -116 -58 -35 14
0 6 -82 -170 -128 -68 -49 2
-13 -3 -75 -172 -139 -78 -63 -11
-26 -12 -68 -174 -150 -89 -76 -23
-31 -16 -62 -165 -149 -91 -80 -29
-29 -15 -57 -149 -134 -85 -74 -27
-26 -14 -53 -132 -118 -78 -68 -25
-23 -14 -48 -114 -103 -72 -62 -24
-21 -13 -44 -97 -89 -65 -56 -22
-19 -12 -37 -82 -76 -59 -51 -20
-19 -11 -31 -71 -66 -52 -46 -18
-18 -10 -24 -61 -57 -46 -39 -16
-17 -10 -18 -50 -48 -38 -34 -14
-17 -9 -12 -39 -38 -32 -29 -12
-16 -8 -8 -32 -32 -27 -26 -11
-14 -8 -6 -28 -29 -25 -25 -11
-13 -8 -4 -25 -26 -23 -23 -11
-12 -8 -2 -22 -23 -21 -22 -11
-10 -8 1 -18 -20 -19 -21 -11
-9 -9 2 -16 -18 -18 -20 -10
-9 -9 3 -15 -17 -17 -20 -11
-9 -9 4 -13 -15 -15 -19 -12
-9 -9 5 -12 -14 -14 -19 -12
-9 -9 6 -11 -13 -13 -19 -13
-10 -10 7 -10 -12 -12 -18 -14
-10 -10 7 -10 -12 -11 -17 -14
-10 -10 7 -10 -11 -10 -16 -13
-10 -10 7 -10 -10 -10 -15 -12
-10 -10 7 -10 -10 -9 -14 -12
-9 -10 8 -9 -9 -8 -13 -11
-9 -10 8 -9 -9 -9 -13 -11
-9 -11 8 -8 -9 -10 -13 -10
-9 -11 8 -7 -9 -10 -13 -9
-9 -11 8 -7 -9 -11 -13 -9
-10 -12 9 -6 -9 -13 -13 -8
-10 -12 9 -6 -9 -15 -13 -8
-9 -12 9 -6 -9 -17 -13 -8
-9 -12 9 -6 -9 -19 -13 -8
-9 -12 9 -6 -9 -21 -13 -8
-8 -11 9 -5 -8 -23 -13 -7
-8 -11 9 -5 -8 -25 -13 -7
-8 -11 10 -4 -8 -27 -13 -7
-8 -11 10 -4 -8 -29 -13 -7
-8 -11 10 -4 -8 -31 -13 -7
-8 -11 11 -3 -8 -32 -14 -6
-8 -11 11 -3 -8 -34 -14 -6
-8 -11 11 -3 -8 -35 -14 -6
-8 -11 11 -3 -8 -36 -14 -6
-8 -11 11 -3 -8 -38 -14 -6
-8 -11 10 -4 -8 -39 -14 -6
-8 -11 10 -4 -8 -38 -14 -6
-7 -11 10 -4 -8 -38 -14 -6
-6 -11 10 -3 -8 -37 -15 -7
-6 -11 10 -3 -8 -36 -15 -7
-5 -11 10 -2 -7 -35 -16 -8
-5 -11 10 -2 -7 -33 -16 -8
-5 -11 10 -2 -7 -31 -16 -8
-5 -10 10 -2 -7 -29 -16 -9
-5 -10 10 -2 -7 -27 -16 -9
-5 -9 9 0 -6 -24 -15 -10
-5 -9 9 0 -6 -22 -15 -10
-5 -9 9 1 -6 -19 -15 -10
-5 -9 9 2 -5 -16 -15 -10
-5 -9 9 2 -5 -14 -15 -10
-5 -9 9 3 -4 -12 -16 -10
-5 -9 9 3 -4 -11 -16 -10
-5 -9 9 2 -4 -11 -16 -10
-5 -9 9 1 -4 -10 -16 -10
-5 -9 9 1 -4 -9 -16 -10
-5 -9 9 0 -4 -8 -15 -11
-5 -9 9 0 -4 -8 -14 -10
-5 -9 9 1 -4 -8 -14 -9
-4 -9 9 2 -4 -9 -13 -8
-4 -9 9 2 -4 -9 -12 -7
-3 -8 9 3 -3 -11 -11 -6
-3 -8 9 3 -3 -13 -11 -6
-3 -8 9 3 -3 -15 -11 -6
-3 -8 8 3 -3 -18 -11 -6
-3 -8 8 3 -3 -20 -11 -6
-3 -7 7 2 -2 -22 -11 -5
-3 -7 7 2 -2 -23 -11 -5
-3 -7 7 3 -2 -23 -11 -5
-3 -8 7 4 -2 -24 -11 -4
-3 -8 7 4 -2 -25 -11 -4
-3 -9 6 5 0 -26 -10 -3
-3 -9 6 5 0 -26 -10 -3
-3 -9 6 5 0 -26 -10 -3
-2 -8 6 4 -2 -26 -10 -3
-2 -8 6 4 -2 -26 -10 -3
0 -7 6 3 -3 -26 -10 -3
0 -7 6 3 -3 -24 -10 -3
0 -7 6 4 -3 -23 -10 -3
0 -7 6 5 -2 -21 -10 -3
0 -7 6 5 -2 -19 -10 -3
1 -6 5 6 0 -18 -11 -3
1 -6 5 6 0 -16 -11 -3
1 -6 5 6 0 -15 -11 -3
1 -6 5 5 0 -14 -11 -3
1 -6 5 5 0 -12 -11 -3
2 -5 4 4 1 -11 -11 -2
2 -5 4 5 1 -10 -11 -2
3 -5 4 5 2 -9 -11 -2
4 -5 4 6 3 -8 -11 -2
4 -5 4 7 3 -7 -11 -2
5 -6 3 8 4 -6 -10 0
5 -5 3 8 4 -6 -10 0
5 -5 3 8 4 -6 -10 1
5 -4 2 8 4 -6 -10 2
5 -3 2 8 4 -6 -10 2
6 -2 1 8 4 -6 -9 3
7 -2 1 8 4 -6 -9 3
7 -2 1 8 4 -7 -8 3
8 -2 0 8 4 -8 -7 3
9 -2 0 8 4 -8 -7 3
10 0 -2 9 4 -9 -6 4
10 0 -2 9 4 -9 -5 4
10 0 -2 9 5 -10 -5 5
10 1 -3 9 6 -11 -4 6
10 1 -3 9 6 -11 -3 6
11 2 -4 8 7 -12 -2 7
12 3 -4 8 7 -12 -2 7
13 3 -4 8 7 -12 0 7
15 4 -5 8 8 -12 1 8
16 5 -5 8 8 -12 1 8
17 6 -6 9 9 -11 2 9
17 6 -7 9 9 -11 2 9
18 6 -8 9 9 -11 2 9
19 7 -10 9 9 -11 2 10
19 7 -11 9 9 -11 2 10
20 8 -12 8 9 -12 3 11
21 9 -12 8 9 -12 3 12
21 9 -12 8 9 -12 4 12
22 10 -13 8 9 -11 5 13
23 11 -13 8 9 -11 5 14
24 12 -14 7 8 -10 6 15
25 13 -15 7 8 -10 6 15
26 14 -15 7 8 -10 6 15
27 15 -16 6 9 -10 6 16
28 16 -17 6 9 -10 6 16
29 17 -18 5 10 -9 6 17
29 17 -18 5 10 -9 6 17
29 18 -18 5 10 -9 6 17
30 19 -19 5 10 -9 6 18
30 19 -19 5 10 -9 6 18
31 20 -20 5 9 -10 7 19
31 20 -20 5 9 -10 7 20
31 20 -20 5 9 -11 7 20
31 21 -20 4 9 -12 7 21
31 21 -20 4 9 -12 7 22
31 22 -20 3 9 -13 7 23
31 22 -20 3 9 -13 7 23
31 22 -20 3 9 -13 7 23
31 23 -20 3 9 -13 7 23
31 23 -20 3 9 -13 7 23
31 24 -19 4 10 -12 8 23
31 24 -18 5 11 -12 8 23
31 24 -17 5 12 -12 9 23
31 24 -16 6 13 -11 10 23
31 24 -15 7 14 -11 10 23
30 25 -14 8 15 -10 11 23
29 25 -12 9 16 -10 11 23
28 24 -11 10 17 -9 11 22
26 23 -9 11 18 -8 12 21
25 23 -7 12 19 -8 12 21
24 22 -6 13 20 -7 13 20
22 22 -5 14 20 -6 14 20
20 21 -3 15 21 -5 14 20
18 20 -2 16 22 -3 15 20
17 20 1 17 22 -2 16 20
15 19 2 18 23 0 17 19
13 18 3 18 23 0 17 19
12 17 5 18 23 0 17 18
10 15 6 19 23 1 16 17
8 14 8 19 23 1 16 17
7 13 9 20 23 2 15 16
6 12 9 19 22 2 15 16
5 11 9 18 21 2 14 15
3 10 9 17 19 2 13 14
2 9 9 16 18 2 13 14
1 8 10 15 17 1 12 13
1 7 10 15 17 1 11 12
0 6 10 14 16 1 11 12
-2 5 10 13 15 1 10 11
-2 4 10 13 15 1 9 10
-3 3 9 12 14 0 8 9
-3 3 9 12 13 0 7 8
-3 3 9 11 12 0 7 8
-4 2 9 10 11 0 6 7
-4 2 9 10 10 0 5 6
-5 1 9 9 9 -2 4 5
-5 1 9 9 9 -2 4 5
-5 0 9 9 9 -2 4 5
-5 -2 9 8 8 -3 3 4
-5 -2 9 8 8 -3 3 4
-6 -3 9 7 7 -4 2 3
-6 -3 9 7 6 -4 2 3
-6 -3 8 6 6 -4 1 3
-6 -4 7 5 5 -5 0 2
-6 -4 7 5 4 -5 0 2
-7 -5 6 4 3 -6 -2 1
-7 -5 6 4 3 -6 -2 1
-7 -5 6 4 3 -6 -2 1
-7 -5 6 4 3 -6 -2 1
-7 -5 6 4 3 -6 -2 1
-7 -5 6 3 2 -7 -3 1
-7 -5 6 3 2 -8 -3 1
-7 -5 6 3 2 -9 -4 1
-7 -5 6 3 1 -11 -5 1
-7 -5 6 3 1 -12 -5 1
-8 -5 6 2 0 -13 -6 0
-8 -5 6 2 0 -14 -6 -2
-8 -5 6 2 0 -14 -7 -2
-8 -5 5 2 -2 -15 -8 -3
-8 -5 5 2 -2 -16 -8 -4
-8 -6 4 2 -3 -17 -9 -5
-8 -6 4 2 -3 -17 -9 -4
-8 -6 4 2 -3 -17 -9 -4
-8 -6 4 2 -3 -18 -8 -3
-8 -6 4 2 -3 -18 -8 -2
-9 -6 5 1 -3 -19 -7 0
-9 -6 5 1 -3 -19 -7 0
-9 -6 5 1 -3 -19 -7 0
-9 -6 5 1 -3 -19 -7 0
-9 -6 5 1 -3 -19 -7 0
-9 -7 5 2 -2 -18 -8 0
-9 -7 5 2 -2 -17 -8 0
-9 -7 5 2 -2 -16 -8 0
-9 -7 5 2 -2 -14 -8 0
-9 -7 5 2 -2 -13 -8 0
-8 -6 5 2 -2 -12 -7 -2
-8 -6 5 2 -2 -11 -7 -2
-8 -6 5 2 -2 -9 -7 -2
-8 -6 5 2 -2 -8 -7 -3
-8 -6 5 2 -2 -6 -7 -3
-9 -6 5 2 -3 -5 -6 -4
-9 -6 5 2 -3 -5 -6 -4
-9 -6 5 2 -3 -4 -6 -4
-9 -6 5 2 -3 -3 -5 -4
-9 -6 5 2 -3 -3 -5 -4
-9 -5 4 2 -2 -2 -4 -5
-9 -5 4 2 -2 -2 -4 -5
-9 -5 4 2 -2 -2 -3 -5
-9 -5 4 2 -2 -2 -2 -4
-9 -5 4 2 -2 -2 -2 -4
-9 -5 4 2 0 -3 0 -3
-9 -5 4 2 0 -4 0 -3
-9 -5 4 2 0 -5 0 -3
-9 -5 4 2 0 -6 0 -2
-9 -5 4 2 0 -7 0 -2
-8 -4 4 1 -2 -8 -2 0
-8 -4 4 1 -2 -8 -2 0
-8 -4 4 1 -2 -8 -2 0
-8 -4 4 2 -2 -8 -2 0
-8 -4 4 2 -2 -8 -2 0
-9 -5 4 3 0 -9 -3 0
-9 -5 4 3 0 -9 -3 0
-9 -5 4 3 0 -8 -3 0
-9 -5 4 3 0 -8 -3 0
-9 -5 4 3 0 -7 -3 0
-8 -4 5 4 1 -6 -3 1
-8 -4 5 3 1 -6 -3 1
-8 -4 5 3 1 -6 -4 1
-9 -5 5 2 1 -5 -4 0
-9 -5 5 1 1 -5 -5 0
-10 -6 4 0 0 -4 -6 -2
-10 -6 4 0 0 -4 -6 -2
-10 -6 4 0 0 -3 -6 -2
-10 -6 4 0 0 -3 -6 -2
-10 -6 4 0 0 -2 -6 -2
-9 -5 3 1 0 0 -7 -2
-9 -5 3 1 0 0 -7 -2
-9 -5 3 1 0 0 -7 -2
-10 -6 3 1 0 0 -7 -2
-10 -6 3 1 0 0 -7 -2
-11 -7 3 1 -2 0 -7 -2
-11 -7 3 1 -2 0 -7 -2
-10 -7 3 0 -2 -2 -7 -2
-10 -7 3 0 -3 -2 -7 -3
-9 -7 3 -2 -3 -3 -7 -3
-8 -6 2 -3 -4 -4 -7 -4
-8 -6 2 -3 -4 -4 -7 -4
-8 -6 2 -3 -4 -4 -7 -4
-9 -6 2 -3 -4 -4 -6 -4
-9 -6 2 -3 -4 -4 -6 -4
-10 -7 3 -3 -4 -4 -5 -4
-10 -7 3 -3 -4 -4 -5 -4
-10 -7 3 -3 -4 -5 -5 -4
-10 -7 3 -3 -4 -5 -5 -4
-10 -7 3 -3 -4 -6 -5 -4
-10 -7 4 -4 -5 -7 -5 -4
-10 -7 4 -4 -5 -7 -5 -4
-10 -7 4 -4 -5 -7 -5 -4
-10 -7 3 -4 -5 -7 -5 -5
-10 -7 3 -4 -5 -7 -5 -5
-10 -7 2 -5 -6 -8 -5 -6
-10 -7 2 -5 -6 -8 -5 -6
-10 -7 2 -5 -6 -7 -5 -6
-10 -7 2 -5 -6 -7 -5 -6
-10 -7 2 -5 -6 -6 -5 -6
-11 -8 2 -6 -6 -5 -4 -5
-11 -8 2 -6 -6 -5 -4 -5
-11 -8 2 -6 -6 -4 -4 -5
-11 -8 2 -6 -6 -4 -4 -5
-11 -8 2 -6 -6 -3 -4 -5
-11 -9 3 -6 -6 -2 -4 -5
-11 -9 3 -6 -6 -2 -4 -5
-11 -9 3 -6 -6 -2 -4 -5
-11 -9 3 -6 -6 -2 -4 -5
-11 -9 3 -6 -6 -2 -4 -5
-11 -8 2 -7 -7 0 -4 -6
-11 -8 2 -7 -7 0 -4 -6
-11 -8 2 -7 -7 1 -4 -6
-11 -8 2 -7 -7 1 -5 -6
-11 -8 2 -7 -7 2 -5 -6
-11 -9 3 -6 -7 3 -6 -5
-11 -9 3 -6 -7 3 -6 -5
-11 -9 3 -6 -7 2 -6 -5
-11 -9 3 -6 -7 2 -7 -5
-11 -9 3 -6 -7 1 -7 -5
-12 -9 2 -7 -8 0 -8 -5
-12 -9 2 -7 -8 0 -8 -5
-12 -9 2 -7 -8 0 -8 -5
-12 -9 2 -7 -8 0 -8 -5
-12 -9 2 -7 -8 0 -8 -5
-12 -9 3 -7 -8 -2 -9 -6
-12 -9 3 -7 -8 -2 -9 -6
-12 -9 3 -7 -8 -2 -9 -6
-12 -9 3 -7 -8 -2 -9 -6
-12 -9 3 -7 -8 -2 -9 -6
-12 -9 3 -7 -8 -3 -9 -6
-12 -9 3 -7 -8 -3 -9 -6
-12 -9 3 -7 -8 -3 -9 -6
-12 -9 3 -7 -8 -3 -9 -6
-12 -9 3 -7 -8 -3 -9 -6
-12 -9 2 -7 -8 -3 -9 -7
-12 -9 2 -7 -8 -3 -9 -7
-12 -9 2 -7 -8 -3 -9 -7
-12 -9 1 -7 -8 -3 -9 -7
-12 -9 1 -7 -8 -3 -9 -7
-13 -10 0 -8 -8 -2 -9 -8
-13 -10 0 -8 -8 -2 -9 -8
-13 -10 0 -8 -8 -2 -9 -8
-13 -10 0 -8 -8 -2 -9 -8
-13 -10 0 -8 -8 -2 -9 -8
-13 -10 1 -7 -9 -2 -9 -8
-13 -10 1 -7 -9 -2 -9 -8
-13 -10 1 -7 -9 -2 -9 -8
-12 -10 1 -7 -9 -2 -9 -8
-12 -10 1 -7 -9 -2 -9 -8
-11 -9 1 -8 -8 0 -8 -8
-11 -9 1 -8 -8 0 -8 -8
-11 -9 1 -8 -8 0 -8 -8
-12 -9 1 -9 -8 0 -8 -8
-12 -9 1 -9 -8 0 -8 -8
-13 -10 1 -10 -9 0 -8 -8
-13 -10 1 -10 -9 0 -8 -8
-13 -10 1 -10 -9 1 -8 -8
-13 -10 1 -10 -9 1 -8 -8
-13 -10 1 -10 -9 2 -8 -8
-14 -11 1 -9 -8 3 -7 -8
-14 -11 1 -9 -8 3 -7 -8
-14 -11 1 -9 -8 3 -7 -8
-14 -11 1 -9 -8 4 -7 -8
-14 -11 1 -9 -8 4 -7 -8
-14 -11 1 -8 -8 5 -8 -8
-14 -11 1 -8 -8 5 -8 -8
-14 -11 1 -8 -8 5 -8 -8
-14 -10 1 -8 -8 5 -8 -8
-14 -10 1 -8 -8 5 -8 -8
-14 -9 2 -9 -8 4 -9 -8
-14 -9 2 -9 -8 4 -9 -8
-14 -9 2 -9 -8 4 -9 -8
-13 -9 2 -9 -8 5 -9 -8
-13 -9 2 -9 -8 5 -9 -8
-12 -9 2 -8 -8 6 -9 -8
-12 -9 2 -8 -8 6 -9 -8
-12 -9 2 -8 -8 6 -9 -8
-13 -9 2 -8 -8 6 -9 -8
-13 -9 2 -8 -8 6 -9 -8
-14 -10 2 -7 -8 6 -8 -8
-14 -10 2 -7 -8 6 -8 -8
-14 -10 2 -7 -8 6 -8 -8
-13 -9 2 -7 -8 6 -8 -8
-13 -9 2 -7 -8 6 -8 -8
-12 -8 3 -7 -8 7 -8 -7
-12 -8 3 -7 -8 7 -8 -7
-12 -8 3 -7 -8 7 -8 -7
-12 -8 3 -7 -8 7 -8 -7
-12 -8 3 -7 -8 7 -8 -7
-11 -9 3 -8 -7 7 -8 -7
-11 -9 3 -8 -7 7 -8 -7
-11 -9 3 -8 -7 7 -8 -7
-11 -9 3 -8 -7 6 -8 -7
-11 -9 3 -8 -7 6 -8 -7
-12 -9 3 -7 -8 5 -8 -8
-12 -9 3 -7 -8 5 -8 -8
-12 -9 3 -7 -8 5 -8 -8
-12 -9 3 -7 -8 5 -8 -7
-12 -9 3 -7 -8 5 -8 -7
-12 -9 3 -7 -8 4 -8 -6
-12 -9 3 -7 -8 4 -8 -6
-12 -9 3 -7 -8 4 -8 -6
-12 -9 3 -7 -8 4 -8 -6
-12 -9 3 -7 -8 4 -8 -6
-12 -8 3 -7 -7 3 -8 -7
-12 -8 3 -7 -7 3 -8 -7
-12 -8 3 -7 -7 3 -8 -7
-12 -8 3 -7 -7 3 -8 -7
-12 -8 3 -7 -7 3 -8 -7
-11 -8 3 -7 -7 2 -7 -6
-11 -8 3 -7 -7 2 -7 -6
-11 -8 3 -7 -7 2 -7 -6
-11 -8 3 -7 -7 2 -7 -6
-11 -8 3 -7 -7 2 -7 -6
-11 -7 2 -6 -7 3 -7 -6
-11 -7 2 -6 -7 3 -7 -6
-11 -7 2 -6 -7 3 -7 -6
-11 -7 2 -6 -7 3 -7 -6
-11 -7 2 -6 -7 3 -7 -6
-11 -7 3 -5 -6 3 -6 -5
-11 -7 3 -5 -6 3 -6 -5
-11 -7 3 -5 -6 3 -6 -5
-11 -7 3 -5 -6 3 -6 -5
-11 -7 3 -5 -6 3 -6 -5
-11 -8 2 -4 -5 4 -6 -6
-11 -8 2 -4 -5 4 -6 -6
-11 -8 2 -4 -5 4 -6 -6
-11 -8 2 -4 -5 4 -6 -6
-11 -8 2 -4 -5 4 -6 -6
-10 -8 2 -5 -5 3 -6 -6
-10 -8 2 -5 -5 3 -6 -6
-10 -8 2 -5 -5 3 -6 -6
-10 -8 2 -5 -5 3 -6 -6
-10 -8 2 -5 -5 3 -6 -6
-10 -7 3 -5 -5 3 -5 -7
-10 -7 3 -5 -5 3 -5 -7
-9 -7 3 -5 -5 3 -5 -7
-9 -7 3 -5 -5 3 -5 -7
-8 -7 3 -5 -5 3 -5 -7
-7 -6 3 -4 -4 4 -4 -6
-7 -6 3 -4 -4 4 -4 -6
-7 -5 3 -3 -3 5 -4 -6
-7 -5 3 -3 -3 6 -4 -6
-7 -4 3 -2 -2 7 -4 -6
-6 -3 3 0 0 8 -3 -6
-6 -2 4 1 1 9 -2 -5
-6 1 6 2 2 10 0 -3
-6 2 8 3 3 11 1 -2
-6 3 9 5 5 12 3 0
-5 5 11 6 6 13 4 2
-5 5 11 6 6 13 4 2
-4 5 11 6 6 13 4 2
-4 6 11 6 6 13 4 2
-3 6 11 6 6 13 4 2
-2 7 12 7 7 14 5 3
-2 7 12 7 7 14 5 3
-2 7 12 8 8 14 6 3
-2 7 12 8 8 14 6 4
-2 7 12 9 9 14 7 4
0 7 11 10 10 15 8 5
1 7 10 10 10 15 8 5
2 7 9 10 10 15 8 5
3 8 8 9 10 15 8 5
4 8 7 9 10 15 8 5
5 9 5 8 9 15 8 6
5 9 5 8 9 15 8 6
5 9 4 7 8 15 8 6
5 9 4 6 8 14 8 6
5 9 3 5 7 14 8 6
4 9 2 4 6 13 7 5
5 8 2 4 6 13 7 5
6 6 2 4 6 13 6 4
7 4 2 4 6 12 6 3
8 3 2 4 6 12 5 2
9 1 2 4 5 11 4 1
9 1 2 3 4 10 4 1
8 1 2 2 3 8 3 1
7 0 2 1 2 7 3 0
6 0 2 0 1 6 2 0
5 -2 1 -2 -2 4 1 -2
3 -2 1 -2 -2 4 1 -2
1 -2 1 -2 -2 4 0 -2
-2 -2 1 -3 -2 4 0 -3
-4 -2 1 -3 -2 4 -2 -3
-6 -3 2 -4 -3 3 -3 -4
-6 -3 2 -4 -3 3 -3 -4
-7 -4 2 -4 -4 3 -3 -5
-8 -4 3 -5 -4 2 -4 -5
-9 -5 3 -5 -5 2 -4 -6
-10 -6 4 -6 -6 1 -5 -7
-10 -6 4 -6 -6 1 -5 -7
-10 -7 4 -6 -6 0 -6 -7
-10 -7 4 -6 -7 0 -6 -7
-10 -8 4 -6 -7 -2 -7 -7
-10 -9 3 -6 -8 -3 -8 -8
-10 -9 3 -6 -8 -3 -8 -8
-10 -9 3 -6 -8 -3 -8 -8
-10 -9 3 -6 -8 -3 -8 -8
-10 -9 3 -6 -8 -3 -8 -8
-11 -9 3 -7 -7 -3 -7 -9
-11 -9 3 -7 -7 -3 -7 -9
-11 -9 3 -7 -7 -3 -7 -9
-11 -9 3 -7 -7 -3 -7 -9
-11 -9 3 -7 -7 -3 -7 -9
-11 -8 4 -7 -7 -2 -8 -10
-11 -8 4 -7 -7 -2 -8 -10
-11 -8 4 -7 -7 -2 -8 -10
-11 -8 4 -7 -7 0 -8 -10
-11 -8 4 -7 -7 0 -8 -10
-11 -7 5 -6 -6 1 -7 -9
-11 -7 6 -6 -6 1 -7 -9
-12 -8 7 -5 -6 1 -7 -10
-12 -9 8 -5 -6 1 -8 -11
-13 -10 9 -4 -6 1 -8 -12
-14 -11 10 -3 -6 1 -9 -13
-15 -9 13 2 -2 4 -7 -12
-16 -7 17 7 3 8 -4 -11
-18 -5 20 11 7 11 0 -10
-19 -3 24 16 11 15 2 -9
-20 0 27 21 16 19 6 -6
-9 4 28 33 31 28 19 3
2 8 29 47 48 38 31 12
13 12 30 59 63 49 45 21
24 16 31 72 78 59 57 30
36 21 31 84 94 69 71 40
60 33 14 77 107 81 93 60
84 47 -3 70 119 94 115 79
106 59 -19 64 133 106 137 100
130 71 -35 58 145 119 158 119
151 84 -52 50 155 130 178 138
151 84 -66 22 131 114 162 135
150 84 -80 -6 106 99 146 132
149 84 -95 -33 81 84 131 129
148 84 -109 -61 57 68 115 125
144 84 -122 -88 31 52 98 119
112 67 -117 -111 -8 26 66 95
81 52 -113 -134 -47 1 33 70
50 36 -108 -157 -85 -24 2 47
18 20 -104 -181 -123 -50 -30 22
-11 6 -99 -201 -158 -73 -60 0
-14 1 -92 -188 -150 -75 -62 -7
-18 -5 -86 -174 -143 -78 -65 -13
-22 -11 -79 -159 -136 -81 -68 -19
-25 -16 -72 -146 -128 -83 -70 -25
-29 -21 -66 -132 -119 -87 -73 -31
-28 -19 -59 -117 -107 -77 -66 -29
-26 -17 -51 -103 -94 -68 -59 -26
-24 -15 -44 -89 -80 -59 -52 -24
-22 -13 -36 -73 -68 -50 -45 -22
-20 -11 -29 -60 -56 -41 -37 -19
-19 -11 -25 -53 -50 -37 -34 -19
-18 -11 -21 -46 -44 -33 -31 -18
-17 -11 -17 -38 -36 -29 -28 -17
-16 -11 -12 -31 -30 -24 -25 -16
-14 -10 -8 -24 -24 -20 -22 -15
-14 -10 -7 -22 -23 -19 -22 -15
-14 -11 -5 -19 -21 -18 -21 -15
-14 -11 -4 -17 -19 -17 -20 -14
-14 -12 -2 -15 -17 -16 -19 -14
-13 -13 1 -12 -15 -15 -18 -13
-13 -13 1 -11 -15 -14 -18 -13
-13 -13 1 -10 -14 -13 -18 -13
-13 -13 2 -9 -13 -11 -18 -13
-13 -13 2 -8 -12 -10 -18 -13
-13 -13 3 -7 -11 -8 -17 -12
-13 -13 3 -7 -11 -8 -17 -12
-13 -13 3 -7 -11 -8 -16 -11
-13 -13 3 -7 -11 -8 -16 -11
-13 -13 3 -7 -11 -8 -15 -10
-12 -13 4 -7 -10 -7 -14 -9
-12 -13 4 -7 -10 -7 -14 -9
-12 -13 4 -6 -9 -7 -14 -9
-12 -13 4 -5 -9 -7 -13 -8
-12 -13 4 -4 -8 -7 -13 -8
-13 -13 5 -3 -7 -7 -12 -7
-13 -13 5 -3 -7 -8 -12 -7
-13 -13 5 -3 -7 -9 -12 -6
-13 -13 6 -3 -7 -11 -12 -6
-13 -13 6 -3 -7 -12 -12 -5
-12 -12 7 -2 -7 -14 -13 -4
-12 -12 7 -2 -7 -15 -13 -4
-12 -12 7 -2 -7 -16 -13 -4
-12 -12 7 0 -7 -17 -13 -4
-12 -12 7 0 -7 -18 -13 -4
-11 -13 7 1 -6 -19 -12 -5
-11 -13 7 1 -6 -19 -12 -5
-11 -12 7 1 -6 -20 -12 -5
-11 -12 7 0 -7 -21 -13 -5
-11 -11 7 0 -7 -22 -13 -5
-11 -10 7 -2 -8 -23 -14 -5
-11 -10 7 -2 -8 -23 -14 -5
-11 -10 7 -2 -7 -22 -14 -5
-11 -10 7 0 -7 -21 -14 -5
-11 -10 7 0 -6 -20 -14 -5
-11 -11 8 1 -5 -19 -15 -6
-11 -11 8 1 -5 -19 -15 -6
-10 -11 8 1 -5 -18 -15 -7
-10 -10 8 1 -5 -18 -15 -7
-9 -10 8 1 -5 -17 -15 -8
-8 -9 8 1 -4 -16 -15 -9
-8 -9 8 1 -4 -15 -15 -9
-8 -9 8 2 -4 -14 -15 -9
-8 -9 8 2 -3 -13 -15 -9
-8 -9 8 3 -3 -12 -15 -9
-9 -9 8 4 -2 -10 -16 -8
-9 -9 8 4 -2 -10 -16 -8
-9 -9 8 4 -2 -10 -16 -7
-8 -9 8 4 -2 -11 -16 -7
-8 -9 8 4 -2 -11 -16 -6
-7 -8 8 4 -2 -12 -15 -5
-7 -8 8 4 -2 -13 -15 -5
-7 -8 8 4 -2 -14 -14 -4
-7 -8 8 5 0 -15 -14 -3
-7 -8 8 5 0 -16 -13 -2
-7 -9 9 6 1 -18 -12 0
-7 -9 9 6 1 -20 -12 0
-7 -9 9 6 1 -22 -12 0
-6 -9 8 6 0 -24 -12 0
-6 -9 8 6 0 -26 -12 0
-5 -9 7 5 -2 -28 -11 0
-5 -9 7 5 -2 -28 -11 0
-5 -9 7 6 0 -28 -11 0
-5 -9 7 7 0 -28 -11 0
-5 -9 7 8 1 -28 -11 0
-5 -9 8 9 2 -28 -10 0
-5 -9 8 9 2 -28 -10 0
-5 -9 8 8 2 -28 -10 0
-5 -9 8 8 2 -28 -10 0
-5 -9 8 7 2 -28 -10 0
-4 -8 7 6 1 -28 -11 -2
-4 -8 7 6 1 -27 -11 -2
-4 -8 7 6 1 -26 -11 -2
-3 -8 7 7 2 -25 -11 -3
-3 -8 7 7 2 -24 -11 -3
-2 -7 6 8 3 -22 -12 -4
-2 -7 6 8 3 -22 -12 -4
-2 -7 6 8 3 -21 -12 -4
0 -6 5 8 3 -20 -12 -4
0 -6 5 8 3 -19 -12 -4
1 -5 4 8 2 -18 -12 -3
1 -5 4 8 2 -17 -12 -3
1 -5 4 8 2 -16 -12 -3
1 -5 4 8 2 -15 -12 -3
1 -5 4 8 2 -14 -12 -3
2 -5 4 9 3 -12 -12 -2
2 -5 4 9 3 -12 -12 -2
3 -4 4 9 3 -12 -11 0
3 -3 4 9 3 -12 -10 1
4 -2 4 9 3 -12 -9 2
5 0 3 9 4 -11 -8 3
5 0 3 9 4 -11 -8 3
5 0 3 9 5 -11 -8 3
6 0 2 9 5 -11 -7 3
6 0 2 9 6 -11 -7 3
7 1 1 10 7 -11 -6 3
8 2 0 10 7 -11 -6 3
9 3 -2 10 7 -12 -6 3
10 4 -3 9 7 -13 -6 4
11 5 -4 9 7 -14 -6 4
12 6 -5 8 6 -15 -5 5
12 6 -5 8 6 -15 -4 5
13 6 -5 8 6 -15 -3 5
14 7 -6 8 6 -14 -2 6
15 7 -6 8 6 -14 0 6
16 8 -7 8 7 -13 1 7
16 8 -7 8 7 -13 1 7
17 9 -7 7 7 -13 1 7
18 10 -8 6 6 -13 1 8
19 11 -8 5 6 -13 1 8
19 11 -8 5 6 -13 1 8
20 12 -9 4 5 -14 1 9
21 13 -9 4 5 -13 2 10
22 14 -10 4 6 -13 3 11
23 15 -10 4 6 -12 4 12
24 16 -10 4 6 -12 4 12
25 17 -11 5 7 -11 5 13
25 18 -12 5 7 -11 5 14
25 18 -13 4 7 -11 5 15
25 19 -14 4 7 -11 5 16
25 19 -14 4 7 -11 5 16
26 20 -15 3 6 -11 5 18
27 21 -15 3 6 -11 5 19
27 21 -15 3 6 -10 6 20
28 22 -15 3 6 -10 6 21
28 22 -15 3 6 -10 6 22
29 23 -15 4 7 -9 7 23
29 23 -15 4 7 -9 7 23
30 24 -15 3 7 -10 7 23
30 24 -15 3 7 -10 7 23
30 24 -15 3 7 -10 7 23
31 25 -15 2 6 -11 7 24
31 25 -14 3 7 -11 7 24
31 25 -14 3 7 -11 7 24
31 25 -13 4 8 -11 7 24
31 25 -13 4 8 -11 7 24
31 25 -11 6 10 -11 8 24
31 25 -10 7 11 -11 9 24
30 25 -9 9 13 -11 10 24
30 25 -8 10 14 -11 11 24
30 25 -7 11 15 -11 11 24
29 26 -5 13 17 -10 12 24
28 25 -3 15 18 -9 13 24
27 24 0 16 20 -8 14 23
26 23 2 18 21 -7 15 23
25 23 3 19 22 -6 15 23
23 22 5 20 23 -5 16 22
21 21 6 20 23 -5 16 22
19 21 8 21 23 -5 17 21
17 20 9 21 23 -5 17 21
16 20 10 21 23 -5 17 21
14 19 11 22 24 -4 18 20
12 18 12 23 24 -3 18 19
11 17 13 24 25 -2 18 19
9 16 14 25 25 0 18 18
8 15 14 25 25 0 18 18
7 14 15 26 26 1 17 17
6 13 15 25 25 1 16 16
5 12 15 24 24 1 15 15
4 11 15 23 23 1 14 14
4 10 15 23 22 1 14 13
3 9 14 22 21 0 13 12
2 8 14 22 20 0 12 12
1 7 14 21 20 0 12 11
0 6 14 21 19 0 11 11
0 5 14 21 19 0 11 11
-2 4 15 20 17 0 10 10
-2 4 15 19 16 0 9 10
-2 4 14 18 15 -2 9 9
-2 4 14 17 14 -2 8 9
-2 4 14 16 13 -2 8 9
-2 3 13 15 12 -3 7 8
-2 2 13 15 12 -3 6 7
-2 2 13 14 11 -3 5 7
-2 1 13 14 11 -3 4 6
-2 1 13 14 11 -3 4 6
-2 0 12 13 10 -4 3 5
-2 0 12 12 9 -5 3 5
-2 0 12 12 8 -5 3 5
-2 0 12 11 7 -6 3 5
-2 0 12 11 7 -6 3 5
-3 0 11 10 6 -7 2 6
-3 0 11 10 6 -8 2 6
-3 0 11 10 6 -8 1 6
-3 0 11 10 6 -9 1 6
-3 0 11 10 6 -9 1 6
-4 -2 11 10 6 -11 0 5
-4 -2 11 10 5 -12 0 5
-4 -2 11 9 5 -14 -2 5
-4 -2 11 9 4 -15 -2 5
-4 -2 11 9 4 -16 -2 5
-3 -2 10 8 3 -17 -3 4
-3 -2 10 8 3 -17 -3 4
-3 -2 10 8 3 -17 -3 4
-3 -2 10 8 3 -17 -3 4
-3 -2 10 8 3 -17 -3 4
-3 -3 11 9 4 -18 -3 3
-3 -3 11 9 4 -18 -3 3
-3 -3 11 9 4 -18 -3 4
-3 -3 11 9 4 -18 -3 4
-3 -3 11 9 4 -18 -3 4
-3 -2 11 9 3 -19 -3 5
-3 -2 11 9 3 -18 -3 5
-3 -2 11 10 3 -17 -3 4
-3 -2 11 10 3 -16 -3 4
-3 -2 11 10 3 -15 -3 4
-4 -3 12 11 4 -14 -2 3
-4 -3 12 11 4 -13 -2 3
-4 -3 12 11 4 -13 -2 3
-4 -3 12 11 4 -12 -2 3
-4 -3 12 11 4 -12 -2 3
-4 -3 12 10 3 -11 0 2
-4 -3 12 10 3 -11 0 2
-4 -2 12 10 3 -11 1 2
-4 -2 12 10 3 -11 1 2
-4 -2 12 10 3 -11 1 2
-5 0 12 10 4 -11 2 2
-5 0 12 10 4 -12 2 3
-5 0 12 10 4 -13 2 3
-5 0 12 10 4 -14 2 4
-5 0 12 10 4 -15 2 4
-4 1 11 9 3 -16 3 5
-4 1 11 9 3 -17 3 5
-4 0 11 10 3 -18 3 5
-4 0 11 10 3 -19 3 5
-4 0 11 10 3 -20 3 5
-3 -2 12 11 4 -21 4 5
-3 0 12 11 4 -21 4 5
-3 0 12 11 3 -21 4 5
-3 1 12 11 3 -21 4 5
-3 1 12 11 3 -21 4 5
-4 2 12 10 2 -22 5 5
-4 2 12 10 2 -21 5 5
-4 1 12 10 3 -20 5 5
-4 1 12 10 3 -19 5 5
-4 1 12 10 3 -18 5 5
-4 0 13 11 4 -17 4 6
-4 0 13 11 4 -17 4 6
-4 0 12 11 4 -17 3 6
-4 0 12 11 4 -17 3 6
-4 0 12 11 4 -17 3 6
-5 1 11 10 4 -17 2 5
-5 1 11 10 4 -17 2 5
-5 1 11 10 4 -16 2 5
-5 1 11 10 4 -16 2 5
-5 1 11 10 4 -16 2 5
-4 1 11 9 3 -15 1 4
-4 1 11 9 3 -16 0 4
-4 1 11 8 2 -17 0 4
-4 1 11 8 2 -18 -2 4
-4 1 11 8 2 -18 -2 4
-4 2 11 7 1 -19 -3 5
-4 2 11 7 1 -20 -3 5
-5 2 11 7 1 -20 -3 5
-5 2 11 7 1 -21 -3 5
-5 2 11 7 1 -21 -3 5
-6 1 10 8 1 -22 -3 5
-6 1 10 8 1 -23 -3 5
-6 0 10 7 1 -24 -2 5
-6 0 10 7 1 -25 -2 5
-6 0 10 7 1 -26 -2 5
-6 -2 11 6 0 -27 0 5
-6 -2 11 6 0 -27 0 5
-6 -2 11 6 0 -27 1 5
-6 -2 11 6 0 -27 1 5
-6 -2 11 6 0 -27 1 5
-6 -3 11 7 -2 -27 2 4
-6 -3 11 7 -2 -28 2 4
-6 -3 11 6 -2 -28 2 4
-6 -3 11 6 -2 -29 2 4
-6 -3 11 6 -2 -29 2 4
-7 -3 11 5 -2 -30 1 3
-7 -3 11 5 -2 -30 1 3
-7 -3 11 5 -2 -29 1 2
-7 -3 11 5 -2 -29 1 2
-7 -3 11 5 -2 -29 1 2
-7 -2 10 4 -3 -28 1 1
-7 -2 10 4 -3 -28 1 1
-6 -2 10 4 -4 -28 1 1
-6 -2 10 4 -4 -28 1 1
-6 -2 10 4 -4 -28 1 1
-5 -2 9 4 -5 -28 0 1
-5 -2 9 4 -5 -27 0 1
-5 -2 9 4 -5 -26 0 1
-5 -2 9 4 -5 -25 0 1
-5 -2 9 4 -5 -25 0 1
-6 -3 9 4 -5 -24 -2 1
-6 -3 9 4 -5 -24 -2 1
-7 -3 9 4 -5 -24 -2 1
-7 -3 9 4 -5 -24 -2 1
-7 -3 9 4 -5 -24 -2 1
-8 -3 10 3 -5 -24 -2 2
-8 -3 10 3 -5 -24 -2 2
-8 -3 10 3 -5 -24 -2 2
-8 -3 10 3 -5 -24 -2 2
-8 -3 10 3 -5 -24 -2 2
-7 -3 10 4 -4 -23 -2 1
-7 -3 10 4 -4 -23 -2 1
-7 -3 10 3 -4 -24 -2 2
-7 -3 10 3 -4 -24 -2 2
-7 -3 10 3 -4 -24 -2 2
-7 -4 10 2 -5 -25 -3 3
-7 -4 10 2 -5 -25 -3 2
-7 -3 10 2 -5 -25 -3 2
-7 -3 10 2 -5 -25 -3 1
-7 -3 10 2 -5 -25 -3 1
-7 -2 10 2 -6 -26 -4 0
-7 -2 10 2 -6 -26 -4 0
-7 -3 10 2 -6 -26 -4 1
-7 -3 10 2 -6 -26 -4 1
-7 -3 10 2 -6 -26 -4 1
-8 -4 10 2 -6 -26 -3 2
-8 -4 10 2 -6 -26 -3 2
-7 -4 10 2 -6 -25 -2 2
-7 -4 10 2 -6 -25 -2 2
-7 -4 10 2 -6 -25 -2 2
-6 -3 10 2 -6 -24 0 1
-6 -3 10 2 -6 -24 0 1
-6 -3 10 2 -6 -24 0 1
-6 -3 10 2 -6 -24 0 1
-6 -3 10 2 -6 -24 0 1
-7 -2 9 1 -7 -25 -2 1
-7 -2 9 1 -7 -25 -2 1
-7 -2 9 2 -6 -24 -2 1
-7 -2 9 2 -6 -24 -2 1
-7 -2 9 2 -6 -24 -2 1
-8 -3 10 3 -5 -23 0 2
-8 -3 10 2 -5 -23 0 2
-8 -3 9 2 -6 -23 0 2
-8 -3 9 1 -6 -23 0 2
-8 -3 9 1 -6 -23 0 2
-7 -2 8 0 -7 -24 -2 1
-7 -2 8 0 -7 -24 -2 1
-7 -2 8 0 -7 -24 -2 1
-7 -2 8 0 -7 -24 -2 1
-7 -2 8 0 -7 -24 -2 1
-7 -2 7 0 -8 -24 -2 1
-7 -2 7 0 -8 -24 -2 1
-7 -2 7 0 -8 -24 -2 1
-7 -2 7 0 -8 -24 -2 1
-7 -2 7 0 -8 -24 -2 1
-7 -2 8 -2 -7 -24 0 2
-7 -2 8 -2 -7 -24 0 2
-7 -2 8 -2 -7 -24 0 2
-7 -2 8 -2 -7 -24 0 2
-7 -2 8 -2 -7 -24 0 2
-7 -2 7 0 -8 -24 -2 1
-7 -2 7 0 -8 -24 -2 1
-7 -2 7 0 -8 -24 -2 1
-7 -2 7 0 -8 -24 -2 1
-7 -2 7 0 -8 -24 -2 1
-7 -2 8 -2 -8 -23 -2 2
-7 -2 8 -2 -8 -23 -2 2
-7 -2 8 -2 -8 -23 -2 2
-7 -2 8 -2 -8 -23 -2 2
-7 -2 8 -2 -8 -23 -2 2
-6 -2 7 0 -8 -23 -2 1
-6 -2 7 0 -8 -23 -2 1
-6 -2 7 0 -8 -23 -2 1
-6 -2 7 0 -8 -23 -2 1
-6 -2 7 0 -8 -23 -2 1
-6 -3 8 -2 -8 -22 -2 1
-6 -3 8 -2 -8 -22 -2 1
-7 -3 7 -2 -8 -22 -2 0
-7 -3 7 -2 -8 -22 -2 0
-7 -3 7 -2 -8 -22 -2 0
-8 -3 6 -2 -9 -23 -3 -2
-8 -3 6 -2 -9 -23 -3 -2
-7 -3 6 -2 -9 -22 -3 -2
-7 -3 6 -2 -9 -22 -3 -2
-7 -3 6 -2 -9 -22 -3 -2
-6 -2 6 -2 -9 -21 -3 0
-7 -2 6 -2 -9 -21 -3 0
-7 -2 6 -2 -9 -21 -3 0
-8 -2 6 -2 -9 -21 -3 0
-8 -2 6 -2 -9 -21 -3 0
-9 -3 6 0 -9 -22 -3 0
-9 -3 6 0 -9 -22 -3 0
-8 -2 6 0 -9 -22 -3 0
-8 -2 6 0 -9 -22 -3 0
-8 -2 6 0 -9 -22 -3 0
-7 0 5 -2 -10 -22 -3 0
-7 0 5 -2 -10 -22 -3 0
-7 1 5 -2 -10 -22 -3 0
-7 1 5 -2 -10 -22 -3 0
-7 1 5 -2 -10 -22 -3 0
-6 2 5 -3 -10 -21 -2 0
-6 2 5 -3 -10 -21 -2 0
-7 1 5 -3 -10 -21 -2 0
-7 1 5 -3 -10 -21 -2 0
-7 1 5 -3 -10 -21 -2 0
-8 0 4 -3 -11 -21 -3 0
-8 0 4 -3 -11 -21 -3 0
-8 -2 4 -3 -11 -21 -3 0
-8 -2 4 -3 -11 -21 -3 0
-8 -2 4 -3 -11 -21 -3 0
-9 -3 4 -3 -11 -21 -3 0
-8 -3 4 -3 -11 -21 -3 0
-8 -3 4 -3 -11 -21 -3 0
-7 -3 4 -3 -11 -21 -3 0
-7 -3 4 -3 -11 -21 -3 0
-6 -2 4 -3 -11 -21 -3 -2
-6 -2 4 -3 -11 -21 -3 -2
-7 -2 4 -3 -11 -21 -3 -2
-7 -2 4 -3 -11 -21 -3 -2
-7 -2 4 -3 -11 -21 -3 -2
-8 -2 3 -3 -11 -21 -4 0
-8 -2 3 -3 -11 -21 -4 0
-8 -2 3 -4 -11 -21 -4 0
-8 -2 3 -4 -11 -21 -4 0
-8 -2 3 -4 -11 -21 -4 0
-8 -2 3 -5 -12 -20 -4 0
-8 -2 3 -5 -12 -20 -4 0
-8 -2 3 -5 -12 -20 -4 0
-8 -2 3 -5 -12 -20 -4 0
-8 -2 3 -5 -12 -20 -4 0
-7 0 3 -4 -11 -19 -3 0
-7 0 3 -4 -11 -19 -3 0
-7 0 3 -4 -11 -19 -3 0
-7 0 3 -4 -11 -19 -3 0
-7 0 3 -4 -11 -19 -3 0
-7 -2 2 -5 -12 -19 -2 1
-7 -2 2 -5 -12 -19 -2 1
-7 0 2 -4 -11 -18 -2 1
-7 0 2 -4 -11 -18 -2 1
-7 0 2 -4 -11 -18 -2 1
-6 1 3 -3 -10 -17 0 2
-6 1 3 -3 -10 -17 0 2
-5 1 2 -3 -11 -17 0 2
-5 1 2 -3 -11 -17 0 2
-5 1 2 -3 -11 -17 0 2
-4 1 1 -4 -12 -17 -2 2
-4 2 2 -3 -10 -16 0 2
-4 3 3 -2 -9 -15 1 3
-4 5 4 0 -8 -15 1 3
-4 6 5 1 -7 -14 2 3
-3 7 6 2 -6 -13 3 4
-3 8 7 2 -6 -12 4 4
-3 9 8 2 -5 -12 4 4
-3 10 8 2 -5 -11 5 4
-3 11 9 2 -5 -11 5 4
-2 12 10 3 -4 -10 6 5
-2 12 10 5 -3 -10 6 5
-2 11 9 6 -3 -10 6 6
-2 11 9 7 -2 -10 6 6
-2 11 9 8 -2 -10 6 6
1 10 7 9 0 -10 6 7
2 11 6 8 0 -10 6 7
3 11 5 7 0 -10 6 8
5 12 3 7 0 -10 6 8
6 12 2 6 0 -10 6 8
7 13 1 5 -2 -9 7 9
7 13 0 5 -2 -9 7 9
6 13 -2 4 -3 -8 7 9
6 13 -3 4 -3 -8 7 9
6 13 -4 4 -3 -8 7 9
5 13 -5 3 -4 -7 7 8
6 11 -5 2 -4 -7 7 8
7 9 -6 2 -4 -7 6 8
7 7 -6 1 -4 -7 6 8
8 5 -6 1 -4 -7 6 8
9 4 -7 0 -6 -8 5 7
9 3 -7 -2 -7 -9 4 6
9 3 -7 -3 -8 -9 3 5
9 2 -7 -4 -10 -10 2 4
9 2 -7 -5 -11 -10 1 3
7 1 -8 -6 -12 -11 0 2
5 1 -8 -7 -12 -11 0 2
4 1 -8 -7 -13 -10 0 2
2 1 -8 -8 -13 -10 0 2
0 1 -8 -8 -13 -10 0 2
-3 1 -7 -9 -14 -9 -2 1
-4 0 -7 -9 -14 -9 -3 0
-6 -2 -7 -9 -15 -9 -3 -2
-7 -2 -7 -9 -15 -9 -4 -2
-9 -3 -7 -9 -15 -9 -4 -3
-10 -4 -6 -9 -16 -9 -5 -4
-10 -4 -6 -10 -16 -9 -5 -4
-10 -4 -7 -10 -17 -10 -6 -5
-10 -4 -7 -11 -17 -10 -6 -5
-10 -4 -7 -11 -17 -10 -6 -5
-9 -5 -8 -12 -18 -11 -7 -6
-9 -5 -8 -12 -18 -11 -7 -6
-9 -5 -8 -12 -19 -10 -7 -6
-9 -5 -8 -12 -19 -10 -7 -6
-9 -5 -8 -12 -19 -10 -7 -6
-9 -6 -8 -13 -20 -9 -7 -6
-9 -6 -8 -13 -20 -9 -7 -6
-9 -6 -8 -13 -20 -9 -8 -7
-9 -6 -8 -13 -20 -9 -8 -7
-9 -6 -8 -13 -20 -9 -8 -7
-10 -5 -9 -14 -20 -9 -9 -8
-11 -5 -9 -13 -20 -8 -8 -8
-11 -5 -9 -12 -19 -7 -7 -8
-12 -5 -9 -12 -19 -6 -7 -8
-12 -5 -9 -11 -19 -5 -6 -8
-13 -6 -8 -10 -18 -4 -5 -7
-13 -6 -7 -9 -18 -4 -5 -8
-13 -6 -6 -9 -17 -4 -5 -8
-13 -6 -5 -8 -17 -4 -5 -9
-13 -6 -4 -8 -17 -4 -5 -9
-13 -7 -2 -6 -16 -2 -6 -10
-14 -6 0 -5 -14 1 -5 -10
-14 -6 2 -3 -13 2 -5 -11
-15 -5 3 -2 -11 4 -4 -11
-15 -5 5 1 -10 6 -4 -11
-14 -2 7 8 -2 12 4 -8
-11 3 10 18 10 21 13 -2
-8 6 12 28 21 29 22 6
-5 10 15 38 32 37 31 12
-2 13 18 49 44 47 40 18
17 20 13 55 59 58 57 31
42 29 3 60 75 70 77 47
66 37 -8 64 93 82 97 63
91 46 -18 69 110 95 117 78
116 55 -27 73 127 108 138 94
130 65 -43 59 125 112 146 105
139 76 -61 32 112 110 149 113
148 88 -79 7 100 109 152 121
157 99 -97 -19 88 107 155 131
167 110 -115 -45 75 106 158 139
150 103 -121 -69 46 88 136 127
120 86 -119 -94 7 60 100 102
91 69 -118 -117 -31 32 65 78
60 52 -117 -141 -69 5 29 55
30 34 -116 -165 -107 -23 -7 30
13 23 -111 -174 -126 -37 -26 15
2 15 -103 -174 -133 -46 -36 5
-11 7 -96 -175 -141 -54 -48 -7
-22 -2 -88 -175 -148 -63 -58 -17
-34 -10 -80 -175 -156 -71 -69 -28
-37 -13 -74 -164 -150 -71 -70 -32
-34 -13 -70 -148 -137 -65 -65 -31
-32 -12 -65 -131 -122 -59 -59 -29
-29 -11 -61 -113 -108 -53 -54 -28
-26 -11 -56 -96 -94 -47 -48 -27
-25 -10 -50 -83 -83 -39 -44 -25
-23 -10 -44 -73 -74 -33 -38 -24
-22 -9 -37 -62 -65 -27 -34 -22
-20 -9 -31 -52 -56 -20 -29 -20
-19 -9 -25 -41 -48 -14 -25 -18
-18 -8 -21 -35 -41 -10 -23 -17
-17 -8 -19 -32 -38 -7 -21 -17
-16 -8 -17 -28 -34 -4 -20 -17
-15 -8 -15 -25 -31 0 -18 -17
-14 -8 -13 -22 -28 3 -17 -17
-13 -8 -12 -20 -26 5 -16 -16
-13 -8 -11 -19 -25 6 -16 -16
-14 -9 -10 -17 -24 8 -16 -17
-14 -10 -10 -16 -23 9 -16 -18
-14 -10 -9 -15 -22 11 -16 -18
-15 -11 -8 -14 -21 13 -15 -19
-15 -11 -8 -14 -21 14 -14 -19
-14 -10 -8 -14 -21 16 -13 -19
-14 -10 -8 -14 -21 17 -12 -19
-14 -10 -8 -14 -21 19 -11 -19
-13 -9 -7 -14 -20 20 -10 -19
-13 -9 -7 -13 -20 20 -10 -19
-13 -9 -7 -12 -20 19 -10 -18
-13 -9 -7 -11 -20 18 -10 -18
-13 -9 -7 -10 -20 18 -10 -18
-13 -9 -6 -9 -20 17 -10 -17
-12 -8 -6 -9 -20 16 -10 -16
-11 -7 -6 -9 -19 14 -10 -15
-10 -6 -6 -9 -18 13 -10 -14
-9 -5 -6 -9 -18 12 -10 -13
-8 -4 -6 -9 -17 10 -9 -12
-8 -4 -6 -9 -17 8 -9 -12
-8 -5 -6 -9 -17 5 -9 -12
-8 -6 -6 -9 -17 3 -9 -12
-8 -6 -6 -9 -17 0 -9 -12
-9 -7 -5 -8 -17 -2 -10 -12
-9 -7 -5 -8 -17 -3 -10 -12
-9 -7 -5 -8 -17 -4 -10 -12
-9 -7 -5 -8 -17 -4 -10 -12
-9 -7 -5 -8 -17 -5 -10 -12
-9 -6 -5 -8 -16 -6 -10 -13
-9 -6 -5 -8 -16 -6 -11 -14
-9 -7 -4 -7 -16 -5 -12 -15
-9 -7 -4 -6 -16 -5 -12 -15
-9 -7 -4 -6 -16 -5 -13 -16
-8 -8 -3 -5 -16 -3 -14 -17
-8 -8 -3 -5 -16 0 -14 -17
-8 -8 -3 -5 -15 3 -14 -18
-8 -8 -3 -5 -14 5 -14 -18
-8 -8 -3 -5 -14 8 -14 -18
-9 -7 -4 -4 -13 10 -14 -19
-9 -7 -4 -4 -13 12 -14 -20
-9 -7 -4 -4 -13 14 -15 -21
-9 -7 -4 -4 -13 16 -15 -21
-9 -7 -4 -4 -13 18 -15 -22
-8 -8 -4 -5 -14 19 -16 -23
-8 -8 -4 -5 -14 20 -16 -23
-8 -8 -4 -4 -13 21 -15 -24
-8 -8 -4 -4 -12 21 -14 -24
-8 -8 -4 -4 -12 22 -14 -24
-7 -7 -5 -3 -11 23 -13 -25
-7 -7 -5 -3 -11 23 -13 -26
-7 -7 -5 -2 -11 23 -12 -28
-7 -7 -5 0 -11 23 -12 -29
-7 -7 -5 0 -11 23 -12 -30
-6 -7 -4 1 -10 22 -11 -31
-6 -7 -4 1 -10 21 -11 -31
-6 -7 -5 0 -10 19 -11 -32
-6 -7 -5 -2 -10 18 -11 -33
-6 -7 -5 -2 -10 17 -11 -33
-5 -7 -6 -3 -10 16 -11 -34
-5 -7 -6 -3 -10 16 -10 -33
-5 -8 -6 -2 -10 16 -9 -31
-5 -8 -6 0 -10 16 -8 -30
-5 -8 -6 0 -10 16 -7 -29
-6 -9 -5 1 -10 15 -6 -28
-6 -9 -5 1 -10 16 -6 -26
-5 -8 -5 1 -9 18 -5 -25
-4 -7 -5 1 -9 19 -5 -23
-4 -7 -5 1 -9 20 -5 -22
-3 -6 -6 1 -8 21 -4 -21
-3 -6 -6 1 -8 22 -4 -21
-2 -6 -6 1 -8 24 -4 -21
-2 -6 -6 1 -8 25 -4 -21
-2 -6 -6 1 -8 26 -4 -21
0 -7 -7 2 -9 27 -5 -21
0 -7 -7 2 -9 28 -5 -21
0 -7 -7 2 -8 29 -4 -22
0 -7 -7 2 -8 30 -4 -22
0 -7 -7 2 -8 31 -4 -22
0 -6 -8 2 -7 32 -3 -23
0 -6 -8 2 -7 32 -3 -23
0 -6 -8 3 -7 32 -4 -23
0 -6 -8 3 -7 32 -4 -23
0 -6 -8 3 -7 32 -4 -23
1 -6 -9 4 -7 32 -5 -23
2 -5 -9 4 -7 32 -4 -22
4 -3 -10 3 -6 32 -3 -21
5 -2 -10 3 -6 32 -3 -20
6 0 -10 3 -6 32 -2 -19
7 1 -11 2 -5 31 0 -18
7 1 -11 2 -5 31 0 -18
7 1 -12 2 -5 30 -2 -17
7 1 -13 2 -5 29 -2 -17
7 1 -13 2 -5 29 -2 -17
7 1 -14 3 -4 28 -3 -16
8 1 -14 3 -4 28 -2 -14
9 2 -14 3 -3 28 0 -12
10 2 -14 3 -3 28 0 -11
11 2 -14 3 -3 28 1 -9
12 3 -14 3 -2 27 2 -8
12 3 -15 3 -2 27 2 -7
13 4 -16 3 -2 26 2 -6
13 4 -16 3 -2 26 2 -6
13 4 -17 3 -2 26 2 -5
14 5 -18 3 -2 25 3 -4
15 6 -19 2 -2 25 4 -3
17 8 -20 1 -3 25 5 -2
18 9 -20 1 -3 25 5 -2
19 10 -21 0 -3 25 6 0
20 11 -22 -2 -4 25 7 1
20 11 -22 -2 -4 25 7 1
21 11 -23 -2 -4 24 7 1
21 11 -23 -2 -4 24 7 1
21 11 -23 -2 -4 24 7 1
22 11 -24 0 -3 23 6 2
23 12 -24 0 -3 23 6 2
24 14 -25 -2 -3 22 6 3
25 15 -25 -2 -3 22 6 3
26 16 -25 -2 -3 22 6 3
27 17 -26 -3 -3 21 7 4
27 17 -26 -3 -3 20 7 5
27 17 -27 -3 -3 19 7 6
27 17 -27 -3 -3 18 7 6
27 17 -27 -3 -3 17 7 7
26 18 -28 -3 -2 16 6 8
26 19 -28 -3 -2 16 6 8
27 20 -28 -4 -2 15 7 9
27 20 -28 -4 -2 14 7 10
27 21 -28 -4 -2 14 7 10
28 22 -29 -5 0 13 8 11
28 22 -29 -5 0 12 8 11
29 22 -29 -5 0 11 8 11
30 22 -29 -5 0 11 8 11
30 22 -29 -5 0 10 8 11
31 22 -29 -4 0 9 8 12
30 22 -28 -3 1 9 8 12
29 22 -26 -2 2 10 9 12
28 22 -25 -2 2 10 10 12
27 22 -24 0 3 10 10 12
26 22 -23 1 4 11 11 13
26 22 -21 3 6 12 12 13
25 22 -20 5 7 14 13 12
24 22 -19 6 8 15 13 12
24 22 -17 8 10 16 14 12
22 22 -16 9 11 17 15 11
20 21 -15 9 11 18 15 11
18 20 -13 10 12 20 15 11
16 19 -12 11 13 21 15 11
14 18 -11 11 13 22 15 11
13 17 -10 12 14 23 16 11
11 17 -8 12 14 24 16 10
10 16 -6 12 14 25 16 9
9 15 -5 12 14 25 16 8
7 15 -3 12 14 26 16 7
6 14 -2 13 15 27 17 6
5 13 -2 13 15 28 17 4
4 12 0 13 15 29 16 2
4 11 0 13 15 30 15 1
3 10 0 13 15 31 15 -2
2 9 1 12 14 32 14 -3
0 7 1 12 13 33 14 -3
-3 5 1 12 12 34 14 -3
-4 4 1 12 12 35 14 -3
-6 2 1 12 11 36 14 -3
-7 1 2 11 10 37 14 -4
-7 1 2 10 9 37 14 -4
-7 0 2 9 7 37 13 -4
-7 0 2 8 6 37 13 -4
-7 0 2 7 5 37 13 -4
-7 -2 1 6 4 38 12 -4
-7 -2 1 6 4 37 11 -4
-7 -3 1 5 3 36 10 -4
-7 -4 1 5 2 35 9 -4
-7 -4 1 5 2 34 8 -4
-8 -5 2 4 1 33 7 -5
-8 -5 2 4 1 33 7 -5
-9 -5 2 3 0 32 7 -5
-9 -5 2 3 0 31 7 -5
-9 -5 2 3 0 31 7 -5
-10 -5 1 2 -2 30 6 -6
-10 -5 1 2 -2 28 5 -6
-10 -5 1 2 -2 27 4 -6
-10 -5 1 2 -2 26 3 -6
-10 -5 1 2 -2 24 2 -6
-10 -6 1 1 -3 23 1 -5
-10 -6 1 1 -3 21 1 -5
-10 -6 1 1 -3 20 0 -5
-10 -6 1 1 -3 19 -2 -5
-10 -6 1 1 -3 17 -2 -5
-10 -6 1 0 -4 16 -3 -6
-10 -6 1 0 -4 16 -3 -6
-10 -6 1 0 -5 15 -3 -6
-10 -6 1 0 -6 14 -3 -6
-10 -6 1 0 -6 14 -3 -6
-11 -7 1 -2 -7 13 -4 -7
-11 -7 1 -2 -7 13 -4 -7
-11 -7 1 -2 -7 13 -4 -7
-11 -7 1 -2 -7 13 -3 -7
-11 -7 1 -2 -7 13 -3 -7
-11 -6 2 -2 -6 12 -2 -6
-11 -6 2 -2 -6 12 -2 -6
-11 -6 2 -2 -6 12 -2 -6
-11 -6 2 -2 -6 12 -2 -6
-11 -6 2 -2 -6 12 -2 -6
-10 -5 1 -2 -6 11 -3 -7
-10 -5 1 -2 -6 11 -3 -7
-10 -4 1 -2 -6 12 -3 -7
-10 -3 1 -2 -6 13 -3 -8
-10 -3 1 -2 -6 13 -3 -8
-9 -2 1 -2 -7 14 -3 -9
-9 -2 1 -2 -7 14 -3 -9
-9 -3 1 -2 -7 14 -2 -9
-10 -4 1 -2 -7 15 0 -9
-10 -4 1 -2 -7 15 0 -9
-11 -5 2 0 -6 16 1 -10
-11 -5 2 0 -6 16 1 -10
-11 -5 2 0 -6 16 1 -10
-11 -5 2 0 -5 16 1 -10
-11 -5 2 0 -5 16 1 -10
-10 -5 2 -2 -4 15 1 -9
-10 -5 2 -2 -4 15 1 -8
-10 -5 2 -2 -4 14 1 -8
-10 -5 2 -2 -4 13 1 -7
-10 -5 2 -2 -4 13 1 -6
-9 -4 1 0 -3 12 1 -5
-9 -4 1 0 -3 12 1 -5
-9 -4 1 0 -3 12 1 -5
-9 -4 1 0 -3 11 1 -4
-9 -4 1 0 -3 11 1 -4
-9 -4 2 0 -3 10 2 -3
-9 -4 2 0 -3 10 2 -3
-9 -4 2 0 -3 10 2 -3
-9 -4 2 0 -3 9 1 -4
-9 -4 2 0 -3 9 1 -4
-10 -3 3 -2 -2 8 0 -5
-10 -3 3 -2 -2 8 0 -5
-10 -3 3 -2 -2 8 0 -5
-10 -3 3 -2 -3 8 0 -5
-10 -3 3 -2 -3 8 0 -5
-9 -4 2 -2 -4 9 -2 -5
-9 -4 2 -2 -4 9 -2 -5
-9 -4 2 -2 -4 10 -2 -5
-9 -4 2 -2 -4 11 -2 -5
-9 -4 2 -2 -4 11 -2 -5
-9 -4 2 -2 -4 12 -3 -5
-9 -4 2 -2 -4 12 -3 -5
-9 -4 2 -2 -5 11 -3 -5
-9 -4 2 -2 -6 10 -4 -5
-9 -4 2 -2 -6 10 -4 -5
-10 -4 2 -3 -7 9 -5 -5
-10 -4 2 -3 -7 9 -5 -5
-10 -4 2 -3 -7 9 -5 -5
-10 -4 2 -3 -6 9 -5 -5
-10 -4 2 -3 -6 9 -5 -5
-10 -4 3 -3 -5 8 -4 -6
-10 -4 3 -3 -5 7 -4 -6
-10 -4 3 -4 -5 7 -4 -6
-10 -4 3 -5 -6 6 -4 -6
-10 -4 3 -5 -6 5 -4 -6
-10 -4 2 -6 -7 4 -3 -6
-10 -4 2 -6 -7 4 -3 -6
-10 -4 2 -6 -7 4 -3 -6
-10 -5 2 -6 -7 3 -3 -6
-10 -5 2 -6 -7 3 -3 -6
-10 -6 3 -6 -8 2 -4 -7
-10 -6 3 -6 -8 2 -4 -7
-10 -6 3 -6 -8 2 -4 -7
-11 -6 3 -6 -9 2 -4 -8
-11 -6 3 -6 -9 2 -4 -8
-12 -5 3 -7 -10 1 -5 -9
-12 -5 3 -7 -10 1 -5 -9
-12 -5 3 -7 -10 1 -5 -9
-12 -5 3 -6 -9 1 -5 -8
-12 -5 3 -6 -9 1 -5 -8
-11 -6 3 -5 -8 2 -4 -7
-11 -6 3 -5 -8 2 -4 -7
-11 -6 3 -5 -8 2 -4 -7
-11 -6 4 -6 -8 3 -4 -7
-11 -6 4 -6 -8 3 -4 -7
-11 -7 5 -7 -9 4 -4 -6
-11 -7 5 -7 -9 4 -4 -6
-11 -7 5 -7 -9 4 -4 -6
-11 -7 4 -7 -9 4 -5 -7
-11 -7 4 -7 -9 4 -5 -7
-12 -8 3 -7 -10 3 -6 -8
-12 -8 3 -7 -10 3 -6 -8
-12 -8 3 -7 -10 3 -6 -8
-12 -8 3 -7 -10 3 -6 -8
-12 -8 3 -7 -10 3 -6 -8
-11 -9 4 -8 -11 3 -7 -7
-11 -9 4 -8 -11 3 -7 -7
-11 -9 4 -8 -11 2 -7 -7
-11 -9 4 -8 -11 1 -8 -7
-11 -9 4 -8 -11 1 -8 -7
-12 -9 4 -8 -11 0 -9 -8
-12 -9 4 -8 -11 0 -9 -8
-12 -9 4 -8 -11 0 -9 -8
-12 -9 4 -8 -11 -2 -9 -8
-12 -9 4 -8 -11 -2 -9 -8
-11 -9 4 -9 -10 -3 -9 -8
-11 -9 4 -9 -10 -3 -9 -8
-11 -9 4 -9 -10 -3 -9 -8
-11 -9 4 -9 -11 -3 -9 -8
-11 -9 4 -9 -11 -3 -9 -8
-12 -9 4 -10 -12 -4 -10 -9
-12 -9 4 -10 -12 -4 -10 -9
-12 -9 4 -10 -12 -4 -10 -9
-12 -9 4 -10 -12 -5 -10 -9
-12 -9 4 -10 -12 -5 -10 -9
-12 -9 4 -11 -12 -6 -9 -8
-12 -9 4 -11 -12 -6 -9 -8
-12 -9 4 -11 -12 -6 -9 -8
-12 -9 4 -11 -12 -6 -9 -8
-12 -9 4 -11 -12 -6 -9 -8
-12 -9 4 -10 -12 -7 -10 -9
-12 -9 4 -10 -12 -7 -10 -9
-12 -9 4 -10 -12 -7 -10 -9
-12 -9 4 -10 -12 -6 -10 -8
-12 -9 4 -10 -12 -6 -10 -8
-13 -9 3 -11 -12 -5 -9 -7
-13 -9 3 -11 -12 -5 -9 -7
-13 -9 3 -11 -12 -5 -9 -7
-13 -9 3 -11 -12 -5 -9 -7
-13 -9 3 -11 -12 -5 -9 -7
-13 -9 3 -10 -12 -6 -10 -8
-13 -9 3 -10 -12 -6 -10 -8
-13 -9 3 -10 -12 -5 -10 -8
-13 -8 3 -10 -12 -4 -9 -8
-13 -8 3 -10 -12 -4 -9 -8
-13 -7 4 -9 -12 -3 -8 -7
-13 -7 4 -9 -12 -3 -8 -7
-13 -7 4 -9 -12 -3 -8 -7
-13 -7 4 -9 -11 -3 -8 -7
-13 -7 4 -9 -11 -3 -8 -7
-12 -8 4 -9 -10 -3 -9 -7
-12 -8 4 -9 -10 -3 -9 -7
-12 -8 4 -9 -10 -3 -9 -7
-12 -8 4 -9 -10 -3 -9 -7
-12 -8 4 -9 -10 -3 -9 -7
-12 -7 4 -9 -10 -3 -8 -7
-12 -7 4 -9 -10 -3 -8 -7
-12 -7 4 -9 -10 -3 -8 -7
-11 -7 4 -9 -10 -3 -8 -7
-11 -7 4 -9 -10 -3 -8 -7
-10 -8 4 -9 -10 -2 -8 -8
-10 -8 4 -9 -10 -2 -8 -8
-10 -8 4 -9 -10 -2 -8 -8
-10 -8 4 -9 -10 -2 -8 -8
-10 -8 4 -9 -10 -2 -8 -8
-11 -7 5 -8 -10 -2 -9 -7
-11 -7 5 -8 -10 -2 -9 -7
-11 -7 5 -8 -10 -2 -9 -7
-11 -7 5 -8 -10 -2 -9 -7
-11 -7 5 -8 -10 -2 -9 -7
-11 -8 4 -8 -9 -2 -8 -8
-11 -8 4 -8 -9 -2 -8 -8
-11 -8 4 -8 -9 -2 -8 -8
-11 -8 4 -8 -9 -2 -8 -8
-11 -8 4 -8 -9 -2 -8 -8
-11 -7 5 -8 -9 0 -8 -7
-11 -7 5 -8 -9 0 -8 -7
-11 -7 5 -8 -9 0 -8 -7
-11 -7 5 -8 -9 0 -8 -7
-11 -7 5 -8 -9 0 -8 -7
-10 -6 4 -8 -9 0 -9 -7
-10 -6 4 -8 -9 0 -9 -7
-10 -6 4 -8 -9 0 -9 -7
-10 -6 4 -8 -9 0 -9 -7
-10 -6 4 -8 -9 0 -9 -7
-10 -6 5 -8 -9 1 -8 -7
-10 -6 5 -8 -9 1 -8 -7
-10 -6 5 -8 -9 1 -8 -7
-10 -6 5 -7 -8 1 -8 -7
-10 -6 5 -7 -8 1 -8 -7
-10 -7 5 -6 -7 0 -8 -6
-10 -7 5 -6 -7 0 -8 -6
-10 -7 5 -6 -7 0 -8 -6
-10 -6 5 -6 -8 -2 -8 -6
-10 -6 5 -6 -8 -2 -8 -6
-10 -5 4 -7 -9 -3 -8 -7
-10 -5 4 -7 -9 -3 -8 -7
-10 -5 4 -7 -9 -3 -8 -7
-10 -5 4 -7 -9 -3 -7 -7
-10 -5 4 -7 -9 -3 -7 -7
-9 -6 4 -7 -8 -4 -6 -6
-9 -6 4 -7 -8 -4 -6 -6
-9 -6 4 -7 -8 -4 -6 -6
-8 -6 4 -7 -8 -3 -6 -6
-8 -6 4 -7 -8 -3 -6 -6
-7 -5 5 -6 -7 -2 -6 -5
-7 -5 5 -6 -7 -2 -6 -5
-8 -5 5 -6 -7 -2 -6 -5
-9 -5 5 -6 -7 -2 -6 -6
-9 -5 5 -6 -7 -2 -6 -6
-10 -5 5 -5 -7 -2 -6 -7
-9 -5 5 -5 -7 -2 -6 -7
-8 -4 5 -5 -7 -2 -6 -7
-7 -4 5 -5 -7 -2 -6 -7
-5 -3 5 -5 -7 -2 -6 -7
-4 -2 5 -5 -6 -2 -5 -7
-4 0 6 -3 -5 0 -4 -6
-4 0 7 -2 -3 2 -4 -6
-3 1 8 1 -2 3 -3 -5
-3 2 10 2 1 5 -2 -4
-2 3 11 4 2 6 0 -3
-2 4 11 4 2 6 0 -2
-2 5 12 4 3 7 0 -2
-2 6 12 4 3 7 1 0
-2 7 13 4 4 8 1 1
-2 8 14 5 5 9 2 2
-2 8 14 6 5 9 2 2
0 8 14 7 6 9 3 2
0 8 14 8 6 9 3 2
1 8 14 9 7 9 4 2
2 7 14 10 8 9 5 1
2 7 13 10 8 9 5 2
3 8 11 10 8 10 5 3
3 8 10 9 8 10 5 4
4 9 8 9 8 11 5 5
5 10 7 8 7 12 6 6
5 10 7 8 7 12 6 6
5 10 6 8 7 12 6 6
4 10 6 8 7 11 6 5
4 10 5 8 7 11 6 5
3 10 4 7 6 10 6 4
4 8 4 7 6 9 6 4
4 7 4 6 6 9 5 4
5 5 3 6 5 8 5 3
6 4 3 5 5 7 4 3
7 2 2 4 4 6 3 2
7 2 2 3 3 5 3 1
7 1 2 2 2 4 2 1
7 1 1 1 1 3 2 0
7 0 1 0 -2 2 1 -2
7 -2 0 -2 -3 1 0 -3
5 -2 0 -2 -3 1 0 -3
4 -2 0 -3 -3 1 -2 -3
2 -2 0 -3 -3 1 -2 -3
1 -2 0 -4 -3 1 -3 -3
-2 0 1 -5 -4 1 -4 -2
-3 -2 1 -5 -4 1 -4 -3
-5 -3 1 -5 -4 0 -4 -4
-6 -4 1 -5 -5 0 -5 -5
-8 -5 1 -5 -5 -2 -5 -6
-9 -6 2 -5 -6 -3 -6 -7
-9 -6 2 -5 -6 -3 -6 -7
-9 -7 2 -6 -7 -3 -7 -7
-9 -7 2 -6 -7 -3 -7 -8
-9 -8 2 -7 -8 -3 -8 -8
-10 -9 3 -8 -9 -4 -9 -9
-10 -9 3 -8 -9 -4 -9 -9
-10 -9 3 -8 -9 -4 -9 -9
-10 -9 3 -8 -9 -4 -9 -9
-10 -9 3 -8 -9 -4 -9 -9
-10 -9 3 -8 -9 -4 -8 -9
-10 -9 3 -8 -9 -4 -8 -9
-10 -9 3 -8 -9 -4 -8 -9
-10 -9 3 -8 -9 -4 -8 -9
-10 -9 3 -8 -9 -4 -8 -9
-10 -8 2 -7 -9 -3 -8 -9
-10 -8 2 -7 -9 -3 -8 -9
-10 -8 3 -6 -8 -2 -8 -9
-11 -8 3 -6 -8 -2 -7 -9
-11 -8 4 -5 -7 0 -7 -9
-12 -7 5 -4 -6 1 -6 -8
-12 -8 5 -4 -6 1 -6 -9
-12 -8 6 -4 -6 1 -6 -10
-12 -9 6 -3 -6 1 -7 -11
-12 -10 7 -3 -6 1 -7 -12
-13 -11 8 -2 -6 0 -8 -13
-14 -10 10 1 -4 1 -7 -12
-14 -9 12 3 -2 2 -7 -12
-15 -8 15 4 0 3 -6 -11
-16 -7 17 6 2 5 -5 -10
-16 -5 19 11 7 8 -2 -8
-10 -2 21 22 20 17 10 0
-3 3 23 34 33 27 21 6
4 7 25 46 46 36 31 13
10 11 27 58 59 47 43 20
20 16 26 67 73 57 56 29
43 25 14 69 90 70 79 49
64 35 2 71 106 85 103 68
86 45 -11 73 122 98 126 87
108 55 -23 75 139 112 149 106
126 63 -36 70 147 121 167 121
132 70 -53 43 132 116 165 127
137 77 -69 15 115 112 164 132
143 85 -86 -12 99 107 163 137
148 92 -102 -39 82 102 162 142
146 95 -114 -66 61 91 152 140
116 78 -110 -89 21 59 112 113
87 63 -106 -112 -19 27 73 88
57 47 -102 -135 -59 -4 34 61
27 31 -98 -157 -99 -35 -6 35
3 18 -94 -174 -130 -60 -37 13
-6 10 -88 -168 -134 -68 -47 4
-14 2 -82 -161 -138 -76 -56 -7
-22 -6 -76 -156 -143 -83 -65 -16
-29 -14 -71 -150 -147 -92 -74 -25
-36 -20 -65 -142 -148 -97 -80 -33
-33 -19 -61 -129 -134 -90 -74 -31
-30 -17 -56 -115 -118 -82 -68 -29
-27 -16 -51 -102 -104 -75 -61 -28
-25 -15 -46 -89 -89 -69 -55 -26
-22 -13 -40 -76 -75 -62 -49 -24
-21 -13 -35 -67 -67 -57 -45 -23
-19 -12 -29 -57 -59 -51 -39 -21
-18 -12 -23 -47 -50 -46 -35 -19
-17 -11 -18 -37 -41 -40 -30 -18
-15 -10 -13 -29 -34 -35 -26 -16
-15 -10 -11 -26 -31 -33 -25 -16
-15 -11 -9 -22 -28 -31 -23 -16
-14 -12 -8 -19 -25 -29 -22 -16
-14 -13 -6 -16 -23 -27 -21 -16
-13 -14 -4 -13 -20 -25 -19 -15
-13 -14 -4 -12 -19 -24 -19 -15
-13 -14 -4 -11 -18 -22 -19 -15
-12 -14 -3 -10 -17 -20 -18 -15
-12 -14 -3 -9 -16 -19 -18 -15
-11 -14 -2 -8 -15 -17 -17 -16
-11 -14 -2 -8 -15 -16 -16 -16
-11 -14 -2 -8 -14 -15 -15 -16
-11 -14 0 -8 -14 -14 -14 -16
-11 -14 0 -8 -13 -13 -13 -16
-12 -13 1 -7 -12 -12 -12 -15
-12 -13 1 -7 -12 -12 -12 -15
-12 -13 1 -7 -12 -12 -12 -14
-12 -14 1 -6 -12 -13 -12 -13
-12 -14 1 -6 -12 -13 -12 -12
-12 -15 1 -5 -12 -14 -11 -11
-12 -15 1 -5 -12 -16 -11 -11
-12 -15 1 -5 -12 -19 -11 -11
-12 -14 1 -5 -12 -21 -11 -10
-12 -14 1 -5 -12 -24 -11 -10
-11 -13 2 -5 -11 -26 -12 -9
-11 -13 2 -5 -11 -28 -12 -9
-11 -13 2 -5 -11 -29 -12 -9
-11 -13 2 -4 -11 -31 -12 -9
-11 -13 2 -4 -11 -33 -12 -9
-10 -13 3 -3 -12 -35 -13 -10
-10 -13 3 -3 -12 -36 -13 -10
-10 -13 3 -3 -12 -38 -13 -10
-9 -13 3 -3 -12 -39 -13 -10
-9 -13 3 -3 -12 -40 -13 -10
-8 -12 2 -3 -12 -43 -13 -10
-8 -12 2 -3 -12 -43 -13 -10
-8 -12 2 -2 -12 -41 -13 -10
-8 -12 2 -2 -11 -40 -13 -10
-8 -12 2 0 -11 -39 -13 -10
-9 -13 2 1 -10 -38 -14 -11
-9 -13 2 1 -10 -36 -14 -11
-9 -13 2 1 -10 -35 -14 -11
-8 -13 2 1 -9 -33 -14 -12
-8 -13 2 1 -9 -31 -14 -12
-7 -12 2 2 -8 -29 -15 -13
-7 -12 2 2 -8 -27 -15 -13
-7 -12 2 2 -8 -25 -15 -13
-7 -12 2 3 -8 -23 -15 -13
-7 -12 2 3 -8 -21 -15 -13
-6 -12 3 4 -7 -19 -14 -14
-6 -12 3 4 -7 -19 -14 -14
-6 -12 3 4 -7 -19 -14 -14
-6 -12 3 4 -7 -18 -14 -14
-6 -12 3 4 -7 -18 -14 -14
-5 -11 2 4 -6 -17 -14 -13
-5 -11 2 4 -6 -17 -13 -13
-5 -11 2 4 -6 -18 -12 -12
-5 -11 2 5 -6 -19 -11 -12
-5 -11 2 5 -6 -20 -10 -11
-5 -11 3 6 -5 -21 -9 -10
-5 -11 3 6 -5 -22 -9 -10
-5 -11 3 6 -5 -24 -9 -10
-5 -11 2 6 -5 -26 -9 -9
-5 -11 2 6 -5 -27 -9 -9
-4 -10 1 5 -6 -29 -8 -8
-4 -10 1 5 -6 -29 -8 -8
-4 -10 1 5 -6 -29 -8 -8
-4 -10 1 6 -5 -30 -7 -7
-4 -10 1 6 -5 -30 -7 -7
-3 -11 1 7 -4 -31 -6 -6
-3 -11 1 7 -4 -31 -6 -6
-3 -11 1 7 -4 -31 -6 -6
-3 -10 1 7 -4 -31 -6 -6
-3 -10 1 7 -4 -31 -6 -6
-2 -9 0 7 -4 -31 -7 -6
-2 -9 0 7 -4 -29 -7 -6
-2 -9 0 7 -4 -28 -7 -6
0 -9 0 7 -4 -26 -8 -6
0 -9 0 7 -4 -24 -8 -6
1 -9 0 7 -4 -22 -9 -6
1 -9 0 7 -4 -21 -9 -6
1 -9 0 7 -4 -19 -9 -6
1 -8 -2 7 -4 -17 -9 -6
1 -8 -2 7 -4 -16 -9 -6
2 -7 -3 7 -3 -14 -9 -5
2 -7 -3 7 -3 -13 -9 -5
3 -7 -3 7 -2 -12 -9 -5
4 -6 -3 7 -2 -11 -8 -4
5 -6 -3 7 0 -10 -8 -4
6 -5 -4 8 1 -9 -7 -3
6 -5 -4 8 1 -9 -7 -3
6 -5 -4 8 1 -9 -7 -3
6 -5 -4 8 1 -9 -6 -2
6 -5 -4 8 1 -9 -6 -2
6 -5 -5 9 2 -10 -5 0
6 -5 -5 9 2 -10 -5 0
7 -4 -5 9 2 -11 -4 0
8 -4 -6 9 2 -12 -4 0
9 -3 -6 9 2 -13 -3 0
10 -2 -7 10 2 -14 -2 0
10 -2 -7 10 2 -14 -2 0
10 0 -8 10 2 -15 0 1
11 1 -8 10 2 -16 1 2
11 2 -9 10 2 -17 2 3
12 3 -10 9 3 -18 3 4
13 3 -10 9 3 -18 4 4
14 3 -11 9 3 -18 5 5
15 3 -11 9 3 -18 6 6
16 3 -12 9 3 -18 7 7
17 3 -13 10 4 -18 8 8
18 4 -13 10 4 -18 8 8
19 5 -14 10 4 -18 8 9
20 6 -14 9 5 -18 8 9
21 7 -15 9 5 -18 8 10
22 9 -16 8 6 -18 9 11
22 9 -16 8 6 -18 9 11
22 9 -16 8 6 -17 9 12
23 10 -17 8 6 -16 9 12
23 10 -17 8 6 -15 9 13
24 11 -18 8 5 -14 9 14
25 12 -18 8 5 -14 9 14
26 13 -19 8 5 -13 9 15
27 14 -19 7 5 -13 9 15
28 15 -20 7 5 -12 9 16
29 16 -21 6 6 -11 10 17
29 16 -21 6 6 -11 10 17
29 17 -21 6 6 -11 10 18
30 17 -22 6 6 -11 10 18
30 18 -22 6 6 -11 10 19
31 19 -23 6 7 -10 10 20
31 19 -23 6 7 -10 10 20
31 20 -23 6 7 -10 10 20
32 20 -23 5 7 -10 10 21
32 21 -23 5 7 -10 10 21
33 22 -24 4 6 -10 10 22
33 22 -24 4 6 -10 10 22
33 22 -24 4 7 -10 11 22
33 23 -24 5 7 -11 11 23
33 23 -24 5 8 -11 12 23
32 24 -23 6 9 -12 13 24
32 24 -22 6 9 -12 13 24
32 24 -21 7 10 -12 13 24
32 24 -20 8 10 -12 14 24
32 24 -19 9 11 -12 14 24
31 23 -17 10 12 -12 15 24
30 23 -16 11 13 -12 15 24
29 23 -14 12 14 -12 16 24
27 23 -13 14 15 -11 17 24
26 23 -11 15 16 -11 18 24
24 22 -9 17 18 -10 19 23
23 22 -7 17 18 -10 19 23
21 21 -6 18 18 -9 19 22
20 20 -4 18 19 -9 19 22
18 19 -2 19 19 -8 19 21
16 18 1 20 20 -7 20 20
15 17 1 20 20 -7 20 19
14 16 2 20 20 -7 20 18
12 15 3 21 20 -6 19 17
11 14 4 21 20 -6 19 16
9 12 5 22 20 -5 18 15
8 12 5 22 20 -5 18 15
7 11 5 21 20 -4 18 15
6 11 5 20 19 -4 18 14
5 10 5 19 19 -3 18 14
4 9 6 18 18 -2 17 13
4 8 6 18 17 -2 17 13
3 7 6 18 16 -2 16 12
2 6 7 18 15 -2 16 11
1 5 7 18 14 -2 15 10
0 4 8 17 13 0 14 9
0 4 8 16 12 0 14 9
0 4 7 15 11 0 13 8
0 3 7 14 10 0 12 7
0 3 6 13 9 0 11 6
-2 2 5 12 8 0 10 5
-2 2 5 12 8 0 10 5
-2 2 5 12 8 0 10 5
-2 2 5 12 7 0 9 4
-2 2 5 12 7 0 9 4
-2 1 5 11 6 0 8 3
-2 1 5 11 6 0 8 3
-2 1 5 10 5 0 8 3
-2 0 5 10 5 -2 7 3
-2 0 5 9 4 -2 7 3
-3 -2 5 8 3 -3 6 3
-3 -2 5 8 3 -3 6 3
-3 -2 5 8 3 -3 6 3
-3 -2 5 8 3 -3 6 3
-3 -2 5 8 3 -3 6 3
-3 -3 5 8 2 -3 5 4
-3 -3 5 8 2 -4 4 4
-3 -3 5 8 2 -5 3 4
-4 -3 5 7 2 -6 2 3
-4 -3 5 7 2 -7 1 3
-5 -3 4 6 1 -8 0 2
-5 -3 4 6 1 -8 0 2
-5 -3 4 6 1 -9 0 2
-5 -3 4 7 1 -9 0 2
-5 -3 4 7 1 -10 0 2
-4 -3 4 8 0 -11 0 2
-4 -3 4 8 0 -11 0 2
-4 -3 4 8 0 -12 0 2
-4 -3 4 7 0 -12 0 3
-4 -3 4 7 0 -13 0 3
-4 -2 4 6 1 -14 1 4
-4 -2 4 6 1 -14 1 4
-4 -2 4 6 1 -13 1 4
-4 -2 4 7 1 -13 1 4
-4 -2 4 7 1 -12 1 4
-4 -3 4 8 2 -11 2 4
-4 -3 4 8 2 -10 2 4
-4 -3 4 8 2 -9 2 3
-4 -3 4 8 2 -8 2 3
-4 -3 4 8 2 -7 2 2
-4 -2 5 9 3 -6 3 1
-4 -2 5 9 3 -6 3 1
-4 -2 5 9 3 -5 3 1
-4 -2 5 9 3 -4 3 1
-4 -2 5 9 3 -3 3 1
-5 -2 5 9 3 -2 4 1
-5 -2 5 9 3 -2 4 1
-5 -2 5 9 3 -2 4 1
-4 -2 5 9 3 -2 5 1
-4 -2 5 9 3 -2 5 1
-3 0 5 9 3 -2 6 2
-3 0 5 9 3 -2 6 2
-3 0 5 9 3 -3 6 2
-3 0 5 9 3 -3 6 3
-3 0 5 9 3 -4 6 3
-3 0 5 9 4 -5 6 4
-3 0 5 9 4 -5 6 4
-3 1 5 9 4 -5 6 4
-3 1 5 9 4 -5 6 5
-3 2 5 9 4 -5 6 5
-2 3 5 9 4 -6 7 6
-2 3 5 9 4 -6 7 6
-2 3 5 9 4 -6 7 6
-2 3 5 9 4 -5 7 6
-2 3 5 9 4 -5 7 6
-2 2 4 10 5 -4 8 7
-2 2 4 10 5 -4 8 7
-2 2 4 10 5 -4 8 7
-3 2 4 10 5 -4 8 6
-3 2 4 10 5 -4 8 6
-4 1 4 9 4 -3 7 5
-4 1 4 9 4 -3 7 5
-4 1 4 9 4 -2 6 5
-3 1 4 9 4 -2 6 5
-3 1 4 9 4 0 5 5
-2 2 4 9 4 1 4 4
-2 2 4 9 4 1 4 4
-2 2 4 9 4 1 4 4
-2 2 4 9 4 0 4 4
-2 2 4 9 4 0 4 4
-2 3 5 9 4 -2 3 3
-2 3 5 9 4 -2 3 3
-2 3 5 9 4 -2 3 3
-2 3 5 9 4 -2 3 3
-2 3 5 9 4 -2 3 3
0 2 4 8 3 -3 3 3
0 2 4 8 3 -3 3 3
0 2 4 8 2 -4 3 3
-2 2 4 7 2 -5 3 3
-2 2 4 7 1 -6 3 3
-3 2 4 6 0 -7 2 3
-3 2 4 6 0 -7 2 3
-3 2 4 6 0 -7 3 3
-3 2 4 6 0 -7 3 3
-3 2 4 6 0 -7 4 3
-3 2 4 6 1 -7 5 2
-3 2 4 6 1 -7 5 2
-3 2 4 6 1 -7 5 2
-3 2 4 6 0 -7 5 2
-3 2 4 6 0 -7 5 2
-3 1 4 6 -2 -8 5 1
-3 1 4 6 -2 -8 5 1
-3 1 4 6 -2 -7 5 1
-3 1 4 6 0 -7 5 1
-3 1 4 6 0 -6 5 1
-4 1 4 5 1 -5 5 0
-4 1 4 5 1 -5 5 0
-4 1 4 5 1 -5 5 0
-3 1 4 5 1 -5 5 0
-3 1 4 5 1 -5 5 0
-2 1 3 5 0 -5 5 1
-2 1 3 5 0 -5 5 1
-2 1 3 5 0 -4 5 1
-3 1 3 5 0 -3 5 1
-3 1 3 5 0 -2 5 1
-4 0 4 5 0 0 4 0
-4 0 4 5 0 0 4 0
-4 0 4 5 0 0 4 0
-4 0 4 5 0 0 4 0
-4 0 4 5 0 0 4 0
-3 0 4 4 0 0 4 0
-3 0 4 4 0 0 4 0
-3 0 4 4 0 0 4 0
-4 0 4 4 0 0 4 0
-4 0 4 4 0 0 4 0
-5 -2 5 4 -2 0 4 1
-5 -2 5 4 -2 0 4 1
-5 -2 5 4 -2 0 4 1
-5 -2 5 4 -2 -2 4 1
-5 -2 5 4 -2 -2 4 1
-5 -2 5 4 -2 -2 4 1
-4 0 5 4 -3 -3 4 0
-4 0 5 4 -3 -3 4 0
-5 0 5 4 -3 -3 4 0
-5 0 5 4 -3 -3 4 0
-5 0 5 4 -3 -3 4 0
-6 0 5 4 -2 -2 4 1
-6 0 5 4 -2 -2 3 1
-6 0 5 3 -3 -2 3 1
-6 0 5 3 -3 -2 2 1
-6 0 5 3 -3 -2 2 1
-5 0 4 2 -4 -3 1 0
-5 0 4 2 -4 -3 1 0
-5 0 4 3 -3 -2 1 0
-5 0 4 3 -3 -2 1 0
-5 0 4 3 -3 -2 1 0
-4 0 5 4 -2 0 2 0
-4 0 5 4 -2 0 2 0
-4 0 5 4 -2 0 2 0
-4 0 5 4 -2 0 2 0
-4 0 5 4 -2 0 2 0
-5 -2 6 3 -2 0 3 1
-5 -2 6 3 -2 0 3 1
-5 -2 6 3 -2 0 3 1
-5 -2 6 3 -2 0 3 1
-5 -2 6 3 -2 0 3 1
-5 0 5 3 -2 1 3 1
-5 0 5 3 -2 1 3 1
-5 0 5 3 -2 1 3 0
-5 0 5 3 -2 1 3 0
-5 0 5 3 -2 1 3 0
-4 0 5 2 -2 0 2 -2
-4 0 5 2 -2 0 2 -2
-4 0 5 2 0 0 2 0
-4 0 5 2 0 0 2 0
-4 0 5 2 0 0 2 0
-5 0 5 3 1 1 2 1
-4 0 5 3 1 1 2 1
-4 0 5 3 1 1 2 1
-3 0 5 3 1 1 2 1
-3 0 5 3 1 1 2 1
-2 0 5 2 0 0 2 0
-3 0 5 2 0 0 2 0
-3 0 5 2 0 1 2 0
-4 0 5 2 0 1 2 0
-4 0 5 2 0 1 2 0
-5 -2 5 3 1 2 3 -2
-5 -2 5 3 1 2 3 -2
-5 -2 5 3 1 2 3 -2
-5 -2 5 3 1 2 3 -2
-5 -2 5 3 1 2 3 -2
-5 -2 5 4 1 2 4 0
-5 -2 5 4 1 2 4 0
-5 -2 5 4 1 2 4 0
-5 -2 5 4 1 2 4 0
-5 -2 5 4 1 2 4 0
-6 -2 6 3 1 1 3 -2
-6 -2 6 3 1 1 3 -2
-6 -2 6 3 1 1 3 -2
-6 -2 6 3 1 1 3 -2
-6 -2 6 3 1 1 3 -2
-5 0 6 2 0 1 2 -3
-5 0 6 2 0 1 2 -3
-5 0 6 2 0 1 2 -3
-5 0 6 2 0 1 2 -3
-5 0 6 2 0 1 2 -3
-6 0 7 2 0 1 2 -3
-6 0 7 2 0 1 2 -3
-6 0 7 2 0 1 2 -3
-6 0 7 2 0 1 2 -3
-6 0 7 2 0 1 2 -3
-5 0 6 2 0 1 1 -4
-5 0 6 2 0 1 1 -4
-5 0 6 2 1 2 1 -4
-5 0 6 2 1 2 1 -4
-5 0 6 2 1 2 1 -4
-4 0 7 2 2 3 2 -4
-4 0 7 2 2 3 2 -4
-4 0 7 2 2 3 2 -3
-4 0 7 2 2 3 2 -3
-4 0 7 2 2 3 2 -3
-5 0 6 2 2 2 2 -2
-5 0 6 2 2 2 2 -2
-5 0 6 2 2 2 2 -2
-5 0 6 2 2 2 2 -2
-5 0 6 2 2 2 2 -2
-5 0 7 3 2 2 2 -3
-5 0 7 3 2 2 2 -3
-5 0 7 3 2 2 2 -3
-5 0 7 3 2 2 2 -3
-5 0 7 3 2 2 2 -3
-6 -2 7 2 1 1 3 -2
-6 -2 7 2 1 0 3 -2
-6 -2 7 2 1 0 3 0
-6 -2 7 2 1 -2 3 0
-6 -2 7 2 1 -2 3 0
-5 0 8 3 2 -3 3 1
-5 0 8 3 2 -4 3 1
-5 0 8 3 2 -5 2 1
-5 0 8 3 2 -6 2 1
-5 0 8 3 2 -6 2 1
-5 -2 8 2 2 -7 1 0
-5 -2 8 2 2 -7 1 -2
-5 -2 8 2 2 -7 1 -2
-5 -2 8 2 2 -7 1 -3
-5 -2 8 2 2 -7 1 -3
-5 0 7 2 2 -8 0 -4
-5 0 7 2 2 -8 0 -4
-5 0 7 2 2 -7 0 -5
-5 0 7 2 2 -7 0 -5
-5 0 7 2 2 -7 0 -5
-5 1 8 2 2 -6 0 -6
-5 1 8 3 3 -5 0 -6
-5 1 8 3 3 -4 1 -6
-5 1 8 4 4 -3 1 -6
-5 1 8 4 4 -3 1 -6
-6 2 9 5 5 -2 2 -5
-5 2 9 4 5 -2 2 -5
-4 2 9 4 4 -2 2 -5
-3 2 9 3 4 -2 2 -5
-3 2 9 3 4 -2 2 -5
-2 3 9 2 4 0 2 -5
-2 4 10 3 5 1 3 -4
-2 5 11 4 7 2 4 -3
-2 6 12 5 8 3 5 -2
-2 7 13 5 9 4 6 -2
0 9 14 6 10 5 7 0
1 10 15 7 11 6 8 1
2 11 16 8 12 7 8 1
3 12 17 9 13 8 9 2
3 13 17 10 13 8 9 2
4 14 18 11 14 9 10 3
4 13 18 11 14 9 10 3
3 13 18 11 14 9 10 3
3 12 18 11 14 9 10 3
3 12 18 11 14 9 10 3
3 11 18 12 15 10 10 3
4 12 17 12 15 10 10 3
5 12 16 12 15 11 11 3
6 13 15 12 15 11 11 3
7 13 14 12 15 11 11 3
8 14 13 13 16 12 12 3
8 14 12 13 16 12 12 3
8 14 11 13 16 13 12 3
8 14 10 13 16 13 12 3
8 14 9 13 16 13 12 3
8 14 8 12 15 14 12 3
9 13 7 11 15 14 12 3
9 11 7 10 14 14 12 3
10 10 6 9 14 14 12 3
10 9 6 9 14 14 12 3
11 8 5 8 13 12 11 2
11 8 5 7 12 11 10 1
11 7 5 6 11 10 9 1
11 7 5 5 10 9 8 0
11 7 5 5 9 8 7 0
11 6 4 4 8 7 6 -2
10 6 4 3 8 7 6 -3
9 6 4 2 7 6 5 -3
8 6 4 1 7 6 5 -4
8 6 4 1 7 6 5 -4
5 5 5 0 6 5 4 -5
3 4 6 0 6 5 3 -6
0 3 6 0 5 5 3 -6
-4 2 7 0 5 5 2 -7
-6 2 7 0 5 5 2 -7
-7 1 8 0 4 5 1 -8
-7 0 8 -2 3 4 0 -9
-7 -2 8 -3 2 4 -2 -9
-7 -3 8 -4 1 3 -3 -10
-7 -3 8 -4 1 3 -3 -10
-8 -4 7 -5 0 2 -4 -11
-8 -4 7 -5 0 2 -4 -11
-8 -4 7 -5 0 2 -4 -11
-8 -4 7 -5 0 2 -4 -11
-8 -4 7 -5 0 2 -4 -11
-8 -4 8 -4 0 2 -4 -11
-8 -4 8 -4 0 2 -4 -11
-8 -4 8 -4 0 2 -4 -11
-8 -4 8 -4 0 2 -4 -11
-8 -4 8 -4 0 2 -4 -11
-9 -4 9 -4 1 2 -4 -10
-9 -4 9 -4 1 2 -4 -10
-9 -4 9 -4 1 2 -4 -10
-9 -4 9 -4 1 2 -4 -10
-9 -4 9 -4 1 2 -4 -10
-10 -4 9 -3 2 3 -5 -11
-10 -4 10 -2 3 3 -5 -11
-11 -5 11 0 3 3 -5 -12
-11 -5 12 1 4 3 -5 -12
-11 -5 13 2 4 3 -5 -12
-12 -6 14 3 5 4 -6 -13
-12 -6 14 4 5 4 -6 -14
-13 -6 14 4 5 4 -6 -14
-13 -6 14 5 5 4 -6 -15
-13 -6 14 5 5 4 -6 -15
-13 -3 18 13 13 11 0 -12
-12 1 23 22 23 18 7 -8
-11 5 29 32 32 26 15 -3
-10 9 34 42 43 34 23 3
-9 13 40 51 53 42 30 8
10 19 35 59 69 53 47 19
30 25 28 66 86 64 65 32
52 32 21 74 103 76 82 46
72 38 13 82 120 88 101 59
94 45 6 90 138 100 119 71
111 57 -13 73 140 104 131 88
128 71 -33 52 137 108 142 104
144 85 -54 29 135 111 153 120
160 98 -74 7 132 115 164 137
177 111 -95 -16 130 118 176 153
161 102 -101 -41 97 97 150 137
138 87 -104 -67 58 69 115 113
114 71 -107 -94 19 42 81 90
91 55 -110 -119 -21 13 47 66
67 39 -113 -146 -60 -15 12 43
49 29 -108 -155 -80 -30 -7 27
30 19 -100 -160 -97 -43 -23 14
12 10 -92 -165 -113 -55 -39 1
-7 1 -85 -171 -130 -68 -55 -13
-24 -10 -76 -177 -146 -80 -71 -26
-27 -12 -70 -164 -138 -79 -71 -29
-25 -12 -65 -147 -123 -73 -66 -29
-23 -13 -59 -130 -110 -68 -61 -29
-22 -13 -54 -112 -96 -62 -56 -29
-20 -13 -48 -96 -81 -57 -51 -29
-19 -13 -41 -82 -71 -50 -46 -27
-17 -12 -34 -71 -61 -44 -40 -26
-16 -11 -27 -59 -52 -37 -35 -24
-15 -9 -20 -48 -43 -31 -30 -22
-14 -8 -13 -36 -32 -25 -25 -21
-13 -7 -10 -30 -27 -21 -23 -20
-13 -7 -7 -26 -24 -18 -22 -20
-12 -7 -5 -22 -20 -15 -20 -19
-12 -7 -2 -18 -16 -12 -18 -19
-12 -7 1 -14 -12 -9 -17 -19
-11 -8 2 -12 -11 -8 -16 -18
-11 -8 3 -11 -10 -7 -16 -19
-11 -8 3 -10 -10 -6 -16 -19
-11 -8 4 -8 -9 -5 -16 -20
-11 -8 4 -7 -9 -4 -16 -20
-12 -8 5 -6 -8 -2 -16 -21
-12 -8 5 -6 -7 0 -15 -21
-12 -8 6 -6 -6 1 -14 -21
-12 -8 6 -6 -5 3 -13 -21
-12 -8 6 -6 -5 4 -13 -21
-12 -9 7 -6 -4 5 -12 -21
-12 -9 7 -5 -4 5 -12 -21
-12 -9 8 -4 -4 5 -12 -20
-12 -9 8 -3 -4 5 -12 -20
-12 -9 8 -3 -4 5 -12 -20
-12 -9 9 -2 -4 4 -11 -19
-12 -9 9 -2 -4 3 -11 -19
-12 -9 9 -2 -4 2 -11 -19
-12 -9 9 -2 -4 1 -11 -19
-12 -9 9 -2 -4 1 -11 -19
-11 -9 9 -2 -3 -2 -10 -18
-11 -9 9 -2 -3 -4 -10 -18
-11 -9 9 -2 -3 -6 -11 -18
-11 -9 9 -2 -3 -7 -11 -18
-11 -9 9 -2 -3 -9 -11 -18
-11 -10 10 0 -4 -10 -12 -17
-11 -10 10 0 -4 -10 -12 -17
-10 -9 10 0 -3 -11 -12 -17
-10 -9 10 0 -3 -11 -12 -17
-10 -9 10 0 -3 -11 -12 -17
-9 -8 10 1 -2 -12 -11 -16
-9 -8 10 2 -2 -12 -11 -16
-9 -8 11 2 -2 -12 -11 -16
-9 -8 11 3 -2 -12 -11 -16
-9 -8 11 3 -2 -12 -11 -16
-9 -9 12 4 0 -13 -12 -16
-9 -9 12 4 0 -12 -12 -16
-8 -8 11 4 0 -11 -13 -16
-8 -8 11 4 0 -10 -13 -16
-8 -8 11 4 0 -10 -13 -16
-7 -7 10 3 1 -9 -14 -16
-7 -7 10 4 1 -8 -15 -16
-7 -8 10 4 1 -7 -15 -17
-7 -8 10 5 1 -6 -16 -17
-7 -8 10 5 1 -6 -16 -17
-8 -9 11 6 2 -5 -17 -18
-7 -9 11 6 2 -5 -16 -17
-6 -9 11 6 3 -4 -16 -17
-5 -9 11 6 3 -4 -15 -16
-5 -9 11 6 3 -4 -15 -16
-4 -8 11 6 4 -3 -14 -15
-4 -8 11 6 4 -4 -14 -15
-5 -8 11 6 4 -5 -13 -15
-5 -8 11 6 4 -6 -13 -15
-5 -8 11 6 4 -6 -13 -15
-6 -9 11 7 4 -7 -12 -15
-6 -9 11 7 4 -8 -12 -14
-6 -9 11 7 4 -9 -11 -14
-6 -9 11 7 4 -10 -11 -13
-6 -9 11 7 4 -11 -11 -13
-5 -8 10 8 5 -12 -10 -12
-5 -8 10 8 5 -14 -10 -12
-5 -8 11 8 5 -15 -10 -12
-5 -8 11 8 5 -16 -10 -12
-5 -8 11 8 5 -17 -10 -12
-6 -8 12 8 4 -18 -10 -11
-5 -8 12 8 4 -18 -10 -11
-5 -7 11 8 4 -18 -10 -11
-4 -7 11 8 4 -18 -10 -11
-4 -7 11 8 4 -18 -10 -11
-3 -6 10 7 5 -19 -10 -12
-3 -6 10 7 5 -18 -10 -12
-3 -6 10 7 5 -18 -10 -12
-3 -6 10 7 5 -17 -10 -12
-3 -6 10 7 5 -17 -10 -12
-3 -7 10 8 4 -15 -11 -12
-3 -7 10 8 4 -13 -11 -12
-3 -6 9 8 5 -12 -11 -11
-3 -6 9 8 5 -10 -11 -11
-3 -6 9 8 5 -8 -11 -11
-2 -5 8 8 6 -7 -12 -10
0 -5 8 8 6 -6 -12 -10
0 -5 8 8 6 -5 -12 -10
1 -5 8 8 6 -5 -12 -10
1 -5 8 8 6 -4 -12 -10
2 -5 8 8 6 -3 -12 -11
2 -5 8 8 6 -2 -11 -11
2 -4 7 8 6 0 -11 -10
2 -4 7 8 6 1 -10 -10
2 -4 7 8 6 2 -10 -10
3 -3 6 9 6 3 -9 -9
4 -3 6 9 6 3 -9 -9
5 -2 5 9 6 3 -8 -8
5 -2 5 9 6 3 -8 -8
6 -2 5 9 6 3 -8 -8
7 0 4 9 7 2 -7 -7
8 1 4 9 7 2 -6 -7
8 1 4 9 7 2 -5 -6
9 2 4 9 7 2 -5 -6
9 2 4 9 7 2 -4 -6
10 3 3 9 8 3 -3 -5
11 3 2 9 8 3 -3 -5
11 4 2 9 8 3 -3 -4
12 4 1 9 8 3 -3 -4
12 4 1 9 8 3 -3 -4
13 5 0 8 8 2 -2 -3
14 6 -2 7 8 2 -2 -2
15 7 -2 7 8 3 -2 -2
15 7 -3 6 8 3 -2 0
16 8 -3 6 8 3 -2 0
17 9 -4 5 8 4 0 1
19 10 -5 5 8 4 0 1
20 10 -6 5 8 5 0 2
21 11 -6 5 8 5 0 2
22 11 -7 5 8 5 0 2
23 12 -8 5 7 6 1 3
23 13 -8 5 7 6 1 4
23 13 -9 4 8 7 2 5
23 14 -9 4 8 7 2 6
23 14 -9 4 8 7 2 7
23 15 -10 3 9 8 3 8
24 16 -10 3 9 8 3 8
24 17 -10 3 9 8 3 8
25 17 -10 3 9 8 3 8
25 18 -10 3 9 8 3 8
26 19 -10 3 8 8 3 9
27 20 -10 3 8 8 3 10
28 21 -11 3 8 8 3 11
28 21 -11 3 8 8 3 11
29 22 -11 3 8 8 3 12
30 23 -12 2 8 8 4 13
30 23 -12 2 8 8 4 13
30 24 -12 2 8 7 4 14
30 24 -12 2 8 7 4 14
30 24 -12 2 8 7 4 14
30 25 -11 1 8 6 5 15
30 25 -11 1 9 6 6 15
30 25 -10 2 9 6 6 15
30 25 -10 2 10 6 7 15
30 25 -10 2 10 6 7 15
30 24 -8 4 12 5 8 15
28 24 -6 7 13 6 9 15
27 24 -5 9 15 6 10 15
26 24 -3 11 16 7 10 15
25 24 0 14 18 7 11 15
23 23 1 15 19 8 12 15
22 22 3 16 20 10 13 14
20 22 4 17 21 11 13 14
19 21 6 17 21 12 14 13
17 21 7 18 22 13 14 13
15 20 8 19 23 14 15 12
14 19 10 20 23 15 15 11
12 18 11 21 24 16 15 10
11 17 12 21 24 16 15 10
9 16 13 22 24 17 15 9
8 15 14 23 25 18 14 8
7 14 14 22 24 18 14 7
6 13 14 21 24 19 13 6
6 13 14 21 23 19 13 6
5 12 14 20 23 19 13 5
4 11 15 19 22 20 12 4
3 9 15 19 21 20 11 3
2 8 15 19 20 19 10 3
2 7 15 19 20 19 10 2
1 6 15 19 19 19 9 2
0 5 15 18 18 18 8 1
-2 4 15 17 17 18 8 1
-2 3 14 16 16 18 7 0
-3 2 14 15 15 18 7 0
-3 1 14 14 14 18 7 0
-4 0 13 13 13 18 6 -2
-4 0 13 13 12 17 5 -3
-4 0 13 12 12 16 4 -3
-4 0 13 12 11 16 4 -4
-4 0 13 12 11 15 3 -4
-5 -2 14 11 10 14 2 -5
-5 -2 14 11 9 14 2 -5
-5 -2 13 10 9 14 2 -5
-5 -2 13 10 8 14 2 -5
-5 -2 13 10 8 14 2 -5
-6 -3 12 9 7 13 2 -4
-6 -3 12 9 7 12 1 -4
-6 -4 12 8 6 11 0 -5
-6 -4 12 7 6 11 -2 -5
-6 -4 12 7 6 10 -3 -5
-5 -5 11 6 5 9 -4 -6
-5 -5 11 6 5 9 -4 -6
-5 -5 11 6 5 8 -4 -6
-5 -5 11 6 5 8 -4 -6
-5 -5 11 6 5 8 -4 -6
-6 -6 10 5 5 7 -5 -5
-6 -6 10 5 5 6 -5 -5
-7 -6 10 5 4 4 -6 -5
-7 -6 10 5 3 3 -7 -5
-7 -6 10 5 3 2 -7 -5
-8 -7 10 5 2 1 -8 -4
-8 -7 10 5 2 1 -8 -4
-8 -7 10 5 2 0 -7 -4
-8 -7 10 5 2 0 -7 -4
-8 -7 10 5 2 0 -7 -4
-8 -6 10 5 2 -2 -6 -3
-8 -6 10 5 2 0 -6 -3
-8 -6 10 5 2 1 -6 -3
-8 -6 10 5 2 1 -6 -3
-8 -6 10 5 2 2 -6 -3
-8 -7 9 5 1 3 -7 -3
-8 -7 9 5 1 4 -7 -3
-8 -6 9 5 1 5 -7 -3
-8 -6 9 5 1 6 -7 -3
-8 -6 9 5 1 7 -7 -3
-8 -5 10 5 2 8 -7 -3
-8 -5 10 5 2 8 -7 -3
-8 -5 10 5 2 9 -6 -4
-8 -5 10 5 2 9 -5 -4
-8 -5 10 5 2 9 -5 -4
-8 -6 9 5 3 10 -4 -5
-8 -6 9 5 3 10 -4 -5
-8 -6 9 5 3 10 -4 -4
-8 -6 9 5 3 10 -4 -4
-8 -6 9 5 3 10 -4 -4
-9 -5 9 5 2 11 -3 -3
-9 -5 9 5 2 11 -3 -3
-9 -5 9 5 2 10 -3 -3
-9 -5 9 5 2 9 -3 -3
-9 -5 9 5 2 9 -3 -3
-9 -5 9 5 1 8 -2 -3
-9 -5 9 5 1 7 -2 -3
-9 -5 9 5 1 6 -2 -3
-9 -5 9 5 1 6 -2 -3
-9 -5 9 5 1 5 -2 -3
-8 -4 9 5 2 4 -2 -3
-8 -4 9 5 2 4 -2 -3
-8 -4 9 5 2 4 -2 -2
-8 -4 9 5 2 4 -2 -2
-8 -4 9 5 2 4 -2 -2
-8 -4 8 6 3 4 -3 0
-8 -4 8 6 3 5 -3 0
-8 -4 8 6 3 6 -3 0
-8 -4 8 6 3 6 -3 0
-8 -4 8 6 3 7 -3 0
-8 -4 8 5 3 8 -3 -2
-8 -4 8 5 3 8 -3 -2
-8 -5 8 5 3 9 -4 -2
-8 -5 8 5 3 10 -5 -2
-8 -5 8 5 3 10 -5 -2
-9 -6 7 4 2 11 -6 -2
-9 -6 7 4 2 11 -6 -2
-9 -5 7 4 2 11 -6 -3
-9 -5 7 4 2 11 -6 -3
-9 -5 7 4 2 11 -6 -3
-9 -4 7 4 1 10 -6 -4
-9 -4 7 4 1 9 -6 -4
-9 -4 6 3 1 8 -6 -4
-9 -4 6 3 1 8 -6 -4
-9 -4 6 3 1 7 -6 -4
-10 -5 5 2 0 6 -7 -4
-10 -5 5 2 0 6 -7 -4
-10 -5 5 2 -2 5 -7 -4
-10 -5 5 2 -2 5 -7 -4
-10 -5 5 2 -2 5 -7 -4
-10 -6 5 2 -3 4 -6 -5
-10 -6 5 2 -3 3 -6 -5
-10 -6 5 1 -3 1 -6 -5
-10 -6 5 1 -3 0 -6 -5
-10 -6 5 1 -3 -2 -6 -5
-11 -6 5 0 -3 -3 -7 -6
-11 -6 5 0 -3 -3 -7 -6
-11 -6 5 -2 -3 -3 -7 -6
-11 -6 5 -2 -3 -3 -7 -6
-11 -6 5 -2 -3 -3 -7 -6
-10 -7 4 -3 -4 -2 -7 -7
-10 -7 4 -3 -4 -2 -7 -7
-10 -7 4 -3 -4 -2 -7 -8
-10 -7 4 -3 -4 -2 -7 -8
-10 -7 4 -3 -4 -2 -7 -8
-11 -8 4 -2 -5 -2 -7 -9
-11 -8 4 -2 -5 -2 -7 -9
-11 -8 4 -2 -5 0 -6 -9
-11 -8 4 -2 -5 0 -6 -9
-11 -8 4 -2 -5 0 -6 -9
-11 -7 4 -3 -5 1 -5 -8
-11 -7 4 -3 -5 1 -5 -8
-11 -8 4 -3 -5 1 -6 -8
-11 -8 4 -3 -5 1 -7 -8
-11 -8 4 -3 -5 1 -7 -8
-12 -9 3 -4 -5 2 -8 -9
-12 -9 3 -4 -5 2 -8 -9
-12 -9 3 -4 -6 3 -8 -9
-12 -9 3 -4 -6 4 -8 -9
-12 -9 3 -4 -6 4 -8 -9
-12 -9 3 -5 -7 5 -8 -8
-12 -9 3 -5 -7 5 -8 -8
-12 -9 3 -5 -7 4 -9 -8
-12 -9 3 -5 -7 4 -9 -8
-12 -9 3 -5 -7 4 -9 -8
-13 -9 2 -6 -8 3 -10 -9
-13 -9 2 -6 -8 3 -10 -9
-13 -9 2 -6 -8 2 -10 -9
-13 -9 2 -6 -8 2 -10 -9
-13 -9 2 -6 -8 2 -10 -9
-12 -8 3 -5 -8 1 -9 -8
-12 -8 3 -5 -8 1 -9 -8
-12 -8 3 -5 -8 0 -9 -8
-12 -8 3 -5 -8 -2 -9 -8
-12 -8 3 -5 -8 -2 -9 -8
-12 -9 2 -6 -9 -3 -10 -9
-12 -9 2 -6 -9 -3 -10 -9
-13 -9 2 -6 -9 -3 -10 -9
-13 -9 2 -6 -9 -3 -10 -9
-13 -9 2 -6 -9 -3 -10 -9
-14 -8 1 -6 -8 -3 -10 -9
-14 -8 1 -6 -8 -3 -10 -9
-14 -8 1 -6 -8 -3 -10 -9
-14 -8 1 -6 -8 -3 -10 -9
-14 -8 1 -6 -8 -3 -10 -9
-13 -9 2 -7 -9 -3 -11 -9
-13 -9 2 -7 -9 -3 -11 -9
-13 -9 2 -7 -9 -3 -11 -9
-13 -9 2 -7 -9 -3 -11 -9
-13 -9 2 -7 -9 -3 -11 -9
-14 -9 2 -7 -9 -2 -10 -9
-14 -9 2 -7 -9 -2 -10 -9
-14 -9 1 -7 -9 -2 -10 -9
-14 -9 1 -7 -9 -2 -10 -9
-14 -9 1 -7 -9 -2 -10 -9
-14 -9 0 -6 -10 0 -9 -9
-14 -9 0 -6 -10 0 -9 -9
-14 -9 0 -6 -10 1 -9 -9
-14 -9 0 -6 -10 1 -9 -9
-14 -9 0 -6 -10 1 -9 -9
-13 -9 0 -7 -9 2 -9 -10
-13 -9 0 -7 -9 2 -9 -10
-14 -10 0 -7 -9 2 -9 -10
-14 -10 0 -7 -9 2 -9 -10
-14 -10 0 -7 -9 2 -9 -10
-15 -11 1 -7 -9 2 -9 -9
-15 -11 1 -7 -9 2 -9 -9
-15 -11 1 -7 -9 2 -9 -9
-15 -11 1 -7 -9 2 -9 -9
-15 -11 1 -7 -9 2 -9 -9
-16 -11 1 -7 -9 3 -9 -9
-16 -11 1 -7 -9 3 -9 -9
-15 -11 1 -7 -9 3 -9 -9
-15 -11 1 -7 -9 3 -9 -9
-15 -11 1 -7 -9 3 -9 -9
-14 -11 0 -6 -10 2 -10 -9
-14 -11 0 -6 -10 2 -10 -9
-14 -11 0 -6 -10 3 -10 -9
-14 -11 0 -6 -10 3 -10 -9
-14 -11 0 -6 -10 3 -10 -9
-14 -10 0 -6 -9 4 -9 -9
-14 -10 0 -6 -9 4 -9 -9
-14 -10 0 -6 -9 4 -9 -9
-14 -10 0 -6 -9 4 -9 -9
-14 -10 0 -6 -9 4 -9 -9
-14 -9 0 -7 -9 3 -10 -9
-14 -9 0 -7 -9 3 -10 -9
-14 -9 0 -7 -9 4 -9 -9
-14 -9 0 -7 -9 4 -9 -9
-14 -9 0 -7 -9 4 -9 -9
-13 -9 1 -6 -8 5 -8 -8
-13 -9 1 -6 -8 5 -8 -8
-13 -9 1 -6 -9 5 -8 -8
-13 -9 1 -6 -9 5 -8 -8
-13 -9 1 -6 -9 5 -8 -8
-14 -10 0 -5 -10 4 -9 -7
-14 -10 0 -5 -10 4 -9 -7
-13 -10 0 -5 -10 3 -9 -7
-13 -10 0 -5 -10 3 -9 -7
-13 -10 0 -5 -10 3 -9 -7
-12 -9 0 -6 -9 2 -9 -8
-12 -9 0 -6 -9 2 -9 -8
-12 -9 0 -6 -9 2 -9 -8
-12 -9 0 -6 -9 2 -9 -8
-12 -9 0 -6 -9 2 -9 -8
-12 -9 0 -7 -9 1 -9 -8
-12 -9 0 -7 -9 1 -9 -8
-12 -9 0 -7 -9 1 -9 -7
-12 -9 0 -7 -9 1 -9 -7
-12 -9 0 -7 -9 1 -9 -7
-12 -9 1 -7 -9 2 -8 -6
-12 -9 1 -7 -9 2 -8 -6
-11 -8 1 -6 -9 1 -7 -6
-11 -8 1 -6 -9 0 -7 -6
-11 -8 1 -6 -9 0 -7 -6
-10 -7 0 -5 -9 -2 -6 -7
-10 -7 0 -5 -9 -2 -6 -7
-10 -7 0 -5 -9 -2 -6 -7
-11 -7 1 -5 -9 0 -5 -6
-11 -7 1 -5 -9 0 -5 -6
-12 -7 2 -5 -8 1 -4 -5
-12 -7 2 -5 -8 1 -4 -5
-12 -7 2 -5 -8 1 -4 -5
-12 -7 2 -5 -8 0 -4 -5
-12 -7 2 -5 -8 0 -4 -5
-12 -8 3 -5 -8 -2 -5 -5
-11 -8 3 -5 -8 -2 -5 -5
-11 -8 3 -5 -8 -2 -5 -5
-10 -7 2 -5 -8 -2 -5 -5
-9 -7 2 -5 -8 -2 -5 -5
-8 -6 1 -4 -7 -2 -5 -4
-8 -6 1 -4 -7 -2 -5 -4
-8 -6 1 -4 -7 -2 -5 -4
-8 -6 2 -4 -7 -3 -5 -4
-8 -6 2 -4 -7 -3 -5 -4
-9 -5 3 -3 -7 -4 -6 -5
-9 -5 3 -3 -7 -4 -6 -5
-9 -5 3 -3 -7 -4 -6 -5
-9 -5 3 -3 -7 -4 -6 -4
-9 -5 3 -3 -7 -4 -6 -4
-9 -6 4 -4 -7 -3 -6 -3
-9 -6 4 -4 -7 -3 -6 -3
-9 -6 4 -4 -7 -3 -6 -3
-8 -6 3 -4 -7 -3 -6 -3
-8 -6 3 -4 -7 -3 -6 -3
-7 -5 2 -4 -8 -3 -7 -4
-7 -5 2 -4 -8 -2 -7 -4
-7 -5 2 -4 -8 -2 -7 -4
-8 -5 2 -4 -8 0 -6 -4
-8 -5 2 -4 -8 1 -6 -4
-9 -5 3 -4 -7 2 -5 -4
-9 -5 3 -4 -7 2 -5 -4
-9 -5 3 -4 -7 2 -5 -4
-9 -5 3 -4 -7 3 -5 -4
-9 -5 3 -4 -7 3 -5 -4
-9 -5 3 -3 -7 4 -4 -3
-9 -5 3 -3 -7 4 -4 -3
-9 -5 3 -3 -7 4 -4 -3
-9 -6 3 -3 -6 4 -4 -3
-9 -6 3 -3 -6 4 -4 -3
-8 -7 3 -3 -5 4 -4 -3
-8 -7 3 -3 -5 4 -4 -3
-8 -7 3 -3 -5 4 -4 -3
-7 -6 3 -3 -5 4 -4 -3
-7 -6 3 -3 -5 4 -4 -3
-6 -5 4 -3 -4 3 -3 -3
-6 -3 5 0 -3 4 -2 -2
-5 0 6 1 -2 4 0 0
-4 2 7 2 0 5 1 1
-4 4 8 4 1 6 2 2
-3 5 9 5 2 7 3 3
-3 5 9 5 2 7 3 3
-3 5 10 5 2 7 3 3
-3 6 11 5 2 7 3 3
-3 6 11 5 2 7 3 3
-3 7 12 6 3 7 4 4
-3 7 12 7 4 7 4 4
-2 7 12 8 5 8 4 4
0 7 12 9 6 9 4 4
0 7 12 10 7 9 4 4
1 6 11 11 8 10 5 5
2 6 10 11 8 10 5 5
3 7 9 11 8 10 5 5
4 8 7 10 8 10 6 6
5 8 6 10 8 10 6 6
6 9 5 9 7 9 7 7
6 9 4 8 7 9 7 7
6 9 4 7 6 9 7 7
6 9 3 6 5 9 7 7
6 9 2 5 5 9 7 7
5 8 1 4 4 10 6 7
7 6 1 4 4 9 6 6
8 5 1 4 4 8 5 5
9 3 1 4 4 7 4 4
11 1 1 4 4 6 4 3
12 0 0 3 3 5 3 2
11 0 0 2 2 5 3 2
10 -2 0 2 1 5 2 2
8 -3 0 1 -2 4 1 2
7 -3 0 0 -3 4 1 2
6 -4 -2 -2 -4 3 0 1
4 -4 -2 -2 -4 3 0 1
3 -4 -2 -2 -4 3 0 1
1 -4 0 -3 -4 2 0 0
-2 -4 0 -3 -4 2 0 0
-3 -4 1 -4 -5 1 -2 -2
-4 -4 1 -4 -5 1 -3 -3
-5 -5 1 -4 -6 1 -4 -3
-7 -6 1 -5 -7 0 -5 -4
-8 -6 1 -5 -7 0 -6 -5
-9 -7 2 -6 -8 -2 -7 -6
-9 -7 2 -6 -8 -2 -7 -6
-9 -7 2 -6 -8 -2 -7 -7
-9 -8 2 -7 -8 -2 -7 -8
-9 -8 2 -7 -8 -2 -7 -8
-10 -9 1 -8 -9 -3 -8 -9
-10 -9 1 -8 -9 -3 -8 -9
-10 -9 1 -8 -9 -3 -8 -9
-10 -9 1 -8 -9 -3 -8 -9
-10 -9 1 -8 -9 -3 -8 -9
-10 -8 2 -8 -8 -3 -8 -9
-10 -8 2 -8 -8 -3 -8 -9
-10 -8 2 -8 -8 -3 -8 -9
-10 -8 3 -8 -9 -2 -8 -9
-10 -8 3 -8 -9 -2 -8 -9
-10 -9 4 -7 -10 0 -7 -8
-10 -9 4 -7 -9 0 -7 -8
-10 -9 4 -7 -9 1 -7 -8
-10 -9 4 -7 -8 2 -6 -8
-10 -9 4 -7 -7 2 -6 -8
-10 -9 4 -7 -6 3 -5 -8
-10 -9 5 -6 -6 3 -6 -8
-11 -9 5 -5 -6 2 -7 -9
-12 -10 6 -4 -6 1 -8 -10
-12 -10 7 -3 -6 1 -9 -10
-13 -11 8 0 -6 1 -10 -11
-13 -10 11 3 -3 4 -8 -10
-14 -10 13 6 0 7 -6 -9
-15 -9 16 9 2 10 -4 -7
-15 -8 18 12 4 14 -2 -6
-13 -6 20 18 11 19 5 -3
-5 -2 22 29 25 28 15 5
4 3 23 42 39 36 26 12
12 7 25 53 54 46 37 19
21 11 27 65 68 54 48 25
35 18 23 72 82 64 63 36
59 29 10 72 98 77 85 55
84 40 -4 73 112 91 106 73
108 52 -17 74 127 103 128 91
132 63 -30 74 142 116 149 109
148 71 -45 64 144 121 160 120
151 75 -61 35 123 110 155 121
154 79 -76 7 104 100 150 122
157 84 -92 -22 84 90 144 123
161 88 -107 -51 63 79 139 125
151 86 -116 -78 36 63 121 117
118 70 -112 -102 -2 37 86 94
87 56 -108 -126 -40 12 50 70
54 40 -105 -149 -78 -13 14 47
21 25 -101 -173 -116 -38 -22 24
-2 14 -96 -185 -141 -56 -47 6
-8 7 -90 -176 -138 -60 -53 -3
-15 0 -83 -166 -135 -65 -58 -11
-21 -8 -77 -157 -133 -69 -64 -19
-28 -15 -71 -148 -130 -73 -70 -27
-32 -20 -65 -137 -123 -74 -72 -32
-29 -18 -59 -122 -111 -67 -66 -29
-26 -16 -53 -108 -98 -60 -60 -27
-24 -14 -47 -94 -86 -53 -54 -25
-21 -13 -40 -79 -73 -46 -47 -23
-19 -11 -35 -67 -63 -38 -41 -21
-18 -11 -29 -58 -55 -33 -37 -20
-17 -11 -24 -50 -47 -27 -33 -18
-16 -11 -19 -40 -39 -22 -30 -17
-15 -11 -14 -31 -31 -16 -26 -15
-14 -10 -10 -25 -26 -12 -23 -14
-14 -10 -8 -22 -23 -10 -22 -14
-14 -10 -6 -19 -21 -8 -22 -14
-13 -10 -4 -17 -19 -6 -21 -14
-13 -10 -3 -14 -17 -4 -20 -14
-12 -11 0 -12 -15 -2 -19 -15
-12 -11 1 -11 -14 1 -18 -15
-12 -12 1 -10 -13 2 -18 -15
-12 -13 2 -8 -11 4 -17 -15
-12 -13 3 -7 -10 5 -16 -15
-13 -14 4 -6 -9 7 -15 -16
-13 -14 4 -6 -9 8 -14 -16
-13 -14 4 -6 -9 9 -14 -15
-12 -14 4 -6 -9 11 -13 -14
-12 -14 4 -6 -9 12 -12 -14
-11 -13 3 -7 -8 13 -11 -13
-11 -13 3 -6 -8 13 -11 -13
-11 -13 3 -6 -8 13 -11 -13
-11 -13 3 -5 -7 13 -10 -12
-11 -13 3 -4 -7 13 -10 -12
-11 -12 4 -3 -6 12 -9 -11
-11 -12 4 -3 -6 10 -9 -11
-11 -12 4 -3 -6 8 -9 -11
-11 -12 4 -3 -6 6 -9 -11
-11 -12 4 -3 -6 5 -9 -11
-10 -11 4 -4 -7 3 -10 -10
-10 -11 4 -4 -7 1 -10 -10
-10 -11 4 -3 -7 -2 -10 -10
-10 -11 4 -2 -7 -4 -10 -10
-10 -11 4 -2 -7 -6 -10 -10
-9 -12 5 0 -6 -8 -11 -10
-9 -12 5 0 -6 -9 -11 -10
-9 -12 5 0 -6 -10 -11 -10
-8 -11 5 0 -6 -12 -11 -10
-8 -11 5 0 -6 -13 -11 -10
-7 -10 6 -2 -6 -14 -11 -10
-7 -10 6 0 -5 -13 -11 -10
-7 -10 6 0 -5 -13 -11 -10
-7 -10 6 1 -4 -12 -12 -11
-7 -10 6 2 -3 -11 -12 -11
-8 -11 6 3 -2 -10 -13 -12
-8 -11 6 3 -2 -8 -13 -12
-8 -11 6 3 -2 -6 -13 -12
-7 -10 6 3 -2 -4 -13 -12
-7 -10 6 3 -2 -3 -13 -12
-6 -9 6 3 -2 0 -14 -13
-6 -9 6 3 -2 2 -14 -13
-6 -9 6 3 -2 3 -14 -13
-6 -9 6 3 -2 5 -14 -13
-6 -9 6 3 -2 6 -14 -13
-5 -10 6 4 0 8 -14 -14
-5 -10 6 4 0 8 -13 -14
-5 -10 6 4 1 8 -13 -13
-4 -10 6 4 1 9 -12 -13
-4 -10 6 4 2 9 -11 -12
-3 -9 7 5 3 10 -10 -11
-3 -9 7 5 3 9 -10 -11
-3 -9 7 5 3 8 -10 -11
-3 -9 7 6 3 7 -10 -11
-3 -9 7 6 3 5 -10 -11
-4 -9 6 7 4 4 -10 -11
-4 -9 6 7 4 3 -10 -11
-4 -9 6 7 4 3 -9 -11
-4 -9 6 7 4 2 -9 -11
-4 -9 6 7 4 1 -8 -11
-3 -10 6 7 4 0 -7 -10
-3 -10 6 7 4 0 -7 -10
-3 -10 6 7 4 -2 -7 -10
-3 -10 6 7 4 -2 -7 -10
-3 -10 6 7 4 -3 -7 -10
-3 -9 5 8 4 -4 -7 -10
-3 -9 5 8 4 -3 -7 -10
-3 -9 5 8 4 -3 -7 -10
-2 -9 5 8 4 -2 -7 -9
-2 -9 5 8 4 0 -7 -9
0 -8 5 8 4 1 -7 -8
0 -8 5 8 4 3 -7 -8
0 -8 5 8 4 5 -7 -8
0 -8 5 9 5 7 -7 -8
0 -8 5 9 5 9 -7 -8
0 -8 4 10 6 11 -7 -9
0 -8 4 10 6 12 -7 -9
0 -8 4 10 6 13 -7 -9
1 -8 3 10 6 14 -7 -9
1 -8 3 10 6 16 -7 -9
2 -7 2 9 6 17 -8 -8
3 -7 2 9 6 18 -8 -8
3 -7 2 9 7 20 -8 -8
4 -6 2 9 7 21 -7 -8
5 -6 2 9 8 23 -7 -8
6 -5 1 10 9 24 -6 -7
6 -5 1 10 9 24 -6 -7
6 -5 1 10 9 24 -5 -6
7 -4 1 10 9 24 -5 -6
7 -4 1 10 9 24 -4 -5
8 -3 0 9 9 23 -3 -4
8 -3 0 9 9 23 -2 -4
9 -2 0 9 10 23 -2 -3
9 -2 0 10 10 23 0 -3
10 0 0 10 11 23 1 -2
11 1 -2 11 12 22 2 0
12 1 -3 11 12 22 2 0
12 1 -3 11 12 22 2 1
13 2 -4 10 12 22 2 1
14 2 -5 10 12 22 2 2
15 3 -6 9 11 21 2 3
16 3 -6 9 11 21 2 3
16 3 -6 9 11 21 3 3
17 4 -7 9 12 20 3 3
18 4 -7 9 12 20 4 3
19 5 -8 9 13 19 5 3
20 6 -9 9 13 19 5 3
21 6 -9 9 13 19 5 4
22 7 -10 8 13 19 5 4
23 8 -11 8 13 19 5 5
24 9 -12 7 14 19 6 6
24 10 -12 7 14 19 6 7
25 10 -12 7 14 19 6 7
25 11 -12 7 14 19 7 8
26 12 -12 7 14 19 7 9
27 13 -13 8 13 19 8 10
28 13 -13 8 13 19 8 11
28 14 -14 8 13 19 8 12
29 14 -14 7 13 19 8 13
30 15 -15 7 13 19 8 14
31 16 -16 6 13 19 8 15
31 17 -16 6 13 19 8 15
31 18 -16 6 13 19 8 15
32 19 -16 6 13 18 8 16
32 20 -16 6 13 18 8 16
33 21 -17 7 14 17 9 17
33 21 -17 7 14 17 9 17
33 21 -17 6 14 17 9 18
34 22 -17 6 14 16 9 18
34 22 -17 5 14 16 9 19
35 23 -18 4 14 15 10 20
35 23 -18 4 14 15 10 20
35 23 -17 5 14 14 10 20
35 23 -17 5 14 14 11 20
35 23 -16 6 14 13 11 20
35 23 -15 7 14 12 12 20
35 23 -15 7 15 12 12 20
35 23 -14 8 16 12 12 20
34 24 -14 8 17 12 13 20
34 24 -13 9 18 12 13 20
33 25 -12 10 19 13 14 20
33 24 -10 12 21 14 15 20
32 24 -8 14 22 15 15 20
32 23 -7 16 24 16 16 19
31 22 -5 18 25 18 17 19
30 21 -3 20 27 19 18 18
28 21 -2 21 27 20 18 18
27 20 1 21 28 21 18 18
25 20 2 22 28 22 19 18
24 19 3 23 29 23 19 18
22 18 5 24 30 24 20 17
19 17 6 24 30 25 20 17
17 16 7 24 30 26 20 16
14 15 8 25 31 27 20 15
11 14 10 25 31 29 20 14
9 13 11 26 32 30 20 13
9 13 11 26 31 30 20 13
8 13 11 25 30 30 20 12
7 12 12 25 29 31 20 11
6 12 12 24 28 31 20 10
5 11 13 23 27 32 19 9
5 10 13 23 27 32 19 9
4 9 13 23 27 32 18 9
4 8 13 22 26 33 18 8
3 6 13 22 26 33 17 8
2 5 13 21 25 34 16 7
2 5 13 21 25 34 16 7
2 5 13 20 24 34 16 7
1 4 13 19 23 34 16 6
1 4 13 18 22 34 16 6
0 3 12 17 21 34 15 5
0 3 12 17 21 34 15 5
0 3 12 17 20 33 14 5
1 3 12 17 20 33 13 4
1 3 12 17 19 32 12 4
2 2 11 16 18 31 11 3
2 2 11 16 18 31 11 3
1 2 11 16 17 30 11 3
0 1 11 15 16 30 11 3
-2 1 11 15 15 29 11 3
-3 0 11 14 14 28 10 3
-3 0 11 14 14 28 10 3
-3 0 11 14 14 27 9 3
-3 0 11 14 14 26 9 2
-3 0 11 14 14 25 8 2
-3 -2 10 14 13 24 7 1
-3 -2 10 14 13 23 7 1
-3 -2 10 14 13 21 6 1
-3 -2 10 13 12 20 5 1
-3 -2 10 13 12 19 4 1
-3 -3 9 12 11 17 3 0
-3 -3 9 12 11 17 3 0
-3 -3 9 12 11 16 3 0
-3 -3 9 12 11 16 3 1
-3 -3 9 12 11 15 3 1
-3 -2 9 11 10 14 3 2
-3 -2 9 11 10 14 3 2
-3 -2 9 11 10 13 3 2
-3 -2 9 11 10 13 3 2
-3 -2 9 11 10 12 3 2
-3 0 9 11 11 11 3 1
-3 0 9 11 11 11 3 1
-3 0 9 11 11 12 3 1
-3 -2 9 11 11 13 3 1
-3 -2 9 11 11 14 3 1
-3 -3 10 12 11 15 3 0
-3 -3 10 12 11 16 3 0
-3 -3 10 12 11 17 3 0
-3 -2 10 11 10 18 3 -2
-3 -2 10 11 10 19 3 -2
-2 0 10 10 9 20 3 -3
-2 0 10 10 9 20 3 -3
-2 0 10 10 9 20 4 -3
-2 0 10 11 10 20 5 -3
-2 0 10 11 10 20 6 -3
-2 1 10 12 11 21 7 -3
-2 1 10 12 11 21 7 -3
-2 1 10 12 11 20 7 -3
-2 1 10 12 11 20 8 -3
-2 1 10 12 11 19 8 -3
-2 0 9 11 11 18 9 -2
-2 0 9 11 11 17 9 -2
-2 0 9 11 11 16 9 0
-2 1 9 11 11 15 9 1
-2 1 9 11 11 13 9 2
0 2 10 12 12 12 9 3
0 2 10 12 12 12 9 3
0 2 10 12 12 11 9 3
1 2 10 12 12 11 9 3
1 2 10 12 12 10 9 3
2 2 10 12 11 9 8 3
2 2 10 12 11 9 8 3
2 2 10 12 11 9 8 3
1 2 10 13 11 9 8 3
1 2 10 13 11 9 8 3
0 2 10 14 12 10 7 4
0 2 10 14 12 10 7 4
0 2 10 14 12 10 6 4
1 2 9 13 12 11 6 4
1 2 9 13 12 11 5 4
2 2 8 12 12 12 4 3
2 2 8 12 12 13 4 3
2 2 8 12 12 14 4 3
2 2 9 12 12 15 4 3
2 2 9 12 12 16 4 3
2 2 10 12 12 17 5 3
2 2 10 12 12 17 5 3
2 2 10 12 12 17 5 3
2 2 9 11 12 16 4 3
2 2 9 11 12 16 4 3
2 2 8 10 11 15 3 2
2 2 8 10 11 15 3 2
2 2 8 10 10 14 3 2
2 2 8 10 10 14 4 2
2 2 8 10 9 13 4 2
1 1 7 9 8 12 5 1
1 1 7 9 8 12 5 1
1 1 7 9 8 12 5 1
1 1 7 9 8 12 5 1
1 1 7 9 8 12 5 1
1 2 8 9 9 11 5 2
1 2 8 9 9 11 5 2
1 2 8 9 9 10 5 2
1 1 8 9 9 9 5 2
1 1 8 9 9 8 5 2
0 0 7 8 8 7 5 1
0 0 7 8 8 7 5 1
0 0 7 8 8 7 5 1
0 0 7 8 8 7 5 1
0 0 7 8 8 7 5 1
0 1 7 7 7 7 4 0
0 1 7 7 7 7 4 0
0 1 7 7 7 7 4 0
0 1 7 7 7 7 4 0
0 1 7 7 7 7 4 0
1 0 8 8 7 8 4 0
1 0 8 8 7 8 4 0
1 0 8 8 7 8 4 0
0 -2 7 7 6 8 4 0
0 -2 7 7 6 8 4 0
-2 -3 6 6 5 9 3 0
-2 -3 6 6 5 10 3 0
-2 -3 6 6 5 11 3 0
-2 -2 6 6 5 12 3 0
-2 -2 6 6 5 13 3 0
-2 0 5 5 4 14 4 1
-2 0 5 5 4 14 4 1
-2 0 5 5 4 14 4 1
-2 0 6 5 5 13 4 2
-2 0 6 5 5 13 4 2
0 1 7 6 6 12 4 3
0 1 7 6 6 12 4 3
0 1 7 6 6 12 4 3
0 0 7 6 6 12 4 2
0 0 7 6 6 12 4 2
-2 -2 7 5 5 11 3 1
-2 -2 7 5 5 11 3 1
-2 -2 7 5 5 10 3 1
-2 -2 7 5 5 9 2 1
-2 -2 7 5 5 8 2 1
-3 0 6 4 5 7 1 1
-3 0 6 4 5 7 1 1
-3 0 6 4 5 7 1 1
-3 0 6 4 5 7 1 0
-3 0 6 4 5 7 1 0
-3 -2 7 5 4 7 2 -2
-3 -2 7 5 4 7 2 -2
-3 -2 7 5 4 7 2 -2
-3 -2 7 4 4 7 2 -2
-3 -2 7 4 4 7 2 -2
-4 -3 6 3 4 7 3 -2
-4 -3 6 3 4 7 3 -2
-4 -3 6 3 4 7 3 -2
-4 -3 6 3 4 7 3 -2
-4 -3 6 3 4 7 3 -2
-3 -2 6 4 4 6 2 -3
-3 -2 6 4 4 6 2 -3
-3 -2 6 4 4 7 2 -3
-3 -2 6 4 4 7 2 -2
-3 -2 6 4 4 8 2 -2
-4 0 6 3 3 9 2 0
-4 0 6 3 3 9 2 0
-4 0 6 3 3 9 2 0
-4 0 6 4 3 9 2 0
-4 0 6 4 3 9 2 0
-3 -2 6 5 4 10 2 -2
-3 -2 6 5 4 10 2 -2
-3 -2 6 5 4 10 2 -2
-3 -2 6 5 4 10 2 0
-3 -2 6 5 4 10 2 0
-3 0 6 4 4 9 2 1
-3 0 6 4 4 9 2 1
-3 0 6 4 4 9 2 1
-3 -2 6 4 4 9 2 1
-3 -2 6 4 4 9 2 1
-4 -3 5 3 4 9 2 0
-4 -3 5 3 4 9 2 0
-4 -3 5 3 4 9 2 0
-4 -2 5 3 3 9 2 0
-4 -2 5 3 3 9 2 0
-3 0 5 3 2 8 1 1
-3 0 5 3 2 8 1 1
-3 0 5 3 2 7 1 1
-3 0 5 2 2 7 1 0
-3 0 5 2 2 6 1 0
-3 0 5 1 2 5 0 -2
-3 0 5 1 2 5 0 -2
-3 0 5 1 2 5 0 -2
-3 0 5 1 2 5 0 -2
-3 0 5 1 2 5 0 -2
-3 1 5 1 3 6 1 0
-3 1 5 1 3 6 1 0
-3 1 5 2 3 6 1 0
-3 1 5 2 4 6 1 -2
-3 1 5 3 4 6 1 -2
-3 0 5 4 5 5 1 -3
-3 0 5 4 5 5 1 -3
-3 0 5 4 5 5 1 -3
-3 0 5 4 5 5 1 -3
-3 0 5 4 5 5 1 -3
-3 1 5 3 4 5 0 -3
-3 1 5 3 4 5 0 -3
-3 1 5 3 4 5 0 -3
-3 1 5 3 4 5 0 -3
-3 1 5 3 4 5 0 -3
-3 0 4 3 3 5 -2 -4
-3 0 4 3 3 5 -2 -4
-3 0 4 3 3 5 -2 -4
-3 0 4 3 3 5 -2 -4
-3 0 4 3 3 5 -2 -4
-4 0 4 2 3 6 0 -3
-4 0 4 2 3 6 0 -3
-4 0 4 2 3 6 0 -3
-4 0 4 2 3 5 0 -3
-4 0 4 2 3 5 0 -3
-4 0 5 3 4 4 -2 -3
-4 0 5 3 4 4 -2 -3
-4 0 5 3 4 4 -2 -3
-4 0 5 2 4 4 -2 -3
-4 0 5 2 4 4 -2 -3
-3 1 4 1 3 4 -2 -3
-3 1 4 1 3 4 -2 -3
-3 1 4 1 3 3 -2 -3
-3 1 4 1 3 3 -2 -3
-3 1 4 1 3 2 -2 -3
-4 1 3 1 2 1 -2 -3
-4 1 3 1 2 1 -2 -3
-4 1 3 2 2 1 -2 -3
-4 1 3 2 2 1 -2 -3
-4 1 3 3 2 1 -2 -3
-3 2 4 4 3 2 0 -3
-3 2 4 4 3 2 0 -3
-3 2 4 4 3 2 0 -3
-4 1 4 4 3 2 0 -3
-4 1 4 4 3 2 0 -3
-5 0 5 3 4 1 0 -3
-5 0 5 3 4 1 0 -3
-4 0 5 3 4 1 0 -3
-4 0 5 3 4 1 -2 -3
-3 0 5 3 4 1 -2 -3
-2 1 5 3 5 0 -3 -2
-2 1 5 3 5 0 -3 -2
-2 1 5 3 4 0 -3 -2
-3 1 5 3 4 0 -3 -2
-3 1 5 3 3 0 -3 -2
-4 1 4 2 2 -2 -3 -2
-4 1 4 2 2 -2 -3 -2
-4 1 4 2 2 -2 -3 -2
-4 1 4 2 2 -2 -3 -2
-4 1 4 2 2 -2 -3 -2
-3 2 4 2 3 0 -2 0
-3 2 4 2 3 0 -2 0
-3 2 4 2 3 0 -2 0
-2 2 4 2 3 0 -2 0
-2 2 4 2 3 0 -2 0
0 1 4 2 3 -2 -3 0
0 2 5 3 4 -2 -3 0
1 3 6 4 5 0 -2 1
2 5 7 6 6 1 0 1
3 6 8 7 7 2 1 2
4 8 9 9 9 3 2 3
4 9 9 10 9 3 2 3
4 10 10 11 10 4 3 4
4 11 10 12 11 5 3 4
4 12 11 13 12 6 4 5
4 13 12 14 13 7 5 6
4 13 12 14 13 7 5 6
4 13 12 14 13 7 5 7
3 12 12 14 13 7 5 7
3 12 12 14 13 7 5 8
2 11 12 15 14 8 6 9
3 11 12 15 14 8 6 9
4 11 11 15 15 8 7 9
5 11 10 15 16 8 7 10
6 11 9 15 17 8 8 10
8 12 8 16 18 8 9 11
8 12 7 15 17 8 9 11
8 12 6 14 16 8 9 11
8 13 4 12 15 8 8 11
8 13 3 11 14 8 8 11
7 14 1 9 13 8 7 12
7 13 1 9 13 8 7 12
8 12 1 9 13 7 7 12
8 10 1 9 13 7 6 12
9 9 1 9 13 6 6 12
10 7 0 10 12 5 5 11
10 6 0 9 11 4 5 10
10 5 0 8 10 3 4 9
10 4 0 7 9 2 3 8
10 3 0 6 8 1 2 7
11 2 0 4 7 -2 1 6
10 2 0 4 7 -2 1 6
8 2 0 3 6 -3 0 6
7 2 0 3 6 -3 -2 6
5 2 0 2 5 -4 -3 6
3 3 -2 1 4 -5 -4 5
2 2 -2 1 4 -5 -4 5
0 1 -2 1 3 -5 -5 4
-2 0 0 1 3 -5 -6 4
-4 -2 0 1 2 -5 -7 3
-6 -3 1 0 1 -6 -8 2
