I II V1 V2 V3 V4 V5 V6
-44 -10 59 9 15 18 -32 6
-43 -10 59 9 15 17 -32 6
-40 -9 58 9 15 15 -32 6
-38 -8 58 8 15 14 -33 6
-36 -7 57 8 15 12 -33 6
-34 -7 57 8 15 11 -33 6
-32 -6 56 6 12 10 -34 5
-31 -5 55 5 10 9 -34 5
-30 -5 54 4 7 8 -34 5
-29 -4 53 3 5 7 -34 5
-28 -4 53 2 3 7 -34 5
-27 -3 52 1 1 5 -35 6
-27 -3 51 1 0 3 -35 6
-28 -3 50 1 -2 1 -36 6
-28 -3 49 1 -3 -2 -36 6
-28 -3 49 1 -4 -4 -36 6
-28 -3 48 0 -5 -5 -37 6
-26 -3 48 -2 -5 -5 -36 7
-25 -2 48 -3 -4 -6 -35 7
-23 -2 48 -4 -4 -6 -34 8
-22 -2 48 -5 -4 -6 -33 8
-21 0 48 -6 -4 -8 -32 9
-21 0 47 -7 -5 -10 -33 9
-21 0 46 -8 -6 -12 -34 9
-21 0 45 -9 -7 -14 -35 9
-21 0 44 -10 -8 -16 -35 9
-20 -2 43 -11 -9 -16 -36 8
-20 -2 43 -11 -8 -15 -35 8
-19 0 43 -11 -7 -13 -35 9
-19 0 43 -11 -6 -12 -34 9
-19 0 43 -11 -6 -11 -34 9
-17 1 42 -11 -5 -10 -33 10
-16 1 42 -11 -5 -10 -33 10
-14 1 40 -11 -5 -10 -33 9
-13 1 40 -11 -5 -10 -33 9
-12 1 40 -11 -5 -10 -33 9
-11 2 39 -12 -7 -9 -34 8
-11 2 39 -13 -8 -10 -35 8
-11 3 38 -14 -9 -11 -36 7
-11 3 38 -15 -10 -12 -37 7
-11 3 38 -16 -11 -13 -37 7
-11 4 37 -17 -12 -14 -38 6
-10 4 36 -17 -11 -14 -38 6
-9 4 36 -18 -10 -13 -38 6
-8 4 35 -18 -9 -13 -38 6
-8 4 35 -18 -9 -13 -38 6
-6 5 34 -19 -8 -12 -38 6
-5 6 33 -19 -8 -12 -38 6
-3 8 33 -20 -9 -11 -38 6
-2 9 32 -20 -9 -11 -38 6
0 10 32 -20 -9 -11 -38 6
1 11 31 -21 -11 -10 -37 7
2 10 30 -22 -12 -10 -38 7
3 10 29 -22 -13 -11 -39 7
4 9 28 -23 -14 -11 -40 7
5 9 28 -23 -15 -11 -40 7
7 10 27 -24 -17 -12 -40 6
8 13 28 -23 -18 -11 -39 6
10 16 29 -22 -19 -10 -37 7
11 19 30 -21 -20 -9 -36 7
12 22 30 -21 -21 -8 -35 7
13 23 31 -20 -22 -7 -34 8
14 23 32 -20 -22 -6 -34 9
15 23 32 -20 -22 -5 -33 10
16 23 33 -20 -22 -4 -33 11
17 23 33 -20 -22 -3 -33 12
18 24 34 -19 -21 -2 -32 13
19 26 34 -19 -21 0 -32 14
20 28 34 -19 -22 0 -32 14
21 30 34 -19 -22 1 -32 15
21 32 34 -19 -22 1 -32 15
21 34 35 -19 -23 3 -32 16
20 35 36 -19 -23 4 -31 17
18 36 37 -19 -23 5 -30 18
17 37 38 -19 -23 6 -29 19
16 38 39 -19 -23 7 -28 19
15 40 40 -19 -24 8 -26 20
15 43 40 -18 -23 7 -25 20
16 45 39 -17 -22 6 -23 19
16 47 39 -16 -21 5 -22 19
16 48 39 -15 -21 4 -21 19
17 49 38 -14 -20 3 -19 18
17 48 38 -13 -20 3 -18 19
18 47 37 -13 -21 3 -16 19
18 46 37 -12 -21 3 -15 20
18 46 37 -12 -21 3 -14 20
19 43 36 -10 -22 4 -13 21
19 39 36 -9 -22 4 -12 21
18 37 36 -8 -23 4 -11 20
18 34 36 -7 -23 4 -10 20
18 32 36 -6 -23 4 -9 20
17 31 37 -5 -24 4 -8 19
18 31 37 -4 -23 4 -7 19
19 30 37 -4 -22 4 -6 18
20 30 37 -3 -21 4 -5 18
20 30 37 -3 -20 4 -4 18
21 27 37 -2 -19 2 -3 16
21 24 36 -2 -18 1 -3 15
21 21 35 0 -18 0 -3 14
21 19 34 0 -17 -2 -3 13
21 16 33 0 -17 -3 -3 12
19 10 31 1 -16 -6 -5 8
16 5 30 1 -17 -9 -7 5
12 -2 29 0 -17 -12 -8 2
8 -7 28 0 -18 -15 -10 -3
5 -13 27 0 -18 -18 -11 -6
3 -15 26 -2 -19 -19 -12 -8
2 -17 25 -3 -19 -19 -12 -9
1 -19 24 -4 -19 -19 -13 -11
0 -21 23 -5 -19 -19 -13 -12
-2 -22 22 -6 -19 -19 -13 -13
-3 -23 19 -8 -19 -20 -14 -14
-3 -22 17 -9 -19 -20 -14 -14
-3 -21 15 -10 -19 -20 -14 -14
-3 -20 13 -11 -19 -20 -14 -14
-3 -19 11 -12 -19 -20 -14 -14
-3 -18 9 -13 -20 -19 -15 -15
-4 -18 7 -13 -21 -19 -15 -15
-4 -18 5 -13 -21 -19 -15 -16
-5 -18 3 -13 -22 -19 -15 -16
-5 -18 1 -13 -22 -19 -15 -16
-7 -19 0 -14 -23 -19 -16 -17
-8 -19 0 -14 -22 -18 -16 -17
-9 -19 0 -14 -22 -18 -16 -16
-10 -19 0 -14 -21 -17 -16 -16
-11 -19 0 -14 -21 -17 -16 -16
-12 -19 -3 -13 -20 -16 -15 -15
-12 -19 -4 -13 -20 -16 -15 -15
-12 -18 -6 -13 -20 -15 -14 -14
-12 -18 -7 -13 -20 -15 -14 -14
-12 -18 -8 -13 -20 -15 -14 -14
-12 -16 -9 -12 -19 -14 -13 -13
-12 -14 -9 -11 -18 -13 -13 -12
-12 -13 -9 -10 -17 -13 -12 -11
-12 -11 -9 -9 -16 -12 -12 -10
-12 -10 -9 -8 -16 -12 -12 -10
-12 -9 -8 -7 -15 -11 -11 -9
-14 -9 -6 -7 -15 -10 -10 -9
-16 -8 -5 -7 -15 -10 -9 -9
-18 -8 -3 -7 -15 -9 -8 -9
-20 -8 -2 -7 -15 -9 -8 -9
-21 -6 0 -5 -14 -7 -6 -7
-21 -5 -2 -3 -12 -6 -5 -6
-20 -3 -3 1 -10 -4 -3 -4
-20 -2 -4 4 -9 -3 -2 -3
-20 0 -4 6 -7 -2 0 -2
-7 8 -10 17 11 14 12 9
7 17 -15 30 30 30 25 19
21 26 -21 43 50 48 39 29
34 35 -27 56 68 64 53 40
49 44 -33 68 88 81 66 51
66 65 -44 74 111 109 91 72
85 89 -55 80 136 140 117 96
102 112 -66 87 160 170 143 118
120 135 -77 92 185 199 170 141
138 158 -89 98 210 230 195 164
139 162 -92 91 214 236 200 169
136 165 -94 81 215 240 202 171
133 168 -96 71 216 243 204 173
130 170 -97 62 217 247 205 175
127 172 -99 53 218 251 207 177
104 150 -98 42 186 218 181 156
79 123 -96 30 148 178 149 131
54 97 -93 19 109 139 116 105
29 70 -90 8 71 99 85 79
5 44 -88 -4 32 60 53 54
-8 29 -82 -17 8 37 34 39
-19 16 -77 -30 -15 17 19 26
-29 4 -72 -44 -37 -4 3 14
-39 -9 -67 -58 -60 -23 -13 2
-50 -22 -62 -71 -82 -44 -28 -12
-51 -23 -59 -65 -82 -46 -32 -14
-49 -22 -56 -55 -76 -45 -33 -15
-47 -20 -53 -44 -71 -43 -35 -16
-45 -19 -50 -33 -66 -41 -36 -17
-43 -18 -47 -23 -60 -40 -37 -17
-40 -17 -44 -18 -59 -39 -38 -18
-37 -16 -40 -14 -58 -39 -38 -18
-35 -15 -37 -11 -57 -39 -38 -17
-33 -14 -34 -7 -56 -39 -38 -17
-31 -14 -31 -3 -56 -39 -38 -17
-30 -13 -29 0 -53 -39 -39 -16
-30 -13 -27 3 -50 -39 -39 -15
-30 -13 -25 5 -47 -39 -39 -14
-30 -13 -23 7 -44 -39 -39 -13
-30 -13 -21 9 -40 -39 -39 -12
-30 -14 -20 10 -38 -38 -40 -11
-31 -14 -20 10 -37 -38 -41 -11
-31 -14 -20 10 -36 -38 -43 -11
-32 -14 -20 10 -34 -38 -44 -11
-32 -14 -20 10 -33 -38 -45 -11
-33 -14 -19 11 -32 -38 -46 -12
-32 -13 -19 11 -32 -37 -46 -11
-31 -13 -18 12 -31 -36 -47 -11
-30 -12 -18 12 -31 -34 -47 -10
-30 -12 -18 12 -31 -33 -47 -10
-29 -11 -17 13 -30 -32 -48 -9
-29 -11 -17 13 -29 -32 -49 -9
-30 -10 -17 14 -29 -32 -50 -9
-30 -10 -17 14 -28 -32 -51 -9
-30 -10 -17 14 -28 -32 -51 -9
-31 -9 -16 15 -27 -31 -52 -9
-31 -9 -16 15 -27 -30 -52 -8
-31 -8 -16 16 -27 -30 -51 -7
-31 -8 -16 16 -27 -29 -51 -6
-31 -8 -16 16 -27 -29 -51 -6
-32 -7 -14 17 -26 -28 -50 -5
-32 -7 -13 17 -26 -27 -49 -5
-32 -7 -12 17 -26 -27 -48 -5
-32 -7 -11 17 -26 -26 -47 -5
-32 -7 -10 17 -26 -26 -47 -5
-32 -5 -9 16 -26 -25 -46 -4
-31 -4 -9 16 -24 -25 -46 -4
-30 -2 -9 17 -23 -24 -46 -4
-29 1 -9 17 -22 -24 -46 -4
-29 2 -9 17 -21 -24 -46 -4
-28 3 -9 18 -20 -23 -46 -3
-28 3 -9 19 -20 -22 -45 -2
-29 3 -9 19 -20 -22 -44 -2
-29 3 -9 20 -20 -21 -43 0
-29 3 -9 20 -20 -21 -43 0
-30 4 -8 21 -19 -20 -41 1
-30 5 -7 22 -18 -19 -41 1
-30 6 -7 22 -17 -19 -41 2
-30 7 -6 23 -16 -18 -41 2
-30 7 -6 23 -16 -18 -41 2
-31 8 -5 24 -15 -17 -40 3
-31 7 -5 24 -15 -17 -40 3
-31 6 -4 24 -15 -16 -40 3
-31 5 -4 24 -15 -16 -40 3
-31 5 -4 24 -15 -16 -40 3
-32 4 -3 24 -15 -15 -39 2
-32 4 -3 24 -15 -15 -39 2
-32 4 -3 25 -15 -15 -39 2
-32 4 -3 25 -15 -15 -39 2
-32 4 -3 25 -15 -15 -39 2
-31 5 -4 26 -15 -15 -39 2
-32 5 -4 26 -15 -15 -39 2
-32 6 -4 26 -15 -15 -40 3
-33 6 -4 26 -15 -15 -40 3
-33 6 -4 26 -15 -15 -40 3
-34 7 -3 26 -14 -16 -41 4
-33 7 -3 26 -13 -15 -41 5
-32 8 -3 27 -12 -14 -40 6
-31 8 -3 27 -11 -13 -40 7
-30 8 -3 27 -11 -12 -40 7
-29 9 -2 28 -10 -11 -39 8
-29 10 -2 28 -10 -11 -39 8
-28 11 -2 28 -10 -11 -39 8
-28 12 -2 28 -10 -11 -39 8
-28 13 -2 28 -10 -11 -39 8
-27 14 -3 29 -9 -12 -38 9
-26 14 -3 29 -8 -11 -37 10
-25 14 -3 30 -7 -10 -36 10
-24 14 -3 30 -6 -9 -35 11
-24 14 -3 30 -6 -9 -34 11
-22 13 -4 31 -5 -7 -33 12
-20 14 -4 32 -3 -6 -32 14
-18 15 -4 33 -2 -5 -31 15
-16 16 -4 34 0 -3 -30 16
-14 16 -4 34 1 -2 -29 17
-13 17 -5 35 3 1 -28 18
-13 19 -5 36 4 2 -27 18
-13 20 -5 36 6 3 -26 19
-13 21 -5 37 8 5 -25 19
-13 22 -5 37 9 6 -24 19
-13 23 -5 38 10 7 -23 20
-13 23 -6 39 11 8 -22 20
-12 23 -7 39 12 8 -21 21
-12 23 -8 40 13 9 -20 21
-12 23 -9 40 14 9 -19 21
-10 24 -10 42 16 11 -17 22
-9 26 -11 42 17 13 -16 23
-8 27 -11 43 19 15 -14 24
-6 28 -12 43 21 16 -12 25
-5 29 -12 43 22 18 -11 26
-4 31 -13 44 23 20 -9 28
-2 32 -13 45 24 21 -8 30
0 34 -13 46 24 23 -7 32
1 36 -13 47 25 25 -5 34
2 37 -13 47 25 26 -4 36
3 38 -13 48 26 27 -3 37
4 39 -13 48 28 28 -2 37
5 39 -14 48 29 28 0 38
6 40 -14 48 30 29 1 38
6 40 -14 48 31 29 2 38
7 42 -15 47 32 30 3 39
9 44 -15 47 32 31 3 40
10 45 -15 47 33 32 4 42
11 46 -15 47 33 33 4 43
12 47 -15 47 33 34 4 43
13 48 -15 46 34 35 5 44
12 48 -15 46 34 36 7 45
11 49 -15 45 34 37 8 46
10 49 -15 45 34 38 9 47
10 49 -15 45 34 38 10 47
9 50 -15 44 35 38 10 48
9 49 -14 43 34 37 9 47
9 48 -13 42 33 36 8 47
9 47 -12 40 32 34 6 46
9 46 -12 39 31 33 5 46
8 45 -11 38 29 32 4 45
7 45 -10 37 28 32 4 43
6 45 -10 36 27 31 3 42
4 45 -9 35 25 31 3 40
3 45 -9 34 24 31 3 39
1 44 -7 33 23 29 1 38
-2 42 -6 33 22 28 0 37
-4 40 -4 34 22 26 -2 36
-6 39 -2 34 21 24 -4 35
-8 38 0 34 21 23 -5 35
-9 37 2 35 19 21 -7 33
-9 37 3 34 17 20 -8 32
-10 36 4 33 16 19 -10 31
-10 36 6 33 14 17 -11 29
-10 36 7 32 12 16 -13 28
-12 34 8 31 11 14 -14 26
-15 33 9 31 10 13 -15 25
-17 31 9 30 9 12 -16 24
-19 30 10 30 9 10 -17 22
-22 28 10 30 8 9 -18 21
-23 27 11 29 7 8 -19 20
-23 27 12 29 7 8 -19 20
-22 27 13 29 7 8 -20 20
-22 27 13 29 7 8 -20 20
-22 27 14 29 7 8 -20 20
-21 26 15 28 6 8 -21 20
-22 26 16 28 5 7 -21 20
-22 26 16 29 5 7 -21 19
-23 26 17 29 4 6 -21 19
-23 26 17 29 4 6 -21 19
-24 26 18 29 3 5 -20 17
-24 26 17 28 2 4 -21 15
-24 26 16 26 2 4 -21 14
-24 26 15 25 1 3 -22 12
-24 26 14 23 1 3 -22 10
-23 26 13 22 0 2 -23 9
-24 25 14 22 0 2 -23 9
-24 24 14 22 0 2 -23 9
-25 24 15 22 0 2 -23 9
-25 23 15 22 0 2 -23 9
-26 22 16 23 1 1 -24 10
-26 22 15 22 0 1 -24 10
-26 22 15 21 0 1 -23 10
-26 22 14 20 -2 1 -23 10
-26 22 14 19 -2 1 -23 10
-26 23 13 18 -3 2 -22 9
-25 22 14 19 -3 2 -21 10
-24 21 14 20 -2 3 -20 10
-24 21 15 20 -2 3 -19 11
-23 20 15 21 -2 3 -18 11
-22 19 16 22 0 4 -17 12
-22 20 16 22 0 4 -17 12
-22 21 16 21 0 4 -17 12
-22 21 16 21 0 4 -17 12
-22 22 16 21 0 4 -17 12
-21 23 15 20 -2 4 -18 11
-21 22 15 21 -2 3 -18 11
-21 21 15 22 -2 2 -18 10
-21 21 15 22 -2 1 -18 10
-21 20 15 23 -2 0 -18 10
-21 19 16 24 -2 -2 -19 9
-22 20 16 24 0 0 -19 9
-22 21 15 25 1 1 -19 9
-23 22 15 25 2 1 -19 9
-23 23 15 25 3 2 -19 9
-24 24 14 26 4 3 -20 8
-24 22 15 26 3 3 -18 8
-23 21 15 26 3 3 -17 9
-23 20 16 26 2 3 -15 9
-23 19 16 26 2 3 -14 9
-22 18 17 26 1 3 -13 10
-21 18 17 26 2 3 -13 10
-20 18 17 27 3 3 -13 10
-19 18 17 27 3 3 -13 10
-18 18 17 27 4 3 -13 10
-17 19 18 28 5 3 -13 9
-17 19 18 28 5 3 -12 8
-17 19 18 28 5 3 -12 8
-17 19 18 28 5 3 -11 7
-17 19 18 28 5 3 -11 7
-18 20 18 28 4 4 -10 6
-18 20 17 28 4 4 -10 6
-18 19 17 28 5 3 -10 6
-18 19 16 28 5 3 -10 6
-18 19 16 28 5 3 -10 6
-17 18 15 29 6 2 -11 5
-17 18 15 29 6 3 -10 5
-17 19 16 29 7 4 -10 5
-17 19 16 29 7 5 -9 5
-17 19 16 29 7 6 -9 5
-17 20 17 30 8 7 -8 6
-16 19 16 29 7 6 -8 6
-15 18 15 28 6 6 -7 6
-15 18 15 28 5 5 -7 6
-14 17 14 27 4 5 -7 6
-13 16 13 26 3 4 -6 7
-13 16 13 26 3 4 -5 7
-13 16 13 26 3 4 -5 7
-13 16 13 26 3 4 -4 7
-13 16 13 26 3 4 -4 7
-13 17 14 25 4 4 -3 8
-12 17 14 25 4 4 -3 8
-12 18 14 25 4 4 -3 8
-11 18 14 25 4 4 -3 8
-11 18 14 25 4 4 -3 8
-10 19 14 24 5 5 -3 7
-10 19 14 23 5 5 -3 7
-10 18 13 23 5 4 -3 7
-10 18 13 22 5 4 -3 7
-10 18 13 22 5 4 -3 7
-11 17 12 21 4 3 -3 6
-11 17 12 20 3 3 -3 6
-11 16 12 19 3 3 -3 5
-11 16 12 19 2 3 -3 5
-11 16 12 18 2 3 -3 5
-10 15 11 17 1 4 -2 4
-10 15 11 17 1 4 -2 4
-11 15 10 16 0 4 0 4
-11 15 10 16 0 4 1 4
-11 15 10 16 0 4 1 4
-12 14 9 15 -2 4 2 4
-12 14 9 15 -3 3 2 4
-12 13 8 14 -5 1 1 3
-12 12 7 13 -6 0 1 2
-12 12 7 13 -7 -2 1 2
-13 11 6 12 -8 -3 0 1
-13 11 6 11 -8 -3 0 1
-12 10 5 10 -8 -3 1 0
-11 9 5 9 -8 -3 2 -2
-11 9 5 8 -8 -3 2 -2
-10 8 4 7 -9 -3 2 -3
-10 8 4 6 -9 -3 1 -3
-9 9 4 5 -10 -4 -2 -3
-9 9 4 5 -11 -5 -3 -3
-9 9 4 4 -11 -5 -5 -3
-8 10 4 3 -12 -6 -6 -4
-8 10 4 3 -12 -6 -6 -4
-8 9 3 3 -12 -6 -6 -4
-8 9 3 3 -12 -6 -6 -4
-8 9 3 3 -12 -6 -6 -4
-8 8 3 2 -11 -5 -6 -4
-8 8 5 3 -10 -4 -4 -3
-9 7 7 5 -8 -2 -2 -2
-9 7 10 6 -7 0 2 0
-9 7 12 7 -5 2 4 1
-10 7 13 8 -4 3 5 2
-8 9 13 8 -3 3 5 2
-7 12 13 8 -2 2 4 2
-5 14 13 8 -2 2 4 2
-4 17 13 8 0 2 4 2
-3 18 14 9 1 1 3 3
-3 18 14 9 1 1 3 3
-3 17 14 9 1 1 3 3
-3 17 14 9 1 1 3 3
-3 17 14 9 1 1 3 3
-3 16 14 8 0 1 4 2
-3 16 15 8 0 2 5 3
-4 17 16 9 1 4 7 4
-5 17 16 10 2 5 8 4
-5 17 17 10 2 6 9 5
-6 18 18 11 3 7 10 6
-5 19 18 11 3 7 10 6
-4 20 17 10 2 7 11 6
-3 21 16 10 1 7 12 6
-2 22 16 10 1 7 12 6
1 24 15 9 0 7 13 6
2 26 14 9 0 7 13 6
4 28 13 9 1 8 14 7
5 30 13 9 1 8 14 7
7 32 12 9 1 8 14 7
8 33 11 10 2 9 15 8
8 33 11 10 3 10 16 8
8 32 11 10 4 11 17 9
8 31 11 10 5 12 17 9
8 31 11 10 6 13 18 9
9 30 10 9 7 14 19 10
9 29 9 9 7 14 19 10
10 28 7 9 7 13 18 9
10 27 6 9 7 13 18 9
10 26 5 9 7 13 18 9
11 23 4 10 6 12 17 8
9 20 4 9 4 10 15 6
7 17 4 7 2 8 14 4
6 13 4 6 1 7 12 3
4 10 4 5 -2 5 11 1
3 7 4 3 -4 3 9 -2
2 4 2 2 -5 1 6 -4
1 1 1 0 -7 -3 3 -6
0 -3 -2 -3 -9 -5 0 -8
-2 -6 -3 -5 -11 -8 -4 -11
-3 -8 -4 -6 -12 -9 -6 -12
-4 -10 -4 -7 -13 -9 -6 -12
-5 -12 -3 -8 -14 -10 -6 -13
-5 -13 -3 -8 -15 -10 -6 -14
-6 -15 -3 -9 -16 -10 -6 -14
-7 -16 -2 -10 -17 -11 -7 -15
-7 -16 -2 -10 -17 -11 -8 -15
-7 -17 -3 -11 -17 -12 -10 -16
-7 -17 -3 -12 -17 -13 -11 -16
-7 -17 -3 -12 -17 -13 -12 -16
-7 -18 -4 -13 -17 -14 -13 -17
-7 -18 -4 -13 -17 -14 -13 -17
-7 -19 -3 -13 -18 -15 -12 -18
-7 -19 -3 -13 -19 -15 -12 -19
-7 -19 -3 -13 -19 -15 -12 -19
-8 -20 -2 -14 -20 -16 -11 -20
-8 -20 -3 -14 -20 -16 -11 -20
-9 -21 -4 -15 -21 -16 -11 -20
-9 -21 -4 -15 -22 -16 -11 -20
-9 -21 -5 -15 -22 -16 -11 -20
-10 -22 -6 -16 -23 -17 -12 -20
-9 -23 -6 -16 -23 -17 -12 -21
-8 -24 -6 -17 -23 -17 -13 -22
-7 -25 -6 -17 -23 -17 -13 -23
-6 -26 -6 -17 -23 -17 -13 -24
-5 -27 -5 -18 -23 -17 -14 -25
-6 -27 -5 -18 -23 -17 -14 -25
-7 -27 -4 -18 -23 -18 -14 -24
-7 -27 -4 -18 -23 -18 -14 -24
-8 -27 -4 -18 -23 -18 -14 -24
-9 -26 -3 -18 -24 -19 -14 -23
-10 -26 0 -17 -24 -19 -14 -23
-11 -27 2 -16 -24 -19 -14 -23
-11 -27 3 -15 -24 -19 -14 -23
-12 -27 5 -14 -24 -19 -14 -23
-13 -27 6 -13 -24 -20 -13 -23
-12 -26 7 -11 -23 -20 -14 -23
-11 -24 8 -10 -22 -21 -15 -24
-10 -22 8 -8 -22 -22 -15 -25
-9 -20 9 -7 -21 -22 -16 -25
-3 -18 9 1 -12 -15 -11 -22
9 -15 5 12 5 1 1 -13
19 -12 2 23 21 16 13 -5
29 -9 -2 35 36 30 24 5
39 -7 -5 47 53 46 36 13
55 9 -12 56 75 70 57 29
73 32 -22 65 104 102 85 53
92 57 -32 74 132 134 111 75
110 80 -43 82 159 165 139 98
129 104 -53 92 188 197 167 121
137 119 -59 94 204 218 183 135
138 129 -63 89 214 230 191 141
140 138 -66 84 223 241 200 147
141 146 -70 78 231 254 209 153
142 155 -73 74 240 265 217 159
131 148 -73 58 226 252 205 150
108 129 -69 34 192 218 178 129
87 108 -64 11 158 183 149 107
64 89 -60 -13 126 148 121 85
42 68 -55 -36 92 113 94 63
25 52 -53 -54 59 82 69 45
13 37 -52 -67 26 55 49 29
2 23 -51 -79 -7 27 28 14
-11 9 -50 -93 -39 0 8 -3
-22 -5 -49 -105 -71 -28 -14 -18
-28 -14 -47 -107 -85 -41 -24 -26
-27 -18 -44 -98 -79 -43 -27 -29
-26 -22 -40 -90 -74 -44 -29 -32
-26 -26 -38 -80 -69 -44 -32 -35
-25 -31 -35 -71 -65 -45 -34 -38
-23 -33 -32 -64 -60 -45 -36 -40
-21 -32 -29 -58 -56 -43 -35 -39
-19 -30 -25 -52 -52 -40 -34 -38
-17 -29 -22 -46 -48 -38 -33 -37
-15 -28 -19 -39 -44 -35 -32 -36
-14 -28 -17 -35 -40 -34 -31 -35
-14 -30 -16 -33 -38 -33 -30 -34
-14 -32 -14 -31 -36 -32 -29 -33
-14 -34 -13 -29 -34 -31 -28 -33
-14 -36 -12 -27 -32 -30 -27 -32
-13 -37 -11 -25 -31 -29 -26 -31
-11 -35 -10 -24 -31 -29 -26 -31
-9 -34 -9 -23 -30 -29 -27 -32
-7 -33 -9 -23 -29 -29 -27 -32
-5 -31 -8 -22 -29 -29 -27 -32
-4 -30 -7 -21 -28 -30 -28 -33
-4 -30 -7 -21 -28 -30 -28 -33
-4 -30 -6 -20 -27 -29 -28 -34
-4 -30 -5 -20 -27 -29 -28 -34
-4 -30 -5 -20 -27 -29 -28 -34
-3 -31 -4 -19 -26 -28 -28 -35
-4 -32 -4 -19 -26 -28 -28 -35
-6 -33 -4 -18 -26 -28 -28 -34
-7 -33 -4 -18 -26 -28 -28 -33
-8 -34 -4 -18 -26 -28 -28 -33
-9 -35 -4 -17 -27 -28 -28 -32
-8 -33 -4 -17 -27 -28 -28 -32
-6 -32 -5 -18 -27 -28 -28 -31
-5 -31 -6 -19 -27 -28 -28 -31
-4 -29 -6 -19 -27 -28 -28 -31
-3 -28 -7 -20 -27 -27 -28 -30
-3 -29 -7 -20 -27 -27 -28 -30
-3 -30 -6 -20 -28 -28 -29 -31
-3 -31 -6 -20 -28 -28 -29 -31
-3 -32 -6 -20 -28 -28 -29 -31
-3 -33 -5 -20 -29 -29 -30 -32
-3 -33 -5 -19 -28 -28 -30 -32
-3 -32 -4 -18 -27 -27 -29 -32
-3 -32 -4 -17 -27 -26 -28 -32
-3 -32 -4 -16 -26 -25 -28 -32
-3 -31 -3 -15 -25 -24 -27 -31
-3 -31 -3 -15 -25 -24 -27 -31
-3 -30 -3 -15 -25 -24 -26 -30
-3 -29 -3 -15 -25 -24 -26 -30
-3 -29 -3 -15 -25 -24 -26 -30
-2 -28 -4 -15 -25 -23 -25 -29
-2 -28 -4 -15 -25 -24 -27 -30
-2 -28 -5 -16 -25 -25 -28 -32
-2 -28 -5 -17 -25 -25 -29 -33
-2 -28 -5 -17 -25 -26 -31 -34
-3 -29 -6 -18 -26 -27 -32 -35
-2 -29 -6 -18 -26 -27 -32 -35
0 -29 -6 -18 -27 -27 -32 -35
0 -29 -6 -18 -27 -27 -32 -35
1 -29 -6 -18 -27 -27 -32 -35
2 -29 -7 -17 -28 -27 -33 -36
2 -29 -7 -17 -28 -27 -33 -35
3 -29 -7 -17 -27 -27 -33 -34
4 -29 -7 -17 -27 -27 -33 -34
4 -29 -7 -17 -27 -27 -33 -33
5 -30 -7 -18 -26 -28 -33 -32
5 -29 -7 -18 -26 -28 -33 -32
6 -28 -7 -17 -25 -28 -34 -32
7 -27 -7 -17 -25 -28 -34 -32
7 -26 -7 -17 -25 -28 -34 -32
8 -25 -8 -16 -24 -29 -35 -32
8 -26 -8 -16 -24 -29 -35 -32
7 -27 -8 -16 -24 -29 -35 -32
6 -29 -8 -15 -23 -29 -36 -33
6 -30 -8 -15 -23 -29 -36 -33
5 -31 -7 -14 -22 -28 -37 -34
5 -31 -9 -15 -22 -28 -37 -34
4 -31 -10 -16 -22 -28 -37 -34
3 -30 -11 -17 -22 -28 -36 -33
3 -30 -13 -18 -22 -28 -36 -33
2 -29 -14 -19 -23 -27 -35 -32
3 -29 -14 -17 -22 -27 -35 -32
4 -29 -14 -16 -21 -26 -35 -32
5 -29 -14 -15 -19 -25 -35 -32
6 -29 -14 -13 -18 -25 -35 -32
7 -29 -14 -12 -17 -24 -35 -31
7 -29 -14 -12 -17 -24 -35 -31
7 -29 -14 -12 -17 -24 -35 -31
8 -28 -14 -11 -16 -24 -35 -30
8 -28 -14 -11 -16 -24 -35 -30
9 -27 -15 -10 -15 -24 -34 -29
10 -27 -16 -9 -13 -22 -32 -29
11 -27 -16 -9 -11 -20 -31 -28
13 -27 -17 -8 -9 -18 -29 -27
14 -27 -18 -7 -7 -16 -27 -27
15 -26 -19 -6 -5 -15 -26 -26
16 -26 -21 -6 -5 -15 -26 -26
17 -26 -22 -5 -5 -15 -26 -26
18 -25 -24 -4 -5 -15 -26 -26
19 -25 -26 -4 -5 -15 -26 -26
20 -24 -27 -3 -4 -13 -26 -25
20 -23 -27 -3 0 -11 -24 -23
20 -23 -27 -2 3 -9 -23 -22
21 -22 -28 0 6 -7 -22 -20
21 -21 -28 0 9 -5 -20 -18
22 -20 -29 1 11 -3 -19 -17
24 -19 -30 2 12 -2 -19 -17
26 -18 -31 3 12 -2 -19 -16
28 -17 -32 4 13 0 -19 -15
30 -16 -33 5 14 1 -19 -15
32 -15 -34 6 15 2 -18 -14
33 -14 -35 6 16 3 -17 -13
34 -14 -35 6 17 3 -16 -12
36 -13 -36 5 18 4 -15 -11
37 -12 -37 5 19 5 -14 -10
38 -11 -38 4 20 6 -13 -9
38 -11 -38 4 20 7 -13 -8
38 -11 -38 4 20 8 -13 -7
38 -10 -37 5 20 9 -12 -5
38 -10 -37 5 20 10 -12 -4
37 -9 -36 6 21 11 -11 -3
37 -9 -37 5 21 11 -11 -3
37 -9 -38 5 21 11 -11 -3
37 -9 -40 4 21 11 -12 -4
37 -9 -41 3 21 11 -12 -4
38 -8 -43 2 21 11 -13 -5
37 -8 -43 2 20 10 -13 -5
37 -8 -43 1 19 10 -14 -6
36 -9 -43 0 18 9 -15 -7
35 -9 -43 0 17 8 -15 -7
34 -10 -41 -2 16 7 -16 -8
32 -10 -40 -2 16 7 -16 -8
31 -10 -40 -2 15 7 -16 -8
29 -9 -39 -3 14 7 -16 -8
27 -9 -38 -3 14 7 -16 -8
26 -8 -37 -4 13 8 -15 -7
25 -9 -35 -4 10 6 -17 -8
25 -9 -33 -4 8 4 -18 -8
24 -10 -31 -4 6 2 -20 -9
23 -11 -29 -4 4 0 -22 -10
22 -12 -27 -5 2 -3 -23 -11
20 -12 -25 -5 2 -3 -25 -11
19 -11 -23 -5 1 -3 -26 -11
17 -10 -21 -5 0 -4 -27 -12
15 -10 -19 -5 0 -4 -29 -12
14 -9 -17 -6 -2 -5 -30 -13
13 -9 -16 -6 -4 -7 -31 -15
12 -9 -15 -6 -5 -8 -32 -16
10 -9 -14 -7 -6 -9 -33 -17
9 -9 -13 -7 -8 -11 -34 -19
8 -10 -12 -8 -9 -12 -35 -20
6 -12 -12 -9 -9 -12 -36 -20
5 -13 -12 -9 -9 -12 -37 -20
4 -14 -12 -10 -10 -12 -39 -20
2 -16 -12 -11 -10 -12 -40 -20
1 -17 -12 -12 -11 -13 -41 -21
0 -17 -12 -12 -12 -14 -43 -21
0 -17 -12 -12 -13 -15 -43 -21
-2 -17 -11 -12 -14 -16 -44 -22
-3 -17 -11 -12 -15 -17 -45 -22
-4 -18 -10 -12 -16 -18 -46 -23
-4 -18 -10 -12 -16 -18 -46 -23
-3 -17 -10 -12 -16 -18 -47 -23
-2 -16 -9 -11 -15 -18 -48 -24
-2 -16 -9 -11 -15 -18 -48 -24
0 -15 -8 -10 -14 -17 -49 -25
0 -15 -8 -10 -14 -17 -49 -25
-2 -15 -8 -10 -14 -17 -49 -25
-3 -16 -8 -10 -14 -17 -49 -24
-3 -16 -8 -10 -14 -17 -49 -24
-4 -17 -9 -10 -15 -17 -48 -23
-3 -17 -9 -10 -15 -16 -48 -23
-3 -16 -9 -10 -14 -16 -48 -23
-2 -15 -9 -10 -13 -15 -48 -23
0 -15 -9 -10 -13 -14 -48 -23
1 -14 -8 -9 -12 -13 -48 -22
0 -14 -8 -9 -12 -14 -49 -22
-2 -14 -7 -9 -12 -14 -49 -22
-4 -14 -6 -9 -13 -15 -50 -23
-5 -14 -6 -9 -13 -16 -51 -23
-6 -15 -5 -10 -14 -17 -52 -24
-6 -15 -5 -10 -14 -17 -52 -24
-6 -15 -5 -10 -14 -17 -52 -24
-6 -16 -6 -9 -14 -16 -52 -24
-6 -16 -6 -9 -14 -16 -52 -24
-7 -17 -7 -8 -13 -15 -52 -23
-7 -17 -7 -8 -13 -15 -52 -24
-6 -17 -7 -8 -14 -15 -52 -24
-5 -16 -7 -8 -15 -16 -53 -25
-5 -16 -7 -8 -15 -16 -53 -26
-4 -15 -8 -9 -16 -17 -54 -27
-4 -14 -8 -8 -15 -16 -54 -26
-4 -12 -7 -7 -13 -16 -54 -24
-4 -11 -6 -6 -12 -15 -54 -23
-4 -9 -6 -5 -10 -14 -54 -21
-5 -8 -5 -4 -9 -13 -53 -20
-5 -10 -5 -4 -9 -13 -53 -20
-5 -12 -5 -3 -9 -13 -53 -20
-5 -14 -5 -2 -9 -13 -53 -20
-5 -15 -5 -2 -9 -13 -53 -20
-5 -17 -4 0 -8 -12 -53 -21
-5 -17 -4 0 -8 -12 -53 -21
-5 -17 -4 0 -8 -12 -53 -22
-5 -16 -4 1 -7 -12 -54 -23
-5 -16 -4 1 -7 -12 -54 -23
-6 -15 -4 2 -6 -13 -55 -24
-5 -14 -4 2 -6 -13 -55 -23
-4 -14 -4 2 -6 -13 -55 -23
-3 -13 -3 3 -6 -12 -55 -22
-2 -12 -3 3 -6 -12 -55 -21
0 -11 -2 4 -7 -11 -52 -20
-2 -11 -2 4 -6 -11 -44 -20
-2 -11 -2 4 -6 -10 -35 -19
-3 -11 -2 4 -5 -9 -27 -18
-4 -11 -2 4 -4 -9 -19 -18
-5 -12 -2 5 -3 -8 -14 -17
-5 -12 -2 5 -3 -8 -13 -17
-5 -12 -2 5 -3 -8 -11 -17
-5 -12 -2 6 -3 -8 -10 -17
-5 -12 -2 6 -3 -8 -8 -17
-5 -12 -2 7 -3 -9 -7 -18
-5 -12 -2 6 -3 -9 -7 -18
-4 -12 -2 5 -4 -9 -7 -18
-3 -12 -2 4 -5 -9 -7 -18
-3 -12 -2 3 -5 -9 -7 -18
-2 -11 -2 2 -6 -9 -6 -18
-2 -11 -2 2 -6 -9 -6 -18
-2 -11 -2 2 -5 -9 -6 -18
0 -11 -2 2 -4 -8 -5 -18
0 -11 -2 2 -4 -8 -5 -18
1 -10 -2 2 -3 -7 -4 -17
1 -10 -2 2 -4 -7 -4 -17
0 -10 -2 1 -4 -7 -4 -17
-2 -10 -2 0 -5 -8 -5 -17
-2 -10 -2 0 -6 -8 -5 -17
-3 -10 -2 -2 -7 -9 -6 -16
-3 -10 -2 -2 -7 -9 -6 -16
-3 -10 -2 -2 -7 -9 -5 -16
-4 -10 -2 -2 -7 -8 -4 -16
-4 -10 -2 -2 -7 -8 -4 -16
-5 -11 0 -3 -6 -7 -3 -16
-5 -11 -2 -3 -6 -7 -3 -16
-5 -11 -2 -4 -7 -7 -3 -16
-5 -10 -3 -5 -8 -7 -4 -16
-5 -10 -4 -5 -8 -7 -4 -16
-5 -9 -5 -6 -9 -8 -5 -16
-5 -9 -4 -6 -9 -8 -5 -16
-5 -9 -4 -6 -9 -8 -5 -16
-5 -9 -3 -6 -9 -8 -5 -16
-5 -9 -2 -6 -9 -8 -5 -16
-5 -10 0 -5 -10 -9 -5 -16
-5 -10 0 -6 -10 -9 -5 -16
-5 -9 0 -6 -10 -9 -5 -16
-6 -8 0 -7 -10 -8 -5 -16
-6 -8 0 -8 -10 -8 -5 -16
-7 -7 0 -9 -10 -7 -4 -17
-7 -7 2 -7 -10 -7 -4 -17
-7 -7 4 -6 -10 -7 -3 -16
-8 -7 6 -4 -9 -6 -2 -15
-8 -7 7 -3 -9 -6 -2 -15
-9 -6 9 0 -8 -5 0 -14
-9 -5 9 0 -8 -5 0 -13
-9 -4 9 0 -8 -5 0 -13
-9 -3 9 0 -7 -4 0 -12
-9 -2 9 0 -7 -4 0 -11
-8 0 10 -2 -6 -3 1 -10
-7 1 11 -2 -6 -3 1 -10
-6 1 12 -2 -6 -3 1 -10
-5 2 13 -2 -5 -3 0 -10
-4 3 14 -2 -5 -3 0 -10
-3 4 15 0 -4 -3 -2 -10
-3 5 15 0 -4 -2 -2 -9
-3 7 15 0 -3 0 0 -9
-3 8 16 0 -2 1 1 -8
-3 10 16 0 -2 2 1 -7
-3 12 17 0 0 3 2 -6
-3 15 17 2 1 4 4 -5
-3 18 17 3 2 6 6 -4
-3 20 17 5 3 7 7 -3
-3 23 17 6 5 9 9 0
-3 26 18 8 6 10 11 1
-2 27 18 8 6 11 11 2
-2 29 17 8 6 11 11 2
0 30 17 7 6 12 12 3
1 32 16 7 6 13 12 4
2 33 15 6 7 14 13 5
2 33 14 6 7 14 13 5
2 33 13 6 7 14 13 5
2 33 12 5 7 14 14 6
2 33 11 5 7 14 14 6
3 33 10 4 7 14 15 7
3 31 9 4 7 14 15 7
3 29 9 4 7 14 15 7
3 28 8 4 7 14 15 7
3 26 7 4 7 14 15 7
2 24 6 5 8 13 15 8
2 21 6 4 6 12 13 6
2 18 6 4 5 11 12 5
3 15 6 3 3 10 10 3
3 12 6 2 2 8 9 2
4 9 6 1 0 7 7 0
2 6 6 0 -2 5 5 -2
0 2 6 -2 -3 4 3 -4
-3 -2 6 -3 -4 2 1 -5
-5 -6 6 -5 -5 1 -2 -7
-7 -9 7 -6 -6 -2 -4 -8
-8 -9 7 -7 -7 -3 -5 -9
-10 -9 6 -8 -9 -5 -6 -10
-11 -10 6 -9 -10 -6 -7 -11
-13 -10 5 -10 -12 -8 -8 -13
-14 -11 4 -11 -13 -9 -9 -14
-14 -11 4 -11 -13 -9 -9 -14
-14 -12 4 -11 -13 -9 -9 -13
-13 -12 4 -12 -13 -9 -9 -13
-13 -13 4 -12 -13 -9 -9 -12
-12 -14 4 -13 -14 -9 -10 -11
-12 -15 4 -14 -15 -10 -10 -12
-12 -15 4 -14 -16 -11 -10 -12
-13 -16 3 -15 -17 -12 -11 -13
-13 -17 3 -16 -19 -13 -11 -14
-14 -18 2 -17 -20 -14 -12 -15
-14 -18 2 -17 -19 -14 -12 -15
-14 -17 2 -17 -19 -14 -12 -15
-14 -17 2 -16 -18 -13 -12 -15
-14 -16 2 -16 -17 -13 -12 -15
-14 -15 2 -15 -16 -12 -12 -15
-14 -15 2 -15 -16 -12 -13 -15
-15 -16 2 -15 -16 -12 -13 -15
-15 -16 2 -15 -16 -12 -14 -15
-16 -17 2 -15 -16 -12 -15 -15
-17 -18 3 -14 -17 -12 -16 -14
-17 -18 3 -14 -17 -12 -16 -14
-17 -18 4 -14 -17 -12 -16 -14
-17 -18 4 -13 -17 -12 -16 -15
-17 -18 5 -13 -17 -12 -16 -15
-17 -19 6 -12 -16 -13 -16 -16
-17 -17 9 -12 -17 -14 -17 -16
-18 -15 12 -12 -17 -15 -17 -16
-18 -14 15 -12 -18 -16 -18 -17
-19 -12 18 -12 -19 -18 -19 -17
-20 -10 21 -11 -20 -19 -20 -18
-17 -9 21 -6 -16 -16 -17 -15
-14 -9 22 1 -13 -13 -15 -13
-11 -8 22 6 -9 -10 -12 -10
-8 -7 23 12 -6 -7 -9 -7
-2 -4 23 19 4 3 -2 -2
12 5 19 31 28 25 17 13
25 13 15 45 53 49 35 26
37 21 11 57 76 72 55 40
51 29 7 70 101 95 73 55
65 42 0 80 127 120 95 70
81 65 -14 86 154 153 121 92
98 89 -28 91 182 185 148 113
115 112 -41 97 211 217 175 135
132 136 -55 102 238 250 201 155
143 153 -65 103 259 273 222 172
137 152 -65 90 259 273 220 169
132 152 -64 77 259 273 219 167
126 151 -64 64 260 274 217 163
120 150 -63 52 260 274 216 160
109 144 -62 34 247 263 205 152
85 123 -59 7 195 217 172 128
61 103 -56 -22 143 171 138 103
36 82 -53 -51 90 123 104 78
12 61 -51 -78 37 77 70 54
-8 43 -47 -100 -5 38 42 33
-14 30 -43 -101 -21 21 29 22
-19 18 -38 -102 -36 5 16 12
-25 6 -34 -103 -52 -13 3 1
-30 -7 -30 -104 -67 -30 -10 -11
-35 -17 -27 -103 -78 -44 -20 -19
-32 -19 -26 -93 -72 -41 -20 -20
-30 -21 -24 -82 -66 -39 -20 -21
-28 -23 -23 -72 -60 -37 -20 -22
-25 -25 -22 -62 -54 -35 -20 -23
-23 -27 -19 -53 -49 -33 -21 -24
-21 -26 -15 -48 -46 -33 -21 -24
-19 -25 -11 -43 -43 -33 -21 -24
-18 -24 -6 -37 -39 -32 -21 -24
-16 -23 -2 -32 -37 -32 -21 -24
-14 -22 3 -28 -34 -31 -22 -25
-14 -22 5 -26 -32 -30 -21 -24
-14 -22 7 -25 -31 -29 -20 -24
-13 -23 9 -23 -29 -28 -19 -23
-13 -23 11 -22 -28 -27 -17 -22
-12 -24 13 -20 -26 -26 -16 -21
-12 -25 13 -20 -26 -26 -16 -21
-12 -26 13 -20 -26 -26 -16 -21
-12 -27 13 -20 -26 -26 -16 -21
-12 -29 13 -20 -26 -26 -16 -21
-12 -30 12 -20 -26 -26 -17 -22
-12 -30 12 -20 -26 -26 -17 -22
-12 -30 13 -20 -26 -26 -17 -21
-12 -30 14 -19 -25 -26 -16 -21
-12 -30 15 -19 -25 -26 -16 -20
-13 -31 16 -18 -24 -25 -15 -19
-13 -31 16 -18 -24 -25 -15 -19
-13 -31 17 -18 -24 -25 -16 -19
-13 -31 17 -18 -25 -25 -16 -20
-13 -31 18 -18 -25 -25 -17 -20
-13 -30 19 -18 -26 -26 -18 -21
-12 -29 19 -18 -26 -26 -18 -21
-11 -28 20 -18 -26 -26 -18 -21
-10 -27 20 -18 -25 -26 -18 -21
-8 -26 21 -18 -25 -26 -18 -21
-7 -25 22 -18 -24 -26 -17 -20
-7 -25 22 -18 -24 -26 -17 -20
-7 -26 22 -18 -24 -26 -17 -20
-7 -26 22 -18 -24 -26 -17 -20
-7 -27 22 -18 -24 -26 -17 -20
-6 -28 22 -18 -25 -26 -17 -21
-6 -28 22 -18 -25 -26 -17 -21
-6 -28 22 -18 -24 -26 -16 -21
-6 -28 22 -17 -24 -25 -16 -20
-6 -28 22 -17 -23 -25 -15 -20
-5 -29 23 -16 -22 -24 -14 -19
-5 -28 23 -16 -22 -24 -14 -19
-5 -27 24 -15 -22 -23 -14 -19
-6 -26 25 -15 -21 -23 -13 -18
-6 -24 26 -14 -21 -22 -13 -18
-7 -23 27 -13 -20 -21 -12 -17
-6 -23 27 -14 -20 -21 -12 -17
-5 -23 26 -15 -20 -21 -13 -17
-4 -23 26 -16 -21 -21 -14 -17
-3 -23 25 -17 -21 -21 -15 -17
-2 -23 24 -18 -22 -22 -16 -18
-2 -23 24 -18 -22 -22 -16 -18
-3 -23 24 -17 -22 -23 -16 -18
-4 -24 24 -17 -22 -23 -17 -19
-5 -24 24 -16 -22 -24 -17 -19
-6 -25 23 -15 -22 -25 -18 -20
-6 -25 23 -15 -22 -25 -18 -20
-6 -25 23 -15 -22 -24 -17 -20
-5 -25 24 -15 -21 -23 -17 -19
-5 -25 24 -15 -21 -22 -16 -19
-4 -26 25 -15 -20 -21 -15 -18
-4 -26 25 -15 -20 -21 -15 -18
-3 -26 25 -15 -20 -21 -15 -18
-3 -26 25 -15 -20 -22 -15 -18
-2 -26 25 -15 -20 -22 -15 -18
0 -26 25 -14 -21 -23 -16 -19
0 -26 25 -14 -21 -23 -16 -19
0 -26 25 -14 -21 -23 -16 -19
0 -26 24 -14 -20 -23 -16 -19
0 -26 24 -14 -20 -23 -16 -19
0 -25 23 -14 -19 -23 -16 -19
1 -25 23 -13 -18 -23 -16 -19
2 -26 23 -12 -17 -23 -15 -18
3 -26 23 -11 -16 -23 -15 -17
4 -27 23 -10 -14 -23 -14 -16
5 -28 23 -9 -13 -22 -13 -15
5 -28 23 -9 -13 -22 -13 -15
5 -28 22 -9 -13 -21 -13 -15
5 -28 22 -9 -12 -21 -12 -15
5 -28 21 -9 -12 -20 -12 -15
6 -27 20 -9 -11 -19 -11 -16
6 -27 20 -8 -9 -19 -11 -16
7 -26 20 -7 -8 -18 -11 -15
8 -25 19 -6 -6 -17 -11 -15
9 -24 19 -5 -4 -16 -11 -14
10 -23 18 -4 -2 -15 -10 -13
11 -23 18 -4 -2 -14 -9 -13
12 -22 17 -4 0 -13 -8 -13
13 -22 17 -4 1 -12 -7 -12
15 -21 16 -4 2 -11 -6 -12
16 -20 15 -3 3 -10 -5 -11
17 -20 14 0 6 -9 -4 -11
18 -20 13 2 8 -8 -3 -10
19 -19 12 4 11 -7 -2 -9
20 -19 11 6 13 -5 1 -8
21 -18 10 8 16 -4 2 -7
23 -18 9 8 18 -3 3 -6
25 -18 7 8 19 0 4 -5
27 -17 5 9 21 1 5 -4
29 -17 4 9 23 2 6 -2
31 -16 2 10 25 4 7 0
31 -15 2 10 25 5 8 1
31 -14 1 10 26 6 9 2
32 -13 1 10 27 7 10 3
32 -11 0 10 28 9 11 4
33 -10 -2 11 29 10 12 5
33 -10 -2 11 29 10 12 5
34 -9 -2 11 30 11 12 6
34 -8 -2 11 30 11 13 7
35 -7 -2 11 31 12 13 8
36 -6 -3 10 32 13 14 9
36 -7 -3 10 32 13 14 9
36 -8 -3 10 32 14 14 10
37 -9 -2 11 33 14 15 10
37 -10 -2 11 33 15 15 11
38 -11 0 12 34 16 16 12
38 -11 0 11 34 16 16 12
38 -11 -2 9 33 16 16 12
38 -10 -2 7 33 16 16 12
38 -10 -3 6 32 16 16 12
38 -9 -4 4 31 16 16 11
37 -9 -4 4 30 16 16 11
35 -8 -4 4 29 15 15 11
34 -8 -3 4 28 14 15 11
33 -7 -3 4 27 13 14 11
31 -6 -2 5 26 12 13 10
30 -6 1 4 25 11 13 10
29 -5 2 3 23 9 12 10
28 -5 4 2 21 8 11 10
27 -4 6 1 20 7 10 10
26 -3 8 0 18 5 9 9
25 -4 10 0 17 5 9 9
24 -5 11 0 16 5 8 8
23 -6 13 0 15 4 7 8
22 -7 15 0 14 4 6 7
20 -8 17 1 13 3 5 6
18 -9 17 0 11 1 4 5
15 -10 17 -3 8 -2 3 4
13 -11 17 -4 5 -4 2 3
11 -12 17 -5 3 -7 1 2
8 -13 17 -7 0 -9 -2 0
8 -13 19 -7 0 -9 -3 0
8 -13 20 -7 -2 -10 -4 -2
8 -13 22 -7 -2 -11 -5 -2
8 -13 24 -7 -3 -12 -6 -3
7 -12 26 -6 -4 -13 -8 -4
6 -12 26 -7 -4 -13 -9 -4
5 -12 26 -8 -4 -13 -10 -5
4 -13 26 -9 -5 -13 -11 -5
3 -13 26 -10 -5 -13 -12 -6
1 -14 26 -11 -6 -14 -13 -7
1 -14 26 -11 -6 -14 -13 -7
0 -15 26 -11 -6 -14 -13 -8
0 -15 26 -11 -6 -15 -13 -9
-2 -16 26 -11 -6 -15 -13 -10
-3 -17 27 -10 -7 -16 -14 -11
-3 -16 27 -10 -7 -16 -14 -11
-3 -15 27 -10 -7 -16 -14 -10
-3 -14 28 -10 -7 -16 -13 -10
-3 -13 28 -10 -7 -16 -13 -9
-2 -11 29 -11 -7 -16 -12 -8
-2 -11 29 -11 -7 -16 -12 -8
-2 -12 29 -11 -7 -16 -12 -8
-3 -13 29 -11 -7 -16 -12 -8
-3 -14 29 -11 -7 -16 -12 -8
-4 -15 29 -10 -7 -15 -12 -9
-4 -15 29 -10 -7 -15 -12 -9
-4 -15 29 -11 -7 -15 -11 -9
-3 -15 29 -11 -7 -15 -11 -9
-3 -15 29 -12 -7 -15 -10 -9
-2 -15 29 -13 -8 -16 -9 -9
-2 -15 29 -13 -8 -16 -9 -9
-2 -15 29 -12 -8 -16 -9 -9
-2 -15 29 -12 -7 -16 -10 -9
-2 -15 29 -11 -7 -16 -10 -9
-3 -16 29 -10 -6 -15 -11 -10
-4 -16 29 -10 -6 -15 -11 -10
-5 -16 29 -10 -6 -15 -11 -10
-6 -15 29 -9 -6 -15 -11 -10
-7 -15 29 -9 -6 -15 -11 -10
-8 -14 28 -8 -5 -16 -11 -10
-7 -14 28 -8 -5 -16 -11 -10
-6 -13 28 -8 -5 -16 -11 -10
-5 -13 28 -8 -5 -16 -10 -9
-4 -12 28 -8 -5 -16 -10 -9
-3 -11 29 -8 -5 -16 -9 -8
-4 -12 29 -8 -4 -16 -9 -8
-5 -14 29 -7 -3 -15 -9 -8
-6 -16 29 -6 -2 -15 -8 -8
-7 -18 29 -5 0 -14 -8 -8
-8 -20 30 -4 1 -13 -7 -8
-8 -19 30 -4 1 -13 -7 -8
-8 -18 30 -4 0 -13 -7 -8
-8 -17 29 -4 0 -14 -8 -8
-8 -16 29 -4 -2 -14 -8 -8
-7 -15 28 -4 -3 -15 -9 -9
-7 -15 28 -4 -3 -15 -9 -9
-7 -14 28 -3 -3 -14 -8 -8
-7 -14 28 -2 -2 -13 -7 -8
-7 -13 28 0 -2 -12 -6 -7
-7 -12 29 1 0 -11 -5 -6
-7 -12 29 1 0 -11 -5 -6
-7 -13 29 1 0 -11 -5 -7
-6 -14 29 2 0 -11 -6 -7
-6 -15 29 2 0 -11 -6 -8
-5 -16 28 3 0 -12 -7 -9
-5 -15 28 3 0 -12 -7 -9
-4 -14 27 3 1 -11 -7 -9
-4 -13 27 3 1 -11 -8 -9
-3 -12 26 3 2 -10 -8 -9
-2 -11 25 4 3 -9 -9 -8
-2 -11 25 4 3 -9 -9 -8
-2 -11 25 4 3 -9 -9 -8
-2 -11 26 4 3 -10 -8 -7
-2 -11 26 4 3 -10 -8 -7
-2 -11 27 4 3 -11 -7 -6
-2 -11 27 4 3 -11 -7 -6
-2 -11 26 4 3 -11 -7 -6
-2 -11 26 4 2 -10 -7 -6
-2 -11 25 4 2 -10 -7 -6
-3 -10 24 4 1 -9 -6 -6
-3 -10 24 4 1 -9 -6 -6
-3 -10 24 4 1 -9 -6 -6
-3 -10 24 3 0 -10 -6 -6
-3 -10 24 3 0 -10 -6 -6
-4 -9 23 2 -2 -11 -6 -7
-4 -9 23 2 -2 -10 -6 -7
-4 -9 23 2 -2 -9 -5 -6
-3 -9 23 2 -2 -8 -5 -5
-3 -9 23 2 -2 -7 -4 -4
-2 -8 24 3 0 -6 -3 -3
-2 -8 24 3 -2 -6 -3 -3
-3 -9 24 2 -3 -6 -3 -3
-4 -10 23 2 -4 -7 -4 -3
-5 -11 23 1 -5 -7 -4 -3
-6 -12 22 0 -6 -8 -5 -3
-6 -12 22 0 -6 -8 -5 -3
-5 -12 21 -2 -7 -8 -5 -3
-5 -11 21 -3 -7 -8 -5 -3
-4 -11 20 -4 -8 -8 -5 -3
-3 -10 19 -5 -9 -9 -5 -2
-4 -10 19 -5 -9 -9 -5 -2
-6 -10 19 -5 -9 -9 -4 -2
-7 -11 19 -4 -9 -9 -4 -2
-9 -11 19 -4 -9 -9 -3 -2
-11 -12 18 -3 -9 -8 -2 -2
-10 -12 18 -3 -9 -8 -2 -2
-9 -11 17 -4 -10 -8 -2 -2
-7 -10 17 -5 -10 -8 -2 -3
-6 -9 16 -6 -11 -8 -2 -3
-4 -8 15 -7 -12 -8 -2 -4
-4 -8 15 -7 -12 -8 -2 -4
-4 -8 15 -8 -13 -8 -3 -5
-4 -8 14 -8 -13 -9 -3 -6
-4 -8 14 -9 -14 -9 -4 -7
-5 -9 13 -10 -15 -10 -5 -8
-5 -9 13 -10 -15 -10 -5 -8
-6 -9 13 -10 -14 -10 -5 -7
-6 -9 13 -10 -14 -10 -5 -7
-7 -9 13 -10 -13 -10 -5 -6
-8 -10 14 -9 -12 -10 -5 -5
-8 -10 14 -9 -12 -10 -5 -5
-7 -10 14 -9 -12 -10 -5 -5
-7 -10 13 -9 -11 -10 -4 -5
-6 -10 13 -9 -11 -10 -4 -5
-5 -10 12 -9 -10 -10 -3 -5
-5 -10 12 -9 -10 -9 -2 -4
-5 -10 12 -9 -9 -8 0 -3
-6 -10 12 -8 -9 -6 1 -2
-6 -10 12 -8 -8 -5 2 0
-7 -9 13 -7 -7 -3 4 2
-7 -8 13 -7 -7 -3 4 2
-7 -7 14 -6 -6 -3 4 2
-7 -5 14 -5 -6 -3 4 2
-7 -4 15 -4 -5 -3 4 2
-7 -2 16 -3 -4 -4 4 2
-7 -2 16 -3 -4 -4 4 2
-7 -2 16 -3 -3 -4 4 2
-6 0 17 -2 -3 -4 4 2
-6 0 17 -2 -2 -4 4 2
-5 1 18 0 0 -3 3 2
-5 2 18 0 0 -3 3 2
-5 3 18 0 0 -2 3 2
-5 4 19 0 0 0 4 3
-5 5 19 0 0 1 4 3
-5 7 20 1 0 2 5 4
-5 10 20 1 0 2 6 5
-4 13 20 1 1 3 7 6
-3 16 20 1 2 3 8 8
-2 19 20 1 3 4 9 9
0 22 19 2 4 5 10 11
1 23 19 2 4 6 12 12
3 25 19 3 4 8 14 13
4 26 19 4 4 9 16 15
6 28 19 5 4 11 18 16
8 30 19 6 5 13 20 18
8 30 19 6 5 13 20 18
8 30 19 6 6 13 20 18
8 30 18 6 6 13 19 18
8 30 18 6 7 13 19 18
7 30 17 6 8 12 18 19
8 30 15 6 8 12 18 19
9 29 13 5 7 12 18 18
10 29 10 5 7 12 18 18
11 28 8 4 6 12 18 17
12 27 5 3 5 12 17 16
11 26 5 3 5 12 17 16
10 25 5 3 5 12 16 15
9 23 5 3 5 11 15 15
8 22 5 3 5 11 14 14
7 20 6 4 5 10 13 13
5 16 6 3 4 8 11 11
3 11 6 2 2 6 9 9
0 7 6 1 1 4 7 6
-3 2 6 0 -2 2 5 4
-6 -4 5 -2 -4 -2 2 1
-6 -4 5 -3 -5 -3 1 0
-7 -5 5 -5 -6 -4 0 -2
-8 -5 5 -6 -8 -5 -2 -3
-9 -6 5 -8 -9 -5 -2 -3
-9 -6 5 -9 -10 -6 -3 -4
-10 -8 6 -10 -11 -7 -4 -5
-10 -10 5 -11 -12 -8 -4 -6
-10 -11 4 -11 -13 -9 -5 -7
-10 -13 3 -12 -14 -10 -5 -8
-10 -14 3 -12 -14 -11 -5 -9
-11 -15 2 -13 -15 -12 -6 -10
-12 -14 2 -13 -15 -12 -6 -10
-12 -14 2 -13 -15 -12 -6 -10
-13 -13 2 -13 -15 -12 -6 -10
-13 -13 2 -13 -15 -12 -6 -10
-14 -12 2 -13 -14 -11 -7 -11
-14 -13 2 -13 -15 -12 -7 -11
-13 -14 1 -13 -15 -12 -8 -11
-13 -15 1 -13 -16 -13 -8 -11
-13 -16 1 -13 -16 -13 -8 -11
-12 -17 0 -14 -17 -14 -9 -12
-12 -17 0 -14 -17 -14 -9 -12
-11 -16 0 -14 -16 -14 -9 -11
-11 -16 0 -14 -16 -14 -9 -11
-11 -16 0 -14 -16 -14 -9 -11
-10 -15 -2 -13 -15 -13 -10 -10
-10 -15 -2 -13 -15 -13 -10 -11
-10 -15 0 -12 -15 -13 -10 -11
-10 -15 0 -12 -15 -13 -10 -12
-10 -15 0 -12 -15 -13 -10 -12
-11 -16 2 -11 -16 -14 -10 -13
-12 -16 3 -11 -17 -14 -10 -13
-13 -17 4 -12 -18 -14 -10 -13
-14 -17 5 -12 -19 -14 -10 -13
-15 -17 6 -12 -20 -14 -10 -13
-16 -17 8 -12 -21 -15 -10 -13
-16 -15 10 -10 -21 -16 -10 -13
-16 -13 12 -8 -21 -16 -10 -13
-16 -11 14 -6 -21 -17 -10 -13
-16 -9 16 -5 -21 -17 -10 -13
-6 -6 13 6 -8 -7 -3 -6
5 -4 9 17 7 7 8 1
15 0 4 27 22 19 17 7
26 2 0 37 36 31 26 14
36 4 -5 48 51 44 35 20
55 26 -17 57 79 75 62 44
73 49 -28 65 109 108 90 66
92 71 -39 73 138 141 117 90
111 94 -52 82 168 174 145 113
130 117 -63 91 196 206 173 137
134 129 -70 86 211 226 186 148
137 140 -76 78 224 244 200 158
141 152 -82 71 236 263 214 170
144 163 -90 65 250 281 228 180
147 175 -96 58 263 300 241 191
129 155 -93 42 237 267 215 170
107 134 -88 26 209 231 185 145
87 112 -82 10 180 195 155 120
65 91 -78 -7 151 159 127 96
44 68 -73 -23 122 123 97 71
28 53 -69 -39 82 92 74 55
14 37 -65 -56 43 60 52 38
-2 22 -61 -72 2 28 30 23
-17 7 -57 -89 -38 -4 8 8
-32 -9 -53 -105 -79 -35 -14 -9
-33 -13 -49 -98 -77 -37 -18 -12
-33 -17 -46 -89 -72 -37 -20 -15
-33 -20 -41 -80 -67 -37 -22 -17
-33 -24 -38 -71 -63 -37 -24 -20
-33 -27 -35 -62 -58 -37 -26 -22
-29 -27 -31 -56 -54 -36 -27 -23
-26 -25 -28 -49 -50 -34 -26 -22
-22 -24 -25 -43 -47 -32 -25 -22
-19 -22 -22 -36 -43 -30 -24 -21
-16 -21 -19 -30 -39 -28 -23 -21
-15 -20 -18 -28 -38 -27 -21 -20
-15 -21 -17 -26 -37 -26 -20 -20
-15 -22 -16 -24 -36 -26 -18 -20
-15 -23 -15 -22 -35 -25 -17 -20
-15 -24 -14 -21 -34 -25 -16 -20
-15 -25 -12 -20 -33 -24 -15 -19
-15 -26 -11 -19 -32 -24 -16 -19
-15 -27 -9 -19 -31 -24 -17 -19
-15 -28 -8 -18 -30 -24 -18 -19
-15 -29 -7 -18 -29 -24 -18 -19
-15 -30 -6 -17 -28 -25 -19 -20
-15 -29 -6 -17 -28 -25 -19 -20
-15 -28 -6 -17 -29 -25 -18 -19
-15 -27 -6 -17 -29 -25 -18 -19
-15 -26 -6 -17 -29 -25 -18 -19
-14 -25 -7 -16 -30 -24 -17 -18
-14 -26 -7 -16 -31 -24 -17 -19
-13 -27 -8 -16 -31 -24 -18 -19
-13 -28 -8 -16 -32 -24 -18 -20
-13 -29 -8 -16 -32 -24 -18 -20
-12 -30 -9 -17 -33 -23 -19 -21
-12 -29 -9 -17 -32 -23 -19 -21
-12 -29 -9 -16 -31 -23 -19 -21
-12 -28 -9 -16 -30 -23 -19 -21
-12 -28 -9 -16 -30 -23 -19 -21
-11 -27 -10 -15 -29 -23 -20 -21
-11 -27 -10 -15 -29 -23 -20 -21
-11 -27 -10 -16 -29 -23 -19 -21
-11 -27 -10 -16 -29 -23 -19 -21
-11 -27 -10 -16 -29 -23 -19 -21
-12 -28 -9 -17 -29 -23 -18 -21
-12 -28 -9 -16 -28 -22 -17 -21
-12 -28 -9 -15 -28 -22 -16 -20
-12 -28 -9 -14 -27 -21 -15 -20
-12 -28 -9 -13 -27 -21 -14 -20
-11 -29 -10 -12 -26 -20 -13 -19
-10 -28 -10 -12 -26 -20 -13 -19
-10 -27 -10 -12 -27 -20 -13 -19
-9 -26 -10 -12 -27 -20 -13 -19
-9 -26 -10 -12 -27 -20 -13 -19
-8 -25 -9 -13 -28 -20 -13 -19
-8 -26 -9 -12 -28 -20 -12 -19
-8 -27 -9 -12 -28 -19 -12 -18
-8 -28 -9 -11 -28 -19 -11 -18
-8 -28 -9 -11 -28 -19 -11 -18
-7 -28 -9 -10 -27 -18 -10 -17
-6 -27 -8 -9 -26 -17 -10 -17
-4 -25 -7 -9 -26 -17 -10 -17
-3 -24 -6 -8 -25 -16 -10 -17
-2 -23 -6 -8 -25 -16 -10 -17
0 -22 -5 -7 -24 -15 -10 -16
0 -21 -5 -7 -24 -15 -9 -15
0 -20 -6 -7 -23 -15 -9 -15
0 -19 -6 -7 -23 -15 -8 -14
0 -19 -6 -7 -23 -15 -8 -14
-2 -18 -7 -7 -22 -15 -7 -13
-2 -18 -8 -7 -22 -15 -8 -13
-2 -18 -8 -8 -23 -16 -9 -14
-2 -18 -9 -8 -23 -16 -10 -14
-2 -18 -9 -8 -23 -16 -10 -14
-2 -19 -10 -9 -24 -17 -11 -15
-2 -19 -10 -8 -24 -16 -11 -14
-2 -19 -10 -8 -24 -16 -10 -14
-2 -19 -10 -7 -24 -15 -10 -13
-2 -19 -10 -7 -24 -15 -10 -13
-2 -19 -11 -6 -23 -14 -9 -12
0 -19 -12 -6 -23 -14 -9 -12
1 -18 -13 -6 -24 -14 -9 -13
2 -18 -14 -6 -24 -14 -9 -13
3 -18 -15 -6 -24 -14 -9 -13
4 -17 -16 -5 -24 -15 -8 -14
4 -16 -16 -4 -23 -14 -7 -13
4 -15 -15 -3 -21 -13 -6 -12
4 -14 -15 -2 -20 -12 -5 -11
4 -14 -15 0 -19 -11 -4 -11
5 -13 -14 1 -18 -10 -3 -10
6 -13 -15 1 -18 -10 -3 -10
7 -13 -15 1 -18 -11 -4 -10
8 -13 -16 1 -18 -11 -4 -10
9 -13 -16 1 -18 -11 -4 -10
10 -14 -18 1 -17 -12 -5 -9
11 -14 -19 1 -15 -12 -4 -9
12 -13 -20 2 -14 -11 -4 -9
13 -13 -21 2 -12 -11 -3 -9
14 -13 -22 2 -11 -11 -3 -9
15 -12 -23 4 -9 -9 0 -9
15 -12 -23 5 -8 -7 1 -8
15 -12 -24 7 -7 -5 2 -7
15 -12 -24 8 -6 -4 3 -6
15 -12 -24 9 -5 -2 4 -6
16 -11 -26 10 -3 1 6 -4
18 -10 -27 11 -2 2 7 -3
20 -8 -28 12 0 3 9 0
22 -6 -29 13 1 4 10 1
24 -5 -30 13 2 5 11 2
25 -4 -31 14 4 7 12 3
26 -3 -32 14 5 8 13 4
27 -2 -33 14 6 9 13 5
28 0 -34 14 7 10 14 6
29 1 -35 14 8 11 14 6
31 3 -36 15 10 14 17 8
33 4 -36 16 12 16 20 10
35 5 -36 18 14 18 23 12
36 6 -36 19 16 21 26 14
38 7 -36 20 18 23 29 16
39 9 -36 21 19 24 30 17
40 10 -37 20 18 24 30 17
42 11 -38 20 17 23 30 17
43 13 -39 19 16 23 30 17
43 14 -40 19 15 23 30 17
44 15 -41 18 14 22 29 16
43 14 -41 18 14 22 30 16
42 13 -41 18 14 23 30 17
40 12 -41 18 14 23 31 17
39 12 -41 18 14 23 31 17
38 11 -43 17 13 24 32 18
37 10 -43 16 12 23 32 18
37 10 -44 14 11 22 32 18
36 9 -44 12 10 21 32 18
36 9 -44 11 9 21 32 18
35 8 -44 10 8 20 31 18
34 8 -43 10 7 20 30 18
34 8 -41 9 6 19 30 18
33 8 -40 9 5 19 29 18
33 8 -39 9 4 19 29 18
30 8 -38 8 2 17 27 17
27 7 -37 7 -2 16 26 15
24 6 -36 6 -4 14 24 13
21 5 -35 5 -6 12 22 11
18 4 -34 5 -8 11 21 9
17 3 -33 4 -10 9 19 8
16 2 -32 3 -11 6 16 8
15 1 -31 3 -12 4 14 7
14 0 -30 2 -13 2 12 7
14 -2 -29 2 -14 0 10 7
12 -3 -27 1 -15 -2 9 5
11 -3 -26 1 -16 -2 8 4
10 -3 -24 0 -17 -3 8 3
9 -3 -22 0 -18 -3 7 1
8 -3 -21 0 -19 -3 7 0
7 -2 -20 -2 -21 -4 6 -2
6 -3 -21 -3 -22 -5 5 -3
6 -3 -21 -4 -24 -6 4 -4
5 -4 -22 -5 -26 -7 3 -5
5 -4 -22 -5 -27 -8 3 -6
3 -5 -23 -6 -28 -9 2 -7
2 -6 -22 -6 -28 -9 1 -7
1 -7 -21 -6 -28 -10 1 -8
-2 -8 -20 -6 -28 -10 0 -8
-3 -8 -19 -6 -28 -10 0 -8
-3 -9 -18 -6 -27 -11 -2 -9
-2 -9 -18 -6 -27 -11 -2 -9
1 -8 -18 -6 -28 -11 -3 -9
3 -8 -18 -6 -28 -11 -3 -9
4 -8 -18 -6 -28 -11 -3 -9
5 -7 -19 -7 -29 -12 -4 -10
5 -8 -19 -7 -29 -12 -4 -10
4 -8 -20 -8 -30 -12 -4 -10
4 -9 -20 -8 -30 -12 -4 -10
4 -9 -20 -8 -30 -12 -4 -10
3 -10 -21 -9 -31 -13 -5 -11
2 -9 -21 -9 -31 -13 -5 -11
2 -9 -21 -9 -31 -14 -5 -11
1 -8 -21 -9 -31 -14 -5 -11
1 -8 -21 -9 -31 -14 -5 -11
0 -7 -21 -10 -32 -15 -5 -11
0 -7 -21 -10 -32 -15 -5 -11
-2 -8 -21 -10 -32 -14 -5 -11
-2 -8 -21 -10 -32 -14 -5 -11
-2 -8 -21 -10 -32 -14 -5 -11
-3 -9 -21 -9 -33 -13 -4 -11
-3 -9 -20 -9 -33 -13 -3 -11
-4 -10 -19 -8 -33 -13 -3 -11
-4 -10 -18 -8 -33 -13 -2 -11
-4 -10 -18 -8 -33 -13 -2 -11
-5 -11 -17 -7 -32 -14 0 -12
-5 -11 -18 -8 -33 -15 -2 -13
-6 -11 -18 -8 -33 -15 -3 -13
-6 -11 -19 -9 -34 -16 -4 -14
-6 -11 -19 -9 -34 -16 -5 -14
-7 -12 -20 -10 -35 -17 -6 -15
-6 -11 -19 -9 -33 -16 -5 -15
-6 -11 -18 -8 -32 -15 -5 -14
-5 -10 -17 -7 -31 -14 -4 -14
-5 -10 -17 -6 -30 -14 -4 -14
-4 -8 -16 -5 -29 -13 -3 -13
-3 -7 -16 -5 -30 -13 -3 -13
-2 -6 -16 -5 -31 -13 -4 -13
0 -4 -16 -5 -32 -13 -4 -13
0 -3 -16 -5 -32 -13 -4 -13
1 -2 -15 -5 -33 -13 -5 -12
1 -3 -14 -4 -32 -13 -5 -12
1 -4 -14 -3 -31 -13 -4 -12
1 -5 -13 -2 -30 -13 -4 -12
1 -5 -13 0 -30 -13 -4 -12
0 -6 -12 1 -29 -12 -3 -12
0 -6 -11 2 -28 -11 -2 -12
0 -6 -10 2 -28 -10 -2 -11
0 -6 -9 3 -27 -9 0 -11
0 -6 -8 3 -27 -9 0 -11
-2 -7 -7 4 -26 -8 1 -10
-2 -7 -7 4 -26 -8 1 -10
-3 -6 -7 4 -26 -9 2 -11
-3 -6 -7 4 -26 -9 2 -11
-3 -6 -7 4 -26 -9 2 -11
-4 -5 -8 5 -27 -10 3 -12
-4 -5 -7 5 -27 -10 2 -11
-4 -5 -6 5 -26 -10 1 -11
-4 -5 -5 5 -26 -10 0 -10
-4 -5 -5 5 -26 -10 -2 -10
-5 -6 -4 5 -25 -9 -3 -9
-5 -5 -3 7 -25 -8 -2 -9
-5 -5 -3 8 -25 -8 0 -8
-5 -4 -2 9 -25 -7 1 -8
-5 -4 -2 10 -25 -7 2 -8
-5 -3 0 11 -24 -6 3 -7
-4 -3 0 10 -25 -7 2 -7
-4 -3 0 9 -25 -7 2 -8
-3 -3 0 8 -26 -8 1 -8
-3 -3 0 7 -26 -8 1 -8
-2 -2 0 6 -26 -9 0 -9
-2 -2 1 6 -24 -9 0 -9
-2 -2 1 6 -23 -9 -2 -9
-2 -2 2 6 -21 -9 -2 -9
-2 -2 2 6 -19 -9 -2 -9
0 -3 3 5 -17 -9 -3 -10
1 -2 3 4 -14 -9 -3 -9
1 0 3 3 -12 -9 -2 -9
2 1 3 2 -9 -9 -2 -8
2 1 3 2 -7 -9 -2 -8
3 2 4 1 -6 -9 0 -7
1 1 5 1 -6 -9 0 -7
0 1 5 1 -6 -9 0 -7
-2 0 6 1 -6 -9 0 -7
-3 0 6 1 -6 -9 0 -7
-4 -2 7 0 -7 -9 -2 -8
-3 -2 7 0 -7 -9 -2 -8
-3 -3 7 -2 -8 -9 -2 -8
-2 -3 7 -2 -8 -9 -2 -8
-2 -3 7 -2 -8 -9 -2 -8
-2 -4 7 -3 -9 -10 0 -9
-4 -4 7 -3 -9 -10 0 -9
-6 -4 7 -3 -9 -10 0 -9
-8 -4 7 -3 -9 -10 0 -9
-10 -4 7 -3 -9 -10 0 -9
-11 -5 8 -4 -8 -9 0 -10
-9 -5 8 -4 -8 -9 0 -10
-8 -5 8 -4 -8 -9 0 -10
-7 -5 8 -4 -8 -9 0 -10
-6 -5 8 -4 -8 -9 0 -10
-5 -6 9 -4 -8 -9 1 -10
-5 -6 9 -4 -8 -9 1 -10
-5 -6 9 -5 -8 -9 1 -10
-5 -6 9 -5 -8 -9 1 -10
-5 -6 9 -5 -8 -9 1 -10
-4 -5 9 -6 -9 -10 1 -11
-4 -5 9 -7 -9 -10 1 -10
-4 -4 10 -7 -10 -10 2 -9
-4 -4 10 -8 -10 -10 2 -9
-4 -4 10 -8 -10 -10 2 -8
-3 -3 11 -9 -11 -10 3 -7
-4 -4 11 -9 -10 -10 3 -7
-5 -5 11 -9 -10 -10 2 -7
-6 -6 11 -9 -9 -10 2 -7
-7 -7 11 -9 -9 -10 2 -7
-8 -8 11 -8 -8 -10 1 -8
-8 -7 11 -7 -8 -10 1 -8
-8 -6 11 -7 -8 -9 1 -8
-8 -6 11 -6 -8 -9 1 -8
-8 -5 11 -6 -8 -9 1 -8
-9 -5 11 -5 -8 -8 1 -9
-11 -7 10 -7 -9 -8 1 -10
-13 -8 9 -8 -10 -9 1 -10
-15 -10 8 -9 -10 -9 1 -11
-17 -12 7 -10 -11 -9 1 -11
-17 -13 6 -11 -12 -10 0 -12
-16 -12 6 -11 -12 -10 0 -12
-14 -11 6 -11 -12 -11 0 -12
-13 -11 6 -11 -12 -11 0 -12
-11 -10 6 -11 -12 -11 0 -12
-9 -7 7 -9 -12 -11 -2 -11
-8 -5 7 -8 -10 -10 0 -10
-7 -2 7 -7 -9 -9 1 -9
-5 2 7 -5 -8 -7 2 -9
-4 5 7 -4 -7 -6 3 -8
-3 6 9 -3 -6 -5 4 -7
-4 6 11 -2 -6 -5 4 -6
-4 6 13 0 -5 -4 4 -6
-5 6 15 1 -5 -4 4 -5
-5 6 17 2 -5 -4 4 -5
-6 6 18 3 -4 -3 5 -4
-6 6 18 3 -4 -2 6 -3
-5 7 19 4 -3 0 6 -3
-5 7 19 4 -3 1 7 -2
-5 7 19 4 -3 2 7 -2
-4 8 20 5 -2 3 8 0
-5 8 20 5 -2 2 8 0
-5 8 19 5 -2 2 7 -2
-6 8 19 5 -2 1 7 -2
-6 8 19 5 -2 1 7 -2
-7 9 18 5 -3 0 6 -3
-7 11 18 5 -3 0 6 -3
-7 13 19 5 -3 1 7 -2
-7 16 19 5 -3 1 7 -2
-7 18 19 5 -3 1 7 -2
-6 19 20 6 -2 2 8 0
-5 19 19 6 0 4 10 1
-3 20 19 6 1 5 11 2
-2 20 18 6 2 6 12 3
1 20 18 6 3 7 13 4
3 22 17 6 4 8 14 5
4 25 16 8 5 9 14 6
6 28 15 9 6 9 14 7
7 31 15 10 7 10 14 8
9 34 14 11 8 10 14 9
10 35 13 12 9 11 14 10
9 33 12 11 8 11 14 10
8 32 11 10 7 10 14 10
7 30 11 10 6 10 14 10
6 29 10 9 5 10 14 10
5 28 9 8 4 9 15 9
7 26 9 8 4 9 15 9
8 25 9 8 4 9 15 10
9 23 9 8 4 9 15 10
10 22 9 8 4 9 15 10
10 20 8 9 4 10 15 11
8 17 8 8 3 9 13 9
7 15 8 8 3 8 12 8
5 12 8 7 2 8 10 6
3 9 8 7 2 7 8 5
1 7 8 6 1 5 7 4
0 6 8 5 0 4 6 2
-3 4 8 4 -2 2 5 1
-4 3 8 3 -2 1 5 -2
-6 1 8 2 -3 -2 4 -3
-7 0 7 0 -5 -3 2 -4
-7 -3 6 -3 -8 -5 1 -6
-7 -4 5 -4 -10 -6 -2 -7
-7 -6 5 -6 -13 -7 -3 -8
-7 -7 4 -8 -16 -8 -5 -9
-8 -8 3 -9 -17 -9 -6 -10
-9 -8 3 -9 -17 -9 -6 -10
-10 -9 3 -9 -17 -9 -7 -10
-10 -9 3 -9 -17 -9 -7 -10
-11 -9 3 -9 -17 -9 -7 -10
-12 -10 3 -9 -16 -10 -8 -11
-12 -10 3 -9 -16 -10 -9 -12
-12 -10 2 -9 -17 -11 -10 -13
-12 -10 2 -9 -18 -12 -11 -13
-12 -10 2 -9 -18 -12 -12 -14
-12 -11 1 -9 -19 -13 -13 -15
-12 -12 1 -9 -19 -13 -13 -15
-13 -13 1 -9 -18 -12 -12 -15
-13 -13 1 -9 -18 -12 -12 -15
-13 -14 1 -9 -18 -12 -12 -15
-14 -15 1 -10 -17 -11 -11 -15
-13 -14 1 -10 -17 -11 -11 -15
-12 -13 1 -9 -17 -11 -10 -14
-12 -13 1 -8 -17 -11 -10 -13
-11 -12 1 -8 -17 -11 -10 -13
-10 -11 1 -7 -18 -12 -9 -12
-12 -11 2 -7 -17 -12 -9 -12
-13 -11 4 -6 -16 -11 -9 -12
-15 -11 5 -6 -16 -11 -9 -12
-16 -11 7 -6 -15 -11 -9 -12
-17 -11 9 -5 -14 -10 -9 -11
-17 -9 11 -5 -15 -11 -9 -11
-18 -7 13 -5 -16 -12 -10 -12
-19 -4 16 -5 -16 -12 -11 -13
-19 -2 18 -5 -17 -13 -11 -13
-18 1 19 0 -16 -12 -11 -13
-14 2 19 6 -12 -9 -8 -11
-10 4 18 11 -8 -6 -5 -9
-6 6 18 17 -4 -3 -2 -7
-2 8 18 23 1 1 2 -5
11 16 12 32 18 17 15 7
28 29 4 44 42 42 34 22
45 42 -5 55 66 65 54 38
62 55 -13 66 90 89 73 54
79 67 -21 77 114 112 94 70
95 86 -29 81 137 139 116 89
109 107 -39 81 157 167 140 109
123 128 -49 81 179 194 164 130
138 149 -59 81 199 222 189 150
152 171 -68 81 221 251 214 171
151 176 -72 76 226 257 219 175
140 170 -72 66 222 251 212 169
128 163 -72 56 217 244 204 162
116 157 -72 46 212 237 196 155
105 152 -72 35 206 231 189 149
87 134 -70 17 176 201 165 130
65 108 -66 -7 131 158 132 103
44 82 -62 -30 85 115 98 77
22 58 -58 -54 39 71 65 51
1 32 -54 -77 -7 28 31 24
-11 17 -50 -87 -30 6 13 10
-17 8 -46 -87 -39 -6 3 2
-23 -2 -43 -87 -50 -16 -7 -6
-29 -10 -38 -87 -59 -27 -17 -13
-34 -19 -34 -87 -69 -38 -26 -21
-36 -23 -31 -81 -69 -41 -30 -24
-33 -21 -27 -71 -63 -38 -29 -24
-30 -19 -24 -60 -56 -36 -28 -24
-27 -18 -21 -50 -50 -33 -27 -24
-25 -16 -18 -38 -43 -30 -26 -24
-23 -15 -15 -33 -39 -29 -25 -23
-21 -15 -14 -30 -37 -28 -25 -23
-19 -14 -12 -27 -36 -27 -25 -22
-18 -14 -10 -24 -34 -26 -25 -21
-16 -14 -8 -21 -33 -25 -25 -21
-15 -13 -7 -19 -32 -24 -25 -20
-15 -13 -5 -17 -30 -24 -25 -20
-15 -14 -4 -15 -29 -24 -24 -20
-15 -15 -2 -14 -27 -24 -23 -20
-15 -15 0 -12 -26 -24 -23 -20
-14 -16 1 -11 -25 -23 -22 -21
-14 -17 1 -11 -25 -23 -22 -21
-14 -19 0 -11 -25 -23 -22 -21
-14 -20 0 -11 -25 -23 -22 -21
-14 -21 0 -11 -25 -23 -22 -21
-14 -22 -2 -11 -26 -24 -23 -22
-14 -21 -2 -11 -26 -23 -23 -21
-14 -20 0 -12 -26 -22 -22 -20
-14 -20 0 -12 -26 -22 -21 -20
-14 -19 0 -12 -26 -21 -21 -19
-13 -18 1 -13 -25 -20 -20 -18
-13 -18 1 -13 -25 -20 -20 -18
-12 -18 0 -13 -25 -21 -20 -18
-12 -18 -2 -13 -25 -21 -20 -18
-12 -18 -2 -13 -25 -21 -20 -18
-11 -19 -3 -14 -26 -22 -21 -19
-11 -18 -3 -14 -26 -22 -21 -19
-12 -17 -3 -14 -26 -22 -21 -19
-13 -16 -3 -14 -26 -22 -21 -19
-13 -15 -3 -14 -26 -22 -21 -19
-14 -14 -3 -13 -27 -23 -21 -20
-14 -15 -3 -13 -27 -23 -21 -20
-14 -16 -3 -13 -27 -22 -20 -20
-14 -17 -3 -13 -27 -22 -20 -20
-14 -18 -3 -13 -27 -22 -20 -20
-13 -19 -2 -12 -28 -21 -19 -20
-12 -19 -2 -12 -27 -21 -18 -20
-11 -18 0 -11 -26 -20 -17 -19
-11 -18 1 -10 -26 -19 -17 -19
-10 -18 1 -10 -25 -19 -16 -19
-9 -17 2 -9 -24 -18 -15 -18
-9 -17 2 -9 -24 -18 -15 -18
-9 -16 1 -10 -24 -18 -15 -18
-9 -15 1 -10 -24 -18 -15 -18
-9 -15 1 -10 -24 -18 -15 -18
-9 -14 0 -11 -24 -19 -15 -19
-9 -14 0 -11 -24 -19 -15 -19
-9 -14 0 -11 -24 -19 -15 -20
-9 -14 0 -11 -24 -19 -15 -20
-9 -14 0 -11 -24 -19 -15 -20
-10 -15 1 -10 -23 -18 -14 -21
-10 -15 1 -10 -23 -18 -14 -20
-10 -15 1 -10 -23 -19 -14 -19
-10 -15 1 -10 -23 -19 -14 -19
-10 -15 1 -10 -23 -19 -14 -18
-11 -14 0 -11 -24 -20 -15 -17
-10 -14 0 -11 -24 -20 -15 -17
-9 -15 0 -10 -24 -19 -16 -17
-9 -16 0 -10 -24 -19 -16 -17
-8 -16 0 -10 -24 -19 -16 -17
-7 -17 0 -9 -23 -18 -17 -18
-7 -16 0 -9 -23 -18 -17 -18
-8 -15 0 -8 -23 -18 -17 -17
-9 -15 0 -7 -23 -18 -17 -17
-9 -14 0 -7 -23 -18 -17 -17
-10 -13 -2 -6 -22 -19 -17 -16
-10 -13 -3 -8 -22 -19 -17 -16
-10 -14 -5 -10 -23 -19 -17 -16
-10 -15 -6 -11 -24 -19 -17 -16
-10 -15 -7 -13 -24 -19 -17 -16
-9 -16 -8 -14 -25 -19 -17 -16
-9 -16 -8 -13 -25 -19 -17 -16
-9 -16 -8 -12 -24 -19 -18 -16
-9 -16 -8 -11 -23 -19 -18 -16
-9 -16 -8 -10 -23 -19 -18 -16
-9 -15 -9 -9 -22 -19 -19 -15
-8 -15 -9 -9 -21 -19 -19 -15
-6 -15 -9 -8 -20 -18 -18 -15
-5 -15 -9 -7 -19 -18 -17 -15
-4 -15 -9 -7 -18 -18 -17 -15
-3 -15 -8 -6 -17 -17 -16 -14
-2 -14 -8 -5 -16 -17 -16 -14
0 -13 -9 -4 -15 -16 -15 -14
1 -13 -9 -4 -14 -15 -15 -14
2 -12 -9 -3 -13 -15 -15 -14
3 -11 -10 -2 -12 -14 -14 -14
4 -9 -10 0 -10 -12 -13 -13
5 -7 -10 1 -9 -11 -12 -12
6 -5 -10 2 -8 -10 -11 -11
7 -3 -10 3 -6 -8 -10 -10
8 -2 -11 4 -5 -7 -9 -9
8 -3 -12 4 -5 -6 -8 -8
8 -4 -14 5 -4 -5 -7 -7
8 -5 -15 6 -3 -4 -6 -6
8 -6 -16 6 -3 -3 -5 -5
9 -7 -17 7 -2 -2 -4 -4
10 -5 -18 7 0 0 -3 -3
11 -3 -19 7 2 2 0 -2
12 -2 -19 7 3 3 1 0
13 1 -20 7 4 4 2 1
15 2 -21 8 6 5 3 2
17 4 -21 8 8 7 4 4
19 5 -22 9 10 9 6 6
21 6 -22 10 12 10 7 7
23 8 -22 10 14 12 8 9
25 9 -23 11 16 13 9 10
25 9 -23 11 18 13 9 10
26 8 -24 10 20 13 9 9
26 8 -25 9 22 13 9 9
26 8 -25 9 24 13 9 9
27 7 -26 8 25 13 9 8
27 8 -26 8 25 13 10 9
27 9 -26 7 25 14 11 11
27 10 -26 7 25 14 12 12
27 11 -26 7 25 14 13 13
27 12 -26 6 25 15 14 14
27 12 -26 6 25 15 14 14
27 12 -27 5 24 15 13 14
27 12 -27 4 24 15 13 14
27 12 -27 4 24 15 13 14
28 11 -28 3 23 15 12 14
28 11 -27 3 23 15 12 14
29 11 -26 3 23 15 11 14
29 11 -26 3 23 15 11 14
29 11 -25 3 23 15 11 14
29 12 -24 3 21 14 10 13
27 12 -23 1 19 12 10 13
25 12 -22 -2 17 10 9 12
23 12 -21 -3 15 9 8 11
21 12 -20 -5 13 7 8 11
20 12 -19 -6 11 6 7 9
18 9 -17 -6 11 5 6 7
16 6 -15 -5 10 4 4 5
14 4 -13 -4 9 3 3 3
12 1 -11 -4 9 2 2 1
11 -2 -10 -3 8 1 1 0
9 -2 -8 -3 6 -2 -2 -3
7 -2 -6 -3 5 -3 -4 -4
6 -2 -5 -3 4 -4 -6 -5
4 -2 -3 -3 2 -6 -8 -7
3 -2 -2 -4 1 -7 -9 -8
3 -2 0 -4 0 -8 -10 -8
2 -3 1 -5 -2 -9 -11 -8
1 -3 2 -6 -2 -9 -12 -8
1 -3 3 -6 -3 -10 -13 -8
0 -4 4 -7 -4 -11 -14 -9
-2 -5 4 -7 -5 -12 -15 -11
-3 -6 5 -7 -6 -13 -16 -12
-4 -7 6 -7 -6 -14 -17 -13
-5 -8 6 -7 -7 -15 -18 -15
-6 -9 7 -8 -8 -16 -19 -16
-6 -9 7 -8 -8 -16 -19 -16
-6 -9 7 -8 -8 -16 -19 -16
-7 -9 7 -8 -9 -16 -19 -16
-7 -9 7 -8 -9 -16 -19 -16
-8 -10 7 -8 -10 -15 -19 -17
-7 -10 7 -8 -10 -15 -19 -17
-7 -10 8 -8 -10 -15 -19 -17
-6 -10 9 -9 -10 -15 -18 -16
-5 -10 9 -9 -10 -15 -18 -16
-4 -9 10 -10 -9 -15 -17 -15
-4 -9 10 -10 -9 -15 -17 -15
-4 -9 10 -11 -10 -15 -17 -15
-5 -9 10 -12 -11 -15 -18 -16
-5 -9 10 -12 -11 -15 -18 -16
-6 -8 9 -13 -12 -16 -19 -17
-6 -8 9 -13 -12 -16 -19 -17
-6 -8 9 -13 -12 -16 -19 -17
-6 -8 10 -12 -12 -16 -19 -17
-6 -8 10 -12 -12 -16 -19 -17
-6 -9 11 -11 -13 -16 -18 -17
-7 -11 11 -11 -13 -16 -18 -17
-7 -12 10 -11 -13 -16 -18 -17
-8 -13 9 -12 -14 -17 -19 -17
-9 -15 9 -12 -14 -17 -19 -17
-10 -16 8 -13 -15 -18 -20 -17
-10 -14 8 -13 -15 -18 -20 -17
-9 -12 9 -12 -14 -18 -20 -17
-8 -10 10 -11 -13 -17 -20 -17
-8 -8 10 -11 -13 -17 -20 -17
-7 -7 11 -10 -12 -16 -19 -16
-7 -8 11 -10 -12 -16 -19 -16
-7 -8 11 -10 -12 -16 -19 -16
-7 -9 11 -10 -12 -16 -19 -16
-7 -10 11 -10 -12 -16 -19 -16
-7 -11 11 -10 -12 -17 -20 -17
-8 -12 11 -10 -12 -17 -20 -17
-8 -13 11 -10 -12 -17 -20 -17
-9 -14 12 -9 -12 -17 -21 -17
-10 -15 12 -9 -12 -17 -21 -17
-11 -16 13 -8 -11 -17 -22 -17
-11 -15 13 -7 -10 -17 -22 -17
-11 -14 14 -6 -9 -17 -21 -17
-11 -12 15 -4 -8 -16 -20 -17
-11 -11 15 -3 -7 -16 -20 -17
-12 -10 16 -2 -6 -15 -19 -17
-12 -10 16 -2 -6 -15 -19 -17
-12 -10 16 -2 -6 -15 -19 -17
-11 -10 16 -2 -7 -15 -20 -17
-11 -10 16 -2 -7 -15 -20 -17
-10 -11 15 -2 -8 -15 -21 -18
-10 -11 15 -2 -8 -15 -21 -18
-10 -11 16 -2 -8 -15 -20 -17
-9 -11 17 0 -8 -15 -19 -16
-9 -11 17 0 -8 -15 -19 -16
-8 -12 18 1 -7 -14 -18 -15
-8 -12 18 1 -7 -14 -18 -15
-9 -12 18 1 -7 -14 -18 -15
-10 -12 18 2 -7 -13 -18 -15
-10 -12 18 2 -7 -13 -18 -15
-11 -13 18 3 -6 -12 -18 -14
-11 -12 18 3 -6 -12 -18 -14
-11 -12 18 3 -6 -12 -18 -14
-11 -11 18 3 -5 -11 -18 -14
-11 -10 18 3 -5 -11 -18 -14
-10 -9 19 4 -4 -10 -18 -13
-9 -9 19 4 -4 -10 -18 -13
-8 -9 19 4 -4 -10 -18 -13
-7 -8 19 4 -4 -11 -18 -13
-6 -8 19 4 -4 -11 -18 -13
-5 -7 20 4 -5 -12 -17 -14
-5 -7 20 4 -5 -12 -17 -14
-5 -7 20 4 -5 -12 -17 -14
-5 -6 20 4 -6 -12 -17 -14
-5 -6 20 4 -6 -12 -17 -14
-5 -5 20 3 -7 -11 -18 -14
-6 -5 20 3 -7 -11 -18 -14
-6 -6 20 3 -7 -11 -17 -13
-7 -7 21 3 -7 -11 -16 -12
-8 -7 21 3 -7 -11 -16 -12
-9 -8 22 2 -7 -10 -15 -11
-9 -8 22 1 -7 -10 -15 -11
-8 -8 22 0 -7 -10 -15 -11
-7 -8 21 -2 -8 -10 -15 -11
-7 -8 21 -3 -8 -10 -15 -11
-6 -7 20 -4 -9 -11 -16 -12
-7 -7 20 -4 -10 -11 -16 -12
-7 -7 20 -4 -10 -11 -16 -12
-8 -7 20 -4 -11 -11 -16 -12
-9 -7 20 -4 -12 -11 -16 -12
-10 -8 19 -5 -13 -12 -15 -11
-10 -9 19 -5 -13 -12 -15 -11
-10 -10 19 -5 -13 -12 -15 -11
-11 -11 19 -5 -13 -12 -15 -11
-11 -12 19 -5 -13 -12 -15 -11
-12 -13 20 -5 -13 -12 -14 -11
-11 -12 20 -6 -13 -12 -14 -12
-10 -12 20 -7 -13 -12 -14 -13
-9 -11 19 -8 -13 -12 -14 -15
-8 -10 19 -9 -13 -12 -14 -16
-7 -9 18 -10 -14 -13 -15 -17
-7 -9 18 -10 -14 -13 -15 -17
-7 -9 18 -10 -14 -13 -15 -16
-7 -8 18 -9 -14 -12 -15 -15
-7 -8 18 -9 -14 -12 -15 -15
-7 -7 17 -8 -14 -11 -16 -14
-7 -7 17 -8 -14 -11 -16 -13
-7 -7 17 -8 -14 -11 -15 -13
-8 -8 17 -8 -14 -10 -14 -12
-8 -8 17 -8 -14 -10 -14 -11
-9 -9 18 -9 -13 -9 -13 -10
-9 -9 18 -9 -13 -9 -13 -10
-9 -9 18 -9 -13 -9 -13 -10
-8 -9 18 -9 -13 -9 -13 -11
-8 -9 18 -9 -13 -9 -13 -11
-7 -10 17 -8 -13 -9 -14 -12
-7 -10 17 -8 -13 -9 -14 -12
-8 -10 17 -9 -14 -9 -14 -12
-9 -10 16 -10 -15 -9 -14 -12
-9 -10 16 -10 -15 -9 -14 -12
-10 -11 15 -11 -16 -10 -14 -13
-10 -11 15 -10 -16 -10 -14 -12
-11 -11 15 -10 -15 -9 -14 -12
-12 -11 15 -9 -14 -8 -13 -11
-12 -11 15 -8 -14 -8 -13 -10
-13 -10 15 -7 -13 -7 -12 -9
-12 -9 15 -8 -14 -7 -12 -9
-12 -8 15 -8 -15 -8 -12 -9
-11 -6 14 -9 -16 -9 -12 -10
-10 -5 14 -10 -17 -9 -12 -10
-9 -4 13 -11 -18 -10 -13 -11
-9 -5 13 -11 -18 -10 -13 -11
-9 -6 14 -11 -18 -10 -13 -11
-8 -8 15 -11 -17 -10 -13 -11
-8 -9 15 -11 -17 -10 -13 -11
-7 -10 16 -10 -16 -9 -12 -12
-7 -10 16 -10 -16 -9 -12 -12
-7 -10 16 -10 -16 -9 -12 -11
-7 -11 16 -10 -16 -9 -12 -10
-7 -11 16 -10 -16 -9 -12 -10
-8 -12 15 -9 -15 -8 -11 -9
-8 -12 15 -9 -15 -8 -11 -9
-8 -11 14 -9 -15 -8 -11 -9
-8 -10 13 -9 -15 -8 -10 -9
-8 -10 13 -9 -15 -8 -10 -9
-9 -9 12 -10 -15 -7 -9 -10
-8 -8 15 -8 -13 -6 -8 -8
-8 -7 17 -6 -12 -4 -6 -6
-7 -5 19 -4 -10 -3 -5 -4
-6 -4 21 -2 -8 0 -3 -3
-5 -3 23 1 -7 1 -2 0
-5 -2 23 1 -7 1 -3 -2
-5 0 22 1 -7 1 -4 -3
-5 1 21 1 -7 1 -5 -4
-5 2 21 1 -7 1 -6 -5
-4 3 20 0 -8 0 -7 -6
-4 6 20 0 -7 0 -6 -6
-4 8 20 0 -6 0 -5 -5
-3 10 20 0 -5 0 -4 -4
-3 12 20 0 -4 0 -3 -4
-2 14 21 0 -3 0 -2 -3
-2 14 23 0 -3 1 0 -3
-3 14 24 1 -3 2 1 -2
-4 14 26 2 -3 3 2 0
-4 14 27 2 -3 4 3 0
-5 14 29 3 -2 5 4 1
-4 16 27 3 -2 5 4 2
-3 18 25 3 -2 6 4 2
-2 20 23 3 0 7 4 3
0 21 22 3 0 7 4 4
1 23 20 3 1 8 5 5
2 23 19 3 1 8 6 5
3 23 18 3 1 8 6 5
5 23 16 3 0 9 7 6
6 23 15 3 0 9 8 6
7 22 14 3 -2 10 9 7
7 22 14 3 0 10 9 7
7 23 14 3 1 10 9 8
7 24 14 3 2 10 9 9
7 24 14 3 3 10 9 9
7 25 13 4 4 11 10 10
7 24 13 4 4 11 10 10
7 23 13 4 4 11 10 9
7 22 12 4 4 11 9 8
7 21 12 4 4 11 9 8
7 20 11 5 5 11 8 7
6 17 11 4 3 10 7 5
5 15 11 3 1 9 6 4
3 12 11 2 -2 7 5 2
2 10 11 1 -3 6 4 1
1 8 10 0 -5 5 3 -2
0 6 10 -3 -6 3 1 -4
-2 3 9 -4 -7 0 -2 -5
-4 1 8 -6 -9 -3 -4 -7
-5 -2 8 -7 -10 -5 -5 -8
-6 -4 7 -9 -11 -7 -7 -10
-6 -6 7 -9 -11 -7 -7 -10
-6 -8 7 -9 -11 -7 -7 -10
-7 -10 7 -10 -11 -7 -7 -11
-7 -12 7 -10 -11 -7 -7 -11
-8 -14 8 -11 -12 -8 -7 -12
-8 -14 8 -11 -13 -8 -7 -12
-9 -14 8 -11 -14 -8 -7 -12
-10 -13 8 -12 -15 -9 -7 -12
-10 -13 8 -12 -16 -9 -7 -12
-11 -12 7 -13 -17 -10 -8 -11
-11 -12 7 -13 -17 -10 -8 -11
-11 -12 6 -13 -17 -10 -8 -11
-10 -12 6 -13 -17 -10 -8 -11
-10 -12 5 -13 -17 -10 -8 -11
-9 -13 4 -12 -17 -9 -8 -10
-9 -13 4 -12 -17 -9 -8 -10
-9 -13 4 -12 -17 -9 -8 -10
-9 -13 4 -12 -16 -9 -8 -10
-9 -13 4 -12 -16 -9 -8 -10
-10 -12 4 -12 -15 -9 -7 -10
-10 -12 4 -12 -15 -9 -7 -10
-9 -12 4 -12 -15 -9 -8 -11
-9 -13 4 -12 -15 -9 -8 -11
-8 -13 4 -12 -15 -9 -9 -12
-7 -14 5 -13 -16 -10 -10 -13
-7 -14 5 -12 -16 -10 -10 -13
-8 -14 6 -12 -16 -10 -10 -13
-8 -13 6 -11 -15 -10 -10 -13
-9 -13 7 -10 -15 -10 -10 -13
-10 -12 8 -9 -14 -10 -10 -12
-11 -11 11 -8 -14 -11 -10 -12
-12 -11 14 -8 -15 -11 -10 -12
-13 -10 17 -7 -15 -12 -10 -12
-15 -9 20 -6 -16 -13 -10 -12
-15 -8 23 -4 -15 -13 -10 -12
-10 -6 21 3 -8 -6 -5 -9
-5 -4 19 9 1 1 0 -5
1 -3 17 15 8 7 5 0
6 0 15 21 15 13 9 4
15 6 11 29 28 25 19 12
31 22 3 40 53 51 42 28
49 38 -6 52 76 75 63 46
65 54 -15 64 101 101 85 62
82 70 -23 75 126 126 107 79
98 87 -31 84 148 151 129 97
111 106 -40 85 168 177 150 115
125 126 -49 85 186 201 173 134
138 145 -58 86 205 227 194 153
151 164 -67 87 225 252 217 172
156 176 -73 84 235 267 228 181
140 162 -70 69 225 257 212 167
123 149 -67 55 215 246 196 152
107 136 -64 40 204 237 181 138
91 122 -61 25 194 227 164 122
73 107 -59 9 173 206 145 106
54 89 -58 -16 127 162 116 86
33 70 -57 -39 81 118 89 65
14 52 -56 -64 35 74 60 45
-6 32 -55 -88 -11 31 31 24
-20 17 -53 -104 -45 -3 9 8
-24 8 -49 -98 -50 -10 2 2
-27 -2 -44 -92 -55 -17 -6 -5
-30 -10 -38 -86 -59 -25 -13 -11
-33 -19 -34 -80 -64 -32 -20 -17
-36 -26 -30 -73 -67 -38 -26 -22
-33 -25 -27 -65 -60 -35 -24 -21
-31 -24 -24 -57 -53 -32 -22 -19
-28 -23 -21 -49 -46 -29 -20 -18
-25 -21 -18 -40 -38 -26 -18 -16
-23 -20 -15 -34 -33 -23 -16 -15
-20 -19 -13 -30 -31 -22 -16 -15
-18 -18 -10 -27 -29 -22 -16 -15
-16 -17 -8 -24 -27 -21 -15 -15
-13 -15 -6 -21 -25 -20 -15 -15
-11 -14 -4 -18 -23 -19 -14 -16
-12 -15 -4 -17 -23 -19 -14 -16
-12 -17 -4 -17 -23 -19 -14 -16
-13 -18 -4 -16 -23 -19 -13 -16
-14 -19 -4 -15 -23 -19 -13 -16
-15 -21 -3 -14 -22 -18 -12 -17
-15 -21 -3 -14 -22 -18 -12 -17
-15 -21 -3 -14 -22 -18 -12 -17
-15 -22 -3 -14 -22 -19 -13 -16
-15 -22 -3 -14 -22 -19 -13 -16
-14 -23 -3 -14 -23 -20 -14 -15
-14 -23 -3 -14 -23 -20 -14 -15
-14 -23 -3 -14 -23 -20 -14 -16
-14 -23 -3 -14 -23 -20 -14 -16
-14 -23 -3 -14 -23 -20 -14 -17
-15 -23 -4 -13 -22 -20 -13 -18
-15 -23 -4 -13 -22 -20 -13 -18
-15 -23 -4 -13 -22 -20 -13 -18
-15 -23 -4 -12 -21 -19 -13 -17
-15 -23 -4 -12 -21 -19 -13 -17
-15 -23 -4 -11 -20 -18 -12 -16
-15 -23 -4 -11 -20 -18 -12 -16
-15 -23 -3 -11 -20 -18 -12 -16
-15 -23 -3 -11 -20 -18 -12 -16
-15 -23 -2 -11 -20 -18 -12 -16
-16 -24 0 -12 -21 -18 -13 -16
-15 -23 0 -12 -21 -18 -13 -16
-15 -22 0 -11 -21 -18 -12 -16
-14 -21 0 -11 -20 -17 -12 -16
-13 -20 0 -10 -20 -17 -11 -16
-12 -19 0 -9 -19 -16 -10 -15
-12 -19 0 -9 -18 -16 -10 -15
-11 -19 0 -9 -18 -16 -10 -15
-11 -19 0 -9 -17 -15 -10 -16
-10 -19 0 -9 -16 -15 -10 -16
-9 -20 1 -8 -15 -14 -11 -17
-9 -20 1 -8 -15 -14 -10 -17
-10 -20 1 -8 -15 -14 -10 -16
-10 -20 1 -7 -15 -14 -9 -16
-11 -20 1 -7 -15 -14 -8 -15
-12 -19 1 -6 -16 -13 -7 -14
-12 -19 1 -6 -16 -13 -7 -14
-12 -19 0 -6 -16 -14 -7 -14
-12 -19 0 -6 -16 -14 -7 -15
-12 -19 -2 -6 -16 -15 -7 -15
-13 -20 -3 -7 -17 -16 -8 -16
-13 -20 -3 -7 -17 -16 -8 -16
-13 -20 -3 -7 -17 -16 -8 -16
-12 -20 -3 -7 -17 -16 -8 -16
-12 -20 -3 -7 -17 -16 -8 -16
-11 -21 -3 -8 -18 -17 -9 -17
-11 -21 -3 -8 -18 -17 -9 -17
-11 -21 -3 -8 -18 -16 -8 -16
-10 -21 -3 -8 -17 -16 -7 -16
-10 -21 -3 -8 -17 -15 -6 -15
-9 -20 -2 -8 -16 -14 -5 -14
-9 -20 -2 -8 -16 -14 -5 -14
-9 -20 -2 -7 -15 -14 -5 -14
-9 -20 -2 -7 -14 -14 -5 -14
-9 -20 -2 -6 -13 -14 -5 -14
-8 -21 -2 -5 -12 -14 -6 -13
-8 -21 -2 -5 -11 -14 -6 -13
-8 -20 -3 -5 -10 -14 -6 -13
-7 -20 -4 -5 -9 -14 -6 -13
-7 -19 -5 -5 -7 -14 -6 -13
-6 -18 -6 -4 -6 -14 -6 -12
-6 -18 -6 -4 -6 -14 -5 -12
-6 -18 -6 -3 -5 -13 -4 -11
-6 -17 -6 -3 -5 -13 -3 -11
-6 -17 -6 -2 -4 -12 -2 -10
-5 -16 -7 0 -3 -11 0 -9
-5 -16 -7 0 -3 -11 0 -9
-4 -16 -7 0 -3 -10 0 -8
-3 -16 -7 1 -3 -10 0 -8
-2 -16 -7 1 -3 -9 0 -7
0 -15 -8 2 -3 -8 1 -6
0 -15 -8 3 -2 -8 1 -6
1 -14 -9 5 0 -7 1 -6
2 -13 -9 6 1 -6 1 -5
3 -12 -10 7 3 -5 1 -5
4 -11 -11 9 4 -4 2 -4
4 -12 -12 9 4 -4 2 -4
4 -13 -14 9 4 -4 2 -4
4 -14 -15 9 4 -4 3 -4
4 -16 -16 9 4 -4 3 -4
5 -17 -18 9 4 -3 4 -3
7 -16 -18 9 4 -2 5 -3
8 -14 -19 9 5 1 7 -2
10 -13 -19 10 5 2 8 -2
12 -12 -20 10 6 3 9 0
14 -10 -21 11 7 5 11 1
15 -10 -22 11 7 5 11 2
16 -9 -23 12 8 6 12 3
17 -9 -24 12 9 7 13 4
18 -8 -25 13 10 8 14 5
19 -7 -26 14 11 9 15 6
20 -6 -26 14 12 11 16 7
21 -4 -27 15 14 12 18 9
22 -3 -27 16 15 14 19 10
23 -2 -28 17 16 16 20 11
24 1 -29 18 18 18 22 13
24 1 -30 18 18 18 22 13
25 2 -31 17 18 18 22 13
25 2 -32 17 18 19 23 13
26 3 -33 16 18 19 23 13
27 4 -34 15 19 20 24 14
27 4 -34 15 19 21 25 14
27 4 -35 15 20 22 27 15
27 4 -36 15 20 23 28 16
27 4 -37 15 21 24 29 17
27 5 -38 14 22 25 31 18
27 5 -38 14 22 25 31 18
27 6 -37 13 22 25 31 19
27 7 -36 13 22 24 30 19
27 8 -35 12 22 24 30 20
28 9 -34 11 21 23 29 21
28 9 -34 11 21 23 29 21
27 9 -34 11 20 23 29 21
26 9 -34 11 20 22 29 20
25 9 -34 11 19 22 29 20
24 8 -34 10 18 21 30 19
21 6 -33 9 17 20 29 19
19 4 -31 8 16 19 27 18
16 1 -30 7 15 18 26 18
14 -2 -29 6 13 17 25 17
11 -4 -27 5 12 16 23 16
11 -3 -25 5 12 16 23 15
11 -2 -23 5 11 15 22 14
12 0 -21 5 11 15 21 13
12 2 -18 5 10 14 20 12
13 3 -16 6 9 13 19 11
12 3 -16 6 8 11 18 10
10 3 -16 5 6 9 16 9
9 3 -16 4 4 7 15 8
8 3 -16 3 3 5 14 7
6 2 -15 2 1 3 12 6
5 1 -14 2 1 3 11 6
3 0 -13 2 0 2 10 5
1 -2 -12 2 -2 2 9 4
0 -3 -10 2 -3 1 8 3
-3 -4 -9 2 -4 0 7 2
-3 -4 -9 2 -5 -2 6 1
-3 -4 -8 2 -6 -3 5 0
-3 -4 -7 2 -7 -4 4 -2
-3 -4 -6 2 -8 -6 2 -3
-3 -5 -5 1 -9 -7 1 -4
-4 -6 -5 1 -8 -7 1 -4
-5 -8 -5 1 -7 -6 1 -4
-6 -9 -6 0 -6 -6 1 -4
-7 -10 -6 0 -5 -5 1 -4
-8 -12 -7 -2 -4 -4 2 -4
-8 -11 -7 -2 -5 -5 1 -5
-8 -10 -7 -2 -6 -6 0 -6
-9 -9 -7 -3 -7 -7 -2 -7
-9 -8 -7 -3 -8 -8 -3 -8
-10 -7 -7 -4 -10 -10 -4 -9
-10 -8 -7 -4 -9 -10 -4 -9
-10 -10 -6 -4 -8 -10 -4 -8
-10 -11 -5 -4 -7 -9 -4 -8
-10 -12 -4 -4 -6 -9 -4 -7
-11 -14 -3 -4 -5 -8 -4 -6
-11 -14 -3 -4 -5 -8 -4 -6
-11 -14 -3 -4 -5 -8 -4 -6
-11 -14 -3 -4 -5 -8 -4 -6
-11 -14 -3 -4 -5 -8 -4 -6
-10 -13 -3 -4 -5 -9 -4 -6
-10 -13 -3 -4 -5 -9 -4 -7
-10 -13 -4 -4 -6 -9 -5 -8
-10 -13 -5 -4 -6 -9 -6 -9
-10 -13 -6 -4 -7 -9 -7 -10
-10 -14 -7 -3 -8 -10 -8 -11
-10 -14 -6 -3 -8 -10 -7 -10
-10 -14 -5 -2 -8 -9 -6 -9
-10 -13 -4 -2 -7 -9 -5 -8
-10 -13 -3 0 -7 -8 -4 -7
-9 -12 -2 1 -6 -7 -3 -6
-9 -12 -2 1 -6 -7 -3 -6
-9 -12 -2 1 -6 -7 -3 -6
-9 -11 -2 1 -5 -8 -3 -6
-9 -11 -2 1 -5 -8 -3 -6
-10 -10 -3 1 -4 -9 -4 -6
-11 -10 -3 1 -4 -9 -4 -6
-12 -11 -3 1 -4 -9 -4 -6
-13 -12 -3 1 -4 -9 -4 -7
-14 -13 -3 1 -4 -9 -4 -7
-15 -14 -3 1 -5 -8 -5 -8
-14 -13 -3 2 -4 -8 -5 -8
-13 -12 -3 3 -3 -8 -5 -7
-11 -10 -2 4 -2 -8 -4 -7
-10 -9 -2 5 0 -8 -4 -6
-8 -7 0 7 1 -7 -3 -5
-8 -7 0 7 1 -7 -2 -5
-8 -7 1 7 1 -6 0 -5
-9 -6 1 8 1 -6 1 -5
-9 -6 2 8 1 -5 2 -5
-10 -5 3 9 2 -4 3 -6
-9 -5 3 9 2 -4 3 -6
-8 -5 3 9 2 -4 3 -6
-7 -5 2 9 2 -4 3 -6
-6 -5 2 9 2 -4 3 -6
-5 -5 1 10 2 -3 3 -7
-5 -5 1 10 2 -3 3 -7
-5 -5 1 10 2 -2 3 -6
-6 -5 1 10 3 -2 3 -5
-6 -5 1 10 3 0 3 -4
-7 -6 2 11 4 1 4 -3
-7 -6 2 11 4 1 4 -3
-7 -6 2 11 4 1 4 -3
-7 -6 2 11 4 1 4 -4
-7 -6 2 11 4 1 4 -4
-8 -6 2 10 3 0 4 -5
-8 -6 2 10 3 0 4 -5
-8 -6 2 10 2 -2 4 -5
-7 -6 2 9 2 -2 3 -5
-7 -6 2 9 1 -3 3 -5
-6 -5 3 8 0 -4 2 -5
-6 -5 3 8 0 -4 2 -5
-6 -5 2 8 0 -4 2 -5
-5 -4 2 7 0 -4 2 -5
-5 -4 1 7 0 -4 2 -5
-4 -3 0 6 1 -3 2 -5
-4 -3 0 5 1 -3 2 -5
-4 -3 0 4 0 -3 2 -5
-4 -3 0 3 -2 -3 1 -5
-4 -3 0 2 -3 -3 1 -5
-5 -4 1 1 -4 -3 0 -4
-5 -4 1 1 -4 -3 0 -4
-6 -5 0 1 -4 -3 0 -4
-6 -6 0 1 -5 -3 0 -4
-7 -7 -2 1 -5 -3 0 -4
-8 -8 -3 1 -6 -4 0 -4
-8 -8 -3 1 -6 -4 0 -4
-8 -8 -3 0 -6 -4 0 -4
-9 -8 -3 0 -7 -5 0 -5
-9 -8 -3 -2 -7 -5 0 -5
-10 -8 -4 -3 -8 -6 -2 -6
-10 -8 -4 -3 -8 -6 -2 -6
-9 -9 -3 -3 -8 -6 -2 -6
-8 -9 -3 -3 -8 -6 -2 -6
-7 -10 -2 -3 -8 -6 -2 -6
-6 -11 0 -4 -7 -7 -3 -6
-7 -11 0 -4 -7 -7 -3 -6
-8 -11 0 -5 -8 -6 -2 -5
-9 -11 -2 -6 -8 -6 -2 -5
-10 -11 -2 -7 -9 -5 0 -4
-11 -11 -3 -8 -10 -4 1 -3
-10 -11 -3 -8 -10 -5 0 -3
-9 -10 -3 -8 -11 -6 -2 -3
-8 -10 -3 -9 -11 -7 -3 -4
-7 -9 -3 -9 -12 -8 -4 -4
-6 -8 -3 -10 -13 -9 -5 -5
-6 -8 -3 -10 -13 -9 -5 -5
-6 -8 -2 -10 -13 -8 -4 -5
-7 -7 -2 -9 -12 -8 -4 -5
-7 -7 0 -9 -12 -7 -3 -5
-8 -6 1 -8 -11 -6 -2 -5
-8 -6 1 -8 -11 -6 -2 -5
-8 -6 2 -8 -11 -5 -2 -5
-8 -7 2 -8 -11 -5 0 -5
-8 -7 3 -8 -11 -4 0 -5
-8 -8 4 -8 -12 -3 1 -5
-8 -6 4 -8 -11 -3 2 -4
-8 -4 5 -7 -10 -3 3 -3
-8 0 6 -6 -9 -2 4 -2
-8 2 7 -5 -8 -2 5 0
-7 5 8 -4 -7 0 6 1
-7 5 8 -4 -7 0 6 1
-7 4 9 -4 -7 1 7 1
-6 4 10 -4 -7 1 8 1
-6 3 11 -4 -7 2 9 1
-5 2 12 -3 -6 3 10 1
-5 2 12 -3 -6 3 10 2
-5 3 12 -3 -6 4 10 3
-5 4 12 -3 -5 4 10 4
-5 5 12 -3 -5 5 10 5
-6 6 12 -4 -4 6 11 6
-6 6 12 -3 -4 6 11 6
-6 6 13 -2 -4 6 11 6
-6 6 13 0 -4 6 11 6
-6 6 14 1 -4 6 11 6
-7 6 15 2 -3 7 12 7
-5 10 15 3 -2 8 13 8
-3 15 15 4 0 9 15 9
0 20 16 5 1 10 16 11
2 24 16 6 2 11 18 12
5 29 17 7 4 13 20 14
4 29 17 7 4 14 20 14
3 29 16 7 4 15 20 14
2 29 16 7 4 16 21 15
1 29 15 7 4 17 21 15
0 29 14 7 5 18 22 16
1 29 13 7 5 18 22 16
2 28 12 7 5 18 22 16
3 28 10 7 5 17 22 16
4 27 9 7 5 17 22 16
6 26 7 7 5 16 22 17
6 26 7 7 5 16 22 17
5 25 7 7 5 16 22 16
5 25 6 7 6 16 22 16
4 24 6 7 6 16 22 15
3 23 5 7 7 17 21 14
2 18 5 7 6 16 20 13
0 13 6 6 5 14 18 11
-2 8 6 5 4 13 17 9
-4 3 7 4 3 11 15 7
-6 -3 8 3 1 9 13 5
-7 -4 8 2 -2 8 11 4
-8 -5 8 0 -4 6 9 3
-10 -7 8 -2 -6 4 7 1
-11 -8 8 -4 -8 2 5 0
-13 -10 8 -6 -10 0 2 -3
-13 -11 8 -7 -11 -2 1 -4
-13 -12 7 -9 -13 -4 0 -5
-14 -13 6 -10 -14 -6 -3 -7
-14 -14 5 -12 -16 -8 -4 -8
-15 -16 4 -14 -18 -10 -6 -10
-15 -16 4 -14 -18 -10 -6 -10
-15 -16 4 -14 -18 -10 -6 -10
-15 -16 4 -13 -17 -10 -6 -10
-15 -16 4 -13 -17 -10 -6 -10
-15 -15 3 -12 -16 -9 -5 -10
-15 -15 3 -12 -16 -9 -5 -10
-15 -15 3 -13 -16 -9 -5 -10
-15 -15 3 -13 -17 -9 -5 -10
-15 -15 3 -14 -17 -9 -5 -10
-14 -16 3 -15 -18 -9 -6 -9
-14 -16 3 -15 -18 -9 -6 -9
-13 -16 3 -15 -18 -9 -6 -9
-13 -17 3 -15 -18 -9 -6 -9
-12 -17 3 -15 -18 -9 -6 -9
-11 -18 4 -14 -18 -8 -5 -9
-12 -18 4 -14 -18 -8 -5 -9
-13 -18 4 -14 -18 -8 -5 -9
-14 -18 4 -14 -19 -8 -5 -9
-15 -18 4 -14 -19 -8 -5 -9
-16 -19 5 -14 -20 -9 -5 -9
-16 -19 6 -14 -20 -9 -5 -9
-16 -18 8 -13 -20 -9 -5 -9
-16 -17 9 -13 -20 -9 -6 -9
-16 -16 11 -12 -20 -9 -6 -9
-16 -15 13 -11 -19 -10 -7 -8
-16 -14 15 -11 -19 -10 -6 -8
-17 -13 18 -10 -19 -11 -5 -8
-18 -12 20 -9 -19 -12 -4 -9
-19 -11 23 -8 -19 -13 -3 -9
-20 -9 26 -7 -20 -14 -2 -10
-14 -6 26 3 -9 -5 7 -5
-7 -2 26 12 3 5 16 2
1 2 26 21 14 15 24 8
8 6 26 30 25 24 33 14
15 10 25 40 36 34 43 20
31 27 14 52 64 63 67 39
48 45 3 63 92 93 92 60
64 61 -8 73 118 122 116 79
80 78 -19 85 146 152 141 100
97 96 -30 96 174 181 165 119
106 112 -37 96 194 206 186 137
115 128 -44 94 215 232 206 153
123 143 -51 93 235 257 227 171
133 158 -57 91 256 282 247 187
141 174 -63 90 275 307 267 203
125 161 -59 71 257 285 245 186
106 147 -54 54 236 262 223 167
89 134 -48 36 216 238 199 147
70 119 -43 19 195 215 177 128
53 106 -37 2 175 191 154 109
35 88 -36 -23 127 151 127 90
18 70 -37 -47 78 111 100 71
1 53 -38 -71 29 70 72 52
-16 35 -39 -96 -19 30 45 32
-33 18 -39 -119 -67 -10 18 14
-34 10 -36 -112 -67 -15 12 8
-35 3 -32 -103 -66 -20 6 2
-35 -6 -27 -94 -65 -25 0 -5
-36 -13 -23 -85 -64 -30 -7 -11
-36 -20 -19 -76 -63 -34 -13 -17
-35 -21 -16 -68 -58 -33 -14 -18
-32 -20 -13 -61 -54 -31 -13 -17
-29 -20 -11 -53 -50 -29 -12 -16
-26 -19 -8 -46 -46 -27 -11 -15
-24 -19 -6 -38 -41 -25 -10 -15
-23 -18 -4 -35 -38 -24 -9 -14
-23 -19 -2 -32 -36 -24 -9 -14
-22 -20 0 -29 -34 -23 -9 -14
-22 -21 2 -26 -32 -23 -9 -14
-22 -22 3 -24 -30 -23 -9 -14
-21 -23 5 -22 -28 -22 -8 -15
-21 -23 7 -20 -27 -21 -7 -15
-21 -23 9 -18 -25 -20 -5 -14
-21 -23 11 -16 -24 -19 -4 -14
-21 -23 12 -15 -23 -19 -3 -14
-20 -24 13 -14 -22 -18 -2 -13
-19 -24 13 -14 -22 -18 -2 -13
-17 -23 12 -14 -22 -18 -2 -12
-16 -23 12 -14 -22 -18 -2 -12
-15 -23 12 -14 -22 -18 -2 -12
-15 -23 11 -15 -23 -17 -3 -11
-17 -24 12 -15 -23 -17 -3 -10
-18 -25 13 -15 -23 -17 -3 -10
-20 -26 14 -15 -23 -17 -3 -9
-21 -27 15 -15 -23 -17 -3 -9
-21 -27 16 -15 -23 -17 -3 -8
-19 -26 15 -14 -23 -17 -3 -8
-18 -24 15 -13 -22 -17 -3 -7
-16 -23 14 -12 -22 -17 -3 -7
-15 -22 14 -12 -22 -17 -3 -7
-14 -21 13 -11 -21 -16 -2 -6
-14 -22 14 -11 -21 -16 -2 -6
-15 -23 15 -11 -21 -16 0 -6
-15 -24 16 -11 -21 -16 0 -6
-15 -24 17 -11 -21 -16 0 -6
-16 -25 18 -12 -22 -16 1 -7
-15 -24 17 -11 -21 -15 2 -6
-14 -23 16 -11 -20 -14 2 -6
-13 -22 15 -10 -19 -13 3 -5
-12 -21 15 -10 -19 -13 3 -5
-11 -20 14 -9 -18 -12 4 -4
-12 -20 14 -9 -19 -12 3 -5
-13 -21 14 -9 -19 -13 2 -6
-14 -21 14 -9 -20 -13 1 -7
-15 -21 14 -9 -20 -13 1 -8
-16 -22 15 -10 -21 -14 0 -9
-16 -22 15 -9 -21 -14 0 -9
-15 -22 16 -9 -21 -14 0 -9
-15 -22 16 -8 -21 -14 0 -9
-15 -22 16 -8 -21 -14 0 -9
-14 -21 17 -7 -20 -14 0 -9
-14 -21 16 -7 -20 -14 1 -9
-13 -20 16 -8 -20 -14 2 -8
-13 -20 15 -8 -20 -14 3 -8
-13 -20 15 -8 -20 -14 3 -8
-12 -19 14 -9 -19 -13 4 -7
-12 -19 14 -9 -19 -13 4 -6
-13 -19 15 -9 -18 -13 4 -6
-13 -19 15 -9 -18 -13 4 -5
-13 -19 15 -9 -18 -13 4 -5
-14 -20 16 -8 -17 -12 4 -4
-13 -21 16 -8 -17 -12 4 -4
-12 -22 15 -8 -17 -12 4 -4
-11 -23 15 -8 -17 -12 4 -4
-11 -23 15 -8 -17 -12 4 -4
-10 -24 14 -7 -18 -12 4 -3
-11 -23 14 -6 -17 -12 4 -3
-12 -23 14 -6 -16 -12 4 -3
-13 -22 14 -5 -15 -12 4 -3
-14 -22 14 -5 -15 -12 4 -3
-14 -21 13 -4 -14 -12 4 -4
-13 -21 13 -4 -14 -12 4 -4
-11 -21 13 -4 -14 -11 4 -4
-10 -21 13 -4 -14 -11 4 -4
-9 -21 13 -4 -14 -11 4 -4
-8 -22 14 -4 -13 -10 5 -3
-9 -21 14 -3 -12 -9 6 -3
-9 -21 14 -2 -11 -8 7 -2
-10 -20 14 0 -10 -7 8 -2
-10 -20 14 0 -10 -6 8 -2
-10 -19 13 1 -9 -5 9 0
-8 -19 12 2 -9 -5 9 0
-7 -18 11 2 -8 -5 10 0
-5 -18 10 3 -8 -5 10 0
-4 -18 10 3 -8 -5 10 0
-2 -17 8 4 -6 -6 11 0
1 -17 6 5 -5 -5 12 0
2 -18 5 6 -4 -4 12 1
4 -18 3 7 -3 -3 13 1
5 -18 2 7 -2 -3 13 1
6 -19 1 9 2 0 16 3
7 -18 2 10 4 2 18 4
8 -17 2 12 6 4 20 5
9 -16 3 13 8 6 22 6
9 -15 3 14 10 7 24 7
11 -13 3 15 12 8 25 8
13 -12 1 15 14 9 25 8
15 -11 -2 15 16 10 25 8
17 -10 -4 15 18 11 25 8
19 -9 -6 15 19 12 25 8
20 -8 -7 17 21 14 28 8
21 -8 -7 18 22 16 31 10
22 -7 -7 19 23 18 34 12
23 -7 -7 20 24 20 36 14
24 -7 -7 21 25 21 39 15
24 -6 -7 22 27 22 40 16
23 -7 -8 22 29 23 40 17
21 -7 -9 22 30 23 40 18
20 -8 -10 22 32 24 40 19
19 -8 -11 22 33 24 40 19
20 -9 -12 21 34 25 40 20
22 -8 -13 21 34 25 39 20
24 -7 -13 21 34 25 37 20
27 -6 -14 21 34 25 36 20
29 -5 -14 21 34 25 35 20
30 -4 -15 21 33 24 34 19
29 -4 -15 21 34 25 35 20
28 -4 -15 21 34 26 36 20
27 -4 -15 21 35 27 37 21
26 -4 -15 21 35 28 38 21
25 -3 -14 20 36 29 39 22
25 -2 -14 20 35 29 39 22
26 0 -14 20 34 29 39 22
26 1 -14 20 33 29 39 22
26 1 -14 20 33 29 39 22
27 2 -14 19 32 29 38 23
27 2 -14 18 31 29 38 23
27 3 -14 17 30 28 38 23
27 3 -14 16 29 28 38 23
27 3 -14 16 29 28 38 23
24 4 -14 15 27 26 37 23
20 5 -12 15 24 25 36 22
17 6 -10 14 22 24 35 21
14 7 -8 14 20 23 34 20
11 7 -6 14 18 22 33 19
10 6 -5 12 16 20 31 17
9 3 -4 11 14 19 30 16
8 -2 -3 10 12 17 28 15
7 -5 -2 9 11 15 27 14
7 -8 -2 8 9 14 26 13
6 -9 1 7 8 12 24 12
5 -8 2 7 7 10 23 11
4 -7 4 7 6 8 21 11
3 -6 5 7 5 7 19 10
2 -5 6 7 4 5 18 10
1 -4 7 7 2 4 17 9
0 -5 8 6 1 4 16 8
-2 -6 8 6 0 3 16 7
-3 -7 9 5 -2 3 15 6
-3 -8 9 5 -3 3 15 6
-4 -9 10 4 -4 2 14 5
-5 -9 11 4 -5 2 14 5
-6 -9 12 3 -6 1 14 4
-7 -9 13 3 -7 1 14 4
-8 -9 14 3 -7 1 14 4
-9 -8 15 2 -8 0 13 3
-9 -8 15 2 -8 0 13 3
-9 -9 15 2 -8 0 13 2
-9 -9 15 2 -8 0 13 2
-9 -9 15 2 -8 0 13 2
-10 -10 16 1 -9 1 12 1
-10 -10 16 1 -9 1 11 0
-10 -10 16 1 -9 1 10 -2
-10 -10 16 1 -9 1 9 -3
-10 -10 16 1 -9 1 8 -4
-11 -11 16 0 -8 0 7 -5
-11 -11 16 0 -8 0 7 -5
-11 -11 16 -2 -9 -2 6 -6
-11 -11 16 -2 -9 -2 6 -6
-11 -11 16 -2 -9 -2 6 -6
-11 -11 17 -3 -10 -3 5 -7
-11 -10 17 -3 -10 -4 4 -7
-11 -10 17 -3 -10 -4 4 -7
-11 -9 17 -3 -10 -5 3 -7
-11 -9 17 -3 -10 -5 3 -7
-11 -8 17 0 -10 -5 2 -6
-11 -8 17 1 -9 -4 3 -6
-10 -8 17 2 -9 -3 3 -5
-10 -8 17 3 -8 -2 4 -5
-10 -8 17 4 -8 0 4 -5
-9 -7 18 5 -7 1 5 -4
-9 -8 18 5 -7 0 4 -5
-10 -8 19 5 -6 0 3 -5
-10 -9 19 5 -6 -2 2 -6
-10 -9 19 5 -6 -2 2 -6
-11 -10 20 5 -5 -3 1 -7
-11 -9 20 5 -5 -2 2 -7
-10 -8 20 5 -5 -2 2 -6
-10 -7 20 5 -5 0 3 -6
-10 -7 20 5 -5 0 3 -6
-9 -6 19 5 -4 1 4 -5
-8 -6 19 6 -4 1 4 -5
-8 -5 19 7 -4 1 5 -5
-7 -5 19 8 -4 1 5 -5
-7 -5 19 8 -4 1 5 -5
-6 -4 19 9 -4 1 6 -4
-7 -5 18 9 -4 1 5 -5
-7 -6 18 9 -4 0 4 -5
-8 -7 17 9 -4 0 3 -6
-8 -7 17 9 -4 0 3 -6
-9 -8 16 9 -3 -2 2 -7
-9 -8 17 9 -3 0 2 -6
-8 -7 17 9 -2 1 3 -6
-8 -7 18 9 -2 2 3 -5
-8 -7 18 9 -2 2 3 -5
-7 -6 19 9 0 3 4 -4
-7 -6 19 9 0 3 5 -4
-7 -6 19 10 0 3 5 -4
-7 -6 19 10 0 3 6 -4
-7 -6 19 10 0 3 6 -4
-8 -6 18 11 0 3 7 -3
-8 -6 18 11 0 3 7 -3
-7 -5 18 11 1 3 7 -4
-7 -5 18 11 1 3 7 -4
-7 -5 18 11 1 3 7 -4
-6 -4 19 11 2 4 6 -5
-6 -4 19 11 2 4 6 -5
-6 -5 18 11 2 4 5 -4
-6 -5 18 11 2 4 5 -4
-6 -5 18 11 2 4 5 -4
-5 -6 17 12 2 4 4 -3
-5 -5 17 12 2 4 4 -3
-5 -5 17 11 1 4 4 -3
-5 -4 17 11 1 4 4 -3
-5 -4 17 11 1 4 4 -3
-6 -3 16 10 0 4 5 -3
-5 -2 16 10 0 4 4 -3
-5 0 16 9 -2 3 3 -3
-4 1 16 9 -2 3 2 -3
-4 1 16 9 -2 3 1 -3
-3 2 16 8 -3 2 0 -3
-3 1 16 8 -3 2 0 -3
-3 1 16 7 -4 2 0 -3
-3 0 16 7 -4 2 0 -3
-3 0 16 7 -4 2 0 -3
-4 -2 17 6 -5 2 1 -2
-3 -2 17 6 -5 2 2 -2
-2 0 16 5 -4 2 3 -2
0 0 16 5 -4 2 4 -2
1 0 16 5 -4 2 4 -2
2 1 15 4 -3 1 5 -3
2 1 15 4 -4 1 5 -3
2 1 15 4 -4 1 5 -3
2 1 15 4 -5 1 5 -3
2 1 15 4 -5 1 5 -3
1 2 14 3 -6 2 5 -3
1 2 13 3 -6 2 5 -3
0 2 13 3 -5 3 5 -3
0 2 12 3 -5 3 5 -3
0 2 12 3 -5 3 5 -3
-2 1 11 2 -4 4 5 -2
-2 0 12 1 -5 3 5 -2
-3 -2 12 0 -6 2 5 -2
-3 -3 13 -2 -7 1 5 -2
-3 -3 13 -2 -8 1 5 -2
-4 -4 14 -3 -9 0 4 0
-4 -3 14 -3 -9 0 4 0
-4 -2 14 -2 -8 1 4 0
-4 0 14 -2 -8 1 4 0
-4 0 14 -2 -8 1 4 0
-4 1 15 0 -7 2 4 0
-4 1 15 0 -7 2 4 -2
-3 1 15 0 -7 2 4 -2
-3 1 15 0 -7 2 4 -3
-3 1 15 0 -7 2 4 -3
-2 2 15 1 -6 3 4 -4
-3 3 16 2 -6 3 4 -3
-3 5 17 2 -5 4 4 -3
-4 7 18 3 -5 4 4 -2
-4 8 18 3 -5 4 4 -2
-5 9 19 4 -4 5 5 0
-5 9 20 4 -4 5 5 0
-6 9 20 4 -4 6 6 0
-6 9 21 4 -4 6 6 0
-6 9 21 4 -4 6 6 0
-7 10 22 4 -3 7 7 1
-6 11 22 5 -2 8 8 3
-6 12 22 6 0 9 8 4
-5 13 22 7 1 10 9 5
-5 14 22 7 1 11 9 6
-4 16 23 8 2 12 10 7
-4 19 24 8 3 13 12 8
-5 21 24 9 3 13 13 8
-5 24 25 9 4 14 14 9
-5 26 25 9 4 14 15 9
-5 28 25 10 5 15 16 10
-3 31 24 10 5 15 17 11
1 33 22 10 6 16 17 12
3 36 20 10 6 16 18 13
5 38 19 10 6 16 18 13
7 39 18 10 7 17 19 14
8 39 18 10 7 18 19 14
9 39 17 10 7 18 20 15
11 39 17 10 7 19 20 15
12 39 17 10 7 19 20 15
13 38 15 10 6 20 21 16
13 38 14 10 6 20 21 16
13 37 13 10 7 20 21 15
13 37 11 10 7 20 21 15
13 37 10 10 7 20 21 15
12 34 9 11 8 20 22 14
10 31 10 11 8 19 21 13
9 27 11 11 8 18 20 12
7 24 11 11 8 18 20 11
5 20 12 11 8 17 19 10
4 17 12 9 7 14 16 8
3 14 11 7 4 11 12 6
2 10 9 6 1 8 9 3
1 7 8 4 -2 5 5 1
0 3 6 2 -5 1 1 -2
-2 2 5 0 -6 0 0 -4
-3 1 5 -2 -7 -2 -2 -5
-4 0 5 -3 -8 -2 -2 -7
-4 -2 5 -5 -9 -3 -3 -8
-5 -3 5 -6 -10 -3 -3 -10
-6 -4 4 -7 -11 -4 -4 -11
-8 -6 4 -7 -12 -4 -4 -11
-9 -7 4 -7 -12 -4 -4 -11
-10 -8 4 -7 -13 -4 -4 -11
-11 -9 4 -7 -13 -4 -4 -11
-12 -10 5 -7 -14 -5 -4 -10
-10 -11 4 -7 -15 -6 -5 -11
-9 -11 4 -8 -16 -7 -6 -12
-8 -12 3 -8 -16 -8 -7 -12
-7 -12 3 -8 -17 -9 -8 -13
-6 -13 2 -9 -18 -10 -9 -14
-6 -11 2 -9 -17 -10 -9 -14
-7 -10 2 -9 -16 -9 -10 -15
-7 -9 2 -9 -16 -9 -10 -15
-7 -8 2 -9 -15 -9 -10 -15
-8 -7 2 -8 -14 -8 -11 -16
-9 -7 2 -8 -14 -8 -11 -16
-10 -8 2 -7 -14 -7 -11 -15
-10 -8 2 -7 -14 -7 -11 -15
-11 -8 2 -7 -14 -7 -11 -15
-12 -9 2 -6 -14 -6 -10 -14
-12 -8 4 -6 -14 -6 -10 -14
-11 -7 5 -5 -14 -6 -11 -14
-11 -6 7 -5 -14 -6 -11 -14
-11 -5 9 -5 -14 -6 -11 -14
-10 -4 11 -4 -14 -7 -12 -14
-12 -3 14 -4 -15 -8 -12 -14
-13 -2 17 -4 -15 -9 -12 -14
-15 -2 19 -4 -16 -9 -12 -14
-16 0 22 -4 -16 -10 -12 -14
-15 1 23 1 -14 -9 -11 -12
-11 2 23 7 -9 -5 -8 -9
-8 3 23 13 -4 0 -5 -6
-4 3 23 19 2 4 -2 -3
0 4 23 26 7 7 2 1
12 13 17 36 26 25 16 11
28 26 9 50 51 50 35 25
45 39 0 63 76 73 55 39
60 52 -9 75 101 98 74 54
76 65 -17 89 127 121 94 68
92 85 -27 94 152 151 118 88
107 107 -38 97 179 183 145 110
121 130 -50 99 205 215 173 132
137 152 -61 101 232 245 199 154
152 175 -72 104 259 277 226 176
149 179 -76 97 265 285 231 180
137 175 -74 85 261 281 226 174
123 170 -73 72 257 277 220 169
111 165 -72 60 253 273 214 163
98 160 -71 48 250 270 207 157
80 144 -69 25 212 236 182 139
60 121 -66 -3 159 188 148 113
39 99 -64 -30 107 141 113 89
20 77 -61 -58 55 94 79 64
0 55 -58 -86 4 47 45 38
-10 40 -54 -93 -21 22 26 24
-14 29 -49 -90 -33 9 15 14
-17 19 -45 -87 -46 -5 3 4
-21 8 -39 -83 -57 -18 -9 -7
-24 -4 -34 -80 -69 -31 -20 -17
-26 -8 -30 -74 -69 -35 -24 -21
-24 -8 -27 -65 -62 -32 -23 -21
-23 -9 -24 -56 -56 -30 -22 -20
-21 -9 -21 -48 -49 -28 -22 -20
-20 -9 -18 -38 -43 -25 -21 -20
-19 -10 -15 -33 -38 -24 -20 -19
-18 -10 -12 -28 -35 -22 -19 -18
-18 -10 -10 -24 -33 -21 -18 -18
-17 -10 -7 -20 -30 -20 -17 -17
-17 -10 -4 -16 -27 -19 -16 -17
-16 -11 -3 -14 -26 -18 -15 -16
-14 -12 -3 -13 -25 -18 -15 -16
-13 -12 -2 -13 -25 -18 -16 -16
-11 -13 -2 -12 -24 -18 -16 -16
-10 -13 -2 -12 -24 -18 -16 -16
-9 -14 0 -11 -23 -19 -17 -17
-9 -14 2 -9 -22 -18 -17 -17
-10 -15 3 -8 -21 -18 -17 -17
-10 -15 5 -6 -21 -17 -17 -17
-10 -15 6 -5 -20 -17 -17 -17
-11 -16 7 -4 -19 -16 -17 -17
-11 -16 7 -5 -19 -16 -17 -16
-12 -16 7 -6 -18 -15 -17 -15
-12 -16 7 -6 -18 -15 -17 -15
-12 -16 7 -7 -18 -15 -17 -14
-13 -16 7 -8 -17 -14 -16 -13
-13 -16 7 -8 -18 -14 -16 -13
-12 -16 7 -8 -19 -15 -16 -13
-12 -16 7 -8 -19 -15 -16 -13
-12 -16 7 -8 -20 -15 -16 -13
-11 -17 6 -7 -21 -16 -16 -14
-11 -16 7 -7 -21 -16 -16 -14
-11 -15 8 -6 -20 -15 -16 -14
-11 -14 8 -6 -20 -14 -16 -14
-11 -13 9 -6 -20 -14 -16 -14
-10 -12 10 -5 -19 -13 -16 -13
-10 -13 10 -5 -19 -13 -16 -14
-10 -14 9 -5 -20 -14 -16 -15
-10 -14 9 -5 -20 -15 -16 -15
-10 -15 9 -5 -20 -15 -16 -16
-10 -16 8 -5 -21 -16 -17 -17
-10 -16 8 -4 -21 -16 -16 -16
-10 -16 9 -3 -20 -15 -15 -15
-10 -16 9 -3 -20 -14 -15 -15
-10 -16 9 -2 -20 -14 -14 -14
-11 -15 10 0 -19 -13 -13 -13
-10 -15 10 0 -19 -13 -13 -13
-9 -14 10 1 -19 -12 -13 -13
-8 -14 10 2 -19 -12 -13 -13
-7 -14 10 2 -19 -12 -13 -13
-6 -13 10 3 -19 -11 -13 -14
-6 -13 10 3 -19 -11 -13 -14
-6 -12 11 2 -18 -11 -12 -14
-6 -11 11 2 -18 -11 -12 -14
-6 -11 11 2 -18 -11 -12 -14
-7 -10 12 1 -17 -11 -11 -15
-7 -10 12 1 -17 -11 -11 -15
-7 -11 11 1 -17 -11 -11 -16
-7 -11 10 1 -17 -11 -11 -16
-7 -11 10 1 -17 -11 -11 -16
-7 -12 9 1 -18 -12 -12 -17
-7 -12 9 1 -18 -12 -12 -16
-7 -12 9 1 -18 -12 -12 -14
-7 -12 9 1 -18 -12 -12 -13
-7 -12 9 1 -18 -12 -12 -12
-7 -13 8 2 -17 -11 -11 -11
-7 -13 8 2 -17 -11 -11 -11
-7 -13 9 2 -16 -12 -11 -11
-7 -13 9 2 -16 -12 -11 -11
-7 -13 9 2 -16 -12 -11 -11
-6 -13 10 1 -15 -13 -11 -11
-6 -13 9 1 -15 -13 -11 -11
-5 -12 8 1 -14 -12 -12 -11
-5 -12 8 1 -14 -12 -12 -11
-5 -12 7 1 -14 -12 -12 -11
-4 -11 6 1 -13 -11 -13 -10
-4 -11 6 3 -13 -11 -13 -10
-3 -11 6 4 -13 -10 -13 -9
-3 -11 6 6 -13 -10 -13 -9
-3 -11 6 7 -13 -10 -13 -9
-2 -10 6 8 -12 -9 -13 -8
-2 -10 6 8 -12 -9 -13 -8
-2 -10 5 7 -11 -9 -13 -7
-2 -10 4 6 -10 -9 -13 -7
-2 -10 4 6 -10 -9 -13 -7
0 -9 3 5 -9 -8 -12 -6
1 -9 3 7 -8 -7 -11 -6
2 -9 3 9 -7 -6 -10 -6
3 -9 3 10 -6 -5 -10 -6
4 -9 3 12 -5 -4 -9 -6
5 -10 2 13 -4 -3 -8 -7
6 -9 2 13 -4 -3 -8 -7
7 -8 2 13 -3 -2 -7 -6
8 -7 2 13 -2 0 -7 -5
9 -6 2 13 -2 0 -7 -5
11 -5 1 12 1 1 -6 -4
13 -4 -2 14 4 2 -5 -3
15 -3 -4 15 7 4 -3 -2
17 -3 -5 17 10 5 -2 -2
19 -2 -7 18 12 6 0 0
20 0 -8 19 14 8 2 1
20 1 -8 20 16 9 3 3
21 3 -9 21 18 11 5 5
22 4 -10 21 19 13 7 6
22 5 -10 22 21 15 9 8
23 6 -11 23 22 16 10 9
23 5 -12 23 23 17 11 10
22 4 -13 24 24 19 13 11
21 4 -13 25 24 20 14 12
21 3 -14 25 25 21 15 13
21 2 -15 26 26 22 16 14
23 2 -15 26 27 23 16 14
25 3 -16 26 28 24 17 15
27 3 -17 26 29 24 18 15
30 3 -17 26 30 25 18 15
31 4 -18 25 31 26 19 16
31 6 -18 25 31 26 20 17
31 8 -18 25 32 27 21 18
31 9 -18 25 33 27 21 19
31 11 -18 25 33 27 22 20
30 12 -17 24 34 28 23 21
30 12 -17 24 34 28 23 21
30 12 -17 23 34 28 23 21
30 12 -17 23 34 28 23 21
30 12 -17 23 34 28 23 21
31 13 -17 22 33 29 23 21
29 13 -17 21 31 29 23 20
28 12 -17 20 29 28 23 19
26 12 -17 19 28 27 23 18
25 12 -17 18 26 27 23 17
24 11 -16 17 24 26 23 16
23 11 -15 16 22 24 21 16
21 11 -14 14 20 23 20 15
20 11 -13 13 18 21 18 15
19 11 -12 12 16 20 17 15
18 10 -11 11 14 18 15 14
17 8 -9 10 12 15 13 13
15 6 -7 9 10 12 11 11
14 5 -6 9 8 10 9 10
13 3 -4 8 5 7 7 9
12 2 -3 7 4 5 6 8
11 3 0 7 4 5 6 8
10 4 2 7 3 5 5 8
10 4 3 7 3 5 5 8
9 5 5 7 3 5 5 8
8 6 6 7 1 5 4 7
7 6 6 6 -2 3 2 5
5 5 7 5 -4 2 1 3
4 4 7 4 -6 1 0 2
3 4 7 3 -9 -2 -3 0
2 3 8 2 -10 -3 -4 -2
2 3 8 2 -12 -4 -4 -2
1 4 8 1 -13 -5 -5 -3
1 4 8 1 -14 -5 -6 -4
1 4 8 1 -16 -6 -6 -4
0 5 9 0 -17 -7 -7 -5
-3 4 9 0 -17 -7 -7 -5
-4 2 10 0 -16 -7 -7 -5
-5 1 11 0 -16 -7 -7 -5
-7 0 11 0 -16 -7 -7 -5
-8 -2 12 1 -15 -8 -6 -5
-9 -2 12 0 -15 -8 -6 -5
-10 -3 11 -2 -15 -9 -7 -6
-10 -3 10 -3 -15 -10 -8 -7
-11 -3 10 -4 -15 -10 -8 -7
-12 -4 9 -5 -15 -11 -9 -8
-11 -4 9 -5 -15 -11 -9 -8
-10 -4 8 -5 -15 -11 -9 -8
-10 -4 8 -5 -15 -11 -9 -8
-9 -4 8 -5 -15 -11 -9 -8
-8 -3 7 -6 -16 -10 -10 -9
-8 -3 7 -6 -15 -10 -10 -9
-9 -3 8 -5 -13 -10 -9 -9
-9 -3 9 -5 -12 -10 -8 -9
-9 -3 9 -5 -11 -10 -8 -9
-10 -3 10 -4 -10 -9 -7 -8
-10 -3 11 -4 -10 -9 -7 -8
-9 -3 12 -4 -11 -9 -7 -9
-9 -3 13 -4 -11 -9 -7 -9
-9 -3 14 -4 -11 -9 -7 -9
-8 -2 15 -3 -12 -10 -8 -10
-8 -2 15 -3 -12 -10 -8 -10
-8 0 15 -2 -11 -9 -8 -9
-8 1 15 -2 -11 -9 -8 -9
-8 1 15 -2 -11 -9 -8 -9
-8 2 14 0 -10 -8 -7 -8
-8 1 14 0 -10 -8 -7 -8
-7 0 13 0 -10 -8 -7 -8
-7 0 13 0 -10 -8 -7 -8
-7 -2 13 0 -10 -8 -7 -8
-6 -3 12 1 -10 -8 -8 -8
-8 -3 12 1 -10 -8 -7 -8
-9 -3 13 1 -10 -8 -6 -8
-10 -3 13 1 -10 -8 -6 -8
-12 -3 13 1 -10 -8 -5 -8
-13 -2 14 2 -9 -8 -4 -7
-13 -2 14 3 -9 -8 -4 -7
-12 -2 14 4 -8 -8 -4 -7
-12 -2 14 4 -8 -8 -4 -7
-12 -2 14 5 -8 -8 -4 -7
-11 -2 15 6 -7 -7 -5 -6
-11 0 15 6 -7 -7 -5 -6
-10 1 14 5 -7 -8 -6 -7
-9 1 13 4 -7 -8 -6 -8
-9 2 13 4 -7 -8 -6 -8
-8 3 12 3 -8 -9 -7 -9
-8 3 12 4 -7 -9 -7 -9
-7 2 13 6 -6 -8 -7 -9
-6 2 13 7 -5 -8 -7 -9
-6 2 13 8 -4 -8 -7 -9
-5 1 14 9 -3 -7 -6 -9
-5 1 14 9 -3 -7 -6 -9
-5 1 14 9 -3 -7 -5 -9
-5 1 14 9 -3 -7 -5 -9
-5 1 14 9 -3 -7 -5 -9
-5 1 14 8 -4 -7 -4 -8
-5 1 14 8 -4 -7 -4 -8
-6 2 14 9 -3 -6 -4 -8
-6 2 14 9 -3 -6 -4 -8
-6 2 14 9 -3 -6 -4 -8
-7 3 14 10 -2 -5 -3 -7
-7 3 14 10 -2 -5 -3 -7
-7 3 14 9 -2 -5 -3 -6
-7 3 14 9 -2 -5 -3 -6
-7 3 14 9 -2 -5 -3 -6
-7 3 14 8 -2 -6 -3 -5
-7 3 14 8 -2 -6 -3 -5
-7 3 14 8 -2 -6 -3 -5
-7 2 14 8 -2 -6 -3 -5
-7 2 14 8 -2 -6 -3 -5
-6 1 13 7 -3 -6 -4 -6
-6 2 12 6 -3 -6 -4 -6
-6 2 11 6 -4 -6 -5 -6
-6 3 9 5 -5 -6 -6 -6
-6 4 8 4 -5 -6 -6 -6
-5 4 7 3 -6 -7 -7 -7
-6 1 9 3 -6 -7 -7 -7
-6 -2 10 3 -6 -7 -7 -7
-7 -5 11 3 -7 -7 -6 -7
-8 -8 13 3 -7 -7 -6 -7
-9 -10 14 3 -8 -6 -5 -6
-9 -8 14 3 -8 -6 -5 -6
-9 -6 14 2 -8 -6 -5 -6
-9 -4 13 1 -8 -6 -5 -6
-9 -2 13 1 -8 -6 -5 -6
-8 1 12 0 -8 -7 -4 -5
-8 1 12 0 -8 -7 -4 -5
-8 0 12 0 -9 -7 -4 -5
-8 -2 11 -2 -10 -7 -4 -5
-8 -2 11 -2 -10 -7 -4 -5
-8 -3 10 -3 -11 -7 -3 -5
-8 -3 10 -3 -11 -7 -3 -5
-8 -3 11 -3 -11 -7 -3 -5
-8 -3 12 -3 -11 -7 -3 -5
-8 -3 12 -3 -11 -7 -3 -5
-9 -4 13 -3 -10 -7 -3 -4
-9 -4 12 -3 -10 -7 -3 -4
-9 -4 11 -3 -10 -7 -3 -4
-10 -4 10 -3 -10 -7 -3 -5
-10 -4 9 -3 -10 -7 -3 -5
-11 -4 8 -4 -10 -7 -4 -6
-10 -4 8 -4 -10 -7 -4 -6
-9 -3 8 -4 -10 -7 -4 -6
-8 -2 8 -5 -10 -7 -3 -6
-7 -2 8 -5 -10 -7 -3 -6
-6 0 8 -6 -10 -7 -2 -6
-7 -2 8 -6 -10 -7 -2 -6
-8 -3 8 -6 -10 -7 -2 -6
-10 -5 8 -6 -10 -7 -3 -7
-11 -6 8 -6 -10 -7 -3 -7
-12 -7 9 -7 -11 -8 -4 -8
-11 -6 9 -7 -11 -8 -4 -8
-11 -5 9 -7 -11 -8 -4 -7
-10 -4 9 -7 -11 -8 -4 -6
-9 -3 9 -7 -11 -8 -4 -6
-8 -2 8 -8 -11 -7 -3 -5
-8 -2 8 -8 -11 -7 -3 -5
-8 -2 8 -8 -11 -7 -3 -5
-8 -3 8 -8 -11 -7 -3 -5
-8 -3 8 -8 -11 -7 -3 -5
-9 -4 7 -8 -12 -8 -4 -6
-9 -4 7 -8 -12 -8 -4 -6
-9 -4 7 -9 -13 -8 -4 -6
-10 -5 7 -10 -14 -8 -4 -6
-10 -5 7 -10 -14 -8 -4 -6
-11 -6 7 -11 -15 -8 -5 -7
-11 -6 7 -10 -14 -8 -5 -7
-11 -6 8 -10 -14 -8 -4 -7
-12 -6 9 -9 -13 -7 -3 -7
-12 -6 9 -8 -12 -7 -3 -7
-13 -5 10 -7 -11 -6 -2 -6
-13 -3 12 -6 -10 -5 -2 -5
-13 0 13 -5 -9 -4 -2 -4
-12 2 14 -4 -7 -2 0 -3
-12 4 16 -3 -6 0 0 -2
-11 5 17 -2 -5 1 1 0
-10 6 17 -2 -5 1 1 -2
-10 6 17 -2 -5 1 1 -2
-9 7 17 -2 -5 1 1 -3
-8 8 17 -2 -5 1 1 -4
-7 9 17 0 -5 0 1 -5
-7 9 18 0 -5 0 1 -5
-7 9 18 0 -5 0 2 -5
-7 9 19 0 -5 1 3 -5
-7 9 20 0 -5 1 3 -5
-8 8 21 1 -6 2 4 -5
-8 10 21 1 -6 2 4 -4
-8 11 21 1 -5 2 5 -3
-8 13 21 1 -4 2 6 -2
-8 15 21 1 -4 2 6 0
-8 16 21 2 -3 3 7 1
-7 19 21 2 -3 4 7 1
-7 21 21 2 -2 4 8 2
-6 23 20 3 0 5 9 3
-5 25 20 3 0 6 9 3
-4 27 19 4 1 7 10 4
-4 27 19 4 1 7 11 5
-3 27 18 4 1 8 12 6
-2 27 17 4 2 9 13 8
-2 27 17 4 2 9 14 9
0 28 16 5 3 10 15 10
0 28 15 5 3 10 15 10
1 28 15 5 3 10 15 10
2 27 14 5 3 10 15 9
2 27 13 5 3 10 15 9
3 26 12 5 2 10 16 8
3 25 11 5 2 10 16 8
3 24 11 5 2 10 16 8
2 22 10 5 3 10 15 8
2 21 9 5 3 10 15 8
1 19 8 6 4 10 14 8
1 17 8 5 3 8 13 6
1 14 8 4 2 6 11 4
1 12 9 3 0 4 10 2
1 9 9 2 -2 3 8 1
0 6 10 1 -3 1 7 -2
-3 4 10 0 -4 0 6 -4
-5 1 10 -3 -5 -2 4 -5
-7 -3 10 -4 -7 -4 3 -7
-9 -6 10 -6 -8 -5 1 -9
-11 -8 10 -7 -9 -6 0 -10
-11 -9 9 -8 -10 -7 -2 -10
-11 -10 9 -8 -11 -7 -4 -11
-12 -11 8 -9 -12 -8 -5 -12
-12 -12 7 -10 -13 -9 -7 -12
-13 -13 6 -11 -14 -10 -8 -13
-13 -13 6 -11 -15 -10 -8 -13
-13 -13 5 -12 -15 -11 -8 -13
-13 -13 4 -13 -16 -12 -8 -13
-13 -13 4 -13 -17 -12 -8 -13
-12 -12 3 -14 -18 -13 -9 -14
-12 -13 3 -14 -18 -13 -9 -14
-12 -14 3 -14 -18 -13 -9 -14
-13 -15 3 -14 -18 -13 -9 -14
-13 -16 3 -14 -18 -13 -9 -14
-14 -17 3 -14 -17 -14 -9 -13
-14 -17 3 -14 -17 -14 -9 -13
-15 -17 3 -14 -17 -14 -8 -13
-16 -17 3 -14 -17 -13 -7 -13
-16 -17 3 -14 -17 -13 -7 -13
-17 -17 4 -13 -16 -12 -6 -14
-17 -17 4 -13 -16 -12 -7 -14
-17 -17 5 -13 -16 -13 -7 -14
-17 -18 6 -13 -16 -14 -8 -15
-17 -18 6 -13 -16 -14 -9 -15
-17 -19 7 -14 -17 -15 -10 -16
-17 -20 8 -14 -17 -15 -10 -16
-17 -20 10 -14 -17 -15 -10 -16
-17 -21 11 -13 -17 -15 -10 -16
-17 -22 13 -13 -17 -15 -10 -16
-18 -23 14 -12 -16 -15 -10 -16
-19 -20 16 -12 -16 -15 -10 -16
-21 -18 17 -11 -17 -15 -10 -16
-22 -16 19 -10 -18 -15 -10 -16
-24 -14 21 -10 -18 -15 -10 -16
-23 -11 22 -6 -16 -13 -9 -14
-15 -7 22 4 -5 -5 -5 -9
-7 -3 22 14 6 4 0 -4
1 1 21 23 16 13 5 2
9 5 21 33 26 21 9 7
20 14 17 43 43 37 21 17
38 31 6 53 69 65 47 36
57 49 -5 62 95 93 72 55
75 67 -15 72 121 120 98 74
94 85 -25 81 147 148 123 93
108 102 -35 88 171 174 147 111
116 120 -44 84 188 197 168 129
125 138 -52 79 206 222 188 146
133 156 -60 76 224 245 209 163
141 174 -68 72 242 269 229 182
142 180 -73 65 248 277 235 187
126 161 -70 54 233 255 213 168
109 142 -66 43 218 232 191 148
93 123 -62 30 203 211 169 129
76 105 -59 19 188 188 147 109
59 87 -56 3 161 160 123 90
42 69 -55 -20 115 122 96 70
23 52 -54 -43 68 85 69 51
6 34 -52 -66 22 46 42 30
-12 16 -51 -89 -25 8 14 11
-25 3 -49 -102 -55 -18 -5 -4
-27 -3 -44 -95 -55 -22 -9 -8
-30 -9 -39 -88 -55 -26 -14 -12
-33 -15 -34 -81 -55 -30 -18 -16
-36 -21 -29 -74 -55 -34 -23 -20
-37 -25 -26 -67 -55 -37 -26 -23
-34 -25 -23 -59 -51 -35 -25 -23
-31 -25 -20 -52 -46 -32 -24 -22
-28 -25 -18 -44 -41 -30 -23 -21
-25 -25 -15 -35 -36 -28 -22 -21
-23 -25 -13 -30 -33 -26 -21 -20
-23 -24 -10 -27 -31 -25 -20 -20
-23 -24 -8 -25 -29 -24 -19 -20
-22 -23 -5 -22 -27 -22 -18 -19
-22 -22 -3 -20 -26 -21 -17 -19
-21 -21 0 -18 -24 -20 -16 -18
-21 -21 0 -18 -24 -20 -16 -18
-21 -21 0 -17 -24 -20 -16 -19
-20 -21 1 -16 -24 -20 -16 -20
-20 -21 1 -16 -24 -20 -16 -20
-19 -21 2 -15 -23 -20 -16 -21
-18 -21 2 -14 -22 -20 -16 -20
-17 -21 3 -13 -22 -19 -16 -20
-16 -21 4 -12 -21 -18 -15 -19
-15 -21 4 -11 -20 -18 -15 -18
-14 -22 5 -10 -19 -17 -14 -17
-14 -22 5 -10 -19 -17 -15 -17
-14 -22 5 -10 -19 -17 -15 -18
-14 -22 6 -10 -19 -18 -16 -19
-14 -22 6 -10 -19 -18 -17 -19
-13 -22 7 -10 -20 -19 -18 -20
-13 -22 7 -10 -20 -19 -18 -20
-13 -22 7 -10 -20 -18 -18 -19
-14 -22 7 -9 -20 -17 -18 -18
-14 -22 7 -9 -20 -17 -18 -18
-15 -23 6 -8 -19 -16 -17 -17
-15 -23 6 -8 -19 -16 -17 -17
-15 -23 6 -9 -19 -16 -17 -17
-15 -23 6 -9 -20 -17 -17 -16
-15 -23 6 -10 -20 -17 -17 -16
-16 -22 6 -11 -21 -18 -16 -15
-15 -22 6 -11 -20 -18 -16 -15
-14 -22 6 -10 -19 -17 -16 -15
-13 -21 6 -10 -18 -17 -16 -15
-12 -21 6 -9 -17 -16 -16 -15
-11 -20 7 -8 -16 -15 -17 -16
-12 -20 7 -8 -16 -15 -17 -16
-13 -20 7 -8 -16 -15 -17 -16
-14 -21 7 -7 -16 -15 -16 -16
-15 -21 7 -7 -16 -15 -16 -16
-16 -22 6 -6 -17 -15 -15 -16
-16 -22 6 -6 -17 -15 -15 -16
-16 -22 6 -6 -17 -15 -15 -17
-16 -21 5 -6 -17 -15 -15 -17
-16 -21 5 -6 -17 -15 -15 -18
-16 -20 4 -6 -17 -15 -15 -19
-16 -20 4 -6 -17 -15 -15 -19
-15 -20 4 -6 -17 -15 -15 -18
-15 -19 4 -6 -17 -14 -14 -18
-14 -19 4 -6 -17 -14 -14 -17
-13 -18 5 -5 -18 -13 -13 -16
-13 -18 5 -5 -18 -13 -13 -16
-13 -18 5 -5 -18 -13 -13 -15
-13 -18 5 -5 -17 -12 -13 -15
-13 -18 5 -5 -17 -12 -13 -14
-14 -17 5 -4 -16 -11 -12 -13
-14 -17 5 -4 -16 -11 -12 -13
-14 -17 5 -4 -16 -11 -12 -13
-13 -17 5 -4 -16 -12 -12 -13
-13 -17 5 -4 -16 -12 -12 -13
-12 -17 4 -5 -15 -13 -13 -14
-11 -17 4 -5 -14 -12 -13 -14
-10 -17 4 -4 -13 -11 -13 -13
-9 -17 5 -4 -12 -10 -13 -13
-8 -17 5 -3 -11 -9 -13 -12
-7 -17 6 -2 -10 -8 -13 -11
-7 -17 5 -2 -10 -9 -13 -11
-8 -17 5 -2 -11 -10 -13 -11
-8 -17 4 -2 -11 -11 -13 -11
-9 -17 3 -2 -12 -13 -13 -11
-10 -17 2 -2 -13 -14 -13 -11
-10 -17 2 -2 -12 -13 -13 -11
-10 -17 2 -2 -11 -12 -13 -11
-9 -17 1 -2 -10 -11 -13 -10
-9 -17 1 -2 -8 -9 -13 -10
-8 -17 0 -2 -7 -8 -13 -9
-8 -17 0 -2 -7 -8 -13 -9
-8 -17 0 0 -7 -8 -13 -9
-7 -17 0 0 -7 -8 -13 -9
-7 -17 0 1 -7 -8 -13 -9
-6 -16 0 2 -6 -9 -13 -9
-6 -15 -3 2 -5 -8 -13 -9
-6 -14 -4 3 -4 -7 -13 -8
-6 -13 -6 3 -3 -6 -12 -8
-6 -11 -7 4 0 -4 -12 -7
-6 -10 -9 5 1 -3 -11 -6
-5 -11 -9 6 2 -3 -10 -5
-5 -12 -9 8 4 -3 -9 -5
-4 -13 -9 9 5 -2 -8 -4
-3 -14 -9 10 6 -2 -6 -3
-2 -15 -9 12 8 0 -5 -2
3 -13 -9 13 9 2 -3 0
6 -11 -10 14 10 4 -2 1
10 -10 -10 15 11 5 1 2
13 -8 -11 16 13 7 2 3
16 -6 -12 17 14 9 4 4
17 -4 -13 17 15 9 5 4
18 0 -14 17 16 10 5 5
19 2 -15 18 17 10 6 5
20 4 -16 18 19 11 7 6
21 6 -17 19 20 12 8 7
21 6 -17 19 22 14 9 9
21 6 -18 19 23 15 10 11
21 6 -18 20 25 17 11 13
21 6 -19 20 26 18 13 15
20 6 -20 21 28 20 14 17
21 6 -20 21 28 20 14 17
22 6 -21 21 28 20 14 17
23 6 -21 20 28 20 14 17
24 6 -22 20 28 20 14 17
25 7 -23 19 27 20 15 18
26 8 -24 19 27 20 15 18
26 9 -25 19 27 20 15 18
27 10 -26 18 27 20 16 19
28 11 -28 18 27 20 16 19
29 12 -29 17 28 21 17 20
28 13 -28 17 28 21 17 20
28 14 -27 17 28 21 17 20
27 15 -26 17 28 22 17 21
26 17 -25 17 28 22 17 21
25 18 -24 18 27 23 18 22
25 18 -24 17 27 23 18 22
25 18 -24 16 27 23 18 22
25 18 -24 15 26 22 18 21
25 18 -24 13 26 22 18 21
25 17 -24 12 25 21 17 20
24 16 -22 12 22 19 15 19
23 16 -21 11 20 17 14 19
22 15 -19 11 18 16 12 18
21 14 -18 10 15 14 11 17
20 13 -16 9 13 12 9 16
19 13 -15 9 13 12 8 16
18 12 -14 9 13 11 7 15
17 12 -13 9 12 11 6 14
15 11 -11 9 12 10 4 13
14 10 -10 8 11 9 3 12
12 9 -9 8 10 8 2 11
10 8 -8 8 9 6 0 10
9 7 -7 8 8 4 -3 9
7 6 -6 8 7 3 -4 8
5 5 -5 7 6 1 -6 7
4 4 -5 7 5 0 -7 5
2 2 -5 6 4 -2 -9 3
1 0 -5 6 3 -3 -10 2
0 -2 -5 5 2 -4 -11 0
-3 -4 -4 4 1 -5 -13 -3
-4 -4 -4 4 1 -5 -13 -3
-5 -4 -3 4 0 -6 -14 -4
-6 -4 -3 3 -2 -6 -15 -5
-7 -4 -2 3 -3 -7 -16 -6
-8 -3 0 2 -4 -8 -17 -7
-8 -3 0 2 -4 -8 -17 -7
-8 -4 1 2 -4 -8 -16 -7
-9 -5 1 2 -4 -8 -15 -7
-9 -6 2 2 -4 -8 -14 -7
-10 -7 3 2 -4 -8 -13 -6
-10 -7 3 2 -4 -8 -14 -6
-10 -7 3 2 -4 -9 -15 -6
-9 -7 3 2 -4 -9 -16 -7
-9 -7 3 2 -4 -10 -18 -7
-8 -7 3 2 -5 -11 -19 -8
-8 -7 3 2 -5 -11 -19 -8
-8 -7 3 1 -5 -11 -19 -8
-7 -6 3 1 -5 -11 -19 -9
-7 -6 3 0 -5 -11 -19 -9
-6 -5 2 -2 -6 -12 -19 -10
-6 -5 2 -2 -6 -12 -19 -10
-7 -6 2 0 -6 -12 -19 -10
-8 -6 2 0 -6 -12 -20 -11
-9 -7 2 1 -6 -12 -20 -11
-10 -8 3 2 -6 -12 -21 -12
-10 -8 3 2 -6 -12 -21 -12
-9 -8 3 2 -6 -11 -21 -12
-9 -8 3 2 -6 -11 -21 -12
-8 -8 3 2 -6 -10 -21 -12
-7 -7 4 1 -7 -9 -20 -11
-7 -7 4 1 -7 -10 -20 -11
-7 -7 4 1 -7 -11 -20 -11
-7 -7 3 1 -7 -12 -21 -11
-7 -7 3 1 -7 -13 -21 -11
-7 -6 2 1 -7 -14 -22 -12
-7 -6 2 1 -7 -14 -22 -12
-7 -5 2 2 -6 -14 -22 -12
-7 -5 2 3 -5 -13 -21 -12
-7 -4 2 4 -4 -13 -21 -12
-7 -3 3 5 -3 -12 -20 -13
-7 -3 3 5 -3 -12 -20 -13
-7 -3 4 5 -3 -12 -19 -12
-7 -3 4 5 -3 -11 -19 -12
-7 -3 5 5 -3 -11 -18 -11
-7 -4 6 6 -2 -10 -17 -10
-7 -4 6 6 -2 -10 -17 -10
-7 -4 6 7 -2 -10 -17 -10
-8 -4 6 8 0 -10 -17 -10
-8 -4 6 9 0 -10 -17 -10
-9 -3 6 10 1 -9 -16 -9
-9 -3 7 10 1 -9 -16 -9
-8 -3 8 11 1 -9 -16 -9
-7 -4 9 11 1 -9 -16 -10
-6 -4 11 12 1 -9 -16 -10
-5 -5 12 13 0 -10 -17 -11
-5 -5 12 13 0 -10 -17 -11
-5 -4 12 13 1 -10 -16 -11
-6 -3 11 13 2 -10 -15 -10
-6 -2 11 13 3 -10 -14 -10
-7 0 10 13 4 -9 -13 -9
-7 0 10 13 4 -9 -13 -9
-7 -2 11 13 4 -8 -13 -9
-7 -2 12 13 4 -8 -12 -8
-7 -3 13 13 4 -7 -12 -8
-6 -4 14 13 3 -6 -11 -7
-6 -3 14 13 3 -6 -11 -7
-6 0 14 13 3 -6 -11 -7
-5 2 14 13 3 -6 -11 -7
-5 3 14 13 3 -6 -11 -7
-4 5 15 14 2 -7 -12 -8
-4 4 15 14 2 -7 -12 -8
-4 3 15 14 2 -7 -12 -8
-4 2 15 13 2 -7 -12 -8
-4 1 15 13 2 -7 -12 -8
-5 0 15 12 2 -7 -12 -8
-5 0 15 12 2 -7 -12 -8
-5 0 15 12 2 -7 -12 -8
-5 0 16 12 2 -7 -11 -8
-5 0 16 12 2 -7 -11 -8
-5 0 17 12 3 -6 -10 -7
-5 0 17 12 3 -6 -10 -7
-5 0 17 12 2 -6 -10 -7
-5 0 18 12 2 -6 -10 -7
-5 0 18 12 1 -6 -10 -7
-4 1 19 11 0 -6 -11 -8
-4 1 19 10 0 -6 -11 -8
-4 1 19 9 -2 -6 -11 -8
-4 1 18 8 -2 -6 -11 -8
-4 1 18 7 -3 -6 -11 -8
-4 1 17 6 -4 -7 -12 -8
-4 1 17 6 -4 -7 -12 -8
-4 1 18 6 -4 -7 -12 -8
-4 1 18 6 -4 -8 -12 -8
-4 1 19 6 -4 -8 -12 -8
-4 0 20 5 -4 -9 -13 -9
-4 0 20 5 -4 -9 -13 -9
-4 -2 19 5 -4 -9 -13 -10
-4 -3 19 4 -5 -9 -13 -10
-4 -4 18 4 -5 -9 -13 -11
-5 -5 17 3 -6 -9 -12 -12
-5 -4 17 3 -6 -9 -12 -12
-5 -2 16 3 -6 -9 -12 -12
-4 1 16 3 -6 -9 -12 -12
-4 2 15 3 -6 -9 -12 -12
-3 4 14 2 -7 -9 -11 -11
-3 3 14 2 -7 -9 -11 -11
-4 1 14 1 -7 -9 -11 -11
-4 -2 15 1 -7 -8 -11 -11
-5 -3 15 0 -7 -8 -11 -11
-6 -5 16 -2 -7 -7 -12 -10
-6 -5 16 -2 -7 -7 -12 -10
-6 -4 16 -2 -7 -7 -11 -10
-6 -3 16 -2 -7 -8 -11 -10
-6 -2 16 -2 -7 -8 -10 -10
-6 0 15 -3 -8 -9 -9 -10
-6 0 15 -3 -8 -9 -9 -10
-6 -2 15 -3 -8 -9 -9 -10
-6 -3 15 -3 -8 -9 -9 -10
-6 -4 15 -3 -8 -9 -9 -10
-5 -5 16 -2 -7 -8 -8 -11
-5 -5 16 -2 -7 -8 -8 -11
-5 -5 16 -2 -7 -8 -8 -11
-5 -5 16 -3 -7 -8 -7 -11
-5 -5 16 -3 -7 -8 -7 -11
-6 -6 16 -4 -7 -9 -6 -10
-6 -6 16 -4 -7 -9 -6 -10
-7 -6 16 -4 -7 -9 -6 -10
-7 -6 15 -4 -7 -8 -6 -10
-8 -6 15 -4 -7 -8 -6 -10
-9 -6 14 -3 -7 -7 -5 -9
-9 -6 14 -3 -7 -7 -5 -9
-9 -6 14 -3 -7 -7 -5 -9
-9 -6 14 -3 -7 -7 -5 -9
-9 -6 14 -3 -7 -7 -5 -9
-8 -6 14 -3 -7 -8 -6 -10
-8 -4 15 -3 -6 -7 -5 -9
-7 0 16 -2 -5 -6 -3 -8
-7 2 17 0 -3 -5 0 -6
-6 4 18 1 -2 -4 1 -5
-5 7 20 2 1 -2 3 -3
-5 7 20 3 1 -2 3 -3
-5 7 21 4 1 0 3 -3
-5 7 22 5 1 0 3 -3
-5 7 23 6 1 1 3 -3
-4 7 24 8 2 2 3 -3
-4 7 24 8 2 2 3 -3
-5 7 23 8 2 2 3 -3
-5 7 22 8 2 2 2 -2
-6 7 21 8 2 2 2 -2
-7 6 20 8 2 2 1 0
-7 7 21 8 2 2 2 0
-7 8 22 8 2 3 3 0
-7 9 23 8 2 3 5 0
-7 10 24 8 2 4 6 0
-6 12 26 8 3 5 8 0
-5 15 26 8 4 6 9 2
-4 18 26 9 5 8 11 4
-3 21 25 10 6 9 12 6
-2 24 25 11 7 11 14 8
0 27 24 12 8 13 16 10
1 28 23 12 8 13 16 10
2 29 22 11 8 13 15 10
3 30 21 11 8 12 15 10
4 31 20 10 8 12 14 10
6 33 18 9 7 11 13 11
6 32 17 9 7 11 13 11
7 30 16 9 7 11 12 10
7 29 15 9 7 11 11 10
8 27 14 9 7 11 10 9
9 25 13 10 8 11 9 8
9 25 13 10 8 11 9 8
9 24 12 10 8 11 9 8
10 24 12 10 7 11 9 8
10 23 11 10 7 11 9 8
11 22 10 9 6 10 8 8
9 19 10 9 6 10 8 7
7 15 10 9 5 9 7 6
5 11 9 8 5 8 6 5
3 8 9 8 4 7 5 4
1 4 8 7 3 6 4 2
0 1 8 5 1 4 2 0
-2 -3 8 3 -2 1 0 -3
-4 -6 7 1 -4 -2 -3 -5
-5 -9 7 -2 -6 -4 -5 -7
-7 -12 6 -5 -9 -7 -8 -10
-8 -12 6 -5 -9 -7 -8 -10
-9 -12 6 -5 -9 -7 -8 -10
-10 -13 7 -5 -9 -7 -9 -10
-11 -13 7 -5 -9 -7 -9 -10
-13 -14 8 -6 -8 -7 -10 -10
-13 -14 7 -6 -9 -8 -10 -10
-13 -14 6 -7 -10 -9 -10 -11
-13 -15 5 -7 -12 -10 -11 -12
-13 -15 4 -8 -13 -11 -11 -13
-12 -16 3 -9 -15 -13 -12 -14
-12 -16 3 -9 -15 -13 -12 -14
-12 -16 3 -9 -15 -13 -12 -14
-12 -17 3 -9 -15 -13 -12 -14
-12 -17 3 -9 -15 -13 -12 -14
-11 -18 3 -10 -14 -13 -12 -13
-11 -18 3 -10 -14 -13 -12 -13
-12 -18 4 -10 -13 -12 -12 -13
-12 -18 4 -10 -12 -11 -12 -13
-13 -18 5 -10 -11 -10 -12 -13
-14 -18 6 -9 -10 -9 -11 -12
-13 -18 6 -9 -10 -9 -11 -12
-12 -18 6 -9 -10 -9 -11 -12
-11 -18 5 -9 -10 -9 -11 -12
-10 -18 5 -9 -10 -9 -11 -12
-9 -17 4 -8 -11 -9 -12 -13
-10 -17 5 -8 -11 -9 -12 -13
-11 -17 6 -8 -11 -9 -12 -13
-13 -18 7 -7 -11 -9 -12 -13
-14 -18 8 -7 -11 -9 -12 -13
-16 -19 10 -6 -10 -9 -11 -12
-16 -17 12 -6 -11 -9 -11 -12
-17 -15 14 -6 -12 -10 -12 -12
-17 -13 16 -5 -13 -11 -12 -13
-18 -11 18 -5 -14 -12 -13 -13
-19 -8 20 -4 -15 -13 -14 -14
-14 -7 19 4 -7 -9 -11 -10
-9 -6 18 11 2 -4 -8 -6
-4 -5 17 19 10 2 -5 -2
3 -4 16 26 18 6 -2 4
9 -3 15 33 27 12 4 8
26 15 6 44 51 38 26 25
45 32 -4 55 74 65 49 43
63 49 -12 65 98 92 71 59
81 66 -21 76 121 118 94 76
99 82 -30 87 144 145 116 93
110 102 -37 86 163 170 138 112
122 121 -46 85 182 194 160 132
134 141 -54 84 201 219 183 150
146 160 -61 82 220 244 205 170
157 179 -69 80 238 268 227 188
142 163 -68 72 228 252 209 172
126 148 -67 64 217 235 191 156
110 133 -66 56 206 219 174 140
95 118 -65 48 195 202 156 123
79 103 -64 38 184 185 138 108
58 82 -61 12 139 147 110 88
36 63 -58 -15 94 108 82 67
16 43 -55 -41 49 70 55 47
-6 23 -52 -68 4 32 27 26
-26 4 -49 -95 -40 -5 1 6
-27 -3 -46 -90 -45 -11 -6 1
-28 -8 -41 -85 -49 -17 -12 -6
-29 -14 -38 -79 -53 -23 -18 -11
-30 -20 -34 -74 -57 -29 -24 -16
-32 -26 -30 -69 -62 -35 -30 -22
-31 -26 -27 -62 -57 -33 -29 -21
-29 -25 -24 -56 -52 -30 -28 -20
-27 -25 -20 -49 -46 -28 -26 -19
-25 -24 -17 -41 -40 -25 -25 -18
-23 -23 -13 -34 -34 -22 -23 -16
-22 -23 -12 -31 -33 -22 -23 -16
-21 -23 -11 -27 -31 -22 -23 -16
-20 -23 -9 -23 -29 -22 -22 -15
-19 -23 -8 -19 -27 -22 -22 -15
-18 -22 -6 -15 -25 -21 -21 -14
-18 -22 -6 -15 -25 -21 -21 -15
-18 -23 -6 -15 -25 -21 -21 -16
-19 -23 -6 -14 -24 -21 -22 -18
-19 -24 -6 -14 -24 -21 -22 -19
-20 -25 -5 -13 -23 -20 -23 -21
-20 -25 -5 -13 -23 -20 -22 -20
-19 -25 -5 -12 -22 -20 -21 -19
-19 -25 -5 -12 -21 -19 -19 -18
-18 -25 -5 -11 -20 -19 -18 -17
-17 -25 -4 -10 -19 -18 -16 -16
-17 -25 -4 -10 -19 -18 -16 -15
-17 -24 -3 -10 -19 -17 -16 -14
-17 -24 -2 -10 -19 -17 -16 -13
-17 -23 0 -10 -19 -16 -16 -12
-16 -22 1 -10 -19 -15 -17 -10
-15 -22 1 -10 -19 -15 -17 -10
-14 -22 1 -10 -19 -15 -17 -11
-13 -23 1 -9 -18 -15 -17 -12
-12 -23 1 -9 -18 -15 -17 -13
-10 -24 1 -8 -17 -16 -18 -14
-10 -24 1 -8 -17 -16 -18 -14
-11 -23 1 -8 -17 -16 -19 -14
-11 -23 1 -8 -16 -15 -20 -14
-12 -22 1 -8 -16 -15 -21 -14
-13 -21 2 -9 -15 -14 -22 -15
-13 -21 2 -9 -15 -14 -21 -15
-13 -21 2 -9 -16 -14 -20 -15
-13 -21 2 -8 -16 -13 -19 -14
-13 -21 2 -8 -17 -13 -18 -14
-13 -21 1 -7 -18 -12 -16 -13
-13 -21 1 -7 -18 -12 -16 -13
-14 -22 1 -7 -18 -12 -16 -13
-15 -22 1 -7 -17 -12 -17 -13
-16 -23 1 -7 -17 -12 -17 -13
-17 -24 2 -7 -16 -13 -18 -12
-17 -24 2 -7 -16 -13 -18 -12
-17 -24 2 -7 -16 -13 -18 -12
-17 -24 1 -7 -16 -12 -18 -13
-17 -24 1 -7 -16 -12 -18 -13
-17 -24 1 -7 -16 -12 -18 -13
-16 -23 0 -6 -15 -11 -17 -14
-15 -23 0 -6 -15 -11 -16 -14
-15 -22 0 -7 -15 -11 -16 -13
-14 -22 0 -7 -15 -11 -15 -13
-14 -22 0 -7 -15 -11 -15 -13
-13 -21 0 -8 -15 -11 -14 -12
-12 -20 0 -7 -14 -11 -14 -12
-12 -19 -2 -7 -14 -11 -13 -12
-11 -18 -2 -6 -13 -11 -13 -12
-11 -17 -2 -6 -13 -11 -13 -12
-10 -16 -3 -5 -12 -10 -12 -11
-10 -17 -3 -5 -12 -10 -13 -11
-10 -18 -3 -5 -13 -11 -13 -11
-10 -19 -3 -5 -13 -11 -14 -11
-10 -19 -3 -5 -13 -11 -14 -11
-11 -20 -3 -5 -14 -12 -15 -12
-11 -19 -4 -5 -14 -12 -15 -12
-10 -19 -4 -6 -14 -12 -14 -11
-10 -18 -5 -6 -14 -12 -14 -11
-10 -18 -5 -6 -14 -12 -14 -11
-9 -17 -6 -7 -14 -11 -13 -10
-9 -17 -6 -6 -14 -11 -13 -9
-9 -17 -6 -6 -14 -11 -13 -9
-9 -17 -6 -5 -14 -11 -13 -8
-9 -17 -6 -5 -14 -11 -13 -8
-8 -17 -7 -4 -14 -10 -14 -7
-7 -17 -8 -4 -13 -10 -14 -7
-6 -17 -8 -4 -12 -10 -14 -7
-5 -17 -9 -4 -11 -10 -14 -7
-5 -17 -9 -4 -11 -10 -14 -7
-4 -16 -10 -3 -10 -8 -13 -7
-3 -15 -9 -2 -9 -7 -12 -6
-2 -14 -8 0 -8 -6 -11 -5
0 -13 -7 1 -7 -5 -10 -4
0 -12 -7 2 -7 -4 -9 -4
1 -11 -7 3 -6 -3 -8 -3
1 -11 -9 3 -6 -3 -8 -2
2 -11 -10 4 -5 -3 -8 0
2 -11 -12 4 -5 -3 -8 1
2 -11 -13 4 -5 -3 -8 1
4 -11 -14 5 -3 -2 -8 2
6 -11 -14 6 0 0 -8 2
7 -10 -14 7 2 1 -8 2
9 -10 -14 8 4 2 -8 2
10 -10 -14 8 5 2 -8 2
11 -8 -15 9 6 4 -6 2
11 -7 -17 9 7 6 -5 4
12 -5 -18 9 8 7 -3 5
12 -4 -20 9 9 9 -2 7
12 -3 -21 9 10 10 0 8
13 -2 -22 8 11 11 1 9
14 -2 -23 9 12 12 2 10
15 0 -24 10 13 13 3 11
16 0 -25 11 14 14 4 12
16 0 -26 11 15 14 5 12
18 1 -27 12 16 16 6 13
20 1 -28 12 17 17 7 14
21 1 -29 12 17 18 8 14
23 1 -30 12 18 19 9 15
24 1 -30 12 18 20 10 15
25 1 -31 12 19 21 11 16
25 2 -31 11 19 21 11 17
25 3 -32 11 19 21 11 17
25 4 -32 10 19 21 11 18
25 4 -32 10 19 21 11 18
24 5 -33 9 19 21 11 19
24 6 -34 9 19 21 12 20
24 7 -34 8 19 22 13 21
24 8 -35 8 19 22 14 22
24 9 -35 8 19 22 15 22
25 10 -36 7 19 23 16 23
26 10 -36 6 18 23 16 23
28 11 -36 5 18 23 15 22
29 11 -36 4 17 23 15 22
30 11 -36 4 17 23 15 22
31 12 -37 3 16 22 14 21
31 11 -36 3 16 22 14 21
30 10 -35 3 16 22 14 21
30 9 -34 3 16 22 14 21
30 9 -34 3 16 22 14 21
28 8 -32 3 15 21 13 22
26 8 -30 3 14 20 12 21
25 9 -29 2 13 19 11 21
23 9 -27 2 12 18 10 20
22 9 -26 2 11 18 9 20
20 9 -25 1 10 17 7 19
19 8 -24 1 9 16 6 18
18 6 -24 1 8 15 5 17
17 5 -23 1 7 14 4 16
16 4 -23 1 6 14 3 16
14 3 -21 0 4 11 0 14
12 2 -19 0 2 9 -3 12
10 1 -17 -2 0 6 -6 10
8 0 -15 -2 -3 4 -8 8
6 -2 -13 -2 -4 2 -10 6
5 -4 -12 -3 -5 1 -11 5
4 -5 -11 -3 -5 1 -11 5
3 -6 -11 -2 -5 0 -11 5
2 -7 -10 -2 -5 0 -11 5
2 -8 -10 -2 -5 0 -11 5
0 -9 -9 0 -6 -2 -12 3
-3 -10 -9 0 -7 -3 -13 2
-5 -10 -9 -2 -8 -4 -14 1
-7 -11 -9 -2 -9 -5 -15 0
-8 -11 -9 -2 -10 -6 -16 -2
-9 -12 -8 -3 -11 -7 -17 -3
-8 -12 -7 -3 -11 -7 -17 -3
-8 -11 -6 -3 -11 -7 -17 -3
-7 -11 -5 -3 -11 -7 -17 -3
-7 -11 -5 -3 -11 -7 -17 -3
-6 -10 -4 -2 -11 -6 -16 -2
-6 -10 -4 -2 -11 -6 -16 -2
-6 -10 -4 -2 -11 -6 -16 -2
-6 -10 -4 -2 -11 -6 -16 -2
-6 -10 -4 -2 -11 -6 -16 -2
-7 -10 -4 -3 -12 -7 -17 -3
-8 -10 -4 -3 -12 -7 -17 -3
-9 -11 -4 -4 -12 -7 -17 -4
-10 -11 -4 -4 -12 -7 -17 -4
-10 -11 -4 -4 -12 -7 -17 -4
-11 -12 -5 -5 -13 -7 -18 -5
-11 -12 -5 -5 -13 -7 -18 -5
-11 -12 -5 -5 -13 -7 -18 -6
-11 -12 -5 -5 -13 -7 -18 -6
-11 -12 -5 -5 -13 -7 -18 -6
-11 -13 -6 -5 -12 -8 -19 -7
-11 -13 -6 -5 -12 -8 -19 -7
-11 -12 -6 -5 -12 -7 -19 -7
-11 -12 -6 -5 -12 -7 -19 -7
-11 -12 -6 -5 -12 -7 -19 -7
-11 -11 -6 -4 -12 -6 -18 -6
-10 -11 -6 -4 -12 -6 -18 -6
-9 -12 -6 -4 -12 -6 -18 -6
-8 -12 -6 -4 -12 -6 -18 -6
-8 -12 -6 -4 -12 -6 -18 -6
-7 -13 -5 -5 -12 -7 -18 -5
-8 -13 -5 -4 -11 -7 -18 -5
-9 -13 -6 -3 -10 -7 -18 -5
-10 -13 -6 -2 -9 -7 -18 -5
-10 -13 -6 -2 -8 -7 -18 -5
-11 -12 -7 0 -7 -7 -18 -6
-11 -13 -7 0 -7 -7 -18 -6
-12 -13 -7 0 -8 -7 -18 -6
-12 -14 -7 0 -8 -7 -18 -6
-12 -14 -7 0 -8 -7 -18 -6
-13 -15 -7 -2 -9 -7 -17 -6
-13 -15 -7 0 -9 -7 -17 -6
-14 -15 -7 0 -9 -8 -17 -6
-14 -15 -7 1 -9 -8 -17 -6
-14 -15 -7 1 -9 -8 -17 -6
-15 -14 -6 2 -8 -9 -18 -7
-16 -15 -6 3 -8 -8 -18 -7
-16 -15 -5 4 -7 -7 -18 -7
-17 -16 -5 5 -7 -6 -18 -7
-17 -16 -5 6 -7 -6 -18 -7
-18 -16 -4 7 -6 -5 -17 -7
-17 -15 -4 7 -6 -5 -16 -7
-16 -13 -3 7 -5 -5 -16 -7
-15 -12 -3 7 -5 -5 -15 -7
-15 -11 -3 7 -5 -5 -15 -7
-14 -10 -2 8 -4 -4 -14 -6
-14 -11 -2 8 -4 -4 -14 -6
-14 -12 -2 8 -4 -4 -14 -6
-14 -13 -2 8 -4 -4 -14 -6
-14 -14 -2 8 -4 -4 -14 -6
-14 -15 -3 8 -3 -3 -14 -5
-14 -15 -3 9 -3 -3 -14 -5
-14 -15 -3 9 -3 -3 -13 -4
-14 -15 -3 10 -3 -3 -13 -4
-14 -15 -3 10 -3 -3 -13 -4
-13 -14 -2 11 -2 -3 -12 -3
-13 -13 -2 11 -2 -3 -13 -3
-13 -12 -2 10 -2 -3 -13 -4
-13 -11 -2 10 -2 -3 -14 -4
-13 -11 -2 10 -2 -3 -14 -4
-11 -10 -3 9 0 -2 -15 -5
-10 -10 -3 8 -2 -2 -15 -4
-8 -11 -3 8 -3 -2 -15 -4
-6 -11 -3 7 -4 -2 -15 -3
-5 -11 -3 7 -4 -2 -15 -3
-5 -12 -4 6 -5 -3 -14 -2
-8 -12 -3 6 -5 -3 -14 -2
-10 -11 -3 6 -4 -2 -14 -2
-12 -11 -2 6 -4 -2 -14 -2
-14 -11 -2 6 -4 -2 -14 -2
-15 -10 0 5 -3 0 -13 -3
-14 -10 -2 4 -4 -2 -14 -4
-14 -10 -2 4 -5 -3 -14 -4
-13 -10 -3 3 -6 -4 -15 -5
-13 -10 -3 3 -7 -5 -15 -5
-13 -11 -4 2 -8 -6 -16 -6
-14 -12 -4 1 -8 -6 -16 -6
-15 -12 -3 0 -9 -6 -17 -7
-17 -13 -3 -2 -9 -6 -17 -7
-18 -13 -3 -2 -9 -6 -17 -7
-18 -14 -2 -3 -10 -7 -18 -8
-16 -13 -2 -3 -10 -7 -17 -7
-14 -13 -2 -3 -10 -6 -16 -7
-12 -12 -2 -3 -10 -6 -15 -6
-10 -12 -2 -3 -10 -6 -15 -6
-9 -11 -3 -2 -9 -5 -14 -5
-9 -11 -3 -2 -9 -5 -14 -5
-9 -11 -3 -3 -9 -5 -14 -5
-9 -11 -3 -3 -9 -5 -14 -5
-9 -11 -3 -3 -9 -5 -14 -5
-10 -12 -2 -4 -10 -6 -14 -5
-10 -13 -2 -4 -10 -6 -13 -5
-11 -13 -3 -3 -10 -5 -13 -5
-11 -14 -3 -3 -10 -5 -12 -5
-11 -14 -3 -3 -10 -5 -12 -5
-12 -15 -4 -2 -9 -4 -11 -4
-12 -15 -3 -2 -9 -4 -11 -5
-13 -14 -3 -2 -9 -4 -11 -5
-13 -14 -2 -2 -9 -4 -11 -6
-13 -14 -2 -2 -9 -4 -11 -6
-14 -13 0 -2 -9 -4 -12 -7
-14 -14 0 -2 -9 -3 -11 -6
-13 -15 0 -3 -8 -3 -10 -6
-13 -16 0 -3 -8 -2 -9 -5
-13 -16 0 -3 -8 -2 -9 -5
-12 -17 -2 -4 -8 0 -8 -4
-13 -17 -2 -5 -9 -2 -8 -4
-13 -17 -3 -6 -10 -3 -9 -4
-14 -17 -3 -7 -12 -4 -9 -4
-14 -17 -3 -7 -13 -4 -9 -4
-15 -17 -4 -8 -14 -5 -10 -5
-15 -16 -4 -8 -14 -5 -10 -5
-15 -15 -4 -8 -14 -5 -10 -5
-15 -14 -4 -8 -14 -5 -10 -5
-15 -14 -4 -8 -14 -5 -10 -5
-16 -13 -4 -8 -13 -5 -10 -5
-16 -14 -3 -7 -12 -4 -9 -4
-16 -14 -2 -6 -11 -3 -9 -4
-16 -15 0 -5 -10 -2 -8 -3
-16 -15 1 -5 -10 0 -8 -3
-15 -16 2 -4 -9 1 -7 -2
-14 -15 1 -4 -9 1 -7 -2
-13 -14 1 -4 -9 0 -8 -2
-12 -13 0 -4 -9 0 -8 -2
-11 -13 0 -4 -9 0 -8 -2
-10 -12 -2 -4 -10 -2 -9 -2
-10 -11 0 -4 -9 0 -9 -2
-10 -10 0 -3 -8 0 -9 -2
-10 -9 1 -3 -7 1 -9 -2
-10 -9 1 -3 -7 1 -9 -2
-9 -8 3 -2 -6 2 -9 0
-10 -7 4 1 -6 3 -8 0
-11 -6 5 2 -5 3 -7 1
-12 -5 7 3 -5 4 -5 1
-13 -5 8 4 -5 4 -4 1
-14 -4 9 5 -4 5 -3 2
-12 -4 10 4 -4 4 -4 2
-11 -4 10 4 -5 4 -4 2
-10 -4 11 3 -5 3 -5 2
-9 -4 11 3 -5 3 -5 2
-8 -4 12 2 -6 2 -6 3
-8 -2 12 3 -5 3 -5 4
-8 1 11 4 -4 4 -4 5
-8 3 11 5 -3 5 -3 7
-8 5 11 5 -2 5 -2 8
-7 8 10 6 0 6 1 9
-5 10 11 7 1 8 3 10
-4 13 11 7 1 9 5 11
-3 15 12 8 2 10 6 12
-2 18 12 8 2 11 8 13
0 19 12 9 3 12 9 14
0 19 10 9 3 12 9 14
0 19 8 9 3 12 9 14
0 19 6 9 3 12 9 14
0 19 4 9 3 12 9 14
1 20 3 9 3 13 9 14
3 20 3 9 3 13 9 14
4 20 3 9 3 14 8 14
5 20 3 9 3 14 8 14
6 20 3 9 3 14 8 14
7 21 4 8 4 15 7 15
6 19 4 8 4 14 8 15
6 18 3 8 4 14 9 14
5 17 3 8 4 13 10 14
5 16 3 8 4 13 10 14
3 14 2 7 4 12 11 13
1 11 3 6 3 11 9 11
0 9 4 5 2 10 8 10
-3 6 5 4 1 9 7 9
-5 4 5 3 0 8 6 8
-6 1 6 2 -2 6 4 6
-7 -2 6 2 -3 4 2 3
-7 -5 6 1 -4 3 -2 1
-8 -8 6 1 -5 1 -4 -3
-8 -11 6 1 -6 -2 -6 -5
-9 -13 5 -2 -8 -3 -7 -6
-10 -15 5 -4 -9 -4 -7 -7
-11 -17 5 -5 -10 -5 -7 -7
-12 -19 5 -7 -12 -6 -7 -8
-12 -21 5 -9 -13 -7 -7 -8
-13 -22 4 -10 -14 -8 -8 -9
-13 -21 3 -10 -14 -8 -8 -9
-13 -21 3 -10 -14 -9 -9 -10
-13 -20 2 -10 -14 -9 -9 -10
-13 -20 2 -10 -14 -9 -9 -10
-13 -19 1 -10 -15 -10 -10 -11
-13 -19 2 -10 -15 -10 -10 -11
-13 -19 3 -10 -15 -10 -10 -11
-13 -19 4 -10 -15 -10 -10 -11
-13 -19 4 -10 -15 -10 -10 -11
-13 -18 5 -10 -16 -9 -11 -11
-13 -19 5 -10 -17 -10 -11 -11
-13 -19 4 -10 -17 -10 -12 -12
-13 -20 4 -10 -18 -11 -12 -12
-13 -20 4 -10 -18 -11 -12 -12
-12 -21 3 -10 -19 -12 -13 -13
-12 -22 4 -10 -19 -12 -12 -12
-13 -23 4 -10 -19 -12 -12 -12
-13 -23 5 -10 -19 -12 -11 -11
-13 -24 5 -10 -19 -12 -11 -11
-14 -25 6 -10 -18 -11 -10 -10
-15 -25 7 -9 -17 -11 -9 -10
-16 -25 8 -8 -17 -11 -9 -10
-17 -25 8 -8 -16 -11 -8 -10
-18 -25 9 -7 -16 -11 -8 -10
-20 -23 11 -6 -15 -10 -7 -9
-21 -22 14 -6 -16 -10 -7 -9
-22 -21 16 -5 -17 -10 -8 -9
-24 -19 18 -5 -17 -10 -8 -9
-25 -18 21 -5 -18 -10 -8 -9
-23 -16 22 1 -15 -9 -8 -9
-17 -15 22 7 -9 -6 -5 -8
-12 -13 22 13 -3 -3 -3 -6
-6 -12 22 19 5 1 0 -5
0 -10 22 25 11 4 3 -3
13 -2 18 35 29 22 18 10
28 10 10 48 53 47 38 26
44 21 2 59 75 72 60 43
59 32 -7 71 99 97 80 59
74 44 -15 82 121 121 101 75
89 64 -23 88 144 148 125 95
102 88 -31 90 167 176 149 116
114 111 -39 92 189 204 174 137
128 136 -48 94 212 232 199 158
141 159 -56 96 234 260 224 179
137 162 -59 89 235 263 226 180
126 157 -58 75 228 256 217 173
113 151 -57 63 220 248 209 164
102 145 -56 50 213 241 200 157
91 139 -55 37 205 234 192 150
72 121 -53 15 169 200 165 130
51 100 -51 -11 121 156 133 104
30 77 -49 -36 74 113 100 78
10 56 -47 -62 27 69 67 53
-12 34 -45 -88 -19 26 34 28
-20 21 -41 -94 -38 6 18 15
-24 11 -38 -90 -46 -4 9 6
-27 2 -34 -86 -53 -14 1 -3
-31 -8 -31 -81 -60 -24 -9 -11
-34 -18 -27 -77 -67 -34 -18 -19
-35 -21 -24 -70 -67 -37 -21 -22
-32 -22 -21 -63 -62 -35 -20 -22
-29 -22 -18 -55 -56 -34 -20 -22
-26 -23 -15 -48 -51 -32 -19 -22
-23 -23 -12 -40 -46 -31 -19 -22
-22 -24 -10 -35 -41 -29 -18 -21
-21 -23 -7 -31 -38 -28 -16 -20
-20 -22 -4 -27 -35 -26 -15 -19
-20 -22 -2 -23 -32 -25 -13 -19
-19 -21 2 -19 -29 -23 -12 -18
-18 -20 3 -17 -28 -22 -11 -17
-17 -21 4 -15 -26 -22 -11 -17
-17 -21 5 -14 -25 -21 -11 -17
-16 -22 5 -12 -24 -21 -11 -17
-16 -22 6 -11 -23 -21 -11 -17
-15 -23 7 -10 -22 -20 -10 -16
-15 -23 7 -9 -22 -20 -10 -16
-15 -23 8 -8 -22 -19 -9 -16
-15 -23 8 -8 -22 -19 -9 -16
-15 -23 8 -7 -22 -19 -9 -16
-16 -23 9 -6 -21 -18 -8 -17
-15 -23 9 -6 -21 -18 -8 -17
-14 -24 10 -6 -21 -18 -9 -17
-14 -24 10 -6 -21 -18 -9 -17
-13 -24 10 -6 -21 -18 -9 -17
-12 -25 11 -7 -20 -19 -10 -18
-12 -24 11 -7 -20 -19 -9 -17
-12 -24 11 -6 -20 -19 -8 -16
-12 -23 11 -6 -20 -19 -8 -16
-12 -23 11 -6 -20 -19 -7 -15
-12 -21 12 -5 -20 -18 -6 -14
-11 -19 13 -5 -20 -18 -6 -14
-11 -18 14 -5 -20 -17 -6 -14
-10 -16 14 -5 -20 -17 -6 -14
-10 -14 15 -5 -20 -17 -6 -14
-9 -14 16 -5 -21 -16 -5 -13
-10 -16 16 -4 -20 -16 -5 -13
-11 -18 15 -3 -19 -16 -5 -13
-11 -21 15 -2 -18 -16 -5 -13
-12 -23 15 0 -17 -16 -5 -13
-13 -24 14 1 -16 -16 -4 -14
-13 -23 14 0 -16 -16 -4 -14
-13 -23 13 -2 -17 -16 -4 -14
-13 -22 13 -2 -17 -16 -4 -14
-13 -22 13 -3 -17 -16 -4 -14
-12 -21 12 -4 -18 -16 -3 -14
-12 -20 12 -3 -18 -16 -3 -15
-12 -20 12 -3 -18 -16 -3 -15
-12 -19 12 -2 -18 -16 -3 -16
-12 -19 12 -2 -18 -16 -3 -16
-13 -18 13 0 -19 -17 -3 -17
-11 -18 13 0 -19 -17 -3 -16
-10 -18 13 0 -18 -17 -2 -16
-9 -18 13 0 -18 -17 -2 -15
-8 -18 13 0 -18 -17 -2 -15
-7 -17 12 0 -17 -16 0 -14
-7 -17 12 0 -17 -16 0 -14
-7 -17 12 0 -17 -15 0 -14
-7 -17 12 0 -17 -15 0 -14
-7 -17 12 0 -17 -15 0 -14
-8 -16 13 -2 -18 -14 1 -14
-8 -17 13 -2 -18 -14 1 -14
-8 -18 13 -2 -18 -14 1 -14
-8 -19 13 -2 -18 -14 1 -14
-8 -20 13 -2 -18 -14 1 -14
-9 -21 13 -2 -18 -15 1 -15
-8 -19 13 0 -18 -15 1 -15
-6 -18 12 1 -17 -15 1 -15
-5 -16 12 2 -17 -15 1 -15
-4 -15 12 3 -17 -15 1 -15
-3 -14 11 4 -16 -15 1 -14
-3 -14 11 4 -16 -15 1 -13
-4 -14 11 4 -15 -15 2 -12
-4 -14 11 4 -14 -15 2 -11
-4 -14 11 4 -14 -15 2 -10
-5 -15 10 3 -13 -15 3 -9
-5 -15 10 3 -13 -15 4 -9
-5 -15 9 3 -13 -15 5 -9
-5 -15 9 3 -13 -15 5 -9
-5 -15 9 3 -13 -15 6 -9
-5 -15 8 3 -12 -14 7 -8
-4 -13 8 3 -11 -14 7 -8
-3 -12 8 4 -9 -13 7 -8
-3 -10 8 4 -8 -13 7 -8
-2 -9 8 4 -7 -13 7 -8
0 -8 7 5 -6 -12 8 -8
2 -9 6 6 -5 -11 9 -7
3 -10 5 8 -3 -10 11 -6
5 -11 5 9 -2 -9 12 -6
6 -12 4 10 0 -8 13 -5
7 -13 3 11 1 -7 14 -4
7 -13 3 11 2 -7 14 -4
7 -13 2 12 4 -7 15 -3
7 -13 2 12 5 -7 16 -3
7 -13 2 12 6 -7 16 -3
8 -12 1 13 7 -5 17 -2
9 -11 1 14 8 -3 18 0
11 -10 0 15 10 0 19 2
13 -9 -2 15 11 2 19 3
15 -8 -2 16 12 5 20 4
16 -7 -3 17 14 6 22 5
17 -7 -4 17 15 7 24 6
18 -6 -5 17 17 8 26 7
19 -5 -6 17 18 8 28 7
20 -5 -7 17 20 9 30 8
21 -4 -8 18 21 10 31 9
21 -4 -9 18 21 11 32 9
22 -3 -10 19 21 13 33 10
23 -2 -10 19 21 14 34 10
23 -2 -11 19 21 15 35 10
24 0 -12 20 22 16 36 11
26 2 -13 20 23 16 36 11
28 4 -14 19 24 16 37 11
29 5 -15 19 24 16 38 11
31 7 -16 19 25 16 38 11
32 8 -17 18 26 17 39 12
31 7 -17 18 26 17 39 13
30 6 -17 19 26 18 39 14
29 6 -17 20 26 19 39 15
28 5 -17 20 26 19 39 16
27 4 -16 21 27 20 40 17
27 4 -16 20 27 20 40 17
27 5 -17 19 27 20 42 17
27 5 -17 18 27 20 42 17
27 5 -17 17 27 20 42 17
27 6 -18 16 26 19 43 17
26 6 -18 16 26 19 43 17
25 6 -17 15 25 19 43 17
25 6 -16 14 25 19 43 17
24 6 -16 14 25 19 43 17
23 5 -15 13 24 18 43 18
23 5 -13 13 23 17 43 18
23 5 -11 12 21 16 42 17
23 5 -10 12 20 15 40 17
23 5 -8 12 19 14 40 17
22 6 -7 11 18 13 39 16
20 6 -5 11 16 12 39 15
18 5 -4 11 14 10 38 13
16 5 -2 11 13 9 37 12
13 5 0 11 11 8 37 11
12 4 1 10 10 7 36 10
11 4 1 10 9 5 34 9
10 4 2 9 8 4 33 8
10 4 2 8 7 2 31 8
9 4 2 8 6 1 30 7
8 3 4 7 5 0 29 6
7 2 5 7 4 0 28 4
6 1 7 6 3 -2 27 3
5 1 9 6 2 -3 27 1
4 0 11 6 1 -3 26 0
3 -2 12 5 0 -4 25 -2
2 -2 12 5 -2 -5 25 -2
1 0 13 5 -3 -6 24 -3
0 1 13 5 -3 -6 23 -3
-2 1 13 5 -4 -7 23 -3
-3 2 14 5 -5 -8 22 -4
-3 0 14 5 -5 -8 22 -4
-4 -3 14 4 -5 -8 22 -4
-5 -4 14 4 -5 -8 22 -4
-5 -6 14 4 -5 -8 22 -4
-6 -7 15 3 -6 -9 22 -5
-6 -6 15 3 -6 -9 22 -6
-6 -5 15 3 -7 -9 22 -7
-6 -4 15 3 -8 -9 22 -8
-6 -3 15 3 -8 -9 22 -9
-6 -3 14 3 -9 -10 21 -10
-7 -4 14 3 -9 -10 21 -10
-9 -6 15 3 -8 -10 21 -10
-10 -8 15 3 -8 -10 21 -10
-11 -10 15 3 -8 -10 21 -10
-12 -11 16 3 -7 -11 21 -9
-11 -10 16 3 -7 -11 21 -9
-10 -9 17 3 -7 -11 22 -8
-10 -8 17 3 -7 -11 22 -7
-9 -7 17 3 -7 -11 22 -7
-8 -6 18 3 -8 -11 23 -6
-8 -6 18 3 -8 -11 23 -6
-9 -6 17 2 -8 -11 23 -6
-9 -6 16 2 -8 -11 23 -6
-9 -6 16 2 -8 -11 23 -6
-10 -5 15 1 -8 -11 23 -6
-10 -6 15 2 -7 -11 23 -6
-10 -7 15 3 -6 -11 23 -6
-10 -7 15 3 -5 -11 23 -6
-10 -8 15 4 -4 -11 23 -6
-11 -9 16 5 -3 -11 23 -6
-11 -8 17 5 -3 -11 23 -6
-11 -7 18 5 -4 -11 23 -6
-11 -6 18 5 -4 -11 23 -6
-11 -5 19 5 -4 -11 23 -6
-10 -4 20 5 -5 -12 23 -6
-10 -6 20 6 -4 -12 23 -6
-11 -8 20 7 -3 -11 24 -6
-12 -9 20 8 -3 -11 24 -6
-12 -11 20 9 -2 -11 24 -6
-13 -12 20 10 0 -10 25 -5
-13 -10 20 10 0 -10 25 -5
-12 -9 20 11 0 -10 26 -5
-11 -8 20 12 0 -10 27 -5
-11 -6 20 12 0 -10 27 -5
-10 -5 20 13 1 -9 28 -6
-10 -5 20 13 1 -9 28 -6
-9 -5 20 13 1 -8 28 -7
-9 -5 20 13 1 -8 28 -7
-9 -5 20 13 1 -8 28 -7
-8 -4 19 12 2 -7 28 -8
-8 -4 19 12 2 -7 29 -8
-9 -4 19 13 2 -8 30 -7
-9 -4 19 13 2 -8 30 -7
-9 -4 19 13 2 -8 31 -7
-10 -5 20 14 2 -9 32 -6
-9 -4 20 14 2 -9 32 -6
-8 -2 20 14 2 -9 32 -7
-8 0 20 14 2 -9 32 -7
-7 1 20 14 2 -9 32 -7
-6 2 19 14 2 -10 31 -8
-5 2 19 14 2 -10 32 -7
-4 1 20 14 2 -9 33 -6
-4 1 20 14 2 -8 34 -6
-3 1 20 14 2 -8 35 -5
-2 0 21 15 3 -7 36 -4
-2 0 21 15 2 -7 36 -4
-2 0 20 14 1 -8 35 -4
-2 0 19 13 1 -8 35 -4
-2 0 19 13 0 -8 35 -4
-3 -2 18 12 -2 -9 34 -4
-3 -2 18 12 -2 -9 34 -4
-2 -2 18 11 -3 -9 35 -4
-2 -2 18 10 -4 -9 36 -4
-2 -2 18 10 -4 -9 36 -4
0 -2 17 9 -5 -10 37 -4
0 -2 17 8 -5 -10 37 -4
-2 -2 17 6 -6 -10 37 -4
-2 -2 17 5 -7 -10 37 -4
-2 -2 17 4 -7 -10 37 -4
-3 0 17 3 -8 -11 36 -4
-3 -2 17 3 -8 -11 37 -4
-3 -3 16 3 -8 -11 38 -4
-3 -4 16 3 -8 -11 38 -4
-3 -5 16 3 -8 -11 39 -4
-2 -6 15 4 -7 -10 40 -3
-2 -6 15 4 -7 -10 40 -3
-3 -5 14 4 -8 -11 39 -3
-4 -5 14 4 -9 -11 39 -3
-4 -5 14 4 -9 -11 39 -3
-5 -4 13 3 -10 -12 38 -3
-6 -4 13 2 -10 -12 38 -3
-7 -5 13 1 -10 -12 39 -3
-8 -5 13 1 -10 -12 40 -3
-9 -5 13 0 -10 -12 40 -3
-10 -6 12 -2 -11 -12 42 -4
-10 -7 12 -2 -11 -12 42 -4
-9 -8 12 -2 -11 -12 42 -4
-9 -8 12 -2 -11 -12 42 -4
-9 -9 12 -2 -11 -12 42 -4
-8 -10 12 0 -11 -12 42 -4
-7 -9 12 0 -11 -12 42 -4
-5 -7 12 1 -11 -12 42 -4
-4 -6 12 1 -11 -12 42 -4
-3 -5 12 1 -11 -12 42 -4
-2 -3 13 2 -10 -12 42 -4
-2 0 14 3 -10 -11 44 -4
-2 2 15 4 -9 -9 45 -3
-2 4 16 4 -8 -8 46 -3
-2 6 17 5 -8 -7 48 -3
-2 7 18 6 -7 -6 49 -2
-2 6 19 6 -7 -6 49 0
-2 5 20 6 -7 -6 49 0
-3 4 21 6 -7 -6 50 1
-3 3 22 6 -7 -6 50 2
-4 3 23 6 -6 -5 51 3
-4 7 23 6 -6 -5 51 3
-4 10 22 6 -6 -5 52 3
-4 13 21 6 -5 -4 53 3
-4 17 21 6 -5 -4 53 3
-4 19 20 6 -4 -3 54 4
-2 19 20 6 -4 0 56 5
0 19 21 7 -3 1 58 6
2 20 22 8 -2 2 60 8
4 20 22 8 -2 4 62 9
5 22 23 9 0 5 63 10
5 25 23 9 1 6 64 11
5 27 23 9 1 7 64 12
4 30 23 10 2 9 65 14
4 33 23 10 3 10 66 15
3 35 24 11 4 11 67 16
5 35 22 11 4 11 65 16
6 35 21 11 4 11 64 16
7 35 20 11 4 11 63 16
9 35 18 11 4 11 61 16
10 35 17 10 4 10 60 17
11 35 16 10 4 10 58 17
11 35 15 10 4 10 57 17
12 34 13 10 4 10 55 17
13 34 12 10 4 10 53 17
14 33 11 9 5 10 51 17
13 31 11 9 4 9 49 15
13 30 10 8 3 8 47 14
12 29 9 7 2 7 44 13
11 27 9 7 1 6 42 11
9 24 8 6 -2 4 38 9
7 19 8 4 -4 2 34 7
5 15 8 3 -6 0 30 4
3 10 8 1 -8 -4 26 1
1 5 8 -2 -10 -6 22 -2
-2 2 8 -3 -12 -8 18 -4
-2 0 8 -3 -13 -8 16 -5
-2 -3 8 -4 -13 -9 14 -5
-2 -5 7 -5 -14 -10 12 -6
-2 -7 7 -5 -15 -10 10 -7
-2 -8 6 -6 -16 -11 8 -8
-2 -8 6 -6 -16 -11 7 -8
-2 -8 6 -7 -16 -11 6 -8
-2 -9 6 -8 -16 -11 5 -8
-2 -9 6 -8 -16 -11 4 -8
-3 -10 6 -9 -17 -12 3 -9
-5 -10 6 -9 -17 -12 1 -9
-6 -10 5 -9 -17 -12 0 -9
-7 -11 4 -9 -18 -12 -2 -9
-9 -11 4 -9 -18 -12 -4 -9
-10 -12 3 -10 -19 -12 -6 -9
-10 -13 3 -10 -19 -13 -8 -10
-10 -14 3 -11 -19 -13 -10 -10
-11 -16 2 -12 -20 -14 -13 -11
-11 -17 2 -12 -20 -15 -15 -12
-12 -18 1 -13 -21 -16 -17 -13
-12 -19 1 -13 -21 -16 -19 -14
-12 -20 0 -13 -22 -17 -21 -14
-12 -21 -2 -14 -23 -18 -23 -15
-12 -22 -2 -14 -23 -18 -25 -16
-13 -23 -3 -15 -24 -19 -27 -17
-13 -22 0 -14 -23 -18 -26 -16
-13 -21 1 -13 -23 -18 -25 -16
-13 -20 2 -12 -22 -17 -24 -15
-13 -19 4 -11 -21 -16 -23 -14
-14 -18 5 -10 -20 -15 -22 -13
-14 -18 7 -10 -20 -15 -22 -13
-14 -18 9 -10 -21 -15 -22 -13
-14 -18 11 -10 -22 -16 -23 -13
-14 -18 13 -10 -22 -16 -23 -13
-14 -18 15 -8 -23 -17 -24 -14
-15 -18 16 -6 -21 -16 -23 -14
-16 -17 16 -3 -19 -15 -22 -13
-17 -16 17 0 -17 -13 -21 -12
-18 -16 18 3 -16 -12 -20 -12
-14 -12 18 10 -6 -4 -14 -7
0 -4 14 22 13 14 1 3
13 5 10 35 32 31 14 12
26 13 6 48 51 49 28 21
39 21 3 60 70 66 42 30
55 35 -6 71 94 90 61 46
72 57 -18 78 122 121 89 69
89 79 -30 87 152 153 115 92
106 101 -43 95 181 186 143 115
123 122 -55 102 210 218 170 139
134 138 -63 105 230 239 188 153
133 143 -65 99 238 246 193 157
132 148 -67 93 245 255 198 161
130 153 -70 87 254 263 203 165
129 158 -72 80 262 270 209 169
118 154 -73 65 250 258 198 162
96 135 -69 36 207 217 167 141
73 115 -65 8 167 176 134 119
51 97 -61 -21 125 134 101 97
27 77 -57 -49 82 93 69 75
10 61 -54 -69 47 57 42 56
1 47 -52 -77 19 30 21 40
-10 32 -50 -86 -9 4 2 26
-20 18 -48 -95 -36 -24 -19 11
-30 4 -47 -103 -64 -51 -39 -5
-35 -7 -44 -105 -78 -67 -53 -15
-32 -11 -41 -95 -73 -68 -56 -17
-29 -14 -38 -86 -68 -70 -60 -20
-26 -18 -36 -76 -63 -71 -63 -23
-22 -21 -33 -67 -58 -73 -67 -26
-20 -24 -30 -59 -54 -74 -69 -28
-20 -24 -27 -53 -50 -73 -69 -27
-20 -23 -24 -47 -46 -72 -68 -26
-20 -22 -21 -39 -43 -71 -67 -24
-20 -22 -18 -33 -38 -70 -67 -23
-21 -21 -16 -29 -35 -69 -66 -22
-20 -21 -13 -27 -33 -69 -66 -22
-18 -21 -11 -25 -32 -69 -67 -22
-17 -22 -9 -23 -30 -69 -68 -22
-15 -22 -7 -21 -28 -69 -68 -22
-14 -23 -5 -19 -27 -70 -69 -22
-14 -25 -5 -18 -26 -71 -70 -22
-14 -26 -4 -17 -25 -71 -72 -22
-14 -28 -3 -15 -24 -72 -73 -22
-14 -30 -3 -14 -23 -73 -75 -22
-15 -31 -2 -13 -22 -74 -76 -21
-15 -30 -2 -13 -22 -74 -76 -21
-14 -29 -2 -13 -22 -75 -76 -21
-13 -27 -2 -12 -22 -76 -76 -21
-13 -26 -2 -12 -22 -76 -76 -21
-12 -25 -2 -11 -21 -77 -76 -21
-12 -25 -2 -11 -21 -79 -76 -21
-12 -25 -2 -11 -21 -81 -76 -21
-12 -24 -3 -11 -22 -83 -77 -21
-12 -24 -3 -11 -22 -86 -77 -21
-12 -23 -4 -12 -23 -88 -78 -22
-12 -24 -4 -12 -22 -87 -76 -21
-12 -25 -3 -12 -21 -87 -75 -20
-13 -27 -2 -12 -20 -86 -73 -18
-13 -28 -2 -12 -19 -85 -71 -17
-14 -29 0 -11 -18 -83 -70 -16
-14 -29 0 -11 -18 -83 -70 -17
-13 -28 0 -11 -18 -82 -71 -18
-12 -27 -2 -10 -18 -81 -72 -19
-12 -27 -2 -10 -18 -81 -72 -20
-11 -26 -3 -9 -19 -80 -73 -21
-11 -25 -3 -9 -19 -80 -73 -21
-11 -25 -3 -9 -19 -80 -73 -21
-11 -24 -4 -9 -19 -80 -72 -20
-11 -23 -4 -9 -19 -80 -72 -20
-10 -22 -5 -10 -18 -79 -71 -19
-10 -22 -5 -10 -18 -79 -71 -19
-10 -23 -5 -10 -18 -79 -71 -20
-10 -24 -4 -10 -18 -79 -71 -21
-10 -24 -4 -10 -18 -79 -71 -21
-10 -25 -3 -9 -19 -79 -71 -22
-10 -25 -3 -9 -18 -78 -70 -21
-10 -24 -3 -9 -18 -76 -69 -21
-9 -23 -3 -9 -17 -75 -67 -20
-9 -23 -3 -9 -16 -73 -66 -19
-8 -22 -2 -9 -15 -72 -65 -18
-8 -22 -2 -9 -15 -72 -65 -18
-8 -22 -2 -8 -14 -72 -65 -18
-9 -22 -2 -7 -13 -72 -65 -18
-9 -22 -2 -7 -13 -72 -65 -18
-10 -23 -3 -6 -12 -72 -66 -19
-9 -23 -3 -6 -12 -72 -66 -19
-9 -22 -3 -6 -12 -72 -66 -20
-8 -21 -4 -7 -12 -72 -66 -21
-7 -21 -4 -7 -12 -72 -66 -21
-6 -20 -5 -8 -13 -71 -66 -22
-6 -20 -5 -8 -13 -71 -66 -22
-6 -20 -5 -8 -13 -71 -66 -21
-7 -20 -5 -8 -13 -71 -66 -20
-7 -20 -5 -8 -13 -71 -66 -20
-8 -20 -5 -7 -12 -71 -67 -19
-8 -20 -5 -7 -12 -70 -67 -18
-7 -20 -6 -7 -12 -69 -67 -18
-6 -21 -7 -7 -11 -68 -67 -17
-6 -21 -7 -7 -11 -67 -67 -16
-5 -22 -8 -6 -10 -66 -66 -15
-5 -21 -8 -6 -10 -66 -66 -15
-5 -20 -8 -5 -10 -66 -66 -15
-4 -19 -9 -4 -9 -66 -65 -15
-4 -18 -9 -4 -9 -66 -65 -15
-3 -17 -10 -3 -8 -66 -64 -14
-3 -18 -10 -3 -7 -65 -63 -14
-3 -19 -11 -3 -6 -64 -61 -14
-4 -20 -12 -3 -4 -63 -60 -13
-4 -21 -12 -3 -3 -62 -58 -13
-5 -22 -13 -2 -2 -61 -57 -12
-3 -22 -13 0 1 -60 -57 -12
0 -21 -13 2 2 -59 -57 -12
2 -20 -13 3 4 -57 -56 -12
4 -20 -13 5 5 -56 -56 -12
6 -19 -14 6 7 -55 -55 -12
7 -19 -15 6 8 -54 -54 -11
7 -19 -15 6 8 -53 -53 -11
8 -19 -16 7 9 -51 -52 -10
9 -19 -17 7 10 -50 -51 -9
10 -19 -18 8 11 -49 -50 -8
12 -18 -19 9 13 -48 -49 -8
13 -17 -19 10 15 -47 -48 -7
15 -16 -20 12 17 -45 -46 -6
16 -15 -21 13 18 -44 -45 -6
18 -14 -22 14 20 -43 -44 -5
18 -14 -23 14 23 -39 -40 -3
19 -14 -24 14 26 -37 -38 0
20 -13 -26 15 29 -34 -35 2
20 -13 -27 15 32 -32 -33 4
21 -12 -28 16 34 -30 -31 6
22 -11 -29 16 34 -30 -31 6
24 -10 -31 17 34 -30 -31 5
25 -9 -32 17 34 -30 -31 5
27 -8 -34 18 34 -30 -31 4
28 -7 -35 19 33 -29 -32 3
28 -7 -35 19 34 -27 -31 5
28 -7 -35 19 35 -26 -30 6
28 -7 -36 19 36 -24 -29 8
28 -7 -36 19 38 -23 -28 9
29 -6 -37 20 39 -21 -27 11
29 -6 -37 20 39 -21 -26 11
29 -5 -38 20 39 -21 -26 11
29 -5 -38 20 39 -21 -25 11
29 -4 -39 20 39 -21 -24 11
28 -3 -40 20 39 -20 -23 11
28 -2 -41 19 39 -20 -23 11
28 -2 -43 18 39 -20 -23 12
29 0 -44 17 39 -19 -23 12
29 1 -45 16 39 -19 -23 13
30 2 -46 15 40 -18 -22 14
29 2 -45 15 39 -18 -22 14
28 2 -45 15 38 -18 -22 14
27 1 -44 14 37 -19 -23 13
26 1 -43 14 36 -19 -23 13
25 0 -41 13 35 -20 -24 12
24 0 -41 12 34 -20 -25 12
24 0 -41 11 32 -21 -25 11
23 -2 -40 10 31 -21 -26 11
22 -2 -40 8 29 -22 -27 10
21 -3 -39 7 28 -23 -28 9
20 -3 -36 7 26 -24 -28 9
18 -3 -34 7 24 -24 -28 9
17 -2 -32 7 22 -25 -28 9
15 -2 -29 7 20 -26 -28 9
14 0 -27 7 18 -27 -29 8
12 -2 -26 6 17 -28 -31 7
10 -3 -26 5 15 -30 -32 7
9 -4 -25 4 14 -31 -34 6
7 -5 -24 3 12 -33 -35 5
5 -6 -23 2 11 -34 -37 4
4 -6 -22 2 9 -35 -38 3
3 -6 -22 2 7 -36 -38 1
2 -7 -21 2 6 -37 -39 0
1 -7 -20 2 4 -39 -40 -3
0 -8 -19 1 2 -40 -41 -4
-3 -8 -18 0 2 -40 -41 -4
-4 -8 -17 -2 2 -40 -43 -4
-6 -8 -16 -3 2 -40 -43 -4
-7 -8 -14 -4 2 -40 -44 -4
-9 -7 -13 -5 1 -41 -45 -5
-8 -7 -13 -5 1 -41 -45 -5
-8 -7 -13 -5 1 -41 -45 -6
-7 -7 -13 -4 1 -41 -45 -6
-6 -7 -13 -4 1 -41 -45 -7
-5 -7 -13 -3 0 -41 -46 -8
-5 -7 -13 -3 0 -41 -46 -8
-6 -7 -13 -4 0 -41 -46 -8
-6 -6 -14 -4 -2 -41 -46 -8
-7 -6 -14 -5 -2 -41 -46 -8
-8 -5 -15 -6 -3 -40 -46 -8
-9 -6 -15 -6 -3 -40 -47 -8
-10 -7 -15 -6 -3 -40 -47 -8
-11 -8 -15 -7 -4 -41 -48 -9
-12 -10 -15 -7 -4 -41 -49 -9
-13 -11 -14 -8 -5 -43 -50 -10
-13 -10 -14 -8 -4 -41 -49 -10
-12 -10 -14 -7 -3 -40 -48 -9
-12 -9 -14 -7 -2 -39 -47 -9
-11 -8 -14 -6 0 -38 -46 -8
-10 -7 -14 -5 1 -37 -45 -7
-10 -8 -14 -5 1 -37 -41 -8
-10 -8 -14 -5 1 -37 -38 -8
-10 -9 -14 -5 1 -37 -35 -9
-10 -10 -14 -5 1 -37 -32 -10
-10 -11 -13 -4 0 -38 -29 -11
-11 -11 -13 -4 0 -38 -29 -11
-11 -11 -13 -4 0 -38 -29 -11
-12 -11 -13 -4 0 -38 -29 -11
-13 -11 -13 -4 0 -38 -29 -11
-14 -12 -12 -5 -2 -39 -30 -12
-13 -11 -12 -5 -2 -39 -30 -12
-13 -10 -12 -5 -2 -39 -31 -12
-12 -9 -12 -5 -2 -39 -31 -12
-11 -8 -12 -5 -2 -39 -32 -12
-10 -7 -11 -5 -3 -40 -33 -13
-10 -7 -11 -5 -3 -40 -33 -13
-10 -7 -11 -5 -2 -39 -32 -13
-10 -6 -11 -5 -2 -39 -32 -12
-10 -6 -11 -5 0 -38 -31 -12
-11 -5 -11 -4 1 -37 -30 -11
-11 -6 -10 -3 2 -37 -30 -10
